1553544444.00
64.000000
-0.00
-0.00
-0.00
-0.00
-0.00
-0.00
-0.00
-0.00
-0.00
-0.00
0.00
0.01
0.01
-0.00
-0.03
-0.05
-0.05
0.00
0.13
0.36
0.66
1.01
1.37
1.72
2.06
2.40
2.79
3.24
3.80
4.42
5.06
5.66
6.20
6.68
7.15
7.68
8.31
9.14
10.09
11.04
11.88
12.56
13.14
13.76
14.65
15.96
17.91
20.32
22.90
25.38
27.58
29.57
31.68
34.32
37.81
42.54
48.15
54.10
59.83
64.97
69.58
74.14
79.34
85.71
93.76
103.00
112.62
121.73
129.77
136.75
143.30
150.75
157.77
166.64
177.95
191.79
206.97
220.57
228.25
225.36
208.53
176.87
132.76
80.05
23.07
-34.94
-92.44
-149.16
-205.23
-260.37
-313.74
-363.87
-409.83
-450.91
-486.50
-515.74
-537.23
-549.22
-549.96
-538.37
-514.21
-478.67
-433.87
-382.43
-326.99
-269.79
-212.56
-156.56
-102.81
-52.19
-5.68
35.86
71.75
101.74
125.95
144.89
159.27
169.79
177.08
181.53
183.42
183.00
180.52
176.34
170.86
164.49
157.58
150.37
143.01
135.57
128.09
120.61
113.20
105.93
98.86
92.06
85.56
79.36
73.50
67.96
62.78
57.95
53.48
49.38
45.64
42.26
39.24
36.57
34.24
32.24
30.58
29.25
28.24
27.53
27.13
27.03
27.22
27.68
28.39
29.30
30.36
31.47
32.54
33.41
33.92
33.92
33.24
31.77
29.42
26.18
22.12
17.31
11.93
6.22
0.43
-5.17
-10.35
-14.89
-18.63
-21.48
-23.41
-24.45
-24.66
-24.17
-23.10
-21.59
-19.77
-17.73
-15.54
-13.28
-10.93
-8.56
-6.17
-3.77
-1.35
1.10
3.58
6.10
8.70
11.42
14.22
17.07
19.98
22.97
26.05
29.25
32.62
36.20
40.06
44.10
48.25
52.47
56.76
61.12
65.56
70.14
74.94
80.08
85.43
90.92
96.51
102.20
107.99
113.88
119.87
125.99
132.29
138.43
144.16
149.24
153.40
156.33
157.61
156.70
152.77
147.37
141.01
134.03
126.68
119.12
111.52
104.01
96.73
89.82
83.47
77.51
71.85
66.44
61.25
56.30
51.61
47.20
43.15
39.55
36.24
33.14
30.20
27.40
24.74
22.22
19.86
17.70
15.80
14.03
12.33
10.67
9.02
7.37
5.74
4.16
2.65
1.29
0.04
-1.09
-2.09
-2.94
-3.63
-4.16
-4.52
-4.77
-4.94
-5.08
-5.26
-5.48
-5.72
-5.99
-6.25
-6.51
-6.80
-7.14
-7.57
-8.08
-8.67
-9.27
-9.84
-10.34
-10.81
-11.31
-11.93
-12.77
-13.87
-15.20
-16.65
-18.12
-19.54
-20.93
-22.46
-24.31
-26.67
-29.57
-32.87
-36.26
-39.44
-42.21
-44.65
-47.10
-50.06
-54.01
-59.14
-65.27
-71.94
-78.57
-84.81
-90.72
-96.82
-103.87
-112.57
-123.19
-135.42
-148.54
-161.69
-174.27
-186.20
-197.94
-210.27
-224.28
-241.05
-261.44
-285.61
-312.40
-339.08
-361.61
-375.82
-378.80
-370.12
-352.01
-328.48
-303.69
-280.48
-259.75
-240.82
-222.38
-203.47
-183.83
-163.77
-143.74
-123.99
-104.59
-85.57
-67.17
-49.94
-34.62
-21.91
-12.08
-4.87
0.51
5.12
9.88
15.22
20.91
26.27
30.56
33.36
34.73
35.18
35.39
35.95
37.12
38.80
40.59
41.96
42.51
41.93
40.21
37.54
34.26
30.71
27.18
23.83
20.70
17.72
14.72
11.42
7.58
3.10
-1.82
-6.56
-10.25
-11.91
-10.94
-7.25
-1.38
5.73
13.06
19.79
25.56
30.27
34.02
36.90
38.96
40.23
40.85
41.04
41.08
41.26
41.62
42.05
42.31
42.14
41.40
40.13
38.54
36.89
35.41
34.19
33.15
32.11
30.78
28.94
26.51
23.49
20.01
16.28
12.51
8.85
5.40
2.14
-1.10
-4.62
-8.76
-13.71
-19.24
-24.66
-28.91
-30.88
-29.83
-25.63
-18.86
-10.56
-1.91
6.12
12.92
18.32
22.36
25.25
27.27
28.60
29.41
29.84
29.99
29.91
29.67
29.27
28.68
27.82
26.63
25.16
23.54
22.03
20.95
20.45
20.50
20.77
20.77
20.07
18.44
15.94
12.89
9.69
6.68
4.04
1.75
-0.24
-2.11
-4.12
-6.57
-9.75
-13.72
-18.24
-22.65
-26.05
-27.56
-26.56
-22.94
-17.11
-9.92
-2.30
4.87
11.03
15.91
19.56
22.19
24.06
25.33
26.10
26.45
26.43
26.17
25.75
25.18
24.36
23.21
21.62
19.68
17.58
15.65
14.13
13.18
12.75
12.64
12.53
12.16
11.33
9.96
8.15
6.11
4.03
1.99
-0.03
-2.26
-5.01
-8.60
-13.08
-18.18
-23.28
-27.56
-30.17
-30.57
-28.64
-24.70
-19.35
-13.34
-7.22
-1.41
3.86
8.46
12.32
15.40
17.72
19.36
20.48
21.22
21.73
22.10
22.35
22.44
22.30
21.88
21.18
20.27
19.29
18.36
17.52
16.72
15.80
14.60
13.03
11.10
8.88
6.54
4.14
1.73
-0.69
-3.16
-5.73
-8.52
-11.69
-15.37
-19.59
-24.13
-28.43
-31.73
-33.24
-32.44
-29.25
-24.03
-17.45
-10.33
-3.40
2.82
8.00
12.03
14.99
17.02
18.32
19.10
19.49
19.61
19.48
19.18
18.78
18.40
18.11
17.98
17.95
17.94
17.82
17.41
16.59
15.33
13.65
11.61
9.31
6.83
4.25
1.64
-0.91
-3.32
-5.57
-7.79
-10.30
-13.45
-17.52
-22.48
-27.78
-32.48
-35.49
-35.99
-33.67
-28.93
-22.61
-15.70
-8.98
-2.85
2.64
7.62
12.16
16.23
19.65
22.28
24.05
24.98
25.23
24.92
24.24
23.27
22.15
20.96
19.83
18.86
18.11
17.64
17.39
17.22
16.94
16.30
15.10
13.23
10.72
7.75
4.59
1.51
-1.31
-3.79
-6.00
-8.13
-10.49
-13.36
-16.99
-21.43
-26.39
-31.22
-35.00
-36.75
-35.80
-32.01
-25.87
-18.33
-10.51
-3.31
2.81
7.79
11.84
15.18
17.90
19.93
21.19
21.69
21.63
21.35
21.21
21.38
21.76
22.05
21.93
21.23
20.06
18.75
17.63
16.88
16.39
15.80
14.69
12.82
10.22
7.21
4.13
1.27
-1.30
-3.76
-6.36
-9.36
-12.92
-17.05
-21.69
-26.59
-31.33
-35.25
-37.59
-37.62
-34.93
-29.65
-22.42
-14.22
-6.01
1.42
7.64
12.54
16.19
18.77
20.51
21.57
22.11
22.21
21.94
21.36
20.52
19.47
18.27
16.98
15.69
14.49
13.46
12.64
11.98
11.34
10.51
9.28
7.54
5.35
2.86
0.32
-2.04
-4.03
-5.64
-7.02
-8.48
-10.42
-13.19
-16.93
-21.40
-25.96
-29.71
-31.74
-31.36
-28.36
-23.02
-16.04
-8.33
-0.78
5.90
11.32
15.35
18.10
19.75
20.55
20.72
20.44
19.87
19.18
18.44
17.65
16.81
15.85
14.81
13.79
12.93
12.29
11.83
11.29
10.42
8.95
6.78
3.99
0.82
-2.39
-5.37
-7.89
-9.88
-11.43
-12.84
-14.54
-17.00
-20.45
-24.70
-29.10
-32.64
-34.29
-33.27
-29.42
-23.21
-15.52
-7.33
0.55
7.60
13.64
18.64
22.69
25.95
28.56
30.64
32.18
32.98
32.72
31.13
28.17
24.16
19.77
15.73
12.62
10.62
9.50
8.82
8.09
6.97
5.43
3.65
1.89
0.41
-0.75
-1.80
-3.20
-5.64
-9.95
-16.91
-27.12
-40.78
-57.31
-75.27
-92.61
-107.13
-117.23
-122.38
-123.08
-120.44
-115.38
-108.17
-98.38
-85.49
-69.54
-51.63
-33.72
-18.06
-6.25
1.30
5.43
7.79
10.30
14.60
21.76
32.19
45.65
61.29
77.65
92.92
105.33
113.73
118.01
119.22
119.02
118.97
119.71
120.83
121.07
119.04
113.84
105.41
94.32
81.56
68.06
54.64
41.88
30.14
19.52
9.71
0.03
-10.27
-21.52
-33.21
-44.05
-52.50
-57.60
-59.51
-59.38
-58.73
-58.52
-58.68
-58.35
-56.60
-53.21
-48.90
-44.84
-41.85
-39.83
-37.74
-34.25
-28.49
-20.51
-11.06
-1.08
8.91
18.88
29.00
39.16
48.73
56.55
61.47
62.92
61.21
57.54
53.55
50.62
49.42
49.50
49.52
47.72
42.68
33.83
21.78
8.16
-4.96
-15.67
-22.74
-25.83
-25.27
-21.93
-16.99
-11.68
-7.10
-4.13
-3.19
-4.30
-7.11
-10.94
-14.99
-18.39
-20.38
-20.55
-19.04
-16.54
-14.14
-12.85
-13.28
-15.49
-19.06
-23.47
-28.39
-33.79
-39.82
-46.70
-54.69
-64.07
-75.12
-87.94
-102.13
-116.76
-130.44
-141.69
-149.35
-152.73
-151.46
-145.43
-134.72
-119.88
-102.20
-83.80
-67.20
-54.68
-47.56
-46.05
-49.38
-56.24
-64.92
-73.27
-78.64
-78.13
-69.39
-51.26
-24.33
9.41
47.20
86.31
124.38
159.43
189.64
213.23
228.86
235.97
235.14
227.91
216.32
202.30
187.34
172.48
158.35
145.35
133.49
122.35
111.26
99.61
87.39
75.32
64.68
56.69
51.91
49.89
49.32
48.64
46.53
42.32
36.00
27.97
18.91
9.61
0.89
-6.58
-12.48
-17.06
-21.00
-25.06
-29.74
-34.95
-40.11
-44.45
-47.39
-48.80
-49.04
-48.67
-48.10
-47.47
-46.60
-45.21
-43.09
-40.19
-36.62
-32.54
-28.01
-23.03
-17.61
-11.89
-6.23
-1.07
3.23
6.61
9.39
12.10
15.15
18.55
21.81
24.10
24.76
23.63
21.16
18.17
15.37
12.98
10.68
8.01
4.66
0.84
-2.82
-5.71
-7.50
-8.23
-8.10
-7.21
-5.47
-2.76
0.76
4.52
7.57
9.04
8.51
6.23
3.05
-0.03
-2.24
-3.26
-3.21
-2.45
-1.32
0.04
1.61
3.53
5.94
8.91
12.43
16.34
20.36
24.05
26.91
28.39
28.15
26.09
22.49
17.96
13.31
9.32
6.48
4.87
4.18
3.79
3.16
1.93
0.12
-2.00
-4.20
-6.42
-8.91
-12.05
-16.18
-21.32
-27.20
-33.25
-38.88
-43.57
-47.01
-49.07
-49.81
-49.50
-48.58
-47.70
-47.55
-48.76
-51.68
-56.23
-61.91
-67.76
-72.62
-75.33
-74.99
-71.22
-64.25
-54.92
-44.33
-33.72
-24.03
-15.91
-9.57
-4.99
-1.97
-0.24
0.49
0.53
0.08
-0.71
-1.72
-2.77
-3.49
-3.44
-2.18
0.45
4.26
8.71
13.00
16.41
18.52
19.33
19.27
18.96
19.02
19.81
21.28
23.12
24.84
26.04
26.50
26.21
25.33
24.13
22.95
22.25
22.46
23.90
26.50
29.84
33.19
35.84
37.36
37.71
37.22
36.28
35.20
34.03
32.64
30.86
28.52
25.65
22.44
19.19
16.33
14.21
13.01
12.72
13.11
13.80
14.32
14.27
13.31
11.35
8.49
5.14
1.86
-0.81
-2.56
-3.46
-3.97
-4.75
-6.43
-9.46
-13.88
-19.28
-24.81
-29.34
-31.73
-31.20
-27.68
-21.93
-15.26
-9.13
-4.55
-1.87
-0.70
-0.19
0.53
2.10
4.76
8.40
12.70
17.23
21.61
25.49
28.72
31.23
33.08
34.40
35.36
36.08
36.61
36.77
36.26
34.67
31.66
27.10
21.13
14.19
6.84
-0.27
-6.65
-12.03
-16.44
-20.14
-23.50
-26.73
-29.74
-32.09
-33.13
-32.30
-29.41
-24.74
-18.97
-12.85
-7.01
-1.89
2.32
5.62
8.15
10.08
11.57
12.63
13.08
12.66
11.16
8.61
5.44
2.32
-0.02
-1.08
-0.69
0.95
3.48
6.46
9.46
12.18
14.38
15.99
17.07
17.84
18.57
19.54
20.90
22.67
24.71
26.84
28.94
31.02
33.28
36.09
39.89
45.05
51.67
59.49
67.91
76.14
83.44
89.15
92.80
93.99
92.38
87.80
80.46
71.10
60.74
50.20
39.49
27.69
13.20
-5.32
-28.20
-54.52
-82.49
-110.28
-136.82
-162.06
-186.63
-211.31
-236.87
-264.12
-294.12
-327.66
-364.35
-401.52
-433.95
-455.04
-459.09
-443.68
-410.79
-366.19
-317.27
-270.46
-229.63
-195.75
-168.00
-144.95
-125.43
-108.62
-93.75
-79.74
-65.36
-49.60
-31.97
-12.68
7.63
28.20
48.75
69.68
92.21
117.91
147.89
181.96
218.02
252.35
280.60
299.18
306.44
302.96
290.99
273.45
252.94
231.30
209.86
189.79
172.41
159.00
150.34
146.20
145.32
145.89
146.16
145.24
143.42
142.10
143.11
147.76
156.25
167.38
179.09
189.17
196.07
199.24
198.89
195.51
189.25
179.93
167.13
150.74
131.27
109.93
88.38
68.27
50.71
36.05
23.76
12.74
1.62
-10.90
-25.71
-43.29
-63.62
-86.33
-110.66
-135.66
-160.36
-183.78
-205.16
-224.03
-240.17
-253.62
-264.50
-272.73
-277.92
-279.10
-274.81
-263.39
-243.46
-214.48
-177.26
-133.90
-87.47
-41.26
1.93
40.23
72.67
98.80
118.16
130.06
133.74
128.88
116.10
97.24
74.97
52.14
30.94
12.62
-2.44
-14.28
-22.98
-28.51
-30.89
-30.48
-27.88
-23.71
-18.38
-11.93
-4.37
3.96
12.25
19.32
24.08
25.91
24.85
21.37
16.06
9.39
1.66
-6.68
-14.88
-21.87
-26.45
-27.71
-25.35
-19.73
-11.82
-2.88
5.68
12.49
16.30
16.20
11.81
3.61
-6.94
-17.58
-25.82
-29.56
-27.62
-19.83
-6.82
10.45
30.85
53.21
76.12
97.82
116.29
129.62
136.52
136.69
130.99
121.13
109.16
96.80
84.96
73.71
62.63
51.38
40.08
29.37
19.79
11.42
3.47
-5.39
-16.31
-29.53
-44.04
-57.92
-69.13
-76.44
-79.94
-80.99
-81.69
-84.03
-89.11
-96.61
-104.69
-110.24
-109.53
-99.02
-76.51
-41.84
2.75
52.97
103.43
148.87
185.02
209.08
219.75
216.98
201.88
176.66
144.56
109.38
74.95
44.38
19.51
0.90
-11.91
-19.90
-24.15
-25.56
-24.81
-22.31
-18.42
-13.57
-8.44
-3.98
-1.28
-1.07
-3.42
-7.49
-11.88
-15.12
-16.31
-15.43
-13.25
-10.90
-9.30
-8.75
-8.84
-8.84
-8.01
-6.01
-2.98
0.56
4.06
7.15
9.76
11.96
13.83
15.25
15.85
15.14
12.69
8.30
1.91
-6.48
-16.89
-29.49
-44.27
-60.90
-78.50
-95.66
-110.72
-122.03
-128.35
-129.18
-124.88
-116.68
-106.34
-95.71
-86.10
-78.07
-71.40
-65.48
-59.77
-54.09
-48.65
-43.79
-39.68
-36.27
-33.45
-31.15
-29.43
-28.34
-27.78
-27.45
-26.96
-25.98
-24.31
-21.82
-18.46
-14.19
-9.17
-3.80
1.20
5.10
7.49
8.57
9.11
10.05
11.88
14.20
15.72
14.88
10.74
3.58
-5.09
-13.19
-18.94
-21.48
-20.87
-17.70
-12.60
-6.14
1.00
7.84
13.34
16.81
18.31
18.68
18.89
19.39
19.62
18.30
14.17
6.92
-2.25
-10.75
-15.43
-14.05
-6.81
2.56
7.27
0.01
-23.40
-60.98
-104.54
-143.02
-167.81
-176.78
-174.67
-169.51
-167.30
-168.34
-167.56
-158.09
-135.58
-100.66
-58.34
-15.67
20.76
46.03
56.92
51.93
31.70
-0.39
-38.46
-75.44
-105.17
-124.01
-131.20
-128.14
-117.26
-101.40
-83.50
-66.63
-53.42
-45.04
-40.48
-36.58
-29.25
-15.12
7.13
36.34
69.75
104.47
138.53
171.01
201.63
229.90
254.74
274.49
287.44
292.70
290.58
282.35
269.44
252.57
231.41
205.31
174.49
140.95
108.10
79.28
55.94
36.86
19.03
-0.06
-20.53
-39.70
-53.79
-60.62
-61.35
-59.96
-61.00
-67.01
-77.29
-88.59
-97.01
-99.99
-97.11
-89.65
-79.32
-67.24
-53.69
-38.60
-22.48
-6.65
6.93
16.67
22.26
25.01
27.42
31.91
39.66
49.89
60.08
67.09
68.42
63.18
52.23
37.68
22.09
7.65
-4.17
-12.79
-18.19
-20.60
-20.30
-17.53
-12.86
-7.29
-2.24
0.96
1.48
-0.63
-4.48
-8.87
-12.78
-15.85
-18.36
-21.07
-24.62
-29.26
-34.70
-40.30
-45.38
-49.56
-52.89
-55.77
-58.65
-61.87
-65.36
-68.70
-71.15
-71.93
-70.46
-66.58
-60.71
-53.72
-46.67
-40.40
-35.28
-31.29
-28.26
-26.08
-24.76
-24.10
-23.41
-21.27
-16.04
-6.65
6.77
22.51
37.83
49.91
56.92
58.59
56.04
51.21
45.93
41.38
37.97
35.60
34.09
33.43
33.74
35.08
37.16
39.41
41.18
42.12
42.36
42.54
43.49
45.83
49.80
55.18
61.48
68.05
74.20
79.30
82.88
84.70
84.86
83.78
82.09
80.43
79.25
78.71
78.75
79.19
79.91
80.93
82.49
84.89
88.38
92.96
98.23
103.53
108.18
111.76
114.38
116.63
119.33
123.14
128.26
134.18
139.69
142.84
141.21
132.20
113.82
85.67
49.63
9.89
-28.11
-59.31
-80.81
-92.63
-97.18
-97.85
-97.37
-96.90
-96.24
-94.73
-92.16
-89.13
-86.73
-85.83
-86.54
-88.25
-89.94
-90.62
-89.73
-87.11
-82.96
-77.59
-71.28
-64.28
-56.77
-48.94
-41.00
-33.29
-26.27
-20.45
-16.23
-13.76
-12.83
-12.88
-13.23
-13.31
-12.85
-11.90
-10.76
-9.72
-8.94
-8.42
-8.03
-7.67
-7.35
-7.18
-7.29
-7.80
-8.70
-9.92
-11.32
-12.77
-14.25
-15.79
-17.55
-19.62
-21.90
-24.05
-25.48
-25.59
-23.95
-20.51
-15.59
-9.78
-3.69
2.14
7.34
11.68
15.02
17.29
18.56
19.00
18.86
18.34
17.59
16.68
15.61
14.44
13.28
12.32
11.67
11.32
11.16
10.98
10.63
10.12
9.53
8.98
8.50
8.02
7.45
6.69
5.79
4.86
4.00
3.19
2.25
0.98
-0.75
-2.69
-4.29
-4.82
-3.64
-0.60
3.92
8.99
13.44
16.24
16.75
14.90
11.15
6.34
1.43
-2.79
-5.87
-7.80
-8.99
-10.01
-11.36
-13.24
-15.57
-17.95
-19.96
-21.29
-21.87
-21.86
-21.53
-21.15
-20.89
-20.84
-21.08
-21.63
-22.66
-24.23
-26.38
-28.94
-31.59
-33.92
-35.60
-36.49
-36.75
-36.67
-36.58
-36.62
-36.60
-36.11
-34.63
-31.77
-27.50
-22.08
-16.01
-9.69
-3.40
2.81
8.93
14.84
20.23
24.61
27.59
28.98
28.98
27.97
26.47
24.90
23.59
22.74
22.50
22.92
23.91
25.23
26.53
27.47
27.84
27.59
26.86
25.85
24.74
23.69
22.81
22.17
21.81
21.76
22.04
22.68
23.71
25.00
26.21
26.79
26.20
24.25
21.36
18.52
16.93
17.47
20.33
24.85
29.83
33.90
35.94
35.37
32.17
26.77
19.91
12.41
5.09
-1.30
-6.19
-9.39
-11.27
-12.88
-15.56
-19.95
-24.98
-27.69
-24.16
-11.64
9.43
34.85
57.82
71.54
71.58
57.14
30.40
-5.22
-46.80
-92.47
-140.66
-188.68
-231.81
-263.81
-278.85
-273.92
-250.50
-214.50
-174.35
-137.92
-109.90
-90.50
-76.55
-63.94
-49.99
-34.70
-20.08
-8.46
-0.79
3.85
7.78
13.31
21.57
32.04
42.92
52.15
58.29
61.01
60.88
58.73
55.02
49.52
41.52
30.45
16.39
0.28
-16.26
-31.50
-44.03
-53.14
-58.94
-62.13
-63.87
-65.40
-67.79
-71.53
-76.37
-81.31
-84.83
-85.39
-81.88
-74.03
-62.42
-48.23
-32.81
-17.18
-1.89
13.08
28.05
43.25
58.59
73.36
86.37
96.23
101.81
102.75
99.67
94.11
88.06
83.26
80.70
80.32
81.10
81.59
80.43
76.71
70.12
60.94
49.75
37.34
24.54
12.03
0.27
-10.68
-21.16
-31.80
-43.27
-55.94
-69.62
-83.34
-95.49
-104.09
-107.23
-103.69
-93.26
-76.95
-56.78
-35.26
-14.98
2.11
14.95
23.42
28.17
30.24
30.76
30.68
30.67
31.13
32.24
34.04
36.43
39.15
41.84
44.04
45.34
45.47
44.40
42.27
39.28
35.61
31.32
26.39
20.86
14.90
8.82
3.01
-2.30
-7.16
-11.95
-17.26
-23.53
-30.87
-38.84
-46.51
-52.64
-55.94
-55.48
-50.86
-42.35
-30.83
-17.70
-4.50
7.28
16.51
22.61
25.58
25.94
24.48
22.12
19.66
17.63
16.36
15.95
16.42
17.76
19.94
22.79
25.89
28.59
30.08
29.65
26.97
22.20
16.01
9.31
2.95
-2.49
-6.82
-10.15
-12.77
-15.13
-17.75
-21.07
-25.29
-30.19
-34.96
-38.44
-39.43
-37.09
-31.28
-22.55
-11.93
-0.58
10.51
20.64
29.43
36.71
42.45
46.73
49.67
51.42
52.13
51.96
51.04
49.55
47.74
45.87
44.20
42.89
41.96
41.26
40.54
39.54
38.03
35.83
32.89
29.15
24.65
19.50
13.90
8.18
2.69
-2.39
-7.24
-12.27
-18.09
-25.05
-33.03
-41.37
-48.95
-54.60
-57.32
-56.52
-52.05
-44.14
-33.33
-20.52
-6.97
5.79
16.18
22.98
25.68
24.70
21.25
17.00
13.62
12.31
13.55
17.04
21.99
27.36
32.19
35.82
37.88
38.30
37.20
34.82
31.50
27.66
23.73
20.10
17.01
14.44
12.08
9.34
5.50
0.03
-7.27
-15.97
-25.06
-33.03
-38.35
-39.83
-37.03
-30.27
-20.54
-9.17
2.54
13.60
23.39
31.67
38.40
43.56
47.18
49.30
50.07
49.75
48.69
47.21
45.50
43.56
41.26
38.53
35.44
32.21
29.13
26.37
23.85
21.20
17.98
13.80
8.50
2.21
-4.70
-11.81
-18.77
-25.48
-32.09
-38.89
-46.05
-53.47
-60.58
-66.40
-69.75
-69.59
-65.39
-57.28
-46.14
-33.32
-20.31
-8.42
1.50
9.13
14.58
18.18
20.33
21.36
21.56
21.12
20.26
19.21
18.19
17.40
16.92
16.75
16.80
16.87
16.74
16.17
15.00
13.17
10.70
7.77
4.56
1.27
-2.03
-5.36
-8.88
-12.80
-17.33
-22.52
-28.15
-33.63
-38.03
-40.34
-39.73
-35.82
-28.84
-19.55
-9.00
1.72
11.65
20.16
26.90
31.73
34.75
36.17
36.29
35.42
33.88
31.88
29.66
27.39
25.24
23.28
21.51
19.79
17.96
15.89
13.46
10.63
7.43
3.96
0.32
-3.29
-6.72
-9.91
-12.93
-16.04
-19.61
-24.07
-29.58
-35.90
-42.29
-47.61
-50.60
-50.26
-46.21
-38.77
-28.91
-17.92
-7.03
2.89
11.37
18.30
23.79
27.99
31.03
33.01
34.00
34.04
33.25
31.77
29.77
27.47
25.02
22.60
20.31
18.25
16.46
14.92
13.52
12.05
10.36
8.31
5.98
3.54
1.21
-0.90
-2.90
-5.10
-7.95
-11.83
-16.91
-22.95
-29.26
-34.73
-38.10
-38.28
-34.71
-27.62
-17.92
-6.97
3.85
13.50
21.42
27.49
31.89
34.95
36.95
38.18
38.82
38.98
38.68
37.82
36.29
34.02
31.04
27.51
23.71
19.95
16.51
13.57
11.13
9.07
7.16
5.17
2.95
0.45
-2.28
-5.18
-8.26
-11.60
-15.36
-19.77
-24.95
-30.83
-36.98
-42.64
-46.82
-48.45
-46.78
-41.63
-33.47
-23.34
-12.50
-2.12
6.96
14.33
19.91
23.82
26.25
27.31
27.10
25.71
23.31
20.23
16.92
13.85
11.32
9.43
8.04
6.90
5.86
4.84
3.96
3.29
2.77
2.20
1.27
-0.30
-2.66
-5.80
-9.62
-14.00
-18.93
-24.43
-30.43
-36.64
-42.43
-46.82
-48.78
-47.46
-42.57
-34.49
-24.20
-13.00
-2.15
7.38
15.01
20.58
24.15
25.98
26.35
25.55
23.86
21.55
18.90
16.19
13.72
11.67
10.12
8.98
8.08
7.19
6.14
4.83
3.19
1.23
-1.01
-3.46
-5.99
-8.49
-10.89
-13.17
-15.48
-18.06
-21.11
-24.74
-28.79
-32.77
-35.91
-37.33
-36.26
-32.32
-25.63
-16.83
-6.88
3.23
12.61
20.63
26.86
31.04
33.03
32.93
31.08
28.11
24.77
21.78
19.61
18.35
17.76
17.42
16.91
16.00
14.62
12.91
11.05
9.12
7.06
4.74
2.06
-0.96
-4.14
-7.27
-10.27
-13.23
-16.40
-20.13
-24.58
-29.67
-35.03
-39.98
-43.76
-45.60
-44.92
-41.51
-35.53
-27.48
-18.11
-8.23
1.47
10.40
18.10
24.19
28.41
30.70
31.26
30.54
29.04
27.22
25.30
23.34
21.27
19.06
16.77
14.58
12.63
10.99
9.63
8.39
7.11
5.69
4.15
2.58
1.07
-0.34
-1.80
-3.50
-5.77
-8.84
-12.86
-17.82
-23.48
-29.35
-34.66
-38.54
-40.06
-38.56
-33.87
-26.40
-17.09
-7.08
2.53
11.04
18.18
24.06
28.89
32.70
35.23
36.00
34.56
30.76
25.03
18.24
11.62
6.34
3.20
2.39
3.51
5.69
7.83
8.92
8.30
5.81
1.75
-3.23
-8.29
-12.72
-16.02
-17.96
-18.66
-18.54
-18.30
-18.71
-20.39
-23.47
-27.46
-31.27
-33.59
-33.31
-29.91
-23.67
-15.48
-6.58
1.81
8.77
13.77
16.68
17.69
17.23
15.78
13.82
11.70
9.63
7.67
5.85
4.27
3.07
2.36
2.13
2.25
2.39
2.26
1.69
0.72
-0.49
-1.82
-3.26
-4.95
-7.03
-9.53
-12.35
-15.29
-18.28
-21.37
-24.64
-27.98
-30.89
-32.54
-32.06
-28.93
-23.19
-15.51
-6.90
1.62
9.35
15.96
21.34
25.44
28.15
29.38
29.08
27.45
24.87
21.82
18.72
15.81
13.15
10.69
8.34
6.08
4.00
2.25
0.85
-0.20
-1.14
-2.24
-3.81
-5.99
-8.79
-11.99
-15.25
-18.28
-20.91
-23.16
-25.20
-27.16
-29.00
-30.44
-30.96
-30.06
-27.41
-23.06
-17.39
-11.01
-4.52
1.58
7.01
11.60
15.28
17.98
19.64
20.34
20.28
19.89
19.66
19.97
20.96
22.36
23.67
24.30
23.89
22.40
20.17
17.69
15.37
13.43
11.78
10.16
8.30
6.03
3.36
0.44
-2.58
-5.64
-8.87
-12.49
-16.63
-21.12
-25.39
-28.57
-29.74
-28.28
-24.08
-17.58
-9.65
-1.29
6.59
13.43
18.98
23.31
26.63
29.19
31.18
32.67
33.65
34.13
34.10
33.56
32.49
30.81
28.44
25.36
21.70
17.75
13.88
10.44
7.61
5.39
3.59
1.90
0.03
-2.22
-4.85
-7.72
-10.54
-13.08
-15.34
-17.66
-20.59
-24.60
-29.74
-35.30
-40.00
-42.28
-40.96
-35.67
-27.20
-17.14
-7.52
-0.07
4.44
6.40
7.25
8.65
11.64
16.08
20.89
24.87
27.68
30.41
35.37
45.54
63.63
91.36
128.58
172.53
217.58
255.79
278.85
280.74
260.20
221.40
172.47
122.25
76.94
38.42
4.62
-28.65
-65.59
-108.76
-158.23
-211.27
-262.66
-305.76
-334.27
-344.30
-335.81
-312.49
-280.03
-243.95
-207.73
-172.38
-137.13
-100.83
-63.12
-24.74
12.58
46.74
75.83
98.71
115.16
125.86
131.99
134.52
133.87
129.97
122.94
113.77
104.71
98.67
97.90
102.79
111.49
120.67
127.06
129.02
127.02
123.21
119.99
118.67
118.99
119.58
119.09
117.12
114.52
112.83
113.40
116.73
122.20
128.37
133.44
135.99
135.45
132.28
127.84
123.68
120.85
119.32
117.99
115.18
109.29
99.45
85.56
68.18
48.19
26.57
4.37
-17.30
-37.55
-56.01
-73.36
-91.33
-112.06
-136.88
-164.98
-192.83
-214.87
-225.48
-221.01
-201.57
-171.16
-136.35
-104.08
-79.53
-64.78
-58.74
-57.99
-58.11
-55.08
-46.27
-31.16
-11.55
8.72
24.54
30.74
23.63
2.33
-30.61
-69.58
-107.02
-135.30
-148.58
-144.32
-124.09
-93.12
-58.96
-29.36
-10.13
-3.58
-8.32
-20.21
-34.27
-46.42
-54.54
-58.36
-58.70
-56.63
-53.04
-48.80
-44.96
-42.61
-42.48
-44.44
-47.58
-50.62
-52.52
-53.05
-52.74
-52.38
-52.48
-52.83
-52.63
-50.94
-47.19
-41.42
-34.29
-26.79
-19.83
-14.01
-9.56
-6.47
-4.51
-3.45
-3.09
-3.32
-4.21
-5.89
-8.42
-11.64
-15.07
-18.11
-20.16
-21.01
-20.86
-20.40
-20.51
-21.99
-25.28
-30.35
-36.62
-43.13
-48.79
-52.78
-54.90
-55.79
-56.83
-59.75
-66.05
-76.25
-89.55
-103.75
-115.78
-122.59
-122.12
-113.96
-99.38
-80.93
-61.53
-43.63
-28.71
-17.18
-8.64
-2.33
2.62
6.86
10.86
14.83
18.82
22.95
27.58
33.36
41.04
51.07
63.34
76.89
90.14
101.13
107.94
108.92
102.91
89.48
69.18
43.81
16.40
-9.24
-29.44
-41.67
-45.23
-41.37
-32.61
-21.89
-11.49
-2.64
4.51
10.42
15.69
20.65
25.32
29.57
33.33
36.72
39.99
43.37
46.92
50.41
53.44
55.64
56.81
56.92
56.01
54.02
50.75
46.01
39.83
32.65
25.27
18.62
13.38
9.71
7.32
5.56
3.80
1.63
-1.19
-4.77
-9.17
-14.36
-20.23
-26.39
-32.35
-37.59
-41.71
-44.56
-46.13
-46.45
-45.43
-42.83
-38.35
-31.81
-23.39
-13.70
-3.66
5.68
13.46
19.20
22.82
24.57
24.79
23.84
22.12
20.10
18.44
17.84
18.74
21.09
24.22
27.15
28.99
29.41
28.75
27.89
27.76
28.88
31.20
34.09
36.71
38.28
38.38
37.02
34.57
31.75
29.42
28.50
29.83
33.88
40.70
49.64
59.48
68.75
76.30
81.91
86.58
92.00
99.53
109.03
118.46
124.46
123.79
114.72
97.93
76.23
53.50
33.41
18.57
10.07
7.56
9.40
12.99
15.29
13.68
6.80
-4.94
-19.70
-35.35
-50.60
-65.61
-81.68
-100.25
-121.88
-145.81
-170.21
-192.78
-211.43
-224.49
-230.57
-228.65
-218.11
-199.26
-173.65
-144.01
-113.69
-85.75
-62.17
-43.52
-29.11
-17.56
-7.38
2.53
12.58
22.63
32.16
40.63
47.75
53.60
58.51
62.94
67.23
71.54
75.81
79.86
83.47
86.42
88.58
89.93
90.57
90.80
90.97
91.43
92.32
93.59
95.02
96.30
97.11
97.17
96.36
94.66
92.27
89.47
86.55
83.66
80.73
77.55
73.92
69.80
65.39
61.03
57.05
53.59
50.58
47.86
45.31
42.97
41.01
39.58
38.58
37.63
36.07
33.23
28.68
22.44
15.00
7.08
-0.66
-7.76
-14.09
-19.63
-24.40
-28.38
-31.71
-34.77
-38.20
-42.78
-48.88
-56.22
-63.73
-69.86
-73.14
-72.82
-69.03
-62.80
-55.51
-48.43
-42.30
-37.27
-33.14
-29.58
-26.43
-23.73
-21.59
-20.11
-19.26
-18.88
-18.81
-18.96
-19.33
-19.96
-20.84
-21.78
-22.56
-22.93
-22.86
-22.49
-22.14
-22.15
-22.78
-24.04
-25.78
-27.75
-29.75
-31.71
-33.75
-36.10
-38.91
-42.17
-45.66
-48.85
-51.13
-51.97
-51.09
-48.57
-44.85
-40.49
-36.02
-31.80
-27.96
-24.59
-21.77
-19.66
-18.46
-18.23
-18.86
-20.06
-21.39
-22.44
-22.92
-22.75
-22.02
-20.91
-19.66
-18.56
-17.86
-17.75
-18.35
-19.65
-21.43
-23.42
-25.37
-27.14
-28.78
-30.53
-32.71
-35.64
-39.52
-44.24
-49.43
-54.43
-58.45
-60.79
-61.05
-59.27
-55.95
-51.94
-48.10
-45.09
-43.21
-42.40
-42.33
-42.65
-43.07
-43.53
-44.11
-45.13
-46.95
-49.89
-54.06
-59.01
-63.79
-66.96
-67.11
-63.33
-55.59
-44.87
-32.72
-20.86
-10.63
-2.73
2.77
6.11
7.56
7.31
5.41
2.03
-2.57
-7.77
-12.82
-16.80
-18.94
-18.75
-16.06
-11.10
-4.29
3.80
12.59
21.48
29.93
37.51
44.00
49.40
53.99
58.22
62.49
67.11
72.12
77.40
82.77
88.05
93.06
97.70
101.86
105.41
108.27
110.40
111.94
113.20
114.56
116.38
118.78
121.44
123.67
124.46
122.86
118.20
110.33
99.62
86.79
72.75
58.44
44.74
32.44
22.12
14.14
8.53
4.94
2.82
1.48
0.22
-1.48
-3.86
-6.92
-10.36
-13.73
-16.52
-18.39
-19.29
-19.55
-19.85
-21.00
-23.73
-28.30
-34.43
-41.24
-47.57
-52.44
-55.42
-56.91
-57.97
-59.96
-63.98
-70.46
-78.99
-88.26
-96.43
-101.50
-101.81
-96.66
-86.59
-73.33
-59.29
-46.69
-36.77
-29.40
-23.26
-16.63
-8.21
2.35
14.41
26.77
38.19
47.77
55.09
60.04
62.76
63.45
62.44
60.11
56.95
53.41
49.85
46.49
43.36
40.36
37.24
33.74
29.66
25.02
20.02
15.06
10.50
6.56
3.18
0.06
-3.14
-6.56
-9.98
-12.87
-14.65
-15.08
-14.38
-13.31
-12.72
-13.20
-14.81
-17.02
-19.00
-20.04
-19.79
-18.35
-16.12
-13.53
-10.80
-7.99
-5.08
-2.14
0.54
2.56
3.50
3.18
1.68
-0.63
-3.35
-6.12
-8.71
-11.03
-12.90
-14.06
-14.26
-13.38
-11.51
-9.03
-6.34
-3.78
-1.50
0.42
1.90
2.73
2.58
1.18
-1.60
-5.61
-10.48
-15.70
-20.82
-25.45
-29.30
-32.20
-34.02
-34.88
-35.05
-35.02
-35.36
-36.47
-38.27
-40.02
-40.41
-38.01
-31.93
-22.19
-9.89
3.25
15.50
25.66
33.29
38.47
41.51
42.59
41.79
39.17
34.96
29.72
24.10
18.74
14.07
10.22
7.07
4.29
1.57
-1.34
-4.49
-7.74
-10.89
-13.73
-16.17
-18.20
-19.85
-21.05
-21.66
-21.48
-20.35
-18.27
-15.45
-12.34
-9.46
-7.28
-6.00
-5.55
-5.57
-5.68
-5.65
-5.55
-5.64
-6.19
-7.27
-8.68
-10.02
-10.94
-11.29
-11.11
-10.51
-9.50
-8.00
-5.97
-3.52
-1.01
1.09
2.38
2.73
2.34
1.62
0.94
0.36
-0.35
-1.61
-3.73
-6.74
-10.18
-13.31
-15.35
-15.72
-14.28
-11.32
-7.38
-3.04
1.22
5.09
8.42
11.04
12.86
13.77
13.78
13.06
11.87
10.52
9.31
8.45
8.01
7.99
8.27
8.66
8.91
8.79
8.22
7.26
6.06
4.82
3.69
2.64
1.56
0.32
-1.23
-3.18
-5.57
-8.38
-11.49
-14.62
-17.34
-19.15
-19.57
-18.43
-15.83
-12.17
-7.98
-3.79
0.03
3.25
5.85
7.91
9.54
10.86
11.88
12.57
12.82
12.56
11.79
10.67
9.39
8.20
7.22
6.51
6.00
5.61
5.27
4.87
4.35
3.66
2.79
1.76
0.64
-0.43
-1.39
-2.22
-2.99
-3.86
-5.02
-6.65
-8.80
-11.28
-13.66
-15.37
-15.85
-14.75
-12.09
-8.21
-3.69
0.86
4.98
8.40
11.02
12.92
14.16
14.80
14.89
14.42
13.39
11.88
10.00
7.92
5.87
4.03
2.50
1.31
0.38
-0.42
-1.25
-2.25
-3.55
-5.24
-7.35
-9.91
-12.84
-16.02
-19.36
-22.72
-26.04
-29.39
-32.83
-36.54
-40.62
-45.00
-49.42
-53.33
-56.09
-57.16
-56.36
-53.97
-50.65
-47.26
-44.58
-43.05
-42.80
-43.67
-45.39
-47.63
-50.04
-52.21
-53.71
-54.21
-53.50
-51.63
-48.82
-45.35
-41.45
-37.26
-32.86
-28.31
-23.76
-19.38
-15.36
-11.73
-8.33
-4.79
-0.65
4.37
10.20
16.32
21.93
26.17
28.52
28.90
27.61
25.18
22.32
19.80
18.52
19.34
22.75
28.58
35.97
43.66
50.60
56.45
61.70
67.17
73.54
80.77
88.18
94.86
100.04
103.40
104.87
104.34
101.52
96.07
87.95
77.71
66.53
55.82
46.74
39.83
34.92
31.49
29.00
27.19
26.06
25.69
25.98
26.51
26.70
26.01
24.17
21.26
17.49
13.13
8.39
3.50
-1.22
-5.20
-7.86
-8.74
-7.70
-5.01
-1.20
3.09
7.30
11.02
13.96
15.89
16.63
16.12
14.41
11.79
8.65
5.43
2.49
0.12
-1.56
-2.59
-3.15
-3.54
-4.03
-4.90
-6.21
-7.87
-9.66
-11.30
-12.60
-13.51
-14.11
-14.53
-14.82
-15.00
-14.99
-14.71
-14.25
-13.73
-13.44
-13.56
-14.10
-14.77
-15.19
-14.96
-13.92
-12.21
-10.16
-8.15
-6.44
-5.07
-3.87
-2.73
-1.53
-0.33
0.70
1.38
1.56
1.23
0.48
-0.52
-1.57
-2.55
-3.39
-4.12
-4.78
-5.34
-5.77
-6.03
-6.15
-6.30
-6.68
-7.46
-8.70
-10.29
-12.05
-13.78
-15.33
-16.65
-17.76
-18.75
-19.78
-20.98
-22.44
-24.09
-25.61
-26.53
-26.40
-24.94
-22.22
-18.65
-14.79
-11.12
-7.95
-5.32
-3.16
-1.44
-0.16
0.63
0.85
0.54
-0.17
-1.11
-2.09
-2.95
-3.62
-4.05
-4.19
-4.03
-3.59
-2.92
-2.16
-1.49
-1.10
-1.12
-1.55
-2.30
-3.18
-4.02
-4.79
-5.58
-6.57
-8.02
-10.09
-12.82
-16.02
-19.32
-22.19
-24.05
-24.40
-23.04
-20.10
-16.05
-11.56
-7.30
-3.71
-0.93
1.12
2.56
3.50
3.92
3.77
3.03
1.80
0.29
-1.29
-2.82
-4.29
-5.78
-7.37
-9.14
-11.07
-13.13
-15.22
-17.23
-19.11
-20.78
-22.19
-23.32
-24.15
-24.79
-25.39
-26.17
-27.32
-28.95
-31.06
-33.53
-36.30
-39.25
-42.25
-44.93
-46.65
-46.57
-43.83
-37.93
-28.97
-17.67
-5.17
7.22
18.37
27.43
33.92
37.64
38.63
37.20
33.95
29.74
25.69
22.91
22.35
24.50
29.43
36.77
45.92
56.25
67.12
77.94
88.05
96.74
103.25
106.90
107.33
104.43
98.34
89.40
77.99
64.56
49.59
33.64
17.27
0.93
-14.99
-30.16
-44.19
-56.48
-66.24
-72.61
-74.88
-72.73
-66.50
-57.03
-45.66
-33.87
-23.09
-14.46
-8.67
-5.92
-5.93
-8.00
-11.11
-14.13
-15.94
-15.71
-13.02
-8.07
-1.66
5.00
10.53
13.77
14.07
11.39
6.27
-0.32
-7.34
-13.81
-19.01
-22.49
-24.10
-23.93
-22.40
-20.20
-18.26
-17.51
-18.59
-21.58
-25.88
-30.43
-34.00
-35.61
-34.75
-31.48
-26.26
-19.79
-12.79
-5.93
0.24
5.31
9.02
11.27
12.12
11.73
10.43
8.64
6.86
5.60
5.25
5.93
7.52
9.60
11.72
13.47
14.63
15.17
15.18
14.75
13.94
12.78
11.37
9.87
8.48
7.31
6.33
5.37
4.17
2.63
0.92
-0.51
-1.05
-0.19
2.27
6.15
10.94
15.94
20.58
24.45
27.39
29.39
30.47
30.55
29.43
26.86
22.61
16.75
9.52
1.45
-6.80
-14.60
-21.43
-26.99
-31.10
-33.81
-35.27
-35.87
-36.12
-36.58
-37.73
-39.81
-42.67
-45.83
-48.57
-50.14
-50.05
-48.11
-44.51
-39.74
-34.37
-28.91
-23.55
-18.16
-12.35
-5.70
1.98
10.59
19.56
28.18
35.73
41.73
45.99
48.59
49.77
49.72
48.65
46.70
44.07
40.94
37.57
34.15
30.83
27.66
24.67
21.98
19.66
17.83
16.48
15.42
14.32
12.81
10.64
7.82
4.60
1.35
-1.56
-3.84
-5.37
-6.11
-6.18
-5.81
-5.41
-5.42
-6.25
-8.06
-10.66
-13.58
-16.12
-17.62
-17.67
-16.17
-13.26
-9.34
-4.82
-0.10
4.42
8.47
11.83
14.36
16.05
16.95
17.25
17.22
17.19
17.41
17.97
18.77
19.44
19.66
19.21
18.19
16.92
15.82
15.16
14.91
14.81
14.41
13.38
11.51
8.91
5.87
2.79
-0.05
-2.46
-4.58
-6.64
-8.91
-11.57
-14.58
-17.75
-20.74
-23.23
-24.89
-25.41
-24.54
-22.13
-18.19
-13.02
-7.14
-1.19
4.31
9.01
12.81
15.83
18.17
19.87
20.92
21.22
20.80
19.75
18.25
16.48
14.57
12.60
10.67
8.91
7.50
6.59
6.14
5.99
5.82
5.33
4.28
2.66
0.52
-1.93
-4.49
-6.97
-9.27
-11.45
-13.65
-16.11
-18.92
-21.87
-24.48
-26.04
-25.96
-24.00
-20.37
-15.66
-10.56
-5.56
-0.91
3.35
7.23
10.62
13.31
15.14
16.09
16.37
16.36
16.36
16.46
16.60
16.52
16.05
15.14
13.96
12.73
11.68
10.86
10.17
9.39
8.23
6.51
4.17
1.39
-1.55
-4.32
-6.74
-8.85
-10.95
-13.35
-16.25
-19.57
-22.87
-25.51
-26.84
-26.48
-24.33
-20.66
-15.97
-10.82
-5.76
-1.08
3.07
6.74
9.99
12.79
15.05
16.68
17.69
18.19
18.39
18.42
18.31
17.98
17.31
16.33
15.24
14.36
13.93
14.00
14.27
14.32
13.77
12.50
10.66
8.54
6.41
4.36
2.23
-0.16
-2.94
-6.06
-9.41
-12.81
-16.16
-19.43
-22.46
-24.91
-26.32
-26.17
-24.20
-20.53
-15.65
-10.25
-4.94
-0.12
4.08
7.81
11.16
14.20
16.78
18.69
19.74
19.91
19.36
18.41
17.42
16.62
16.05
15.63
15.22
14.73
14.18
13.68
13.25
12.82
12.12
10.86
8.83
6.06
2.86
-0.28
-2.87
-4.64
-5.67
-6.31
-7.05
-8.32
-10.35
-13.06
-16.11
-18.99
-21.11
-22.01
-21.42
-19.36
-16.08
-12.04
-7.76
-3.65
-0.04
2.98
5.38
7.31
8.89
10.26
11.47
12.51
13.31
13.80
13.97
13.79
13.34
12.67
11.88
11.13
10.56
10.32
10.46
10.87
11.27
11.37
10.84
9.57
7.60
5.15
2.51
0.00
-2.15
-3.93
-5.47
-7.06
-9.04
-11.61
-14.76
-18.25
-21.61
-24.34
-25.95
-26.12
-24.72
-21.83
-17.77
-12.96
-7.89
-2.96
1.59
5.59
9.01
11.73
13.68
14.75
14.97
14.53
13.71
12.80
11.94
11.14
10.24
9.14
7.91
6.77
6.02
5.90
6.39
7.28
8.18
8.72
8.72
8.09
6.88
5.17
3.02
0.54
-2.12
-4.85
-7.56
-10.23
-12.93
-15.73
-18.63
-21.45
-23.85
-25.44
-25.84
-24.81
-22.33
-18.56
-13.86
-8.65
-3.37
1.54
5.79
9.19
11.68
13.30
14.11
14.28
13.95
13.28
12.44
11.61
10.91
10.44
10.19
10.08
9.94
9.60
8.99
8.11
7.05
5.93
4.75
3.53
2.20
0.73
-0.86
-2.52
-4.25
-6.09
-8.19
-10.67
-13.55
-16.60
-19.43
-21.58
-22.59
-22.23
-20.48
-17.57
-13.88
-9.87
-5.95
-2.39
0.72
3.38
5.63
7.47
8.86
9.76
10.18
10.22
10.01
9.66
9.27
8.88
8.60
8.54
8.82
9.49
10.47
11.57
12.51
13.06
13.05
12.42
11.20
9.46
7.37
5.08
2.73
0.36
-2.09
-4.74
-7.76
-11.25
-15.16
-19.29
-23.21
-26.44
-28.46
-28.89
-27.59
-24.73
-20.70
-16.03
-11.17
-6.41
-1.91
2.24
5.99
9.18
11.70
13.51
14.65
15.34
15.76
16.03
16.13
15.97
15.42
14.51
13.38
12.25
11.29
10.53
9.85
9.00
7.74
5.95
3.69
1.20
-1.29
-3.52
-5.41
-6.98
-8.36
-9.75
-11.28
-12.99
-14.83
-16.61
-18.13
-19.17
-19.64
-19.48
-18.76
-17.56
-15.95
-13.92
-11.44
-8.45
-4.96
-1.03
3.12
7.21
10.87
13.76
15.56
16.02
14.97
12.43
8.65
4.15
-0.32
-3.85
-5.68
-5.38
-2.99
0.85
5.16
8.84
10.88
10.62
7.84
2.75
-4.07
-11.74
-19.24
-25.53
-29.83
-31.76
-31.51
-29.82
-27.81
-26.61
-27.00
-29.03
-32.10
-35.12
-36.97
-36.86
-34.38
-29.48
-22.23
-12.77
-1.29
11.73
25.52
39.06
51.37
61.76
69.90
75.74
79.23
80.35
79.15
76.03
71.80
67.58
64.32
62.44
61.62
60.91
59.27
56.05
51.33
45.90
40.89
37.33
35.82
36.29
38.18
40.63
42.68
43.55
42.66
39.73
34.77
28.08
20.10
11.35
2.33
-6.55
-14.89
-22.37
-28.68
-33.51
-36.60
-37.73
-36.82
-34.03
-30.02
-26.00
-23.72
-25.03
-31.41
-43.34
-60.02
-79.58
-99.47
-117.27
-131.15
-140.31
-144.78
-145.21
-142.39
-136.95
-129.27
-119.56
-108.13
-95.50
-82.40
-69.56
-57.48
-46.34
-36.15
-27.01
-19.48
-14.42
-12.69
-14.50
-18.94
-23.98
-26.86
-25.05
-17.05
-2.92
15.75
36.39
56.19
72.83
84.89
91.90
94.20
92.58
88.04
81.64
74.39
67.26
61.14
56.69
54.31
53.86
54.73
55.92
56.36
55.29
52.42
48.06
42.80
37.27
31.83
26.45
20.89
14.81
8.10
0.92
-6.19
-12.57
-17.61
-20.96
-22.78
-23.64
-24.45
-26.02
-28.76
-32.39
-36.11
-38.79
-39.53
-37.90
-34.08
-28.66
-22.35
-15.75
-9.26
-3.20
2.09
6.22
8.81
9.72
9.14
7.59
5.72
4.13
3.23
3.24
4.19
6.03
8.61
11.66
14.74
17.41
19.23
19.90
19.40
17.91
15.80
13.53
11.51
10.03
9.14
8.62
8.05
6.93
4.95
2.06
-1.54
-5.46
-9.24
-12.42
-14.59
-15.48
-14.95
-13.08
-10.24
-6.96
-3.76
-0.97
1.35
3.40
5.49
7.87
10.54
13.40
16.29
19.07
21.65
23.87
25.47
26.06
25.41
23.44
20.39
16.71
12.88
9.19
5.75
2.53
-0.53
-3.35
-5.84
-7.96
-9.85
-11.74
-13.84
-16.10
-18.15
-19.45
-19.45
-17.87
-14.85
-10.88
-6.65
-2.73
0.60
3.47
6.44
10.14
14.99
20.90
27.15
32.55
35.92
36.55
34.52
30.67
26.22
22.27
19.47
17.83
16.92
16.22
15.38
14.33
13.17
11.99
10.69
8.97
6.52
3.03
-1.58
-7.28
-13.85
-21.09
-28.73
-36.47
-43.87
-50.55
-56.20
-60.76
-64.50
-67.75
-70.75
-73.35
-75.03
-75.13
-73.28
-69.85
-65.94
-63.12
-62.88
-66.09
-72.74
-82.03
-92.57
-102.68
-110.80
-115.68
-116.73
-114.08
-108.49
-100.97
-92.52
-83.84
-75.46
-68.02
-62.47
-59.85
-60.81
-65.13
-71.51
-77.91
-82.04
-81.90
-76.06
-64.02
-46.57
-25.87
-5.25
11.83
23.19
28.98
31.78
35.44
43.19
55.97
72.08
88.11
100.69
107.97
109.96
107.91
103.20
96.57
88.03
77.29
64.25
49.29
33.37
17.89
4.38
-5.95
-12.67
-16.41
-18.57
-20.66
-23.44
-26.56
-28.68
-28.42
-25.19
-19.76
-13.88
-9.51
-7.95
-9.45
-13.56
-19.52
-26.74
-34.71
-42.80
-50.08
-55.50
-58.29
-58.26
-55.90
-52.07
-47.52
-42.51
-36.58
-28.85
-18.11
-3.21
16.78
42.29
73.00
107.51
143.40
177.48
206.52
228.08
241.10
245.91
243.87
236.77
226.35
214.00
200.90
188.06
176.41
166.80
159.52
154.09
149.09
142.60
133.17
120.78
107.29
95.94
90.07
91.71
100.79
115.32
132.23
148.45
161.43
169.15
170.00
162.99
148.14
126.97
102.36
77.80
56.25
39.32
27.01
18.23
11.59
5.94
0.65
-4.62
-10.20
-16.56
-24.39
-34.51
-47.78
-64.93
-86.17
-110.82
-137.03
-162.00
-182.58
-196.31
-202.19
-201.00
-194.91
-186.59
-178.26
-171.16
-165.56
-161.02
-156.90
-152.52
-147.34
-140.82
-132.57
-122.51
-110.90
-98.34
-85.65
-73.69
-63.10
-54.22
-47.09
-41.40
-36.67
-32.29
-27.74
-22.80
-17.55
-12.40
-7.91
-4.48
-2.18
-0.75
0.31
1.41
2.73
4.09
5.08
5.28
4.49
2.78
0.48
-2.03
-4.47
-6.71
-8.81
-10.94
-13.33
-16.19
-19.59
-23.47
-27.50
-31.18
-33.80
-34.74
-33.54
-30.12
-24.80
-18.22
-11.11
-4.15
2.23
7.83
12.56
16.46
19.52
21.76
23.17
23.82
23.82
23.31
22.45
21.44
20.47
19.74
19.39
19.46
19.84
20.32
20.60
20.46
19.74
18.41
16.53
14.21
11.53
8.56
5.29
1.75
-2.10
-6.34
-10.98
-15.98
-21.06
-25.65
-28.98
-30.29
-28.95
-24.87
-18.46
-10.63
-2.48
5.04
11.27
16.05
19.49
21.80
23.21
23.69
23.23
21.84
19.74
17.29
14.91
12.90
11.31
10.04
8.92
7.87
6.90
6.13
5.55
5.08
4.51
3.63
2.28
0.46
-1.73
-4.15
-6.68
-9.30
-12.04
-15.07
-18.47
-22.13
-25.75
-28.74
-30.41
-30.20
-27.89
-23.67
-18.09
-11.88
-5.65
0.20
5.45
10.07
13.94
16.92
18.87
19.74
19.62
18.82
17.67
16.42
15.20
14.03
12.92
11.88
11.01
10.38
9.89
9.30
8.36
6.81
4.66
2.07
-0.65
-3.23
-5.58
-7.82
-10.25
-13.23
-17.01
-21.60
-26.62
-31.39
-35.08
-36.93
-36.43
-33.49
-28.38
-21.70
-14.21
-6.63
0.41
6.53
11.55
15.49
18.44
20.47
21.64
21.97
21.60
20.67
19.44
18.12
16.89
15.85
15.08
14.64
14.53
14.68
14.91
15.00
14.77
14.11
13.02
11.50
9.57
7.19
4.31
0.90
-3.04
-7.41
-12.17
-17.19
-22.36
-27.39
-31.87
-35.20
-36.75
-36.05
-32.92
-27.64
-20.79
-13.21
-5.69
1.21
7.13
12.02
15.93
18.96
21.16
22.65
23.52
23.89
23.89
23.63
23.18
22.59
21.86
21.00
20.04
18.99
17.79
16.38
14.59
12.37
9.68
6.66
3.52
0.44
-2.44
-5.11
-7.69
-10.39
-13.37
-16.76
-20.55
-24.55
-28.38
-31.40
-32.97
-32.55
-29.97
-25.39
-19.37
-12.61
-5.79
0.58
6.17
10.82
14.47
17.13
18.86
19.81
20.15
20.14
20.02
20.01
20.21
20.52
20.74
20.61
20.01
19.02
17.91
16.96
16.33
15.88
15.30
14.17
12.20
9.40
6.00
2.42
-1.03
-4.19
-7.14
-10.14
-13.45
-17.30
-21.72
-26.50
-31.17
-35.12
-37.74
-38.45
-36.94
-33.08
-27.09
-19.48
-11.04
-2.65
4.86
11.00
15.65
18.94
21.21
22.65
23.42
23.55
23.13
22.33
21.39
20.49
19.61
18.75
17.85
17.05
16.46
16.20
16.18
16.10
15.58
14.34
12.30
9.63
6.62
3.54
0.52
-2.46
-5.54
-8.89
-12.74
-17.20
-22.36
-28.12
-34.16
-39.99
-44.95
-48.40
-49.87
-49.16
-46.37
-41.84
-36.00
-29.20
-21.70
-13.62
-5.00
4.10
13.55
23.12
32.44
41.03
48.43
54.23
58.20
60.29
60.49
58.86
55.53
50.73
44.94
38.83
33.08
28.16
24.12
20.59
17.01
12.83
7.87
2.36
-3.11
-7.92
-11.69
-14.47
-16.78
-19.46
-23.32
-28.92
-36.22
-44.59
-52.82
-59.47
-63.23
-63.23
-59.24
-51.59
-41.06
-28.60
-15.03
-1.13
12.49
25.28
36.76
46.57
54.66
61.24
66.69
71.32
75.21
78.24
80.26
81.34
81.73
81.83
81.75
81.25
79.84
76.99
72.35
65.93
57.90
48.44
37.77
26.28
14.74
4.36
-3.51
-7.92
-8.83
-7.21
-4.78
-3.35
-4.12
-7.37
-12.33
-17.56
-21.33
-22.26
-19.62
-13.57
-5.09
4.26
12.82
19.23
22.77
23.45
21.74
18.39
14.15
9.61
5.38
2.04
0.21
0.31
2.43
6.16
10.66
14.86
17.78
18.77
17.58
14.30
9.29
2.97
-4.25
-11.98
-19.97
-28.04
-36.11
-44.05
-51.66
-58.68
-64.80
-69.78
-73.49
-75.94
-77.12
-76.94
-75.16
-71.57
-66.10
-58.97
-50.74
-42.13
-33.89
-26.53
-20.29
-15.12
-10.80
-7.04
-3.69
-0.73
1.68
3.38
4.28
4.45
4.17
3.79
3.56
3.54
3.54
3.30
2.61
1.46
-0.00
-1.64
-3.35
-5.22
-7.35
-9.83
-12.66
-15.74
-19.01
-22.48
-26.18
-30.06
-33.86
-37.01
-38.82
-38.70
-36.40
-32.17
-26.57
-20.25
-13.70
-7.18
-0.81
5.25
10.66
15.06
18.19
20.04
20.95
21.31
21.41
21.26
20.67
19.47
17.70
15.69
13.85
12.57
11.93
11.79
11.81
11.65
11.11
10.11
8.70
6.98
5.04
2.91
0.57
-2.07
-5.14
-8.70
-12.76
-17.24
-21.98
-26.70
-31.05
-34.53
-36.64
-36.94
-35.20
-31.49
-26.20
-19.93
-13.29
-6.77
-0.60
5.15
10.50
15.41
19.71
23.18
25.60
26.82
26.82
25.77
23.90
21.55
19.01
16.62
14.59
13.04
11.89
10.99
10.16
9.25
8.18
6.98
5.64
4.16
2.47
0.49
-1.80
-4.37
-7.13
-10.09
-13.37
-17.13
-21.40
-25.96
-30.25
-33.46
-34.80
-33.75
-30.15
-24.31
-16.76
-8.19
0.72
9.27
16.79
22.70
26.61
28.46
28.53
27.39
25.66
23.84
22.15
20.67
19.34
18.17
17.30
16.87
17.04
17.69
18.58
19.32
19.47
18.76
17.10
14.63
11.61
8.34
4.99
1.65
-1.72
-5.22
-8.96
-13.06
-17.59
-22.54
-27.71
-32.67
-36.76
-39.30
-39.76
-37.96
-34.08
-28.56
-21.98
-14.85
-7.64
-0.73
5.51
10.79
14.98
18.04
20.14
21.50
22.29
22.63
22.64
22.41
22.10
21.85
21.65
21.44
21.09
20.55
19.90
19.32
18.86
18.42
17.64
16.12
13.60
10.21
6.38
2.64
-0.62
-3.35
-5.82
-8.44
-11.56
-15.35
-19.76
-24.55
-29.32
-33.61
-36.88
-38.64
-38.48
-36.22
-31.88
-25.76
-18.40
-10.49
-2.72
4.28
10.13
14.71
18.09
20.49
22.12
23.15
23.69
23.87
23.86
23.85
23.98
24.29
24.67
24.96
25.03
24.84
24.51
24.13
23.71
23.16
22.23
20.64
18.16
14.79
10.65
6.05
1.38
-2.99
-6.78
-10.00
-12.85
-15.76
-19.13
-23.14
-27.62
-32.05
-35.70
-37.89
-38.15
-36.33
-32.59
-27.25
-20.79
-13.69
-6.38
0.74
7.40
13.36
18.46
22.59
25.73
27.94
29.38
30.24
30.71
30.94
31.07
31.22
31.53
32.07
32.79
33.56
34.21
34.61
34.67
34.35
33.51
31.98
29.59
26.27
22.20
17.67
13.00
8.28
3.40
-1.97
-8.05
-14.79
-21.92
-28.99
-35.73
-42.03
-47.91
-53.32
-58.05
-61.79
-64.28
-65.55
-65.85
-65.46
-64.25
-61.51
-56.15
-47.12
-34.01
-17.32
1.74
21.64
41.04
58.99
74.79
87.75
97.04
101.85
101.76
96.98
88.35
77.08
64.34
50.97
37.46
24.14
11.39
-0.28
-10.38
-18.58
-24.86
-29.47
-32.84
-35.34
-37.10
-38.12
-38.32
-37.74
-36.71
-35.70
-35.23
-35.58
-36.67
-37.94
-38.66
-38.10
-35.84
-31.86
-26.47
-20.14
-13.35
-6.46
0.33
6.82
12.86
18.31
22.98
26.72
29.50
31.32
32.26
32.34
31.61
30.04
27.70
24.73
21.43
18.15
15.18
12.63
10.37
8.18
5.80
3.02
-0.21
-3.92
-8.14
-12.87
-18.06
-23.56
-29.21
-34.81
-40.31
-45.73
-51.20
-56.90
-62.96
-69.55
-76.79
-84.76
-93.34
-102.18
-110.55
-117.56
-122.27
-123.85
-121.81
-116.04
-106.88
-94.95
-81.10
-66.16
-50.86
-35.78
-21.36
-8.00
4.00
14.51
23.62
31.63
38.93
45.82
52.34
58.36
63.77
68.63
73.28
78.20
83.64
89.40
94.81
98.97
101.12
100.96
98.69
94.89
90.10
84.71
78.83
72.50
65.92
59.45
53.58
48.65
44.59
40.96
37.03
32.19
26.18
19.22
11.94
5.04
-0.81
-5.26
-8.18
-9.61
-9.63
-8.36
-6.09
-3.26
-0.53
1.32
1.67
0.29
-2.60
-6.30
-10.01
-13.02
-15.02
-16.08
-16.52
-16.66
-16.61
-16.26
-15.42
-14.05
-12.38
-10.94
-10.28
-10.86
-12.78
-15.79
-19.43
-23.21
-26.75
-29.81
-32.36
-34.49
-36.35
-38.08
-39.82
-41.63
-43.43
-45.10
-46.35
-46.77
-45.92
-43.43
-39.16
-33.28
-26.26
-18.70
-11.25
-4.36
1.69
6.75
10.75
13.67
15.60
16.71
17.27
17.60
17.95
18.36
18.79
19.07
19.08
18.79
18.25
17.59
16.94
16.43
16.11
15.92
15.71
15.20
14.07
12.09
9.17
5.35
0.88
-3.99
-9.08
-14.32
-19.78
-25.55
-31.64
-37.95
-44.26
-50.27
-55.68
-60.06
-63.02
-64.19
-63.46
-61.14
-57.94
-54.75
-52.16
-50.08
-47.69
-43.80
-37.42
-28.08
-16.06
-1.90
13.88
30.96
49.03
67.29
84.27
97.97
106.56
109.08
105.80
98.10
87.88
76.84
66.21
56.70
48.68
42.41
38.02
35.44
34.19
33.45
32.27
29.81
25.69
19.96
13.00
5.29
-2.74
-10.87
-18.93
-26.61
-33.35
-38.27
-40.48
-39.35
-34.89
-27.79
-19.25
-10.56
-2.78
3.50
8.23
11.65
14.15
16.11
17.78
19.35
20.89
22.42
23.83
24.99
25.74
25.94
25.52
24.50
22.94
21.05
19.10
17.37
16.08
15.17
14.41
13.38
11.73
9.36
6.48
3.49
0.73
-1.70
-4.01
-6.60
-9.79
-13.67
-18.10
-22.80
-27.50
-31.99
-36.05
-39.38
-41.56
-42.10
-40.68
-37.28
-32.22
-26.08
-19.53
-13.10
-7.16
-1.84
2.90
7.06
10.69
13.70
16.03
17.56
18.33
18.41
17.95
17.15
16.11
14.92
13.62
12.26
10.92
9.74
8.79
8.08
7.48
6.77
5.75
4.29
2.44
0.35
-1.77
-3.80
-5.76
-7.81
-10.24
-13.30
-17.14
-21.72
-26.68
-31.47
-35.37
-37.69
-38.00
-36.16
-32.33
-26.97
-20.60
-13.76
-6.91
-0.52
5.00
9.36
12.40
14.26
15.22
15.72
16.06
16.38
16.62
16.61
16.29
15.72
15.11
14.61
14.25
13.89
13.30
12.29
10.75
8.74
6.36
3.69
0.81
-2.19
-5.25
-8.24
-11.03
-13.60
-16.04
-18.55
-21.35
-24.55
-28.04
-31.41
-34.01
-35.13
-34.31
-31.40
-26.67
-20.66
-14.00
-7.32
-1.07
4.41
8.93
12.40
14.83
16.39
17.22
17.60
17.67
17.49
17.02
16.17
14.86
13.16
11.31
9.62
8.44
7.94
8.00
8.23
8.12
7.18
5.21
2.29
-1.25
-4.97
-8.54
-11.83
-14.96
-18.24
-22.03
-26.55
-31.71
-37.08
-41.92
-45.42
-46.89
-45.89
-42.40
-36.79
-29.73
-22.10
-14.74
-8.32
-3.25
0.34
2.61
3.88
4.51
4.82
4.92
4.70
3.91
2.30
-0.15
-3.15
-6.11
-8.37
-9.49
-9.43
-8.51
-7.19
-5.81
-4.36
-2.54
-0.04
3.29
7.35
11.80
16.27
20.46
24.18
27.32
29.75
31.46
32.58
33.52
34.85
37.19
40.91
45.86
51.37
56.27
59.28
59.38
56.11
49.67
40.82
30.47
19.23
7.32
-5.38
-18.84
-32.39
-44.61
-53.73
-58.38
-58.27
-54.55
-49.49
-45.69
-45.03
-48.08
-53.85
-60.32
-65.35
-67.61
-67.05
-64.60
-61.42
-58.08
-54.28
-49.21
-42.21
-33.12
-22.14
-9.47
4.87
20.51
35.82
47.41
50.85
42.81
23.39
-2.91
-28.62
-46.51
-53.01
-49.55
-41.37
-34.42
-32.33
-35.30
-40.98
-46.69
-51.29
-55.59
-61.29
-69.24
-78.45
-86.29
-89.91
-87.94
-81.22
-72.36
-64.31
-58.65
-54.80
-50.53
-43.37
-32.31
-18.58
-5.04
5.31
10.85
12.05
11.02
10.33
12.04
17.06
25.21
35.59
47.10
58.71
69.82
80.17
89.75
98.54
106.32
112.74
117.61
121.13
123.75
125.92
127.57
127.97
126.04
121.08
113.17
103.32
92.81
82.53
72.46
61.91
49.98
36.19
20.62
3.85
-13.28
-29.84
-44.83
-57.09
-65.60
-69.93
-70.72
-69.84
-69.80
-72.58
-78.41
-85.10
-88.51
-84.09
-69.06
-44.12
-13.85
14.65
34.29
40.80
34.26
18.93
1.32
-12.36
-18.18
-15.09
-4.25
12.43
33.25
56.86
81.66
105.11
123.79
134.32
134.77
125.61
109.72
91.31
74.34
61.25
52.56
47.37
44.37
42.57
41.73
42.08
43.90
47.19
51.56
56.31
60.66
64.00
65.90
66.21
65.00
62.40
58.59
53.67
47.83
41.37
34.91
29.23
25.11
22.92
22.49
23.10
23.73
23.50
21.81
18.36
12.95
5.30
-4.82
-17.24
-31.01
-44.30
-54.97
-61.28
-62.76
-60.41
-56.31
-52.69
-51.06
-51.74
-54.03
-56.86
-59.29
-60.86
-61.44
-61.07
-59.76
-57.56
-54.76
-51.94
-49.97
-49.63
-51.29
-54.68
-58.92
-62.78
-65.08
-65.03
-62.42
-57.57
-51.16
-43.97
-36.66
-29.64
-23.10
-17.09
-11.64
-6.92
-3.25
-0.85
0.16
0.01
-0.70
-1.25
-1.07
0.03
1.78
3.64
5.07
5.88
6.21
6.44
6.82
7.31
7.51
6.99
5.52
3.32
0.90
-1.16
-2.56
-3.40
-4.15
-5.35
-7.37
-10.25
-13.63
-16.95
-19.60
-21.04
-20.94
-19.21
-15.92
-11.36
-5.90
0.01
5.95
11.49
16.24
19.95
22.45
23.79
24.20
24.05
23.66
23.20
22.60
21.62
19.99
17.66
14.83
11.96
9.54
7.84
6.76
5.93
4.90
3.31
1.14
-1.45
-4.20
-6.92
-9.54
-12.13
-14.86
-17.92
-21.43
-25.37
-29.46
-33.16
-35.80
-36.71
-35.50
-32.16
-27.09
-20.87
-14.17
-7.55
-1.47
3.71
7.74
10.50
12.12
12.88
13.11
13.09
12.92
12.57
11.96
11.10
10.07
8.96
7.84
6.63
5.18
3.47
1.64
-0.03
-1.25
-1.99
-2.55
-3.46
-5.19
-7.95
-11.55
-15.52
-19.45
-23.22
-27.00
-31.05
-35.34
-39.36
-42.24
-43.02
-41.14
-36.59
-29.94
-22.12
-14.15
-7.02
-1.49
1.97
3.47
3.79
4.38
7.03
13.16
23.21
36.26
50.33
62.95
72.08
76.74
77.12
74.35
69.86
64.87
60.07
55.56
50.96
45.75
39.52
32.15
23.88
15.14
6.44
-1.86
-9.66
-16.96
-23.69
-29.56
-34.14
-36.96
-37.84
-36.94
-34.75
-31.85
-28.60
-24.98
-20.72
-15.61
-9.70
-3.50
2.22
6.72
9.59
10.97
11.40
11.56
11.93
12.65
13.40
13.70
13.16
11.63
9.38
6.87
4.62
2.92
1.73
0.80
-0.19
-1.39
-2.81
-4.32
-5.86
-7.49
-9.42
-11.87
-14.96
-18.71
-22.93
-27.44
-31.89
-35.91
-39.01
-40.65
-40.42
-38.14
-33.94
-28.24
-21.62
-14.65
-7.89
-1.71
3.61
7.90
11.08
13.21
14.52
15.33
16.01
16.84
17.90
19.06
20.00
20.43
20.16
19.26
17.95
16.55
15.32
14.38
13.69
13.00
12.01
10.43
8.12
5.22
2.03
-1.08
-3.95
-6.70
-9.77
-13.58
-18.27
-23.57
-28.79
-33.09
-35.61
-35.57
-32.19
-24.84
-13.26
2.10
19.81
37.76
53.70
65.98
73.95
77.91
78.65
76.87
72.92
66.92
59.06
49.83
40.03
30.55
22.02
14.77
8.86
4.23
0.76
-1.70
-3.41
-4.75
-6.13
-7.92
-10.29
-13.22
-16.49
-19.80
-22.86
-25.43
-27.39
-28.77
-29.74
-30.66
-31.94
-33.99
-36.90
-40.41
-43.85
-46.35
-47.10
-45.68
-42.08
-36.72
-30.19
-23.07
-15.84
-8.88
-2.52
2.90
7.05
9.79
11.22
11.73
11.82
11.92
12.25
12.76
13.19
13.27
12.79
11.78
10.41
8.95
7.68
6.75
6.16
5.71
5.10
4.04
2.39
0.22
-2.29
-4.85
-7.33
-9.75
-12.25
-15.01
-18.10
-21.48
-25.00
-28.43
-31.43
-33.63
-34.59
-33.93
-31.38
-26.98
-21.01
-14.02
-6.64
0.49
6.82
11.94
15.65
17.91
18.81
18.54
17.28
15.26
12.67
9.82
7.03
4.70
3.15
2.57
2.90
3.86
5.00
5.86
6.15
5.80
5.02
4.12
3.40
2.87
2.33
1.43
-0.08
-2.22
-4.82
-7.58
-10.37
-13.15
-15.99
-18.87
-21.54
-23.55
-24.40
-23.72
-21.34
-17.23
-11.29
-3.20
7.37
20.46
35.29
50.10
62.54
70.32
72.20
68.45
60.73
51.43
42.64
35.44
29.75
24.88
20.14
15.37
10.96
7.45
5.12
3.74
2.70
1.32
-0.72
-3.29
-5.90
-8.05
-9.52
-10.48
-11.38
-12.79
-15.07
-18.36
-22.50
-27.11
-31.71
-35.84
-39.11
-41.24
-42.07
-41.41
-39.13
-35.15
-29.51
-22.49
-14.71
-6.99
-0.17
5.10
8.59
10.45
11.14
11.21
11.13
11.14
11.28
11.40
11.35
11.00
10.31
9.38
8.39
7.53
6.96
6.69
6.61
6.50
6.13
5.30
3.95
2.10
-0.14
-2.63
-5.28
-8.05
-10.95
-14.09
-17.58
-21.53
-25.94
-30.58
-34.99
-38.49
-40.41
-40.21
-37.66
-32.94
-26.49
-18.97
-11.00
-3.17
4.04
10.24
15.12
18.58
20.70
21.73
22.03
21.95
21.71
21.39
20.95
20.30
19.40
18.36
17.32
16.44
15.83
15.43
15.08
14.54
13.57
12.01
9.88
7.34
4.63
2.02
-0.30
-2.22
-3.80
-5.19
-6.66
-8.51
-11.00
-14.29
-18.39
-23.05
-27.77
-31.89
-34.61
-35.32
-33.68
-29.78
-24.06
-17.21
-9.96
-2.95
3.36
8.62
12.66
15.42
16.99
17.61
17.57
17.19
16.64
16.02
15.36
14.62
13.84
13.13
12.59
12.33
12.41
12.71
13.08
13.26
13.06
12.37
11.28
9.89
8.34
6.66
4.78
2.66
0.26
-2.41
-5.29
-8.44
-11.92
-15.78
-19.97
-24.24
-28.08
-30.94
-32.28
-31.71
-29.10
-24.56
-18.49
-11.58
-4.59
1.74
6.86
10.53
12.78
13.82
13.93
13.40
12.47
11.37
10.32
9.48
8.87
8.47
8.14
7.75
7.24
6.63
6.04
5.58
5.34
5.25
5.13
4.67
3.49
1.40
-1.64
-5.42
-9.51
-13.32
-16.23
-17.75
-17.66
-16.09
-13.42
-10.20
-6.91
-3.81
-1.03
1.48
3.84
6.38
9.50
13.73
19.39
26.29
33.64
40.13
44.48
45.89
44.36
40.59
35.70
30.68
26.18
22.50
19.64
17.50
15.92
14.67
13.48
12.07
10.27
8.04
5.48
2.74
0.01
-2.59
-5.01
-7.26
-9.41
-11.61
-14.00
-16.66
-19.62
-22.83
-26.21
-29.77
-33.62
-37.93
-42.75
-47.87
-52.65
-56.18
-57.47
-55.80
-51.02
-43.62
-34.58
-25.07
-16.09
-8.26
-1.82
3.24
7.02
9.58
11.05
11.63
11.68
11.65
11.84
12.34
12.97
13.42
13.42
12.87
11.92
10.83
9.85
9.06
8.42
7.76
6.94
5.85
4.48
2.83
0.97
-1.02
-3.08
-5.18
-7.34
-9.68
-12.34
-15.46
-19.09
-23.22
-27.65
-32.03
-35.80
-38.29
-38.87
-37.10
-32.97
-26.87
-19.53
-11.77
-4.28
2.52
8.40
13.29
17.12
19.87
21.59
22.49
22.83
22.88
22.86
22.82
22.79
22.81
22.93
23.22
23.67
24.14
24.44
24.42
24.01
23.25
22.19
20.83
19.08
16.82
13.99
10.67
7.06
3.42
0.01
-3.06
-5.84
-8.56
-11.53
-15.08
-19.40
-24.44
-29.87
-34.99
-38.94
-40.84
-40.09
-36.50
-30.40
-22.50
-13.64
-4.69
3.71
11.03
16.89
21.04
23.37
24.02
23.35
21.93
20.28
18.80
17.63
16.76
16.08
15.50
15.02
14.73
14.68
14.90
15.30
15.62
15.51
14.68
12.95
10.35
7.10
3.60
0.16
-2.93
-5.63
-8.09
-10.63
-13.64
-17.44
-22.21
-27.86
-34.00
-39.92
-44.79
-47.82
-48.45
-46.52
-42.24
-36.15
-28.91
-21.24
-13.76
-7.00
-1.36
2.92
5.60
6.57
5.83
3.67
0.78
-1.63
-2.07
0.88
8.09
19.52
34.17
50.30
65.92
79.18
88.71
93.68
93.80
89.27
80.78
69.48
56.80
44.17
32.68
22.82
14.42
6.84
-0.70
-8.77
-17.51
-26.61
-35.43
-43.17
-49.12
-52.70
-53.65
-51.99
-48.04
-42.43
-35.87
-29.07
-22.50
-16.45
-11.03
-6.31
-2.39
0.63
2.71
4.01
4.86
5.69
6.86
8.47
10.34
12.01
13.01
12.94
11.68
9.39
6.37
2.98
-0.46
-3.70
-6.53
-8.70
-9.99
-10.29
-9.75
-8.78
-8.03
-8.19
-9.79
-13.10
-18.03
-24.15
-30.82
-37.26
-42.67
-46.39
-47.98
-47.34
-44.67
-40.43
-35.18
-29.48
-23.69
-17.95
-12.30
-6.72
-1.31
3.78
8.37
12.38
15.89
19.01
21.81
24.10
25.50
25.53
23.90
20.75
16.66
12.48
9.07
7.06
6.66
7.77
9.98
12.68
15.07
16.33
15.64
12.48
6.83
-0.77
-9.36
-17.90
-25.57
-32.03
-37.29
-41.54
-44.84
-47.00
-47.61
-46.37
-43.21
-38.54
-33.02
-27.36
-22.08
-17.36
-13.14
-9.26
-5.67
-2.42
0.34
2.57
4.33
5.73
6.84
7.54
7.50
6.30
3.63
-0.47
-5.48
-10.48
-14.32
-16.10
-15.55
-13.21
-10.27
-8.12
-7.80
-9.56
-12.96
-17.08
-21.00
-24.01
-25.65
-25.54
-23.40
-19.09
-12.78
-5.00
3.52
12.23
21.02
30.19
40.26
51.54
63.87
76.51
88.39
98.34
105.56
109.73
111.10
110.32
108.23
105.56
102.69
99.59
95.84
90.94
84.51
76.41
66.82
56.13
44.82
33.48
22.76
13.36
5.92
0.88
-1.72
-2.36
-2.02
-1.98
-3.45
-7.21
-13.31
-21.13
-29.60
-37.63
-44.46
-49.79
-53.72
-56.44
-58.00
-58.29
-57.16
-54.61
-50.95
-46.57
-41.77
-36.55
-30.60
-23.60
-15.56
-7.00
1.14
7.84
12.40
14.75
15.35
14.91
14.11
13.30
12.51
11.67
10.78
9.97
9.43
9.29
9.51
9.93
10.34
10.70
11.10
11.71
12.53
13.33
13.64
12.87
10.61
6.70
1.37
-4.91
-11.55
-17.95
-23.58
-28.05
-31.05
-32.34
-31.85
-29.61
-25.79
-20.72
-14.79
-8.46
-2.20
3.53
8.34
12.03
14.60
16.32
17.58
18.71
19.83
20.75
21.03
20.23
18.05
14.57
10.25
5.76
1.73
-1.46
-3.81
-5.66
-7.49
-9.65
-12.22
-15.03
-17.78
-20.33
-22.74
-25.29
-28.32
-32.00
-36.24
-40.63
-44.63
-47.67
-49.27
-49.13
-47.18
-43.56
-38.62
-32.84
-26.68
-20.54
-14.68
-9.20
-4.14
0.47
4.57
8.01
10.62
12.24
12.76
12.26
10.99
9.35
7.79
6.64
6.06
5.93
5.99
5.91
5.44
4.44
2.92
1.05
-0.99
-3.11
-5.25
-7.55
-10.24
-13.53
-17.45
-21.70
-25.61
-28.33
-29.08
-27.40
-23.37
-17.46
-10.46
-3.11
3.99
10.46
16.02
20.41
23.43
25.01
25.29
24.65
23.51
22.18
20.73
19.05
17.01
14.62
12.01
9.39
6.90
4.56
2.28
-0.01
-2.26
-4.38
-6.30
-8.05
-9.80
-11.77
-14.20
-17.28
-21.19
-26.01
-31.55
-37.25
-42.08
-44.69
-43.75
-38.36
-28.32
-14.24
2.57
20.44
37.64
52.68
64.58
72.99
78.16
80.81
81.81
81.95
81.68
81.11
80.10
78.34
75.52
71.33
65.65
58.51
50.16
41.10
31.89
23.05
14.98
7.86
1.67
-3.70
-8.42
-12.69
-16.71
-20.72
-24.98
-29.79
-35.36
-41.76
-48.75
-55.73
-61.77
-65.85
-67.07
-65.00
-59.70
-51.81
-42.27
-32.08
-22.13
-13.08
-5.34
0.91
5.58
8.65
10.25
10.68
10.40
9.97
9.84
10.27
11.20
12.36
13.39
14.01
14.15
13.85
13.21
12.31
11.12
9.64
7.82
5.68
3.29
0.77
-1.83
-4.47
-7.22
-10.23
-13.74
-17.97
-23.01
-28.73
-34.65
-40.07
-44.06
-45.82
-44.81
-41.01
-34.86
-27.22
-19.08
-11.31
-4.45
1.36
6.24
10.44
14.18
17.57
20.61
23.24
25.29
26.60
27.03
26.59
25.43
23.91
22.43
21.30
20.63
20.35
20.25
20.11
19.72
18.87
17.33
14.92
11.58
7.50
3.12
-0.99
-4.42
-7.04
-9.11
-11.14
-13.68
-17.08
-21.36
-26.13
-30.73
-34.32
-36.14
-35.73
-32.97
-28.14
-21.86
-14.80
-7.63
-0.83
5.23
10.39
14.55
17.71
19.99
21.56
22.65
23.39
23.79
23.73
23.08
21.78
19.96
17.94
16.11
14.84
14.23
14.16
14.33
14.34
13.91
12.91
11.40
9.48
7.31
4.96
2.47
-0.16
-2.95
-5.92
-9.10
-12.57
-16.44
-20.73
-25.31
-29.74
-33.33
-35.27
-34.90
-31.90
-26.54
-19.51
-11.71
-4.01
2.98
8.93
13.75
17.52
20.31
22.19
23.28
23.73
23.67
23.24
22.58
21.77
20.84
19.81
18.71
17.61
16.71
16.24
16.31
16.84
17.49
17.82
17.41
16.07
13.87
11.09
8.04
4.95
1.91
-1.20
-4.53
-8.27
-12.50
-17.21
-22.16
-26.87
-30.61
-32.54
-32.00
-28.75
-23.11
-15.87
-8.05
-0.51
6.22
12.01
16.96
21.17
24.51
26.73
27.54
26.86
24.92
22.20
19.26
16.59
14.47
12.96
11.98
11.43
11.21
11.28
11.60
12.10
12.72
13.44
14.30
15.44
16.92
18.66
20.36
21.44
21.17
18.87
14.15
7.15
-1.51
-10.70
-19.15
-25.66
-29.47
-30.37
-28.72
-25.26
-20.86
-16.33
-12.23
-8.92
-6.53
-5.11
-4.61
-4.90
-5.75
-6.84
-7.77
-8.28
-8.25
-7.82
-7.28
-6.95
-6.95
-7.26
-7.67
-7.99
-8.19
-8.42
-8.98
-10.07
-11.78
-13.94
-16.25
-18.43
-20.33
-21.98
-23.58
-25.43
-27.77
-30.71
-34.08
-37.43
-40.05
-41.17
-40.15
-36.71
-30.98
-23.50
-15.07
-6.55
1.32
8.01
13.24
16.95
19.27
20.49
21.00
21.19
21.32
21.52
21.66
21.56
21.01
19.98
18.61
17.13
15.75
14.54
13.44
12.26
10.84
9.03
6.83
4.22
1.26
-1.95
-5.30
-8.66
-11.93
-15.12
-18.35
-21.77
-25.49
-29.44
-33.28
-36.41
-38.09
-37.70
-34.95
-30.03
-23.56
-16.40
-9.40
-3.15
2.07
6.26
9.55
12.05
13.80
14.92
15.55
15.95
16.35
16.86
17.42
17.87
18.05
17.91
17.56
17.16
16.84
16.60
16.24
15.51
14.12
11.94
9.03
5.55
1.74
-2.23
-6.25
-10.31
-14.45
-18.73
-23.10
-27.47
-31.65
-35.29
-38.03
-39.42
-39.11
-36.88
-32.80
-27.17
-20.46
-13.23
-6.00
0.71
6.50
11.07
14.32
16.35
17.49
18.15
18.66
19.20
19.68
19.89
19.61
18.76
17.48
16.12
15.09
14.64
14.80
15.28
15.55
15.06
13.41
10.56
6.79
2.59
-1.55
-5.32
-8.65
-11.77
-14.99
-18.63
-22.90
-27.85
-33.29
-38.81
-43.80
-47.59
-49.62
-49.58
-47.64
-44.34
-40.43
-36.51
-32.76
-28.90
-24.36
-18.65
-11.62
-3.66
4.47
11.94
18.25
23.47
28.24
33.58
40.47
49.43
60.20
71.80
82.74
91.49
96.93
98.61
96.68
91.70
84.33
75.13
64.61
53.30
41.79
30.76
20.80
12.27
5.13
-0.98
-6.58
-12.20
-18.14
-24.45
-30.90
-37.12
-42.70
-47.22
-50.28
-51.56
-50.83
-48.07
-43.50
-37.57
-30.87
-24.03
-17.60
-12.04
-7.58
-4.33
-2.20
-0.99
-0.40
-0.08
0.27
0.89
1.80
2.91
3.96
4.72
5.03
4.89
4.47
3.99
3.58
3.19
2.60
1.56
-0.13
-2.43
-5.15
-8.05
-10.91
-13.61
-16.11
-18.42
-20.53
-22.47
-24.27
-25.99
-27.55
-28.67
-28.89
-27.71
-24.81
-20.19
-14.21
-7.49
-0.73
5.57
10.97
15.27
18.33
20.14
20.80
20.56
19.74
18.64
17.45
16.26
15.05
13.83
12.64
11.58
10.76
10.22
9.95
9.85
9.80
9.70
9.42
8.80
7.67
5.89
3.48
0.62
-2.38
-5.22
-7.86
-10.45
-13.38
-17.00
-21.40
-26.23
-30.80
-34.26
-35.89
-35.29
-32.43
-27.54
-21.06
-13.49
-5.37
2.76
10.34
16.90
22.16
26.10
28.94
31.10
32.98
34.86
36.79
38.57
39.86
40.32
39.83
38.56
37.08
36.13
36.42
38.42
42.09
46.77
51.28
54.18
54.01
49.78
41.27
29.17
14.91
0.21
-13.40
-25.03
-34.53
-42.36
-49.11
-55.17
-60.54
-64.79
-67.36
-67.87
-66.25
-62.78
-57.89
-52.05
-45.61
-38.86
-32.08
-25.60
-19.81
-15.04
-11.48
-9.05
-7.44
-6.24
-5.09
-3.80
-2.41
-1.12
-0.18
0.23
0.16
-0.17
-0.38
-0.11
0.76
2.12
3.64
4.92
5.63
5.58
4.78
3.32
1.38
-0.90
-3.36
-5.90
-8.45
-11.06
-13.89
-17.16
-21.11
-25.86
-31.34
-37.11
-42.48
-46.53
-48.43
-47.57
-43.83
-37.58
-29.61
-20.87
-12.20
-4.19
2.83
8.74
13.51
17.15
19.74
21.45
22.55
23.34
24.06
24.77
25.41
25.83
25.89
25.53
24.86
24.04
23.26
22.67
22.29
22.04
21.68
20.96
19.66
17.72
15.20
12.30
9.21
6.03
2.75
-0.68
-4.30
-8.08
-11.98
-15.98
-20.16
-24.62
-29.36
-34.13
-38.46
-41.59
-42.78
-41.52
-37.65
-31.51
-23.75
-15.23
-6.72
1.13
7.95
13.61
18.08
21.44
23.82
25.40
26.42
27.15
27.80
28.46
29.05
29.37
29.18
28.35
27.02
25.50
24.17
23.32
22.93
22.75
22.39
21.52
20.01
17.96
15.58
13.07
10.51
7.85
5.03
1.99
-1.19
-4.39
-7.56
-10.71
-14.01
-17.67
-21.82
-26.39
-30.99
-34.93
-37.38
-37.68
-35.51
-31.05
-24.92
-17.92
-10.84
-4.18
1.82
7.07
11.56
15.21
17.90
19.53
20.19
20.10
19.64
19.17
18.95
19.04
19.33
19.61
19.70
19.57
19.27
18.95
18.71
18.51
18.21
17.54
16.34
14.52
12.13
9.29
6.14
2.78
-0.69
-4.13
-7.41
-10.43
-13.22
-16.04
-19.25
-23.12
-27.63
-32.30
-36.32
-38.77
-38.91
-36.46
-31.59
-24.88
-17.09
-8.97
-1.19
5.75
11.47
15.74
18.53
19.97
20.39
20.22
19.87
19.60
19.48
19.34
18.95
18.15
16.99
15.69
14.55
13.79
13.46
13.39
13.31
12.93
12.05
10.58
8.58
6.18
3.52
0.79
-1.87
-4.38
-6.73
-9.03
-11.54
-14.54
-18.21
-22.50
-26.93
-30.74
-32.98
-32.88
-30.09
-24.82
-17.76
-9.80
-1.75
5.81
12.62
18.57
23.63
27.69
30.63
32.37
32.91
32.38
30.93
28.77
26.08
23.04
19.86
16.72
13.84
11.43
9.67
8.65
8.36
8.60
9.00
9.15
8.64
7.28
5.12
2.42
-0.48
-3.38
-6.23
-9.16
-12.31
-15.74
-19.43
-23.26
-27.09
-30.82
-34.28
-37.22
-39.17
-39.59
-38.02
-34.27
-28.55
-21.39
-13.45
-5.41
2.16
8.83
14.27
18.34
21.10
22.86
24.09
25.29
26.77
28.55
30.36
31.77
32.45
32.31
31.64
31.06
31.31
32.97
36.20
40.52
44.87
47.89
48.25
45.16
38.51
29.04
18.00
6.76
-3.59
-12.49
-19.95
-26.38
-32.30
-38.18
-44.24
-50.44
-56.47
-61.82
-65.81
-67.73
-67.01
-63.44
-57.26
-49.11
-39.97
-30.81
-22.47
-15.47
-9.99
-5.97
-3.15
-1.22
0.21
1.46
2.79
4.35
6.13
7.95
9.49
10.47
10.73
10.37
9.70
9.10
8.88
9.10
9.55
9.94
9.97
9.40
8.18
6.33
3.97
1.30
-1.48
-4.21
-6.82
-9.44
-12.34
-15.76
-19.79
-24.18
-28.43
-31.82
-33.70
-33.63
-31.47
-27.35
-21.66
-14.90
-7.61
-0.33
6.43
12.26
16.87
20.12
22.10
23.08
23.41
23.44
23.43
23.41
23.31
22.94
22.17
21.02
19.64
18.32
17.36
17.00
17.23
17.88
18.51
18.62
17.87
16.18
13.87
11.55
9.89
9.27
9.65
10.43
10.68
9.41
5.99
0.49
-6.18
-12.23
-15.38
-13.41
-4.91
10.13
29.98
51.37
70.27
82.81
86.32
80.06
65.24
44.61
21.69
-0.19
-18.51
-31.95
-40.35
-44.43
-45.36
-44.44
-42.81
-41.37
-40.67
-40.90
-41.93
-43.36
-44.68
-45.45
-45.45
-44.83
-43.96
-43.32
-43.31
-44.02
-45.32
-46.95
-48.73
-50.63
-52.70
-54.94
-57.13
-58.84
-59.54
-58.69
-56.00
-51.42
-45.12
-37.45
-28.84
-19.81
-10.97
-3.06
3.25
7.43
9.35
9.37
8.31
7.15
6.71
7.28
8.53
9.65
9.69
8.01
4.50
-0.22
-4.96
-8.07
-7.71
-2.32
8.93
25.56
45.59
65.88
82.94
94.07
98.15
95.82
88.95
79.65
69.49
59.04
48.19
36.70
24.69
12.85
2.26
-6.10
-11.68
-14.49
-15.02
-13.91
-11.75
-8.93
-5.72
-2.36
0.76
3.20
4.59
4.82
4.19
3.25
2.61
2.64
3.29
4.14
4.67
4.45
3.35
1.54
-0.58
-2.58
-4.11
-4.96
-5.19
-4.98
-4.59
-4.32
-4.36
-4.78
-5.56
-6.60
-7.82
-9.21
-10.85
-12.86
-15.41
-18.68
-22.78
-27.68
-33.05
-38.28
-42.45
-44.68
-44.27
-41.00
-35.19
-27.58
-19.09
-10.57
-2.60
4.45
10.42
15.26
18.92
21.43
22.98
23.79
24.23
24.51
24.71
24.71
24.32
23.37
21.90
20.18
18.56
17.38
16.66
16.19
15.58
14.48
12.70
10.31
7.52
4.54
1.49
-1.63
-4.88
-8.24
-11.65
-15.03
-18.38
-21.83
-25.56
-29.62
-33.81
-37.55
-40.02
-40.46
-38.39
-33.76
-26.98
-18.75
-9.82
-0.93
7.26
14.25
19.65
23.34
25.40
26.19
26.12
25.59
24.84
23.95
22.86
21.51
19.91
18.15
16.39
14.80
13.50
12.54
11.87
11.31
10.62
9.56
7.96
5.80
3.17
0.23
-2.89
-6.04
-9.17
-12.31
-15.51
-18.85
-22.40
-26.20
-30.15
-33.98
-37.21
-39.20
-39.22
-36.74
-31.59
-24.11
-15.12
-5.68
3.17
10.75
16.83
21.58
25.39
28.62
31.49
33.98
35.96
37.19
37.52
36.88
35.40
33.45
31.53
30.28
30.32
32.06
35.61
40.50
45.66
49.54
50.45
47.14
39.41
28.21
15.39
2.96
-7.74
-16.43
-23.82
-30.96
-38.53
-46.37
-53.53
-58.88
-61.54
-61.27
-58.38
-53.40
-46.86
-39.15
-30.66
-21.88
-13.51
-6.24
-0.63
3.17
5.38
6.51
7.12
7.61
8.17
8.76
9.20
9.31
8.99
8.24
7.19
6.12
5.22
4.63
4.30
3.98
3.35
2.14
0.25
-2.23
-5.07
-7.99
-10.79
-13.43
-15.98
-18.67
-21.80
-25.57
-30.06
-35.07
-40.14
-44.56
-47.58
-48.52
-47.00
-43.04
-36.96
-29.33
-20.78
-11.92
-3.34
4.48
11.09
16.13
19.51
21.41
22.29
22.78
23.42
24.50
26.00
27.72
29.36
30.76
31.92
32.92
33.88
34.83
35.60
35.94
35.61
34.40
32.32
29.54
26.29
22.76
19.05
15.11
10.90
6.36
1.52
-3.62
-9.06
-14.80
-20.73
-26.43
-31.26
-34.35
-34.98
-32.81
-27.97
-21.08
-13.02
-4.66
3.28
10.30
16.08
20.46
23.39
25.09
25.95
26.59
27.49
28.93
30.71
32.34
33.20
32.92
31.58
29.67
27.92
26.98
27.12
28.12
29.39
30.15
29.74
27.88
24.68
20.70
16.82
13.99
13.05
14.44
17.85
22.05
25.06
24.64
19.11
8.27
-6.39
-21.95
-35.05
-43.23
-45.58
-42.98
-37.38
-30.87
-24.82
-19.74
-15.47
-11.73
-8.53
-6.12
-4.75
-4.42
-4.71
-4.94
-4.55
-3.31
-1.50
0.29
1.45
1.64
0.96
-0.09
-0.88
-0.92
-0.10
1.23
2.42
2.81
2.02
0.08
-2.57
-5.39
-7.93
-10.05
-11.93
-13.98
-16.63
-20.16
-24.66
-29.91
-35.41
-40.47
-44.27
-45.96
-44.96
-41.04
-34.50
-26.10
-16.84
-7.72
0.47
7.30
12.64
16.50
18.99
20.21
20.28
19.38
17.75
15.68
13.46
11.37
9.68
8.64
8.39
8.92
9.96
11.00
11.42
10.73
8.71
5.52
1.57
-2.64
-6.68
-10.37
-13.68
-16.73
-19.65
-22.62
-25.80
-29.27
-33.03
-36.87
-40.36
-42.87
-43.72
-42.44
-38.90
-33.42
-26.66
-19.44
-12.51
-6.40
-1.33
2.71
5.89
8.41
10.35
11.70
12.38
12.32
11.63
10.58
9.47
8.62
8.15
7.97
7.85
7.52
6.82
5.68
4.09
2.10
-0.26
-2.91
-5.77
-8.70
-11.58
-14.38
-17.15
-20.08
-23.32
-27.00
-30.94
-34.72
-37.64
-39.03
-38.33
-35.34
-30.28
-23.59
-15.95
-8.01
-0.38
6.46
12.12
16.41
19.26
20.75
21.00
20.16
18.47
16.19
13.70
11.48
9.87
9.04
8.86
8.99
9.06
8.85
8.36
7.74
7.13
6.58
5.94
5.02
3.70
1.96
-0.11
-2.44
-5.00
-7.87
-11.12
-14.69
-18.29
-21.30
-22.94
-22.44
-19.27
-13.41
-5.36
3.88
13.19
21.52
28.18
32.86
35.65
36.86
36.86
36.03
34.66
32.97
31.10
29.17
27.21
25.18
23.05
20.83
18.64
16.64
15.01
13.78
12.76
11.61
10.06
8.01
5.65
3.38
1.60
0.48
-0.18
-0.75
-1.71
-3.43
-6.06
-9.54
-13.60
-17.80
-21.51
-23.97
-24.41
-22.33
-17.68
-10.94
-2.96
5.36
13.39
20.88
27.86
34.40
40.36
45.30
48.55
49.51
47.88
43.81
37.84
30.71
23.17
15.78
8.86
2.56
-3.05
-7.86
-11.76
-14.67
-16.71
-18.22
-19.78
-21.88
-24.82
-28.49
-32.40
-35.94
-38.68
-40.55
-41.91
-43.48
-45.94
-49.70
-54.68
-60.28
-65.54
-69.36
-70.76
-69.17
-64.47
-57.02
-47.49
-36.66
-25.33
-14.10
-3.48
6.21
14.74
22.00
27.95
32.70
36.44
39.45
41.96
44.18
46.13
47.80
49.07
49.87
50.17
50.01
49.48
48.69
47.64
46.27
44.44
41.99
38.80
34.84
30.19
25.07
19.75
14.50
9.40
4.42
-0.67
-6.08
-11.86
-17.83
-23.55
-28.39
-31.68
-32.91
-31.80
-28.36
-22.78
-15.36
-6.51
3.28
13.37
22.99
31.26
37.32
40.53
40.61
37.71
32.48
25.87
18.97
12.75
7.83
4.37
2.13
0.67
-0.39
-1.26
-1.94
-2.37
-2.68
-3.13
-4.09
-5.83
-8.41
-11.63
-15.15
-18.65
-21.95
-25.09
-28.22
-31.53
-35.19
-39.21
-43.48
-47.75
-51.55
-54.30
-55.34
-54.13
-50.34
-44.03
-35.65
-25.97
-15.91
-6.33
2.13
9.08
14.37
17.98
20.06
20.86
20.76
20.17
19.50
18.94
18.50
18.03
17.36
16.46
15.44
14.53
13.92
13.60
13.37
12.94
12.08
10.65
8.67
6.22
3.36
0.14
-3.35
-7.04
-10.83
-14.70
-18.75
-23.13
-27.81
-32.46
-36.39
-38.70
-38.59
-35.67
-30.06
-22.38
-13.50
-4.34
4.35
11.97
18.11
22.54
25.21
26.37
26.48
26.10
25.71
25.53
25.48
25.27
24.64
23.51
22.10
20.76
19.80
19.28
19.06
18.77
18.08
16.79
14.93
12.64
10.11
7.50
4.91
2.36
-0.24
-3.07
-6.30
-10.06
-14.20
-18.30
-21.67
-23.54
-23.33
-20.79
-16.08
-9.60
-1.89
6.58
15.49
24.63
33.81
42.78
51.16
58.46
64.10
67.53
68.36
66.48
62.14
55.80
48.09
39.64
31.01
22.69
15.04
8.27
2.50
-2.37
-6.54
-10.30
-13.92
-17.54
-21.18
-24.80
-28.26
-31.41
-34.17
-36.56
-38.71
-40.93
-43.56
-46.80
-50.56
-54.34
-57.37
-58.75
-57.79
-54.19
-48.10
-39.96
-30.36
-19.94
-9.27
1.05
10.46
18.49
24.83
29.43
32.51
34.43
35.55
36.11
36.19
35.77
34.77
33.18
31.04
28.54
25.91
23.49
21.58
20.35
19.72
19.35
18.75
17.49
15.29
12.18
8.39
4.22
-0.13
-4.61
-9.34
-14.44
-20.04
-26.10
-32.41
-38.51
-43.76
-47.35
-48.53
-46.83
-42.25
-35.24
-26.64
-17.40
-8.36
-0.10
7.05
12.93
17.52
20.88
23.23
24.92
26.44
28.24
30.55
33.31
36.11
38.40
39.65
39.57
38.16
35.67
32.46
28.84
24.98
21.00
16.94
12.86
8.87
5.05
1.45
-2.00
-5.47
-9.18
-13.35
-18.05
-23.23
-28.69
-34.20
-39.54
-44.51
-48.87
-52.20
-53.99
-53.64
-50.72
-45.13
-37.25
-27.88
-18.02
-8.65
-0.53
5.93
10.64
13.76
15.56
16.40
16.63
16.55
16.42
16.40
16.48
16.54
16.34
15.71
14.58
13.10
11.59
10.37
9.66
9.42
9.38
9.13
8.33
6.82
4.71
2.24
-0.33
-2.82
-5.21
-7.55
-10.02
-12.75
-15.89
-19.46
-23.36
-27.24
-30.52
-32.49
-32.47
-30.06
-25.25
-18.44
-10.34
-1.81
6.31
13.37
18.98
23.03
25.71
27.36
28.39
29.06
29.47
29.57
29.30
28.67
27.83
26.97
26.22
25.62
25.08
24.50
23.72
22.65
21.14
19.07
16.33
12.97
9.21
5.43
2.03
-0.73
-2.84
-4.59
-6.40
-8.72
-11.86
-15.82
-20.28
-24.67
-28.27
-30.42
-30.61
-28.62
-24.54
-18.74
-11.84
-4.65
1.99
7.39
11.10
13.06
13.50
12.87
11.64
10.18
8.67
7.15
5.61
3.99
2.32
0.68
-0.80
-1.96
-2.69
-3.05
-3.21
-3.50
-4.22
-5.58
-7.59
-10.08
-12.79
-15.47
-17.92
-20.03
-21.77
-23.29
-24.80
-26.66
-29.21
-32.54
-36.37
-40.05
-42.64
-43.28
-41.39
-36.95
-30.41
-22.58
-14.34
-6.53
0.23
5.53
9.26
11.51
12.61
12.98
12.99
12.80
12.35
11.45
9.89
7.63
4.94
2.25
0.02
-1.43
-2.12
-2.30
-2.35
-2.57
-3.08
-3.79
-4.52
-5.05
-5.23
-4.91
-3.98
-2.48
-0.73
0.59
0.67
-1.11
-4.69
-9.09
-12.61
-13.37
-10.13
-2.80
7.46
18.76
29.20
37.49
43.14
46.22
47.04
45.90
43.16
39.37
35.27
31.52
28.18
24.55
19.30
11.20
-0.04
-13.33
-26.46
-36.93
-42.98
-44.27
-41.91
-38.00
-34.72
-33.63
-35.17
-38.72
-42.89
-46.16
-47.35
-45.99
-42.38
-37.41
-32.21
-27.96
-25.57
-25.57
-27.97
-32.13
-36.83
-40.46
-41.60
-39.51
-34.44
-27.47
-19.86
-12.51
-5.61
1.02
7.46
13.27
17.56
19.59
19.31
17.68
16.09
15.54
15.90
15.93
14.12
9.79
3.74
-2.02
-5.29
-4.95
-1.51
3.17
6.96
8.38
7.16
3.84
-0.77
-6.07
-11.69
-17.15
-21.66
-24.30
-24.56
-22.90
-20.63
-19.40
-20.26
-23.09
-26.72
-29.53
-30.46
-29.42
-27.26
-25.12
-23.78
-23.37
-23.39
-23.03
-21.56
-18.44
-13.37
-6.38
2.23
11.79
21.35
29.92
36.73
41.52
44.54
46.42
47.82
49.16
50.41
51.15
50.81
48.85
45.18
40.17
34.67
29.66
25.91
23.71
22.75
22.33
21.57
19.74
16.34
11.18
4.40
-3.47
-11.59
-18.88
-24.37
-27.35
-27.59
-25.25
-20.85
-14.99
-8.28
-1.33
5.36
11.35
16.41
20.42
23.38
25.17
25.57
24.35
21.47
17.36
12.82
8.84
6.18
5.13
5.44
6.48
7.53
8.00
7.62
6.36
4.38
1.93
-0.71
-3.31
-5.74
-8.05
-10.48
-13.35
-17.00
-21.49
-26.49
-31.25
-34.68
-35.78
-33.91
-29.12
-22.19
-14.30
-6.69
-0.20
4.88
8.67
11.49
13.56
14.93
15.54
15.42
14.84
14.13
13.61
13.37
13.23
12.83
11.91
10.45
8.67
6.93
5.52
4.48
3.65
2.74
1.51
-0.08
-1.96
-3.96
-6.00
-8.13
-10.54
-13.42
-16.82
-20.55
-24.13
-26.96
-28.46
-28.26
-26.34
-22.93
-18.43
-13.23
-7.71
-2.11
3.30
8.26
12.47
15.67
17.69
18.52
18.34
17.45
16.25
15.09
14.16
13.53
13.05
12.55
11.91
11.11
10.21
9.28
8.34
7.29
6.03
4.48
2.65
0.58
-1.65
-4.11
-6.92
-10.23
-14.13
-18.42
-22.69
-26.24
-28.39
-28.62
-26.80
-23.20
-18.39
-13.07
-7.82
-2.96
1.43
5.46
9.29
12.98
16.50
19.70
22.44
24.59
26.15
27.17
27.79
28.12
28.24
28.17
27.88
27.30
26.40
25.18
23.63
21.78
19.65
17.23
14.47
11.32
7.69
3.51
-1.20
-6.28
-11.35
-15.92
-19.48
-21.63
-22.16
-21.07
-18.47
-14.65
-9.96
-4.80
0.35
5.09
9.12
12.40
14.97
16.96
18.41
19.29
19.54
19.23
18.48
17.55
16.57
15.61
14.59
13.39
11.93
10.22
8.34
6.39
4.42
2.48
0.53
-1.48
-3.62
-6.01
-8.77
-11.96
-15.49
-19.06
-22.22
-24.43
-25.20
-24.24
-21.52
-17.32
-12.10
-6.38
-0.57
4.98
10.07
14.53
18.27
21.20
23.31
24.68
25.39
25.56
25.28
24.65
23.78
22.83
21.96
21.32
20.98
20.87
20.83
20.66
20.19
19.33
18.05
16.33
14.20
11.64
8.67
5.29
1.55
-2.50
-6.75
-11.13
-15.45
-19.44
-22.66
-24.64
-25.00
-23.63
-20.74
-16.84
-12.50
-8.20
-4.19
-0.45
3.01
6.18
8.93
10.98
12.06
12.02
10.89
8.97
6.69
4.57
3.00
2.20
2.04
2.19
2.22
1.80
0.83
-0.57
-2.14
-3.66
-5.08
-6.46
-7.96
-9.67
-11.63
-13.83
-16.27
-18.94
-21.75
-24.39
-26.36
-26.92
-25.44
-21.68
-15.88
-8.84
-1.52
5.18
10.77
15.13
18.45
20.94
22.69
23.64
23.71
22.89
21.32
19.23
16.88
14.44
12.07
9.93
8.23
7.22
6.95
7.28
7.84
8.17
7.88
6.79
4.95
2.55
-0.22
-3.26
-6.59
-10.24
-14.17
-18.21
-22.06
-25.32
-27.51
-28.25
-27.30
-24.62
-20.39
-14.95
-8.74
-2.20
4.19
9.95
14.59
17.70
19.07
18.87
17.60
16.04
14.89
14.61
15.23
16.38
17.53
18.24
18.31
17.83
17.06
16.24
15.46
14.64
13.59
12.09
10.10
7.73
5.17
2.66
0.34
-1.80
-3.97
-6.44
-9.57
-13.47
-17.98
-22.60
-26.61
-29.28
-30.15
-29.14
-26.48
-22.64
-18.01
-12.87
-7.39
-1.66
4.10
9.64
14.63
18.72
21.64
23.22
23.47
22.57
20.93
19.09
17.52
16.54
16.16
16.13
16.08
15.69
14.79
13.46
11.81
9.96
7.90
5.56
2.87
-0.20
-3.56
-7.08
-10.59
-13.98
-17.11
-19.79
-21.82
-22.95
-22.94
-21.65
-19.02
-15.15
-10.33
-4.86
0.91
6.69
12.28
17.60
22.51
26.85
30.37
32.76
33.90
33.85
33.00
31.85
30.88
30.28
29.86
29.10
27.37
24.21
19.65
14.27
9.06
5.12
3.30
3.86
6.42
10.05
13.54
15.63
15.34
12.23
6.49
-1.00
-8.79
-15.26
-19.10
-19.83
-18.12
-15.56
-14.16
-15.63
-20.77
-29.25
-39.83
-50.93
-61.21
-69.82
-76.29
-80.25
-80.98
-77.42
-68.40
-53.33
-32.79
-8.72
15.81
37.47
53.74
63.70
68.15
69.01
68.30
67.22
65.95
63.94
60.66
56.22
51.57
47.99
46.45
47.15
49.38
51.95
53.76
54.31
53.99
53.93
55.53
59.86
67.07
76.25
85.67
93.37
97.89
98.65
95.87
90.28
82.67
73.76
64.21
54.88
46.91
41.47
39.42
40.79
44.48
48.47
50.36
48.35
41.90
32.01
20.73
10.15
1.38
-5.98
-13.46
-22.86
-35.19
-50.13
-66.29
-81.92
-95.69
-107.10
-116.35
-123.85
-129.87
-134.42
-137.49
-139.20
-139.85
-139.69
-138.66
-136.19
-131.42
-123.60
-112.52
-98.74
-83.54
-68.53
-55.18
-44.39
-36.32
-30.48
-25.97
-21.83
-17.24
-11.68
-5.06
2.34
9.87
16.72
22.04
25.24
26.13
24.99
22.53
19.60
16.83
14.43
12.22
9.85
7.14
4.18
1.33
-1.14
-3.18
-5.04
-7.21
-10.15
-14.12
-19.09
-24.81
-30.87
-36.78
-42.01
-46.01
-48.33
-48.81
-47.68
-45.48
-42.85
-40.27
-37.86
-35.43
-32.62
-29.06
-24.59
-19.31
-13.53
-7.64
-2.06
2.85
6.77
9.48
10.90
11.19
10.69
9.93
9.37
9.33
9.78
10.38
10.62
10.00
8.25
5.41
1.89
-1.76
-4.94
-7.26
-8.59
-9.13
-9.23
-9.43
-10.27
-12.18
-15.42
-19.90
-25.15
-30.35
-34.53
-36.84
-36.74
-34.20
-29.55
-23.33
-16.06
-8.18
-0.11
7.67
14.57
20.04
23.61
25.25
25.20
24.03
22.35
20.66
19.21
18.06
17.19
16.53
16.08
15.80
15.54
15.10
14.26
12.96
11.35
9.73
8.41
7.48
6.80
5.99
4.66
2.57
-0.32
-3.88
-7.84
-11.85
-15.43
-18.06
-19.22
-18.52
-15.92
-11.75
-6.62
-1.23
3.98
8.92
13.81
18.96
24.48
30.12
35.20
38.90
40.62
40.20
38.05
34.96
31.65
28.42
24.93
20.35
13.80
4.85
-6.14
-18.06
-29.60
-39.93
-49.02
-57.66
-66.92
-77.57
-89.66
-102.70
-115.95
-128.77
-140.44
-149.77
-154.64
-152.18
-139.76
-116.34
-83.31
-44.10
-2.84
37.11
73.89
106.73
134.79
156.36
169.03
171.01
162.50
146.31
126.95
108.81
94.38
83.60
74.59
65.19
54.36
42.62
31.59
22.83
17.01
13.43
10.33
5.81
-1.26
-10.87
-21.92
-32.82
-42.07
-48.68
-52.22
-52.78
-50.75
-46.76
-41.62
-36.28
-31.52
-27.68
-24.33
-20.31
-14.09
-4.24
10.17
29.40
53.18
80.82
111.09
141.88
169.98
191.26
201.53
197.96
180.29
151.36
116.40
81.46
51.60
29.51
15.42
7.78
4.44
3.50
3.60
3.81
3.22
0.92
-3.89
-11.65
-22.15
-34.61
-47.88
-60.78
-72.40
-82.19
-90.07
-96.33
-101.54
-106.30
-110.98
-115.38
-118.76
-120.04
-118.27
-113.15
-105.24
-95.73
-86.01
-77.16
-69.52
-62.87
-56.77
-50.90
-45.32
-40.33
-36.29
-33.26
-30.92
-28.69
-25.97
-22.38
-17.85
-12.60
-7.00
-1.46
3.73
8.36
12.38
15.76
18.50
20.62
22.10
22.89
22.93
22.22
20.81
18.85
16.51
13.91
11.16
8.35
5.70
3.56
2.38
2.50
4.04
6.82
10.34
13.99
17.13
19.31
20.32
20.21
19.24
17.80
16.25
14.74
13.27
11.62
9.59
7.12
4.31
1.39
-1.39
-3.89
-6.10
-7.98
-9.48
-10.46
-10.81
-10.51
-9.77
-8.95
-8.42
-8.44
-9.01
-9.96
-11.03
-12.04
-13.02
-13.97
-14.83
-15.34
-15.04
-13.46
-10.35
-5.86
-0.45
5.15
10.32
14.57
17.70
19.72
20.73
20.82
20.17
18.92
17.28
15.45
13.56
11.74
10.05
8.52
7.21
6.11
5.21
4.42
3.62
2.68
1.56
0.23
-1.30
-3.02
-4.92
-6.96
-9.12
-11.30
-13.49
-15.65
-17.77
-19.77
-21.49
-22.62
-22.87
-22.03
-20.12
-17.36
-14.09
-10.67
-7.37
-4.33
-1.59
0.83
2.89
4.59
5.94
7.01
7.87
8.58
9.12
9.39
9.33
8.88
8.04
6.84
5.32
3.55
1.60
-0.36
-2.20
-3.73
-4.78
-5.26
-5.12
-4.48
-3.49
-2.39
-1.44
-0.89
-0.93
-1.66
-2.99
-4.61
-5.98
-6.44
-5.40
-2.53
2.11
8.06
14.58
20.87
26.22
30.09
32.23
32.74
31.89
30.11
27.75
24.95
21.66
17.73
13.16
8.23
3.46
-0.62
-3.65
-5.61
-6.79
-7.61
-8.41
-9.33
-10.38
-11.49
-12.64
-13.82
-15.13
-16.61
-18.27
-20.06
-21.96
-23.93
-26.07
-28.46
-31.09
-33.79
-36.13
-37.49
-37.32
-35.31
-31.54
-26.48
-20.79
-15.08
-9.76
-4.99
-0.80
2.78
5.66
7.68
8.78
9.02
8.64
7.97
7.33
6.94
6.84
7.01
7.41
7.95
8.56
9.17
9.64
9.86
9.71
9.09
8.01
6.50
4.62
2.44
-0.05
-2.93
-6.33
-10.33
-14.87
-19.63
-24.05
-27.42
-29.15
-28.92
-26.83
-23.29
-18.83
-13.97
-9.09
-4.36
0.06
4.07
7.46
10.03
11.67
12.39
12.36
11.83
11.10
10.35
9.63
8.91
8.04
6.92
5.48
3.78
1.95
0.12
-1.60
-3.21
-4.77
-6.39
-8.11
-9.97
-12.00
-14.27
-16.92
-20.02
-23.45
-26.78
-29.40
-30.62
-29.97
-27.41
-23.27
-18.13
-12.60
-7.05
-1.67
3.56
8.57
13.19
17.11
20.05
21.99
23.18
24.16
25.46
27.38
29.89
32.64
35.18
37.18
38.53
39.31
39.64
39.57
39.02
37.86
36.00
33.44
30.29
26.65
22.59
18.06
12.96
7.23
0.92
-5.67
-12.05
-17.55
-21.54
-23.51
-23.21
-20.79
-16.63
-11.34
-5.57
0.10
5.24
9.56
12.95
15.35
16.82
17.50
17.54
17.10
16.32
15.30
14.09
12.76
11.47
10.41
9.78
9.67
10.00
10.54
10.98
11.01
10.44
9.20
7.33
4.91
2.09
-1.04
-4.41
-8.02
-11.92
-16.14
-20.68
-25.36
-29.86
-33.67
-36.25
-37.08
-35.90
-32.68
-27.72
-21.54
-14.80
-8.15
-2.13
2.93
6.96
10.10
12.55
14.48
15.90
16.73
16.79
16.02
14.50
12.56
10.58
9.06
8.41
8.94
10.78
13.76
17.40
20.98
23.76
25.19
25.16
23.91
21.93
19.68
17.44
15.22
12.86
10.14
6.86
2.95
-1.49
-6.26
-10.93
-15.00
-17.90
-19.16
-18.54
-16.04
-11.98
-6.83
-1.23
4.22
9.00
12.83
15.61
17.41
18.40
18.73
18.54
17.90
16.89
15.55
13.95
12.19
10.38
8.70
7.31
6.32
5.72
5.42
5.20
4.83
4.13
3.02
1.60
-0.00
-1.58
-3.00
-4.29
-5.62
-7.21
-9.32
-12.09
-15.48
-19.30
-23.13
-26.49
-28.81
-29.60
-28.51
-25.51
-20.86
-15.10
-8.87
-2.78
2.74
7.45
11.21
14.01
15.83
16.76
16.90
16.47
15.70
14.79
13.89
13.17
12.77
12.85
13.60
15.06
17.14
19.58
21.98
23.91
25.05
25.25
24.54
23.06
21.03
18.64
16.04
13.25
10.19
6.70
2.60
-2.15
-7.41
-12.81
-17.84
-21.94
-24.69
-25.80
-25.20
-23.03
-19.62
-15.46
-11.17
-7.28
-4.15
-1.86
-0.25
0.99
2.10
3.17
4.13
4.82
5.08
4.83
4.06
2.92
1.55
0.19
-0.97
-1.80
-2.28
-2.49
-2.62
-2.90
-3.50
-4.55
-6.06
-7.93
-10.02
-12.16
-14.22
-16.20
-18.22
-20.48
-23.22
-26.52
-30.25
-34.01
-37.19
-39.14
-39.29
-37.29
-33.16
-27.19
-19.91
-11.96
-3.98
3.54
10.31
16.31
21.64
26.52
31.17
35.59
39.61
42.87
45.04
45.95
45.74
44.85
43.85
43.24
43.32
44.04
45.06
45.91
46.16
45.49
43.84
41.29
38.10
34.51
30.76
27.02
23.39
19.87
16.42
12.94
9.25
5.19
0.67
-4.20
-9.06
-13.42
-16.68
-18.41
-18.46
-16.97
-14.26
-10.72
-6.75
-2.69
1.17
4.58
7.34
9.40
10.84
11.88
12.79
13.82
15.06
16.48
17.92
19.23
20.31
21.16
21.88
22.62
23.48
24.46
25.44
26.22
26.71
26.92
26.95
26.83
26.47
25.54
23.61
20.24
15.18
8.37
-0.02
-9.67
-20.06
-30.34
-39.35
-45.75
-48.40
-46.83
-41.39
-33.32
-24.21
-15.59
-8.43
-3.06
0.66
3.06
4.50
5.27
5.61
5.81
6.05
6.42
6.80
6.99
6.81
6.22
5.40
4.65
4.29
4.55
5.47
6.85
8.31
9.37
9.55
8.58
6.46
3.51
0.22
-2.97
-5.84
-8.44
-11.08
-14.21
-18.27
-23.48
-29.71
-36.41
-42.66
-47.44
-50.01
-50.14
-48.23
-45.06
-41.38
-37.59
-33.65
-29.30
-24.40
-19.18
-14.22
-10.23
-7.68
-6.65
-6.93
-8.07
-9.67
-11.35
-12.76
-13.59
-13.58
-12.65
-10.98
-8.91
-6.84
-5.05
-3.60
-2.42
-1.41
-0.60
-0.16
-0.27
-1.01
-2.27
-3.82
-5.48
-7.28
-9.54
-12.69
-17.08
-22.68
-29.02
-35.31
-40.62
-44.24
-45.78
-45.22
-42.81
-38.92
-33.89
-28.12
-22.00
-15.97
-10.39
-5.57
-1.66
1.37
3.63
5.30
6.56
7.51
8.26
8.84
9.32
9.79
10.31
10.91
11.51
11.93
11.95
11.40
10.30
8.76
6.99
5.16
3.32
1.43
-0.61
-2.85
-5.29
-7.93
-10.77
-13.88
-17.26
-20.79
-24.09
-26.61
-27.77
-27.12
-24.55
-20.26
-14.79
-8.82
-3.02
2.09
6.24
9.36
11.60
13.13
14.18
14.87
15.20
15.15
14.69
13.87
12.88
11.91
11.19
10.80
10.70
10.71
10.60
10.16
9.26
7.92
6.25
4.41
2.49
0.48
-1.72
-4.18
-6.91
-9.83
-12.76
-15.59
-18.32
-21.04
-23.84
-26.59
-28.89
-30.12
-29.69
-27.27
-22.88
-16.93
-9.96
-2.47
5.18
12.74
19.84
26.00
30.66
33.45
34.40
33.98
32.83
31.47
30.04
28.26
25.76
22.36
18.30
14.17
10.72
8.43
7.37
7.18
7.23
6.93
5.90
4.08
1.63
-1.10
-3.81
-6.31
-8.59
-10.81
-13.23
-16.07
-19.48
-23.36
-27.40
-31.14
-34.01
-35.54
-35.36
-33.37
-29.63
-24.41
-18.16
-11.44
-4.91
0.86
5.50
8.88
11.11
12.49
13.33
13.87
14.24
14.52
14.72
14.87
15.00
15.19
15.48
15.89
16.42
16.95
17.24
17.01
15.94
13.89
10.93
7.33
3.46
-0.36
-3.96
-7.42
-10.90
-14.67
-18.93
-23.71
-28.81
-33.75
-37.85
-40.32
-40.53
-38.15
-33.33
-26.63
-18.93
-11.13
-3.98
2.04
6.77
10.21
12.56
14.00
14.81
15.24
15.46
15.61
15.73
15.85
15.98
16.17
16.42
16.71
16.88
16.76
16.19
15.09
13.54
11.65
9.48
7.03
4.21
1.06
-2.24
-5.29
-7.80
-9.72
-11.42
-13.56
-16.80
-21.29
-26.56
-31.52
-34.87
-35.55
-33.11
-27.73
-20.17
-11.44
-2.55
5.64
12.51
17.78
21.37
23.46
24.34
24.34
23.80
23.01
22.16
21.31
20.48
19.52
18.36
16.93
15.39
13.98
12.93
12.26
11.77
11.04
9.68
7.56
4.85
1.87
-1.07
-3.82
-6.49
-9.23
-12.26
-15.70
-19.62
-24.08
-29.09
-34.43
-39.55
-43.63
-45.71
-45.08
-41.52
-35.39
-27.56
-19.06
-10.82
-3.48
2.68
7.69
11.76
15.14
18.05
20.59
22.78
24.58
25.93
26.78
27.06
26.73
25.75
24.18
22.15
19.93
17.74
15.73
13.91
12.12
10.08
7.60
4.57
1.06
-2.73
-6.52
-10.16
-13.65
-17.17
-21.04
-25.47
-30.47
-35.65
-40.30
-43.55
-44.55
-42.75
-37.98
-30.54
-21.12
-10.67
-0.20
9.36
17.27
23.06
26.54
27.82
27.22
25.32
22.74
20.09
17.80
16.10
14.97
14.26
13.79
13.43
13.12
12.79
12.37
11.70
10.63
9.08
7.11
4.90
2.68
0.62
-1.26
-3.02
-4.80
-6.77
-9.05
-11.74
-14.96
-18.72
-22.82
-26.80
-29.90
-31.30
-30.35
-26.83
-21.00
-13.51
-5.21
3.08
10.70
17.18
22.22
25.69
27.61
28.16
27.64
26.38
24.69
22.73
20.59
18.30
15.94
13.70
11.81
10.50
9.91
9.97
10.46
11.00
11.29
11.09
10.32
9.08
7.54
5.90
4.23
2.48
0.42
-2.26
-5.83
-10.43
-15.80
-21.36
-26.24
-29.49
-30.35
-28.43
-23.85
-17.14
-9.08
-0.53
7.77
15.22
21.49
26.38
29.89
32.11
33.16
33.22
32.45
31.02
29.17
27.15
25.19
23.40
21.71
19.98
18.07
15.95
13.74
11.57
9.54
7.59
5.58
3.33
0.79
-1.95
-4.86
-7.99
-11.66
-16.26
-22.05
-28.88
-35.96
-42.10
-45.93
-46.42
-43.19
-36.60
-27.63
-17.50
-7.35
2.03
10.22
17.04
22.45
26.43
28.98
30.11
29.97
28.78
26.84
24.47
21.97
19.53
17.29
15.33
13.66
12.27
11.11
10.01
8.78
7.19
5.13
2.61
-0.28
-3.34
-6.48
-9.76
-13.41
-17.65
-22.62
-28.09
-33.47
-37.81
-40.10
-39.61
-36.08
-29.86
-21.72
-12.64
-3.51
5.03
12.57
18.92
23.94
27.59
29.93
31.19
31.74
32.04
32.39
32.90
33.41
33.63
33.24
32.11
30.29
28.00
25.49
22.87
20.12
17.10
13.71
9.88
5.70
1.26
-3.40
-8.38
-13.87
-19.98
-26.56
-33.09
-38.66
-42.25
-43.00
-40.55
-35.19
-27.73
-19.21
-10.64
-2.77
3.99
9.50
13.75
16.82
18.78
19.67
19.58
18.63
17.08
15.30
13.72
12.68
12.28
12.38
12.59
12.53
11.88
10.63
8.86
6.76
4.43
1.90
-0.80
-3.67
-6.68
-9.90
-13.51
-17.77
-22.79
-28.38
-33.86
-38.08
-39.83
-38.10
-32.51
-23.40
-11.78
1.02
13.62
24.92
34.20
41.12
45.68
48.10
48.80
48.22
46.84
45.03
43.01
40.88
38.67
36.40
34.11
31.86
29.68
27.48
25.13
22.46
19.40
15.94
12.21
8.34
4.42
0.45
-3.64
-8.01
-12.79
-18.17
-24.25
-31.03
-38.22
-45.19
-50.93
-54.31
-54.32
-50.51
-43.11
-33.00
-21.48
-9.88
0.71
9.61
16.59
21.71
25.21
27.41
28.64
29.20
29.32
29.19
28.94
28.62
28.24
27.82
27.43
27.18
27.18
27.45
27.84
28.00
27.48
25.91
23.07
19.06
14.16
8.75
3.17
-2.43
-8.09
-14.01
-20.44
-27.55
-35.24
-43.03
-50.01
-55.05
-57.02
-55.23
-49.65
-40.97
-30.37
-19.18
-8.53
0.84
8.58
14.62
19.07
22.12
24.02
25.07
25.61
25.88
26.00
25.96
25.68
25.17
24.48
23.81
23.28
22.95
22.73
22.42
21.78
20.64
18.89
16.52
13.60
10.20
6.44
2.45
-1.63
-5.71
-9.82
-14.13
-18.86
-24.02
-29.24
-33.74
-36.37
-36.06
-32.19
-24.83
-14.75
-3.19
8.53
19.31
28.43
35.54
40.59
43.69
45.13
45.33
44.81
44.19
43.99
44.53
45.77
47.23
48.18
47.89
45.94
42.39
37.67
32.36
26.92
21.50
15.95
10.04
3.72
-2.87
-9.40
-15.59
-21.37
-26.97
-32.74
-38.97
-45.61
-52.16
-57.73
-61.27
-61.92
-59.27
-53.54
-45.47
-36.12
-26.54
-17.59
-9.81
-3.46
1.39
4.82
6.92
7.84
7.80
7.08
6.02
4.84
3.64
2.41
1.07
-0.43
-1.97
-3.38
-4.50
-5.27
-5.81
-6.32
-7.10
-8.30
-9.99
-12.12
-14.60
-17.41
-20.66
-24.52
-29.11
-34.38
-39.90
-44.87
-48.23
-48.94
-46.40
-40.59
-32.17
-22.22
-11.92
-2.25
6.16
12.96
18.05
21.37
23.07
23.39
22.77
21.72
20.67
19.87
19.35
19.02
18.74
18.45
18.15
17.83
17.38
16.64
15.43
13.60
11.16
8.19
4.87
1.33
-2.40
-6.34
-10.66
-15.53
-21.05
-27.14
-33.45
-39.32
-43.85
-46.15
-45.54
-41.77
-35.10
-26.20
-16.03
-5.60
4.20
12.71
19.48
24.39
27.54
29.24
29.89
29.91
29.52
28.83
27.84
26.47
24.76
22.85
20.94
19.26
17.90
16.80
15.69
14.34
12.50
10.15
7.36
4.29
1.03
-2.39
-6.07
-10.16
-14.79
-20.02
-25.79
-31.81
-37.50
-42.04
-44.47
-43.94
-40.03
-32.89
-23.28
-12.35
-1.36
8.63
16.98
23.43
27.99
30.88
32.40
32.83
32.50
31.69
30.64
29.46
28.19
26.79
25.27
23.73
22.36
21.28
20.52
19.86
18.96
17.47
15.19
12.16
8.58
4.78
0.97
-2.80
-6.64
-10.79
-15.44
-20.66
-26.27
-31.81
-36.51
-39.50
-39.99
-37.45
-31.78
-23.36
-12.94
-1.46
10.06
20.72
29.85
37.00
42.07
45.24
47.00
47.87
48.44
49.11
50.10
51.40
52.84
54.22
55.34
56.12
56.61
57.06
57.90
59.58
62.48
66.47
70.77
73.87
73.84
68.96
58.33
42.22
22.07
-0.01
-21.93
-42.01
-59.17
-72.81
-82.52
-87.99
-89.10
-86.13
-79.90
-71.65
-62.78
-54.42
-47.27
-41.45
-36.68
-32.54
-28.73
-25.19
-22.08
-19.62
-17.96
-17.07
-16.71
-16.53
-16.19
-15.48
-14.34
-12.93
-11.50
-10.31
-9.51
-9.11
-9.00
-9.07
-9.27
-9.64
-10.29
-11.35
-12.91
-14.99
-17.63
-20.93
-24.91
-29.41
-33.85
-37.25
-38.37
-36.16
-30.15
-20.70
-8.93
3.62
15.50
25.78
34.06
40.45
45.24
48.77
51.32
53.17
54.48
55.30
55.38
54.24
51.28
46.12
38.84
30.09
20.89
12.23
4.72
-1.62
-7.20
-12.58
-18.13
-23.85
-29.43
-34.49
-38.83
-42.52
-45.89
-49.37
-53.25
-57.54
-61.91
-65.68
-68.01
-68.08
-65.32
-59.62
-51.33
-41.20
-30.14
-19.07
-8.72
0.39
7.91
13.66
17.62
19.98
21.07
21.33
21.15
20.75
20.19
19.41
18.32
16.91
15.27
13.53
11.77
10.03
8.24
6.32
4.18
1.81
-0.78
-3.55
-6.43
-9.35
-12.36
-15.59
-19.31
-23.73
-28.93
-34.62
-40.12
-44.39
-46.37
-45.23
-40.70
-33.16
-23.53
-12.99
-2.65
6.65
14.44
20.53
24.96
27.87
29.47
30.01
29.81
29.13
28.16
26.97
25.53
23.82
21.92
20.02
18.34
16.97
15.85
14.77
13.42
11.58
9.12
6.11
2.73
-0.73
-4.08
-7.30
-10.50
-13.91
-17.80
-22.27
-27.22
-32.25
-36.71
-39.77
-40.60
-38.55
-33.35
-25.26
-15.10
-4.04
6.59
15.79
23.09
28.51
32.48
35.52
37.93
39.77
40.90
41.19
40.61
39.39
37.85
36.46
35.63
35.68
36.71
38.50
40.37
41.29
40.08
35.77
28.07
17.55
5.62
-5.95
-15.55
-22.36
-26.51
-28.94
-31.00
-33.77
-37.77
-42.77
-47.98
-52.38
-55.04
-55.27
-52.78
-47.68
-40.44
-31.77
-22.60
-13.86
-6.38
-0.73
2.88
4.58
4.83
4.22
3.28
2.36
1.53
0.68
-0.33
-1.60
-2.98
-4.23
-5.12
-5.55
-5.68
-5.79
-6.25
-7.26
-8.86
-10.85
-12.99
-15.07
-17.02
-18.95
-21.04
-23.53
-26.57
-30.19
-34.26
-38.37
-41.89
-43.95
-43.71
-40.57
-34.48
-25.95
-15.93
-5.59
4.09
12.42
19.10
24.09
27.49
29.51
30.36
30.33
29.69
28.70
27.55
26.35
25.13
23.91
22.69
21.48
20.29
19.04
17.62
15.88
13.63
10.73
7.15
3.00
-1.46
-5.94
-10.19
-14.09
-17.77
-21.49
-25.62
-30.44
-35.97
-41.81
-47.16
-50.98
-52.24
-50.26
-44.95
-36.83
-26.88
-16.24
-5.94
3.34
11.32
17.97
23.40
27.69
30.87
32.95
33.98
34.17
33.78
33.13
32.39
31.58
30.65
29.55
28.30
27.06
25.99
25.14
24.41
23.53
22.21
20.22
17.52
14.29
10.88
7.63
4.79
2.39
0.24
-2.03
-4.73
-8.09
-12.07
-16.32
-20.19
-22.71
-22.75
-19.27
-11.70
-0.16
14.41
30.43
46.02
59.37
69.04
74.05
73.92
68.70
59.01
46.05
31.46
17.02
4.23
-5.98
-13.36
-18.19
-21.05
-22.55
-23.21
-23.42
-23.44
-23.44
-23.51
-23.70
-24.05
-24.65
-25.59
-26.94
-28.67
-30.55
-32.36
-33.93
-35.27
-36.65
-38.46
-41.02
-44.42
-48.34
-52.07
-54.67
-55.21
-53.00
-47.86
-40.06
-30.32
-19.61
-8.92
0.91
9.34
16.11
21.23
24.92
27.51
29.35
30.74
31.79
32.45
32.56
32.02
30.86
29.27
27.59
26.24
25.46
25.31
25.54
25.76
25.54
24.57
22.77
20.21
17.12
13.69
10.10
6.40
2.51
-1.75
-6.62
-12.38
-19.17
-26.79
-34.62
-41.62
-46.50
-48.12
-45.86
-39.84
-30.89
-20.32
-9.55
0.27
8.41
14.66
19.16
22.31
24.59
26.45
28.21
30.00
31.67
32.88
33.21
32.31
30.05
26.56
22.14
17.17
11.96
6.74
1.57
-3.51
-8.52
-13.40
-18.04
-22.27
-25.95
-28.98
-31.41
-33.51
-35.70
-38.52
-42.37
-47.32
-52.89
-58.13
-61.81
-62.78
-60.36
-54.54
-45.94
-35.63
-24.77
-14.37
-5.13
2.63
8.87
13.77
17.60
20.66
23.20
25.42
27.36
28.92
29.93
30.10
29.26
27.38
24.73
21.72
18.79
16.22
14.01
11.93
9.68
7.07
4.11
0.95
-2.24
-5.38
-8.50
-11.67
-14.93
-18.26
-21.69
-25.37
-29.50
-34.20
-39.21
-43.77
-46.78
-47.09
-44.04
-37.73
-29.03
-19.24
-9.69
-1.31
5.44
10.50
14.00
16.10
16.97
16.91
16.29
15.56
15.06
14.90
14.95
14.95
14.71
14.23
13.69
13.30
13.16
13.14
12.93
12.20
10.73
8.49
5.59
2.27
-1.27
-4.84
-8.35
-11.73
-15.04
-18.42
-22.11
-26.31
-31.03
-35.98
-40.44
-43.46
-44.13
-41.84
-36.52
-28.68
-19.22
-9.20
0.39
8.79
15.54
20.44
23.56
25.17
25.68
25.50
25.01
24.38
23.63
22.69
21.51
20.13
18.74
17.59
16.86
16.58
16.62
16.71
16.56
15.89
14.60
12.66
10.11
7.03
3.46
-0.52
-4.86
-9.47
-14.30
-19.36
-24.66
-30.16
-35.60
-40.34
-43.51
-44.14
-41.60
-35.79
-27.35
-17.38
-7.14
2.30
10.27
16.50
20.99
23.84
25.27
25.54
25.02
24.11
23.15
22.37
21.81
21.42
21.12
20.86
20.62
20.37
20.00
19.37
18.32
16.77
14.78
12.52
10.18
7.89
5.68
3.49
1.24
-1.16
-3.82
-6.90
-10.54
-14.73
-19.11
-22.88
-24.89
-24.09
-19.85
-12.41
-2.84
7.31
16.48
23.58
28.16
30.35
30.58
29.36
27.15
24.32
21.21
18.10
15.16
12.43
9.86
7.34
4.85
2.47
0.40
-1.15
-2.13
-2.60
-2.86
-3.28
-4.21
-5.88
-8.33
-11.42
-14.93
-18.63
-22.46
-26.49
-30.89
-35.81
-41.26
-46.96
-52.29
-56.41
-58.42
-57.57
-53.52
-46.41
-36.86
-25.80
-14.34
-3.50
5.97
13.63
19.42
23.47
26.04
27.41
27.79
27.42
26.50
25.28
23.98
22.78
21.74
20.86
20.10
19.43
18.78
18.04
17.00
15.49
13.34
10.55
7.25
3.64
-0.15
-4.05
-8.09
-12.39
-17.11
-22.40
-28.27
-34.50
-40.42
-45.09
-47.34
-46.24
-41.41
-33.20
-22.59
-10.89
0.62
11.01
19.72
26.59
31.68
35.20
37.45
38.73
39.31
39.35
38.87
37.86
36.33
34.50
32.76
31.67
31.72
33.08
35.45
38.06
39.81
39.65
36.87
31.38
23.69
14.73
5.53
-3.15
-10.97
-18.05
-24.82
-31.72
-39.02
-46.60
-53.98
-60.39
-64.94
-66.80
-65.42
-60.64
-52.78
-42.58
-31.11
-19.54
-8.94
-0.07
6.67
11.27
14.00
15.34
15.76
15.71
15.50
15.31
15.20
15.13
15.08
15.02
14.97
14.97
15.05
15.12
15.05
14.61
13.59
11.85
9.34
6.18
2.62
-1.01
-4.45
-7.53
-10.38
-13.36
-16.92
-21.33
-26.41
-31.47
-35.45
-37.16
-35.77
-31.06
-23.47
-13.98
-3.79
6.00
14.61
21.55
26.67
30.06
31.90
32.54
32.40
31.88
31.27
30.69
30.11
29.43
28.60
27.71
26.99
26.67
26.81
27.28
27.76
27.88
27.31
25.93
23.83
21.22
18.47
15.93
13.88
12.40
11.27
10.00
7.92
4.40
-0.86
-7.60
-14.97
-21.68
-26.37
-28.11
-26.66
-22.56
-16.93
-11.02
-5.82
-1.90
0.69
2.12
2.66
2.49
1.81
0.76
-0.40
-1.39
-2.01
-2.12
-1.77
-1.09
-0.22
0.68
1.50
2.14
2.52
2.48
1.87
0.56
-1.47
-4.15
-7.30
-10.75
-14.33
-17.98
-21.67
-25.44
-29.42
-33.79
-38.64
-43.87
-49.07
-53.36
-55.64
-54.91
-50.59
-42.91
-32.76
-21.46
-10.34
-0.35
8.07
14.87
20.17
24.09
26.68
28.03
28.30
27.77
26.80
25.65
24.40
22.99
21.27
19.20
16.90
14.67
12.77
11.38
10.40
9.48
8.22
6.38
3.94
1.11
-1.75
-4.40
-6.77
-9.09
-11.70
-15.02
-19.30
-24.59
-30.60
-36.65
-41.80
-44.94
-45.17
-42.04
-35.67
-26.85
-16.74
-6.62
2.45
9.77
15.09
18.50
20.31
20.89
20.61
19.77
18.62
17.40
16.35
15.74
15.74
16.34
17.39
18.56
19.52
20.05
20.10
19.72
18.97
17.82
16.12
13.74
10.63
6.98
3.11
-0.61
-3.98
-7.07
-10.21
-13.88
-18.44
-23.89
-29.79
-35.23
-39.16
-40.59
-38.98
-34.31
-27.09
-18.16
-8.51
0.95
9.49
16.62
22.02
25.60
27.44
27.82
27.13
25.83
24.34
22.92
21.67
20.56
19.49
18.40
17.35
16.34
15.35
14.23
12.70
10.53
7.71
4.49
1.31
-1.42
-3.50
-5.08
-6.54
-8.38
-11.00
-14.66
-19.42
-25.13
-31.37
-37.42
-42.20
-44.56
-43.61
-39.06
-31.40
-21.81
-11.78
-2.68
4.56
9.64
12.75
14.38
15.07
15.22
15.06
14.69
14.14
13.42
12.57
11.64
10.64
9.52
8.22
6.63
4.78
2.78
0.82
-0.85
-2.06
-2.76
-3.06
-3.20
-3.49
-4.17
-5.43
-7.38
-10.14
-13.79
-18.36
-23.56
-28.68
-32.57
-33.93
-31.78
-25.80
-16.58
-5.47
5.92
16.14
24.27
30.03
33.60
35.40
35.82
35.22
33.83
31.93
29.78
27.60
25.52
23.47
21.34
18.97
16.29
13.30
10.13
6.81
3.31
-0.53
-4.78
-9.38
-14.04
-18.28
-21.74
-24.30
-26.27
-28.27
-30.97
-34.78
-39.63
-44.84
-49.32
-51.93
-51.77
-48.40
-41.91
-32.89
-22.17
-10.73
0.51
10.76
19.46
26.29
31.19
34.38
36.19
37.07
37.36
37.25
36.82
35.97
34.57
32.62
30.23
27.69
25.34
23.37
21.75
20.17
18.24
15.65
12.35
8.54
4.56
0.70
-2.94
-6.50
-10.26
-14.49
-19.39
-24.93
-30.84
-36.54
-41.21
-43.93
-43.90
-40.71
-34.46
-25.84
-15.94
-5.92
3.21
10.88
16.88
21.32
24.47
26.63
27.96
28.55
28.41
27.54
26.04
24.11
22.05
20.12
18.45
17.05
15.79
14.46
12.96
11.23
9.31
7.24
4.98
2.44
-0.51
-3.91
-7.73
-11.85
-16.19
-20.78
-25.75
-31.13
-36.72
-41.95
-45.90
-47.53
-46.03
-41.10
-33.14
-23.15
-12.44
-2.24
6.60
13.74
19.20
23.24
26.09
27.92
28.86
29.03
28.68
28.06
27.36
26.66
25.87
24.86
23.61
22.20
20.79
19.54
18.37
17.05
15.22
12.60
9.11
4.98
0.60
-3.64
-7.52
-11.09
-14.66
-18.59
-23.09
-28.02
-32.81
-36.62
-38.56
-37.97
-34.64
-28.83
-21.17
-12.49
-3.66
4.56
11.54
16.83
20.25
21.88
22.08
21.29
19.99
18.47
16.84
15.10
13.25
11.47
9.97
9.00
8.63
8.69
8.82
8.63
7.84
6.42
4.55
2.46
0.35
-1.77
-4.06
-6.78
-10.14
-14.24
-18.96
-23.95
-28.70
-32.49
-34.60
-34.38
-31.53
-26.15
-18.79
-10.35
-1.78
6.06
12.63
17.75
21.45
23.91
25.35
25.91
25.69
24.80
23.34
21.47
19.39
17.32
15.51
14.09
13.09
12.33
11.57
10.53
9.06
7.22
5.15
3.10
1.11
-0.98
-3.48
-6.70
-10.83
-15.81
-21.31
-26.89
-31.92
-35.72
-37.59
-36.91
-33.31
-26.87
-18.18
-8.24
1.72
10.64
17.81
23.07
26.68
29.15
30.93
32.31
33.34
33.95
34.09
33.87
33.43
33.00
32.64
32.22
31.46
30.12
28.06
25.32
22.08
18.59
15.02
11.51
8.14
4.93
1.86
-1.19
-4.49
-8.30
-12.74
-17.54
-22.00
-25.10
-25.82
-23.54
-18.24
-10.55
-1.51
7.78
16.38
23.73
29.58
33.94
36.95
38.83
39.81
40.14
40.03
39.67
39.20
38.66
37.97
37.02
35.74
34.17
32.57
31.38
30.99
31.57
32.85
34.05
34.20
32.37
28.03
21.23
12.40
2.20
-8.76
-20.01
-31.18
-41.82
-51.29
-58.73
-63.23
-64.17
-61.39
-55.37
-47.09
-37.75
-28.42
-19.86
-12.43
-6.22
-1.25
2.49
4.95
6.19
6.35
5.75
4.65
3.26
1.64
-0.23
-2.34
-4.53
-6.61
-8.37
-9.77
-10.97
-12.25
-13.83
-15.80
-18.05
-20.40
-22.71
-24.91
-27.08
-29.31
-31.74
-34.52
-37.75
-41.40
-45.16
-48.39
-50.21
-49.69
-46.22
-39.80
-31.04
-21.02
-10.84
-1.38
6.84
13.64
18.95
22.85
25.40
26.77
27.20
26.92
26.13
24.93
23.33
21.35
19.12
16.81
14.63
12.68
10.93
9.28
7.62
5.89
4.05
2.08
-0.09
-2.57
-5.40
-8.65
-12.32
-16.46
-21.16
-26.48
-32.31
-38.20
-43.36
-46.78
-47.57
-45.18
-39.70
-31.74
-22.33
-12.52
-3.21
4.97
11.70
16.84
20.38
22.43
23.16
22.83
21.69
20.02
18.05
16.03
14.18
12.72
11.77
11.29
11.12
10.98
10.62
9.88
8.73
7.22
5.41
3.31
0.94
-1.61
-4.25
-6.88
-9.56
-12.47
-15.90
-20.03
-24.67
-29.19
-32.58
-33.81
-32.16
-27.51
-20.39
-11.75
-2.67
5.95
13.54
19.82
24.71
28.25
30.53
31.77
32.25
32.32
32.22
32.03
31.67
30.98
29.91
28.50
26.98
25.52
24.23
22.98
21.54
19.69
17.31
14.47
11.33
8.02
4.68
1.31
-2.11
-5.63
-9.39
-13.53
-18.22
-23.38
-28.68
-33.44
-36.71
-37.57
-35.41
-30.15
-22.28
-12.77
-2.77
6.62
14.61
20.79
25.09
27.74
29.06
29.40
29.05
28.27
27.27
26.20
25.17
24.21
23.25
22.23
21.11
19.97
18.89
17.95
17.03
15.89
14.17
11.64
8.29
4.32
0.06
-4.15
-8.17
-12.04
-15.91
-20.00
-24.43
-29.29
-34.45
-39.60
-44.10
-47.07
-47.57
-44.91
-38.96
-30.28
-19.92
-9.16
0.92
9.63
16.69
22.07
25.85
28.14
29.05
28.83
27.80
26.34
24.77
23.28
21.97
20.84
19.91
19.20
18.78
18.66
18.71
18.69
18.27
17.16
15.20
12.48
9.23
5.76
2.36
-0.81
-3.66
-6.27
-8.80
-11.47
-14.55
-18.23
-22.46
-26.85
-30.66
-32.91
-32.76
-29.77
-24.07
-16.33
-7.51
1.36
9.47
16.27
21.45
24.94
26.82
27.39
26.94
25.80
24.18
22.18
19.86
17.31
14.72
12.32
10.30
8.69
7.45
6.35
5.25
3.99
2.51
0.71
-1.49
-4.20
-7.42
-11.02
-14.78
-18.43
-21.78
-24.82
-27.64
-30.47
-33.53
-37.00
-40.89
-45.01
-48.96
-52.14
-53.79
-53.25
-50.08
-44.25
-36.17
-26.62
-16.58
-6.99
1.43
8.21
13.16
16.39
18.15
18.86
18.97
18.82
18.63
18.44
18.10
17.49
16.57
15.43
14.29
13.32
12.62
12.12
11.71
11.25
10.69
10.04
9.29
8.39
7.22
5.69
3.80
1.61
-0.71
-3.05
-5.38
-7.72
-10.05
-12.28
-14.11
-15.09
-14.70
-12.46
-8.04
-1.35
7.43
17.91
29.48
41.35
52.60
62.15
69.01
72.37
71.87
67.68
60.53
51.51
41.77
32.24
23.45
15.57
8.54
2.22
-3.40
-8.29
-12.48
-16.05
-19.26
-22.41
-25.71
-29.17
-32.57
-35.61
-38.09
-40.07
-41.78
-43.58
-45.78
-48.54
-51.84
-55.49
-59.14
-62.31
-64.37
-64.65
-62.62
-58.12
-51.42
-43.21
-34.37
-25.72
-17.84
-11.11
-5.62
-1.37
1.69
3.69
4.80
5.23
5.22
5.02
4.82
4.72
4.76
4.88
5.00
5.07
5.07
5.08
5.12
5.11
4.89
4.27
3.15
1.55
-0.38
-2.51
-4.74
-7.16
-9.92
-13.12
-16.70
-20.27
-23.24
-24.86
-24.50
-21.80
-16.80
-9.93
-1.92
6.43
14.34
21.23
26.72
30.57
32.73
33.29
32.54
30.92
28.98
27.16
25.73
24.74
24.07
23.61
23.34
23.31
23.60
24.16
24.78
25.17
25.07
24.35
23.07
21.32
19.15
16.47
13.08
8.78
3.55
-2.45
-8.78
-14.80
-19.80
-23.12
-24.28
-23.10
-19.70
-14.47
-8.00
-0.94
6.06
12.35
17.37
20.73
22.31
22.22
20.88
18.78
16.32
13.75
11.08
8.26
5.25
2.12
-0.99
-3.91
-6.57
-9.02
-11.33
-13.63
-15.98
-18.35
-20.64
-22.74
-24.56
-26.08
-27.40
-28.70
-30.18
-32.04
-34.42
-37.39
-40.90
-44.71
-48.41
-51.36
-52.81
-52.13
-48.95
-43.36
-35.93
-27.49
-18.98
-11.17
-4.54
0.75
4.81
7.83
10.01
11.46
12.26
12.45
12.14
11.40
10.39
9.20
7.90
6.57
5.33
4.28
3.52
3.03
2.64
2.04
0.91
-0.98
-3.59
-6.71
-9.96
-13.04
-15.84
-18.55
-21.55
-25.25
-29.80
-34.97
-40.11
-44.35
-46.79
-46.81
-44.18
-39.11
-32.10
-23.84
-15.02
-6.35
1.63
8.49
13.91
17.80
20.26
21.52
21.88
21.59
20.85
19.75
18.41
16.98
15.66
14.63
13.95
13.49
13.02
12.26
11.06
9.43
7.51
5.48
3.44
1.36
-0.86
-3.29
-5.97
-8.90
-12.12
-15.77
-19.96
-24.70
-29.61
-33.94
-36.66
-36.81
-33.85
-27.93
-19.76
-10.45
-1.08
7.54
14.99
21.15
25.95
29.34
31.26
31.71
30.94
29.31
27.29
25.28
23.52
22.07
20.89
19.92
19.16
18.63
18.30
17.98
17.41
16.29
14.45
11.87
8.74
5.37
2.03
-1.13
-4.19
-7.42
-11.23
-15.94
-21.61
-27.89
-33.97
-38.71
-41.03
-40.19
-36.09
-29.28
-20.70
-11.41
-2.30
6.06
13.31
19.21
23.65
26.57
28.09
28.53
28.31
27.80
27.20
26.52
25.61
24.41
22.97
21.47
20.16
19.17
18.50
17.97
17.34
16.40
15.06
13.29
11.16
8.76
6.14
3.40
0.62
-2.14
-4.94
-7.94
-11.33
-15.29
-19.64
-23.90
-27.21
-28.57
-27.16
-22.61
-15.17
-5.58
5.12
15.97
26.18
35.26
42.89
48.90
53.20
55.84
57.03
57.11
56.46
55.31
53.68
51.38
48.26
44.39
40.13
36.03
32.58
29.94
27.82
25.65
22.80
18.84
13.73
7.72
1.20
-5.41
-11.78
-17.76
-23.27
-28.44
-33.50
-38.72
-44.32
-50.18
-55.88
-60.66
-63.62
-63.98
-61.33
-55.77
-47.86
-38.53
-28.76
-19.41
-11.10
-4.09
1.58
6.01
9.31
11.68
13.29
14.36
15.14
15.77
16.30
16.66
16.74
16.45
15.89
15.24
14.72
14.44
14.40
14.39
14.11
13.27
11.67
9.21
5.95
2.12
-1.98
-6.11
-10.09
-13.99
-18.03
-22.51
-27.60
-33.20
-38.81
-43.68
-46.91
-47.73
-45.72
-40.94
-33.95
-25.57
-16.74
-8.28
-0.76
5.47
10.28
13.69
15.81
16.84
17.05
16.67
15.93
14.97
13.89
12.81
11.84
11.11
10.67
10.50
10.48
10.42
10.09
9.28
7.80
5.58
2.67
-0.69
-4.11
-7.20
-9.71
-11.61
-13.20
-14.99
-17.51
-21.06
-25.54
-30.38
-34.62
-37.17
-37.14
-34.15
-28.46
-20.88
-12.48
-4.33
2.87
8.78
13.41
16.96
19.66
21.68
23.07
23.83
23.91
23.35
22.28
20.94
19.58
18.38
17.37
16.42
15.31
13.91
12.26
10.57
9.07
7.80
6.64
5.27
3.37
0.79
-2.39
-5.96
-9.69
-13.52
-17.48
-21.63
-25.79
-29.50
-32.01
-32.61
-30.83
-26.68
-20.62
-13.34
-5.63
1.91
8.82
14.78
19.57
23.02
25.13
26.09
26.23
25.92
25.45
24.92
24.27
23.34
22.03
20.35
18.42
16.47
14.66
13.04
11.51
9.83
7.75
5.09
1.83
-1.93
-5.93
-9.96
-13.88
-17.68
-21.53
-25.65
-30.25
-35.28
-40.41
-44.92
-47.85
-48.30
-45.69
-40.05
-31.93
-22.32
-12.24
-2.59
6.01
13.19
18.71
22.47
24.50
25.07
24.60
23.62
22.59
21.74
21.08
20.45
19.65
18.52
17.09
15.46
13.79
12.16
10.57
8.89
6.93
4.56
1.72
-1.48
-4.82
-8.10
-11.18
-14.08
-17.01
-20.29
-24.13
-28.55
-33.10
-36.99
-39.22
-38.88
-35.49
-29.21
-20.74
-11.10
-1.35
7.70
15.55
21.94
26.78
30.09
31.99
32.73
32.64
32.05
31.21
30.23
29.01
27.46
25.49
23.14
20.62
18.15
15.90
13.90
12.04
10.06
7.80
5.16
2.23
-0.79
-3.73
-6.53
-9.26
-12.13
-15.37
-19.13
-23.38
-27.87
-32.11
-35.48
-37.31
-37.02
-34.29
-29.18
-22.09
-13.73
-4.94
3.45
10.78
16.70
21.11
24.13
25.96
26.79
26.74
25.91
24.45
22.60
20.70
19.01
17.70
16.67
15.71
14.53
12.93
10.89
8.54
6.05
3.62
1.27
-1.02
-3.32
-5.71
-8.21
-10.80
-13.54
-16.57
-20.02
-23.92
-27.95
-31.49
-33.63
-33.53
-30.68
-25.15
-17.58
-8.94
-0.26
7.58
14.05
18.96
22.37
24.55
25.76
26.25
26.19
25.66
24.68
23.32
21.62
19.70
17.70
15.77
13.99
12.41
11.04
9.79
8.54
7.12
5.41
3.37
1.05
-1.51
-4.25
-7.21
-10.49
-14.22
-18.50
-23.23
-28.10
-32.47
-35.56
-36.59
-35.06
-30.93
-24.62
-16.94
-8.85
-1.16
5.58
11.10
15.41
18.57
20.70
21.88
22.18
21.80
20.89
19.70
18.43
17.22
16.11
15.07
14.01
12.82
11.43
9.80
7.90
5.78
3.52
1.19
-1.10
-3.27
-5.36
-7.49
-9.92
-12.95
-16.77
-21.36
-26.33
-31.00
-34.45
-35.86
-34.70
-30.92
-24.91
-17.36
-9.06
-0.83
6.69
12.99
17.77
20.94
22.67
23.29
23.24
22.86
22.30
21.54
20.49
19.06
17.38
15.70
14.31
13.36
12.82
12.46
12.00
11.23
10.07
8.53
6.64
4.33
1.60
-1.54
-4.97
-8.56
-12.26
-16.11
-20.20
-24.55
-28.85
-32.48
-34.61
-34.48
-31.70
-26.41
-19.28
-11.29
-3.47
3.38
8.84
12.81
15.48
17.09
17.96
18.36
18.53
18.70
19.00
19.43
19.83
20.02
19.83
19.22
18.28
17.19
16.08
14.97
13.79
12.37
10.57
8.27
5.41
2.03
-1.74
-5.67
-9.55
-13.28
-17.03
-21.06
-25.61
-30.61
-35.53
-39.45
-41.33
-40.44
-36.57
-30.13
-21.92
-12.88
-3.84
4.56
11.86
17.71
21.90
24.38
25.37
25.28
24.61
23.83
23.22
22.85
22.64
22.42
21.98
21.23
20.20
19.03
17.89
16.86
15.85
14.63
12.92
10.60
7.73
4.60
1.52
-1.36
-4.15
-7.10
-10.54
-14.69
-19.49
-24.65
-29.70
-34.07
-37.14
-38.41
-37.51
-34.34
-29.13
-22.39
-14.82
-7.22
-0.27
5.58
10.12
13.41
15.65
17.09
17.95
18.37
18.40
18.09
17.48
16.69
15.85
15.05
14.29
13.51
12.55
11.32
9.80
8.02
6.09
4.16
2.25
0.36
-1.55
-3.57
-5.74
-8.12
-10.82
-13.95
-17.57
-21.62
-25.74
-29.37
-31.78
-32.26
-30.37
-26.10
-19.85
-12.38
-4.57
2.77
9.11
14.19
18.01
20.71
22.45
23.37
23.58
23.19
22.33
21.20
19.93
18.66
17.46
16.36
15.38
14.50
13.68
12.82
11.80
10.55
9.06
7.45
5.87
4.44
3.14
1.87
0.45
-1.33
-3.57
-6.33
-9.43
-12.51
-14.96
-15.99
-14.81
-10.90
-4.18
4.89
15.44
26.40
36.80
45.92
53.35
58.86
62.30
63.62
62.87
60.30
56.34
51.44
45.93
39.95
33.38
26.06
17.87
8.92
-0.41
-9.62
-18.17
-25.71
-32.15
-37.69
-42.67
-47.39
-51.94
-56.11
-59.57
-62.06
-63.64
-64.75
-66.06
-68.06
-70.85
-73.97
-76.58
-77.72
-76.61
-72.85
-66.48
-57.98
-48.02
-37.45
-27.04
-17.45
-9.14
-2.32
2.91
6.61
8.95
10.18
10.66
10.80
10.94
11.26
11.75
12.23
12.50
12.49
12.28
12.03
11.83
11.62
11.24
10.44
9.15
7.44
5.56
3.73
2.03
0.31
-1.73
-4.35
-7.63
-11.27
-14.66
-16.96
-17.39
-15.42
-10.94
-4.29
3.84
12.69
21.54
29.86
37.30
43.66
48.81
52.67
55.16
56.29
56.12
54.81
52.59
49.74
46.51
43.13
39.74
36.43
33.24
30.22
27.37
24.67
22.00
19.15
15.91
12.14
7.87
3.27
-1.43
-6.09
-10.75
-15.56
-20.76
-26.43
-32.40
-38.20
-43.16
-46.53
-47.69
-46.31
-42.45
-36.58
-29.51
-22.17
-15.44
-9.93
-5.94
-3.40
-1.99
-1.30
-0.95
-0.69
-0.47
-0.37
-0.53
-1.09
-2.04
-3.25
-4.51
-5.66
-6.63
-7.51
-8.45
-9.45
-10.47
-11.35
-12.01
-12.57
-13.27
-14.46
-16.33
-18.86
-21.84
-25.07
-28.40
-31.86
-35.43
-38.96
-41.96
-43.78
-43.70
-41.27
-36.45
-29.65
-21.61
-13.20
-5.13
2.09
8.24
13.28
17.28
20.36
22.57
24.01
24.71
24.75
24.17
23.00
21.32
19.26
17.04
14.95
13.18
11.79
10.65
9.49
8.09
6.33
4.29
2.10
-0.11
-2.37
-4.79
-7.53
-10.70
-14.31
-18.34
-22.74
-27.38
-31.96
-35.94
-38.58
-39.11
-37.00
-32.15
-24.98
-16.33
-7.24
1.35
8.74
14.62
18.99
22.08
24.18
25.54
26.31
26.55
26.27
25.51
24.37
22.99
21.51
20.02
18.53
17.00
15.31
13.39
11.23
8.85
6.33
3.76
1.20
-1.33
-3.82
-6.30
-8.83
-11.50
-14.49
-17.99
-22.00
-26.27
-30.20
-32.91
-33.57
-31.59
-26.93
-20.06
-11.83
-3.26
4.73
11.50
16.73
20.40
22.72
23.92
24.24
23.83
22.78
21.19
19.24
17.10
14.99
13.09
11.46
10.17
9.21
8.61
8.32
8.30
8.35
8.31
8.00
7.36
6.43
5.30
3.98
2.34
0.13
-2.96
-7.04
-11.92
-17.02
-21.51
-24.46
-25.15
-23.27
-19.01
-12.96
-5.98
1.07
7.52
13.02
17.43
20.78
23.09
24.36
24.60
23.90
22.43
20.47
18.34
16.27
14.42
12.87
11.57
10.40
9.22
7.88
6.31
4.50
2.55
0.61
-1.23
-2.97
-4.71
-6.61
-8.90
-11.73
-15.18
-19.14
-23.34
-27.29
-30.36
-31.85
-31.26
-28.37
-23.34
-16.67
-9.09
-1.35
5.87
12.09
17.05
20.63
22.88
23.93
23.97
23.20
21.86
20.14
18.25
16.39
14.69
13.26
12.15
11.30
10.57
9.77
8.69
7.18
5.22
2.87
0.35
-2.09
-4.31
-6.31
-8.34
-10.75
-13.88
-17.85
-22.40
-26.97
-30.80
-33.16
-33.48
-31.49
-27.19
-20.93
-13.37
-5.29
2.46
9.21
14.64
18.73
21.65
23.60
24.70
24.96
24.47
23.41
22.04
20.66
19.45
18.42
17.47
16.53
15.51
14.39
13.12
11.63
9.83
7.64
5.04
2.02
-1.33
-4.96
-8.81
-12.81
-16.93
-21.14
-25.45
-29.73
-33.63
-36.59
-37.87
-36.83
-33.16
-27.07
-19.23
-10.61
-2.19
5.31
11.45
16.12
19.40
21.46
22.45
22.55
21.94
20.79
19.32
17.72
16.17
14.85
13.84
13.15
12.74
12.47
12.23
11.89
11.40
10.76
9.99
9.12
8.21
7.27
6.28
5.20
3.95
2.40
0.43
-2.02
-4.89
-7.82
-10.23
-11.40
-10.60
-7.34
-1.56
6.48
16.24
26.96
37.82
47.98
56.63
63.12
67.12
68.72
68.49
67.34
66.32
66.33
67.79
70.48
73.54
75.67
75.47
71.87
64.47
53.62
40.33
25.89
11.54
-1.80
-13.61
-23.65
-31.90
-38.42
-43.47
-47.47
-51.04
-54.82
-59.30
-64.59
-70.33
-75.75
-79.82
-81.65
-80.68
-76.86
-70.60
-62.64
-53.78
-44.78
-36.17
-28.34
-21.52
-15.85
-11.32
-7.81
-5.06
-2.80
-0.84
0.89
2.35
3.47
4.21
4.72
5.16
5.70
6.42
7.16
7.69
7.71
7.07
5.78
4.03
2.05
0.05
-1.91
-3.93
-6.17
-8.80
-11.91
-15.51
-19.40
-23.32
-26.80
-29.29
-30.23
-29.11
-25.71
-20.18
-13.06
-5.20
2.51
9.34
14.87
18.99
21.80
23.48
24.19
24.00
23.03
21.46
19.53
17.56
15.79
14.38
13.34
12.57
11.93
11.29
10.58
9.79
8.93
8.01
7.03
5.91
4.62
3.14
1.50
-0.26
-2.15
-4.22
-6.61
-9.40
-12.43
-15.33
-17.40
-17.85
-16.04
-11.68
-4.91
3.65
13.07
22.23
30.03
35.48
37.94
37.20
33.60
27.97
21.32
14.63
8.58
3.43
-0.90
-4.68
-8.12
-11.32
-14.20
-16.66
-18.60
-20.09
-21.28
-22.38
-23.57
-24.86
-26.12
-27.19
-27.98
-28.62
-29.48
-30.93
-33.33
-36.73
-40.89
-45.28
-49.19
-51.88
-52.71
-51.33
-47.68
-42.02
-34.82
-26.60
-17.88
-9.11
-0.72
6.84
13.13
17.86
20.95
22.67
23.47
23.87
24.25
24.70
25.05
25.06
24.59
23.74
22.83
22.23
22.20
22.77
23.72
24.76
25.58
25.96
25.69
24.64
22.71
20.04
17.07
14.49
13.02
12.95
13.88
14.64
13.79
10.21
3.65
-5.02
-14.12
-21.79
-26.72
-28.41
-27.23
-24.02
-19.71
-15.04
-10.52
-6.56
-3.53
-1.69
-1.14
-1.64
-2.76
-3.88
-4.58
-4.73
-4.54
-4.40
-4.61
-5.25
-6.13
-6.89
-7.23
-7.08
-6.58
-6.02
-5.73
-5.90
-6.60
-7.76
-9.28
-11.05
-13.02
-15.21
-17.70
-20.57
-23.88
-27.54
-31.22
-34.33
-36.14
-35.91
-33.13
-27.74
-20.14
-11.13
-1.77
6.97
14.41
20.30
24.83
28.43
31.56
34.43
36.95
38.74
39.40
38.65
36.52
33.30
29.48
25.63
22.33
20.04
19.05
19.45
21.02
23.26
25.44
26.76
26.60
24.54
20.53
14.82
7.89
0.34
-7.27
-14.54
-21.29
-27.55
-33.44
-38.98
-43.98
-47.98
-50.40
-50.72
-48.69
-44.43
-38.43
-31.41
-24.11
-17.19
-11.12
-6.17
-2.41
0.27
2.04
3.15
3.82
4.18
4.31
4.20
3.88
3.42
2.96
2.68
2.71
3.11
3.86
4.85
5.95
6.99
7.79
8.14
7.91
7.06
5.72
4.09
2.35
0.55
-1.41
-3.77
-6.66
-9.96
-13.23
-15.81
-17.04
-16.51
-14.13
-10.13
-4.91
1.09
7.49
13.92
20.06
25.61
30.31
34.05
36.81
38.68
39.75
40.09
39.71
38.67
37.05
34.94
32.43
29.57
26.40
23.03
19.71
16.79
14.66
13.61
13.71
14.85
16.75
18.91
20.78
21.66
20.87
17.87
12.40
4.59
-5.01
-15.60
-26.27
-36.15
-44.43
-50.47
-53.75
-54.00
-51.23
-45.82
-38.51
-30.21
-21.83
-14.08
-7.45
-2.11
1.91
4.72
6.52
7.57
8.19
8.72
9.44
10.48
11.84
13.40
14.98
16.48
17.83
19.04
20.14
21.11
21.85
22.21
21.99
21.03
19.25
16.70
13.57
10.12
6.69
3.57
0.89
-1.40
-3.58
-6.01
-9.01
-12.61
-16.48
-19.95
-22.24
-22.72
-21.14
-17.70
-12.95
-7.55
-2.12
2.93
7.42
11.26
14.43
16.89
18.57
19.37
19.28
18.34
16.71
14.59
12.22
9.76
7.34
4.94
2.50
-0.09
-2.96
-6.20
-9.84
-13.79
-17.85
-21.78
-25.28
-28.18
-30.42
-32.07
-33.31
-34.42
-35.72
-37.49
-39.90
-42.94
-46.27
-49.30
-51.27
-51.44
-49.34
-44.90
-38.49
-30.74
-22.47
-14.37
-6.98
-0.62
4.62
8.79
12.02
14.44
16.16
17.25
17.76
17.76
17.39
16.83
16.33
16.07
16.19
16.69
17.46
18.29
18.94
19.17
18.84
17.94
16.58
14.95
13.26
11.63
10.18
8.92
7.80
6.65
5.20
3.10
0.10
-3.80
-8.24
-12.53
-15.84
-17.51
-17.34
-15.55
-12.78
-9.83
-7.39
-5.86
-5.30
-5.52
-6.20
-7.03
-7.81
-8.50
-9.16
-9.85
-10.59
-11.33
-11.94
-12.32
-12.43
-12.31
-12.10
-11.94
-11.91
-12.08
-12.38
-12.82
-13.40
-14.20
-15.30
-16.76
-18.54
-20.58
-22.81
-25.28
-28.06
-31.14
-34.35
-37.24
-39.17
-39.50
-37.72
-33.71
-27.70
-20.27
-12.20
-4.23
3.01
9.13
14.02
17.73
20.36
22.07
22.94
23.13
22.82
22.22
21.56
20.98
20.51
20.14
19.87
19.77
19.93
20.35
20.91
21.29
21.11
20.05
17.96
14.98
11.50
7.98
4.78
2.05
-0.42
-3.03
-6.26
-10.29
-14.90
-19.38
-22.74
-24.08
-22.81
-19.03
-13.37
-6.82
-0.43
5.04
9.30
12.46
14.94
17.26
19.84
22.85
26.23
29.67
32.70
34.86
35.81
35.38
33.76
31.37
28.74
26.24
23.95
21.58
18.62
14.56
9.22
2.87
-3.89
-10.35
-15.94
-20.45
-23.97
-26.81
-29.34
-31.92
-34.84
-38.35
-42.53
-47.20
-51.85
-55.67
-57.70
-57.16
-53.66
-47.37
-38.98
-29.46
-19.80
-10.86
-3.22
2.91
7.51
10.79
13.05
14.56
15.53
16.07
16.24
16.07
15.69
15.27
15.05
15.21
15.84
16.79
17.82
18.56
18.74
18.20
16.95
15.20
13.26
11.39
9.78
8.44
7.15
5.57
3.31
0.14
-3.91
-8.42
-12.68
-15.80
-16.96
-15.63
-11.71
-5.53
2.32
11.11
20.24
29.36
38.35
47.15
55.62
63.21
68.95
71.56
69.86
63.28
52.19
37.93
22.46
7.82
-4.41
-13.45
-19.24
-22.30
-23.34
-23.14
-22.35
-21.54
-21.16
-21.48
-22.58
-24.29
-26.34
-28.36
-30.16
-31.76
-33.45
-35.66
-38.71
-42.64
-47.01
-50.99
-53.50
-53.64
-50.88
-45.30
-37.53
-28.55
-19.43
-11.04
-3.90
1.81
6.22
9.58
12.19
14.20
15.69
16.64
17.02
16.86
16.32
15.65
15.13
14.94
15.10
15.43
15.67
15.53
14.82
13.49
11.58
9.27
6.80
4.45
2.46
0.92
-0.33
-1.62
-3.51
-6.50
-10.90
-16.56
-22.89
-28.87
-33.33
-35.27
-34.03
-29.58
-22.44
-13.56
-4.06
4.98
12.77
18.81
22.97
25.44
26.64
27.15
27.48
27.98
28.69
29.42
29.86
29.75
28.99
27.64
25.87
23.88
21.82
19.85
18.12
16.82
16.11
16.02
16.42
16.95
17.14
16.46
14.45
10.81
5.44
-1.55
-9.87
-18.99
-28.22
-36.70
-43.54
-47.97
-49.46
-47.86
-43.39
-36.64
-28.39
-19.47
-10.63
-2.43
4.75
10.79
15.68
19.54
22.53
24.82
26.57
27.92
29.07
30.15
31.26
32.33
33.23
33.75
33.69
32.92
31.41
29.22
26.43
23.14
19.41
15.33
11.02
6.62
2.27
-1.93
-5.97
-9.95
-14.03
-18.41
-23.22
-28.42
-33.67
-38.39
-41.77
-43.01
-41.62
-37.49
-31.03
-23.01
-14.34
-5.85
1.82
8.28
13.33
16.94
19.19
20.24
20.33
19.78
18.87
17.87
16.92
16.07
15.31
14.64
14.08
13.74
13.73
14.08
14.71
15.36
15.72
15.58
14.86
13.67
12.22
10.66
9.00
7.08
4.71
1.68
-2.03
-6.31
-10.94
-15.61
-19.93
-23.53
-25.87
-26.48
-24.92
-21.01
-14.84
-6.84
2.35
12.01
21.44
30.04
37.27
42.68
45.93
46.86
45.63
42.60
38.37
33.52
28.51
23.58
18.73
13.89
8.99
4.08
-0.72
-5.24
-9.37
-13.04
-16.25
-19.05
-21.51
-23.68
-25.63
-27.42
-29.18
-31.18
-33.73
-37.12
-41.50
-46.70
-52.13
-56.94
-60.15
-60.97
-59.02
-54.37
-47.46
-38.98
-29.71
-20.35
-11.53
-3.69
2.88
8.13
12.12
15.02
16.99
18.17
18.72
18.82
18.72
18.65
18.80
19.27
20.14
21.44
23.21
25.40
27.78
29.95
31.43
31.81
31.05
29.55
28.03
27.36
28.13
30.49
33.82
36.81
37.64
34.59
26.58
13.72
-2.58
-20.00
-35.93
-48.26
-55.87
-58.69
-57.37
-52.98
-46.64
-39.39
-32.20
-25.89
-21.00
-17.72
-15.78
-14.66
-13.79
-12.81
-11.70
-10.65
-9.96
-9.81
-10.08
-10.45
-10.52
-9.99
-8.88
-7.49
-6.31
-5.77
-6.08
-7.08
-8.35
-9.45
-10.16
-10.59
-11.21
-12.62
-15.29
-19.26
-24.03
-28.62
-31.88
-32.83
-30.97
-26.44
-19.97
-12.58
-5.34
1.10
6.68
12.01
18.17
26.36
37.25
50.64
65.18
78.68
88.69
93.34
91.81
84.57
73.03
58.99
44.15
29.76
16.65
5.23
-4.23
-11.69
-17.29
-21.41
-24.57
-27.26
-29.82
-32.34
-34.67
-36.61
-38.13
-39.45
-41.02
-43.35
-46.72
-50.94
-55.33
-58.82
-60.27
-58.81
-54.06
-46.26
-36.32
-25.45
-14.92
-5.65
2.01
8.30
13.82
19.19
24.71
30.20
35.21
39.16
41.69
42.85
43.03
42.75
42.45
42.34
42.42
42.53
42.44
42.04
41.34
40.50
39.85
39.80
40.71
42.77
45.74
48.78
50.45
48.97
42.82
31.39
15.40
-3.15
-21.45
-36.74
-47.11
-51.89
-51.58
-47.52
-41.27
-34.25
-27.61
-22.15
-18.33
-16.29
-15.80
-16.31
-17.19
-17.82
-17.90
-17.38
-16.45
-15.39
-14.44
-13.75
-13.29
-12.95
-12.60
-12.15
-11.64
-11.25
-11.23
-11.87
-13.31
-15.50
-18.20
-21.06
-23.85
-26.56
-29.42
-32.75
-36.74
-41.20
-45.49
-48.62
-49.52
-47.41
-42.11
-34.09
-24.32
-14.03
-4.30
4.19
11.17
16.70
21.03
24.39
26.93
28.65
29.49
29.40
28.38
26.54
24.11
21.43
18.88
16.75
15.16
13.94
12.82
11.45
9.59
7.25
4.51
1.52
-1.59
-4.77
-8.09
-11.67
-15.70
-20.37
-25.74
-31.60
-37.38
-42.24
-45.23
-45.61
-43.02
-37.67
-30.12
-21.17
-11.63
-2.12
6.78
14.69
21.30
26.46
30.20
32.66
34.12
34.79
34.87
34.44
33.61
32.48
31.18
29.87
28.70
27.76
27.13
26.81
26.71
26.72
26.54
25.83
24.35
22.04
19.17
16.28
13.99
12.76
12.78
13.91
15.78
17.93
19.86
21.03
20.89
19.07
15.48
10.49
4.82
-0.60
-5.02
-8.10
-9.92
-10.83
-11.21
-11.27
-11.02
-10.41
-9.50
-8.44
-7.50
-6.85
-6.52
-6.42
-6.39
-6.40
-6.57
-7.13
-8.32
-10.20
-12.59
-15.08
-17.16
-18.39
-18.57
-17.77
-16.38
-15.00
-14.39
-15.26
-18.10
-22.90
-29.10
-35.52
-40.67
-43.10
-41.85
-36.70
-28.26
-17.70
-6.38
4.52
14.12
21.93
27.72
31.44
33.18
33.23
32.10
30.45
28.96
28.12
28.09
28.72
29.61
30.37
30.71
30.50
29.69
28.32
26.52
24.60
23.13
22.77
24.02
26.81
30.43
33.62
35.08
33.90
29.90
23.56
15.77
7.48
-0.49
-7.48
-12.92
-16.28
-17.17
-15.54
-11.80
-6.79
-1.63
2.61
5.15
5.68
4.36
1.68
-1.72
-5.28
-8.63
-11.60
-14.13
-16.23
-17.88
-19.11
-20.00
-20.73
-21.59
-22.82
-24.58
-26.77
-29.10
-31.15
-32.62
-33.43
-33.77
-34.11
-34.88
-36.35
-38.53
-41.00
-43.06
-43.80
-42.35
-38.05
-30.52
-19.77
-6.13
9.76
27.00
44.47
60.95
75.27
86.66
94.83
100.03
102.78
103.60
102.78
100.33
96.14
90.23
82.87
74.54
65.75
56.92
48.28
39.94
31.98
24.47
17.49
11.10
5.29
-0.03
-4.92
-9.48
-13.77
-17.80
-21.65
-25.40
-29.18
-33.08
-37.07
-40.87
-43.99
-45.83
-45.82
-43.67
-39.52
-33.80
-27.17
-20.28
-13.67
-7.69
-2.53
1.63
4.70
6.65
7.58
7.72
7.42
7.03
6.80
6.85
7.15
7.55
7.87
7.94
7.62
6.88
5.76
4.36
2.71
0.84
-1.37
-4.05
-7.28
-11.03
-15.08
-19.13
-22.89
-26.20
-29.15
-32.02
-35.22
-39.06
-43.60
-48.54
-53.19
-56.66
-58.08
-56.87
-52.83
-46.21
-37.57
-27.68
-17.35
-7.31
1.84
9.78
16.34
21.60
25.66
28.62
30.50
31.32
31.14
30.10
28.52
26.74
25.08
23.73
22.70
21.91
21.22
20.55
19.85
19.08
18.18
16.99
15.33
13.05
10.13
6.69
3.06
-0.45
-3.53
-6.09
-8.28
-10.47
-13.15
-16.71
-21.31
-26.67
-32.15
-36.89
-40.02
-40.93
-39.38
-35.51
-29.79
-22.91
-15.58
-8.47
-2.09
3.21
7.27
10.14
12.00
13.10
13.69
13.97
14.02
13.93
13.76
13.61
13.57
13.71
14.01
14.41
14.80
15.10
15.28
15.35
15.28
14.96
14.21
12.87
10.87
8.32
5.48
2.62
-0.03
-2.42
-4.67
-7.05
-9.89
-13.44
-17.83
-22.90
-28.25
-33.29
-37.34
-39.76
-40.11
-38.26
-34.39
-28.96
-22.55
-15.78
-9.19
-3.18
1.97
6.10
9.17
11.26
12.54
13.23
13.55
13.70
13.76
13.80
13.88
14.08
14.46
15.08
15.96
17.07
18.34
19.64
20.84
21.74
22.19
22.01
21.16
19.71
17.84
15.78
13.77
11.89
10.09
8.19
5.95
3.19
-0.13
-3.84
-7.52
-10.62
-12.52
-12.75
-11.04
-7.44
-2.30
3.77
10.08
15.90
20.68
24.03
25.76
25.96
24.90
22.99
20.67
18.28
15.99
13.75
11.43
8.88
6.19
3.60
1.51
0.20
-0.25
-0.09
0.19
0.11
-0.67
-2.22
-4.37
-6.81
-9.23
-11.43
-13.35
-15.11
-16.96
-19.16
-21.88
-25.12
-28.60
-31.76
-33.89
-34.22
-32.14
-27.37
-20.16
-11.16
-1.29
8.70
18.57
28.60
39.33
51.00
62.87
73.26
80.05
81.73
78.25
71.11
62.69
54.94
48.66
43.28
37.58
30.60
22.10
12.31
1.61
-9.59
-20.44
-28.83
-31.30
-23.89
-4.29
26.15
61.68
93.56
113.04
114.52
97.13
64.54
23.13
-20.14
-59.26
-89.76
-108.90
-115.93
-112.33
-101.82
-89.58
-80.71
-78.52
-83.36
-92.70
-102.19
-107.29
-104.58
-92.73
-72.87
-48.42
-24.14
-4.65
7.02
10.11
5.63
-5.05
-21.69
-45.67
-78.82
-121.43
-170.26
-218.19
-256.04
-275.94
-274.61
-254.73
-223.61
-189.65
-158.71
-132.32
-108.55
-84.86
-60.77
-38.64
-22.30
-14.40
-14.32
-17.96
-19.57
-14.28
-0.18
21.30
46.48
71.35
93.17
111.19
126.22
139.81
153.14
166.33
178.41
187.81
193.17
193.99
190.89
185.22
178.57
172.24
166.79
161.95
156.91
150.57
141.96
130.62
116.57
100.20
82.12
63.23
44.73
28.20
15.05
6.03
0.73
-2.31
-4.96
-8.81
-14.76
-23.17
-34.29
-48.67
-67.22
-90.61
-118.91
-151.27
-185.74
-219.51
-249.18
-271.37
-283.47
-284.34
-274.42
-255.28
-228.77
-196.43
-159.94
-121.66
-85.02
-53.83
-30.80
-16.12
-7.24
-0.04
9.23
22.26
38.35
55.37
71.13
84.40
95.04
103.54
110.68
117.27
124.09
131.89
141.26
152.44
165.48
180.26
196.58
213.95
231.40
247.32
259.86
267.54
269.91
268.08
264.44
262.24
264.67
274.07
291.10
314.28
340.10
363.69
380.14
385.78
379.18
361.46
335.82
306.43
277.14
250.44
227.02
206.10
186.27
166.28
145.68
124.75
104.02
83.77
63.75
43.39
22.25
0.48
-21.12
-41.54
-60.11
-76.96
-93.01
-109.80
-128.94
-152.08
-180.83
-216.53
-259.32
-307.26
-355.91
-399.21
-431.35
-449.01
-452.45
-444.89
-430.64
-413.04
-393.66
-372.72
-350.51
-328.21
-307.60
-290.18
-276.32
-265.47
-257.11
-251.35
-249.02
-250.79
-256.11
-262.95
-268.18
-268.81
-263.16
-251.65
-236.47
-220.55
-206.45
-195.49
-187.61
-181.93
-177.81
-175.55
-176.38
-181.58
-191.08
-202.55
-211.73
-213.88
-205.68
-186.36
-157.51
-122.06
-82.77
-41.49
0.81
43.44
85.17
124.13
158.15
185.52
205.57
218.62
225.68
227.87
226.14
221.22
213.81
204.77
195.10
185.70
177.26
170.06
164.02
158.89
154.54
151.01
148.49
147.17
146.98
147.51
147.98
147.44
145.02
140.04
132.23
121.72
109.02
95.05
81.05
68.46
58.61
52.39
50.00
50.93
54.24
58.83
63.81
68.49
72.35
75.00
76.10
75.41
72.93
68.85
63.51
57.25
50.31
42.85
34.98
26.88
18.77
10.94
3.70
-2.79
-8.61
-14.19
-20.26
-27.58
-36.70
-47.61
-59.67
-71.71
-82.43
-90.78
-96.29
-99.17
-100.18
-100.30
-100.33
-100.54
-100.62
-99.75
-96.90
-91.23
-82.33
-70.36
-55.88
-39.77
-23.01
-6.61
8.46
21.40
31.71
39.29
44.46
47.85
50.08
51.63
52.67
53.14
52.95
52.06
50.58
48.72
46.73
44.88
43.45
42.55
41.98
41.07
38.76
33.86
25.47
13.43
-1.48
-17.74
-33.44
-46.83
-56.68
-62.48
-64.45
-63.48
-60.85
-57.98
-55.89
-54.79
-53.94
-51.83
-46.83
-37.93
-25.15
-9.64
6.80
22.38
35.78
46.42
54.29
59.55
62.29
62.39
59.82
54.85
48.35
41.52
35.47
30.74
27.00
23.39
19.05
13.69
7.85
2.48
-1.65
-4.56
-7.12
-10.58
-15.74
-22.34
-28.99
-33.72
-34.86
-31.80
-25.25
-16.90
-8.67
-1.93
2.95
6.60
10.03
14.10
19.04
24.37
29.25
32.90
34.99
35.80
36.14
37.18
40.13
45.90
54.72
65.97
78.17
89.25
97.13
100.39
98.69
92.83
84.39
74.99
65.73
56.84
47.80
37.90
26.79
14.99
3.89
-4.55
-8.42
-6.54
1.10
13.22
27.70
42.12
54.41
63.39
68.91
71.62
72.49
72.36
71.63
70.37
68.65
66.81
65.60
65.84
67.82
70.80
72.87
71.47
64.40
50.76
31.48
9.22
-12.65
-31.19
-44.60
-52.39
-54.95
-53.32
-49.24
-45.44
-45.45
-52.79
-69.54
-94.96
-125.21
-154.34
-176.48
-187.89
-188.20
-179.89
-166.83
-152.71
-140.11
-130.72
-125.66
-125.69
-130.63
-138.79
-146.72
-149.96
-144.62
-128.76
-103.25
-71.34
-37.23
-4.51
24.60
49.46
70.33
87.71
102.03
113.55
122.36
128.36
130.97
128.90
120.46
104.52
81.71
55.17
29.87
10.77
0.50
-2.15
-1.74
-4.03
-13.28
-30.30
-52.22
-74.07
-90.71
-98.20
-94.27
-78.12
-50.54
-14.51
24.38
58.71
81.17
87.46
78.14
58.47
36.43
19.44
11.73
13.51
21.91
33.03
43.83
52.94
60.28
66.21
70.63
72.90
72.29
68.55
62.37
55.18
48.49
43.06
38.62
33.86
27.13
17.14
3.34
-14.09
-34.55
-57.30
-81.39
-105.19
-126.10
-140.59
-145.10
-137.52
-118.35
-91.01
-60.77
-32.96
-11.12
3.81
13.05
18.73
22.49
24.87
25.48
23.86
20.09
14.97
9.55
4.51
-0.18
-5.22
-11.46
-19.41
-28.89
-38.93
-47.96
-54.28
-56.51
-54.07
-47.28
-37.26
-25.43
-13.28
-1.96
7.72
15.17
20.08
22.50
23.01
22.81
23.52
26.62
32.86
42.01
52.92
64.05
74.01
81.79
86.79
88.56
86.79
81.42
72.88
62.22
51.03
40.98
33.38
28.83
27.14
27.57
29.04
30.43
30.77
29.39
26.10
21.20
15.46
9.81
5.02
1.39
-1.27
-3.49
-5.82
-8.56
-11.80
-15.51
-19.78
-24.87
-31.02
-38.20
-45.84
-52.77
-57.61
-59.17
-56.94
-51.34
-43.52
-34.89
-26.59
-19.12
-12.27
-5.51
1.52
8.71
15.33
20.42
23.22
23.53
21.95
19.59
17.75
17.44
19.09
22.38
26.44
30.22
32.88
34.05
33.85
32.69
30.99
28.99
26.65
23.89
20.67
17.04
13.05
8.76
4.19
-0.37
-4.23
-6.36
-5.77
-2.10
3.92
10.58
15.78
18.04
17.16
14.40
11.85
11.50
14.43
20.45
28.29
36.04
41.59
43.04
39.01
29.14
14.42
-2.67
-18.72
-30.23
-34.80
-31.89
-22.92
-10.75
1.29
10.33
14.55
13.34
7.15
-2.80
-14.80
-27.04
-37.88
-46.19
-51.51
-54.09
-54.65
-54.07
-52.98
-51.60
-49.64
-46.52
-41.57
-34.30
-24.55
-12.54
1.14
15.61
29.74
42.42
52.84
60.78
66.69
71.59
76.69
82.97
90.89
100.32
110.56
120.47
128.63
133.55
133.99
129.32
119.87
106.99
92.79
79.63
69.43
63.20
60.78
61.04
62.31
62.95
61.71
58.03
51.99
44.21
35.75
28.01
22.59
20.91
23.57
29.67
36.43
39.61
34.88
19.52
-6.10
-38.28
-71.02
-98.07
-115.03
-120.59
-116.42
-105.98
-92.94
-79.94
-68.30
-58.38
-50.18
-43.79
-39.35
-36.72
-35.25
-33.81
-31.28
-27.09
-21.54
-15.71
-11.02
-8.51
-8.43
-10.20
-12.67
-14.64
-15.28
-14.52
-12.97
-11.73
-11.93
-14.16
-18.08
-22.36
-25.07
-24.36
-19.31
-10.26
1.22
12.99
23.21
30.85
35.85
38.87
40.78
42.37
44.18
46.54
49.48
52.56
54.67
54.13
49.20
38.83
23.40
4.82
-13.86
-29.52
-40.02
-44.85
-45.03
-42.53
-39.40
-37.11
-36.21
-36.50
-37.43
-38.40
-39.12
-39.61
-40.17
-41.22
-43.12
-46.02
-49.77
-53.87
-57.61
-60.13
-60.71
-58.88
-54.47
-47.55
-38.34
-27.17
-14.50
-1.05
12.23
24.22
33.93
40.76
44.73
46.38
46.50
45.78
44.48
42.36
38.83
33.30
25.54
15.92
5.50
-4.30
-12.09
-17.05
-19.26
-19.79
-20.37
-22.80
-28.36
-37.22
-48.29
-59.34
-67.53
-70.16
-65.54
-53.61
-36.12
-16.21
2.54
17.25
26.56
30.77
31.30
29.91
27.94
26.14
24.86
24.41
25.18
27.46
31.03
34.98
37.89
38.45
36.02
30.94
24.37
17.74
12.21
8.26
5.76
4.17
2.92
1.62
0.14
-1.53
-3.32
-5.21
-7.16
-9.10
-10.88
-12.33
-13.35
-13.99
-14.48
-15.22
-16.66
-19.17
-22.98
-28.05
-34.00
-40.06
-45.14
-48.11
-48.07
-44.73
-38.55
-30.66
-22.46
-15.22
-9.75
-6.34
-4.94
-5.34
-7.36
-10.74
-15.14
-20.02
-24.66
-28.43
-30.88
-31.99
-32.08
-31.73
-31.48
-31.71
-32.52
-33.66
-34.73
-35.24
-34.79
-33.21
-30.68
-27.68
-24.83
-22.76
-21.80
-21.98
-22.94
-24.24
-25.63
-27.16
-29.14
-31.88
-35.35
-38.93
-41.58
-42.04
-39.40
-33.41
-24.59
-14.01
-2.88
7.74
17.27
25.46
32.28
37.71
41.73
44.36
45.74
46.15
45.88
45.08
43.67
41.49
38.52
35.08
31.82
29.43
28.42
28.73
29.85
30.95
31.28
30.33
27.96
24.31
19.72
14.63
9.57
5.05
1.40
-1.40
-3.77
-6.36
-9.84
-14.48
-20.12
-26.11
-31.58
-35.64
-37.67
-37.33
-34.67
-30.07
-24.19
-17.88
-11.99
-7.11
-3.46
-0.90
0.93
2.33
3.40
4.00
3.89
2.98
1.45
-0.28
-1.73
-2.58
-2.80
-2.62
-2.36
-2.33
-2.62
-3.22
-4.10
-5.22
-6.61
-8.33
-10.38
-12.71
-15.22
-17.82
-20.45
-23.01
-25.32
-27.05
-27.76
-26.98
-24.36
-19.88
-13.82
-6.78
0.51
7.35
13.19
17.70
20.79
22.55
23.19
23.01
22.27
21.20
19.92
18.47
16.83
15.04
13.17
11.38
9.81
8.54
7.51
6.59
5.57
4.30
2.70
0.82
-1.27
-3.51
-5.89
-8.46
-11.27
-14.41
-17.96
-21.96
-26.34
-30.88
-35.13
-38.41
-40.04
-39.49
-36.55
-31.48
-24.92
-17.69
-10.61
-4.28
0.91
4.85
7.63
9.48
10.67
11.46
12.02
12.33
12.30
11.75
10.63
9.06
7.36
5.93
5.10
4.99
5.46
6.19
6.80
6.97
6.54
5.49
3.91
2.01
-0.03
-2.11
-4.21
-6.49
-9.20
-12.48
-16.23
-19.98
-23.02
-24.61
-24.22
-21.72
-17.37
-11.70
-5.30
1.21
7.30
12.51
16.52
19.15
20.48
20.75
20.24
19.22
17.84
16.24
14.58
13.08
11.93
11.21
10.76
10.27
9.40
7.99
6.11
3.99
1.87
-0.16
-2.16
-4.34
-6.86
-9.86
-13.37
-17.43
-22.02
-27.06
-32.22
-36.88
-40.23
-41.42
-39.85
-35.45
-28.66
-20.39
-11.70
-3.46
3.75
9.78
14.68
18.58
21.57
23.62
24.72
24.93
24.47
23.64
22.73
21.92
21.22
20.53
19.73
18.74
17.58
16.33
15.06
13.75
12.35
10.74
8.86
6.69
4.28
1.66
-1.20
-4.48
-8.43
-13.26
-18.97
-25.17
-31.11
-35.71
-37.89
-36.87
-32.39
-24.90
-15.35
-4.96
5.15
14.18
21.80
28.01
33.01
36.93
39.83
41.68
42.49
42.43
41.78
40.87
40.00
39.40
39.26
39.71
40.86
42.66
44.85
46.93
48.32
48.50
47.16
44.28
40.05
34.85
29.08
23.02
16.86
10.57
3.96
-3.28
-11.41
-20.49
-30.27
-40.13
-49.15
-56.36
-60.84
-62.10
-60.17
-55.58
-49.27
-42.31
-35.67
-30.03
-25.71
-22.64
-20.53
-18.96
-17.51
-15.94
-14.19
-12.44
-10.90
-9.76
-9.03
-8.55
-8.02
-7.24
-6.14
-4.83
-3.53
-2.50
-2.00
-2.20
-3.21
-4.98
-7.32
-9.96
-12.58
-14.96
-17.08
-19.13
-21.45
-24.40
-28.12
-32.48
-37.00
-40.92
-43.37
-43.56
-41.00
-35.63
-27.86
-18.40
-8.16
2.00
11.34
19.33
25.59
29.97
32.54
33.57
33.53
32.92
32.18
31.60
31.23
30.97
30.64
30.14
29.45
28.62
27.75
26.90
26.01
24.94
23.50
21.49
18.84
15.62
12.01
8.20
4.30
0.28
-3.90
-8.31
-12.98
-17.93
-23.12
-28.44
-33.58
-37.99
-40.87
-41.41
-39.05
-33.71
-25.87
-16.42
-6.44
3.15
11.70
18.86
24.47
28.50
30.98
32.08
32.04
31.22
30.00
28.67
27.37
26.12
24.88
23.65
22.53
21.64
21.07
20.79
20.61
20.25
19.41
17.87
15.52
12.41
8.71
4.73
0.81
-2.71
-5.69
-8.28
-10.89
-14.12
-18.43
-23.90
-30.07
-36.00
-40.49
-42.51
-41.49
-37.42
-30.88
-22.74
-13.91
-5.10
3.12
10.38
16.35
20.81
23.68
25.12
25.48
25.22
24.80
24.50
24.36
24.24
23.95
23.36
22.47
21.43
20.47
19.76
19.38
19.22
19.03
18.53
17.42
15.53
12.86
9.52
5.77
1.83
-2.08
-5.86
-9.54
-13.30
-17.41
-22.11
-27.49
-33.27
-38.84
-43.27
-45.59
-45.06
-41.37
-34.75
-25.84
-15.62
-5.06
5.01
13.97
21.47
27.31
31.43
33.88
34.81
34.53
33.47
32.13
30.87
29.84
28.98
28.09
26.97
25.58
24.03
22.52
21.19
20.05
18.95
17.66
15.95
13.66
10.79
7.50
4.03
0.63
-2.56
-5.59
-8.67
-12.06
-16.03
-20.63
-25.78
-31.18
-36.38
-40.75
-43.57
-44.11
-41.86
-36.74
-29.12
-19.86
-10.02
-0.59
7.67
14.38
19.45
22.98
25.19
26.32
26.58
26.22
25.46
24.51
23.56
22.71
22.02
21.49
21.07
20.68
20.30
19.95
19.65
19.39
19.06
18.46
17.32
15.44
12.80
9.59
6.17
2.88
-0.08
-2.73
-5.27
-8.02
-11.22
-15.07
-19.60
-24.73
-30.19
-35.39
-39.48
-41.46
-40.51
-36.36
-29.48
-20.91
-11.95
-3.72
3.19
8.70
13.02
16.34
18.71
20.07
20.40
19.94
19.06
18.22
17.70
17.54
17.56
17.48
17.11
16.40
15.49
14.58
13.86
13.35
12.94
12.34
11.23
9.41
6.85
3.77
0.51
-2.64
-5.54
-8.30
-11.14
-14.35
-18.14
-22.58
-27.50
-32.54
-37.09
-40.45
-41.87
-40.78
-36.97
-30.62
-22.38
-13.13
-3.86
4.61
11.72
17.22
21.11
23.53
24.66
24.66
23.74
22.19
20.35
18.57
17.09
15.99
15.23
14.70
14.31
14.05
13.90
13.78
13.52
12.90
11.71
9.87
7.45
4.57
1.44
-1.81
-5.09
-8.32
-11.48
-14.60
-17.83
-21.37
-25.43
-30.02
-34.88
-39.36
-42.60
-43.71
-42.09
-37.61
-30.69
-22.12
-12.88
-3.87
4.22
11.00
16.28
20.07
22.45
23.55
23.59
22.80
21.47
19.86
18.20
16.64
15.22
13.95
12.80
11.77
10.86
10.09
9.42
8.83
8.26
7.62
6.79
5.60
3.87
1.49
-1.51
-4.94
-8.56
-12.19
-15.88
-19.88
-24.43
-29.55
-34.78
-39.25
-41.88
-41.77
-38.50
-32.31
-23.97
-14.58
-5.23
3.26
10.42
16.10
20.34
23.25
24.93
25.50
25.11
23.98
22.34
20.47
18.57
16.81
15.35
14.27
13.57
13.13
12.70
11.98
10.74
8.89
6.53
3.84
0.98
-1.97
-4.98
-8.07
-11.23
-14.51
-18.00
-21.83
-26.06
-30.58
-34.91
-38.28
