1555524167.00
64.000000
-0.00
-0.00
-0.00
-0.00
-0.00
-0.00
-0.00
-0.00
-0.00
-0.00
0.00
0.01
0.01
-0.00
-0.03
-0.05
-0.05
0.00
0.13
0.36
0.66
1.01
1.37
1.72
2.06
2.40
2.79
3.24
3.80
4.42
5.06
5.66
6.20
6.68
7.15
7.68
8.31
9.14
10.09
11.04
11.88
12.56
13.14
13.76
14.65
15.96
17.91
20.32
22.90
25.38
27.58
29.57
31.68
34.32
37.81
42.54
48.15
54.10
59.83
64.97
69.58
74.14
79.34
85.71
93.76
103.00
112.62
121.73
129.77
136.75
143.30
150.75
157.77
166.64
177.95
191.79
206.97
220.57
228.25
225.36
208.53
176.87
132.76
80.05
23.07
-34.94
-92.44
-149.16
-205.23
-260.37
-313.74
-363.87
-409.83
-450.91
-486.50
-515.74
-537.23
-549.22
-549.96
-538.37
-514.21
-478.67
-433.88
-382.45
-327.02
-269.84
-212.63
-156.66
-102.95
-52.37
-5.90
35.58
71.43
101.35
125.50
144.38
158.69
169.15
176.37
180.75
182.57
182.07
179.51
175.23
169.65
163.18
156.15
148.81
141.30
133.69
126.02
118.33
110.69
103.16
95.80
88.68
81.83
75.25
68.95
62.95
57.25
51.86
46.78
42.03
37.59
33.45
29.61
26.07
22.81
19.83
17.11
14.67
12.48
10.54
8.83
7.35
6.07
4.97
4.05
3.27
2.62
2.09
1.65
1.30
1.01
0.79
0.61
0.47
0.37
0.29
0.23
0.18
0.15
0.14
0.13
0.13
0.14
0.15
0.17
0.19
0.21
0.24
0.26
0.28
0.30
0.33
0.35
0.37
0.40
0.43
0.47
0.52
0.57
0.63
0.70
0.78
0.87
0.96
1.07
1.19
1.32
1.47
1.63
1.80
2.00
2.20
2.43
2.68
2.95
3.24
3.55
3.89
4.25
4.64
5.06
5.51
5.99
6.52
7.09
7.70
8.35
9.05
9.79
10.59
11.46
12.39
13.38
14.41
15.47
16.55
17.59
18.56
19.32
19.79
19.79
19.24
18.06
16.28
14.00
11.42
8.77
6.21
3.96
2.16
0.91
0.25
0.26
0.97
2.32
4.19
6.30
8.30
9.81
10.52
10.18
8.90
6.97
4.80
2.78
1.08
-0.37
-1.84
-3.62
-5.96
-8.69
-11.28
-13.08
-13.65
-12.97
-11.57
-10.31
-9.99
-11.10
-13.31
-15.58
-16.69
-15.83
-13.16
-9.89
-7.89
-8.96
-14.20
-23.33
-34.77
-46.52
-56.88
-65.32
-72.61
-80.34
-87.26
-95.43
-106.42
-120.13
-134.36
-144.66
-145.10
-130.25
-97.64
-52.10
0.63
51.35
91.21
115.20
123.88
122.29
116.92
112.60
110.79
110.21
108.36
103.82
96.82
88.68
80.51
72.72
65.27
58.18
52.22
48.45
47.64
49.53
52.60
54.43
52.62
45.27
31.69
12.34
-12.13
-40.56
-70.81
-99.12
-120.43
-130.01
-125.48
-108.32
-83.51
-57.62
-35.84
-20.07
-8.68
1.75
14.11
29.24
45.80
61.53
74.46
83.85
90.04
93.78
95.69
96.34
96.56
97.62
101.19
108.76
120.82
136.31
152.57
165.84
172.32
169.30
156.04
133.88
105.70
74.99
44.73
16.63
-9.25
-34.42
-61.66
-94.14
-134.08
-181.30
-232.06
-279.37
-314.72
-331.11
-325.98
-302.70
-269.82
-238.33
-217.97
-214.13
-226.56
-250.01
-276.38
-297.11
-305.49
-297.59
-272.48
-231.98
-180.02
-122.17
-64.79
-14.30
24.07
47.75
58.00
59.76
60.24
66.18
81.10
103.85
129.17
150.08
160.99
159.93
149.08
133.42
118.48
108.23
104.16
105.43
110.02
115.82
121.18
124.97
126.34
124.73
119.86
111.96
101.91
90.95
80.30
70.65
61.96
53.65
45.02
35.67
25.89
16.54
8.74
3.34
0.57
-0.10
0.27
0.51
-0.26
-2.24
-4.94
-7.39
-8.61
-8.14
-6.26
-4.00
-2.76
-3.77
-7.44
-13.02
-18.67
-22.11
-21.49
-16.23
-7.33
2.95
11.94
17.46
18.47
15.24
9.08
1.80
-4.69
-8.78
-9.38
-6.12
0.53
9.24
18.08
25.08
28.78
28.70
25.37
20.11
14.51
9.99
7.44
7.10
8.56
10.87
12.86
13.35
11.52
7.20
0.98
-5.84
-11.53
-14.43
-13.44
-8.38
-0.10
9.71
18.96
25.76
29.01
28.75
26.11
23.03
21.57
23.28
28.69
37.11
46.87
55.92
62.41
65.32
64.58
60.85
54.99
47.67
39.25
30.02
20.71
12.59
7.18
5.61
7.96
13.19
19.46
24.57
26.23
22.06
9.90
-11.33
-40.31
-72.46
-100.31
-115.64
-112.52
-89.75
-51.66
-6.69
35.43
66.42
81.20
77.97
57.50
22.19
-24.54
-78.46
-134.52
-187.09
-230.31
-258.98
-269.69
-261.96
-238.80
-206.34
-172.13
-142.95
-122.72
-111.62
-106.72
-103.73
-98.99
-90.74
-79.34
-66.31
-53.11
-40.13
-26.64
-11.36
6.49
26.51
47.05
65.87
81.08
91.95
98.95
103.32
106.21
108.15
108.93
107.92
104.65
99.13
91.99
84.19
76.65
69.96
64.26
59.26
54.45
49.38
43.83
37.93
32.09
26.80
22.39
18.89
15.94
12.99
9.58
5.62
1.54
-1.86
-3.68
-3.37
-0.96
2.95
7.43
11.53
14.68
16.79
18.16
19.28
20.59
22.40
24.69
27.29
29.83
31.88
33.06
33.06
31.83
29.56
26.76
24.16
22.58
22.65
24.54
27.90
31.82
35.17
36.81
36.01
32.63
27.30
21.23
15.85
12.31
10.86
10.73
10.37
8.16
3.14
-4.57
-13.90
-23.36
-31.57
-37.53
-40.55
-40.14
-35.93
-28.05
-17.34
-5.43
5.67
14.33
19.79
22.27
22.63
21.71
19.91
17.19
13.27
8.03
1.77
-4.96
-11.49
-17.31
-22.17
-26.00
-28.83
-30.63
-31.37
-31.01
-29.63
-27.51
-25.06
-22.77
-21.01
-20.00
-19.74
-19.98
-20.37
-20.52
-20.04
-18.51
-15.42
-10.35
-3.14
5.67
14.74
22.16
26.12
25.79
21.87
16.40
11.93
10.32
11.93
15.44
18.60
19.21
16.11
9.56
0.98
-7.60
-14.28
-17.82
-17.88
-14.98
-10.18
-4.72
0.44
4.72
7.95
10.18
11.47
11.92
11.77
11.46
11.60
12.66
14.74
17.38
19.71
20.80
20.06
17.47
13.50
8.93
4.47
0.55
-2.66
-5.23
-7.17
-8.31
-8.32
-6.78
-3.47
1.49
7.55
13.85
19.47
23.68
26.09
26.64
25.52
23.03
19.51
15.34
10.93
6.64
2.77
-0.49
-2.94
-4.29
-4.12
-2.01
2.19
8.08
14.58
20.08
22.82
21.46
15.52
5.57
-6.77
-19.17
-29.17
-34.78
-35.02
-30.21
-21.87
-12.24
-3.68
2.06
4.15
2.80
-0.97
-5.71
-9.90
-12.37
-12.49
-10.32
-6.53
-2.17
1.68
4.24
5.18
4.69
3.16
1.11
-1.10
-3.31
-5.45
-7.52
-9.38
-10.85
-11.67
-11.66
-10.74
-8.97
-6.52
-3.65
-0.70
2.01
4.15
5.51
6.03
5.86
5.27
4.59
4.04
3.68
3.42
3.09
2.52
1.61
0.40
-0.95
-2.14
-2.87
-2.96
-2.39
-1.29
0.12
1.68
3.28
4.79
6.08
6.92
7.12
6.64
5.56
4.12
2.52
0.86
-0.85
-2.57
-4.10
-5.08
-5.17
-4.32
-2.85
-1.33
-0.38
-0.30
-1.05
-2.33
-3.86
-5.45
-7.16
-9.07
-11.19
-13.39
-15.47
-17.27
-18.67
-19.54
-19.68
-18.75
-16.45
-12.70
-7.86
-2.60
2.25
6.02
8.42
9.53
9.57
8.77
7.24
5.02
2.29
-0.61
-3.12
-4.73
-5.05
-4.03
-1.88
1.02
4.28
7.50
10.30
12.37
13.50
13.69
13.18
12.36
11.64
11.17
10.89
10.51
9.76
8.49
6.79
4.85
2.87
0.97
-0.81
-2.48
-4.00
-5.26
-6.15
-6.63
-6.67
-6.38
-5.94
-5.58
-5.53
-5.99
-7.03
-8.60
-10.53
-12.62
-14.69
-16.59
-18.18
-19.22
-19.47
-18.68
-16.70
-13.64
-9.82
-5.77
-2.02
0.98
2.99
3.98
4.06
3.42
2.25
0.79
-0.79
-2.32
-3.62
-4.54
-4.94
-4.75
-4.01
-2.92
-1.80
-0.95
-0.54
-0.52
-0.67
-0.76
-0.61
-0.26
0.19
0.60
0.93
1.21
1.51
1.84
2.14
2.35
2.45
2.50
2.62
2.88
3.26
3.71
4.10
4.34
4.25
3.56
1.99
-0.74
-4.71
-9.76
-15.42
-21.07
-26.02
-29.68
-31.61
-31.52
-29.35
-25.31
-19.86
-13.67
-7.51
-2.05
2.34
5.60
7.91
9.56
10.75
11.60
12.17
12.45
12.44
12.07
11.31
10.15
8.76
7.45
6.63
6.56
7.24
8.35
9.38
9.91
9.79
9.18
8.40
7.78
7.50
7.55
7.78
8.00
8.01
7.61
6.68
5.18
3.22
1.03
-1.20
-3.35
-5.45
-7.64
-9.96
-12.27
-14.24
-15.53
-15.92
-15.50
-14.66
-13.99
-14.15
-15.57
-18.40
-22.37
-26.81
-30.86
-33.68
-34.73
-33.85
-31.32
-27.65
-23.38
-18.94
-14.59
-10.51
-6.93
-4.24
-2.91
-3.46
-6.17
-11.05
-17.78
-25.71
-33.86
-41.06
-45.91
-47.08
-43.72
-35.87
-24.75
-12.50
-1.44
6.91
12.44
16.28
20.04
24.66
29.80
34.09
36.04
35.06
31.97
28.56
26.64
27.13
29.65
33.00
35.86
37.43
37.59
36.64
34.91
32.55
29.65
26.29
22.64
19.03
15.74
12.98
10.87
9.51
8.92
8.97
9.40
9.88
10.19
10.41
10.93
12.29
14.90
18.65
22.90
26.50
28.24
27.23
23.23
16.72
8.68
0.28
-7.60
-14.44
-20.09
-24.56
-27.73
-29.40
-29.34
-27.51
-24.14
-19.75
-14.93
-10.21
-5.95
-2.28
0.79
3.28
5.14
6.29
6.55
5.87
4.31
2.17
-0.07
-1.91
-2.94
-3.04
-2.41
-1.59
-1.22
-1.95
-4.14
-7.73
-12.29
-17.05
-21.21
-24.09
-25.25
-24.54
-22.06
-18.10
-13.12
-7.75
-2.69
1.42
4.23
5.78
6.45
6.75
7.10
7.64
8.18
8.43
8.18
7.46
6.49
5.60
4.99
4.64
4.42
4.12
3.62
2.92
2.03
0.99
-0.16
-1.37
-2.48
-3.31
-3.69
-3.65
-3.44
-3.53
-4.39
-6.28
-9.16
-12.60
-16.00
-18.78
-20.66
-21.99
-23.68
-26.98
-32.82
-41.17
-50.78
-59.44
-64.71
-64.77
-59.09
-48.37
-34.41
-19.62
-6.58
2.48
6.36
5.88
4.27
6.63
18.14
41.58
75.64
114.85
151.45
178.39
191.70
191.33
180.30
162.77
142.30
121.01
99.65
77.96
55.03
29.51
0.14
-33.28
-69.00
-103.11
-130.41
-146.34
-148.95
-139.86
-123.79
-106.62
-93.16
-85.69
-83.77
-85.27
-87.82
-89.83
-90.75
-90.83
-90.49
-90.02
-89.42
-88.27
-85.66
-80.13
-69.74
-52.55
-27.38
5.40
43.57
83.39
120.49
151.06
172.57
184.20
186.61
181.37
170.52
156.29
140.83
126.11
113.59
103.87
96.65
90.76
84.60
76.68
65.93
51.79
34.21
13.52
-9.39
-32.99
-55.17
-73.65
-86.52
-92.86
-92.93
-88.03
-80.09
-71.21
-63.29
-57.83
-55.71
-57.10
-61.34
-67.11
-72.73
-76.56
-77.38
-74.55
-68.10
-58.71
-47.61
-36.43
-26.74
-19.49
-14.63
-11.05
-7.08
-1.35
6.43
15.22
23.07
27.92
28.56
25.11
18.89
11.72
5.14
-0.14
-4.37
-8.25
-12.50
-17.34
-22.45
-27.13
-30.67
-32.67
-33.09
-32.21
-30.37
-27.86
-24.80
-21.22
-17.27
-13.28
-9.82
-7.54
-6.95
-8.28
-11.45
-16.16
-22.04
-28.61
-34.99
-39.76
-41.09
-37.28
-27.52
-12.45
5.76
23.92
38.67
47.35
48.56
42.27
29.74
13.20
-4.56
-20.56
-32.05
-37.00
-34.54
-25.06
-10.20
7.60
25.52
40.95
51.99
57.86
59.12
57.40
55.02
54.18
56.39
62.03
70.33
79.69
88.13
93.94
96.09
94.41
89.40
81.96
72.98
63.25
53.49
44.57
37.60
33.75
33.76
37.43
43.49
49.92
54.73
56.63
55.22
50.80
43.78
34.50
23.20
10.34
-3.18
-16.14
-27.35
-36.08
-42.17
-45.86
-47.55
-47.57
-46.24
-43.93
-41.10
-38.21
-35.57
-33.25
-31.17
-29.20
-27.27
-25.42
-23.66
-22.02
-20.45
-18.92
-17.40
-15.89
-14.39
-12.90
-11.43
-9.92
-8.33
-6.55
-4.63
-2.85
-1.88
-2.68
-6.09
-12.51
-21.56
-32.01
-42.22
-50.64
-56.28
-58.93
-59.09
-57.52
-54.93
-51.77
-48.18
-44.08
-39.43
-34.28
-28.88
-23.61
-18.86
-14.82
-11.47
-8.54
-5.71
-2.79
0.12
2.75
4.72
5.84
6.24
6.29
6.44
7.05
8.24
9.92
11.88
13.89
15.72
17.16
18.00
18.08
17.40
16.12
14.64
13.41
12.87
13.22
14.33
15.79
16.97
17.26
16.32
14.20
11.35
8.44
6.07
4.50
3.56
2.79
1.65
-0.13
-2.45
-4.90
-7.00
-8.43
-9.25
-9.76
-10.38
-11.44
-13.10
-15.33
-17.95
-20.63
-22.91
-24.18
-23.86
-21.60
-17.52
-12.23
-6.68
-1.81
1.80
4.06
5.28
5.97
6.56
7.31
8.30
9.62
11.30
13.35
15.69
18.03
20.03
21.42
22.10
22.25
22.24
22.44
23.05
24.05
25.15
25.97
26.13
25.44
23.93
21.84
19.54
17.37
15.60
14.38
13.64
13.24
12.97
12.62
11.96
10.84
9.11
6.72
3.76
0.45
-2.89
-6.01
-8.79
-11.38
-14.13
-17.48
-21.81
-27.25
-33.53
-40.03
-45.81
-49.85
-51.29
-49.72
-45.28
-38.67
-30.94
-23.27
-16.57
-11.41
-7.90
-5.77
-4.56
-3.76
-2.99
-2.17
-1.47
-1.21
-1.72
-3.05
-4.94
-6.84
-8.09
-8.13
-6.77
-4.20
-1.02
1.92
3.77
3.93
2.33
-0.56
-3.74
-6.13
-6.83
-5.48
-2.42
1.59
5.55
8.57
10.18
10.36
9.50
8.22
7.08
6.47
6.47
6.88
7.33
7.47
7.22
6.84
6.93
8.07
10.61
14.37
18.59
22.16
24.06
23.94
22.45
21.09
21.58
25.14
31.98
40.97
50.38
58.65
65.50
71.99
79.59
88.89
98.88
107.69
113.55
115.80
114.98
112.00
106.90
98.46
85.34
67.77
48.85
32.72
21.66
13.72
3.27
-15.57
-44.51
-78.48
-106.98
-118.48
-106.66
-73.71
-29.22
14.84
49.34
70.74
80.91
79.68
68.77
52.97
38.13
27.73
22.05
19.86
19.65
20.15
20.34
19.50
15.87
7.46
-7.47
-29.64
-58.57
-93.30
-133.35
-172.13
-206.12
-234.21
-255.95
-269.46
-270.68
-255.13
-221.24
-172.43
-116.80
-65.00
-25.49
-1.63
8.40
9.61
7.25
4.43
1.96
-0.52
-3.86
-7.87
-11.43
-13.51
-13.78
-12.74
-11.54
-11.21
-11.95
-13.59
-14.97
-14.22
-9.68
-0.72
12.92
30.26
49.67
69.51
88.16
105.04
120.71
135.88
150.95
165.71
179.60
192.41
204.46
215.02
222.68
225.05
218.61
200.52
170.31
130.86
87.97
48.32
15.62
-8.94
-26.00
-37.92
-47.25
-56.16
-66.91
-82.14
-105.22
-141.55
-194.45
-259.14
-327.34
-388.35
-432.07
-452.54
-449.72
-417.77
-362.52
-297.06
-235.74
-187.84
-155.05
-134.37
-122.40
-117.11
-117.46
-124.07
-135.12
-146.91
-155.64
-159.60
-157.90
-151.87
-143.42
-134.18
-126.23
-119.24
-111.52
-101.40
-88.05
-71.81
-53.79
-34.55
-12.95
8.02
28.43
49.47
72.14
96.47
121.44
145.33
166.84
185.78
202.63
219.44
238.20
259.84
283.83
308.76
332.82
354.97
375.28
394.61
414.94
438.39
466.88
501.81
543.29
589.02
633.66
669.17
686.77
680.31
648.02
593.17
522.66
444.51
365.43
289.59
218.86
153.78
94.93
42.28
-5.46
-50.92
-97.04
-145.58
-196.26
-247.13
-295.90
-340.00
-378.69
-413.44
-447.42
-483.61
-523.58
-566.70
-609.69
-646.46
-667.32
-662.97
-628.86
-568.07
-490.34
-408.01
-330.78
-262.14
-198.82
-131.31
-50.91
44.87
150.32
254.43
345.54
415.63
461.71
472.13
442.51
380.59
304.88
234.08
178.38
138.55
111.51
94.35
84.82
82.96
87.91
96.53
103.97
106.26
101.67
92.09
79.90
66.75
54.13
42.39
30.69
17.43
1.72
-16.65
-35.98
-54.85
-72.81
-90.54
-109.58
-132.55
-163.38
-199.64
-241.13
-287.26
-326.23
-348.05
-348.77
-331.02
-301.47
-266.56
-230.13
-194.43
-159.33
-133.73
-115.17
-100.91
-88.36
-75.14
-59.02
-38.56
-14.32
22.51
71.13
127.40
184.34
236.13
279.57
314.40
341.99
363.03
378.64
387.91
391.70
390.63
386.87
381.05
374.08
366.86
358.01
346.77
331.41
313.11
293.75
275.43
259.47
246.22
234.52
217.36
194.38
163.97
127.64
88.21
48.32
9.29
-28.51
-65.45
-108.53
-162.79
-230.08
-306.12
-383.57
-455.44
-517.46
-568.23
-608.73
-649.65
-699.99
-764.07
-838.83
-917.18
-992.31
-1060.87
-1122.71
-1128.67
-1052.09
-895.46
-691.29
-481.17
-294.97
-144.89
-30.34
56.41
126.41
182.69
227.70
263.84
293.79
319.26
340.66
358.13
373.18
387.90
396.18
389.77
362.29
313.49
249.10
181.87
125.47
90.15
79.52
86.04
97.92
105.27
104.41
97.58
90.07
85.93
86.02
87.88
85.03
70.65
40.93
-3.69
-58.37
-115.14
-164.95
-199.30
-211.59
-195.46
-150.28
-80.61
4.59
93.52
174.03
235.94
273.12
285.48
277.62
255.67
224.67
186.76
141.56
88.75
30.44
-27.69
-76.35
-107.02
-116.08
-106.59
-86.72
-66.10
-51.60
-45.37
-45.25
-44.86
-37.04
-16.11
20.93
75.22
146.85
235.60
340.20
443.85
524.22
559.31
538.42
467.64
366.41
257.19
157.86
77.81
17.47
-27.08
-60.89
-86.41
-103.11
-107.19
-95.60
-68.37
-30.39
9.27
41.90
61.73
71.75
73.75
70.94
64.86
54.87
38.93
15.25
-15.15
-48.83
-81.03
-110.82
-135.36
-155.14
-172.79
-191.11
-211.27
-231.87
-250.17
-263.12
-269.28
-268.20
-261.59
-251.94
-241.01
-229.97
-216.90
-199.56
-176.19
-146.59
-111.48
-73.39
-35.65
-1.12
28.62
52.72
70.68
82.37
87.74
87.43
82.15
72.78
61.08
49.82
41.77
39.37
44.78
60.06
87.70
130.63
185.88
243.14
292.51
325.63
338.58
332.78
313.42
286.83
258.19
230.54
205.76
185.64
171.27
162.35
156.27
148.13
132.30
104.93
65.97
20.08
-24.60
-60.44
-83.20
-93.22
-94.18
-90.71
-86.10
-82.18
-79.55
-79.26
-82.94
-92.44
-109.14
-132.72
-160.53
-187.55
-205.49
-208.60
-194.53
-165.89
-129.72
-94.88
-68.48
-53.18
-46.92
-45.02
-43.49
-40.57
-37.06
-34.80
-34.88
-36.59
-37.91
-36.94
-33.08
-27.52
-22.29
-19.37
-19.58
-22.37
-26.20
-29.31
-30.54
-29.75
-27.98
-26.66
-26.93
-29.20
-33.04
-37.49
-41.50
-44.38
-45.97
-46.68
-47.05
-47.37
-47.55
-47.09
-45.29
-41.54
-35.68
-27.57
-17.60
-6.51
4.89
15.78
25.48
33.39
39.09
42.39
43.18
41.45
37.32
31.05
22.96
13.46
3.01
-7.87
-18.36
-27.78
-35.61
-41.47
-45.27
-47.23
-47.75
-47.12
-45.32
-41.66
-35.35
-25.66
-12.22
4.69
24.06
44.39
64.11
80.52
93.51
103.71
111.93
118.83
124.41
128.06
128.88
126.42
120.86
113.48
105.78
98.96
93.80
90.69
89.94
91.63
94.85
96.97
93.92
81.19
56.18
20.27
-21.00
-59.85
-89.38
-106.28
-111.67
-109.66
-104.84
-100.19
-96.36
-92.59
-88.29
-84.23
-82.36
-84.14
-89.05
-93.82
-93.36
-82.71
-59.82
-26.79
10.66
45.34
71.46
86.53
91.81
90.74
87.24
84.12
82.63
82.98
85.20
89.53
95.89
103.03
107.95
106.57
95.30
72.82
41.61
7.45
-23.03
-44.93
-57.22
-62.80
-66.66
-73.15
-83.79
-96.32
-106.02
-108.00
-99.27
-81.15
-57.98
-35.40
-17.95
-7.64
-3.43
-2.77
-3.42
-4.38
-5.92
-8.40
-11.31
-13.16
-12.37
-8.37
-2.19
3.96
7.94
8.65
6.74
4.41
4.58
9.86
21.68
39.34
59.64
77.34
86.81
84.29
69.54
47.28
24.68
8.52
2.21
4.73
11.74
18.25
21.15
20.21
17.04
13.27
9.56
5.12
-1.35
-10.45
-21.37
-32.32
-41.21
-46.62
-48.69
-48.72
-48.82
-50.99
-56.23
-64.09
-73.32
-82.29
-88.93
-93.81
-97.87
-102.46
-108.45
-115.78
-123.34
-130.46
-137.27
-144.60
-153.00
-161.02
-164.76
-159.12
-141.24
-109.86
-68.96
-25.55
13.68
45.06
68.57
85.67
96.81
99.87
93.66
79.26
62.02
49.89
49.43
62.00
82.70
103.20
116.26
119.23
114.19
105.90
98.36
92.89
88.74
83.88
77.69
71.08
65.83
62.76
61.88
61.35
59.04
53.70
45.53
36.18
27.88
22.52
20.54
20.99
22.05
22.10
20.49
18.01
16.42
17.33
21.87
30.11
40.88
53.64
66.45
75.87
77.57
68.15
47.20
18.57
-10.89
-34.10
-47.06
-50.56
-48.97
-47.24
-47.91
-50.30
-51.67
-49.87
-44.94
-38.94
-34.48
-32.81
-33.14
-33.38
-31.76
-27.58
-21.81
-16.22
-12.27
-10.69
-10.82
-11.27
-10.60
-8.09
-4.08
0.11
2.80
2.90
0.16
-4.64
-10.21
-15.44
-19.94
-24.10
-28.76
-34.66
-41.56
-48.32
-53.16
-54.65
-52.05
-45.88
-37.67
-29.40
-23.14
-20.47
-22.63
-29.98
-41.42
-53.83
-62.59
-63.02
-52.09
-31.68
-6.94
15.35
29.80
34.53
31.53
25.02
19.05
15.74
14.89
15.33
16.09
17.31
19.77
24.28
30.88
38.73
46.68
53.35
58.41
62.37
66.25
70.63
74.65
76.36
73.29
64.15
49.14
30.70
11.85
-4.47
-16.52
-23.77
-26.31
-24.53
-18.95
-10.74
-1.90
4.63
5.92
-0.26
-14.58
-35.77
-61.20
-87.51
-111.22
-129.10
-138.79
-139.07
-130.52
-115.46
-96.93
-77.67
-59.03
-40.59
-21.13
0.10
22.32
42.86
58.04
65.54
65.30
59.61
51.75
44.31
35.71
25.06
11.61
-4.29
-20.57
-34.07
-41.76
-42.15
-35.97
-25.72
-14.22
-3.90
4.14
10.16
15.21
20.17
25.24
29.82
33.04
34.61
34.74
34.14
33.70
33.94
34.74
35.40
35.01
32.85
28.87
23.48
17.51
12.00
7.93
5.86
5.81
7.27
9.40
11.51
13.18
14.35
15.23
16.02
16.67
16.90
16.38
14.97
12.88
10.61
8.58
6.94
5.41
3.41
0.30
-4.32
-10.42
-17.56
-24.89
-31.47
-36.31
-38.66
-38.16
-34.90
-29.49
-22.79
-15.80
-9.31
-3.82
0.50
3.70
5.86
7.00
7.04
5.93
3.70
0.57
-3.10
-6.75
-9.74
-11.49
-11.60
-10.00
-6.94
-3.00
1.23
5.23
8.77
11.79
14.35
16.39
17.72
18.09
17.32
15.47
12.84
9.93
7.22
5.07
3.63
2.80
2.36
2.10
1.83
1.45
0.93
0.27
-0.58
-1.70
-3.21
-5.18
-7.59
-10.22
-12.69
-14.47
-15.01
-13.95
-11.21
-7.10
-2.23
2.67
6.95
10.17
12.17
13.02
12.94
12.26
11.33
10.47
9.93
9.86
10.22
10.94
11.87
12.90
13.99
15.13
16.25
17.26
17.97
18.22
17.87
16.91
15.43
13.58
11.58
9.58
7.74
6.17
4.94
4.12
3.69
3.57
3.63
3.65
3.45
2.91
2.02
0.85
-0.50
-1.91
-3.28
-4.57
-5.72
-6.73
-7.66
-8.64
-9.83
-11.37
-13.30
-15.51
-17.68
-19.35
-20.05
-19.42
-17.34
-13.94
-9.63
-4.99
-0.61
2.98
5.51
6.91
7.40
7.31
7.00
6.71
6.55
6.49
6.50
6.54
6.63
6.83
7.19
7.69
8.26
8.80
9.22
9.48
9.55
9.45
9.25
8.99
8.70
8.35
7.94
7.46
7.02
6.72
6.71
6.99
7.41
7.72
7.59
6.81
5.30
3.12
0.42
-2.60
-5.75
-8.79
-11.50
-13.64
-15.01
-15.55
-15.40
-14.87
-14.29
-13.90
-13.67
-13.34
-12.49
-10.86
-8.44
-5.55
-2.74
-0.53
0.83
1.37
1.41
1.32
1.43
1.90
2.80
4.13
5.81
7.67
9.48
10.97
11.90
12.24
12.13
11.85
11.64
11.62
11.71
11.75
11.59
11.20
10.65
10.01
9.38
8.68
7.84
6.74
5.36
3.80
2.25
0.95
0.08
-0.34
-0.39
-0.23
-0.10
-0.22
-0.73
-1.68
-2.99
-4.50
-5.97
-7.26
-8.26
-9.07
-9.86
-10.85
-12.22
-14.00
-16.03
-17.96
-19.26
-19.45
-18.15
-15.30
-11.14
-6.24
-1.24
3.27
6.91
9.56
11.30
12.27
12.67
12.66
12.38
12.00
11.61
11.33
11.17
11.13
11.15
11.19
11.28
11.46
11.81
12.40
13.24
14.24
15.21
15.84
15.75
14.55
12.01
8.13
3.26
-1.93
-6.62
-10.13
-12.12
-12.64
-12.10
-11.08
-10.06
-9.29
-8.84
-8.63
-8.60
-8.72
-9.04
-9.57
-10.28
-11.05
-11.74
-12.23
-12.49
-12.62
-12.71
-12.81
-12.77
-12.31
-11.06
-8.76
-5.42
-1.39
2.74
6.33
8.89
10.25
10.64
10.53
10.43
10.70
11.42
12.41
13.37
14.06
14.36
14.34
14.07
13.58
12.82
11.72
10.28
8.59
6.83
5.15
3.62
2.23
0.98
-0.06
-0.70
-0.81
-0.44
0.10
0.31
-0.22
-1.68
-3.82
-6.19
-8.41
-10.34
-12.22
-14.40
-17.09
-20.20
-23.30
-25.83
-27.44
-28.09
-28.07
-27.84
-27.71
-27.72
-27.56
-26.70
-24.64
-21.13
-16.28
-10.55
-4.63
0.81
5.29
8.64
10.96
12.57
13.83
15.01
16.25
17.46
18.41
18.79
18.32
16.90
14.62
11.79
8.84
6.21
4.21
3.00
2.57
2.79
3.47
4.44
5.54
6.57
7.34
7.67
7.48
6.78
5.75
4.67
3.89
3.65
4.09
5.10
6.37
7.43
7.75
6.94
4.84
1.64
-2.10
-5.53
-7.85
-8.53
-7.66
-5.87
-4.13
-3.24
-3.44
-4.29
-4.90
-4.34
-2.15
1.47
5.78
9.84
12.82
14.25
14.07
12.51
10.14
7.71
6.04
5.79
7.23
10.00
13.17
15.52
15.96
13.91
9.58
3.83
-2.09
-7.00
-10.16
-11.42
-11.14
-9.99
-8.62
-7.46
-6.66
-6.15
-5.79
-5.46
-5.10
-4.75
-4.56
-4.83
-5.97
-8.42
-12.40
-17.73
-23.77
-29.51
-33.94
-36.43
-36.94
-35.98
-34.32
-32.69
-31.48
-30.71
-30.13
-29.33
-27.95
-25.67
-22.37
-18.10
-13.17
-8.07
-3.35
0.50
3.17
4.58
4.84
4.18
2.93
1.44
0.06
-0.88
-1.17
-0.67
0.58
2.41
4.56
6.67
8.38
9.39
9.62
9.12
8.15
6.97
5.76
4.56
3.27
1.82
0.26
-1.24
-2.50
-3.35
-3.88
-4.28
-4.80
-5.56
-6.49
-7.34
-7.89
-8.06
-7.97
-7.97
-8.43
-9.63
-11.65
-14.32
-17.35
-20.30
-22.69
-23.99
-23.69
-21.39
-16.96
-10.66
-3.13
4.70
11.85
17.44
20.95
22.20
21.44
19.20
16.21
13.17
10.64
8.90
7.97
7.66
7.71
7.94
8.30
8.79
9.48
10.38
11.43
12.58
13.72
14.73
15.48
15.83
15.67
14.94
13.71
12.03
10.03
7.82
5.52
3.29
1.26
-0.48
-1.89
-2.96
-3.62
-3.74
-3.14
-1.78
0.18
2.28
3.97
4.77
4.53
3.37
1.55
-0.73
-3.53
-7.02
-11.28
-15.97
-20.33
-23.41
-24.44
-23.23
-20.28
-16.59
-13.22
-10.89
-9.72
-9.37
-9.24
-8.89
-8.11
-6.98
-5.71
-4.46
-3.17
-1.67
0.27
2.80
5.85
9.19
12.51
15.52
18.03
20.00
21.38
22.17
22.30
21.74
20.51
18.79
16.78
14.72
12.78
11.02
9.46
8.13
7.11
6.47
6.22
6.20
6.17
5.82
4.96
3.59
1.91
0.17
-1.38
-2.65
-3.73
-4.81
-6.08
-7.69
-9.67
-11.98
-14.48
-16.88
-18.75
-19.64
-19.19
-17.34
-14.39
-10.90
-7.54
-4.79
-2.83
-1.54
-0.60
0.26
1.18
2.15
3.03
3.75
4.34
5.00
6.00
7.54
9.69
12.27
14.90
17.16
18.67
19.23
18.83
17.62
15.85
13.75
11.52
9.28
7.13
5.16
3.40
1.86
0.52
-0.71
-1.91
-3.12
-4.30
-5.34
-6.07
-6.35
-6.09
-5.29
-4.10
-2.74
-1.54
-0.82
-0.91
-2.06
-4.34
-7.65
-11.68
-15.89
-19.67
-22.35
-23.41
-22.59
-20.01
-16.12
-11.61
-7.19
-3.37
-0.36
1.91
3.67
5.15
6.54
7.94
9.43
11.06
12.88
14.82
16.71
18.27
19.19
19.29
18.56
17.21
15.59
14.05
12.87
12.11
11.65
11.19
10.43
9.20
7.53
5.67
3.97
2.72
2.07
1.98
2.30
2.83
3.45
4.09
4.73
5.29
5.66
5.63
5.05
3.83
2.02
-0.17
-2.49
-4.65
-6.51
-8.12
-9.69
-11.52
-13.84
-16.73
-20.07
-23.52
-26.60
-28.70
-29.23
-27.75
-24.13
-18.68
-12.10
-5.28
0.89
5.80
9.18
11.09
11.73
11.42
10.48
9.24
7.98
6.94
6.24
5.87
5.75
5.85
6.17
6.76
7.62
8.74
10.03
11.40
12.79
14.14
15.36
16.33
16.94
17.14
16.96
16.51
15.90
15.17
14.24
12.98
11.31
9.25
7.01
4.91
3.28
2.40
2.34
2.92
3.78
4.41
4.45
3.76
2.55
1.29
0.44
0.33
0.88
1.64
1.91
0.97
-1.71
-6.23
-12.18
-18.67
-24.59
-28.81
-30.58
-29.67
-26.49
-21.89
-16.86
-12.18
-8.19
-4.87
-1.98
0.61
2.82
4.32
4.80
4.19
2.88
1.61
1.24
2.44
5.41
9.70
14.30
17.89
19.26
17.71
13.44
7.50
1.45
-3.22
-5.71
-6.14
-5.34
-4.35
-3.77
-3.45
-2.64
-0.43
3.64
9.36
15.88
22.03
26.64
28.73
27.61
22.93
14.80
3.99
-8.04
-19.41
-28.27
-33.38
-34.55
-32.55
-28.78
-24.66
-21.28
-19.15
-18.35
-18.71
-19.90
-21.52
-23.02
-23.80
-23.33
-21.40
-18.17
-14.23
-10.36
-7.25
-5.27
-4.31
-3.87
-3.24
-1.88
0.47
3.61
7.03
10.09
12.32
13.55
14.03
14.19
14.49
15.20
16.34
17.74
19.22
20.70
22.23
23.82
25.47
27.02
28.30
29.17
29.66
30.01
30.57
31.71
33.70
36.56
39.94
43.10
44.97
44.35
40.33
32.56
21.50
8.33
-5.37
-18.10
-28.84
-37.22
-43.40
-47.64
-49.92
-49.76
-46.36
-39.03
-27.55
-12.41
5.42
24.70
44.28
62.93
79.27
91.50
97.67
96.31
87.13
71.05
49.65
24.20
-4.74
-36.72
-70.20
-101.69
-126.08
-138.41
-136.12
-120.55
-96.66
-71.04
-49.41
-34.76
-27.10
-24.49
-24.44
-24.92
-24.56
-22.49
-18.13
-11.40
-2.86
6.29
14.46
20.19
22.64
21.80
18.38
13.48
8.28
3.69
0.29
-1.71
-2.31
-1.70
-0.08
2.29
5.08
7.81
9.80
10.26
8.50
4.26
-2.20
-9.94
-17.50
-23.22
-25.44
-23.03
-15.69
-4.32
8.92
21.01
28.80
30.12
24.52
13.55
0.16
-12.34
-21.40
-26.01
-26.65
-24.81
-22.40
-21.17
-22.41
-26.78
-34.18
-43.62
-53.19
-60.46
-63.08
-59.62
-50.10
-36.10
-20.26
-5.48
5.97
12.92
15.40
14.43
11.60
8.69
7.29
8.58
13.01
20.31
29.52
39.26
48.01
54.43
57.65
57.32
53.71
47.62
40.31
33.16
27.37
23.60
21.94
22.02
23.30
25.33
27.85
30.66
33.55
36.17
38.04
38.60
37.38
33.98
28.13
19.82
9.46
-2.00
-13.17
-22.55
-29.04
-32.31
-32.91
-31.96
-30.76
-30.39
-31.48
-34.01
-37.17
-39.30
-38.22
-31.92
-19.58
-2.33
16.75
33.53
44.35
47.43
43.43
34.86
24.70
15.09
6.55
-1.76
-11.14
-22.33
-34.95
-47.72
-59.04
-67.82
-73.73
-76.89
-77.12
-73.24
-63.22
-45.12
-18.55
14.27
48.70
78.94
100.15
110.05
109.43
101.27
89.17
76.02
63.43
52.05
42.15
34.03
27.93
23.58
19.96
15.46
8.41
-2.11
-15.88
-31.53
-47.13
-60.87
-71.66
-79.21
-83.74
-85.51
-84.62
-81.06
-74.99
-67.12
-58.63
-50.79
-44.43
-39.49
-35.07
-29.91
-23.17
-14.92
-6.13
1.77
7.51
10.33
9.88
6.00
-1.52
-12.84
-27.57
-44.44
-61.22
-75.16
-83.81
-85.74
-80.92
-70.44
-56.07
-39.68
-23.08
-7.95
4.05
11.50
13.59
10.46
3.25
-6.14
-15.72
-24.02
-30.33
-34.62
-37.19
-38.35
-38.28
-37.08
-34.59
-30.22
-22.86
-11.23
5.51
26.88
50.74
73.81
92.76
105.53
112.04
113.89
113.34
112.18
111.11
109.81
107.67
104.36
100.16
95.72
91.65
88.18
85.06
81.83
78.09
73.74
69.00
64.29
59.93
56.07
52.60
49.24
45.71
41.86
37.82
33.92
30.56
28.08
26.49
25.51
24.67
23.48
21.66
19.29
16.68
14.24
12.24
10.68
9.31
7.74
5.55
2.41
-1.85
-7.22
-13.41
-19.83
-25.66
-30.00
-32.20
-32.07
-30.03
-26.98
-23.95
-21.74
-20.53
-19.95
-19.26
-17.82
-15.37
-12.19
-8.88
-6.05
-4.05
-2.90
-2.41
-2.44
-3.02
-4.31
-6.35
-8.87
-11.28
-12.90
-13.23
-12.17
-10.04
-7.44
-5.00
-3.19
-2.26
-2.32
-3.44
-5.69
-9.14
-13.76
-19.40
-25.73
-32.25
-38.41
-43.62
-47.34
-49.19
-48.94
-46.67
-42.73
-37.73
-32.40
-27.46
-23.42
-20.52
-18.74
-17.91
-17.79
-18.10
-18.67
-19.38
-20.20
-21.07
-21.92
-22.51
-22.51
-21.49
-19.14
-15.41
-10.51
-4.85
1.08
6.76
11.70
15.43
17.62
18.16
17.29
15.59
13.75
12.35
11.64
11.54
11.72
11.86
11.82
11.60
11.21
10.64
9.81
8.63
7.19
5.70
4.47
3.83
3.90
4.62
5.73
6.89
7.81
8.39
8.69
8.88
9.12
9.48
9.90
10.26
10.44
10.34
9.95
9.31
8.48
7.50
6.33
4.88
3.04
0.76
-1.97
-5.03
-8.31
-11.73
-15.23
-18.80
-22.30
-25.55
-28.21
-29.94
-30.52
-29.84
-28.05
-25.49
-22.60
-19.89
-17.79
-16.56
-16.18
-16.32
-16.39
-15.73
-13.80
-10.34
-5.52
0.07
5.64
10.35
13.57
14.98
14.64
12.93
10.36
7.52
4.90
2.83
1.42
0.59
0.17
-0.07
-0.20
-0.21
-0.01
0.48
1.17
1.88
2.40
2.59
2.48
2.18
1.75
1.16
0.28
-0.98
-2.51
-3.90
-4.56
-3.94
-1.87
1.29
4.73
7.49
8.89
8.75
7.39
5.38
3.26
1.36
-0.15
-1.18
-1.59
-1.22
-0.06
1.70
3.72
5.60
7.15
8.45
9.77
11.36
13.31
15.39
17.16
18.12
18.01
16.87
15.04
12.99
11.11
9.48
7.94
6.23
4.18
1.85
-0.48
-2.52
-4.16
-5.58
-7.11
-9.13
-11.76
-14.84
-17.90
-20.31
-21.48
-21.06
-19.06
-15.87
-12.12
-8.47
-5.43
-3.26
-2.02
-1.67
-2.18
-3.55
-5.76
-8.72
-12.30
-16.35
-20.66
-24.88
-28.37
-30.28
-29.70
-26.07
-19.47
-10.77
-1.30
7.54
14.73
19.90
23.16
24.82
25.14
24.16
21.88
18.36
13.93
9.14
4.63
0.98
-1.50
-2.76
-3.07
-2.80
-2.31
-1.84
-1.40
-0.95
-0.42
0.13
0.51
0.47
-0.13
-1.21
-2.55
-3.85
-4.93
-5.78
-6.59
-7.57
-8.81
-10.32
-12.00
-13.78
-15.64
-17.62
-19.71
-21.77
-23.51
-24.50
-24.30
-22.56
-19.03
-13.63
-6.47
2.05
11.24
20.05
27.33
32.08
33.77
32.55
29.16
24.75
20.47
17.16
15.20
14.54
14.82
15.55
16.29
16.65
16.37
15.31
13.44
10.87
7.92
5.08
2.98
2.17
2.90
4.82
7.01
8.24
7.40
4.04
-1.38
-7.66
-13.34
-17.32
-19.14
-18.88
-16.85
-13.32
-8.47
-2.60
3.63
9.24
13.21
14.82
13.98
11.15
7.10
2.63
-1.57
-4.89
-6.83
-7.02
-5.48
-2.70
0.44
2.97
4.22
4.02
2.63
0.52
-1.88
-4.37
-6.90
-9.43
-11.85
-13.94
-15.42
-16.04
-15.72
-14.52
-12.63
-10.37
-8.05
-5.98
-4.34
-3.22
-2.56
-2.32
-2.40
-2.77
-3.42
-4.31
-5.33
-6.29
-6.96
-7.10
-6.64
-5.66
-4.51
-3.69
-3.75
-5.02
-7.55
-11.02
-14.91
-18.61
-21.63
-23.67
-24.63
-24.58
-23.69
-22.18
-20.23
-17.83
-14.73
-10.40
-4.42
3.26
11.97
20.35
26.84
30.23
30.24
27.54
23.47
19.30
15.74
12.78
9.96
6.83
3.31
-0.19
-2.92
-4.12
-3.29
-0.33
4.37
9.99
15.43
19.56
21.60
21.31
19.05
15.57
11.70
8.07
4.98
2.51
0.65
-0.63
-1.47
-2.18
-3.29
-5.36
-8.69
-13.08
-17.74
-21.61
-23.69
-23.48
-21.10
-17.25
-12.89
-8.86
-5.70
-3.50
-2.10
-1.17
-0.51
-0.02
0.27
0.33
0.16
-0.13
-0.41
-0.55
-0.51
-0.28
0.12
0.66
1.33
2.09
2.89
3.63
4.26
4.78
5.26
5.73
6.14
6.33
6.08
5.18
3.51
1.10
-1.86
-5.02
-7.92
-10.11
-11.27
-11.36
-10.71
-9.92
-9.71
-10.66
-12.98
-16.31
-19.76
-21.98
-21.54
-17.42
-9.46
1.34
12.96
23.03
29.64
32.07
30.94
27.88
24.56
21.98
20.13
18.19
15.20
10.70
4.92
-1.34
-7.10
-11.57
-14.14
-14.33
-11.77
-6.33
1.58
10.85
19.78
26.62
30.19
30.31
27.68
23.58
19.23
15.41
12.41
10.16
8.49
7.20
6.14
5.08
3.81
2.23
0.37
-1.56
-3.30
-4.66
-5.68
-6.59
-7.70
-9.29
-11.38
-13.71
-15.77
-16.97
-16.86
-15.30
-12.53
-9.05
-5.43
-2.17
0.50
2.54
3.99
4.92
5.35
5.28
4.75
3.92
3.03
2.38
2.14
2.31
2.76
3.20
3.40
3.24
2.75
2.08
1.42
0.84
0.26
-0.52
-1.72
-3.61
-6.27
-9.68
-13.55
-17.28
-19.95
-20.50
-18.06
-12.43
-4.38
4.51
12.27
17.37
19.18
18.15
15.32
11.69
7.69
3.12
-2.50
-9.35
-16.98
-24.44
-30.63
-34.77
-36.57
-36.04
-33.17
-27.75
-19.56
-8.74
3.77
16.25
26.63
33.21
35.32
33.50
29.20
24.11
19.51
16.04
13.69
12.21
11.35
10.95
10.92
11.09
11.20
11.00
10.35
9.30
8.07
6.91
6.03
5.49
5.24
5.16
5.09
4.95
4.74
4.52
4.37
4.30
4.25
4.09
3.66
2.91
1.86
0.67
-0.48
-1.51
-2.48
-3.64
-5.25
-7.54
-10.56
-14.22
-18.32
-22.65
-27.00
-31.08
-34.52
-36.85
-37.54
-36.26
-33.09
-28.50
-23.34
-18.55
-14.85
-12.61
-11.75
-11.94
-12.76
-13.74
-14.34
-13.88
-11.53
-6.58
1.14
11.00
21.49
30.71
36.98
39.49
38.51
35.16
30.87
26.72
23.19
20.13
17.13
13.76
9.89
5.63
1.19
-3.16
-7.18
-10.51
-12.54
-12.46
-9.49
-3.37
5.28
14.88
23.32
28.68
29.97
27.46
22.40
16.41
10.80
6.14
2.34
-1.05
-4.37
-7.59
-10.32
-12.00
-12.17
-10.75
-8.04
-4.67
-1.31
1.51
3.62
5.09
6.11
6.79
7.05
6.72
5.70
4.12
2.34
0.82
-0.03
-0.12
0.41
1.24
2.05
2.67
3.14
3.65
4.36
5.32
6.31
6.93
6.72
5.33
2.68
-0.95
-5.01
-8.89
-12.09
-14.37
-15.79
-16.63
-17.20
-17.77
-18.42
-19.08
-19.52
-19.36
-18.13
-15.44
-11.11
-5.49
0.62
6.02
9.57
10.49
8.67
4.61
-0.76
-6.38
-11.41
-15.21
-17.48
-18.14
-17.32
-15.35
-12.74
-10.16
-8.21
-7.27
-7.22
-7.38
-6.64
-3.93
1.25
8.46
16.31
23.01
27.06
27.95
26.23
23.17
20.11
17.89
16.66
16.05
15.63
15.14
14.62
14.22
14.00
13.82
13.42
12.51
11.00
9.02
6.89
5.01
3.65
2.86
2.48
2.21
1.73
0.85
-0.43
-1.98
-3.60
-5.13
-6.49
-7.65
-8.56
-9.18
-9.45
-9.34
-8.93
-8.36
-7.80
-7.46
-7.53
-8.16
-9.48
-11.51
-14.05
-16.64
-18.61
-19.28
-18.27
-15.66
-12.05
-8.33
-5.33
-3.50
-2.76
-2.61
-2.40
-1.63
-0.13
1.87
3.89
5.45
6.25
6.22
5.48
4.22
2.65
0.98
-0.49
-1.36
-1.19
0.35
3.33
7.54
12.59
18.05
23.51
28.65
33.04
36.18
37.52
36.74
33.96
29.80
25.21
21.16
18.23
16.50
15.56
14.74
13.44
11.26
8.06
4.00
-0.60
-5.35
-9.81
-13.63
-16.53
-18.45
-19.55
-20.14
-20.69
-21.54
-22.85
-24.48
-26.00
-26.83
-26.44
-24.58
-21.35
-17.16
-12.61
-8.30
-4.68
-1.96
-0.14
0.95
1.52
1.77
1.82
1.74
1.58
1.40
1.32
1.44
1.80
2.35
2.98
3.53
3.93
4.19
4.38
4.55
4.70
4.77
4.67
4.38
3.87
3.17
2.29
1.27
0.16
-0.95
-1.95
-2.71
-3.18
-3.33
-3.23
-3.04
-2.95
-3.15
-3.77
-4.84
-6.19
-7.60
-8.79
-9.53
-9.80
-9.80
-9.86
-10.35
-11.54
-13.50
-16.04
-18.67
-20.80
-21.81
-21.27
-19.01
-15.24
-10.46
-5.34
-0.58
3.28
5.94
7.41
7.91
7.79
7.37
6.94
6.70
6.74
7.11
7.73
8.49
9.24
9.82
10.08
10.03
9.75
9.44
9.26
9.30
9.48
9.57
9.30
8.48
7.12
5.46
3.86
2.65
1.97
1.72
1.61
1.35
0.74
-0.22
-1.39
-2.57
-3.67
-4.73
-5.91
-7.43
-9.37
-11.64
-14.10
-16.59
-19.08
-21.66
-24.44
-27.45
-30.58
-33.69
-36.65
-39.49
-42.12
-44.18
-44.91
-43.28
-38.41
-30.06
-18.95
-6.54
5.36
15.30
22.56
27.13
29.52
30.31
29.97
28.84
27.22
25.44
23.91
22.96
22.73
23.11
23.83
24.51
24.87
24.81
24.41
23.84
23.31
22.94
22.74
22.63
22.50
22.20
21.64
20.70
19.35
17.61
15.61
13.54
11.61
9.94
8.53
7.31
6.17
5.02
3.86
2.70
1.50
0.21
-1.26
-2.94
-4.81
-6.78
-8.78
-10.83
-12.98
-15.33
-17.80
-20.15
-21.93
-22.60
-21.78
-19.36
-15.56
-10.99
-6.32
-2.21
0.94
3.01
4.13
4.64
4.82
4.92
5.02
5.17
5.32
5.50
5.74
6.10
6.58
7.12
7.61
7.97
8.17
8.26
8.36
8.56
8.88
9.21
9.38
9.25
8.72
7.84
6.70
5.44
4.18
2.94
1.75
0.58
-0.55
-1.61
-2.56
-3.37
-4.09
-4.75
-5.40
-6.06
-6.71
-7.33
-7.90
-8.50
-9.27
-10.39
-11.98
-14.03
-16.33
-18.47
-19.92
-20.20
-19.02
-16.40
-12.69
-8.49
-4.40
-0.84
2.01
4.21
5.93
7.32
8.45
9.31
9.87
10.16
10.29
10.41
10.62
10.96
11.39
11.86
12.28
12.58
12.74
12.71
12.48
12.05
11.47
10.74
9.90
8.93
7.84
6.62
5.35
4.09
2.92
1.92
1.08
0.39
-0.15
-0.58
-0.94
-1.33
-1.85
-2.54
-3.43
-4.44
-5.55
-6.73
-8.01
-9.37
-10.75
-12.03
-13.13
-14.16
-15.38
-17.13
-19.60
-22.59
-25.46
-27.37
-27.52
-25.57
-21.77
-16.91
-12.06
-8.15
-5.81
-5.14
-5.83
-7.26
-8.80
-9.95
-10.49
-10.53
-10.35
-10.36
-10.97
-12.46
-14.93
-18.09
-21.26
-23.34
-23.17
-19.92
-13.51
-4.84
4.41
12.36
17.56
19.56
18.98
17.14
15.55
15.29
16.70
19.43
22.71
25.74
27.93
29.10
29.34
28.86
27.84
26.42
24.75
22.99
21.37
20.04
19.00
18.02
16.70
14.74
12.10
9.19
6.68
5.34
5.62
7.52
10.58
14.02
17.05
19.14
20.15
20.32
20.12
20.02
20.39
21.31
22.61
24.04
25.29
26.17
26.60
26.64
26.42
26.17
26.16
26.60
27.60
28.97
30.35
31.26
31.37
30.74
29.80
29.22
29.56
30.92
32.88
34.61
35.27
34.36
31.92
28.40
24.47
20.69
17.37
14.44
11.53
7.82
2.07
-7.14
-20.89
-39.21
-60.61
-82.13
-100.34
-112.51
-117.63
-116.64
-111.70
-105.03
-97.96
-90.67
-82.70
-73.74
-64.09
-54.68
-46.49
-40.03
-35.09
-30.91
-26.67
-21.85
-16.44
-10.97
-6.12
-2.42
-0.03
1.31
2.16
3.10
4.53
6.47
8.67
10.73
12.35
13.38
13.90
14.08
14.07
13.91
13.58
12.98
12.04
10.71
9.01
7.07
5.07
3.26
1.82
0.83
0.16
-0.41
-1.08
-1.91
-2.76
-3.42
-3.70
-3.64
-3.47
-3.52
-4.04
-5.03
-6.27
-7.34
-7.88
-7.68
-6.77
-5.41
-4.04
-3.10
-2.95
-3.67
-5.00
-6.45
-7.37
-7.27
-6.00
-3.80
-1.20
1.22
3.01
4.09
4.64
5.01
5.51
6.30
7.33
8.45
9.52
10.47
11.34
12.22
13.14
14.10
14.99
15.68
16.08
16.19
16.03
15.71
15.29
14.79
14.18
13.36
12.25
10.83
9.18
7.41
5.68
4.03
2.45
0.86
-0.78
-2.47
-4.15
-5.74
-7.20
-8.50
-9.64
-10.59
-11.27
-11.69
-11.92
-12.16
-12.67
-13.68
-15.25
-17.27
-19.41
-21.20
-22.18
-21.99
-20.46
-17.67
-13.91
-9.62
-5.29
-1.37
1.86
4.25
5.91
7.05
7.93
8.76
9.63
10.46
11.11
11.48
11.54
11.36
11.06
10.77
10.57
10.48
10.49
10.58
10.70
10.80
10.82
10.68
10.32
9.71
8.87
7.86
6.80
5.83
5.10
4.65
4.43
4.24
3.82
2.95
1.55
-0.23
-2.07
-3.65
-4.80
-5.56
-6.22
-7.11
-8.54
-10.56
-13.01
-15.58
-17.90
-19.64
-20.52
-20.34
-18.96
-16.40
-12.87
-8.77
-4.62
-0.95
1.88
3.80
4.92
5.53
5.91
6.26
6.68
7.16
7.69
8.23
8.75
9.24
9.70
10.15
10.62
11.10
11.57
11.99
12.31
12.49
12.52
12.42
12.17
11.73
11.08
10.28
9.44
8.77
8.37
8.26
8.27
8.19
7.83
7.13
6.17
5.07
3.91
2.74
1.53
0.26
-1.10
-2.51
-3.95
-5.35
-6.62
-7.72
-8.62
-9.41
-10.26
-11.39
-12.96
-15.00
-17.37
-19.72
-21.60
-22.54
-22.18
-20.37
-17.23
-13.12
-8.61
-4.23
-0.43
2.56
4.72
6.17
7.04
7.52
7.78
7.99
8.28
8.68
9.15
9.59
9.91
10.13
10.35
10.69
11.21
11.87
12.49
12.94
13.12
13.03
12.72
12.24
11.62
10.89
10.09
9.29
8.57
7.96
7.40
6.74
5.85
4.64
3.16
1.60
0.19
-0.93
-1.78
-2.53
-3.43
-4.66
-6.28
-8.20
-10.23
-12.19
-13.97
-15.53
-16.89
-18.09
-19.19
-20.29
-21.53
-22.96
-24.56
-26.10
-27.19
-27.44
-26.60
-24.62
-21.67
-18.09
-14.25
-10.52
-7.19
-4.45
-2.35
-0.83
0.34
1.37
2.43
3.58
4.70
5.58
6.11
6.23
6.05
5.74
5.47
5.34
5.37
5.53
5.78
6.11
6.52
6.98
7.48
7.94
8.34
8.72
9.23
10.11
11.55
13.55
15.90
18.17
19.91
20.75
20.63
19.71
18.28
16.62
14.87
13.02
11.04
8.96
6.96
5.26
4.00
3.20
2.72
2.33
1.85
1.17
0.25
-0.96
-2.56
-4.64
-7.20
-9.99
-12.54
-14.24
-14.61
-13.46
-11.03
-7.90
-4.77
-2.23
-0.55
0.33
0.79
1.26
2.08
3.35
4.94
6.52
7.80
8.58
8.89
8.89
8.85
8.97
9.32
9.84
10.33
10.59
10.47
9.95
9.08
8.00
6.80
5.51
4.16
2.80
1.55
0.56
-0.01
-0.16
0.02
0.31
0.49
0.40
-0.02
-0.74
-1.68
-2.73
-3.75
-4.65
-5.39
-6.06
-6.84
-7.98
-9.68
-11.96
-14.64
-17.31
-19.45
-20.61
-20.50
-19.07
-16.49
-13.15
-9.52
-6.04
-3.03
-0.62
1.25
2.74
3.97
5.01
5.76
6.04
5.72
4.77
3.38
1.80
0.26
-1.18
-2.63
-4.30
-6.35
-8.73
-11.18
-13.33
-14.90
-15.80
-16.25
-16.64
-17.38
-18.72
-20.64
-22.85
-24.91
-26.44
-27.31
-27.67
-27.90
-28.41
-29.56
-31.52
-34.47
-38.46
-43.34
-48.44
-52.44
-53.63
-50.39
-41.92
-28.59
-11.67
7.23
26.84
46.50
65.83
84.18
100.30
112.45
119.10
119.64
114.74
106.12
95.89
85.79
76.77
69.00
62.12
55.75
49.70
44.06
39.08
34.88
31.35
28.15
24.84
21.19
17.26
13.39
9.98
7.21
4.97
2.88
0.51
-2.33
-5.50
-8.65
-11.42
-13.59
-15.21
-16.49
-17.59
-18.58
-19.39
-19.93
-20.22
-20.38
-20.61
-21.08
-21.91
-23.10
-24.54
-26.05
-27.31
-27.98
-27.74
-26.43
-24.19
-21.40
-18.57
-16.17
-14.41
-13.24
-12.44
-11.78
-11.14
-10.55
-10.08
-9.80
-9.73
-9.84
-10.07
-10.36
-10.68
-11.05
-11.50
-12.04
-12.69
-13.46
-14.24
-14.91
-15.33
-15.36
-14.96
-14.14
-12.95
-11.47
-9.78
-7.92
-5.94
-3.92
-1.93
-0.07
1.55
2.85
3.82
4.47
4.93
5.30
5.62
5.84
5.75
5.12
3.82
1.84
-0.66
-3.39
-6.06
-8.39
-10.12
-11.02
-10.88
-9.56
-7.05
-3.54
0.68
5.26
9.86
14.15
17.84
20.64
22.28
22.62
21.75
20.03
18.01
16.29
15.29
15.07
15.31
15.47
15.03
13.69
11.55
9.03
6.68
4.89
3.70
2.81
1.83
0.51
-1.06
-2.47
-3.23
-3.04
-1.96
-0.38
1.20
2.32
2.83
2.74
2.17
1.23
-0.07
-1.75
-3.81
-6.10
-8.38
-10.37
-11.88
-12.88
-13.51
-14.03
-14.71
-15.75
-17.22
-19.04
-21.06
-23.14
-25.17
-27.11
-28.99
-30.83
-32.66
-34.45
-36.24
-38.08
-40.06
-42.22
-44.50
-46.72
-48.62
-49.94
-50.52
-50.25
-49.04
-46.75
-43.17
-38.21
-32.02
-24.98
-17.68
-10.70
-4.47
0.85
5.24
8.82
11.72
14.08
16.11
18.07
20.19
22.53
24.91
26.82
27.75
27.34
25.56
22.80
19.68
16.77
14.46
12.82
11.74
11.02
10.53
10.10
9.51
8.35
6.19
2.76
-1.76
-6.65
-10.89
-13.57
-14.29
-13.33
-11.44
-9.48
-7.95
-6.91
-6.01
-4.82
-3.14
-1.06
1.09
2.95
4.33
5.29
6.06
6.89
7.97
9.30
10.75
12.11
13.25
14.19
15.04
16.03
17.33
18.97
20.82
22.65
24.20
25.31
25.89
26.01
25.82
25.50
25.18
24.95
24.80
24.71
24.66
24.62
24.59
24.56
24.48
24.32
24.08
23.85
23.74
23.83
23.99
23.86
22.91
20.58
16.58
11.01
4.40
-2.43
-8.55
-13.20
-15.93
-16.64
-15.61
-13.36
-10.54
-7.76
-5.48
-3.92
-2.98
-2.48
-2.15
-1.89
-1.80
-2.25
-3.68
-6.45
-10.61
-15.72
-20.99
-25.43
-28.24
-29.04
-27.99
-25.66
-22.72
-19.77
-17.17
-15.10
-13.67
-12.95
-12.92
-13.43
-14.14
-14.64
-14.63
-14.06
-13.15
-12.27
-11.78
-11.85
-12.40
-13.18
-13.87
-14.26
-14.28
-14.04
-13.71
-13.51
-13.61
-14.07
-14.93
-16.11
-17.38
-18.30
-18.30
-16.77
-13.34
-8.12
-1.70
4.94
10.82
15.26
18.07
19.57
20.29
20.74
21.15
21.48
21.48
20.89
19.63
17.78
15.60
13.41
11.46
9.87
8.69
7.93
7.59
7.72
8.29
9.21
10.24
11.03
11.31
10.90
9.79
8.14
6.15
4.05
2.04
0.26
-1.16
-2.14
-2.66
-2.82
-2.79
-2.77
-2.88
-3.16
-3.49
-3.76
-3.86
-3.79
-3.68
-3.69
-3.99
-4.73
-5.99
-7.75
-9.90
-12.19
-14.23
-15.53
-15.62
-14.27
-11.58
-8.02
-4.23
-0.82
1.87
3.79
5.12
6.14
6.98
7.64
8.04
8.09
7.81
7.38
7.07
7.09
7.55
8.35
9.30
10.13
10.72
11.04
11.18
11.24
11.27
11.22
10.99
10.53
9.88
9.15
8.47
7.94
7.58
7.29
6.93
6.33
5.33
3.82
1.84
-0.40
-2.57
-4.33
-5.39
-5.72
-5.49
-5.07
-4.89
-5.30
-6.49
-8.41
-10.83
-13.41
-15.78
-17.68
-18.93
-19.50
-19.34
-18.42
-16.69
-14.21
-11.24
-8.21
-5.66
-3.97
-3.24
-3.14
-3.11
-2.56
-1.13
1.20
4.11
7.08
9.59
11.19
11.68
11.05
9.53
7.52
5.47
3.86
2.96
2.88
3.55
4.77
6.32
8.00
9.68
11.17
12.23
12.60
12.06
10.60
8.45
6.08
3.98
2.46
1.52
0.89
0.24
-0.62
-1.61
-2.43
-2.79
-2.60
-2.14
-1.92
-2.44
-3.97
-6.41
-9.34
-12.20
-14.46
-15.80
-16.02
-15.09
-13.09
-10.19
-6.73
-3.20
-0.13
2.07
3.19
3.36
2.97
2.49
2.29
2.52
3.08
3.69
4.05
3.99
3.51
2.70
1.74
0.72
-0.31
-1.37
-2.44
-3.43
-4.23
-4.80
-5.24
-5.81
-6.78
-8.37
-10.60
-13.34
-16.34
-19.39
-22.21
-24.55
-26.00
-26.14
-24.69
-21.67
-17.51
-12.91
-8.59
-5.07
-2.52
-0.80
0.40
1.42
2.69
4.62
7.68
12.21
18.37
25.99
34.62
43.58
52.10
59.29
64.26
66.20
64.71
60.05
53.15
45.49
38.52
33.15
29.51
27.00
24.77
22.20
19.17
16.00
13.09
10.65
8.54
6.41
3.99
1.29
-1.38
-3.65
-5.29
-6.39
-7.24
-8.21
-9.48
-11.01
-12.55
-13.86
-14.86
-15.61
-16.34
-17.21
-18.29
-19.48
-20.61
-21.53
-22.19
-22.69
-23.28
-24.23
-25.81
-28.05
-30.76
-33.48
-35.62
-36.57
-35.94
-33.66
-29.94
-25.26
-20.20
-15.35
-11.19
-8.12
-6.31
-5.82
-6.47
-7.98
-9.93
-11.82
-13.16
-13.48
-12.42
-9.81
-5.79
-0.76
4.62
9.62
13.55
15.98
16.84
16.32
14.87
13.03
11.22
9.75
8.71
7.96
7.34
6.64
5.82
4.90
3.96
3.00
1.93
0.53
-1.38
-3.83
-6.66
-9.56
-12.18
-14.36
-16.05
-17.44
-18.78
-20.27
-22.04
-24.08
-26.12
-27.67
-28.07
-26.64
-23.01
-17.24
-9.92
-1.91
5.89
12.82
18.53
22.89
25.92
27.72
28.54
28.76
28.86
29.28
30.20
31.51
32.84
33.77
34.04
33.62
32.67
31.37
29.91
28.34
26.64
24.79
22.81
20.74
18.70
16.72
14.71
12.50
9.84
6.54
2.69
-1.34
-4.92
-7.38
-8.24
-7.44
-5.38
-2.70
-0.08
2.11
3.84
5.26
6.50
7.43
7.65
6.70
4.31
0.58
-4.06
-9.07
-13.98
-18.54
-22.58
-25.89
-28.13
-28.91
-27.94
-25.25
-21.25
-16.59
-12.00
-8.08
-5.16
-3.26
-2.19
-1.67
-1.40
-1.19
-0.99
-0.84
-0.80
-0.86
-0.92
-0.86
-0.60
-0.15
0.40
0.96
1.50
2.04
2.63
3.28
3.90
4.34
4.44
4.13
3.42
2.41
1.22
-0.00
-1.19
-2.30
-3.30
-4.15
-4.86
-5.38
-5.70
-5.78
-5.60
-5.11
-4.28
-3.05
-1.46
0.37
2.22
3.78
4.76
4.99
4.51
3.64
2.90
2.88
3.98
6.28
9.46
12.92
16.01
18.26
19.46
19.66
19.06
17.88
16.32
14.52
12.64
10.91
9.54
8.70
8.35
8.30
8.26
7.99
7.41
6.65
5.97
5.63
5.71
6.12
6.61
6.90
6.81
6.35
5.61
4.71
3.76
2.80
1.89
1.11
0.56
0.27
0.17
0.05
-0.34
-1.17
-2.44
-3.99
-5.62
-7.17
-8.60
-9.95
-11.31
-12.67
-13.92
-14.88
-15.41
-15.44
-14.99
-14.22
-13.25
-12.21
-11.10
-9.87
-8.46
-6.83
-5.03
-3.21
-1.49
0.03
1.37
2.53
3.54
4.28
4.63
4.53
4.03
3.35
2.75
2.40
2.33
2.41
2.42
2.23
1.78
1.14
0.40
-0.35
-1.13
-2.00
-3.09
-4.47
-6.11
-7.88
-9.50
-10.70
-11.20
-10.92
-10.00
-8.86
-8.08
-8.25
-9.72
-12.47
-16.08
-19.87
-23.18
-25.54
-26.86
-27.31
-27.22
-26.93
-26.71
-26.74
-27.05
-27.53
-27.90
-27.78
-26.76
-24.56
-21.15
-16.76
-11.92
-7.33
-3.77
-1.93
-2.28
-4.78
-8.87
-13.49
-17.32
-19.23
-18.58
-15.37
-10.12
-3.56
3.68
11.23
18.89
26.52
33.81
40.22
45.15
48.08
48.77
47.37
44.35
40.26
35.64
30.83
26.03
21.36
17.01
13.30
10.66
9.46
9.81
11.42
13.66
15.73
16.93
16.88
15.55
13.21
10.16
6.64
2.76
-1.38
-5.65
-9.81
-13.57
-16.65
-18.91
-20.28
-20.65
-19.87
-17.79
-14.48
-10.32
-6.14
-2.92
-1.48
-2.07
-4.22
-6.93
-9.09
-9.90
-9.14
-7.17
-4.67
-2.32
-0.55
0.57
1.19
1.59
2.01
2.56
3.26
4.04
4.86
5.75
6.85
8.30
10.15
12.18
13.94
14.85
14.44
12.61
9.64
6.14
2.90
0.56
-0.43
0.02
1.70
4.12
6.57
8.30
8.67
7.32
4.29
0.01
-4.83
-9.46
-13.30
-16.07
-17.82
-18.87
-19.59
-20.18
-20.58
-20.44
-19.36
-17.15
-14.00
-10.44
-7.07
-4.33
-2.19
-0.27
1.94
4.80
8.24
11.80
14.83
16.69
17.06
15.92
13.58
10.44
6.96
3.53
0.40
-2.21
-4.20
-5.47
-6.07
-6.16
-6.04
-6.08
-6.60
-7.70
-9.20
-10.67
-11.54
-11.36
-9.90
-7.26
-3.75
0.21
4.24
8.09
11.54
14.39
16.39
17.30
16.97
15.41
12.82
9.47
5.56
1.20
-3.57
-8.54
-13.21
-16.81
-18.57
-18.04
-15.35
-11.19
-6.47
-2.01
1.84
5.22
8.67
12.74
17.84
24.02
30.94
38.03
44.55
49.76
53.05
54.05
52.57
48.62
42.41
34.30
24.89
14.88
4.91
-4.69
-13.95
-23.18
-32.61
-42.12
-51.13
-58.62
-63.37
-64.30
-60.66
-52.30
-39.74
-24.23
-7.72
7.43
18.85
24.68
23.96
16.97
5.08
-9.46
-24.07
-36.42
-44.92
-48.98
-48.90
-45.54
-39.99
-33.17
-25.90
-18.84
-12.59
-7.62
-4.13
-1.97
-0.68
0.34
1.60
3.44
6.02
9.33
13.26
17.54
21.78
25.46
28.07
29.27
28.96
27.25
24.30
20.25
15.13
9.03
2.24
-4.67
-10.92
-15.78
-18.77
-19.83
-19.27
-17.63
-15.48
-13.25
-11.19
-9.47
-8.20
-7.51
-7.52
-8.28
-9.78
-12.01
-14.94
-18.57
-22.82
-27.38
-31.49
-33.95
-33.34
-28.60
-19.47
-6.87
7.34
20.92
32.06
39.91
44.65
47.09
48.07
48.02
46.87
44.33
40.32
35.16
29.56
24.28
19.86
16.47
13.99
12.24
11.11
10.57
10.60
10.98
11.30
11.04
9.82
7.51
4.31
0.69
-2.85
-5.92
-8.31
-10.05
-11.29
-12.17
-12.80
-13.13
-13.00
-12.25
-10.79
-8.77
-6.58
-4.80
-4.06
-4.75
-6.86
-9.97
-13.37
-16.30
-18.17
-18.74
-18.02
-16.22
-13.55
-10.21
-6.41
-2.38
1.60
5.21
8.19
10.43
11.94
12.94
13.68
14.47
15.52
16.95
18.69
20.51
22.07
23.01
23.02
21.96
19.84
16.86
13.31
9.52
5.86
2.65
0.08
-1.79
-3.06
-3.92
-4.54
-5.00
-5.32
-5.43
-5.28
-5.01
-4.86
-5.23
-6.55
-9.08
-12.87
-17.58
-22.55
-26.85
-29.58
-30.05
-28.09
-24.03
-18.69
-13.03
-7.91
-3.85
-0.96
0.97
2.25
3.15
3.78
4.13
4.14
3.80
3.17
2.48
2.03
2.18
3.23
5.31
8.34
11.94
15.56
18.60
20.61
21.45
21.31
20.55
19.54
18.47
17.34
16.02
14.42
12.51
10.31
7.84
5.02
1.74
-2.00
-5.98
-9.79
-12.96
-15.16
-16.41
-17.09
-17.78
-19.10
-21.42
-24.72
-28.50
-31.83
-33.52
-32.35
-27.38
-18.35
-5.91
8.37
22.29
33.63
40.72
43.02
41.06
36.21
30.07
23.99
18.81
14.87
12.18
10.63
10.04
10.15
10.62
11.06
11.20
10.97
10.53
10.19
10.25
10.87
12.01
13.46
14.85
15.79
15.92
15.02
13.18
10.69
8.07
5.83
4.30
3.51
3.23
3.11
2.89
2.60
2.37
2.42
2.76
3.20
3.31
2.67
1.05
-1.54
-4.81
-8.30
-11.45
-13.77
-14.86
-14.50
-12.75
-9.92
-6.57
-3.30
-0.61
1.23
2.22
2.59
2.59
2.42
2.16
1.80
1.28
0.64
-0.05
-0.65
-1.06
-1.25
-1.27
-1.21
-1.15
-1.09
-0.96
-0.67
-0.16
0.50
1.18
1.70
1.95
1.89
1.64
1.35
1.15
1.09
1.11
1.11
1.01
0.81
0.52
0.22
-0.09
-0.47
-0.96
-1.64
-2.57
-3.75
-5.27
-7.27
-9.90
-13.22
-16.94
-20.43
-22.77
-23.12
-21.04
-16.74
-10.99
-4.78
1.01
5.93
9.97
13.37
16.41
19.21
21.82
24.21
26.45
28.64
30.92
33.37
35.99
38.76
41.57
44.29
46.72
48.66
49.94
50.42
49.90
48.15
44.85
39.71
32.71
24.30
15.37
7.17
0.97
-2.45
-3.02
-1.52
0.64
1.75
0.24
-4.99
-14.25
-26.92
-41.56
-56.17
-68.72
-77.61
-82.06
-82.22
-79.02
-73.71
-67.51
-61.32
-55.70
-50.95
-47.26
-44.69
-43.14
-42.27
-41.55
-40.45
-38.68
-36.22
-33.36
-30.52
-28.01
-25.96
-24.29
-22.77
-21.16
-19.23
-16.87
-14.07
-11.01
-8.00
-5.39
-3.45
-2.24
-1.62
-1.29
-0.97
-0.42
0.38
1.34
2.21
2.72
2.60
1.73
0.20
-1.66
-3.44
-4.86
-5.88
-6.72
-7.73
-9.07
-10.58
-11.69
-11.64
-9.74
-5.68
0.37
7.84
15.96
23.96
31.27
37.52
42.60
46.58
49.65
52.08
54.07
55.69
56.82
57.19
56.51
54.66
51.81
48.51
45.52
43.80
44.11
46.73
50.94
54.90
55.95
51.50
40.18
22.57
1.21
-20.35
-38.83
-52.34
-60.70
-64.94
-66.57
-66.83
-66.42
-65.60
-64.35
-62.48
-59.76
-55.95
-51.00
-45.12
-38.75
-32.32
-26.11
-20.28
-14.95
-10.37
-6.88
-4.65
-3.44
-2.52
-1.00
1.79
5.85
10.55
14.91
18.04
19.66
20.18
20.45
21.48
23.97
28.10
33.50
39.43
44.95
49.28
51.86
52.37
50.77
47.20
41.90
35.22
27.58
19.38
11.09
3.18
-3.77
-9.14
-12.40
-13.22
-11.65
-8.12
-3.42
1.56
6.01
9.31
11.17
11.54
10.64
8.88
6.78
4.85
3.47
2.74
2.49
2.43
2.19
1.49
0.17
-1.81
-4.41
-7.51
-10.85
-14.04
-16.56
-17.90
-17.76
-16.23
-13.75
-11.02
-8.73
-7.27
-6.69
-6.74
-7.10
-7.49
-7.84
-8.19
-8.58
-9.00
-9.33
-9.45
-9.28
-8.92
-8.56
-8.47
-8.83
-9.70
-10.92
-12.19
-13.11
-13.30
-12.51
-10.67
-7.91
-4.55
-0.99
2.36
5.17
7.26
8.67
9.54
10.03
10.23
10.13
9.67
8.86
7.85
6.90
6.33
6.31
6.86
7.81
8.86
9.76
10.32
10.50
10.31
9.86
9.21
8.37
7.35
6.16
4.88
3.63
2.59
1.85
1.35
0.88
0.18
-0.98
-2.67
-4.75
-6.95
-8.88
-10.18
-10.55
-9.90
-8.33
-6.20
-4.03
-2.40
-1.75
-2.19
-3.42
-4.88
-5.85
-5.83
-4.69
-2.72
-0.49
1.40
2.58
3.05
3.12
3.21
3.60
4.37
5.31
6.11
6.47
6.17
5.13
3.38
1.03
-1.74
-4.67
-7.50
-9.99
-11.88
-12.99
-13.24
-12.69
-11.60
-10.36
-9.44
-9.19
-9.75
-11.00
-12.59
-14.08
-15.06
-15.23
-14.45
-12.71
-10.11
-6.87
-3.29
0.27
3.46
5.98
7.65
8.43
8.40
7.75
6.71
5.56
4.57
3.97
3.95
4.59
5.81
7.36
8.85
9.86
10.12
9.62
8.51
7.10
5.65
4.31
3.09
1.90
0.64
-0.72
-2.18
-3.71
-5.26
-6.77
-8.20
-9.51
-10.75
-12.03
-13.51
-15.34
-17.52
-19.87
-21.99
-23.34
-23.47
-22.09
-19.25
-15.30
-10.75
-6.16
-1.96
1.57
4.30
6.19
7.27
7.61
7.39
6.83
6.25
5.92
6.00
6.51
7.30
8.16
8.91
9.49
9.96
10.46
11.13
12.01
13.04
14.06
14.89
15.35
15.38
14.91
13.94
12.49
10.60
8.33
5.88
3.41
1.09
-1.02
-2.92
-4.62
-6.08
-7.17
-7.73
-7.66
-7.03
-6.13
-5.36
-5.16
-5.80
-7.41
-9.86
-12.86
-15.95
-18.63
-20.35
-20.72
-19.59
-17.09
-13.64
-9.79
-6.06
-2.83
-0.29
1.54
2.78
3.62
4.25
4.85
5.49
6.15
6.75
7.20
7.49
7.68
7.82
8.02
8.25
8.51
8.76
9.02
9.36
9.86
10.48
11.11
11.58
11.66
11.27
10.42
9.25
8.00
6.87
6.02
5.43
4.97
4.46
3.72
2.72
1.56
0.45
-0.41
-1.00
-1.47
-2.11
-3.16
-4.68
-6.46
-8.19
-9.53
-10.36
-10.79
-11.15
-11.73
-12.78
-14.33
-16.22
-18.22
-19.93
-20.99
-21.01
-19.74
-17.15
-13.45
-9.12
-4.70
-0.75
2.36
4.47
5.67
6.22
6.43
6.59
6.88
7.36
7.97
8.61
9.17
9.62
10.00
10.36
10.71
11.04
11.31
11.46
11.52
11.53
11.53
11.52
11.37
10.98
10.24
9.20
8.01
6.93
6.14
5.73
5.58
5.44
5.06
4.29
3.17
1.90
0.75
-0.13
-0.69
-1.10
-1.56
-2.27
-3.29
-4.53
-5.82
-6.99
-7.92
-8.61
-9.11
-9.51
-9.91
-10.47
-11.31
-12.54
-14.11
-15.82
-17.23
-17.81
-17.15
-15.07
-11.74
-7.65
-3.41
0.38
3.36
5.39
6.57
7.13
7.30
7.32
7.35
7.49
7.81
8.28
8.83
9.32
9.61
9.64
9.41
9.07
8.75
8.60
8.64
8.79
8.94
8.95
8.74
8.33
7.77
7.18
6.67
6.30
6.03
5.76
5.33
4.62
3.57
2.21
0.64
-0.95
-2.43
-3.70
-4.74
-5.54
-6.17
-6.66
-7.06
-7.39
-7.63
-7.78
-7.88
-7.98
-8.18
-8.58
-9.25
-10.25
-11.60
-13.19
-14.77
-15.94
-16.21
-15.17
-12.74
-9.19
-5.14
-1.32
1.72
3.75
4.91
5.55
6.04
6.56
7.10
7.50
7.62
7.40
6.96
6.48
6.17
6.15
6.38
6.75
7.13
7.43
7.61
7.70
7.68
7.51
7.15
6.60
5.94
5.28
4.74
4.39
4.18
4.00
3.76
3.37
2.85
2.25
1.65
1.07
0.54
0.02
-0.58
-1.29
-2.09
-2.96
-3.81
-4.61
-5.36
-6.10
-6.83
-7.58
-8.31
-9.06
-9.90
-10.95
-12.22
-13.60
-14.72
-15.11
-14.37
-12.35
-9.27
-5.63
-2.05
1.00
3.24
4.67
5.43
5.69
5.60
5.29
4.88
4.55
4.45
4.70
5.25
5.96
6.59
6.95
6.96
6.67
6.25
5.84
5.54
5.28
4.98
4.54
3.94
3.28
2.68
2.23
1.93
1.69
1.38
0.91
0.31
-0.29
-0.76
-1.04
-1.24
-1.56
-2.22
-3.27
-4.57
-5.85
-6.82
-7.34
-7.47
-7.41
-7.34
-7.43
-7.74
-8.32
-9.20
-10.38
-11.68
-12.78
-13.25
-12.67
-10.91
-8.13
-4.75
-1.33
1.66
3.92
5.33
5.94
5.90
5.43
4.80
4.26
3.98
4.00
4.21
4.46
4.60
4.64
4.70
4.92
5.35
5.92
6.44
6.69
6.58
6.15
5.56
4.98
4.46
3.95
3.35
2.59
1.71
0.86
0.16
-0.30
-0.57
-0.75
-0.96
-1.26
-1.66
-2.15
-2.71
-3.35
-4.04
-4.69
-5.20
-5.50
-5.65
-5.75
-6.02
-6.59
-7.53
-8.80
-10.24
-11.59
-12.54
-12.76
-11.98
-10.15
-7.41
-4.18
-0.96
1.75
3.63
4.65
4.94
4.76
4.37
3.95
3.60
3.36
3.24
3.24
3.39
3.70
4.15
4.70
5.22
5.58
5.73
5.69
5.54
5.36
5.15
4.86
4.36
3.64
2.74
1.82
1.03
0.41
-0.09
-0.55
-1.02
-1.44
-1.73
-1.85
-1.87
-1.94
-2.24
-2.87
-3.78
-4.83
-5.80
-6.48
-6.84
-6.96
-7.09
-7.47
-8.30
-9.63
-11.27
-12.86
-13.94
-14.09
-13.08
-10.91
-7.88
-4.45
-1.19
1.42
3.10
3.87
3.96
3.74
3.54
3.55
3.83
4.29
4.84
5.42
6.00
6.57
7.11
7.54
7.77
7.79
7.63
7.37
7.12
6.92
6.76
6.56
6.25
5.76
5.07
4.22
3.29
2.38
1.62
1.08
0.76
0.59
0.41
0.08
-0.51
-1.37
-2.45
-3.62
-4.79
-5.88
-6.91
-7.90
-8.88
-9.92
-11.04
-12.34
-13.80
-15.31
-16.59
-17.24
-16.91
-15.43
-12.91
-9.68
-6.18
-2.80
0.22
2.75
4.71
6.06
6.77
6.87
6.52
5.93
5.30
4.81
4.46
4.23
4.03
3.82
3.64
3.62
3.89
4.54
5.52
6.64
7.62
8.21
8.27
7.86
7.13
6.31
5.57
4.92
4.32
3.67
2.92
2.10
1.33
0.70
0.27
-0.00
-0.26
-0.67
-1.34
-2.29
-3.38
-4.44
-5.29
-5.90
-6.35
-6.86
-7.68
-9.01
-10.92
-13.26
-15.67
-17.64
-18.60
-18.19
-16.34
-13.35
-9.74
-6.10
-2.85
-0.22
1.77
3.16
4.02
4.44
4.51
4.39
4.22
4.14
4.20
4.41
4.74
5.20
5.77
6.39
6.98
7.38
7.55
7.50
7.37
7.29
7.31
7.38
7.37
7.11
6.52
5.66
4.65
3.64
2.75
2.01
1.37
0.76
0.08
-0.72
-1.63
-2.61
-3.57
-4.41
-5.12
-5.75
-6.41
-7.23
-8.33
-9.77
-11.58
-13.72
-16.05
-18.30
-20.07
-20.90
-20.41
-18.49
-15.34
-11.48
-7.55
-4.06
-1.36
0.56
1.88
2.89
3.82
4.84
5.98
7.19
8.37
9.40
10.18
10.67
10.95
11.14
11.38
11.75
12.20
12.56
12.65
12.36
11.72
10.87
9.99
9.22
8.57
8.01
7.44
6.81
6.10
5.37
4.66
4.04
3.54
3.17
2.82
2.35
1.60
0.49
-0.94
-2.51
-3.98
-5.20
-6.17
-7.01
-7.94
-9.10
-10.60
-12.44
-14.60
-17.01
-19.45
-21.58
-22.90
-22.91
-21.29
-18.10
-13.79
-9.02
-4.50
-0.75
2.01
3.84
4.98
5.69
6.19
6.64
7.12
7.69
8.33
9.00
9.58
10.03
10.32
10.52
10.73
11.02
11.41
11.84
12.20
12.44
12.50
12.42
12.21
11.91
11.52
11.07
10.57
10.02
9.42
8.72
7.89
6.92
5.85
4.76
3.70
2.69
1.67
0.56
-0.68
-2.06
-3.49
-4.91
-6.24
-7.44
-8.55
-9.66
-10.94
-12.58
-14.69
-17.24
-20.03
-22.65
-24.58
-25.35
-24.60
-22.26
-18.52
-13.88
-8.92
-4.25
-0.37
2.50
4.36
5.46
6.10
6.55
6.98
7.41
7.79
8.06
8.21
8.28
8.36
8.48
8.67
8.92
9.21
9.51
9.80
10.09
10.38
10.67
10.95
11.16
11.23
11.04
10.51
9.61
8.44
7.11
5.79
4.58
3.49
2.45
1.37
0.15
-1.24
-2.77
-4.36
-5.92
-7.36
-8.66
-9.79
-10.83
-11.86
-13.05
-14.58
-16.58
-19.01
-21.62
-23.96
-25.38
-25.23
-23.00
-18.54
-12.15
-4.59
3.17
10.18
15.82
19.90
22.59
24.15
24.75
24.32
22.76
20.11
16.70
13.15
10.13
8.08
7.08
6.90
7.11
7.39
7.60
7.80
8.12
8.57
9.07
9.41
9.37
8.89
8.06
7.09
6.28
5.78
5.58
5.44
5.04
4.11
2.56
0.43
-2.05
-4.64
-7.19
-9.63
-11.98
-14.27
-16.49
-18.56
-20.37
-21.89
-23.21
-24.44
-25.70
-26.94
-27.92
-28.23
-27.39
-25.13
-21.45
-16.73
-11.61
-6.72
-2.56
0.66
3.00
4.72
6.10
7.36
8.60
9.82
10.95
11.90
12.62
13.11
13.44
13.71
14.00
14.39
14.89
15.49
16.19
16.93
17.63
18.17
18.41
18.31
17.88
17.23
16.47
15.66
14.78
13.76
12.51
11.03
9.37
7.63
5.88
4.15
2.37
0.48
-1.54
-3.62
-5.62
-7.37
-8.76
-9.81
-10.68
-11.61
-12.88
-14.67
-16.98
-19.52
-21.81
-23.20
-23.12
-21.25
-17.68
-12.83
-7.41
-2.10
2.55
6.25
8.95
10.72
11.70
12.06
11.96
11.58
11.12
10.76
10.62
10.79
11.23
11.85
12.53
13.15
13.65
14.02
14.33
14.63
14.95
15.27
15.46
15.39
14.93
14.05
12.83
11.38
9.84
8.29
6.79
5.32
3.90
2.51
1.17
-0.15
-1.50
-2.95
-4.49
-6.12
-7.75
-9.30
-10.77
-12.21
-13.80
-15.74
-18.16
-21.03
-24.09
-26.84
-28.60
-28.77
-26.99
-23.35
-18.34
-12.71
-7.24
-2.47
1.33
4.18
6.22
7.59
8.40
8.75
8.79
8.73
8.84
9.32
10.26
11.52
12.88
14.05
14.86
15.29
15.45
15.45
15.41
15.34
15.16
14.78
14.14
13.16
11.83
10.19
8.36
6.53
4.90
3.59
2.60
1.76
0.85
-0.32
-1.80
-3.50
-5.25
-6.91
-8.41
-9.75
-11.00
-12.22
-13.60
-15.30
-17.55
-20.36
-23.45
-26.23
-27.86
-27.59
-25.06
-20.47
-14.57
-8.34
-2.69
1.84
5.14
7.45
9.09
10.34
11.31
11.99
12.35
12.40
12.30
12.21
12.33
12.74
13.45
14.35
15.28
16.03
16.43
16.39
15.89
15.00
13.86
12.59
11.29
10.01
8.72
7.38
6.01
4.66
3.42
2.39
1.59
0.96
0.36
-0.38
-1.45
-2.86
-4.55
-6.32
-7.95
-9.31
-10.42
-11.44
-12.57
-14.03
-15.95
-18.35
-21.12
-23.92
-26.22
-27.40
-26.89
-24.49
-20.40
-15.22
-9.73
-4.63
-0.34
3.02
5.53
7.39
8.74
9.68
10.29
10.63
10.82
10.94
11.07
11.27
11.59
11.98
12.40
12.78
13.06
13.25
13.35
13.38
13.30
13.10
12.73
12.19
11.49
10.66
9.70
8.63
7.50
6.41
5.46
4.69
4.06
3.41
2.52
1.25
-0.43
-2.35
-4.32
-6.12
-7.64
-8.89
-10.02
-11.21
-12.69
-14.64
-17.12
-20.02
-23.07
-25.80
-27.71
-28.30
-27.29
-24.70
-20.83
-16.25
-11.55
-7.29
-3.80
-1.16
0.74
2.13
3.25
4.21
4.96
5.38
5.30
4.68
3.61
2.34
1.13
0.17
-0.50
-0.99
-1.49
-2.18
-3.14
-4.34
-5.59
-6.58
-6.96
-6.43
-4.87
-2.46
0.37
3.08
5.25
6.76
7.79
8.67
9.64
10.69
11.62
12.17
12.22
11.89
11.48
11.28
11.42
11.77
12.03
11.84
10.95
9.36
7.32
5.30
3.81
3.23
3.69
5.01
6.81
8.63
10.09
10.97
11.14
10.54
9.14
6.94
4.04
0.67
-2.90
-6.38
-9.56
-12.24
-14.31
-15.70
-16.47
-16.87
-17.32
-18.27
-19.99
-22.44
-25.18
-27.64
-29.29
-29.97
-29.88
-29.51
-29.40
-29.92
-31.14
-32.80
-34.35
-35.09
-34.22
-31.12
-25.53
-17.74
-8.62
0.55
8.48
14.34
18.01
20.07
21.43
22.87
24.67
26.60
28.12
28.73
28.19
26.60
24.28
21.58
18.88
16.39
14.16
12.00
9.51
6.29
2.17
-2.52
-6.94
-10.06
-11.11
-10.00
-7.35
-4.11
-1.12
1.22
3.01
4.57
6.08
7.52
8.70
9.53
10.15
10.97
12.36
14.50
17.23
20.05
22.32
23.49
23.27
21.79
19.57
17.34
15.82
15.47
16.21
17.50
18.52
18.47
16.92
13.98
10.18
6.32
3.07
0.77
-0.63
-1.55
-2.54
-4.07
-6.30
-9.11
-12.02
-14.38
-15.56
-15.08
-12.83
-9.11
-4.60
-0.07
3.76
6.46
8.01
8.74
9.10
9.58
10.42
11.61
12.98
14.26
15.28
16.02
16.56
17.06
17.55
17.95
18.05
17.61
16.52
14.85
12.82
10.73
8.90
7.52
6.62
6.11
5.81
5.48
4.90
3.92
2.47
0.59
-1.65
-4.13
-6.67
-9.01
-10.87
-11.93
-12.05
-11.36
-10.30
-9.52
-9.67
-11.11
-13.89
-17.64
-21.80
-25.71
-28.83
-30.74
-31.16
-29.99
-27.31
-23.38
-18.65
-13.67
-8.98
-5.00
-1.91
0.30
1.85
3.01
3.99
4.87
5.62
6.14
6.38
6.40
6.34
6.38
6.68
7.25
7.98
8.69
9.19
9.37
9.25
8.91
8.45
7.95
7.39
6.72
5.85
4.76
3.43
1.93
0.35
-1.19
-2.55
-3.54
-4.02
-3.89
-3.24
-2.24
-1.16
-0.30
0.16
0.19
-0.06
-0.31
-0.21
0.52
2.03
4.25
6.89
9.50
11.56
12.61
12.45
11.20
9.24
7.13
5.39
4.28
3.80
3.70
3.64
3.38
2.90
2.33
1.88
1.72
1.89
2.33
2.93
3.63
4.47
5.56
7.01
8.84
10.92
12.97
14.63
15.56
15.59
14.75
13.26
11.46
9.74
8.35
7.38
6.69
5.96
4.82
2.96
0.30
-3.02
-6.75
-10.64
-14.56
-18.39
-22.02
-25.13
-27.32
-28.23
-27.77
-26.26
-24.38
-22.91
-22.44
-23.15
-24.76
-26.84
-28.99
-31.05
-33.12
-35.34
-37.68
-39.71
-40.74
-40.00
-37.03
-31.90
-25.25
-18.16
-11.72
-6.76
-3.60
-2.05
-1.59
-1.64
-1.69
-1.43
-0.69
0.63
2.56
5.10
8.17
11.65
15.37
19.20
23.07
26.92
30.62
33.94
36.52
38.14
38.77
38.63
38.09
37.51
36.99
36.35
35.29
33.50
30.86
27.44
23.39
18.84
13.82
8.33
2.47
-3.43
-8.89
-13.41
-16.67
-18.70
-19.82
-20.48
-21.06
-21.72
-22.41
-23.03
-23.60
-24.22
-25.07
-26.22
-27.46
-28.34
-28.27
-26.71
-23.45
-18.64
-12.82
-6.77
-1.25
3.18
6.31
8.28
9.48
10.32
11.09
11.87
12.59
13.10
13.30
13.17
12.83
12.41
12.06
11.94
12.12
12.57
13.14
13.57
13.57
12.91
11.60
9.84
7.99
6.39
5.21
4.37
3.63
2.70
1.43
-0.10
-1.61
-2.79
-3.47
-3.78
-4.10
-4.92
-6.65
-9.37
-12.81
-16.47
-19.84
-22.60
-24.63
-26.03
-26.93
-27.39
-27.37
-26.77
-25.49
-23.52
-20.95
-17.88
-14.41
-10.71
-6.98
-3.46
-0.47
1.72
2.94
3.17
2.56
1.34
-0.12
-1.43
-2.20
-2.14
-1.15
0.58
2.66
4.62
6.12
7.03
7.41
7.50
7.49
7.56
7.77
8.14
8.64
9.20
9.68
9.97
9.97
9.64
9.08
8.39
7.73
7.12
6.52
5.78
4.79
3.46
1.86
0.13
-1.51
-2.91
-4.08
-5.21
-6.54
-8.32
-10.54
-13.03
-15.38
-17.15
-18.00
-17.69
-16.17
-13.55
-10.03
-5.92
-1.60
2.53
6.14
8.93
10.80
11.71
11.77
11.17
10.18
9.17
8.43
8.18
8.44
9.05
9.79
10.46
11.02
11.55
12.15
12.84
13.52
14.05
14.32
14.31
14.12
13.85
13.49
12.91
11.83
10.00
7.26
3.68
-0.48
-4.87
-9.14
-13.08
-16.55
-19.54
-22.00
-23.89
-25.17
-25.85
-26.04
-25.98
-25.99
-26.37
-27.37
-29.05
-31.23
-33.44
-35.09
-35.53
-34.29
-31.23
-26.63
-21.13
-15.48
-10.37
-6.20
-3.06
-0.76
1.02
2.55
4.01
5.45
6.76
7.84
8.61
9.10
9.45
9.81
10.30
10.90
11.50
11.94
12.14
12.12
11.98
11.81
11.64
11.38
10.91
10.12
8.99
7.64
6.22
4.92
3.87
3.08
2.47
1.90
1.24
0.36
-0.74
-2.05
-3.44
-4.79
-6.01
-7.07
-8.06
-9.12
-10.43
-12.09
-14.16
-16.59
-19.25
-21.93
-24.29
-25.95
-26.49
-25.66
-23.48
-20.36
-16.91
-13.78
-11.30
-9.36
-7.54
-5.36
-2.59
0.63
3.85
6.68
8.93
10.68
12.11
13.27
14.00
13.94
12.85
10.76
8.03
5.21
2.78
0.97
-0.25
-1.01
-1.39
-1.34
-0.72
0.52
2.24
4.21
6.17
8.10
10.21
12.84
16.25
20.37
24.76
28.76
31.76
33.44
33.80
33.07
31.48
29.21
26.28
22.75
18.72
14.52
10.57
7.31
5.03
3.84
3.58
3.94
4.55
5.06
5.25
5.02
4.46
3.68
2.80
1.89
0.92
-0.18
-1.47
-2.96
-4.49
-5.75
-6.38
-6.00
-4.36
-1.39
2.82
7.97
13.62
19.28
24.49
28.86
32.15
34.25
35.25
35.35
34.85
33.98
32.83
31.32
29.21
26.25
22.24
17.02
10.59
3.02
-5.47
-14.49
-23.44
-31.65
-38.42
-43.29
-46.13
-47.19
-46.99
-46.19
-45.40
-45.03
-45.20
-45.68
-45.98
-45.55
-43.95
-41.04
-37.00
-32.24
-27.22
-22.35
-17.91
-14.09
-10.97
-8.60
-6.90
-5.72
-4.80
-3.87
-2.78
-1.48
-0.03
1.47
2.98
4.44
5.82
7.10
8.19
9.06
9.71
10.24
10.72
11.17
11.53
11.60
11.22
10.32
8.98
7.44
5.96
4.69
3.70
2.95
2.37
1.96
1.72
1.61
1.52
1.34
0.95
0.32
-0.48
-1.33
-2.17
-3.04
-4.08
-5.50
-7.43
-9.87
-12.62
-15.22
-17.09
-17.64
-16.57
-13.94
-10.21
-6.04
-2.09
1.22
3.76
5.61
6.92
7.82
8.37
8.60
8.52
8.23
7.85
7.55
7.47
7.70
8.20
8.83
9.36
9.67
9.75
9.72
9.75
9.93
10.16
10.25
9.97
9.21
8.03
6.64
5.30
4.19
3.38
2.80
2.28
1.65
0.80
-0.27
-1.42
-2.50
-3.35
-3.97
-4.49
-5.20
-6.34
-8.10
-10.43
-13.15
-15.90
-18.27
-19.85
-20.32
-19.51
-17.45
-14.40
-10.74
-6.92
-3.35
-0.30
2.14
3.99
5.35
6.36
7.11
7.69
8.12
8.44
8.70
9.02
9.54
10.32
11.37
12.49
13.42
13.96
14.01
13.71
13.32
13.07
13.05
13.16
13.12
12.66
11.61
10.02
8.13
6.19
4.40
2.78
1.22
-0.40
-2.13
-3.87
-5.47
-6.76
-7.70
-8.35
-8.83
-9.29
-9.85
-10.64
-11.78
-13.44
-15.62
-18.14
-20.55
-22.26
-22.71
-21.57
-18.86
-14.98
-10.55
-6.19
-2.42
0.49
2.49
3.72
4.39
4.74
4.89
4.93
4.86
4.63
4.21
3.61
2.90
2.29
2.08
2.61
4.15
6.70
9.94
13.27
16.08
17.92
18.77
18.92
18.84
18.85
19.00
19.01
18.51
17.23
15.14
12.46
9.55
6.69
4.08
1.75
-0.34
-2.21
-3.85
-5.19
-6.22
-6.96
-7.58
-8.29
-9.22
-10.40
-11.66
-12.79
-13.60
-13.98
-14.01
-13.75
-13.25
-12.44
-11.22
-9.49
-7.27
-4.71
-2.06
0.46
2.69
4.57
6.11
7.38
8.41
9.25
9.87
10.25
10.30
9.95
9.20
8.11
6.88
5.72
4.85
4.39
4.34
4.63
5.13
5.71
6.19
6.42
6.21
5.53
4.47
3.29
2.34
1.90
2.05
2.66
3.46
4.13
4.47
4.38
3.84
2.88
1.54
-0.14
-2.03
-4.00
-5.93
-7.75
-9.48
-11.22
-13.06
-15.03
-16.99
-18.63
-19.52
-19.26
-17.62
-14.68
-10.91
-6.98
-3.54
-0.99
0.70
1.82
2.80
3.95
5.35
6.82
8.12
9.03
9.47
9.50
9.26
8.92
8.62
8.39
8.18
7.93
7.55
7.01
6.38
5.77
5.28
4.91
4.56
4.10
3.45
2.62
1.73
0.93
0.32
-0.10
-0.44
-0.86
-1.53
-2.48
-3.65
-4.91
-6.10
-7.13
-8.06
-9.04
-10.31
-12.04
-14.16
-16.34
-18.09
-18.86
-18.28
-16.29
-13.13
-9.30
-5.35
-1.78
1.08
3.10
4.37
5.14
5.67
6.14
6.66
7.19
7.64
8.00
8.36
8.88
9.66
10.66
11.69
12.52
13.03
13.20
13.14
12.95
12.67
12.22
11.45
10.30
8.81
7.17
5.64
4.44
3.68
3.33
3.22
3.14
2.87
2.27
1.29
-0.01
-1.52
-3.15
-4.79
-6.35
-7.83
-9.19
-10.50
-11.80
-13.21
-14.76
-16.43
-18.07
-19.40
-20.08
-19.81
-18.42
-15.98
-12.76
-9.21
-5.75
-2.77
-0.41
1.33
2.63
3.70
4.73
5.79
6.87
7.85
8.60
9.06
9.21
9.16
9.01
8.86
8.79
8.76
8.78
8.80
8.78
8.69
8.48
8.09
7.52
6.84
6.18
5.71
5.48
5.47
5.52
5.46
5.17
4.67
4.05
3.40
2.79
2.17
1.42
0.46
-0.78
-2.26
-3.91
-5.60
-7.19
-8.55
-9.63
-10.43
-11.01
-11.58
-12.35
-13.51
-15.09
-16.91
-18.55
-19.43
-19.06
-17.20
-14.02
-10.03
-5.94
-2.39
0.23
1.86
2.68
3.03
3.22
3.49
3.94
4.58
5.33
6.06
6.65
7.07
7.33
7.50
7.65
7.82
7.93
7.96
7.88
7.77
7.67
7.64
7.62
7.52
7.21
6.65
5.91
5.12
4.47
4.03
3.77
3.53
3.16
2.61
1.92
1.20
0.54
-0.05
-0.68
-1.48
-2.54
-3.81
-5.18
-6.53
-7.77
-8.92
-10.02
-11.14
-12.31
-13.56
-14.91
-16.34
-17.75
-18.93
-19.55
-19.23
-17.73
-15.00
-11.28
-7.02
-2.77
0.99
3.98
6.12
7.53
8.44
9.02
9.43
9.66
9.71
9.55
9.25
8.89
8.64
8.61
8.85
9.30
9.82
10.29
10.57
10.64
10.45
10.01
9.31
8.34
7.13
5.78
4.51
3.49
2.87
2.64
2.64
2.66
2.49
2.03
1.31
0.47
-0.36
-1.08
-1.67
-2.17
-2.69
-3.26
-3.90
-4.59
-5.33
-6.11
-6.92
-7.79
-8.69
-9.64
-10.73
-12.02
-13.56
-15.27
-16.83
-17.73
-17.48
-15.79
-12.74
-8.85
-4.80
-1.27
1.34
2.99
3.86
4.25
4.40
4.44
4.47
4.55
4.72
5.03
5.43
5.82
6.08
6.16
6.09
6.01
6.09
6.43
7.02
7.74
8.43
8.90
9.05
8.85
8.35
7.68
6.98
6.33
5.79
5.33
4.90
4.43
3.92
3.38
2.85
2.31
1.76
1.17
0.49
-0.33
-1.34
-2.55
-3.98
-5.53
-7.05
-8.34
-9.25
-9.75
-9.97
-10.19
-10.67
-11.67
-13.21
-15.09
-16.92
-18.18
-18.38
-17.20
-14.63
-10.93
-6.63
-2.35
1.31
4.01
5.65
6.40
6.51
6.29
5.95
5.63
5.47
5.52
5.86
6.46
7.25
8.06
8.75
9.18
9.30
9.17
8.87
8.48
8.09
7.74
7.43
7.09
6.70
6.19
5.58
4.90
4.18
3.40
2.50
1.42
0.16
-1.17
-2.40
-3.31
-3.84
-4.00
-3.92
-3.82
-3.89
-4.30
-5.12
-6.36
-7.90
-9.46
-10.72
-11.36
-11.25
-10.52
-9.54
-8.81
-8.75
-9.50
-10.83
-12.18
-12.87
-12.38
-10.57
-7.73
-4.48
-1.49
0.76
2.14
2.79
3.00
3.00
2.91
2.72
2.41
2.07
1.87
2.02
2.65
3.74
5.09
6.43
7.51
8.21
8.59
8.82
9.10
9.55
10.10
10.58
10.78
10.53
9.76
8.54
6.98
5.22
3.37
1.56
-0.11
-1.53
-2.63
-3.39
-3.87
-4.16
-4.40
-4.65
-5.00
-5.46
-5.98
-6.54
-7.08
-7.57
-8.01
-8.47
-9.03
-9.82
-10.93
-12.36
-14.02
-15.62
-16.72
-16.85
-15.64
-12.99
-9.21
-4.93
-0.91
2.23
4.22
5.11
5.22
4.98
4.71
4.59
4.67
4.91
5.22
5.58
5.96
6.37
6.82
7.33
7.86
8.39
8.87
9.26
9.55
9.75
9.83
9.76
9.45
8.84
7.94
6.85
5.75
4.82
4.22
4.00
4.07
4.22
4.23
3.91
3.18
2.11
0.85
-0.43
-1.64
-2.78
-3.88
-4.98
-6.05
-7.05
-7.90
-8.61
-9.23
-9.89
-10.70
-11.82
-13.30
-15.13
-17.13
-18.92
-20.00
-19.86
-18.19
-15.06
-10.92
-6.46
-2.33
1.03
3.49
5.13
6.19
6.84
7.24
7.45
7.54
7.56
7.59
7.66
7.80
8.03
8.31
8.60
8.85
9.02
9.10
9.13
9.17
9.25
9.37
9.45
9.34
8.94
8.22
7.29
6.30
5.45
4.80
4.33
3.85
3.25
2.45
1.54
0.67
-0.01
-0.49
-0.87
-1.33
-2.00
-2.87
-3.81
-4.64
-5.23
-5.60
-5.85
-6.14
-6.63
-7.43
-8.62
-10.25
-12.28
-14.53
-16.65
-18.14
-18.52
-17.51
-15.19
-11.95
-8.39
-5.07
-2.32
-0.28
1.19
2.26
3.13
3.91
4.69
5.51
6.37
7.23
8.01
8.62
9.00
9.19
9.28
9.42
9.71
10.15
10.68
11.13
11.37
11.31
10.97
10.42
9.74
8.97
8.16
7.31
6.45
5.59
4.73
3.86
2.93
1.93
0.89
-0.13
-1.01
-1.73
-2.32
-2.86
-3.46
-4.21
-5.14
-6.23
-7.39
-8.56
-9.71
-10.91
-12.28
-13.93
-15.84
-17.80
-19.36
-19.99
-19.25
-17.02
-13.51
-9.26
-4.90
-1.02
2.03
4.11
5.28
5.65
5.44
4.90
4.31
3.97
4.06
4.64
5.59
6.68
7.70
8.51
9.10
9.54
9.94
10.36
10.77
11.10
11.25
11.17
10.88
10.47
10.04
9.66
9.33
8.99
8.56
7.95
7.18
6.26
5.27
4.24
3.22
2.20
1.20
0.24
-0.69
-1.56
-2.38
-3.19
-3.99
-4.79
-5.58
-6.37
-7.16
-8.03
-9.08
-10.39
-12.02
-13.91
-15.87
-17.62
-18.81
-19.14
-18.42
-16.62
-13.92
-10.67
-7.28
-4.10
-1.38
0.83
2.55
3.86
4.84
5.53
6.00
6.32
6.59
6.87
7.21
7.59
7.97
8.31
8.59
8.84
9.10
9.37
9.65
9.88
9.97
9.83
9.39
8.65
7.70
6.72
5.88
5.32
5.06
4.99
4.94
4.72
4.22
3.49
2.67
1.93
1.36
0.95
0.53
-0.08
-0.98
-2.15
-3.45
-4.68
-5.69
-6.48
-7.17
-7.94
-8.95
-10.27
-11.88
-13.68
-15.57
-17.38
-18.90
-19.82
-19.78
-18.51
-15.94
-12.33
-8.19
-4.16
-0.78
1.66
3.17
4.01
4.52
4.97
5.48
6.05
6.57
7.00
7.35
7.66
8.01
8.44
8.91
9.37
9.78
10.11
10.37
10.57
10.67
10.64
10.46
10.15
9.72
9.19
8.53
7.72
6.78
5.78
4.83
4.07
3.55
3.24
3.05
2.88
2.65
2.32
1.88
1.32
0.65
-0.18
-1.17
-2.32
-3.57
-4.88
-6.21
-7.55
-8.94
-10.46
-12.15
-14.03
-15.98
-17.79
-19.08
-19.44
-18.51
-16.15
-12.59
-8.33
-4.08
-0.45
2.21
3.88
4.80
5.27
5.54
5.70
5.74
5.68
5.55
5.43
5.39
5.47
5.69
6.03
6.50
7.10
7.83
8.64
9.46
10.20
10.81
11.23
11.41
11.28
10.82
10.06
9.10
8.05
7.01
5.99
4.94
3.80
2.61
1.49
0.56
-0.09
-0.57
-1.06
-1.76
-2.76
-3.96
-5.15
-6.14
-6.83
-7.32
-7.82
-8.59
-9.78
-11.46
-13.57
-15.98
-18.43
-20.59
-22.02
-22.32
-21.20
-18.62
-14.84
-10.38
-5.89
-1.94
1.11
3.21
4.53
5.37
6.02
6.63
7.19
7.62
7.87
7.97
8.05
8.27
8.72
9.31
9.89
10.30
10.49
10.54
10.58
10.72
10.93
11.07
10.95
10.48
9.69
8.70
7.69
6.77
6.00
5.35
4.78
4.22
3.63
2.99
2.29
1.60
0.97
0.42
-0.09
-0.69
-1.51
-2.64
-4.10
-5.76
-7.42
-8.88
-9.97
-10.69
-11.13
-11.52
-12.09
-13.06
-14.52
-16.31
-18.08
-19.34
-19.61
-18.59
-16.30
-13.07
-9.51
-6.22
-3.64
-1.92
-0.90
-0.22
0.53
1.61
3.12
4.92
6.76
8.37
9.55
10.27
10.69
11.06
11.61
12.44
13.49
14.55
15.39
15.84
15.84
15.39
14.55
13.37
11.89
10.20
8.42
6.73
5.27
4.14
3.35
2.83
2.47
2.10
1.57
0.74
-0.48
-2.11
-4.02
-6.02
-7.91
-9.51
-10.78
-11.76
-12.63
-13.54
-14.65
-16.03
-17.66
-19.46
-21.22
-22.65
-23.41
-23.23
-21.97
-19.72
-16.75
-13.39
-9.90
-6.40
-2.89
0.63
4.04
7.12
9.57
11.14
11.76
11.57
10.86
9.94
9.03
8.21
7.45
6.74
6.15
5.87
6.11
7.10
8.98
11.74
15.21
19.00
22.56
25.20
26.28
25.40
22.57
18.29
13.35
8.56
4.56
1.60
-0.35
-1.44
-1.82
-1.53
-0.69
0.47
1.57
2.20
2.03
1.01
-0.63
-2.48
-4.13
-5.34
-6.15
-6.79
-7.57
-8.62
-9.84
-10.85
-11.18
-10.43
-8.53
-5.73
-2.48
0.69
3.39
5.44
6.81
7.57
7.82
7.64
7.12
6.42
5.69
5.11
4.78
4.77
5.01
5.44
5.94
6.43
6.86
7.19
7.39
7.43
7.26
6.84
6.16
5.28
4.28
3.26
2.32
1.46
0.68
-0.03
-0.65
-1.12
-1.38
-1.42
-1.29
-1.17
-1.20
-1.52
-2.11
-2.88
-3.68
-4.43
-5.11
-5.87
-6.87
-8.25
-10.05
-12.18
-14.42
-16.51
-18.11
-18.88
-18.55
-17.05
-14.59
-11.65
-8.92
-7.00
-6.22
-6.53
-7.60
-9.04
-10.54
-11.93
-13.14
-14.09
-14.59
-14.49
-13.78
-12.63
-11.43
-10.61
-10.50
-11.20
-12.63
-14.50
-16.42
-17.97
-18.79
-18.68
-17.73
-16.24
-14.64
-13.30
-12.38
-11.80
-11.38
-10.91
-10.36
-9.81
-9.33
-8.86
-8.03
-6.16
-2.40
3.89
12.69
22.94
32.72
39.77
42.43
40.44
35.12
28.89
24.23
22.76
24.75
29.32
35.09
40.77
45.42
48.50
49.77
49.35
47.85
46.41
46.30
48.31
52.18
56.48
59.12
58.33
53.47
45.36
35.87
27.06
20.29
15.90
13.32
11.62
9.95
7.71
4.46
-0.19
-6.56
-14.56
-23.58
-32.42
-39.68
-44.29
-45.95
-45.16
-42.93
-40.33
-38.00
-36.09
-34.40
-32.63
-30.61
-28.34
-25.97
-23.63
-21.38
-19.28
-17.35
-15.68
-14.27
-13.09
-12.04
-11.07
-10.26
-9.77
-9.80
-10.39
-11.35
-12.35
-13.10
-13.50
-13.61
-13.51
-13.07
-11.85
-9.23
-4.75
1.68
9.49
17.65
24.82
29.75
31.60
30.08
25.54
18.88
11.30
3.99
-2.08
-6.48
-9.25
-10.79
-11.63
-12.15
-12.53
-12.68
-12.48
-11.86
-10.96
-10.02
-9.34
-9.07
-9.14
-9.31
-9.28
-8.91
-8.27
-7.63
-7.29
-7.41
-7.90
-8.44
-8.64
-8.19
-7.11
-5.66
-4.24
-3.22
-2.70
-2.58
-2.56
-2.43
-2.13
-1.79
-1.70
-2.09
-3.07
-4.64
-6.69
-9.07
-11.53
-13.79
-15.51
-16.33
-15.99
-14.45
-11.92
-8.74
-5.33
-2.03
0.96
3.55
5.74
7.54
8.93
9.94
10.61
11.04
11.32
11.50
11.62
11.68
11.74
11.90
12.26
12.90
13.69
14.41
14.78
14.59
13.81
12.63
11.34
10.22
9.39
8.86
8.53
8.28
8.04
7.72
7.25
6.57
5.66
4.57
3.40
2.25
1.16
0.15
-0.87
-1.88
-2.89
-3.89
-4.94
-6.18
-7.75
-9.77
-12.19
-14.84
-17.38
-19.41
-20.57
-20.56
-19.21
-16.51
-12.69
-8.12
-3.36
1.05
4.65
7.18
8.63
9.24
9.32
9.14
8.86
8.47
7.91
7.14
6.22
5.31
4.61
4.21
4.09
4.14
4.28
4.50
4.84
5.34
5.98
6.59
6.96
6.92
6.41
5.52
4.42
3.28
2.19
1.14
0.09
-1.00
-2.15
-3.27
-4.28
-5.11
-5.76
-6.32
-6.95
-7.80
-8.96
-10.36
-11.80
-12.94
-13.40
-12.87
-11.22
-8.57
-5.31
-1.92
1.09
3.36
4.78
5.49
5.72
5.74
5.69
5.60
5.43
5.13
4.72
4.28
3.97
3.91
4.17
4.70
5.37
6.01
6.44
6.58
6.37
5.85
5.11
4.27
3.46
2.76
2.19
1.73
1.32
0.90
0.38
-0.29
-1.16
-2.24
-3.51
-4.90
-6.28
-7.54
-8.60
-9.47
-10.29
-11.22
-12.39
-13.84
-15.43
-16.85
-17.68
-17.52
-16.15
-13.63
-10.30
-6.64
-3.14
-0.17
2.14
3.83
5.03
5.88
6.48
6.84
6.98
6.90
6.65
6.35
6.14
6.15
6.42
6.90
7.41
7.72
7.70
7.38
6.93
6.53
6.32
6.22
6.05
5.61
4.79
3.72
2.63
1.77
1.26
1.03
0.86
0.52
-0.11
-1.02
-2.03
-2.97
-3.70
-4.20
-4.57
-4.96
-5.54
-6.48
-7.84
-9.57
-11.52
-13.40
-14.84
-15.43
-14.92
-13.19
-10.45
-7.09
-3.65
-0.59
1.82
3.56
4.74
5.56
6.16
6.62
6.97
7.25
7.53
7.86
8.24
8.58
8.77
8.72
8.46
8.12
7.88
7.86
8.06
8.40
8.72
8.84
8.66
8.17
7.42
6.52
5.58
4.71
3.95
3.31
2.76
2.22
1.62
0.88
-0.04
-1.12
-2.27
-3.35
-4.18
-4.70
-4.96
-5.09
-5.30
-5.78
-6.66
-8.01
-9.82
-11.93
-13.99
-15.51
-16.01
-15.17
-13.00
-9.85
-6.29
-2.93
-0.16
1.88
3.31
4.38
5.27
6.10
6.82
7.30
7.48
7.34
7.01
6.69
6.60
6.83
7.30
7.80
8.10
8.10
7.86
7.59
7.49
7.67
8.00
8.23
8.11
7.54
6.60
5.50
4.45
3.56
2.78
1.99
1.14
0.25
-0.54
-1.14
-1.54
-1.85
-2.27
-2.95
-3.94
-5.12
-6.32
-7.40
-8.33
-9.21
-10.25
-11.63
-13.45
-15.63
-17.89
-19.84
-21.04
-21.11
-19.88
-17.40
-13.96
-10.01
-6.03
-2.44
0.50
2.68
4.15
5.03
5.49
5.73
5.90
6.13
6.46
6.84
7.21
7.51
7.77
8.06
8.42
8.85
9.27
9.51
9.46
9.08
8.50
7.85
7.29
6.83
6.39
5.82
5.02
3.97
2.77
1.60
0.63
-0.07
-0.48
-0.70
-0.84
-1.03
-1.37
-1.93
-2.72
-3.71
-4.84
-6.05
-7.28
-8.46
-9.54
-10.48
-11.32
-12.10
-12.92
-13.80
-14.63
-15.11
-14.87
-13.57
-11.15
-7.89
-4.29
-0.90
1.87
3.91
5.33
6.29
6.91
7.20
7.13
6.67
5.90
4.99
4.13
3.53
3.34
3.61
4.28
5.17
6.02
6.63
6.91
6.90
6.77
6.63
6.51
6.34
6.01
5.46
4.75
4.00
3.36
2.91
2.63
2.45
2.27
1.98
1.54
0.92
0.11
-0.86
-1.93
-3.05
-4.12
-5.10
-5.95
-6.74
-7.56
-8.55
-9.83
-11.39
-13.09
-14.57
-15.42
-15.27
-13.93
-11.51
-8.36
-4.95
-1.72
1.02
3.14
4.59
5.38
5.57
5.23
4.53
3.72
3.02
2.60
2.51
2.69
3.04
3.48
3.99
4.55
5.19
5.86
6.47
6.88
7.02
6.81
6.30
5.56
4.69
3.81
2.99
2.28
1.68
1.13
0.53
-0.17
-0.98
-1.85
-2.67
-3.40
-4.00
-4.55
-5.19
-6.09
-7.37
-9.05
-11.04
-13.08
-14.81
-15.83
-15.82
-14.59
-12.25
-9.11
-5.66
-2.41
0.25
2.14
3.28
3.85
4.11
4.26
4.41
4.56
4.67
4.72
4.73
4.79
4.98
5.35
5.89
6.54
7.23
7.90
8.47
8.85
8.93
8.60
7.82
6.62
5.19
3.77
2.60
1.79
1.27
0.82
0.17
-0.82
-2.13
-3.56
-4.84
-5.78
-6.37
-6.78
-7.25
-7.97
-8.99
-10.28
-11.75
-13.25
-14.63
-15.64
-15.95
-15.23
-13.27
-10.15
-6.26
-2.22
1.35
4.00
5.62
6.34
6.49
6.39
6.26
6.21
6.27
6.43
6.68
6.99
7.37
7.73
7.99
8.08
7.96
7.67
7.34
7.09
6.99
7.04
7.11
7.02
6.67
5.99
5.07
4.10
3.26
2.66
2.26
1.89
1.33
0.40
-0.89
-2.37
-3.80
-4.99
-5.91
-6.67
-7.49
-8.60
-10.12
-12.03
-14.15
-16.19
-17.78
-18.55
-18.18
-16.55
-13.77
-10.17
-6.20
-2.36
0.96
3.53
5.31
6.38
6.90
7.10
7.13
7.11
7.09
7.10
7.15
7.25
7.41
7.60
7.77
7.85
7.81
7.66
7.49
7.44
7.53
7.69
7.70
7.29
6.33
4.95
3.51
2.50
2.30
2.96
4.16
5.34
5.93
5.62
4.45
2.74
0.89
-0.78
-2.15
-3.30
-4.36
-5.47
-6.75
-8.23
-9.94
-11.77
-13.51
-14.83
-15.37
-14.87
-13.29
-10.87
-8.00
-5.16
-2.73
-0.87
0.41
1.29
1.96
2.59
3.23
3.88
4.49
5.02
5.45
5.81
6.14
6.47
6.79
7.09
7.38
7.67
7.97
8.24
8.38
8.23
7.72
6.87
5.83
4.75
3.79
2.97
2.26
1.57
0.86
0.13
-0.61
-1.34
-2.08
-2.83
-3.58
-4.30
-5.00
-5.71
-6.61
-7.84
-9.47
-11.42
-13.41
-15.02
-15.82
-15.47
-13.88
-11.19
-7.79
-4.15
-0.72
2.16
4.32
5.74
6.48
6.67
6.45
6.02
5.59
5.37
5.47
5.89
6.53
7.18
7.67
7.89
7.87
7.71
7.56
7.52
7.61
7.76
7.85
7.71
7.28
6.55
5.60
4.56
3.54
2.60
1.76
1.01
0.36
-0.20
-0.70
-1.19
-1.76
-2.47
-3.33
-4.32
-5.35
-6.38
-7.42
-8.60
-10.06
-11.91
-14.09
-16.34
-18.17
-19.04
-18.50
-16.40
-12.93
-8.62
-4.13
-0.05
3.25
5.67
7.31
8.39
9.14
9.69
10.12
10.46
10.74
11.05
11.47
12.04
12.64
13.05
12.97
12.22
10.85
9.16
7.58
6.48
5.98
5.96
6.14
6.26
6.16
5.86
5.41
4.89
4.33
3.72
3.04
2.28
1.40
0.34
-0.95
-2.42
-3.99
-5.53
-6.88
-7.96
-8.73
-9.22
-9.49
-9.68
-9.94
-10.40
-11.13
-12.00
-12.69
-12.80
-11.99
-10.11
-7.31
-3.94
-0.49
2.65
5.19
7.03
8.22
8.93
9.35
9.63
9.88
10.12
10.33
10.54
10.80
11.18
11.67
12.18
12.51
12.50
12.06
11.29
10.38
9.51
8.79
8.15
7.45
6.61
5.61
4.56
3.58
2.79
2.18
1.66
1.09
0.39
-0.44
-1.30
-2.03
-2.52
-2.76
-2.89
-3.13
-3.75
-4.96
-6.86
-9.41
-12.39
-15.41
-18.02
-19.72
-20.10
-18.97
-16.45
-12.90
-8.88
-5.00
-1.75
0.60
2.04
2.80
3.20
3.59
4.14
4.88
5.67
6.35
6.80
7.01
7.08
7.13
7.27
7.50
7.77
7.99
8.14
8.27
8.41
8.56
8.61
8.37
7.67
6.46
4.83
3.07
1.50
0.41
-0.11
-0.15
0.03
0.13
-0.10
-0.79
-1.85
-3.11
-4.35
-5.41
-6.26
-6.99
-7.76
-8.71
-9.93
-11.45
-13.22
-15.10
-16.82
-18.01
-18.25
-17.23
-14.91
-11.57
-7.72
-3.97
-0.73
1.85
3.85
5.46
6.85
8.00
8.82
9.21
9.14
8.75
8.27
7.91
7.83
8.02
8.37
8.74
8.98
9.05
8.97
8.86
8.76
8.72
8.68
8.57
8.36
8.04
7.64
7.20
6.68
6.01
5.16
4.12
3.02
2.03
1.27
0.77
0.40
-0.02
-0.65
-1.58
-2.75
-4.08
-5.43
-6.71
-7.83
-8.81
-9.69
-10.62
-11.77
-13.26
-15.07
-16.93
-18.40
-18.97
-18.27
-16.18
-12.93
-9.01
-5.02
-1.50
1.22
3.10
4.30
5.03
5.49
5.75
5.82
5.67
5.38
5.06
4.90
5.03
5.47
6.14
6.88
7.51
7.91
8.07
8.05
8.01
8.02
8.09
8.09
7.85
7.26
6.37
5.34
4.40
3.73
3.35
3.15
2.97
2.65
2.10
1.27
0.18
-1.13
-2.58
-4.11
-5.60
-6.98
-8.26
-9.52
-10.88
-12.41
-14.11
-15.81
-17.21
-17.93
-17.66
-16.20
-13.65
-10.30
-6.64
-3.17
-0.24
1.97
3.51
4.49
5.06
5.33
5.36
5.21
4.97
4.79
4.79
5.04
5.54
6.18
6.87
7.52
8.08
8.55
8.93
9.19
9.29
9.14
8.69
7.93
6.94
5.83
4.73
3.76
2.95
2.29
1.72
1.17
0.55
-0.20
-1.14
-2.28
-3.54
-4.81
-5.97
-6.97
-7.83
-8.66
-9.58
-10.70
-12.06
-13.64
-15.30
-16.84
-17.97
-18.33
-17.68
-15.89
-13.12
-9.73
-6.24
-3.10
-0.58
1.29
2.63
3.66
4.49
5.17
5.68
5.93
5.94
5.80
5.68
5.74
6.06
6.59
7.21
7.76
8.14
8.31
8.31
8.19
7.99
7.69
7.25
6.66
5.93
5.13
4.35
3.66
3.14
2.79
2.58
2.40
2.07
1.41
0.35
-1.07
-2.64
-4.12
-5.30
-6.08
-6.59
-6.98
-7.49
-8.27
-9.41
-10.88
-12.58
-14.30
-15.74
-16.50
-16.23
-14.72
-12.05
-8.58
-4.87
-1.47
1.27
3.25
4.60
5.52
6.15
6.53
6.63
6.44
6.09
5.74
5.59
5.72
6.09
6.57
7.01
7.33
7.54
7.68
7.77
7.79
7.65
7.28
6.65
5.84
4.97
4.15
3.41
2.73
2.04
1.34
0.68
0.14
-0.26
-0.54
-0.81
-1.18
-1.72
-2.39
-3.14
-3.91
-4.70
-5.56
-6.60
-7.89
-9.47
-11.36
-13.47
-15.61
-17.46
-18.57
-18.56
-17.24
-14.69
-11.24
-7.39
-3.59
-0.20
2.59
4.76
6.30
7.29
7.79
7.90
7.71
7.31
6.83
6.39
6.13
6.13
6.38
6.76
7.11
7.28
7.27
7.14
7.01
6.93
6.82
6.53
5.90
4.91
3.71
2.50
1.48
0.72
0.12
-0.50
-1.32
-2.42
-3.78
-5.23
-6.64
-7.94
-9.15
-10.38
-11.70
-13.14
-14.64
-16.14
-17.48
-18.52
-19.04
-18.76
-17.41
-14.88
-11.32
-7.17
-3.07
0.43
2.99
4.65
5.68
6.37
6.94
7.40
7.66
7.64
7.38
7.01
6.76
6.78
7.11
7.68
8.30
8.83
9.17
9.34
9.42
9.48
9.55
9.53
9.27
8.65
7.64
6.31
4.82
3.36
2.05
0.92
-0.12
-1.22
-2.48
-3.93
-5.46
-6.91
-8.10
-8.97
-9.61
-10.20
-11.01
-12.20
-13.84
-15.80
-17.82
-19.54
-20.52
-20.37
-18.86
-16.05
-12.24
-7.99
-3.88
-0.38
2.29
4.16
5.41
6.24
6.81
7.16
7.31
7.26
7.08
6.85
6.71
6.78
7.10
7.67
8.38
9.10
9.68
10.02
10.10
9.97
9.69
9.37
9.02
8.61
8.09
7.40
6.58
5.71
4.92
4.28
3.76
3.25
2.59
1.71
0.62
-0.57
-1.70
-2.72
-3.63
-4.56
-5.64
-6.97
-8.61
-10.54
-12.74
-15.10
-17.44
-19.45
-20.69
-20.76
-19.40
-16.63
-12.78
-8.40
-4.11
-0.43
2.34
4.16
5.19
5.69
5.93
6.12
6.31
6.50
6.62
6.65
6.69
6.90
7.38
8.17
9.10
9.95
10.57
10.89
11.00
11.05
11.13
11.16
10.97
10.42
9.47
8.26
7.01
5.89
4.95
4.10
3.17
2.04
0.67
-0.83
-2.31
-3.67
-4.86
-5.93
-6.95
-8.01
-9.17
-10.49
-12.03
-13.81
-15.74
-17.56
-18.88
-19.24
-18.33
-16.05
-12.66
-8.67
-4.70
-1.28
1.30
3.02
4.06
4.67
5.10
5.47
5.84
6.20
6.55
6.95
7.39
7.89
8.39
8.85
9.25
9.62
10.01
10.44
10.86
11.12
11.07
10.55
9.55
8.16
6.55
4.92
3.44
2.22
1.26
0.51
-0.11
-0.77
-1.54
-2.49
-3.61
-4.80
-5.98
-7.11
-8.22
-9.50
-11.16
-13.40
-16.19
-19.23
-21.94
-23.63
-23.75
-22.08
-18.86
-14.69
-10.31
-6.38
-3.21
-0.82
1.01
2.57
4.02
5.33
6.31
6.74
6.49
5.66
4.53
3.50
2.92
2.98
3.65
4.77
6.03
7.16
7.90
8.11
7.78
6.96
5.79
4.44
3.05
1.80
0.92
0.59
0.95
2.00
3.44
4.85
5.77
5.91
5.27
4.09
2.71
1.39
0.19
-1.01
-2.40
-4.14
-6.33
-8.98
-12.00
-15.21
-18.23
-20.53
-21.55
-20.87
-18.38
-14.40
-9.61
-4.83
-0.74
2.29
4.29
5.53
6.38
7.08
7.67
8.11
8.35
8.42
8.47
8.64
9.01
9.55
10.14
10.69
11.20
11.73
12.39
13.22
14.14
14.97
15.52
15.61
15.19
14.31
13.12
11.81
10.56
9.46
8.51
7.62
6.62
5.37
3.83
2.01
0.06
-1.87
-3.63
-5.20
-6.58
-7.92
-9.34
-10.99
-12.94
-15.12
-17.29
-19.10
-20.12
-20.05
-18.78
-16.47
-13.46
-10.23
-7.17
-4.53
-2.39
-0.63
0.86
2.24
3.59
4.88
6.05
7.01
7.71
8.16
8.42
8.58
8.71
8.86
9.09
9.42
9.86
10.36
10.81
11.05
10.91
10.34
9.36
8.11
6.74
5.40
4.12
2.88
1.61
0.25
-1.20
-2.67
-4.07
-5.33
-6.38
-7.20
-7.82
-8.33
-8.90
-9.76
-11.18
-13.29
-16.06
-19.13
-21.86
-23.52
-23.48
-21.49
-17.76
-12.91
-7.72
-2.95
0.95
3.87
5.94
7.41
8.50
9.30
9.80
9.99
9.87
9.58
9.30
9.22
9.45
9.95
10.58
11.18
11.68
12.08
12.47
12.91
13.37
13.75
13.86
13.57
12.82
11.63
10.11
8.43
6.80
5.43
4.45
3.89
3.61
3.31
2.70
1.58
-0.02
-1.84
-3.52
-4.80
-5.64
-6.24
-6.99
-8.27
-10.30
-13.08
-16.40
-19.88
-22.97
-25.14
-25.86
-24.87
-22.19
-18.21
-13.61
-9.08
-5.15
-2.09
0.12
1.70
2.81
3.61
4.18
4.55
4.82
5.09
5.44
5.94
6.61
7.39
8.26
9.22
10.30
11.53
12.91
14.36
15.74
16.83
17.43
17.43
16.82
15.70
14.31
12.87
11.60
10.58
9.76
8.98
8.11
7.09
6.02
5.08
4.42
4.06
3.87
3.63
3.11
2.21
0.98
-0.47
-2.01
-3.62
-5.34
-7.29
-9.57
-12.27
-15.31
-18.49
-21.41
-23.56
-24.48
-23.85
-21.62
-18.05
-13.64
-8.97
-4.59
-0.89
1.98
4.01
5.32
6.06
6.36
6.34
6.13
5.86
5.69
5.82
6.32
7.19
8.27
9.34
10.17
10.66
10.87
10.94
11.04
11.23
11.45
11.52
11.24
10.53
9.43
8.12
6.77
5.53
4.44
3.45
2.47
1.43
0.36
-0.75
-1.81
-2.78
-3.66
-4.45
-5.24
-6.14
-7.26
-8.68
-10.45
-12.57
-14.98
-17.54
-20.01
-22.01
-23.07
-22.73
-20.71
-17.12
-12.39
-7.23
-2.39
1.55
4.36
6.09
7.04
7.51
7.73
7.80
7.71
7.47
7.13
6.84
6.79
7.14
7.92
9.04
10.30
11.48
12.42
13.05
13.36
13.37
13.08
12.50
11.68
10.69
9.68
8.75
7.90
7.05
6.07
4.88
3.58
2.31
1.26
0.47
-0.14
-0.81
-1.74
-3.02
-4.61
-6.32
-7.97
-9.48
-10.85
-12.19
-13.61
-15.22
-17.12
-19.36
-21.83
-24.27
-26.17
-26.91
-25.98
-23.15
-18.67
-13.20
-7.63
-2.76
0.94
3.36
4.74
5.45
5.83
6.10
6.40
6.77
7.28
7.99
8.88
9.92
10.99
11.95
12.69
13.19
13.47
13.62
13.73
13.82
13.87
13.79
13.48
12.86
11.91
10.71
9.36
8.01
6.71
5.51
4.40
3.37
2.46
1.73
1.17
0.71
0.19
-0.63
-1.83
-3.40
-5.13
-6.76
-8.09
-9.10
-9.90
-10.73
-11.81
-13.29
-15.22
-17.51
-19.88
-21.90
-23.03
-22.80
-20.96
-17.64
-13.34
-8.76
-4.55
-1.10
1.49
3.38
4.81
5.93
6.80
7.43
7.84
8.13
8.48
9.01
9.75
10.61
11.39
11.90
12.01
11.78
11.37
11.01
10.87
10.93
11.03
10.93
10.44
9.51
8.29
7.01
5.89
5.02
4.34
3.67
2.80
1.65
0.24
-1.31
-2.85
-4.27
-5.50
-6.58
-7.60
-8.66
-9.92
-11.50
-13.47
-15.78
-18.24
-20.44
-21.86
-21.97
-20.50
-17.49
-13.35
-8.73
-4.30
-0.59
2.12
3.84
4.71
4.99
4.91
4.66
4.40
4.20
4.08
4.05
4.05
4.10
4.22
4.48
4.92
5.54
6.26
6.95
7.45
7.65
7.48
6.95
6.16
5.21
4.19
3.17
2.19
1.23
0.21
-0.96
-2.32
-3.85
-5.42
-6.85
-8.05
-9.06
-10.06
-11.33
-13.06
-15.23
-17.54
-19.48
-20.48
-20.12
-18.24
-15.02
-10.91
-6.46
-2.19
1.53
4.51
6.78
8.47
9.78
10.95
12.15
13.56
15.23
17.15
19.14
20.97
22.43
23.42
24.04
24.53
25.20
26.18
27.42
28.65
29.52
29.71
29.06
27.56
25.35
22.60
19.48
16.12
12.60
9.01
5.43
1.97
-1.21
-3.99
-6.33
-8.27
-9.95
-11.50
-12.99
-14.41
-15.73
-17.00
-18.33
-19.85
-21.57
-23.28
-24.53
-24.82
-23.78
-21.33
-17.76
-13.63
-9.59
-6.20
-3.79
-2.34
-1.65
-1.35
-1.06
-0.56
0.25
1.31
2.51
3.79
5.12
6.48
7.82
8.99
9.84
10.27
10.29
10.06
9.72
9.39
9.00
8.42
7.48
6.10
4.39
2.49
0.56
-1.31
-3.11
-4.92
-6.74
-8.53
-10.19
-11.60
-12.75
-13.76
-14.86
-16.24
-17.96
-19.78
-21.20
-21.58
-20.31
-17.12
-12.13
-5.85
0.96
7.54
13.29
17.85
21.04
22.82
23.25
22.46
20.68
18.20
15.36
12.52
10.02
8.16
7.12
6.97
7.57
8.57
9.57
10.16
10.14
9.52
8.49
7.27
6.01
4.75
3.46
2.14
0.82
-0.39
-1.44
-2.36
-3.24
-4.17
-5.14
-6.07
-6.80
-7.22
-7.39
-7.51
-7.91
-8.88
-10.56
-12.81
-15.25
-17.34
-18.58
-18.69
-17.64
-15.73
-13.40
-11.11
-9.17
-7.69
-6.61
-5.80
-5.11
-4.51
-4.03
-3.72
-3.63
-3.70
-3.79
-3.71
-3.28
-2.47
-1.33
-0.08
1.03
1.84
2.27
2.39
2.30
2.11
1.87
1.59
1.22
0.75
0.14
-0.56
-1.28
-1.93
-2.42
-2.73
-2.94
-3.21
-3.72
-4.58
-5.78
-7.27
-8.95
-10.79
-12.82
-14.95
-16.91
-18.23
-18.39
-17.05
-14.24
-10.39
-6.16
-2.20
1.04
3.42
5.01
5.98
6.50
6.68
6.61
6.38
6.07
5.76
5.53
5.44
5.52
5.83
6.37
7.13
7.98
8.77
9.34
9.52
9.25
8.56
7.56
6.40
5.22
4.11
3.10
2.15
1.22
0.29
-0.65
-1.55
-2.37
-3.16
-3.96
-4.89
-6.05
-7.47
-9.13
-10.99
-13.00
-15.15
-17.33
-19.28
-20.62
-20.90
-19.76
-17.15
-13.36
-8.97
-4.65
-0.91
2.00
4.13
5.72
7.03
8.24
9.37
10.31
10.94
11.20
11.17
11.01
10.88
10.88
11.00
11.15
11.23
11.21
11.12
11.02
10.91
10.75
10.42
9.81
8.90
7.75
6.48
5.26
4.23
3.44
2.89
2.48
2.08
1.58
0.93
0.12
-0.87
-2.06
-3.57
-5.45
-7.71
-10.28
-13.01
-15.75
-18.45
-21.02
-23.32
-25.02
-25.71
-25.01
-22.75
-19.15
-14.71
-10.08
-5.81
-2.18
0.73
3.03
4.85
6.29
7.42
8.25
8.76
8.94
8.83
8.48
8.07
7.82
7.87
8.31
9.08
10.01
10.92
11.66
12.20
12.49
12.54
12.33
11.85
11.10
10.13
9.02
7.84
6.67
5.56
4.56
3.65
2.79
1.89
0.85
-0.38
-1.76
-3.16
-4.40
-5.36
-6.07
-6.65
-7.31
-8.24
-9.48
-11.01
-12.72
-14.52
-16.36
-18.12
-19.58
-20.35
-20.01
-18.31
-15.32
-11.42
-7.23
-3.38
-0.28
1.94
3.36
4.21
4.72
5.08
5.40
5.75
6.11
6.43
6.67
6.86
7.05
7.37
7.88
8.59
9.40
10.18
10.82
11.27
11.53
11.62
11.52
11.17
10.53
9.61
8.50
7.40
6.51
5.97
5.77
5.80
5.82
5.64
5.07
4.10
2.78
1.25
-0.36
-1.94
-3.44
-4.87
-6.29
-7.80
-9.47
-11.33
-13.40
-15.58
-17.72
-19.56
-20.74
-20.92
-19.83
-17.44
-14.02
-10.05
-6.13
-2.75
-0.18
1.60
2.79
3.63
4.30
4.83
5.19
5.33
5.30
5.23
5.26
5.44
5.75
6.11
6.45
6.74
7.01
7.29
7.48
7.41
6.88
5.73
3.99
1.88
-0.24
-1.97
-3.00
-3.22
-2.77
-1.98
-1.29
-1.09
-1.55
-2.63
-4.05
-5.51
-6.74
-7.72
-8.56
-9.47
-10.65
-12.16
-13.95
-15.83
-17.52
-18.65
-18.83
-17.78
-15.43
-11.96
-7.85
-3.69
-0.05
2.74
4.65
5.84
6.61
7.19
7.68
8.05
8.23
8.13
7.78
7.28
6.80
6.50
6.47
6.72
7.17
7.73
8.28
8.79
9.23
9.60
9.80
9.74
9.29
8.45
7.32
6.10
5.00
4.08
3.26
2.31
1.04
-0.59
-2.41
-4.10
-5.40
-6.22
-6.73
-7.30
-8.29
-9.98
-12.38
-15.26
-18.19
-20.64
-22.09
-22.17
-20.73
-17.95
-14.22
-10.09
-6.12
-2.70
-0.05
1.83
3.11
4.00
4.70
5.32
5.84
6.14
6.09
5.63
4.85
3.98
3.30
2.99
3.12
3.54
4.08
4.57
4.97
5.28
5.53
5.73
5.82
5.74
5.44
4.97
4.46
4.10
4.00
4.17
4.45
4.59
4.29
3.40
1.90
-0.03
-2.10
-3.99
-5.47
-6.48
-7.12
-7.64
-8.38
-9.59
-11.37
-13.53
-15.68
-17.29
-17.83
-16.99
-14.72
-11.27
-7.15
-2.92
0.87
3.83
5.77
6.74
6.97
6.79
6.56
6.56
7.00
7.93
9.30
10.96
12.64
14.05
14.93
15.10
14.55
13.45
12.12
10.91
10.14
9.97
10.35
11.04
11.70
11.95
11.48
10.17
8.12
5.67
3.29
1.47
0.49
0.32
0.64
0.98
0.90
0.22
-1.00
-2.53
-4.14
-5.71
-7.27
-8.92
-10.76
-12.82
-15.03
-17.24
-19.23
-20.69
-21.25
-20.58
-18.57
-15.32
-11.26
-6.94
-2.90
0.48
3.04
4.81
5.93
6.55
6.84
6.93
6.99
7.15
7.49
8.05
8.75
9.49
10.14
10.59
10.80
10.79
10.62
10.40
10.24
10.16
10.12
9.96
9.49
8.55
7.13
5.35
3.45
1.70
0.31
-0.68
-1.37
-1.97
-2.64
-3.47
-4.40
-5.33
-6.14
-6.83
-7.54
-8.48
-9.85
-11.70
-13.90
-16.07
-17.72
-18.36
-17.66
-15.60
-12.46
-8.74
-4.99
-1.62
1.20
3.52
5.49
7.19
8.56
9.41
9.57
9.04
8.09
7.10
6.45
6.31
6.63
7.16
7.63
7.84
7.81
7.68
7.63
7.75
8.04
8.36
8.46
8.15
7.30
5.93
4.23
2.48
0.95
-0.19
-0.93
-1.44
-1.94
-2.63
-3.59
-4.76
-5.98
-7.07
-7.88
-8.39
-8.69
-8.95
-9.40
-10.24
-11.59
-13.38
-15.36
-17.09
-18.10
-18.04
-16.76
-14.39
-11.27
-7.82
-4.45
-1.47
1.02
2.99
4.50
5.64
6.54
7.33
8.12
8.98
9.90
10.84
11.70
12.39
12.86
13.15
13.31
13.42
13.56
13.71
13.82
13.84
13.70
13.36
12.78
11.94
10.83
9.46
7.88
6.22
4.65
3.28
2.18
1.28
0.47
-0.40
-1.42
-2.64
-4.01
-5.40
-6.69
-7.78
-8.69
-9.53
-10.49
-11.75
-13.48
-15.66
-18.08
-20.35
-21.97
-22.46
-21.55
-19.29
-15.99
-12.18
-8.41
-5.10
-2.45
-0.44
1.09
2.33
3.41
4.38
5.19
5.75
5.98
5.85
5.42
4.82
4.23
3.80
3.61
3.70
3.98
4.36
4.77
5.19
5.62
6.06
6.47
6.76
6.84
6.73
6.56
6.59
7.02
7.89
8.99
9.92
10.27
9.84
8.71
7.22
5.79
4.67
3.85
3.10
2.12
0.69
-1.22
-3.50
-5.92
-8.24
-10.24
-11.68
-12.28
-11.82
-10.14
-7.26
-3.43
0.92
5.27
9.15
12.21
14.26
15.30
15.44
14.89
13.83
12.48
11.00
9.54
8.28
7.32
6.70
6.38
6.22
6.04
5.65
4.90
3.75
2.22
0.47
-1.28
-2.77
-3.80
-4.29
-4.30
-4.05
-3.78
-3.66
-3.80
-4.16
-4.75
-5.58
-6.71
-8.16
-9.83
-11.56
-13.07
-14.15
-14.73
-14.94
-15.09
-15.53
-16.59
-18.42
-20.89
-23.59
-25.89
-27.08
-26.60
-24.19
-20.06
-14.78
-9.08
-3.68
0.95
4.59
7.25
9.07
10.24
10.95
11.39
11.74
12.13
12.59
13.07
13.49
13.75
13.85
13.82
13.76
13.74
13.79
13.96
14.23
14.55
14.78
14.76
14.30
13.32
11.88
10.17
8.47
7.01
5.89
5.08
4.45
3.80
3.01
2.04
0.91
-0.25
-1.37
-2.40
-3.39
-4.49
-5.83
-7.54
-9.59
-11.91
-14.35
-16.76
-18.97
-20.77
-21.85
-21.90
-20.75
-18.44
-15.33
-11.94
-8.80
-6.26
-4.41
-3.12
-2.20
-1.52
-1.05
-0.80
-0.70
-0.53
-0.01
1.10
2.75
4.68
6.39
7.45
7.67
7.20
6.46
5.90
5.77
6.00
6.30
6.29
5.77
4.75
3.43
2.07
0.84
-0.21
-1.16
-2.10
-3.11
-4.17
-5.21
-6.13
-6.87
-7.42
-7.86
-8.30
-8.83
-9.61
-10.70
-12.13
-13.85
-15.67
-17.30
-18.38
-18.55
-17.55
-15.37
-12.27
-8.72
-5.32
-2.48
-0.37
1.14
2.39
3.72
5.29
7.02
8.66
9.94
10.70
11.04
11.21
11.45
11.94
12.64
13.39
14.01
14.43
14.71
14.99
15.39
15.86
16.23
16.25
15.75
14.68
13.20
11.53
9.90
8.51
7.41
6.61
6.02
5.54
5.03
4.41
3.64
2.74
1.79
0.80
-0.24
-1.46
-2.92
-4.68
-6.66
-8.76
-10.90
-13.05
-15.20
-17.31
-19.10
-20.20
-20.14
-18.66
-15.81
-12.03
-8.00
-4.35
-1.44
0.67
2.21
3.47
4.62
5.71
6.65
7.42
8.03
8.60
9.24
9.98
10.75
11.47
12.07
12.52
12.84
13.11
13.36
13.58
13.73
13.74
13.50
12.95
12.08
10.90
9.52
8.01
6.49
5.04
3.76
2.75
2.01
1.48
0.95
0.24
-0.78
-2.01
-3.25
-4.27
-5.01
-5.64
-6.41
-7.60
-9.27
-11.35
-13.57
-15.71
-17.49
-18.61
-18.76
-17.67
-15.22
-11.63
-7.39
-3.20
0.32
2.76
4.06
4.43
4.24
3.88
3.65
3.70
4.08
4.76
5.64
6.63
7.64
8.57
9.36
10.00
10.48
10.87
11.20
11.49
11.71
11.80
11.68
11.30
10.69
9.85
8.83
7.63
6.34
5.06
3.90
2.97
2.23
1.55
0.73
-0.40
-1.86
-3.56
-5.29
-6.88
-8.26
-9.48
-10.63
-11.80
-13.05
-14.42
-15.96
-17.75
-19.74
-21.75
-23.37
-24.15
-23.67
-21.82
-18.75
-14.90
-10.78
-6.82
-3.36
-0.53
1.63
3.21
4.30
5.06
5.58
5.91
6.06
6.03
5.94
5.95
6.24
6.89
7.85
8.93
9.90
10.55
10.80
10.70
10.37
9.94
9.52
9.18
8.91
8.66
8.28
7.64
6.61
5.24
3.67
2.05
0.54
-0.85
-2.13
-3.37
-4.54
-5.56
-6.32
-6.77
-6.96
-7.02
-7.11
-7.41
-8.01
-9.04
-10.59
-12.65
-15.04
-17.38
-19.09
-19.60
-18.55
-15.95
-12.20
-7.93
-3.81
-0.31
2.39
4.40
5.95
7.25
8.44
9.50
10.38
11.04
11.51
11.95
12.55
13.43
14.57
15.75
16.67
17.05
16.84
16.21
15.55
15.21
15.38
15.97
16.65
16.98
16.53
14.95
11.98
7.59
1.97
-4.35
-10.61
-15.95
-19.71
-21.61
-21.75
-20.60
-18.69
-16.47
-14.20
-12.05
-10.20
-8.87
-8.37
-8.96
-10.79
-13.80
-17.67
-21.87
-25.76
-28.71
-30.22
-30.06
-28.27
-25.13
-21.04
-16.42
-11.69
-7.18
-3.17
0.13
2.62
4.35
5.51
6.37
7.21
8.16
9.22
10.28
11.18
11.79
12.06
12.06
11.88
11.65
11.46
11.40
11.46
11.60
11.75
11.82
11.79
11.64
11.42
11.11
10.72
10.14
9.30
8.22
6.98
5.73
4.61
3.69
2.87
2.01
0.96
-0.35
-1.87
-3.47
-5.04
-6.56
-8.13
-9.90
-12.03
-14.57
-17.39
-20.17
-22.46
-23.74
-23.55
-21.61
-17.84
-12.46
-5.97
0.97
7.54
12.96
16.64
18.29
17.96
16.03
12.98
9.34
5.61
2.23
-0.40
-2.02
-2.56
-2.20
-1.32
-0.24
0.87
2.08
3.57
5.37
7.24
8.67
9.08
8.08
5.60
1.91
-2.44
-6.78
-10.37
-12.54
-12.80
-11.06
-7.62
-3.14
1.64
6.11
9.95
13.07
15.49
17.22
18.24
18.57
18.36
17.78
17.00
16.06
14.87
13.38
11.71
10.16
9.10
8.76
9.09
9.67
9.91
9.29
7.54
4.74
1.22
-2.57
-6.28
-9.78
-13.11
-16.34
-19.41
-22.02
-23.70
-23.99
-22.72
-20.14
-16.82
-13.48
-10.64
-8.41
-6.56
-4.64
-2.24
0.85
4.57
8.63
12.56
15.85
18.02
18.73
17.90
15.75
12.63
8.95
5.01
1.02
-2.79
-6.06
-8.32
-9.10
-8.29
-6.21
-3.65
-1.49
-0.40
-0.50
-1.49
-2.77
-3.84
-4.44
-4.63
-4.61
-4.55
-4.50
-4.39
-4.18
-3.99
-4.04
-4.61
-5.79
-7.42
-9.03
-9.96
-9.59
-7.48
-3.50
2.13
8.91
16.05
22.66
27.89
31.19
32.43
31.95
30.34
28.17
25.69
22.81
19.31
15.14
10.55
6.06
2.24
-0.61
-2.60
-4.14
-5.74
-7.67
-9.89
-12.10
-13.97
-15.24
-15.93
-16.20
-16.38
-16.73
-17.39
-18.27
-19.02
-19.20
-18.36
-16.33
-13.32
-9.89
-6.75
-4.51
-3.37
-3.06
-3.07
-2.80
-1.91
-0.34
1.70
3.93
6.07
7.90
9.32
10.25
10.64
10.40
9.49
7.93
5.87
3.59
1.44
-0.27
-1.39
-2.01
-2.41
-2.92
-3.77
-4.96
-6.35
-7.75
-9.04
-10.26
-11.51
-12.79
-13.95
-14.67
-14.55
-13.33
-10.99
-7.78
-4.14
-0.60
2.47
4.87
6.64
7.96
8.99
9.84
10.48
10.80
10.73
10.34
9.83
9.47
9.49
9.92
10.64
11.39
11.91
12.05
11.82
11.31
10.65
9.94
9.21
8.47
7.71
6.92
6.04
4.99
3.68
2.13
0.43
-1.23
-2.66
-3.79
-4.68
-5.47
-6.39
-7.61
-9.23
-11.17
-13.22
-14.98
-15.99
-15.88
-14.45
-11.84
-8.38
-4.54
-0.81
2.52
5.24
7.30
8.65
9.36
9.51
9.34
9.08
8.92
9.00
9.24
9.54
9.74
9.73
9.52
9.18
8.83
8.50
8.23
7.94
7.58
7.09
6.49
5.79
4.99
4.08
2.95
1.58
-0.05
-1.78
-3.40
-4.72
-5.67
-6.30
-6.82
-7.50
-8.56
-10.11
-12.10
-14.28
-16.31
-17.75
-18.21
-17.44
-15.41
-12.35
-8.68
-4.94
-1.62
0.94
2.65
3.62
4.12
4.44
4.84
5.37
5.98
6.53
6.89
7.06
7.11
7.21
7.50
7.99
8.58
9.08
9.33
9.24
8.83
8.16
7.31
6.28
5.04
3.59
1.95
0.25
-1.35
-2.76
-3.98
-5.12
-6.29
-7.55
-8.83
-10.02
-11.03
-11.90
-12.78
-13.87
-15.28
-16.91
-18.44
-19.38
-19.30
-17.93
-15.36
-11.89
-8.02
-4.26
-0.97
1.65
3.54
4.73
5.23
5.10
4.49
3.62
2.80
2.31
2.28
2.64
3.18
3.61
3.69
3.35
2.74
2.18
2.08
2.73
4.26
6.45
8.81
10.74
11.76
11.73
10.90
9.80
9.01
8.93
9.68
11.13
13.08
15.34
17.81
20.37
22.82
24.78
25.77
25.34
23.24
19.48
14.39
8.46
2.38
-3.22
-7.79
-10.93
-12.50
-12.61
-11.57
-9.85
-7.91
-6.12
-4.72
-3.79
-3.31
-3.23
-3.40
-3.69
-4.00
-4.27
-4.47
-4.63
-4.75
-4.76
-4.61
-4.24
-3.66
-2.95
-2.19
-1.36
-0.39
0.89
2.56
4.55
6.63
8.47
9.75
10.33
10.23
9.66
8.83
7.91
6.90
5.72
4.28
2.58
0.85
-0.59
-1.39
-1.42
-0.87
-0.27
-0.29
-1.54
-4.31
-8.43
-13.36
-18.31
-22.51
-25.42
-26.80
-26.69
-25.38
-23.23
-20.64
-17.92
-15.34
-13.12
-11.42
-10.38
-10.03
-10.27
-10.85
-11.40
-11.58
-11.12
-9.98
-8.36
-6.62
-5.17
-4.35
-4.31
-4.96
-5.86
-6.27
-5.31
-2.31
2.89
9.65
16.65
22.36
25.59
25.97
23.95
20.56
16.81
13.30
10.13
7.05
3.77
0.19
-3.61
-7.52
-11.44
-15.37
-19.22
-22.74
-25.48
-26.88
-26.50
-24.22
-20.37
-15.66
-10.97
-7.05
-4.31
-2.74
-2.03
-1.71
-1.45
-1.07
-0.61
-0.21
0.01
0.06
0.07
0.20
0.53
1.03
1.54
1.92
2.13
2.24
2.41
2.76
3.29
3.93
4.50
4.82
4.83
4.50
3.90
3.13
2.24
1.24
0.07
-1.34
-3.05
-4.98
-6.92
-8.49
-9.30
-9.02
-7.58
-5.17
-2.21
0.82
3.55
5.78
7.53
8.91
10.01
10.81
11.22
11.13
10.49
9.40
8.06
6.73
5.60
4.79
4.31
4.11
4.11
4.25
4.46
4.68
4.83
4.83
4.59
4.06
3.27
2.35
1.43
0.63
-0.04
-0.66
-1.40
-2.42
-3.81
-5.55
-7.53
-9.54
-11.30
-12.50
-12.86
-12.18
-10.45
-7.82
-4.64
-1.37
1.59
3.93
5.56
6.56
7.07
7.25
7.17
6.85
6.29
5.56
4.85
4.39
4.33
4.71
5.39
6.14
6.74
7.10
7.18
7.00
6.57
5.85
4.84
3.57
2.14
0.65
-0.83
-2.30
-3.78
-5.30
-6.85
-8.46
-10.12
-11.84
-13.61
-15.25
-16.50
-17.02
-16.49
-14.75
-11.88
-8.18
-4.08
-0.06
3.49
6.31
8.26
9.30
9.47
8.84
7.51
5.68
3.52
1.27
-0.89
-2.81
-4.34
-5.38
-5.88
-5.84
-5.36
-4.62
-3.91
-3.52
-3.63
-4.33
-5.56
-7.11
-8.77
-10.29
-11.47
-12.21
-12.59
-12.91
-13.69
-15.47
-18.55
-22.84
-27.69
-32.10
-34.88
-35.09
-32.31
-26.68
-18.81
-9.60
-0.01
9.07
16.98
23.26
27.73
30.49
31.84
32.18
31.89
31.28
30.53
29.69
28.80
27.83
26.81
25.75
24.67
23.57
22.52
21.51
20.59
19.75
18.91
17.95
16.71
15.10
13.13
10.96
8.82
6.87
5.18
3.68
2.28
0.91
-0.37
-1.51
-2.45
-3.27
-4.15
-5.29
-6.81
-8.55
-10.15
-11.11
-11.03
-9.70
-7.20
-3.87
-0.21
3.18
5.79
7.23
7.38
6.38
4.55
2.30
-0.05
-2.30
-4.40
-6.33
-8.01
-9.32
-10.17
-10.66
-11.06
-11.71
-12.86
-14.57
-16.60
-18.51
-19.87
-20.38
-19.98
-18.84
-17.22
-15.39
-13.52
-11.63
-9.68
-7.65
-5.58
-3.66
-2.05
-0.87
-0.13
0.25
0.37
0.26
-0.10
-0.69
-1.35
-1.77
-1.53
-0.33
1.93
5.00
8.43
11.66
14.28
16.04
16.96
17.21
17.03
16.66
16.24
15.84
15.43
14.98
14.49
14.03
13.67
13.45
13.31
13.12
12.76
12.16
11.40
10.64
10.02
9.58
9.22
8.72
7.91
6.72
5.23
3.63
2.10
0.75
-0.44
-1.57
-2.73
-3.98
-5.32
-6.81
-8.48
-10.31
-12.15
-13.70
-14.54
-14.27
-12.76
-10.17
-6.99
-3.81
-1.14
0.81
2.08
2.93
3.59
4.19
4.69
4.91
4.77
4.29
3.67
3.19
3.08
3.42
4.10
4.91
5.64
6.17
6.48
6.61
6.62
6.50
6.23
5.75
5.01
3.99
2.68
1.14
-0.54
-2.21
-3.73
-4.95
-5.86
-6.51
-7.09
-7.87
-9.04
-10.74
-12.91
-15.32
-17.57
-19.21
-19.85
-19.27
-17.50
-14.78
-11.49
-8.03
-4.73
-1.81
0.63
2.51
3.88
4.75
5.22
5.38
5.31
5.11
4.83
4.55
4.34
4.35
4.66
5.30
6.15
7.00
7.57
7.69
7.30
6.54
5.58
4.63
3.84
3.27
2.94
2.83
2.85
2.90
2.82
2.46
1.73
0.65
-0.70
-2.15
-3.57
-4.89
-6.14
-7.44
-8.97
-10.86
-13.13
-15.52
-17.55
-18.60
-18.16
-16.08
-12.67
-8.58
-4.65
-1.50
0.58
1.72
2.29
2.70
3.22
3.90
4.59
5.11
5.36
5.35
5.22
5.09
5.07
5.16
5.32
5.51
5.76
6.12
6.65
7.33
8.04
8.56
8.72
8.35
7.45
6.10
4.54
3.00
1.70
0.74
0.11
-0.30
-0.66
-1.09
-1.70
-2.49
-3.42
-4.37
-5.23
-5.91
-6.41
-6.86
-7.54
-8.70
-10.47
-12.72
-14.99
-16.65
-17.10
-16.00
-13.48
-10.03
-6.38
-3.20
-0.86
0.63
1.49
2.01
2.44
2.79
3.04
3.16
3.25
3.52
4.20
5.42
7.10
9.02
10.84
12.29
13.25
13.81
14.14
14.40
14.66
14.79
14.58
13.79
12.32
10.26
7.88
5.56
3.57
2.07
1.03
0.29
-0.32
-0.95
-1.65
-2.40
-3.15
-3.85
-4.45
-4.97
-5.44
-5.94
-6.58
-7.44
-8.63
-10.18
-12.04
-14.02
-15.80
-16.98
-17.15
-16.03
-13.58
-10.08
-6.05
-2.07
1.37
3.98
5.71
6.64
6.96
6.81
6.36
5.76
5.18
4.77
4.62
4.74
5.08
5.52
5.95
6.31
6.60
6.88
7.24
7.72
8.29
8.84
9.23
9.28
8.87
8.01
6.81
5.48
4.22
3.13
2.18
1.21
0.04
-1.38
-2.97
-4.52
-5.77
-6.60
-7.07
-7.37
-7.79
-8.59
-9.91
-11.73
-13.82
-15.74
-16.96
-16.98
-15.56
-12.79
-9.15
-5.27
-1.83
0.80
2.51
3.50
4.08
4.50
4.85
5.13
5.23
5.14
4.95
4.81
4.88
5.22
5.77
6.37
6.87
7.19
7.38
7.50
7.62
7.72
7.72
7.49
6.99
6.22
5.32
4.42
3.68
3.12
2.66
2.16
1.40
0.26
-1.24
-3.00
-4.77
-6.32
-7.50
-8.33
-8.91
-9.50
-10.33
-11.58
-13.26
-15.25
-17.23
-18.77
-19.43
-18.88
-17.06
-14.17
-10.67
-7.04
-3.72
-0.94
1.25
2.90
4.11
4.98
5.60
6.00
6.26
6.43
6.57
6.73
6.96
7.28
7.65
7.99
8.21
8.28
8.23
8.20
8.32
8.61
8.93
9.09
8.87
8.19
7.12
5.86
4.65
3.65
2.94
2.43
1.97
1.37
0.44
-0.87
-2.52
-4.33
-6.04
-7.46
-8.51
-9.25
-9.90
-10.74
-11.96
-13.64
-15.64
-17.65
-19.23
-19.98
-19.59
-17.97
-15.24
-11.73
-7.90
-4.22
-1.08
1.25
2.68
3.32
3.44
3.37
3.44
3.84
4.63
5.70
6.83
7.84
8.59
9.06
9.31
9.44
9.58
9.81
10.10
10.36
10.46
10.29
9.83
9.14
8.33
7.50
6.66
5.79
4.84
3.79
2.70
1.65
0.65
-0.33
-1.37
-2.53
-3.77
-4.98
-6.05
-6.94
-7.77
-8.72
-10.02
-11.80
-13.95
-16.16
-17.97
-18.90
-18.62
-17.02
-14.30
-10.87
-7.29
-4.01
-1.37
0.56
1.93
2.93
3.77
4.50
5.14
5.61
5.93
6.18
6.53
7.16
8.11
9.30
10.57
11.71
12.56
13.09
13.35
13.38
13.24
12.88
12.22
11.17
9.75
8.11
6.49
5.14
4.19
3.63
3.28
2.91
2.31
1.38
0.13
-1.29
-2.73
-4.05
-5.21
-6.23
-7.23
-8.37
-9.78
-11.56
-13.66
-15.90
-17.94
-19.34
-19.71
-18.80
-16.60
-13.37
-9.61
-5.86
-2.58
-0.05
1.68
2.74
3.33
3.68
3.91
4.07
4.19
4.29
4.42
4.69
5.16
5.80
6.52
7.19
7.73
8.11
8.34
8.46
8.44
8.24
7.82
7.17
6.35
5.46
4.59
3.77
2.96
2.11
1.15
0.03
-1.27
-2.68
-4.07
-5.27
-6.19
-6.81
-7.29
-7.90
-8.91
-10.47
-12.50
-14.73
-16.68
-17.86
-17.85
-16.46
-13.78
-10.26
-6.49
-3.05
-0.33
1.60
2.96
4.03
5.04
6.03
6.87
7.44
7.73
7.85
7.96
8.19
8.56
8.95
9.26
9.40
9.40
9.35
9.36
9.48
9.68
9.84
9.76
9.28
8.34
7.00
5.45
3.95
2.70
1.82
1.25
0.83
0.32
-0.45
-1.50
-2.72
-3.93
-4.94
-5.71
-6.33
-7.03
-8.10
-9.73
-11.94
-14.59
-17.34
-19.74
-21.32
-21.71
-20.71
-18.35
-14.90
-10.81
-6.61
-2.75
0.46
2.90
4.60
5.71
6.38
6.74
6.92
7.02
7.13
7.32
7.59
7.88
8.10
8.17
8.08
7.94
7.88
8.02
8.37
8.82
9.19
9.30
9.05
8.39
7.42
6.29
5.18
4.26
3.56
2.98
2.33
1.37
-0.02
-1.80
-3.77
-5.71
-7.44
-8.88
-10.08
-11.09
-11.97
-12.82
-13.76
-14.92
-16.39
-18.03
-19.44
-20.05
-19.31
-16.94
-13.10
-8.35
-3.47
0.82
4.07
6.21
7.50
8.37
9.20
10.21
11.36
12.50
13.40
13.94
14.17
14.26
14.46
14.88
15.48
16.00
16.17
15.83
15.03
14.05
13.20
12.69
12.47
12.32
11.94
11.13
9.89
8.40
6.95
5.72
4.76
3.99
3.22
2.30
1.14
-0.21
-1.59
-2.81
-3.73
-4.35
-4.84
-5.48
-6.52
-8.13
-10.35
-13.01
-15.85
-18.54
-20.67
-21.87
-21.79
-20.28
-17.41
-13.53
-9.15
-4.86
-1.11
1.87
4.05
5.54
6.50
7.07
7.35
7.44
7.40
7.31
7.24
7.23
7.31
7.46
7.67
7.90
8.17
8.49
8.92
9.49
10.15
10.73
11.03
10.88
10.19
9.10
7.82
6.59
5.56
4.68
3.80
2.72
1.40
-0.11
-1.64
-3.04
-4.19
-5.11
-5.90
-6.70
-7.67
-8.92
-10.54
-12.51
-14.72
-16.88
-18.54
-19.23
-18.61
-16.54
-13.27
-9.30
-5.25
-1.74
0.85
2.44
3.18
3.41
3.47
3.58
3.85
4.26
4.75
5.29
5.91
6.64
7.46
8.31
9.06
9.60
9.91
10.05
10.14
10.29
10.48
10.61
10.51
10.05
9.23
8.13
6.86
5.53
4.16
2.73
1.20
-0.40
-2.01
-3.56
-4.98
-6.23
-7.34
-8.34
-9.31
-10.34
-11.55
-13.07
-15.01
-17.36
-19.98
-22.53
-24.52
-25.44
-24.92
-22.85
-19.45
-15.19
-10.63
-6.27
-2.45
0.70
3.16
4.98
6.23
7.00
7.44
7.73
8.03
8.47
9.07
9.81
10.67
11.64
12.73
13.92
15.08
16.04
16.65
16.83
16.62
16.14
15.54
14.90
14.16
13.25
12.07
10.65
9.08
7.52
6.14
5.01
4.15
3.45
2.77
1.98
0.99
-0.22
-1.60
-3.10
-4.63
-6.15
-7.62
-9.05
-10.52
-12.16
-14.11
-16.45
-19.02
-21.49
-23.25
-23.73
-22.51
-19.60
-15.45
-10.75
-6.26
-2.51
0.35
2.46
4.16
5.74
7.34
8.91
10.28
11.33
12.02
12.43
12.72
13.00
13.34
13.68
13.93
14.00
13.85
13.51
13.07
12.60
12.19
11.85
11.48
11.02
10.38
9.58
8.78
8.16
7.89
8.02
8.41
8.76
8.74
8.09
6.70
4.71
2.36
-0.02
-2.20
-4.07
-5.66
-7.10
-8.58
-10.29
-12.36
-14.89
-17.86
-21.07
-24.15
-26.56
-27.73
-27.25
-25.03
-21.31
-16.60
-11.58
-6.81
-2.75
0.39
2.56
3.90
4.68
5.20
5.74
6.45
7.31
8.12
8.69
8.90
8.77
8.47
8.19
8.05
8.01
7.99
7.83
7.52
7.09
6.64
6.22
5.82
5.44
5.05
4.71
4.47
4.34
4.24
3.97
3.36
2.32
0.90
-0.69
-2.27
-3.69
-4.93
-6.06
-7.19
-8.40
-9.80
-11.46
-13.37
-15.42
-17.26
-18.43
-18.43
-16.98
-14.15
-10.40
-6.39
-2.78
0.00
1.88
3.01
3.65
4.05
4.31
4.45
4.43
4.29
4.13
4.11
4.36
4.92
5.73
6.66
7.57
8.38
9.09
9.69
10.18
10.50
10.55
10.24
9.54
8.52
7.32
6.08
4.89
3.78
2.72
1.69
0.65
-0.44
-1.60
-2.85
-4.16
-5.48
-6.71
-7.79
-8.74
-9.68
-10.83
-12.44
-14.62
-17.26
-19.94
-22.06
-22.98
-22.28
-19.91
-16.23
-11.89
-7.60
-3.89
-1.00
1.09
2.50
3.39
3.90
4.29
4.89
6.10
8.19
11.12
14.48
17.59
19.76
20.55
19.90
18.15
15.75
13.20
10.77
8.58
6.59
4.74
2.97
1.25
-0.37
-1.86
-3.20
-4.43
-5.61
-6.76
-7.87
-8.87
-9.67
-10.21
-10.50
-10.60
-10.61
-10.61
-10.69
-10.94
-11.44
-12.26
-13.42
-14.92
-16.61
-18.25
-19.46
-19.83
-19.06
-17.02
-13.89
-10.11
-6.25
-2.81
-0.13
1.73
2.92
3.66
4.22
4.75
5.34
6.01
6.71
7.38
7.95
8.37
8.62
8.77
8.94
9.26
9.81
10.59
11.45
12.20
12.62
12.57
12.05
11.13
9.99
8.79
7.64
6.59
5.64
4.72
3.72
2.56
1.20
-0.31
-1.87
-3.34
-4.59
-5.62
-6.45
-7.23
-8.13
-9.35
-11.01
-13.13
-15.53
-17.79
-19.28
-19.37
-17.66
-14.13
-9.27
-3.91
1.06
4.95
7.43
8.59
8.74
8.28
7.55
6.77
6.04
5.42
4.96
4.71
4.64
4.78
5.03
5.38
5.78
6.25
6.87
7.67
8.60
9.53
10.28
10.63
10.44
9.68
8.44
6.88
5.18
3.50
1.94
0.51
-0.82
-2.11
-3.40
-4.68
-5.88
-6.86
-7.50
-7.77
-7.79
-7.84
-8.26
-9.31
-11.03
-13.17
-15.23
-16.60
-16.81
-15.64
-13.22
-9.96
-6.43
-3.20
-0.59
1.29
2.59
3.55
4.35
5.09
5.70
6.08
6.21
6.17
6.07
6.04
6.10
6.15
6.09
5.88
5.56
5.28
5.18
5.34
5.69
6.08
6.29
6.10
5.42
4.30
2.95
1.65
0.59
-0.15
-0.71
-1.34
-2.27
-3.57
-5.13
-6.74
-8.20
-9.45
-10.59
-11.82
-13.32
-15.12
-17.09
-18.93
-20.29
-20.80
-20.21
-18.47
-15.70
-12.23
-8.48
-4.86
-1.68
0.95
3.04
4.69
6.00
7.03
7.81
8.34
8.72
9.07
9.56
10.29
11.21
12.19
13.02
13.50
13.54
13.17
12.55
11.81
11.06
10.32
9.51
8.56
7.45
6.22
4.96
3.77
2.68
1.66
0.64
-0.42
-1.54
-2.65
-3.62
-4.37
-4.87
-5.18
-5.50
-6.10
-7.25
-9.14
-11.72
-14.67
-17.45
-19.42
-20.03
-19.04
-16.53
-12.92
-8.78
-4.68
-1.06
1.82
3.93
5.43
6.55
7.55
8.61
9.76
10.95
12.05
12.93
13.52
13.82
13.89
13.80
13.62
13.40
13.25
13.22
13.33
13.52
13.64
13.48
12.86
11.72
10.13
8.30
6.52
5.02
3.93
3.20
2.64
2.01
1.13
-0.06
-1.45
-2.81
-3.96
-4.80
-5.37
-5.90
-6.62
-7.75
-9.43
-11.59
-14.01
-16.28
-17.89
-18.38
-17.49
-15.26
-12.09
-8.62
-5.40
-2.85
-1.05
0.18
1.10
1.93
2.78
3.62
4.39
5.03
5.52
5.92
6.29
6.70
7.19
7.76
8.40
9.08
9.76
10.40
10.87
11.08
10.84
10.07
8.81
7.27
5.77
4.58
3.76
3.17
2.54
1.63
0.42
-0.96
-2.28
-3.37
-4.23
-4.99
-5.82
-6.82
-7.98
-9.28
-10.73
-12.39
-14.25
-16.14
-17.63
-18.21
-17.46
-15.26
-11.84
-7.78
-3.73
-0.24
2.38
4.12
5.18
5.79
6.17
6.42
6.57
6.60
6.51
6.37
6.26
6.30
6.54
6.94
7.43
7.93
8.36
8.71
9.00
9.24
9.44
9.52
9.39
8.94
8.14
7.00
5.66
4.30
3.07
2.03
1.04
-0.03
-1.35
-2.87
-4.47
-5.92
-7.13
-8.14
-9.15
-10.40
-12.05
-14.11
-16.44
-18.80
-20.83
-22.14
-22.34
-21.14
-18.56
-14.89
-10.68
-6.54
-2.93
-0.06
2.13
3.85
5.30
6.58
7.67
8.48
8.99
9.21
9.24
9.24
9.31
9.52
9.86
10.28
10.70
11.14
11.61
12.15
12.70
13.15
13.32
13.05
12.29
11.14
9.79
8.48
7.40
6.61
6.06
5.60
5.02
4.13
2.81
1.06
-0.98
-3.12
-5.15
-6.92
-8.37
-9.57
-10.67
-11.87
-13.34
-15.17
-17.29
-19.45
-21.28
-22.29
-22.09
-20.45
-17.44
-13.45
-9.06
-4.91
-1.50
0.98
2.63
3.76
4.69
5.59
6.48
7.26
7.82
8.16
8.38
8.60
8.93
9.34
9.76
10.14
10.49
10.87
11.36
12.00
12.69
13.30
13.65
13.62
13.15
12.28
11.10
9.71
8.24
6.80
5.51
4.49
3.80
3.39
3.11
2.74
2.09
1.09
-0.23
-1.72
-3.23
-4.68
-6.07
-7.48
-8.95
-10.53
-12.29
-14.29
-16.56
-19.01
-21.34
-22.99
-23.43
-22.29
-19.56
-15.64
-11.20
-6.89
-3.18
-0.23
2.03
3.75
5.08
6.11
6.91
7.52
8.04
8.57
9.13
9.74
10.37
10.94
11.41
11.76
12.00
12.14
12.19
12.17
12.06
11.83
11.44
10.86
10.08
9.16
8.20
7.27
6.41
5.60
4.78
3.85
2.81
1.70
0.58
-0.50
-1.55
-2.59
-3.63
-4.63
-5.53
-6.32
-7.05
-7.85
-8.83
-10.06
-11.55
-13.28
-15.18
-17.16
-19.02
-20.40
-20.87
-20.05
-17.81
-14.37
-10.32
-6.33
-3.00
-0.58
0.96
1.86
2.40
2.74
2.90
2.86
2.64
2.35
2.20
2.37
2.95
3.89
5.03
6.13
7.02
7.64
8.07
8.47
8.99
9.64
10.30
10.70
10.57
9.75
8.32
6.53
4.72
3.13
1.81
0.60
-0.72
-2.31
-4.17
-6.09
-7.79
-9.08
-9.94
-10.57
-11.31
-12.49
-14.28
-16.64
-19.26
-21.66
-23.28
-23.67
-22.58
-20.09
-16.54
-12.46
-8.37
-4.69
-1.62
0.78
2.57
3.89
4.83
5.48
5.92
6.24
6.50
6.76
7.05
7.41
7.85
8.39
9.01
9.68
10.34
10.97
11.50
11.89
12.07
11.93
11.42
10.48
9.21
7.75
6.32
5.09
4.13
3.38
2.67
1.81
0.72
-0.59
-2.02
-3.41
-4.63
-5.64
-6.46
-7.23
-8.10
-9.28
-10.96
-13.22
-15.98
-18.89
-21.38
-22.77
-22.55
-20.49
-16.83
-12.16
-7.23
-2.72
1.00
3.86
6.00
7.63
8.91
9.89
10.53
10.87
10.91
10.74
10.41
9.97
9.46
8.98
8.63
8.50
8.67
9.06
9.60
10.15
10.61
10.89
10.91
10.57
9.80
8.62
7.13
5.60
4.29
3.34
2.74
2.28
1.68
0.76
-0.53
-2.08
-3.66
-5.09
-6.28
-7.26
-8.20
-9.29
-10.77
-12.74
-15.13
-17.68
-19.92
-21.34
-21.46
-20.10
-17.36
-13.65
-9.49
-5.40
-1.74
1.27
3.55
5.15
6.15
6.71
6.98
7.11
7.23
7.39
7.60
7.84
8.11
8.37
8.65
8.91
9.11
9.18
9.10
8.88
8.59
8.25
7.85
7.35
6.71
5.91
4.99
4.10
3.39
2.95
2.74
2.59
2.27
1.61
0.56
-0.80
-2.26
-3.65
-4.91
-6.09
-7.39
-9.01
-11.05
-13.44
-15.86
-17.92
-19.14
-19.23
-18.08
-15.83
-12.80
-9.42
-6.11
-3.21
-0.90
0.81
2.05
2.96
3.67
4.20
4.52
4.61
4.55
4.57
4.95
5.87
7.31
8.99
10.51
11.56
12.03
12.07
11.95
11.83
11.66
11.20
10.21
8.57
6.43
4.13
2.05
0.43
-0.74
-1.62
-2.45
-3.39
-4.46
-5.61
-6.73
-7.72
-8.57
-9.28
-9.91
-10.58
-11.46
-12.71
-14.42
-16.48
-18.59
-20.23
-20.87
-20.13
-17.94
-14.57
-10.57
-6.55
-3.02
-0.23
1.83
3.34
4.55
5.59
6.46
7.09
7.43
7.53
7.57
7.74
8.15
8.80
9.53
10.20
10.68
11.00
11.23
11.44
11.63
11.74
11.62
11.13
10.23
9.01
7.63
6.34
5.32
4.64
4.21
3.82
3.22
2.24
0.89
-0.71
-2.37
-3.94
-5.42
-6.88
-8.42
-10.13
-12.04
-14.14
-16.43
-18.83
-21.15
-23.03
-23.98
-23.57
-21.57
-18.12
-13.72
-9.07
-4.83
-1.36
1.29
3.33
5.00
6.48
7.77
8.82
9.59
10.14
10.55
10.93
11.31
11.67
11.93
12.04
12.02
11.92
11.83
11.82
11.86
11.93
11.91
11.70
11.21
10.42
9.42
8.34
7.29
6.31
5.35
4.28
3.00
1.47
-0.25
-1.98
-3.55
-4.85
-5.86
-6.68
-7.50
-8.50
-9.85
-11.59
-13.66
-15.80
-17.67
-18.82
-18.90
-17.70
-15.30
-12.00
-8.31
-4.72
-1.62
0.85
2.77
4.33
5.72
6.97
8.02
8.74
9.05
9.04
8.91
8.91
9.18
9.70
10.32
10.79
10.97
10.83
10.49
10.15
9.92
9.81
9.72
9.51
9.06
8.37
7.50
6.54
5.57
4.61
3.62
2.59
1.52
0.43
-0.63
-1.68
-2.73
-3.85
-5.06
-6.37
-7.78
-9.35
-11.15
-13.29
-15.81
-18.59
-21.27
-23.29
-24.05
-23.19
-20.75
-17.20
-13.21
-9.46
-6.32
-3.83
-1.80
-0.01
1.65
3.12
4.31
5.18
5.83
6.42
7.06
7.80
8.58
9.26
9.78
10.10
10.29
10.38
10.41
10.37
10.29
10.25
10.29
10.42
10.56
10.53
10.17
9.41
8.35
7.16
6.05
5.09
4.21
3.29
2.19
0.93
-0.39
-1.58
-2.56
-3.32
-4.01
-4.77
-5.71
-6.90
-8.37
-10.16
-12.31
-14.82
-17.48
-19.91
-21.55
-21.89
-20.68
-18.02
-14.39
-10.45
-6.78
-3.73
-1.38
0.40
1.82
3.06
4.22
5.37
6.46
7.39
8.10
8.59
8.94
9.32
9.88
10.65
11.55
12.38
12.94
13.14
12.95
12.41
11.55
10.36
8.91
7.34
5.91
4.84
4.27
4.11
4.15
4.09
3.75
3.04
2.03
0.83
-0.44
-1.71
-2.97
-4.23
-5.55
-7.02
-8.77
-10.84
-13.23
-15.71
-17.89
-19.29
-19.48
-18.27
-15.79
-12.51
-8.99
-5.72
-2.95
-0.65
1.37
3.32
5.25
7.05
8.55
9.63
10.29
10.68
10.98
11.29
11.60
11.83
11.89
11.80
11.62
11.45
11.34
11.24
11.06
10.67
10.01
9.08
7.97
6.77
5.59
4.50
3.56
2.74
2.00
1.22
0.24
-0.99
-2.45
-3.99
-5.37
-6.38
-6.99
-7.32
-7.71
-8.56
-10.16
-12.62
-15.72
-18.96
-21.67
-23.19
-23.08
-21.25
-18.00
-13.90
-9.63
-5.74
-2.54
-0.06
1.82
3.31
4.53
5.51
6.20
6.60
6.77
6.89
7.11
7.58
8.26
8.98
9.54
9.81
9.81
9.70
9.70
9.93
10.33
10.72
10.84
10.53
9.74
8.61
7.37
6.28
5.55
5.25
5.29
5.50
5.64
5.47
4.85
3.73
2.13
0.20
-1.90
-3.99
-5.89
-7.56
-9.10
-10.72
-12.72
-15.22
-18.12
-20.95
-23.05
-23.76
-22.73
-20.08
-16.29
-12.06
-8.03
-4.57
-1.75
0.54
2.42
3.98
5.20
6.08
6.65
6.98
7.16
7.22
7.19
7.11
7.06
7.14
7.44
7.97
8.64
9.29
9.76
9.97
9.96
9.77
9.46
9.06
8.57
7.94
7.20
6.38
5.54
4.69
3.82
2.87
1.79
0.56
-0.82
-2.31
-3.89
-5.51
-7.16
-8.82
-10.54
-12.41
-14.51
-16.81
-19.13
-21.06
-22.04
-21.59
-19.46
-15.83
-11.22
-6.37
-1.93
1.67
4.38
6.37
7.86
9.00
9.84
10.33
10.46
10.36
10.22
10.21
10.43
10.79
11.13
11.33
11.28
11.00
10.57
10.08
9.58
9.04
8.43
7.68
6.77
5.72
4.60
3.49
2.45
1.54
0.75
0.04
-0.64
-1.34
-2.09
-2.88
-3.71
-4.60
-5.56
-6.67
-7.98
-9.55
-11.44
-13.63
-16.08
-18.62
-20.94
-22.60
-23.13
-22.21
-19.80
-16.30
-12.33
-8.57
-5.48
-3.16
-1.37
0.23
1.89
3.66
5.39
6.89
8.07
8.97
9.71
10.39
11.06
11.65
12.07
12.24
12.20
12.11
12.16
12.50
13.15
13.95
14.59
14.75
14.21
12.97
11.23
9.32
7.56
6.10
4.92
3.82
2.56
0.97
-0.99
-3.18
-5.38
-7.34
-8.92
-10.11
-11.06
-11.98
-13.12
-14.62
-16.54
-18.74
-20.91
-22.62
-23.37
-22.78
-20.68
-17.26
-13.00
-8.52
-4.39
-0.99
1.54
3.28
4.41
5.11
5.52
5.75
5.88
5.99
6.13
6.32
6.56
6.87
7.25
7.75
8.42
9.25
10.19
11.10
11.80
12.15
12.06
11.57
10.82
9.93
9.01
8.06
6.99
5.75
4.33
2.82
1.34
-0.01
-1.22
-2.39
-3.67
-5.22
-7.13
-9.36
-11.82
-14.33
-16.65
-18.51
-19.61
-19.69
-18.58
-16.30
-13.05
-9.28
-5.44
-1.96
0.89
3.08
4.71
6.00
7.11
8.08
8.87
9.38
9.56
9.42
9.10
8.75
8.49
8.40
8.46
8.58
8.68
8.73
8.67
8.50
8.19
7.74
7.15
6.45
5.68
4.87
3.99
3.00
1.83
0.44
-1.17
-2.91
-4.64
-6.18
-7.37
-8.13
-8.55
-8.84
-9.34
-10.33
-11.96
-14.15
-16.60
-18.85
-20.42
-20.93
-20.19
-18.23
-15.29
-11.75
-8.00
-4.41
-1.20
1.53
3.76
5.51
6.87
7.91
8.70
9.29
9.71
9.92
9.93
9.76
9.51
9.33
9.38
9.71
10.30
11.02
11.67
12.10
12.23
12.01
11.45
10.57
9.41
8.04
6.59
5.23
4.14
3.38
2.88
2.45
1.85
0.94
-0.28
-1.68
-3.10
-4.44
-5.73
-7.07
-8.58
-10.30
-12.23
-14.35
-16.60
-18.90
-21.02
-22.55
-22.99
-21.93
-19.27
-15.31
-10.73
-6.28
-2.56
0.17
2.02
3.28
4.27
5.17
6.01
6.72
7.25
7.61
7.84
8.00
8.13
8.25
8.37
8.56
8.89
9.42
10.14
10.93
11.60
11.94
11.84
11.32
10.47
9.43
8.31
7.15
5.97
4.76
3.55
2.34
1.12
-0.10
-1.32
-2.51
-3.63
-4.64
-5.56
-6.53
-7.74
-9.36
-11.49
-14.05
-16.77
-19.26
-21.04
-21.67
-20.85
-18.56
-15.10
-11.00
-6.91
-3.37
-0.65
1.33
2.84
4.18
5.51
6.79
7.87
8.64
9.09
9.35
9.56
9.77
9.95
9.99
9.86
9.61
9.39
9.34
9.55
9.98
10.47
10.84
10.86
10.44
9.53
8.23
6.72
5.21
3.85
2.70
1.68
0.66
-0.50
-1.82
-3.23
-4.60
-5.80
-6.88
-7.97
-9.34
-11.25
-13.79
-16.88
-20.16
-23.11
-25.14
-25.81
-24.86
-22.39
-18.71
-14.35
-9.85
-5.69
-2.12
0.78
3.08
4.95
6.48
7.73
8.70
9.37
9.84
10.23
10.69
11.30
12.06
12.85
13.52
13.96
14.14
14.12
13.99
13.81
13.57
13.18
12.53
11.57
10.34
8.97
7.65
6.52
5.64
4.92
4.22
3.41
2.42
1.29
0.14
-0.91
-1.82
-2.61
-3.43
-4.43
-5.75
-7.44
-9.52
-11.95
-14.62
-17.33
-19.72
-21.43
-21.98
-21.13
-18.83
-15.41
-11.38
-7.38
-3.94
-1.33
0.44
1.56
2.36
3.06
3.81
4.59
5.31
5.84
6.17
6.34
6.50
6.84
7.46
8.36
9.42
10.43
11.20
11.63
11.68
11.41
10.91
10.25
9.50
8.67
7.78
6.83
5.78
4.62
3.31
1.85
0.32
-1.19
-2.64
-4.01
-5.32
-6.64
-8.03
-9.54
-11.24
-13.17
-15.28
-17.41
-19.20
-20.21
-20.00
-18.39
-15.47
-11.67
-7.58
-3.77
-0.60
1.80
3.52
4.76
5.68
6.39
6.88
7.11
7.07
6.87
6.68
6.67
6.92
7.39
7.93
8.42
8.79
9.11
9.43
9.81
10.17
10.35
10.16
9.49
8.31
6.74
4.95
3.14
1.46
-0.01
-1.33
-2.58
-3.86
-5.22
-6.63
-8.02
-9.30
-10.50
-11.71
-13.15
-14.93
-16.99
-19.03
-20.52
-20.95
-19.94
-17.45
-13.81
-9.58
-5.37
-1.67
1.29
3.50
5.09
6.23
7.06
7.68
8.14
8.50
8.83
9.15
9.52
9.96
10.45
10.99
11.58
12.20
12.81
13.32
13.57
13.45
12.82
11.69
10.17
8.45
6.71
5.07
3.53
2.00
0.37
-1.42
-3.38
-5.46
-7.54
-9.50
-11.19
-12.57
-13.62
-14.44
-15.23
-16.16
-17.40
-18.96
-20.66
-22.14
-22.90
-22.51
-20.68
-17.45
-13.21
-8.57
-4.18
-0.54
2.18
4.05
5.30
6.15
6.73
7.08
7.28
7.47
7.82
8.49
9.54
10.85
12.21
13.40
14.27
14.84
15.27
15.75
16.41
17.19
17.84
18.00
17.31
15.62
13.06
9.97
6.84
4.03
1.72
-0.15
-1.72
-3.15
-4.49
-5.68
-6.59
-7.21
-7.65
-8.17
-9.12
-10.72
-13.03
-15.87
-18.85
-21.47
-23.18
-23.62
-22.58
-20.09
-16.46
-12.14
-7.66
-3.52
-0.08
2.51
4.29
5.44
6.19
6.76
7.31
7.89
8.51
9.13
9.73
10.31
10.85
11.31
11.67
11.91
12.04
12.10
12.15
12.17
12.09
11.79
11.17
10.23
9.05
7.78
6.53
5.34
4.16
2.89
1.47
-0.07
-1.61
-2.96
-4.02
-4.77
-5.36
-6.02
-7.00
-8.50
-10.56
-13.02
-15.51
-17.51
-18.47
-18.01
-16.03
-12.79
-8.83
-4.76
-1.11
1.86
4.10
5.72
6.85
7.64
8.18
8.56
8.88
9.21
9.58
10.00
10.44
10.85
11.19
11.42
11.51
11.45
11.26
10.94
10.50
9.87
8.96
7.67
6.01
4.07
2.08
0.28
-1.20
-2.36
-3.38
-4.46
-5.74
-7.19
-8.66
-9.99
-11.08
-12.02
-13.02
-14.27
-15.84
-17.53
-18.99
-19.75
-19.44
-17.92
-15.34
-12.07
-8.56
-5.26
-2.42
-0.17
1.53
2.77
3.63
4.13
4.35
4.40
4.47
4.76
5.41
6.41
7.63
8.86
9.89
10.60
10.93
10.90
10.57
10.03
9.35
8.63
7.93
7.27
6.60
5.84
4.91
3.80
2.53
1.16
-0.24
-1.63
-2.94
-4.15
-5.24
-6.25
-7.32
-8.69
-10.62
-13.21
-16.32
-19.49
-22.01
-23.21
-22.64
-20.30
-16.64
-12.33
-8.04
-4.22
-1.04
1.57
3.75
5.60
7.13
8.27
9.01
9.38
9.49
9.49
9.48
9.57
9.81
10.20
10.73
11.30
11.84
12.24
12.43
12.38
12.13
11.72
11.17
10.46
9.56
8.49
7.33
6.17
5.11
4.17
3.24
2.15
0.73
-1.03
-3.05
-5.11
-6.97
-8.54
-9.91
-11.32
-13.03
-15.23
-17.89
-20.65
-22.92
-24.06
-23.58
-21.40
-17.85
-13.58
-9.35
-5.67
-2.73
-0.37
1.69
3.65
5.52
7.11
8.23
8.78
8.85
8.70
8.57
8.60
8.82
9.14
9.42
9.62
9.72
9.80
9.88
9.96
9.94
9.67
8.99
7.84
6.29
4.52
2.77
1.25
0.10
-0.73
-1.39
-2.11
-3.09
-4.47
-6.21
-8.14
-10.02
-11.56
-12.60
-13.19
-13.56
-14.15
-15.37
-17.48
-20.36
-23.44
-25.84
-26.58
-24.91
-20.54
-13.73
-5.17
4.34
14.09
23.68
32.89
41.62
49.66
56.69
62.26
66.00
67.63
67.13
64.66
60.56
55.26
49.28
43.13
37.31
32.16
27.86
24.36
21.34
18.35
14.96
10.99
6.58
2.16
-1.77
-4.86
-7.04
-8.53
-9.68
-10.76
-11.87
-12.98
-14.00
-14.94
-15.91
-17.08
-18.65
-20.73
-23.32
-26.32
-29.47
-32.34
-34.46
-35.36
-34.77
-32.72
-29.50
-25.57
-21.41
-17.39
-13.71
-10.46
-7.69
-5.42
-3.68
-2.42
-1.49
-0.71
0.07
0.93
1.78
2.46
2.85
2.87
2.61
2.22
1.84
1.54
1.27
0.91
0.37
-0.36
-1.21
-2.07
-2.85
-3.53
-4.13
-4.73
-5.34
-5.94
-6.56
-7.20
-7.93
-8.80
-9.84
-10.99
-12.13
-13.12
-13.88
-14.46
-15.01
-15.76
-16.91
-18.59
-20.67
-22.82
-24.45
-25.01
-24.05
-21.50
-17.62
-12.96
-8.16
-3.74
-0.03
2.91
5.10
6.67
7.74
8.42
8.85
9.16
9.47
9.82
10.19
10.47
10.55
10.37
9.96
9.48
9.11
8.98
9.11
9.34
9.46
9.25
8.56
7.36
5.77
3.99
2.26
0.79
-0.30
-1.03
-1.56
-2.14
-2.99
-4.25
-5.89
-7.71
-9.46
-10.95
-12.11
-13.02
-13.90
-14.96
-16.41
-18.30
-20.53
-22.73
-24.45
-25.13
-24.40
-22.13
-18.53
-14.14
-9.58
-5.40
-1.89
0.91
3.18
5.09
6.77
8.25
9.46
10.40
11.08
11.58
11.95
12.24
12.40
12.37
12.14
11.76
11.35
11.05
10.91
10.87
10.79
10.55
10.07
9.42
8.67
7.91
7.13
6.26
5.19
3.87
2.38
0.82
-0.68
-2.04
-3.24
-4.24
-5.10
-5.84
-6.61
-7.60
-9.01
-10.95
-13.32
-15.73
-17.60
-18.37
-17.63
-15.37
-11.96
-7.96
-3.96
-0.38
2.63
5.07
6.99
8.44
9.40
9.86
9.85
9.50
9.00
8.54
8.24
8.13
8.22
8.48
8.88
9.45
10.18
10.97
11.70
12.13
12.07
11.45
10.32
8.87
7.36
5.98
4.78
3.75
2.77
1.76
0.67
-0.53
-1.84
-3.23
-4.66
-6.02
-7.23
-8.25
-9.17
-10.18
-11.52
-13.33
-15.58
-17.97
-20.00
-21.12
-20.90
-19.20
-16.24
-12.54
-8.73
-5.32
-2.57
-0.46
1.23
2.69
4.00
5.09
5.85
6.28
6.49
6.72
7.11
7.72
8.49
9.24
9.87
10.38
10.87
11.45
12.13
12.80
13.25
13.26
12.70
11.59
10.08
8.42
6.81
5.36
4.07
2.83
1.50
0.01
-1.60
-3.19
-4.61
-5.74
-6.58
-7.26
-7.97
-8.92
-10.23
-11.97
-14.09
-16.46
-18.83
-20.85
-22.07
-22.05
-20.51
-17.48
-13.29
-8.52
-3.82
0.29
3.54
5.88
7.46
8.47
9.14
9.59
9.94
10.25
10.53
10.82
11.15
11.55
12.06
12.66
13.28
13.82
14.12
14.10
13.73
13.08
12.25
11.34
10.39
9.43
8.47
7.54
6.69
5.98
5.37
4.75
3.96
2.85
1.38
-0.34
-2.09
-3.64
-4.83
-5.68
-6.37
-7.21
-8.50
-10.40
-12.82
-15.41
-17.63
-18.89
-18.72
-16.92
-13.69
-9.56
-5.25
-1.47
1.30
2.98
3.77
4.06
4.23
4.45
4.74
4.98
5.11
5.18
5.29
5.54
5.92
6.32
6.63
6.76
6.74
6.65
6.54
6.42
6.22
5.89
5.35
4.59
3.63
2.48
1.22
-0.07
-1.26
-2.27
-3.08
-3.77
-4.50
-5.45
-6.72
-8.34
-10.26
-12.36
-14.47
-16.40
-17.88
-18.61
-18.33
-16.89
-14.36
-11.01
-7.28
-3.61
-0.33
2.39
4.54
6.18
7.39
8.20
8.64
8.73
8.55
8.21
7.84
7.54
7.39
7.42
7.61
7.92
8.24
8.46
8.49
8.29
7.92
7.42
6.88
6.29
5.57
4.66
3.53
2.26
0.98
-0.21
-1.33
-2.49
-3.85
-5.44
-7.14
-8.76
-10.12
-11.22
-12.27
-13.54
-15.28
-17.47
-19.80
-21.75
-22.73
-22.34
-20.43
-17.21
-13.14
-8.76
-4.57
-0.96
1.88
3.95
5.37
6.33
7.05
7.69
8.33
8.95
9.44
9.69
9.67
9.44
9.12
8.90
8.87
9.08
9.46
9.92
10.36
10.67
10.79
10.69
10.36
9.81
9.05
8.11
6.98
5.66
4.18
2.57
0.87
-0.87
-2.60
-4.27
-5.81
-7.13
-8.19
-9.07
-9.96
-11.14
-12.86
-15.17
-17.81
-20.25
-21.81
-21.94
-20.39
-17.31
-13.23
-8.83
-4.71
-1.25
1.47
3.57
5.24
6.64
7.84
8.85
9.67
10.32
10.86
11.32
11.72
11.99
12.06
11.88
11.47
10.96
10.50
10.26
10.27
10.49
10.69
10.65
10.18
9.21
7.88
6.41
5.02
3.87
2.94
2.13
1.30
0.35
-0.74
-1.91
-3.07
-4.15
-5.16
-6.18
-7.35
-8.80
-10.65
-12.94
-15.52
-18.10
-20.24
-21.45
-21.29
-19.59
-16.50
-12.49
-8.25
-4.40
-1.33
0.88
2.41
3.54
4.46
5.24
5.79
6.06
6.07
5.96
5.93
6.18
6.74
7.51
8.28
8.84
9.00
8.78
8.27
7.66
7.15
6.83
6.66
6.51
6.21
5.68
4.89
3.88
2.73
1.46
0.11
-1.28
-2.64
-3.92
-5.11
-6.29
-7.64
-9.36
-11.54
-14.10
-16.76
-19.06
-20.52
-20.70
-19.40
-16.68
-12.91
-8.68
-4.63
-1.25
1.25
2.95
4.10
4.99
5.68
6.11
6.18
5.82
5.18
4.51
4.09
4.09
4.51
5.16
5.85
6.38
6.64
6.59
6.25
5.66
4.88
3.98
3.02
1.99
0.85
-0.51
-2.20
-4.28
-6.69
-9.30
-11.80
-13.88
-15.22
-15.65
-15.24
-14.28
-13.18
-12.41
-12.31
-13.05
-14.57
-16.56
-18.53
-19.90
-20.07
-18.61
-15.41
-10.75
-5.30
0.10
4.67
7.96
9.93
10.88
11.29
11.56
11.91
12.39
13.02
13.95
15.41
17.64
20.70
24.35
28.05
31.16
33.16
33.89
33.48
32.26
30.56
28.57
26.35
23.84
21.01
17.84
14.40
10.74
6.91
2.90
-1.32
-5.78
-10.39
-14.96
-19.20
-22.78
-25.46
-27.13
-27.92
-28.10
-28.06
-28.18
-28.72
-29.74
-31.11
-32.42
-33.14
-32.70
-30.71
-27.13
-22.28
-16.76
-11.23
-6.18
-1.87
1.68
4.55
6.81
8.52
9.68
10.31
10.46
10.22
9.71
9.09
8.51
8.14
8.09
8.39
9.01
9.82
10.70
11.53
12.15
12.38
12.08
11.16
9.68
7.87
5.99
4.27
2.73
1.19
-0.64
-3.00
-5.92
-9.21
-12.50
-15.38
-17.61
-19.16
-20.23
-21.16
-22.35
-24.03
-26.18
-28.50
-30.46
-31.42
-30.85
-28.54
-24.67
-19.70
-14.28
-8.95
-4.03
0.37
4.34
7.92
11.07
13.66
15.59
16.87
17.65
18.17
18.65
19.15
19.58
19.76
19.51
18.73
17.48
15.95
14.48
13.37
12.90
13.12
13.88
14.88
15.71
16.08
15.79
14.85
13.33
11.44
9.43
7.57
6.03
4.74
3.35
1.33
-1.80
-6.13
-11.11
-15.69
-18.65
-19.10
-16.90
-12.59
-7.17
-1.54
3.75
8.71
13.62
18.71
23.99
29.17
33.81
37.48
39.99
41.33
41.69
41.36
40.65
39.85
39.15
38.64
38.28
37.90
37.28
36.21
34.55
32.24
29.30
25.78
21.81
17.53
13.18
9.04
5.36
2.35
0.06
-1.57
-2.76
-3.80
-5.03
-6.68
-8.88
-11.58
-14.53
-17.39
-19.75
-21.25
-21.73
-21.22
-20.00
-18.44
-16.98
-15.94
-15.52
-15.74
-16.47
-17.50
-18.61
-19.63
-20.40
-20.88
-21.01
-20.82
-20.36
-19.67
-18.76
-17.66
-16.37
-14.93
-13.41
-11.92
-10.59
-9.53
-8.79
-8.42
-8.38
-8.61
-9.01
-9.49
-9.95
-10.38
-10.82
-11.38
-12.18
-13.27
-14.63
-16.06
-17.31
-18.00
-17.73
-16.23
-13.38
-9.33
-4.47
0.63
5.43
9.52
12.75
15.19
17.01
18.37
19.37
20.03
20.36
20.42
20.32
20.23
20.30
20.55
20.95
21.34
21.62
21.76
21.78
21.74
21.61
21.29
20.58
19.35
17.56
15.32
12.85
10.31
7.73
4.99
1.85
-1.91
-6.33
-11.30
-16.54
-21.68
-26.30
-30.00
-32.37
-33.10
-32.06
-29.38
-25.47
-21.00
-16.60
-12.79
-9.76
-7.43
-5.56
-3.94
-2.46
-1.19
-0.26
0.24
0.31
0.07
-0.28
-0.62
-0.87
-1.01
-1.10
-1.11
-1.00
-0.70
-0.22
0.35
0.79
0.86
0.37
-0.70
-2.23
-3.93
-5.45
-6.49
-6.97
-7.00
-6.94
-7.26
-8.37
-10.40
-13.13
-15.92
-17.97
-18.53
-17.19
-14.05
-9.68
-4.87
-0.40
3.18
5.75
7.43
8.51
9.31
10.01
10.68
11.28
11.68
11.80
11.54
10.90
9.99
9.01
8.14
7.56
7.33
7.40
7.68
8.06
8.47
8.83
9.15
9.36
9.47
9.40
9.11
8.67
8.17
7.84
7.84
8.22
8.83
9.36
9.45
8.85
7.48
5.39
2.71
-0.40
-3.76
-7.04
-9.74
-11.29
-11.28
-9.57
-6.54
-2.87
0.65
3.49
5.46
6.79
7.88
9.10
10.60
12.21
13.52
14.11
13.75
12.53
10.86
9.30
8.33
8.22
8.97
10.45
12.54
15.15
18.15
21.21
23.79
25.18
24.83
22.57
18.72
13.96
9.01
4.39
0.28
-3.38
-6.74
-9.83
-12.51
-14.61
-16.04
-16.93
-17.64
-18.59
-20.08
-22.06
-24.03
-25.26
-25.00
-22.83
-18.83
-13.56
-7.89
-2.58
1.82
5.23
7.78
9.74
11.31
12.54
13.36
13.68
13.48
12.83
11.90
10.88
9.98
9.27
8.72
8.22
7.58
6.66
5.46
4.07
2.66
1.33
0.05
-1.32
-2.93
-4.87
-7.07
-9.31
-11.28
-12.73
-13.61
-14.04
-14.36
-14.90
-15.95
-17.61
-19.79
-22.23
-24.53
-26.25
-26.98
-26.43
-24.50
-21.33
-17.23
-12.66
-8.07
-3.83
-0.18
2.81
5.18
7.06
8.57
9.80
10.75
11.35
11.52
11.21
10.50
9.58
8.65
7.89
7.36
7.05
6.90
6.84
6.84
6.85
6.79
6.52
5.94
5.04
3.90
2.68
1.54
0.55
-0.31
-1.11
-1.93
-2.78
-3.68
-4.59
-5.62
-6.84
-8.38
-10.24
-12.24
-14.08
-15.31
-15.57
-14.64
-12.55
-9.58
-6.15
-2.73
0.32
2.75
4.52
5.67
6.36
6.77
7.10
7.52
8.15
9.02
10.04
11.09
11.97
12.59
12.87
12.85
12.56
12.07
11.43
10.70
9.88
8.97
7.93
6.73
5.39
3.94
2.48
1.08
-0.21
-1.39
-2.46
-3.43
-4.25
-4.92
-5.43
-5.92
-6.58
-7.63
-9.17
-11.16
-13.28
-15.09
-16.08
-15.87
-14.34
-11.67
-8.35
-4.98
-2.05
0.19
1.78
2.96
3.99
5.01
5.95
6.62
6.86
6.63
6.04
5.31
4.68
4.24
3.98
3.78
3.52
3.17
2.74
2.31
1.96
1.72
1.59
1.55
1.61
1.74
1.87
1.85
1.53
0.80
-0.35
-1.77
-3.28
-4.73
-6.08
-7.43
-8.89
-10.55
-12.42
-14.40
-16.29
-17.80
-18.55
-18.24
-16.65
-13.83
-10.12
-6.08
-2.31
0.75
2.92
4.31
5.19
5.84
6.40
6.86
7.14
7.15
6.93
6.61
6.39
6.39
6.62
6.96
7.21
7.22
6.97
6.57
6.19
5.95
5.83
5.69
5.34
4.62
3.52
2.13
0.62
-0.86
-2.19
-3.35
-4.36
-5.30
-6.25
-7.31
-8.59
-10.17
-12.05
-14.10
-16.06
-17.57
-18.25
-17.85
-16.31
-13.78
-10.58
-7.11
-3.73
-0.70
1.82
3.83
5.37
6.51
7.36
7.94
8.27
8.32
8.04
7.46
6.69
5.85
5.09
4.43
3.78
3.05
2.18
1.24
0.40
-0.16
-0.33
-0.14
0.24
0.59
0.76
0.66
0.31
-0.22
-0.83
-1.45
-1.99
-2.47
-2.93
-3.50
-4.30
-5.45
-7.01
-8.91
-10.93
-12.73
-13.91
-14.11
-13.10
-10.92
-7.88
-4.47
-1.27
1.30
3.00
3.88
4.14
4.01
3.65
3.12
2.40
1.53
0.59
-0.22
-0.75
-0.95
-0.93
-0.85
-0.85
-0.95
-1.05
-1.04
-0.86
-0.58
-0.36
-0.35
-0.59
-1.00
-1.41
-1.72
-1.89
-2.01
-2.19
-2.51
-2.97
-3.49
-4.04
-4.62
-5.36
-6.36
-7.61
-8.90
-9.83
-9.97
-9.02
-6.94
-4.01
-0.73
2.40
5.04
7.07
8.55
9.63
10.37
10.77
10.75
10.28
9.42
8.35
7.28
6.44
5.98
5.91
6.16
6.58
6.95
7.10
6.94
6.46
5.84
5.24
4.82
4.59
4.35
3.84
2.80
1.20
-0.80
-2.89
-4.73
-6.18
-7.29
-8.28
-9.44
-10.97
-12.91
-15.10
-17.22
-18.90
-19.73
-19.41
-17.85
-15.13
-11.57
-7.67
-3.92
-0.74
1.66
3.24
4.14
4.55
4.64
4.56
4.42
4.33
4.43
4.77
5.36
6.08
6.78
7.30
7.59
7.69
7.77
7.94
8.29
8.77
9.22
9.44
9.27
8.62
7.50
6.01
4.33
2.62
1.02
-0.36
-1.52
-2.48
-3.29
-4.08
-4.99
-6.15
-7.67
-9.50
-11.40
-12.92
-13.56
-12.93
-10.97
-7.98
-4.55
-1.36
1.10
2.68
3.53
3.93
4.14
4.30
4.39
4.37
4.27
4.24
4.46
5.02
5.91
6.94
7.88
8.56
8.86
8.81
8.48
7.96
7.32
6.60
5.81
4.96
4.01
2.94
1.75
0.51
-0.68
-1.76
-2.71
-3.64
-4.73
-6.15
-7.92
-9.89
-11.75
-13.07
-13.51
-12.88
-11.17
-8.62
-5.59
-2.45
0.45
2.85
4.63
5.77
6.37
6.57
6.54
6.41
6.27
6.17
6.10
6.05
6.02
6.03
6.14
6.40
6.79
7.24
7.68
7.97
8.03
7.86
7.47
6.91
6.16
5.17
3.87
2.24
0.39
-1.51
-3.26
-4.72
-5.93
-7.02
-8.07
-9.01
-9.51
-9.12
-7.49
-4.55
-0.66
3.54
7.28
9.97
11.30
11.25
9.99
7.75
4.77
1.29
-2.32
-5.69
-8.39
-10.14
-10.83
-10.61
-9.79
-8.75
-7.85
-7.26
-7.05
-7.12
-7.33
-7.54
-7.66
-7.63
-7.47
-7.22
-6.93
-6.69
-6.59
-6.70
-7.14
-7.95
-9.21
-10.85
-12.67
-14.28
-15.18
-14.89
-13.17
-10.12
-6.16
-1.89
2.14
5.56
8.24
10.16
11.32
11.69
11.25
10.11
8.54
6.94
5.69
5.04
5.04
5.52
6.23
6.87
7.27
7.35
7.20
6.92
6.56
6.11
5.46
4.44
2.97
1.10
-1.01
-3.13
-5.05
-6.63
-7.88
-8.92
-9.97
-11.24
-12.92
-15.09
-17.60
-20.10
-22.07
-22.97
-22.42
-20.30
-16.86
-12.58
-8.07
-3.87
-0.35
2.37
4.40
6.03
7.55
9.15
10.81
12.34
13.44
13.93
13.79
13.21
12.52
11.98
11.71
11.65
11.63
11.43
10.94
10.20
9.31
8.42
7.61
6.86
6.06
5.10
3.89
2.45
0.91
-0.59
-1.91
-3.01
-3.93
-4.81
-5.75
-6.80
-7.99
-9.33
-10.82
-12.49
-14.30
-16.08
-17.47
-18.02
-17.31
-15.13
-11.62
-7.29
-2.82
1.14
4.21
6.35
7.78
8.87
9.89
10.97
12.09
13.10
13.88
14.37
14.61
14.69
14.72
14.72
14.68
14.54
14.24
13.77
13.20
12.66
12.25
11.96
11.68
11.25
10.54
9.50
8.21
6.81
5.43
4.12
2.81
1.46
0.00
-1.50
-2.94
-4.19
-5.18
-5.94
-6.50
-6.97
-7.41
-7.96
-8.73
-9.88
-11.49
-13.48
-15.58
-17.37
-18.37
-18.18
-16.66
-13.90
-10.23
-6.11
-2.02
1.60
4.52
6.66
8.14
9.19
10.05
10.90
11.76
12.60
13.32
13.87
14.26
14.51
14.67
14.68
14.50
14.08
13.48
12.85
12.37
12.15
12.13
12.15
11.97
11.44
10.60
9.63
8.73
8.01
7.39
6.64
5.60
4.23
2.65
1.08
-0.31
-1.47
-2.48
-3.43
-4.39
-5.31
-6.12
-6.79
-7.34
-7.84
-8.36
-8.93
-9.57
-10.30
-11.22
-12.42
-13.87
-15.45
-16.79
-17.47
-17.08
-15.41
-12.53
-8.79
-4.73
-0.94
2.07
4.07
5.09
5.42
5.46
5.52
5.78
6.23
6.75
7.22
7.61
7.94
8.27
8.61
8.94
9.20
9.38
9.54
9.77
10.15
10.68
11.23
11.61
11.62
11.17
10.27
9.13
7.95
6.92
6.12
5.49
4.93
4.33
3.63
2.85
2.04
1.24
0.45
-0.34
-1.22
-2.25
-3.41
-4.63
-5.79
-6.75
-7.51
-8.15
-8.84
-9.74
-10.94
-12.42
-14.05
-15.64
-16.97
-17.78
-17.85
-16.95
-15.03
-12.25
-8.97
-5.69
-2.80
-0.50
1.22
2.51
3.52
4.30
4.83
5.12
5.26
5.40
5.68
6.13
6.70
7.28
7.81
8.30
8.78
9.24
9.60
9.74
9.56
9.06
8.33
7.45
6.52
