1541005496.00
64.000000
-0.00
-0.00
-0.00
-0.00
-0.00
-0.00
-0.00
-0.00
-0.00
-0.00
0.00
0.01
0.01
-0.00
-0.03
-0.05
-0.05
0.00
0.13
0.36
0.66
1.01
1.37
1.72
2.06
2.40
2.79
3.25
3.80
4.42
5.05
5.67
6.26
6.84
7.45
8.15
8.91
9.80
10.71
11.57
12.35
13.06
13.82
14.79
16.12
17.86
20.13
22.71
25.37
27.91
30.31
32.73
35.47
38.84
42.99
48.14
53.88
59.78
65.52
71.05
76.64
82.74
89.75
97.74
106.82
116.34
125.74
134.77
143.59
152.73
162.78
174.41
185.33
196.88
209.31
223.20
238.55
253.85
265.68
269.34
260.33
236.01
197.23
147.23
91.06
33.75
-21.17
-72.11
-119.17
-163.25
-205.45
-246.32
-286.89
-328.41
-371.62
-415.35
-455.29
-484.22
-493.96
-479.00
-439.45
-382.32
-319.07
-261.23
-216.11
-184.52
-162.18
-142.95
-122.30
-98.85
-73.93
-49.44
-25.98
-2.81
21.26
46.34
70.79
91.97
107.74
117.90
124.52
130.96
140.08
152.75
167.33
180.74
190.11
194.53
195.61
196.68
201.09
210.34
222.98
234.86
240.69
235.99
218.90
190.97
156.40
120.46
87.50
59.53
35.85
13.89
-9.84
-38.73
-74.89
-118.08
-164.72
-207.34
-235.56
-238.84
-210.44
-151.18
-70.57
15.68
90.89
143.07
168.33
170.55
157.82
138.29
117.10
96.00
75.00
54.30
34.69
17.00
0.76
-16.35
-37.53
-65.08
-98.88
-135.99
-171.48
-200.81
-221.65
-234.82
-243.81
-252.46
-263.10
-275.40
-286.86
-292.33
-287.87
-272.06
-246.42
-217.85
-193.60
-179.99
-181.37
-197.91
-226.01
-259.40
-290.14
-310.74
-317.01
-308.57
-288.74
-261.23
-232.45
-203.39
-171.79
-133.67
-85.27
-27.40
32.54
84.66
120.26
134.00
126.54
103.09
70.94
36.52
2.90
-29.49
-60.98
-90.88
-116.85
-135.03
-141.68
-135.73
-118.91
-94.80
-66.53
-35.22
0.07
41.13
89.41
144.16
201.96
257.42
304.33
336.94
350.85
343.67
316.12
272.82
221.71
172.47
133.71
109.81
99.43
96.47
92.53
80.48
57.67
26.43
-7.71
-38.62
-61.37
-72.39
-69.63
-51.94
-20.12
21.76
66.19
104.16
128.49
136.21
130.21
117.59
106.20
101.20
103.52
110.71
119.13
125.98
129.99
131.06
129.28
124.40
116.19
104.94
91.75
78.27
66.28
56.77
49.77
44.43
39.46
33.76
26.88
19.18
11.63
5.32
0.90
-1.58
-2.71
-3.44
-4.62
-6.68
-9.50
-12.54
-15.09
-16.68
-17.21
-16.92
-16.30
-15.84
-15.83
-16.25
-16.89
-17.41
-17.59
-17.35
-16.75
-15.96
-15.16
-14.47
-13.90
-13.43
-12.89
-12.29
-11.65
-10.98
-10.30
-9.64
-8.99
-8.38
-7.81
-7.25
-6.76
-6.30
-5.87
-5.48
-5.12
-4.79
-4.47
-4.19
-3.91
-3.67
-3.46
-3.26
-3.09
-2.93
-2.78
-2.61
-2.44
-2.27
-2.15
-2.09
-2.10
-2.20
-2.33
-2.44
-2.49
-2.46
-2.35
-2.25
-2.20
-2.23
-2.37
-2.55
-2.70
-2.76
-2.70
-2.56
-2.45
-2.47
-2.70
-3.13
-3.65
-4.09
-4.30
-4.20
-3.93
-3.71
-3.86
-4.55
-5.77
-7.23
-8.50
-9.20
-9.16
-8.64
-8.19
-8.45
-9.83
-12.30
-15.29
-17.93
-19.47
-19.63
-18.81
-18.01
-18.31
-20.44
-24.30
-29.00
-33.14
-35.71
-36.24
-35.27
-33.96
-33.51
-34.83
-38.44
-44.58
-52.90
-61.95
-68.77
-69.37
-60.18
-39.99
-11.26
20.42
48.29
67.37
76.20
76.87
73.27
68.71
64.58
60.47
55.58
49.90
44.65
41.44
41.14
43.10
45.44
46.13
43.78
38.72
32.66
27.95
26.40
28.40
32.73
37.03
38.95
37.24
32.50
26.88
23.15
23.36
27.81
34.86
41.58
45.27
44.45
39.86
33.96
29.81
29.80
34.89
44.38
55.99
66.14
70.49
64.96
47.27
18.43
-16.56
-50.29
-75.11
-86.37
-84.33
-74.02
-62.71
-56.63
-58.02
-64.52
-70.37
-69.25
-57.19
-34.41
-5.34
22.91
43.14
50.65
45.01
29.64
10.20
-7.75
-20.54
-27.07
-27.92
-24.25
-17.02
-6.99
4.66
15.80
23.84
26.60
23.29
15.31
5.75
-1.76
-4.63
-2.29
3.34
9.05
12.03
11.22
8.18
6.29
9.14
18.38
32.76
47.89
58.81
62.23
58.06
49.24
40.13
34.29
33.02
35.41
38.58
40.06
38.68
34.56
28.44
20.78
11.11
-2.46
-17.42
-33.03
-48.64
-63.78
-78.37
-92.25
-104.34
-112.09
-111.77
-99.63
-74.67
-39.28
0.55
36.65
61.37
70.09
62.49
42.04
14.42
-15.07
-41.97
-62.94
-75.46
-77.73
-69.14
-51.05
-27.17
-2.90
15.71
24.27
21.26
8.20
-11.28
-32.94
-53.16
-69.49
-80.58
-86.07
-85.93
-80.36
-69.63
-54.08
-34.13
-10.61
15.05
40.81
64.32
83.72
98.17
107.98
114.06
117.15
117.33
113.97
106.41
94.66
79.73
63.39
47.61
34.07
23.85
17.43
14.60
14.29
14.44
12.33
5.55
-6.93
-24.05
-42.84
-59.59
-71.41
-77.47
-79.16
-79.43
-81.52
-87.86
-99.39
-115.12
-131.97
-144.95
-148.00
-135.73
-105.68
-59.96
-5.42
48.31
91.97
119.71
130.46
127.29
115.40
99.87
84.37
71.07
61.03
54.77
52.33
53.02
55.40
57.63
58.02
55.76
51.11
45.30
39.97
36.56
35.79
37.48
40.73
44.32
47.27
49.23
50.61
52.33
55.42
60.43
67.27
75.22
83.34
90.98
98.09
105.05
112.27
119.49
125.60
128.89
127.79
121.60
110.74
96.31
79.35
60.07
37.74
11.16
-20.50
-56.93
-96.47
-136.44
-173.76
-205.57
-229.72
-245.04
-251.48
-249.95
-242.04
-229.45
-213.39
-194.39
-172.43
-147.51
-120.45
-93.19
-68.53
-49.25
-37.01
-31.67
-31.27
-32.84
-33.52
-31.42
-26.00
-17.74
-7.55
3.70
15.20
26.09
35.25
41.63
44.70
45.00
44.26
44.62
47.78
54.07
62.22
69.79
74.12
73.18
66.12
53.26
35.93
16.18
-3.46
-20.37
-32.47
-38.82
-39.96
-37.68
-34.24
-31.36
-29.50
-27.90
-25.27
-20.85
-15.14
-9.93
-7.49
-9.48
-16.07
-25.82
-36.34
-45.27
-51.12
-53.55
-53.08
-50.61
-46.95
-42.76
-38.62
-35.18
-33.05
-32.67
-34.07
-36.83
-40.22
-43.35
-45.29
-45.15
-42.20
-36.08
-27.04
-16.04
-4.53
5.99
14.49
20.68
25.02
28.30
31.19
33.78
35.51
35.47
32.80
27.28
19.57
11.03
3.25
-2.58
-6.05
-7.62
-8.25
-8.95
-10.31
-12.50
-15.34
-18.61
-22.07
-25.53
-28.77
-31.51
-33.56
-34.82
-35.33
-35.06
-33.84
-31.33
-27.25
-21.56
-14.77
-7.83
-1.86
2.23
4.07
3.91
2.62
1.32
1.16
2.88
6.66
11.99
17.76
22.67
25.60
25.99
24.04
20.47
16.20
11.88
7.64
3.27
-1.60
-7.11
-12.97
-18.68
-23.67
-27.67
-30.84
-33.67
-36.76
-40.59
-45.40
-51.11
-57.40
-63.61
-68.71
-71.46
-70.70
-65.95
-57.88
-48.36
-40.04
-35.34
-35.59
-40.55
-48.62
-57.46
-64.64
-68.02
-65.97
-57.37
-41.97
-20.65
4.46
30.35
54.02
73.37
87.77
97.91
105.14
110.76
115.65
120.34
125.27
131.00
138.00
146.43
155.83
165.26
173.72
180.56
185.82
190.17
194.56
199.69
205.66
211.87
217.11
219.83
218.36
211.17
197.05
175.32
146.25
111.24
72.68
33.30
-4.69
-40.06
-72.56
-102.48
-129.86
-154.24
-174.73
-190.58
-201.61
-208.28
-211.44
-211.94
-210.50
-207.76
-204.48
-201.53
-199.56
-198.73
-198.35
-197.16
-193.41
-185.33
-171.49
-151.33
-125.68
-96.94
-68.69
-44.74
-28.03
-19.69
-18.91
-23.47
-30.71
-38.33
-44.80
-49.22
-51.07
-49.95
-45.48
-37.59
-26.61
-13.39
0.78
14.38
25.96
34.55
39.81
42.11
42.38
41.73
41.18
41.35
42.36
43.95
45.58
46.79
47.42
47.70
48.13
49.27
51.41
54.46
58.10
61.98
65.88
69.72
73.30
76.08
77.16
75.60
70.89
63.33
54.11
44.99
37.73
33.53
32.77
35.11
39.67
45.35
50.91
55.07
56.55
54.35
48.28
39.13
28.66
19.03
12.04
8.35
7.27
7.05
5.65
1.62
-5.38
-14.45
-23.87
-31.78
-36.72
-38.09
-36.14
-31.73
-25.91
-19.54
-13.17
-7.03
-1.21
4.15
8.91
12.99
16.43
19.50
22.49
25.64
28.95
32.22
35.09
37.18
38.15
37.76
35.83
32.30
27.16
20.63
13.16
5.36
-2.12
-8.79
-14.39
-18.93
-22.51
-25.18
-26.90
-27.53
-27.09
-25.82
-24.23
-22.92
-22.37
-22.71
-23.71
-24.90
-25.84
-26.32
-26.39
-26.23
-25.99
-25.65
-25.01
-23.89
-22.25
-20.29
-18.40
-16.91
-16.03
-15.66
-15.52
-15.30
-14.75
-13.81
-12.53
-11.01
-9.33
-7.64
-6.08
-4.86
-4.14
-3.96
-4.23
-4.75
-5.32
-5.83
-6.28
-6.67
-6.83
-6.46
-5.12
-2.57
1.18
5.66
10.24
14.35
17.79
20.72
23.48
26.23
28.79
30.67
31.32
30.56
28.62
26.11
23.63
21.52
19.71
17.97
16.15
14.35
12.88
11.97
11.66
11.72
11.83
11.76
11.45
11.00
10.40
9.54
8.21
6.25
3.71
0.86
-1.92
-4.35
-6.36
-8.19
-10.21
-12.83
-16.24
-20.34
-24.69
-28.60
-31.31
-32.21
-31.03
-27.88
-23.26
-17.89
-12.51
-7.69
-3.72
-0.56
2.03
4.29
6.35
8.17
9.58
10.48
10.88
11.01
11.12
11.42
11.95
12.63
13.33
14.03
14.76
15.63
16.71
17.96
19.21
20.26
20.95
21.24
21.25
21.28
21.70
22.89
25.16
28.67
33.41
39.30
46.22
54.09
62.77
71.99
81.25
89.84
96.99
101.96
104.12
102.94
97.92
88.66
75.05
57.60
37.64
17.33
-0.83
-14.64
-23.01
-26.29
-26.20
-25.19
-25.58
-28.77
-34.86
-42.79
-50.77
-56.83
-59.20
-56.70
-48.91
-36.25
-20.13
-2.65
13.80
27.19
36.40
41.42
43.26
43.43
43.53
44.88
48.33
54.16
61.92
70.26
77.20
80.52
78.51
70.73
58.23
43.27
28.51
16.14
7.23
1.66
-1.47
-3.42
-5.24
-7.53
-10.31
-13.12
-15.19
-15.67
-13.94
-9.82
-3.66
3.76
11.43
18.40
23.92
27.60
29.27
29.03
27.16
24.10
20.30
16.15
11.85
7.48
3.03
-1.42
-5.55
-8.98
-11.32
-12.48
-12.80
-12.95
-13.78
-15.96
-19.78
-25.07
-31.42
-38.50
-46.31
-55.33
-66.38
-80.26
-97.37
-117.40
-139.27
-161.10
-180.42
-194.52
-201.25
-199.76
-191.19
-178.48
-165.52
-155.65
-150.39
-148.97
-149.09
-148.21
-144.82
-138.85
-131.11
-122.30
-112.41
-100.67
-86.25
-68.99
-49.73
-29.98
-11.42
4.69
17.67
27.43
34.30
38.88
41.95
44.26
46.42
48.65
50.84
52.72
54.15
55.30
56.59
58.45
61.08
64.29
67.65
70.81
73.76
76.88
80.64
85.27
90.53
95.77
100.22
103.30
104.78
104.71
103.23
100.41
96.26
90.90
84.69
78.14
71.67
65.32
58.60
50.74
41.03
29.28
16.02
2.27
-10.78
-22.29
-31.89
-39.52
-45.08
-48.18
-48.12
-44.35
-37.01
-27.09
-16.34
-6.64
0.67
5.22
7.62
9.06
10.73
13.34
16.93
20.96
24.68
27.38
28.75
28.93
28.49
28.32
29.34
32.29
37.52
44.76
52.83
59.63
62.55
59.29
49.11
33.63
16.77
3.58
-1.38
4.32
20.22
43.41
69.63
94.72
115.74
131.38
141.65
147.29
149.00
146.88
140.29
128.27
110.29
87.08
60.80
34.53
11.08
-7.93
-22.45
-33.76
-43.59
-53.17
-62.81
-72.12
-80.66
-88.61
-96.54
-105.09
-114.57
-124.75
-134.87
-144.11
-152.02
-158.70
-165.14
-172.07
-179.55
-186.92
-193.34
-198.11
-201.09
-202.81
-204.15
-206.69
-210.60
-214.77
-218.07
-220.55
-223.22
-227.20
-232.74
-238.68
-244.23
-246.36
-240.88
-225.27
-200.41
-169.93
-138.57
-110.63
-88.83
-76.65
-73.11
-73.46
-73.18
-70.54
-65.91
-60.01
-52.74
-43.31
-34.39
-26.07
-16.03
-2.72
13.23
30.58
48.48
65.77
103.87
157.84
204.83
229.33
234.66
232.56
232.14
235.87
241.19
244.03
238.47
224.94
209.18
196.43
187.48
179.84
170.56
158.78
145.98
132.29
120.43
114.68
117.11
124.92
132.05
131.69
119.82
96.39
64.02
30.01
3.55
-9.21
-7.98
4.06
19.46
32.52
41.35
46.20
49.27
52.58
56.24
58.30
56.39
49.09
36.65
21.14
4.82
-10.38
-23.57
-34.97
-45.85
-57.57
-69.25
-81.29
-93.12
-104.34
-114.84
-124.05
-130.11
-129.77
-119.55
-97.88
-66.77
-31.34
1.51
26.05
39.90
44.48
43.54
40.74
38.07
35.45
32.36
28.61
25.00
22.76
22.69
24.47
26.81
28.21
27.40
24.42
20.24
16.28
13.74
13.14
14.11
15.65
16.62
16.19
14.35
11.67
9.04
7.26
6.60
6.91
7.59
8.00
7.68
6.60
5.06
3.52
2.39
1.80
1.69
1.79
1.81
1.58
1.07
0.43
-0.18
-0.63
-0.87
-0.95
-0.96
-1.00
-1.10
-1.27
-1.48
-1.68
-1.87
-2.07
-2.34
-2.72
-3.23
-3.83
-4.46
-5.03
-5.51
-5.93
-6.37
-6.97
-7.82
-8.94
-10.23
-11.56
-12.76
-13.73
-14.52
-15.32
-16.35
-17.84
-19.78
-22.02
-24.27
-26.16
-27.49
-28.34
-29.07
-30.20
-32.15
-34.95
-38.21
-41.15
-42.70
-42.04
-38.85
-33.43
-26.25
-18.16
-9.41
0.22
11.30
24.75
41.29
60.88
82.22
102.73
119.16
128.65
129.64
122.51
109.35
92.93
75.76
59.59
45.37
33.20
23.47
16.01
9.81
4.14
-0.94
-4.02
-2.85
4.16
16.20
29.44
37.93
36.44
23.60
2.39
-20.77
-39.04
-48.44
-49.21
-44.80
-39.52
-35.88
-33.61
-30.62
-24.79
-15.72
-5.06
4.13
9.58
10.21
7.22
3.58
2.55
6.10
13.93
23.21
29.86
30.48
23.59
10.68
-4.61
-18.35
-28.08
-33.64
-36.47
-38.86
-42.27
-47.55
-55.46
-67.05
-82.85
-101.57
-118.91
-125.74
-116.21
-90.10
-54.74
-22.67
-5.70
-8.56
-26.09
-46.27
-55.62
-46.38
-18.80
19.52
57.46
84.37
93.63
84.13
59.59
26.89
-6.60
-34.51
-53.39
-62.87
-65.66
-66.01
-67.65
-72.32
-79.54
-86.92
-91.62
-91.59
-84.89
-70.33
-47.50
-16.91
19.55
58.13
92.27
115.36
124.24
123.00
120.21
123.51
135.40
152.41
167.74
175.35
177.44
175.30
170.87
164.36
154.05
138.12
116.93
93.75
74.05
63.60
63.04
70.83
81.38
86.50
78.38
52.09
6.36
-56.07
-128.75
-201.68
-260.07
-291.18
-291.28
-267.91
-235.23
-206.71
-193.03
-191.46
-194.11
-192.31
-180.72
-158.13
-125.85
-83.20
-31.06
29.52
93.28
152.42
200.13
232.60
249.54
252.98
246.04
231.47
215.87
201.37
189.24
180.49
175.12
171.90
168.57
163.30
155.15
143.04
127.50
110.06
92.27
74.99
58.37
41.38
23.38
4.33
-14.94
-33.42
-50.05
-64.24
-75.86
-85.02
-93.18
-101.44
-110.43
-120.19
-130.36
-140.54
-150.40
-159.55
-167.67
-176.35
-187.18
-200.99
-217.27
-233.97
-248.87
-260.30
-267.58
-260.41
-233.43
-186.80
-126.83
-63.78
-8.04
31.14
47.65
40.28
13.39
-25.82
-67.89
-103.84
-131.33
-147.08
-149.90
-140.40
-120.39
-92.51
-61.07
-30.02
-2.22
20.68
38.46
50.46
55.62
53.47
44.26
29.29
12.01
-2.77
-10.21
-6.37
10.00
37.65
73.62
114.10
154.68
191.28
220.39
239.47
247.31
243.55
228.71
204.03
171.38
133.08
92.12
52.01
16.29
-12.15
-32.29
-45.26
-53.94
-61.63
-70.76
-81.96
-94.14
-105.49
-114.58
-121.19
-126.21
-130.95
-136.39
-142.88
-150.35
-158.78
-168.19
-178.13
-186.97
-191.64
-188.14
-172.95
-144.67
-104.85
-57.37
-6.89
42.97
90.15
133.52
171.18
199.57
213.84
209.99
187.51
151.05
109.94
75.48
57.58
61.77
88.19
132.27
186.53
242.19
290.33
322.73
332.80
317.12
276.79
218.22
152.41
92.43
49.84
31.23
36.25
58.04
85.71
107.95
116.50
108.18
84.98
52.59
17.98
-12.92
-36.65
-52.64
-62.62
-69.43
-75.86
-83.81
-93.84
-105.47
-117.57
-128.96
-138.81
-146.73
-152.74
-157.23
-160.88
-164.56
-169.26
-175.82
-184.62
-195.54
-208.14
-221.93
-236.70
-252.49
-269.29
-286.55
-303.05
-317.15
-327.29
-332.77
-333.72
-331.20
-326.65
-321.23
-315.24
-308.22
-299.33
-287.95
-274.12
-258.02
-239.69
-218.67
-194.29
-166.08
-134.57
-101.13
-66.80
-31.41
7.56
53.70
109.41
173.70
242.18
307.60
362.84
403.80
429.98
445.20
454.62
462.09
469.27
477.64
488.03
501.10
516.95
532.58
544.94
550.46
546.02
530.87
509.61
488.65
473.71
467.46
466.11
465.59
461.78
451.54
434.29
414.65
397.43
385.55
378.81
371.44
361.21
349.13
338.12
309.61
252.28
161.52
42.28
-72.12
-171.95
-253.75
-315.70
-362.22
-395.06
-413.57
-418.23
-409.70
-388.50
-358.74
-322.18
-281.30
-241.02
-206.80
-181.01
-164.04
-154.22
-148.76
-146.92
-145.23
-139.68
-127.45
-107.14
-78.35
-43.72
-8.18
22.25
42.82
54.94
63.49
72.71
84.11
96.95
109.59
120.91
129.43
133.97
134.25
129.58
118.21
98.07
67.50
28.20
-16.50
-65.23
-116.45
-168.62
-220.65
-272.60
-325.08
-378.46
-431.95
-483.33
-533.28
-581.14
-624.60
-659.85
-682.99
-691.14
-683.42
-661.26
-607.24
-515.37
-389.61
-243.26
-93.39
44.83
161.21
249.95
305.66
332.63
334.42
318.12
295.09
278.90
279.78
301.70
342.13
389.92
430.44
448.39
435.95
395.74
338.35
274.56
212.15
154.10
99.24
45.62
-9.23
-67.52
-130.45
-198.25
-272.24
-350.57
-426.44
-489.91
-531.02
-543.95
-530.84
-499.59
-445.38
-371.99
-288.01
-203.26
-125.66
-66.95
-23.79
8.85
35.35
59.17
81.88
103.35
123.89
143.93
163.57
183.63
202.76
219.19
231.53
237.12
231.63
213.48
183.85
146.21
106.31
67.89
33.06
2.79
-23.43
-45.57
-62.11
-71.78
-73.48
-66.07
-50.82
-30.32
-7.53
14.70
35.04
54.24
74.37
98.23
128.13
165.58
210.62
260.78
310.53
352.44
379.58
387.94
371.80
333.30
281.02
226.68
179.78
144.18
118.44
99.10
83.31
69.86
60.62
54.89
50.45
44.54
35.18
21.93
5.68
-12.12
-30.61
-49.45
-68.19
-87.02
-106.30
-126.13
-145.89
-164.35
-180.01
-191.64
-198.23
-200.27
-200.11
-201.41
-207.29
-218.09
-229.93
-235.31
-225.80
-195.33
-143.07
-73.85
3.62
79.53
145.31
194.48
222.57
227.01
207.95
169.29
118.92
67.23
24.08
-4.67
-19.15
-24.79
-29.54
-40.27
-60.08
-87.37
-117.29
-144.24
-164.34
-176.63
-182.90
-186.32
-189.74
-194.57
-200.46
-205.92
-209.23
-209.35
-205.94
-199.25
-189.65
-177.24
-161.90
-143.49
-122.30
-99.32
-76.50
-56.85
-44.18
-42.45
-54.45
-80.36
-116.92
-157.73
-195.00
-222.01
-235.06
-234.05
-221.35
-199.93
-171.78
-137.44
-96.78
-50.04
1.71
56.91
114.88
176.74
245.63
325.14
417.01
518.45
620.98
711.62
776.52
805.63
796.31
753.93
689.39
614.34
536.98
460.06
382.04
300.32
214.40
127.30
44.36
-29.03
-89.94
-139.12
-180.28
-218.52
-258.58
-303.40
-353.66
-407.71
-461.44
-508.40
-541.07
-552.98
-541.45
-509.34
-464.22
-414.88
-367.38
-322.41
-275.30
-219.62
-151.33
-71.77
12.78
94.06
165.41
223.86
270.49
309.63
347.07
388.75
437.79
493.67
551.50
602.68
637.40
648.03
632.15
591.86
532.46
457.65
369.23
267.62
153.85
31.61
-91.78
-205.54
-299.11
-363.20
-394.91
-396.58
-375.17
-340.87
-305.09
-278.03
-265.31
-269.82
-291.16
-331.10
-391.34
-471.60
-567.20
-667.85
-759.79
-828.51
-866.89
-854.49
-786.26
-673.61
-540.64
-412.10
-302.02
-221.40
-159.90
-108.81
-64.42
-29.59
-6.86
6.37
15.75
28.86
52.13
90.36
142.97
207.10
276.17
343.93
405.87
460.09
507.23
549.79
592.12
636.61
684.04
730.71
769.89
793.57
795.11
771.77
725.09
660.56
583.78
499.66
410.99
319.98
229.53
143.59
65.94
-1.69
-60.64
-115.26
-170.13
-227.56
-286.14
-341.75
-389.93
-428.25
-458.09
-483.66
-510.39
-541.78
-577.65
-613.12
-640.21
-650.83
-640.08
-608.50
-562.02
-509.59
-459.62
-417.28
-383.66
-357.05
-335.09
-316.39
-300.60
-287.40
-275.20
-260.93
-240.87
-212.17
-174.16
-128.54
-78.85
-28.89
18.59
62.64
103.98
144.16
184.54
225.71
267.45
308.96
349.13
386.46
418.84
443.60
458.06
460.47
450.73
430.61
403.09
371.34
337.77
303.82
270.44
238.72
210.29
186.88
169.68
158.61
152.29
148.56
145.37
141.47
136.62
131.37
126.39
121.97
117.75
112.92
106.66
98.57
88.98
78.80
69.23
61.26
55.32
51.18
48.16
45.51
42.71
39.66
36.55
33.67
31.15
28.86
26.51
23.71
20.24
16.04
11.21
5.95
0.49
-4.92
-10.05
-14.73
-18.94
-22.86
-26.91
-31.60
-37.37
-44.32
-52.05
-59.70
-66.10
-70.09
-70.82
-67.97
-61.77
-52.94
-42.53
-31.73
-21.63
-13.02
-6.21
-1.12
2.62
5.44
7.68
9.53
11.03
12.17
12.95
13.45
13.78
14.06
14.45
15.10
16.14
17.63
19.48
21.50
23.42
24.93
25.80
25.83
24.88
22.92
19.98
16.23
11.82
6.92
1.66
-3.89
-9.57
-15.15
-20.29
-24.69
-28.17
-30.90
-33.29
-35.96
-39.44
-43.91
-49.01
-53.82
-57.11
-57.66
-54.71
-48.15
-38.61
-27.27
-15.48
-4.46
4.99
12.51
18.14
22.12
24.74
26.28
26.95
26.96
26.50
25.79
25.00
24.25
23.60
23.06
22.66
22.47
22.60
23.12
23.96
24.92
25.67
25.90
25.40
24.14
22.25
19.93
17.38
14.73
12.05
9.41
6.84
4.44
2.22
0.16
-1.82
-3.81
-5.89
-8.04
-10.17
-12.18
-13.99
-15.65
-17.27
-19.05
-21.23
-24.03
-27.60
-32.01
-37.13
-42.55
-47.62
-51.43
-53.06
-51.83
-47.56
-40.61
-31.84
-22.31
-13.02
-4.70
2.22
7.58
11.39
13.77
14.99
15.38
15.35
15.20
15.10
15.01
14.83
14.48
14.02
13.60
13.41
13.59
14.13
14.87
15.57
15.91
15.60
14.47
12.51
9.94
7.11
4.40
2.02
-0.09
-2.28
-5.08
-9.06
-14.57
-21.60
-29.75
-38.31
-46.51
-53.91
-60.64
-67.59
-76.21
-88.14
-104.72
-126.65
-153.80
-185.24
-219.31
-253.86
-286.63
-315.86
-340.63
-361.00
-377.55
-390.66
-399.82
-403.46
-399.42
-386.00
-362.92
-331.64
-294.83
-255.22
-214.54
-173.19
-130.55
-86.05
-39.85
6.97
53.03
97.65
141.27
185.03
229.57
273.81
314.47
346.99
367.38
373.76
367.27
351.34
330.14
306.94
283.39
259.91
236.56
213.70
191.91
171.69
153.33
137.41
125.56
120.79
126.96
147.15
181.66
226.49
273.56
312.56
334.06
332.35
307.08
262.82
207.05
147.34
88.93
33.69
-19.47
-72.67
-126.58
-178.97
-224.70
-257.46
-272.32
-268.05
-247.87
-218.25
-186.52
-158.26
-136.04
-119.76
-108.15
-99.97
-94.38
-90.03
-84.43
-74.06
-55.97
-29.51
2.71
35.84
65.07
87.87
104.97
119.35
134.11
150.47
167.09
181.15
189.96
192.53
189.87
184.28
178.14
172.80
168.55
165.21
162.94
162.49
164.70
169.43
174.76
177.39
174.35
165.20
153.69
147.54
156.20
187.22
242.50
316.26
395.97
465.91
512.18
527.00
510.51
469.59
414.46
354.56
296.05
241.46
191.15
145.33
105.12
72.22
47.68
30.98
19.92
11.83
4.94
-0.71
-3.44
-0.74
9.22
26.67
49.92
75.92
101.46
124.12
142.81
157.50
168.62
176.00
178.40
173.80
160.26
137.05
105.27
67.53
26.90
-14.38
-55.75
-98.25
-143.58
-192.86
-245.81
-300.62
-354.68
-405.61
-451.88
-493.20
-530.02
-563.01
-592.67
-619.55
-644.57
-668.92
-693.24
-716.01
-732.86
-736.83
-720.61
-679.59
-613.97
-528.78
-431.56
-329.56
-227.65
-129.03
-37.08
42.94
104.12
139.99
147.30
127.87
88.44
39.05
-9.43
-47.30
-67.33
-65.51
-41.26
2.39
58.67
117.61
167.35
196.03
194.11
156.37
83.64
-16.40
-130.40
-242.04
-336.12
-402.42
-437.99
-446.94
-437.98
-421.08
-404.17
-391.61
-384.33
-381.36
-381.42
-383.90
-388.59
-394.83
-400.90
-404.13
-401.83
-392.40
-375.93
-354.20
-329.87
-305.30
-281.63
-258.45
-234.15
-206.73
-174.86
-138.61
-99.72
-60.76
-24.30
8.27
37.45
65.65
96.45
133.60
179.86
235.84
299.38
365.17
424.96
468.70
487.19
474.97
433.05
369.66
298.35
234.04
188.66
168.32
172.94
197.74
235.13
276.33
312.26
334.45
336.45
315.19
271.72
210.87
139.99
67.19
-0.21
-56.41
-97.44
-121.49
-129.53
-125.09
-113.20
-97.56
-80.09
-60.87
-38.98
-13.69
14.74
44.29
71.36
91.45
102.82
105.66
102.15
96.01
91.53
92.31
99.95
113.84
131.95
155.71
187.01
226.81
273.62
323.72
372.62
416.93
456.02
492.30
534.91
592.07
666.84
754.20
842.70
918.57
970.78
995.11
965.02
869.60
714.60
522.70
323.73
142.18
-9.55
-129.71
-221.43
-289.38
-333.98
-356.76
-360.40
-353.13
-343.46
-337.91
-340.52
-352.64
-374.27
-401.19
-429.35
-455.81
-479.69
-501.36
-516.97
-524.00
-520.90
-507.40
-482.29
-445.44
-398.20
-343.90
-286.64
-229.90
-175.97
-124.93
-75.71
-26.56
22.67
70.04
112.38
147.27
173.95
192.58
203.66
207.07
202.49
189.77
169.70
144.22
116.11
88.27
62.81
41.22
24.35
12.12
3.13
-5.79
-19.24
-42.05
-77.80
-127.37
-187.68
-251.66
-309.64
-351.95
-372.07
-368.97
-347.65
-317.01
-286.00
-259.81
-237.93
-215.01
-184.20
-141.22
-87.09
-28.92
22.20
55.08
62.58
44.13
6.35
-39.13
-79.76
-106.40
-116.29
-112.91
-103.05
-92.73
-84.15
-75.25
-61.85
-40.66
-11.35
22.62
55.87
84.11
106.50
125.92
146.77
171.90
200.60
228.94
251.37
264.17
268.16
268.79
273.29
286.13
305.85
325.49
336.60
332.14
309.37
270.73
222.52
172.45
127.83
94.80
78.53
83.38
109.06
149.23
192.17
224.45
235.85
223.66
193.54
149.44
100.98
56.57
18.76
-15.66
-50.45
-85.27
-114.46
-133.84
-142.56
-143.04
-140.61
-140.17
-143.38
-146.77
-146.45
-140.48
-130.12
-118.32
-106.99
-97.30
-90.02
-86.00
-86.22
-91.32
-100.45
-111.02
-119.42
-122.43
-119.75
-113.94
-108.38
-104.88
-102.73
-99.61
-93.95
-86.70
-81.10
-81.31
-89.69
-104.89
-122.19
-135.56
-139.81
-132.00
-111.71
-80.59
-42.49
-3.37
29.29
48.23
48.97
32.17
4.23
-24.38
-42.92
-44.29
-27.51
2.54
37.51
69.27
92.49
105.24
107.85
101.56
87.99
69.39
49.02
30.72
17.92
11.95
10.98
10.86
7.15
-2.29
-16.08
-30.44
-41.65
-47.50
-47.51
-41.86
-30.47
-12.92
10.50
37.66
64.30
84.65
93.59
89.88
77.50
63.40
53.07
47.60
44.16
39.42
31.37
21.06
11.90
7.52
9.45
16.65
26.75
37.78
48.77
60.16
72.96
87.47
102.19
113.49
117.24
111.10
95.72
74.30
51.00
29.21
10.63
-4.61
-17.87
-30.06
-40.86
-48.63
-51.52
-48.61
-40.74
-30.77
-22.91
-22.45
-33.45
-56.98
-90.49
-128.89
-166.32
-198.00
-221.43
-230.36
-220.94
-192.60
-148.83
-95.68
-39.69
13.91
61.31
99.80
127.75
143.92
148.71
144.22
133.86
121.35
108.23
94.30
77.96
57.23
29.84
-5.71
-49.86
-99.04
-149.05
-194.43
-228.42
-244.58
-239.00
-213.08
-173.54
-130.40
-93.26
-68.29
-56.39
-54.19
-57.08
-61.57
-66.46
-71.92
-77.91
-83.14
-85.86
-84.79
-79.15
-69.97
-59.27
-49.30
-41.27
-35.05
-29.57
-23.82
-17.06
-9.61
-2.94
1.19
1.49
-2.25
-9.13
-17.62
-26.42
-34.38
-41.38
-48.09
-55.20
-62.75
-69.77
-74.22
-73.51
-68.73
-60.39
-49.67
-38.28
-27.55
-17.93
-8.70
1.65
14.70
31.22
51.25
73.78
97.19
120.32
143.00
166.21
191.83
222.28
260.15
307.87
366.00
431.93
499.24
558.46
599.51
615.00
602.95
567.47
517.43
462.81
411.56
367.77
331.83
301.90
275.60
250.98
226.46
200.66
171.95
138.87
100.86
58.76
14.87
-27.46
-64.99
-95.63
-118.92
-135.95
-148.68
-158.93
-167.75
-175.13
-180.35
-182.63
-181.72
-178.16
-173.19
-168.29
-164.68
-162.92
-162.76
-163.43
-163.98
-163.73
-162.52
-160.77
-159.30
-159.00
-160.52
-163.90
-168.34
-172.17
-173.10
-168.83
-157.84
-140.02
-116.91
-91.31
-66.44
-45.05
-28.71
-17.71
-11.40
-8.70
-8.54
-10.01
-12.31
-14.74
-16.71
-17.90
-18.28
-18.13
-17.83
-17.65
-17.67
-17.78
-17.81
-17.67
-17.38
-17.01
-16.69
-16.55
-16.80
-17.67
-19.38
-21.97
-25.18
-28.42
-30.95
-32.13
-31.66
-29.75
-26.95
-23.96
-21.32
-19.22
-17.53
-16.04
-14.66
-13.50
-12.95
-13.44
-15.28
-18.52
-22.79
-27.30
-30.89
-32.21
-30.09
-23.96
-14.09
-1.62
11.78
24.48
35.28
43.62
49.45
52.98
54.46
54.13
52.29
49.40
46.08
43.05
40.94
40.11
40.56
41.92
43.60
44.96
45.53
45.08
43.70
41.62
39.04
36.08
32.71
28.95
24.91
20.82
16.93
13.36
10.03
6.69
3.01
-1.25
-6.12
-11.47
-16.97
-22.25
-26.91
-30.62
-33.17
-34.47
-34.63
-33.89
-32.66
-31.48
-30.83
-31.00
-31.83
-32.52
-31.72
-27.74
-19.14
-5.21
13.68
36.03
59.67
82.28
101.98
117.63
128.88
135.90
139.13
139.10
136.29
131.14
124.20
116.03
107.19
98.07
88.83
79.47
70.01
60.74
52.25
45.35
40.58
37.86
36.38
34.86
32.08
27.35
20.82
13.19
5.41
-1.82
-8.21
-13.87
-19.16
-24.57
-30.61
-37.77
-46.29
-55.97
-66.14
-75.83
-84.25
-91.23
-97.39
-103.88
-111.90
-122.26
-135.07
-149.74
-165.04
-179.16
-189.86
-194.68
-191.53
-179.48
-159.21
-133.05
-104.44
-76.82
-52.72
-33.31
-18.44
-7.31
0.94
6.80
10.39
11.72
11.00
8.82
6.08
3.66
2.21
1.95
2.71
4.19
6.09
8.25
10.57
12.91
15.03
16.59
17.26
16.80
15.14
12.33
8.55
4.15
-0.50
-5.02
-9.23
-13.18
-17.15
-21.43
-26.09
-30.82
-35.09
-38.30
-40.27
-41.36
-42.54
-45.01
-49.83
-57.52
-67.78
-79.37
-90.24
-97.81
-99.43
-93.24
-78.71
-57.08
-31.16
-4.47
19.73
39.38
53.89
63.78
69.97
73.22
73.92
72.33
68.93
64.57
60.32
57.03
55.10
54.41
54.68
55.82
58.16
62.28
68.64
77.16
87.02
96.97
105.60
111.97
115.79
117.45
117.78
117.67
117.79
118.39
119.29
119.99
119.88
118.47
115.54
111.17
105.65
99.29
92.22
84.38
75.48
65.27
53.86
41.96
31.07
23.46
21.68
27.88
42.93
65.74
93.27
121.21
145.25
162.28
171.09
172.29
167.64
159.18
148.59
136.87
124.39
110.94
96.01
78.91
59.07
36.24
10.43
-18.29
-50.11
-85.40
-124.28
-165.71
-207.04
-244.38
-273.92
-293.72
-304.99
-311.94
-320.39
-335.69
-361.09
-397.14
-441.92
-491.63
-540.98
-583.60
-612.82
-623.36
-613.27
-585.26
-546.16
-504.56
-467.47
-437.80
-413.99
-391.68
-366.52
-336.39
-301.85
-265.00
-227.51
-189.47
-149.45
-106.12
-59.68
-12.98
28.94
60.70
78.72
82.85
76.56
65.51
55.11
48.53
45.90
45.03
43.03
38.20
31.05
24.09
20.85
24.11
35.98
57.48
87.92
124.27
160.51
187.95
197.14
180.79
136.08
67.85
-11.78
-86.91
-142.96
-171.41
-171.87
-150.91
-118.62
-86.27
-61.51
-47.08
-41.92
-43.03
-47.23
-51.98
-55.23
-54.89
-51.28
-45.01
-36.52
-26.55
-15.85
-5.52
3.25
9.30
25.27
57.43
105.21
161.71
216.66
261.77
293.50
313.00
324.49
333.32
341.38
345.79
343.78
331.66
306.72
269.25
223.43
176.49
136.61
111.18
102.98
110.07
126.96
147.88
168.90
188.22
205.11
218.85
227.24
228.00
220.69
206.82
189.53
172.27
158.21
147.56
139.14
130.52
119.62
106.14
91.48
78.47
69.92
67.85
73.30
85.65
102.08
119.44
135.42
149.16
161.03
171.48
181.16
189.72
196.33
198.54
194.68
184.72
170.53
155.24
141.35
130.32
122.04
115.18
105.23
88.18
61.59
24.97
-16.59
-59.37
-101.20
-141.93
-182.79
-228.78
-283.85
-349.31
-423.15
-501.09
-579.28
-655.41
-729.08
-779.74
-793.61
-766.12
-705.12
-626.57
-545.72
-471.21
-403.25
-336.66
-265.60
-191.08
-118.92
-57.35
-13.08
11.97
20.77
19.55
14.77
10.68
4.77
-5.40
-20.70
-39.28
-57.15
-70.27
-76.16
-74.68
-67.42
-58.34
-50.47
-44.32
-38.43
-30.19
-17.19
1.79
26.72
57.04
91.98
126.37
157.87
185.79
210.22
231.33
248.77
261.42
267.76
265.92
254.45
233.29
203.01
164.65
119.35
68.27
12.56
-46.51
-107.42
-168.36
-226.71
-279.94
-325.79
-362.53
-389.02
-404.83
-410.16
-405.75
-392.69
-371.90
-344.51
-311.64
-274.48
-234.18
-191.95
-149.02
-106.66
-66.28
-29.02
3.97
31.77
53.69
69.45
79.16
83.35
82.87
78.80
72.34
64.67
56.84
49.74
44.04
40.20
38.46
38.89
41.40
45.78
51.77
59.09
67.41
76.48
86.09
96.10
106.37
116.79
127.23
137.53
147.53
157.06
165.97
174.16
181.45
187.63
192.33
195.14
195.61
193.50
188.88
182.22
174.38
166.49
159.62
154.68
152.21
152.41
155.28
160.80
169.04
180.25
194.71
212.53
233.46
256.78
281.30
305.62
328.35
348.38
365.05
378.37
389.03
398.25
407.25
416.56
425.28
430.82
429.62
418.58
396.64
365.58
329.34
292.46
258.33
228.43
202.64
180.29
160.91
144.22
129.56
115.57
100.49
83.25
64.26
45.35
28.70
15.40
4.84
-4.77
-14.95
-25.84
-36.16
-44.30
-49.66
-53.25
-57.25
-63.61
-72.70
-82.83
-91.03
-94.45
-91.71
-83.49
-71.86
-59.16
-46.90
-35.26
-23.55
-11.16
1.81
14.23
24.35
30.54
31.82
28.17
20.44
10.15
-0.87
-10.74
-17.86
-21.32
-21.11
-18.16
-14.05
-10.49
-8.87
-9.84
-13.23
-18.34
-24.23
-30.07
-35.44
-40.32
-44.94
-49.45
-53.65
-56.92
-58.46
-57.66
-54.33
-48.92
-42.26
-35.29
-28.83
-23.38
-19.22
-16.44
-14.99
-14.66
-15.08
-15.64
-15.51
-13.80
-9.93
-4.12
2.37
7.28
8.19
3.53
-6.50
-19.87
-33.55
-44.72
-51.83
-54.92
-55.12
-53.78
-51.82
-49.62
-47.30
-45.17
-43.71
-43.32
-44.05
-45.51
-47.06
-48.16
-48.65
-48.73
-48.74
-48.95
-49.44
-50.05
-50.62
-51.01
-51.25
-51.59
-52.31
-53.42
-54.69
-55.48
-54.99
-52.55
-47.70
-40.38
-31.07
-20.98
-12.13
-6.90
-7.04
-12.59
-21.37
-29.48
-32.90
-29.26
-18.92
-4.59
10.28
23.38
34.47
44.91
56.16
68.42
80.17
88.90
92.42
89.94
82.41
72.03
61.38
52.72
47.32
45.41
46.31
48.77
51.40
53.11
53.40
52.36
50.52
48.50
46.78
45.61
45.06
45.15
46.17
48.79
54.14
63.40
77.19
95.12
115.47
135.81
153.64
167.15
175.65
179.11
177.68
171.41
160.91
148.20
137.08
131.97
135.78
147.80
163.29
175.17
177.19
166.82
146.14
120.44
95.48
74.97
59.63
48.05
38.36
29.56
21.77
15.54
10.96
7.24
3.01
-2.94
-11.18
-21.02
-30.96
-39.19
-44.41
-46.46
-46.39
-46.14
-47.75
-52.58
-60.81
-71.47
-82.91
-93.42
-101.89
-108.08
-112.53
-116.24
-120.10
-124.47
-129.02
-132.82
-134.91
-134.77
-132.67
-129.64
-127.21
-126.81
-129.40
-135.19
-143.58
-153.28
-162.49
-169.14
-171.34
-167.77
-158.05
-142.88
-123.79
-102.61
-80.94
-59.85
-39.97
-21.77
-5.89
6.91
15.97
21.08
22.68
21.72
19.34
16.45
13.44
10.10
5.60
-1.21
-11.54
-26.19
-45.19
-67.68
-92.01
-116.27
-138.94
-159.37
-178.01
-196.02
-214.62
-234.36
-254.81
-274.65
-292.31
-306.66
-317.66
-326.49
-335.26
-346.44
-362.20
-383.73
-410.56
-440.31
-468.73
-490.63
-501.17
-497.31
-478.75
-447.75
-408.21
-364.08
-318.38
-272.70
-227.66
-183.63
-141.24
-101.44
-65.16
-32.98
-4.98
19.04
39.31
55.74
67.90
75.19
77.33
75.02
70.32
66.57
67.64
76.66
94.82
120.80
151.11
181.27
207.25
226.60
238.86
245.06
246.89
245.82
242.59
237.31
229.75
219.86
208.00
194.90
181.46
168.32
155.73
143.58
131.77
120.44
110.21
101.91
96.20
93.14
92.08
91.75
90.78
88.09
83.20
76.29
67.95
58.90
49.77
40.96
32.66
25.00
18.05
11.96
6.85
2.81
-0.19
-2.35
-3.99
-5.59
-7.73
-10.98
-15.86
-22.59
-30.99
-40.26
-48.98
-55.38
-57.70
-54.62
-45.71
-31.52
-13.42
6.68
26.83
45.37
61.16
73.62
82.79
89.14
93.30
95.92
97.42
97.96
97.65
96.61
95.15
93.65
92.48
91.71
91.21
90.73
89.99
88.86
87.26
85.08
82.01
77.59
71.26
62.60
51.50
38.25
23.54
8.18
-7.12
-22.03
-36.61
-51.17
-65.88
-80.52
-94.34
-106.35
-115.66
-121.87
-125.20
-126.35
-126.26
-125.79
-125.57
-125.90
-126.60
-127.02
-126.06
-122.42
-114.98
-103.31
-87.87
-69.97
-51.23
-33.07
-16.25
-0.89
13.18
26.03
37.36
46.59
53.15
56.95
58.43
58.46
57.99
57.74
58.03
58.84
60.01
61.39
62.85
64.33
65.66
66.54
66.62
65.53
63.06
59.27
54.48
49.24
44.13
39.50
35.37
31.38
26.99
21.74
15.51
8.56
1.43
-5.30
-11.29
-16.55
-21.43
-26.44
-32.18
-39.10
-47.33
-56.56
-65.96
-74.23
-79.90
-81.82
-79.53
-73.49
-64.87
-55.24
-46.04
-38.33
-32.79
-29.77
-29.42
-31.49
-35.22
-39.16
-41.48
-40.38
-34.71
-24.38
-10.29
6.08
23.35
40.83
58.76
77.85
98.51
120.07
140.57
157.23
167.46
169.89
164.76
153.61
138.35
120.67
101.75
82.69
64.78
49.46
37.67
29.26
22.89
16.86
10.21
3.53
-1.40
-2.79
-0.15
5.06
10.07
12.11
9.82
3.70
-4.29
-11.82
-17.21
-19.78
-19.69
-17.41
-13.30
-7.51
-0.21
8.27
17.24
25.83
33.16
38.60
41.90
43.16
42.72
41.00
38.37
35.07
31.35
27.48
23.87
21.00
19.37
19.22
20.40
22.37
24.28
25.25
24.66
22.31
18.36
13.27
7.59
1.83
-3.60
-8.41
-12.41
-15.53
-17.87
-19.62
-20.98
-22.11
-23.07
-23.85
-24.49
-25.12
-26.02
-27.51
-29.83
-33.03
-36.80
-40.54
-43.35
-44.34
-42.76
-38.28
-31.10
-21.97
-12.00
-2.40
5.78
11.86
15.61
17.20
17.03
15.59
13.41
10.96
8.59
6.47
4.62
2.91
1.21
-0.45
-1.80
-2.37
-1.76
0.16
3.03
6.17
8.82
10.40
10.76
10.10
8.74
6.94
4.74
2.05
-1.13
-4.65
-8.18
-11.36
-13.98
-16.11
-18.04
-20.21
-23.01
-26.66
-31.18
-36.39
-41.82
-46.76
-50.28
-51.38
-49.30
-43.82
-35.38
-25.01
-14.01
-3.56
5.52
12.91
18.64
22.88
25.79
27.51
28.22
28.19
27.73
27.13
26.53
25.90
25.10
24.01
22.65
21.19
19.92
19.08
18.71
18.70
18.72
18.43
17.58
16.06
13.91
11.27
8.31
5.17
1.96
-1.22
-4.28
-7.12
-9.65
-11.86
-13.82
-15.68
-17.73
-20.26
-23.59
-27.82
-32.77
-37.84
-42.06
-44.28
-43.49
-39.24
-31.77
-22.03
-11.40
-1.22
7.50
14.33
19.34
22.85
25.18
26.53
26.98
26.56
25.46
23.98
22.49
21.32
20.63
20.37
20.38
20.47
20.57
20.68
20.89
21.19
21.47
21.50
21.01
19.85
18.01
15.64
12.93
10.10
7.24
4.41
1.61
-1.17
-3.92
-6.61
-9.21
-11.67
-13.98
-16.13
-18.18
-20.27
-22.62
-25.45
-28.94
-33.08
-37.57
-41.79
-44.87
-45.85
-43.98
-39.04
-31.34
-21.77
-11.45
-1.43
7.53
15.02
20.90
25.16
27.77
28.76
28.29
26.68
24.42
22.05
19.99
18.47
17.54
17.07
16.93
16.98
17.16
17.42
17.68
17.87
17.85
17.51
16.76
15.57
13.99
12.08
9.97
7.75
5.53
3.35
1.16
-1.14
-3.65
-6.40
-9.30
-12.12
-14.67
-16.80
-18.55
-20.05
-21.56
-23.33
-25.56
-28.36
-31.69
-35.29
-38.57
-40.67
-40.67
-37.86
-32.09
-23.83
-14.09
-4.13
4.99
12.56
18.35
22.40
24.86
25.85
25.49
24.00
21.74
19.18
16.84
15.01
13.76
12.98
12.51
12.24
12.26
12.65
13.43
14.38
15.10
15.15
14.31
12.65
10.52
8.31
6.32
4.57
2.87
0.97
-1.34
-4.12
-7.28
-10.70
-14.23
-17.75
-21.10
-24.13
-26.79
-29.14
-31.43
-33.99
-37.04
-40.46
-43.68
-45.77
-45.68
-42.67
-36.59
-27.96
-17.84
-7.45
2.13
10.23
16.57
21.17
24.18
25.76
26.11
25.50
24.22
22.63
21.02
19.57
18.35
17.34
16.47
15.74
15.20
14.92
14.94
15.16
15.40
15.40
14.93
13.93
12.49
10.80
9.04
7.29
5.47
3.41
0.91
-2.09
-5.55
-9.22
-12.81
-16.02
-18.70
-20.87
-22.77
-24.77
-27.20
-30.28
-34.00
-38.04
-41.77
-44.35
-44.88
-42.69
-37.53
-29.76
-20.24
-10.12
-0.50
7.85
14.54
19.56
23.03
25.13
26.02
25.83
24.80
23.16
21.22
19.24
17.38
15.75
14.36
13.24
12.45
12.11
12.33
13.12
14.33
15.60
16.48
16.57
15.67
13.87
11.49
8.89
6.38
4.04
1.74
-0.71
-3.45
-6.49
-9.62
-12.56
-15.07
-17.02
-18.56
-19.97
-21.63
-23.87
-26.87
-30.65
-34.91
-39.11
-42.47
-44.02
-42.93
-38.71
-31.51
-22.16
-11.90
-2.08
6.27
12.64
17.07
19.83
21.27
21.61
20.93
19.38
17.16
14.60
12.07
9.84
8.07
6.80
5.96
5.42
5.10
4.87
4.56
4.07
3.28
2.15
0.55
-1.69
-4.75
-8.66
-13.32
-18.48
-23.79
-28.92
-33.71
-38.14
-42.38
-46.57
-50.78
-54.96
-59.21
-63.52
-67.91
-72.54
-77.75
-84.05
-91.98
-101.62
-112.66
-124.50
-135.93
-145.43
-151.76
-154.13
-152.14
-145.65
-134.17
-117.44
-96.11
-70.88
-42.05
-9.65
26.58
66.86
110.56
156.22
200.72
239.27
268.23
286.41
294.51
294.51
288.74
279.16
268.06
256.98
245.57
233.45
220.41
205.79
188.99
169.97
144.62
112.34
81.90
56.69
34.74
14.31
-6.52
-29.35
-55.12
-83.97
-114.52
-145.13
-175.63
-205.58
-233.85
-258.97
-278.49
-288.91
-286.38
-267.69
-232.73
-186.18
-135.05
-86.26
-45.01
-13.20
10.40
28.69
45.03
61.82
80.10
100.99
125.91
155.21
186.94
216.50
237.74
245.74
239.06
220.56
196.76
175.23
161.64
158.36
164.79
178.77
197.89
219.69
241.07
258.04
266.18
262.04
244.65
216.28
181.73
146.39
114.04
85.63
59.26
31.67
-0.08
-37.28
-79.01
-122.17
-161.95
-192.86
-210.24
-212.35
-201.84
-185.70
-172.93
-170.89
-181.99
-202.75
-226.06
-245.19
-257.46
-265.41
-275.02
-292.17
-319.29
-354.08
-390.44
-421.04
-439.93
-444.27
-434.40
-413.02
-383.64
-349.17
-311.50
-271.69
-230.78
-190.30
-152.22
-117.89
-86.95
-56.70
-22.46
21.05
77.89
149.12
231.68
318.29
398.92
463.49
504.93
521.45
516.85
498.54
474.32
449.41
425.25
400.49
373.13
342.49
309.61
276.45
244.18
212.38
179.17
142.44
101.00
55.13
6.35
-43.12
-91.07
-135.49
-174.74
-207.66
-233.82
-253.68
-268.39
-278.97
-285.52
-286.67
-279.95
-262.97
-234.60
-195.64
-148.33
-95.32
-38.81
19.43
77.24
131.24
176.82
209.11
224.56
222.30
204.36
174.75
137.95
97.61
56.02
14.24
-27.20
-67.74
-106.54
-142.63
-175.29
-204.37
-230.43
-254.38
-276.75
-296.60
-311.11
-315.92
-306.69
-280.91
-239.43
-186.57
-128.72
-72.25
-21.59
21.70
58.50
91.07
122.11
154.40
190.75
233.55
283.61
338.77
393.20
438.62
466.92
473.39
458.62
428.24
390.47
352.86
319.99
292.71
269.37
247.42
224.84
200.54
174.15
145.62
115.14
83.21
50.66
18.34
-13.05
-43.35
-72.87
-102.09
-131.31
-160.56
-189.51
-217.82
-245.43
-272.67
-300.34
-329.85
-363.16
-402.31
-448.18
-499.01
-549.40
-591.01
-614.88
-614.71
-589.47
-543.87
-486.49
-426.38
-370.24
-321.23
-279.73
-245.10
-216.98
-195.35
-179.69
-168.13
-157.43
-143.98
-125.30
-100.89
-72.07
-41.31
-10.68
19.07
48.72
80.17
115.63
156.82
204.29
256.85
311.35
362.94
406.05
435.97
450.24
449.27
435.75
412.98
383.29
347.34
304.61
254.72
198.45
138.08
76.83
18.10
-35.02
-79.77
-113.62
-134.36
-140.63
-132.61
-112.17
-82.78
-48.72
-14.45
15.92
38.85
51.74
53.26
43.82
25.66
2.39
-22.07
-44.72
-64.51
-82.61
-101.86
-125.28
-154.41
-187.98
-221.71
-249.46
-265.34
-265.74
-250.55
-222.82
-187.13
-147.69
-107.14
-66.98
-28.56
5.93
34.07
54.66
69.21
81.57
95.73
112.79
129.41
139.03
135.45
116.90
87.93
58.07
38.00
35.43
52.92
88.39
137.12
193.75
253.17
310.74
362.68
406.62
442.23
470.79
493.78
511.04
520.07
516.87
498.23
463.82
416.91
363.20
308.43
256.35
208.03
162.65
118.97
76.35
34.91
-4.98
-43.13
-79.90
-115.82
-151.38
-186.74
-221.75
-256.34
-291.16
-327.99
-369.40
-417.40
-471.48
-527.34
-577.12
-611.74
-624.41
-613.50
-583.32
-542.27
-499.45
-461.46
-430.95
-407.17
-387.84
-370.84
-354.98
-339.60
-323.97
-307.02
-287.64
-265.21
-239.94
-212.57
-184.07
-154.96
-125.07
-93.69
-59.93
-23.20
16.45
58.32
101.32
144.34
186.77
228.80
271.40
315.80
362.58
410.75
457.28
497.51
526.35
539.97
537.21
520.11
493.24
462.07
431.20
403.17
378.42
356.31
336.32
318.71
304.25
293.30
284.88
276.70
266.05
251.19
232.40
211.99
193.14
178.34
168.25
161.54
155.69
148.17
137.33
122.56
103.86
81.27
54.66
24.10
-9.52
-43.78
-74.81
-98.20
-110.61
-111.21
-102.39
-89.06
-76.96
-70.63
-71.90
-79.65
-90.62
-100.82
-106.78
-106.32
-98.94
-85.76
-69.51
-54.19
-44.45
-44.55
-57.41
-83.83
-122.27
-169.15
-219.54
-268.38
-311.70
-347.75
-377.14
-402.07
-424.53
-444.56
-459.59
-465.16
-457.13
-433.80
-396.84
-350.53
-299.50
-246.62
-192.09
-134.34
-72.35
-7.77
54.30
106.56
142.07
157.19
153.22
135.96
113.48
93.06
78.98
72.09
71.03
74.24
81.23
92.23
106.81
122.47
134.25
135.96
122.34
91.04
43.57
-14.98
-77.52
-137.09
-188.63
-229.97
-261.46
-284.63
-300.42
-308.07
-304.99
-288.28
-256.49
-211.28
-157.57
-102.22
-51.82
-10.51
20.98
44.86
64.68
83.60
103.06
122.48
139.95
153.27
161.12
163.63
162.34
159.45
156.96
155.91
156.28
157.26
157.81
157.11
154.73
150.82
146.42
143.85
146.94
160.16
186.90
227.10
275.72
323.17
357.98
370.69
357.03
319.00
263.04
196.77
126.05
53.93
-18.32
-89.35
-156.65
-217.03
-268.25
-310.22
-344.81
-374.22
-398.79
-416.22
-422.26
-413.06
-387.43
-347.80
-299.30
-247.66
-197.05
-149.30
-104.43
-61.95
-22.01
14.31
45.51
70.49
89.10
102.02
110.32
114.93
116.45
115.26
111.92
107.24
102.21
97.63
93.74
90.16
86.07
80.67
73.54
64.69
54.54
43.37
31.08
16.95
0.08
-20.09
-43.04
-66.70
-87.62
-101.89
-106.37
-99.99
-84.47
-64.15
-44.98
-32.79
-31.54
-42.06
-61.79
-85.37
-106.12
-117.58
-115.01
-96.39
-62.86
-18.75
29.24
73.43
107.09
126.28
130.76
123.61
109.54
92.76
75.39
57.20
36.76
13.20
-12.39
-36.74
-55.42
-64.79
-63.75
-54.56
-42.05
-31.91
-28.57
-33.69
-45.99
-62.18
-78.53
-91.89
-100.10
-101.57
-94.95
-79.20
-54.24
-21.62
15.43
52.65
86.01
112.81
132.15
144.72
152.17
156.28
158.46
159.42
159.22
157.44
153.62
147.67
140.20
132.51
126.23
122.61
122.04
123.79
126.32
127.89
127.22
123.91
118.32
111.27
103.41
94.91
85.37
74.03
60.20
43.68
24.96
5.15
-14.36
-32.40
-48.29
-61.96
-73.75
-84.14
-93.52
-101.98
-109.41
-115.43
-119.39
-120.36
-117.28
-109.28
-96.05
-78.16
-57.09
-34.95
-13.88
4.32
18.60
28.61
34.62
37.31
37.66
36.78
35.68
35.08
35.15
35.48
35.21
33.48
29.74
24.06
17.13
10.14
4.66
2.42
4.81
12.17
23.22
34.96
43.46
45.42
39.57
27.29
11.97
-2.65
-14.15
-22.24
-28.29
-33.91
-39.56
-43.90
-44.28
-37.88
-22.89
0.89
32.02
67.83
105.14
140.85
172.44
198.26
217.66
230.78
238.26
240.94
239.52
234.63
226.72
216.26
203.71
189.48
173.83
156.81
138.33
118.32
96.99
74.97
53.27
33.18
15.85
2.02
-8.26
-15.62
-21.15
-25.88
-30.46
-34.89
-38.78
-41.76
-43.91
-45.83
-48.44
-52.40
-57.67
-63.32
-68.01
-70.62
-70.74
-68.88
-66.16
-63.77
-62.56
-62.78
-63.97
-65.36
-66.12
-65.62
-63.72
-60.95
-58.70
-58.78
-62.74
-70.53
-80.18
-88.02
-89.99
-83.37
-68.11
-47.06
-24.74
-5.51
8.73
18.46
25.86
33.55
43.43
56.25
71.60
88.13
103.85
117.71
128.65
136.07
140.27
142.36
143.81
145.56
147.35
147.77
146.67
143.69
138.83
132.68
126.73
123.54
126.41
138.44
161.04
194.92
236.07
276.26
305.60
316.35
306.07
278.50
241.82
190.14
123.77
46.63
-33.95
-109.27
-172.33
-219.45
-250.39
-267.71
-275.77
-276.61
-272.10
-263.61
-252.22
-238.60
-223.32
-206.99
-190.48
-175.11
-160.20
-145.42
-130.97
-117.41
-105.48
-95.67
-88.18
-82.84
-80.27
-79.79
-81.44
-85.90
-94.14
-106.87
-123.95
-144.16
-163.80
-181.15
-194.47
-203.45
-208.87
-212.09
-214.60
-217.76
-222.70
-229.95
-239.05
-246.77
-248.42
-239.03
-215.69
-179.62
-136.27
-93.33
-57.54
-32.69
-16.52
-4.84
6.65
20.49
36.93
54.73
72.70
90.45
106.84
122.20
136.02
146.99
153.63
154.87
150.87
143.01
133.33
123.72
115.63
109.13
103.54
97.90
91.50
84.30
76.81
69.76
63.69
58.91
55.00
51.42
47.80
44.12
40.71
37.99
36.16
35.01
34.15
32.92
31.12
29.05
27.45
27.10
28.37
30.99
33.99
36.71
38.18
38.37
38.07
38.29
39.86
43.10
48.06
54.60
62.24
69.59
74.17
72.63
62.05
41.57
13.41
-17.47
-45.22
-65.31
-76.19
-79.17
-77.19
-73.07
-68.67
-64.75
-61.61
-59.69
-59.78
-62.52
-67.57
-73.07
-75.77
-71.95
-59.02
-37.21
-10.25
15.56
33.59
39.68
33.86
20.18
4.60
-7.81
-14.77
-17.12
-17.36
-17.77
-19.24
-21.20
-22.49
-22.40
-21.16
-19.65
-18.86
-19.20
-20.38
-21.65
-22.31
-21.97
-20.83
-19.62
-19.20
-20.24
-22.96
-27.13
-32.31
-38.15
-44.57
-52.03
-61.46
-73.35
-86.78
-99.09
-106.43
-105.46
-94.95
-76.22
-52.92
-29.35
-8.59
8.44
22.57
35.06
46.31
55.14
59.74
58.27
49.96
35.74
18.03
-0.37
-17.36
-32.22
-45.36
-56.75
-67.62
-79.82
-94.64
-111.88
-130.04
-147.03
-160.85
-169.12
-167.15
-151.84
-122.62
-81.37
-31.87
21.09
72.80
120.06
162.90
205.88
251.10
295.46
331.56
351.18
349.24
325.92
287.10
226.94
154.92
88.10
38.54
6.09
-16.09
-33.20
-43.87
-48.07
-46.37
-39.12
-30.50
-26.17
-29.09
-38.90
-49.59
-54.13
-48.65
-33.33
-10.57
13.81
33.13
43.05
42.98
35.40
23.08
7.44
-10.76
-29.66
-47.71
-63.62
-76.08
-84.21
-87.86
-88.80
-90.24
-94.73
-102.23
-110.56
-116.42
-116.78
-110.45
-98.13
-82.43
-66.58
-52.54
-40.25
-28.46
-15.54
-0.15
18.54
42.19
72.04
107.88
147.07
184.38
213.13
227.73
226.02
209.95
186.01
161.55
141.95
129.36
123.31
122.10
124.22
129.24
129.92
121.23
102.23
76.42
49.13
26.75
8.66
-7.14
-21.36
-36.02
-50.90
-64.99
-77.22
-87.04
-94.69
-95.40
-86.03
-65.11
-37.62
-9.33
16.88
40.77
62.76
80.93
94.37
100.94
101.33
92.94
73.93
45.05
7.82
-33.51
-70.15
-94.95
-120.93
-155.22
-196.80
-244.90
-295.33
-341.72
-378.53
-403.19
-416.29
-420.33
-389.29
-315.70
-212.93
-104.69
-9.13
67.16
125.01
167.35
196.70
216.95
225.33
220.39
204.11
181.22
156.43
132.07
107.78
80.98
56.48
32.95
8.62
-15.88
-37.33
-52.07
-58.00
-55.43
-46.87
-35.39
-27.23
-26.48
-32.96
-42.68
-50.45
-52.57
-48.03
-38.74
-28.17
-21.53
-22.22
-30.42
-43.70
-58.50
-71.05
-77.12
-72.34
-53.50
-21.69
16.93
51.53
70.11
64.60
35.65
-6.39
-45.58
-67.54
-66.39
-46.55
-19.30
3.78
16.65
20.47
21.09
23.94
30.64
38.65
43.44
42.02
34.44
23.21
11.42
0.54
-10.24
-22.74
-38.04
-55.18
-70.83
-80.47
-80.57
-70.86
-53.25
-32.26
-12.47
3.69
16.91
30.18
46.71
67.74
91.55
114.25
131.33
139.65
138.38
128.85
113.75
96.24
79.15
64.51
53.41
45.61
39.88
34.55
28.27
20.65
12.48
5.38
1.09
0.83
4.61
11.37
19.48
27.40
33.64
37.90
40.21
40.50
38.79
35.24
30.47
25.53
21.54
19.06
17.96
17.42
16.09
13.03
7.84
0.67
-7.96
-17.39
-26.92
-35.73
-43.22
-49.02
-53.06
-55.61
-57.16
-58.31
-59.59
-61.48
-64.20
-67.58
-70.71
-71.83
-68.88
-60.19
-45.43
-26.06
-4.94
14.68
30.31
40.92
47.06
50.11
51.49
52.04
52.01
51.42
50.38
49.16
48.06
47.06
45.64
43.46
40.02
35.20
29.23
22.70
16.25
10.29
4.83
-0.43
-5.96
-12.12
-18.95
-26.06
-32.79
-38.45
-42.60
-45.26
-47.04
-48.97
-52.31
-57.85
-65.35
-73.23
-78.68
-78.60
-70.69
-54.48
-31.55
-5.12
21.04
43.81
61.38
73.28
79.97
82.21
80.79
76.43
69.85
61.89
53.52
45.66
39.05
34.18
31.20
29.95
30.04
31.02
32.42
33.92
35.31
36.41
36.94
36.54
34.86
31.63
26.88
20.97
14.44
7.92
1.91
-3.36
-7.91
-11.97
-15.91
-20.05
-24.65
-29.75
-35.14
-40.41
-45.11
-48.87
-51.63
-53.59
-55.30
-57.49
-60.93
-66.38
-74.14
-83.69
-93.30
-100.13
-100.90
-93.04
-75.86
-51.02
-22.19
6.27
30.65
48.91
60.78
67.16
69.30
68.14
64.21
57.97
50.06
41.56
33.66
27.39
23.29
21.33
20.99
21.60
22.58
23.62
24.67
25.77
26.89
27.73
27.78
26.44
23.31
18.33
12.03
5.27
-0.91
-5.76
-9.17
-11.62
-14.10
-17.56
-22.49
-28.69
-35.35
-41.44
-46.16
-49.35
-51.50
-53.62
-56.81
-61.97
-69.45
-78.78
-88.52
-96.34
-99.44
-95.38
-82.92
-62.62
-36.89
-9.26
16.62
38.00
53.50
63.06
67.44
67.64
64.70
59.45
52.73
45.45
38.50
32.67
28.50
26.20
25.53
26.01
27.03
28.10
29.03
29.87
30.81
31.78
32.42
32.00
29.82
25.54
19.41
12.32
5.37
-0.53
-5.06
-8.56
-11.87
-15.84
-20.95
-27.08
-33.56
-39.50
-44.19
-47.41
-49.55
-51.42
-54.06
-58.36
-64.97
-73.98
-84.76
-95.67
-104.20
-107.33
-102.49
-88.48
-66.09
-38.08
-8.35
19.15
41.59
57.63
67.41
71.89
72.39
70.05
65.75
60.21
54.05
47.89
42.35
37.96
35.06
33.72
33.73
34.60
35.78
36.76
37.24
37.12
36.48
35.30
33.41
30.50
26.28
20.75
14.24
7.42
1.02
-4.54
-9.27
-13.66
-18.34
-23.81
-30.15
-36.97
-43.57
-49.22
-53.41
-56.09
-57.75
-59.33
-62.07
-67.09
-74.95
-85.11
-95.72
-103.85
-106.25
-100.46
-85.67
-63.14
-35.86
-7.63
18.05
38.78
53.52
62.36
66.01
65.44
61.62
55.50
48.05
40.27
33.09
27.21
23.05
20.62
19.63
19.55
19.89
20.29
20.67
21.17
21.94
22.99
23.96
24.28
23.33
20.69
16.48
11.27
5.93
1.31
-2.07
-4.27
-5.77
-7.25
-9.29
-12.06
-15.35
-18.61
-21.30
-23.10
-24.18
-25.12
-26.86
-30.37
-36.38
-45.00
-55.44
-65.93
-73.97
-77.02
-73.28
-62.46
-45.82
-25.88
-5.58
12.44
26.59
36.30
41.69
43.10
40.84
35.26
26.95
16.77
5.49
-5.98
-16.81
-26.53
-35.09
-42.60
-49.02
-54.07
-57.22
-58.51
-58.06
-56.38
-54.35
-53.03
-53.05
-54.32
-56.11
-57.26
-57.12
-54.64
-48.76
-38.82
-25.05
-8.84
7.66
21.64
34.36
44.64
50.86
51.92
48.04
40.14
29.07
15.86
1.50
-12.77
-26.04
-36.98
-44.76
-49.28
-51.43
-52.55
-53.09
-53.05
-51.60
-48.71
-42.26
-30.84
-14.45
5.45
26.62
47.92
68.73
89.53
111.35
135.73
163.75
196.07
232.92
267.66
296.58
315.87
321.18
308.60
277.07
229.76
174.11
119.44
73.70
40.97
20.81
9.95
4.66
2.47
2.14
3.23
4.05
2.38
-3.99
-15.38
-30.04
-44.87
-56.99
-64.91
-69.12
-71.99
-77.04
-88.82
-109.50
-137.53
-167.46
-191.45
-201.93
-194.56
-170.46
-127.54
-76.12
-30.55
-1.80
7.58
2.99
-6.58
-13.61
-14.87
-11.73
-9.46
-11.81
-19.67
-30.96
-42.07
-49.46
-50.99
-45.93
-35.43
-23.08
-12.37
-7.08
-11.25
-28.34
-59.28
-100.59
-142.14
-170.36
-173.43
-145.41
-90.13
-20.73
45.19
92.17
111.96
108.57
93.39
77.68
67.46
62.35
58.53
53.04
46.26
41.55
42.39
49.02
57.91
63.80
62.29
52.04
35.17
16.14
0.57
-6.39
-1.83
14.09
38.06
64.98
88.88
105.43
113.20
113.50
108.98
101.54
91.32
77.08
57.78
34.10
8.98
-13.50
-29.91
-38.98
-42.06
-42.06
-41.95
-43.48
-46.75
-50.71
-54.09
-56.14
-56.83
-56.50
-55.18
-52.43
-47.35
-39.04
-27.34
-13.11
1.83
15.27
25.36
31.31
33.29
32.16
29.06
25.04
20.93
17.38
14.96
13.28
12.48
12.54
13.29
14.49
15.89
17.27
18.59
19.95
21.51
23.57
26.24
29.37
32.59
35.46
37.57
38.71
38.93
38.44
37.67
37.00
36.71
36.99
37.86
39.19
40.67
41.96
42.82
43.34
43.86
44.88
46.78
49.70
53.33
57.07
60.31
62.66
64.21
65.41
66.87
69.10
72.28
76.15
80.07
83.12
84.21
82.33
76.93
68.36
58.17
48.97
43.73
44.69
52.40
65.28
80.09
93.09
101.21
102.98
98.57
89.28
76.80
62.56
47.60
32.62
18.15
4.74
-7.14
-17.13
-25.01
-30.69
-34.09
-35.22
-34.08
-30.87
-25.97
-20.29
-14.83
-10.56
-8.20
-8.11
-10.34
-14.52
-20.00
-25.95
-31.80
-37.13
-41.77
-45.70
-49.04
-51.95
-54.52
-56.85
-59.11
-61.97
-66.00
-71.30
-77.40
-83.50
-88.94
-93.39
-96.96
-99.96
-103.98
-110.25
-119.47
-131.93
-148.07
-168.46
-193.25
-221.66
-251.86
-283.97
-317.33
-349.86
-378.02
-397.75
-405.36
-398.32
-375.74
-338.88
-295.18
-252.31
-215.84
-188.27
-170.23
-161.62
-161.87
-169.53
-182.27
-202.28
-229.92
-262.28
-293.67
-318.44
-333.23
-337.68
-333.77
-293.43
-206.73
-84.44
46.85
161.88
248.57
306.98
342.93
363.19
373.43
372.70
360.56
339.17
313.27
287.77
265.73
248.12
234.78
225.21
214.98
200.98
182.69
162.11
141.84
123.71
108.47
96.49
88.21
81.84
76.35
72.07
69.99
69.67
70.28
69.69
66.00
58.79
48.38
37.10
28.36
25.25
28.93
38.00
48.90
57.70
61.48
58.87
50.70
39.29
27.46
17.31
9.72
4.36
0.37
-2.77
-5.11
-6.38
-6.46
-5.74
-5.08
-5.33
-6.96
-9.57
-12.02
-13.35
-12.78
-10.24
-6.39
-2.25
1.25
3.58
4.69
4.85
4.31
3.26
1.68
-0.52
-3.43
-7.08
-11.39
-16.23
-21.39
-26.64
-31.75
-36.54
-40.94
-44.96
-48.63
-51.92
-54.73
-56.93
-58.45
-59.23
-59.15
-57.99
-55.31
-50.62
-43.55
-34.20
-23.14
-11.42
-0.20
9.63
17.63
23.87
28.76
32.72
36.09
38.97
41.43
43.48
45.29
47.11
49.27
52.16
56.08
61.16
67.22
73.74
79.90
84.81
87.68
88.14
86.41
83.32
80.13
78.03
77.68
78.77
80.08
79.92
76.91
70.71
62.18
53.02
44.87
38.59
33.97
30.16
26.27
21.93
17.39
13.12
9.47
6.36
3.36
-0.04
-4.23
-9.32
-15.15
-21.37
-27.42
-32.48
-35.57
-35.72
-32.24
-25.09
-15.14
-4.25
5.03
10.10
9.26
2.41
-8.85
-22.12
-35.47
-48.46
-62.06
-77.63
-95.53
-114.46
-132.02
-146.14
-156.39
-164.28
-172.25
-182.20
-194.43
-207.77
-220.65
-232.24
-243.02
-254.14
-266.49
-279.85
-292.79
-303.33
-309.58
-310.28
-304.87
-293.18
-275.12
-250.62
-219.78
-183.04
-141.41
-96.37
-49.56
-2.51
43.57
87.85
129.76
168.83
204.52
236.28
263.58
286.07
303.59
316.22
324.19
327.90
327.95
325.07
320.11
313.77
306.49
298.33
289.14
278.65
266.70
253.27
238.46
222.40
205.32
187.51
169.40
151.54
134.45
118.46
103.70
90.03
77.32
65.50
54.63
44.86
36.32
29.03
22.93
17.93
13.91
10.75
8.23
6.02
3.76
1.08
-2.16
-5.90
-9.89
-13.83
-17.51
-20.87
-23.99
-26.97
-29.85
-32.64
-35.26
-37.63
-39.75
-41.63
-43.33
-44.98
-46.80
-49.08
-52.10
-56.04
-60.77
-65.70
-69.76
-71.70
-70.54
-65.89
-58.09
-48.10
-37.18
-26.49
-16.93
-8.89
-2.47
2.42
5.87
7.99
8.92
8.84
7.93
6.38
4.61
3.04
2.00
1.60
1.81
2.46
3.28
4.00
4.32
4.77
5.96
8.25
11.43
14.85
17.70
19.33
19.36
17.61
15.57
14.77
16.18
19.70
24.43
29.22
33.09
35.22
34.94
34.31
35.74
41.16
50.90
63.95
78.49
92.80
105.63
116.38
128.49
146.01
172.05
207.17
249.96
298.13
349.99
404.80
442.03
445.46
407.05
331.80
234.18
130.02
30.84
-56.47
-128.05
-182.24
-216.43
-230.56
-226.19
-210.13
-189.39
-169.46
-153.30
-141.91
-135.31
-130.74
-125.30
-116.67
-104.03
-87.65
-69.35
-51.20
-35.81
-25.92
-22.04
-23.32
-27.93
-34.23
-41.15
-48.46
-56.53
-66.07
-77.72
-91.03
-104.85
-117.51
-127.14
-131.77
-129.80
-120.59
-105.06
-85.48
-64.41
-43.84
-24.73
-7.39
7.87
20.10
27.86
29.94
26.21
17.93
7.13
-4.37
-15.72
-26.95
-38.34
-49.59
-59.69
-67.35
-71.77
-73.08
-72.26
-70.56
-68.97
-67.91
-67.44
-67.48
-68.01
-69.03
-70.54
-72.56
-75.14
-78.45
-82.68
-87.72
-93.04
-97.60
-100.06
-99.17
-94.25
-85.51
-74.20
-62.40
-52.51
-46.69
-46.20
-50.94
-59.39
-68.77
-75.84
-77.70
-72.67
-60.82
-43.82
-24.23
-4.59
13.44
29.28
43.06
54.93
64.59
71.29
74.39
74.04
71.42
68.33
66.35
65.92
66.11
65.05
60.91
52.86
41.55
28.86
17.09
8.00
2.19
-0.72
-1.32
0.40
5.30
14.58
28.75
46.82
66.54
85.38
101.72
115.25
126.01
132.84
132.24
118.89
87.92
37.75
-28.07
-101.04
-170.28
-225.82
-261.35
-275.18
-269.49
-248.44
-216.40
-176.64
-130.99
-80.20
-25.10
32.08
86.91
133.17
164.57
177.13
170.90
150.11
121.59
92.26
66.84
47.13
32.79
22.86
17.08
16.10
20.60
30.13
42.45
53.84
60.26
58.83
48.86
32.13
12.12
-7.49
-24.34
-38.19
-50.83
-65.10
-83.79
-108.75
-140.51
-178.28
-220.07
-262.64
-301.68
-332.31
-350.10
-352.27
-338.62
-311.62
-275.77
-236.29
-197.78
-163.33
-134.19
-110.03
-89.49
-70.95
-52.99
-34.71
-15.96
2.95
21.52
39.55
57.50
76.83
99.69
128.26
163.57
204.33
246.51
284.03
310.65
322.35
319.14
305.07
286.49
269.33
256.59
247.44
238.26
224.67
203.48
173.60
135.88
92.55
46.90
3.13
-33.99
-60.28
-73.61
-74.90
-67.57
-55.75
-41.72
-24.62
-1.35
30.52
69.57
109.37
140.35
154.10
147.63
124.97
95.19
67.89
48.99
39.00
34.37
30.90
26.49
21.81
18.65
17.44
16.11
10.98
-0.94
-19.81
-42.49
-64.01
-79.87
-88.04
-89.38
-86.92
-84.07
-83.35
-85.64
-90.34
-96.04
-101.27
-105.03
-107.13
-108.18
-109.42
-112.29
-117.82
-126.00
-135.49
-143.86
-148.18
-146.08
-136.61
-120.48
-99.77
-77.07
-54.75
-34.41
-16.87
-2.27
9.62
19.29
27.34
34.39
40.95
47.28
53.44
59.31
64.63
69.13
72.50
74.48
74.87
73.70
71.20
67.73
63.73
59.50
55.07
50.31
44.94
38.69
31.39
23.05
13.89
4.36
-5.02
-13.73
-21.49
-28.27
-34.36
-40.12
-45.75
-51.06
-55.39
-57.70
-56.83
-51.96
-42.81
-29.77
-13.78
3.84
21.71
38.55
53.29
65.16
73.72
78.93
81.05
80.57
78.11
74.25
69.57
64.52
59.54
54.88
50.65
46.78
43.17
39.75
36.60
33.95
31.90
30.41
29.11
27.47
24.95
21.31
16.70
11.52
6.19
0.96
-4.16
-9.35
-14.85
-20.91
-27.69
-35.21
-43.14
-50.64
-56.36
-58.68
-56.27
-48.61
-36.35
-21.09
-4.88
10.52
24.09
35.51
44.89
52.33
57.70
60.71
61.21
59.38
55.83
51.46
47.06
43.11
39.67
36.54
33.47
30.43
27.65
25.50
24.27
23.91
24.08
24.17
23.60
22.00
19.31
15.65
11.20
6.08
0.37
-5.80
-12.19
-18.43
-24.16
-29.26
-34.00
-38.92
-44.50
-50.78
-57.01
-61.81
-63.54
-60.98
-53.84
-42.80
-29.31
-14.92
-0.91
11.92
23.15
32.44
39.43
43.79
45.44
44.67
42.16
38.74
35.13
31.69
28.48
25.42
22.42
19.54
16.91
14.68
12.90
11.58
10.64
10.01
9.60
9.24
8.72
7.71
5.88
2.97
-1.10
-6.10
-11.49
-16.59
-20.78
-23.77
-25.74
-27.20
-28.79
-30.90
-33.59
-36.54
-39.34
-41.66
-43.27
-44.04
-43.67
-41.68
-37.51
-30.78
-21.57
-10.50
1.37
12.79
22.75
30.72
36.79
41.39
44.97
47.61
49.01
48.70
46.55
42.95
38.86
35.25
32.70
31.05
29.64
27.76
25.11
21.98
18.92
16.38
14.34
12.41
10.08
7.08
3.60
0.06
-3.13
-5.84
-8.24
-10.68
-13.36
-16.16
-18.82
-21.06
-22.95
-24.80
-27.02
-29.66
-32.14
-33.32
-31.90
-27.02
-18.59
-7.42
5.26
18.25
30.80
42.71
54.16
65.34
76.15
86.16
94.72
101.29
105.79
108.70
111.03
113.97
118.54
125.19
133.66
142.96
151.61
157.99
160.57
158.24
150.46
137.34
119.62
98.61
75.95
53.27
32.03
13.22
-2.61
-15.44
-25.66
-34.02
-41.50
-49.13
-57.80
-68.10
-80.30
-94.27
-109.54
-125.22
-140.01
-152.31
-160.55
-163.53
-160.77
-152.62
-140.11
-124.73
-108.12
-91.95
-77.74
-66.76
-59.74
-56.73
-57.12
-59.84
-63.78
-68.12
-72.24
-75.61
-77.56
-77.32
-74.31
-68.44
-60.11
-49.98
-38.53
-25.92
-12.15
2.50
16.81
28.59
35.05
33.66
23.14
4.01
-21.31
-49.08
-75.15
-95.80
-108.53
-112.36
-107.92
-97.09
-82.61
-67.40
-53.96
-43.76
-36.94
-32.33
-27.94
-21.65
-12.07
1.13
17.07
34.12
50.44
64.45
75.11
82.01
85.23
85.29
83.05
79.55
75.89
72.90
71.04
70.36
70.55
71.21
72.00
72.70
73.15
73.28
73.07
72.51
71.61
70.33
68.54
65.97
62.33
57.42
51.21
43.80
35.35
26.07
16.11
5.65
-5.10
-15.89
-26.51
-36.87
-47.08
-57.39
-67.95
-78.52
-88.29
-95.92
-99.96
-99.35
-93.96
-84.75
-73.60
-62.65
-53.77
-48.05
-45.73
-46.39
-49.25
-53.46
-58.23
-62.85
-66.72
-69.28
-70.05
-68.67
-64.95
-58.95
-50.93
-41.36
-30.68
-19.22
-7.16
5.36
18.08
30.47
41.78
51.22
58.30
62.98
65.70
67.09
67.72
67.85
67.36
65.84
62.72
57.44
49.58
39.09
26.49
13.01
0.56
-8.73
-13.12
-11.89
-5.67
3.66
13.68
22.10
27.42
29.07
27.29
22.73
16.08
7.97
-1.05
-10.42
-19.49
-27.59
-34.22
-39.21
-42.71
-45.06
-46.55
-47.28
-46.99
-45.33
-42.04
-37.27
-31.59
-25.90
-21.16
-18.06
-16.91
-17.54
-19.50
-22.16
-24.99
-27.75
-30.55
-33.86
-38.36
-44.69
-53.04
-63.01
-73.32
-82.05
-86.97
-86.27
-79.07
-65.83
-48.22
-28.60
-9.36
7.69
21.54
31.91
38.95
42.99
44.39
43.59
41.13
37.65
33.79
30.11
27.00
24.62
22.97
21.90
21.24
20.84
20.63
20.59
20.70
20.82
20.59
19.49
17.04
12.99
7.53
1.19
-5.28
-11.21
-16.34
-20.84
-25.19
-30.05
-35.99
-43.40
-52.27
-62.14
-71.81
-79.45
-82.92
-80.39
-71.03
-55.50
-35.83
-14.89
4.55
20.52
32.21
39.76
43.81
45.07
44.09
41.26
36.96
31.68
26.05
20.76
16.47
13.66
12.51
12.92
14.47
16.59
18.71
20.43
21.61
22.25
22.38
21.87
20.48
17.88
13.93
8.77
2.81
-3.36
-9.16
-14.20
-18.42
-22.04
-25.45
-29.18
-33.75
-39.56
-46.84
-55.44
-64.60
-72.86
-78.22
-78.64
-72.69
-60.16
-42.23
-21.23
0.11
19.39
35.08
46.60
54.07
57.98
58.83
57.14
53.45
48.41
42.79
37.33
32.66
29.20
27.19
26.67
27.50
29.30
31.53
33.57
34.83
34.94
33.78
31.48
28.26
24.33
19.82
14.79
9.33
3.50
-2.52
-8.50
-14.17
-19.28
-23.70
-27.41
-30.72
-34.12
-38.28
-43.76
-50.73
-58.70
-66.34
-71.70
-72.60
-67.38
-55.46
-37.67
-16.14
6.35
27.11
44.19
56.65
64.43
68.01
68.11
65.44
60.76
54.85
48.51
42.42
37.12
32.88
29.69
27.51
26.26
25.91
26.46
27.79
29.55
31.18
32.02
31.47
29.29
25.56
20.72
15.31
9.83
4.47
-0.78
-6.12
-11.73
-17.55
-23.35
-28.72
-33.35
-37.15
-40.30
-43.26
-46.65
-51.10
-57.02
-64.35
-72.31
-79.28
-83.03
-81.37
-72.93
-57.80
-37.66
-15.31
6.28
24.87
39.33
49.64
56.32
59.98
61.04
59.80
56.68
52.30
47.51
43.09
39.53
36.96
35.22
33.99
33.09
32.48
32.30
32.63
33.40
34.28
34.68
34.00
31.82
28.11
23.30
18.09
13.22
9.14
5.90
3.11
0.20
-3.35
-7.73
-12.77
-18.01
-22.94
-27.19
-30.62
-33.39
-35.88
-38.65
-42.38
-47.67
-54.68
-62.83
-70.60
-75.77
-76.06
-69.88
-57.04
-38.95
-18.10
2.69
21.06
35.62
45.96
52.31
55.23
55.29
53.07
49.20
44.41
39.49
35.11
31.69
29.37
28.01
27.37
27.26
27.56
28.27
29.39
30.88
32.52
33.92
34.60
34.11
32.20
28.92
24.60
19.83
15.21
11.21
7.93
5.10
2.18
-1.38
-5.89
-11.22
-16.89
-22.19
-26.53
-29.70
-31.92
-33.83
-36.27
-40.09
-45.75
-53.19
-61.52
-69.03
-73.50
-72.78
-65.52
-51.77
-33.07
-12.02
8.47
26.09
39.58
48.72
53.96
55.95
55.25
52.29
47.57
41.76
35.70
30.20
25.82
22.81
21.06
20.32
20.40
21.10
22.36
23.97
25.55
26.57
26.52
25.09
22.27
18.44
14.07
9.63
5.34
1.13
-3.26
-8.03
-13.24
-18.69
-23.98
-28.70
-32.54
-35.49
-37.83
-40.12
-43.07
-47.30
-52.97
-59.45
-65.29
-68.42
-66.80
-59.17
-45.56
-27.44
-7.29
12.15
28.67
41.00
48.88
52.74
53.30
51.28
47.32
42.03
36.05
30.05
24.62
20.18
16.99
15.02
14.14
14.16
14.90
16.16
17.74
19.34
20.59
21.07
20.41
18.46
15.34
11.41
7.10
2.80
-1.37
-5.52
-9.89
-14.67
-19.90
-25.36
-30.63
-35.22
-38.74
-41.21
-42.99
-44.93
-48.01
-52.92
-59.53
-66.61
-71.98
-73.22
-68.54
-57.53
-41.34
-22.26
-2.94
14.46
28.63
39.15
46.15
49.91
50.75
48.95
45.01
39.65
33.76
28.21
23.65
20.41
18.40
17.37
16.98
17.09
17.70
18.89
20.64
22.69
24.47
25.33
24.74
22.53
18.93
14.48
9.75
5.15
0.79
-3.43
-7.74
-12.28
-16.95
-21.50
-25.54
-28.83
-31.34
-33.30
-35.23
-37.72
-41.41
-46.69
-53.55
-61.32
-68.65
-73.61
-74.20
-69.05
-57.88
-41.77
-22.81
-3.47
14.13
28.65
39.55
46.87
50.92
52.03
50.55
46.99
42.04
36.53
31.29
26.96
23.87
22.05
21.31
21.35
21.96
23.02
24.42
26.04
27.59
28.60
28.66
27.49
25.11
21.81
18.04
14.16
10.33
6.41
2.26
-2.07
-6.32
-9.99
-12.71
-14.44
-15.52
-16.52
-18.06
-20.51
-23.95
-28.33
-33.56
-39.41
-45.42
-50.67
-53.71
-53.24
-48.23
-38.56
-25.10
-9.70
5.27
17.47
24.89
26.59
21.89
11.39
-3.18
-18.94
-32.39
-40.23
-41.26
-37.24
-32.40
-33.59
-46.26
-72.91
-112.38
-160.96
-213.97
-267.07
-316.29
-356.45
-384.14
-395.66
-389.29
-366.12
-329.76
-284.78
-235.19
-183.69
-130.74
-79.27
-31.23
12.06
51.11
88.81
129.39
175.81
218.45
260.07
288.63
293.13
266.65
210.22
133.44
51.90
-18.22
-65.57
-85.54
-83.86
-69.38
-50.93
-34.30
-21.54
-12.49
-6.84
-5.29
-8.14
-16.98
-30.62
-45.88
-58.88
-66.86
-69.41
-68.61
-67.97
-70.08
-77.08
-88.23
-101.05
-112.60
-120.73
-124.95
-126.29
-126.60
-127.09
-128.47
-129.83
-129.42
-125.50
-117.25
-105.02
-90.21
-74.58
-59.44
-45.51
-32.53
-19.71
-6.05
9.34
27.03
47.04
68.59
89.95
108.66
122.15
128.66
127.87
121.03
110.30
98.04
86.08
75.50
66.71
59.70
54.15
49.41
44.77
39.61
33.86
28.17
23.77
21.88
23.19
27.57
34.38
42.82
52.54
63.87
77.88
96.18
120.93
154.57
198.91
253.78
315.84
378.23
431.77
467.72
480.73
470.74
442.76
404.62
363.92
325.83
292.44
263.81
239.55
219.83
205.44
197.13
195.10
198.99
208.12
221.69
238.44
256.42
273.08
285.83
293.05
294.76
292.62
289.08
286.25
285.18
285.74
287.17
288.72
289.93
290.48
289.79
286.86
280.37
269.25
253.18
232.70
209.18
184.28
159.44
135.41
112.13
88.84
64.50
38.23
9.75
-20.55
-51.75
-82.76
-112.72
-141.32
-168.84
-195.98
-223.64
-252.82
-284.36
-318.77
-355.70
-393.43
-428.62
-456.76
-473.21
-474.69
-460.44
-432.46
-394.88
-352.56
-309.75
-269.30
-232.74
-200.74
-173.65
-151.83
-135.36
-123.88
-116.34
-111.22
-106.95
-102.27
-96.55
-89.81
-82.40
-74.74
-67.10
-59.53
-52.06
-44.76
-37.90
-31.94
-27.47
-25.07
-25.17
-27.92
-33.09
-40.06
-47.97
-55.86
-62.99
-68.99
-73.98
-78.43
-83.20
-89.20
-97.22
-107.62
-119.97
-132.86
-144.07
-151.12
-152.11
-146.49
-135.35
-121.09
-106.41
-93.32
-82.31
-72.42
-61.66
-48.14
-31.00
-11.04
9.33
26.80
38.39
42.74
40.97
36.51
34.28
38.92
52.99
75.58
101.90
124.21
133.70
122.88
88.20
31.68
-38.82
-111.06
-171.66
-209.90
-220.88
-206.72
-175.36
-137.80
-104.70
-83.81
-78.76
-89.11
-111.12
-138.82
-165.18
-183.46
-188.71
-178.98
-155.79
-123.34
-86.82
-50.70
-17.59
11.64
37.11
59.02
77.19
91.15
100.38
104.51
103.36
97.14
86.85
74.69
63.91
57.99
59.32
68.10
82.28
98.68
114.57
128.87
142.20
155.70
169.50
181.86
189.26
187.72
174.16
147.51
109.03
62.09
11.46
-37.31
-78.70
-108.14
-122.64
-121.29
-105.21
-77.21
-41.32
-2.34
34.64
64.78
84.41
91.80
87.79
75.48
59.27
43.37
30.62
22.08
17.40
15.49
15.12
15.09
14.13
11.05
4.95
-4.43
-16.55
-30.30
-44.45
-58.03
-70.42
-81.13
-89.52
-94.86
-96.56
-94.63
-89.81
-83.43
-76.83
-70.81
-65.44
-60.17
-54.19
-46.91
-38.06
-27.73
-16.04
-3.14
10.79
25.28
39.36
51.62
60.70
65.84
67.47
67.23
67.44
70.09
75.92
83.89
91.44
95.39
93.31
84.60
71.02
56.22
44.59
39.73
43.07
53.28
66.60
77.94
82.33
76.18
58.33
30.24
-4.04
-38.55
-66.60
-82.60
-84.00
-72.38
-53.14
-33.62
-20.45
-17.45
-24.94
-40.71
-61.80
-86.06
-112.46
-140.12
-167.09
-189.61
-202.80
-202.24
-185.82
-154.78
-113.42
-67.65
-23.22
15.84
47.66
72.22
90.51
103.64
112.74
119.04
124.20
130.11
138.33
149.37
162.24
174.59
183.50
186.54
182.71
172.73
158.79
143.68
129.81
118.43
109.40
101.40
92.77
82.27
69.77
56.40
44.20
35.46
31.79
33.64
40.06
49.13
58.66
66.92
73.22
77.85
81.77
85.90
90.66
95.67
99.88
101.79
99.84
92.51
78.50
56.94
27.74
-7.92
-47.36
-86.63
-121.26
-147.33
-162.38
-165.85
-159.05
-144.55
-125.48
-104.92
-85.46
-68.91
-56.24
-47.63
-42.74
-40.97
-41.84
-45.09
-50.62
-58.15
-66.91
-75.62
-82.55
-86.06
-85.10
-79.74
-71.25
-61.71
-53.36
-47.65
-44.78
-43.59
-42.21
-38.96
-33.19
-25.56
-17.60
-10.95
-6.59
-4.50
-3.86
-3.68
-3.41
-3.25
-3.97
-6.45
-11.16
-17.98
-26.32
-35.59
-45.52
-56.29
-68.29
-81.66
-96.02
-110.54
-124.34
-136.92
-148.23
-158.21
-166.03
-169.72
-166.48
-153.97
-131.66
-101.78
-68.95
-38.67
-15.36
-0.82
6.06
8.42
9.98
13.78
21.79
35.06
53.99
78.36
106.88
136.77
163.87
183.62
192.56
189.82
177.69
160.98
145.30
135.15
132.49
136.56
144.82
154.30
162.76
168.97
172.23
171.65
165.94
153.95
135.65
113.02
89.83
70.39
57.82
52.71
52.97
54.97
55.32
52.21
45.92
38.18
30.96
25.44
21.41
17.29
10.72
-0.57
-17.77
-40.25
-65.23
-88.23
-104.26
-109.25
-101.64
-83.11
-58.37
-34.08
-17.29
-13.78
-26.76
-56.10
-98.16
-146.34
-192.40
-228.32
-248.25
-249.94
-235.10
-208.51
-176.24
-143.85
-114.95
-90.91
-71.33
-55.04
-40.89
-28.07
-16.09
-4.52
7.15
19.26
31.82
44.24
55.37
63.91
68.84
69.80
67.19
61.95
55.10
47.42
39.22
30.39
20.68
9.79
-2.39
-15.92
-30.60
-46.03
-61.31
-74.99
-85.05
-89.27
-85.98
-74.80
-56.95
-34.74
-10.45
15.36
44.55
80.82
127.64
185.65
250.93
315.20
368.23
401.06
408.69
390.98
352.14
299.37
241.59
188.30
148.07
126.62
124.93
138.60
159.05
176.54
183.47
176.46
156.31
126.25
89.77
49.44
7.07
-35.60
-76.33
-112.61
-142.59
-165.76
-182.93
-195.60
-205.25
-212.74
-218.18
-221.24
-221.50
-218.72
-213.03
-204.85
-194.83
-183.70
-172.16
-160.57
-148.86
-136.33
-121.80
-103.89
-81.59
-54.75
-24.20
8.35
40.85
71.28
97.88
119.03
133.12
138.62
134.35
120.04
96.61
65.93
30.09
-9.11
-50.29
-91.91
-131.56
-165.91
-191.47
-206.00
-209.67
-205.10
-196.26
-186.77
-178.55
-171.56
-164.51
-156.03
-145.49
-133.07
-119.28
-104.28
-87.65
-68.58
-46.29
-20.51
8.45
39.74
72.37
105.41
137.99
169.12
197.29
220.50
236.38
242.89
238.95
224.88
202.39
174.12
143.01
111.71
82.32
56.07
33.41
13.88
-3.64
-20.62
-38.22
-56.89
-76.10
-94.50
-110.42
-122.37
-129.50
-131.71
-129.58
-124.34
-117.59
-111.11
-106.42
-104.46
-105.26
-107.88
-110.71
-111.79
-109.37
-102.19
-89.74
-72.33
-51.24
-28.50
-6.55
12.29
26.46
35.46
39.80
40.53
38.72
35.07
30.00
23.93
17.48
11.61
7.24
4.84
4.04
3.60
1.71
-3.39
-12.79
-26.51
-43.33
-61.14
-77.47
-90.16
-97.86
-100.28
-98.06
-92.44
-84.80
-76.35
-68.01
-60.25
-53.10
-46.10
-38.25
-28.06
-13.85
5.72
30.99
60.79
92.33
121.71
144.81
158.45
161.22
153.79
138.56
118.88
98.10
78.91
62.97
50.86
42.43
37.08
34.17
33.28
34.46
38.14
44.95
55.28
68.84
84.22
98.78
109.08
111.56
103.61
84.47
55.67
20.73
-15.75
-49.27
-76.52
-95.86
-107.36
-112.19
-112.00
-108.36
-102.39
-94.77
-85.80
-75.69
-64.63
-52.97
-41.13
-29.65
-19.07
-9.91
-2.58
2.75
6.24
8.52
10.50
13.17
17.28
23.10
30.33
38.27
45.98
52.59
57.41
59.95
59.96
57.32
52.05
44.28
34.26
22.42
9.38
-4.02
-16.77
-27.84
-36.34
-41.71
-43.81
-42.92
-39.62
-34.62
-28.56
-22.00
-15.39
-9.14
-3.64
0.86
4.50
7.92
12.27
18.82
28.46
41.29
56.46
72.30
86.89
98.48
105.97
109.03
108.10
104.14
98.38
91.98
85.69
79.72
73.75
67.13
59.28
50.00
39.70
29.32
20.02
12.76
7.91
5.07
3.08
0.22
-5.42
-15.35
-30.18
-49.03
-69.41
-87.58
-99.59
-102.46
-95.24
-79.30
-57.73
-34.17
-11.65
8.07
24.32
37.03
46.18
51.56
53.06
50.99
46.31
40.45
34.89
30.67
28.20
27.24
27.29
27.83
28.61
29.59
30.77
32.01
32.85
32.70
31.02
27.69
23.09
18.01
13.30
9.57
6.90
4.85
2.63
-0.51
-5.01
-10.72
-16.93
-22.50
-26.24
-27.27
-25.36
-20.97
-15.12
-9.05
-3.86
-0.26
1.52
1.64
0.50
-1.47
-3.87
-6.35
-8.64
-10.53
-11.91
-12.79
-13.29
-13.57
-13.78
-13.89
-13.80
-13.36
-12.49
-11.32
-10.09
-9.12
-8.61
-8.61
-8.98
-9.54
-10.20
-11.02
-12.24
-14.13
-16.91
-20.65
-25.17
-30.02
-34.48
-37.74
-38.99
-37.70
-33.74
-27.50
-19.75
-11.55
-3.87
2.54
7.30
10.44
12.19
12.96
13.10
12.88
12.41
11.71
10.77
9.64
8.45
7.40
6.65
6.24
6.10
6.08
6.00
5.77
5.32
4.68
3.81
2.63
1.06
-0.94
-3.23
-5.62
-7.95
-10.26
-12.75
-15.70
-19.21
-23.02
-26.43
-28.50
-28.36
-25.56
-20.26
-13.18
-5.37
2.17
8.69
13.86
17.74
20.48
22.26
23.14
23.13
22.29
20.80
18.93
16.99
15.23
13.73
12.51
11.54
10.86
10.59
10.82
11.55
12.59
13.58
14.05
13.61
12.06
9.52
6.45
3.54
1.46
0.59
0.81
1.48
1.64
0.44
-2.30
-5.82
-8.44
-8.18
-3.54
5.73
18.47
32.37
45.01
54.76
61.35
65.70
69.13
72.34
74.83
74.85
69.85
57.37
35.61
4.38
-34.23
-75.38
-111.74
-134.54
-135.70
-110.31
-58.81
12.13
90.73
163.04
216.70
244.15
244.08
220.82
182.05
136.13
89.97
48.32
13.98
-11.49
-27.47
-34.42
-34.45
-31.33
-29.49
-32.59
-41.93
-56.01
-71.19
-83.21
-89.06
-87.97
-81.52
-72.57
-64.01
-57.67
-53.91
-51.98
-50.88
-49.97
-49.25
-48.95
-48.95
-48.55
-46.76
-42.93
-37.39
-31.51
-27.06
-25.24
-25.88
-27.48
-27.99
-25.87
-20.81
-13.71
-6.06
0.93
6.66
11.07
14.20
15.70
14.90
11.15
4.19
-5.50
-16.89
-28.81
-40.38
-51.32
-61.85
-72.36
-82.92
-92.97
-101.24
-106.12
-106.22
-100.94
-90.76
-77.13
-62.07
-47.50
-34.74
-24.28
-15.93
-9.24
-3.87
0.15
2.50
2.84
1.10
-2.32
-6.57
-10.60
-13.46
-14.61
-14.06
-12.23
-9.83
-7.45
-5.50
-4.03
-2.90
-1.90
-0.91
-0.04
0.49
0.37
-0.58
-2.29
-4.48
-6.76
-8.77
-10.38
-11.70
-13.07
-14.85
-17.36
-20.75
-24.96
-29.71
-34.46
-38.43
-40.77
-40.65
-37.56
-31.49
-22.95
-12.95
-2.67
6.74
14.45
20.07
23.65
25.53
26.16
26.01
25.43
24.73
24.16
23.96
24.30
25.24
26.58
27.98
29.02
29.38
28.94
27.73
25.94
23.74
21.33
18.86
16.41
14.08
11.80
9.48
6.91
3.96
0.57
-3.18
-7.11
-11.00
-14.63
-17.86
-20.66
-23.18
-25.73
-28.78
-32.68
-37.42
-42.41
-46.49
-48.25
-46.52
-40.84
-31.67
-20.28
-8.26
2.97
12.50
20.00
25.60
29.55
32.06
33.18
32.97
31.56
29.30
26.66
24.12
21.97
20.26
18.87
17.63
16.51
15.63
15.22
15.42
16.12
16.97
17.49
17.22
15.97
13.85
11.24
8.52
5.97
3.64
1.38
-1.06
-3.81
-6.84
-9.93
-12.79
-15.22
-17.14
-18.61
-19.79
-20.85
-22.04
-23.69
-26.19
-29.85
-34.67
-40.09
-44.99
-47.96
-47.73
-43.70
-36.07
-25.87
-14.50
-3.30
6.78
15.18
21.72
26.35
29.09
30.05
29.42
27.57
25.01
22.27
19.78
17.79
16.33
15.28
14.53
14.03
13.90
14.35
15.49
17.27
19.33
21.12
22.11
21.93
20.51
18.07
15.02
11.81
8.79
6.13
3.80
1.58
-0.75
-3.38
-6.31
-9.36
-12.28
-14.87
-17.07
-19.04
-21.10
-23.63
-26.96
-31.25
-36.37
-41.79
-46.61
-49.71
-50.03
-46.95
-40.50
-31.33
-20.52
-9.23
1.52
10.99
18.67
24.26
27.58
28.73
28.04
26.05
23.43
20.74
18.34
16.40
14.98
14.12
13.92
14.48
15.81
17.75
20.00
22.16
23.83
24.72
24.68
23.73
22.03
19.82
17.36
14.83
12.26
9.57
6.61
3.31
-0.29
-3.98
-7.50
-10.59
-13.15
-15.26
-17.20
-19.37
-22.21
-26.03
-30.89
-36.47
-42.02
-46.47
-48.67
-47.75
-43.39
-35.92
-26.22
-15.43
-4.65
5.21
13.52
19.92
24.24
26.52
26.96
25.96
24.05
21.77
19.57
17.79
16.59
16.02
16.06
16.64
17.71
19.18
20.98
22.92
24.73
26.07
26.56
25.98
24.33
21.86
18.97
16.04
13.27
10.68
8.12
5.40
2.35
-1.05
-4.75
-8.56
-12.24
-15.57
-18.39
-20.78
-23.02
-25.62
-29.14
-33.91
-39.87
-46.37
-52.31
-56.38
-57.44
-54.82
-48.56
-39.35
-28.33
-16.80
-5.94
3.39
10.76
16.10
19.65
21.85
23.29
24.57
26.30
28.90
32.51
36.89
41.45
45.40
47.98
48.79
47.87
45.79
43.32
41.17
39.68
38.72
37.79
36.25
33.64
29.80
24.97
19.63
14.25
9.19
4.58
0.30
-3.85
-8.06
-12.34
-16.56
-20.45
-23.74
-26.21
-27.84
-28.67
-28.88
-28.71
-28.54
-28.80
-29.91
-32.02
-34.86
-37.68
-39.41
-39.07
-36.03
-30.36
-22.66
-13.89
-5.02
3.20
10.25
15.87
19.89
22.30
23.21
22.86
21.61
19.89
18.20
17.05
17.01
18.64
22.34
28.25
36.02
44.88
53.73
61.45
67.17
70.39
70.97
69.11
65.15
59.57
52.91
45.77
38.68
32.00
25.75
19.68
13.36
6.48
-1.01
-8.84
-16.47
-23.33
-28.98
-33.36
-36.79
-39.87
-43.27
-47.44
-52.25
-56.96
-60.39
-61.16
-58.31
-51.56
-41.45
-29.15
-16.09
-3.57
7.49
16.62
23.70
28.78
31.96
33.37
33.17
31.64
29.23
26.46
23.86
21.82
20.56
20.09
20.31
21.10
22.25
23.53
24.62
25.14
24.76
23.34
21.00
18.12
15.08
12.14
9.32
6.42
3.19
-0.46
-4.46
-8.55
-12.44
-15.92
-18.96
-21.62
-24.03
-26.43
-29.10
-32.36
-36.40
-41.06
-45.76
-49.44
-50.90
-49.14
-43.76
-35.09
-24.07
-12.03
-0.22
10.36
19.13
25.92
30.77
33.84
35.30
35.35
34.24
32.34
30.10
27.92
26.07
24.62
23.48
22.52
21.68
21.03
20.76
21.02
21.84
23.01
24.14
24.75
24.40
22.84
20.03
16.27
11.98
7.66
3.72
0.38
-2.33
-4.53
-6.31
-7.78
-8.99
-10.08
-11.25
-12.71
-14.65
-17.14
-20.11
-23.40
-26.97
-30.87
-35.29
-40.28
-45.60
-50.56
-54.11
-55.15
-52.89
-47.13
-38.38
-27.65
-16.19
-5.19
4.48
12.28
17.98
21.58
23.29
23.43
22.44
20.80
18.97
17.31
16.09
15.49
15.53
16.14
17.22
18.60
20.20
21.95
23.82
25.74
27.57
29.06
29.96
30.10
29.39
27.94
25.96
23.69
21.37
19.17
17.15
15.34
13.65
12.02
10.30
8.41
6.28
3.92
1.35
-1.38
-4.17
-6.90
-9.45
-11.77
-13.93
-16.21
-19.04
-22.84
-27.84
-33.85
-40.19
-45.76
-49.32
-49.84
-46.87
-40.68
-32.15
-22.49
-12.91
-4.32
2.75
8.18
12.00
14.39
15.49
15.55
14.80
13.58
12.28
11.31
10.98
11.47
12.73
14.57
16.78
19.11
21.44
23.70
25.81
27.63
28.93
29.50
29.27
28.33
26.91
25.25
23.53
21.74
19.76
17.43
14.64
11.43
7.98
4.54
1.37
-1.36
-3.65
-5.66
-7.64
-9.87
-12.48
-15.43
-18.51
-21.42
-23.95
-26.08
-28.05
-30.24
-33.06
-36.68
-40.89
-45.10
-48.40
-49.85
-48.66
-44.53
-37.62
-28.63
-18.56
-8.50
0.57
7.97
13.37
16.77
18.39
18.65
17.96
16.76
15.42
14.21
13.28
12.70
12.41
12.36
12.54
13.08
14.19
16.14
19.11
23.07
27.73
32.60
37.11
40.77
43.29
44.59
44.78
44.04
42.50
40.24
37.35
33.86
29.79
25.16
19.89
13.92
7.20
-0.13
-7.78
-15.34
-22.41
-28.75
-34.34
-39.35
-44.01
-48.53
-53.07
-57.69
-62.43
-67.26
-72.04
-76.35
-79.50
-80.60
-78.77
-73.47
-64.72
-53.16
-39.94
-26.43
-13.94
-3.47
4.37
9.39
11.72
11.76
10.02
7.14
3.79
0.67
-1.60
-2.59
-2.20
-0.71
1.24
2.94
3.85
3.84
3.22
2.50
2.11
2.19
2.50
2.65
2.29
1.28
-0.23
-1.96
-3.61
-5.03
-6.22
-7.38
-8.70
-10.25
-11.88
-13.16
-13.50
-12.37
-9.42
-4.53
2.21
10.54
20.10
30.37
40.58
49.84
57.32
62.47
64.97
64.64
61.25
54.64
45.00
33.27
21.15
10.62
3.20
-0.67
-1.81
-1.82
-2.29
-4.06
-7.13
-10.84
-14.53
-17.88
-20.99
-24.17
-27.59
-31.07
-34.05
-35.80
-35.68
-33.51
-29.57
-24.60
-19.41
-14.58
-10.29
-6.31
-2.27
2.06
6.67
11.28
15.49
18.93
21.33
22.53
22.47
21.18
18.82
15.68
12.11
8.47
4.95
1.66
-1.39
-4.20
-6.70
-8.82
-10.49
-11.77
-12.78
-13.68
-14.62
-15.68
-16.92
-18.42
-20.24
-22.30
-24.28
-25.58
-25.48
-23.37
-19.00
-12.58
-4.79
3.51
11.41
18.25
23.67
27.54
29.90
30.84
30.52
29.13
26.98
24.46
21.98
19.83
18.15
16.83
15.67
14.46
13.13
11.81
10.70
9.93
9.49
9.14
8.57
7.51
5.85
3.67
1.21
-1.30
-3.63
-5.67
-7.35
-8.73
-9.87
-10.94
-12.08
-13.37
-14.83
-16.39
-17.95
-19.40
-20.71
-21.90
-23.03
-24.24
-25.64
-27.43
-29.70
-32.38
-35.05
-36.97
-37.20
-34.89
-29.69
-21.85
-12.26
-2.10
7.45
15.55
21.82
26.29
29.23
30.89
31.47
31.03
29.59
27.24
24.17
20.73
17.28
14.11
11.34
9.02
7.10
5.64
4.77
4.59
5.07
5.91
6.65
6.77
5.95
4.16
1.64
-1.20
-3.95
-6.31
-8.11
-9.33
-10.07
-10.50
-10.84
-11.29
-12.04
-13.15
-14.62
-16.32
-18.09
-19.81
-21.45
-23.18
-25.34
-28.33
-32.47
-37.74
-43.70
-49.50
-54.07
-56.47
-56.11
-52.96
-47.43
-40.25
-32.19
-23.87
-15.82
-8.42
-1.94
3.44
7.68
10.88
13.13
14.55
15.13
14.89
13.97
12.76
11.81
11.74
13.00
15.74
19.76
24.66
29.90
34.86
38.89
41.38
41.91
40.45
37.42
33.66
30.06
27.26
25.39
24.03
22.49
20.12
16.59
11.99
6.65
1.01
-4.60
-9.88
-14.58
-18.32
-20.72
-21.51
-20.76
-18.98
-17.15
-16.42
-17.85
-22.00
-28.81
-37.54
-46.86
-55.18
-60.93
-62.89
-60.44
-53.72
-43.58
-31.38
-18.63
-6.66
3.62
11.80
17.93
22.26
25.15
26.87
27.65
27.68
27.16
26.32
25.38
24.53
23.85
23.33
22.90
22.51
22.23
22.22
22.66
23.60
24.94
26.34
27.43
27.88
27.61
26.76
25.67
24.71
24.17
24.15
24.57
25.28
26.02
26.55
26.59
25.89
24.23
21.51
17.79
13.37
8.66
4.17
0.41
-2.30
-3.97
-4.98
-6.10
-8.37
-12.78
-19.83
-29.26
-39.88
-49.81
-57.04
-59.98
-58.02
-51.57
-41.85
-30.43
-18.82
-8.17
0.77
7.62
12.24
14.65
15.11
14.10
12.24
10.19
8.54
7.61
7.48
7.98
8.88
10.02
11.36
13.01
15.05
17.43
19.91
22.13
23.78
24.69
24.90
24.58
23.89
22.92
21.66
20.04
18.07
15.85
13.53
11.29
9.27
7.48
5.90
4.43
2.91
1.14
-1.00
-3.58
-6.58
-9.93
-13.66
-17.94
-23.09
-29.39
-36.80
-44.79
-52.28
-57.87
-60.27
-58.68
-53.08
-44.15
-33.07
-21.09
-9.33
1.48
10.88
18.61
24.48
28.35
30.15
29.97
28.06
24.86
20.90
16.75
12.96
10.05
8.39
8.20
9.45
11.87
15.03
18.48
21.83
24.84
27.37
29.23
30.19
29.97
28.39
25.54
21.80
17.79
14.11
11.14
8.85
6.90
4.72
1.73
-2.44
-7.92
-14.60
-22.14
-30.08
-37.91
-45.08
-51.16
-55.92
-59.43
-62.05
-64.41
-67.09
-70.42
-74.23
-77.83
-80.18
-80.21
-77.14
-70.78
-61.53
-50.19
-37.82
-25.36
-13.61
-3.11
5.78
12.89
18.18
21.71
23.68
24.35
24.11
23.40
22.64
22.21
22.38
23.23
24.65
26.45
28.44
30.56
32.87
35.51
38.47
41.50
44.05
45.31
44.57
41.48
36.31
29.99
23.82
19.04
16.36
15.61
15.81
15.58
13.77
10.09
5.34
1.11
-0.94
0.16
4.17
9.87
15.50
19.77
22.42
24.28
26.99
32.95
45.38
68.13
104.61
155.81
218.46
284.61
343.39
384.69
402.98
399.21
379.81
353.42
327.09
304.25
284.85
267.29
250.39
234.17
219.33
206.10
193.66
180.44
164.82
146.01
124.18
100.29
75.44
50.32
24.99
-0.99
-28.05
-56.22
-84.94
-113.24
-140.36
-166.54
-193.49
-223.88
-259.93
-301.59
-345.24
-384.13
-410.59
-419.27
-409.71
-386.95
-359.75
-337.31
-326.05
-328.01
-341.01
-360.14
-379.57
-393.83
-398.49
-390.37
-367.91
-331.43
-283.18
-226.81
-166.52
-105.87
-46.94
9.54
63.08
111.83
151.68
176.99
182.96
168.48
137.74
99.35
63.25
36.79
22.30
17.29
17.06
17.86
18.65
20.70
25.53
33.02
40.91
46.02
46.23
41.70
34.74
28.57
25.50
25.82
27.93
29.41
28.44
24.68
19.39
14.49
11.59
11.24
12.72
14.60
15.36
13.97
10.12
4.05
-3.72
-12.65
-22.36
-32.53
-42.74
-52.27
-60.05
-64.90
-65.84
-62.50
-55.34
-45.44
-34.11
-22.39
-10.80
0.51
11.44
21.47
29.65
34.85
36.33
34.09
28.96
22.27
15.36
9.25
4.42
1.01
-1.02
-1.72
-1.18
0.42
2.78
5.50
8.16
10.40
11.92
12.48
11.92
10.20
7.43
3.88
-0.13
-4.34
-8.63
-12.98
-17.42
-21.94
-26.40
-30.56
-34.17
-37.14
-39.52
-41.58
-43.61
-45.86
-48.50
-51.67
-55.50
-60.14
-65.59
-71.42
-76.73
-80.19
-80.43
-76.45
-67.98
-55.49
-39.98
-22.65
-4.72
12.58
28.06
40.52
49.06
53.39
54.02
52.22
49.60
47.63
47.11
48.07
49.92
51.79
52.97
53.07
52.11
50.37
48.30
46.37
45.00
44.47
44.80
45.73
46.77
47.34
47.03
45.76
43.81
41.67
39.78
38.27
36.91
35.26
32.84
29.44
25.16
20.33
15.29
10.24
5.06
-0.55
-6.97
-14.49
-23.02
-32.04
-40.58
-47.36
-51.11
-50.94
-46.70
-39.03
-29.25
-18.94
-9.41
-1.44
4.80
9.53
13.07
15.65
17.36
18.28
18.61
18.68
18.84
19.22
19.69
19.86
19.31
17.84
15.61
13.08
10.72
8.87
7.54
6.50
5.43
4.14
2.62
0.95
-0.78
-2.64
-4.82
-7.59
-11.15
-15.54
-20.62
-26.12
-31.71
-37.06
-41.90
-46.08
-49.59
-52.57
-55.23
-57.80
-60.33
-62.59
-63.92
-63.36
-59.85
-52.62
-41.50
-27.06
-10.53
6.56
22.76
37.00
48.68
57.64
63.92
67.68
69.21
68.85
66.97
63.98
60.25
56.19
52.17
48.54
45.57
43.50
42.41
42.14
42.31
42.41
41.95
40.64
38.38
35.36
32.07
29.01
26.43
24.23
22.04
19.50
16.45
13.03
9.56
6.90
5.69
5.93
6.94
7.61
6.98
4.64
0.80
-3.83
-7.10
-6.89
-1.89
7.98
21.78
38.17
55.98
74.20
91.94
110.17
129.97
151.51
173.58
194.07
211.04
223.64
232.53
239.61
249.81
267.98
296.49
333.89
375.35
414.79
446.96
468.90
463.96
422.68
346.06
246.58
142.57
49.49
-24.99
-80.12
-118.72
-142.71
-154.90
-156.93
-150.82
-139.89
-128.17
-118.83
-113.36
-111.87
-112.85
-113.58
-111.88
-107.32
-101.34
-96.18
-93.62
-94.15
-97.21
-101.95
-106.89
-110.91
-114.03
-117.61
-123.62
-133.66
-147.98
-165.32
-183.12
-198.02
-207.00
-208.73
-204.00
-195.11
-184.60
-174.12
-164.01
-153.63
-142.09
-128.96
-114.73
-100.55
-87.65
-76.70
-67.69
-60.23
-53.87
-48.57
-44.53
-42.17
-41.71
-43.08
-45.79
-49.13
-52.28
-54.67
-56.08
-56.72
-57.10
-57.86
-59.52
-62.30
-66.04
-70.17
-73.80
-75.90
-75.41
-71.49
-63.65
-51.91
-36.90
-19.69
-1.68
15.73
31.38
44.42
54.34
60.94
64.25
64.48
62.10
57.84
52.62
47.51
43.47
41.18
40.86
42.12
44.03
45.31
44.73
41.48
35.51
27.44
18.40
9.53
1.47
-5.92
-13.37
-21.87
-32.12
-44.14
-57.25
-70.35
-82.42
-93.00
-102.39
-111.64
-122.23
-135.80
-153.75
-176.80
-204.44
-234.51
-263.25
-286.01
-298.76
-299.56
-289.41
-271.84
-251.57
-232.73
-217.57
-206.44
-198.55
-192.94
-189.18
-187.02
-185.64
-183.09
-176.15
-160.89
-133.81
-92.98
-39.18
23.64
88.76
148.46
196.22
228.71
246.82
254.66
257.60
260.04
264.15
269.93
275.93
279.99
279.73
272.98
258.35
236.31
209.70
183.38
162.60
150.81
147.99
150.88
154.67
155.21
150.79
141.99
130.31
116.51
99.82
78.63
52.07
21.50
-9.53
-36.12
-54.17
-62.13
-61.26
-54.82
-46.12
-37.12
-28.06
-18.25
-7.38
3.66
12.91
18.39
19.26
16.39
12.09
9.04
9.20
13.13
19.90
27.67
34.58
39.32
41.46
41.28
39.30
35.93
31.32
25.41
18.16
9.72
0.49
-8.91
-17.90
-26.04
-33.18
-39.42
-45.05
-50.48
-56.09
-62.23
-69.00
-76.25
-83.44
-89.60
-93.50
-93.82
-89.53
-80.28
-66.56
-49.67
-31.42
-13.70
1.92
14.45
23.45
28.95
31.27
30.92
28.59
25.19
21.68
19.03
17.89
18.53
20.74
24.01
27.77
31.59
35.27
38.81
42.20
45.25
47.59
48.75
48.37
46.37
42.99
38.69
33.92
28.93
23.74
18.12
11.75
4.39
-4.03
-13.28
-22.75
-31.44
-37.99
-40.98
-39.16
-31.96
-19.60
-3.16
15.71
35.14
53.37
68.88
80.52
87.58
89.94
88.14
83.41
77.37
71.63
67.38
65.07
64.45
64.79
65.27
65.23
64.32
62.54
60.06
57.12
53.89
50.40
46.59
42.34
37.58
32.36
26.93
21.59
16.65
12.25
8.27
4.24
-0.56
-6.81
-14.87
-24.38
-34.15
-42.43
-47.39
-47.76
-43.26
-34.68
-23.50
-11.40
0.16
10.19
18.09
23.57
26.47
26.78
24.74
20.80
15.62
9.94
4.41
-0.46
-4.39
-7.29
-9.21
-10.28
-10.61
-10.25
-9.15
-7.25
-4.63
-1.59
1.30
3.37
4.04
3.03
0.47
-3.17
-7.21
-11.06
-14.45
-17.45
-20.53
-24.36
-29.60
-36.60
-45.22
-54.64
-63.41
-69.71
-71.84
-68.66
-59.98
-46.66
-30.31
-12.93
3.64
18.03
29.44
37.61
42.68
45.05
45.26
43.93
41.67
38.98
36.30
33.90
32.00
30.73
30.17
30.30
30.99
32.04
33.15
33.99
34.24
33.67
32.13
29.62
26.24
22.17
17.55
12.49
7.02
1.15
-5.12
-11.65
-18.22
-24.52
-30.23
-35.09
-39.05
-42.27
-45.20
-48.45
-52.55
-57.72
-63.55
-68.94
-72.34
-72.20
-67.46
-57.99
-44.63
-28.93
-12.61
2.91
16.86
29.01
39.55
48.66
56.39
62.57
66.94
69.37
69.97
69.12
67.31
64.94
62.22
59.16
55.72
52.00
48.25
44.89
42.18
40.13
38.38
36.33
33.43
29.41
24.39
18.76
12.97
7.35
1.95
-3.39
-8.96
-15.01
-21.59
-28.56
-35.55
-42.09
-47.70
-52.03
-55.00
-56.83
-58.06
-59.45
-61.76
-65.54
-70.75
-76.62
-81.70
-84.18
-82.41
-75.47
-63.49
-47.62
-29.69
-11.68
4.75
18.50
29.07
36.39
40.74
42.52
42.25
40.49
37.81
34.75
31.78
29.27
27.48
26.50
26.25
26.57
27.25
28.10
28.99
29.86
30.59
31.04
30.99
30.20
28.50
25.85
22.36
18.31
14.04
9.94
6.27
3.15
0.47
-2.02
-4.64
-7.64
-11.10
-14.94
-18.92
-22.77
-26.32
-29.52
-32.52
-35.61
-39.26
-43.90
-49.81
-56.85
-64.29
-70.82
-74.80
-74.74
-69.81
-60.10
-46.63
-31.01
-14.96
0.07
13.07
23.48
31.05
35.71
37.63
37.27
35.39
32.97
31.00
30.16
30.67
32.23
34.24
36.10
37.51
38.61
39.91
42.02
45.24
49.40
53.78
57.37
59.37
59.50
58.19
56.43
55.43
56.09
58.68
62.81
67.49
71.49
73.73
73.72
71.85
69.68
70.00
76.30
91.75
117.76
152.84
192.53
230.59
261.20
281.01
290.20
291.83
290.12
288.38
287.90
288.10
287.55
285.12
280.53
274.03
265.84
255.51
242.02
224.37
202.19
176.01
147.14
117.06
86.60
55.79
24.10
-8.74
-42.03
-73.79
-101.27
-121.86
-134.15
-138.40
-136.49
-131.21
-125.37
-121.12
-119.61
-121.06
-124.96
-130.33
-135.87
-140.11
-141.68
-139.63
-133.79
-124.91
-114.35
-103.75
-94.34
-86.75
-81.02
-77.14
-75.53
-77.17
-83.35
-94.87
-111.43
-131.38
-152.04
-170.59
-184.88
-193.99
-198.32
-199.26
-198.51
-197.51
-196.88
-196.30
-194.54
-189.98
-181.10
-167.11
-148.19
-125.51
-100.99
-76.72
-54.69
-36.28
-22.27
-12.71
-7.13
-4.64
-4.14
-4.50
-4.65
-3.66
-0.80
4.31
11.64
20.65
30.41
39.85
48.07
54.56
59.23
62.19
63.50
62.98
60.29
55.15
47.57
38.06
27.55
17.11
7.62
-0.55
-7.68
-14.58
-22.18
-31.09
-41.25
-51.93
-61.99
-70.36
-76.53
-80.75
-83.89
-87.17
-91.70
-98.20
-106.72
-116.49
-125.76
-131.96
-132.22
-124.20
-107.09
-82.19
-52.73
-22.99
3.04
22.81
35.70
42.62
45.23
45.10
43.28
40.43
37.07
33.93
31.86
31.66
33.74
38.05
44.14
51.43
59.53
68.24
77.58
87.58
98.09
108.65
118.47
126.50
131.64
132.92
129.76
122.10
110.41
95.60
78.67
60.54
41.88
23.17
4.84
-12.64
-28.82
-43.34
-56.08
-67.21
-77.12
-86.36
-95.51
-105.24
-116.25
-129.13
-144.05
-160.45
-176.80
-190.71
-199.52
-201.10
-194.65
-181.12
-162.98
-143.43
-125.43
-110.90
-100.46
-93.67
-89.60
-87.31
-86.10
-85.44
-84.80
-83.54
-80.95
-76.51
-70.01
-61.67
-51.99
-41.61
-31.04
-20.61
-10.45
-0.56
9.04
18.25
26.85
34.51
40.92
45.83
49.20
51.03
51.35
50.06
46.83
41.17
32.47
20.20
4.06
-15.70
-38.19
-61.83
-84.46
-103.90
-118.43
-127.34
-131.15
-131.44
-130.35
-129.91
-131.45
-135.16
-139.98
-143.68
-143.24
-135.64
-118.81
-92.41
-58.31
-20.31
16.93
49.18
73.72
89.82
98.40
101.15
99.71
95.27
88.53
80.18
71.09
62.39
55.12
49.88
46.57
44.58
43.15
41.75
40.35
39.23
38.70
38.65
38.55
37.53
34.80
30.06
23.64
16.41
9.40
3.43
-1.27
-5.06
-8.72
-13.04
-18.47
-24.87
-31.57
-37.66
-42.34
-45.38
-47.19
-48.78
-51.39
-56.21
-63.96
-74.53
-86.71
-98.02
-105.07
-104.31
-93.23
-71.41
-40.98
-6.16
27.99
57.06
78.42
91.53
97.47
98.06
95.12
90.07
83.92
77.48
71.47
66.58
63.22
61.46
61.01
61.27
61.65
61.84
61.82
61.86
62.14
62.51
62.30
60.60
56.57
49.91
41.10
31.21
21.48
12.77
5.24
-1.69
-8.96
-17.40
-27.23
-37.88
-48.16
-56.86
-63.22
-67.37
-70.38
-73.92
-79.87
-89.59
-103.38
-119.97
-136.43
-148.57
-152.00
-143.59
-122.74
-91.80
-55.50
-19.39
11.87
35.70
51.80
61.42
66.25
67.65
66.42
63.04
58.14
52.68
47.76
44.26
42.61
42.67
43.93
45.85
48.10
50.67
53.74
57.38
61.35
64.97
67.24
67.20
64.28
58.57
50.92
42.61
35.01
29.01
24.62
20.85
16.03
8.42
-3.05
-18.12
-35.18
-51.74
-65.28
-74.24
-78.53
-79.60
-79.86
-81.98
-88.02
-98.89
-113.84
-130.31
-144.23
-150.93
-146.50
-129.14
-100.07
-63.18
-23.87
12.74
43.12
65.87
81.34
90.64
94.94
95.13
92.02
86.62
80.26
74.40
70.18
68.10
67.99
69.19
71.01
73.03
75.20
77.62
80.30
82.90
84.78
85.23
83.86
80.72
76.28
71.14
65.69
60.01
53.95
47.32
40.14
32.71
25.57
19.28
14.19
10.29
7.09
3.77
-0.60
-6.61
-14.34
-23.17
-32.08
-40.07
-46.62
-51.99
-57.19
-63.69
-72.95
-85.96
-102.65
-121.42
-139.01
-150.99
-152.90
-141.90
-118.02
-84.46
-46.72
-10.76
18.91
40.25
53.69
61.13
64.70
65.84
65.07
62.37
57.74
51.67
45.17
39.49
35.76
34.52
35.63
38.44
42.15
46.27
50.68
55.53
60.81
66.06
70.33
72.47
71.62
67.63
61.17
53.49
45.91
39.29
33.68
28.30
21.95
13.58
2.85
-9.62
-22.46
-34.12
-43.52
-50.48
-55.78
-60.83
-67.21
-76.13
-88.14
-102.74
-118.26
-131.94
-140.40
-140.53
-130.56
-110.76
-83.55
-52.68
-22.07
5.30
27.96
45.75
59.21
68.97
75.42
78.87
79.74
78.75
76.81
74.79
73.26
72.36
71.98
71.92
72.13
72.73
73.99
76.06
78.77
81.47
83.11
82.45
78.56
71.18
60.89
48.98
36.96
25.96
16.35
7.63
-1.15
-10.81
-21.49
-32.55
-42.80
-51.13
-57.06
-61.06
-64.46
-69.07
-76.67
-88.43
-104.33
-122.68
-140.06
-151.82
-153.26
-141.24
-115.43
-78.72
-36.39
5.58
42.41
71.57
92.95
107.96
118.36
125.38
129.47
130.54
128.50
123.55
116.26
107.38
97.63
87.57
77.53
67.75
58.48
50.01
42.63
36.51
31.53
27.25
22.98
17.99
11.65
3.72
-5.58
-15.66
-25.67
-34.86
-42.79
-49.53
-55.56
-61.63
-68.40
-76.21
-84.95
-94.11
-102.93
-110.63
-116.61
-120.54
-122.58
-123.34
-123.90
-125.69
-130.08
-137.86
-148.57
-159.97
-168.19
-168.65
-157.58
-133.59
-98.48
-56.89
-14.84
22.28
51.15
71.07
83.29
89.85
92.47
92.16
89.39
84.67
78.84
73.09
68.50
65.72
64.79
65.28
66.62
68.43
70.55
72.93
75.40
77.48
78.47
77.66
74.64
69.49
62.76
55.29
47.89
41.10
35.06
29.58
24.34
19.09
13.78
8.57
3.59
-1.17
-5.97
-11.28
-17.49
-24.68
-32.57
-40.58
-48.09
-54.72
-60.50
-65.82
-71.41
-78.24
-87.27
-99.07
-113.13
-127.41
-138.27
-141.32
-132.89
-111.61
-79.28
-40.44
-0.99
33.90
61.12
80.08
92.00
98.77
101.87
102.09
99.79
95.42
89.90
84.55
80.69
79.20
80.25
83.35
87.61
92.24
96.76
101.13
105.54
110.19
114.95
119.36
122.68
124.22
123.68
121.25
117.62
113.64
109.92
106.56
103.09
98.60
92.10
82.78
70.06
53.55
32.89
7.68
-22.23
-56.38
-93.38
-131.07
-167.11
-199.92
-229.26
-256.03
-281.34
-305.06
-325.10
-337.68
-338.77
-325.95
-299.50
-262.31
-218.46
-171.69
-124.43
-78.10
-33.93
6.35
40.60
67.15
85.69
97.46
104.61
109.12
111.96
113.07
112.02
108.82
104.24
99.63
96.22
94.55
94.27
94.39
93.75
91.37
86.65
79.51
70.28
59.62
48.40
37.44
27.38
18.51
10.81
3.99
-2.33
-8.58
-15.11
-22.21
-30.12
-38.98
-48.68
-58.75
-68.42
-76.74
-82.92
-86.63
-88.22
-88.66
-89.27
-91.39
-96.00
-103.48
-113.28
-123.79
-132.41
-135.94
-131.51
-117.53
-94.39
-64.42
-31.05
2.43
33.72
61.86
86.62
107.87
125.09
137.50
144.56
146.57
144.72
140.86
137.05
135.14
136.57
142.02
151.02
161.60
170.38
173.46
167.63
151.64
126.58
95.40
61.85
29.47
1.05
-21.32
-36.24
-43.12
-42.64
-37.00
-29.51
-23.54
-21.03
-21.81
-23.79
-24.20
-21.12
-14.49
-6.04
1.59
6.14
6.62
3.54
-1.60
-7.17
-12.15
-16.50
-21.06
-27.25
-36.55
-49.94
-67.46
-87.69
-107.69
-123.48
-131.00
-127.51
-112.56
-88.30
-58.82
-28.83
-2.24
18.66
33.32
42.40
47.03
48.32
47.26
44.71
41.55
38.63
36.62
35.95
36.82
39.26
43.13
48.21
54.09
60.28
66.30
71.80
76.69
81.10
85.20
88.95
92.09
94.21
94.91
94.13
92.13
89.50
87.03
85.43
85.26
86.66
89.27
92.10
93.63
92.14
86.33
75.78
61.18
44.15
26.64
10.41
-3.29
-13.79
-20.98
-25.11
-26.77
-26.55
-24.61
-20.40
-12.61
0.11
18.25
40.59
64.12
84.92
99.50
106.02
104.60
96.83
84.63
69.42
51.87
32.31
11.46
-9.26
-27.87
-42.42
-51.75
-55.92
-56.07
-53.92
-51.13
-48.70
-46.91
-45.50
-44.06
-42.45
-40.88
-39.87
-39.98
-41.52
-44.39
-48.11
-52.06
-55.70
-58.81
-61.51
-63.99
-66.31
-68.26
-69.60
-70.53
-71.93
-75.42
-82.85
-95.56
-113.73
-136.21
-160.71
-184.39
-204.32
-217.67
-221.85
-214.70
-195.05
-163.32
-122.04
-75.55
-29.14
12.26
45.31
68.79
83.40
90.96
93.47
92.50
88.98
83.47
76.50
68.76
61.13
54.40
49.17
45.61
43.55
42.60
42.36
42.49
42.80
43.12
43.20
42.63
40.84
37.30
31.73
24.40
16.10
8.01
1.23
-3.68
-7.01
-9.79
-13.33
-18.65
-26.00
-34.80
-43.99
-52.49
-59.69
-65.52
-70.40
-74.98
-80.00
-86.14
-93.85
-102.89
-112.05
-118.96
-120.58
-114.16
-98.39
-74.07
-44.02
-12.23
17.47
42.40
61.41
74.67
83.00
87.28
88.27
86.56
82.84
77.89
72.62
67.82
64.01
61.40
59.83
58.98
58.51
58.16
57.87
57.69
57.66
57.69
57.49
56.53
54.24
50.15
44.09
36.27
27.30
18.01
9.21
1.55
-4.71
-9.67
-13.77
-17.57
-21.55
-25.89
-30.43
-34.69
-38.20
-40.77
-42.60
-44.34
-46.83
-50.84
-56.86
-64.96
-74.54
-84.30
-92.17
-95.55
-92.02
-80.15
-60.26
-34.52
-6.41
20.38
43.02
60.13
71.73
78.58
81.67
81.71
79.25
74.92
69.53
64.10
59.56
56.47
54.86
54.30
54.18
54.00
53.65
53.45
53.98
55.73
58.77
62.63
66.38
69.01
69.85
68.87
66.72
64.40
62.90
62.71
63.66
64.93
65.33
63.79
59.72
53.21
45.04
36.33
28.21
21.42
16.01
11.31
5.98
-1.71
-13.51
-30.51
-52.49
-77.38
-101.43
-119.95
-128.75
-125.66
-111.28
-88.90
-63.31
-39.29
-20.33
-8.09
-2.67
-3.27
-8.83
-18.33
-30.77
-44.92
-59.29
-72.23
-82.28
-88.51
-90.77
-89.62
-86.20
-81.74
-77.18
-73.00
-69.13
-65.29
-61.29
-57.24
-53.57
-50.79
-49.10
-48.22
-47.41
-45.79
-42.63
-37.73
-31.44
-24.63
-18.41
-13.89
-11.89
-12.77
-16.29
-21.94
-29.26
-38.11
-48.72
-61.41
-76.16
-92.35
-108.94
-124.89
-139.58
-152.66
-163.52
-170.60
-171.15
-161.94
-140.60
-106.83
-63.07
-13.96
34.94
78.72
114.06
139.60
155.68
163.70
165.55
163.24
158.60
153.10
147.67
142.61
137.76
132.65
126.83
120.07
112.49
104.50
96.73
89.82
84.38
80.80
79.15
79.16
80.22
81.43
81.82
80.66
77.63
72.91
67.05
60.73
54.46
48.45
42.55
36.41
29.72
22.44
14.90
7.76
1.77
-2.59
-5.43
-7.68
-10.86
-16.69
-26.55
-40.93
-59.23
-79.84
-100.25
-117.48
-128.44
-130.58
-122.56
-104.73
-79.24
-49.56
-19.60
7.27
28.80
44.04
53.00
56.36
55.16
50.69
44.49
38.12
32.86
29.39
27.63
26.91
26.35
25.30
23.57
21.44
19.39
17.87
17.04
16.80
16.90
17.14
17.49
18.13
19.25
20.89
22.75
24.21
24.58
23.40
20.64
16.84
12.83
9.38
6.83
4.97
3.16
0.70
-2.77
-7.06
-11.59
-15.60
-18.64
-20.79
-22.75
-25.60
-30.50
-38.36
-49.45
-63.07
-77.43
-89.75
-96.86
-96.06
-86.08
-67.65
-43.40
-17.05
7.66
28.00
42.74
51.97
56.54
57.50
55.79
52.15
47.33
42.15
37.54
34.36
33.29
34.67
38.40
44.02
50.74
57.56
63.45
67.49
68.97
67.40
62.48
54.14
42.58
28.33
12.28
-4.40
-20.51
-35.15
-47.85
-58.71
-68.13
-76.63
-84.51
-91.71
-97.76
-102.09
-104.26
-104.23
-102.57
-100.38
-99.05
-99.97
-104.26
-112.36
-123.70
-136.45
-147.51
-153.10
-149.73
-135.43
-110.61
-78.13
-42.47
-8.26
21.02
43.80
60.27
71.56
78.94
83.19
84.67
83.63
80.55
76.35
72.17
69.09
67.77
68.27
70.16
72.78
75.59
78.41
81.40
84.86
88.86
93.05
96.61
98.49
97.81
94.24
88.14
80.46
72.32
64.51
57.21
49.82
41.27
30.44
16.65
-0.05
-18.83
-38.26
-56.75
-72.81
-85.50
-94.58
-100.65
-105.10
-109.85
-116.89
-127.37
-140.88
-154.99
-165.62
-168.21
-159.33
-138.15
-106.90
-70.17
-33.43
-1.29
23.66
40.99
51.75
57.54
59.73
59.23
56.72
52.93
48.84
45.47
43.61
43.54
44.97
47.24
49.66
51.80
53.61
55.33
57.20
59.25
61.17
62.37
62.25
60.39
56.76
51.74
45.98
40.18
34.90
30.40
26.68
23.50
20.53
17.50
14.17
10.52
6.61
2.65
-1.10
-4.47
-7.46
-10.40
-13.95
-18.96
-26.21
-36.12
-48.47
-62.10
-74.86
-83.76
-85.62
-77.77
-59.02
-30.22
5.78
44.87
82.84
116.43
144.03
165.61
182.15
194.87
204.86
212.87
219.47
225.26
230.81
236.63
243.02
250.15
258.03
266.51
275.00
282.33
286.72
286.23
279.41
266.02
247.16
224.91
201.48
178.39
156.13
134.33
112.42
90.15
67.82
45.97
24.94
4.43
-16.46
-38.84
-63.50
-90.46
-118.95
-147.80
-176.06
-203.46
-230.35
-257.23
-284.16
-310.41
-334.63
-355.28
-370.90
-379.96
-380.47
-369.80
-345.34
-305.73
-252.27
-189.41
-123.88
-62.83
-11.66
27.20
54.19
71.49
81.62
86.58
87.70
86.12
83.09
80.06
78.22
78.15
79.54
81.43
82.65
82.41
80.63
77.92
75.20
73.14
71.59
69.43
64.87
56.10
42.20
23.68
2.46
-18.82
-37.72
-52.96
-64.74
-74.34
-83.30
-92.69
-102.61
-112.41
-121.14
-128.11
-133.29
-137.24
-140.98
-145.65
-152.26
-161.25
-172.22
-183.55
-192.51
-195.80
-190.47
-175.01
-149.94
-117.83
-82.45
-47.74
-16.80
8.61
27.97
41.56
49.95
53.78
53.67
50.35
44.77
38.00
31.11
25.00
20.23
17.06
15.48
15.31
16.30
18.07
20.06
21.60
21.90
20.30
16.38
10.08
1.63
-8.70
-20.73
-34.49
-50.09
-67.46
-86.22
-105.72
-125.10
-143.64
-160.94
-176.99
-192.14
-206.88
-221.73
-237.03
-252.86
-268.79
-283.83
-296.27
-303.88
-304.35
-295.88
-277.71
-250.50
-216.15
-177.22
-136.27
-95.07
-54.26
-13.36
28.52
71.86
115.74
157.66
194.05
221.46
237.81
243.22
239.81
230.84
219.52
208.11
197.75
188.82
181.37
175.45
170.98
167.45
163.98
159.49
153.24
145.22
136.21
127.48
120.22
115.00
111.45
108.35
104.12
97.47
88.02
76.49
64.35
53.07
43.20
34.00
23.51
9.58
-9.01
-31.68
-56.01
-78.54
-96.21
-107.56
-113.27
-115.76
-118.31
-123.76
-133.50
-146.96
-161.57
-173.41
-178.27
-172.77
-155.40
-126.99
-90.49
-50.21
-10.60
24.59
52.96
73.44
86.04
91.54
91.21
86.70
79.78
72.26
65.57
60.63
57.70
56.48
56.38
56.78
57.26
57.72
58.23
58.90
59.74
60.55
60.99
60.64
59.17
56.30
52.01
46.39
39.75
32.56
25.37
18.70
12.87
7.82
3.05
-2.11
-8.43
-16.27
-25.38
-35.04
-44.25
-52.17
-58.54
-63.78
-68.89
-75.15
-83.76
-95.39
-109.80
-125.40
-139.23
-147.33
-145.89
-132.47
-107.16
-72.71
-33.83
4.29
37.37
62.99
80.54
90.71
94.71
93.84
89.33
82.49
74.73
67.40
61.57
57.77
55.92
55.52
55.85
56.28
56.53
56.61
56.69
56.88
57.05
56.70
55.11
51.58
45.62
37.23
26.91
15.60
4.39
-5.73
-14.27
-21.27
-27.36
-33.38
-40.10
-47.85
-56.36
-64.87
-72.41
-78.24
-82.13
-84.41
-85.98
-88.09
-92.10
-99.05
-109.08
-120.90
-131.61
-137.15
-133.58
-118.51
-92.19
-57.62
-19.61
16.85
48.02
71.97
88.37
97.74
100.73
98.10
90.86
80.57
69.27
59.02
51.23
46.41
44.15
43.55
43.71
44.19
44.95
46.29
48.37
50.99
53.47
54.80
53.96
50.35
43.99
35.51
25.98
16.52
7.88
0.33
-6.44
-13.04
-20.11
-28.05
-36.78
-45.79
-54.31
-61.64
-67.48
-72.09
-76.29
-81.19
-88.01
-97.66
-110.37
-125.33
-140.38
-152.20
-157.01
-151.71
-135.17
-108.83
-76.40
-42.76
-12.38
11.85
29.14
40.33
47.01
50.82
52.90
54.01
54.69
55.44
56.80
59.07
62.29
66.08
69.85
73.04
75.37
76.99
78.29
79.57
80.79
81.38
80.53
77.52
72.08
64.56
55.76
46.58
37.62
28.98
20.40
11.60
2.58
-6.29
-14.42
-21.28
-26.78
-31.35
-35.84
-41.33
-48.85
-58.95
-71.41
-84.82
-96.53
-103.16
-101.51
-89.78
-68.33
-39.78
-8.07
22.79
49.96
72.17
89.33
101.83
109.87
113.34
112.14
106.67
98.07
88.05
78.42
70.55
65.05
61.82
60.28
59.73
59.74
60.12
60.85
61.86
62.74
62.77
61.04
56.82
49.86
40.59
30.01
19.40
9.81
1.73
-5.07
-11.35
-18.04
-25.73
-34.40
-43.36
-51.63
-58.28
-62.92
-65.91
-68.25
-71.33
-76.56
-85.09
-97.38
-112.70
-128.83
-142.05
-147.99
-142.84
-124.87
-95.36
-58.32
-19.28
16.53
45.64
66.92
81.06
89.59
93.93
95.01
93.38
89.70
84.88
79.93
75.74
72.70
70.72
69.41
68.43
67.69
67.38
67.75
68.85
70.36
71.65
71.92
70.51
67.03
61.42
53.90
44.86
34.82
24.43
14.33
5.12
-2.81
-9.43
-15.08
-20.37
-25.95
-32.22
-39.14
-46.27
-52.99
-58.74
-63.31
-66.92
-70.20
-74.07
-79.53
-87.63
-99.09
-113.87
-130.59
-146.26
-156.66
-157.50
-145.92
-121.74
-87.76
-48.88
-10.48
23.17
49.84
69.25
82.28
90.09
93.59
93.43
90.34
85.32
79.63
74.43
70.50
68.06
66.89
66.55
66.72
67.31
68.47
70.34
72.80
75.41
77.36
77.79
76.04
71.95
65.97
58.93
51.80
45.25
39.40
33.89
28.10
21.57
14.30
6.78
-0.30
-6.40
-11.49
-16.04
-20.81
-26.37
-32.84
-39.78
-46.47
-52.25
-56.83
-60.50
-63.98
-68.31
-74.59
-83.81
-96.47
-111.97
-128.23
-141.59
-147.49
-142.00
-123.31
-92.75
-54.54
-14.46
22.06
51.38
72.29
85.42
92.29
94.37
92.75
88.24
81.75
74.32
67.06
60.85
56.12
52.89
50.90
49.92
49.85
50.70
52.42
54.70
56.94
58.34
58.15
56.02
52.08
46.91
41.24
35.62
30.19
24.75
18.92
12.44
5.38
-1.88
-8.74
-14.71
-19.63
-23.75
-27.62
-31.86
-36.76
-42.25
-47.89
-53.06
-57.33
-60.73
-63.78
-67.44
-72.86
-81.18
-93.18
-108.73
-126.25
-142.52
-153.04
-153.26
-140.27
-113.93
-77.39
-36.05
4.15
38.49
64.57
82.18
92.53
97.19
97.45
94.23
88.40
80.96
73.12
66.02
60.50
56.97
55.33
55.30
56.52
58.74
61.74
65.24
68.71
71.43
72.57
71.45
67.88
62.16
55.02
47.31
39.65
32.29
25.13
17.92
10.55
3.15
-4.00
-10.58
-16.55
-22.19
-28.01
-34.51
-41.91
-50.02
-58.30
-66.10
-72.97
-78.79
-84.00
-89.39
-96.05
-105.11
-117.38
-132.64
-149.20
-163.55
-171.00
-167.06
-149.10
-117.64
-76.61
-32.12
9.52
43.68
68.45
84.34
93.13
96.73
96.41
92.83
86.64
78.81
70.66
63.56
58.43
55.52
54.44
54.51
55.12
55.97
57.02
58.30
59.75
61.00
61.46
60.56
57.94
53.59
47.86
41.18
33.98
26.49
18.75
10.80
2.73
-5.16
-12.53
-19.17
-25.18
-30.88
-36.79
-43.27
-50.29
-57.49
-64.21
-69.87
-74.20
-77.40
-80.23
-83.81
-89.46
-98.31
-110.72
-125.66
-140.32
-150.37
-151.05
-138.80
-112.81
-75.62
-32.50
10.25
47.27
75.53
94.47
105.36
110.03
110.12
106.69
100.62
92.82
84.54
77.08
71.47
68.26
67.38
68.38
70.63
73.58
76.89
80.40
83.98
87.52
90.72
93.14
94.30
93.70
91.12
86.67
80.88
74.48
68.22
62.58
57.57
52.82
47.73
41.74
34.56
26.43
17.87
9.56
1.97
-4.93
-11.66
-18.95
-27.52
-37.81
-49.90
-63.68
-78.60
-93.39
-105.58
-111.58
-107.44
-90.30
-59.82
-18.87
27.05
71.56
109.45
137.93
156.81
167.48
171.55
170.02
163.23
151.57
136.14
118.91
102.25
88.04
76.97
68.40
60.86
52.99
44.13
34.60
25.18
16.42
8.12
-0.76
-11.61
-25.33
-41.87
-60.11
-78.38
-95.19
-109.91
-122.98
-135.57
-148.95
-163.77
-179.62
-195.17
-208.56
-218.21
-223.36
-224.52
-223.33
-222.14
-223.26
-228.34
-237.56
-249.25
-259.75
-264.08
-257.06
-234.98
-197.14
-146.44
-88.87
-31.86
17.88
56.05
81.37
95.05
99.69
97.93
91.98
83.51
73.99
64.85
57.39
52.48
50.22
49.93
50.45
50.73
50.30
49.43
48.91
49.56
51.64
54.56
57.04
57.52
54.89
48.98
40.56
31.05
21.83
13.63
6.27
-1.15
-9.77
-20.25
-32.42
-45.20
-57.13
-66.89
-73.93
-78.67
-82.44
-87.14
-94.74
-106.75
-123.47
-143.40
-162.89
-176.50
-178.46
-164.47
-133.67
-89.25
-37.73
13.16
56.93
90.04
112.16
125.17
131.52
133.09
130.84
125.25
117.06
107.59
98.52
91.37
86.87
84.86
84.41
84.51
84.48
84.21
84.05
84.44
85.57
87.03
87.93
87.13
83.64
76.98
67.43
56.00
44.08
32.99
23.49
15.51
8.25
0.51
-8.76
-20.00
-32.79
-46.07
-58.52
-69.10
-77.44
-84.03
-90.02
-96.89
-106.12
-118.84
-135.35
-154.61
-173.80
-188.40
-193.07
-183.31
-157.28
-116.96
-67.84
-17.41
27.35
61.80
84.51
96.65
100.71
99.13
93.66
85.46
75.56
65.26
56.02
49.11
45.20
44.15
45.09
46.90
48.66
49.95
50.79
51.43
51.96
52.12
51.35
48.96
44.46
37.73
29.09
19.16
8.72
-1.43
-10.51
-17.94
-23.42
-27.04
-29.37
-31.37
-34.10
-38.43
-44.62
-52.30
-60.56
-68.29
-74.70
-79.52
-83.25
-86.98
-92.19
-100.28
-112.17
-127.52
-144.23
-158.33
-164.56
-157.89
-135.40
-97.63
-48.90
3.83
53.17
93.45
122.00
139.11
146.90
147.88
143.92
136.16
125.37
112.69
99.79
88.65
80.84
77.03
76.65
78.30
80.43
81.96
82.63
82.85
83.09
83.35
82.89
80.48
74.99
66.06
54.41
41.72
29.96
20.57
13.90
9.08
4.43
-1.75
-10.41
-21.42
-33.59
-45.35
-55.34
-62.98
-68.70
-73.66
-79.49
-87.83
-99.93
-116.10
-135.17
-154.06
-168.15
-172.26
-162.39
-137.37
-99.65
-54.72
-9.38
30.34
60.79
81.08
92.32
96.42
95.05
89.34
80.19
68.70
56.45
45.24
36.64
31.51
29.76
30.56
32.73
35.27
37.68
40.01
42.54
45.35
48.02
49.56
48.76
44.57
36.71
25.80
13.30
1.02
-9.47
-17.45
-23.25
-28.05
-33.43
-40.58
-49.83
-60.44
-70.91
-79.64
-85.54
-88.59
-89.83
-91.08
-94.46
-101.77
-113.87
-130.02
-147.51
-161.75
-167.17
-158.85
-134.35
-94.93
-45.59
6.45
53.96
91.79
117.96
133.22
139.90
140.42
136.51
129.19
119.29
107.90
96.52
86.67
79.47
75.28
73.70
73.85
74.81
75.92
76.94
77.84
78.74
79.54
79.87
79.07
76.43
71.39
63.82
54.10
43.03
31.65
20.90
11.41
3.25
-4.00
-11.06
-18.73
-27.50
-37.37
-47.84
-58.08
-67.26
-74.95
-81.27
-86.94
-93.08
-100.95
-111.70
-126.04
-143.66
-162.69
-179.47
-188.96
-186.07
-167.45
-133.07
-86.64
-34.77
15.16
57.19
88.21
108.15
118.91
123.03
122.46
118.37
111.47
102.61
93.01
84.24
77.57
73.64
72.18
72.26
72.83
73.22
73.37
73.69
74.66
76.35
78.24
79.28
78.30
74.45
67.55
58.12
47.27
36.25
26.13
17.55
10.53
4.62
-1.01
-7.21
-14.56
-23.13
-32.56
-42.17
-51.28
-59.53
-67.09
-74.57
-82.94
-93.34
-106.71
-123.39
-142.54
-161.66
-176.59
-182.36
-174.73
-151.91
-115.61
-70.84
-24.35
17.52
50.60
73.55
87.31
93.78
94.69
91.14
83.78
73.43
61.29
48.95
37.94
29.30
23.33
19.66
17.53
16.12
14.70
12.68
9.53
4.72
-2.26
-11.90
-24.53
-40.18
-58.71
-79.66
-102.25
-125.69
-149.21
-172.35
-195.23
-218.48
-242.84
-268.42
-294.37
-319.13
-341.18
-359.66
-374.67
-386.61
-395.44
-400.23
-399.55
-392.42
-379.14
-361.43
-341.57
-321.33
-301.22
-280.64
-258.83
-235.75
-212.30
-189.94
-169.78
-152.02
-136.17
-121.37
-106.86
-92.42
-78.30
-64.98
-52.85
-42.04
-32.40
-23.54
-14.99
-6.42
2.25
10.87
19.07
26.46
32.80
38.12
42.76
47.28
52.29
58.20
65.07
72.57
80.11
87.09
93.19
98.60
103.95
110.11
117.81
127.25
138.03
149.24
159.97
169.68
178.53
187.32
197.13
208.91
223.20
240.17
259.61
280.72
301.94
320.98
335.28
343.14
344.74
342.43
339.95
340.70
346.04
354.49
362.52
366.18
362.98
352.69
337.00
318.21
298.05
277.16
255.40
232.68
209.59
187.40
167.73
151.82
139.91
131.20
124.24
117.54
110.24
102.33
94.48
87.48
81.70
76.71
71.45
64.69
55.65
44.43
31.98
19.78
9.18
0.84
-5.55
-11.05
-17.03
-24.46
-33.55
-43.58
-53.32
-61.48
-67.30
-70.86
-73.06
-75.34
-79.26
-86.04
-96.18
-108.97
-122.27
-132.57
-135.74
-128.21
-108.34
-77.30
-39.00
1.03
37.30
65.92
85.34
96.15
100.12
99.19
94.87
88.12
79.74
70.66
61.99
54.86
49.95
47.33
46.44
46.44
46.61
46.67
46.80
47.34
48.37
49.42
49.61
47.87
43.53
36.65
28.01
18.83
10.28
2.92
-3.47
-9.73
-16.84
-25.47
-35.54
-46.24
-56.39
-64.90
-71.22
-75.58
-78.93
-82.67
-88.30
-96.91
-108.68
-122.42
-135.37
-143.58
-143.01
-130.88
-106.87
-73.53
-35.58
1.55
33.40
57.46
73.34
82.06
85.13
83.85
79.17
71.92
63.09
53.94
45.74
39.44
35.44
33.50
32.98
33.19
33.71
34.53
35.90
38.01
40.65
43.05
44.02
42.42
37.64
29.94
20.44
10.67
2.02
-4.89
-10.35
-15.38
-21.22
-28.67
-37.73
-47.60
-57.05
-64.93
-70.72
-74.71
-77.89
-81.70
-87.65
-96.83
-109.50
-124.61
-139.50
-150.15
-152.12
-141.95
-118.64
-84.33
-43.86
-3.21
32.31
59.57
77.89
88.48
93.21
93.71
91.01
85.79
78.77
71.02
63.74
57.97
54.21
52.32
51.64
51.41
51.07
50.42
49.55
48.72
48.04
47.35
46.20
43.92
39.90
33.80
25.74
16.37
6.67
-2.31
-9.83
-15.76
-20.70
-25.64
-31.63
-39.21
-48.20
-57.70
-66.47
-73.50
-78.38
-81.51
-84.00
-87.30
-92.86
-101.64
-113.77
-128.02
-141.72
-150.90
-151.35
-139.93
-115.85
-81.34
-41.07
-0.80
34.42
61.51
79.71
90.02
94.16
93.75
89.93
83.61
75.69
67.31
59.72
53.88
50.26
48.67
48.42
48.67
48.83
48.68
48.40
48.27
48.38
48.48
47.94
45.99
41.97
35.63
27.23
17.49
7.46
-1.90
-9.93
-16.55
-22.25
-27.88
-34.26
-41.77
-50.12
-58.40
-65.48
-70.47
-73.18
-74.20
-74.76
-76.36
-80.40
-87.76
-98.53
-111.56
-124.39
-133.40
-134.65
-125.08
-103.74
-72.37
-35.11
2.72
36.20
62.07
79.12
87.92
90.00
87.09
80.79
72.47
63.37
54.62
47.12
41.42
37.68
35.73
35.20
35.73
37.10
39.15
41.68
44.34
46.53
47.53
46.70
43.72
38.75
32.36
25.35
18.42
11.95
5.83
-0.34
-7.06
-14.62
-22.87
-31.31
-39.22
-46.07
-51.80
-56.99
-62.78
-70.55
-81.37
-95.35
-111.14
-125.79
-135.27
-135.56
-124.05
-100.66
-68.07
-31.04
5.11
36.00
59.22
74.38
82.49
85.04
83.35
78.45
71.24
62.79
54.36
47.25
42.38
40.00
39.71
40.63
41.81
42.65
43.14
43.68
44.71
46.24
47.61
47.60
44.96
39.02
30.11
19.52
9.03
0.14
-6.52
-11.47
-16.01
-21.65
-29.33
-39.01
-49.66
-59.80
-68.08
-73.89
-77.59
-80.38
-83.88
-89.58
-98.49
-110.77
-125.36
-139.79
-150.36
-152.86
-143.87
-122.10
-89.20
-49.57
-9.00
27.09
55.20
74.32
85.40
90.33
90.89
88.27
83.32
76.88
70.05
64.08
59.90
57.78
57.27
57.40
57.25
56.40
55.08
53.97
53.74
54.62
56.09
57.01
56.04
52.17
45.17
35.67
25.02
14.71
5.88
-1.15
-6.86
-12.30
-18.51
-25.99
-34.53
-43.26
-51.12
-57.39
-61.90
-65.22
-68.35
-72.49
-78.75
-87.90
-99.85
-113.35
-125.73
-133.21
-131.96
-119.40
-95.38
-62.57
-25.64
10.18
40.70
63.71
78.97
87.47
90.57
89.44
85.01
78.20
70.12
62.03
54.98
49.59
45.89
43.55
42.16
41.48
41.55
42.48
44.22
46.31
47.95
48.11
46.01
41.41
34.71
26.86
18.89
11.52
4.83
-1.67
-8.66
-16.60
-25.41
-34.46
-42.84
-49.85
-55.29
-59.52
-63.44
-68.11
-74.66
-83.81
-95.52
-108.48
-119.91
-126.00
-122.98
-108.51
-82.88
-49.12
-12.16
22.75
51.69
72.86
86.37
93.49
95.57
93.69
88.59
81.06
72.22
63.42
55.93
50.53
47.28
45.65
44.87
44.35
43.90
43.74
44.24
45.47
47.04
48.03
47.37
44.23
38.45
30.69
22.11
13.98
7.07
1.41
-3.67
-9.23
-16.10
-24.48
-33.86
-43.12
-51.12
-57.18
-61.38
-64.62
-68.29
-73.94
-82.77
-95.15
-110.11
-125.04
-135.93
-138.27
-128.52
-105.53
-71.26
-30.41
11.06
47.80
76.41
95.89
107.07
111.56
110.93
106.38
98.88
89.45
79.33
69.76
61.78
55.95
52.32
50.54
50.04
50.31
50.91
51.66
52.43
53.10
53.44
53.00
51.21
47.50
41.51
33.25
23.21
12.20
1.26
-8.69
-17.09
-23.92
-29.72
-35.34
-41.57
-48.81
-56.87
-65.02
-72.34
-78.12
-82.23
-85.21
-88.09
-92.15
-98.58
-108.22
-121.16
-136.30
-151.07
-161.52
-163.22
-152.62
-128.54
-92.92
-50.52
-7.40
30.82
60.57
80.75
92.30
97.10
97.01
93.35
87.10
79.20
70.76
63.04
57.13
53.56
52.26
52.53
53.47
54.35
54.77
54.80
54.68
54.63
54.61
54.25
52.96
50.10
45.22
38.23
29.55
19.93
10.37
1.75
-5.41
-11.15
-16.10
-21.14
-27.17
-34.59
-43.22
-52.24
-60.59
-67.37
-72.23
-75.55
-78.33
-81.87
-87.45
-95.97
-107.62
-121.46
-135.16
-145.12
-147.18
-137.90
-116.01
-83.15
-43.65
-3.21
32.87
61.18
80.69
92.20
97.29
97.44
93.68
86.87
78.07
68.67
60.17
53.74
49.85
48.27
48.25
49.01
50.05
51.24
52.65
54.29
55.89
56.75
55.91
52.57
46.45
38.02
28.42
19.02
10.88
4.31
-1.26
-6.88
-13.62
-21.91
-31.32
-40.80
-49.11
-55.45
-59.78
-62.86
-66.03
-70.81
-78.46
-89.49
-103.25
-117.54
-128.78
-132.75
-125.87
-106.61
-76.32
-39.02
-0.22
34.86
62.74
82.27
94.15
99.96
101.12
98.55
92.80
84.62
75.11
65.77
58.03
52.72
49.88
48.86
48.73
48.77
48.75
48.87
49.50
50.73
52.12
52.78
51.63
47.87
41.36
32.68
23.04
13.74
5.79
-0.59
-5.95
-11.37
-17.92
-26.13
-35.72
-45.70
-54.87
-62.34
-67.93
-72.16
-76.12
-81.05
-88.09
-97.95
-110.52
-124.47
-137.01
-144.22
-142.07
-127.87
-101.48
-65.73
-25.70
12.97
45.73
70.25
86.37
95.36
98.79
97.83
93.21
85.51
75.64
64.95
55.01
47.13
41.90
39.07
37.68
36.63
35.15
33.08
30.72
28.45
26.27
23.52
19.06
11.68
0.69
-13.79
-30.70
-48.33
-64.81
-78.52
-88.53
-94.78
-97.99
-99.44
-100.58
-102.57
-106.04
-111.07
-117.30
-124.30
-131.82
-139.90
-148.90
-159.46
-172.26
-187.79
-205.75
-224.49
-240.89
-250.79
-250.07
-235.98
-208.22
-169.04
-122.77
-74.43
-28.57
11.57
44.20
68.79
85.63
95.47
99.45
98.91
95.31
90.10
84.61
79.97
77.05
76.48
78.52
83.07
89.58
97.18
104.79
111.30
115.83
117.88
117.39
114.65
110.09
104.06
96.79
88.39
78.92
68.57
57.68
46.62
35.74
25.17
14.80
4.28
-6.88
-19.26
-33.44
-49.85
-68.45
-88.19
-106.63
-120.09
-124.40
-116.23
-94.37
-60.47
-18.66
25.62
67.18
102.26
128.87
146.47
155.32
156.03
149.58
137.56
122.28
106.51
92.87
83.16
77.93
76.51
77.46
79.21
80.53
80.80
79.98
78.40
76.45
74.31
71.75
68.12
62.49
54.07
42.46
28.03
11.81
-4.77
-20.42
-34.42
-46.82
-58.36
-70.18
-83.43
-99.01
-117.21
-137.25
-156.99
-172.99
-181.17
-178.06
-162.09
-134.35
-98.45
-59.32
-21.72
11.04
37.57
57.99
73.20
84.05
91.12
94.72
95.23
93.28
89.81
85.92
82.72
81.03
81.26
83.35
86.92
91.32
95.82
99.64
101.91
101.76
98.53
91.96
82.38
70.63
57.79
44.86
32.57
21.34
11.46
3.07
-3.97
-10.27
-16.96
-25.54
-37.41
-53.47
-73.72
-96.97
-120.74
-141.35
-154.47
-156.16
-144.29
-119.50
-85.39
-47.50
-11.53
18.35
40.43
55.16
64.07
68.60
69.54
67.15
61.72
53.97
45.09
36.41
28.91
23.03
18.75
15.79
13.85
12.77
12.38
12.41
12.46
12.00
10.51
7.57
2.97
-3.35
-11.23
-20.21
-29.45
-37.73
-43.77
-46.57
-45.91
-42.51
-37.89
-33.87
-32.10
-33.71
-39.27
-48.78
-61.58
-76.04
-89.33
-97.68
-97.33
-85.89
-63.47
-32.85
1.32
34.17
62.10
83.38
97.96
106.56
109.89
108.35
102.22
92.09
79.14
65.03
51.51
40.07
31.63
26.48
24.25
24.23
25.43
26.92
27.97
28.11
27.13
24.95
21.55
16.80
10.52
2.49
-7.37
-18.88
-31.50
-44.51
-57.24
-69.47
-81.57
-94.42
-109.02
-126.17
-146.07
-168.33
-191.91
-215.12
-235.49
-249.95
-255.32
-249.23
-230.96
-201.93
-165.32
-124.97
-84.12
-44.63
-6.99
28.96
63.13
94.76
122.45
144.84
161.17
171.68
177.41
179.87
180.52
180.46
180.34
180.37
180.47
180.38
179.75
178.13
175.09
170.29
163.65
155.34
145.84
135.67
125.16
114.27
102.61
89.68
75.24
59.48
42.96
26.42
10.38
-5.01
-20.06
-35.29
-51.35
-68.78
-87.63
-106.99
-124.63
-137.01
-140.22
-131.29
-109.75
-78.16
-41.59
-5.90
24.19
46.38
60.84
69.25
73.50
74.76
73.40
69.42
63.10
55.21
46.89
39.25
32.97
28.25
24.83
22.32
20.44
19.14
18.58
18.92
20.10
21.66
22.75
22.30
19.44
13.85
5.96
-3.10
-11.90
-19.22
-24.48
-27.98
-30.72
-33.97
-38.72
-45.27
-53.15
-61.33
-68.68
-74.44
-78.50
-81.47
-84.39
-88.52
-94.98
-104.53
-117.11
-131.25
-143.89
-150.64
-147.06
-130.25
-100.35
-60.85
-17.62
23.06
56.50
80.70
96.12
104.57
107.89
107.27
103.35
96.76
88.59
80.35
73.53
69.04
66.91
66.38
66.44
66.25
65.55
64.55
63.72
63.32
63.28
63.04
61.83
58.82
53.47
45.65
35.66
24.29
12.54
1.50
-8.02
-15.72
-21.84
-27.13
-32.55
-38.87
-46.44
-54.98
-63.71
-71.65
-78.03
-82.57
-85.68
-88.31
-91.72
-97.14
-105.49
-116.97
-130.68
-144.17
-153.60
-154.47
-143.15
-118.43
-82.40
-40.05
2.27
38.96
66.76
85.12
95.39
99.57
99.24
95.28
88.32
79.22
69.35
60.30
53.31
48.84
46.52
45.49
44.92
44.49
44.44
45.34
47.54
50.82
54.18
56.14
55.31
50.95
43.31
33.53
23.20
13.71
5.74
-0.88
-6.99
-13.57
-21.27
-30.05
-39.23
-47.80
-54.87
-60.09
-63.82
-67.09
-71.36
-78.06
-88.12
-101.41
-116.24
-129.33
-136.29
-132.95
-116.82
-88.31
-50.94
-10.30
27.74
58.83
81.10
94.98
102.13
104.27
102.46
97.19
88.90
78.50
67.45
57.39
49.55
44.32
41.24
39.40
37.95
36.55
35.44
35.17
36.07
37.81
39.37
39.31
36.38
30.10
21.09
10.82
1.01
-7.01
-12.94
-17.49
-22.05
-27.93
-35.79
-45.24
-55.07
-63.82
-70.44
-74.70
-77.37
-79.82
-83.63
-90.19
-100.24
-113.49
-128.33
-141.64
-149.17
-146.66
-131.31
-103.07
-65.15
-23.12
16.82
49.77
73.33
87.70
94.65
96.25
94.02
88.75
80.93
71.36
61.26
52.11
45.10
40.66
38.42
37.56
37.22
36.99
36.98
37.58
39.06
41.14
43.00
43.37
41.08
35.44
26.64
15.67
4.10
-6.46
-14.94
-21.18
-25.93
-30.54
-36.34
-43.92
-52.93
-62.14
-70.10
-75.78
-79.08
-80.88
-82.72
-86.19
-92.55
-102.26
-114.75
-128.20
-139.41
-144.35
-139.08
-121.22
-91.11
-52.13
-9.80
29.88
62.31
85.36
99.29
105.81
106.88
103.99
98.02
89.66
79.80
69.62
60.44
53.24
48.45
45.93
45.13
45.48
46.50
47.99
49.88
52.07
54.22
55.73
55.82
53.70
48.91
41.37
31.54
20.27
8.69
-2.12
-11.33
-18.65
-24.36
-29.31
-34.51
-40.77
-48.31
-56.61
-64.65
-71.39
-76.22
-79.32
-81.53
-84.05
-88.09
-94.56
-103.88
-115.71
-128.66
-140.00
-145.88
-142.31
-126.55
-98.45
-61.00
-19.52
19.96
52.67
76.21
90.65
97.58
98.89
96.04
89.92
81.27
71.14
60.98
52.22
45.91
42.29
40.92
40.95
41.61
42.50
43.69
45.44
47.85
50.56
52.64
52.80
49.85
43.24
33.42
21.75
10.08
0.05
-7.59
-13.19
-18.03
-23.59
-30.86
-39.86
-49.64
-58.84
-66.29
-71.53
-75.04
-78.01
-81.97
-88.38
-98.16
-111.27
-126.29
-140.22
-148.79
-147.62
-133.74
-106.91
-70.16
-28.97
10.54
43.52
67.64
83.07
91.47
94.70
93.99
89.95
82.99
73.94
64.17
55.22
48.27
43.77
41.37
40.28
39.72
39.35
39.30
39.98
41.65
44.08
46.41
47.39
45.82
41.05
33.29
23.51
13.15
3.54
-4.50
-10.93
-16.34
-21.63
-27.56
-34.41
-41.93
-49.34
-55.81
-60.68
-63.83
-65.71
-67.29
-69.85
-74.73
-82.96
-94.75
-109.00
-122.85
-132.17
-132.45
-120.50
-95.80
-61.12
-21.68
16.53
48.65
72.23
87.29
95.40
98.43
97.75
94.05
87.78
79.64
70.77
62.57
56.22
52.29
50.68
50.77
51.79
53.14
54.57
56.01
57.48
58.80
59.60
59.37
57.62
54.01
48.49
41.19
32.49
22.87
12.93
3.28
-5.51
-13.10
-19.48
-24.98
-30.26
-35.95
-42.46
-49.72
-57.25
-64.35
-70.44
-75.36
-79.41
-83.30
-87.86
-93.98
-102.49
-113.73
-127.16
-140.76
-150.97
-153.37
-144.24
-122.09
-88.64
-48.45
-7.42
29.16
58.10
78.66
91.87
99.28
102.15
101.21
96.99
90.33
82.50
75.01
69.07
65.29
63.51
63.15
63.52
64.23
65.28
66.80
68.87
71.11
72.74
72.73
70.31
65.27
58.10
49.86
41.69
34.38
28.07
22.33
16.44
9.89
2.65
-4.80
-11.71
-17.56
-22.32
-26.51
-30.95
-36.29
-42.71
-49.77
-56.66
-62.55
-67.07
-70.37
-73.24
-76.82
-82.39
-91.01
-103.01
-117.42
-131.61
-141.50
-142.58
-131.44
-107.24
-72.33
-31.66
8.90
44.39
72.04
91.39
103.54
109.99
111.93
110.08
105.05
97.80
89.68
82.20
76.56
73.33
72.39
73.06
74.65
76.62
78.85
81.32
83.91
86.12
87.12
85.96
81.96
75.11
66.02
55.79
45.52
35.96
27.28
19.08
10.71
1.70
-7.91
-17.54
-26.27
-33.33
-38.47
-42.21
-45.58
-49.73
-55.33
-62.38
-70.11
-77.49
-83.59
-88.09
-91.44
-94.68
-99.20
-106.31
-116.78
-130.29
-144.91
-157.06
-162.07
-155.53
-135.02
-101.28
-58.40
-12.59
29.81
64.29
89.05
104.76
113.29
116.56
115.79
111.72
104.99
96.58
87.77
79.76
73.34
68.61
65.28
62.87
61.14
60.18
60.26
61.54
63.74
66.03
67.26
66.31
62.61
56.35
48.42
40.04
32.15
25.06
18.44
11.57
3.88
-4.69
-13.60
-21.95
-28.98
-34.39
-38.59
-42.40
-46.75
-52.16
-58.63
-65.61
-72.41
-78.45
-83.58
-88.16
-92.96
-98.98
-107.21
-118.23
-131.69
-145.78
-157.07
-160.99
-153.25
-131.44
-96.44
-52.45
-5.88
36.74
70.76
94.35
108.24
114.51
115.27
111.98
105.45
96.42
85.87
75.19
65.73
58.43
53.59
50.98
50.04
50.29
51.41
53.17
55.35
57.57
59.23
59.61
58.11
54.37
48.44
40.71
31.79
22.34
12.85
3.65
-5.05
-13.07
-20.21
-26.31
-31.51
-36.21
-41.12
-46.89
-53.82
-61.59
-69.37
-76.18
-81.38
-84.97
-87.73
-90.89
-95.81
-103.55
-114.58
-128.27
-142.62
-154.13
-158.38
-151.22
-130.38
-96.70
-54.28
-9.31
31.90
64.82
87.74
101.42
107.88
109.14
106.42
100.35
91.49
80.91
70.14
60.79
53.95
49.85
47.98
47.39
47.33
47.47
47.99
49.21
51.29
53.84
55.94
56.31
53.85
48.04
39.20
28.39
17.09
6.64
-2.11
-9.09
-14.91
-20.56
-26.95
-34.51
-43.04
-51.74
-59.58
-65.77
-70.08
-73.00
-75.58
-79.14
-84.84
-93.48
-105.11
-118.72
-131.96
-141.21
-142.34
-132.02
-109.10
-75.44
-35.61
4.55
39.77
66.82
84.94
95.24
99.46
99.14
95.20
88.36
79.49
69.89
61.01
54.11
49.76
47.79
47.55
48.24
49.38
50.90
52.94
55.54
58.30
60.29
60.27
57.20
50.68
41.37
30.67
20.28
11.43
4.35
-1.80
-8.45
-16.81
-27.21
-38.83
-50.13
-59.55
-66.22
-70.45
-73.53
-77.24
-83.32
-92.83
-105.81
-120.91
-135.16
-144.44
-144.36
-131.75
-106.03
-69.82
-28.33
12.29
46.81
72.37
88.61
96.96
99.42
97.67
92.75
85.39
76.37
66.70
57.48
49.61
43.56
39.41
36.98
36.04
36.37
37.71
39.61
41.35
42.00
40.69
36.93
30.82
23.08
14.71
6.64
-0.69
-7.48
-14.34
-21.97
-30.67
-40.22
-49.87
-58.68
-65.93
-71.42
-75.66
-79.79
-85.30
-93.62
-105.47
-120.19
-135.32
-146.80
-149.88
-140.79
-118.20
-84.12
-43.40
-2.23
33.89
61.67
80.49
91.70
97.38
99.18
97.95
93.97
87.61
79.82
72.04
65.80
62.12
61.10
61.98
63.45
64.31
63.84
62.04
59.46
56.81
54.56
52.66
50.51
47.22
41.93
34.22
24.28
12.87
0.98
-10.50
-21.16
-31.20
-41.26
-52.16
-64.69
-79.36
-96.39
-115.51
-135.71
-154.96
-170.29
-178.40
-176.70
-164.54
-143.73
-118.14
-92.40
-70.21
-53.13
-40.58
-30.77
-22.12
-14.26
-8.06
-4.77
-4.89
-7.59
-10.85
-12.47
-11.10
-6.90
-1.35
3.55
6.31
6.52
4.85
2.42
0.00
-2.51
-6.11
-12.09
-21.39
-33.98
-48.92
-64.69
-79.86
-93.60
-105.80
-116.99
-127.97
-139.62
-152.68
-167.58
-184.12
-201.13
-216.38
-226.80
-229.47
-222.58
-206.18
-182.22
-153.78
-123.89
-94.70
-67.14
-41.18
-16.47
7.26
30.27
53.13
76.80
102.32
130.03
158.77
185.82
207.59
220.98
224.55
219.15
207.46
192.85
178.26
165.40
154.69
145.77
137.93
130.44
122.59
113.74
103.33
91.12
77.30
62.35
46.81
30.98
14.72
-2.61
-21.81
-43.29
-66.47
-89.33
-108.45
-119.76
-119.72
-106.66
-81.53
-47.78
-10.33
25.93
57.46
82.54
101.07
113.72
121.17
123.88
122.25
117.02
109.53
101.54
94.81
90.57
89.10
89.78
91.52
93.16
94.07
94.19
93.88
93.48
92.92
91.53
88.24
82.05
72.50
59.98
45.70
31.21
17.82
6.10
-4.26
-14.34
-25.61
-39.43
-56.70
-77.35
-99.96
-121.68
-138.45
-145.99
-141.08
-122.76
-92.75
-55.12
-14.92
23.16
55.93
81.95
101.11
113.95
121.13
123.24
120.97
115.32
107.60
99.31
91.83
86.07
82.29
80.12
78.81
77.59
75.98
73.92
71.65
69.44
67.26
64.59
60.59
54.32
45.15
33.09
18.79
3.38
-11.88
-26.06
-38.75
-50.17
-60.96
-71.99
-84.16
-98.27
-114.73
-133.23
-152.27
-169.00
-179.54
-180.02
-167.85
-142.81
-107.30
-65.71
-23.04
16.44
50.02
76.74
96.80
110.95
120.00
124.62
125.51
123.49
119.57
114.79
110.12
106.22
103.42
101.74
101.03
101.09
101.70
102.62
103.54
104.00
103.44
101.24
96.86
89.95
80.42
68.43
54.44
39.08
23.09
7.16
-8.22
-22.78
-36.53
-49.67
-62.61
-75.91
-90.32
-106.49
-124.62
-143.85
-162.05
-175.85
-181.48
-175.86
-157.77
-128.34
-90.88
-49.83
-9.54
26.67
56.99
80.82
98.40
110.25
117.00
119.43
118.48
115.28
111.01
106.61
102.67
99.38
96.60
94.09
91.68
89.29
86.98
84.79
82.67
80.35
77.40
73.29
67.55
59.96
50.61
39.94
28.69
17.70
7.71
-0.95
-8.45
-15.40
-22.69
-31.08
-40.82
-51.57
-62.51
-72.68
-81.46
-88.82
-95.24
-101.65
-109.05
-118.34
-130.01
-143.81
-158.32
-170.98
-178.36
-177.06
-164.78
-141.25
-108.41
-69.95
-30.20
7.00
39.00
64.46
83.16
95.47
102.14
104.10
102.47
98.50
93.42
88.29
83.83
80.35
77.78
75.92
74.54
73.53
72.91
72.67
72.65
72.48
71.56
69.28
65.27
59.50
52.42
44.66
36.91
29.57
22.67
15.91
8.90
1.39
-6.52
-14.45
-21.90
-28.60
-34.65
-40.56
-47.01
-54.53
-63.20
-72.61
-81.96
-90.44
-97.52
-103.15
-107.78
-112.30
-117.85
-125.62
-136.36
-149.86
-164.45
-176.93
-183.09
-178.97
-162.28
-133.40
-95.60
-54.03
-14.18
19.72
45.65
63.79
75.80
83.76
89.36
93.61
96.95
99.61
101.92
104.28
107.09
110.46
114.18
117.93
121.40
124.47
127.12
129.13
129.87
128.28
123.28
114.26
101.54
86.29
70.15
54.53
40.21
27.30
15.49
4.52
-5.74
-15.33
-24.40
-33.39
-42.89
-53.26
-64.35
-75.48
-85.71
-94.29
-101.07
-106.55
-111.68
-117.70
-125.78
-136.69
-150.36
-165.40
-178.96
-187.07
-185.77
-172.42
-146.81
-111.41
-70.61
-29.30
8.46
40.22
65.17
83.48
95.67
102.32
104.02
101.62
96.31
89.50
82.54
76.37
71.45
67.76
64.97
62.83
61.26
60.42
60.47
61.39
62.73
63.77
63.61
61.57
57.32
50.95
42.88
33.67
23.93
14.20
4.92
-3.57
-11.09
-17.74
-23.84
-29.93
-36.53
-43.96
-52.14
-60.61
-68.72
-75.91
-81.97
-87.16
-92.13
-97.81
-105.18
-114.91
-126.92
-139.89
-151.11
-156.91
-153.66
-139.12
-113.35
-78.93
-40.12
-1.56
33.04
61.51
83.16
98.20
107.17
110.71
109.52
104.55
97.00
88.16
79.22
71.07
64.21
58.82
54.84
52.12
50.46
49.67
49.54
49.84
50.24
50.34
49.69
47.79
44.30
39.05
32.17
24.13
15.56
7.13
-0.63
-7.54
-13.68
-19.41
-25.18
-31.38
-38.22
-45.65
-53.38
-60.95
-67.94
-74.07
-79.40
-84.33
-89.61
-96.20
-104.94
-116.16
-129.15
-141.93
-151.36
-153.85
-146.48
-128.02
-99.54
-64.16
-26.17
10.16
41.54
66.12
83.31
93.46
97.41
96.24
91.20
83.68
75.08
66.57
58.93
52.50
47.23
42.88
39.31
36.58
34.94
34.62
35.55
37.27
38.87
39.29
37.63
33.42
26.85
18.62
9.75
1.12
-6.76
-13.91
-20.81
-28.06
-36.08
-44.82
-53.82
-62.32
-69.66
-75.56
-80.26
-84.49
-89.33
-95.86
-104.81
-115.96
-127.93
-138.06
-142.98
-139.54
-125.90
-102.25
-70.92
-35.61
-0.38
31.44
57.74
77.71
91.37
99.20
101.81
99.94
94.46
86.43
77.03
67.46
58.77
51.69
46.64
43.63
42.37
42.27
42.67
42.93
42.49
41.04
38.43
34.63
29.61
23.36
15.81
6.94
-3.14
-14.20
-25.80
-37.45
-48.63
-58.91
-68.06
-76.11
-83.39
-90.54
-98.42
-107.89
-119.34
-132.25
-144.85
-154.28
-157.20
-150.78
-133.75
-106.87
-72.83
-35.51
1.09
33.80
60.68
81.01
94.97
103.15
106.30
105.23
100.85
94.19
86.35
78.36
71.05
64.90
60.09
56.52
53.99
52.23
50.96
49.83
48.38
46.07
42.46
37.34
30.76
23.03
14.52
5.51
-3.93
-13.82
-24.18
-34.79
-45.20
-54.88
-63.44
-70.83
-77.47
-84.20
-92.14
-102.25
-114.95
-129.58
-144.20
-155.72
-160.64
-156.02
-140.51
-114.82
-81.59
-44.56
-7.59
26.25
55.05
77.92
94.74
105.75
111.41
112.45
109.87
104.86
98.70
92.51
87.04
82.61
79.23
76.76
75.10
74.20
74.11
74.68
75.52
75.88
74.85
71.61
65.72
57.37
47.31
36.60
26.18
16.57
7.67
-1.10
-10.46
-20.90
-32.35
-44.28
-55.86
-66.31
-75.29
-82.93
-89.89
-97.20
-106.02
-117.22
-130.93
-146.13
-160.44
-170.48
-172.67
-164.33
-144.59
-114.78
-78.11
-38.69
-0.46
33.58
61.73
83.41
98.77
108.35
112.87
113.21
110.39
105.58
99.94
94.49
89.88
86.34
83.67
81.51
79.50
77.53
75.80
74.56
73.86
73.32
72.13
69.31
64.14
56.45
46.79
36.18
25.75
16.30
8.00
0.46
-7.06
-15.23
-24.42
-34.46
-44.80
-54.69
-63.48
-70.93
-77.29
-83.27
-89.96
-98.48
-109.70
-123.73
-139.57
-154.90
-166.40
-170.42
-164.03
-146.07
-117.60
-81.72
-42.73
-4.85
28.68
56.10
76.97
91.70
100.92
105.30
105.50
102.36
97.03
90.89
85.32
81.36
79.48
79.57
81.08
83.32
85.71
87.83
89.50
90.52
90.54
89.02
85.31
78.91
69.81
58.58
46.30
34.21
23.23
13.68
5.14
-3.26
-12.37
-22.66
-33.91
-45.41
-56.21
-65.63
-73.47
-80.17
-86.59
-93.83
-102.94
-114.56
-128.72
-144.48
-159.84
-171.90
-177.38
-173.50
-158.84
-133.93
-101.27
-64.64
-28.17
4.70
31.78
52.23
66.24
74.67
78.62
79.34
78.15
76.33
75.00
74.89
76.16
78.47
81.28
84.12
86.91
89.98
93.90
99.17
105.86
113.52
121.18
127.61
131.64
132.54
130.22
125.21
118.40
110.63
102.27
93.08
82.42
69.60
54.46
37.61
20.32
4.03
-10.26
-22.48
-33.39
-44.10
-55.43
-67.40
-79.27
-89.98
-98.80
-105.85
-112.15
-119.27
-128.76
-141.53
-157.37
-174.76
-190.98
-202.50
-205.80
-198.20
-178.74
-148.50
-110.34
-68.23
-26.29
12.06
44.49
69.85
87.96
99.36
105.08
106.44
104.86
101.69
98.02
94.65
91.95
90.03
88.83
88.25
88.27
88.91
90.19
91.98
93.88
95.18
95.02
92.62
87.54
79.93
70.44
59.99
49.46
39.42
29.97
20.88
11.83
2.67
-6.43
-15.05
-22.70
-29.10
-34.35
-38.99
-43.81
-49.60
-56.83
-65.44
-74.85
-84.21
-92.70
-99.90
-105.91
-111.42
-117.56
-125.55
-136.16
-149.22
-163.14
-174.98
-181.00
-177.67
-162.85
-136.55
-101.07
-60.36
-18.89
19.43
51.99
77.53
95.93
107.72
113.72
114.94
112.49
107.57
101.39
95.01
89.20
84.37
80.66
78.03
76.42
75.75
75.90
76.62
77.49
77.92
77.38
75.47
72.00
67.02
60.69
53.20
44.77
35.67
26.28
17.09
8.54
0.89
-5.87
-12.09
-18.30
-25.06
-32.68
-41.09
-49.92
-58.51
-66.34
-73.08
-78.87
-84.24
-90.10
-97.41
-106.94
-118.88
-132.40
-145.54
-155.33
-158.49
-152.30
-135.55
-109.02
-75.37
-38.34
-1.84
30.96
58.09
78.72
92.93
101.30
104.63
103.81
99.87
93.92
87.13
80.66
75.44
72.04
70.55
70.67
71.83
73.40
74.86
75.85
76.18
75.70
74.25
71.53
67.21
60.97
52.77
42.86
31.92
20.87
10.65
1.83
-5.55
-12.03
-18.48
-25.73
-34.19
-43.68
-53.49
-62.76
-70.81
-77.45
-83.05
-88.39
-94.44
-102.15
-112.13
-124.45
-138.22
-151.49
-161.27
-164.24
-157.65
-140.34
-113.32
-79.59
-43.29
-8.52
21.66
45.64
63.14
74.72
81.28
83.74
82.94
79.70
74.85
69.24
63.81
59.56
57.41
58.14
62.05
68.83
77.51
86.80
95.44
102.58
107.85
111.18
112.56
111.94
109.36
105.03
99.41
92.93
85.63
77.00
66.24
52.85
37.21
20.70
5.18
-7.84
-17.99
-26.09
-33.68
-42.11
-51.90
-62.59
-73.10
-82.48
-90.33
-96.99
-103.41
-110.73
-119.97
-131.59
-145.13
-158.96
-170.33
-175.88
-172.52
-158.51
-134.04
-101.38
-64.16
-26.48
8.16
37.33
59.89
75.71
85.35
89.81
90.26
87.97
84.12
79.78
75.72
72.42
70.02
68.41
67.40
66.83
66.64
66.89
67.61
68.63
69.48
69.51
68.02
64.60
59.24
52.31
44.40
35.99
27.38
18.59
9.61
0.53
-8.32
-16.47
-23.50
-29.27
-34.06
-38.49
-43.27
-48.95
-55.66
-63.10
-70.68
-77.82
-84.21
-89.98
-95.73
-102.40
-111.02
-122.33
-136.35
-151.96
-166.67
-176.90
-178.80
-169.43
-147.85
-115.70
-76.86
-36.36
1.05
32.02
55.10
70.42
79.00
82.13
80.94
