1543611427.00
64.000000
-0.00
-0.00
-0.00
-0.00
-0.00
-0.00
-0.00
-0.00
-0.00
-0.00
0.00
0.01
0.01
-0.00
-0.03
-0.05
-0.05
0.00
0.13
0.36
0.66
1.01
1.37
1.72
2.06
2.40
2.79
3.24
3.80
4.42
5.06
5.66
6.20
6.68
7.15
7.68
8.31
9.14
10.09
11.04
11.88
12.56
13.14
13.76
14.65
15.96
17.91
20.32
22.90
25.38
27.58
29.57
31.68
34.32
37.81
42.54
48.15
54.10
59.83
64.97
69.58
74.14
79.34
85.71
93.76
103.00
112.62
121.73
129.77
136.75
143.30
150.75
157.77
166.64
177.95
191.79
206.97
220.57
228.25
225.36
208.53
176.87
132.76
80.05
23.07
-34.94
-92.44
-149.16
-205.23
-260.37
-313.74
-363.87
-409.83
-450.91
-486.50
-515.74
-537.23
-549.22
-549.96
-538.37
-514.21
-478.67
-433.88
-382.45
-327.02
-269.84
-212.63
-156.66
-102.95
-52.37
-5.90
35.58
71.43
101.35
125.50
144.38
158.69
169.15
176.37
180.75
182.57
182.07
179.51
175.23
169.65
163.18
156.15
148.81
141.30
133.69
126.02
118.33
110.69
103.16
95.80
88.68
81.83
75.25
68.95
62.95
57.25
51.86
46.78
42.03
37.59
33.45
29.61
26.07
22.81
19.83
17.11
14.67
12.48
10.54
8.83
7.35
6.07
4.97
4.05
3.27
2.62
2.09
1.65
1.30
1.01
0.79
0.61
0.47
0.37
0.29
0.23
0.19
0.16
0.14
0.14
0.15
0.16
0.18
0.21
0.25
0.29
0.33
0.37
0.42
0.46
0.51
0.56
0.61
0.67
0.72
0.78
0.84
0.92
0.99
1.08
1.17
1.28
1.40
1.54
1.69
1.86
2.05
2.26
2.49
2.75
3.04
3.36
3.71
4.09
4.50
4.95
5.44
5.97
6.53
7.14
7.79
8.48
9.22
10.00
10.83
11.70
12.61
13.57
14.59
15.68
16.82
18.03
19.28
20.58
21.86
23.06
24.11
24.87
25.24
25.07
24.27
22.76
20.50
17.49
13.75
9.45
4.71
-0.23
-5.13
-9.73
-13.79
-17.13
-19.65
-21.32
-22.17
-22.33
-21.90
-21.02
-19.76
-18.23
-16.51
-14.70
-12.89
-11.14
-9.55
-8.17
-6.93
-5.75
-4.54
-3.23
-1.88
-0.57
0.60
1.42
1.83
1.95
2.02
2.29
2.88
3.77
4.78
5.73
6.15
5.91
5.22
4.51
4.20
4.54
5.46
6.65
7.72
7.91
6.92
5.02
2.71
0.56
-1.08
-2.23
-3.15
-4.26
-6.77
-11.74
-19.94
-31.52
-45.76
-61.01
-75.22
-87.04
-91.34
-87.12
-75.92
-60.91
-45.56
-32.42
-22.57
-15.74
-11.03
-7.48
-5.11
-3.84
-3.31
-2.92
-2.09
-0.68
0.90
1.88
1.56
-0.78
-4.77
-9.07
-11.84
-11.39
-6.89
1.28
11.72
22.50
31.54
37.66
40.74
41.54
41.14
40.51
40.16
40.10
40.11
39.77
38.86
37.45
35.79
34.16
32.80
31.77
31.06
30.55
30.08
29.58
29.06
28.58
28.17
27.71
26.86
25.08
21.90
17.06
10.82
3.92
-2.58
-7.70
-10.85
-12.09
-12.06
-11.66
-11.70
-12.61
-14.44
-16.97
-20.02
-23.50
-27.47
-31.94
-36.85
-41.91
-46.77
-50.97
-54.00
-55.28
-54.21
-50.33
-43.62
-34.61
-24.42
-14.37
-5.64
1.16
6.04
9.43
11.88
13.76
15.27
16.43
17.36
18.27
19.45
21.08
23.10
25.22
27.02
28.17
28.52
28.13
27.19
25.91
24.44
22.88
21.31
19.83
18.49
17.32
16.26
15.21
14.06
12.71
11.10
9.25
7.20
5.06
3.00
1.17
-0.29
-1.44
-2.54
-4.05
-6.52
-10.44
-15.94
-22.59
-29.47
-35.23
-38.60
-38.78
-35.75
-30.25
-23.50
-16.76
-10.93
-6.48
-3.33
-1.09
0.79
2.76
5.01
7.30
9.03
9.50
8.32
5.75
2.62
0.02
-1.30
-1.20
-0.18
1.03
1.92
2.36
2.44
2.08
0.87
-1.72
-5.92
-11.28
-16.70
-20.95
-23.27
-23.78
-23.24
-22.55
-22.08
-21.52
-20.15
-17.48
-13.70
-9.76
-6.98
-6.38
-8.25
-12.05
-16.59
-20.49
-22.53
-21.91
-18.38
-12.24
-4.33
4.26
12.42
19.33
24.63
28.42
31.15
33.37
35.62
38.33
41.67
45.56
49.60
53.22
55.86
57.20
57.26
56.20
54.21
51.31
47.46
42.68
37.29
31.85
26.97
22.99
19.91
17.46
15.24
13.00
10.68
8.33
6.02
3.76
1.48
-0.86
-3.32
-5.99
-9.02
-12.61
-16.91
-21.92
-27.42
-32.92
-37.69
-40.87
-41.68
-39.67
-34.84
-27.76
-19.41
-10.87
-3.08
3.42
8.58
12.61
15.87
18.62
21.00
22.99
24.57
25.72
26.53
27.10
27.47
27.60
27.39
26.80
25.87
24.83
23.90
23.20
22.67
22.05
20.98
19.12
16.23
12.27
7.40
1.99
-3.48
-8.50
-12.73
-16.10
-18.88
-21.59
-24.76
-28.75
-33.43
-38.17
-41.96
-43.67
-42.47
-38.07
-30.95
-22.10
-12.79
-4.17
3.03
8.55
12.62
15.65
18.05
19.99
21.36
21.86
21.23
19.52
17.15
14.84
13.28
12.85
13.44
14.57
15.70
16.50
16.86
16.83
16.32
15.11
12.90
9.53
5.16
0.20
-4.83
-9.52
-13.67
-17.27
-20.41
-23.17
-25.69
-28.12
-30.74
-33.81
-37.60
-42.33
-48.06
-54.62
-61.49
-67.73
-72.13
-73.58
-71.53
-66.18
-58.42
-49.35
-39.68
-29.47
-18.29
-5.74
8.00
21.98
34.70
44.68
51.07
53.89
53.91
52.30
50.18
48.32
47.06
46.44
46.37
46.77
47.56
48.61
49.67
50.32
50.13
48.85
46.53
43.50
40.14
36.69
33.12
29.16
24.48
18.94
12.64
5.92
-0.87
-7.43
-13.59
-19.29
-24.53
-29.33
-33.84
-38.31
-43.09
-48.50
-54.59
-60.94
-66.58
-70.19
-70.53
-66.83
-59.22
-48.71
-36.96
-25.73
-16.43
-9.72
-5.48
-3.03
-1.46
-0.07
1.55
3.45
5.52
7.63
9.68
11.66
13.54
15.26
16.76
18.02
19.08
20.06
21.04
22.00
22.78
23.14
22.81
21.64
19.63
16.95
13.74
10.21
6.47
2.63
-1.20
-4.84
-8.13
-10.93
-13.29
-15.45
-17.77
-20.65
-24.42
-29.22
-34.93
-41.09
-46.83
-51.02
-52.55
-50.62
-45.11
-36.66
-26.49
-16.04
-6.50
1.43
7.60
12.16
15.40
17.56
18.84
19.49
19.81
20.12
20.65
21.48
22.45
23.32
23.76
23.55
22.60
20.99
18.97
16.85
14.98
13.54
12.48
11.53
10.29
8.47
6.03
3.24
0.49
-1.91
-3.95
-5.90
-8.17
-11.06
-14.49
-18.09
-21.30
-23.71
-25.18
-26.01
-26.74
-28.06
-30.60
-34.65
-40.05
-46.04
-51.35
-54.42
-53.91
-49.18
-40.59
-29.48
-17.73
-7.14
1.12
6.73
10.11
12.04
13.23
14.10
14.76
15.16
15.31
15.36
15.57
16.19
17.28
18.70
20.11
21.04
21.10
20.11
18.11
15.48
12.73
10.35
8.64
7.60
6.94
6.28
5.29
3.87
2.13
0.20
-1.83
-4.07
-6.64
-9.52
-12.45
-14.96
-16.63
-17.36
-17.52
-17.89
-19.35
-22.50
-27.37
-33.31
-39.10
-43.24
-44.33
-41.56
-34.89
-25.25
-14.21
-3.55
5.31
11.60
15.41
17.30
18.07
18.37
18.63
19.02
19.56
20.27
21.16
22.21
23.38
24.50
25.31
25.55
25.08
23.98
22.51
21.07
19.93
19.07
18.19
16.80
14.54
11.35
7.53
3.56
-0.10
-3.25
-5.97
-8.57
-11.39
-14.65
-18.34
-22.21
-25.79
-28.61
-30.33
-30.91
-30.70
-30.34
-30.66
-32.42
-36.11
-41.65
-48.20
-54.23
-57.84
-57.42
-52.25
-42.89
-30.98
-18.64
-7.62
1.22
8.05
13.54
18.30
22.46
25.76
27.87
28.76
28.80
28.55
28.42
28.51
28.67
28.80
29.03
29.78
31.44
34.09
37.25
40.01
41.36
40.56
37.54
32.81
27.22
21.59
16.47
12.03
8.22
4.89
1.94
-0.69
-3.11
-5.42
-7.83
-10.46
-13.45
-16.80
-20.52
-24.66
-29.26
-34.40
-39.97
-45.54
-50.26
-52.93
-52.34
-47.79
-39.47
-28.62
-17.16
-7.07
0.39
4.96
7.30
8.55
9.64
10.97
12.43
13.67
14.39
14.59
14.48
14.31
14.20
14.10
13.92
13.58
13.10
12.59
12.13
11.75
11.35
10.75
9.81
8.46
6.78
4.98
3.23
1.67
0.22
-1.27
-3.02
-5.14
-7.59
-10.19
-12.76
-15.28
-17.90
-20.94
-24.75
-29.45
-34.78
-40.02
-44.16
-46.10
-45.06
-40.81
-33.79
-25.04
-15.87
-7.49
-0.71
4.20
7.46
9.55
10.99
12.15
13.19
14.13
14.91
15.51
15.95
16.20
16.25
16.01
15.47
14.64
13.63
12.63
11.82
11.30
10.93
10.41
9.34
7.42
4.60
1.17
-2.36
-5.50
-8.02
-10.07
-12.06
-14.38
-17.28
-20.62
-24.14
-27.57
-30.88
-34.24
-38.02
-42.49
-47.75
-53.63
-59.67
-65.19
-69.34
-71.25
-70.13
-65.48
-57.21
-45.73
-31.89
-16.82
-1.75
12.29
24.62
34.94
43.21
49.38
53.38
55.19
55.03
53.54
51.67
50.40
50.27
51.18
52.44
53.14
52.58
50.53
47.16
42.81
37.67
31.82
25.32
18.47
11.80
6.00
1.63
-1.22
-2.82
-3.82
-4.91
-6.60
-9.11
-12.33
-15.92
-19.47
-22.70
-25.47
-27.90
-30.36
-33.30
-37.13
-41.83
-46.90
-51.23
-53.46
-52.39
-47.45
-39.02
-28.31
-16.99
-6.69
1.51
7.35
11.24
14.04
16.62
19.53
22.83
26.14
28.91
30.67
31.30
31.06
30.43
29.94
29.87
30.26
30.83
31.27
31.32
30.90
30.00
28.65
26.87
24.64
21.92
18.79
15.34
11.72
8.07
4.53
1.17
-1.96
-4.91
-7.72
-10.46
-13.19
-15.98
-18.94
-22.29
-26.40
-31.59
-37.87
-44.66
-50.69
-54.30
-53.97
-48.95
-39.66
-27.61
-14.85
-3.39
5.46
11.33
14.62
16.23
17.09
17.91
19.05
20.58
22.37
24.24
26.06
27.71
29.09
30.07
30.56
30.56
30.19
29.72
29.41
29.34
29.34
28.97
27.77
25.41
21.94
17.74
13.50
9.81
7.02
5.06
3.48
1.72
-0.65
-3.65
-6.97
-10.16
-12.90
-15.15
-17.21
-19.50
-22.48
-26.46
-31.57
-37.63
-44.13
-50.14
-54.43
-55.79
-53.47
-47.53
-38.90
-29.06
-19.56
-11.49
-5.21
-0.51
3.17
6.32
9.29
12.15
14.85
17.38
19.74
21.94
23.97
25.73
27.15
28.19
28.85
29.23
29.41
29.49
29.56
29.69
29.84
29.83
29.34
27.98
25.54
22.05
17.93
13.77
10.13
7.23
4.89
2.66
0.06
-3.06
-6.53
-9.89
-12.70
-14.78
-16.33
-17.86
-19.99
-23.28
-27.93
-33.78
-40.25
-46.35
-50.86
-52.55
-50.54
-44.70
-35.74
-25.09
-14.47
-5.26
1.83
6.86
10.37
13.03
15.30
17.34
19.16
20.70
22.02
23.21
24.38
25.53
26.57
27.38
27.88
28.02
27.90
27.65
27.43
27.27
27.10
26.69
25.75
24.11
21.74
18.86
15.83
12.94
10.33
7.87
5.25
2.17
-1.43
-5.32
-9.05
-12.20
-14.60
-16.48
-18.40
-21.04
-24.92
-30.20
-36.54
-43.20
-49.08
-52.98
-53.84
-51.03
-44.66
-35.58
-25.17
-14.94
-6.12
0.63
5.29
8.31
10.33
11.94
13.47
14.99
16.38
17.48
18.21
18.61
18.74
18.70
18.50
18.09
17.47
16.75
16.16
15.97
16.23
16.71
16.98
16.50
14.88
12.09
8.38
4.24
0.13
-3.48
-6.36
-8.33
-9.38
-9.55
-8.96
-7.74
-6.08
-4.25
-2.58
-1.45
-1.25
-2.29
-4.79
-8.80
-14.18
-20.37
-26.46
-31.15
-33.04
-31.13
-25.26
-16.30
-5.96
3.85
11.70
17.04
20.24
22.16
23.55
24.78
25.78
26.34
26.30
25.81
25.16
24.71
24.62
24.87
25.26
25.49
25.29
24.47
23.02
21.08
18.92
16.83
14.91
13.04
10.88
8.06
4.44
0.26
-3.95
-7.56
-10.28
-12.27
-14.15
-16.58
-20.09
-24.76
-30.31
-36.24
-41.99
-46.91
-50.23
-51.15
-48.96
-43.41
-34.92
-24.62
-13.96
-4.41
3.13
8.41
11.79
13.99
15.68
17.33
19.06
20.78
22.20
23.14
23.49
23.38
23.08
22.87
22.94
23.30
23.71
23.83
23.30
21.89
19.64
16.84
13.91
11.19
8.81
6.62
4.25
1.37
-2.09
-5.92
-9.68
-12.97
-15.60
-17.75
-19.83
-22.29
-25.44
-29.36
-33.98
-39.11
-44.45
-49.42
-53.10
-54.35
-52.14
-45.99
-36.38
-24.67
-12.71
-2.23
5.70
10.99
14.26
16.51
18.55
20.79
23.23
25.67
27.88
29.70
31.07
31.93
32.21
31.88
31.04
29.97
29.02
28.45
28.29
28.27
27.97
26.97
25.07
22.36
19.12
15.72
12.41
9.25
6.15
2.94
-0.51
-4.17
-7.85
-11.30
-14.26
-16.60
-18.46
-20.18
-22.32
-25.49
-30.11
-36.22
-43.13
-49.51
-53.61
-53.86
-49.46
-40.79
-29.33
-17.21
-6.41
1.83
7.34
10.81
13.31
15.72
18.43
21.31
23.95
26.01
27.35
28.11
28.62
29.15
29.78
30.46
31.01
31.29
31.28
31.04
30.60
29.89
28.68
26.73
23.92
20.40
16.57
12.91
9.77
7.24
5.11
3.01
0.57
-2.37
-5.79
-9.52
-13.34
-17.04
-20.49
-23.75
-27.05
-30.80
-35.39
-40.92
-46.83
-51.91
-54.57
-53.39
-47.75
-38.20
-26.26
-13.97
-3.16
5.13
10.75
14.26
16.47
18.06
19.34
20.42
21.20
21.69
22.01
22.33
22.74
23.24
23.75
24.10
24.22
24.06
23.58
22.73
21.42
19.63
17.41
14.90
12.27
9.64
7.03
4.45
1.90
-0.60
-3.05
-5.45
-7.81
-10.15
-12.38
-14.44
-16.32
-18.15
-20.26
-23.06
-26.90
-31.77
-37.18
-42.02
-44.89
-44.46
-40.03
-31.89
-21.23
-9.82
0.67
9.12
15.18
19.15
21.55
22.83
23.25
22.94
22.11
21.12
20.37
20.22
20.78
21.86
23.08
24.00
24.30
23.89
22.90
21.56
20.06
18.36
16.29
13.58
10.07
5.88
1.41
-2.81
-6.31
-8.89
-10.70
-12.20
-14.01
-16.67
-20.56
-25.67
-31.61
-37.50
-42.10
-44.09
-42.44
-36.87
-27.98
-17.26
-6.51
2.67
9.39
13.59
15.78
16.77
17.18
17.32
17.26
16.90
16.26
15.46
14.78
14.50
14.83
15.70
16.80
17.63
17.73
16.88
15.26
13.25
11.21
9.25
7.18
4.67
1.59
-1.71
-4.42
-5.52
-4.22
-0.46
4.96
10.49
14.38
15.34
13.04
8.28
2.81
-1.23
-2.03
1.50
9.36
20.70
34.08
47.87
60.76
72.03
81.68
90.25
98.38
106.21
112.92
116.77
115.70
108.12
93.74
73.83
51.00
28.63
10.04
-2.17
-6.85
-4.43
3.09
12.80
21.63
27.13
27.87
23.36
13.71
-0.60
-18.69
-39.08
-59.54
-77.44
-90.62
-98.14
-100.79
-100.85
-101.05
-103.62
-109.41
-117.85
-127.11
-134.80
-138.64
-137.05
-129.59
-117.03
-101.10
-84.13
-68.32
-55.29
-45.82
-39.91
-36.99
-36.39
-37.49
-39.87
-43.14
-46.77
-50.04
-52.13
-52.39
-50.57
-47.02
-42.67
-38.73
-36.33
-36.09
-37.89
-41.07
-44.68
-47.92
-50.31
-51.61
-51.58
-49.86
-45.98
-39.79
-31.82
-23.37
-16.30
-12.32
-12.48
-16.75
-24.23
-33.64
-43.83
-54.11
-64.17
-73.92
-83.17
-91.48
-98.23
-102.80
-104.57
-103.02
-97.64
-88.05
-74.20
-56.74
-37.20
-17.85
-1.25
10.53
16.59
17.49
15.13
12.16
11.20
14.07
21.35
32.27
45.03
57.29
66.78
71.80
71.50
66.01
56.33
44.32
32.37
23.11
18.85
20.99
29.43
42.50
57.40
71.02
80.86
85.61
85.25
80.72
73.52
65.29
57.72
52.42
50.76
53.58
60.85
71.51
83.65
95.07
103.92
109.26
111.25
110.86
109.27
107.26
104.91
101.62
96.62
89.56
80.89
71.87
64.02
58.53
55.60
54.44
53.56
51.47
47.23
40.79
32.90
24.67
17.13
10.83
5.74
1.45
-2.51
-6.43
-10.26
-13.77
-16.73
-19.10
-21.05
-22.92
-25.02
-27.58
-30.67
-34.28
-38.24
-42.20
-45.61
-47.83
-48.09
-45.90
-41.01
-33.55
-24.12
-13.60
-3.01
6.75
15.13
21.93
27.31
31.46
34.42
36.05
36.16
34.73
32.18
29.29
26.94
25.81
26.09
27.40
28.96
29.91
29.55
27.59
24.14
19.61
14.55
9.46
4.68
0.36
-3.59
-7.47
-11.71
-16.74
-22.75
-29.51
-36.25
-41.83
-45.05
-45.13
-41.94
-36.00
-28.29
-19.85
-11.49
-3.72
3.24
9.31
14.35
18.26
20.91
22.32
22.67
22.28
21.48
20.54
19.60
18.70
17.86
17.16
16.69
16.47
16.36
15.98
14.84
12.57
9.11
4.80
0.26
-3.88
-7.20
-9.66
-11.55
-13.43
-15.96
-19.67
-24.77
-30.93
-37.12
-41.85
-43.53
-41.02
-34.21
-24.01
-12.11
-0.30
10.12
18.66
25.56
31.22
35.88
39.32
41.01
40.50
37.80
33.42
28.27
23.32
19.20
16.13
13.87
11.95
9.75
6.62
1.92
-4.90
-14.10
-25.44
-38.12
-50.95
-62.79
-72.95
-81.43
-88.81
-95.87
-103.19
-110.98
-119.21
-127.84
-137.00
-146.84
-157.25
-167.43
-175.82
-180.28
-178.55
-168.76
-149.84
-121.78
-85.61
-43.37
2.11
47.47
89.28
124.49
150.95
167.62
174.68
173.27
165.24
152.71
137.88
122.77
109.08
98.11
90.54
86.45
85.24
85.78
86.64
86.40
83.97
78.90
71.39
62.29
52.83
44.23
37.35
32.45
29.23
27.00
24.95
22.49
19.31
15.39
10.86
5.97
0.97
-3.90
-8.41
-12.45
-16.15
-19.89
-24.31
-29.96
-36.98
-44.78
-52.01
-56.90
-57.84
-54.03
-45.81
-34.59
-22.28
-10.64
-0.79
6.96
12.87
17.45
21.13
24.13
26.54
28.41
29.82
30.91
31.83
32.65
33.35
33.80
33.80
33.20
32.02
30.51
29.04
27.99
27.46
27.23
26.76
25.50
23.15
19.82
16.01
12.31
9.15
6.60
4.40
2.18
-0.36
-3.31
-6.51
-9.76
-12.93
-16.02
-19.14
-22.37
-25.67
-28.94
-32.08
-35.16
-38.29
-41.46
-44.29
-46.06
-45.78
-42.64
-36.41
-27.54
-17.10
-6.38
3.47
11.80
18.45
23.52
27.32
30.10
31.98
33.05
33.37
33.02
32.14
30.99
29.91
29.20
28.99
29.10
29.12
28.57
27.20
25.11
22.71
20.43
18.55
17.01
15.54
13.92
12.13
10.34
8.74
7.30
5.64
3.25
-0.23
-4.70
-9.50
-13.66
-16.23
-16.70
-15.34
-13.17
-11.65
-12.27
-15.88
-22.33
-30.37
-38.03
-43.19
-44.35
-41.01
-33.75
-23.97
-13.27
-3.06
5.78
12.86
18.20
21.97
24.44
25.91
26.74
27.32
27.99
29.01
30.50
32.47
34.79
37.30
39.80
42.16
44.34
46.49
48.89
51.91
55.88
60.93
66.84
73.09
78.89
83.47
86.30
87.14
85.97
82.86
77.94
71.34
63.26
53.98
43.80
33.12
22.39
12.23
3.42
-3.08
-6.34
-5.69
-1.10
6.70
16.26
25.70
33.41
38.52
41.18
42.34
43.22
44.80
47.46
51.10
55.63
61.34
68.84
78.60
90.30
102.54
113.20
120.38
123.31
122.60
119.76
116.11
111.92
106.19
97.27
83.97
66.40
46.31
26.39
9.24
-3.67
-12.41
-18.45
-23.99
-31.29
-42.45
-59.23
-82.93
-113.77
-150.14
-188.22
-222.36
-246.72
-257.13
-252.78
-236.44
-213.26
-188.77
-166.95
-149.48
-136.03
-125.58
-117.36
-111.26
-107.40
-105.56
-104.76
-103.57
-100.79
-96.13
-90.48
-85.65
-83.56
-85.33
-90.68
-97.92
-104.55
-108.18
-107.32
-101.91
-93.02
-82.40
-71.72
-62.02
-53.63
-46.33
-39.79
-33.95
-29.18
-26.11
-25.32
-26.92
-30.45
-34.91
-39.05
-41.75
-42.28
-40.53
-36.91
-32.21
-27.32
-22.98
-19.57
-17.04
-14.93
-12.58
-9.43
-5.16
0.08
5.79
11.28
16.00
19.79
22.91
25.92
29.27
33.03
36.74
39.62
41.13
41.32
40.90
40.97
42.40
45.33
49.13
52.67
54.94
55.50
54.71
53.55
53.24
55.01
60.15
70.08
86.30
109.81
140.10
174.31
207.30
232.73
245.01
241.29
222.46
192.70
157.84
123.28
92.39
66.20
43.77
23.20
2.57
-19.58
-43.98
-70.53
-98.14
-124.75
-147.75
-164.86
-175.08
-179.30
-180.57
-183.49
-193.10
-213.38
-245.52
-287.11
-332.25
-373.12
-402.35
-415.29
-411.12
-392.48
-363.96
-330.20
-294.84
-260.18
-227.64
-198.17
-172.18
-148.96
-126.31
-100.75
-68.29
-25.88
26.98
87.20
147.59
197.70
226.47
225.75
193.83
137.14
68.96
5.17
-40.94
-62.78
-61.39
-43.06
-15.30
16.67
51.08
88.05
126.94
164.21
193.53
207.96
203.25
180.35
145.41
107.22
73.57
48.28
31.10
19.66
12.67
11.56
19.75
39.80
70.71
107.12
141.14
165.92
178.53
180.90
177.88
174.20
172.00
170.12
165.37
154.29
134.58
105.66
68.63
26.08
-18.12
-59.13
-91.97
-112.64
-119.29
-112.64
-95.54
-71.70
-44.50
-16.47
10.41
34.14
52.43
63.13
65.14
58.91
46.30
29.79
11.44
-7.42
-25.95
-43.05
-56.95
-65.43
-66.61
-59.95
-46.83
-30.07
-12.97
2.10
14.63
26.06
38.83
54.91
74.57
95.81
114.99
128.19
132.70
128.06
115.95
99.22
80.62
61.80
43.14
24.29
5.06
-13.98
-31.40
-45.59
-55.47
-61.19
-64.04
-65.84
-67.91
-70.41
-72.37
-72.33
-69.38
-63.81
-57.14
-51.32
-47.82
-46.76
-46.82
-45.86
-41.78
-33.43
-20.96
-5.63
10.64
25.96
38.90
48.81
55.78
60.42
63.50
65.49
66.34
65.34
61.56
54.26
43.56
30.70
17.79
7.17
0.57
-1.47
0.27
4.12
8.09
10.39
9.75
5.52
-2.40
-13.52
-26.83
-40.92
-54.25
-65.61
-74.33
-80.45
-84.38
-86.46
-86.67
-84.56
-79.53
-71.27
-60.02
-46.52
-31.76
-16.59
-1.25
14.82
32.74
53.55
77.26
102.10
124.43
139.68
144.09
136.44
118.79
95.72
72.23
51.66
34.52
18.91
2.05
-18.18
-42.41
-69.74
-98.22
-125.34
-148.26
-164.10
-170.62
-166.95
-154.04
-134.54
-111.81
-88.78
-66.99
-46.59
-26.64
-5.59
18.36
46.70
79.97
116.91
154.18
186.89
210.16
220.88
218.81
206.56
188.33
168.30
149.45
133.24
119.92
109.10
100.08
92.01
83.98
75.38
66.26
57.59
51.07
48.47
51.09
59.08
71.19
84.85
96.61
103.05
101.80
92.43
76.74
58.11
40.17
25.31
13.82
4.25
-5.43
-16.37
-27.96
-37.98
-43.70
-43.39
-37.30
-27.94
-19.19
-15.05
-18.19
-29.13
-46.17
-66.09
-85.32
-100.99
-111.65
-117.37
-119.48
-119.95
-120.83
-123.65
-129.10
-136.90
-146.00
-154.91
-162.15
-166.58
-167.66
-165.41
-160.32
-153.29
-145.54
-138.62
-134.14
-133.32
-136.43
-142.46
-149.08
-153.21
-151.93
-143.34
-127.16
-104.59
-77.61
-48.02
-16.80
15.72
49.12
82.10
112.41
137.55
155.97
167.89
175.02
179.41
182.02
182.02
177.40
166.32
148.52
125.81
101.35
78.23
58.25
41.52
26.80
12.35
-3.47
-21.82
-43.12
-66.97
-91.96
-115.80
-135.81
-149.51
-155.27
-152.61
-141.95
-124.36
-101.32
-74.82
-47.46
-22.17
-1.43
13.75
24.42
33.38
43.87
57.98
75.72
95.22
113.83
129.60
142.00
151.76
159.97
167.21
173.04
176.34
175.82
170.60
160.53
146.15
128.54
109.09
89.26
70.20
52.46
35.82
19.34
1.97
-16.92
-36.90
-56.48
-73.43
-85.48
-90.94
-88.97
-79.68
-63.97
-43.51
-20.79
0.88
17.83
26.90
26.53
17.50
2.88
-12.87
-25.39
-31.71
-31.02
-24.52
-14.80
-4.79
3.05
7.34
7.99
5.96
2.78
-0.12
-1.73
-1.64
0.13
3.44
8.14
14.03
20.65
27.19
32.63
36.01
36.75
34.79
30.45
24.23
16.51
7.60
-2.09
-11.69
-19.78
-24.58
-24.49
-18.78
-8.11
5.49
19.13
30.04
36.43
38.05
36.01
32.10
27.99
24.54
21.64
18.48
14.14
8.12
0.66
-7.31
-14.63
-20.39
-24.26
-26.37
-26.99
-26.14
-23.55
-19.05
-13.00
-6.66
-1.90
-0.53
-3.44
-10.05
-18.39
-25.67
-29.12
-26.57
-16.97
-0.59
20.96
44.84
67.57
85.75
97.01
100.48
96.78
87.37
73.91
57.68
39.65
20.77
2.32
-14.03
-26.64
-34.44
-37.31
-36.18
-32.69
-28.83
-26.33
-26.43
-29.57
-35.40
-42.83
-50.18
-55.45
-56.79
-52.99
-43.93
-30.89
-16.25
-2.79
7.31
13.35
16.41
18.79
22.89
30.05
39.93
50.67
59.95
65.94
67.95
66.25
61.49
54.19
44.63
33.17
20.65
8.41
-2.11
-9.99
-15.29
-18.82
-21.62
-24.21
-26.27
-26.87
-25.09
-20.54
-13.64
-5.45
2.72
9.65
14.40
16.50
16.06
13.94
11.59
10.88
13.47
20.23
30.85
43.91
57.37
69.28
78.28
83.94
86.54
86.76
85.35
82.92
79.95
76.89
74.15
71.96
70.25
68.53
66.02
62.00
56.15
48.79
40.82
33.42
27.57
23.69
21.63
20.70
20.03
18.88
16.77
13.59
9.51
4.93
0.20
-4.46
-9.10
-13.98
-19.28
-25.00
-30.89
-36.76
-42.80
-49.67
-58.22
-68.99
-81.80
-95.82
-109.94
-123.29
-135.47
-146.37
-155.73
-162.87
-166.84
-166.92
-163.07
-156.11
-147.31
-137.92
-128.72
-120.13
-112.43
-106.00
-101.26
-98.38
-97.07
-96.53
-95.71
-93.73
-90.17
-85.24
-79.53
-73.78
-68.60
-64.32
-61.11
-59.00
-57.97
-57.90
-58.53
-59.42
-60.05
-59.96
-58.99
-57.35
-55.58
-54.25
-53.64
-53.54
-53.24
-51.73
-48.11
-41.83
-32.84
-21.65
-9.16
3.44
14.95
24.37
31.15
35.36
37.56
38.68
39.56
40.82
42.74
45.38
48.67
52.42
56.27
59.71
62.30
63.83
64.50
64.90
65.69
67.30
69.75
72.73
75.75
78.42
80.47
81.64
81.69
80.29
77.21
72.41
66.12
58.78
51.04
43.63
37.44
33.36
32.10
34.01
38.90
46.07
54.42
62.66
69.51
73.89
75.05
72.83
67.71
60.76
53.29
46.44
40.75
36.15
32.13
28.21
24.15
20.12
16.49
13.56
11.38
9.70
8.16
6.32
3.87
0.68
-3.21
-7.57
-12.14
-16.74
-21.41
-26.48
-32.50
-39.90
-48.82
-58.91
-69.31
-78.80
-86.07
-89.96
-89.73
-85.28
-77.10
-66.27
-54.10
-41.88
-30.66
-21.13
-13.71
-8.64
-5.97
-5.53
-6.82
-9.03
-11.09
-12.07
-11.32
-8.69
-4.49
0.65
6.01
10.96
15.04
18.05
19.93
20.72
20.55
19.57
18.02
16.13
14.08
11.85
9.32
6.36
3.11
0.11
-1.77
-1.61
1.27
7.03
15.37
25.66
37.09
48.70
59.34
67.65
72.32
72.43
67.89
59.55
49.03
38.07
28.00
19.33
11.77
4.56
-3.09
-11.62
-20.89
-30.22
-38.65
-45.32
-49.86
-52.58
-54.42
-56.64
-60.43
-66.46
-74.77
-84.77
-95.45
-105.66
-114.30
-120.40
-123.18
-122.17
-117.34
-109.21
-98.81
-87.41
-76.21
-65.96
-56.90
-48.95
-42.01
-36.31
-32.38
-30.78
-31.72
-34.64
-38.29
-41.16
-42.06
-40.65
-37.47
-33.68
-30.40
-28.29
-27.26
-26.73
-26.04
-24.75
-22.86
-20.70
-18.69
-17.13
-16.18
-15.79
-15.87
-16.21
-16.43
-16.01
-14.24
-10.55
-4.64
3.31
12.74
22.88
33.09
43.08
52.91
62.91
73.27
83.68
93.01
99.40
100.79
95.79
84.40
68.30
50.40
33.80
20.72
11.88
6.71
3.94
2.41
1.39
0.52
-0.55
-2.43
-5.81
-11.18
-18.44
-26.87
-35.41
-43.08
-49.33
-54.07
-57.47
-59.57
-60.09
-58.38
-53.67
-45.51
-34.06
-20.30
-5.82
7.58
18.40
25.87
30.01
31.42
30.88
29.02
26.18
22.43
17.77
12.27
6.07
-0.61
-7.63
-14.84
-22.00
-28.80
-34.84
-39.80
-43.58
-46.40
-48.77
-51.33
-54.62
-58.93
-64.18
-69.95
-75.49
-79.87
-82.07
-81.18
-76.55
-67.94
-55.72
-40.80
-24.61
-8.82
5.06
16.06
23.91
28.91
31.74
33.07
33.37
32.93
31.93
30.64
29.40
28.50
28.10
28.05
27.97
27.45
26.15
23.97
21.03
17.68
14.40
11.72
10.09
9.72
10.48
11.79
12.74
12.33
9.83
5.18
-0.86
-6.89
-11.22
-12.49
-10.04
-4.08
4.47
14.41
24.64
34.35
43.00
50.17
55.47
58.56
59.26
57.78
54.62
50.57
46.40
42.74
39.88
37.80
36.23
34.77
33.02
30.73
27.79
24.30
20.45
16.41
12.27
8.00
3.47
-1.47
-7.02
-13.43
-20.94
-29.70
-39.43
-49.34
-58.02
-63.81
-65.27
-61.76
-53.63
-42.07
-28.75
-15.26
-2.74
8.11
16.89
23.32
27.13
28.19
26.76
23.56
19.76
16.65
15.26
15.95
18.35
21.51
24.26
25.72
25.50
23.74
20.92
17.51
13.79
9.81
5.49
0.75
-4.39
-9.90
-15.83
-22.30
-29.32
-36.50
-42.91
-47.07
-47.39
-42.77
-33.12
-19.50
-3.87
11.54
24.92
35.32
42.70
47.70
51.18
53.87
56.21
58.29
60.05
61.38
62.20
62.50
62.39
62.01
61.59
61.35
61.48
62.02
62.79
63.44
63.57
62.88
61.29
59.00
56.42
54.01
52.05
50.49
48.93
46.63
42.73
36.44
27.32
15.47
1.66
-12.81
-26.32
-37.45
-45.27
-49.54
-50.63
-49.31
-46.47
-43.07
-40.08
-38.39
-38.63
-40.85
-44.40
-48.07
-50.49
-50.71
-48.49
-44.26
-38.76
-32.59
-26.02
-19.10
-11.94
-4.94
1.16
5.48
7.33
6.53
3.49
-0.92
-5.61
-9.69
-12.72
-14.84
-16.72
-19.29
-23.43
-29.66
-37.86
-47.14
-55.93
-62.31
-64.46
-61.28
-52.79
-40.24
-25.74
-11.57
0.48
9.58
15.95
20.51
24.34
28.25
32.48
36.78
40.66
43.74
45.97
47.62
49.02
50.35
51.43
51.89
51.32
49.57
46.89
43.78
40.74
38.03
35.52
32.84
29.61
25.65
21.14
16.49
12.21
8.72
6.23
4.72
3.91
3.26
2.05
-0.59
-5.50
-13.23
-23.76
-36.31
-49.31
-60.68
-68.29
-70.46
-66.47
-56.73
-42.73
-26.58
-10.56
3.49
14.49
22.23
27.23
30.45
32.84
35.13
37.70
40.59
43.65
46.70
49.59
52.20
54.43
56.12
57.10
57.17
56.28
54.57
52.33
49.91
47.50
45.02
42.20
38.67
34.20
28.80
22.81
16.70
10.93
5.80
1.40
-2.40
-5.82
-9.16
-12.78
-17.16
-22.74
-29.79
-38.08
-46.72
-54.22
-58.93
-59.61
-55.97
-48.79
-39.63
-30.15
-21.44
-13.69
-6.37
1.24
9.39
17.55
24.52
28.98
30.09
27.94
23.55
18.48
14.29
12.01
11.95
13.77
16.79
20.26
23.61
26.45
28.63
30.14
31.16
31.93
32.73
33.68
34.66
35.25
34.87
33.05
29.60
24.81
19.43
14.33
10.26
7.49
5.73
4.25
2.14
-1.35
-6.58
-13.33
-20.77
-27.63
-32.40
-33.77
-31.04
-24.38
-14.83
-4.04
6.23
14.66
20.67
24.53
27.01
29.02
31.17
33.48
35.44
36.27
35.35
32.57
28.50
24.18
20.74
18.93
18.89
20.16
22.05
23.92
25.49
26.73
27.66
28.15
27.79
26.11
22.85
18.25
13.05
8.21
4.51
2.18
0.79
-0.60
-2.97
-6.97
-12.63
-19.38
-26.24
-32.16
-36.39
-38.57
-38.69
-36.83
-33.02
-27.28
-19.74
-10.86
-1.51
7.29
14.61
19.97
23.31
24.94
25.25
24.70
23.69
22.69
22.14
22.36
23.29
24.50
25.37
25.32
24.19
22.24
19.95
17.62
15.08
11.74
6.91
0.35
-7.35
-14.82
-20.38
-22.68
-21.39
-17.33
-12.25
-8.32
-7.49
-11.17
-19.90
-33.22
-49.53
-66.14
-79.73
-87.10
-86.20
-76.88
-61.00
-41.81
-22.87
-6.94
4.52
11.38
14.24
13.82
10.62
4.96
-2.74
-11.70
-20.77
-28.71
-34.50
-37.60
-37.88
-35.53
-30.82
-24.19
-16.32
-8.17
-0.97
4.13
6.39
5.70
2.60
-1.89
-6.66
-10.69
-13.24
-14.01
-13.13
-11.18
-9.08
-7.83
-8.22
-10.72
-15.31
-21.62
-29.03
-36.70
-43.70
-49.03
-51.84
-51.55
-48.13
-42.04
-34.25
-25.91
-18.08
-11.54
-6.68
-3.59
-2.12
-2.05
-3.20
-5.44
-8.67
-12.73
-17.38
-22.24
-27.03
-31.69
-36.47
-41.73
-47.68
-54.04
-60.10
-65.08
-68.57
-71.01
-73.46
-77.18
-82.90
-90.40
-98.59
-105.99
-111.40
-114.34
-115.14
-114.64
-113.94
-114.04
-115.62
-118.80
-122.80
-125.88
-125.52
-119.15
-104.85
-81.93
-51.07
-13.92
27.43
70.90
114.58
156.54
194.84
227.44
252.65
269.44
277.80
278.82
274.37
266.60
257.35
247.62
237.36
225.73
211.69
194.59
174.63
152.74
130.24
108.29
87.69
68.88
52.19
37.90
26.19
16.78
8.86
1.22
-7.31
-17.42
-29.08
-41.67
-54.24
-65.86
-75.68
-82.87
-86.65
-86.33
-81.63
-72.95
-61.34
-48.41
-35.89
-25.24
-17.46
-12.83
-11.07
-11.43
-12.94
-14.64
-15.83
-16.10
-15.40
-13.83
-11.62
-8.99
-6.19
-3.55
-1.39
0.01
0.56
0.38
-0.26
-1.06
-1.88
-2.85
-4.29
-6.60
-9.99
-14.32
-19.05
-23.41
-26.69
-28.59
-29.29
-29.51
-30.10
-31.75
-34.68
-38.53
-42.45
-45.38
-46.38
-44.99
-41.41
-36.56
-31.69
-28.03
-26.23
-26.13
-26.74
-26.65
-24.57
-19.77
-12.38
-3.26
6.26
14.84
21.49
25.71
27.55
27.39
25.73
23.04
19.73
16.12
12.59
9.54
7.31
6.06
5.68
5.77
5.77
5.14
3.53
0.92
-2.48
-6.29
-10.12
-13.70
-16.96
-20.01
-23.05
-26.32
-29.98
-34.06
-38.36
-42.46
-45.71
-47.32
-46.53
-42.90
-36.47
-27.87
-18.11
-8.29
0.75
8.52
14.94
20.12
24.19
27.20
29.17
30.14
30.25
29.76
28.91
27.94
27.00
26.11
25.28
24.46
23.64
22.79
21.95
21.15
20.40
19.70
19.03
18.32
17.50
16.48
15.23
13.75
12.09
10.31
8.38
6.18
3.50
0.15
-3.92
-8.57
-13.53
-18.46
-23.12
-27.38
-31.21
-34.66
-37.80
-40.79
-43.73
-46.58
-49.04
-50.46
-50.03
-47.06
-41.31
-33.19
-23.65
-13.84
-4.78
2.99
9.34
14.44
18.52
21.66
23.84
24.98
25.03
24.08
22.35
20.14
17.78
15.59
13.75
12.41
11.61
11.35
11.56
12.08
12.63
12.85
12.36
10.91
8.48
5.34
1.97
-1.11
-3.54
-5.26
-6.53
-7.81
-9.52
-11.93
-15.03
-18.57
-22.12
-25.33
-27.91
-29.85
-31.42
-33.02
-35.14
-38.17
-42.21
-46.93
-51.58
-55.04
-56.15
-54.10
-48.66
-40.40
-30.46
-20.22
-10.82
-2.87
3.58
8.90
13.53
17.70
21.35
24.26
26.24
27.32
27.78
28.02
28.42
29.19
30.30
31.58
32.81
33.76
34.26
34.23
33.67
32.57
31.07
29.29
27.34
25.32
23.26
21.15
19.01
16.85
14.68
12.50
10.29
8.03
5.70
3.33
0.94
-1.49
-4.00
-6.71
-9.72
-13.04
-16.60
-20.20
-23.67
-26.91
-30.01
-33.25
-36.97
-41.43
-46.61
-52.03
-56.84
-59.94
-60.37
-57.55
-51.48
-42.76
-32.40
-21.57
-11.36
-2.52
4.51
9.73
13.35
15.79
17.50
18.85
20.06
21.22
22.28
23.17
23.83
24.31
24.73
25.22
25.91
26.80
27.80
28.66
29.07
28.72
27.41
25.12
22.07
18.69
15.47
12.83
10.94
9.67
8.62
7.33
5.42
2.80
-0.40
-3.93
-7.51
-11.01
-14.49
-18.13
-22.18
-26.86
-32.17
-37.88
-43.36
-47.70
-49.85
-49.01
-44.91
-37.92
-28.98
-19.25
-9.80
-1.32
5.83
11.56
15.88
18.81
20.39
20.80
20.33
19.42
18.55
18.09
18.22
18.90
19.90
20.86
21.53
21.84
21.96
22.22
22.86
23.79
24.52
24.25
22.19
18.02
12.12
5.50
-0.47
-4.63
-6.42
-6.05
-4.34
-2.36
-1.08
-1.09
-2.60
-5.40
-8.98
-12.63
-15.52
-16.81
-15.82
-12.18
-5.92
2.51
12.39
22.84
33.06
42.48
50.87
58.28
64.91
70.82
75.87
79.69
81.86
82.01
79.89
75.24
67.84
57.77
45.67
33.01
21.80
14.02
10.83
11.98
15.96
20.58
23.86
24.72
23.08
19.56
14.96
9.82
4.30
-1.73
-8.60
-16.64
-26.07
-36.87
-48.57
-60.25
-70.65
-78.49
-82.90
-83.60
-80.93
-75.54
-68.11
-59.12
-48.95
-37.99
-26.84
-16.28
-7.10
0.20
5.62
9.61
12.94
16.45
20.75
26.04
32.06
38.05
43.00
45.99
46.39
44.10
39.44
33.01
25.41
17.18
8.83
0.73
-6.70
-13.15
-18.48
-22.64
-25.65
-27.55
-28.42
-28.52
-28.42
-28.94
-30.84
-34.49
-39.51
-44.87
-49.28
-51.75
-52.00
-50.53
-48.31
-46.25
-44.86
-44.19
-44.01
-44.01
-43.93
-43.49
-42.27
-39.63
-34.97
-27.98
-18.88
-8.51
1.98
11.42
18.97
24.14
26.77
26.83
24.42
19.82
13.76
7.49
2.68
1.01
3.51
10.23
20.03
31.01
41.16
49.02
54.05
56.52
57.10
56.33
54.35
50.90
45.55
38.03
28.23
16.23
2.24
-13.44
-30.22
-47.24
-63.39
-77.59
-89.06
-97.50
-103.10
-106.37
-107.95
-108.51
-108.69
-109.07
-110.07
-111.73
-113.63
-114.75
-113.70
-109.11
-99.96
-85.97
-67.67
-46.53
-24.60
-4.15
12.93
25.59
33.87
38.71
41.45
43.29
44.80
46.03
46.71
46.69
46.15
45.50
45.10
45.05
45.07
44.75
43.83
42.39
40.77
39.40
38.49
37.96
37.48
36.69
35.41
33.73
31.97
30.47
29.50
29.00
28.61
27.73
25.69
21.98
16.47
9.47
1.69
-5.99
-12.85
-18.53
-23.10
-26.91
-30.47
-34.29
-38.82
-44.45
-51.34
-59.24
-67.32
-74.19
-78.22
-78.04
-73.09
-63.77
-51.31
-37.31
-23.24
-10.17
1.30
10.94
18.75
24.92
29.72
33.53
36.67
39.41
41.93
44.29
46.52
48.61
50.57
52.35
53.86
54.94
55.45
55.23
54.22
52.46
50.17
47.63
45.15
42.90
40.83
38.67
36.07
32.76
28.72
24.12
19.25
14.33
9.41
4.39
-0.86
-6.39
-12.06
-17.60
-22.67
-27.00
-30.51
-33.32
-35.74
-38.25
-41.38
-45.69
-51.46
-58.44
-65.70
-71.75
-74.88
-73.78
-68.00
-58.14
-45.59
-32.05
-18.98
-7.28
2.70
10.96
17.67
22.98
27.10
30.28
32.83
35.02
37.04
38.87
40.42
41.52
42.05
41.97
41.30
40.12
38.55
36.76
34.93
33.20
31.56
29.88
27.87
25.20
21.69
17.36
12.44
7.30
2.29
-2.39
-6.74
-10.88
-15.00
-19.28
-23.85
-28.93
-34.73
-41.45
-49.04
-57.03
-64.45
-69.94
-72.13
-70.03
-63.43
-52.89
-39.67
-25.31
-11.20
1.57
12.44
21.21
28.05
33.27
37.23
40.22
42.40
43.74
44.13
43.45
41.75
39.24
36.26
33.19
30.32
27.79
25.63
23.68
21.74
19.55
16.87
13.55
9.55
5.05
0.32
-4.32
-8.66
-12.68
-16.69
-21.26
-26.99
-34.22
-42.74
-51.56
-59.08
-63.47
-63.35
-58.21
-48.67
-36.21
-22.67
-9.74
1.47
10.49
17.41
22.61
26.59
29.82
32.64
35.27
37.76
40.04
41.91
43.15
43.55
43.05
41.75
39.89
37.76
35.57
33.30
30.75
27.61
23.62
18.77
13.28
7.58
2.12
-2.79
-7.12
-11.09
-15.15
-19.81
-25.45
-32.02
-38.91
-44.94
-48.64
-48.72
-44.48
-36.09
-24.57
-11.40
1.84
13.90
24.03
31.93
37.65
41.41
43.59
44.62
44.99
45.11
45.25
45.41
45.37
44.82
43.52
41.47
38.86
36.04
33.21
30.42
27.48
24.08
19.96
15.01
9.27
2.86
-4.00
-11.02
-17.79
-23.80
-28.63
-32.19
-34.87
-37.51
-41.00
-45.77
-51.36
-56.39
-58.99
-57.52
-51.27
-40.76
-27.60
-13.86
-1.35
8.80
16.38
21.78
25.73
28.84
31.53
33.93
36.05
37.85
39.27
40.22
40.56
40.08
38.51
35.63
31.34
25.69
18.93
11.37
3.27
-5.19
-13.99
-23.09
-32.42
-41.73
-50.67
-58.98
-66.58
-73.73
-80.96
-88.88
-97.91
-108.01
-118.59
-128.49
-136.04
-139.42
-137.09
-128.20
-112.93
-92.49
-68.86
-44.26
-20.58
0.92
19.71
35.95
50.32
63.87
77.80
93.18
110.53
129.51
148.80
166.32
179.93
188.17
190.98
189.79
187.16
185.67
186.92
190.71
195.26
198.11
197.36
192.62
184.98
176.15
167.17
157.82
146.84
132.95
115.56
94.95
71.60
45.55
16.44
-15.60
-48.96
-80.18
-105.08
-120.60
-126.55
-125.89
-123.33
-123.04
-126.79
-133.39
-139.79
-142.91
-141.12
-134.67
-125.11
-114.31
-103.55
-93.38
-83.86
-75.03
-67.24
-61.02
-56.85
-54.75
-54.14
-53.99
-53.24
-51.15
-47.67
-43.36
-39.10
-35.81
-34.04
-33.87
-34.94
-36.69
-38.56
-40.15
-41.28
-42.00
-42.50
-43.05
-43.91
-45.30
-47.43
-50.48
-54.54
-59.38
-64.36
-68.34
-69.90
-67.79
-61.35
-50.86
-37.47
-22.83
-8.59
4.05
14.57
23.07
29.95
35.72
40.72
45.12
48.94
52.12
54.62
56.45
57.61
58.18
58.23
57.88
57.29
56.70
56.39
56.48
56.91
57.36
57.32
56.30
53.97
50.32
45.66
40.47
35.26
30.41
26.09
22.27
18.73
15.15
11.24
6.83
1.91
-3.31
-8.49
-13.29
-17.54
-21.36
-25.16
-29.52
-35.04
-41.94
-49.89
-57.91
-64.53
-68.15
-67.58
-62.42
-53.23
-41.31
-28.27
-15.60
-4.28
5.22
12.93
19.12
24.15
28.33
31.86
34.85
37.29
39.13
40.35
40.94
41.00
40.70
40.23
39.76
39.49
39.49
39.76
40.12
40.25
39.84
38.71
36.87
34.53
31.97
29.37
26.74
24.04
21.20
18.32
15.57
13.07
10.83
8.63
6.18
3.19
-0.39
-4.44
-8.63
-12.68
-16.38
-19.69
-22.71
-25.68
-28.87
-32.62
-37.19
-42.70
-48.93
-55.21
-60.42
-63.26
-62.58
-57.84
-49.33
-38.10
-25.68
-13.55
-2.82
5.98
12.85
18.10
22.13
25.26
27.70
29.57
30.93
31.81
32.28
32.35
32.10
31.58
30.91
30.24
29.73
29.51
29.62
29.97
30.31
30.33
29.73
28.30
25.98
22.90
19.31
15.53
11.89
8.53
5.42
2.39
-0.82
-4.34
-8.16
-12.08
-15.88
-19.33
-22.42
-25.28
-28.21
-31.64
-35.91
-41.14
-47.01
-52.67
-56.85
-58.19
-55.77
-49.45
-39.98
-28.73
-17.23
-6.67
2.29
9.53
15.26
19.73
23.12
25.55
27.17
28.15
28.72
29.11
29.44
29.78
30.14
30.48
30.80
31.10
31.39
31.67
31.94
32.13
32.12
31.75
30.87
29.40
27.32
24.73
21.77
18.64
15.48
12.41
9.44
6.56
3.68
0.67
-2.56
-6.04
-9.70
-13.40
-16.93
-20.17
-23.14
-26.02
-29.17
-32.96
-37.65
-43.16
-48.96
-54.05
-57.24
-57.41
-53.94
-46.95
-37.23
-26.01
-14.59
-4.00
5.07
12.26
17.43
20.66
22.19
22.51
22.24
21.94
21.96
22.38
23.01
23.64
24.19
24.73
25.46
26.48
27.71
28.95
29.93
30.45
30.44
29.97
29.13
28.01
26.63
24.95
22.94
20.57
17.87
14.97
12.02
9.20
6.61
4.28
2.10
-0.10
-2.49
-5.17
-8.12
-11.24
-14.36
-17.30
-19.99
-22.45
-24.81
-27.28
-30.14
-33.69
-38.12
-43.43
-49.22
-54.68
-58.65
-59.97
-57.87
-52.27
-43.91
-34.05
-24.14
-15.30
-8.06
-2.48
1.74
4.90
7.20
8.69
9.43
9.57
9.37
9.17
9.29
9.96
11.23
12.95
14.75
16.17
16.79
16.43
15.26
13.77
12.54
12.07
12.58
14.01
16.05
18.34
20.44
21.93
22.35
21.38
18.87
15.02
10.41
5.84
2.05
-0.48
-1.69
-1.94
-1.84
-2.00
-2.92
-4.90
-8.06
-12.42
-17.95
-24.51
-31.68
-38.71
-44.50
-47.92
-48.17
-45.07
-39.20
-31.59
-23.41
-15.53
-8.46
-2.32
2.92
7.29
10.81
13.47
15.38
16.67
17.60
18.36
19.17
20.12
21.26
22.50
23.69
24.66
25.33
25.75
26.05
26.25
26.18
25.47
23.74
20.83
16.98
12.79
8.93
5.84
3.58
1.86
0.27
-1.44
-3.21
-4.85
-6.20
-7.34
-8.63
-10.56
-13.57
-17.87
-23.47
-30.17
-37.57
-45.04
-51.60
-56.10
-57.42
-54.89
-48.59
-39.44
-28.88
-18.44
-9.22
-1.70
4.27
9.10
13.22
16.79
19.75
21.93
23.24
23.78
23.83
23.71
23.64
23.66
23.63
23.35
22.70
21.70
20.61
19.74
19.30
19.20
19.09
18.49
17.09
14.84
12.05
9.17
6.56
4.29
2.21
-0.00
-2.54
-5.39
-8.31
-11.00
-13.18
-14.75
-15.81
-16.65
-17.63
-19.20
-21.76
-25.54
-30.55
-36.46
-42.59
-47.96
-51.47
-52.08
-49.13
-42.57
-33.09
-21.96
-10.71
-0.70
7.24
13.02
17.12
20.27
23.11
25.94
28.64
30.96
32.68
33.81
34.59
35.32
36.16
37.08
37.88
38.40
38.58
38.54
38.41
38.25
37.97
37.40
36.35
34.70
32.44
29.61
26.36
22.92
19.55
16.54
14.02
11.93
10.01
7.87
5.20
1.88
-1.97
-6.01
-9.86
-13.11
-15.51
-17.04
-18.02
-19.07
-21.01
-24.48
-29.64
-35.90
-41.94
-46.10
-46.89
-43.60
-36.46
-26.65
-15.79
-5.42
3.46
10.53
16.09
20.73
25.02
29.32
33.61
37.58
40.72
42.53
42.67
41.14
38.30
34.76
31.21
28.15
25.86
24.39
23.73
23.92
24.96
26.76
28.82
30.38
30.56
28.77
25.06
20.10
14.89
10.30
6.64
3.65
0.69
-2.79
-6.99
-11.71
-16.53
-21.11
-25.39
-29.52
-33.72
-38.12
-42.64
-47.22
-51.82
-56.52
-61.29
-65.75
-69.07
-70.16
-68.00
-62.22
-53.32
-42.59
-31.61
-21.73
-13.67
-7.48
-2.84
0.64
3.11
4.58
5.06
4.75
4.08
3.54
3.54
4.28
5.77
7.95
10.71
13.93
17.30
20.37
22.58
23.47
22.89
21.09
18.65
16.23
14.34
13.15
12.46
11.94
11.24
10.15
8.60
6.56
4.00
0.95
-2.45
-5.91
-9.04
-11.55
-13.35
-14.63
-15.82
-17.37
-19.60
-22.68
-26.61
-31.40
-37.00
-43.22
-49.53
-55.04
-58.62
-59.30
-56.56
-50.55
-42.03
-32.16
-22.06
-12.67
-4.53
2.20
7.60
11.90
15.36
18.21
20.54
22.41
23.75
24.52
24.78
24.68
24.46
24.39
24.63
25.24
26.16
27.30
28.50
29.63
30.51
30.96
30.83
30.06
28.71
27.04
25.28
23.61
22.00
20.24
18.09
15.40
12.18
8.65
5.05
1.60
-1.55
-4.36
-6.84
-9.03
-11.05
-13.09
-15.32
-17.93
-20.95
-24.33
-27.95
-31.74
-35.74
-40.04
-44.65
-49.31
-53.36
-55.89
-55.91
-52.79
-46.52
-37.77
-27.71
-17.63
-8.55
-1.05
4.75
9.02
12.06
14.17
15.62
16.62
17.33
17.85
18.25
18.57
18.84
19.09
19.38
19.77
20.35
21.17
22.30
23.64
24.96
25.90
26.04
25.11
23.10
20.31
17.26
14.47
12.31
10.79
9.59
8.24
6.36
3.79
0.79
-2.23
-4.83
-6.80
-8.25
-9.47
-10.78
-12.30
-13.96
-15.56
-16.96
-18.20
-19.55
-21.48
-24.42
-28.58
-33.80
-39.37
-44.18
-46.94
-46.58
-42.65
-35.49
-26.16
-16.11
-6.67
1.16
6.94
10.71
12.82
13.81
14.29
14.78
15.63
17.04
18.96
21.25
23.71
26.11
28.24
29.92
30.93
31.19
30.72
29.71
28.49
27.35
26.44
25.67
24.80
23.54
21.75
19.42
16.74
13.96
11.33
9.02
7.09
5.45
3.89
2.15
-0.02
-2.77
-6.05
-9.65
-13.25
-16.54
-19.35
-21.72
-23.85
-26.07
-28.74
-32.10
-36.16
-40.59
-44.73
-47.70
-48.64
-46.99
-42.60
-35.83
-27.44
-18.34
-9.44
-1.47
5.15
10.26
13.98
16.64
18.59
20.10
21.28
22.08
22.39
22.22
21.71
21.12
20.70
20.53
20.49
20.37
20.01
19.38
18.59
17.79
17.03
16.21
15.07
13.36
10.93
7.78
4.05
-0.02
-4.18
-8.12
-11.57
-14.33
-16.36
-17.85
-19.21
-20.97
-23.55
-27.18
-31.66
-36.40
-40.41
-42.66
-42.29
-38.99
-33.05
-25.34
-16.97
-8.94
-1.82
4.29
9.59
14.33
18.57
22.09
24.54
25.57
25.10
23.39
20.98
18.54
16.65
15.62
15.58
16.52
18.42
21.40
25.48
30.48
35.84
40.69
44.12
45.59
45.16
43.48
41.52
40.14
39.81
40.50
41.83
43.27
44.31
44.58
43.85
42.03
39.13
35.33
30.85
25.86
20.29
13.86
6.21
-2.84
-12.95
-23.17
-32.03
-38.01
-39.99
-37.68
-31.72
-23.43
-14.41
-6.01
0.92
6.10
9.71
12.10
13.65
14.69
15.43
16.03
16.54
16.93
17.06
16.73
15.80
14.27
12.30
10.27
8.60
7.66
7.62
8.35
9.44
10.29
10.27
8.89
5.99
1.77
-3.24
-8.38
-12.97
-16.50
-18.74
-19.76
-19.91
-19.78
-19.98
-20.90
-22.61
-24.77
-26.88
-28.52
-29.65
-30.58
-31.95
-34.36
-38.15
-43.20
-48.95
-54.45
-58.55
-60.15
-58.51
-53.47
-45.55
-35.89
-25.89
-16.82
-9.47
-4.03
-0.14
2.79
5.33
7.80
10.23
12.48
14.38
15.87
17.02
18.01
18.95
19.81
20.41
20.57
20.23
19.54
18.78
18.17
17.75
17.27
16.31
14.49
11.62
7.83
3.44
-1.13
-5.58
-9.75
-13.63
-17.30
-20.85
-24.36
-27.90
-31.63
-35.77
-40.45
-45.65
-50.97
-55.59
-58.49
-58.70
-55.72
-49.72
-41.48
-32.20
-23.07
-15.00
-8.46
-3.52
0.02
2.47
4.15
5.36
6.31
7.15
7.85
8.27
8.18
7.38
5.80
3.61
1.20
-0.96
-2.53
-3.52
-4.46
-6.24
-9.93
-16.22
-25.11
-35.65
-46.18
-54.84
-60.26
-62.04
-60.84
-58.08
-55.31
-53.75
-53.99
-55.93
-58.97
-62.02
-63.60
-62.02
-55.84
-44.69
-29.72
-13.35
1.78
14.00
23.42
31.47
39.81
49.08
58.53
66.66
72.48
76.46
80.42
86.44
95.41
106.41
117.12
125.24
129.68
131.09
131.27
132.12
134.82
139.47
145.35
151.47
156.99
161.30
163.90
164.24
161.77
156.16
147.52
136.53
124.25
111.86
100.29
90.04
80.91
72.08
62.31
50.36
35.55
18.15
-0.45
-18.31
-33.75
-46.31
-57.22
-69.06
-84.69
-105.85
-132.10
-160.66
-187.28
-207.71
-219.14
-220.94
-214.48
-202.31
-187.00
-170.45
-153.72
-137.40
-122.04
-108.33
-96.99
-88.35
-82.10
-77.27
-72.62
-67.14
-60.38
-52.55
-44.27
-36.23
-28.85
-22.23
-16.17
-10.44
-4.92
0.29
4.84
8.27
10.06
9.93
7.92
4.45
0.16
-4.36
-8.85
-13.49
-18.75
-25.05
-32.33
-39.87
-46.38
-50.46
-51.19
-48.43
-42.95
-36.02
-28.88
-22.32
-16.52
-11.17
-5.83
-0.26
5.50
11.16
16.37
20.86
24.57
27.54
29.97
32.04
33.88
35.53
37.00
38.27
39.27
39.93
40.13
39.67
38.34
35.98
32.63
28.59
24.37
20.47
17.25
14.75
12.70
10.72
8.54
6.07
3.42
0.82
-1.57
-3.75
-5.87
-8.17
-10.94
-14.48
-18.99
-24.54
-30.88
-37.36
-42.99
-46.63
-47.35
-44.78
-39.21
-31.60
-23.20
-15.18
-8.34
-2.93
1.22
4.53
7.45
10.26
13.05
15.70
18.06
19.97
21.39
22.38
23.07
23.63
24.14
24.68
25.27
25.91
26.61
27.36
28.09
28.68
28.88
28.42
27.11
24.94
22.15
19.19
16.55
14.53
13.15
12.12
11.06
9.63
7.75
5.64
3.64
2.04
0.97
0.29
-0.25
-0.95
-2.05
-3.62
-5.64
-7.99
-10.53
-13.18
-15.93
-18.86
-22.12
-25.89
-30.30
-35.21
-40.22
-44.61
-47.45
-47.89
-45.42
-40.10
-32.55
-23.84
-15.12
-7.36
-1.09
3.62
7.04
9.63
11.83
13.91
15.96
17.86
19.43
20.48
20.96
21.01
20.85
20.72
20.73
20.82
20.82
20.58
20.02
19.25
18.44
17.70
17.04
16.32
15.36
14.04
12.36
10.49
8.68
7.19
6.11
5.34
4.60
3.56
1.97
-0.20
-2.74
-5.34
-7.68
-9.70
-11.49
-13.35
-15.50
-18.11
-21.21
-24.80
-28.82
-33.20
-37.63
-41.51
-44.00
-44.26
-41.76
-36.57
-29.39
-21.35
-13.54
-6.78
-1.32
3.04
6.75
10.19
13.60
16.99
20.25
23.27
26.01
28.49
30.79
33.00
35.11
37.07
38.76
40.10
41.04
41.58
41.81
41.74
41.35
40.48
39.01
36.84
34.09
31.03
27.98
25.19
22.73
20.46
18.13
15.55
12.69
9.67
6.73
4.06
1.67
-0.61
-3.06
-5.89
-9.19
-12.79
-16.41
-19.71
-22.51
-24.79
-26.75
-28.69
-30.95
-33.82
-37.39
-41.55
-45.79
-49.33
-51.21
-50.58
-47.01
-40.69
-32.44
-23.40
-14.77
-7.39
-1.62
2.67
5.92
8.67
11.32
14.06
16.81
19.39
21.60
23.35
24.68
25.69
26.45
26.97
27.27
27.40
27.55
27.94
28.75
29.95
31.26
32.26
32.55
31.96
30.64
28.95
27.29
25.92
24.89
24.01
22.99
21.61
19.77
17.54
15.12
12.71
10.46
8.41
6.42
4.30
1.81
-1.16
-4.60
-8.33
-12.13
-15.79
-19.25
-22.60
-25.99
-29.53
-33.29
-37.27
-41.39
-45.51
-49.27
-52.06
-53.10
-51.65
-47.28
-40.19
-31.18
-21.43
-12.14
-4.12
2.34
7.42
11.56
15.16
18.47
21.50
24.18
26.38
28.04
29.21
30.00
30.57
31.03
31.48
31.90
32.31
32.73
33.21
33.78
34.37
34.75
34.60
33.61
31.69
29.02
26.02
23.15
20.72
18.76
17.03
15.20
12.99
10.33
7.34
4.24
1.21
-1.66
-4.40
-7.12
-9.91
-12.83
-15.83
-18.83
-21.70
-24.39
-26.89
-29.30
-31.78
-34.55
-37.86
-41.82
-46.36
-51.08
-55.24
-57.96
-58.38
-55.96
-50.68
-43.07
-34.09
-24.86
-16.31
-9.06
-3.22
1.40
5.17
8.46
11.48
14.26
16.76
18.90
20.61
21.92
22.86
23.50
23.90
24.16
24.39
24.74
25.32
26.13
27.03
27.81
28.21
28.06
27.34
26.17
24.72
23.14
21.52
19.86
18.11
16.24
14.23
12.13
9.96
7.76
5.57
3.41
1.28
-0.82
-2.99
-5.38
-8.11
-11.27
-14.76
-18.36
-21.76
-24.74
-27.33
-29.84
-32.79
-36.60
-41.40
-46.76
-51.79
-55.33
-56.34
-54.24
-49.04
-41.35
-32.14
-22.47
-13.27
-5.18
1.49
6.70
10.62
13.51
15.64
17.28
18.61
19.79
20.94
22.08
23.22
24.24
24.98
25.31
25.19
24.75
24.20
23.83
23.75
23.88
23.92
23.46
22.18
20.01
17.19
14.17
11.42
9.23
7.61
6.29
4.86
2.94
0.35
-2.90
-6.58
-10.39
-14.07
-17.46
-20.60
-23.63
-26.81
-30.42
-34.61
-39.35
-44.28
-48.69
-51.65
-52.25
-49.89
-44.56
-36.86
-27.87
-18.78
-10.59
-3.80
1.53
5.64
8.89
11.52
13.63
15.27
16.43
17.14
17.47
17.53
17.42
17.24
17.12
17.19
17.55
18.24
19.15
20.02
20.53
20.38
19.41
17.73
15.66
13.61
11.92
10.72
9.91
9.24
8.46
7.47
6.40
5.50
4.98
4.78
4.45
3.22
0.24
-5.17
-13.15
-23.22
-34.25
-44.69
-52.92
-57.62
-58.08
-54.36
-47.22
-37.91
-27.87
-18.30
-10.08
-3.62
1.06
4.27
6.49
8.25
10.02
12.02
14.26
16.46
18.26
19.40
19.86
19.80
19.61
19.63
20.05
20.89
21.98
23.05
23.79
23.96
23.40
22.09
20.10
17.61
14.89
12.13
9.50
7.02
4.62
2.16
-0.48
-3.36
-6.48
-9.79
-13.20
-16.65
-20.10
-23.64
-27.42
-31.67
-36.53
-41.81
-46.89
-50.72
-52.11
-50.14
-44.58
-35.96
-25.52
-14.70
-4.73
3.73
10.58
16.15
20.84
24.94
28.51
31.45
33.68
35.24
36.30
37.10
37.79
38.38
38.73
38.73
38.38
37.83
37.32
37.04
37.00
37.00
36.79
36.06
34.70
32.73
30.35
27.82
25.36
23.10
21.05
19.09
17.06
14.87
12.54
10.20
8.01
6.04
4.23
2.32
0.03
-2.79
-6.14
-9.80
-13.47
-16.90
-19.93
-22.60
-25.06
-27.58
-30.50
-34.13
-38.63
-43.81
-49.04
-53.28
-55.35
-54.33
-49.97
-42.77
-33.88
-24.68
-16.30
-9.40
-4.03
0.09
3.38
6.19
8.74
11.07
13.21
15.09
16.67
17.94
18.93
19.73
20.43
21.09
21.69
22.16
22.41
22.41
22.24
21.95
21.53
20.85
19.70
17.92
15.49
12.64
9.70
7.02
4.81
3.07
1.63
0.24
-1.25
-2.91
-4.66
-6.34
-7.85
-9.12
-10.19
-11.12
-12.06
-13.18
-14.71
-16.90
-20.02
-24.21
-29.33
-34.86
-39.86
-43.22
-43.91
-41.39
-35.76
-27.88
-19.01
-10.45
-3.16
2.51
6.74
10.03
12.91
15.69
18.38
20.76
22.58
23.67
24.07
23.89
23.29
22.38
21.28
20.14
19.20
18.79
19.07
19.99
21.15
21.95
21.82
20.41
17.81
14.42
10.80
7.45
4.58
2.21
0.13
-1.86
-3.85
-5.83
-7.69
-9.35
-10.79
-12.13
-13.57
-15.28
-17.40
-20.05
-23.26
-27.05
-31.21
-35.31
-38.58
-40.08
-39.01
-35.01
-28.35
-19.88
-10.76
-2.05
5.49
11.52
16.11
19.47
21.87
23.58
24.76
25.57
26.06
26.21
26.00
25.43
24.54
23.42
22.22
21.10
20.16
19.51
19.20
19.20
19.44
19.74
19.84
19.48
18.44
16.70
14.44
12.05
9.98
8.59
7.97
7.91
7.98
7.69
6.75
5.15
3.12
1.00
-0.94
-2.64
-4.24
-5.98
-8.12
-10.91
-14.49
-18.87
-23.86
-28.90
-33.18
-35.69
-35.63
-32.69
-27.19
-20.02
-12.37
-5.25
0.68
5.28
8.72
11.29
13.22
14.60
15.45
15.81
15.80
15.63
15.52
15.63
16.01
16.65
17.49
18.48
19.56
20.60
21.42
21.74
21.28
19.83
17.34
13.95
9.96
5.75
1.71
-1.94
-5.14
-8.06
-10.95
-14.01
-17.29
-20.70
-24.06
-27.19
-30.07
-32.78
-35.50
-38.44
-41.77
-45.59
-49.79
-53.98
-57.47
-59.30
-58.54
-54.62
-47.62
-38.29
-27.88
-17.72
-8.84
-1.73
3.64
7.66
10.79
13.32
15.35
16.75
17.43
17.49
17.34
17.58
18.77
21.17
24.51
28.08
31.08
32.89
33.31
32.58
31.11
29.21
27.00
24.40
21.35
17.94
14.46
11.31
8.77
6.89
5.49
4.24
2.87
1.20
-0.74
-2.88
-5.17
-7.66
-10.52
-13.95
-18.01
-22.53
-27.00
-30.60
-32.40
-31.63
-28.00
-21.81
-13.99
-5.75
1.74
7.73
12.04
14.98
17.15
19.13
21.27
23.60
25.92
27.96
29.48
30.40
30.77
30.69
30.16
29.11
27.46
25.18
22.48
19.68
17.16
15.13
13.52
12.02
10.29
8.09
5.48
2.75
0.19
-1.99
-3.83
-5.51
-7.26
-9.19
-11.23
-13.21
-14.93
-16.28
-17.29
-18.09
-18.90
-19.96
-21.54
-23.87
-27.04
-30.94
-35.15
-38.94
-41.37
-41.59
-39.10
-33.99
-26.95
-19.04
-11.37
-4.73
0.55
4.58
7.71
10.32
12.66
14.87
16.95
18.88
20.57
21.91
22.74
22.97
22.58
21.65
20.42
19.07
17.79
16.72
15.89
15.26
14.71
14.07
13.11
11.75
10.02
8.15
6.44
5.15
4.35
3.92
3.55
2.95
1.95
0.60
-0.89
-2.21
-3.08
-3.33
-2.96
-2.09
-0.95
0.17
1.03
1.46
1.45
1.02
0.17
-1.31
-3.79
-7.74
-13.53
-21.10
-29.90
-38.87
-46.74
-52.28
-54.70
-53.73
-49.66
-43.25
-35.48
-27.39
-19.92
-13.69
-8.98
-5.68
-3.42
-1.70
-0.09
1.66
3.59
5.61
7.53
9.17
10.44
11.28
11.75
11.97
12.06
12.11
12.12
11.99
11.56
10.71
9.41
7.72
5.79
3.74
1.59
-0.68
-3.13
-5.83
-8.80
-12.08
-15.66
-19.43
-23.11
-26.17
-27.96
-27.92
-25.82
-21.80
-16.47
-10.66
-5.20
-0.70
2.60
4.76
6.05
6.79
7.20
7.44
7.62
7.97
8.81
10.50
13.28
17.14
21.82
26.98
32.30
37.66
42.96
47.99
52.27
55.17
56.07
54.72
51.25
46.10
39.80
32.82
25.47
17.97
10.48
3.13
-4.04
-11.01
-17.74
-24.01
-29.36
-33.27
-35.38
-35.75
-34.99
-34.00
-33.70
-34.64
-36.90
-40.16
-43.87
-47.34
-49.86
-50.74
-49.41
-45.67
-39.91
-33.04
-26.25
-20.46
-15.76
-11.38
-6.08
1.03
9.82
19.03
26.86
31.92
33.88
33.59
32.49
31.80
32.06
33.13
34.59
36.14
37.66
39.05
39.91
39.57
37.33
32.89
26.58
19.21
11.73
4.83
-1.19
-6.35
-10.82
-14.75
-18.23
-21.40
-24.52
-27.98
-32.14
-37.13
-42.67
-48.11
-52.58
-55.30
-55.94
-54.68
-52.14
-49.15
-46.43
-44.47
-43.50
-43.57
-44.56
-46.20
-47.88
-48.70
-47.71
-44.16
-37.92
-29.50
-19.90
-10.18
-1.12
7.01
14.27
20.90
27.07
32.80
38.09
43.00
47.68
52.28
56.85
61.23
65.12
68.23
70.38
71.64
72.24
72.52
72.77
73.17
73.73
74.36
74.95
75.47
75.96
76.43
76.75
76.54
75.30
72.55
68.05
61.88
54.33
45.82
36.71
27.31
18.00
9.18
1.28
-5.42
-10.94
-15.68
-20.30
-25.53
-31.83
-39.26
-47.36
-55.23
-61.76
-65.93
-67.14
-65.48
-61.67
-56.87
-52.25
-48.57
-45.96
-43.98
-41.94
-39.21
-35.51
-30.93
-25.86
-20.73
-15.95
-11.77
-8.33
-5.68
-3.80
-2.61
-1.97
-1.67
-1.46
-1.09
-0.34
0.82
2.30
3.81
5.00
5.64
5.65
5.13
4.33
3.41
2.43
1.39
0.42
-0.12
0.34
2.24
5.60
9.76
13.60
16.02
16.51
15.35
13.46
11.85
11.14
11.35
12.07
12.80
13.09
12.53
10.62
6.71
0.29
-8.58
-19.00
-29.32
-37.58
-42.20
-42.45
-38.62
-31.77
-23.36
-14.73
-6.89
-0.36
4.72
8.48
11.20
13.13
14.47
15.30
15.60
15.28
14.15
12.05
8.92
4.91
0.46
-3.86
-7.44
-9.92
-11.26
-11.75
-11.89
-12.20
-13.02
-14.46
-16.29
-18.05
-19.13
-19.01
-17.41
-14.45
-10.63
-6.58
-2.95
-0.11
1.87
3.16
4.04
4.75
5.39
5.92
6.25
6.31
6.10
5.77
5.47
5.40
5.67
6.19
6.78
7.13
6.95
6.09
4.64
2.94
1.59
1.38
3.02
6.95
13.10
20.80
28.97
36.41
42.21
45.98
47.85
48.27
47.69
46.48
44.87
43.09
41.42
40.08
39.16
38.50
37.81
36.89
35.73
34.53
33.57
32.99
32.62
32.04
30.80
28.49
24.98
20.29
14.63
8.29
1.66
-4.79
-10.58
-15.35
-19.01
-21.74
-24.00
-26.30
-29.00
-32.18
-35.59
-38.78
-41.26
-42.76
-43.33
-43.27
-43.09
-43.30
-44.24
-45.98
-48.18
-50.18
-51.06
-49.95
-46.31
-40.19
-32.32
-23.88
-16.15
-10.09
-6.03
-3.68
-2.37
-1.33
-0.05
1.66
3.68
5.73
7.52
8.89
9.82
10.37
10.63
10.68
10.57
10.36
10.11
9.91
9.87
10.04
10.33
10.55
10.41
9.73
8.48
6.89
5.28
3.97
3.10
2.56
2.11
1.46
0.41
-1.10
-3.03
-5.26
-7.64
-9.99
-12.15
-14.01
-15.59
-17.09
-18.84
-21.10
-23.91
-26.94
-29.51
-30.79
-30.06
-26.99
-21.81
-15.20
-8.18
-1.76
3.25
6.46
7.87
7.84
6.87
5.52
4.22
3.28
2.83
2.91
3.51
4.60
6.10
7.86
9.65
11.19
12.27
12.81
12.86
12.61
12.23
11.85
11.50
11.15
10.70
10.07
9.22
8.14
6.89
5.55
4.18
2.81
1.40
-0.13
-1.81
-3.61
-5.38
-6.94
-8.16
-9.07
-9.81
-10.61
-11.59
-12.76
-14.12
-15.72
-17.70
-20.21
-23.16
-26.07
-28.02
-27.94
-25.09
-19.42
-11.68
-3.20
4.62
10.80
14.98
17.40
18.56
18.92
18.75
18.14
17.13
15.81
14.40
13.13
12.20
11.65
11.38
11.21
11.01
10.68
10.26
9.83
9.43
9.07
8.61
7.86
6.62
4.79
2.43
-0.24
-2.87
-5.18
-7.02
-8.44
-9.66
-10.91
-12.33
-13.91
-15.52
-17.01
-18.27
-19.28
-20.09
-20.75
-21.33
-21.87
-22.50
-23.39
-24.77
-26.82
-29.51
-32.52
-35.26
-36.90
-36.70
-34.20
-29.45
-23.00
-15.76
-8.71
-2.60
2.19
5.67
8.06
9.65
10.70
11.38
11.82
12.13
12.47
12.94
13.57
14.29
14.99
15.52
15.81
15.87
15.80
15.67
15.51
15.26
14.81
13.98
12.70
10.98
8.97
6.90
4.95
3.23
1.69
0.16
-1.56
-3.61
-5.96
-8.47
-10.92
-13.14
-15.09
-16.93
-18.96
-21.51
-24.78
-28.63
-32.54
-35.69
-37.21
-36.46
-33.28
-28.06
-21.60
-14.82
-8.48
-3.04
1.35
4.74
7.25
9.03
10.27
11.17
11.95
12.81
13.82
14.94
16.01
16.90
17.54
18.04
18.50
19.10
19.83
20.59
21.23
21.54
21.42
20.83
19.80
18.32
16.43
14.17
11.67
9.16
6.84
4.83
3.06
1.31
-0.70
-3.12
-5.92
-8.85
-11.63
-14.13
-16.44
-18.91
-22.00
-26.04
-31.01
-36.47
-41.56
-45.30
-46.84
-45.71
-42.01
-36.28
-29.34
-22.06
-15.16
-9.09
-4.02
0.06
3.34
6.06
8.50
10.86
13.26
15.66
17.92
19.88
21.39
22.44
23.14
23.71
24.37
25.24
26.31
27.42
28.37
28.96
29.08
28.76
28.04
27.00
25.65
24.01
22.10
19.94
17.65
15.30
13.03
10.88
8.88
7.02
5.26
3.53
1.72
-0.31
-2.71
-5.57
-8.83
-12.29
-15.63
-18.56
-20.95
-22.98
-25.06
-27.80
-31.60
-36.50
-41.99
-47.05
-50.45
-51.15
-48.66
-43.19
-35.55
-26.90
-18.37
-10.81
-4.66
0.00
3.37
5.78
7.65
9.34
11.11
13.09
15.23
17.40
19.45
21.26
22.75
23.86
24.59
24.99
25.24
25.56
26.15
27.00
27.84
28.24
27.81
26.42
24.30
21.93
19.84
18.47
18.03
18.48
19.53
20.69
21.31
20.73
18.54
14.71
9.72
4.37
-0.47
-4.28
-7.01
-9.06
-11.07
-13.58
-16.94
-21.18
-26.23
-31.95
-38.18
-44.70
-51.04
-56.47
-60.00
-60.70
-58.02
-52.08
-43.71
-34.22
-24.95
-16.82
-10.06
-4.30
1.08
6.57
12.16
17.41
21.71
24.63
26.17
26.73
26.92
27.23
27.84
28.62
29.28
29.61
29.64
29.58
29.64
29.86
30.04
29.79
28.73
26.68
23.82
20.57
17.45
14.94
13.23
12.26
11.72
11.13
10.00
7.98
4.96
1.17
-2.97
-6.94
-10.39
-13.32
-16.04
-19.10
-22.93
-27.69
-33.07
-38.34
-42.52
-44.66
-43.99
-40.23
-33.63
-25.06
-15.75
-7.06
-0.05
4.80
7.64
9.13
10.08
11.14
12.65
14.66
17.09
19.85
22.90
26.12
29.20
31.71
33.23
33.50
32.55
30.66
28.27
25.73
23.25
20.83
18.34
15.60
12.45
8.78
4.59
0.08
-4.47
-8.71
-12.36
-15.33
-17.76
-19.94
-22.24
-24.99
-28.41
-32.56
-37.30
-42.21
-46.54
-49.29
-49.48
-46.51
-40.41
-31.95
-22.41
-13.15
-5.14
1.23
6.10
9.90
13.02
15.63
17.67
19.05
19.77
20.04
20.15
20.41
21.00
21.91
22.95
23.86
24.38
24.39
23.90
23.06
22.02
20.91
19.69
18.16
16.05
13.18
9.56
5.46
1.32
-2.48
-5.71
-8.50
-11.15
-14.04
-17.41
-21.37
-25.92
-30.98
-36.36
-41.66
-46.17
-48.96
-49.10
-46.05
-39.97
-31.68
-22.48
-13.60
-5.90
0.40
5.56
10.02
14.19
18.19
21.91
25.15
27.75
29.66
30.98
31.86
32.42
32.75
32.87
32.83
32.69
32.60
32.62
32.76
32.83
32.56
31.64
29.86
27.27
24.12
20.80
17.66
14.85
12.26
9.58
6.49
2.82
-1.32
-5.56
-9.50
-12.85
-15.61
-18.09
-20.79
-24.23
-28.81
-34.56
-41.11
-47.63
-52.94
-55.79
-55.20
-50.82
-43.12
-33.24
-22.68
-12.83
-4.51
2.03
7.10
11.20
14.83
18.28
21.62
24.75
27.52
29.80
31.54
32.80
33.71
34.36
34.81
35.07
35.14
35.04
34.88
34.72
34.58
34.32
33.71
32.51
30.55
27.84
24.54
20.89
17.21
13.76
10.73
8.12
5.78
3.40
0.67
-2.54
-6.14
-9.80
-13.14
-15.90
-18.10
-20.07
-22.30
-25.28
-29.30
-34.38
-40.17
-45.93
-50.67
-53.30
-52.96
-49.24
-42.38
-33.23
-23.05
-13.15
-4.54
2.28
7.34
11.10
14.18
17.06
20.00
22.97
25.72
28.00
29.61
30.53
30.90
30.95
30.92
30.99
31.19
31.48
31.73
31.82
31.73
31.46
31.07
30.53
29.74
28.54
26.83
24.65
22.14
19.54
17.02
14.61
12.24
9.80
7.23
4.57
1.88
-0.77
-3.41
-6.06
-8.79
-11.59
-14.43
-17.24
-20.02
-22.81
-25.80
-29.23
-33.34
-38.23
-43.62
-48.83
-52.79
-54.32
-52.54
-47.25
-39.07
-29.28
-19.37
-10.60
-3.64
1.51
5.32
8.40
11.23
14.03
16.75
19.20
21.22
22.74
23.82
24.60
25.21
25.73
26.17
26.52
26.74
26.85
26.85
26.74
26.46
25.94
25.09
23.85
22.21
20.24
18.02
15.68
13.34
11.12
9.08
7.26
5.59
3.97
2.21
0.14
-2.31
-5.07
-7.95
-10.70
-13.10
-15.11
-16.85
-18.63
-20.75
-23.44
-26.79
-30.68
-34.82
-38.67
-41.59
-42.85
-41.86
-38.34
-32.44
-24.82
-16.42
-8.22
-0.99
4.98
9.80
13.86
17.54
20.97
24.02
26.40
27.83
28.32
28.11
27.65
27.34
27.36
27.64
27.95
28.12
28.18
28.39
29.08
30.40
32.23
34.11
35.47
35.84
35.11
33.51
31.55
29.73
28.34
27.35
26.41
25.01
22.69
19.31
15.00
10.10
4.93
-0.28
-5.53
-10.96
-16.82
-23.24
-30.17
-37.36
-44.46
-51.03
-56.53
-60.36
-61.96
-61.06
-57.77
-52.53
-46.07
-39.25
-32.83
-27.27
-22.73
-19.27
-17.27
-16.86
-17.75
-19.19
-20.27
-20.19
-18.39
-14.90
-10.14
-5.67
-2.62
-1.27
-1.02
-1.05
-0.62
1.05
4.42
9.72
15.37
19.69
20.99
17.62
7.63
-10.61
-37.36
-71.24
-108.98
-147.80
-183.67
-211.91
-228.17
-230.22
-218.71
-196.57
-168.60
-129.15
-79.75
-27.64
18.54
54.86
82.79
105.35
127.61
151.57
176.54
198.26
212.88
216.29
207.38
187.63
160.68
131.51
104.47
82.39
64.67
49.69
36.15
24.01
13.84
6.27
1.79
0.17
1.01
3.11
5.98
9.99
16.01
24.16
33.21
41.01
45.07
43.81
36.82
25.45
12.35
0.48
-8.10
-12.81
-14.37
-14.26
-13.79
-13.80
-14.36
-15.09
-15.42
-14.98
-13.55
-10.79
-6.25
0.52
9.37
19.14
27.77
32.97
33.31
29.01
22.00
15.16
11.06
11.02
14.86
21.25
28.39
34.58
38.56
39.59
37.53
32.94
27.05
21.47
17.65
16.30
17.26
19.80
23.22
27.27
32.23
38.48
46.01
54.22
62.25
69.39
75.57
81.34
87.47
94.46
102.18
109.76
115.84
119.07
118.44
113.71
105.45
94.84
83.24
71.70
60.49
49.15
36.75
22.45
5.83
-12.99
-33.47
-54.73
-75.48
-94.04
-108.63
-117.91
-121.60
-120.70
-117.09
-112.69
-108.64
-105.16
-101.95
-98.76
-95.82
-93.75
-93.19
-94.42
-97.33
-101.49
-106.12
-109.83
-110.54
-105.99
-94.71
-76.98
-55.25
-33.41
-15.38
-3.79
0.77
-0.59
-6.14
-14.29
-23.94
-34.08
-43.20
-48.96
-48.81
-41.38
-27.73
-11.74
0.89
4.80
-2.89
-21.51
-47.23
-75.03
-100.68
-121.95
-138.52
-151.04
-160.28
-166.93
-171.70
-175.57
-179.57
-184.07
-188.33
-190.49
-188.22
-179.68
-164.14
-142.07
-114.74
-83.49
-49.22
-12.17
28.00
71.86
119.86
171.76
226.18
280.41
330.68
372.97
404.16
422.95
430.16
428.20
419.88
407.15
390.44
368.90
341.39
307.59
268.66
226.99
185.46
146.56
111.76
81.21
53.85
27.67
-0.05
-32.33
-71.80
-119.56
-174.02
-230.26
-280.59
-316.55
-331.66
-323.92
-296.63
-257.22
-214.42
-175.33
-143.58
-119.36
-100.93
-86.37
-74.65
-65.49
-58.66
-53.34
-48.19
-42.03
-34.46
-26.10
-18.30
-12.33
-8.77
-7.21
-6.48
-5.28
-2.74
1.18
5.73
9.73
12.16
12.59
11.29
9.09
6.96
5.54
4.97
4.87
4.58
3.55
1.55
-1.25
-4.42
-7.47
-10.16
-12.58
-15.10
-18.09
-21.58
-25.08
-27.67
-28.33
-26.34
-21.60
-14.65
-6.51
1.79
9.44
16.04
21.57
26.12
29.77
32.51
34.21
34.77
34.25
32.89
31.07
29.22
27.62
26.32
25.20
24.01
22.57
20.88
19.09
17.41
16.03
15.00
14.14
13.15
11.60
9.12
5.50
0.80
-4.61
-10.15
-15.20
-19.27
-22.09
-23.76
-24.65
-25.30
-26.29
-28.05
-30.78
-34.36
-38.39
-42.18
-44.90
-45.73
-44.03
-39.62
-32.83
-24.51
-15.86
-8.11
-2.11
1.80
3.84
4.50
4.32
3.64
2.65
1.47
0.27
-0.73
-1.38
-1.68
-1.78
-1.89
-2.10
-2.38
-2.54
-2.49
-2.28
-2.13
-2.37
-3.24
-4.80
-6.95
-9.45
-12.09
-14.73
-17.31
-19.83
-22.31
-24.77
-27.29
-30.00
-33.04
-36.43
-39.91
-42.83
-44.34
-43.60
-40.21
-34.41
-27.01
-19.14
-11.86
-5.86
-1.39
1.65
3.48
4.29
4.20
3.24
1.50
-0.90
-3.77
-6.85
-9.81
-12.33
-14.12
-15.03
-15.14
-14.80
-14.56
-15.02
-16.62
-19.54
-23.64
-28.50
-33.66
-38.74
-43.62
-48.43
-53.43
-58.90
-64.94
-71.50
-78.29
-84.97
-91.24
-96.95
-102.16
-107.01
-111.47
-115.20
-117.45
-117.29
-114.10
-107.90
-99.52
-90.31
-81.82
-75.30
-71.61
-71.14
-73.65
-77.99
-81.88
-82.13
-75.70
-61.16
-39.51
-14.13
10.66
31.44
47.15
59.04
69.57
80.64
92.56
104.05
113.17
118.44
119.47
116.81
111.35
103.73
94.14
82.41
68.41
52.47
35.64
19.68
6.70
-1.49
-4.03
-1.39
4.78
12.27
19.19
24.58
28.57
31.87
35.11
38.18
40.31
40.45
38.00
33.25
27.39
21.89
17.80
15.15
13.03
10.07
5.33
-1.15
-8.23
-14.22
-17.66
-17.98
-15.65
-11.78
-7.51
-3.51
0.04
3.42
7.02
11.36
16.97
24.22
33.08
42.75
51.68
58.10
60.84
60.04
57.26
54.89
54.87
57.84
62.89
68.24
72.28
74.40
75.14
75.60
76.72
78.69
81.04
82.99
83.95
83.84
82.90
81.42
79.51
77.00
73.59
69.08
63.48
57.02
50.07
43.14
36.75
31.38
27.32
24.45
22.18
19.53
15.40
8.93
-0.44
-12.84
-28.06
-45.57
-64.38
-83.04
-99.72
-112.47
-119.58
-119.99
-113.51
-100.97
-83.96
-64.52
-44.79
-26.77
-12.32
-3.19
-0.88
-6.16
-18.60
-36.22
-55.98
-74.63
-89.98
-101.52
-110.21
-117.52
-124.17
-129.63
-132.34
-130.69
-123.96
-112.67
-98.32
-82.78
-67.60
-53.66
-41.11
-29.36
-17.41
-4.10
11.35
28.74
46.51
61.83
71.27
71.90
62.38
43.63
18.69
-8.04
-31.96
-49.40
-58.39
-58.85
-52.32
-41.42
-29.04
-17.57
-8.24
-0.98
5.26
11.59
18.24
23.95
26.33
22.97
12.88
-2.45
-19.08
-31.85
-36.27
-30.29
-15.06
5.65
27.11
45.41
58.59
66.62
70.48
71.04
68.53
62.77
53.94
43.12
32.15
22.77
15.58
9.62
2.82
-6.85
-20.15
-35.98
-51.74
-64.35
-71.44
-72.05
-66.69
-56.86
-44.45
-31.22
-18.56
-7.47
1.53
8.46
13.99
19.20
25.27
32.88
41.91
51.35
59.76
65.89
69.27
70.37
70.26
70.09
70.48
71.28
71.69
70.79
67.87
62.79
56.04
48.52
41.26
35.13
30.63
27.80
26.19
25.03
23.42
20.56
15.97
9.61
1.83
-6.69
-15.12
-22.64
-28.79
-33.71
-38.20
-43.45
-50.34
-58.66
-66.75
-71.82
-70.97
-62.51
-46.72
-25.88
-3.50
16.71
31.89
40.42
42.25
38.84
32.90
27.92
27.26
33.12
45.71
63.18
82.15
98.73
109.55
112.29
105.94
90.76
68.33
41.52
14.30
-9.06
-24.91
-31.43
-29.21
-21.15
-11.61
-4.94
-4.13
-9.93
-20.85
-34.02
-46.45
-56.13
-62.57
-66.45
-68.84
-70.34
-70.76
-69.33
-65.32
-58.50
-49.30
-38.47
-26.73
-14.56
-2.40
9.11
18.89
25.58
28.06
25.86
19.60
10.88
1.89
-5.19
-8.72
-8.02
-3.47
3.54
10.94
16.50
18.46
16.06
9.84
1.42
-6.95
-13.32
-16.70
-17.29
-16.30
-15.27
-15.42
-17.16
-20.16
-23.62
-26.73
-29.05
-30.63
-31.92
-33.52
-35.78
-38.49
-40.68
-40.71
-36.76
-27.52
-12.86
5.73
25.44
42.77
54.66
59.35
56.87
48.92
38.29
28.03
20.73
17.93
19.92
25.85
33.99
42.17
48.36
51.06
49.69
44.63
37.15
29.00
22.00
17.56
16.35
18.02
21.36
24.57
25.89
24.19
19.37
12.37
4.80
-1.75
-6.32
-8.95
-10.50
-12.12
-14.66
-18.19
-21.88
-24.42
-24.54
-21.61
-15.91
-8.50
-0.83
5.89
11.01
14.55
16.89
18.35
19.00
18.60
17.01
14.39
11.36
8.80
7.41
7.48
8.62
10.01
10.58
9.45
6.11
0.59
-6.60
-14.50
-21.98
-27.99
-31.83
-33.39
-33.13
-31.95
-30.94
-31.09
-33.04
-37.01
-42.71
-49.62
-57.10
-64.54
-71.46
-77.30
-81.35
-82.72
-80.63
-74.70
-65.30
-53.58
-41.15
-29.53
-19.63
-11.56
-4.76
1.43
7.30
12.52
16.38
18.23
18.04
16.60
15.25
15.32
17.54
21.76
27.11
32.51
37.26
41.18
44.51
47.47
49.98
51.74
52.46
52.28
51.85
52.07
53.56
56.35
59.85
63.13
65.37
66.03
64.64
60.64
53.28
41.94
26.69
8.69
-9.84
-26.31
-38.55
-45.45
-46.99
-43.80
-36.65
-26.13
-12.76
2.61
18.52
32.92
43.61
48.78
47.49
39.78
26.39
8.33
-13.41
-37.71
-63.02
-86.95
-106.29
-117.66
-118.27
-106.60
-82.67
-47.96
-5.35
40.94
85.27
121.14
142.40
145.20
129.52
99.66
63.06
27.94
0.83
-15.04
-19.91
-16.78
-9.98
-4.09
-2.82
-8.20
-19.94
-35.42
-50.34
-60.03
-61.05
-52.12
-34.48
-11.18
13.97
37.40
56.52
69.91
77.23
78.98
76.17
70.02
61.78
52.61
43.61
35.75
29.82
26.26
25.01
25.56
27.14
28.94
30.29
30.58
29.23
25.59
19.21
10.09
-1.03
-12.78
-23.54
-32.05
-37.77
-40.94
-42.17
-42.04
-40.86
-38.79
-36.02
-32.93
-29.84
-26.77
-23.22
-18.44
-11.93
-3.91
4.58
12.11
17.59
20.80
22.34
23.20
24.09
25.17
26.21
27.02
27.77
29.00
31.17
34.27
37.62
40.11
40.79
39.36
36.41
33.15
30.91
30.56
32.10
34.61
36.56
36.30
32.66
25.30
14.90
3.10
-8.00
-16.35
-20.47
-19.96
-15.54
-8.94
-2.27
2.65
5.07
5.57
5.83
7.80
12.78
20.83
30.82
40.99
49.81
56.47
60.99
63.81
65.30
65.62
64.77
62.90
60.42
57.87
55.59
53.49
51.07
47.67
42.83
36.64
29.70
22.98
17.47
13.87
12.31
12.40
13.28
14.03
13.92
12.67
10.43
7.56
4.37
0.91
-2.92
-7.21
-11.76
-16.06
-19.42
-21.33
-21.66
-20.84
-19.71
-19.28
-20.43
-23.62
-28.68
-34.83
-40.78
-45.11
-46.70
-45.14
-40.84
-34.93
-28.77
-23.46
-19.52
-16.85
-14.97
-13.41
-11.90
-10.50
-9.36
-8.52
-7.78
-6.66
-4.69
-1.66
2.26
6.47
10.18
12.63
13.33
12.18
9.50
5.92
2.26
-0.67
-2.27
-2.33
-1.04
1.07
3.24
4.70
4.88
3.58
1.09
-1.77
-3.90
-4.37
-2.87
-0.02
2.76
3.79
1.80
-3.59
-11.75
-21.37
-30.95
-39.14
-44.95
-47.65
-46.70
-41.71
-32.60
-19.89
-4.84
10.59
24.05
33.40
37.25
35.27
28.24
17.66
5.28
-7.45
-19.63
-30.90
-41.26
-50.80
-59.69
-68.07
-76.05
-83.47
-89.58
-92.91
-91.45
-83.28
-67.50
-44.98
-18.67
7.03
27.62
40.05
43.78
40.87
35.03
30.15
28.90
31.98
38.38
46.14
53.32
58.53
61.01
60.38
56.32
48.66
37.74
24.78
11.90
1.66
-3.80
-3.57
1.64
9.76
18.13
24.42
27.33
26.77
23.73
19.75
16.36
14.63
14.93
16.75
18.73
18.91
15.06
5.42
-10.37
-30.54
-51.11
-66.64
-71.78
-63.13
-40.43
-6.79
32.26
70.55
102.89
126.13
139.22
142.59
137.31
124.54
105.43
81.42
54.52
27.29
2.42
-17.97
-32.90
-42.73
-48.80
-52.60
-55.11
-56.48
-56.33
-54.21
-50.21
-45.07
-39.90
-35.63
-32.67
-30.71
-29.08
-27.18
-24.92
-22.81
-21.64
-22.00
-23.93
-26.79
-29.64
-31.68
-32.66
-32.87
-32.92
-33.24
-33.86
-34.34
-34.16
-33.04
-31.16
-29.08
-27.39
-26.50
-26.47
-27.16
-28.48
-30.53
-33.55
-37.76
-43.14
-49.39
-56.05
-62.56
-68.44
-73.15
-76.11
-76.71
-74.51
-69.45
-61.99
-52.98
-43.41
-34.10
-25.55
-18.01
-11.59
-6.38
-2.43
0.41
2.47
4.17
5.84
7.49
8.90
9.71
9.69
8.90
7.72
6.64
6.10
6.25
6.96
7.89
8.60
8.74
8.10
6.63
4.39
1.50
-1.85
-5.45
-9.06
-12.55
-15.86
-19.15
-22.62
-26.33
-30.06
-33.16
-34.76
-34.06
-30.76
-25.18
-18.26
-11.14
-4.78
0.34
4.31
7.48
10.19
12.41
13.78
13.84
12.33
9.47
5.92
2.57
0.08
-1.37
-2.22
-3.28
-5.39
-9.03
-14.12
-19.92
-25.17
-28.47
-28.76
-25.84
-20.75
-15.61
-13.15
-15.62
-23.83
-36.57
-50.76
-62.39
-67.76
-64.66
-52.90
-34.19
-11.45
12.08
33.49
50.63
62.24
67.88
67.89
63.37
56.01
47.85
40.93
36.81
36.27
39.19
44.73
51.67
58.82
65.22
70.30
73.73
75.35
75.11
73.04
69.28
64.03
57.51
49.94
41.56
32.73
24.04
16.13
9.63
4.77
1.32
-1.38
-4.19
-7.92
-13.12
-19.92
-28.10
-36.97
-45.46
-52.30
-56.27
-56.60
-53.29
-47.15
-39.54
-31.94
-25.37
-20.15
-15.95
-12.15
-8.25
-4.17
-0.30
2.81
4.67
5.13
4.42
3.01
1.45
0.14
-0.66
-0.91
-0.70
-0.19
0.43
1.03
1.50
1.75
1.67
1.07
-0.28
-2.51
-5.57
-9.14
-12.71
-15.77
-18.03
-19.54
-20.66
-21.93
-23.90
-26.94
-31.20
-36.52
-42.48
-48.33
-53.05
-55.51
-54.76
-50.31
-42.44
-32.16
-21.04
-10.71
-2.38
3.50
7.24
9.57
11.31
12.98
14.74
16.52
18.25
19.97
21.75
23.59
25.29
26.51
27.02
26.86
26.42
26.20
26.51
27.25
27.91
27.83
26.57
24.09
20.68
16.74
12.50
8.00
3.24
-1.54
-5.74
-8.52
-9.13
-7.38
-3.92
-0.21
1.89
0.75
-4.41
-13.14
-23.72
-33.66
-40.37
-41.86
-37.32
-27.30
-13.49
1.81
16.40
28.75
38.32
45.47
51.03
55.87
60.39
64.56
68.01
70.35
71.43
71.29
70.10
68.03
65.18
61.69
57.77
53.63
49.36
44.79
39.50
33.03
25.22
16.39
7.33
-0.92
-7.46
-11.86
-14.12
-14.63
-13.90
-12.42
-10.62
-8.84
-7.37
-6.51
-6.54
-7.77
-10.51
-14.99
-21.19
-28.68
-36.47
-43.21
-47.50
-48.46
-46.04
-41.14
-35.23
-29.86
-26.04
-24.06
-23.41
-23.16
-22.23
-19.76
-15.23
-8.60
-0.33
8.74
17.56
25.13
30.81
34.42
36.22
36.71
36.29
35.12
33.08
29.93
25.55
20.15
14.32
8.87
4.64
2.14
1.39
2.02
3.39
4.92
6.23
7.15
7.57
7.39
6.58
5.28
3.86
2.78
2.34
2.45
2.55
1.91
-0.04
-3.37
-7.63
-12.00
-15.55
-17.54
-17.56
-15.56
-11.84
-6.94
-1.53
3.76
8.48
12.36
15.19
16.70
16.47
14.01
9.01
1.55
-7.75
-17.74
-26.90
-33.64
-36.67
-35.31
-29.76
-21.15
-11.35
-2.46
3.79
6.53
6.05
3.48
0.32
-2.11
-3.13
-2.59
-0.73
2.14
5.72
9.69
13.55
16.63
18.31
18.31
16.96
15.10
13.75
13.70
15.23
18.13
21.93
26.14
30.27
33.83
36.22
36.74
34.81
30.19
23.20
14.65
5.64
-2.75
-9.62
-14.43
-17.04
-17.64
-16.80
-15.31
-14.07
-13.85
-15.07
-17.71
-21.25
-24.86
-27.64
-28.93
-28.54
-26.88
-24.90
-23.76
-24.45
-27.38
-32.19
-37.90
-43.35
-47.70
-50.78
-53.17
-55.84
-59.83
-65.79
-73.84
-83.45
-93.55
-102.69
-109.28
-112.06
-110.45
-104.81
-96.40
-86.81
-77.31
-68.32
-59.29
-49.20
-37.23
-23.31
-8.13
7.36
22.66
38.01
54.27
72.25
92.08
112.83
132.80
150.10
163.25
171.45
174.35
171.85
163.82
150.28
131.65
108.99
83.90
58.05
32.79
8.83
-13.62
-34.53
-53.74
-70.82
-85.18
-96.29
-103.89
-108.15
-109.73
-109.68
-109.13
-108.69
-107.92
-105.17
-98.10
-84.72
-64.59
-39.21
-11.58
15.09
38.65
58.60
75.68
90.86
104.46
115.95
124.37
129.16
130.58
129.65
127.59
125.23
122.70
119.53
114.97
108.48
99.95
89.77
78.73
67.71
57.47
48.45
40.74
34.15
28.40
23.15
18.04
12.71
6.87
0.42
-6.35
-12.72
-17.67
-20.15
-19.62
-16.28
-11.25
-6.26
-3.24
-3.69
-8.27
-16.55
-27.08
-37.75
-46.37
-51.13
-51.19
-46.76
-39.03
-29.69
-20.44
-12.49
-6.32
-1.82
1.46
3.94
5.84
7.23
8.12
8.60
8.86
9.10
9.38
9.55
9.40
8.73
7.51
5.97
4.49
3.49
3.15
3.33
3.54
3.14
1.57
-1.42
-5.62
-10.50
-15.30
-19.39
-22.43
-24.49
-25.98
-27.54
-29.87
-33.49
-38.57
-44.76
-51.16
-56.59
-59.82
-60.04
-57.10
-51.57
-44.55
-37.34
-31.12
-26.72
-24.53
-24.43
-25.83
-27.77
-29.15
-29.09
-27.36
-24.56
-21.86
-20.31
-20.06
-20.09
-18.60
-14.29
-7.30
0.41
6.00
7.13
3.06
-5.40
-16.83
-30.14
-44.53
-58.58
-69.19
-71.73
-61.88
-38.26
-4.05
33.56
66.29
88.31
98.34
99.41
96.43
93.58
92.77
93.98
96.49
99.91
104.22
109.03
112.88
113.27
107.67
94.71
75.04
51.13
26.41
4.01
-13.95
-26.68
-34.40
-37.87
-38.02
-35.76
-32.03
-27.77
-23.88
-20.97
-19.28
-18.62
-18.57
-18.70
-18.88
-19.29
-20.28
-22.09
-24.60
-27.27
-29.27
-29.90
-28.89
-26.55
-23.72
-21.38
-20.26
-20.63
-22.20
-24.40
-26.65
-28.56
-30.08
-31.36
-32.74
-34.56
-37.07
-40.34
-44.15
-47.93
-50.89
-52.18
-51.18
-47.76
-42.26
-35.42
-28.05
-20.84
-14.18
-8.27
-3.19
0.98
4.17
6.35
7.56
8.00
7.98
7.88
8.08
8.87
10.32
12.26
14.32
16.00
16.94
16.97
16.24
15.08
13.78
12.47
10.98
9.01
6.30
2.94
-0.71
-4.13
-6.97
-9.28
-11.61
-14.75
-19.39
-25.72
-33.29
-41.05
-47.68
-52.01
-53.30
-51.48
-46.97
-40.57
-33.20
-25.67
-18.69
-12.74
-8.13
-4.85
-2.52
-0.49
1.98
5.45
9.98
15.20
20.42
24.99
28.52
31.02
32.78
34.14
35.32
36.38
37.27
37.91
38.28
38.51
38.77
39.20
39.71
39.94
39.25
36.91
32.47
26.00
18.18
10.09
2.84
-2.81
-6.65
-8.95
-10.23
-11.10
-12.13
-13.85
-16.86
-21.62
-28.32
-36.52
-45.12
-52.46
-56.82
-56.98
-52.69
-44.81
-34.99
-25.24
-17.14
-11.56
-8.42
-6.99
-6.32
-5.56
-4.32
-2.60
-0.68
1.09
2.52
3.58
4.36
4.99
5.55
6.02
6.38
6.64
6.83
7.04
7.23
7.29
6.95
5.98
4.21
1.73
-1.15
-4.02
-6.52
-8.44
-9.83
-10.95
-12.10
-13.54
-15.40
-17.65
-20.22
-23.08
-26.26
-29.83
-33.70
-37.55
-40.79
-42.66
-42.46
-39.81
-34.75
-27.77
-19.65
-11.25
-3.33
3.57
9.18
13.47
16.62
18.90
20.60
21.90
22.90
23.64
24.15
24.54
24.95
25.54
26.41
27.48
28.57
29.47
29.99
30.07
29.75
29.09
28.10
26.71
24.83
22.37
19.43
16.23
13.07
10.23
7.81
5.67
3.53
1.03
-2.03
-5.61
-9.44
-13.12
-16.31
-18.98
-21.35
-23.86
-26.99
-31.04
-36.04
-41.64
-47.13
-51.61
-54.12
-53.92
-50.69
-44.74
-36.83
-28.02
-19.33
-11.49
-4.80
0.77
5.45
9.56
13.31
16.85
20.22
23.37
26.18
28.55
30.49
32.12
33.65
35.24
36.89
38.34
39.27
39.37
38.57
36.99
34.95
32.77
30.63
28.57
26.44
24.02
21.10
17.53
13.37
8.85
4.40
0.48
-2.53
-4.51
-5.62
-6.27
-6.90
-7.92
-9.50
-11.64
-14.20
-17.00
-19.82
-22.46
-24.72
-26.49
-27.87
-29.29
-31.37
-34.64
-39.21
-44.47
-49.14
-51.65
-50.77
-46.10
-38.24
-28.53
-18.55
-9.55
-2.22
3.39
7.56
10.67
13.03
14.87
16.42
17.94
19.64
21.60
23.68
25.55
26.82
27.27
26.96
26.23
25.59
25.45
25.95
26.94
27.98
28.59
28.39
27.25
25.25
22.64
19.70
16.66
13.72
11.03
8.65
6.61
4.76
2.89
0.77
-1.74
-4.56
-7.42
-9.98
-12.06
-13.74
-15.41
-17.64
-20.92
-25.49
-31.14
-37.20
-42.61
-46.17
-46.87
-44.23
-38.46
-30.38
-21.20
-12.12
-4.08
2.45
7.38
10.95
13.48
15.36
16.83
18.03
18.92
19.44
19.54
19.36
19.15
19.23
19.74
20.62
21.60
22.38
22.81
22.94
22.97
22.95
22.72
21.96
20.40
18.05
15.31
12.72
10.71
9.29
8.06
6.35
3.66
-0.11
-4.60
-9.12
-13.04
-15.97
-17.93
-19.26
-20.52
-22.27
-24.94
-28.77
-33.71
-39.36
-44.97
-49.56
-52.09
-51.77
-48.26
-41.83
-33.27
-23.69
-14.24
-5.88
0.81
5.63
8.79
10.74
12.02
13.14
14.40
15.92
17.60
19.34
21.05
22.69
24.17
25.33
25.99
26.05
25.64
25.09
24.84
25.17
25.92
26.59
26.53
25.25
22.66
19.11
15.23
11.64
8.70
6.38
4.41
2.44
0.22
-2.28
-4.88
-7.36
-9.59
-11.64
-13.76
-16.28
-19.46
-23.39
-28.03
-33.15
-38.42
-43.36
-47.29
-49.43
-49.11
-46.02
-40.40
-33.00
-24.87
-17.01
-10.01
-4.08
0.91
5.13
8.67
11.51
13.62
15.15
16.37
17.66
19.38
21.70
24.51
27.48
30.16
32.12
33.11
33.18
32.66
31.93
31.28
30.72
30.03
28.80
26.69
23.62
19.74
15.42
11.07
6.95
3.12
-0.49
-4.00
-7.43
-10.73
-13.74
-16.38
-18.77
-21.26
-24.34
-28.44
-33.76
-40.14
-47.07
-53.82
-59.60
-63.71
-65.59
-64.93
-61.68
-56.13
-48.79
-40.42
-31.85
-23.90
-17.26
-12.37
-9.39
-8.21
-8.49
-9.75
-11.50
-13.28
-14.76
-15.80
-16.48
-17.05
-17.84
-18.98
-20.21
-20.76
-19.57
-15.64
-8.57
1.10
11.96
22.09
29.72
33.74
34.04
31.42
27.18
22.55
18.29
14.54
11.03
7.59
4.65
3.24
4.64
9.69
18.30
29.35
41.18
52.20
61.36
68.14
72.38
74.02
73.12
70.02
65.35
59.76
53.39
45.62
35.39
22.09
6.50
-8.86
-20.26
-24.22
-18.87
-4.82
15.09
36.86
56.70
72.02
81.52
84.76
81.47
71.43
54.81
33.06
9.29
-12.05
-26.43
-30.94
-25.42
-12.51
3.53
18.40
29.12
34.40
34.33
29.78
22.01
12.66
3.81
-2.16
-3.22
1.73
12.32
26.63
41.38
52.50
55.92
48.54
29.36
0.16
-34.60
-69.01
-97.58
-116.92
-126.73
-129.32
-128.14
-126.20
-125.00
-124.38
-123.27
-120.63
-116.15
-110.41
-104.54
-99.62
-96.21
-94.00
-91.98
-88.86
-83.58
-75.74
-65.65
-54.09
-41.83
-29.33
-16.69
-3.86
9.12
21.90
33.92
44.70
54.07
62.30
69.93
77.47
85.06
92.30
98.27
101.87
102.18
98.93
92.65
84.50
75.88
67.74
60.22
52.60
43.76
32.96
20.31
6.91
-5.55
-15.44
-21.70
-23.99
-22.64
-18.39
-12.19
-5.10
1.79
7.56
11.65
14.05
15.25
15.94
16.55
17.03
16.83
15.23
11.78
6.57
0.22
-6.30
-11.97
-16.06
-18.16
-18.21
-16.46
-13.38
-9.62
-6.02
-3.50
-2.89
-4.63
-8.63
-14.15
-20.04
-25.11
-28.65
-30.67
-31.90
-33.51
-36.51
-41.44
-48.14
-55.81
-63.28
-69.26
-72.60
-72.48
-68.67
-61.55
-52.08
-41.55
-31.12
-21.58
-13.17
-5.72
1.08
7.43
13.35
18.67
23.14
26.56
28.86
30.13
30.69
31.02
31.70
33.19
35.69
38.96
42.36
45.08
46.41
46.03
44.06
40.99
37.40
33.71
30.07
26.39
22.53
18.49
14.43
10.62
7.26
4.33
1.61
-1.19
-4.40
-8.20
-12.68
-17.85
-23.56
-29.48
-34.96
-39.03
-40.68
-39.14
-34.27
-26.64
-17.48
-8.18
0.08
6.69
11.64
15.34
18.32
20.99
23.52
25.86
27.89
29.50
30.68
31.53
32.20
32.87
33.72
34.81
36.11
37.44
38.55
39.18
39.18
38.50
37.26
35.64
33.83
31.93
29.96
27.88
25.61
23.14
20.53
17.92
15.48
13.36
11.58
10.04
8.53
6.78
4.58
1.86
-1.28
-4.61
-7.85
-10.77
-13.31
-15.57
-17.84
-20.51
-24.00
-28.62
-34.37
-40.81
-46.98
-51.51
-53.10
-50.91
-44.96
-36.13
-25.94
-15.94
-7.31
-0.57
4.37
7.96
10.71
13.01
15.06
16.94
18.66
20.22
21.60
22.77
23.76
24.60
25.35
26.04
26.67
27.23
27.76
28.39
29.33
30.82
33.03
35.92
39.28
42.71
45.81
48.21
49.73
50.32
49.94
48.60
46.20
42.60
37.62
31.17
23.31
14.37
4.97
-4.07
-11.99
-18.25
-22.81
-26.12
-28.92
-31.94
-35.64
-40.11
-45.13
-50.31
-55.21
-59.33
-62.04
-62.58
-60.31
-54.88
-46.57
-36.20
-25.00
-14.16
-4.59
3.27
9.37
13.83
16.84
18.51
18.90
18.14
16.39
13.90
11.00
8.05
5.41
3.35
2.03
1.48
1.63
2.37
3.56
5.00
6.49
7.78
8.73
9.31
9.60
9.74
9.82
9.87
9.90
9.99
10.27
10.87
11.74
12.61
12.94
12.05
9.40
4.71
-1.83
-9.57
-17.41
-24.06
-28.28
-29.31
-27.06
-22.25
-16.14
-10.07
-5.05
-1.39
1.18
3.26
5.35
7.64
9.94
11.85
13.03
13.30
12.77
11.78
10.81
10.38
10.85
12.16
13.68
14.14
12.01
6.18
-3.50
-15.83
-28.57
-39.24
-45.93
-48.02
-46.15
-41.80
-36.63
-31.96
-28.61
-27.00
-27.41
-30.05
-34.96
-41.83
-49.82
-57.68
-63.96
-67.42
-67.26
-63.33
-55.90
-45.57
-32.98
-18.70
-3.18
13.27
30.30
47.33
63.25
76.36
84.59
86.16
80.49
68.76
53.87
39.65
29.51
25.27
26.68
31.78
37.94
42.89
45.36
45.16
42.84
39.21
35.09
31.15
27.95
25.90
25.21
25.78
27.11
28.44
28.85
27.57
24.14
18.60
11.37
3.14
-5.29
-13.18
-19.85
-24.71
-27.26
-27.23
-24.62
-19.90
-13.94
-7.86
-2.75
0.65
2.09
1.88
0.67
-0.77
-1.77
-1.93
-1.16
0.32
2.12
3.77
4.94
5.54
5.76
5.99
6.60
7.73
9.21
10.60
11.45
11.49
10.84
9.87
9.02
8.58
8.51
8.57
8.42
7.89
7.06
6.21
5.64
5.56
5.86
6.18
6.00
4.78
2.14
-2.08
-7.76
-14.59
-22.12
-29.83
-37.14
-43.43
-48.13
-50.78
-51.13
-49.21
-45.37
-40.17
-34.29
-28.35
-22.74
-17.58
-12.74
-7.99
-3.14
1.84
6.70
11.07
14.63
17.25
19.10
20.57
22.07
23.83
25.84
27.83
29.54
30.79
31.58
32.11
32.54
32.92
33.09
32.72
31.53
29.40
26.43
22.88
19.08
15.25
11.49
7.76
4.02
0.23
-3.50
-6.97
-9.96
-12.32
-14.10
-15.54
-17.11
-19.33
-22.59
-27.01
-32.28
-37.66
-42.15
-44.77
-44.80
-42.00
-36.69
-29.63
-21.83
-14.24
-7.59
-2.25
1.80
4.84
7.29
9.50
11.71
13.93
16.04
17.86
19.28
20.31
21.08
21.76
22.45
23.13
23.71
24.07
24.16
23.98
23.61
23.09
22.39
21.40
19.98
18.09
15.84
13.46
11.23
9.35
7.77
6.30
4.68
2.69
0.31
-2.31
-4.99
-7.60
-10.15
-12.86
-15.95
-19.59
-23.74
-28.03
-31.88
-34.51
-35.22
-33.57
-29.51
-23.47
-16.19
-8.58
-1.44
4.62
9.30
12.53
14.45
15.31
15.44
15.19
14.87
14.67
14.66
14.81
14.99
15.07
14.95
14.57
13.99
13.38
12.89
12.69
12.78
12.99
12.99
12.44
11.12
9.03
6.42
3.69
1.26
-0.65
-2.07
-3.23
-4.46
-6.00
-7.92
-10.10
-12.30
-14.33
-16.11
-17.67
-19.19
-20.87
-22.92
-25.38
-28.10
-30.74
-32.73
-33.45
-32.38
-29.32
-24.43
-18.21
-11.33
-4.50
1.70
6.86
10.77
13.42
15.00
15.89
16.59
17.49
18.81
20.45
22.15
23.59
24.59
25.17
25.49
25.71
25.83
25.72
25.11
23.75
21.54
18.54
15.02
11.30
7.70
4.41
1.52
-0.99
-3.18
-5.17
-7.09
-9.02
-10.98
-12.88
-14.54
-15.81
-16.66
-17.29
-18.12
-19.64
-22.16
-25.65
-29.56
-33.01
-34.97
-34.69
-31.91
-26.99
-20.71
-14.05
-7.90
-2.77
1.15
4.00
6.03
7.46
8.41
9.00
9.39
9.81
10.46
11.43
12.57
13.54
13.94
13.55
12.44
10.95
9.59
8.75
8.57
8.88
9.26
9.25
8.54
7.00
4.80
2.27
-0.19
-2.27
-3.84
-4.97
-5.97
-7.22
-9.11
-11.87
-15.47
-19.57
-23.53
-26.55
-27.84
-26.90
-23.65
-18.52
-12.31
-5.96
-0.30
4.12
7.15
8.94
9.86
10.32
10.67
11.18
11.99
13.16
14.59
16.06
17.19
17.58
16.96
15.33
13.01
10.52
8.37
6.87
5.99
5.40
4.68
3.45
1.54
-0.99
-3.94
-6.98
-9.81
-12.19
-13.99
-15.26
-16.25
-17.36
-19.06
-21.72
-25.34
-29.53
-33.42
-35.99
-36.36
-34.17
-29.66
-23.59
-16.99
-10.74
-5.42
-1.21
2.03
4.59
6.76
8.75
10.69
12.57
14.31
15.80
16.97
17.76
18.17
18.22
17.98
17.54
17.01
16.53
16.24
16.21
16.35
16.42
16.11
15.20
13.62
11.58
9.37
7.26
5.38
3.66
1.88
-0.14
-2.47
-5.00
-7.56
-9.97
-12.12
-14.00
-15.75
-17.54
-19.60
-22.17
-25.34
-28.98
-32.66
-35.65
-37.15
-36.52
-33.51
-28.44
-22.07
-15.40
-9.29
-4.27
-0.45
2.42
4.71
6.77
8.74
10.59
12.22
13.53
14.52
15.28
15.96
16.67
17.43
18.14
18.66
18.81
18.51
17.81
16.86
15.90
15.04
14.29
13.49
12.41
10.94
9.11
7.15
5.35
3.96
3.03
2.44
2.00
1.44
0.56
-0.75
-2.53
-4.74
-7.27
-9.93
-12.50
-14.80
-16.73
-18.40
-20.07
-22.13
-24.90
-28.48
-32.56
-36.42
-39.04
-39.50
-37.31
-32.63
-26.25
-19.28
-12.75
-7.25
-2.93
0.38
2.97
5.07
6.83
8.40
9.89
11.43
13.02
14.51
15.71
16.47
16.79
16.80
16.71
16.64
16.63
16.61
16.55
16.44
16.30
16.11
15.79
15.17
14.16
12.72
10.96
9.10
7.34
5.91
4.85
4.09
3.42
2.54
1.17
-0.81
-3.33
-6.07
-8.63
-10.69
-12.18
-13.31
-14.47
-16.10
-18.51
-21.78
-25.75
-30.10
-34.29
-37.70
-39.60
-39.37
-36.69
-31.70
-25.04
-17.71
-10.76
-4.98
-0.69
2.27
4.37
6.09
7.80
9.57
11.28
12.76
13.91
14.75
15.43
16.07
16.74
17.33
17.69
17.70
17.38
16.93
16.57
16.47
16.57
16.66
16.39
15.53
14.01
11.98
9.72
7.55
5.72
4.30
3.20
2.16
0.88
-0.88
-3.13
-5.70
-8.21
-10.35
-11.99
-13.26
-14.52
-16.15
-18.39
-21.30
-24.71
-28.33
-31.74
-34.44
-35.91
-35.61
-33.25
-28.89
-22.99
-16.34
-9.84
-4.23
0.09
3.11
5.13
6.56
7.77
9.00
10.30
11.59
12.71
13.48
13.81
13.72
13.30
12.72
12.17
11.79
11.76
12.20
13.28
14.99
17.04
18.83
19.49
18.27
14.85
9.58
3.38
-2.66
-7.76
-11.74
-14.91
-17.71
-20.27
-22.19
-22.79
-21.56
-18.58
-14.68
-11.23
-9.50
-10.18
-12.99
-16.89
-20.42
-22.34
-22.08
-19.79
-16.21
-12.19
-8.31
-4.65
-0.91
3.36
8.45
14.27
20.32
25.88
30.23
32.86
33.62
32.66
30.41
27.34
23.96
20.72
17.93
15.78
14.26
13.19
12.27
11.14
9.54
7.34
4.63
1.65
-1.30
-3.91
-5.94
-7.29
-8.01
-8.28
-8.41
-8.69
-9.26
-10.07
-10.90
-11.56
-11.97
-12.35
-13.08
-14.62
-17.26
-21.02
-25.59
-30.42
-34.83
-38.15
-39.85
-39.61
-37.43
-33.65
-28.82
-23.67
-18.80
-14.59
-11.11
-8.17
-5.44
-2.57
0.65
4.28
8.18
12.07
15.63
18.54
20.54
21.53
21.51
20.61
19.06
17.11
15.00
12.94
11.10
9.55
8.27
7.19
6.15
5.02
3.72
2.27
0.76
-0.75
-2.20
-3.57
-4.89
-6.21
-7.55
-9.00
-10.73
-12.99
-16.02
-19.85
-24.20
-28.44
-31.71
-33.18
-32.35
-29.20
-24.14
-17.88
-11.19
-4.69
1.25
6.51
11.20
15.43
19.25
22.60
25.31
27.17
28.10
28.15
27.55
26.55
25.36
24.09
22.78
21.47
20.27
19.33
18.69
18.24
17.70
16.74
15.11
12.81
10.02
7.09
4.28
1.75
-0.52
-2.61
-4.65
-6.74
-9.01
-11.64
-14.80
-18.61
-23.08
-28.03
-33.08
-37.76
-41.53
-43.85
-44.33
-42.70
-39.01
-33.54
-26.83
-19.53
-12.30
-5.69
-0.07
4.36
7.57
9.62
10.72
11.15
11.27
11.46
12.04
13.27
15.30
18.22
21.97
26.40
31.24
36.04
40.31
43.52
45.27
45.38
43.91
41.16
37.55
33.47
29.23
25.01
20.88
16.88
13.07
9.53
6.33
3.46
0.74
-2.09
-5.39
-9.41
-14.27
-19.80
-25.57
-30.92
-35.16
-37.69
-38.16
-36.54
-33.17
-28.63
-23.66
-18.96
-15.03
-11.98
-9.59
-7.33
-4.70
-1.43
2.28
5.81
8.30
9.12
8.09
5.71
2.88
0.55
-0.73
-0.97
-0.66
-0.40
-0.52
-0.86
-0.91
-0.10
1.80
4.47
7.15
8.99
9.42
8.47
6.74
5.12
4.41
4.89
6.15
7.20
6.81
3.99
-1.60
-9.52
-18.64
-27.42
-34.42
-38.59
-39.50
-37.47
-33.47
-28.91
-25.30
-23.72
-24.34
-26.17
-27.30
-25.44
-18.85
-7.03
8.98
26.94
44.09
57.94
66.84
70.13
67.96
60.98
50.12
36.52
21.49
6.42
-7.48
-19.56
-29.94
-39.56
-49.80
-61.95
-76.70
-93.81
-112.29
-130.70
-147.38
-160.71
-169.01
-170.50
-163.59
-147.43
-122.68
-91.92
-59.26
-28.95
-3.57
17.09
35.74
55.62
78.11
101.30
120.67
131.58
132.09
124.20
112.90
103.47
99.16
100.44
106.27
115.82
129.50
148.09
170.98
195.09
215.46
227.56
229.75
224.20
215.68
208.92
206.21
206.58
206.94
203.97
195.71
181.97
163.48
140.86
114.22
83.75
50.52
16.82
-14.60
-41.80
-64.48
-83.58
-100.03
-113.49
-122.14
-123.58
-116.36
-100.80
-78.68
-52.09
-22.54
8.80
39.65
65.46
79.79
76.77
54.39
16.76
-26.70
-64.72
-88.97
-97.52
-95.11
-90.38
-91.39
-102.13
-121.53
-145.05
-167.57
-185.53
-197.43
-202.95
-201.82
-193.70
-179.14
-161.03
-145.01
-138.00
-145.25
-167.18
-198.07
-227.56
-244.43
-240.92
-215.46
-172.50
-119.75
-64.71
-12.17
36.01
79.59
118.38
151.51
177.82
196.90
209.47
216.87
220.17
219.50
214.43
204.97
192.44
179.57
169.48
164.29
163.95
166.25
167.68
164.86
155.78
140.33
120.15
97.80
75.81
55.93
38.91
24.60
12.34
1.25
-9.74
-21.75
-35.87
-52.75
-72.17
-92.66
-111.78
-126.67
-135.00
-135.75
-129.46
-117.98
-103.77
-89.26
-76.29
-65.94
-58.52
-53.78
-51.16
-50.03
-49.85
-50.23
-50.93
-51.63
-51.93
-51.34
-49.52
-46.48
-42.82
-39.49
-37.45
-37.11
-38.05
-38.93
-37.67
-31.91
-19.55
0.67
28.59
62.46
99.23
135.23
167.09
192.36
209.64
218.19
217.61
207.59
188.43
161.48
129.47
95.93
64.19
36.38
13.08
-6.19
-22.05
-34.67
-43.81
-49.41
-52.29
-54.13
-57.03
-62.58
-71.21
-82.16
-93.93
-105.02
-114.35
-121.37
-125.85
-127.81
-127.35
-124.83
-120.87
-116.22
-111.59
-107.43
-103.87
-100.74
-97.71
-94.39
-90.46
-85.63
-79.78
-72.96
-65.33
-57.19
-48.87
-40.66
-32.78
-25.38
-18.45
-11.85
-5.28
1.66
9.31
17.69
26.42
34.76
41.86
47.06
50.11
51.17
50.65
48.98
46.44
43.16
39.21
34.69
29.83
24.97
20.47
16.70
13.85
12.01
11.11
10.98
11.39
12.10
12.90
13.58
14.02
14.07
13.64
12.68
11.20
9.28
7.02
4.51
1.71
-1.46
-5.13
-9.28
-13.67
-17.76
-20.76
-21.92
-20.75
-17.32
-12.21
-6.40
-0.86
3.70
6.99
9.10
10.27
10.73
10.60
9.94
8.85
7.51
6.16
5.01
4.10
3.41
2.86
2.41
2.09
1.93
1.94
2.00
1.95
1.54
0.63
-0.78
-2.57
-4.50
-6.34
-7.94
-9.30
-10.52
-11.82
-13.40
-15.28
-17.35
-19.25
-20.54
-20.77
-19.64
-17.05
-13.20
-8.47
-3.43
1.34
5.39
8.49
10.64
12.01
12.81
13.19
13.21
12.83
12.04
10.94
9.70
8.60
7.82
7.46
7.47
7.71
7.98
8.10
7.93
7.40
6.49
5.23
3.67
1.90
0.04
-1.77
-3.34
-4.59
-5.55
-6.48
-7.72
-9.67
-12.49
-15.99
-19.58
-22.46
-23.85
-23.30
-20.80
-16.77
-11.87
-6.79
-2.12
1.78
4.72
6.66
7.65
7.85
7.48
6.83
6.14
5.56
5.08
4.64
4.15
3.63
3.21
3.02
3.13
3.48
3.89
4.13
4.08
3.69
3.03
2.14
0.97
-0.59
-2.66
-5.23
-8.17
-11.23
-14.18
-16.91
-19.42
-21.71
-23.62
-24.78
-24.70
-22.91
-19.29
-14.11
-8.04
-1.95
3.41
7.56
10.42
12.20
13.22
13.80
14.09
14.11
13.78
13.03
11.88
10.49
9.07
7.89
7.13
6.84
6.88
7.04
7.03
6.64
5.77
4.45
2.81
1.02
-0.80
-2.60
-4.37
-6.14
-7.97
-9.94
-12.16
-14.68
-17.42
-20.11
-22.24
-23.20
-22.42
-19.67
-15.17
-9.53
-3.60
1.76
6.02
8.95
10.66
11.42
11.55
11.28
10.75
10.09
9.36
8.60
7.85
7.12
6.40
5.71
5.09
4.60
4.28
4.11
3.98
3.75
3.24
2.29
0.87
-0.98
-3.12
-5.36
-7.49
-9.42
-11.16
-12.89
-14.87
-17.34
-20.34
-23.59
-26.50
-28.29
-28.25
-25.99
-21.58
-15.64
-9.05
-2.80
2.39
6.20
8.68
10.14
10.91
11.24
11.22
10.94
10.47
9.94
9.48
9.17
8.95
8.72
8.44
8.11
7.82
7.66
7.62
7.53
7.15
6.25
4.75
2.76
0.54
-1.64
-3.62
-5.39
-7.11
-9.01
-11.33
-14.19
-17.51
-21.07
-24.37
-26.78
-27.63
-26.42
-23.02
-17.75
-11.43
-5.03
0.54
4.79
7.64
9.35
10.34
10.93
11.25
11.32
11.12
10.71
10.26
9.92
9.79
9.81
9.85
9.78
9.49
9.01
8.39
7.64
6.74
5.61
4.15
2.39
0.42
-1.62
-3.60
-5.54
-7.54
-9.79
-12.47
-15.63
-19.15
-22.66
-25.59
-27.23
-26.97
-24.47
-19.86
-13.74
-7.05
-0.75
4.44
8.23
10.71
12.15
12.83
12.89
12.44
11.59
10.56
9.59
8.95
8.71
8.80
9.05
9.31
9.47
9.47
9.29
8.90
8.21
7.19
5.81
4.13
2.22
0.15
-2.04
-4.34
-6.77
-9.38
-12.27
-15.55
-19.29
-23.36
-27.41
-30.79
-32.67
-32.38
-29.56
-24.42
-17.67
-10.32
-3.34
2.63
7.35
10.89
13.46
15.22
16.20
16.44
16.04
15.25
14.45
14.00
14.10
14.66
15.38
15.90
15.93
15.43
14.52
13.37
12.12
10.74
9.12
7.14
4.82
2.33
-0.09
-2.23
-4.07
-5.80
-7.75
-10.32
-13.74
-17.99
-22.79
-27.53
-31.38
-33.51
-33.27
-30.37
-25.09
-18.15
-10.52
-3.18
3.18
8.25
12.03
14.74
16.62
17.82
18.42
18.46
18.05
17.42
16.87
16.67
16.96
17.64
18.39
18.84
18.77
18.17
17.28
16.39
15.66
15.03
14.24
13.02
11.21
8.85
6.12
3.28
0.53
-2.03
-4.43
-6.78
-9.24
-12.03
-15.38
-19.46
-24.24
-29.40
-34.28
-38.03
-39.73
-38.75
-34.90
-28.59
-20.71
-12.38
-4.58
2.07
7.42
11.62
14.91
17.44
19.21
20.15
20.26
19.77
19.10
18.72
18.92
19.70
20.78
21.73
22.19
22.04
21.39
20.47
19.49
18.49
17.25
15.51
13.03
9.80
6.05
2.16
-1.50
-4.67
-7.33
-9.63
-11.87
-14.37
-17.41
-21.14
-25.52
-30.18
-34.48
-37.54
-38.46
-36.60
-31.87
-24.76
-16.23
-7.43
0.63
7.34
12.47
16.13
18.52
19.83
20.17
19.70
18.65
17.36
16.20
15.50
15.35
15.69
16.30
16.97
17.53
17.91
18.04
17.88
17.27
16.04
14.09
11.40
8.15
4.65
1.26
-1.73
-4.25
-6.50
-8.86
-11.79
-15.63
-20.33
-25.43
-30.08
-33.24
-34.03
-31.96
-27.08
-19.97
-11.58
-2.89
5.26
12.29
17.94
22.16
25.08
26.88
27.77
27.96
27.62
26.96
26.16
25.45
24.94
24.62
24.33
23.80
22.83
21.36
19.51
17.50
15.47
13.41
11.13
8.36
4.90
0.77
-3.82
-8.49
-12.84
-16.57
-19.59
-22.12
-24.63
-27.73
-31.90
-37.20
-43.12
-48.57
-52.24
-52.96
-50.13
-43.86
-35.00
-24.75
-14.39
-4.96
2.90
8.97
13.33
16.23
17.97
18.86
19.23
19.40
19.71
20.40
21.56
23.07
24.63
25.95
26.80
27.14
27.11
26.86
26.50
25.99
25.11
23.63
21.37
18.30
14.56
10.46
6.32
2.46
-1.01
-4.21
-7.46
-11.24
-15.99
-21.90
-28.81
-36.06
-42.62
-47.23
-48.77
-46.58
-40.73
-31.97
-21.55
-10.85
-1.01
7.28
13.78
18.57
21.86
23.85
24.70
24.66
24.03
23.26
22.77
22.87
23.62
24.78
25.92
26.63
26.68
26.10
25.15
24.07
22.93
21.53
19.53
16.62
12.77
8.23
3.45
-1.11
-5.17
-8.70
-11.89
-15.06
-18.57
-22.69
-27.55
-32.96
-38.40
-43.01
-45.74
-45.68
-42.30
-35.72
-26.68
-16.34
-5.97
3.38
11.07
16.89
20.93
23.44
24.69
24.97
24.59
23.91
23.29
23.03
23.24
23.86
24.66
25.38
25.83
25.89
25.55
24.75
23.41
21.44
18.75
15.36
11.40
7.13
2.80
-1.36
-5.26
-8.96
-12.72
-16.82
-21.56
-27.02
-32.98
-38.83
-43.63
-46.24
-45.67
-41.41
-33.65
-23.29
-11.76
-0.52
9.26
17.06
22.87
27.04
29.96
31.83
32.72
32.66
31.83
30.58
29.39
28.68
28.64
29.14
29.80
30.16
29.84
28.73
27.01
25.03
23.07
21.26
19.39
17.08
13.95
9.83
4.88
-0.43
-5.55
-10.02
-13.66
-16.62
-19.32
-22.30
-26.05
-30.88
-36.77
-43.29
-49.61
-54.59
-57.02
-55.98
-51.14
-42.93
-32.46
-21.21
-10.58
-1.51
5.68
11.20
15.51
19.01
21.94
24.30
26.02
27.11
27.70
28.05
28.46
29.15
30.14
31.29
32.32
32.94
32.98
32.41
31.38
30.09
28.63
26.97
24.95
22.37
19.16
15.41
11.33
7.23
3.31
-0.29
-3.56
-6.61
-9.60
-12.75
-16.33
-20.60
-25.74
-31.72
-38.16
-44.25
-48.85
-50.77
-49.11
-43.63
-34.87
-24.02
-12.59
-1.95
7.02
13.98
19.08
22.69
25.17
26.79
27.72
28.12
28.18
28.20
28.40
28.94
29.75
30.58
31.06
30.89
29.96
28.35
26.37
24.32
22.39
20.58
18.70
16.43
13.54
9.95
5.79
1.40
-2.84
-6.62
-9.85
-12.68
-15.39
-18.37
-21.96
-26.42
-31.77
-37.75
-43.69
-48.56
-51.15
-50.44
-46.02
-38.25
-28.23
-17.43
-7.17
1.70
8.88
14.42
18.51
21.25
22.72
23.04
22.52
21.64
20.94
20.81
21.35
22.36
23.47
24.31
24.64
24.46
23.90
23.16
22.32
21.35
20.03
18.14
15.54
12.24
8.43
4.37
0.31
-3.57
-7.16
-10.45
-13.48
-16.43
-19.59
-23.32
-27.96
-33.53
-39.59
-45.19
-49.08
-50.08
-47.46
-41.26
-32.29
-21.84
-11.34
-1.95
5.71
11.57
15.92
19.24
21.93
24.17
25.96
27.15
27.65
27.50
26.94
26.31
25.89
25.82
26.02
26.30
26.42
26.23
25.66
24.70
23.37
21.68
19.63
17.21
14.48
11.50
8.35
5.10
1.82
-1.42
-4.57
-7.58
-10.48
-13.36
-16.40
-19.80
-23.79
-28.53
-33.98
-39.82
-45.36
-49.57
-51.39
-49.96
-45.04
-37.09
-27.20
-16.78
-7.11
0.95
7.12
11.61
14.88
17.40
19.48
21.24
22.68
23.74
24.40
24.74
24.87
24.91
24.94
24.96
24.96
24.91
24.81
24.67
24.42
23.93
22.98
21.39
19.10
16.23
13.08
9.96
7.09
4.48
1.98
-0.63
-3.50
-6.58
-9.71
-12.68
-15.39
-17.93
-20.53
-23.45
-26.94
-31.06
-35.70
-40.49
-44.76
-47.66
-48.27
-45.97
-40.61
-32.74
-23.40
-13.87
-5.26
1.76
7.06
10.89
13.62
15.59
16.95
17.72
17.91
17.61
17.04
16.48
16.19
16.31
16.79
17.43
17.95
18.12
17.82
17.10
16.05
14.78
13.28
11.49
9.28
6.59
3.49
0.18
-3.05
-5.91
-8.26
-10.17
-11.95
-13.99
-16.63
-20.05
-24.24
-28.98
-33.87
-38.33
-41.69
-43.21
-42.32
-38.77
-32.81
-25.14
-16.72
-8.55
-1.35
4.52
9.06
12.50
15.12
17.14
18.65
19.63
20.01
19.81
19.18
18.45
17.98
18.03
18.59
19.42
20.11
20.28
19.77
18.62
17.06
15.31
13.53
11.69
9.72
7.51
5.04
2.37
-0.45
-3.36
-6.35
-9.42
-12.51
-15.49
-18.24
-20.71
-23.03
-25.58
-28.79
-32.98
-38.05
-43.37
-47.82
-50.16
-49.43
-45.30
-38.23
-29.36
-20.07
-11.58
-4.59
0.74
4.70
7.72
10.20
12.32
14.13
15.57
16.58
17.18
17.46
17.59
17.74
18.02
18.45
18.91
19.24
19.24
18.82
17.98
16.84
15.52
14.08
12.49
10.62
8.35
5.57
2.35
-1.14
-4.63
-7.90
-10.82
-13.42
-15.88
-18.41
-21.27
-24.64
-28.59
-32.97
-37.36
-41.06
-43.22
-43.03
-40.05
-34.35
-26.56
-17.72
-8.97
-1.22
5.02
9.67
13.00
15.40
17.21
18.58
19.53
19.96
19.88
19.42
18.91
18.71
19.04
19.86
20.87
21.58
21.61
20.80
19.27
17.36
15.43
13.70
12.16
10.64
8.86
6.64
3.95
0.92
-2.20
-5.16
-7.81
-10.14
-12.25
-14.37
-16.71
-19.50
-22.91
-27.01
-31.65
-36.37
-40.26
-42.26
-41.37
-37.15
-29.94
-20.83
-11.36
-2.90
3.71
8.39
11.52
13.69
15.28
16.35
16.83
16.66
16.05
15.39
15.13
15.50
16.41
17.52
18.40
18.76
18.53
17.85
16.93
15.87
14.68
13.20
11.31
8.94
6.18
3.21
0.26
-2.45
-4.79
-6.76
-8.46
-10.11
-11.96
-14.27
-17.27
-21.07
-25.58
-30.40
-34.81
-37.88
-38.72
-36.80
-32.08
-25.15
-17.00
-8.78
-1.46
4.39
8.61
11.34
12.86
13.43
13.26
12.51
11.46
10.40
9.72
9.67
10.30
11.36
12.44
13.16
13.31
12.93
12.26
11.49
10.67
9.66
8.21
6.15
3.48
0.41
-2.72
-5.62
-8.18
-10.46
-12.72
-15.32
-18.57
-22.64
-27.44
-32.50
-37.01
-40.00
-40.52
-38.05
-32.62
-24.90
-15.99
-7.11
0.74
7.03
11.66
14.89
17.11
18.61
19.58
20.08
20.18
19.99
19.75
19.66
19.85
20.25
20.62
20.64
20.09
18.95
17.43
15.84
14.40
13.12
11.74
9.84
7.09
3.40
-0.94
-5.42
-9.48
-12.74
-15.19
-17.11
-19.00
-21.35
-24.50
-28.56
-33.31
-38.23
-42.49
-45.14
-45.32
-42.54
-36.84
-28.88
-19.74
-10.63
-2.50
4.12
9.21
13.10
16.22
18.88
21.14
22.89
23.98
24.37
24.29
24.11
24.21
24.79
25.70
26.56
26.94
26.60
25.55
24.08
22.48
20.90
19.30
17.46
15.16
12.36
9.13
5.65
2.06
-1.53
-5.07
-8.51
-11.77
-14.79
-17.56
-20.21
-23.01
-26.32
-30.46
-35.50
-41.08
-46.35
-50.05
-50.89
-48.03
-41.44
-31.97
-21.09
-10.38
-1.06
6.38
12.03
16.33
19.71
22.48
24.74
26.55
28.00
29.20
30.22
31.08
31.71
32.02
31.95
31.59
31.10
30.63
30.27
29.91
29.28
28.11
26.21
23.61
20.51
17.23
14.04
11.04
8.16
5.25
2.20
-0.96
-4.11
-7.10
-9.84
-12.39
-14.96
-17.83
-21.28
-25.51
-30.47
-35.84
-40.95
-44.87
-46.63
-45.45
-41.08
-33.87
-24.73
-14.88
-5.52
2.44
8.64
13.12
16.21
18.36
19.86
20.85
21.40
21.59
21.58
21.66
22.04
22.78
23.70
24.45
24.66
24.16
23.08
21.68
20.26
18.89
17.43
15.54
12.92
9.46
5.32
0.92
-3.29
-6.98
-10.06
-12.74
-15.43
-18.59
-22.58
-27.44
-32.87
-38.17
-42.37
-44.47
-43.72
-39.87
-33.26
-24.74
-15.48
-6.58
1.16
7.36
12.04
15.42
17.75
19.22
19.94
20.04
19.71
19.25
18.98
19.14
19.77
20.70
21.57
21.97
21.63
20.50
18.80
16.87
15.02
13.32
11.60
9.52
6.81
3.44
-0.37
-4.13
-7.49
-10.26
-12.59
-14.84
-17.49
-20.91
-25.31
-30.66
-36.68
-42.80
-48.14
-51.64
-52.28
-49.44
-43.16
-34.19
-23.84
-13.49
-4.29
3.19
8.97
13.42
16.99
19.92
22.26
23.88
24.75
25.03
25.05
25.21
25.76
26.65
27.59
28.17
28.11
27.37
26.12
24.69
23.33
22.04
20.60
18.63
15.84
12.16
7.83
3.33
-0.84
-4.35
-7.19
-9.64
-12.21
-15.43
-19.62
-24.78
-30.54
-36.15
-40.66
-43.13
-42.87
-39.62
-33.63
-25.64
-16.64
-7.65
0.48
7.22
12.39
16.05
18.46
19.87
20.54
20.64
20.31
19.69
18.99
18.38
17.96
17.71
17.45
17.03
16.36
15.48
14.48
13.33
11.82
9.55
6.15
1.55
-3.97
-9.78
-15.25
-20.00
-24.12
-28.06
-32.44
-37.77
-44.23
-51.62
-59.43
-67.00
-73.65
-78.81
-82.10
-83.37
-82.60
-79.98
-75.80
-70.59
-65.17
-60.63
-58.23
-59.03
-63.59
-71.67
-82.25
-93.69
-104.07
-111.71
-115.43
-114.92
-110.68
-103.71
-94.79
-83.97
-70.17
-51.64
-26.75
5.00
42.31
81.89
119.12
149.20
168.41
175.35
171.39
160.30
146.90
134.88
124.92
114.03
96.80
68.21
26.76
-23.84
-75.40
-118.18
-144.55
-151.37
-140.27
-116.00
-83.96
-48.30
-11.34
25.86
62.58
97.73
129.91
157.66
179.96
196.37
206.98
212.31
213.05
210.05
204.06
195.71
185.43
173.42
159.81
144.80
128.85
112.74
97.39
83.65
71.90
61.76
52.29
42.35
31.31
19.46
8.02
-1.46
-7.92
-11.30
-12.56
-13.00
-13.65
-14.95
-16.99
-20.06
-25.02
-32.87
-43.91
-56.98
-69.34
-77.63
-79.35
-74.05
-63.60
-51.27
-40.28
-32.53
-28.21
-26.31
-25.51
-24.88
-24.18
-23.59
-23.26
-23.13
-22.91
-22.29
-21.14
-19.54
-17.66
-15.54
-12.93
-9.34
-4.24
2.51
10.41
18.26
24.45
27.44
26.42
21.58
14.13
5.83
-1.60
-7.09
-10.48
-12.48
-14.25
-16.86
-20.79
-25.71
-30.55
-33.92
-34.59
-32.11
-26.84
-19.89
-12.61
-6.10
-0.84
3.26
6.60
9.55
12.17
14.25
15.43
15.51
14.52
12.72
10.47
8.06
5.68
3.38
1.22
-0.81
-2.66
-4.36
-6.05
-7.89
-10.06
-12.63
-15.49
-18.45
-21.32
-23.98
-26.43
-28.79
-31.19
-33.79
-36.71
-40.01
-43.50
-46.70
-48.72
-48.50
-45.12
-38.20
-28.22
-16.41
-4.47
6.02
13.96
19.04
21.55
22.21
21.78
20.85
19.77
18.66
17.47
16.14
14.70
13.22
11.88
10.85
10.23
10.00
9.97
9.91
9.52
8.57
6.89
4.42
1.17
-2.75
-7.17
-11.85
-16.55
-21.14
-25.60
-30.10
-34.81
-39.74
-44.59
-48.67
-51.03
-50.77
-47.40
-41.14
-32.86
-23.88
-15.52
-8.76
-3.93
-0.86
0.89
1.76
2.01
1.66
0.72
-0.77
-2.58
-4.37
-5.80
-6.73
-7.23
-7.53
-7.98
-8.85
-10.28
-12.24
-14.60
-17.18
-19.85
-22.59
-25.51
-28.80
-32.68
-37.27
-42.56
-48.45
-54.80
-61.52
-68.57
-75.87
-83.15
-89.86
-95.25
-98.48
-98.91
-96.33
-91.13
-84.29
-77.27
-71.70
-68.79
-69.02
-71.80
-75.73
-78.89
-79.46
-76.07
-67.86
-54.59
-36.62
-15.13
7.84
29.58
47.48
60.13
67.87
72.79
77.71
84.89
95.07
107.42
120.12
131.47
140.45
146.79
150.71
152.42
151.95
149.28
144.56
138.24
130.96
123.41
116.16
109.67
104.28
100.27
97.72
96.48
96.20
96.40
96.75
97.05
97.33
97.63
97.99
98.54
99.73
102.47
107.77
116.07
126.43
136.29
141.90
139.72
127.64
105.72
75.91
41.05
3.88
-33.42
-68.97
-100.89
-127.25
-146.55
-158.40
-163.77
-164.72
-163.45
-161.57
-159.73
-157.89
-155.82
-153.46
-150.89
-148.01
-144.35
-139.09
-131.41
-120.88
-107.76
-92.92
-77.68
-63.37
-50.99
-40.92
-32.94
-26.48
-20.85
-15.65
-10.82
-6.63
-3.38
-1.22
-0.01
0.62
1.08
1.68
2.56
3.67
4.88
6.04
6.98
7.52
7.49
6.70
5.05
2.51
-0.85
-4.78
-9.04
-13.45
-17.96
-22.76
-28.10
-34.06
-40.34
-46.06
-49.92
-50.55
-46.95
-38.95
-27.28
-13.45
0.72
13.53
23.82
31.12
35.57
37.76
38.44
38.27
37.77
37.28
36.99
37.05
37.48
38.17
38.81
39.00
38.36
36.77
34.47
31.97
29.86
28.53
28.01
28.02
28.06
27.62
26.31
23.95
20.55
16.32
11.59
6.70
1.88
-2.92
-7.94
-13.52
-19.71
-26.11
-31.72
-35.28
-35.70
-32.51
-26.15
-17.78
-8.83
-0.48
6.64
12.56
17.62
22.15
26.25
29.76
32.44
34.14
34.93
35.01
34.63
33.98
33.21
32.43
31.76
31.26
30.88
30.47
29.78
28.63
26.93
24.78
22.32
19.69
16.92
13.95
10.71
7.14
3.30
-0.68
-4.60
-8.27
-11.61
-14.66
-17.61
-20.78
-24.52
-29.05
-34.41
-40.27
-45.93
-50.41
-52.59
-51.50
-46.71
-38.42
-27.55
-15.51
-3.74
6.58
14.83
20.91
25.10
27.79
29.34
30.04
30.10
29.78
29.30
28.86
28.63
28.68
29.04
29.66
30.46
31.32
32.13
32.80
33.23
33.35
33.05
32.19
30.65
28.41
25.61
22.57
19.67
17.21
15.29
13.74
12.23
10.37
7.88
4.73
1.15
-2.50
-5.91
-8.93
-11.73
-14.66
-18.23
-22.81
-28.48
-34.93
-41.41
-46.89
-50.27
-50.73
-47.94
-42.18
-34.36
-25.73
-17.66
-11.22
-6.98
-4.78
-3.90
-3.27
-1.98
0.25
2.94
4.99
5.20
2.87
-1.80
-7.76
-13.48
-17.55
-19.06
-17.72
-13.98
-9.03
-4.74
-3.52
-7.63
-18.41
-35.37
-56.08
-76.74
-93.57
-104.23
-108.64
-108.76
-107.44
-107.11
-108.84
-112.37
-116.65
-120.50
-122.82
-122.62
-118.79
-110.30
-96.46
-77.33
-53.69
-26.67
2.65
33.40
64.56
94.61
121.46
143.14
158.70
168.71
174.88
179.09
182.20
183.81
182.97
179.31
173.82
168.62
165.81
166.21
168.74
170.85
169.68
163.34
151.54
135.60
117.81
100.62
85.92
74.62
66.50
60.54
55.33
49.63
42.74
34.65
25.81
16.81
7.92
-1.13
-11.03
-22.62
-36.38
-52.11
-68.83
-85.06
-99.31
-110.61
-118.70
-123.95
-126.87
-127.67
-126.14
-121.84
-114.58
-104.83
-93.76
-82.88
-73.49
-66.14
-60.54
-55.84
-51.11
-45.82
-40.07
-34.41
-29.48
-25.71
-23.07
-21.21
-19.61
-17.87
-15.88
-13.75
-11.75
-10.14
-9.02
-8.38
-8.12
-8.14
-8.41
-8.97
-9.88
-11.19
-12.94
-15.18
-18.01
-21.54
-25.80
-30.55
-35.20
-38.84
-40.50
-39.46
-35.58
-29.28
-21.54
-13.47
-6.04
0.21
5.21
9.21
12.53
15.42
17.94
20.03
21.68
22.98
24.09
25.16
26.19
26.99
27.26
26.82
25.69
24.14
22.56
21.24
20.29
19.54
18.70
17.42
15.51
12.92
9.81
6.44
3.09
-0.02
-2.84
-5.47
-8.15
-11.16
-14.72
-18.97
-23.85
-29.03
-33.93
-37.75
-39.62
-38.90
-35.39
-29.51
-22.16
-14.48
-7.45
-1.60
3.02
6.76
10.03
13.11
16.03
18.62
20.63
21.94
22.56
22.61
22.29
21.76
21.13
20.45
19.72
18.99
18.26
17.53
16.78
15.94
14.92
13.59
11.82
9.53
6.66
3.32
-0.28
-3.81
-6.98
-9.59
-11.70
-13.55
-15.59
-18.26
-21.90
-26.55
-31.86
-37.09
-41.24
-43.33
-42.63
-38.98
-32.85
-25.17
-17.11
-9.65
-3.40
1.51
5.32
8.43
11.14
13.52
15.54
17.02
17.90
18.22
18.15
17.92
17.70
17.59
17.65
17.87
18.23
18.64
18.98
19.08
18.74
17.87
16.48
14.69
12.66
10.50
8.28
5.98
3.56
1.03
-1.58
-4.19
-6.75
-9.22
-11.66
-14.18
-16.94
-20.09
-23.66
-27.52
-31.32
-34.53
-36.53
-36.76
-34.89
-30.94
-25.30
-18.66
-11.81
-5.48
-0.12
4.13
7.42
10.01
12.13
13.87
15.17
15.98
16.32
16.36
16.38
16.62
17.20
18.04
18.91
19.53
19.70
19.39
18.69
17.74
16.71
15.61
14.41
12.97
11.13
8.83
6.06
2.99
-0.15
-3.13
-5.83
-8.26
-10.64
-13.26
-16.41
-20.29
-24.87
-29.91
-34.93
-39.28
-42.17
-42.91
-41.03
-36.53
-29.93
-22.18
-14.43
-7.64
-2.25
1.78
4.93
7.65
10.22
12.57
14.46
15.76
16.57
17.20
18.01
19.20
20.69
22.24
23.58
24.56
25.25
25.79
26.26
26.62
26.62
26.04
24.73
22.72
20.26
17.66
15.19
13.01
11.09
9.27
7.34
5.09
2.45
-0.57
-3.81
-7.06
-10.09
-12.70
-14.82
-16.58
-18.28
-20.35
-23.18
-26.97
-31.59
-36.55
-41.01
-44.01
-44.70
-42.62
-37.85
-31.09
-23.40
-15.95
-9.60
-4.72
-1.11
1.74
4.40
7.17
10.05
12.82
15.18
17.01
18.37
19.42
20.29
21.01
21.50
21.65
21.48
21.09
20.69
20.42
20.28
20.11
19.65
18.66
17.08
15.00
12.65
10.30
8.16
6.31
4.77
3.43
2.12
0.53
-1.77
-5.21
-10.03
-16.14
-23.02
-29.93
-36.23
-41.69
-46.58
-51.48
-56.85
-62.64
-68.14
-72.19
-73.54
-71.20
-64.72
-54.16
-40.20
-24.05
-7.34
8.12
20.84
29.97
35.65
38.78
40.55
41.99
43.56
45.21
46.64
47.64
48.16
48.27
48.03
47.35
46.08
44.14
41.58
38.60
35.45
32.33
29.33
26.46
23.68
20.94
18.19
15.41
12.56
9.63
6.63
3.62
0.65
-2.22
-5.00
-7.83
-10.85
-14.26
-18.14
-22.47
-27.04
-31.51
-35.41
-38.23
-39.45
-38.65
-35.61
-30.39
-23.45
-15.62
-7.87
-1.10
4.12
7.73
10.04
11.58
12.79
13.87
14.77
15.32
15.43
15.16
14.73
14.41
14.33
14.47
14.66
14.70
14.45
13.88
12.99
11.79
10.25
8.29
5.93
3.23
0.37
-2.52
-5.49
-8.76
-12.66
-17.36
-22.69
-28.09
-32.86
-36.37
-38.45
-39.42
-40.02
-41.23
-43.94
-48.71
-55.52
-63.64
-71.61
-77.49
-79.38
-76.13
-67.72
-55.32
-40.80
-25.98
-12.00
0.82
12.63
23.52
33.07
40.38
44.33
44.10
39.56
31.49
21.45
11.58
4.07
0.71
2.36
8.73
18.45
29.57
40.22
49.13
55.84
60.46
63.30
64.42
63.61
60.57
55.37
48.59
41.28
34.55
29.11
24.91
21.16
16.82
11.10
3.92
-4.05
-11.79
-18.49
-23.94
-28.56
-33.03
-37.74
-42.53
-46.64
-49.10
-49.22
-46.78
-42.09
-35.68
-28.07
-19.57
-10.42
-1.00
8.13
16.20
22.44
26.40
28.13
28.25
27.77
27.75
28.95
31.62
35.37
39.45
42.99
45.38
46.35
45.98
44.52
42.20
39.14
35.36
30.87
25.76
20.28
14.81
9.77
5.48
2.03
-0.75
-3.28
-6.08
-9.55
-13.93
-19.16
-24.88
-30.46
-35.09
-37.89
-38.22
-35.86
-31.17
-25.01
-18.42
-12.28
-7.07
-2.86
0.59
3.52
6.07
8.24
9.96
11.17
11.88
12.17
12.18
12.04
11.85
11.69
11.58
11.49
11.41
11.31
11.16
10.93
10.53
9.83
8.76
7.27
5.38
3.16
0.72
-1.89
-4.59
-7.32
-9.97
-12.40
-14.59
-16.63
-18.76
-21.29
-24.47
-28.41
-32.97
-37.84
-42.41
-45.99
-47.80
-47.22
-43.98
-38.31
-30.92
-22.84
-15.09
-8.34
-2.83
1.64
5.42
8.80
11.89
14.64
16.96
18.76
20.08
20.91
21.30
21.29
20.93
20.38
19.81
19.41
19.22
19.18
19.04
18.53
17.47
15.82
13.69
11.31
8.85
6.47
4.20
2.00
-0.16
-2.30
-4.47
-6.69
-9.01
-11.44
-13.91
-16.40
-18.89
-21.56
-24.67
-28.46
-32.84
-37.25
-40.65
-41.77
-39.70
-34.21
-25.94
-16.23
-6.69
1.26
6.58
8.79
7.99
4.81
0.30
-4.29
-7.87
-9.80
-10.08
-9.23
-7.95
-6.72
-5.64
-4.44
-2.81
-0.71
1.63
3.74
5.30
6.19
6.63
6.87
7.10
7.23
6.99
6.13
4.53
2.38
0.04
-2.05
-3.59
-4.44
-4.71
-4.63
-4.48
-4.50
-5.01
-6.31
-8.79
-12.81
-18.62
-26.24
-35.36
-45.27
-54.94
-63.16
-68.73
-70.81
-69.00
-63.58
-55.34
-45.44
-35.09
-25.27
-16.57
-9.19
-3.11
1.74
5.41
7.89
9.30
9.99
10.50
11.56
13.74
17.30
21.99
27.06
31.49
34.30
34.86
33.11
29.47
24.75
19.78
15.25
11.62
9.09
7.71
7.40
8.05
9.51
11.67
14.53
18.18
22.82
28.50
34.92
41.26
46.29
48.65
47.37
42.23
33.87
23.53
12.59
2.22
-6.79
-13.90
-18.63
-20.51
-19.25
-14.99
-8.52
-1.13
5.74
11.02
14.28
15.76
16.08
15.84
15.38
14.69
13.50
11.41
8.08
3.28
-2.96
-10.30
-18.05
-25.34
-31.37
-35.62
-37.87
-38.11
-36.29
-32.15
-25.41
-15.90
-3.90
9.98
24.94
40.23
55.29
69.57
82.37
92.71
99.50
101.97
99.95
93.94
84.89
73.74
61.12
47.29
32.34
16.57
0.67
-14.26
-27.03
-36.70
-42.81
-45.42
-44.84
-41.48
-35.74
-28.11
-19.38
-10.66
-3.24
1.78
3.83
3.06
0.27
-3.39
-6.73
-8.72
-8.62
-5.97
-0.74
6.62
15.07
23.20
29.50
32.85
32.87
29.97
25.13
19.44
13.77
8.61
4.11
0.32
-2.71
-4.93
-6.49
-7.74
-9.31
-11.82
-15.66
-20.77
-26.59
-32.17
-36.47
-38.63
-38.20
-35.29
-30.49
-24.72
-18.88
-13.63
-9.26
-5.65
-2.53
0.39
3.15
5.65
7.67
9.05
9.79
10.07
10.10
10.10
10.15
10.20
10.12
9.87
9.42
8.90
8.42
8.01
7.52
6.69
5.24
3.02
0.15
-3.06
-6.20
-8.96
-11.24
-13.17
-15.04
-17.14
-19.74
-22.99
-26.95
-31.43
-35.95
-39.77
-41.97
-41.76
-38.78
-33.32
-26.22
-18.59
-11.44
-5.34
-0.41
3.65
7.23
10.60
13.77
16.53
18.60
19.75
20.00
19.58
18.94
18.48
18.45
18.83
19.43
19.95
20.16
19.99
19.45
18.62
17.49
16.00
14.03
11.49
8.42
4.99
1.52
-1.70
-4.41
-6.56
-8.32
-9.99
-11.94
-14.48
-17.79
-21.88
-26.53
-31.27
-35.40
-38.12
-38.69
-36.70
-32.21
-25.84
-18.55
-11.39
-5.15
-0.18
3.57
6.44
8.78
10.83
12.65
14.20
15.38
16.17
16.64
16.94
17.23
17.62
18.13
18.67
19.07
19.17
18.84
18.05
16.87
15.47
13.95
12.36
10.65
8.76
6.66
4.41
2.15
-0.01
-2.06
-4.08
-6.19
-8.50
-11.03
-13.71
-16.52
-19.49
-22.73
-26.32
-30.19
-33.94
-36.88
-38.15
-37.06
-33.36
-27.39
-20.04
-12.46
-5.64
-0.15
3.95
7.00
9.46
11.67
13.75
15.62
17.14
18.20
18.82
19.13
19.30
19.46
19.69
19.96
20.19
20.28
20.17
19.85
19.27
18.35
16.99
15.11
12.78
10.20
7.71
5.61
4.03
2.84
1.69
0.20
-1.82
-4.28
-6.84
-9.15
-11.06
-12.74
-14.63
-17.19
-20.56
-24.35
-27.71
-29.61
-29.30
-26.63
-22.08
-16.57
-11.05
-6.10
-1.87
1.83
5.23
8.45
11.40
13.92
15.91
17.43
18.63
19.67
20.54
21.11
21.22
20.85
20.14
19.32
18.63
18.13
17.70
17.12
16.23
14.99
13.49
11.85
10.14
8.37
6.45
4.34
2.08
-0.23
-2.47
-4.54
-6.41
-8.07
-9.61
-11.25
-13.24
-15.85
-19.20
-23.17
-27.42
-31.41
-34.61
-36.53
-36.88
-35.48
-32.41
-27.91
-22.45
-16.63
-11.04
-6.11
-2.01
1.36
4.24
6.82
9.18
11.27
12.96
14.17
14.91
15.32
15.62
16.04
16.73
17.73
18.91
20.05
20.89
21.25
21.03
20.24
18.96
17.31
15.44
13.53
11.80
10.35
9.16
8.02
6.63
4.74
2.33
-0.43
-3.25
-5.88
-8.26
-10.56
-13.00
-15.84
-19.20
-23.08
-27.31
-31.49
-35.09
-37.39
-37.76
-35.79
-31.59
-25.70
-19.04
-12.52
-6.83
-2.24
1.36
4.26
6.76
9.01
10.99
12.58
13.67
14.25
14.49
14.65
14.94
15.44
16.03
16.44
16.44
15.91
14.96
13.87
12.90
12.21
11.73
11.23
10.35
8.85
6.69
4.02
1.24
-1.30
-3.33
-4.86
-6.14
-7.54
-9.39
-11.90
-15.12
-18.95
-23.23
-27.65
-31.69
-34.65
-35.79
-34.56
-30.84
-25.09
-18.19
-11.22
-5.06
-0.18
3.41
5.99
7.92
9.44
10.62
11.43
11.81
11.84
11.67
11.50
11.52
11.80
12.35
13.07
13.87
14.66
15.37
15.96
16.42
16.74
16.89
16.82
16.45
15.69
14.43
12.56
9.99
6.69
2.78
-1.47
-5.64
-9.26
-12.01
-13.85
-15.06
-16.18
-17.76
-20.18
-23.54
-27.56
-31.67
-35.12
-37.08
-36.88
-34.14
-28.99
-22.12
-14.60
-7.54
-1.78
2.37
5.14
7.08
8.80
10.72
12.93
15.28
17.46
19.12
20.12
20.43
20.24
19.83
19.45
19.21
19.10
18.98
18.66
18.02
16.99
15.61
13.93
12.07
10.08
7.99
5.81
3.52
1.15
-1.25
-3.57
-5.76
-7.76
-9.64
-11.48
-13.44
-15.66
-18.24
-21.28
-24.75
-28.48
-32.06
-34.87
-36.20
-35.46
-32.47
-27.52
-21.36
-14.92
-9.04
-4.22
-0.53
2.31
4.68
6.87
8.98
10.89
12.44
13.54
14.19
14.56
14.80
15.07
15.38
15.69
15.94
16.07
16.03
15.80
15.37
14.74
13.94
12.97
11.81
10.35
8.48
6.13
3.34
0.29
-2.73
-5.49
-7.91
-10.13
-12.44
-15.18
-18.53
-22.49
-26.79
-30.94
-34.27
-36.11
-35.98
-33.70
-29.52
-23.99
-17.84
-11.74
-6.17
-1.34
2.72
6.04
8.71
10.75
12.18
13.06
13.47
13.62
13.75
14.10
14.81
15.91
17.19
18.37
19.13
19.24
18.71
17.66
16.38
15.07
13.82
12.45
10.67
8.18
4.90
1.05
-2.88
-6.37
-9.07
-11.03
-12.63
-14.46
-16.98
-20.39
-24.49
-28.80
-32.67
-35.43
-36.48
-35.46
-32.28
-27.19
-20.81
-13.92
-7.31
-1.55
3.17
6.96
10.12
12.95
15.58
17.94
19.83
21.07
21.64
21.70
21.51
21.35
21.32
21.38
21.34
21.04
20.44
19.67
18.90
18.24
17.61
16.78
15.51
13.66
11.32
8.68
5.95
3.24
0.55
-2.17
-4.98
-7.90
-10.94
-14.22
-17.93
-22.23
-27.18
-32.48
-37.48
-41.32
-43.08
-42.19
-38.55
-32.64
-25.36
-17.73
-10.57
-4.33
0.95
5.48
9.48
13.04
16.08
18.47
20.10
21.03
21.46
21.66
21.86
22.18
22.62
23.08
23.42
23.56
23.49
23.25
22.86
22.32
21.57
20.49
19.04
17.18
14.98
12.48
9.77
6.89
3.91
0.90
-2.00
-4.71
-7.18
-9.56
-12.10
-15.11
-18.80
-23.08
-27.49
-31.33
-33.74
-34.08
-32.07
-27.91
-22.20
-15.71
-9.19
-3.22
1.85
5.94
9.09
11.47
13.27
14.64
15.67
16.40
16.86
17.14
17.39
17.78
18.37
19.07
19.68
19.98
19.82
19.25
18.46
17.65
16.93
16.23
15.36
14.05
12.15
9.68
6.88
4.08
1.60
-0.42
-2.11
-3.79
-5.93
-8.89
-12.81
-17.48
-22.32
-26.56
-29.38
-30.15
-28.60
-24.88
-19.54
-13.41
-7.34
-2.03
2.14
5.14
7.20
8.71
10.01
11.30
12.60
13.78
14.69
15.25
15.47
15.51
15.53
15.66
15.89
16.10
16.12
15.79
15.11
14.17
13.15
12.18
11.27
10.26
8.91
7.04
4.62
1.80
-1.14
-3.92
-6.42
-8.64
-10.75
-12.94
-15.32
-18.01
-21.05
-24.45
-28.13
-31.82
-35.03
-37.07
-37.27
-35.19
-30.82
-24.66
-17.57
-10.47
-4.05
1.35
5.79
9.53
12.84
15.83
18.48
20.59
22.05
22.88
23.31
23.67
24.28
25.25
26.48
27.71
28.65
29.17
29.31
29.18
28.85
28.27
27.25
25.66
23.48
20.94
18.29
15.71
13.20
10.58
7.71
4.59
1.45
-1.45
-3.99
-6.27
-8.64
-11.52
-15.15
-19.51
-24.22
-28.71
-32.27
-34.27
-34.25
-32.05
-27.88
-22.25
-15.97
-9.81
-4.40
0.00
3.42
6.14
8.46
10.61
12.65
14.46
15.83
16.50
16.36
15.44
13.91
12.06
10.17
8.43
6.90
5.54
4.32
3.19
2.17
1.26
0.43
-0.47
-1.63
-3.28
-5.46
-8.02
-10.58
-12.67
-13.92
-14.27
-14.00
-13.64
-13.82
-14.94
-17.08
-19.99
-23.17
-26.05
-28.05
-28.72
-27.75
-25.07
-20.87
-15.63
-9.99
-4.61
0.02
3.76
6.75
9.27
11.58
13.66
15.30
16.19
16.20
15.50
14.55
13.90
13.91
14.59
15.63
16.56
17.08
17.14
16.94
16.70
16.53
16.32
15.78
14.70
13.01
10.82
8.42
6.05
3.90
2.02
0.37
-1.15
-2.67
-4.31
-6.21
-8.47
-11.14
-14.19
-17.46
-20.65
-23.27
-24.71
-24.41
-22.06
-17.75
-12.08
-5.92
-0.18
4.56
8.16
10.88
13.13
15.24
17.35
19.35
21.03
22.18
22.63
22.31
21.25
19.60
17.57
15.41
13.30
11.36
9.65
8.17
6.96
5.99
5.22
4.52
3.67
2.50
0.92
-1.03
-3.21
-5.43
-7.53
-9.46
-11.23
-12.92
-14.61
-16.38
-18.29
-20.40
-22.74
-25.30
-27.93
-30.32
-32.00
-32.47
-31.35
-28.54
-24.34
-19.30
-14.09
-9.26
-5.15
-1.84
0.72
2.63
3.96
4.84
5.37
5.73
6.10
6.55
7.11
7.65
8.04
8.18
8.05
7.74
7.41
7.17
7.10
7.10
7.00
6.57
5.60
4.05
2.04
-0.17
-2.29
-4.07
-5.51
-6.75
-8.09
-9.86
-12.26
-15.33
-18.87
-22.42
-25.36
-27.06
-27.01
-25.02
-21.33
-16.49
-11.25
-6.34
-2.26
0.82
3.00
4.55
5.73
6.72
7.59
8.34
8.93
9.38
9.70
9.87
9.81
9.47
8.84
8.02
7.25
6.77
6.65
6.76
6.76
6.25
5.01
3.04
0.55
-2.14
-4.72
-7.02
-8.98
-10.64
-12.16
-13.78
-15.77
-18.31
-21.38
-24.62
-27.44
-29.14
-29.17
-27.35
-24.00
-19.73
-15.25
-11.04
-7.15
-3.34
0.75
5.30
10.13
14.78
18.68
21.43
22.90
23.20
22.64
21.53
20.13
18.67
17.29
16.11
15.15
14.34
13.58
12.78
11.88
10.85
9.62
8.10
6.16
3.80
1.16
-1.49
-3.80
-5.57
-6.82
-7.86
-9.12
-11.00
-13.71
-17.20
-21.13
-25.02
-28.31
-30.44
-30.99
-29.74
-26.78
-22.49
-17.52
-12.52
-8.00
-4.17
-0.96
1.87
4.53
7.08
9.46
11.50
13.07
14.09
14.60
14.71
14.60
14.46
14.44
14.59
14.84
15.07
15.12
14.92
14.47
13.87
13.15
12.23
10.98
9.22
6.90
4.14
1.22
-1.51
-3.85
-5.80
-7.58
-9.52
-11.96
-15.05
-18.75
-22.78
-26.67
-29.84
-31.74
-31.97
-30.39
-27.14
-22.62
-17.43
-12.13
-7.17
-2.78
0.97
4.18
6.99
9.48
11.69
13.56
14.98
15.90
16.36
16.55
16.71
17.02
17.49
17.92
18.04
17.60
16.53
15.00
13.30
11.62
10.00
8.26
6.19
3.66
0.78
-2.12
-4.68
-6.67
-8.16
-9.49
-11.13
-13.49
-16.74
-20.80
-25.35
-29.96
-34.07
-37.03
-38.22
-37.16
-33.73
-28.29
-21.60
-14.66
-8.31
-3.05
1.10
4.40
7.15
9.49
11.35
12.58
13.11
13.10
12.89
12.86
13.21
13.95
14.84
15.62
16.08
16.22
16.16
16.08
16.07
16.00
15.65
14.68
12.92
10.36
7.24
3.92
0.77
-1.94
-4.15
-6.00
-7.70
-9.52
-11.65
-14.26
-17.45
-21.22
-25.35
-29.29
-32.24
-33.36
-32.06
-28.29
-22.62
-16.00
-9.40
-3.44
1.71
6.27
10.52
14.59
18.41
21.72
24.33
26.11
27.09
27.38
27.13
26.51
25.68
24.84
24.16
23.74
23.59
23.61
23.63
23.44
22.88
21.79
20.09
17.78
14.97
11.83
8.57
5.39
2.39
-0.36
-2.85
-5.13
-7.33
-9.64
-12.34
-15.69
-19.76
-24.39
-29.11
-33.26
-36.14
-37.24
-36.37
-33.68
-29.59
-24.64
-19.31
-14.02
-9.05
-4.58
-0.70
2.60
5.35
7.62
9.47
10.93
12.06
12.91
13.51
13.94
14.26
14.50
14.70
14.86
15.01
15.15
15.21
15.05
14.50
13.36
11.52
9.02
6.06
2.95
0.01
-2.49
-4.49
-6.16
-7.88
-10.09
-13.14
-17.11
-21.73
-26.43
-30.47
-33.13
-33.90
-32.61
-29.43
-24.78
-19.26
-13.48
-7.93
-2.95
1.30
4.82
7.71
10.17
12.35
14.36
16.17
17.68
18.77
19.39
19.68
19.83
20.04
20.35
20.68
20.82
20.59
19.98
19.12
18.14
17.05
15.69
13.75
11.00
7.47
3.48
-0.45
-3.81
-6.35
-8.20
-9.74
-11.54
-14.08
-17.60
-22.04
-27.04
-31.95
-35.96
-38.27
-38.30
-35.88
-31.28
-25.17
-18.35
-11.57
-5.32
0.17
4.87
8.90
12.42
15.63
18.64
21.48
24.03
26.08
27.44
28.06
28.12
28.00
28.06
28.52
29.29
30.09
30.55
30.51
30.00
29.26
28.49
27.67
26.54
24.73
21.88
17.83
12.59
6.29
-0.89
-8.76
-17.07
-25.43
-33.33
-40.30
-46.04
-50.59
-54.27
-57.49
-60.45
-62.99
-64.57
-64.50
-62.20
-57.51
-50.68
-42.37
-33.36
-24.40
-16.02
-8.51
-2.00
3.52
8.14
11.98
15.12
17.60
19.43
20.69
21.53
22.18
22.85
23.61
24.41
25.04
25.36
25.33
25.11
24.92
24.93
25.09
25.11
24.62
23.30
21.04
18.00
14.50
10.84
7.26
3.81
0.39
-3.18
-7.09
-11.53
-16.63
-22.36
-28.47
-34.36
-39.18
-41.99
-42.10
-39.41
-34.40
-27.97
-21.13
-14.57
-8.58
-3.13
1.92
6.64
10.91
14.56
17.53
19.86
21.73
23.29
24.63
25.72
26.57
27.25
27.90
28.69
29.64
30.66
31.52
31.98
31.90
31.22
30.02
28.39
26.45
24.30
22.00
19.54
16.90
14.05
11.02
7.85
4.63
1.48
-1.57
-4.56
-7.62
-10.93
-14.66
-18.91
-23.60
-28.37
-32.58
-35.40
-36.00
-33.86
-29.06
-22.25
-14.50
-6.97
-0.53
4.47
8.15
10.94
13.26
15.42
17.46
19.30
20.84
22.02
22.85
23.33
23.36
22.77
21.40
19.26
16.59
13.84
11.48
9.86
8.94
8.40
7.68
6.25
3.83
0.39
-3.79
-8.32
-12.79
-16.88
-20.49
-23.67
-26.66
-29.73
-33.13
-36.98
-41.14
-45.26
-48.72
-50.78
-50.71
-48.02
-42.71
-35.26
-26.61
-17.83
-9.81
-3.04
2.43
6.90
10.74
14.16
17.14
19.48
20.91
21.32
20.83
19.85
18.92
18.55
19.03
20.32
22.12
23.92
25.27
25.82
25.49
24.32
22.47
20.16
17.60
14.99
12.48
10.12
7.91
5.81
3.81
2.01
0.49
-0.80
-2.05
-3.71
-6.19
-9.77
-14.33
-19.32
-23.81
-26.77
-27.38
-25.26
-20.66
-14.32
-7.29
-0.58
5.08
9.44
12.66
15.10
17.13
18.95
20.54
21.82
22.70
23.19
23.39
23.38
23.21
22.87
22.35
21.65
20.78
19.77
18.66
17.44
16.14
14.74
13.24
11.56
9.61
7.32
4.66
1.71
-1.34
-4.26
-6.88
-9.14
-11.17
-13.23
-15.65
-18.78
-22.77
-27.53
-32.65
-37.36
-40.77
-42.10
-40.90
-37.23
-31.63
-24.97
-18.12
-11.81
-6.43
-2.05
1.49
4.42
6.92
9.13
11.03
12.58
13.73
14.51
14.97
15.25
15.45
15.61
15.66
15.51
15.05
14.29
13.37
12.38
11.36
10.14
8.49
6.22
3.36
0.22
-2.73
-5.14
-6.91
-8.27
-9.70
-11.66
-14.43
-17.99
-22.07
-26.18
-29.73
-32.06
-32.60
-30.99
-27.21
-21.63
-14.93
-7.90
-1.24
4.59
9.47
13.49
16.78
19.38
21.22
22.11
21.99
21.05
19.69
18.51
17.94
18.07
18.60
18.99
18.78
17.85
16.50
15.22
14.42
14.11
13.92
13.28
11.73
9.17
5.94
2.61
-0.28
-2.46
-4.01
-5.29
-6.78
-8.86
-11.78
-15.59
-20.11
-24.94
-29.39
-32.62
-33.85
-32.59
-28.88
-23.31
-16.80
-10.23
-4.22
0.97
5.41
9.24
12.55
15.31
17.42
18.83
19.56
19.74
19.61
19.39
19.33
19.54
19.96
20.41
20.62
20.36
19.59
18.47
17.23
16.05
14.87
13.44
11.47
8.81
5.60
2.20
-0.90
-3.39
-5.24
-6.68
-8.11
-9.91
-12.34
-15.50
-19.35
-23.67
-28.05
-31.86
-34.36
-34.83
-32.88
-28.60
-22.62
-15.89
-9.39
-3.80
0.65
4.16
7.07
9.65
11.92
13.72
14.83
15.18
14.98
14.60
14.45
14.75
15.44
16.29
16.94
17.21
17.06
16.64
16.17
15.75
15.32
14.69
13.62
11.97
9.81
7.37
4.92
2.70
0.75
-1.09
-3.13
-5.66
-8.87
-12.75
-17.12
-21.59
-25.70
-28.86
-30.49
-30.14
-27.63
-23.15
-17.30
-10.89
-4.71
0.69
5.13
8.73
11.71
14.24
16.36
18.01
19.09
19.66
19.84
19.89
19.97
20.21
20.54
20.86
21.03
20.94
20.58
19.99
19.22
18.33
17.33
16.24
15.00
13.56
11.83
9.76
7.38
4.80
2.18
-0.29
-2.51
-4.49
-6.44
-8.65
-11.41
-14.92
-19.15
-23.78
-28.24
-31.80
-33.73
-33.57
-31.25
-27.12
-21.84
-16.16
-10.70
-5.84
-1.71
1.77
4.74
7.37
9.78
12.04
14.13
15.95
17.35
18.21
18.51
18.37
18.09
17.91
17.98
18.21
18.37
18.20
17.57
16.55
15.37
14.26
13.29
12.33
11.06
9.23
6.76
3.83
0.77
-2.04
-4.40
-6.29
-7.92
-9.53
-11.36
-13.53
-16.14
-19.22
-22.75
-26.52
-30.05
-32.65
-33.54
-32.18
-28.51
-23.03
-16.67
-10.47
-5.21
-1.18
1.80
4.19
6.39
8.57
10.62
12.28
13.37
13.90
14.13
14.37
14.88
15.64
16.44
16.93
16.87
16.22
15.13
13.85
12.59
11.36
10.00
8.27
6.06
3.44
0.66
-1.95
-4.14
-5.83
-7.15
-8.32
-9.58
-11.14
-13.14
-15.70
-18.88
-22.64
-26.70
-30.58
-33.53
-34.88
-34.14
-31.32
-26.85
-21.53
-16.16
-11.41
-7.58
-4.63
-2.33
-0.35
1.53
3.42
5.29
7.02
8.47
9.58
10.40
11.04
11.62
12.25
12.91
13.53
13.99
14.20
14.09
13.64
12.84
11.71
10.28
8.62
6.81
4.94
3.09
1.31
-0.35
-1.85
-3.16
-4.29
-5.33
-6.47
-7.98
-10.10
-12.95
-16.45
-20.26
-23.87
-26.66
-28.06
-27.70
-25.46
-21.61
-16.68
-11.41
-6.50
-2.45
0.60
2.81
4.59
6.32
8.18
10.10
11.82
13.07
13.73
13.87
13.73
13.59
13.66
13.99
14.52
15.05
15.44
15.56
15.39
14.96
14.31
13.46
12.38
11.04
9.41
7.50
5.37
3.15
1.00
-0.94
-2.55
-3.84
-4.92
-6.05
-7.62
-9.99
-13.39
-17.82
-22.98
-28.26
-32.90
-36.07
-37.15
-35.87
-32.43
-27.49
-21.97
-16.69
-12.17
-8.49
-5.35
-2.34
0.87
4.34
7.91
11.31
14.28
16.63
18.27
19.19
19.45
19.21
18.70
18.16
17.75
17.53
17.46
17.39
17.17
16.69
15.89
14.75
13.33
11.76
10.18
8.71
7.36
6.05
4.59
2.83
0.71
-1.67
-4.14
-6.53
-8.84
-11.20
-13.84
-16.95
-20.56
-24.41
-28.02
-30.70
-31.78
-30.85
-27.90
-23.42
-18.22
-13.17
-8.89
-5.61
-3.11
-0.98
1.15
3.40
5.59
7.43
8.64
9.13
9.01
8.55
8.03
7.64
7.42
7.34
7.33
7.33
7.34
7.36
7.35
7.18
6.69
5.77
4.44
2.87
1.34
0.06
-0.96
-1.91
-3.08
-4.69
-6.74
-8.97
-11.03
-12.62
-13.76
-14.71
-15.88
-17.69
-20.30
-23.57
-27.15
-30.48
-32.98
-34.15
-33.62
-31.28
-27.28
-22.01
-16.09
-10.12
-4.62
0.13
4.12
7.53
10.55
13.34
15.89
18.10
19.82
20.97
21.58
21.76
21.68
21.50
21.30
21.09
20.81
20.40
19.83
19.11
18.28
17.36
16.33
15.08
13.46
11.36
8.77
5.82
2.79
-0.03
-2.44
-4.43
-6.14
-7.89
-9.97
-12.62
-15.91
-19.69
-23.57
-27.00
-29.35
-30.10
-28.97
-26.03
-21.69
-16.63
-11.60
-7.19
-3.73
-1.17
0.77
2.40
3.96
5.50
6.96
8.20
9.17
9.89
10.48
10.99
11.44
11.74
11.81
11.58
11.05
10.32
9.50
8.69
7.93
7.15
6.21
4.89
3.04
0.66
-2.07
-4.80
-7.19
-9.06
-10.49
-11.83
-13.55
-16.00
-19.32
-23.30
-27.43
-31.01
-33.31
-33.78
-32.20
-28.72
-23.92
-18.54
-13.33
-8.73
-4.86
-1.59
1.30
3.93
6.27
8.21
9.65
10.67
11.43
12.14
13.00
14.05
15.21
16.35
17.37
18.18
18.78
19.16
19.32
19.20
18.75
17.94
16.73
15.17
13.29
11.15
8.83
6.38
3.89
1.44
-0.92
-3.21
-5.55
-8.06
-10.84
-13.98
-17.51
-21.38
-25.48
-29.51
-33.01
-35.38
-36.04
-34.62
-31.12
-26.02
-20.08
-14.17
-8.97
-4.73
-1.35
1.53
4.27
7.08
9.92
12.59
14.82
16.44
17.41
17.91
18.22
18.57
19.10
19.75
20.32
20.57
20.36
19.72
18.82
17.86
16.94
16.04
14.94
13.46
11.47
9.03
6.33
3.64
1.16
-1.02
-2.96
-4.76
-6.57
-8.53
-10.83
-13.68
-17.26
-21.52
-26.08
-30.20
-32.96
-33.56
-31.72
-27.74
-22.44
-16.82
-11.64
-7.22
-3.56
-0.41
2.39
4.90
7.09
8.88
10.30
11.43
12.39
13.30
14.24
15.20
16.14
16.99
17.68
18.15
18.40
18.46
18.37
18.12
17.65
16.86
15.67
14.05
12.06
9.77
7.26
4.52
1.48
-1.94
-5.80
-10.06
-14.54
-19.05
-23.34
-27.23
-30.53
-33.01
-34.35
-34.24
-32.47
-29.08
-24.44
-19.15
-13.89
-9.15
-5.15
-1.80
1.12
3.81
6.36
8.69
10.67
12.18
13.25
13.93
14.39
14.78
15.26
15.91
16.71
17.54
18.22
18.54
18.40
17.78
16.80
15.56
14.15
12.52
10.61
8.29
5.60
2.70
-0.16
-2.72
-4.88
-6.68
-8.35
-10.12
-12.15
-14.50
-17.13
-19.92
-22.66
-24.99
-26.44
-26.45
-24.57
-20.72
-15.26
-9.00
-2.88
2.35
6.41
9.46
11.95
14.32
16.76
19.19
21.36
23.06
24.23
24.96
25.46
25.86
26.21
26.44
26.44
26.14
25.56
24.78
23.90
22.96
21.92
20.67
19.11
17.17
14.85
12.23
9.45
6.68
4.09
1.76
-0.34
-2.35
-4.43
-6.79
-9.63
-13.10
-17.23
-21.87
-26.58
-30.68
-33.38
-34.02
-32.35
-28.62
-23.52
-17.94
-12.61
-7.93
-3.96
-0.53
2.55
5.35
7.84
9.92
11.50
12.64
13.42
14.02
14.58
15.19
15.82
16.36
16.65
16.58
16.14
15.45
14.71
14.03
13.36
12.50
11.22
9.37
7.02
4.45
1.97
-0.13
-1.81
-3.21
-4.62
-6.35
-8.67
-11.75
-15.58
-19.92
-24.25
-27.85
-29.97
-30.04
-27.91
-23.88
-18.64
-13.00
-7.61
-2.85
1.23
4.78
7.97
10.84
13.34
15.31
16.63
17.30
17.52
17.56
17.72
18.17
18.85
19.55
19.97
19.86
19.17
18.00
16.59
15.14
13.81
12.59
11.42
10.18
8.76
7.11
5.24
3.20
1.06
-1.13
-3.33
-5.59
-7.96
-10.53
-13.40
-16.63
-20.25
-24.21
-28.38
-32.36
-35.63
-37.48
-37.34
-34.91
-30.34
-24.23
-17.48
-11.03
-5.50
-1.19
2.07
4.71
7.18
9.78
12.55
15.29
17.70
19.54
20.73
21.37
21.66
21.79
21.87
21.89
21.78
21.50
21.01
20.35
19.54
18.57
17.36
15.86
14.04
11.97
9.81
7.74
5.89
4.27
2.78
1.22
-0.54
-2.56
-4.72
-6.92
-9.04
-11.17
-13.50
-16.30
-19.76
-23.82
-28.07
-31.81
-34.18
-34.42
-32.23
-27.83
-21.95
-15.59
-9.62
-4.59
-0.62
2.48
5.00
7.14
9.01
10.62
11.96
13.03
13.85
14.47
14.94
15.34
15.74
16.17
16.59
16.90
16.98
16.76
16.29
15.68
15.00
14.28
13.40
12.24
10.68
8.73
6.52
4.18
1.83
-0.47
-2.72
-4.91
-7.00
-8.96
-10.79
-12.65
-14.76
-17.39
-20.65
-24.39
-28.16
-31.29
-33.06
-32.94
-30.74
-26.67
-21.27
-15.31
-9.55
-4.52
-0.47
2.65
5.07
7.04
8.69
10.05
11.09
11.80
12.24
12.51
12.74
13.01
13.36
13.78
14.21
14.58
14.81
14.83
14.57
13.98
13.07
11.85
10.40
8.79
7.11
5.44
3.80
2.17
0.53
-1.15
-2.92
-4.79
-6.81
-9.07
-11.70
-14.76
-18.22
-21.87
-25.32
-28.12
-29.83
-30.12
-28.89
-26.21
-22.37
-17.74
-12.82
-8.08
-3.91
-0.52
2.10
4.18
6.01
7.83
9.68
11.41
12.78
13.63
13.97
13.99
14.01
14.25
14.78
15.46
16.01
16.20
15.93
15.23
14.25
13.12
11.88
10.57
9.17
7.73
6.33
5.02
3.77
2.44
0.84
-1.09
-3.26
-5.43
-7.34
-8.84
-10.13
-11.59
-13.74
-16.87
-20.91
-25.31
-29.16
-31.49
-31.59
-29.29
-24.94
-19.38
-13.57
-8.34
-4.14
-1.01
1.30
3.15
4.79
6.35
7.75
8.92
9.82
10.52
11.15
11.81
12.54
13.27
13.93
14.44
14.78
14.97
15.04
15.00
14.82
14.42
13.75
12.75
11.41
9.75
7.84
5.79
3.77
1.87
0.16
-1.37
-2.82
-4.31
-5.98
-7.98
-10.38
-13.25
-16.53
-20.08
-23.61
-26.74
-28.99
-29.92
-29.17
-26.69
-22.70
-17.73
-12.46
-7.56
-3.52
-0.54
1.46
2.70
3.48
3.97
4.27
4.42
4.42
4.35
4.37
4.59
5.01
5.49
5.77
5.59
4.88
3.79
2.64
1.82
1.50
1.57
1.66
1.36
0.43
-1.06
-2.75
-4.17
-5.04
-5.38
-5.54
-6.01
-7.20
-9.22
-11.92
-14.89
-17.64
-19.72
-20.79
-20.59
-18.99
-16.06
-12.09
-7.59
-3.21
0.47
3.17
4.97
6.21
7.32
8.59
10.03
11.41
12.45
12.99
13.09
12.99
13.01
13.39
14.18
15.31
16.65
18.06
19.48
20.84
22.01
22.84
23.08
22.45
20.83
18.20
14.81
11.05
7.41
4.31
1.96
0.30
-1.05
-2.58
-4.79
-7.94
-11.99
-16.61
-21.21
-25.11
-27.69
-28.48
-27.33
-24.46
-20.44
-16.07
-12.07
-8.96
-6.89
-5.69
-4.97
-4.33
-3.52
-2.43
-1.11
0.35
1.80
3.12
4.16
4.84
5.11
5.02
4.68
4.24
3.82
3.44
3.06
2.59
1.94
1.12
0.15
-0.86
-1.88
-2.95
-4.20
-5.78
-7.76
-10.14
-12.79
-15.54
-18.28
-20.87
-23.15
-24.84
-25.58
-24.91
-22.55
-18.52
-13.19
-7.27
-1.52
3.43
7.25
9.92
11.63
12.63
13.20
13.56
13.88
14.28
14.87
15.64
16.48
17.23
17.71
17.77
17.39
16.63
15.59
14.35
12.88
11.08
8.88
6.28
3.40
0.47
-2.26
-4.66
-6.74
-8.70
-10.84
-13.46
-16.71
-20.48
-24.34
-27.65
-29.69
-29.92
-28.15
-24.64
-19.97
-14.87
-9.98
-5.71
-2.21
0.57
2.78
4.62
6.30
8.00
9.85
11.83
13.80
15.50
16.67
17.15
16.94
16.18
15.12
14.00
13.00
12.18
11.45
10.66
9.62
8.15
6.17
3.72
0.95
-1.94
-4.76
-7.44
-9.99
-12.54
-15.27
-18.37
-21.87
-25.57
-28.98
-31.39
-32.13
-30.77
-27.38
-22.49
-16.95
-11.53
-6.70
-2.54
1.16
4.67
8.10
11.33
14.15
16.35
17.89
18.88
19.51
19.94
20.26
20.43
20.41
20.21
19.88
19.51
19.17
18.78
18.23
17.36
16.07
14.32
12.23
9.91
7.50
5.13
2.86
0.70
-1.41
-3.63
-6.24
-9.51
-13.58
-18.24
-22.85
-26.51
-28.32
-27.77
-24.95
-20.49
-15.31
-10.20
-5.61
-1.56
2.12
5.59
8.84
11.69
13.97
15.66
16.90
17.93
18.97
20.11
21.33
22.46
23.31
23.73
23.69
23.22
22.50
21.67
20.88
20.13
19.33
18.33
16.99
15.24
13.13
10.74
8.18
5.59
3.10
0.81
-1.21
-3.02
-4.83
-6.96
-9.70
-13.20
-17.32
-21.62
-25.46
-28.09
-28.95
-27.79
-24.76
-20.35
-15.21
-9.98
-5.11
-0.81
2.89
6.08
8.84
11.21
13.15
14.64
15.65
16.21
16.40
16.30
16.04
15.76
15.57
15.49
15.48
15.40
15.12
14.57
13.75
12.72
11.54
10.24
8.75
7.00
4.98
2.76
0.48
-1.69
-3.68
-5.56
-7.50
-9.75
-12.38
-15.33
-18.26
-20.67
-21.99
-21.80
-19.93
-16.57
-12.20
-7.44
-2.84
1.28
4.82
7.87
10.56
12.93
14.92
16.40
17.30
17.64
17.59
17.40
17.30
17.44
17.83
18.36
18.83
19.02
18.78
18.08
16.98
15.66
14.33
13.11
11.97
10.78
9.31
7.43
5.08
2.43
-0.27
-2.72
-4.78
-6.47
-8.01
-9.67
-11.66
-14.04
-16.73
-19.44
-21.82
-23.47
-24.03
-23.25
-21.10
-17.72
-13.48
-8.90
-4.54
-0.87
1.81
3.51
4.42
4.89
5.27
5.78
6.46
7.25
8.04
8.76
9.40
10.02
10.62
11.14
11.50
11.62
11.48
11.19
10.88
10.67
10.53
10.30
9.76
8.71
7.15
5.25
3.35
1.76
0.60
-0.22
-1.01
-2.14
-3.86
-6.23
-9.14
-12.37
-15.58
-18.44
-20.53
-21.51
-21.13
-19.43
-16.71
-13.53
-10.46
-7.87
-5.81
-4.02
-2.17
-0.06
2.25
4.44
6.12
7.06
7.27
7.02
6.72
6.69
7.08
7.82
8.65
9.29
9.56
9.39
8.89
8.23
7.56
6.95
6.36
5.67
4.80
3.74
2.62
1.55
0.59
-0.37
-1.54
-3.11
-5.13
-7.41
-9.66
-11.51
-12.71
-13.11
-12.66
-11.36
-9.30
-6.67
-3.80
-1.10
1.05
2.43
3.00
2.82
1.93
0.24
-2.37
-5.86
-9.92
-13.86
-16.83
-18.11
-17.32
-14.59
-10.42
-5.55
-0.77
3.23
5.89
6.95
6.41
4.55
1.66
-2.09
-6.80
-12.73
-20.02
-28.46
-37.31
-45.49
-51.93
-56.10
-58.30
-59.43
-60.75
-63.30
-67.61
-73.65
-80.84
-88.21
-94.31
-97.27
-95.15
-86.55
-71.25
-50.72
-27.81
-5.93
12.15
25.10
33.11
37.49
39.80
41.51
43.70
47.23
52.73
60.49
70.20
80.91
91.32
100.20
106.88
111.34
113.97
115.30
115.58
114.75
112.48
108.40
102.26
94.05
84.03
72.70
60.66
48.52
36.81
25.91
16.07
7.36
-0.20
-6.53
-11.39
-14.22
-14.24
-10.66
-3.14
7.92
21.17
34.67
46.32
54.64
59.15
60.50
60.09
59.51
60.06
62.29
65.87
69.55
71.24
68.47
59.05
41.95
17.88
-10.74
-40.49
-68.03
-91.03
-108.65
-121.15
-129.24
-133.50
-134.18
-131.48
-125.99
-118.78
-111.22
-104.44
-98.94
-94.53
-90.59
-86.55
-82.15
-77.52
-72.99
-68.78
-64.88
-61.07
-57.25
-53.71
-51.20
-50.68
-52.67
-56.55
-60.33
-61.05
-55.79
-43.00
-23.34
0.31
23.81
43.20
56.04
61.99
62.44
59.62
55.55
51.48
47.84
44.57
41.49
38.56
35.84
33.41
31.25
29.19
26.97
24.36
21.28
17.79
14.05
10.25
6.54
3.03
-0.28
-3.38
-6.20
-8.59
-10.33
-11.25
-11.20
-10.25
-8.60
-6.63
-4.77
-3.35
-2.53
-2.24
-2.24
-2.25
-2.06
-1.65
-1.17
-0.87
-0.92
-1.35
-2.08
-2.94
-3.84
-4.82
-5.91
-7.15
-8.43
-9.52
-10.20
-10.38
-10.14
-9.75
-9.54
-9.81
-10.67
-12.11
-13.98
-16.04
-17.99
-19.46
-20.10
-19.59
-17.78
-14.78
-10.93
-6.80
-3.05
-0.21
1.44
1.97
1.72
1.18
0.79
0.84
1.36
2.21
3.16
4.02
4.69
5.19
5.55
5.81
5.95
5.95
5.80
5.52
5.18
4.84
4.46
3.92
3.04
1.69
-0.08
-2.06
-3.93
-5.42
-6.48
-7.29
-8.22
-9.64
-11.71
-14.29
-16.92
-18.97
-19.85
-19.25
-17.18
-14.04
-10.36
-6.69
-3.37
-0.56
1.76
3.66
5.17
6.28
7.03
7.56
8.09
8.87
10.01
11.46
13.05
14.55
15.82
16.77
17.38
17.63
17.51
17.01
16.22
15.28
14.36
13.55
12.79
11.95
10.82
9.32
7.50
5.55
3.64
1.86
0.15
-1.73
-4.02
-6.88
-10.29
-14.07
-17.92
-21.54
-24.63
-26.88
-27.98
-27.64
-25.72
-22.41
-18.18
-13.70
-9.62
-6.30
-3.69
-1.50
0.69
3.09
5.69
8.24
10.48
12.27
13.63
14.75
15.80
16.92
18.16
19.47
20.78
21.97
22.83
23.13
22.69
21.48
19.63
17.47
15.37
13.60
12.28
11.36
10.66
9.97
9.11
7.90
6.21
4.01
1.37
-1.47
-4.19
-6.49
-8.28
-9.74
-11.27
-13.32
-16.19
-19.82
-23.67
-26.93
-28.72
-28.45
-26.05
-22.00
-17.10
-12.17
-7.76
-4.02
-0.78
2.18
5.02
7.68
10.01
11.93
13.49
14.80
16.00
17.09
18.00
18.67
19.09
19.40
19.74
20.18
20.68
21.06
21.15
20.86
20.24
19.40
18.45
17.51
16.58
15.58
14.36
12.75
10.62
8.01
5.14
2.34
-0.03
-1.82
-3.09
-4.13
-5.30
-6.89
-9.01
-11.61
-14.49
-17.38
-19.92
-21.65
-22.11
-20.90
-17.97
-13.67
-8.69
-3.93
-0.18
1.92
2.04
0.03
-3.98
-9.54
-15.80
-21.54
-25.42
-26.36
-23.95
-18.61
-11.44
-3.87
2.90
8.15
11.76
13.93
14.80
14.14
11.37
5.90
-2.44
-13.07
-24.66
-35.54
-44.10
-49.13
-49.79
-45.52
-36.04
-21.63
-3.50
16.19
34.80
50.00
60.51
66.37
68.51
68.05
65.60
61.20
54.65
46.04
36.04
25.84
16.70
9.53
4.72
2.08
1.14
1.30
1.97
2.68
2.99
2.55
1.14
