1553547250.00
64.000000
-0.00
-0.00
-0.00
-0.00
-0.00
-0.00
-0.00
-0.00
-0.00
-0.00
0.00
0.01
0.01
-0.00
-0.03
-0.05
-0.05
0.00
0.13
0.36
0.66
1.01
1.37
1.72
2.06
2.40
2.79
3.24
3.80
4.42
5.06
5.66
6.20
6.68
7.15
7.68
8.31
9.14
10.09
11.04
11.88
12.56
13.14
13.76
14.65
15.96
17.91
20.32
22.90
25.38
27.58
29.57
31.68
34.32
37.81
42.54
48.15
54.10
59.83
64.97
69.58
74.14
79.34
85.71
93.76
103.00
112.62
121.73
129.77
136.75
143.30
150.75
157.77
166.64
177.95
191.79
206.97
220.57
228.25
225.36
208.53
176.87
132.76
80.05
23.07
-34.94
-92.44
-149.16
-205.23
-260.36
-313.74
-363.87
-409.84
-450.92
-486.52
-515.74
-537.20
-549.14
-549.86
-538.29
-514.25
-478.93
-434.41
-383.27
-328.07
-271.01
-213.80
-157.73
-103.91
-53.28
-6.86
34.47
70.11
99.87
123.95
142.89
157.32
167.85
174.96
178.98
180.24
179.11
176.09
171.69
166.31
160.19
153.33
145.64
137.11
127.93
118.55
109.53
101.38
94.20
87.67
81.14
73.91
65.58
56.36
47.00
38.55
31.86
27.16
23.86
20.78
16.64
10.67
3.02
-5.23
-12.69
-18.01
-20.66
-20.99
-20.12
-19.58
-21.11
-26.25
-35.65
-48.11
-59.82
-64.94
-57.44
-33.80
4.87
52.51
99.88
137.75
159.80
164.16
153.01
131.01
103.59
75.63
51.08
32.55
21.28
16.90
17.65
21.05
24.74
27.22
27.74
26.36
23.51
19.83
16.12
13.13
11.33
10.73
10.79
10.52
9.10
5.85
0.78
-5.44
-11.78
-17.18
-20.95
-22.93
-23.50
-23.36
-23.37
-24.22
-26.14
-28.91
-31.74
-33.67
-33.83
-31.76
-27.55
-21.74
-15.04
-8.24
-2.18
2.24
4.01
2.37
-2.76
-10.48
-18.93
-25.88
-29.59
-29.53
-26.47
-21.99
-17.70
-14.56
-12.69
-11.56
-10.46
-8.79
-6.40
-3.53
-0.94
0.20
-1.39
-6.56
-15.01
-25.19
-34.71
-41.28
-43.63
-41.91
-37.56
-32.28
-27.47
-23.74
-20.93
-18.68
-16.82
-15.32
-13.97
-12.10
-8.47
-1.71
8.64
21.91
36.16
48.76
57.41
61.07
60.30
56.96
53.19
50.44
49.03
48.17
46.71
43.78
39.25
33.65
27.86
22.55
18.00
14.02
9.98
5.28
-0.47
-7.18
-14.25
-20.64
-25.34
-27.64
-27.34
-24.90
-21.22
-17.34
-14.02
-11.51
-9.59
-7.84
-5.95
-3.94
-2.10
-0.56
0.84
2.61
5.15
8.39
11.50
13.21
12.54
9.44
5.00
0.91
-1.38
-1.31
0.62
3.19
5.20
6.03
5.77
4.99
4.23
3.79
3.62
3.53
3.40
3.26
3.24
3.45
3.77
3.96
3.78
3.13
2.23
1.58
1.79
3.36
6.37
10.37
14.46
17.51
18.59
17.29
13.91
9.35
4.66
0.63
-2.45
-4.84
-6.97
-9.16
-11.39
-13.29
-14.44
-14.59
-13.84
-12.68
-11.80
-11.82
-13.06
-15.35
-18.12
-20.48
-21.62
-20.97
-18.41
-14.22
-9.01
-3.53
1.53
5.60
8.45
10.12
11.03
11.68
12.51
13.69
15.08
16.29
16.88
16.59
15.39
13.51
11.26
8.92
6.66
4.53
2.63
1.13
0.36
0.58
1.89
4.01
6.36
8.24
9.13
8.94
8.09
7.33
7.29
8.22
9.74
11.01
11.06
9.29
5.91
1.86
-1.50
-3.01
-2.27
0.14
2.93
4.69
4.47
2.19
-1.47
-5.56
-9.28
-12.32
-14.87
-17.28
-19.80
-22.56
-25.76
-29.79
-35.13
-42.03
-50.04
-57.90
-63.89
-66.49
-65.07
-60.07
-52.83
-44.85
-37.24
-30.43
-24.29
-18.42
-12.43
-6.01
1.17
9.34
18.61
28.62
38.50
46.97
52.75
54.94
53.34
48.58
41.92
35.01
29.43
26.25
25.70
27.07
28.95
29.68
27.96
23.13
15.28
5.06
-6.54
-18.29
-28.83
-36.84
-41.43
-42.53
-41.04
-38.40
-35.85
-33.78
-31.55
-27.85
-21.57
-12.55
-1.87
8.52
16.51
20.63
20.50
16.82
11.03
4.83
-0.29
-3.39
-4.32
-3.65
-2.35
-1.61
-2.52
-6.01
-12.63
-22.39
-34.45
-47.10
-58.00
-64.90
-66.34
-62.13
-53.40
-42.10
-30.30
-19.64
-11.17
-5.27
-1.72
0.28
2.08
5.20
10.73
18.64
27.66
35.65
40.55
41.26
38.04
32.25
25.62
19.54
14.78
11.48
9.30
7.66
5.92
3.71
1.07
-1.40
-2.74
-2.24
0.08
3.40
6.21
7.13
5.55
1.84
-2.98
-7.71
-11.37
-13.15
-12.22
-7.78
0.52
11.97
24.56
35.30
41.39
41.36
35.82
27.15
18.39
11.97
8.85
8.61
10.09
12.20
14.28
16.22
18.01
19.65
20.98
21.78
21.75
20.76
18.81
16.08
13.00
10.04
7.52
5.36
3.04
-0.20
-4.93
-11.17
-18.23
-24.93
-30.05
-32.78
-32.85
-30.48
-26.15
-20.41
-13.91
-7.44
-1.97
1.58
2.57
1.10
-1.94
-4.99
-6.44
-5.27
-1.51
3.76
8.90
12.44
13.60
12.52
10.03
7.14
4.69
3.20
2.87
3.81
6.01
9.19
12.80
15.99
17.91
17.97
16.18
13.07
9.56
6.59
4.88
4.63
5.54
6.94
8.08
8.48
8.12
7.38
6.84
6.85
7.35
7.86
7.71
6.43
3.99
0.86
-2.21
-4.57
-5.90
-6.32
-6.24
-6.09
-5.97
-5.63
-4.57
-2.40
0.85
4.69
8.31
11.06
12.60
12.99
12.37
10.78
8.10
4.30
-0.22
-4.53
-7.45
-8.10
-6.24
-2.40
2.40
7.16
11.24
14.38
16.55
17.76
18.16
18.10
18.32
19.81
23.36
29.10
36.27
43.53
49.51
53.50
55.73
57.23
59.20
62.41
66.66
70.64
72.31
69.54
60.88
46.17
26.80
5.42
-14.74
-30.86
-41.27
-45.93
-46.16
-44.13
-41.89
-40.86
-41.51
-43.55
-46.33
-49.28
-52.05
-54.55
-56.76
-58.54
-59.62
-59.69
-58.58
-56.24
-52.84
-48.68
-44.12
-39.64
-35.72
-32.74
-30.74
-29.30
-27.76
-25.54
-22.66
-19.81
-18.11
-18.40
-20.62
-23.67
-25.91
-25.95
-23.44
-19.15
-14.52
-10.67
-7.89
-5.63
-3.01
0.42
4.37
8.07
10.92
13.02
15.23
18.59
23.56
29.59
35.28
38.99
39.71
37.44
33.08
27.89
22.95
18.83
15.62
13.30
11.98
11.91
13.36
16.22
19.71
22.53
23.27
20.99
15.78
8.81
1.91
-3.29
-6.07
-6.92
-7.08
-7.93
-10.28
-14.24
-19.41
-25.26
-31.21
-36.58
-40.35
-41.31
-38.43
-31.52
-21.55
-10.51
-0.74
5.97
8.92
8.61
6.28
3.23
0.34
-2.16
-4.65
-7.91
-12.73
-19.54
-28.03
-36.98
-44.45
-48.30
-46.96
-40.05
-28.58
-14.55
-0.20
12.77
23.56
32.17
38.90
43.92
47.05
48.02
46.81
43.98
40.55
37.62
35.90
35.44
35.65
35.64
34.74
32.74
29.94
26.83
23.77
20.75
17.43
13.44
8.69
3.62
-1.05
-4.66
-7.00
-8.40
-9.56
-11.07
-13.05
-15.08
-16.51
-16.93
-16.37
-15.28
-14.06
-12.84
-11.34
-9.16
-6.21
-2.92
-0.05
1.64
1.85
0.77
-1.07
-3.16
-5.15
-6.86
-8.16
-8.90
-9.01
-8.59
-8.02
-7.76
-8.26
-9.77
-12.37
-15.98
-20.43
-25.33
-29.96
-33.25
-34.09
-31.92
-27.13
-21.18
-16.13
-13.82
-15.16
-19.69
-25.86
-31.50
-34.63
-34.00
-29.32
-21.17
-10.67
1.02
13.00
24.67
35.58
45.26
53.12
58.69
61.74
62.42
61.16
58.48
54.81
50.56
46.19
42.39
39.89
39.16
40.02
41.60
42.59
41.78
38.53
32.84
25.22
16.41
7.10
-2.04
-10.39
-17.45
-22.83
-26.45
-28.51
-29.51
-29.93
-30.14
-30.21
-30.02
-29.39
-28.26
-26.66
-24.72
-22.50
-19.99
-17.23
-14.38
-11.81
-9.92
-8.92
-8.77
-9.13
-9.60
-9.92
-10.15
-10.50
-11.21
-12.36
-13.69
-14.64
-14.56
-13.01
-9.93
-5.71
-0.98
3.66
7.81
11.36
14.27
16.44
17.53
17.10
14.83
10.70
5.14
-1.07
-6.97
-11.67
-14.55
-15.35
-14.25
-11.86
-8.99
-6.34
-4.25
-2.61
-1.06
0.73
2.78
4.86
6.58
7.63
7.91
7.45
6.33
4.62
2.45
0.09
-2.06
-3.57
-4.15
-3.86
-3.06
-2.27
-1.90
-2.15
-2.94
-4.05
-5.23
-6.32
-7.20
-7.74
-7.77
-7.16
-5.85
-3.96
-1.82
0.10
1.35
1.64
0.99
-0.26
-1.63
-2.65
-3.03
-2.81
-2.24
-1.62
-1.16
-0.88
-0.63
-0.29
0.19
0.69
1.08
1.26
1.31
1.42
1.75
2.37
3.12
3.76
4.02
3.76
2.99
1.88
0.66
-0.45
-1.29
-1.73
-1.72
-1.31
-0.58
0.35
1.38
2.48
3.67
4.94
6.21
7.27
7.85
7.68
6.63
4.81
2.51
0.10
-2.09
-3.95
-5.52
-6.97
-8.43
-9.89
-11.22
-12.21
-12.72
-12.68
-12.07
-10.90
-9.15
-6.86
-4.18
-1.33
1.39
3.76
5.64
7.01
7.82
8.02
7.56
6.51
5.09
3.69
2.67
2.24
2.30
2.54
2.62
2.34
1.78
1.16
0.76
0.76
1.17
1.91
2.88
3.99
5.12
6.08
6.60
6.45
5.55
4.08
2.39
0.85
-0.37
-1.29
-2.08
-2.91
-3.78
-4.56
-5.08
-5.19
-4.89
-4.28
-3.51
-2.70
-1.95
-1.32
-0.84
-0.48
-0.08
0.61
1.85
3.77
6.23
8.78
10.85
11.86
11.44
9.52
6.34
2.43
-1.52
-4.83
-7.03
-7.96
-7.78
-6.85
-5.51
-3.95
-2.21
-0.28
1.69
3.37
4.35
4.42
3.70
2.66
1.87
1.73
2.35
3.48
4.73
5.73
6.24
6.24
5.89
5.39
4.93
4.50
3.96
3.02
1.45
-0.78
-3.41
-5.99
-8.03
-9.20
-9.45
-8.95
-7.97
-6.79
-5.56
-4.36
-3.17
-1.95
-0.63
0.87
2.52
4.20
5.62
6.45
6.43
5.50
3.82
1.71
-0.54
-2.70
-4.65
-6.32
-7.61
-8.39
-8.53
-8.07
-7.20
-6.31
-5.79
-5.86
-6.42
-7.07
-7.30
-6.78
-5.45
-3.56
-1.52
0.22
1.41
1.95
1.96
1.65
1.29
1.14
1.37
2.07
3.20
4.58
5.97
7.15
7.93
8.18
7.86
6.96
5.63
4.07
2.59
1.42
0.65
0.19
-0.15
-0.51
-0.97
-1.43
-1.77
-1.92
-1.87
-1.76
-1.70
-1.72
-1.75
-1.63
-1.16
-0.28
0.94
2.28
3.35
3.68
2.89
0.83
-2.27
-5.81
-9.05
-11.30
-12.12
-11.48
-9.72
-7.42
-5.12
-3.18
-1.65
-0.32
1.11
2.85
4.86
6.77
8.02
8.10
6.78
4.33
1.47
-0.81
-1.64
-0.51
2.52
6.77
11.12
14.36
15.64
14.67
11.82
7.90
3.75
0.06
-2.77
-4.51
-5.07
-4.46
-2.96
-1.16
0.14
0.23
-1.16
-3.68
-6.48
-8.61
-9.42
-8.78
-7.04
-4.78
-2.54
-0.65
0.75
1.71
2.33
2.80
3.25
3.78
4.36
4.82
4.96
4.57
3.62
2.26
0.78
-0.49
-1.31
-1.62
-1.52
-1.18
-0.81
-0.56
-0.49
-0.67
-1.03
-1.45
-1.70
-1.57
-1.06
-0.39
-0.01
-0.36
-1.52
-3.16
-4.61
-5.21
-4.64
-3.04
-0.93
1.12
2.72
3.69
3.97
3.48
2.12
-0.06
-2.69
-5.06
-6.42
-6.25
-4.58
-1.98
0.70
2.70
3.63
3.58
3.01
2.39
2.10
2.24
2.69
3.19
3.34
2.72
0.85
-2.59
-7.54
-13.24
-18.25
-20.76
-19.29
-13.43
-4.16
6.38
15.73
21.99
24.43
23.55
20.49
16.45
12.18
8.00
4.01
0.41
-2.44
-4.19
-4.74
-4.36
-3.58
-2.97
-2.93
-3.48
-4.36
-5.17
-5.60
-5.56
-5.13
-4.46
-3.70
-2.94
-2.25
-1.77
-1.66
-2.04
-2.96
-4.33
-5.92
-7.47
-8.67
-9.19
-8.74
-7.17
-4.61
-1.44
1.80
4.59
6.63
7.86
8.31
8.03
7.09
5.67
4.15
3.02
2.70
3.23
4.18
4.85
4.66
3.48
1.72
0.07
-0.86
-0.90
-0.36
0.22
0.36
-0.07
-0.81
-1.35
-1.19
-0.11
1.76
4.01
6.12
7.68
8.49
8.57
8.09
7.22
6.12
4.84
3.41
1.79
-0.02
-1.96
-3.85
-5.48
-6.66
-7.38
-7.87
-8.51
-9.58
-11.08
-12.62
-13.56
-13.32
-11.67
-8.84
-5.39
-1.97
0.92
3.04
4.37
5.04
5.26
5.27
5.31
5.55
6.03
6.61
7.05
7.10
6.68
5.84
4.72
3.49
2.25
1.09
0.16
-0.41
-0.49
-0.11
0.55
1.21
1.61
1.61
1.19
0.41
-0.74
-2.30
-4.31
-6.61
-8.79
-10.27
-10.51
-9.26
-6.59
-2.91
1.22
5.23
8.62
11.01
12.10
11.75
10.08
7.57
4.95
3.04
2.31
2.75
3.78
4.58
4.47
3.20
1.00
-1.65
-4.25
-6.50
-8.27
-9.54
-10.15
-9.90
-8.62
-6.40
-3.68
-1.10
0.73
1.48
1.29
0.57
-0.19
-0.68
-0.91
-1.05
-1.32
-1.78
-2.34
-2.78
-2.96
-2.86
-2.64
-2.43
-2.30
-2.17
-1.92
-1.46
-0.87
-0.29
0.18
0.52
0.96
1.77
3.17
5.13
7.35
9.33
10.61
10.92
10.27
8.88
7.00
4.82
2.46
-0.02
-2.48
-4.67
-6.31
-7.21
-7.34
-6.90
-6.22
-5.60
-5.25
-5.14
-5.10
-4.90
-4.35
-3.41
-2.18
-0.91
0.13
0.68
0.55
-0.27
-1.64
-3.22
-4.59
-5.30
-5.04
-3.70
-1.46
1.31
4.09
6.31
7.49
7.42
6.25
4.49
2.83
1.94
2.15
3.35
4.99
6.40
6.97
6.46
5.03
3.10
1.17
-0.37
-1.35
-1.78
-1.77
-1.47
-1.02
-0.51
-0.00
0.43
0.72
0.81
0.70
0.41
0.01
-0.44
-0.90
-1.35
-1.78
-2.11
-2.14
-1.70
-0.65
0.97
2.91
4.80
6.24
7.02
7.13
6.76
6.14
5.43
4.70
3.92
3.07
2.14
1.11
-0.05
-1.46
-3.24
-5.49
-8.21
-11.25
-14.26
-16.79
-18.34
-18.48
-17.02
-14.05
-10.00
-5.48
-1.13
2.57
5.37
7.26
8.38
8.96
9.18
9.19
9.07
8.81
8.35
7.66
6.73
5.69
4.72
4.04
3.77
3.90
4.38
5.19
6.46
8.37
11.04
14.32
17.70
20.50
22.09
22.25
21.27
19.85
18.83
18.91
20.29
22.71
25.53
28.17
30.49
33.02
36.75
42.66
51.10
61.39
71.95
80.81
86.30
87.63
85.12
80.09
74.54
70.71
70.32
73.88
79.95
84.88
83.22
69.34
39.56
-5.97
-62.34
-120.95
-172.04
-207.87
-224.88
-224.39
-211.27
-191.60
-170.42
-150.31
-131.59
-113.17
-93.89
-73.16
-51.08
-28.24
-5.41
16.36
35.74
51.09
61.10
65.36
64.92
61.99
59.13
58.02
58.77
60.01
59.56
55.56
47.25
35.03
20.27
4.92
-8.74
-18.49
-22.47
-19.78
-10.97
1.86
15.58
27.10
34.27
36.41
34.01
28.09
19.49
8.55
-4.77
-20.27
-37.11
-53.61
-67.75
-78.10
-84.42
-87.82
-89.91
-91.81
-93.53
-94.19
-92.91
-89.51
-84.41
-77.82
-68.89
-55.80
-37.01
-13.14
11.78
31.16
38.44
30.30
8.49
-20.72
-49.41
-71.23
-83.40
-86.51
-82.83
-74.51
-62.72
-47.82
-30.17
-10.39
10.94
33.81
58.93
87.09
117.99
149.62
178.70
201.71
216.13
220.98
216.47
203.44
182.89
156.20
125.58
94.07
64.96
40.69
21.95
7.57
-4.71
-16.90
-29.92
-43.60
-57.32
-70.64
-83.28
-94.45
-102.48
-105.32
-101.76
-92.87
-82.21
-74.86
-75.18
-85.05
-103.26
-126.25
-149.48
-168.49
-179.27
-178.34
-163.24
-133.67
-92.66
-46.62
-3.83
28.51
46.86
52.40
49.88
45.03
42.00
42.09
43.92
44.66
41.15
30.77
12.02
-14.79
-46.85
-78.77
-103.61
-114.97
-109.44
-88.19
-56.46
-21.49
10.28
35.13
52.32
63.06
68.97
71.08
69.50
63.81
53.68
39.46
22.64
5.78
-7.99
-16.33
-18.98
-18.47
-19.41
-26.31
-41.11
-61.57
-81.71
-94.20
-93.43
-77.51
-48.34
-10.17
32.30
75.14
115.27
150.09
177.33
195.38
204.01
204.44
198.31
186.42
168.07
141.81
107.22
66.15
22.88
-17.17
-49.48
-71.83
-84.39
-88.66
-86.40
-78.76
-67.19
-53.83
-41.17
-30.95
-22.86
-14.41
-2.40
15.02
37.49
61.83
83.80
100.24
110.62
116.96
122.75
131.00
143.24
160.18
180.96
203.39
224.06
238.97
244.55
238.97
222.79
194.06
154.60
108.60
61.68
19.37
-14.37
-37.81
-51.45
-57.43
-58.61
-56.43
-52.22
-46.74
-40.83
-35.88
-34.05
-37.83
-49.33
-69.55
-97.37
-129.67
-161.89
-189.13
-207.28
-213.94
-209.03
-194.68
-174.51
-152.01
-129.94
-109.82
-92.13
-76.88
-64.12
-54.14
-47.09
-42.62
-39.58
-36.58
-32.69
-27.92
-23.15
-19.64
-18.15
-18.51
-19.76
-20.52
-19.85
-17.64
-14.57
-11.62
-9.51
-8.33
-7.61
-6.68
-5.12
-2.93
-0.57
1.36
2.41
2.54
2.17
1.98
2.64
4.57
7.73
11.67
15.72
19.14
21.41
22.17
21.37
19.19
16.07
12.72
10.01
8.72
9.24
11.31
14.11
16.61
18.08
18.43
18.20
18.17
18.84
20.22
21.82
23.07
23.71
23.89
24.04
24.47
25.13
25.63
25.48
24.45
22.75
21.05
20.20
20.94
23.61
27.95
33.16
38.20
42.19
44.78
46.36
47.93
50.64
55.23
61.59
68.78
75.31
79.86
81.81
81.58
80.45
80.26
82.89
89.64
100.52
113.78
125.70
131.18
125.10
104.10
68.20
21.27
-29.88
-77.58
-115.64
-140.95
-153.65
-156.21
-151.93
-143.71
-133.65
-123.11
-113.22
-104.97
-99.12
-95.77
-94.16
-92.76
-89.89
-84.42
-76.23
-66.21
-55.87
-46.69
-39.56
-34.53
-31.01
-28.13
-25.17
-21.87
-18.39
-15.11
-12.35
-10.19
-8.46
-6.81
-5.00
-2.92
-0.73
1.35
3.11
4.46
5.44
6.18
6.74
7.04
6.97
6.37
5.24
3.73
2.14
0.81
-0.04
-0.40
-0.50
-0.67
-1.16
-1.95
-2.75
-3.09
-2.42
-0.45
2.86
7.14
11.79
15.96
18.86
19.89
18.83
15.93
11.74
6.90
1.96
-2.75
-7.00
-10.62
-13.34
-14.95
-15.44
-15.03
-14.16
-13.22
-12.32
-11.27
-9.71
-7.41
-4.41
-0.99
2.43
5.58
8.31
10.65
12.52
13.87
14.56
14.57
14.00
12.98
11.57
9.63
7.03
3.85
0.49
-2.42
-4.37
-5.21
-5.24
-5.02
-4.98
-5.20
-5.38
-5.08
-4.00
-2.15
0.14
2.43
4.34
5.65
6.36
6.63
6.63
6.53
6.39
6.14
5.53
4.35
2.48
0.01
-2.81
-5.61
-8.01
-9.71
-10.43
-10.07
-8.62
-6.23
-3.22
0.04
3.15
5.80
7.80
9.11
9.72
9.59
8.61
6.63
3.65
-0.08
-4.04
-7.51
-9.86
-10.80
-10.51
-9.58
-8.78
-8.71
-9.55
-11.11
-12.98
-14.78
-16.35
-17.71
-18.87
-19.66
-19.76
-18.81
-16.81
-14.08
-11.24
-8.93
-7.43
-6.63
-6.08
-5.22
-3.71
-1.50
1.19
4.01
6.70
9.17
11.51
13.84
16.17
18.28
19.72
20.08
19.16
17.15
14.59
12.07
9.90
7.96
5.83
3.08
-0.33
-3.91
-6.84
-8.28
-7.86
-5.80
-2.82
0.21
2.66
4.34
5.36
5.84
5.70
4.72
2.94
1.05
0.23
1.71
6.00
12.44
19.44
25.27
28.93
30.52
31.03
31.54
32.54
33.76
34.50
34.25
33.04
31.37
29.76
28.36
26.94
24.99
22.16
18.37
13.85
9.02
4.32
0.13
-3.31
-5.94
-7.82
-9.14
-10.17
-11.10
-12.00
-12.77
-13.29
-13.51
-13.49
-13.43
-13.45
-13.56
-13.65
-13.57
-13.25
-12.71
-12.08
-11.49
-11.07
-10.94
-11.22
-11.97
-13.12
-14.38
-15.34
-15.56
-14.81
-13.17
-11.05
-8.93
-7.22
-6.10
-5.50
-5.30
-5.49
-6.21
-7.60
-9.67
-12.11
-14.36
-15.75
-15.75
-14.18
-11.26
-7.51
-3.62
-0.21
2.32
3.82
4.36
4.16
3.53
2.75
2.07
1.72
1.76
2.14
2.66
3.12
3.34
3.26
2.92
2.39
1.82
1.39
1.33
1.88
3.16
5.02
7.04
8.63
9.17
8.31
6.06
2.82
-0.68
-3.67
-5.48
-5.82
-4.80
-2.95
-0.91
0.76
1.74
1.96
1.51
0.57
-0.64
-1.72
-2.19
-1.57
0.25
2.92
5.68
7.67
8.43
8.07
7.18
6.27
5.54
4.66
3.14
0.74
-2.30
-5.30
-7.57
-8.81
-9.31
-9.78
-10.98
-13.19
-15.87
-17.76
-17.34
-13.51
-6.18
3.57
13.86
22.65
28.43
30.66
29.63
26.16
21.24
15.84
10.82
6.94
4.73
4.37
5.65
8.07
11.06
14.06
16.55
18.02
18.03
16.42
13.43
9.65
5.81
2.34
-0.67
-3.42
-6.03
-8.35
-10.02
-10.78
-10.66
-10.06
-9.45
-9.04
-8.71
-8.04
-6.70
-4.60
-1.95
0.83
3.28
5.10
6.17
6.59
6.58
6.35
6.01
5.43
4.32
2.40
-0.29
-3.33
-6.07
-7.99
-8.98
-9.36
-9.66
-10.20
-10.96
-11.66
-12.07
-12.28
-12.67
-13.73
-15.63
-18.05
-20.29
-21.52
-21.18
-19.28
-16.30
-13.05
-10.30
-8.58
-8.01
-8.41
-9.35
-10.38
-11.09
-11.12
-10.19
-8.13
-5.00
-1.16
2.78
6.13
8.41
9.52
9.82
9.84
10.10
10.90
12.27
14.01
15.87
17.63
19.14
20.34
21.19
21.61
21.47
20.65
19.04
16.70
13.86
10.84
8.00
5.57
3.66
2.21
1.08
0.10
-0.84
-1.73
-2.52
-3.07
-3.31
-3.26
-3.12
-3.16
-3.60
-4.42
-5.31
-5.84
-5.68
-4.90
-3.89
-3.13
-2.90
-3.14
-3.56
-4.05
-4.94
-6.81
-10.35
-15.66
-22.16
-28.69
-34.06
-37.53
-39.07
-39.27
-38.87
-38.41
-38.01
-37.42
-36.15
-33.63
-29.40
-23.23
-15.32
-6.25
3.06
11.70
19.19
25.51
31.09
36.46
41.89
47.27
52.15
55.87
57.79
57.49
54.73
49.61
42.40
33.61
23.96
14.21
5.06
-2.96
-9.62
-14.94
-19.11
-22.30
-24.53
-25.61
-25.22
-23.11
-19.29
-14.17
-8.52
-3.20
1.11
4.12
5.92
6.87
7.32
7.54
7.58
7.48
7.35
7.47
8.16
9.63
11.73
13.94
15.60
16.22
15.71
14.29
12.07
8.77
3.64
-3.91
-13.76
-24.61
-34.21
-40.25
-41.35
-37.63
-30.50
-21.92
-13.42
-5.67
1.52
8.62
15.79
22.76
28.92
33.85
37.52
40.30
42.63
44.77
46.57
47.55
47.23
45.39
42.22
38.26
34.12
30.26
26.75
23.36
19.69
15.42
10.49
5.10
-0.26
-4.98
-8.58
-10.91
-12.23
-13.17
-14.36
-16.13
-18.35
-20.55
-22.20
-23.00
-23.00
-22.49
-21.73
-20.78
-19.45
-17.47
-14.76
-11.48
-8.03
-4.88
-2.35
-0.55
0.67
1.56
2.31
2.95
3.32
3.14
2.22
0.57
-1.48
-3.53
-5.28
-6.75
-8.29
-10.35
-13.21
-16.67
-20.04
-22.45
-23.17
-21.94
-19.00
-15.00
-10.71
-6.80
-3.75
-1.79
-0.92
-0.90
-1.25
-1.36
-0.71
0.96
3.51
6.50
9.32
11.44
12.50
12.34
10.97
8.57
5.55
2.50
0.08
-1.21
-1.25
-0.41
0.70
1.47
1.60
1.24
0.75
0.49
0.54
0.73
0.74
0.41
-0.18
-0.76
-1.12
-1.26
-1.46
-2.00
-3.02
-4.34
-5.63
-6.55
-6.99
-7.05
-6.88
-6.53
-5.90
-4.82
-3.24
-1.31
0.62
2.20
3.15
3.31
2.61
0.96
-1.66
-5.08
-8.84
-12.31
-14.84
-16.07
-16.03
-15.17
-14.05
-13.14
-12.65
-12.50
-12.41
-12.13
-11.58
-10.85
-10.12
-9.52
-8.98
-8.32
-7.28
-5.66
-3.40
-0.53
2.78
6.32
9.75
12.62
14.43
14.83
13.89
12.16
10.56
9.92
10.61
12.30
14.16
15.18
14.72
12.67
9.47
5.84
2.48
-0.14
-1.80
-2.49
-2.33
-1.44
-0.00
1.76
3.63
5.34
6.64
7.28
7.05
5.89
3.89
1.38
-1.19
-3.40
-5.05
-6.22
-7.19
-8.31
-9.71
-11.30
-12.91
-14.51
-16.30
-18.61
-21.63
-25.14
-28.43
-30.65
-31.09
-29.50
-26.08
-21.30
-15.72
-9.84
-4.23
0.52
3.89
5.59
5.88
5.52
5.45
6.42
8.56
11.42
14.17
16.10
16.85
16.51
15.38
13.80
11.95
9.95
7.95
6.17
4.83
4.02
3.64
3.47
3.38
3.39
3.70
4.46
5.60
6.83
7.68
7.87
7.41
6.63
6.01
5.89
6.33
7.08
7.77
8.00
7.57
6.58
5.32
4.20
3.46
3.01
2.37
0.92
-1.89
-6.18
-11.60
-17.50
-23.16
-28.00
-31.69
-34.13
-35.41
-35.82
-35.86
-36.11
-36.97
-38.24
-38.99
-37.66
-32.58
-22.68
-8.07
9.72
28.25
44.90
57.73
65.93
69.80
70.41
69.00
66.72
64.42
62.71
61.98
62.26
63.08
63.48
62.17
58.00
50.37
39.64
27.02
14.21
2.80
-6.19
-12.51
-16.60
-19.23
-21.10
-22.58
-23.78
-24.68
-25.24
-25.47
-25.45
-25.11
-24.29
-22.71
-20.14
-16.55
-12.19
-7.49
-2.95
1.03
4.30
6.90
8.89
10.25
10.76
10.09
7.99
4.58
0.41
-3.64
-6.70
-8.27
-8.38
-7.55
-6.56
-6.06
-6.40
-7.54
-9.13
-10.88
-12.65
-14.57
-16.83
-19.50
-22.26
-24.49
-25.50
-24.81
-22.42
-18.85
-14.86
-11.23
-8.45
-6.51
-5.16
-3.98
-2.67
-1.09
0.79
2.87
4.93
6.65
7.66
7.71
6.83
5.43
4.14
3.48
3.63
4.24
4.70
4.46
3.37
1.86
0.60
0.12
0.50
1.31
1.84
1.52
0.13
-2.09
-4.61
-6.88
-8.44
-9.07
-8.77
-7.74
-6.33
-4.93
-3.90
-3.44
-3.49
-3.78
-3.97
-3.87
-3.54
-3.25
-3.34
-4.00
-5.16
-6.54
-7.72
-8.31
-8.13
-7.34
-6.42
-6.14
-7.14
-9.66
-13.28
-17.01
-19.64
-20.21
-18.42
-14.64
-9.75
-4.67
-0.19
3.21
5.33
6.21
6.08
5.41
4.80
4.78
5.63
7.22
9.07
10.67
11.63
11.92
11.76
11.40
11.00
10.54
9.99
9.41
8.98
8.93
9.37
10.15
10.93
11.30
10.98
9.95
8.37
6.53
4.71
3.12
1.92
1.18
0.80
0.48
-0.45
-2.76
-7.02
-13.29
-20.90
-28.73
-35.66
-41.06
-45.04
-48.20
-51.23
-54.38
-57.28
-59.18
-59.19
-56.81
-51.93
-44.79
-35.89
-25.80
-15.29
-5.28
3.35
10.10
15.19
19.44
23.98
29.66
36.66
44.44
52.16
59.03
64.62
68.78
71.38
72.04
70.24
65.54
57.87
47.67
35.87
23.52
11.65
0.93
-8.28
-16.11
-23.00
-29.57
-36.24
-43.07
-49.66
-55.26
-59.24
-61.20
-61.09
-58.94
-54.68
-48.19
-39.37
-28.59
-16.63
-4.56
6.62
16.43
24.93
32.58
39.85
46.99
53.92
60.42
66.21
71.03
74.69
76.99
77.93
77.61
76.41
74.79
73.06
71.24
68.88
65.35
60.04
52.85
44.22
34.96
25.85
17.27
9.11
0.89
-7.80
-17.11
-26.80
-36.50
-45.85
-54.63
-62.58
-69.18
-73.64
-75.19
-73.51
-69.00
-62.73
-55.99
-49.77
-44.47
-39.97
-35.93
-32.09
-28.40
-24.77
-20.96
-16.58
-11.35
-5.33
0.93
6.64
11.17
14.29
16.38
18.10
20.13
22.87
26.30
30.14
33.91
37.19
39.68
41.24
41.88
41.75
41.12
40.23
39.27
38.21
36.82
34.78
31.79
27.75
22.73
16.98
10.73
4.21
-2.45
-9.09
-15.51
-21.48
-26.76
-31.31
-35.24
-38.84
-42.35
-45.81
-49.01
-51.53
-52.97
-53.09
-51.91
-49.82
-47.35
-45.07
-43.48
-42.82
-43.00
-43.58
-43.80
-42.79
-39.81
-34.59
-27.35
-18.78
-9.77
-1.15
6.47
12.74
17.60
21.26
24.14
26.84
29.83
33.26
36.75
39.50
40.66
39.69
36.67
32.25
27.37
22.95
19.62
17.61
16.74
16.55
16.37
15.49
13.34
9.69
4.73
-1.01
-6.78
-12.02
-16.52
-20.53
-24.50
-28.75
-33.15
-37.00
-39.31
-39.36
-37.16
-33.53
-29.70
-26.68
-24.65
-22.99
-20.72
-17.15
-12.40
-7.27
-2.87
0.05
1.41
1.81
2.15
3.21
5.28
8.04
10.72
12.34
12.02
9.14
3.44
-4.87
-15.00
-25.60
-35.02
-41.67
-44.70
-44.34
-41.83
-38.75
-36.22
-34.28
-31.95
-27.94
-21.56
-13.30
-4.57
3.05
8.74
12.82
16.44
20.76
26.20
32.19
37.48
40.87
41.87
40.92
39.24
38.16
38.65
40.88
44.37
48.15
51.19
52.70
52.21
49.66
45.23
39.37
32.70
25.97
19.89
14.93
11.16
8.31
5.94
3.74
1.70
0.03
-1.02
-1.43
-1.51
-1.73
-2.41
-3.53
-4.76
-5.60
-5.70
-5.09
-4.03
-2.87
-1.85
-0.96
-0.06
0.96
2.02
2.87
3.13
2.44
0.53
-2.70
-7.17
-12.51
-18.15
-23.36
-27.39
-29.68
-29.84
-27.78
-23.55
-17.34
-9.53
-0.68
8.37
16.66
23.33
27.93
30.46
31.43
31.50
31.21
30.78
30.15
29.08
27.38
25.00
22.06
18.79
15.50
12.56
10.30
8.86
8.17
7.88
7.52
6.68
5.27
3.49
1.78
0.56
0.01
0.00
0.25
0.41
0.30
-0.18
-1.04
-2.25
-3.61
-4.75
-5.21
-4.59
-2.81
-0.28
2.27
4.02
4.48
3.65
2.05
0.39
-0.77
-1.27
-1.33
-1.37
-1.66
-2.19
-2.71
-2.94
-2.76
-2.33
-1.95
-1.94
-2.65
-4.34
-7.31
-11.68
-17.21
-23.12
-28.13
-30.85
-30.26
-26.19
-19.38
-11.21
-3.16
3.63
8.57
11.60
13.05
13.53
13.84
14.71
16.56
19.27
22.17
24.29
24.87
23.60
20.84
17.31
13.74
10.65
8.20
6.30
4.80
3.53
2.35
1.13
-0.19
-1.52
-2.51
-2.73
-1.83
0.18
2.77
5.11
6.32
5.83
3.58
-0.03
-4.45
-9.11
-13.67
-17.88
-21.56
-24.43
-26.27
-26.97
-26.61
-25.51
-23.95
-22.20
-20.39
-18.64
-17.17
-16.15
-15.67
-15.54
-15.34
-14.74
-13.80
-13.07
-13.39
-15.38
-18.98
-23.26
-26.82
-28.29
-27.02
-23.17
-17.59
-11.40
-5.53
-0.55
3.32
6.06
7.73
8.49
8.65
8.70
9.22
10.56
12.72
15.24
17.42
18.63
18.53
17.22
15.05
12.49
9.96
7.80
6.29
5.63
5.91
6.95
8.23
9.02
8.66
6.83
3.72
0.04
-3.34
-5.71
-6.78
-6.74
-6.07
-5.31
-4.76
-4.44
-4.14
-3.67
-3.06
-2.56
-2.46
-2.88
-3.64
-4.34
-4.64
-4.54
-4.36
-4.59
-5.47
-6.87
-8.29
-9.18
-9.25
-8.70
-8.09
-8.07
-9.04
-11.05
-13.82
-16.97
-20.12
-23.03
-25.48
-27.18
-27.74
-26.74
-23.90
-19.31
-13.48
-7.19
-1.32
3.44
6.83
8.94
10.20
11.21
12.48
14.31
16.71
19.45
22.22
24.71
26.73
28.13
28.85
28.75
27.81
26.12
24.01
21.86
20.02
18.59
17.42
16.22
14.71
12.85
10.81
8.90
7.33
6.10
5.03
3.85
2.42
0.81
-0.59
-1.35
-1.21
-0.28
0.98
1.85
1.77
0.55
-1.52
-3.81
-5.67
-6.73
-6.89
-6.36
-5.41
-4.32
-3.30
-2.52
-2.07
-1.99
-2.23
-2.64
-3.10
-3.51
-3.79
-3.85
-3.67
-3.30
-3.01
-3.34
-4.89
-8.13
-12.99
-18.82
-24.47
-28.79
-30.97
-30.80
-28.59
-24.95
-20.48
-15.63
-10.75
-6.17
-2.12
1.26
4.03
6.38
8.63
11.01
13.60
16.37
19.14
21.64
23.50
24.41
24.16
22.86
20.90
18.93
17.56
17.11
17.47
18.16
18.62
18.40
17.39
15.78
13.90
12.11
10.66
9.70
9.30
9.52
10.27
11.27
12.17
12.54
12.23
11.39
10.47
10.04
10.46
11.66
13.06
13.83
13.23
10.96
7.32
3.07
-0.96
-4.16
-6.32
-7.70
-8.74
-9.83
-11.11
-12.42
-13.48
-14.13
-14.47
-14.87
-15.71
-17.13
-19.03
-21.20
-23.59
-26.45
-30.19
-35.00
-40.53
-45.79
-49.38
-50.14
-47.66
-42.41
-35.54
-28.22
-21.28
-15.11
-9.96
-6.25
-4.79
-6.54
-12.04
-20.91
-31.72
-42.33
-50.69
-55.57
-57.01
-56.14
-54.55
-53.53
-53.60
-54.48
-55.41
-55.57
-54.36
-51.54
-46.98
-40.59
-32.43
-23.00
-13.34
-4.78
1.34
4.26
3.92
0.85
-4.36
-11.36
-20.11
-30.46
-41.55
-51.52
-57.75
-57.73
-50.10
-35.35
-15.88
4.76
22.94
35.97
42.69
43.64
40.72
36.49
33.46
33.46
37.28
44.55
54.11
64.44
74.23
82.56
88.94
93.11
94.90
94.40
92.18
89.38
87.42
87.39
89.53
93.09
96.81
99.76
101.73
103.15
104.51
105.81
106.33
105.19
101.95
96.91
91.04
85.27
79.93
74.56
68.10
59.36
47.53
32.49
14.86
-4.13
-22.87
-39.92
-54.35
-65.91
-74.84
-81.35
-85.16
-85.41
-81.24
-72.49
-60.12
-46.06
-32.20
-19.36
-6.99
6.52
22.58
41.34
61.17
79.35
93.42
102.27
106.72
108.73
109.90
110.03
106.83
96.85
77.40
48.28
12.48
-24.62
-57.13
-80.63
-93.50
-96.80
-93.36
-86.56
-79.33
-73.64
-70.04
-67.88
-65.63
-61.88
-56.09
-49.17
-43.10
-40.23
-42.17
-48.70
-57.88
-66.61
-71.89
-71.74
-65.30
-52.12
-32.76
-9.62
13.70
33.74
49.24
61.47
73.06
85.93
99.44
109.71
110.53
98.04
70.60
30.91
-14.69
-58.53
-94.37
-119.31
-131.72
-133.26
-127.01
-115.83
-101.23
-84.11
-65.81
-48.49
-34.50
-25.31
-21.05
-20.19
-20.32
-19.11
-15.49
-9.92
-3.88
0.98
3.67
3.96
2.74
1.32
1.02
2.40
5.19
8.48
11.28
13.01
13.48
13.11
12.56
12.54
13.35
14.91
16.82
18.63
20.09
21.09
21.80
22.42
23.24
24.38
25.82
27.46
29.15
30.80
32.36
33.88
35.23
36.47
37.50
38.17
38.29
37.66
36.08
33.43
29.67
24.48
18.02
10.45
2.01
-7.01
-16.25
-25.37
-33.97
-41.04
-46.75
-51.01
-53.76
-55.04
-54.98
-53.75
-51.57
-49.34
-46.72
-43.91
-40.97
-37.95
-34.87
-31.70
-28.41
-24.96
-21.32
-17.38
-13.34
-9.31
-5.42
-1.86
1.24
3.71
5.46
6.42
6.65
6.12
4.87
2.99
0.65
-2.02
-4.88
-7.70
-10.19
-12.07
-13.10
-13.06
-11.76
-9.01
-4.70
1.10
8.31
16.74
26.17
36.27
46.64
56.92
66.78
76.68
86.09
94.64
102.29
108.85
114.78
120.42
126.04
131.86
138.04
144.69
151.59
158.57
165.45
172.10
178.33
184.01
189.16
193.96
198.65
203.12
207.32
211.11
214.22
216.07
215.78
212.08
203.04
190.29
174.19
155.01
133.12
108.90
82.76
55.22
26.87
-1.48
-28.84
-54.56
-77.84
-97.95
-114.35
-126.88
-135.61
-140.76
-142.56
-141.09
-136.79
-130.06
-121.50
-112.06
-102.98
-95.69
-91.38
-90.82
-94.10
-101.02
-111.19
-124.18
-139.84
-158.28
-179.65
-203.98
-231.25
-261.45
-294.59
-330.21
-366.75
-401.46
-430.68
-450.80
-459.31
-455.39
-439.84
-414.41
-380.68
-339.53
-291.37
-237.05
-178.84
-120.76
-67.92
-25.05
5.14
22.83
30.97
34.10
36.66
41.77
50.39
61.86
74.77
87.80
100.08
111.16
120.77
128.55
134.06
136.84
136.78
133.98
128.78
121.64
113.12
104.16
96.30
91.77
92.90
100.94
114.87
130.86
142.66
143.68
129.43
99.61
59.04
16.43
-18.20
-36.71
-35.68
-17.71
9.35
35.39
51.88
55.03
46.56
31.92
17.15
6.06
-0.73
-4.53
-6.31
-5.37
0.52
13.22
32.53
55.63
77.96
95.39
105.54
108.35
105.17
97.92
88.94
81.23
78.33
83.29
97.61
120.26
147.92
176.21
201.38
221.15
234.52
240.80
238.69
226.26
201.86
165.31
118.65
66.45
15.08
-28.27
-57.09
-67.00
-57.14
-31.00
4.29
40.08
68.89
86.50
92.44
89.46
81.94
74.26
69.83
70.44
75.99
84.60
93.05
97.65
95.29
84.14
63.90
36.16
4.63
-24.70
-44.13
-46.71
-28.97
6.70
51.63
93.78
122.24
131.34
122.37
101.99
78.71
59.87
50.00
51.19
64.15
88.48
122.25
161.27
199.12
228.43
242.83
238.77
216.25
178.42
130.02
76.01
20.21
-35.27
-90.08
-145.22
-202.71
-265.13
-334.52
-411.29
-492.81
-572.85
-642.60
-693.06
-718.15
-717.18
-695.02
-660.10
-621.11
-584.11
-551.44
-522.64
-496.40
-472.07
-449.99
-430.73
-414.04
-398.55
-382.39
-364.20
-343.84
-322.48
-302.17
-284.84
-271.47
-261.81
-254.64
-248.37
-241.73
-234.22
-226.05
-217.94
-210.46
-203.74
-197.26
-190.01
-180.99
-169.52
-155.42
-139.04
-120.94
-101.62
-81.32
-60.01
-37.54
-13.94
10.42
34.75
57.81
78.24
94.72
106.21
112.08
112.09
106.44
95.62
80.38
61.67
40.51
17.99
-4.89
-27.22
-48.25
-67.45
-84.39
-98.86
-110.76
-120.05
-126.76
-130.94
-132.67
-132.00
-129.04
-123.89
-116.66
-107.52
-96.64
-84.24
-70.58
-55.98
-40.73
-25.20
-9.73
5.39
19.85
33.43
45.95
57.33
67.53
76.57
84.56
91.64
98.00
103.79
109.15
114.17
118.88
123.26
127.29
130.90
134.04
136.67
138.71
140.10
140.78
140.65
139.68
137.87
135.28
132.02
128.29
124.25
120.06
115.82
111.53
107.19
102.83
98.50
94.37
90.65
87.50
85.03
83.17
81.71
80.41
79.15
77.97
77.16
77.12
78.22
80.65
84.27
88.72
93.52
98.39
103.35
108.79
115.32
123.50
133.55
145.27
158.12
171.46
184.80
198.00
211.27
225.04
239.92
256.76
276.45
299.50
325.36
351.89
375.39
391.55
396.88
390.04
372.36
347.16
318.42
289.32
261.62
235.86
212.06
190.32
170.93
154.01
139.17
125.44
111.72
97.38
82.64
68.51
56.39
47.34
41.65
38.75
37.42
36.48
35.25
33.72
32.39
31.80
32.07
32.79
33.30
33.04
31.83
29.90
27.69
25.50
23.39
21.25
19.00
16.69
14.57
12.87
11.70
10.96
10.46
10.02
9.53
8.97
8.35
7.72
7.18
6.83
6.81
7.14
7.65
8.10
8.29
8.19
7.93
7.71
7.55
7.26
6.46
4.90
2.59
-0.12
-2.73
-4.82
-6.26
-7.22
-8.04
-9.07
-10.53
-12.42
-14.68
-17.13
-19.54
-21.71
-23.41
-24.52
-25.05
-25.19
-25.28
-25.75
-26.95
-28.98
-31.65
-34.44
-36.67
-37.66
-36.98
-34.57
-30.76
-26.15
-21.44
-17.27
-14.10
-12.14
-11.33
-11.34
-11.66
-11.71
-10.99
-9.20
-6.32
-2.62
1.46
5.47
9.13
12.32
15.12
17.62
19.86
21.71
22.93
23.30
22.69
21.17
19.00
16.58
14.34
12.64
11.62
11.30
11.51
12.04
12.65
13.14
13.28
12.90
11.95
10.52
8.86
7.29
6.06
5.24
4.66
4.07
3.22
2.06
0.70
-0.69
-1.97
-3.12
-4.19
-5.21
-6.17
-7.04
-7.83
-8.66
-9.70
-11.12
-12.95
-15.10
-17.37
-19.60
-21.68
-23.63
-25.46
-27.14
-28.49
-29.21
-29.00
-27.74
-25.44
-22.34
-18.77
-15.02
-11.29
-7.64
-4.11
-0.71
2.49
5.35
7.78
9.77
11.35
12.59
13.53
14.13
14.30
14.01
13.34
12.45
11.60
11.01
10.80
10.95
11.33
11.79
12.11
12.12
11.64
10.63
9.17
7.49
5.87
4.60
3.73
3.15
2.62
1.93
1.09
0.25
-0.41
-0.85
-1.22
-1.82
-2.83
-4.23
-5.79
-7.15
-8.10
-8.62
-8.90
-9.10
-9.26
-9.26
-8.96
-8.37
-7.70
-7.31
-7.48
-8.29
-9.59
-11.08
-12.49
-13.76
-15.00
-16.45
-18.27
-20.44
-22.69
-24.67
-26.04
-26.58
-26.28
-25.19
-23.39
-20.87
-17.68
-13.98
-10.13
-6.64
-3.93
-2.13
-1.03
-0.18
0.86
2.29
4.01
5.73
7.20
8.31
9.12
9.69
10.01
9.93
9.28
8.04
6.41
4.73
3.36
2.51
2.19
2.24
2.48
2.79
3.08
3.33
3.49
3.54
3.49
3.38
3.24
3.02
2.62
1.91
0.86
-0.40
-1.65
-2.66
-3.36
-3.85
-4.28
-4.70
-5.06
-5.23
-5.27
-5.45
-6.19
-7.89
-10.62
-14.10
-17.73
-20.92
-23.23
-24.52
-24.91
-24.71
-24.30
-24.02
-24.15
-24.74
-25.63
-26.46
-26.77
-26.20
-24.58
-21.94
-18.50
-14.57
-10.43
-6.37
-2.65
0.57
3.16
5.11
6.51
7.51
8.30
9.03
9.77
10.49
11.11
11.44
11.41
11.03
10.47
10.00
9.79
9.82
9.91
9.77
9.19
8.18
6.98
5.91
5.26
5.09
5.25
5.49
5.54
5.26
4.65
3.83
2.93
2.06
1.26
0.48
-0.28
-1.00
-1.61
-2.01
-2.13
-2.07
-2.02
-2.23
-2.90
-4.00
-5.37
-6.80
-8.09
-9.22
-10.28
-11.37
-12.57
-13.88
-15.30
-16.85
-18.59
-20.59
-22.84
-25.17
-27.26
-28.73
-29.21
-28.51
-26.68
-23.94
-20.65
-17.18
-13.78
-10.63
-7.76
-5.16
-2.79
-0.63
1.35
3.20
4.92
6.57
8.13
9.53
10.67
11.44
11.79
11.73
11.45
11.14
10.98
11.05
11.28
11.53
11.70
11.75
11.73
11.64
11.40
10.89
9.95
8.56
6.88
5.20
3.80
2.88
2.37
2.13
1.99
1.84
1.67
1.50
1.29
0.97
0.47
-0.23
-1.07
-1.91
-2.69
-3.41
-4.17
-5.09
-6.25
-7.68
-9.32
-11.08
-12.82
-14.42
-15.79
-16.95
-17.99
-19.06
-20.28
-21.62
-22.96
-24.21
-25.30
-26.31
-27.27
-28.13
-28.71
-28.71
-27.92
-26.28
-23.90
-20.98
-17.69
-14.19
-10.61
-7.11
-3.89
-1.06
1.42
3.72
6.08
8.61
11.16
13.39
14.88
15.42
15.09
14.20
13.16
12.26
11.62
11.18
10.83
10.49
10.17
9.92
9.78
9.81
9.96
10.17
10.34
10.37
10.12
9.57
8.80
7.97
7.26
6.81
6.55
6.35
6.00
5.38
4.52
3.58
2.72
2.02
1.40
0.67
-0.39
-1.89
-3.76
-5.75
-7.56
-8.92
-9.73
-10.13
-10.37
-10.73
-11.39
-12.32
-13.42
-14.52
-15.56
-16.57
-17.72
-19.18
-21.02
-23.18
-25.42
-27.43
-28.88
-29.57
-29.37
-28.30
-26.40
-23.74
-20.46
-16.75
-12.91
-9.26
-6.07
-3.38
-1.04
1.20
3.57
6.09
8.56
10.73
12.34
13.35
13.84
14.01
14.03
13.99
13.93
13.87
13.83
13.82
13.82
13.78
13.61
13.26
12.76
12.19
11.67
11.32
11.15
11.13
11.15
11.04
10.67
9.89
8.64
6.93
4.86
2.68
0.71
-0.77
-1.61
-1.86
-1.76
-1.58
-1.53
-1.68
-1.91
-2.07
-2.10
-2.06
-2.11
-2.45
-3.19
-4.29
-5.58
-6.83
-7.89
-8.71
-9.38
-10.05
-10.89
-12.03
-13.55
-15.45
-17.64
-19.92
-21.99
-23.50
-24.15
-23.76
-22.32
-20.00
-17.06
-13.82
-10.60
-7.62
-5.04
-2.86
-0.99
0.72
2.37
3.93
5.28
6.27
6.89
7.27
7.65
8.24
9.13
10.19
11.22
12.05
12.63
13.03
13.38
13.71
13.95
13.91
13.46
12.58
11.42
10.23
9.17
8.31
7.53
6.70
5.71
4.61
3.51
2.52
1.70
1.06
0.53
0.07
-0.33
-0.63
-0.83
-1.02
-1.28
-1.76
-2.53
-3.59
-4.86
-6.19
-7.41
-8.42
-9.18
-9.74
-10.20
-10.72
-11.46
-12.55
-13.97
-15.61
-17.16
-18.29
-18.67
-18.13
-16.62
-14.22
-11.14
-7.64
-4.07
-0.79
1.92
3.92
5.27
6.17
6.86
7.49
8.06
8.45
8.55
8.32
7.85
7.27
6.69
6.21
5.86
5.68
5.74
6.06
6.60
7.18
7.55
7.46
6.79
5.62
4.20
2.82
1.76
1.09
0.74
0.61
0.54
0.42
0.19
-0.22
-0.79
-1.48
-2.14
-2.63
-2.84
-2.81
-2.68
-2.68
-2.99
-3.70
-4.78
-6.14
-7.67
-9.27
-10.88
-12.36
-13.60
-14.50
-15.05
-15.37
-15.72
-16.41
-17.69
-19.57
-21.83
-23.99
-25.57
-26.13
-25.50
-23.76
-21.20
-18.19
-15.04
-11.97
-9.13
-6.57
-4.34
-2.41
-0.64
1.15
3.13
5.33
7.60
9.63
11.16
12.03
12.34
12.37
12.36
12.38
12.28
11.86
11.07
10.15
9.49
9.43
10.02
10.98
11.85
12.23
11.99
11.32
10.53
9.86
9.38
8.95
8.41
7.62
6.60
5.47
4.42
3.60
3.03
2.66
2.35
1.92
1.25
0.34
-0.76
-1.86
-2.82
-3.63
-4.36
-5.18
-6.20
-7.42
-8.74
-9.97
-10.96
-11.66
-12.16
-12.64
-13.29
-14.22
-15.44
-16.89
-18.46
-20.03
-21.46
-22.61
-23.30
-23.43
-22.88
-21.60
-19.60
-16.99
-13.99
-10.87
-7.91
-5.27
-3.01
-1.01
0.88
2.80
4.79
6.76
8.61
10.21
11.52
12.55
13.30
13.76
13.93
13.81
13.44
12.94
12.44
11.99
11.62
11.34
11.11
10.90
10.66
10.38
10.06
9.76
9.54
9.42
9.34
9.17
8.76
8.06
7.15
6.22
5.44
4.89
4.52
4.19
3.80
3.34
2.89
2.49
2.16
1.80
1.29
0.58
-0.27
-1.17
-1.97
-2.61
-3.09
-3.48
-3.86
-4.35
-5.05
-6.07
-7.45
-9.11
-10.88
-12.54
-13.86
-14.74
-15.27
-15.63
-16.04
-16.72
-17.73
-19.05
-20.51
-21.87
-22.88
-23.24
-22.74
-21.28
-18.91
-15.85
-12.43
-9.00
-5.87
-3.22
-1.03
0.80
2.46
4.11
5.81
7.52
9.13
10.48
11.48
12.09
12.35
12.34
12.19
11.98
11.78
11.62
11.45
11.28
11.09
10.83
10.48
10.03
9.44
8.80
8.23
7.85
7.79
8.02
8.37
8.67
8.73
8.51
8.10
7.59
7.00
6.34
5.55
4.66
3.78
3.04
2.54
2.27
2.13
1.95
1.64
1.12
0.37
-0.55
-1.58
-2.65
-3.69
-4.66
-5.52
-6.27
-6.99
-7.76
-8.66
-9.72
-10.91
-12.15
-13.36
-14.50
-15.56
-16.61
-17.64
-18.57
-19.19
-19.24
-18.54
-17.00
-14.72
-11.93
-8.90
-5.86
-3.01
-0.50
1.57
3.15
4.28
5.06
5.62
6.03
6.35
6.54
6.58
6.48
6.33
6.24
6.25
6.37
6.59
6.88
7.26
7.77
8.43
9.10
9.57
9.60
9.09
8.14
7.06
6.17
5.68
5.58
5.66
5.66
5.41
4.93
4.37
3.94
3.72
3.64
3.53
3.18
2.50
1.54
0.47
-0.52
-1.35
-2.04
-2.71
-3.51
-4.50
-5.66
-6.87
-7.97
-8.87
-9.57
-10.17
-10.80
-11.57
-12.52
-13.63
-14.86
-16.13
-17.39
-18.49
-19.25
-19.47
-19.00
-17.78
-15.92
-13.63
-11.15
-8.68
-6.31
-4.04
-1.94
-0.03
1.61
2.97
4.12
5.19
6.29
7.43
8.51
9.35
9.78
9.71
9.23
8.60
8.09
7.91
8.10
8.56
9.06
9.36
9.25
8.70
7.80
6.74
5.75
4.99
4.52
4.34
4.38
4.51
4.59
4.50
4.14
3.49
2.63
1.69
0.83
0.15
-0.39
-0.87
-1.38
-1.90
-2.33
-2.56
-2.56
-2.42
-2.39
-2.74
-3.64
-5.13
-7.05
-9.16
-11.26
-13.20
-14.87
-16.20
-17.11
-17.56
-17.63
-17.52
-17.50
-17.77
-18.39
-19.17
-19.82
-20.03
-19.55
-18.27
-16.21
-13.51
-10.42
-7.27
-4.36
-1.95
-0.14
1.16
2.09
2.83
3.55
4.33
5.28
6.48
7.90
9.46
10.97
12.24
13.16
13.74
14.04
14.22
14.38
14.62
14.94
15.35
15.70
15.85
15.61
14.90
13.79
12.48
11.22
10.16
9.29
8.46
7.52
6.40
5.12
3.80
2.56
1.47
0.60
-0.03
-0.46
-0.77
-1.14
-1.72
-2.57
-3.66
-4.83
-5.89
-6.69
-7.20
-7.49
-7.69
-7.89
-8.14
-8.41
-8.67
-8.93
-9.24
-9.71
-10.43
-11.47
-12.82
-14.43
-16.15
-17.86
-19.42
-20.69
-21.51
-21.69
-21.05
-19.47
-17.03
-13.96
-10.66
-7.53
-4.81
-2.58
-0.75
0.84
2.31
3.73
5.12
6.51
7.91
9.29
10.56
11.64
12.47
13.03
13.42
13.77
14.16
14.62
15.05
15.27
15.13
14.51
13.40
11.96
10.43
9.10
8.12
7.50
7.07
6.63
5.99
5.19
4.36
3.76
3.52
3.68
4.08
4.53
4.87
5.02
5.02
4.88
4.65
4.31
3.85
3.25
2.53
1.72
0.84
-0.07
-0.95
-1.74
-2.37
-2.80
-3.03
-3.15
-3.24
-3.39
-3.64
-4.02
-4.56
-5.33
-6.36
-7.64
-9.09
-10.54
-11.81
-12.70
-13.10
-12.94
-12.22
-10.95
-9.16
-6.94
-4.41
-1.77
0.70
2.81
4.43
5.60
6.51
7.37
8.32
9.35
10.32
11.04
11.42
11.44
11.20
10.82
10.39
9.88
9.28
8.56
7.78
7.02
6.41
6.02
5.84
5.77
5.65
5.35
4.79
3.99
3.07
2.22
1.57
1.16
0.89
0.59
0.06
-0.78
-1.89
-3.09
-4.23
-5.18
-5.95
-6.60
-7.20
-7.77
-8.27
-8.68
-9.04
-9.47
-10.07
-10.85
-11.74
-12.57
-13.24
-13.72
-14.19
-14.90
-16.06
-17.73
-19.68
-21.49
-22.68
-22.88
-21.96
-20.13
-17.78
-15.30
-13.01
-10.99
-9.17
-7.45
-5.76
-4.13
-2.62
-1.25
0.03
1.30
2.61
3.93
5.16
6.17
6.87
7.22
7.30
7.22
7.12
7.08
7.16
7.34
7.60
7.90
8.21
8.50
8.74
8.89
8.91
8.82
8.64
8.43
8.21
7.94
7.52
6.84
5.86
4.55
3.00
1.39
-0.13
-1.40
-2.36
-3.03
-3.53
-3.99
-4.52
-5.16
-5.85
-6.53
-7.13
-7.69
-8.28
-9.01
-9.92
-10.98
-12.10
-13.19
-14.24
-15.25
-16.29
-17.35
-18.35
-19.11
-19.40
-19.11
-18.21
-16.80
-15.01
-12.98
-10.76
-8.37
-5.83
-3.21
-0.65
1.72
3.82
5.65
7.23
8.61
9.77
10.66
11.22
11.42
11.33
11.08
10.84
10.74
10.85
11.16
11.57
11.97
12.24
12.30
12.13
11.73
11.12
10.35
9.44
8.47
7.53
6.74
6.15
5.74
5.40
5.00
4.46
3.79
3.12
2.61
2.35
2.32
2.36
2.34
2.15
1.82
1.42
1.04
0.68
0.26
-0.30
-1.03
-1.83
-2.58
-3.18
-3.66
-4.22
-5.13
-6.55
-8.40
-10.38
-12.06
-13.07
-13.25
-12.67
-11.59
-10.28
-8.90
-7.50
-6.04
-4.48
-2.86
-1.20
0.45
2.19
4.05
6.04
8.01
9.74
11.02
11.78
12.12
12.30
12.50
12.80
13.08
13.19
12.98
12.46
11.74
10.97
10.28
9.76
9.45
9.34
9.35
9.27
8.91
8.12
6.91
5.46
4.08
3.01
2.32
1.86
1.36
0.66
-0.26
-1.25
-2.07
-2.62
-2.99
-3.36
-3.92
-4.74
-5.74
-6.77
-7.69
-8.46
-9.12
-9.75
-10.40
-11.11
-11.91
-12.88
-14.05
-15.41
-16.82
-18.03
-18.74
-18.72
-17.85
-16.24
-14.12
-11.79
-9.54
-7.55
-5.92
-4.61
-3.54
-2.60
-1.67
-0.64
0.53
1.87
3.36
4.94
6.51
7.95
9.13
9.95
10.32
10.26
9.86
9.27
8.70
8.30
8.14
8.16
8.24
8.22
7.99
7.52
6.88
6.17
5.55
5.05
4.68
4.33
3.89
3.33
2.67
2.04
1.54
1.21
0.99
0.76
0.41
-0.13
-0.86
-1.77
-2.83
-4.02
-5.32
-6.68
-8.02
-9.24
-10.22
-10.94
-11.47
-11.92
-12.48
-13.30
-14.40
-15.72
-17.08
-18.23
-18.93
-18.97
-18.26
-16.80
-14.74
-12.29
-9.70
-7.21
-4.93
-2.92
-1.13
0.47
1.93
3.23
4.35
5.32
6.17
6.97
7.73
8.40
8.84
8.89
8.49
7.77
6.96
6.27
5.87
5.72
5.73
5.78
5.88
6.11
6.53
7.12
7.67
7.94
7.73
7.05
6.07
5.09
4.32
3.85
3.66
3.64
3.62
3.46
3.01
2.21
1.11
-0.12
-1.25
-2.12
-2.67
-3.00
-3.30
-3.74
-4.37
-5.13
-5.94
-6.74
-7.51
-8.29
-9.09
-9.92
-10.82
-11.82
-12.97
-14.21
-15.37
-16.13
-16.22
-15.48
-14.01
-12.05
-9.90
-7.75
-5.66
-3.62
-1.63
0.22
1.74
2.81
3.45
3.83
4.22
4.86
5.81
6.99
8.20
9.19
9.84
10.10
10.01
9.68
9.29
8.97
8.90
9.16
9.73
10.48
11.17
11.61
11.66
11.30
10.59
9.60
8.41
7.15
5.99
5.13
4.71
4.78
5.20
5.75
6.21
6.46
6.49
6.33
5.99
5.42
4.58
3.45
2.13
0.82
-0.31
-1.15
-1.73
-2.18
-2.61
-3.15
-3.88
-4.86
-6.14
-7.67
-9.35
-10.94
-12.13
-12.63
-12.32
-11.29
-9.83
-8.22
-6.64
-5.10
-3.47
-1.61
0.45
2.50
4.34
5.77
6.82
7.63
8.36
9.08
9.70
10.07
10.06
9.71
9.12
8.49
7.95
7.54
7.20
6.88
6.49
6.03
5.46
4.73
3.73
2.40
0.81
-0.81
-2.13
-2.87
-2.90
-2.39
-1.68
-1.13
-0.91
-0.97
-1.10
-1.08
-0.87
-0.57
-0.41
-0.58
-1.12
-1.97
-2.99
-4.06
-5.19
-6.46
-7.90
-9.46
-11.01
-12.38
-13.47
-14.32
-15.08
-15.85
-16.65
-17.32
-17.60
-17.25
-16.18
-14.49
-12.43
-10.28
-8.28
-6.54
-5.06
-3.77
-2.55
-1.32
-0.03
1.31
2.61
3.75
4.63
5.21
5.53
5.69
5.81
5.94
6.04
6.06
5.96
5.80
5.67
5.63
5.67
5.67
5.50
5.11
4.58
4.07
3.70
3.49
3.32
3.07
2.67
2.13
1.49
0.78
-0.03
-0.97
-2.00
-3.01
-3.82
-4.31
-4.51
-4.57
-4.75
-5.20
-5.95
-6.87
-7.79
-8.58
-9.23
-9.80
-10.41
-11.17
-12.08
-13.11
-14.12
-14.95
-15.46
-15.51
-15.05
-14.10
-12.79
-11.27
-9.69
-8.16
-6.71
-5.31
-3.90
-2.41
-0.79
0.95
2.76
4.55
6.19
7.57
8.59
9.26
9.61
9.75
9.77
9.77
9.77
9.78
9.79
9.77
9.74
9.67
9.55
9.34
8.97
8.36
7.54
6.57
5.62
4.87
4.47
4.45
4.71
5.01
5.09
4.77
4.01
2.94
1.77
0.69
-0.20
-0.99
-1.83
-2.85
-4.05
-5.29
-6.40
-7.22
-7.79
-8.28
-8.90
-9.79
-10.87
-11.96
-12.82
-13.43
-13.92
-14.52
-15.38
-16.35
-17.04
-16.94
-15.77
-13.59
-10.88
-8.23
-6.10
-4.58
-3.46
-2.30
-0.79
1.10
3.18
5.16
6.84
8.23
9.47
10.72
11.99
13.14
13.93
14.19
13.88
13.18
12.34
11.59
11.03
10.56
10.05
9.41
8.68
8.01
7.59
7.56
7.91
8.49
9.07
9.45
9.45
9.04
8.32
7.42
6.48
5.64
4.91
4.28
3.71
3.13
2.51
1.84
1.16
0.46
-0.22
-0.85
-1.36
-1.70
-1.88
-1.97
-2.08
-2.36
-2.86
-3.61
-4.53
-5.48
-6.36
-7.05
-7.50
-7.68
-7.56
-7.13
-6.35
-5.22
-3.74
-1.97
-0.01
1.97
3.79
5.27
6.32
6.98
7.40
7.74
8.16
8.70
9.36
10.08
10.81
11.49
12.06
12.45
12.57
12.37
11.93
11.38
10.93
10.75
10.92
11.32
11.79
12.05
11.92
11.31
10.28
9.00
7.67
6.43
5.33
4.36
3.53
2.88
2.45
2.21
2.03
1.69
1.02
-0.04
-1.42
-2.96
-4.53
-6.09
-7.65
-9.20
-10.64
-11.87
-12.83
-13.61
-14.39
-15.33
-16.37
-17.27
-17.67
-17.29
-16.09
-14.27
-12.15
-10.01
-7.99
-6.09
-4.24
-2.47
-0.78
0.76
2.14
3.35
4.40
5.23
5.78
6.01
5.91
5.60
5.19
4.80
4.49
4.27
4.15
4.13
4.22
4.45
4.77
5.10
5.29
5.22
4.79
4.07
3.21
2.40
1.80
1.46
1.27
1.06
0.68
0.08
-0.67
-1.48
-2.28
-3.05
-3.81
-4.59
-5.34
-6.04
-6.63
-7.10
-7.48
-7.82
-8.14
-8.46
-8.83
-9.34
-10.09
-11.15
-12.52
-14.05
-15.60
-17.02
-18.17
-18.95
-19.25
-18.92
-17.87
-16.08
-13.68
-10.93
-8.13
-5.57
-3.44
-1.78
-0.53
0.45
1.31
2.25
3.38
4.74
6.24
7.68
8.83
9.52
9.77
9.73
9.62
9.61
9.75
9.95
10.07
10.03
9.78
9.38
8.82
8.09
7.16
6.09
5.00
4.08
3.48
3.24
3.25
3.38
3.51
3.61
3.74
3.89
3.99
3.86
3.36
2.44
1.19
-0.17
-1.46
-2.56
-3.52
-4.44
-5.40
-6.46
-7.52
-8.45
-9.14
-9.56
-9.79
-10.02
-10.49
-11.34
-12.62
-14.21
-15.85
-17.16
-17.82
-17.65
-16.60
-14.83
-12.62
-10.29
-8.06
-6.03
-4.15
-2.35
-0.53
1.31
3.13
4.87
6.47
7.94
9.25
10.38
11.23
11.79
12.03
12.02
11.83
11.58
11.36
11.27
11.35
11.60
11.91
12.14
12.16
11.92
11.49
11.00
10.60
10.32
10.05
9.67
9.07
8.25
7.34
6.49
5.75
5.16
4.66
4.20
3.78
3.41
3.08
2.75
2.40
2.02
1.67
1.39
1.14
0.86
0.43
-0.17
-0.93
-1.79
-2.72
-3.77
-5.00
-6.50
-8.18
-9.90
-11.37
-12.35
-12.68
-12.32
-11.34
-9.87
-8.09
-6.15
-4.20
-2.33
-0.57
1.06
2.51
3.69
4.51
4.88
4.82
4.43
3.89
3.38
3.03
2.86
2.87
3.05
3.44
4.07
4.94
5.94
6.88
7.57
7.88
7.77
7.32
6.57
5.58
4.36
2.94
1.48
0.19
-0.73
-1.22
-1.36
-1.35
-1.36
-1.46
-1.63
-1.78
-1.85
-1.85
-1.91
-2.16
-2.68
-3.50
-4.56
-5.81
-7.17
-8.62
-10.12
-11.60
-12.97
-14.12
-15.04
-15.78
-16.49
-17.30
-18.24
-19.18
-19.84
-19.96
-19.35
-18.07
-16.27
-14.26
-12.22
-10.27
-8.42
-6.62
-4.82
-3.04
-1.29
0.42
2.07
3.62
4.97
5.99
6.63
6.90
6.91
6.81
6.69
6.53
6.30
5.96
5.58
5.27
5.11
5.11
5.16
5.12
4.97
4.80
4.79
5.07
5.62
6.29
6.83
7.09
7.00
6.60
5.97
5.18
4.24
3.17
2.05
0.99
0.11
-0.57
-1.12
-1.70
-2.46
-3.42
-4.47
-5.40
-6.04
-6.38
-6.58
-6.91
-7.59
-8.62
-9.85
-10.97
-11.82
-12.33
-12.60
-12.74
-12.79
-12.64
-12.14
-11.15
-9.68
-7.84
-5.85
-3.87
-2.01
-0.31
1.23
2.66
4.02
5.40
6.84
8.29
9.63
10.73
11.45
11.78
11.80
11.67
11.56
11.60
11.84
12.30
12.91
13.57
14.17
14.61
14.81
14.76
14.50
14.09
13.60
13.04
12.43
11.84
11.34
10.98
10.76
10.57
10.22
9.55
8.49
7.19
5.88
4.82
4.18
3.93
3.90
3.85
3.61
3.08
2.27
1.27
0.16
-1.04
-2.33
-3.75
-5.33
-7.05
-8.87
-10.69
-12.36
-13.76
-14.72
-15.09
-14.75
-13.66
-11.89
-9.64
-7.15
-4.68
-2.42
-0.42
1.27
2.66
3.71
4.35
4.54
4.32
3.76
3.00
2.14
1.29
0.49
-0.19
-0.69
-0.96
-0.98
-0.77
-0.43
-0.06
0.21
0.31
0.22
-0.02
-0.29
-0.46
-0.48
-0.36
-0.19
-0.10
-0.13
-0.30
-0.60
-1.07
-1.82
-2.92
-4.31
-5.79
-7.02
-7.75
-7.92
-7.75
-7.65
-7.98
-8.90
-10.28
-11.81
-13.15
-14.08
-14.62
-14.97
-15.44
-16.30
-17.64
-19.29
-20.83
-21.72
-21.43
-19.67
-16.36
-11.71
-6.15
-0.31
5.07
9.32
12.13
13.73
14.85
16.36
18.71
21.56
23.90
24.55
22.82
18.94
13.82
8.58
3.94
0.01
-3.56
-7.06
-10.45
-13.37
-15.34
-16.17
-16.04
-15.39
-14.69
-14.23
-14.02
-13.94
-13.74
-13.26
-12.45
-11.34
-10.05
-8.72
-7.51
-6.48
-5.67
-5.05
-4.49
-3.82
-2.92
-1.74
-0.37
0.98
2.14
3.02
3.69
4.34
5.23
6.48
8.09
9.85
11.56
13.03
14.21
15.14
15.93
16.71
17.65
18.96
20.79
23.15
25.88
28.63
30.98
32.69
33.85
34.86
36.25
38.39
41.22
44.27
46.84
48.24
48.05
46.22
42.93
38.51
33.30
27.68
22.06
16.93
12.70
9.63
7.76
6.83
6.46
6.20
5.71
4.82
3.54
2.04
0.53
-0.80
-1.83
-2.53
-2.90
-2.96
-2.76
-2.41
-2.11
-2.12
-2.63
-3.71
-5.20
-6.81
-8.24
-9.29
-9.94
-10.29
-10.44
-10.45
-10.38
-10.24
-10.12
-10.09
-10.18
-10.35
-10.48
-10.47
-10.23
-9.71
-8.87
-7.70
-6.16
-4.28
-2.21
-0.18
1.57
2.79
3.35
3.24
2.53
1.34
-0.20
-2.04
-4.14
-6.50
-9.09
-11.86
-14.70
-17.41
-19.81
-21.70
-22.94
-23.46
-23.32
-22.71
-21.87
-20.98
-20.08
-18.97
-17.35
-15.03
-11.99
-8.52
-5.07
-2.06
0.27
1.89
2.91
3.48
3.66
3.49
2.94
2.08
1.04
0.05
-0.64
-0.88
-0.69
-0.34
-0.27
-1.00
-2.80
-5.57
-8.80
-11.77
-13.85
-14.78
-14.77
-14.38
-14.20
-14.56
-15.37
-16.24
-16.73
-16.57
-15.82
-14.72
-13.54
-12.41
-11.26
-10.06
-8.87
-7.95
-7.57
-7.82
-8.47
-9.02
-8.98
-8.12
-6.66
-5.09
-3.97
-3.59
-3.88
-4.47
-4.97
-5.09
-4.78
-4.07
-2.99
-1.49
0.45
2.71
5.07
7.15
8.68
9.56
9.85
9.78
9.51
9.09
8.47
7.53
6.21
4.56
2.77
1.08
-0.26
-1.11
-1.48
-1.52
-1.51
-1.75
-2.47
-3.75
-5.47
-7.39
-9.21
-10.65
-11.57
-11.87
-11.53
-10.58
-9.10
-7.21
-5.09
-2.88
-0.63
1.71
4.26
7.12
10.25
13.43
16.34
18.74
20.57
21.93
22.96
23.71
24.04
23.73
22.64
20.89
18.84
16.92
15.48
14.61
14.18
13.96
13.70
13.36
12.97
12.63
12.35
12.07
11.65
11.00
10.14
9.21
8.42
7.89
7.53
7.10
6.26
4.79
2.68
0.16
-2.41
-4.74
-6.79
-8.69
-10.59
-12.64
-14.85
-17.19
-19.73
-22.62
-26.01
-29.90
-34.01
-37.81
-40.66
-42.09
-41.90
-40.23
-37.38
-33.76
-29.74
-25.64
-21.72
-18.17
-15.07
-12.32
-9.77
-7.29
-4.91
-2.75
-0.97
0.40
1.49
2.53
3.75
5.18
6.73
8.17
9.31
10.03
10.36
10.38
10.22
9.97
9.68
9.38
9.11
8.84
8.53
8.07
7.37
6.39
5.14
3.70
2.23
0.87
-0.28
-1.20
-1.96
-2.69
-3.50
-4.41
-5.43
-6.50
-7.58
-8.66
-9.74
-10.85
-12.04
-13.35
-14.82
-16.44
-18.07
-19.49
-20.37
-20.37
-19.34
-17.31
-14.52
-11.31
-7.99
-4.76
-1.73
1.08
3.64
5.95
8.01
9.89
11.72
13.58
15.41
17.00
18.03
18.24
17.57
16.27
14.77
13.53
12.79
12.49
12.33
11.95
11.19
10.09
8.93
7.99
7.42
7.15
7.02
6.83
6.54
6.14
5.68
5.09
4.26
3.07
1.54
-0.21
-1.97
-3.53
-4.81
-5.84
-6.73
-7.59
-8.47
-9.39
-10.38
-11.48
-12.76
-14.24
-15.86
-17.45
-18.71
-19.30
-18.89
-17.39
-14.90
-11.76
-8.39
-5.13
-2.13
0.59
3.12
5.44
7.49
9.13
10.28
11.00
11.46
11.88
12.39
13.01
13.67
14.23
14.62
14.80
14.79
14.62
14.28
13.74
12.99
12.06
11.09
10.25
9.67
9.42
9.42
9.52
9.60
9.53
9.27
8.79
8.10
7.24
6.33
5.50
4.88
4.53
4.37
4.26
4.02
3.52
2.71
1.62
0.30
-1.18
-2.67
-4.08
-5.32
-6.39
-7.41
-8.58
-10.00
-11.68
-13.41
-14.86
-15.68
-15.61
-14.54
-12.52
-9.77
-6.65
-3.56
-0.84
1.31
2.93
4.24
5.48
6.78
8.13
9.41
10.48
11.32
11.99
12.56
13.03
13.30
13.25
12.83
12.09
11.22
10.39
9.70
9.14
8.65
8.15
7.59
6.98
6.37
5.76
5.16
4.53
3.86
3.15
2.42
1.70
1.05
0.50
0.01
-0.49
-1.07
-1.82
-2.71
-3.67
-4.59
-5.39
-6.10
-6.91
-7.99
-9.48
-11.42
-13.67
-15.96
-18.01
-19.55
-20.39
-20.47
-19.82
-18.55
-16.85
-14.90
-12.81
-10.60
-8.27
-5.77
-3.14
-0.48
2.02
4.19
5.92
7.17
7.95
8.34
8.45
8.38
8.27
8.21
8.25
8.41
8.66
8.93
9.14
9.20
9.03
8.65
8.07
7.39
6.73
6.18
5.75
5.40
5.04
4.57
3.97
3.24
2.43
1.60
0.78
-0.02
-0.81
-1.58
-2.32
-2.98
-3.56
-4.10
-4.75
-5.64
-6.87
-8.33
-9.84
-11.18
-12.24
-13.16
-14.16
-15.46
-16.98
-18.36
-19.07
-18.70
-17.12
-14.61
-11.64
-8.72
-6.16
-4.05
-2.25
-0.57
1.18
3.06
5.06
6.99
8.69
10.04
11.02
11.73
12.24
12.60
12.77
12.63
12.12
11.29
10.29
9.34
8.65
8.31
8.27
8.39
8.44
8.26
7.78
7.06
6.33
5.81
5.65
5.80
6.04
6.13
5.86
5.26
4.44
3.60
2.87
2.25
1.64
0.91
-0.03
-1.20
-2.57
-4.03
-5.46
-6.76
-7.90
-8.90
-9.86
-10.91
-12.13
-13.50
-14.85
-15.95
-16.57
-16.56
-15.92
-14.74
-13.19
-11.39
-9.38
-7.17
-4.76
-2.22
0.35
2.77
4.90
6.63
7.92
8.79
9.32
9.64
9.90
10.20
10.57
10.97
11.28
11.44
11.46
11.40
11.36
11.36
11.36
11.24
10.90
10.29
9.52
8.73
8.10
7.71
7.56
7.55
7.55
7.47
7.28
7.02
6.75
6.49
6.18
5.64
4.74
3.40
1.73
-0.02
-1.50
-2.49
-2.94
-3.04
-3.11
-3.41
-4.08
-5.14
-6.51
-8.14
-9.98
-11.97
-13.89
-15.41
-16.21
-16.10
-15.18
-13.75
-12.17
-10.63
-9.08
-7.33
-5.22
-2.80
-0.30
1.98
3.80
5.13
6.06
6.68
7.02
7.00
6.59
5.86
5.04
4.39
4.18
4.49
5.26
6.29
7.32
8.11
8.56
8.64
8.43
8.02
7.45
6.65
5.56
4.14
2.49
0.87
-0.40
-1.07
-1.14
-0.80
-0.41
-0.34
-0.81
-1.90
-3.52
-5.47
-7.52
-9.46
-11.17
-12.66
-14.10
-15.72
-17.69
-20.02
-22.50
-24.71
-26.21
-26.66
-25.89
-23.99
-21.22
-17.88
-14.30
-10.74
-7.41
-4.48
-2.05
-0.12
1.45
2.87
4.29
5.76
7.20
8.44
9.34
9.91
10.26
10.56
10.90
11.23
11.45
11.50
11.46
11.49
11.74
12.19
12.68
12.93
12.71
12.00
10.99
10.01
9.36
9.18
9.32
9.44
9.18
8.31
6.83
4.95
2.91
0.94
-0.85
-2.52
-4.12
-5.73
-7.33
-8.91
-10.43
-11.88
-13.24
-14.55
-15.80
-17.05
-18.39
-19.94
-21.71
-23.58
-25.21
-26.21
-26.17
-24.88
-22.43
-19.15
-15.53
-12.03
-8.98
-6.46
-4.40
-2.61
-0.85
1.04
3.12
5.31
7.37
9.05
10.11
10.47
10.22
9.55
8.70
7.91
7.32
7.02
7.01
7.21
7.54
7.88
8.20
8.52
8.97
9.66
10.67
11.92
13.22
14.32
14.99
15.14
14.84
14.34
13.90
13.70
13.81
14.07
14.24
14.05
13.26
11.77
9.63
7.01
4.17
1.38
-1.12
-3.18
-4.75
-5.89
-6.75
-7.46
-8.15
-8.88
-9.70
-10.66
-11.77
-12.97
-14.10
-14.88
-14.99
-14.16
-12.24
-9.34
-5.79
-2.10
1.29
4.03
5.99
7.26
8.01
8.41
8.53
8.38
7.91
7.16
6.20
5.20
4.33
3.80
3.72
4.09
4.82
5.73
6.58
7.19
7.56
7.73
7.85
7.99
8.10
8.04
7.72
7.12
6.37
5.63
4.98
4.36
3.61
2.62
1.36
-0.06
-1.50
-2.86
-4.14
-5.45
-6.83
-8.27
-9.71
-11.03
-12.19
-13.20
-14.20
-15.36
-16.81
-18.51
-20.25
-21.64
-22.22
-21.68
-20.00
-17.41
-14.34
-11.22
-8.30
-5.64
-3.19
-0.85
1.39
3.55
5.60
7.56
9.40
11.05
12.38
13.26
13.59
13.41
12.89
12.27
11.77
11.52
11.49
11.57
11.59
11.41
11.00
10.40
9.75
9.16
8.70
8.38
8.10
7.77
7.38
6.95
6.53
6.19
5.88
5.47
4.81
3.79
2.45
0.98
-0.43
-1.65
-2.67
-3.67
-4.85
-6.28
-7.89
-9.52
-10.95
-12.14
-13.18
-14.19
-15.26
-16.37
-17.35
-18.05
-18.35
-18.24
-17.78
-17.01
-15.93
-14.54
-12.82
-10.77
-8.51
-6.11
-3.67
-1.26
1.09
3.35
5.42
7.21
8.58
9.49
10.02
10.37
10.76
11.34
12.11
12.85
13.33
13.40
13.06
12.47
11.81
11.21
10.65
10.07
9.47
8.96
8.71
8.82
9.22
9.64
9.78
9.49
8.76
7.77
6.73
5.73
4.71
3.53
2.09
0.43
-1.22
-2.58
-3.40
-3.62
-3.41
-3.06
-2.87
-3.05
-3.64
-4.54
-5.55
-6.56
-7.51
-8.48
-9.57
-10.87
-12.34
-13.79
-14.94
-15.52
-15.33
-14.37
-12.79
-10.81
-8.64
-6.38
-4.04
-1.60
0.95
3.50
5.92
8.03
9.76
11.13
12.21
13.10
13.83
14.36
14.62
14.60
14.34
13.92
13.45
12.97
12.49
11.98
11.40
10.77
10.13
9.50
8.87
8.20
7.49
6.74
6.01
5.38
4.88
4.49
4.17
3.86
3.54
3.18
2.77
2.28
1.69
0.97
0.09
-0.94
-2.13
-3.47
-4.93
-6.44
-7.86
-9.10
-10.14
-11.03
-11.95
-13.01
-14.29
-15.70
-17.08
-18.26
-19.14
-19.73
-20.06
-20.09
-19.72
-18.78
-17.18
-14.94
-12.30
-9.53
-6.92
-4.55
-2.40
-0.33
1.80
3.95
5.99
7.75
9.12
10.14
10.96
11.72
12.45
13.03
13.33
13.29
12.99
12.64
12.44
12.44
12.57
12.62
12.43
11.94
11.19
10.32
9.51
8.82
8.28
7.85
7.37
6.75
5.83
4.57
3.00
1.27
-0.34
-1.56
-2.18
-2.24
-1.90
-1.46
-1.16
-1.09
-1.15
-1.17
-1.03
-0.78
-0.60
-0.68
-1.13
-1.91
-2.85
-3.80
-4.62
-5.26
-5.63
-5.64
-5.17
-4.16
-2.65
-0.74
1.38
3.56
5.69
7.72
9.60
11.30
12.75
13.90
14.70
15.13
15.20
14.94
14.43
13.74
12.97
12.20
11.47
10.87
10.44
10.24
10.27
10.42
10.50
10.31
9.66
8.54
7.09
5.53
4.11
2.98
2.18
1.61
1.14
0.64
0.00
-0.79
-1.69
-2.61
-3.48
-4.28
-5.07
-5.93
-6.95
-8.10
-9.27
-10.31
-11.10
-11.66
-12.12
-12.67
-13.40
-14.26
-15.07
-15.62
-15.79
-15.58
-15.14
-14.63
-14.16
-13.73
-13.30
-12.70
-11.83
-10.59
-8.99
-7.09
-5.03
-2.98
-1.04
0.71
2.26
3.58
4.64
5.39
5.81
5.94
5.94
5.99
6.23
6.69
7.29
7.83
8.17
8.23
8.03
7.68
7.26
6.82
6.32
5.71
4.95
4.05
3.09
2.16
1.35
0.69
0.12
-0.43
-1.06
-1.81
-2.68
-3.64
-4.61
-5.53
-6.34
-7.01
-7.53
-7.99
-8.53
-9.31
-10.43
-11.83
-13.37
-14.79
-15.93
-16.75
-17.37
-17.99
-18.75
-19.65
-20.53
-21.15
-21.25
-20.64
-19.27
-17.25
-14.77
-12.12
-9.55
-7.18
-5.03
-2.98
-0.87
1.35
3.64
5.87
7.86
9.45
10.55
11.15
11.25
10.96
10.40
9.76
9.24
8.97
9.00
9.25
9.55
9.77
9.80
9.65
9.41
9.14
8.88
8.60
8.21
7.69
7.07
6.45
5.94
5.58
5.30
4.94
4.35
3.48
2.41
1.28
0.23
-0.73
-1.64
-2.63
-3.74
-4.93
-6.08
-7.09
-7.93
-8.66
-9.43
-10.36
-11.50
-12.90
-14.55
-16.39
-18.32
-20.12
-21.51
-22.15
-21.81
-20.42
-18.14
-15.32
-12.33
-9.46
-6.85
-4.51
-2.36
-0.37
1.45
3.12
4.66
6.17
7.69
9.16
10.46
11.37
11.80
11.79
11.54
11.25
11.05
10.90
10.72
10.43
10.01
9.55
9.14
8.80
8.48
8.16
7.80
7.46
7.21
7.09
7.07
7.07
6.97
6.75
6.39
5.95
5.45
4.89
4.22
3.41
2.45
1.36
0.25
-0.85
-1.91
-3.03
-4.29
-5.72
-7.22
-8.61
-9.71
-10.41
-10.81
-11.13
-11.64
-12.53
-13.82
-15.37
-16.94
-18.21
-18.90
-18.79
-17.81
-16.02
-13.58
-10.73
-7.74
-4.83
-2.17
0.11
1.92
3.27
4.29
5.22
6.26
7.55
9.00
10.37
11.38
11.86
11.82
11.48
11.05
10.69
10.42
10.17
9.89
9.58
9.30
9.10
9.01
8.96
8.89
8.73
8.50
8.26
8.11
8.08
8.14
8.17
8.06
7.73
7.19
6.55
5.90
5.32
4.83
4.37
3.83
3.16
2.33
1.39
0.41
-0.58
-1.53
-2.40
-3.15
-3.79
-4.37
-5.06
-6.03
-7.41
-9.21
-11.27
-13.25
-14.77
-15.49
-15.21
-13.92
-11.79
-9.14
-6.34
-3.73
-1.56
0.13
1.43
2.56
3.72
5.00
6.34
7.51
8.31
8.55
8.24
7.57
6.82
6.31
6.24
6.63
7.32
8.07
8.66
8.95
8.88
8.48
7.75
6.74
5.51
4.22
3.09
2.36
2.14
2.33
2.70
2.91
2.74
2.16
1.26
0.26
-0.65
-1.38
-1.91
-2.34
-2.81
-3.43
-4.28
-5.38
-6.70
-8.16
-9.67
-11.14
-12.52
-13.78
-14.94
-16.02
-17.10
-18.24
-19.49
-20.78
-21.92
-22.60
-22.48
-21.35
-19.21
-16.30
-13.05
-9.87
-7.01
-4.47
-2.10
0.30
2.79
5.26
7.49
9.21
10.27
10.69
10.58
10.16
9.62
9.12
8.78
8.64
8.73
9.01
9.44
10.02
10.70
11.41
11.97
12.17
11.81
10.86
9.48
7.93
6.52
5.45
4.71
4.13
3.46
2.51
1.17
-0.48
-2.28
-4.03
-5.58
-6.88
-7.95
-8.82
-9.49
-9.95
-10.23
-10.42
-10.70
-11.23
-12.11
-13.30
-14.72
-16.27
-17.89
-19.49
-20.93
-21.88
-21.99
-21.00
-18.89
-16.00
-12.79
-9.73
-7.01
-4.62
-2.35
-0.01
2.46
4.98
7.37
9.50
11.33
12.93
14.40
15.79
17.08
18.15
18.89
19.27
19.32
19.19
19.04
18.97
18.99
19.02
18.95
18.72
18.32
17.80
17.25
16.72
16.23
15.75
15.25
14.63
13.81
12.73
11.36
9.74
7.93
6.01
4.06
2.14
0.29
-1.50
-3.29
-5.14
-7.05
-8.93
-10.62
-11.94
-12.80
-13.27
-13.54
-13.88
-14.46
-15.34
-16.42
-17.52
-18.47
-19.12
-19.44
-19.36
-18.83
-17.74
-16.00
-13.59
-10.60
-7.28
-3.97
-1.00
1.45
3.37
4.94
6.41
7.93
9.56
11.21
12.74
14.02
14.97
15.57
15.82
15.75
15.45
15.02
14.60
14.24
13.92
13.53
12.93
12.06
11.02
10.00
9.21
8.75
8.52
8.31
7.91
7.24
6.38
5.54
4.95
4.68
4.66
4.66
4.42
3.73
2.54
0.95
-0.85
-2.63
-4.20
-5.50
-6.56
-7.54
-8.65
-10.05
-11.78
-13.79
-15.87
-17.78
-19.29
-20.17
-20.28
-19.51
-17.80
-15.22
-11.99
-8.47
-5.12
-2.32
-0.22
1.25
2.35
3.38
4.48
5.64
6.73
7.62
8.24
8.67
8.98
9.23
9.41
9.52
9.56
9.63
9.79
10.07
10.34
10.41
10.09
9.29
8.06
6.58
5.06
3.64
2.42
1.40
0.53
-0.22
-0.94
-1.68
-2.49
-3.39
-4.35
-5.29
-6.18
-7.00
-7.81
-8.68
-9.66
-10.78
-12.00
-13.23
-14.42
-15.52
-16.52
-17.46
-18.43
-19.51
-20.75
-22.05
-23.17
-23.85
-23.84
-23.05
-21.52
-19.41
-16.91
-14.16
-11.25
-8.27
-5.38
-2.73
-0.45
1.44
3.06
4.54
6.01
7.48
8.89
10.16
11.23
12.05
12.62
12.94
13.04
12.99
12.88
12.81
12.81
12.85
12.82
12.65
12.33
11.96
11.68
11.57
11.57
11.55
11.30
10.68
9.64
8.20
6.49
4.65
2.89
1.35
0.13
-0.80
-1.59
-2.38
-3.30
-4.33
-5.41
-6.45
-7.48
-8.54
-9.75
-11.12
-12.60
-14.10
-15.57
-17.01
-18.46
-19.89
-21.16
-22.00
-22.11
-21.30
-19.54
-16.97
-13.86
-10.54
-7.30
-4.30
-1.64
0.71
2.83
4.81
6.71
8.50
10.12
11.49
12.58
13.39
13.97
14.37
14.64
14.83
14.98
15.10
15.22
15.31
15.40
15.52
15.68
15.84
15.84
15.45
14.51
13.02
11.21
9.48
8.17
7.43
7.09
6.85
6.39
5.56
4.52
3.47
2.64
2.02
1.47
0.77
-0.24
-1.56
-3.06
-4.55
-5.90
-7.06
-8.09
-9.08
-10.10
-11.16
-12.22
-13.22
-14.14
-15.06
-16.06
-17.19
-18.30
-19.12
-19.35
-18.75
-17.33
-15.32
-13.05
-10.84
-8.85
-7.04
-5.30
-3.52
-1.72
0.07
1.73
3.26
4.65
5.98
7.23
8.34
9.23
9.84
10.15
10.26
10.30
10.41
10.66
11.07
11.64
12.37
13.22
14.11
14.89
15.41
15.51
15.16
14.42
13.47
12.47
11.50
10.53
9.54
8.51
7.52
6.68
6.03
5.57
5.18
4.70
3.99
3.02
1.80
0.41
-1.05
-2.54
-4.05
-5.56
-7.02
-8.36
-9.54
-10.55
-11.48
-12.46
-13.63
-15.02
-16.47
-17.62
-18.08
-17.54
-15.99
-13.66
-10.96
-8.26
-5.73
-3.29
-0.82
1.78
4.33
6.49
7.95
8.57
8.51
8.19
8.05
8.34
9.00
9.73
10.20
10.24
9.93
9.52
9.28
9.33
9.58
9.78
9.65
9.06
8.06
6.83
5.64
4.75
4.22
4.00
3.90
3.71
3.31
2.69
1.95
1.21
0.54
-0.11
-0.85
-1.77
-2.88
-4.10
-5.26
-6.24
-7.01
-7.64
-8.30
-9.15
-10.28
-11.68
-13.29
-15.02
-16.79
-18.54
-20.19
-21.63
-22.71
-23.26
-23.14
-22.28
-20.75
-18.71
-16.37
-13.88
-11.33
-8.73
-6.06
-3.44
-0.97
1.17
2.94
4.40
5.81
7.38
9.23
11.22
13.03
14.38
15.11
15.26
15.01
14.58
14.05
13.43
12.73
11.95
11.24
10.68
10.29
9.97
9.58
9.00
8.22
7.35
6.52
5.79
5.16
4.56
3.90
3.08
2.10
1.04
0.07
-0.68
-1.15
-1.47
-1.89
-2.76
-4.31
-6.55
-9.24
-12.00
-14.48
-16.44
-17.87
-18.84
-19.50
-19.94
-20.21
-20.41
-20.63
-20.96
-21.38
-21.74
-21.80
-21.29
-20.00
-17.89
-15.06
-11.70
-8.05
-4.34
-0.72
2.75
6.13
9.55
13.15
16.96
20.90
24.72
28.13
30.94
33.16
35.06
37.07
39.58
42.73
46.33
49.94
53.09
55.61
57.73
60.08
63.35
68.00
73.94
80.57
86.97
92.23
95.77
97.56
98.26
99.13
101.77
107.60
117.17
129.63
142.51
152.18
154.82
147.63
129.75
102.69
69.94
36.12
5.71
-18.04
-33.75
-41.87
-44.08
-42.36
-38.25
-32.51
-25.37
-16.93
-7.61
1.80
10.34
17.13
21.56
23.16
21.47
16.02
6.51
-6.70
-22.42
-38.70
-53.36
-64.73
-72.07
-75.88
-77.53
-78.60
-80.36
-83.27
-87.01
-90.70
-93.20
-93.43
-90.66
-84.77
-76.59
-68.07
-62.06
-61.51
-68.40
-82.69
-101.90
-121.82
-137.79
-146.20
-145.57
-136.66
-121.80
-103.81
-85.07
-67.08
-50.48
-35.48
-22.21
-10.90
-1.81
5.00
9.86
13.36
16.13
18.35
19.53
18.65
14.87
8.25
0.21
-6.86
-10.60
-9.90
-5.55
0.12
4.37
5.47
3.42
-0.22
-3.37
-4.67
-4.02
-2.44
-1.18
-0.93
-1.45
-1.92
-1.66
-0.61
0.55
0.87
-0.28
-2.74
-5.66
-7.99
-9.08
-9.01
-8.54
-8.60
-9.79
-12.10
-14.95
-17.64
-19.70
-21.19
-22.54
-24.28
-26.68
-29.60
-32.47
-34.58
-35.34
-34.52
-32.24
-28.87
-24.73
-19.99
-14.65
-8.72
-2.45
3.59
8.62
11.96
13.28
12.78
11.04
8.74
6.32
3.89
1.31
-1.61
-4.83
-8.08
-11.00
-13.31
-14.99
-16.21
-17.23
-18.22
-19.20
-20.08
-20.82
-21.54
-22.48
-23.89
-25.89
-28.34
-30.89
-33.07
-34.48
-34.87
-34.17
-32.45
-29.83
-26.49
-22.63
-18.49
-14.38
-10.50
-6.96
-3.69
-0.53
2.70
6.01
9.28
12.22
14.53
16.07
16.87
17.16
17.23
17.34
17.64
18.17
18.91
19.75
20.66
21.59
22.53
23.41
24.15
24.61
24.73
24.50
23.98
23.28
22.48
21.59
20.55
19.30
17.81
16.20
14.68
13.46
12.62
12.03
11.39
10.41
8.91
6.85
4.38
1.71
-1.02
-3.65
-6.08
-8.24
-10.13
-11.86
-13.74
-16.08
-19.13
-22.83
-26.80
-30.43
-33.05
-34.20
-33.69
-31.72
-28.68
-24.99
-21.03
-16.98
-12.86
-8.56
-4.02
0.66
5.28
9.55
13.25
16.38
19.08
21.59
24.01
26.28
28.16
29.40
29.89
29.78
29.38
29.13
29.29
29.90
30.81
31.67
32.18
32.12
31.47
30.32
28.87
27.26
25.58
23.87
22.15
20.50
19.03
17.82
16.90
16.16
15.38
14.36
12.98
11.29
9.45
7.62
5.90
4.20
2.38
0.29
-2.10
-4.69
-7.34
-9.90
-12.31
-14.60
-16.89
-19.31
-21.97
-24.85
-27.81
-30.53
-32.54
-33.33
-32.58
-30.20
-26.45
-21.79
-16.74
-11.78
-7.21
-3.13
0.52
3.87
7.11
10.33
13.56
16.71
19.58
21.99
23.75
24.79
25.15
24.98
24.50
23.97
23.61
23.56
23.82
24.30
24.79
25.15
25.24
25.00
24.44
23.59
22.53
21.30
19.91
18.38
16.72
14.97
13.19
11.53
10.13
9.13
8.52
8.16
7.79
7.18
6.17
4.75
3.00
1.09
-0.86
-2.78
-4.68
-6.60
-8.57
-10.60
-12.71
-14.92
-17.29
-19.85
-22.49
-24.97
-26.96
-28.09
-28.13
-27.00
-24.83
-21.82
-18.19
-14.06
-9.52
-4.68
0.31
5.19
9.71
13.70
17.14
20.08
22.65
24.90
26.78
28.11
28.69
28.41
27.31
25.62
23.65
21.71
20.04
18.71
17.74
17.05
16.55
16.18
15.83
15.38
14.75
13.88
12.87
11.90
11.23
11.01
11.20
11.55
11.67
11.20
9.93
7.97
5.72
3.66
2.14
1.26
0.79
0.32
-0.55
-2.01
-4.03
-6.39
-8.77
-10.95
-12.85
-14.58
-16.33
-18.30
-20.59
-23.17
-25.84
-28.25
-30.03
-30.82
-30.38
-28.57
-25.46
-21.23
-16.29
-11.14
-6.30
-2.19
1.02
3.45
5.43
7.40
9.71
12.45
15.43
18.29
20.67
22.34
23.30
23.67
23.63
23.35
22.86
22.22
21.49
20.84
20.42
20.35
20.48
20.51
20.14
19.12
17.51
15.57
13.66
12.06
10.88
10.00
9.21
8.30
7.15
5.78
4.28
2.74
1.21
-0.30
-1.79
-3.29
-4.84
-6.46
-8.19
-9.98
-11.77
-13.41
-14.79
-15.88
-16.81
-17.83
-19.24
-21.18
-23.60
-26.24
-28.62
-30.28
-30.81
-29.95
-27.65
-24.14
-19.81
-15.19
-10.79
-6.89
-3.52
-0.48
2.52
5.66
8.87
11.89
14.40
16.16
17.20
17.68
17.88
18.07
18.37
18.80
19.32
19.85
20.29
20.60
20.68
20.47
20.00
19.26
18.34
17.27
16.11
14.89
13.70
12.59
11.58
10.63
9.59
8.30
6.70
4.89
3.12
1.65
0.60
-0.11
-0.74
-1.55
-2.69
-4.13
-5.74
-7.37
-9.03
-10.80
-12.83
-15.18
-17.80
-20.56
-23.30
-25.91
-28.24
-30.08
-31.11
-30.96
-29.37
-26.35
-22.19
-17.41
-12.58
-8.14
-4.26
-0.93
1.97
4.55
6.84
8.87
10.65
12.22
13.64
14.95
16.21
17.41
18.53
19.56
20.49
21.32
22.06
22.66
23.05
23.10
22.74
21.94
20.77
19.40
18.00
16.67
15.41
14.11
12.69
11.07
9.31
7.47
5.68
3.97
2.38
0.95
-0.30
-1.36
-2.29
-3.20
-4.25
-5.52
-7.03
-8.68
-10.36
-11.98
-13.52
-15.02
-16.51
-18.06
-19.73
-21.57
-23.57
-25.65
-27.57
-28.96
-29.40
-28.55
-26.34
-23.00
-18.94
-14.68
-10.57
-6.82
-3.48
-0.53
2.10
4.44
6.54
8.47
10.28
11.97
13.48
14.70
15.57
16.06
16.23
16.17
15.95
15.60
15.19
14.80
14.55
14.52
14.71
14.96
15.12
15.06
14.79
14.37
13.87
13.28
12.48
11.32
9.73
7.81
5.84
4.13
2.91
2.18
1.75
1.29
0.51
-0.69
-2.23
-3.93
-5.65
-7.32
-8.99
-10.76
-12.65
-14.63
-16.65
-18.65
-20.67
-22.70
-24.68
-26.42
-27.64
-28.04
-27.42
-25.74
-23.14
-19.87
-16.27
-12.61
-9.08
-5.79
-2.68
0.34
3.30
6.21
8.98
11.46
13.54
15.15
16.33
17.14
17.70
18.07
18.28
18.27
18.07
17.68
17.18
16.63
16.08
15.54
14.98
14.35
13.59
12.62
11.37
9.82
8.08
6.35
4.85
3.76
3.08
2.68
2.35
1.89
1.21
0.31
-0.76
-1.99
-3.37
-4.91
-6.57
-8.26
-9.89
-11.40
-12.82
-14.24
-15.79
-17.61
-19.76
-22.19
-24.77
-27.26
-29.47
-31.19
-32.25
-32.48
-31.67
-29.68
-26.51
-22.43
-17.92
-13.52
-9.64
-6.34
-3.43
-0.56
2.56
5.97
9.50
12.84
15.78
18.18
20.00
21.25
21.91
21.99
21.55
20.77
19.91
19.20
18.79
18.69
18.79
18.95
19.01
18.92
18.72
18.54
18.48
18.58
18.77
18.85
18.66
18.11
17.33
16.60
16.17
16.17
16.47
16.77
16.79
16.47
16.00
15.75
16.07
17.06
18.53
20.07
21.23
21.75
21.64
21.21
20.89
21.08
21.99
23.51
25.31
26.92
27.95
28.22
27.83
27.15
26.57
26.46
26.94
27.86
28.72
28.78
27.22
23.48
17.51
9.97
2.13
-4.55
-8.88
-10.34
-9.25
-6.45
-2.89
0.72
4.11
7.31
10.31
12.88
14.53
14.68
12.96
9.40
4.39
-1.50
-7.86
-14.54
-21.62
-29.14
-36.76
-43.73
-48.95
-51.37
-50.37
-46.06
-39.22
-31.02
-22.64
-14.94
-8.46
-3.50
-0.42
0.34
-1.69
-6.64
-14.10
-23.04
-32.01
-39.60
-44.77
-47.06
-46.54
-43.73
-39.46
-34.72
-30.55
-27.74
-26.63
-26.95
-27.97
-28.80
-28.82
-27.89
-26.37
-24.81
-23.53
-22.47
-21.14
-18.99
-15.70
-11.33
-6.40
-1.64
2.27
4.90
6.20
6.44
6.02
5.41
5.01
5.25
6.47
8.94
12.65
17.24
22.07
26.32
29.31
30.62
30.18
28.28
25.38
22.02
18.74
15.92
13.79
12.40
11.66
11.40
11.53
12.01
12.88
14.10
15.47
16.62
17.08
16.41
14.42
11.25
7.38
3.51
0.35
-1.73
-2.87
-3.74
-5.34
-8.51
-13.66
-20.60
-28.68
-37.12
-45.28
-52.72
-59.13
-64.19
-67.41
-68.32
-66.68
-62.58
-56.56
-49.44
-42.12
-35.37
-29.78
-25.66
-23.05
-21.70
-21.16
-20.90
-20.45
-19.57
-18.31
-16.88
-15.56
-14.46
-13.53
-12.64
-11.68
-10.64
-9.59
-8.61
-7.71
-6.79
-5.68
-4.26
-2.54
-0.70
1.02
2.33
3.06
3.21
2.96
2.58
2.34
2.33
2.47
2.51
2.17
1.29
-0.07
-1.73
-3.40
-4.95
-6.30
-7.54
-8.76
-10.01
-11.31
-12.69
-14.20
-15.94
-17.90
-19.93
-21.64
-22.58
-22.38
-20.91
-18.35
-15.09
-11.57
-8.07
-4.70
-1.44
1.75
4.82
7.62
9.99
11.84
13.21
14.24
15.12
15.93
16.67
17.29
17.69
17.88
17.97
18.12
18.42
18.87
19.29
19.45
19.20
18.48
17.49
16.47
15.61
14.94
14.28
13.44
12.29
10.86
9.32
7.87
6.64
5.62
4.75
3.92
3.04
2.09
1.03
-0.20
-1.60
-3.17
-4.86
-6.66
-8.64
-10.92
-13.65
-16.81
-20.17
-23.29
-25.60
-26.66
-26.19
-24.27
-21.22
-17.54
-13.73
-10.18
-7.08
-4.40
-1.99
0.36
2.80
5.33
7.84
10.12
11.96
13.26
14.00
14.28
14.28
14.13
13.93
13.70
13.49
13.40
13.56
14.12
15.09
16.30
17.46
18.27
18.55
18.31
17.71
16.98
16.29
15.70
15.17
14.57
13.79
12.74
11.44
10.01
8.61
7.35
6.22
5.10
3.79
2.19
0.34
-1.55
-3.24
-4.60
-5.72
-6.84
-8.22
-10.06
-12.36
-14.92
-17.43
-19.48
-20.69
-20.73
-19.51
-17.14
-13.98
-10.48
-7.04
-3.90
-1.12
1.35
3.59
5.69
7.65
9.47
11.11
12.52
13.59
14.21
14.36
14.12
13.74
13.49
13.55
13.96
14.60
15.32
15.97
16.50
16.85
16.98
16.78
16.16
15.09
13.65
12.06
10.53
9.24
8.24
7.46
6.75
5.92
4.79
3.23
1.23
-1.09
-3.52
-5.80
-7.75
-9.40
-10.88
-12.47
-14.36
-16.63
-19.16
-21.69
-23.94
-25.57
-26.30
-25.93
-24.35
-21.60
-17.90
-13.62
-9.23
-5.13
-1.59
1.34
3.79
5.96
7.97
9.82
11.34
12.36
12.80
12.77
12.54
12.40
12.56
12.99
13.52
13.90
14.03
13.93
13.79
13.81
14.10
14.64
15.24
15.64
15.64
15.15
14.18
12.91
11.53
10.20
9.00
7.91
6.89
5.87
4.85
3.86
2.91
1.96
0.96
-0.16
-1.46
-2.91
-4.51
-6.29
-8.32
-10.66
-13.38
-16.40
-19.47
-22.30
-24.54
-25.92
-26.28
-25.53
-23.71
-20.98
-17.60
-13.88
-10.07
-6.34
-2.67
0.99
4.68
8.26
11.46
13.98
15.65
16.55
16.95
17.15
17.33
17.50
17.51
17.26
16.77
16.21
15.82
15.80
16.19
16.85
17.47
17.76
17.53
16.74
15.60
14.36
13.33
12.64
12.24
11.92
11.43
10.60
9.36
7.81
6.12
4.43
2.82
1.27
-0.24
-1.75
-3.24
-4.69
-6.07
-7.37
-8.66
-9.99
-11.43
-13.05
-14.94
-17.15
-19.72
-22.59
-25.54
-28.23
-30.21
-31.11
-30.67
-28.93
-26.08
-22.49
-18.52
-14.48
-10.53
-6.72
-3.04
0.52
3.97
7.24
10.22
12.79
14.83
16.28
17.17
17.55
17.52
17.22
16.76
16.25
15.83
15.60
15.64
15.93
16.38
16.84
17.18
17.31
17.21
16.97
16.66
16.36
16.06
15.75
15.37
14.88
14.26
13.51
12.62
11.62
10.60
9.68
9.00
8.68
8.71
8.96
9.23
9.31
9.08
8.56
7.89
7.27
6.82
6.61
6.59
6.65
6.68
6.54
6.20
5.72
5.23
4.90
4.78
4.86
5.10
5.51
6.26
7.63
9.94
13.41
18.05
23.69
29.98
36.42
42.32
46.89
49.51
49.87
48.36
46.03
44.39
44.84
48.18
54.23
61.78
69.02
73.98
75.04
71.21
62.23
48.47
30.92
11.12
-8.87
-26.79
-40.70
-49.56
-53.57
-54.04
-52.80
-51.44
-50.53
-49.66
-47.78
-43.96
-37.93
-30.31
-22.24
-14.98
-9.34
-5.46
-2.88
-0.89
1.06
2.96
4.28
4.12
1.72
-3.16
-10.00
-17.69
-24.83
-30.13
-32.63
-31.88
-28.04
-21.98
-15.34
-10.30
-8.92
-12.33
-20.11
-30.26
-39.84
-46.17
-47.89
-45.33
-40.14
-34.32
-29.25
-25.32
-22.08
-18.92
-15.61
-12.47
-10.10
-8.89
-8.70
-8.92
-8.78
-7.83
-6.16
-4.38
-3.22
-3.24
-4.52
-6.72
-9.29
-11.68
-13.51
-14.65
-15.17
-15.27
-15.19
-15.11
-15.06
-14.93
-14.53
-13.71
-12.50
-11.17
-10.14
-9.84
-10.51
-12.07
-14.19
-16.41
-18.35
-19.86
-20.93
-21.65
-22.16
-22.54
-22.86
-23.25
-23.83
-24.69
-25.81
-26.93
-27.67
-27.62
-26.47
-24.16
-20.90
-17.04
-12.93
-8.85
-4.90
-1.10
2.58
6.17
9.65
12.90
15.80
18.27
20.31
22.03
23.56
25.05
26.48
27.74
28.66
29.09
29.04
28.63
28.11
27.61
27.17
26.63
25.79
24.52
22.87
21.08
19.45
18.25
17.58
17.34
17.31
17.23
16.88
16.21
15.29
14.34
13.59
13.22
13.06
12.61
11.04
7.52
1.53
-6.79
-16.65
-26.84
-36.16
-43.76
-49.30
-52.77
-54.30
-54.00
-51.95
-48.45
-44.14
-39.93
-36.71
-34.96
-34.49
-34.50
-33.93
-31.99
-28.45
-23.75
-18.66
-14.02
-10.34
-7.78
-6.20
-5.31
-4.83
-4.56
-4.37
-4.22
-4.06
-3.90
-3.66
-3.22
-2.39
-1.01
0.94
3.29
5.68
7.72
9.19
10.12
10.78
11.49
12.47
13.73
15.11
16.37
17.33
17.91
18.15
18.12
17.88
17.41
16.64
15.53
14.11
12.50
10.93
9.62
8.72
8.22
7.93
7.52
6.71
5.32
3.37
1.11
-1.10
-2.93
-4.18
-4.95
-5.56
-6.41
-7.80
-9.80
-12.25
-14.85
-17.32
-19.43
-21.02
-21.86
-21.71
-20.32
-17.60
-13.80
-9.44
-5.13
-1.37
1.61
3.94
5.88
7.68
9.43
11.07
12.44
13.46
14.16
14.66
15.09
15.53
15.98
16.37
16.63
16.72
16.54
16.05
15.21
14.07
12.77
11.50
10.47
9.77
9.37
9.14
8.86
8.35
7.49
6.26
4.80
3.34
2.14
1.39
1.05
0.92
0.67
0.05
-0.98
-2.25
-3.54
-4.66
-5.59
-6.44
-7.30
-8.15
-8.90
-9.51
-10.04
-10.77
-12.02
-14.04
-16.86
-20.29
-23.94
-27.35
-30.08
-31.74
-32.05
-30.89
-28.31
-24.61
-20.24
-15.72
-11.50
-7.90
-5.01
-2.76
-0.92
0.77
2.58
4.64
6.99
9.47
11.86
13.87
15.29
16.00
16.07
15.70
15.20
14.87
14.92
15.40
16.18
17.02
17.64
17.81
17.44
16.58
15.39
14.05
12.77
11.68
10.82
10.14
9.47
8.65
7.54
6.17
4.72
3.50
2.70
2.37
2.29
2.09
1.44
0.21
-1.54
-3.61
-5.79
-8.04
-10.41
-12.95
-15.64
-18.35
-20.96
-23.42
-25.81
-28.22
-30.63
-32.81
-34.37
-34.95
-34.33
-32.57
-29.87
-26.48
-22.53
-18.10
-13.31
-8.33
-3.48
0.97
4.82
8.04
10.73
13.06
15.12
16.94
18.50
19.78
20.78
21.54
22.10
22.54
22.95
23.42
23.97
24.54
24.98
25.10
24.75
23.89
22.61
21.08
19.48
17.95
16.59
15.48
14.66
14.13
13.80
13.50
12.97
12.04
10.65
8.83
6.72
4.47
2.21
0.05
-1.94
-3.75
-5.42
-7.09
-8.92
-11.01
-13.35
-15.80
-18.12
-20.17
-21.95
-23.67
-25.64
-28.13
-31.08
-34.05
-36.35
-37.25
-36.31
-33.52
-29.31
-24.34
-19.22
-14.36
-9.94
-5.93
-2.30
0.99
3.93
6.56
8.96
11.21
13.35
15.31
16.99
18.26
19.08
19.51
19.69
19.79
19.94
20.19
20.49
20.76
20.89
20.79
20.44
19.85
19.06
18.12
17.14
16.16
15.19
14.21
13.18
12.10
11.01
9.99
9.13
8.42
7.76
6.96
5.86
4.35
2.48
0.37
-1.84
-4.02
-6.08
-7.99
-9.64
-10.93
-11.81
-12.37
-12.90
-13.83
-15.55
-18.23
-21.63
-25.13
-28.01
-29.65
-29.76
-28.47
-26.17
-23.30
-20.14
-16.79
-13.20
-9.37
-5.31
-1.15
3.01
7.10
11.04
14.71
17.92
20.42
22.05
22.79
22.88
22.66
22.50
22.60
22.96
23.43
23.84
24.11
24.28
24.45
24.66
24.85
24.82
24.42
23.59
22.44
21.20
20.07
19.16
18.41
17.66
16.74
15.63
14.37
13.09
11.92
10.94
10.12
9.36
8.44
7.16
5.39
3.16
0.73
-1.56
-3.35
-4.47
-4.94
-5.01
-5.02
-5.33
-6.23
-7.91
-10.42
-13.68
-17.31
-20.71
-23.12
-23.86
-22.64
-19.76
-16.04
-12.61
-10.50
-10.17
-11.39
-13.33
-14.94
-15.43
-14.54
-12.46
-9.59
-6.19
-2.22
2.61
8.50
15.26
22.18
28.14
32.05
33.28
31.95
28.92
25.32
22.12
19.66
17.67
15.50
12.66
9.08
5.23
1.80
-0.76
-2.41
-3.53
-4.64
-6.06
-7.75
-9.36
-10.43
-10.62
-9.94
-8.71
-7.43
-6.60
-6.54
-7.22
-8.35
-9.53
-10.41
-10.90
-11.21
-11.65
-12.52
-13.92
-15.74
-17.76
-19.84
-21.96
-24.28
-26.95
-29.97
-33.07
-35.72
-37.34
-37.44
-35.90
-32.95
-29.05
-24.70
-20.25
-15.84
-11.48
-7.18
-3.00
0.93
4.52
7.78
10.76
13.52
15.98
17.97
19.39
20.28
20.84
21.37
22.06
22.89
23.62
23.96
23.76
23.11
22.23
21.42
20.81
20.34
19.82
19.07
17.97
16.54
14.94
13.35
11.95
10.89
10.21
9.81
9.53
9.14
8.48
7.50
6.30
5.08
4.01
3.14
2.36
1.52
0.51
-0.71
-1.96
-3.05
-3.74
-3.95
-3.75
-3.40
-3.26
-3.77
-5.42
-8.63
-13.65
-20.36
-28.03
-35.45
-41.15
-43.95
-43.35
-39.83
-34.53
-28.90
-24.01
-20.32
-17.70
-15.69
-13.85
-11.99
-10.10
-8.25
-6.53
-4.98
-3.62
-2.52
-1.70
-1.18
-0.90
-0.72
-0.40
0.30
1.57
3.43
5.69
7.95
9.73
10.61
10.42
9.33
7.74
6.20
5.13
4.78
5.08
5.82
6.63
7.20
7.27
6.70
5.53
3.93
2.19
0.61
-0.57
-1.34
-1.83
-2.28
-2.94
-3.91
-5.14
-6.47
-7.80
-9.11
-10.49
-12.08
-13.99
-16.23
-18.79
-21.60
-24.60
-27.58
-30.16
-31.79
-31.87
-30.02
-26.21
-20.91
-14.85
-8.80
-3.25
1.65
5.98
9.88
13.34
16.26
18.50
20.07
21.13
21.91
22.57
23.08
23.27
23.00
22.26
21.23
20.18
19.37
18.94
18.88
19.09
19.39
19.64
19.72
19.58
19.20
18.57
17.70
16.59
15.25
13.77
12.25
10.84
9.62
8.56
7.57
6.51
5.35
4.15
3.01
1.94
0.82
-0.57
-2.36
-4.51
-6.77
-8.84
-10.54
-11.92
-13.14
-14.41
-15.80
-17.26
-18.71
-20.24
-22.05
-24.36
-27.22
-30.30
-32.98
-34.61
-34.72
-33.18
-30.20
-26.17
-21.52
-16.59
-11.69
-7.02
-2.74
1.12
4.65
7.99
11.30
14.59
17.67
20.23
21.94
22.59
22.23
21.13
19.72
18.43
17.57
17.24
17.34
17.61
17.82
17.74
17.33
16.59
15.61
14.51
13.42
12.46
11.70
11.20
10.89
10.67
10.41
9.94
9.16
8.02
6.58
4.97
3.36
1.93
0.83
0.05
-0.47
-0.92
-1.47
-2.20
-3.11
-4.05
-4.92
-5.67
-6.40
-7.31
-8.62
-10.49
-12.96
-15.95
-19.24
-22.58
-25.67
-28.22
-29.94
-30.63
-30.18
-28.63
-26.14
-22.98
-19.50
-15.96
-12.55
-9.30
-6.09
-2.74
0.88
4.75
8.62
12.17
15.03
17.02
18.15
18.68
18.91
19.08
19.29
19.51
19.67
19.74
19.71
19.59
19.33
18.86
18.08
16.95
15.52
14.01
12.68
11.73
11.23
11.04
10.97
10.83
10.55
10.16
9.75
9.39
9.13
8.98
8.95
9.02
9.14
9.15
8.83
7.99
6.57
4.69
2.64
0.69
-1.04
-2.62
-4.24
-6.07
-8.20
-10.59
-13.11
-15.64
-18.01
-19.97
-21.22
-21.37
-20.16
-17.52
-13.73
-9.30
-4.86
-0.91
2.35
4.97
7.20
9.30
11.43
13.58
15.65
17.54
19.14
20.41
21.34
21.87
22.01
21.81
21.34
20.72
20.03
19.36
18.73
18.19
17.75
17.39
17.08
16.68
16.05
15.05
13.69
12.11
10.51
9.07
7.91
6.95
6.05
5.02
3.81
2.46
1.17
0.10
-0.69
-1.32
-1.98
-2.86
-4.06
-5.51
-7.10
-8.73
-10.41
-12.16
-13.97
-15.71
-17.25
-18.57
-19.84
-21.37
-23.32
-25.52
-27.39
-28.09
-26.90
-23.56
-18.43
-12.32
-6.23
-0.90
3.36
6.68
9.52
12.44
15.94
20.25
25.21
30.09
33.78
35.02
32.86
27.17
18.78
9.22
0.29
-6.60
-10.74
-12.03
-10.79
-7.40
-2.27
3.99
10.48
15.98
19.30
19.69
17.22
12.69
7.30
2.13
-2.20
-5.62
-8.35
-10.68
-12.76
-14.58
-16.11
-17.38
-18.51
-19.66
-20.98
-22.51
-24.26
-26.12
-28.01
-29.82
-31.49
-32.97
-34.25
-35.29
-36.13
-36.87
-37.69
-38.85
-40.48
-42.56
-44.77
-46.64
-47.63
-47.30
-45.44
-42.10
-37.55
-32.13
-26.20
-20.04
-13.90
-7.96
-2.42
2.58
6.93
10.64
13.80
16.62
19.25
21.78
24.08
25.95
27.11
27.46
27.11
26.36
25.55
24.92
24.53
24.28
24.06
23.79
23.53
23.34
23.25
23.19
23.03
22.63
21.91
20.88
19.63
18.25
16.80
15.30
13.81
12.37
11.08
9.99
9.10
8.38
7.76
7.18
6.55
5.75
4.66
3.19
1.30
-0.85
-3.01
-4.89
-6.31
-7.34
-8.27
-9.49
-11.27
-13.66
-16.37
-18.92
-20.80
-21.64
-21.36
-20.12
-18.23
-15.96
-13.47
-10.77
-7.81
-4.62
-1.30
1.91
4.80
7.25
9.27
10.95
12.38
13.58
14.52
15.17
15.55
15.76
15.94
16.17
16.47
16.88
17.37
17.98
18.71
19.44
19.96
20.00
19.32
17.85
15.78
13.45
11.23
9.42
8.07
7.02
6.02
4.83
3.37
1.80
0.38
-0.67
-1.30
-1.69
-2.16
-3.04
-4.45
-6.26
-8.13
-9.72
-10.89
-11.72
-12.51
-13.62
-15.30
-17.59
-20.34
-23.35
-26.41
-29.33
-31.86
-33.66
-34.31
-33.51
-31.18
-27.59
-23.28
-18.86
-14.80
-11.38
-8.61
-6.37
-4.46
-2.63
-0.67
1.60
4.22
7.10
9.97
12.55
14.66
16.26
17.46
18.38
19.12
19.70
20.14
20.45
20.68
20.86
20.98
20.98
20.75
20.24
19.50
18.66
17.93
17.46
17.30
17.35
17.38
17.11
16.31
14.96
13.11
10.92
8.51
5.93
3.16
0.22
-2.83
-5.84
-8.61
-11.00
-12.99
-14.66
-16.15
-17.58
-19.03
-20.48
-21.88
-23.18
-24.38
-25.53
-26.68
-27.92
-29.25
-30.55
-31.62
-32.15
-31.84
-30.47
-28.02
-24.63
-20.63
-16.44
-12.48
-9.05
-6.30
-4.19
-2.52
-0.93
0.97
3.55
7.04
11.53
16.85
22.62
28.28
33.29
37.30
40.33
42.72
45.00
47.52
50.21
52.60
53.98
53.81
52.03
49.06
45.62
42.38
39.69
37.50
35.59
33.70
31.72
29.65
27.56
25.51
23.52
21.58
19.67
17.79
15.82
13.51
10.42
6.01
-0.17
-8.29
-18.08
-28.77
-39.27
-48.46
-55.53
-60.24
-62.93
-64.35
-65.30
-66.37
-67.73
-69.28
-70.85
-72.31
-73.57
-74.48
-74.64
-73.52
-70.64
-65.85
-59.53
-52.45
-45.50
-39.31
-34.05
-29.46
-25.05
-20.34
-15.01
-8.94
-2.22
4.87
11.90
18.41
23.93
28.18
31.11
32.88
33.77
34.15
34.29
34.45
34.75
35.21
35.70
36.05
36.11
35.80
35.20
34.47
33.80
33.27
32.93
32.70
32.51
32.31
32.12
32.00
32.09
32.53
33.37
34.55
35.82
36.87
37.47
37.55
37.31
37.03
36.94
37.01
36.91
36.17
34.38
31.50
27.89
24.32
21.61
20.36
20.70
22.15
23.76
24.56
23.95
22.14
20.18
19.65
22.17
28.71
38.97
51.10
61.82
67.06
63.09
47.78
21.56
-12.35
-48.64
-81.47
-106.22
-120.65
-125.14
-121.91
-113.75
-102.94
-90.86
-78.24
-65.73
-54.20
-44.68
-37.92
-33.97
-32.07
-30.95
-29.55
-27.46
-25.14
-23.52
-23.40
-24.94
-27.48
-29.89
-31.10
-30.62
-28.67
-26.02
-23.47
-21.54
-20.27
-19.35
-18.46
-17.41
-16.22
-15.05
-14.07
-13.42
-13.23
-13.58
-14.52
-15.95
-17.61
-19.16
-20.30
-20.94
-21.21
-21.45
-22.04
-23.21
-24.98
-27.16
-29.37
-31.24
-32.42
-32.70
-31.97
-30.22
-27.51
-24.00
-19.96
-15.66
-11.40
-7.45
-3.96
-0.92
1.78
4.37
7.04
9.87
12.76
15.50
17.84
19.62
20.83
21.63
22.21
22.71
23.15
23.45
23.60
23.65
23.76
24.02
24.44
24.82
24.93
24.62
23.92
23.04
22.28
21.84
21.73
21.82
21.97
22.08
22.11
22.10
22.02
21.86
21.58
21.17
20.64
20.04
19.39
18.71
17.96
17.14
16.21
15.11
13.80
12.22
10.31
8.13
5.78
3.43
1.22
-0.80
-2.74
-4.76
-7.03
-9.55
-12.05
-14.02
-14.85
-14.07
-11.58
-7.70
-3.04
1.77
6.27
10.30
13.92
17.30
20.54
23.64
26.50
28.91
30.53
31.05
30.27
28.24
25.39
22.46
20.39
19.98
21.67
25.31
30.07
34.54
37.03
36.06
30.94
22.13
11.27
0.69
-7.38
-11.54
-11.50
-8.01
-2.27
4.61
12.01
19.73
27.61
35.07
40.88
43.41
41.22
33.77
21.80
7.14
-7.94
-21.60
-32.94
-42.06
-49.53
-55.80
-60.84
-64.27
-65.81
-65.62
-64.37
-62.96
-62.10
-62.08
-62.70
-63.60
-64.41
-64.98
-65.30
-65.30
-64.80
-63.45
-60.90
-56.96
-51.74
-45.62
-39.14
-32.75
-26.67
-20.89
-15.27
-9.73
-4.28
0.92
5.73
10.08
13.95
17.35
20.23
22.51
24.14
25.21
26.00
26.85
28.06
29.65
31.42
33.08
34.38
35.26
35.80
36.06
36.05
35.70
34.93
33.82
32.56
31.42
30.58
30.01
29.50
28.78
27.61
25.94
23.88
21.64
19.37
17.16
15.00
12.86
10.74
8.67
6.77
5.18
4.01
3.37
3.31
3.81
4.75
5.97
7.26
8.38
9.15
9.48
9.47
9.35
9.49
10.23
11.82
14.31
17.51
21.09
24.72
28.21
31.62
35.13
38.99
43.33
48.14
53.29
58.69
64.27
69.90
75.27
79.80
82.74
83.57
82.36
79.93
77.62
76.78
78.08
81.14
84.50
85.92
82.89
73.04
54.64
27.14
-8.31
-48.51
-88.65
-123.40
-148.54
-162.25
-165.46
-161.02
-152.19
-141.29
-129.26
-116.09
-101.81
-87.17
-73.66
-62.84
-55.59
-51.66
-49.92
-49.00
-48.01
-46.81
-45.93
-46.01
-47.29
-49.45
-51.63
-53.04
-53.30
-52.74
-52.23
-52.72
-54.70
-57.87
-61.20
-63.36
-63.23
-60.32
-54.88
-47.73
-39.92
-32.35
-25.58
-19.77
-14.76
-10.31
-6.19
-2.31
1.32
4.65
7.72
10.62
13.43
16.14
18.59
20.55
21.91
22.73
23.34
24.07
25.15
26.48
27.78
28.68
29.07
29.03
28.83
28.64
28.42
27.97
27.06
25.66
23.93
22.20
20.74
19.69
18.96
18.26
17.39
16.19
14.69
13.08
11.55
10.27
9.22
8.28
7.22
5.86
4.16
2.17
0.07
-2.01
-4.01
-5.92
-7.82
-9.82
-12.02
-14.56
-17.53
-20.99
-24.88
-28.97
-32.91
-36.16
-38.21
-38.66
-37.39
-34.54
-30.45
-25.59
-20.35
-15.01
-9.67
-4.38
0.84
5.87
10.56
14.74
18.33
21.31
23.83
26.04
28.04
29.84
31.30
32.27
32.69
32.64
32.36
32.09
31.94
31.91
31.88
31.76
31.50
31.18
30.82
30.38
29.77
28.88
27.72
26.41
25.15
24.12
23.32
22.62
21.81
20.70
19.24
17.48
15.57
13.58
11.55
9.44
7.18
4.72
2.07
-0.69
-3.46
-6.11
-8.57
-10.83
-12.92
-14.91
-16.92
-19.04
-21.37
-23.97
-26.85
-29.97
-33.07
-35.78
-37.61
-38.06
-36.85
-34.01
-29.88
-25.03
-20.01
-15.14
-10.50
-5.98
-1.39
3.29
7.87
12.00
15.29
17.52
18.74
19.24
19.42
19.63
20.03
20.58
21.16
21.58
21.78
21.72
21.45
21.05
20.58
20.13
19.78
19.62
19.73
20.10
20.60
21.03
21.11
20.67
19.63
18.08
16.22
14.25
12.34
10.55
8.87
7.27
5.71
4.20
2.72
1.29
-0.20
-1.83
-3.75
-6.07
-8.82
-11.90
-15.09
-18.11
-20.81
-23.23
-25.60
-28.24
-31.29
-34.57
-37.54
-39.44
-39.62
-37.80
-34.12
-29.13
-23.52
-17.89
-12.61
-7.83
-3.45
0.68
4.70
8.71
12.67
16.43
19.73
22.36
24.17
25.16
25.47
25.27
24.71
23.89
22.87
21.72
20.56
19.54
18.79
18.39
18.29
18.44
18.75
19.14
19.51
19.76
19.77
19.44
18.79
17.90
16.96
16.07
15.29
14.54
13.69
12.62
11.30
9.76
8.09
6.42
4.79
3.17
1.47
-0.41
-2.61
-5.19
-8.08
-11.15
-14.21
-17.06
-19.59
-21.79
-23.76
-25.69
-27.78
-30.21
-33.02
-36.05
-38.89
-40.98
-41.72
-40.70
-37.81
-33.33
-27.74
-21.68
-15.70
-10.18
-5.29
-0.99
2.85
6.41
9.87
13.27
16.54
19.49
21.93
23.71
24.83
25.44
25.74
25.92
26.11
26.33
26.52
26.62
26.55
26.33
25.95
25.42
24.74
23.91
22.99
22.03
21.15
20.36
19.63
18.83
17.85
16.65
15.26
13.84
12.48
11.22
10.01
8.72
7.31
5.80
4.36
3.13
2.23
1.66
1.23
0.70
-0.18
-1.48
-3.04
-4.50
-5.42
-5.50
-4.76
-3.58
-2.53
-2.16
-2.63
-3.66
-4.54
-4.47
-2.87
0.38
4.95
10.23
15.60
20.69
25.43
30.02
34.76
39.87
45.31
50.71
55.54
59.24
61.47
62.26
61.95
61.07
60.09
59.31
58.73
58.00
56.31
52.44
44.93
32.61
15.18
-6.35
-29.59
-51.46
-68.96
-80.11
-84.40
-82.64
-76.42
-67.58
-57.78
-48.31
-40.23
-34.24
-30.69
-29.49
-30.07
-31.57
-33.07
-33.89
-33.81
-33.05
-32.16
-31.70
-32.02
-33.06
-34.42
-35.57
-36.06
-35.75
-34.92
-34.10
-33.85
-34.57
-36.27
-38.67
-41.26
-43.42
-44.61
-44.44
-42.78
-39.72
-35.57
-30.75
-25.65
-20.59
-15.68
-10.95
-6.37
-1.95
2.23
6.05
9.38
12.19
14.50
16.41
17.99
19.24
20.13
20.59
20.59
20.25
19.81
19.54
19.70
20.42
21.62
23.12
24.63
25.86
26.60
26.74
26.26
25.28
23.93
22.41
20.86
19.42
18.14
17.15
16.58
16.58
17.22
18.39
19.81
21.08
21.86
22.00
21.62
20.99
20.39
20.01
19.82
19.67
19.40
18.89
18.12
17.18
16.17
15.20
14.36
13.66
13.03
12.44
11.91
11.70
12.13
13.54
16.05
19.56
23.67
27.78
31.00
32.16
29.83
22.65
9.98
-7.55
-27.75
-47.40
-63.29
-73.26
-76.98
-75.59
-71.05
-65.03
-58.44
-51.48
-44.17
-36.88
-30.42
-25.67
-23.15
-22.63
-23.26
-23.96
-23.98
-23.15
-21.86
-20.75
-20.31
-20.60
-21.21
-21.51
-20.87
-19.04
-16.18
-12.82
-9.62
-7.07
-5.36
-4.37
-3.85
-3.61
-3.60
-3.88
-4.48
-5.27
-5.99
-6.38
-6.37
-6.07
-5.74
-5.60
-5.68
-5.91
-6.14
-6.31
-6.52
-6.93
-7.70
-8.88
-10.42
-12.18
-13.96
-15.49
-16.50
-16.74
-16.08
-14.51
-12.16
-9.17
-5.71
-1.92
2.04
5.91
9.43
12.39
14.73
16.62
18.28
19.86
21.38
22.66
23.48
23.69
23.36
22.72
22.10
21.78
21.90
22.40
23.08
23.66
23.97
23.93
23.65
23.25
22.80
22.23
21.43
20.29
18.82
17.23
15.77
14.66
13.89
13.30
12.66
11.81
10.78
9.66
8.54
7.34
5.89
4.03
1.71
-0.91
-3.51
-5.78
-7.58
-8.96
-10.12
-11.28
-12.61
-14.13
-15.87
-17.83
-20.07
-22.70
-25.71
-28.95
-32.06
-34.47
-35.60
-35.05
-32.72
-28.96
-24.40
-19.73
-15.49
-11.86
-8.67
-5.61
-2.42
0.93
4.20
7.00
9.06
10.32
10.96
11.29
11.60
12.01
12.51
13.04
13.57
14.13
14.74
15.35
15.82
16.03
15.94
15.72
15.57
15.67
16.00
16.39
16.60
16.55
16.27
15.95
15.71
15.55
15.31
14.87
14.20
13.45
12.88
12.65
12.79
13.14
13.44
13.47
13.14
12.46
11.55
10.54
9.47
8.42
7.38
6.37
5.36
4.28
2.98
1.21
-1.22
-4.35
-7.91
-11.44
-14.36
-16.25
-16.94
-16.49
-15.08
-12.78
-9.56
-5.38
-0.36
5.10
10.40
14.97
18.49
21.09
23.25
25.53
28.36
31.87
35.83
39.81
43.09
44.74
43.67
38.93
30.13
17.86
3.83
-9.55
-19.81
-25.26
-25.42
-20.94
-13.20
-3.72
6.13
15.22
22.55
27.10
28.09
25.18
18.73
9.75
-0.30
-9.99
-18.27
-24.62
-29.06
-31.94
-33.67
-34.58
-34.84
-34.58
-33.91
-33.10
-32.47
-32.32
-32.75
-33.67
-34.81
-35.94
-36.93
-37.94
-39.26
-41.17
-43.70
-46.56
-49.17
-50.87
-51.14
-49.80
-47.00
-43.07
-38.40
-33.25
-27.73
-21.90
-15.84
-9.78
-4.01
1.16
5.56
9.18
12.13
14.56
16.56
18.18
19.44
20.45
21.40
22.55
24.17
26.36
29.08
32.09
35.09
37.74
39.79
41.11
41.73
41.78
41.49
41.07
40.65
40.29
39.98
39.73
39.61
39.70
40.03
40.47
40.74
40.49
39.57
38.11
36.54
35.44
35.21
35.85
36.93
37.73
37.57
36.08
33.28
29.51
25.26
20.89
16.58
12.35
8.32
4.83
2.43
1.78
3.27
6.85
12.01
18.08
24.51
30.86
36.31
39.19
36.90
26.66
6.89
-21.53
-54.84
-87.42
-113.73
-130.22
-136.24
-133.58
-125.11
-113.33
-99.73
-85.04
-69.94
-55.55
-43.33
-34.49
-29.40
-27.41
-27.18
-27.34
-27.04
-26.23
-25.43
-25.28
-26.10
-27.69
-29.42
-30.50
-30.39
-28.99
-26.71
-24.23
-22.23
-21.11
-20.84
-21.08
-21.41
-21.54
-21.47
-21.44
-21.68
-22.26
-23.06
-23.78
-24.19
-24.19
-23.91
-23.58
-23.44
-23.65
-24.22
-24.98
-25.66
-25.87
-25.26
-23.55
-20.68
-16.84
-12.40
-7.81
-3.45
0.46
3.83
6.71
9.23
11.58
13.91
16.31
18.66
20.74
22.28
23.15
23.43
23.42
23.45
23.76
24.33
24.98
25.50
25.76
25.83
25.82
25.84
25.84
25.68
25.19
24.36
23.28
22.21
21.34
20.73
20.29
19.82
19.12
18.17
17.09
16.05
15.20
14.52
13.87
13.09
12.09
10.90
9.61
8.23
6.66
4.74
2.34
-0.49
-3.48
-6.34
-8.83
-10.97
-13.00
-15.25
-17.99
-21.19
-24.56
-27.55
-29.62
-30.35
-29.55
-27.32
-23.91
-19.63
-14.74
-9.47
-4.02
1.40
6.60
11.37
15.60
19.23
22.26
24.63
26.32
27.32
27.75
27.81
27.72
27.60
27.46
27.16
26.58
25.73
24.77
23.91
23.27
22.86
22.53
22.11
21.45
20.49
19.26
17.87
16.47
15.20
14.24
13.65
13.43
13.44
13.48
13.39
13.12
12.64
11.95
11.04
9.88
8.50
7.01
5.60
4.41
3.49
2.75
1.96
0.92
-0.50
-2.29
-4.33
-6.51
-8.81
-11.25
-13.92
-16.80
-19.69
-22.20
-23.72
-23.66
-21.52
-17.11
-10.62
-2.63
5.99
14.27
21.37
26.82
30.65
33.30
35.43
37.65
40.31
43.42
46.70
49.75
52.21
53.80
54.34
53.70
51.80
48.64
44.32
38.91
32.28
24.05
13.83
1.51
-12.30
-26.27
-38.62
-47.76
-52.93
-54.39
-53.24
-50.79
-48.06
-45.48
-43.07
-40.71
-38.38
-36.22
-34.36
-32.78
-31.28
-29.66
-27.83
-25.99
-24.43
-23.44
-23.16
-23.46
-24.10
-24.78
-25.30
-25.51
-25.44
-25.24
-25.12
-25.33
-26.01
-27.09
-28.21
-28.86
-28.46
-26.67
-23.42
-18.99
-13.85
-8.57
-3.63
0.71
4.36
7.46
10.24
12.93
15.70
18.52
21.27
23.71
25.65
26.99
27.77
28.15
28.35
28.64
29.22
30.17
31.39
32.64
33.65
34.26
34.50
34.56
34.71
35.13
35.83
36.64
37.41
38.07
38.69
39.43
40.30
41.03
41.16
40.14
37.73
34.07
29.50
24.28
18.25
10.77
1.16
-10.77
-24.31
-37.84
-49.38
-57.36
-61.19
-61.42
-59.39
-56.52
-53.88
-51.93
-50.72
-50.22
-50.46
-51.50
-53.25
-55.33
-57.00
-57.48
-56.18
-52.98
-48.27
-42.74
-37.13
-31.95
-27.37
-23.17
-19.04
-14.60
-9.72
-4.44
0.94
6.02
10.48
14.11
16.90
18.95
20.40
21.35
21.90
22.17
22.32
22.53
22.89
23.38
23.79
23.93
23.72
23.29
22.91
22.86
23.20
23.75
24.15
24.04
23.26
21.91
20.21
18.45
16.78
15.21
13.64
11.98
10.21
8.45
6.87
5.60
4.61
3.71
2.60
0.99
-1.23
-3.90
-6.64
-9.05
-10.85
-12.08
-12.98
-13.95
-15.32
-17.26
-19.72
-22.47
-25.16
-27.39
-28.83
-29.23
-28.50
-26.65
-23.87
-20.43
-16.64
-12.79
-9.12
-5.78
-2.82
-0.19
2.17
4.34
6.37
8.28
10.14
11.99
13.80
15.48
16.87
17.84
18.34
18.48
18.47
18.51
18.72
19.06
19.40
19.56
19.43
19.02
18.48
17.96
17.60
17.44
17.46
17.59
17.71
17.66
17.33
16.67
15.66
14.40
12.94
11.34
9.63
7.83
5.97
4.12
2.36
0.71
-0.85
-2.44
-4.15
-6.02
-7.97
-9.83
-11.50
-12.98
-14.42
-16.04
-18.03
-20.45
-23.18
-25.91
-28.20
-29.65
-29.89
-28.73
-26.21
-22.51
-18.01
-13.11
-8.22
-3.66
0.36
3.70
6.38
8.46
10.13
11.53
12.82
14.00
15.04
15.92
16.65
17.32
17.99
18.64
19.14
19.37
19.27
18.95
18.59
18.34
18.16
17.84
17.19
16.13
14.83
13.56
12.60
12.02
11.67
11.30
10.65
9.60
8.17
6.48
4.70
2.94
1.27
-0.30
-1.84
-3.51
-5.41
-7.62
-10.04
-12.55
-14.96
-17.20
-19.28
-21.33
-23.49
-25.82
-28.30
-30.77
-33.00
-34.71
-35.60
-35.37
-33.83
-30.94
-26.90
-22.13
-17.14
-12.40
-8.23
-4.68
-1.62
1.19
3.97
6.79
9.54
12.02
13.94
15.14
15.54
15.27
14.61
13.87
13.38
13.30
13.67
14.40
15.35
16.35
17.24
17.90
18.24
18.24
17.92
17.38
16.74
16.07
15.41
14.75
14.03
13.19
12.15
10.84
9.18
7.10
4.67
2.04
-0.57
-2.95
-5.07
-7.01
-9.01
-11.24
-13.74
-16.40
-19.00
-21.38
-23.55
-25.70
-28.07
-30.77
-33.73
-36.61
-38.98
-40.43
-40.70
-39.67
-37.34
-33.75
-29.04
-23.46
-17.40
-11.41
-6.02
-1.61
1.75
4.30
6.42
8.50
10.74
13.18
15.73
18.21
20.51
22.51
24.08
25.15
25.64
25.61
25.26
24.84
24.55
24.48
24.51
24.43
24.08
23.36
22.33
21.11
19.79
18.46
17.09
15.70
14.28
12.91
11.67
10.58
9.58
8.58
7.45
6.09
4.42
2.47
0.31
-1.95
-4.17
-6.26
-8.16
-9.87
-11.40
-12.77
-14.09
-15.55
-17.40
-19.89
-23.02
-26.52
-29.83
-32.21
-33.07
-32.18
-29.67
-25.97
-21.63
-17.06
-12.58
-8.37
-4.54
-1.12
1.90
4.65
7.30
9.99
12.67
15.22
17.43
19.13
20.27
20.94
21.26
21.31
21.15
20.80
20.29
19.71
19.20
18.89
18.83
18.95
19.09
19.05
18.72
18.06
17.11
15.97
14.70
13.29
11.75
10.10
8.47
7.03
5.88
5.02
4.26
3.33
2.00
0.20
-1.96
-4.25
-6.45
-8.47
-10.37
-12.24
-14.09
-15.84
-17.37
-18.66
-19.90
-21.43
-23.53
-26.17
-28.93
-31.06
-31.81
-30.78
-28.07
-24.28
-20.11
-16.12
-12.52
-9.21
-5.93
-2.55
0.89
4.20
7.13
9.59
11.57
13.20
14.57
15.69
16.51
17.00
17.21
17.29
17.39
17.65
18.05
18.49
18.76
18.69
18.19
17.30
16.15
14.99
14.01
13.35
13.04
12.92
12.71
12.15
11.04
9.34
7.27
5.10
3.15
1.64
0.58
-0.15
-0.80
-1.68
-2.97
-4.77
-6.99
-9.44
-11.86
-14.05
-15.91
-17.52
-19.03
-20.65
-22.52
-24.72
-27.16
-29.61
-31.70
-33.01
-33.19
-32.10
-29.80
-26.57
-22.78
-18.76
-14.74
-10.84
-7.12
-3.60
-0.36
2.58
5.24
7.69
10.05
12.30
14.37
16.08
17.26
17.87
18.04
18.02
18.03
18.13
18.25
18.19
17.81
17.10
16.21
15.32
14.59
14.02
13.54
13.03
12.47
11.95
11.59
11.45
11.44
11.35
10.92
9.98
8.61
7.04
5.60
4.47
3.61
2.76
1.63
0.10
-1.76
-3.70
-5.50
-7.07
-8.52
-10.07
-11.86
-13.93
-16.19
-18.59
-21.09
-23.69
-26.32
-28.73
-30.48
-31.07
-30.17
-27.72
-24.00
-19.55
-14.95
-10.63
-6.84
-3.64
-0.93
1.43
3.61
5.77
8.00
10.23
12.27
13.89
14.89
15.24
15.06
14.59
14.10
13.82
13.88
14.34
15.16
16.22
17.29
18.11
18.48
18.29
17.62
16.64
15.50
14.31
13.16
12.14
11.35
10.87
10.61
10.36
9.78
8.62
6.84
4.66
2.47
0.61
-0.76
-1.76
-2.71
-3.93
-5.62
-7.69
-9.87
-11.84
-13.39
-14.52
-15.43
-16.43
-17.71
-19.33
-21.15
-22.90
-24.24
-24.90
-24.71
-23.62
-21.73
-19.23
-16.35
-13.29
-10.19
-7.12
-4.15
-1.37
1.10
3.20
4.97
6.53
7.96
9.26
10.29
10.90
11.04
10.85
10.58
10.56
10.95
11.75
12.77
13.76
14.54
15.05
15.27
15.20
14.82
14.07
12.94
11.52
9.99
8.64
7.66
7.12
6.90
6.74
6.34
5.50
4.19
2.53
0.78
-0.84
-2.24
-3.44
-4.59
-5.80
-7.09
-8.41
-9.64
-10.67
-11.55
-12.44
-13.56
-15.11
-17.16
-19.60
-22.18
-24.54
-26.27
-27.00
-26.54
-24.84
-22.12
-18.68
-14.85
-10.92
-7.09
-3.49
-0.24
2.58
4.94
6.91
8.65
10.31
11.91
13.32
14.27
14.57
14.19
13.40
12.55
12.02
12.01
12.48
13.27
14.14
14.86
15.31
15.42
15.17
14.62
13.83
12.91
11.98
11.12
10.40
9.79
9.12
8.19
6.83
4.98
2.77
0.46
-1.64
-3.32
-4.52
-5.35
-6.00
-6.62
-7.31
-8.13
-9.09
-10.21
-11.47
-12.80
-14.10
-15.27
-16.31
-17.33
-18.51
-19.98
-21.78
-23.70
-25.36
-26.28
-25.99
-24.24
-21.10
-16.92
-12.30
-7.88
-4.14
-1.25
0.92
2.74
4.60
6.79
9.37
12.15
14.78
16.89
18.23
18.74
18.52
17.80
16.82
15.80
14.88
14.20
13.84
13.93
14.43
15.22
15.97
16.35
16.09
15.19
13.88
12.56
11.57
11.05
10.92
10.96
10.90
10.57
9.94
9.04
7.91
6.63
5.22
3.76
2.31
0.93
-0.35
-1.56
-2.76
-4.03
-5.45
-7.00
-8.59
-10.09
-11.41
-12.57
-13.77
-15.30
-17.37
-19.93
-22.59
-24.76
-25.79
-25.30
-23.24
-19.94
-15.86
-11.53
-7.30
-3.40
-0.03
2.67
4.60
5.80
6.48
6.93
7.45
8.17
9.02
9.79
10.29
10.49
10.48
10.42
10.38
10.30
9.97
9.23
8.03
6.54
5.01
3.72
2.83
2.32
2.10
2.01
1.91
1.72
1.38
0.84
0.07
-0.92
-2.08
-3.31
-4.44
-5.34
-5.93
-6.19
-6.25
-6.30
-6.61
-7.30
-8.41
-9.73
-10.96
-11.80
-12.18
-12.23
-12.29
-12.70
-13.67
-15.20
-17.13
-19.21
-21.23
-23.01
-24.36
-25.01
-24.69
-23.15
-20.34
-16.53
-12.24
-8.08
-4.49
-1.62
0.68
2.69
4.65
6.57
8.25
9.45
10.01
10.01
9.73
9.47
9.41
9.56
9.77
9.92
9.98
10.02
10.17
10.47
10.84
11.10
11.03
10.51
9.60
8.48
7.38
6.49
5.84
5.36
4.93
4.36
3.60
2.62
1.52
0.46
-0.44
-1.14
-1.70
-2.33
-3.19
-4.34
-5.66
-6.93
-7.95
-8.66
-9.22
-9.92
-11.07
-12.86
-15.23
-17.95
-20.61
-22.77
-24.04
-24.13
-22.98
-20.67
-17.48
-13.77
-9.91
-6.22
-2.92
-0.09
2.30
4.42
6.51
8.76
11.26
13.82
16.15
17.93
19.00
19.44
19.50
19.46
19.43
19.38
19.13
18.60
17.81
16.96
16.28
15.87
15.68
15.52
15.18
14.61
13.88
13.20
12.73
12.53
12.51
12.52
12.44
12.21
11.89
11.52
11.10
10.52
9.58
8.13
6.07
3.44
0.45
-2.61
-5.42
-7.76
-9.58
-11.02
-12.39
-14.06
-16.34
-19.31
-22.74
-26.23
-29.21
-31.16
-31.73
-30.80
-28.53
-25.26
-21.42
-17.43
-13.54
-9.86
-6.39
-3.13
-0.06
2.75
5.31
7.68
9.98
12.27
14.55
16.70
18.56
20.05
21.16
21.94
22.45
22.64
22.44
21.86
20.98
20.02
19.20
18.59
18.14
17.68
16.99
15.93
14.48
12.65
10.51
8.15
5.65
3.10
0.51
-2.16
-5.01
-8.11
-11.42
-14.76
-17.90
-20.63
-22.88
-24.70
-26.25
-27.70
-29.20
-30.85
-32.78
-35.09
-37.79
-40.70
-43.45
-45.57
-46.66
-46.49
-45.14
-42.88
-40.06
-36.99
-33.87
-30.78
-27.80
-24.93
-22.18
-19.45
-16.56
-13.34
-9.77
-6.01
-2.38
0.78
3.30
5.22
6.73
8.05
9.32
10.57
11.73
12.84
13.93
15.04
16.14
17.10
17.75
17.96
17.78
17.36
16.96
16.78
16.90
17.29
17.78
18.15
18.20
17.81
16.95
15.64
13.96
11.99
9.78
7.37
4.83
2.20
-0.48
-3.17
-5.82
-8.31
-10.44
-11.95
-12.61
-12.35
-11.21
-9.38
-7.03
-4.29
-1.27
1.93
5.11
8.00
10.31
11.81
12.40
12.08
11.00
9.43
7.74
6.33
5.52
5.37
5.72
6.19
6.43
6.31
5.99
5.78
5.93
6.48
7.20
7.74
7.81
7.29
6.24
4.89
3.46
2.14
0.99
-0.09
-1.32
-2.95
-5.10
-7.66
-10.31
-12.58
-14.08
-14.67
-14.49
-13.92
-13.32
-12.96
-12.94
-13.25
-13.91
-14.96
-16.43
-18.26
-20.14
-21.59
-22.10
-21.31
-19.11
-15.67
-11.33
-6.49
-1.53
3.26
7.60
11.34
14.36
16.72
18.58
20.18
21.66
23.10
24.41
25.40
25.91
25.86
25.26
24.22
22.94
21.62
20.42
19.33
18.21
16.83
15.00
12.74
10.25
7.86
5.86
4.36
3.29
2.47
1.79
1.21
0.80
0.56
0.41
0.09
-0.72
-2.28
-4.65
-7.69
-11.10
-14.51
-17.62
-20.25
-22.40
-24.16
-25.71
-27.14
-28.47
-29.59
-30.26
-30.21
-29.20
-27.12
-24.07
-20.30
-16.17
-12.02
-8.06
-4.38
-0.95
2.25
5.20
7.80
9.97
11.67
12.99
14.04
14.86
15.34
15.36
14.84
13.87
12.76
11.90
11.60
11.92
12.66
13.46
14.02
14.12
13.78
13.08
12.12
11.00
9.78
8.51
7.24
5.96
4.66
3.27
1.72
-0.02
-1.95
-3.97
-5.98
-7.88
-9.58
-11.01
-12.14
-13.01
-13.74
-14.55
-15.67
-17.28
-19.37
-21.70
-23.85
-25.29
-25.59
-24.55
-22.20
-18.90
-15.13
-11.33
-7.81
-4.61
-1.56
1.51
4.73
7.96
10.99
13.57
15.60
17.09
18.13
18.73
18.80
18.30
17.30
16.07
15.05
14.59
14.83
15.64
16.67
17.54
18.03
18.07
17.73
17.13
16.35
15.43
14.34
13.10
11.69
10.15
8.50
6.78
5.03
3.26
1.49
-0.25
-1.88
-3.35
-4.61
-5.67
-6.58
-7.46
-8.44
-9.64
-11.17
-13.08
-15.37
-17.89
-20.38
-22.51
-23.89
-24.30
-23.66
-22.11
-19.86
-17.17
-14.24
-11.22
-8.18
-5.21
-2.35
0.40
3.07
5.73
8.40
10.96
13.24
14.96
15.96
16.22
15.92
15.43
15.13
15.30
15.94
16.86
17.75
18.28
18.32
17.93
17.34
16.78
16.44
16.39
16.57
16.88
17.20
17.45
17.52
17.29
16.63
15.47
13.84
11.86
9.73
7.61
5.60
3.68
1.81
-0.11
-2.09
-4.12
-6.19
-8.26
-10.30
-12.27
-14.16
-15.96
-17.71
-19.54
-21.57
-23.91
-26.50
-29.09
-31.18
-32.21
-31.70
-29.50
-25.82
-21.21
-16.34
-11.83
-8.02
-4.96
-2.46
-0.24
1.98
4.31
6.75
9.14
11.28
12.95
13.98
14.37
14.28
13.96
13.71
13.73
14.08
14.65
15.24
15.63
15.71
15.49
15.18
14.97
15.02
15.32
15.64
15.70
15.24
14.19
12.64
10.80
8.87
6.95
5.05
3.14
1.23
-0.57
-2.15
-3.45
-4.55
-5.61
-6.83
-8.23
-9.74
-11.13
-12.21
-12.97
-13.60
-14.44
-15.80
-17.74
-20.04
-22.24
-23.74
-24.10
-23.12
-20.92
-17.79
-14.14
-10.31
-6.57
-3.09
0.04
2.81
5.25
7.48
9.59
11.62
13.55
15.26
16.63
17.58
18.14
18.42
18.58
18.74
19.03
19.51
20.19
21.04
21.95
22.77
23.34
23.54
23.34
22.77
21.88
20.76
19.47
18.13
16.78
15.47
14.14
12.70
11.08
9.27
7.35
5.50
3.88
2.59
1.69
1.13
0.81
0.60
0.36
-0.03
-0.65
-1.44
-2.32
-3.16
-3.92
-4.62
-5.26
-5.72
-5.74
-4.98
-3.20
-0.39
3.20
7.13
10.96
14.35
17.03
18.81
19.51
18.97
17.08
13.90
9.62
4.63
-0.61
-5.64
-10.07
-13.62
-16.16
-17.69
-18.36
-18.39
-18.13
-17.88
-17.90
-18.30
-18.96
-19.55
-19.66
-18.97
-17.41
-15.14
-12.52
-9.87
-7.42
-5.19
-3.18
-1.39
0.06
1.04
1.50
1.53
1.36
1.23
1.28
1.45
1.49
1.12
0.14
-1.52
-3.74
-6.30
-9.02
-11.75
-14.47
-17.23
-20.09
-23.04
-25.88
-28.26
-29.73
-29.93
-28.71
-26.14
-22.49
-18.00
-12.88
-7.27
-1.32
4.67
10.37
15.38
19.47
22.57
24.79
26.29
27.18
27.52
27.36
26.81
26.04
25.22
24.45
23.71
22.95
22.09
21.12
20.11
19.13
18.24
17.42
16.60
15.68
14.58
13.28
11.84
10.37
9.03
7.93
7.11
6.54
6.10
5.69
5.23
4.71
4.19
3.76
3.50
3.41
3.40
3.39
3.32
3.20
3.05
2.93
2.75
2.31
1.30
-0.59
-3.52
-7.43
-12.02
-16.86
-21.49
-25.53
-28.69
-30.83
-31.90
-32.02
-31.38
-30.25
-28.86
-27.36
-25.87
-24.36
-22.88
-21.42
-20.04
-18.75
-17.48
-16.07
-14.37
-12.33
-10.09
-7.94
-6.16
-4.87
-3.97
-3.14
-1.96
-0.15
2.42
5.68
9.42
13.44
17.52
21.45
24.99
27.92
30.16
31.75
32.96
34.03
35.08
35.95
36.20
35.38
33.15
29.58
25.06
20.16
15.34
10.72
6.17
1.49
-3.29
-7.78
-11.32
-13.34
-13.71
-12.96
-12.18
-12.67
-15.48
-20.94
-28.67
-37.60
-46.43
-53.95
-59.32
-62.10
-62.21
-59.85
-55.46
-49.62
-43.04
-36.33
-29.96
-24.07
-18.53
-13.11
-7.69
-2.47
2.08
5.42
7.14
7.18
5.86
3.75
1.45
-0.57
-2.04
-2.96
-3.48
-3.81
-4.15
-4.63
-5.33
-6.23
-7.23
-8.14
-8.75
-8.88
-8.51
-7.78
-6.97
-6.44
-6.49
-7.25
-8.64
-10.49
-12.53
-14.57
-16.44
-18.02
-19.18
-19.72
-19.53
-18.61
-17.12
-15.40
-13.86
-12.84
-12.50
-12.88
-13.83
-15.26
-17.10
-19.35
-22.00
-24.97
-28.02
-30.79
-32.94
-34.09
-33.98
-32.48
-29.62
-25.63
-20.86
-15.79
-10.87
-6.43
-2.58
0.73
3.67
6.42
9.09
11.74
14.36
16.89
19.22
21.20
22.67
23.56
23.91
23.85
23.67
23.58
23.75
24.27
25.05
25.95
26.74
27.24
27.32
26.97
26.31
25.58
25.03
24.80
24.93
25.22
25.41
25.26
24.66
23.66
22.44
21.13
19.75
18.25
16.49
14.39
11.95
9.24
6.34
3.29
0.13
-3.08
-6.20
-9.07
-11.71
-14.32
-17.26
-20.91
-25.31
-30.13
-34.65
-38.00
-39.52
-38.91
-36.31
-32.19
-27.12
-21.59
-16.00
-10.68
-5.92
-1.97
1.10
3.47
5.51
7.60
9.96
12.46
14.67
16.14
16.64
16.32
15.65
15.09
14.93
15.13
15.45
15.64
15.71
15.81
16.12
16.68
17.26
17.55
17.32
16.62
15.78
15.22
15.23
15.78
16.52
16.95
16.70
15.67
14.05
12.17
10.26
8.36
6.28
3.86
0.95
-2.36
-5.84
-9.24
-12.36
-15.11
-17.43
-19.32
-20.81
-22.00
-23.04
-24.19
-25.67
-27.60
-29.97
-32.52
-34.85
-36.43
-36.77
-35.55
-32.74
-28.61
-23.63
-18.31
-13.05
-8.08
-3.47
0.80
4.72
8.21
11.20
13.65
15.55
16.96
17.94
18.54
18.84
18.95
19.05
19.32
19.88
20.72
21.72
22.68
23.42
23.83
23.88
23.59
22.93
21.85
20.38
18.60
16.72
14.95
13.43
12.12
10.91
9.69
8.44
7.26
6.30
5.62
5.18
4.79
4.21
3.23
1.74
-0.26
-2.65
-5.26
-7.95
-10.58
-13.18
-15.89
-18.92
-22.43
-26.33
-30.25
-33.56
-35.61
-35.97
-34.55
-31.61
-27.64
-23.17
-18.62
-14.25
-10.10
-6.13
-2.22
1.73
5.72
9.64
13.30
16.56
19.35
21.71
23.74
25.51
26.95
27.93
28.38
28.44
28.38
28.51
28.96
29.65
30.28
30.56
30.29
29.49
28.27
26.79
25.16
23.45
21.67
19.80
17.78
15.59
13.27
10.90
8.65
6.65
4.88
3.18
1.33
-0.84
-3.38
-6.19
-9.11
-11.99
-14.74
-17.34
-19.80
-22.16
-24.54
-27.07
-29.88
-33.00
-36.26
-39.34
-41.83
-43.33
-43.61
-42.57
-40.30
-36.92
-32.57
-27.44
-21.80
-15.96
-10.21
-4.81
0.13
4.65
8.86
12.88
16.69
20.19
23.15
25.36
26.72
27.30
27.32
27.05
26.74
26.53
26.43
26.39
26.41
26.54
26.86
27.33
27.74
27.75
27.06
25.61
23.64
21.59
19.87
18.63
17.72
16.77
15.43
13.55
11.18
8.55
5.93
3.54
1.50
-0.13
-1.38
-2.41
-3.42
-4.63
-6.22
-8.23
-10.56
-13.05
-15.58
-18.09
-20.61
-23.27
-26.15
-29.24
-32.41
-35.33
-37.53
-38.52
-37.86
-35.38
-31.24
-25.85
-19.88
-14.01
-8.79
-4.49
-1.06
1.79
4.44
7.23
10.23
13.31
16.17
18.54
20.28
21.45
22.19
22.64
22.88
22.93
22.81
22.61
22.45
22.40
22.48
22.69
23.03
23.54
24.24
25.04
25.75
26.05
25.61
24.27
22.08
19.26
16.12
12.95
9.96
7.26
4.91
2.95
1.41
0.31
-0.37
-0.79
-1.19
-1.88
-3.03
-4.66
-6.53
-8.29
-9.67
-10.60
-11.23
-11.89
-12.90
-14.44
-16.55
-19.10
-21.91
-24.73
-27.20
-28.86
-29.18
-27.78
-24.55
-19.74
-13.94
-7.85
-2.04
3.20
7.89
12.25
16.45
20.53
24.32
27.59
30.20
32.17
33.69
34.95
36.07
37.01
37.62
37.79
37.48
36.75
35.75
34.62
33.45
32.30
31.10
29.70
27.86
25.36
22.07
18.10
13.73
9.33
5.24
1.57
-1.78
-5.05
-8.54
-12.36
-16.49
-20.74
-24.91
-28.79
-32.18
-34.85
-36.44
-36.57
-34.92
-31.50
-26.72
-21.34
-16.28
-12.17
-9.22
-7.16
-5.45
-3.59
-1.24
1.68
5.16
9.22
13.88
19.12
24.82
30.64
36.15
40.88
44.41
46.48
46.93
45.80
43.22
39.52
35.14
30.65
26.60
23.36
21.06
19.48
18.21
16.77
14.81
12.31
9.59
7.19
5.71
5.54
6.72
8.89
11.28
12.84
12.43
9.07
2.26
-7.81
-20.19
-33.35
-45.46
-54.86
-60.44
-61.80
-59.40
-54.20
-47.36
-39.89
-32.48
-25.53
-19.30
-14.21
-10.86
-9.83
-11.38
-15.20
-20.41
-25.86
-30.62
-34.27
-36.98
-39.26
-41.56
-44.06
-46.55
-48.72
-50.36
-51.55
-52.53
-53.48
-54.27
-54.43
-53.30
-50.36
-45.56
-39.32
-32.44
-25.69
-19.61
-14.25
-9.35
-4.53
0.47
5.57
10.43
14.53
17.49
19.16
19.75
19.66
19.29
18.91
18.55
18.09
17.41
16.51
15.58
14.85
14.52
14.59
14.91
15.25
15.41
15.26
14.78
14.01
13.05
11.94
10.78
9.65
8.66
7.90
7.46
7.34
7.42
7.48
7.23
6.46
5.18
3.58
1.99
0.68
-0.25
-0.93
-1.62
-2.54
-3.70
-4.93
-5.94
-6.54
-6.68
-6.54
-6.33
-6.28
-6.56
-7.30
-8.66
-10.77
-13.65
-17.04
-20.37
-22.88
-23.89
-23.07
-20.56
-16.94
-12.98
-9.35
-6.42
-4.23
-2.61
-1.33
-0.20
0.86
1.89
2.90
3.92
4.96
5.98
6.89
7.55
7.84
7.76
7.38
6.87
6.38
6.05
5.93
6.04
6.39
6.95
7.74
8.74
9.94
11.33
12.86
14.50
16.22
18.03
19.84
21.59
23.11
24.23
24.83
24.89
24.61
24.31
24.35
24.98
26.18
27.71
29.16
30.11
30.31
29.74
28.63
27.36
26.28
25.58
25.19
24.81
24.09
22.74
20.71
18.18
15.41
12.69
10.24
8.23
6.74
5.58
4.16
1.57
-3.19
-10.61
-20.33
-30.98
-40.62
-47.45
-50.47
-49.75
-46.25
-41.28
-35.99
-31.10
-26.95
-23.69
-21.48
-20.41
-20.45
-21.28
-22.41
-23.29
-23.55
-23.11
-22.19
-21.16
-20.33
-19.85
-19.66
-19.61
-19.47
-19.07
-18.32
-17.31
-16.18
-15.15
-14.42
-14.11
-14.23
-14.66
-15.23
-15.75
-16.15
-16.36
-16.39
-16.32
-16.20
-16.12
-16.10
-16.16
-16.26
-16.37
-16.53
-16.83
-17.39
-18.31
-19.61
-21.25
-23.17
-25.32
-27.73
-30.40
-33.15
-35.62
-37.24
-37.40
-35.67
-32.01
-26.78
-20.64
-14.32
-8.38
-3.14
1.33
5.14
8.46
11.51
14.48
17.50
20.58
23.57
26.18
28.15
29.38
29.97
30.19
30.30
30.41
30.47
30.35
30.01
29.53
29.10
28.84
28.76
28.74
28.61
28.26
27.70
26.99
26.21
25.35
24.34
23.06
21.49
19.63
17.55
15.36
13.18
11.16
9.41
7.99
6.85
5.81
4.62
3.11
1.21
-0.97
-3.28
-5.58
-7.90
-10.34
-13.07
-16.16
-19.56
-23.15
-26.82
-30.54
-34.32
-38.10
-41.62
-44.41
-45.89
-45.59
-43.34
-39.34
-34.10
-28.20
-22.15
-16.23
-10.51
-4.96
0.48
5.74
10.66
15.06
18.71
21.48
23.31
24.25
24.51
24.43
24.31
24.36
24.64
25.00
25.31
25.47
25.54
25.68
26.05
26.67
27.43
28.09
28.43
28.34
27.84
27.03
26.06
25.05
24.06
23.15
22.40
21.87
21.62
21.62
21.74
21.70
21.15
19.81
17.55
14.46
10.81
7.00
3.38
0.23
-2.29
-4.17
-5.56
-6.70
-7.88
-9.41
-11.40
-13.87
-16.64
-19.40
-21.84
-23.63
-24.58
-24.62
-23.81
-22.25
-20.07
-17.34
-14.11
-10.47
-6.58
-2.68
0.99
4.36
7.49
10.52
13.52
16.32
18.64
20.17
20.79
20.63
20.04
19.41
18.97
18.76
18.71
18.66
18.56
18.48
18.44
18.40
18.17
17.53
16.29
14.40
12.02
9.43
6.90
4.60
2.53
0.53
-1.57
-3.88
-6.38
-8.92
-11.33
-13.53
-15.53
-17.42
-19.34
-21.37
-23.48
-25.58
-27.58
-29.40
-31.11
-32.79
-34.58
-36.52
-38.63
-40.82
-43.00
-45.01
-46.58
-47.31
-46.80
-44.73
-41.02
-35.91
-29.91
-23.58
-17.35
-11.43
-5.84
-0.51
4.54
9.20
13.30
16.70
19.38
21.40
22.89
23.96
24.63
24.90
24.81
24.45
24.00
23.69
23.67
23.99
24.50
24.96
25.10
24.69
23.68
22.17
20.35
18.44
16.62
14.95
13.39
11.77
9.95
7.81
5.42
2.95
0.68
-1.18
-2.63
-3.82
-5.06
-6.56
-8.42
-10.56
-12.79
-14.96
-16.96
-18.80
-20.48
-22.09
-23.71
-25.45
-27.42
-29.65
-31.98
-34.11
-35.60
-35.99
-34.97
-32.48
-28.73
-24.15
-19.24
-14.45
-10.02
-6.00
-2.30
1.19
4.55
7.80
10.93
13.96
16.87
19.63
22.11
24.17
25.67
26.59
27.03
27.10
26.96
26.70
26.43
26.24
26.20
26.31
26.46
26.46
26.14
25.46
24.55
23.66
23.05
22.85
23.00
23.30
23.47
23.36
22.90
22.12
21.04
19.66
17.92
15.70
12.95
9.72
6.13
2.37
-1.37
-4.97
-8.36
-11.55
-14.54
-17.36
-20.01
-22.57
-25.18
-28.02
-31.18
-34.58
-37.87
-40.45
-41.69
-41.13
-38.68
-34.66
-29.67
-24.34
-19.12
-14.19
-9.54
-5.13
-0.96
2.90
6.40
9.55
12.43
15.14
17.65
19.88
21.67
22.93
23.72
24.19
24.56
24.98
25.51
26.12
26.69
27.11
27.33
27.31
27.05
26.56
25.86
24.91
23.72
22.30
20.74
19.15
17.66
16.33
15.08
13.78
12.27
10.48
8.44
6.29
4.15
2.06
-0.00
-2.20
-4.66
-7.44
-10.40
-13.31
-15.90
-18.04
-19.79
-21.44
-23.34
-25.75
-28.70
-31.93
-35.00
-37.44
-38.82
-38.89
-37.54
-34.84
-31.06
-26.59
-21.82
-17.10
-12.64
-8.45
-4.46
-0.60
3.12
6.62
9.70
12.18
13.90
14.81
14.97
14.52
13.75
12.95
12.49
12.60
13.39
14.72
16.28
17.71
18.66
19.01
18.87
18.51
18.21
18.14
18.28
18.47
18.59
18.55
18.37
18.11
17.73
17.06
15.91
14.14
11.82
9.19
6.53
4.02
1.70
-0.56
-2.85
-5.17
-7.43
-9.51
-11.40
-13.19
-15.06
-17.14
-19.53
-22.22
-25.20
-28.39
-31.60
-34.48
-36.57
-37.36
-36.56
-34.16
-30.47
-25.94
-21.02
-16.02
-11.10
-6.36
-1.86
2.39
6.40
10.21
13.86
17.33
20.51
23.28
25.51
27.23
28.51
29.48
30.24
30.78
31.06
31.04
30.74
30.25
29.75
29.41
29.31
29.45
29.62
29.50
28.77
27.30
25.24
22.99
21.05
19.75
19.12
18.81
18.31
17.20
15.36
12.97
10.42
8.05
6.07
4.46
3.14
2.03
1.14
0.46
-0.07
-0.65
-1.53
-2.85
-4.54
-6.31
-7.75
-8.62
-8.93
-9.07
-9.53
-10.71
-12.68
-15.10
-17.36
-18.80
-18.90
-17.50
-14.74
-11.00
-6.73
-2.29
2.08
6.41
10.84
15.60
20.82
26.38
31.76
36.06
38.14
36.88
31.45
21.63
7.97
-8.17
-24.80
-39.66
-50.71
-56.64
-57.19
-53.09
-45.73
-36.65
-27.12
-18.00
-9.88
-3.28
1.18
2.94
1.75
-2.08
-7.64
-13.70
-19.12
-23.20
-25.84
-27.42
-28.49
-29.45
-30.40
-31.18
-31.54
-31.41
-30.97
-30.58
-30.73
-31.70
-33.50
-35.82
-38.14
-39.94
-40.93
-41.16
-41.05
-41.11
-41.81
-43.37
-45.65
-48.25
-50.70
-52.50
-53.27
-52.72
-50.67
-47.07
-42.09
-36.06
-29.50
-22.97
-16.85
-11.30
-6.29
-1.68
2.68
6.84
10.74
14.27
17.29
19.76
21.66
23.04
24.01
24.72
25.33
25.96
26.68
27.43
28.13
28.63
28.86
28.82
28.58
28.22
27.76
27.24
26.63
25.95
25.17
24.29
23.28
22.09
20.69
19.13
17.55
16.14
15.04
14.28
13.78
13.34
12.75
11.87
10.63
9.04
7.18
5.15
3.01
0.85
-1.30
-3.42
-5.51
-7.63
-9.91
-12.44
-15.21
-18.00
-20.39
-21.87
-22.04
-20.73
-18.05
-14.34
-10.07
-5.69
-1.53
2.23
5.49
8.27
10.69
12.86
14.91
16.86
18.64
20.16
21.34
22.16
22.72
23.11
23.44
23.75
24.04
24.28
24.43
24.45
24.31
24.01
23.53
22.93
22.22
21.43
20.54
19.56
18.49
17.35
16.22
15.14
14.14
13.21
12.33
11.46
10.53
9.54
8.41
7.12
5.63
3.92
2.02
-0.01
-2.05
-3.99
-5.73
-7.25
-8.65
-10.08
-11.76
-13.86
-16.43
-19.39
-22.49
-25.31
-27.33
-28.10
-27.30
-24.90
-21.15
-16.50
-11.41
-6.23
-1.15
3.77
8.49
12.92
16.93
20.52
23.84
27.23
31.03
35.37
40.07
44.61
48.42
51.10
52.60
53.19
53.22
52.90
52.17
50.80
48.51
45.17
40.84
35.74
30.20
24.63
19.55
15.55
13.17
12.62
13.55
14.94
15.21
12.66
5.96
-5.31
-20.46
-37.74
-54.85
-69.58
-80.41
-86.87
-89.34
-88.71
-85.95
-81.78
-76.74
-71.31
-66.05
-61.61
-58.52
-57.06
-57.07
-58.09
-59.51
-60.80
-61.67
-62.03
-61.86
-61.10
-59.57
-57.05
-53.34
-48.40
-42.49
-36.03
-29.55
-23.49
-18.06
-13.18
-8.64
-4.18
0.32
4.75
8.82
12.17
14.57
15.96
16.57
16.72
16.80
17.05
17.54
18.22
18.98
19.76
20.52
21.32
22.14
22.86
23.25
23.08
22.16
20.55
18.50
16.42
14.68
13.46
12.68
12.07
11.29
10.15
8.68
7.13
5.81
4.94
4.53
4.34
4.06
3.37
2.13
0.40
-1.64
-3.76
-5.79
-7.67
-9.37
-10.96
-12.57
-14.39
-16.65
-19.52
-22.92
-26.46
-29.52
-31.31
-31.29
-29.24
-25.37
-20.23
-14.46
-8.69
-3.30
1.47
5.60
9.21
12.44
15.41
18.18
20.71
22.89
24.63
25.91
26.75
27.27
27.57
27.74
27.81
27.87
27.97
28.23
28.72
29.40
30.11
30.63
30.74
30.37
29.62
28.63
27.54
26.36
24.96
23.21
21.06
18.64
16.15
13.86
11.84
10.08
8.43
6.74
4.93
3.06
1.23
-0.43
-1.86
-3.10
-4.24
-5.42
-6.77
-8.36
-10.21
-12.26
-14.48
-16.88
-19.44
-22.06
-24.48
-26.32
-27.14
-26.65
-24.83
-21.91
-18.27
-14.26
-10.11
-5.92
-1.71
2.47
6.51
10.33
13.87
17.16
20.21
23.02
25.45
27.39
28.77
29.53
29.77
29.60
29.16
28.64
28.18
27.92
27.84
27.79
27.46
26.58
25.03
22.91
20.50
18.15
16.08
14.38
13.00
11.87
11.00
10.37
9.98
9.69
9.30
8.65
7.63
6.29
4.73
3.07
1.37
-0.39
-2.24
-4.20
-6.24
-8.36
-10.57
-12.96
-15.64
-18.72
-22.27
-26.29
-30.71
-35.34
-39.86
-43.81
-46.63
-47.84
-47.16
-44.60
-40.46
-35.26
-29.55
-23.78
-18.21
-12.92
-7.89
-3.09
1.42
5.49
8.94
11.60
13.43
14.44
14.73
14.38
13.48
12.19
10.72
9.30
8.12
7.19
6.39
5.54
4.56
3.60
2.92
2.74
3.13
3.87
4.60
5.00
4.95
4.54
3.96
3.41
2.94
2.55
2.16
1.74
1.33
0.96
0.66
0.36
-0.05
-0.73
-1.82
-3.36
-5.25
-7.28
-9.14
-10.60
-11.58
-12.19
-12.73
-13.55
-14.95
-17.07
-19.91
-23.32
-26.93
-30.20
-32.52
-33.34
-32.37
-29.70
-25.78
-21.21
-16.59
-12.26
-8.34
-4.78
-1.48
1.64
4.63
7.50
10.30
13.01
15.52
17.62
19.17
20.10
20.51
20.66
20.76
20.98
21.33
21.82
22.41
23.15
24.06
25.07
25.97
26.51
26.39
25.51
23.97
22.07
20.18
18.62
17.57
17.02
16.84
16.79
16.63
16.15
15.27
14.00
12.51
11.04
9.81
8.94
8.38
7.92
7.28
6.21
4.68
2.91
1.33
0.47
0.60
1.64
3.05
3.99
3.74
2.06
-0.61
-3.12
-4.09
-2.44
2.14
9.08
17.20
25.24
32.33
38.17
42.96
47.10
50.91
54.48
57.52
59.27
58.50
53.74
43.71
27.98
7.49
-15.40
-37.43
-55.35
-66.97
-71.64
-70.19
-64.37
-56.17
-47.32
-39.15
-32.50
-27.96
-25.76
-25.77
-27.48
-30.10
-32.79
-34.79
-35.68
-35.42
-34.24
-32.59
-30.95
-29.73
-29.10
-29.00
-29.16
-29.22
-28.98
-28.51
-28.14
-28.33
-29.34
-31.11
-33.22
-35.09
-36.38
-37.17
-37.94
-39.33
-41.69
-44.81
-47.95
-50.10
-50.45
-48.70
-45.12
-40.29
-34.80
-29.02
-23.13
-17.16
-11.17
-5.26
0.51
6.17
11.83
17.57
23.32
28.79
33.61
37.45
40.14
41.71
42.42
42.56
42.50
42.49
42.70
43.14
43.73
44.29
44.61
44.57
44.13
43.29
42.13
40.68
39.02
37.31
35.73
34.49
33.73
33.41
33.36
33.36
33.18
32.69
31.82
30.50
28.61
25.95
22.39
18.04
13.32
8.83
5.15
2.53
0.71
-0.88
-2.91
-5.81
-9.61
-13.98
-18.48
-22.72
-26.38
-29.24
-31.04
-31.51
-30.55
-28.26
-25.06
-21.55
-18.30
-15.66
-13.65
-11.97
-10.20
-7.95
-5.03
-1.51
2.28
5.91
8.98
11.22
12.60
13.22
13.26
12.95
12.52
12.17
12.09
12.30
12.71
13.07
13.08
12.55
11.49
10.11
8.65
7.31
6.12
5.02
3.94
2.90
1.98
1.29
0.74
0.17
-0.66
-1.89
-3.51
-5.35
-7.15
-8.71
-9.91
-10.78
-11.40
-11.91
-12.39
-12.89
-13.36
-13.63
-13.52
-12.88
-11.84
-10.72
-9.97
-9.99
-10.82
-12.07
-13.04
-12.98
-11.32
-7.91
-2.95
3.16
10.00
17.27
24.85
32.65
40.56
48.41
55.94
62.88
68.89
73.63
76.76
78.07
77.60
75.64
72.76
69.53
66.30
63.02
59.29
54.59
48.69
41.83
34.75
28.43
23.65
20.71
19.31
18.73
18.25
17.38
16.07
14.61
13.45
12.89
12.92
13.11
12.59
10.18
4.65
-4.88
-18.48
-35.20
-53.18
-70.07
-83.74
-92.86
-97.14
-97.23
-94.22
-89.21
-83.02
-76.23
-69.33
-62.99
-58.06
-55.42
-55.55
-58.31
-62.78
-67.53
-71.09
-72.36
-71.02
-67.43
-62.35
-56.54
-50.47
-44.35
-38.17
-32.00
-26.07
-20.68
-16.13
-12.46
-9.55
-7.10
-4.79
-2.44
-0.07
2.19
4.17
5.77
7.05
8.12
9.16
10.29
11.57
12.89
14.08
14.90
15.17
14.86
14.06
13.04
12.13
11.60
11.54
11.82
12.09
11.97
11.13
9.52
7.29
4.77
2.31
0.10
-1.88
-3.90
-6.26
-9.17
-12.61
-16.31
-19.87
-23.00
-25.55
-27.56
-29.23
-30.77
-32.34
-34.05
-35.86
-37.63
-39.04
-39.64
-38.96
-36.67
-32.68
-27.23
-20.80
-13.95
-7.16
-0.74
5.22
10.74
15.89
20.73
25.24
29.29
32.63
34.89
35.66
34.74
32.24
28.58
24.46
20.56
17.37
15.18
14.02
13.84
14.51
15.84
17.49
19.07
20.18
20.55
20.20
19.31
18.15
16.94
15.76
14.64
13.56
12.55
11.63
10.81
10.06
9.30
8.45
7.38
6.02
4.25
2.09
-0.39
-2.97
-5.43
-7.57
-9.33
-10.83
-12.27
-13.88
-15.82
-18.14
-20.83
-23.78
-26.82
-29.67
-31.92
-33.06
-32.73
-30.81
-27.53
-23.41
-19.04
-14.91
-11.22
-7.94
-4.90
-1.95
0.96
3.76
6.38
8.76
10.86
12.63
13.95
14.73
14.91
14.55
13.89
13.27
12.99
13.25
14.03
15.13
16.25
17.19
17.84
18.24
18.41
18.35
18.01
17.35
16.41
15.34
14.30
13.35
12.48
11.54
10.42
9.08
7.57
6.05
4.68
3.58
2.78
2.25
1.87
1.43
0.72
-0.43
-2.03
-3.92
-5.84
-7.57
-9.05
-10.46
-12.14
-14.40
-17.45
-21.23
-25.37
-29.29
-32.33
-33.92
-33.77
-31.89
-28.55
-24.17
-19.23
-14.15
-9.26
-4.80
-0.84
2.65
5.86
9.02
12.28
15.60
18.75
21.39
23.24
24.24
24.48
24.19
23.58
22.82
21.97
21.14
20.42
19.92
19.72
19.78
19.98
20.15
20.10
19.75
19.15
18.46
17.86
17.48
17.31
17.17
16.83
16.07
14.85
13.31
11.74
10.38
9.32
8.44
7.47
6.12
4.26
1.96
-0.48
-2.80
-4.80
-6.54
-8.23
-10.16
-12.52
-15.31
-18.35
-21.32
-23.91
-25.79
-26.69
-26.43
-24.91
-22.19
-18.52
-14.27
-9.85
-5.60
-1.70
1.83
5.04
8.02
10.81
13.44
15.88
18.06
19.89
21.24
22.04
22.30
22.21
22.00
21.94
22.14
22.56
23.02
23.30
23.26
22.85
22.13
21.11
19.90
18.58
17.31
16.26
15.57
15.20
14.94
14.50
13.57
12.07
10.07
7.85
5.70
3.88
2.47
1.41
0.49
-0.58
-2.05
-4.05
-6.50
-9.12
-11.58
-13.63
-15.24
-16.62
-18.14
-20.11
-22.63
-25.44
-28.06
-29.89
-30.46
-29.51
-27.12
-23.57
-19.30
-14.75
-10.24
-5.97
-2.04
1.57
4.88
7.96
10.87
13.71
16.50
19.26
21.86
24.17
26.02
27.30
28.03
28.35
28.43
28.50
28.75
29.24
29.90
30.52
30.73
30.23
28.83
26.62
23.83
20.82
17.84
14.96
12.09
9.12
6.04
3.00
0.17
-2.29
-4.33
-6.02
-7.48
-8.75
-9.85
-10.75
-11.45
-12.02
-12.62
-13.42
-14.54
-15.93
-17.45
-18.94
-20.35
-21.78
-23.50
-25.76
-28.63
-31.90
-35.01
-37.22
-37.91
-36.76
-33.90
-29.82
-25.19
-20.56
-16.30
-12.49
-9.07
-5.91
-2.95
-0.17
2.43
4.78
6.81
8.38
9.34
9.62
9.26
8.47
7.58
6.90
6.61
6.69
6.97
7.26
7.44
7.50
7.58
7.78
8.16
8.66
9.14
9.47
9.61
9.62
9.57
9.54
9.48
9.29
8.84
8.06
6.97
5.63
4.13
2.55
0.91
-0.74
-2.32
-3.67
-4.63
-5.15
-5.33
-5.41
-5.71
-6.48
-7.81
-9.67
-11.90
-14.34
-16.86
-19.27
-21.30
-22.55
-22.62
-21.27
-18.51
-14.62
-10.04
-5.19
-0.38
4.17
8.34
12.02
15.18
17.85
20.19
22.36
24.47
26.47
28.10
29.03
28.96
27.74
25.43
22.33
18.86
15.45
12.45
10.01
8.04
6.27
4.34
1.91
-1.20
-4.90
-8.95
-12.92
-16.40
-19.08
-20.88
-21.90
-22.42
-22.73
-23.05
-23.48
-23.98
-24.48
-24.96
-25.47
-26.12
-26.96
-28.01
-29.15
-30.28
-31.33
-32.34
-33.41
-34.69
-36.22
-37.96
-39.77
-41.43
-42.70
-43.34
-43.11
-41.81
-39.30
-35.52
-30.61
-24.80
-18.53
-12.28
-6.49
-1.46
2.72
6.17
9.08
11.67
14.08
16.36
18.50
20.46
22.22
23.70
24.83
25.52
25.75
25.62
25.35
25.17
25.26
25.65
26.31
27.16
28.21
29.48
31.05
32.85
34.71
36.43
37.80
38.75
39.31
39.56
39.57
39.37
39.01
38.52
37.93
37.28
36.51
35.50
34.13
32.29
29.93
27.09
23.77
19.92
15.44
10.28
4.58
-1.34
-7.09
-12.41
-17.31
-22.00
-26.73
-31.47
-35.71
-38.67
-39.53
-37.91
-34.12
-28.93
-23.32
-18.02
-13.26
-8.90
-4.66
-0.38
3.85
7.75
11.09
13.74
15.78
17.38
18.69
19.82
20.80
21.62
22.30
22.83
23.18
23.29
23.13
22.69
22.02
21.16
20.14
18.99
17.81
16.80
16.22
16.31
17.10
18.36
19.63
20.42
20.44
19.68
18.43
17.08
15.99
15.32
15.01
14.78
14.26
13.13
11.26
8.87
6.52
5.00
5.03
6.91
10.08
13.09
13.69
9.35
-1.84
-20.48
-45.24
-72.95
-99.28
-119.97
-132.00
-134.40
-128.25
-115.95
-100.16
-82.93
-65.42
-48.20
-31.80
-17.16
-5.59
1.66
4.06
2.12
-2.73
-8.72
-14.40
-19.11
-22.85
-25.83
-28.06
-29.06
-28.12
-24.76
-19.17
-12.26
-5.41
0.08
3.49
4.85
4.74
3.93
3.03
2.28
1.68
1.17
0.77
0.63
0.89
1.55
2.39
3.08
3.33
3.05
2.40
1.71
1.23
1.02
0.95
0.74
0.15
-0.97
-2.61
-4.70
-7.08
-9.57
-11.94
-13.97
-15.50
-16.56
-17.41
-18.43
-19.89
-21.81
-23.80
-25.27
-25.61
-24.50
-21.98
-18.42
-14.28
-9.94
-5.60
-1.41
2.51
6.02
8.97
11.37
13.38
15.24
17.20
19.30
21.39
23.26
24.76
25.86
26.70
27.40
28.03
28.53
28.84
28.93
28.90
28.92
29.11
29.47
29.87
30.11
30.10
29.91
29.74
29.87
30.47
31.47
32.60
33.51
33.90
33.78
33.36
33.02
33.03
33.43
33.98
34.29
33.99
32.90
31.08
28.73
26.12
23.47
20.90
18.39
15.78
12.83
9.34
5.28
0.95
-3.06
-6.05
-7.45
-7.05
-4.98
-1.65
2.53
7.25
12.33
17.71
23.35
29.19
35.09
40.57
44.72
46.07
42.96
34.11
19.33
-0.14
-21.74
-42.32
-59.08
-70.31
-75.78
-76.37
-73.59
-68.97
-63.72
-58.64
-54.27
-50.94
-48.78
-47.73
-47.40
-47.23
-46.53
-44.75
-41.77
-37.94
-33.94
-30.58
-28.42
-27.51
-27.52
-27.79
-27.72
-27.03
-25.83
-24.48
-23.42
-22.93
-22.98
-23.37
-23.82
-24.13
-24.28
-24.39
-24.63
-25.13
-25.90
-26.88
-28.00
-29.30
-30.88
-32.90
-35.35
-38.01
-40.35
-41.69
-41.42
-39.25
-35.28
-30.02
-24.16
-18.28
-12.70
-7.46
-2.47
2.36
6.98
11.22
14.89
17.97
20.58
22.89
25.02
26.88
28.22
28.80
28.64
28.02
27.52
27.69
28.80
30.78
33.16
35.31
36.76
37.25
36.91
36.05
35.00
33.89
32.72
31.37
29.76
27.93
25.96
23.96
21.91
19.69
17.17
14.37
11.41
8.57
6.09
4.10
2.52
1.20
-0.07
-1.39
-2.79
-4.21
-5.60
-6.91
-8.18
-9.47
-10.87
-12.48
-14.40
-16.68
-19.24
-21.84
-24.05
-25.39
-25.43
-23.94
-20.99
-16.91
-12.14
-7.15
-2.24
2.42
6.82
10.98
14.93
18.61
21.91
24.65
26.63
27.70
27.84
27.18
25.98
24.61
23.48
22.89
22.93
23.49
24.25
24.82
24.86
24.27
23.09
21.57
19.94
18.43
17.13
16.06
15.17
14.39
13.58
12.61
11.32
9.65
7.69
5.65
3.82
2.38
1.33
0.45
-0.52
-1.80
-3.42
-5.21
-6.95
-8.46
-9.68
-10.69
-11.64
-12.70
-14.03
-15.75
-17.93
-20.55
-23.44
-26.24
-28.51
-29.87
-30.11
-29.30
-27.80
-26.03
-24.40
-23.07
-21.94
-20.77
-19.20
-17.09
-14.49
-11.62
-8.79
-6.20
-3.89
-1.71
0.49
2.82
5.24
7.61
9.83
11.92
14.01
16.22
18.52
20.66
22.22
22.78
22.20
20.68
18.72
16.93
15.68
15.09
14.88
14.63
13.94
12.63
10.79
8.68
6.66
4.98
3.70
2.65
1.55
0.11
-1.85
-4.32
-7.15
-10.06
-12.82
-15.26
-17.36
-19.23
-21.07
-23.13
-25.58
-28.46
-31.50
-34.25
-36.12
-36.61
-35.47
-32.83
-29.11
-24.82
-20.34
-15.83
-11.32
-6.74
-2.10
2.54
7.06
11.38
15.48
19.32
22.81
25.74
27.89
29.08
29.38
29.10
28.69
28.57
28.93
29.70
30.57
31.20
31.34
30.90
29.98
28.72
27.17
25.31
23.06
20.47
17.69
15.01
12.67
10.79
9.29
7.98
6.67
5.29
3.90
2.67
1.69
0.92
0.18
-0.81
-2.24
-4.16
-6.44
-8.86
-11.17
-13.29
-15.24
-17.17
-19.29
-21.76
-24.58
-27.55
-30.23
-32.03
-32.41
-31.02
-27.90
-23.45
-18.28
-12.94
-7.73
-2.70
2.27
7.24
12.14
16.76
20.85
24.31
27.15
29.48
31.44
33.07
34.35
35.26
35.90
36.39
36.83
37.10
36.83
35.47
32.52
27.80
21.60
14.65
7.91
2.30
-1.63
-3.73
-4.23
-3.60
-2.30
-0.71
0.91
2.46
3.88
5.19
6.35
7.30
7.98
8.32
8.39
8.23
7.91
7.43
6.68
5.46
3.62
1.09
-2.04
-5.51
-9.07
-12.50
-15.68
-18.59
-21.13
-23.04
-23.89
-23.17
-20.46
-15.65
-8.97
-0.95
7.70
16.26
24.17
31.01
36.59
40.91
44.11
46.41
48.01
49.12
49.82
50.20
50.23
49.79
48.48
45.68
40.53
32.23
20.32
4.92
-13.15
-32.47
-51.26
-67.73
-80.35
-88.11
-90.62
-88.13
-81.44
-71.70
-60.25
-48.46
-37.47
-28.18
-21.11
-16.44
-14.00
-13.41
-14.17
-15.75
-17.70
-19.71
-21.67
-23.63
-25.72
-28.02
-30.48
-32.89
-34.95
-36.52
-37.58
-38.34
-39.04
-39.91
-41.03
-42.41
-43.90
-45.25
-46.05
-45.77
-43.94
-40.36
-35.19
-29.00
-22.44
-16.00
-9.84
-3.86
2.12
8.04
13.67
18.65
22.72
25.83
28.13
29.81
30.98
31.71
32.00
31.98
31.82
31.71
31.71
31.81
31.85
31.77
31.52
31.16
30.78
30.42
30.08
29.71
29.28
28.75
28.05
27.14
25.90
24.29
22.33
20.16
18.00
16.13
14.74
13.87
13.33
12.80
11.98
10.72
9.07
7.27
5.58
4.14
2.99
1.96
0.85
-0.55
-2.42
-4.90
-8.00
-11.68
-15.70
-19.67
-23.06
-25.31
-26.02
-25.05
-22.56
-18.91
-14.61
-10.15
-5.95
-2.25
0.87
3.50
5.83
8.06
10.34
12.74
15.16
17.45
19.39
20.86
21.83
22.33
22.47
22.35
22.10
21.86
21.85
22.17
22.82
23.55
23.98
23.73
22.60
20.72
18.43
16.21
14.38
13.03
12.00
11.06
9.96
8.55
6.74
4.53
1.99
-0.72
-3.40
-5.79
-7.76
-9.33
-10.71
-12.14
-13.84
-15.85
-18.03
-20.20
-22.13
-23.75
-25.04
-26.08
-26.96
-27.83
-28.81
-30.00
-31.44
-33.02
-34.48
-35.44
-35.49
-34.31
-31.82
-28.17
-23.70
-18.85
-13.99
-9.35
-5.01
-0.89
3.10
7.02
10.83
14.40
17.56
20.15
22.12
23.53
24.49
25.13
25.60
25.92
26.11
26.18
26.20
26.27
26.48
26.77
27.00
26.99
26.57
25.72
24.55
23.24
21.91
20.59
19.16
17.48
15.54
13.47
11.54
9.96
8.79
7.86
6.91
5.67
3.98
1.90
-0.37
-2.63
-4.69
-6.48
-8.01
-9.30
-10.38
-11.27
-12.02
-12.75
-13.64
-14.86
-16.53
-18.61
-20.89
-23.01
-24.61
-25.37
-25.14
-23.89
-21.69
-18.69
-15.08
-11.10
-7.04
-3.20
0.19
3.03
5.36
7.35
9.20
11.00
12.74
14.26
15.40
16.06
16.27
16.20
16.04
15.95
15.96
16.01
16.01
15.89
15.65
15.30
14.86
14.26
13.41
12.23
10.71
8.93
7.05
5.22
3.57
2.10
0.79
-0.48
-1.78
-3.12
-4.44
-5.65
-6.68
-7.54
-8.33
-9.19
-10.27
-11.57
-13.04
-14.54
-16.01
-17.44
-18.87
-20.38
-21.93
-23.48
-24.96
-26.33
-27.61
-28.80
-29.77
-30.26
-29.97
-28.62
-26.14
-22.74
-18.83
-14.88
-11.21
-7.92
-4.91
-2.04
0.77
3.51
6.01
8.17
9.94
11.38
12.55
13.56
14.44
15.17
15.74
16.13
16.37
16.51
16.62
16.74
16.89
17.05
17.10
16.89
16.30
15.33
14.10
12.83
11.68
10.74
9.98
9.25
8.43
7.46
6.37
5.18
3.92
2.57
1.11
-0.42
-1.92
-3.28
-4.45
-5.46
-6.46
-7.61
-9.02
-10.64
-12.33
-13.94
-15.42
-16.85
-18.44
-20.39
-22.74
-25.33
-27.77
-29.56
-30.24
-29.61
-27.78
-25.10
-22.04
-18.91
-15.80
-12.60
-9.16
-5.44
-1.66
1.83
4.71
6.80
8.22
9.20
9.98
10.70
11.35
11.88
12.25
12.55
12.90
13.40
14.05
14.69
15.16
15.27
14.98
14.35
13.54
12.68
11.88
11.12
10.38
9.59
8.73
7.78
6.76
5.63
4.37
2.97
1.47
-0.02
-1.34
-2.39
-3.20
-3.88
-4.68
-5.73
-7.10
-8.64
-10.15
-11.35
-12.15
-12.60
-12.88
-13.28
-14.04
-15.28
-17.06
-19.28
-21.81
-24.43
-26.87
-28.82
-29.93
-29.96
-28.75
-26.37
-23.11
-19.38
-15.62
-12.18
-9.24
-6.76
-4.60
-2.52
-0.37
1.90
4.18
6.31
8.12
9.52
10.52
11.28
11.96
12.64
13.31
13.90
14.35
14.68
14.96
15.26
15.56
15.74
15.62
15.08
14.20
13.17
12.24
11.59
11.23
11.01
10.77
10.36
9.79
9.17
8.63
8.27
8.10
8.06
8.00
7.83
7.47
6.93
6.23
5.34
4.22
2.80
1.12
-0.70
-2.45
-3.91
-5.12
-6.30
-7.84
-10.06
-13.02
-16.38
-19.54
-21.81
-22.69
-22.06
-20.16
-17.47
-14.45
-11.38
-8.34
-5.30
-2.25
0.73
3.44
5.69
7.40
8.67
9.66
10.50
11.19
11.66
11.81
11.63
11.25
10.81
10.49
10.37
10.47
10.76
11.15
11.52
11.69
11.47
10.75
9.57
8.09
6.57
5.20
4.06
3.09
2.16
1.17
0.10
-0.99
-2.06
-3.04
-3.90
-4.64
-5.24
-5.76
-6.29
-7.02
-8.09
-9.51
-11.17
-12.84
-14.33
-15.59
-16.71
-17.89
-19.26
-20.89
-22.75
-24.74
-26.68
-28.36
-29.42
-29.43
-28.06
-25.17
-20.99
-16.03
-10.92
-6.24
-2.28
0.95
3.60
5.89
7.96
9.89
11.72
13.44
14.98
16.25
17.17
17.71
17.90
17.88
17.82
17.81
17.90
18.04
18.16
18.21
18.12
17.90
17.51
16.94
16.16
15.24
14.26
13.40
12.79
12.48
12.40
12.39
12.24
11.81
11.09
10.18
9.22
8.36
7.63
7.05
6.56
6.10
5.60
4.99
4.23
3.35
2.51
1.94
1.82
2.17
2.75
3.23
3.33
3.01
2.55
2.47
3.29
5.41
8.84
13.32
18.36
23.51
28.40
32.91
37.08
41.14
45.39
50.10
55.30
60.59
65.02
67.36
66.43
61.67
53.46
43.13
32.55
23.45
17.00
13.53
12.71
13.89
16.36
19.37
22.17
23.91
23.78
21.30
16.53
10.11
3.07
-3.57
-9.09
-13.30
-16.41
-18.77
-20.66
-22.14
-23.14
-23.66
-23.88
-24.15
-24.89
-26.37
-28.55
-31.16
-33.80
-36.18
-38.19
-39.97
-41.81
-43.99
-46.72
-50.10
-54.03
-58.23
-62.22
-65.37
-67.00
-66.61
-64.08
-59.69
-54.09
-48.09
-42.38
-37.34
-32.97
-28.98
-24.99
-20.75
-16.18
-11.46
-6.90
-2.80
0.64
3.36
5.34
6.59
7.10
6.92
6.19
5.17
4.15
3.29
2.58
1.80
0.72
-0.79
-2.63
-4.57
-6.27
-7.56
-8.46
-9.08
-9.65
-10.27
-10.98
-11.69
-12.32
-12.82
-13.14
-13.25
-13.07
-12.57
-11.79
-10.89
-10.15
-9.85
-10.10
-10.84
-11.81
-12.71
-13.33
-13.70
-14.03
-14.65
-15.82
-17.73
-20.38
-23.63
-27.13
-30.40
-32.84
-33.87
-33.11
-30.51
-26.40
-21.34
-15.95
-10.67
-5.75
-1.25
2.85
6.55
9.83
12.62
14.91
16.66
17.87
18.47
18.47
17.95
17.12
16.26
15.65
15.42
15.56
15.98
16.57
17.32
18.25
19.38
20.69
22.03
23.25
24.19
24.78
25.10
25.28
25.47
25.76
26.12
26.46
26.68
26.67
26.41
25.95
25.36
24.68
23.85
22.81
21.47
19.86
18.06
16.17
14.21
12.16
9.91
7.33
4.38
1.05
-2.64
-6.66
-11.01
-15.65
-20.40
-24.87
-28.50
-30.69
-31.00
-29.29
-25.80
-21.02
-15.58
-10.04
-4.78
-0.03
4.19
7.89
11.15
14.03
16.59
18.78
20.51
21.62
21.97
21.61
20.70
19.53
18.38
17.40
16.54
15.61
14.38
12.73
10.66
8.26
5.62
2.80
-0.13
-3.12
-6.01
-8.57
-10.58
-11.84
-12.35
-12.28
-12.02
-12.01
-12.63
-14.07
-16.20
-18.68
-21.05
-22.89
-23.95
-24.23
-23.91
-23.28
-22.61
-22.08
-21.83
-21.89
-22.23
-22.76
-23.37
-24.00
-24.60
-25.24
-26.00
-26.93
-27.91
-28.63
-28.67
-27.63
-25.30
-21.73
-17.17
-11.93
-6.30
-0.50
5.34
11.00
16.24
20.81
24.62
27.80
30.62
33.34
36.08
38.66
40.77
42.08
42.45
41.93
40.79
39.36
38.00
37.00
36.49
36.34
36.17
35.39
33.41
29.93
25.18
19.85
14.83
10.89
8.36
7.13
6.88
7.37
8.61
10.94
14.73
20.14
26.89
34.23
41.14
46.58
49.78
50.45
48.90
45.97
42.91
41.06
41.36
43.91
47.58
49.98
48.01
38.80
20.92
-4.81
-35.20
-65.45
-90.48
-106.44
-111.65
-106.77
-94.20
-77.03
-58.15
-39.74
-23.32
-10.05
-0.93
3.33
2.61
-2.22
-9.38
-16.68
-22.29
-25.41
-26.45
-26.63
-27.27
-29.02
-31.63
-34.18
-35.61
-35.23
-33.04
-29.60
-25.77
-22.37
-19.81
-18.06
-16.69
-15.19
-13.18
-10.66
-8.02
-5.75
-4.25
-3.61
-3.63
-3.96
-4.30
-4.49
-4.56
-4.58
-4.64
-4.82
-5.15
-5.77
-6.75
-8.11
-9.73
-11.41
-12.94
-14.25
-15.44
-16.78
-18.56
-21.03
-24.25
-28.14
-32.33
-36.32
-39.44
-41.11
-40.95
-38.88
-35.19
-30.37
-25.02
-19.60
-14.45
-9.78
-5.69
-2.26
0.56
2.94
5.10
7.19
9.26
11.15
12.62
13.49
13.74
13.59
13.34
13.21
13.28
13.45
13.52
13.36
13.01
12.57
12.17
11.84
11.47
10.97
10.33
9.67
9.22
9.21
9.63
10.33
10.98
11.27
11.01
10.17
8.80
7.09
5.22
3.45
1.97
0.91
0.27
-0.15
-0.64
-1.45
-2.71
-4.40
-6.41
-8.66
-11.14
-13.94
-17.16
-20.88
-25.07
-29.55
-34.01
-37.96
-40.85
-42.17
-41.62
-39.20
-35.30
-30.54
-25.57
-20.85
-16.56
-12.62
-8.86
-5.12
-1.38
2.30
5.80
9.01
11.84
14.21
16.09
17.48
18.43
19.06
19.48
19.79
20.05
20.21
20.27
20.21
20.07
19.96
20.03
20.40
21.10
22.03
22.91
23.47
23.48
22.95
22.11
21.31
20.82
20.71
20.82
20.90
20.76
20.39
19.94
19.54
19.24
18.94
18.47
17.69
16.57
15.22
13.76
12.32
11.00
9.82
8.75
7.65
6.35
4.64
2.35
-0.54
-3.94
-7.62
-11.26
-14.49
-16.95
-18.24
-18.08
-16.33
-13.14
-8.98
-4.51
-0.39
2.98
5.50
7.42
9.08
10.74
12.48
14.20
15.78
17.13
18.30
19.38
20.45
21.50
22.44
23.11
23.34
23.00
22.05
20.61
18.88
17.20
15.76
14.66
13.80
13.06
12.33
11.65
11.12
10.78
10.55
10.19
9.44
8.17
6.46
4.57
2.78
1.24
-0.03
-1.16
-2.34
-3.71
-5.29
-7.04
-8.85
-10.63
-12.30
-13.82
-15.21
-16.53
-17.95
-19.66
-21.83
-24.45
-27.31
-29.92
-31.68
-32.06
-30.75
-27.81
-23.58
-18.59
-13.33
-8.17
-3.34
1.08
5.09
8.82
12.39
15.90
19.34
22.62
25.61
28.19
30.38
32.23
33.80
