1552075362.00
64.000000
-0.00
-0.00
-0.00
-0.00
-0.00
-0.00
-0.00
-0.00
-0.00
-0.00
0.00
0.01
0.01
-0.00
-0.03
-0.05
-0.05
0.00
0.13
0.36
0.66
1.01
1.37
1.72
2.06
2.40
2.79
3.24
3.80
4.42
5.06
5.66
6.20
6.68
7.15
7.68
8.31
9.14
10.09
11.04
11.88
12.56
13.14
13.76
14.65
15.96
17.91
20.32
22.90
25.38
27.58
29.57
31.68
34.32
37.81
42.54
48.15
54.10
59.83
64.97
69.58
74.14
79.34
85.71
93.76
103.00
112.62
121.73
129.77
136.75
143.30
150.75
157.77
166.64
177.95
191.79
206.97
220.57
228.25
225.36
208.53
176.87
132.76
80.05
23.07
-34.94
-92.44
-149.16
-205.23
-260.37
-313.74
-363.87
-409.83
-450.91
-486.50
-515.74
-537.23
-549.22
-549.96
-538.37
-514.21
-478.67
-433.88
-382.45
-327.02
-269.84
-212.63
-156.66
-102.95
-52.37
-5.90
35.58
71.43
101.35
125.50
144.38
158.69
169.15
176.37
180.75
182.57
182.07
179.51
175.23
169.65
163.18
156.15
148.81
141.30
133.69
126.02
118.33
110.69
103.16
95.80
88.68
81.83
75.25
68.95
62.95
57.25
51.86
46.78
42.03
37.59
33.45
29.61
26.07
22.81
19.83
17.11
14.67
12.48
10.54
8.83
7.35
6.07
4.97
4.05
3.27
2.62
2.09
1.65
1.30
1.01
0.79
0.61
0.47
0.37
0.29
0.23
0.19
0.16
0.14
0.14
0.15
0.16
0.18
0.21
0.24
0.27
0.31
0.36
0.40
0.45
0.49
0.54
0.59
0.64
0.70
0.76
0.82
0.89
0.97
1.05
1.14
1.25
1.37
1.50
1.65
1.81
1.99
2.20
2.43
2.68
2.95
3.26
3.60
3.97
4.37
4.81
5.28
5.79
6.34
6.92
7.56
8.23
8.95
9.71
10.52
11.37
12.27
13.21
14.20
15.26
16.38
17.57
18.81
20.08
21.35
22.55
23.60
24.39
24.80
24.70
23.99
22.59
20.45
17.59
14.09
10.04
5.64
1.08
-3.41
-7.61
-11.33
-14.43
-16.81
-18.43
-19.30
-19.47
-19.04
-18.13
-16.85
-15.33
-13.67
-11.96
-10.26
-8.60
-6.95
-5.32
-3.67
-2.00
-0.28
1.50
3.29
5.11
6.93
8.89
10.90
12.97
15.17
17.47
19.87
22.30
24.72
27.21
29.92
32.78
35.84
39.18
42.80
46.60
50.39
54.03
57.51
61.09
64.65
68.35
72.35
76.60
80.89
84.77
87.87
90.06
91.69
92.71
93.40
93.96
94.13
93.13
89.59
81.84
67.84
50.58
31.35
11.40
-8.33
-27.45
-46.14
-64.99
-84.82
-106.46
-130.43
-157.40
-186.72
-216.19
-242.23
-260.71
-268.24
-263.53
-247.83
-224.50
-198.17
-172.61
-149.83
-130.18
-113.07
-97.89
-84.50
-73.16
-63.92
-56.69
-50.69
-44.79
-38.10
-30.18
-21.27
-11.95
-2.91
5.44
12.90
19.63
25.91
31.90
37.41
41.96
44.92
45.86
44.80
42.23
39.03
36.17
34.26
33.42
33.25
33.13
32.58
31.45
29.98
28.57
27.55
26.98
26.58
25.94
24.64
22.51
19.64
16.30
12.78
9.26
5.84
2.61
-0.18
-2.12
-2.77
-1.83
0.65
4.23
8.25
12.03
15.14
17.39
18.83
19.58
19.73
19.33
18.36
16.86
14.94
12.81
10.72
8.91
7.54
6.63
6.10
5.74
5.39
4.96
4.44
3.84
3.14
2.22
0.92
-0.88
-3.21
-5.97
-8.93
-11.80
-14.25
-15.92
-16.43
-15.51
-13.07
-9.24
-4.48
0.63
5.49
9.72
13.09
15.56
17.14
17.81
17.51
16.28
14.28
11.90
9.59
7.73
6.53
5.88
5.53
5.14
4.52
3.61
2.53
1.42
0.41
-0.50
-1.39
-2.38
-3.63
-5.26
-7.36
-9.88
-12.55
-14.83
-16.10
-15.76
-13.60
-9.84
-5.10
-0.16
4.31
7.99
10.84
13.02
14.64
15.66
15.93
15.32
13.88
11.89
9.77
7.96
6.72
6.07
5.82
5.67
5.38
4.86
4.14
3.38
2.68
2.05
1.36
0.41
-1.02
-3.05
-5.72
-8.87
-12.18
-15.18
-17.27
-17.92
-16.75
-13.77
-9.30
-3.99
1.42
6.29
10.18
12.97
14.72
15.58
15.72
15.25
14.28
12.92
11.32
9.70
8.25
7.09
6.26
5.65
5.08
4.37
3.45
2.40
1.37
0.58
0.09
-0.25
-0.78
-1.93
-4.03
-7.14
-10.98
-15.02
-18.57
-20.99
-21.87
-21.05
-18.67
-15.10
-10.78
-6.20
-1.72
2.34
5.81
8.56
10.50
11.58
11.81
11.29
10.20
8.76
7.20
5.68
4.34
3.24
2.41
1.86
1.53
1.37
1.27
1.07
0.65
-0.13
-1.32
-2.89
-4.73
-6.69
-8.68
-10.72
-12.88
-15.20
-17.52
-19.43
-20.35
-19.71
-17.20
-12.96
-7.56
-1.82
3.51
7.96
11.36
13.87
15.66
16.86
17.45
17.38
16.62
15.29
13.60
11.82
10.19
8.85
7.79
6.89
6.00
4.98
3.81
2.57
1.41
0.46
-0.28
-0.91
-1.68
-2.80
-4.44
-6.56
-9.05
-11.77
-14.65
-17.66
-20.65
-23.26
-24.89
-24.84
-22.66
-18.39
-12.59
-6.20
-0.17
4.88
8.82
11.81
14.14
15.95
17.19
17.70
17.43
16.41
14.89
13.20
11.67
10.54
9.95
9.92
10.34
11.03
11.72
12.14
12.08
11.43
10.20
8.44
6.29
3.87
1.35
-1.16
-3.62
-6.08
-8.76
-11.87
-15.55
-19.65
-23.70
-26.89
-28.37
-27.50
-24.09
-18.51
-11.57
-4.31
2.36
7.78
11.68
14.07
15.16
15.22
14.51
13.21
11.52
9.64
7.81
6.27
5.20
4.62
4.52
4.75
5.16
5.60
5.94
6.05
5.79
5.09
3.97
2.51
0.87
-0.77
-2.35
-3.89
-5.53
-7.45
-9.83
-12.75
-16.09
-19.45
-22.19
-23.55
-22.90
-19.98
-15.00
-8.61
-1.68
4.94
10.59
14.92
17.85
19.53
20.24
20.31
20.01
19.50
18.84
17.99
16.95
15.78
14.60
13.56
12.73
12.11
11.61
11.11
10.43
9.45
8.06
6.23
4.04
1.63
-0.81
-3.19
-5.44
-7.62
-9.82
-12.17
-14.81
-17.81
-21.09
-24.32
-26.87
-27.97
-26.93
-23.42
-17.65
-10.38
-2.65
4.49
10.26
14.33
16.70
17.68
17.62
16.85
15.60
14.02
12.24
10.45
8.90
7.84
7.38
7.45
7.77
7.98
7.77
7.03
5.84
4.44
3.04
1.75
0.53
-0.78
-2.32
-4.21
-6.46
-9.11
-12.17
-15.60
-19.20
-22.55
-24.98
-25.80
-24.48
-20.95
-15.59
-9.15
-2.53
3.52
8.54
12.36
15.00
16.52
16.98
16.37
14.76
12.28
9.27
6.15
3.44
1.53
0.57
0.42
0.69
0.92
0.82
0.34
-0.31
-0.87
-1.25
-1.60
-2.24
-3.55
-5.75
-8.86
-12.72
-16.99
-21.18
-24.62
-26.57
-26.34
-23.65
-18.70
-12.15
-4.92
2.13
8.43
13.69
17.77
20.57
21.92
21.72
20.05
17.25
13.84
10.39
7.31
4.80
2.84
1.34
0.21
-0.63
-1.18
-1.53
-1.76
-2.01
-2.39
-2.96
-3.76
-4.90
-6.58
-9.07
-12.51
-16.81
-21.48
-25.70
-28.49
-29.00
-26.84
-22.17
-15.64
-8.24
-0.93
5.59
10.99
15.25
18.48
20.73
21.91
21.87
20.55
18.17
15.18
12.20
9.75
8.10
7.13
6.50
5.84
4.91
3.74
2.53
1.49
0.70
-0.01
-0.96
-2.58
-5.20
-9.00
-13.96
-19.76
-25.82
-31.27
-35.10
-36.40
-34.62
-29.83
-22.68
-14.24
-5.61
2.36
9.20
14.78
19.12
22.22
24.01
24.43
23.50
21.42
18.54
15.38
12.45
10.16
8.71
8.01
7.79
7.65
7.23
6.37
5.08
3.49
1.76
-0.08
-2.15
-4.68
-7.91
-12.01
-16.98
-22.52
-28.07
-32.78
-35.67
-35.88
-32.97
-27.08
-18.93
-9.62
-0.30
8.11
15.11
20.54
24.49
27.04
28.21
28.01
26.50
23.90
20.66
17.32
14.42
12.29
11.03
10.44
10.18
9.88
9.28
8.31
7.03
5.52
3.78
1.68
-0.91
-4.10
-7.90
-12.25
-17.02
-22.14
-27.40
-32.41
-36.42
-38.49
-37.72
-33.62
-26.38
-16.88
-6.38
3.82
12.79
20.04
25.51
29.33
31.61
32.42
31.77
29.79
26.77
23.23
19.76
16.89
14.91
13.84
13.43
13.32
13.14
12.67
11.82
10.62
9.15
7.45
5.49
3.18
0.46
-2.72
-6.44
-10.77
-15.74
-21.26
-26.91
-31.92
-35.20
-35.66
-32.58
-25.96
-16.58
-5.78
5.00
14.56
22.27
28.01
31.95
34.36
35.39
35.13
33.64
31.09
27.81
24.20
20.75
17.87
15.79
14.54
13.93
13.62
13.24
12.50
11.26
9.55
7.45
5.07
2.42
-0.51
-3.79
-7.46
-11.55
-16.10
-21.12
-26.46
-31.73
-36.18
-38.81
-38.67
-35.20
-28.48
-19.29
-8.92
1.22
10.03
16.91
21.81
25.03
26.96
27.85
27.77
26.70
24.67
21.87
18.70
15.66
13.22
11.67
11.04
11.13
11.55
11.91
11.85
11.23
10.01
8.29
6.23
3.87
1.19
-1.92
-5.63
-10.05
-15.17
-20.77
-26.33
-31.07
-34.06
-34.47
-31.80
-26.13
-18.09
-8.73
0.83
9.60
16.92
22.39
25.85
27.25
26.69
24.44
20.94
16.80
12.67
9.15
6.63
5.21
4.67
4.56
4.40
3.82
2.67
1.05
-0.79
-2.67
-4.48
-6.32
-8.41
-11.01
-14.38
-18.60
-23.53
-28.67
-33.18
-36.02
-36.27
-33.45
-27.72
-19.84
-10.90
-1.91
6.33
13.40
19.09
23.24
25.68
26.29
25.09
22.38
18.71
14.77
11.23
8.56
6.96
6.32
6.30
6.47
6.47
6.11
5.39
4.42
3.31
2.03
0.44
-1.69
-4.55
-8.27
-12.83
-18.09
-23.66
-28.93
-33.03
-34.96
-33.88
-29.44
-21.99
-12.56
-2.55
6.75
14.48
20.36
24.51
27.15
28.36
28.08
26.22
22.96
18.80
14.52
10.89
8.42
7.19
6.84
6.79
6.48
5.65
4.32
2.78
1.34
0.12
-1.00
-2.36
-4.40
-7.50
-11.84
-17.31
-23.55
-29.83
-35.20
-38.61
-39.12
-36.19
-29.96
-21.21
-11.19
-1.26
7.50
14.53
19.75
23.34
25.57
26.55
26.32
24.90
22.42
19.22
15.79
12.66
10.19
8.56
7.63
7.14
6.73
6.13
5.22
4.01
2.57
0.95
-0.88
-3.01
-5.59
-8.77
-12.68
-17.38
-22.83
-28.68
-34.21
-38.34
-39.92
-38.10
-32.73
-24.44
-14.48
-4.27
5.08
12.96
19.23
23.98
27.25
28.98
29.08
27.61
24.88
21.44
17.90
14.79
12.44
10.96
10.21
9.94
9.86
9.67
9.17
8.27
6.96
5.28
3.25
0.81
-2.09
-5.55
-9.60
-14.27
-19.55
-25.35
-31.40
-37.12
-41.64
-43.91
-43.04
-38.66
-31.07
-21.24
-10.48
-0.05
9.09
16.47
21.96
25.62
27.59
28.01
27.13
25.30
22.96
20.55
18.45
16.87
15.86
15.34
15.13
15.02
14.79
14.24
13.24
11.75
9.76
7.35
4.54
1.38
-2.20
-6.26
-10.86
-16.09
-21.91
-28.13
-34.29
-39.60
-43.04
-43.59
-40.63
-34.18
-24.94
-14.11
-3.04
7.13
15.69
22.39
27.28
30.55
32.39
32.94
32.30
30.61
28.14
25.29
22.56
20.37
18.97
18.33
18.20
18.18
17.86
17.00
15.50
13.38
10.77
7.81
4.63
1.27
-2.27
-6.10
-10.36
-15.21
-20.71
-26.67
-32.62
-37.72
-40.93
-41.23
-38.04
-31.43
-22.21
-11.69
-1.31
7.77
14.95
20.11
23.48
25.33
25.84
25.14
23.38
20.85
18.01
15.40
13.45
12.39
12.17
12.51
13.05
13.43
13.41
12.90
11.93
10.58
8.94
7.05
4.82
2.10
-1.31
-5.54
-10.62
-16.42
-22.60
-28.58
-33.56
-36.64
-36.98
-34.14
-28.20
-19.86
-10.23
-0.51
8.35
15.77
21.52
25.58
27.95
28.64
27.69
25.34
22.02
18.33
14.90
12.16
10.32
9.24
8.58
8.00
7.27
6.33
5.29
4.26
3.20
1.97
0.28
-2.06
-5.14
-8.92
-13.33
-18.26
-23.51
-28.66
-32.93
-35.38
-35.15
-31.80
-25.60
-17.39
-8.39
0.25
7.72
13.65
17.98
20.77
22.09
21.92
20.34
17.55
14.00
10.27
6.95
4.46
2.94
2.22
1.96
1.84
1.63
1.27
0.82
0.32
-0.30
-1.22
-2.69
-5.01
-8.35
-12.74
-17.97
-23.54
-28.75
-32.68
-34.45
-33.43
-29.43
-22.80
-14.34
-5.14
3.76
11.53
17.68
22.00
24.47
25.14
24.15
21.71
18.22
14.22
10.31
7.02
4.62
3.12
2.28
1.75
1.28
0.76
0.22
-0.31
-0.83
-1.51
-2.61
-4.45
-7.26
-11.15
-16.07
-21.71
-27.53
-32.64
-36.04
-36.77
-34.32
-28.80
-20.95
-11.96
-3.01
5.00
11.67
16.93
20.79
23.21
24.02
23.09
20.56
16.90
12.88
9.30
6.72
5.28
4.72
4.55
4.26
3.61
2.61
1.48
0.43
-0.49
-1.42
-2.69
-4.64
-7.57
-11.59
-16.62
-22.33
-28.06
-32.86
-35.70
-35.72
-32.55
-26.47
-18.36
-9.38
-0.65
7.10
13.50
18.47
22.02
24.15
24.79
23.95
21.77
18.61
14.97
11.42
8.45
6.35
5.15
4.60
4.35
4.01
3.36
2.36
1.11
-0.22
-1.62
-3.18
-5.18
-7.96
-11.75
-16.64
-22.40
-28.44
-33.90
-37.71
-38.89
-36.84
-31.58
-23.74
-14.37
-4.65
4.46
12.35
18.73
23.56
26.78
28.37
28.31
26.71
23.91
20.44
16.95
14.01
11.98
10.84
10.35
10.09
9.71
9.02
8.02
6.83
5.54
4.16
2.54
0.53
-2.07
-5.36
-9.43
-14.33
-19.95
-26.02
-31.94
-36.78
-39.51
-39.22
-35.51
-28.61
-19.43
-9.21
0.74
9.47
16.46
21.65
25.19
27.26
27.98
27.40
25.62
22.91
19.71
16.53
13.85
11.91
10.73
10.12
9.76
9.37
8.76
7.82
6.54
4.96
3.15
1.18
-0.94
-3.23
-5.81
-8.84
-12.55
-17.09
-22.50
-28.48
-34.35
-39.01
-41.24
-40.07
-35.13
-26.95
-16.71
-5.91
4.05
12.30
18.49
22.72
25.26
26.38
26.33
25.27
23.39
20.92
18.16
15.42
13.05
11.31
10.35
10.08
10.23
10.42
10.29
9.64
8.40
6.64
4.48
2.00
-0.77
-3.79
-7.04
-10.50
-14.19
-18.20
-22.64
-27.55
-32.69
-37.45
-40.87
-41.87
-39.64
-33.92
-25.19
-14.57
-3.44
6.93
15.64
22.28
26.83
29.50
30.59
30.35
29.04
26.90
24.18
21.12
17.99
15.09
12.70
11.01
10.09
9.85
9.99
10.13
9.84
8.87
7.13
4.75
1.99
-0.90
-3.75
-6.55
-9.34
-12.29
-15.58
-19.44
-24.04
-29.32
-34.83
-39.65
-42.53
-42.27
-38.18
-30.42
-19.96
-8.39
2.75
12.28
19.63
24.80
28.08
29.81
30.22
29.46
27.65
25.05
22.01
18.90
16.04
13.59
11.58
9.96
8.70
7.82
7.32
7.12
6.97
6.59
5.68
4.09
1.85
-0.88
-3.88
-6.95
-10.01
-13.11
-16.40
-20.12
-24.46
-29.46
-34.76
-39.52
-42.57
-42.72
-39.22
-32.10
-22.21
-10.98
0.03
9.61
17.09
22.38
25.73
27.45
27.83
27.02
25.22
22.71
19.83
17.00
14.54
12.62
11.23
10.27
9.59
9.09
8.73
8.49
8.28
7.90
7.07
5.53
3.14
0.01
-3.53
-7.07
-10.29
-13.07
-15.58
-18.23
-21.43
-25.42
-30.05
-34.68
-38.33
-39.86
-38.35
-33.44
-25.50
-15.56
-4.99
4.89
13.18
19.46
23.78
26.39
27.52
27.28
25.77
23.19
19.89
16.33
12.95
10.01
7.59
5.67
4.20
3.18
2.64
2.51
2.58
2.48
1.82
0.37
-1.84
-4.55
-7.36
-9.94
-12.19
-14.24
-16.41
-19.08
-22.51
-26.72
-31.36
-35.72
-38.83
-39.63
-37.36
-31.77
-23.30
-13.00
-2.24
7.70
15.92
22.06
26.18
28.58
29.58
29.41
28.27
26.31
23.79
21.01
18.28
15.86
13.84
12.18
10.73
9.36
7.99
6.64
5.34
4.08
2.78
1.31
-0.47
-2.59
-4.99
-7.53
-10.14
-12.85
-15.87
-19.42
-23.60
-28.07
-32.09
-34.60
-34.56
-31.37
-25.11
-16.61
-7.13
1.98
9.73
15.67
19.80
22.37
23.63
23.66
22.50
20.20
17.06
13.56
10.33
7.83
6.25
5.43
5.05
4.72
4.26
3.66
3.04
2.49
2.00
1.43
0.58
-0.73
-2.59
-4.99
-7.94
-11.44
-15.51
-20.05
-24.74
-28.87
-31.47
-31.54
-28.49
-22.42
-14.17
-5.05
3.62
10.92
16.43
20.21
22.40
23.09
22.27
19.94
16.32
11.92
7.42
3.47
0.51
-1.41
-2.47
-2.99
-3.26
-3.47
-3.70
-3.96
-4.28
-4.71
-5.35
-6.35
-7.88
-10.14
-13.25
-17.21
-21.79
-26.41
-30.25
-32.41
-32.16
-29.22
-23.84
-16.67
-8.59
-0.43
7.20
13.82
19.04
22.46
23.77
22.86
19.99
15.80
11.12
6.72
3.14
0.56
-1.13
-2.15
-2.71
-2.99
-3.12
-3.21
-3.37
-3.72
-4.30
-5.17
-6.40
-8.13
-10.56
-13.87
-18.05
-22.76
-27.27
-30.57
-31.66
-29.90
-25.19
-18.06
-9.51
-0.69
7.39
14.01
18.83
21.81
23.06
22.78
21.16
18.47
15.01
11.24
7.65
4.69
2.66
1.55
1.09
0.86
0.53
-0.03
-0.68
-1.17
-1.36
-1.35
-1.57
-2.62
-5.07
-9.23
-14.96
-21.60
-28.07
-33.08
-35.46
-34.49
-30.17
-23.20
-14.71
-5.91
2.26
9.35
15.20
19.81
23.09
24.80
24.76
23.01
19.93
16.21
12.61
9.70
7.72
6.52
5.75
5.01
4.08
2.93
1.74
0.73
-0.06
-0.75
-1.68
-3.32
-6.06
-10.10
-15.36
-21.40
-27.45
-32.48
-35.43
-35.44
-32.13
-25.75
-17.14
-7.51
1.96
10.37
17.27
22.60
26.41
28.82
29.87
29.54
27.93
25.27
21.97
18.56
15.58
13.42
12.20
11.73
11.61
11.37
10.65
9.34
7.55
5.50
3.34
1.09
-1.42
-4.38
-7.95
-12.22
-17.19
-22.73
-28.46
-33.72
-37.57
-39.02
-37.35
-32.43
-24.76
-15.36
-5.36
4.24
12.80
19.96
25.59
29.60
31.97
32.77
32.22
30.70
28.64
26.43
24.36
22.58
21.14
20.06
19.29
18.77
18.33
17.79
16.85
15.27
12.93
9.90
6.40
2.74
-0.82
-4.17
-7.37
-10.68
-14.45
-19.01
-24.49
-30.67
-36.78
-41.69
-44.03
-42.79
-37.61
-29.03
-18.34
-7.09
3.37
12.25
19.29
24.65
28.55
31.13
32.46
32.58
31.66
30.01
28.02
26.07
24.40
23.04
21.94
20.98
20.09
19.33
18.80
18.56
18.55
18.45
17.85
16.35
13.74
10.16
5.96
1.64
-2.42
-6.05
-9.32
-12.45
-15.69
-19.28
-23.35
-27.99
-33.12
-38.38
-43.12
-46.35
-47.04
-44.43
-38.34
-29.35
-18.56
-7.34
3.18
12.21
19.41
24.74
28.21
29.95
30.13
29.07
27.25
25.19
23.34
21.96
21.13
20.73
20.59
20.45
20.21
19.77
19.14
18.38
17.52
16.52
15.16
13.21
10.44
6.81
2.55
-1.89
-6.02
-9.51
-12.31
-14.79
-17.48
-20.96
-25.52
-30.97
-36.56
-41.17
-43.60
-42.93
-38.89
-31.87
-22.85
-13.02
-3.44
5.18
12.49
18.43
22.99
26.11
27.74
27.91
26.82
24.88
22.56
20.35
18.53
17.18
16.24
15.57
15.15
14.98
15.08
15.32
15.41
14.94
13.55
11.12
7.86
4.23
0.70
-2.42
-5.12
-7.63
-10.29
-13.42
-17.22
-21.72
-26.74
-31.87
-36.35
-39.24
-39.63
-36.90
-31.05
-22.69
-12.92
-3.01
5.99
13.42
19.00
22.77
24.90
25.54
24.88
23.12
20.61
17.76
15.03
12.80
11.29
10.48
10.23
10.31
10.53
10.77
10.93
10.89
10.50
9.61
8.13
6.09
3.66
1.04
-1.59
-4.22
-7.01
-10.21
-14.10
-18.72
-23.81
-28.69
-32.43
-34.09
-33.03
-29.15
-22.92
-15.24
-7.11
0.56
7.23
12.63
16.69
19.38
20.69
20.59
19.17
16.69
13.60
10.41
7.62
5.57
4.40
4.07
4.38
5.02
5.73
6.20
6.22
5.69
4.57
2.95
0.96
-1.29
-3.77
-6.50
-9.61
-13.22
-17.40
-22.06
-26.88
-31.22
-34.23
-35.05
-33.09
-28.27
-21.17
-12.83
-4.47
2.92
8.82
13.14
16.09
17.87
18.56
18.13
16.59
14.13
11.16
8.23
5.84
4.26
3.52
3.43
3.70
4.04
4.27
4.25
3.89
3.14
1.94
0.29
-1.74
-4.08
-6.70
-9.68
-13.20
-17.37
-22.02
-26.55
-29.99
-31.26
-29.63
-25.01
-18.11
-10.08
-2.19
4.69
10.18
14.36
17.43
19.45
20.29
19.73
17.74
14.61
10.98
7.61
5.07
3.58
2.95
2.73
2.46
1.87
0.97
-0.05
-0.98
-1.75
-2.43
-3.26
-4.48
-6.31
-8.92
-12.42
-16.78
-21.72
-26.62
-30.56
-32.55
-31.80
-28.07
-21.79
-13.91
-5.58
2.22
8.91
14.30
18.44
21.37
23.04
23.30
22.03
19.39
15.83
12.02
8.69
6.33
5.02
4.49
4.27
3.95
3.41
2.75
2.15
1.70
1.22
0.42
-1.00
-3.18
-6.09
-9.66
-13.89
-18.75
-24.05
-29.21
-33.25
-35.07
-33.87
-29.46
-22.45
-13.97
-5.35
2.42
8.81
13.78
17.51
20.19
21.88
22.54
22.11
20.65
18.43
15.83
13.30
11.15
9.52
8.34
7.41
6.53
5.59
4.61
3.71
2.95
2.32
1.61
0.58
-1.08
-3.55
-6.94
-11.28
-16.51
-22.42
-28.50
-33.93
-37.68
-38.74
-36.53
-31.05
-23.01
-13.50
-3.78
5.16
12.65
18.40
22.38
24.73
25.72
25.60
24.62
23.01
20.97
18.71
16.54
14.77
13.64
13.19
13.18
13.20
12.79
11.72
9.96
7.71
5.24
2.72
0.12
-2.71
-5.98
-9.87
-14.42
-19.54
-24.95
-30.16
-34.48
-37.13
-37.36
-34.69
-29.14
-21.25
-12.01
-2.59
6.03
13.21
18.73
22.69
25.30
26.71
27.00
26.22
24.51
22.13
19.38
16.66
14.22
12.25
10.77
9.75
9.08
8.65
8.33
7.96
7.36
6.41
5.02
3.14
0.78
-2.02
-5.22
-8.76
-12.63
-16.81
-21.21
-25.60
-29.53
-32.31
-33.17
-31.53
-27.21
-20.58
-12.46
-3.87
4.18
11.05
16.44
20.39
23.05
24.59
25.10
24.66
23.34
21.34
18.93
16.45
14.24
12.52
11.46
11.05
11.18
11.65
12.10
12.17
11.56
10.10
7.84
4.98
1.80
-1.51
-4.84
-8.22
-11.76
-15.60
-19.82
-24.37
-28.97
-32.96
-35.46
-35.52
-32.56
-26.58
-18.22
-8.60
1.06
9.75
16.82
22.01
25.33
26.88
26.87
25.57
23.36
20.66
17.83
15.19
12.88
11.00
9.58
8.68
8.32
8.43
8.82
9.18
9.12
8.36
6.74
4.35
1.44
-1.62
-4.52
-7.08
-9.36
-11.63
-14.34
-17.88
-22.34
-27.31
-31.84
-34.67
-34.65
-31.17
-24.44
-15.34
-5.23
4.56
12.96
19.37
23.62
25.85
26.38
25.64
24.04
21.94
19.64
17.26
14.86
12.48
10.19
8.15
6.58
5.64
5.35
5.56
5.97
6.24
6.11
5.44
4.19
2.36
-0.07
-3.08
-6.64
-10.66
-15.01
-19.51
-23.92
-27.79
-30.51
-31.36
-29.77
-25.57
-19.10
-11.18
-2.81
5.12
11.97
17.38
21.10
22.98
22.92
21.05
17.76
13.72
9.65
6.19
3.75
2.39
1.96
2.14
2.58
2.98
3.14
3.00
2.59
2.00
1.30
0.48
-0.56
-1.99
-4.04
-6.92
-10.73
-15.35
-20.32
-24.91
-28.20
-29.35
-27.90
-23.91
-17.90
-10.69
-3.14
3.99
10.13
14.84
17.80
18.82
17.87
15.26
11.56
7.51
3.84
1.04
-0.75
-1.68
-2.12
-2.37
-2.58
-2.69
-2.57
-2.13
-1.57
-1.21
-1.46
-2.58
-4.62
-7.53
-11.16
-15.35
-19.79
-23.95
-27.06
-28.25
-26.87
-22.81
-16.58
-9.16
-1.68
4.97
10.27
14.10
16.44
17.34
16.83
15.04
12.28
9.04
5.90
3.26
1.34
0.05
-0.84
-1.55
-2.25
-2.95
-3.65
-4.29
-4.91
-5.58
-6.41
-7.58
-9.34
-11.93
-15.49
-19.82
-24.37
-28.16
-30.16
-29.58
-26.26
-20.69
-13.81
-6.65
0.05
5.96
10.99
15.11
18.13
19.74
19.73
18.15
15.43
12.21
9.09
6.52
4.62
3.30
2.39
1.72
1.19
0.76
0.41
0.03
-0.50
-1.37
-2.71
-4.65
-7.31
-10.79
-15.15
-20.21
-25.50
-30.14
-33.04
-33.24
-30.28
-24.42
-16.63
-8.18
-0.20
6.57
11.93
15.94
18.75
20.38
20.76
19.89
17.97
15.41
12.77
10.52
8.98
8.16
7.83
7.64
7.26
6.58
5.69
4.83
4.15
3.56
2.70
1.07
-1.76
-5.90
-11.21
-17.26
-23.50
-29.24
-33.69
-36.01
-35.48
-31.78
-25.17
-16.57
-7.23
1.64
9.19
15.11
19.52
22.67
24.80
26.05
26.43
26.01
24.92
23.37
21.60
19.81
18.12
16.56
15.10
13.66
12.21
10.70
9.11
7.43
5.66
3.76
1.68
-0.65
-3.35
-6.56
-10.39
-14.89
-19.98
-25.37
-30.53
-34.67
-36.92
-36.53
-33.14
-26.92
-18.61
-9.28
-0.07
8.18
14.99
20.26
24.09
26.62
27.97
28.28
27.74
26.64
25.32
24.03
22.93
21.96
21.05
20.07
19.00
17.92
16.88
15.94
14.98
13.79
12.14
9.86
6.97
3.63
0.10
-3.38
-6.71
-9.98
-13.39
-17.21
-21.63
-26.55
-31.58
-35.91
-38.56
-38.61
-35.48
-29.19
-20.40
-10.22
0.08
9.40
17.04
22.71
26.47
28.54
29.21
28.72
27.33
25.33
23.08
20.97
19.28
18.18
17.62
17.44
17.43
17.43
17.31
16.99
16.38
15.34
13.74
11.54
8.80
5.67
2.41
-0.80
-3.83
-6.68
-9.47
-12.41
-15.71
-19.55
-23.87
-28.32
-32.22
-34.66
-34.76
-32.00
-26.43
-18.77
-10.09
-1.59
5.83
11.73
16.11
19.16
21.11
22.09
22.11
21.19
19.48
17.28
14.97
12.95
11.50
10.73
10.57
10.82
11.17
11.30
10.95
10.00
8.46
6.46
4.18
1.79
-0.69
-3.27
-6.07
-9.18
-12.66
-16.53
-20.70
-24.96
-28.84
-31.65
-32.55
-30.87
-26.41
-19.56
-11.27
-2.74
4.95
11.13
15.63
18.57
20.23
20.81
20.41
19.09
16.93
14.20
11.32
8.78
7.02
6.26
6.43
7.16
7.94
8.32
8.06
7.21
5.94
4.48
2.90
1.12
-1.04
-3.73
-6.99
-10.75
-14.93
-19.42
-24.00
-28.30
-31.64
-33.21
-32.24
-28.44
-22.09
-14.03
-5.42
2.70
9.59
14.93
18.71
21.03
22.01
21.70
20.24
17.85
14.87
11.77
9.04
7.13
6.24
6.32
7.02
7.77
8.04
7.51
6.17
4.29
2.24
0.29
-1.49
-3.23
-5.20
-7.63
-10.70
-14.47
-18.87
-23.63
-28.17
-31.65
-33.15
-31.95
-27.86
-21.34
-13.38
-5.15
2.37
8.57
13.27
16.58
18.68
19.72
19.81
19.04
17.58
15.62
13.42
11.24
9.34
7.94
7.16
6.94
7.07
7.23
7.12
6.54
5.44
3.94
2.18
0.28
-1.76
-4.04
-6.74
-10.01
-13.96
-18.52
-23.44
-28.19
-32.10
-34.34
-34.21
-31.33
-25.82
-18.34
-9.87
-1.46
6.02
12.08
16.62
19.77
21.73
22.63
22.55
21.54
19.73
17.32
14.68
12.19
10.19
8.91
8.37
8.37
8.60
8.72
8.46
7.73
6.55
5.00
3.14
0.97
-1.51
-4.29
-7.36
-10.68
-14.28
-18.26
-22.57
-26.98
-30.89
-33.47
-33.90
-31.65
-26.71
-19.61
-11.28
-2.80
4.92
11.24
15.93
19.01
20.70
21.27
20.95
20.00
18.62
17.05
15.48
14.10
13.01
12.21
11.64
11.23
10.88
10.54
10.09
9.39
8.35
6.90
5.05
2.86
0.40
-2.26
-5.11
-8.19
-11.59
-15.41
-19.71
-24.37
-28.96
-32.74
-34.79
-34.27
-30.75
-24.46
-16.22
-7.22
1.36
8.64
14.20
18.05
20.41
21.53
21.63
20.86
19.37
17.40
15.23
13.17
11.51
10.41
9.83
9.65
9.62
9.51
9.13
8.41
7.33
5.94
4.27
2.30
-0.00
-2.64
-5.58
-8.73
-12.00
-15.37
-18.89
-22.52
-26.05
-28.95
-30.48
-29.90
-26.79
-21.22
-13.88
-5.83
1.88
8.45
13.51
17.05
19.26
20.30
20.24
19.08
16.92
14.03
10.89
8.09
6.08
5.04
4.78
4.90
4.91
4.56
3.85
2.98
2.20
1.59
1.00
0.13
-1.33
-3.52
-6.39
-9.77
-13.46
-17.25
-20.91
-24.08
-26.22
-26.64
-24.85
-20.70
-14.55
-7.26
0.14
6.77
12.07
15.90
18.34
19.51
19.43
18.02
15.33
11.64
7.51
3.70
0.82
-0.78
-1.22
-0.96
-0.50
-0.24
-0.30
-0.62
-1.14
-1.89
-2.98
-4.58
-6.82
-9.83
-13.61
-18.07
-22.86
-27.36
-30.66
-31.86
-30.33
-26.08
-19.72
-12.29
-4.84
1.88
7.55
12.15
15.67
18.02
18.97
18.38
16.32
13.23
9.75
6.58
4.23
2.82
2.16
1.88
1.63
1.25
0.73
0.18
-0.34
-0.89
-1.63
-2.76
-4.47
-6.91
-10.15
-14.16
-18.73
-23.29
-27.04
-29.01
-28.50
-25.28
-19.75
-12.76
-5.30
1.80
8.06
13.26
17.31
20.03
21.21
20.70
18.59
15.31
11.52
7.92
5.03
3.05
1.88
1.22
0.75
0.25
-0.35
-1.00
-1.63
-2.22
-2.85
-3.70
-5.00
-6.99
-9.89
-13.83
-18.69
-23.96
-28.78
-32.02
-32.67
-30.20
-24.78
-17.27
-8.89
-0.81
6.23
11.95
16.41
19.69
21.77
22.49
21.74
19.66
16.64
13.32
10.30
8.01
6.48
5.49
4.67
3.72
2.53
1.21
0.02
-0.85
-1.39
-1.84
-2.57
-4.02
-6.55
-10.31
-15.23
-20.92
-26.69
-31.57
-34.47
-34.54
-31.34
-25.13
-16.76
-7.42
1.71
9.74
16.22
21.06
24.38
26.34
27.03
26.52
24.88
22.31
19.13
15.81
12.85
10.66
9.37
8.80
8.50
7.94
6.79
5.00
2.85
0.75
-0.97
-2.30
-3.53
-5.23
-7.94
-11.93
-17.14
-22.98
-28.58
-32.92
-35.01
-34.21
-30.31
-23.66
-15.05
-5.59
3.63
11.73
18.18
22.85
25.88
27.53
28.07
27.69
26.53
24.73
22.55
20.25
18.18
16.58
15.52
14.95
14.67
14.45
14.05
13.31
12.12
10.42
8.17
5.45
2.39
-0.83
-4.07
-7.38
-10.96
-15.20
-20.34
-26.26
-32.31
-37.36
-40.11
-39.55
-35.33
-27.92
-18.39
-8.10
1.79
10.51
17.72
23.34
27.41
29.97
31.07
30.85
29.50
27.35
24.75
22.06
19.56
17.45
15.82
14.66
13.90
13.40
13.00
12.51
11.72
10.49
8.74
6.51
3.92
1.16
-1.68
-4.62
-7.83
-11.52
-15.89
-20.93
-26.36
-31.52
-35.53
-37.40
-36.35
-32.06
-24.83
-15.51
-5.32
4.51
13.03
19.69
24.39
27.30
28.67
28.74
27.69
25.71
23.06
20.11
17.26
14.84
13.10
12.07
11.70
11.83
12.28
12.85
13.29
13.34
12.77
11.43
9.37
6.77
3.93
1.08
-1.67
-4.40
-7.42
-11.10
-15.67
-21.06
-26.70
-31.58
-34.51
-34.46
-30.97
-24.31
-15.47
-5.82
3.29
10.92
16.67
20.61
23.06
24.32
24.53
23.73
21.98
19.49
16.64
13.93
11.80
10.49
9.99
10.10
10.50
10.92
11.17
11.18
10.90
10.26
9.19
7.60
5.47
2.88
-0.03
-3.15
-6.46
-10.08
-14.18
-18.72
-23.32
-27.21
-29.45
-29.18
-26.06
-20.35
-12.87
-4.73
3.01
9.61
14.67
18.17
20.19
20.88
20.29
18.53
15.82
12.55
9.29
6.59
4.85
4.14
4.20
4.58
4.86
4.75
4.26
3.54
2.77
2.04
1.29
0.30
-1.17
-3.31
-6.26
-10.02
-14.48
-19.40
-24.24
-28.30
-30.74
-30.87
-28.35
-23.37
-16.59
-9.00
-1.56
5.00
10.28
14.15
16.58
17.58
17.19
15.53
12.94
9.90
6.98
4.66
3.18
2.50
2.35
2.38
2.25
1.84
1.15
0.31
-0.57
-1.39
-2.19
-3.05
-4.09
-5.54
-7.65
-10.65
-14.59
-19.13
-23.51
-26.69
-27.67
-25.84
-21.31
-14.80
-7.45
-0.33
5.86
10.82
14.56
17.11
18.43
18.38
16.95
14.31
10.95
7.52
4.65
2.69
1.69
1.38
1.36
1.31
1.09
0.71
0.29
-0.13
-0.61
-1.31
-2.42
-4.10
-6.50
-9.70
-13.73
-18.45
-23.37
-27.65
-30.30
-30.45
-27.72
-22.39
-15.27
-7.50
-0.08
6.30
11.36
15.08
17.58
18.94
19.19
18.39
16.64
14.21
11.50
8.95
6.90
5.51
4.68
4.17
3.75
3.25
2.65
2.02
1.37
0.63
-0.38
-1.84
-3.93
-6.75
-10.33
-14.68
-19.65
-24.81
-29.39
-32.39
-32.88
-30.35
-24.98
-17.59
-9.36
-1.45
5.38
10.86
15.07
18.18
20.23
21.14
20.73
18.99
16.22
12.94
9.87
7.57
6.34
6.09
6.45
6.93
7.14
6.90
6.23
5.27
4.12
2.82
1.31
-0.50
-2.68
-5.32
-8.55
-12.54
-17.34
-22.75
-28.15
-32.58
-34.92
-34.32
-30.50
-23.92
-15.65
-7.01
0.85
7.23
11.98
15.31
17.55
18.94
19.55
19.38
18.47
16.96
15.14
13.37
11.96
11.07
10.68
10.60
10.56
10.28
9.58
8.40
6.85
5.05
3.14
1.12
-1.05
-3.47
-6.18
-9.24
-12.71
-16.69
-21.23
-26.13
-30.86
-34.49
-35.97
-34.51
-29.89
-22.60
-13.66
-4.31
4.41
11.79
17.54
21.69
24.39
25.83
26.16
25.50
23.99
21.82
19.26
16.65
14.35
12.62
11.59
11.16
11.08
10.96
10.46
9.39
7.72
5.65
3.37
1.06
-1.28
-3.75
-6.50
-9.66
-13.24
-17.23
-21.57
-26.09
-30.41
-33.92
-35.72
-35.05
-31.44
-25.05
-16.59
-7.19
2.02
10.13
16.62
21.39
24.54
26.34
27.05
26.85
25.83
24.03
21.54
18.59
15.56
12.92
11.07
10.19
10.17
10.65
11.15
11.28
10.81
9.72
8.12
6.18
4.00
1.63
-0.95
-3.80
-7.02
-10.70
-14.87
-19.47
-24.23
-28.63
-31.91
-33.22
-31.90
-27.73
-21.03
-12.63
-3.65
4.78
11.81
16.98
20.23
21.80
22.03
21.31
19.90
18.01
15.80
13.46
11.25
9.49
8.41
8.13
8.56
9.39
10.26
10.79
10.73
10.00
8.67
6.90
4.90
2.82
0.70
-1.52
-4.02
-7.07
-10.84
-15.29
-20.06
-24.48
-27.66
-28.80
-27.42
-23.50
-17.53
-10.30
-2.74
4.36
10.41
15.10
18.33
20.10
20.48
19.60
17.62
14.84
11.66
8.51
5.84
3.94
2.89
2.56
2.72
3.06
3.30
3.30
2.97
2.31
1.32
0.00
-1.64
-3.68
-6.16
-9.15
-12.67
-16.63
-20.81
-24.77
-27.85
-29.32
-28.57
-25.33
-19.83
-12.78
-5.11
2.27
8.73
13.93
17.80
20.32
21.46
21.14
19.42
16.57
13.13
9.73
6.95
5.11
4.19
3.86
3.72
3.41
2.78
1.86
0.82
-0.18
-1.08
-1.95
-2.99
-4.46
-6.69
-9.88
-14.14
-19.24
-24.65
-29.54
-32.95
-34.07
-32.48
-28.30
-22.12
-14.82
-7.30
-0.33
5.57
10.13
13.28
15.03
15.51
14.89
13.40
11.30
8.89
6.50
4.46
3.06
2.44
2.56
3.17
3.88
4.38
4.45
4.10
3.40
2.47
1.30
-0.22
-2.22
-4.89
-8.28
-12.34
-16.86
-21.32
-25.04
-27.17
-26.98
-24.17
-18.95
-12.07
-4.52
2.78
9.25
14.66
19.02
22.32
24.45
25.25
24.64
22.77
20.04
17.00
14.15
11.84
10.15
8.98
8.09
7.23
6.18
4.83
3.18
1.29
-0.71
-2.70
-4.67
-6.64
-8.79
-11.37
-14.63
-18.74
-23.64
-28.87
-33.59
-36.70
-37.19
-34.50
-28.71
-20.59
-11.32
-2.09
6.21
13.17
18.70
22.88
25.68
26.97
26.57
24.53
21.20
17.27
13.59
10.82
9.22
8.59
8.41
8.11
7.35
6.09
4.56
3.05
1.68
0.40
-1.06
-2.95
-5.52
-8.80
-12.74
-17.13
-21.66
-25.85
-29.08
-30.65
-29.99
-26.78
-21.22
-13.86
-5.62
2.63
10.15
16.47
21.36
24.69
26.41
26.50
25.10
22.51
19.25
15.87
12.84
10.44
8.71
7.47
6.48
5.52
4.50
3.44
2.45
1.63
0.92
0.16
-1.00
-2.89
-5.77
-9.72
-14.59
-19.85
-24.75
-28.31
-29.62
-28.08
-23.63
-16.82
-8.60
-0.11
7.72
14.29
19.35
22.84
24.78
25.19
24.17
21.92
18.86
15.49
12.35
9.83
8.15
7.28
7.01
7.02
7.00
6.78
6.36
5.85
5.37
4.87
4.13
2.80
0.50
-2.98
-7.57
-12.92
-18.38
-23.10
-26.18
-26.88
-24.81
-20.03
-13.14
-5.05
3.21
10.71
16.77
21.00
23.29
23.75
22.63
20.29
17.20
13.83
10.68
8.12
6.40
5.55
5.38
5.53
5.61
5.33
4.64
3.70
2.77
2.03
1.42
0.59
-0.91
-3.50
-7.33
-12.11
-17.17
-21.52
-24.12
-24.19
-21.42
-16.09
-8.97
-1.12
6.49
13.10
18.29
21.84
23.70
23.81
22.24
19.24
15.32
11.12
7.26
4.12
1.78
0.04
-1.37
-2.60
-3.67
-4.41
-4.73
-4.61
-4.24
-3.93
-4.03
-4.87
-6.70
-9.62
-13.43
-17.66
-21.48
-23.88
-23.99
-21.32
-16.01
-8.78
-0.69
7.16
13.89
18.96
22.16
23.47
23.03
21.14
18.17
14.59
10.87
7.37
4.31
1.76
-0.31
-2.02
-3.46
-4.71
-5.80
-6.72
-7.46
-8.05
-8.65
-9.55
-11.13
-13.72
-17.40
-21.91
-26.55
-30.30
-32.07
-31.02
-26.91
-20.13
-11.70
-2.86
5.23
11.79
16.46
19.23
20.23
19.61
17.61
14.51
10.77
6.86
3.30
0.40
-1.72
-3.14
-4.02
-4.51
-4.75
-4.82
-4.84
-4.92
-5.21
-5.87
-7.09
-9.07
-11.98
-15.83
-20.29
-24.63
-27.80
-28.74
-26.76
-21.83
-14.65
-6.39
1.76
8.90
14.58
18.69
21.27
22.30
21.76
19.71
16.49
12.68
8.99
6.07
4.21
3.34
3.11
3.08
2.91
2.50
1.97
1.45
1.02
0.52
-0.38
-2.09
-4.95
-9.08
-14.27
-19.92
-25.13
-28.85
-30.15
-28.49
-23.89
-16.99
-8.77
-0.31
7.55
14.27
19.64
23.59
26.07
26.98
26.29
24.17
21.02
17.47
14.13
11.46
9.59
8.39
7.56
6.82
6.04
5.21
4.43
3.76
3.11
2.28
0.96
-1.14
-4.26
-8.47
-13.71
-19.60
-25.48
-30.37
-33.22
-33.13
-29.70
-23.22
-14.61
-5.19
3.78
11.41
17.30
21.47
24.09
25.26
25.00
23.30
20.36
16.63
12.82
9.60
7.39
6.18
5.60
5.15
4.45
3.47
2.43
1.64
1.25
1.12
0.82
-0.14
-2.18
-5.45
-9.84
-14.99
-20.35
-25.24
-28.86
-30.49
-29.57
-25.92
-19.85
-12.04
-3.44
5.03
12.66
18.99
23.79
26.93
28.32
27.94
25.94
22.71
18.86
15.08
11.97
9.86
8.70
8.20
7.95
7.59
6.91
5.89
4.64
3.28
1.91
0.49
-1.09
-3.10
-5.81
-9.44
-13.96
-18.97
-23.68
-27.07
-28.20
-26.51
-22.10
-15.61
-8.05
-0.41
6.59
12.53
17.25
20.61
22.48
22.69
21.30
18.61
15.19
11.77
8.99
7.19
6.37
6.19
6.21
6.05
5.53
4.72
3.86
3.11
2.46
1.70
0.46
-1.60
-4.68
-8.76
-13.62
-18.74
-23.48
-27.01
-28.55
-27.58
-23.95
-18.01
-10.52
-2.42
5.37
12.14
17.42
20.96
22.66
22.56
20.85
17.86
14.08
10.09
6.43
3.55
1.67
0.74
0.51
0.61
0.70
0.57
0.21
-0.28
-0.82
-1.39
-2.14
-3.31
-5.20
-8.04
-11.90
-16.47
-21.12
-24.91
-26.82
-26.14
-22.66
-16.82
-9.55
-1.95
5.06
10.94
15.50
18.73
20.62
21.12
20.13
17.79
14.45
10.77
7.48
5.13
3.92
3.59
3.64
3.54
3.04
2.16
1.20
0.44
0.01
-0.26
-0.75
-1.93
-4.16
-7.59
-12.12
-17.38
-22.70
-27.27
-30.19
-30.73
-28.47
-23.52
-16.49
-8.31
-0.01
7.55
13.79
18.42
21.38
22.70
22.52
21.04
18.58
15.55
12.42
9.58
7.34
5.82
5.04
4.86
5.04
5.31
5.37
4.99
4.09
2.75
1.12
-0.69
-2.71
-5.14
-8.26
-12.25
-17.01
-22.08
-26.65
-29.80
-30.67
-28.77
-24.05
-17.00
-8.45
0.63
9.30
16.90
23.05
27.61
30.62
32.17
32.36
31.32
29.31
26.67
23.88
21.37
19.48
18.33
17.82
17.68
17.59
17.30
16.65
15.60
14.12
12.20
9.82
7.01
3.83
0.41
-3.20
-7.06
-11.42
-16.55
-22.53
-28.93
-34.81
-38.88
-39.92
-37.32
-31.30
-22.86
-13.35
-4.08
4.08
10.73
15.76
19.18
21.04
21.45
20.62
18.96
16.85
14.69
12.68
10.87
9.27
7.85
6.67
5.82
5.34
5.12
4.96
4.50
3.43
1.52
-1.28
-4.90
-9.12
-13.72
-18.48
-23.20
-27.83
-32.39
-36.99
-41.73
-46.45
-50.65
-53.43
-53.81
-51.03
-44.90
-35.89
-25.06
-13.65
-2.77
6.86
14.86
21.14
25.66
28.45
29.53
29.01
27.11
24.15
20.51
16.59
12.77
9.38
6.62
4.55
3.06
1.84
0.47
-1.47
-4.23
-7.83
-11.98
-16.21
-20.08
-23.39
-26.27
-29.07
-32.25
-36.21
-41.13
-47.06
-53.88
-61.27
-68.67
-75.21
-79.86
-81.66
-80.01
-74.93
-67.01
-57.17
-46.25
-34.85
-23.30
-11.70
-0.10
11.45
22.99
34.68
46.82
59.65
73.17
87.05
100.72
113.53
124.97
134.77
142.84
149.09
153.32
155.18
154.23
150.09
142.48
131.31
116.69
99.05
79.22
58.33
37.65
18.14
0.23
-16.36
-32.18
-47.56
-62.22
-75.12
-84.88
-90.38
-91.39
-88.67
-83.78
-78.43
-73.93
-70.87
-69.18
-68.43
-68.18
-68.35
-69.21
-71.22
-74.57
-78.87
-82.88
-84.79
-82.83
-76.17
-65.48
-52.73
-40.37
-30.24
-23.07
-18.69
-16.96
-18.52
-24.94
-37.56
-56.04
-77.58
-97.37
-110.64
-114.61
-109.63
-98.69
-85.82
-74.71
-68.15
-68.73
-79.38
-102.71
-139.33
-185.72
-233.72
-272.23
-291.03
-284.50
-253.70
-205.18
-147.66
-88.25
-30.10
27.85
89.23
157.74
234.90
318.83
404.25
483.64
549.14
594.76
617.87
619.56
603.62
574.76
536.90
492.46
442.57
387.65
327.92
263.44
194.12
120.21
43.24
-33.07
-102.90
-159.81
-199.04
-219.20
-222.83
-215.19
-202.05
-187.87
-174.88
-163.44
-152.98
-142.88
-132.77
-122.45
-111.73
-100.45
-88.70
-76.89
-65.66
-55.62
-46.98
-39.49
-32.56
-25.63
-18.52
-11.74
-6.41
-3.98
-5.61
-11.56
-20.87
-31.50
-41.14
-48.10
-51.99
-53.87
-55.63
-59.05
-64.91
-72.67
-80.69
-87.04
-90.11
-89.05
-83.66
-74.06
-60.62
-43.99
-25.49
-7.15
8.60
19.65
25.01
25.14
21.71
16.76
11.92
7.84
4.40
1.18
-1.91
-4.54
-6.09
-6.07
-4.40
-1.33
2.71
7.30
11.95
16.09
19.03
20.16
19.35
17.20
14.97
14.08
15.62
19.85
26.29
34.09
42.47
51.10
59.99
69.25
78.63
87.30
93.84
96.56
94.04
85.63
71.76
53.96
34.52
15.89
0.02
-12.11
-20.63
-26.57
-31.28
-35.79
-40.43
-44.83
-48.20
-49.96
-50.13
-49.31
-48.39
-48.12
-48.88
-50.76
-53.86
-58.41
-64.61
-71.99
-79.11
-83.65
-83.15
-76.04
-62.49
-44.52
-25.16
-7.44
6.69
16.76
23.56
28.47
32.73
37.00
41.14
44.43
45.87
44.67
40.54
33.88
25.68
17.07
8.95
1.89
-3.68
-7.11
-7.57
-4.44
1.94
9.94
16.90
20.23
18.55
12.34
3.65
-4.94
-11.31
-14.44
-14.18
-10.79
-4.50
4.44
15.48
27.55
39.27
49.41
57.36
63.23
67.50
70.58
72.45
72.73
70.91
66.82
60.71
53.09
44.38
34.61
23.45
10.64
-3.60
-18.25
-31.68
-42.25
-48.78
-50.98
-49.34
-44.83
-38.54
-31.46
-24.55
-18.78
-15.06
-13.86
-14.97
-17.35
-19.60
-20.54
-19.69
-17.23
-13.62
-9.17
-3.85
2.46
9.66
17.13
24.12
30.07
34.99
39.37
43.70
48.07
52.02
54.75
55.57
54.23
50.91
46.04
40.01
33.03
25.12
16.19
6.04
-5.49
-18.26
-31.63
-44.49
-55.44
-63.44
-68.29
-70.73
-72.11
-73.61
-75.69
-77.83
-78.90
-77.78
-73.94
-67.61
-59.57
-50.81
-42.13
-34.00
-26.60
-19.80
-13.32
-6.69
0.60
8.92
18.32
28.33
37.98
45.97
50.92
51.76
47.95
39.55
27.28
12.32
-3.80
-19.41
-32.93
-43.08
-49.14
-51.08
-49.59
-45.83
-41.09
-36.42
-32.40
-29.20
-26.82
-25.27
-24.66
-25.11
-26.54
-28.57
-30.58
-31.92
-32.15
-31.17
-29.19
-26.52
-23.50
-20.33
-17.10
-13.91
-10.84
-7.97
-5.28
-2.61
0.38
4.09
8.77
14.38
20.46
26.20
30.72
33.40
34.14
33.44
32.23
31.44
31.60
32.65
33.95
34.60
33.89
31.57
27.93
23.61
19.26
15.26
11.64
8.18
4.64
0.92
-2.79
-6.19
-9.02
-11.17
-12.72
-13.82
-14.52
-14.71
-14.18
-12.68
-10.11
-6.52
-2.12
2.85
8.10
13.29
18.04
21.84
24.19
24.67
23.06
19.48
14.34
8.32
2.15
-3.52
-8.28
-11.94
-14.52
-16.10
-16.78
-16.65
-15.83
-14.60
-13.39
-12.69
-12.89
-14.03
-15.79
-17.55
-18.64
-18.53
-16.96
-13.95
-9.66
-4.33
1.77
8.31
14.81
20.73
25.53
28.77
30.33
30.32
29.04
26.84
24.01
20.73
17.10
13.20
9.02
4.60
-0.06
-4.89
-9.79
-14.56
-19.00
-22.97
-26.42
-29.39
-31.91
-33.96
-35.40
-36.00
-35.48
-33.64
-30.40
-25.87
-20.33
-14.21
-8.06
-2.43
2.19
5.46
7.23
7.55
6.56
4.48
1.65
-1.49
-4.34
-6.17
-6.29
-4.34
-0.33
5.36
12.12
19.34
26.53
33.35
39.50
44.69
48.59
50.90
51.45
50.29
47.72
44.23
40.35
36.60
33.35
30.69
28.49
26.35
23.75
20.22
15.52
9.72
3.11
-3.89
-10.88
-17.52
-23.51
-28.62
-32.61
-35.27
-36.48
-36.22
-34.61
-31.85
-28.24
-24.12
-19.93
-16.12
-13.07
-11.05
-10.17
-10.46
-11.86
-14.23
-17.14
-19.77
-20.90
-19.27
-14.02
-5.07
6.77
20.05
33.19
44.95
54.64
62.11
67.42
70.61
71.55
69.92
65.53
58.42
49.00
38.04
26.44
15.11
4.71
-4.36
-11.95
-18.03
-22.61
-25.68
-27.33
-27.71
-27.18
-26.25
-25.43
-25.20
-25.87
-27.47
-29.82
-32.44
-34.77
-36.21
-36.34
-34.96
-32.13
-28.11
-23.31
-18.19
-13.22
-8.81
-5.28
-2.88
-1.71
-1.77
-2.91
-4.78
-6.95
-8.95
-10.39
-11.15
-11.38
-11.45
-11.79
-12.67
-14.14
-16.02
-18.01
-19.93
-21.75
-23.59
-25.62
-27.96
-30.62
-33.50
-36.46
-39.23
-41.34
-42.18
-41.00
-37.21
-30.57
-21.40
-10.46
1.17
12.43
22.41
30.50
36.35
39.75
40.70
39.38
36.19
31.79
26.96
22.39
18.51
15.34
12.53
9.56
6.05
2.02
-2.06
-5.43
-7.45
-7.91
-7.24
-6.30
-6.04
-7.06
-9.34
-12.31
-15.19
-17.29
-18.28
-18.17
-17.23
-15.70
-13.76
-11.34
-8.15
-3.79
2.15
9.78
18.81
28.46
37.75
45.79
52.18
57.11
61.17
64.98
68.88
72.76
76.20
78.62
79.38
77.88
73.52
65.95
55.31
42.43
28.74
15.88
5.16
-2.86
-8.41
-12.25
-15.16
-17.56
-19.37
-20.19
-19.69
-17.83
-15.01
-11.86
-9.10
-7.27
-6.73
-7.63
-10.01
-13.72
-18.37
-23.29
-27.65
-30.66
-31.83
-31.17
-29.17
-26.59
-24.22
-22.69
-22.34
-23.30
-25.43
-28.40
-31.77
-35.06
-37.93
-40.30
-42.34
-44.35
-46.56
-48.87
-50.87
-51.92
-51.36
-48.82
-44.31
-38.17
-31.00
-23.49
-16.34
-10.21
-5.57
-2.56
-0.92
-0.01
0.93
2.54
5.07
8.30
11.67
14.57
16.51
17.27
16.82
15.32
12.96
9.93
6.48
2.84
-0.81
-4.32
-7.65
-10.81
-13.91
-17.07
-20.40
-23.77
-26.71
-28.39
-27.85
-24.42
-18.06
-9.54
-0.25
8.40
15.45
20.72
24.71
28.17
31.62
35.12
38.32
40.76
42.26
43.02
43.55
44.33
45.54
46.89
47.74
47.30
44.98
40.64
34.59
27.48
20.09
13.07
6.80
1.35
-3.42
-7.79
-12.10
-16.55
-21.23
-25.99
-30.49
-34.18
-36.53
-37.07
-35.61
-32.34
-27.76
-22.58
-17.53
-13.17
-9.82
-7.57
-6.33
-5.98
-6.36
-7.29
-8.48
-9.60
-10.31
-10.41
-9.87
-8.87
-7.68
-6.54
-5.59
-4.87
-4.39
-4.19
-4.37
-5.03
-6.23
-7.99
-10.25
-12.97
-16.12
-19.68
-23.62
-27.77
-31.75
-35.01
-36.82
-36.55
-33.88
-28.92
-22.20
-14.56
-6.89
0.13
6.04
10.55
13.59
15.13
15.30
14.34
12.66
10.73
9.00
7.78
7.23
7.34
7.93
8.70
9.39
9.76
9.76
9.46
8.97
8.36
7.59
6.50
4.96
2.92
0.44
-2.42
-5.67
-9.45
-13.85
-18.76
-23.75
-28.07
-30.84
-31.30
-29.05
-24.13
-17.02
-8.51
0.43
8.87
15.99
21.29
24.56
25.90
25.63
24.11
21.78
19.07
16.50
14.62
13.88
14.44
16.03
18.03
19.72
20.60
20.64
20.25
19.96
20.11
20.62
21.01
20.67
19.08
16.03
11.53
5.72
-1.19
-8.83
-16.58
-23.46
-28.38
-30.46
-29.40
-25.63
-20.18
-14.28
-8.97
-4.80
-1.86
0.03
1.07
1.31
0.74
-0.57
-2.32
-3.95
-4.76
-4.19
-2.03
1.46
5.66
9.87
13.58
16.65
19.30
21.87
24.63
27.57
30.40
32.69
33.99
33.93
32.27
28.88
23.76
17.16
9.70
2.29
-4.04
-8.41
-10.36
-10.02
-7.96
-5.00
-1.92
0.69
2.43
3.03
2.32
0.24
-3.06
-7.23
-11.62
-15.51
-18.25
-19.56
-19.55
-18.70
-17.64
-16.90
-16.74
-17.08
-17.64
-18.14
-18.54
-19.03
-19.98
-21.74
-24.45
-27.99
-31.92
-35.57
-38.15
-38.94
-37.38
-33.28
-26.88
-18.78
-9.79
-0.66
8.04
16.05
23.27
29.64
35.02
39.21
41.97
43.14
42.71
40.78
37.52
33.21
28.24
23.14
18.51
14.94
12.86
12.36
13.21
14.80
16.31
16.91
15.95
13.21
8.93
3.68
-1.85
-7.05
-11.40
-14.41
-15.54
-14.25
-10.20
-3.54
5.02
14.36
23.33
31.09
37.25
41.73
44.58
45.93
46.01
45.28
44.42
44.20
45.14
47.35
50.33
53.13
54.47
53.12
48.24
39.75
28.45
15.83
3.60
-6.96
-15.46
-22.42
-28.82
-35.50
-42.68
-49.89
-56.24
-60.85
-63.23
-63.34
-61.45
-57.82
-52.63
-45.93
-37.76
-28.44
-18.66
-9.45
-1.91
3.10
5.19
4.54
1.72
-2.48
-7.34
-12.18
-16.48
-19.76
-21.62
-21.77
-20.04
-16.50
-11.37
-5.06
1.98
9.19
16.00
21.82
26.15
28.68
29.39
28.56
26.70
24.48
22.50
21.22
20.80
21.07
21.61
21.90
21.51
20.25
18.26
16.01
14.06
12.89
12.60
12.93
13.31
13.17
12.16
10.32
7.96
5.45
3.04
0.70
-1.73
-4.38
-7.21
-9.93
-12.15
-13.58
-14.20
-14.22
-13.99
-13.77
-13.74
-14.01
-14.72
-16.07
-18.08
-20.44
-22.46
-23.23
-21.94
-18.27
-12.57
-5.63
1.48
7.91
13.11
16.84
19.02
19.64
18.75
16.51
13.36
9.92
6.87
4.69
3.55
3.18
3.11
2.86
2.17
1.12
-0.02
-0.93
-1.52
-1.94
-2.56
-3.79
-5.99
-9.29
-13.59
-18.43
-23.10
-26.62
-28.05
-26.79
-22.80
-16.70
-9.51
-2.34
4.02
9.12
12.89
15.31
16.39
16.10
14.56
12.10
9.27
6.70
4.82
3.80
3.55
3.89
4.75
6.23
8.53
11.80
16.02
20.84
25.67
29.68
31.90
31.39
27.41
19.73
8.88
-3.71
-15.92
-25.37
-30.16
-29.39
-23.44
-13.78
-2.44
8.60
17.89
24.65
28.62
29.89
28.65
25.24
20.17
14.20
8.23
3.14
-0.52
-2.58
-3.28
-3.12
-2.59
-2.12
-1.89
-1.95
-2.34
-3.14
-4.54
-6.87
-10.46
-15.53
-21.92
-29.04
-35.79
-40.91
-43.25
-42.16
-37.71
-30.55
-21.77
-12.46
-3.58
4.28
10.77
15.77
19.21
21.09
21.46
20.45
18.34
15.60
12.76
10.34
8.64
7.64
6.95
6.06
4.55
2.30
-0.43
-3.20
-5.60
-7.48
-9.01
-10.58
-12.61
-15.40
-19.05
-23.40
-28.10
-32.62
-36.33
-38.49
-38.54
-36.19
-31.60
-25.37
-18.35
-11.38
-5.01
0.59
5.55
10.08
14.23
17.81
20.47
21.93
22.12
21.28
19.82
18.08
16.23
14.18
11.80
9.10
6.37
4.10
2.82
2.73
3.69
5.23
6.87
8.32
9.59
10.84
12.17
13.42
14.15
13.88
12.38
9.96
7.44
5.96
6.53
9.69
15.34
22.82
31.14
39.27
46.32
51.77
55.47
57.65
58.74
59.18
59.15
58.48
56.67
53.17
47.59
40.00
30.93
21.23
11.85
3.60
-2.99
-7.73
-10.75
-12.46
-13.44
-14.26
-15.43
-17.23
-19.77
-23.02
-26.89
-31.27
-35.99
-40.82
-45.39
-49.20
-51.69
-52.34
-50.78
-46.94
-41.06
-33.72
-25.62
-17.49
-9.86
-3.02
2.90
7.88
11.85
14.71
16.32
16.64
15.82
14.19
12.22
10.34
8.86
7.86
7.25
6.80
6.30
5.60
4.69
3.71
2.87
2.34
2.14
2.10
1.83
0.97
-0.73
-3.34
-6.80
-10.96
-15.63
-20.36
-24.40
-26.72
-26.30
-22.61
-15.98
-7.62
0.81
7.86
12.87
16.06
18.22
20.15
22.22
24.33
26.08
27.22
27.81
28.26
28.97
30.08
31.30
31.92
31.13
28.34
23.34
16.46
8.31
-0.29
-8.68
-16.43
-23.41
-29.67
-35.34
-40.54
-45.34
-49.79
-54.00
-58.06
-62.04
-65.89
-69.31
-71.90
-73.15
-72.68
-70.37
-66.43
-61.43
-56.20
-51.73
-48.87
-48.14
-49.55
-52.44
-55.62
-57.58
-56.78
-52.04
-42.75
-29.11
-12.18
6.28
24.13
39.42
50.92
58.49
63.04
66.10
69.11
72.75
76.73
79.97
81.18
79.52
74.94
68.21
60.56
53.25
47.25
43.07
40.83
40.35
41.18
42.68
44.06
44.56
43.63
41.12
37.31
32.77
28.14
23.87
20.18
17.06
14.34
11.85
9.47
7.10
4.67
2.19
-0.24
-2.43
-4.19
-5.37
-6.07
-6.61
-7.41
-8.82
-11.00
-13.89
-17.36
-21.26
-25.50
-29.88
-34.00
-37.19
-38.72
-38.04
-35.04
-30.20
-24.37
-18.43
-13.06
-8.49
-4.64
-1.35
1.43
3.53
4.61
4.38
2.81
0.20
-2.82
-5.59
-7.63
-8.81
-9.36
-9.68
-10.20
-11.13
-12.49
-14.18
-16.10
-18.30
-20.86
-23.93
-27.55
-31.68
-36.22
-41.09
-46.16
-51.18
-55.77
-59.43
-61.71
-62.42
-61.66
-59.84
-57.33
-54.45
-51.37
-48.33
-45.79
-44.43
-44.98
-47.85
-52.74
-58.56
-63.47
-65.60
-63.64
-57.47
-48.28
-38.18
-29.54
-24.20
-23.09
-26.26
-33.22
-43.05
-54.42
-65.29
-73.02
-74.98
-69.48
-56.42
-37.09
-13.28
13.74
43.40
75.15
107.43
137.20
160.62
174.66
178.59
174.36
165.59
155.87
147.19
139.67
132.20
123.79
114.26
104.37
95.15
87.21
80.36
73.77
66.48
57.96
48.48
38.95
30.50
23.96
19.48
16.53
14.18
11.57
8.19
4.00
-0.68
-5.39
-9.69
-13.32
-16.16
-18.32
-20.02
-21.61
-23.39
-25.48
-27.70
-29.54
-30.37
-29.55
-26.79
-22.28
-16.60
-10.61
-5.13
-0.72
2.43
4.40
5.44
5.74
5.39
4.46
2.98
1.16
-0.73
-2.36
-3.56
-4.30
-4.76
-5.15
-5.69
-6.41
-7.30
-8.30
-9.41
-10.72
-12.31
-14.14
-16.06
-17.83
-19.30
-20.43
-21.37
-22.41
-23.83
-25.67
-27.63
-28.94
-28.55
-25.45
-19.04
-9.42
2.68
16.08
29.48
41.65
51.50
57.97
60.06
57.13
49.20
37.34
23.58
10.43
0.08
-6.34
-9.03
-9.44
-9.63
-11.40
-15.61
-21.73
-28.04
-32.34
-33.02
-29.83
-24.09
-18.08
-14.07
-13.37
-15.99
-21.02
-27.19
-33.45
-38.98
-43.06
-44.85
-43.57
-38.89
-31.32
-22.26
-13.47
-6.40
-1.72
0.73
1.64
1.70
1.32
0.55
-0.74
-2.70
-5.29
-8.30
-11.43
-14.39
-16.93
-18.93
-20.33
-21.14
-21.38
-21.12
-20.50
-19.71
-19.04
-18.76
-19.08
-20.08
-21.79
-24.14
-27.05
-30.33
-33.61
-36.34
-37.83
-37.48
-35.06
-30.88
-25.73
-20.64
-16.47
-13.67
-12.19
-11.68
-11.70
-11.81
-11.67
-10.93
-9.34
-6.74
-3.24
0.88
5.26
9.67
13.97
18.10
21.87
24.91
26.88
27.56
27.04
25.61
23.59
21.09
18.09
14.60
10.85
7.36
4.65
3.13
2.91
3.91
6.00
9.10
13.10
17.67
22.24
26.06
28.55
29.52
29.24
28.30
27.20
26.08
24.57
22.06
18.00
12.24
5.17
-2.40
-9.48
-15.38
-19.82
-22.97
-25.11
-26.40
-26.70
-25.74
-23.37
-19.86
-15.94
-12.55
-10.50
-10.12
-11.19
-13.01
-14.76
-15.69
-15.30
-13.37
-9.85
-4.87
1.32
8.35
15.73
23.00
29.71
35.51
40.15
43.48
45.48
46.27
46.08
45.27
44.26
43.42
42.90
42.66
42.46
42.01
41.11
39.74
38.04
36.14
34.11
31.86
29.20
25.96
22.04
17.49
12.52
7.44
2.75
-0.90
-2.83
-2.48
0.36
5.44
12.11
19.48
26.68
33.05
38.18
41.87
44.07
44.79
44.20
42.54
40.17
37.39
34.46
31.47
28.42
25.23
21.88
18.39
14.90
11.64
8.84
6.65
4.99
3.56
1.78
-1.04
-5.46
-11.75
-19.75
-28.76
-37.75
-45.52
-51.08
-53.89
-53.95
-51.81
-48.28
-44.14
-39.96
-36.03
-32.45
-29.30
-26.74
-25.01
-24.33
-24.74
-26.05
-27.84
-29.53
-30.62
-30.80
-30.07
-28.68
-27.05
-25.56
-24.43
-23.66
-23.10
-22.54
-21.87
-21.17
-20.66
-20.69
-21.61
-23.58
-26.45
-29.71
-32.52
-33.90
-33.10
-29.75
-24.10
-16.86
-8.97
-1.34
5.34
10.70
14.54
16.86
17.68
17.12
15.39
12.84
9.93
7.19
5.02
3.65
3.05
2.96
3.05
3.06
2.91
2.66
2.46
2.35
2.24
1.84
0.87
-0.88
-3.37
-6.38
-9.50
-12.32
-14.45
-15.55
-15.41
-13.93
-11.15
-7.22
-2.51
2.54
7.39
11.50
14.42
15.87
15.74
14.13
11.31
7.70
3.68
-0.34
-4.01
-7.06
-9.39
-11.02
-12.16
-13.02
-13.69
-13.92
-13.19
-10.86
-6.59
-0.59
6.37
13.15
18.78
22.77
25.27
26.96
28.59
30.73
33.52
36.67
39.67
42.05
43.49
43.94
43.49
42.31
40.36
37.47
33.34
27.77
20.91
13.32
5.84
-0.57
-5.21
-7.83
-8.63
-8.22
-7.29
-6.46
-6.05
-6.16
-6.71
-7.65
-9.10
-11.37
-14.90
-20.07
-27.06
-35.69
-45.39
-55.28
-64.32
-71.50
-76.05
-77.61
-76.30
-72.70
-67.74
-62.38
-57.49
-53.54
-50.59
-48.38
-46.50
-44.56
-42.26
-39.39
-35.87
-31.70
-27.04
-22.15
-17.35
-12.74
-8.07
-2.74
3.89
12.11
21.48
30.90
38.94
44.42
46.85
46.48
44.12
40.75
37.29
34.50
33.04
33.45
35.93
40.16
45.20
49.79
52.90
54.13
53.90
53.12
52.62
52.64
52.77
52.13
49.95
46.00
40.74
35.04
29.91
26.04
23.65
22.56
22.33
22.45
22.52
22.27
21.60
20.49
18.98
17.05
14.65
11.66
8.00
3.60
-1.51
-7.13
-12.87
-18.12
-22.09
-24.05
-23.50
-20.40
-15.22
-8.80
-2.13
3.98
9.00
12.72
15.17
16.40
16.41
15.14
12.52
8.57
3.55
-2.03
-7.53
-12.28
-15.88
-18.24
-19.58
-20.21
-20.40
-20.30
-19.92
-19.34
-18.74
-18.46
-18.80
-19.89
-21.66
-23.87
-26.17
-28.20
-29.55
-29.81
-28.62
-25.76
-21.33
-15.79
-9.88
-4.36
0.19
3.53
5.72
6.96
7.39
7.06
5.96
4.21
2.05
-0.08
-1.73
-2.59
-2.61
-2.01
-1.19
-0.52
-0.21
-0.29
-0.59
-0.93
-1.18
-1.34
-1.55
-2.03
-3.00
-4.57
-6.78
-9.49
-12.39
-15.01
-16.73
-17.01
-15.50
-12.25
-7.68
-2.55
2.32
6.29
8.97
10.33
10.51
9.75
8.22
6.04
3.39
0.56
-1.99
-3.77
-4.35
-3.64
-1.86
0.50
2.87
4.80
6.10
6.77
6.93
6.67
5.97
4.72
2.74
-0.09
-3.82
-8.31
-13.27
-18.21
-22.39
-25.08
-25.63
-23.76
-19.58
-13.70
-6.95
-0.16
6.03
11.29
15.54
18.82
21.17
22.58
23.07
22.69
21.56
19.93
18.11
16.46
15.26
14.69
14.72
15.12
15.57
15.73
15.38
14.46
13.05
11.31
9.35
7.21
4.89
2.32
-0.57
-3.83
-7.50
-11.58
-15.88
-20.00
-23.31
-25.07
-24.68
-21.89
-16.92
-10.43
-3.31
3.53
9.39
13.81
16.60
17.76
17.46
15.97
13.70
11.06
8.47
6.17
4.33
2.93
1.93
1.23
0.79
0.59
0.61
0.78
1.00
1.07
0.85
0.22
-0.85
-2.34
-4.23
-6.47
-9.03
-11.85
-14.91
-18.24
-21.87
-25.77
-29.65
-32.97
-34.95
-34.83
-32.15
-26.92
-19.67
-11.32
-2.90
4.65
10.63
14.74
17.03
17.85
17.78
17.36
16.98
16.66
16.23
15.42
14.18
12.67
11.33
10.57
10.66
11.63
13.30
15.34
17.35
18.86
19.37
18.47
16.00
12.22
7.81
3.59
0.26
-1.96
-3.40
-4.81
-6.98
-10.38
-14.95
-20.02
-24.48
-27.14
-27.10
-24.05
-18.42
-11.20
-3.65
3.16
8.58
12.48
15.02
16.50
17.09
16.89
15.95
14.45
12.73
11.13
9.98
9.33
8.99
8.63
7.89
6.67
5.14
3.78
3.11
3.42
4.61
6.23
7.59
8.10
7.45
5.70
3.11
0.08
-3.04
-5.91
-8.16
-9.41
-9.31
-7.74
-4.88
-1.22
2.56
5.84
8.29
9.92
11.00
11.83
12.54
12.97
12.76
11.55
9.34
6.50
3.69
1.61
0.60
0.55
0.94
1.12
0.65
-0.58
-2.35
-4.36
-6.40
-8.49
-10.77
-13.42
-16.54
-20.05
-23.85
-27.77
-31.67
-35.38
-38.64
-41.06
-42.20
-41.67
-39.26
-35.07
-29.46
-23.07
-16.60
-10.66
-5.70
-1.91
0.71
2.31
3.04
3.09
2.61
1.85
1.06
0.54
0.51
1.04
2.04
3.29
4.56
5.71
6.76
7.79
8.84
9.89
10.70
10.93
10.23
8.37
5.33
1.34
-3.16
-7.62
-11.43
-14.10
-15.26
-14.77
-12.64
-9.11
-4.53
0.65
5.87
10.64
14.51
17.21
18.70
19.09
18.56
17.33
15.58
13.55
11.51
9.75
8.51
7.85
7.61
7.51
7.19
6.46
5.32
3.94
2.51
1.22
0.12
-0.88
-1.96
-3.33
-5.21
-7.76
-11.04
-14.88
-18.82
-22.15
-24.01
-23.73
-21.04
-16.23
-10.13
-3.76
1.96
6.49
9.77
11.97
13.33
13.97
13.83
12.82
11.01
8.67
6.23
4.18
2.82
2.19
2.10
2.20
2.21
1.98
1.59
1.18
0.93
0.82
0.70
0.23
-0.88
-2.81
-5.59
-9.08
-13.05
-17.15
-20.89
-23.64
-24.68
-23.48
-19.89
-14.31
-7.61
-0.81
5.25
10.15
13.86
16.52
18.29
19.13
18.96
17.76
15.75
13.36
11.08
9.32
8.21
7.66
7.39
7.09
6.59
5.83
4.92
3.99
3.14
2.35
1.48
0.34
-1.24
-3.41
-6.22
-9.65
-13.50
-17.39
-20.71
-22.79
-23.01
-21.08
-17.19
-11.93
-6.11
-0.47
4.50
8.61
11.82
14.17
15.59
16.02
15.46
14.02
12.01
9.80
7.81
6.29
5.29
4.66
4.14
3.51
2.69
1.75
0.85
0.12
-0.49
-1.14
-2.08
-3.47
-5.42
-7.90
-10.84
-14.12
-17.46
-20.41
-22.37
-22.73
-21.06
-17.35
-12.01
-5.78
0.50
6.15
10.71
14.02
16.06
16.92
16.70
15.52
13.60
11.20
8.70
6.46
4.76
3.69
3.18
2.95
2.74
2.35
1.76
1.10
0.56
0.25
0.13
0.01
-0.46
-1.61
-3.69
-6.74
-10.56
-14.62
-18.21
-20.49
-20.82
-18.87
-14.83
-9.27
-3.06
2.94
8.05
11.89
14.34
15.45
15.31
14.04
11.79
8.83
5.58
2.56
0.25
-1.07
-1.48
-1.35
-1.12
-1.11
-1.33
-1.55
-1.48
-1.04
-0.44
-0.12
-0.55
-2.04
-4.60
-7.98
-11.78
-15.52
-18.67
-20.70
-21.15
-19.75
-16.54
-11.90
-6.46
-0.92
4.15
8.40
11.65
13.84
14.94
14.88
13.65
11.40
8.47
5.41
2.72
0.76
-0.41
-1.03
-1.46
-1.99
-2.69
-3.43
-4.01
-4.39
-4.81
-5.70
-7.56
-10.70
-15.07
-20.18
-25.23
-29.30
-31.58
-31.63
-29.48
-25.55
-20.55
-15.21
-10.17
-5.91
-2.68
-0.57
0.49
0.66
0.16
-0.82
-2.14
-3.74
-5.60
-7.68
-9.86
-11.89
-13.57
-14.68
-15.12
-14.79
-13.63
-11.51
-8.35
-4.20
0.58
5.32
9.26
11.95
13.54
14.85
16.92
20.35
24.82
29.27
32.66
34.67
35.94
37.58
40.36
44.08
47.49
49.03
47.63
43.25
36.78
29.53
22.63
16.69
11.90
8.19
5.34
3.01
0.76
-1.80
-4.86
-8.28
-11.70
-14.87
-17.73
-20.38
-23.09
-25.96
-28.88
-31.42
-33.05
-33.22
-31.44
-27.43
-21.22
-13.20
-4.17
4.76
12.41
17.88
20.77
21.26
19.91
17.38
14.15
10.36
6.05
1.32
-3.39
-7.34
-9.75
-10.10
-8.41
-5.32
-1.84
0.99
2.41
2.22
0.67
-1.76
-4.55
-7.47
-10.50
-13.84
-17.69
-22.09
-26.81
-31.31
-34.81
-36.55
-35.96
-32.83
-27.31
-19.90
-11.31
-2.41
5.99
13.27
19.17
23.84
27.76
31.36
34.81
37.85
39.99
40.88
40.64
39.99
39.92
41.13
43.55
46.26
47.87
47.08
43.25
36.63
28.13
18.98
10.30
2.78
-3.36
-8.35
-12.68
-16.86
-21.25
-25.81
-30.12
-33.46
-35.15
-34.79
-32.40
-28.36
-23.16
-17.32
-11.26
-5.36
-0.07
4.19
7.10
8.51
8.53
7.47
5.70
3.60
1.53
-0.19
-1.32
-1.69
-1.39
-0.67
0.10
0.59
0.63
0.31
-0.10
-0.31
-0.15
0.35
0.98
1.41
1.36
0.63
-0.84
-3.02
-5.78
-8.92
-12.16
-15.04
-17.00
-17.46
-16.03
-12.70
-7.89
-2.34
3.11
7.80
11.41
13.95
15.60
16.53
16.80
16.40
15.32
13.78
12.12
10.72
9.83
9.47
9.40
9.29
8.89
8.07
6.88
5.44
3.91
2.36
0.82
-0.75
-2.41
-4.24
-6.36
-8.80
-11.55
-14.48
-17.39
-19.94
-21.77
-22.44
-21.61
-19.08
-14.95
-9.63
-3.79
1.85
6.72
10.53
13.28
15.16
16.30
16.78
16.51
15.46
13.71
11.56
9.43
7.74
6.75
6.44
6.59
6.87
6.96
6.68
5.99
5.01
3.84
2.57
1.18
-0.39
-2.24
-4.43
-7.04
-10.07
-13.50
-17.16
-20.70
-23.55
-25.04
-24.60
-22.01
-17.55
-11.87
-5.84
-0.23
4.46
8.03
10.50
11.97
12.58
12.44
11.68
10.48
9.01
7.50
6.13
5.06
4.39
4.14
4.19
4.35
4.41
4.15
3.53
2.59
1.43
0.14
-1.24
-2.78
-4.53
-6.59
-9.00
-11.81
-15.00
-18.52
-22.16
-25.56
-28.15
-29.35
-28.67
-25.94
-21.41
-15.73
-9.75
-4.33
-0.05
2.85
4.47
5.15
5.25
5.03
4.56
3.79
2.60
0.91
-1.20
-3.52
-5.77
-7.62
-8.80
-9.21
-8.99
-8.53
-8.40
-9.20
-11.29
-14.64
-18.79
-23.04
-26.62
-28.92
-29.56
-28.36
-25.30
-20.62
-14.77
-8.48
-2.59
2.32
6.20
9.61
13.53
18.87
25.79
33.51
40.68
46.10
49.37
50.80
50.84
49.42
45.78
39.06
29.10
17.09
5.31
-3.74
-8.35
-8.22
-4.27
2.00
9.16
16.12
22.08
26.29
28.17
27.58
24.93
21.13
17.07
13.37
10.21
7.49
5.09
3.00
1.32
0.03
-1.14
-2.66
-4.97
-8.18
-11.84
-15.01
-16.68
-16.23
-13.78
-10.11
-6.32
-3.30
-1.36
-0.26
0.48
1.23
1.96
2.34
1.98
0.78
-1.02
-2.84
-4.10
-4.39
-3.67
-2.12
-0.09
2.12
4.28
6.21
7.72
8.60
8.65
7.79
6.13
3.87
1.32
-1.29
-3.86
-6.43
-9.12
-12.07
-15.36
-19.01
-22.88
-26.67
-29.93
-32.09
-32.57
-30.98
-27.28
-21.84
-15.39
-8.78
-2.79
2.07
5.61
7.89
9.15
9.60
9.50
9.02
8.35
7.58
6.81
6.10
5.52
5.14
5.01
5.14
5.39
5.60
5.52
5.01
4.09
2.85
1.48
0.12
-1.18
-2.47
-3.84
-5.45
-7.41
-9.86
-12.89
-16.44
-20.31
-23.94
-26.67
-27.73
-26.62
-23.24
-17.97
-11.60
-5.06
0.82
5.56
8.98
11.23
12.53
13.14
13.14
12.55
11.35
9.63
7.64
5.70
4.23
3.50
3.54
4.15
4.99
5.67
5.96
5.80
5.25
4.43
3.42
2.22
0.83
-0.77
-2.60
-4.70
-7.21
-10.23
-13.79
-17.71
-21.49
-24.41
-25.72
-24.90
-21.87
-17.04
-11.22
-5.32
-0.10
3.99
6.87
8.64
9.50
9.58
8.93
7.60
5.74
3.67
1.83
0.65
0.33
0.78
1.59
2.26
2.39
1.85
0.83
-0.34
-1.39
-2.23
-3.09
-4.31
-6.22
-8.98
-12.51
-16.54
-20.73
-24.64
-27.80
-29.69
-29.80
-27.79
-23.67
-17.80
-10.90
-3.82
2.68
8.16
12.42
15.50
17.43
18.25
17.98
16.72
14.74
12.46
10.32
8.69
7.72
7.30
7.15
6.96
6.46
5.56
4.34
3.00
1.71
0.51
-0.73
-2.23
-4.22
-6.87
-10.24
-14.25
-18.63
-22.93
-26.50
-28.61
-28.63
-26.27
-21.69
-15.45
-8.36
-1.26
5.20
10.61
14.77
17.60
19.12
19.35
18.49
16.85
14.86
13.01
11.67
10.97
10.74
10.57
9.97
8.60
6.41
3.66
0.82
-1.66
-3.56
-4.93
-6.14
-7.70
-10.12
-13.74
-18.64
-24.50
-30.66
-36.10
-39.67
-40.38
-37.68
-31.75
-23.42
-14.04
-4.95
2.82
8.84
13.18
16.20
18.26
19.44
19.64
18.64
16.43
13.29
9.80
6.61
4.27
2.98
2.60
2.77
3.07
3.20
3.00
2.46
1.65
0.64
-0.51
-1.79
-3.31
-5.29
-8.06
-11.90
-16.83
-22.42
-27.80
-31.87
-33.59
-32.38
-28.32
-22.07
-14.63
-6.96
0.25
6.70
12.37
17.26
21.28
24.19
25.74
25.85
24.73
22.87
20.86
19.20
18.11
17.51
17.14
16.69
15.97
14.98
13.76
12.44
11.05
9.53
7.75
5.59
2.89
-0.47
-4.55
-9.37
-14.82
-20.62
-26.24
-30.95
-33.89
-34.27
-31.67
-26.17
-18.43
-9.54
-0.62
7.42
14.13
19.52
23.82
27.20
29.69
31.11
31.28
30.19
28.07
25.38
22.60
20.13
18.11
16.50
15.13
13.77
12.25
10.49
8.48
6.25
3.87
1.34
-1.32
-4.14
-7.17
-10.45
-14.13
-18.33
-23.12
-28.32
-33.37
-37.32
-39.05
-37.66
-32.82
-24.95
-15.15
-4.79
4.92
13.20
19.81
24.80
28.31
30.41
31.08
30.31
28.32
25.51
22.47
19.72
17.67
16.40
15.75
15.40
15.03
14.40
13.46
12.35
11.28
10.38
9.64
8.85
7.64
5.67
2.67
-1.48
-6.75
-12.96
-19.73
-26.39
-32.00
-35.47
-35.84
-32.61
-26.03
-16.98
-6.80
3.15
11.85
18.74
23.67
26.69
27.96
27.65
26.02
23.45
20.53
17.84
15.88
14.86
14.64
14.83
14.98
14.74
14.03
12.95
11.78
10.68
9.71
8.70
7.38
5.47
2.75
-0.86
-5.34
-10.58
-16.36
-22.29
-27.72
-31.79
-33.61
-32.53
-28.41
-21.77
-13.60
-5.10
2.70
9.20
14.17
17.64
19.66
20.21
19.24
16.87
13.52
9.88
6.69
4.51
3.53
3.51
3.96
4.32
4.22
3.46
2.05
0.08
-2.35
-5.14
-8.21
-11.48
-14.96
-18.84
-23.39
-28.87
-35.20
-41.90
-47.97
-52.16
-53.47
-51.54
-46.86
-40.67
-34.50
-29.64
-26.65
-25.23
-24.54
-23.70
-22.25
-20.51
-19.32
-19.59
-21.72
-25.42
-29.81
-33.65
-35.58
-34.01
-27.32
-14.15
5.77
30.99
58.20
83.06
101.67
111.95
114.26
110.75
104.10
96.24
87.85
78.72
68.56
57.58
46.47
35.95
26.46
18.13
10.93
4.78
-0.42
-4.97
-9.44
-14.41
-20.11
-26.18
-31.77
-35.96
-38.22
-38.56
-37.35
-34.86
-31.10
-25.90
-19.30
-11.80
-4.33
2.09
6.78
9.56
10.60
10.14
8.19
4.47
-1.45
-9.75
-20.05
-31.16
-41.24
-48.20
-50.39
-47.22
-39.39
-28.65
-17.11
-6.51
2.30
9.24
14.71
19.07
22.38
24.50
25.29
24.90
23.88
22.97
22.83
23.74
25.59
27.98
30.42
32.49
33.89
34.47
34.14
32.90
30.83
28.16
25.15
21.99
18.63
14.71
9.69
3.18
-4.68
-13.11
-20.81
-26.36
-28.70
-27.47
-23.11
-16.65
-9.32
-2.17
4.17
9.49
13.79
17.14
19.45
20.50
20.06
18.07
14.76
10.75
6.82
3.73
1.92
1.36
1.54
1.71
1.13
-0.59
-3.45
-7.03
-10.79
-14.26
-17.31
-20.21
-23.59
-28.19
-34.51
-42.49
-51.26
-59.19
-64.28
-64.81
-59.97
-50.22
-37.16
-22.91
-9.38
2.22
11.62
19.10
25.13
29.87
33.14
34.53
33.74
30.79
26.17
20.85
16.14
13.63
14.84
20.68
30.77
43.09
54.31
60.92
60.74
54.03
43.50
33.12
26.22
24.00
25.25
27.31
27.88
26.24
23.51
21.79
22.81
27.03
33.67
41.22
48.28
53.94
57.86
59.87
59.76
57.11
51.53
42.92
31.66
18.70
5.30
-7.24
-17.87
-26.06
-31.83
-35.60
-37.84
-38.80
-38.40
-36.39
-32.77
-28.07
-23.34
-19.85
-18.51
-19.57
-22.58
-26.73
-31.31
-36.01
-40.83
-45.72
-50.28
-53.62
-54.69
-52.71
-47.61
-40.07
-31.24
-22.27
-14.01
-6.76
-0.50
4.91
9.44
12.81
14.67
14.82
13.43
11.11
8.65
6.76
5.81
5.63
5.71
5.46
4.53
2.99
1.25
-0.11
-0.76
-0.73
-0.50
-0.79
-2.32
-5.52
-10.41
-16.55
-23.14
-29.23
-33.84
-36.27
-36.10
-33.35
-28.39
-21.83
-14.41
-6.89
0.08
5.94
10.25
12.73
13.27
12.01
9.35
5.98
2.74
0.35
-0.78
-0.74
-0.03
0.62
0.63
-0.29
-2.04
-4.28
-6.68
-9.03
-11.36
-13.82
-16.72
-20.33
-24.77
-29.85
-34.92
-38.99
-40.94
-39.97
-35.90
-29.29
-21.15
-12.53
-4.11
3.90
11.62
19.13
26.29
32.71
37.93
41.67
43.91
44.84
44.62
43.21
40.37
35.78
29.35
21.45
12.88
4.73
-2.01
-6.73
-9.34
-10.17
-9.80
-8.87
-8.03
-7.85
-8.83
-11.21
-14.82
-18.95
-22.46
-24.20
-23.37
-19.88
-14.34
-7.83
-1.42
4.16
8.64
12.07
14.51
15.90
16.00
14.65
11.96
8.51
5.19
2.88
2.07
2.58
3.68
4.41
4.05
2.49
0.22
-1.90
-3.13
-3.19
-2.41
-1.58
-1.60
-3.19
-6.66
-11.85
-18.09
-24.23
-28.82
-30.37
-27.93
-21.55
-12.40
-2.45
6.40
13.19
18.29
23.03
28.85
36.35
45.00
53.44
60.24
64.39
65.49
63.54
58.72
51.43
42.42
32.93
24.35
17.74
13.33
10.55
8.44
6.31
3.93
1.39
-1.52
-5.53
-11.71
-20.72
-32.12
-44.23
-54.66
-61.25
-62.90
-59.90
-53.56
-45.44
-36.80
-28.24
-19.96
-12.01
-4.59
1.97
7.31
11.23
13.74
15.06
15.53
15.53
15.41
15.40
15.64
16.00
16.22
15.97
15.01
13.35
11.23
9.13
7.52
6.78
7.00
7.91
8.93
9.28
8.23
5.32
0.57
-5.42
-11.58
-16.53
-18.95
-17.84
-12.87
-4.48
6.08
17.03
26.39
32.52
34.54
32.44
27.05
19.58
11.35
3.35
-3.69
-9.29
-13.21
-15.30
-15.72
-14.94
-13.70
-12.76
-12.63
-13.34
-14.46
-15.39
-15.75
-15.58
-15.39
-15.94
-17.91
-21.60
-26.81
-32.80
-38.53
-42.85
-44.76
-43.65
-39.46
-32.61
-23.92
-14.37
-4.94
3.55
10.54
15.65
18.73
19.80
19.05
16.86
13.79
10.47
7.47
5.18
3.71
2.85
2.27
1.67
0.93
0.13
-0.54
-0.95
-1.16
-1.43
-2.18
-3.79
-6.53
-10.38
-15.05
-19.87
-23.96
-26.33
-26.19
-23.22
-17.66
-10.28
-2.13
5.76
12.65
18.15
22.11
24.53
25.41
24.83
23.00
20.29
17.28
14.52
12.37
10.91
9.89
8.92
7.65
5.93
3.82
1.57
-0.55
-2.41
-4.10
-5.89
-8.18
-11.32
-15.51
-20.65
-26.31
-31.74
-36.00
-38.20
-37.79
-34.72
-29.50
-22.99
-16.22
-10.11
-5.41
-2.61
-1.95
-3.43
-6.76
-11.39
-16.66
-21.94
-26.87
-31.45
-35.97
-40.77
-45.94
-51.21
-55.98
-59.61
-61.78
-62.65
-62.79
-62.74
-62.75
-62.55
-61.49
-58.73
-53.45
-44.92
-32.59
-16.28
3.49
25.29
46.82
65.57
79.73
89.05
95.00
100.20
107.29
117.83
131.80
147.77
163.59
177.11
186.67
191.25
190.50
184.59
174.16
160.31
144.54
128.42
113.35
100.24
89.49
80.96
74.21
68.67
63.80
59.15
54.34
49.12
43.33
36.93
30.07
23.11
16.59
11.11
7.20
5.12
4.77
5.70
7.19
8.38
8.48
6.92
3.45
-1.81
-8.49
-16.08
-24.06
-31.99
-39.54
-46.49
-52.66
-57.91
-62.11
-65.20
-67.15
-67.99
-67.77
-66.53
-64.42
-61.82
-59.28
-57.50
-57.13
-58.51
-61.57
-65.81
-70.40
-74.40
-76.98
-77.54
-75.74
-71.53
-65.18
-57.21
-48.41
-39.60
-31.50
-24.53
-18.83
-14.40
-11.18
-9.08
-7.92
-7.34
-7.02
-6.91
-7.52
-9.93
-15.36
-24.41
-36.49
-49.77
-61.73
-70.06
-73.31
-71.25
-64.69
-55.14
-44.51
-34.70
-27.21
-22.61
-20.38
-19.24
-17.86
-15.63
-12.92
-10.63
-9.46
-9.43
-10.01
-10.70
-11.43
-12.38
-13.53
-14.19
-13.31
-10.06
-4.58
1.92
7.65
11.10
11.53
9.13
4.61
-1.12
-7.11
-12.35
-15.96
-17.36
-16.67
-14.70
-12.69
-11.75
-12.45
-14.80
-18.31
-22.13
-25.30
-26.89
-26.27
-23.31
-18.46
-12.63
-6.85
-2.03
1.34
3.09
3.34
2.38
0.61
-1.45
-3.44
-5.21
-6.93
-8.87
-11.05
-13.17
-14.66
-15.16
-14.91
-14.73
-15.61
-18.04
-21.56
-24.92
-26.70
-26.13
-23.51
-20.05
-17.27
-16.32
-17.66
-21.13
-26.11
-31.79
-37.14
-41.06
-42.40
-40.40
-34.97
-26.83
-17.29
-7.80
0.40
6.56
10.35
11.76
11.04
8.84
6.29
4.74
5.40
8.72
14.29
21.03
27.81
33.90
39.11
43.44
46.70
48.29
47.36
43.44
36.73
28.27
19.48
11.54
4.90
-0.77
-6.19
-11.94
-17.96
-23.57
-27.65
-29.13
-27.54
-23.28
-17.57
-11.95
-7.75
-5.65
-5.50
-6.64
-8.22
-9.61
-10.44
-10.48
-9.52
-7.34
-3.93
0.40
4.88
8.60
10.76
11.06
9.71
7.42
5.04
3.25
2.36
2.34
2.81
3.31
3.40
2.89
1.89
0.78
0.07
0.15
1.19
3.08
5.54
8.13
10.48
12.22
13.13
13.10
12.13
10.29
7.67
4.33
0.46
-3.51
-6.62
-7.47
-4.52
3.22
15.46
30.32
44.74
55.24
59.28
56.16
47.36
35.94
25.39
18.24
15.15
14.86
14.97
13.07
7.84
-0.29
-9.38
-16.61
-19.19
-15.28
-4.48
12.16
32.48
53.75
73.24
88.56
98.11
101.17
98.00
89.67
77.85
64.38
50.92
38.62
28.16
19.70
13.12
8.07
4.06
0.53
-2.99
-6.57
-9.87
-12.23
-13.07
-12.37
-10.90
-9.95
-10.77
-14.04
-19.49
-26.08
-32.33
-36.95
-39.07
-38.49
-35.52
-30.83
-25.27
-19.60
-14.47
-10.32
-7.37
-5.77
-5.76
-7.73
-12.26
-19.85
-30.60
-43.85
-58.12
-71.38
-81.61
-87.29
-87.74
-82.97
-73.47
-59.96
-43.38
-25.07
-6.77
9.59
22.46
31.19
36.23
38.95
40.98
43.65
47.61
52.82
58.84
65.19
71.53
77.74
83.84
89.71
94.96
98.74
99.90
97.37
90.70
80.43
68.17
56.16
46.49
40.47
38.20
38.83
41.02
43.61
45.93
47.74
48.98
49.35
48.19
44.70
38.12
28.06
14.57
-1.83
-20.11
-38.67
-55.47
-68.34
-75.63
-76.89
-73.06
-66.20
-58.47
-51.26
-44.77
-38.30
-31.14
-23.36
-15.97
-10.44
-7.89
-8.47
-11.39
-15.36
-19.22
-22.29
-24.39
-25.60
-26.04
-25.75
-24.75
-23.09
-20.92
-18.40
-15.83
-13.62
-12.34
-12.58
-14.78
-18.98
-24.65
-30.84
-36.39
-40.33
-42.04
-41.38
-38.55
-33.90
-27.83
-20.72
-12.92
-4.82
3.11
10.40
16.52
21.03
23.66
24.40
23.54
21.56
19.02
16.40
14.07
12.25
11.04
10.45
10.35
10.46
10.44
9.96
8.81
6.95
4.50
1.61
-1.63
-5.17
-9.02
-13.16
-17.66
-22.53
-27.75
-33.03
-37.78
-41.05
-41.89
-39.59
-34.10
-26.05
-16.57
-6.92
1.93
9.41
15.36
19.85
22.98
24.85
25.55
25.28
24.31
22.97
21.55
20.28
19.24
18.49
18.03
17.86
17.93
18.12
18.27
18.11
17.41
16.02
13.91
11.16
7.95
4.45
0.83
-2.79
-6.39
-10.05
-13.98
-18.44
-23.59
-29.21
-34.65
-38.82
-40.60
-39.19
-34.44
-26.97
-17.91
-8.51
0.25
7.84
14.15
19.23
23.12
25.82
27.32
27.70
27.20
26.19
25.07
24.16
23.61
23.45
23.58
23.88
24.22
24.51
24.67
24.56
24.00
22.78
20.76
17.92
14.42
10.60
6.79
3.21
-0.16
-3.61
-7.56
-12.38
-18.16
-24.59
-30.93
-36.11
-39.05
-38.93
-35.54
-29.30
-21.15
-12.29
-3.76
3.73
9.89
14.73
18.38
20.93
22.41
22.83
22.24
20.82
18.90
16.87
15.09
13.84
13.22
13.22
13.69
14.43
15.14
15.52
15.29
14.33
12.66
10.49
8.09
5.62
3.11
0.41
-2.72
-6.46
-10.90
-15.95
-21.32
-26.43
-30.53
-32.74
-32.35
-29.09
-23.27
-15.75
-7.64
0.00
6.50
11.60
15.33
17.84
19.19
19.41
18.52
16.70
14.24
11.59
9.19
7.37
6.29
5.90
5.99
6.27
6.45
6.33
5.83
4.93
3.66
2.01
-0.03
-2.52
-5.50
-8.98
-13.00
-17.55
-22.52
-27.62
-32.25
-35.61
-36.85
-35.40
-31.20
-24.72
-16.87
-8.66
-0.96
5.68
10.99
14.91
17.43
18.56
18.39
17.08
15.00
12.64
10.54
9.12
8.57
8.83
9.59
10.45
11.01
11.00
10.31
8.96
7.09
4.84
2.38
-0.20
-2.86
-5.67
-8.75
-12.31
-16.49
-21.29
-26.42
-31.25
-34.87
-36.41
-35.24
-31.22
-24.80
-16.87
-8.45
-0.50
6.37
11.89
16.04
18.95
20.77
21.60
21.56
20.75
19.37
17.64
15.81
14.14
12.80
11.84
11.22
10.80
10.39
9.81
8.92
7.70
6.19
4.50
2.66
0.60
-1.83
-4.84
-8.55
-12.96
-17.94
-23.24
-28.50
-33.24
-36.86
-38.63
-37.98
-34.57
-28.61
-20.77
-12.06
-3.52
4.08
10.37
15.32
19.06
21.69
23.22
23.65
23.04
21.65
19.87
18.10
16.63
15.56
14.85
14.35
13.99
13.68
13.40
13.05
12.46
11.46
9.87
7.63
4.80
1.54
-1.95
-5.50
-9.05
-12.70
-16.67
-21.17
-26.26
-31.65
-36.71
-40.54
-42.21
-41.04
-36.81
-29.90
-21.18
-11.74
-2.67
5.22
11.52
16.14
19.29
21.21
22.16
22.30
21.75
20.64
19.12
17.45
15.83
14.46
13.48
12.94
12.86
13.15
13.65
14.09
14.14
13.43
11.76
9.10
5.75
2.17
-1.12
-3.82
-5.99
-8.00
-10.42
-13.79
-18.36
-24.00
-30.14
-35.90
-40.22
-42.17
-41.15
-37.09
-30.48
-22.27
-13.51
-5.16
2.18
8.26
13.06
16.68
19.19
20.65
21.14
20.78
19.75
18.23
16.36
14.28
12.16
10.23
8.74
7.89
7.78
8.24
8.89
9.20
8.75
7.32
5.03
2.21
-0.69
-3.36
-5.69
-7.84
-10.05
-12.64
-15.81
-19.66
-24.13
-28.86
-33.27
-36.51
-37.71
-36.24
-31.94
-25.24
-16.96
-8.05
0.75
9.09
16.83
23.89
29.96
34.45
36.61
35.86
32.17
26.20
19.29
13.01
8.64
6.63
6.52
7.26
7.74
7.39
6.30
5.03
4.05
3.41
2.71
1.38
-0.88
-3.83
-6.81
-9.18
-10.68
-11.66
-12.84
-14.96
-18.28
-22.37
-26.29
-28.88
-29.24
-27.01
-22.52
-16.51
-9.85
-3.20
3.08
8.85
14.01
18.33
21.42
22.93
22.74
21.08
18.46
15.53
12.79
10.54
8.82
7.54
6.60
5.94
5.46
4.97
4.28
3.20
1.74
0.10
-1.43
-2.62
-3.49
-4.25
-5.31
-7.01
-9.56
-12.96
-17.00
-21.25
-25.13
-27.92
-28.93
-27.68
-24.12
-18.69
-12.13
-5.33
1.04
6.58
11.12
14.59
16.94
18.07
17.92
16.64
14.51
11.94
9.35
7.07
5.29
4.02
3.15
2.49
1.84
1.04
0.02
-1.17
-2.41
-3.57
-4.63
-5.72
-7.09
-8.99
-11.65
-15.14
-19.34
-23.89
-28.22
-31.57
-33.17
-32.40
-29.09
-23.55
-16.55
-9.05
-1.88
4.41
9.60
13.67
16.56
18.12
18.19
16.78
14.22
11.09
8.08
5.67
3.99
2.79
1.69
0.42
-1.07
-2.57
-3.79
-4.62
-5.20
-5.93
-7.18
-9.17
-11.86
-15.05
-18.52
-22.21
-26.15
-30.24
-34.12
-37.03
-38.08
-36.55
-32.29
-25.80
-18.09
-10.31
-3.42
2.10
6.10
8.68
9.92
9.87
8.51
5.94
2.41
-1.60
-5.58
-9.09
-11.95
-14.27
-16.28
-18.05
-19.39
-19.78
-18.70
-15.96
-12.01
-7.80
-4.43
-2.65
-2.54
-3.62
-5.25
-6.97
-8.64
-10.22
-11.49
-11.84
-10.50
-6.90
-1.09
6.25
14.00
21.09
26.87
31.17
34.15
36.01
36.81
36.48
34.97
32.45
29.33
26.22
23.66
21.88
20.75
19.78
18.44
16.39
13.67
10.61
7.60
4.85
2.30
-0.40
-3.63
-7.71
-12.78
-18.72
-25.11
-31.24
-36.17
-38.96
-38.91
-35.83
-30.15
-22.75
-14.62
-6.58
0.90
7.58
13.31
17.86
20.88
22.15
21.66
19.77
17.12
14.42
12.21
10.71
9.81
9.19
8.54
7.66
6.57
5.37
4.19
3.09
2.00
0.72
-0.99
-3.45
-6.92
-11.58
-17.32
-23.63
-29.59
-34.06
-35.99
-34.83
-30.68
-24.22
-16.47
-8.42
-0.82
5.92
11.57
16.01
19.08
20.65
20.69
19.37
17.06
14.31
11.64
9.51
8.15
7.58
7.63
8.00
8.36
8.47
8.21
7.60
6.76
5.83
4.83
3.66
2.07
-0.25
-3.58
-7.97
-13.18
-18.72
-23.78
-27.49
-29.00
-27.76
-23.67
-17.08
-8.78
0.28
9.15
17.14
23.85
29.15
32.98
35.30
36.06
35.29
33.19
30.19
26.81
23.65
21.07
19.21
17.92
16.93
15.99
15.01
14.04
13.26
12.76
12.44
12.01
11.07
9.27
6.36
2.28
-2.89
-8.96
-15.54
-22.05
-27.64
-31.31
-32.24
-30.02
-24.85
-17.51
-9.11
-0.74
6.74
12.82
17.25
19.98
21.03
20.54
18.75
16.02
12.83
9.67
7.01
5.17
4.30
4.29
4.85
5.57
6.06
6.14
5.84
5.37
4.99
4.75
4.50
3.84
2.34
-0.33
-4.23
-9.10
-14.41
-19.44
-23.37
-25.42
-25.05
-22.09
-16.86
-10.06
-2.61
4.64
11.07
16.33
20.29
22.83
23.89
23.48
21.76
19.13
16.18
13.51
11.58
10.53
10.20
10.21
10.18
9.83
9.12
8.16
7.18
6.27
5.38
4.23
2.45
-0.33
-4.37
-9.64
-15.82
-22.23
-27.95
-31.91
-33.27
-31.59
-27.06
-20.34
-12.41
-4.24
3.47
10.29
15.99
20.41
23.34
24.64
24.26
22.42
19.57
16.32
13.24
10.77
9.07
8.04
7.41
6.84
6.09
5.06
3.77
2.32
0.79
-0.79
-2.46
-4.29
-6.41
-9.02
-12.40
-16.75
-22.05
-27.85
-33.21
-36.89
-37.78
-35.24
-29.46
-21.31
-12.08
-3.02
5.00
11.64
16.94
21.05
24.03
25.78
26.20
25.30
23.35
20.89
18.46
16.49
15.08
14.10
13.30
12.46
11.54
10.60
9.70
8.78
7.67
6.13
4.01
1.27
-2.03
-5.80
-9.97
-14.56
-19.62
-25.03
-30.42
-35.05
-37.97
-38.33
-35.65
-30.09
-22.34
-13.45
-4.41
4.07
11.58
17.94
23.02
26.67
28.75
29.28
28.50
26.83
24.74
22.67
20.88
19.44
18.36
17.54
16.93
16.42
15.91
15.23
14.23
12.79
10.89
8.59
5.96
3.05
-0.16
-3.72
-7.68
-12.08
-16.90
-22.12
-27.61
-33.08
-37.93
-41.28
-42.19
-40.02
-34.72
-26.92
-17.75
-8.39
0.23
7.67
13.79
18.62
22.11
24.18
24.87
24.40
23.23
21.86
20.67
19.77
19.07
18.39
17.64
16.89
16.29
15.95
15.85
15.77
15.37
14.35
12.53
9.95
6.83
3.46
0.06
-3.28
-6.58
-9.96
-13.59
-17.59
-21.99
-26.73
-31.52
-35.82
-38.89
-39.91
-38.27
-33.78
-26.81
-18.19
-9.02
-0.35
7.08
12.85
16.97
19.64
21.17
21.84
21.82
21.19
20.01
18.39
16.54
14.76
13.30
12.35
11.91
11.90
12.18
12.59
12.99
13.17
12.87
11.84
9.93
7.18
3.84
0.27
-3.18
-6.35
-9.27
-12.21
-15.50
-19.41
-23.95
-28.80
-33.26
-36.36
-37.17
-35.10
-30.13
-22.87
-14.33
-5.64
2.33
9.11
14.54
18.61
21.33
22.69
22.73
21.69
19.94
17.96
16.08
14.44
13.00
11.65
10.33
9.16
8.33
8.04
8.31
8.97
9.65
9.96
9.61
8.51
6.78
4.69
2.51
0.50
-1.24
-2.73
-4.09
-5.59
-7.54
-10.10
-13.23
-16.54
-19.43
-21.24
-21.51
-20.14
-17.37
-13.62
-9.31
-4.74
-0.08
4.44
8.50
11.71
13.69
14.24
13.42
11.56
9.14
6.68
4.63
3.28
2.69
2.75
3.19
3.64
3.80
3.45
2.56
1.24
-0.28
-1.85
-3.44
-5.16
-7.24
-9.91
-13.33
-17.51
-22.19
-26.90
-30.92
-33.46
-33.84
-31.73
-27.26
-21.05
-13.96
-6.83
-0.30
5.30
9.90
13.48
15.96
17.22
17.20
15.98
13.80
11.06
8.18
5.52
3.33
1.70
0.51
-0.40
-1.28
-2.30
-3.44
-4.57
-5.45
-5.97
-6.20
-6.48
-7.25
-8.89
-11.58
-15.24
-19.58
-24.22
-28.68
-32.39
-34.70
-34.97
-32.79
-28.11
-21.36
-13.27
-4.74
3.46
10.80
16.91
21.52
24.43
25.52
24.88
22.81
19.76
16.20
12.43
8.53
4.48
0.23
-4.18
-8.53
-12.52
-15.72
-17.62
-17.79
-15.90
-12.07
-6.98
-1.80
2.06
3.39
1.64
-2.94
-9.39
-16.39
-22.57
-26.82
-28.43
-27.14
-23.15
-17.03
-9.63
-1.90
5.37
11.65
16.69
20.44
22.94
24.23
24.35
23.43
21.71
19.48
17.06
14.74
12.74
11.17
10.06
9.34
8.87
8.50
8.08
7.53
6.83
5.99
4.95
3.59
1.74
-0.79
-4.11
-8.21
-12.91
-17.86
-22.50
-26.14
-28.10
-27.89
-25.41
-20.97
-15.29
-9.14
-3.21
2.02
6.30
9.46
11.38
11.94
11.19
9.35
6.88
4.28
1.97
0.10
-1.43
-2.84
-4.30
-5.75
-6.92
-7.44
-7.10
-6.01
-4.58
-3.40
-2.99
-3.67
-5.48
-8.31
-11.99
-16.30
-20.83
-24.96
-27.77
-28.37
-26.18
-21.24
-14.23
-6.31
1.33
7.82
12.75
16.16
18.27
19.30
19.36
18.50
16.78
14.39
11.62
8.83
6.34
4.30
2.69
1.38
0.21
-0.90
-1.95
-2.86
-3.64
-4.40
-5.45
-7.16
-9.86
-13.65
-18.31
-23.24
-27.59
-30.49
-31.22
-29.44
-25.32
-19.39
-12.47
-5.38
1.19
6.79
11.14
14.12
15.64
15.66
14.26
11.61
8.01
3.81
-0.64
-5.07
-9.28
-13.12
-16.52
-19.49
-22.12
-24.63
-27.25
-30.22
-33.79
-38.20
-43.70
-50.54
-58.77
-68.18
-78.11
-87.58
-95.60
-101.44
-104.80
-105.82
-104.69
-101.40
-95.69
-87.37
-76.77
-65.00
-53.74
-44.68
-38.88
-36.41
-36.42
-37.61
-38.69
-38.55
-36.20
-30.63
-20.90
-6.53
12.02
33.22
54.68
73.90
89.03
99.31
105.04
107.11
106.34
103.18
97.71
89.99
80.50
70.26
60.63
52.85
47.65
45.05
44.52
45.38
47.01
49.06
51.28
53.36
54.80
54.99
53.42
49.88
44.62
38.22
31.49
25.25
20.16
16.67
14.85
14.41
14.82
15.45
15.83
15.77
15.29
14.55
13.56
12.11
9.84
6.43
1.78
-3.92
-10.24
-16.69
-22.77
-27.94
-31.56
-32.96
-31.60
-27.34
-20.62
-12.32
-3.42
5.29
13.45
20.96
27.76
33.59
37.97
40.40
40.68
39.03
36.10
32.66
29.39
26.71
24.74
23.45
22.77
22.60
22.83
23.27
23.71
23.82
23.37
22.22
20.41
18.15
15.76
13.43
11.25
9.08
6.63
3.63
-0.03
-4.11
-8.11
-11.27
-12.84
-12.29
-9.42
-4.50
1.83
8.65
14.93
19.82
22.85
24.02
23.79
22.81
21.70
20.80
20.09
19.28
18.07
16.25
13.91
11.32
8.87
6.95
5.89
5.85
6.79
8.37
9.99
10.97
10.78
9.29
6.74
3.50
-0.14
-4.13
-8.52
-13.24
-17.91
-21.94
-24.83
-26.36
-26.76
-26.39
-25.48
-23.89
-21.37
-17.77
-13.43
-9.08
-5.50
-3.11
-1.76
-0.82
0.31
1.92
3.78
5.34
6.08
5.88
5.02
4.08
3.61
3.89
4.77
5.86
6.72
7.13
7.11
6.91
6.78
6.82
6.90
6.72
5.98
4.51
2.35
-0.33
-3.35
-6.60
-10.00
-13.47
-16.66
-18.99
-19.78
-18.47
-14.97
-9.74
-3.65
2.30
7.40
11.36
14.29
16.45
18.02
18.98
19.16
18.40
16.82
14.74
12.69
11.16
10.44
10.50
10.99
11.39
11.20
10.09
8.02
5.20
2.00
-1.26
-4.34
-7.18
-9.86
-12.46
-15.04
-17.66
-20.37
-23.19
-26.02
-28.57
-30.27
-30.39
-28.36
-24.00
-17.70
-10.39
-3.16
3.03
7.67
10.80
12.76
13.97
14.73
15.10
15.00
14.32
13.06
11.36
9.48
7.81
6.65
6.16
6.29
6.79
7.26
7.33
6.78
5.53
3.71
1.51
-0.85
-3.22
-5.53
-7.80
-10.17
-12.82
-15.90
-19.41
-23.00
-26.05
-27.80
-27.57
-25.11
-20.68
-14.92
-8.66
-2.61
2.77
7.29
10.84
13.38
14.83
15.24
14.75
13.65
12.32
11.01
9.87
8.93
8.22
7.72
7.43
7.25
7.01
6.47
5.46
3.98
2.19
0.32
-1.47
-3.19
-5.02
-7.20
-9.96
-13.36
-17.35
-21.72
-26.07
-29.89
-32.51
-33.31
-31.89
-28.23
-22.74
-16.16
-9.37
-3.07
2.22
6.28
9.10
10.79
11.52
11.52
11.03
10.28
9.41
8.52
7.64
6.76
5.93
5.24
4.77
4.59
4.66
4.83
4.86
4.55
3.81
2.69
1.35
-0.08
-1.57
-3.24
-5.23
-7.71
-10.75
-14.29
-18.21
-22.23
-25.91
-28.61
-29.62
-28.40
-24.79
-19.18
-12.39
-5.45
0.81
5.95
9.90
12.81
14.83
16.02
16.35
15.85
14.66
13.09
11.54
10.33
9.64
9.39
9.36
9.27
8.97
8.51
8.03
7.67
7.43
7.07
6.22
4.64
2.31
-0.48
-3.27
-5.65
-7.52
-9.13
-10.95
-13.48
-16.94
-21.19
-25.63
-29.38
-31.55
-31.50
-29.03
-24.44
-18.39
-11.65
-4.92
1.28
6.66
11.06
14.37
16.53
17.57
17.59
16.84
15.66
14.32
13.06
11.93
10.95
10.09
9.39
8.91
8.71
8.77
8.89
8.84
8.40
7.52
6.30
4.87
3.34
1.67
-0.27
-2.54
-5.10
-7.82
-10.58
-13.41
-16.44
-19.70
-23.01
-25.85
-27.50
-27.26
-24.77
-20.15
-13.96
-7.08
-0.37
5.49
10.19
13.69
16.14
17.73
18.51
18.43
17.41
15.48
12.95
10.26
7.96
6.40
5.70
5.66
6.00
6.48
6.97
7.44
7.84
8.02
7.77
6.88
5.27
3.06
0.52
-2.06
-4.43
-6.56
-8.60
-10.88
-13.67
-17.09
-20.89
-24.46
-27.01
-27.78
-26.34
-22.75
-17.46
-11.25
-4.89
1.03
6.16
10.31
13.43
15.49
16.48
16.47
15.64
14.25
12.60
10.93
9.42
8.12
7.03
6.16
5.60
5.46
5.80
6.50
7.25
7.60
7.14
5.71
3.43
0.68
-2.10
-4.64
-6.94
-9.18
-11.64
-14.49
-17.72
-21.06
-24.06
-26.21
-26.98
-26.00
-23.07
-18.36
-12.33
-5.67
0.80
6.39
10.56
13.10
14.04
13.59
12.05
9.77
7.14
4.45
2.00
-0.02
-1.50
-2.42
-2.81
-2.79
-2.54
-2.24
-2.05
-2.00
-2.06
-2.14
-2.22
-2.39
-2.87
-3.93
-5.75
-8.40
-11.74
-15.50
-19.24
-22.40
-24.37
-24.60
-22.81
-19.10
-13.94
-8.05
-2.09
3.46
8.38
12.60
15.98
18.29
19.22
18.60
16.54
13.52
10.18
7.16
4.82
3.23
2.17
1.37
0.63
-0.13
-0.82
-1.40
-1.88
-2.36
-3.01
-3.99
-5.38
-7.26
-9.69
-12.71
-16.28
-20.18
-23.93
-26.84
-28.21
-27.53
-24.67
-19.97
-14.06
-7.73
-1.62
3.83
8.38
11.89
14.22
15.25
14.89
13.25
10.64
7.56
4.56
2.10
0.41
-0.53
-0.93
-1.10
-1.28
-1.56
-1.87
-1.99
-1.77
-1.23
-0.64
-0.49
-1.32
-3.49
-7.09
-11.82
-17.04
-21.90
-25.51
-27.10
-26.24
-22.96
-17.72
-11.31
-4.62
1.63
7.00
11.36
14.69
16.98
18.17
18.20
17.09
15.03
12.37
9.56
7.00
5.02
3.77
3.26
3.30
3.57
3.60
2.87
0.86
-2.74
-8.00
-14.70
-22.32
-30.33
-38.17
-45.46
-51.94
-57.31
-61.13
-62.81
-61.73
-57.50
-50.17
-40.25
-28.65
-16.40
-4.49
6.29
15.34
22.27
26.84
29.04
29.17
27.77
25.67
23.65
22.35
22.02
22.56
23.53
24.43
24.86
24.59
23.62
22.08
20.10
17.76
15.08
12.00
8.42
4.17
-0.93
-6.96
-13.77
-20.80
-27.08
-31.43
-32.83
-30.86
-25.83
-18.77
-11.00
-3.69
2.52
7.53
11.61
15.04
17.86
19.88
20.84
20.60
19.29
17.35
15.33
13.70
12.71
12.31
12.28
12.30
12.18
11.85
11.37
10.81
10.17
9.30
7.97
5.92
2.99
-0.87
-5.58
-10.94
-16.69
-22.36
-27.33
-30.83
-32.08
-30.56
-26.21
-19.54
-11.41
-2.89
5.11
11.94
17.25
20.94
23.00
23.56
22.89
21.41
19.64
18.02
16.85
16.15
15.75
15.47
15.16
14.83
14.51
14.22
13.87
13.23
12.04
10.14
7.57
4.59
1.64
-0.83
-2.55
-3.58
-4.34
-5.40
-7.24
-9.86
-12.74
-14.92
-15.44
-13.66
-9.58
-3.76
2.95
9.76
16.13
21.82
26.67
30.52
33.12
34.21
33.72
31.90
29.27
26.55
24.37
23.11
22.86
23.42
24.48
25.62
26.44
26.51
25.46
23.14
19.67
15.43
10.99
6.90
3.37
0.32
-2.65
-6.00
-9.97
-14.53
-19.22
-23.40
-26.31
-27.32
-26.04
-22.42
-16.73
-9.62
-1.87
5.66
12.26
17.47
21.09
23.19
23.96
23.65
22.48
20.66
18.43
16.08
13.91
12.21
11.08
10.48
10.20
9.97
9.60
8.97
8.08
6.93
5.52
3.78
1.68
-0.84
-3.74
-7.00
-10.63
-14.64
-19.01
-23.57
-27.83
-31.05
-32.39
-31.17
-27.21
-20.93
-13.29
-5.45
1.58
7.27
11.54
14.57
16.53
17.41
17.12
15.62
13.14
10.28
7.72
6.05
5.47
5.74
6.35
6.81
6.82
6.34
5.63
4.93
4.36
3.84
3.10
1.83
-0.14
-2.90
-6.35
-10.37
-14.82
-19.48
-23.93
-27.52
-29.47
-29.10
-26.11
-20.77
-13.84
-6.35
0.75
6.79
11.50
14.88
17.06
18.15
18.24
17.38
15.67
13.38
10.87
8.57
6.84
5.86
5.56
5.68
5.85
5.73
5.10
3.92
2.26
0.29
-1.82
-3.99
-6.15
-8.31
-10.49
-12.78
-15.36
-18.46
-22.21
-26.40
-30.38
-33.14
-33.64
-31.20
-25.90
-18.55
-10.44
-2.84
3.43
8.14
11.54
14.05
16.01
17.50
18.49
18.90
18.79
18.37
17.92
17.66
17.64
17.70
17.60
17.11
16.17
14.84
13.32
11.73
10.11
8.35
6.35
4.03
1.46
-1.19
-3.81
-6.38
-9.08
-12.20
-15.90
-20.07
-24.16
-27.26
-28.43
-27.00
-22.93
-16.79
-9.57
-2.32
4.18
9.55
13.74
16.83
18.91
19.97
20.02
19.20
17.80
16.16
14.59
13.22
12.05
11.02
10.12
9.40
8.92
8.67
8.45
8.02
7.17
5.85
4.20
2.37
0.49
-1.47
-3.69
-6.35
-9.54
-13.22
-17.24
-21.34
-25.19
-28.39
-30.40
-30.65
-28.74
-24.58
-18.53
-11.36
-4.00
2.70
8.18
12.28
15.09
16.83
17.69
17.82
17.31
16.31
15.01
13.65
12.44
11.55
11.02
10.81
10.81
10.86
10.82
10.55
9.97
9.08
7.85
6.28
4.37
2.18
-0.21
-2.67
-5.13
-7.63
-10.35
-13.53
-17.26
-21.32
-25.15
-27.92
-28.89
-27.64
-24.28
-19.32
-13.50
-7.50
-1.74
3.55
8.24
12.18
15.15
16.88
17.26
16.34
14.47
12.13
9.87
8.15
7.19
7.02
7.46
8.21
8.96
9.47
9.55
9.14
8.24
6.89
5.21
3.32
1.35
-0.59
-2.48
-4.32
-6.26
-8.48
-11.21
-14.63
-18.67
-22.90
-26.61
-28.90
-29.03
-26.71
-22.19
-16.21
-9.72
-3.53
1.82
6.09
9.22
11.17
11.93
11.54
10.16
8.12
5.83
3.70
2.04
1.03
0.72
1.01
1.70
2.51
3.18
3.50
3.38
2.90
2.16
1.28
0.35
-0.60
-1.62
-2.77
-4.17
-5.97
-8.34
-11.29
-14.63
-17.86
-20.26
-21.10
-19.89
-16.60
-11.68
-5.91
-0.11
5.08
9.37
12.70
15.15
16.74
17.40
17.02
15.59
13.34
10.67
8.09
6.01
4.64
3.93
3.64
3.53
3.41
3.24
3.08
2.96
2.84
2.58
1.95
0.68
-1.49
-4.77
-9.21
-14.58
-20.36
-25.75
-29.83
-31.85
-31.44
-28.71
-24.16
-18.58
-12.74
-7.30
-2.66
1.03
3.73
5.51
6.42
6.45
5.65
4.14
2.19
0.13
-1.68
-3.04
-3.93
-4.50
-4.95
-5.38
-5.75
-5.91
-5.73
-5.20
-4.50
-3.96
-3.89
-4.47
-5.71
-7.51
-9.72
-12.26
-14.98
-17.64
-19.76
-20.74
-20.03
-17.35
-12.87
-7.12
-0.78
5.54
11.40
16.50
20.44
22.73
22.91
20.81
16.79
11.72
6.72
2.76
0.35
-0.59
-0.53
-0.08
0.34
0.55
0.61
0.60
0.47
0.04
-0.91
-2.55
-4.88
-7.73
-10.91
-14.30
-17.91
-21.71
-25.44
-28.51
-30.10
-29.44
-26.18
-20.56
-13.36
-5.64
1.66
7.88
12.77
16.30
18.57
19.64
19.58
18.52
16.69
14.44
12.21
10.36
9.07
8.33
7.86
7.35
6.53
5.34
3.88
2.35
0.89
-0.53
-2.07
-3.93
-6.24
-9.02
-12.22
-15.77
-19.60
-23.49
-27.10
-29.85
-31.04
-30.14
-26.92
-21.63
-14.94
-7.72
-0.79
5.28
10.20
13.96
16.63
18.31
19.03
18.81
17.74
15.99
13.86
11.67
9.73
8.20
7.12
6.33
5.61
4.78
3.74
2.53
1.30
0.15
-0.90
-1.99
-3.38
-5.35
-8.07
-11.54
-15.56
-19.71
-23.43
-26.09
-27.18
-26.32
-23.46
-18.78
-12.75
-5.95
0.95
7.33
12.72
16.77
19.37
20.53
20.44
19.31
17.41
15.04
12.61
10.52
9.14
8.58
8.68
9.01
9.16
8.88
8.21
7.37
6.63
6.03
5.35
4.24
2.35
-0.49
-4.23
-8.69
-13.55
-18.40
-22.68
-25.73
-26.85
-25.52
-21.62
-15.59
-8.25
-0.64
6.33
12.09
16.44
19.51
21.46
22.41
22.40
21.39
19.46
16.87
14.05
11.54
9.75
8.87
8.77
9.07
9.35
9.29
8.76
7.87
6.80
5.69
4.61
3.43
1.94
-0.14
-3.02
-6.78
-11.31
-16.24
-21.00
-24.82
-26.99
-26.96
-24.51
-19.85
-13.58
-6.53
0.43
6.61
11.61
15.33
17.86
19.36
19.91
19.58
18.40
16.53
14.31
12.14
10.47
9.54
9.34
9.56
9.81
9.76
9.27
8.44
7.45
6.42
5.34
3.96
2.01
-0.74
-4.35
-8.67
-13.39
-18.04
-22.06
-24.84
-25.80
-24.60
-21.22
-16.06
-9.74
-3.02
3.43
9.16
13.92
17.57
19.97
21.01
20.62
18.87
16.08
12.71
9.34
6.52
4.59
3.63
3.44
3.67
3.95
4.06
3.91
3.55
3.02
2.28
1.22
-0.32
-2.48
-5.29
-8.71
-12.54
-16.48
-20.05
-22.64
-23.64
-22.68
-19.71
-15.11
-9.51
-3.60
2.13
7.38
12.00
15.79
18.42
19.56
19.02
16.99
14.01
10.89
8.35
6.76
6.06
5.82
5.55
4.92
3.92
2.77
1.77
1.03
0.43
-0.32
-1.54
-3.45
-6.14
-9.56
-13.60
-18.00
-22.33
-25.92
-27.97
-27.78
-25.04
-19.99
-13.36
-6.09
0.90
7.04
12.09
16.06
18.99
20.87
21.63
21.19
19.63
17.22
14.44
11.81
9.78
8.53
7.94
7.68
7.37
6.73
5.72
4.47
3.13
1.77
0.36
-1.28
-3.31
-5.89
-9.14
-13.10
-17.63
-22.33
-26.49
-29.19
-29.63
-27.35
-22.50
-15.74
-8.15
-0.86
5.18
9.32
11.28
11.15
9.29
6.30
2.84
-0.56
-3.56
-6.06
-8.04
-9.55
-10.54
-11.01
-11.06
-10.96
-11.09
-11.80
-13.25
-15.37
-17.94
-20.72
-23.54
-26.42
-29.44
-32.71
-36.30
-40.18
-44.08
-47.54
-49.87
-50.36
-48.46
-44.04
-37.48
-29.58
-21.31
-13.53
-6.75
-1.03
3.94
8.73
13.87
19.58
25.68
31.53
36.38
39.59
40.96
40.76
39.57
38.01
36.56
35.40
34.52
33.86
33.35
32.92
32.41
31.59
30.18
27.98
24.95
21.23
17.04
12.57
7.93
3.09
-1.93
-6.98
-11.63
-15.20
-16.97
-16.35
-13.22
-7.96
-1.36
5.61
12.10
17.53
21.70
24.61
26.36
27.01
26.55
25.08
22.85
20.31
17.96
16.24
15.33
15.16
15.45
15.91
16.29
16.43
16.22
15.61
14.66
13.48
12.20
10.89
9.48
7.85
5.81
3.29
0.37
-2.79
-5.93
-8.84
-11.24
-12.81
-13.18
-12.05
-9.32
-5.25
-0.38
4.64
9.14
12.71
15.15
16.50
16.89
16.49
15.42
13.77
11.63
9.15
6.63
4.48
3.05
2.55
2.87
3.65
4.42
4.79
4.56
3.81
2.75
1.59
0.46
-0.59
-1.63
-2.82
-4.33
-6.39
-9.17
-12.66
-16.61
-20.47
-23.53
-25.02
-24.43
-21.63
-16.92
-10.98
-4.65
1.30
6.39
10.44
13.52
15.78
17.25
17.92
17.73
16.73
15.11
13.20
11.32
9.70
8.43
7.47
6.70
5.99
5.24
4.42
3.50
2.49
1.35
0.02
-1.54
-3.40
-5.59
-8.10
-10.88
-13.86
-16.90
-19.74
-21.98
-23.17
-22.83
-20.69
-16.79
-11.50
-5.50
0.51
5.87
10.17
13.20
14.96
15.48
14.91
13.45
11.40
9.13
7.04
5.46
4.52
4.13
4.06
3.98
3.61
2.84
1.73
0.40
-0.99
-2.37
-3.79
-5.43
-7.52
-10.25
-13.72
-17.79
-22.09
-26.04
-29.00
-30.43
-29.99
-27.62
-23.54
-18.12
-11.83
-5.21
1.14
6.66
10.84
13.37
14.24
13.70
12.19
10.18
8.07
6.14
4.53
3.29
2.41
1.75
1.20
0.61
-0.09
-0.93
-1.85
-2.79
-3.74
-4.75
-5.96
-7.54
-9.68
-12.48
-15.91
-19.72
-23.38
-26.18
-27.35
-26.34
-22.99
-17.65
-11.09
-4.22
2.13
7.47
11.65
14.73
16.76
17.73
17.51
16.08
13.63
10.62
7.67
5.25
3.58
2.53
1.72
0.85
-0.20
-1.30
-2.17
-2.61
-2.64
-2.59
-2.94
-4.14
-6.43
-9.78
-13.87
-18.20
-22.20
-25.28
-26.94
-26.80
-24.78
-21.02
-15.95
-10.12
-4.08
1.73
7.06
11.78
15.80
18.92
20.84
21.23
19.89
17.01
13.15
9.14
5.81
3.63
2.62
2.40
2.43
2.23
1.67
0.84
-0.01
-0.66
-1.10
-1.50
-2.21
-3.56
-5.88
-9.26
-13.51
-18.10
-22.26
-25.14
-26.07
-24.73
-21.26
-16.11
-9.95
-3.38
3.08
9.05
14.19
18.12
20.52
21.22
20.30
18.13
15.26
12.24
9.51
7.32
5.76
4.77
4.26
4.04
3.92
3.68
3.16
2.27
1.01
-0.59
-2.47
-4.63
-7.10
-9.99
-13.36
-17.23
-21.39
-25.35
-28.37
-29.63
-28.55
-24.99
-19.38
-12.60
-5.65
0.67
5.99
10.32
13.86
16.70
18.76
19.80
19.62
18.24
16.02
13.54
11.41
9.99
9.28
8.98
8.66
8.08
7.21
6.27
5.53
5.04
4.68
4.09
2.94
1.07
-1.44
-4.40
-7.70
-11.29
-15.22
-19.31
-23.10
-25.81
-26.58
-24.89
-20.75
-14.74
-7.86
-1.10
4.80
9.50
12.93
15.21
16.41
16.57
15.71
13.98
11.74
9.48
7.70
6.73
6.62
7.07
7.64
7.91
7.62
6.81
5.67
4.43
3.23
2.06
0.81
-0.66
-2.50
-4.81
-7.68
-11.12
-14.99
-18.91
-22.25
-24.31
-24.47
-22.40
-18.23
-12.44
-5.77
1.02
7.23
12.38
16.17
18.48
19.31
18.80
17.18
14.76
11.94
9.15
6.82
5.23
4.45
4.30
4.46
4.57
4.45
4.11
3.70
3.37
3.09
2.66
1.81
0.32
-1.88
-4.74
-8.10
-11.78
-15.46
-18.67
-20.78
-21.21
-19.59
-16.00
-10.98
-5.35
0.09
4.80
8.63
11.64
13.91
15.36
15.76
14.95
12.97
10.21
7.28
4.81
3.21
2.54
2.52
2.75
2.88
2.79
2.51
2.20
1.94
1.65
1.12
0.06
-1.79
-4.57
-8.23
-12.57
-17.20
-21.60
-25.10
-27.02
-26.82
-24.28
-19.58
-13.31
-6.33
0.49
6.44
11.13
14.44
16.44
17.26
17.06
16.02
14.39
12.47
10.55
8.85
7.46
6.35
5.43
4.60
3.81
3.06
2.34
1.65
0.90
-0.04
-1.27
-2.90
-5.03
-7.79
-11.27
-15.39
-19.78
-23.75
-26.41
-26.95
-24.94
-20.54
-14.42
-7.56
-0.79
5.41
10.90
15.72
19.77
22.71
24.08
23.58
21.29
17.82
14.05
10.88
8.82
7.94
7.88
8.12
8.25
8.06
7.56
6.81
5.84
4.59
2.98
0.92
-1.56
-4.43
-7.68
-11.38
-15.58
-20.19
-24.79
-28.64
-30.83
-30.53
-27.39
-21.66
-14.16
-5.98
1.79
8.40
13.56
17.28
19.77
21.18
21.59
21.00
19.54
17.47
15.30
13.57
12.73
12.90
13.89
15.18
16.22
16.57
16.12
15.09
13.94
13.16
13.08
13.73
14.80
15.76
15.95
14.85
12.14
7.83
2.32
-3.67
-9.13
-12.95
-14.19
-12.39
-7.68
-0.66
7.90
17.41
27.66
38.83
51.05
64.04
76.85
87.93
95.53
98.25
95.57
87.98
76.93
64.43
52.43
42.42
35.04
30.08
26.71
23.87
20.60
16.25
10.63
3.92
-3.36
-10.53
-17.06
-22.74
-27.84
-32.93
-38.67
-45.45
-53.10
-60.89
-67.70
-72.23
-73.45
-70.79
-64.31
-54.75
-43.37
-31.62
-20.82
-11.83
-4.98
-0.16
2.90
4.45
4.69
3.83
2.22
0.32
-1.39
-2.59
-3.18
-3.32
-3.28
-3.36
-3.70
-4.33
-5.14
-6.03
-6.93
-7.90
-9.05
-10.48
-12.30
-14.50
-17.10
-20.09
-23.49
-27.29
-31.34
-35.28
-38.52
-40.38
-40.20
-37.66
-32.85
-26.32
-18.90
-11.50
-4.85
0.61
4.77
7.73
9.64
10.55
10.43
9.22
7.01
4.09
0.93
-1.92
-4.02
-5.19
-5.57
-5.43
-5.08
-4.73
-4.45
-4.24
-4.09
-4.05
-4.30
-4.98
-6.28
-8.28
-10.99
-14.33
-18.08
-21.87
-25.17
-27.39
-27.99
-26.63
-23.30
-18.31
-12.22
-5.67
0.76
6.56
11.35
14.86
16.93
17.54
16.85
15.17
12.91
10.47
8.19
6.24
4.70
3.48
2.42
1.33
0.12
-1.20
-2.48
-3.56
-4.36
-4.94
-5.60
-6.69
-8.55
-11.41
-15.28
-19.93
-24.85
-29.25
-32.26
-33.06
-31.25
-26.97
-20.87
-13.89
-6.88
-0.46
5.12
9.80
13.51
16.11
17.41
17.32
15.95
13.65
10.87
8.08
5.61
3.60
2.08
0.93
0.02
-0.80
-1.61
-2.45
-3.29
-4.12
-5.03
-6.18
-7.84
-10.30
-13.75
-18.17
-23.25
-28.36
-32.65
-35.20
-35.31
-32.70
-27.60
-20.70
-12.90
-5.09
2.16
8.53
13.95
18.30
21.44
23.11
23.20
21.76
19.22
16.19
13.31
11.07
9.64
8.89
8.52
8.21
7.77
7.14
6.38
5.52
4.57
3.41
1.89
-0.15
-2.87
-6.35
-10.69
-15.79
-21.37
-26.83
-31.28
-33.74
-33.45
-30.13
-24.10
-16.20
-7.56
0.78
8.11
14.11
18.76
22.13
24.24
25.01
24.43
22.62
19.96
16.98
14.20
11.94
10.26
8.97
7.82
6.61
5.28
3.89
2.55
1.31
0.10
-1.22
-2.82
-4.85
-7.39
-10.48
-14.16
-18.41
-23.09
-27.78
-31.72
-33.94
-33.52
-29.99
-23.58
-15.20
-6.16
2.35
9.58
15.37
19.91
23.42
25.91
27.16
26.94
25.27
22.51
19.25
16.07
13.29
10.89
8.72
6.60
4.54
2.73
1.43
0.75
0.59
0.63
0.43
-0.36
-1.96
-4.39
-7.58
-11.44
-15.85
-20.66
-25.58
-30.10
-33.50
-35.05
-34.19
-30.72
-24.96
-17.60
-9.56
-1.71
5.26
10.89
14.96
17.28
17.79
16.54
13.85
10.41
7.20
5.21
5.10
6.91
9.97
13.25
15.76
16.99
17.02
16.36
15.52
14.73
13.85
12.47
10.23
7.01
2.92
-1.83
-7.05
-12.60
-18.25
-23.54
-27.75
-30.06
-29.78
-26.69
-21.07
-13.70
-5.55
2.44
9.53
15.25
19.30
21.54
21.99
20.85
18.51
15.53
12.50
9.96
8.28
7.61
7.81
8.57
9.50
10.21
10.49
10.29
9.73
8.95
8.05
6.93
5.33
2.93
-0.54
-5.07
-10.31
-15.53
-19.71
-21.84
-21.13
-17.30
-10.67
-2.10
7.29
16.35
24.12
29.93
33.40
34.48
33.40
30.67
27.01
23.18
19.78
17.20
15.55
14.68
14.32
14.17
13.95
13.49
12.74
11.76
10.69
9.63
8.56
7.27
5.37
2.47
-1.75
-7.42
-14.28
-21.69
-28.58
-33.70
-35.96
-34.73
-30.11
-22.90
-14.28
-5.40
2.96
10.46
17.09
22.80
27.38
30.43
31.60
30.80
28.35
24.88
21.06
17.42
14.14
11.21
8.49
5.91
3.51
1.40
-0.35
-1.79
-3.06
-4.38
-5.97
-8.02
-10.74
-14.33
-18.92
-24.41
-30.33
-35.77
-39.63
-40.87
-38.92
-33.91
-26.64
-18.25
-9.85
-2.21
4.32
9.76
14.17
17.55
19.69
20.41
19.65
17.66
14.96
12.19
9.96
8.52
7.82
7.55
7.31
6.81
5.99
4.99
4.02
3.21
2.49
1.61
0.20
-2.03
-5.27
-9.50
-14.58
-20.18
-25.85
-30.98
-34.79
-36.51
-35.54
-31.70
-25.32
-17.23
-8.47
-0.04
7.41
13.56
18.42
22.04
24.44
25.56
25.37
23.94
21.57
18.75
16.02
13.79
12.23
11.24
10.57
9.96
9.23
8.32
7.27
6.09
4.73
3.08
1.00
-1.60
-4.77
-8.52
-12.87
-17.86
-23.46
-29.40
-35.07
-39.55
-41.79
-40.98
-36.88
-29.93
-21.09
-11.59
-2.45
5.65
12.44
17.85
21.83
24.27
25.13
24.53
22.87
20.73
18.72
17.26
16.48
16.27
16.38
16.55
16.62
16.49
16.07
15.31
14.16
12.63
10.72
8.48
5.90
2.92
-0.55
-4.63
-9.34
-14.55
-19.82
-24.41
-27.44
-28.13
-26.05
-21.32
-14.57
-6.77
1.12
8.37
14.57
19.57
23.31
25.70
26.66
26.16
24.33
21.56
18.38
15.40
13.10
11.63
10.82
10.28
9.53
8.25
6.41
4.23
2.03
0.09
-1.46
-2.68
-3.79
-5.02
-6.66
-8.98
-12.11
-15.97
-20.12
-23.76
-25.94
-25.79
-22.93
-17.54
-10.34
-2.27
5.78
13.22
19.67
24.90
28.63
30.53
30.36
28.17
24.44
19.99
15.76
12.46
10.30
8.97
7.75
5.92
3.07
-0.77
-5.11
-9.27
-12.68
-15.02
-16.38
-17.07
-17.54
-18.23
-19.53
-21.63
-24.48
-27.70
-30.60
-32.29
-32.06
-29.57
-25.05
-19.11
-12.57
-6.00
0.29
6.21
11.65
16.33
19.76
21.46
21.17
19.06
15.69
11.84
8.26
5.47
3.64
2.63
2.07
1.52
0.59
-0.95
-3.11
-5.67
-8.31
-10.74
-12.82
-14.63
-16.43
-18.64
-21.57
-25.28
-29.49
-33.55
-36.51
-37.44
-35.70
-31.12
-24.10
-15.50
-6.34
2.50
10.41
17.11
22.53
26.64
29.37
30.70
30.74
29.82
28.38
26.83
25.37
23.98
22.49
20.76
18.78
16.72
14.75
12.98
11.38
9.78
7.96
5.77
3.08
-0.20
-4.24
-9.17
-15.03
-21.58
-28.26
-34.19
-38.44
-40.21
-39.11
-35.26
-29.22
-21.83
-13.94
-6.25
0.84
7.12
12.51
16.91
20.20
22.21
22.87
22.31
20.85
18.98
17.20
15.86
15.11
14.91
15.09
15.43
15.67
15.48
14.60
12.82
10.14
6.78
3.10
-0.62
-4.25
-7.97
-12.06
-16.67
-21.56
-26.12
-29.47
-30.88
-30.05
-27.18
-22.74
-17.19
-10.74
-3.45
4.60
12.95
20.78
26.96
30.51
30.95
28.49
23.96
18.70
14.28
12.11
13.00
16.69
21.65
25.57
26.15
22.15
13.90
3.20
-7.37
-15.47
-19.70
-19.93
-17.14
-12.91
-8.97
-6.71
-6.86
-9.35
-13.37
-17.71
-21.28
-23.48
-24.33
-24.16
-23.31
-21.87
-19.79
-17.09
-14.10
-11.38
-9.53
-8.84
-9.22
-10.24
-11.35
-12.09
-12.15
-11.36
-9.76
-7.54
-5.02
-2.57
-0.50
1.04
2.13
2.93
3.51
3.78
3.50
2.44
0.53
-2.04
-4.95
-7.79
-10.20
-11.78
-12.17
-11.03
-8.18
-3.74
1.87
8.01
14.03
19.44
24.00
27.62
30.19
31.56
31.52
29.96
27.00
23.04
18.69
14.55
11.02
8.21
5.99
4.14
2.52
1.17
0.23
-0.24
-0.36
-0.52
-1.24
-3.02
-6.06
-10.19
-14.90
-19.46
-23.13
-25.33
-25.76
-24.31
-21.17
-16.71
-11.45
-5.91
-0.56
4.27
8.39
11.66
13.92
15.03
14.93
13.75
11.82
9.66
7.73
6.30
5.36
4.70
4.06
3.35
2.65
2.20
2.16
2.47
2.80
2.69
1.62
-0.71
-4.24
-8.61
-13.15
-17.07
-19.59
-20.13
-18.45
-14.63
-9.11
-2.50
4.51
11.32
17.44
22.49
26.21
28.36
28.82
27.64
25.02
21.36
17.15
12.94
9.12
5.96
3.49
1.59
0.10
-1.15
-2.22
-3.20
-4.18
-5.38
-7.08
-9.55
-12.97
-17.30
-22.22
-27.11
-31.20
-33.67
-33.89
-31.58
-26.93
-20.55
-13.28
-6.01
0.54
5.87
9.79
12.18
13.08
12.62
11.05
8.73
6.04
3.37
0.94
-1.18
-3.04
-4.81
-6.61
-8.54
-10.62
-12.71
-14.70
-16.48
-18.07
-19.67
-21.67
-24.52
-28.49
-33.41
-38.53
-42.57
-44.09
-42.02
-36.06
-26.87
-15.89
-4.79
5.02
12.75
18.28
21.88
23.92
24.67
24.26
22.78
20.54
17.95
15.55
13.76
12.75
12.33
12.08
11.53
10.35
8.60
6.67
5.19
4.59
4.91
5.62
5.83
4.59
1.37
-3.78
-10.20
-16.87
-22.61
-26.38
-27.40
-25.29
-20.11
-12.46
-3.33
5.99
14.31
20.85
25.38
28.16
29.75
30.71
31.34
31.69
31.69
31.30
30.68
30.11
29.83
29.82
29.77
29.16
27.52
24.74
21.09
17.13
13.47
10.43
7.94
5.63
2.98
-0.46
-4.90
-10.31
-16.39
-22.60
-28.20
-32.34
-34.18
-33.13
-29.05
-22.34
-13.90
-4.88
3.65
10.92
16.65
20.90
23.89
25.78
26.58
26.22
24.73
22.32
19.50
16.82
14.75
13.48
12.90
12.69
12.42
11.79
10.63
8.94
6.85
4.48
1.90
-0.86
-3.89
-7.29
-11.19
-15.73
-20.94
-26.72
-32.70
-38.20
-42.29
-44.02
-42.71
-38.26
-31.22
-22.70
-14.03
-6.37
-0.43
3.68
6.25
7.68
8.27
8.04
6.82
4.52
1.18
-2.79
-6.81
-10.27
-12.75
-14.14
-14.59
-14.40
-13.88
-13.30
-12.83
-12.60
-12.67
-13.09
-13.86
-15.02
-16.66
-18.92
-21.94
-25.65
-29.71
-33.47
-36.05
-36.53
-34.26
-29.05
-21.24
-11.68
-1.46
8.39
17.06
24.12
29.44
33.05
35.05
35.52
34.60
32.55
29.82
26.98
24.55
22.90
22.09
21.92
22.02
22.02
21.67
20.90
19.75
18.38
16.91
15.43
13.94
12.31
10.33
7.74
4.28
-0.16
-5.44
-11.09
-16.32
-20.25
-22.05
-21.26
-17.86
-12.31
-5.39
2.01
9.07
15.12
19.75
22.74
24.08
23.99
22.80
20.91
18.71
16.48
14.41
12.65
11.31
10.53
10.31
10.53
10.88
10.98
10.54
9.48
7.94
6.25
4.66
3.27
1.91
0.25
-2.00
-5.04
-8.83
-13.16
-17.56
-21.41
-23.97
-24.54
-22.63
-18.14
-11.51
-3.57
4.63
12.10
18.12
22.39
24.94
26.06
26.15
25.61
24.75
23.72
22.59
21.33
19.95
18.51
17.09
15.76
14.44
12.96
11.09
8.68
5.80
2.71
-0.19
-2.58
-4.34
-5.59
-6.66
-7.93
-9.67
-12.09
-15.27
-19.27
-24.04
-29.27
-34.28
-38.05
-39.45
-37.65
-32.47
-24.57
-15.15
-5.63
2.87
9.78
15.02
18.78
21.26
22.56
22.72
21.80
20.04
17.84
15.66
13.90
12.78
12.30
12.31
12.57
12.85
12.96
12.79
12.28
11.37
10.02
8.18
5.86
3.12
0.07
-3.14
-6.49
-10.01
-13.92
-18.34
-23.23
-28.16
-32.32
-34.76
-34.66
-31.68
-26.05
-18.56
-10.25
-2.13
5.07
10.96
15.44
18.57
20.43
21.12
20.70
19.30
17.12
14.50
11.81
9.43
7.62
6.45
5.90
5.82
6.04
6.34
6.49
6.22
5.25
3.44
0.80
-2.48
-6.08
-9.65
-12.91
-15.69
-18.01
-19.98
-21.85
-23.85
-26.13
-28.56
-30.68
-31.77
-31.07
-28.07
-22.77
-15.70
-7.79
-0.03
6.78
12.25
16.31
19.12
20.88
21.68
21.56
20.57
18.88
16.78
14.63
12.77
11.39
10.58
10.25
10.29
10.54
10.77
10.72
10.18
9.05
7.41
5.45
3.41
1.40
-0.64
-2.87
-5.53
-8.77
-12.62
-16.94
-21.37
-25.34
-28.11
-28.92
-27.26
-23.09
-16.86
-9.51
-2.11
4.42
9.52
13.07
15.23
16.33
16.68
16.38
15.47
13.89
11.71
9.17
6.73
4.86
3.85
3.67
3.94
4.17
3.97
3.27
2.25
1.27
0.50
-0.09
-0.78
-1.94
-3.78
-6.37
-9.57
-13.18
-16.97
-20.67
-23.86
-25.99
-26.47
-24.85
-21.07
-15.56
-9.10
-2.60
3.18
7.87
11.40
13.88
15.38
15.85
15.16
13.30
10.51
7.31
4.32
2.05
0.68
0.01
-0.42
-1.03
-2.02
-3.27
-4.45
-5.23
-5.50
-5.45
-5.41
-5.80
-6.90
-8.76
-11.31
-14.32
-17.52
-20.48
-22.69
-23.59
-22.69
-19.77
-14.98
-8.88
-2.30
3.90
9.06
12.84
15.19
16.29
16.32
15.42
13.70
11.31
8.53
5.79
3.52
1.99
1.15
0.65
0.04
-0.95
-2.27
-3.58
-4.45
-4.63
-4.25
-3.75
-3.75
-4.80
-7.19
-10.88
-15.46
-20.28
-24.51
-27.27
-27.88
-25.99
-21.74
-15.69
-8.67
-1.57
4.88
10.17
14.01
16.30
17.07
16.53
14.95
12.70
10.16
7.62
5.32
3.40
1.92
0.89
0.24
-0.14
-0.31
-0.31
-0.16
0.10
0.30
0.17
-0.64
-2.44
-5.36
-9.26
-13.84
-18.52
-22.66
-25.54
-26.51
-25.13
-21.32
-15.47
-8.38
-1.08
5.49
10.68
14.32
16.49
17.51
17.62
16.95
15.56
13.48
10.88
8.00
5.10
2.34
-0.26
-2.74
-5.13
-7.31
-9.09
-10.27
-10.87
-11.14
-11.52
-12.44
-14.18
-16.87
-20.45
-24.80
-29.63
-34.42
-38.42
-40.72
-40.59
-37.80
-32.74
-26.36
-19.76
-13.84
-9.05
-5.37
-2.57
-0.49
0.84
1.18
0.30
-1.86
-5.05
-8.74
-12.32
-15.27
-17.31
-18.39
-18.60
-18.09
-16.90
-15.08
-12.72
-10.06
-7.46
-5.40
-4.33
-4.63
-6.53
-10.07
-15.09
-21.03
-27.01
-31.83
-34.38
-33.81
-29.91
-23.14
-14.51
-5.26
3.48
10.97
17.00
21.71
25.47
28.51
30.88
32.49
33.19
33.06
32.42
31.75
31.52
31.89
32.70
33.54
33.97
33.69
32.70
31.14
29.24
27.12
24.78
22.14
19.09
15.61
11.73
7.51
3.05
-1.54
-5.98
-9.77
-12.27
-12.79
-10.97
-6.89
-1.24
5.02
10.92
15.84
19.62
22.44
24.57
26.18
27.26
27.78
27.82
27.62
27.43
27.39
27.41
27.11
26.04
23.86
20.54
16.37
11.85
7.51
3.72
0.64
-1.78
-3.71
-5.36
-6.99
-8.86
-11.29
-14.58
-18.86
-24.01
-29.48
-34.38
-37.66
-38.44
-36.29
-31.37
-24.43
-16.47
-8.53
-1.34
4.73
9.58
13.20
15.52
16.42
15.83
13.88
11.08
8.15
5.89
4.84
5.21
6.79
9.10
11.62
13.84
15.40
16.14
16.04
15.29
14.11
12.66
10.91
8.53
5.10
0.34
-5.63
-12.18
-18.26
-22.78
-24.87
-24.12
-20.52
-14.43
-6.41
2.82
12.44
21.56
29.40
35.30
38.93
40.19
39.28
36.56
32.55
27.86
23.09
18.76
15.14
12.28
10.01
8.11
6.40
4.84
3.49
2.37
1.43
0.50
-0.67
-2.32
-4.63
-7.71
-11.53
-15.95
-20.67
-25.21
-28.93
-31.12
-31.19
-28.84
-24.17
-17.73
-10.27
-2.65
4.46
10.56
15.37
18.73
20.54
20.77
19.62
17.46
14.91
12.61
11.12
10.68
11.16
12.12
13.00
13.30
12.76
11.40
9.46
7.24
4.98
2.72
0.35
-2.33
-5.53
-9.35
-13.71
-18.38
-22.91
-26.71
-29.13
-29.69
-28.18
-24.78
-20.00
-14.45
-8.68
-3.04
2.28
7.16
11.41
14.71
16.78
17.45
16.84
15.29
13.29
11.28
9.58
8.35
7.56
7.06
6.63
6.06
5.19
3.98
2.52
0.96
-0.58
-2.09
-3.75
-5.85
-8.72
-12.60
-17.43
-22.77
-27.81
-31.53
-32.96
-31.48
-27.06
-20.26
-12.01
-3.41
4.68
11.70
17.40
21.72
24.62
26.05
25.98
24.53
22.00
18.89
15.80
13.23
11.47
10.49
9.99
9.59
8.95
7.95
6.66
5.29
4.03
2.95
1.91
0.60
-1.30
-3.99
-7.52
-11.75
-16.36
-20.89
-24.76
-27.28
-27.82
-25.95
-21.65
-15.40
-8.09
-0.79
5.61
10.70
14.52
17.42
19.70
21.43
22.35
22.08
20.46
17.72
14.50
11.58
9.56
8.58
8.35
8.37
8.18
7.66
7.01
6.53
6.35
6.29
5.84
4.46
1.81
-2.06
-6.74
-11.68
-16.38
-20.50
-23.74
-25.75
-26.11
-24.40
-20.45
-14.57
-7.47
-0.10
6.71
12.47
17.01
20.40
22.69
23.87
23.88
22.77
20.75
18.24
15.72
13.58
12.09
11.20
10.70
10.29
9.66
8.60
7.04
5.06
2.85
0.60
-1.54
-3.53
-5.50
-7.65
-10.23
-13.39
-17.02
-20.75
-23.98
-26.05
-26.43
-24.80
-21.20
-15.88
-9.32
-2.08
5.21
11.88
17.34
21.17
23.17
23.44
22.36
20.41
18.10
15.86
13.97
12.57
11.66
11.14
10.83
10.57
10.28
9.98
9.77
9.74
9.91
10.18
10.31
10.02
8.94
6.78
3.32
-1.41
-6.98
-12.55
-17.05
-19.50
-19.34
-16.69
-12.24
-6.99
-1.88
2.51
5.94
8.38
9.83
10.20
9.45
7.69
5.31
2.90
0.98
-0.12
-0.45
-0.36
-0.29
-0.63
-1.55
-2.98
-4.70
-6.47
-8.14
-9.63
-10.99
-12.32
-13.77
-15.49
-17.66
-20.36
-23.50
-26.74
-29.41
-30.73
-30.05
-27.07
-22.08
-15.79
-9.11
-2.81
2.68
7.21
10.77
13.32
14.74
14.91
13.92
12.07
9.86
7.75
6.06
4.82
3.86
2.93
1.90
0.83
-0.12
-0.73
-0.93
-0.83
-0.71
-0.86
-1.49
-2.66
-4.36
-6.57
-9.31
-12.57
-16.09
-19.32
-21.47
-21.75
-19.75
-15.63
-10.07
-4.02
1.67
6.51
10.35
13.28
15.31
16.34
16.20
14.83
12.45
9.54
6.70
4.43
2.86
1.80
0.85
-0.31
-1.75
-3.27
-4.54
-5.32
-5.65
-5.82
-6.27
-7.36
-9.30
-12.06
-15.48
-19.18
-22.67
-25.31
-26.48
-25.71
-22.89
-18.38
-12.85
-7.09
-1.72
2.94
6.76
9.72
11.75
12.77
12.74
11.77
10.13
8.18
6.19
4.32
2.58
0.96
-0.52
-1.80
-2.76
-3.35
-3.56
-3.52
-3.44
-3.57
-4.19
-5.57
-7.89
-11.18
-15.22
-19.52
-23.33
-25.83
-26.32
-24.49
-20.51
-14.98
-8.75
-2.63
2.84
7.34
10.81
13.20
14.47
14.56
13.51
11.54
9.03
6.43
4.09
2.16
0.55
-0.91
-2.40
-3.95
-5.38
-6.45
-7.00
-7.04
-6.86
-6.87
-7.51
-9.09
-11.69
-15.12
-18.90
-22.35
-24.68
-25.18
-23.43
-19.46
-13.78
-7.22
-0.67
5.17
9.91
13.40
15.68
16.76
16.67
15.48
13.39
10.80
8.17
5.90
4.20
3.01
2.03
0.93
-0.53
-2.32
-4.15
-5.65
-6.55
-6.97
-7.29
-8.12
-10.02
-13.27
-17.74
-22.90
-27.95
-31.93
-34.04
-33.77
-31.03
-26.26
-20.23
-13.84
-7.81
-2.55
1.87
5.52
8.40
10.42
11.37
11.07
9.57
7.19
4.40
1.67
-0.60
-2.25
-3.29
-3.83
-4.04
-4.07
-4.09
-4.19
-4.43
-4.67
-4.68
-4.14
-2.90
-1.08
0.85
2.22
2.54
1.79
0.58
0.02
1.18
4.71
10.52
17.86
25.67
32.96
39.10
43.78
47.00
48.80
49.27
48.53
46.83
44.55
42.15
40.07
38.57
37.63
36.95
36.03
34.42
31.88
28.52
24.77
21.16
18.10
15.66
13.55
11.24
8.13
3.79
-1.98
-8.95
-16.58
-24.00
-30.17
-34.13
-35.30
-33.62
-29.58
-24.02
-17.85
-11.78
-6.20
-1.25
3.03
6.54
9.13
10.63
10.96
10.13
8.26
5.54
2.26
-1.22
-4.48
-7.25
-9.37
-10.92
-12.10
-13.11
-13.96
-14.55
-14.65
-14.16
-13.14
-11.90
-10.90
-10.62
-11.45
-13.60
-17.06
-21.51
-26.32
-30.60
-33.37
-33.87
-31.77
-27.30
-21.19
-14.36
-7.64
-1.50
3.93
8.70
12.84
16.10
18.08
18.37
16.85
13.82
10.02
6.33
3.49
1.82
1.23
1.30
1.52
1.56
1.27
0.68
-0.15
-1.19
-2.41
-3.75
-5.02
-6.04
-6.82
-7.62
-8.94
-11.21
-14.48
-18.15
-21.12
-22.18
-20.56
-16.27
-10.09
-3.12
3.67
9.81
15.30
20.27
24.60
27.85
29.41
28.83
26.26
22.40
18.33
15.10
13.31
12.90
13.33
13.85
13.79
12.87
11.10
8.73
6.00
3.08
-0.01
-3.26
-6.60
-9.96
-13.32
-16.80
-20.56
-24.69
-28.89
-32.48
-34.51
-34.18
-31.19
-25.88
-19.10
-11.85
-4.88
1.42
6.97
11.77
15.73
18.60
20.05
19.92
18.31
15.68
12.72
10.15
8.46
7.75
7.73
7.89
7.76
7.10
5.98
4.65
3.36
2.18
0.97
-0.48
-2.36
-4.71
-7.47
-10.59
-14.14
-18.15
-22.53
-26.86
-30.32
-31.96
-30.95
-26.97
-20.36
-12.02
-3.13
5.22
12.29
17.76
21.62
24.07
25.29
25.40
24.52
22.83
20.60
18.24
16.13
14.57
13.62
13.13
12.79
12.30
11.50
10.36
8.96
7.43
5.83
4.21
2.56
0.81
-1.15
-3.48
-6.38
-10.05
-14.63
-20.04
-25.91
-31.54
-36.04
-38.50
-38.31
-35.32
-29.90
-22.77
-14.81
-6.76
0.81
7.51
13.08
17.30
20.08
21.46
21.71
21.20
20.31
19.35
18.41
17.50
16.59
15.70
14.92
14.39
14.19
14.29
14.53
14.68
14.46
13.67
12.20
10.03
7.26
4.07
0.65
-2.86
-6.42
-10.13
-14.18
-18.76
-23.82
-28.95
-33.37
-36.10
-36.28
-33.52
-28.06
-20.65
-12.39
-4.27
2.98
9.01
13.80
17.37
19.79
21.10
21.37
20.79
19.63
18.24
16.90
15.81
14.98
14.38
13.90
13.54
13.31
13.20
13.16
12.98
12.44
11.32
9.57
7.36
4.94
2.55
0.31
-1.88
-4.23
-6.97
-10.30
-14.30
-18.90
-23.79
-28.35
-31.79
-33.22
-32.12
-28.38
-22.54
-15.46
-8.07
-1.07
5.16
10.49
14.87
18.19
20.34
21.28
21.16
20.25
18.85
17.26
15.62
14.09
12.77
11.79
11.23
11.07
11.22
11.50
11.74
11.75
11.41
10.58
9.19
7.19
4.65
1.73
-1.41
-4.63
-7.96
-11.54
-15.59
-20.18
-25.11
-29.79
-33.33
-34.82
-33.60
-29.56
-23.18
-15.40
-7.26
0.32
6.79
11.93
15.78
18.44
20.00
20.55
20.17
18.98
17.19
15.05
12.82
10.80
9.23
8.22
7.75
7.66
7.75
7.82
7.76
7.52
7.14
6.58
5.72
4.43
2.61
0.28
-2.42
-5.33
-8.40
-11.68
-15.28
-19.09
-22.75
-25.58
-26.85
-25.98
-22.83
-17.79
-11.57
-5.05
1.03
6.18
10.16
12.96
14.62
15.25
14.92
13.72
11.81
9.42
6.88
4.57
2.83
1.85
1.63
1.92
2.39
2.71
2.70
2.34
1.74
0.98
0.05
-1.13
-2.69
-4.67
-7.04
-9.76
-12.84
-16.34
-20.21
-24.10
-27.35
-29.04
-28.41
-25.13
-19.55
-12.59
-5.37
1.16
6.50
10.56
13.53
15.54
16.60
16.58
15.41
13.21
10.31
7.27
4.60
2.65
1.48
0.90
0.54
0.08
-0.64
-1.54
-2.43
-3.14
-3.62
-4.02
-4.62
-5.66
-7.32
-9.67
-12.67
-16.21
-20.01
-23.59
-26.26
-27.28
-26.14
-22.76
-17.60
-11.49
-5.30
0.31
5.05
8.87
11.83
13.89
14.94
14.84
13.60
11.42
8.68
5.85
3.28
1.15
-0.52
-1.87
-3.00
-3.98
-4.76
-5.28
-5.51
-5.56
-5.66
-6.11
-7.15
-8.93
-11.47
-14.75
-18.66
-22.99
-27.31
-30.93
-33.02
-32.90
-30.31
-25.55
-19.39
-12.75
-6.32
-0.46
4.82
9.56
13.60
16.59
18.08
17.82
15.96
13.01
9.71
6.77
4.55
3.04
2.02
1.15
0.22
-0.74
-1.57
-2.10
-2.29
-2.30
-2.47
-3.15
-4.63
-7.02
-10.31
-14.40
-19.13
-24.12
-28.78
-32.30
-33.82
-32.74
-28.97
-22.97
-15.62
-7.96
-0.81
5.36
10.41
14.37
17.30
19.19
19.96
19.65
18.40
16.49
14.27
12.03
10.03
8.37
7.07
6.09
5.30
4.61
3.91
3.20
2.48
1.69
0.70
-0.72
-2.82
-5.80
-9.73
-14.50
-19.78
-25.07
-29.69
-32.95
-34.16
-32.92
-29.17
-23.25
-15.86
-7.87
-0.13
6.74
12.42
16.82
20.01
22.08
23.08
22.97
21.78
19.62
16.86
14.06
11.77
10.39
9.97
10.24
10.73
10.99
10.76
10.00
8.78
7.23
5.45
3.44
1.15
-1.49
-4.63
-8.44
-13.06
-18.50
-24.41
-30.06
-34.45
-36.51
-35.51
-31.25
-24.18
-15.23
-5.56
3.75
11.97
18.68
23.79
27.35
29.41
30.02
29.26
27.36
24.70
21.81
19.22
17.30
16.19
15.81
15.90
16.16
16.31
16.18
15.63
14.59
13.04
11.02
8.56
5.74
2.62
-0.77
-4.38
-8.26
-12.48
-17.14
-22.22
-27.48
-32.30
-35.77
-36.91
-35.04
-30.07
-22.57
-13.56
-4.17
4.70
12.55
19.19
24.56
28.59
31.23
32.50
32.62
31.95
30.88
29.69
28.50
27.35
26.28
25.42
24.88
24.64
24.50
24.15
23.28
21.75
19.66
17.23
14.70
12.15
9.51
6.66
3.43
-0.26
-4.46
-9.24
-14.60
-20.45
-26.39
-31.70
-35.37
-36.42
-34.19
-28.65
-20.46
-10.85
-1.19
7.36
14.16
19.08
22.33
24.27
25.18
25.20
24.37
22.76
20.55
18.05
15.67
13.79
12.69
12.41
12.76
13.43
14.01
14.23
14.00
13.41
12.61
11.65
10.43
8.71
6.31
3.17
-0.61
-4.83
-9.38
-14.14
-18.95
-23.35
-26.54
-27.59
-25.87
-21.36
-14.75
-7.23
0.02
6.20
11.06
14.78
17.59
19.62
20.74
20.73
19.50
17.20
14.25
11.24
8.73
7.08
6.33
6.25
6.47
6.60
6.45
6.07
5.62
5.25
4.97
4.54
3.67
2.09
-0.28
-3.36
-6.98
-10.94
-15.04
-19.05
-22.56
-24.97
-25.68
-24.25
-20.55
-14.97
-8.22
-1.18
5.36
10.86
15.05
17.88
19.30
19.34
18.07
15.66
12.52
9.17
6.14
3.82
2.28
1.31
0.60
-0.17
-1.09
-2.06
-2.91
-3.55
-4.11
-4.87
-6.16
-8.19
-11.00
-14.45
-18.42
-22.80
-27.51
-32.31
-36.77
-40.20
-41.90
-41.35
-38.40
-33.29
-26.43
-18.24
-9.02
0.95
11.22
21.04
29.40
35.31
38.11
37.83
35.13
31.14
26.99
23.48
20.89
19.08
17.66
16.32
14.89
13.36
11.76
10.03
8.10
5.84
3.20
0.21
-3.05
-6.54
-10.27
-14.34
-18.75
-23.26
-27.31
-30.10
-30.82
-28.97
-24.67
-18.55
-11.62
-4.86
1.02
5.78
9.49
12.39
14.64
16.34
17.42
17.83
17.54
16.68
15.46
14.16
13.04
12.21
11.65
11.21
10.67
9.96
9.07
8.10
7.04
5.83
4.26
2.14
-0.56
-3.73
-7.16
-10.69
-14.34
-18.23
-22.39
-26.51
-29.94
-31.79
-31.30
-28.16
-22.73
-15.86
-8.59
-1.79
4.06
8.84
12.65
15.56
17.56
18.51
18.36
17.19
15.30
13.13
11.15
9.68
8.85
8.57
8.65
8.84
8.97
8.93
8.60
7.91
6.76
5.10
3.01
0.63
-1.85
-4.34
-6.89
-9.70
-13.04
-17.11
-21.90
-27.05
-31.89
-35.57
-37.21
-36.25
-32.64
-26.88
-19.83
-12.44
-5.47
0.69
5.96
10.42
14.10
16.91
18.74
19.54
19.43
18.66
17.55
16.38
15.35
14.55
14.01
13.74
13.75
13.98
14.30
14.46
14.19
13.30
11.74
9.61
7.18
4.62
2.06
-0.54
-3.29
-6.37
-9.89
-13.90
-18.37
-23.10
-27.67
-31.45
-33.66
-33.63
-31.05
-26.15
-19.64
-12.48
-5.52
0.65
5.85
10.06
13.30
15.46
16.39
16.05
14.61
12.50
10.29
8.45
7.26
6.69
6.55
6.57
6.57
6.48
6.34
6.18
6.01
5.78
5.38
4.74
3.82
2.66
1.21
-0.62
-3.01
-6.17
-10.12
-14.60
-19.00
-22.50
-24.25
-23.68
-20.74
-15.86
-9.78
-3.37
2.67
7.91
12.19
15.51
17.93
19.45
19.99
19.48
17.89
15.35
12.13
8.68
5.49
2.96
1.26
0.29
-0.19
-0.51
-0.89
-1.44
-2.13
-2.92
-3.81
-4.86
-6.20
-8.00
-10.40
-13.49
-17.23
-21.40
-25.54
-28.98
-31.02
-31.11
-29.04
-24.99
-19.47
-13.18
-6.72
-0.56
5.00
9.77
13.58
16.26
17.64
17.64
16.37
14.14
11.41
8.66
6.28
4.46
3.18
2.27
1.54
0.89
0.32
-0.11
-0.34
-0.44
-0.57
-0.96
-1.83
-3.32
-5.56
-8.59
-12.41
-16.81
-21.34
-25.22
-27.55
-27.57
-24.95
-19.99
-13.51
-6.50
0.14
5.97
10.83
14.79
17.81
19.68
20.15
19.10
16.76
13.68
10.56
8.04
6.37
5.50
5.07
4.66
3.97
2.97
1.78
0.64
-0.29
-1.02
-1.76
-2.84
-4.57
-7.12
-10.53
-14.67
-19.29
-24.00
-28.27
-31.43
-32.83
-31.97
-28.72
-23.41
-16.75
-9.64
-2.91
2.90
7.55
11.04
13.46
14.87
15.25
14.54
12.85
10.44
7.77
5.34
3.54
2.47
1.97
1.68
1.22
0.42
-0.66
-1.83
-2.91
-3.83
-4.74
-5.86
-7.42
-9.59
-12.43
-15.96
-20.05
-24.36
-28.28
-30.92
-31.40
-29.16
-24.27
-17.43
-9.72
-2.21
4.43
10.02
14.69
18.58
21.64
23.64
24.31
23.58
21.65
18.96
16.03
13.31
11.09
9.46
8.42
7.85
7.57
7.40
7.13
6.56
5.55
4.06
2.07
-0.31
-3.04
-6.05
-9.40
-13.15
-17.35
-21.88
-26.34
-30.07
-32.26
-32.21
-29.60
-24.63
-17.99
-10.59
-3.29
3.32
9.00
13.73
17.55
20.42
22.18
22.66
21.85
19.99
17.54
15.10
13.17
11.99
11.53
11.48
11.48
11.24
10.59
9.56
8.25
6.76
5.16
3.40
1.43
-0.80
-3.34
-6.26
-9.64
-13.59
-18.13
-22.97
-27.49
-30.76
-31.82
-30.00
-25.26
-18.26
-10.05
-1.81
5.59
11.70
16.48
20.00
22.39
23.66
23.84
23.03
21.47
19.49
17.46
15.69
14.36
13.53
13.17
13.14
13.29
13.40
13.31
12.89
12.07
10.87
9.34
7.55
5.51
3.23
0.63
-2.31
-5.67
-9.46
-13.60
-17.87
-21.83
-24.85
-26.21
-25.34
-22.05
-16.66
-9.95
-2.89
3.62
9.01
13.13
16.13
18.26
19.68
20.36
20.20
19.13
17.30
15.04
12.85
11.15
10.13
9.70
9.54
9.27
8.66
7.69
6.55
5.50
4.70
4.12
3.50
2.51
0.84
-1.68
-5.05
-9.09
-13.50
-17.85
-21.63
-24.27
-25.23
-24.17
-21.02
-16.08
-9.92
-3.27
3.18
8.92
13.62
17.13
19.36
20.32
20.06
18.73
16.60
14.02
11.42
9.16
7.57
6.81
6.84
7.42
8.14
8.58
8.42
7.57
6.18
4.53
2.83
1.13
-0.70
-2.90
-5.69
-9.15
-13.16
-17.48
-21.66
-25.17
-27.37
-27.65
-25.57
-21.11
-14.72
-7.29
0.19
6.85
12.21
16.20
19.00
20.80
21.70
21.70
20.82
19.17
16.99
14.59
12.28
10.29
8.78
7.75
7.15
6.74
6.27
5.53
4.41
2.98
1.44
-0.06
-1.50
-3.05
-4.98
-7.57
-10.94
-15.06
-19.67
-24.35
-28.48
-31.40
-32.46
-31.24
-27.67
-22.05
-15.09
-7.62
-0.43
5.94
11.23
15.43
18.62
20.91
22.34
22.92
22.69
21.74
20.25
18.46
16.65
15.04
13.81
13.00
12.56
12.25
11.81
10.99
9.69
7.96
5.94
3.76
1.47
-1.00
-3.72
-6.71
-9.96
-13.49
-17.36
-21.66
-26.26
-30.67
-34.04
-35.34
-33.81
-29.23
-22.17
-13.68
-5.03
2.78
9.19
14.10
17.66
20.10
21.61
22.26
22.12
21.30
19.98
18.42
16.86
15.49
14.40
13.55
12.89
12.39
12.01
11.76
11.56
11.22
10.44
9.01
6.85
4.10
1.10
-1.83
-4.52
-7.09
-9.88
-13.30
-17.62
-22.75
-28.20
-33.10
-36.50
-37.57
-35.99
-31.94
-26.10
-19.33
-12.48
-6.20
-0.84
3.44
6.61
8.68
9.71
9.72
8.75
6.82
4.05
0.72
-2.67
-5.41
-6.80
-6.45
-4.42
-1.37
1.69
3.71
3.89
1.87
-2.27
-8.24
-15.64
-24.02
-32.75
-40.89
-47.29
-50.90
-51.28
-48.86
-44.85
-40.69
-37.37
-34.96
-32.69
-29.53
-24.74
-18.34
-10.99
-3.55
3.34
9.47
14.99
20.06
24.70
28.72
31.86
33.98
35.06
35.25
34.77
33.76
32.33
30.47
28.12
25.26
22.04
18.81
16.08
14.32
13.78
14.27
15.23
15.94
15.84
14.71
12.73
10.23
7.47
4.43
0.82
-3.63
-8.90
-14.45
-19.34
-22.47
-23.06
-20.90
-16.48
-10.69
-4.56
1.10
5.87
9.63
12.48
14.52
15.79
16.31
16.11
15.35
14.26
13.21
12.62
12.95
14.53
17.54
21.83
26.95
32.21
36.94
40.65
43.15
44.53
45.00
44.69
43.66
41.89
39.35
35.94
31.41
25.41
17.66
8.28
-1.93
-11.56
-18.95
-22.80
-22.63
-18.99
-13.12
-6.46
-0.19
5.00
8.81
11.21
12.22
11.97
10.64
8.57
6.20
3.94
2.12
0.87
0.15
-0.23
-0.56
-1.10
-2.05
-3.43
-5.14
-6.99
-8.75
-10.28
-11.55
-12.63
-13.69
-14.90
-16.40
-18.29
-20.60
-23.37
-26.57
-30.07
-33.50
-36.30
-37.71
-37.05
-33.95
-28.49
-21.27
-13.22
-5.34
1.54
6.93
10.71
13.07
14.37
14.99
15.22
15.15
14.70
13.79
12.39
10.65
8.84
7.24
5.96
4.92
3.94
2.84
1.62
0.44
-0.50
-1.12
-1.55
-2.09
-3.07
-4.71
-7.00
-9.73
-12.50
-14.89
-16.49
-16.95
-16.06
-13.77
-10.26
-5.89
-1.19
3.34
7.29
10.43
12.76
14.37
15.37
15.77
15.47
14.34
12.35
9.69
6.78
4.11
2.03
0.69
-0.07
-0.59
-1.17
-1.97
-2.89
-3.74
-4.35
-4.70
-4.94
-5.34
-6.22
-7.80
-10.21
-13.38
-17.02
-20.61
-23.47
-24.93
-24.55
-22.27
-18.38
-13.49
-8.26
-3.19
1.42
5.43
8.74
11.26
12.83
13.35
12.84
11.49
9.64
7.66
5.78
4.12
2.59
1.03
-0.66
-2.44
-4.14
-5.53
-6.49
-7.03
-7.34
-7.74
-8.56
-10.10
-12.52
-15.82
-19.78
-23.95
-27.69
-30.25
-31.00
-29.63
-26.26
-21.35
-15.56
-9.54
-3.78
1.41
5.80
9.18
11.37
12.32
12.12
11.13
9.81
8.55
7.54
6.70
5.75
4.47
2.80
0.93
-0.81
-2.16
-3.08
-3.75
-4.45
-5.42
-6.76
-8.43
-10.47
-12.99
-16.20
-20.12
-24.48
-28.52
-31.26
-31.85
-29.89
-25.66
-19.97
-13.79
-7.91
-2.77
1.52
5.01
7.67
9.35
9.83
9.01
7.05
4.40
1.69
-0.52
-1.86
-2.35
-2.26
-1.99
-1.83
-1.88
-1.98
-1.95
-1.67
-1.28
-1.14
-1.65
-3.19
-5.93
-9.80
-14.53
-19.60
-24.39
-28.15
-30.15
-29.91
-27.25
-22.45
-16.12
-9.07
-2.08
4.26
9.65
14.00
17.34
19.73
21.17
21.68
21.29
20.17
18.60
16.96
15.59
14.69
14.23
14.00
13.71
13.15
12.26
11.13
9.90
8.68
7.39
5.89
3.97
1.45
-1.77
-5.72
-10.29
-15.19
-19.90
-23.73
-25.88
-25.74
-23.08
-18.17
-11.69
-4.50
2.61
9.08
14.62
19.16
22.69
25.18
26.56
26.78
25.90
24.13
21.85
19.53
17.59
16.27
15.59
15.36
15.30
15.10
14.58
13.62
12.23
10.45
8.38
6.18
3.96
1.79
-0.41
-2.81
-5.64
-9.04
-13.00
-17.25
-21.29
-24.45
-26.07
-25.64
-22.90
-18.01
-11.47
-4.04
3.40
10.07
15.49
19.50
22.18
23.76
24.43
24.25
23.25
21.46
19.13
16.64
14.45
12.92
12.19
12.10
12.25
12.27
11.85
10.98
9.72
8.27
6.68
4.96
3.01
0.73
-1.91
-4.96
-8.43
-12.35
-16.65
-21.05
-24.98
-27.69
-28.42
-26.72
-22.68
-16.85
-10.10
-3.30
2.91
8.23
12.59
15.96
18.22
19.16
18.58
16.53
13.36
9.82
6.81
5.13
5.17
6.82
9.42
12.07
13.94
14.56
13.92
12.34
10.24
7.89
5.34
2.46
-0.85
-4.60
-8.63
-12.77
-16.85
-20.76
-24.27
-26.99
-28.33
-27.74
-24.89
-19.93
-13.43
-6.25
0.73
6.87
11.80
15.40
17.60
18.39
17.78
15.95
13.32
10.56
8.47
7.67
8.39
10.39
13.01
15.48
17.15
17.79
17.47
16.53
15.30
13.90
12.24
10.09
7.28
3.85
-0.05
-4.20
-8.50
-13.02
-17.82
-22.77
-27.39
-30.83
-32.17
-30.80
-26.73
-20.61
-13.52
-6.54
-0.46
4.44
8.21
11.10
13.29
14.80
15.54
15.47
14.67
13.48
12.27
11.36
10.80
10.45
10.02
9.26
8.14
6.80
5.53
4.57
4.01
3.73
3.51
3.13
2.40
1.19
-0.55
-2.90
-5.98
-9.85
-14.46
-19.51
-24.38
-28.19
-30.02
-29.20
-25.52
-19.40
-11.72
-3.63
3.85
10.06
14.77
18.13
20.44
21.98
22.87
23.15
22.90
22.25
21.41
20.58
19.86
19.20
18.50
17.71
16.80
15.88
14.97
14.05
13.00
11.67
9.99
8.06
6.08
4.21
2.52
0.88
-0.96
-3.29
-6.34
-10.17
-14.64
-19.43
-23.99
-27.64
-29.70
-29.61
-27.19
-22.64
-16.55
-9.73
-2.98
3.13
8.26
12.32
15.39
17.58
19.01
19.77
19.95
19.62
18.89
17.90
16.81
15.76
14.87
14.17
13.61
13.11
12.55
11.87
11.02
9.96
8.64
7.02
5.08
2.87
0.45
-2.09
-4.72
-7.46
-10.44
-13.81
-17.59
-21.68
-25.68
-28.98
-30.93
-30.95
-28.81
-24.66
-18.99
-12.54
-6.10
-0.29
4.50
8.11
10.62
12.20
13.01
13.12
12.57
11.41
9.77
7.94
6.25
5.01
4.39
4.36
4.75
5.29
5.74
5.90
5.67
4.99
3.89
2.41
0.67
-1.25
-3.25
-5.30
-7.41
-9.70
-12.28
-15.27
-18.59
-21.95
-24.81
-26.46
-26.28
-23.92
-19.56
-13.85
-7.72
-2.06
2.52
5.86
8.08
9.46
10.16
10.20
9.46
7.90
5.60
2.89
0.24
-1.87
-3.11
-3.40
-2.94
-2.13
-1.43
-1.29
-1.91
-3.31
-5.30
-7.42
-9.11
-9.77
-9.02
-6.84
-3.68
-0.38
2.17
3.36
3.07
1.76
0.17
-0.97
-1.24
-0.58
0.80
2.58
4.51
6.40
8.12
9.48
10.30
10.38
9.59
7.99
5.77
3.29
0.99
-0.75
-1.70
-1.86
-1.43
-0.71
-0.01
0.40
0.44
0.06
-0.68
-1.65
-2.77
-3.91
-5.02
-6.06
-7.05
-8.09
-9.37
-11.17
-13.70
-17.01
-20.79
-24.38
-26.87
-27.42
-25.60
-21.61
-16.16
-10.29
-4.91
-0.58
2.57
4.77
6.37
7.64
8.71
9.54
10.00
9.96
9.42
8.51
7.48
6.60
6.04
5.79
5.74
5.77
5.84
6.06
6.49
7.10
7.61
7.62
6.81
5.10
2.70
-0.03
-2.87
-5.86
-9.28
-13.37
-18.03
-22.68
-26.35
-28.02
-27.09
-23.61
-18.25
-12.00
-5.80
-0.25
4.44
8.30
11.37
13.59
14.82
14.98
14.19
12.76
11.14
9.72
8.72
8.18
7.97
7.94
7.96
7.99
8.00
7.97
7.82
7.41
6.61
5.33
3.59
1.45
-0.94
-3.49
-6.18
-9.13
-12.53
-16.57
-21.23
-26.19
-30.77
-34.05
-35.18
-33.66
-29.58
-23.51
-16.33
-8.93
-1.98
4.17
9.33
13.44
16.46
18.38
19.28
19.27
18.55
17.32
15.76
14.05
12.35
10.86
9.73
9.03
8.79
8.85
8.99
8.89
8.30
7.13
5.47
3.56
1.69
-0.02
-1.64
-3.44
-5.74
-8.77
-12.63
-17.19
-22.10
-26.81
-30.52
-32.35
-31.61
-28.05
-22.02
-14.41
-6.35
1.20
7.65
12.82
16.73
19.40
20.81
20.93
19.85
17.91
15.54
13.18
11.12
9.48
8.29
7.54
7.17
7.07
7.03
6.83
6.31
5.43
4.26
2.90
1.42
-0.19
-1.99
-4.07
-6.42
-9.07
-12.05
-15.38
-19.01
-22.70
-25.93
-27.97
-28.12
-25.96
-21.57
-15.47
-8.57
-1.74
4.34
9.34
13.24
16.12
18.01
18.88
18.64
17.31
15.10
12.40
9.64
7.22
5.36
4.04
3.10
2.30
1.50
0.66
-0.08
-0.56
-0.67
-0.46
-0.19
-0.21
-0.88
-2.40
-4.80
-8.02
-11.90
-16.22
-20.62
-24.48
-27.05
-27.59
-25.65
-21.34
-15.31
-8.47
-1.73
4.33
9.51
13.81
17.21
19.51
20.43
19.77
17.64
14.58
11.32
8.54
6.61
5.43
4.58
3.61
2.26
0.61
-1.02
-2.35
-3.22
-3.77
-4.28
-5.07
-6.37
-8.34
-11.05
-14.49
-18.53
-22.82
-26.72
-29.45
-30.24
-28.65
-24.72
-19.00
-12.34
-5.60
0.60
5.98
10.52
14.27
17.17
19.00
19.52
18.67
16.64
13.91
11.07
8.65
6.92
5.85
5.21
4.68
4.00
3.04
1.84
0.52
-0.80
-2.08
-3.46
-5.21
-7.63
-10.91
-15.07
-19.87
-24.81
-29.24
-32.42
-33.67
-32.52
-28.91
-23.19
-16.08
-8.46
-1.14
5.35
10.79
15.09
18.26
20.22
20.87
20.18
18.31
15.67
12.88
10.55
9.06
8.41
8.16
7.75
6.72
5.03
3.03
1.29
0.22
-0.26
-0.66
-1.69
-3.90
-7.41
-11.95
-17.03
-22.13
-26.81
-30.59
-32.91
-33.16
-30.86
-25.97
-18.95
-10.67
-2.18
5.66
12.32
17.61
21.52
24.07
25.28
25.17
23.85
21.65
18.98
16.35
14.15
12.60
11.65
11.05
10.46
9.59
8.32
6.72
5.02
3.40
1.95
0.51
-1.22
-3.59
-6.91
-11.29
-16.53
-22.10
-27.17
-30.75
-32.00
-30.48
-26.29
-20.04
-12.62
-4.93
2.38
8.97
14.73
19.59
23.43
26.05
27.27
27.03
25.55
23.22
20.60
18.19
16.34
15.19
14.61
14.35
14.10
13.61
12.80
11.71
10.44
9.05
7.50
5.61
3.12
-0.19
-4.45
-9.59
-15.38
-21.36
-26.90
-31.20
-33.46
-33.05
-29.72
-23.73
-15.81
-6.97
1.79
9.66
16.22
21.31
25.00
27.36
28.46
28.35
27.17
25.21
22.87
20.64
18.91
17.86
17.43
17.33
17.23
16.88
16.15
15.06
13.68
12.05
10.14
7.87
5.15
1.90
-1.94
-6.38
-11.39
-16.82
-22.29
-27.18
-30.68
-32.00
-30.62
-26.52
-20.19
-12.51
-4.46
3.16
9.87
15.44
19.78
22.84
24.55
24.87
23.87
21.81
19.10
16.29
13.95
12.47
12.02
12.41
13.18
13.80
13.87
13.26
12.15
10.85
9.61
8.40
6.99
5.03
2.26
-1.37
-5.73
-10.60
-15.71
-20.72
-25.17
-28.40
-29.68
-28.42
-24.44
-18.13
-10.34
-2.19
5.35
11.65
16.49
19.95
22.17
23.23
23.11
21.85
19.64
16.89
14.15
11.93
10.48
9.78
9.55
9.38
9.00
8.30
7.38
6.41
5.46
4.46
3.23
1.56
-0.72
-3.68
-7.34
-11.67
-16.50
-21.48
-26.00
-29.27
-30.51
-29.17
-25.23
-19.14
-11.76
-4.10
3.01
8.98
13.56
16.71
18.56
19.26
18.95
17.82
16.06
13.95
11.83
10.05
8.86
8.33
8.30
8.46
8.41
7.93
6.98
5.74
4.47
3.32
2.21
0.86
-1.11
-4.04
-8.03
-12.99
-18.59
-24.28
-29.35
-33.02
-34.56
-33.54
-29.93
-24.22
-17.18
-9.69
-2.51
3.88
9.23
13.48
16.62
18.67
19.68
19.70
18.84
17.29
15.30
13.21
11.40
10.19
9.68
9.68
9.78
9.54
8.71
7.34
5.72
4.15
2.75
1.34
-0.41
-2.84
-6.14
-10.28
-15.08
-20.28
-25.46
-30.07
-33.36
-34.55
-33.09
-28.91
-22.53
-14.86
-6.91
0.56
7.15
12.80
17.54
21.34
24.08
25.63
25.94
25.12
23.39
21.03
18.41
15.83
13.63
12.05
11.17
10.89
10.93
10.95
10.65
9.90
8.68
7.03
5.03
2.68
-0.00
-2.95
-6.09
-9.38
-12.93
-16.89
-21.38
-26.25
-30.95
-34.52
-35.94
-34.47
-29.94
-22.90
-14.42
-5.70
2.29
9.00
14.30
18.32
21.24
23.19
24.23
24.37
23.70
22.33
20.43
18.23
15.93
13.75
11.85
10.32
9.18
8.34
7.68
7.03
6.26
5.26
4.01
2.53
0.87
-0.93
-2.88
-5.11
-7.80
-11.15
-15.31
-20.15
-25.20
-29.67
-32.58
-33.04
-30.59
-25.40
-18.18
-10.01
-1.99
5.10
10.86
15.23
18.35
20.34
21.20
20.99
19.77
17.82
15.46
13.11
11.06
9.48
8.39
7.70
7.31
7.07
6.88
6.61
6.18
5.52
4.58
3.37
1.93
0.27
-1.68
-4.02
-6.89
-10.39
-14.46
-18.79
-22.82
-25.76
-26.86
-25.65
-22.12
-16.77
-10.44
-4.02
1.81
6.68
10.51
13.35
15.24
16.13
16.01
14.91
13.05
10.77
8.46
6.43
4.89
3.87
3.27
2.91
2.56
2.07
1.40
0.61
-0.20
-0.94
-1.67
-2.60
-3.95
-5.94
-8.67
-12.06
-15.91
-19.85
-23.47
-26.25
-27.66
-27.24
-24.76
-20.34
-14.49
-7.96
-1.61
3.91
8.22
11.25
13.16
14.11
14.24
13.57
12.17
10.21
7.99
5.91
4.27
3.21
2.66
2.42
2.22
1.89
1.37
0.67
-0.15
-1.10
-2.24
-3.66
-5.45
-7.71
-10.49
-13.80
-17.57
-21.52
-25.14
-27.74
-28.60
-27.26
-23.67
-18.22
-11.68
-4.89
1.47
6.98
11.45
14.80
16.91
17.69
17.17
15.55
13.27
10.87
8.83
7.40
6.57
6.13
5.79
5.32
4.62
3.72
2.69
1.66
0.69
-0.25
-1.31
-2.69
-4.65
-7.39
-10.94
-15.14
-19.63
-23.83
-27.04
-28.60
-27.97
-25.05
-20.14
-13.92
-7.29
-1.02
4.44
8.92
12.50
15.25
17.12
17.94
17.57
16.08
13.79
11.23
8.90
7.16
6.05
5.40
4.94
4.41
3.69
2.78
1.73
0.53
-0.81
-2.33
-4.01
-5.85
-7.89
-10.26
-13.16
-16.70
-20.76
-24.78
-27.93
-29.29
-28.24
-24.72
-19.23
-12.68
-5.99
0.12
5.34
9.59
12.93
15.34
16.75
17.06
16.32
14.75
12.74
10.74
9.09
7.95
7.29
6.93
6.67
6.33
5.82
5.13
4.30
3.39
2.51
1.69
0.88
-0.09
-1.51
-3.66
-6.71
-10.69
-15.43
-20.57
-25.60
-29.83
-32.51
-32.93
-30.75
-26.07
-19.52
-12.04
-4.65
1.98
7.48
11.86
15.23
17.64
19.08
19.45
18.77
17.21
15.08
12.75
10.59
8.85
7.61
6.84
6.43
6.21
6.04
5.79
5.39
4.77
3.91
2.84
1.53
-0.08
-2.10
-4.68
-7.94
-11.92
-16.45
-21.14
-25.34
-28.30
-29.30
-27.89
-24.05
-18.26
-11.33
-4.22
2.29
7.74
12.04
15.30
17.67
19.19
19.81
19.46
18.24
16.39
14.33
12.47
11.08
10.25
9.86
9.72
9.66
9.56
9.35
8.96
8.28
7.19
5.64
3.67
1.39
-1.09
-3.77
-6.83
-10.46
-14.72
-19.34
-23.64
-26.71
-27.65
-25.91
-21.56
-15.18
-7.73
-0.21
6.66
12.48
17.11
20.54
22.75
23.67
23.33
21.90
19.72
17.23
14.79
12.62
10.78
9.25
7.99
7.03
6.39
6.01
5.72
5.29
4.47
3.18
1.42
-0.70
-3.08
-5.70
-8.59
-11.80
-15.29
-18.86
-22.12
-24.54
-25.54
-24.69
-21.87
-17.33
-11.61
-5.41
0.63
6.06
10.58
14.01
16.17
16.88
16.04
13.83
10.71
7.35
4.42
2.38
1.31
0.97
0.98
1.03
1.04
1.06
1.16
1.32
1.40
1.15
0.39
-1.02
-3.16
-6.07
-9.79
-14.21
-18.98
-23.41
-26.62
-27.79
-26.46
-22.72
-17.21
-10.85
-4.52
1.16
5.93
9.83
12.92
15.22
16.55
16.70
15.63
13.54
10.93
8.38
6.33
4.91
3.89
2.92
1.74
0.37
-0.91
-1.78
-2.12
-2.09
-2.13
-2.74
-4.27
-6.88
-10.47
-14.76
-19.28
-23.42
-26.45
-27.65
-26.59
-23.23
-18.03
-11.75
-5.25
0.82
6.10
10.47
13.91
16.37
17.73
17.88
16.86
14.90
12.46
10.05
8.11
6.81
6.05
5.54
4.90
3.90
2.49
0.85
-0.78
-2.21
-3.41
-4.56
-5.97
-7.99
-10.92
-14.80
-19.41
-24.22
-28.44
-31.16
-31.66
-29.61
-25.17
-18.96
-11.82
-4.60
2.13
8.01
12.85
16.55
18.94
19.96
19.64
18.26
16.29
14.27
12.59
11.48
10.85
10.46
10.00
9.25
8.14
6.72
5.14
3.56
2.07
0.61
-0.93
-2.81
-5.31
-8.69
-13.04
-18.19
-23.62
-28.46
-31.73
-32.60
-30.68
-26.15
-19.66
-12.13
-4.45
2.71
8.95
14.12
18.14
20.95
22.51
22.81
21.97
20.23
18.03
15.79
13.91
12.59
11.79
11.32
10.92
10.42
9.77
9.05
8.32
7.59
6.72
5.50
3.77
1.43
-1.51
-5.00
-8.98
-13.43
-18.23
-23.09
-27.43
-30.53
-31.60
-30.16
-26.14
-19.99
-12.49
-4.56
3.00
9.64
15.11
19.37
22.50
24.59
25.71
25.88
25.12
23.52
21.30
18.85
16.56
14.80
13.72
13.23
13.06
12.90
12.56
11.94
11.01
9.79
8.25
6.44
4.41
2.28
0.14
-2.11
-4.76
-8.17
-12.56
-17.73
-22.92
-27.06
-29.03
-28.13
-24.29
-18.10
-10.56
-2.71
4.59
10.84
15.83
19.56
22.04
23.30
23.40
22.44
20.64
18.27
15.69
13.24
11.24
9.92
9.32
9.36
9.80
10.35
10.75
10.82
10.47
9.69
8.46
6.76
4.58
1.90
-1.20
-4.65
-8.41
-12.47
-16.85
-21.38
-25.66
-29.04
-30.76
-30.19
-27.11
-21.78
-14.86
-7.23
0.27
6.97
12.46
16.56
19.25
20.63
20.87
20.21
18.86
17.11
15.21
13.43
11.98
10.98
10.38
10.01
9.68
9.22
8.61
7.93
7.25
6.60
5.89
4.93
3.53
1.58
-0.97
-4.08
-7.71
-11.80
-16.17
-20.48
-24.20
-26.65
-27.25
-25.61
-21.80
-16.29
-9.82
-3.24
2.72
7.63
11.31
13.83
15.33
16.02
16.02
15.44
14.36
12.90
11.24
9.64
8.36
7.60
7.39
7.57
7.85
7.95
7.64
6.89
5.78
4.43
2.89
1.12
-0.95
-3.38
-6.19
-9.37
-12.92
-16.83
-20.98
-25.00
-28.23
-29.89
-29.28
-26.15
-20.74
-13.77
-6.21
1.05
7.35
12.36
16.01
18.39
19.59
19.73
18.88
17.21
14.96
12.49
10.20
8.46
7.41
6.97
6.85
6.69
6.25
5.48
4.51
3.50
2.55
1.62
0.59
-0.75
-2.53
-4.88
-7.80
-11.29
-15.28
-19.65
-24.11
-28.19
-31.21
-32.45
-31.35
-27.72
-21.87
-14.51
-6.62
0.94
7.54
12.92
17.04
19.98
21.76
22.36
21.78
20.17
17.87
15.36
13.09
11.40
10.36
9.86
9.69
9.65
9.60
9.45
9.09
8.41
7.29
5.73
3.82
1.72
-0.43
-2.57
-4.77
-7.18
-9.99
-13.36
-17.34
-21.78
-26.26
-30.07
-32.38
-32.46
-29.96
-25.04
-18.38
-10.90
-3.50
3.20
8.87
13.41
16.84
19.17
20.41
20.64
20.00
18.72
17.07
15.34
13.72
12.35
11.30
10.57
10.13
9.91
9.78
9.57
9.12
8.30
7.07
5.51
3.79
2.02
0.28
-1.51
-3.51
-5.97
-9.06
-12.91
-17.46
-22.40
-27.15
-30.94
-32.92
-32.45
-29.31
-23.78
-16.60
-8.76
-1.19
5.42
10.72
14.68
17.46
19.24
20.13
20.19
19.43
17.93
15.91
13.70
11.70
10.18
9.23
8.72
8.38
7.97
7.32
6.44
5.36
4.13
2.78
1.31
-0.29
-1.96
-3.63
-5.27
-6.98
-8.97
-11.56
-14.94
-18.99
-23.21
-26.74
-28.63
-28.14
-25.03
-19.69
-12.96
-5.84
0.82
6.51
11.08
14.57
17.05
18.51
18.91
18.24
16.63
14.41
11.99
9.76
7.99
6.80
6.18
6.02
6.20
6.58
6.99
7.25
7.18
6.71
5.82
4.57
3.03
1.21
-0.95
-3.56
-6.77
-10.63
-15.09
-19.86
-24.42
-28.03
-29.92
-29.49
-26.56
-21.49
-15.04
-8.13
-1.59
4.07
8.67
12.27
14.96
16.78
17.67
17.58
16.51
14.66
12.35
10.02
8.04
6.64
5.82
5.38
5.10
4.76
4.33
3.84
3.32
2.76
2.05
1.06
-0.28
-1.99
-4.07
-6.52
-9.41
-12.81
-16.58
-20.35
-23.47
-25.24
-25.10
-22.93
-19.02
-13.98
-8.51
-3.13
1.88
6.40
10.28
13.32
15.24
15.87
15.22
13.55
11.29
8.91
6.75
4.99
3.67
2.73
2.04
1.49
0.99
0.54
0.12
-0.23
-0.59
-1.11
-2.04
-3.58
-5.88
-8.90
-12.50
-16.46
-20.46
-24.09
-26.78
-27.97
-27.22
-24.44
-19.91
-14.23
-8.09
-2.06
3.50
8.35
12.31
15.14
16.59
16.53
15.08
12.62
9.71
6.89
4.55
2.84
1.71
0.94
0.33
-0.29
-0.98
-1.70
-2.38
-3.04
-3.75
-4.69
-6.01
-7.85
-10.28
-13.30
-16.82
-20.59
-24.13
-26.79
-27.87
-26.90
-23.81
-18.98
-13.10
-6.92
-1.02
4.25
8.69
12.15
14.46
15.44
15.07
13.53
11.22
8.60
6.15
4.16
2.77
1.94
1.47
1.12
0.63
-0.13
-1.15
-2.27
-3.33
-4.23
-5.11
-6.30
-8.23
-11.30
-15.60
-20.83
-26.29
-31.04
-34.13
-34.85
-32.97
-28.70
-22.64
-15.55
-8.13
-0.93
5.64
11.25
15.61
18.47
19.72
19.43
17.88
15.48
12.68
9.91
7.50
5.64
4.37
3.62
3.15
2.73
2.18
1.49
0.75
0.08
-0.51
-1.23
-2.45
-4.59
-7.93
-12.53
-18.11
-24.14
-29.85
-34.33
-36.73
-36.37
-33.06
-27.11
-19.31
-10.73
-2.39
4.95
10.92
15.49
18.80
20.99
22.13
22.30
21.57
20.17
18.38
16.49
14.78
13.35
12.23
11.35
10.58
9.83
9.04
8.16
7.19
6.10
4.84
3.33
1.38
-1.19
-4.58
-8.89
-14.03
-19.64
-25.08
-29.50
-32.00
-31.86
-28.74
-22.83
-14.78
-5.59
3.64
12.00
18.91
24.13
27.70
29.78
30.56
30.21
28.86
26.73
24.12
21.40
19.01
17.23
16.20
15.77
15.64
15.45
14.93
13.96
12.59
10.97
9.21
7.34
5.26
2.79
-0.20
-3.78
-7.92
-12.52
-17.46
-22.48
-27.12
-30.72
-32.45
-31.61
-27.82
-21.27
-12.69
-3.19
6.05
14.06
20.27
24.59
27.19
28.45
28.72
28.26
27.24
25.74
23.91
22.01
20.32
19.08
18.34
17.98
17.75
17.43
16.88
16.10
15.06
13.76
12.12
10.07
7.61
4.85
1.99
-0.81
-3.54
-6.37
-9.66
-13.74
-18.74
-24.31
-29.63
-33.46
-34.62
-32.36
-26.69
-18.43
-8.91
0.45
8.60
15.04
19.83
23.24
25.61
27.09
27.77
27.65
26.84
25.54
24.03
22.60
21.45
20.64
20.17
19.96
19.93
20.02
20.12
20.02
19.40
17.93
15.41
11.88
7.68
3.31
-0.73
-4.18
-7.08
-9.74
-12.58
-15.98
-20.02
-24.50
-28.88
-32.42
-34.33
-34.03
-31.24
-26.12
-19.19
-11.21
-3.07
4.46
10.80
15.66
19.03
21.10
22.15
22.42
22.09
21.32
20.27
19.15
18.21
17.63
17.40
17.41
17.43
17.32
17.04
16.62
16.08
15.39
14.39
12.92
10.87
8.26
5.22
2.00
-1.18
-4.16
-6.94
-9.63
-12.46
-15.63
-19.18
-22.82
-25.95
-27.75
-27.45
-24.59
-19.21
-11.88
-3.54
4.78
12.17
18.10
22.45
25.41
27.33
28.50
29.03
28.87
27.88
26.05
23.59
21.01
18.94
17.95
18.35
20.06
22.65
25.48
27.89
29.36
29.61
28.56
26.36
23.27
19.68
15.92
12.23
8.66
5.00
0.95
-3.74
-9.03
-14.52
-19.40
-22.74
-23.70
-21.94
-17.74
-11.90
-5.51
0.37
5.05
8.30
10.35
11.62
12.53
13.29
13.91
14.19
13.94
13.06
11.62
9.86
8.11
6.64
5.68
5.25
5.23
5.38
5.47
5.30
4.75
3.82
2.54
1.01
-0.67
-2.40
-4.09
-5.76
-7.55
-9.73
-12.62
-16.37
-20.80
-25.38
-29.33
-31.85
-32.45
-31.05
-27.99
-23.90
-19.42
-15.07
-11.14
-7.81
-5.17
-3.34
-2.43
-2.48
-3.37
-4.86
-6.56
-8.07
-9.12
-9.64
-9.82
-10.00
-10.48
-11.39
-12.63
-13.93
-15.05
-15.89
-16.62
-17.53
-18.88
-20.82
-23.30
-26.20
-29.37
-32.66
-35.79
-38.31
-39.60
-39.08
-36.39
-31.69
-25.54
-18.77
-12.20
-6.34
-1.41
2.60
5.79
8.16
9.68
10.28
10.01
9.04
7.66
6.20
4.96
4.12
3.74
3.73
3.85
3.85
3.49
2.64
1.35
-0.25
-1.98
-3.73
-5.53
-7.52
-9.92
-12.93
-16.58
-20.69
-24.80
-28.29
-30.44
-30.73
-28.89
-25.10
-19.82
-13.71
-7.44
-1.53
3.67
7.95
11.18
13.27
14.15
13.89
12.64
10.76
8.65
6.73
5.28
4.38
3.91
3.63
3.30
2.81
2.20
1.60
1.13
0.83
0.58
0.20
-0.54
-1.86
-3.89
-6.75
-10.46
-14.91
-19.76
-24.45
-28.22
-30.36
-30.32
-27.98
-23.62
-17.82
-11.34
-4.92
0.87
5.70
9.47
12.25
14.18
15.35
15.77
15.41
14.28
12.57
10.62
8.80
7.41
6.59
6.28
6.30
6.42
6.45
6.26
5.72
4.75
3.31
1.41
-0.90
-3.58
-6.61
-10.00
-13.77
-17.97
-22.56
-27.33
-31.88
-35.52
-37.48
-37.09
-34.07
-28.64
-21.52
-13.64
-5.87
1.16
7.13
11.97
15.65
18.15
19.41
19.46
18.44
16.65
14.50
12.45
10.84
9.86
9.49
9.52
9.66
9.64
9.29
8.60
7.64
6.50
5.21
3.71
1.88
-0.36
-3.04
-6.13
-9.63
-13.56
-17.96
-22.76
-27.56
-31.67
-34.19
-34.27
-31.48
-26.01
-18.56
-10.19
-1.94
5.44
11.53
16.23
19.54
21.56
22.36
22.07
20.86
19.00
16.79
14.57
12.62
11.14
10.24
9.91
10.00
10.32
10.61
10.65
10.27
9.40
8.01
