1543356286.00
64.000000
-0.00
-0.00
-0.00
-0.00
-0.00
-0.00
-0.00
-0.00
-0.00
-0.00
0.00
0.01
0.01
-0.00
-0.03
-0.05
-0.05
0.00
0.13
0.36
0.66
1.01
1.37
1.72
2.06
2.40
2.79
3.24
3.80
4.43
5.08
5.71
6.29
6.84
7.42
8.10
8.93
10.02
11.29
12.62
13.90
15.08
16.20
17.41
18.94
20.93
23.60
26.75
30.11
33.40
36.45
39.33
42.38
46.02
50.57
56.43
63.22
70.44
77.52
84.12
90.31
96.62
103.77
112.30
122.77
134.69
147.28
159.68
171.35
182.36
193.36
205.72
218.17
232.98
250.73
271.53
294.18
315.76
331.93
338.07
330.82
309.29
275.86
234.34
189.02
143.10
98.07
54.14
11.13
-30.78
-70.92
-108.13
-142.18
-173.35
-202.37
-229.94
-256.32
-281.32
-304.48
-325.58
-344.62
-362.39
-379.96
-398.07
-417.13
-437.02
-457.11
-476.63
-494.85
-511.27
-525.79
-538.51
-549.52
-558.68
-565.58
-568.86
-567.17
-559.27
-544.15
-521.20
-490.10
-450.70
-402.97
-347.05
-283.36
-212.95
-137.49
-59.22
19.26
95.42
167.16
233.07
292.50
345.24
391.13
429.86
460.92
483.82
498.33
504.85
504.61
499.31
490.60
479.36
465.38
447.48
423.94
393.49
355.65
311.41
262.79
212.32
162.08
113.03
64.92
17.33
-31.12
-82.07
-136.32
-192.62
-246.72
-291.55
-319.02
-323.21
-303.35
-264.97
-218.10
-173.41
-138.31
-114.86
-100.38
-89.93
-78.85
-64.19
-44.80
-21.21
5.62
33.60
59.25
78.37
87.62
86.34
76.99
64.52
54.51
51.41
57.54
73.00
96.10
123.61
150.68
171.01
177.92
166.47
136.28
92.95
47.64
14.05
4.17
24.09
71.87
137.61
205.95
260.20
286.94
279.98
242.29
184.68
121.79
66.82
26.96
1.77
-14.64
-30.28
-51.37
-80.16
-115.45
-155.13
-197.89
-243.77
-292.85
-343.56
-392.18
-433.88
-464.35
-481.64
-487.14
-483.85
-474.94
-462.35
-446.18
-425.14
-397.61
-362.86
-321.87
-277.29
-232.57
-190.96
-154.55
-123.87
-98.09
-75.70
-55.23
-35.81
-17.33
-0.09
15.43
28.92
40.50
50.63
59.97
69.15
78.61
88.51
98.89
109.67
120.76
132.13
143.85
156.02
168.66
181.68
194.88
208.15
221.78
236.71
254.37
275.78
300.53
326.06
348.03
361.76
364.12
354.73
335.90
311.23
284.01
256.23
228.77
202.36
178.21
157.95
142.60
131.62
122.82
113.36
101.24
86.42
70.72
56.63
45.92
38.74
33.78
29.41
24.84
20.66
18.31
18.95
22.31
26.36
28.20
25.75
19.32
12.05
8.55
12.69
25.51
44.62
65.54
84.11
98.63
110.31
122.50
138.64
160.24
186.21
213.61
239.07
260.06
275.27
284.19
286.33
280.78
266.33
242.16
208.46
166.82
119.99
71.24
23.58
-20.85
-61.03
-96.82
-128.54
-156.47
-180.54
-200.34
-215.44
-225.62
-231.11
-232.61
-231.10
-227.54
-222.65
-216.79
-210.03
-202.33
-193.67
-184.20
-174.20
-164.05
-154.06
-144.41
-135.18
-126.30
-117.71
-109.35
-101.23
-93.40
-85.92
-78.84
-72.19
-65.95
-60.11
-54.64
-49.52
-44.75
-40.32
-36.20
-32.40
-28.88
-25.65
-22.70
-20.00
-17.57
-15.36
-13.37
-11.61
-10.06
-8.70
-7.53
-6.52
-5.65
-4.91
-4.28
-3.75
-3.31
-2.93
-2.61
-2.35
-2.12
-1.92
-1.75
-1.61
-1.48
-1.37
-1.28
-1.19
-1.12
-1.05
-0.99
-0.93
-0.88
-0.83
-0.79
-0.75
-0.71
-0.68
-0.65
-0.62
-0.59
-0.57
-0.54
-0.52
-0.50
-0.48
-0.46
-0.45
-0.43
-0.42
-0.40
-0.39
-0.37
-0.36
-0.35
-0.34
-0.33
-0.32
-0.31
-0.30
-0.29
-0.28
-0.27
-0.27
-0.26
-0.26
-0.24
-0.24
-0.23
-0.23
-0.22
-0.22
-0.22
-0.21
-0.21
-0.21
-0.20
-0.18
-0.15
-0.12
-0.08
-0.03
0.03
0.09
0.18
0.27
0.40
0.52
0.62
0.67
0.64
0.56
0.44
0.35
0.34
0.42
0.58
0.75
0.86
0.88
0.82
0.75
0.77
0.97
1.37
1.89
2.40
2.74
2.83
2.70
2.52
2.53
2.93
3.76
4.88
5.98
6.71
6.87
6.53
6.05
5.97
6.71
8.41
10.71
12.92
14.24
14.22
13.04
11.50
10.75
11.69
14.61
18.87
23.13
25.85
26.14
24.12
20.96
18.24
16.90
16.95
17.07
15.19
9.44
-1.14
-16.30
-34.85
-54.61
-73.02
-86.69
-92.06
-86.60
-70.03
-45.23
-17.50
7.19
24.86
34.65
38.96
41.89
46.75
53.99
60.87
62.93
56.71
41.91
22.11
3.42
-8.08
-8.84
0.37
15.33
31.00
43.75
52.45
58.13
61.92
63.85
62.53
56.19
44.12
27.53
9.41
-7.19
-19.84
-27.77
-31.79
-33.62
-35.16
-37.42
-40.28
-43.12
-44.57
-43.91
-41.29
-37.54
-33.85
-31.27
-30.25
-30.52
-31.33
-31.89
-31.71
-30.72
-29.25
-27.68
-26.46
-25.70
-25.10
-24.29
-22.87
-20.70
-17.89
-14.78
-11.86
-9.64
-8.47
-8.38
-9.34
-11.08
-13.34
-15.80
-18.17
-20.13
-21.34
-21.78
-20.79
-17.93
-12.88
-5.75
3.21
13.30
23.59
33.06
40.96
47.08
51.52
54.85
57.32
59.04
59.48
57.75
52.85
44.29
32.50
18.73
5.67
-5.77
-15.00
-22.51
-29.52
-37.58
-47.13
-57.56
-66.92
-72.91
-74.07
-70.32
-63.37
-56.07
-51.40
-51.17
-55.72
-64.21
-74.71
-84.89
-91.74
-92.36
-83.61
-65.02
-40.23
-16.79
-3.30
-5.34
-22.17
-46.32
-67.32
-76.94
-73.47
-61.90
-50.57
-45.97
-49.58
-58.19
-66.43
-70.66
-70.71
-69.17
-68.72
-69.89
-70.37
-65.97
-53.29
-31.02
-0.71
33.80
67.94
98.08
121.89
139.89
153.95
165.94
176.73
185.91
192.42
195.65
196.51
195.41
192.52
186.40
174.18
153.16
122.83
86.03
48.38
16.11
-6.46
-18.13
-20.90
-18.28
-13.57
-8.74
-4.75
-2.41
-3.10
-8.56
-19.51
-34.49
-49.42
-59.19
-59.59
-49.88
-33.62
-17.57
-8.71
-11.05
-24.15
-43.48
-62.91
-77.36
-84.58
-84.93
-80.09
-71.56
-59.97
-45.41
-28.29
-9.76
8.12
23.12
33.61
39.16
40.60
39.57
38.00
37.42
38.82
42.17
47.03
53.05
59.95
67.78
76.48
85.67
94.55
102.17
106.96
107.65
103.56
94.66
81.58
65.24
46.69
25.32
3.31
-17.99
-37.81
-55.54
-70.68
-82.79
-91.75
-97.66
-100.89
-101.78
-101.22
-100.02
-98.90
-98.38
-98.70
-99.96
-102.13
-104.83
-107.37
-109.25
-109.75
-108.03
-103.77
-95.94
-84.00
-67.75
-47.47
-23.69
2.33
29.13
55.09
78.53
97.81
111.48
118.42
117.98
110.10
95.30
74.79
50.13
23.27
-3.58
-28.47
-49.76
-66.33
-77.62
-83.77
-85.11
-82.53
-77.24
-70.46
-63.47
-57.35
-52.94
-50.75
-50.97
-53.01
-56.15
-59.65
-62.55
-64.19
-64.32
-63.07
-60.66
-60.12
-62.83
-69.45
-80.07
-93.40
-107.73
-121.36
-132.97
-141.56
-146.90
-147.94
-143.69
-133.53
-115.95
-90.21
-56.98
-18.40
22.36
60.80
94.34
121.37
140.79
154.20
163.63
170.41
175.15
177.92
177.34
174.78
172.84
174.04
183.34
204.40
237.90
281.76
331.13
377.90
416.25
442.64
437.14
388.21
295.57
171.18
35.06
-81.11
-171.87
-240.86
-292.18
-328.74
-351.79
-360.47
-355.43
-337.66
-310.05
-278.27
-247.47
-219.37
-193.90
-166.51
-133.02
-91.58
-40.77
18.23
80.60
139.27
189.70
228.97
258.58
280.16
280.42
250.68
188.62
118.86
53.27
-1.58
-49.08
-86.43
-110.08
-117.94
-107.83
-80.05
-37.78
11.64
62.94
112.64
161.93
212.34
264.17
318.00
372.52
424.58
468.01
498.82
500.45
464.84
392.32
291.59
177.99
66.40
-33.11
-118.08
-189.21
-244.47
-284.48
-309.27
-318.65
-312.25
-291.65
-260.51
-224.37
-188.00
-155.88
-128.15
-102.48
-75.92
-44.81
-6.61
39.54
91.85
145.67
193.64
227.92
241.99
226.99
181.64
113.02
34.78
-38.59
-97.76
-140.94
-171.40
-193.26
-208.61
-216.37
-215.18
-205.45
-190.42
-175.05
-163.75
-158.57
-159.11
-163.35
-168.31
-171.18
-168.98
-158.59
-137.27
-104.08
-61.22
-14.20
29.83
65.10
89.12
103.26
111.00
115.59
118.42
120.57
120.47
117.84
114.45
112.75
114.38
118.85
123.49
124.72
117.99
103.58
84.16
63.63
45.54
32.43
25.33
23.94
26.88
31.80
35.13
32.03
17.78
-10.03
-50.23
-97.24
-142.64
-178.13
-198.45
-202.60
-193.71
-175.09
-152.49
-129.60
-107.93
-87.83
-69.48
-53.20
-39.23
-27.90
-19.24
-13.53
-10.42
-9.25
-9.28
-9.96
-10.97
-11.79
-11.29
-7.52
1.04
14.71
31.17
45.86
53.93
52.62
43.09
29.68
17.45
9.58
6.21
4.59
1.46
-4.56
-11.47
-14.59
-8.50
10.18
40.72
77.79
112.64
135.75
140.49
125.74
96.19
60.19
26.17
-0.54
-18.80
-30.61
-38.64
-44.34
-47.35
-46.57
-41.71
-34.07
-26.10
-20.33
-17.83
-17.64
-17.86
-16.53
-12.80
-7.49
-2.52
0.03
-0.95
-5.38
-12.03
-19.36
-26.05
-31.60
-36.34
-40.96
-45.87
-50.56
-54.48
-56.65
-56.41
-53.55
-48.72
-43.77
-41.49
-44.70
-54.28
-68.72
-82.66
-89.19
-82.00
-59.93
-28.63
1.38
19.29
19.39
1.46
-28.45
-61.58
-88.50
-102.42
-100.43
-83.30
-54.11
-16.42
24.16
63.45
96.17
120.46
137.82
151.93
166.83
180.46
200.06
221.06
237.24
234.03
203.16
147.84
82.38
23.45
-18.39
-40.47
-48.32
-48.66
-46.68
-42.98
-36.47
-26.72
-15.81
-7.24
-3.10
-4.61
-9.81
-15.59
-17.84
-14.43
-5.98
4.49
13.26
18.35
19.16
17.45
15.64
16.23
19.82
24.88
28.15
26.36
18.00
3.33
-15.35
-35.28
-52.84
-66.84
-77.51
-86.11
-94.02
-102.22
-111.36
-121.31
-130.76
-136.76
-135.38
-122.89
-97.92
-62.85
-23.55
12.61
39.63
55.11
60.60
59.84
56.72
53.53
50.73
47.92
45.08
42.89
42.37
43.96
46.99
50.11
51.98
51.76
49.61
46.56
44.05
43.57
46.00
51.04
56.92
60.50
58.37
48.32
30.71
8.75
-12.62
-28.69
-36.99
-38.06
-34.67
-30.12
-26.56
-24.35
-22.72
-20.79
-18.53
-16.62
-15.62
-15.25
-14.37
-11.53
-5.89
1.80
9.30
13.47
11.72
3.46
-9.11
-21.84
-30.49
-33.02
-30.62
-26.87
-25.44
-27.67
-31.69
-33.58
-30.02
-20.52
-8.03
2.53
7.08
4.51
-2.95
-11.23
-16.70
-17.78
-15.19
-11.02
-7.23
-4.43
-2.24
-0.11
1.60
1.02
-4.26
-15.13
-29.57
-42.93
-50.48
-50.23
-44.56
-38.92
-38.25
-44.13
-53.42
-61.07
-63.54
-60.68
-54.97
-48.27
-39.57
-24.83
0.08
35.88
77.75
116.50
142.43
149.51
137.88
113.23
83.99
57.80
38.90
27.13
19.11
10.59
-1.35
-17.43
-36.36
-55.96
-74.08
-88.18
-94.82
-89.49
-68.12
-30.19
18.93
68.04
103.53
114.66
98.11
59.54
11.07
-33.32
-62.33
-70.43
-57.98
-29.53
8.47
49.84
89.66
124.31
151.20
168.23
174.19
169.61
157.02
140.69
125.55
115.08
109.98
107.94
104.83
96.78
81.97
61.20
36.97
12.41
-10.25
-30.32
-48.26
-65.05
-81.60
-98.55
-116.28
-135.11
-155.09
-176.03
-197.20
-216.84
-232.46
-241.29
-241.28
-232.25
-216.18
-196.66
-177.57
-161.38
-148.24
-136.42
-123.77
-109.41
-94.52
-81.74
-73.46
-70.42
-71.24
-73.20
-74.00
-72.82
-70.42
-68.21
-67.14
-67.04
-66.87
-65.47
-62.35
-57.92
-53.13
-48.69
-44.60
-40.25
-34.83
-27.81
-18.99
-8.22
5.03
21.91
43.63
70.63
101.69
133.68
162.17
182.63
191.83
188.79
175.21
154.89
132.62
112.87
98.59
90.52
87.25
85.96
83.48
77.21
65.44
47.34
22.67
-8.29
-44.68
-84.62
-125.11
-162.56
-193.79
-217.28
-234.06
-247.78
-263.62
-286.27
-317.65
-355.48
-393.75
-424.79
-442.43
-444.46
-433.22
-414.19
-393.11
-373.46
-355.41
-336.33
-312.47
-280.71
-239.61
-189.45
-131.70
-68.37
-1.49
66.91
134.82
200.38
262.09
319.19
371.99
421.55
468.67
512.76
550.87
578.00
588.90
580.31
552.70
510.78
462.04
414.32
373.48
341.59
317.03
296.18
275.71
254.41
233.57
215.68
202.53
194.27
188.56
181.84
171.35
156.97
141.24
127.99
119.96
117.03
117.43
117.84
115.44
109.64
102.51
97.57
97.97
104.78
116.47
131.88
149.14
166.30
181.17
191.63
195.96
194.10
189.17
187.75
200.43
234.68
290.69
359.66
427.57
480.74
511.33
520.05
496.96
440.23
352.16
238.98
109.90
-23.39
-149.11
-257.60
-343.33
-405.50
-445.47
-468.48
-478.77
-484.48
-491.73
-503.57
-520.59
-541.29
-562.40
-577.89
-582.27
-571.84
-546.17
-507.26
-457.60
-401.44
-343.23
-286.05
-230.77
-178.10
-129.20
-86.00
-49.98
-20.78
3.21
24.24
44.99
67.06
89.85
111.39
129.39
142.54
152.38
162.00
175.26
197.18
231.85
280.42
339.94
403.23
459.82
500.86
521.10
512.58
475.81
418.67
353.12
290.16
242.28
208.33
183.87
165.45
151.40
140.58
132.42
125.05
115.52
101.14
79.61
51.54
19.01
-15.96
-51.30
-86.03
-120.52
-155.81
-192.68
-231.51
-270.55
-306.96
-337.96
-360.82
-373.66
-375.80
-367.63
-350.44
-326.41
-297.51
-265.94
-234.24
-204.89
-180.27
-162.60
-153.63
-154.67
-166.75
-189.63
-221.81
-260.68
-302.81
-345.03
-384.88
-420.34
-448.91
-466.81
-469.10
-451.37
-411.85
-352.60
-279.08
-198.17
-116.20
-37.84
33.53
94.64
141.84
171.77
183.20
178.47
163.52
145.66
130.84
121.67
117.30
114.72
110.90
104.56
96.58
89.38
85.13
84.35
85.75
87.06
86.50
82.98
76.49
67.47
56.64
45.14
35.14
30.12
34.02
49.26
73.73
100.32
118.80
119.96
99.43
59.45
7.62
-46.27
-88.65
-108.47
-99.96
-64.60
-9.62
55.67
123.26
187.44
244.24
290.90
325.09
346.43
355.95
355.95
349.56
339.63
328.23
316.24
303.70
289.85
273.81
254.73
233.78
212.72
192.98
175.39
160.17
147.22
136.11
126.29
117.08
107.90
98.10
86.65
72.87
56.88
39.89
23.78
10.35
0.47
-6.25
-11.38
-18.19
-29.33
-45.56
-65.40
-85.72
-103.54
-117.59
-129.20
-141.79
-162.78
-199.53
-256.77
-334.27
-425.74
-519.77
-601.98
-658.26
-677.76
-661.09
-617.08
-559.94
-504.31
-460.79
-433.81
-421.67
-418.71
-417.18
-416.98
-421.17
-434.22
-459.61
-498.25
-548.40
-606.08
-665.52
-690.73
-657.33
-557.62
-406.46
-234.54
-72.55
60.73
160.77
225.14
268.16
297.69
318.36
334.14
350.72
375.15
413.00
465.58
523.45
573.05
597.55
588.73
550.34
495.12
437.94
389.17
351.82
323.56
302.17
283.50
265.57
247.88
230.34
212.64
194.16
174.33
153.74
135.19
120.35
110.10
104.11
100.48
96.35
89.91
78.10
59.11
32.90
-0.26
-38.79
-79.55
-117.81
-147.51
-163.87
-166.72
-160.27
-151.09
-145.47
-146.56
-153.39
-162.12
-169.17
-171.58
-168.61
-160.30
-146.56
-126.56
-99.27
-64.54
-23.88
18.61
58.36
91.34
115.59
131.12
139.45
142.79
143.14
141.66
138.70
134.16
127.66
119.34
109.82
100.12
91.35
84.33
79.18
75.54
72.78
69.93
66.45
62.12
57.22
52.38
48.45
46.04
45.42
46.41
48.17
49.90
50.88
50.91
50.40
50.26
51.39
54.24
59.49
65.11
69.29
70.73
68.80
63.95
57.53
51.08
46.06
43.70
44.61
48.91
55.34
60.83
60.98
51.65
31.04
1.18
-32.27
-62.14
-82.57
-91.17
-89.54
-81.67
-71.64
-61.77
-52.42
-42.86
-32.79
-23.00
-14.78
-9.00
-5.36
-2.56
1.13
7.17
16.04
27.09
38.67
49.27
58.07
65.12
71.18
77.14
83.72
91.06
98.87
105.97
111.69
115.98
119.45
123.02
127.46
132.82
137.89
144.98
153.38
161.90
169.23
174.10
175.36
172.09
163.81
150.71
133.22
112.08
89.25
67.52
49.88
38.74
35.59
40.69
53.24
70.22
87.97
103.53
115.08
121.61
122.55
118.06
109.03
97.13
81.51
62.05
40.54
20.22
3.65
-8.46
-17.28
-25.14
-34.38
-52.81
-85.19
-130.63
-183.11
-235.49
-282.94
-323.88
-359.18
-391.17
-432.17
-490.33
-565.22
-648.00
-726.95
-793.04
-841.36
-870.66
-882.38
-892.35
-912.70
-946.05
-985.76
-1023.02
-1053.25
-1076.85
-1097.74
-1041.87
-876.32
-620.66
-335.66
-79.20
121.07
264.48
364.33
437.75
500.35
550.22
583.57
599.61
602.62
598.08
589.51
579.45
570.01
562.52
547.64
518.30
474.31
423.48
375.95
338.35
312.82
297.99
290.49
280.29
259.04
223.16
174.17
118.46
62.96
14.87
-18.99
-33.48
-29.09
-6.24
28.81
71.08
116.63
161.55
201.74
233.20
251.13
251.03
231.27
194.41
148.35
103.16
67.60
47.20
41.15
43.06
45.18
41.48
29.71
12.90
-3.29
-13.60
-15.81
-11.59
-6.59
-4.66
-8.47
-18.23
-30.98
-42.41
-47.93
-45.35
-36.39
-25.98
-19.75
-21.83
-32.22
-44.50
-52.07
-49.46
-35.62
-14.77
5.77
19.78
24.54
21.77
16.30
12.29
11.51
12.78
13.31
10.85
5.70
0.14
-2.92
-1.50
3.88
11.09
17.21
20.06
19.15
15.82
12.24
10.46
11.55
14.96
19.30
22.89
24.54
24.10
22.36
20.55
19.75
20.51
22.53
25.06
27.27
28.63
29.06
28.95
28.83
28.71
28.98
29.59
30.29
30.77
30.83
30.45
29.75
28.86
27.90
26.95
25.93
24.69
23.12
21.13
18.68
15.76
12.33
8.35
3.88
-1.18
-6.89
-13.34
-20.58
-28.66
-37.62
-47.52
-58.43
-70.33
-83.26
-97.31
-112.61
-129.27
-147.43
-167.23
-188.84
-212.40
-237.87
-265.04
-293.36
-321.95
-349.45
-374.06
-393.64
-405.84
-409.11
-401.68
-382.36
-350.96
-308.30
-256.26
-197.46
-135.02
-72.16
-11.88
43.35
91.65
131.86
163.54
186.91
202.69
211.90
215.70
215.22
211.48
205.29
197.25
187.86
177.57
166.67
155.33
143.64
131.68
119.54
107.31
95.12
82.99
71.01
59.20
47.61
36.24
25.12
14.28
3.86
-6.04
-15.35
-23.96
-31.84
-38.93
-45.20
-50.68
-55.45
-59.50
-62.99
-66.11
-69.06
-72.05
-75.22
-78.64
-82.28
-86.08
-89.78
-93.20
-96.14
-98.44
-99.97
-100.70
-100.51
-99.34
-97.75
-96.13
-94.85
-94.19
-94.31
-95.31
-97.13
-99.57
-102.41
-105.31
-107.89
-109.73
-110.46
-109.81
-107.62
-103.81
-98.47
-91.81
-84.16
-75.85
-67.21
-58.50
-49.95
-41.74
-33.92
-26.51
-19.53
-12.97
-6.72
-0.71
5.20
11.15
17.23
23.54
30.10
36.81
43.59
50.20
56.46
62.28
67.65
72.75
77.76
82.97
88.57
94.68
101.09
107.34
112.81
116.66
118.02
116.05
110.17
100.13
86.10
68.69
49.02
28.69
9.56
-6.55
-18.10
-24.19
-24.71
-20.54
-13.39
-5.37
1.73
6.79
9.54
10.34
9.95
9.17
8.42
7.77
7.18
7.07
8.41
12.71
21.44
35.32
53.89
75.36
97.29
117.36
134.40
148.67
161.67
175.36
191.35
210.55
232.99
257.94
283.76
307.64
325.78
333.83
328.43
308.80
277.86
241.83
208.16
182.39
165.95
156.04
147.69
136.90
122.78
107.74
95.42
88.30
85.71
84.23
79.92
70.86
58.67
47.27
40.25
38.35
38.16
33.62
19.68
-4.17
-32.33
-55.21
-63.96
-55.00
-31.86
-3.47
20.18
32.30
31.62
21.70
8.00
-5.17
-16.08
-25.03
-32.58
-38.38
-41.19
-39.48
-32.68
-21.69
-9.36
0.17
3.05
-2.40
-14.16
-27.20
-35.86
-37.04
-32.34
-27.24
-27.27
-34.38
-45.33
-53.45
-52.85
-42.44
-27.23
-15.77
-15.20
-27.12
-46.77
-65.40
-74.89
-71.35
-56.70
-37.44
-21.22
-13.05
-13.12
-17.30
-20.15
-18.19
-12.18
-6.71
-7.08
-15.43
-28.84
-40.89
-45.14
-39.06
-25.35
-10.31
-0.27
2.21
-0.07
-0.99
5.11
19.38
37.25
51.08
54.39
46.12
31.92
21.52
23.23
39.13
63.01
83.02
87.99
73.44
44.73
15.17
-0.71
5.25
30.60
63.51
89.62
99.50
92.96
77.29
61.51
49.87
39.47
23.87
-0.76
-30.39
-53.64
-58.26
-39.17
-3.01
33.65
52.99
45.29
14.10
-25.87
-56.91
-67.91
-59.18
-41.01
-26.89
-25.28
-35.55
-49.96
-59.59
-60.49
-56.36
-55.62
-66.21
-90.43
-123.10
-154.01
-173.10
-175.23
-162.02
-140.43
-118.82
-103.49
-96.79
-97.31
-101.19
-103.42
-98.83
-83.07
-53.19
-8.39
48.91
112.72
174.43
224.36
254.07
258.43
236.98
194.62
141.01
88.17
46.64
21.77
11.85
9.51
6.14
-3.41
-18.48
-34.12
-45.09
-49.47
-49.66
-50.13
-53.93
-60.61
-66.55
-68.20
-65.09
-60.59
-59.79
-66.21
-79.58
-95.62
-108.06
-111.64
-104.12
-86.85
-63.78
-39.35
-16.98
1.93
18.01
32.90
47.65
61.55
71.92
75.03
68.21
51.65
29.23
7.55
-6.93
-10.96
-6.02
2.48
8.29
7.66
1.05
-7.70
-14.13
-16.06
-14.80
-13.91
-16.60
-23.59
-32.68
-40.36
-43.86
-42.34
-36.60
-27.97
-17.45
-5.79
5.74
15.07
19.98
19.56
15.27
10.51
8.85
12.05
19.37
28.25
35.95
40.76
42.38
41.32
38.38
34.29
29.75
25.58
22.31
19.60
15.78
8.69
-2.86
-17.89
-33.55
-46.46
-54.31
-56.53
-53.58
-45.95
-32.39
-9.47
27.13
79.96
147.47
223.39
298.09
361.57
406.06
429.06
433.54
425.74
411.29
392.42
368.16
336.48
297.42
254.58
216.12
189.54
181.03
191.95
217.70
249.89
279.95
308.61
339.33
377.89
429.41
495.31
571.61
646.43
704.13
733.58
729.88
693.54
628.97
542.08
438.00
320.59
193.17
60.49
-70.42
-192.14
-298.40
-388.66
-467.76
-543.98
-625.31
-715.38
-810.54
-900.08
-970.38
-1010.02
-1013.69
-983.02
-924.88
-848.16
-760.79
-668.26
-573.96
-480.88
-392.53
-312.65
-243.99
-187.61
-142.67
-106.91
-77.62
-52.50
-30.58
-12.08
2.16
11.59
16.45
17.86
17.44
16.74
16.73
17.52
18.59
19.09
18.42
16.50
13.75
10.88
8.51
6.93
6.04
5.45
4.69
3.44
1.65
-0.47
-2.62
-4.54
-6.07
-7.23
-8.15
-8.97
-9.80
-10.69
-11.59
-12.47
-13.25
-13.89
-14.36
-14.68
-14.82
-14.81
-14.66
-14.38
-13.92
-13.34
-12.70
-12.02
-11.33
-10.64
-9.96
-9.30
-8.67
-8.07
-7.51
-6.99
-6.51
-6.06
-5.64
-5.26
-4.90
-4.57
-4.27
-3.99
-3.75
-3.52
-3.32
-3.13
-2.95
-2.79
-2.64
-2.49
-2.37
-2.25
-2.15
-2.04
-1.95
-1.87
-1.79
-1.71
-1.64
-1.57
-1.51
-1.46
-1.40
-1.35
-1.31
-1.26
-1.22
-1.17
-1.14
-1.10
-1.07
-1.03
-1.00
-0.98
-0.94
-0.91
-0.89
-0.86
-0.84
-0.82
-0.79
-0.77
-0.75
-0.73
-0.71
-0.69
-0.67
-0.65
-0.64
-0.62
-0.60
-0.59
-0.58
-0.56
-0.55
-0.53
-0.52
-0.51
-0.50
-0.48
-0.48
-0.46
-0.45
-0.44
-0.43
-0.42
-0.41
-0.40
-0.39
-0.39
-0.37
-0.37
-0.36
-0.35
-0.34
-0.34
-0.32
-0.31
-0.32
-0.31
-0.33
-0.35
-0.38
-0.43
-0.48
-0.53
-0.58
-0.63
-0.66
-0.68
-0.67
-0.64
-0.59
-0.52
-0.44
-0.35
-0.27
-0.20
-0.15
-0.09
-0.03
0.02
0.06
0.08
0.04
-0.07
-0.25
-0.47
-0.67
-0.82
-0.89
-0.91
-0.91
-0.96
-1.07
-1.26
-1.48
-1.63
-1.68
-1.60
-1.43
-1.25
-1.15
-1.21
-1.40
-1.62
-1.70
-1.48
-0.94
-0.15
0.64
1.14
1.21
0.88
0.27
-0.13
0.03
0.94
2.49
4.37
6.30
8.35
11.06
15.19
21.76
31.33
43.67
57.51
70.80
81.03
86.19
85.19
78.08
65.85
49.75
31.04
10.51
-10.98
-32.78
-54.13
-74.33
-92.90
-109.31
-122.48
-130.37
-129.71
-118.07
-95.28
-64.43
-31.40
-2.81
16.65
25.77
26.85
24.03
20.69
18.21
16.20
13.75
10.56
7.48
5.87
6.63
9.43
12.90
15.42
15.73
13.77
10.47
7.40
6.00
6.91
9.71
13.18
15.81
16.45
14.92
12.01
9.16
7.85
8.94
12.19
16.44
20.00
21.49
20.36
17.32
13.92
12.06
13.14
17.15
22.73
27.65
29.98
28.58
23.76
16.82
9.61
4.00
1.05
1.13
3.72
7.43
9.71
7.50
-1.40
-16.91
-36.17
-54.28
-66.31
-69.68
-65.34
-57.39
-50.62
-49.92
-56.73
-68.65
-80.67
-86.94
-83.19
-68.45
-45.36
-19.38
3.86
20.14
28.43
30.27
28.54
25.55
21.82
16.80
10.11
2.36
-4.79
-9.45
-10.90
-10.09
-9.32
-11.10
-17.33
-28.20
-42.76
-59.21
-75.62
-90.50
-103.09
-112.79
-119.00
-120.96
-117.65
-108.23
-92.30
-70.25
-43.32
-13.39
16.85
45.08
69.34
88.38
101.53
108.88
111.09
109.42
105.70
101.07
96.49
92.41
89.33
87.85
88.81
92.45
97.74
102.82
105.67
105.84
103.79
101.69
101.55
103.55
105.15
101.84
89.43
65.93
32.75
-6.02
-44.75
-78.18
-102.32
-114.79
-114.81
-102.63
-79.77
-48.86
-13.55
22.63
56.36
85.33
108.32
124.97
136.22
143.48
147.14
145.93
137.02
117.44
86.15
45.59
1.34
-38.70
-67.29
-81.65
-83.75
-78.62
-71.67
-66.34
-63.37
-62.05
-60.39
-56.26
-50.23
-44.52
-41.60
-43.29
-49.95
-60.73
-74.94
-90.66
-104.78
-116.17
-124.46
-129.06
-128.83
-121.79
-99.42
-62.67
-20.02
27.41
77.02
124.92
167.11
200.71
224.57
235.56
230.78
205.65
162.45
107.70
49.83
-4.20
-50.34
-86.87
-113.43
-130.91
-139.88
-140.26
-134.18
-125.13
-116.65
-111.27
-109.81
-111.49
-114.74
-117.25
-116.45
-112.04
-105.42
-98.64
-93.59
-91.58
-93.39
-99.17
-107.55
-114.71
-115.99
-107.21
-86.74
-57.09
-24.67
2.40
17.30
17.53
5.74
-12.27
-30.72
-44.93
-52.50
-52.61
-45.14
-30.13
-7.87
20.55
52.80
85.60
115.68
140.24
157.74
167.81
170.86
167.89
160.37
150.14
139.39
130.35
124.85
123.70
126.51
131.53
136.59
139.69
139.78
136.67
130.54
121.54
109.68
95.30
78.83
61.31
43.93
27.57
11.75
-4.54
-21.87
-39.75
-55.51
-66.26
-69.86
-66.14
-57.77
-49.85
-46.94
-48.94
-51.98
-49.51
-37.93
-19.13
0.77
14.82
18.29
11.35
-1.18
-13.65
-23.36
-33.12
-50.57
-79.71
-119.26
-163.73
-203.95
-229.86
-234.45
-208.99
-157.20
-89.93
-22.48
40.96
99.37
152.30
197.72
231.04
245.30
233.68
188.57
112.59
18.36
-76.49
-154.08
-201.57
-214.81
-205.70
-186.90
-170.28
-163.91
-171.44
-193.09
-225.97
-265.36
-302.31
-329.80
-343.19
-341.87
-328.33
-306.60
-280.50
-250.83
-215.02
-169.52
-113.39
-49.81
13.21
66.10
101.38
115.86
111.44
93.41
67.43
37.51
6.74
-22.00
-45.14
-59.58
-64.91
-65.04
-67.12
-78.33
-102.22
-135.94
-171.75
-200.76
-217.25
-220.91
-216.13
-208.99
-204.28
-203.92
-207.35
-213.19
-220.33
-227.99
-234.79
-238.40
-235.77
-224.14
-201.66
-167.72
-123.18
-69.68
-9.18
56.75
127.12
201.69
280.84
364.65
451.50
536.94
614.09
675.50
715.81
733.62
731.98
716.72
694.05
668.38
641.42
612.87
581.43
545.77
504.71
456.98
401.09
335.80
261.43
181.14
101.52
31.55
-19.83
-46.43
-47.35
-27.57
3.48
35.02
58.52
69.67
68.80
59.23
45.24
30.38
16.80
5.55
-2.97
-8.65
-11.59
-12.28
-11.48
-10.10
-8.95
-8.42
-8.28
-7.83
-6.35
-3.41
0.80
5.67
10.45
14.65
18.20
21.41
24.57
27.76
30.76
33.30
35.20
36.23
35.73
32.28
24.10
10.11
-8.78
-29.19
-46.24
-55.62
-55.91
-49.75
-42.85
-41.51
-50.14
-69.91
-99.24
-135.08
-173.65
-210.47
-239.80
-254.39
-246.87
-212.53
-152.24
-73.89
8.74
79.98
127.38
145.84
138.86
116.18
88.94
64.93
45.94
28.35
6.34
-24.25
-63.54
-107.51
-150.17
-185.95
-211.13
-223.94
-223.97
-211.67
-188.27
-156.05
-118.51
-80.16
-45.64
-18.72
-1.43
6.29
6.54
2.81
-1.17
-2.66
-0.77
3.39
7.43
9.02
7.03
2.18
-3.40
-7.36
-8.13
-5.60
-0.88
4.35
8.81
12.12
14.83
17.90
21.98
26.98
31.99
35.74
37.27
36.39
33.87
30.89
28.49
27.04
26.22
25.32
23.75
21.47
18.91
16.65
15.04
13.85
12.48
10.20
6.56
1.46
-4.82
-11.93
-19.49
-27.04
-33.85
-39.05
-41.80
-41.69
-38.97
-34.51
-29.64
-25.55
-23.06
-22.45
-23.49
-25.58
-27.71
-28.69
-27.24
-22.44
-14.07
-2.85
9.65
21.51
30.97
37.06
39.62
39.36
37.46
35.01
32.53
29.91
26.51
21.54
14.41
4.93
-6.56
-19.31
-32.10
-43.29
-50.97
-53.66
-50.93
-43.84
-34.58
-25.51
-18.03
-12.15
-6.88
-1.25
4.74
10.01
13.00
12.78
9.57
4.68
-0.41
-4.74
-8.23
-11.26
-14.05
-16.27
-17.24
-16.26
-13.04
-7.77
-1.09
6.10
12.98
18.87
23.47
26.79
29.29
31.74
34.88
39.12
44.26
49.29
52.83
53.63
51.07
45.38
37.50
28.61
19.77
11.67
4.64
-1.09
-5.35
-7.98
-9.01
-8.69
-7.44
-5.75
-4.03
-2.64
-1.84
-1.79
-2.45
-3.60
-4.67
-5.11
-4.63
-3.29
-1.65
-0.33
0.23
0.06
-0.36
-0.32
0.58
2.21
3.96
4.94
4.45
2.22
-1.51
-6.23
-11.57
-17.44
-24.12
-31.86
-40.74
-50.43
-60.30
-69.73
-78.40
-86.38
-93.86
-100.84
-106.90
-111.23
-112.93
-111.36
-106.58
-99.25
-90.47
-81.42
-73.10
-66.10
-60.73
-56.94
-54.37
-52.48
-50.59
-48.12
-44.71
-40.55
-36.28
-32.87
-31.24
-31.84
-34.55
-38.68
-43.27
-47.43
-50.78
-53.34
-55.50
-57.77
-60.45
-63.53
-66.70
-69.45
-71.07
-70.82
-67.98
-62.00
-52.68
-40.29
-25.50
-9.34
6.95
22.25
35.70
46.85
55.69
62.43
67.47
71.19
73.85
75.52
76.20
75.89
74.58
72.39
69.39
65.72
61.47
56.73
51.56
46.06
40.32
34.36
28.28
22.21
16.43
11.31
7.34
4.94
4.36
5.54
8.06
11.47
15.14
18.67
21.76
24.29
26.22
27.48
27.94
27.41
25.85
23.37
20.32
17.22
14.52
12.48
11.13
10.25
9.56
8.79
7.77
6.48
5.06
3.66
2.36
1.22
0.21
-0.77
-1.89
-3.30
-5.01
-6.81
-8.29
-8.83
-7.85
-4.94
-0.11
6.20
13.23
20.08
25.99
30.48
33.40
34.87
35.15
34.46
33.06
31.12
28.88
26.51
24.20
22.04
20.02
18.03
15.93
13.70
11.25
8.55
5.51
2.06
-1.77
-5.86
-9.96
-13.80
-17.10
-19.81
-22.02
-23.89
-25.68
-27.60
-29.72
-31.99
-34.16
-35.76
-36.19
-34.88
-31.45
-25.98
-18.93
-11.11
-3.33
3.65
9.49
14.15
17.76
20.56
22.55
23.79
24.22
23.95
23.22
22.35
21.53
20.79
19.97
18.75
17.00
14.82
12.47
10.34
8.63
7.22
5.84
4.16
1.93
-0.88
-4.06
-7.38
-10.49
-13.19
-15.36
-17.06
-18.31
-19.34
-20.35
-21.58
-23.24
-25.32
-27.59
-29.45
-30.09
-28.66
-24.72
-18.34
-10.31
-1.80
6.07
12.46
17.12
20.22
22.18
23.38
24.13
24.55
24.76
24.90
25.02
25.10
25.06
24.74
24.05
23.02
21.74
20.38
19.06
17.77
16.39
14.83
12.88
10.44
7.53
4.31
1.11
-1.65
-3.67
-4.84
-5.35
-5.65
-6.24
-7.44
-9.26
-11.44
-13.64
-15.57
-17.15
-18.60
-20.25
-22.36
-24.95
-27.67
-29.98
-31.16
-30.59
-27.89
-23.08
-16.55
-9.01
-1.33
5.69
11.49
15.87
18.92
20.92
22.13
22.80
23.03
22.90
22.44
21.76
21.00
20.24
19.52
18.80
18.02
17.12
16.07
14.94
13.77
12.62
11.44
10.13
8.54
6.53
4.09
1.38
-1.34
-3.73
-5.55
-6.75
-7.56
-8.28
-9.30
-10.79
-12.74
-14.90
-16.99
-18.87
-20.49
-22.02
-23.60
-25.35
-27.29
-29.31
-31.17
-32.43
-32.64
-31.30
-28.13
-23.13
-16.63
-9.26
-1.85
4.87
10.42
14.55
17.36
19.15
20.30
21.18
21.96
22.66
23.08
23.11
22.67
21.87
20.93
20.02
19.26
18.61
18.03
17.41
16.76
16.02
15.31
14.67
14.05
13.42
12.63
11.53
10.07
8.33
6.44
4.59
2.78
0.78
-1.72
-5.06
-9.32
-14.20
-19.27
-24.11
-28.38
-31.99
-34.98
-37.25
-38.58
-38.62
-37.02
-33.67
-28.78
-22.86
-16.56
-10.52
-5.17
-0.67
2.96
5.78
7.81
9.09
9.69
9.74
9.54
9.44
9.70
10.38
11.33
12.16
12.59
12.42
11.64
10.45
9.10
7.82
6.69
5.57
4.24
2.54
0.39
-2.04
-4.45
-6.51
-7.98
-8.88
-9.43
-10.03
-11.05
-12.73
-15.05
-17.79
-20.55
-22.85
-24.16
-24.14
-22.62
-19.66
-15.57
-10.83
-5.96
-1.51
2.12
4.75
6.33
7.00
6.99
6.51
5.74
4.82
3.83
2.91
2.14
1.59
1.28
1.12
0.97
0.69
0.21
-0.44
-1.17
-1.90
-2.67
-3.66
-5.08
-7.17
-9.95
-13.16
-16.42
-19.32
-21.69
-23.52
-25.05
-26.44
-27.80
-29.13
-30.31
-31.26
-31.79
-31.57
-30.17
-27.07
-21.93
-14.85
-6.46
2.24
10.12
16.35
20.59
22.99
24.05
24.28
24.11
23.67
22.97
21.89
20.38
18.47
16.25
13.80
11.21
8.55
5.87
3.29
0.86
-1.32
-3.15
-4.56
-5.56
-6.21
-6.63
-6.97
-7.38
-8.02
-8.97
-10.23
-11.73
-13.34
-14.92
-16.36
-17.63
-18.75
-19.81
-20.98
-22.37
-24.03
-25.82
-27.32
-27.89
-26.83
-23.59
-18.01
-10.58
-2.16
6.13
13.37
19.02
23.00
25.45
26.63
26.80
26.06
24.60
22.61
20.43
18.37
16.71
15.51
14.67
13.96
13.06
11.84
10.34
8.75
7.28
6.07
5.13
4.32
3.44
2.35
1.08
-0.20
-1.30
-2.03
-2.36
-2.39
-2.42
-2.75
-3.76
-5.54
-7.99
-10.67
-12.91
-13.97
-13.21
-10.28
-5.17
1.65
9.43
17.27
24.37
30.27
34.79
38.01
40.13
41.36
41.79
41.49
40.57
39.15
37.41
35.48
33.42
31.21
28.87
26.42
23.96
21.54
19.18
16.89
14.64
12.40
10.12
7.76
5.27
2.64
-0.14
-3.17
-6.51
-10.31
-14.65
-19.49
-24.63
-29.65
-33.99
-37.14
-38.70
-38.52
-36.78
-33.97
-30.80
-28.02
-26.25
-25.79
-26.58
-28.34
-30.55
-32.80
-34.75
-36.15
-36.87
-36.90
-36.32
-35.32
-34.20
-33.18
-32.40
-31.82
-31.29
-30.61
-29.78
-28.93
-28.33
-28.26
-28.82
-29.88
-31.08
-32.07
-32.65
-32.94
-33.29
-34.10
-35.67
-37.92
-40.35
-42.12
-42.30
-40.11
-35.19
-27.81
-18.70
-8.95
0.31
8.23
14.31
18.53
21.15
22.60
23.35
23.83
24.38
25.16
26.25
27.53
28.79
29.78
30.30
30.25
29.75
29.01
28.26
27.68
27.25
26.85
26.24
25.24
23.72
21.76
19.54
17.22
14.99
12.83
10.64
8.25
5.43
2.02
-2.01
-6.29
-10.18
-12.76
-13.22
-11.18
-6.85
-1.01
5.28
11.07
15.86
19.46
22.04
23.75
24.70
24.98
24.56
23.64
22.42
21.15
19.96
18.94
18.03
17.09
16.00
14.61
12.90
10.89
8.79
6.82
5.16
3.91
2.96
2.12
1.16
-0.03
-1.51
-3.11
-4.64
-5.97
-7.05
-8.01
-9.10
-10.63
-12.86
-15.91
-19.74
-23.94
-27.86
-30.56
-31.18
-29.05
-24.05
-16.60
-7.63
1.73
10.37
17.56
23.03
26.86
29.36
30.92
31.79
32.12
31.95
31.26
30.04
28.44
26.52
24.47
22.46
20.65
19.12
17.98
17.25
16.80
16.47
15.98
15.11
13.74
11.88
9.61
7.07
4.42
1.71
-1.00
-3.67
-6.11
-8.10
-9.41
-9.91
-9.63
-8.74
-7.60
-6.60
-6.16
-6.57
-7.84
-9.63
-11.18
-11.58
-9.95
-5.87
0.47
8.32
16.67
24.63
31.81
38.28
44.36
50.30
56.07
61.29
65.47
68.16
69.17
68.62
66.70
63.59
59.21
53.38
46.00
37.14
27.19
16.70
6.25
-3.67
-12.78
-20.93
-28.04
-34.10
-39.24
-43.69
-47.80
-51.84
-55.96
-60.04
-63.89
-67.31
-70.31
-73.09
-75.98
-79.36
-83.40
-87.92
-92.23
-95.18
-95.39
-91.66
-83.51
-71.39
-56.74
-41.42
-27.12
-14.88
-4.83
3.58
11.08
18.27
25.37
32.26
38.78
44.88
50.62
56.18
61.87
67.83
74.09
80.46
86.42
91.24
94.20
94.87
93.47
90.85
88.17
86.51
86.22
86.79
87.01
85.54
81.77
76.16
70.16
65.68
64.28
66.47
71.72
79.03
87.52
97.07
108.34
122.40
140.43
163.47
192.14
226.15
263.48
299.41
326.44
336.04
321.52
281.19
219.76
147.21
75.20
12.78
-36.54
-74.86
-107.49
-139.74
-174.39
-211.28
-248.29
-283.07
-314.19
-341.37
-364.87
-384.82
-400.86
-412.07
-417.36
-416.19
-408.94
-397.10
-382.74
-367.80
-353.16
-338.37
-321.68
-300.86
-274.29
-241.69
-204.51
-165.54
-128.22
-95.45
-68.76
-47.73
-30.24
-13.59
4.17
22.93
40.27
52.35
55.69
48.78
32.89
11.58
-10.76
-30.21
-44.21
-51.62
-52.24
-46.65
-36.64
-25.54
-17.88
-18.01
-27.94
-45.84
-66.18
-81.81
-87.25
-81.52
-68.74
-56.21
-50.79
-55.67
-69.02
-85.19
-97.52
-101.10
-93.89
-76.14
-49.07
-13.76
28.71
76.23
124.95
169.56
204.87
227.94
239.14
241.47
238.86
233.99
227.36
217.76
203.77
185.13
163.28
140.65
119.44
100.72
84.20
68.72
53.13
36.64
18.96
0.08
-19.46
-38.21
-53.54
-62.07
-60.80
-48.27
-25.72
3.16
33.14
59.11
77.40
86.59
87.32
81.58
72.18
61.93
53.18
47.22
44.05
42.46
40.65
37.14
31.31
23.54
14.71
5.84
-2.40
-9.46
-14.86
-17.98
-18.03
-14.46
-7.11
3.57
16.70
31.35
46.70
62.08
76.71
89.52
99.06
104.03
103.89
99.31
92.30
85.40
80.90
80.09
82.99
88.65
95.71
102.95
109.35
114.32
117.66
119.54
120.45
121.12
122.14
123.77
125.83
127.72
128.77
128.32
126.04
121.91
116.07
108.70
99.92
89.60
77.38
62.92
45.95
26.55
5.34
-16.66
-38.10
-57.70
-74.46
-87.96
-98.17
-105.40
-110.23
-113.26
-115.33
-117.45
-120.73
-126.25
-134.73
-146.01
-158.57
-169.72
-176.01
-174.53
-163.79
-144.19
-117.65
-86.82
-54.10
-21.14
11.32
43.26
74.99
106.84
138.51
168.39
193.16
208.50
210.68
198.56
175.13
146.83
121.65
106.56
105.63
119.72
147.22
185.00
229.25
276.08
321.66
362.94
398.02
426.12
446.87
459.03
459.56
444.23
409.24
352.93
277.04
186.58
88.63
-9.51
-101.85
-184.83
-257.49
-320.86
-377.12
-428.34
-475.79
-519.51
-558.48
-591.19
-616.27
-633.04
-641.82
-644.44
-644.37
-646.05
-652.97
-665.10
-678.84
-688.26
-687.65
-673.70
-646.88
-610.54
-568.75
-523.18
-470.71
-406.24
-325.66
-228.40
-117.64
0.45
118.23
228.31
325.36
407.76
474.75
525.44
558.41
572.87
568.00
541.92
491.49
414.39
312.92
193.09
64.28
-62.27
-175.40
-263.77
-317.31
-334.17
-332.70
-327.75
-327.19
-330.03
-333.76
-333.59
-323.59
-298.98
-258.26
-203.55
-137.98
-66.80
3.98
68.97
124.94
170.15
203.25
223.06
229.80
227.81
223.26
222.61
230.74
250.66
282.40
323.08
367.67
410.76
449.02
480.67
505.14
522.37
532.30
533.34
522.38
495.87
451.90
392.43
323.05
251.99
188.55
141.73
118.48
122.42
152.57
202.75
261.87
315.81
350.81
357.31
332.36
279.31
205.61
120.13
31.26
-53.30
-126.20
-180.61
-210.98
-214.92
-194.93
-157.63
-111.83
-65.57
-23.77
12.26
44.17
74.81
105.98
135.93
160.09
172.98
170.77
153.46
124.58
89.73
54.14
20.93
-11.22
-45.25
-83.07
-123.91
-164.88
-203.75
-240.50
-276.91
-314.37
-354.13
-395.52
-436.39
-475.01
-511.80
-549.84
-592.97
-642.64
-679.37
-681.50
-633.72
-536.23
-405.26
-263.59
-130.35
-16.39
75.33
146.13
200.84
240.69
264.52
271.37
262.08
238.78
204.00
159.45
103.75
35.96
-43.67
-131.00
-217.48
-292.04
-345.14
-372.38
-375.41
-360.59
-336.51
-311.28
-289.65
-273.22
-261.55
-254.25
-251.77
-254.53
-262.21
-273.62
-287.25
-301.14
-313.41
-322.10
-325.61
-322.62
-311.79
-292.06
-263.05
-225.74
-182.24
-135.53
-88.88
-45.22
-6.67
26.01
53.00
75.14
93.12
107.13
117.00
122.48
123.68
121.22
116.68
111.89
108.55
107.79
109.97
114.87
122.28
132.32
145.36
162.16
183.12
207.96
235.66
264.73
293.68
321.59
348.26
373.96
399.25
424.45
449.82
475.56
501.53
526.56
548.02
561.72
563.16
549.34
520.37
480.11
434.86
391.12
353.55
324.16
303.03
289.64
283.99
286.34
296.38
312.20
330.08
345.68
355.59
358.62
356.01
350.87
346.32
344.12
343.31
340.15
329.35
306.06
268.40
218.76
163.68
111.67
70.36
43.75
31.14
27.92
27.54
23.79
12.20
-9.52
-42.16
-85.60
-139.21
-201.72
-270.64
-342.57
-413.90
-481.99
-546.06
-606.75
-664.83
-719.46
-767.59
-804.51
-826.25
-831.80
-824.07
-808.64
-791.13
-774.93
-759.84
-742.76
-719.22
-684.97
-637.00
-573.87
-495.65
-403.94
-302.23
-195.54
-89.77
9.60
98.56
175.25
239.82
293.72
338.98
377.28
408.91
432.11
443.06
437.29
412.03
368.71
313.86
257.85
211.78
183.50
175.15
182.98
199.84
218.44
234.36
246.91
257.95
269.81
283.16
296.13
304.79
305.00
294.18
272.62
243.18
209.97
176.75
145.96
118.58
94.98
75.93
62.93
57.77
61.51
73.49
91.16
110.86
128.87
142.75
152.40
159.95
169.08
183.66
206.01
235.98
271.02
306.69
337.79
359.48
367.77
360.11
335.82
295.90
242.88
180.32
111.92
40.95
-30.27
-100.56
-169.61
-237.73
-306.09
-376.12
-448.52
-522.01
-592.08
-651.32
-691.54
-706.78
-696.01
-664.40
-621.60
-578.28
-542.84
-519.20
-506.89
-503.13
-504.46
-507.71
-509.68
-506.16
-491.67
-460.51
-408.27
-333.09
-236.34
-121.94
4.08
134.32
260.63
374.91
470.23
542.28
590.05
614.88
619.12
604.31
570.82
519.02
450.95
371.42
287.79
208.04
138.42
82.07
39.16
8.23
-12.63
-25.44
-32.21
-34.83
-34.41
-30.95
-23.37
-10.31
8.35
30.69
52.64
69.37
76.96
73.70
60.17
38.36
10.39
-22.11
-57.64
-94.20
-128.42
-156.01
-173.04
-177.37
-169.64
-152.98
-131.66
-109.20
-87.11
-64.76
-40.75
-14.39
13.13
38.85
59.06
70.86
73.50
68.92
61.24
55.22
54.42
59.82
69.51
79.95
87.81
91.77
92.94
93.99
97.24
103.14
110.07
115.23
116.42
112.99
105.64
95.36
82.35
66.09
46.28
24.10
2.41
-15.38
-27.04
-32.82
-35.15
-37.13
-40.54
-44.93
-47.92
-46.65
-39.29
-25.88
-8.10
11.57
30.48
46.04
55.97
58.54
52.97
39.79
20.67
-1.97
-25.60
-48.24
-68.97
-87.97
-106.58
-126.90
-151.22
-181.14
-216.66
-255.44
-292.87
-323.08
-340.49
-341.51
-325.64
-295.29
-254.77
-208.68
-160.89
-113.93
-69.38
-28.24
8.77
41.55
71.27
100.51
132.83
171.20
216.73
267.84
320.71
370.71
414.22
449.90
478.72
503.01
524.54
542.72
553.79
551.24
527.71
477.45
398.45
293.29
168.63
33.26
-104.18
-236.80
-359.51
-467.94
-557.09
-620.82
-652.99
-649.25
-608.93
-535.38
-435.47
-318.41
-194.74
-75.75
27.14
104.02
148.87
161.93
150.48
126.96
104.69
93.28
95.93
109.56
127.63
143.63
153.41
155.67
150.87
139.79
122.94
101.06
75.97
50.99
30.30
17.26
12.90
15.44
21.14
26.19
28.48
28.30
27.92
29.83
34.91
41.61
46.40
45.56
37.25
22.53
4.99
-10.91
-21.72
-26.38
-25.99
-22.83
-19.06
-15.86
-13.42
-11.37
-9.30
-6.70
-3.05
2.29
9.83
19.50
30.70
42.69
54.91
67.15
79.21
90.47
99.77
105.62
107.07
104.45
99.36
94.07
90.39
88.86
88.56
87.61
83.91
75.95
63.19
46.00
25.37
2.64
-20.71
-43.20
-63.41
-80.17
-92.69
-100.69
-104.40
-104.58
-102.28
-98.69
-94.93
-91.83
-89.81
-88.76
-88.20
-87.50
-86.15
-83.99
-81.21
-78.25
-75.59
-73.49
-71.98
-70.93
-70.07
-69.16
-68.02
-66.35
-63.83
-60.12
-55.00
-48.60
-41.40
-34.08
-27.24
-21.32
-16.33
-12.17
-8.75
-6.09
-4.33
-3.52
-3.44
-3.70
-3.88
-3.65
-3.06
-2.35
-1.81
-1.64
-1.91
-2.55
-3.52
-4.75
-6.13
-7.59
-9.07
-10.53
-12.02
-13.71
-15.68
-17.92
-20.24
-22.29
-23.72
-24.26
-23.65
-21.81
-18.94
-15.39
-11.83
-8.98
-7.41
-7.45
-8.96
-11.53
-14.65
-17.94
-21.21
-24.48
-27.90
-31.54
-35.50
-39.72
-44.15
-48.78
-53.60
-58.65
-64.06
-70.05
-76.76
-84.20
-92.24
-100.47
-108.32
-114.96
-119.48
-121.05
-119.08
-113.39
-104.28
-92.49
-79.02
-64.83
-50.52
-36.21
-21.44
-5.42
12.76
33.95
58.59
86.64
117.41
149.46
180.66
208.53
230.53
244.57
249.33
244.24
229.20
204.24
169.37
124.96
72.31
13.97
-46.40
-104.80
-157.95
-203.98
-242.22
-272.75
-295.47
-310.06
-316.39
-314.82
-306.20
-291.20
-269.55
-239.95
-201.14
-153.24
-98.85
-42.95
8.64
51.24
82.70
103.59
116.03
122.28
123.90
121.75
116.53
109.41
101.88
95.32
90.45
86.99
83.97
80.33
75.53
69.70
63.62
58.13
53.83
50.77
48.59
46.67
44.48
41.78
38.63
35.31
32.13
29.35
27.00
24.96
22.99
20.80
18.17
15.04
11.55
7.89
4.33
1.06
-1.76
-3.93
-5.30
-5.64
-4.81
-2.81
0.15
3.68
7.27
10.52
13.19
15.17
16.48
17.15
17.16
16.52
15.28
13.62
11.73
9.95
8.54
7.74
7.64
8.15
9.07
10.14
11.04
11.47
11.37
10.79
9.90
8.93
7.99
7.04
5.99
4.73
3.27
1.81
0.61
-0.04
0.05
0.86
2.17
3.65
4.94
5.82
6.21
6.08
5.58
4.92
4.21
3.57
3.02
2.53
2.09
1.71
1.41
1.23
1.14
1.08
0.94
0.65
0.24
-0.14
-0.32
-0.24
0.09
0.46
0.69
0.60
0.11
-0.81
-2.12
-3.75
-5.50
-7.09
-8.24
-8.60
-7.99
-6.45
-4.20
-1.64
0.87
3.03
4.73
5.91
6.70
7.22
7.54
7.82
8.01
8.03
7.78
7.18
6.23
5.04
3.79
2.61
1.68
1.05
0.74
0.70
0.83
0.96
0.97
0.72
0.13
-0.73
-1.77
-2.80
-3.70
-4.39
-4.85
-5.16
-5.43
-5.86
-6.54
-7.53
-8.66
-9.60
-10.03
-9.63
-8.31
-6.14
-3.39
-0.33
2.70
5.50
7.91
9.80
11.11
11.78
11.80
11.19
10.09
8.60
6.94
5.34
3.98
2.97
2.32
1.99
1.90
1.97
2.09
2.17
2.15
1.97
1.63
1.05
0.30
-0.62
-1.70
-2.90
-4.17
-5.35
-6.36
-7.10
-7.65
-8.12
-8.60
-9.06
-9.32
-9.10
-8.12
-6.28
-3.70
-0.69
2.31
4.92
6.87
8.12
8.83
9.15
9.26
9.24
9.08
8.76
8.20
7.37
6.34
5.15
3.87
2.57
1.29
0.06
-1.04
-1.95
-2.60
-2.98
-3.10
-3.04
-2.85
-2.60
-2.34
-2.12
-2.04
-2.18
-2.70
-3.69
-5.21
-7.15
-9.26
-11.17
-12.52
-12.98
-12.36
-10.70
-8.21
-5.20
-2.10
0.81
3.27
5.23
6.72
7.85
8.71
9.37
9.80
9.86
9.43
8.46
7.02
5.34
3.67
2.24
1.19
0.47
-0.14
-0.89
-1.93
-3.26
-4.65
-5.85
-6.68
-7.09
-7.22
-7.26
-7.33
-7.46
-7.60
-7.63
-7.57
-7.39
-7.12
-6.72
-6.06
-5.01
-3.56
-1.87
-0.12
1.50
2.90
4.06
5.07
5.92
6.60
7.01
7.12
6.95
6.64
6.32
6.04
5.81
5.56
5.22
4.74
4.10
3.34
2.51
1.67
0.87
0.14
-0.52
-1.20
-1.93
-2.79
-3.77
-4.85
-5.99
-7.14
-8.32
-9.65
-11.17
-12.78
-14.27
-15.24
-15.28
-14.12
-11.74
-8.40
-4.64
-1.01
2.06
4.36
5.96
7.14
8.14
9.10
9.96
10.53
10.62
10.17
9.22
7.93
6.46
4.94
3.46
2.07
0.81
-0.22
-0.96
-1.43
-1.70
-1.91
-2.17
-2.54
-3.04
-3.65
-4.30
-4.92
-5.50
-6.03
-6.47
-6.79
-6.98
-7.05
-7.08
-7.25
-7.81
-8.88
-10.38
-11.99
-13.18
-13.40
-12.35
-10.00
-6.69
-2.97
0.70
4.00
6.80
9.15
11.15
12.88
14.41
15.68
16.75
17.68
18.50
19.13
19.44
19.27
18.58
17.50
16.25
15.11
14.32
13.89
13.69
13.44
12.94
12.06
10.75
9.07
7.04
4.75
2.18
-0.60
-3.55
-6.60
-9.63
-12.53
-15.21
-17.62
-19.67
-21.30
-22.45
-23.06
-23.07
-22.46
-21.22
-19.37
-16.88
-13.76
-10.06
-5.87
-1.33
3.29
7.70
11.55
14.53
16.42
17.16
16.84
15.65
13.87
11.67
9.20
6.50
3.61
0.63
-2.29
-4.99
-7.32
-9.14
-10.41
-11.05
-10.96
-10.10
-8.53
-6.46
-4.30
-2.54
-1.51
-1.28
-1.57
-1.85
-1.65
-0.74
0.65
2.03
2.78
2.49
1.02
-1.37
-4.16
-6.77
-8.58
-9.19
-8.35
-6.03
-2.45
1.93
6.51
10.63
13.71
15.49
15.90
15.10
13.40
11.15
8.60
5.88
3.05
0.09
-2.98
-6.10
-9.20
-12.20
-14.98
-17.48
-19.66
-21.49
-23.05
-24.36
-25.45
-26.28
-26.82
-27.04
-26.89
-26.34
-25.41
-24.12
-22.50
-20.64
-18.58
-16.43
-14.29
-12.13
-9.89
-7.50
-4.99
-2.42
0.05
2.27
4.12
5.45
6.21
6.34
5.77
4.57
2.90
1.00
-0.86
-2.47
-3.76
-4.69
-5.35
-5.79
-5.95
-5.83
-5.36
-4.51
-3.34
-1.95
-0.52
0.73
1.64
2.10
2.12
1.85
1.52
1.31
1.22
1.10
0.55
-0.75
-2.99
-6.10
-9.71
-13.31
-16.40
-18.61
-19.73
-19.66
-18.36
-15.88
-12.46
-8.38
-4.08
0.06
3.82
7.18
10.24
13.10
15.68
17.67
18.67
18.38
16.73
13.95
10.40
6.44
2.33
-1.80
-5.86
-9.68
-13.03
-15.57
-17.05
-17.39
-16.70
-15.21
-13.14
-10.68
-7.90
-4.97
-2.13
0.24
1.69
1.88
0.74
-1.45
-4.09
-6.45
-7.91
-8.14
-7.12
-5.08
-2.37
0.70
3.91
7.10
10.16
13.02
15.69
18.32
21.07
24.02
27.00
29.64
31.53
32.48
32.57
32.16
31.62
31.15
30.67
29.93
28.65
26.85
24.76
22.76
21.19
20.10
19.39
18.82
18.19
17.36
16.37
15.23
14.02
12.74
11.38
9.90
8.35
6.84
5.53
4.62
4.27
4.61
5.59
6.99
8.45
9.57
10.06
9.90
9.23
8.34
7.44
6.69
6.05
5.49
4.95
4.49
4.22
4.19
4.34
4.52
4.54
4.25
3.70
3.00
2.40
2.06
2.05
2.29
2.58
2.71
2.51
1.94
1.00
-0.21
-1.61
-3.10
-4.59
-5.98
-7.27
-8.46
-9.55
-10.53
-11.28
-11.62
-11.36
-10.31
-8.47
-5.98
-3.14
-0.31
2.27
4.41
6.07
7.23
7.92
8.13
7.90
7.25
6.30
5.21
4.12
3.17
2.43
1.96
1.70
1.59
1.52
1.42
1.27
1.09
0.93
0.84
0.78
0.68
0.50
0.18
-0.27
-0.82
-1.44
-2.14
-2.89
-3.64
-4.30
-4.73
-4.87
-4.70
-4.36
-4.04
-3.97
-4.31
-5.07
-6.11
-7.12
-7.71
-7.54
-6.47
-4.54
-2.13
0.29
2.29
3.58
4.17
4.25
4.07
3.82
3.59
3.31
2.89
2.32
1.63
0.92
0.25
-0.36
-0.90
-1.31
-1.52
-1.41
-0.90
-0.06
0.96
1.96
2.74
3.24
3.49
3.55
3.47
3.26
2.84
2.11
1.02
-0.45
-2.20
-3.97
-5.48
-6.50
-6.93
-6.87
-6.50
-6.03
-5.59
-5.21
-4.84
-4.44
-4.07
-3.72
-3.33
-2.80
-1.95
-0.78
0.54
1.70
2.31
2.15
1.33
0.16
-0.92
-1.59
-1.77
-1.64
-1.40
-1.28
-1.32
-1.39
-1.34
-1.07
-0.60
-0.03
0.47
0.80
0.94
0.93
0.91
0.97
1.14
1.33
1.45
1.38
1.11
0.72
0.31
-0.03
-0.30
-0.60
-1.04
-1.69
-2.51
-3.36
-4.10
-4.72
-5.25
-5.83
-6.53
-7.26
-7.87
-8.18
-7.99
-7.22
-5.90
-4.10
-2.05
0.02
1.91
3.40
4.39
4.92
5.04
4.88
4.56
4.17
3.77
3.44
3.16
2.90
2.63
2.32
1.98
1.69
1.51
1.43
1.43
1.41
1.29
1.07
0.79
0.51
0.31
0.18
0.07
-0.08
-0.34
-0.71
-1.08
-1.35
-1.43
-1.31
-1.12
-0.98
-1.00
-1.20
-1.52
-1.90
-2.33
-2.91
-3.67
-4.57
-5.43
-5.97
-5.86
-5.02
-3.52
-1.64
0.25
1.86
3.00
3.66
3.90
3.91
3.77
3.53
3.25
3.01
2.90
3.03
3.43
4.01
4.61
5.04
5.11
4.80
4.15
3.32
2.45
1.59
0.80
-0.00
-0.85
-1.70
-2.49
-3.19
-3.66
-3.85
-3.82
-3.66
-3.52
-3.57
-3.91
-4.51
-5.30
-6.01
-6.41
-6.31
-5.71
-4.72
-3.54
-2.34
-1.23
-0.20
0.83
1.89
2.98
3.98
4.73
5.11
5.06
4.60
3.82
2.84
1.75
0.73
-0.11
-0.66
-0.95
-1.05
-1.10
-1.26
-1.60
-2.12
-2.73
-3.35
-3.95
-4.55
-5.20
-5.83
-6.37
-6.68
-6.77
-6.65
-6.46
-6.22
-5.85
-5.22
-4.18
-2.74
-1.07
0.47
1.65
2.33
2.56
2.54
2.41
2.24
2.01
1.67
1.21
0.66
0.09
-0.48
-1.02
-1.52
-1.93
-2.18
-2.19
-1.95
-1.57
-1.24
-1.16
-1.41
-2.00
-2.73
-3.45
-4.03
-4.49
-4.94
-5.48
-6.20
-7.00
-7.81
-8.42
-8.70
-8.53
-7.91
-6.92
-5.68
-4.34
-3.04
-1.86
-0.85
-0.01
0.72
1.44
2.21
3.06
3.90
4.63
5.08
5.16
4.89
4.38
3.87
3.50
3.33
3.27
3.14
2.79
2.10
1.19
0.26
-0.45
-0.81
-0.90
-0.94
-1.21
-1.79
-2.64
-3.57
-4.41
-5.06
-5.52
-5.81
-5.90
-5.69
-5.10
-4.21
-3.23
-2.48
-2.16
-2.21
-2.39
-2.37
-1.97
-1.20
-0.24
0.73
1.63
2.50
3.44
4.41
5.29
5.85
5.96
5.69
5.30
5.11
5.32
5.93
6.66
7.22
7.33
6.91
6.01
4.84
3.55
2.23
0.89
-0.58
-2.17
-3.85
-5.47
-6.98
-8.31
-9.55
-10.73
-11.83
-12.71
-13.09
-12.73
-11.54
-9.71
-7.57
-5.52
-3.79
-2.37
-1.12
0.21
1.78
3.55
5.37
7.02
8.31
9.20
9.74
9.98
10.02
9.84
9.45
8.87
8.18
7.50
6.96
6.61
6.40
6.22
5.88
5.20
4.15
2.85
1.49
0.29
-0.59
-1.17
-1.53
-1.86
-2.24
-2.71
-3.17
-3.56
-3.87
-4.18
-4.64
-5.33
-6.22
-7.05
-7.47
-7.24
-6.33
-5.01
-3.62
-2.52
-1.84
-1.54
-1.42
-1.21
-0.75
-0.00
1.03
2.30
3.69
5.12
6.40
7.32
7.78
7.78
7.48
7.10
6.91
7.04
7.52
8.25
9.03
9.63
9.89
9.68
9.05
8.07
6.98
6.00
5.28
4.82
4.51
4.18
3.66
2.96
2.14
1.30
0.55
-0.09
-0.66
-1.27
-2.06
-3.13
-4.47
-5.99
-7.46
-8.53
-8.87
-8.30
-6.87
-4.88
-2.73
-0.77
0.79
1.89
2.68
3.31
3.97
4.75
5.61
6.50
7.24
7.67
7.64
7.14
6.28
5.28
4.38
3.77
3.51
3.56
3.84
4.20
4.53
4.62
4.35
3.66
2.60
1.33
0.10
-0.88
-1.44
-1.53
-1.27
-0.78
-0.20
0.37
0.82
1.07
1.04
0.69
0.05
-0.83
-1.82
-2.85
-3.80
-4.63
-5.28
-5.62
-5.54
-4.91
-3.70
-2.09
-0.40
1.09
2.21
2.91
3.35
3.71
4.10
4.54
4.96
5.32
5.68
6.09
6.60
7.18
7.71
8.04
8.11
7.91
7.58
7.30
7.21
7.39
7.87
8.60
9.54
10.66
11.87
13.12
14.27
15.26
16.09
16.85
17.63
18.52
19.54
20.62
21.70
22.76
23.83
25.03
26.39
27.86
29.30
30.56
31.45
31.90
31.88
31.33
30.32
28.86
26.93
24.59
21.87
18.76
15.28
11.50
7.53
3.63
0.13
-2.63
-4.41
-5.08
-4.73
-3.62
-2.01
-0.10
2.01
4.37
7.14
10.46
14.38
18.90
23.94
29.45
35.44
41.94
48.92
56.26
63.70
70.85
77.18
82.17
85.36
86.57
86.05
84.41
82.45
80.84
79.70
78.42
75.73
70.24
61.04
48.40
34.07
20.86
11.84
9.26
13.65
23.73
36.84
49.72
59.30
63.35
60.84
52.09
38.99
24.55
12.10
4.29
1.77
2.98
4.69
3.47
-2.89
-14.40
-29.21
-44.58
-58.25
-69.17
-77.68
-85.05
-92.82
-101.98
-112.55
-123.49
-132.94
-138.93
-140.09
-136.15
-128.01
-117.31
-105.73
-94.47
-84.19
-75.31
-68.23
-63.57
-61.66
-62.26
-64.39
-66.50
-67.17
-65.59
-61.78
-56.35
-50.25
-44.25
-38.96
-34.67
-31.52
-29.57
-28.73
-28.82
-29.51
-30.41
-30.99
-30.88
-29.70
-27.34
-23.85
-19.48
-14.60
-9.64
-4.93
-0.70
2.84
5.63
7.60
8.76
9.28
9.53
10.01
11.25
13.51
16.67
20.38
24.12
27.52
30.53
33.37
36.43
39.99
44.08
48.28
52.10
55.02
56.73
57.25
56.62
54.86
51.77
47.11
40.71
32.86
24.27
15.81
8.13
1.41
-4.18
-8.23
-9.76
-7.72
-1.77
6.90
15.78
21.87
23.08
19.36
12.69
6.09
2.17
1.98
4.78
8.71
11.75
12.40
10.07
5.02
-1.81
-8.89
-14.61
-17.58
-17.13
-13.28
-6.39
3.32
16.10
32.46
52.56
75.28
98.08
117.28
129.06
130.71
121.23
101.39
73.23
39.52
3.18
-32.83
-65.74
-93.18
-113.54
-126.36
-132.29
-132.86
-129.87
-124.97
-119.41
-113.96
-109.08
-104.94
-101.54
-98.73
-96.33
-94.24
-92.49
-91.16
-90.31
-89.98
-89.95
-89.93
-89.51
-88.16
-85.48
-81.26
-75.68
-69.29
-62.93
-57.17
-52.12
-47.30
-41.84
-35.07
-26.63
-16.53
-4.73
8.98
24.87
42.50
60.26
75.47
85.10
87.17
81.64
70.40
56.25
41.53
27.13
12.56
-3.02
-19.83
-36.72
-51.65
-62.64
-68.69
-70.17
-68.41
-64.91
-60.59
-55.73
-50.05
-43.22
-35.33
-26.83
-18.41
-10.61
-3.67
2.52
8.22
13.63
18.72
23.19
26.60
28.54
28.84
27.79
26.11
24.79
24.76
26.52
29.90
34.21
38.42
41.61
43.31
43.59
42.91
41.84
40.71
39.53
38.04
35.97
33.18
29.86
26.39
23.10
20.19
17.60
15.12
12.51
9.69
6.71
3.70
0.81
-1.91
-4.48
-6.97
-9.42
-11.82
-14.15
-16.36
-18.44
-20.41
-22.31
-24.02
-25.23
-25.49
-24.25
-21.13
-16.13
-9.66
-2.50
4.36
10.26
14.81
18.03
20.19
21.54
22.19
22.16
21.46
20.15
18.54
16.93
15.54
14.47
13.58
12.67
11.54
10.18
8.67
7.24
6.00
4.98
4.07
2.99
1.49
-0.69
-3.59
-7.07
-10.79
-14.35
-17.37
-19.65
-21.24
-22.38
-23.47
-24.87
-26.74
-28.98
-31.11
-32.43
-32.16
-29.76
-25.07
-18.48
-10.75
-2.90
4.15
9.82
13.92
16.62
18.28
19.33
20.06
20.61
20.94
20.98
20.71
20.24
19.73
19.37
19.23
19.28
19.33
19.11
18.47
17.36
15.81
13.99
12.03
10.02
7.95
5.80
3.51
1.05
-1.57
-4.30
-7.07
-9.70
-12.03
-13.97
-15.47
-16.69
-17.83
-19.20
-21.06
-23.47
-26.23
-28.83
-30.47
-30.28
-27.62
-22.27
-14.65
-5.67
3.51
11.78
18.38
23.08
26.01
27.57
28.19
28.22
27.87
27.27
26.45
25.37
23.93
22.07
19.86
17.47
15.30
13.62
12.60
12.12
11.84
11.37
10.45
9.10
7.46
5.72
3.86
1.74
-0.88
-4.10
-7.83
-11.75
-15.37
-18.27
-20.16
-21.01
-21.07
-20.79
-20.65
-21.04
-22.08
-23.55
-24.92
-25.48
-24.49
-21.50
-16.42
-9.61
-1.82
6.04
13.08
18.67
22.57
24.91
26.02
26.29
25.97
25.18
23.98
22.42
20.60
18.66
16.78
15.05
13.49
12.00
10.40
8.63
6.77
4.96
3.46
2.47
2.02
1.88
1.72
1.03
-0.44
-2.68
-5.34
-7.87
-9.85
-11.05
-11.62
-11.85
-12.12
-12.70
-13.76
-15.32
-17.23
-19.21
-20.74
-21.20
-19.97
-16.72
-11.49
-4.73
2.68
9.85
15.93
20.44
23.26
24.65
24.99
24.68
24.01
23.02
21.69
19.96
17.88
15.63
13.47
11.53
9.83
8.33
6.90
5.54
4.31
3.22
2.23
1.14
-0.29
-2.24
-4.67
-7.35
-9.82
-11.74
-13.03
-13.79
-14.37
-15.17
-16.38
-17.95
-19.50
-20.40
-20.00
-17.95
-14.23
-9.22
-3.61
1.87
6.68
10.46
13.19
14.93
15.81
15.92
15.33
14.11
12.35
10.18
7.72
5.15
2.56
0.16
-1.89
-3.51
-4.76
-5.81
-6.97
-8.54
-10.65
-13.26
-16.09
-18.81
-21.16
-23.04
-24.53
-25.86
-27.25
-28.78
-30.27
-31.29
-31.34
-29.93
-26.77
-21.89
-15.57
-8.32
-0.75
6.52
12.93
18.02
21.55
23.52
24.11
23.68
22.61
21.18
19.54
17.72
15.64
13.28
10.73
8.15
5.74
3.60
1.71
-0.07
-1.88
-3.78
-5.64
-7.35
-8.72
-9.71
-10.41
-11.06
-11.84
-12.93
-14.44
-16.33
-18.44
-20.41
-21.65
-21.45
-19.15
-14.41
-7.44
0.95
9.53
17.09
22.72
26.07
27.29
26.88
25.49
23.65
21.69
19.75
17.79
15.72
13.46
11.00
8.37
5.77
3.35
1.24
-0.43
-1.75
-2.81
-3.78
-4.85
-6.23
-8.06
-10.46
-13.40
-16.69
-20.09
-23.31
-26.27
-29.04
-31.92
-35.21
-38.94
-42.71
-45.61
-46.57
-44.70
-39.77
-32.36
-23.63
-14.99
-7.65
-2.32
0.71
1.36
-0.42
-4.64
-11.13
-19.29
-28.13
-36.52
-43.40
-48.11
-50.38
-50.22
-47.76
-43.07
-36.11
-26.63
-14.20
1.92
22.55
48.28
78.97
113.36
149.11
183.39
213.44
237.15
253.18
260.75
259.44
249.07
229.89
202.82
169.49
131.97
92.44
52.85
14.91
-19.83
-49.83
-73.75
-90.68
-100.56
-104.17
-103.10
-99.25
-94.39
-89.78
-85.98
-83.09
-80.85
-79.08
-77.60
-76.26
-74.79
-72.89
-70.25
-66.77
-62.70
-58.50
-54.70
-51.54
-48.89
-46.40
-43.66
-40.44
-36.81
-33.02
-29.35
-26.03
-23.16
-20.76
-18.93
-17.78
-17.44
-17.95
-19.26
-21.21
-23.60
-26.30
-29.11
-31.85
-34.10
-35.35
-34.91
-32.33
-27.50
-20.78
-12.98
-4.98
2.44
8.86
14.19
18.59
22.24
25.21
27.48
28.96
29.62
29.60
29.05
28.11
26.99
25.79
24.65
23.62
22.78
22.11
21.56
21.00
20.14
18.80
16.81
14.24
11.30
8.37
5.75
3.58
1.62
-0.57
-3.46
-7.19
-11.50
-15.66
-18.78
-20.19
-19.62
-17.27
-13.66
-9.35
-4.84
-0.44
3.70
7.46
10.73
13.39
15.40
16.68
17.22
17.07
16.35
15.30
14.08
12.93
11.92
11.07
10.16
9.04
7.45
5.29
2.57
-0.60
-3.96
-7.20
-10.07
-12.46
-14.33
-15.90
-17.42
-19.17
-21.42
-24.19
-27.31
-30.27
-32.41
-32.99
-31.55
-28.00
-22.60
-15.97
-8.76
-1.64
4.93
10.67
15.53
19.55
22.80
25.47
27.60
29.23
30.28
30.77
30.70
30.15
29.24
28.08
26.73
25.23
23.58
21.78
19.79
17.58
15.06
12.16
8.83
5.11
1.14
-2.86
-6.60
-9.87
-12.52
-14.60
-16.37
-18.20
-20.47
-23.38
-26.75
-30.04
-32.51
-33.35
-32.03
-28.51
-23.20
-16.77
-9.94
-3.26
2.91
8.39
13.07
16.91
19.83
21.92
23.28
24.15
24.69
24.98
25.03
24.77
24.19
23.24
21.96
20.31
18.29
15.91
13.22
10.37
7.51
4.79
2.27
-0.01
-2.05
-3.88
-5.48
-6.83
-7.94
-8.92
-9.94
-11.20
-12.78
-14.68
-16.92
-19.46
-22.32
-25.53
-28.95
-32.22
-34.77
-35.83
-34.79
-31.35
-25.64
-18.20
-9.85
-1.41
6.46
13.35
19.18
23.98
27.85
30.87
33.05
34.31
34.71
34.37
33.49
32.37
31.17
30.03
28.94
27.87
26.77
25.67
24.61
23.61
22.61
21.44
20.02
18.31
16.30
14.06
11.56
8.81
5.74
2.44
-0.98
-4.38
-7.61
-10.72
-13.78
-16.94
-20.27
-23.76
-27.28
-30.78
-34.22
-37.58
-40.78
-43.40
-44.88
-44.56
-41.95
-37.02
-30.18
-22.17
-13.86
-5.96
1.19
7.45
12.87
17.52
21.39
24.43
26.62
27.93
28.35
27.98
26.96
25.48
23.81
22.20
20.79
19.64
18.63
17.57
16.34
14.83
13.03
10.99
8.69
6.11
3.23
0.16
-2.83
-5.40
-7.30
-8.50
-9.22
-9.91
-11.00
-12.78
-15.10
-17.66
-19.95
-21.72
-23.01
-24.20
-25.78
-28.03
-30.70
-32.98
-33.79
-32.14
-27.59
-20.41
-11.58
-2.30
6.33
13.73
19.78
24.66
28.59
31.62
33.71
34.74
34.77
33.99
32.75
31.33
29.90
28.45
26.95
25.30
23.53
21.72
19.97
18.39
17.13
16.22
15.65
15.32
15.03
14.50
13.54
12.03
10.05
7.81
5.48
3.12
0.60
-2.23
-5.56
-9.44
-13.80
-18.53
-23.47
-28.47
-33.24
-37.31
-40.07
-40.88
-39.34
-35.43
-29.53
-22.32
-14.63
-7.22
-0.65
4.80
9.01
12.11
14.27
15.69
16.61
17.21
17.63
17.95
18.16
18.19
17.98
17.46
16.62
15.54
14.35
13.16
11.98
10.72
9.30
7.66
5.77
3.65
1.40
-0.85
-2.99
-4.96
-6.79
-8.65
-10.69
-13.14
-16.12
-19.53
-23.06
-26.14
-28.15
-28.46
-26.73
-22.89
-17.24
-10.35
-2.88
4.59
11.57
17.80
23.11
27.43
30.79
33.26
34.95
36.00
36.55
36.72
36.56
36.10
35.37
34.46
33.47
32.53
31.79
31.38
31.43
32.09
33.40
35.27
37.37
39.18
40.06
39.44
37.05
32.88
27.24
20.37
12.34
3.06
-7.57
-19.23
-31.08
-41.93
-50.67
-56.70
-60.22
-62.10
-63.26
-64.36
-65.43
-66.09
-65.92
-64.79
-62.94
-60.79
-58.80
-57.14
-55.79
-54.59
-53.33
-52.01
-50.85
-50.29
-50.83
-52.80
-56.12
-60.32
-64.64
-68.33
-70.99
-72.63
-73.47
-73.74
-73.38
-72.09
-69.62
-66.10
-62.04
-58.30
-55.51
-53.78
-52.59
-51.06
-48.40
-44.31
-38.97
-32.77
-25.82
-17.78
-8.12
3.24
15.63
27.61
37.61
44.75
49.26
52.28
55.14
58.60
62.33
65.37
66.70
65.88
63.34
59.95
56.48
53.13
49.60
45.28
39.86
33.54
27.02
21.17
16.75
14.11
13.05
13.08
13.57
14.01
14.00
13.39
12.14
10.35
8.29
6.27
4.57
3.36
2.55
1.76
0.50
-1.63
-4.73
-8.46
-12.20
-15.10
-16.42
-15.52
-12.15
-6.42
1.22
10.02
19.14
27.74
35.27
41.32
45.73
48.59
50.12
50.64
50.52
50.10
49.60
49.03
48.20
46.87
44.95
42.53
39.94
37.55
35.62
34.13
32.78
31.19
29.00
26.08
22.49
18.48
14.29
10.19
6.23
2.43
-1.26
-4.80
-8.09
-10.98
-13.37
-15.29
-16.99
-18.90
-21.41
-24.72
-28.57
-32.29
-34.90
-35.51
-33.48
-28.74
-21.66
-13.03
-3.83
5.06
13.01
19.69
25.00
28.99
31.75
33.38
33.99
33.75
32.90
31.77
30.64
29.67
28.88
28.15
27.33
26.37
25.23
23.94
22.46
20.75
18.82
16.76
14.69
12.73
10.95
9.19
7.22
4.80
1.87
-1.37
-4.63
-7.62
-10.18
-12.29
-14.09
-15.75
-17.50
-19.53
-22.06
-25.26
-29.03
-32.98
-36.40
-38.48
-38.43
-35.90
-30.97
-24.16
-16.26
-8.05
-0.09
7.19
13.63
19.08
23.34
26.21
27.58
27.57
26.58
25.15
23.76
22.72
22.05
21.63
21.26
20.92
20.60
20.32
20.05
19.64
18.89
17.63
15.79
13.46
10.83
8.06
5.27
2.47
-0.47
-3.63
-7.03
-10.50
-13.68
-16.17
-17.76
-18.44
-18.49
-18.31
-18.21
-18.31
-18.59
-19.01
-19.51
-20.10
-20.53
-20.26
-18.43
-14.23
-7.27
2.00
12.35
22.19
30.23
36.01
40.02
43.34
46.95
51.30
56.20
61.13
65.66
69.76
73.65
77.57
81.47
85.06
87.96
89.99
91.33
92.16
92.45
91.70
89.05
83.80
75.87
66.06
55.79
46.55
39.11
33.30
28.21
22.74
16.27
8.97
1.53
-5.39
-11.54
-17.32
-23.37
-30.16
-37.84
-46.10
-54.42
-62.38
-69.61
-75.66
-80.08
-82.31
-81.94
-78.95
-73.62
-66.59
-58.56
-50.25
-42.16
-34.67
-28.02
-22.30
-17.60
-13.92
-11.25
-9.59
-8.87
-8.96
-9.62
-10.49
-11.19
-11.47
-11.21
-10.51
-9.62
-8.79
-8.33
-8.44
-9.22
-10.71
-12.91
-15.63
-18.63
-21.54
-23.91
-25.39
-25.77
-25.07
-23.52
-21.52
-19.44
-17.58
-16.11
-15.03
-14.15
-13.10
-11.44
-8.74
-4.74
0.61
7.06
14.30
22.01
29.88
37.71
45.19
51.98
57.74
62.28
65.64
68.13
70.20
72.18
74.22
76.08
77.25
77.21
75.67
72.72
68.72
64.24
59.67
55.29
51.08
46.79
41.86
35.51
26.95
15.67
1.72
-14.14
-30.54
-46.04
-59.54
-70.63
-79.48
-86.41
-91.46
-94.17
-93.81
-89.86
-82.58
-72.95
-62.51
-52.72
-44.49
-37.96
-32.57
-27.68
-22.83
-18.14
-14.04
-11.11
-9.74
-10.04
-11.86
-14.85
-18.56
-22.52
-26.26
-29.38
-31.59
-32.78
-33.00
-32.42
-31.37
-30.25
-29.60
-29.94
-31.61
-34.65
-38.74
-43.32
-47.70
-51.37
-54.14
-56.08
-57.35
-58.06
-58.15
-57.46
-55.87
-53.43
-50.36
-47.00
-43.58
-40.17
-36.71
-33.17
-29.64
-26.33
-23.45
-21.03
-18.84
-16.48
-13.66
-10.38
-7.00
-4.03
-1.81
-0.40
0.45
1.11
1.88
2.81
3.78
4.66
5.42
6.14
6.93
7.82
8.77
9.72
10.70
11.73
12.83
13.89
14.68
14.96
14.83
14.63
15.14
17.25
21.69
28.73
38.10
48.90
59.85
69.66
77.20
81.85
83.38
82.00
78.05
72.00
64.27
55.31
45.58
35.55
25.69
16.25
7.39
-0.83
-8.32
-14.86
-20.17
-24.03
-26.40
-27.46
-27.72
-27.93
-28.90
-31.28
-35.38
-41.02
-47.65
-54.53
-60.88
-66.27
-70.65
-74.26
-77.41
-80.15
-82.17
-82.79
-81.28
-77.04
-69.99
-60.53
-49.49
-37.86
-26.52
-16.08
-6.84
1.16
8.07
14.07
19.38
24.10
28.24
31.70
34.43
36.39
37.67
38.42
38.76
38.78
38.43
37.61
36.21
34.25
31.84
29.12
26.23
23.20
20.06
16.81
13.51
10.23
7.12
4.29
1.81
-0.38
-2.45
-4.57
-6.93
-9.62
-12.57
-15.56
-18.24
-20.38
-21.99
-23.23
-24.25
-25.00
-25.08
-23.94
-21.11
-16.42
-10.23
-3.08
4.47
12.07
19.51
26.60
32.92
37.92
41.03
41.93
40.74
37.93
34.17
30.12
26.34
23.18
20.72
18.87
17.41
16.19
15.13
14.10
13.00
11.52
9.28
5.84
1.07
-4.88
-11.57
-18.40
-24.85
-30.37
-34.58
-37.15
-37.91
-36.87
-34.27
-30.55
-26.24
-21.81
-17.53
-13.60
-10.06
-6.93
-4.25
-2.05
-0.38
0.82
1.60
2.16
2.64
3.21
3.95
4.82
5.72
6.53
7.26
7.94
8.74
9.77
10.98
12.12
12.65
12.12
10.23
7.02
2.88
-1.57
-5.62
-8.63
-10.09
-9.77
-7.62
-3.89
0.93
6.18
11.15
15.28
18.29
20.25
21.41
22.06
22.33
22.17
21.42
19.92
17.65
14.74
11.43
7.97
4.47
0.90
-2.87
-6.97
-11.40
-16.10
-20.90
-25.62
-30.05
-33.97
-37.22
-39.62
-41.13
-41.81
-41.77
-41.08
-39.74
-37.51
-34.03
-28.98
-22.29
-14.25
-5.50
3.17
11.05
17.70
23.04
27.16
30.24
32.32
33.41
33.50
32.70
31.26
29.53
27.83
26.29
24.81
23.15
21.00
18.17
14.60
10.41
5.85
1.24
-3.19
-7.33
-11.16
-14.70
-18.01
-21.09
-23.96
-26.68
-29.37
-32.12
-34.84
-37.12
-38.34
-37.81
-35.09
-30.21
-23.74
-16.55
-9.56
-3.44
1.53
5.41
8.45
10.97
13.22
15.36
17.38
19.27
20.96
22.34
23.35
23.98
24.32
24.53
24.90
25.77
27.45
30.00
33.10
36.03
37.79
37.50
34.66
29.43
22.41
14.47
6.24
-1.94
-9.97
-17.89
-25.62
-32.90
-39.25
-44.13
-46.94
-47.16
-44.51
-38.97
-31.00
-21.42
-11.37
-1.95
5.99
12.04
16.23
18.92
20.56
21.50
22.01
22.16
21.91
21.18
19.90
18.08
15.83
13.41
11.22
9.73
9.28
9.83
10.96
11.92
11.90
10.28
6.85
1.85
-4.22
-10.69
-16.92
-22.39
-26.74
-29.66
-31.15
-31.39
-30.75
-29.75
-28.86
-28.30
-27.93
-27.35
-25.88
-22.85
-17.83
-10.81
-2.24
7.05
16.14
24.22
30.85
36.00
39.87
42.83
45.12
46.81
47.87
48.19
47.72
46.50
44.72
42.53
40.07
37.32
34.11
30.23
25.55
20.08
14.13
8.21
2.94
-1.15
-3.82
-5.19
-5.63
-5.61
-5.48
-5.40
-5.43
-5.58
-5.91
-6.61
-7.89
-9.77
-12.14
-14.74
-17.35
-19.87
-22.34
-24.76
-27.01
-28.78
-29.57
-28.93
-26.61
-22.62
-17.24
-10.92
-4.19
2.42
8.37
13.21
16.58
18.38
18.78
18.20
17.11
15.85
14.59
13.34
12.04
10.61
9.11
7.61
6.17
4.79
3.50
2.24
1.06
-0.08
-1.24
-2.55
-4.09
-5.93
-8.01
-10.11
-12.03
-13.56
-14.67
-15.38
-15.82
-16.15
-16.49
-16.98
-17.61
-18.32
-18.91
-19.11
-18.55
-16.87
-13.85
-9.48
-4.04
2.03
8.11
13.66
18.21
21.47
23.45
24.30
24.25
23.49
22.19
20.36
17.98
15.07
11.74
8.16
4.60
1.23
-1.88
-4.72
-7.39
-9.89
-12.13
-13.97
-15.28
-16.07
-16.49
-16.83
-17.40
-18.42
-19.97
-22.00
-24.44
-27.11
-29.84
-32.33
-34.07
-34.49
-33.05
-29.46
-23.85
-16.79
-9.12
-1.69
4.89
10.36
14.77
18.40
21.41
23.78
25.30
25.70
24.88
22.99
20.47
17.77
15.27
13.13
11.31
9.68
8.21
6.95
5.96
5.28
4.70
3.98
2.85
1.15
-1.03
-3.54
-6.16
-8.76
-11.24
-13.56
-15.53
-16.75
-16.77
-15.09
-11.65
-6.81
-1.32
3.94
8.24
11.25
13.09
14.08
14.65
14.98
15.07
14.78
13.91
12.37
10.28
7.89
5.49
3.31
1.41
-0.21
-1.62
-2.86
-3.80
-4.29
-4.23
-3.71
-3.00
-2.42
-2.21
-2.46
-3.22
-4.49
-6.42
-9.06
-12.23
-15.33
-17.55
-18.19
-17.05
-14.75
-12.40
-11.19
-11.74
-13.74
-16.17
-17.76
-17.64
-15.52
-11.76
-6.93
-1.57
4.03
9.68
15.21
20.25
24.41
27.33
28.81
28.88
27.70
25.46
22.29
18.34
13.88
9.18
4.52
0.15
-3.81
-7.36
-10.60
-13.64
-16.67
-19.73
-22.75
-25.43
-27.24
-27.60
-26.03
-22.43
-17.12
-10.76
-4.17
1.89
6.99
10.92
13.72
15.55
16.65
17.24
17.50
17.56
17.40
17.00
16.30
15.28
14.01
12.63
11.21
9.74
8.15
6.31
4.20
1.90
-0.50
-2.78
-4.80
-6.41
-7.57
-8.26
-8.54
-8.62
-8.78
-9.44
-10.91
-13.40
-16.78
-20.57
-23.99
-26.11
-26.14
-23.78
-19.28
-13.37
-6.95
-0.85
4.47
8.88
12.42
15.22
17.32
18.75
19.59
19.96
20.05
20.03
19.95
19.72
19.23
18.38
17.14
15.55
13.75
11.89
10.13
8.60
7.38
6.50
5.90
5.47
5.00
4.23
3.01
1.24
-0.98
-3.49
-6.09
-8.61
-10.91
-12.91
-14.58
-15.89
-17.00
-18.14
-19.52
-21.24
-23.07
-24.44
-24.61
-22.92
-19.11
-13.45
-6.69
0.24
6.40
11.12
13.98
14.84
13.81
11.32
8.12
5.13
3.32
3.27
5.06
8.20
11.89
15.34
18.02
19.82
20.91
21.69
22.39
23.16
23.83
24.05
23.40
21.54
18.44
14.34
9.81
5.39
1.50
-1.74
-4.43
-6.69
-8.61
-10.07
-11.06
-11.64
-12.14
-13.02
-14.73
-17.41
-20.84
-24.46
-27.48
-29.17
-28.98
-26.76
-22.68
-17.26
-11.17
-5.04
0.59
5.45
9.43
12.55
14.89
16.49
17.49
17.97
18.11
18.03
17.77
17.26
16.41
15.15
13.47
11.52
9.51
7.73
6.32
5.36
4.79
4.46
4.22
4.00
3.71
3.27
2.66
1.83
0.77
-0.50
-2.00
-3.75
-5.74
-7.96
-10.26
-12.44
-14.32
-15.89
-17.24
-18.70
-20.48
-22.58
-24.72
-26.34
-26.79
-25.59
-22.58
-17.95
-12.28
-6.30
-0.66
4.10
7.75
10.30
11.91
12.85
13.36
13.61
13.67
13.54
13.08
12.11
10.52
8.24
5.41
2.26
-0.98
-4.03
-6.71
-9.02
-11.12
-13.33
-16.01
-19.37
-23.33
-27.37
-30.65
-32.23
-31.50
-28.42
-23.48
-17.59
-11.65
-6.30
-1.73
2.11
5.47
8.42
10.88
12.65
13.34
12.75
10.80
7.77
4.22
0.95
-1.31
-2.03
-1.07
1.33
4.75
8.71
12.80
16.69
20.07
22.64
24.16
24.55
23.92
22.58
20.83
18.91
16.93
14.90
12.90
11.05
9.53
8.46
7.87
7.66
7.62
7.51
7.16
6.50
5.59
4.54
3.41
2.26
0.96
-0.62
-2.58
-4.87
-7.34
-9.70
-11.77
-13.47
-14.85
-16.07
-17.24
-18.46
-19.75
-21.16
-22.71
-24.33
-25.77
-26.62
-26.42
-24.87
-21.97
-18.08
-13.78
-9.63
-5.96
-2.80
0.13
3.07
6.19
9.31
12.05
13.89
14.43
13.54
11.44
8.58
5.39
2.19
-0.98
-4.13
-7.23
-10.07
-12.26
-13.48
-13.54
-12.69
-11.40
-10.16
-9.27
-8.65
-7.88
-6.49
-4.13
-0.82
3.13
7.20
10.91
13.87
15.85
16.74
16.34
14.46
10.94
5.93
0.01
-5.83
-10.42
-12.78
-12.47
-9.71
-5.28
-0.13
4.96
9.54
13.46
16.64
19.01
20.41
20.85
20.66
20.42
20.82
22.19
24.33
26.61
28.15
28.31
26.89
24.12
20.45
16.27
11.72
6.82
1.74
-3.14
-7.17
-9.77
-10.69
-10.24
-9.20
-8.48
-8.87
-10.64
-13.61
-17.16
-20.58
-23.22
-24.69
-24.71
-23.24
-20.35
-16.25
-11.37
-6.20
-1.23
3.15
6.73
9.52
11.62
13.16
14.19
14.66
14.48
13.59
12.00
9.89
7.52
5.14
2.96
1.07
-0.58
-2.04
-3.31
-4.40
-5.27
-5.92
-6.36
-6.66
-6.86
-7.04
-7.35
-7.98
-9.17
-11.15
-13.94
-17.36
-20.96
-24.00
-25.75
-25.59
-23.32
-19.09
-13.45
-7.08
-0.69
5.19
10.16
13.96
16.49
17.71
17.86
17.31
16.51
15.80
15.27
14.81
14.19
13.20
11.75
9.93
7.98
6.10
4.42
2.93
1.60
0.34
-0.83
-1.96
-3.10
-4.38
-5.97
-7.92
-10.25
-12.83
-15.56
-18.36
-21.19
-23.93
-26.28
-27.71
-27.49
-25.15
-20.57
-14.23
-6.97
0.24
6.68
12.00
16.18
19.46
22.05
23.99
25.25
25.73
25.44
24.51
23.15
21.53
19.75
17.84
15.71
13.39
10.96
8.71
6.92
5.76
5.19
4.94
4.65
3.93
2.56
0.50
-2.11
-5.01
-7.94
-10.73
-13.35
-15.82
-18.31
-20.95
-23.78
-26.59
-28.86
-29.93
-29.13
-26.08
-20.84
-13.91
-6.13
1.57
8.42
13.97
18.05
20.79
22.49
23.46
23.99
24.26
24.31
24.12
23.64
22.85
21.76
20.44
18.97
17.33
15.53
13.59
11.53
9.47
7.54
5.84
4.33
2.95
1.48
-0.28
-2.45
-5.06
-8.04
-11.15
-14.18
-16.99
-19.54
-21.85
-24.02
-26.15
-28.28
-30.44
-32.65
-34.85
-36.89
-38.37
-38.74
-37.38
-33.84
-28.10
-20.61
-12.22
-3.94
3.33
9.08
13.14
15.70
17.10
17.62
17.51
16.84
15.72
14.24
12.64
11.20
10.23
9.98
10.54
11.86
13.80
16.19
18.81
21.42
23.79
25.68
26.84
27.07
26.28
24.52
22.08
19.36
16.79
14.65
13.06
11.93
11.04
10.21
9.33
8.34
7.21
5.87
4.14
1.83
-1.29
-5.39
-10.43
-16.18
-22.08
-27.26
-30.68
-31.53
-29.47
-24.82
-18.42
-11.31
-4.47
1.48
6.30
10.02
12.78
14.77
16.30
17.66
19.09
20.54
21.68
21.97
21.09
19.23
17.19
16.18
17.15
20.32
24.97
29.75
33.12
34.07
32.35
28.49
23.32
17.71
12.24
7.32
3.19
-0.05
-2.41
-4.05
-5.23
-6.32
-7.59
-9.27
-11.35
-13.71
-16.14
-18.41
-20.38
-22.02
-23.48
-25.03
-27.00
-29.55
-32.48
-35.26
-37.05
-37.07
-34.81
-30.31
-24.15
-17.34
-10.96
-5.72
-1.84
1.01
3.30
5.50
7.75
9.94
11.82
13.19
14.01
14.39
14.47
14.35
14.06
13.65
13.24
13.02
13.14
13.57
14.08
14.31
13.91
12.66
10.62
8.03
5.23
2.54
0.18
-1.81
-3.52
-5.15
-6.92
-8.98
-11.43
-14.19
-17.09
-19.86
-22.28
-24.21
-25.63
-26.70
-27.65
-28.79
-30.20
-31.74
-32.84
-32.79
-30.86
-26.74
-20.69
-13.50
-6.22
0.25
5.37
9.11
11.73
13.53
14.70
15.15
14.89
13.98
12.74
11.52
10.68
10.36
10.53
11.06
11.84
12.88
14.23
15.93
17.90
19.86
21.49
22.34
22.08
20.62
18.14
15.09
12.01
9.35
7.24
5.55
3.92
2.01
-0.34
-3.13
-6.29
-9.71
-13.18
-16.34
-18.63
-19.39
-18.18
-14.91
-10.07
-4.44
1.00
5.55
8.89
11.06
12.39
13.20
13.71
13.92
13.71
12.79
10.87
7.67
3.12
-2.57
-8.90
-15.06
-20.21
-23.60
-24.89
-24.16
-21.95
-18.92
-15.67
-12.55
-9.60
-6.68
-3.66
-0.47
2.73
5.58
7.64
8.44
7.58
4.88
0.54
-4.89
-10.48
-15.13
-17.92
-18.32
-16.36
-12.61
-7.87
-2.90
1.69
5.64
8.84
11.26
12.87
13.66
13.62
12.92
11.80
10.50
9.26
8.12
7.04
5.91
4.65
3.26
1.88
0.65
-0.34
-1.15
-1.93
-2.85
-4.02
-5.38
-6.82
-8.22
-9.57
-10.99
-12.63
-14.60
-16.90
-19.50
-22.38
-25.49
-28.67
-31.54
-33.40
-33.41
-30.91
-25.72
-18.38
-9.93
-1.60
5.69
11.51
15.92
19.19
21.60
23.19
23.87
23.60
22.51
20.85
18.97
17.12
15.40
13.84
12.39
11.06
9.84
8.70
7.53
6.18
4.52
2.51
0.21
-2.31
-4.99
-7.84
-10.81
-13.89
-16.93
-19.85
-22.63
-25.34
-28.20
-31.36
-34.91
-38.80
-42.85
-46.68
-49.83
-51.75
-51.92
-49.96
-45.79
-39.70
-32.42
-24.84
-17.90
-12.26
-8.31
-6.12
-5.58
-6.52
-8.71
-11.89
-15.66
-19.65
-23.46
-26.88
-29.80
-32.26
-34.24
-35.65
-36.24
-35.62
-33.37
-29.16
-22.83
-14.51
-4.68
5.87
16.07
24.64
30.29
31.84
28.57
20.41
8.01
-7.13
-22.90
-36.95
-47.15
-52.14
-51.63
-46.43
-38.17
-28.79
-20.00
-12.78
-7.30
-2.74
2.44
10.17
22.30
39.99
63.11
90.05
117.97
143.43
163.48
176.07
180.40
176.61
165.35
147.66
124.92
99.18
73.07
49.52
30.92
18.44
11.78
9.38
9.30
9.91
10.43
10.80
11.56
13.28
16.46
21.30
27.55
34.45
40.75
44.91
45.56
42.06
34.75
25.05
14.84
5.69
-1.70
-7.67
-13.18
-19.25
-26.30
-33.96
-41.25
-46.95
-50.19
-50.61
-48.42
-44.13
-38.29
-31.38
-23.76
-15.97
-8.69
-2.79
1.01
2.29
1.22
-1.48
-4.81
-7.78
-9.82
-10.76
-10.84
-10.40
-9.76
-9.00
-8.11
-6.97
-5.54
-3.95
-2.43
-1.31
-0.85
-1.10
-1.95
-3.10
-4.23
-5.17
-6.00
-6.99
-8.49
-10.76
-13.83
-17.54
-21.54
-25.34
-28.38
-30.02
-29.69
-27.11
-22.45
-16.28
-9.51
-3.05
2.37
6.42
9.05
10.50
11.05
10.97
10.52
9.88
9.30
8.92
8.77
8.74
8.61
8.13
7.15
5.68
3.89
2.09
0.51
-0.80
-2.03
-3.47
-5.46
-8.14
-11.51
-15.36
-19.32
-23.04
-26.22
-28.79
-30.87
-32.86
-35.14
-37.94
-41.10
-43.99
-45.76
-45.59
-43.04
-38.11
-31.24
-23.09
-14.30
-5.48
2.86
10.21
16.05
20.13
22.51
23.66
24.38
25.54
27.64
30.71
34.21
37.35
39.37
39.87
38.93
36.92
34.22
30.96
27.02
22.06
15.70
7.69
-2.08
-13.43
-25.74
-37.84
-48.04
-54.60
-56.23
-52.72
-45.06
-35.17
-25.20
-16.89
-11.17
-8.08
-7.03
-7.07
-7.20
-6.54
-4.54
-1.03
3.71
9.14
14.60
19.54
23.56
26.48
28.25
28.96
28.84
28.20
27.42
26.74
26.26
25.77
25.02
23.78
22.01
19.93
17.88
16.22
15.04
14.23
13.52
12.61
11.37
9.86
8.21
6.60
5.06
3.47
1.67
-0.45
-2.94
-5.70
-8.61
-11.62
-14.67
-17.74
-20.86
-23.95
-26.93
-29.75
-32.42
-35.03
-37.65
-40.13
-41.97
-42.54
-41.16
-37.50
-31.71
-24.35
-16.23
-8.09
-0.47
6.41
12.38
17.36
21.28
24.19
26.39
28.28
30.25
32.43
34.64
36.47
37.52
37.57
36.70
35.24
33.50
31.70
29.84
27.81
25.50
22.98
20.42
17.99
15.78
13.64
11.37
8.73
5.67
2.25
-1.28
-4.69
-7.88
-10.80
-13.52
-16.11
-18.58
-20.92
-23.17
-25.41
-27.75
-30.27
-32.80
-34.98
-36.24
-36.01
-33.90
-29.83
-24.19
-17.70
-11.26
-5.74
-1.78
0.34
0.81
0.17
-0.79
-1.37
-1.10
0.10
2.10
4.54
7.19
9.97
12.94
16.13
19.44
22.55
24.92
26.17
26.07
24.75
22.58
19.90
16.98
13.91
10.62
7.05
3.22
-0.75
-4.68
-8.43
-11.98
-15.40
-18.81
-22.33
-25.98
-29.67
-33.14
-35.98
-37.67
-37.85
-36.38
-33.42
-29.33
-24.55
-19.42
-14.13
-8.80
-3.58
1.24
5.34
8.37
10.13
10.57
9.90
8.42
6.50
4.45
2.49
0.63
-1.21
-3.11
-5.19
-7.42
-9.73
-12.10
-14.50
-16.97
-19.49
-21.98
-24.27
-26.26
-27.95
-29.44
-30.96
-32.74
-34.89
-37.31
-39.77
-41.74
-42.62
-41.71
-38.49
-32.74
-24.65
-14.68
-3.53
8.06
19.42
29.88
38.87
46.06
51.36
55.08
57.68
59.70
61.43
62.85
63.73
63.87
63.39
62.67
62.24
62.43
63.11
63.77
63.68
62.21
59.09
54.50
48.85
42.68
36.35
30.06
23.88
17.83
11.88
5.94
-0.13
-6.55
-13.34
-20.15
-26.20
-30.39
-31.74
-29.72
-24.58
-17.35
-9.66
-3.24
0.56
1.09
-1.26
-5.39
-9.63
-12.45
-12.86
-10.79
-6.88
-2.31
1.87
4.98
6.88
7.91
8.60
9.40
10.47
11.62
12.44
12.37
11.02
8.24
4.29
-0.29
-4.85
-8.90
-12.21
-14.83
-16.96
-18.88
-20.85
-23.14
-25.90
-29.16
-32.57
-35.59
-37.42
-37.37
-34.98
-30.23
-23.53
-15.66
-7.54
0.07
6.55
11.69
15.50
18.20
20.08
21.35
22.10
22.32
22.01
21.24
20.24
19.24
18.41
17.77
17.11
16.24
15.00
13.44
11.78
10.27
9.00
7.89
6.62
4.91
2.65
-0.08
-2.96
-5.68
-8.00
-9.94
-11.67
-13.45
-15.57
-18.23
-21.49
-25.30
-29.43
-33.55
-37.07
-39.32
-39.60
-37.44
-32.76
-25.95
-17.81
-9.26
-1.24
5.62
11.01
14.92
17.50
19.04
19.83
20.14
20.30
20.46
20.75
21.10
21.31
21.13
20.39
19.05
17.22
15.15
13.06
11.17
9.61
8.43
7.58
6.94
6.28
5.41
4.17
2.50
0.47
-1.78
-4.14
-6.56
-9.03
-11.61
-14.28
-17.02
-19.80
-22.57
-25.40
-28.29
-31.18
-33.74
-35.50
-35.77
-33.99
-29.91
-23.80
-16.34
-8.45
-1.01
5.39
10.50
14.35
17.14
19.06
20.30
20.92
21.04
20.67
19.83
18.53
16.90
15.18
13.68
12.71
12.35
12.49
12.77
12.87
12.62
12.12
11.57
11.13
10.76
10.12
8.72
6.01
1.59
-4.74
-12.90
-22.39
-32.25
-41.13
-47.57
-50.49
-49.56
-45.44
-39.48
-33.31
-28.25
-24.96
-23.29
-22.47
-21.44
-19.21
-15.24
-9.49
-2.43
5.25
12.75
19.53
25.24
29.73
32.91
34.69
35.05
34.12
32.23
29.85
27.38
25.00
22.72
20.42
18.09
15.81
13.77
12.09
10.83
9.85
8.98
8.03
6.91
5.59
4.13
2.62
1.11
-0.37
-1.92
-3.71
-5.92
-8.69
-11.98
-15.55
-19.04
-22.05
-24.35
-26.01
-27.33
-28.71
-30.56
-33.06
-36.10
-39.23
-41.73
-42.87
-42.04
-39.02
-34.02
-27.63
-20.71
-14.12
-8.55
-4.27
-1.25
0.77
2.10
2.98
3.52
3.84
4.06
4.37
5.12
6.58
8.93
12.15
16.04
20.30
24.75
29.23
33.67
37.96
41.80
44.74
46.19
45.69
43.00
38.30
32.08
25.02
17.78
10.88
4.69
-0.58
-4.88
-8.32
-11.14
-13.77
-16.62
-19.96
-23.68
-27.28
-29.96
-30.92
-29.64
-26.08
-20.66
-14.12
-7.20
-0.48
5.74
11.32
16.18
20.24
23.35
25.37
26.29
26.23
25.42
24.06
22.32
20.22
17.80
15.10
12.19
9.22
6.32
3.66
1.28
-0.83
-2.80
-4.74
-6.68
-8.60
-10.42
-12.09
-13.54
-14.86
-16.19
-17.80
-19.88
-22.52
-25.48
-28.32
-30.46
-31.33
-30.56
-28.16
-24.44
-19.83
-14.82
-9.72
-4.77
-0.15
4.03
7.86
11.60
15.70
20.65
26.72
33.76
41.21
48.07
53.23
55.73
54.98
51.00
44.40
36.26
27.82
20.08
13.49
7.92
2.83
-2.37
-7.93
-13.75
-19.43
-24.47
-28.54
-31.58
-33.81
-35.65
-37.56
-39.76
-42.19
-44.34
-45.33
-44.26
-40.51
-34.08
-25.56
-16.03
-6.63
1.78
8.80
14.44
18.87
22.20
24.36
25.21
24.69
22.98
20.49
17.75
15.20
13.03
11.25
9.66
8.03
6.31
4.49
2.75
1.33
0.35
-0.22
-0.64
-1.33
-2.68
-4.89
-7.87
-11.30
-14.70
-17.67
-19.98
-21.67
-22.94
-24.10
-25.51
-27.42
-29.95
-32.99
-36.11
-38.56
-39.44
-37.94
-33.69
-26.91
-18.37
-9.14
-0.31
7.44
13.88
19.20
23.63
27.21
29.74
30.91
30.57
28.93
26.53
24.10
22.25
21.21
20.85
20.80
20.74
20.57
20.47
20.73
21.52
22.90
24.67
26.52
28.05
28.90
28.75
27.39
24.80
21.17
16.90
12.41
8.01
3.78
-0.49
-5.06
-10.16
-15.76
-21.67
-27.60
-33.24
-38.33
-42.49
-45.39
-46.66
-46.17
-44.14
-41.15
-38.04
-35.44
-33.46
-31.55
-28.78
-24.24
-17.58
-9.11
0.18
9.12
16.73
22.52
26.56
29.22
31.07
32.56
33.96
35.32
36.48
37.19
37.16
36.19
34.29
31.53
28.13
24.24
20.00
15.60
11.26
7.24
3.74
0.77
-1.88
-4.52
-7.45
-10.76
-14.33
-17.87
-21.04
-23.69
-25.92
-28.05
-30.48
-33.38
-36.49
-39.11
-40.27
-39.11
-35.25
-28.95
-21.05
-12.68
-4.75
2.16
7.92
12.66
16.49
19.46
21.47
22.43
22.33
21.34
19.74
17.90
16.19
14.94
14.33
14.29
14.58
14.82
14.67
14.05
13.15
12.44
12.30
12.84
13.75
14.45
14.37
13.23
11.17
8.66
6.17
3.95
1.86
-0.49
-3.51
-7.41
-12.01
-16.94
-21.79
-26.26
-30.22
-33.62
-36.41
-38.47
-39.71
-40.15
-39.95
-39.31
-38.22
-36.34
-33.04
-27.66
-19.92
-10.26
0.31
10.42
18.82
24.89
28.69
30.93
32.60
34.52
36.93
39.50
41.41
41.77
40.07
36.37
31.33
25.89
20.87
16.60
12.99
9.65
6.22
2.67
-0.81
-3.93
-6.55
-8.80
-11.01
-13.52
-16.49
-19.82
-23.15
-25.99
-27.95
-28.70
-28.19
-26.44
-23.52
-19.57
-14.81
-9.44
-3.84
1.53
6.18
9.65
11.74
12.47
12.10
10.90
9.21
7.26
5.23
3.33
1.74
0.58
-0.16
-0.64
-1.13
-1.82
-2.81
-3.97
-5.06
-5.95
-6.61
-7.20
-7.94
-9.01
-10.48
-12.34
-14.50
-16.92
-19.61
-22.51
-25.34
-27.60
-28.55
-27.55
-24.32
-19.06
-12.41
-5.26
1.63
7.78
13.03
17.38
20.82
23.26
24.56
24.64
23.63
21.81
19.63
17.42
15.41
13.64
12.06
10.56
9.04
7.44
5.75
3.96
2.00
-0.19
-2.67
-5.47
-8.53
-11.71
-14.82
-17.70
-20.28
-22.57
-24.62
-26.31
-27.34
-27.17
-25.20
-21.03
-14.72
-6.84
1.68
9.79
16.67
21.87
25.40
27.54
28.72
29.30
29.51
29.49
29.24
28.71
27.87
26.79
25.51
24.08
22.43
20.44
18.01
15.06
11.48
7.24
2.32
-3.27
-9.38
-15.66
-21.75
-27.41
-32.79
-38.32
-44.44
-51.20
-58.05
-63.89
-67.56
-68.22
-65.55
-59.70
-50.93
-39.55
-25.91
-10.67
5.14
20.18
33.13
43.10
49.80
53.43
54.48
53.47
50.87
47.17
42.85
38.36
34.03
29.92
25.94
21.91
17.72
13.38
9.16
5.40
2.34
0.13
-1.47
-2.83
-4.43
-6.65
-9.63
-13.17
-16.87
-20.30
-23.14
-25.39
-27.26
-29.23
-31.73
-34.97
-38.76
-42.44
-45.09
-45.76
-43.83
-39.21
-32.33
-24.04
-15.23
-6.72
0.92
7.46
12.81
17.02
20.16
22.40
23.88
24.76
25.20
25.33
25.22
24.93
24.41
23.61
22.55
21.24
19.69
17.91
15.91
13.66
11.20
8.56
5.81
3.03
0.24
-2.57
-5.42
-8.27
-11.07
-13.74
-16.21
-18.53
-20.84
-23.37
-26.28
-29.63
-33.43
-37.55
-41.64
-45.15
-47.34
-47.40
-44.67
-38.75
-29.69
-18.05
-4.70
9.43
23.43
36.56
48.23
58.00
65.62
71.01
74.26
75.60
75.37
73.84
71.15
67.36
62.36
56.08
48.50
39.84
30.55
21.34
12.92
5.85
0.39
-3.57
-6.33
-8.26
-9.63
-10.60
-11.19
-11.43
-11.27
-10.68
-9.82
-9.02
-8.92
-10.17
-13.18
-17.74
-22.98
-27.50
-29.96
-29.69
-26.92
-22.56
-17.77
-13.44
-9.93
-7.05
-4.32
-1.20
2.58
7.01
11.72
16.14
19.63
21.73
22.25
21.39
19.67
17.65
15.77
14.12
12.59
10.87
8.80
6.37
3.71
1.07
-1.36
-3.50
-5.45
-7.35
-9.37
-11.63
-14.28
-17.46
-21.21
-25.36
-29.45
-32.67
-34.12
-33.05
-29.17
-22.78
-14.69
-5.96
2.42
9.80
15.90
20.78
24.52
27.24
28.94
29.48
28.82
26.98
24.19
20.88
17.46
14.24
11.35
8.69
6.06
3.41
0.79
-1.65
-3.74
-5.43
-6.84
-8.14
-9.49
-11.05
-12.84
-14.95
-17.38
-20.11
-22.86
-25.21
-26.47
-26.02
-23.43
-18.64
-12.15
-4.72
2.65
9.12
14.15
17.64
19.77
20.92
21.43
21.46
21.04
20.15
18.71
16.84
14.77
12.75
10.99
9.61
8.46
7.32
5.97
4.09
1.54
-1.77
-5.73
-10.13
-14.65
-19.02
-23.11
-26.84
-30.27
-33.47
-36.50
-39.28
-41.83
-44.06
-45.74
-46.49
-45.70
-42.74
-37.20
-29.15
-19.11
-8.02
3.15
13.62
22.97
31.08
38.01
43.91
48.85
52.83
55.81
57.67
58.32
57.76
56.08
53.51
50.35
46.83
43.07
39.00
34.61
29.95
25.24
20.81
16.93
13.61
10.59
7.38
3.49
-1.22
-6.53
-11.92
-16.85
-21.02
-24.55
-27.87
-31.54
-36.01
-41.44
-47.70
-54.46
-61.18
-67.22
-71.91
-74.61
-74.72
-71.92
-66.18
-57.97
-48.11
-37.44
-26.73
-16.38
-6.38
3.53
13.50
23.47
32.93
41.09
47.28
51.04
52.47
52.02
50.38
48.15
45.74
43.27
40.65
37.84
34.82
31.67
28.43
25.06
21.45
17.47
13.07
8.36
3.59
-0.93
-4.92
-8.23
-10.90
-13.15
-15.26
-17.56
-20.30
-23.57
-27.29
-31.12
-34.43
-36.45
-36.39
-33.76
-28.51
-21.20
-12.78
-4.38
3.16
9.40
14.31
18.08
20.90
22.96
24.35
25.16
25.52
25.65
25.67
25.61
25.38
24.83
23.95
22.77
21.45
20.16
19.05
18.04
16.94
15.51
13.52
11.03
8.19
5.42
2.99
1.02
-0.60
-2.17
-3.93
-6.10
-8.65
-11.44
-14.21
-16.79
-19.12
-21.24
-23.29
-25.41
-27.77
-30.42
-33.37
-36.39
-39.01
-40.58
-40.36
-37.81
-32.76
-25.60
-17.15
-8.44
-0.40
6.39
11.72
15.74
18.62
20.53
21.61
22.02
21.96
21.75
21.72
22.03
22.67
23.35
23.63
23.13
21.72
19.55
16.99
14.45
11.95
9.11
5.20
-0.57
-8.65
-18.94
-30.69
-42.61
-53.18
-60.91
-64.70
-63.97
-58.85
-50.14
-39.24
-27.66
-16.78
-7.40
0.33
6.73
12.25
17.02
20.78
22.98
23.24
21.66
18.99
16.42
15.09
15.63
17.87
21.05
24.20
26.56
27.81
28.04
27.53
26.54
25.21
23.55
21.56
19.28
16.81
14.22
11.60
9.00
6.46
4.03
1.79
-0.21
-1.87
-3.13
-3.92
-4.24
-4.14
-3.86
-3.70
-3.92
-4.67
-5.90
-7.40
-8.99
-10.58
-12.21
-14.05
-16.20
-18.62
-21.16
-23.60
-25.78
-27.64
-29.31
-30.90
-32.49
-33.98
-35.02
-35.16
-33.84
-30.62
-25.28
-18.10
-9.76
-1.27
6.35
12.37
16.50
18.94
20.13
20.51
20.34
19.78
18.84
17.57
16.11
14.55
13.02
11.57
10.17
8.84
7.62
6.60
5.77
5.13
4.56
3.91
2.94
1.44
-0.71
-3.45
-6.56
-9.71
-12.53
-14.79
-16.44
-17.66
-18.78
-20.12
-21.83
-23.81
-25.63
-26.61
-26.10
-23.62
-19.11
-13.00
-6.10
0.69
6.62
11.32
14.78
17.14
18.56
19.10
18.76
17.56
15.63
13.25
10.72
8.27
5.94
3.73
1.62
-0.34
-2.02
-3.31
-4.17
-4.74
-5.19
-5.74
-6.49
-7.44
-8.53
-9.65
-10.89
-12.37
-14.37
-17.04
-20.32
-23.80
-26.79
-28.43
-28.04
-25.30
-20.40
-13.98
-6.85
0.19
6.60
12.02
16.35
19.58
21.74
22.88
23.04
22.32
20.82
18.72
16.21
13.56
11.01
8.77
6.87
5.18
3.48
1.65
-0.42
-2.66
-4.92
-7.07
-8.98
-10.68
-12.27
-13.95
-15.87
-18.22
-21.00
-24.07
-27.08
-29.41
-30.39
-29.43
-26.27
-21.03
-14.23
-6.59
1.01
7.85
13.46
17.71
20.70
22.70
23.96
24.69
25.01
24.87
24.21
22.92
20.98
18.48
15.58
12.56
9.68
7.12
4.86
2.74
0.51
-2.09
-5.14
-8.61
-12.30
-16.02
-19.59
-22.91
-25.90
-28.54
-30.86
-32.99
-35.02
-36.91
-38.37
-38.74
-37.28
-33.31
-26.67
-17.77
-7.57
2.73
12.12
20.00
26.26
31.09
34.75
37.37
38.95
39.52
39.12
37.98
36.39
34.60
32.79
30.92
28.90
26.55
23.84
20.86
17.86
15.08
12.72
10.72
8.82
6.69
4.00
0.60
-3.37
-7.60
-11.79
-15.69
-19.37
-23.00
-26.83
-31.05
-35.54
-39.89
-43.33
-44.90
-43.74
-39.36
-31.90
-22.09
-11.12
-0.22
9.55
17.57
23.70
28.14
31.25
33.37
34.77
35.52
35.70
35.29
34.30
32.83
31.01
28.95
26.78
24.67
22.75
21.28
20.36
19.95
19.75
19.30
18.15
16.09
13.26
9.99
6.72
3.67
0.82
-2.08
-5.31
-8.88
-12.66
-16.25
-19.27
-21.47
-22.68
-22.90
-22.17
-20.49
-17.94
-14.71
-11.15
-7.82
-5.38
-4.36
-5.08
-7.48
-11.04
-14.97
-18.39
-20.56
-21.15
-20.40
-18.91
-17.41
-16.45
-15.99
-15.48
-14.13
-11.19
-6.62
-1.29
3.08
4.36
0.59
-9.23
-24.95
-44.99
-66.56
-86.20
-100.41
-106.67
-104.13
-94.02
-79.20
-63.14
-48.59
-36.65
-26.70
-17.13
-6.43
5.79
18.80
31.18
41.56
49.15
53.83
55.65
54.76
51.34
45.76
38.81
31.72
25.86
22.26
21.43
23.07
26.35
30.18
33.52
35.61
36.11
35.09
32.82
29.77
26.30
22.69
19.13
15.87
13.30
11.94
12.33
14.84
19.49
25.82
33.08
40.39
46.96
52.32
56.21
58.48
59.09
57.95
55.00
50.36
44.34
37.46
30.35
23.69
18.13
14.15
12.07
11.82
12.84
14.13
14.41
12.60
8.19
1.53
-6.36
-14.10
-20.54
-25.20
-28.32
-30.66
-33.03
-35.89
-39.30
-42.88
-46.05
-48.10
-48.40
-46.50
-42.17
-35.61
-27.29
-18.03
-8.77
-0.26
6.99
12.80
17.23
20.39
22.39
23.38
23.53
23.06
22.31
21.58
21.05
20.75
20.55
20.17
19.45
18.26
16.62
14.62
12.43
10.12
7.72
5.15
2.25
-1.08
-4.82
-8.77
-12.63
-16.08
-18.92
-21.21
-23.13
-25.03
-27.19
-29.93
-33.31
-37.30
-41.61
-45.61
-48.40
-49.00
-46.62
-40.97
-32.45
-22.04
-11.03
-0.72
7.96
14.61
19.29
22.40
24.44
25.78
26.59
26.85
26.52
25.58
24.16
22.45
20.65
18.89
17.29
15.83
14.52
13.30
12.26
11.36
10.61
9.87
8.90
7.49
5.46
2.83
-0.25
-3.43
-6.41
-9.02
-11.31
-13.50
-15.75
-18.20
-20.84
-23.64
-26.66
-29.97
-33.54
-37.10
-40.02
-41.37
-40.28
-36.24
-29.41
-20.64
-11.11
-1.98
5.97
12.40
17.34
20.91
23.23
24.35
24.33
23.33
21.63
19.53
17.27
14.96
12.55
10.07
7.59
5.32
3.49
2.25
1.55
1.12
0.56
-0.52
-2.29
-4.65
-7.30
-9.87
-12.16
-14.12
-15.95
-17.89
-20.16
-22.87
-25.98
-29.26
-32.30
-34.50
-35.13
-33.58
-29.52
-23.09
-14.98
-6.19
2.26
9.57
15.40
19.80
23.04
25.39
27.01
27.93
28.05
27.37
25.90
23.73
21.05
18.02
14.80
11.56
8.39
5.40
2.64
0.13
-2.16
-4.19
-5.97
-7.48
-8.79
-10.10
-11.72
-13.97
-17.07
-21.10
-25.83
-30.80
-35.24
-38.29
-39.11
-37.17
-32.40
-25.28
-16.76
-7.87
0.42
7.57
13.35
17.81
21.10
23.38
24.85
25.70
26.16
26.39
26.46
26.35
25.98
25.31
24.39
23.41
22.59
22.12
22.04
22.13
22.05
21.32
19.58
16.64
12.65
7.96
3.01
-1.79
-6.30
-10.54
-14.75
-19.16
-23.90
-28.82
-33.46
-37.17
-39.15
-38.72
-35.45
-29.40
-21.13
-11.66
-2.17
6.29
13.05
18.00
21.40
23.76
25.51
26.89
27.94
28.60
28.87
28.80
28.48
27.96
27.09
25.60
23.21
19.82
15.65
11.21
7.09
3.74
1.25
-0.61
-2.25
-3.98
-5.92
-7.94
-9.69
-10.93
-11.60
-11.94
-12.35
-13.27
-15.04
-17.86
-21.70
-26.34
-31.32
-36.00
-39.56
-41.14
-40.01
-35.83
-28.82
-19.71
-9.57
0.52
9.82
18.06
25.33
31.82
37.58
42.45
46.11
48.30
49.00
48.55
47.35
45.79
44.05
42.11
39.89
37.41
34.79
32.22
29.84
27.57
25.19
22.39
18.96
14.88
10.18
4.92
-0.89
-7.24
-14.08
-21.12
-27.82
-33.54
-37.69
-40.10
-41.01
-40.93
-40.46
-39.95
-39.37
-38.33
-36.35
-33.02
-28.26
-22.36
-15.85
-9.40
-3.57
1.20
4.78
7.22
8.73
9.62
10.15
10.53
10.77
10.80
10.48
9.75
8.63
7.28
5.88
4.59
3.44
2.30
1.02
-0.50
-2.30
-4.35
-6.58
-8.95
-11.45
-14.01
-16.49
-18.72
-20.59
-22.21
-23.82
-25.78
-28.22
-30.94
-33.31
-34.50
-33.68
-30.39
-24.73
-17.25
-8.86
-0.48
7.15
13.60
18.67
22.34
24.64
25.53
25.08
23.38
20.68
17.38
13.92
10.74
8.08
6.08
4.65
3.68
2.95
2.26
1.41
0.25
-1.30
-3.28
-5.64
-8.31
-11.14
-13.99
-16.82
-19.64
-22.55
-25.47
-28.04
-29.67
-29.60
-27.12
-21.97
-14.37
-5.02
5.11
15.08
24.11
31.65
37.38
41.22
43.29
43.95
43.66
42.83
41.69
40.24
38.39
36.07
33.32
30.27
27.08
23.77
20.24
16.35
12.12
7.72
3.45
-0.45
-3.96
-7.33
-10.95
-15.18
-20.10
-25.45
-30.75
-35.50
-39.43
-42.55
-45.12
-47.37
-49.33
-50.76
-51.23
-50.39
-48.13
-44.71
-40.64
-36.40
-32.21
-27.93
-23.19
-17.68
-11.35
-4.52
2.28
8.53
13.92
18.36
21.85
24.33
25.64
25.75
24.83
23.42
22.13
21.40
21.26
21.30
20.91
19.56
17.11
13.71
9.77
5.69
1.68
-2.24
-6.27
-10.64
-15.57
-21.13
-27.21
-33.34
-38.81
-42.70
-44.13
-42.45
-37.51
-29.70
-19.83
-9.04
1.65
11.43
19.86
26.74
32.00
35.69
37.84
38.65
38.41
37.58
36.48
35.30
33.94
32.16
29.70
26.61
23.23
20.08
17.64
16.00
14.88
13.75
12.06
9.50
6.17
2.46
-1.09
-4.00
-6.10
-7.39
-8.05
-8.35
-8.54
-8.95
-9.86
-11.49
-13.69
-15.90
-17.15
-16.45
-13.11
-7.08
1.01
10.06
18.95
26.87
33.42
38.59
42.43
44.87
45.81
45.07
42.68
39.01
34.67
30.38
26.74
24.01
22.06
20.50
18.93
17.20
15.54
14.36
13.97
14.36
15.07
15.35
14.52
12.26
8.83
4.89
1.21
-1.68
-3.58
-4.74
-5.61
-6.69
-8.37
-10.83
-14.05
-17.86
-22.00
-25.96
-29.09
-30.67
-30.20
-27.80
-24.41
-21.59
-20.97
-23.38
-28.37
-34.13
-38.29
-38.94
-35.56
-29.10
-21.47
-14.54
-9.30
-5.74
-3.06
-0.40
2.72
6.32
10.13
13.90
17.46
20.69
23.31
24.83
24.70
22.51
18.24
12.26
5.37
-1.55
-7.66
-12.39
-15.52
-17.22
-17.95
-18.35
-19.09
-20.72
-23.50
-27.24
-31.30
-34.69
-36.30
-35.25
-31.20
-24.53
-16.22
-7.53
0.35
6.72
11.35
14.47
16.41
17.45
17.74
17.32
16.26
14.67
12.71
10.53
8.26
6.00
3.89
2.12
0.81
-0.06
-0.66
-1.32
-2.32
-3.76
-5.56
-7.57
-9.55
-11.44
-13.28
-15.17
-17.16
-19.28
-21.56
-24.01
-26.64
-29.21
-31.24
-31.93
-30.46
-26.33
-19.70
-11.41
-2.66
5.33
11.78
16.43
19.46
21.26
22.12
22.28
21.86
20.94
19.68
18.22
16.67
15.03
13.29
11.39
9.33
7.23
5.23
3.47
2.02
0.81
-0.37
-1.74
-3.46
-5.49
-7.63
-9.60
-11.18
-12.22
-12.72
-12.89
-12.99
-13.41
-14.44
-16.10
-18.00
-19.37
-19.27
-16.96
-12.22
-5.50
2.30
10.11
17.12
22.85
27.14
30.05
31.75
32.42
32.31
31.63
30.54
29.06
27.12
24.72
21.98
19.24
16.92
15.40
14.81
15.03
15.77
16.63
17.24
17.27
16.42
14.41
11.08
6.51
1.11
-4.42
-9.45
-13.76
-17.85
-22.89
-30.29
-40.95
-54.58
-69.43
-82.67
-91.30
-93.14
-87.51
-75.18
-57.97
-38.02
-17.30
2.53
20.20
34.65
45.23
51.91
55.31
56.47
56.43
55.71
54.03
50.67
44.96
36.88
27.28
17.59
9.27
3.24
-0.36
-2.09
-2.78
-3.14
-3.56
-4.15
-4.83
-5.62
-6.57
-7.80
-9.40
-11.31
-13.39
-15.41
-17.20
-18.65
-19.78
-20.63
-21.33
-21.95
-22.57
-23.32
-24.38
-26.00
-28.23
-30.88
-33.29
-34.54
-33.64
-29.96
-23.52
-14.98
-5.52
3.60
11.37
17.26
21.19
23.42
24.31
24.22
23.46
22.24
20.76
19.24
17.90
16.94
16.42
16.21
16.09
15.83
15.30
14.49
13.50
12.46
11.38
10.21
8.83
7.16
5.22
3.08
0.80
-1.54
-3.92
-6.34
-8.76
-11.12
-13.36
-15.42
-17.37
-19.33
-21.38
-23.61
-25.87
-27.76
-28.66
-27.92
-25.09
-20.16
-13.57
-6.11
1.35
8.16
13.98
18.82
22.72
25.68
27.56
28.26
27.78
26.42
24.64
22.84
21.23
19.67
17.92
15.77
13.22
10.53
8.00
5.88
4.17
2.66
1.00
-1.04
-3.52
-6.26
-9.02
-11.56
-13.80
-15.81
-17.81
-20.06
-22.70
-25.73
-28.87
-31.60
-33.20
-32.96
-30.27
-24.98
-17.41
-8.35
1.09
9.83
16.99
22.16
25.35
26.81
26.94
26.10
24.65
22.82
20.81
18.71
16.61
14.53
12.46
10.48
8.63
6.97
5.47
4.07
2.65
1.10
-0.61
-2.48
-4.43
-6.41
-8.38
-10.34
-12.31
-14.35
-16.56
-19.02
-21.67
-24.31
-26.50
-27.64
-27.06
-24.30
-19.27
-12.37
-4.48
3.34
10.14
15.34
18.83
20.89
21.94
22.39
22.47
22.26
21.67
20.68
19.29
17.57
15.62
13.54
11.46
9.45
7.52
5.57
3.54
1.36
-0.96
-3.42
-6.00
-8.81
-11.89
-15.33
-19.07
-22.98
-26.98
-31.09
-35.53
-40.50
-46.03
-51.69
-56.67
-59.94
-60.66
-58.35
-52.97
-44.82
-34.33
-22.09
-8.78
4.74
17.48
28.58
37.51
44.18
48.85
51.86
53.45
53.69
52.65
50.47
47.48
44.08
40.59
37.14
33.77
30.44
27.15
24.01
20.99
18.07
15.08
11.95
8.68
5.46
2.45
-0.28
-2.82
-5.41
-8.24
-11.33
-14.52
-17.57
-20.28
-22.76
-25.27
-28.14
-31.58
-35.44
-39.20
-42.07
-43.15
-41.67
-37.29
-30.22
-21.18
-11.32
-1.82
6.28
12.43
16.59
19.10
20.47
21.16
21.44
21.38
20.95
20.12
18.91
17.37
15.59
13.61
11.45
9.19
6.90
4.68
2.70
0.95
-0.67
-2.36
-4.32
-6.66
-9.34
-12.25
-15.34
-18.56
-21.94
-25.57
-29.48
-33.57
-37.73
-41.83
-45.85
-49.96
-54.42
-59.54
-65.57
-72.58
-80.39
-88.59
-96.45
-103.00
-107.18
-108.02
-104.91
-97.72
-86.85
-73.07
-57.32
-40.47
-23.13
-5.86
10.81
26.17
39.37
49.72
56.80
60.62
61.56
60.16
56.83
51.91
45.75
38.86
32.09
26.43
22.87
22.14
24.62
30.35
39.19
50.57
63.42
76.29
87.54
95.93
101.01
103.17
103.28
102.06
99.69
95.73
89.63
81.17
70.58
58.48
45.32
31.13
15.59
-1.56
-20.04
-38.63
-55.34
-67.95
-74.70
-74.97
-69.60
-60.63
-50.66
-42.06
-36.11
-32.74
-30.65
-27.88
-22.62
-13.87
-1.72
12.68
27.53
40.87
51.11
57.29
59.25
57.29
51.94
43.78
33.45
21.86
10.37
0.59
-6.08
-8.98
-8.65
-6.69
-5.19
-5.83
-9.22
-14.72
-20.90
-26.38
-30.34
-32.92
-34.93
-37.28
-40.56
-44.67
-48.78
-51.54
-51.41
-46.97
-37.26
-22.14
-2.41
20.15
43.11
63.80
79.79
89.46
92.18
88.40
79.39
66.89
52.80
38.79
26.05
15.29
6.62
-0.19
-5.56
-9.87
-13.18
-15.31
-16.05
-15.55
-14.45
-13.83
-14.70
-17.50
-21.73
-25.97
-28.56
-28.26
-24.84
-19.11
-12.66
-7.08
-3.61
-2.69
-3.99
-6.63
-9.45
-11.13
-10.52
-6.94
-0.29
8.63
18.43
27.45
34.24
38.10
39.20
38.32
36.46
34.34
32.24
30.09
27.67
24.81
21.53
17.97
14.29
10.63
7.19
4.05
1.40
-0.71
-2.40
-3.80
-5.19
-6.84
-8.88
-11.25
-13.85
-16.45
-18.85
-21.03
-23.06
-25.12
-27.32
-29.60
-31.60
-32.81
-32.66
-30.76
-27.06
-21.74
-15.30
-8.20
-0.92
6.16
12.64
18.15
22.36
25.06
26.35
26.52
26.03
25.32
24.64
24.04
23.42
22.63
21.55
20.16
18.55
16.76
14.84
12.79
10.50
7.86
4.80
1.30
-2.47
-6.23
-9.72
-12.71
-15.14
-17.06
-18.72
-20.36
-22.28
-24.66
-27.50
-30.52
-33.13
-34.55
-34.05
-31.19
-26.05
-19.12
-11.21
-3.12
4.44
11.00
16.28
20.14
22.63
23.94
24.44
24.51
24.53
24.64
24.84
24.90
24.52
23.51
21.84
19.71
17.47
15.50
14.05
13.17
12.74
12.46
12.02
11.12
9.58
7.34
4.52
1.36
-1.87
-4.88
-7.60
-10.05
-12.40
-14.88
-17.62
-20.72
-24.15
-27.74
-31.00
-33.31
-33.95
-32.48
-28.93
-23.91
-18.42
-13.48
-9.78
-7.37
-5.79
-4.30
-2.25
0.64
4.21
7.95
11.33
13.88
15.31
15.59
14.83
13.32
11.47
9.79
8.73
8.70
9.75
11.62
13.69
15.23
15.70
14.85
12.84
10.03
6.92
3.82
0.95
-1.74
-4.37
-7.07
-9.89
-12.79
-15.64
-18.33
-20.80
-23.07
-25.34
-27.87
-30.81
-34.09
-37.24
-39.52
-40.09
-38.34
-34.12
-27.76
-20.05
-11.89
-4.04
3.03
9.15
14.27
18.42
21.56
23.70
24.90
25.30
25.05
24.31
23.16
21.56
19.54
17.15
14.56
12.01
9.71
7.83
6.46
5.59
5.07
4.81
4.63
4.48
4.32
4.10
3.71
3.02
1.82
-0.01
-2.51
-5.53
-8.73
-11.74
-14.31
-16.35
-18.05
-19.81
-21.96
-24.67
-27.71
-30.52
-32.33
-32.48
-30.61
-26.79
-21.44
-15.15
-8.50
-1.97
4.03
9.27
13.56
16.77
18.87
19.86
19.91
19.18
17.91
16.31
14.62
13.08
11.86
11.01
10.45
9.97
9.32
8.33
7.02
5.51
3.94
2.34
0.61
-1.39
-3.72
-6.29
-8.85
-11.18
-13.21
-15.11
-17.27
-19.99
-23.46
-27.66
-32.35
-37.08
-41.23
-44.01
-44.71
-42.85
-38.40
-31.82
-23.97
-15.80
-8.11
-1.40
4.07
8.21
11.00
12.48
12.78
12.02
10.40
8.05
5.04
1.45
-2.54
-6.67
-10.55
-13.82
-16.16
-17.38
-17.35
-16.14
-13.90
-10.87
-7.43
-3.96
-0.75
1.97
4.03
5.21
5.25
3.91
1.02
-3.27
-8.46
-13.59
-17.46
-18.89
-17.17
-12.27
-4.82
4.02
13.00
21.19
28.11
33.74
38.29
41.97
44.81
46.74
47.66
47.61
46.77
45.35
43.50
41.27
38.60
35.42
31.75
27.66
23.31
18.82
14.24
9.54
4.69
-0.35
-5.67
-11.58
-18.54
-26.97
-37.04
-48.35
-59.85
-70.19
-78.11
-82.73
-83.74
-81.09
-74.85
-64.96
-51.41
-34.58
-15.42
4.34
22.64
37.74
48.61
55.31
58.59
59.56
59.13
57.80
55.56
52.25
47.80
42.43
36.64
31.05
26.22
22.39
19.54
17.34
15.40
13.35
11.01
8.33
5.38
2.31
-0.84
-4.03
-7.24
-10.43
-13.51
-16.45
-19.40
-22.60
-26.33
-30.77
-35.72
-40.46
-43.89
-44.76
-42.15
-35.74
-26.08
-14.31
-1.85
9.98
20.29
28.57
34.72
38.82
41.14
42.03
41.96
41.36
40.62
39.96
39.28
38.32
36.67
33.97
30.04
25.00
19.18
13.10
7.24
1.90
-2.86
-7.13
-11.02
-14.54
-17.55
-19.87
-21.38
-22.19
-22.68
-23.34
-24.69
-27.04
-30.52
-34.90
-39.54
-43.47
-45.49
-44.52
-39.93
-31.95
-21.62
-10.57
-0.40
7.83
13.82
17.88
20.58
22.39
23.47
23.77
23.21
21.90
20.09
18.10
16.08
14.08
12.03
9.84
7.56
5.33
3.35
1.76
0.60
-0.27
-1.09
-2.15
-3.73
-5.95
-8.84
-12.30
-16.27
-20.65
-25.32
-29.99
-34.08
-36.75
-37.03
-34.20
-28.13
-19.39
-9.15
1.19
10.50
18.07
23.76
27.69
30.11
31.18
30.94
29.46
26.93
23.67
20.07
16.53
13.38
10.79
8.73
7.06
5.56
3.99
2.24
0.30
-1.77
-3.89
-6.10
-8.49
-11.17
-14.20
-17.59
-21.34
-25.38
-29.56
-33.44
-36.36
-37.40
-35.79
-31.20
-23.89
-14.76
-5.00
4.27
12.30
18.73
23.62
27.12
29.36
30.47
30.49
29.54
27.76
25.37
22.51
19.37
16.09
12.79
9.58
6.51
3.56
0.69
-2.12
-4.75
-7.14
-9.16
-10.90
-12.52
-14.36
-16.69
-19.74
-23.49
-27.55
-31.27
-33.71
-33.97
-31.43
-26.04
-18.41
-9.52
-0.55
7.60
14.38
19.69
23.71
26.71
28.90
30.38
31.20
31.32
30.73
29.47
27.61
25.31
22.74
20.11
17.48
14.87
12.20
9.43
6.56
3.72
1.01
-1.46
-3.65
-5.65
-7.56
-9.49
-11.53
-13.73
-16.22
-19.17
-22.71
-26.72
-30.73
-33.85
-35.00
-33.24
-28.23
-20.35
-10.66
-0.54
8.82
16.65
22.72
27.14
30.08
31.63
31.85
30.82
28.70
25.90
22.83
19.94
17.52
15.62
14.15
12.90
11.67
10.33
8.95
7.66
6.67
6.08
5.75
5.34
4.43
2.65
-0.13
-3.63
-7.41
-10.98
-14.07
-16.74
-19.31
-22.15
-25.36
-28.65
-31.18
-32.00
-30.33
-25.87
-18.94
-10.32
-1.04
7.81
15.22
20.30
22.37
21.06
16.54
9.52
1.28
-6.74
-13.35
-17.83
-20.03
-20.18
-18.60
-15.60
-11.58
-6.90
-2.11
2.19
5.54
7.77
9.13
10.10
11.21
12.67
14.25
15.40
15.40
13.79
10.55
6.12
1.13
-3.84
-8.57
-13.16
-17.88
-22.95
-28.34
-33.82
-38.96
-43.22
-45.99
-46.62
-44.60
-39.70
-32.14
-22.63
-12.30
-2.30
6.50
13.68
19.23
23.31
26.16
27.93
28.74
28.74
28.15
27.31
26.47
25.81
25.28
24.68
23.74
22.26
20.25
17.86
15.40
13.09
11.06
9.26
7.44
5.41
2.96
0.07
-3.18
-6.58
-9.93
-13.07
-15.88
-18.36
-20.55
-22.55
-24.46
-26.45
-28.70
-31.31
-34.19
-36.92
-38.80
-38.94
-36.55
-31.28
-23.43
-13.87
-3.79
5.67
13.70
19.92
24.29
26.98
28.18
28.20
27.32
25.87
24.19
22.48
20.86
19.27
17.60
15.74
13.70
11.64
9.76
8.28
7.26
6.57
5.85
4.71
2.87
0.31
-2.71
-5.74
-8.37
-10.38
-11.87
-13.17
-14.69
-16.80
-19.66
-23.05
-26.46
-29.10
-30.14
-28.92
-25.14
-19.01
-11.15
-2.52
5.97
13.56
19.86
24.75
28.33
30.69
31.91
32.06
31.21
29.58
27.46
25.09
22.68
20.35
18.12
16.02
13.99
12.02
10.08
8.11
6.04
3.89
1.65
-0.60
-2.86
-5.16
-7.57
-10.15
-13.04
-16.35
-20.13
-24.36
-28.63
-32.28
-34.44
-34.30
-31.32
-25.55
-17.54
-8.17
1.45
10.39
18.03
23.98
28.07
30.22
30.28
28.15
23.82
17.46
9.68
1.33
-6.54
-12.94
-17.15
-18.85
-18.14
-15.51
-11.85
-8.07
-5.03
-3.25
-2.83
-3.57
-5.20
-7.46
-10.11
-12.90
-15.38
-17.08
-17.72
-17.51
-17.16
-17.54
-19.09
-21.41
-23.25
-22.98
-19.46
-12.59
-3.35
6.60
15.69
23.00
28.37
32.09
34.57
35.92
36.00
34.70
32.10
28.64
24.94
21.55
18.72
16.39
14.29
12.13
9.80
7.38
5.13
3.30
1.98
1.07
0.30
-0.70
-2.17
-4.21
-6.72
-9.44
-12.08
-14.52
-16.82
-19.16
-21.81
-24.96
-28.66
-32.79
-36.94
-40.40
-42.27
-41.67
-37.92
-30.94
-21.29
-10.07
1.45
12.20
21.59
29.54
36.29
41.94
46.41
49.33
50.32
49.28
46.55
42.81
38.83
35.17
31.94
28.94
25.81
22.31
18.45
14.43
10.59
7.16
4.22
1.58
-1.11
-4.29
-8.36
-13.61
-19.98
-27.19
-34.78
-42.42
-50.06
-57.87
-66.09
-74.78
-83.63
-92.05
-99.35
-104.79
-107.75
-107.55
-103.45
-94.76
-81.32
-63.65
-43.16
-21.81
-1.55
16.26
31.02
42.78
51.86
58.50
62.82
64.85
64.81
63.06
60.14
56.45
52.27
47.62
42.50
36.95
31.08
25.11
19.34
14.06
9.56
6.04
3.45
1.54
-0.02
-1.63
-3.48
-5.45
-7.22
-8.46
-8.98
-8.96
-8.84
-9.13
-10.23
-12.23
-14.98
-18.20
-21.64
-25.26
-29.01
-32.63
-35.46
-36.53
-34.89
-30.06
-22.28
-12.55
-2.19
7.55
15.99
22.92
28.44
32.69
35.61
37.06
37.01
35.65
33.47
31.12
29.07
27.54
26.47
25.56
24.54
23.21
21.57
19.75
17.88
16.10
14.37
12.56
10.42
7.79
4.60
0.93
-3.03
-7.04
-10.88
-14.41
-17.56
-20.43
-23.19
-25.99
-28.99
-32.14
-35.12
-37.31
-37.95
-36.31
-32.01
-25.10
-16.18
-6.18
3.82
12.89
20.38
26.09
30.03
32.41
33.47
33.41
32.41
30.69
28.52
26.26
24.26
22.74
21.74
21.11
20.57
19.89
19.04
18.11
17.22
16.41
15.51
14.18
12.04
8.85
4.60
-0.40
-5.72
-10.93
-15.69
-19.76
-23.06
-25.53
-27.15
-27.79
-27.17
-24.84
-20.33
-13.25
-3.54
8.49
21.98
35.68
48.14
57.96
64.13
66.21
64.28
58.85
50.68
40.64
29.66
18.75
8.90
0.85
-5.15
-9.36
-12.47
-15.22
-17.86
-20.19
-21.63
-21.64
-20.14
-17.53
-14.46
-11.61
-9.38
-7.87
-7.12
-7.13
-8.01
-9.94
-12.90
-16.68
-20.85
-24.94
-28.55
-31.52
-33.85
-35.78
-37.64
-39.77
-42.35
-45.28
-48.14
-50.17
-50.45
-48.21
-43.08
-35.28
-25.55
-14.92
-4.39
5.29
13.73
20.77
26.36
30.42
32.91
33.92
33.75
32.86
31.73
30.72
29.86
29.01
27.92
26.43
24.63
22.74
21.04
19.60
18.32
16.92
15.04
12.52
9.39
5.82
2.08
-1.60
-5.15
-8.65
-12.28
-16.25
-20.54
-24.92
-28.92
-32.03
-33.82
-34.20
-33.36
-31.67
-29.66
-27.79
-26.50
-26.00
-26.25
-26.66
-26.28
-23.98
-18.85
-10.77
-0.41
10.95
21.83
31.11
38.20
43.05
45.76
46.58
45.65
43.24
39.85
36.08
32.49
29.41
26.82
24.51
22.29
20.01
17.75
15.76
14.30
13.55
13.52
13.98
14.49
14.58
13.82
12.07
9.55
6.68
4.01
1.92
0.50
-0.53
-1.56
-3.01
-5.10
-7.68
-10.49
-13.06
-14.97
-16.11
-16.64
-17.06
-17.94
-19.81
-22.78
-26.51
-30.11
-32.40
-32.28
-28.94
-22.19
-12.48
-0.81
11.41
22.79
32.14
38.78
42.55
43.72
42.77
40.13
36.07
30.67
24.08
16.67
9.02
1.87
-4.16
-8.72
-11.81
-13.58
-14.28
-14.01
-12.90
-11.06
-8.78
-6.50
-4.65
-3.52
-3.11
-3.19
-3.39
-3.42
-3.20
-2.88
-2.84
-3.45
-4.93
-7.28
-10.29
-13.58
-16.81
-19.81
-22.50
-24.99
-27.44
-30.02
-32.97
-36.53
-40.83
-45.63
-50.28
-53.68
-54.56
-52.00
-45.75
-36.50
-25.60
-14.61
-4.77
3.31
9.67
14.75
18.97
22.57
25.44
27.38
28.22
27.96
26.89
25.44
24.01
22.78
21.74
20.63
19.27
17.52
15.48
13.35
11.38
9.67
8.16
6.68
5.03
3.01
0.59
-2.20
-5.33
-8.78
-12.53
-16.53
-20.64
-24.69
-28.46
-31.71
-34.29
-36.19
-37.46
-38.09
-37.89
-36.43
-33.19
-27.78
-20.22
-11.06
-1.29
8.06
16.19
22.75
27.79
31.55
34.15
35.57
35.65
34.45
32.30
29.73
27.29
25.27
23.57
21.86
19.82
17.34
14.72
12.42
10.91
10.36
10.51
10.85
10.75
9.79
7.91
5.37
2.61
0.04
-2.22
-4.41
-7.03
-10.57
-15.26
-20.96
-27.15
-33.18
-38.29
-41.90
-43.52
-42.82
-39.71
-34.48
-27.85
-20.80
-14.25
-8.66
-3.97
0.31
4.65
9.18
13.54
17.03
19.05
19.41
18.55
17.26
16.44
16.62
17.79
19.45
20.90
21.50
21.04
19.72
18.04
16.50
15.33
14.33
13.10
11.19
8.33
4.64
0.41
-3.96
-8.24
-12.30
-16.24
-20.12
-24.01
-27.87
-31.57
-34.95
-37.75
-39.65
-40.07
-38.41
-34.16
-27.24
-18.11
-7.80
2.32
10.99
17.41
21.44
23.48
24.20
24.18
23.80
23.18
22.31
21.25
20.10
18.99
18.03
17.19
16.31
15.21
13.77
11.94
9.92
7.92
6.16
4.75
3.55
2.31
0.63
-1.82
-5.15
-9.18
-13.53
-17.72
-21.35
-24.29
-26.58
-28.56
-30.58
-32.95
-35.81
-38.96
-41.81
-43.46
-42.93
-39.46
-32.86
-23.62
-12.80
-1.64
8.67
17.33
24.00
28.63
31.46
32.77
32.91
32.27
31.21
30.02
28.84
27.77
26.77
25.77
24.70
23.41
21.81
19.90
17.75
15.54
13.49
11.71
10.12
8.60
6.87
4.76
2.22
-0.65
-3.68
-6.65
-9.48
-12.13
-14.67
-17.22
-19.82
-22.44
-25.02
-27.47
-29.88
-32.41
-35.26
-38.42
-41.55
-43.91
-44.57
-42.77
-38.15
-30.98
-22.11
-12.57
-3.32
5.00
12.17
18.23
23.24
27.29
30.38
32.48
33.69
34.22
34.36
34.37
34.41
34.42
34.26
33.77
32.94
31.92
30.93
30.13
29.54
28.95
28.02
26.41
24.05
21.02
17.68
14.40
11.46
8.93
6.72
4.64
2.43
-0.06
-2.95
-6.22
-9.73
-13.39
-17.00
-20.51
-23.99
-27.73
-32.16
-37.70
-44.37
-51.63
-58.45
-63.42
-65.26
-63.21
-57.28
-48.21
-37.16
-25.30
-13.46
-2.18
8.27
17.48
24.90
30.05
32.71
33.23
32.47
31.39
30.69
30.49
30.45
29.91
28.56
26.41
23.95
21.69
19.95
18.71
17.68
16.48
14.80
12.55
9.76
6.60
3.21
-0.28
-3.75
-7.09
-10.22
-13.18
-16.05
-19.00
-22.21
-25.79
-29.75
-33.87
-37.76
-40.77
-42.15
-41.16
-37.40
-30.96
-22.42
-12.76
-3.02
5.88
13.44
19.47
24.02
27.21
29.19
30.10
30.04
29.18
27.67
25.77
23.74
21.81
20.12
18.74
17.59
16.55
15.53
14.51
13.54
12.64
11.75
10.69
9.24
7.21
4.53
1.33
-2.13
-5.59
-8.86
-11.93
-14.87
-17.85
-21.01
-24.41
-27.98
-31.48
-34.42
-36.13
-35.95
-33.39
-28.37
-21.33
-13.04
-4.40
3.82
11.21
17.63
23.10
27.56
30.84
32.73
33.20
32.41
30.73
28.67
26.64
24.90
23.48
22.15
20.62
18.73
16.45
13.96
11.63
9.75
8.46
7.66
6.97
5.91
4.04
1.12
-2.77
-7.18
-11.50
-15.11
-17.64
-19.17
-20.09
-21.16
-23.12
-26.53
-31.61
-38.15
-45.35
-51.91
-56.12
-56.35
-51.52
-41.77
-28.44
-13.87
-0.53
9.89
16.87
21.09
23.69
25.66
27.30
28.32
28.27
26.97
24.79
22.51
20.89
20.25
20.38
20.69
20.57
19.73
18.26
16.58
15.16
14.22
13.71
13.24
12.29
10.51
7.81
4.38
0.60
-3.21
-6.87
-10.43
-14.07
-17.94
-22.01
-26.08
-29.92
-33.41
-36.61
-39.64
-42.38
-44.40
-44.93
-43.17
-38.65
-31.51
-22.53
-12.79
-3.32
5.23
12.66
19.08
24.62
29.27
32.90
35.32
36.46
36.42
35.41
33.70
31.55
29.12
26.52
23.78
20.94
18.06
15.30
12.77
10.60
8.85
7.48
6.40
5.41
4.27
2.78
0.80
-1.69
-4.62
-7.78
-10.98
-14.01
-16.73
-19.19
-21.38
-23.39
-25.33
-27.34
-29.56
-32.13
-34.89
-37.42
-39.02
-38.84
-36.25
-31.01
-23.44
-14.29
-4.54
4.89
13.23
20.01
25.07
28.46
30.49
31.57
32.16
32.52
32.69
32.41
31.30
29.19
26.26
23.09
20.42
18.76
18.20
18.23
18.03
16.81
14.20
10.40
5.98
1.64
-2.07
-4.95
-7.15
-9.02
-11.27
-14.80
-20.65
-29.52
-41.22
-54.08
-65.04
-70.51
-67.92
-57.09
-40.69
-23.42
-10.04
-3.45
-3.64
-8.12
-13.40
-16.71
-16.93
-14.51
-10.42
-5.34
0.73
8.08
16.55
25.24
32.57
37.05
37.85
35.30
30.52
25.06
20.14
16.34
13.58
11.33
9.06
6.44
3.57
0.81
-1.36
-2.66
-3.16
-3.34
-3.80
-5.16
-7.71
-11.26
-15.28
-19.10
-22.20
-24.47
-26.27
-28.18
-30.64
-33.63
-36.41
-37.80
-36.59
-32.11
-24.59
-15.08
-5.08
4.03
11.44
17.05
21.19
24.25
26.48
27.79
27.95
26.84
24.60
21.63
18.50
15.70
13.55
12.07
11.05
10.19
9.22
8.03
6.55
4.85
2.97
0.86
-1.51
-4.16
-7.06
-10.13
-13.30
-16.66
-20.36
-24.58
-29.26
-34.02
-38.04
-40.20
-39.50
-35.39
-28.03
-18.23
-7.28
3.46
12.92
20.54
26.17
30.11
32.75
34.42
35.44
35.90
35.77
35.01
33.53
31.29
28.41
25.15
21.79
18.69
16.09
14.04
12.40
10.86
9.06
6.76
3.96
0.86
-2.18
-4.88
-7.13
-9.04
-10.95
-13.22
-16.21
-20.17
-25.17
-30.87
-36.56
-41.09
-43.11
-41.60
-36.23
-27.62
-17.12
-6.34
3.42
11.47
17.71
22.40
25.85
28.22
29.66
30.33
30.54
30.62
30.76
30.80
30.37
29.04
26.59
23.18
19.33
15.70
12.85
11.02
9.97
9.22
8.15
6.36
3.71
0.34
-3.49
-7.51
-11.50
-15.36
-19.05
-22.57
-26.03
-29.60
-33.48
-37.83
-42.40
-46.51
-49.03
-48.73
-44.74
-36.96
-26.21
-13.89
-1.69
9.08
17.70
24.05
28.46
31.40
33.24
34.22
34.52
34.22
33.42
32.25
30.92
29.62
28.44
27.29
25.95
24.21
21.98
19.39
16.79
14.52
12.76
11.36
9.95
8.07
5.43
1.97
-2.08
-6.33
-10.43
-14.15
-17.41
-20.35
-23.18
-26.19
-29.66
-33.69
-38.19
-42.67
-46.23
-47.75
-46.22
-41.15
-32.74
-21.99
-10.28
0.95
10.58
18.16
23.69
27.51
30.06
31.69
32.61
32.94
32.76
32.07
30.96
29.47
27.77
25.98
24.21
22.55
21.07
19.76
18.58
17.50
16.42
15.34
14.29
13.24
12.13
10.87
9.31
7.30
4.75
1.62
-2.02
-6.08
-10.53
-15.32
-20.33
-25.42
-30.32
-34.86
-38.99
-42.83
-46.48
-49.84
-52.31
-52.87
-50.44
-44.28
-34.48
-22.06
-8.61
4.14
14.93
23.16
28.90
32.54
34.54
35.28
35.00
34.04
32.75
31.56
30.77
30.41
30.27
29.95
29.09
27.51
25.32
22.84
20.50
18.61
17.33
16.50
15.83
14.94
13.54
11.54
9.02
6.19
3.27
0.39
-2.45
-5.29
-8.21
-11.24
-14.33
-17.42
-20.49
-23.62
-26.90
-30.38
-33.92
-37.22
-39.84
-41.33
-41.44
-40.19
-37.72
-34.07
-29.06
-22.24
-13.16
-1.82
11.25
24.77
37.20
47.14
53.72
56.68
56.27
53.05
47.65
40.77
33.20
25.90
19.75
15.44
13.10
12.43
12.70
13.11
13.12
12.48
11.32
9.83
8.18
6.28
3.98
1.10
-2.51
-6.77
-11.58
-16.59
-21.44
-25.78
-29.35
-32.12
-34.25
-36.12
-38.05
-40.39
-43.27
-46.65
-50.15
-53.07
-54.42
-53.19
-48.65
-40.71
-30.09
-18.12
-6.41
3.74
11.65
17.25
20.94
23.27
24.71
25.51
25.77
25.57
24.94
24.04
22.90
21.58
20.11
18.56
16.97
15.42
14.02
12.80
11.82
11.01
10.36
9.75
9.02
7.99
6.44
4.36
1.76
-1.18
-4.30
-7.41
-10.41
-13.30
-16.14
-18.97
-21.81
-24.71
-27.73
-31.01
-34.67
-38.59
-42.33
-44.98
-45.39
-42.60
-36.27
-26.94
-15.99
-5.08
4.42
11.82
17.23
21.21
24.29
26.76
28.50
29.35
29.17
28.10
26.44
24.49
22.45
20.41
18.38
16.32
14.25
12.19
10.17
8.27
6.55
5.04
3.74
2.56
1.34
-0.11
-2.04
-4.63
-7.94
-11.85
-16.14
-20.38
-24.12
-26.97
-28.72
-29.45
-29.56
-29.61
-30.16
-31.56
-33.70
-36.05
-37.73
-37.76
-35.46
-30.66
-23.70
-15.43
-6.84
1.15
7.87
12.90
16.19
17.88
18.32
18.08
17.77
18.03
19.31
21.81
25.35
29.50
33.57
36.93
39.12
39.95
39.58
38.36
36.67
34.78
32.77
30.48
27.75
24.54
20.97
17.29
13.77
10.48
7.34
4.02
0.24
-4.19
-9.08
-14.08
-18.79
-22.96
-26.73
-30.43
-34.37
-38.57
-42.54
-45.44
-46.37
-44.81
-40.58
-33.99
-25.36
-14.99
-3.20
9.42
21.88
32.88
41.21
46.25
48.07
47.36
44.94
41.38
36.82
31.31
25.06
18.69
13.08
8.91
6.43
5.36
5.03
4.81
4.26
3.23
1.79
0.07
-1.89
-4.15
-6.80
-9.96
-13.62
-17.66
-21.80
-25.66
-28.90
-31.32
-33.00
-34.16
-35.18
-36.49
-38.48
-41.38
-45.12
-49.19
-52.47
-53.55
-51.07
-44.29
-33.50
-20.05
-5.78
7.49
18.53
26.96
32.93
36.91
39.34
40.47
40.45
39.45
37.66
35.33
32.78
30.27
28.03
26.21
24.70
23.32
21.88
20.27
18.54
16.89
15.40
14.04
12.62
10.79
8.25
4.96
1.06
-3.08
-7.06
-10.53
-13.25
-15.16
-16.36
-17.07
-17.73
-18.87
-20.94
-24.03
-27.66
-30.69
-31.63
-29.19
-22.79
-13.00
-1.38
10.03
19.48
25.91
29.26
30.29
30.03
29.44
29.07
28.92
28.60
27.58
25.30
21.51
16.29
10.07
3.52
-2.59
-7.57
-11.04
-12.96
-13.73
-14.03
-14.57
-15.85
-17.99
-20.67
-23.38
-25.67
-27.32
-28.48
-29.51
-30.81
-32.73
-35.36
-38.58
-41.96
-44.79
-46.13
-45.09
-40.99
-33.77
-24.07
-13.06
-2.15
7.42
14.94
20.27
23.68
25.63
26.53
26.59
25.76
23.92
21.04
17.30
13.17
9.18
5.75
3.05
0.95
-0.85
-2.56
-4.24
-5.80
-7.17
-8.44
-9.86
-11.75
-14.37
-17.82
-22.10
-27.09
-32.59
-38.22
-43.22
-46.56
-47.23
-44.59
-38.69
-30.29
-20.66
-11.16
-2.82
3.81
8.68
11.97
14.00
15.05
15.42
15.27
14.77
13.99
12.99
11.82
10.54
9.16
7.67
5.98
3.99
1.72
-0.70
-3.05
-5.13
-6.93
-8.53
-10.18
-12.08
-14.35
-17.03
-20.13
-23.72
-27.76
-31.88
-35.36
-37.17
-36.33
-32.27
-25.09
-15.50
-4.61
6.56
17.21
26.97
35.66
43.16
49.30
53.86
56.62
57.42
56.32
53.54
49.50
44.80
40.00
35.63
31.98
29.12
26.98
25.45
24.37
23.58
22.82
21.64
19.60
16.32
11.76
6.34
0.74
-4.30
-8.34
-11.39
-13.95
-16.75
-20.44
-25.30
-31.00
-36.60
-40.73
-41.95
-39.23
-32.42
-22.31
-10.41
1.54
12.23
21.04
27.96
33.34
37.47
40.36
41.90
42.03
40.96
39.24
37.47
36.06
35.10
34.33
33.28
31.57
29.02
25.75
22.14
18.64
15.59
13.19
11.45
10.10
8.85
7.38
5.39
2.66
-0.84
-4.92
-9.25
-13.43
-17.24
-20.68
-24.06
-27.85
-32.41
-37.64
-42.88
-46.94
-48.46
-46.26
-39.88
-29.71
-16.92
-3.13
10.06
21.53
30.71
37.66
42.68
46.17
48.37
49.42
49.45
48.62
47.16
45.22
42.92
40.27
37.32
34.23
31.26
28.68
26.67
25.11
23.63
21.87
19.56
16.68
13.38
9.85
6.12
2.14
-2.24
-7.11
-12.38
-17.85
-23.21
-28.17
-32.51
-36.08
-38.86
-41.01
-42.85
-44.72
-46.99
-49.80
-52.79
-55.10
-55.49
-52.77
-46.25
-36.11
-23.39
-9.74
3.09
13.85
21.94
27.41
30.69
32.29
32.65
32.12
31.07
29.87
28.83
28.10
27.58
27.03
26.23
25.15
23.98
23.12
22.90
23.46
24.57
25.70
26.25
25.78
24.18
21.75
19.07
16.71
14.93
13.56
12.12
10.00
6.81
2.59
-2.15
-6.69
-10.37
-12.84
-14.18
-14.86
-15.64
-17.36
-20.89
-26.62
-34.33
-42.84
-50.15
-53.91
-52.29
-44.95
-33.19
-19.76
-7.67
0.92
5.47
6.95
7.02
7.06
7.51
7.98
7.80
6.68
5.02
3.65
3.25
3.90
4.94
5.35
4.28
1.50
-2.55
-6.97
-10.86
-13.66
-15.31
-16.03
-16.18
-16.05
-15.74
-15.31
-14.71
-13.98
-13.21
-12.56
-12.22
-12.32
-12.99
-14.27
-16.11
-18.41
-21.01
-23.64
-25.95
-27.33
-27.04
-24.39
-18.97
-10.95
-1.09
9.31
18.89
26.60
32.00
35.26
36.94
37.61
37.52
36.55
34.35
30.60
25.32
18.80
11.71
4.69
-1.58
-6.63
-10.18
-12.13
-12.50
-11.59
-9.92
-8.10
-6.76
-6.26
-6.67
-7.83
-9.46
-11.23
-13.00
-14.73
-16.53
-18.61
-21.19
-24.37
-27.95
-31.34
-33.66
-33.92
-31.43
-26.05
-18.37
-9.48
-0.67
6.94
12.72
16.53
18.64
19.51
19.66
19.38
18.82
17.95
16.68
14.93
12.74
10.24
7.60
5.07
2.79
0.89
-0.59
-1.69
-2.49
-3.15
-3.87
-4.91
-6.38
-8.26
-10.33
-12.27
-13.85
-14.97
-15.82
-16.81
-18.38
-20.83
-24.08
-27.58
-30.40
-31.48
-29.92
-25.34
-18.10
-9.11
0.37
9.12
16.26
21.38
24.52
26.01
26.26
25.62
24.38
22.68
20.61
18.27
15.78
13.25
10.81
8.58
6.59
4.92
3.53
2.35
1.29
0.21
-1.07
-2.74
-4.88
-7.49
-10.41
-13.46
-16.41
-19.11
-21.60
-24.04
-26.67
-29.69
-32.98
-36.07
-38.12
-38.11
-35.14
-28.92
-19.83
-8.97
2.20
12.20
20.02
25.23
28.03
28.92
28.47
27.16
25.28
23.02
20.59
18.18
15.94
13.92
12.03
10.12
8.19
6.30
4.63
3.42
2.65
2.09
1.34
0.02
-2.08
-4.84
-7.93
-11.04
-13.88
-16.44
-18.90
-21.52
-24.50
-27.91
-31.53
-34.84
-37.03
-37.14
-34.35
-28.28
-19.16
-7.97
3.82
14.63
23.14
28.68
31.27
31.45
30.08
27.97
25.73
23.70
21.97
20.41
18.88
17.27
15.53
13.66
11.73
9.71
7.65
5.57
3.47
1.44
-0.46
-2.14
-3.63
-4.99
-6.37
-7.92
-9.78
-12.06
-14.84
-18.17
-21.92
-25.72
-28.99
-30.90
-30.66
-27.75
-22.16
-14.43
-5.62
3.08
10.68
16.59
20.77
23.46
25.05
25.77
25.69
24.74
22.90
20.30
17.23
14.08
11.18
8.64
6.40
4.30
2.11
-0.30
-2.92
-5.67
-8.39
-10.95
-13.26
-15.30
-17.10
-18.88
-20.85
-23.21
-26.08
-29.33
-32.58
-35.12
-36.06
-34.60
-30.31
-23.26
-14.16
-4.11
5.76
14.52
21.62
26.94
30.53
32.49
32.93
31.94
29.73
26.64
23.16
19.71
16.57
13.76
11.14
8.45
5.52
2.29
-1.13
-4.50
-7.54
-10.03
-11.87
-13.14
-14.09
-15.17
-16.79
-19.32
-22.80
-26.95
-31.06
-34.12
-35.02
-32.89
-27.40
-18.94
-8.56
2.32
12.35
20.58
26.70
30.83
33.32
34.48
34.41
33.09
30.57
27.09
23.02
18.86
14.97
11.53
8.56
6.02
3.80
1.83
0.08
-1.59
-3.37
-5.41
-7.80
-10.52
-13.46
-16.53
-19.72
-23.14
-26.90
-31.02
-35.23
-38.91
-41.20
-41.04
-37.61
-30.54
-20.26
-7.91
4.97
16.77
26.35
33.18
37.41
39.53
40.06
39.44
37.93
35.75
33.16
30.38
27.58
24.83
22.02
19.11
16.17
13.39
11.07
9.36
8.17
7.15
5.83
3.77
0.80
-2.88
-6.92
-10.84
-14.36
-17.39
-20.13
-22.93
-26.23
-30.25
-34.82
-39.25
-42.29
-42.45
-38.57
-30.32
-18.39
-4.47
9.47
21.68
31.19
37.82
41.91
44.02
44.52
43.67
41.65
38.73
35.28
31.65
28.10
24.75
21.57
18.48
15.40
12.31
9.36
6.77
4.74
3.39
2.63
2.17
1.50
0.20
-2.04
-5.24
-9.10
-13.25
-17.21
-20.68
-23.53
-25.80
-27.66
-29.44
-31.51
-34.17
-37.46
-40.99
-43.75
-44.32
-41.31
-34.02
-22.83
-9.17
4.90
17.41
27.14
33.78
37.76
39.76
40.37
39.85
38.29
35.87
32.88
29.78
26.91
24.33
21.91
19.41
16.69
13.92
11.41
9.44
8.09
7.16
6.09
4.35
1.59
-2.21
-6.71
-11.35
-15.64
-19.30
-22.32
-24.99
-27.72
-30.93
-34.82
-39.17
-43.16
-45.55
-44.91
-40.11
-30.87
-18.01
-3.29
11.01
22.98
31.52
36.58
38.92
39.53
39.15
38.08
36.27
33.50
29.80
25.40
20.74
16.36
12.56
9.41
6.86
4.73
2.84
1.12
-0.46
-1.93
-3.31
-4.64
-6.06
-7.68
-9.62
-11.97
-14.79
-18.09
-21.87
-26.00
-30.11
-33.59
-35.49
-34.96
-31.40
-24.84
-15.99
-6.03
3.75
12.35
19.19
24.17
27.39
28.99
29.10
27.85
25.47
22.27
18.61
14.88
11.41
8.37
5.73
3.32
0.87
-1.80
-4.74
-7.78
-10.62
-12.98
-14.70
-15.89
-16.82
-17.87
-19.31
-21.36
-23.99
-26.98
-29.85
-31.89
-32.29
-30.34
-25.75
-18.66
-9.80
-0.24
8.85
16.54
22.36
26.29
28.69
29.99
30.54
30.43
29.55
27.73
24.90
21.27
17.28
13.44
10.07
7.19
4.55
1.79
-1.30
-4.67
-7.99
-10.85
-12.93
-14.21
-14.93
-15.50
-16.32
-17.65
-19.60
-22.05
-24.71
-27.04
-28.26
-27.45
-23.86
-17.22
-7.82
3.38
15.10
26.11
35.48
42.78
47.99
51.28
52.77
52.66
51.14
48.39
44.73
40.43
35.79
31.15
26.87
23.20
20.29
18.03
16.08
14.02
11.35
7.74
2.98
-2.98
-10.20
-18.72
-28.47
-39.13
-50.10
-60.68
-70.20
-78.28
-84.73
-89.45
-92.18
-92.50
-90.04
-84.62
-76.66
-67.08
-57.04
-47.65
-39.55
-32.73
-26.71
-20.70
-13.84
-5.54
4.34
15.41
26.74
37.10
45.34
50.57
52.39
50.93
46.82
41.01
34.51
28.22
22.60
17.73
13.24
8.66
3.60
-1.98
-7.86
-13.60
-18.79
-23.16
-26.65
-29.37
-31.48
-33.19
-34.75
-36.36
-38.26
-40.61
-43.33
-45.96
-47.52
-46.70
-42.26
-33.70
-21.52
-7.23
7.12
19.76
29.74
37.04
42.20
45.87
48.24
49.14
48.30
45.67
41.60
36.78
31.96
27.66
24.10
21.22
18.82
16.69
14.78
13.12
11.85
11.09
10.94
11.36
12.05
12.53
12.27
10.93
8.49
5.31
1.92
-1.23
-3.94
-6.43
-9.06
-12.13
-15.81
-19.93
-24.16
-28.06
-31.15
-32.87
-32.65
-29.97
-24.53
-16.65
-7.14
2.74
11.73
18.85
23.80
26.72
28.08
28.29
27.60
26.12
24.01
21.56
19.14
17.10
15.53
14.22
12.85
11.15
9.22
7.32
5.80
4.86
4.41
4.05
3.34
1.94
-0.25
-2.99
-5.85
-8.37
-10.16
-11.19
-11.72
-12.22
-13.16
-14.93
-17.63
-20.99
-24.45
-27.23
-28.50
-27.62
-24.31
-18.73
-11.53
-3.64
3.95
10.41
15.24
18.34
19.92
20.35
19.99
19.17
18.09
16.91
15.74
14.68
13.79
13.00
12.14
10.99
9.41
7.41
5.15
2.88
0.77
-1.12
-2.90
-4.68
-6.60
-8.67
-10.87
-13.27
-15.93
-19.04
-22.67
-26.77
-31.09
-35.21
-38.51
-40.30
-39.96
-37.01
-31.47
-23.74
-14.62
-5.10
3.91
11.86
18.55
24.01
28.37
31.58
33.57
34.31
33.91
32.63
30.86
28.90
26.96
25.12
23.30
21.50
19.63
17.63
15.46
13.06
10.38
7.49
4.58
1.75
-0.83
-3.21
-5.48
-7.82
-10.40
-13.37
-16.71
-20.10
-23.04
-24.82
-24.71
-22.25
-17.42
-10.75
-3.22
3.97
9.90
13.95
16.05
16.46
15.61
13.92
11.71
9.21
6.59
3.98
1.54
-0.60
-2.31
-3.49
-4.03
-3.89
-3.10
-1.83
-0.37
0.83
1.38
0.97
-0.51
-2.89
-5.86
-9.02
-11.95
-14.35
-16.13
-17.40
-18.40
-19.54
-21.16
-23.43
-26.19
-28.78
-30.17
-29.21
-25.04
-17.47
-7.20
4.37
15.50
24.79
31.41
35.38
37.23
37.66
37.15
35.91
33.95
31.31
28.20
24.90
21.81
19.13
16.93
15.04
13.31
11.56
9.78
8.02
6.42
5.13
4.19
3.51
2.78
1.67
-0.08
-2.49
-5.32
-8.21
-10.82
-12.99
-14.82
-16.49
-18.24
-20.12
-22.12
-24.24
-26.50
-28.95
-31.48
-33.71
-34.87
-34.12
-30.79
-24.72
-16.42
-6.93
2.64
11.32
18.53
24.06
27.93
30.27
31.22
30.96
29.70
27.75
25.42
22.98
20.67
18.60
16.80
15.25
13.84
12.51
11.29
10.23
9.46
9.03
8.81
8.58
8.07
7.09
5.71
4.17
2.68
1.34
0.03
-1.62
-3.90
-6.84
-10.13
-13.26
-15.75
-17.53
-18.92
-20.46
-22.67
-25.73
-29.45
-33.42
-37.13
-40.10
-41.85
-41.94
-39.80
-35.07
-27.73
-18.28
-7.75
2.54
11.44
18.23
22.78
25.48
26.93
27.69
28.03
27.98
27.39
26.19
24.45
22.38
20.29
18.45
16.98
15.85
14.91
14.03
13.14
12.19
11.26
10.39
9.57
8.64
7.42
5.77
3.68
1.32
-1.10
-3.34
-5.32
-7.14
-9.02
-11.05
-13.24
-15.39
-17.24
-18.57
-19.31
-19.53
-19.52
-19.56
-19.87
-20.52
-21.38
-22.11
-22.18
-20.98
-17.96
-12.84
-5.78
2.68
11.59
19.95
26.84
31.64
34.04
34.05
31.94
28.13
23.22
17.85
12.70
8.33
5.04
2.80
1.38
0.39
-0.56
-1.71
-3.10
-4.62
-6.15
-7.61
-9.11
-10.79
-12.76
-14.89
-16.86
-18.26
-18.77
-18.36
-17.20
-15.64
-13.99
-12.38
-10.80
-9.18
-7.48
-5.79
-4.27
-3.11
-2.47
-2.53
-3.45
-5.36
-8.26
-11.82
-15.33
-17.65
-17.59
-14.36
-7.89
0.98
10.83
20.14
27.78
33.32
37.00
39.30
40.63
41.14
40.72
39.22
36.70
33.44
29.90
26.45
23.25
20.14
16.86
13.17
9.10
5.00
1.43
-1.10
-2.33
-2.41
-1.77
-0.98
-0.60
-0.90
-1.94
-3.52
-5.43
-7.46
-9.56
-11.81
-14.37
-17.42
-21.06
-25.25
-29.78
-34.15
-37.57
-39.11
-37.90
-33.44
-25.93
-16.20
-5.51
4.76
13.51
20.15
24.55
26.87
27.43
26.57
24.66
22.16
19.51
17.12
15.19
13.68
12.33
10.87
9.12
7.03
4.81
2.68
0.82
-0.74
-2.12
-3.55
-5.21
-7.24
-9.59
-12.04
-14.35
-16.28
-17.74
-18.95
-20.27
-22.21
-25.11
-29.02
-33.38
-37.21
-39.25
-38.34
-33.87
-25.97
-15.54
-4.01
6.94
15.86
21.64
23.77
22.45
18.47
13.16
7.96
4.00
1.83
1.33
1.88
2.74
3.39
3.53
3.19
2.33
0.94
-0.94
-3.01
-4.69
-5.36
-4.68
-2.96
-1.00
0.13
-0.41
-2.81
-6.58
-10.83
-14.72
-17.72
-19.81
-21.25
-22.46
-23.80
-25.56
-27.97
-31.16
-35.05
-39.13
-42.44
-43.74
-41.93
-36.47
-27.67
-16.72
-5.10
5.73
14.85
21.93
27.08
30.63
32.93
34.26
34.79
34.74
34.25
33.44
32.33
30.90
29.16
27.19
25.16
23.25
21.61
20.27
19.18
18.25
17.36
16.48
15.49
14.29
12.77
10.74
8.04
4.69
0.91
-2.88
-6.14
-8.49
-9.79
-10.22
-10.28
-10.71
-12.14
-15.04
-19.45
-24.82
-30.18
-34.16
-35.49
-33.39
-27.90
-19.88
-10.73
-1.90
5.50
10.81
13.79
14.46
12.99
9.81
5.70
1.71
-1.07
-1.88
-0.75
1.60
4.00
5.34
5.11
3.52
1.31
-0.51
-1.09
-0.11
2.33
5.69
9.24
12.35
14.56
15.69
15.72
14.75
12.85
10.08
6.61
2.68
-1.32
-5.04
-8.35
-11.36
-14.49
-18.26
-23.05
-28.85
-35.14
-40.94
-45.08
-46.45
-44.36
-38.77
-30.34
-20.16
-9.52
0.49
9.15
16.09
21.28
24.82
26.86
27.60
27.29
26.32
25.06
23.83
22.70
21.59
20.36
18.93
17.38
15.89
14.68
13.84
13.37
13.10
12.86
12.43
11.62
10.26
8.26
5.62
2.55
-0.61
-3.55
-6.10
-8.34
-10.62
-13.37
-16.92
-21.29
-26.03
-30.33
-33.17
-33.68
-31.34
-26.25
-18.93
-10.27
-1.20
7.55
15.42
22.16
27.66
31.89
34.85
36.50
36.69
35.28
32.16
27.45
21.51
15.03
8.79
3.52
-0.29
-2.52
-3.42
-3.39
-3.02
-2.99
-4.18
-7.53
-13.52
-21.72
-30.51
-37.47
-40.36
-38.26
-32.08
-24.34
-18.00
-15.02
-15.76
-19.00
-22.79
-25.43
-26.02
-24.36
-20.51
-14.52
-6.31
3.86
15.26
26.54
36.16
42.83
45.95
45.78
43.30
39.79
36.30
33.29
30.63
27.81
24.37
20.19
15.59
11.20
7.61
5.16
3.75
2.97
2.27
1.18
-0.60
-3.10
-6.20
-9.67
-13.23
-16.59
-19.57
-22.10
-24.26
-26.37
-28.78
-31.84
-35.63
-39.77
-43.46
-45.62
-45.21
-41.67
-35.09
-26.25
-16.37
-6.77
1.58
8.31
13.60
18.00
21.96
25.70
29.05
31.66
33.23
33.69
33.22
32.20
30.95
29.62
28.24
26.81
25.38
24.09
23.00
22.01
20.84
19.16
16.75
13.69
10.37
7.21
4.59
2.46
0.52
-1.73
-4.71
-8.57
-13.11
-17.96
-22.67
-26.92
-30.67
-34.08
-37.42
-40.80
-44.04
-46.49
-47.23
-45.24
-39.93
-31.27
-20.01
-7.45
4.84
15.44
23.40
28.32
30.47
30.50
29.35
27.89
26.79
26.24
26.02
25.43
23.51
19.30
12.27
3.02
-6.40
-12.70
-12.41
-3.38
14.02
36.69
59.90
79.02
91.08
95.36
92.92
85.49
74.36
60.27
43.71
25.51
7.14
-9.65
-23.37
-33.23
-39.32
-42.48
-43.74
-44.15
-44.39
-44.81
-45.57
-46.78
-48.56
-50.82
-53.09
-54.28
-53.09
-48.42
-40.00
-28.67
-16.18
-4.52
4.75
11.12
15.01
17.33
18.95
20.32
21.41
21.88
21.53
20.43
18.96
17.67
16.92
16.76
16.97
17.17
17.12
16.75
16.22
15.67
15.15
14.44
13.21
11.26
8.62
5.61
2.65
0.08
-2.08
-3.94
-5.74
-7.62
-9.56
-11.48
-13.35
-15.32
-17.69
-20.80
-24.77
-29.37
-33.86
-37.16
-38.15
-35.95
-30.33
-21.86
-11.71
-1.35
7.92
15.25
20.41
23.65
25.40
26.11
26.02
25.23
23.87
22.03
19.90
17.74
15.80
14.28
13.25
12.67
12.36
12.07
11.48
10.33
8.50
6.03
3.09
-0.06
-3.11
-5.75
-7.77
-9.18
-10.13
-11.04
-12.42
-14.77
-18.36
-23.09
-28.49
-33.76
-37.89
-39.83
-38.79
-34.44
-27.05
-17.51
-7.16
2.42
9.86
14.36
15.76
14.50
11.45
7.61
3.85
0.65
-2.00
-4.43
-7.12
-10.27
-13.63
-16.47
-17.90
-17.32
-14.72
-10.85
-6.89
-4.07
-3.28
-4.84
-8.57
-13.84
-19.51
-23.92
-25.25
-22.02
-13.98
-2.59
9.32
18.46
22.43
20.69
14.75
7.18
0.49
-3.89
-5.77
-5.64
-4.07
-1.30
2.64
7.58
12.87
17.63
21.03
22.75
23.09
22.71
22.31
22.27
22.50
22.58
21.97
20.35
17.63
14.11
10.31
6.84
4.21
2.62
1.89
1.59
1.20
0.24
-1.51
-4.02
-7.09
-10.42
-13.81
-17.13
-20.40
-23.75
-27.45
-31.76
-36.86
-42.51
-48.05
-52.26
-53.65
-50.92
-43.53
-31.95
-17.66
-2.78
10.77
21.70
29.61
34.82
38.02
39.79
40.41
39.95
38.42
36.03
33.22
30.55
28.42
27.00
26.10
25.26
24.09
22.34
20.05
17.54
15.16
13.19
11.60
10.14
8.45
6.26
3.47
0.21
-3.20
-6.49
-9.44
-12.11
-14.72
-17.65
-21.26
-26.02
-32.34
-40.42
-50.13
-60.51
-69.92
-76.29
-77.75
-73.29
-63.33
-49.43
-33.78
-18.49
-4.87
6.66
16.26
24.32
31.20
37.02
41.76
45.27
47.26
47.37
45.35
41.13
35.05
27.85
20.45
13.70
8.07
3.59
-0.04
-3.25
-6.37
-9.51
-12.70
-15.93
-19.28
-22.85
-26.70
-30.62
-34.17
-36.88
-38.34
-38.52
-37.77
-36.64
-35.65
-35.17
-35.29
-35.90
-36.88
-37.94
-38.52
-37.81
-34.75
-28.45
-18.53
-5.42
9.64
25.01
39.15
51.01
60.21
66.86
71.29
73.71
74.17
72.66
69.25
64.29
58.33
51.93
45.51
39.24
33.10
27.04
21.24
15.99
11.69
8.47
6.15
4.18
1.86
-1.28
-5.35
-10.10
-15.11
-20.11
-24.99
-29.80
-34.59
-39.26
-43.62
-47.46
-50.81
-53.87
-57.00
-60.37
-63.80
-66.64
-67.86
-66.34
-60.99
-51.18
-36.84
-18.62
2.28
24.25
45.69
65.16
81.50
93.87
101.60
104.25
101.59
93.92
82.00
67.08
50.70
34.33
19.28
6.55
-3.20
-9.70
-13.08
-14.00
-13.49
-12.59
-12.15
-12.49
-13.49
-14.75
-15.90
-16.88
-17.90
-19.34
-21.51
-24.60
-28.53
-32.94
-37.19
-40.31
-41.25
-39.13
-33.56
-24.94
-14.42
-3.45
6.65
15.03
21.49
26.24
29.53
31.56
32.43
32.19
31.07
29.45
27.64
25.89
24.15
22.23
19.89
17.05
13.86
10.69
7.94
5.77
4.07
2.44
0.47
-2.06
-5.04
-8.05
-10.63
-12.57
-14.06
-15.54
-17.60
-20.70
-25.05
-30.58
-36.93
-43.39
-48.88
-52.12
-51.86
-47.37
-38.86
-27.37
-14.61
-2.23
8.59
17.48
24.72
30.71
35.73
39.68
42.26
43.20
42.60
40.86
38.56
36.21
34.02
31.86
29.40
26.41
22.91
19.25
15.93
13.34
11.48
9.97
8.18
5.49
1.59
-3.34
-8.78
-13.99
-18.40
-21.69
-23.90
-25.31
-26.37
-27.64
-29.57
-32.49
-36.38
-40.80
-44.74
-46.83
-45.70
-40.49
-31.26
-19.04
-5.56
7.32
18.25
26.71
32.92
37.43
40.67
42.75
43.57
43.10
41.67
39.93
38.54
37.88
37.84
38.00
37.87
37.07
35.32
32.29
27.42
20.13
10.28
-1.42
-13.35
-23.45
-30.01
-32.45
-31.44
-28.57
-25.49
-23.32
-22.37
-22.38
-23.03
-24.28
-26.39
-29.71
-34.28
-39.78
-45.46
-50.46
-53.94
-55.19
-53.79
-49.53
-42.54
-33.25
-22.43
-11.03
0.01
9.89
18.15
24.56
29.10
31.88
33.15
33.24
32.50
31.31
29.92
28.50
27.02
25.39
23.49
21.30
18.89
16.40
14.07
12.09
10.54
9.45
8.77
8.40
8.28
8.27
8.08
7.36
5.81
3.31
0.03
-3.55
-6.92
-9.70
-11.83
-13.57
-15.41
-17.84
-21.12
-25.13
-29.34
-32.90
-34.78
-34.08
-30.28
-23.49
-14.40
-4.20
5.90
14.88
22.10
27.45
31.09
33.30
34.42
34.70
34.44
33.96
33.62
33.69
34.24
35.03
35.49
34.94
32.92
29.45
25.01
20.43
16.35
12.97
10.08
7.37
4.66
2.06
-0.36
-2.67
-5.11
-7.70
-10.01
-11.21
-10.66
-8.64
-6.73
-7.23
-12.10
-21.75
-34.67
-47.95
-58.37
-63.65
-62.85
-56.39
-45.37
-31.32
-15.84
-0.67
12.51
22.36
28.20
30.10
28.84
25.53
21.32
17.08
13.34
10.34
8.08
6.40
5.00
3.59
1.98
0.17
-1.64
-3.21
-4.37
-5.21
-6.08
-7.34
-9.25
-11.71
-14.37
-16.72
-18.40
-19.37
-19.93
-20.62
-21.99
-24.36
-27.84
-32.23
-37.00
-41.29
-44.01
-43.97
-40.25
-32.56
-21.43
-8.22
5.24
17.24
26.66
33.21
37.20
39.21
39.78
39.22
37.74
35.57
33.04
30.50
28.26
26.35
24.56
22.54
19.98
16.89
13.61
10.87
9.44
9.78
11.74
14.33
16.12
15.75
12.51
6.55
-1.16
-9.38
-17.11
-23.90
-29.79
-35.09
-40.16
-45.24
-50.38
-55.46
-59.99
-63.11
-63.68
-60.69
-53.72
-43.22
-30.40
-16.85
-3.93
7.53
17.23
25.29
31.77
36.66
39.87
41.44
41.68
41.06
40.13
39.19
38.35
37.50
36.43
34.95
32.98
30.52
27.59
24.30
20.70
16.95
13.18
9.42
5.68
1.86
-2.09
-6.11
-10.03
-13.55
-16.38
-18.39
-19.77
-20.95
-22.60
-25.34
-29.62
-35.50
-42.43
-49.08
-53.53
-53.81
-48.61
-38.01
-23.62
-8.07
5.96
16.64
23.43
26.90
27.97
27.47
25.73
22.98
19.59
16.26
13.90
13.11
13.90
15.82
18.15
20.26
21.85
22.96
23.70
24.14
24.25
23.81
22.69
20.86
18.34
15.32
12.02
8.68
5.47
2.57
0.04
-2.28
-4.67
-7.45
-10.86
-14.85
-19.13
-23.25
-26.79
-29.57
-31.65
-33.36
-35.13
-37.34
-40.13
-43.26
-46.08
-47.57
-46.66
-42.66
-35.48
-25.84
-14.99
-4.34
5.00
12.57
18.45
23.07
26.84
29.89
32.11
33.30
33.38
32.51
31.03
29.38
27.90
26.76
25.96
25.38
24.89
24.36
23.63
22.59
21.09
19.06
16.49
13.47
10.08
6.52
2.93
-0.53
-3.73
-6.54
-8.89
-10.78
-12.33
-13.74
-15.22
-16.92
-18.91
-21.17
-23.54
-25.79
-27.53
-28.26
-27.51
-24.93
-20.54
-14.70
-8.04
-1.18
5.34
11.21
16.25
20.26
23.01
24.26
24.02
22.59
20.57
18.69
17.49
17.19
17.54
18.04
18.10
17.37
15.88
14.01
12.33
11.25
10.91
11.04
11.10
10.29
7.54
1.81
-7.71
-21.01
-36.94
-53.44
-68.17
-79.48
-87.03
-91.83
-95.31
-98.35
-100.57
-100.45
-96.15
-86.66
-72.35
-54.80
-36.16
-18.30
-2.30
11.56
23.57
34.09
43.16
50.44
55.36
57.42
56.51
53.05
47.92
42.11
36.41
31.16
26.21
21.24
15.98
10.54
5.30
0.77
-2.70
-5.13
-6.87
-8.43
-10.27
-12.63
-15.43
-18.49
-21.73
-25.20
-29.03
-33.22
-37.25
-40.15
-40.72
-37.94
-31.47
-21.85
-10.28
1.71
12.80
22.11
29.32
34.48
37.80
39.59
40.15
39.84
38.95
37.74
36.29
34.65
32.79
30.72
28.61
26.64
25.02
23.76
22.75
21.62
20.02
17.69
14.45
10.43
5.83
1.04
-3.48
-7.25
-9.95
-11.45
-12.05
-12.43
-13.42
-15.65
-19.03
-22.63
-24.99
-24.58
-20.50
-12.70
-2.08
10.05
22.23
33.12
41.60
46.58
47.13
42.72
33.62
20.88
6.36
-7.87
-19.87
-28.16
-31.96
-31.16
-26.28
-18.40
-8.94
0.68
9.36
16.56
22.02
25.54
26.73
25.08
20.36
12.92
4.05
-4.48
-10.86
-13.99
-13.88
-11.43
-8.10
-5.29
-3.94
-4.39
-6.33
-8.81
-10.59
-10.34
-7.20
-1.12
7.05
15.81
23.46
28.63
30.73
29.80
26.44
21.43
15.44
9.21
3.42
-1.20
-4.14
-5.13
-4.40
-2.54
-0.29
1.64
2.90
3.46
3.53
3.36
3.06
2.65
2.14
1.61
1.14
0.87
0.72
0.45
-0.32
-1.90
-4.38
-7.56
-11.04
-14.50
-17.69
-20.59
-23.33
-26.03
-28.86
-31.98
-35.45
-39.22
-43.02
-46.24
-48.03
-47.54
-44.18
-37.94
-29.44
-19.84
-10.44
-2.35
3.89
8.38
11.65
14.29
16.61
18.42
19.15
18.21
15.34
10.93
5.86
1.26
-2.01
-3.61
-3.66
-2.60
-0.84
1.36
3.90
6.62
9.21
11.23
12.13
11.61
9.70
6.78
3.49
0.44
-1.95
-3.58
-4.63
-5.49
-6.64
-8.48
-11.17
-14.69
-18.71
-22.60
-25.52
-26.50
-24.76
-19.97
-12.45
-3.13
6.67
15.66
22.97
28.20
31.48
33.17
33.69
33.37
32.42
30.97
29.10
26.84
24.22
21.33
18.33
15.54
13.25
11.60
10.49
9.63
8.54
6.81
4.24
0.84
-3.13
-7.31
-11.33
-14.84
-17.62
-19.59
-20.90
-21.92
-23.26
-25.49
-28.87
-33.07
-37.13
-39.76
-39.80
-36.62
-30.52
-22.61
-14.38
-7.22
-1.94
1.34
3.08
3.85
4.21
4.23
3.66
2.01
-1.18
-6.12
-12.61
-20.00
-27.34
-33.62
-38.14
-40.84
-42.49
-44.59
-48.87
-56.54
-67.67
-80.69
-92.65
-99.90
-99.22
-89.06
-70.26
-45.98
-20.89
0.17
13.51
17.50
12.74
1.54
-12.81
-26.93
-37.68
-42.63
-40.30
-30.50
-14.55
4.80
23.97
39.52
49.19
52.38
50.20
44.82
38.71
33.95
31.93
33.48
38.94
48.14
60.20
73.42
85.44
93.86
96.98
94.31
86.72
75.92
63.75
51.56
40.07
29.50
19.92
11.46
4.23
-1.82
-7.12
-12.33
-18.15
-24.92
-32.37
-39.53
-44.96
-47.21
-45.22
-38.90
-29.17
-17.69
-6.34
3.41
10.95
16.48
20.60
23.88
26.44
28.05
28.42
27.51
25.67
23.45
21.37
19.61
18.02
16.31
14.31
12.24
10.62
10.25
11.80
15.58
21.37
28.40
35.45
41.25
44.69
45.11
42.34
36.63
28.47
18.53
7.63
-3.34
-13.44
-21.93
-28.40
-33.03
-36.36
-39.02
-41.31
-42.96
-43.18
-41.07
-36.06
-28.19
-18.24
-7.33
3.29
12.66
20.26
25.93
29.78
32.11
33.24
33.45
32.94
31.90
30.40
28.55
26.42
23.95
21.02
17.40
13.10
8.47
4.21
1.14
-0.22
0.05
1.14
1.86
1.13
-1.55
-5.93
-11.24
-16.63
-21.53
-25.90
-30.07
-34.49
-39.33
-44.44
-49.45
-53.98
-57.88
-61.17
-63.79
-65.35
-65.12
-62.38
-56.82
-48.61
-38.11
-25.17
-8.84
12.41
39.57
71.85
106.14
137.55
161.11
173.54
174.25
164.97
148.52
127.43
103.39
77.52
51.14
26.22
5.11
-10.27
-19.27
-22.77
-22.80
-21.55
-20.62
-20.54
-21.03
-21.46
-21.41
-20.84
-20.15
-19.95
-20.75
-22.75
-25.76
-29.22
-32.40
-34.66
-35.63
-35.45
-34.71
-34.33
-35.19
-37.86
-42.32
-47.95
-53.57
-57.70
-58.99
-56.50
-49.96
-39.93
-27.52
-14.23
-1.52
9.51
18.27
24.57
28.64
30.85
31.62
31.39
30.63
29.81
29.27
29.18
29.38
29.52
29.17
28.01
26.08
23.76
21.62
20.14
19.45
19.19
18.66
17.08
13.86
9.01
3.05
-3.15
-8.71
-13.05
-16.10
-18.24
-20.06
-22.19
-25.01
-28.68
-33.03
-37.55
-41.40
-43.47
-42.68
-38.31
-30.40
-19.78
-7.95
3.41
12.92
19.85
24.06
25.82
25.56
23.70
20.67
16.91
12.97
9.31
6.26
3.81
1.67
-0.47
-2.88
-5.55
-8.27
-10.70
-12.65
-14.21
-15.72
-17.70
-20.56
-24.50
-29.33
-34.57
-39.57
-43.84
-47.27
-50.08
-52.84
-56.21
-60.61
-66.01
-71.51
-75.39
-75.25
-68.72
-54.23
-31.91
-3.83
26.42
54.77
77.86
93.73
102.09
103.84
100.74
94.89
88.40
83.13
80.25
80.08
82.09
85.22
88.38
90.68
91.53
90.43
86.89
80.30
70.36
57.21
41.51
24.32
6.72
-10.14
-25.24
-37.52
-46.34
-51.61
-54.03
-54.87
-55.51
-56.88
-58.91
-60.71
-60.73
-57.67
-50.95
-40.98
-29.08
-16.79
-5.55
3.86
11.19
16.67
20.50
22.81
23.59
22.88
21.02
18.57
16.13
14.04
12.37
10.92
9.38
7.65
5.80
4.14
3.08
2.74
2.95
3.20
2.79
1.06
-2.25
-7.02
-12.70
-18.53
-23.90
-28.42
-32.16
-35.42
-38.78
-42.68
-47.32
-52.42
-57.12
-60.11
-59.85
-55.26
-46.13
-33.34
-18.65
-4.23
8.15
17.52
23.84
