1540584249.00
64.000000
-0.00
-0.00
-0.00
-0.00
-0.00
-0.00
-0.00
-0.00
-0.00
-0.00
0.00
0.01
0.01
-0.00
-0.03
-0.05
-0.05
0.00
0.13
0.36
0.66
1.01
1.37
1.72
2.06
2.40
2.79
3.24
3.80
4.42
5.06
5.66
6.20
6.68
7.15
7.68
8.31
9.14
10.09
11.04
11.88
12.56
13.14
13.76
14.65
15.96
17.91
20.32
22.90
25.38
27.58
29.57
31.68
34.32
37.81
42.54
48.15
54.10
59.83
64.97
69.58
74.14
79.34
85.71
93.76
103.00
112.62
121.73
129.77
136.75
143.30
150.75
157.77
166.64
177.95
191.79
206.97
220.57
228.25
225.36
208.53
176.87
132.76
80.05
23.07
-34.94
-92.44
-149.16
-205.23
-260.37
-313.74
-363.87
-409.83
-450.91
-486.50
-515.74
-537.23
-549.22
-549.96
-538.37
-514.21
-478.67
-433.88
-382.45
-327.02
-269.84
-212.63
-156.66
-102.95
-52.37
-5.90
35.58
71.43
101.35
125.50
144.38
158.69
169.15
176.37
180.75
182.57
182.07
179.51
175.23
169.65
163.18
156.15
148.81
141.30
133.69
126.02
118.33
110.69
103.16
95.80
88.68
81.83
75.25
68.95
62.95
57.25
51.86
46.78
42.03
37.59
33.45
29.61
26.07
22.81
19.83
17.11
14.67
12.48
10.54
8.83
7.35
6.07
4.97
4.05
3.27
2.62
2.09
1.65
1.30
1.01
0.79
0.61
0.47
0.37
0.29
0.23
0.19
0.16
0.14
0.14
0.15
0.16
0.18
0.21
0.24
0.28
0.32
0.36
0.40
0.45
0.49
0.54
0.59
0.65
0.70
0.76
0.82
0.89
0.97
1.06
1.15
1.26
1.38
1.51
1.66
1.82
2.01
2.22
2.45
2.70
2.98
3.29
3.62
4.00
4.40
4.84
5.31
5.83
6.38
6.97
7.60
8.27
8.99
9.76
10.57
11.42
12.32
13.26
14.26
15.33
16.45
17.64
18.88
20.15
21.40
22.57
23.58
24.31
24.65
24.47
23.68
22.19
19.99
17.09
13.58
9.55
5.20
0.73
-3.65
-7.73
-11.33
-14.32
-16.61
-18.16
-18.98
-19.14
-18.73
-17.87
-16.65
-15.19
-13.56
-11.82
-10.02
-8.20
-6.36
-4.59
-2.90
-1.26
0.37
2.05
3.80
5.65
7.59
9.66
11.74
13.77
15.80
17.89
20.11
22.54
25.22
28.17
31.45
34.78
38.09
41.40
44.82
48.49
52.48
56.79
61.32
66.05
70.47
74.40
78.00
81.54
85.36
89.68
94.39
99.20
103.79
107.24
109.11
109.45
108.54
106.60
103.37
97.75
87.55
74.71
59.23
41.32
21.65
1.18
-19.05
-38.41
-56.80
-74.54
-92.25
-111.35
-133.12
-158.45
-187.39
-218.34
-247.88
-271.20
-283.51
-281.75
-266.42
-240.96
-210.49
-180.02
-152.80
-129.91
-110.86
-94.63
-80.53
-68.65
-59.03
-51.24
-44.35
-37.26
-29.33
-20.58
-11.67
-3.60
2.67
6.78
8.98
9.99
10.65
11.57
12.95
14.54
15.81
16.17
15.26
13.01
9.64
5.57
1.29
-2.59
-5.42
-6.55
-5.43
-1.75
4.41
12.54
21.80
31.12
39.48
46.06
50.34
52.20
51.83
49.71
46.42
42.55
38.59
34.84
31.46
28.49
25.92
23.77
22.03
20.68
19.65
18.79
17.90
16.74
15.13
13.02
10.46
7.65
4.81
2.11
-0.42
-2.96
-5.86
-9.48
-14.06
-19.49
-25.17
-30.03
-32.74
-31.97
-26.87
-17.45
-4.73
9.47
22.88
33.43
39.81
41.75
40.00
35.99
31.36
27.46
25.07
24.31
24.79
25.80
26.51
26.15
24.06
19.82
13.35
5.02
-4.24
-13.06
-19.98
-23.81
-24.06
-21.16
-16.34
-11.32
-7.83
-7.15
-9.94
-16.07
-24.74
-34.65
-44.16
-51.50
-55.04
-53.64
-46.88
-35.29
-20.36
-4.20
10.96
23.24
31.63
36.01
37.06
35.87
33.54
30.94
28.56
26.64
25.18
24.18
23.59
23.36
23.36
23.35
23.02
22.01
20.09
17.18
13.43
9.18
4.86
0.83
-2.73
-5.84
-8.76
-11.80
-15.26
-19.27
-23.69
-28.07
-31.71
-33.71
-33.26
-29.78
-23.21
-14.01
-3.20
7.90
17.98
26.00
31.43
34.26
34.88
33.86
31.69
28.79
25.43
21.90
18.53
15.66
13.57
12.28
11.62
11.20
10.59
9.46
7.67
5.31
2.68
0.08
-2.20
-4.09
-5.77
-7.57
-9.95
-13.26
-17.63
-22.81
-28.17
-32.80
-35.71
-36.06
-33.35
-27.69
-19.69
-10.35
-0.82
7.94
15.29
20.95
24.86
26.98
27.27
25.72
22.51
18.12
13.29
8.87
5.58
3.72
3.13
3.29
3.57
3.44
2.68
1.36
-0.32
-2.13
-3.95
-5.80
-7.83
-10.19
-13.05
-16.52
-20.60
-25.21
-30.08
-34.72
-38.41
-40.29
-39.55
-35.64
-28.56
-18.94
-7.96
2.95
12.46
19.70
24.36
26.69
27.18
26.39
24.72
22.47
19.88
17.20
14.76
12.83
11.48
10.59
9.86
8.98
7.75
6.15
4.29
2.35
0.44
-1.41
-3.31
-5.44
-8.01
-11.23
-15.21
-19.93
-25.12
-30.18
-34.30
-36.45
-35.78
-31.79
-24.62
-15.04
-4.33
6.15
15.17
22.01
26.49
28.81
29.38
28.61
26.90
24.49
21.67
18.74
16.04
13.88
12.43
11.67
11.35
11.10
10.52
9.38
7.65
5.50
3.23
1.05
-0.99
-3.06
-5.39
-8.25
-11.76
-15.91
-20.57
-25.50
-30.30
-34.40
-37.04
-37.41
-34.88
-29.29
-21.09
-11.25
-1.08
8.22
15.79
21.29
24.78
26.50
26.76
25.83
23.96
21.46
18.70
16.09
13.98
12.58
11.89
11.76
11.85
11.80
11.27
10.09
8.22
5.81
3.13
0.38
-2.32
-4.98
-7.68
-10.51
-13.56
-16.89
-20.56
-24.63
-28.99
-33.23
-36.59
-38.03
-36.58
-31.68
-23.57
-13.23
-2.16
8.06
16.29
22.01
25.29
26.62
26.49
25.31
23.33
20.82
18.11
15.62
13.78
12.76
12.48
12.61
12.76
12.65
12.20
11.50
10.63
9.54
8.09
6.12
3.55
0.48
-2.90
-6.39
-9.86
-13.32
-16.82
-20.42
-24.14
-27.89
-31.41
-34.26
-35.83
-35.41
-32.41
-26.67
-18.59
-9.12
0.45
8.89
15.37
19.63
21.84
22.45
21.95
20.70
19.01
17.16
15.41
13.97
13.00
12.48
12.33
12.44
12.69
12.91
12.96
12.63
11.73
10.19
8.07
5.54
2.83
0.12
-2.50
-5.06
-7.67
-10.53
-13.85
-17.81
-22.44
-27.53
-32.60
-36.86
-39.42
-39.44
-36.42
-30.35
-21.77
-11.72
-1.42
7.90
15.34
20.44
23.14
23.79
22.95
21.27
19.34
17.60
16.26
15.34
14.77
14.48
14.39
14.44
14.53
14.45
13.94
12.78
10.86
8.28
5.33
2.31
-0.52
-3.05
-5.33
-7.46
-9.65
-12.08
-14.98
-18.52
-22.74
-27.42
-31.99
-35.57
-37.18
-36.02
-31.77
-24.70
-15.65
-5.77
3.77
12.03
18.37
22.60
24.80
25.29
24.51
22.95
21.03
19.17
17.65
16.62
16.12
16.00
16.02
15.91
15.48
14.70
13.66
12.50
11.28
9.94
8.27
6.06
3.21
-0.20
-3.91
-7.64
-11.20
-14.56
-17.92
-21.51
-25.44
-29.51
-33.20
-35.73
-36.29
-34.36
-29.84
-23.17
-15.24
-7.03
0.56
7.01
12.18
16.26
19.52
22.15
24.14
25.30
25.40
24.26
21.94
18.65
14.74
10.55
6.41
2.67
-0.30
-2.10
-2.50
-1.49
0.52
2.78
4.43
4.68
3.14
-0.25
-5.17
-11.18
-17.81
-24.52
-30.87
-36.37
-40.63
-43.37
-44.48
-44.00
-41.99
-38.49
-33.46
-26.95
-19.15
-10.60
-2.06
5.65
12.01
16.96
20.92
24.47
28.09
31.83
35.22
37.55
38.19
36.83
33.72
29.44
24.81
20.54
17.16
14.87
13.63
13.24
13.36
13.60
13.51
12.65
10.63
7.22
2.41
-3.55
-10.24
-17.14
-23.70
-29.40
-33.73
-36.17
-36.28
-33.85
-28.95
-22.11
-14.13
-5.99
1.43
7.54
12.11
15.17
16.92
17.64
17.56
16.83
15.58
13.90
11.98
10.00
8.24
6.86
5.93
5.33
4.84
4.23
3.37
2.28
1.09
-0.10
-1.28
-2.54
-4.07
-6.02
-8.50
-11.55
-15.18
-19.35
-23.82
-28.13
-31.55
-33.19
-32.29
-28.41
-21.69
-12.83
-2.90
6.88
15.45
22.08
26.46
28.67
29.03
28.02
26.11
23.72
21.13
18.61
16.39
14.62
13.39
12.60
11.95
11.02
9.48
7.22
4.44
1.58
-0.89
-2.74
-4.00
-5.06
-6.39
-8.44
-11.45
-15.47
-20.24
-25.34
-30.11
-33.69
-35.24
-34.04
-29.81
-22.82
-13.91
-4.29
4.86
12.61
18.53
22.60
25.07
26.23
26.34
25.55
24.01
21.89
19.47
17.04
14.83
12.95
11.42
10.12
8.93
7.71
6.33
4.72
2.81
0.62
-1.80
-4.32
-6.83
-9.30
-11.81
-14.57
-17.81
-21.66
-26.00
-30.35
-33.93
-35.78
-35.05
-31.29
-24.66
-15.90
-6.15
3.38
11.66
18.07
22.38
24.69
25.28
24.63
23.23
21.52
19.85
18.34
16.92
15.52
14.07
12.69
11.54
10.71
10.09
9.47
8.54
7.11
5.16
2.80
0.21
-2.48
-5.23
-8.02
-10.91
-13.94
-17.19
-20.75
-24.55
-28.32
-31.53
-33.44
-33.33
-30.76
-25.68
-18.52
-10.05
-1.18
7.18
14.32
19.76
23.26
24.82
24.65
23.12
20.72
17.98
15.36
13.18
11.60
10.59
10.00
9.69
9.55
9.52
9.52
9.42
9.03
8.15
6.69
4.72
2.47
0.20
-1.84
-3.62
-5.29
-7.13
-9.51
-12.68
-16.71
-21.34
-25.99
-29.85
-32.03
-31.84
-28.97
-23.65
-16.52
-8.52
-0.59
6.54
12.38
16.74
19.56
20.96
21.06
20.14
18.52
16.56
14.61
12.87
11.44
10.29
9.35
8.55
7.90
7.37
6.92
6.45
5.79
4.75
3.22
1.20
-1.19
-3.76
-6.33
-8.83
-11.32
-13.98
-17.06
-20.69
-24.81
-29.01
-32.64
-34.87
-34.92
-32.32
-27.07
-19.67
-11.06
-2.33
5.54
11.89
16.51
19.55
21.34
22.17
22.19
21.46
20.07
18.26
16.45
15.04
14.26
14.04
14.09
14.07
13.77
13.11
12.11
10.80
9.15
7.12
4.79
2.30
-0.17
-2.50
-4.77
-7.24
-10.28
-14.17
-19.02
-24.57
-30.10
-34.49
-36.38
-34.61
-28.67
-19.02
-7.15
4.74
14.44
20.36
22.02
20.17
16.41
12.61
10.26
10.07
11.92
15.06
18.50
21.37
23.06
23.30
22.07
19.49
15.91
11.82
7.83
4.57
2.50
1.77
2.14
3.07
3.86
3.88
2.73
0.30
-3.21
-7.45
-12.08
-16.77
-21.25
-25.18
-28.11
-29.52
-28.97
-26.24
-21.46
-15.15
-8.02
-0.85
5.74
11.29
15.50
18.23
19.42
19.21
17.86
15.83
13.61
11.62
10.12
9.15
8.58
8.25
8.04
7.93
7.94
8.02
8.00
7.63
6.67
5.01
2.72
0.08
-2.59
-5.05
-7.25
-9.33
-11.58
-14.25
-17.43
-20.94
-24.32
-26.99
-28.35
-27.97
-25.63
-21.46
-15.85
-9.42
-2.86
3.16
8.13
11.78
14.05
15.06
15.00
14.13
12.74
11.15
9.71
8.69
8.24
8.32
8.65
8.85
8.48
7.14
4.66
1.07
-3.26
-7.70
-11.47
-13.84
-14.41
-13.24
-10.99
-8.73
-7.72
-9.00
-13.06
-19.62
-27.58
-35.24
-40.76
-42.60
-39.97
-33.01
-22.75
-10.77
1.19
11.60
19.38
24.06
25.66
24.65
21.79
18.04
14.31
11.42
9.83
9.60
10.43
11.68
12.65
12.78
11.79
9.80
7.15
4.30
1.63
-0.68
-2.67
-4.56
-6.58
-8.90
-11.65
-14.82
-18.37
-22.06
-25.53
-28.20
-29.38
-28.49
-25.20
-19.62
-12.31
-4.18
3.73
10.51
15.64
19.00
20.83
21.55
21.57
21.18
20.48
19.49
18.23
16.75
15.18
13.67
12.35
11.23
10.25
9.27
8.13
6.73
5.11
3.41
1.77
0.27
-1.14
-2.67
-4.51
-6.87
-9.81
-13.29
-17.11
-20.94
-24.31
-26.62
-27.28
-25.83
-22.18
-16.62
-9.78
-2.48
4.49
10.53
15.25
18.49
20.24
20.64
19.94
18.55
16.91
15.44
14.38
13.79
13.49
13.25
12.84
12.17
11.30
10.36
9.43
8.49
7.42
6.04
4.23
2.08
-0.25
-2.52
-4.57
-6.44
-8.32
-10.53
-13.38
-17.04
-21.39
-26.01
-30.19
-33.09
-33.93
-32.25
-28.00
-21.68
-14.03
-5.97
1.73
8.51
14.03
18.11
20.69
21.81
21.68
20.59
18.96
17.16
15.49
14.11
13.03
12.17
11.45
10.79
10.18
9.64
9.21
8.85
8.45
7.85
6.83
5.29
3.22
0.79
-1.79
-4.26
-6.54
-8.71
-11.03
-13.80
-17.23
-21.24
-25.41
-29.03
-31.25
-31.37
-29.07
-24.46
-18.04
-10.62
-3.04
3.96
9.83
14.22
16.98
18.14
17.88
16.54
14.62
12.63
10.96
9.88
9.37
9.26
9.25
9.14
8.83
8.40
7.97
7.62
7.22
6.57
5.42
3.74
1.66
-0.53
-2.58
-4.42
-6.28
-8.50
-11.40
-15.10
-19.42
-23.95
-28.13
-31.34
-33.01
-32.67
-30.06
-25.28
-18.74
-11.15
-3.37
3.83
9.91
14.61
17.89
19.89
20.78
20.74
19.93
18.58
16.94
15.29
13.89
12.88
12.27
11.89
11.54
11.01
10.17
9.03
7.60
5.95
4.09
2.08
-0.09
-2.38
-4.78
-7.35
-10.21
-13.52
-17.33
-21.57
-25.84
-29.55
-31.97
-32.41
-30.42
-25.98
-19.48
-11.70
-3.59
3.90
10.07
14.58
17.44
18.91
19.34
19.07
18.32
17.23
15.93
14.55
13.27
12.24
11.52
11.04
10.66
10.18
9.51
8.62
7.46
6.01
4.17
1.84
-0.96
-4.06
-7.13
-9.84
-11.97
-13.58
-15.03
-16.89
-19.70
-23.73
-28.78
-34.09
-38.40
-40.25
-38.37
-32.08
-21.58
-8.01
6.79
20.68
31.61
38.08
39.43
35.86
28.46
18.99
9.57
2.25
-1.42
-0.74
3.91
11.17
19.03
25.33
28.32
27.09
21.84
13.75
4.63
-3.58
-9.35
-11.91
-11.41
-8.79
-5.48
-3.02
-2.69
-5.26
-10.78
-18.58
-27.35
-35.41
-41.00
-42.74
-39.95
-32.82
-22.43
-10.42
1.34
11.26
18.31
22.21
23.34
22.50
20.62
18.49
16.66
15.46
14.99
15.26
16.17
17.45
18.70
19.44
19.27
18.00
15.74
12.83
9.66
6.62
3.89
1.51
-0.60
-2.67
-4.98
-7.88
-11.66
-16.45
-22.03
-27.74
-32.64
-35.61
-35.77
-32.70
-26.62
-18.34
-9.00
0.21
8.34
14.82
19.48
22.40
23.81
24.01
23.27
21.82
19.92
17.85
15.87
14.24
13.12
12.52
12.33
12.34
12.33
12.17
11.72
10.91
9.70
8.03
5.93
3.47
0.81
-1.93
-4.68
-7.60
-10.95
-15.01
-19.87
-25.20
-30.26
-34.05
-35.54
-34.05
-29.42
-22.09
-12.99
-3.28
5.87
13.59
19.37
23.10
24.99
25.48
25.01
23.96
22.56
20.94
19.14
17.25
15.38
13.62
12.07
10.77
9.71
8.82
8.04
7.31
6.51
5.53
4.27
2.65
0.69
-1.54
-3.93
-6.37
-8.83
-11.39
-14.20
-17.42
-21.11
-25.11
-29.03
-32.16
-33.73
-32.98
-29.55
-23.51
-15.53
-6.64
2.00
9.43
15.09
18.86
20.94
21.66
21.37
20.32
18.78
16.97
15.16
13.57
12.30
11.38
10.72
10.25
9.88
9.56
9.19
8.64
7.73
6.32
4.38
1.99
-0.66
-3.37
-5.94
-8.37
-10.80
-13.49
-16.75
-20.75
-25.35
-30.09
-34.21
-36.80
-37.07
-34.54
-29.19
-21.51
-12.40
-2.97
5.70
12.80
17.93
21.05
22.44
22.48
21.62
20.24
18.67
17.21
16.03
15.27
14.90
14.80
14.84
14.84
14.70
14.30
13.61
12.55
11.14
9.40
7.40
5.25
2.96
0.46
-2.32
-5.49
-9.08
-13.11
-17.55
-22.31
-27.21
-31.85
-35.62
-37.74
-37.45
-34.31
-28.37
-20.26
-11.02
-1.75
6.55
13.31
18.30
21.58
23.33
23.82
23.33
22.15
20.64
19.08
17.66
16.42
15.30
14.24
13.29
12.52
12.05
11.86
11.76
11.43
10.56
8.96
6.62
3.67
0.31
-3.24
-6.82
-10.32
-13.69
-17.04
-20.55
-24.51
-29.12
-34.32
-39.66
-44.28
-47.06
-46.99
-43.52
-36.78
-27.65
-17.43
-7.56
0.92
7.51
12.29
15.68
18.16
20.03
21.38
22.20
22.48
22.33
21.94
21.47
21.03
20.59
20.01
19.14
17.81
15.99
13.78
11.45
9.32
7.69
6.64
5.98
5.30
4.08
1.90
-1.41
-5.83
-11.16
-17.12
-23.38
-29.43
-34.53
-37.76
-38.15
-35.07
-28.52
-19.17
-8.29
2.63
12.28
19.84
25.01
27.98
29.13
28.92
27.71
25.84
23.61
21.35
19.39
17.93
17.01
16.48
16.07
15.53
14.71
13.64
12.40
11.14
9.90
8.59
7.07
5.14
2.75
-0.07
-3.16
-6.43
-9.88
-13.64
-17.91
-22.68
-27.63
-32.00
-34.81
-35.11
-32.40
-26.73
-18.88
-9.93
-1.04
6.87
13.27
17.95
20.94
22.35
22.40
21.38
19.64
17.54
15.42
13.51
11.92
10.68
9.78
9.18
8.84
8.64
8.48
8.18
7.60
6.63
5.20
3.33
1.10
-1.34
-3.78
-6.10
-8.31
-10.62
-13.38
-16.90
-21.23
-26.01
-30.49
-33.68
-34.65
-32.82
-28.14
-21.09
-12.58
-3.71
4.52
11.38
16.45
19.69
21.23
21.37
20.41
18.67
16.49
14.22
12.13
10.38
9.03
7.99
7.16
6.48
5.94
5.51
5.10
4.54
3.63
2.25
0.40
-1.75
-3.95
-6.04
-7.96
-9.89
-12.10
-14.88
-18.39
-22.57
-27.00
-30.95
-33.50
-33.82
-31.40
-26.26
-19.03
-10.69
-2.37
5.06
11.10
15.66
18.84
20.77
21.46
20.91
19.23
16.74
13.97
11.50
9.75
8.82
8.50
8.44
8.28
7.82
7.07
6.08
4.97
3.74
2.37
0.79
-1.08
-3.25
-5.78
-8.72
-12.17
-16.19
-20.65
-25.16
-28.95
-31.10
-30.71
-27.36
-21.21
-13.13
-4.34
3.94
10.77
15.75
18.89
20.48
20.86
20.33
19.12
17.47
15.58
13.70
12.04
10.74
9.85
9.31
9.03
8.78
8.36
7.60
6.34
4.57
2.39
-0.01
-2.49
-4.92
-7.36
-9.93
-12.85
-16.24
-20.07
-24.05
-27.66
-30.25
-31.19
-30.00
-26.50
-20.79
-13.35
-4.88
3.74
11.63
18.02
22.46
24.82
25.30
24.31
22.34
19.87
17.27
14.83
12.76
11.15
9.95
9.05
8.29
7.52
6.66
5.62
4.39
2.85
0.95
-1.33
-3.91
-6.63
-9.29
-11.81
-14.26
-16.89
-19.94
-23.56
-27.50
-31.19
-33.79
-34.48
-32.76
-28.59
-22.47
-15.20
-7.69
-0.70
5.27
9.99
13.40
15.56
16.55
16.51
15.66
14.28
12.66
11.10
9.83
8.93
8.39
8.07
7.81
7.39
6.71
5.75
4.55
3.23
1.91
0.61
-0.73
-2.25
-4.04
-6.14
-8.57
-11.34
-14.54
-18.18
-22.14
-25.93
-28.77
-29.77
-28.22
-23.94
-17.40
-9.58
-1.66
5.36
10.88
14.75
17.15
18.34
18.58
18.02
16.80
15.07
13.06
11.02
9.23
7.88
7.04
6.65
6.54
6.45
6.12
5.38
4.19
2.60
0.78
-1.12
-3.05
-5.07
-7.35
-10.12
-13.52
-17.52
-21.87
-26.11
-29.58
-31.59
-31.60
-29.32
-24.77
-18.35
-10.70
-2.62
5.13
11.88
17.17
20.76
22.62
22.96
22.16
20.67
18.93
17.23
15.73
14.47
13.44
12.62
12.03
11.64
11.37
11.10
10.68
10.01
9.05
7.81
6.31
4.55
2.48
0.10
-2.62
-5.75
-9.41
-13.71
-18.56
-23.57
-27.93
-30.66
-30.88
-28.20
-22.84
-15.62
-7.63
0.14
6.93
12.38
16.36
18.90
20.10
20.15
19.32
17.95
16.40
14.94
13.73
12.79
12.09
11.58
11.24
11.07
11.01
10.95
10.70
10.06
8.91
7.24
5.17
2.81
0.31
-2.27
-4.97
-7.81
-10.92
-14.42
-18.40
-22.85
-27.48
-31.73
-34.73
-35.65
-33.90
-29.38
-22.61
-14.50
-6.15
1.50
7.82
12.53
15.69
17.51
18.30
18.38
17.98
17.29
16.44
15.51
14.60
13.81
13.23
12.94
12.95
13.19
13.50
13.64
13.38
12.52
10.95
8.72
6.00
3.04
0.09
-2.64
-5.13
-7.45
-9.87
-12.64
-15.99
-19.93
-24.14
-28.00
-30.69
-31.40
-29.58
-25.15
-18.61
-10.86
-2.99
4.04
9.59
13.46
15.79
16.92
17.18
16.86
16.16
15.21
14.15
13.15
12.36
11.88
11.73
11.82
11.94
11.90
11.53
10.74
9.55
8.02
6.27
4.31
2.18
-0.16
-2.65
-5.28
-8.01
-10.93
-14.18
-17.93
-22.17
-26.59
-30.55
-33.18
-33.62
-31.38
-26.50
-19.56
-11.54
-3.52
3.63
9.37
13.55
16.23
17.61
17.88
17.22
15.84
14.01
12.08
10.39
9.19
8.55
8.35
8.32
8.14
7.58
6.61
5.30
3.79
2.22
0.58
-1.23
-3.35
-5.90
-8.87
-12.19
-15.77
-19.57
-23.64
-27.95
-32.26
-35.99
-38.33
-38.47
-35.98
-31.02
-24.33
-16.95
-9.75
-3.32
2.17
6.63
9.91
11.65
11.56
9.68
6.60
3.42
1.36
1.35
3.77
8.45
15.01
22.92
31.53
39.95
47.00
51.50
52.63
50.43
45.91
40.77
36.82
35.29
36.30
38.72
40.59
39.73
34.73
25.56
13.84
2.41
-5.77
-8.74
-6.40
-0.47
6.38
11.70
14.11
13.56
10.94
7.23
3.02
-1.65
-6.97
-12.95
-19.30
-25.61
-31.69
-37.68
-43.94
-50.61
-57.27
-63.06
-67.15
-69.26
-69.98
-70.39
-71.38
-72.97
-73.94
-72.18
-65.17
-50.70
-27.21
5.86
47.73
95.87
145.78
191.46
226.45
245.49
245.97
228.38
195.85
152.88
104.07
53.29
3.64
-42.35
-82.44
-114.70
-137.82
-151.24
-155.15
-150.29
-137.80
-119.28
-96.93
-73.52
-51.99
-34.81
-23.40
-17.79
-16.84
-18.81
-21.89
-24.65
-26.24
-26.29
-24.85
-22.24
-19.01
-15.81
-13.19
-11.52
-10.93
-11.41
-12.88
-15.23
-18.31
-21.86
-25.26
-27.67
-28.05
-25.55
-19.82
-11.16
-0.51
10.82
21.46
30.39
37.01
41.10
42.75
42.20
39.85
36.23
31.95
27.68
23.94
21.01
18.92
17.49
16.53
15.90
15.60
15.70
16.13
16.71
17.07
16.89
15.90
14.12
11.68
8.85
5.82
2.72
-0.42
-3.65
-7.07
-10.78
-14.80
-18.97
-22.80
-25.56
-26.43
-24.75
-20.35
-13.63
-5.49
2.90
10.50
16.54
20.71
23.02
23.67
22.96
21.24
18.89
16.29
13.77
11.54
9.69
8.18
6.98
6.04
5.39
5.02
4.91
4.89
4.73
4.20
3.15
1.56
-0.43
-2.65
-4.93
-7.21
-9.57
-12.25
-15.51
-19.47
-23.99
-28.55
-32.31
-34.26
-33.63
-30.09
-23.97
-16.14
-7.81
-0.13
6.06
10.39
12.92
13.90
13.62
12.23
9.83
6.51
2.48
-1.88
-6.09
-9.80
-12.86
-15.44
-17.88
-20.42
-23.07
-25.52
-27.25
-27.75
-26.84
-24.67
-21.73
-18.65
-15.99
-14.08
-13.06
-12.91
-13.57
-15.01
-17.09
-19.58
-22.02
-23.74
-24.06
-22.48
-18.86
-13.49
-6.96
0.10
7.11
13.69
19.60
24.55
28.28
30.51
31.21
30.59
29.16
27.49
26.12
25.29
25.07
25.37
26.07
27.13
28.58
30.45
32.64
34.89
36.72
37.51
36.64
33.67
28.54
21.70
13.96
6.36
-0.04
-4.43
-6.33
-5.71
-2.96
1.16
5.60
9.28
11.29
11.16
8.94
5.13
0.46
-4.34
-8.76
-12.58
-15.79
-18.52
-20.89
-22.93
-24.67
-26.11
-27.31
-28.41
-29.57
-30.95
-32.63
-34.58
-36.72
-38.93
-41.08
-43.04
-44.74
-46.09
-47.08
-47.64
-47.62
-46.73
-44.47
-40.32
-33.91
-25.32
-15.17
-4.59
5.01
12.39
16.78
18.09
16.88
14.02
10.27
5.82
0.19
-7.64
-18.67
-33.32
-50.97
-69.93
-87.80
-102.12
-110.84
-112.89
-108.26
-98.02
-84.07
-68.89
-54.92
-44.05
-36.89
-32.59
-28.96
-23.36
-13.68
0.84
19.34
39.76
59.73
77.36
91.71
102.63
110.44
115.46
117.88
117.86
115.63
111.53
105.84
98.58
89.53
78.39
65.07
49.89
33.51
16.72
0.09
-16.28
-32.76
-50.03
-68.74
-89.16
-110.91
-132.79
-152.96
-169.31
-180.11
-184.55
-183.07
-177.26
-169.41
-161.69
-155.44
-150.74
-146.29
-139.91
-129.37
-113.33
-92.01
-67.45
-43.09
-22.88
-10.16
-6.76
-12.58
-25.81
-43.57
-62.74
-80.73
-95.71
-106.55
-112.49
-112.99
-107.69
-96.73
-81.00
-62.15
-42.18
-22.91
-5.58
9.15
20.92
29.34
33.88
34.34
31.34
26.57
22.57
21.91
26.32
36.05
49.86
65.48
80.37
92.39
100.21
103.43
102.38
97.90
91.03
82.73
73.75
64.52
55.12
45.47
35.37
24.79
14.03
3.72
-5.30
-12.21
-16.60
-18.69
-19.32
-19.82
-21.60
-25.62
-31.94
-39.41
-45.81
-48.33
-44.37
-32.33
-12.25
14.15
43.86
73.39
99.59
120.22
134.24
141.58
142.82
138.92
130.95
120.15
107.93
95.77
85.04
76.59
70.54
66.20
62.33
57.64
51.25
42.99
33.29
22.95
12.67
2.81
-6.86
-16.99
-28.50
-42.07
-57.74
-74.48
-90.15
-101.86
-106.82
-103.26
-91.11
-72.07
-49.08
-25.35
-3.46
15.05
29.65
40.34
47.29
50.66
50.75
48.14
43.74
38.55
33.33
28.31
23.23
17.59
11.06
3.71
-3.96
-11.21
-17.44
-22.41
-26.42
-30.16
-34.58
-40.53
-48.49
-58.13
-68.18
-76.46
-80.31
-77.27
-65.95
-46.49
-20.64
8.76
38.53
65.94
89.15
107.25
119.97
127.42
129.98
128.30
123.35
116.37
108.59
100.94
93.79
87.04
80.30
73.34
66.23
59.40
53.38
48.48
44.50
40.75
36.14
29.49
19.91
7.22
-7.81
-23.25
-36.36
-44.07
-43.85
-34.57
-16.89
6.77
33.00
58.40
80.42
97.83
110.55
119.07
123.91
125.30
123.36
118.35
111.04
102.64
94.43
87.27
81.35
76.15
70.93
65.12
58.69
52.07
45.86
40.47
35.81
31.30
26.01
18.95
9.36
-3.02
-17.63
-32.99
-46.69
-55.87
-57.93
-51.36
-36.31
-14.66
10.54
35.86
58.45
76.50
89.37
97.24
100.76
100.67
97.70
92.50
85.81
78.39
71.03
64.37
58.79
54.23
50.26
46.25
41.69
36.38
30.59
24.86
19.73
15.37
11.51
7.44
2.20
-5.08
-14.97
-27.43
-41.62
-55.83
-67.61
-74.32
-73.77
-65.04
-48.78
-27.12
-3.04
20.48
41.10
57.48
69.15
76.25
79.19
78.49
74.78
68.80
61.44
53.61
46.16
39.67
34.41
30.28
26.99
24.11
21.24
18.11
14.62
10.80
6.77
2.63
-1.64
-6.14
-11.12
-16.92
-23.96
-32.63
-43.07
-54.93
-67.08
-77.59
-84.02
-84.06
-76.35
-61.04
-39.95
-16.03
7.48
27.92
43.79
54.72
61.09
63.58
62.80
59.23
53.38
45.88
37.59
29.45
22.27
16.52
12.19
8.88
5.97
2.94
-0.48
-4.21
-7.97
-11.49
-14.66
-17.70
-21.05
-25.28
-30.90
-38.30
-47.55
-58.22
-69.25
-78.89
-84.96
-85.40
-78.89
-65.41
-46.34
-24.10
-1.46
19.14
36.14
48.87
57.30
61.76
62.63
60.34
55.45
48.72
41.09
33.51
26.73
21.12
16.67
13.03
9.72
6.33
2.67
-1.26
-5.26
-9.11
-12.70
-16.12
-19.66
-23.77
-28.94
-35.66
-44.19
-54.38
-65.42
-75.76
-83.29
-85.76
-81.51
-70.06
-52.43
-30.87
-8.29
12.63
29.94
42.78
51.11
55.42
56.31
54.35
50.01
43.86
36.60
29.01
21.88
15.75
10.86
7.08
4.06
1.37
-1.38
-4.46
-7.93
-11.71
-15.60
-19.42
-23.06
-26.60
-30.29
-34.47
-39.51
-45.78
-53.37
-62.05
-71.00
-78.72
-83.25
-82.61
-75.40
-61.42
-41.84
-18.98
4.31
25.34
42.22
54.05
60.83
63.22
62.17
58.68
53.63
47.69
41.38
35.06
29.03
23.51
18.73
14.86
11.93
9.85
8.40
7.21
5.93
4.22
1.85
-1.28
-5.13
-9.58
-14.45
-19.66
-25.18
-31.18
-37.97
-45.83
-54.79
-64.32
-73.14
-79.36
-80.90
-76.19
-64.73
-47.47
-26.59
-4.89
14.94
31.00
42.39
49.15
51.84
51.25
48.15
43.22
37.16
30.65
24.33
18.73
14.18
10.79
8.49
7.10
6.32
5.87
5.38
4.54
3.11
0.95
-1.94
-5.43
-9.36
-13.57
-18.02
-22.81
-28.23
-34.63
-42.30
-51.03
-60.01
-67.66
-71.97
-71.04
-63.76
-50.25
-32.02
-11.54
8.41
25.49
38.28
46.39
50.25
50.66
48.41
44.10
38.17
31.04
23.26
15.48
8.39
2.53
-1.89
-4.93
-6.91
-8.22
-9.25
-10.31
-11.60
-13.26
-15.36
-17.89
-20.79
-23.97
-27.43
-31.27
-35.82
-41.50
-48.63
-57.12
-66.23
-74.45
-79.85
-80.52
-75.29
-64.11
-48.15
-29.50
-10.56
6.66
20.83
31.46
38.61
42.64
43.96
42.91
39.85
35.22
29.58
23.61
17.95
13.05
9.11
6.01
3.43
0.99
-1.60
-4.44
-7.39
-10.22
-12.81
-15.22
-17.81
-21.08
-25.59
-31.71
-39.54
-48.70
-58.29
-66.88
-72.67
-73.90
-69.37
-58.84
-43.34
-24.90
-5.97
11.20
25.12
35.17
41.48
44.52
44.78
42.69
38.58
32.85
26.03
18.83
12.02
6.28
2.02
-0.68
-2.11
-2.86
-3.60
-4.84
-6.81
-9.43
-12.45
-15.64
-18.93
-22.49
-26.56
-31.40
-37.20
-44.07
-52.00
-60.75
-69.59
-77.19
-81.76
-81.46
-75.09
-62.59
-45.23
-25.32
-5.55
11.77
25.19
34.21
39.08
40.44
39.01
35.45
30.38
24.39
18.10
12.09
6.85
2.73
-0.12
-1.74
-2.33
-2.21
-1.82
-1.65
-2.12
-3.47
-5.77
-8.85
-12.48
-16.46
-20.71
-25.34
-30.58
-36.72
-44.00
-52.39
-61.35
-69.71
-75.68
-77.25
-72.76
-61.53
-44.24
-22.85
-0.09
21.32
39.26
52.61
61.21
65.51
66.29
64.32
60.36
55.08
49.15
43.15
37.60
32.85
29.08
26.31
24.50
23.50
23.09
22.91
22.47
21.26
18.94
15.40
10.88
5.75
0.41
-4.91
-10.24
-15.88
-22.24
-29.75
-38.60
-48.53
-58.63
-67.28
-72.48
-72.31
-65.65
-52.61
-34.68
-14.34
5.62
22.90
36.12
44.90
49.59
50.90
49.52
46.05
41.03
35.02
28.73
22.84
17.94
14.37
12.15
11.09
10.84
11.11
11.61
12.10
12.30
11.93
10.67
8.36
4.97
0.68
-4.16
-9.19
-14.19
-19.28
-24.86
-31.53
-39.67
-49.00
-58.32
-65.58
-68.45
-65.09
-54.92
-38.88
-19.20
1.30
20.07
35.42
46.66
53.90
57.62
58.33
56.44
52.32
46.41
39.32
31.79
24.66
18.63
14.13
11.27
9.81
9.33
9.26
9.11
8.51
7.27
5.37
2.88
-0.10
-3.51
-7.36
-11.77
-16.92
-23.06
-30.44
-39.10
-48.65
-58.07
-65.71
-69.55
-67.87
-59.81
-45.88
-27.87
-8.34
10.19
25.87
37.80
45.90
50.52
52.05
50.83
47.17
41.56
34.73
27.58
21.00
15.65
11.76
9.19
7.49
6.14
4.74
3.08
1.20
-0.75
-2.64
-4.51
-6.62
-9.42
-13.44
-19.13
-26.72
-36.00
-46.21
-55.95
-63.34
-66.40
-63.67
-54.75
-40.51
-22.93
-4.48
12.62
26.87
37.68
45.11
49.47
51.04
50.02
46.66
41.45
35.21
28.87
23.31
19.01
16.00
13.87
12.08
10.17
7.91
5.38
2.82
0.45
-1.68
-3.73
-6.06
-9.11
-13.33
-19.07
-26.51
-35.49
-45.31
-54.67
-61.81
-64.84
-62.30
-53.68
-39.70
-22.16
-3.49
13.94
28.39
39.00
45.70
48.95
49.39
47.64
44.19
39.54
34.22
28.81
23.93
20.04
17.34
15.77
15.00
14.55
13.98
12.94
11.24
8.86
5.91
2.53
-1.11
-4.97
-9.10
-13.70
-19.03
-25.40
-33.03
-41.84
-51.31
-60.29
-67.12
-69.89
-67.05
-58.01
-43.45
-25.22
-5.83
12.24
27.20
38.18
45.11
48.41
48.67
46.53
42.61
37.65
32.36
27.44
23.33
20.21
17.99
16.45
15.35
14.53
13.94
13.48
13.01
12.22
10.79
8.42
5.01
0.72
-4.10
-9.08
-13.98
-18.82
-23.95
-29.83
-36.84
-45.00
-53.63
-61.36
-66.30
-66.60
-61.05
-49.61
-33.53
-15.02
3.40
19.55
32.08
40.57
45.29
46.90
46.08
43.49
39.71
35.35
31.01
27.19
24.25
22.27
21.14
20.67
20.61
20.80
21.05
21.18
20.93
20.02
18.25
15.59
12.16
8.25
4.20
0.26
-3.45
-7.05
-10.91
-15.61
-21.66
-29.20
-37.71
-45.81
-51.62
-53.24
-49.48
-40.34
-27.12
-12.01
2.58
14.73
23.43
28.55
30.64
30.41
28.56
25.55
21.68
17.22
12.46
7.73
3.40
-0.27
-3.11
-5.09
-6.27
-6.78
-6.87
-6.87
-7.17
-8.11
-9.94
-12.67
-16.09
-19.88
-23.72
-27.49
-31.36
-35.77
-41.28
-48.24
-56.49
-65.05
-72.23
-75.98
-74.49
-66.88
-53.57
-36.25
-17.40
0.45
15.37
26.42
33.56
37.39
38.67
38.05
35.97
32.74
28.72
24.43
20.42
17.17
14.91
13.55
12.76
12.06
11.09
9.65
7.79
5.66
3.44
1.19
-1.22
-3.99
-7.39
-11.63
-16.90
-23.32
-30.87
-39.30
-47.93
-55.52
-60.40
-60.88
-55.81
-45.09
-29.88
-12.26
5.32
20.83
32.99
41.47
46.52
48.72
48.62
46.68
43.34
39.03
34.27
29.55
25.33
21.89
19.35
17.64
16.56
15.79
14.99
13.84
12.07
9.59
6.44
2.79
-1.11
-5.11
-9.16
-13.42
-18.18
-23.84
-30.73
-38.95
-48.11
-57.23
-64.68
-68.58
-67.28
-59.93
-46.88
-29.69
-10.70
7.59
23.19
34.98
42.75
46.88
48.10
47.11
44.54
40.92
36.76
32.54
28.64
25.34
22.71
20.70
19.21
18.14
17.44
17.03
16.74
16.27
15.18
13.08
9.75
5.27
-0.00
-5.61
-11.15
-16.44
-21.64
-27.15
-33.48
-40.96
-49.43
-58.11
-65.50
-69.75
-69.12
-62.61
-50.39
-33.83
-15.17
3.11
18.99
31.23
39.49
44.05
45.48
44.40
41.41
37.08
32.03
26.89
22.22
18.36
15.41
13.30
11.91
11.15
10.96
11.27
11.84
12.25
11.99
10.63
7.99
4.22
-0.28
-5.00
-9.60
-13.98
-18.36
-23.19
-29.00
-36.09
-44.28
-52.72
-59.82
-63.67
-62.53
-55.46
-42.81
-26.15
-7.89
9.45
23.91
34.48
41.07
44.19
44.59
42.93
39.70
35.32
30.25
25.05
20.29
16.41
13.65
11.93
10.97
10.37
9.79
8.98
7.82
6.24
4.22
1.67
-1.43
-5.08
-9.23
-13.79
-18.74
-24.21
-30.47
-37.83
-46.32
-55.42
-63.87
-69.80
-71.27
-66.89
-56.47
-41.14
-23.09
-4.87
11.36
24.27
33.53
39.47
42.69
43.74
42.99
40.66
37.02
32.53
27.78
23.45
20.10
17.98
16.99
16.75
16.75
16.58
15.97
14.85
13.26
11.23
8.75
5.81
2.39
-1.47
-5.77
-10.63
-16.32
-23.14
-31.16
-39.91
-48.18
-54.16
-55.94
-52.17
-42.61
-28.33
-11.35
5.89
21.27
33.39
41.72
46.39
47.91
46.95
44.17
40.18
35.56
30.75
26.16
22.04
18.55
15.82
13.89
12.73
12.18
11.92
11.56
10.71
9.10
6.69
3.59
-0.00
-3.91
-8.07
-12.54
-17.48
-23.09
-29.57
-36.99
-45.09
-53.07
-59.54
-62.79
-61.20
-53.94
-41.33
-24.89
-6.94
10.09
24.32
34.74
41.19
44.09
44.08
41.85
38.02
33.19
27.98
22.95
18.56
15.05
12.42
10.46
8.84
7.29
5.64
3.93
2.38
1.24
0.65
0.52
0.48
0.00
-1.39
-3.98
-7.76
-12.61
-18.42
-25.21
-32.92
-41.20
-49.02
-54.79
-56.69
-53.32
-44.31
-30.61
-14.24
2.35
17.06
28.58
36.57
41.33
43.40
43.24
41.16
37.37
32.25
26.31
20.29
14.90
10.71
7.94
6.48
5.94
5.79
5.51
4.78
3.41
1.43
-1.08
-3.96
-7.12
-10.55
-14.34
-18.68
-23.82
-30.05
-37.42
-45.59
-53.62
-60.01
-62.99
-61.13
-53.82
-41.61
-26.08
-9.38
6.42
19.83
30.11
37.20
41.39
43.00
42.31
39.62
35.33
30.08
24.60
19.67
15.82
13.24
11.74
10.92
10.27
9.44
8.22
6.63
4.79
2.81
0.72
-1.61
-4.36
-7.82
-12.30
-18.06
-25.20
-33.45
-42.01
-49.51
-54.18
-54.27
-48.69
-37.44
-21.75
-3.80
13.95
29.46
41.51
49.83
54.80
57.03
57.16
55.69
53.08
49.84
46.49
43.49
41.17
39.66
38.91
38.75
39.01
39.52
40.09
40.56
40.81
40.73
40.30
39.58
38.73
37.87
37.15
36.55
35.92
34.95
33.25
30.61
27.24
24.00
22.36
24.07
30.65
42.73
59.56
78.99
97.82
112.78
121.36
122.57
117.04
106.61
93.55
79.86
66.78
54.85
44.04
34.07
24.56
15.03
5.02
-5.79
-17.33
-29.04
-39.92
-48.96
-55.45
-59.35
-61.19
-61.82
-62.04
-62.33
-62.86
-63.61
-64.62
-66.00
-67.98
-70.72
-74.32
-78.73
-83.86
-89.54
-95.39
-100.67
-104.26
-104.88
-101.46
-93.66
-82.14
-68.46
-54.68
-42.70
-33.73
-28.08
-25.18
-24.02
-23.57
-23.15
-22.50
-21.75
-21.11
-20.72
-20.48
-20.10
-19.28
-17.86
-15.86
-13.50
-11.08
-8.86
-7.01
-5.62
-4.71
-4.28
-4.30
-4.81
-5.82
-7.39
-9.66
-12.75
-16.76
-21.63
-27.01
-32.16
-36.00
-37.28
-35.02
-28.84
-19.21
-7.36
5.07
16.55
26.01
33.01
37.63
40.20
41.02
40.25
37.95
34.30
29.60
24.34
19.09
14.36
10.38
7.17
4.47
1.94
-0.71
-3.62
-6.76
-9.89
-12.79
-15.29
-17.37
-19.17
-20.94
-23.00
-25.61
-29.05
-33.41
-38.55
-43.92
-48.50
-51.00
-50.18
-45.35
-36.67
-25.22
-12.63
-0.56
9.78
17.84
23.71
27.72
30.25
31.48
31.47
30.25
27.98
24.99
21.75
18.70
16.12
14.03
12.21
10.32
8.04
5.30
2.27
-0.78
-3.56
-5.96
-8.12
-10.33
-12.94
-16.23
-20.37
-25.37
-30.97
-36.61
-41.34
-43.93
-43.25
-38.60
-30.10
-18.73
-6.08
6.16
16.65
24.68
30.21
33.55
35.13
35.30
34.31
32.37
29.76
26.87
24.05
21.60
19.63
18.08
16.74
15.32
13.58
11.34
8.60
5.46
2.19
-0.93
-3.73
-6.25
-8.72
-11.54
-15.06
-19.52
-24.97
-31.22
-37.77
-43.82
-48.32
-50.07
-48.13
-42.11
-32.43
-20.25
-7.16
5.30
15.96
24.26
30.14
33.84
35.71
36.14
35.51
34.16
32.41
30.46
28.43
26.33
24.14
21.85
19.51
17.26
15.27
13.72
12.71
12.15
11.77
11.17
9.93
7.84
4.96
1.60
-1.87
-5.13
-8.15
-11.08
-14.17
-17.73
-21.93
-26.90
-32.57
-38.64
-44.55
-49.59
-53.00
-54.33
-53.60
-51.27
-48.06
-44.65
-41.52
-38.86
-36.72
-35.15
-34.22
-33.90
-33.97
-33.97
-33.32
-31.54
-28.49
-24.45
-20.08
-16.13
-13.17
-11.41
-10.65
-10.47
-10.48
-10.50
-10.73
-11.69
-14.09
-18.54
-25.32
-34.10
-43.89
-53.12
-59.93
-62.71
-60.50
-53.32
-42.15
-28.64
-14.59
-1.56
9.41
17.87
23.74
27.23
28.57
28.10
26.20
23.38
20.27
17.53
15.65
14.87
15.04
15.71
16.32
16.34
15.50
13.77
11.33
8.50
5.50
2.47
-0.69
-4.21
-8.46
-13.83
-20.64
-28.87
-37.95
-46.67
-53.27
-55.89
-53.14
-44.63
-31.25
-14.87
2.21
17.98
31.11
41.19
48.33
52.93
55.30
55.67
54.26
51.48
47.90
44.20
40.96
38.55
36.99
36.05
35.30
34.25
32.56
30.07
26.88
23.32
19.73
16.35
13.10
9.67
5.56
0.32
-6.32
-14.37
-23.48
-32.90
-41.40
-47.40
-49.22
-45.58
-36.12
-21.64
-3.95
14.55
31.63
45.68
55.95
62.44
65.64
66.19
64.76
61.95
58.31
54.26
50.18
46.36
43.04
40.36
38.36
36.94
35.86
34.77
33.38
31.44
28.84
25.56
21.64
17.17
12.30
7.20
2.10
-2.92
-7.97
-13.42
-19.83
-27.59
-36.56
-45.77
-53.48
-57.51
-55.96
-47.88
-33.74
-15.31
4.77
23.83
39.76
51.46
58.76
62.17
62.49
60.56
57.14
52.89
48.39
44.13
40.47
37.54
35.27
33.45
31.88
30.47
29.19
28.09
27.09
25.95
24.32
21.83
18.32
13.87
8.83
3.67
-1.19
-5.65
-9.97
-14.77
-20.77
-28.43
-37.52
-46.95
-54.79
-58.90
-57.55
-50.10
-37.28
-20.99
-3.72
12.25
25.28
34.72
40.59
43.33
43.46
41.38
37.46
32.12
25.92
19.64
14.13
10.09
7.88
7.40
8.08
9.14
9.82
9.61
8.37
6.26
3.58
0.60
-2.56
-5.97
-9.83
-14.41
-19.99
-26.87
-35.17
-44.62
-54.37
-62.91
-68.33
-68.81
-63.30
-51.98
-36.28
-18.50
-1.09
13.99
25.69
33.79
38.59
40.56
40.07
37.47
33.17
27.81
22.22
17.28
13.64
11.55
10.82
10.92
11.20
11.13
10.47
9.29
7.81
6.26
4.69
2.93
0.69
-2.42
-6.75
-12.55
-19.89
-28.49
-37.49
-45.46
-50.54
-51.03
-45.88
-35.26
-20.54
-3.91
12.32
26.30
36.99
44.20
48.24
49.63
48.90
46.47
42.73
38.07
32.99
28.06
23.85
20.78
18.96
18.15
17.83
17.45
16.61
15.23
13.45
11.48
9.39
7.03
4.17
0.62
-3.66
-8.60
-14.20
-20.58
-27.88
-35.90
-43.80
-50.02
-52.62
-49.99
-41.55
-28.13
-11.77
4.94
19.69
31.05
38.62
42.76
44.10
43.24
40.56
36.38
31.12
25.33
19.69
14.84
11.25
9.12
8.35
8.56
9.17
9.59
9.35
8.21
6.21
3.54
0.46
-2.85
-6.31
-9.95
-13.80
-18.00
-22.77
-28.46
-35.25
-42.92
-50.54
-56.44
-58.65
-55.55
-46.61
-32.68
-15.83
1.31
16.37
27.84
35.27
39.05
39.93
38.67
35.79
31.68
26.70
21.29
16.00
11.36
7.73
5.24
3.78
3.04
2.69
2.37
1.78
0.64
-1.14
-3.63
-6.69
-10.11
-13.72
-17.44
-21.30
-25.46
-30.18
-35.75
-42.36
-49.86
-57.50
-63.86
-67.07
-65.40
-57.97
-45.23
-28.92
-11.58
4.29
16.95
25.72
30.85
33.06
33.14
31.63
28.89
25.17
20.83
16.34
12.26
9.05
6.96
5.88
5.43
5.07
4.35
3.04
1.22
-0.81
-2.75
-4.45
-6.00
-7.70
-9.96
-13.11
-17.34
-22.66
-28.81
-35.21
-40.89
-44.55
-44.80
-40.63
-31.83
-19.25
-4.69
9.63
21.80
30.67
36.13
38.77
39.44
38.84
37.28
34.80
31.42
27.29
22.76
18.29
14.23
10.71
7.65
4.82
1.99
-0.91
-3.79
-6.41
-8.55
-10.12
-11.29
-12.46
-14.13
-16.81
-20.86
-26.48
-33.61
-41.81
-50.15
-57.18
-61.17
-60.54
-54.48
-43.33
-28.62
-12.62
2.34
14.57
23.31
28.71
31.42
32.20
31.63
29.99
27.46
24.19
20.51
16.88
13.83
11.74
10.75
10.63
10.96
11.23
11.07
10.30
8.97
7.24
5.26
3.09
0.67
-2.14
-5.47
-9.43
-14.10
-19.53
-25.78
-32.77
-40.12
-46.92
-51.70
-52.78
-48.81
-39.36
-25.28
-8.52
8.46
23.46
35.08
42.85
47.06
48.30
47.22
44.37
40.29
35.57
30.87
26.86
24.06
22.77
22.92
24.07
25.49
26.33
25.88
23.73
19.88
14.61
8.31
1.40
-5.79
-12.92
-19.60
-25.41
-30.06
-33.56
-36.31
-39.04
-42.59
-47.60
-54.09
-61.28
-67.55
-70.85
-69.29
-61.86
-48.92
-32.11
-13.94
3.11
17.21
27.59
34.34
38.04
39.30
38.65
36.42
33.03
28.94
24.70
20.74
17.38
14.72
12.76
11.46
10.75
10.51
10.53
10.48
9.96
8.64
6.31
3.02
-1.00
-5.38
-9.76
-13.94
-17.94
-22.00
-26.61
-32.29
-39.37
-47.67
-56.27
-63.51
-67.34
-65.98
-58.56
-45.57
-28.78
-10.75
5.98
19.57
29.20
34.98
37.58
37.83
36.39
33.75
30.32
26.47
22.64
19.19
16.41
14.42
13.21
12.65
12.58
12.74
12.84
12.54
11.56
9.74
7.10
3.84
0.24
-3.46
-7.16
-10.88
-14.79
-19.21
-24.47
-30.87
-38.33
-46.22
-53.19
-57.42
-57.15
-51.36
-40.21
-25.13
-8.34
7.81
21.53
31.88
38.75
42.51
43.70
42.90
40.63
37.46
33.95
30.57
27.60
25.15
23.12
21.41
19.97
18.89
18.28
18.19
18.47
18.71
18.36
16.93
14.19
10.26
5.60
0.77
-3.76
-7.86
-11.72
-15.79
-20.65
-26.74
-34.22
-42.74
-51.27
-58.18
-61.59
-59.90
-52.37
-39.61
-23.36
-6.06
9.98
23.17
32.87
39.21
42.69
43.82
43.00
40.61
37.14
33.26
29.61
26.63
24.43
22.78
21.33
19.84
18.35
17.12
16.42
16.32
16.52
16.44
15.47
13.20
9.62
5.07
0.12
-4.75
-9.24
-13.33
-17.29
-21.54
-26.65
-33.05
-40.87
-49.55
-57.77
-63.61
-65.10
-60.93
-50.98
-36.49
-19.67
-2.94
11.73
23.24
31.33
36.25
38.46
38.42
36.64
33.68
30.21
26.85
24.05
21.94
20.41
19.19
18.09
17.06
16.19
15.67
15.56
15.75
15.90
15.52
14.13
11.43
7.47
2.62
-2.53
-7.45
-11.79
-15.61
-19.33
-23.59
-29.03
-35.98
-44.20
-52.69
-59.76
-63.46
-62.15
-55.06
-42.70
-26.71
-9.39
6.97
20.67
30.86
37.48
40.89
41.61
40.17
37.10
32.96
28.39
23.97
20.10
17.00
14.61
12.78
11.34
10.21
9.43
9.05
9.01
9.09
8.87
7.90
5.83
2.61
-1.53
-6.11
-10.63
-14.75
-18.45
-22.05
-26.13
-31.30
-37.97
-46.06
-54.75
-62.51
-67.36
-67.39
-61.51
-49.84
-33.81
-15.76
1.78
16.82
28.27
35.98
40.43
42.30
42.22
40.68
38.08
34.74
31.05
27.34
23.95
21.13
19.02
17.71
17.17
17.30
17.85
18.50
18.79
18.26
16.55
13.56
9.46
4.65
-0.37
-5.23
-9.79
-14.25
-19.08
-24.85
-31.97
-40.32
-49.02
-56.39
-60.33
-59.02
-51.61
-38.65
-22.05
-4.41
11.78
24.85
34.15
39.87
42.60
42.99
41.59
38.88
35.43
31.81
28.54
25.82
23.59
21.57
19.42
17.04
14.59
12.46
10.99
10.29
10.05
9.67
8.42
5.80
1.72
-3.43
-8.96
-14.19
-18.69
-22.45
-25.88
-29.68
-34.57
-41.03
-48.93
-57.33
-64.49
-68.26
-66.74
-59.04
-45.65
-28.46
-10.06
6.98
20.90
30.95
37.31
40.63
41.63
40.92
38.96
36.13
32.83
29.42
26.16
23.22
20.67
18.58
16.99
15.94
15.42
15.25
15.17
14.79
13.78
11.89
9.05
5.38
1.14
-3.33
-7.79
-12.15
-16.65
-21.71
-27.79
-35.04
-42.88
-50.00
-54.47
-54.41
-48.65
-37.31
-21.89
-4.74
11.61
25.22
35.14
41.36
44.45
45.15
44.07
41.64
38.24
34.20
29.93
25.79
22.04
18.87
16.35
14.45
13.15
12.36
11.95
11.71
11.34
10.51
8.94
6.38
2.75
-1.86
-7.26
-13.16
-19.30
-25.53
-31.95
-38.79
-46.17
-53.76
-60.53
-64.79
-64.70
-59.00
-47.70
-32.23
-15.05
1.16
14.39
23.74
29.41
32.21
33.03
32.50
30.86
28.20
24.65
20.54
16.40
12.81
10.27
9.00
8.88
9.46
10.17
10.49
10.07
8.84
6.94
4.54
1.77
-1.33
-4.79
-8.63
-12.84
-17.46
-22.65
-28.66
-35.69
-43.47
-50.94
-56.37
-57.71
-53.47
-43.37
-28.66
-11.70
4.78
18.60
28.60
34.68
37.43
37.65
36.05
33.18
29.47
25.36
21.22
17.39
14.10
11.51
9.70
8.70
8.45
8.73
9.21
9.44
9.10
7.98
6.11
3.66
0.87
-2.10
-5.23
-8.64
-12.54
-17.16
-22.77
-29.53
-37.31
-45.53
-52.93
-57.75
-58.18
-53.00
-42.19
-27.05
-9.88
6.76
20.81
31.17
37.71
40.99
41.79
40.88
38.80
35.96
32.66
29.14
25.64
22.43
19.80
18.00
17.15
17.12
17.55
17.89
17.60
16.36
14.12
11.09
7.54
3.77
-0.09
-4.01
-8.06
-12.42
-17.35
-23.17
-30.12
-38.03
-46.12
-52.89
-56.46
-55.12
-48.10
-35.89
-20.27
-3.69
11.50
23.68
32.26
37.43
39.88
40.22
38.95
36.36
32.77
28.59
24.34
20.50
17.40
15.19
13.80
13.10
12.98
13.30
13.90
14.51
14.78
14.33
12.93
10.52
7.26
3.42
-0.70
-4.97
-9.35
-13.98
-19.18
-25.32
-32.65
-40.94
-49.30
-56.11
-59.39
-57.44
-49.58
-36.56
-20.36
-3.60
11.31
22.82
30.48
34.70
36.27
35.92
34.15
31.31
27.66
23.54
19.35
15.50
12.31
9.96
8.45
7.65
7.30
7.05
6.55
5.51
3.81
1.46
-1.42
-4.72
-8.37
-12.40
-16.84
-21.67
-26.88
-32.52
-38.71
-45.48
-52.47
-58.74
-62.78
-62.99
-58.29
-48.73
-35.62
-21.11
-7.46
3.73
11.87
17.25
20.57
22.44
23.12
22.59
20.83
17.99
14.59
11.26
8.62
7.00
6.39
6.45
6.73
6.77
6.28
5.17
3.52
1.52
-0.65
-2.88
-5.15
-7.52
-10.15
-13.28
-17.23
-22.31
-28.54
-35.42
-41.78
-45.88
-45.95
-40.83
-30.57
-16.46
-0.74
14.22
26.63
35.66
41.44
44.58
45.75
45.37
43.63
40.65
36.70
32.29
27.98
24.34
21.66
19.97
19.05
18.55
18.08
17.35
16.16
14.46
12.25
9.58
6.50
3.00
-0.86
-5.11
-9.79
-15.09
-21.26
-28.56
-36.87
-45.44
-52.82
-57.07
-56.43
-50.05
-38.39
-23.25
-7.07
7.79
19.76
28.30
33.72
36.64
37.68
37.23
35.50
32.75
29.35
25.83
22.71
20.35
18.88
18.21
18.09
18.21
18.29
18.06
17.32
15.91
13.83
11.13
8.04
4.79
1.56
-1.62
-4.98
-8.87
-13.81
-20.24
-28.26
-37.36
-46.24
-53.02
-55.63
-52.62
-43.72
-30.12
-14.08
1.76
15.22
25.15
31.44
34.69
35.73
35.23
33.60
31.11
28.02
24.64
21.32
18.33
15.84
13.89
12.42
11.30
10.36
9.41
8.24
6.70
4.64
2.05
-1.03
-4.47
-8.17
-12.04
-16.06
-20.33
-25.10
-30.74
-37.53
-45.39
-53.56
-60.58
-64.52
-63.64
-57.09
-45.32
-30.06
-13.73
1.34
13.56
22.36
27.96
31.01
32.09
31.60
29.78
26.86
23.21
19.37
15.95
13.41
11.98
11.55
11.74
12.03
11.96
11.23
9.81
7.84
5.51
2.98
0.25
-2.82
-6.41
-10.64
-15.65
-21.53
-28.42
-36.40
-45.13
-53.65
-60.30
-63.09
-60.37
-51.58
-37.60
-20.59
-3.25
12.10
24.04
32.28
37.31
39.90
40.67
39.98
37.98
34.87
31.05
27.09
23.62
21.16
19.89
19.61
19.85
20.03
19.63
18.43
16.44
13.90
11.05
8.10
5.09
1.97
-1.39
-5.17
-9.54
-14.78
-21.18
-28.90
-37.70
-46.61
-53.95
-57.66
-55.96
-48.05
-34.60
-17.55
0.46
16.91
30.10
39.37
44.95
47.54
47.92
46.73
44.44
41.40
37.93
34.29
30.73
27.46
24.63
22.38
20.73
19.62
18.84
18.02
16.76
14.72
11.75
7.91
3.49
-1.17
-5.77
-10.17
-14.44
-18.82
-23.67
-29.42
-36.37
-44.38
-52.68
-59.73
-63.53
-62.25
-54.91
-41.96
-25.20
-7.28
9.23
22.57
32.05
37.92
40.89
41.68
40.83
38.73
35.73
32.24
28.70
25.46
22.76
20.67
19.15
18.10
17.36
16.75
16.06
15.10
13.65
11.53
8.68
5.12
1.04
-3.32
-7.68
-11.94
-16.23
-20.95
-26.65
-33.68
-41.87
-50.24
-57.06
-60.23
-58.01
-49.70
-35.99
-18.88
-1.04
15.06
27.74
36.47
41.60
44.01
44.57
43.88
42.29
39.99
37.16
34.06
30.97
28.15
25.82
24.16
23.34
23.46
24.48
26.09
27.76
28.78
28.45
26.22
21.93
15.71
8.02
-0.62
-9.71
-18.99
-28.45
-38.25
-48.43
-58.51
-67.40
-73.36
-74.59
-69.80
-58.91
-43.21
-25.08
-7.27
7.95
19.28
26.52
30.28
31.46
30.85
29.04
26.40
23.31
20.14
17.26
14.92
13.14
11.79
10.67
9.64
8.68
7.76
6.82
5.72
4.25
2.31
-0.11
-2.83
-5.66
-8.48
-11.27
-14.21
-17.61
-21.91
-27.50
-34.39
-42.02
-49.04
-53.60
-53.85
-48.62
-37.97
-23.27
-6.77
9.11
22.48
32.41
38.82
42.30
43.57
43.28
41.83
39.49
36.43
32.90
29.16
25.58
22.44
19.93
18.05
16.70
15.59
14.44
13.05
11.28
9.13
6.64
3.82
0.64
-3.01
-7.29
-12.36
-18.36
-25.39
-33.39
-41.99
-50.35
-57.09
-60.51
-59.10
-52.15
-40.16
-24.80
-8.49
6.41
18.19
26.17
30.55
32.10
31.70
30.10
27.81
25.15
22.36
19.61
17.04
14.71
12.68
10.95
9.51
8.32
7.28
6.20
4.90
3.20
0.99
-1.70
-4.79
-8.12
-11.55
-15.00
-18.47
-22.10
-26.21
-31.16
-37.26
-44.38
-51.71
-57.71
-60.41
-58.08
-49.92
-36.57
-19.93
-2.57
13.10
25.47
34.06
39.18
41.57
41.96
40.93
38.94
36.42
33.83
31.52
29.65
28.15
26.79
25.32
23.65
21.83
20.04
18.43
16.98
15.49
13.63
11.08
7.66
3.47
-1.14
-5.71
-9.88
-13.58
-17.06
-20.89
-25.73
-32.03
-39.63
-47.62
-54.35
-57.81
-56.30
-49.03
-36.56
-20.71
-3.98
11.23
23.27
31.59
36.51
38.75
39.05
37.88
35.57
32.40
28.79
25.21
22.04
19.47
17.38
15.56
13.80
12.03
10.34
8.83
7.49
6.13
4.44
2.10
-1.03
-4.88
-9.14
-13.41
-17.39
-20.99
-24.41
-28.16
-32.82
-38.83
-46.13
-53.96
-60.79
-64.61
-63.58
-56.72
-44.37
-28.25
-10.88
5.19
18.14
27.24
32.73
35.43
36.16
35.54
33.95
31.64
28.90
26.02
23.25
20.71
18.39
16.19
14.08
12.11
10.36
8.91
7.67
6.40
4.77
2.53
-0.41
-3.91
-7.70
-11.45
-14.96
-18.24
-21.54
-25.36
-30.26
-36.61
-44.24
-52.16
-58.64
-61.57
-59.23
-50.97
-37.60
-21.12
-4.05
11.35
23.72
32.61
38.30
41.31
42.16
41.29
39.17
36.31
33.25
30.37
27.83
25.52
23.23
20.79
18.20
15.68
13.51
11.96
11.05
10.52
9.86
8.52
6.07
2.47
-1.97
-6.71
-11.20
-15.16
-18.67
-22.13
-26.15
-31.31
-37.87
-45.48
-53.08
-58.96
-61.19
-58.26
-49.64
-36.15
-19.71
-2.77
12.49
24.65
33.31
38.74
41.56
42.33
41.50
39.44
36.62
33.54
30.64
28.22
26.25
24.56
22.88
21.07
19.20
17.47
16.08
15.02
14.05
12.76
10.69
7.62
3.58
-1.08
-5.88
-10.39
-14.35
-17.81
-21.10
-24.73
-29.27
-35.06
-41.97
-49.12
-54.94
-57.53
-55.28
-47.55
-35.03
-19.58
-3.60
10.73
22.10
30.19
35.40
38.35
39.51
39.16
37.48
34.81
31.66
28.62
26.11
24.25
22.86
21.63
20.30
18.85
17.42
16.21
15.28
14.46
13.38
11.67
9.10
5.75
1.91
-2.08
-5.92
-9.60
-13.29
-17.39
-22.33
-28.44
-35.71
-43.58
-50.82
-55.78
-56.69
-52.40
-42.85
-29.19
-13.50
1.90
15.11
25.15
31.84
35.62
37.10
36.83
35.21
32.57
29.23
25.56
21.87
18.45
15.47
13.04
11.16
9.76
8.62
7.47
5.98
3.94
1.24
-2.02
-5.62
-9.28
-12.75
-15.94
-18.85
-21.66
-24.65
-28.22
-32.74
-38.44
-45.16
-52.14
-57.97
-60.90
-59.35
-52.50
-40.70
-25.43
-8.89
6.72
19.79
29.59
36.19
40.12
41.99
42.26
41.18
38.88
35.54
31.42
26.87
22.32
18.14
14.63
11.89
9.84
8.23
6.73
5.02
2.91
0.36
-2.54
-5.63
-8.83
-12.07
-15.39
-18.89
-22.75
-27.20
-32.53
-38.91
-46.13
-53.43
-59.42
-62.34
-60.69
-53.76
-42.01
-27.06
-11.10
3.75
16.02
25.13
31.21
34.73
36.21
36.04
34.58
32.21
29.40
26.63
24.18
22.16
20.44
18.83
17.18
15.50
13.92
12.59
11.55
10.67
9.61
8.00
5.48
1.96
-2.43
-7.28
-12.11
-16.55
-20.44
-23.96
-27.58
-31.86
-37.30
-43.96
-51.31
-58.09
-62.57
-62.98
-58.12
-47.88
-33.38
-16.74
-0.34
13.85
24.76
32.30
37.01
39.62
40.71
40.58
39.42
37.49
35.14
32.73
30.53
28.56
26.67
24.66
22.48
20.32
18.46
17.16
16.42
15.91
15.09
13.44
10.65
6.81
2.32
-2.30
-6.62
-10.48
-14.02
-17.59
-21.62
-26.49
-32.32
-38.78
-44.98
-49.49
-50.68
-47.27
-38.81
-26.05
-10.76
4.81
18.58
29.22
36.28
40.05
41.15
40.24
37.88
34.50
30.52
26.35
22.37
18.82
15.87
13.55
11.85
10.66
9.86
9.24
8.53
7.43
5.67
3.09
-0.28
-4.29
-8.62
-13.03
-17.32
-21.53
-25.82
-30.45
-35.75
-41.94
-48.95
-56.22
-62.63
-66.54
-66.32
-60.91
-50.33
-35.84
-19.57
-3.82
9.66
20.05
27.37
32.17
35.02
36.36
36.36
35.17
32.94
29.88
26.25
22.29
18.29
14.50
11.23
8.62
6.68
5.17
3.71
1.94
-0.37
-3.24
-6.49
-9.86
-13.14
-16.26
-19.32
-22.61
-26.53
-31.48
-37.72
-45.03
-52.60
-58.94
-62.16
-60.56
-53.26
-40.66
-24.42
-6.94
9.36
22.77
32.64
39.20
43.20
45.37
46.25
46.02
44.81
42.72
39.97
36.80
33.47
30.21
27.21
24.67
22.72
21.38
20.50
19.81
18.97
17.62
15.49
12.42
8.40
3.49
-2.12
-8.26
-14.81
-21.84
-29.58
-38.15
-47.29
-56.05
-62.78
-65.56
-62.94
-54.52
-41.28
-25.26
-8.89
5.76
17.47
25.93
31.44
34.56
35.83
35.67
34.45
32.54
30.26
27.92
25.69
23.64
21.73
19.94
18.22
16.58
14.98
13.35
11.55
9.41
6.75
3.48
-0.34
-4.54
-8.87
-13.14
-17.33
-21.66
-26.53
-32.43
-39.58
-47.66
-55.52
-61.34
-63.11
-59.36
-49.74
-35.33
-18.30
-1.17
13.94
25.86
34.37
39.91
43.10
44.41
44.16
42.56
39.95
36.78
33.57
30.68
28.22
26.10
24.07
21.98
19.79
17.68
15.76
14.00
12.17
9.93
7.02
3.36
-0.85
-5.28
-9.64
-13.86
-18.05
-22.55
-27.77
-34.05
-41.41
-49.28
-56.42
-60.99
-61.14
-55.68
-44.64
-29.43
-12.43
3.80
17.35
27.37
34.05
38.08
40.23
41.01
40.62
39.16
36.82
33.91
30.85
28.01
25.63
23.81
22.51
21.56
20.78
19.91
18.75
17.07
14.74
11.68
7.96
3.74
-0.73
-5.19
-9.48
-13.63
-17.92
-22.79
-28.75
-36.07
-44.51
-53.08
-60.09
-63.56
-61.81
-54.17
-41.33
-25.21
-8.37
6.79
18.76
27.15
32.44
35.41
36.74
36.73
35.40
32.85
29.41
25.70
22.43
20.07
18.70
17.93
17.12
15.65
13.30
10.27
7.09
4.31
2.18
0.51
-1.29
-3.89
-7.82
-13.24
-20.03
-27.78
-35.85
-43.27
-48.71
-50.74
-48.18
-40.61
-28.69
-14.07
1.19
15.22
26.84
35.67
41.87
45.75
47.60
47.63
46.12
43.60
40.70
38.03
35.92
34.31
32.83
31.00
28.52
25.46
22.19
19.28
17.09
15.55
14.17
12.20
9.03
4.48
-1.09
-6.97
-12.43
-17.03
-20.82
-24.23
-27.92
-32.56
-38.54
-45.89
-53.99
-61.59
-66.89
-68.04
-63.75
-53.82
-39.39
-22.55
-5.74
9.07
20.79
29.29
34.98
38.43
40.07
40.18
39.01
36.98
34.61
32.39
30.57
29.11
27.76
26.26
24.54
22.76
21.24
20.15
19.42
18.62
17.18
14.65
10.87
6.10
0.90
-4.13
-8.58
-12.37
-15.76
-19.26
-23.46
-28.85
-35.58
-43.21
-50.60
-56.02
-57.58
-53.93
-44.79
-31.21
-15.25
0.68
14.59
25.41
32.98
37.69
40.10
40.67
39.68
37.47
34.52
31.38
28.50
26.08
24.03
22.08
19.99
17.70
15.42
13.44
11.97
10.96
10.07
8.79
6.67
3.50
-0.57
-5.08
-9.46
-13.29
-16.47
-19.29
-22.31
-26.20
-31.44
-38.07
-45.52
-52.55
-57.46
-58.51
-54.52
-45.33
-31.99
-16.51
-1.22
11.91
21.76
28.19
31.77
33.27
33.36
32.40
30.49
27.69
24.19
20.32
16.57
13.36
10.97
9.39
8.39
7.61
6.74
5.61
4.20
2.58
0.77
-1.27
-3.66
-6.50
-9.85
-13.73
-18.20
-23.41
-29.54
-36.61
-44.22
-51.40
-56.70
-58.51
-55.59
-47.65
-35.43
-20.67
-5.46
8.28
19.33
27.28
32.31
34.91
35.55
34.62
32.50
29.60
26.40
23.33
20.62
18.27
16.08
13.87
11.56
9.24
7.13
5.38
3.97
2.67
1.11
-1.05
-3.93
-7.42
-11.20
-14.89
-18.27
-21.33
-24.30
-27.67
-31.96
-37.63
-44.71
-52.53
-59.69
-64.22
-64.18
-58.38
-46.90
-31.23
-13.71
3.17
17.58
28.71
36.66
41.96
45.17
46.60
46.41
44.81
42.20
39.16
36.24
33.83
31.98
30.50
29.06
27.39
25.40
23.14
20.75
18.30
15.73
12.82
9.33
5.14
0.36
-4.65
-9.45
-13.72
-17.46
-21.07
-25.23
-30.55
-37.20
-44.63
-51.50
-55.95
-56.18
-51.19
-41.12
-27.35
-11.98
2.78
15.34
24.93
31.58
35.72
37.81
38.24
37.31
35.32
32.70
29.91
27.32
25.08
23.19
21.52
19.98
18.51
17.07
15.60
13.95
11.97
9.51
6.59
3.31
-0.16
-3.67
-7.19
-10.76
-14.51
-18.59
-23.22
-28.60
-34.84
-41.68
-48.31
-53.35
-55.14
-52.31
-44.41
-32.20
-17.50
-2.60
10.45
20.47
27.21
31.13
32.96
33.33
32.62
31.01
28.62
25.65
22.41
19.23
16.40
14.11
12.41
11.19
10.25
9.31
8.10
6.38
4.04
1.09
-2.38
-6.19
-10.13
-14.06
-17.95
-21.87
-26.06
-30.88
-36.66
-43.51
-51.01
-58.04
-62.90
-63.75
-59.24
-49.14
-34.59
-17.73
-1.12
13.19
24.07
31.41
35.77
37.92
38.46
37.71
35.88
33.15
29.82
26.23
22.73
19.57
16.91
14.79
13.11
11.67
10.21
8.45
6.23
3.51
0.43
-2.81
-6.04
-9.22
-12.44
-15.92
-19.97
-24.91
-30.96
-38.11
-45.88
-53.20
-58.43
-59.79
-55.95
-46.62
-32.81
-16.59
-0.41
13.68
24.53
31.99
36.55
38.92
39.64
39.05
37.41
35.03
32.27
29.48
26.86
24.46
22.21
20.03
17.90
15.80
13.73
11.61
9.37
6.94
4.27
1.37
-1.77
-5.17
-8.84
-12.82
-17.22
-22.21
-28.04
-34.88
-42.56
-50.33
-56.77
-60.11
-58.71
-51.83
-39.94
-24.69
-8.38
6.78
19.29
28.62
34.96
38.87
40.86
41.27
40.31
38.24
35.44
32.39
29.50
27.03
25.01
23.32
21.80
20.31
18.75
17.05
15.10
12.81
10.09
6.92
3.35
-0.48
-4.48
-8.55
-12.73
-17.13
-22.03
-27.77
-34.60
-42.36
-50.20
-56.59
-59.59
-57.56
-49.80
-37.02
-21.14
-4.69
9.97
21.34
28.97
33.26
34.96
34.79
33.25
30.61
27.10
22.95
18.50
14.17
10.34
7.30
5.17
3.82
2.94
2.10
0.93
-0.80
-3.14
-5.97
-9.11
-12.44
-15.89
-19.51
-23.40
-27.74
-32.79
-38.86
-46.23
-54.77
-63.72
-71.47
-75.83
-74.70
-66.84
-52.49
-33.42
-12.39
7.67
24.55
37.13
45.39
49.94
51.61
51.11
48.99
45.73
41.88
38.01
34.68
32.30
31.00
30.66
30.90
31.23
31.18
30.42
28.78
26.27
23.01
19.19
15.02
10.63
6.09
1.36
-3.70
-9.40
-16.10
-24.09
-33.29
-43.01
-51.76
-57.51
-58.25
-52.70
-40.95
-24.52
-6.01
11.82
26.82
37.90
45.08
48.99
50.41
49.90
47.82
44.45
40.18
35.52
31.04
27.15
24.03
21.60
19.62
17.82
15.97
13.91
11.55
8.82
5.64
1.97
-2.22
-6.87
-11.87
-17.18
-22.87
-29.22
-36.60
-45.26
-54.86
-64.24
-71.49
-74.37
-71.08
-60.95
-44.73
-24.47
-2.92
17.15
33.56
45.03
51.22
52.54
49.95
44.66
37.93
30.89
24.43
19.11
15.25
12.87
11.82
11.75
12.23
12.82
13.17
13.05
12.36
11.10
9.28
6.95
4.17
1.05
-2.35
-5.97
-9.84
-14.16
-19.28
-25.61
-33.39
-42.35
-51.46
-58.95
-62.64
-60.73
-52.47
-38.55
-20.99
-2.46
14.58
28.48
38.64
45.23
48.83
50.09
49.52
47.60
44.82
41.63
38.45
35.50
32.83
30.39
28.11
25.95
23.93
22.00
20.08
18.00
15.59
12.70
9.28
5.35
1.01
-3.60
-8.33
-13.07
-17.82
-22.72
-28.15
-34.56
-42.26
-50.98
-59.60
-66.20
-68.58
-64.99
-54.94
-39.51
-21.06
-2.42
14.02
26.88
35.90
41.57
44.52
45.32
44.33
41.94
38.70
35.23
32.11
29.60
27.62
25.88
24.11
22.24
20.44
18.96
17.89
17.04
15.94
14.03
10.91
6.56
1.34
-4.24
-9.65
-14.70
-19.51
-24.55
-30.39
-37.54
-46.02
-55.17
-63.53
-69.04
-69.61
-63.92
-51.95
-35.19
-16.20
2.22
17.92
29.81
37.87
42.72
45.15
45.75
44.94
43.03
40.35
37.23
34.00
30.89
28.03
25.44
23.16
21.20
19.52
18.02
16.52
14.76
12.52
9.63
6.13
2.14
-2.06
-6.26
-10.33
-14.32
-18.48
-23.22
-28.97
-35.98
-43.96
-51.92
-58.09
-60.43
-57.22
-47.84
-33.16
-15.32
2.97
19.30
32.25
41.49
47.48
50.98
52.61
52.76
51.66
49.59
46.92
44.09
41.37
38.83
36.33
33.51
30.04
25.67
20.29
13.97
6.90
-0.64
-8.38
-16.00
-23.26
-29.92
-35.81
-40.92
-45.42
-49.69
-54.28
-59.77
-66.43
-73.96
-81.18
-86.18
-86.74
-81.19
-69.10
-51.62
-31.24
-10.92
6.78
20.43
29.87
35.82
39.30
41.11
41.69
41.15
39.56
37.13
34.21
31.26
28.66
26.62
25.11
23.89
22.60
20.90
18.61
15.76
12.55
9.22
5.92
2.63
-0.82
-4.68
-9.16
-14.38
-20.39
-27.24
-34.82
-42.77
-50.20
-55.71
-57.60
-54.52
-46.00
-32.80
-16.82
-0.48
14.02
25.31
33.00
37.48
39.48
39.73
38.70
36.75
34.16
31.21
28.20
25.38
22.90
20.78
19.05
17.63
16.44
15.31
14.03
12.37
10.11
7.12
3.42
-0.86
-5.50
-10.22
-14.83
-19.25
-23.61
-28.23
-33.61
-40.18
-48.05
-56.63
-64.52
-69.72
-70.16
-64.50
-52.66
-36.07
-17.18
1.23
16.92
28.65
36.28
40.41
41.96
41.79
40.51
38.58
36.32
33.97
31.69
29.56
27.61
25.79
24.06
22.38
20.68
18.87
16.82
14.37
11.40
7.85
3.81
-0.57
-5.07
-9.50
-13.79
-17.97
-22.28
-27.06
-32.77
-39.67
-47.51
-55.35
-61.44
-63.76
-60.64
-51.49
-37.16
-19.75
-1.92
13.93
26.28
34.70
39.54
41.54
41.45
39.84
37.16
33.83
30.23
26.69
23.46
20.61
18.15
16.00
14.06
12.25
10.44
8.49
6.26
3.58
0.39
-3.30
-7.36
-11.60
-15.81
-19.88
-23.92
-28.28
-33.48
-39.94
-47.75
-56.29
-64.17
-69.46
-70.17
-64.98
-53.73
-37.64
-18.98
-0.36
15.99
28.81
37.83
43.52
46.63
47.79
47.40
45.69
42.94
39.52
35.87
32.41
29.43
27.01
25.06
23.42
21.86
20.22
18.35
16.19
13.75
11.06
8.11
4.81
1.00
-3.52
-8.89
-15.18
-22.43
-30.62
-39.58
-48.78
-57.16
-63.14
-64.99
-61.43
-52.15
-38.09
-21.25
-4.05
11.40
23.79
32.72
38.48
41.62
42.66
41.99
39.93
36.90
33.37
29.83
26.67
24.01
21.78
19.83
17.98
16.19
14.50
12.93
11.44
9.85
7.88
5.26
1.84
-2.29
-6.87
-11.50
-15.89
-20.01
-24.17
-28.98
-35.02
-42.52
-51.02
-59.11
-64.81
-66.05
-61.41
-50.73
-35.26
-17.26
0.67
16.36
28.58
37.05
42.19
44.66
45.04
43.78
41.28
38.01
34.48
31.18
28.29
25.82
23.57
21.38
19.27
17.39
15.95
14.96
14.23
13.30
11.72
9.20
5.79
1.75
-2.50
-6.64
-10.57
-14.38
-18.39
-23.03
-28.75
-35.78
-43.90
-52.13
-58.78
-61.78
-59.35
-50.74
-36.72
-19.36
-1.46
14.42
26.65
34.79
39.30
41.08
40.91
39.34
36.68
33.23
29.36
25.50
22.05
19.19
16.96
15.21
13.71
12.28
10.78
9.11
7.24
5.13
2.79
0.25
-2.53
-5.56
-8.89
-12.55
-16.60
-21.15
-26.39
-32.55
-39.67
-47.35
-54.49
-59.35
-59.99
-55.03
-44.27
-28.97
-11.50
5.44
19.70
30.21
36.97
40.63
42.01
41.67
39.88
36.81
32.71
28.02
23.30
19.09
15.73
13.32
11.63
10.29
8.85
6.99
4.58
1.73
-1.32
-4.35
-7.25
-10.11
-13.10
-16.47
-20.39
-25.03
-30.57
-37.17
-44.78
-52.81
-59.98
-64.40
-64.12
-57.91
-45.86
-29.62
-11.80
4.82
18.28
27.89
34.08
37.80
39.87
40.64
40.01
37.85
34.30
29.92
25.47
21.63
18.74
16.72
15.18
13.62
11.75
9.46
6.89
4.27
1.79
-0.53
-2.87
-5.52
-8.78
-12.86
-17.87
-23.80
-30.63
-38.19
-45.93
-52.79
-57.18
-57.39
-52.24
-41.62
-26.78
-9.96
6.36
20.24
30.72
37.77
41.94
43.81
43.77
42.04
38.86
34.67
30.12
25.85
22.39
19.96
18.47
17.57
16.80
15.76
14.15
11.91
9.10
5.93
2.59
-0.83
-4.34
-8.00
-11.94
-16.27
-21.15
-26.79
-33.39
-40.92
-48.86
-55.97
-60.46
-60.51
-54.93
-43.72
-28.27
-10.89
5.83
19.93
30.39
37.18
40.87
42.12
41.48
39.30
35.90
31.69
27.20
23.03
19.64
17.27
15.88
15.23
14.92
14.53
13.71
12.29
10.20
7.52
4.44
1.14
-2.27
-5.73
-9.31
-13.20
-17.67
-23.00
-29.45
-37.03
-45.33
-53.33
-59.47
-61.90
-59.13
-50.57
-36.91
-20.08
-2.64
12.95
25.07
33.24
37.93
40.07
40.54
39.89
38.31
35.86
32.70
29.18
25.70
22.66
20.26
18.43
17.01
15.76
14.48
13.04
11.28
9.10
6.39
3.12
-0.65
-4.79
-9.14
-13.60
-18.12
-22.79
-27.81
-33.41
-39.74
-46.61
-53.28
-58.39
-60.22
-57.19
-48.55
-34.82
-17.79
-0.06
15.80
28.00
35.91
39.92
41.02
40.23
38.32
35.69
32.64
29.40
26.30
23.59
21.38
19.55
17.88
16.21
14.50
12.79
11.14
9.42
7.37
4.70
1.26
-2.86
-7.34
-11.87
-16.21
-20.40
-24.71
-29.54
-35.31
-42.23
-50.15
-58.33
-65.34
-69.34
-68.47
-61.63
-48.97
-32.02
-13.32
4.44
19.18
29.93
36.78
40.47
41.86
41.55
39.87
37.02
33.22
28.90
24.61
20.84
17.93
15.90
14.51
13.35
12.03
10.27
8.03
5.45
2.75
0.08
-2.55
-5.32
-8.51
-12.37
-17.12
-22.88
-29.67
-37.32
-45.25
-52.39
-57.25
-58.19
-54.02
-44.51
-30.61
-14.27
2.12
16.47
27.51
34.94
39.19
41.04
41.17
40.05
37.93
35.00
31.57
28.01
24.74
22.06
20.07
18.69
17.65
16.71
15.63
14.29
12.64
10.63
8.22
5.34
1.97
-1.87
-6.10
-10.71
-15.78
-21.51
-28.18
-35.97
-44.63
-53.30
-60.46
-64.21
-62.87
-55.57
-42.75
-26.10
-8.10
8.78
22.73
32.93
39.48
42.98
44.15
43.61
41.83
39.22
36.17
33.05
30.14
27.58
25.38
23.56
22.06
20.84
19.82
18.82
17.63
16.00
13.77
10.83
7.20
2.98
-1.66
-6.52
-11.44
-16.44
-21.73
-27.71
-34.70
-42.65
-50.77
-57.52
-60.92
-59.24
-51.66
-38.76
-22.40
-5.12
10.69
23.38
32.36
37.89
40.64
41.33
40.47
38.48
35.65
32.35
28.95
25.79
23.09
20.95
19.32
18.02
16.85
15.58
14.03
12.10
9.72
6.85
3.51
-0.26
-4.41
-8.79
-13.31
-17.94
-22.78
-28.09
-34.18
-41.23
-48.93
-56.32
-61.81
-63.51
-59.91
-50.51
-36.18
-18.96
-1.50
13.84
25.60
33.39
37.73
39.47
39.38
37.99
35.56
32.33
28.59
24.72
21.08
17.97
15.49
13.59
12.11
10.82
9.48
7.92
6.03
3.75
1.10
-1.97
-5.45
-9.37
-13.73
-18.53
-23.79
-29.66
-36.31
-43.85
-52.03
-59.95
-66.03
-68.31
-65.12
-55.74
-40.89
-22.57
-3.51
13.70
27.39
37.01
43.04
46.31
47.65
47.50
46.05
43.39
39.77
35.64
31.59
28.07
25.29
23.15
21.28
19.25
16.79
13.85
10.60
7.32
4.23
1.35
-1.52
-4.71
-8.59
-13.44
-19.50
-26.85
-35.39
-44.59
-53.36
-60.06
-62.81
-60.11
-51.46
-37.72
-20.96
-3.80
11.37
23.09
30.99
35.51
37.44
37.45
35.96
33.22
29.48
25.09
20.50
16.09
12.15
8.76
5.89
3.48
1.42
-0.36
-1.98
-3.58
-5.29
-7.20
-9.32
-11.62
-14.04
-16.54
-19.24
-22.33
-26.19
-31.19
-37.55
-45.01
-52.55
-58.45
-60.57
-57.12
-47.34
-32.03
-13.36
5.78
22.73
35.83
44.67
49.81
52.24
52.88
52.33
50.96
49.12
47.23
45.65
44.62
44.06
43.60
42.77
41.19
38.74
35.52
31.75
27.57
23.00
17.97
12.44
6.56
0.63
-4.95
-9.95
-14.40
-18.71
-23.52
-29.43
-36.67
-44.74
-52.34
-57.58
-58.61
-54.19
-44.40
-30.60
-15.11
-0.35
11.87
20.80
26.62
29.99
31.50
31.39
29.61
26.15
21.34
15.93
10.87
6.97
4.58
3.48
3.02
2.44
1.24
-0.72
-3.15
-5.61
-7.75
-9.51
-11.19
-13.28
-16.28
-20.53
-26.14
-32.96
-40.54
-48.08
-54.37
-57.92
-57.24
-51.44
-40.58
-25.87
-9.35
6.76
20.68
31.51
39.13
43.87
46.11
46.05
43.83
39.74
34.41
28.79
23.84
20.19
17.96
16.72
15.74
14.35
12.19
9.33
6.16
3.14
0.56
-1.60
-3.71
-6.32
-10.00
-15.19
-22.03
-30.23
-38.93
-46.69
-51.70
-52.26
-47.41
-37.29
-23.29
-7.63
7.37
20.00
29.52
36.08
40.25
42.58
43.26
42.22
39.47
35.27
30.30
25.39
21.26
18.20
16.00
14.08
11.79
8.77
5.04
1.04
-2.72
-5.85
-8.35
-10.59
-13.21
-16.85
-21.92
-28.57
-36.61
-45.36
-53.64
-59.82
-62.10
-59.10
-50.41
-36.91
-20.61
-4.00
10.77
22.46
30.84
36.33
39.54
40.83
40.30
38.03
34.28
29.68
25.03
21.07
18.21
16.39
15.19
14.04
12.51
10.41
7.86
5.13
2.53
0.19
-1.96
-4.12
-6.62
-9.81
-13.99
-19.43
-26.18
-33.95
-41.91
-48.69
-52.58
-52.06
-46.36
-35.87
-22.09
-7.18
6.69
18.01
26.23
31.60
34.75
36.26
36.38
35.17
32.66
29.14
25.14
21.37
18.40
16.50
15.49
14.85
13.99
12.44
10.05
7.03
3.77
0.65
-2.11
-4.63
-7.17
-10.11
-13.80
-18.48
-24.35
-31.41
-39.36
-47.33
-53.85
-57.10
-55.46
-48.16
-35.76
-20.03
-3.39
11.83
24.10
32.91
38.57
41.74
42.94
42.45
40.37
36.85
32.28
27.35
22.79
19.16
16.67
15.05
13.75
12.16
9.90
6.90
3.47
0.10
-2.84
-5.20
-7.18
-9.28
-12.15
-16.37
-22.37
-30.25
-39.58
-49.35
-57.92
-63.25
-63.51
-57.61
-45.77
-29.57
-11.49
5.84
20.48
31.51
39.00
43.55
45.79
46.10
44.65
41.58
37.27
32.35
27.52
23.35
20.13
17.72
15.71
13.63
11.12
8.08
4.70
1.31
-1.76
-4.43
-6.86
-9.45
-12.68
-16.95
-22.51
-29.47
-37.64
-46.40
-54.53
-60.28
-61.72
-57.37
-46.94
-31.52
-13.44
4.54
20.08
31.91
39.88
44.58
46.84
47.24
46.12
43.62
40.02
35.72
31.26
27.12
23.63
20.85
18.63
16.66
14.60
12.19
9.35
6.17
2.86
-0.40
-3.54
-6.68
-10.01
-13.73
-17.98
-22.84
-28.44
-34.93
-42.38
-50.42
-58.03
-63.50
-64.85
-60.55
-50.21
-34.86
-16.72
1.53
17.52
29.83
38.14
42.89
44.86
44.83
43.36
40.87
37.63
33.97
30.21
26.65
23.57
21.07
19.14
17.58
16.10
14.42
12.37
9.88
7.02
3.87
0.52
-2.99
-6.67
-10.56
-14.74
-19.40
-24.79
-31.17
-38.56
-46.49
-53.81
-58.86
-59.82
-55.41
-45.41
-30.91
-14.00
2.86
17.58
28.93
36.62
41.04
42.83
42.56
40.66
37.46
33.40
28.98
24.73
21.07
18.19
16.05
14.40
12.95
11.41
9.57
7.35
4.75
1.84
-1.27
-4.48
-7.75
-11.09
-14.65
-18.64
-23.36
-29.11
-36.06
-44.08
-52.48
-59.93
-64.57
-64.53
-58.55
-46.64
-30.23
-11.84
5.73
20.27
30.70
37.17
40.53
41.79
41.65
40.33
37.83
34.19
29.72
24.98
20.64
17.19
14.83
13.39
12.45
11.57
10.36
8.68
6.53
4.02
1.25
-1.73
-4.97
-8.50
-12.37
-16.67
-21.52
-27.23
-34.08
-42.06
-50.54
-58.11
-62.77
-62.48
-56.02
-43.48
-26.47
-7.59
10.42
25.46
36.53
43.66
47.50
48.84
48.33
46.41
43.41
39.65
35.48
31.26
27.29
23.78
20.81
18.35
16.26
14.30
12.20
9.76
6.93
3.79
0.57
-2.56
-5.51
-8.35
-11.30
-14.63
-18.64
-23.57
-29.63
-36.86
-44.89
-52.76
-58.87
-61.29
-58.41
-49.57
-35.51
-18.22
-0.40
15.47
27.78
36.03
40.67
42.55
42.50
41.07
38.58
35.34
31.69
28.10
24.97
22.54
20.79
19.53
18.45
17.35
16.10
14.62
12.82
10.58
7.77
4.35
0.38
-4.00
-8.66
-13.58
-18.93
-24.98
-32.01
-40.20
-49.37
-58.72
-66.81
-71.73
-71.62
-65.39
-53.21
-36.67
-18.31
-0.82
13.74
24.42
31.27
34.98
36.41
36.22
34.82
32.49
29.49
26.15
22.89
20.12
18.17
17.11
16.77
16.69
16.35
15.34
13.50
10.97
8.07
5.10
2.19
-0.71
-3.79
-7.21
-11.15
-15.80
-21.38
-28.08
-35.79
-43.78
-50.60
-54.30
-53.07
-45.95
-33.32
-16.91
0.75
17.13
30.42
39.78
45.29
47.54
47.22
45.02
41.52
37.28
32.79
28.45
24.52
21.10
18.20
15.78
13.81
12.18
10.70
9.12
7.20
4.81
1.99
-1.10
-4.31
-7.54
-10.86
-14.42
-18.40
-22.99
-28.35
-34.66
-41.97
-49.94
-57.57
-63.21
-64.86
-60.98
-51.09
-36.20
-18.52
-0.74
14.78
26.69
34.71
39.32
41.30
41.30
39.79
37.09
33.56
29.55
25.51
21.81
18.66
16.15
14.15
12.46
10.83
9.07
7.08
4.88
2.50
0.00
-2.58
-5.29
-8.17
-11.32
-14.87
-19.10
-24.40
-31.13
-39.29
-48.21
-56.40
-61.80
-62.37
-56.80
-45.25
-29.25
-11.38
5.66
19.85
30.27
37.06
40.93
42.67
42.81
41.59
39.14
35.66
31.56
27.37
23.59
20.52
18.21
16.43
14.84
13.09
10.93
8.32
5.38
2.30
-0.74
-3.71
-6.65
-9.72
-13.13
-17.12
-21.99
-28.02
-35.32
-43.63
-51.98
-58.73
-61.86
-59.62
-51.22
-37.31
-19.84
-1.52
15.11
28.31
37.50
43.01
45.62
46.08
44.90
42.39
38.83
34.57
30.06
25.73
21.89
18.70
16.14
14.05
12.21
10.37
8.32
5.91
3.13
0.04
-3.21
-6.51
-9.77
-13.03
-16.38
-20.01
-24.23
-29.36
-35.62
-42.83
-50.16
-56.12
-58.82
-56.63
-48.76
-35.72
-19.24
-1.78
14.24
27.07
36.01
41.28
43.64
43.93
42.83
40.71
37.76
34.16
30.16
26.08
22.27
18.95
16.21
14.00
12.13
10.32
8.36
6.07
3.42
0.49
-2.53
-5.49
-8.35
-11.18
-14.23
-17.82
-22.29
-27.93
-34.80
-42.54
-50.15
-56.06
-58.38
-55.60
-47.16
-33.83
-17.55
-0.76
14.32
26.31
34.79
40.07
42.71
43.23
42.01
39.38
35.74
31.56
27.33
23.43
20.07
17.32
15.12
13.37
11.93
10.67
9.39
7.92
6.08
3.78
0.96
-2.32
-5.95
-9.77
-13.67
-17.70
-22.05
-27.14
-33.34
-40.74
-48.85
-56.37
-61.40
-61.98
-56.82
-45.84
-30.40
-12.85
4.19
18.68
29.57
36.81
40.95
42.67
42.53
40.92
38.12
34.50
30.51
26.59
23.10
20.25
18.12
16.60
15.45
14.34
12.91
10.94
8.39
5.40
2.23
-0.92
-3.99
-7.07
-10.32
-13.93
-18.07
-22.94
-28.75
-35.63
-43.29
-50.80
-56.54
-58.56
-55.27
-46.14
-32.09
-15.25
1.71
16.44
27.60
34.99
39.17
41.02
41.23
40.22
38.21
35.48
32.35
29.21
26.30
23.66
21.18
18.70
16.20
13.84
11.90
10.54
9.70
9.01
7.88
5.80
2.50
-1.90
-6.95
-12.03
-16.67
-20.74
-24.51
-28.60
-33.70
-40.25
-48.06
-56.13
-62.74
-65.88
-63.86
-55.97
-42.79
-26.09
-8.31
8.21
21.77
31.62
37.87
41.10
42.03
41.26
39.29
36.52
33.37
30.22
27.39
25.01
23.00
21.17
19.31
17.40
15.55
13.99
12.82
11.88
10.76
8.89
5.87
1.65
-3.36
-8.51
-13.20
-17.15
-20.60
-24.13
-28.49
-34.28
-41.58
-49.87
-57.88
-63.79
-65.68
-62.11
-52.64
-38.16
-20.67
-2.68
13.46
26.28
35.25
40.72
43.41
44.06
43.21
41.21
38.35
34.92
31.27
27.71
24.55
21.91
19.86
18.34
17.25
16.43
15.67
14.74
13.36
11.28
8.38
4.67
0.33
-4.30
-8.87
-13.17
-17.18
-21.17
-25.62
-31.08
-37.81
-45.45
-52.83
-58.07
-59.17
-54.70
-44.45
-29.67
-12.65
4.00
18.22
28.85
35.79
39.52
40.72
39.97
37.73
34.37
30.32
26.09
22.10
18.66
15.86
13.63
11.82
10.31
9.00
7.86
6.79
5.58
3.98
1.69
-1.41
-5.23
-9.45
-13.65
-17.55
-21.08
-24.56
-28.55
-33.72
-40.46
-48.55
-56.93
-63.77
-66.95
-64.71
-56.37
-42.65
-25.55
-7.68
8.54
21.49
30.63
36.24
39.02
39.67
38.74
36.62
33.66
30.22
26.67
23.31
20.28
17.61
15.27
13.18
11.30
9.61
8.04
6.49
4.79
2.78
0.32
-2.65
-6.05
-9.79
-13.73
-17.85
-22.28
-27.31
-33.33
-40.51
-48.50
-56.20
-61.81
-63.30
-59.14
-48.97
-33.86
-16.08
1.70
17.17
29.02
37.01
41.67
43.82
44.16
43.19
41.23
38.59
35.62
32.64
29.87
27.39
25.13
22.97
20.86
18.78
16.83
15.01
13.25
11.37
9.14
6.38
3.01
-0.85
-5.07
-9.48
-14.05
-18.90
-24.30
-30.63
-38.09
-46.47
-54.86
-61.61
-64.64
-62.15
-53.34
-38.90
-20.92
-2.23
14.55
27.75
36.88
42.40
45.12
45.79
44.89
42.69
39.55
35.89
32.19
28.81
25.92
23.48
21.39
19.59
18.04
16.74
15.62
14.50
13.09
11.11
8.32
4.66
0.26
-4.60
-9.51
-14.14
-18.36
-22.30
-26.42
-31.38
-37.69
-45.36
-53.58
-60.65
-64.38
-62.80
-54.94
-41.37
-24.05
-5.73
10.95
24.26
33.62
39.38
42.31
43.16
42.45
40.50
37.64
34.31
30.93
27.86
25.28
23.14
21.33
19.76
18.39
17.23
16.23
15.25
14.03
12.26
9.71
6.32
2.16
-2.50
-7.37
-12.19
-16.83
-21.37
-26.12
-31.58
-38.19
-45.92
-53.96
-60.67
-63.88
-61.65
-53.10
-38.91
-21.20
-2.83
13.52
26.19
34.79
39.86
42.34
42.99
42.23
40.19
36.99
32.93
28.44
24.04
20.13
16.92
14.42
12.54
11.12
9.97
8.86
7.56
5.86
3.61
0.78
-2.57
-6.28
-10.19
-14.19
-18.27
-22.63
-27.62
-33.68
-41.03
-49.39
-57.65
-64.00
-66.33
-62.90
-53.18
-38.09
-19.87
-1.31
15.05
27.67
36.15
41.01
43.12
43.25
41.86
39.19
35.45
31.03
26.46
22.31
19.02
16.70
15.16
13.97
12.70
10.98
8.70
5.97
2.99
-0.02
-2.94
-5.82
-8.84
-12.24
-16.30
-21.28
-27.39
-34.71
-42.97
-51.28
-58.10
-61.47
-59.67
-51.82
-38.47
-21.49
-3.51
12.93
26.07
35.28
40.86
43.52
44.08
43.15
41.19
38.61
35.76
32.90
30.16
27.53
24.98
22.50
20.16
18.07
16.22
14.45
12.49
10.04
6.96
3.29
-0.75
-4.91
-8.98
-12.97
-17.03
-21.49
-26.83
-33.41
-41.38
-50.24
-58.74
-64.91
-66.58
-62.13
-51.22
-35.07
-16.15
2.68
19.00
31.48
39.92
44.89
47.16
47.42
46.09
43.49
39.97
35.95
31.84
27.94
24.45
21.46
18.97
16.96
15.35
13.98
12.60
10.96
8.84
6.16
2.93
-0.74
-4.68
-8.70
-12.69
-16.65
-20.74
-25.36
-31.03
-38.14
-46.49
-55.02
-61.82
-64.57
-61.40
-51.70
-36.47
-18.09
0.48
16.68
29.02
37.19
41.80
43.76
43.88
42.65
40.38
37.31
33.72
29.94
26.29
23.02
20.20
17.84
15.81
13.98
12.20
10.36
8.37
6.14
3.60
0.70
-2.51
-5.95
-9.53
-13.14
-16.84
-20.85
-25.61
-31.58
-38.96
-47.29
-55.23
-60.70
-61.48
-56.05
-44.38
-28.03
-9.77
7.43
21.37
31.10
36.89
39.65
40.27
39.30
36.89
33.14
28.36
23.13
18.20
14.26
11.62
10.16
9.42
8.74
7.60
5.73
3.21
0.39
-2.34
-4.72
-6.83
-9.00
-11.70
-15.34
-20.18
-26.31
-33.68
-42.03
-50.70
-58.46
-63.54
-64.07
-58.71
-47.34
-31.28
-12.99
4.74
19.67
30.64
37.67
41.46
42.90
42.65
41.04
38.28
34.64
30.53
26.43
22.82
19.98
17.96
16.59
15.58
14.57
13.27
11.51
9.30
6.77
4.09
1.32
-1.63
-4.99
-9.06
-14.16
-20.52
-28.24
-37.11
-46.44
-54.90
-60.65
-61.73
-56.80
-45.71
-29.76
-11.42
6.54
21.84
33.29
40.81
45.03
46.75
46.58
44.89
41.94
38.14
34.03
30.18
27.00
24.57
22.76
21.32
20.02
18.70
17.22
15.38
13.01
10.03
6.48
2.62
-1.29
-5.10
-8.87
-12.89
-17.52
-23.12
-29.92
-37.92
-46.68
-55.19
-61.78
-64.48
-61.59
-52.42
-37.77
-19.75
-1.21
15.22
27.91
36.45
41.39
43.67
44.11
43.21
41.22
38.35
34.93
31.37
28.06
25.23
22.98
21.24
19.89
18.76
17.69
16.50
15.02
13.11
10.71
7.83
4.54
0.87
-3.11
-7.41
-12.03
-17.00
-22.51
-28.81
-36.08
-44.17
-52.25
-58.74
-61.64
-59.23
-50.72
-36.79
-19.45
-1.45
14.63
27.09
35.42
40.04
41.83
41.65
40.03
37.31
33.75
29.68
25.58
21.93
19.07
17.12
15.91
15.12
14.34
13.26
11.73
9.74
7.38
4.70
1.72
-1.64
-5.44
-9.71
-14.36
-19.28
-24.49
-30.16
-36.53
-43.63
-50.93
-57.17
-60.52
-59.18
-52.09
-39.49
-23.01
-5.16
11.39
24.63
33.67
38.68
40.50
40.11
38.27
35.40
31.71
27.40
22.82
18.47
14.85
12.33
10.94
10.41
10.23
9.87
8.94
7.30
5.07
2.48
-0.20
-2.86
-5.58
-8.56
-12.07
-16.38
-21.74
-28.30
-36.07
-44.62
-52.90
-59.24
-61.73
-58.77
-49.84
-35.79
-18.70
-1.25
14.18
26.11
34.15
38.74
40.67
40.64
39.17
36.60
33.25
29.48
25.69
22.22
19.29
17.00
15.26
13.89
12.63
11.26
9.59
7.57
5.27
2.79
0.22
-2.44
-5.30
-8.50
-12.21
-16.62
-21.95
-28.41
-36.00
-44.26
-52.04
-57.55
-58.89
-54.62
-44.50
-29.65
-12.35
4.76
19.45
30.42
37.43
41.03
42.10
41.44
39.65
37.10
34.07
30.82
27.60
24.62
22.05
19.92
18.20
16.80
15.63
14.60
13.62
12.53
11.12
9.16
6.46
3.02
-0.99
-5.31
-9.63
-13.84
-18.09
-22.81
-28.54
-35.61
-43.78
-51.98
-58.37
-60.82
-57.62
-48.24
-33.63
-16.04
1.74
17.23
28.98
36.65
40.81
42.33
42.03
40.43
37.90
34.75
31.38
28.16
25.32
22.93
20.85
18.95
17.16
15.57
14.28
13.33
12.51
11.43
9.65
6.88
3.17
-1.21
-5.80
-10.25
-14.40
-18.35
-22.47
-27.24
-33.10
-40.16
-47.90
-54.99
-59.52
-59.53
-53.74
-42.22
-26.52
-9.24
6.86
19.73
28.54
33.61
35.83
36.16
35.16
33.07
29.97
26.07
21.76
17.53
13.83
10.92
8.79
7.25
6.09
5.12
4.22
3.26
2.12
0.60
-1.45
-4.09
-7.22
-10.61
-13.99
-17.26
-20.56
-24.34
-29.21
-35.56
-43.20
-51.08
-57.36
-59.88
-56.94
-47.98
-34.01
-17.25
-0.47
13.92
24.60
31.40
35.01
36.38
36.24
34.93
32.53
29.13
25.00
20.62
16.59
13.31
10.94
9.27
7.90
6.37
4.40
1.93
-0.82
-3.55
-6.00
-8.13
-10.13
-12.37
-15.24
-19.06
-24.04
-30.23
-37.46
-45.18
-52.30
-57.31
-58.53
-54.70
-45.47
-31.73
-15.42
1.05
15.50
26.57
33.88
37.86
39.27
38.86
37.11
34.35
30.83
26.91
23.01
19.55
16.80
14.74
13.14
11.62
9.82
7.54
4.79
1.71
-1.41
-4.31
-6.89
-9.20
-11.57
-14.48
-18.44
-23.85
-30.88
-39.26
-48.15
-56.12
-61.32
-61.97
-56.92
-46.16
-30.99
-13.72
3.07
17.28
27.79
34.57
38.27
39.75
39.64
38.26
35.72
32.21
28.08
23.88
20.19
17.36
15.46
14.23
13.21
11.97
10.24
8.00
5.41
2.68
-0.01
-2.67
-5.37
-8.30
-11.65
-15.62
-20.47
-26.46
-33.66
-41.72
-49.65
-55.78
-58.17
-55.26
-46.50
-32.78
-16.16
0.69
15.45
26.71
34.20
38.48
40.43
40.76
39.82
37.72
34.55
30.61
26.41
22.56
19.54
17.54
16.41
15.74
15.03
13.85
11.99
9.49
6.56
3.46
0.37
-2.70
-5.89
-9.48
-13.71
-18.85
-25.08
-32.41
-40.46
-48.33
-54.52
-57.20
-54.82
-46.74
-33.61
-17.29
-0.31
14.97
27.04
35.40
40.45
42.87
43.26
41.95
39.07
34.90
29.93
24.86
20.40
17.03
14.86
13.58
12.65
11.51
9.75
7.29
4.34
1.23
-1.70
-4.31
-6.73
-9.26
-12.33
-16.36
-21.71
-28.59
-36.89
-45.93
-54.38
-60.31
-61.70
-57.21
-46.73
-31.63
-14.32
2.56
16.98
27.98
35.59
40.37
42.83
43.20
41.55
38.00
33.02
27.44
22.18
17.94
14.99
13.11
11.73
10.28
8.34
5.84
3.00
0.17
-2.36
-4.52
-6.48
-8.65
-11.48
-15.37
-20.60
-27.32
-35.39
-44.24
-52.68
-58.94
-61.02
-57.36
-47.57
-32.69
-15.06
2.52
17.69
29.19
36.96
41.71
44.27
45.14
44.44
42.11
38.35
33.70
28.95
24.87
21.88
19.87
18.35
16.67
14.35
11.26
7.69
4.13
1.04
-1.39
-3.36
-5.42
-8.24
-12.36
-18.15
-25.57
-34.28
-43.44
-51.74
-57.46
-58.85
-54.59
-44.43
-29.40
-11.61
6.29
22.03
34.20
42.45
47.17
49.08
48.84
46.93
43.73
39.67
35.27
30.98
27.14
23.89
21.21
18.96
16.97
15.07
13.09
10.89
8.41
5.70
2.87
0.01
-2.89
-6.00
-9.60
-14.02
-19.53
-26.31
-34.29
-42.94
-51.16
-57.27
-59.37
-55.94
-46.48
-31.89
-14.33
3.46
19.01
30.83
38.62
42.96
44.83
44.97
43.76
41.30
37.70
33.31
28.74
24.69
21.65
19.73
18.61
17.71
16.43
14.40
11.61
8.37
5.10
2.12
-0.52
-3.03
-5.76
-9.09
-13.25
-18.39
-24.61
-31.86
-39.80
-47.53
-53.50
-55.78
-52.74
-43.81
-29.85
-13.08
3.71
18.09
28.69
35.38
38.87
40.10
39.75
38.09
35.17
31.11
26.35
21.53
17.37
14.33
12.52
11.62
11.04
10.22
8.75
6.56
3.89
1.06
-1.62
-4.10
-6.57
-9.37
-12.88
-17.38
-23.03
-29.92
-37.86
-46.32
-54.19
-59.77
-61.22
-57.16
-47.31
-32.74
-15.69
1.21
15.80
26.90
34.40
38.88
41.04
41.37
40.07
37.23
33.08
28.10
22.98
18.41
14.89
12.54
11.13
10.18
9.15
7.71
5.77
3.50
1.18
-1.00
-3.09
-5.33
-8.10
-11.75
-16.56
-22.69
-30.07
-38.30
-46.44
-52.98
-56.13
-54.31
-46.83
-34.28
-18.45
-1.79
13.41
25.58
34.18
39.45
42.00
42.48
41.33
38.86
35.40
31.34
27.17
23.36
20.26
17.96
16.33
15.07
13.79
12.19
10.12
7.61
4.82
1.96
-0.83
-3.54
-6.25
-9.14
-12.39
-16.19
-20.76
-26.32
-32.99
-40.55
-48.11
-54.12
-56.65
-53.96
-45.32
-31.47
-14.44
3.00
18.28
29.82
37.22
41.03
42.23
41.68
40.01
37.60
34.70
31.60
28.57
25.78
23.28
21.05
19.03
17.17
15.43
13.74
11.99
10.08
7.89
5.37
2.52
-0.59
-3.85
-7.18
-10.52
-13.89
-17.44
-21.51
-26.54
-32.82
-40.21
-47.81
-54.01
-56.78
-54.47
-46.41
-33.38
-17.37
-0.99
13.42
24.38
31.54
35.39
36.79
36.55
35.21
33.09
30.44
27.48
24.50
21.73
19.35
17.40
15.89
14.71
13.74
12.80
11.72
10.32
8.44
6.02
3.07
-0.32
-4.01
-7.90
-11.96
-16.24
-20.91
-26.20
-32.29
-39.15
-46.30
-52.69
-56.82
-57.11
-52.49
-42.90
-29.46
-14.28
0.28
12.28
20.76
25.79
28.13
28.68
28.07
26.51
24.00
20.62
16.69
12.78
9.53
7.34
6.21
5.80
5.55
4.95
3.71
1.85
-0.40
-2.74
-4.94
-6.95
-8.89
-11.07
-13.85
-17.59
-22.52
-28.69
-35.83
-43.24
-49.70
-53.65
-53.55
-48.44
-38.39
-24.64
-9.25
5.54
18.03
27.36
33.51
36.88
37.97
37.06
34.37
30.24
25.25
20.15
15.69
12.34
10.19
8.95
8.10
7.10
5.56
3.39
0.80
-1.87
-4.24
-6.17
-7.82
-9.60
-12.03
-15.61
-20.62
-27.07
-34.53
-42.08
-48.35
-51.69
-50.63
-44.44
-33.49
-19.24
-3.88
10.41
22.06
30.44
35.68
38.35
39.00
37.99
35.54
31.92
27.58
23.15
19.28
16.40
14.60
13.53
12.59
11.20
9.03
6.11
2.82
-0.33
-2.99
-5.10
-6.95
-8.97
-11.62
-15.18
-19.82
-25.55
-32.28
-39.56
-46.47
-51.55
-53.14
-49.88
-41.42
-28.62
-13.43
1.77
14.94
24.93
31.58
35.45
37.27
37.60
36.73
34.77
31.85
28.26
24.51
21.12
18.50
16.78
15.76
15.02
14.09
12.64
10.63
8.20
5.64
3.19
0.89
-1.37
-3.84
-6.77
-10.34
-14.70
-19.91
-25.99
-32.69
-39.38
-44.91
-47.78
-46.59
-40.53
-29.85
-15.88
-0.67
13.62
25.35
33.76
38.89
41.33
41.75
40.70
38.54
35.56
32.14
28.79
25.99
24.14
23.28
23.14
23.15
22.71
21.39
19.06
15.87
12.15
8.22
4.23
0.22
-3.87
-8.09
-12.51
-17.22
-22.38
-28.14
-34.57
-41.36
-47.75
-52.54
-54.35
-52.11
-45.47
-35.09
-22.47
-9.54
1.95
10.88
16.90
20.25
21.44
20.96
19.17
16.37
12.89
9.15
5.68
2.93
1.19
0.45
0.41
0.56
0.36
-0.57
-2.26
-4.45
-6.71
-8.67
-10.22
-11.60
-13.29
-15.83
-19.66
-24.96
-31.61
-39.14
-46.63
-52.69
-55.73
-54.38
-48.00
-37.08
-23.10
-8.21
5.60
16.96
25.39
31.10
34.52
35.99
35.59
33.39
29.63
24.98
20.30
16.42
13.82
12.34
11.34
10.02
7.78
4.52
0.69
-2.98
-5.90
-7.83
-9.13
-10.54
-12.93
-16.99
-23.02
-30.77
-39.44
-47.70
-53.83
-56.15
-53.43
-45.41
-32.99
-17.96
-2.51
11.49
22.91
31.42
37.17
40.49
41.59
40.59
37.76
33.60
28.94
24.61
21.25
19.03
17.64
16.47
14.88
12.54
9.51
6.19
3.13
0.72
-1.02
-2.42
-4.09
-6.70
-10.81
-16.70
-24.22
-32.62
-40.53
-46.09
-47.45
-43.46
-34.17
-20.94
-6.02
8.28
20.29
29.39
35.81
40.16
42.85
43.94
43.30
40.86
36.94
32.16
27.30
22.92
19.27
16.22
13.46
10.60
7.42
3.95
0.40
-2.90
-5.65
-7.76
-9.40
-11.04
-13.20
-16.38
-20.94
-26.99
-34.37
-42.50
-50.27
-56.07
-58.08
-54.82
-45.77
-31.74
-14.71
2.74
18.30
30.51
38.98
44.12
46.65
47.17
46.05
43.48
39.73
35.21
30.52
26.28
23.01
20.89
19.77
19.18
18.56
17.38
15.39
12.67
9.53
6.36
3.40
0.60
-2.32
-5.71
-9.90
-15.10
-21.41
-28.82
-37.00
-45.20
-52.07
-55.86
-54.90
-48.23
-36.13
-20.14
-2.67
13.77
27.29
37.01
42.96
45.78
46.22
44.92
42.31
38.75
34.58
30.19
25.99
22.29
19.27
16.94
15.12
13.54
11.91
10.03
7.77
5.16
2.31
-0.63
-3.61
-6.63
-9.82
-13.35
-17.41
-22.18
-27.83
-34.46
-41.93
-49.60
-56.26
-60.21
-59.72
-53.68
-42.14
-26.45
-8.90
7.96
22.11
32.53
39.17
42.66
43.79
43.23
41.44
38.74
35.46
31.93
28.51
25.42
22.78
20.59
18.76
17.21
15.80
14.34
12.61
10.45
7.75
4.53
0.91
-2.96
-6.94
-11.04
-15.35
-20.09
-25.56
-32.06
-39.68
-48.01
-55.98
-61.86
-63.71
-60.01
-50.30
-35.50
-17.75
0.30
16.24
28.55
36.81
41.45
43.34
43.33
42.02
39.79
36.82
33.34
29.59
25.87
22.48
19.61
17.30
15.47
13.91
12.36
10.60
8.50
6.07
3.43
0.68
-2.10
-4.94
-8.01
-11.52
-15.71
-20.78
-26.86
-33.90
-41.52
-48.80
-54.30
-56.30
-53.35
-44.88
-31.59
-15.38
1.28
16.07
27.53
35.27
39.75
41.75
41.96
40.79
38.45
35.18
31.38
27.53
24.09
21.29
19.13
17.44
15.97
14.55
13.09
11.47
9.62
7.42
4.84
1.89
-1.29
-4.58
-7.93
-11.48
-15.47
-20.27
-26.16
-33.14
-40.75
-47.94
-53.18
-54.85
-51.72
-43.49
-30.97
-15.90
-0.46
13.37
24.35
32.08
36.86
39.28
39.93
39.18
37.29
34.48
31.08
27.52
24.19
21.37
19.16
17.48
16.16
15.05
14.04
13.01
11.84
10.36
8.43
6.01
3.15
-0.02
-3.36
-6.85
-10.63
-14.96
-20.17
-26.46
-33.67
-41.13
-47.59
-51.47
-51.28
-46.16
-36.32
-23.05
-8.32
5.76
17.56
26.26
31.79
34.60
35.26
34.25
31.91
28.51
24.38
19.96
15.75
12.19
9.48
7.53
6.07
4.74
3.24
1.49
-0.49
-2.59
-4.72
-6.85
-9.00
-11.26
-13.74
-16.57
-20.00
-24.31
-29.72
-36.20
-43.23
-49.70
-54.08
-54.80
-50.85
-42.18
-29.91
-15.90
-2.20
9.63
18.86
25.47
29.86
32.35
33.04
31.86
28.90
24.55
19.59
14.92
11.26
8.89
7.58
6.74
5.73
4.11
1.84
-0.84
-3.51
-5.87
-7.86
-9.69
-11.73
-14.35
-17.82
-22.28
-27.77
-34.23
-41.36
-48.39
-54.02
-56.67
-54.90
-48.10
-36.80
-22.62
-7.74
5.83
16.87
25.02
30.52
33.81
35.17
34.70
32.47
28.84
24.42
20.06
16.46
13.98
12.48
11.49
10.34
8.52
5.84
2.53
-0.95
-4.10
-6.66
-8.70
-10.62
-12.99
-16.35
-21.05
-27.18
-34.40
-41.97
-48.65
-52.91
-53.26
-48.78
-39.51
-26.55
-11.77
2.76
15.43
25.37
32.39
36.73
38.66
38.41
36.17
32.36
27.64
22.82
18.68
15.61
13.65
12.38
11.27
9.83
7.76
5.06
1.98
-1.13
-3.90
-6.16
-8.01
-9.88
-12.38
-16.11
-21.47
-28.46
-36.49
-44.42
-50.60
-53.28
-51.14
-43.75
-31.83
-17.12
-1.80
12.17
23.56
32.03
37.79
41.21
42.55
41.86
39.28
35.17
30.25
25.38
21.31
18.39
16.53
15.27
14.02
12.33
10.03
7.25
4.34
1.62
-0.74
-2.84
-4.98
-7.58
-11.02
-15.57
-21.39
-28.44
-36.38
-44.36
-51.01
-54.62
-53.64
-47.28
-35.97
-21.29
-5.54
9.12
21.23
30.24
36.33
39.91
41.34
40.77
38.37
34.55
29.95
25.38
21.56
18.88
17.30
16.45
15.73
14.54
12.52
9.56
5.90
1.97
-1.75
-4.96
-7.65
-10.06
-12.67
-15.96
-20.37
-26.14
-33.19
-40.96
-48.29
-53.59
-55.13
-51.65
-42.90
-29.84
-14.38
1.17
14.87
25.59
33.04
37.53
39.57
39.58
37.81
34.55
30.19
25.33
20.66
16.78
14.00
12.21
10.99
9.70
7.84
5.15
1.84
-1.65
-4.81
-7.35
-9.37
-11.36
-13.99
-17.98
-23.81
-31.52
-40.62
-49.92
-57.67
-61.89
-60.92
-54.06
-41.84
-26.02
-9.05
6.74
19.74
29.36
35.79
39.57
41.16
40.76
38.50
34.73
30.12
25.59
21.96
19.61
18.31
17.32
15.83
13.28
9.77
5.85
2.30
-0.36
-2.11
-3.51
-5.37
-8.53
-13.52
-20.49
-29.12
-38.65
-47.80
-54.79
-57.74
-55.10
-46.37
-32.37
-15.14
2.74
18.93
32.03
41.63
48.02
51.67
52.80
51.45
47.70
41.98
35.20
28.54
23.06
19.31
17.18
15.99
14.85
13.03
10.22
6.64
2.82
-0.70
-3.62
-6.02
-8.35
-11.18
-15.08
-20.42
-27.32
-35.54
-44.37
-52.59
-58.51
-60.37
-56.81
-47.50
-33.35
-16.33
1.10
16.74
29.20
38.11
43.80
46.92
48.01
47.37
45.20
41.78
37.64
33.49
30.05
27.77
26.70
26.47
26.45
26.07
24.96
23.09
20.69
18.10
15.57
13.15
10.72
7.98
4.61
0.26
-5.34
-12.36
-20.73
-29.85
-38.50
-44.89
-47.11
-43.78
-34.70
-21.07
-5.16
10.43
23.61
33.30
39.49
42.83
44.05
43.61
41.68
38.35
33.85
28.73
23.70
19.45
16.42
14.65
13.80
13.33
12.69
11.50
9.73
7.56
5.33
3.26
1.33
-0.70
-3.22
-6.61
-11.06
-16.68
-23.46
-31.22
-39.51
-47.33
-53.13
-55.07
-51.70
-42.60
-28.73
-12.30
4.04
17.98
28.27
34.76
38.09
39.12
38.49
36.49
33.23
28.89
23.87
18.82
14.41
11.12
9.06
7.91
7.06
5.85
3.91
1.22
-1.79
-4.57
-6.74
-8.24
-9.46
-10.98
-13.37
-17.02
-22.08
-28.50
-35.95
-43.74
-50.68
-55.14
-55.44
-50.45
-40.13
-25.72
-9.48
6.09
19.05
28.44
34.31
37.32
38.23
37.53
35.49
32.24
28.09
23.53
19.15
15.44
12.60
10.50
8.76
6.95
4.78
2.20
-0.58
-3.29
-5.66
-7.64
-9.36
-11.16
-13.41
-16.54
-20.90
-26.70
-33.82
-41.62
-48.87
-53.89
-54.95
-50.86
-41.49
-27.91
-12.11
3.60
17.28
27.83
34.99
39.14
40.85
40.66
38.92
35.94
32.06
27.72
23.34
19.34
15.92
13.12
10.86
8.96
7.21
5.46
3.56
1.49
-0.71
-2.98
-5.27
-7.61
-10.08
-12.82
-15.99
-19.77
-24.43
-30.18
-37.04
-44.53
-51.47
-56.09
-56.54
-51.57
-41.16
-26.63
-10.29
5.37
18.42
27.99
34.12
37.44
38.65
38.25
36.53
33.77
30.33
26.69
23.29
20.40
18.04
16.07
14.28
12.59
10.99
9.52
8.16
6.77
5.17
3.17
0.76
-2.01
-4.98
-8.09
-11.35
-14.94
-19.14
-24.25
-30.46
-37.70
-45.35
-52.18
-56.51
-56.64
-51.48
-41.10
-26.83
-10.91
4.27
16.84
25.92
31.57
34.42
35.25
34.65
32.98
30.48
27.39
24.01
20.65
17.55
14.85
12.58
10.73
9.24
8.05
7.06
6.12
5.04
3.63
1.75
-0.66
-3.55
-6.81
-10.30
-13.91
-17.65
-21.69
-26.30
-31.79
-38.25
-45.17
-51.40
-55.24
-54.94
-49.39
-38.64
-24.03
-7.80
7.65
20.45
29.68
35.36
38.12
38.69
37.73
35.59
32.54
28.79
24.66
20.52
16.76
13.66
11.30
9.59
8.30
7.18
6.02
4.68
3.07
1.12
-1.23
-4.00
-7.11
-10.47
-13.97
-17.60
-21.51
-25.97
-31.32
-37.69
-44.76
-51.62
-56.83
-58.72
-55.94
-48.03
-35.65
-20.51
-4.83
9.32
20.62
28.64
33.65
36.21
36.81
35.74
33.17
29.37
24.82
20.14
15.92
12.54
10.04
8.22
6.72
5.17
3.33
1.12
-1.45
-4.25
-7.15
-10.03
-12.86
-15.65
-18.53
-21.70
-25.48
-30.25
-36.24
-43.34
-50.79
-57.12
-60.47
-59.13
-52.23
-40.16
-24.56
-7.77
7.88
20.75
30.19
36.31
39.70
40.91
40.35
38.24
34.82
30.47
25.74
21.24
17.43
14.55
12.49
10.87
9.21
7.12
4.47
1.45
-1.54
-4.13
-6.19
-7.93
-9.85
-12.48
-16.23
-21.29
-27.59
-34.90
-42.75
-50.27
-56.11
-58.59
-56.21
-48.22
-35.14
-18.75
-1.54
14.02
26.31
34.82
39.96
42.59
43.48
43.08
41.58
39.05
35.71
31.97
28.22
24.80
21.85
19.33
17.12
15.09
13.11
11.12
8.98
6.62
3.98
1.03
-2.19
-5.63
-9.23
-13.04
-17.16
-21.83
-27.37
-34.08
-41.96
-50.50
-58.41
-63.83
-64.81
-59.99
-49.22
-33.74
-15.88
1.74
16.94
28.51
36.30
40.80
42.81
42.98
41.74
39.36
36.09
32.24
28.22
24.45
21.28
18.92
17.29
16.14
15.07
13.71
11.83
9.37
6.48
3.34
0.09
-3.22
-6.61
-10.15
-13.89
-17.88
-22.33
-27.53
-33.80
-41.10
-48.76
-55.27
-58.62
-56.89
-49.03
-35.44
-17.88
0.98
18.50
32.78
43.10
49.69
53.31
54.69
54.29
52.33
48.97
44.55
39.59
34.66
30.26
26.62
23.71
21.35
19.30
17.39
15.50
13.49
11.21
8.53
5.33
1.66
-2.32
-6.37
-10.32
-14.12
-17.95
-22.23
-27.46
-34.03
-41.91
-50.36
-57.87
-62.42
-62.04
-55.58
-43.27
-26.76
-8.73
8.11
21.78
31.45
37.42
40.51
41.51
40.93
38.98
35.83
31.83
27.54
23.52
20.19
17.66
15.78
14.25
12.79
11.17
9.26
7.01
4.43
1.57
-1.53
-4.82
-8.32
-12.06
-16.14
-20.71
-25.97
-32.20
-39.54
-47.86
-56.36
-63.54
-67.41
-66.09
-58.54
-45.13
-27.68
-8.88
8.54
22.70
32.88
39.39
43.08
44.73
44.77
43.33
40.48
36.47
31.81
27.19
23.26
20.37
18.48
17.17
15.83
13.93
11.23
7.88
4.31
0.99
-1.80
-4.18
-6.56
-9.50
-13.44
-18.63
-25.11
-32.79
-41.34
-50.02
-57.48
-61.94
-61.54
-55.13
-42.77
-26.00
-7.38
10.34
25.00
35.61
42.27
45.77
47.05
46.82
45.50
43.33
40.56
37.45
34.28
31.24
28.38
25.69
23.15
20.77
18.59
16.55
14.49
12.17
9.42
6.20
2.61
-1.18
-5.09
-9.18
-13.68
-18.85
-24.91
-32.00
-40.05
-48.65
-56.82
-63.03
-65.43
-62.43
-53.40
-39.00
-21.18
-2.52
14.53
28.36
38.37
44.83
48.37
49.64
49.15
47.27
44.41
41.05
37.64
34.49
31.72
29.23
26.87
24.55
22.34
20.38
18.74
17.30
15.72
13.55
10.44
6.36
1.57
-3.44
-8.24
-12.56
-16.50
-20.39
-24.74
-30.08
-36.82
-44.93
-53.76
-61.90
-67.33
-68.00
-62.49
-50.68
-33.92
-14.65
4.30
20.66
33.15
41.59
46.55
48.89
49.33
48.36
46.32
43.54
40.42
37.41
34.85
32.87
31.37
30.12
28.83
27.37
25.73
24.02
22.27
20.42
18.27
15.58
12.19
8.04
3.28
-1.88
-7.26
-12.82
-18.77
-25.51
-33.42
-42.52
-52.05
-60.44
-65.56
-65.43
-59.00
-46.71
-30.42
-12.85
3.38
16.47
25.77
31.55
34.53
35.40
34.64
32.51
29.26
25.24
20.87
16.61
12.81
9.72
7.42
5.86
4.88
4.19
3.46
2.40
0.87
-1.14
-3.54
-6.18
-8.99
-11.94
-15.04
-18.36
-22.03
-26.37
-31.82
-38.69
-46.83
-55.27
-62.19
-65.35
-62.82
-53.79
-39.02
-20.70
-1.70
15.33
28.70
37.93
43.47
46.21
46.99
46.31
44.38
41.30
37.22
32.48
27.51
22.77
18.58
15.06
12.10
9.49
7.02
4.52
1.95
-0.63
-3.19
-5.75
-8.37
-11.18
-14.19
-17.44
-20.96
-24.94
-29.73
-35.73
-43.02
-51.00
-58.26
-62.73
-62.39
-55.98
-43.62
-26.91
-8.40
9.19
23.77
34.38
41.10
44.63
45.85
45.44
43.85
41.33
38.13
34.53
30.86
27.39
24.33
21.72
19.47
17.42
15.35
13.08
10.55
7.83
5.09
2.44
-0.10
-2.70
-5.62
-9.11
-13.33
-18.31
-24.08
-30.68
-38.07
-45.82
-52.88
-57.56
-57.91
-52.49
-41.04
-24.75
-6.03
12.34
28.03
39.76
47.35
51.35
52.60
51.84
49.62
46.41
42.60
38.59
34.69
31.00
27.52
24.13
20.76
17.46
14.39
11.75
9.60
7.85
6.18
4.15
1.41
-2.15
-6.37
-10.84
-15.14
-19.05
-22.72
-26.63
-31.44
-37.71
-45.54
-54.29
-62.52
-68.25
-69.47
-64.84
-54.26
-38.97
-21.28
-3.76
11.47
23.24
31.40
36.44
39.05
39.82
39.14
37.34
34.79
31.88
29.02
26.43
24.13
22.04
20.03
18.06
16.21
14.59
13.26
12.15
11.03
9.55
7.36
4.24
0.24
-4.35
-9.07
-13.51
-17.46
-21.08
-24.88
-29.58
-35.73
-43.44
-51.96
-59.74
-64.68
-64.77
-58.81
-46.95
-30.74
-12.65
4.68
19.24
30.06
37.13
40.99
42.36
41.80
39.77
36.73
33.22
29.77
26.70
24.07
21.65
19.16
16.52
13.90
11.69
10.18
9.35
8.84
8.04
6.35
3.46
-0.51
-5.11
-9.71
-13.81
-17.22
-20.16
-23.20
-27.06
-32.39
-39.43
-47.74
-56.10
-62.66
-65.38
-62.68
-54.05
-40.27
-23.33
-5.76
10.11
22.76
31.65
37.10
39.79
40.46
39.64
37.67
34.81
31.35
27.64
23.99
20.67
17.85
15.58
13.77
12.28
10.91
9.40
7.52
5.07
1.98
-1.67
-5.65
-9.71
-13.63
-17.38
-21.17
-25.35
-30.36
-36.54
-43.90
-51.95
-59.57
-65.08
-66.65
-62.82
-53.15
-38.47
-20.77
-2.62
13.58
26.23
34.78
39.56
41.39
41.16
39.60
37.23
34.42
31.46
28.57
25.87
23.38
21.08
18.89
16.79
14.83
13.10
11.62
10.29
8.86
6.97
4.36
0.90
-3.25
-7.78
-12.36
-16.82
-21.19
-25.74
-30.88
-36.99
-44.28
-52.45
-60.61
-67.20
-70.30
-68.21
-60.09
-46.43
-29.04
-10.49
6.67
20.70
30.92
37.60
41.49
43.31
43.53
42.41
40.16
37.15
33.80
30.55
27.65
25.13
22.88
20.76
18.73
16.90
15.37
14.15
13.00
11.48
9.06
5.47
0.77
-4.62
-10.01
-14.81
-18.73
-21.94
-25.00
-28.74
-33.88
-40.76
-48.95
-57.14
-63.30
-65.25
-61.33
-51.14
-35.80
-17.54
0.90
17.20
30.01
38.98
44.52
47.26
47.78
46.54
43.96
40.61
37.10
34.00
31.59
29.82
28.33
26.72
24.74
22.45
20.17
18.27
16.88
15.80
14.50
12.37
9.02
4.45
-0.92
-6.47
-11.60
-16.00
-19.75
-23.26
-27.23
-32.35
-39.02
-47.06
-55.43
-62.34
-65.68
-63.67
-55.62
-42.24
-25.46
-7.79
8.46
21.79
31.61
38.09
41.70
42.93
42.19
39.90
36.60
32.90
29.35
26.25
23.58
21.10
18.59
15.98
13.49
11.43
10.02
9.24
8.73
7.94
6.35
3.66
-0.09
-4.55
-9.25
-13.77
-17.93
-21.87
-26.04
-31.11
-37.67
-45.93
-55.35
-64.48
-71.14
-73.05
-68.54
-57.31
-40.63
-21.01
-1.40
15.73
28.94
37.97
43.38
46.05
46.75
46.00
44.13
41.40
38.06
34.36
30.52
26.74
23.22
20.15
17.70
15.89
14.56
13.37
11.89
9.77
6.88
3.33
-0.61
-4.69
-8.76
-12.86
-17.19
-22.06
-27.80
-34.74
-42.94
-51.98
-60.70
-67.21
-69.34
-65.31
-54.53
-37.99
-18.08
2.21
20.18
34.18
43.75
49.34
51.79
51.88
50.28
47.51
44.15
40.72
37.61
34.89
32.34
29.62
26.53
23.18
19.94
17.30
15.53
14.54
13.86
12.82
10.81
7.55
3.13
-2.03
-7.39
-12.52
-17.25
-21.79
-26.60
-32.32
-39.43
-47.94
-57.13
-65.41
-70.59
-70.52
-63.89
-50.85
-33.09
-13.33
5.62
21.65
33.85
42.30
47.59
50.30
50.77
49.27
46.20
42.26
38.29
34.92
32.39
30.48
28.69
26.59
24.05
21.33
18.86
17.05
16.01
15.44
14.67
12.96
9.80
5.12
-0.62
-6.63
-12.12
-16.65
-20.32
-23.71
-27.63
-32.83
-39.70
-48.01
-56.83
-64.60
-69.37
-69.29
-63.21
-51.16
-34.51
-15.63
2.89
18.93
31.37
40.10
45.60
48.48
49.17
47.92
45.01
41.00
36.65
32.74
29.74
27.61
25.96
24.25
22.17
19.76
17.39
15.47
14.24
13.49
12.71
11.25
8.66
4.85
0.18
-4.73
-9.29
-13.18
-16.47
-19.62
-23.31
-28.17
-34.65
-42.65
-51.41
-59.47
-64.87
-65.70
-60.68
-49.73
-34.10
-16.06
1.78
17.24
29.04
36.90
41.23
42.77
42.25
40.24
37.23
33.62
29.82
26.11
22.63
19.41
16.43
13.69
11.30
9.42
8.15
7.43
6.91
6.13
4.65
2.22
-1.10
-5.01
-9.14
-13.18
-17.07
-20.93
-25.10
-29.99
-36.03
-43.41
-51.83
-60.21
-66.75
-69.28
-66.00
-56.18
-40.67
-21.74
-2.35
14.80
28.03
36.94
42.14
44.60
45.22
44.54
42.79
40.18
36.90
33.28
29.64
26.20
23.10
20.36
17.94
15.79
13.80
11.84
9.76
7.43
4.74
1.66
-1.80
-5.58
-9.65
-13.99
-18.62
-23.64
-29.27
-35.78
-43.36
-51.79
-60.15
-66.75
-69.44
-66.34
-56.68
-41.23
-22.25
-2.75
14.54
27.91
36.94
42.20
44.69
45.25
44.42
42.55
39.90
36.85
33.74
30.80
28.06
25.38
22.63
19.82
17.12
14.76
12.90
11.49
10.19
8.56
6.23
3.01
-1.04
-5.61
-10.38
-15.07
-19.64
-24.27
-29.35
-35.37
-42.64
-50.92
-59.21
-65.69
-68.20
-64.94
-55.29
-40.19
-21.92
-3.32
13.11
25.93
34.83
40.28
43.06
43.76
42.80
40.54
37.45
34.09
30.99
28.41
26.33
24.51
22.66
20.69
18.68
16.82
15.23
13.85
12.39
10.48
7.81
4.32
0.19
-4.23
-8.59
-12.76
-16.81
-21.10
-26.09
-32.21
-39.56
-47.67
-55.32
-60.73
-61.94
-57.55
-47.27
-32.24
-14.71
2.67
17.68
29.10
36.84
41.49
43.79
44.31
43.33
40.99
37.58
33.55
29.45
25.72
22.56
19.95
17.72
15.74
13.98
12.47
11.22
10.06
8.71
6.83
4.19
0.77
-3.19
-7.33
-11.33
-15.05
-18.69
-22.64
-27.46
-33.55
-40.93
-48.94
-56.18
-60.75
-60.79
-55.11
-43.74
-28.08
-10.52
6.32
20.35
30.51
36.77
39.78
40.37
39.24
36.79
33.30
29.09
24.52
20.01
15.98
12.69
10.29
8.75
7.87
7.35
6.81
5.86
4.24
1.90
-1.03
-4.34
-7.82
-11.37
-15.04
-18.99
-23.48
-28.85
-35.42
-43.25
-51.85
-59.98
-65.75
-67.09
-62.53
-51.85
-36.32
-18.37
-0.73
14.46
26.07
34.05
38.97
41.49
42.06
40.96
38.39
34.71
30.45
26.19
22.44
19.47
17.27
15.58
13.98
12.04
9.47
6.25
2.60
-1.12
-4.56
-7.61
-10.39
-13.26
-16.66
-21.02
-26.70
-33.84
-42.17
-50.82
-58.24
-62.46
-61.62
-54.68
-41.95
-25.08
-6.65
10.74
25.14
35.69
42.48
46.16
47.45
46.95
45.12
42.39
39.21
36.02
33.06
30.34
27.72
25.01
22.20
19.45
16.97
14.84
12.94
10.89
8.31
4.97
0.94
-3.49
-7.96
-12.23
-16.33
-20.55
-25.39
-31.37
-38.86
-47.78
-57.34
-65.94
-71.37
-71.51
-65.03
-52.02
-34.14
-14.06
5.34
21.90
34.48
43.06
48.18
50.51
50.61
48.95
46.02
42.48
39.03
36.19
34.11
32.54
30.93
28.83
26.03
22.77
19.60
17.09
15.52
14.69
13.92
12.37
9.37
4.81
-0.87
-6.84
-12.27
-16.72
-20.27
-23.46
-27.08
-31.88
-38.36
-46.50
-55.67
-64.45
-70.88
-72.78
-68.52
-57.70
-41.41
-22.02
-2.42
14.87
28.42
37.93
43.94
47.22
48.37
47.71
45.46
42.02
38.05
34.31
31.38
29.39
27.99
26.62
24.81
22.51
20.07
18.03
16.74
16.12
15.61
14.42
11.90
7.89
2.76
-2.77
-7.93
-12.30
-15.96
-19.45
-23.51
-28.87
-35.88
-44.34
-53.35
-61.34
-66.37
-66.61
-60.96
-49.51
-33.65
-15.70
1.81
16.92
28.56
36.63
41.54
43.85
43.95
42.17
38.87
34.64
30.18
26.13
22.78
20.14
17.91
15.80
13.71
11.73
10.00
8.62
7.45
6.17
4.37
1.81
-1.60
-5.67
-10.12
-14.62
-18.99
-23.21
-27.55
-32.46
-38.48
-45.90
-54.38
-62.70
-68.84
-70.56
-66.18
-55.38
-39.41
-20.76
-2.29
13.69
25.98
34.51
39.89
42.87
43.94
43.34
41.19
37.74
33.44
28.87
24.59
20.96
18.10
15.90
14.09
12.35
10.42
8.15
5.54
2.67
-0.35
-3.42
-6.51
-9.68
-13.01
-16.68
-20.95
-26.16
-32.64
-40.43
-48.98
-56.97
-62.46
-63.43
-58.51
-47.62
-32.09
-14.29
3.21
18.36
30.12
38.37
43.51
46.06
46.46
45.05
42.23
38.55
34.56
30.70
27.19
24.07
21.28
18.80
16.72
15.04
13.70
12.39
10.73
8.37
5.19
1.34
-2.86
-7.05
-11.08
-15.03
-19.17
-23.92
-29.66
-36.59
-44.59
-52.99
-60.45
-65.18
-65.32
-59.63
-48.04
-31.85
-13.40
4.60
19.92
31.32
38.63
42.43
43.61
43.01
41.27
38.83
36.06
33.26
30.58
28.13
25.90
23.88
22.08
20.52
19.21
18.06
16.89
15.47
13.54
10.93
7.54
3.47
-1.07
-5.74
-10.30
-14.65
-18.97
-23.76
-29.59
-36.85
-45.26
-53.67
-60.14
-62.49
-59.04
-49.32
-34.33
-16.29
2.08
18.40
31.19
40.04
45.35
47.87
48.32
47.24
44.94
41.74
37.94
33.94
30.14
26.89
24.39
22.64
21.47
20.55
19.55
18.14
16.15
13.51
10.29
6.60
2.58
-1.58
-5.77
-9.88
-13.94
-18.16
-22.93
-28.73
-35.81
-43.88
-51.77
-57.60
-59.22
-55.06
-44.86
-29.84
-12.45
4.58
19.03
29.87
37.07
41.31
43.31
43.54
42.21
39.42
35.50
30.91
26.28
22.08
18.59
15.83
13.66
11.87
10.21
8.50
6.58
4.38
1.84
-1.00
-4.13
-7.52
-11.18
-15.22
-19.75
-24.99
-31.17
-38.48
-46.84
-55.60
-63.42
-68.40
-68.62
-62.85
-51.12
-34.89
-16.63
1.02
16.06
27.52
35.46
40.39
42.84
43.08
41.22
37.51
32.53
27.19
22.39
18.74
16.33
14.82
13.60
12.12
10.10
7.51
4.55
1.51
-1.37
-4.00
-6.42
-8.81
-11.50
-14.85
-19.29
-25.12
-32.42
-40.71
-48.84
-54.99
-57.11
-53.64
-44.10
-29.47
-11.95
5.76
21.24
33.06
40.85
45.08
46.54
46.00
43.97
40.82
36.89
32.60
28.40
24.68
21.68
19.41
17.67
16.15
14.51
12.54
10.17
7.49
4.68
1.88
-0.88
-3.71
-6.80
-10.37
-14.57
-19.56
-25.41
-32.22
-39.91
-48.05
-55.57
-60.83
-61.93
-57.44
-47.00
-31.67
-13.74
4.07
19.36
30.81
38.21
42.17
43.58
43.23
41.62
38.99
35.59
31.71
27.75
24.03
20.82
18.23
16.21
14.67
13.44
12.33
11.16
9.75
7.96
5.71
2.98
-0.17
-3.60
-7.18
-10.82
-14.50
-18.43
-22.98
-28.58
-35.47
-43.36
-51.20
-57.21
-59.34
-55.99
-46.68
-32.36
-15.18
2.22
17.54
29.39
37.40
41.91
43.54
42.94
40.65
37.25
33.40
29.73
26.67
24.36
22.58
21.03
19.43
17.73
16.07
14.65
13.55
12.65
11.63
10.08
7.69
4.39
0.34
-4.09
-8.51
-12.67
-16.59
-20.53
-24.94
-30.34
-37.00
-44.77
-52.74
-59.32
-62.50
-60.54
-52.65
-39.44
-22.83
-5.46
10.20
22.52
31.00
35.99
38.24
38.45
37.18
34.82
31.77
28.44
25.17
22.13
19.33
16.67
14.12
11.78
9.87
8.55
7.85
7.52
7.11
6.11
4.16
1.18
-2.56
-6.60
-10.44
-13.84
-16.89
-20.01
-23.84
-28.94
-35.64
-43.69
-52.16
-59.42
-63.50
-62.63
-55.85
-43.47
-27.10
-9.22
7.59
21.39
31.24
37.22
40.06
40.64
39.72
37.83
35.27
32.29
29.07
25.81
22.71
19.90
17.50
15.56
14.04
12.84
11.73
10.47
8.80
6.56
3.73
0.38
-3.33
-7.25
-11.31
-15.50
-19.90
-24.64
-29.95
-36.05
-42.97
-50.27
-56.88
-61.11
-61.12
-55.60
-44.42
-28.82
-11.17
5.91
20.28
30.86
37.66
41.35
42.75
42.51
40.99
38.45
35.21
31.73
28.45
25.70
23.51
21.71
19.98
18.11
16.11
14.19
12.61
11.51
10.67
9.59
7.69
4.58
0.24
-4.87
-10.07
-14.72
-18.51
-21.57
-24.44
-27.90
-32.62
-38.92
-46.54
-54.44
-60.95
-64.13
-62.32
-54.76
-42.00
-25.73
-8.35
7.82
21.15
30.94
37.29
40.75
41.88
41.12
38.85
35.50
31.62
27.80
24.46
21.75
19.57
17.64
15.75
13.89
12.26
11.06
10.39
10.02
9.47
8.21
5.85
2.39
-1.84
-6.32
-10.60
-14.49
-18.15
-22.01
-26.55
-32.20
-39.01
-46.56
-53.82
-59.26
-61.16
-58.17
-49.77
-36.64
-20.52
-3.66
11.79
24.40
33.59
39.50
42.60
43.39
42.30
39.70
36.10
32.06
28.23
25.05
22.70
21.05
19.78
18.60
17.34
16.04
14.82
13.81
12.95
12.03
10.69
8.61
5.63
1.87
-2.37
-6.73
-10.93
-14.89
-18.82
-23.08
-28.15
-34.35
-41.71
-49.79
-57.52
-63.34
-65.54
-62.74
-54.49
-41.48
-25.46
-8.69
6.75
19.44
28.83
35.04
38.52
39.69
38.89
36.47
32.86
28.65
24.50
20.92
18.14
16.12
14.64
13.51
12.71
12.29
12.31
12.64
12.88
12.47
10.91
7.97
3.82
-1.04
-5.98
-10.52
-14.56
-18.31
-22.25
-26.97
-32.93
-40.28
-48.61
-56.86
-63.36
-66.15
-63.62
-55.10
-41.26
-24.03
-6.04
10.23
23.09
31.92
37.03
39.17
39.15
37.58
34.87
31.40
27.55
23.71
20.18
17.13
14.62
12.60
11.01
9.81
8.85
7.97
6.87
5.29
3.03
0.06
-3.49
-7.40
-11.45
-15.54
-19.68
-24.03
-28.82
-34.39
-40.95
-48.44
-56.24
-63.05
-67.05
-66.41
-59.95
-47.73
-31.18
-12.72
4.98
19.82
30.78
37.88
41.85
43.56
43.65
42.47
40.15
36.86
32.90
28.74
24.85
21.57
19.06
17.25
15.95
14.91
13.88
12.62
10.92
8.67
5.85
2.52
-1.17
-5.08
-9.14
-13.37
-17.94
-23.11
-29.18
-36.40
-44.64
-53.22
-60.76
-65.33
-65.09
-58.88
-46.85
-30.52
-12.35
5.07
19.73
30.67
37.88
41.98
43.67
43.58
42.16
39.75
36.75
33.49
30.25
27.19
24.37
21.83
19.60
17.77
16.33
15.21
14.18
12.92
11.06
8.31
4.56
-0.06
-5.18
-10.37
-15.22
-19.58
-23.63
-27.84
-32.88
-39.29
-47.15
-55.77
-63.60
-68.49
-68.35
-61.84
-49.02
-31.46
-11.76
7.29
23.55
35.95
44.49
49.70
52.23
52.52
50.92
47.81
43.79
39.62
35.98
33.25
31.40
30.06
28.72
27.05
24.99
22.76
20.72
19.10
17.86
16.59
14.70
11.72
7.49
2.33
-3.13
-8.24
-12.63
-16.42
-20.15
-24.59
-30.42
-37.91
-46.66
-55.54
-62.79
-66.40
-64.70
-56.91
-43.58
-26.46
-7.99
9.38
23.87
34.65
41.72
45.60
46.91
46.25
44.13
41.11
37.72
34.45
31.54
29.04
26.76
24.54
22.32
20.24
18.57
17.52
17.09
16.97
16.61
15.38
12.82
8.85
3.77
-1.82
-7.31
-12.33
-16.87
-21.28
-26.14
-32.00
-39.20
-47.68
-56.77
-65.17
-71.01
-72.33
-67.67
-56.72
-40.55
-21.45
-2.22
14.66
27.71
36.57
41.76
44.16
44.52
43.39
41.11
37.97
34.34
30.60
27.08
23.98
21.37
19.25
17.59
16.34
15.42
14.63
13.70
12.29
10.12
7.10
3.31
-1.01
-5.55
-10.11
-14.67
-19.39
-24.63
-30.77
-38.12
-46.53
-55.22
-62.68
-66.91
-66.02
-58.93
-45.90
-28.57
-9.52
8.54
23.61
34.72
41.92
45.89
47.41
47.14
45.56
43.01
39.87
36.48
33.11
29.93
26.99
24.30
21.84
19.65
17.70
15.94
14.20
12.28
9.98
7.09
3.57
-0.55
-5.11
-9.83
-14.45
-18.84
-23.08
-27.54
-32.77
-39.32
-47.24
-55.81
-63.45
-67.95
-67.17
-59.88
-46.30
-28.17
-8.25
10.60
26.28
37.83
45.37
49.63
51.39
51.19
49.38
46.33
42.55
38.64
35.14
32.24
29.81
27.53
25.16
22.70
20.42
18.59
17.30
16.27
14.96
12.80
9.49
5.10
0.09
-4.97
-9.64
-13.77
-17.64
-21.74
-26.71
-33.02
-40.77
-49.39
-57.60
-63.49
-65.06
-60.81
-50.44
-35.02
-16.82
1.49
17.57
30.02
38.50
43.40
45.42
45.23
43.37
40.38
36.77
33.08
29.74
26.95
24.68
22.79
21.16
19.74
18.57
17.69
17.01
16.30
15.21
13.39
10.58
6.73
2.08
-2.96
-7.95
-12.57
-16.78
-20.88
-25.41
-30.93
-37.76
-45.68
-53.71
-60.19
-63.12
-60.82
-52.52
-38.83
-21.64
-3.56
12.88
25.94
34.96
40.18
42.37
42.29
40.49
37.40
33.42
29.04
24.73
20.91
17.69
15.00
12.72
10.77
9.23
8.21
7.66
7.32
6.73
5.44
3.17
-0.02
-3.81
-7.81
-11.75
-15.59
-19.51
-23.83
-28.92
-35.07
-42.40
-50.57
-58.64
-64.99
-67.62
-64.82
-55.81
-41.27
-23.24
-4.47
12.44
25.79
35.03
40.54
43.12
43.55
42.42
40.14
37.09
33.63
30.08
26.64
23.39
20.33
17.53
15.08
13.03
11.39
9.99
8.58
6.84
4.57
1.68
-1.75
-5.59
-9.69
-13.97
-18.43
-23.18
-28.44
-34.48
-41.53
-49.50
-57.70
-64.73
-68.66
-67.60
-60.44
-47.42
-30.19
-11.38
6.33
20.94
31.60
38.44
42.10
43.33
42.66
40.48
37.22
33.41
29.64
26.35
23.70
21.56
19.66
17.79
15.94
14.29
13.02
12.12
11.36
10.28
8.46
5.66
1.95
-2.37
-6.94
-11.49
-15.94
-20.45
-25.36
-31.08
-37.94
-45.88
-54.26
-61.67
-66.17
-65.85
-59.52
-47.30
-30.69
-12.19
5.55
20.48
31.60
38.89
42.95
44.53
44.27
42.60
39.90
36.57
33.02
29.59
26.46
23.65
21.08
18.70
16.57
14.78
13.44
12.47
11.60
10.38
8.38
5.39
1.50
-2.93
-7.39
-11.48
-15.12
-18.58
-22.36
-27.12
-33.31
-40.93
-49.30
-56.95
-61.94
-62.34
-56.91
-45.70
-30.11
-12.51
4.51
18.93
29.78
37.03
41.27
43.22
43.42
42.25
39.97
36.94
33.60
30.39
27.58
25.23
23.23
21.40
19.63
17.96
16.49
15.28
14.26
13.14
11.53
9.06
5.60
1.32
-3.34
-7.89
-11.97
-15.53
-18.92
-22.74
-27.61
-33.97
-41.72
-50.10
-57.64
-62.47
-62.80
-57.52
-46.67
-31.52
-14.27
2.69
17.36
28.65
36.32
40.78
42.65
42.48
40.77
37.96
34.55
31.06
27.87
25.13
22.80
20.72
18.77
16.96
15.38
14.13
13.16
12.23
11.01
9.12
6.33
2.62
-1.81
-6.59
-11.29
-15.61
-19.46
-23.11
-27.10
-32.15
-38.74
-46.83
-55.59
-63.30
-67.81
-67.11
-60.15
-47.27
-30.24
-11.64
5.86
20.34
30.95
37.81
41.55
42.88
42.31
40.24
37.11
33.48
30.02
27.26
25.37
24.16
23.17
21.97
20.40
18.64
17.12
16.16
15.82
15.68
15.08
13.33
10.02
5.23
-0.54
-6.54
-12.10
-16.85
-20.88
-24.71
-29.06
-34.62
-41.73
-50.16
-58.93
-66.41
-70.63
-69.83
-63.08
-50.67
-34.12
-15.78
1.90
17.05
28.68
36.77
41.79
44.35
44.96
43.94
41.59
38.36
34.84
31.64
29.22
27.72
26.93
26.45
25.82
24.80
23.40
21.86
20.47
19.41
18.61
17.73
16.31
13.90
10.27
5.43
-0.28
-6.35
-12.20
-17.44
-21.91
-25.82
-29.60
-33.79
-38.91
-45.26
-52.79
-60.90
-68.34
-73.32
-73.96
-68.87
-57.76
-41.73
-23.00
-4.18
12.52
25.86
35.58
42.13
46.05
47.76
47.46
45.36
41.92
37.82
33.83
30.55
28.27
26.91
26.20
25.81
25.49
25.10
24.60
23.95
23.07
21.90
20.35
18.42
16.15
13.54
10.56
7.09
3.02
-1.69
-6.91
-12.34
-17.61
-22.43
-26.70
-30.60
-34.53
-39.01
-44.47
-51.08
-58.42
-65.42
-70.36
-71.35
-66.92
-56.65
-41.52
-23.64
-5.61
10.35
22.94
31.92
37.72
41.00
42.18
41.49
39.17
35.64
31.63
27.97
25.32
23.93
23.61
23.82
23.98
23.72
22.99
22.01
21.10
20.47
20.10
19.70
18.81
16.99
13.95
9.68
4.45
-1.29
-7.01
-12.28
-16.91
-20.96
-24.78
-28.83
-33.63
-39.53
-46.57
-54.34
-61.79
-67.31
-69.11
-65.67
-56.43
-42.08
-24.49
-6.18
10.48
23.96
33.73
40.08
43.65
45.00
44.43
42.15
38.47
33.94
29.32
25.32
22.39
20.55
19.48
18.67
17.74
16.55
15.31
14.34
13.88
13.85
13.81
13.09
11.10
7.56
2.70
-2.91
-8.50
-13.55
-17.86
-21.65
-25.46
-29.87
-35.36
-42.21
-50.27
-58.90
-66.84
-72.34
-73.52
-68.96
-58.34
-42.72
-24.25
-5.60
10.93
24.00
33.38
39.55
43.20
44.75
44.40
42.22
38.55
34.05
29.62
26.03
23.67
22.42
21.80
21.25
20.37
19.14
17.78
16.67
16.06
15.92
15.92
15.49
14.04
11.19
6.92
1.60
-4.14
-9.67
-14.62
-18.98
-23.11
-27.56
-32.90
-39.49
-47.44
-56.39
-65.45
-73.13
-77.56
-76.88
-69.93
-56.78
-38.86
-18.67
1.01
17.94
30.93
39.88
45.42
48.35
49.27
48.53
46.29
42.83
38.61
34.30
30.56
27.87
26.37
25.86
25.87
25.89
25.56
24.75
23.60
22.35
21.23
20.22
19.02
17.13
14.08
9.66
4.03
-2.24
-8.46
-14.08
-18.89
-23.15
-27.38
-32.18
-38.00
-45.06
-53.25
-62.04
-70.37
-76.62
-78.88
-75.50
-65.77
-50.36
-31.26
-11.19
7.25
22.32
33.43
40.89
45.43
47.72
48.13
46.88
44.22
40.58
36.60
32.95
30.09
28.18
27.02
26.24
25.49
24.64
23.76
23.09
22.76
22.70
22.57
21.85
20.03
16.81
12.14
6.33
-0.11
-6.54
-12.43
-17.51
-21.84
-25.81
-29.98
-34.90
-40.98
-48.29
-56.47
-64.63
-71.30
-74.64
-72.93
-65.17
-51.60
-33.80
-14.25
4.40
20.14
31.99
39.98
44.66
46.70
46.61
44.76
41.59
37.65
33.65
30.17
27.52
25.65
24.25
22.93
21.51
20.05
18.86
18.25
18.32
18.76
18.93
18.06
15.58
11.38
5.86
-0.23
-6.08
-11.13
-15.27
-18.86
-22.54
-27.04
-32.93
-40.37
-48.95
-57.59
-64.58
-67.96
-66.05
-58.09
-44.59
-27.29
-8.74
8.51
22.58
32.63
38.78
41.76
42.37
41.25
38.79
35.28
31.08
26.68
22.57
19.10
16.41
14.39
12.85
11.63
10.74
10.23
10.09
10.12
9.86
8.77
6.42
2.72
-1.98
-7.06
-11.85
-16.00
-19.55
-23.03
-27.16
-32.62
-39.75
-48.27
-57.15
-64.67
-68.79
-67.63
-60.24
-46.92
-29.37
-10.14
8.09
23.28
34.38
41.35
44.73
45.30
43.77
40.74
36.80
32.54
28.46
24.84
21.73
19.01
16.52
14.26
12.44
11.29
10.95
11.21
11.57
11.38
10.05
7.36
3.46
-1.12
-5.81
-10.22
-14.28
-18.23
-22.59
-27.92
-34.62
-42.68
-51.45
-59.52
-64.93
-65.65
-60.31
-48.75
-32.27
-13.28
5.39
21.39
33.30
40.83
44.51
45.26
43.98
41.46
38.34
35.18
32.37
30.10
28.29
26.66
24.90
22.83
20.57
18.48
16.95
16.21
16.13
16.21
15.76
14.10
10.90
6.24
0.60
-5.32
-10.91
-15.86
-20.29
-24.67
-29.71
-36.06
-44.01
-53.17
-62.32
-69.48
-72.44
-69.40
-59.73
-44.34
-25.50
-6.07
11.40
25.37
35.48
42.22
46.31
48.30
48.44
46.87
43.93
40.26
36.66
33.85
32.15
31.35
30.91
30.17
28.74
26.63
24.22
22.04
20.46
19.50
18.77
17.62
15.42
11.82
6.85
0.94
-5.27
-11.20
-16.46
-21.00
-25.09
-29.19
-33.89
-39.68
-46.81
-55.04
-63.52
-70.67
-74.54
-73.26
-65.78
-52.32
-34.48
-14.79
4.08
20.07
32.16
40.32
45.14
47.34
47.50
46.03
43.32
39.82
36.15
32.91
30.51
29.09
28.46
28.21
27.85
27.02
25.67
23.99
22.38
21.13
20.27
19.47
18.09
15.53
11.43
5.95
-0.34
-6.63
-12.22
-16.79
-20.49
-23.89
-27.70
-32.56
-38.83
-46.46
-54.87
-62.99
-69.31
-72.10
-69.88
-61.89
-48.49
-31.18
-12.27
5.80
21.10
32.59
40.15
44.26
45.52
44.54
41.84
37.98
33.60
29.42
25.99
23.58
22.09
21.16
20.36
19.36
18.12
16.82
15.74
15.11
14.88
14.68
13.90
11.94
8.46
3.65
-1.89
-7.35
-12.09
-15.93
-19.23
-22.72
-27.21
-33.31
-41.15
-50.26
-59.46
-67.01
-70.87
-69.30
-61.49
-47.96
-30.58
-11.95
5.34
19.55
30.02
36.99
41.11
42.95
42.84
40.99
37.83
34.00
30.27
27.26
25.11
23.57
22.13
20.42
18.36
16.24
14.52
13.50
13.16
13.08
12.58
10.96
7.81
3.18
-2.45
-8.35
-13.81
-18.43
-22.32
-26.00
-30.22
-35.71
-42.84
-51.46
-60.65
-68.84
-74.01
-74.22
-68.27
-56.16
-39.24
-19.88
-0.72
16.04
29.11
38.22
43.74
46.35
46.73
45.44
42.96
39.75
36.28
32.92
29.89
27.25
24.90
22.70
20.58
18.61
16.94
15.74
15.03
14.60
13.93
12.40
9.52
5.14
-0.39
-6.42
-12.22
-17.36
-21.86
-26.20
-31.15
-37.40
-45.29
-54.43
-63.64
-71.02
-74.40
-71.97
-62.99
-48.20
-29.65
-10.12
7.79
22.38
33.05
40.17
44.42
46.43
46.59
45.14
42.38
38.88
35.31
32.30
30.16
28.85
27.99
27.11
25.85
24.16
22.24
20.51
19.31
18.69
18.31
17.51
15.58
12.07
7.00
0.90
-5.44
-11.30
-16.29
-20.50
-24.38
-28.56
-33.63
-39.94
-47.56
-56.11
-64.67
-71.78
-75.55
-74.18
-66.60
-53.01
-34.99
-15.15
3.69
19.36
30.85
38.29
42.50
44.42
44.68
43.58
41.27
38.06
34.44
31.06
28.42
26.72
25.78
25.23
24.70
24.00
23.18
22.42
21.88
21.56
21.25
20.52
18.88
15.93
11.54
5.92
-0.38
-6.68
-12.37
-17.18
-21.25
-25.06
-29.27
-34.42
-40.85
-48.48
-56.82
-64.86
-71.14
-73.94
-71.70
-63.58
-49.93
-32.33
-13.18
5.01
20.38
32.05
40.08
44.99
47.36
47.54
45.79
42.44
38.12
33.65
29.85
27.22
25.82
25.31
25.19
25.01
24.56
23.87
23.13
22.52
22.08
21.58
20.58
18.58
15.17
10.34
4.43
-1.89
-7.91
-13.14
-17.42
-21.05
-24.56
-28.63
-33.82
-40.42
-48.27
-56.63
-64.17
-69.11
-69.69
-64.72
-54.06
-38.80
-20.98
-3.01
13.00
25.69
34.60
39.92
42.21
42.07
40.11
36.91
33.09
29.22
25.74
22.82
20.39
18.24
16.21
14.30
12.71
11.68
11.33
11.47
11.66
11.24
9.66
6.66
2.31
-2.94
-8.48
-13.74
-18.43
-22.55
-26.51
-30.91
-36.40
-43.40
-51.82
-60.80
-68.70
-73.44
-73.04
-66.38
-53.66
-36.48
-17.39
0.96
16.51
28.25
36.15
40.77
42.80
42.83
41.27
38.49
34.92
30.99
27.08
23.44
20.19
17.35
14.94
13.02
11.61
10.70
10.15
9.65
8.79
7.12
4.34
0.34
-4.64
-10.10
-15.46
-20.33
-24.66
-28.89
-33.73
-39.93
-47.79
-56.81
-65.54
-71.83
-73.41
-68.68
-57.40
-40.85
-21.47
-2.10
14.90
28.14
37.35
42.96
45.69
46.19
44.93
42.37
39.07
35.62
32.52
30.04
28.09
26.36
24.53
22.46
20.32
18.40
16.95
15.93
14.95
13.45
10.94
7.25
2.58
-2.55
-7.61
-12.27
-16.56
-20.86
-25.77
-31.90
-39.64
-48.88
-58.77
-67.72
-73.63
-74.48
-68.97
-57.13
-40.35
-21.03
-1.78
15.28
28.98
39.05
45.78
49.64
51.03
50.32
47.98
44.67
41.19
38.18
35.99
34.54
33.46
32.30
30.83
29.05
27.25
25.75
24.66
23.82
22.71
20.72
17.35
12.48
6.41
-0.17
-6.48
-11.97
-16.47
-20.33
-24.23
-29.02
-35.35
-43.46
-52.87
-62.36
-70.04
-73.75
-71.67
-62.99
-48.28
-29.49
-9.36
9.42
24.97
36.53
44.32
49.00
51.22
51.35
49.58
46.24
41.95
37.61
34.11
31.97
31.12
31.02
30.87
30.10
28.57
26.65
24.90
23.78
23.32
23.03
22.05
19.58
15.22
9.18
2.24
-4.65
-10.68
-15.56
-19.56
-23.37
-27.78
-33.43
-40.63
-49.25
-58.62
-67.49
-74.02
-76.25
-72.53
-62.27
-46.30
-26.73
-6.38
12.17
27.20
38.15
45.33
49.42
51.04
50.55
48.23
44.47
39.95
35.50
31.92
29.63
28.55
28.19
27.91
27.24
26.11
24.86
23.92
23.53
23.45
23.02
21.38
17.93
12.67
6.19
-0.57
-6.74
-11.86
-16.01
-19.75
-23.81
-28.88
-35.35
-43.25
-52.09
-60.82
-67.87
-71.45
-69.94
-62.55
-49.64
-32.77
-14.23
3.63
18.97
30.80
38.93
43.58
45.20
44.27
41.38
37.25
32.73
28.59
25.33
23.00
21.39
20.09
18.85
17.61
16.49
15.68
15.23
14.98
14.55
13.50
11.42
8.08
3.52
-1.94
-7.81
-13.58
-18.92
-23.82
-28.61
-33.80
-39.92
-47.21
-55.42
-63.59
-70.15
-73.21
-71.09
-62.96
-49.21
-31.52
-12.43
5.48
20.26
31.07
38.04
41.92
43.50
43.37
41.89
39.29
35.86
31.99
28.13
24.58
21.53
19.03
17.06
15.65
14.80
14.42
14.31
14.08
13.21
11.28
8.06
3.60
-1.74
-7.45
-13.05
-18.29
-23.26
-28.31
-34.00
-40.76
-48.69
-57.18
-64.87
-69.79
-69.96
-64.03
-51.96
-35.11
-15.92
2.87
19.09
31.62
40.32
45.70
48.36
48.78
47.27
44.24
40.32
36.27
32.80
30.21
28.36
26.75
24.86
22.47
19.78
17.29
15.48
14.48
13.93
13.09
11.14
7.63
2.60
-3.37
-9.52
-15.20
-20.11
-24.39
-28.53
-33.18
-39.01
-46.46
-55.50
-65.36
-74.43
-80.47
-81.21
-75.15
-62.22
-43.95
-23.04
-2.47
15.44
29.43
39.38
45.79
49.28
50.31
49.19
46.30
42.28
38.00
34.30
31.74
30.39
29.84
29.51
28.86
27.71
26.22
24.74
23.62
22.93
22.44
21.59
19.82
16.69
12.14
6.46
0.25
-5.86
-11.39
-16.20
-20.52
-24.79
-29.61
-35.48
-42.64
-50.89
-59.44
-66.89
-71.38
-71.15
-65.07
-53.22
-36.98
-18.64
-0.73
14.80
26.94
35.59
41.16
44.13
44.82
43.49
40.51
36.53
32.43
29.01
26.74
25.64
25.26
24.98
24.31
23.10
21.57
20.18
19.35
19.15
19.21
18.84
17.28
14.10
9.33
3.48
-2.74
-8.70
-14.05
-18.81
-23.28
-27.88
-33.09
-39.21
-46.34
-54.10
-61.55
-67.13
-69.05
-65.76
-56.64
-42.33
-24.67
-6.18
10.77
24.54
34.54
41.01
44.56
45.82
45.23
43.14
39.99
36.38
32.97
30.25
28.37
27.12
26.12
25.00
23.68
22.31
21.17
20.43
19.98
19.41
18.15
15.71
11.93
7.05
1.64
-3.59
-8.11
-11.74
-14.79
-17.93
-21.96
-27.51
-34.68
-42.76
-50.26
-55.14
-55.44
-49.88
-38.44
-22.45
-4.25
13.52
28.66
39.84
46.75
49.81
49.84
47.71
44.25
40.13
35.89
31.90
28.35
25.23
22.44
19.88
17.57
15.67
14.38
13.85
14.03
14.60
15.07
14.94
13.95
12.13
9.86
7.65
5.97
4.97
4.45
3.81
2.34
-0.46
-4.51
-8.86
-11.71
-10.81
-4.07
9.57
29.54
53.55
78.01
99.00
113.35
119.43
117.27
108.29
94.54
78.06
60.43
42.71
25.66
9.84
-4.22
-16.20
-26.04
-34.08
-40.90
-47.11
-53.16
-59.15
-64.82
-69.71
-73.38
-75.63
-76.57
-76.53
-75.97
-75.28
-74.69
-74.32
-74.23
-74.44
-74.88
-75.26
-75.03
-73.47
-69.85
-63.75
-55.29
-45.09
-34.19
-23.70
-14.57
-7.41
-2.38
0.66
2.03
2.16
1.38
-0.07
-2.03
-4.42
-7.11
-9.94
-12.66
-15.03
-16.82
-17.96
-18.55
-18.86
-19.28
-20.13
-21.64
-23.80
-26.46
-29.39
-32.44
-35.61
-39.08
-43.13
-48.10
-54.13
-61.13
-68.44
-74.78
-78.39
-77.39
-70.44
-57.32
-39.19
-18.35
2.41
20.68
35.03
45.10
51.42
54.83
56.14
55.92
54.57
52.45
49.90
47.27
44.74
42.36
40.07
37.79
35.51
33.35
31.42
29.73
28.10
26.23
23.69
20.22
15.79
10.67
5.30
0.12
-4.67
-9.21
-13.90
-19.33
-25.98
-34.01
-43.02
-51.96
-59.25
-62.99
-61.53
-54.06
-40.95
-23.86
-5.26
12.27
26.77
37.31
43.93
47.34
48.36
47.67
45.72
42.85
39.43
35.94
32.79
30.23
28.23
26.57
24.94
23.17
21.32
19.65
18.40
17.63
17.06
16.16
14.33
11.22
6.87
1.74
-3.50
-8.28
-12.40
-16.08
-19.87
-24.42
-30.24
-37.37
-45.26
-52.69
-57.95
-59.23
-55.19
-45.52
-31.10
-13.90
3.67
19.45
32.06
41.07
46.69
49.45
49.86
48.30
45.21
41.15
36.79
32.80
29.58
27.20
25.42
23.85
22.21
20.48
18.83
17.48
16.43
15.40
13.84
11.25
7.38
2.42
-3.12
-8.54
-13.41
-17.65
-21.61
-25.93
-31.28
-38.13
-46.46
-55.62
-64.25
-70.38
-71.97
-67.51
-56.66
-40.54
-21.45
-2.16
14.89
28.28
37.64
43.41
46.34
47.09
46.09
43.73
40.42
36.70
33.05
29.79
26.96
24.40
21.92
19.47
17.17
15.21
13.70
12.49
11.22
9.39
6.64
2.89
-1.65
-6.52
-11.27
-15.72
-19.96
-24.43
-29.70
-36.22
-44.03
-52.53
-60.44
-65.96
-67.30
-63.17
-53.35
-38.80
-21.49
-3.77
12.27
25.25
34.71
40.83
44.11
45.12
44.37
42.30
39.43
36.25
33.18
30.42
27.98
25.69
23.42
21.12
18.93
17.09
15.76
14.93
14.31
13.38
11.55
8.45
4.08
-1.17
-6.65
-11.81
-16.36
-20.44
-24.55
-29.29
-35.14
-42.23
-50.20
-58.14
-64.66
-68.08
-66.89
-60.20
-48.15
-32.03
-13.99
3.54
18.60
30.04
37.76
42.25
44.26
44.42
43.17
40.84
37.83
34.69
31.93
29.90
28.62
27.83
27.16
26.33
25.35
24.38
23.63
23.11
22.57
21.54
19.47
16.03
11.25
5.52
-0.52
-6.26
-11.34
-15.81
-20.11
-24.90
-30.78
-38.01
-46.26
-54.57
-61.48
-65.37
-64.89
-59.37
-49.12
-35.36
-19.93
-4.81
8.42
18.89
26.37
31.13
33.65
34.34
33.53
31.56
28.83
25.85
23.17
21.15
19.93
19.34
19.05
18.77
18.42
18.09
17.95
18.04
18.12
17.67
16.14
13.16
8.77
3.46
-2.08
-7.22
-11.66
-15.55
-19.38
-23.75
-29.16
-35.78
-43.34
-51.08
-57.75
-61.83
-61.89
-57.01
-47.17
-33.36
-17.34
-1.20
13.19
24.70
32.90
38.00
40.49
40.88
39.58
36.99
33.51
29.69
26.04
22.99
20.71
19.14
18.03
17.09
16.15
15.21
14.39
13.81
13.45
13.05
12.20
10.43
7.46
3.32
-1.64
-6.79
-11.55
-15.62
-19.13
-22.59
-26.70
-32.05
-38.88
-46.87
-55.10
-62.17
-66.46
-66.52
-61.50
-51.43
-37.36
-21.09
-4.70
9.98
21.78
30.23
35.46
37.96
38.26
36.86
34.21
30.72
26.81
22.84
19.16
15.99
13.50
11.71
10.56
9.90
9.46
8.96
8.11
6.64
4.45
1.58
-1.81
-5.45
-9.17
-12.98
-17.06
-21.80
-27.64
-34.80
-43.18
-52.15
-60.56
-66.87
-69.51
-67.30
-59.90
-48.00
-33.22
-17.66
-3.37
8.18
16.33
21.11
23.11
23.02
21.45
18.87
15.58
11.92
8.24
4.96
2.46
1.02
0.72
1.42
2.81
4.46
5.90
6.74
6.68
5.54
3.36
0.31
-3.29
-7.17
-11.13
-15.13
-19.32
-23.95
-29.36
-35.76
-43.10
-50.78
-57.53
-61.63
-61.31
-55.42
-44.03
-28.57
-11.45
4.71
17.86
27.04
32.35
34.59
34.70
33.40
31.14
28.17
24.70
20.97
17.22
13.58
10.15
6.94
4.05
1.59
-0.29
-1.56
-2.32
-2.85
-3.45
-4.36
-5.65
-7.26
-9.08
-11.03
-13.11
-15.33
-17.81
-20.70
-24.09
-27.75
-30.90
-32.07
-29.35
-21.03
-6.40
13.74
37.13
60.76
81.87
98.72
110.91
119.00
123.85
126.06
125.83
123.15
118.24
111.72
104.62
98.10
93.08
90.06
88.97
89.40
90.74
92.40
93.93
94.99
95.27
94.50
92.44
88.98
84.21
78.38
71.74
64.39
56.19
46.77
35.81
23.32
9.88
-3.37
-15.02
-23.79
-28.98
-30.51
-28.86
-24.81
-19.20
-12.81
-6.39
-0.74
3.37
5.33
4.85
2.01
-2.70
-8.67
-15.23
-21.85
-28.18
-34.01
-39.30
-44.06
-48.35
-52.17
-55.41
-57.87
-59.35
-59.77
-59.34
-58.52
-57.93
-58.17
-59.68
-62.51
-66.41
-70.79
-74.91
-78.00
-79.51
-79.18
-77.12
-73.75
-69.67
-65.45
-61.58
-58.40
-56.14
-55.00
-55.22
-57.10
-60.91
-66.77
-74.48
-83.28
-91.88
-98.62
-101.93
-100.86
-95.54
-87.24
-77.93
-69.70
-64.03
-61.48
-61.83
-64.41
-68.67
-74.45
-81.87
-91.01
-101.48
-112.20
-121.37
-126.90
-126.85
-120.00
-106.18
-86.33
-62.22
-36.11
-10.27
13.27
32.89
47.33
55.69
57.55
53.18
43.80
31.45
18.74
8.10
1.15
-1.77
-1.53
0.32
2.22
3.20
3.06
2.17
1.01
-0.24
-1.89
-4.68
-9.53
-17.09
-27.42
-39.60
-51.73
-61.24
-65.50
-62.60
-52.02
-34.83
-13.34
9.67
31.71
51.13
67.18
79.70
88.70
94.14
95.95
94.29
89.77
83.47
76.69
70.51
65.48
61.50
58.02
54.38
50.24
45.69
41.17
37.18
33.95
31.26
28.51
24.86
19.49
11.69
1.09
-12.15
-27.14
-42.11
-54.55
-61.82
-61.78
-53.62
-38.20
-17.78
4.56
25.90
44.17
58.38
68.42
74.68
77.60
77.52
74.83
70.10
64.18
58.04
52.47
47.72
43.45
38.93
33.53
27.15
20.28
13.88
8.82
5.43
3.33
1.52
-1.25
-6.15
-13.90
-24.60
-37.57
-51.28
-63.46
-71.49
-73.05
-66.90
-53.30
-33.99
-11.67
10.87
31.36
48.44
61.55
70.58
75.61
76.76
74.35
69.03
61.84
54.05
46.78
40.73
35.97
32.07
28.40
24.53
20.39
16.30
12.73
9.95
7.81
5.70
2.65
-2.39
-10.24
-21.17
-34.56
-48.80
-61.36
-69.33
-70.24
-62.86
-47.70
-26.92
-3.61
19.12
39.00
54.90
66.63
74.50
78.81
79.71
77.35
72.14
64.95
57.01
49.58
43.53
39.09
35.87
33.11
30.09
26.46
22.34
18.23
14.64
11.78
9.42
6.90
3.34
-2.11
-10.05
-20.66
-33.45
-47.20
-59.87
-68.89
-71.73
-66.66
-53.39
-33.34
-9.38
15.06
36.86
54.05
65.96
73.01
76.16
76.38
74.39
70.57
65.31
59.02
52.33
45.92
40.38
36.08
33.05
31.09
29.79
28.72
27.43
25.60
23.02
19.60
15.39
10.49
5.06
-0.79
-7.02
-13.74
-21.25
-29.96
-40.27
-52.08
-64.54
-75.75
-83.07
-83.84
-76.35
-60.57
-38.39
-13.09
11.74
33.17
49.58
60.65
66.98
69.49
69.05
66.42
62.24
57.12
51.64
46.25
41.24
36.77
32.93
29.83
27.55
26.07
25.16
24.34
23.08
20.90
17.61
13.33
8.38
3.14
-2.11
-7.34
-12.71
-18.64
-25.66
-34.33
-44.86
-56.77
-68.63
-78.08
-82.48
-79.65
-68.82
-50.95
-28.55
-4.89
16.93
34.77
47.66
55.70
59.62
60.30
58.53
54.90
49.87
43.87
37.39
31.00
25.24
20.58
17.23
15.12
14.00
13.48
13.13
12.57
11.47
9.63
6.93
3.33
-1.09
-6.21
-11.87
-17.98
-24.53
-31.70
-39.79
-49.00
-59.10
-69.05
-77.00
-80.67
-78.06
-68.35
-52.32
-32.28
-11.28
7.82
23.14
34.03
40.84
44.36
45.34
44.26
41.35
36.83
31.09
24.76
18.58
13.25
9.22
6.60
5.13
4.37
3.83
3.12
2.02
0.46
-1.55
-3.96
-6.75
-9.92
-13.46
-17.42
-21.96
-27.35
-33.97
-42.05
-51.38
-61.00
-69.19
-73.75
-72.70
-65.04
-51.18
-32.97
-13.11
5.67
21.34
32.91
40.40
44.38
45.57
44.56
41.75
37.48
32.19
26.43
20.80
15.84
11.88
9.04
7.20
6.12
5.48
5.00
4.36
3.32
1.70
-0.60
-3.61
-7.26
-11.43
-16.02
-21.02
-26.55
-32.86
-40.27
-48.79
-57.88
-66.18
-71.75
-72.56
-67.24
-55.65
-39.08
-19.88
-0.72
16.17
29.47
38.75
44.27
46.56
46.24
43.87
40.03
35.29
30.19
25.17
20.58
16.61
13.40
11.00
9.45
8.67
8.50
8.61
8.62
8.10
6.72
4.32
0.93
-3.25
-7.95
-12.85
-17.70
-22.34
-26.82
-31.54
-37.08
-43.96
-52.17
-60.74
-67.79
-70.97
-68.37
-59.30
-44.66
-26.66
-8.05
8.80
22.45
32.41
38.88
42.27
43.03
41.50
38.18
33.64
28.62
23.82
19.73
16.55
14.22
12.50
11.20
10.27
9.80
9.89
10.49
11.26
11.61
10.91
8.70
4.95
0.02
-5.47
-10.87
-15.76
-20.12
-24.30
-28.97
-34.79
-42.13
-50.70
-59.40
-66.42
-69.67
-67.50
-59.26
-45.68
-28.60
-10.43
6.53
20.73
31.40
38.51
42.32
43.26
41.70
38.14
33.22
27.73
22.39
17.75
14.02
11.15
8.95
7.29
6.22
5.84
6.22
7.19
8.29
8.84
8.20
6.00
2.30
-2.42
-7.47
-12.21
-16.36
-20.07
-23.81
-28.28
-34.04
-41.36
-49.92
-58.72
-66.18
-70.36
-69.54
-62.75
-50.24
-33.44
-14.70
3.46
18.93
30.54
38.00
41.71
42.42
40.84
37.60
33.17
27.98
22.46
17.04
12.13
8.08
5.09
3.20
2.34
2.25
2.59
2.93
2.86
2.02
0.21
-2.64
-6.40
-10.78
-15.49
-20.34
-25.28
-30.55
-36.54
-43.69
-52.09
-61.22
-69.78
-75.86
-77.41
-72.95
-62.20
-46.30
-27.51
-8.56
8.16
21.22
30.27
35.78
38.57
39.27
38.25
35.63
31.55
26.35
20.67
15.27
10.84
7.76
5.98
5.14
4.70
4.17
3.25
1.86
0.07
-2.03
-4.38
-7.07
-10.23
-14.05
-18.72
-24.44
-31.38
-39.65
-48.98
-58.61
-67.11
-72.59
-73.20
-67.74
-56.12
-39.60
-20.40
-1.13
15.96
29.40
38.72
44.18
46.46
46.25
44.14
40.51
35.72
30.22
24.59
19.49
15.45
12.77
11.39
10.91
10.80
10.49
9.61
8.07
5.94
3.37
0.51
-2.63
-6.17
-10.30
-15.28
-21.39
-28.91
-37.97
-48.28
-58.90
-68.19
-74.00
-74.29
-67.86
-54.88
-36.97
-16.75
2.96
19.88
32.77
41.45
46.38
48.29
47.84
45.49
41.58
36.55
30.98
25.56
20.95
17.60
15.62
14.73
14.47
14.24
13.61
12.33
10.39
7.93
5.09
1.91
-1.72
-5.98
-11.10
-17.29
-24.73
-33.44
-43.21
-53.33
-62.44
-68.66
-70.02
-65.10
-53.61
-36.61
-16.33
4.51
23.43
38.72
49.62
56.19
58.99
58.74
56.16
51.91
46.58
40.77
35.05
30.01
26.13
23.70
22.63
22.56
22.86
22.82
21.91
19.91
16.93
13.29
9.35
5.32
1.18
-3.28
-8.38
-14.45
-21.81
-30.64
-40.85
-51.83
-62.33
-70.47
-74.11
-71.49
-61.86
-45.86
-25.49
-3.51
17.27
34.71
47.69
56.05
60.26
61.11
59.37
55.74
50.84
45.29
39.67
34.56
30.43
27.57
26.07
25.77
26.32
27.19
27.81
27.64
26.31
23.63
19.63
14.57
8.75
2.54
-3.82
-10.23
-16.86
-24.10
-32.42
-42.09
-52.87
-63.68
-72.64
-77.37
-75.75
-66.71
-50.76
-29.95
-7.39
13.78
31.18
43.74
51.59
55.55
56.60
55.43
52.39
47.70
41.74
35.13
28.72
23.35
19.60
17.59
16.98
17.14
17.34
17.03
15.93
14.00
11.34
8.09
4.36
0.20
-4.35
-9.27
-14.66
-20.79
-28.08
-36.92
-47.34
-58.57
-68.91
-76.01
-77.44
-71.62
-58.39
-39.26
-16.98
5.27
24.76
39.86
50.12
56.01
58.41
58.19
56.01
52.37
47.69
42.48
37.31
32.72
29.09
26.57
25.08
24.35
24.03
23.74
23.15
21.97
20.00
17.18
13.55
9.23
4.40
-0.76
-6.15
-11.82
-18.04
-25.25
-33.87
-43.93
-54.69
-64.53
-71.16
-72.31
-66.46
-53.57
-35.15
-13.84
7.39
26.05
40.68
50.79
56.66
58.91
58.23
55.30
50.87
45.73
40.67
36.33
32.98
30.58
28.78
27.28
25.94
24.90
24.36
24.43
24.82
24.90
23.88
21.13
16.49
10.31
3.37
-3.50
-9.71
-15.12
-20.04
-25.18
-31.33
-39.10
-48.55
-58.90
-68.48
-75.01
-76.17
-70.42
-57.63
-39.24
-17.88
3.47
22.26
36.95
47.10
53.03
55.40
54.89
52.15
47.83
42.69
37.50
32.86
29.08
26.13
23.85
22.06
20.77
20.11
20.22
20.98
21.97
22.51
21.87
19.60
15.64
10.39
4.49
-1.38
-6.79
-11.65
-16.29
-21.33
-27.45
-35.10
-44.21
-53.91
-62.54
-67.99
-68.25
-62.18
-49.95
-33.11
-14.15
4.30
20.13
32.22
40.39
45.04
46.78
46.16
43.66
39.75
35.01
30.09
25.57
21.83
18.95
16.80
15.18
13.94
13.10
12.75
12.87
13.21
13.25
12.38
10.12
6.32
1.26
-4.51
-10.34
-15.77
-20.65
-25.15
-29.69
-34.87
-41.23
-49.01
-57.86
-66.64
-73.49
-76.31
-73.38
-64.10
-49.28
-30.93
-11.70
5.97
20.39
30.86
37.44
40.65
41.07
39.28
35.79
31.19
26.07
21.03
16.54
12.88
10.18
8.38
7.42
7.18
7.53
8.27
9.05
9.42
8.86
7.00
3.69
-0.82
-6.05
-11.38
-16.34
-20.83
-25.12
-29.86
-35.74
-43.11
-51.66
-60.23
-67.01
-69.96
-67.54
-59.22
-45.76
-29.02
-11.30
5.24
19.08
29.52
36.49
40.27
41.31
40.11
37.27
33.44
29.29
25.34
21.87
18.93
16.45
14.34
12.63
11.44
10.91
11.02
11.53
11.96
11.68
10.14
7.08
2.67
-2.60
-8.02
-13.07
-17.53
-21.63
-25.97
-31.25
-37.99
-46.22
-55.21
-63.52
-69.17
-70.28
-65.57
-54.94
-39.55
-21.54
-3.37
12.83
25.72
34.87
40.49
43.10
43.25
41.42
38.08
33.76
29.09
24.68
21.01
18.30
16.53
15.44
14.76
14.32
14.08
14.10
14.40
14.82
14.99
14.38
12.44
8.91
3.88
-2.16
-8.47
-14.37
-19.45
-23.70
-27.50
-31.52
-36.46
-42.81
-50.60
-59.14
-67.02
-72.35
-73.21
-68.33
-57.53
-41.91
-23.58
-5.00
11.67
25.07
34.67
40.64
43.41
43.46
41.28
37.39
32.50
27.46
23.11
19.99
18.28
17.68
17.65
17.64
17.34
16.74
16.08
15.63
15.47
15.31
14.59
12.66
9.13
4.05
-2.02
-8.24
-13.83
-18.40
-22.13
-25.62
-29.72
-35.14
-42.18
-50.54
-59.21
-66.56
-70.72
-69.98
-63.44
-51.31
-34.98
-16.60
1.50
17.48
30.21
39.36
45.05
47.60
47.38
44.82
40.56
35.41
30.27
25.93
22.88
21.17
20.48
20.29
20.15
19.81
19.28
18.74
18.37
18.16
17.85
16.91
14.81
11.21
6.18
0.20
-5.99
-11.71
-16.60
-20.74
-24.64
-29.02
-34.59
-41.72
-50.20
-59.09
-66.78
-71.30
-70.84
-64.38
-52.08
-35.35
-16.45
2.20
18.63
31.68
40.94
46.51
48.71
47.93
44.64
39.55
33.56
27.68
22.70
19.05
16.65
15.14
14.04
13.07
12.23
11.73
11.79
12.44
13.33
13.85
13.29
11.10
7.16
1.78
-4.37
-10.55
-16.20
-21.10
-25.47
-29.83
-34.84
-41.11
-48.89
-57.86
-67.00
-74.60
-78.59
-77.16
-69.38
-55.62
-37.55
-17.67
1.43
17.73
30.12
38.36
42.78
43.96
42.54
39.22
34.76
29.98
25.61
22.10
19.57
17.81
16.51
15.42
14.48
13.80
13.57
13.82
14.34
14.67
14.18
12.34
8.89
3.97
-1.92
-8.11
-14.01
-19.31
-24.12
-28.91
-34.36
-41.08
-49.33
-58.71
-68.04
-75.45
-78.82
-76.42
-67.50
-52.67
-33.79
-13.42
5.89
22.19
34.52
42.71
47.18
48.54
47.42
44.42
40.21
35.52
31.08
27.45
24.90
23.31
22.33
21.59
20.87
20.27
20.02
20.28
20.96
21.59
21.44
19.83
16.34
11.04
4.46
-2.63
-9.49
-15.67
-21.16
-26.38
-31.99
-38.63
-46.69
-55.95
-65.51
-73.75
-78.64
-78.30
-71.56
-58.50
-40.50
-19.96
0.40
18.28
32.29
42.04
47.89
50.52
50.59
48.65
45.19
40.79
36.13
31.88
28.54
26.29
24.97
24.24
23.76
23.39
23.19
23.28
23.68
24.11
24.02
22.76
19.84
15.11
8.95
2.07
-4.67
-10.61
-15.51
-19.66
-23.80
-28.87
-35.66
-44.41
-54.57
-64.67
-72.55
-75.94
-73.10
-63.47
-47.92
-28.56
-8.11
10.94
26.80
38.67
46.53
50.80
52.02
50.74
47.55
43.15
38.35
33.91
30.35
27.84
26.25
25.27
24.59
24.08
23.78
23.80
24.20
24.81
25.25
24.96
23.36
20.10
15.19
9.01
2.23
-4.39
-10.33
-15.46
-20.06
-24.75
-30.26
-37.14
-45.58
-55.13
-64.68
-72.48
-76.50
-75.00
-67.07
-53.07
-34.56
-13.94
6.29
24.07
38.20
48.26
54.42
57.03
56.56
53.56
48.70
42.86
36.98
31.86
27.94
25.27
23.53
22.32
21.34
20.54
20.05
20.00
20.30
20.56
20.15
18.44
15.06
10.11
4.12
-2.18
-8.11
-13.32
-17.89
-22.30
-27.22
-33.32
-40.98
-50.05
-59.71
-68.41
-74.13
-74.88
-69.34
-57.37
-40.18
-20.10
0.15
18.15
32.35
42.18
47.87
50.04
49.41
46.63
42.36
37.20
31.79
26.63
22.11
18.39
15.56
13.63
12.59
12.35
12.69
13.24
13.50
12.98
11.32
8.37
4.22
-0.85
-6.45
-12.23
-17.94
-23.66
-29.72
-36.70
-45.03
-54.66
-64.66
-73.21
-78.01
-76.98
-69.02
-54.52
-35.32
-14.23
5.87
22.72
35.18
43.21
47.45
48.80
48.05
45.71
42.08
37.46
32.27
27.01
22.24
18.38
15.64
13.99
13.22
13.00
12.98
12.79
12.13
10.71
8.40
5.14
1.02
-3.76
-8.99
-14.46
-20.14
-26.23
-33.18
-41.42
-51.01
-61.18
-70.25
-75.86
-75.77
-68.65
-54.75
-35.89
-14.92
5.19
22.17
34.83
43.11
47.59
49.11
48.44
46.19
42.85
38.92
34.88
31.16
28.05
25.66
23.94
22.82
22.21
22.04
22.21
22.49
22.53
21.84
20.00
16.76
12.19
6.65
0.67
-5.30
-11.02
-16.63
-22.66
-29.75
-38.34
-48.27
-58.46
-67.02
-71.70
-70.57
-62.75
-48.78
-30.51
-10.52
8.61
24.90
37.32
45.65
50.20
51.52
50.26
47.11
42.90
38.47
34.54
31.57
29.63
28.44
27.56
26.68
25.71
24.83
24.28
24.14
24.17
23.82
22.47
19.67
15.30
9.68
3.40
-2.92
-8.82
-14.18
-19.20
-24.34
-30.22
-37.28
-45.61
-54.58
-62.80
-68.30
-69.04
-63.64
-52.01
-35.43
-16.26
2.85
19.67
32.91
42.22
47.86
50.35
50.24
48.00
44.23
39.65
35.10
31.34
28.84
27.70
27.59
27.94
28.23
28.12
27.61
26.92
26.32
25.88
25.34
24.13
21.64
17.52
11.87
5.27
-1.47
-7.59
-12.70
-16.92
-20.76
-25.03
-30.50
-37.67
-46.47
-56.11
-65.01
-71.08
-72.28
-67.28
-55.96
-39.58
-20.45
-1.21
15.85
29.30
38.66
44.18
46.41
46.00
43.50
39.52
34.71
29.80
25.45
22.08
19.78
18.34
17.43
16.80
16.37
16.26
16.60
17.35
18.16
18.46
17.59
15.11
10.97
5.53
-0.52
-6.45
-11.76
-16.33
-20.49
-24.89
-30.22
-36.95
-45.05
-53.79
-61.73
-67.03
-67.83
-62.92
-52.17
-36.73
-18.73
-0.68
15.19
27.48
35.73
40.20
41.55
40.52
37.77
33.93
29.55
25.16
21.20
17.93
15.44
13.65
12.43
11.68
11.36
11.46
11.86
12.32
12.43
11.70
9.70
6.25
1.52
-4.04
-9.81
-15.28
-20.21
-24.76
-29.42
-34.81
-41.42
-49.28
-57.73
-65.29
-70.01
-69.90
-63.74
-51.60
-34.96
-16.24
1.89
17.37
29.13
37.05
41.65
43.53
43.21
41.08
37.57
33.30
29.00
25.31
22.57
20.72
19.44
18.37
17.34
16.43
15.87
15.76
15.95
15.96
15.13
12.95
9.24
4.24
-1.47
-7.20
-12.44
-17.01
-21.10
-25.23
-30.07
-36.21
-43.84
-52.52
-61.04
-67.54
-69.97
-66.72
-57.24
-42.32
-23.98
-4.82
12.67
26.79
36.80
42.87
45.66
45.94
44.35
41.40
37.54
33.25
29.13
25.70
23.39
22.25
22.05
22.33
22.59
22.53
22.12
21.52
20.97
20.50
19.89
18.64
16.23
12.35
7.07
0.87
-5.53
-11.44
-16.48
-20.63
-24.28
-27.98
-32.34
-37.83
-44.64
-52.53
-60.69
-67.74
-71.90
-71.43
-65.23
-53.28
-36.83
-18.09
0.44
16.59
29.05
37.49
42.28
44.12
43.69
41.44
37.75
33.03
27.87
23.02
19.20
16.83
15.93
16.12
16.86
17.70
18.39
18.92
19.35
19.72
19.87
19.46
18.06
15.28
10.91
5.22
-1.18
-7.38
-12.60
-16.49
-19.31
-21.81
-24.95
-29.42
-35.50
-42.89
-50.91
-58.50
-64.34
-67.00
-65.15
-58.06
-45.89
-29.91
-12.17
5.04
19.83
31.14
38.71
42.93
44.35
43.50
40.86
36.89
32.19
27.48
23.46
20.56
18.89
18.16
17.91
17.75
17.49
17.19
17.04
17.12
17.28
17.14
16.20
14.06
10.57
5.96
0.68
-4.64
-9.49
-13.58
-16.98
-20.11
-23.60
-28.15
-34.22
-41.84
-50.32
-58.36
-64.16
-65.94
-62.43
-53.40
-39.72
-23.20
-6.05
9.77
22.90
32.71
39.13
42.38
42.73
40.58
36.46
31.16
25.60
20.63
16.76
14.10
12.41
11.33
10.60
10.15
10.05
10.39
11.09
11.86
12.28
11.86
10.25
7.27
3.05
-2.02
-7.40
-12.63
-17.40
-21.78
-26.15
-31.11
-37.23
-44.81
-53.52
-62.32
-69.49
-73.04
-71.31
-63.57
-50.37
-33.49
-15.44
1.34
15.06
24.93
31.07
34.09
34.78
33.75
31.49
28.40
24.87
21.30
18.03
15.29
13.20
11.75
10.91
10.61
10.76
11.23
11.73
11.89
11.31
9.63
6.70
2.59
-2.35
-7.70
-13.02
-18.06
-22.91
-27.96
-33.85
-41.14
-49.90
-59.40
-67.97
-73.39
-73.52
-67.17
-54.59
-37.49
-18.56
-0.52
14.61
25.90
33.42
37.82
39.83
40.00
38.63
35.98
32.34
28.12
23.84
20.01
17.02
15.03
13.99
13.60
13.45
13.11
12.32
10.94
8.98
6.46
3.42
-0.16
-4.25
-8.83
-13.87
-19.44
-25.76
-33.10
-41.51
-50.48
-58.76
-64.49
-65.74
-61.17
-50.61
-35.21
-17.15
1.10
17.38
30.39
39.65
45.36
47.95
47.92
45.74
42.00
37.47
33.05
29.54
27.42
26.65
26.74
27.01
26.89
26.19
25.14
24.16
23.60
23.46
23.28
22.35
19.96
15.80
10.04
3.29
-3.65
-10.10
-15.75
-20.70
-25.39
-30.35
-36.15
-43.14
-51.31
-60.08
-68.23
-73.98
-75.47
-71.27
-61.00
-45.54
-26.86
-7.41
10.54
25.42
36.51
43.81
47.71
48.78
47.56
44.63
40.68
36.44
32.62
29.72
27.94
27.10
26.82
26.76
26.74
26.82
27.10
27.52
27.74
27.14
25.15
21.46
16.21
9.95
3.40
-2.79
-8.27
-13.06
-17.54
-22.33
-28.11
-35.32
-43.87
-52.96
-60.95
-65.80
-65.59
-59.23
-46.93
-30.22
-11.51
6.59
22.00
33.56
41.08
45.00
46.07
44.95
42.19
38.22
33.52
28.54
23.82
19.79
16.68
14.58
13.41
13.07
13.38
14.17
15.13
15.89
15.95
14.87
12.37
8.49
3.53
-2.02
-7.69
-13.24
