1542207728.00
64.000000
-0.00
-0.00
-0.00
-0.00
-0.00
-0.00
-0.00
-0.00
-0.00
-0.00
0.00
0.01
0.01
-0.00
-0.03
-0.05
-0.05
0.00
0.13
0.36
0.66
1.01
1.37
1.72
2.06
2.40
2.79
3.24
3.80
4.42
5.06
5.66
6.20
6.68
7.15
7.68
8.31
9.14
10.09
11.04
11.88
12.56
13.14
13.76
14.65
15.96
17.91
20.32
22.90
25.38
27.58
29.57
31.68
34.32
37.81
42.54
48.15
54.10
59.83
64.97
69.58
74.14
79.34
85.71
93.76
103.00
112.62
121.73
129.77
136.75
143.30
150.75
157.77
166.64
177.95
191.79
206.97
220.57
228.25
225.36
208.53
176.87
132.76
80.05
23.07
-34.94
-92.44
-149.16
-205.23
-260.37
-313.74
-363.87
-409.83
-450.91
-486.50
-515.74
-537.23
-549.22
-549.96
-538.37
-514.21
-478.67
-433.88
-382.45
-327.02
-269.84
-212.63
-156.66
-102.95
-52.37
-5.90
35.58
71.43
101.35
125.50
144.38
158.69
169.15
176.37
180.75
182.57
182.07
179.51
175.23
169.65
163.18
156.15
148.81
141.30
133.69
126.02
118.33
110.69
103.16
95.80
88.68
81.83
75.25
68.95
62.95
57.25
51.86
46.78
42.03
37.59
33.45
29.61
26.07
22.81
19.83
17.11
14.67
12.48
10.54
8.83
7.35
6.07
4.97
4.05
3.27
2.62
2.09
1.65
1.30
1.01
0.79
0.61
0.47
0.37
0.28
0.22
0.18
0.15
0.13
0.12
0.12
0.13
0.14
0.16
0.19
0.22
0.26
0.29
0.33
0.38
0.43
0.47
0.52
0.57
0.62
0.68
0.74
0.80
0.87
0.94
1.02
1.11
1.21
1.33
1.45
1.59
1.75
1.93
2.13
2.35
2.59
2.86
3.15
3.48
3.83
4.22
4.65
5.11
5.61
6.14
6.72
7.33
7.99
8.70
9.44
10.24
11.08
11.96
12.89
13.87
14.91
16.01
17.18
18.40
19.67
20.94
22.16
23.27
24.15
24.69
24.78
24.30
23.15
21.30
18.72
15.50
11.68
7.47
3.02
-1.44
-5.71
-9.60
-12.94
-15.63
-17.61
-18.87
-19.43
-19.37
-18.81
-17.84
-16.55
-15.03
-13.35
-11.54
-9.60
-7.56
-5.46
-3.38
-1.36
0.58
2.44
4.28
6.13
8.09
10.25
12.50
14.79
17.07
19.33
21.61
23.97
26.54
29.45
32.84
36.47
40.18
43.83
47.37
50.85
54.39
58.23
62.59
67.69
73.11
78.48
83.45
87.88
91.81
95.49
99.34
103.75
108.96
114.22
118.74
121.72
122.54
120.88
116.60
109.43
98.29
86.14
73.23
59.12
43.18
25.05
4.99
-16.17
-37.35
-57.50
-75.99
-93.47
-110.83
-129.11
-149.45
-172.86
-199.86
-229.78
-260.21
-286.86
-305.08
-310.78
-302.18
-280.76
-250.70
-217.31
-185.09
-156.46
-131.73
-110.35
-91.62
-75.36
-61.74
-50.77
-41.82
-33.70
-25.14
-15.43
-4.83
5.72
15.07
22.40
27.55
31.02
33.62
36.08
38.70
41.22
43.09
43.82
43.25
41.66
39.63
37.74
36.30
35.26
34.32
33.11
31.38
29.18
26.71
24.23
21.87
19.57
17.16
14.42
11.22
7.57
3.58
-0.60
-4.78
-8.83
-12.66
-16.29
-19.94
-23.95
-28.67
-34.21
-40.20
-45.66
-49.29
-49.73
-46.15
-38.49
-27.54
-14.71
-1.57
10.46
20.51
28.20
33.61
37.02
38.81
39.33
38.90
37.89
36.71
35.70
35.12
35.00
35.16
35.40
35.55
35.67
35.96
36.66
37.83
39.23
40.43
40.90
40.29
38.50
35.70
32.27
28.59
25.01
21.72
18.78
16.10
13.50
10.77
7.83
4.70
1.54
-1.41
-4.02
-6.33
-8.55
-10.97
-13.82
-17.10
-20.64
-24.12
-27.27
-30.01
-32.50
-35.03
-38.01
-41.78
-46.54
-52.18
-58.24
-63.83
-67.70
-68.55
-65.35
-57.80
-46.47
-32.73
-18.34
-4.96
6.25
14.84
20.98
25.24
28.31
30.77
32.96
35.03
36.94
38.60
39.98
41.07
41.89
42.45
42.74
42.72
42.44
41.97
41.48
41.09
40.77
40.36
39.60
38.27
36.29
33.79
31.01
28.21
25.55
23.01
20.49
17.85
15.04
12.17
9.49
7.31
5.79
4.90
4.37
3.80
2.74
1.01
-1.36
-4.08
-6.75
-9.09
-11.05
-12.82
-14.77
-17.25
-20.44
-24.28
-28.48
-32.65
-36.48
-39.82
-42.82
-45.77
-49.13
-53.28
-58.48
-64.65
-71.28
-77.33
-81.38
-81.93
-77.82
-68.70
-55.22
-38.92
-21.79
-5.75
7.76
18.01
24.97
29.13
31.30
32.37
33.16
34.22
35.79
37.79
40.00
42.24
44.37
46.41
48.36
50.12
51.49
52.24
52.21
51.37
49.84
47.76
45.24
42.35
39.10
35.59
31.99
28.53
25.45
22.91
20.86
19.10
17.36
15.41
13.19
10.84
8.61
6.77
5.37
4.27
3.08
1.41
-1.02
-4.16
-7.73
-11.29
-14.45
-17.03
-19.12
-21.03
-23.09
-25.60
-28.65
-32.15
-35.87
-39.53
-42.91
-45.93
-48.76
-51.70
-55.23
-59.72
-65.21
-71.22
-76.68
-80.10
-79.99
-75.34
-66.00
-52.75
-37.11
-20.93
-5.89
6.81
16.62
23.58
28.19
31.14
33.17
34.78
36.27
37.64
38.79
39.59
39.99
40.02
39.84
39.59
39.38
39.37
39.65
40.33
41.43
42.85
44.28
45.30
45.46
44.48
42.32
39.26
35.76
32.25
29.05
26.23
23.68
21.25
18.89
16.62
14.57
12.80
11.27
9.83
8.24
6.31
3.95
1.25
-1.62
-4.40
-6.91
-9.17
-11.35
-13.72
-16.51
-19.82
-23.56
-27.55
-31.57
-35.49
-39.25
-42.85
-46.30
-49.69
-53.27
-57.37
-62.28
-67.94
-73.69
-78.29
-80.16
-77.93
-71.00
-59.74
-45.41
-29.79
-14.62
-1.22
9.69
17.96
23.85
27.89
30.68
32.73
34.39
35.80
36.94
37.70
38.06
38.07
37.90
37.72
37.71
37.97
38.58
39.56
40.84
42.22
43.38
43.90
43.48
41.98
39.55
36.55
33.38
30.32
27.48
24.80
22.10
19.31
16.44
13.59
10.87
8.33
6.00
3.82
1.75
-0.22
-2.10
-3.93
-5.77
-7.78
-10.06
-12.71
-15.73
-19.02
-22.38
-25.61
-28.51
-30.98
-33.08
-35.06
-37.33
-40.38
-44.56
-49.95
-56.18
-62.38
-67.34
-69.76
-68.60
-63.41
-54.40
-42.45
-28.90
-15.20
-2.70
7.67
15.51
20.94
24.45
26.67
28.15
29.19
29.89
30.25
30.32
30.26
30.26
30.46
30.89
31.46
32.14
32.91
33.82
34.85
35.88
36.64
36.85
36.33
35.03
33.10
30.72
28.11
25.40
22.64
19.86
17.07
14.32
11.65
9.10
6.67
4.33
2.03
-0.24
-2.43
-4.48
-6.35
-8.14
-10.04
-12.31
-15.10
-18.40
-22.02
-25.71
-29.25
-32.58
-35.76
-38.92
-42.22
-45.79
-49.81
-54.47
-59.81
-65.53
-70.87
-74.60
-75.35
-72.10
-64.52
-53.20
-39.49
-25.01
-11.28
0.68
10.35
17.72
23.03
26.66
29.08
30.76
32.10
33.41
34.80
36.29
37.71
38.92
39.82
40.43
40.88
41.38
42.15
43.31
44.76
46.21
47.22
47.40
46.52
44.67
42.14
39.26
36.32
33.47
30.75
28.16
25.71
23.42
21.27
19.23
17.27
15.40
13.68
12.10
10.57
8.90
6.80
4.12
0.85
-2.80
-6.56
-10.24
-13.82
-17.47
-21.42
-25.80
-30.56
-35.52
-40.40
-44.97
-49.12
-52.90
-56.47
-60.14
-64.31
-69.32
-75.28
-81.80
-87.94
-92.24
-93.13
-89.43
-80.85
-68.07
-52.64
-36.47
-21.29
-8.32
1.92
9.46
14.69
18.16
20.42
21.99
23.29
24.63
26.10
27.66
29.13
30.35
31.21
31.71
31.98
32.16
32.41
32.81
33.44
34.22
35.00
35.56
35.66
35.19
34.21
32.91
31.54
30.25
28.98
27.53
25.66
23.27
20.46
17.50
14.71
12.30
10.26
8.47
6.70
4.76
2.59
0.19
-2.30
-4.81
-7.28
-9.75
-12.30
-15.06
-18.08
-21.35
-24.83
-28.42
-32.07
-35.75
-39.47
-43.24
-47.12
-51.28
-55.99
-61.43
-67.43
-73.27
-77.68
-79.06
-76.08
-68.16
-55.72
-40.13
-23.25
-6.95
7.33
18.77
27.17
32.82
36.30
38.34
39.59
40.57
41.56
42.66
43.82
44.96
45.95
46.71
47.16
47.32
47.32
47.37
47.68
48.34
49.19
49.81
49.71
48.46
45.89
42.20
37.82
33.29
29.06
25.36
22.20
19.50
17.13
15.03
13.16
11.47
9.86
8.19
6.32
4.17
1.79
-0.67
-3.03
-5.18
-7.18
-9.18
-11.48
-14.32
-17.78
-21.69
-25.71
-29.44
-32.63
-35.28
-37.67
-40.31
-43.79
-48.55
-54.67
-61.74
-68.78
-74.35
-76.91
-75.19
-68.59
-57.42
-42.84
-26.58
-10.49
3.91
15.58
24.16
29.83
33.25
35.19
36.46
37.54
38.61
39.55
40.13
40.22
39.91
39.41
38.95
38.67
38.54
38.52
38.56
38.73
39.09
39.62
40.11
40.21
39.61
38.13
35.83
32.94
29.74
26.49
23.34
20.38
17.61
15.00
12.50
9.99
7.41
4.70
1.93
-0.81
-3.40
-5.84
-8.21
-10.69
-13.42
-16.41
-19.60
-22.84
-26.04
-29.13
-32.13
-35.10
-38.06
-41.09
-44.30
-48.00
-52.58
-58.32
-65.04
-71.89
-77.38
-79.77
-77.71
-70.70
-59.39
-45.26
-30.16
-15.71
-3.01
7.43
15.55
21.42
25.27
27.39
28.23
28.29
28.04
27.78
27.61
27.48
27.33
27.16
27.07
27.24
27.87
29.02
30.61
32.31
33.70
34.38
34.11
32.84
30.73
28.06
25.07
22.01
19.02
16.22
13.65
11.26
8.99
6.74
4.52
2.43
0.62
-0.82
-1.99
-3.18
-4.72
-6.85
-9.59
-12.72
-15.93
-18.96
-21.69
-24.24
-26.88
-30.00
-33.97
-39.07
-45.29
-52.19
-58.78
-63.73
-65.60
-63.30
-56.55
-46.01
-33.10
-19.57
-6.95
3.79
12.34
18.81
23.54
26.85
29.02
30.30
30.96
31.27
31.45
31.62
31.80
31.95
32.04
32.13
32.30
32.67
33.25
34.01
34.84
35.52
35.84
35.53
34.38
32.22
29.05
24.98
20.27
15.26
10.28
5.60
1.33
-2.59
-6.30
-10.02
-13.89
-17.95
-22.08
-26.08
-29.64
-32.56
-34.83
-36.75
-38.93
-42.11
-46.87
-53.33
-60.87
-68.22
-73.69
-75.68
-73.13
-65.80
-54.34
-40.04
-24.49
-9.27
4.36
15.59
24.11
30.07
33.99
36.54
38.31
39.73
40.96
41.96
42.61
42.75
42.31
41.28
39.80
38.19
36.83
36.09
36.12
36.77
37.56
37.88
37.17
35.23
32.12
28.24
24.06
19.95
16.10
12.51
9.07
5.64
2.13
-1.44
-4.97
-8.26
-11.16
-13.61
-15.68
-17.62
-19.76
-22.38
-25.62
-29.42
-33.53
-37.63
-41.43
-44.80
-47.84
-50.90
-54.55
-59.34
-65.58
-72.96
-80.44
-86.26
-88.48
-85.60
-77.10
-63.71
-47.14
-29.55
-12.90
1.48
13.05
21.93
28.62
33.75
37.85
41.32
44.32
46.86
48.90
50.41
51.43
52.04
52.32
52.38
52.36
52.45
52.90
53.90
55.43
57.21
58.74
59.47
59.04
57.37
54.70
51.42
47.91
44.42
41.04
37.79
34.69
31.78
29.04
26.43
23.83
21.14
18.34
15.55
12.90
10.51
8.39
6.35
4.14
1.54
-1.55
-5.05
-8.75
-12.42
-15.89
-19.14
-22.26
-25.43
-28.86
-32.71
-37.05
-41.83
-46.82
-51.71
-56.15
-59.87
-62.77
-65.02
-67.00
-69.27
-72.51
-77.27
-83.80
-91.73
-99.93
-106.58
-109.59
-107.20
-98.56
-84.10
-65.47
-45.02
-25.09
-7.51
6.79
17.66
25.59
31.36
35.76
39.46
42.89
46.20
49.34
52.12
54.32
55.83
56.64
56.87
56.73
56.49
56.41
56.66
57.30
58.22
59.12
59.62
59.36
58.14
56.00
53.20
50.07
46.91
43.85
40.84
37.76
34.46
30.93
27.30
23.80
20.64
17.90
15.56
13.47
11.52
9.64
7.87
6.22
4.61
2.84
0.59
-2.38
-6.11
-10.38
-14.77
-18.84
-22.34
-25.32
-28.09
-31.03
-34.44
-38.34
-42.52
-46.62
-50.38
-53.71
-56.82
-60.11
-64.09
-69.16
-75.53
-82.97
-90.72
-97.51
-101.67
-101.62
-96.30
-85.55
-70.24
-52.09
-33.18
-15.39
-0.11
12.00
20.96
27.26
31.63
34.83
37.51
40.06
42.63
45.15
47.42
49.29
50.73
51.76
52.51
53.09
53.57
54.04
54.56
55.15
55.69
55.90
55.45
54.04
51.61
48.40
44.82
41.30
38.10
35.20
32.40
29.47
26.31
23.00
19.77
16.80
14.22
12.02
10.03
8.08
6.01
3.72
1.18
-1.63
-4.65
-7.81
-11.01
-14.21
-17.40
-20.65
-24.06
-27.67
-31.43
-35.23
-38.90
-42.37
-45.65
-48.88
-52.31
-56.30
-61.16
-67.06
-73.81
-80.64
-86.30
-89.23
-88.00
-81.83
-70.83
-56.07
-39.23
-22.15
-6.41
6.98
17.58
25.44
30.92
34.52
36.78
38.16
39.04
39.65
40.12
40.46
40.63
40.60
40.38
40.10
39.97
40.22
40.93
42.07
43.35
44.36
44.73
44.19
42.71
40.42
37.57
34.46
31.30
28.22
25.24
22.35
19.52
16.75
14.03
11.40
8.79
6.14
3.41
0.62
-2.12
-4.70
-7.02
-9.14
-11.31
-13.88
-17.13
-21.12
-25.70
-30.46
-35.01
-39.04
-42.50
-45.56
-48.56
-51.92
-56.04
-61.20
-67.43
-74.34
-81.01
-86.06
-87.96
-85.46
-77.99
-65.95
-50.61
-33.73
-17.17
-2.38
9.74
18.98
25.62
30.26
33.57
36.10
38.13
39.72
40.81
41.39
41.54
41.48
41.46
41.63
42.04
42.62
43.30
43.99
44.64
45.18
45.53
45.48
44.85
43.45
41.21
38.23
34.71
30.99
27.40
24.16
21.36
18.97
16.83
14.83
12.83
10.73
8.44
5.85
2.92
-0.34
-3.83
-7.39
-10.86
-14.15
-17.30
-20.44
-23.77
-27.48
-31.65
-36.25
-41.10
-45.94
-50.48
-54.63
-58.48
-62.39
-66.91
-72.51
-79.36
-87.05
-94.54
-100.29
-102.58
-100.03
-92.03
-78.94
-62.09
-43.36
-24.73
-7.89
6.17
17.09
25.14
30.96
35.41
39.21
42.86
46.46
49.85
52.71
54.77
55.96
56.45
56.50
56.40
56.32
56.36
56.56
56.89
57.31
57.72
57.90
57.57
56.46
54.44
51.61
48.19
44.56
41.02
37.72
34.68
31.75
28.79
25.71
22.53
19.36
16.32
13.51
10.93
8.51
6.16
3.74
1.12
-1.77
-4.96
-8.41
-11.95
-15.40
-18.64
-21.64
-24.55
-27.61
-31.13
-35.29
-40.10
-45.35
-50.69
-55.70
-60.06
-63.73
-66.96
-70.37
-74.68
-80.48
-87.85
-96.10
-103.78
-108.92
-109.67
-104.82
-94.22
-78.79
-60.28
-40.78
-22.18
-5.86
7.50
17.87
25.65
31.51
36.19
40.33
44.32
48.30
52.17
55.69
58.59
60.70
61.93
62.42
62.41
62.20
62.10
62.30
62.78
63.31
63.54
63.13
61.80
59.50
56.32
52.55
48.46
44.36
40.49
37.00
33.94
31.25
28.80
26.39
23.86
21.18
18.41
15.70
13.20
10.91
8.72
6.40
3.70
0.52
-3.12
-7.02
-10.91
-14.58
-18.02
-21.35
-24.86
-28.82
-33.38
-38.53
-44.08
-49.71
-55.13
-60.13
-64.71
-69.11
-73.76
-79.13
-85.65
-93.34
-101.64
-109.29
-114.53
-115.46
-110.65
-99.62
-83.05
-62.72
-40.96
-20.11
-1.94
12.65
23.57
31.37
36.91
41.09
44.58
47.79
50.83
53.63
56.07
58.03
59.53
60.63
61.41
61.92
62.22
62.38
62.47
62.53
62.51
62.24
61.48
60.00
57.72
54.73
51.19
47.34
43.40
39.55
35.95
32.71
29.86
27.29
24.85
22.40
19.89
17.41
15.09
13.07
11.30
9.67
7.94
5.92
3.48
0.63
-2.54
-5.87
-9.23
-12.54
-15.79
-19.07
-22.57
-26.51
-31.01
-36.09
-41.55
-47.10
-52.41
-57.21
-61.46
-65.37
-69.45
-74.34
-80.59
-88.27
-96.74
-104.59
-109.83
-110.53
-105.32
-93.90
-77.20
-57.12
-35.99
-15.99
1.32
15.13
25.35
32.47
37.24
40.48
42.95
45.13
47.25
49.24
50.92
52.14
52.83
53.12
53.20
53.28
53.51
53.94
54.55
55.27
55.96
56.43
56.39
55.59
53.86
51.20
47.76
43.85
39.77
35.74
31.89
28.24
24.79
21.59
18.70
16.18
14.01
12.04
10.07
7.86
5.27
2.30
-0.92
-4.16
-7.21
-9.95
-12.40
-14.76
-17.31
-20.35
-24.05
-28.39
-33.15
-38.00
-42.58
-46.69
-50.35
-53.84
-57.69
-62.51
-68.77
-76.45
-84.84
-92.52
-97.59
-98.25
-93.31
-82.66
-67.25
-48.89
-29.71
-11.64
3.91
16.28
25.43
31.81
36.10
38.99
40.98
42.40
43.40
44.06
44.49
44.87
45.36
46.07
46.99
48.02
49.04
50.00
50.93
51.87
52.78
53.43
53.50
52.68
50.81
47.98
44.55
40.95
37.54
34.50
31.75
29.09
26.34
23.43
20.45
17.58
15.00
12.86
11.12
9.65
8.14
6.28
3.77
0.52
-3.32
-7.37
-11.23
-14.57
-17.37
-19.92
-22.69
-26.10
-30.38
-35.42
-40.89
-46.40
-51.63
-56.42
-60.85
-65.12
-69.65
-74.93
-81.39
-89.15
-97.70
-105.82
-111.64
-113.22
-109.04
-98.64
-82.78
-63.25
-42.37
-22.33
-4.70
9.73
20.93
29.33
35.63
40.53
44.56
48.05
51.12
53.77
55.95
57.63
58.81
59.51
59.76
59.62
59.20
58.69
58.38
58.49
59.07
59.88
60.46
60.27
58.93
56.32
52.70
48.52
44.17
39.96
36.00
32.29
28.86
25.77
23.08
20.72
18.51
16.19
13.60
10.74
7.90
5.40
3.39
1.72
0.01
-2.21
-5.20
-8.90
-12.93
-16.85
-20.31
-23.30
-26.07
-29.06
-32.65
-36.98
-41.87
-46.97
-51.81
-56.08
-59.70
-62.87
-66.01
-69.69
-74.47
-80.72
-88.39
-96.86
-104.84
-110.51
-111.99
-107.87
-97.67
-82.03
-62.61
-41.58
-21.09
-2.85
12.16
23.66
31.93
37.62
41.54
44.40
46.76
48.96
51.11
53.17
55.06
56.66
57.88
58.69
59.10
59.20
59.19
59.26
59.59
60.16
60.79
61.16
60.88
59.68
57.44
54.28
50.47
46.30
42.08
37.97
34.05
30.34
26.82
23.55
20.61
18.09
15.99
14.25
12.66
11.03
9.20
7.12
4.81
2.31
-0.41
-3.40
-6.69
-10.22
-13.78
-17.16
-20.27
-23.20
-26.26
-29.77
-33.93
-38.68
-43.70
-48.54
-52.85
-56.47
-59.52
-62.39
-65.59
-69.68
-75.11
-81.95
-89.72
-97.30
-102.97
-104.85
-101.48
-92.26
-77.76
-59.55
-39.77
-20.56
-3.57
10.25
20.67
27.97
32.78
35.80
37.78
39.32
40.82
42.44
44.14
45.76
47.09
48.03
48.62
49.05
49.60
50.49
51.80
53.37
54.85
55.78
55.78
54.65
52.41
49.28
45.53
41.45
37.25
33.13
29.23
25.65
22.39
19.35
16.35
13.20
9.83
6.31
2.79
-0.54
-3.61
-6.48
-9.25
-11.99
-14.69
-17.34
-19.97
-22.75
-25.89
-29.52
-33.56
-37.73
-41.65
-45.09
-48.11
-51.09
-54.59
-59.13
-64.96
-71.90
-79.29
-85.99
-90.58
-91.59
-87.92
-79.14
-65.68
-48.90
-30.62
-12.85
2.83
15.46
24.85
31.38
35.71
38.50
40.21
41.04
41.07
40.41
39.29
38.07
37.14
36.73
36.92
37.63
38.73
40.09
41.66
43.32
44.89
46.10
46.62
46.20
44.70
42.17
38.83
34.95
30.85
26.80
22.96
19.35
15.93
12.58
9.23
5.88
2.62
-0.44
-3.21
-5.70
-8.03
-10.45
-13.24
-16.66
-20.85
-25.77
-31.20
-36.80
-42.19
-47.14
-51.59
-55.75
-60.05
-65.02
-71.20
-78.83
-87.55
-96.29
-103.31
-106.60
-104.48
-96.16
-82.06
-63.69
-43.26
-22.99
-4.65
10.72
22.82
31.90
38.47
43.16
46.58
49.20
51.33
53.16
54.73
56.06
57.17
58.00
58.52
58.71
58.60
58.32
58.07
58.05
58.31
58.73
59.00
58.76
57.71
55.74
52.94
49.58
45.93
42.18
38.46
34.84
31.44
28.51
26.38
25.37
25.47
26.16
26.46
25.14
21.27
14.62
5.86
-3.70
-12.54
-19.60
-24.51
-27.66
-29.86
-31.94
-34.55
-37.97
-42.25
-47.27
-52.82
-58.64
-64.46
-69.97
-75.11
-80.06
-85.33
-91.62
-99.47
-108.77
-118.45
-126.53
-130.58
-128.47
-119.17
-103.15
-82.25
-59.14
-36.51
-16.34
0.32
13.38
23.38
31.12
37.44
43.07
48.55
54.17
59.93
65.55
70.56
74.43
76.82
77.69
77.37
76.45
75.51
74.98
74.92
75.12
75.15
74.62
73.30
71.13
68.27
64.90
61.21
57.32
53.32
49.29
45.29
41.42
37.79
34.51
31.66
29.27
27.26
25.51
23.80
21.97
19.86
17.43
14.66
11.61
8.34
4.94
1.47
-2.09
-5.85
-9.94
-14.42
-19.19
-23.95
-28.36
-32.15
-35.38
-38.41
-41.77
-45.91
-50.98
-56.74
-62.66
-68.17
-72.92
-76.93
-80.69
-85.02
-90.79
-98.58
-108.28
-118.91
-128.58
-134.93
-135.65
-129.25
-115.52
-95.61
-71.81
-46.85
-23.29
-3.00
13.09
25.01
33.45
39.53
44.41
49.04
53.97
59.29
64.67
69.57
73.45
75.94
77.00
76.90
76.15
75.28
74.72
74.67
75.06
75.59
75.89
75.62
74.53
72.53
69.64
66.04
62.01
57.91
54.06
50.63
47.59
44.71
41.70
38.34
34.60
30.64
26.71
23.04
19.79
16.98
14.58
12.46
10.46
8.36
5.91
2.93
-0.66
-4.77
-9.14
-13.52
-17.69
-21.58
-25.28
-28.97
-32.88
-37.20
-42.04
-47.32
-52.86
-58.30
-63.33
-67.77
-71.78
-75.87
-80.81
-87.33
-95.72
-105.41
-114.94
-122.11
-124.62
-120.72
-109.83
-92.74
-71.42
-48.41
-26.17
-6.53
9.57
22.02
31.24
37.92
42.77
46.40
49.29
51.77
54.07
56.21
58.12
59.64
60.60
60.98
60.87
60.53
60.22
60.12
60.23
60.40
60.36
59.85
58.68
56.79
54.27
51.26
47.93
44.47
40.98
37.57
34.30
31.24
28.41
25.79
23.32
20.96
18.68
16.51
14.42
12.31
9.98
7.20
3.87
0.09
-3.81
-7.45
-10.58
-13.26
-15.82
-18.76
-22.50
-27.13
-32.38
-37.74
-42.69
-47.01
-50.87
-54.78
-59.41
-65.34
-72.79
-81.51
-90.79
-99.38
-105.75
-108.28
-105.62
-97.13
-83.13
-65.02
-44.90
-25.09
-7.51
6.72
17.33
24.72
29.56
32.49
34.01
34.45
34.10
33.27
32.30
31.53
31.21
31.45
32.28
33.68
35.63
38.09
40.94
43.89
46.51
48.29
48.81
47.85
45.53
42.20
38.31
34.28
30.41
26.81
23.47
20.31
17.20
14.03
10.74
7.38
4.10
1.08
-1.59
-4.01
-6.49
-9.40
-12.97
-17.20
-21.88
-26.65
-31.17
-35.33
-39.18
-42.91
-46.85
-51.41
-57.01
-63.88
-71.85
-80.10
-87.16
-91.25
-90.77
-84.93
-73.90
-58.85
-41.54
-23.83
-7.27
7.06
18.67
27.46
33.71
37.89
40.55
42.20
43.25
43.92
44.38
44.68
44.88
45.00
45.07
45.17
45.40
45.92
46.85
48.20
49.78
51.19
51.96
51.69
50.18
47.53
44.03
40.09
36.05
32.17
28.59
25.33
22.35
19.46
16.40
12.93
8.88
4.33
-0.43
-4.98
-9.03
-12.54
-15.79
-19.24
-23.31
-28.21
-33.87
-39.92
-45.95
-51.61
-56.77
-61.57
-66.39
-71.80
-78.37
-86.49
-96.00
-106.04
-115.00
-120.80
-121.46
-115.73
-103.53
-86.00
-65.22
-43.57
-23.16
-5.40
9.13
20.47
29.11
35.73
41.03
45.59
49.83
53.96
57.99
61.74
64.95
67.40
68.97
69.73
69.94
69.95
70.10
70.52
71.14
71.67
71.73
70.99
69.25
66.46
62.75
58.34
53.56
48.75
44.20
40.08
36.35
32.85
29.38
25.79
22.06
18.30
14.71
11.44
8.57
6.01
3.59
1.02
-1.94
-5.41
-9.31
-13.42
-17.43
-21.16
-24.64
-28.15
-32.08
-36.72
-42.14
-48.14
-54.29
-60.18
-65.50
-70.19
-74.42
-78.62
-83.37
-89.35
-97.01
-106.21
-115.94
-124.30
-128.91
-127.59
-119.14
-103.85
-83.41
-60.43
-37.61
-17.08
-0.05
13.20
23.04
30.22
35.59
39.94
43.96
48.05
52.33
56.67
60.78
64.29
66.90
68.51
69.18
69.18
68.92
68.77
69.02
69.69
70.47
70.89
70.40
68.66
65.62
61.58
57.01
52.38
47.97
43.82
39.81
35.74
31.49
27.09
22.67
18.44
14.58
11.15
8.09
5.16
2.07
-1.49
-5.67
-10.38
-15.35
-20.14
-24.34
-27.74
-30.40
-32.64
-34.95
-37.83
-41.62
-46.35
-51.72
-57.25
-62.45
-67.02
-71.01
-74.90
-79.41
-85.27
-92.88
-101.90
-111.20
-118.86
-122.66
-120.71
-112.04
-96.92
-76.79
-53.88
-30.56
-8.88
9.74
24.61
35.63
43.22
48.12
51.30
53.75
56.41
59.91
64.57
70.29
76.69
83.19
89.23
94.45
98.82
102.57
106.08
109.59
113.08
116.15
118.17
118.47
116.64
112.60
106.68
99.45
91.61
83.74
76.30
69.62
63.94
59.46
56.33
54.61
54.18
54.78
55.98
57.30
58.21
58.24
56.97
54.19
49.91
44.41
38.10
31.45
24.82
18.38
12.04
5.56
-1.31
-8.69
-16.50
-24.46
-32.29
-39.85
-47.28
-54.71
-61.97
-68.19
-71.88
-71.27
-65.19
-53.67
-38.18
-21.11
-5.03
8.22
17.94
24.46
28.67
31.50
33.59
35.20
36.26
36.50
35.49
32.80
28.22
21.94
14.64
7.30
0.94
-3.72
-6.54
-7.86
-8.25
-8.26
-8.19
-8.15
-8.17
-8.42
-9.22
-11.00
-14.11
-18.64
-24.31
-30.64
-37.05
-43.05
-48.43
-53.24
-57.70
-62.06
-66.45
-70.80
-74.84
-78.25
-80.78
-82.45
-83.62
-84.88
-86.89
-90.06
-94.24
-98.69
-102.20
-103.32
-100.87
-94.19
-83.39
-69.31
-53.39
-37.29
-22.62
-10.52
-1.49
4.72
8.83
11.75
14.16
16.42
18.53
20.38
21.92
23.25
24.54
25.86
27.13
28.22
29.07
29.80
30.70
32.00
33.72
35.63
37.31
38.44
38.94
38.95
38.73
38.48
38.20
37.75
36.93
35.46
32.94
28.77
22.19
12.65
0.01
-15.22
-32.04
-49.30
-66.26
-82.67
-98.54
-113.65
-127.09
-137.18
-142.07
-140.37
-131.94
-117.98
-100.66
-82.38
-65.12
-50.01
-37.31
-26.62
-17.24
-8.57
-0.27
7.67
14.97
21.26
26.31
30.08
32.80
34.82
36.46
37.94
39.33
40.64
41.86
42.97
43.87
44.40
44.28
43.26
41.15
37.89
33.50
28.09
21.81
14.86
7.47
-0.05
-7.40
-14.29
-20.54
-26.09
-31.05
-35.70
-40.47
-45.78
-51.88
-58.64
-65.36
-70.89
-73.84
-72.96
-67.58
-57.77
-44.48
-29.23
-13.79
0.30
12.06
21.17
27.95
33.00
36.95
40.23
43.00
45.25
46.95
48.12
48.82
49.13
49.11
48.84
48.42
48.01
47.78
47.74
47.73
47.29
45.97
43.35
39.33
34.15
28.23
22.01
15.74
9.42
2.81
-4.29
-11.99
-20.21
-28.63
-36.83
-44.43
-51.09
-56.73
-61.53
-65.88
-70.27
-75.07
-80.07
-84.45
-86.90
-85.91
-80.46
-70.35
-56.39
-40.17
-23.52
-8.02
5.34
16.33
25.34
33.01
39.94
46.40
52.28
57.21
60.83
62.98
63.86
63.91
63.60
63.25
62.97
62.73
62.50
62.39
62.50
62.84
63.17
63.01
61.82
59.27
55.42
50.71
45.77
41.18
37.23
33.93
30.99
28.11
25.05
21.74
18.30
14.98
11.93
9.25
6.88
4.68
2.47
0.08
-2.56
-5.47
-8.66
-12.04
-15.54
-19.04
-22.44
-25.72
-28.94
-32.27
-35.93
-39.99
-44.43
-49.05
-53.56
-57.70
-61.39
-64.74
-68.08
-71.86
-76.53
-82.34
-89.10
-96.11
-102.18
-105.84
-105.78
-101.16
-91.91
-78.71
-62.87
-45.87
-29.11
-13.66
-0.08
11.52
21.28
29.53
36.59
42.69
47.97
52.42
55.96
58.48
59.90
60.20
59.54
58.26
56.75
55.46
54.66
54.40
54.56
54.81
54.80
54.24
52.95
50.92
48.25
45.18
41.94
38.78
35.85
33.20
30.79
28.48
26.08
23.45
20.53
17.38
14.21
11.23
8.64
6.44
4.50
2.55
0.32
-2.31
-5.36
-8.63
-11.95
-15.08
-17.90
-20.36
-22.56
-24.65
-26.88
-29.49
-32.65
-36.34
-40.41
-44.63
-48.80
-52.82
-56.76
-60.78
-65.17
-70.16
-75.81
-81.88
-87.63
-91.96
-93.51
-91.17
-84.35
-73.37
-59.31
-43.74
-28.19
-13.80
-1.16
9.65
18.82
26.61
33.28
38.99
43.83
47.88
51.18
53.75
55.57
56.68
57.12
57.02
56.60
56.10
55.75
55.72
55.95
56.25
56.29
55.70
54.27
51.98
48.98
45.52
41.82
38.06
34.30
30.62
27.08
23.76
20.66
17.75
14.90
11.97
8.92
5.79
2.71
-0.18
-2.83
-5.32
-7.81
-10.48
-13.45
-16.63
-19.85
-22.84
-25.45
-27.72
-29.90
-32.36
-35.42
-39.22
-43.66
-48.47
-53.31
-57.93
-62.11
-65.77
-68.90
-71.76
-74.86
-78.91
-84.57
-91.93
-100.28
-108.04
-113.27
-114.26
-110.30
-102.05
-91.25
-80.13
-70.53
-63.39
-58.58
-55.32
-52.75
-50.57
-49.28
-50.20
-55.14
-65.89
-83.61
-108.17
-137.64
-168.26
-195.15
-213.45
-219.79
-213.24
-195.33
-169.27
-138.46
-105.40
-71.06
-35.27
2.36
41.47
80.31
116.03
145.33
165.59
175.66
176.20
169.42
158.23
145.41
132.94
121.84
112.42
104.66
98.43
93.51
89.44
85.46
80.64
74.18
65.77
55.79
45.22
35.38
27.35
21.56
17.55
14.19
10.12
4.35
-3.33
-12.31
-21.53
-30.00
-37.29
-43.67
-49.83
-56.38
-63.29
-69.68
-73.97
-74.41
-69.63
-59.09
-43.17
-22.87
0.58
26.08
52.78
79.88
106.36
130.90
152.00
168.43
179.59
185.82
188.30
188.93
190.06
194.08
202.94
217.42
236.64
257.93
277.52
291.74
298.45
297.75
291.75
283.41
275.03
267.20
258.69
247.23
230.68
208.27
181.31
153.04
127.82
109.43
99.35
95.85
94.42
89.68
77.78
57.98
32.40
4.43
-23.28
-49.79
-75.42
-100.55
-124.85
-147.35
-167.60
-186.74
-207.07
-231.16
-260.19
-293.22
-327.76
-361.36
-392.87
-422.71
-451.85
-480.30
-506.47
-527.32
-539.53
-540.80
-530.52
-509.54
-479.83
-443.50
-402.64
-359.37
-315.87
-274.30
-236.34
-202.69
-172.84
-145.36
-118.40
-90.38
-60.24
-27.66
6.97
42.28
76.34
106.99
132.36
151.55
164.86
173.50
179.10
182.98
185.84
187.75
188.56
188.26
187.11
185.60
184.07
182.51
180.52
177.48
172.85
166.27
157.61
147.02
134.90
121.92
108.97
96.93
86.46
77.68
70.11
62.95
55.39
47.06
38.13
29.21
20.99
13.96
8.17
3.30
-1.20
-5.89
-11.04
-16.46
-21.31
-24.24
-23.64
-18.07
-6.63
10.85
33.79
61.00
90.70
120.71
148.54
171.90
189.18
200.03
205.41
207.11
206.93
205.88
203.80
199.71
192.66
182.35
169.48
155.36
141.23
127.49
113.57
98.20
80.27
59.45
36.45
12.71
-10.22
-31.22
-49.73
-65.47
-78.02
-86.69
-90.80
-90.17
-85.51
-78.31
-70.31
-62.77
-56.01
-49.45
-41.98
-32.63
-20.96
-7.17
8.08
23.94
39.62
54.49
67.91
79.23
87.68
92.50
93.03
88.90
80.14
67.33
51.77
35.48
21.04
11.09
7.51
10.68
19.09
29.64
38.73
43.51
42.81
37.34
28.96
19.74
11.05
3.34
-3.51
-9.67
-14.95
-18.81
-20.64
-20.09
-17.32
-12.91
-7.61
-2.17
2.89
7.28
10.87
13.60
15.37
16.06
15.58
13.92
11.32
8.20
5.17
2.81
1.46
1.11
1.33
1.52
1.08
-0.32
-2.67
-5.69
-8.97
-12.18
-15.25
-18.39
-21.98
-26.44
-32.02
-38.79
-46.64
-55.39
-64.80
-74.59
-84.37
-93.47
-101.04
-106.13
-107.98
-106.18
-100.84
-92.50
-82.01
-70.32
-58.28
-46.53
-35.44
-25.12
-15.47
-6.29
2.59
11.26
19.64
27.60
34.92
41.48
47.22
52.14
56.35
59.99
63.24
66.20
68.86
71.05
72.39
72.43
70.78
67.23
61.88
55.07
47.27
38.91
30.23
21.36
12.36
3.32
-5.61
-14.25
-22.48
-30.27
-37.61
-44.46
-50.68
-55.94
-59.89
-62.25
-63.02
-62.58
-61.60
-60.94
-61.35
-63.27
-66.63
-70.97
-75.51
-79.41
-81.94
-82.51
-80.74
-76.42
-69.59
-60.60
-50.14
-39.15
-28.60
-19.27
-11.55
-5.45
-0.73
2.94
5.75
7.84
9.27
10.15
10.68
11.07
11.54
12.17
12.92
13.69
14.40
14.99
15.43
15.69
15.58
14.88
13.27
10.64
7.04
2.83
-1.48
-5.33
-8.35
-10.45
-11.78
-12.72
-13.67
-14.95
-16.74
-19.10
-21.98
-25.33
-29.15
-33.54
-38.73
-44.92
-52.22
-60.38
-68.70
-75.93
-80.63
-81.48
-77.69
-69.39
-57.54
-43.63
-29.30
-15.86
-4.12
5.67
13.60
19.95
24.96
28.84
31.73
33.68
34.80
35.18
34.96
34.32
33.49
32.69
32.10
31.83
31.84
32.00
32.11
31.96
31.41
30.32
28.54
25.90
22.28
17.69
12.35
6.73
1.41
-3.12
-6.70
-9.53
-12.14
-15.12
-18.90
-23.64
-29.14
-35.03
-40.86
-46.21
-50.91
-54.96
-58.64
-62.43
-66.88
-72.38
-78.92
-85.94
-92.32
-96.56
-97.11
-92.82
-83.33
-69.22
-51.95
-33.46
-15.69
-0.07
12.72
22.73
30.49
36.64
41.67
45.87
49.32
52.02
53.98
55.20
55.70
55.53
54.77
53.58
52.21
50.97
50.13
49.86
50.06
50.42
50.43
49.59
47.52
44.17
39.87
35.16
30.59
26.50
22.98
19.79
16.59
13.08
9.15
4.88
0.53
-3.57
-7.25
-10.54
-13.71
-17.13
-21.08
-25.64
-30.60
-35.66
-40.51
-45.01
-49.23
-53.37
-57.73
-62.69
-68.63
-75.76
-83.94
-92.36
-99.47
-103.28
-101.99
-94.64
-81.49
-64.12
-44.78
-25.75
-8.71
5.57
17.07
26.25
33.73
40.00
45.46
50.30
54.54
58.13
60.92
62.79
63.72
63.82
63.36
62.62
61.89
61.34
61.03
60.88
60.67
60.12
58.96
56.97
54.07
50.42
46.29
42.04
37.95
34.15
30.59
27.11
23.58
19.93
16.22
12.58
9.10
5.78
2.48
-0.97
-4.65
-8.54
-12.50
-16.40
-20.24
-24.15
-28.31
-32.90
-37.84
-42.86
-47.60
-51.75
-55.28
-58.46
-61.83
-66.01
-71.56
-78.76
-87.35
-96.48
-104.64
-109.96
-110.58
-105.25
-93.77
-77.04
-56.91
-35.60
-15.18
2.85
17.77
29.51
38.51
45.34
50.57
54.49
57.17
58.53
58.55
57.38
55.44
53.26
51.36
50.13
49.74
50.23
51.58
53.67
56.26
58.98
61.32
62.81
63.12
62.21
60.31
57.80
55.04
52.22
49.32
46.14
42.43
38.02
32.86
27.06
20.81
14.32
7.79
1.37
-4.84
-10.79
-16.43
-21.85
-27.17
-32.57
-38.22
-44.18
-50.42
-56.78
-63.05
-68.99
-74.39
-79.21
-83.57
-87.87
-92.70
-98.53
-105.41
-112.59
-118.48
-120.99
-118.16
-108.96
-93.68
-73.91
-52.07
-30.58
-11.33
4.66
17.20
26.71
33.89
39.47
44.16
48.40
52.40
56.10
59.26
61.71
63.39
64.48
65.22
65.85
66.46
67.09
67.70
68.27
68.77
69.05
68.88
67.88
65.74
62.28
57.61
52.07
46.12
40.27
34.80
29.84
25.33
21.06
16.79
12.38
7.81
3.22
-1.17
-5.11
-8.46
-11.23
-13.61
-15.95
-18.62
-21.90
-25.88
-30.41
-35.18
-39.86
-44.19
-48.15
-51.92
-55.88
-60.59
-66.66
-74.58
-84.33
-95.06
-104.96
-111.55
-112.33
-105.73
-91.75
-72.05
-49.41
-26.88
-6.76
9.76
22.67
32.56
40.27
46.41
51.34
55.27
58.34
60.72
62.53
63.87
64.79
65.30
65.47
65.46
65.53
65.95
66.89
68.33
69.98
71.35
71.94
71.31
69.35
66.21
62.18
57.64
52.92
48.24
43.75
39.58
35.72
32.11
28.58
24.88
20.82
16.33
11.53
6.69
2.18
-1.76
-5.12
-8.16
-11.37
-15.27
-20.17
-26.00
-32.38
-38.69
-44.40
-49.27
-53.47
-57.50
-62.02
-67.70
-74.98
-83.77
-93.29
-101.92
-107.45
-107.64
-100.94
-87.16
-67.64
-44.94
-22.04
-1.47
15.22
27.66
36.35
42.21
46.15
48.87
50.79
52.09
52.83
53.04
52.79
52.25
51.67
51.30
51.35
51.90
52.96
54.43
56.21
58.15
60.01
61.38
61.78
60.73
57.96
53.57
48.04
41.98
35.93
30.09
24.28
18.15
11.46
4.34
-2.76
-9.19
-14.49
-18.54
-21.67
-24.45
-27.46
-30.98
-35.01
-39.24
-43.31
-46.97
-50.16
-53.09
-56.08
-59.52
-63.80
-69.29
-76.17
-84.27
-92.80
-100.29
-104.71
-104.11
-97.22
-84.06
-66.08
-45.69
-25.53
-7.60
7.09
18.50
27.10
33.46
37.91
40.60
41.63
41.24
39.86
38.02
36.24
34.81
33.86
33.32
33.17
33.41
34.12
35.30
36.76
38.07
38.63
37.89
35.63
32.02
27.60
22.98
18.61
14.58
10.75
6.82
2.59
-1.89
-6.44
-10.78
-14.72
-18.26
-21.65
-25.23
-29.31
-34.03
-39.16
-44.27
-48.81
-52.44
-55.12
-57.20
-59.31
-62.19
-66.49
-72.48
-79.95
-87.87
-94.55
-97.84
-95.74
-87.05
-71.92
-51.88
-29.47
-7.43
12.04
27.79
39.72
48.47
54.89
59.75
63.48
66.29
68.27
69.55
70.34
70.83
71.13
71.20
70.92
70.16
68.97
67.60
66.39
65.59
65.21
64.89
64.01
61.95
58.35
53.25
47.10
40.57
34.35
28.85
24.12
19.87
15.61
10.94
5.70
0.05
-5.60
-10.79
-15.24
-18.97
-22.32
-25.80
-29.86
-34.72
-40.30
-46.32
-52.35
-58.00
-63.10
-67.59
-71.70
-75.90
-80.80
-87.12
-95.30
-105.08
-115.22
-123.47
-127.13
-123.84
-112.54
-93.91
-70.26
-44.78
-20.52
0.35
16.91
29.33
38.39
45.02
50.04
54.05
57.49
60.60
63.47
66.01
67.98
69.11
69.22
68.37
66.84
65.11
63.68
62.88
62.77
63.09
63.37
63.03
61.60
58.76
54.50
49.04
42.88
36.59
30.70
25.54
21.10
17.13
13.18
8.91
4.14
-1.04
-6.30
-11.24
-15.55
-19.19
-22.34
-25.46
-29.03
-33.41
-38.63
-44.37
-50.02
-55.00
-58.98
-62.01
-64.64
-67.68
-72.03
-78.40
-87.02
-97.29
-107.63
-115.65
-118.59
-114.17
-101.38
-80.96
-55.26
-27.58
-1.18
21.49
39.28
52.15
60.82
66.27
69.43
71.04
71.65
71.63
71.19
70.40
69.29
67.86
66.27
64.78
63.74
63.41
63.93
65.21
66.97
68.81
70.26
70.85
70.17
67.92
64.00
58.58
52.06
45.05
38.18
31.89
26.38
21.63
17.39
13.31
9.12
4.63
-0.17
-5.17
-10.20
-15.06
-19.66
-24.01
-28.26
-32.64
-37.38
-42.60
-48.35
-54.44
-60.65
-66.62
-72.14
-77.10
-81.67
-86.38
-91.90
-98.97
-107.88
-118.14
-128.17
-135.54
-137.51
-131.97
-118.26
-97.49
-72.31
-46.01
-21.66
-1.30
14.26
25.17
32.24
36.46
38.80
40.11
41.06
42.21
43.96
46.58
50.23
54.93
60.59
66.95
73.64
80.24
86.27
91.17
94.31
94.97
92.50
86.52
77.23
65.45
52.52
39.90
28.75
19.66
12.55
6.99
2.37
-1.75
-5.55
-9.02
-12.00
-14.33
-16.03
-17.26
-18.38
-19.90
-22.29
-25.83
-30.50
-35.91
-41.44
-46.56
-51.03
-55.07
-59.33
-64.70
-71.93
-81.28
-92.09
-102.72
-110.74
-113.48
-108.87
-96.12
-76.13
-51.29
-24.82
0.13
21.29
37.60
49.19
56.92
61.97
65.41
67.99
70.16
72.06
73.61
74.71
75.28
75.36
75.15
74.94
74.97
75.37
76.09
76.89
77.46
77.47
76.66
74.80
71.75
67.46
62.03
55.72
48.99
42.43
36.54
31.63
27.78
24.81
22.43
20.45
18.75
17.36
16.34
15.61
14.93
13.81
11.67
7.98
2.44
-4.84
-13.38
-22.38
-31.04
-38.74
-45.36
-51.30
-57.38
-64.72
-74.34
-86.96
-102.54
-120.13
-137.77
-152.66
-161.84
-162.93
-154.97
-138.85
-117.23
-93.86
-72.55
-56.24
-46.08
-41.25
-39.25
-36.75
-30.71
-19.46
-3.10
16.57
36.86
55.06
69.18
78.28
82.35
82.04
78.32
72.31
65.04
57.29
49.44
41.30
32.23
21.47
8.63
-5.76
-20.08
-31.76
-38.07
-37.12
-28.82
-15.14
0.38
13.96
22.91
26.44
25.59
22.24
18.14
14.13
10.17
5.92
1.25
-3.50
-7.79
-11.26
-14.12
-17.03
-20.90
-26.45
-33.98
-43.35
-53.96
-64.83
-74.65
-81.96
-85.34
-83.75
-76.80
-64.92
-49.24
-31.29
-12.69
5.18
21.36
35.37
47.11
56.76
64.63
70.98
75.97
79.68
82.11
83.28
83.19
81.85
79.11
74.81
68.82
61.29
52.81
44.41
37.24
32.30
29.99
30.16
32.24
35.64
40.16
45.99
53.52
62.94
74.03
86.12
98.38
110.10
120.87
130.41
138.48
144.83
149.32
152.37
155.08
158.92
164.97
172.96
180.78
184.76
180.79
165.88
139.45
103.66
62.72
21.57
-15.69
-46.62
-70.65
-88.62
-101.96
-112.11
-120.24
-127.15
-133.27
-138.66
-142.96
-145.41
-145.10
-141.32
-133.88
-123.27
-110.57
-97.05
-83.82
-71.59
-60.63
-51.02
-42.74
-35.86
-30.40
-26.28
-23.19
-20.71
-18.38
-15.94
-13.33
-10.66
-8.15
-5.89
-3.83
-1.90
-0.13
1.28
1.78
0.78
-2.34
-7.91
-15.94
-26.00
-37.28
-48.66
-58.79
-66.42
-70.66
-71.39
-69.37
-65.96
-62.65
-60.34
-59.09
-58.15
-56.58
-53.74
-49.72
-45.19
-40.98
-37.72
-35.46
-33.78
-32.08
-29.91
-27.29
-24.72
-23.05
-23.17
-25.62
-30.36
-36.78
-43.82
-50.51
-56.12
-60.32
-63.09
-64.44
-64.44
-63.32
-61.59
-59.99
-59.29
-59.79
-61.17
-62.58
-63.10
-62.22
-60.10
-57.43
-55.00
-53.38
-52.75
-53.06
-54.24
-56.33
-59.39
-63.26
-67.37
-70.70
-72.01
-70.19
-64.58
-55.21
-42.74
-28.28
-13.00
2.19
16.80
30.78
44.30
57.55
70.47
82.76
93.92
103.37
110.64
115.41
117.59
117.29
114.85
110.68
105.19
98.60
90.88
81.83
71.22
58.99
45.45
31.37
17.90
6.34
-2.13
-6.78
-7.50
-4.78
0.42
7.01
14.02
20.75
26.77
31.85
35.76
38.32
39.33
38.73
36.66
33.50
29.73
25.81
22.12
18.84
16.10
13.95
12.50
11.84
11.93
12.56
13.29
13.61
13.05
11.42
8.76
5.37
1.56
-2.45
-6.63
-11.07
-15.89
-21.16
-26.79
-32.58
-38.28
-43.77
-49.08
-54.50
-60.51
-67.67
-76.34
-86.45
-97.28
-107.43
-115.02
-118.22
-115.65
-106.91
-92.66
-74.47
-54.50
-34.90
-17.43
-3.06
8.03
16.42
22.99
28.51
33.36
37.43
40.35
41.84
42.07
41.70
41.67
42.80
45.46
49.41
53.95
58.25
61.57
63.44
63.65
62.14
58.93
54.01
47.44
39.34
29.97
19.73
9.08
-1.39
-11.17
-19.82
-27.20
-33.43
-39.04
-44.79
-51.56
-60.13
-70.81
-83.18
-95.86
-106.58
-112.63
-111.56
-102.08
-84.51
-60.87
-34.22
-7.79
15.97
35.86
51.85
64.64
75.00
83.44
90.06
94.73
97.39
98.16
97.44
95.79
93.84
92.07
90.83
90.18
89.95
89.75
89.07
87.34
84.10
79.13
72.46
64.48
55.67
46.56
37.52
28.66
19.83
10.77
1.19
-8.96
-19.49
-29.94
-39.77
-48.55
-56.22
-63.21
-70.40
-78.90
-89.62
-102.76
-117.36
-131.18
-141.06
-143.81
-137.20
-120.86
-96.45
-67.24
-36.99
-8.89
15.18
34.80
50.65
63.82
75.36
85.88
95.57
104.25
111.54
117.02
120.46
121.87
121.60
120.25
118.48
116.89
115.81
115.30
115.18
115.12
114.66
113.32
110.65
106.32
100.25
92.73
84.37
75.93
68.10
61.26
55.38
50.12
45.07
39.92
34.66
29.52
24.86
20.99
17.98
15.65
13.60
11.29
8.23
4.18
-0.75
-6.14
-11.42
-16.11
-20.06
-23.49
-26.92
-30.88
-35.68
-41.29
-47.34
-53.30
-58.75
-63.57
-67.96
-72.43
-77.57
-83.83
-91.30
-99.68
-108.37
-116.69
-124.21
-130.91
-137.41
-144.79
-154.30
-166.83
-182.29
-199.24
-214.77
-225.03
-226.09
-215.15
-191.48
-156.82
-114.96
-70.73
-28.73
7.79
37.37
60.25
77.69
91.36
102.64
112.45
121.13
128.64
134.76
139.16
141.66
142.24
141.12
138.72
135.62
132.38
129.51
127.31
125.83
124.82
123.70
121.72
118.21
112.77
105.49
96.89
87.77
78.88
70.67
63.29
56.59
50.34
44.38
38.68
33.23
28.03
22.97
17.94
12.83
7.66
2.52
-2.50
-7.39
-12.29
-17.44
-23.13
-29.51
-36.56
-43.94
-51.20
-57.87
-63.70
-68.76
-73.46
-78.42
-84.20
-91.05
-98.81
-106.93
-114.66
-121.39
-126.95
-131.76
-136.85
-143.58
-153.24
-166.40
-182.36
-198.76
-211.87
-217.33
-211.45
-192.38
-160.87
-120.21
-75.31
-31.31
7.65
39.26
63.12
80.28
92.50
101.66
109.24
116.15
122.69
128.67
133.59
136.95
138.34
137.68
135.24
131.56
127.39
123.45
120.28
118.09
116.68
115.45
113.65
110.56
105.72
99.08
91.00
82.08
73.05
64.49
56.73
49.85
43.71
38.08
32.77
27.68
22.82
18.19
13.85
9.81
6.06
2.55
-0.83
-4.31
-8.18
-12.76
-18.21
-24.43
-31.13
-37.78
-43.96
-49.47
-54.41
-59.15
-64.18
-69.93
-76.59
-84.03
-91.80
-99.32
-106.06
-111.75
-116.63
-121.43
-127.35
-135.68
-147.28
-161.86
-177.53
-190.78
-197.14
-192.45
-174.31
-143.05
-101.87
-55.99
-11.07
28.28
59.47
82.08
97.27
106.89
112.77
116.31
118.38
119.50
119.91
119.73
118.93
117.39
114.98
111.64
107.56
103.20
99.18
96.04
94.11
93.21
92.78
92.02
90.14
86.62
81.34
74.62
67.01
59.18
51.73
44.97
39.01
33.69
28.76
23.97
19.13
14.22
9.34
4.68
0.42
-3.30
-6.54
-9.55
-12.72
-16.47
-21.09
-26.62
-32.69
-38.74
-44.20
-48.77
-52.62
-56.35
-60.71
-66.34
-73.46
-81.76
-90.55
-98.97
-106.39
-112.54
-117.67
-122.53
-128.21
-135.90
-146.45
-159.75
-174.23
-186.69
-192.84
-188.48
-170.90
-140.11
-99.17
-53.32
-8.53
30.23
60.10
80.58
92.98
99.48
102.23
102.94
102.75
102.30
102.00
101.99
102.16
102.22
101.72
100.36
98.07
95.22
92.49
90.61
89.98
90.49
91.44
91.80
90.52
86.97
81.13
73.51
65.02
56.53
48.72
41.90
36.02
30.86
26.10
21.56
17.13
12.82
8.67
4.75
1.10
-2.26
-5.30
-8.11
-10.90
-14.01
-17.82
-22.52
-28.06
-34.00
-39.73
-44.73
-48.85
-52.43
-56.28
-61.24
-67.87
-76.02
-84.89
-93.31
-100.24
-105.24
-108.72
-111.75
-115.82
-122.31
-132.04
-144.83
-159.22
-172.36
-180.40
-179.28
-165.95
-139.51
-101.85
-57.33
-11.76
29.30
61.88
84.37
97.39
103.02
103.83
102.10
99.42
96.72
94.39
92.60
91.36
90.57
90.01
89.38
88.49
87.29
86.02
85.05
84.75
85.21
86.05
86.55
85.76
82.93
77.75
70.50
61.93
53.08
44.80
37.58
31.36
25.66
19.85
13.59
6.96
0.50
-5.05
-9.22
-12.05
-14.16
-16.40
-19.49
-23.61
-28.41
-33.17
-37.26
-40.42
-42.96
-45.49
-48.74
-53.18
-58.86
-65.41
-72.12
-78.28
-83.42
-87.48
-90.92
-94.67
-99.81
-107.28
-117.40
-129.32
-140.86
-148.66
-148.92
-138.62
-116.61
-84.26
-45.34
-4.96
31.92
61.69
82.75
95.43
101.22
102.04
99.61
95.23
89.80
84.04
78.62
74.04
70.67
68.53
67.40
66.92
66.78
66.92
67.46
68.59
70.27
72.01
72.94
72.10
68.80
62.99
55.26
46.65
38.15
30.43
23.65
17.57
11.81
6.16
0.67
-4.40
-8.75
-12.31
-15.25
-18.02
-21.12
-24.87
-29.27
-34.00
-38.58
-42.63
-46.09
-49.34
-52.97
-57.55
-63.31
-69.98
-76.88
-83.31
-88.77
-93.20
-97.03
-101.03
-106.18
-113.43
-123.32
-135.55
-148.50
-159.10
-163.37
-157.44
-139.07
-108.61
-69.28
-26.27
14.77
49.32
74.95
91.42
100.09
103.05
102.39
99.79
96.43
93.10
90.26
88.07
86.48
85.24
84.04
82.65
81.06
79.47
78.27
77.80
78.17
79.08
79.88
79.69
77.78
73.81
67.96
60.84
53.17
45.55
38.29
31.46
25.01
19.00
13.53
8.71
4.44
0.38
-4.01
-9.23
-15.46
-22.44
-29.57
-36.14
-41.71
-46.25
-50.29
-54.55
-59.69
-65.96
-73.05
-80.28
-86.80
-92.03
-95.81
-98.63
-101.40
-105.31
-111.46
-120.43
-131.87
-144.09
-154.05
-157.90
-152.05
-134.37
-105.24
-67.68
-26.50
13.07
46.90
72.75
90.40
100.98
106.10
107.30
105.76
102.46
98.36
94.49
91.70
90.50
90.77
91.95
93.25
94.04
94.19
94.15
94.75
96.99
101.66
109.08
118.72
128.97
137.00
139.11
131.46
111.28
77.94
33.50
-17.65
-69.96
-118.25
-158.86
-190.22
-212.42
-226.55
-233.88
-235.43
-231.94
-224.14
-212.93
-199.45
-184.93
-170.43
-156.63
-143.76
-131.86
-121.00
-111.54
-104.25
-100.07
-99.66
-103.10
-109.80
-118.75
-129.13
-140.71
-153.95
-169.27
-186.16
-202.51
-214.62
-218.20
-209.92
-188.57
-155.47
-113.69
-66.98
-18.75
28.20
71.54
109.11
139.12
160.69
174.30
181.80
185.67
188.14
190.36
192.41
193.71
193.79
192.69
191.02
189.60
189.07
189.64
191.05
192.63
193.46
192.58
189.18
182.89
173.86
162.70
150.35
137.69
125.42
113.90
103.17
93.04
83.25
73.58
63.94
54.37
45.11
36.47
28.68
21.81
15.68
9.84
3.76
-2.98
-10.56
-18.71
-26.91
-34.52
-41.11
-46.67
-51.76
-57.45
-65.07
-75.75
-89.82
-106.23
-122.47
-134.86
-139.56
-133.73
-116.54
-89.49
-56.06
-20.54
13.12
42.20
65.55
83.27
96.25
105.62
112.51
117.87
122.53
127.26
132.70
139.32
147.36
156.81
167.52
179.32
192.18
206.15
221.33
237.67
254.87
272.33
289.26
304.82
318.18
328.41
334.30
334.26
326.56
309.73
283.22
247.78
205.45
159.08
111.56
65.17
21.12
-20.35
-59.75
-98.03
-136.18
-175.01
-214.76
-254.80
-293.41
-327.93
-355.34
-373.18
-380.40
-377.77
-367.75
-353.57
-338.06
-322.58
-306.67
-288.46
-265.72
-237.17
-203.30
-166.36
-129.68
-96.57
-69.39
-49.12
-35.64
-28.07
-25.31
-26.24
-29.62
-34.06
-38.07
-40.29
-39.88
-36.62
-30.86
-23.24
-14.34
-4.49
6.20
17.64
29.55
41.29
52.02
60.88
67.28
71.03
72.34
71.70
69.67
66.81
63.48
59.78
55.51
50.22
43.33
34.41
23.46
11.00
-1.97
-14.21
-24.70
-32.93
-39.09
-44.05
-49.04
-55.33
-63.86
-74.94
-87.95
-101.32
-112.51
-118.53
-116.67
-105.36
-84.90
-57.47
-26.65
3.64
30.16
51.07
65.93
75.37
80.50
82.40
81.97
79.89
76.68
72.63
67.98
62.83
57.33
51.75
46.52
42.12
38.90
36.94
35.93
35.27
34.11
31.68
27.46
21.35
13.68
5.13
-3.53
-11.71
-19.16
-25.95
-32.38
-38.77
-45.27
-51.83
-58.21
-64.12
-69.31
-73.72
-77.59
-81.51
-86.34
-92.98
-101.90
-112.63
-123.41
-131.47
-133.75
-127.93
-113.41
-91.65
-65.72
-39.35
-15.81
2.99
16.57
25.66
31.53
35.38
38.03
39.85
40.96
41.35
41.17
40.61
39.98
39.55
39.58
40.28
41.85
44.53
48.48
53.68
59.73
65.83
70.92
73.91
73.96
70.82
64.76
56.54
47.17
37.59
28.49
20.17
12.57
5.39
-1.78
-9.29
-17.27
-25.61
-33.97
-41.87
-48.88
-54.72
-59.51
-63.71
-68.22
-74.13
-82.42
-93.39
-106.15
-118.47
-127.06
-128.53
-120.54
-102.72
-77.00
-46.97
-16.73
10.33
32.32
48.97
61.06
69.82
76.34
81.39
85.38
88.56
91.01
92.70
93.50
93.22
91.73
89.12
85.75
82.21
79.17
77.12
76.18
76.08
76.20
75.77
74.16
70.99
66.25
60.19
53.23
45.83
38.37
31.17
24.47
18.40
12.92
7.83
2.84
-2.34
-7.83
-13.52
-19.08
-24.13
-28.42
-32.01
-35.29
-38.84
-43.19
-48.67
-55.16
-62.25
-69.27
-75.64
-81.01
-85.44
-89.36
-93.56
-99.02
-106.59
-116.69
-128.74
-140.91
-150.23
-153.29
-147.28
-131.10
-105.90
-74.77
-41.84
-10.97
15.19
35.62
50.69
61.54
69.46
75.52
80.41
84.55
88.08
91.00
93.17
94.46
94.79
94.19
92.84
91.08
89.30
87.91
87.21
87.22
87.69
88.06
87.62
85.71
82.01
76.62
70.04
63.02
56.28
50.28
45.12
40.63
36.38
32.06
27.38
22.32
17.02
11.73
6.75
2.27
-1.66
-5.21
-8.68
-12.40
-16.58
-21.24
-26.19
-31.12
-35.84
-40.30
-44.72
-49.45
-54.75
-60.71
-67.07
-73.41
-79.25
-84.25
-88.40
-92.05
-95.89
-100.80
-107.66
-116.86
-127.99
-139.40
-148.39
-151.74
-146.71
-132.01
-108.37
-78.42
-45.88
-14.48
12.98
35.11
51.84
64.01
72.85
79.59
85.18
90.20
94.74
98.48
100.96
101.75
100.73
98.15
94.60
90.80
87.40
84.79
83.10
82.13
81.51
80.71
79.12
76.25
71.76
65.62
58.10
49.77
41.35
33.42
26.41
20.35
15.06
10.23
5.62
1.13
-3.25
-7.48
-11.66
-15.86
-20.14
-24.39
-28.45
-32.08
-35.21
-37.96
-40.70
-43.87
-47.82
-52.64
-58.12
-63.74
-68.93
-73.22
-76.52
-79.22
-82.13
-86.27
-92.53
-101.27
-111.81
-122.47
-130.59
-133.23
-127.99
-113.91
-91.87
-64.42
-35.06
-7.16
16.84
35.85
49.87
59.60
65.98
69.89
72.06
73.07
73.34
73.08
72.35
71.09
69.32
67.22
65.14
63.57
62.80
62.97
63.89
65.18
66.25
66.48
65.35
62.44
57.67
51.25
43.77
36.01
28.77
22.53
17.33
12.78
8.29
3.38
-2.09
-7.76
-13.09
-17.53
-20.91
-23.52
-26.01
-29.12
-33.30
-38.60
-44.55
-50.48
-55.77
-60.13
-63.77
-67.36
-71.83
-78.07
-86.69
-97.49
-109.28
-119.79
-126.04
-125.20
-115.44
-96.79
-71.21
-42.15
-13.43
11.79
31.77
46.28
56.16
62.73
67.17
70.26
72.40
73.71
74.20
73.89
72.85
71.22
69.15
66.83
64.49
62.39
60.73
59.57
58.81
58.13
57.10
55.30
52.43
48.40
43.31
37.45
31.18
24.90
18.89
13.35
8.28
3.61
-0.73
-4.77
-8.46
-11.84
-15.05
-18.38
-22.17
-26.56
-31.46
-36.50
-41.24
-45.38
-49.00
-52.45
-56.35
-61.11
-66.89
-73.43
-80.17
-86.56
-92.28
-97.27
-101.89
-106.67
-112.24
-119.13
-127.44
-136.48
-144.46
-148.62
-145.81
-133.42
-110.51
-78.33
-40.12
-0.14
37.58
70.21
96.59
116.87
132.03
143.14
151.11
156.51
159.66
160.79
160.04
157.56
153.47
147.93
141.18
133.63
125.90
118.69
112.67
108.17
105.05
102.61
99.71
95.15
88.04
78.12
65.91
52.54
39.31
27.29
16.97
8.19
0.40
-7.04
-14.43
-21.71
-28.54
-34.68
-40.16
-45.30
-50.56
-56.25
-62.36
-68.51
-74.18
-78.90
-82.52
-85.23
-87.49
-89.79
-92.38
-95.19
-97.87
-100.00
-101.32
-101.90
-102.25
-103.14
-105.50
-110.20
-117.74
-127.94
-139.54
-150.06
-156.13
-154.36
-142.40
-120.06
-89.49
-54.63
-19.97
10.83
35.79
54.74
68.78
79.44
88.15
95.89
103.22
110.41
117.44
124.00
129.52
133.29
134.77
133.73
130.46
125.70
120.35
115.25
110.87
107.17
103.65
99.55
94.11
86.89
77.93
67.72
57.02
46.56
36.80
27.84
19.47
11.47
3.74
-3.52
-9.99
-15.44
-19.91
-23.79
-27.57
-31.67
-36.14
-40.72
-44.97
-48.64
-51.77
-54.81
-58.34
-62.83
-68.30
-74.38
-80.42
-85.78
-90.10
-93.53
-96.60
-100.11
-104.92
-111.75
-120.92
-132.01
-143.59
-153.12
-157.40
-153.41
-139.47
-115.99
-85.63
-52.53
-21.04
5.53
25.62
39.35
47.88
52.70
55.10
55.92
55.70
54.79
53.49
52.08
50.83
49.97
49.64
49.86
50.59
51.74
53.28
55.23
57.72
60.86
64.64
68.84
72.98
76.54
79.00
80.03
79.56
77.73
74.87
71.26
67.18
62.68
57.76
52.28
46.21
39.61
32.78
26.10
19.95
14.51
9.60
4.77
-0.60
-7.02
-14.70
-23.35
-32.39
-40.99
-48.43
-54.26
-58.54
-61.83
-65.14
-69.70
-76.50
-85.83
-96.78
-107.22
-114.10
-114.35
-105.90
-88.43
-63.62
-34.57
-4.94
22.14
44.65
61.93
74.28
82.54
87.68
90.54
91.82
92.01
91.43
90.17
88.24
85.53
82.08
78.11
74.02
70.32
67.36
65.23
63.62
61.94
59.46
55.59
49.97
42.55
33.59
23.62
13.34
3.47
-5.32
-12.74
-18.86
-24.19
-29.38
-34.96
-41.03
-47.19
-52.78
-57.23
-60.41
-62.79
-65.15
-68.33
-72.71
-78.15
-83.97
-89.35
-93.69
-96.89
-99.42
-102.19
-106.31
-112.68
-121.62
-132.37
-143.00
-150.48
-151.47
-143.33
-125.14
-98.26
-65.97
-32.50
-1.71
23.90
43.52
57.71
67.77
75.03
80.51
84.85
88.38
91.24
93.35
94.57
94.73
93.73
91.69
88.91
85.85
82.93
80.47
78.58
77.14
75.85
74.24
71.90
68.45
63.66
57.55
50.34
42.46
34.49
27.08
20.70
15.55
11.44
7.90
4.39
0.53
-3.72
-8.08
-12.08
-15.32
-17.53
-18.83
-19.64
-20.63
-22.51
-25.92
-31.11
-37.92
-45.80
-53.94
-61.60
-68.39
-74.36
-80.07
-86.40
-94.29
-104.29
-116.15
-128.45
-138.56
-143.16
-139.19
-125.02
-101.19
-70.45
-36.91
-4.81
22.70
44.20
59.93
71.11
79.23
85.43
90.36
94.28
97.17
98.98
99.64
99.13
97.47
94.77
91.25
87.30
83.41
80.05
77.56
75.92
74.79
73.52
71.45
68.04
63.08
56.65
49.08
40.71
31.82
22.68
13.61
5.02
-2.62
-8.94
-13.87
-17.69
-20.92
-24.14
-27.64
-31.36
-34.95
-38.02
-40.39
-42.25
-44.15
-46.70
-50.31
-55.03
-60.44
-65.90
-70.75
-74.61
-77.43
-79.51
-81.45
-83.94
-87.77
-93.50
-101.23
-110.14
-118.29
-122.86
-120.84
-110.12
-90.39
-63.53
-33.11
-3.29
22.44
42.24
56.04
65.12
71.15
75.59
79.24
82.28
84.55
85.75
85.64
84.11
81.19
77.05
72.05
66.69
61.61
57.45
54.65
53.31
53.07
53.17
52.67
50.69
46.75
40.90
33.67
25.89
18.35
11.61
5.92
1.18
-2.85
-6.49
-10.07
-13.77
-17.67
-21.64
-25.43
-28.65
-31.05
-32.50
-33.15
-33.41
-33.82
-34.91
-37.05
-40.22
-44.10
-48.17
-51.91
-55.01
-57.59
-60.20
-63.68
-68.99
-76.82
-87.24
-99.32
-110.98
-119.22
-120.82
-113.29
-95.81
-69.67
-37.98
-4.77
26.19
52.24
72.19
86.07
94.59
98.69
99.26
97.16
93.18
88.11
82.63
77.24
72.30
68.05
64.71
62.45
61.46
61.75
63.16
65.36
67.75
69.57
69.99
68.33
64.27
57.98
50.14
41.70
33.55
26.21
19.71
13.66
7.51
0.87
-6.29
-13.58
-20.45
-26.43
-31.38
-35.58
-39.61
-44.08
-49.25
-54.90
-60.43
-65.11
-68.44
-70.43
-71.58
-72.77
-75.01
-79.13
-85.57
-94.07
-103.45
-111.55
-115.68
-113.24
-102.65
-84.01
-59.22
-31.49
-4.37
19.23
37.78
51.12
60.14
66.12
70.16
72.92
74.52
74.89
73.96
71.88
69.13
66.29
63.89
62.14
61.04
60.41
60.05
59.87
59.78
59.59
58.88
57.08
53.59
48.14
40.91
32.53
23.93
16.07
9.60
4.68
1.00
-2.06
-5.19
-8.85
-13.10
-17.61
-21.82
-25.17
-27.39
-28.58
-29.31
-30.32
-32.35
-35.89
-41.00
-47.34
-54.28
-61.10
-67.17
-72.20
-76.31
-80.12
-84.62
-90.83
-99.32
-109.68
-120.19
-128.01
-129.89
-123.32
-107.48
-83.80
-55.48
-26.55
-0.52
20.53
36.24
47.47
55.59
61.84
66.98
71.43
75.32
78.67
81.40
83.24
83.84
82.92
80.44
76.76
72.54
68.55
65.40
63.38
62.37
61.93
61.42
60.21
57.84
54.12
49.19
43.40
37.18
30.96
25.04
19.58
14.66
10.28
6.43
3.00
-0.20
-3.38
-6.75
-10.45
-14.43
-18.50
-22.40
-25.93
-29.07
-32.00
-35.06
-38.60
-42.88
-47.85
-53.16
-58.34
-62.88
-66.57
-69.58
-72.51
-76.22
-81.61
-89.24
-99.02
-109.84
-119.52
-125.16
-123.87
-113.79
-94.85
-69.05
-39.99
-11.70
12.59
31.26
44.44
53.48
60.12
65.68
70.80
75.47
79.34
82.03
83.35
83.33
82.17
80.08
77.31
74.10
70.73
67.52
64.77
62.64
61.04
59.65
58.00
55.63
52.29
47.98
42.95
37.54
32.14
27.13
22.80
19.33
16.76
14.98
13.61
12.22
10.43
8.06
5.22
2.18
-0.71
-3.27
-5.59
-8.07
-11.25
-15.71
-21.73
-29.21
-37.64
-46.24
-54.27
-61.30
-67.35
-72.86
-78.60
-85.39
-93.93
-104.50
-116.58
-128.73
-138.51
-143.00
-139.57
-126.95
-105.81
-78.74
-49.48
-21.77
1.74
20.01
33.39
43.08
50.43
56.49
61.79
66.46
70.43
73.54
75.74
77.09
77.79
78.08
78.22
78.36
78.74
79.51
80.83
82.69
84.77
86.42
86.71
84.80
80.18
73.00
63.97
54.11
44.36
35.29
26.95
19.05
11.16
3.04
-5.16
-12.99
-19.79
-25.07
-28.78
-31.32
-33.51
-36.18
-39.94
-44.86
-50.60
-56.51
-61.93
-66.44
-69.97
-72.84
-75.72
-79.54
-85.20
-93.19
-103.11
-113.19
-120.58
-121.97
-114.75
-98.21
-73.92
-45.34
-16.66
8.58
28.46
42.86
52.87
60.05
65.66
70.37
74.35
77.56
79.88
81.21
81.50
80.71
78.89
76.18
72.93
69.63
66.76
64.70
63.52
62.95
62.43
61.35
59.17
55.68
50.94
45.28
39.11
32.77
26.53
20.52
14.88
9.67
4.94
0.65
-3.32
-7.14
-11.00
-14.97
-18.98
-22.84
-26.31
-29.28
-31.93
-34.67
-38.09
-42.64
-48.44
-55.17
-62.12
-68.57
-73.94
-78.11
-81.46
-84.76
-88.98
-95.09
-103.73
-114.77
-126.93
-137.71
-143.79
-141.98
-130.35
-109.01
-80.33
-48.17
-16.68
10.88
32.89
49.34
61.25
70.04
76.84
82.41
87.05
90.74
93.35
94.72
94.73
93.39
90.87
87.46
83.64
79.93
76.86
74.76
73.65
73.22
72.77
71.47
68.57
63.69
56.92
48.86
40.37
32.29
25.19
19.25
14.30
10.04
6.21
2.70
-0.38
-2.85
-4.66
-5.97
-7.12
-8.55
-10.62
-13.43
-16.73
-20.09
-23.08
-25.53
-27.67
-30.08
-33.39
-38.00
-43.84
-50.39
-56.88
-62.69
-67.54
-71.60
-75.47
-79.95
-85.87
-93.79
-103.64
-114.36
-123.79
-128.95
-126.95
-116.03
-96.35
-70.13
-41.01
-12.85
11.40
30.26
43.72
52.76
58.69
62.75
65.95
68.89
71.92
75.01
77.91
80.26
81.77
82.29
81.91
80.84
79.41
77.96
76.79
76.04
75.58
75.04
73.85
71.40
67.29
61.48
54.29
46.30
38.18
30.41
23.23
16.58
10.16
3.64
-3.20
-10.33
-17.47
-24.11
-29.73
-33.91
-36.55
-37.89
-38.43
-38.87
-39.79
-41.54
-44.04
-46.89
-49.51
-51.39
-52.35
-52.70
-53.18
-54.81
-58.66
-65.44
-75.16
-86.81
-98.32
-106.83
-109.42
-103.96
-89.90
-68.57
-42.87
-16.36
7.63
26.93
40.65
49.15
53.45
54.80
54.24
52.54
50.15
47.28
44.12
40.77
37.43
34.32
31.70
29.79
28.80
28.83
29.84
31.67
33.89
35.96
37.31
37.45
36.18
33.56
29.89
25.56
20.94
16.27
11.70
7.33
3.22
-0.53
-3.97
-7.20
-10.56
-14.34
-18.79
-23.88
-29.39
-34.86
-39.86
-44.11
-47.55
-50.45
-53.28
-56.74
-61.59
-68.41
-77.21
-87.02
-95.82
-100.80
-99.30
-89.69
-72.19
-48.87
-23.04
1.89
23.36
40.25
52.69
61.56
67.85
72.24
75.06
76.41
76.36
75.06
72.74
69.64
66.03
62.13
58.26
54.82
52.26
50.96
51.07
52.33
54.09
55.42
55.36
53.18
48.66
42.16
34.50
26.66
19.58
13.73
9.03
4.98
0.83
-3.94
-9.43
-15.27
-20.79
-25.42
-28.90
-31.52
-33.86
-36.61
-40.27
-44.89
-50.18
-55.58
-60.51
-64.62
-67.92
-70.85
-74.21
-79.00
-86.08
-95.76
-107.32
-118.88
-127.53
-130.04
-123.96
-108.52
-85.10
-56.93
-27.98
-1.74
19.70
35.94
47.83
56.70
63.73
69.62
74.64
78.81
82.03
84.19
85.09
84.67
82.89
79.99
76.45
72.86
69.81
67.71
66.66
66.39
66.38
66.00
64.72
62.24
58.54
53.83
48.42
42.61
36.70
30.99
25.79
21.29
17.53
14.21
10.87
7.00
2.33
-3.00
-8.56
-13.76
-18.21
-21.89
-25.21
-28.80
-33.21
-38.70
-45.09
-51.86
-58.28
-63.76
-68.02
-71.24
-74.03
-77.33
-82.20
-89.53
-99.69
-112.06
-124.87
-135.21
-139.74
-135.61
-121.64
-98.77
-70.01
-39.43
-10.89
12.97
31.27
44.52
53.96
60.96
66.51
71.24
75.40
79.08
82.14
84.28
85.15
84.46
82.18
78.65
74.53
70.62
67.62
65.90
65.40
65.59
65.69
64.87
62.60
58.69
53.38
47.23
40.81
34.60
28.86
23.60
18.70
14.05
9.65
5.54
1.80
-1.57
-4.71
-7.85
-11.21
-14.84
-18.57
-22.14
-25.26
-27.88
-30.19
-32.64
-35.75
-39.88
-45.09
-51.10
-57.37
-63.36
-68.69
-73.34
-77.61
-82.19
-87.89
-95.43
-105.03
-115.99
-126.44
-133.53
-134.15
-125.96
-108.44
-83.22
-53.81
-24.34
1.60
22.07
36.91
47.23
54.60
60.32
64.99
68.76
71.53
73.28
74.16
74.37
74.07
73.32
72.07
70.37
68.45
66.74
65.71
65.67
66.55
67.81
68.53
67.74
64.77
59.51
52.48
44.60
36.83
29.75
23.38
17.30
10.99
4.10
-3.23
-10.44
-16.79
-21.68
-24.93
-26.89
-28.25
-29.80
-32.16
-35.51
-39.68
-44.21
-48.68
-52.82
-56.66
-60.50
-64.82
-70.25
-77.37
-86.44
-96.96
-107.44
-115.33
-117.66
-111.95
-97.29
-74.84
-47.64
-19.64
5.64
26.09
41.35
52.42
60.80
67.70
73.58
78.27
81.30
82.41
81.72
79.70
76.98
74.07
71.27
68.63
66.15
63.88
61.99
60.68
59.98
59.62
59.02
57.45
54.29
49.31
42.77
35.33
27.85
21.04
15.24
10.30
5.72
0.92
-4.57
-10.78
-17.38
-23.79
-29.38
-33.75
-36.89
-39.20
-41.36
-44.15
-48.11
-53.41
-59.69
-66.23
-72.20
-76.97
-80.45
-83.07
-85.85
-89.94
-96.32
-105.32
-116.12
-126.64
-133.81
-134.32
-125.74
-107.45
-81.09
-50.10
-18.66
9.64
32.67
50.05
62.61
71.71
78.54
83.93
88.28
91.77
94.48
96.37
97.31
97.12
95.68
93.07
89.66
85.97
82.60
79.98
78.24
77.14
76.10
74.42
71.48
66.97
60.98
54.02
46.74
39.74
33.40
27.83
22.98
18.68
14.82
11.29
8.04
5.01
2.10
-0.82
-3.90
-7.29
-11.04
-15.08
-19.22
-23.20
-26.83
-30.21
-33.64
-37.62
-42.55
-48.57
-55.38
-62.42
-69.00
-74.63
-79.20
-83.05
-86.90
-91.73
-98.44
-107.52
-118.45
-129.49
-137.75
-139.88
-133.23
-116.86
-92.15
-62.40
-31.72
-3.81
19.10
36.47
49.04
58.11
64.91
70.35
74.97
79.13
82.91
86.16
88.49
89.43
88.69
86.33
82.88
79.05
75.58
72.90
71.14
70.05
69.22
68.13
66.29
63.33
59.04
53.53
47.18
40.51
34.04
28.03
22.54
17.43
12.57
7.90
3.51
-0.58
-4.38
-8.05
-11.75
-15.54
-19.34
-22.96
-26.26
-29.26
-32.18
-35.34
-39.04
-43.40
-48.32
-53.54
-58.64
-63.31
-67.33
-70.75
-73.89
-77.34
-81.94
-88.46
-97.28
-107.85
-118.43
-126.24
-128.06
-121.36
-105.21
-80.88
-51.56
-21.31
6.14
28.44
44.97
56.40
64.08
69.33
73.05
75.72
77.54
78.54
78.68
77.90
76.14
73.44
70.04
66.38
63.00
60.44
59.06
58.88
59.52
60.29
60.34
58.85
55.33
49.74
42.55
34.54
26.62
19.53
13.56
8.54
4.02
-0.46
-5.12
-9.81
-14.06
-17.43
-19.73
-21.30
-22.74
-24.83
-28.04
-32.41
-37.54
-42.82
-47.71
-51.93
-55.64
-59.31
-63.69
-69.58
-77.49
-87.28
-97.81
-106.90
-111.69
-109.48
-98.70
-79.64
-54.57
-27.06
-0.90
21.03
37.44
48.58
55.63
60.01
62.76
64.42
65.17
65.02
64.09
62.63
60.84
58.92
56.89
54.83
52.84
51.22
50.35
50.45
51.48
52.93
53.95
53.61
51.23
46.64
40.25
32.90
25.57
19.01
13.54
9.00
4.87
0.55
-4.40
-10.08
-16.21
-22.27
-27.72
-32.22
-35.80
-38.84
-41.85
-45.31
-49.44
-54.11
-58.93
-63.43
-67.24
-70.38
-73.27
-76.74
-81.80
-89.30
-99.29
-110.72
-121.18
-127.39
-126.14
-115.44
-95.35
-68.17
-37.75
-8.22
17.21
36.97
51.11
60.70
67.10
71.42
74.36
76.30
77.48
78.01
77.95
77.24
75.77
73.51
70.59
67.35
64.30
61.96
60.65
60.36
60.69
60.91
60.26
58.19
54.52
49.51
43.68
37.56
31.56
25.84
20.46
15.44
10.90
6.95
3.64
0.80
-1.86
-4.64
-7.71
-11.01
-14.29
-17.32
-20.01
-22.60
-25.54
-29.37
-34.44
-40.76
-47.90
-55.20
-61.96
-67.79
-72.65
-77.00
-81.64
-87.45
-95.24
-105.38
-117.43
-129.83
-139.87
-144.24
-139.93
-125.48
-101.63
-71.39
-38.98
-8.57
16.96
36.52
50.57
60.40
67.35
72.46
76.35
79.36
81.65
83.34
84.39
84.72
84.25
83.00
81.12
78.89
76.74
75.02
74.07
73.93
74.39
74.86
74.56
72.72
68.88
63.03
55.58
47.28
38.97
31.31
24.66
19.04
14.15
9.55
4.85
-0.23
-5.66
-11.21
-16.52
-21.24
-25.16
-28.35
-31.14
-34.04
-37.62
-42.19
-47.79
-54.04
-60.30
-65.87
-70.31
-73.58
-76.14
-78.82
-82.64
-88.56
-97.04
-107.69
-118.98
-128.23
-132.23
-128.15
-114.63
-92.40
-64.23
-34.04
-5.72
18.02
36.09
48.83
57.44
63.23
67.25
70.12
72.13
73.42
74.00
73.88
73.15
71.88
70.26
68.54
66.92
65.64
64.84
64.55
64.66
64.82
64.50
63.15
60.29
55.74
49.71
42.69
35.34
28.35
22.19
17.09
12.99
9.50
6.19
2.60
-1.48
-5.91
-10.21
-13.87
-16.58
-18.43
-20.07
-22.36
-26.04
-31.35
-37.87
-44.66
-50.67
-55.21
-58.21
-60.22
-62.17
-65.13
-70.00
-77.29
-86.92
-97.92
-108.25
-115.03
-115.25
-106.73
-89.14
-64.34
-35.92
-8.08
15.69
33.52
45.36
52.45
56.52
59.02
60.79
62.08
62.81
62.85
62.17
60.91
59.29
57.58
55.99
54.72
53.93
53.79
54.45
55.85
57.69
59.34
59.98
58.81
55.39
49.81
42.73
35.12
28.00
22.02
17.30
13.43
9.73
5.54
0.57
-5.00
-10.62
-15.63
-19.68
-22.89
-25.74
-28.89
-32.73
-37.29
-42.18
-46.89
-51.07
-54.70
-58.07
-61.66
-66.06
-71.86
-79.61
-89.46
-100.83
-112.03
-120.35
-122.64
-116.37
-100.78
-77.28
-49.23
-20.75
4.48
24.32
38.42
47.73
53.83
58.11
61.42
64.11
66.18
67.54
68.11
67.93
67.06
65.65
63.79
61.62
59.31
57.09
55.23
53.96
53.33
53.10
52.79
51.73
49.34
45.35
39.90
33.52
26.96
20.97
16.05
12.38
9.75
7.68
5.59
2.94
-0.61
-5.10
-10.21
-15.45
-20.32
-24.50
-28.07
-31.44
-35.24
-39.99
-45.83
-52.44
-59.10
-65.03
-69.71
-73.17
-75.96
-79.10
-83.71
-90.67
-100.20
-111.44
-122.32
-129.81
-130.72
-122.68
-105.17
-79.86
-50.15
-20.15
6.68
28.33
44.46
55.96
64.21
70.47
75.63
80.19
84.36
88.10
91.14
93.05
93.38
91.91
88.81
84.65
80.27
76.41
73.56
71.75
70.66
69.74
68.47
66.38
63.23
59.00
53.83
48.04
42.05
36.32
31.19
26.85
23.25
20.05
16.79
13.02
8.47
3.23
-2.29
-7.49
-11.85
-15.21
-17.84
-20.37
-23.55
-27.92
-33.53
-40.03
-46.75
-53.05
-58.51
-63.12
-67.26
-71.52
-76.64
-83.33
-92.03
-102.53
-113.69
-123.28
-128.31
-125.92
-114.34
-93.87
-66.82
-37.09
-8.77
15.05
32.96
45.28
53.33
58.67
62.47
65.34
67.45
68.81
69.44
69.35
68.62
67.27
65.30
62.86
60.19
57.73
55.94
55.14
55.31
56.03
56.54
55.97
53.65
49.38
43.48
36.67
29.72
23.22
17.36
11.98
6.71
1.30
-4.30
-9.83
-14.98
-19.54
-23.54
-27.30
-31.34
-36.05
-41.54
-47.56
-53.58
-58.99
-63.39
-66.73
-69.35
-71.87
-75.10
-79.86
-86.70
-95.53
-105.32
-113.97
-118.61
-116.49
-105.87
-86.88
-61.62
-33.56
-6.46
16.79
34.74
47.39
55.74
61.03
64.25
65.95
66.35
65.55
63.72
61.21
58.46
55.90
53.76
52.06
50.73
49.70
49.00
48.77
49.07
49.69
50.03
49.21
46.38
41.09
33.48
24.30
14.67
5.54
-2.47
-9.42
-15.81
-22.34
-29.50
-37.40
-45.66
-53.58
-60.52
-66.10
-70.43
-74.12
-78.15
-83.60
-91.38
-101.79
-114.17
-126.68
-136.44
-140.24
-135.50
-121.22
-98.56
-70.47
-40.85
-13.29
9.78
27.59
40.69
50.45
58.35
65.47
72.24
78.53
83.84
87.73
90.08
91.24
91.84
92.42
93.11
93.61
93.36
91.96
89.41
86.06
82.30
78.24
73.66
68.14
61.39
53.53
45.05
36.63
28.76
21.64
15.13
9.05
3.21
-2.43
-7.91
-13.38
-19.09
-25.30
-32.10
-39.26
-46.29
-52.61
-57.81
-61.94
-65.53
-69.46
-74.75
-82.21
-92.12
-103.94
-116.08
-126.06
-130.99
-128.36
-116.89
-97.09
-71.18
-42.50
-14.51
10.17
30.28
45.82
57.60
66.57
73.49
78.74
82.50
84.88
86.06
86.23
85.59
84.32
82.50
80.29
77.91
75.64
73.82
72.62
72.04
71.75
71.22
69.75
66.76
61.96
55.49
47.91
40.04
32.69
26.36
21.12
16.59
12.12
7.04
1.02
-5.81
-12.86
-19.27
-24.37
-27.93
-30.37
-32.52
-35.31
-39.37
-44.78
-51.05
-57.46
-63.30
-68.15
-72.04
-75.33
-78.70
-83.06
-89.25
-97.83
-108.52
-119.87
-129.34
-133.73
-130.29
-117.61
-96.37
-69.13
-39.55
-11.26
13.18
32.67
47.46
58.53
67.02
73.75
79.15
83.33
86.24
87.81
88.05
87.01
84.88
81.97
78.66
75.42
72.70
70.82
69.90
69.78
69.96
69.79
68.56
65.82
61.45
55.81
49.49
43.17
37.35
32.18
27.51
23.04
18.55
13.98
9.52
5.42
1.82
-1.37
-4.42
-7.66
-11.29
-15.25
-19.27
-23.07
-26.57
-29.98
-33.72
-38.25
-43.79
-50.17
-56.87
-63.27
-68.82
-73.32
-76.92
-80.11
-83.61
-88.19
-94.54
-102.97
-112.96
-123.09
-130.93
-133.68
-128.96
-115.71
-94.67
-68.19
-39.58
-12.05
12.06
31.64
46.67
57.78
65.88
71.79
76.09
79.13
81.07
81.96
81.80
80.68
78.75
76.22
73.38
70.53
68.03
66.23
65.36
65.47
66.25
67.12
67.32
66.11
63.08
58.20
51.91
44.90
37.96
31.67
26.30
21.72
17.53
13.24
8.50
3.20
-2.51
-8.28
-13.75
-18.63
-22.81
-26.37
-29.62
-32.95
-36.70
-41.05
-45.91
-50.93
-55.58
-59.46
-62.40
-64.73
-67.11
-70.48
-75.70
-83.23
-92.82
-103.23
-112.34
-117.49
-116.22
-107.07
-90.15
-67.25
-41.36
-15.76
6.93
25.25
38.95
48.68
55.35
59.85
62.77
64.44
65.12
64.92
63.97
62.38
60.34
58.13
56.12
54.69
54.11
54.48
55.60
57.10
58.43
58.98
58.18
55.68
51.46
45.87
39.56
33.19
27.26
21.92
16.97
12.03
6.78
1.18
-4.54
-9.98
-14.75
-18.75
-22.19
-25.55
-29.35
-33.92
-39.17
-44.71
-49.97
-54.48
-58.19
-61.45
-64.90
-69.33
-75.40
-83.47
-93.33
-104.02
-113.66
-119.74
-119.68
-111.68
-95.49
-72.65
-46.12
-19.36
4.70
24.34
39.15
49.74
57.13
62.25
65.78
68.06
69.24
69.40
68.65
67.16
65.21
63.12
61.18
59.59
58.42
57.62
57.13
56.85
56.72
56.56
56.03
54.66
52.01
47.86
42.31
35.86
29.19
22.97
17.62
13.22
9.51
6.06
2.40
-1.78
-6.53
-11.64
-16.67
-21.16
-24.85
-27.85
-30.64
-33.89
-38.13
-43.55
-49.81
-56.22
-62.06
-66.88
-70.68
-73.96
-77.50
-82.14
-88.58
-97.01
-106.81
-116.38
-123.25
-124.68
-118.44
-103.69
-81.46
-54.36
-25.94
0.52
22.79
40.04
52.64
61.58
67.95
72.50
75.64
77.47
78.04
77.46
75.92
73.67
71.02
68.34
65.93
64.06
62.89
62.41
62.49
62.84
63.15
63.06
62.25
60.40
57.32
53.00
47.60
41.55
35.34
29.44
24.12
19.37
14.98
10.64
6.12
1.36
-3.54
-8.31
-12.70
-16.49
-19.62
-22.22
-24.56
-27.03
-30.03
-33.85
-38.59
-44.05
-49.82
-55.37
-60.17
-63.90
-66.71
-69.14
-72.16
-76.80
-83.85
-93.31
-104.09
-113.96
-120.00
-119.37
-110.29
-92.71
-68.49
-40.87
-13.38
11.08
30.88
45.78
56.41
63.74
68.60
71.58
73.04
73.31
72.70
71.53
69.99
68.16
66.09
63.82
61.46
59.16
57.02
55.14
53.48
51.98
50.45
48.67
46.28
42.93
38.37
32.57
25.84
18.75
11.99
6.10
1.33
-2.46
-5.62
-8.61
-11.69
-14.84
-17.79
-20.14
-21.68
-22.42
-22.76
-23.24
-24.42
-26.59
-29.75
-33.59
-37.66
-41.59
-45.13
-48.32
-51.48
-55.09
-59.84
-66.25
-74.52
-84.07
-93.46
-100.45
-102.62
-98.11
-86.25
-67.93
-45.27
-21.10
1.95
21.91
37.77
49.40
57.26
62.09
64.70
65.81
65.92
65.32
64.12
62.34
60.07
57.48
54.87
52.53
50.71
49.52
48.95
48.86
49.00
49.03
48.51
47.06
44.44
40.59
35.73
30.24
24.58
19.11
13.97
9.15
4.47
-0.33
-5.30
-10.33
-15.21
-19.68
-23.69
-27.42
-31.17
-35.21
-39.56
-43.95
-47.94
-51.19
-53.58
-55.44
-57.38
-60.14
-64.39
-70.45
-78.02
-85.95
-92.42
-95.12
-92.05
-82.15
-65.80
-44.86
-22.08
-0.27
18.44
33.06
43.64
50.88
55.61
58.45
59.73
59.58
58.15
55.70
52.62
49.39
46.38
43.78
41.62
39.85
38.46
37.49
37.08
37.23
37.73
38.06
37.52
35.49
31.61
25.97
19.08
11.73
4.67
-1.62
-7.04
-11.97
-16.94
-22.50
-28.86
-35.80
-42.73
-48.99
-54.06
-57.81
-60.53
-62.87
-65.64
-69.66
-75.46
-83.02
-91.44
-98.91
-102.95
-101.14
-91.96
-75.52
-53.59
-29.13
-5.28
15.50
32.02
44.19
52.73
58.46
62.09
63.98
64.33
63.28
61.14
58.33
55.39
52.83
50.95
49.79
49.18
48.83
48.50
48.07
47.51
46.82
45.86
44.42
42.20
38.97
34.60
29.15
22.80
15.91
8.89
2.23
-3.67
-8.64
-12.85
-16.75
-20.88
-25.69
-31.19
-37.08
-42.78
-47.79
-51.90
-55.29
-58.49
-62.17
-66.99
-73.53
-82.01
-92.14
-102.70
-111.55
-115.92
-113.21
-101.99
-82.73
-57.75
-30.59
-4.81
17.05
33.98
46.33
55.21
61.80
66.91
70.91
73.80
75.56
76.17
75.75
74.55
72.83
70.89
68.91
67.05
65.38
63.93
62.71
61.67
60.62
59.32
57.39
54.55
50.63
45.74
40.18
34.39
28.80
23.72
19.30
15.51
12.22
9.24
6.30
3.14
-0.46
-4.59
-9.11
-13.64
-17.77
-21.21
-23.99
-26.55
-29.55
-33.59
-38.93
-45.37
-52.28
-58.91
-64.67
-69.40
-73.39
-77.28
-81.90
-88.03
-96.11
-106.04
-116.80
-126.32
-131.85
-130.58
-120.70
-102.12
-76.78
-48.06
-19.73
5.18
25.17
40.24
51.43
60.03
67.03
72.92
77.76
81.46
83.88
85.00
84.92
83.85
82.08
79.86
77.49
75.16
73.09
71.48
70.48
70.07
69.96
69.65
68.49
65.96
61.86
56.42
50.19
43.85
38.02
32.97
28.69
24.92
21.32
17.58
13.60
9.53
5.70
2.47
0.01
-1.80
-3.34
-5.10
-7.48
-10.64
-14.46
-18.61
-22.74
-26.59
-30.05
-33.24
-36.43
-39.97
-44.20
-49.30
-55.15
-61.37
-67.36
-72.61
-76.88
-80.34
-83.60
-87.59
-93.26
-101.20
-111.21
-121.95
-130.93
-135.03
-131.43
-118.59
-97.05
-69.34
-39.19
-10.39
14.33
33.78
48.17
58.48
65.90
71.31
75.31
78.26
80.41
81.91
82.76
82.86
82.02
80.20
77.62
74.69
72.02
70.09
69.19
69.12
69.39
69.27
68.07
65.41
61.20
55.75
49.54
43.13
36.95
31.29
26.21
21.64
17.45
13.50
9.74
6.14
2.66
-0.77
-4.26
-7.91
-11.72
-15.53
-19.09
-22.17
-24.72
-26.96
-29.27
-32.17
-35.97
-40.78
-46.33
-52.09
-57.48
-62.05
-65.66
-68.54
-71.33
-74.93
-80.24
-87.81
-97.43
-107.80
-116.53
-120.59
-117.24
-105.01
-84.35
-57.67
-28.58
-0.73
23.18
41.86
55.38
64.53
70.29
73.49
74.71
74.41
72.97
70.74
68.05
65.16
62.33
59.78
57.74
56.35
55.69
55.74
56.39
57.40
58.42
58.96
58.46
56.53
53.01
48.15
42.43
36.42
30.55
25.11
20.20
15.84
12.01
8.61
5.42
2.14
-1.48
-5.52
-9.82
-14.04
-17.80
-20.94
-23.60
-26.18
-29.16
-32.90
-37.51
-42.87
-48.68
-54.58
-60.23
-65.35
-69.82
-73.70
-77.35
-81.41
-86.75
-94.18
-103.85
-114.79
-124.78
-130.66
-129.33
-118.80
-99.14
-72.48
-42.40
-12.73
13.47
34.60
50.46
61.71
69.41
74.52
77.82
79.86
81.00
81.44
81.24
80.38
78.86
76.76
74.30
71.81
69.69
68.26
67.72
68.00
68.78
69.42
69.22
67.55
64.17
59.26
53.29
46.87
40.41
34.10
27.99
22.05
16.33
10.97
6.09
1.62
-2.65
-7.08
-11.92
-17.23
-22.71
-27.95
-32.50
-36.11
-38.88
-41.17
-43.51
-46.38
-49.98
-54.21
-58.74
-63.12
-67.03
-70.40
-73.43
-76.64
-80.73
-86.49
-94.46
-104.52
-115.46
-124.93
-129.74
-126.84
-114.42
-92.71
-64.07
-32.35
-1.60
24.98
45.73
60.51
70.18
75.97
79.01
80.20
80.13
79.24
77.81
76.03
73.99
71.73
69.32
66.79
64.27
61.91
59.94
58.55
57.83
57.65
57.64
57.24
55.91
53.31
49.40
44.46
38.96
33.34
27.95
22.96
18.40
14.20
10.34
6.74
3.34
-0.01
-3.49
-7.23
-11.26
-15.35
-19.19
-22.41
-24.93
-27.00
-29.26
-32.41
-36.86
-42.54
-48.87
-55.04
-60.36
-64.60
-68.04
-71.43
-75.72
-81.82
-90.24
-100.76
-112.09
-121.86
-126.95
-124.41
-112.46
-91.27
-63.09
-31.61
-0.84
26.00
47.14
62.30
72.26
78.29
81.70
83.56
84.57
85.05
85.00
84.18
82.37
79.51
75.78
71.65
67.61
64.11
61.42
59.65
58.71
58.41
58.33
57.81
56.19
52.84
47.58
40.70
32.95
25.25
18.40
12.80
8.34
4.55
0.76
-3.51
-8.41
-13.66
-18.70
-22.95
-26.13
-28.41
-30.37
-32.77
-36.21
-40.83
-46.29
-51.92
-57.05
-61.24
-64.49
-67.17
-69.92
-73.52
-78.74
-86.09
-95.55
-106.12
-115.63
-121.05
-119.35
-108.56
-88.72
-62.08
-32.38
-3.74
20.70
39.37
52.39
60.84
66.12
69.32
70.98
71.33
70.42
68.31
65.28
61.78
58.29
55.24
52.91
51.37
50.53
50.27
50.41
50.82
51.25
51.31
50.53
48.40
44.61
39.09
32.11
24.20
16.03
8.30
1.50
-4.15
-8.86
-13.10
-17.50
-22.55
-28.36
-34.62
-40.75
-46.11
-50.26
-53.20
-55.31
-57.31
-60.06
-64.46
-71.11
-80.01
-90.11
-99.27
-104.59
-103.27
-93.57
-75.63
-51.54
-24.69
1.30
23.62
40.82
52.85
60.50
64.89
66.98
67.48
66.84
65.29
63.02
60.16
56.90
53.54
50.43
47.93
46.33
45.73
45.97
46.73
47.53
47.98
47.69
46.41
44.01
40.39
35.64
29.89
23.43
16.61
9.78
3.30
-2.62
-7.88
-12.49
-16.62
-20.53
-24.54
-28.89
-33.71
-38.90
-44.18
-49.19
-53.63
-57.45
-60.90
-64.55
-69.20
-75.66
-84.36
-94.94
-105.98
-114.93
-118.76
-114.89
-102.11
-81.18
-54.75
-26.53
-0.14
21.85
38.45
50.08
57.97
63.52
67.72
70.97
73.27
74.41
74.26
72.90
70.62
67.81
64.84
62.01
59.56
57.71
56.70
56.63
57.36
58.42
59.08
58.61
56.50
52.70
47.56
41.71
35.80
30.27
25.29
20.80
16.58
12.40
8.06
3.46
-1.50
-6.80
-12.31
-17.76
-22.79
-27.07
-30.53
-33.41
-36.24
-39.68
-44.17
-49.74
-55.91
-61.90
-66.97
-70.75
-73.41
-75.72
-78.78
-83.76
-91.41
-101.68
-113.31
-123.87
-130.25
-129.41
-119.57
-100.79
-75.13
-45.98
-17.02
8.80
29.87
45.95
57.72
66.28
72.65
77.64
81.67
84.85
87.08
88.11
87.74
85.97
83.03
79.40
75.63
72.20
69.43
67.45
66.19
65.38
64.63
63.43
61.29
57.93
53.33
47.78
41.83
36.08
30.98
26.67
23.00
19.56
15.93
11.88
7.45
2.99
-1.05
-4.29
-6.65
-8.34
-9.85
-11.67
-14.18
-17.47
-21.32
-25.37
-29.19
-32.54
-35.43
-38.11
-41.00
-44.51
-48.85
-53.91
-59.30
-64.51
-69.06
-72.79
-75.83
-78.72
-82.26
-87.32
-94.53
-103.89
-114.38
-123.90
-129.54
-128.38
-118.50
-99.78
-74.05
-44.69
-15.48
10.47
31.50
47.43
59.16
67.87
74.52
79.56
83.01
84.85
85.12
84.09
82.13
79.61
76.78
73.79
70.79
67.98
65.68
64.14
63.45
63.36
63.37
62.85
61.19
58.10
53.60
48.09
42.11
36.21
30.81
26.10
22.00
18.29
14.71
11.01
7.18
3.36
-0.23
-3.32
-5.91
-8.18
-10.57
-13.46
-17.08
-21.29
-25.75
-30.04
-33.90
-37.40
-40.87
-44.77
-49.38
-54.68
-60.34
-65.83
-70.68
-74.64
-77.81
-80.64
-83.89
-88.39
-94.78
-103.19
-112.86
-121.96
-127.84
-127.71
-119.49
-102.67
-78.65
-50.38
-21.45
4.94
26.79
43.44
55.39
63.68
69.44
73.55
76.59
78.82
80.30
80.96
80.71
79.61
77.89
75.94
74.17
72.87
72.11
71.81
71.82
71.94
71.97
71.62
70.51
68.25
64.61
59.61
53.62
47.20
40.92
35.15
29.97
25.29
20.91
16.66
12.45
8.18
3.79
-0.78
-5.49
-10.16
-14.51
-18.35
-21.67
-24.72
-27.98
-31.90
-36.73
-42.39
-48.52
-54.57
-60.05
-64.70
-68.60
-72.15
-76.04
-81.10
-88.05
-97.18
-107.94
-118.62
-126.59
-128.86
-122.99
-108.09
-85.24
-57.28
-27.97
-0.78
21.90
39.18
51.40
59.57
64.79
67.97
69.74
70.51
70.53
70.00
68.98
67.49
65.49
63.07
60.45
57.98
56.11
55.15
55.18
55.92
56.74
56.85
55.54
52.40
47.48
41.27
34.41
27.57
21.19
15.42
10.19
5.23
0.33
-4.63
-9.56
-14.24
-18.43
-21.95
-24.86
-27.43
-30.12
-33.37
-37.45
-42.30
-47.53
-52.58
-56.88
-60.19
-62.69
-65.09
-68.42
-73.66
-81.07
-89.93
-98.28
-103.48
-102.99
-95.26
-80.35
-59.91
-36.57
-13.05
8.46
26.70
41.13
51.71
58.69
62.41
63.46
62.54
60.32
57.31
53.76
49.78
45.66
41.96
39.52
39.07
40.93
44.72
49.46
53.89
56.91
57.96
57.03
54.50
50.87
46.43
41.23
35.17
28.17
20.39
12.34
4.71
-1.84
-6.95
-10.73
-13.77
-16.88
-20.72
-25.56
-31.14
-36.84
-42.03
-46.39
-50.00
-53.37
-57.13
-61.86
-67.92
-75.34
-83.80
-92.50
-100.03
-104.44
-103.59
-95.79
-80.49
-58.70
-32.89
-6.33
17.88
37.63
52.15
61.94
68.08
71.75
73.74
74.37
73.66
71.67
68.60
64.89
61.08
57.61
54.76
52.55
50.87
49.67
48.93
48.69
48.88
49.15
48.96
47.73
45.01
40.73
35.27
29.24
23.33
18.03
13.42
9.24
4.99
0.25
-5.14
-10.93
-16.64
-21.68
-25.68
-28.69
-31.15
-33.75
-37.15
-41.69
-47.26
-53.38
-59.32
-64.44
-68.42
-71.38
-73.93
-77.00
-81.62
-88.59
-98.04
-109.09
-119.66
-126.77
-127.28
-118.95
-101.30
-76.04
-46.54
-16.85
9.56
30.63
45.95
56.29
62.99
67.27
69.99
71.58
72.22
72.00
71.02
69.37
67.22
64.70
61.98
59.25
56.70
54.53
52.89
51.76
50.92
49.89
48.10
45.03
40.47
34.53
27.68
20.54
13.69
7.47
2.01
-2.78
-7.06
-10.97
-14.58
-17.93
-21.02
-23.83
-26.28
-28.25
-29.68
-30.68
-31.65
-33.37
-36.75
-42.55
-51.09
-62.02
-74.44
-87.08
-98.71
-108.29
-115.17
-119.16
-120.47
-119.84
-118.47
-117.96
-119.88
-125.16
-133.39
-142.49
-148.95
-148.75
-138.84
-118.21
-88.55
-53.67
-18.33
13.31
38.73
57.45
70.52
79.70
86.67
92.55
97.85
102.64
106.79
110.14
112.53
113.89
114.18
113.41
111.74
109.50
107.15
105.26
104.28
104.33
105.10
105.85
105.68
103.79
99.82
93.95
86.74
79.05
71.61
64.94
59.19
54.16
49.39
44.34
38.53
31.73
24.13
16.15
8.50
1.70
-3.98
-8.81
-13.38
-18.45
-24.60
-31.92
-40.04
-48.23
-55.72
-62.02
-67.17
-71.72
-76.60
-82.88
-91.41
-102.39
-114.97
-127.06
-135.52
-137.00
-128.96
-110.76
-84.06
-52.37
-20.03
9.20
33.03
50.85
63.35
71.81
77.51
81.46
84.39
86.75
88.80
90.56
91.77
92.08
91.22
89.13
86.09
82.66
79.52
77.25
76.12
75.91
75.91
75.20
72.89
68.49
62.10
54.31
46.01
37.97
30.65
24.06
17.87
11.65
5.10
-1.79
-8.72
-15.22
-20.92
-25.76
-30.10
-34.58
-39.84
-46.19
-53.42
-60.95
-68.05
-74.22
-79.45
-84.29
-89.66
-96.62
-105.95
-117.75
-131.10
-143.81
-152.73
-154.49
-146.57
-128.25
-101.12
-68.67
-35.31
-4.99
19.71
38.02
50.61
58.88
64.25
67.67
69.63
70.26
69.73
68.31
66.43
64.58
63.10
62.07
61.40
60.88
60.41
60.04
59.96
60.29
60.93
61.39
60.97
58.87
54.60
48.13
40.05
31.32
23.02
15.94
10.30
5.69
1.30
-3.74
-9.95
-17.28
-25.16
-32.73
-39.25
-44.37
-48.20
-51.30
-54.47
-58.61
-64.52
-72.80
-83.39
-95.24
-106.16
-112.99
-112.55
-102.64
-83.09
-55.97
-25.01
5.56
32.32
53.48
68.96
79.75
87.18
92.22
95.32
96.59
96.06
94.03
90.98
87.52
84.14
81.01
78.10
75.23
72.31
69.37
66.56
63.99
61.54
58.78
55.10
49.82
42.50
33.11
22.02
10.01
-1.99
-13.07
-22.61
-30.45
-36.86
-42.45
-47.93
-53.85
-60.38
-67.28
-74.03
-80.03
-84.90
-88.62
-91.67
-94.88
-99.33
-106.05
-115.63
-127.80
-141.10
-152.80
-159.43
-157.67
-145.49
-123.04
-92.74
-58.62
-25.06
4.40
27.87
45.13
57.15
65.29
70.78
74.44
76.76
78.03
78.52
78.41
77.88
76.98
75.75
74.27
72.67
71.25
70.31
70.08
70.57
71.44
72.09
71.81
70.03
66.48
61.34
55.11
48.42
41.80
35.52
29.52
23.47
17.07
10.18
3.02
-3.92
-10.06
-15.02
-18.81
-21.98
-25.41
-29.94
-36.05
-43.62
-51.99
-60.21
-67.44
-73.30
-77.98
-82.31
-87.48
-94.75
-104.95
-117.94
-132.16
-144.57
-151.32
-148.77
-134.91
-110.16
-77.46
-41.46
-6.98
22.31
44.65
60.17
70.21
76.52
80.58
83.35
85.34
86.75
87.65
88.00
87.73
86.70
84.87
82.28
79.24
76.15
73.49
71.64
70.70
70.45
70.33
69.59
67.46
63.43
57.38
49.74
41.31
33.04
25.75
19.90
15.44
11.99
8.92
5.65
1.72
-3.02
-8.41
-13.96
-19.03
-23.09
-25.99
-28.12
-30.30
-33.48
-38.24
-44.56
-51.81
-59.05
-65.48
-70.72
-75.02
-79.02
-83.67
-89.91
-98.45
-109.34
-121.61
-133.09
-140.62
-140.82
-131.24
-111.36
-83.00
-49.90
-16.55
13.15
36.83
53.92
65.21
72.15
76.16
78.33
79.34
79.62
79.47
79.08
78.53
77.72
76.46
74.56
72.00
69.09
66.30
64.23
63.19
63.12
63.49
63.41
62.06
58.82
53.58
46.67
38.80
30.76
23.20
16.48
10.58
5.12
-0.34
-6.23
-12.62
-19.20
-25.36
-30.48
-34.16
-36.57
-38.34
-40.43
-43.61
-48.24
-53.98
-60.07
-65.64
-70.03
-73.20
-75.63
-78.32
-82.43
-88.98
-98.26
-109.50
-120.62
-128.50
-129.82
-122.07
-104.56
-78.74
-47.94
-16.23
12.64
36.20
53.49
64.89
71.51
74.72
75.69
75.32
74.16
72.51
70.51
68.24
65.78
63.32
61.10
59.39
58.34
57.97
58.10
58.43
58.56
58.08
56.60
53.83
49.62
44.02
37.23
29.62
21.60
13.49
5.63
-1.76
-8.53
-14.60
-20.01
-24.87
-29.42
-33.88
-38.47
-43.25
-48.12
-52.86
-57.18
-60.88
-63.95
-66.69
-69.74
-73.98
-80.24
-88.92
-99.52
-110.31
-118.62
-121.32
-115.90
-101.30
-78.51
-50.28
-20.35
7.63
31.09
48.95
61.46
69.65
74.67
77.44
78.48
78.06
76.41
73.85
70.78
67.70
64.95
62.75
61.10
59.93
59.19
58.86
58.95
59.36
59.77
59.64
58.27
55.09
49.84
42.79
34.66
26.44
19.00
12.85
7.93
3.74
-0.41
-5.08
-10.44
-16.21
-21.81
-26.61
-30.30
-32.99
-35.25
-37.83
-41.39
-46.22
-52.11
-58.45
-64.50
-69.64
-73.68
-76.95
-80.23
-84.61
-91.15
-100.44
-112.18
-124.72
-135.25
-140.35
-136.97
-123.52
-100.52
-70.61
-37.71
-5.93
21.58
43.16
58.67
69.04
75.64
79.85
82.66
84.66
86.02
86.72
86.65
85.80
84.30
82.31
80.07
77.72
75.45
73.47
72.01
71.22
70.97
70.77
69.85
67.45
63.14
57.05
49.83
42.43
35.66
29.96
25.25
21.06
16.89
12.42
7.70
3.05
-1.10
-4.58
-7.51
-10.34
-13.56
-17.48
-21.99
-26.71
-31.16
-35.08
-38.53
-41.95
-45.87
-50.71
-56.49
-62.89
-69.34
-75.24
-80.18
-84.10
-87.40
-90.79
-95.34
-101.99
-111.26
-122.65
-134.36
-143.38
-146.17
-139.78
-122.86
-96.40
-63.47
-28.40
4.49
32.04
52.76
66.80
75.38
80.16
82.63
83.90
84.63
85.08
85.30
85.24
84.80
83.94
82.65
81.02
79.20
77.53
76.33
75.87
76.14
76.76
77.04
76.16
73.50
68.89
62.60
55.33
47.83
40.68
34.14
28.15
22.49
17.00
11.66
6.56
1.90
-2.23
-5.89
-9.25
-12.56
-15.99
-19.60
-23.33
-27.02
-30.53
-33.81
-36.91
-40.06
-43.54
-47.66
-52.55
-58.07
-63.83
-69.22
-73.73
-77.15
-79.85
-82.71
-86.97
-93.68
-103.18
-114.54
-125.46
-132.63
-132.71
-123.38
-104.26
-77.12
-45.39
-13.16
15.96
39.56
56.74
67.89
74.19
77.11
78.10
78.28
78.35
78.55
78.70
78.49
77.61
75.93
73.65
71.11
68.81
67.17
66.44
66.60
67.36
68.11
68.21
67.02
64.24
59.87
54.26
47.94
41.44
35.13
29.20
23.66
18.52
13.72
9.30
5.28
1.59
-1.87
-5.24
-8.64
-12.10
-15.53
-18.84
-21.90
-24.74
-27.46
-30.29
-33.44
-37.20
-41.67
-46.84
-52.46
-58.11
-63.33
-67.79
-71.54
-75.04
-79.18
-85.00
-93.30
-104.08
-116.17
-127.12
-133.64
-132.50
-121.61
-100.89
-72.38
-39.77
-7.24
21.65
44.70
61.26
71.85
77.66
80.04
80.25
79.26
77.79
76.18
74.52
72.70
70.61
68.24
65.80
63.60
61.97
61.06
60.78
60.84
60.81
60.25
58.82
56.24
52.38
47.19
40.80
33.49
25.73
18.11
11.19
5.30
0.48
-3.53
-7.15
-10.76
-14.49
-18.26
-21.77
-24.76
-27.08
-28.81
-30.24
-31.80
-33.95
-37.04
-41.20
-46.29
-51.97
-57.70
-63.00
-67.58
-71.49
-75.16
-79.29
-84.75
-92.19
-101.74
-112.60
-122.83
-129.58
-129.79
-121.13
-102.92
-76.57
-45.24
-12.95
16.54
40.63
58.27
69.68
75.94
78.47
78.60
77.49
75.96
74.54
73.39
72.48
71.64
70.72
69.68
68.57
67.61
67.03
67.03
67.68
68.78
69.86
70.22
69.11
65.97
60.70
53.62
45.48
37.11
29.24
22.23
16.02
10.30
4.63
-1.23
-7.27
-13.18
-18.50
-22.83
-26.06
-28.47
-30.68
-33.42
-37.20
-42.08
-47.63
-53.13
-57.86
-61.45
-64.13
-66.64
-70.01
-75.23
-82.88
-92.75
-103.55
-112.98
-118.14
-116.23
-105.59
-86.31
-60.41
-31.28
-2.71
22.18
41.62
55.21
63.64
68.05
69.55
69.07
67.24
64.50
61.21
57.66
54.16
51.00
48.49
46.87
46.21
46.46
47.40
48.71
50.05
51.08
51.47
50.89
49.08
45.85
41.16
35.11
28.03
20.31
12.48
4.99
-1.79
-7.72
-12.85
-17.46
-21.92
-26.55
-31.54
-36.84
-42.21
-47.29
-51.76
-55.41
-58.30
-60.78
-63.49
-67.32
-73.10
-81.30
-91.50
-102.16
-110.67
-113.94
-109.41
-95.94
-74.33
-47.20
-18.21
9.07
31.99
49.33
61.17
68.43
72.31
73.88
73.88
72.79
70.91
68.54
65.95
63.39
61.12
59.33
58.12
57.53
57.58
58.23
59.30
60.53
61.43
61.44
60.02
56.85
51.92
45.58
38.42
31.06
23.97
17.28
10.88
4.46
-2.21
-9.16
-16.12
-22.58
-28.03
-32.18
-35.25
-37.85
-40.86
-44.95
-50.32
-56.55
-62.83
-68.35
-72.75
-76.28
-79.78
-84.37
-91.10
-100.54
-112.35
-125.10
-136.24
-142.46
-140.61
-128.72
-106.84
-77.26
-43.88
-11.06
17.66
40.31
56.59
67.49
74.49
79.01
82.13
84.46
86.33
87.77
88.72
89.05
88.67
87.59
85.90
83.86
81.77
79.96
78.67
77.99
77.69
77.33
76.23
73.74
69.41
63.23
55.71
47.63
39.87
33.06
27.39
22.60
18.21
13.77
9.13
4.48
0.24
-3.21
-5.81
-7.93
-10.18
-13.19
-17.28
-22.26
-27.51
-32.31
-36.15
-39.08
-41.65
-44.73
-48.97
-54.58
-61.16
-67.91
-74.01
-78.98
-82.79
-85.96
-89.33
-93.87
-100.55
-109.88
-121.56
-134.00
-144.34
-148.98
-144.60
-129.47
-104.22
-71.86
-36.90
-3.92
23.73
44.59
58.99
68.37
74.46
78.65
81.81
84.36
86.46
88.20
89.61
90.61
91.04
90.67
89.38
87.36
85.12
83.30
82.47
82.75
83.75
84.61
84.31
82.11
77.73
71.46
64.06
56.43
49.28
43.00
37.55
32.63
27.84
22.90
17.78
12.67
7.95
3.97
0.96
-1.14
-2.66
-4.10
-5.99
-8.75
-12.54
-17.21
-22.40
-27.67
-32.68
-37.36
-41.97
-46.93
-52.66
-59.32
-66.66
-74.07
-80.75
-86.07
-89.88
-92.66
-95.44
-99.56
-106.18
-115.82
-127.89
-140.45
-150.37
-154.01
-148.31
-131.78
-105.24
-71.71
-35.57
-1.31
27.73
49.97
65.53
75.68
82.08
86.20
89.11
91.40
93.28
94.74
95.61
95.65
94.75
92.93
90.42
87.62
84.93
82.70
81.14
80.26
79.85
79.48
78.55
76.42
72.64
67.13
60.27
52.81
45.55
39.09
33.57
28.71
23.95
18.82
13.21
7.38
1.90
-2.68
-6.09
-8.53
-10.56
-12.91
-16.09
-20.23
-24.96
-29.66
-33.74
-37.01
-39.71
-42.52
-46.23
-51.35
-57.95
-65.56
-73.38
-80.57
-86.54
-91.16
-94.83
-98.36
-102.88
-109.46
-118.77
-130.46
-142.81
-152.74
-156.43
-150.50
-133.33
-105.79
-71.27
-34.53
-0.32
28.04
49.22
63.65
72.76
78.23
81.42
83.23
84.28
84.91
85.26
85.27
84.75
83.48
81.39
78.70
75.88
73.53
72.16
71.98
72.83
74.19
75.33
75.52
74.27
71.41
67.09
61.70
55.68
49.46
43.29
37.36
31.73
26.40
21.37
16.58
11.95
7.39
2.80
-1.89
-6.67
-11.45
-16.07
-20.39
-24.43
-28.34
-32.53
-37.40
-43.19
-49.80
-56.78
-63.47
-69.25
-73.80
-77.21
-80.03
-83.12
-87.44
-93.75
-102.26
-112.19
-121.62
-127.72
-127.37
-118.25
-99.70
-73.18
-41.96
-10.16
18.42
41.28
57.53
67.69
73.02
74.97
74.76
73.34
71.30
69.10
67.00
65.11
63.41
61.82
60.30
58.94
57.97
57.62
57.97
58.82
59.64
59.74
58.47
55.48
50.81
44.88
38.27
31.52
24.99
18.78
12.85
7.04
1.31
-4.29
-9.64
-14.60
-19.09
-23.21
-27.17
-31.25
-35.68
-40.52
-45.62
-50.66
-55.26
-59.19
-62.43
-65.33
-68.55
-72.96
-79.31
-87.87
-97.87
-107.46
-113.76
-113.78
-105.28
-87.74
-62.65
-33.15
-3.11
23.99
45.84
61.62
71.65
76.95
78.67
77.80
75.11
71.21
66.62
61.83
57.23
53.18
49.90
47.45
45.86
44.98
44.59
44.50
44.46
44.31
43.85
42.84
40.99
37.91
33.32
27.15
19.66
11.49
3.43
-3.76
-9.75
-14.66
-19.10
-23.80
-29.34
-35.78
-42.67
-49.26
-54.77
-58.81
-61.50
-63.45
-65.59
-68.89
-74.17
-81.86
-91.75
-102.69
-112.60
-118.61
-117.87
-108.40
-89.91
-64.10
-34.19
-4.02
23.00
44.71
60.37
70.45
76.09
78.59
79.06
78.33
76.91
75.02
72.75
70.11
67.14
63.93
60.71
57.77
55.43
53.93
53.37
53.64
54.38
54.93
54.59
52.69
48.89
43.30
36.44
29.10
22.01
15.60
9.88
4.48
-1.01
-6.89
-13.04
-19.04
-24.39
-28.73
-32.10
-34.98
-38.06
-41.94
-46.88
-52.60
-58.52
-63.94
-68.43
-72.05
-75.33
-79.16
-84.53
-92.20
-102.31
-113.91
-124.89
-132.14
-132.33
-123.02
-103.59
-75.63
-42.62
-8.84
21.83
46.83
65.22
77.38
84.50
88.02
89.24
89.17
88.50
87.57
86.48
85.16
83.46
81.24
78.46
75.12
71.36
67.49
63.90
60.95
58.81
57.27
55.78
53.63
50.23
45.37
39.25
32.38
25.35
18.66
12.54
7.03
2.04
-2.51
-6.67
-10.51
-14.10
-17.55
-21.02
-24.48
-27.77
-30.63
-32.84
-34.52
-36.15
-38.47
-42.13
-47.35
-53.81
-60.77
-67.37
-73.00
-77.54
-81.32
-85.09
-89.81
-96.42
-105.50
-116.78
-128.77
-138.70
-143.04
-138.53
-123.39
-98.11
-65.49
-29.84
4.37
33.58
55.99
71.39
80.79
85.72
87.70
88.02
87.54
86.85
86.18
85.55
84.83
83.88
82.60
81.02
79.29
77.65
76.41
75.76
75.82
76.37
76.96
76.88
75.41
72.01
66.62
59.71
52.06
44.55
37.79
31.92
26.69
21.65
16.46
11.07
5.74
0.92
-3.07
-6.17
-8.71
-11.19
-14.08
-17.65
-21.79
-26.11
-30.18
-33.70
-36.82
-39.96
-43.72
-48.56
-54.50
-61.11
-67.69
-73.53
-78.25
-81.92
-85.09
-88.65
-93.60
-100.80
-110.57
-122.24
-133.86
-142.37
-144.18
-136.36
-117.69
-89.32
-54.58
-18.03
15.89
43.95
64.71
78.38
86.23
89.94
91.10
90.91
90.14
89.16
88.02
86.62
84.81
82.47
79.66
76.55
73.46
70.78
68.88
67.96
67.98
68.51
68.84
68.16
65.82
61.62
55.83
49.13
42.24
35.71
29.73
24.21
18.91
13.72
8.67
3.89
-0.57
-4.73
-8.82
-12.99
-17.29
-21.55
-25.49
-28.92
-31.80
-34.43
-37.25
-40.69
-44.99
-50.08
-55.54
-60.85
-65.54
-69.43
-72.66
-75.75
-79.45
-84.59
-91.82
-101.28
-112.16
-122.47
-129.31
-129.52
-120.71
-102.25
-75.63
-44.15
-11.89
17.50
41.59
59.50
71.56
78.75
82.19
82.82
81.41
78.60
75.00
71.13
67.43
64.18
61.46
59.27
57.59
56.44
55.95
56.27
57.42
59.18
61.02
62.13
61.75
59.28
54.54
47.84
39.87
31.50
23.55
16.58
10.68
5.59
0.79
-4.23
-9.72
-15.62
-21.50
-26.80
-31.05
-34.10
-36.19
-37.94
-40.12
-43.34
-47.84
-53.38
-59.26
-64.71
-69.16
-72.48
-75.08
-77.75
-81.45
-87.02
-94.88
-104.66
-114.99
-123.43
-126.89
-122.50
-108.59
-85.42
-55.33
-22.14
9.94
37.48
58.50
72.68
80.86
84.59
85.42
84.62
82.99
80.89
78.43
75.61
72.51
69.36
66.45
64.08
62.39
61.39
60.94
60.91
61.12
61.40
61.50
61.06
59.65
56.90
52.66
46.99
40.26
33.00
25.74
18.93
12.83
7.44
2.60
-2.02
-6.75
-11.77
-17.06
-22.36
-27.29
-31.46
-34.72
-37.25
-39.51
-42.06
-45.43
-49.78
-54.95
-60.44
-65.65
-70.06
-73.47
-76.08
-78.48
-81.62
-86.55
-94.01
-104.04
-115.51
-126.03
-132.30
-131.06
-120.12
-99.26
-70.39
-37.10
-3.54
26.62
50.97
68.58
79.71
85.46
87.30
86.73
85.05
83.15
81.45
79.91
78.24
76.17
73.64
70.87
68.27
66.27
65.15
64.98
65.54
66.41
67.05
66.90
65.52
62.63
58.24
52.54
45.89
38.74
31.50
24.52
17.97
11.92
6.31
1.11
-3.73
-8.15
-12.13
-15.72
-19.04
-22.23
-25.38
-28.43
-31.24
-33.75
-36.08
-38.56
-41.68
-45.81
-51.09
-57.23
-63.64
-69.61
-74.60
-78.43
-81.52
-84.77
-89.39
-96.49
-106.51
-118.66
-130.74
-139.36
-140.87
-132.49
-113.44
-85.25
-51.46
-16.47
15.71
42.34
62.22
75.50
83.11
86.38
86.77
85.60
83.96
82.46
81.22
79.94
78.20
75.84
73.01
70.28
68.19
67.16
67.19
67.96
68.97
69.62
69.49
68.22
65.63
61.66
56.41
50.11
43.12
35.92
28.98
22.69
17.20
12.48
8.31
4.38
0.43
-3.68
-7.97
-12.35
-16.65
-20.70
-24.30
-27.40
-30.03
-32.48
-35.14
-38.47
-42.79
-48.11
-54.11
-60.21
-65.78
-70.44
-74.21
-77.58
-81.49
-87.00
-94.89
-105.29
-117.12
-128.04
-134.76
-133.92
-123.18
-102.14
-72.64
-38.37
-3.73
27.35
52.30
70.18
81.47
87.40
89.49
89.14
87.53
85.48
83.48
81.71
80.07
78.34
76.39
74.23
72.03
70.15
68.91
68.51
68.98
70.05
71.17
71.62
70.62
67.53
62.12
54.64
45.81
36.61
27.95
20.38
13.93
8.15
2.41
-3.83
-10.69
-17.84
-24.61
-30.29
-34.41
-37.05
-38.72
-40.30
-42.59
-46.12
-50.90
-56.50
-62.23
-67.40
-71.55
-74.59
-76.89
-79.18
-82.46
-87.78
-95.69
-105.83
-116.48
-124.77
-127.26
-121.09
-105.04
-80.10
-49.29
-16.69
13.77
39.24
58.43
71.44
79.17
82.84
83.59
82.35
79.86
76.70
73.30
69.93
66.69
63.61
60.68
57.99
55.72
54.11
53.39
53.57
54.38
55.28
55.48
54.29
51.26
46.33
39.88
32.56
25.07
17.94
11.38
5.32
-0.49
-6.22
-11.91
-17.35
-22.22
-26.27
-29.48
-32.06
-34.50
-37.28
-40.75
-44.91
-49.51
-54.04
-58.04
-61.30
-63.97
-66.66
-70.26
-75.67
-83.44
-93.31
-103.89
-112.75
-116.87
-113.49
-101.10
-80.07
-52.67
-22.41
6.94
32.35
52.13
65.94
74.39
78.55
79.51
78.21
75.37
71.50
67.00
62.26
57.67
53.67
50.66
48.86
48.24
48.53
49.36
50.30
51.08
51.47
51.31
50.32
48.21
44.76
39.86
33.60
26.24
18.17
9.88
1.85
-5.43
-11.71
-17.02
-21.68
-26.23
-31.17
-36.75
-42.84
-49.00
-54.68
-59.45
-63.16
-65.97
-68.39
-71.12
-75.01
-80.87
-89.04
-99.00
-109.08
-116.55
-118.24
-111.55
-95.51
-71.17
-41.50
-10.45
18.21
41.81
59.24
70.81
77.61
81.02
82.17
81.84
80.46
78.30
75.57
72.48
69.34
66.49
64.23
62.80
62.35
62.87
64.25
66.22
68.33
69.97
70.42
69.08
65.68
60.43
53.98
47.18
40.68
34.72
29.04
23.10
16.47
9.12
1.50
-5.65
-11.68
-16.30
-19.70
-22.43
-25.07
-27.97
-31.15
-34.37
-37.38
-40.08
-42.67
-45.55
-49.17
-53.80
-59.41
-65.71
-72.22
-78.50
-84.13
-88.94
-92.95
-96.55
-100.48
-105.80
-113.46
-123.65
-135.19
-145.29
-150.08
-145.83
-130.36
-104.07
-69.98
-32.77
2.78
33.07
56.39
72.76
83.29
89.46
92.64
94.01
94.48
94.74
95.13
95.61
95.83
95.35
93.82
91.22
87.87
84.32
81.27
79.22
78.36
78.43
78.76
78.41
76.52
72.57
66.60
59.17
51.13
43.32
36.32
30.33
25.29
20.96
17.12
13.61
10.36
7.34
4.60
2.20
0.22
-1.36
-2.72
-4.10
-5.77
-7.85
-10.24
-12.66
-14.83
-16.71
-18.50
-20.69
-23.64
-27.50
-31.96
-36.46
-40.44
-43.62
-46.16
-48.55
-51.45
-55.33
-60.35
-66.28
-72.57
-78.59
-83.81
-88.05
-91.56
-95.03
-99.53
-106.13
-115.45
-127.07
-139.25
-148.96
-152.63
-147.18
-131.09
-105.00
-71.67
-35.22
0.07
30.76
54.94
72.24
83.52
90.31
94.18
96.44
97.94
99.02
99.72
99.88
99.31
97.93
95.75
92.92
89.70
86.45
83.54
81.33
79.94
79.20
78.60
77.44
75.03
70.97
65.24
58.29
50.81
43.52
36.95
31.32
26.54
22.39
18.59
14.97
11.43
7.95
4.48
1.02
-2.39
-5.70
-8.77
-11.59
-14.31
-17.28
-20.86
-25.21
-30.11
-35.04
-39.37
-42.78
-45.42
-47.92
-51.08
-55.46
-61.04
-67.27
-73.28
-78.37
-82.25
-85.20
-87.90
-91.24
-96.08
-103.01
-112.22
-123.06
-133.88
-141.96
-143.99
-136.99
-119.43
-92.01
-57.63
-20.63
14.49
44.31
67.10
82.82
92.51
97.73
99.92
100.31
99.74
98.70
97.42
95.89
94.03
91.74
89.01
85.96
82.82
79.88
77.49
75.97
75.48
75.81
76.39
76.34
74.83
71.31
65.80
58.85
51.27
43.84
36.97
30.64
24.56
18.40
11.99
5.48
-0.76
-6.31
-10.84
-14.35
-17.08
-19.49
-22.05
-25.05
-28.44
-31.93
-35.10
-37.60
-39.35
-40.63
-41.98
-44.00
-47.15
-51.50
-56.77
-62.39
-67.74
-72.34
-76.05
-79.19
-82.46
-86.86
-93.32
-102.13
-112.39
-121.86
-127.26
-125.23
-113.58
-92.13
-62.97
-29.82
3.13
32.42
55.93
73.09
84.31
90.64
93.20
93.14
91.44
88.89
86.04
83.09
79.99
76.60
72.89
69.04
65.38
62.28
59.98
58.49
57.67
57.17
56.59
55.45
53.20
49.43
43.85
36.63
28.36
19.91
12.15
5.66
0.47
-3.83
-7.86
-12.17
-16.93
-21.93
-26.73
-30.84
-34.00
-36.28
-38.04
-39.80
-42.03
-44.94
-48.43
-52.14
-55.62
-58.52
-60.70
-62.35
-63.94
-66.16
-69.77
-75.38
-83.06
-92.04
-100.52
-105.93
-105.53
-97.36
-81.01
-57.90
-30.93
-3.61
20.91
40.57
54.66
63.54
68.13
69.47
68.46
65.77
61.95
57.52
52.98
48.85
45.46
42.97
41.35
40.38
39.91
39.87
40.24
41.05
42.11
42.96
42.98
41.54
38.20
32.91
25.96
17.88
9.39
1.17
-6.26
-12.61
-17.90
-22.50
-27.01
-31.98
-37.73
-44.18
-50.88
-57.18
-62.58
-66.94
-70.61
-74.38
-79.25
-86.07
-95.17
-105.93
-116.64
-124.58
-126.73
-120.55
-104.88
-80.47
-49.86
-16.65
15.39
43.30
65.42
81.34
91.59
97.20
99.29
98.88
96.75
93.53
89.66
85.43
81.05
76.72
72.62
69.03
66.21
64.46
63.92
64.46
65.69
66.90
67.24
65.98
62.67
57.25
50.05
41.64
32.62
23.50
14.60
6.05
-2.16
-10.05
-17.58
-24.62
-31.00
-36.62
-41.58
-46.15
-50.71
-55.61
-60.90
-66.40
-71.65
-76.17
-79.72
-82.53
-85.32
-89.16
-95.16
-103.90
-114.95
-126.48
-135.55
-138.66
-132.88
-116.78
-91.15
-58.77
-23.71
9.83
38.57
60.74
76.11
85.61
90.76
93.20
94.25
94.78
95.18
95.43
95.27
94.44
92.83
90.51
87.69
84.72
81.98
79.84
78.55
78.14
78.31
78.42
77.63
75.16
70.53
63.78
55.41
46.20
36.90
28.06
19.96
12.60
5.90
-0.17
-5.58
-10.24
-14.05
-17.01
-19.30
-21.24
-23.26
-25.71
-28.71
-32.10
-35.43
-38.26
-40.42
-42.13
-44.03
-46.93
-51.39
-57.46
-64.64
-72.06
-78.87
-84.56
-89.19
-93.31
-97.83
-103.80
-111.98
-122.46
-134.14
-144.61
-150.53
-148.45
-136.05
-113.06
-81.59
-45.55
-9.51
22.55
48.17
66.65
78.70
85.83
89.74
91.83
93.03
93.79
94.12
93.90
92.95
91.25
88.91
86.19
83.37
80.77
78.61
77.11
76.30
76.04
75.93
75.34
73.57
70.06
64.61
57.54
49.54
41.53
34.26
28.14
23.19
19.07
15.33
11.64
7.86
4.11
0.61
-2.32
-4.40
-5.45
-5.47
-4.70
-3.61
-2.85
-2.99
-4.38
-6.96
-10.27
-13.70
-16.68
-19.03
-21.04
-23.39
-26.89
-32.04
-38.79
-46.51
-54.19
-60.84
-65.91
-69.57
-72.62
-76.29
-81.91
-90.50
-102.26
-116.22
-129.97
-139.97
-142.31
-133.99
-114.08
-84.30
-48.74
-12.61
19.36
44.18
61.07
71.08
76.20
78.41
79.16
79.26
79.06
78.68
78.12
77.32
76.15
74.51
72.44
70.26
68.55
67.99
69.07
71.89
75.94
80.16
83.16
83.58
80.55
73.87
64.19
52.77
41.13
30.52
21.65
14.47
8.40
2.72
-3.06
-8.97
-14.62
-19.47
-23.20
-25.86
-27.83
-29.66
-31.69
-34.05
-36.56
-38.96
-41.03
-42.70
-44.13
-45.53
-47.20
-49.33
-52.01
-55.14
-58.42
-61.37
-63.58
-64.78
-65.10
-65.15
-65.91
-68.46
-73.52
-80.90
-89.20
-95.73
-97.10
-90.22
-73.42
-47.21
-14.35
20.93
54.24
82.21
103.16
117.08
124.94
128.08
127.67
124.57
119.40
112.68
104.77
95.89
86.09
75.39
63.90
52.00
40.33
29.66
20.63
13.62
8.56
5.09
2.60
0.49
-1.73
-4.34
-7.42
-10.89
-14.48
-17.93
-20.91
-23.22
-24.81
-25.88
-26.80
-27.99
-29.77
-32.20
-35.11
-38.09
-40.79
-42.93
-44.42
-45.40
-46.05
-46.66
-47.49
-48.82
-50.81
-53.46
-56.55
-59.67
-62.35
-64.30
-65.57
-66.59
-68.12
-70.95
-75.51
-81.56
-88.02
-93.07
-94.53
-90.53
-80.07
-63.50
-42.47
-19.48
2.77
22.15
37.46
48.46
55.60
59.65
61.39
61.47
60.37
58.50
56.17
53.64
51.10
48.74
46.72
45.22
44.39
44.28
44.72
45.33
45.67
45.30
43.96
41.61
38.36
34.37
29.72
24.41
18.41
11.80
4.83
-2.08
-8.49
-14.06
-18.70
-22.61
-26.22
-29.98
-34.19
-38.91
-43.91
-48.77
-53.05
-56.38
-58.57
-59.69
-60.16
-60.76
-62.48
-66.20
-72.23
-79.87
-87.31
-91.85
-90.76
-82.17
-65.84
-43.38
-17.77
7.54
29.65
46.93
59.09
66.85
71.31
73.46
73.91
72.93
70.75
67.61
63.91
60.06
56.38
53.10
50.36
48.21
46.75
46.08
46.18
46.90
47.81
48.33
47.84
45.90
42.38
37.53
31.88
26.06
20.49
15.31
10.34
5.16
-0.59
-7.06
-14.01
-20.85
-26.87
-31.44
-34.43
-36.23
-37.65
-39.60
-42.63
-46.71
-51.28
-55.56
-58.93
-61.29
-63.14
-65.36
-69.00
-74.86
-83.16
-93.41
-104.20
-113.41
-118.46
-117.02
-107.61
-90.17
-66.21
-38.47
-10.29
15.25
36.03
51.21
61.21
67.30
71.02
73.59
75.65
77.17
77.80
77.17
75.17
72.06
68.36
64.61
61.32
58.75
57.07
56.29
56.25
56.65
56.98
56.63
55.05
51.94
47.33
41.62
35.41
29.29
23.65
18.53
13.72
8.89
3.79
-1.50
-6.69
-11.40
-15.32
-18.43
-20.89
-22.90
-24.51
-25.67
-26.30
-26.58
-27.02
-28.39
-31.43
-36.51
-43.36
-51.14
-58.74
-65.16
-69.92
-73.16
-75.51
-77.91
-81.40
-86.90
-94.97
-105.42
-117.03
-127.37
-133.19
-131.25
-119.41
-97.63
-68.11
-34.76
-1.89
26.98
49.93
66.76
78.46
86.45
91.94
95.69
98.02
99.03
98.79
97.52
95.54
93.09
90.35
87.30
83.96
80.46
77.16
74.52
72.90
72.24
72.00
71.31
69.27
65.38
59.78
53.07
46.10
39.59
33.86
28.85
24.26
19.78
15.27
10.88
6.81
3.29
0.31
-2.34
-5.02
-8.07
-11.69
-15.81
-20.16
-24.38
-28.13
-31.31
-34.20
-37.29
-41.21
-46.35
-52.72
-59.80
-66.78
-72.85
-77.56
-81.05
-84.00
-87.42
-92.38
-99.59
-109.05
-119.73
-129.52
-135.49
-134.62
-124.84
-105.80
-79.23
-48.48
-17.45
10.48
33.29
50.49
62.65
70.84
76.09
79.20
80.72
81.09
80.64
79.57
78.02
76.06
73.79
71.35
68.98
66.98
65.62
65.13
65.53
66.55
67.62
67.98
66.84
63.69
58.52
51.76
44.18
36.59
29.57
23.29
17.64
12.25
6.77
1.09
-4.62
-9.94
-14.40
-17.73
-20.10
-22.11
-24.60
-28.22
-33.17
-39.05
-45.09
-50.46
-54.67
-57.76
-60.34
-63.33
-67.77
-74.40
-83.36
-93.84
-103.95
-110.98
-112.01
-104.86
-89.00
-65.79
-38.17
-9.73
16.34
37.92
54.19
65.32
72.03
75.22
75.81
74.63
72.41
69.67
66.68
63.51
60.16
56.77
53.58
50.96
49.22
48.52
48.79
49.70
50.79
51.48
51.25
49.69
46.65
42.20
36.69
30.56
24.26
18.09
12.14
6.30
0.44
-5.49
-11.34
-16.84
-21.74
-25.94
-29.67
-33.36
-37.46
-42.23
-47.59
-53.14
-58.41
-62.99
-66.73
-69.88
-73.03
-77.09
-83.00
-91.39
-102.01
-113.37
-122.80
-126.94
-122.88
-109.17
-86.56
-57.82
-26.86
2.48
27.40
46.61
60.15
68.93
74.18
77.07
78.59
79.35
79.66
79.50
78.71
77.17
74.95
72.37
69.86
67.85
66.55
66.02
66.10
66.49
66.83
66.65
65.48
63.01
59.11
54.00
48.11
41.93
35.88
30.15
24.70
19.37
14.00
8.59
3.29
-1.61
-5.97
-9.77
-13.25
-16.66
-20.18
-23.73
-27.09
-30.04
-32.56
-34.97
-37.80
-41.54
-46.40
-52.14
-58.19
-63.84
-68.60
-72.37
-75.47
-78.58
-82.60
-88.42
-96.66
-107.28
-119.10
-129.68
-135.65
-133.63
-121.45
-99.11
-68.98
-35.13
-2.07
26.71
49.49
66.33
78.44
87.33
94.16
99.54
103.62
106.32
107.56
107.23
105.42
102.24
97.91
92.75
87.24
81.93
77.46
74.31
72.68
72.32
72.51
72.27
70.58
66.83
60.94
53.44
45.25
37.23
29.96
23.55
17.70
11.91
5.82
-0.60
-7.03
-12.92
-17.84
-21.62
-24.52
-27.07
-29.83
-33.17
-37.01
-40.96
-44.49
-47.23
-49.13
-50.54
-52.02
-54.17
-57.37
-61.72
-67.00
-72.73
-78.34
-83.34
-87.38
-90.50
-93.17
-96.34
-101.10
-108.24
-117.56
-127.43
-134.87
-136.29
-128.66
-110.80
-83.87
-51.22
-17.23
13.98
39.68
58.85
71.99
80.40
85.49
88.47
90.17
91.09
91.50
91.48
90.96
89.84
88.04
85.61
82.76
79.83
77.24
75.36
74.39
74.28
74.61
74.70
73.73
71.02
66.32
59.85
52.34
44.65
37.54
31.33
25.86
20.65
15.15
9.10
2.62
-3.77
-9.49
-14.15
-17.82
-20.96
-24.19
-27.96
-32.27
-36.75
-40.76
-43.84
-45.93
-47.42
-49.03
-51.38
-54.86
-59.27
-64.06
-68.50
-72.04
-74.56
-76.42
-78.33
-81.13
-85.52
-91.84
-99.83
-108.47
-115.87
-119.49
-116.67
-105.52
-85.68
-58.77
-28.07
2.37
28.94
49.51
63.70
72.58
77.85
81.07
83.13
84.28
84.42
83.40
81.34
78.51
75.35
72.21
69.37
66.93
64.94
63.42
62.33
61.67
61.24
60.79
59.82
57.83
54.34
49.17
42.56
35.06
27.41
20.22
13.83
8.16
2.98
-1.96
-6.76
-11.38
-15.71
-19.71
-23.45
-26.97
-30.23
-33.06
-35.35
-37.18
-38.95
-41.24
-44.50
-48.83
-53.79
-58.62
-62.55
-65.20
-66.80
-68.09
-70.17
-73.98
-80.06
-88.16
-97.13
-104.99
-109.15
-107.13
-97.21
-79.20
-54.58
-26.23
2.35
27.99
48.61
63.53
73.20
78.78
81.50
82.31
81.74
80.00
77.24
73.74
69.87
66.09
62.74
59.95
57.76
56.11
55.00
54.51
54.64
55.16
55.58
55.19
53.34
49.67
44.29
37.68
30.57
23.57
17.05
11.05
5.43
0.03
-5.20
-10.15
-14.66
-18.64
-22.17
-25.41
-28.54
-31.59
-34.44
-36.89
-38.84
-40.42
-42.03
-44.17
-47.17
-51.06
-55.44
-59.68
-63.24
-65.90
-67.85
-69.71
-72.31
-76.40
-82.47
-90.50
-99.69
-108.38
-114.13
-114.24
-106.53
-90.22
-66.32
-37.52
-7.45
20.35
43.34
60.48
72.08
79.35
83.72
86.31
87.70
88.01
87.18
85.22
82.41
79.17
76.00
73.15
70.64
68.37
66.24
64.34
62.86
62.00
61.68
61.42
60.46
58.02
53.62
47.32
39.78
31.94
24.69
18.51
13.38
8.90
4.57
0.03
-4.73
-9.47
-13.79
-17.37
-20.05
-21.98
-23.47
-24.95
-26.80
-29.15
-31.88
-34.67
-37.12
-39.05
-40.53
-41.90
-43.58
-45.95
-49.12
-52.96
-57.13
-61.19
-64.72
-67.53
-69.66
-71.54
-73.90
-77.57
-83.16
-90.65
-99.09
-106.59
-110.62
-108.64
-98.97
-81.34
-57.07
-28.86
-0.02
26.41
48.28
64.72
75.94
82.89
86.70
88.31
88.36
87.23
85.15
82.37
79.25
76.12
73.21
70.57
68.16
65.89
63.80
62.03
60.71
59.87
59.25
58.39
56.78
53.98
49.88
44.65
38.71
32.50
26.40
20.62
15.24
10.27
5.64
1.29
-2.80
-6.61
-10.05
-12.94
-15.21
-16.88
-18.18
-19.51
-21.19
-23.44
-26.24
-29.34
-32.37
-35.00
-37.03
-38.47
-39.49
-40.39
-41.59
-43.48
-46.28
-49.97
-54.22
-58.46
-62.13
-64.96
-67.12
-69.25
-72.25
-76.88
-83.42
-91.36
-99.36
-105.44
-107.32
-103.01
-91.35
-72.51
-48.03
-20.57
6.72
31.02
50.52
64.70
74.15
80.06
83.58
85.49
86.01
85.15
82.92
79.62
75.81
72.16
69.14
66.92
65.39
64.28
63.38
62.61
61.99
61.48
60.82
59.52
57.03
52.99
47.41
40.72
33.64
26.90
20.90
15.68
10.96
6.34
1.54
-3.46
-8.36
-12.72
-16.14
-18.47
-19.90
-20.90
-22.08
-23.88
-26.40
-29.35
-32.22
-34.53
-36.10
-37.14
-38.06
-39.36
-41.34
-44.01
-47.18
-50.57
-53.94
-57.19
-60.25
-63.21
-66.20
-69.51
-73.53
-78.57
-84.63
-90.98
-96.13
-97.95
-94.36
-84.00
-66.84
-44.33
-19.04
6.07
28.46
46.52
59.78
68.64
73.96
76.63
77.32
76.52
74.55
71.81
68.71
65.66
62.96
60.73
58.91
57.45
56.40
55.83
55.84
56.26
56.68
56.51
55.18
52.44
48.37
43.31
37.69
31.84
25.97
20.13
14.40
8.82
3.50
-1.45
-5.91
-9.79
-13.03
-15.67
-17.90
-20.01
-22.27
-24.82
-27.60
-30.32
-32.63
-34.33
-35.48
-36.48
-37.86
-40.09
-43.32
-47.28
-51.41
-55.02
-57.70
-59.41
-60.71
-62.46
-65.63
-70.81
-77.80
-85.45
-91.76
-94.31
-90.92
-80.40
-62.99
-40.42
-15.38
9.22
30.96
48.34
60.90
69.01
73.49
75.27
75.19
73.87
71.74
69.07
66.06
62.87
59.72
56.81
54.25
52.13
50.46
49.26
48.62
48.57
49.02
49.62
49.75
48.72
46.07
41.72
36.00
29.53
22.87
16.41
10.34
4.68
-0.51
-5.17
-9.22
-12.66
-15.60
-18.19
-20.59
-22.94
-25.35
-27.88
-30.52
-33.15
-35.63
-37.79
-39.73
-41.70
-44.13
-47.33
-51.25
-55.46
-59.33
-62.30
-64.25
-65.62
-67.24
-70.12
-74.97
-81.89
-90.19
-98.27
-103.88
-104.60
-98.48
-84.69
-63.88
-38.18
-10.63
15.55
37.84
54.92
66.78
74.32
78.83
81.42
82.70
82.78
81.61
79.21
75.92
72.33
69.02
66.34
64.35
62.84
61.63
60.62
59.90
59.62
59.71
59.81
59.30
57.47
53.90
48.61
42.10
35.14
28.55
22.82
17.99
13.72
9.54
5.11
0.43
-4.22
-8.41
-11.81
-14.39
-16.34
-18.01
-19.74
-21.77
-24.17
-26.93
-29.90
-32.88
-35.68
-38.17
-40.39
-42.57
-45.14
-48.43
-52.56
-57.28
-62.00
-66.06
-69.04
-70.94
-72.35
-74.25
-77.67
-83.26
-90.85
-99.20
-106.08
-108.81
-104.91
-93.09
-73.62
-48.49
-20.74
6.34
30.10
49.02
62.77
71.92
77.42
80.29
81.34
81.20
80.28
78.82
76.98
74.83
72.47
70.03
67.75
65.85
64.54
63.93
63.86
64.02
63.98
63.37
61.92
59.52
56.19
52.00
47.10
41.67
36.03
30.52
25.44
20.84
16.50
12.08
7.32
2.28
-2.68
-7.05
-10.47
-12.90
-14.65
-16.15
-17.77
-19.62
-21.62
-23.58
-25.43
-27.25
-29.20
-31.38
-33.67
-35.83
-37.61
-38.97
-40.16
-41.65
-43.92
-47.19
-51.29
-55.73
-59.90
-63.36
-66.02
-68.16
-70.34
-73.24
-77.48
-83.34
-90.61
-98.29
-104.63
-107.34
-104.15
-93.54
-75.34
-51.04
-23.42
4.15
28.64
48.08
61.90
70.79
76.06
79.11
80.89
81.75
81.67
80.51
78.39
75.69
73.00
70.76
69.20
68.21
67.54
66.98
66.46
66.07
65.78
65.35
64.27
61.95
57.99
52.42
45.73
38.73
32.27
26.88
22.61
19.09
15.76
12.11
7.96
3.49
-0.86
-4.57
-7.23
-8.73
-9.29
-9.37
-9.53
-10.23
-11.65
-13.58
-15.56
-17.10
-17.88
-18.06
-18.11
-18.76
-20.58
-23.75
-27.94
-32.33
-36.00
-38.22
-38.80
-38.21
-37.40
-37.60
-39.78
-44.40
-51.01
-58.24
-63.77
-64.86
-59.07
-45.43
-25.14
-1.81
19.48
33.80
38.09
32.21
18.72
1.72
-14.84
-28.22
-37.44
-42.70
-44.67
-43.87
-40.52
-34.80
-27.13
-18.29
-9.18
-0.45
7.70
15.61
23.81
32.61
41.70
50.17
56.77
60.51
60.95
58.46
54.01
48.76
43.67
39.24
35.50
32.09
28.57
24.55
19.97
15.06
10.28
6.13
2.89
0.55
-1.24
-2.98
-5.16
-8.09
-11.75
-15.90
-20.11
-23.94
-27.04
-29.32
-30.95
-32.41
-34.25
-36.94
-40.64
-45.06
-49.60
-53.52
-56.37
-58.13
-59.36
-61.01
-64.11
-69.32
-76.59
-84.95
-92.56
-97.03
-96.06
-88.09
-72.85
-51.49
-26.40
-0.63
22.99
42.37
56.62
66.01
71.55
74.52
75.99
76.56
76.41
75.49
73.76
71.33
68.50
65.63
63.02
60.87
59.29
58.33
57.98
58.20
58.75
59.25
59.14
57.92
55.18
50.83
45.14
38.62
31.96
25.74
20.30
15.65
11.57
7.74
3.95
0.07
-3.80
-7.47
-10.75
-13.43
-15.39
-16.65
-17.39
-17.96
-18.84
-20.43
-22.86
-26.02
-29.52
-32.90
-35.85
-38.33
-40.55
-42.86
-45.55
-48.76
-52.40
-56.21
-59.87
-63.13
-65.89
-68.28
-70.62
-73.50
-77.62
-83.51
-91.20
-99.81
-107.52
-111.77
-109.99
-100.42
-82.83
-58.67
-30.77
-2.47
23.19
44.22
59.84
70.37
76.79
80.26
81.79
82.08
81.46
80.12
78.17
75.83
73.34
70.98
68.96
67.39
66.29
65.66
65.50
65.75
66.28
66.78
66.83
65.95
63.73
60.05
55.08
49.27
43.20
37.40
32.19
27.62
23.48
19.49
15.41
11.17
6.89
2.75
-0.97
-4.17
-6.81
-8.94
-10.73
-12.39
-14.16
-16.28
-18.86
-21.81
-24.90
-27.80
-30.30
-32.41
-34.39
-36.65
-39.52
-43.14
-47.36
-51.81
-56.02
-59.67
-62.63
-65.12
-67.60
-70.74
-75.21
-81.44
-89.28
-97.82
-105.22
-109.09
-107.00
-97.33
-79.86
-56.05
-28.72
-1.27
23.25
42.84
56.85
65.74
70.66
72.86
73.37
72.82
71.58
69.81
67.69
65.38
63.11
61.07
59.41
58.21
57.50
57.26
57.44
57.95
58.57
58.94
58.61
57.06
54.05
49.55
43.94
37.81
31.74
26.18
21.20
16.62
12.13
7.50
2.72
-1.97
-6.30
-10.05
-13.26
-16.15
-18.99
-21.92
-24.85
-27.55
-29.74
-31.34
-32.47
-33.50
-34.87
-37.00
-40.03
-43.85
-48.09
-52.25
-55.83
-58.53
-60.37
-61.78
-63.49
-66.38
-71.13
-77.83
-85.79
-93.43
-98.53
-98.78
-92.37
-78.65
-58.41
-33.83
-7.90
16.34
36.54
51.51
61.24
66.59
68.80
68.99
67.96
66.11
63.67
60.81
57.78
54.83
52.25
50.24
48.91
48.33
48.47
49.29
50.60
52.10
53.35
53.81
53.01
50.65
46.71
41.48
35.53
29.45
23.69
18.48
13.69
9.02
4.18
-0.97
-6.40
-11.94
-17.32
-22.27
-26.57
-30.06
-32.74
-34.83
-36.77
-39.10
-42.20
-46.09
-50.36
-54.28
-57.27
-59.12
-60.23
-61.59
-64.34
-69.38
-76.88
-86.09
-95.20
-101.72
-103.07
-97.28
-83.64
-63.11
-38.08
-11.71
12.89
33.48
49.01
59.59
66.07
69.64
71.32
71.84
71.58
70.65
69.03
66.74
63.90
60.77
57.69
55.02
53.02
51.85
51.49
51.83
52.60
53.41
53.83
53.38
51.69
48.56
44.04
38.41
32.17
25.85
19.92
14.60
9.87
5.53
1.32
-2.91
-7.15
-11.27
-15.12
-18.70
-22.11
-25.47
-28.78
-31.91
-34.65
-36.96
-39.06
-41.41
-44.47
-48.46
-53.25
-58.27
-62.89
-66.59
-69.25
-71.24
-73.31
-76.39
-81.35
-88.55
-97.58
-106.98
-114.34
-116.85
-112.00
-98.58
-77.19
-50.19
-21.07
6.59
30.08
48.06
60.63
68.77
73.78
76.83
78.61
79.54
79.73
79.26
78.26
76.85
75.19
73.44
71.70
70.09
68.73
67.75
67.29
67.32
67.62
67.77
67.15
65.25
61.76
56.76
50.66
44.04
37.48
31.41
26.01
21.24
16.97
12.99
9.15
5.37
1.57
-2.24
-6.00
-9.54
-12.65
-15.08
-16.77
-17.88
-18.83
-20.18
-22.38
-25.54
-29.38
-33.31
-36.77
-39.48
-41.61
-43.64
-46.19
-49.64
-53.96
-58.79
-63.57
-67.85
-71.41
-74.32
-76.92
-79.77
-83.47
-88.64
-95.61
-104.13
-112.96
-119.88
-121.98
-116.61
-102.37
-79.82
-51.45
-21.08
7.45
31.33
49.35
61.88
70.18
75.70
79.51
82.16
83.80
84.44
84.16
83.08
81.44
79.42
77.21
74.97
72.90
71.20
70.01
69.40
69.22
69.22
68.98
68.03
66.00
62.70
58.20
52.81
47.01
41.24
35.82
30.80
26.11
21.58
17.12
12.69
8.37
4.23
0.32
-3.30
-6.58
-9.46
-11.89
-13.96
-15.84
-17.82
-20.22
-23.19
-26.73
-30.59
-34.38
-37.72
-40.44
-42.62
-44.61
-46.86
-49.68
-53.13
-57.01
-60.90
-64.42
-67.33
-69.61
-71.55
-73.71
-76.81
-81.59
-88.48
-97.22
-106.49
-113.98
-116.74
-112.17
-98.88
-77.32
-49.83
-19.93
8.71
33.23
52.10
65.19
73.29
77.66
79.56
80.05
79.84
79.34
78.68
77.79
76.54
74.80
72.53
69.86
67.01
64.37
62.31
61.09
60.80
61.17
61.62
61.45
60.01
56.97
52.45
46.87
40.84
34.88
29.35
24.33
19.75
15.42
11.17
6.85
2.51
-1.70
-5.52
-8.76
-11.44
-13.77
-16.18
-19.06
-22.53
-26.37
-30.08
-33.15
-35.37
-36.98
-38.54
-40.74
-44.00
-48.31
-53.18
-57.94
-61.99
-65.13
-67.63
-70.17
-73.60
-78.68
-85.70
-94.27
-103.14
-110.24
-113.02
-109.14
-97.25
-77.54
-51.98
-23.80
3.44
26.82
44.73
57.09
64.82
69.26
71.56
72.41
72.09
70.70
68.41
65.53
62.52
59.79
57.63
56.15
55.29
54.94
54.99
55.37
55.99
56.61
56.88
56.34
54.56
51.35
46.79
41.21
35.13
29.05
23.32
18.08
13.37
9.03
4.88
0.72
-3.65
-8.31
-13.20
-18.13
-22.75
-26.65
-29.61
-31.63
-33.06
-34.46
-36.43
-39.32
-43.11
-47.41
-51.63
-55.20
-57.88
-59.85
-61.71
-64.36
-68.74
-75.45
-84.38
-94.43
-103.48
-108.73
-107.41
-97.77
-79.73
-55.10
-27.12
0.48
24.51
43.13
56.01
64.01
68.54
70.92
71.97
72.04
71.15
69.34
66.80
63.90
61.08
58.60
56.61
55.09
54.06
53.61
53.89
54.92
56.45
57.85
58.30
57.11
53.90
48.82
42.48
35.69
29.13
23.16
17.80
12.81
7.94
3.10
-1.59
-5.94
-9.83
-13.28
-16.51
-19.76
-23.16
-26.64
-29.94
-32.80
-35.11
-37.08
-39.16
-41.90
-45.68
-50.46
-55.84
-61.09
-65.58
-68.93
-71.30
-73.23
-75.59
-79.29
-85.05
-93.04
-102.64
-112.24
-119.29
-120.83
-114.42
-99.03
-75.60
-46.92
-16.83
11.00
34.01
51.21
63.04
70.72
75.67
79.00
81.38
83.08
84.08
84.28
83.56
81.98
79.71
77.05
74.31
71.77
69.59
67.91
66.80
66.24
66.07
65.89
65.15
63.31
60.01
55.26
49.42
43.02
36.66
30.79
25.63
21.17
17.28
13.71
10.20
6.55
2.65
-1.39
-5.34
-8.87
-11.68
-13.68
-15.09
-16.37
-18.14
-20.85
-24.63
-29.18
-33.84
-37.97
-41.12
-43.28
-44.85
-46.50
-48.81
-52.12
-56.39
-61.27
-66.19
-70.63
-74.31
-77.22
-79.77
-82.70
-86.93
-93.25
-101.88
-111.98
-121.48
-127.38
-126.53
-116.71
-97.57
-70.94
-40.34
-9.85
17.09
38.58
54.37
65.37
72.97
78.32
82.13
84.77
86.42
87.27
87.51
87.25
86.48
85.09
83.00
80.33
77.45
74.90
73.20
72.58
72.84
73.38
73.42
72.23
69.43
65.03
59.45
53.27
47.05
41.19
35.85
30.95
26.31
21.75
17.16
12.59
8.12
3.86
-0.17
-3.97
-7.55
-10.86
-13.79
-16.23
-18.25
-20.07
-22.05
-24.45
-27.33
-30.46
-33.51
-36.22
-38.54
-40.69
-43.10
-46.10
-49.84
-54.18
-58.78
-63.21
-67.06
-70.10
-72.36
-74.20
-76.29
-79.52
-84.71
-92.21
-101.45
-110.71
-117.34
-118.39
-111.51
-95.92
-72.72
-44.79
-15.79
10.85
32.87
49.38
60.80
68.17
72.69
75.27
76.55
76.94
76.74
76.16
75.26
74.02
72.37
70.29
67.99
65.79
64.12
63.30
63.41
64.18
65.10
65.42
64.47
61.83
57.43
51.62
44.96
38.10
31.58
25.70
20.53
15.93
11.74
7.73
3.80
-0.10
-3.85
-7.35
-10.50
-13.33
-15.99
-18.66
-21.48
-24.41
-27.31
-29.94
-32.21
-34.21
-36.28
-38.85
-42.24
-46.50
-51.33
-56.16
-60.33
-63.42
-65.38
-66.65
-68.01
-70.41
-74.59
-80.80
-88.52
-96.28
-101.82
-102.51
-96.16
-81.80
-60.19
-33.84
-6.23
19.12
39.76
54.72
64.43
70.17
73.24
74.57
74.50
73.13
70.54
67.06
63.19
59.49
56.36
53.91
52.08
50.76
49.95
49.79
50.42
51.78
53.48
54.77
54.85
53.14
49.51
44.36
38.37
32.24
26.37
20.86
15.51
10.11
4.64
-0.71
-5.64
-9.85
-13.23
-15.96
-18.40
-20.99
-24.01
-27.45
-31.00
-34.22
-36.77
-38.59
-40.07
-41.81
-44.43
-48.19
-52.87
-57.84
-62.38
-65.95
-68.48
-70.41
-72.50
-75.65
-80.54
-87.31
-95.33
-103.07
-108.23
-108.28
-101.19
-86.16
-64.07
-37.38
-9.43
16.50
38.04
54.17
65.10
71.85
75.69
77.63
78.33
78.13
77.21
75.70
73.80
71.72
69.61
67.59
65.71
64.07
62.78
61.99
61.74
61.92
62.15
61.93
60.69
58.06
53.94
48.54
42.35
35.94
29.81
24.22
19.12
14.26
9.31
4.11
-1.23
-6.35
-10.82
-14.35
-16.91
-18.80
-20.46
-22.35
-24.76
-27.75
-31.09
-34.40
-37.33
-39.67
-41.57
-43.44
-45.84
-49.19
-53.53
-58.42
-63.15
-67.06
-69.83
-71.72
-73.46
-75.96
-80.00
-85.98
-93.62
-101.93
-109.20
-113.16
-111.53
-102.56
-85.79
-62.33
-34.80
-6.57
19.11
39.99
55.24
65.31
71.40
74.88
76.79
77.76
78.04
77.73
76.95
75.81
74.50
73.13
71.80
70.48
69.21
68.05
67.11
66.51
66.24
66.15
65.80
64.73
62.38
58.45
52.95
46.26
39.08
32.14
26.02
20.93
16.69
12.84
8.91
4.60
-0.05
-4.68
-8.87
-12.25
-14.70
-16.42
-17.80
-19.38
-21.53
-24.46
-27.99
-31.74
-35.20
-38.09
-40.38
-42.46
-44.89
-48.14
-52.37
-57.36
-62.56
-67.35
-71.27
-74.19
-76.41
-78.59
-81.57
-86.18
-92.94
-101.59
-110.82
-118.27
-120.95
-116.15
-102.40
-80.15
-51.83
-21.17
7.91
32.39
50.80
63.19
70.74
74.99
77.37
78.82
79.82
80.48
80.73
80.44
79.56
78.10
76.27
74.31
72.49
71.02
70.09
69.82
70.21
71.10
72.06
72.45
71.58
68.96
64.57
58.81
52.43
46.13
40.29
34.89
29.58
23.98
17.99
11.75
5.69
0.17
-4.66
-8.98
-13.15
-17.49
-22.12
-26.82
-31.15
-34.75
-37.54
-39.87
-42.31
-45.48
-49.62
-54.55
-59.69
-64.33
-68.04
-70.76
-72.92
-75.25
-78.54
-83.42
-90.16
-98.37
-106.87
-113.58
-115.90
-111.37
-98.57
-77.83
-51.39
-22.81
4.13
26.55
43.17
54.30
61.30
65.69
68.56
70.37
71.12
70.78
69.47
67.58
65.59
63.79
62.27
60.90
59.56
58.31
57.40
57.09
57.42
58.09
58.42
57.67
55.26
51.03
45.31
38.74
32.05
25.82
20.32
15.44
10.83
6.03
0.71
-5.21
-11.43
-17.40
-22.53
-26.47
-29.25
-31.32
-33.39
-36.10
-39.77
-44.27
-49.08
-53.52
-57.05
-59.54
-61.32
-63.19
-66.13
-71.00
-78.19
-87.15
-96.31
-103.14
-104.77
-98.88
-84.60
-62.99
-36.87
-9.90
14.44
33.91
47.82
56.79
62.09
64.96
66.20
66.17
64.95
62.73
59.81
56.70
53.89
51.70
50.24
49.38
48.92
48.64
48.44
48.33
48.26
48.10
47.55
46.15
43.40
38.94
32.74
25.12
16.79
8.57
1.19
-4.99
-10.06
-14.53
-19.11
-24.33
-30.32
-36.74
-42.90
-48.10
-51.97
-54.62
-56.67
-59.04
-62.72
-68.41
-76.37
-86.18
-96.49
-105.11
-109.28
-106.48
-95.27
-76.04
-51.05
-23.86
1.86
23.41
39.68
50.99
58.55
63.59
66.89
68.77
69.24
68.47
66.81
64.78
62.88
61.37
60.19
59.11
57.95
56.63
55.42
54.57
54.27
54.38
54.42
53.65
51.44
47.51
42.07
35.75
29.31
23.40
18.25
13.68
9.22
4.39
-1.04
-6.96
-13.00
-18.68
-23.65
-27.80
-31.33
-34.67
-38.40
-42.96
-48.56
-54.99
-61.63
-67.67
-72.41
-75.64
-77.81
-79.97
-83.41
-89.24
-97.84
-108.56
-119.54
-127.94
-130.53
-124.68
-109.33
-85.56
-56.41
-25.99
1.87
24.73
41.95
54.32
63.21
69.86
75.00
78.90
81.74
83.76
85.23
86.32
86.95
86.87
85.82
83.77
80.97
77.89
75.08
72.94
71.60
70.85
70.19
68.97
66.56
62.60
57.09
50.43
43.27
36.33
30.22
25.14
20.97
17.27
13.59
9.56
5.22
0.83
-3.12
-6.23
-8.42
-10.03
-11.66
-13.99
-17.43
-21.91
-26.96
-31.89
-36.14
-39.52
-42.33
-45.16
-48.60
-52.98
-58.19
-63.75
-69.07
-73.64
-77.25
-79.99
-82.32
-84.89
-88.48
-93.93
-101.74
-111.70
-122.44
-131.33
-134.97
-130.24
-115.47
-91.33
-60.84
-28.31
1.97
27.08
46.02
59.46
68.89
75.76
81.01
85.02
87.87
89.61
90.37
90.34
89.62
88.28
86.25
83.59
80.46
77.26
74.47
72.54
71.65
71.59
71.75
71.32
69.57
66.12
61.10
55.09
48.79
42.77
37.29
32.30
27.61
23.07
18.67
14.49
10.65
7.19
4.09
1.27
-1.32
-3.74
-5.97
-8.01
-9.90
-11.73
-13.66
-15.88
-18.58
-21.81
-25.52
-29.46
-33.28
-36.72
-39.70
-42.37
-45.12
-48.33
-52.28
-56.94
-61.98
-66.88
-71.10
-74.32
-76.60
-78.47
-80.86
-84.82
-91.10
-99.74
-109.71
-118.82
-124.13
-122.73
-112.69
-93.78
-67.76
-37.88
-7.97
18.60
39.77
54.98
64.99
71.17
74.95
77.40
79.06
80.12
80.51
80.16
79.08
77.42
75.41
73.28
71.32
69.67
68.52
67.94
67.91
68.19
68.40
68.02
66.51
63.56
59.09
53.39
46.92
40.22
33.75
27.75
22.33
17.46
13.08
9.07
5.38
1.96
-1.17
-3.96
-6.35
-8.32
-9.99
-11.58
-13.39
-15.66
-18.50
-21.83
-25.45
-29.08
-32.46
-35.44
-37.96
-40.08
-41.92
-43.77
-45.90
-48.56
-51.75
-55.23
-58.56
-61.27
-63.19
-64.55
-66.02
-68.42
-72.44
-78.24
-85.17
-91.77
-95.99
-95.70
-89.23
-76.00
-56.78
-33.57
-9.10
13.86
33.18
47.81
57.75
63.77
66.96
68.31
68.45
67.72
66.20
63.99
61.30
58.50
56.01
54.14
53.03
52.60
52.63
52.97
53.45
53.95
54.20
53.83
52.37
49.47
45.07
39.45
33.15
26.79
20.78
15.30
10.28
5.58
1.13
-3.05
-6.82
-10.10
-12.82
-15.06
-16.97
-18.71
-20.43
-22.27
-24.33
-26.64
-29.18
-31.88
-34.63
-37.41
-40.26
-43.26
-46.45
-49.75
-52.88
-55.50
-57.42
-58.75
-60.01
-61.99
-65.49
-70.82
-77.63
-84.71
-90.27
-92.24
-88.91
-79.35
-63.73
-43.32
-20.29
2.80
23.61
40.52
52.90
61.09
66.04
68.85
70.39
70.99
70.65
69.25
66.78
63.54
60.00
56.67
53.90
51.83
50.44
49.63
49.35
49.51
49.97
50.38
50.27
49.07
46.39
42.15
36.69
30.60
24.55
19.01
14.12
9.72
5.52
1.33
-2.84
-6.82
-10.33
-13.19
-15.44
-17.29
-19.11
-21.19
-23.67
-26.47
-29.28
-31.78
-33.78
-35.36
-36.85
-38.65
-41.06
-44.10
-47.52
-50.92
-53.92
-56.36
-58.32
-60.13
-62.30
-65.39
-69.80
-75.55
-82.10
-88.21
-92.11
-91.88
-85.96
-73.71
-55.70
-33.68
-10.13
12.31
31.57
46.53
57.10
64.04
68.37
71.03
72.52
72.97
72.29
70.42
67.56
64.09
60.49
57.19
54.45
52.33
50.79
49.75
49.11
48.71
48.29
47.46
45.85
43.13
39.22
34.35
28.89
23.30
17.93
12.95
8.36
4.07
0.04
-3.71
-7.02
-9.74
-11.81
-13.31
-14.56
-15.91
-17.65
-19.92
-22.62
-25.49
-28.21
-30.58
-32.59
-34.44
-36.41
-38.77
-41.70
-45.20
-49.07
-52.97
-56.50
-59.36
-61.53
-63.39
-65.70
-69.35
-74.86
-82.03
-89.68
-95.80
-98.05
-94.45
-84.04
-67.14
-45.36
-21.15
2.82
24.24
41.62
54.43
62.97
68.12
70.89
72.12
72.34
71.74
70.34
68.28
65.83
63.42
61.46
60.20
59.64
59.62
59.92
60.41
60.99
61.54
61.75
61.21
59.50
56.38
51.91
46.46
40.52
34.52
28.77
23.33
18.20
13.32
8.69
4.29
0.14
-3.79
-7.52
-11.13
-14.68
-18.24
-21.78
-25.21
-28.36
-31.11
-33.48
-35.69
-38.10
-41.01
-44.54
-48.46
-52.36
-55.78
-58.44
-60.44
-62.18
-64.34
-67.57
-72.26
-78.28
-84.84
-90.49
-93.37
-91.70
-84.22
-70.74
-52.19
-30.51
-8.11
12.71
30.30
43.86
53.46
59.72
63.44
65.29
65.69
64.91
63.14
60.71
58.04
55.50
53.39
51.76
50.53
49.57
48.79
48.23
47.95
47.93
47.92
47.50
46.10
43.30
38.94
33.28
26.85
20.37
14.46
9.43
5.27
1.61
-2.06
-6.11
-10.65
-15.43
-19.99
-23.86
-26.83
-29.05
-30.91
-32.89
-35.24
-37.98
-40.88
-43.65
-46.12
-48.27
-50.24
-52.32
-54.88
-58.37
-63.13
-69.11
-75.67
-81.45
-84.60
-83.34
-76.59
-64.41
-48.08
-29.62
-11.25
5.28
18.98
29.65
37.55
43.14
46.76
48.62
48.86
47.71
45.60
43.09
40.84
39.31
38.64
38.75
39.36
40.21
41.24
42.48
43.95
45.45
46.51
46.45
44.69
40.92
35.31
28.45
21.22
14.44
8.63
3.80
-0.47
-4.85
-9.90
-15.84
-22.40
-28.99
-34.92
-39.76
-43.47
-46.47
-49.50
-53.42
-58.94
-66.33
-75.17
-84.18
-91.30
-94.07
-90.44
-79.47
-61.86
-39.83
-16.55
4.93
22.54
35.60
44.69
50.96
55.50
58.89
61.15
62.02
61.37
59.38
56.62
53.79
51.49
49.98
49.21
48.86
48.57
48.10
47.39
46.52
45.54
44.38
42.73
40.17
36.25
30.76
23.90
16.21
8.54
1.64
-4.07
-8.72
-12.89
-17.35
-22.72
-29.16
-36.32
-43.47
-49.83
-54.90
-58.65
-61.47
-64.04
-67.16
-71.45
-77.47
-85.41
-94.99
-105.03
-113.41
-117.29
-113.98
-101.95
-81.66
-55.71
-27.97
-2.37
18.40
33.53
43.82
50.93
56.47
61.44
66.06
70.12
73.26
75.24
76.04
75.76
74.58
72.71
70.35
67.82
65.49
63.78
62.91
62.82
63.07
62.93
61.69
58.91
54.61
49.25
43.43
37.70
32.37
27.48
22.91
18.59
14.47
10.58
6.93
3.36
-0.34
-4.40
-8.89
-13.66
-18.32
-22.47
-25.91
-28.75
-31.51
-34.80
-39.14
-44.68
-51.08
-57.72
-63.87
-69.06
-73.14
-76.41
-79.52
-83.31
-88.65
-96.18
-105.94
-116.99
-127.16
-133.37
-132.36
-121.93
-101.88
-74.40
-43.45
-13.46
12.09
31.62
45.44
55.03
62.10
67.83
72.71
76.71
79.70
81.69
82.75
83.02
82.49
81.12
78.89
76.03
73.00
70.42
68.85
68.51
69.18
70.17
70.60
69.68
67.05
62.89
57.78
52.47
47.56
43.34
39.74
36.54
33.50
30.44
27.33
24.20
21.10
18.03
15.01
11.95
8.80
5.46
1.96
-1.66
-5.23
-8.60
-11.69
-14.58
-17.53
-20.83
-24.70
-29.05
-33.56
-37.77
-41.28
-44.07
-46.45
-49.00
-52.28
-56.51
-61.47
-66.56
-71.12
-74.71
-77.37
-79.62
-82.38
-86.64
-93.16
-102.12
-112.79
-123.37
-131.21
-133.33
-127.24
-111.95
-88.37
-59.29
-28.57
-0.03
23.65
41.46
53.90
62.44
68.71
73.88
78.48
82.46
85.52
87.37
87.84
87.06
85.30
82.94
80.37
77.93
75.86
74.32
73.34
72.82
72.49
71.86
70.35
67.44
62.93
57.05
50.48
44.00
38.26
33.49
29.51
25.84
22.05
17.88
13.39
8.87
4.67
1.03
-1.93
-4.25
-6.08
-7.65
-9.24
-11.18
-13.73
-17.04
-21.01
-25.33
-29.54
-33.22
-36.21
-38.69
-41.14
-44.11
-47.96
-52.69
-57.84
-62.72
-66.73
-69.60
-71.51
-73.11
-75.28
-78.85
-84.30
-91.55
-99.75
-107.23
-111.70
-110.69
-102.34
-86.12
-63.22
-36.38
-9.16
15.15
34.45
48.21
57.25
63.07
67.05
69.94
71.90
72.67
72.11
70.42
68.17
65.99
64.38
63.44
62.99
62.75
62.63
62.75
63.24
64.04
64.70
64.52
62.78
59.15
53.79
47.33
40.65
34.43
29.05
24.44
20.20
15.88
11.18
6.12
1.05
-3.52
-7.21
-9.93
-11.92
-13.72
-15.83
-18.60
-22.01
-25.77
-29.43
-32.65
-35.34
-37.71
-40.17
-43.14
-46.84
-51.20
-55.87
-60.33
-64.15
-67.13
-69.40
-71.48
-74.09
-78.04
-83.85
-91.49
-99.98
-107.37
-111.01
-108.32
-97.63
-78.93
-54.06
-26.18
1.18
25.05
43.83
57.26
66.12
71.69
75.15
77.40
78.85
79.61
79.58
78.67
76.88
74.40
71.60
68.89
66.62
65.03
64.17
63.99
64.31
64.80
65.04
64.47
62.57
59.09
54.04
47.78
40.89
33.96
27.45
21.57
16.30
11.47
6.85
2.32
-2.12
-6.33
-10.06
-13.15
-15.60
-17.62
-19.59
-21.89
-24.71
-27.98
-31.40
-34.57
-37.18
-39.20
-40.87
-42.63
-44.92
-47.98
-51.81
-56.07
-60.30
-64.03
-66.95
-69.04
-70.55
-72.03
-74.17
-77.60
-82.65
-89.00
-95.52
-100.30
-101.05
-95.77
-83.45
-64.55
-41.00
-15.69
8.39
28.89
44.67
55.77
63.09
67.83
71.03
73.26
74.69
75.19
74.62
73.01
70.57
67.71
64.87
62.47
60.77
59.82
59.52
59.59
59.69
59.44
58.50
56.57
53.41
48.93
43.19
36.51
29.41
22.54
16.44
11.36
7.16
3.43
-0.30
-4.28
-8.41
-12.30
-15.52
-17.82
-19.30
-20.37
-21.52
-23.10
-25.18
-27.52
-29.75
-31.58
-32.98
-34.23
-35.73
-37.83
-40.67
-44.02
-47.45
-50.52
-52.95
-54.78
-56.34
-58.13
-60.62
-64.22
-69.06
-75.00
-81.44
-87.27
-90.83
-90.25
-83.97
-71.26
-52.78
-30.48
-7.13
14.46
32.24
45.38
54.21
59.78
63.28
65.52
66.86
67.27
66.69
65.18
63.05
60.71
58.56
56.82
55.53
54.62
53.95
53.45
53.07
52.71
52.20
51.22
49.45
46.59
42.59
37.63
32.08
26.39
20.85
15.58
10.56
5.73
1.09
-3.26
-7.15
-10.46
-13.22
-15.61
-17.92
-20.34
-22.93
-25.56
-27.99
-30.07
-31.75
-33.20
-34.67
-36.45
-38.65
-41.18
-43.80
-46.22
-48.28
-49.97
-51.53
-53.28
-55.63
-58.89
-63.13
-68.08
-72.98
-76.57
-77.39
-74.06
-65.76
-52.55
-35.42
-16.16
3.15
20.64
34.99
45.73
53.00
57.42
59.71
60.41
59.87
58.31
55.93
53.01
49.93
47.10
44.85
43.36
42.69
42.77
43.42
44.38
45.34
45.89
45.67
44.35
41.72
37.75
32.60
26.60
20.26
14.10
8.55
3.75
-0.39
-4.21
-8.11
-12.29
-16.71
-21.04
-24.84
-27.79
-29.88
-31.40
-32.89
-34.81
-37.35
-40.32
-43.33
-45.88
-47.72
-48.95
-50.00
-51.51
-54.10
-58.18
-63.80
-70.45
-77.00
-81.86
-83.23
-79.54
-70.02
-54.92
-35.66
-14.44
6.28
24.43
38.77
49.08
55.88
60.09
62.55
63.77
63.93
63.03
61.20
58.73
56.05
53.58
51.54
49.89
48.54
47.37
46.40
45.73
45.42
45.29
44.94
43.84
41.48
37.62
32.40
26.23
19.70
13.40
7.69
2.73
-1.62
-5.61
-9.59
-13.78
-18.20
-22.60
-26.61
-29.92
-32.45
-34.50
-36.59
-39.24
-42.70
-46.78
-50.96
-54.58
-57.19
-58.71
-59.54
-60.46
-62.32
-65.93
-71.61
-79.03
-86.94
-93.38
-95.98
-92.62
-82.20
-64.98
-42.71
-18.08
5.91
26.82
43.19
54.78
62.25
66.78
69.51
71.28
72.46
73.05
72.91
71.96
70.26
68.05
65.60
63.15
60.88
58.89
57.26
56.02
55.15
54.45
53.58
52.06
49.39
45.22
39.47
32.43
24.74
17.22
10.64
5.48
1.70
-1.13
-3.70
-6.68
-10.33
-14.56
-18.90
-22.82
-25.94
-28.27
-30.13
-32.04
-34.48
-37.74
-41.75
-46.16
-50.45
-54.19
-57.18
-59.54
-61.74
-64.33
-67.98
-73.16
-80.04
-88.20
-96.41
-102.62
-104.31
-99.20
-86.05
-65.39
-39.56
-11.99
13.72
34.96
50.68
61.27
67.98
72.18
74.84
76.38
76.89
76.32
74.73
72.31
69.39
66.24
63.19
60.42
58.10
56.32
55.11
54.45
54.26
54.32
54.26
53.56
51.70
48.26
43.21
36.92
30.02
23.26
17.23
12.18
8.05
4.50
1.09
-2.56
-6.63
-11.09
-15.69
-20.04
-23.82
-26.82
-29.12
-31.02
-32.97
-35.39
-38.56
-42.46
-46.82
-51.17
-55.00
-58.01
-60.21
-61.95
-63.85
-66.65
-70.93
-76.95
-84.37
-92.10
-98.31
-100.77
-97.42
-87.06
-69.90
-47.70
-23.20
0.55
21.11
37.20
48.73
56.46
61.47
64.67
66.58
67.39
67.14
65.91
63.90
61.48
59.00
56.74
54.87
53.41
52.38
51.82
51.73
52.02
52.37
52.26
51.06
48.34
44.03
38.48
32.26
25.91
19.73
13.74
7.86
2.02
-3.66
-8.96
-13.65
-17.70
-21.19
-24.31
-27.32
-30.37
-33.57
-36.97
-40.51
-43.99
-47.11
-49.62
-51.47
-53.00
-54.92
-58.13
-63.34
-70.63
-79.20
-87.29
-92.55
-92.59
-85.81
-71.90
-52.12
-28.99
-5.52
15.60
32.61
44.99
53.18
58.18
60.98
62.28
62.41
61.47
59.50
56.74
53.61
50.62
48.28
46.82
46.25
46.30
46.58
46.73
46.56
46.05
45.17
43.89
42.01
39.19
35.08
29.49
22.57
14.81
6.94
-0.32
-6.49
-11.52
-15.81
-19.93
-24.45
-29.60
-35.21
-40.86
-46.00
-50.28
-53.59
-56.13
-58.31
-60.62
-63.65
-67.98
-74.03
-81.72
-90.08
-97.20
-100.48
-97.43
-86.61
-68.33
-44.74
-19.16
4.98
25.14
40.28
50.76
57.75
62.54
66.02
68.52
70.02
70.34
69.45
67.52
64.87
61.86
58.89
56.23
54.13
52.80
52.35
52.72
53.67
54.70
55.19
54.56
52.40
48.64
43.49
37.39
30.83
24.25
17.99
12.22
7.05
2.46
-1.63
-5.29
-8.64
-11.76
-14.75
-17.66
-20.56
-23.43
-26.27
-29.02
-31.62
-34.09
-36.51
-39.10
-42.14
-45.88
-50.34
-55.32
-60.29
-64.65
-68.01
-70.34
-72.21
-74.64
-78.73
-85.23
-94.06
-103.98
-112.69
-117.35
-115.27
-104.92
-86.38
-61.54
-33.55
-5.86
18.69
38.48
53.22
63.63
70.80
75.82
79.41
81.92
83.44
83.98
83.57
82.36
80.55
78.41
76.18
74.04
72.09
70.38
68.95
67.75
66.76
65.77
64.49
62.57
59.67
55.66
50.64
44.96
39.09
33.50
28.44
23.95
19.86
15.89
11.88
7.85
4.01
0.65
-2.03
-4.03
-5.49
-6.68
-7.78
-8.90
-10.03
-11.17
-12.35
-13.66
-15.22
-17.01
-18.94
-20.85
-22.62
-24.28
-26.08
-28.29
-31.14
-34.54
-38.16
-41.46
-44.13
-46.08
-47.66
-49.35
-51.63
-54.63
-58.10
-61.52
-64.37
-66.42
-67.77
-68.96
-70.79
-74.06
-79.36
-86.67
-95.23
-103.40
-108.87
-109.23
-102.61
-88.37
-67.44
-42.16
-15.63
9.08
29.76
45.49
56.65
64.43
70.24
75.10
79.42
82.98
85.32
86.13
85.49
83.84
81.81
79.87
78.22
76.81
75.47
74.13
72.82
71.58
70.30
68.66
66.17
62.41
57.28
51.04
44.30
37.77
31.96
27.02
22.76
18.78
14.72
10.43
6.05
1.84
-1.91
-5.03
-7.48
-9.31
-10.62
-11.56
-12.36
-13.28
-14.51
-16.11
-17.88
-19.50
-20.68
-21.36
-21.78
-22.36
-23.53
-25.47
-28.06
-30.98
-33.79
-36.20
-38.12
-39.69
-41.16
-42.85
-44.97
-47.51
-50.30
-53.03
-55.39
-57.28
-58.86
-60.59
-63.16
-67.13
-72.77
-79.73
-86.95
-92.75
-95.13
-92.27
-83.07
-67.62
-47.24
-24.21
-1.23
19.38
36.17
48.75
57.65
63.84
68.26
71.48
73.75
75.05
75.30
74.62
73.22
71.44
69.56
67.80
66.23
64.91
63.84
63.04
62.47
61.95
61.15
59.58
56.81
52.52
46.81
40.09
33.00
26.20
20.04
14.65
9.87
5.53
1.53
-2.09
-5.19
-7.69
-9.55
-10.84
-11.74
-12.43
-13.13
-14.03
-15.19
-16.60
-18.13
-19.60
-20.89
-21.94
-22.82
-23.66
-24.56
-25.59
-26.73
-27.89
-29.06
-30.26
-31.64
-33.37
-35.63
-38.42
-41.60
-44.81
-47.71
-50.10
-52.04
-53.91
-56.30
-59.69
-64.29
-69.76
-75.26
-79.48
-81.02
-78.63
-71.54
-59.66
-43.64
-24.83
-5.05
13.78
30.05
42.84
52.02
58.21
62.27
64.97
66.69
67.39
66.91
65.21
62.62
59.71
57.07
55.12
53.88
53.14
52.62
52.14
51.65
51.17
50.56
49.53
47.61
44.42
39.86
34.24
28.14
22.21
16.92
12.38
8.41
4.71
1.09
-2.46
-5.78
-8.66
-10.99
-12.75
-14.10
-15.20
-16.17
-17.07
-17.96
-18.91
-19.96
-21.18
-22.51
-23.89
-25.22
-26.47
-27.74
-29.22
-31.07
-33.36
-35.95
-38.67
-41.28
-43.69
-45.90
-48.03
-50.29
-52.89
-56.04
-59.83
-64.07
-68.16
-71.07
-71.54
-68.36
-60.81
-48.93
-33.49
-15.93
2.06
18.89
33.31
44.61
52.60
57.56
60.07
60.72
60.03
58.33
55.79
52.63
49.15
45.79
42.99
41.05
40.01
39.65
39.66
39.73
39.73
39.54
39.05
38.03
36.23
33.46
29.77
25.39
20.74
16.17
11.83
7.74
3.81
0.03
-3.50
-6.58
-9.08
-10.96
-12.33
-13.42
-14.41
-15.47
-16.67
-18.05
-19.56
-21.20
-22.95
-24.79
-26.66
-28.55
-30.46
-32.40
-34.44
-36.58
-38.85
-41.17
-43.47
-45.75
-48.08
-50.72
-54.05
-58.29
-63.35
-68.65
-73.01
-75.05
-73.37
-67.16
-56.35
-41.70
-24.61
-6.74
10.30
25.28
37.48
46.68
53.06
57.05
59.16
59.83
59.38
58.03
55.99
53.46
50.74
48.15
46.00
44.49
43.69
43.50
43.70
44.01
44.14
43.87
42.99
41.35
38.86
35.46
31.20
26.30
21.14
16.15
11.70
8.01
5.02
2.52
0.20
-2.14
-4.52
-6.86
-9.03
-10.98
-12.86
-14.87
-17.18
-19.79
-22.49
-24.99
-27.09
-28.82
-30.43
-32.27
-34.58
-37.40
-40.52
-43.60
-46.30
-48.46
-50.14
-51.65
-53.48
-56.18
-60.15
-65.44
-71.56
-77.47
-81.75
-82.84
-79.44
-70.86
-57.21
-39.50
-19.46
0.83
19.35
34.65
46.12
53.96
58.98
62.13
64.14
65.30
65.58
64.89
63.27
61.03
58.68
56.66
55.20
54.30
53.80
53.50
53.32
53.25
53.17
52.87
51.87
49.69
46.03
40.93
34.85
28.47
22.44
17.18
12.72
8.85
5.20
1.57
-2.06
-5.48
-8.49
-10.88
-12.63
-13.89
-14.93
-16.07
-17.61
-19.73
-22.41
-25.47
-28.49
-31.05
-32.86
-33.94
-34.62
-35.37
-36.65
-38.64
-41.28
-44.23
-47.19
-49.94
-52.50
-55.12
-58.18
-62.10
-67.16
-73.25
-79.73
-85.34
-88.38
-87.06
-80.08
-67.03
-48.75
-27.15
-4.72
16.08
33.48
46.71
55.98
62.10
66.09
68.70
70.24
70.79
70.23
68.64
66.31
63.63
60.99
58.67
56.79
55.35
54.41
54.01
54.14
54.62
55.05
54.83
53.39
50.36
45.76
40.01
33.74
27.59
21.99
17.01
12.51
8.23
4.01
-0.14
-4.01
-7.39
-10.15
-12.33
-14.14
-15.88
-17.75
-19.84
-22.11
-24.38
-26.51
-28.35
-29.81
-30.96
-31.99
-33.21
-34.90
-37.20
-40.01
-43.02
-45.83
-48.10
-49.82
-51.40
-53.50
-56.87
-61.96
-68.58
-75.80
-82.01
-85.31
-84.01
-77.02
-64.35
-47.04
-26.99
-6.46
12.47
28.31
40.41
48.84
54.26
57.49
59.19
59.74
59.26
57.80
55.54
52.89
50.41
48.60
47.76
47.84
48.58
49.56
50.41
50.86
50.80
50.18
48.95
46.99
44.21
40.48
35.84
30.50
24.91
19.55
14.86
10.93
7.54
4.28
0.73
-3.26
-7.46
-11.41
-14.66
-17.02
-18.59
-19.73
-20.82
-22.10
-23.68
-25.52
-27.62
-29.93
-32.41
-34.85
-37.00
-38.62
-39.71
-40.61
-41.95
-44.43
-48.46
-53.88
-59.78
-64.64
-66.76
-64.84
-58.45
-48.33
-36.12
-23.82
-13.17
-5.09
0.43
4.05
6.69
9.14
11.95
15.31
19.16
23.22
27.12
30.46
32.97
34.61
35.58
36.23
36.99
38.25
40.24
43.08
46.56
50.27
53.45
55.33
55.25
52.96
48.74
43.27
37.35
31.66
26.52
21.92
17.65
13.48
9.29
5.13
1.19
-2.33
-5.28
-7.64
-9.56
-11.28
-13.11
-15.26
-17.75
-20.49
-23.20
-25.67
-27.81
-29.79
-31.92
-34.54
-37.87
-41.83
-46.08
-50.14
-53.58
-56.25
-58.42
-60.75
-64.09
-69.21
-76.38
-85.06
-93.87
-100.64
-102.98
-98.91
-87.53
-69.42
-46.58
-21.89
1.75
22.13
38.21
50.05
58.43
64.36
68.69
71.89
74.15
75.51
75.92
