1541610367.00
64.000000
-0.00
-0.00
-0.00
-0.00
-0.00
-0.00
-0.00
-0.00
-0.00
-0.00
0.00
0.01
0.01
-0.00
-0.03
-0.05
-0.05
0.00
0.13
0.36
0.66
1.01
1.37
1.72
2.06
2.40
2.79
3.24
3.80
4.42
5.06
5.66
6.20
6.68
7.15
7.68
8.31
9.14
10.09
11.04
11.88
12.56
13.14
13.76
14.65
15.96
17.91
20.32
22.90
25.38
27.58
29.57
31.68
34.32
37.81
42.54
48.15
54.10
59.83
64.97
69.58
74.14
79.34
85.71
93.76
103.00
112.62
121.73
129.77
136.75
143.30
150.75
157.77
166.64
177.95
191.79
206.97
220.57
228.25
225.36
208.53
176.87
132.76
80.05
23.07
-34.94
-92.44
-149.16
-205.23
-260.37
-313.74
-363.87
-409.83
-450.91
-486.50
-515.74
-537.23
-549.22
-549.96
-538.36
-514.20
-478.66
-433.85
-382.40
-326.95
-269.74
-212.50
-156.48
-102.73
-52.10
-5.57
35.97
71.88
101.86
126.08
145.02
159.40
169.93
177.23
181.69
183.60
183.18
180.72
176.56
171.10
164.76
157.87
150.70
143.38
135.99
128.55
121.13
113.77
106.56
99.57
92.84
86.41
80.31
74.53
69.09
64.00
59.27
54.91
50.92
47.30
44.05
41.15
38.60
36.40
34.55
33.02
31.82
30.95
30.40
30.18
30.27
30.64
31.26
32.07
32.97
33.87
34.61
35.03
34.96
34.23
32.71
30.31
27.03
22.90
17.99
12.51
6.68
0.75
-5.00
-10.31
-14.98
-18.83
-21.75
-23.74
-24.78
-24.98
-24.46
-23.33
-21.77
-19.88
-17.80
-15.60
-13.34
-11.04
-8.74
-6.46
-4.20
-1.94
0.32
2.63
5.00
7.47
10.10
12.84
15.69
18.63
21.69
24.86
28.18
31.66
35.35
39.32
43.48
47.76
52.16
56.67
61.29
66.05
70.99
76.18
81.71
87.42
93.22
99.06
104.92
110.78
116.65
122.55
128.50
134.59
140.50
145.99
150.82
154.75
157.46
158.56
157.50
153.52
148.09
141.74
134.85
127.65
120.34
113.06
105.92
99.04
92.54
86.56
80.89
75.42
70.07
64.81
59.64
54.59
49.69
45.05
40.76
36.70
32.78
29.00
25.33
21.79
18.41
15.23
12.31
9.73
7.40
5.29
3.37
1.64
0.09
-1.27
-2.45
-3.43
-4.20
-4.81
-5.30
-5.69
-5.99
-6.23
-6.44
-6.64
-6.86
-7.11
-7.39
-7.68
-7.94
-8.14
-8.27
-8.33
-8.39
-8.49
-8.67
-8.96
-9.30
-9.66
-9.98
-10.27
-10.57
-10.96
-11.57
-12.45
-13.62
-15.01
-16.48
-17.94
-19.38
-20.93
-22.81
-25.26
-28.41
-32.21
-36.37
-40.54
-44.40
-47.85
-51.10
-54.61
-58.91
-64.35
-70.92
-78.23
-85.68
-92.73
-99.24
-105.58
-112.54
-120.97
-131.46
-144.01
-158.06
-172.73
-187.21
-201.10
-214.55
-228.19
-243.01
-260.21
-280.95
-305.95
-334.69
-364.81
-392.11
-411.35
-417.94
-409.62
-387.32
-354.81
-317.17
-279.02
-243.30
-211.20
-182.75
-157.79
-136.33
-118.48
-103.96
-91.91
-81.09
-70.38
-59.24
-47.85
-36.93
-27.28
-19.38
-13.12
-7.95
-3.11
2.01
7.56
13.14
17.99
21.21
22.17
20.68
17.10
12.22
6.93
2.00
-2.23
-5.84
-9.31
-13.18
-17.84
-23.24
-28.75
-33.29
-35.57
-34.48
-29.45
-20.68
-9.02
4.26
17.76
30.34
41.16
49.80
56.15
60.32
62.57
63.22
62.64
61.12
59.01
56.60
54.16
51.96
50.12
48.71
47.64
46.77
45.89
44.81
43.32
41.27
38.55
35.16
31.19
26.79
22.17
17.39
12.43
7.07
1.01
-6.08
-14.37
-23.66
-33.33
-42.26
-48.99
-52.04
-50.34
-43.61
-32.54
-18.64
-3.86
10.03
21.81
31.02
37.84
42.70
46.03
48.04
48.78
48.28
46.73
44.47
41.90
39.40
37.20
35.39
33.97
32.89
32.07
31.38
30.67
29.71
28.28
26.13
23.11
19.22
14.56
9.43
4.07
-1.35
-6.92
-12.96
-19.90
-28.06
-37.30
-46.88
-55.40
-61.13
-62.48
-58.52
-49.31
-35.90
-20.03
-3.59
11.80
25.06
35.66
43.53
48.83
51.92
53.30
53.49
53.04
52.33
51.58
50.82
49.99
49.02
47.90
46.69
45.41
44.11
42.71
41.06
38.87
35.85
31.76
26.49
20.19
13.19
5.95
-1.06
-7.62
-13.80
-20.01
-26.83
-34.85
-44.30
-54.86
-65.44
-74.35
-79.66
-79.75
-73.82
-62.17
-46.18
-27.85
-9.26
7.92
22.65
34.51
43.55
50.00
54.19
56.45
57.15
56.73
55.59
54.10
52.55
51.12
49.81
48.55
47.24
45.85
44.48
43.23
42.19
41.19
39.94
37.98
34.86
30.38
24.57
17.78
10.52
3.31
-3.40
-9.43
-14.91
-20.31
-26.30
-33.53
-42.26
-52.07
-61.81
-69.73
-74.01
-73.26
-66.96
-55.64
-40.68
-23.88
-7.00
8.61
22.13
33.20
41.81
48.04
52.12
54.32
55.00
54.62
53.62
52.50
51.54
50.93
50.67
50.57
50.41
50.00
49.29
48.33
47.18
45.82
44.01
41.40
37.66
32.67
26.65
20.11
13.63
7.64
2.20
-2.91
-8.17
-14.03
-20.90
-29.03
-38.42
-48.71
-58.89
-67.45
-72.51
-72.35
-66.15
-54.19
-37.96
-19.61
-1.35
15.12
28.82
39.38
46.85
51.47
53.64
53.86
52.75
50.98
49.13
47.61
46.63
46.28
46.47
47.04
47.70
48.12
48.00
47.22
45.85
44.11
42.14
39.91
37.15
33.40
28.33
21.89
14.49
6.79
-0.51
-6.95
-12.52
-17.53
-22.51
-27.96
-34.22
-41.48
-49.58
-58.04
-65.87
-71.61
-73.61
-70.49
-61.68
-47.76
-30.36
-11.70
6.06
21.41
33.59
42.56
48.61
52.13
53.44
52.88
50.90
48.10
45.22
42.88
41.45
40.90
40.91
41.04
40.94
40.47
39.73
38.90
38.06
37.14
35.89
34.05
31.41
27.91
23.56
18.46
12.77
6.69
0.49
-5.57
-11.33
-16.81
-22.21
-27.86
-34.12
-41.19
-49.02
-57.11
-64.51
-69.87
-71.74
-68.95
-61.05
-48.55
-32.82
-15.76
0.75
15.24
26.94
35.68
41.67
45.24
46.68
46.32
44.52
41.87
39.08
36.90
35.79
35.86
36.78
37.93
38.70
38.70
37.93
36.65
35.18
33.60
31.73
29.13
25.40
20.40
14.38
7.87
1.43
-4.55
-10.01
-15.17
-20.39
-26.07
-32.52
-39.91
-48.17
-56.87
-65.14
-71.62
-74.78
-73.29
-66.51
-54.78
-39.41
-22.31
-5.44
9.62
21.97
31.27
37.59
41.14
42.19
41.13
38.53
35.16
31.87
29.36
28.02
27.79
28.28
28.95
29.36
29.30
28.79
28.04
27.18
26.15
24.62
22.20
18.56
13.63
7.70
1.34
-4.81
-10.25
-14.83
-18.82
-22.83
-27.60
-33.69
-41.30
-50.03
-58.91
-66.54
-71.31
-71.86
-67.44
-58.16
-44.96
-29.43
-13.42
1.45
14.03
23.80
30.71
34.98
36.97
37.07
35.70
33.36
30.55
27.74
25.23
23.17
21.61
20.54
19.99
19.93
20.33
20.98
21.53
21.51
20.47
18.09
14.28
9.19
3.19
-3.23
-9.62
-15.66
-21.29
-26.68
-32.22
-38.37
-45.52
-53.74
-62.56
-70.83
-76.92
-79.04
-75.90
-67.16
-53.70
-37.34
-20.32
-4.59
8.60
18.84
26.34
31.56
34.95
36.79
37.34
36.80
35.51
33.80
31.98
30.28
28.80
27.61
26.70
26.07
25.65
25.26
24.62
23.33
21.01
17.39
12.41
6.27
-0.60
-7.69
-14.51
-20.85
-26.76
-32.57
-38.80
-45.85
-53.79
-62.10
-69.63
-74.78
-75.90
-71.85
-62.41
-48.48
-31.82
-14.58
1.26
14.42
24.36
31.20
35.45
37.73
38.56
38.36
37.49
36.22
34.81
33.46
32.26
31.18
30.20
29.30
28.47
27.76
27.11
26.33
25.10
23.01
19.71
15.09
9.31
2.83
-3.78
-10.06
-15.81
-21.28
-26.99
-33.57
-41.41
-50.36
-59.60
-67.66
-72.74
-73.19
-68.04
-57.33
-42.24
-24.80
-7.31
8.24
20.71
29.90
36.31
40.68
43.61
45.31
45.78
45.01
43.20
40.83
38.41
36.31
34.61
33.16
31.79
30.42
29.13
28.00
26.98
25.73
23.76
20.58
15.94
9.91
2.99
-4.15
-10.86
-16.76
-21.86
-26.66
-31.90
-38.33
-46.38
-55.78
-65.51
-73.92
-79.06
-79.34
-73.96
-63.17
-48.25
-31.07
-13.56
2.68
16.61
27.74
35.96
41.43
44.46
45.54
45.33
44.45
43.49
42.77
42.34
42.03
41.60
40.82
39.64
38.18
36.63
35.20
33.96
32.73
31.15
28.75
25.14
20.18
14.03
7.06
-0.19
-7.23
-13.71
-19.51
-24.81
-30.09
-36.01
-43.15
-51.75
-61.34
-70.77
-78.41
-82.45
-81.50
-75.01
-63.34
-47.76
-30.05
-12.09
4.52
18.72
30.02
38.38
44.09
47.51
49.06
49.12
48.10
46.47
44.71
43.22
42.19
41.59
41.19
40.65
39.74
38.43
36.88
35.28
33.72
32.05
29.87
26.70
22.15
16.12
8.92
1.13
-6.54
-13.45
-19.29
-24.14
-28.41
-32.80
-38.00
-44.56
-52.57
-61.60
-70.59
-77.91
-81.73
-80.48
-73.37
-60.69
-43.86
-24.98
-6.32
10.29
23.80
33.96
41.10
45.79
48.62
49.97
50.16
49.46
48.21
46.82
45.70
45.13
45.11
45.38
45.49
45.01
43.72
41.64
38.98
35.99
32.76
29.20
25.11
20.28
14.65
8.36
1.69
-4.99
-11.35
-17.17
-22.37
-27.07
-31.53
-36.11
-41.23
-47.25
-54.27
-61.91
-69.22
-74.71
-76.69
-73.82
-65.59
-52.64
-36.58
-19.55
-3.53
10.07
20.68
28.33
33.43
36.46
37.83
37.92
37.08
35.68
34.11
32.68
31.63
31.11
31.11
31.46
31.87
31.96
31.49
30.38
28.80
26.99
25.06
22.77
19.69
15.38
9.70
3.07
-3.71
-9.82
-14.81
-18.80
-22.34
-26.04
-30.39
-35.60
-41.72
-48.59
-55.88
-62.77
-67.95
-69.79
-66.85
-58.51
-45.34
-29.01
-11.76
4.29
17.70
27.81
34.68
38.73
40.41
40.12
38.24
35.23
31.68
28.33
25.81
24.53
24.49
25.30
26.38
27.18
27.46
27.23
26.76
26.21
25.57
24.62
23.03
20.53
17.02
12.62
7.64
2.51
-2.37
-6.78
-10.70
-14.49
-18.73
-24.07
-30.93
-39.20
-48.06
-56.11
-61.70
-63.35
-60.21
-52.22
-40.17
-25.46
-9.76
5.27
18.33
28.51
35.46
39.28
40.37
39.35
36.88
33.63
30.19
27.14
24.81
23.37
22.69
22.52
22.57
22.70
22.98
23.52
24.37
25.31
25.90
25.58
23.92
20.72
16.15
10.58
4.54
-1.50
-7.21
-12.48
-17.43
-22.40
-27.91
-34.36
-41.90
-50.10
-57.89
-63.70
-65.92
-63.37
-55.79
-43.94
-29.46
-14.34
-0.36
11.28
20.10
26.14
29.68
31.01
30.42
28.28
25.14
21.71
18.70
16.52
15.19
14.40
13.81
13.28
12.91
12.90
13.30
13.84
13.99
13.15
10.94
7.37
2.79
-2.27
-7.30
-12.09
-16.60
-21.08
-25.90
-31.43
-37.86
-45.07
-52.46
-58.98
-63.26
-64.03
-60.44
-52.39
-40.61
-26.48
-11.67
2.28
14.15
23.25
29.31
32.45
33.08
31.80
29.25
26.04
22.66
19.44
16.62
14.36
12.77
11.93
11.79
12.14
12.65
12.90
12.48
11.06
8.52
4.91
0.47
-4.51
-9.80
-15.20
-20.66
-26.23
-32.03
-38.23
-44.98
-52.27
-59.75
-66.54
-71.32
-72.61
-69.22
-60.78
-47.99
-32.49
-16.34
-1.46
10.88
20.19
26.57
30.43
32.20
32.21
30.76
28.25
25.24
22.32
20.05
18.71
18.35
18.78
19.70
20.75
21.56
21.78
21.03
19.09
15.87
11.50
6.23
0.36
-5.85
-12.31
-19.01
-26.12
-33.80
-42.24
-51.37
-60.73
-69.28
-75.53
-77.85
-74.99
-66.59
-53.44
-37.24
-20.15
-4.15
9.40
19.92
27.49
32.57
35.62
37.01
36.96
35.63
33.25
30.14
26.75
23.54
20.88
18.92
17.62
16.75
15.93
14.84
13.20
10.86
7.69
3.66
-1.11
-6.40
-11.90
-17.41
-22.96
-28.90
-35.64
-43.42
-51.95
-60.26
-66.84
-70.06
-68.65
-62.08
-50.78
-36.02
-19.65
-3.61
10.53
21.78
29.90
35.21
38.33
39.87
40.30
39.94
39.01
37.64
35.97
34.13
32.23
30.42
28.87
27.70
26.95
26.39
25.62
24.12
21.48
17.52
12.39
6.43
0.07
-6.32
-12.55
-18.66
-24.92
-31.70
-39.35
-47.88
-56.77
-64.83
-70.45
-71.93
-68.07
-58.64
-44.50
-27.41
-9.53
7.15
21.17
31.87
39.25
43.74
45.99
46.65
46.22
45.09
43.51
41.63
39.53
37.31
35.04
32.86
30.88
29.22
27.93
26.90
25.79
24.19
21.69
18.08
13.41
8.00
2.23
-3.68
-9.67
-15.93
-22.71
-30.24
-38.60
-47.59
-56.61
-64.61
-70.15
-71.75
-68.28
-59.45
-46.04
-29.71
-12.58
3.44
17.07
27.87
36.01
41.96
46.12
48.73
49.91
49.83
48.73
46.94
44.79
42.50
40.20
37.95
35.88
34.10
32.66
31.50
30.39
29.01
27.01
24.11
20.08
14.86
8.56
1.60
-5.50
-12.16
-18.12
-23.59
-29.23
-35.91
-44.25
-54.22
-64.84
-74.41
-80.82
-82.33
-77.96
-67.90
-53.41
-36.37
-18.88
-2.61
11.38
22.67
31.36
37.79
42.38
45.51
47.50
48.57
48.89
48.60
47.84
46.79
45.63
44.50
43.39
42.25
40.93
39.37
37.62
35.77
33.85
31.72
29.04
25.45
20.70
14.84
8.22
1.36
-5.27
-11.42
-17.16
-22.82
-28.87
-35.79
-43.88
-53.14
-63.04
-72.44
-79.71
-83.06
-81.11
-73.36
-60.45
-43.94
-25.85
-8.08
7.94
21.53
32.49
40.96
47.15
51.27
53.58
54.39
54.13
53.27
52.23
51.29
50.58
50.07
49.61
49.06
48.22
46.97
45.25
43.04
40.36
37.30
33.89
30.12
25.85
20.86
15.04
8.47
1.46
-5.52
-12.04
-17.92
-23.28
-28.49
-34.07
-40.44
-47.85
-56.18
-64.89
-72.95
-79.00
-81.54
-79.36
-71.91
-59.55
-43.49
-25.56
-7.73
8.33
21.55
31.56
38.57
43.13
45.90
47.42
48.09
48.15
47.83
47.35
46.95
46.77
46.81
46.94
46.93
46.59
45.77
44.43
42.53
40.02
36.84
32.95
28.37
23.13
17.37
11.20
4.74
-1.87
-8.41
-14.63
-20.32
-25.40
-30.06
-34.73
-39.94
-46.19
-53.65
-62.00
-70.34
-77.34
-81.40
-81.14
-75.69
-65.00
-49.99
-32.32
-14.04
2.91
17.11
27.87
35.16
39.43
41.33
41.52
40.56
38.94
37.05
35.23
33.78
32.88
32.58
32.83
33.43
34.10
34.49
34.31
33.36
31.63
29.28
26.50
23.41
19.98
16.05
11.46
6.17
0.48
-5.15
-10.29
-14.72
-18.61
-22.51
-27.08
-32.88
-40.13
-48.59
-57.48
-65.58
-71.38
-73.40
-70.57
-62.62
-50.21
-34.89
-18.57
-3.09
10.21
20.67
28.21
33.07
35.60
36.18
35.19
33.09
30.43
27.76
25.60
24.28
23.88
24.23
24.95
25.59
25.76
25.30
24.29
22.97
21.59
20.17
18.48
16.10
12.63
7.97
2.38
-3.56
-9.25
-14.25
-18.54
-22.39
-26.28
-30.65
-35.80
-41.84
-48.60
-55.55
-61.69
-65.71
-66.18
-62.01
-52.93
-39.64
-23.72
-7.14
8.29
21.29
31.29
38.22
42.31
43.87
43.21
40.71
37.02
32.91
29.21
26.55
25.14
24.82
25.05
25.31
25.24
24.78
24.11
23.41
22.78
22.02
20.80
18.74
15.63
11.49
6.56
1.22
-4.16
-9.29
-14.14
-18.80
-23.62
-28.99
-35.25
-42.51
-50.39
-57.97
-63.88
-66.64
-65.08
-58.76
-48.14
-34.48
-19.50
-4.89
7.99
18.31
25.73
30.26
32.15
31.84
29.87
26.87
23.43
20.10
17.20
14.96
13.44
12.63
12.49
12.91
13.72
14.64
15.30
15.29
14.27
12.02
8.57
4.16
-0.86
-6.10
-11.36
-16.55
-21.78
-27.22
-33.10
-39.67
-47.09
-55.26
-63.63
-71.03
-75.86
-76.53
-71.98
-62.21
-48.36
-32.26
-15.91
-0.93
11.74
21.75
29.09
33.86
36.20
36.36
34.81
32.22
29.32
26.70
24.68
23.26
22.28
21.57
21.02
20.66
20.47
20.29
19.79
18.54
16.16
12.56
7.95
2.77
-2.50
-7.52
-12.22
-16.79
-21.57
-27.00
-33.40
-40.89
-49.20
-57.47
-64.37
-68.31
-67.87
-62.28
-51.78
-37.61
-21.65
-5.95
7.87
18.87
26.85
32.07
34.98
36.02
35.54
33.81
31.13
27.82
24.22
20.68
17.47
14.83
12.90
11.80
11.48
11.71
12.10
12.14
11.35
9.44
6.35
2.29
-2.46
-7.59
-12.90
-18.37
-24.13
-30.43
-37.59
-45.73
-54.69
-63.73
-71.61
-76.70
-77.43
-72.77
-62.70
-48.29
-31.46
-14.45
0.82
13.16
22.27
28.46
32.31
34.42
35.15
34.79
33.62
31.95
30.13
28.46
27.11
26.15
25.57
25.33
25.33
25.41
25.28
24.57
22.89
19.98
15.79
10.50
4.47
-1.94
-8.38
-14.71
-20.98
-27.52
-34.72
-42.94
-52.17
-61.82
-70.61
-76.78
-78.54
-74.63
-64.85
-50.18
-32.55
-14.26
2.64
16.79
27.65
35.35
40.29
42.93
43.66
42.85
40.91
38.30
35.54
32.97
30.83
29.16
27.90
26.98
26.30
25.79
25.29
24.52
23.10
20.65
16.93
11.96
6.01
-0.47
-7.06
-13.49
-19.76
-26.18
-33.20
-41.26
-50.52
-60.61
-70.51
-78.57
-82.94
-82.05
-75.13
-62.62
-46.04
-27.63
-9.66
6.09
18.66
27.86
34.07
37.89
39.93
40.68
40.55
39.85
38.80
37.56
36.19
34.68
33.07
31.46
30.05
29.09
28.66
28.58
28.33
27.27
24.82
20.81
15.40
9.09
2.45
-4.15
-10.57
-16.96
-23.63
-30.94
-39.21
-48.56
-58.72
-68.82
-77.43
-82.70
-82.97
-77.21
-65.53
-49.19
-30.28
-11.13
6.34
20.93
32.29
40.64
46.43
50.08
51.94
52.33
51.67
50.47
49.20
48.14
47.31
46.44
45.29
43.73
41.93
40.18
38.70
37.37
35.78
33.29
29.34
23.74
16.75
8.95
0.98
-6.67
-13.87
-20.75
-27.65
-34.94
-42.90
-51.69
-61.18
-70.75
-79.19
-84.83
-85.94
-81.28
-70.69
-55.23
-36.87
-17.92
-0.36
14.56
26.39
35.20
41.34
45.18
47.12
47.61
47.17
46.34
45.55
45.05
44.86
44.82
44.71
44.31
43.52
42.40
41.12
39.82
38.53
36.97
34.64
30.98
25.59
18.52
10.29
1.78
-6.14
-12.98
-18.79
-24.10
-29.70
-36.31
-44.30
-53.58
-63.44
-72.70
-79.73
-82.85
-80.68
-72.64
-59.19
-41.89
-22.90
-4.43
11.93
25.44
36.07
44.14
49.96
53.69
55.41
55.36
53.99
51.97
49.95
48.35
47.25
46.43
45.60
44.49
43.00
41.24
39.42
37.71
36.13
34.49
32.36
29.25
24.81
18.95
12.00
4.58
-2.61
-9.06
-14.58
-19.42
-24.17
-29.56
-36.22
-44.50
-54.19
-64.51
-73.99
-80.76
-82.97
-79.30
-69.49
-54.43
-36.07
-16.79
1.25
16.57
28.64
37.65
44.10
48.47
51.04
51.90
51.21
49.33
46.77
44.17
42.04
40.68
40.08
40.07
40.28
40.42
40.23
39.59
38.40
36.64
34.27
31.25
27.55
23.12
18.00
12.30
6.16
-0.19
-6.59
-12.89
-18.98
-24.80
-30.45
-36.12
-42.16
-48.96
-56.69
-64.96
-72.72
-78.30
-79.87
-76.06
-66.46
-51.83
-33.94
-15.02
2.88
18.24
30.33
39.04
44.58
47.34
47.70
46.05
42.95
39.09
35.25
32.18
30.37
29.87
30.34
31.19
31.85
32.00
31.69
31.14
30.56
29.90
28.80
26.67
23.00
17.63
10.80
3.15
-4.59
-11.81
-18.18
-23.70
-28.56
-33.10
-37.74
-42.95
-49.09
-56.27
-64.09
-71.46
-76.73
-78.12
-74.27
-64.80
-50.45
-32.94
-14.44
3.00
17.89
29.47
37.72
42.98
45.78
46.64
45.93
43.94
41.03
37.67
34.43
31.93
30.57
30.44
31.18
32.22
32.98
33.16
32.78
32.05
31.18
30.13
28.58
26.09
22.31
17.16
10.92
4.10
-2.74
-9.17
-14.98
-20.21
-25.06
-29.87
-34.98
-40.70
-47.31
-54.79
-62.76
-70.27
-75.81
-77.65
-74.32
-65.16
-50.70
-32.58
-13.12
5.34
21.01
32.96
41.03
45.54
47.03
46.05
43.13
38.85
33.87
28.92
24.73
21.84
20.56
20.82
22.23
24.22
26.20
27.76
28.69
29.01
28.74
27.84
26.11
23.26
19.12
13.70
7.31
0.48
-6.23
-12.39
-17.84
-22.74
-27.47
-32.47
-38.13
-44.59
-51.72
-59.05
-65.72
-70.59
-72.34
-69.85
-62.46
-50.33
-34.46
-16.56
1.35
17.45
30.44
39.71
45.21
47.34
46.65
43.80
39.45
34.29
29.02
24.30
20.61
18.20
16.96
16.61
16.74
17.04
17.30
17.43
17.34
16.85
15.65
13.36
9.73
4.73
-1.30
-7.81
-14.17
-19.95
-25.06
-29.80
-34.85
-40.94
-48.52
-57.42
-66.70
-74.71
-79.51
-79.44
-73.58
-62.14
-46.39
-28.30
-10.05
6.53
20.18
30.36
37.02
40.53
41.35
40.10
37.37
33.78
29.88
26.06
22.59
19.57
17.06
15.12
13.79
13.05
12.75
12.57
12.04
10.71
8.28
4.65
-0.02
-5.40
-11.05
-16.67
-22.08
-27.31
-32.64
-38.54
-45.44
-53.61
-62.77
-71.98
-79.65
-83.89
-83.03
-76.20
-63.68
-46.93
-28.16
-9.73
6.43
19.21
28.32
34.05
37.01
37.75
36.75
34.40
31.07
27.26
23.51
20.25
17.75
16.07
15.09
14.63
14.53
14.57
14.49
13.88
12.34
9.53
5.39
0.15
-5.69
-11.63
-17.32
-22.77
-28.30
-34.51
-41.97
-50.95
-61.07
-71.20
-79.51
-83.97
-82.86
-75.42
-62.19
-44.83
-25.68
-7.09
9.15
22.04
31.36
37.36
40.50
41.25
40.08
37.46
33.91
29.98
26.15
22.83
20.24
18.52
17.66
17.54
17.85
18.14
17.91
16.70
14.26
10.59
5.90
0.49
-5.32
-11.34
-17.53
-24.00
-31.03
-38.96
-48.02
-58.05
-68.23
-77.06
-82.57
-82.89
-76.85
-64.54
-47.32
-27.53
-7.74
9.87
24.01
34.31
41.16
45.24
47.21
47.61
46.76
44.92
42.35
39.37
36.35
33.64
31.52
30.07
29.25
28.78
28.25
27.20
25.27
22.24
18.13
13.15
7.56
1.60
-4.68
-11.39
-18.75
-27.11
-36.69
-47.48
-59.04
-70.40
-80.00
-85.91
-86.30
-79.97
-66.92
-48.53
-27.26
-5.98
12.80
27.64
38.26
45.31
49.75
52.43
53.80
54.01
53.17
51.48
49.27
46.94
44.73
42.78
41.08
39.66
38.52
37.62
36.76
35.54
33.42
29.95
24.94
18.55
11.24
3.54
-4.14
-11.68
-19.23
-27.22
-36.16
-46.46
-58.07
-70.25
-81.46
-89.51
-92.24
-88.04
-76.60
-59.05
-37.66
-15.17
5.88
23.81
37.86
48.08
54.98
59.22
61.39
61.98
61.43
60.17
58.63
57.10
55.69
54.28
52.64
50.60
48.26
46.00
44.23
43.21
42.70
42.00
40.18
36.40
30.28
22.07
12.53
2.68
-6.55
-14.59
-21.44
-27.61
-34.03
-41.72
-51.38
-63.05
-75.80
-87.80
-96.61
-99.86
-95.90
-84.38
-66.46
-44.43
-21.14
0.82
19.67
34.64
45.79
53.66
58.97
62.36
64.31
65.23
65.42
65.19
64.72
64.11
63.36
62.36
61.00
59.20
56.99
54.57
52.16
49.88
47.54
44.65
40.53
34.62
26.78
17.37
7.17
-2.90
-12.14
-20.30
-27.64
-34.76
-42.45
-51.38
-61.89
-73.79
-86.20
-97.39
-105.18
-107.34
-102.34
-89.90
-71.21
-48.63
-24.99
-2.85
16.08
31.04
42.07
49.66
54.47
57.14
58.23
58.21
57.50
56.49
55.56
55.05
55.16
55.85
56.80
57.44
57.22
55.85
53.45
50.49
47.48
44.60
41.57
37.78
32.61
25.79
17.69
9.03
0.70
-6.71
-13.07
-18.66
-24.02
-29.71
-36.29
-44.16
-53.50
-64.03
-74.79
-84.11
-89.86
-90.05
-83.50
-70.24
-51.61
-29.89
-7.67
12.75
29.78
42.69
51.45
56.54
58.62
58.43
56.65
53.97
51.03
48.43
46.61
45.73
45.63
45.89
46.03
45.72
44.82
43.47
41.84
40.05
38.00
35.40
31.89
27.17
21.18
14.09
6.39
-1.33
-8.55
-14.96
-20.62
-25.93
-31.55
-38.18
-46.34
-56.11
-66.89
-77.39
-85.69
-89.73
-87.87
-79.43
-64.96
-46.13
-25.20
-4.47
14.18
29.54
41.02
48.49
52.18
52.60
50.49
46.76
42.32
38.00
34.37
31.77
30.29
29.83
30.12
30.81
31.52
31.99
32.08
31.79
31.15
30.14
28.56
26.08
22.28
16.94
10.09
2.17
-6.09
-13.93
-20.81
-26.63
-31.77
-36.97
-43.10
-50.74
-59.84
-69.56
-78.27
-83.90
-84.51
-78.87
-66.92
-49.87
-29.85
-9.33
9.49
25.11
36.86
44.69
48.94
50.09
48.67
45.28
40.66
35.66
31.19
27.89
26.07
25.61
26.02
26.70
27.14
27.10
26.61
25.85
24.85
23.45
21.29
17.94
13.21
7.20
0.31
-6.90
-13.89
-20.28
-25.90
-30.84
-35.48
-40.40
-46.24
-53.43
-61.77
-70.21
-77.02
-80.15
-77.91
-69.60
-55.71
-37.82
-18.20
0.86
17.45
30.41
39.40
44.65
46.77
46.44
44.28
40.81
36.52
31.95
27.70
24.28
21.95
20.69
20.21
20.11
20.05
19.92
19.65
19.13
18.06
15.97
12.40
7.16
0.51
-6.93
-14.34
-21.04
-26.75
-31.68
-36.49
-41.97
-48.78
-57.05
-66.13
-74.53
-80.27
-81.33
-76.34
-65.06
-48.53
-28.82
-8.47
10.23
25.63
36.94
44.08
47.48
47.79
45.80
42.27
37.89
33.23
28.73
24.69
21.35
18.84
17.24
16.49
16.41
16.69
16.92
16.65
15.52
13.24
9.72
5.03
-0.58
-6.76
-13.10
-19.32
-25.32
-31.35
-37.86
-45.43
-54.32
-64.22
-74.01
-81.81
-85.47
-83.20
-74.26
-59.22
-39.94
-18.99
1.02
18.08
31.08
39.76
44.53
46.10
45.24
42.61
38.83
34.40
29.79
25.46
21.71
18.82
16.91
15.97
15.82
16.14
16.50
16.43
15.47
13.35
9.93
5.36
-0.14
-6.25
-12.70
-19.27
-25.90
-32.64
-39.73
-47.48
-56.04
-65.09
-73.64
-80.08
-82.54
-79.47
-70.21
-55.35
-36.63
-16.43
2.83
19.31
31.98
40.70
45.93
48.44
48.98
48.12
46.19
43.37
39.82
35.80
31.66
27.81
24.57
22.08
20.28
18.94
17.75
16.35
14.45
11.77
8.14
3.56
-1.82
-7.74
-13.91
-20.14
-26.46
-33.06
-40.31
-48.55
-57.87
-67.78
-77.08
-83.93
-86.29
-82.54
-72.15
-55.93
-35.97
-14.95
4.54
20.73
32.90
41.22
46.35
49.01
49.71
48.78
46.49
43.16
39.23
35.20
31.51
28.47
26.18
24.60
23.60
22.96
22.33
21.31
19.50
16.60
12.52
7.44
1.70
-4.35
-10.48
-16.65
-23.10
-30.19
-38.36
-47.84
-58.42
-69.23
-78.62
-84.49
-84.81
-78.30
-65.04
-46.50
-25.23
-4.02
14.81
29.89
40.85
48.02
52.03
53.48
52.93
50.83
47.69
44.01
40.26
36.81
33.92
31.71
30.16
29.20
28.63
28.18
27.50
26.21
23.95
20.46
15.60
9.41
2.14
-5.84
-14.04
-22.05
-29.69
-37.10
-44.76
-53.25
-62.88
-73.34
-83.46
-91.28
-94.59
-91.63
-81.72
-65.63
-45.44
-23.86
-3.53
13.69
26.99
36.48
42.80
46.59
48.34
48.41
47.10
44.90
42.38
40.09
38.33
37.11
36.22
35.41
34.57
33.71
32.83
31.81
30.36
28.02
24.44
19.45
13.16
5.91
-1.74
-9.24
-16.14
-22.31
-28.05
-34.07
-41.22
-50.20
-60.99
-72.61
-83.12
-90.12
-91.35
-85.56
-72.82
-54.60
-33.33
-11.68
8.08
24.50
37.02
45.83
51.46
54.59
55.82
55.71
54.67
53.06
51.09
48.92
46.65
44.32
42.05
39.96
38.16
36.66
35.27
33.64
31.32
27.94
23.25
17.24
10.11
2.20
-6.03
-14.13
-21.68
-28.53
-34.81
-41.04
-48.02
-56.47
-66.65
-77.91
-88.62
-96.40
-98.88
-94.40
-82.71
-65.03
-43.74
-21.54
-0.79
17.03
31.31
42.02
49.41
53.73
55.27
54.54
52.30
49.53
47.12
45.65
45.13
45.15
45.10
44.47
43.15
41.42
39.73
38.39
37.31
35.98
33.58
29.45
23.30
15.43
6.60
-2.21
-10.22
-17.11
-23.08
-28.76
-35.00
-42.55
-51.83
-62.64
-74.05
-84.39
-91.54
-93.39
-88.57
-76.81
-59.21
-37.91
-15.56
5.41
23.25
37.10
46.88
52.99
56.10
56.89
56.06
54.26
52.08
50.02
48.39
47.36
46.85
46.65
46.40
45.71
44.34
42.22
39.57
36.76
34.07
31.50
28.69
25.04
20.04
13.54
5.85
-2.32
-10.21
-17.26
-23.27
-28.43
-33.19
-38.15
-43.86
-50.75
-58.86
-67.68
-76.06
-82.26
-84.40
-80.96
-71.36
-56.19
-37.12
-16.50
3.21
20.07
32.98
41.72
46.74
48.81
48.71
47.11
44.57
41.61
38.79
36.67
35.59
35.59
36.32
37.23
37.76
37.56
36.61
35.12
33.37
31.51
29.48
26.96
23.55
18.93
13.04
6.15
-1.19
-8.35
-14.81
-20.33
-25.08
-29.53
-34.41
-40.42
-48.00
-57.07
-66.86
-75.85
-82.04
-83.47
-78.81
-67.78
-51.34
-31.43
-10.49
9.18
25.84
38.47
46.83
51.23
52.33
50.90
47.78
43.75
39.53
35.80
33.01
31.41
30.87
31.00
31.28
31.27
30.84
30.11
29.41
28.87
28.39
27.45
25.45
21.83
16.45
9.63
2.08
-5.33
-11.92
-17.34
-21.73
-25.61
-29.68
-34.68
-41.16
-49.27
-58.54
-67.82
-75.31
-78.98
-77.13
-68.98
-55.03
-37.00
-17.33
1.58
17.89
30.65
39.64
45.08
47.35
46.92
44.32
40.23
35.48
30.86
27.02
24.32
22.85
22.48
22.90
23.73
24.63
25.30
25.57
25.31
24.42
22.71
19.99
16.06
10.90
4.78
-1.79
-8.24
-14.12
-19.32
-24.14
-29.09
-34.83
-41.85
-50.30
-59.76
-69.15
-76.83
-80.94
-79.81
-72.55
-59.42
-41.78
-21.83
-1.98
15.75
30.07
40.49
47.12
50.34
50.58
48.32
44.13
38.78
33.25
28.46
25.04
23.14
22.38
22.12
21.79
21.15
20.30
19.56
19.09
18.79
18.16
16.53
13.43
8.70
2.70
-3.90
-10.36
-16.17
-21.26
-25.91
-30.71
-36.23
-42.88
-50.65
-59.01
-66.78
-72.38
-74.05
-70.43
-61.06
-46.56
-28.67
-9.69
8.07
22.89
33.85
40.83
44.26
44.76
43.03
39.69
35.36
30.62
25.99
21.96
18.88
16.92
16.07
16.15
16.83
17.73
18.43
18.59
17.94
16.32
13.67
9.99
5.43
0.21
-5.32
-10.79
-16.00
-20.95
-25.90
-31.33
-37.71
-45.12
-53.03
-60.25
-65.04
-65.66
-60.90
-50.59
-35.70
-18.12
-0.09
16.37
29.94
40.05
46.72
50.33
51.33
50.14
47.25
43.18
38.57
34.02
30.12
27.27
25.70
25.36
25.98
27.07
28.02
28.23
27.26
25.04
21.79
17.90
13.79
9.67
5.43
0.80
-4.46
-10.52
-17.25
-24.32
-31.27
-37.49
-42.27
-44.79
-44.28
-40.27
-32.86
-22.82
-11.50
-0.44
9.12
16.63
22.26
26.68
30.55
34.11
37.10
38.92
39.10
37.63
35.06
32.29
30.22
29.36
29.66
30.67
31.75
32.38
32.46
32.17
31.86
31.83
32.15
32.67
33.25
33.92
34.82
36.08
37.35
37.70
35.68
29.89
19.61
5.53
-10.27
-24.61
-34.19
-36.65
-31.31
-19.32
-3.16
14.25
30.40
43.79
53.92
60.94
65.07
66.35
64.50
59.37
51.22
41.03
30.34
20.86
13.88
9.83
8.20
7.86
7.56
6.49
4.35
1.26
-2.72
-7.55
-12.98
-18.21
-22.01
-23.22
-21.66
-18.51
-16.16
-17.24
-23.35
-34.32
-48.09
-61.51
-71.48
-75.95
-74.35
-67.34
-56.40
-43.11
-28.77
-14.22
0.05
13.73
26.47
37.81
47.38
55.04
60.97
65.51
68.76
70.30
69.04
63.37
51.53
32.05
4.05
-32.30
-75.49
-122.65
-169.89
-213.00
-248.21
-272.62
-284.60
-283.81
-271.30
-249.51
-222.19
-193.73
-168.29
-148.74
-135.99
-129.15
-126.27
-125.22
-124.38
-122.65
-119.03
-112.42
-101.73
-86.46
-67.18
-45.63
-24.02
-4.48
11.76
24.51
34.28
41.84
47.76
52.27
55.35
57.02
57.43
56.90
55.84
54.60
53.40
52.33
51.42
50.73
50.31
50.14
50.11
49.88
48.96
46.96
43.61
38.94
33.25
26.98
20.54
14.21
7.98
1.62
-5.31
-13.20
-22.18
-31.82
-40.96
-47.86
-50.56
-47.53
-38.35
-23.87
-6.00
12.89
30.70
46.01
58.21
67.25
73.25
76.38
76.83
75.06
71.83
68.13
64.87
62.62
61.42
60.83
60.24
59.17
57.52
55.60
53.92
52.86
52.42
52.14
51.29
49.20
45.52
40.46
34.74
29.31
25.00
22.21
20.75
19.84
18.29
14.93
8.89
0.09
-10.61
-21.47
-30.24
-34.81
-33.84
-27.20
-16.07
-2.64
10.52
21.13
27.80
30.26
29.26
26.17
22.44
19.11
16.59
14.73
13.06
11.17
8.91
6.34
3.62
0.78
-2.23
-5.48
-8.90
-12.24
-15.22
-17.77
-20.28
-23.47
-28.15
-34.73
-42.89
-51.66
-59.86
-66.61
-71.62
-75.27
-78.27
-81.28
-84.71
-88.76
-93.44
-98.57
-103.54
-107.17
-107.92
-104.30
-95.54
-82.02
-65.19
-47.12
-29.77
-14.43
-1.51
9.16
18.00
25.30
31.19
35.70
39.02
41.52
43.67
45.92
48.36
50.79
52.82
54.09
54.50
54.29
53.81
53.20
52.21
50.19
46.34
40.15
31.65
21.48
10.62
0.14
-9.11
-16.67
-22.45
-26.76
-30.26
-33.83
-38.36
-44.33
-51.43
-58.35
-62.83
-62.30
-54.72
-39.35
-17.11
9.72
38.16
65.46
89.59
109.49
124.75
135.36
141.55
143.87
143.32
141.41
139.69
139.34
140.63
142.85
144.58
144.32
141.11
134.91
126.56
117.46
108.97
101.83
95.90
90.15
83.01
72.86
58.60
40.05
18.16
-5.29
-28.21
-48.79
-66.16
-80.64
-93.55
-106.73
-121.86
-139.77
-160.11
-181.30
-200.84
-215.73
-223.14
-220.98
-208.47
-186.45
-157.26
-124.38
-91.53
-61.96
-37.82
-19.95
-8.03
-0.93
2.83
4.81
6.29
8.22
11.07
14.87
19.25
23.70
27.66
30.76
32.88
34.05
34.45
34.20
33.32
31.74
29.34
26.05
21.95
17.26
12.24
7.11
1.83
-3.95
-10.84
-19.38
-29.80
-41.52
-53.13
-62.47
-67.36
-66.15
-58.41
-45.06
-28.08
-9.87
7.41
22.31
34.12
42.72
48.31
51.23
51.91
50.94
48.99
46.70
44.50
42.48
40.41
37.92
34.74
30.85
26.52
22.15
18.07
14.39
10.94
7.37
3.30
-1.37
-6.45
-11.49
-15.95
-19.42
-21.90
-23.86
-26.31
-30.52
-37.60
-48.10
-61.54
-76.32
-89.86
-99.26
-101.93
-96.46
-82.93
-62.92
-39.09
-14.39
8.54
27.92
42.92
53.52
60.22
63.67
64.57
63.59
61.44
58.87
56.55
54.93
54.12
53.92
53.92
53.80
53.41
52.85
52.20
51.40
50.03
47.45
43.14
36.89
29.05
20.34
11.68
3.74
-3.23
-9.45
-15.59
-22.47
-30.86
-41.08
-52.72
-64.45
-74.21
-79.65
-78.87
-71.11
-57.02
-38.47
-17.95
2.11
19.90
34.44
45.46
53.05
57.52
59.24
58.66
56.41
53.18
49.63
46.25
43.21
40.38
37.51
34.43
31.27
28.39
26.18
24.86
24.21
23.62
22.27
19.48
14.97
8.95
1.99
-5.23
-12.21
-18.82
-25.30
-32.22
-40.17
-49.60
-60.43
-71.87
-82.43
-90.15
-92.99
-89.48
-79.18
-62.89
-42.55
-20.64
0.38
18.66
33.23
43.93
51.10
55.27
56.96
56.66
54.85
52.12
49.13
46.46
44.48
43.23
42.48
41.90
41.22
40.33
39.25
37.97
36.35
34.02
30.46
25.22
18.14
9.55
0.24
-8.69
-16.28
-22.06
-26.43
-30.50
-35.83
-43.54
-53.69
-64.80
-74.10
-78.39
-75.17
-63.52
-44.56
-21.02
3.56
25.94
43.73
55.79
62.19
64.09
63.39
62.26
62.41
64.30
66.81
67.44
63.43
53.03
36.48
16.16
-4.28
-21.32
-32.87
-38.93
-41.26
-42.45
-44.85
-49.94
-58.25
-69.54
-83.23
-98.52
-114.53
-130.09
-143.88
-154.71
-161.98
-165.88
-167.30
-167.23
-166.09
-163.36
-157.63
-147.39
-131.68
-110.75
-86.06
-59.87
-34.54
-11.87
7.18
22.50
34.41
43.42
50.07
54.84
58.25
60.84
63.10
65.35
67.64
69.79
71.51
72.59
73.04
73.07
73.00
73.12
73.57
74.21
74.63
74.16
72.07
67.73
60.89
51.76
40.92
29.09
16.79
4.21
-8.80
-22.25
-35.70
-47.88
-56.88
-60.68
-57.87
-48.29
-33.18
-14.78
4.36
22.11
37.17
49.03
57.66
63.16
65.62
65.21
62.42
57.99
52.94
48.17
44.24
41.36
39.39
38.12
37.35
36.91
36.56
35.87
34.28
31.26
26.49
20.04
12.36
4.06
-4.23
-12.13
-19.51
-26.61
-33.91
-42.01
-51.37
-62.05
-73.37
-83.97
-91.87
-94.99
-91.83
-81.97
-66.26
-46.70
-25.82
-6.06
10.77
23.74
32.78
38.41
41.40
42.53
42.45
41.65
40.51
39.32
38.33
37.63
37.20
36.92
36.63
36.29
35.93
35.61
35.26
34.65
33.36
30.96
27.24
22.28
16.49
10.42
4.58
-0.75
-5.65
-10.50
-16.04
-23.01
-31.86
-42.35
-53.25
-62.48
-67.66
-66.82
-59.18
-45.42
-27.41
-7.56
11.90
29.37
43.96
55.34
63.37
68.16
70.06
69.70
67.98
65.77
63.72
62.07
60.68
59.26
57.61
55.68
53.63
51.74
50.25
49.24
48.52
47.74
46.36
43.84
39.84
34.25
27.30
19.43
11.19
3.02
-4.94
-12.85
-21.11
-30.22
-40.52
-51.97
-63.92
-75.05
-83.52
-87.37
-85.14
-76.41
-62.04
-43.97
-24.67
-6.45
9.14
21.49
30.69
37.22
41.48
43.76
44.27
43.37
41.63
39.74
38.35
37.77
37.91
38.28
38.29
37.49
35.82
33.52
31.06
28.79
26.72
24.50
21.52
17.24
11.42
4.26
-3.65
-11.60
-19.00
-25.66
-31.75
-37.81
-44.52
-52.54
-62.19
-73.23
-84.63
-94.57
-100.84
-101.36
-94.89
-81.55
-62.82
-41.14
-19.24
0.55
16.68
28.49
36.00
39.63
39.98
37.68
33.41
27.85
21.72
15.75
10.60
6.74
4.46
3.76
4.47
6.23
8.57
10.89
12.53
12.73
10.83
6.48
-0.15
-8.36
-17.07
-25.16
-31.84
-36.86
-40.65
-44.12
-48.40
-54.40
-62.42
-71.82
-81.02
-87.80
-89.92
-85.87
-75.42
-59.71
-40.85
-21.31
-3.13
12.45
24.95
34.44
41.19
45.48
47.62
48.06
47.48
46.69
46.42
47.03
48.45
50.22
51.79
52.70
52.86
52.41
51.60
50.51
48.93
46.37
42.26
36.26
28.53
19.71
10.73
2.47
-4.58
-10.60
-16.23
-22.44
-30.05
-39.39
-50.07
-60.89
-70.12
-75.78
-76.30
-70.82
-59.63
-43.98
-25.82
-7.28
9.83
24.32
35.63
43.71
48.87
51.54
52.30
51.72
50.43
48.97
47.74
46.89
46.36
45.91
45.27
44.24
42.85
41.29
39.82
38.57
37.43
35.99
33.63
29.75
24.06
16.71
8.28
-0.36
-8.41
-15.34
-21.15
-26.29
-31.49
-37.55
-44.99
-53.81
-63.30
-72.07
-78.24
-79.99
-76.08
-66.27
-51.51
-33.65
-14.94
2.56
17.37
28.80
36.78
41.58
43.65
43.46
41.59
38.70
35.57
32.89
31.16
30.53
30.75
31.39
31.93
32.03
31.61
30.82
29.92
29.09
28.29
27.19
25.32
22.27
17.83
12.21
5.89
-0.52
-6.57
-12.15
-17.51
-23.08
-29.38
-36.81
-45.50
-55.24
-65.30
-74.37
-80.81
-82.97
-79.78
-71.14
-58.08
-42.34
-25.92
-10.46
2.99
13.88
21.90
26.87
28.69
27.55
24.10
19.46
14.90
11.53
9.95
10.17
11.73
14.04
16.60
19.11
21.57
23.93
26.08
27.72
28.37
27.54
24.88
20.32
14.15
6.88
-0.79
-8.18
-14.76
-20.30
-24.97
-29.21
-33.60
-38.43
-43.41
-47.58
-49.49
-47.70
-41.27
-30.21
-15.43
1.50
18.87
35.14
49.25
60.54
68.74
73.86
76.15
76.15
74.53
72.03
69.33
66.89
65.00
63.73
62.99
62.62
62.45
62.35
62.36
62.60
63.15
63.98
64.68
64.61
62.97
59.20
53.18
45.29
36.28
26.86
17.47
8.07
-1.72
-12.42
-24.34
-37.33
-50.59
-62.75
-72.13
-77.05
-76.34
-69.64
-57.55
-41.44
-23.12
-4.37
13.37
29.10
42.19
52.16
58.67
61.45
60.51
56.27
49.54
41.35
32.69
24.21
16.21
8.74
1.84
-4.25
-9.11
-12.39
-14.04
-14.50
-14.62
-15.43
-17.79
-22.15
-28.46
-36.15
-44.29
-51.81
-57.81
-61.77
-63.86
-64.91
-66.09
-68.51
-72.56
-77.61
-82.07
-83.81
-81.04
-72.78
-59.33
-42.09
-23.15
-4.72
11.36
23.96
32.69
37.80
39.94
39.81
37.99
34.67
29.81
23.28
15.09
5.64
-4.30
-13.70
-21.40
-26.27
-27.45
-24.51
-17.67
-7.98
2.78
12.52
19.34
22.21
21.28
17.79
13.57
10.32
8.79
8.54
8.06
5.39
-1.14
-12.16
-26.95
-43.45
-58.73
-69.80
-74.37
-71.51
-61.88
-47.50
-31.20
-15.90
-3.95
3.20
5.08
2.13
-4.59
-13.60
-23.27
-32.15
-39.27
-44.27
-47.44
-49.33
-50.46
-51.03
-50.94
-49.92
-47.81
-44.70
-40.93
-36.94
-33.20
-30.23
-28.55
-28.70
-31.11
-35.93
-42.84
-51.09
-59.62
-67.42
-73.92
-79.16
-83.65
-88.01
-92.38
-96.07
-97.61
-95.13
-87.07
-72.83
-53.15
-30.00
-6.17
15.37
32.21
42.97
47.58
47.12
43.48
38.74
34.68
32.44
32.47
34.56
38.09
42.17
45.90
48.52
49.67
49.43
48.22
46.51
44.48
41.82
37.94
32.34
25.15
17.30
10.40
6.13
5.57
8.65
14.08
19.73
23.31
22.98
17.84
7.98
-5.58
-21.07
-36.08
-47.99
-54.22
-52.92
-43.53
-27.11
-6.26
15.61
35.21
50.29
60.07
65.19
67.00
66.86
65.51
62.94
58.64
52.07
43.08
32.13
20.12
8.12
-2.91
-12.30
-19.64
-24.70
-27.54
-28.41
-27.88
-26.67
-25.49
-24.73
-24.34
-24.00
-23.27
-22.02
-20.50
-19.39
-19.46
-21.21
-24.59
-28.82
-32.55
-34.14
-32.14
-25.71
-14.94
-0.85
15.00
30.93
45.68
58.62
69.69
79.09
87.04
93.65
99.00
103.28
106.69
109.18
110.14
108.35
102.37
91.38
75.96
58.22
41.25
27.83
19.30
14.96
12.60
9.69
4.61
-2.63
-10.75
-18.10
-23.69
-27.58
-30.67
-34.01
-38.12
-42.85
-47.54
-51.40
-53.68
-53.69
-50.59
-43.38
-31.25
-14.08
7.22
30.64
53.69
74.18
91.02
104.26
114.63
122.73
128.50
131.36
130.76
126.91
120.92
114.41
108.65
103.95
99.67
94.86
89.05
82.75
77.27
73.95
73.51
75.61
78.97
81.89
82.69
80.09
73.47
63.00
49.67
34.91
20.14
6.11
-7.49
-21.90
-38.63
-58.43
-80.47
-102.27
-120.33
-131.36
-133.69
-127.90
-116.78
-104.27
-94.21
-89.13
-89.63
-94.45
-101.10
-106.72
-108.85
-106.06
-98.04
-85.60
-70.33
-54.22
-39.19
-26.87
-18.33
-14.10
-14.24
-18.39
-25.88
-35.75
-46.92
-58.38
-69.30
-79.13
-87.62
-94.64
-100.09
-103.96
-106.38
-107.84
-109.20
-111.55
-115.77
-121.99
-129.43
-136.33
-140.58
-140.40
-134.99
-124.80
-111.27
-96.27
-81.39
-67.40
-54.16
-41.01
-27.31
-12.95
1.42
14.56
25.04
31.70
33.99
31.98
26.36
18.26
9.21
0.85
-5.18
-7.59
-5.88
-0.43
7.48
15.93
22.80
26.09
24.23
16.34
2.48
-16.19
-37.44
-58.38
-76.18
-88.75
-95.31
-96.25
-92.62
-85.51
-75.66
-63.49
-49.42
-34.10
-18.49
-3.60
9.73
21.07
30.26
37.30
42.38
45.94
48.81
52.13
57.01
63.98
72.74
82.09
90.46
96.45
99.22
98.61
94.91
88.64
80.42
71.06
61.50
52.76
45.66
40.45
36.73
33.61
30.03
25.14
18.50
10.04
0.01
-11.29
-23.45
-36.02
-48.36
-59.68
-69.01
-75.31
-77.56
-74.96
-67.11
-54.23
-37.29
-17.86
2.11
20.69
36.43
48.60
57.14
62.70
66.16
68.41
70.08
71.46
72.57
73.24
73.27
72.50
70.86
68.38
65.30
62.07
59.21
57.24
56.27
55.90
55.18
52.96
48.40
41.34
32.43
22.86
13.76
5.64
-1.70
-9.05
-17.25
-26.73
-37.28
-48.07
-57.85
-65.26
-69.07
-68.46
-63.07
-53.15
-39.47
-23.27
-6.14
10.22
24.16
34.41
40.30
41.93
40.14
36.30
31.85
27.87
24.80
22.42
20.12
17.35
13.98
10.57
8.39
9.09
14.19
24.52
39.63
57.78
76.18
91.72
101.87
105.21
101.63
92.09
78.09
61.15
42.45
22.59
1.66
-20.49
-43.89
-67.89
-90.94
-110.72
-124.89
-131.90
-131.48
-124.48
-112.13
-95.56
-75.70
-53.81
-32.03
-13.48
-1.36
2.21
-2.77
-14.13
-28.48
-42.57
-54.42
-63.49
-70.06
-74.42
-76.55
-76.25
-73.64
-69.41
-64.76
-60.95
-58.88
-58.90
-60.89
-64.52
-69.50
-75.60
-82.56
-90.01
-97.36
-103.82
-108.47
-110.38
-108.74
-103.11
-93.65
-81.14
-66.80
-51.80
-36.85
-22.09
-7.33
7.47
21.89
34.98
45.76
53.58
58.44
60.89
61.70
61.47
60.52
58.96
56.94
54.80
53.02
52.02
51.98
52.70
53.70
54.42
54.43
53.51
51.65
49.05
45.93
42.55
39.05
35.47
31.80
28.00
24.02
19.88
15.59
11.08
6.19
0.70
-5.51
-12.20
-18.68
-23.80
-26.24
-24.94
-19.45
-10.09
2.10
15.72
29.34
41.80
52.35
60.61
66.47
69.99
71.39
71.01
69.30
66.76
63.79
60.71
57.59
54.37
50.89
47.16
43.31
39.60
36.26
33.38
30.80
28.14
25.02
21.20
16.68
11.67
6.46
1.31
-3.68
-8.59
-13.69
-19.33
-25.76
-33.00
-40.64
-47.79
-53.19
-55.52
-53.72
-47.41
-36.93
-23.41
-8.50
6.05
18.74
28.60
35.36
39.31
41.07
41.24
40.22
38.18
35.22
31.50
27.43
23.59
20.51
18.40
17.17
16.40
15.67
14.71
13.51
12.24
11.11
10.22
9.49
8.68
7.50
5.65
2.91
-0.94
-5.97
-12.07
-18.83
-25.44
-30.73
-33.45
-32.60
-27.89
-19.90
-10.05
-0.12
8.22
13.95
16.80
17.13
15.65
13.09
10.01
6.88
4.03
1.81
0.57
0.62
2.08
4.81
8.40
12.22
15.59
17.95
19.02
18.86
17.75
16.03
13.88
11.28
7.97
3.65
-1.95
-8.87
-16.88
-25.49
-33.89
-40.99
-45.60
-46.63
-43.42
-35.96
-24.96
-11.75
2.08
15.02
25.99
34.47
40.42
44.12
45.97
46.28
45.27
43.05
39.83
35.90
31.67
27.60
24.00
20.93
18.19
15.38
12.11
8.14
3.51
-1.55
-6.66
-11.51
-15.95
-19.97
-23.71
-27.38
-31.29
-35.75
-40.98
-46.90
-52.95
-58.06
-60.89
-60.14
-55.05
-45.73
-33.13
-18.81
-4.48
8.38
18.85
26.57
31.70
34.62
35.79
35.61
34.36
32.25
29.48
26.36
23.27
20.61
18.61
17.34
16.61
16.09
15.49
14.58
13.31
11.66
9.58
6.94
3.62
-0.44
-5.14
-10.35
-16.00
-22.19
-29.09
-36.70
-44.49
-51.31
-55.64
-56.06
-51.76
-42.93
-30.62
-16.46
-2.15
10.91
21.80
30.10
35.75
38.95
40.07
39.61
38.06
35.89
33.43
30.88
28.36
25.99
23.86
22.05
20.64
19.61
18.87
18.20
17.36
16.09
14.21
11.63
8.40
4.69
0.71
-3.40
-7.53
-11.84
-16.56
-22.05
-28.53
-35.96
-43.77
-50.86
-55.83
-57.26
-54.23
-46.63
-35.26
-21.60
-7.35
5.95
17.25
26.00
32.13
35.80
37.39
37.36
36.22
34.47
32.48
30.51
28.69
27.07
25.67
24.54
23.71
23.14
22.79
22.52
22.18
21.55
20.35
18.25
15.01
10.59
5.22
-0.60
-6.26
-11.23
-15.30
-18.70
-22.02
-26.04
-31.39
-38.22
-46.04
-53.69
-59.63
-62.36
-60.91
-55.07
-45.47
-33.23
-19.74
-6.24
6.31
17.17
25.86
32.10
35.81
37.20
36.65
34.70
31.89
28.76
25.70
23.06
21.05
19.73
19.03
18.74
18.63
18.54
18.37
18.11
17.72
17.06
15.93
14.07
11.36
7.84
3.71
-0.73
-5.25
-9.70
-14.15
-18.82
-24.00
-30.06
-37.22
-45.39
-54.05
-62.16
-68.34
-71.23
-69.91
-64.20
-54.64
-42.32
-28.60
-14.74
-1.82
9.41
18.41
24.91
28.89
30.61
30.54
29.31
27.55
25.75
24.21
23.00
22.08
21.36
20.80
20.45
20.34
20.39
20.39
19.99
18.80
16.60
13.36
9.30
4.75
0.01
-4.74
-9.50
-14.42
-19.71
-25.62
-32.33
-39.77
-47.54
-54.76
-60.21
-62.59
-60.88
-54.79
-44.84
-32.31
-18.82
-5.92
5.28
14.20
20.69
24.85
26.93
27.23
26.15
24.14
21.70
19.29
17.23
15.68
14.64
14.03
13.73
13.64
13.62
13.50
13.09
12.14
10.40
7.68
3.91
-0.77
-6.02
-11.41
-16.51
-21.09
-25.26
-29.37
-33.93
-39.17
-44.91
-50.31
-54.12
-54.98
-51.89
-44.55
-33.49
-19.89
-5.30
8.80
21.18
31.07
38.12
42.31
43.89
43.27
41.01
37.71
34.00
30.47
27.58
25.51
24.24
23.47
22.81
21.91
20.55
18.70
16.39
13.73
10.73
7.43
3.91
0.33
-3.15
-6.44
-9.62
-12.98
-16.88
-21.69
-27.57
-34.45
-41.90
-49.21
-55.29
-58.95
-59.08
-55.06
-46.98
-35.72
-22.69
-9.48
2.52
12.34
19.53
24.04
26.09
26.04
24.32
21.37
17.61
13.43
9.20
5.26
1.96
-0.42
-1.76
-2.08
-1.62
-0.77
0.07
0.57
0.53
-0.22
-1.76
-4.21
-7.58
-11.80
-16.63
-21.78
-27.01
-32.35
-38.00
-44.13
-50.51
-56.34
-60.17
-60.35
-55.52
-45.14
-29.70
-10.69
9.87
30.04
48.46
64.60
78.63
90.83
101.02
108.24
110.91
107.38
96.68
79.01
55.81
29.38
2.61
-21.14
-37.94
-43.63
-34.78
-10.39
26.84
70.35
111.37
141.82
156.87
156.17
143.10
122.81
100.25
79.17
62.28
51.78
49.51
56.43
71.92
93.41
117.10
139.29
157.66
171.82
182.85
192.22
200.63
207.41
210.55
207.44
195.80
174.67
144.86
108.90
70.36
33.00
-0.16
-27.36
-48.31
-64.14
-77.01
-89.63
-104.48
-123.12
-145.74
-171.12
-196.96
-220.65
-239.91
-253.32
-260.43
-261.63
-257.77
-249.89
-239.08
-226.48
-213.35
-200.90
-190.10
-181.36
-174.29
-167.80
-160.39
-150.69
-138.00
-122.44
-104.76
-85.87
-66.36
-46.36
-25.71
-4.50
16.64
36.35
52.95
64.99
71.75
73.57
71.70
67.83
63.51
59.75
56.86
54.60
52.46
49.95
46.68
42.41
37.00
30.33
22.49
13.63
4.09
-5.71
-15.49
-25.15
-34.92
-45.24
-56.45
-68.50
-80.58
-91.12
-98.01
-99.31
-93.84
-81.74
-64.49
-44.43
-24.05
-5.28
10.86
24.18
34.94
43.35
49.41
52.88
53.56
51.53
47.30
41.69
35.68
30.12
25.63
22.49
20.62
19.73
19.34
18.91
17.98
16.22
13.48
9.73
4.99
-0.62
-6.94
-13.72
-20.64
-27.49
-34.21
-40.78
-46.96
-52.02
-54.68
-53.43
-47.02
-35.05
-18.24
1.75
22.76
42.71
59.98
73.67
83.49
89.63
92.53
92.66
90.39
85.93
79.45
71.36
62.40
53.59
45.97
40.21
36.39
34.00
32.21
30.25
27.63
24.32
20.58
16.76
13.04
9.39
5.42
0.56
-5.79
-14.23
-25.14
-38.67
-54.44
-71.41
-87.71
-100.79
-107.97
-107.20
-97.88
-81.10
-59.55
-36.59
-15.34
2.03
14.66
22.76
27.14
28.83
28.82
27.98
26.97
26.30
26.31
27.14
28.76
31.04
33.66
36.22
38.12
38.71
37.39
33.79
27.90
20.06
10.92
1.22
-8.32
-17.11
-24.81
-31.41
-37.25
-43.00
-49.45
-57.13
-65.93
-74.89
-82.32
-86.17
-84.67
-76.98
-63.46
-45.55
-25.36
-5.09
13.49
29.22
41.63
50.77
57.05
61.04
63.40
64.72
65.48
65.96
66.20
66.15
65.67
64.70
63.32
61.66
59.86
57.95
55.82
53.27
50.02
45.82
40.51
34.04
26.46
17.97
8.90
-0.38
-9.62
-18.84
-28.41
-38.88
-50.58
-63.13
-75.25
-84.79
-89.36
-87.16
-77.56
-61.46
-40.93
-18.60
3.04
22.19
37.85
49.73
57.97
62.98
65.30
65.57
64.46
62.58
60.42
58.24
56.13
54.11
52.11
50.13
48.13
46.03
43.68
40.85
37.35
33.07
28.02
22.31
16.06
9.35
2.22
-5.38
-13.44
-22.00
-31.15
-41.09
-51.96
-63.59
-75.22
-85.30
-91.71
-92.39
-86.06
-72.80
-54.18
-32.83
-11.60
7.24
22.44
33.85
41.99
47.64
51.46
53.89
55.17
55.51
55.10
54.22
53.06
51.82
50.57
49.32
48.10
46.96
45.93
44.94
43.80
42.08
39.22
34.73
28.44
20.59
11.84
3.03
-5.23
-12.75
-19.96
-27.66
-36.69
-47.42
-59.35
-71.08
-80.45
-85.26
-83.81
-75.51
-61.13
-42.53
-22.18
-2.50
14.72
28.54
38.78
45.78
50.12
52.37
53.12
52.86
52.07
51.14
50.27
49.47
48.64
47.64
46.40
45.01
43.67
42.51
41.48
40.29
38.51
35.63
31.30
25.36
17.98
9.60
0.83
-7.65
-15.36
-22.16
-28.35
-34.63
-41.85
-50.61
-60.93
-71.93
-81.89
-88.64
-90.13
-85.12
-73.57
-56.72
-36.71
-15.95
3.46
20.09
33.29
42.96
49.37
53.02
54.49
54.41
53.41
51.96
50.43
48.97
47.63
46.39
45.20
43.98
42.62
41.01
39.05
36.72
34.07
31.10
27.73
23.77
18.95
13.17
6.57
-0.47
-7.48
-14.10
-20.28
-26.21
-32.36
-39.24
-47.30
-56.72
-67.31
-78.32
-88.37
-95.65
-98.30
-95.08
-85.73
-71.29
-53.73
-35.38
-18.26
-3.64
8.07
17.07
23.86
28.92
32.60
35.06
36.44
36.89
36.71
36.22
35.79
35.71
36.07
36.69
37.13
36.83
35.24
32.11
27.50
21.93
16.08
10.61
5.86
1.68
-2.44
-7.20
-13.30
-21.21
-30.87
-41.42
-51.06
-57.15
-56.99
-48.95
-33.45
-13.20
7.69
25.30
37.51
44.69
49.00
53.03
58.22
64.48
70.54
75.11
77.61
78.36
77.98
76.90
75.19
72.93
70.59
69.19
69.80
72.82
77.54
82.29
85.17
84.96
81.60
76.02
69.46
62.76
55.98
48.63
40.16
30.31
19.31
7.69
-3.94
-15.03
-25.19
-34.15
-41.78
-48.10
-53.29
-57.71
-61.77
-65.83
-70.05
-74.21
-77.65
-79.26
-77.72
-71.94
-61.54
-47.13
-30.19
-12.53
4.33
19.60
33.13
45.06
55.34
63.52
68.84
70.56
68.47
62.94
54.91
45.58
36.13
27.40
19.86
13.61
8.45
4.05
0.08
-3.70
-7.35
-10.84
-14.07
-17.03
-19.78
-22.47
-25.28
-28.29
-31.44
-34.57
-37.46
-40.03
-42.38
-44.83
-47.80
-51.67
-56.68
-62.73
-69.32
-75.54
-80.18
-81.96
-79.91
-73.67
-63.60
-50.78
-36.71
-22.87
-10.49
-0.37
7.17
12.07
14.55
14.94
13.70
11.34
8.44
5.49
2.84
0.75
-0.78
-1.79
-2.49
-3.04
-3.52
-3.92
-4.16
-4.20
-4.14
-4.33
-5.17
-7.14
-10.51
-15.31
-21.25
-27.80
-34.32
-40.17
-44.90
-48.35
-50.81
-52.90
-55.42
-59.05
-63.94
-69.52
-74.47
-77.16
-76.03
-70.17
-59.65
-45.51
-29.39
-13.17
1.57
13.75
22.88
28.95
32.28
33.35
32.77
31.14
28.98
26.67
24.40
22.22
20.09
17.99
15.91
13.92
12.06
10.39
8.89
7.56
6.37
5.24
3.99
2.37
0.06
-3.22
-7.57
-12.81
-18.45
-23.90
-28.68
-32.58
-35.84
-38.98
-42.62
-47.15
-52.53
-58.13
-62.83
-65.25
-64.07
-58.52
-48.53
-34.82
-18.69
-1.77
14.46
28.82
40.58
49.46
55.47
58.92
60.26
60.12
59.19
58.23
57.93
58.80
61.04
64.46
68.43
72.03
74.35
74.69
72.74
68.55
62.30
54.07
43.80
31.27
16.43
-0.48
-18.63
-36.85
-53.86
-68.53
-80.40
-89.51
-96.46
-102.12
-107.23
-112.32
-117.61
-123.09
-128.58
-133.68
-137.74
-139.85
-138.99
-134.31
-125.60
-113.50
-99.38
-84.99
-71.94
-61.32
-53.47
-48.22
-45.09
-43.49
-42.92
-42.85
-42.69
-41.83
-39.70
-35.90
-30.42
-23.54
-15.79
-7.72
0.20
7.71
14.61
20.66
25.60
29.05
30.80
30.85
29.46
27.11
24.20
20.98
17.38
13.09
7.70
1.05
-6.70
-14.80
-22.03
-26.86
-27.90
-24.25
-15.83
-3.42
11.56
27.40
42.42
55.33
65.36
72.19
75.97
77.19
76.52
74.71
72.44
70.18
68.20
66.60
65.45
64.81
64.77
65.35
66.44
67.68
68.47
68.11
65.90
61.38
54.40
45.21
34.37
22.60
10.59
-1.18
-12.56
-23.75
-35.19
-47.30
-60.18
-73.40
-85.82
-95.75
-101.31
-101.00
-94.21
-81.60
-65.04
-47.14
-30.55
-17.28
-8.26
-3.35
-1.71
-2.22
-3.96
-6.29
-8.92
-11.60
-14.14
-16.24
-17.63
-18.07
-17.54
-16.19
-14.36
-12.50
-11.04
-10.36
-10.68
-11.98
-14.14
-16.84
-19.72
-22.32
-24.27
-25.25
-25.38
-25.14
-25.49
-27.55
-32.22
-39.61
-48.68
-57.41
-63.30
-64.22
-59.18
-48.58
-34.01
-17.61
-1.38
13.26
25.49
35.01
41.65
45.36
46.26
44.69
41.30
36.91
32.38
28.31
25.06
22.74
21.28
20.44
19.92
19.29
18.09
15.85
12.25
7.26
1.09
-5.80
-12.94
-20.01
-27.00
-34.26
-42.39
-51.97
-63.18
-75.42
-87.18
-96.29
-100.41
-97.86
-88.11
-72.06
-51.83
-30.11
-9.44
8.27
22.03
31.59
37.33
39.85
39.89
38.12
35.16
31.52
27.66
23.97
20.75
18.34
17.00
16.98
18.29
20.71
23.66
26.30
27.69
27.13
24.28
19.33
12.84
5.53
-2.01
-9.49
-16.99
-24.90
-33.72
-43.83
-55.16
-67.05
-78.05
-86.14
-89.23
-85.70
-75.04
-58.14
-37.09
-14.68
6.37
24.12
37.71
47.30
53.63
57.51
59.45
59.58
57.89
54.60
50.34
46.07
42.79
41.15
41.20
42.43
43.95
44.89
44.62
42.82
39.52
34.97
29.52
23.49
17.09
10.30
2.87
-5.63
-15.63
-27.38
-40.62
-54.43
-67.18
-76.75
-80.96
-78.19
-67.93
-51.08
-29.78
-6.91
14.72
33.05
47.09
56.92
63.32
67.20
69.32
70.16
69.96
68.91
67.28
65.31
63.16
60.83
58.21
55.22
52.00
48.85
46.09
43.87
41.90
39.55
36.03
30.73
23.56
14.98
5.87
-2.91
-10.85
-18.07
-25.25
-33.47
-43.70
-56.42
-71.17
-86.51
-100.04
-109.02
-111.03
-104.76
-90.44
-69.78
-45.58
-20.76
2.18
21.78
37.57
49.78
58.95
65.63
70.27
73.29
75.13
76.18
76.70
76.77
76.13
74.48
71.60
67.64
63.07
58.59
54.77
51.83
49.43
46.76
42.90
37.04
28.87
18.74
7.53
-3.63
-13.75
-22.42
-29.99
-37.40
-45.81
-56.14
-68.47
-81.86
-94.38
-103.54
-106.91
-102.89
-91.20
-73.06
-50.88
-27.47
-5.30
14.00
29.89
42.52
52.37
59.84
65.17
68.52
70.21
70.70
70.56
70.29
70.07
69.76
69.00
67.49
65.14
62.17
59.01
56.07
53.57
51.36
48.97
45.73
41.01
34.54
26.44
17.33
8.03
-0.62
-8.18
-14.65
-20.59
-26.93
-34.66
-44.45
-56.33
-69.48
-82.12
-91.89
-96.37
-93.88
-84.07
-68.03
-48.07
-26.85
-6.74
10.75
25.02
36.11
44.38
50.22
54.02
56.13
57.02
57.16
57.03
56.99
57.17
57.46
57.56
57.15
55.97
54.01
51.46
48.62
45.76
42.97
40.00
36.40
31.62
25.30
17.45
8.56
-0.58
-9.07
-16.27
-22.01
-26.66
-31.09
-36.38
-43.41
-52.59
-63.51
-74.88
-84.72
-90.74
-91.03
-84.65
-71.91
-54.34
-34.24
-14.06
4.21
19.33
30.84
38.88
43.89
46.48
47.27
46.83
45.67
44.19
42.65
41.08
39.37
37.34
34.83
31.89
28.73
25.72
23.18
21.17
19.36
17.09
13.56
8.20
0.89
-7.87
-17.14
-25.87
-33.34
-39.43
-44.74
-50.30
-57.25
-66.34
-77.57
-89.95
-101.65
-110.30
-113.62
-110.09
-99.45
-82.83
-62.34
-40.51
-19.58
-1.11
14.13
25.92
34.40
39.90
42.87
43.97
43.91
43.36
42.79
42.33
41.95
41.52
40.97
40.27
39.45
38.46
37.26
35.88
34.35
32.71
30.88
28.55
25.18
20.28
13.53
5.10
-4.34
-13.85
-22.53
-29.95
-36.29
-42.37
-49.17
-57.40
-67.02
-76.95
-85.33
-89.97
-89.03
-81.67
-68.39
-50.87
-31.47
-12.60
3.91
17.13
26.97
34.01
39.00
42.64
45.45
47.66
49.37
50.60
51.41
51.85
52.02
51.95
51.61
50.92
49.80
48.23
46.31
44.18
42.01
39.84
37.43
34.34
30.06
24.22
16.87
8.48
-0.11
-8.02
-14.66
-20.00
-24.61
-29.46
-35.59
-43.72
-53.92
-65.46
-76.87
-86.17
-91.35
-90.86
-84.10
-71.58
-54.78
-35.75
-16.56
1.14
16.36
28.71
38.25
45.26
50.16
53.33
55.17
55.97
56.02
55.50
54.53
53.17
51.43
49.39
47.19
45.09
43.33
42.09
41.29
40.60
39.48
37.34
33.71
28.40
21.51
13.41
4.70
-3.94
-11.89
-18.74
-24.48
-29.58
-34.82
-41.11
-49.08
-58.80
-69.57
-79.93
-88.01
-91.91
-90.30
-82.82
-70.15
-53.87
-35.95
-18.25
-2.15
11.54
22.56
30.95
37.02
41.18
43.93
45.80
47.23
48.47
49.54
50.34
50.72
50.58
49.91
48.79
47.34
45.71
44.00
42.26
40.41
38.27
35.51
31.79
26.86
20.68
13.47
5.71
-1.97
-8.97
-14.93
-19.88
-24.27
-28.91
-34.77
-42.58
-52.48
-63.71
-74.67
-83.16
-86.97
-84.58
-75.63
-61.04
-42.76
-23.26
-4.80
11.00
23.37
32.28
38.16
41.63
43.28
43.69
43.34
42.71
42.14
41.89
42.06
42.60
43.35
44.22
45.22
46.41
47.85
49.43
50.76
51.30
50.46
47.95
43.86
38.78
33.49
28.68
24.56
20.73
16.30
10.22
1.65
-9.70
-23.37
-38.18
-52.23
-63.30
-69.20
-68.37
-60.39
-46.08
-27.40
-6.85
13.11
30.55
44.21
53.40
57.92
57.98
54.31
48.06
40.71
33.61
27.71
23.30
20.16
17.84
15.94
14.27
12.95
12.17
12.15
13.01
14.69
16.98
19.53
21.78
23.20
23.30
21.85
18.94
14.89
10.22
5.40
0.76
-3.60
-7.89
-12.57
-18.15
-24.97
-32.87
-41.02
-47.98
-52.08
-51.86
-46.66
-36.87
-23.89
-9.69
3.70
14.68
22.40
26.81
28.39
28.00
26.53
24.70
23.03
21.82
21.07
20.62
20.11
19.12
17.32
14.66
11.36
7.88
4.72
2.25
0.53
-0.67
-1.84
-3.54
-6.31
-10.48
-16.05
-22.70
-29.87
-36.91
-43.34
-49.03
-54.21
-59.41
-65.19
-71.88
-79.27
-86.51
-92.13
-94.43
-91.93
-83.96
-70.95
-54.37
-36.31
-18.90
-3.68
8.68
18.17
25.20
30.16
33.24
34.57
34.32
32.91
30.93
29.02
27.61
26.76
26.19
25.49
24.34
22.66
20.70
18.80
17.25
16.00
14.70
12.79
9.75
5.35
-0.24
-6.52
-12.84
-18.64
-23.64
-27.81
-31.43
-34.93
-38.85
-43.82
-50.26
-58.18
-66.86
-74.79
-79.91
-80.27
-74.74
-63.48
-47.94
-30.37
-13.09
2.14
14.37
23.40
29.45
32.93
34.26
33.90
32.40
30.32
28.17
26.28
24.74
23.45
22.16
20.72
19.07
17.36
15.82
14.68
13.96
13.40
12.51
10.72
7.56
2.92
-2.89
-9.25
-15.44
-20.91
-25.50
-29.47
-33.41
-38.07
-44.01
-51.43
-59.90
-68.36
-75.15
-78.45
-76.72
-69.29
-56.66
-40.43
-22.83
-6.08
8.20
19.24
27.00
31.84
34.20
34.51
33.13
30.59
27.57
24.83
22.91
21.98
21.81
21.92
21.90
21.54
20.88
20.14
19.46
18.74
17.59
15.49
12.03
7.10
1.05
-5.49
-11.83
-17.53
-22.55
-27.33
-32.58
-39.04
-47.14
-56.77
-67.15
-76.84
-83.95
-86.60
-83.44
-74.07
-59.29
-40.86
-21.09
-2.25
13.93
26.53
35.36
40.76
43.39
43.90
42.92
41.00
38.61
36.21
34.16
32.70
31.87
31.46
31.11
30.45
29.26
27.59
25.70
23.86
22.08
20.02
17.07
12.61
6.40
-1.24
-9.56
-17.63
-24.76
-30.78
-36.08
-41.46
-47.85
-55.88
-65.52
-75.96
-85.57
-92.28
-94.11
-89.76
-79.13
-63.35
-44.47
-24.86
-6.55
9.10
21.55
30.79
37.12
40.96
42.69
42.79
41.77
40.20
38.62
37.38
36.59
36.10
35.64
34.91
33.79
32.37
30.92
29.72
28.81
27.85
26.21
23.13
18.13
11.20
2.87
-5.96
-14.38
-21.75
-27.91
-33.22
-38.42
-44.40
-51.85
-60.97
-71.15
-80.83
-87.86
-90.01
-85.69
-74.64
-57.98
-37.92
-17.05
2.41
19.04
32.22
41.92
48.37
51.87
52.80
51.69
49.26
46.33
43.65
41.72
40.65
40.22
40.03
39.70
38.97
37.84
36.46
35.01
33.58
32.06
30.20
27.54
23.71
18.45
11.82
4.24
-3.56
-10.80
-16.89
-21.79
-26.06
-30.71
-36.82
-45.09
-55.45
-66.91
-77.71
-85.68
-88.77
-85.62
-75.93
-60.61
-41.49
-20.91
-1.11
16.18
29.95
39.87
46.08
49.04
49.39
47.85
45.27
42.42
40.01
38.47
37.99
38.44
39.45
40.54
41.25
41.26
40.52
39.22
37.68
36.12
34.56
32.61
29.70
25.23
18.92
10.97
2.07
-6.85
-14.97
-21.85
-27.62
-32.78
-38.14
-44.43
-52.18
-61.42
-71.51
-81.14
-88.35
-91.09
-87.70
-77.60
-61.57
-41.62
-20.36
-0.23
17.06
30.77
40.87
47.68
51.50
52.61
51.33
48.27
44.27
40.27
37.05
34.95
33.92
33.59
33.59
33.67
33.77
33.91
34.08
34.09
33.53
31.89
28.68
23.68
17.05
9.31
1.24
-6.35
-12.94
-18.46
-23.34
-28.34
-34.36
-42.05
-51.53
-62.16
-72.49
-80.46
-83.90
-81.11
-71.46
-55.63
-35.46
-13.44
7.89
26.51
41.19
51.51
57.54
59.68
58.52
54.80
49.43
43.45
37.88
33.50
30.67
29.27
28.81
28.69
28.46
27.93
27.20
26.39
25.54
24.43
22.70
19.92
15.87
10.65
4.65
-1.50
-7.15
-11.85
-15.58
-18.72
-22.05
-26.45
-32.67
-40.97
-50.95
-61.37
-70.25
-75.28
-74.40
-66.56
-52.01
-32.46
-10.52
11.11
30.27
45.75
57.22
64.86
69.04
70.08
68.41
64.56
59.36
53.73
48.54
44.42
41.68
40.30
40.00
40.38
40.94
41.28
41.17
40.55
39.57
38.35
36.86
34.75
31.60
27.07
21.24
14.65
8.02
1.94
-3.54
-8.93
-15.14
-23.01
-33.08
-45.36
-59.47
-74.79
-90.35
-104.93
-116.79
-123.95
-124.58
-117.72
-103.73
-84.38
-62.38
-40.57
-21.17
-5.33
6.70
15.25
20.71
23.43
23.80
22.44
20.35
18.64
18.20
19.31
21.59
24.20
26.31
27.41
27.58
27.26
26.93
26.71
26.21
24.68
21.37
15.91
8.55
0.14
-8.20
-15.43
-21.02
-25.04
-28.13
-31.32
-35.67
-41.96
-50.42
-60.37
-70.21
-77.59
-79.96
-75.44
-63.52
-45.31
-23.36
-0.75
19.78
36.56
49.05
57.53
62.57
64.58
63.83
60.70
55.84
50.30
45.22
41.51
39.49
38.85
38.85
38.67
37.82
36.27
34.33
32.39
30.66
28.92
26.59
23.02
17.69
10.53
1.94
-7.29
-16.33
-24.53
-31.67
-37.92
-43.80
-50.02
-57.21
-65.84
-75.94
-86.94
-97.51
-105.55
-108.66
-104.76
-92.93
-73.85
-49.84
-24.17
-0.07
20.16
35.53
46.19
52.86
56.32
57.12
55.68
52.57
48.65
44.86
41.99
40.32
39.64
39.33
38.90
38.17
37.36
36.87
36.84
37.01
36.59
34.67
30.53
24.00
15.56
6.10
-3.39
-12.17
-19.95
-26.98
-33.80
-41.18
-49.72
-59.61
-70.26
-80.19
-87.17
-88.74
-83.03
-69.45
-49.19
-24.83
0.29
23.20
42.01
56.08
65.80
71.91
75.10
75.74
74.17
70.77
66.21
61.22
56.36
51.90
47.79
43.82
39.91
36.23
33.08
30.71
28.98
27.27
24.61
19.97
12.67
2.76
-8.98
-21.28
-32.83
-42.83
-51.27
-58.75
-66.31
-74.90
-85.11
-96.92
-109.59
-121.62
-130.85
-134.80
-131.29
-119.22
-99.12
-73.24
-44.92
-17.70
5.70
23.90
36.80
45.09
49.75
51.58
51.23
49.31
46.55
43.73
41.48
40.16
39.67
39.57
39.36
38.74
37.71
36.47
35.24
33.97
32.28
29.50
25.00
18.40
9.83
-0.09
-10.43
-20.22
-28.82
-36.12
-42.73
-49.71
-58.33
-69.35
-82.60
-96.58
-108.70
-115.94
-115.82
-107.37
-91.33
-69.99
-46.39
-23.37
-2.92
14.02
27.24
36.96
43.39
46.75
47.33
45.73
42.89
39.96
38.11
38.18
40.49
44.78
50.41
56.53
62.41
67.63
72.04
75.68
78.52
80.28
80.39
78.07
72.66
63.93
52.28
38.68
24.47
10.83
-1.54
-12.75
-23.63
-35.37
-49.00
-64.77
-81.83
-98.11
-110.80
-117.05
-114.90
-103.91
-85.34
-61.80
-36.53
-12.53
8.14
24.37
35.99
43.36
47.09
47.94
46.77
44.57
42.26
40.55
39.67
39.46
39.43
39.08
38.17
36.80
35.30
34.00
33.00
32.06
30.59
27.94
23.58
17.36
9.52
0.64
-8.54
-17.39
-25.60
-33.28
-41.00
-49.63
-59.96
-72.27
-85.79
-98.59
-107.82
-110.56
-104.78
-90.15
-68.28
-42.26
-15.71
8.31
27.91
42.53
52.55
58.77
61.89
62.39
60.61
56.97
52.09
46.83
41.98
38.03
35.06
32.71
30.46
27.97
25.31
22.88
21.10
20.04
19.23
17.72
14.45
8.78
0.76
-8.83
-18.78
-27.99
-35.77
-42.19
-47.90
-53.90
-61.15
-70.20
-80.84
-91.87
-101.17
-106.13
-104.36
-94.47
-76.66
-52.71
-25.56
1.59
26.04
46.18
61.53
72.43
79.68
84.11
86.48
87.43
87.50
87.13
86.67
86.27
85.78
84.89
83.24
80.66
77.32
73.59
69.83
66.02
61.56
55.48
46.79
35.04
20.57
4.55
-11.47
-26.01
-38.19
-47.85
-55.55
-62.31
-69.33
-77.63
-87.76
-99.35
-110.99
-120.33
-124.60
-121.42
-109.66
-89.96
-64.55
-36.63
-9.49
14.31
33.26
46.95
55.69
60.17
61.25
59.86
56.96
53.50
50.27
47.81
46.36
45.91
46.24
47.03
47.96
48.71
49.00
48.50
46.82
43.57
38.42
31.27
22.35
12.28
1.87
-8.06
-16.96
-24.77
-31.98
-39.51
-48.40
-59.30
-72.01
-85.17
-96.43
-102.99
-102.59
-94.29
-78.91
-58.82
-37.07
-16.59
0.62
13.64
22.57
28.07
31.15
32.89
34.39
36.53
39.87
44.60
50.53
57.27
64.31
71.12
77.08
81.45
83.41
82.23
77.55
69.45
58.50
45.58
31.64
17.50
3.82
-8.99
-20.74
-31.49
-41.66
-51.93
-63.18
-76.09
-90.64
-105.73
-119.05
-127.52
-128.23
-119.50
-101.57
-76.67
-48.35
-20.36
4.35
24.22
38.97
49.22
55.81
59.54
61.05
60.95
59.90
58.53
57.35
56.47
55.72
54.70
53.15
51.20
49.24
47.73
46.83
46.12
44.72
41.60
36.15
28.39
19.01
9.06
-0.48
-9.10
-16.88
-24.44
-32.68
-42.50
-54.41
-68.29
-83.13
-96.98
-107.24
-111.34
-107.41
-95.07
-75.57
-51.49
-25.84
-1.17
21.12
40.78
58.18
73.62
86.84
97.00
103.24
105.19
103.35
98.83
92.87
86.31
79.38
71.94
63.90
55.60
47.83
41.45
36.86
33.70
30.84
26.84
20.56
11.58
0.45
-11.65
-23.34
-33.64
-42.30
-49.85
-57.46
-66.39
-77.54
-90.90
-105.23
-118.18
-126.68
-127.86
-119.92
-102.87
-78.53
-50.11
-21.23
5.08
26.90
43.63
55.57
63.40
67.80
69.26
68.26
65.36
61.37
57.18
53.65
51.29
50.09
49.63
49.22
48.21
46.27
43.42
39.97
36.28
32.49
28.46
23.80
18.11
11.22
3.38
-4.79
-12.45
-18.91
-23.82
-27.32
-29.92
-32.40
-35.50
-39.79
-45.54
-52.47
-59.72
-65.72
-68.53
-66.30
-57.92
-43.56
-24.75
-4.04
15.79
32.42
44.62
52.24
55.94
56.71
55.49
53.00
49.78
46.31
43.05
40.49
38.93
38.39
38.55
38.86
38.84
38.18
36.98
35.50
34.01
32.50
30.60
27.71
23.19
16.70
8.34
-1.35
-11.46
-21.08
-29.59
-36.82
-43.26
-49.92
-57.96
-68.14
-80.31
-93.08
-103.98
-110.08
-108.84
-99.01
-81.07
-57.09
-30.12
-3.36
20.62
40.19
54.70
64.16
68.93
69.61
66.98
62.13
56.33
50.92
46.93
44.81
44.37
44.92
45.66
46.03
45.80
45.05
43.87
42.11
39.31
34.81
28.12
19.13
8.32
-3.37
-14.87
-25.31
-34.32
-42.14
-49.54
-57.56
-67.14
-78.66
-91.51
-103.94
-113.31
-116.65
-111.70
-97.70
-75.82
-48.97
-20.80
5.30
27.08
43.72
55.53
63.29
67.70
69.23
68.17
65.04
60.70
56.25
52.75
50.73
50.07
50.09
49.94
49.03
47.34
45.21
43.05
40.87
38.21
34.22
28.10
19.51
8.77
-3.22
-15.34
-26.66
-36.68
-45.46
-53.47
-61.54
-70.51
-81.09
-93.49
-107.07
-120.19
-130.30
-134.57
-130.63
-117.49
-95.97
-68.60
-38.94
-10.52
14.01
33.41
47.66
57.56
64.09
68.07
70.03
70.31
69.29
67.47
65.42
63.69
62.51
61.80
61.21
60.32
58.84
56.78
54.39
51.93
49.45
46.60
42.73
37.08
29.19
19.11
7.47
-4.69
-16.28
-26.46
-34.95
-41.94
-48.09
-54.29
-61.42
-70.14
-80.61
-92.25
-103.55
-112.14
-115.35
-110.95
-98.01
-77.33
-51.30
-23.21
3.71
27.08
45.76
59.64
69.29
75.45
78.81
79.89
79.13
76.94
73.78
70.15
66.56
63.40
60.92
59.17
58.03
57.25
56.59
55.89
55.03
53.93
52.47
50.46
47.66
43.78
38.64
32.18
24.50
15.89
6.76
-2.45
-11.42
-19.98
-28.18
-36.24
-44.52
-53.47
-63.56
-75.11
-87.90
-100.92
-112.17
-118.95
-118.65
-109.61
-91.89
-67.40
-39.37
-11.42
13.46
33.53
48.26
58.04
63.67
66.00
65.79
63.68
60.36
56.48
52.72
49.65
47.64
46.80
46.94
47.63
48.37
48.72
48.45
47.49
45.86
43.59
40.59
36.70
31.68
25.34
17.64
8.72
-1.10
-11.33
-21.39
-30.72
-38.97
-46.06
-52.31
-58.27
-64.67
-72.20
-81.29
-91.86
-103.15
-113.57
-120.91
-122.78
-117.35
-104.01
-83.75
-59.01
-32.96
-8.64
11.84
27.58
38.73
45.90
49.72
50.61
48.88
45.04
39.96
34.89
31.07
29.37
29.90
32.04
34.67
36.68
37.40
36.75
35.11
32.97
30.51
27.55
23.56
18.01
10.67
1.83
-7.75
-17.10
-25.34
-31.97
-37.05
-41.14
-45.22
-50.35
-57.37
-66.57
-77.34
-88.08
-96.44
-99.86
-96.36
-85.15
-67.04
-44.17
-19.43
4.33
24.97
41.32
53.09
60.53
64.10
64.34
61.88
57.46
52.02
46.55
41.95
38.78
37.18
36.84
37.16
37.46
37.22
36.23
34.63
32.69
30.63
28.32
25.35
21.07
15.04
7.19
-2.03
-11.76
-21.10
-29.43
-36.68
-43.26
-49.97
-57.67
-67.01
-78.12
-90.38
-102.23
-111.43
-115.42
-112.12
-100.53
-81.25
-56.39
-28.92
-2.01
21.84
41.09
55.27
64.66
70.01
72.24
72.25
70.94
69.09
67.36
66.25
66.06
66.79
68.22
69.95
71.51
72.51
72.66
71.82
69.98
67.12
63.32
58.60
52.99
46.45
38.92
30.33
20.70
10.23
-0.72
-11.70
-22.35
-32.51
-42.22
-51.78
-61.59
-72.12
-83.75
-96.49
-109.66
-121.67
-130.06
-132.10
-125.71
-110.40
-87.69
-60.82
-33.71
-9.76
9.05
22.37
30.99
36.11
38.68
39.24
38.14
35.88
33.26
31.24
30.55
31.36
33.22
35.26
36.59
36.65
35.43
33.34
30.99
28.81
26.85
24.76
21.85
17.42
10.99
2.63
-7.06
-17.10
-26.46
-34.49
-41.11
-46.86
-52.66
-59.47
-67.94
-78.17
-89.48
-100.34
-108.59
-111.77
-107.87
-95.97
-76.74
-52.33
-25.86
-0.43
21.63
39.14
51.94
60.45
65.18
66.51
64.83
60.77
55.30
49.62
44.79
41.44
39.49
38.41
37.41
35.96
33.93
31.56
29.25
27.21
25.27
22.92
19.43
14.16
6.88
-2.21
-12.36
-22.53
-31.70
-39.16
-44.78
-49.04
-52.92
-57.57
-63.99
-72.58
-82.85
-93.32
-101.67
-105.28
-101.96
-90.78
-72.43
-49.17
-24.07
-0.13
20.58
37.16
49.71
58.76
64.90
68.50
69.87
69.42
67.70
65.34
62.84
60.42
58.03
55.50
52.67
49.50
46.13
42.76
39.62
36.83
34.32
31.82
28.89
24.94
19.52
12.45
4.07
-4.90
-13.52
-21.09
-27.46
-33.13
-39.16
-46.72
-56.71
-69.21
-83.23
-96.73
-106.95
-111.06
-107.05
-94.37
-74.25
-49.32
-22.95
1.74
22.56
38.48
49.49
56.08
58.95
58.76
56.16
51.81
46.49
41.01
36.12
32.35
29.94
28.77
28.47
28.50
28.38
27.78
26.61
24.88
22.59
19.58
15.56
10.25
3.51
-4.50
-13.26
-22.02
-29.99
-36.61
-41.75
-45.77
-49.44
-53.75
-59.60
-67.51
-77.24
-87.64
-96.64
-101.59
-99.96
-90.09
-71.94
-47.20
-18.96
9.16
34.16
54.18
68.76
78.34
83.74
85.67
84.66
81.28
76.38
71.06
66.48
63.38
61.83
61.21
60.49
58.70
55.36
50.58
44.97
39.26
33.94
29.01
23.96
18.07
10.76
1.88
-8.13
-18.42
-28.09
-36.53
-43.69
-50.02
-56.36
-63.57
-72.37
-83.02
-95.13
-107.46
-117.91
-123.82
-122.72
-113.10
-95.16
-70.86
-43.46
-16.39
7.65
27.20
41.94
52.14
58.18
60.35
59.04
55.04
49.65
44.44
40.78
39.40
40.13
42.10
44.19
45.49
45.69
44.99
43.90
42.82
41.76
40.23
37.41
32.57
25.39
16.15
5.69
-4.94
-14.82
-23.49
-31.03
-37.95
-44.99
-52.87
-62.10
-72.71
-84.06
-94.69
-102.41
-104.77
-99.79
-86.72
-66.47
-41.47
-14.92
10.07
31.33
47.80
59.38
66.41
69.27
68.33
64.08
57.39
49.47
41.74
35.34
30.87
28.27
26.97
26.27
25.69
25.07
24.53
24.26
24.15
23.76
22.38
19.31
14.24
7.37
-0.66
-9.10
-17.37
-25.27
-32.98
-40.86
-49.27
-58.41
-68.31
-78.66
-88.62
-96.77
-101.08
-99.50
-90.66
-74.56
-52.87
-28.49
-4.71
15.85
31.80
42.98
49.98
53.59
54.38
52.75
49.16
44.37
39.45
35.42
32.97
32.16
32.49
33.24
33.83
34.07
34.08
34.06
33.94
33.21
31.10
26.88
20.30
11.70
1.94
-7.96
-17.26
-25.72
-33.68
-41.82
-51.01
-61.92
-74.75
-88.93
-102.85
-113.93
-119.18
-116.12
-103.61
-82.57
-55.69
-26.71
0.77
24.18
42.35
55.32
63.80
68.70
70.94
71.44
71.28
71.56
73.15
76.39
80.88
85.61
89.43
91.43
91.33
89.44
86.39
82.69
78.35
72.86
65.34
55.06
41.82
26.12
9.10
-7.81
-23.31
-36.65
-47.76
-57.29
-66.33
-76.11
-87.58
-101.02
-115.71
-129.77
-140.37
-144.38
-139.36
-124.46
-100.87
-71.59
-40.54
-11.40
13.27
32.37
46.09
55.24
60.72
63.26
63.36
61.64
58.83
55.87
53.65
52.68
52.99
54.03
54.99
55.20
54.37
52.78
50.95
49.37
48.03
46.31
43.21
37.85
29.92
19.92
9.01
-1.45
-10.47
-17.76
-23.82
-29.68
-36.48
-45.18
-56.24
-69.45
-83.81
-97.41
-107.65
-111.73
-107.45
-94.02
-72.50
-45.64
-17.08
9.65
32.04
48.97
60.47
67.25
70.15
70.02
67.67
64.07
60.33
57.45
56.02
55.98
56.67
57.07
56.33
54.14
50.79
47.03
43.61
40.78
38.21
34.99
30.06
22.70
12.87
1.25
-10.99
-22.74
-33.36
-42.91
-52.07
-61.83
-73.05
-86.11
-100.69
-115.58
-128.74
-137.48
-139.12
-131.73
-114.88
-90.03
-60.24
-29.37
-0.94
22.64
40.41
52.56
59.88
63.18
63.11
60.25
55.32
49.39
43.70
39.33
36.86
36.15
36.47
36.90
36.75
35.83
34.41
32.83
31.13
28.84
25.20
19.57
11.84
2.56
-7.29
-16.78
-25.36
-33.10
-40.62
-48.79
-58.42
-70.00
-83.26
-97.03
-109.09
-116.57
-116.66
-107.56
-89.28
-63.77
-34.41
-4.96
21.47
43.03
59.20
70.27
76.88
79.65
79.21
76.33
72.06
67.55
63.86
61.57
60.65
60.52
60.40
59.64
58.04
55.86
53.59
51.67
50.09
48.36
45.56
40.79
33.60
24.26
13.65
2.95
-6.81
-15.19
-22.46
-29.41
-37.14
-46.65
-58.49
-72.43
-87.18
-100.36
-108.89
-109.83
-101.31
-83.32
-57.88
-28.43
1.19
27.81
49.59
65.92
77.10
83.70
86.23
85.15
80.94
74.37
66.42
58.22
50.66
44.29
39.14
34.88
31.05
27.30
23.63
20.28
17.56
15.48
13.60
11.06
6.88
0.45
-8.08
-17.78
-27.28
-35.37
-41.52
-46.03
-49.99
-54.76
-61.57
-71.16
-83.43
-97.28
-110.53
-120.25
-123.24
-117.12
-101.19
-76.88
-47.42
-16.88
11.08
34.07
51.22
62.76
69.43
71.93
70.86
66.83
60.74
53.84
47.41
42.42
39.22
37.46
36.40
35.27
33.68
31.72
29.82
28.40
27.59
26.96
25.60
22.53
17.06
9.17
-0.47
-10.67
-20.25
-28.41
-35.07
-40.89
-46.96
-54.39
-63.87
-75.33
-87.72
-99.03
-106.63
-107.84
-100.74
-84.92
-61.75
-34.12
-5.70
20.10
40.93
55.82
64.93
69.09
69.32
66.60
61.79
55.73
49.31
43.30
38.26
34.46
31.92
30.48
29.92
29.97
30.27
30.34
29.54
27.18
22.79
16.17
7.59
-2.35
-12.79
-22.86
-31.90
-39.71
-46.69
-53.73
-61.98
-72.36
-84.90
-98.26
-109.83
-116.26
-114.52
-103.10
-82.62
-55.75
-26.34
1.80
25.89
44.60
57.86
66.25
70.49
71.20
68.99
64.67
59.25
53.81
49.24
45.99
43.98
42.81
41.95
40.99
39.77
38.26
36.47
34.23
31.13
26.67
20.39
12.22
2.56
-7.76
-17.78
-26.74
-34.33
-40.80
-46.88
-53.52
-61.65
-71.79
-83.71
-96.14
-106.80
-112.76
-111.37
-101.13
-82.46
-57.60
-30.03
-3.28
19.96
38.30
51.50
59.94
64.19
64.78
62.39
58.02
52.85
48.13
44.74
42.96
42.47
42.56
42.55
42.04
40.98
39.50
37.70
35.38
32.13
27.36
20.62
11.85
1.44
-9.78
-20.79
-30.74
-39.25
-46.58
-53.61
-61.62
-71.73
-84.26
-98.23
-111.19
-119.80
-120.80
-112.19
-94.02
-68.44
-39.00
-9.48
17.09
39.01
55.80
67.73
75.35
79.23
80.03
78.55
75.80
72.79
70.33
68.79
68.05
67.70
67.26
66.45
65.28
63.98
62.73
61.46
59.67
56.56
51.30
43.46
33.26
21.56
9.67
-1.20
-10.30
-17.67
-24.04
-30.65
-38.81
-49.39
-62.42
-76.72
-90.02
-99.34
-101.80
-95.58
-80.54
-58.33
-31.94
-4.76
20.25
41.15
57.09
67.99
74.21
76.28
74.79
70.51
64.46
57.85
51.85
47.33
44.60
43.29
42.52
41.20
38.48
34.14
28.67
23.02
18.06
14.19
11.06
7.83
3.67
-1.81
-8.33
-15.15
-21.56
-27.35
-32.97
-39.39
-47.70
-58.61
-72.13
-87.28
-102.13
-114.02
-120.10
-118.01
-106.73
-87.00
-61.24
-32.96
-5.74
17.64
35.72
48.22
55.63
58.71
58.24
55.02
49.99
44.25
38.92
34.83
32.32
31.22
31.05
31.34
31.80
32.36
32.97
33.37
33.01
31.16
27.13
20.67
12.07
2.17
-7.97
-17.42
-25.67
-32.83
-39.58
-47.00
-56.13
-67.53
-80.78
-94.19
-105.03
-110.12
-106.87
-94.24
-73.26
-46.70
-18.32
8.37
30.90
48.16
60.16
67.55
71.09
71.50
69.42
65.59
60.91
56.25
52.37
49.62
47.93
46.89
46.01
45.00
43.83
42.71
41.84
41.10
39.92
37.35
32.47
24.81
14.62
2.77
-9.45
-20.93
-31.10
-40.09
-48.66
-57.91
-68.85
-81.91
-96.63
-111.33
-123.35
-129.59
-127.44
-115.78
-95.50
-69.37
-41.21
-14.77
7.30
23.79
34.76
41.07
43.77
43.82
42.07
39.37
36.61
34.51
33.49
33.50
34.13
34.83
35.27
35.46
35.71
36.49
38.09
40.34
42.60
43.86
43.04
39.36
32.61
23.29
12.45
1.35
-9.02
-18.34
-27.02
-36.08
-46.61
-59.26
-73.64
-88.11
-100.01
-106.32
-104.54
-93.53
-74.04
-48.43
-20.10
7.59
32.10
52.01
66.98
77.26
83.24
85.28
83.79
79.46
73.34
66.75
60.96
56.72
54.08
52.43
50.83
48.47
45.06
40.92
36.70
32.98
29.94
27.11
23.60
18.42
10.95
1.24
-10.01
-21.62
-32.36
-41.30
-48.15
-53.32
-57.82
-62.99
-70.12
-79.85
-91.78
-104.17
-114.12
-118.31
-114.05
-100.26
-77.96
-50.04
-20.24
7.91
32.04
51.05
64.89
73.90
78.53
79.24
76.76
72.25
67.23
63.09
60.75
60.27
61.00
61.90
62.16
61.42
59.89
58.06
56.33
54.66
52.58
49.27
43.94
36.12
25.89
13.89
1.16
-11.15
-22.18
-31.59
-39.68
-47.29
-55.46
-65.10
-76.57
-89.39
-102.10
-112.42
-117.70
-115.63
-105.03
-86.36
-61.74
-34.39
-7.75
15.40
33.43
45.83
52.85
55.10
53.30
48.30
41.23
33.46
26.38
21.03
17.83
16.50
16.33
16.49
16.48
16.16
15.73
15.42
15.22
14.70
13.11
9.71
3.99
-3.95
-13.43
-23.40
-32.75
-40.67
-46.99
-52.17
-57.20
-63.29
-71.35
-81.49
-92.69
-102.72
-108.64
-107.62
-97.93
-79.59
-54.50
-25.81
2.94
28.79
49.82
65.28
75.27
80.43
81.64
79.96
76.55
72.58
69.03
66.45
64.85
63.83
62.77
61.24
59.05
56.35
53.43
50.48
47.38
43.69
38.77
32.07
23.36
12.98
1.65
-9.68
-20.21
-29.62
-38.20
-46.77
-56.45
-68.29
-82.81
-99.60
-117.07
-132.46
-142.37
-143.61
-134.29
-114.55
-86.81
-55.01
-23.54
4.14
26.12
42.27
53.53
61.23
66.44
69.83
71.80
72.75
73.14
73.41
73.76
74.00
73.62
72.08
69.10
64.85
59.84
54.72
49.86
45.16
40.03
33.67
25.43
15.20
3.54
-8.51
-19.78
-29.41
-37.22
-43.71
-49.96
-57.27
-66.71
-78.64
-92.41
-106.09
-116.85
-121.51
-117.53
-103.96
-81.85
-54.06
-24.40
3.59
27.51
46.47
60.70
70.90
77.68
81.34
82.14
80.58
77.63
74.62
72.81
72.97
75.10
78.57
82.41
85.82
88.48
90.61
92.81
95.66
99.35
103.56
107.44
109.89
109.89
106.82
100.67
91.99
81.62
70.37
58.71
46.61
33.59
18.88
1.63
-18.75
-42.38
-68.61
-95.85
-121.63
-142.90
-156.74
-161.20
-155.90
-142.28
-123.11
-101.52
-80.15
-60.56
-43.38
-28.70
-16.57
-7.18
-0.71
3.04
4.81
5.70
6.80
8.67
11.14
13.55
15.15
15.66
15.36
15.07
15.67
17.67
20.95
24.72
27.80
29.05
27.83
24.13
18.52
11.72
4.20
-4.01
-13.42
-24.72
-38.49
-54.86
-73.28
-92.39
-110.04
-123.50
-129.96
-127.37
-115.15
-94.70
-69.16
-42.48
-18.33
0.92
14.46
22.74
26.70
27.26
25.12
20.94
15.59
10.23
6.03
3.74
3.47
4.66
6.39
7.79
8.28
7.66
5.93
3.10
-0.92
-6.22
-12.86
-20.57
-28.91
-37.28
-45.19
-52.47
-59.36
-66.57
-75.03
-85.57
-98.39
-112.72
-126.58
-137.04
-140.99
-136.07
-121.52
-98.53
-69.94
-39.44
-10.55
14.17
33.42
47.04
55.65
60.21
61.74
61.27
59.75
58.02
56.77
56.36
56.74
57.51
58.08
57.96
56.97
55.24
53.02
50.45
47.31
43.01
36.77
28.05
16.69
3.10
-11.96
-27.58
-43.04
-58.02
-72.75
-87.92
-104.53
-123.43
-144.87
-167.90
-190.23
-208.41
-218.72
-218.28
-206.11
-183.57
-153.98
-121.60
-90.24
-62.23
-38.11
-17.16
1.79
19.57
36.46
52.50
67.85
82.99
98.54
114.69
131.01
146.50
160.17
171.78
182.08
192.48
204.20
217.38
230.75
242.11
249.26
250.99
247.37
239.38
228.03
213.60
195.54
172.86
144.98
112.25
75.99
38.02
0.03
-36.66
-70.94
-101.42
-126.21
-143.07
-150.21
-147.16
-135.27
-117.57
-97.85
-79.47
-64.44
-53.06
-44.37
-37.00
-29.94
-22.99
-16.58
-11.28
-7.35
-4.50
-2.06
0.61
3.84
7.48
11.17
14.61
17.85
21.14
24.72
28.44
31.69
33.51
33.05
29.89
24.21
16.66
8.04
-0.98
-10.11
-19.46
-29.38
-40.38
-52.77
-66.34
-80.08
-92.11
-99.93
-101.15
-94.29
-79.37
-57.98
-32.78
-6.75
17.63
38.75
55.88
68.98
78.29
84.19
87.09
87.40
85.45
81.53
75.87
68.81
60.95
53.20
46.58
42.00
39.79
39.61
40.53
41.29
40.68
37.81
32.24
23.94
13.26
0.88
-12.30
-25.21
-36.99
-47.31
-56.53
-65.66
-75.84
-87.59
-100.18
-111.47
-118.35
-117.82
-108.02
-88.99
-62.76
-32.70
-2.51
24.70
47.00
63.65
74.79
81.06
83.24
82.19
78.79
73.99
68.66
63.53
58.98
55.06
51.50
47.98
44.32
40.64
37.28
34.52
32.30
30.10
27.06
22.29
15.32
6.27
-4.17
-15.08
-25.70
-35.81
-45.74
-56.25
-68.24
-82.26
-98.13
-114.60
-129.33
-139.27
-141.47
-134.01
-116.67
-91.16
-60.66
-28.88
0.88
26.39
46.63
61.53
71.56
77.42
79.90
79.89
78.37
76.28
74.31
72.73
71.36
69.71
67.39
64.31
60.83
57.63
55.28
53.96
53.15
51.77
48.53
42.50
33.46
22.07
9.60
-2.61
-13.67
-23.46
-32.71
-42.62
-54.44
-68.83
-85.36
-102.29
-116.73
-125.32
-125.13
-114.68
-94.48
-66.98
-35.82
-4.84
22.94
45.73
62.97
74.89
82.10
85.29
85.14
82.43
77.99
72.76
67.55
63.00
59.39
56.63
54.40
52.27
49.96
47.40
44.69
41.96
39.10
35.68
31.00
24.44
15.75
5.25
-6.21
-17.54
-27.87
-36.89
-44.90
-52.79
-61.63
-72.36
-85.27
-99.69
-113.83
-124.96
-130.05
-126.59
-113.42
-91.26
-62.55
-30.83
0.25
27.75
49.89
66.00
76.24
81.22
81.81
79.06
74.11
68.15
62.17
56.87
52.56
49.18
46.46
44.14
42.09
40.31
38.84
37.53
36.01
33.68
29.84
24.01
16.15
6.68
-3.63
-13.92
-23.54
-32.26
-40.39
-48.68
-58.14
-69.62
-83.36
-98.49
-112.85
-123.32
-126.70
-120.71
-104.95
-81.07
-52.32
-22.55
4.87
27.69
44.90
56.44
62.84
64.83
63.28
59.14
53.44
47.14
41.04
35.58
31.02
27.39
24.64
22.63
21.17
19.94
18.62
16.79
14.01
9.90
4.23
-2.99
-11.46
-20.57
-29.61
-38.01
-45.57
-52.66
-60.18
-69.22
-80.56
-93.97
-107.91
-119.62
-125.77
-123.53
-111.53
-90.43
-62.78
-32.17
-2.26
24.09
45.21
60.56
70.41
75.45
76.60
74.93
71.55
67.49
63.52
60.11
57.35
55.04
52.95
50.92
48.99
47.31
45.96
44.80
43.25
40.52
35.82
28.77
19.58
9.04
-1.78
-11.95
-21.05
-29.35
-37.66
-47.08
-58.55
-72.33
-87.56
-102.16
-113.02
-116.77
-110.89
-94.58
-69.21
-37.91
-4.70
26.72
53.82
75.41
91.45
102.49
109.31
112.68
113.45
112.56
111.01
109.66
109.09
109.48
110.74
112.70
115.15
117.99
121.03
123.89
125.90
126.18
123.92
118.63
110.39
99.84
88.01
76.01
64.67
54.30
44.59
34.68
23.34
9.36
-7.94
-28.15
-49.38
-68.37
-81.19
-84.42
-76.42
-57.98
-32.26
-3.72
23.20
45.29
61.00
70.31
74.07
73.38
69.23
62.48
53.96
44.55
35.12
26.28
18.36
11.32
4.90
-1.21
-7.11
-12.58
-17.14
-20.21
-21.53
-21.44
-20.92
-21.39
-24.21
-30.16
-39.04
-49.80
-60.89
-70.80
-78.63
-84.32
-88.65
-92.94
-98.59
-106.55
-116.83
-128.20
-138.28
-144.02
-142.54
-132.01
-112.35
-85.32
-54.10
-22.44
6.29
29.71
46.75
57.42
62.48
62.98
59.99
54.53
47.61
40.26
33.46
27.92
23.82
20.79
17.99
14.54
9.93
4.28
-1.74
-7.33
-12.00
-15.88
-19.75
-24.61
-31.20
-39.62
-49.27
-59.06
-67.93
-75.26
-81.23
-86.71
-93.04
-101.47
-112.68
-126.33
-140.85
-153.60
-161.34
-161.07
-150.84
-130.49
-101.80
-68.13
-33.51
-1.60
25.01
45.15
58.79
66.63
69.69
69.18
66.48
63.22
61.04
61.26
64.53
70.60
78.53
87.09
95.15
101.97
107.22
110.83
112.69
112.65
110.49
106.09
99.57
91.34
81.98
72.05
61.74
50.78
38.48
24.03
6.90
-12.84
-34.36
-56.09
-75.94
-91.59
-100.88
-102.29
-95.34
-80.87
-61.07
-38.93
-17.50
0.73
14.37
23.00
26.89
26.51
22.40
15.13
5.53
-5.24
-15.89
-25.27
-32.75
-38.28
-42.30
-45.37
-47.90
-50.07
-51.88
-53.50
-55.27
-57.74
-61.37
-66.23
-71.92
-77.69
-82.76
-86.64
-89.33
-91.28
-93.24
-96.06
-100.40
-106.53
-113.96
-121.25
-125.99
-125.25
-116.39
-98.11
-71.09
-38.01
-2.85
30.19
57.81
78.23
91.14
97.28
97.81
93.91
86.73
77.47
67.42
57.89
49.92
44.03
40.11
37.66
36.04
34.77
33.69
32.72
31.66
29.97
26.85
21.56
13.81
3.98
-6.95
-17.73
-27.41
-35.63
-42.84
-50.09
-58.64
-69.37
-82.22
-95.81
-107.43
-113.58
-111.07
-98.04
-74.89
-44.37
-10.74
21.42
48.56
68.80
81.97
88.93
90.89
88.97
84.14
77.42
69.99
63.01
57.38
53.33
50.46
48.02
45.34
42.20
38.91
36.00
33.78
32.02
29.92
26.41
20.63
12.26
1.70
-10.17
-22.38
-34.18
-45.29
-55.99
-66.96
-79.04
-92.83
-108.26
-124.14
-138.08
-146.81
-147.02
-136.51
-115.13
-85.05
-50.30
-15.58
14.96
38.72
54.88
63.98
67.32
66.30
62.11
55.72
48.01
39.79
31.79
24.54
18.21
12.63
7.51
2.61
-2.13
-6.63
-10.82
-14.89
-19.36
-25.06
-32.75
-42.80
-54.97
-68.45
-82.13
-95.10
-106.96
-118.01
-129.05
-141.16
-155.06
-170.61
-186.28
-199.11
-205.10
-200.40
-182.60
-151.82
-110.93
-64.78
-18.74
22.87
57.55
84.62
104.52
118.07
126.04
129.18
128.60
125.75
122.28
119.47
117.77
116.78
115.49
112.91
108.61
102.91
96.73
91.08
86.48
82.75
78.92
73.77
66.31
56.25
44.17
31.19
18.53
6.93
-3.56
-13.58
-24.24
-36.73
-51.92
-69.95
-89.82
-109.15
-124.38
-131.60
-127.75
-111.75
-85.12
-51.55
-15.76
17.99
46.81
69.49
86.09
97.16
103.31
105.08
103.15
98.58
92.74
87.05
82.56
79.63
77.95
76.81
75.51
73.70
71.49
69.22
67.05
64.73
61.43
56.07
47.81
36.55
23.02
8.54
-5.48
-18.16
-29.41
-39.93
-50.95
-63.81
-79.30
-97.27
-116.11
-132.81
-143.53
-144.59
-133.71
-110.97
-78.96
-42.15
-5.57
26.56
51.63
68.81
78.62
82.26
81.09
76.38
69.33
61.13
52.94
45.73
40.12
36.17
33.56
31.67
29.93
28.00
25.75
23.15
20.07
16.21
11.13
4.51
-3.71
-13.18
-23.22
-33.09
-42.30
-50.90
-59.55
-69.45
-81.80
-97.08
-114.29
-130.67
-142.14
-144.43
-134.67
-112.50
-80.39
-42.82
-4.93
28.96
56.16
75.71
88.00
94.00
94.95
92.00
86.33
78.99
70.94
62.88
55.23
48.16
41.77
36.18
31.68
28.58
26.98
26.62
26.71
26.14
23.75
18.69
10.78
0.48
-11.29
-23.40
-34.93
-45.41
-55.02
-64.64
-75.57
-88.92
-104.81
-121.64
-136.03
-143.59
-140.30
-124.09
-95.70
-58.53
-17.47
22.50
57.60
85.76
106.39
119.85
126.97
128.75
126.39
121.18
114.35
106.82
99.13
91.44
83.77
76.25
69.27
63.41
59.18
56.76
55.81
55.46
54.60
52.21
47.79
41.50
34.05
26.39
19.33
13.22
7.80
2.27
-4.57
-13.89
-26.37
-41.62
-57.77
-71.63
-79.34
-77.60
-64.95
-42.42
-13.42
17.36
45.39
67.47
82.22
89.86
91.41
88.06
80.77
70.41
58.07
45.15
33.23
23.55
16.68
12.23
9.18
6.37
3.09
-0.70
-4.47
-7.71
-10.36
-13.08
-17.09
-23.54
-33.00
-45.19
-59.08
-73.32
-86.79
-98.93
-109.75
-119.84
-130.02
-141.18
-153.82
-167.53
-180.53
-189.63
-190.83
-180.48
-156.74
-120.42
-75.07
-25.90
21.62
63.21
96.50
120.88
137.00
145.99
149.16
147.84
143.51
137.69
131.85
127.00
123.52
121.02
118.54
114.98
109.54
102.02
92.85
82.86
72.84
63.12
53.44
43.04
31.08
17.14
1.47
-14.94
-30.72
-44.69
-56.34
-65.98
-74.71
-83.96
-95.03
-108.59
-124.32
-140.68
-154.89
-163.34
-162.36
-149.47
-124.44
-89.72
-49.96
-10.73
23.12
48.58
64.88
73.00
74.69
71.68
65.26
56.41
46.08
35.33
25.28
16.82
10.40
5.96
3.14
1.43
0.37
-0.51
-1.72
-3.94
-7.93
-14.29
-23.21
-34.32
-46.71
-59.23
-70.85
-81.00
-89.78
-97.99
-106.77
-117.32
-130.16
-144.65
-158.65
-168.84
-171.50
-163.70
-144.45
-115.11
-79.12
-40.91
-4.75
26.35
50.97
69.15
81.84
90.32
95.88
99.58
102.25
104.47
106.56
108.61
110.56
112.36
114.12
116.13
118.80
122.33
126.48
130.34
132.47
131.30
125.65
115.12
100.30
82.41
62.93
43.13
23.70
4.72
-14.32
-34.28
-55.96
-79.45
-103.59
-125.58
-141.35
-146.72
-138.80
-117.41
-85.36
-47.69
-10.07
22.91
48.71
66.83
78.11
83.73
84.66
81.64
75.51
67.43
58.79
50.88
44.41
39.37
35.22
31.32
27.33
23.42
19.97
17.27
15.22
13.12
10.05
5.28
-1.36
-9.46
-18.09
-26.36
-33.80
-40.52
-47.38
-55.58
-66.39
-80.51
-97.59
-115.83
-131.92
-141.72
-141.33
-128.42
-103.23
-68.65
-29.44
9.26
43.26
70.22
89.64
102.26
109.29
111.92
111.15
107.92
103.22
98.06
93.27
89.29
86.09
83.27
80.34
76.96
73.07
68.88
64.56
59.95
54.46
47.18
37.35
24.81
10.37
-4.30
-17.19
-26.61
-31.78
-33.08
-31.91
-30.20
-29.77
-31.67
-35.72
-40.41
-43.21
-41.30
-32.58
-16.58
5.27
29.84
53.36
72.53
85.41
91.59
91.89
87.66
80.29
70.92
60.55
50.18
40.83
33.30
27.99
24.65
22.53
20.72
18.60
16.05
13.39
11.10
9.35
7.79
5.55
1.64
-4.63
-13.23
-23.44
-34.04
-43.80
-51.94
-58.43
-63.98
-69.84
-77.40
-87.60
-100.39
-114.35
-126.67
-133.73
-132.21
-120.16
-97.96
-68.35
-35.73
-4.85
20.56
38.52
48.90
52.76
51.71
47.22
40.51
32.50
24.01
15.75
8.32
2.14
-2.61
-5.88
-7.77
-8.46
-8.25
-7.65
-7.34
-8.06
-10.41
-14.74
-20.95
-28.60
-37.04
-45.58
-53.72
-61.27
-68.45
-75.89
-84.48
-94.86
-106.87
-118.99
-128.27
-130.89
-123.42
-104.18
-74.12
-36.86
2.44
38.59
67.87
88.66
101.26
107.11
107.85
104.89
99.34
92.15
84.34
76.95
70.78
66.32
63.56
62.24
62.00
62.58
63.80
65.37
66.66
66.62
63.97
57.60
47.10
32.94
16.44
-0.79
-17.40
-32.81
-47.31
-61.85
-77.56
-95.11
-114.30
-133.60
-150.30
-161.03
-162.67
-153.47
-133.86
-106.58
-75.95
-46.67
-22.35
-4.85
5.90
11.14
12.50
11.29
8.35
4.23
-0.53
-5.26
-9.14
-11.51
-12.03
-10.71
-7.89
-4.00
0.52
5.20
9.47
12.54
13.51
11.59
6.43
-1.68
-11.81
-22.72
-33.32
-43.08
-52.18
-61.53
-72.37
-85.80
-102.13
-120.41
-138.13
-151.53
-156.52
-150.00
-131.00
-101.28
-64.84
-26.70
8.64
38.16
60.76
76.71
87.02
92.81
95.12
94.88
93.08
90.68
88.38
86.47
84.80
82.97
80.63
77.81
74.95
72.73
71.65
71.56
71.61
70.35
66.30
58.61
47.36
33.56
18.69
4.20
-9.12
-21.25
-32.92
-45.43
-60.19
-78.16
-99.25
-121.66
-141.87
-155.23
-157.42
-145.97
-121.35
-87.00
-48.09
-9.87
23.85
51.39
72.81
89.02
100.89
108.85
113.03
113.73
111.71
108.21
104.54
101.59
99.56
97.96
96.00
93.12
89.35
85.26
81.61
78.71
76.14
72.74
67.05
58.01
45.43
30.13
13.59
-2.57
-17.18
-29.88
-41.11
-51.92
-63.66
-77.49
-93.92
-112.31
-130.48
-144.99
-151.78
-147.45
-130.59
-102.42
-66.66
-28.36
7.58
37.74
60.64
76.47
86.37
91.58
93.14
91.80
88.27
83.31
77.83
72.60
68.19
64.82
62.47
60.98
60.25
60.18
60.55
60.86
60.27
57.66
52.05
43.00
30.93
17.01
2.78
-10.42
-21.99
-32.19
-42.08
-53.07
-66.36
-82.38
-100.19
-117.35
-130.15
-134.59
-127.67
-108.54
-79.05
-43.37
-6.73
26.11
51.93
69.54
79.36
82.66
80.92
75.46
67.42
57.89
47.98
38.73
30.96
25.17
21.48
19.72
19.60
20.76
22.80
25.16
27.04
27.40
25.25
19.89
11.22
-0.18
-13.18
-26.47
-39.00
-50.30
-60.68
-71.11
-82.94
-97.20
-113.93
-131.60
-147.03
-156.01
-154.57
-140.46
-114.10
-78.61
-38.98
-0.46
32.80
58.54
76.30
86.88
91.52
91.44
87.74
81.50
73.94
66.19
59.10
53.01
47.77
42.84
37.79
32.52
27.37
22.90
19.39
16.56
13.53
9.13
2.36
-7.03
-18.47
-30.77
-42.60
-52.97
-61.56
-68.78
-75.68
-83.58
-93.68
-106.36
-120.66
-133.98
-142.50
-142.19
-130.28
-106.35
-72.77
-33.90
5.24
40.45
69.19
90.62
105.06
113.30
116.19
114.68
109.95
103.47
96.73
90.92
86.51
83.27
80.50
77.44
73.75
69.67
65.79
62.73
60.59
58.85
56.37
51.78
44.12
33.15
19.61
4.92
-9.35
-22.03
-32.69
-41.79
-50.52
-60.32
-72.54
-87.72
-105.09
-122.26
-135.54
-140.80
-134.80
-116.47
-87.40
-51.55
-14.00
20.46
48.56
68.82
81.36
87.18
87.55
83.84
77.33
69.35
61.20
53.92
48.12
43.90
40.95
38.83
37.24
36.10
35.47
35.27
35.06
34.04
31.28
25.98
17.88
7.35
-4.75
-17.37
-29.64
-41.24
-52.48
-64.21
-77.55
-93.32
-111.41
-130.31
-147.05
-157.69
-158.48
-147.07
-123.49
-90.27
-51.79
-12.93
22.15
50.89
72.45
87.22
96.25
100.69
101.57
99.83
96.44
92.34
88.34
84.93
82.23
80.06
78.09
76.05
73.79
71.22
68.11
64.10
58.58
50.96
40.97
28.81
15.21
1.28
-11.99
-23.99
-34.83
-45.31
-56.72
-70.30
-86.54
-104.64
-122.21
-135.57
-140.68
-134.37
-115.52
-85.66
-48.63
-9.44
27.14
57.65
80.43
95.37
103.32
105.48
103.08
97.39
89.65
81.09
72.68
65.00
58.24
52.32
47.14
42.76
39.37
37.10
35.74
34.64
32.74
28.94
22.43
13.08
1.41
-11.56
-24.70
-37.16
-48.62
-59.52
-70.90
-84.05
-99.92
-118.27
-137.18
-153.01
-161.28
-158.12
-141.77
-113.48
-77.20
-38.34
-2.11
27.87
50.10
64.90
73.53
77.41
77.53
74.56
68.98
61.47
53.00
44.67
37.54
32.26
28.86
26.84
25.30
23.34
20.30
15.95
10.43
4.05
-2.93
-10.39
-18.52
-27.67
-38.29
-50.90
-65.91
-83.40
-102.65
-121.82
-137.83
-146.97
-145.86
-132.65
-107.85
-74.34
-36.57
0.72
33.73
60.29
79.82
92.81
100.22
102.96
101.79
97.38
90.46
81.95
72.96
64.71
58.25
54.15
52.30
51.87
51.57
50.13
46.69
41.06
33.65
25.16
16.19
6.94
-2.78
-13.48
-25.82
-40.47
-57.85
-77.93
-99.59
-120.42
-136.68
-144.16
-139.46
-121.27
-91.09
-52.94
-12.21
25.86
57.46
80.74
95.71
103.58
106.04
104.70
100.85
95.36
88.81
81.61
74.23
67.16
60.99
56.23
53.14
51.57
50.90
50.22
48.49
44.87
39.00
31.03
21.50
11.09
0.30
-10.71
-22.06
-34.20
-47.72
-63.29
-81.35
-101.54
-122.18
-139.98
-150.63
-149.91
-135.37
-107.57
-70.19
-28.99
10.04
42.43
66.15
81.43
89.82
93.02
92.33
88.52
82.21
74.24
65.80
58.10
52.09
48.15
46.06
45.22
44.91
44.49
43.42
41.22
37.40
31.51
23.40
13.30
1.86
-10.02
-21.54
-32.32
-42.49
-52.75
-64.07
-77.33
-92.73
-109.24
-124.41
-134.60
-136.02
-126.02
-104.23
-72.96
-36.67
-0.63
30.64
54.42
70.05
78.34
80.74
78.63
72.98
64.51
53.98
42.40
31.04
21.10
13.52
8.73
6.50
6.08
6.38
6.18
4.39
0.25
-6.50
-15.63
-26.51
-38.28
-50.10
-61.30
-71.68
-81.51
-91.60
-103.02
-116.68
-132.63
-149.53
-164.38
-173.02
-171.28
-156.43
-128.25
-89.38
-44.60
0.54
41.14
74.04
97.98
113.20
120.86
122.39
119.31
113.18
105.68
98.40
92.58
88.82
86.95
86.24
85.71
84.69
83.04
80.99
78.74
76.10
72.26
66.06
56.49
43.26
27.00
9.06
-8.92
-25.68
-40.58
-53.82
-66.25
-79.11
-93.59
-110.23
-128.26
-145.27
-157.42
-160.32
-150.62
-127.33
-92.49
-50.72
-7.78
31.16
62.78
85.97
101.30
110.02
113.30
111.96
106.66
98.34
88.38
78.50
70.27
64.65
61.70
60.65
60.37
59.82
58.48
56.40
53.98
51.62
49.41
46.89
43.24
37.53
29.07
17.82
4.41
-10.00
-24.05
-36.66
-47.35
-56.37
-64.57
-73.12
-83.21
-95.73
-110.87
-127.73
-144.09
-156.44
-160.77
-153.71
-133.82
-102.27
-62.78
-20.51
19.43
53.23
79.00
96.58
106.85
110.99
110.13
105.28
97.53
88.14
78.41
69.51
62.15
56.35
51.55
46.99
42.10
36.85
31.77
27.65
25.06
23.84
23.06
21.24
16.96
9.46
-1.08
-13.56
-26.46
-38.35
-48.40
-56.64
-63.85
-71.31
-80.39
-92.12
-106.64
-122.82
-138.06
-148.65
-150.58
-140.85
-118.67
-85.92
-46.79
-6.50
30.20
60.15
82.10
96.26
103.58
105.10
101.76
94.58
84.88
74.24
64.25
56.11
50.27
46.58
44.39
42.99
41.93
41.05
40.40
39.91
39.25
37.62
34.02
27.61
18.14
6.16
-7.10
-20.13
-31.77
-41.60
-50.09
-58.41
-67.95
-79.76
-94.07
-109.89
-124.84
-135.53
-138.32
-130.46
-111.20
-82.23
-47.33
-11.26
21.60
48.22
67.35
79.15
84.55
84.71
80.74
73.71
64.81
55.32
46.50
39.33
34.39
31.75
31.01
31.53
32.53
33.30
33.18
31.60
28.09
22.34
14.34
4.48
-6.39
-17.26
-27.22
-35.82
-43.30
-50.55
-58.92
-69.71
-83.59
-99.86
-116.31
-129.26
-134.57
-128.97
-111.33
-83.39
-49.26
-14.16
17.19
41.71
58.48
68.16
72.15
71.86
68.29
62.21
54.32
45.48
36.72
29.02
23.10
19.31
17.57
17.52
18.58
19.99
20.99
20.83
18.86
14.70
8.34
0.18
-9.05
-18.51
-27.54
-35.95
-44.17
-53.23
-64.33
-78.31
-94.85
-112.04
-126.49
-133.98
-130.83
-115.28
-88.24
-53.25
-15.41
20.08
49.35
70.46
83.41
89.38
89.99
86.73
80.87
73.44
65.41
57.63
50.76
45.16
40.93
37.95
36.00
34.79
33.92
32.77
30.57
26.41
19.64
10.02
-2.09
-15.90
-30.44
-44.94
-59.06
-72.91
-86.97
-101.99
-118.56
-136.79
-155.69
-172.85
-184.67
-187.21
-177.54
-155.09
-122.10
-83.14
-43.63
-8.31
19.97
40.45
53.83
61.42
64.50
64.06
60.94
56.03
50.32
44.77
40.15
36.90
35.11
34.65
35.29
36.73
38.61
40.42
41.44
40.78
37.65
31.61
22.83
12.06
0.41
-11.09
-21.87
-32.02
-42.31
-53.89
-67.78
-84.31
-102.50
-119.97
-133.12
-138.07
-131.83
-113.38
-84.18
-47.85
-9.12
27.52
58.88
83.43
101.11
112.71
119.31
121.96
121.68
119.56
116.77
114.37
113.13
113.28
114.56
116.46
118.61
120.96
123.72
127.05
130.64
133.48
134.00
130.57
122.22
108.98
91.95
72.92
53.70
35.51
18.64
2.50
-14.08
-32.17
-51.96
-72.17
-89.89
-101.05
-101.58
-88.89
-62.97
-26.83
14.21
53.90
86.73
109.13
120.01
120.36
112.57
99.51
83.84
67.67
52.41
38.83
27.18
17.36
9.13
2.21
-3.64
-8.55
-12.50
-15.44
-17.40
-18.59
-19.48
-20.79
-23.24
-27.38
-33.36
-40.90
-49.31
-57.83
-65.82
-73.07
-79.95
-87.40
-96.57
-108.20
-121.87
-135.59
-145.78
-148.31
-139.84
-119.22
-88.15
-50.77
-12.38
22.19
49.71
69.01
80.48
85.34
84.95
80.53
73.23
64.22
54.80
46.20
39.30
34.53
31.77
30.55
30.23
30.18
29.81
28.60
25.99
21.50
14.77
5.80
-5.00
-16.75
-28.41
-39.08
-48.30
-56.37
-64.30
-73.48
-85.21
-99.87
-116.33
-131.75
-142.06
-143.08
-131.97
-108.42
-74.98
-36.30
2.20
35.96
62.22
80.25
90.77
95.09
94.50
89.98
82.38
72.61
61.76
50.96
41.22
33.10
26.66
21.50
16.99
12.42
7.20
0.92
-6.78
-16.09
-27.09
-39.70
-53.59
-68.21
-82.95
-97.31
-111.13
-124.69
-138.66
-153.83
-170.51
-187.94
-203.97
-215.09
-217.29
-207.32
-183.81
-148.00
-103.52
-55.47
-9.06
31.61
64.16
87.97
103.68
112.58
116.14
115.80
112.89
108.65
104.07
99.85
96.32
93.49
91.19
89.32
87.89
86.97
86.56
86.33
85.59
83.41
78.89
71.51
61.27
48.76
34.97
20.90
7.26
-5.89
-19.13
-33.57
-50.26
-69.63
-90.72
-110.89
-126.21
-132.41
-126.35
-107.25
-77.21
-40.65
-2.94
31.13
58.48
78.02
90.14
95.94
96.62
93.20
86.73
78.35
69.23
60.41
52.42
45.35
38.92
32.79
26.95
21.78
17.91
15.92
15.92
17.35
19.04
19.56
17.74
13.16
6.23
-1.94
-10.04
-17.12
-22.98
-28.27
-34.33
-42.62
-54.07
-68.49
-84.09
-97.69
-105.33
-103.48
-90.22
-66.08
-33.93
1.81
36.48
66.40
89.55
105.42
114.55
117.96
116.71
111.87
104.61
96.21
87.93
80.70
74.96
70.56
67.05
63.95
61.02
58.39
56.35
55.08
54.33
53.35
51.04
46.35
38.72
28.38
16.35
4.11
-6.98
-16.14
-23.57
-30.26
-37.69
-47.39
-60.27
-76.30
-94.15
-111.14
-123.66
-128.06
-121.77
-104.35
-77.81
-46.16
-14.20
13.87
35.35
49.31
56.11
56.77
52.50
44.49
34.00
22.37
10.94
0.82
-7.28
-13.08
-16.71
-18.47
-18.79
-18.13
-16.94
-15.70
-14.82
-14.68
-15.54
-17.61
-20.96
-25.54
-31.14
-37.53
-44.49
-52.09
-60.82
-71.52
-85.03
-101.47
-119.63
-136.65
-148.55
-151.27
-142.11
-120.78
-89.62
-52.88
-15.47
18.43
46.10
66.51
79.85
87.04
89.20
87.50
83.12
77.20
70.86
65.08
60.58
57.70
56.41
56.35
57.04
58.08
59.14
59.96
60.21
59.42
57.03
52.62
46.09
37.82
28.52
18.95
9.53
0.11
-10.09
-22.24
-37.49
-56.27
-77.66
-99.19
-117.07
-127.14
-126.19
-113.06
-89.16
-58.10
-24.56
7.02
33.46
53.25
66.24
73.15
74.99
72.86
67.88
61.24
54.09
47.41
41.81
37.50
34.29
31.81
29.74
27.93
26.42
25.18
23.97
22.23
19.18
14.05
6.47
-3.41
-14.88
-26.95
-38.66
-49.46
-59.32
-68.79
-78.79
-90.31
-103.86
-118.92
-133.67
-145.10
-149.74
-144.76
-129.03
-103.62
-71.52
-36.74
-3.19
26.17
49.74
67.02
78.31
84.25
85.72
83.86
79.95
75.36
71.26
68.41
67.01
66.79
67.22
67.74
68.07
68.15
68.05
67.67
66.59
64.05
59.21
51.58
41.26
29.02
16.01
3.41
-8.10
-18.45
-28.26
-38.60
-50.62
-65.21
-82.35
-100.82
-118.02
-130.35
-134.25
-127.29
-109.15
-81.81
-48.91
-14.69
17.26
44.59
66.28
82.15
92.44
97.52
98.02
94.91
89.49
83.18
77.15
72.08
68.07
64.87
62.14
59.75
57.77
56.38
55.49
54.59
52.75
48.94
42.46
33.34
22.22
10.24
-1.61
-12.76
-23.23
-33.52
-44.39
-56.65
-70.85
-86.93
-103.84
-119.31
-130.10
-132.82
-125.06
-106.38
-78.64
-45.51
-11.32
20.16
46.52
66.85
81.34
90.64
95.49
96.52
94.35
89.68
83.39
76.42
69.67
63.88
59.48
56.67
55.32
55.06
55.33
55.44
54.56
51.89
46.86
39.28
29.49
18.29
6.70
-4.38
-14.59
-24.25
-34.34
-46.17
-60.83
-78.46
-97.76
-115.87
-128.90
-133.13
-126.17
-107.98
-80.93
-49.03
-16.70
12.42
36.13
53.66
65.21
71.47
73.30
71.68
67.72
62.60
57.33
52.65
48.82
45.86
43.61
41.93
40.78
40.16
39.97
39.84
39.16
37.14
33.04
26.44
17.44
6.61
-5.08
-16.67
-27.45
-37.25
-46.54
-56.33
-67.84
-82.00
-98.63
-116.02
-130.87
-139.02
-136.79
-122.40
-96.73
-63.18
-26.60
8.24
37.91
60.79
76.80
86.67
91.36
91.70
88.59
83.05
76.28
69.48
63.56
58.90
55.43
52.84
50.88
49.48
48.70
48.52
48.54
47.90
45.50
40.32
31.88
20.53
7.36
-6.20
-18.89
-30.11
-40.13
-49.97
-61.09
-74.76
-91.51
-110.50
-129.32
-144.18
-150.88
-146.03
-128.35
-99.34
-62.98
-24.55
10.95
40.06
61.34
75.00
82.13
83.98
81.62
76.06
68.45
60.15
52.46
46.26
41.76
38.53
35.86
33.21
30.48
28.03
26.30
25.36
24.72
23.40
20.34
14.84
6.94
-2.68
-12.95
-22.91
-32.08
-40.63
-49.33
-59.29
-71.53
-86.46
-103.35
-120.03
-133.14
-138.91
-134.34
-118.39
-92.41
-59.90
-25.33
7.13
34.68
56.04
71.27
80.99
85.89
86.61
83.85
78.56
71.96
65.27
59.41
54.74
51.10
48.05
45.24
42.55
40.21
38.47
37.35
36.39
34.70
31.22
25.20
16.55
5.86
-5.70
-16.88
-26.82
-35.37
-43.15
-51.40
-61.53
-74.55
-90.47
-107.85
-123.81
-134.55
-136.42
-127.15
-106.83
-77.95
-44.72
-11.71
17.45
40.79
57.89
69.31
75.82
78.01
76.34
71.46
64.44
56.63
49.35
43.44
39.13
36.11
33.93
32.30
31.18
30.54
30.23
29.63
27.87
24.10
17.82
9.17
-1.15
-12.17
-22.99
-33.09
-42.50
-51.77
-61.90
-73.92
-88.46
-105.07
-121.88
-135.64
-142.48
-139.17
-124.30
-98.98
-66.60
-31.79
1.02
28.74
50.02
64.97
74.42
79.30
80.31
78.01
73.19
66.83
60.13
54.10
49.32
45.84
43.36
41.55
40.20
39.24
38.53
37.64
35.81
32.22
26.25
17.80
7.35
-4.25
-16.13
-27.67
-38.65
-49.26
-60.05
-71.81
-85.31
-100.85
-117.69
-133.69
-145.55
-149.61
-143.08
-125.21
-97.64
-64.05
-28.93
3.62
30.81
51.45
65.56
73.81
77.08
76.29
72.42
66.52
59.69
52.87
46.76
41.60
37.32
33.66
30.38
27.38
24.74
22.46
20.29
17.69
13.89
8.26
0.51
-9.00
-19.54
-30.14
-40.06
-49.01
-57.23
-65.45
-74.73
-85.99
-99.63
-114.95
-129.90
-141.24
-145.31
-139.19
-121.76
-94.22
-59.82
-22.88
12.42
43.03
67.37
85.15
96.92
103.55
105.98
105.13
101.91
97.18
91.73
86.13
80.75
75.74
71.10
66.82
62.98
59.76
57.31
55.58
54.11
51.93
47.95
41.26
31.57
19.43
6.06
-7.08
-18.80
-28.75
-37.45
-46.24
-56.71
-70.07
-86.38
-104.05
-120.00
-130.23
-131.09
-120.49
-98.70
-68.38
-33.69
0.89
31.71
56.66
75.11
87.43
94.42
96.89
95.54
91.10
84.53
76.95
69.54
63.20
58.25
54.39
50.97
47.29
43.06
38.41
33.78
29.57
25.71
21.55
16.07
8.37
-1.97
-14.63
-28.63
-42.68
-55.65
-66.94
-76.70
-85.77
-95.42
-106.90
-120.85
-136.81
-152.88
-165.97
-172.40
-169.04
-154.36
-129.00
-95.70
-58.50
-21.59
11.68
39.37
60.89
76.68
87.68
94.99
99.60
102.30
103.56
103.60
102.45
100.17
97.05
93.66
90.72
88.85
88.24
88.54
88.85
88.01
84.98
79.18
70.67
60.15
48.62
36.95
25.48
13.80
0.88
-14.56
-33.57
-56.57
-83.05
-111.34
-138.75
-161.78
-176.67
-180.37
-171.44
-150.70
-121.25
-87.67
-54.75
-26.35
-4.54
10.38
19.53
24.79
28.12
31.23
35.18
40.28
46.09
51.58
55.63
57.46
56.96
54.82
52.17
50.11
49.22
49.28
49.40
48.30
44.79
38.13
28.29
15.90
2.03
-12.14
-25.73
-38.43
-50.61
-63.25
-77.50
-94.03
-112.30
-130.16
-144.07
-150.01
-144.81
-127.37
-99.12
-63.68
-25.66
10.61
42.12
67.40
86.25
99.10
106.63
109.55
108.75
105.41
100.82
96.14
92.09
88.77
85.83
82.71
79.06
74.87
70.55
66.51
62.90
59.38
55.12
49.14
40.75
29.85
17.02
3.34
-10.03
-22.32
-33.35
-43.68
-54.29
-66.34
-80.62
-97.13
-114.61
-130.50
-141.31
-143.48
-134.69
-114.67
-85.53
-51.16
-15.99
16.27
43.40
64.75
80.64
91.65
98.24
100.70
99.48
95.44
89.78
83.72
78.16
73.35
69.06
64.88
60.56
56.23
52.37
49.38
47.30
45.53
42.93
38.29
30.78
20.38
7.89
-5.25
-17.53
-27.99
-36.47
-43.76
-51.22
-60.39
-72.41
-87.56
-104.76
-121.63
-134.78
-140.65
-136.51
-121.48
-96.88
-65.89
-32.60
-0.87
26.56
48.41
64.49
75.20
80.99
82.32
79.74
74.18
66.99
59.67
53.50
49.12
46.45
44.87
43.66
42.37
41.04
40.07
39.84
40.32
40.89
40.44
37.74
31.90
22.74
10.77
-3.00
-17.47
-31.88
-45.98
-60.08
-74.81
-90.89
-108.72
-127.96
-147.14
-163.62
-174.00
-174.94
-164.35
-142.19
-110.78
-74.14
-36.88
-2.93
25.20
46.59
61.40
70.35
74.18
73.61
69.51
63.05
55.74
49.18
44.70
43.11
44.48
48.32
53.86
60.26
66.81
72.86
77.69
80.44
80.18
76.16
68.11
56.47
42.33
27.14
12.31
-1.25
-13.37
-24.60
-35.97
-48.58
-63.07
-79.24
-95.70
-109.99
-119.05
-120.14
-111.71
-94.08
-69.48
-41.33
-13.30
11.69
31.88
46.69
56.24
60.97
61.38
58.13
52.16
44.68
36.98
30.14
24.70
20.72
17.92
15.96
14.68
14.08
14.20
14.81
15.28
14.65
11.94
6.50
-1.74
-12.29
-24.29
-36.83
-49.18
-60.89
-71.92
-82.59
-93.61
-105.82
-119.79
-135.22
-150.51
-162.84
-168.85
-165.77
-152.43
-129.78
-100.53
-68.24
-36.36
-7.51
16.62
34.95
46.80
51.81
50.11
42.56
30.85
17.20
3.90
-7.24
-15.10
-19.32
-20.06
-17.66
-12.56
-5.23
3.70
13.37
22.70
30.55
35.91
38.15
37.12
33.18
27.19
20.29
13.55
7.60
2.22
-3.75
-12.07
-24.43
-41.59
-62.71
-85.22
-105.36
-119.14
-123.40
-116.70
-99.52
-74.05
-43.48
-11.26
19.58
46.73
68.78
85.06
95.52
100.64
101.30
98.75
94.36
89.42
84.90
81.29
78.62
76.59
74.80
72.89
70.67
67.99
64.67
60.42
54.84
47.54
38.26
27.04
14.24
0.42
-13.85
-28.18
-42.49
-56.90
-71.56
-86.50
-101.34
-115.24
-126.95
-134.92
-137.60
-133.76
-122.94
-105.59
-83.13
-57.56
-31.10
-5.71
17.14
36.50
51.84
62.85
69.40
71.66
70.10
65.64
59.41
52.62
46.30
41.17
37.53
35.28
34.02
33.14
32.01
30.03
26.77
21.98
15.68
8.17
0.00
-8.16
-15.66
-22.09
-27.42
-32.05
-36.68
-42.12
-49.00
-57.55
-67.34
-77.19
-85.26
-89.40
-87.71
-79.09
-63.62
-42.39
-17.19
10.08
37.83
64.89
90.30
113.15
132.47
147.42
157.61
163.31
165.39
165.00
163.23
160.80
158.03
154.84
150.99
146.21
140.40
133.67
126.33
118.78
111.37
104.19
96.99
89.23
80.35
69.98
58.07
44.82
30.47
15.09
-1.50
-19.61
-39.45
-60.77
-82.65
-103.36
-120.62
-132.01
-135.68
-130.94
-118.56
-100.63
-80.02
-59.65
-41.91
-28.32
-19.45
-15.23
-15.19
-18.64
-24.90
-33.40
-43.67
-55.34
-68.00
-81.22
-94.49
-107.43
-119.80
-131.62
-143.10
-154.33
-165.19
-175.25
-183.73
-189.72
-192.30
-190.65
-184.06
-172.02
-154.23
-130.87
-102.77
-71.59
-39.60
-9.30
17.28
39.20
56.90
71.99
86.57
102.39
120.25
139.75
159.53
177.87
193.20
204.50
211.35
213.82
212.30
207.38
199.68
189.92
178.85
167.22
155.69
144.82
134.98
126.34
118.83
112.17
106.06
100.18
94.39
88.55
82.56
76.17
69.11
61.12
52.14
42.41
32.43
22.68
13.45
4.58
-4.49
-14.55
-26.20
-39.54
-53.81
-67.38
-78.04
-83.47
-81.89
-72.67
-56.57
-35.56
-12.32
10.42
30.52
46.65
58.36
65.78
69.42
69.89
67.86
63.99
59.02
53.65
48.53
44.13
40.72
38.30
36.67
35.58
34.76
34.01
33.12
31.80
29.65
26.12
20.78
13.43
4.29
-6.08
-16.86
-27.41
-37.34
-46.75
-56.16
-66.22
-77.40
-89.48
-101.35
-111.03
-116.06
-114.26
-104.46
-86.95
-63.54
-36.98
-10.26
14.09
34.35
49.62
59.65
64.61
65.04
61.81
56.05
49.01
41.76
35.00
28.99
23.68
18.99
14.91
11.68
9.53
8.47
8.17
7.94
6.92
4.38
-0.05
-6.32
-13.93
-22.18
-30.26
-37.48
-43.50
-48.47
-53.14
-58.68
-66.12
-75.75
-86.54
-96.14
-101.54
-100.04
-90.35
-73.13
-50.75
-26.51
-3.59
15.68
30.10
39.39
43.87
44.14
41.05
35.70
29.43
23.58
19.26
16.98
16.62
17.57
19.07
20.52
21.71
22.66
23.44
23.90
23.66
22.20
19.17
14.63
9.00
2.95
-2.90
-8.25
-13.20
-18.20
-23.94
-31.07
-39.89
-50.13
-60.74
-69.95
-75.63
-75.84
-69.47
-56.62
-38.67
-17.85
3.31
22.62
38.57
50.42
58.11
62.01
62.75
61.10
57.89
53.88
49.71
45.82
42.43
39.54
37.05
34.83
32.78
30.83
28.86
26.69
24.02
20.54
16.01
10.44
4.06
-2.71
-9.50
-16.09
-22.57
-29.24
-36.60
-45.09
-54.98
-66.14
-77.95
-89.22
-98.30
-103.40
-103.04
-96.50
-83.94
-66.34
-45.14
-21.76
2.55
26.64
49.23
68.68
83.26
91.71
93.92
91.26
86.42
82.62
82.64
87.96
98.67
113.71
131.42
150.06
167.96
183.64
195.84
203.71
207.12
206.80
204.10
200.60
197.47
195.15
193.34
191.19
187.64
181.68
172.38
158.95
140.93
118.57
93.50
68.98
49.56
39.89
42.95
58.58
83.09
110.15
132.87
145.95
146.89
136.10
115.75
88.61
57.07
23.12
-11.25
-43.81
-72.09
-93.91
-108.08
-114.81
-115.54
-112.54
-108.12
-104.01
-100.98
-98.86
-96.91
-94.35
-90.79
-86.48
-82.13
-78.60
-76.45
-75.75
-76.13
-77.15
-78.53
-80.35
-83.03
-87.08
-92.85
-100.29
-108.76
-116.94
-123.01
-125.01
-121.34
-111.32
-95.51
-75.53
-53.60
-31.92
-12.20
4.48
17.53
26.60
31.54
32.52
30.18
25.68
20.42
15.65
12.07
9.75
8.26
7.07
5.81
4.48
3.29
2.54
2.37
2.65
2.98
2.76
1.38
-1.58
-6.20
-12.14
-18.78
-25.35
-31.33
-36.58
-41.38
-46.23
-51.64
-57.73
-64.16
-70.01
-73.92
-74.35
-69.91
-59.80
-44.09
-23.77
-0.56
23.50
46.66
67.81
86.65
103.40
118.27
130.95
140.27
144.62
142.44
133.16
117.63
98.03
77.22
57.84
41.44
28.42
18.28
10.22
3.72
-1.48
-5.53
-8.78
-11.96
-15.86
-21.09
-27.75
-35.45
-43.44
-51.06
-57.89
-63.86
-69.16
-74.00
-78.38
-82.05
-84.62
-85.72
-85.27
-83.56
-81.21
-78.87
-77.03
-75.69
-74.51
-73.00
-70.80
-67.96
-64.88
-62.11
-60.07
-58.88
-58.29
-57.91
-57.40
-56.65
-55.79
-55.01
-54.42
-53.99
-53.49
-52.75
-51.72
-50.58
-49.64
-49.19
-49.29
-49.80
-50.43
-50.93
-51.20
-51.28
-51.30
-51.38
-51.57
-51.87
-52.30
-52.93
-53.85
-55.03
-56.25
-57.09
-56.98
-55.34
-51.84
-46.42
-39.38
-31.21
-22.53
-13.92
-5.88
1.18
6.94
11.21
13.90
15.13
15.23
14.61
13.73
12.90
12.30
11.93
11.72
11.59
11.46
11.33
11.13
10.77
10.07
8.87
7.04
4.56
1.48
-2.05
-5.87
-9.79
-13.68
-17.40
-20.95
-24.44
-28.05
-32.01
-36.49
-41.37
-46.29
-50.60
-53.56
-54.52
-53.15
-49.45
-43.76
-36.65
-28.75
-20.68
-13.05
-6.27
-0.69
3.53
6.38
8.00
8.63
8.57
8.11
7.61
7.30
7.31
7.59
7.97
8.21
8.16
7.83
7.33
6.79
6.25
5.60
4.68
3.36
1.60
-0.55
-2.94
-5.51
-8.23
-11.10
-14.14
-17.22
-20.25
-23.10
-25.75
-28.29
-30.81
-33.33
-35.64
-37.34
-37.84
-36.60
-33.26
-27.81
-20.52
-11.98
-2.92
5.91
13.82
20.29
25.00
27.83
28.82
28.16
26.14
23.14
19.59
15.95
12.68
10.08
8.22
6.97
6.02
4.99
3.57
1.62
-0.93
-3.97
-7.39
-11.05
-14.85
-18.69
-22.62
-26.76
-31.28
-36.38
-42.13
-48.50
-55.40
-62.78
-70.57
-78.70
-86.89
-94.68
-101.48
-106.59
-109.33
-109.06
-105.26
-97.68
-86.43
-72.20
-56.18
-39.92
-24.88
-12.19
-2.44
4.28
8.22
9.84
9.74
8.60
7.09
5.88
5.40
5.84
7.18
9.20
11.57
13.90
15.80
16.87
16.84
15.51
12.91
9.13
4.39
-1.08
-6.99
-13.05
-19.00
-24.69
-30.11
-35.49
-41.23
-47.78
-55.40
-63.84
-72.07
-78.41
-80.84
-77.71
-68.26
-53.02
-33.62
-12.37
8.40
26.90
42.07
53.48
61.11
65.15
65.96
64.07
60.27
55.47
50.65
46.49
43.34
41.18
39.76
38.78
38.03
37.38
36.70
35.73
34.06
31.13
26.55
20.14
12.12
3.02
-6.47
-15.78
-24.54
-32.75
-40.74
-49.12
-58.53
-69.40
-81.52
-93.84
-104.38
-110.59
-110.08
-101.54
-85.19
-62.87
-37.53
-12.32
10.26
28.79
42.80
52.50
58.30
60.69
60.29
57.87
54.49
51.16
48.66
47.28
46.83
46.83
46.86
46.72
46.43
46.17
45.94
45.42
43.93
40.73
35.27
27.54
18.08
7.81
-2.23
-11.39
-19.54
-27.09
-34.81
-43.59
-54.10
-66.57
-80.55
-94.69
-106.84
-114.37
-114.85
-106.92
-90.74
-68.11
-41.89
-15.21
9.37
30.24
46.80
59.10
67.50
72.43
74.37
73.94
71.90
69.15
66.44
64.32
62.93
62.05
61.29
60.28
58.88
57.25
55.64
54.16
52.56
50.15
46.08
39.67
30.83
20.16
8.68
-2.44
-12.47
-21.23
-29.18
-37.21
-46.28
-57.16
-70.09
-84.55
-99.07
-111.27
-118.28
-117.49
-107.42
-88.40
-62.60
-33.43
-4.56
21.17
42.18
58.15
69.51
76.91
80.89
81.88
80.49
77.56
74.17
71.30
69.48
68.69
68.42
68.01
66.93
65.05
62.64
60.14
57.86
55.70
53.21
49.61
44.21
36.71
27.40
17.07
6.68
-2.94
-11.50
-19.15
-26.51
-34.30
-43.24
-53.86
-66.29
-80.07
-93.89
-105.63
-112.65
-112.52
-103.93
-87.16
-64.18
-38.09
-12.14
11.04
29.92
44.03
53.56
59.03
61.08
60.42
57.95
54.66
51.53
49.20
47.92
47.49
47.48
47.48
47.35
47.17
47.07
47.03
46.70
45.40
42.39
37.19
29.78
20.66
10.70
0.86
-8.18
-16.25
-23.72
-31.45
-40.41
-51.30
-64.13
-77.90
-90.59
-99.52
-102.05
-96.39
-82.31
-61.23
-35.90
-9.57
14.88
35.57
51.68
63.19
70.48
74.01
74.26
71.80
67.43
62.14
56.90
52.42
49.02
46.63
45.01
43.93
43.25
42.93
42.77
42.36
41.03
38.08
33.02
25.86
17.06
7.42
-2.34
-11.75
-20.83
-30.00
-39.91
-51.20
-64.14
-78.32
-92.40
-104.20
-111.00
-110.37
-100.97
-83.11
-58.80
-31.18
-3.65
21.05
41.24
56.37
66.70
72.87
75.60
75.59
73.49
69.97
65.76
61.55
57.93
55.25
53.56
52.68
52.26
52.00
51.66
51.04
49.91
47.88
44.42
39.03
31.50
22.07
11.43
0.49
-9.94
-19.53
-28.52
-37.64
-47.84
-59.80
-73.54
-88.09
-101.53
-111.22
-114.55
-109.68
-96.21
-75.40
-49.85
-22.79
2.77
24.68
41.84
54.11
61.92
65.95
66.93
65.62
62.80
59.28
55.80
52.93
50.96
49.82
49.19
48.71
48.08
47.22
46.19
45.06
43.69
41.65
38.30
33.13
26.02
17.31
7.80
-1.65
-10.44
-18.46
-26.16
-34.34
-43.96
-55.69
-69.55
-84.56
-98.69
-109.09
-112.88
-108.07
-94.21
-72.77
-46.63
-19.28
6.25
27.96
45.06
57.60
65.99
70.71
72.16
70.88
67.59
63.26
58.93
55.40
53.11
51.97
51.57
51.36
50.90
50.00
48.74
47.29
45.76
43.99
41.50
37.71
32.06
24.37
15.00
4.70
-5.50
-14.85
-23.07
-30.57
-38.22
-47.05
-57.73
-70.24
-83.67
-96.24
-105.65
-109.52
-106.08
-94.69
-76.14
-52.56
-26.84
-1.93
19.82
37.09
49.51
57.34
61.17
61.68
59.59
55.72
51.02
46.41
42.62
39.98
38.48
37.79
37.51
37.31
37.00
36.55
35.91
34.94
33.30
30.49
26.05
19.72
11.65
2.42
-7.07
-15.97
-23.82
-30.76
-37.53
-45.12
-54.43
-65.70
-78.31
-90.68
-100.54
-105.48
-103.64
-94.27
-78.08
-57.01
-33.71
-10.89
9.28
25.44
37.00
43.95
46.59
45.53
41.60
35.82
29.32
23.04
17.65
13.37
10.04
7.30
4.76
2.22
-0.30
-2.61
-4.48
-5.88
-7.02
-8.26
-10.01
-12.56
-15.93
-19.91
-24.14
-28.36
-32.50
-36.80
-41.87
-48.46
-57.23
-68.23
-80.59
-92.27
-100.38
-101.92
-94.73
-78.36
-54.31
-25.66
3.83
30.76
52.87
69.24
80.07
86.13
88.30
87.35
83.93
78.75
72.62
66.40
60.83
56.31
52.84
50.11
47.71
45.34
42.95
40.62
38.48
36.43
34.13
31.01
26.52
20.35
12.60
3.85
-5.09
-13.43
-20.83
-27.47
-34.20
-42.13
-52.21
-64.62
-78.36
-91.30
-100.56
-103.34
-97.79
-83.63
-62.30
-36.41
-9.10
16.82
39.39
57.58
71.14
80.35
85.83
88.32
88.71
87.81
86.27
84.40
82.16
79.31
75.57
70.85
65.32
59.37
53.43
47.85
42.66
37.59
32.14
25.72
17.89
8.56
-1.93
-12.89
-23.45
-32.90
-40.93
-47.85
-54.50
-61.98
-71.22
-82.42
-94.70
-106.09
-113.95
-115.59
-109.24
-94.70
-73.44
-48.29
-22.51
1.04
20.58
35.40
45.72
52.09
55.14
55.38
53.44
50.08
46.28
42.96
40.69
39.53
39.04
38.48
37.23
35.02
32.08
28.88
25.90
23.25
20.52
16.99
11.86
4.70
-4.39
-14.70
-25.18
-34.79
-42.80
-49.04
-53.93
-58.46
-63.77
-70.84
-79.83
-89.83
-98.77
-103.96
-102.92
-94.32
-78.45
-57.14
-33.08
-9.04
12.88
31.45
46.15
56.84
63.58
66.54
66.13
63.15
58.70
54.00
50.09
47.52
46.33
46.07
46.12
45.93
45.29
44.27
43.10
41.86
40.35
37.99
34.08
28.07
19.85
9.83
-1.11
-11.94
-21.84
-30.45
-37.96
-45.12
-52.90
-62.23
-73.54
-86.42
-99.47
-110.45
-116.78
-116.28
-107.90
-92.16
-71.05
-47.44
-24.24
-3.75
12.75
24.80
32.51
36.27
36.61
34.29
30.30
25.80
21.80
18.92
17.32
16.72
16.71
16.99
17.47
18.24
19.36
20.62
21.54
21.43
19.66
15.84
10.01
2.60
-5.70
-14.13
-22.15
-29.68
-37.14
-45.35
-55.16
-66.94
-80.15
-93.00
-102.86
-106.84
-102.81
-90.19
-70.26
-45.77
-20.08
3.77
23.77
39.07
49.75
56.34
59.53
59.99
58.45
55.74
52.69
49.98
47.95
46.57
45.57
44.63
43.57
42.46
41.48
40.69
39.96
38.78
36.55
32.74
27.10
19.84
11.47
2.69
-5.91
-14.09
-21.97
-30.03
-38.96
-49.43
-61.72
-75.37
-88.97
-100.23
-106.44
-105.27
-95.65
-78.18
-55.09
-29.49
-4.51
17.56
35.51
49.03
58.36
63.85
65.97
65.28
62.64
59.08
55.57
52.79
50.88
49.59
48.46
47.15
45.56
43.87
42.33
41.00
39.55
37.36
33.64
27.85
19.96
10.46
0.25
-9.75
-19.00
-27.47
-35.65
-44.31
-54.26
-65.95
-79.20
-92.93
-105.11
-113.12
-114.43
-107.47
-92.27
-70.60
-45.41
-19.90
3.40
23.05
38.64
50.32
58.40
63.16
64.93
64.31
62.18
59.51
57.12
55.37
54.20
53.26
52.21
50.92
49.54
48.40
47.74
47.50
47.18
45.96
42.96
37.54
29.64
19.73
8.74
-2.34
-12.74
-22.16
-30.85
-39.50
-48.97
-59.99
-72.75
-86.57
-99.73
-109.79
-114.08
-110.57
-98.61
-79.25
-54.96
-28.90
-4.04
17.52
34.84
47.83
56.91
62.56
65.20
65.24
63.25
60.01
56.41
53.25
50.99
49.69
49.02
48.58
48.04
47.34
46.60
45.95
45.32
44.26
42.08
38.06
31.83
23.51
13.77
3.51
-6.44
-15.68
-24.36
-33.03
-42.45
-53.24
-65.57
-78.89
-91.88
-102.56
-108.70
-108.39
-100.72
-86.09
-66.26
-43.91
-21.92
-2.71
12.20
22.27
27.77
29.34
27.78
23.79
17.89
10.56
2.22
-6.68
-15.63
-24.17
-31.96
-38.82
-44.77
-50.05
-55.07
-60.40
-66.66
-74.43
-84.14
-95.91
-109.54
-124.45
-139.85
-154.86
-168.75
-181.08
-191.75
-200.81
-208.17
-213.26
-214.89
-211.43
-201.28
-183.58
-158.65
-128.02
-94.02
-59.08
-25.10
6.81
36.26
63.25
87.82
109.94
129.54
146.56
161.03
172.98
182.40
189.07
192.62
192.61
188.68
180.78
169.30
155.02
138.91
121.91
104.71
87.64
70.86
54.43
38.56
23.68
10.43
-0.52
-8.61
-13.63
-15.92
-16.44
-16.71
-18.43
-22.93
-30.64
-40.80
-51.57
-60.51
-65.23
-64.08
-56.59
-43.45
-26.33
-7.39
11.24
27.82
41.24
51.01
57.17
60.12
60.60
59.53
57.84
56.29
55.25
54.56
53.69
51.98
49.04
45.03
40.59
36.59
33.68
32.02
31.16
30.31
28.64
25.51
20.64
14.07
6.04
-3.03
-12.66
-22.29
-31.44
-39.79
-47.19
-53.55
-58.61
-61.72
-61.87
-57.98
-49.40
-36.31
-19.83
-1.73
16.14
32.30
46.04
57.18
65.96
72.57
77.15
79.77
80.67
80.32
79.31
78.18
77.22
76.41
75.54
74.38
72.92
71.35
69.93
68.81
67.84
66.51
64.17
60.30
54.68
47.55
39.49
31.16
23.09
15.52
8.37
1.30
-6.11
-14.34
-23.63
-33.86
-44.35
-53.80
-60.56
-63.04
-60.26
-52.19
-39.78
-24.67
-8.63
6.80
20.62
32.31
41.67
48.68
53.43
56.15
57.16
56.87
55.74
54.17
52.44
50.70
49.08
47.58
46.21
44.98
43.81
42.60
41.12
39.09
36.18
32.12
26.81
20.39
13.24
5.89
-1.21
-7.87
-14.30
-21.05
-28.80
-37.94
-48.24
-58.70
-67.68
-73.33
-74.21
-69.69
-60.17
-46.88
-31.52
-15.73
-0.86
12.20
22.97
31.28
37.18
40.86
42.65
43.02
42.43
41.34
40.08
38.85
37.71
36.66
35.67
34.78
34.05
33.52
33.09
32.51
31.38
29.27
25.86
21.08
15.08
8.26
1.06
-6.15
-13.20
-20.17
-27.40
-35.34
-44.32
-54.30
-64.62
-74.03
-80.89
-83.61
-81.15
-73.35
-60.97
-45.49
-28.70
-12.28
2.50
14.90
24.72
32.05
37.21
40.55
42.39
43.05
42.84
42.05
40.95
39.76
38.57
37.38
36.21
35.07
34.01
33.08
32.20
31.16
29.61
27.14
23.48
18.59
12.70
6.26
-0.25
-6.46
-12.31
-18.04
-24.18
-31.33
-39.79
-49.34
-59.05
-67.43
-72.76
-73.68
-69.58
-60.84
-48.63
-34.52
-19.99
-6.18
6.20
16.77
25.37
31.95
36.61
39.60
41.26
41.90
41.83
41.24
40.32
39.23
38.12
37.08
36.13
35.22
34.27
33.27
32.16
30.84
29.06
26.51
22.88
18.10
12.35
6.05
-0.25
-6.17
-11.60
-16.76
-22.17
-28.40
-35.91
-44.73
-54.38
-63.78
-71.47
-75.94
-76.12
-71.65
-63.00
-51.30
-37.93
-24.15
-10.92
1.19
11.84
20.80
27.97
33.31
36.98
39.28
40.56
41.16
41.31
41.13
40.74
40.20
39.56
38.84
38.00
36.95
35.65
34.12
32.40
30.45
28.10
25.08
21.10
16.03
10.03
3.52
-2.98
-9.04
-14.51
-19.51
-24.34
-29.39
-34.98
-41.32
-48.46
-56.13
-63.69
-70.14
-74.22
-74.75
-71.01
-63.06
-51.69
-38.21
-24.05
-10.38
2.06
12.91
22.01
29.30
34.73
38.34
40.35
41.15
41.28
41.22
41.34
41.77
42.49
43.31
44.09
44.73
45.25
45.76
46.36
47.06
47.67
47.90
47.44
46.10
43.94
41.19
38.17
35.11
32.10
29.13
26.13
23.04
19.78
16.15
11.90
6.87
1.17
-4.60
-9.42
-12.14
-11.92
-8.55
-2.61
4.80
12.43
19.33
25.05
29.59
33.08
35.62
37.11
37.32
36.14
33.69
30.44
26.96
23.81
21.22
19.04
16.94
14.53
11.62
8.29
4.83
1.52
-1.55
-4.55
-7.89
-12.01
-17.18
-23.38
-30.33
-37.61
-44.84
-51.80
-58.51
-65.16
-72.07
-79.52
-87.61
-96.17
-104.57
-111.85
-116.74
-118.10
-115.13
-107.76
-96.56
-82.68
-67.46
-52.13
-37.63
-24.55
-13.16
-3.57
4.27
10.53
15.51
19.62
23.33
26.98
30.71
34.41
37.82
40.64
42.79
44.42
45.80
47.19
48.53
49.42
49.26
47.38
43.43
37.43
29.87
21.39
12.68
4.19
-3.98
-12.04
-20.48
-29.78
-40.25
-51.76
-63.60
-74.49
-82.85
-87.24
-86.82
-81.67
-72.76
-61.53
-49.52
-37.89
-27.33
-18.07
-10.22
-3.88
0.77
3.61
4.76
4.54
3.51
2.20
1.04
0.26
-0.06
0.13
0.80
1.93
3.39
4.97
6.33
7.16
7.13
6.07
3.96
0.91
-2.87
-7.14
-11.62
-16.07
-20.37
-24.55
-28.86
-33.71
-39.52
-46.52
-54.46
-62.49
-69.28
-73.31
-73.38
-69.03
-60.69
-49.52
-37.04
-24.61
-13.19
-3.29
4.92
11.34
15.85
18.38
19.02
18.18
16.52
14.77
13.48
12.85
12.70
12.69
12.60
12.44
12.52
13.19
14.59
16.49
18.26
19.14
18.53
16.30
12.80
8.74
4.93
1.98
0.08
-1.00
-1.80
-3.04
-5.37
-9.26
-14.81
-21.64
-28.92
-35.43
-39.87
-41.23
-39.05
-33.57
-25.69
-16.61
-7.46
0.87
7.93
13.55
17.72
20.51
22.01
22.37
21.84
20.72
19.33
17.95
16.68
15.48
14.22
12.81
11.30
9.96
9.12
9.07
9.73
10.67
11.08
10.18
7.54
3.30
-1.89
-7.20
-12.02
-16.26
-20.33
-24.90
-30.55
-37.52
-45.65
-54.45
-63.22
-71.05
-76.88
-79.52
-77.98
-71.74
-61.08
-47.02
-31.15
-15.14
-0.29
12.61
23.27
31.68
37.97
42.27
44.74
45.63
45.24
43.99
42.30
40.59
39.13
38.03
37.20
36.34
35.19
33.50
31.30
28.78
26.24
23.91
21.85
19.92
17.86
15.35
12.08
7.79
2.25
-4.59
-12.59
-21.34
-30.29
-38.96
-47.06
-54.69
-62.13
-69.56
-76.78
-83.02
-87.13
-87.87
-84.44
-76.73
-65.41
-51.77
-37.23
-23.04
-10.07
1.29
10.95
18.95
25.32
30.08
33.32
35.26
36.32
37.01
37.79
38.95
40.50
42.22
43.74
44.73
45.07
44.82
44.28
43.72
43.23
42.55
41.08
38.14
33.24
26.40
18.18
9.51
1.37
-5.63
-11.42
-16.40
-21.30
-26.87
-33.64
-41.78
-50.90
-60.14
-68.16
-73.46
-74.70
-71.11
-62.71
-50.33
-35.40
-19.52
-4.16
9.58
21.04
29.93
36.24
40.19
42.15
42.61
42.09
41.08
40.01
39.12
38.50
38.05
37.58
36.90
35.94
34.83
33.77
32.92
32.20
31.20
29.37
26.18
21.42
15.37
8.62
1.86
-4.44
-10.16
-15.60
-21.27
-27.64
-35.05
-43.56
-52.87
-62.21
-70.45
-76.14
-77.90
-74.81
-66.72
-54.40
-39.26
-23.05
-7.39
6.57
18.17
27.22
33.79
38.10
40.40
40.99
40.24
38.58
36.54
34.59
33.06
32.06
31.49
31.09
30.65
30.08
29.38
28.59
27.59
26.08
23.62
19.88
14.77
8.54
1.73
-5.10
-11.59
-17.76
-24.03
-31.03
-39.34
-49.13
-60.03
-70.97
-80.41
-86.63
-88.17
-84.28
-75.12
-61.72
-45.67
-28.74
-12.40
2.30
14.84
25.03
32.84
38.38
41.84
43.59
44.12
43.95
43.48
43.01
42.62
42.28
41.91
41.39
40.68
39.75
38.62
37.28
35.59
33.30
30.09
25.68
20.00
13.27
5.93
-1.45
-8.44
-14.94
-21.15
-27.61
-34.91
-43.53
-53.47
-64.14
-74.30
-82.25
-86.28
-85.14
-78.48
-66.93
-51.94
-35.35
-18.83
-3.65
9.54
20.48
29.18
35.76
40.32
43.06
44.33
44.59
44.31
43.88
43.48
43.14
42.73
42.18
41.50
40.77
40.11
39.50
38.79
37.59
35.45
32.00
27.03
20.69
13.39
5.75
-1.63
-8.43
-14.69
-20.80
-27.37
-35.02
-44.02
-54.13
-64.51
-73.77
-80.24
-82.48
-79.59
-71.57
-59.28
-44.17
-27.92
-12.00
2.55
15.13
25.45
33.45
39.20
42.92
44.97
45.87
46.16
46.28
46.53
46.92
47.32
47.54
47.39
46.81
45.86
44.62
43.16
41.38
39.03
35.78
31.39
25.79
19.18
11.94
4.56
-2.56
-9.20
-15.40
-21.43
-27.76
-34.88
-43.10
-52.27
-61.61
-69.78
-75.07
-76.07
-71.96
-62.93
-50.07
-35.01
-19.53
-5.04
7.51
17.75
25.71
31.61
35.78
38.53
40.14
40.92
41.12
41.01
40.79
40.56
40.28
39.87
39.24
38.40
37.46
36.55
35.67
34.60
32.93
30.17
26.04
20.57
14.14
7.32
0.71
-5.41
-11.08
-16.71
-22.92
-30.27
-38.99
-48.76
-58.59
-67.03
-72.45
-73.54
-69.70
-61.18
-48.97
-34.45
-19.11
-4.24
9.16
20.38
29.00
34.92
38.33
39.73
39.79
39.18
38.44
37.89
37.61
37.49
37.36
37.07
36.57
35.88
35.09
34.23
33.20
31.72
29.43
25.95
21.14
15.13
8.34
1.32
-5.47
-11.82
-17.88
-24.09
-31.00
-39.06
-48.32
-58.18
-67.39
-74.25
-77.12
-74.90
-67.45
-55.59
-40.84
-24.99
-9.62
4.20
15.91
25.27
32.34
37.21
40.10
41.31
41.26
40.41
39.20
37.99
36.94
36.07
35.29
34.52
33.73
33.01
32.45
32.01
31.43
30.22
27.88
24.13
18.98
12.81
6.14
-0.49
-6.79
-12.74
-18.56
-24.62
-31.35
-39.04
-47.60
-56.45
-64.41
-69.99
-71.77
-68.87
-61.30
-50.00
-36.52
-22.51
-9.26
2.53
12.68
21.29
28.50
34.29
38.59
41.39
42.90
43.55
43.80
43.95
44.02
43.77
42.88
41.25
39.05
36.69
34.61
32.99
31.62
30.04
27.65
24.03
19.09
13.03
6.32
-0.54
-7.14
-13.24
-18.84
-24.23
-29.91
-36.39
-43.98
-52.46
-60.98
-68.11
-72.16
-71.80
-66.49
-56.75
-43.91
-29.74
-15.82
-3.21
7.63
16.70
24.11
29.96
34.26
37.08
38.63
39.28
39.47
39.51
39.53
39.41
39.02
38.25
37.15
35.90
34.74
33.81
33.08
32.28
31.01
28.87
25.60
21.12
15.57
9.30
2.74
-3.65
-9.57
-14.94
-19.94
-25.00
-30.68
-37.43
-45.39
-54.17
-62.76
-69.77
-73.68
-73.36
-68.40
-59.25
-47.11
-33.51
-19.90
-7.31
3.76
13.21
21.10
27.49
32.36
35.77
37.85
38.83
39.10
39.01
38.85
38.74
38.70
38.63
38.40
37.92
37.15
36.17
35.06
33.88
32.54
30.80
28.36
25.02
20.70
15.54
9.81
3.78
-2.31
-8.30
-14.12
-19.78
-25.47
-31.46
-38.11
-45.61
-53.76
-61.84
-68.64
-72.79
-73.11
-69.02
-60.73
-49.20
-35.78
-21.92
-8.79
2.86
12.63
20.39
26.17
30.09
32.36
33.30
33.30
32.84
32.28
31.88
31.70
31.67
31.63
31.45
31.06
30.46
29.72
28.91
28.02
26.91
25.34
23.02
19.76
15.52
10.49
5.00
-0.49
-5.63
-10.26
-14.44
-18.51
-22.92
-28.14
-34.47
-41.93
-50.07
-58.01
-64.47
-68.11
-67.83
-63.18
-54.51
-42.93
-29.94
-16.99
-5.20
4.85
13.00
19.34
23.98
27.03
28.60
28.90
28.30
27.27
26.21
25.39
24.82
24.37
23.86
23.23
22.54
21.97
21.64
21.53
21.38
20.78
19.29
16.69
13.01
8.54
3.72
-1.07
-5.60
-9.84
-13.97
-18.30
-23.19
-28.98
-35.86
-43.71
-52.00
-59.70
-65.48
-67.98
-66.32
-60.30
-50.56
-38.35
-25.11
-12.16
-0.38
9.76
18.09
24.59
29.32
32.34
33.82
34.04
33.38
32.27
31.17
30.36
29.99
29.95
30.00
29.84
29.29
28.32
27.08
25.79
24.54
23.24
21.54
19.06
15.47
10.76
5.18
-0.80
-6.74
-12.33
-17.53
-22.51
-27.57
-33.07
-39.27
-46.29
-53.99
-61.79
-68.74
-73.55
-74.99
-72.25
-65.21
-54.57
-41.60
-27.74
-14.33
-2.19
8.20
16.73
23.40
28.26
31.46
33.20
33.84
33.75
33.33
32.89
32.59
32.46
32.43
32.41
32.27
31.97
31.44
30.71
29.78
28.61
27.05
24.90
21.88
17.80
12.70
6.81
0.58
-5.55
-11.29
-16.55
-21.54
-26.59
-32.10
-38.37
-45.49
-53.25
-61.04
-67.92
-72.68
-74.17
-71.60
-64.84
-54.46
-41.67
-27.92
-14.55
-2.51
7.73
16.08
22.66
27.65
31.17
33.34
34.32
34.41
34.00
33.55
33.37
33.58
34.10
34.64
34.93
34.78
34.22
33.38
32.49
31.59
30.53
28.96
26.49
22.79
17.84
11.93
5.53
-0.84
-6.84
-12.42
-17.71
-22.96
-28.43
-34.35
-40.92
-48.16
-55.89
-63.45
-69.69
-73.24
-72.82
-67.80
-58.47
-45.99
-32.01
-18.14
-5.53
5.26
14.13
21.14
26.36
29.80
31.52
31.78
31.03
29.83
28.65
27.75
27.14
26.63
25.99
25.09
24.00
22.94
22.10
21.53
21.02
20.13
18.34
15.28
10.87
5.37
-0.68
-6.70
-12.23
-17.12
-21.48
-25.65
-30.12
-35.30
-41.53
-48.81
-56.68
-64.12
-69.72
-72.02
-69.92
-63.15
-52.35
-38.88
-24.44
-10.54
1.81
12.09
20.19
26.20
30.28
32.59
33.43
33.19
32.32
31.29
30.44
29.89
29.56
29.25
28.78
28.08
27.28
26.55
25.96
25.38
24.45
22.66
19.63
15.23
9.71
3.56
-2.63
-8.45
-13.79
-18.83
-24.01
-29.80
-36.59
-44.47
-53.21
-62.12
-70.11
-75.85
-78.01
-75.69
-68.73
-57.79
-44.21
-29.62
-15.49
-2.80
8.00
16.88
23.96
29.36
33.13
35.40
36.51
36.95
37.28
37.85
38.72
39.62
40.17
40.06
39.25
37.99
36.63
35.43
34.38
33.16
31.29
28.28
23.92
18.29
11.82
5.06
-1.53
-7.68
-13.44
-19.09
-24.97
-31.45
-38.82
-47.13
-56.11
-65.00
-72.60
-77.47
-78.27
-74.26
-65.59
-53.29
-38.96
-24.25
-10.44
1.73
11.99
20.34
26.80
31.41
34.29
35.70
36.11
36.06
36.08
36.45
37.17
37.95
38.46
38.43
37.89
37.03
36.13
35.38
34.69
33.72
31.96
28.98
24.55
18.77
12.01
4.75
-2.44
-9.20
-15.37
-21.06
-26.65
-32.69
-39.70
-47.89
-56.97
-66.02
-73.54
-77.89
-77.74
-72.50
-62.62
-49.35
-34.40
-19.41
-5.57
6.50
16.64
24.91
31.41
36.22
39.41
41.22
41.96
42.10
42.05
42.13
42.48
43.03
43.63
44.10
44.29
44.11
43.54
42.59
41.25
39.46
37.10
33.95
29.82
24.63
18.46
11.65
4.66
-2.06
-8.27
-14.04
-19.78
-26.01
-33.19
-41.53
-50.81
-60.34
-69.02
-75.49
-78.46
-77.01
-70.85
-60.46
-47.00
-31.98
-16.96
-3.17
8.59
18.03
25.12
30.06
33.08
34.46
34.59
33.93
33.05
32.48
32.56
33.32
34.47
35.54
36.11
36.01
35.35
34.33
33.15
31.74
29.79
26.94
22.93
17.82
11.95
5.84
-0.05
-5.43
-10.32
-14.95
-19.75
-25.19
-31.66
-39.29
-47.82
-56.42
-63.81
-68.48
-69.19
-65.30
-57.07
-45.57
-32.36
-18.97
-6.53
4.34
13.49
20.98
26.84
31.06
33.65
34.77
34.77
34.20
33.58
33.26
33.31
33.53
33.70
33.64
33.40
33.16
33.06
33.00
32.62
31.35
28.66
24.29
18.37
11.40
4.05
-3.04
-9.46
-15.14
-20.38
-25.69
-31.67
-38.78
-47.11
-56.20
-65.02
-72.09
-75.84
-75.13
-69.59
-59.78
-47.03
-32.92
-18.90
-5.94
5.45
15.09
22.91
28.86
32.98
35.45
36.66
37.10
37.28
37.46
37.73
37.95
37.91
37.48
36.67
35.60
34.46
33.35
32.23
30.89
28.97
26.17
22.37
17.61
12.12
6.19
0.06
-6.18
-12.53
-19.13
-26.21
-33.97
-42.55
-51.79
-61.06
-69.27
-74.98
-76.81
-73.88
-66.18
-54.59
-40.67
-26.13
-12.36
-0.18
10.18
18.82
25.90
31.44
35.40
37.80
38.89
39.11
38.95
38.79
38.71
38.55
38.10
37.25
36.13
35.00
34.11
33.50
32.96
32.02
30.19
27.10
22.68
17.11
10.85
4.44
-1.68
-7.26
-12.36
-17.31
-22.67
-29.00
-36.70
-45.73
-55.45
-64.59
-71.47
-74.51
-72.66
-65.86
-55.02
-41.69
-27.58
-14.02
-1.80
8.81
17.83
25.30
31.21
35.55
38.38
39.96
40.68
40.98
41.16
41.33
41.44
41.31
40.79
39.86
38.65
37.39
36.28
35.35
34.41
33.03
30.69
27.02
21.93
15.71
8.93
2.22
-3.95
-9.46
-14.49
-19.38
-24.60
-30.53
-37.39
-45.19
-53.49
-61.41
-67.61
-70.66
-69.44
-63.59
-53.65
-40.95
-27.10
-13.59
-1.42
8.92
17.32
23.81
28.44
31.27
32.43
32.24
31.15
29.75
28.52
27.78
27.61
27.85
28.29
28.73
29.08
29.31
29.33
28.96
27.91
25.84
22.55
18.06
12.64
6.79
0.99
-4.41
-9.36
-14.14
-19.26
-25.31
-32.65
-41.13
-49.94
-57.68
-62.68
-63.53
-59.48
-50.80
-38.56
-24.31
-9.66
4.18
16.37
26.50
34.45
40.32
44.46
47.47
50.03
52.69
55.69
59.00
62.35
65.47
68.10
70.07
71.09
70.82
68.83
64.85
58.89
51.24
42.45
33.01
23.25
13.20
2.74
-8.28
-19.85
-31.77
-43.74
-55.47
-66.88
-77.95
-88.64
-98.52
-106.66
-111.71
-112.32
-107.63
-97.64
-83.30
-66.28
-48.37
-31.16
-15.67
-2.40
8.59
17.45
24.48
30.01
34.26
37.42
39.44
40.19
39.53
37.48
34.26
30.26
25.90
21.52
17.32
13.40
9.80
6.52
3.58
0.89
-1.72
-4.44
-7.48
-10.90
-14.62
-18.42
-22.09
-25.56
-29.00
-32.89
-37.74
-43.83
-50.86
-57.79
-63.05
-65.03
-62.67
-55.86
-45.45
-32.92
-19.87
-7.53
3.45
12.92
20.95
27.69
33.15
37.28
40.08
41.70
42.45
42.73
42.87
43.00
43.04
42.81
42.22
41.35
40.41
39.60
38.93
38.14
36.79
34.45
30.87
26.13
20.51
14.41
8.20
2.15
-3.67
-9.38
-15.27
-21.73
-29.09
-37.38
-46.14
-54.38
-60.81
-64.09
-63.31
-58.27
-49.50
-38.14
-25.60
-13.17
-1.84
7.85
15.74
21.86
26.34
29.32
30.94
31.42
31.10
30.33
29.43
28.60
27.95
27.43
27.06
26.80
26.66
26.57
26.33
25.66
24.23
21.82
18.34
13.96
8.88
3.44
-2.04
-7.35
-12.39
-17.34
-22.54
-28.47
-35.39
-43.16
-51.03
-57.69
-61.72
-61.92
-57.84
-49.84
-38.97
-26.61
-14.06
-2.24
8.32
17.41
24.94
30.85
35.09
37.76
39.07
39.36
39.02
38.35
37.49
36.45
35.20
33.81
32.45
31.30
30.44
29.75
28.89
27.46
25.13
21.74
17.38
12.27
6.71
0.94
-4.85
-10.61
-16.39
-22.41
-29.05
-36.62
-45.18
-54.29
-62.91
-69.57
-72.80
-71.62
-65.86
-56.24
-44.07
-30.77
-17.56
-5.16
6.03
15.85
24.19
30.91
35.97
39.44
41.56
42.61
42.95
42.83
42.42
41.79
40.98
40.02
38.91
37.67
36.30
34.75
32.97
30.79
28.03
24.53
20.21
15.13
9.57
3.88
-1.57
-6.58
-11.26
-15.91
-21.03
-27.07
-34.31
-42.61
-51.35
-59.44
-65.45
-68.05
-66.28
-60.05
-50.09
-37.75
-24.64
-12.07
-0.87
8.72
16.73
23.33
28.54
32.35
34.73
35.79
35.86
35.40
34.86
34.50
34.34
34.22
33.94
33.42
32.73
32.02
31.44
30.92
30.22
28.96
26.79
23.52
19.17
14.00
8.38
2.69
-2.83
-8.12
-13.27
-18.53
-24.12
-30.30
-37.17
-44.64
-52.18
-58.89
-63.58
-65.09
-62.72
-56.45
-47.01
-35.66
-23.77
-12.49
-2.54
5.71
12.20
16.96
20.14
21.98
22.82
23.08
23.15
23.30
23.64
24.11
24.56
24.87
24.99
24.97
24.89
24.76
24.45
23.74
22.30
19.90
16.47
12.15
7.25
2.14
-2.89
-7.68
-12.29
-16.96
-22.02
-27.81
-34.44
-41.76
-49.12
-55.50
-59.67
-60.50
-57.34
-50.28
-40.08
-27.99
-15.36
-3.31
7.46
16.66
24.27
30.30
34.67
37.25
38.02
37.17
35.18
32.68
30.28
28.40
27.15
26.37
25.86
25.45
25.05
24.66
24.12
23.13
21.34
18.43
14.31
9.19
3.47
-2.38
-8.00
-13.25
-18.25
-23.35
-29.00
-35.62
-43.34
-51.87
-60.35
-67.44
-71.63
-71.76
-67.32
-58.75
-47.18
-34.12
-20.99
-8.81
1.89
10.88
18.10
23.54
27.21
29.24
29.96
29.84
29.35
28.83
28.39
27.88
27.12
25.97
24.53
23.06
21.84
20.98
20.32
19.44
17.91
15.38
11.78
7.26
2.15
-3.23
-8.61
-13.85
-18.99
-24.26
-30.04
-36.79
-44.73
-53.58
-62.39
-69.68
-73.82
-73.61
-68.64
-59.45
-47.30
-33.73
-20.15
-7.59
3.38
12.51
19.74
25.10
28.68
30.68
31.39
31.24
30.65
29.97
29.38
28.87
28.33
27.60
26.70
25.79
25.14
24.90
25.03
25.23
25.03
23.95
21.72
18.31
13.90
8.79
3.25
-2.51
-8.43
-14.62
-21.30
-28.74
-37.02
-45.90
-54.61
-61.89
-66.30
-66.63
-62.39
-53.90
-42.35
-29.23
-16.02
-3.74
7.06
16.22
23.74
29.62
33.86
36.54
37.87
38.24
38.08
37.74
37.33
36.79
35.96
34.72
33.14
31.41
29.77
28.35
27.10
25.74
23.87
21.10
17.26
12.42
6.94
1.31
-4.05
-8.89
-13.31
-17.69
-22.57
-28.47
-35.61
-43.79
-52.23
-59.72
-64.84
-66.35
-63.56
-56.56
-46.15
-33.62
-20.41
-7.71
3.60
13.03
20.33
25.47
28.53
29.80
29.71
28.77
27.48
26.19
25.04
24.02
23.06
22.18
21.49
21.19
21.35
21.85
22.27
22.04
20.67
17.90
13.82
8.80
3.30
-2.25
-7.61
-12.81
-18.05
-23.69
-30.04
-37.29
-45.27
-53.38
-60.52
-65.37
-66.70
-63.73
-56.39
-45.38
-32.08
-18.06
-4.79
6.71
15.98
23.05
28.25
31.92
34.27
35.43
35.48
34.59
33.04
31.20
29.37
27.72
26.26
24.98
23.86
22.93
22.19
21.46
20.36
18.40
15.20
10.61
4.87
-1.52
-8.02
-14.24
-20.18
-26.14
-32.70
-40.40
-49.46
-59.54
-69.55
-77.86
-82.67
-82.54
-76.93
-66.37
-52.34
-36.72
-21.31
-7.37
4.48
14.16
21.88
27.92
32.54
35.92
38.25
39.69
40.34
40.34
39.83
38.92
37.77
36.49
35.17
33.84
32.48
31.02
29.31
27.10
24.16
20.28
15.43
9.75
3.53
-2.85
-9.14
-15.27
-21.43
-27.97
-35.25
-43.44
-52.26
-60.89
-68.06
-72.27
-72.29
-67.58
-58.45
-45.99
-31.76
-17.35
-3.96
7.66
17.27
24.95
30.89
35.30
38.37
40.30
41.29
41.63
41.56
41.29
40.91
40.40
39.68
38.67
37.37
35.84
34.15
32.28
30.03
27.11
23.25
18.36
12.61
6.43
0.27
-5.54
-10.94
-16.20
-21.84
-28.43
-36.34
-45.46
-55.11
-63.99
-70.48
-73.06
-70.81
-63.68
-52.55
-38.88
-24.33
-10.31
2.26
12.94
21.71
28.66
33.96
37.74
40.18
41.53
42.11
42.33
42.48
42.73
42.99
43.07
42.74
41.91
40.69
39.30
37.94
36.57
34.93
32.58
29.11
24.34
18.38
11.66
4.74
-1.80
-7.61
-12.65
-17.25
-22.09
-27.91
-35.28
-44.29
-54.33
-64.18
-72.20
-76.79
-76.81
-71.95
-62.69
-50.24
-36.07
-21.64
-8.07
4.01
14.35
23.01
30.13
35.85
40.22
43.32
45.23
46.19
46.48
46.42
46.26
46.08
45.81
45.26
44.33
43.02
41.50
39.94
38.44
36.85
34.82
31.88
27.71
22.23
15.75
8.81
2.03
-4.13
-9.47
-14.20
-18.81
-23.94
-30.18
-37.88
-46.88
-56.41
-65.17
-71.52
-74.00
-71.76
-64.80
-54.02
-40.83
-26.80
-13.19
-0.86
9.78
18.56
25.43
30.44
33.71
35.51
36.22
36.27
36.01
35.68
35.36
34.94
34.31
33.41
32.33
31.28
30.45
29.89
29.34
28.36
26.43
23.23
18.79
13.51
8.02
2.86
-1.69
-5.72
-9.68
-14.16
-19.70
-26.63
-34.91
-44.00
-52.91
-60.29
-64.72
-65.09
-61.00
-52.78
-41.52
-28.69
-15.68
-3.56
7.11
16.14
23.55
29.34
33.52
36.11
37.26
37.33
36.81
36.15
35.63
35.30
35.00
34.50
33.67
32.52
31.18
29.75
28.15
26.16
23.43
19.72
14.99
9.47
3.59
-2.21
-7.66
-12.75
-17.77
-23.17
-29.42
-36.80
-45.17
-53.89
-61.82
-67.48
-69.50
-67.04
-60.05
-49.34
-36.34
-22.64
-9.61
1.88
11.46
19.19
25.31
30.07
33.65
36.18
37.76
38.52
38.58
38.11
37.31
36.32
35.24
34.12
33.00
31.96
31.09
30.46
29.96
29.26
27.87
25.27
21.15
15.62
9.15
2.45
-3.79
-9.22
-13.94
-18.43
-23.34
-29.27
-36.46
-44.64
-53.02
-60.34
-65.17
-66.33
-63.22
-56.03
-45.70
-33.59
-21.10
-9.27
1.32
10.50
18.27
24.72
29.83
33.62
36.14
37.58
38.25
38.43
38.39
38.22
37.87
37.24
36.23
34.84
33.18
31.42
29.68
28.00
26.23
24.05
21.14
17.28
12.49
6.99
1.21
-4.45
-9.70
-14.49
-19.05
-23.78
-29.12
-35.35
-42.43
-49.92
-56.96
-62.46
-65.30
-64.63
-60.15
-52.13
-41.38
-29.06
-16.35
-4.27
6.44
15.42
22.54
27.86
31.52
33.73
34.75
34.93
34.65
34.25
33.93
33.74
33.58
33.30
32.78
31.95
30.91
29.78
28.71
27.71
26.63
25.17
22.98
19.77
15.48
10.34
4.81
-0.60
-5.54
-10.02
-14.41
-19.25
-25.07
-32.09
-40.07
-48.25
-55.52
-60.65
-62.65
-60.95
-55.64
-47.32
-36.96
-25.70
-14.55
-4.31
4.54
11.73
17.19
20.92
23.08
23.93
23.87
23.32
22.70
22.27
22.14
22.26
22.51
22.75
22.93
23.00
22.92
22.60
21.87
20.52
18.38
15.35
11.50
7.05
2.28
-2.50
-7.06
-11.39
-15.64
-20.15
-25.34
-31.49
-38.65
-46.35
-53.61
-59.12
-61.61
-60.24
-54.98
-46.54
-36.13
-25.05
-14.25
-4.28
4.65
12.43
18.91
23.84
27.04
28.53
28.57
27.70
26.52
25.47
24.76
24.35
24.02
23.61
23.07
22.49
21.97
21.53
20.94
19.86
17.91
14.89
10.84
6.10
1.05
-3.92
-8.57
-12.81
-16.71
-20.48
-24.48
-29.16
-34.88
-41.69
-49.11
-56.10
-61.28
-63.34
-61.47
-55.68
-46.76
-35.93
-24.47
-13.36
-3.20
5.72
13.31
19.42
23.98
26.97
28.51
28.92
28.67
28.20
27.84
27.66
27.54
27.28
26.70
25.82
24.77
23.75
22.84
21.89
20.56
18.45
15.29
11.13
6.27
1.21
-3.62
-7.99
-12.01
-15.99
-20.39
-25.61
-31.91
-39.30
-47.31
-55.09
-61.40
