1538158427.00
64.000000
-0.00
-0.00
-0.00
-0.00
-0.00
-0.00
-0.00
-0.00
-0.00
-0.00
0.00
0.01
0.01
-0.00
-0.03
-0.05
-0.05
0.00
0.13
0.36
0.66
1.01
1.37
1.72
2.06
2.40
2.79
3.24
3.80
4.42
5.06
5.66
6.20
6.68
7.15
7.68
8.31
9.14
10.09
11.04
11.88
12.56
13.14
13.76
14.65
15.96
17.91
20.32
22.90
25.38
27.58
29.57
31.68
34.32
37.81
42.54
48.15
54.10
59.83
64.97
69.58
74.14
79.34
85.71
93.76
103.00
112.62
121.73
129.77
136.75
143.30
150.75
157.77
166.64
177.95
191.79
206.97
220.57
228.25
225.36
208.53
176.87
132.76
80.05
23.07
-34.94
-92.44
-149.16
-205.23
-260.37
-313.74
-363.87
-409.83
-450.91
-486.50
-515.74
-537.23
-549.22
-549.96
-538.37
-514.21
-478.67
-433.88
-382.45
-327.02
-269.84
-212.63
-156.66
-102.95
-52.37
-5.90
35.58
71.43
101.35
125.50
144.38
158.69
169.15
176.37
180.75
182.57
182.07
179.51
175.23
169.65
163.18
156.15
148.81
141.30
133.69
126.02
118.33
110.69
103.16
95.80
88.68
81.83
75.25
68.95
62.95
57.25
51.86
46.78
42.03
37.59
33.45
29.61
26.07
22.81
19.83
17.11
14.67
12.48
10.54
8.83
7.35
6.07
4.97
4.05
3.27
2.62
2.09
1.65
1.30
1.01
0.79
0.61
0.48
0.37
0.28
0.22
0.17
0.14
0.11
0.09
0.09
0.09
0.10
0.12
0.14
0.18
0.23
0.29
0.36
0.43
0.52
0.60
0.70
0.79
0.89
0.98
1.08
1.19
1.30
1.42
1.54
1.68
1.83
1.99
2.17
2.37
2.59
2.85
3.13
3.44
3.79
4.18
4.61
5.09
5.61
6.20
6.84
7.56
8.35
9.22
10.14
11.10
12.13
13.23
14.43
15.73
17.12
18.59
20.12
21.66
23.24
24.91
26.72
28.73
30.93
33.31
35.79
38.37
40.86
43.23
45.41
47.28
48.68
49.36
49.05
47.44
44.34
39.44
32.83
24.79
15.72
6.10
-3.66
-13.26
-22.56
-30.82
-38.30
-44.78
-49.93
-53.39
-55.00
-54.96
-53.81
-52.66
-51.91
-52.03
-52.83
-53.76
-54.14
-53.55
-52.06
-50.31
-49.38
-49.77
-51.77
-54.70
-57.55
-59.49
-60.57
-61.52
-63.00
-64.86
-66.11
-65.99
-64.51
-62.56
-60.91
-58.85
-53.83
-42.64
-23.60
1.70
28.36
50.32
63.33
66.79
63.66
58.31
53.99
51.52
49.74
47.06
43.00
38.43
34.58
32.50
32.14
32.59
32.50
30.96
27.80
23.60
19.38
16.09
14.24
13.67
13.69
13.45
12.28
9.97
6.74
3.14
-0.24
-2.91
-4.71
-5.77
-6.52
-7.45
-9.08
-11.74
-15.48
-19.97
-24.55
-28.49
-31.28
-32.92
-33.93
-35.31
-38.10
-42.93
-49.65
-57.24
-64.28
-69.54
-72.60
-74.01
-75.17
-77.49
-81.70
-87.24
-92.33
-94.57
-91.56
-81.37
-62.75
-35.29
-0.35
38.24
74.41
101.25
113.56
110.24
94.53
73.92
56.30
46.45
44.67
47.85
51.99
54.61
55.63
56.01
56.44
56.27
53.95
48.28
39.52
29.51
20.79
15.52
14.12
15.36
16.87
16.24
12.19
5.18
-3.05
-10.06
-13.93
-14.05
-11.13
-7.17
-4.96
-7.17
-15.05
-27.42
-39.93
-46.07
-39.54
-17.06
19.84
65.09
110.17
146.77
168.90
173.66
161.02
133.35
95.08
52.29
11.88
-20.11
-40.19
-48.41
-47.75
-42.49
-36.26
-30.93
-27.14
-24.79
-23.78
-24.11
-25.45
-27.01
-27.76
-27.00
-24.57
-21.11
-17.68
-15.29
-14.44
-14.94
-16.08
-16.90
-16.68
-15.17
-12.71
-10.01
-7.85
-6.73
-6.70
-7.38
-8.12
-8.29
-7.56
-5.97
-3.97
-2.20
-1.19
-1.18
-1.99
-3.10
-3.80
-3.57
-2.25
-0.21
1.84
3.13
3.17
2.03
0.33
-1.00
-1.15
0.21
2.66
5.21
6.75
6.57
4.75
2.15
0.10
-0.40
1.12
4.12
7.44
9.77
10.04
7.36
1.15
-8.64
-20.89
-32.78
-40.40
-40.09
-30.39
-13.25
6.19
21.73
28.67
25.63
15.15
1.61
-11.17
-21.43
-29.47
-36.40
-42.87
-48.42
-52.03
-53.03
-51.86
-49.78
-48.22
-48.19
-49.57
-51.19
-51.52
-49.16
-43.43
-34.65
-23.76
-11.96
-0.26
10.86
21.40
31.49
41.17
50.08
57.41
62.23
63.77
61.74
56.41
48.55
39.18
29.32
19.82
11.21
3.67
-2.70
-7.92
-11.97
-14.89
-16.83
-17.85
-18.13
-17.94
-17.62
-17.35
-17.28
-17.59
-18.45
-20.06
-22.17
-24.54
-26.87
-28.93
-30.12
-29.96
-28.18
-24.86
-20.54
-15.23
-9.07
-2.38
4.38
11.23
18.06
24.38
29.36
31.72
31.42
28.64
23.75
17.37
11.00
6.15
3.81
4.37
7.46
14.38
26.73
46.75
73.01
105.65
144.77
189.95
240.88
286.28
317.49
329.16
319.29
287.35
234.87
166.49
90.69
18.98
-38.56
-75.48
-92.38
-95.50
-93.03
-90.66
-90.26
-91.85
-94.09
-97.08
-101.35
-108.25
-118.92
-133.66
-151.76
-168.82
-184.33
-198.15
-209.25
-214.02
-207.93
-187.64
-153.35
-109.44
-63.38
-23.48
5.04
21.09
27.47
28.30
26.87
24.66
21.97
19.01
16.14
14.49
14.87
17.14
20.11
22.16
21.98
19.39
15.34
11.14
8.24
7.32
8.08
9.37
9.85
8.67
5.78
2.00
-1.62
-4.12
-5.13
-5.10
-4.92
-5.44
-6.91
-8.84
-10.21
-10.00
-7.63
-3.29
2.01
7.15
11.24
14.21
16.80
20.11
24.96
31.40
38.60
45.06
49.49
51.30
51.05
50.07
49.91
51.93
57.06
65.83
77.74
90.92
101.78
105.64
98.21
77.75
46.53
10.04
-23.04
-45.96
-56.33
-56.28
-50.48
-43.45
-37.64
-33.28
-29.59
-26.35
-24.19
-24.25
-27.07
-31.90
-36.87
-39.84
-39.11
-33.87
-25.27
-15.33
-6.00
1.53
7.18
11.76
16.32
21.78
28.25
35.08
40.99
44.77
45.75
44.06
40.47
35.81
31.01
26.31
21.27
14.88
6.15
-5.28
-18.97
-33.01
-45.97
-56.39
-63.53
-67.54
-69.63
-71.33
-73.83
-77.43
-81.34
-84.25
-84.81
-83.14
-79.05
-73.74
-69.00
-66.48
-67.48
-72.46
-80.84
-90.27
-96.67
-95.05
-81.55
-55.23
-19.09
20.68
57.16
85.35
103.98
114.96
121.65
126.57
130.29
131.91
130.25
124.86
116.39
106.26
95.93
86.67
79.53
75.12
73.62
74.63
76.91
79.07
80.41
81.60
84.65
91.84
103.75
119.10
135.16
148.84
157.99
162.32
162.86
160.82
156.67
148.85
135.32
114.81
87.96
57.87
29.45
7.75
-3.98
-1.20
15.46
41.73
71.22
97.34
114.89
120.80
113.93
94.64
64.51
25.78
-17.55
-60.20
-96.64
-122.72
-136.91
-140.60
-137.20
-130.82
-125.56
-124.04
-127.11
-134.19
-143.56
-152.95
-160.13
-163.32
-161.66
-155.83
-147.57
-139.33
-133.52
-131.77
-134.20
-139.36
-144.68
-147.47
-146.13
-140.56
-131.98
-122.19
-112.62
-103.75
-95.15
-86.09
-76.24
-66.09
-56.66
-48.92
-42.97
-37.94
-32.32
-24.71
-14.73
-3.41
7.28
15.21
19.15
19.52
18.40
18.81
23.47
33.57
48.08
63.97
77.14
83.88
82.13
72.22
56.71
39.48
24.38
13.89
8.35
5.71
2.17
-6.60
-23.71
-49.27
-79.47
-106.95
-122.78
-119.40
-93.52
-47.22
12.56
76.39
135.24
182.79
216.29
236.08
244.29
243.58
236.35
224.34
208.66
189.96
168.59
144.82
118.97
91.53
63.08
34.39
6.36
-19.93
-43.31
-62.75
-77.76
-88.78
-97.14
-104.82
-113.68
-124.92
-138.59
-153.80
-169.28
-183.97
-197.49
-210.20
-222.89
-236.33
-251.03
-267.00
-283.87
-301.10
-318.42
-336.19
-355.49
-377.59
-402.85
-429.61
-453.54
-468.39
-467.96
-448.38
-409.78
-356.34
-294.47
-230.52
-169.12
-112.94
-63.63
-22.84
7.62
26.53
34.45
34.23
30.23
26.83
26.92
31.23
38.98
49.03
60.79
74.39
90.00
107.07
124.14
139.38
151.56
160.78
168.49
176.65
186.90
199.81
214.94
231.30
247.89
263.91
278.64
291.16
300.31
304.89
303.99
297.26
284.91
267.47
245.59
219.92
191.30
160.71
129.39
98.62
69.58
43.17
20.06
0.68
-14.76
-26.38
-34.74
-40.87
-46.09
-51.81
-59.15
-68.81
-81.06
-95.82
-112.84
-131.53
-150.89
-169.39
-185.18
-196.62
-202.82
-203.92
-201.08
-196.16
-191.47
-189.56
-193.06
-204.21
-223.94
-251.02
-281.70
-310.44
-331.58
-341.29
-338.80
-326.37
-307.96
-287.45
-267.32
-248.25
-229.56
-210.09
-188.88
-165.44
-139.76
-112.18
-83.25
-53.64
-23.91
5.71
35.54
66.24
98.60
132.92
168.71
204.79
239.52
271.51
300.21
326.13
350.82
376.69
406.50
442.50
484.92
530.78
573.55
604.48
615.46
602.24
566.43
515.09
458.11
404.49
359.60
324.42
296.81
273.80
253.28
234.45
217.41
202.34
189.18
177.65
167.19
156.81
144.85
129.44
109.26
84.52
57.36
31.37
10.13
-4.02
-10.50
-9.79
-2.29
12.53
35.86
68.27
108.34
152.15
194.17
229.12
253.86
268.34
275.13
277.98
280.13
283.26
287.47
291.88
295.67
298.70
301.66
305.43
310.48
316.30
321.37
323.67
321.45
313.82
301.13
284.86
267.16
250.26
235.76
224.11
214.38
204.58
192.44
176.28
155.71
131.63
105.74
79.53
53.55
27.18
-0.78
-31.20
-63.82
-97.06
-128.64
-156.49
-179.91
-199.75
-218.05
-237.17
-258.65
-282.79
-309.18
-337.35
-367.04
-397.40
-425.99
-448.59
-460.46
-458.81
-445.10
-425.35
-408.11
-401.05
-408.06
-428.47
-459.12
-497.31
-542.52
-595.57
-655.71
-717.92
-772.75
-809.24
-819.46
-802.04
-762.65
-711.19
-657.58
-608.05
-563.96
-523.30
-483.49
-443.52
-404.54
-368.70
-337.53
-310.86
-287.00
-263.78
-239.75
-214.82
-190.26
-167.91
-149.13
-134.26
-122.49
-112.24
-102.00
-90.91
-79.07
-67.35
-56.88
-48.40
-42.05
-37.27
-33.17
-28.97
-24.30
-19.33
-14.54
-10.48
-7.42
-5.31
-3.74
-2.24
-0.39
2.01
4.97
8.36
12.06
16.02
20.24
24.76
29.61
34.77
40.17
45.77
51.50
57.32
63.10
68.67
73.79
78.23
81.90
84.87
87.49
90.19
93.49
97.73
103.08
109.49
116.79
124.81
133.53
143.07
153.67
165.61
178.98
193.75
209.75
226.75
244.47
262.63
280.92
299.17
317.57
336.98
358.85
384.51
414.04
445.35
474.06
494.42
501.20
491.50
465.90
428.46
385.43
343.48
307.45
278.94
255.93
233.64
206.24
168.83
118.89
57.17
-12.15
-82.41
-145.87
-195.47
-226.25
-236.24
-226.76
-201.70
-166.03
-123.67
-77.33
-28.22
23.22
76.22
128.51
176.13
214.08
237.70
246.40
243.39
235.50
231.25
237.79
257.96
288.75
322.11
347.75
360.60
359.90
348.45
329.55
303.96
269.37
222.50
162.39
92.97
29.16
-12.00
-17.70
14.57
76.20
152.31
228.53
296.51
355.07
415.90
491.44
589.36
709.20
843.39
982.12
1118.19
1248.92
1326.21
1313.90
1192.24
969.22
678.27
361.72
53.95
-224.64
-464.56
-662.10
-808.51
-897.76
-929.93
-914.09
-867.42
-809.90
-757.92
-720.28
-698.24
-682.28
-662.23
-631.58
-589.89
-541.80
-493.38
-449.37
-412.39
-384.16
-362.81
-346.22
-331.82
-317.17
-300.62
-281.97
-262.71
-245.60
-233.30
-225.28
-218.99
-210.94
-198.67
-182.06
-163.12
-144.83
-129.72
-119.09
-112.21
-107.20
-101.75
-94.22
-84.37
-73.45
-63.82
-58.06
-57.27
-61.05
-67.13
-72.27
-73.72
-70.14
-62.31
-52.55
-43.62
-37.59
-35.59
-37.77
-43.45
-51.04
-57.50
-58.48
-49.29
-26.98
7.19
46.32
79.28
94.84
86.85
57.76
18.36
-16.77
-35.49
-32.73
-11.78
18.87
50.60
78.52
101.74
120.71
134.06
137.51
126.22
98.78
59.90
19.71
-10.42
-23.17
-18.97
-5.47
6.71
9.71
2.59
-8.61
-14.22
-5.73
20.53
62.38
113.47
164.40
206.14
232.59
241.45
233.52
211.52
179.24
141.16
102.59
69.35
47.29
40.38
48.82
67.94
88.89
101.24
96.51
70.73
25.11
-35.01
-102.31
-169.40
-229.56
-276.79
-306.19
-315.01
-304.09
-278.46
-246.09
-215.16
-191.38
-176.36
-167.95
-162.19
-155.45
-145.86
-133.53
-119.82
-106.41
-94.74
-85.69
-79.54
-75.99
-74.31
-73.50
-72.44
-70.07
-65.72
-59.56
-52.76
-47.53
-46.37
-50.98
-61.16
-74.35
-86.14
-91.74
-87.72
-73.20
-50.03
-22.00
6.50
31.60
50.85
63.29
69.35
70.41
68.27
64.48
59.94
54.77
48.59
41.07
32.40
23.27
14.29
5.48
-3.97
-15.36
-29.66
-46.81
-65.59
-84.02
-100.12
-112.48
-120.46
-123.95
-123.06
-117.86
-108.48
-95.26
-78.98
-60.80
-42.05
-23.90
-7.11
8.04
21.74
34.39
46.31
57.55
67.92
77.15
85.07
91.76
97.36
101.99
105.57
107.84
108.54
107.69
105.64
103.01
100.32
97.67
94.56
90.15
83.67
74.98
64.73
54.24
44.91
37.75
32.98
30.30
29.25
29.77
32.23
37.19
45.05
56.21
71.45
92.49
121.62
160.37
207.44
257.53
301.78
330.35
335.95
316.35
274.68
217.26
150.52
79.01
5.50
-67.28
-134.87
-191.08
-229.88
-248.19
-247.65
-234.17
-215.64
-198.83
-187.37
-181.41
-178.84
-177.13
-174.49
-170.26
-164.44
-157.02
-147.64
-135.70
-120.78
-102.97
-83.19
-63.01
-44.22
-28.37
-16.37
-8.25
-3.27
-0.26
1.99
4.36
7.22
10.52
13.99
17.40
20.70
24.08
27.77
31.93
36.43
40.82
44.48
46.81
47.39
46.09
42.96
38.21
32.18
25.36
18.47
12.41
8.14
6.43
7.62
11.51
17.41
24.40
31.53
38.05
43.41
47.24
49.33
49.63
48.31
45.75
42.51
39.21
36.37
34.22
32.69
31.50
30.30
28.79
26.87
24.55
21.88
18.91
15.64
12.06
8.24
4.24
0.09
-4.31
-9.10
-14.39
-19.93
-25.08
-28.79
-29.91
-27.55
-21.42
-11.92
0.03
13.27
26.70
39.41
50.65
59.83
66.39
70.00
70.63
68.67
64.91
60.36
55.92
52.19
49.37
47.27
45.51
43.67
41.40
38.53
35.07
31.18
27.11
23.12
19.38
15.94
12.66
9.30
5.55
1.10
-4.15
-10.07
-16.14
-21.49
-25.09
-26.00
-23.63
-18.00
-9.75
0.03
10.01
18.97
26.00
30.63
32.80
32.82
31.22
28.69
25.87
23.30
21.28
19.83
18.82
18.01
17.21
16.40
15.67
15.12
14.74
14.37
13.72
12.53
10.69
8.28
5.52
2.65
-0.14
-2.77
-5.27
-7.69
-10.15
-12.85
-16.01
-19.77
-24.01
-28.20
-31.45
-32.75
-31.33
-26.96
-20.14
-11.89
-3.42
4.22
10.34
14.70
17.35
18.47
18.23
16.74
14.07
10.27
5.46
-0.09
-5.95
-11.51
-16.26
-19.92
-22.66
-25.09
-28.05
-32.13
-37.37
-43.17
-48.43
-52.08
-53.59
-53.27
-52.15
-51.47
-52.05
-53.76
-55.46
-55.40
-51.98
-44.43
-33.16
-19.65
-5.90
6.28
15.87
23.00
29.29
37.95
53.37
80.06
120.78
174.71
236.53
297.22
346.51
376.09
382.11
365.89
332.64
288.99
240.66
191.23
142.29
94.41
48.14
4.52
-35.06
-69.29
-97.41
-119.41
-136.03
-148.51
-158.05
-165.49
-171.11
-174.72
-175.98
-174.82
-171.59
-167.03
-161.96
-156.90
-151.99
-147.06
-141.99
-136.92
-132.25
-128.47
-125.74
-123.67
-121.26
-117.19
-110.32
-100.12
-86.89
-71.73
-56.11
-41.48
-28.88
-18.71
-10.82
-4.67
0.38
4.91
9.22
13.42
17.40
20.98
24.01
26.47
28.45
30.18
31.90
33.75
35.72
37.67
39.40
40.75
41.66
42.18
42.48
42.71
42.97
43.22
43.29
42.91
41.76
39.60
36.36
32.16
27.39
22.61
18.46
15.56
14.29
14.69
16.40
18.81
21.19
22.95
23.73
23.41
22.01
19.56
15.99
11.15
4.91
-2.72
-11.45
-20.67
-29.44
-36.71
-41.43
-42.90
-40.89
-35.83
-28.62
-20.45
-12.52
-5.72
-0.51
3.09
5.48
7.33
9.43
12.44
16.67
22.03
28.02
33.93
39.11
43.20
46.16
48.14
49.40
50.31
51.31
52.99
55.90
60.16
65.13
69.24
70.43
66.96
58.23
45.19
30.11
15.66
3.95
-4.18
-9.21
-12.45
-15.28
-18.50
-22.07
-25.22
-26.74
-25.38
-20.23
-11.10
1.17
14.48
25.64
30.97
27.07
11.55
-16.40
-55.74
-103.58
-155.47
-205.95
-249.41
-281.06
-297.89
-299.23
-286.76
-264.00
-235.56
-206.29
-180.73
-162.54
-154.05
-155.70
-165.77
-180.57
-195.31
-205.39
-207.67
-201.13
-186.80
-167.07
-144.70
-122.04
-100.77
-81.93
-66.45
-55.28
-49.12
-47.99
-50.79
-55.43
-59.52
-61.38
-60.64
-58.51
-57.19
-58.77
-64.15
-72.49
-81.32
-87.36
-87.66
-80.03
-64.03
-40.95
-13.27
16.26
45.38
73.00
99.03
124.06
149.59
176.24
203.32
229.18
252.28
271.85
288.49
303.08
315.96
328.21
339.18
346.61
347.88
341.84
329.15
313.08
297.80
287.84
290.64
311.03
348.87
398.12
448.51
488.26
509.21
507.74
485.46
451.61
414.36
377.41
339.87
299.54
255.40
210.95
170.42
113.79
32.88
-67.34
-172.05
-268.45
-346.96
-414.22
-471.58
-515.24
-539.78
-534.02
-493.95
-425.91
-345.41
-271.16
-218.97
-194.70
-195.63
-212.81
-232.36
-244.30
-245.03
-236.48
-222.33
-205.62
-186.22
-163.88
-139.58
-114.13
-90.56
-72.68
-63.32
-62.62
-67.95
-73.76
-74.59
-66.70
-48.06
-19.93
14.08
49.74
84.01
115.51
143.97
168.18
185.16
191.63
185.60
168.51
145.60
124.19
110.57
107.44
112.77
121.13
126.46
124.32
112.95
92.69
64.83
30.85
-7.60
-48.23
-87.89
-122.94
-150.12
-167.45
-174.72
-173.41
-165.96
-154.92
-142.29
-129.22
-116.28
-103.83
-92.35
-82.41
-74.40
-68.20
-63.03
-57.83
-51.69
-44.47
-36.85
-30.10
-25.39
-23.16
-22.84
-23.05
-22.23
-19.26
-13.83
-6.35
2.40
11.69
21.07
30.27
38.91
46.24
51.20
52.70
50.09
43.59
34.43
24.53
15.93
10.06
7.23
6.54
6.14
3.72
-2.75
-14.22
-29.72
-45.93
-57.29
-57.28
-40.64
-5.69
44.36
101.91
157.27
201.69
229.50
238.68
229.84
204.80
166.02
116.75
61.65
6.71
-41.89
-79.27
-102.85
-112.20
-108.12
-91.71
-64.34
-28.42
11.86
50.67
81.82
100.63
105.23
96.78
78.49
54.32
27.88
2.22
-20.17
-37.16
-47.16
-49.55
-45.08
-35.87
-24.84
-14.79
-7.60
-3.65
-2.02
-1.16
0.34
3.06
6.66
10.17
12.56
13.21
12.05
9.43
5.87
1.83
-2.29
-6.11
-9.25
-11.44
-12.62
-13.08
-13.33
-13.84
-14.87
-16.32
-17.86
-19.14
-20.00
-20.39
-20.30
-19.57
-17.91
-15.08
-11.11
-6.35
-1.43
3.02
6.61
9.25
11.09
12.35
13.11
13.30
12.74
11.38
9.40
7.25
5.53
4.79
5.26
6.78
8.80
10.64
11.75
11.88
11.21
10.12
9.00
8.05
7.19
6.18
4.81
3.03
0.95
-1.21
-3.28
-5.14
-6.76
-8.12
-9.11
-9.58
-9.39
-8.51
-7.06
-5.28
-3.45
-1.82
-0.52
0.42
1.04
1.39
1.53
1.42
1.03
0.32
-0.70
-1.94
-3.26
-4.48
-5.44
-6.03
-6.26
-6.21
-6.05
-6.03
-6.43
-7.48
-9.25
-11.60
-14.16
-16.43
-17.96
-18.49
-18.05
-16.87
-15.26
-13.46
-11.51
-9.32
-6.75
-3.82
-0.67
2.39
5.07
7.22
8.83
10.05
10.99
11.69
12.06
11.96
11.31
10.16
8.69
7.10
5.55
4.09
2.69
1.30
-0.08
-1.39
-2.52
-3.43
-4.14
-4.80
-5.58
-6.63
-8.00
-9.63
-11.35
-12.99
-14.42
-15.56
-16.39
-16.89
-17.06
-16.82
-16.06
-14.66
-12.57
-9.86
-6.74
-3.54
-0.59
1.90
3.92
5.60
7.10
8.50
9.73
10.58
10.89
10.66
10.07
9.42
8.96
8.75
8.64
8.45
8.00
7.33
6.60
5.99
5.54
5.10
4.42
3.27
1.61
-0.41
-2.46
-4.23
-5.50
-6.22
-6.48
-6.33
-5.84
-4.97
-3.70
-1.99
0.09
2.38
4.65
6.61
8.06
8.88
9.07
8.74
8.02
7.06
5.98
4.91
3.94
3.15
2.51
1.93
1.32
0.57
-0.27
-1.08
-1.68
-1.94
-1.89
-1.71
-1.70
-2.10
-3.02
-4.40
-6.07
-7.83
-9.52
-10.98
-12.04
-12.41
-11.71
-9.65
-6.23
-1.91
2.47
5.93
7.73
7.72
6.35
4.56
3.37
3.48
5.02
7.51
10.01
11.51
11.19
8.82
4.81
0.11
-4.11
-6.84
-7.63
-6.67
-4.75
-2.90
-1.98
-2.38
-3.89
-5.81
-7.28
-7.62
-6.67
-4.89
-3.14
-2.38
-3.16
-5.38
-8.27
-10.70
-11.59
-10.39
-7.24
-2.86
1.76
5.74
8.56
10.09
10.48
9.95
8.69
6.87
4.73
2.66
1.08
0.39
0.66
1.65
2.85
3.66
3.65
2.69
0.95
-1.18
-3.20
-4.65
-5.25
-4.95
-4.05
-3.11
-2.77
-3.52
-5.48
-8.31
-11.33
-13.82
-15.26
-15.48
-14.66
-13.15
-11.35
-9.53
-7.87
-6.39
-4.98
-3.44
-1.49
0.94
3.61
5.90
6.93
5.94
2.71
-2.22
-7.53
-11.63
-13.37
-12.66
-10.46
-8.55
-8.68
-11.85
-17.79
-25.06
-31.67
-36.13
-38.21
-38.91
-40.03
-43.30
-49.41
-57.51
-65.58
-71.11
-72.79
-71.28
-68.72
-68.02
-71.79
-81.05
-94.66
-109.20
-119.30
-119.74
-106.82
-78.19
-33.93
22.74
85.69
146.89
198.64
237.05
262.85
281.23
300.96
329.33
367.47
409.10
443.00
458.39
450.81
422.55
380.40
333.37
287.81
245.23
203.66
160.83
111.38
58.66
13.62
-22.71
-53.72
-83.15
-113.87
-146.56
-179.60
-210.15
-234.84
-252.41
-264.11
-270.59
-271.98
-268.47
-260.78
-250.54
-240.05
-230.80
-223.85
-219.70
-216.91
-213.56
-208.59
-201.96
-194.13
-185.39
-174.96
-162.00
-146.52
-128.87
-110.33
-92.96
-78.70
-68.44
-61.62
-56.27
-50.28
-42.44
-32.50
-21.42
-10.87
-2.41
3.19
6.24
7.91
9.52
11.83
14.99
18.53
21.73
24.00
25.12
25.24
24.74
24.06
23.62
23.84
24.95
27.00
29.62
32.14
33.73
33.79
32.13
29.01
25.02
20.70
16.42
12.39
8.72
5.62
3.35
2.15
2.02
2.72
3.84
4.88
5.44
5.28
4.34
2.82
1.08
-0.46
-1.45
-1.71
-1.33
-0.50
0.56
1.80
3.28
5.17
7.62
10.66
14.18
17.95
21.57
24.49
26.17
26.13
24.29
20.99
17.00
13.25
10.57
9.43
9.94
12.04
15.60
20.55
26.78
34.02
41.77
49.40
56.26
61.68
64.90
64.96
60.82
51.81
38.02
20.62
1.68
-16.47
-31.96
-43.71
-51.44
-55.20
-55.02
-50.78
-42.57
-31.16
-18.14
-5.63
4.48
11.17
14.62
15.90
16.34
16.86
17.71
18.53
18.84
18.37
17.29
16.07
15.16
14.75
14.73
14.80
14.63
14.06
13.08
11.83
10.50
9.35
8.65
8.66
9.58
11.55
14.54
18.43
22.93
27.65
32.09
35.72
38.08
38.89
38.16
36.19
33.47
30.56
27.85
25.51
23.46
21.51
19.48
17.29
15.00
12.77
10.76
9.05
7.61
6.28
4.89
3.28
1.40
-0.76
-3.13
-5.62
-8.08
-10.36
-12.17
-13.18
-13.07
-11.61
-8.80
-4.89
-0.34
4.29
8.46
11.75
13.89
14.75
14.35
12.84
10.46
7.58
4.57
1.76
-0.59
-2.40
-3.66
-4.48
-4.98
-5.30
-5.59
-6.00
-6.66
-7.63
-8.87
-10.26
-11.66
-12.96
-14.16
-15.37
-16.70
-18.18
-19.63
-20.75
-21.12
-20.43
-18.52
-15.47
-11.52
-7.04
-2.41
1.97
5.77
8.71
10.62
11.41
11.15
10.03
8.34
6.43
4.62
3.21
2.34
2.04
2.18
2.62
3.15
3.66
4.09
4.36
4.37
4.00
3.14
1.77
-0.01
-2.00
-4.04
-6.02
-7.87
-9.43
-10.45
-10.52
-9.24
-6.42
-2.23
2.81
7.98
12.59
16.18
18.59
19.86
20.13
19.54
18.21
16.28
13.94
11.48
9.15
7.14
5.51
4.15
2.92
1.72
0.53
-0.51
-1.26
-1.64
-1.76
-1.87
-2.29
-3.23
-4.74
-6.68
-8.75
-10.64
-12.10
-12.91
-12.89
-11.89
-9.82
-6.69
-2.73
1.71
6.16
10.18
13.39
15.56
16.60
16.55
15.59
13.96
11.96
9.89
7.97
6.39
5.19
4.38
3.87
3.56
3.31
3.01
2.58
1.98
1.20
0.24
-0.88
-2.16
-3.60
-5.17
-6.89
-8.75
-10.73
-12.76
-14.60
-15.89
-16.18
-15.07
-12.37
-8.23
-3.13
2.21
7.10
11.01
13.70
15.19
15.65
15.31
14.32
12.80
10.87
8.65
6.32
4.10
2.16
0.66
-0.36
-0.95
-1.27
-1.60
-2.22
-3.33
-4.97
-6.91
-8.81
-10.27
-11.14
-11.51
-11.80
-12.55
-14.23
-17.03
-20.66
-24.39
-27.30
-28.64
-28.10
-26.04
-23.36
-21.14
-20.07
-20.09
-20.30
-19.41
-16.46
-11.23
-4.39
2.72
8.60
12.21
13.25
12.33
10.97
11.36
16.34
28.41
48.29
73.99
100.95
123.69
137.98
142.58
139.14
131.82
124.95
120.73
118.60
116.23
111.68
104.78
96.98
89.58
83.55
78.53
72.34
61.88
44.37
18.96
-13.11
-49.24
-87.05
-123.11
-153.13
-173.05
-179.78
-172.40
-152.15
-122.61
-83.45
-41.01
-4.07
22.01
36.05
41.13
38.02
25.45
3.63
-25.92
-59.82
-91.50
-113.43
-120.75
-113.51
-96.79
-77.52
-61.03
-48.88
-39.13
-27.21
-9.03
15.96
44.48
71.09
91.49
104.33
110.92
113.57
114.61
115.14
114.63
111.44
103.77
90.79
72.93
51.61
28.85
7.12
-11.29
-24.99
-33.95
-39.66
-44.55
-51.49
-63.13
-81.24
-105.96
-135.38
-165.74
-191.91
-208.33
-210.07
-193.83
-158.81
-107.25
-44.52
21.60
82.22
129.28
157.48
165.61
156.57
136.10
110.57
85.05
62.32
43.01
26.71
13.25
3.34
-1.50
0.44
10.17
27.49
50.83
77.64
105.03
130.24
151.29
167.28
178.10
184.04
185.38
182.27
174.75
162.92
146.90
126.97
103.51
76.91
47.39
15.08
-19.69
-56.40
-94.61
-135.05
-179.15
-228.01
-280.89
-333.96
-380.05
-410.17
-416.37
-394.55
-346.98
-280.12
-201.68
-118.42
-35.72
41.64
108.66
160.17
191.85
199.58
183.46
148.66
103.19
53.95
3.90
-47.76
-103.70
-165.22
-233.79
-305.46
-370.45
-416.89
-436.91
-430.02
-402.19
-362.00
-316.86
-275.91
-243.93
-220.87
-204.38
-193.77
-190.96
-198.15
-215.28
-208.54
-158.39
-69.74
32.19
123.08
191.65
237.40
264.99
280.61
289.97
292.33
286.50
273.80
257.87
242.45
229.58
219.91
213.73
211.12
208.03
201.02
189.75
176.44
163.66
152.74
143.90
136.91
131.36
124.40
113.15
97.88
80.48
63.14
47.25
33.42
21.81
12.40
5.59
-0.73
-6.96
-12.54
-16.77
-19.29
-20.22
-19.84
-18.49
-16.95
-16.04
-15.72
-15.68
-15.57
-15.18
-14.49
-13.53
-12.36
-11.06
-9.91
-8.82
-7.77
-6.77
-5.80
-4.86
-3.94
-3.02
-2.10
-1.35
-0.68
-0.07
0.49
1.01
1.50
1.96
2.44
2.91
3.30
3.64
3.95
4.23
4.50
4.76
4.71
4.62
4.53
4.39
4.24
4.08
3.92
3.77
3.61
3.42
3.21
2.91
2.52
2.06
1.60
1.17
0.81
0.50
0.21
-0.10
-0.53
-1.10
-1.76
-2.43
-3.05
-3.58
-4.05
-4.52
-5.10
-5.94
-7.04
-8.30
-9.54
-10.58
-11.37
-11.98
-12.59
-13.55
-15.15
-17.44
-20.17
-22.85
-25.00
-26.43
-27.19
-27.62
-28.31
-29.56
-31.26
-32.62
-32.50
-29.88
-24.40
-16.87
-8.07
0.48
7.43
12.12
14.76
16.21
17.23
17.97
17.94
16.11
11.20
2.35
-10.95
-28.78
-50.58
-73.41
-94.36
-108.70
-111.65
-100.86
-77.93
-48.55
-20.42
-0.10
9.35
8.90
2.38
-6.21
-14.61
-22.62
-31.13
-40.96
-51.35
-60.95
-68.84
-74.99
-80.46
-86.70
-94.77
-104.57
-114.86
-123.50
-128.42
-128.22
-122.32
-111.05
-95.46
-76.14
-53.53
-27.93
0.40
30.81
62.04
92.41
120.03
142.17
157.89
167.18
170.72
169.67
165.31
158.71
150.69
141.79
132.93
124.08
115.23
106.54
98.20
90.35
83.04
76.26
69.89
63.84
58.10
52.66
47.53
42.71
38.21
33.99
30.04
26.36
22.93
19.76
16.86
14.23
11.86
9.72
7.81
6.10
4.57
3.22
2.03
1.01
0.15
-0.54
-1.09
-1.49
-1.78
-1.93
-1.96
-1.87
-1.66
-1.32
-0.87
-0.32
0.28
0.91
1.57
2.25
2.97
3.68
4.44
5.23
6.06
6.91
7.77
8.65
9.56
10.51
11.42
12.25
12.88
13.11
12.77
11.69
9.81
7.18
4.27
0.96
-2.60
-6.32
-10.11
-13.90
-17.56
-20.87
-23.50
-25.12
-25.59
-24.87
-23.20
-21.01
-18.78
-16.79
-15.08
-13.41
-11.37
-8.67
-5.24
-1.34
2.53
5.84
8.25
9.80
10.87
12.03
13.86
16.85
21.15
26.49
32.04
36.35
37.74
34.69
26.67
14.38
-0.30
-14.99
-27.56
-36.78
-42.31
-44.25
-42.63
-37.22
-27.98
-15.59
-1.90
10.54
19.33
23.30
22.95
20.00
16.53
13.94
12.32
10.70
7.67
2.14
-6.33
-17.43
-30.29
-43.66
-55.53
-63.56
-65.54
-60.23
-48.04
-31.33
-13.71
1.35
11.98
18.72
23.94
30.37
39.22
49.08
56.21
56.28
46.58
27.66
3.47
-20.22
-38.06
-47.39
-48.87
-45.71
-41.75
-39.53
-39.41
-39.89
-39.04
-35.86
-30.98
-26.19
-23.27
-22.79
-23.63
-23.67
-20.94
-14.92
-7.05
-0.19
2.77
0.25
-7.01
-16.25
-23.87
-26.92
-24.44
-17.57
-8.74
-0.42
6.05
10.74
14.61
18.46
22.12
24.45
24.08
20.55
14.91
9.47
6.72
8.08
13.24
20.40
27.34
32.44
35.23
36.02
35.32
33.20
29.43
23.91
17.26
10.76
5.89
3.47
3.15
3.70
3.64
2.05
-1.00
-4.75
-8.38
-11.56
-14.57
-18.03
-22.31
-27.14
-31.68
-34.80
-35.56
-33.51
-28.76
-21.89
-13.75
-5.36
2.12
7.53
9.98
9.19
5.78
1.29
-2.17
-2.61
1.12
8.74
18.40
27.21
32.19
31.41
24.82
14.38
3.31
-5.07
-8.64
-7.17
-2.38
2.88
5.73
4.38
-1.24
-9.56
-18.18
-24.93
-28.76
-30.10
-30.39
-31.26
-33.70
-37.65
-42.18
-45.96
-47.85
-47.22
-44.01
-38.67
-31.93
-24.68
-17.64
-11.21
-5.29
0.46
6.38
12.45
18.19
22.92
26.06
27.39
27.02
25.31
22.70
19.71
16.91
14.84
13.85
13.91
14.51
14.92
14.48
12.93
10.51
7.81
5.43
3.73
2.55
1.25
-1.12
-5.49
-12.22
-20.67
-29.10
-35.20
-36.92
-33.53
-26.06
-16.90
-8.75
-3.43
-1.16
-0.80
-0.60
0.77
3.79
8.06
12.88
17.65
22.21
26.64
31.05
35.26
38.66
40.37
39.47
35.43
28.55
19.96
11.55
5.26
2.28
2.43
4.05
4.55
1.59
-5.88
-16.96
-29.08
-39.07
-44.55
-45.04
-42.06
-38.42
-36.85
-38.81
-43.95
-50.48
-56.16
-59.24
-58.98
-55.59
-49.69
-41.86
-32.36
-21.29
-8.75
4.80
18.59
31.75
43.49
53.34
61.13
66.88
70.70
72.69
73.06
72.14
70.44
68.57
67.13
66.53
66.86
67.82
68.86
69.29
68.49
66.05
61.88
56.26
49.69
42.78
35.93
29.24
22.43
15.05
6.73
-2.46
-11.86
-20.35
-26.67
-29.83
-29.45
-25.87
-19.99
-12.97
-5.99
-0.11
3.81
5.20
3.94
0.56
-3.74
-7.39
-9.01
-7.93
-4.51
0.10
4.43
7.28
8.11
7.10
4.94
2.57
0.80
0.09
0.45
1.50
2.67
3.43
3.44
2.61
0.92
-1.69
-5.32
-9.92
-15.08
-20.00
-23.73
-25.56
-25.49
-24.18
-22.63
-21.59
-21.07
-20.32
-18.28
-14.18
-8.12
-1.16
5.08
9.06
10.05
8.43
5.49
2.93
2.05
3.30
6.10
9.15
11.09
11.12
9.32
6.53
3.94
2.43
2.24
2.93
3.75
4.05
3.50
2.08
-0.21
-3.56
-8.29
-14.51
-21.75
-28.82
-34.14
-36.34
-34.84
-30.11
-23.36
-16.00
-9.20
-3.63
0.34
2.36
2.10
-0.50
-4.93
-9.93
-13.79
-15.06
-13.26
-9.14
-4.48
-1.25
-0.75
-3.13
-7.44
-12.16
-15.88
-17.87
-18.08
-17.01
-15.37
-13.91
-13.39
-14.54
-17.80
-23.01
-29.23
-34.88
-38.42
-38.94
-36.58
-32.33
-27.34
-22.34
-17.37
-12.04
-6.12
0.11
5.78
9.93
11.99
12.12
11.15
10.21
10.18
11.36
13.28
15.01
15.60
14.65
12.55
10.22
8.44
7.28
5.99
3.60
-0.34
-5.21
-9.59
-12.04
-12.11
-10.74
-9.84
-11.21
-15.54
-21.92
-28.28
-32.35
-32.59
-28.67
-21.33
-11.90
-1.84
7.50
15.04
20.02
22.18
21.81
19.72
17.04
14.81
13.68
13.81
14.87
16.29
17.35
17.45
16.20
13.61
10.18
6.76
4.22
3.06
3.12
3.64
3.63
2.32
-0.59
-4.91
-10.10
-15.51
-20.45
-24.22
-26.25
-26.18
-24.03
-20.18
-15.19
-9.50
-3.32
3.30
10.21
16.82
22.22
25.40
25.81
23.66
20.01
16.36
14.00
13.55
14.67
16.34
17.33
16.75
14.40
10.74
6.67
3.10
0.61
-0.76
-1.41
-2.02
-3.15
-5.13
-7.91
-11.30
-15.26
-20.05
-26.17
-33.94
-43.04
-52.28
-59.94
-64.46
-65.08
-62.18
-57.15
-51.77
-47.63
-45.72
-46.33
-49.18
-53.75
-59.43
-65.89
-73.21
-81.70
-91.68
-103.12
-115.45
-127.87
-139.92
-151.52
-162.63
-172.72
-180.96
-187.09
-192.38
-199.69
-211.87
-229.60
-249.78
-266.13
-271.79
-262.71
-239.33
-205.91
-167.75
-128.22
-87.70
-44.73
1.67
50.49
98.92
144.22
185.71
225.39
267.09
315.01
372.01
438.41
511.60
586.15
654.64
709.21
743.51
754.56
743.37
714.19
672.64
623.65
570.54
515.28
459.67
406.01
356.98
314.23
277.13
242.45
205.47
161.78
108.80
46.63
-21.69
-90.11
-150.19
-192.80
-210.90
-202.66
-173.07
-132.93
-94.90
-68.78
-58.27
-61.06
-72.01
-87.03
-105.41
-128.89
-158.65
-192.50
-224.50
-247.39
-256.08
-250.22
-233.98
-213.82
-195.24
-180.56
-168.40
-154.88
-135.77
-108.61
-74.13
-36.54
-2.77
19.33
23.48
7.31
-26.26
-69.43
-111.96
-144.63
-162.28
-165.09
-157.64
-146.39
-136.80
-131.71
-131.20
-133.88
-138.41
-144.41
-152.32
-162.45
-173.88
-184.16
-190.10
-189.09
-180.32
-165.21
-146.77
-128.37
-112.29
-99.10
-87.78
-76.75
-64.96
-52.65
-41.32
-32.86
-28.51
-28.01
-29.62
-30.86
-29.63
-25.03
-17.60
-8.90
-0.70
5.58
9.27
10.46
9.79
8.32
7.18
7.25
8.70
10.91
12.65
12.72
10.52
6.26
0.69
-5.51
-12.11
-19.31
-27.14
-34.93
-41.17
-44.05
-42.27
-35.75
-25.64
-13.84
-2.22
7.96
16.17
22.38
26.68
29.12
29.75
28.75
26.63
24.19
22.26
21.45
21.88
23.18
24.60
25.30
24.70
22.63
19.39
15.58
11.79
8.37
5.32
2.39
-0.75
-4.24
-8.01
-11.90
-15.91
-20.33
-25.71
-32.53
-40.79
-49.68
-57.54
-62.40
-62.64
-57.60
-47.82
-34.82
-20.55
-6.82
5.11
14.54
21.19
25.05
26.32
25.43
23.13
20.44
18.36
17.69
18.77
21.40
24.95
28.61
31.61
33.52
34.30
34.27
33.90
33.55
33.29
32.98
32.37
31.38
30.08
28.57
26.67
23.81
19.32
12.85
4.91
-3.04
-9.03
-11.27
-8.96
-2.52
6.61
16.59
25.81
33.29
38.71
42.33
44.62
46.14
47.27
48.20
48.93
49.41
49.69
49.99
50.56
51.55
52.75
53.64
53.68
52.62
50.67
48.42
46.41
44.74
43.00
40.53
36.85
31.99
26.38
20.59
14.90
9.17
3.12
-3.25
-9.39
-14.17
-16.35
-15.08
-10.32
-2.74
6.53
16.30
25.49
33.27
38.93
42.01
42.41
40.53
37.21
33.56
30.54
28.72
28.11
28.27
28.56
28.36
27.30
25.30
22.63
19.84
17.48
15.91
15.06
14.41
13.25
11.05
7.68
3.43
-1.29
-6.25
-11.49
-17.08
-22.80
-27.86
-31.07
-31.24
-27.75
-20.82
-11.46
-1.11
8.91
17.60
24.45
29.27
32.06
32.92
32.10
30.02
27.28
24.55
22.34
20.92
20.21
19.95
19.89
19.90
19.96
20.05
19.97
19.39
17.92
15.31
11.55
6.90
1.79
-3.24
-7.66
-11.08
-13.34
-14.67
-15.64
-17.03
-19.37
-22.60
-25.87
-27.85
-27.29
-23.64
-17.29
-9.34
-1.11
6.40
12.71
17.73
21.49
23.92
24.85
24.19
22.25
19.77
17.77
17.13
18.18
20.49
23.02
24.58
24.44
22.62
19.88
17.29
15.61
14.98
14.95
14.82
14.11
12.69
10.64
8.04
4.84
1.06
-3.01
-6.81
-9.80
-11.88
-13.60
-15.87
-19.34
-23.81
-28.12
-30.66
-30.17
-26.41
-20.15
-12.69
-5.25
1.45
7.21
11.95
15.46
17.32
17.12
14.81
10.87
6.32
2.33
-0.15
-0.70
0.41
2.36
4.12
4.83
4.13
2.23
-0.14
-2.17
-3.17
-2.89
-1.58
0.15
1.54
2.01
1.34
-0.26
-2.29
-4.26
-6.03
-7.87
-10.25
-13.51
-17.48
-21.38
-24.12
-24.71
-22.72
-18.44
-12.76
-6.78
-1.42
2.81
5.80
7.71
8.72
8.96
8.49
7.45
6.27
5.66
6.37
8.78
12.61
16.85
20.20
21.70
21.15
19.12
16.57
14.25
12.37
10.69
8.88
6.89
5.01
3.61
2.76
2.01
0.43
-2.96
-8.82
-17.18
-27.34
-38.01
-47.54
-54.35
-57.27
-55.95
-50.91
-43.43
-35.15
-27.57
-21.75
-18.18
-16.91
-17.68
-20.03
-23.30
-26.77
-29.84
-32.20
-34.02
-35.76
-37.92
-40.54
-43.03
-44.22
-42.88
-38.26
-30.41
-20.31
-9.51
0.34
7.92
12.54
14.25
13.75
12.11
10.46
9.62
9.89
11.08
12.59
13.66
13.58
11.93
8.68
4.27
-0.48
-4.54
-6.96
-7.19
-5.32
-2.11
1.28
3.69
4.33
3.07
0.36
-2.94
-5.94
-7.91
-8.50
-7.70
-5.85
-3.45
-1.08
0.84
2.12
2.84
3.32
3.90
4.86
6.21
7.76
9.15
9.97
9.85
8.56
6.05
2.54
-1.56
-5.76
-9.71
-13.37
-16.93
-20.61
-24.34
-27.56
-29.45
-29.27
-26.78
-22.32
-16.66
-10.57
-4.54
1.24
6.58
11.09
14.16
15.30
14.51
12.56
10.69
10.13
11.50
14.54
18.19
21.14
22.37
21.54
18.98
15.51
12.08
9.45
8.06
7.94
8.72
9.80
10.55
10.45
9.27
7.07
4.11
0.82
-2.45
-5.51
-8.32
-11.04
-13.91
-17.08
-20.54
-24.01
-26.94
-28.67
-28.55
-26.23
-21.73
-15.49
-8.30
-1.10
5.20
9.95
12.89
14.17
14.24
13.62
12.80
12.19
12.13
12.83
14.34
16.40
18.45
19.78
19.88
18.72
16.85
15.12
14.24
14.43
15.28
16.06
16.12
15.19
13.38
10.92
7.96
4.52
0.64
-3.39
-6.98
-9.44
-10.40
-10.02
-9.01
-8.35
-8.79
-10.64
-13.67
-17.37
-21.11
-24.33
-26.47
-26.99
-25.40
-21.46
-15.34
-7.71
0.44
8.16
14.80
20.17
24.35
27.50
29.62
30.57
30.16
28.40
25.44
21.58
17.10
12.16
6.88
1.40
-3.95
-8.68
-12.33
-14.64
-15.76
-16.18
-16.53
-17.16
-18.01
-18.66
-18.66
-17.91
-16.87
-16.36
-17.19
-19.67
-23.43
-27.56
-31.02
-33.02
-33.26
-31.82
-28.96
-25.03
-20.43
-15.70
-11.56
-8.73
-7.64
-8.17
-9.66
-11.17
-11.87
-11.29
-9.49
-6.89
-4.11
-1.68
0.07
1.03
1.24
0.87
0.10
-0.87
-1.86
-2.74
-3.48
-4.19
-5.08
-6.36
-8.22
-10.70
-13.78
-17.37
-21.32
-25.38
-29.18
-32.24
-34.02
-34.09
-32.18
-28.25
-22.43
-14.91
-5.81
4.75
16.50
28.80
40.61
50.60
57.44
60.10
58.07
51.42
40.91
27.99
14.68
3.32
-4.04
-6.20
-3.38
2.87
10.16
16.16
19.37
19.52
17.26
13.60
9.37
5.05
0.93
-2.77
-5.77
-7.94
-9.40
-10.64
-12.22
-14.54
-17.50
-20.47
-22.47
-22.39
-19.43
-13.44
-4.99
4.65
13.87
21.28
26.10
28.38
28.81
28.29
27.48
26.59
25.54
24.26
22.92
21.99
22.02
23.30
25.67
28.53
31.03
32.46
32.45
31.10
28.87
26.28
23.70
21.15
18.37
15.03
10.96
6.38
1.68
-2.69
-6.55
-9.99
-13.20
-16.16
-18.51
-19.60
-18.83
-16.05
-11.71
-6.77
-2.31
0.84
2.42
2.66
2.10
1.38
1.00
1.18
1.82
2.49
2.61
1.68
-0.42
-3.26
-5.99
-7.66
-7.71
-6.22
-3.81
-1.38
0.31
0.85
0.15
-1.72
-4.76
-8.89
-13.90
-19.28
-24.24
-28.07
-30.58
-32.28
-34.18
-37.36
-42.21
-48.04
-53.13
-55.19
-52.04
-42.31
-25.88
-4.00
20.94
45.80
67.24
82.38
89.45
88.30
80.42
68.44
55.24
42.82
31.79
21.59
11.29
0.76
-8.87
-15.55
-17.45
-14.22
-7.61
-0.92
2.43
0.40
-6.95
-17.74
-29.33
-39.42
-46.62
-50.41
-50.92
-48.84
-45.70
-43.66
-45.04
-50.97
-60.35
-69.77
-74.68
-71.52
-59.64
-41.87
-23.33
-9.29
-2.84
-3.87
-9.48
-15.48
-18.22
-15.84
-8.80
0.73
9.74
15.52
16.57
13.01
6.26
-1.67
-8.99
-14.76
-18.99
-22.23
-24.93
-27.02
-27.92
-26.94
-23.76
-18.64
-12.20
-5.04
2.64
11.07
20.48
30.53
39.87
46.34
47.91
43.82
35.37
25.76
18.97
18.09
24.10
35.64
49.67
62.80
72.21
76.00
73.09
63.06
46.49
25.55
4.19
-12.61
-20.48
-17.50
-5.21
11.85
27.80
37.45
37.87
28.86
12.60
-7.29
-26.64
-41.64
-49.58
-49.35
-41.69
-28.83
-13.87
0.10
10.66
16.49
17.49
14.75
10.24
6.31
4.96
7.07
12.08
18.15
23.00
24.92
23.48
19.56
14.81
10.95
9.06
9.37
11.31
13.81
15.72
16.13
14.66
11.48
7.26
2.71
-1.57
-5.30
-8.41
-10.84
-12.41
-12.79
-11.70
-9.02
-4.87
0.46
6.70
13.54
20.61
27.27
32.64
35.84
36.36
34.44
31.06
27.53
24.95
23.71
23.44
23.31
22.62
21.10
18.99
16.79
14.81
13.04
11.24
9.23
7.24
5.81
5.50
6.37
7.73
8.26
6.63
2.23
-4.30
-11.30
-16.75
-19.27
-18.77
-16.44
-14.03
-12.87
-13.16
-13.91
-13.73
-11.78
-8.48
-5.39
-4.25
-5.97
-9.90
-14.22
-16.88
-16.91
-14.89
-12.67
-12.16
-14.19
-18.04
-21.93
-24.20
-24.35
-23.29
-22.74
-24.14
-27.89
-33.18
-38.64
-43.00
-45.72
-46.97
-47.27
-47.02
-46.28
-44.91
-42.83
-40.25
-37.62
-35.24
-32.99
-30.20
-26.09
-20.20
-12.89
-5.23
1.49
6.37
9.29
10.78
11.58
12.16
12.63
12.95
13.31
14.17
15.96
18.61
21.28
22.57
21.12
16.35
8.75
-0.28
-8.94
-15.61
-19.33
-19.82
-17.43
-12.95
-7.48
-2.29
1.43
2.83
1.73
-1.19
-4.45
-6.23
-5.02
-0.24
7.51
16.62
25.11
31.39
34.74
35.39
34.20
32.11
29.77
27.41
25.04
22.68
20.55
18.99
18.23
18.08
17.94
17.01
14.69
10.93
6.32
1.86
-1.56
-3.55
-4.46
-5.21
-6.88
-10.17
-15.06
-20.77
-26.02
-29.49
-30.26
-28.07
-23.32
-16.77
-9.31
-1.68
5.60
12.12
17.47
21.25
23.19
23.31
22.08
20.22
18.52
17.47
17.06
16.90
16.47
15.47
13.94
12.26
10.87
10.06
9.78
9.76
9.68
9.36
8.71
7.72
6.27
4.20
1.31
-2.36
-6.53
-10.77
-14.68
-18.09
-21.04
-23.61
-25.70
-26.98
-26.93
-25.10
-21.36
-15.97
-9.51
-2.77
3.43
8.36
11.49
12.67
12.19
10.77
9.28
8.45
8.53
9.25
9.99
10.14
9.50
8.31
7.10
6.48
6.79
7.99
9.62
10.79
10.39
7.26
0.69
-9.18
-21.08
-32.83
-41.94
-46.57
-46.22
-41.90
-35.68
-29.82
-25.87
-24.31
-24.59
-25.72
-26.77
-27.16
-26.67
-25.23
-22.86
-19.59
-15.56
-10.98
-6.11
-1.16
3.74
8.41
12.52
15.63
17.38
17.73
17.08
16.08
15.33
15.04
14.99
14.73
13.98
12.88
11.94
11.80
12.82
14.85
17.31
19.38
20.31
19.63
17.21
13.28
8.29
2.87
-2.35
-6.86
-10.30
-12.53
-13.53
-13.47
-12.61
-11.18
-9.37
-7.10
-4.03
0.31
6.31
13.78
21.88
29.18
34.20
36.07
35.01
32.29
29.62
28.30
28.55
29.45
29.53
27.72
23.98
19.38
15.49
13.52
13.64
14.89
15.73
14.65
10.81
4.19
-4.58
-14.49
-24.46
-33.41
-40.45
-44.96
-46.68
-45.80
-42.86
-38.75
-34.55
-31.28
-29.49
-29.11
-29.12
-27.96
-24.07
-16.62
-6.07
5.94
17.12
25.32
29.16
28.24
23.05
14.76
5.02
-4.19
-10.89
-13.55
-11.67
-6.02
1.46
8.26
12.09
11.48
6.13
-3.16
-14.76
-26.67
-36.96
-44.20
-47.89
-48.53
-47.28
-45.71
-44.95
-45.56
-47.40
-49.74
-51.62
-52.03
-50.10
-45.07
-36.60
-24.94
-11.20
2.61
14.03
20.86
22.09
18.40
12.06
6.07
3.02
4.03
8.45
14.43
19.83
23.43
25.10
25.70
26.09
26.44
25.97
23.24
17.07
7.23
-5.05
-17.35
-26.71
-30.73
-28.41
-20.58
-9.73
0.95
8.58
11.54
9.78
4.52
-2.30
-8.73
-13.08
-14.17
-11.34
-4.56
5.44
17.20
28.81
38.37
44.54
46.95
45.99
42.76
38.43
33.97
29.89
26.23
22.79
19.39
16.09
13.22
11.18
10.16
9.85
9.56
8.47
6.06
2.48
-1.62
-5.39
-8.34
-10.57
-12.69
-15.39
-18.92
-22.79
-25.94
-27.13
-25.56
-21.21
-14.79
-7.40
-0.03
6.70
12.53
17.30
20.80
22.65
22.56
20.55
17.05
12.85
8.76
5.33
2.72
0.75
-0.89
-2.41
-3.85
-5.05
-5.77
-5.85
-5.28
-4.31
-3.40
-3.08
-3.84
-5.91
-9.26
-13.62
-18.52
-23.45
-27.77
-30.86
-32.09
-31.01
-27.46
-21.63
-14.02
-5.32
3.74
12.42
20.00
25.74
29.09
29.85
28.37
25.57
22.60
20.40
19.31
18.98
18.67
17.64
15.65
12.93
10.03
7.36
5.00
2.61
-0.20
-3.61
-7.42
-11.15
-14.44
-17.34
-20.19
-23.35
-26.70
-29.49
-30.58
-29.05
-24.77
-18.57
-11.82
-5.73
-0.72
3.59
7.99
12.96
18.18
22.68
25.33
25.48
23.40
20.09
16.88
14.78
14.17
14.74
15.78
16.57
16.73
16.23
15.36
14.38
13.43
12.35
10.89
8.82
6.13
3.01
-0.25
-3.43
-6.51
-9.56
-12.59
-15.38
-17.36
-17.82
-16.12
-12.07
-5.95
1.53
9.41
16.83
23.12
27.85
30.77
31.81
31.08
28.91
25.87
22.66
19.91
17.99
16.93
16.46
16.15
15.58
14.51
12.87
10.77
8.40
5.94
3.51
1.19
-1.02
-3.12
-5.23
-7.56
-10.44
-14.23
-19.04
-24.60
-30.17
-34.75
-37.34
-37.28
-34.49
-29.38
-22.75
-15.48
-8.44
-2.31
2.42
5.55
7.12
7.45
6.95
6.02
4.93
3.78
2.57
1.35
0.20
-0.74
-1.39
-1.79
-2.14
-2.66
-3.50
-4.66
-6.04
-7.54
-9.11
-10.78
-12.59
-14.56
-16.72
-19.10
-21.76
-24.71
-27.75
-30.47
-32.26
-32.54
-30.95
-27.48
-22.43
-16.21
-9.17
-1.63
6.01
13.15
18.99
22.81
24.30
23.74
21.98
20.06
18.79
18.49
18.88
19.42
19.59
19.19
18.36
17.38
16.46
15.53
14.35
12.67
10.48
8.03
5.70
3.71
1.97
0.14
-2.12
-4.92
-8.10
-11.43
-14.74
-18.13
-21.69
-25.29
-28.36
-29.99
-29.27
-25.69
-19.39
-11.16
-2.14
6.51
13.87
19.40
22.91
24.58
24.83
24.28
23.53
23.13
23.35
24.19
25.28
25.97
25.49
23.38
19.84
15.85
12.88
12.33
14.73
19.33
24.25
27.03
25.66
19.30
8.74
-3.76
-15.18
-22.66
-24.43
-20.43
-12.42
-3.45
3.15
4.88
0.83
-8.11
-19.77
-31.48
-40.93
-46.73
-48.66
-47.53
-44.79
-42.09
-40.68
-41.04
-42.61
-43.89
-42.99
-38.36
-29.48
-17.16
-3.40
9.32
18.81
23.84
24.40
21.57
17.01
12.54
9.58
8.99
10.91
14.80
19.59
23.96
26.67
27.04
25.12
21.76
18.32
16.12
15.95
17.71
20.45
22.81
23.57
22.24
19.21
15.58
12.55
10.84
10.35
10.20
9.29
6.79
2.67
-2.42
-7.48
-11.70
-14.90
-17.43
-19.86
-22.49
-25.12
-27.11
-27.67
-26.29
-22.96
-18.07
-12.22
-5.98
0.22
6.05
11.19
15.28
17.99
19.19
19.08
18.14
17.02
16.34
16.47
17.44
18.97
20.55
21.73
22.25
22.13
21.65
21.18
21.00
21.12
21.22
20.85
19.62
17.47
14.74
11.99
9.75
8.23
7.26
6.43
5.31
3.65
1.48
-0.97
-3.41
-5.60
-7.43
-8.97
-10.48
-12.37
-15.02
-18.56
-22.69
-26.69
-29.58
-30.54
-29.14
-25.48
-20.02
-13.33
-5.96
1.56
8.64
14.51
18.38
19.70
18.36
14.87
10.16
5.34
1.39
-1.08
-1.87
-1.22
0.32
2.04
3.31
3.77
3.48
2.82
2.32
2.34
2.87
3.55
3.92
3.60
2.48
0.62
-1.88
-5.06
-9.00
-13.66
-18.71
-23.54
-27.53
-30.39
-32.37
-34.15
-36.45
-39.55
-43.06
-46.03
-47.36
-46.33
-42.87
-37.51
-31.12
-24.46
-17.99
-11.93
-6.38
-1.53
2.32
4.82
5.79
5.41
4.15
2.70
1.75
1.74
2.79
4.61
6.65
8.29
9.04
8.81
7.86
6.74
6.04
6.06
6.65
7.27
7.18
5.82
3.10
-0.56
-4.38
-7.65
-10.09
-12.00
-13.97
-16.58
-19.87
-23.24
-25.68
-26.20
-24.33
-20.25
-14.61
-8.18
-1.58
4.78
10.61
15.53
19.14
21.14
21.56
20.84
19.74
19.03
19.15
20.12
21.45
22.50
22.66
21.68
19.69
17.16
14.64
12.63
11.34
10.69
10.33
9.82
8.80
7.08
4.75
2.04
-0.81
-3.75
-6.95
-10.63
-14.91
-19.50
-23.75
-26.79
-27.85
-26.51
-22.86
-17.35
-10.60
-3.29
3.96
10.62
16.20
20.36
22.96
24.11
24.16
23.58
22.81
22.14
21.62
21.12
20.38
19.24
17.71
16.02
14.48
13.36
12.71
12.35
11.90
10.94
9.06
6.08
2.10
-2.42
-6.79
-10.35
-12.78
-14.32
-15.66
-17.59
-20.58
-24.53
-28.79
-32.52
-34.99
-35.73
-34.48
-31.09
-25.55
-18.23
-10.05
-2.47
3.00
5.35
4.53
1.45
-2.38
-5.51
-6.96
-6.40
-4.02
-0.33
3.95
7.97
10.77
11.46
9.49
4.89
-1.67
-8.99
-15.80
-21.05
-24.30
-25.68
-25.83
-25.60
-25.82
-27.06
-29.47
-32.75
-36.21
-38.86
-39.64
-37.58
-32.00
-22.74
-10.32
3.93
18.01
29.64
36.78
38.33
34.48
26.80
17.77
10.09
5.85
5.92
9.72
15.47
20.85
23.82
23.24
19.20
12.78
5.56
-1.04
-6.01
-8.94
-9.88
-9.28
-7.96
-7.06
-7.74
-10.82
-16.27
-22.96
-29.02
-32.33
-31.41
-25.90
-16.67
-5.45
5.74
15.23
22.08
26.13
27.90
28.23
27.95
27.59
27.27
26.77
25.77
24.05
21.74
19.24
17.08
15.65
15.02
14.90
14.83
14.36
13.31
11.75
9.90
7.93
5.82
3.39
0.31
-3.66
-8.58
-14.15
-19.77
-24.46
-27.18
-27.05
-23.66
-17.37
-9.11
-0.13
8.43
15.90
22.09
27.08
30.89
33.39
34.36
33.69
31.60
28.66
25.63
23.16
21.59
20.90
20.74
20.64
20.15
18.96
17.01
14.48
11.68
8.93
6.43
4.18
2.01
-0.32
-3.06
-6.41
-10.50
-15.38
-20.93
-26.71
-31.97
-35.71
-36.95
-35.08
-30.09
-22.62
-13.82
-4.94
2.92
9.08
13.33
15.80
16.81
16.64
15.55
13.78
11.66
9.64
8.20
7.71
8.10
8.81
8.91
7.40
3.73
-1.83
-8.01
-12.90
-14.70
-12.56
-7.08
-0.15
5.78
8.66
7.39
1.95
-6.98
-18.40
-31.08
-43.37
-53.10
-57.87
-55.97
-47.18
-33.16
-16.94
-1.72
10.22
18.07
22.22
23.61
23.11
21.39
19.13
17.19
16.45
17.33
19.31
20.92
20.40
16.76
10.52
3.72
-0.89
-1.18
3.35
11.20
19.54
25.35
26.60
22.85
15.26
5.98
-2.66
-8.85
-11.77
-11.69
-9.85
-8.02
-7.93
-10.64
-16.21
-23.55
-30.73
-35.50
-35.95
-31.02
-20.89
-6.97
8.29
22.10
31.93
36.29
35.10
29.72
22.50
15.93
11.91
11.20
13.32
16.84
19.92
20.98
19.12
14.45
8.04
1.54
-3.32
-5.30
-4.15
-0.63
3.77
7.40
9.02
8.11
4.98
0.52
-4.08
-7.73
-9.68
-9.81
-8.69
-7.44
-7.33
-9.20
-13.05
-17.84
-21.80
-23.04
-20.31
-13.45
-3.50
7.60
17.71
25.13
29.10
29.93
28.75
26.99
25.77
25.60
26.29
27.19
27.59
27.05
25.53
23.33
20.91
18.76
17.20
16.33
15.96
15.49
14.04
10.73
5.09
-2.53
-10.78
-17.76
-21.75
-22.07
-19.51
-16.02
-13.94
-15.02
-19.87
-27.93
-37.78
-47.71
-56.01
-61.22
-62.35
-59.22
-52.57
-44.05
-35.65
-29.02
-24.77
-22.40
-20.67
-18.32
-14.59
-9.51
-3.70
1.93
6.51
9.35
10.10
8.81
6.02
2.70
0.03
-1.06
-0.16
2.46
5.88
8.98
10.75
10.70
8.91
6.03
2.96
0.55
-0.66
-0.66
0.13
1.01
1.23
0.24
-2.22
-6.01
-10.67
-15.41
-19.30
-21.48
-21.39
-18.98
-14.69
-9.27
-3.49
2.13
7.39
12.31
16.95
21.21
24.83
27.50
28.96
29.21
28.47
27.17
25.86
24.97
24.67
24.81
24.97
24.64
23.50
21.59
19.26
16.98
15.08
13.63
12.45
11.29
9.92
8.22
6.14
3.69
0.99
-1.80
-4.53
-7.21
-10.03
-13.27
-17.07
-21.17
-24.82
-26.91
-26.46
-22.99
-16.77
-8.84
-0.70
5.98
9.79
9.93
6.52
0.79
-5.12
-8.77
-8.36
-3.47
4.68
13.67
20.78
23.95
22.30
16.20
7.01
-3.27
-12.36
-18.13
-19.15
-15.27
-7.93
0.08
5.44
5.57
-0.52
-11.79
-25.65
-38.94
-48.96
-54.31
-55.01
-52.30
-47.98
-43.79
-40.82
-39.35
-38.90
-38.58
-37.43
-34.71
-29.98
-23.18
-14.68
-5.25
3.93
11.50
16.40
18.22
17.48
15.38
13.37
12.54
13.26
15.10
17.20
18.71
19.17
18.64
17.53
16.35
15.41
14.73
14.05
13.06
11.48
9.20
6.21
2.62
-1.50
-6.12
-11.09
-16.13
-20.69
-24.03
-25.47
-24.61
-21.48
-16.47
-10.14
-3.02
4.49
12.12
19.50
26.12
31.33
34.57
35.56
34.51
32.01
28.85
25.78
23.24
21.30
19.78
18.39
16.91
15.30
13.63
11.95
10.23
8.35
6.16
3.64
0.89
-1.89
-4.57
-7.17
-9.91
-13.10
-16.93
-21.27
-25.63
-29.25
-31.34
-31.29
-28.92
-24.47
-18.63
-12.23
-6.08
-0.64
4.11
8.57
13.28
18.59
24.36
29.97
34.46
36.87
36.50
33.17
27.19
19.53
11.66
5.36
2.29
3.41
8.49
15.99
23.39
28.02
27.96
22.75
13.51
2.58
-7.35
-14.07
-16.59
-15.47
-12.54
-10.33
-11.05
-15.80
-23.98
-33.40
-41.01
-43.95
-40.53
-30.89
-17.00
-2.02
10.70
18.65
20.90
18.23
12.73
6.93
2.92
1.68
2.98
5.71
8.38
9.73
9.01
6.12
1.57
-3.61
-8.13
-10.78
-10.82
-8.35
-4.29
-0.19
2.38
2.21
-1.25
-7.91
-17.18
-28.10
-39.24
-48.89
-55.30
-57.18
-54.18
-47.03
-37.34
-27.05
-17.85
-10.69
-5.67
-2.24
0.44
2.94
5.24
6.60
5.91
2.31
-4.19
-12.42
-20.42
-26.25
-28.86
-28.54
-26.69
-25.03
-24.80
-26.26
-28.73
-31.19
-32.76
-33.28
-33.37
-34.26
-37.30
-43.36
-52.34
-62.93
-72.93
-79.91
-82.17
-79.33
-72.48
-63.57
-54.48
-46.12
-38.11
-29.26
-18.42
-5.48
8.31
20.71
29.36
32.54
29.78
22.03
11.70
2.63
-0.13
9.01
34.66
78.36
136.89
202.11
262.69
307.67
330.05
328.87
308.80
277.38
241.66
205.77
170.63
135.33
99.15
62.99
29.13
0.12
-22.67
-39.67
-52.63
-63.45
-73.05
-81.04
-86.10
-87.03
-83.73
-77.46
-70.45
-64.96
-62.32
-62.42
-63.91
-64.86
-63.71
-59.80
-53.60
-46.37
-39.58
-34.32
-30.96
-29.13
-28.00
-26.73
-24.86
-22.45
-19.99
-18.05
-17.03
-17.01
-17.75
-18.96
-20.36
-21.75
-22.98
-23.88
-24.26
-24.03
-23.21
-21.74
-19.33
-15.44
-9.60
-1.89
6.68
14.25
18.75
18.78
14.36
7.02
-0.67
-6.26
-8.38
-7.23
-4.45
-2.48
-3.92
-10.63
-22.91
-38.78
-53.92
-62.28
-57.42
-34.64
6.87
62.79
124.11
179.64
219.55
238.19
235.16
214.79
183.90
149.29
115.98
86.52
61.75
42.10
27.73
18.12
12.01
7.26
1.38
-7.62
-20.55
-36.37
-52.03
-64.07
-70.59
-72.05
-71.56
-73.91
-81.79
-95.44
-115.56
-139.68
-161.96
-178.42
-187.79
-191.41
-191.79
-190.88
-189.33
-186.39
-180.48
-170.85
-158.47
-145.02
-131.77
-118.82
-105.21
-90.00
-73.06
-54.99
-37.19
-21.32
-8.28
2.21
11.24
20.03
29.21
38.65
47.95
56.49
63.47
68.33
70.77
70.75
68.59
64.92
60.74
57.31
55.72
56.47
59.35
63.43
67.26
69.23
67.98
62.85
54.14
43.07
31.46
21.26
13.98
10.27
9.83
11.72
14.89
18.57
22.49
26.69
31.30
36.33
41.57
46.72
51.36
55.04
57.30
57.74
56.15
52.59
47.47
41.46
35.36
29.99
26.11
24.20
24.34
26.00
28.13
29.36
28.61
25.48
20.48
14.77
9.67
6.06
4.00
2.76
1.21
-1.79
-6.96
-14.31
-22.99
-31.29
-37.14
-38.79
-35.53
-27.89
-17.42
-6.01
4.83
14.38
22.76
30.23
36.53
40.72
41.72
39.09
33.44
26.33
19.65
15.27
13.97
15.19
17.41
19.25
20.20
20.53
20.84
21.44
23.07
25.74
28.46
29.44
27.36
22.15
15.12
8.27
3.54
3.42
8.64
17.22
25.02
28.28
25.92
19.82
13.64
11.28
17.45
34.80
62.64
96.78
131.66
162.31
184.77
196.39
183.68
140.78
75.11
4.73
-54.42
-96.45
-124.18
-143.93
-160.92
-176.87
-187.80
-189.31
-177.01
-150.49
-112.80
-68.85
-23.98
17.56
53.67
82.39
104.00
120.61
133.37
142.26
147.27
152.08
159.96
175.01
201.00
238.71
284.00
328.15
361.30
376.83
368.36
337.47
291.35
239.67
190.64
148.18
111.33
76.92
42.66
8.63
-22.63
-48.51
-68.28
-83.58
-97.86
-114.94
-137.40
-165.65
-197.78
-229.69
-256.36
-272.98
-276.07
-264.81
-241.76
-212.50
-184.16
-163.39
-154.24
-157.64
-171.87
-193.61
-219.42
-246.47
-272.61
-295.89
-313.92
-323.65
-322.15
-307.67
-280.67
-244.28
-203.48
-163.43
-127.84
-97.98
-72.89
-50.77
-30.40
-11.91
3.50
14.74
22.00
26.96
32.16
39.70
50.05
61.73
71.81
76.91
74.73
64.92
49.09
30.22
11.50
-4.65
-17.13
-26.25
-33.71
-41.11
-49.30
-58.16
-66.72
-73.60
-77.33
-76.68
-70.92
-61.13
-48.58
-34.36
-18.92
-1.89
17.66
40.37
65.66
90.69
108.60
112.02
95.14
55.75
-3.94
-77.33
-154.63
-224.55
-276.60
-305.54
-309.39
-289.89
-252.12
-203.90
-154.39
-112.51
-84.95
-60.52
-33.62
-2.87
28.46
56.09
77.73
93.39
103.85
110.23
113.35
110.96
101.57
84.46
60.30
29.45
-5.95
-43.33
-79.00
-108.06
-127.33
-133.88
-127.00
-108.66
-83.38
-56.64
-33.19
-15.20
-1.79
5.67
8.00
7.17
6.28
8.15
14.43
24.95
38.14
51.75
63.19
71.80
78.51
87.44
102.91
127.62
161.45
201.74
243.24
277.75
295.63
288.14
254.35
199.78
134.77
71.50
21.03
-9.66
-19.75
-13.61
2.01
26.60
60.76
102.92
147.88
189.33
223.01
248.03
266.86
284.60
314.21
365.62
440.11
529.14
618.94
695.78
748.97
772.57
724.96
591.60
395.57
187.08
9.41
-120.87
-208.79
-267.05
-306.47
-332.87
-341.87
-330.52
-302.73
-269.17
-240.54
-222.52
-215.22
-215.20
-218.14
-215.78
-203.58
-184.16
-164.65
-151.90
-148.93
-154.59
-165.30
-177.26
-184.63
-184.58
-175.38
-162.86
-152.59
-147.10
-145.72
-146.04
-145.71
-141.78
-133.29
-121.68
-110.35
-102.04
-98.21
-99.19
-104.39
-112.07
-118.21
-117.61
-105.56
-80.42
-44.24
-2.87
35.81
64.97
81.29
85.83
82.75
76.94
71.72
68.45
66.93
66.30
65.82
65.04
63.68
61.53
58.79
56.11
54.44
54.69
56.93
60.10
62.50
62.47
59.35
54.00
48.40
45.14
46.27
52.70
63.36
75.03
82.97
81.76
67.18
37.95
-3.01
-48.21
-87.09
-109.34
-108.70
-86.13
-50.31
-14.67
8.01
10.78
-5.17
-31.98
-59.98
-82.53
-98.25
-109.61
-119.02
-125.69
-125.66
-115.11
-93.44
-65.74
-40.72
-26.41
-26.58
-39.17
-57.94
-75.44
-85.47
-84.41
-71.38
-47.75
-16.95
15.87
45.05
65.93
76.39
77.34
71.96
63.64
54.59
46.23
38.81
32.40
27.45
24.72
24.66
27.36
32.23
38.80
46.72
55.68
65.21
74.42
82.26
87.76
90.60
91.17
90.66
90.64
92.73
98.25
107.52
119.04
128.96
131.40
120.20
91.82
48.01
-3.51
-51.18
-84.20
-97.18
-92.52
-79.15
-68.05
-67.17
-78.40
-97.93
-119.49
-137.75
-150.38
-158.07
-162.90
-166.90
-171.58
-178.43
-189.35
-205.81
-227.03
-248.36
-262.01
-259.50
-235.37
-190.00
-130.06
-66.05
-8.14
35.78
63.12
76.90
83.83
91.48
105.79
129.39
161.18
196.65
229.59
254.00
266.49
267.92
263.20
259.44
262.65
274.98
293.49
311.84
322.83
321.60
307.16
282.13
250.79
216.78
182.17
143.93
101.33
56.11
12.26
-25.70
-54.58
-73.55
-86.78
-100.27
-120.05
-150.18
-192.87
-246.28
-305.85
-364.36
-413.16
-444.37
-453.14
-439.46
-407.66
-364.94
-318.11
-271.33
-225.26
-178.19
-128.12
-74.23
-17.75
38.51
90.44
133.36
163.03
177.03
176.10
164.85
150.99
142.98
147.40
166.66
198.85
239.11
281.87
322.45
357.30
383.36
397.29
395.49
375.16
336.01
281.44
218.67
157.40
107.05
74.01
59.72
60.43
68.79
76.59
77.33
67.71
47.71
19.70
-13.24
-48.01
-82.10
-113.48
-140.53
-162.20
-178.17
-188.79
-194.84
-197.15
-196.38
-193.20
-188.46
-183.26
-178.57
-174.60
-170.39
-164.16
-154.16
-139.71
-121.78
-102.51
-84.30
-68.59
-55.54
-44.40
-34.77
-27.52
-24.88
-29.43
-42.42
-62.28
-84.47
-102.82
-112.01
-109.94
-98.66
-83.37
-69.88
-61.77
-58.97
-58.37
-56.02
-49.60
-39.59
-28.75
-20.16
-15.32
-13.43
-12.07
-8.92
-3.14
4.23
11.02
15.23
16.14
14.53
12.14
10.64
10.90
12.69
15.11
17.19
18.43
18.94
19.06
19.01
18.63
17.42
15.03
11.46
7.27
3.34
0.56
-0.46
0.40
2.81
5.96
8.73
10.04
9.24
6.57
3.09
0.32
-0.43
1.32
5.15
10.08
15.02
19.21
22.16
23.55
23.02
20.38
15.77
9.83
3.47
-2.51
-7.78
-12.44
-16.78
-20.79
-24.07
-25.95
-25.91
-23.90
-20.43
-16.36
-12.57
-9.66
-7.86
-7.08
-7.10
-7.69
-8.71
-9.94
-11.07
-11.57
-10.84
-8.50
-4.71
-0.30
3.54
5.80
6.26
5.62
5.15
5.98
8.39
11.66
14.55
16.00
15.71
14.20
12.38
10.94
10.00
9.22
8.21
6.88
5.58
4.83
5.03
6.24
8.24
10.62
12.98
14.95
16.09
15.98
14.27
11.00
6.72
2.48
-0.58
-1.68
-0.77
1.41
3.69
5.09
5.26
4.66
4.23
4.80
6.62
9.26
11.86
13.70
14.56
14.71
14.63
14.51
14.14
13.06
10.99
8.19
5.45
3.68
3.47
4.69
6.61
8.26
8.92
8.44
7.14
5.58
4.17
2.93
1.53
-0.46
-3.20
-6.38
-9.33
-11.35
-12.14
-11.98
-11.57
-11.56
-12.12
-12.79
-12.75
-11.38
-8.63
-5.14
-1.81
0.66
2.14
3.00
3.67
4.27
4.48
3.81
2.05
-0.46
-2.93
-4.51
-4.73
-3.73
-2.08
-0.51
0.55
1.02
1.06
0.84
0.33
-0.62
-2.06
-3.81
-5.51
-6.75
-7.30
-7.21
-6.64
-5.71
-4.38
-2.52
-0.05
2.85
5.85
8.58
10.91
12.96
14.89
16.73
18.12
18.56
17.67
15.60
13.04
11.00
10.29
11.11
13.05
15.27
17.07
18.20
18.88
19.39
19.67
19.14
16.95
12.61
6.44
-0.38
-6.37
-10.48
-12.54
-13.17
-13.22
-13.16
-12.74
-11.34
-8.48
-4.28
0.52
4.94
8.24
10.18
10.96
10.93
10.38
9.47
8.26
6.92
5.65
4.71
4.31
4.58
5.61
7.37
9.73
12.31
14.53
15.75
15.53
13.87
11.27
8.57
6.57
5.64
5.60
5.79
5.55
4.57
3.15
2.08
2.17
3.85
6.89
10.55
13.93
16.45
17.99
18.82
19.17
19.03
18.06
15.97
12.82
9.19
6.03
4.16
3.91
4.91
6.35
7.40
7.61
7.00
5.91
4.74
3.63
2.49
1.03
-1.04
-3.85
-7.31
-11.03
-14.48
-17.03
-18.16
-17.65
-15.60
-12.41
-8.64
-4.85
-1.42
1.44
3.68
5.18
5.76
5.14
3.15
-0.14
-4.22
-8.25
-11.33
-12.86
-12.82
-11.71
-10.28
-9.15
-8.54
-8.31
-8.14
-7.93
-7.86
-8.30
-9.57
-11.65
-14.19
-16.59
-18.26
-18.86
-18.41
-17.14
-15.35
-13.18
-10.53
-7.24
-3.34
0.79
4.46
7.05
8.40
8.98
9.63
10.92
12.79
14.44
14.93
13.78
11.35
8.70
6.91
6.42
6.86
7.38
7.22
6.21
4.68
3.10
1.64
0.08
-1.98
-4.71
-7.84
-10.72
-12.72
-13.42
-12.75
-10.88
-8.01
-4.36
-0.18
4.15
8.19
11.63
14.45
16.83
18.88
20.41
20.90
19.92
17.44
14.10
10.94
8.83
8.02
8.10
8.38
8.44
8.38
8.60
9.35
10.44
11.22
11.02
9.56
7.17
4.53
2.24
0.51
-0.98
-2.71
-4.90
-7.35
-9.38
-10.20
-9.27
-6.54
-2.42
2.34
6.98
10.90
13.75
15.41
15.87
15.21
13.57
11.17
8.24
5.02
1.69
-1.47
-4.08
-5.73
-6.16
-5.52
-4.45
-3.84
-4.41
-6.37
-9.27
-12.32
-14.81
-16.56
-17.92
-19.46
-21.60
-24.31
-27.20
-29.78
-31.93
-33.92
-36.23
-39.15
-42.31
-44.69
-44.99
-42.31
-36.84
-29.99
-23.99
-21.00
-22.15
-27.07
-34.01
-40.70
-45.29
-47.11
-46.82
-46.03
-46.69
-50.59
-59.06
-72.63
-90.55
-110.45
-128.40
-139.71
-140.32
-128.10
-103.73
-70.23
-31.62
8.66
49.07
90.39
135.24
186.67
246.26
312.45
379.72
439.43
482.20
501.10
494.21
465.28
422.11
373.40
325.78
282.26
242.66
205.19
168.15
130.49
91.51
50.14
5.09
-44.08
-95.38
-143.84
-182.57
-205.26
-209.30
-197.36
-176.61
-155.60
-140.59
-133.16
-130.39
-127.36
-120.29
-108.61
-94.86
-82.73
-74.75
-70.96
-69.19
-66.66
-61.69
-54.51
-47.00
-41.28
-38.40
-37.67
-37.19
-35.20
-31.57
-28.55
-30.18
-40.40
-60.98
-89.96
-121.86
-149.51
-166.66
-170.31
-161.63
-145.49
-128.68
-117.89
-117.76
-129.77
-151.87
-179.01
-204.42
-221.51
-225.77
-215.98
-194.17
-164.49
-131.59
-99.32
-70.17
-45.54
-26.10
-12.00
-2.73
3.01
7.10
11.37
16.91
23.76
31.07
37.76
43.13
47.16
50.32
53.23
56.30
59.68
63.40
67.33
71.24
74.53
76.26
75.36
71.23
64.19
55.61
47.50
41.58
38.64
38.27
39.32
40.61
41.49
41.90
41.94
41.38
39.51
35.56
29.27
21.33
13.40
7.38
4.71
5.77
9.96
16.08
22.89
29.50
35.37
40.18
43.65
45.51
45.65
44.23
41.59
38.19
34.32
30.13
25.67
21.14
17.05
14.19
13.32
14.75
18.08
22.21
25.79
27.72
27.75
26.48
24.87
23.68
23.00
22.25
20.77
18.32
15.40
12.88
11.38
10.75
10.13
8.48
5.33
0.98
-3.66
-7.74
-10.93
-13.32
-15.07
-15.98
-15.40
-12.76
-8.12
-2.46
2.67
5.88
6.61
5.34
3.24
1.50
0.71
0.77
1.07
1.11
0.78
0.45
0.69
1.80
3.58
5.38
6.44
6.32
5.13
3.38
1.67
0.23
-1.06
-2.54
-4.45
-6.65
-8.76
-10.49
-11.84
-13.13
-14.77
-16.84
-19.07
-20.98
-22.20
-22.71
-22.65
-22.04
-20.51
-17.42
-12.30
-5.37
2.29
9.16
13.94
16.28
16.82
16.76
17.01
17.71
18.25
17.88
16.45
14.66
13.66
14.24
16.28
18.66
20.06
19.77
18.16
16.41
15.58
15.84
16.35
15.80
13.44
9.64
5.71
2.98
1.94
1.86
1.31
-0.86
-4.80
-9.59
-13.94
-17.00
-18.77
-19.88
-20.90
-21.72
-21.54
-19.35
-14.65
-7.90
-0.37
6.44
11.50
14.57
16.06
16.62
16.70
16.48
15.89
14.94
13.84
12.92
12.46
12.52
12.95
13.50
14.02
14.47
14.91
15.31
15.55
15.55
15.29
14.98
14.75
14.51
13.89
12.37
9.68
6.05
2.29
-0.63
-2.02
-1.94
-1.04
-0.30
-0.36
-1.22
-2.31
-2.84
-2.36
-0.88
1.24
3.64
6.26
9.25
12.75
16.46
19.63
21.30
20.81
18.16
14.02
9.31
4.76
0.65
-3.22
-7.14
-11.31
-15.67
-20.02
-24.21
-28.13
-31.63
-34.33
-35.70
-35.29
-33.13
-29.92
-26.95
-25.73
-27.40
-32.38
-40.10
-49.20
-57.84
-64.13
-66.65
-64.69
-58.27
-48.09
-35.25
-21.11
-7.04
5.76
16.39
24.41
29.75
32.56
33.01
31.06
26.64
19.85
11.34
2.42
-5.16
-9.84
-10.83
-8.40
-3.70
1.86
7.15
11.64
15.28
18.11
19.94
20.31
18.81
15.48
10.96
6.39
2.82
0.70
-0.37
-1.38
-3.35
-6.79
-11.33
-15.77
-18.41
-17.68
-12.72
-3.82
7.57
19.05
28.15
33.09
33.31
29.69
24.07
18.54
14.83
13.85
15.64
19.53
24.34
28.65
31.14
30.92
27.82
22.48
16.05
9.76
4.48
0.62
-1.86
-3.22
-3.88
-4.33
-5.13
-6.83
-9.71
-13.65
-18.10
-22.30
-25.51
-27.45
-28.20
-28.02
-27.15
-25.59
-23.15
-19.66
-15.25
-10.41
-5.89
-2.37
-0.19
0.70
0.65
-0.01
-1.12
-2.63
-4.38
-6.02
-7.01
-6.92
-5.75
-3.92
-2.12
-0.91
-0.53
-0.84
-1.60
-2.66
-3.99
-5.67
-7.62
-9.61
-11.33
-12.56
-13.24
-13.49
-13.40
-12.93
-11.87
-9.88
-6.74
-2.48
2.53
7.62
12.02
15.14
16.69
16.78
15.82
14.34
12.75
11.36
10.29
9.60
9.32
9.50
10.06
10.79
11.33
11.19
9.98
7.62
4.47
1.23
-1.34
-2.82
-3.37
-3.67
-4.65
-6.93
-10.54
-14.89
-19.05
-22.25
-24.14
-24.89
-24.84
-24.16
-22.70
-20.17
-16.43
-11.82
-7.15
-3.32
-0.91
0.15
0.45
0.62
0.86
0.75
-0.42
-3.18
-7.46
-12.62
-17.83
-22.52
-26.65
-30.55
-34.52
-38.46
-41.97
-44.65
-46.59
-48.42
-51.03
-55.09
-60.61
-67.18
-74.36
-82.13
-90.69
-99.87
-108.48
-113.98
-113.01
-102.39
-80.00
-45.08
1.86
58.85
122.09
185.57
241.37
281.41
299.82
295.22
271.46
236.00
196.95
159.91
126.43
94.78
61.95
25.83
-13.88
-56.00
-98.46
-138.46
-172.40
-196.26
-206.84
-203.53
-189.21
-169.69
-151.50
-139.18
-133.53
-132.05
-130.82
-126.59
-117.85
-104.21
-85.02
-58.52
-22.37
24.96
82.42
145.76
208.02
261.00
297.53
313.38
308.49
286.88
255.00
219.47
185.02
153.61
124.86
97.63
71.59
47.68
27.57
12.64
3.13
-1.66
-2.73
-0.55
5.16
14.73
27.62
41.82
54.04
60.84
60.09
52.12
39.68
26.81
17.03
12.03
11.46
14.04
19.07
27.63
42.23
65.11
96.13
131.60
165.16
190.39
203.85
206.52
202.77
197.55
193.53
190.11
184.67
175.24
162.48
149.86
141.57
139.87
143.33
147.13
145.27
133.14
109.31
75.69
36.41
-3.93
-41.49
-73.73
-99.16
-116.79
-125.84
-125.88
-117.45
-102.68
-85.35
-70.11
-60.96
-59.82
-65.84
-75.81
-85.58
-91.70
-92.54
-88.54
-81.36
-73.02
-65.06
-58.51
-54.16
-52.95
-56.04
-64.32
-77.93
-95.78
-115.64
-134.70
-150.24
-160.36
-164.37
-162.68
-156.52
-147.63
-137.81
-128.77
-121.92
-118.06
-117.09
-117.84
-118.40
-116.59
-110.87
-100.96
-87.95
-73.91
-61.04
-50.95
-44.30
-40.90
-40.15
-41.38
-44.03
-47.61
-51.69
-55.87
-59.80
-63.10
-65.30
-65.81
-64.02
-59.63
-52.87
-44.48
-35.54
-27.01
-19.41
-12.76
-6.77
-1.22
3.80
7.90
10.61
11.73
11.57
10.75
9.90
9.23
8.25
5.97
1.39
-5.92
-15.47
-26.11
-36.59
-46.06
-54.30
-61.38
-67.23
-71.39
-73.16
-72.22
-68.99
-64.49
-59.47
-53.30
-43.43
-26.39
0.16
35.19
73.32
106.11
125.05
125.08
106.39
73.61
33.21
-9.02
-48.78
-82.26
-104.90
-111.59
-99.12
-69.07
-29.24
8.16
30.93
31.50
8.82
-33.01
-88.12
-151.60
-219.79
-288.51
-351.39
-400.21
-427.66
-430.95
-413.42
-383.25
-349.95
-320.39
-296.77
-277.13
-257.81
-236.13
-211.72
-186.17
-161.66
-139.46
-119.30
-99.64
-78.48
-54.28
-26.77
3.21
33.93
63.45
90.29
113.89
134.99
155.85
180.13
211.82
253.60
304.58
359.15
407.54
438.49
442.84
416.50
361.80
286.73
202.88
123.14
59.50
21.11
12.27
30.92
68.22
110.34
142.22
152.09
134.78
92.27
31.57
-38.55
-109.90
-175.78
-230.57
-269.38
-288.64
-287.58
-269.19
-239.88
-207.25
-177.22
-151.94
-129.68
-106.64
-79.49
-47.08
-10.60
27.41
64.18
97.51
125.96
149.14
168.05
185.36
204.98
230.40
262.84
299.78
335.39
362.69
376.65
376.41
365.36
349.06
332.13
315.96
298.33
275.03
242.20
198.02
143.11
80.02
12.24
-56.56
-122.39
-180.96
-227.84
-259.35
-273.58
-271.11
-254.88
-229.24
-198.73
-167.00
-136.40
-108.02
-82.08
-58.57
-37.82
-20.92
-9.63
-5.83
-10.36
-22.09
-37.74
-52.52
-61.68
-62.09
-53.32
-37.64
-19.17
-2.62
7.99
10.07
3.09
-11.46
-30.27
-49.11
-63.96
-72.23
-73.36
-68.73
-60.91
-52.53
-45.63
-41.19
-39.32
-39.38
-40.18
-40.17
-37.74
-31.73
-21.86
-9.03
5.09
18.62
30.19
39.31
46.26
51.78
56.51
60.84
64.84
68.36
71.23
73.33
74.65
75.33
75.68
76.13
77.06
78.49
79.75
79.54
76.28
68.85
57.29
43.00
28.25
15.22
5.13
-2.14
-7.65
-12.63
-17.78
-23.00
-27.73
-31.42
-33.83
-34.96
-34.78
-32.95
-28.96
-22.30
-12.90
-1.27
11.58
24.29
35.48
43.99
49.05
50.52
48.91
45.26
40.78
36.54
33.05
30.29
27.83
25.21
22.27
19.30
16.88
15.64
15.93
17.62
20.13
22.69
24.61
25.52
25.39
24.37
22.61
20.17
16.98
12.99
8.33
3.40
-1.12
-4.42
-5.77
-4.69
-1.07
4.78
12.22
20.44
28.61
35.97
41.84
45.63
46.90
45.53
41.81
36.53
30.78
25.71
22.20
20.67
21.08
23.04
25.92
29.01
31.52
32.67
31.76
28.44
22.75
15.30
7.12
-0.49
-6.29
-9.33
-9.23
-6.26
-1.37
4.10
8.75
11.50
11.87
10.06
6.79
3.03
-0.29
-2.47
-3.15
-2.21
0.20
3.73
7.81
11.77
14.87
16.59
16.71
15.40
13.21
10.86
9.03
8.24
8.69
10.33
12.83
15.74
18.50
20.57
21.56
21.34
20.07
18.17
16.17
14.49
13.28
12.40
11.52
10.32
8.66
6.66
4.59
2.71
1.12
-0.23
-1.54
-2.93
-4.46
-6.04
-7.42
-8.30
-8.33
-7.30
-5.33
-2.92
-0.93
-0.21
-1.32
-4.32
-8.88
-14.51
-20.67
-26.66
-31.56
-34.21
-33.66
-29.70
-23.30
-16.43
-11.25
-9.18
-10.29
-13.54
-17.40
-20.72
-23.09
-24.63
-25.51
-25.64
-24.65
-22.29
-18.71
-14.53
-10.66
-7.85
-6.52
-6.50
-7.25
-7.98
-7.99
-6.90
-4.76
-1.97
0.94
3.60
5.99
8.36
11.05
14.14
17.29
19.90
21.31
21.16
19.54
16.92
13.93
11.13
8.84
7.26
6.48
6.59
7.62
9.43
11.60
13.43
14.20
13.41
11.04
7.57
3.75
0.26
-2.54
-4.61
-6.13
-7.21
-7.89
-8.16
-8.22
-8.51
-9.57
-11.66
-14.51
-17.31
-19.06
-19.11
-17.61
-15.44
-13.84
-13.67
-14.93
-16.76
-17.84
-17.15
-14.52
-10.74
-7.26
-5.51
-6.33
-9.82
-15.52
-22.90
-31.11
-38.46
-42.07
-38.51
-25.60
-4.30
20.72
42.49
54.90
55.73
47.67
36.75
28.89
26.93
29.80
34.07
36.61
36.47
34.70
32.68
30.30
25.59
15.97
0.16
-20.43
-41.75
-58.44
-65.83
-61.66
-46.81
-24.72
-0.20
22.17
39.14
49.26
52.65
50.23
43.14
32.40
19.02
4.28
-9.99
-21.69
-28.89
-30.56
-27.04
-19.90
-11.44
-3.81
1.66
4.70
5.84
5.99
5.85
5.70
5.40
4.60
3.07
0.90
-1.49
-3.49
-4.65
-4.93
-4.76
-4.98
-6.46
-9.72
-14.63
-20.43
-25.91
-29.80
-31.09
-29.30
-24.50
-17.26
-8.52
0.67
9.34
16.72
22.38
26.07
27.64
26.93
23.75
18.07
10.27
1.24
-7.63
-14.73
-18.66
-18.60
-14.52
-7.13
2.31
12.41
21.87
29.59
34.68
36.52
34.86
29.87
22.11
12.36
1.32
-10.58
-23.12
-36.00
-48.68
-60.31
-70.05
-77.41
-82.46
-85.53
-86.72
-85.53
-80.94
-72.05
-58.90
-42.84
-26.24
-11.62
-0.67
6.20
9.74
11.25
11.86
12.12
12.07
11.42
10.01
7.96
5.67
3.67
2.36
1.94
2.30
3.13
4.09
4.99
5.83
6.75
7.89
9.15
10.24
10.71
10.15
8.42
5.69
2.40
-0.90
-3.73
-5.81
-7.06
-7.59
-7.61
-7.32
-6.85
-6.18
-5.19
-3.70
-1.61
1.03
3.99
6.83
9.08
10.40
10.76
10.45
9.96
9.75
10.08
10.87
11.88
12.87
13.67
14.31
14.89
15.38
15.62
15.32
14.26
12.45
10.19
7.91
6.04
4.68
3.68
2.75
1.59
0.14
-1.54
-3.30
-5.05
-6.78
-8.46
-9.83
-10.49
-9.99
-8.08
-4.92
-1.03
2.87
6.10
8.23
9.10
8.70
7.11
4.45
0.94
-3.10
-7.15
-10.62
-13.00
-14.03
-13.81
-12.80
-11.59
-10.68
-10.25
-10.06
-9.60
-8.23
-5.57
-1.66
2.92
7.19
10.01
10.47
8.10
3.12
-3.67
-10.98
-17.34
-21.41
-22.16
-19.14
-12.48
-3.03
7.89
18.64
27.69
33.88
36.67
36.11
32.70
27.20
20.46
13.33
6.56
0.77
-3.66
-6.58
-8.05
-8.21
-7.25
-5.30
-2.51
0.91
4.60
8.12
11.01
12.93
13.81
13.77
13.15
12.33
11.60
11.07
10.57
9.72
8.04
5.16
1.08
-3.75
-8.35
-11.47
-11.94
-9.10
-3.07
5.23
14.36
22.74
29.05
32.54
33.01
30.72
26.15
19.86
12.37
4.19
-4.20
-12.37
-19.95
-26.70
-32.37
-36.68
-39.18
-39.35
-36.77
-31.36
-23.57
-14.34
-4.90
3.55
10.11
14.34
16.17
15.82
13.59
9.83
4.93
-0.68
-6.51
-11.96
-16.45
-19.43
-20.54
-19.64
-16.83
-12.37
-6.67
-0.23
6.38
12.45
17.31
20.38
21.43
20.67
18.69
16.30
14.15
12.59
11.60
10.95
10.42
10.02
9.91
10.33
11.28
12.50
13.48
13.68
12.81
10.95
8.41
5.61
2.79
-0.06
-3.13
-6.56
-10.35
-14.26
-17.91
-21.01
-23.35
-24.86
-25.50
-25.20
-23.94
-21.79
-18.85
-15.32
-11.36
-7.07
-2.60
1.88
6.08
9.69
12.52
14.45
15.37
15.09
13.35
10.04
5.58
0.96
-2.55
-3.89
-2.77
0.29
4.23
8.13
11.47
14.09
15.70
15.47
12.09
4.40
-7.84
-23.35
-39.57
-53.42
-62.32
-64.82
-60.74
-50.81
-36.34
-18.92
-0.50
16.73
30.51
39.01
41.48
38.45
31.63
23.21
15.16
8.70
4.21
1.46
0.09
-0.26
0.20
1.24
2.58
3.84
4.73
5.13
5.16
5.16
5.39
5.95
6.63
7.01
6.64
5.34
3.27
0.95
-0.98
-2.05
-2.13
-1.45
-0.43
0.50
1.09
1.28
1.07
0.42
-0.83
-2.83
-5.59
-8.76
-11.71
-13.68
-14.04
-12.58
-9.54
-5.46
-1.08
3.04
6.49
9.11
10.88
11.77
11.79
10.87
8.92
5.89
1.92
-2.56
-6.74
-9.56
-10.04
-7.69
-2.76
3.74
10.42
15.95
19.44
20.58
19.54
16.72
12.53
7.33
1.44
-4.86
-11.28
-17.60
-23.59
-29.04
-33.66
-37.05
-38.76
-38.49
-36.20
-32.22
-27.17
-21.76
-16.54
-11.77
-7.45
-3.44
0.29
3.55
5.98
7.25
7.30
6.40
5.07
3.88
3.24
3.33
4.10
5.42
7.10
8.96
10.76
12.27
13.32
13.90
14.15
14.24
14.24
14.04
13.41
12.15
10.24
7.86
5.30
2.85
0.63
-1.38
-3.21
-4.86
-6.35
-7.71
-9.18
-11.05
-13.55
-16.61
-19.75
-22.19
-23.13
-22.07
-18.97
-14.31
-8.85
-3.44
1.17
4.47
6.23
6.67
6.33
5.94
5.99
6.46
6.62
5.45
2.18
-3.18
-9.62
-15.48
-19.19
-19.89
-17.69
-13.50
-8.55
-3.87
-0.13
2.41
3.67
3.65
2.44
0.23
-2.59
-5.58
-8.38
-10.78
-12.83
-14.76
-16.84
-19.17
-21.50
-23.20
-23.35
-21.06
-15.88
-8.06
1.40
11.03
19.34
25.23
28.28
28.66
26.86
23.49
19.05
14.02
8.91
4.39
1.15
-0.22
0.52
3.12
6.91
10.93
14.33
16.49
17.25
16.76
15.37
13.42
11.14
8.66
6.10
3.55
1.10
-1.24
-3.54
-5.91
-8.40
-10.94
-13.29
-15.14
-16.10
-15.78
-13.81
-9.95
-4.35
2.42
9.31
15.13
19.01
20.79
21.03
20.76
20.88
21.67
22.69
23.03
21.81
18.63
13.81
8.18
2.82
-1.35
-3.69
-3.92
-2.11
1.39
5.90
10.44
13.94
15.41
14.30
10.59
4.82
-2.21
-9.72
-17.15
-24.24
-30.98
-37.37
-43.34
-48.55
-52.42
-54.03
-52.31
-46.32
-35.75
-21.27
-4.64
11.64
25.02
33.69
37.08
35.79
31.24
24.96
18.21
11.77
6.14
1.76
-0.91
-1.40
0.46
4.34
9.41
14.49
18.48
20.71
21.18
20.47
19.40
18.56
17.95
16.97
14.75
10.69
4.83
-2.06
-8.84
-14.49
-18.56
-21.15
-22.61
-23.14
-22.60
-20.81
-17.92
-14.73
-12.27
-11.27
-11.52
-11.88
-10.92
-7.77
-2.76
2.80
7.35
9.91
10.50
9.83
8.57
6.84
4.18
0.04
-5.50
-11.44
-15.97
-17.05
-13.15
-3.88
9.78
25.60
40.63
52.07
58.01
57.93
52.74
44.24
34.40
24.64
15.61
7.28
-0.50
-7.54
-12.97
-15.37
-13.33
-6.14
5.62
19.96
34.04
45.03
51.04
51.55
47.14
38.95
28.03
15.46
2.61
-8.45
-15.34
-16.49
-12.36
-5.69
-0.49
-0.14
-5.78
-15.82
-27.10
-36.63
-42.95
-46.31
-47.71
-47.77
-46.19
-42.14
-35.24
-26.31
-17.24
-10.29
-7.10
-8.08
-12.41
-18.43
-24.26
-28.28
-29.54
-27.79
-23.42
-17.14
-9.79
-2.13
5.20
11.70
17.00
20.86
23.16
24.00
23.57
22.13
19.98
17.34
14.48
11.64
9.11
7.16
5.95
5.47
5.54
5.89
6.27
6.45
6.29
5.76
5.01
4.43
4.61
6.19
9.45
14.08
19.07
22.99
24.51
23.04
18.81
12.64
5.38
-2.51
-10.93
-19.72
-28.20
-35.05
-38.71
-38.14
-33.44
-25.87
-17.39
-9.79
-4.07
-0.26
2.20
3.92
5.21
5.98
6.12
5.77
5.45
5.95
7.94
11.61
16.48
21.47
25.28
26.87
25.82
22.46
17.72
12.70
8.20
4.52
1.40
-1.70
-5.22
-9.29
-13.62
-17.72
-21.09
-23.48
-24.93
-25.61
-25.70
-25.24
-24.10
-22.14
-19.30
-15.73
-11.75
-7.79
-4.21
-1.25
1.03
2.71
3.86
4.55
4.81
4.76
4.59
4.60
5.06
6.07
7.54
9.14
10.55
11.59
12.26
12.75
13.20
13.57
13.58
12.89
11.29
8.95
6.31
3.97
2.36
1.54
1.24
0.97
0.31
-0.93
-2.68
-4.71
-6.84
-9.00
-11.25
-13.59
-15.89
-17.76
-18.68
-18.23
-16.20
-12.73
-8.13
-2.72
3.30
9.66
15.67
20.14
21.62
19.01
12.31
2.84
-7.16
-15.37
-20.27
-21.59
-20.17
-17.35
-14.39
-12.16
-11.07
-11.16
-12.20
-13.64
-14.76
-14.85
-13.48
-10.75
-7.23
-3.72
-0.95
0.55
0.54
-0.94
-3.67
-7.20
-11.05
-14.75
-17.99
-20.70
-23.00
-25.02
-26.76
-27.99
-28.30
-27.25
-24.55
-20.16
-14.42
-7.97
-1.68
3.56
7.04
8.42
7.86
5.97
3.66
1.79
0.96
1.29
2.45
3.78
4.61
4.44
3.19
1.16
-1.01
-2.71
-3.54
-3.54
-3.24
-3.40
-4.76
-7.61
-11.56
-15.41
-17.38
-15.55
-8.38
4.69
22.88
44.07
65.22
83.11
95.17
100.18
98.41
91.37
81.20
69.92
59.11
49.77
42.48
37.38
34.10
31.48
27.55
19.94
6.85
-11.92
-34.30
-56.27
-72.95
-80.25
-76.21
-61.55
-39.36
-14.02
9.99
29.00
40.79
44.65
41.39
32.86
21.47
9.47
-1.60
-11.14
-19.38
-26.95
-34.41
-41.97
-49.47
-56.60
-63.00
-68.50
-73.04
-76.57
-78.96
-80.02
-79.53
-77.46
-74.02
-69.45
-63.53
-55.05
-41.60
-20.26
11.09
52.07
99.14
146.26
186.90
216.32
232.92
237.83
233.17
220.49
200.45
173.89
143.46
113.93
90.73
77.43
73.68
75.14
75.83
71.03
59.44
42.99
24.72
6.16
-13.70
-37.57
-67.09
-99.97
-129.29
-145.47
-140.51
-112.10
-65.50
-11.85
35.87
67.37
77.73
67.11
38.92
-1.72
-48.36
-93.16
-127.83
-146.09
-146.72
-134.82
-120.06
-112.08
-115.75
-129.34
-146.26
-159.47
-165.09
-163.47
-157.48
-149.88
-141.60
-132.09
-120.92
-109.01
-98.49
-91.40
-88.31
-87.76
-87.01
-83.15
-74.61
-61.80
-46.71
-31.92
-19.49
-10.39
-4.31
-0.33
2.56
4.93
6.97
8.78
10.65
13.03
16.29
20.37
24.74
28.72
31.89
34.50
37.38
41.52
47.29
54.07
60.23
63.75
63.13
58.09
49.73
39.94
30.51
22.31
15.14
8.36
1.77
-3.67
-6.02
-3.31
5.30
18.63
33.57
46.18
53.17
53.15
46.92
36.90
25.94
16.17
8.57
3.11
-0.63
-2.85
-3.36
-1.79
1.92
7.29
13.31
18.93
23.56
27.25
30.50
33.70
36.66
38.52
38.20
35.15
29.87
23.93
19.33
17.60
19.08
22.85
27.23
30.71
32.53
32.73
31.83
30.25
28.16
25.58
22.67
19.95
18.11
17.50
17.76
17.86
16.56
13.14
7.89
2.17
-2.14
-3.46
-1.35
3.34
8.68
12.50
13.25
10.55
5.24
-1.14
-7.14
-11.93
-15.54
-18.45
-21.15
-23.68
-25.66
-26.58
-26.14
-24.47
-21.99
-19.13
-16.13
-13.04
-9.82
-6.45
-2.96
0.68
4.48
8.29
11.49
13.00
11.62
6.68
-1.44
-11.21
-20.44
-27.21
-30.58
-30.85
-29.14
-26.56
-23.60
-19.99
-15.07
-8.42
-0.29
8.46
16.75
23.62
28.51
31.13
31.21
28.46
22.84
14.96
6.35
-0.82
-4.37
-3.02
3.13
12.68
23.40
33.08
39.99
43.22
42.59
38.56
32.12
24.59
17.31
11.21
6.54
2.89
-0.54
-4.43
-9.05
-14.29
-19.79
-25.24
-30.32
-34.68
-37.82
-39.14
-38.16
-34.75
-29.31
-22.63
-15.63
-9.10
-3.50
1.07
4.79
7.95
10.80
13.34
15.30
16.25
15.75
13.59
9.91
5.16
0.05
-4.62
-8.16
-10.05
-10.18
-8.78
-6.44
-3.82
-1.57
-0.12
0.29
-0.33
-1.78
-3.70
-5.68
-7.39
-8.72
-9.88
-11.20
-12.90
-14.70
-15.78
-15.06
-11.72
-5.69
2.20
10.50
17.78
23.03
25.97
26.87
26.23
24.53
22.08
19.12
15.95
12.84
10.11
7.90
6.15
4.67
3.27
1.92
0.68
-0.37
-1.28
-2.26
-3.47
-4.91
-6.39
-7.67
-8.60
-9.32
-10.18
-11.53
-13.52
-16.05
-18.75
-21.19
-22.95
-23.77
-23.52
-22.13
-19.63
-16.12
-11.83
-7.08
-2.30
2.00
5.34
7.32
7.74
6.79
5.00
3.04
1.49
0.61
0.27
0.16
-0.02
-0.36
-0.67
-0.72
-0.34
0.49
1.69
3.24
5.23
7.84
11.08
14.56
17.34
18.09
15.51
8.97
-0.98
-12.54
-23.10
-30.08
-31.75
-27.69
-18.73
-6.48
7.31
21.06
33.46
43.38
49.82
52.00
49.57
42.86
32.81
20.82
8.47
-2.78
-11.77
-17.74
-20.40
-19.94
-16.93
-12.21
-6.72
-1.35
3.11
6.00
6.91
5.74
2.78
-1.24
-5.47
-9.11
-11.79
-13.59
-14.90
-16.23
-17.88
-19.90
-22.22
-24.65
-27.00
-28.93
-29.90
-29.18
-26.14
-20.58
-12.85
-3.91
4.95
12.49
17.83
20.55
20.87
19.48
17.42
15.69
14.90
15.08
15.79
16.44
16.72
16.77
17.01
17.76
18.92
20.05
20.54
20.12
18.96
17.54
16.26
15.23
14.20
12.79
10.72
7.98
4.75
1.31
-2.09
-5.13
-7.58
-9.28
-10.29
-10.87
-11.41
-12.20
-13.17
-13.93
-13.82
-12.24
-8.91
-3.98
1.95
7.94
12.85
15.51
15.03
11.26
4.92
-2.38
-8.66
-12.27
-12.51
-9.80
-5.40
-0.85
2.53
3.97
3.23
0.56
-3.33
-7.24
-9.65
-9.17
-5.08
2.18
11.03
19.29
24.96
26.87
25.02
20.29
13.99
7.39
1.39
-3.52
-7.18
-9.68
-11.32
-12.46
-13.51
-14.82
-16.57
-18.58
-20.37
-21.16
-20.16
-16.92
-11.57
-4.91
1.84
7.43
10.96
12.13
11.23
8.81
5.56
2.12
-0.96
-3.20
-4.23
-3.95
-2.61
-0.79
0.75
1.37
0.82
-0.59
-2.10
-2.81
-2.14
-0.00
3.15
6.54
9.45
11.35
11.93
11.08
8.74
5.07
0.56
-3.92
-7.34
-8.98
-8.87
-7.90
-7.34
-8.20
-10.53
-13.38
-15.23
-14.80
-11.67
-6.38
-0.05
6.30
12.03
16.88
20.63
22.79
22.77
20.16
15.25
9.07
3.16
-1.08
-2.77
-1.78
1.47
6.20
11.46
16.26
19.69
21.15
20.57
18.51
15.86
13.40
11.41
9.66
7.78
5.55
3.20
1.18
-0.20
-1.01
-1.66
-2.61
-4.15
-6.27
-8.82
-11.65
-14.58
-17.38
-19.61
-20.72
-20.20
-17.90
-14.09
-9.42
-4.74
-0.81
1.94
3.55
4.52
5.52
7.02
9.05
11.03
12.18
11.97
10.50
8.53
7.00
6.38
6.33
5.87
4.04
0.48
-4.23
-8.95
-12.55
-14.49
-15.00
-14.75
-14.39
-14.23
-14.21
-14.11
-13.90
-13.80
-14.26
-15.68
-18.22
-21.74
-25.81
-29.79
-33.00
-34.79
-34.68
-32.53
-28.50
-23.00
-16.54
-9.52
-2.23
5.08
11.96
17.79
21.85
23.63
23.13
20.91
17.95
15.35
13.96
14.20
15.97
18.68
21.33
22.81
22.23
19.22
14.19
8.20
2.56
-1.72
-4.34
-5.81
-7.01
-8.72
-11.24
-14.30
-17.38
-20.03
-22.13
-23.68
-24.67
-24.88
-24.02
-21.96
-18.91
-15.41
-11.94
-8.67
-5.32
-1.37
3.40
8.64
13.36
16.53
17.57
16.79
15.18
13.93
13.69
14.34
15.13
15.24
14.38
12.98
11.93
11.99
13.20
14.73
15.21
13.45
9.04
2.63
-4.40
-10.62
-15.15
-17.86
-19.26
-20.01
-20.55
-21.04
-21.52
-22.12
-23.04
-24.28
-25.51
-26.08
-25.31
-23.06
-19.84
-16.62
-14.24
-12.90
-12.02
-10.54
-7.52
-2.69
3.45
9.79
15.21
18.92
20.77
21.04
20.29
18.98
17.41
15.72
14.03
12.70
12.19
12.98
15.19
18.44
21.91
24.69
26.19
26.25
25.20
23.52
21.58
19.47
17.08
14.19
10.65
6.52
2.08
-2.14
-5.52
-7.53
-8.03
-7.39
-6.46
-6.20
-7.18
-9.30
-11.65
-13.00
-12.41
-9.78
-5.95
-2.30
-0.10
0.15
-1.14
-2.99
-4.49
-5.29
-5.64
-6.08
-6.84
-7.59
-7.57
-6.15
-3.28
0.41
3.88
6.29
7.32
7.19
6.37
5.19
3.75
1.96
-0.11
-2.25
-4.18
-5.77
-7.27
-9.06
-11.49
-14.52
-17.69
-20.29
-21.72
-21.78
-20.65
-18.76
-16.40
-13.55
-10.01
-5.66
-0.74
4.01
7.68
9.63
9.80
8.76
7.40
6.45
6.19
6.44
6.80
7.00
7.11
7.32
7.85
8.69
9.58
10.15
10.08
9.21
7.62
5.62
3.64
2.12
1.29
0.94
0.35
-1.41
-5.10
-10.73
-17.43
-23.67
-27.87
-29.08
-27.30
-23.26
-17.95
-11.99
-5.52
1.62
9.32
16.92
23.19
26.85
27.22
24.61
20.21
15.55
11.82
9.31
7.49
5.41
2.37
-1.57
-5.61
-8.56
-9.53
-8.35
-5.74
-2.98
-1.45
-2.04
-4.95
-9.62
-14.94
-19.58
-22.37
-22.62
-20.28
-15.87
-10.30
-4.56
0.50
4.26
6.35
6.69
5.52
3.49
1.51
0.48
0.83
2.24
3.71
4.05
2.51
-0.64
-4.17
-6.31
-5.50
-1.08
6.46
15.62
24.49
31.40
35.40
36.48
35.36
32.98
30.14
27.15
23.99
20.59
17.04
13.68
10.95
9.11
8.04
7.25
6.19
4.44
1.96
-0.90
-3.56
-5.49
-6.48
-6.79
-7.12
-8.28
-10.83
-14.57
-18.48
-21.07
-21.01
-17.90
-12.58
-6.82
-2.57
-1.08
-2.33
-5.18
-7.93
-9.14
-8.20
-5.43
-1.76
1.80
4.63
6.58
7.83
8.56
8.74
8.13
6.54
4.08
1.27
-1.08
-2.22
-1.86
-0.38
1.30
2.09
1.21
-1.50
-5.58
-10.28
-14.88
-18.94
-22.32
-24.95
-26.74
-27.44
-26.79
-24.62
-20.95
-15.92
-9.76
-2.73
4.79
12.19
18.51
22.71
23.95
21.97
17.26
10.92
4.34
-1.05
-4.13
-4.24
-1.23
4.40
11.60
18.89
24.71
27.84
27.74
24.73
19.76
14.10
8.87
4.80
2.09
0.45
-0.78
-2.40
-5.15
-9.39
-14.93
-21.05
-26.73
-31.04
-33.49
-34.14
-33.42
-31.70
-29.16
-25.63
-20.87
-14.96
-8.36
-1.89
3.66
7.79
10.42
11.71
11.91
11.26
9.95
8.37
7.04
6.50
7.05
8.56
10.51
12.31
13.60
14.39
14.93
15.34
15.51
15.01
13.47
10.83
7.31
3.28
-1.01
-5.40
-9.73
-13.52
-16.02
-16.49
-14.67
-11.16
-7.23
-4.30
-3.26
-4.09
-5.92
-7.48
-7.79
-6.49
-3.94
-0.83
2.07
4.31
5.73
6.43
6.55
6.19
5.45
4.48
3.72
3.67
4.85
7.38
10.92
14.70
17.83
19.60
19.81
18.69
16.75
14.52
12.35
10.37
8.51
6.55
4.17
0.89
-3.68
-9.67
-16.64
-23.60
-29.22
-32.43
-32.92
-31.28
-28.69
-26.35
-24.78
-23.65
-22.03
-19.00
-14.27
-8.32
-2.20
3.06
6.86
9.19
10.42
10.89
10.65
9.49
7.22
4.00
0.56
-2.02
-2.72
-1.10
2.34
6.40
9.64
11.11
10.68
9.05
7.33
6.47
6.72
7.66
8.32
7.72
5.25
0.95
-4.56
-10.37
-15.54
-19.55
-22.36
-24.37
-26.23
-28.41
-30.95
-33.41
-34.98
-34.82
-32.41
-27.79
-21.49
-14.41
-7.40
-1.07
4.31
8.74
12.32
15.04
16.86
17.74
17.74
17.07
16.04
15.00
14.28
14.19
14.93
16.45
18.43
20.25
21.21
20.82
19.06
16.41
13.55
11.06
9.17
7.75
6.51
5.30
4.10
2.99
1.91
0.68
-0.95
-3.07
-5.48
-7.78
-9.51
-10.42
-10.47
-9.74
-8.35
-6.31
-3.61
-0.39
3.08
6.45
9.53
12.31
14.96
17.58
20.07
22.07
23.17
23.15
22.14
20.57
19.01
17.87
17.41
17.63
18.40
19.45
20.34
20.62
19.86
17.80
14.44
9.99
4.74
-1.02
-6.98
-12.74
-17.79
-21.62
-23.96
-24.94
-25.12
-25.21
-25.81
-27.01
-28.48
-29.61
-29.82
-28.77
-26.42
-22.94
-18.59
-13.66
-8.44
-3.27
1.54
5.75
9.23
11.97
13.99
15.26
15.67
15.17
13.86
12.09
10.44
9.50
9.63
10.78
12.52
14.26
15.45
15.77
15.27
14.25
13.16
12.45
12.37
12.84
13.43
13.33
11.70
8.00
2.23
-4.90
-12.25
-18.71
-23.54
-26.59
-28.14
-28.65
-28.34
-27.14
-24.80
-21.01
-15.76
-9.32
-2.23
4.87
11.39
16.85
20.90
23.28
23.81
22.44
19.37
15.17
10.73
7.09
5.03
4.78
5.97
7.77
9.31
10.18
10.42
10.46
10.65
11.07
11.40
11.14
9.96
7.77
4.79
1.21
-2.88
-7.60
-13.06
-19.05
-24.92
-29.62
-32.18
-32.19
-30.06
-26.95
-24.17
-22.53
-21.85
-21.11
-19.02
-14.90
-9.07
-2.76
2.66
6.35
8.39
9.53
10.58
11.89
13.19
13.91
13.71
12.80
11.86
11.66
12.61
14.53
16.76
18.50
19.08
18.17
15.79
12.28
8.31
4.66
2.08
1.02
1.48
3.01
4.85
6.20
6.48
5.51
3.49
0.89
-1.72
-3.91
-5.50
-6.64
-7.72
-9.18
-11.29
-13.94
-16.62
-18.57
-19.09
-17.84
-14.99
-11.19
-7.31
-4.11
-2.01
-0.97
-0.60
-0.39
0.04
0.82
1.91
3.16
4.47
5.85
7.32
8.85
10.29
11.38
11.82
11.44
10.32
8.78
7.37
6.61
6.80
7.87
9.38
10.68
11.23
10.67
8.94
6.17
2.61
-1.47
-5.81
-10.16
-14.34
-18.28
-21.90
-25.00
-27.18
-27.83
-26.42
-22.79
-17.33
-10.97
-4.81
0.30
4.03
6.52
8.15
9.17
9.62
9.34
8.22
6.36
4.12
2.09
0.94
1.20
3.06
6.22
9.97
13.32
15.37
15.60
14.06
11.23
7.78
4.25
0.96
-1.94
-4.31
-5.97
-6.82
-7.03
-7.10
-7.75
-9.63
-13.05
-17.87
-23.52
-29.05
-33.32
-35.20
-33.92
-29.30
-22.06
-13.66
-5.86
-0.15
2.88
3.62
3.21
2.86
3.29
4.43
5.59
5.91
4.92
2.86
0.69
-0.40
0.41
3.06
6.59
9.55
10.76
9.89
7.56
4.93
3.01
2.10
1.78
1.28
-0.00
-2.13
-4.69
-7.13
-9.03
-10.31
-11.15
-11.85
-12.77
-14.16
-16.13
-18.55
-20.93
-22.51
-22.46
-20.29
-16.02
-10.28
-4.08
1.54
5.81
8.38
9.43
9.47
9.18
9.10
9.41
9.93
10.20
9.83
8.69
7.03
5.31
3.93
3.10
2.74
2.73
2.87
3.05
3.12
2.92
2.35
1.49
0.60
0.01
-0.07
0.28
0.73
0.89
0.43
-0.78
-2.80
-5.56
-8.85
-12.17
-14.69
-15.38
-13.34
-8.31
-0.94
7.28
14.47
19.07
20.39
18.87
15.69
12.33
9.77
8.31
7.53
6.84
5.89
4.88
4.37
4.93
6.64
9.02
11.22
12.38
12.10
10.45
7.94
5.08
2.19
-0.68
-3.68
-6.99
-10.78
-15.15
-20.08
-25.34
-30.39
-34.42
-36.52
-36.10
-33.21
-28.63
-23.52
-18.90
-15.26
-12.35
-9.48
-6.10
-2.18
1.70
4.72
6.34
6.61
6.25
6.27
7.41
9.86
13.07
16.14
18.23
18.92
18.32
16.85
14.91
12.73
10.31
7.49
4.24
0.59
-3.32
-7.31
-11.21
-14.85
-18.13
-20.98
-23.44
-25.52
-27.15
-28.08
-27.79
-25.73
-21.55
-15.37
-7.85
-0.03
7.04
12.61
16.42
18.63
19.56
19.48
18.47
16.53
13.77
10.58
7.63
5.67
5.24
6.35
8.46
10.73
12.24
12.45
11.27
9.11
6.62
4.40
2.84
1.90
1.25
0.40
-1.07
-3.32
-6.32
-9.93
-14.07
-18.64
-23.41
-27.79
-30.86
-31.53
-29.04
-23.32
-15.14
-5.97
2.54
9.14
13.23
14.94
14.87
13.72
12.06
10.22
8.46
7.14
6.78
7.89
10.64
14.63
18.91
22.32
24.07
24.03
22.75
21.08
19.62
18.52
17.48
16.17
14.40
12.25
9.86
7.26
4.34
0.96
-2.84
-6.77
-10.43
-13.50
-15.89
-17.68
-18.92
-19.35
-18.42
-15.50
-10.36
-3.40
4.32
11.47
16.99
20.53
22.46
23.59
24.66
25.91
27.09
27.69
27.35
26.16
24.56
23.15
22.26
21.82
21.38
20.39
18.56
16.11
13.70
12.06
11.65
12.28
13.24
13.62
12.76
10.51
7.20
3.38
-0.53
-4.34
-8.04
-11.64
-15.07
-18.20
-20.86
-22.94
-24.27
-24.58
-23.56
-20.98
-16.86
-11.65
-6.04
-0.79
3.51
6.61
8.60
9.74
10.41
10.93
11.54
12.34
13.33
14.41
15.50
16.49
17.16
17.14
15.95
13.17
8.80
3.39
-2.01
-6.23
-8.52
-8.84
-7.76
-6.15
-4.75
-3.92
-3.71
-4.10
-5.14
-6.97
-9.60
-12.78
-16.01
-18.75
-20.64
-21.66
-21.92
-21.45
-20.08
-17.47
-13.48
-8.36
-2.79
2.43
6.70
9.83
11.99
13.45
14.36
14.59
13.99
12.63
10.93
9.56
9.18
10.05
11.91
14.10
15.84
16.61
16.31
15.31
14.13
13.28
13.01
13.29
13.92
14.65
15.17
15.16
14.30
12.38
9.40
5.68
1.74
-1.89
-4.96
-7.49
-9.75
-11.93
-14.07
-16.02
-17.56
-18.42
-18.38
-17.08
-14.13
-9.22
-2.48
5.32
12.85
18.61
21.66
22.06
20.89
19.84
20.39
23.27
28.11
33.65
38.32
40.63
39.66
35.12
27.35
17.29
6.35
-3.85
-11.91
-17.27
-20.59
-23.60
-28.33
-36.12
-46.68
-57.99
-67.06
-71.11
-68.80
-60.65
-48.70
-35.59
-23.59
-14.07
-7.49
-3.69
-2.39
-3.32
-6.19
-10.42
-15.00
-18.58
-19.80
-17.89
-13.03
-6.43
0.10
4.88
7.11
7.07
5.83
4.53
3.80
3.49
3.11
2.28
1.15
0.27
0.19
1.07
2.51
3.87
4.66
4.92
5.13
5.93
7.68
10.17
12.66
14.23
14.21
12.42
9.26
5.48
1.88
-0.98
-2.88
-3.88
-4.26
-4.36
-4.59
-5.32
-6.78
-8.95
-11.58
-14.31
-16.80
-18.89
-20.49
-21.51
-21.66
-20.61
-18.23
-14.78
-10.93
-7.48
-5.02
-3.61
-2.77
-1.80
-0.08
2.62
6.02
9.48
12.20
13.54
13.26
11.66
9.46
7.56
6.64
6.98
8.41
10.45
12.67
14.72
16.37
17.31
17.18
15.63
12.62
8.50
3.94
-0.31
-3.78
-6.41
-8.44
-10.24
-12.03
-13.84
-15.54
-17.03
-18.25
-19.20
-19.87
-20.21
-20.16
-19.68
-18.77
-17.44
-15.66
-13.32
-10.24
-6.27
-1.45
3.90
9.11
13.27
15.51
15.24
12.44
7.72
2.17
-2.95
-6.50
-7.84
-6.91
-4.27
-0.86
2.27
4.40
5.40
5.73
6.10
7.02
8.42
9.65
9.85
8.49
5.65
2.04
-1.43
-4.13
-5.86
-6.85
-7.39
-7.75
-8.04
-8.42
-9.03
-9.96
-11.09
-11.96
-11.97
-10.66
-7.98
-4.43
-0.77
2.25
4.29
5.51
6.39
7.47
9.01
10.91
12.70
13.85
13.96
13.03
11.38
9.56
8.05
7.04
6.45
5.99
5.41
4.55
3.43
2.08
0.54
-1.17
-3.04
-4.94
-6.71
-8.20
-9.37
-10.31
-11.20
-12.29
-13.82
-15.95
-18.73
-21.93
-25.11
-27.54
-28.48
-27.34
-23.96
-18.67
-12.23
-5.48
0.81
6.25
10.69
14.12
16.51
17.70
17.57
16.13
13.69
10.80
8.05
5.89
4.49
3.83
3.84
4.52
5.74
7.18
8.22
8.20
6.79
4.34
1.73
-0.00
-0.34
0.36
1.06
0.56
-1.83
-5.97
-11.10
-16.32
-21.03
-25.04
-28.30
-30.65
-31.59
-30.59
-27.45
-22.60
-17.11
-12.22
-8.78
-6.80
-5.56
-4.02
-1.62
1.37
3.98
5.20
4.85
3.80
3.64
5.71
10.22
16.02
21.08
23.53
22.58
18.77
13.72
9.25
6.68
6.55
8.68
12.45
17.06
21.57
25.01
26.52
25.54
22.03
16.44
9.57
2.39
-4.22
-9.60
-13.22
-14.82
-14.31
-11.87
-7.98
-3.35
1.21
5.03
7.76
9.52
10.74
11.95
13.43
15.07
16.32
16.51
15.23
12.62
9.40
6.51
4.67
3.95
3.84
3.55
2.47
0.50
-1.95
-4.26
-5.99
-7.10
-7.97
-9.11
-10.92
-13.42
-16.36
-19.30
-21.88
-23.92
-25.27
-25.76
-25.09
-22.90
-19.00
-13.54
-7.16
-0.71
4.93
9.19
11.92
13.33
13.78
13.68
13.33
12.92
12.64
12.68
13.16
14.03
14.98
15.50
15.07
13.45
10.79
7.69
4.89
2.95
1.99
1.61
1.19
0.16
-1.71
-4.27
-7.19
-10.14
-12.91
-15.44
-17.68
-19.55
-20.88
-21.47
-21.08
-19.46
-16.50
-12.23
-6.98
-1.38
3.84
8.06
11.06
12.96
14.12
14.81
15.05
14.68
13.63
12.09
10.57
9.67
9.68
10.46
11.49
12.21
12.28
11.71
10.73
9.58
8.40
7.14
5.74
4.07
2.03
-0.53
-3.71
-7.58
-12.03
-16.67
-20.95
-24.25
-26.09
-26.25
-24.77
-21.85
-17.74
-12.72
-7.03
-1.00
5.00
10.53
15.18
18.59
20.50
20.79
19.36
16.26
11.71
6.33
1.14
-2.61
-3.79
-1.87
2.80
9.00
15.03
19.27
20.72
19.34
15.92
11.73
7.85
4.86
2.61
0.59
-1.66
-4.16
-6.51
-8.21
-9.06
-9.42
-9.91
-10.96
-12.29
-12.92
-11.66
-7.77
-1.54
5.80
12.56
17.39
19.65
19.45
17.30
13.79
9.42
4.71
0.33
-3.00
-4.69
-4.57
-2.98
-0.52
2.24
5.02
7.78
10.52
13.04
15.03
16.21
16.55
16.35
15.89
15.18
13.76
10.97
6.34
0.06
-7.03
-13.75
-19.11
-22.66
-24.46
-24.76
-23.70
-21.14
-16.92
-11.20
-4.65
1.68
6.71
9.80
10.97
10.70
9.74
8.61
7.47
6.12
4.32
2.11
-0.02
-1.23
-0.83
1.31
4.53
7.67
9.62
9.89
8.81
7.23
5.96
5.32
4.95
4.17
2.41
-0.53
-4.38
-8.65
-12.81
-16.47
-19.37
-21.38
-22.53
-22.94
-22.78
-22.06
-20.57
-17.92
-13.85
-8.45
-2.35
3.48
8.12
11.08
12.45
12.78
12.66
12.40
12.00
11.33
10.39
9.49
9.08
9.51
10.73
12.29
13.60
14.26
14.23
13.73
13.07
12.31
11.27
9.67
7.40
4.66
1.94
-0.33
-2.06
-3.59
-5.47
-8.17
-11.73
-15.73
-19.48
-22.37
-24.06
-24.58
-24.12
-22.81
-20.60
-17.31
-12.88
-7.62
-2.16
2.67
6.23
8.35
9.30
9.62
9.82
10.09
10.45
10.84
11.32
12.13
13.49
15.42
17.59
19.44
20.35
19.91
18.08
15.24
11.96
8.85
6.30
4.35
2.71
0.94
-1.28
-4.01
-7.00
-9.83
-12.17
-13.99
-15.55
-17.24
-19.31
-21.72
-24.09
-25.89
-26.70
-26.35
-25.01
-23.01
-20.62
-17.85
-14.50
-10.30
-5.24
0.36
5.92
10.76
14.41
16.68
17.63
17.44
16.33
14.62
12.71
11.09
10.19
10.23
11.12
12.53
14.08
15.43
16.35
16.66
16.21
14.97
13.09
10.95
9.00
7.52
6.42
5.29
3.72
1.60
-0.67
-2.43
-3.22
-3.21
-3.24
-4.42
-7.48
-12.33
-18.04
-23.38
-27.39
-29.83
-31.06
-31.67
-31.94
-31.65
-30.25
-27.18
-22.32
-16.07
-9.29
-2.97
2.12
5.61
7.60
8.51
8.86
9.02
9.13
9.18
9.19
9.39
10.17
11.82
14.28
17.04
19.26
20.24
19.76
18.20
16.30
14.68
13.50
12.42
10.86
8.42
5.13
1.42
-2.15
-5.26
-7.97
-10.62
-13.50
-16.66
-19.78
-22.38
-24.11
-24.90
-25.03
-24.87
-24.62
-24.03
-22.54
-19.55
-14.88
-9.02
-3.04
1.93
5.16
6.69
7.19
7.49
8.08
8.91
9.47
9.26
8.17
6.59
5.18
4.52
4.91
6.21
8.04
9.96
11.58
12.60
12.89
12.37
11.07
9.04
6.34
3.15
-0.21
-3.20
-5.19
-5.70
-4.72
-2.84
-1.09
-0.55
-1.90
-5.06
-9.32
-13.62
-17.09
-19.29
-20.29
-20.35
-19.66
-18.13
-15.54
-11.77
-7.02
-1.86
2.97
6.85
9.62
11.53
13.05
14.48
15.82
16.72
16.84
16.10
14.78
13.47
12.63
12.36
12.34
11.95
10.67
8.44
5.68
3.08
1.23
0.22
-0.35
-1.14
-2.74
-5.27
-8.47
-11.86
-15.10
-18.13
-21.12
-24.17
-27.12
-29.47
-30.54
-29.76
-26.86
-21.98
-15.60
-8.43
-1.37
4.73
9.17
11.67
12.40
11.88
10.74
9.48
8.29
7.24
6.35
5.82
5.92
6.85
8.52
10.55
12.34
13.35
13.28
12.15
10.20
7.78
5.18
2.56
-0.02
-2.56
-5.11
-7.73
-10.47
-13.44
-16.66
-20.04
-23.27
-25.86
-27.24
-26.94
-24.75
-20.79
-15.45
-9.24
-2.71
3.67
9.48
14.39
18.14
20.55
21.64
21.62
20.78
19.48
17.95
16.31
14.51
12.51
10.36
8.21
6.32
4.89
4.00
3.62
3.61
3.88
4.30
4.69
4.70
3.89
1.89
-1.40
-5.63
-10.10
-14.04
-16.97
-18.89
-20.16
-21.25
-22.24
-22.75
-22.00
-19.24
-14.21
-7.44
-0.03
6.68
11.71
14.75
16.16
16.67
16.93
17.27
17.57
17.55
16.98
15.94
14.80
13.97
13.79
14.26
15.17
16.12
16.74
16.76
16.05
14.64
12.69
10.44
8.11
5.86
3.68
1.52
-0.71
-3.04
-5.39
-7.69
-9.97
-12.36
-15.02
-17.95
-20.81
-22.90
-23.43
-21.77
-17.88
-12.32
-6.07
-0.12
4.81
8.47
10.97
12.52
13.29
13.29
12.54
11.23
9.80
8.77
8.58
9.30
10.62
12.02
12.90
12.93
12.11
10.74
9.31
8.15
7.32
6.47
5.07
2.63
-0.92
-5.20
-9.47
-13.01
-15.44
-16.90
-17.90
-19.05
-20.64
-22.55
-24.27
-25.11
-24.46
-21.99
-17.71
-12.01
-5.59
0.72
6.17
10.31
13.03
14.54
15.13
15.06
14.52
13.66
12.75
12.16
12.29
13.37
15.29
17.61
19.70
21.00
21.20
20.34
18.69
16.60
14.35
12.02
9.58
6.94
4.07
1.11
-1.75
-4.29
-6.45
-8.33
-10.18
-12.25
-14.66
-17.38
-20.20
-22.80
-24.79
-25.77
-25.41
-23.57
-20.31
-15.97
-11.02
-6.00
-1.33
2.74
6.13
8.89
11.06
12.67
13.70
14.07
13.79
12.97
11.92
11.07
10.91
11.80
13.76
16.43
19.17
21.31
22.40
22.35
21.40
19.87
17.97
15.80
13.37
10.81
8.37
6.33
4.88
3.92
3.15
2.24
1.03
-0.34
-1.57
-2.40
-2.82
-3.06
-3.52
-4.51
-6.14
-8.25
-10.44
-12.33
-13.72
-14.72
-15.64
-16.82
-18.33
-19.84
-20.72
-20.37
-18.53
-15.47
-11.81
-8.11
-4.64
-1.34
1.98
5.24
8.04
9.86
10.40
9.86
8.86
8.14
8.08
8.63
9.35
9.82
9.92
9.87
9.97
10.36
10.85
11.11
10.88
10.17
9.16
8.02
6.72
5.03
2.75
-0.03
-2.87
-5.19
-6.58
-7.10
-7.19
-7.47
-8.38
-9.97
-11.99
-14.09
-16.01
-17.69
-19.25
-20.76
-22.26
-23.65
-24.75
-25.21
-24.63
-22.62
-19.03
-14.11
-8.49
-3.14
1.10
3.74
4.83
4.89
4.61
4.57
5.02
5.91
6.99
7.98
8.76
9.35
9.99
10.94
12.36
14.14
15.88
17.00
17.02
15.76
13.43
10.56
7.69
5.15
3.01
1.17
-0.46
-1.82
-2.75
-3.18
-3.19
-3.08
-3.16
-3.68
-4.72
-6.21
-8.09
-10.24
-12.56
-14.87
-16.90
-18.47
-19.56
-20.39
-21.26
-22.29
-23.25
-23.54
-22.50
-19.81
-15.74
-11.04
-6.58
-2.97
-0.27
1.86
3.93
6.21
8.59
10.63
11.86
12.03
11.26
10.09
9.23
9.33
10.73
13.29
16.38
19.19
20.93
21.19
20.01
17.82
15.20
12.56
10.06
7.64
5.23
2.90
0.93
-0.39
-1.03
-1.29
-1.82
-3.23
-5.74
-9.04
-12.36
-14.97
-16.47
-17.00
-17.01
-16.95
-16.92
-16.62
-15.68
-13.84
-11.27
-8.36
-5.55
-3.08
-0.94
0.95
2.51
3.53
3.75
3.15
2.09
1.18
0.99
1.75
3.21
4.88
6.27
7.22
7.90
8.56
9.24
9.68
9.47
8.29
6.20
3.52
0.78
-1.68
-3.75
-5.45
-6.93
-8.25
-9.46
-10.61
-11.79
-13.08
-14.48
-15.96
-17.43
-18.89
-20.28
-21.43
-22.01
-21.62
-19.95
-17.00
-13.07
-8.58
-3.82
1.03
5.74
9.88
12.74
13.68
12.54
9.86
6.65
3.96
2.32
1.72
1.80
2.39
3.61
5.72
8.66
11.85
14.33
15.31
14.56
12.54
10.01
7.53
5.22
2.86
0.24
-2.55
-5.10
-7.06
-8.34
-9.25
-10.29
-11.83
-13.92
-16.34
-18.79
-20.96
-22.61
-23.44
-23.08
-21.23
-17.83
-13.28
-8.28
-3.57
0.44
3.83
6.97
10.22
13.47
16.13
17.42
16.87
14.65
11.60
8.86
7.37
7.48
8.92
11.10
13.42
15.41
16.66
16.69
15.01
11.42
6.38
1.04
-3.21
-5.42
-5.64
-4.87
-4.34
-4.78
-6.00
-7.20
-7.74
-7.66
-7.73
-8.80
-11.08
-13.82
-15.72
-15.67
-13.42
-9.64
-5.42
-1.63
1.49
4.16
6.75
9.39
11.83
13.59
14.24
13.62
12.01
9.99
8.26
7.39
7.53
8.41
9.38
9.76
9.11
7.48
5.36
3.41
2.13
1.59
1.44
1.11
0.05
-2.07
-5.24
-9.18
-13.41
-17.38
-20.69
-23.16
-24.91
-26.20
-27.16
-27.64
-27.16
-25.13
-21.19
-15.59
-9.12
-2.81
2.48
6.45
9.36
11.73
13.91
15.79
16.88
16.74
15.30
13.07
10.96
9.82
10.00
11.23
12.87
14.21
14.86
14.75
13.99
12.65
10.62
7.76
4.06
-0.23
-4.59
-8.53
-11.70
-14.07
-15.91
-17.58
-19.38
-21.38
-23.39
-24.98
-25.56
-24.58
-21.71
-17.02
-10.99
-4.39
1.95
7.41
11.62
14.55
16.30
17.03
16.94
16.25
15.22
14.09
13.03
12.12
11.44
11.11
11.38
12.44
14.23
16.27
17.75
17.91
16.45
13.69
10.44
7.50
5.21
3.32
1.24
-1.39
-4.48
-7.49
-9.83
-11.36
-12.42
-13.60
-15.17
-16.75
-17.43
-16.24
-12.78
-7.52
-1.58
3.84
8.00
10.93
13.14
15.16
17.17
18.79
19.47
18.84
17.06
14.83
13.03
12.30
12.69
13.76
14.83
15.34
15.11
14.26
13.02
11.54
9.81
7.69
5.12
2.10
-1.26
-4.80
-8.39
-11.88
-15.12
-17.93
-20.17
-21.78
-22.85
-23.50
-23.88
-23.93
-23.44
-22.09
-19.54
-15.76
-11.02
-5.94
-1.15
2.87
6.03
8.61
10.99
13.39
15.64
17.25
17.72
16.89
15.12
13.17
11.89
11.82
12.93
14.71
16.40
17.29
17.05
15.77
13.87
11.90
10.25
8.96
7.75
6.21
4.05
1.21
-2.13
-5.67
-9.10
-12.28
-15.11
-17.54
-19.53
-21.10
-22.27
-23.03
-23.18
-22.37
-20.19
-16.53
-11.67
-6.33
-1.34
2.76
5.91
8.40
10.55
12.33
13.34
13.10
11.50
9.02
6.70
5.64
6.48
9.02
12.38
15.43
17.36
18.01
17.78
17.19
16.53
15.61
14.03
11.51
8.21
4.70
1.70
-0.43
-1.79
-2.86
-4.07
-5.51
-6.92
-7.90
-8.27
-8.24
-8.29
-8.84
-10.00
-11.51
-13.03
-14.33
-15.50
-16.70
-17.88
-18.54
-17.81
-14.97
-9.87
-3.34
3.10
7.82
9.85
9.29
7.31
5.48
5.01
6.26
8.63
11.07
12.70
13.26
13.14
13.05
13.47
14.36
15.18
15.35
14.55
13.04
11.40
10.16
9.43
8.83
7.71
5.58
2.46
-1.13
-4.41
-6.76
-8.06
-8.72
-9.43
-10.81
-13.07
-15.94
-18.84
-21.24
-22.90
-23.93
-24.57
-24.98
-25.06
-24.47
-22.89
-20.28
-16.94
-13.35
-9.92
-6.78
-3.82
-0.86
2.09
4.77
6.80
7.96
8.36
8.38
8.48
8.96
9.81
10.81
11.70
12.35
12.77
13.06
13.31
13.56
13.79
13.96
13.99
13.64
12.63
10.68
7.81
4.38
1.07
-1.42
-2.72
-3.00
-2.87
-3.02
-3.90
-5.50
-7.48
-9.49
-11.37
-13.15
-14.97
-16.89
-18.84
-20.71
-22.44
-23.98
-25.06
-25.22
-23.87
-20.67
-15.89
-10.49
-5.70
-2.46
-0.92
-0.43
0.03
1.21
3.16
5.33
6.96
7.60
7.33
6.72
6.43
6.93
8.28
10.22
12.29
14.05
15.10
15.22
14.41
12.84
10.83
8.68
6.61
4.71
3.04
1.69
0.77
0.37
0.34
0.25
-0.44
-2.17
-4.88
-8.02
-10.68
-12.10
-12.09
-11.19
-10.39
-10.57
-11.92
-13.73
-14.76
-13.93
-10.89
-6.33
-1.53
2.29
4.60
5.71
6.43
7.43
8.85
10.20
10.77
10.13
8.41
6.27
4.56
3.89
4.44
5.87
7.63
9.14
10.06
10.32
10.05
9.36
8.20
6.41
3.90
0.89
-2.13
-4.58
-6.19
-7.21
-8.37
-10.45
-13.70
-17.68
-21.37
-23.87
-24.88
-24.90
-24.82
-25.35
-26.50
-27.55
-27.49
-25.55
-21.65
-16.31
-10.31
-4.35
1.21
6.23
10.54
13.76
15.46
15.34
13.55
10.77
7.95
6.02
5.50
6.36
8.15
10.23
12.03
13.26
13.86
13.94
13.66
13.05
12.01
10.34
7.90
4.71
1.06
-2.59
-5.80
-8.36
-10.34
-12.04
-13.76
-15.67
-17.70
-19.61
-21.05
-21.74
-21.51
-20.35
-18.37
-15.76
-12.69
-9.30
-5.66
-1.85
2.01
5.72
8.99
11.56
13.22
13.89
13.60
12.58
11.21
10.01
9.45
9.74
10.70
11.80
12.44
12.19
11.04
9.35
7.54
5.87
4.29
2.48
0.18
-2.68
-5.83
-8.82
-11.29
-13.09
-14.40
-15.64
-17.22
-19.33
-21.79
-24.01
-25.17
-24.50
-21.56
-16.52
-10.10
-3.35
2.70
7.40
10.69
12.96
14.80
16.59
18.32
19.56
19.75
18.56
16.16
13.21
10.69
9.44
9.80
11.46
13.61
15.28
15.78
14.97
13.17
10.95
8.68
6.42
3.90
0.87
-2.66
-6.31
-9.58
-12.16
-14.15
-16.04
-18.35
-21.31
-24.55
-27.25
-28.49
-27.69
-24.86
-20.52
-15.39
-10.03
-4.68
0.60
5.71
10.26
13.65
15.40
15.44
14.22
12.55
11.12
10.23
9.70
9.19
8.52
7.88
7.70
8.28
9.49
10.74
11.24
10.48
8.45
5.62
2.62
-0.13
-2.66
-5.30
-8.45
-12.28
-16.58
-20.90
-24.77
-27.80
-29.75
-30.40
-29.50
-26.82
-22.28
-16.15
-9.06
-1.80
4.88
10.51
14.99
18.45
20.99
22.66
23.33
22.93
21.59
19.69
17.78
16.35
15.64
15.54
15.70
15.76
15.49
14.86
13.96
12.85
11.48
9.69
7.36
4.58
1.56
-1.40
-4.16
-6.76
-9.38
-12.16
-15.08
-17.94
-20.53
-22.77
-24.63
-26.01
-26.55
-25.62
-22.58
-17.19
-9.87
-1.67
6.08
12.37
16.77
19.47
21.03
21.91
22.34
22.25
21.49
20.05
18.15
16.23
14.85
14.49
15.36
17.29
19.73
21.89
23.06
22.85
21.29
18.69
15.37
11.52
7.18
2.50
-2.17
-6.28
-9.30
-11.08
-11.94
-12.62
-13.89
-16.22
-19.55
-23.28
-26.48
-28.12
-27.40
-23.98
-18.10
-10.67
-2.95
3.76
8.59
11.35
12.48
12.74
12.79
12.90
12.97
12.83
12.45
12.08
12.04
12.51
13.30
13.93
13.85
12.78
10.83
8.50
6.37
4.83
4.00
3.67
3.49
3.12
2.30
0.87
-1.21
-3.89
-7.05
-10.54
-14.24
-17.99
-21.61
-24.75
-26.90
-27.47
-26.00
-22.43
-17.20
-11.12
-5.04
0.45
5.23
9.48
13.37
16.79
19.31
20.46
20.01
18.28
15.95
13.82
12.38
11.71
11.55
11.60
11.71
11.92
12.34
12.90
13.33
13.21
12.18
10.13
7.27
4.01
0.78
-2.12
-4.69
-7.08
-9.49
-11.98
-14.46
-16.75
-18.72
-20.41
-21.94
-23.27
-24.11
-23.87
-21.99
-18.23
-12.97
-7.01
-1.29
3.54
7.28
10.09
12.18
13.60
14.17
13.69
12.15
9.95
7.75
6.29
6.01
6.93
8.62
10.45
11.83
12.44
12.29
11.63
10.73
9.70
8.47
6.89
4.90
2.55
-0.03
-2.76
-5.66
-8.75
-11.90
-14.82
-17.12
-18.69
-19.69
-20.53
-21.51
-22.52
-22.97
-22.11
-19.52
-15.35
-10.34
-5.37
-1.13
2.24
4.91
7.21
9.29
11.05
12.28
12.78
12.55
11.78
10.82
10.10
9.97
10.56
11.69
12.89
13.60
13.47
12.45
10.87
9.13
7.47
5.86
4.09
2.04
-0.19
-2.35
-4.24
-5.96
-7.92
-10.57
-14.11
-18.29
-22.45
-25.92
-28.22
-29.25
-29.13
-27.96
-25.67
-22.12
-17.35
-11.77
-6.05
-0.91
3.27
6.48
8.96
10.89
12.22
12.68
12.05
10.48
8.54
7.01
6.53
7.29
8.97
10.86
12.31
12.91
12.67
11.87
10.90
9.94
8.96
7.69
5.90
3.53
0.78
-1.93
-4.24
-6.08
-7.71
-9.62
-12.25
-15.72
-19.70
-23.56
-26.69
-28.69
-29.43
-28.95
-27.18
-23.98
-19.22
-13.07
-6.15
0.60
6.26
10.30
12.77
14.14
14.95
15.41
15.40
14.69
13.29
11.64
10.46
10.26
11.06
12.28
13.18
13.33
12.84
12.22
11.89
11.77
11.32
9.87
7.14
3.51
-0.25
-3.38
-5.64
-7.35
-9.05
-11.10
-13.41
-15.57
-17.25
-18.49
-19.67
-21.26
-23.37
-25.56
-26.94
-26.52
-23.73
-18.67
-12.11
-5.17
1.21
6.52
10.77
14.23
17.10
19.28
20.47
20.38
19.07
17.08
15.19
14.10
14.04
14.71
15.45
15.70
15.29
14.50
13.79
13.46
13.34
12.85
11.34
8.52
4.63
0.37
-3.60
-6.96
-9.82
-12.55
-15.43
-18.45
-21.42
-24.15
-26.63
-28.94
-31.01
-32.43
-32.47
-30.44
-26.08
-19.79
-12.55
-5.43
0.72
5.60
9.29
12.07
14.20
15.78
16.84
17.37
17.39
17.00
16.32
15.58
14.99
14.70
14.77
15.10
15.55
16.05
16.65
17.40
18.16
18.46
17.62
15.07
10.80
5.46
0.17
-4.09
-6.98
-8.88
-10.62
-12.92
-16.06
-19.78
-23.54
-26.84
-29.33
-30.81
-30.98
-29.52
-26.19
-21.09
-14.80
-8.17
-2.09
2.96
6.94
10.10
12.66
14.68
16.03
16.55
16.24
15.36
14.38
13.74
13.71
14.34
15.48
16.89
18.27
19.31
19.74
19.35
18.05
15.93
13.23
10.23
7.13
4.04
0.99
-2.02
-4.97
-7.82
-10.57
-13.18
-15.67
-18.03
-20.24
-22.35
-24.43
-26.51
-28.45
-29.84
-29.97
-28.17
-24.09
-17.97
-10.59
-2.99
3.95
9.78
14.38
17.79
20.00
20.86
20.24
18.27
15.40
12.33
9.81
8.32
8.04
8.81
10.27
12.06
13.82
15.34
16.44
17.00
16.93
16.15
14.64
12.47
9.81
6.84
3.73
0.56
-2.61
-5.72
-8.65
-11.32
-13.80
-16.24
-18.84
-21.54
-23.88
-25.09
-24.41
-21.44
-16.41
-10.14
-3.63
2.23
6.94
10.41
12.76
14.19
14.79
14.62
13.72
12.25
10.56
9.10
8.36
8.61
9.86
11.72
13.60
14.92
15.32
14.81
13.67
12.22
10.60
8.74
6.46
3.63
0.28
-3.38
-7.09
-10.65
-13.92
-16.90
-19.57
-21.96
-24.06
-25.84
-27.16
-27.81
-27.41
-25.58
-22.12
-17.14
-11.17
-4.94
0.85
5.74
9.59
12.50
14.67
16.22
17.17
17.47
17.11
16.14
14.78
13.30
12.03
11.18
10.89
11.12
11.70
12.36
12.79
12.74
12.09
10.80
8.92
6.60
3.99
1.24
-1.59
-4.50
-7.48
-10.48
-13.36
-16.00
-18.37
-20.57
-22.70
-24.72
-26.28
-26.79
-25.64
-22.57
-17.80
-12.04
-6.18
-0.92
3.37
6.72
9.37
11.55
13.38
14.79
15.63
15.75
15.11
13.97
12.77
12.09
12.33
13.46
14.97
16.05
15.97
14.48
11.95
9.12
6.74
5.11
3.99
2.83
1.10
-1.38
-4.43
-7.65
-10.70
-13.46
-15.93
-18.17
-20.04
-21.18
-21.11
-19.40
-15.90
-10.91
-5.05
0.88
6.17
10.43
13.59
15.79
17.12
17.54
16.87
15.06
12.40
9.51
7.14
5.80
5.59
6.18
7.04
7.74
8.06
7.96
7.40
6.27
4.44
1.89
-1.17
-4.34
-7.21
-9.58
-11.51
-13.22
-14.96
-16.81
-18.68
-20.41
-21.93
-23.21
-24.25
-24.90
-24.79
-23.42
-20.43
-15.82
-10.10
-4.12
1.23
5.35
8.07
9.63
10.37
10.59
10.39
9.82
8.97
8.11
7.60
7.74
8.61
10.01
11.53
12.71
13.21
12.83
11.57
9.61
7.19
4.62
2.09
-0.32
-2.64
-4.94
-7.22
-9.38
-11.33
-13.12
-14.99
-17.26
-20.08
-23.24
-25.97
-27.25
-26.21
-22.53
-16.66
-9.60
-2.48
3.80
8.84
12.57
15.06
16.34
16.35
15.11
12.96
10.55
8.63
7.84
8.40
10.01
12.12
14.09
15.49
16.21
16.33
16.05
15.56
14.92
14.15
13.23
12.09
10.59
8.53
5.66
1.87
-2.65
-7.42
-11.81
-15.27
-17.54
-18.75
-19.27
-19.48
-19.48
-19.07
-17.85
-15.53
-12.07
-7.80
-3.16
1.44
5.81
9.93
13.82
17.37
20.23
21.97
22.23
21.03
18.87
16.57
14.97
14.59
15.41
16.86
18.14
18.49
17.51
15.23
12.01
8.28
4.31
0.21
-3.95
-7.97
-11.42
-13.83
-14.92
-14.79
-13.93
-12.95
-12.38
-12.45
-13.15
-14.33
-15.86
-17.52
-18.96
-19.60
-18.88
-16.46
-12.51
-7.67
-2.78
1.49
4.88
7.51
9.64
11.43
12.81
13.53
13.39
12.36
10.64
8.69
7.01
6.01
5.84
6.32
6.96
7.19
6.61
5.16
3.09
0.87
-1.12
-2.73
-4.05
-5.28
-6.63
-8.19
-9.95
-11.87
-13.93
-16.18
-18.64
-21.31
-24.01
-26.40
-27.97
-28.13
-26.42
-22.70
-17.25
-10.73
-3.97
2.30
7.60
11.73
14.69
16.55
17.36
17.20
16.21
14.64
12.86
11.24
10.07
9.51
9.60
10.29
11.46
12.95
14.51
15.81
16.50
16.29
15.10
13.10
10.65
8.13
5.79
3.67
1.62
-0.53
-2.89
-5.40
-7.97
-10.43
-12.64
-14.46
-15.76
-16.52
-16.91
-17.25
-17.99
-19.35
-21.12
-22.59
-22.71
-20.62
-16.02
-9.50
-2.31
4.15
8.89
11.73
13.20
14.08
14.89
15.58
15.70
14.89
13.26
11.53
10.66
11.25
13.16
15.58
17.53
18.31
17.94
16.93
15.87
14.98
14.01
12.45
9.98
6.73
3.22
0.06
-2.43
-4.39
-6.26
-8.47
-11.18
-14.15
-16.98
-19.38
-21.25
-22.72
-23.82
-24.35
-23.83
-21.79
-18.05
-12.98
-7.37
-2.09
2.19
5.28
7.40
8.91
10.16
11.23
12.01
12.22
11.63
10.20
8.15
6.00
4.33
3.66
4.18
5.68
7.62
9.37
10.47
10.81
10.57
10.02
9.25
8.10
6.27
3.61
0.31
-3.13
-6.08
-8.09
-9.14
-9.55
-9.84
-10.51
-11.89
-14.16
-17.35
-21.32
-25.62
-29.44
-31.79
-31.76
-28.94
-23.62
-16.73
-9.44
-2.78
2.64
6.66
9.48
11.45
12.93
14.15
15.15
15.77
15.78
15.00
13.58
11.93
10.61
10.06
10.39
11.30
12.33
13.08
13.38
13.27
12.81
11.96
10.54
8.42
5.71
2.81
0.27
-1.46
-2.27
-2.50
-2.71
-3.48
-5.07
-7.37
-10.02
-12.62
-14.98
-17.15
-19.24
-21.21
-22.73
-23.26
-22.33
-19.82
-16.04
-11.57
-7.02
-2.78
1.02
4.38
7.25
9.49
10.92
11.52
11.41
10.96
10.56
10.51
10.96
11.94
13.37
15.05
16.67
17.79
17.96
16.90
14.65
11.68
8.65
6.14
4.40
3.22
2.08
0.43
-1.95
-4.87
-7.85
-10.38
-12.23
-13.54
-14.74
-16.27
-18.27
-20.46
-22.24
-22.97
-22.26
-20.14
-17.01
-13.39
-9.68
-6.04
-2.49
0.93
4.00
6.40
7.79
8.11
7.52
6.42
5.24
4.27
3.70
3.57
3.88
4.56
5.54
6.70
7.96
9.22
10.33
11.08
11.16
10.29
8.41
5.76
2.77
-0.13
-2.78
-5.39
-8.29
-11.68
-15.34
-18.75
-21.34
-22.83
-23.32
-23.17
-22.63
-21.65
-19.93
-17.17
-13.37
-8.90
-4.31
-0.11
3.48
6.50
9.07
11.26
12.93
13.84
13.74
12.62
10.77
8.78
7.37
7.13
8.26
10.48
13.06
15.15
16.05
15.50
13.69
11.08
8.11
5.05
2.07
-0.72
-3.10
-4.89
-6.00
-6.67
-7.38
-8.65
-10.86
-14.07
-18.03
-22.28
-26.21
-29.15
-30.39
-29.30
-25.66
-19.79
-12.64
-5.49
0.55
4.92
7.77
9.68
11.26
12.76
14.00
14.61
14.40
13.51
12.47
11.83
11.87
12.43
13.02
13.08
12.33
10.84
9.02
7.38
6.34
6.04
6.29
6.62
6.37
4.97
2.16
-1.76
-6.03
-9.71
-12.19
-13.48
-14.27
-15.37
-17.24
-19.56
-21.44
-21.92
-20.54
-17.59
-13.75
-9.66
-5.44
-0.78
4.70
10.94
17.27
22.52
25.58
25.91
23.77
20.12
16.19
13.01
11.00
10.04
9.59
9.13
8.36
7.26
5.97
4.57
2.97
0.99
-1.43
-4.14
-6.81
-9.14
-11.05
-12.75
-14.59
-16.90
-19.79
-23.13
-26.56
-29.56
-31.57
-32.09
-30.81
-27.74
-23.18
-17.69
-11.79
-5.93
-0.32
4.88
9.56
13.52
16.61
18.79
20.12
20.66
20.43
19.35
17.42
14.92
12.46
10.85
10.71
12.11
14.46
16.76
18.03
17.77
16.14
13.71
11.13
8.74
6.46
3.98
1.11
-2.02
-5.00
-7.36
-8.96
-10.14
-11.58
-13.93
-17.37
-21.37
-24.78
-26.29
-25.00
-20.92
-14.92
-8.32
-2.27
2.71
6.74
10.21
13.36
16.00
17.67
18.02
17.09
15.36
13.53
12.08
11.20
10.74
10.49
10.35
10.29
10.28
10.21
9.90
9.19
8.09
6.69
5.13
3.36
1.28
-1.24
-4.14
-7.15
-9.84
-11.92
-13.43
-14.75
-16.36
-18.56
-21.14
-23.37
-24.36
-23.41
-20.31
-15.47
-9.61
-3.46
2.55
8.25
13.61
18.44
22.30
24.61
24.85
22.87
19.07
14.38
9.98
6.96
5.86
6.56
8.25
9.90
10.62
10.07
8.46
6.34
4.25
2.46
0.93
-0.50
-1.95
-3.40
-4.82
-6.30
-8.13
-10.69
-14.22
-18.62
-23.44
-28.04
-31.73
-34.01
-34.50
-32.97
-29.34
-23.78
-16.80
-9.17
-1.74
4.78
10.02
13.90
16.48
17.86
18.11
17.36
15.95
14.38
13.22
12.85
13.34
14.44
15.77
16.97
17.78
18.06
17.71
16.67
14.94
12.62
9.90
7.00
4.04
1.05
-2.01
-5.16
-8.24
-11.05
-13.45
-15.50
-17.53
-19.84
-22.51
-25.09
-26.76
-26.62
-24.15
-19.52
-13.48
-7.13
-1.36
3.35
7.02
9.91
12.30
14.27
15.68
16.29
16.00
14.95
13.54
12.38
12.02
12.77
14.50
16.70
18.64
19.66
19.44
18.09
16.02
13.72
11.51
9.51
7.60
5.67
3.62
1.46
-0.74
-2.86
-4.80
-6.52
-8.05
-9.53
-11.15
-13.05
-15.24
-17.59
-19.88
-21.94
-23.72
-25.17
-26.11
-26.16
-24.78
-21.54
-16.41
-9.89
-2.90
3.54
8.73
12.43
14.77
15.97
16.12
15.21
13.30
10.74
8.34
7.03
7.51
9.83
13.31
16.82
19.26
20.01
19.17
17.32
15.11
12.91
10.66
8.12
5.13
1.86
-1.20
-3.58
-5.08
-6.00
-6.92
-8.35
-10.39
-12.68
-14.63
-15.82
-16.32
-16.65
-17.36
-18.65
-20.12
-20.91
-20.20
-17.71
-13.81
-9.35
-5.11
-1.46
1.72
4.72
7.61
10.06
11.48
11.40
9.91
7.68
5.76
5.12
6.17
8.67
11.87
14.88
17.06
18.25
18.67
18.66
18.37
17.71
16.37
14.12
11.02
7.45
3.99
1.09
-1.10
-2.76
-4.24
-5.86
-7.76
-9.89
-12.16
-14.46
-16.75
-19.01
-21.19
-23.24
-25.09
-26.59
-27.48
-27.31
-25.63
-22.17
-17.07
-10.94
-4.63
1.10
5.83
9.57
12.54
14.88
16.51
17.17
16.67
15.17
13.19
11.45
10.56
10.75
11.89
13.59
15.42
16.98
18.02
18.34
17.83
16.49
14.44
11.94
9.32
6.90
4.78
2.95
1.26
-0.38
-1.99
-3.47
-4.74
-5.85
-7.02
-8.55
-10.61
-13.11
-15.65
-17.80
-19.30
-20.29
-21.18
-22.37
-23.86
-25.16
-25.46
-24.05
-20.73
-15.98
-10.68
-5.72
-1.60
1.65
4.33
6.74
9.01
10.99
12.41
13.06
12.91
12.14
11.11
10.21
9.78
9.98
10.75
11.86
13.00
13.89
14.39
14.41
13.91
12.84
11.18
8.98
6.47
3.94
1.68
-0.16
-1.52
-2.49
-3.10
-3.44
-3.63
-3.85
-4.35
-5.36
-6.94
-8.97
-11.25
-13.60
-15.93
-18.20
-20.28
-21.83
-22.31
-21.17
-18.12
-13.34
-7.47
-1.53
3.45
6.70
7.94
7.46
5.98
4.35
3.14
2.55
2.38
2.34
2.31
2.48
3.25
4.89
7.33
10.03
12.21
13.22
12.82
11.28
9.13
6.84
4.60
2.30
-0.27
-3.08
-5.82
-7.92
-8.86
-8.55
-7.45
-6.38
-6.26
-7.64
-10.55
-14.56
-19.02
-23.24
-26.70
-28.93
-29.59
-28.45
-25.45
-20.88
-15.29
-9.41
-3.92
0.76
4.50
7.44
9.77
11.60
12.79
13.04
12.02
9.73
6.67
3.86
2.52
3.43
6.51
10.63
14.06
15.14
13.15
8.65
3.14
-1.64
-4.82
-6.81
-9.21
-13.97
-22.35
-34.30
-48.54
-63.21
-76.59
-87.53
-95.28
-99.16
-98.38
-92.39
-81.56
-67.54
-52.59
-38.19
-23.83
-7.02
15.13
43.48
75.24
104.35
124.08
130.32
123.69
109.12
93.32
81.44
74.98
71.97
68.90
63.16
54.36
44.07
34.51
27.05
21.60
16.87
11.28
3.94
-4.80
-13.57
-20.45
-23.68
-22.17
-15.79
-5.35
7.57
21.06
33.29
42.82
48.74
50.44
47.31
38.79
24.60
5.31
-17.14
-39.54
-58.22
-70.34
-75.03
-73.66
-69.25
-65.05
-63.20
-63.96
-65.93
-66.99
-65.37
-60.43
-52.75
-43.56
-34.09
-25.03
-16.40
-7.85
0.83
9.45
17.30
23.52
27.36
28.47
26.93
23.04
17.11
9.46
0.52
-9.04
-18.17
-25.57
-30.00
-30.68
-27.60
-21.73
-14.76
-8.65
-4.91
-4.10
-5.63
-8.08
-9.89
-9.97
-8.07
-4.67
-0.47
4.01
8.61
13.27
17.77
21.52
23.76
24.05
22.56
20.11
17.75
16.35
16.29
17.50
19.73
22.70
26.11
29.52
32.36
34.01
34.25
33.43
32.45
32.21
33.04
34.24
34.34
31.73
25.51
15.94
4.34
-7.49
-18.02
-26.40
-32.56
-36.90
-39.90
-41.83
-42.63
-41.94
-39.22
-33.95
-25.76
-14.74
-1.55
12.55
25.95
37.04
44.62
48.09
47.56
43.73
37.77
31.05
24.81
19.83
16.21
13.30
10.12
5.89
0.47
-5.45
-10.67
-14.15
-15.53
-15.33
-14.63
-14.41
-15.08
-16.36
-17.72
-18.85
-19.95
-21.64
-24.37
-27.91
-31.22
-32.76
-31.25
-26.24
-18.36
-8.98
0.34
8.50
15.04
20.16
24.32
27.90
30.87
32.71
32.66
30.05
24.85
17.89
10.78
5.32
2.77
3.35
6.16
9.80
13.08
15.44
16.88
17.46
16.81
14.12
8.64
0.33
-9.78
-19.80
-27.88
-32.96
-35.17
-35.61
-35.45
-35.24
-34.56
-32.40
-27.77
-20.39
-10.93
-0.83
8.24
14.98
18.85
20.15
19.73
18.62
17.53
16.78
16.37
16.26
16.61
17.75
19.93
22.90
25.78
27.21
25.85
21.06
13.29
3.95
-5.25
-13.11
-19.57
-25.64
-32.62
-41.14
-50.39
-58.29
-62.38
-61.14
-54.81
-45.43
-35.81
-28.21
-23.32
-20.14
-16.77
-11.47
-3.54
6.55
17.65
28.62
38.65
47.39
54.51
59.40
61.10
58.71
51.90
41.39
29.03
17.14
7.84
2.29
0.44
1.53
4.66
9.33
15.46
22.91
30.92
37.92
41.76
40.58
33.58
21.52
6.53
-8.56
-21.13
-29.53
-33.34
-33.26
-30.62
-26.90
-23.27
-20.34
-18.14
-16.22
-13.88
-10.46
-5.55
0.76
7.88
14.86
20.68
24.62
26.47
26.53
25.30
23.18
20.36
16.90
13.00
9.13
5.86
3.57
2.21
1.33
0.32
-1.13
-2.90
-4.60
-5.92
-6.92
-8.05
-9.79
-12.31
-15.32
-18.25
-20.64
-22.29
-23.23
-23.40
-22.47
-19.92
-15.41
-9.21
-2.25
4.23
9.21
12.29
13.77
14.27
14.30
14.03
13.38
12.36
11.30
10.81
11.44
13.29
15.85
18.14
19.15
18.33
15.79
12.25
8.69
5.97
4.39
3.68
3.06
1.71
-0.87
-4.62
-8.99
-13.25
-16.89
-19.84
-22.42
-25.01
-27.65
-29.89
-30.89
-29.82
-26.30
-20.73
-14.07
-7.55
-2.10
1.92
4.73
6.81
8.63
10.38
11.94
13.09
13.69
13.80
13.65
13.53
13.67
14.15
14.95
15.86
16.57
16.68
15.89
14.13
11.71
9.20
7.15
5.78
4.85
3.82
2.12
-0.39
-3.38
-6.21
-8.32
-9.57
-10.30
-11.07
-12.32
-14.08
-16.05
-17.75
-18.91
-19.55
-19.88
-20.02
-19.80
-18.68
-16.06
-11.57
-5.43
1.55
8.19
13.37
16.43
17.36
16.65
15.05
13.16
11.39
9.90
8.85
8.42
8.76
9.89
11.56
13.37
14.87
15.82
16.21
16.17
15.87
15.36
14.55
13.32
11.61
9.51
7.14
4.63
2.04
-0.68
-3.61
-6.84
-10.38
-14.13
-17.82
-21.06
-23.44
-24.64
-24.52
-23.18
-20.75
-17.39
-13.19
-8.21
-2.75
2.64
7.09
9.71
10.00
8.09
4.77
1.10
-2.01
-4.24
-5.79
-7.06
-8.27
-9.17
-9.22
-7.94
-5.24
-1.56
2.39
5.90
8.61
10.43
11.45
11.69
11.11
9.67
7.49
4.85
2.07
-0.64
-3.28
-6.02
-9.05
-12.48
-16.25
-20.21
-24.15
-27.78
-30.71
-32.47
-32.55
-30.58
-26.54
-20.80
-14.02
-7.04
-0.62
4.69
8.60
11.10
12.33
12.57
12.14
11.40
10.69
10.25
10.19
10.44
10.80
11.05
11.05
10.84
10.59
10.44
10.39
10.17
9.33
7.51
4.61
0.94
-2.92
-6.40
-9.24
-11.48
-13.41
-15.22
-16.90
-18.27
-19.22
-19.85
-20.54
-21.71
-23.41
-25.12
-25.85
-24.63
-20.93
-15.10
-8.17
-1.43
4.10
8.09
10.76
12.66
14.24
15.59
16.50
16.71
16.14
15.05
13.90
13.12
12.93
13.26
13.80
14.19
14.14
13.48
12.11
10.03
7.37
4.46
1.74
-0.44
-1.99
-3.22
-4.61
-6.57
-9.11
-11.82
-14.12
-15.62
-16.35
-16.73
-17.29
-18.27
-19.33
-19.64
-18.21
-14.38
-8.23
-0.67
6.83
12.75
16.09
16.77
15.45
13.22
11.06
9.46
8.41
7.65
7.01
6.59
6.67
7.43
8.72
10.06
10.77
10.34
8.60
5.81
2.48
-0.87
-3.92
-6.58
-8.90
-10.91
-12.55
-13.73
-14.56
-15.40
-16.86
-19.50
-23.48
-28.29
-32.82
-35.66
-35.76
-32.79
-27.32
-20.51
-13.65
-7.59
-2.57
1.65
5.46
9.04
12.21
14.62
15.95
16.21
15.69
14.84
14.00
13.31
12.69
11.96
10.96
9.62
8.00
6.24
4.42
2.54
0.49
-1.91
-4.83
-8.26
-11.91
-15.33
-18.06
-19.92
-21.07
-22.02
-23.22
-24.82
-26.35
-26.93
-25.57
-21.69
-15.42
-7.60
0.49
7.66
13.19
16.99
19.44
21.01
22.00
22.36
21.91
20.60
18.67
16.63
15.01
14.09
13.78
13.71
13.52
13.01
12.21
11.29
10.36
9.39
8.31
7.06
5.66
4.15
2.51
0.65
-1.59
-4.31
-7.48
-10.94
-14.43
-17.59
-19.97
-20.97
-19.98
-16.53
-10.58
-2.71
5.94
13.89
19.82
22.96
23.30
21.53
18.68
15.72
13.17
11.07
9.20
7.42
5.91
5.09
5.27
6.37
7.79
8.65
8.26
6.51
3.89
1.13
-1.19
-3.05
-4.88
-7.18
-10.21
-13.78
-17.42
-20.70
-23.46
-25.77
-27.72
-29.23
-29.85
-28.90
-25.79
-20.35
-12.99
-4.66
3.36
9.94
14.44
16.84
17.71
17.84
17.82
17.88
17.87
17.53
16.82
15.98
15.42
15.42
15.89
16.39
16.40
15.62
14.16
12.42
10.84
9.54
8.24
6.40
3.60
-0.20
-4.53
-8.71
-12.18
-14.84
-17.08
-19.49
-22.39
-25.57
-28.19
-29.17
-27.59
-23.14
-16.20
-7.73
1.04
8.93
15.13
19.24
21.34
21.83
21.25
20.01
18.32
16.26
13.93
11.68
10.13
9.86
11.09
13.38
15.79
17.25
17.15
15.64
13.43
11.38
9.92
8.90
7.69
5.68
2.72
-0.84
-4.30
-7.08
-8.98
-10.31
-11.62
-13.39
-15.70
-18.20
-20.23
-21.05
-20.15
-17.37
-12.87
-7.09
-0.56
6.16
12.54
18.03
22.15
24.48
24.83
23.29
20.30
16.57
12.97
10.31
9.14
9.56
11.19
13.23
14.77
15.13
14.05
11.80
8.97
6.23
3.95
2.17
0.65
-0.99
-3.02
-5.53
-8.45
-11.63
-14.85
-17.95
-20.80
-23.30
-25.38
-26.90
-27.68
-27.40
-25.71
-22.34
-17.29
-10.95
-4.05
2.53
8.03
11.98
14.25
14.98
14.37
12.71
10.33
7.70
5.40
4.01
3.88
5.01
7.02
9.25
11.04
12.00
12.04
11.39
10.37
9.21
7.92
6.34
4.29
1.76
-1.01
-3.67
-5.94
-7.84
-9.74
-12.09
-15.14
-18.73
-22.25
-24.92
-26.14
-25.65
-23.58
-20.25
-16.02
-11.18
-6.03
-0.95
3.65
7.41
10.13
11.83
12.63
12.66
12.00
10.73
9.04
7.31
5.99
5.51
6.06
7.50
9.44
11.33
12.72
13.31
13.08
12.17
10.77
9.00
6.89
4.43
1.69
-1.17
-3.90
-6.32
-8.41
-10.36
-12.37
-14.58
-16.93
-19.26
-21.38
-23.19
-24.64
-25.61
-25.74
-24.50
-21.39
-16.22
-9.37
-1.73
5.59
11.63
15.93
18.53
19.77
20.01
19.41
17.95
15.75
13.18
10.95
9.76
9.94
11.25
12.95
14.20
14.42
13.56
12.02
10.36
8.99
8.02
7.24
6.40
5.21
3.51
1.27
-1.48
-4.69
-8.22
-11.89
-15.36
-18.22
-20.06
-20.70
-20.31
-19.33
-18.26
-17.28
-16.06
-13.99
-10.54
-5.80
-0.58
3.80
6.23
6.36
4.81
2.79
1.42
1.19
1.84
2.77
3.44
3.79
4.13
4.86
6.09
7.61
8.99
9.78
9.78
8.99
7.50
5.48
3.10
0.60
-1.75
-3.77
-5.52
-7.25
-9.32
-11.92
-14.92
-17.92
-20.56
-22.68
-24.36
-25.73
-26.59
-26.40
-24.49
-20.44
-14.47
-7.44
-0.53
5.30
9.57
12.37
14.10
15.09
15.45
15.10
13.99
12.31
10.55
9.33
9.11
9.98
11.56
13.20
14.26
14.38
13.67
12.47
11.15
9.79
8.16
5.89
2.83
-0.77
-4.30
-7.13
-8.99
-10.15
-11.22
-12.75
-14.92
-17.46
-19.96
-22.16
-24.18
-26.23
-28.29
-29.75
-29.58
-26.78
-21.01
-12.91
-3.94
4.27
10.46
14.23
15.91
16.20
15.82
15.16
14.40
13.65
13.08
12.93
13.32
14.07
14.69
14.63
13.58
11.72
9.63
8.03
7.32
7.39
7.70
7.64
6.91
5.62
4.13
2.72
1.35
-0.21
-2.25
-4.85
-7.85
-10.97
-14.00
-16.86
-19.48
-21.66
-22.95
-22.81
-20.79
-16.78
-11.18
-4.74
1.63
7.13
11.29
14.02
15.48
16.03
15.92
15.32
14.32
13.02
11.65
10.51
9.88
9.83
10.24
10.83
11.30
11.45
11.16
10.35
8.95
6.93
4.39
1.60
-1.13
-3.59
-5.80
-8.00
-10.43
-13.14
-16.00
-18.79
-21.42
-23.96
-26.53
-29.01
-30.88
-31.34
-29.63
-25.51
-19.41
-12.29
-5.22
1.09
6.39
10.80
14.44
17.27
19.04
19.56
18.87
17.33
15.50
13.90
12.89
12.63
13.13
14.31
15.98
17.82
19.33
20.02
19.44
17.47
14.33
10.51
6.66
3.35
0.92
-0.70
-1.87
-3.23
-5.33
-8.40
-12.29
-16.53
-20.65
-24.36
-27.59
-30.29
-32.16
-32.53
-30.66
-26.13
-19.27
-11.15
-3.16
3.63
8.84
12.83
16.17
19.15
21.49
22.58
21.91
19.59
16.35
13.31
11.36
10.84
11.45
12.54
13.54
14.14
14.33
14.22
13.81
13.02
11.73
9.96
7.88
5.76
3.76
1.86
-0.10
-2.33
-4.85
-7.50
-9.96
-11.99
-13.53
-14.79
-16.15
-17.86
-19.87
-21.68
-22.49
-21.46
-18.17
-12.80
-6.11
0.85
7.12
12.15
15.81
18.27
19.72
20.23
19.78
18.44
16.48
14.41
12.79
12.01
12.09
12.67
13.24
13.34
12.78
11.72
10.55
9.61
9.05
8.70
8.17
7.10
5.35
3.10
0.68
-1.57
-3.55
-5.37
-7.28
-9.53
-12.22
-15.33
-18.69
-22.00
-24.81
-26.54
-26.60
-24.61
-20.58
-15.06
-8.95
-3.16
1.71
5.48
8.32
10.45
11.96
12.75
12.71
11.90
10.56
9.12
7.89
6.99
6.41
6.10
6.08
6.47
7.27
8.34
9.32
9.84
9.64
8.63
6.87
4.46
1.57
-1.50
-4.34
-6.56
-7.93
-8.70
-9.45
-10.90
-13.47
-17.08
-21.15
-24.83
-27.38
-28.34
-27.54
-24.99
-20.84
-15.39
-9.12
-2.69
3.17
7.91
11.26
13.25
14.15
14.26
13.83
12.99
11.87
10.66
9.65
9.18
9.48
10.53
12.00
13.35
14.07
13.88
12.87
11.44
10.04
8.89
7.90
6.70
4.95
2.51
-0.43
-3.52
-6.42
-9.04
-11.45
-13.82
-16.22
-18.54
-20.56
-22.11
-23.17
-23.90
-24.36
-24.41
-23.61
-21.42
-17.51
-12.08
-5.77
0.45
5.72
9.57
11.99
13.30
13.91
14.05
13.73
12.87
11.48
9.88
8.61
8.29
9.27
11.44
14.15
16.43
17.37
16.51
14.05
10.74
7.51
5.09
3.69
2.96
2.26
0.99
-1.10
-3.81
-6.66
-9.17
-11.13
-12.66
-14.18
-16.01
-18.25
-20.56
-22.34
-22.86
-21.60
-18.38
-13.48
-7.53
-1.36
4.13
8.25
10.63
11.35
10.85
9.72
8.46
7.26
6.05
4.67
3.15
1.79
1.04
1.31
2.62
4.61
6.59
7.90
8.13
7.26
5.55
3.34
0.95
-1.47
-3.88
-6.30
-8.75
-11.26
-13.86
-16.54
-19.27
-22.02
-24.72
-27.20
-29.18
-30.26
-29.96
-27.90
-23.94
-18.29
-11.52
-4.46
2.02
7.27
10.96
13.16
14.18
14.37
13.95
13.02
11.66
10.08
8.63
7.79
7.93
9.10
10.96
12.88
14.23
14.59
13.91
12.41
10.47
8.40
6.31
4.16
1.79
-0.93
-4.01
-7.29
-10.54
-13.61
-16.51
-19.41
-22.50
-25.76
-28.81
-30.95
-31.40
-29.61
-25.53
-19.63
-12.72
-5.66
0.89
6.50
11.02
14.39
16.59
17.61
17.47
16.34
14.52
12.51
10.89
10.17
10.58
12.00
13.97
15.87
17.19
17.62
17.14
15.91
14.15
12.04
9.75
7.42
5.21
3.24
1.49
-0.25
-2.23
-4.69
-7.68
-11.09
-14.68
-18.26
-21.67
-24.83
-27.58
-29.68
-30.82
-30.68
-29.07
-25.89
-21.14
-15.00
-7.76
0.03
7.63
14.16
18.86
21.40
21.89
20.86
18.94
16.69
14.48
12.59
11.33
11.03
11.86
13.68
15.94
17.87
18.81
18.50
17.21
15.52
13.95
12.69
11.50
9.95
7.65
4.56
0.93
-2.80
-6.28
-9.32
-11.91
-14.17
-16.22
-18.22
-20.28
-22.48
-24.74
-26.75
-27.90
-27.47
-24.88
-20.01
-13.32
-5.76
1.52
7.60
12.00
14.70
15.98
16.18
15.56
14.35
12.84
11.44
10.56
10.48
11.17
12.32
13.47
14.20
14.35
13.94
13.15
12.13
10.95
9.64
8.12
6.33
4.24
1.87
-0.69
-3.27
-5.73
-8.01
-10.19
-12.47
-15.04
-17.97
-21.20
-24.50
-27.53
-29.89
-31.12
-30.72
-28.28
-23.63
-16.99
-9.05
-0.82
6.68
12.66
16.76
19.04
19.80
19.43
18.27
16.68
15.02
13.71
13.16
13.61
15.01
17.00
19.03
20.60
21.41
21.41
20.75
19.60
18.11
16.38
14.45
12.37
10.15
7.68
4.87
1.66
-1.84
-5.30
-8.35
-10.78
-12.62
-14.14
-15.73
-17.67
-20.05
-22.77
-25.65
-28.48
-30.95
-32.60
-32.87
-31.15
-27.14
-20.98
-13.36
-5.28
2.22
8.37
12.81
15.57
16.92
17.16
16.61
15.56
14.38
13.51
13.35
14.07
15.54
17.37
19.07
20.29
20.96
21.16
20.96
20.31
19.03
17.03
14.45
11.69
9.17
7.13
5.44
3.75
1.69
-0.84
-3.63
-6.23
-8.31
-9.77
-10.86
-12.01
-13.58
-15.68
-18.10
-20.51
-22.58
-24.20
-25.52
-26.68
-27.67
-28.05
-27.07
-23.99
-18.53
-11.18
-3.13
4.14
9.46
12.37
13.29
13.13
12.79
12.77
13.03
13.22
13.04
12.52
12.03
12.09
13.02
14.80
17.03
19.11
20.52
20.90
20.14
18.35
15.76
12.69
9.50
6.54
4.08
2.27
1.09
0.36
-0.28
-1.23
-2.82
-5.16
-8.03
-11.00
-13.60
-15.63
-17.22
-18.81
-20.80
-23.31
-26.09
-28.71
-30.85
-32.46
-33.64
-34.29
-33.93
-31.73
-27.09
-20.07
-11.68
-3.46
3.17
7.62
10.25
11.97
13.56
15.11
16.10
15.82
14.04
11.29
8.71
7.41
7.95
10.12
13.06
15.83
17.75
18.66
18.78
18.51
18.13
17.67
16.97
15.78
13.93
11.38
8.30
4.99
1.79
-0.97
-3.12
-4.67
-5.83
-6.98
-8.51
-10.71
-13.62
-17.06
-20.65
-24.08
-27.19
-30.03
-32.68
-35.01
-36.59
-36.70
-34.64
-30.07
-23.25
-15.06
-6.64
0.99
7.20
11.81
14.97
16.88
17.69
17.51
16.50
14.96
13.33
12.10
11.65
12.18
13.58
15.57
17.68
19.38
20.22
19.87
18.29
15.73
12.70
9.79
7.45
5.85
4.81
3.94
2.79
1.05
-1.32
-4.14
-7.08
-9.82
-12.17
-14.07
-15.62
-17.02
-18.57
-20.60
-23.33
-26.68
-30.12
-32.71
-33.33
-31.14
-25.95
-18.43
-9.87
-1.78
4.73
9.26
12.09
13.84
15.06
15.94
16.28
15.84
14.61
12.98
11.65
11.28
12.14
14.03
16.31
18.18
19.02
18.56
16.95
14.59
11.97
9.47
7.20
5.08
2.87
0.36
-2.48
-5.48
-8.36
-10.87
-12.98
-14.93
-17.14
-19.99
-23.65
-27.89
-32.20
-35.88
-38.24
-38.79
-37.22
-33.43
-27.53
-19.86
-11.06
-2.01
6.32
13.06
17.74
20.31
21.10
20.57
19.11
17.04
14.74
12.71
11.60
11.89
13.58
16.10
18.52
19.96
20.04
19.00
17.41
15.82
14.34
12.68
10.42
7.42
3.92
0.44
-2.57
-5.03
-7.31
-9.94
-13.32
-17.46
-22.00
-26.45
-30.40
-33.64
-36.10
-37.62
-37.78
-35.99
-31.65
-24.63
-15.44
-5.26
4.47
12.49
18.18
21.61
23.34
24.03
24.05
23.47
22.25
20.51
18.71
17.59
17.77
19.41
22.06
24.76
26.43
26.38
24.54
21.53
18.26
15.49
13.41
11.56
9.19
5.75
1.30
-3.51
-7.78
-10.88
-12.79
-14.00
-15.21
-16.97
-19.43
-22.48
-25.87
-29.35
-32.60
-35.09
-36.00
-34.47
-29.95
-22.54
-13.11
-3.04
6.20
13.59
18.70
21.76
23.27
23.74
23.48
22.65
21.35
19.80
18.39
17.53
17.52
18.35
19.68
21.05
21.96
22.11
21.37
19.81
17.58
14.89
11.93
8.84
5.75
2.69
-0.37
-3.49
-6.68
-9.79
-12.61
-14.92
-16.69
-18.17
-19.76
-21.83
-24.44
-27.18
-29.26
-29.78
-28.09
-24.01
-17.85
-10.34
-2.32
5.41
12.21
17.59
21.23
23.03
23.11
21.84
19.77
17.48
15.49
14.18
13.72
14.14
15.27
16.84
18.50
19.88
20.67
20.67
19.82
18.20
15.99
13.37
10.53
7.61
4.76
2.07
-0.40
-2.63
-4.63
-6.45
-8.15
-9.89
-11.88
-14.36
-17.40
-20.88
-24.44
-27.69
-30.40
-32.61
-34.52
-36.22
-37.43
-37.38
-35.07
-29.82
-21.67
-11.49
-0.78
9.00
16.81
22.28
25.57
27.07
27.19
26.27
24.74
23.13
22.05
21.99
23.09
25.05
27.26
29.09
30.15
30.42
30.11
29.46
28.50
27.07
25.00
22.28
19.21
16.25
13.78
11.94
10.56
9.32
7.98
6.56
5.30
4.43
4.00
3.82
3.51
2.78
1.53
-0.03
-1.57
-2.80
-3.70
-4.51
-5.56
-7.04
-8.89
-10.78
-12.35
-13.45
-14.28
-15.30
-16.91
-19.16
-21.70
-23.92
-25.36
-25.93
-26.00
-26.18
-27.04
-28.84
-31.52
-34.71
-37.93
-40.63
-42.24
-42.23
-40.18
-35.90
-29.56
-21.72
-13.18
-4.83
2.61
8.71
13.38
16.82
19.28
20.97
21.93
22.12
21.62
20.78
20.17
20.38
21.75
24.12
26.90
29.32
30.77
31.00
30.17
28.66
26.81
24.81
22.66
20.29
17.71
15.02
12.41
10.01
7.91
6.04
4.32
2.61
0.80
-1.19
-3.41
-5.83
-8.31
-10.64
-12.58
-14.07
-15.25
-16.52
-18.30
-20.82
-23.82
-26.72
-28.83
-29.84
-30.07
-30.27
-31.25
-33.26
-35.72
-37.44
-37.15
-34.10
-28.41
-20.98
-12.98
-5.43
1.09
6.41
10.58
13.71
15.94
17.43
18.40
19.09
19.64
20.13
20.63
21.22
22.03
23.04
24.09
24.84
24.99
24.40
23.25
21.89
20.61
19.44
18.16
16.45
14.15
11.42
8.62
6.18
4.36
3.16
2.31
1.41
0.11
-1.79
-4.20
-6.79
-9.14
-10.96
-12.23
-13.21
-14.31
-15.84
-17.86
-20.24
-22.76
-25.27
-27.82
-30.52
-33.44
-36.55
-39.64
-42.44
-44.61
-45.68
-45.10
-42.33
-37.08
-29.60
-20.69
-11.52
-3.25
3.42
8.39
12.02
14.76
16.89
18.37
19.01
18.77
17.86
16.80
16.12
16.19
17.03
18.33
19.66
20.65
21.15
21.20
20.97
20.55
19.85
18.61
16.51
13.42
9.48
5.21
1.26
-1.80
-3.75
-4.78
-5.34
-5.93
-6.88
-8.29
-10.10
-12.24
-14.64
-17.20
-19.72
-21.90
-23.52
-24.61
-25.59
-27.03
-29.34
-32.32
-35.11
-36.43
-35.19
-30.97
-24.24
-16.18
-8.13
-1.04
4.72
9.30
13.00
15.97
18.10
19.18
19.14
18.24
17.01
16.06
15.80
16.21
17.01
17.74
18.13
18.15
17.98
17.84
17.69
17.22
15.96
13.56
10.05
5.88
1.77
-1.61
-3.97
-5.48
-6.65
-8.08
-10.14
-12.91
-16.18
-19.61
-22.95
-26.08
-29.06
-32.02
-35.09
-38.25
-41.21
-43.41
-44.06
-42.41
-38.00
-30.93
-21.89
-11.98
-2.33
6.17
13.11
18.42
22.25
24.71
25.84
25.71
24.52
22.71
20.88
19.61
19.25
19.87
21.23
22.93
24.51
25.55
25.70
24.80
22.88
20.15
16.93
13.48
9.95
6.35
2.67
-1.02
-4.55
-7.69
-10.29
-12.45
-14.43
-16.61
-19.30
-22.60
-26.35
-30.08
-33.08
-34.62
-34.07
-31.17
-26.06
-19.26
-11.50
-3.53
4.06
10.80
16.33
20.39
22.83
23.68
23.17
21.68
19.69
17.69
16.11
15.28
15.38
16.40
18.08
19.98
21.56
22.40
22.26
21.15
19.27
16.88
14.29
11.71
9.22
6.73
4.11
1.28
-1.67
-4.48
-6.87
-8.87
-10.85
-13.41
-16.93
-21.16
-25.04
-27.05
-25.94
-21.36
-14.10
-5.68
2.29
8.83
13.71
17.29
19.96
21.84
22.78
22.58
21.30
19.39
17.51
16.25
15.93
16.41
17.22
17.78
17.62
16.52
14.60
12.20
9.68
7.32
5.18
3.13
1.01
-1.30
-3.84
-6.59
-9.46
-12.38
-15.26
-18.06
-20.76
-23.36
-25.81
-28.01
-29.63
-30.16
-29.04
-25.82
-20.45
-13.36
-5.36
2.55
9.48
14.87
18.60
20.88
22.07
22.45
22.13
21.12
19.49
17.57
15.92
15.17
15.67
17.33
19.54
21.41
22.25
21.75
20.14
17.95
15.67
13.52
11.40
9.11
6.53
3.68
0.73
-2.23
-5.17
-8.10
-11.05
-13.99
-16.95
-19.95
-23.06
-26.19
-29.02
-30.95
-31.33
-29.69
-25.98
-20.57
-14.14
-7.45
-1.15
4.30
8.57
11.59
13.46
14.45
14.91
15.06
15.02
14.84
14.60
14.54
14.93
15.96
17.55
19.34
20.80
21.50
21.22
20.05
18.30
16.30
14.25
12.16
9.94
7.48
4.78
2.03
-0.45
-2.39
-3.66
-4.40
-4.95
-5.62
-6.59
-7.82
-9.20
-10.67
-12.27
-14.07
-16.07
-18.08
-19.86
-21.23
-22.24
-23.04
-23.72
-24.07
-23.56
-21.56
-17.77
-12.43
-6.35
-0.54
4.20
7.60
9.89
11.51
12.76
13.62
13.84
13.28
12.11
10.88
10.28
10.76
12.24
14.19
15.86
16.70
16.57
15.70
14.43
12.97
11.28
9.16
6.53
3.59
0.78
-1.38
-2.64
-3.14
-3.40
-4.01
-5.32
-7.27
-9.46
-11.41
-12.82
-13.85
-14.90
-16.42
-18.57
-21.07
-23.39
-25.06
-25.91
-26.05
-25.69
-24.83
-23.19
-20.32
-16.00
-10.47
-4.45
1.12
5.51
8.49
10.34
11.55
12.51
13.29
13.69
13.53
12.87
12.09
11.75
12.23
13.60
15.48
17.31
18.60
19.16
19.07
18.56
17.75
16.55
14.75
12.24
9.20
6.06
3.30
1.28
-0.02
-0.87
-1.64
-2.59
-3.70
-4.79
-5.66
-6.25
-6.71
-7.28
-8.16
-9.45
-11.07
-12.87
-14.71
-16.49
-18.14
-19.57
-20.74
-21.72
-22.67
-23.83
-25.30
-26.90
-28.08
-28.10
-26.33
-22.61
-17.37
-11.51
-5.95
-1.31
2.30
5.15
7.60
9.76
11.50
12.62
13.05
12.97
12.78
12.83
13.31
14.15
15.17
16.24
17.29
18.27
19.07
19.44
19.06
17.77
15.65
13.00
10.20
7.53
5.07
2.80
0.69
-1.20
-2.72
-3.79
-4.48
-5.05
-5.89
-7.35
-9.60
-12.54
-15.83
-19.06
-21.90
-24.30
-26.42
-28.46
-30.44
-32.01
-32.55
-31.42
-28.27
-23.26
-17.05
-10.48
-4.29
1.07
5.43
8.72
10.89
11.93
11.94
11.30
10.53
10.09
10.21
10.82
11.67
12.53
13.34
14.22
15.28
16.45
17.43
17.79
17.22
15.70
13.48
10.99
8.60
6.49
4.59
2.69
0.60
-1.75
-4.26
-6.79
-9.22
-11.56
-13.88
-16.34
-18.98
-21.81
-24.74
-27.55
-29.96
-31.58
-31.97
-30.77
-27.87
-23.47
-18.10
-12.44
-7.07
-2.27
1.97
5.82
9.35
12.46
14.85
16.21
16.43
15.70
14.49
13.41
13.03
13.64
15.17
17.18
18.99
19.93
19.60
17.97
15.35
12.24
9.18
6.62
4.92
4.33
4.75
5.69
6.24
5.47
2.88
-1.34
-6.31
-11.02
-14.88
-18.03
-21.12
-24.67
-28.61
-32.06
-33.79
-32.83
-28.99
-23.00
-16.12
-9.66
-4.47
-0.66
2.22
4.93
8.00
11.43
14.63
16.70
17.01
15.61
13.30
11.30
10.55
11.27
12.91
14.50
15.27
14.99
13.96
12.66
11.44
10.29
8.95
7.17
4.87
2.14
-0.84
-3.90
-6.93
-9.80
-12.42
-14.81
-17.09
-19.52
-22.26
-25.20
-27.84
-29.39
-29.03
-26.28
-21.19
-14.41
-6.96
0.08
5.94
10.30
13.24
15.05
15.95
16.01
15.20
13.59
11.50
9.52
8.21
7.85
8.29
9.06
9.69
9.87
9.58
8.91
7.92
6.59
4.88
2.83
0.56
-1.85
-4.41
-7.23
-10.44
-14.01
-17.76
-21.40
-24.68
-27.43
-29.46
-30.47
-30.01
-27.64
-23.16
-16.81
-9.25
-1.42
5.72
11.44
15.38
17.58
18.37
18.18
17.39
16.24
14.85
13.34
11.87
10.74
10.28
10.69
11.86
13.40
14.71
15.25
14.69
13.06
10.62
7.71
4.58
1.33
-2.02
-5.45
-8.78
-11.77
-14.25
-16.33
-18.33
-20.61
-23.27
-25.87
-27.48
-27.03
-23.75
-17.60
-9.34
-0.28
8.23
15.12
19.87
22.46
23.26
22.77
21.52
19.99
18.56
17.45
16.73
16.37
16.27
16.34
16.50
16.65
16.67
16.37
15.58
14.21
12.26
9.83
7.11
4.31
1.61
-0.88
-3.15
-5.25
-7.35
-9.63
-12.27
-15.32
-18.68
-21.96
-24.58
-25.76
-24.77
-21.13
-14.84
-6.55
2.58
11.14
17.87
22.05
23.65
23.22
21.61
19.59
17.68
16.10
14.86
13.95
13.40
13.22
13.34
13.55
13.57
13.14
12.10
10.49
8.48
6.28
4.04
1.80
-0.50
-3.01
-5.88
-9.14
-12.72
-16.43
-20.05
-23.41
-26.44
-29.04
-31.01
-31.86
-30.93
-27.63
-21.81
-13.96
-5.16
3.30
10.39
15.68
19.28
21.60
23.03
23.67
23.46
22.35
20.57
18.62
17.13
16.53
16.94
18.04
19.28
20.14
20.24
19.47
17.95
15.88
13.50
10.99
8.43
5.81
3.10
0.24
-2.79
-5.93
-9.10
-12.18
-15.13
-17.98
-20.81
-23.64
-26.30
-28.40
-29.32
-28.48
-25.51
-20.48
-13.89
-6.55
0.65
6.96
11.92
15.38
17.37
18.02
17.52
16.15
14.25
12.23
10.55
9.57
9.52
10.41
12.10
14.24
16.40
18.09
18.91
18.56
16.97
14.24
10.67
6.66
2.58
-1.22
-4.54
-7.29
-9.52
-11.32
-12.80
-14.03
-15.03
-15.93
-16.89
-18.13
-19.74
-21.57
-23.10
-23.60
-22.38
-19.13
-14.08
-7.99
-1.80
3.71
8.14
11.48
13.97
15.80
17.00
17.42
16.92
15.64
14.00
12.70
12.34
13.14
14.78
16.48
17.37
16.89
15.08
12.40
9.51
6.85
4.54
2.44
0.42
-1.48
-3.11
-4.40
-5.51
-6.82
-8.66
-11.08
-13.80
-16.41
-18.66
-20.59
-22.45
-24.36
-26.03
-26.77
-25.77
-22.57
-17.28
-10.64
-3.68
2.63
7.66
11.21
13.35
14.24
13.99
12.70
10.57
8.07
5.85
4.63
4.83
6.39
8.73
11.02
12.53
12.94
12.43
11.45
10.38
9.31
7.99
6.13
3.64
0.75
-2.15
-4.76
-7.07
-9.38
-12.08
-15.32
-18.95
-22.50
-25.46
-27.47
-28.38
-28.21
-26.97
-24.62
-21.11
-16.55
-11.30
-5.86
-0.73
3.74
7.39
10.24
12.23
13.30
13.33
12.38
10.74
8.89
7.45
6.86
7.31
8.61
10.30
11.83
12.70
12.74
12.00
10.79
9.38
7.90
6.27
4.32
1.97
-0.66
-3.26
-5.57
-7.48
-9.13
-10.76
-12.58
-14.61
-16.76
-18.87
-20.85
-22.73
-24.49
-25.95
-26.71
-26.18
-23.83
-19.46
-13.41
-6.47
0.35
6.23
10.76
13.97
16.15
17.55
18.16
17.81
16.40
14.22
11.97
10.48
10.37
11.61
13.58
15.35
16.15
15.71
14.27
12.32
10.30
8.35
6.36
4.17
1.74
-0.80
-3.32
-5.74
-8.19
-10.84
-13.76
-16.86
-19.88
-22.59
-24.88
-26.76
-28.21
-29.04
-28.82
-27.06
-23.45
-18.05
-11.43
-4.48
1.82
6.75
10.01
11.74
12.36
12.26
11.66
10.56
8.94
6.97
5.11
3.98
4.03
5.30
7.28
9.17
10.24
10.18
9.21
7.92
6.86
6.28
5.98
5.44
4.12
1.71
-1.78
-6.01
-10.59
-15.16
-19.56
-23.77
-27.81
-31.61
-34.92
-37.33
-38.38
-37.71
-35.11
-30.63
-24.56
-17.42
-9.88
-2.62
3.76
8.90
12.68
15.23
16.81
17.70
18.17
18.41
18.62
18.94
19.45
20.08
20.57
20.61
19.91
18.40
16.21
13.63
10.97
8.46
6.17
4.09
2.19
0.41
-1.25
-2.84
-4.38
-5.89
-7.41
-8.93
-10.46
-12.04
-13.74
-15.67
-17.86
-20.23
-22.48
-24.06
-24.30
-22.57
-18.55
-12.36
-4.65
3.68
11.63
18.39
23.44
26.58
27.81
27.29
25.30
22.27
18.76
15.40
12.75
11.11
10.51
10.67
11.14
11.44
11.20
10.24
8.67
6.76
4.84
3.15
1.72
0.38
-1.17
-3.16
-5.66
-8.51
-11.46
-14.30
-17.03
-19.89
-23.13
-26.85
-30.74
-34.10
-36.00
-35.65
-32.63
-27.13
-19.85
-11.80
-3.94
3.06
8.94
13.74
17.56
20.43
22.18
22.62
21.79
20.09
18.21
16.92
16.70
17.55
18.98
20.34
21.05
20.86
19.81
18.14
16.10
13.87
11.52
9.05
6.35
3.32
-0.10
-3.84
-7.66
-11.15
-13.92
-15.74
-16.71
-17.22
-17.85
-19.11
-21.25
-24.06
-26.85
-28.61
-28.28
-25.17
-19.25
-11.25
-2.40
5.95
12.82
17.78
20.92
22.55
22.92
22.16
20.36
17.83
15.15
13.06
12.15
12.59
14.07
15.95
17.58
18.57
18.88
18.69
18.21
17.53
16.56
15.09
12.95
10.04
6.42
2.27
-2.11
-6.36
-10.08
-12.93
-14.82
-15.91
-16.66
-17.59
-19.07
-21.06
-23.09
-24.38
-24.11
-21.84
-17.58
-11.82
-5.29
1.22
7.11
11.97
15.54
17.69
18.43
17.87
