1556128731.00
64.000000
-0.00
-0.00
-0.00
-0.00
-0.00
-0.00
-0.00
-0.00
-0.00
-0.00
0.00
0.01
0.01
-0.00
-0.03
-0.05
-0.05
0.00
0.13
0.36
0.66
1.01
1.37
1.72
2.06
2.40
2.79
3.24
3.80
4.42
5.06
5.66
6.20
6.68
7.15
7.68
8.31
9.14
10.09
11.04
11.88
12.56
13.14
13.76
14.65
15.96
17.91
20.32
22.90
25.38
27.58
29.57
31.68
34.32
37.81
42.54
48.15
54.10
59.83
64.97
69.58
74.14
79.34
85.70
93.76
102.99
112.61
121.73
129.77
136.78
143.35
150.83
157.91
166.84
178.23
192.17
207.46
221.19
229.03
226.31
209.66
178.19
134.28
81.76
25.00
-32.77
-89.99
-146.39
-202.14
-256.99
-310.15
-360.16
-406.06
-447.08
-482.54
-511.51
-532.55
-543.97
-544.05
-531.80
-507.03
-470.89
-425.43
-373.17
-316.64
-258.10
-199.31
-141.69
-86.42
-34.45
13.30
56.13
93.65
125.77
152.64
174.59
191.95
205.03
214.24
220.12
223.38
224.88
225.41
225.41
224.91
223.56
220.78
216.26
210.10
202.93
195.50
188.33
181.28
173.35
163.04
148.69
129.42
105.50
78.36
49.83
21.67
-5.18
-30.74
-55.02
-78.90
-103.48
-129.92
-158.88
-189.61
-218.99
-241.42
-250.25
-240.40
-211.17
-167.32
-117.85
-72.77
-39.41
-20.26
-13.20
-13.70
-17.71
-23.19
-30.11
-39.28
-50.96
-64.25
-77.36
-88.35
-95.82
-99.15
-98.62
-94.78
-88.09
-78.56
-65.68
-48.62
-26.70
0.28
31.97
67.83
107.57
150.79
196.14
240.01
276.19
297.24
297.09
273.99
231.93
179.68
127.35
83.41
51.99
32.75
22.64
18.31
17.70
19.95
24.51
30.23
35.34
38.00
37.26
33.47
28.10
23.14
20.13
19.71
21.32
23.66
25.20
24.88
22.44
18.55
14.44
11.45
10.55
11.98
15.16
18.80
21.25
20.96
16.96
9.12
-1.85
-14.80
-28.38
-41.68
-54.47
-67.23
-81.11
-97.71
-118.69
-144.62
-173.68
-200.85
-218.35
-218.10
-195.09
-150.14
-90.55
-27.62
27.05
65.55
85.55
89.79
83.99
74.55
67.10
65.56
71.44
83.09
95.55
101.90
95.87
74.99
42.23
5.03
-27.69
-49.02
-56.29
-51.35
-38.46
-21.75
-3.81
14.03
30.72
44.60
53.72
56.83
54.29
48.32
42.05
38.57
39.38
44.02
50.40
55.77
57.94
56.19
51.60
46.42
43.21
43.54
47.28
52.51
56.30
55.84
49.59
37.87
22.61
6.49
-8.63
-22.19
-35.36
-50.26
-68.72
-91.36
-116.77
-143.41
-169.40
-192.81
-211.17
-221.43
-220.59
-206.92
-181.40
-147.98
-113.08
-82.23
-59.37
-45.87
-41.20
-43.75
-51.84
-63.53
-76.17
-86.58
-90.93
-86.17
-70.78
-45.45
-13.69
18.25
42.18
50.63
40.28
14.91
-15.04
-34.78
-32.19
-3.80
43.43
95.54
138.33
163.51
171.70
168.86
162.13
155.76
150.01
142.87
132.77
120.14
107.19
96.69
90.03
87.01
86.09
85.16
82.74
78.35
72.43
66.09
60.38
55.92
52.90
51.04
49.96
49.62
50.69
54.02
59.52
65.10
66.31
57.58
34.50
-3.29
-50.40
-96.34
-128.93
-138.76
-122.98
-86.30
-38.54
9.61
50.56
81.10
100.97
110.23
107.55
90.93
60.19
19.14
-24.34
-60.71
-83.00
-89.67
-84.73
-75.08
-66.76
-62.63
-61.81
-61.52
-59.30
-54.48
-48.18
-42.25
-38.14
-36.23
-35.76
-35.39
-33.99
-31.13
-27.19
-23.10
-19.81
-17.80
-16.94
-16.62
-16.06
-14.75
-12.66
-10.19
-7.91
-6.27
-5.39
-5.06
-4.86
-4.39
-3.52
-2.33
-1.10
-0.10
0.54
0.86
1.06
1.36
1.93
2.76
3.75
4.75
5.62
6.33
6.92
7.44
8.00
8.65
9.39
10.22
11.12
12.07
13.10
14.19
15.33
16.54
17.81
19.16
20.58
22.09
23.69
25.37
27.16
28.98
30.83
32.68
34.44
35.98
37.17
37.85
37.86
37.04
35.13
32.09
27.91
22.63
16.40
9.45
2.06
-5.44
-12.27
-18.42
-23.68
-27.86
-30.91
-32.82
-33.70
-33.68
-33.23
-32.30
-31.11
-29.78
-28.42
-27.11
-25.90
-24.80
-23.84
-23.01
-22.25
-21.60
-21.06
-20.64
-20.34
-20.13
-20.03
-20.05
-20.22
-20.52
-20.98
-21.65
-22.47
-23.40
-24.36
-25.34
-26.37
-27.44
-28.56
-29.73
-30.90
-31.98
-32.79
-33.16
-32.96
-32.04
-30.36
-28.19
-25.21
-21.25
-16.12
-9.70
-1.87
7.17
17.01
26.98
36.30
44.29
50.44
54.66
57.18
58.41
58.54
57.72
55.83
52.64
48.09
42.49
36.52
31.08
26.87
23.71
20.94
17.14
10.76
0.69
-13.18
-29.90
-47.76
-63.77
-77.41
-88.69
-98.28
-107.13
-116.18
-126.07
-137.42
-150.33
-163.81
-175.28
-180.47
-175.22
-157.59
-129.47
-96.40
-65.82
-43.76
-32.43
-30.08
-32.15
-34.07
-33.15
-29.18
-22.44
-13.32
-1.44
14.00
33.12
54.93
77.27
97.63
112.95
122.75
127.66
129.13
128.76
127.55
125.78
123.08
118.80
112.59
104.76
96.10
87.66
80.35
74.55
70.13
66.49
62.89
59.26
55.24
50.97
46.89
43.42
40.73
38.78
37.29
35.97
34.58
33.07
31.51
30.05
28.76
27.61
26.37
24.76
22.49
19.31
15.33
10.13
3.64
-4.07
-12.86
-22.48
-32.53
-42.44
-51.66
-59.57
-65.63
-69.25
-70.01
-67.74
-62.50
-54.63
-44.54
-32.96
-20.73
-8.73
2.25
11.63
18.85
23.54
25.56
25.23
22.80
18.72
13.50
7.64
1.68
-4.23
-10.02
-15.86
-21.60
-27.45
-33.41
-39.30
-45.65
-51.51
-56.29
-59.12
-60.15
-58.92
-55.51
-49.74
-41.55
-31.10
-18.66
-4.95
9.10
20.64
29.49
35.34
38.42
39.36
38.78
37.25
34.99
31.66
26.75
21.90
15.85
8.55
1.05
-5.60
-10.64
-13.87
-16.40
-19.40
-23.51
-29.28
-36.00
-41.74
-44.88
-44.66
-41.19
-36.92
-34.06
-33.80
-36.53
-41.19
-45.18
-46.60
-44.55
-38.04
-27.95
-13.94
4.61
27.55
47.64
58.63
55.54
37.54
10.37
-18.64
-41.04
-52.37
-53.79
-49.92
-44.10
-36.67
-32.37
-17.49
6.61
35.13
59.92
73.88
75.31
70.18
68.18
78.06
104.10
141.32
179.98
208.15
217.02
204.67
177.01
142.94
110.42
84.67
66.61
55.87
51.12
51.18
54.90
61.11
66.45
66.83
50.12
12.98
-35.44
-79.38
-106.81
-115.12
-108.91
-93.85
-76.23
-59.06
-41.21
-19.80
7.56
42.52
82.35
126.28
167.30
199.47
217.75
218.99
200.69
161.73
104.38
35.77
-32.68
-90.13
-129.48
-149.76
-154.42
-149.26
-139.57
-128.49
-117.28
-106.13
-96.08
-88.30
-83.64
-81.44
-79.90
-77.01
-71.21
-62.45
-51.96
-42.25
-35.54
-33.05
-34.24
-37.12
-39.22
-38.62
-34.95
-30.05
-26.44
-26.54
-31.65
-41.17
-52.93
-64.62
-74.49
-82.00
-86.09
-87.49
-86.41
-83.43
-80.33
-79.79
-84.02
-92.37
-100.46
-101.58
-90.19
-64.99
-30.38
5.10
34.34
53.13
61.93
64.45
64.82
65.09
65.05
63.36
59.42
54.12
49.42
47.21
48.10
51.16
54.46
56.13
55.36
52.73
50.02
49.35
52.38
59.50
69.24
78.42
83.22
80.55
69.30
50.94
28.77
6.68
-12.23
-26.50
-36.17
-42.00
-44.71
-44.62
-41.81
-36.61
-30.03
-23.45
-17.99
-13.99
-10.88
-7.65
-3.51
1.67
7.21
11.93
14.71
14.97
12.83
9.08
4.84
1.18
-1.28
-2.55
-3.16
-3.87
-5.17
-7.10
-9.13
-10.50
-10.45
-8.60
-4.96
0.16
6.25
12.75
18.99
24.27
27.94
29.62
29.34
27.58
25.01
22.28
19.69
17.19
14.46
11.20
7.32
3.00
-1.32
-5.16
-8.12
-10.02
-10.87
-10.86
-10.24
-9.26
-8.08
-6.86
-5.73
-4.90
-4.58
-4.97
-6.06
-7.68
-9.49
-11.20
-12.67
-13.99
-15.38
-16.98
-18.72
-20.34
-21.42
-21.59
-20.68
-18.76
-16.18
-13.47
-11.16
-9.61
-8.91
-8.81
-8.84
-8.53
-7.63
-6.19
-4.55
-3.25
-2.77
-3.36
-4.94
-7.06
-8.97
-9.79
-8.69
-5.23
0.44
7.48
14.58
20.36
23.82
24.67
23.34
20.85
18.30
16.40
15.26
14.38
13.01
10.48
6.50
1.26
-4.56
-10.26
-15.50
-20.39
-25.16
-29.82
-34.02
-37.12
-38.42
-37.23
-33.46
-27.87
-21.82
-16.55
-12.68
-10.08
-8.16
-6.23
-3.41
0.51
4.67
7.48
7.54
4.39
-1.23
-7.46
-11.63
-10.07
-0.02
19.04
44.59
71.80
95.16
110.03
113.80
102.24
75.33
38.60
1.20
-29.16
-48.98
-58.17
-58.50
-52.50
-42.91
-31.51
-19.50
-7.57
3.83
14.36
23.67
31.22
36.27
38.29
38.45
37.30
35.07
31.69
27.17
21.91
16.58
11.85
8.26
6.39
6.29
7.33
8.45
8.58
7.21
4.43
0.81
-2.94
-6.17
-8.05
-8.56
-8.26
-7.90
-8.14
-9.31
-11.35
-13.97
-16.63
-18.96
-20.89
-22.64
-24.62
-27.12
-30.22
-33.58
-36.50
-38.09
-37.51
-34.30
-28.51
-20.81
-12.30
-4.24
2.35
6.94
9.55
10.66
10.89
10.91
11.09
11.51
12.10
12.77
13.52
14.32
15.13
15.85
16.43
16.76
16.75
16.44
16.00
15.73
15.86
16.47
17.47
18.68
19.56
19.41
17.65
14.23
9.69
4.79
0.36
-2.88
-4.21
-3.99
-3.35
-3.74
-6.18
-10.96
-18.15
-27.28
-37.15
-45.14
-49.64
-50.20
-47.71
-43.93
-41.20
-42.51
-49.70
-61.68
-72.80
-77.11
-70.19
-50.99
-21.94
11.37
40.80
58.56
60.07
46.49
20.49
-14.37
-54.00
-93.32
-120.58
-124.83
-103.39
-73.19
-42.27
-14.31
11.22
32.89
49.80
61.76
68.10
68.31
63.11
56.15
49.79
44.97
41.43
38.75
36.40
33.14
27.80
20.35
13.25
8.04
5.15
3.89
3.37
2.69
0.68
-3.37
-9.09
-14.22
-16.91
-16.08
-11.66
-4.19
5.16
14.63
22.53
27.85
30.95
32.47
33.02
32.92
32.19
30.64
28.01
24.24
19.70
15.26
11.65
9.31
8.19
7.94
8.04
8.02
7.60
6.82
5.90
5.12
4.58
4.14
3.44
2.10
-0.10
-3.05
-6.36
-9.51
-12.07
-13.83
-14.85
-15.40
-15.88
-16.64
-17.95
-19.85
-22.17
-24.49
-26.15
-26.35
-24.38
-19.86
-12.95
-4.42
4.52
12.59
18.83
22.83
24.76
25.18
24.65
23.60
22.18
20.46
18.45
16.27
14.09
12.06
10.25
8.66
7.25
6.02
4.95
4.07
3.39
2.87
2.47
2.11
1.70
1.07
0.06
-1.50
-3.69
-6.39
-9.31
-12.05
-14.25
-15.73
-16.57
-17.04
-17.52
-18.38
-19.81
-21.84
-24.31
-26.86
-28.89
-29.66
-28.38
-24.46
-17.81
-9.05
0.61
9.65
16.78
21.39
23.63
24.25
24.09
23.70
23.16
22.21
20.64
18.47
16.03
13.76
11.92
10.54
9.37
8.24
7.08
6.09
5.52
5.47
5.80
6.11
5.97
5.03
3.25
0.90
-1.56
-3.63
-5.01
-5.71
-6.07
-6.60
-7.79
-9.78
-12.33
-14.90
-16.88
-17.94
-18.12
-17.84
-17.69
-18.17
-19.52
-21.73
-24.55
-27.45
-29.68
-30.30
-28.42
-23.51
-15.77
-6.14
3.84
12.64
19.16
23.11
24.88
25.19
24.65
23.59
22.02
19.91
17.39
14.81
12.62
11.16
10.44
10.22
10.09
9.72
8.98
7.99
6.97
6.12
5.52
5.06
4.54
3.74
2.54
0.92
-0.98
-2.91
-4.64
-5.98
-6.94
-7.66
-8.38
-9.34
-10.62
-12.14
-13.68
-14.97
-15.82
-16.21
-16.29
-16.28
-16.47
-17.10
-18.36
-20.31
-22.81
-25.43
-27.41
-27.74
-25.47
-20.14
-12.05
-2.29
7.55
15.99
22.03
25.51
26.88
26.86
26.15
25.17
24.06
22.87
21.61
20.33
19.11
17.96
16.91
15.94
14.99
14.01
12.93
11.74
10.50
9.35
8.49
8.01
7.81
7.62
7.05
5.82
3.88
1.43
-1.20
-3.73
-6.09
-8.41
-10.96
-13.94
-17.32
-20.85
-24.09
-26.62
-28.17
-28.69
-28.39
-27.63
-26.84
-26.43
-26.60
-27.26
-27.98
-27.98
-26.41
-22.55
-16.21
-7.80
1.65
10.81
18.37
23.46
25.77
25.58
23.53
20.40
16.87
13.45
10.44
8.02
6.29
5.35
5.20
5.80
6.96
8.40
9.74
10.66
10.93
10.51
9.48
8.02
6.31
4.47
2.54
0.52
-1.61
-3.86
-6.17
-8.46
-10.61
-12.48
-13.99
-15.09
-15.86
-16.45
-17.10
-18.07
-19.58
-21.84
-24.97
-28.86
-33.14
-36.98
-39.25
-38.73
-34.61
-26.89
-16.55
-5.26
5.14
13.28
18.62
21.47
22.58
22.76
22.51
22.06
21.38
20.46
19.36
18.17
16.97
15.72
14.35
12.81
11.15
9.56
8.32
7.66
7.64
8.10
8.61
8.68
7.86
5.94
3.02
-0.53
-4.17
-7.45
-10.08
-12.08
-13.74
-15.48
-17.68
-20.48
-23.65
-26.51
-28.14
-27.55
-24.16
-18.01
-9.83
-0.83
7.67
14.61
19.44
22.11
22.93
22.38
20.96
19.10
17.11
15.23
13.57
12.08
10.67
9.27
7.91
6.68
5.71
5.07
4.71
4.55
4.42
4.20
3.73
2.87
1.48
-0.49
-2.99
-5.74
-8.38
-10.53
-11.98
-12.82
-13.41
-14.30
-16.01
-18.72
-22.13
-25.39
-27.30
-26.71
-23.02
-16.39
-7.87
1.06
8.92
14.73
18.14
19.43
19.18
17.96
16.20
14.11
11.79
9.31
6.72
4.10
1.48
-1.13
-3.81
-6.60
-9.46
-12.23
-14.65
-16.44
-17.46
-17.82
-17.82
-17.79
-17.96
-18.34
-18.77
-19.02
-18.88
-18.28
-17.22
-15.78
-14.09
-12.33
-10.72
-9.46
-8.63
-8.22
-8.18
-8.47
-9.08
-9.95
-10.92
-11.62
-11.57
-10.36
-7.87
-4.43
-0.69
2.58
4.74
5.47
4.99
4.02
3.60
4.90
8.34
13.70
19.90
25.28
28.15
27.44
23.13
16.28
9.08
3.32
0.71
1.87
5.95
10.62
12.70
9.21
-1.34
-17.65
-36.96
-54.37
-64.91
-65.01
-53.45
-31.54
-2.59
28.95
58.95
82.66
97.30
101.88
97.41
86.53
72.70
58.99
43.82
32.23
22.62
13.98
5.74
-1.97
-8.59
-13.55
-16.54
-17.61
-16.44
-14.08
-10.97
-7.70
-4.96
-3.37
-3.32
-4.79
-7.42
-10.14
-12.73
-14.43
-14.60
-12.84
-9.25
-4.46
0.44
4.31
6.71
7.32
6.85
6.38
6.75
8.21
10.35
12.32
13.26
12.82
10.87
7.97
4.88
2.34
0.86
0.60
1.35
2.64
3.94
4.71
4.65
3.72
2.03
-0.22
-2.77
-5.36
-7.63
-9.25
-9.94
-9.64
-8.57
-7.09
-5.51
-3.91
-2.09
0.24
3.19
6.56
9.88
12.62
14.40
15.12
14.94
14.09
12.82
11.30
9.68
8.12
6.76
5.72
5.03
4.59
4.25
3.78
2.95
1.64
-0.12
-2.10
-3.87
-5.01
-5.28
-4.76
-3.83
-3.04
-2.89
-3.56
-4.93
-6.62
-8.21
-9.42
-10.21
-10.75
-11.30
-12.10
-13.24
-14.73
-16.45
-18.21
-19.79
-20.90
-21.28
-20.73
-19.16
-16.70
-13.65
-10.39
-7.31
-4.69
-2.69
-1.34
-0.59
-0.41
-0.81
-1.82
-3.43
-5.46
-7.40
-8.52
-8.00
-5.44
-1.10
3.89
7.96
9.76
8.85
6.03
2.98
1.48
2.54
5.93
10.34
14.16
16.23
16.32
15.00
13.04
10.90
8.58
6.07
3.79
2.81
4.26
8.46
14.24
19.12
20.37
16.51
8.29
-1.38
-8.65
-10.46
-5.75
4.27
16.97
29.53
39.91
47.09
50.72
50.62
46.59
38.59
27.18
13.81
0.61
-10.18
-16.99
-19.43
-18.29
-15.04
-11.15
-7.60
-4.69
-2.22
0.15
2.59
5.00
7.05
8.29
8.34
6.96
4.16
0.16
-4.61
-9.59
-14.22
-17.99
-20.52
-21.57
-21.02
-19.02
-15.94
-12.43
-9.30
-7.27
-6.69
-7.39
-8.72
-9.83
-10.08
-9.28
-7.77
-6.17
-5.10
-4.89
-5.55
-6.85
-8.52
-10.39
-12.32
-14.18
-15.73
-16.65
-16.74
-15.97
-14.57
-12.90
-11.35
-10.14
-9.28
-8.64
-8.07
-7.54
-7.16
-7.23
-8.04
-9.77
-12.30
-15.19
-17.69
-18.94
-18.24
-15.24
-10.17
-3.68
3.32
10.00
15.77
20.38
23.81
26.12
27.37
27.59
26.84
25.28
23.23
21.11
19.37
18.40
18.39
19.26
20.65
22.11
23.19
23.65
23.46
22.70
21.41
19.53
16.95
13.59
9.58
5.26
1.03
-2.75
-5.91
-8.48
-10.57
-12.28
-13.66
-14.75
-15.61
-16.39
-17.20
-18.06
-18.76
-18.87
-17.90
-15.53
-11.86
-7.40
-2.94
0.72
3.07
4.02
3.87
3.06
2.02
1.06
0.33
-0.13
-0.30
-0.21
0.03
0.26
0.34
0.21
-0.04
-0.25
-0.25
-0.00
0.32
0.41
-0.04
-1.17
-2.86
-4.74
-6.38
-7.48
-8.08
-8.54
-9.39
-11.06
-13.68
-16.94
-20.17
-22.53
-23.21
-21.67
-17.89
-12.52
-6.91
-2.75
-1.59
-4.15
-9.92
-17.26
-23.89
-27.71
-27.51
-23.26
-16.02
-7.34
1.26
8.67
14.32
18.18
20.58
22.05
23.15
24.35
25.89
27.75
29.72
31.41
32.30
31.90
29.84
25.98
20.56
14.06
7.19
0.65
-5.09
-9.88
-13.86
-17.32
-20.59
-23.80
-26.91
-29.69
-31.84
-33.30
-34.29
-35.21
-36.49
-38.39
-40.79
-43.27
-44.98
-44.74
-41.77
-35.60
-26.20
-13.99
0.10
14.90
28.76
40.20
48.17
51.57
49.89
43.26
32.54
19.00
4.17
-11.06
-26.12
-40.61
-54.95
-69.48
-84.23
-98.82
-112.79
-125.70
-137.99
-150.04
-157.53
-156.78
-146.22
-127.84
-105.72
-85.57
-67.78
-51.96
-37.25
-22.27
-7.17
7.73
22.06
35.56
48.11
59.88
70.47
79.57
86.88
91.47
92.37
89.01
81.69
71.75
61.33
52.26
45.83
42.54
41.71
42.22
43.05
43.77
44.77
46.75
49.98
54.19
58.72
62.59
65.02
65.64
64.57
62.62
60.56
58.59
56.54
54.21
51.61
49.07
47.05
45.86
46.22
48.22
51.21
54.21
56.51
58.00
58.93
59.56
59.95
61.13
63.66
67.30
71.29
74.96
78.13
80.99
83.71
86.29
90.02
95.52
102.12
108.24
112.32
113.47
111.52
106.71
90.08
58.46
15.69
-29.14
-67.53
-95.25
-111.92
-119.18
-119.54
-115.72
-108.95
-100.25
-91.03
-82.96
-77.09
-73.38
-71.19
-69.79
-68.86
-67.35
-64.48
-60.49
-56.19
-52.18
-48.38
-44.25
-39.26
-33.19
-25.45
-15.92
-5.21
5.70
15.92
25.02
32.91
39.62
45.21
49.95
53.87
56.58
57.51
56.29
53.03
48.31
42.97
37.81
33.39
29.77
26.40
22.38
16.93
9.68
0.85
-8.83
-18.38
-26.95
-34.01
-39.52
-43.78
-47.14
-49.85
-51.98
-53.52
-54.55
-55.33
-56.18
-57.33
-58.70
-59.84
-60.09
-58.76
-55.43
-50.05
-42.97
-34.80
-26.21
-17.80
-10.00
-3.11
2.64
6.98
9.68
10.63
10.02
8.42
6.65
5.51
5.49
6.49
8.03
9.44
10.23
10.31
9.98
9.70
9.91
10.84
12.46
14.54
16.64
18.25
18.86
18.04
15.62
11.69
6.63
0.98
-4.71
-9.95
-14.39
-17.79
-20.06
-21.25
-21.51
-21.09
-20.26
-19.28
-18.35
-17.68
-17.46
-17.84
-18.92
-20.71
-23.11
-25.86
-28.57
-30.68
-31.53
-30.43
-26.95
-21.11
-13.54
-5.31
2.32
8.36
12.37
14.51
15.31
15.36
15.10
14.72
14.28
13.78
13.21
12.54
11.66
10.46
8.88
7.04
5.21
3.72
2.81
2.49
2.48
2.26
1.28
-0.84
-4.19
-8.53
-13.38
-18.19
-22.53
-26.17
-29.10
-31.38
-33.10
-34.30
-34.98
-35.19
-35.01
-34.60
-34.10
-33.65
-33.27
-32.88
-32.21
-30.89
-28.49
-24.74
-19.57
-13.21
-6.02
1.54
9.07
16.10
22.07
26.31
28.18
27.36
24.00
18.78
12.73
6.99
2.65
0.50
0.91
3.73
8.29
13.55
18.36
21.82
23.56
23.68
22.64
20.90
18.73
16.20
13.32
10.23
7.23
4.68
2.86
1.79
1.29
0.94
0.28
-1.06
-3.22
-6.00
-8.97
-11.65
-13.67
-14.94
-15.67
-16.23
-16.95
-18.01
-19.40
-21.05
-22.88
-24.77
-26.48
-27.52
-27.17
-24.74
-19.85
-12.73
-4.23
4.42
12.02
17.75
21.35
23.04
23.34
22.76
21.72
20.50
19.27
18.19
17.33
16.73
16.29
15.88
15.34
14.60
13.72
12.85
12.21
11.92
11.98
12.26
12.54
12.63
12.41
11.84
11.00
10.02
9.02
8.13
7.38
6.76
6.16
5.44
4.48
3.20
1.67
0.06
-1.41
-2.58
-3.41
-3.98
-4.43
-4.94
-5.61
-6.53
-7.83
-9.67
-12.15
-15.10
-17.97
-19.90
-19.96
-17.57
-12.84
-6.58
-0.02
5.62
9.52
11.47
11.78
11.05
9.89
8.78
7.93
7.40
7.12
7.04
7.12
7.35
7.70
8.08
8.35
8.40
8.25
8.06
8.09
8.52
9.36
10.38
11.19
11.44
10.94
9.69
7.90
5.79
3.58
1.42
-0.66
-2.70
-4.76
-6.94
-9.25
-11.56
-13.66
-15.36
-16.58
-17.51
-18.51
-19.98
-22.10
-24.69
-27.08
-28.39
-27.72
-24.54
-18.88
-11.35
-2.98
5.09
11.91
16.92
20.03
21.54
21.97
21.88
21.67
21.51
21.38
21.07
20.35
19.07
17.19
14.82
12.11
9.28
6.54
4.06
2.06
0.71
0.10
0.21
0.85
1.67
2.27
2.33
1.71
0.51
-0.94
-2.27
-3.22
-3.77
-4.17
-4.84
-6.15
-8.19
-10.81
-13.64
-16.27
-18.45
-20.07
-21.19
-21.95
-22.48
-22.96
-23.57
-24.56
-26.03
-27.81
-29.38
-29.89
-28.46
-24.56
-18.32
-10.57
-2.58
4.37
9.44
12.45
13.81
14.20
14.27
14.38
14.60
14.87
15.05
15.09
14.96
14.65
14.14
13.46
12.69
11.99
11.56
11.52
11.88
12.45
12.95
13.06
12.52
11.27
9.41
7.23
5.10
3.31
2.03
1.18
0.56
-0.14
-1.10
-2.33
-3.64
-4.82
-5.68
-6.29
-6.88
-7.76
-9.11
-10.86
-12.72
-14.34
-15.42
-15.93
-16.02
-15.97
-16.02
-16.37
-17.14
-18.42
-20.17
-22.15
-23.83
-24.48
-23.38
-20.15
-14.93
-8.37
-1.45
4.88
9.92
13.40
15.34
16.01
15.79
15.09
14.28
13.62
13.24
13.13
13.16
13.23
13.26
13.27
13.27
13.31
13.40
13.52
13.70
13.93
14.18
14.37
14.36
14.00
13.19
11.95
10.40
8.69
7.02
5.51
4.25
3.23
2.40
1.69
1.00
0.30
-0.44
-1.21
-1.98
-2.74
-3.52
-4.40
-5.42
-6.60
-7.91
-9.18
-10.26
-11.03
-11.52
-11.95
-12.62
-13.83
-15.75
-18.27
-21.02
-23.42
-24.78
-24.49
-22.20
-17.95
-12.20
-5.73
0.51
5.76
9.53
11.82
12.92
13.21
13.04
12.64
12.12
11.53
10.95
10.44
10.05
9.83
9.82
10.05
10.52
11.16
11.86
12.48
12.93
13.21
13.37
13.43
13.33
12.91
12.06
10.82
9.40
8.05
6.95
6.06
5.18
4.11
2.75
1.21
-0.27
-1.48
-2.37
-3.05
-3.77
-4.75
-6.10
-7.74
-9.46
-10.97
-12.08
-12.73
-13.07
-13.37
-13.98
-15.19
-17.14
-19.77
-22.70
-25.27
-26.61
-25.92
-22.72
-17.21
-10.19
-2.84
3.67
8.59
11.76
13.44
14.10
14.18
13.96
13.61
13.28
13.05
12.98
13.04
13.12
13.13
13.03
12.85
12.65
12.50
12.44
12.45
12.52
12.59
12.59
12.41
11.96
11.20
10.17
8.99
7.79
6.70
5.73
4.85
3.96
2.96
1.79
0.44
-1.06
-2.60
-4.08
-5.42
-6.59
-7.63
-8.57
-9.42
-10.14
-10.67
-11.01
-11.24
-11.53
-12.15
-13.32
-15.23
-17.92
-21.20
-24.52
-27.08
-27.97
-26.49
-22.45
-16.32
-9.09
-1.92
4.21
8.78
11.76
13.37
13.97
13.86
13.30
12.53
11.81
11.31
11.10
11.09
11.11
11.02
10.74
10.34
9.94
9.69
9.67
9.87
10.21
10.55
10.74
10.71
10.44
10.00
9.44
8.81
8.17
7.50
6.76
5.88
4.73
3.25
1.45
-0.50
-2.31
-3.67
-4.39
-4.50
-4.32
-4.31
-4.91
-6.28
-8.28
-10.52
-12.53
-14.00
-14.88
-15.46
-16.14
-17.29
-19.11
-21.50
-24.10
-26.40
-27.77
-27.66
-25.66
-21.69
-16.05
-9.41
-2.62
3.44
8.19
11.38
13.10
13.68
13.51
12.93
12.22
11.57
11.08
10.81
10.70
10.65
10.57
10.42
10.24
10.16
10.29
10.66
11.22
11.77
12.17
12.29
12.10
11.63
10.95
10.07
8.97
7.70
6.30
4.88
3.56
2.38
1.31
0.26
-0.84
-2.02
-3.22
-4.39
-5.46
-6.42
-7.29
-8.05
-8.69
-9.23
-9.75
-10.38
-11.30
-12.67
-14.56
-16.89
-19.43
-21.71
-23.14
-23.11
-21.16
-17.23
-11.69
-5.31
0.95
6.28
10.20
12.64
13.84
14.18
13.99
13.48
12.76
11.91
11.03
10.27
9.76
9.54
9.58
9.72
9.83
9.83
9.74
9.72
9.87
10.22
10.67
11.01
10.98
10.45
9.41
7.97
6.35
4.72
3.20
1.87
0.72
-0.32
-1.32
-2.39
-3.65
-5.17
-6.96
-8.87
-10.69
-12.19
-13.24
-13.86
-14.27
-14.82
-15.83
-17.52
-19.80
-22.28
-24.29
-25.01
-23.83
-20.50
-15.34
-9.09
-2.75
2.84
7.14
10.00
11.56
12.08
11.84
11.09
10.13
9.28
8.79
8.77
9.13
9.62
9.96
9.98
9.70
9.32
9.05
9.04
9.32
9.79
10.29
10.67
10.84
10.74
10.26
9.30
7.79
5.77
3.46
1.15
-0.82
-2.28
-3.23
-3.88
-4.50
-5.30
-6.34
-7.52
-8.61
-9.43
-9.89
-10.05
-10.13
-10.36
-10.98
-12.18
-13.99
-16.34
-18.93
-21.30
-22.84
-22.97
-21.26
-17.64
-12.44
-6.33
-0.14
5.35
9.58
12.33
13.70
13.96
13.47
12.61
11.69
10.95
10.55
10.55
10.94
11.61
12.41
13.18
13.77
14.09
14.14
13.99
13.77
13.60
13.53
13.53
13.50
13.27
12.71
11.80
10.60
9.28
7.98
6.76
5.56
4.27
2.82
1.26
-0.24
-1.47
-2.28
-2.75
-3.09
-3.69
-4.83
-6.61
-8.87
-11.23
-13.30
-14.83
-15.83
-16.52
-17.28
-18.46
-20.28
-22.68
-25.35
-27.69
-28.97
-28.50
-25.88
-21.17
-14.93
-8.04
-1.48
4.00
8.00
10.49
11.69
11.94
11.60
10.99
10.38
9.96
9.81
9.89
10.06
10.18
10.17
10.08
9.98
9.97
10.06
10.16
10.14
9.90
9.43
8.80
8.11
7.41
6.67
5.79
4.63
3.17
1.55
-0.03
-1.35
-2.27
-2.88
-3.35
-3.89
-4.65
-5.61
-6.66
-7.63
-8.37
-8.85
-9.14
-9.40
-9.82
-10.55
-11.70
-13.25
-15.06
-16.84
-18.11
-18.31
-16.91
-13.60
-8.46
-2.04
4.77
10.98
15.83
19.04
20.81
21.68
22.27
22.99
23.98
25.09
26.07
26.71
27.02
27.15
27.41
28.03
29.12
30.63
32.33
33.96
35.30
36.33
37.11
37.73
38.20
38.35
37.97
36.86
34.81
31.60
26.99
20.70
12.57
2.68
-8.42
-19.71
-30.00
-38.46
-45.04
-50.33
-55.22
-60.48
-66.51
-73.36
-80.77
-88.41
-96.12
-103.65
-110.26
-114.48
-114.44
-108.61
-96.30
-77.98
-55.15
-30.23
-6.07
14.53
29.32
36.69
35.84
27.10
12.36
-3.96
-16.10
-20.11
-16.15
-7.24
3.12
12.53
20.19
26.50
32.36
38.12
43.46
47.77
50.85
53.01
54.64
55.96
56.88
57.23
55.16
49.96
41.85
31.95
21.80
12.63
5.14
-0.52
-4.52
-7.32
-9.29
-10.87
-12.41
-14.21
-16.49
-19.29
-22.31
-24.96
-26.59
-26.49
-24.33
-20.17
-14.42
-7.82
-1.12
5.04
10.25
14.29
17.16
18.95
19.75
19.75
19.15
18.23
17.26
16.44
15.93
15.80
15.99
16.31
16.52
16.44
15.99
15.25
14.40
13.61
13.01
12.51
11.95
11.14
9.99
8.56
7.02
5.48
3.95
2.35
0.59
-1.34
-3.23
-4.83
-5.95
-6.63
-7.18
-8.07
-9.70
-12.23
-15.56
-19.39
-23.39
-27.26
-30.65
-33.06
-33.89
-32.54
-28.74
-22.76
-15.43
-7.94
-1.42
3.46
6.61
8.38
9.36
10.00
10.50
10.83
10.86
10.53
9.90
9.14
8.46
8.00
7.84
7.95
8.19
8.39
8.40
8.19
7.81
7.38
7.00
6.70
6.34
5.78
4.86
3.54
1.85
-0.09
-2.12
-4.12
-5.94
-7.43
-8.52
-9.26
-9.86
-10.65
-11.98
-14.05
-16.78
-19.80
-22.46
-24.02
-23.85
-21.57
-17.25
-11.41
-4.91
1.27
6.33
9.84
11.79
12.54
12.55
12.30
12.09
12.04
12.15
12.31
12.38
12.19
11.68
10.92
10.09
9.43
9.15
9.26
9.63
10.04
10.25
10.10
9.51
8.48
7.04
5.28
3.27
1.14
-0.99
-3.07
-5.06
-6.93
-8.65
-10.16
-11.42
-12.52
-13.67
-15.22
-17.48
-20.50
-23.95
-27.09
-28.98
-28.79
-26.14
-21.22
-14.79
-7.85
-1.29
4.28
8.65
11.86
14.07
15.43
16.08
16.17
15.88
15.46
15.06
14.75
14.46
14.11
13.63
13.09
12.64
12.43
12.53
12.85
13.21
13.41
13.27
12.75
11.87
10.67
9.18
7.48
5.66
3.87
2.26
0.92
-0.20
-1.28
-2.51
-4.02
-5.83
-7.82
-9.76
-11.48
-12.86
-13.92
-14.77
-15.62
-16.70
-18.30
-20.64
-23.77
-27.39
-30.74
-32.78
-32.49
-29.30
-23.33
-15.43
-6.87
1.14
7.77
12.69
16.03
18.06
19.09
19.35
19.02
18.31
17.42
16.54
15.77
15.21
14.89
14.83
15.01
15.35
15.71
15.92
15.86
15.51
14.91
14.13
13.25
12.29
11.23
10.05
8.73
7.30
5.77
4.16
2.51
0.85
-0.70
-2.03
-3.05
-3.77
-4.36
-5.08
-6.14
-7.62
-9.43
-11.30
-13.03
-14.48
-15.76
-17.07
-18.68
-20.81
-23.55
-26.86
-30.44
-33.72
-35.87
-35.96
-33.26
-27.58
-19.48
-10.13
-1.01
6.59
11.91
14.86
15.88
15.68
14.95
14.22
13.82
13.83
14.21
14.83
15.48
15.96
16.14
15.93
15.31
14.37
13.26
12.22
11.51
11.29
11.55
12.07
12.44
12.22
11.14
9.21
6.73
4.17
1.97
0.34
-0.83
-1.84
-3.07
-4.71
-6.76
-9.02
-11.21
-13.12
-14.65
-15.85
-16.91
-18.08
-19.66
-21.91
-24.90
-28.34
-31.55
-33.49
-33.13
-29.83
-23.62
-15.31
-6.18
2.35
9.22
13.96
16.68
17.89
18.16
17.90
17.35
16.59
15.67
14.70
13.91
13.48
13.49
13.84
14.25
14.43
14.23
13.67
12.98
12.43
12.16
12.08
11.96
11.48
10.48
8.97
7.15
5.29
3.58
2.05
0.63
-0.85
-2.48
-4.30
-6.27
-8.30
-10.30
-12.18
-13.90
-15.41
-16.72
-17.91
-19.13
-20.64
-22.66
-25.34
-28.64
-32.14
-35.11
-36.58
-35.62
-31.68
-24.87
-16.02
-6.50
2.27
9.23
13.97
16.68
17.94
18.33
18.27
17.91
17.32
16.57
15.84
15.33
15.18
15.35
15.67
15.88
15.79
15.36
14.67
13.95
13.39
13.11
13.06
13.04
12.78
12.06
10.81
9.11
7.17
5.23
3.46
1.93
0.60
-0.66
-1.97
-3.40
-5.03
-6.84
-8.83
-10.93
-13.04
-15.04
-16.75
-18.08
-19.01
-19.75
-20.70
-22.35
-25.06
-28.77
-32.87
-36.20
-37.41
-35.41
-29.90
-21.47
-11.50
-1.67
6.60
12.53
16.10
17.86
18.52
18.67
18.60
18.37
17.98
17.47
16.96
16.57
16.37
16.30
16.25
16.15
15.99
15.84
15.80
15.89
16.03
16.10
15.98
15.55
14.77
13.64
12.16
10.41
8.47
6.43
4.36
2.34
0.45
-1.21
-2.52
-3.48
-4.21
-4.95
-6.06
-7.78
-10.15
-12.92
-15.67
-17.94
-19.49
-20.33
-20.83
-21.51
-22.93
-25.42
-28.92
-32.85
-36.19
-37.74
-36.46
-31.92
-24.46
-15.09
-5.22
3.80
11.01
16.04
18.99
20.30
20.50
20.04
19.27
18.41
17.57
16.81
16.16
15.61
15.18
14.85
14.65
14.58
14.64
14.86
15.21
15.63
16.02
16.17
15.89
15.02
13.54
11.54
9.22
6.85
4.69
2.89
1.49
0.39
-0.60
-1.69
-3.04
-4.69
-6.60
-8.62
-10.59
-12.40
-14.00
-15.38
-16.63
-17.85
-19.20
-20.88
-23.09
-25.94
-29.30
-32.73
-35.44
-36.48
-34.98
-30.50
-23.30
-14.30
-4.82
3.81
10.68
15.47
18.35
19.78
20.21
19.93
19.14
17.99
16.70
15.52
14.68
14.23
14.11
14.11
14.06
13.83
13.46
13.08
12.82
12.75
12.75
12.61
12.03
10.83
9.02
6.80
4.50
2.38
0.57
-1.01
-2.58
-4.34
-6.36
-8.56
-10.74
-12.68
-14.26
-15.48
-16.53
-17.68
-19.24
-21.45
-24.32
-27.56
-30.54
-32.40
-32.28
-29.60
-24.28
-16.86
-8.36
0.03
7.24
12.63
16.06
17.80
18.34
18.19
17.72
17.12
16.50
15.87
15.25
14.67
14.15
13.71
13.35
13.10
12.98
13.01
13.12
13.15
12.91
12.22
11.07
9.55
7.89
6.29
4.77
3.22
1.44
-0.70
-3.18
-5.75
-8.12
-10.11
-11.73
-13.22
-14.86
-16.91
-19.42
-22.36
-25.61
-28.96
-32.07
-34.34
-34.96
-33.12
-28.40
-21.03
-11.99
-2.73
5.36
11.37
15.14
17.05
17.76
17.88
17.76
17.55
17.32
17.10
16.95
16.86
16.74
16.49
15.97
15.19
14.21
13.20
12.35
11.82
11.62
11.67
11.74
11.52
10.79
9.44
7.62
5.62
3.80
2.41
1.47
0.77
-0.06
-1.39
-3.36
-5.88
-8.62
-11.15
-13.13
-14.48
-15.38
-16.22
-17.45
-19.40
-22.22
-25.68
-29.23
-32.05
-33.19
-31.83
-27.61
-20.80
-12.30
-3.42
4.58
10.79
14.89
17.14
18.07
18.30
18.25
18.14
18.02
17.85
17.60
17.25
16.84
16.41
16.03
15.72
15.50
15.35
15.25
15.18
15.13
15.07
14.96
14.68
14.09
13.08
11.58
9.67
7.49
5.30
3.33
1.73
0.53
-0.41
-1.30
-2.39
-3.86
-5.73
-7.89
-10.12
-12.21
-14.00
-15.43
-16.53
-17.42
-18.24
-19.22
-20.63
-22.75
-25.73
-29.38
-33.09
-35.81
-36.39
-33.91
-28.14
-19.67
-9.78
0.01
8.36
14.57
18.55
20.70
21.59
21.72
21.43
20.91
20.32
19.81
19.48
19.34
19.29
19.20
18.91
18.44
17.83
17.25
16.82
16.61
16.57
16.59
16.51
16.14
15.33
13.98
12.15
9.98
7.71
5.59
3.75
2.20
0.83
-0.50
-1.92
-3.44
-5.06
-6.80
-8.70
-10.81
-13.06
-15.25
-17.09
-18.36
-19.03
-19.41
-20.01
-21.36
-23.82
-27.38
-31.63
-35.75
-38.68
-39.35
-36.95
-31.23
-22.70
-12.48
-2.11
7.01
13.94
18.39
20.64
21.27
20.85
19.85
18.55
17.19
15.96
15.02
14.45
14.20
14.15
14.17
14.15
14.06
13.95
13.88
13.92
14.07
14.26
14.33
14.10
13.38
12.07
10.23
8.03
5.75
3.65
1.89
0.43
-0.94
-2.50
-4.48
-6.95
-9.77
-12.63
-15.15
-17.07
-18.33
-19.12
-19.88
-21.12
-23.27
-26.41
-30.21
-33.85
-36.25
-36.31
-33.36
-27.35
-18.97
-9.40
-0.01
8.06
14.14
18.07
20.09
20.63
20.22
19.31
18.28
17.39
16.77
16.37
16.08
15.72
15.19
14.48
13.70
13.01
12.57
12.49
12.75
13.23
13.69
13.84
13.40
12.17
10.15
7.55
4.73
2.11
0.00
-1.53
-2.69
-3.89
-5.57
-7.94
-10.91
-14.00
-16.64
-18.39
-19.20
-19.43
-19.76
-20.85
-23.15
-26.65
-30.90
-35.04
-37.97
-38.61
-36.16
-30.40
-21.86
-11.72
-1.53
7.28
13.77
17.75
19.58
19.99
19.65
19.06
18.46
17.91
17.46
17.10
16.83
16.61
16.36
16.05
15.67
15.28
14.95
14.73
14.63
14.61
14.58
14.44
14.07
13.37
12.26
10.73
8.83
6.71
4.55
2.52
0.73
-0.82
-2.25
-3.74
-5.46
-7.47
-9.75
-12.11
-14.34
-16.25
-17.75
-18.89
-19.84
-20.88
-22.32
-24.45
-27.42
-31.02
-34.64
-37.22
-37.63
-34.93
-28.87
-20.09
-9.88
0.14
8.60
14.74
18.49
20.32
20.87
20.74
20.27
19.67
19.01
18.40
17.92
17.65
17.58
17.67
17.84
18.00
18.11
18.13
18.10
18.02
17.90
17.66
17.21
16.42
15.20
13.55
11.59
9.52
7.51
5.67
4.00
2.43
0.86
-0.76
-2.44
-4.14
-5.84
-7.57
-9.38
-11.31
-13.30
-15.25
-17.00
-18.48
-19.71
-20.83
-22.12
-23.89
-26.40
-29.71
-33.53
-37.11
-39.37
-39.18
-35.77
-29.13
-20.03
-9.89
-0.18
7.98
14.09
18.23
20.74
21.95
22.11
21.41
20.12
18.61
17.28
16.40
15.98
15.86
15.81
15.66
15.40
15.13
15.02
15.15
15.51
15.95
16.23
16.04
15.15
13.49
11.17
8.49
5.83
3.53
1.75
0.46
-0.58
-1.69
-3.16
-5.16
-7.67
-10.48
-13.28
-15.74
-17.64
-18.93
-19.81
-20.67
-21.97
-24.10
-27.15
-30.78
-34.18
-36.21
-35.76
-32.18
-25.54
-16.68
-6.98
2.12
9.58
14.95
18.36
20.24
21.04
21.07
20.52
19.55
18.37
17.27
16.47
16.05
15.87
15.67
15.25
14.51
13.60
12.79
12.37
12.44
12.86
13.29
13.30
12.59
11.08
8.94
6.51
4.11
1.97
0.12
-1.56
-3.25
-5.16
-7.36
-9.80
-12.33
-14.70
-16.70
-18.23
-19.37
-20.32
-21.46
-23.19
-25.78
-29.28
-33.27
-36.89
-38.93
-38.21
-34.04
-26.56
-16.78
-6.31
3.25
10.75
15.85
18.85
20.40
21.09
21.23
20.91
20.16
19.07
17.91
16.98
16.48
16.43
16.65
16.89
16.92
16.68
16.28
15.90
15.70
15.72
15.84
15.80
15.33
14.22
12.44
10.18
7.74
5.47
3.59
2.10
0.85
-0.43
-2.02
-4.07
-6.55
-9.30
-12.06
-14.54
-16.54
-17.95
-18.86
-19.51
-20.29
-21.64
-23.97
-27.44
-31.72
-36.00
-39.02
-39.48
-36.50
-30.01
-20.84
-10.51
-0.61
7.58
13.49
17.22
19.25
20.12
20.25
19.86
19.13
18.25
17.45
16.96
16.87
17.10
17.44
17.61
17.43
16.89
16.14
15.45
15.03
14.96
15.13
15.28
15.13
14.43
13.13
11.32
9.25
7.21
5.39
3.89
2.61
1.35
-0.11
-1.99
-4.31
-6.97
-9.69
-12.13
-14.01
-15.26
-16.01
-16.58
-17.36
-18.74
-20.99
-24.20
-28.20
-32.47
-36.11
-38.01
-37.16
-33.05
-25.94
-16.85
-7.22
1.60
8.74
13.92
17.38
19.52
20.67
21.06
20.87
20.26
19.46
18.64
17.91
17.27
16.68
16.13
15.65
15.30
15.15
15.24
15.52
15.86
16.11
16.06
15.56
14.52
12.98
11.09
9.04
7.02
5.16
3.46
1.78
-0.05
-2.24
-4.90
-8.00
-11.30
-14.42
-16.94
-18.60
-19.40
-19.70
-20.10
-21.23
-23.55
-27.12
-31.45
-35.55
-38.16
-38.11
-34.70
-28.01
-18.91
-8.78
0.88
8.91
14.72
18.32
20.08
20.58
20.32
19.75
19.19
18.86
18.83
19.04
19.28
19.30
18.91
18.08
16.94
15.72
14.72
14.16
14.12
14.52
15.09
15.48
15.31
14.36
12.57
10.12
7.36
4.69
2.40
0.61
-0.78
-2.06
-3.56
-5.54
-8.04
-10.89
-13.74
-16.22
-18.06
-19.25
-20.01
-20.78
-22.03
-24.17
-27.35
-31.35
-35.51
-38.81
-40.07
-38.33
-33.21
-25.15
-15.25
-4.98
4.31
11.70
16.90
20.04
21.53
21.86
21.48
20.80
20.13
19.65
19.37
19.15
18.85
18.41
17.87
17.36
17.01
16.84
16.82
16.87
16.94
17.00
16.96
16.74
16.15
15.04
13.31
10.98
8.23
5.34
2.66
0.47
-1.11
-2.16
-3.01
-4.05
-5.64
-7.88
-10.59
-13.35
-15.76
-17.54
-18.76
-19.73
-20.86
-22.54
-24.99
-28.27
-32.17
-36.21
-39.59
-41.27
-40.25
-35.88
-28.22
-18.09
-6.95
3.61
12.28
18.37
21.85
23.19
23.07
22.14
20.90
19.69
18.67
17.91
17.43
17.20
17.17
17.30
17.47
17.60
17.59
17.44
17.22
17.03
16.92
16.77
16.34
15.32
13.54
11.02
8.07
5.14
2.65
0.84
-0.33
-1.16
-2.08
-3.47
-5.55
-8.27
-11.34
-14.33
-16.84
-18.62
-19.74
-20.51
-21.42
-22.89
-25.22
-28.37
-31.96
-35.25
-37.27
-37.05
-33.89
-27.66
-18.94
-8.93
0.92
9.35
15.58
19.53
21.58
22.34
22.32
21.84
21.02
19.92
18.65
17.38
16.30
15.47
14.87
14.38
13.88
13.36
12.94
12.74
12.83
13.11
13.33
13.15
12.31
10.75
8.62
6.24
3.90
1.75
-0.25
-2.31
-4.63
-7.32
-10.28
-13.22
-15.79
-17.69
-18.85
-19.44
-19.94
-20.90
-22.79
-25.78
-29.59
-33.45
-36.22
-36.73
-34.14
-28.28
-19.77
-9.85
0.00
8.51
14.90
19.01
21.11
21.70
21.33
20.46
19.45
18.55
17.88
17.39
16.96
16.42
15.70
14.84
14.00
13.33
12.90
12.76
12.85
13.10
13.37
13.46
13.10
12.05
10.24
7.83
5.18
2.71
0.67
-0.92
-2.32
-3.87
-5.87
-8.36
-11.15
-13.92
-16.33
-18.19
-19.51
-20.50
-21.46
-22.78
-24.80
-27.72
-31.47
-35.53
-38.94
-40.52
-39.16
-34.28
-26.16
-15.86
-4.95
4.98
12.82
18.11
21.05
22.21
22.27
21.80
21.17
20.54
19.95
19.38
18.81
18.27
17.83
17.54
17.41
17.37
17.34
17.22
17.01
16.74
16.46
16.16
15.74
15.07
14.02
12.56
10.74
8.72
6.64
4.60
2.68
0.86
-0.88
-2.60
-4.40
-6.39
-8.63
-11.09
-13.60
-15.94
-17.86
-19.26
-20.24
-21.11
-22.27
-24.09
-26.80
-30.38
-34.52
-38.58
-41.62
-42.57
-40.47
-34.91
-26.21
-15.48
-4.34
5.60
13.26
18.31
21.11
22.37
22.79
22.73
22.30
21.47
20.32
19.06
18.01
17.38
17.20
17.29
17.35
17.18
16.72
16.08
15.46
15.02
14.80
14.67
14.38
13.63
12.24
10.18
7.68
5.12
2.91
1.28
0.16
-0.80
-2.07
-3.98
-6.57
-9.54
-12.43
-14.82
-16.50
-17.54
-18.24
-19.06
-20.45
-22.73
-26.03
-30.11
-34.29
-37.49
-38.53
-36.46
-30.94
-22.46
-12.22
-1.81
7.35
14.32
18.85
21.22
22.04
21.92
21.32
20.51
19.62
18.70
17.79
16.91
16.12
15.45
14.91
14.52
14.28
14.18
14.16
14.11
13.88
13.35
12.44
11.23
9.80
8.23
6.49
4.51
2.18
-0.51
-3.43
-6.38
-9.16
-11.69
-13.97
-16.08
-18.07
-19.98
-21.89
-24.03
-26.68
-29.99
-33.73
-37.14
-39.00
-38.07
-33.61
-25.75
-15.54
-4.62
5.30
13.06
18.19
20.95
21.96
21.96
21.50
20.92
20.37
19.88
19.43
19.01
18.57
18.06
17.45
16.72
15.93
15.16
14.57
14.27
14.28
14.43
14.40
13.83
12.47
10.31
7.65
4.92
2.51
0.56
-1.08
-2.73
-4.72
-7.17
-9.94
-12.72
-15.20
-17.18
-18.70
-20.00
-21.44
-23.36
-26.04
-29.52
-33.46
-37.13
-39.47
-39.32
-35.89
-29.07
-19.57
-8.80
1.63
10.37
16.71
20.65
22.70
23.51
23.65
23.41
22.90
22.16
21.28
20.41
19.71
19.26
19.06
19.00
18.98
18.91
18.78
18.60
18.37
18.07
17.68
17.16
16.45
15.44
13.99
12.02
9.58
6.88
4.24
1.97
0.18
-1.27
-2.74
-4.56
-6.92
-9.74
-12.72
-15.51
-17.86
-19.69
-21.05
-22.14
-23.20
-24.51
-26.37
-29.02
-32.52
-36.52
-40.25
-42.56
-42.26
-38.50
-31.22
-21.20
-9.89
1.03
10.17
16.78
20.82
22.83
23.51
23.53
23.29
22.98
22.62
22.23
21.82
21.42
21.00
20.51
19.88
19.05
18.05
17.02
16.15
15.64
15.53
15.69
15.79
15.42
14.25
12.21
9.53
6.67
4.09
2.06
0.49
-0.98
-2.79
-5.24
-8.24
-11.44
-14.36
-16.59
-18.05
-18.92
-19.58
-20.48
-22.01
-24.45
-27.83
-31.90
-35.98
-39.05
-39.91
-37.59
-31.69
-22.72
-11.95
-1.03
8.46
15.58
20.09
22.39
23.21
23.20
22.83
22.28
21.56
20.70
19.75
18.84
18.09
17.59
17.27
17.05
16.75
16.30
15.66
14.89
14.03
13.07
11.92
10.49
8.71
6.64
4.41
2.14
-0.12
-2.40
-4.79
-7.33
-9.96
-12.56
-14.97
-17.09
-18.95
-20.68
-22.53
-24.79
-27.67
-31.20
-35.03
-38.43
-40.34
-39.65
-35.63
-28.20
-18.12
-6.76
4.21
13.35
19.74
23.19
24.09
23.22
21.48
19.57
17.90
16.59
15.52
14.53
13.52
12.51
11.64
11.09
10.91
11.09
11.48
11.89
12.12
12.00
11.42
10.32
8.74
6.80
4.62
2.31
-0.09
-2.58
-5.14
-7.71
-10.15
-12.32
-14.11
-15.54
-16.76
-17.99
-19.46
-21.37
-23.87
-26.98
-30.52
-33.93
-36.33
-36.68
-34.12
-28.37
-19.96
-10.08
-0.24
8.20
14.47
18.45
20.57
21.47
21.73
21.71
21.50
21.10
20.46
19.63
18.75
17.99
17.52
17.33
17.34
17.33
17.13
16.63
15.83
14.78
13.54
12.14
10.58
8.92
7.20
5.52
3.92
2.35
0.70
-1.20
-3.45
-6.06
-8.86
-11.61
-14.04
-15.97
-17.39
-18.49
-19.63
-21.26
-23.74
-27.13
-31.03
-34.52
-36.40
-35.54
-31.37
-24.15
-14.98
-5.39
3.14
9.70
14.07
16.60
17.85
18.31
18.24
17.77
17.00
16.14
15.44
15.04
14.96
15.05
15.09
14.91
14.43
13.75
12.99
12.33
11.85
11.53
11.24
10.76
9.88
8.43
6.39
3.85
1.05
-1.75
-4.32
-6.52
-8.36
-9.94
-11.46
-13.17
-15.35
-18.19
-21.70
-25.60
-29.24
-31.68
-31.96
-29.46
-24.12
-16.60
-8.08
0.15
7.06
12.18
15.57
17.62
18.82
19.50
19.77
19.65
19.14
18.30
17.30
16.33
15.56
15.05
14.80
14.72
14.69
14.61
14.41
14.01
13.33
12.28
10.77
8.83
6.53
4.04
1.57
-0.77
-2.87
-4.69
-6.21
-7.46
-8.55
-9.64
-10.97
-12.78
-15.25
-18.49
-22.44
-26.88
-31.33
-35.05
-37.12
-36.64
-33.08
-26.55
-17.81
-8.14
1.10
8.81
14.48
18.14
20.19
21.21
21.69
21.98
22.20
22.35
22.33
22.06
21.51
20.72
19.81
18.83
17.84
16.84
15.87
15.01
14.36
13.99
13.88
13.82
13.48
12.54
10.79
8.26
5.20
2.03
-0.87
-3.27
-5.21
-6.99
-9.02
-11.63
-14.91
-18.66
-22.48
-25.99
-29.00
-31.56
-33.95
-36.50
-39.50
-43.12
-47.46
-52.45
-57.80
-62.83
-66.51
-67.55
-65.03
-58.95
-50.44
-41.40
-33.80
-29.09
-27.74
-29.34
-32.75
-36.81
-40.79
-44.55
-48.33
-52.45
-57.11
-62.28
-67.74
-72.85
-77.18
-80.77
-83.96
-86.74
-88.28
-87.15
-81.99
-72.43
-58.58
-42.12
-26.06
-13.68
-6.84
-5.33
-7.45
-11.06
-14.24
-13.26
-5.26
10.36
31.44
54.31
75.30
91.58
101.67
105.74
108.78
115.36
126.69
139.90
150.80
156.85
158.18
157.08
156.98
166.01
190.56
232.21
286.88
347.57
407.04
458.50
496.08
488.09
418.55
298.75
162.92
43.46
-45.43
-105.75
-146.29
-175.11
-196.38
-205.59
-200.55
-183.81
-163.30
-147.69
-141.77
-145.34
-154.79
-165.47
-170.42
-166.22
-153.56
-137.11
-121.81
-110.10
-101.75
-95.32
-89.46
-81.55
-70.53
-57.43
-45.08
-36.00
-30.79
-28.38
-27.04
-25.36
-21.79
-15.96
-8.64
-1.46
4.32
8.55
11.94
15.33
19.09
23.33
27.58
31.09
33.03
32.89
30.80
27.37
23.56
20.53
19.41
21.06
25.75
32.93
41.22
48.79
53.86
55.21
52.39
45.74
36.17
24.89
13.16
2.11
-7.33
-14.55
-19.26
-21.60
-21.98
-21.05
-19.48
-17.85
-16.53
-15.72
-15.45
-15.65
-16.30
-17.48
-19.29
-21.81
-24.91
-28.15
-30.88
-32.37
-32.07
-29.78
-25.77
-20.63
-15.19
-10.23
-6.38
-3.92
-2.84
-2.79
-3.28
-3.83
-4.06
-3.85
-3.21
-2.22
-0.95
0.63
2.53
4.70
6.88
8.71
9.76
9.74
8.63
6.65
4.20
1.66
-0.70
-2.83
-4.74
-6.49
-8.04
-9.26
-10.00
-10.12
-9.62
-8.61
-7.33
-6.12
-5.37
-5.40
-6.28
-7.88
-9.78
-11.48
-12.51
-12.56
-11.52
-9.38
-6.28
-2.44
1.77
5.91
9.50
12.17
13.78
14.44
14.39
13.88
13.04
11.93
10.53
8.88
7.07
5.24
3.56
2.22
1.34
0.98
1.12
1.62
2.24
2.76
2.97
2.77
2.14
1.10
-0.25
-1.77
-3.30
-4.68
-5.84
-6.85
-7.91
-9.20
-10.73
-12.24
-13.26
-13.33
-12.18
-9.99
-7.25
-4.58
-2.45
-0.96
0.11
1.17
2.59
4.47
6.70
8.92
10.82
12.15
12.84
12.96
12.64
12.03
11.26
10.41
9.54
8.66
7.78
6.93
6.13
5.45
4.89
4.42
3.92
3.22
2.21
0.86
-0.71
-2.35
-3.93
-5.43
-6.98
-8.71
-10.70
-12.88
-15.05
-16.98
-18.47
-19.46
-19.93
-19.92
-19.38
-18.18
-16.19
-13.34
-9.74
-5.66
-1.54
2.20
5.23
7.36
8.56
8.93
8.67
8.08
7.57
7.68
8.89
11.47
15.33
19.99
24.62
28.31
30.35
30.49
28.95
26.32
23.31
20.49
18.19
16.46
15.20
14.21
13.26
12.10
10.41
7.94
4.48
-0.09
-5.84
-12.79
-20.81
-29.53
-38.21
-45.90
-51.72
-55.16
-56.32
-55.79
-54.35
-52.54
-50.49
-47.99
-44.66
-40.23
-34.57
-27.68
-19.61
-10.54
-0.82
8.83
17.40
23.78
26.99
26.58
22.78
16.49
9.12
2.25
-2.77
-5.04
-4.28
-0.80
4.69
11.26
17.97
24.02
28.84
32.08
33.66
33.69
32.45
30.32
27.75
25.14
22.78
20.84
19.27
17.89
16.41
14.59
12.34
9.78
7.08
4.31
1.28
-2.51
-7.67
-14.56
-22.95
-31.80
-39.45
-44.13
-44.45
-39.91
-30.97
-18.83
-5.08
8.70
21.10
30.91
37.10
38.93
36.05
28.76
18.07
5.64
-6.62
-16.88
-23.88
-27.05
-26.50
-22.88
-17.14
-10.30
-3.31
2.98
7.88
10.91
11.82
10.66
7.73
3.54
-1.25
-5.97
-10.07
-13.19
-15.22
-16.23
-16.43
-16.09
-15.47
-14.87
-14.63
-15.06
-16.40
-18.65
-21.51
-24.47
-26.93
-28.42
-28.76
-27.99
-26.27
-23.74
-20.47
-16.55
-12.19
-7.77
-3.71
-0.34
2.28
4.28
5.89
7.25
8.33
9.05
9.37
9.43
9.49
9.85
10.69
12.01
13.62
15.27
16.68
17.60
17.78
17.07
15.37
12.81
9.69
6.48
3.66
1.57
0.36
-0.11
-0.11
0.00
-0.09
-0.63
-1.78
-3.57
-5.97
-8.85
-12.00
-15.13
-17.91
-20.03
-21.23
-21.38
-20.46
-18.57
-15.94
-12.84
-9.50
-6.13
-2.79
0.45
3.55
6.37
8.72
10.44
11.46
11.90
12.00
12.03
12.21
12.63
13.25
13.97
14.67
15.25
15.61
15.64
15.26
14.41
13.09
11.41
9.56
7.76
6.26
5.20
4.61
4.38
4.24
3.88
3.01
1.51
-0.57
-2.99
-5.44
-7.66
-9.55
-11.13
-12.58
-14.10
-15.83
-17.76
-19.73
-21.41
-22.40
-22.32
-20.86
-17.93
-13.62
-8.25
-2.29
3.73
9.32
14.14
18.02
20.93
22.96
24.20
24.75
24.70
24.20
23.47
22.80
22.46
22.58
23.11
23.84
24.48
24.82
24.77
24.39
23.76
22.98
22.09
21.09
19.97
18.75
17.46
16.12
14.72
13.23
11.57
9.70
7.58
5.24
2.74
0.23
-2.17
-4.36
-6.40
-8.45
-10.73
-13.41
-16.50
-19.83
-23.02
-25.62
-27.22
-27.54
-26.49
-24.15
-20.78
-16.69
-12.24
-7.77
-3.56
0.19
3.34
5.82
7.66
8.96
9.85
10.50
10.99
11.40
11.71
11.96
12.18
12.41
12.65
12.87
12.98
12.89
12.57
12.07
11.45
10.78
10.01
9.06
7.82
6.23
4.32
2.19
-0.06
-2.31
-4.55
-6.73
-8.85
-10.89
-12.83
-14.71
-16.62
-18.64
-20.84
-23.12
-25.19
-26.62
-26.93
-25.77
-23.10
-19.18
-14.50
-9.59
-4.88
-0.63
3.05
6.17
8.70
10.65
11.99
12.75
13.03
12.98
12.76
12.53
12.39
12.33
12.27
12.09
11.70
11.10
10.35
9.60
8.93
8.37
7.82
7.14
6.22
5.03
3.60
1.99
0.24
-1.67
-3.80
-6.20
-8.85
-11.68
-14.57
-17.39
-20.05
-22.47
-24.51
-25.93
-26.37
-25.50
-23.11
-19.28
-14.39
-9.03
-3.78
0.95
4.95
8.24
10.90
12.97
14.43
15.26
15.54
15.49
15.40
15.55
16.08
16.93
17.89
18.71
19.19
19.29
19.12
18.86
18.65
18.54
18.42
18.11
17.44
16.35
14.92
13.31
11.71
10.21
8.77
7.32
5.76
4.06
2.28
0.47
-1.35
-3.27
-5.49
-8.19
-11.43
-15.03
-18.60
-21.60
-23.58
-24.27
-23.75
-22.28
-20.25
-17.96
-15.56
-13.09
-10.57
-8.11
-5.86
-4.05
-2.77
-2.00
-1.59
-1.30
-0.99
-0.58
-0.09
0.43
0.98
1.60
2.35
3.30
4.44
5.71
6.99
8.09
8.83
9.04
8.65
7.67
6.20
4.41
2.51
0.65
-1.04
-2.49
-3.71
-4.72
-5.64
-6.64
-7.95
-9.75
-12.13
-14.99
-18.02
-20.77
-22.75
-23.55
-22.97
-21.02
-17.91
-14.00
-9.69
-5.42
-1.55
1.70
4.28
6.31
7.98
9.46
10.81
11.97
12.80
13.26
13.37
13.28
13.14
13.06
13.09
13.21
13.39
13.58
13.74
13.74
13.45
12.77
11.69
10.34
8.91
7.62
6.52
5.55
4.51
3.24
1.62
-0.28
-2.37
-4.50
-6.56
-8.54
-10.44
-12.33
-14.26
-16.28
-18.47
-20.85
-23.34
-25.70
-27.51
-28.29
-27.65
-25.41
-21.69
-16.87
-11.47
-6.00
-0.90
3.58
7.30
10.21
12.36
13.87
14.90
15.64
16.29
16.98
17.73
18.51
19.23
19.81
20.19
20.42
20.56
20.69
20.86
21.08
21.29
21.40
21.36
21.13
20.68
19.97
19.00
17.78
16.33
14.73
13.05
11.38
9.78
8.31
6.98
5.76
4.56
3.25
1.73
-0.07
-2.11
-4.30
-6.52
-8.69
-10.80
-12.90
-15.07
-17.38
-19.88
-22.60
-25.43
-28.15
-30.36
-31.60
-31.45
-29.74
-26.58
-22.38
-17.70
-13.06
-8.85
-5.28
-2.39
-0.14
1.58
2.90
3.99
4.97
5.92
6.87
7.78
8.62
9.35
9.96
10.49
10.93
11.32
11.64
11.88
12.00
11.92
11.56
10.81
9.62
8.03
6.16
4.25
2.53
1.14
0.05
-0.93
-2.06
-3.55
-5.40
-7.47
-9.52
-11.37
-12.99
-14.51
-16.13
-18.06
-20.35
-22.96
-25.77
-28.55
-31.00
-32.76
-33.42
-32.63
-30.27
-26.49
-21.68
-16.41
-11.21
-6.48
-2.40
1.01
3.85
6.23
8.20
9.83
11.17
12.28
13.23
14.04
14.71
15.17
15.42
15.46
15.37
15.22
15.09
14.99
14.86
14.64
14.27
13.72
12.98
12.08
11.05
9.87
8.54
7.05
5.40
3.58
1.61
-0.48
-2.70
-5.04
-7.50
-10.06
-12.65
-15.18
-17.56
-19.72
-21.70
-23.61
-25.63
-27.96
-30.67
-33.63
-36.50
-38.78
-39.91
-39.47
-37.31
-33.53
-28.50
-22.69
-16.55
-10.42
-4.53
1.00
6.10
10.74
14.90
18.53
21.56
23.90
25.53
26.51
26.98
27.16
27.21
27.19
27.06
26.75
26.19
25.42
24.56
23.72
22.96
22.24
21.47
20.55
19.48
18.32
17.12
15.93
14.70
13.32
11.67
9.70
7.46
5.08
2.74
0.55
-1.48
-3.46
-5.50
-7.59
-9.63
-11.39
-12.73
-13.68
-14.54
-15.71
-17.54
-20.09
-23.04
-25.82
-27.80
-28.46
-27.61
-25.28
-21.71
-17.20
-12.08
-6.69
-1.41
3.39
7.43
10.58
12.92
14.62
15.91
16.98
17.91
18.74
19.48
20.14
20.70
21.16
21.47
21.58
21.51
21.29
21.04
20.83
20.69
20.55
20.28
19.78
18.98
17.93
16.71
15.42
14.11
12.80
11.44
9.98
8.39
6.63
4.68
2.55
0.26
-2.15
-4.57
-6.88
-9.01
-10.90
-12.60
-14.23
-15.97
-17.99
-20.38
-23.07
-25.82
-28.24
-29.87
-30.33
-29.37
-26.95
-23.25
-18.62
-13.51
-8.44
-3.84
-0.03
2.85
4.82
6.06
6.81
7.32
7.78
8.30
8.87
9.44
9.89
10.16
10.25
10.20
10.08
9.95
9.86
9.80
9.75
9.66
9.42
8.95
8.15
7.01
5.60
4.05
2.50
0.98
-0.59
-2.36
-4.46
-6.85
-9.38
-11.78
-13.85
-15.55
-17.03
-18.57
-20.42
-22.69
-25.26
-27.82
-29.87
-30.94
-30.66
-28.82
-25.48
-20.91
-15.59
-10.06
-4.85
-0.32
3.32
6.05
8.00
9.32
10.17
10.69
10.97
11.12
11.23
11.37
11.52
11.62
11.57
11.31
10.88
10.38
9.97
9.74
9.69
9.70
9.60
9.25
8.55
7.54
6.33
5.01
3.68
2.30
0.78
-1.00
-3.07
-5.37
-7.73
-10.04
-12.24
-14.44
-16.81
-19.42
-22.21
-24.92
-27.14
-28.47
-28.59
-27.38
-24.89
-21.33
-17.03
-12.35
-7.67
-3.31
0.52
3.71
6.23
8.14
9.54
10.52
11.21
11.71
12.10
12.42
12.69
12.88
12.98
12.97
12.89
12.79
12.70
12.60
12.41
12.00
11.28
10.28
9.09
7.88
6.76
5.72
4.66
3.39
1.81
-0.12
-2.33
-4.70
-7.05
-9.24
-11.20
-12.90
-14.46
-16.05
-17.89
-20.10
-22.67
-25.34
-27.66
-29.08
-29.08
-27.36
-23.92
-19.08
-13.45
-7.73
-2.53
1.80
5.23
7.96
10.24
12.22
13.88
15.14
15.91
16.28
16.46
16.67
17.03
17.48
17.88
18.05
18.00
17.84
17.72
17.73
17.77
17.62
17.08
16.06
14.63
13.02
11.44
10.01
8.72
7.44
6.01
4.32
2.36
0.22
-1.98
-4.10
-6.05
-7.85
-9.59
-11.44
-13.62
-16.22
-19.19
-22.21
-24.83
-26.45
-26.57
-24.93
-21.58
-16.89
-11.49
-6.05
-1.16
2.83
5.83
8.00
9.56
10.75
11.75
12.64
13.46
14.25
15.07
16.01
17.06
18.15
19.15
19.88
20.24
20.26
20.07
19.84
19.69
19.63
19.53
19.25
18.65
17.70
16.47
15.07
13.60
12.09
10.50
8.77
6.84
4.72
2.46
0.16
-2.01
-3.92
-5.54
-6.93
-8.31
-9.95
-12.07
-14.71
-17.68
-20.56
-22.82
-23.98
-23.73
-22.01
-19.02
-15.12
-10.81
-6.55
-2.67
0.65
3.42
5.74
7.71
9.36
10.64
11.48
11.86
11.84
11.61
11.36
11.24
11.29
11.45
11.60
11.63
11.48
11.14
10.66
10.08
9.41
8.61
7.58
6.23
4.56
2.67
0.73
-1.10
-2.73
-4.18
-5.59
-7.07
-8.73
-10.56
-12.56
-14.70
-16.99
-19.44
-22.00
-24.51
-26.66
-28.10
-28.46
-27.53
-25.30
-21.98
-17.95
-13.60
-9.30
-5.27
-1.65
1.53
4.20
6.32
7.81
8.64
8.87
8.68
8.31
8.00
7.91
8.05
8.34
8.62
8.78
8.79
8.70
8.63
8.63
8.72
8.81
8.73
8.31
7.43
6.05
4.26
2.23
0.13
-1.92
-3.93
-5.99
-8.19
-10.60
-13.18
-15.78
-18.14
-19.94
-20.83
-20.53
-18.94
-16.17
-12.60
-8.68
-4.87
-1.44
1.54
4.14
6.43
8.43
10.04
11.15
11.69
11.72
11.37
10.87
10.41
10.14
10.12
10.27
10.48
10.57
10.45
10.10
9.59
9.01
8.41
7.75
6.94
5.88
4.59
3.13
1.65
0.23
-1.12
-2.48
-3.97
-5.63
-7.51
-9.55
-11.77
-14.17
-16.77
-19.50
-22.11
-24.22
-25.39
-25.24
-23.63
-20.64
-16.63
-12.06
-7.39
-2.98
0.94
4.27
7.03
9.29
11.13
12.61
13.78
14.74
15.58
16.45
17.42
18.44
19.34
19.92
20.04
19.71
19.12
18.58
18.33
18.44
18.78
19.04
18.91
18.18
16.88
15.22
13.45
11.80
10.35
8.98
7.51
5.80
3.82
1.70
-0.39
-2.32
-4.10
-5.87
-7.78
-9.96
-12.41
-15.03
-17.70
-20.26
-22.56
-24.41
-25.55
-25.68
-24.58
-22.19
-18.73
-14.65
-10.51
-6.78
-3.69
-1.21
0.84
2.66
4.32
5.79
6.96
7.77
8.29
8.63
8.91
9.17
9.37
9.41
9.24
8.91
8.50
8.11
7.79
7.52
7.22
6.81
6.25
5.52
4.62
3.58
2.38
1.03
-0.52
-2.29
-4.31
-6.52
-8.81
-11.01
-12.99
-14.73
-16.31
-17.94
-19.80
-21.95
-24.22
-26.26
-27.60
-27.84
-26.71
-24.23
-20.61
-16.23
-11.49
-6.73
-2.23
1.79
5.17
7.74
9.43
10.24
10.33
9.92
9.29
8.70
8.34
8.29
8.54
8.99
9.48
9.83
9.92
9.72
9.29
8.77
8.27
7.79
7.27
6.56
5.52
4.09
2.25
0.11
-2.20
-4.50
-6.65
-8.58
-10.34
-12.10
-14.08
-16.47
-19.29
-22.38
-25.36
-27.71
-28.99
-28.84
-27.15
-24.03
-19.83
-15.01
-10.11
-5.63
-1.89
0.98
3.09
4.68
6.05
7.42
8.85
10.29
11.56
12.50
12.99
13.05
12.80
12.42
12.06
11.81
11.63
11.44
11.18
10.82
10.39
9.96
9.52
9.02
8.36
7.47
6.34
5.00
3.49
1.85
0.11
-1.70
-3.51
-5.23
-6.77
-8.17
-9.55
-11.12
-13.07
-15.47
-18.11
-20.56
-22.20
-22.37
-20.62
-16.84
-11.37
-4.93
1.52
7.12
11.30
13.96
15.42
16.20
16.83
17.62
18.66
19.92
21.31
22.80
24.39
26.08
27.90
29.92
32.24
34.86
37.61
40.01
41.42
41.22
39.17
35.51
30.96
26.41
22.65
20.12
18.90
18.83
19.59
20.80
21.93
22.39
21.58
19.11
15.04
9.92
4.65
0.12
-3.09
-4.95
-5.93
-6.69
-7.72
-9.10
-10.47
-11.26
-11.03
-9.72
-7.65
-5.31
-3.08
-0.94
1.47
4.66
8.94
14.17
19.78
24.99
29.19
32.20
34.20
35.53
36.37
36.63
36.05
34.49
32.15
29.55
27.30
25.75
24.79
23.91
22.52
20.27
17.21
13.69
10.14
6.87
3.98
1.37
-1.08
-3.55
-6.16
-9.07
-12.32
-15.82
-19.25
-22.13
-24.02
-24.74
-24.47
-23.73
-23.18
-23.44
-24.87
-27.55
-31.27
-35.62
-40.01
-43.72
-46.01
-46.28
-44.28
-40.22
-34.81
-29.02
-23.77
-19.65
-16.80
-14.96
-13.74
-12.86
-12.25
-12.07
-12.52
-13.62
-15.15
-16.67
-17.68
-17.86
-17.18
-15.95
-14.68
-13.90
-13.94
-14.84
-16.31
-17.89
-19.11
-19.70
-19.68
-19.41
-19.41
-20.10
-21.62
-23.81
-26.28
-28.62
-30.63
-32.35
-33.95
-35.59
-37.34
-39.15
-40.97
-42.66
-44.03
-44.60
-43.64
-40.33
-34.13
-25.11
-14.11
-2.52
8.08
16.45
21.98
24.80
25.53
24.97
23.82
22.52
21.23
19.92
18.50
16.96
15.34
13.78
12.42
11.34
10.57
10.03
9.63
9.32
9.04
8.73
8.31
7.63
6.48
4.73
2.35
-0.50
-3.56
-6.53
-9.25
-11.72
-14.12
-16.60
-19.24
-21.92
-24.44
-26.70
-28.83
-31.16
-33.96
-37.16
-40.08
-41.55
-40.26
-35.34
-26.85
-15.80
-3.94
6.88
15.25
20.60
23.15
23.68
23.07
22.03
20.97
20.09
19.51
19.34
19.66
20.43
21.42
22.22
22.42
21.80
20.42
18.62
16.92
15.83
15.60
16.17
17.09
17.72
17.47
16.06
13.59
10.49
7.40
4.83
3.00
1.71
0.52
-0.99
-3.14
-6.03
-9.57
-13.54
-17.57
-21.24
-24.38
-26.93
-29.01
-31.03
-33.60
-37.25
-42.06
-47.42
-52.10
-55.17
-55.96
-54.31
-50.67
-45.96
-41.03
-36.27
-31.50
-26.35
-21.54
-17.88
-15.82
-15.28
-15.87
-17.02
-18.02
-18.23
-17.30
-16.70
-17.57
-20.11
-23.69
-27.62
-31.59
-35.67
-40.15
-45.52
-54.03
-66.63
-82.11
-97.42
-109.19
-114.78
-112.80
-103.11
-76.33
-31.75
22.42
73.29
111.44
133.94
142.41
140.32
131.54
119.90
105.83
89.82
73.21
57.72
44.38
33.26
24.02
16.37
11.33
8.22
6.69
6.88
9.04
12.90
17.67
22.51
26.98
30.99
33.62
34.47
33.82
32.40
30.92
29.78
29.13
28.94
29.08
28.83
27.74
25.83
23.49
21.16
19.17
17.67
16.66
16.04
15.38
14.35
12.85
11.01
9.09
7.37
6.05
5.17
4.59
4.00
3.12
1.74
-0.11
-2.26
-4.40
-6.25
-7.71
-8.89
-10.06
-11.51
-13.37
-15.51
-17.53
-18.91
-19.15
-18.00
-15.51
-12.02
-8.04
-4.06
-0.44
2.66
5.29
7.54
9.50
11.20
12.58
13.62
14.32
14.70
14.80
14.66
14.31
13.80
13.23
12.73
12.35
12.08
11.83
11.48
10.99
10.36
9.69
9.07
8.54
8.07
7.64
7.22
6.81
6.37
5.81
4.99
3.76
2.00
-0.28
-2.92
-5.65
-8.14
-10.17
-11.70
-12.87
-13.94
-15.07
-16.22
-17.09
-17.24
-16.27
-14.07
-10.85
-7.06
-3.18
0.45
3.72
6.63
9.21
11.42
13.14
14.30
14.90
15.10
15.17
15.35
15.79
16.49
17.29
17.99
18.40
18.46
18.18
17.66
16.97
16.13
15.12
13.88
12.50
11.13
10.03
9.38
9.24
9.49
9.88
10.12
10.02
9.48
8.55
7.31
5.87
4.30
2.65
0.93
-0.81
-2.50
-4.04
-5.34
-6.41
-7.34
-8.34
-9.54
-10.99
-12.44
-13.48
-13.63
-12.55
-10.26
-7.06
-3.51
-0.11
2.82
5.22
7.17
8.75
10.01
10.97
11.64
12.16
12.71
13.45
14.38
15.39
16.22
16.59
16.33
15.38
13.84
11.93
9.95
8.23
7.00
6.36
6.25
6.45
6.76
6.99
7.06
6.94
6.59
5.96
4.96
3.55
1.76
-0.31
-2.51
-4.69
-6.71
-8.47
-9.88
-10.96
-11.80
-12.58
-13.55
-14.90
-16.71
-18.85
-21.03
-22.87
-23.97
-24.01
-22.84
-20.51
-17.22
-13.34
-9.29
-5.47
-2.14
0.57
2.65
4.13
5.02
5.33
5.07
4.39
3.51
2.75
2.38
2.53
3.15
4.03
4.89
5.49
5.72
5.58
5.12
4.41
3.50
2.48
1.43
0.48
-0.29
-0.86
-1.31
-1.81
-2.53
-3.56
-4.87
-6.32
-7.70
-8.87
-9.73
-10.36
-10.92
-11.66
-12.78
-14.40
-16.42
-18.50
-20.17
-20.90
-20.29
-18.25
-14.96
-10.90
-6.61
-2.59
0.89
3.72
5.96
7.69
8.90
9.54
9.58
9.10
8.34
7.60
7.17
7.13
7.38
7.66
7.73
7.50
6.99
6.34
5.67
5.03
4.43
3.84
3.28
2.78
2.40
2.13
1.95
1.78
1.52
1.05
0.31
-0.77
-2.16
-3.73
-5.32
-6.72
-7.83
-8.68
-9.43
-10.35
-11.64
-13.29
-15.06
-16.48
-17.01
-16.26
-14.13
-10.85
-6.90
-2.87
0.76
3.71
5.88
7.36
8.30
8.86
9.15
9.31
9.43
9.61
9.89
10.25
10.64
10.93
10.99
10.73
10.13
9.27
8.34
7.53
7.03
6.89
7.03
7.27
7.39
7.24
6.81
6.24
5.75
5.50
5.54
5.70
5.75
5.42
4.58
3.27
1.68
0.05
-1.42
-2.67
-3.77
-4.92
-6.33
-8.14
-10.35
-12.77
-15.04
-16.70
-17.31
-16.56
-14.43
-11.19
-7.34
-3.45
0.05
2.89
5.05
6.63
7.76
8.58
9.16
9.55
9.80
9.93
9.90
9.67
9.19
8.50
7.73
7.06
6.65
6.57
6.75
7.02
7.21
7.15
6.74
5.96
4.84
3.50
2.04
0.61
-0.71
-1.93
-3.12
-4.41
-5.87
-7.49
-9.19
-10.80
-12.18
-13.25
-14.00
-14.55
-15.13
-16.00
-17.36
-19.21
-21.29
-23.11
-24.13
-23.90
-22.24
-19.30
-15.48
-11.29
-7.26
-3.77
-1.00
1.06
2.53
3.59
4.36
4.89
5.18
5.22
5.04
4.76
4.50
4.38
4.42
4.54
4.59
4.44
4.01
3.31
2.44
1.57
0.82
0.26
-0.17
-0.58
-1.14
-1.94
-2.98
-4.16
-5.36
-6.44
-7.32
-7.96
-8.42
-8.81
-9.32
-10.15
-11.43
-13.19
-15.27
-17.32
-18.93
-19.68
-19.28
-17.62
-14.79
-11.06
-6.85
-2.61
1.27
4.46
6.82
8.32
9.02
9.07
8.63
7.94
7.25
6.81
6.74
7.04
7.54
8.00
8.21
8.05
7.55
6.84
6.08
5.42
4.98
4.81
4.83
4.92
4.89
4.59
3.97
3.11
2.15
1.20
0.31
-0.61
-1.71
-3.08
-4.75
-6.61
-8.52
-10.36
-12.10
-13.79
-15.47
-17.09
-18.45
-19.19
-19.00
-17.67
-15.24
-11.99
-8.33
-4.66
-1.27
1.73
4.37
6.70
8.77
10.56
12.05
13.21
14.06
14.66
15.07
15.37
15.61
15.82
16.04
16.32
16.67
17.10
17.54
17.89
18.02
17.85
17.33
16.53
15.51
14.38
13.17
11.87
10.40
8.70
6.77
4.65
2.45
0.27
-1.84
-3.83
-5.65
-7.22
-8.44
-9.29
-9.88
-10.51
-11.51
-13.10
-15.24
-17.57
-19.51
-20.44
-19.98
-18.06
-14.92
-11.04
-6.94
-3.02
0.51
3.62
6.33
8.64
10.50
11.79
12.44
12.47
12.03
11.37
10.69
10.14
9.73
9.36
8.96
8.44
7.84
7.23
6.70
6.28
5.95
5.61
5.16
4.55
3.81
3.00
2.13
1.13
-0.12
-1.72
-3.63
-5.66
-7.53
-8.98
-9.94
-10.52
-11.02
-11.79
-13.07
-14.93
-17.19
-19.51
-21.43
-22.49
-22.34
-20.82
-18.04
-14.36
-10.30
-6.36
-2.92
-0.10
2.21
4.23
6.15
7.96
9.54
10.68
11.27
11.36
11.12
10.75
10.39
10.02
9.54
8.88
8.04
7.11
6.19
5.38
4.69
4.07
3.46
2.79
2.02
1.15
0.18
-0.87
-1.97
-3.12
-4.36
-5.74
-7.26
-8.91
-10.59
-12.20
-13.69
-15.10
-16.54
-18.03
-19.46
-20.53
-20.84
-20.08
-18.17
-15.29
-11.82
-8.20
-4.72
-1.49
1.56
4.53
7.38
9.95
11.99
13.31
13.86
13.82
13.49
13.16
13.01
13.02
13.09
13.07
12.96
12.85
12.88
13.12
13.47
13.72
13.63
13.04
11.99
10.62
9.12
7.65
6.25
4.86
3.42
1.90
0.33
-1.21
-2.61
-3.76
-4.61
-5.15
-5.44
-5.60
-5.83
-6.35
-7.33
-8.79
-10.54
-12.24
-13.44
-13.75
-12.94
-10.99
-8.10
-4.59
-0.81
2.91
6.34
9.33
11.86
13.94
15.64
17.00
18.01
18.57
18.58
18.04
17.06
15.87
14.73
13.81
13.14
12.63
12.16
11.64
11.07
10.51
10.03
9.61
9.19
8.71
8.14
7.51
6.87
6.30
5.79
5.26
4.57
3.55
2.12
0.32
-1.68
-3.63
-5.32
-6.64
-7.66
-8.61
-9.79
-11.42
-13.57
-16.09
-18.71
-21.02
-22.62
-23.16
-22.40
-20.28
-16.96
-12.82
-8.39
-4.30
-1.03
1.15
2.26
2.58
2.46
2.24
2.09
2.09
2.24
2.56
3.12
3.93
4.89
5.77
6.33
6.36
5.88
5.08
4.23
3.59
3.24
3.15
3.17
3.14
2.96
2.55
1.83
0.71
-0.89
-2.98
-5.44
-8.04
-10.51
-12.55
-13.92
-14.52
-14.39
-13.75
-12.98
-12.47
-12.54
-13.28
-14.53
-15.82
-16.60
-16.39
-14.99
-12.59
-9.65
-6.72
-4.21
-2.25
-0.68
0.77
2.29
3.89
5.41
6.63
7.42
7.84
8.08
8.38
8.87
9.56
10.29
10.86
11.08
10.87
10.26
9.33
8.21
6.99
5.76
4.57
3.56
2.81
2.40
2.28
2.30
2.22
1.84
1.06
-0.00
-1.13
-2.13
-2.90
-3.57
-4.33
-5.40
-6.88
-8.73
-10.79
-12.88
-14.80
-16.39
-17.44
-17.70
-16.96
-15.13
-12.30
-8.79
-5.01
-1.38
1.82
4.55
6.86
8.93
10.89
12.80
14.64
16.29
17.56
18.30
18.42
17.99
17.30
16.78
16.87
17.81
19.51
21.51
23.17
23.97
23.71
22.67
21.48
20.84
21.22
22.60
24.45
25.96
26.43
25.63
24.00
22.60
22.65
24.99
29.67
35.78
41.77
46.09
47.81
47.08
45.18
44.06
45.43
49.93
56.62
62.83
64.87
59.04
42.84
16.07
-18.43
-54.75
-84.87
-100.73
-96.89
-72.88
-33.97
10.28
49.32
75.27
85.34
81.84
70.06
55.30
40.90
27.88
16.06
5.46
-3.11
-8.45
-10.03
-8.68
-6.43
-5.54
-7.51
-12.47
-19.21
-25.90
-30.88
-33.18
-32.51
-28.90
-22.33
-12.62
0.30
15.96
33.06
49.62
63.52
73.13
77.73
77.44
72.80
64.33
52.37
37.18
19.28
-0.45
-20.89
-41.02
-60.13
-77.71
-93.16
-105.50
-113.52
-116.16
-113.14
-105.34
-94.67
-83.49
-73.77
-66.55
-61.72
-58.31
-55.03
-50.79
-45.05
-38.02
-30.51
-23.74
-18.91
-16.85
-17.75
-21.12
-25.96
-31.10
-35.51
-38.45
-39.54
-38.64
-35.78
-31.07
-24.76
-17.17
-8.76
-0.15
7.91
14.55
18.91
20.35
18.69
14.27
7.96
0.95
-5.61
-10.80
-14.14
-15.61
-15.58
-14.71
-13.64
-12.84
-12.38
-11.87
-10.65
-8.13
-4.10
1.12
6.90
12.57
17.73
22.30
26.25
29.37
31.10
30.74
27.75
22.02
14.00
4.47
-5.59
-15.30
-23.84
-30.48
-34.60
-35.78
-33.94
-29.41
-22.87
-15.12
-6.98
0.79
7.50
12.44
15.02
14.89
12.18
7.49
1.82
-3.81
-8.65
-12.43
-15.36
-17.80
-20.10
-22.35
-24.34
-25.69
-26.05
-25.19
-23.11
-20.03
-16.29
-12.27
-8.29
-4.59
-1.38
1.24
3.15
4.32
4.80
4.77
4.50
4.28
4.25
4.42
4.61
4.66
4.46
4.03
3.52
3.06
2.73
2.56
2.52
2.61
2.78
3.02
3.24
3.30
3.10
2.61
1.88
1.05
0.24
-0.50
-1.20
-1.95
-2.88
-4.03
-5.37
-6.79
-8.17
-9.41
-10.54
-11.66
-12.86
-14.17
-15.37
-16.09
-15.88
-14.45
-11.84
-8.39
-4.66
-1.18
1.75
4.12
6.16
8.16
10.28
12.48
14.51
16.06
16.87
16.90
16.30
15.37
14.40
13.61
13.09
12.86
12.85
13.05
13.39
13.76
14.02
14.01
13.65
12.97
12.10
11.12
10.07
8.91
7.58
6.11
4.60
3.20
1.96
0.82
-0.39
-1.83
-3.51
-5.32
-7.09
-8.67
-10.01
-11.18
-12.29
-13.42
-14.65
-16.04
-17.66
-19.50
-21.42
-23.12
-24.17
-24.19
-22.94
-20.49
-17.15
-13.43
-9.79
-6.56
-3.89
-1.78
-0.20
0.85
1.36
1.36
1.02
0.65
0.59
1.09
2.14
3.51
4.86
5.96
6.79
7.54
8.43
9.63
11.13
12.82
14.57
16.25
17.77
18.98
19.72
19.85
19.35
18.36
17.15
16.05
15.27
14.88
14.81
14.88
14.91
14.75
14.34
13.67
12.82
11.88
10.93
10.08
9.42
8.97
8.63
8.12
7.03
4.95
1.74
-2.39
-6.83
-10.78
-13.53
-14.70
-14.31
-12.59
-9.77
-5.96
-1.11
4.76
11.38
18.09
23.98
28.10
29.78
28.84
25.56
20.59
14.75
8.79
3.26
-1.47
-5.30
-8.21
-10.25
-11.45
-11.88
-11.66
-11.01
-10.23
-9.60
-9.32
-9.38
-9.60
-9.78
-9.77
-9.62
-9.52
-9.74
-10.47
-11.80
-13.59
-15.58
-17.39
-18.61
-18.88
-17.96
-15.80
-12.54
-8.50
-4.10
0.28
4.30
7.75
10.55
12.73
14.37
15.53
16.28
16.62
16.57
16.13
15.36
14.34
13.21
12.11
11.18
10.51
10.16
10.04
10.04
10.01
9.86
9.61
9.33
9.09
8.89
8.64
8.19
7.48
6.53
5.44
4.31
3.18
2.01
0.73
-0.64
-2.03
-3.27
-4.27
-5.07
-5.79
-6.66
-7.80
-9.21
-10.69
-11.90
-12.45
-12.02
-10.45
-7.77
-4.22
-0.16
3.97
7.79
11.00
13.48
15.22
16.34
16.95
17.16
17.03
16.55
15.73
14.58
13.11
11.32
9.22
6.83
4.28
1.76
-0.47
-2.25
-3.61
-4.81
-6.26
-8.26
-10.87
-13.72
-16.12
-17.34
-16.83
-14.43
-10.32
-4.96
1.13
7.38
13.21
18.02
21.18
22.25
21.10
18.03
13.69
8.84
4.09
-0.24
-4.12
-7.66
-10.98
-14.06
-16.77
-18.92
-20.31
-20.81
-20.35
-18.95
-16.71
-13.75
-10.31
-6.64
-3.06
0.14
2.70
4.54
5.71
6.40
6.82
7.12
7.33
7.36
7.13
6.63
5.99
5.40
4.98
4.76
4.66
4.53
4.30
4.01
3.78
3.72
3.86
4.09
4.26
4.19
3.81
3.13
2.26
1.30
0.28
-0.79
-1.99
-3.36
-4.86
-6.42
-7.87
-9.08
-9.97
-10.55
-10.95
-11.35
-11.96
-12.95
-14.40
-16.24
-18.22
-19.95
-20.99
-20.93
-19.52
-16.70
-12.67
-7.79
-2.55
2.51
6.87
10.15
12.22
13.22
13.52
13.62
13.89
14.49
15.30
16.09
16.69
17.09
17.49
18.13
19.15
20.41
21.63
22.43
22.59
22.12
21.24
20.26
19.39
18.74
18.23
17.77
17.24
16.48
15.27
13.25
10.11
5.71
0.25
-5.67
-11.27
-15.87
-19.16
-21.23
-22.39
-22.87
-22.64
-21.44
-18.99
-15.30
-10.76
-6.12
-2.14
0.68
2.23
2.81
2.83
2.63
2.33
1.84
1.02
-0.20
-1.72
-3.26
-4.51
-5.21
-5.27
-4.81
-4.08
-3.40
-3.00
-2.98
-3.25
-3.64
-4.03
-4.35
-4.59
-4.77
-4.87
-4.83
-4.59
-4.20
-3.79
-3.58
-3.75
-4.39
-5.42
-6.67
-7.94
-9.10
-10.15
-11.09
-11.96
-12.68
-13.14
-13.30
-13.24
-13.22
-13.57
-14.52
-16.03
-17.75
-19.09
-19.50
-18.62
-16.41
-13.16
-9.30
-5.31
-1.54
1.72
4.36
6.32
7.64
8.41
8.75
8.85
8.89
8.99
9.23
9.54
9.82
9.89
9.62
8.97
7.99
6.88
5.90
5.31
5.26
5.77
6.71
7.82
8.81
9.43
9.57
9.24
8.57
7.71
6.79
5.89
5.08
4.37
3.76
3.24
2.80
2.39
1.99
1.60
1.17
0.67
0.02
-0.85
-2.05
-3.64
-5.64
-8.00
-10.52
-12.88
-14.62
-15.30
-14.62
-12.54
-9.34
-5.52
-1.63
1.89
4.80
7.04
8.61
9.56
9.91
9.72
9.12
8.33
7.58
7.02
6.69
6.49
6.29
6.01
5.68
5.43
5.38
5.58
5.93
6.21
6.15
5.63
4.64
3.37
2.07
0.99
0.24
-0.18
-0.43
-0.70
-1.17
-1.92
-2.93
-4.14
-5.43
-6.65
-7.72
-8.53
-9.06
-9.36
-9.59
-9.94
-10.64
-11.78
-13.25
-14.77
-15.89
-16.21
-15.46
-13.62
-10.88
-7.53
-3.91
-0.25
3.24
6.43
9.14
11.28
12.71
13.45
13.58
13.24
12.59
11.71
10.64
9.37
7.99
6.68
5.64
5.10
5.10
5.50
6.02
6.38
6.37
5.99
5.38
4.76
4.27
3.94
3.68
3.34
2.77
1.92
0.81
-0.46
-1.77
-3.03
-4.21
-5.37
-6.68
-8.39
-10.82
-14.27
-18.82
-24.26
-29.99
-35.18
-38.92
-40.46
-39.42
-35.83
-30.02
-22.57
-14.17
-5.57
2.47
9.24
14.25
17.36
18.77
18.91
18.30
17.35
16.27
15.14
13.96
12.75
11.57
10.44
9.37
8.36
7.42
6.66
6.18
6.06
6.31
6.78
7.31
7.69
7.86
7.76
7.41
6.83
6.05
5.12
4.08
2.98
1.86
0.67
-0.63
-2.05
-3.58
-5.13
-6.58
-7.83
-8.82
-9.62
-10.36
-11.23
-12.40
-13.94
-15.67
-17.23
-18.11
-17.84
-16.15
-13.11
-9.08
-4.56
-0.13
3.77
6.87
9.10
10.57
11.53
12.26
12.99
13.77
14.47
14.83
14.68
14.04
13.24
12.73
12.86
13.75
15.20
16.81
18.18
19.06
19.39
19.25
18.73
17.88
16.73
15.30
13.65
11.94
10.32
8.92
7.73
6.70
5.68
4.52
3.11
1.38
-0.63
-2.79
-4.93
-6.81
-8.25
-9.21
-9.81
-10.34
-11.13
-12.44
-14.29
-16.47
-18.52
-19.94
-20.36
-19.59
-17.72
-14.99
-11.73
-8.29
-4.93
-1.82
0.94
3.33
5.36
7.03
8.30
9.09
9.37
9.14
8.47
7.51
6.43
5.43
4.65
4.17
3.98
4.02
4.19
4.42
4.66
4.91
5.17
5.37
5.47
5.38
5.14
4.85
4.66
4.68
4.95
5.42
5.99
6.64
7.43
8.44
9.72
11.27
13.05
14.95
16.85
18.58
19.95
20.73
20.72
19.89
18.35
16.38
14.26
12.20
10.25
8.30
6.20
3.83
1.15
-1.86
-5.17
-8.77
-12.53
-16.25
-19.59
-22.08
-23.34
-23.10
-21.38
-18.45
-14.77
-10.82
-6.97
-3.40
-0.13
2.86
5.55
7.81
9.46
10.34
10.37
9.59
8.15
6.17
3.81
1.19
-1.47
-3.93
-5.93
-7.32
-8.14
-8.62
-9.08
-9.76
-10.68
-11.74
-12.74
-13.55
-14.21
-14.83
-15.60
-16.63
-17.94
-19.51
-21.28
-23.10
-24.73
-25.83
-25.99
-24.93
-22.57
-19.16
-15.17
-11.14
-7.51
-4.49
-2.08
-0.17
1.41
2.77
3.93
4.88
5.60
6.04
6.20
6.11
5.83
5.49
5.21
5.07
5.12
5.33
5.70
6.19
6.82
7.55
8.30
8.90
9.19
9.09
8.62
7.93
7.15
6.38
5.60
4.71
3.62
2.28
0.78
-0.78
-2.27
-3.62
-4.83
-5.93
-6.96
-7.98
-9.05
-10.25
-11.66
-13.34
-15.29
-17.37
-19.33
-20.79
-21.35
-20.69
-18.64
-15.29
-11.00
-6.25
-1.58
2.56
5.90
8.37
9.98
10.85
11.11
10.93
10.43
9.76
9.05
8.38
7.77
7.27
6.91
6.73
6.77
7.02
7.42
7.88
8.29
8.60
8.79
8.80
8.57
8.02
7.14
5.98
4.67
3.29
1.90
0.42
-1.19
-2.92
-4.62
-6.03
-7.00
-7.51
-7.78
-8.15
-8.95
-10.37
-12.38
-14.73
-17.09
-19.03
-20.15
-20.13
-18.83
-16.27
-12.74
-8.69
-4.59
-0.87
2.25
4.74
6.74
8.39
9.83
11.08
12.05
12.62
12.67
12.15
11.16
9.91
8.65
7.58
6.79
6.25
5.86
5.50
5.15
4.79
4.46
4.16
3.82
3.37
2.74
1.94
0.96
-0.19
-1.49
-2.93
-4.46
-5.95
-7.32
-8.49
-9.52
-10.53
-11.71
-13.13
-14.78
-16.46
-17.82
-18.51
-18.18
-16.65
-13.92
-10.20
-5.91
-1.55
2.40
5.61
7.95
9.48
10.41
10.95
11.28
11.45
11.42
11.12
10.52
9.68
8.72
7.79
7.02
6.40
5.91
5.48
5.09
4.78
4.59
4.53
4.53
4.50
4.33
3.95
3.35
2.54
1.51
0.25
-1.20
-2.76
-4.27
-5.59
-6.61
-7.38
-8.04
-8.81
-9.90
-11.46
-13.53
-15.93
-18.34
-20.27
-21.28
-21.04
-19.47
-16.78
-13.34
-9.59
-5.86
-2.34
0.91
3.86
6.46
8.65
10.34
11.45
12.02
12.12
11.90
11.49
11.04
10.62
10.26
9.94
9.54
8.96
8.09
6.94
5.62
4.36
3.35
2.69
2.30
1.93
1.33
0.36
-0.96
-2.44
-3.91
-5.26
-6.59
-8.08
-9.90
-12.05
-14.34
-16.45
-18.08
-19.12
-19.74
-20.32
-21.31
-23.05
-25.62
-28.83
-32.29
-35.41
-37.45
-37.59
-35.03
-29.30
-20.51
-9.52
2.14
12.75
20.86
25.73
27.42
26.56
24.03
20.61
16.86
13.13
9.72
6.86
4.72
3.33
2.52
2.01
1.55
1.01
0.41
-0.10
-0.32
-0.01
0.99
2.77
5.29
8.32
11.49
14.40
16.70
18.26
19.09
19.27
18.82
17.65
15.65
12.84
9.46
6.06
3.30
1.77
1.74
3.11
5.41
7.94
9.97
10.91
10.44
8.60
5.84
2.93
0.90
0.80
3.49
9.49
18.75
30.59
43.77
56.67
67.67
75.49
79.43
79.43
75.96
69.76
61.66
52.40
42.56
32.45
22.16
11.56
0.52
-10.97
-22.57
-33.53
-42.87
-49.56
-52.85
-52.41
-48.39
-41.39
-32.38
-22.63
-13.56
-6.52
-2.47
-1.79
-4.19
-8.79
-14.44
-20.04
-24.79
-28.36
-30.79
-32.36
-33.33
-33.80
-33.68
-32.74
-30.73
-27.55
-23.25
-18.07
-12.41
-6.72
-1.48
2.91
6.18
8.30
9.39
9.75
9.71
9.51
9.31
9.18
9.15
9.21
9.34
9.44
9.34
8.91
8.08
6.97
5.82
4.92
4.42
4.32
4.39
4.32
3.87
3.00
1.87
0.87
0.44
0.97
2.68
5.49
9.08
12.86
16.20
18.59
19.77
19.82
19.09
18.01
16.93
16.10
15.56
15.33
15.38
15.64
16.02
16.34
16.45
16.26
15.72
14.85
13.62
11.94
9.76
7.08
4.10
1.13
-1.48
-3.52
-4.97
-5.95
-6.60
-6.95
-6.94
-6.55
-5.86
-5.08
-4.54
-4.47
-4.96
-5.90
-7.05
-8.20
-9.16
-9.87
-10.30
-10.41
-10.16
-9.57
-8.75
-7.89
-7.22
-6.90
-6.91
-7.10
-7.30
-7.39
-7.42
-7.62
-8.23
-9.46
-11.34
-13.72
-16.22
-18.36
-19.60
-19.55
-18.04
-15.26
-11.67
-7.92
-4.58
-2.00
-0.25
0.81
1.44
1.78
1.90
1.75
1.33
0.67
-0.06
-0.67
-0.99
-0.95
-0.61
-0.08
0.53
1.20
1.89
2.59
3.18
3.42
3.09
2.03
0.32
-1.78
-3.92
-5.80
-7.29
-8.42
-9.35
-10.23
-11.10
-11.85
-12.28
-12.20
-11.52
-10.33
-8.82
-7.25
-5.81
-4.63
-3.72
-3.06
-2.51
-1.77
-0.37
2.29
6.78
13.24
21.23
29.63
36.98
41.96
43.97
43.29
40.88
37.83
34.82
31.84
28.38
23.92
18.46
12.68
7.63
4.21
2.69
2.61
3.10
3.38
3.18
2.82
2.84
3.64
5.10
6.57
7.21
6.33
3.76
-0.18
-4.84
-9.57
-13.91
-17.69
-20.95
-23.73
-26.05
-27.83
-29.05
-29.79
-30.23
-30.67
-31.31
-32.16
-32.95
-33.20
-32.34
-30.00
-26.18
-21.27
-15.92
-10.83
-6.44
-2.89
-0.06
2.31
4.37
6.14
7.50
8.29
8.47
8.11
7.39
6.54
5.77
5.23
4.97
5.00
5.23
5.55
5.82
5.88
5.61
4.96
4.03
2.98
2.05
1.41
1.06
0.85
0.52
-0.14
-1.16
-2.42
-3.69
-4.71
-5.38
-5.75
-6.01
-6.42
-7.22
-8.55
-10.43
-12.65
-14.81
-16.39
-16.82
-15.75
-13.12
-9.23
-4.70
-0.20
3.67
6.56
8.40
9.31
9.52
9.22
8.51
7.44
6.03
4.39
2.71
1.25
0.16
-0.51
-0.93
-1.33
-1.92
-2.81
-3.87
-4.90
-5.65
-5.97
-5.93
-5.67
-5.42
-5.28
-5.22
-5.10
-4.75
-4.18
-3.55
-3.17
-3.27
-3.89
-4.80
-5.65
-6.13
-6.14
-5.75
-5.17
-4.62
-4.29
-4.34
-4.91
-6.09
-7.80
-9.69
-11.15
-11.49
-10.20
-7.17
-2.72
2.55
7.95
12.89
17.05
20.25
22.49
23.80
24.23
23.88
22.93
21.60
20.15
18.80
17.70
16.89
16.27
15.70
14.99
14.03
12.80
11.40
9.98
8.67
7.55
6.56
5.61
4.57
3.38
2.10
0.89
-0.13
-0.96
-1.73
-2.77
-4.41
-6.87
-10.15
-14.01
-18.04
-21.79
-24.94
-27.33
-29.03
-30.22
-31.12
-31.98
-33.05
-34.56
-36.59
-38.96
-41.16
-42.29
-41.37
-37.56
-30.50
-20.44
-8.24
4.91
17.69
28.91
37.61
43.20
45.51
44.86
41.97
37.79
33.24
28.94
25.14
21.82
18.83
16.08
13.60
11.47
9.74
8.35
7.14
6.00
4.92
4.01
3.37
3.01
2.78
2.44
1.79
0.75
-0.58
-2.01
-3.31
-4.31
-4.95
-5.32
-5.59
-6.03
-6.86
-8.18
-9.91
-11.77
-13.40
-14.54
-15.14
-15.37
-15.55
-16.00
-16.89
-18.14
-19.49
-20.51
-20.79
-19.96
-17.86
-14.56
-10.30
-5.48
-0.49
4.31
8.65
12.28
15.02
16.76
17.51
17.44
16.83
15.96
15.06
14.18
13.31
12.40
11.47
10.61
9.97
9.65
9.66
9.89
10.12
10.14
9.78
9.00
7.85
6.50
5.12
3.87
2.81
1.95
1.23
0.59
-0.05
-0.77
-1.67
-2.79
-4.13
-5.59
-7.03
-8.30
-9.37
-10.35
-11.43
-12.86
-14.76
-17.04
-19.35
-21.11
-21.68
-20.57
-17.62
-13.13
-7.74
-2.31
2.46
6.12
8.56
9.95
10.57
10.63
10.32
9.73
8.96
8.12
7.33
6.73
6.36
6.24
6.31
6.45
6.58
6.61
6.55
6.42
6.30
6.27
6.40
6.79
7.54
8.66
10.00
11.22
11.81
11.30
9.49
6.53
2.98
-0.47
-3.24
-5.04
-5.86
-5.88
-5.30
-4.26
-2.91
-1.44
-0.11
0.79
1.14
1.10
1.18
2.03
4.33
8.36
14.01
20.68
27.55
33.75
38.69
42.04
43.78
44.04
43.00
40.86
37.85
34.24
30.35
26.43
22.69
19.21
16.04
13.24
10.90
9.09
7.88
7.23
7.11
7.46
8.15
8.94
9.45
9.26
8.04
5.67
2.34
-1.57
-5.66
-9.68
-13.55
-17.28
-20.86
-24.15
-26.99
-29.22
-30.82
-31.92
-32.75
-33.47
-34.19
-34.93
-35.72
-36.57
-37.49
-38.35
-38.90
-38.75
-37.51
-34.94
-31.05
-26.12
-20.63
-15.14
-10.11
-5.82
-2.45
-0.05
1.41
1.98
1.76
0.99
-0.04
-1.02
-1.71
-1.99
-1.91
-1.63
-1.36
-1.17
-1.07
-0.95
-0.72
-0.39
-0.11
-0.05
-0.34
-0.95
-1.71
-2.41
-2.95
-3.38
-3.86
-4.55
-5.49
-6.57
-7.54
-8.21
-8.55
-8.71
-8.98
-9.67
-10.99
-12.94
-15.27
-17.56
-19.27
-19.89
-19.06
-16.70
-13.03
-8.48
-3.64
0.94
4.84
7.88
10.06
11.47
12.28
12.61
12.57
12.30
11.96
11.68
11.59
11.75
12.19
12.85
13.66
14.51
15.25
15.76
15.90
15.64
14.99
14.08
13.03
11.91
10.74
9.44
7.91
6.11
4.05
1.80
-0.52
-2.82
-5.04
-7.13
-9.08
-10.87
-12.52
-14.10
-15.76
-17.59
-19.59
-21.53
-22.91
-23.16
-21.82
-18.79
-14.41
-9.36
-4.35
0.14
3.96
7.20
9.96
12.19
13.62
13.95
12.97
10.72
7.45
3.51
-0.70
-4.81
-8.39
-10.98
-12.15
-11.65
-9.49
-5.98
-1.68
2.82
6.95
10.33
12.77
14.23
14.78
14.60
13.87
12.73
11.25
9.48
7.45
5.25
3.02
0.95
-0.83
-2.29
-3.49
-4.61
-5.86
-7.42
-9.37
-11.70
-14.22
-16.57
-18.25
-18.72
-17.62
-14.88
-10.76
-5.85
-0.82
3.75
7.53
10.41
12.52
14.00
15.02
15.67
16.05
16.21
16.21
16.12
15.99
15.86
15.76
15.65
15.48
15.16
14.66
13.99
13.27
12.58
11.93
11.23
10.27
8.87
6.98
4.78
2.63
0.87
-0.33
-1.03
-1.52
-2.12
-3.07
-4.36
-5.79
-7.09
-8.08
-8.82
-9.57
-10.68
-12.44
-14.94
-18.01
-21.23
-24.01
-25.69
-25.74
-23.87
-20.15
-15.01
-9.12
-3.21
2.10
6.41
9.58
11.65
12.74
12.99
12.55
11.60
10.26
8.70
7.06
5.44
3.94
2.62
1.57
0.82
0.34
0.07
-0.11
-0.33
-0.63
-0.95
-1.18
-1.21
-1.02
-0.75
-0.63
-0.89
-1.60
-2.67
-3.84
-4.84
-5.54
-5.97
-6.33
-6.86
-7.74
-9.09
-10.93
-13.23
-15.79
-18.26
-20.04
-20.46
-18.96
-15.39
-10.09
-3.89
2.26
7.55
11.60
14.46
16.48
18.02
19.32
20.40
21.14
21.43
21.23
20.58
19.59
18.37
17.01
15.49
13.77
11.81
9.63
7.35
5.15
3.23
1.71
0.60
-0.22
-0.90
-1.62
-2.49
-3.57
-4.90
-6.50
-8.38
-10.57
-13.05
-15.87
-19.08
-22.74
-26.80
-31.05
-35.12
-38.53
-40.83
-41.69
-40.85
-38.17
-33.57
-27.10
-19.06
-10.12
-1.18
6.77
13.04
17.32
19.84
21.08
21.58
21.71
21.63
21.32
20.75
19.92
18.87
17.70
16.45
15.22
14.11
13.28
12.85
12.84
13.15
13.57
13.81
13.64
12.95
11.78
10.29
8.72
7.23
5.87
4.58
3.25
1.78
0.15
-1.55
-3.21
-4.75
-6.13
-7.37
-8.51
-9.57
-10.60
-11.71
-13.07
-14.86
-17.10
-19.51
-21.48
-22.23
-21.11
-17.83
-12.65
-6.28
0.34
6.39
11.33
14.96
17.38
18.76
19.30
19.11
18.35
17.18
15.88
14.72
13.90
13.47
13.33
13.30
13.20
12.97
12.67
12.40
12.23
12.09
11.85
11.36
10.53
9.42
8.20
7.04
6.06
5.25
4.47
3.58
2.43
0.99
-0.72
-2.61
-4.57
-6.50
-8.33
-10.03
-11.59
-13.05
-14.46
-15.92
-17.51
-19.25
-21.08
-22.75
-23.88
-24.00
-22.62
-19.48
-14.64
-8.57
-2.05
4.05
9.00
12.46
14.49
15.44
15.77
15.78
15.59
15.13
14.28
13.00
11.39
9.64
8.01
6.70
5.82
5.36
5.27
5.41
5.61
5.71
5.57
5.12
4.40
3.57
2.80
2.25
1.92
1.66
1.24
0.44
-0.84
-2.54
-4.42
-6.25
-7.84
-9.14
-10.30
-11.61
-13.38
-15.85
-19.03
-22.64
-26.12
-28.80
-30.08
-29.60
-27.38
-23.74
-19.22
-14.42
-9.93
-6.26
-3.78
-2.63
-2.69
-3.57
-4.72
-5.62
-5.94
-5.59
-4.65
-3.21
-1.24
1.36
4.64
8.41
12.22
15.48
17.71
18.66
18.48
17.55
16.26
14.85
13.37
11.75
9.92
7.93
5.90
4.00
2.30
0.77
-0.68
-2.22
-3.92
-5.76
-7.60
-9.31
-10.84
-12.35
-14.13
-16.44
-19.24
-22.09
-24.16
-24.53
-22.60
-18.35
-12.41
-5.82
0.43
5.60
9.44
12.02
13.55
14.23
14.24
13.77
13.06
12.43
12.13
12.29
12.81
13.41
13.81
13.83
13.51
13.03
12.68
12.62
12.86
13.22
13.47
13.39
12.95
12.23
11.38
10.49
9.52
8.39
6.95
5.20
3.22
1.23
-0.57
-2.04
-3.17
-4.06
-4.93
-6.00
-7.52
-9.63
-12.33
-15.45
-18.61
-21.25
-22.75
-22.56
-20.40
-16.38
-11.01
-5.07
0.65
5.53
9.29
11.95
13.70
14.76
15.30
15.43
15.24
14.84
14.34
13.83
13.29
12.62
11.70
10.44
8.85
7.03
5.18
3.50
2.16
1.18
0.41
-0.35
-1.33
-2.61
-4.08
-5.48
-6.54
-7.14
-7.39
-7.58
-8.08
-9.14
-10.78
-12.75
-14.73
-16.40
-17.62
-18.46
-19.15
-19.99
-21.20
-22.88
-24.91
-26.98
-28.64
-29.40
-28.77
-26.48
-22.47
-16.99
-10.54
-3.76
2.65
8.13
12.30
15.09
16.66
17.38
17.63
17.71
17.77
17.76
17.60
17.28
16.88
16.52
16.24
16.02
15.70
15.14
14.29
13.22
12.05
10.88
9.75
8.64
7.56
6.52
5.55
4.63
3.69
2.62
1.35
-0.10
-1.64
-3.12
-4.49
-5.78
-7.11
-8.63
-10.46
-12.69
-15.31
-18.15
-20.88
-22.95
-23.66
-22.43
-19.05
-13.81
-7.47
-1.08
4.46
8.59
11.19
12.51
12.92
12.72
12.10
11.19
10.09
8.91
7.79
6.81
5.98
5.22
4.44
3.58
2.64
1.68
0.82
0.16
-0.26
-0.52
-0.79
-1.26
-2.09
-3.25
-4.60
-5.92
-7.00
-7.75
-8.20
-8.40
-8.38
-8.18
-7.85
-7.60
-7.75
-8.63
-10.38
-12.80
-15.28
-16.96
-17.02
-14.96
-10.79
-5.01
1.60
8.20
14.10
18.84
22.19
24.12
24.76
24.42
23.49
22.43
21.58
21.08
20.89
20.83
20.74
20.51
20.13
19.62
18.96
18.06
16.81
15.16
13.11
10.75
8.22
5.66
3.17
0.83
-1.35
-3.38
-5.33
-7.23
-9.11
-10.98
-12.80
-14.55
-16.21
-17.76
-19.18
-20.48
-21.77
-23.19
-24.96
-27.18
-29.77
-32.31
-34.09
-34.32
-32.40
-28.15
-21.94
-14.57
-7.03
-0.15
5.56
9.99
13.30
15.74
17.47
18.52
18.89
18.63
17.93
17.07
16.34
15.95
15.89
16.01
16.09
15.96
15.61
15.15
14.76
14.53
14.37
14.03
13.22
11.72
9.54
6.91
4.20
1.74
-0.26
-1.84
-3.21
-4.61
-6.25
-8.16
-10.21
-12.23
-14.03
-15.55
-16.76
-17.75
-18.60
-19.42
-20.29
-21.24
-22.16
-22.71
-22.32
-20.30
-16.15
-9.83
-1.92
6.48
14.11
19.95
23.59
25.25
25.61
25.43
25.20
24.98
24.51
23.46
21.69
19.39
16.97
14.85
13.24
12.11
11.20
10.26
9.25
8.33
7.73
7.57
7.66
7.60
6.93
5.38
3.07
0.42
-2.03
-3.90
-5.17
-6.10
-7.11
-8.49
-10.29
-12.28
-14.16
-15.72
-16.95
-18.03
-19.24
-20.80
-22.80
-25.17
-27.73
-30.16
-32.05
-32.91
-32.31
-29.98
-25.97
-20.65
-14.67
-8.71
-3.37
1.03
4.40
6.86
8.56
9.68
10.31
10.59
10.61
10.53
10.48
10.58
10.87
11.31
11.77
12.13
12.38
12.55
12.78
13.13
13.56
13.89
13.91
13.46
12.54
11.29
9.88
8.41
6.82
4.95
2.63
-0.24
-3.61
-7.36
-11.29
-15.16
-18.78
-22.03
-24.93
-27.69
-30.58
-33.83
-37.30
-40.42
-42.21
-41.58
-37.78
-30.72
-21.08
-10.12
0.80
10.58
18.64
24.90
29.55
32.85
34.93
35.83
35.57
34.25
32.12
29.49
26.66
23.84
21.12
18.56
16.21
14.13
12.39
11.03
9.99
9.17
8.39
7.51
6.41
5.06
3.49
1.76
-0.04
-1.82
-3.47
-4.94
-6.22
-7.36
-8.46
-9.64
-10.98
-12.52
-14.23
-16.00
-17.68
-19.16
-20.35
-21.31
-22.21
-23.29
-24.76
-26.65
-28.75
-30.53
-31.32
-30.47
-27.62
-22.82
-16.60
-9.76
-3.14
2.57
7.05
10.29
12.51
13.99
14.96
15.54
15.74
15.59
15.15
14.57
14.03
13.65
13.48
13.44
13.44
13.41
13.37
13.39
13.58
13.93
14.36
14.68
14.70
14.28
13.42
12.22
10.89
9.63
8.54
7.58
6.57
5.23
3.36
0.91
-1.95
-4.89
-7.56
-9.72
-11.36
-12.62
-13.69
-14.70
-15.63
-16.48
-17.32
-18.39
-19.99
-22.30
-25.12
-27.84
-29.54
-29.28
-26.49
-21.20
-14.00
-5.93
1.87
8.40
12.97
15.32
15.59
14.28
12.21
10.36
9.67
10.84
14.12
19.15
25.04
30.52
34.34
35.54
33.81
29.54
23.68
17.40
11.72
7.21
4.01
1.89
0.52
-0.40
-1.04
-1.49
-1.90
-2.48
-3.46
-4.96
-6.91
-9.01
-10.89
-12.27
-13.12
-13.65
-14.24
-15.23
-16.78
-18.86
-21.33
-23.99
-26.67
-29.14
-31.03
-31.81
-30.88
-27.87
-22.77
-16.11
-8.75
-1.68
4.32
8.82
11.79
13.45
14.12
14.13
13.72
13.09
12.41
11.82
11.47
11.51
12.03
13.06
14.54
16.30
18.12
19.82
21.32
22.67
23.95
25.18
26.23
26.86
26.81
25.91
24.23
21.94
19.31
16.50
13.54
10.36
6.92
3.32
-0.18
-3.23
-5.62
-7.41
-8.96
-10.77
-13.23
-16.31
-19.46
-21.71
-22.06
-19.84
-14.98
-8.09
-0.24
7.35
13.52
17.43
18.65
17.16
13.37
8.01
1.96
-3.95
-9.07
-13.01
-15.63
-16.86
-16.70
-15.22
-12.59
-9.18
-5.43
-1.83
1.33
3.90
5.95
7.53
8.66
9.27
9.26
8.57
7.29
5.59
3.70
1.75
-0.19
-2.13
-4.13
-6.21
-8.33
-10.43
-12.45
-14.36
-16.12
-17.76
-19.28
-20.72
-22.17
-23.79
-25.74
-28.05
-30.53
-32.69
-33.81
-33.16
-30.22
-24.92
-17.76
-9.65
-1.66
5.30
10.74
14.61
17.17
18.82
19.87
20.49
20.75
20.68
20.36
19.89
19.38
18.93
18.55
18.24
17.96
17.68
17.37
17.03
16.67
16.33
15.97
15.54
14.90
13.95
12.62
11.00
9.29
7.71
6.40
5.34
4.35
3.18
1.66
-0.24
-2.36
-4.51
-6.49
-8.25
-9.83
-11.34
-12.91
-14.64
-16.61
-18.88
-21.39
-23.95
-26.13
-27.40
-27.15
-24.99
-20.84
-15.05
-8.35
-1.60
4.36
9.00
12.16
14.02
14.95
15.33
15.40
15.23
14.79
14.06
13.06
11.82
10.45
9.06
7.80
6.88
6.46
6.60
7.10
7.60
7.66
7.00
5.59
3.69
1.62
-0.33
-2.12
-3.84
-5.66
-7.68
-9.92
-12.34
-14.90
-17.53
-20.12
-22.53
-24.58
-26.15
-27.24
-28.06
-28.88
-30.01
-31.52
-33.22
-34.56
-34.79
-33.17
-29.23
-23.06
-15.25
-6.83
1.12
7.78
12.82
16.37
18.80
20.46
21.54
22.09
22.09
21.63
20.90
20.14
19.51
19.07
18.73
18.38
17.91
17.30
16.59
15.82
14.97
14.00
12.86
11.54
10.05
8.46
6.80
5.04
3.17
1.13
-1.07
-3.35
-5.65
-7.89
-10.02
-12.07
-14.09
-16.16
-18.36
-20.78
-23.41
-26.16
-28.81
-31.00
-32.26
-32.11
-30.17
-26.31
-20.73
-13.94
-6.68
0.26
6.28
11.11
14.77
17.55
19.77
21.67
23.36
24.80
25.97
26.88
27.63
28.36
29.18
30.15
31.17
32.10
32.80
33.22
33.38
33.35
33.11
32.56
31.52
29.82
27.43
24.50
21.30
18.06
14.91
11.80
8.64
5.36
1.99
-1.34
-4.53
-7.56
-10.50
-13.48
-16.61
-19.98
-23.64
-27.54
-31.53
-35.26
-38.28
-39.98
-39.89
-37.80
-33.82
-28.44
-22.31
-16.09
-10.27
-5.12
-0.74
2.90
5.80
7.96
9.33
9.95
9.93
9.52
9.04
8.72
8.66
8.77
8.86
8.79
8.49
8.07
7.67
7.40
7.25
7.13
6.88
6.37
5.49
4.24
2.73
1.17
-0.20
-1.20
-1.78
-2.17
-2.69
-3.68
-5.29
-7.36
-9.52
-11.40
-12.81
-13.83
-14.79
-16.03
-17.78
-20.06
-22.73
-25.58
-28.29
-30.46
-31.55
-30.95
-28.19
-23.15
-16.24
-8.35
-0.63
5.92
10.70
13.68
15.27
16.04
16.48
16.81
16.99
16.91
16.53
15.92
15.29
14.83
14.60
14.54
14.45
14.22
13.80
13.28
12.75
12.22
11.58
10.63
9.26
7.48
5.50
3.55
1.81
0.28
-1.16
-2.66
-4.35
-6.22
-8.15
-10.03
-11.74
-13.27
-14.71
-16.18
-17.85
-19.86
-22.24
-24.90
-27.47
-29.42
-30.09
-28.92
-25.66
-20.49
-14.02
-7.09
-0.53
5.06
9.46
12.73
15.10
16.77
17.87
18.44
18.47
18.01
17.21
16.24
15.29
14.49
13.89
13.49
13.27
13.18
13.17
13.09
12.74
11.96
10.68
9.02
7.22
5.51
4.01
2.72
1.52
0.25
-1.18
-2.82
-4.68
-6.73
-8.90
-11.08
-13.12
-14.92
-16.46
-17.92
-19.55
-21.63
-24.24
-27.12
-29.69
-31.19
-30.93
-28.50
-23.96
-17.78
-10.71
-3.55
2.98
8.44
12.57
15.41
17.13
18.01
18.33
18.31
18.06
17.64
17.09
16.48
15.87
15.27
14.63
13.87
12.98
12.07
11.36
11.03
11.10
11.33
11.33
10.73
9.44
7.61
5.67
4.00
2.81
2.02
1.33
0.36
-1.13
-3.20
-5.66
-8.21
-10.54
-12.49
-14.02
-15.26
-16.43
-17.75
-19.39
-21.46
-23.86
-26.31
-28.37
-29.42
-28.90
-26.40
-21.85
-15.57
-8.24
-0.73
6.14
11.82
16.13
19.18
21.24
22.54
23.22
23.29
22.81
21.90
20.81
19.82
19.10
18.69
18.44
18.19
17.81
17.30
16.78
16.38
16.16
16.07
15.93
15.49
14.59
13.19
11.44
9.60
7.89
6.44
5.20
4.04
2.88
1.74
0.71
-0.07
-0.50
-0.57
-0.28
0.32
1.13
1.98
2.60
2.79
2.49
1.90
1.44
1.58
2.59
4.41
6.66
8.72
10.04
10.23
9.28
7.44
5.15
2.89
1.05
-0.27
-1.20
-2.12
-3.49
-5.70
-8.89
-12.87
-17.16
-21.10
-23.99
-25.46
-25.55
-24.92
-24.60
-25.67
-28.79
-33.93
-40.41
-47.08
-52.83
-56.87
-58.88
-58.87
-56.98
-53.33
-47.99
-41.09
-33.03
-24.58
-16.86
-11.17
-8.64
-9.96
-15.11
-23.36
-33.43
-43.74
-52.76
-59.19
-62.11
-61.11
-56.28
-48.27
-38.14
-27.19
-16.71
-7.67
-0.66
4.24
7.33
9.15
10.33
11.46
12.96
15.01
17.56
20.39
23.25
25.95
28.42
30.64
32.63
34.37
35.85
37.05
37.97
38.62
38.96
38.91
38.31
36.99
34.87
31.97
28.47
24.64
20.73
16.94
13.31
9.82
6.32
2.67
-1.20
-5.24
-9.16
-12.49
-14.62
-15.02
-13.43
-9.95
-5.06
0.59
6.37
11.89
17.00
21.65
25.76
29.18
31.71
33.21
33.69
33.32
32.32
30.86
29.07
27.05
24.94
22.92
21.18
19.85
18.88
18.12
17.36
16.47
15.38
14.13
12.75
11.24
9.57
7.69
5.61
3.38
1.10
-1.11
-3.21
-5.23
-7.28
-9.46
-11.89
-14.66
-17.76
-21.09
-24.37
-27.09
-28.67
-28.57
-26.49
-22.53
-17.16
-11.06
-4.93
0.74
5.73
9.99
13.57
16.50
18.76
20.29
21.04
21.03
20.35
19.22
17.87
16.59
15.52
14.72
14.07
13.39
12.52
11.40
10.10
8.70
7.30
5.87
4.33
2.58
0.61
-1.46
-3.44
-5.13
-6.43
-7.32
-7.92
-8.38
-8.88
-9.63
-10.80
-12.56
-14.99
-17.98
-21.24
-24.24
-26.37
-27.04
-25.86
-22.75
-17.99
-12.13
-5.89
0.07
5.27
9.54
12.92
15.52
17.42
18.57
18.87
18.28
16.94
15.20
13.45
11.99
10.94
10.18
9.51
8.75
7.88
7.00
6.27
5.75
5.37
4.94
4.24
3.11
1.56
-0.27
-2.14
-3.86
-5.35
-6.65
-7.90
-9.29
-11.01
-13.20
-15.89
-18.94
-22.02
-24.62
-26.09
-25.88
-23.65
-19.43
-13.64
-7.01
-0.32
5.72
10.67
14.40
17.02
18.78
19.90
20.52
20.62
20.14
19.06
17.52
15.81
14.30
13.23
12.69
12.51
12.42
12.13
11.50
10.54
9.35
8.07
6.79
5.51
4.20
2.77
1.13
-0.74
-2.78
-4.87
-6.86
-8.62
-10.14
-11.55
-13.08
-14.99
-17.42
-20.35
-23.52
-26.49
-28.70
-29.63
-28.88
-26.27
-21.93
-16.28
-9.94
-3.56
2.32
7.34
11.38
14.49
16.78
18.33
19.18
19.37
18.99
18.23
17.37
16.65
16.22
16.07
16.08
16.11
16.09
16.05
16.06
16.19
16.38
16.43
16.04
14.96
13.08
10.50
7.52
4.53
1.84
-0.42
-2.33
-4.11
-6.00
-8.10
-10.29
-12.33
-13.98
-15.13
-15.90
-16.53
-17.36
-18.68
-20.61
-23.10
-25.84
-28.28
-29.73
-29.49
-27.12
-22.60
-16.39
-9.31
-2.26
4.03
9.15
13.05
15.89
17.87
19.12
19.69
19.65
19.07
18.16
17.18
16.37
15.86
15.63
15.54
15.42
15.22
14.97
14.81
14.82
14.96
14.99
14.62
13.59
11.90
9.71
7.39
5.26
3.51
2.11
0.85
-0.51
-2.14
-4.10
-6.32
-8.67
-11.00
-13.16
-15.01
-16.44
-17.47
-18.23
-19.02
-20.20
-22.09
-24.71
-27.74
-30.48
-32.03
-31.60
-28.79
-23.74
-17.11
-9.85
-2.94
2.95
7.54
10.90
13.31
15.02
16.24
17.07
17.58
17.89
18.08
18.18
18.14
17.86
17.26
16.36
15.33
14.40
13.75
13.47
13.45
13.48
13.32
12.75
11.66
10.06
8.05
5.81
3.53
1.38
-0.54
-2.21
-3.70
-5.11
-6.52
-7.97
-9.43
-10.86
-12.17
-13.34
-14.41
-15.50
-16.79
-18.43
-20.55
-23.08
-25.73
-28.02
-29.38
-29.33
-27.58
-24.17
-19.42
-13.82
-7.90
-2.14
3.11
7.58
11.10
13.60
15.11
15.79
15.88
15.62
15.17
14.63
14.00
13.30
12.57
11.92
11.46
11.24
11.22
11.26
11.17
10.79
10.05
9.01
7.81
6.58
5.42
4.27
3.01
1.47
-0.40
-2.51
-4.66
-6.63
-8.29
-9.64
-10.81
-11.99
-13.37
-15.06
-17.13
-19.60
-22.33
-25.02
-27.13
-28.02
-27.15
-24.26
-19.54
-13.59
-7.22
-1.17
4.05
8.26
11.51
13.94
15.68
16.80
17.35
17.36
16.89
16.09
15.08
14.00
12.99
12.14
11.45
10.87
10.34
9.78
9.17
8.55
7.94
7.31
6.59
5.64
4.37
2.77
1.00
-0.70
-2.11
-3.14
-3.86
-4.42
-5.02
-5.73
-6.49
-7.18
-7.70
-8.11
-8.56
-9.25
-10.33
-11.71
-13.13
-14.13
-14.25
-13.11
-10.53
-6.60
-1.62
3.92
9.52
14.70
19.18
22.84
25.71
27.94
29.69
31.06
32.12
32.86
33.15
32.79
31.54
29.23
25.85
21.65
17.05
12.51
8.40
4.89
1.91
-0.71
-3.15
-5.43
-7.50
-9.23
-10.51
-11.30
-11.60
-11.47
-11.01
-10.38
-9.79
-9.42
-9.47
-10.01
-11.01
-12.39
-14.00
-15.79
-17.73
-19.85
-22.17
-24.64
-27.04
-29.04
-30.17
-30.01
-28.33
-25.19
-21.00
-16.33
-11.71
-7.46
-3.61
-0.03
3.45
6.93
10.42
13.84
17.13
20.15
22.77
24.80
26.13
26.77
26.93
26.88
26.86
26.87
26.68
25.89
24.17
21.36
17.58
13.13
8.46
4.02
0.16
-2.91
-5.13
-6.60
-7.51
-8.09
-8.57
-9.17
-10.11
-11.53
-13.48
-15.86
-18.41
-20.75
-22.56
-23.68
-24.17
-24.34
-24.67
-25.57
-27.28
-29.66
-32.19
-34.07
-34.47
-32.82
-28.99
-23.42
-16.90
-10.35
-4.54
0.10
3.49
5.79
7.28
8.19
8.63
8.68
8.34
7.68
6.79
5.81
4.83
3.97
3.26
2.76
2.53
2.58
2.86
3.24
3.52
3.55
3.22
2.59
1.74
0.78
-0.24
-1.32
-2.47
-3.67
-4.85
-5.96
-6.96
-7.93
-8.96
-10.15
-11.55
-13.17
-14.99
-17.04
-19.26
-21.47
-23.30
-24.20
-23.67
-21.36
-17.32
-11.99
-6.10
-0.46
4.27
7.75
9.98
11.24
11.87
12.17
12.23
12.01
11.41
10.44
9.24
8.10
7.28
6.91
6.92
7.06
7.09
6.85
6.35
5.73
5.14
4.67
4.24
3.71
2.86
1.58
-0.12
-2.07
-4.06
-5.90
-7.49
-8.88
-10.15
-11.44
-12.86
-14.50
-16.41
-18.47
-20.32
-21.40
-21.01
-18.65
-14.27
-8.38
-1.93
4.02
8.73
11.98
14.02
15.33
16.28
17.03
17.47
17.43
16.85
15.85
14.71
13.68
12.90
12.28
11.63
10.74
9.49
7.98
6.44
5.14
4.23
3.69
3.28
2.72
1.75
0.23
-1.75
-3.99
-6.22
-8.20
-9.80
-11.06
-12.18
-13.46
-15.21
-17.62
-20.65
-24.04
-27.33
-29.90
-31.18
-30.70
-28.28
-24.07
-18.57
-12.44
-6.38
-0.89
3.78
7.64
10.80
13.41
15.52
17.13
18.25
18.94
19.32
19.54
19.68
19.72
19.50
18.87
17.71
16.09
14.25
12.52
11.12
10.05
9.13
8.10
6.78
5.21
3.57
2.10
0.90
-0.12
-1.21
-2.63
-4.53
-6.88
-9.49
-12.07
-14.32
-16.04
-17.19
-17.95
-18.64
-19.66
-21.26
-23.44
-25.79
-27.56
-27.83
-25.74
-20.83
-13.22
-3.66
6.67
16.46
24.65
30.69
34.55
36.57
37.22
36.84
35.66
33.85
31.62
29.33
27.31
25.84
24.91
24.33
23.77
23.00
21.93
20.67
19.40
18.31
17.43
16.68
15.87
14.83
13.46
11.76
9.86
7.92
6.10
4.49
3.07
1.71
0.25
-1.44
-3.42
-5.59
-7.81
-9.92
-11.87
-13.70
-15.62
-17.86
-20.61
-23.85
-27.25
-30.22
-32.02
-32.00
-29.79
-25.46
-19.52
-12.74
-5.98
0.06
4.93
8.48
10.81
12.18
12.91
13.27
13.44
13.54
13.66
13.89
14.29
14.86
15.51
16.02
16.18
15.83
14.96
13.68
12.15
10.50
8.78
6.95
4.96
2.76
0.35
-2.22
-4.90
-7.65
-10.43
-13.23
-16.02
-18.69
-21.07
-22.97
-24.25
-24.97
-25.41
-26.05
-27.33
-29.44
-32.13
-34.75
-36.43
-36.35
-34.06
-29.59
-23.40
-16.25
-8.88
-1.90
4.29
9.51
13.66
16.73
18.69
19.63
19.73
19.25
18.45
17.52
16.52
15.39
14.09
12.67
11.32
10.28
9.77
9.80
10.19
10.58
10.61
10.00
8.75
7.01
5.03
3.04
1.07
-0.94
-3.12
-5.50
-8.00
-10.45
-12.70
-14.67
-16.38
-17.87
-19.20
-20.46
-21.78
-23.41
-25.57
-28.30
-31.31
-33.90
-35.17
-34.32
-31.01
-25.46
-18.39
-10.70
-3.26
3.37
8.87
13.17
16.30
18.37
19.56
20.08
20.21
20.23
20.36
20.70
21.23
21.81
22.23
22.30
21.91
21.07
19.87
18.50
17.10
15.79
14.67
13.72
12.89
12.06
11.05
9.74
8.17
6.50
5.00
3.85
3.00
2.18
1.04
-0.67
-2.89
-5.29
-7.43
-9.02
-10.05
-10.85
-11.83
-13.39
-15.64
-18.43
-21.36
-23.93
-25.53
-25.63
-23.82
-19.99
-14.43
-7.79
-0.92
5.31
10.35
13.97
16.34
17.78
18.64
19.17
19.49
19.65
19.63
19.44
19.05
18.46
17.66
16.64
15.41
14.01
12.54
11.16
10.00
9.11
8.42
7.77
6.94
5.79
4.32
2.65
0.99
-0.53
-1.88
-3.12
-4.37
-5.70
-7.10
-8.58
-10.09
-11.61
-13.12
-14.53
-15.78
-16.79
-17.60
-18.35
-19.30
-20.70
-22.67
-25.03
-27.28
-28.66
-28.34
-25.75
-20.76
-13.83
-5.92
1.82
8.33
13.01
15.73
16.87
16.99
16.60
16.06
15.47
14.84
14.17
13.50
12.89
12.41
12.05
11.75
11.46
11.12
10.70
10.17
9.49
8.59
7.45
6.05
4.45
2.72
0.95
-0.82
-2.60
-4.40
-6.25
-8.14
-10.03
-11.85
-13.56
-15.20
-16.84
-18.61
-20.62
-22.93
-25.48
-28.11
-30.50
-32.22
-32.74
-31.58
-28.46
-23.46
-17.11
-10.26
-3.85
1.41
5.24
7.77
9.35
10.38
11.01
11.26
11.04
10.33
9.35
8.40
7.82
7.80
8.30
9.13
10.06
10.89
11.56
12.00
12.15
11.94
11.32
10.34
9.17
7.99
6.90
5.85
4.69
3.26
1.57
-0.19
-1.76
-2.96
-3.80
-4.43
-5.10
-6.01
-7.23
-8.73
-10.41
-12.14
-13.67
-14.66
-14.67
-13.31
-10.44
-6.31
-1.48
3.25
7.17
9.88
11.32
11.80
11.70
11.35
10.80
9.90
8.43
6.34
3.85
1.42
-0.44
-1.43
-1.54
-1.05
-0.32
0.42
1.18
2.08
3.27
4.67
6.04
7.05
7.44
7.17
6.37
5.29
4.11
2.89
1.56
0.02
-1.77
-3.71
-5.57
-7.08
-8.10
-8.67
-9.06
-9.63
-10.73
-12.53
-14.94
-17.57
-19.80
-20.85
-20.01
-16.85
-11.48
-4.57
2.77
9.35
14.25
17.08
18.07
17.74
16.72
15.46
14.17
12.86
11.55
10.28
9.15
8.26
7.68
7.36
7.23
7.19
7.22
7.30
7.48
7.73
7.97
8.02
7.69
6.84
5.51
3.90
2.30
0.95
-0.08
-0.88
-1.65
-2.60
-3.82
-5.29
-6.90
-8.49
-9.94
-11.18
-12.21
-13.16
-14.23
-15.64
-17.57
-19.99
-22.60
-24.86
-26.02
-25.41
-22.64
-17.83
-11.56
-4.77
1.58
6.73
10.39
12.64
13.86
14.48
14.83
15.06
15.16
15.04
14.63
13.91
12.98
11.98
11.06
10.36
9.91
9.71
9.66
9.68
9.63
9.39
8.86
7.97
6.74
5.27
3.66
2.01
0.33
-1.45
-3.35
-5.35
-7.33
-9.15
-10.68
-11.91
-12.95
-13.97
-15.18
-16.76
-18.77
-21.08
-23.31
-24.87
-25.02
-23.19
-19.17
-13.26
-6.27
0.75
6.87
11.54
14.66
16.51
17.50
17.95
18.00
17.65
16.90
15.78
14.45
13.09
11.88
10.89
10.13
9.51
8.92
8.28
7.58
6.87
6.26
5.84
5.62
5.51
5.32
4.82
3.83
2.29
0.29
-2.00
-4.35
-6.55
-8.46
-10.05
-11.36
-12.56
-13.90
-15.64
-17.94
-20.72
-23.56
-25.76
-26.52
-25.23
-21.70
-16.27
-9.64
-2.73
3.65
8.91
12.80
15.35
16.81
17.51
17.80
17.88
17.86
17.68
17.27
16.55
15.53
14.28
12.90
11.52
10.24
9.20
8.50
8.17
8.12
8.14
7.97
7.44
6.53
5.34
4.06
2.81
1.63
0.43
-0.93
-2.52
-4.37
-6.37
-8.38
-10.21
-11.71
-12.83
-13.66
-14.50
-15.70
-17.59
-20.23
-23.25
-25.91
-27.25
-26.45
-23.16
-17.62
-10.64
-3.29
3.45
8.93
12.95
15.67
17.39
18.42
18.92
19.00
18.71
18.17
17.51
16.89
16.41
16.08
15.85
15.69
15.56
15.45
15.38
15.31
15.13
14.70
13.86
12.53
10.78
8.82
6.93
5.31
4.01
2.95
1.89
0.63
-0.99
-2.98
-5.28
-7.72
-10.12
-12.26
-13.97
-15.15
-15.89
-16.43
-17.13
-18.35
-20.24
-22.64
-25.06
-26.80
-27.10
-25.44
-21.71
-16.30
-9.96
-3.62
1.95
6.33
9.48
11.60
12.96
13.73
14.01
13.81
13.25
12.53
11.83
11.32
11.02
10.86
10.75
10.63
10.48
10.28
9.96
9.42
8.56
7.34
5.84
4.23
2.67
1.31
0.15
-0.89
-1.91
-3.05
-4.33
-5.76
-7.26
-8.77
-10.21
-11.57
-12.88
-14.20
-15.65
-17.38
-19.46
-21.82
-24.14
-25.87
-26.35
-25.03
-21.73
-16.77
-10.89
-5.04
-0.03
3.68
6.07
7.42
8.13
8.49
8.61
8.44
7.86
6.84
5.51
4.18
3.20
2.80
2.97
3.46
3.89
3.93
3.43
2.47
1.24
-0.07
-1.37
-2.63
-3.89
-5.18
-6.56
-8.11
-9.88
-11.90
-14.04
-16.01
-17.47
-18.20
-18.15
-17.53
-16.67
-15.82
-15.09
-14.28
-12.98
-10.69
-7.02
-1.83
4.60
11.65
18.47
24.24
28.41
30.80
31.59
31.18
29.97
28.29
26.32
24.19
21.99
19.84
17.85
16.09
14.60
13.33
12.23
11.23
10.30
9.45
8.68
7.96
7.25
6.50
5.65
4.72
3.73
2.72
1.70
0.58
-0.75
-2.40
-4.33
-6.40
-8.36
-9.98
-11.18
-12.06
-12.91
-14.04
-15.69
-17.90
-20.50
-23.09
-25.13
-26.01
-25.21
-22.45
-17.78
-11.66
-4.89
1.62
7.06
11.00
13.45
14.77
15.46
15.94
16.35
16.62
16.56
16.03
15.08
13.93
12.86
12.07
11.59
11.31
11.05
10.68
10.15
9.53
8.92
8.34
7.76
7.07
6.18
5.07
3.79
2.44
1.08
-0.30
-1.77
-3.45
-5.40
-7.55
-9.72
-11.70
-13.33
-14.62
-15.74
-16.97
-18.60
-20.76
-23.31
-25.79
-27.53
-27.82
-26.16
-22.41
-16.93
-10.38
-3.60
2.64
7.86
11.81
14.47
15.95
16.37
15.96
14.96
13.70
12.48
11.52
10.90
10.57
10.39
10.22
9.99
9.74
9.51
9.35
9.23
9.02
8.54
7.67
6.43
4.99
3.61
2.52
1.80
1.33
0.87
0.09
-1.14
-2.79
-4.61
-6.31
-7.73
-8.88
-10.01
-11.41
-13.33
-15.86
-18.90
-22.14
-25.12
-27.25
-27.95
-26.77
-23.55
-18.57
-12.50
-6.26
-0.70
3.64
6.63
8.52
9.66
10.35
10.69
10.65
10.16
9.27
8.17
7.14
6.44
6.17
6.24
6.41
6.43
6.14
5.57
4.88
4.24
3.73
3.30
2.75
1.83
0.34
-1.75
-4.35
-7.24
-10.20
-13.01
-15.54
-17.76
-19.72
-21.55
-23.38
-25.27
-27.16
-28.88
-30.18
-30.73
-30.17
-28.07
-24.05
-17.91
-9.83
-0.42
9.33
18.30
25.56
30.65
33.60
34.82
34.83
34.05
32.75
31.10
29.23
27.23
25.21
23.19
21.17
19.12
17.10
15.17
13.47
12.05
10.93
10.06
9.33
8.64
7.90
7.04
6.00
4.76
3.32
1.67
-0.18
-2.25
-4.50
-6.80
-8.99
-10.88
-12.34
-13.41
-14.30
-15.30
-16.74
-18.78
-21.36
-24.13
-26.52
-27.83
-27.43
-24.94
-20.37
-14.15
-7.02
0.09
6.38
11.29
14.66
16.63
17.53
17.78
17.65
17.31
16.82
16.17
15.40
14.62
13.92
13.37
12.96
12.63
12.29
11.94
11.59
11.25
10.84
10.21
9.19
7.70
5.82
3.79
1.95
0.54
-0.40
-1.06
-1.77
-2.83
-4.40
-6.39
-8.52
-10.45
-11.91
-12.83
-13.35
-13.76
-14.45
-15.73
-17.77
-20.46
-23.38
-25.88
-27.13
-26.45
-23.52
-18.47
-11.94
-4.83
1.90
7.55
11.73
14.46
15.99
16.67
16.83
16.72
16.50
16.20
15.86
15.46
15.02
14.58
14.19
13.85
13.53
13.18
12.78
12.37
12.00
11.74
11.54
11.24
10.63
9.56
8.05
6.31
4.61
3.20
2.13
1.27
0.35
-0.89
-2.59
-4.68
-6.92
-8.99
-10.59
-11.60
-12.09
-12.33
-12.68
-13.49
-14.98
-17.21
-20.01
-23.01
-25.71
-27.50
-27.78
-26.14
-22.45
-16.98
-10.40
-3.58
2.60
7.53
10.94
12.94
13.86
14.06
13.73
12.99
11.83
10.31
8.61
6.96
5.63
4.76
4.35
4.32
4.52
4.86
5.20
5.45
5.45
5.09
4.29
3.13
1.76
0.40
-0.78
-1.71
-2.42
-3.04
-3.73
-4.61
-5.74
-7.05
-8.39
-9.54
-10.36
-10.82
-11.10
-11.52
-12.42
-14.00
-16.22
-18.73
-20.91
-22.01
-21.40
-18.71
-14.05
-7.95
-1.27
5.07
10.31
14.05
16.22
17.02
16.83
16.08
15.15
14.30
13.63
13.09
12.49
11.69
10.69
9.68
8.91
8.57
8.67
8.98
9.21
9.16
8.78
8.17
7.44
6.65
5.74
4.63
3.26
1.66
-0.09
-1.90
-3.76
-5.64
-7.51
-9.30
-10.90
-12.27
-13.44
-14.55
-15.86
-17.54
-19.66
-21.98
-24.01
-25.06
-24.54
-22.10
-17.90
-12.53
-6.81
-1.54
2.78
6.01
8.29
9.89
11.05
11.87
12.37
12.54
12.40
11.98
11.36
10.62
9.83
9.01
8.21
7.49
6.96
6.76
6.98
7.60
8.41
9.14
9.47
9.23
8.36
7.00
5.33
3.52
1.71
-0.09
-1.89
-3.75
-5.64
-7.56
-9.41
-11.11
-12.54
-13.62
-14.39
-14.97
-15.65
-16.78
-18.64
-21.19
-24.03
-26.34
-27.14
-25.65
-21.57
-15.32
-7.85
-0.37
6.07
10.88
13.98
15.70
16.48
16.76
16.77
16.63
16.33
15.90
15.38
14.81
14.23
13.57
12.77
11.80
10.79
9.97
9.67
10.06
11.05
12.27
13.18
13.27
12.29
10.34
7.78
5.08
2.68
0.82
-0.45
-1.30
-1.97
-2.75
-3.86
-5.36
-7.13
-8.91
-10.43
-11.52
-12.26
-12.98
-14.12
-16.02
-18.72
-21.82
-24.53
-25.86
-24.99
-21.63
-16.11
-9.35
-2.49
3.51
8.16
11.44
13.65
15.10
16.00
16.44
16.49
16.33
16.20
16.28
16.54
16.75
16.59
15.87
14.66
13.27
12.12
11.49
11.45
11.83
12.27
12.43
12.07
11.11
9.68
7.99
6.29
4.75
3.45
2.30
1.15
-0.18
-1.84
-3.90
-6.29
-8.87
-11.39
-13.65
-15.57
-17.22
-18.90
-20.87
-23.32
-26.09
-28.70
-30.38
-30.31
-27.91
-23.08
-16.31
-8.57
-1.07
5.11
9.31
11.43
11.87
11.32
10.47
9.80
9.53
9.63
9.98
10.46
10.96
11.40
11.63
11.51
10.90
9.76
8.23
6.58
5.11
4.00
3.29
2.86
2.45
1.83
0.84
-0.60
-2.47
-4.66
-7.02
-9.35
-11.42
-13.10
-14.34
-15.29
-16.19
-17.44
-19.33
-21.94
-25.01
-27.88
-29.69
-29.55
-27.00
-22.14
-15.65
-8.61
-2.13
3.01
6.50
8.42
9.14
9.11
8.72
8.29
7.98
7.85
7.72
7.31
6.28
4.49
2.00
-0.80
-3.38
-5.20
-5.93
-5.49
-4.02
-1.75
1.05
4.18
7.49
10.85
14.02
16.72
18.50
18.94
17.69
14.64
9.95
4.07
-2.38
-8.77
-14.49
-18.94
-21.58
-21.97
-19.91
-15.58
-9.67
-3.21
2.68
7.21
10.11
11.65
12.46
13.08
13.78
14.41
14.62
14.11
12.88
11.23
9.61
8.36
7.54
7.02
6.57
6.05
5.51
5.06
4.77
4.50
3.97
2.90
1.17
-1.11
-3.62
-5.96
-7.88
-9.33
-10.50
-11.75
-13.37
-15.52
-18.03
-20.35
-21.76
-21.54
-19.27
-14.99
-9.20
-2.74
3.46
8.65
12.40
14.61
15.51
15.46
14.83
13.92
12.83
11.57
10.13
8.56
7.01
5.71
4.85
4.50
4.58
4.91
5.31
5.71
6.11
6.57
7.10
7.66
8.10
8.29
8.08
7.35
6.01
3.94
1.02
-2.87
-7.74
-13.35
-19.14
-24.25
-27.76
-28.87
-27.31
-23.36
-17.82
-11.76
-6.14
-1.58
1.78
4.16
5.90
7.34
8.60
9.67
10.43
10.82
10.88
10.75
10.61
10.53
10.47
10.27
9.74
8.81
7.56
6.23
5.09
4.32
3.92
3.67
3.25
2.36
0.86
-1.13
-3.25
-4.97
-5.89
-5.86
-5.08
-4.02
-3.24
-3.11
-3.74
-4.99
-6.58
-8.17
-9.40
-9.85
-9.05
-6.58
-2.28
3.63
10.53
17.58
24.00
29.29
33.22
35.72
36.73
36.16
33.94
30.18
25.26
19.76
14.32
9.38
5.15
1.63
-1.29
-3.68
-5.55
-6.87
-7.67
-8.07
-8.27
-8.43
-8.67
-8.96
-9.19
-9.24
-9.01
-8.49
-7.80
-7.12
-6.63
-6.43
-6.49
-6.62
-6.57
-6.19
-5.55
-5.01
-5.09
-6.28
-8.81
-12.40
-16.37
-19.74
-21.57
-21.27
-18.78
-14.64
-9.70
-4.89
-0.90
2.01
3.95
5.21
6.05
6.59
6.81
6.65
6.18
5.53
4.91
4.42
4.09
3.86
3.66
3.47
3.30
3.17
3.06
2.94
2.78
2.55
2.27
1.95
1.57
1.10
0.46
-0.35
-1.29
-2.27
-3.17
-3.95
-4.73
-5.71
-7.19
-9.37
-12.22
-15.35
-18.08
-19.65
-19.48
-17.33
-13.45
-8.39
-2.88
2.44
7.09
10.85
13.63
15.51
16.63
17.10
17.03
16.43
15.30
13.67
11.64
9.48
7.51
6.01
5.08
4.59
4.20
3.57
2.44
0.79
-1.31
-3.73
-6.41
-9.38
-12.64
-16.08
-19.41
-22.22
-24.09
-24.71
-23.95
-21.91
-18.84
-15.11
-11.18
-7.55
-4.75
-3.22
-3.19
-4.59
-6.94
-9.50
-11.39
-11.86
-10.56
-7.57
-3.35
1.47
6.28
10.62
14.23
17.00
18.92
20.01
20.34
19.97
18.98
17.49
15.70
13.84
12.18
10.95
10.22
9.91
9.79
9.57
9.07
8.26
7.21
6.07
4.93
3.80
2.65
1.46
0.26
-0.83
-1.69
-2.31
-2.81
-3.40
-4.26
-5.41
-6.70
-7.84
-8.58
-8.81
-8.65
-8.41
-8.47
-9.18
-10.77
-13.24
-16.32
-19.39
-21.66
-22.28
-20.69
-16.88
-11.37
-5.12
0.85
5.79
9.36
11.66
13.05
13.90
14.47
14.82
14.93
14.74
14.29
13.66
12.98
12.33
11.73
11.18
10.64
10.13
9.70
9.41
9.26
9.16
8.99
8.58
7.84
6.80
5.58
4.39
3.40
2.66
2.14
1.70
1.17
0.42
-0.61
-1.91
-3.41
-4.99
-6.54
-7.94
-9.18
-10.33
-11.56
-13.10
-15.12
-17.62
-20.38
-23.01
-24.95
-25.64
-24.65
-21.82
-17.34
-11.75
-5.83
-0.35
4.07
7.14
8.91
9.68
9.84
9.68
9.36
8.86
8.13
7.15
6.02
4.97
4.24
3.98
4.19
4.73
5.39
6.02
6.52
6.86
6.96
6.69
5.92
4.57
2.73
0.62
-1.41
-3.09
-4.28
-5.02
-5.54
-6.15
-7.11
-8.50
-10.23
-12.10
-13.90
-15.57
-17.26
-19.18
-21.39
-23.65
-25.36
-25.75
-24.21
-20.55
-15.15
-8.78
-2.35
3.38
7.99
11.35
13.52
14.66
14.92
14.51
13.66
12.67
11.80
11.21
10.91
10.75
10.52
10.08
9.37
8.51
7.69
7.06
6.68
6.49
6.31
5.95
5.27
4.24
2.91
1.38
-0.24
-1.91
-3.60
-5.30
-6.93
-8.38
-9.56
-10.52
-11.44
-12.64
-14.43
-16.89
-19.77
-22.44
-24.11
-24.06
-21.94
-17.88
-12.41
-6.34
-0.42
4.76
8.92
12.03
14.20
15.57
16.25
16.29
15.81
14.96
13.92
12.89
11.97
11.20
10.55
10.03
9.66
9.47
9.44
9.44
9.27
8.78
7.93
6.84
5.73
4.77
3.95
3.10
1.98
0.43
-1.51
-3.62
-5.63
-7.31
-8.66
-9.88
-11.24
-12.99
-15.20
-17.76
-20.44
-22.97
-25.15
-26.74
-27.49
-27.04
-24.99
-21.03
-15.21
-8.04
-0.46
6.45
11.80
15.22
16.94
17.57
17.80
18.09
18.55
19.02
19.22
19.00
18.33
17.36
16.27
15.25
14.49
14.15
14.27
14.79
15.44
15.88
15.80
15.03
13.73
12.27
11.12
10.60
10.74
11.24
11.59
11.27
9.91
7.45
4.11
0.38
-3.14
-5.89
-7.62
-8.58
-9.59
-11.76
-16.09
-22.90
-31.50
-40.26
-47.07
-50.08
-48.33
-42.06
-32.48
-21.26
-9.94
0.48
9.53
17.07
23.06
27.38
29.98
30.96
30.73
29.86
28.92
28.24
27.72
27.03
25.76
23.74
21.14
18.41
16.10
14.58
13.93
13.94
14.22
14.36
14.04
13.11
11.59
9.56
7.16
4.54
1.81
-0.89
-3.51
-6.04
-8.51
-10.97
-13.42
-15.72
-17.68
-19.13
-20.04
-20.53
-20.87
-21.39
-22.33
-23.84
-25.86
-28.17
-30.36
-31.85
-31.99
-30.24
-26.36
-20.62
-13.70
-6.56
-0.13
4.98
8.56
10.73
11.82
12.19
12.12
11.78
11.32
10.81
10.30
9.82
9.39
9.00
8.62
8.22
7.78
7.31
6.85
6.51
6.36
6.40
6.50
6.44
5.98
4.93
3.25
1.08
-1.35
-3.74
-5.84
-7.49
-8.67
-9.47
-10.06
-10.72
-11.74
-13.33
-15.59
-18.39
-21.31
-23.71
-24.89
-24.23
-21.42
-16.59
-10.30
-3.39
3.25
8.89
13.10
15.80
17.15
17.42
16.88
15.77
14.27
12.57
10.90
9.54
8.71
8.50
8.78
9.22
9.42
9.12
8.27
7.14
6.07
5.33
4.91
4.58
4.00
2.94
1.40
-0.38
-2.15
-3.72
-5.08
-6.36
-7.67
-9.06
-10.47
-11.87
-13.26
-14.79
-16.60
-18.77
-21.09
-23.08
-24.05
-23.37
-20.66
-16.03
-10.07
-3.67
2.24
7.01
10.40
12.60
14.02
15.03
15.86
16.51
16.90
16.94
16.61
16.02
15.30
14.58
13.94
13.43
13.03
12.70
12.36
11.96
11.44
10.79
10.01
9.10
8.06
6.90
5.63
4.26
2.86
1.47
0.11
-1.20
-2.50
-3.83
-5.23
-6.73
-8.30
-9.94
-11.61
-13.30
-15.08
-17.07
-19.37
-22.00
-24.70
-26.96
-28.02
-27.17
-23.99
-18.58
-11.59
-3.97
3.26
9.35
13.92
16.99
18.81
19.70
20.05
20.19
20.45
21.03
21.83
22.44
22.24
20.64
17.41
12.80
7.46
2.15
-2.51
-6.23
-9.00
-10.94
-12.16
-12.72
-12.72
-12.32
-11.73
-11.09
-10.38
-9.41
-7.91
-5.71
-2.92
0.09
2.78
4.61
5.29
4.83
3.52
1.78
-0.01
-1.59
-2.93
-4.13
-5.46
-7.20
-9.64
-12.94
-16.94
-21.17
-24.81
-26.89
-26.62
-23.64
-18.19
-11.05
-3.36
3.73
9.38
13.20
15.33
16.25
16.55
16.68
16.84
16.92
16.72
16.08
15.03
13.76
12.54
11.57
10.89
10.43
10.11
9.93
9.97
10.31
10.93
11.64
12.09
11.96
11.04
9.36
7.20
4.92
2.88
1.28
0.14
-0.72
-1.56
-2.66
-4.21
-6.20
-8.43
-10.58
-12.38
-13.73
-14.75
-15.71
-16.90
-18.54
-20.63
-23.01
-25.30
-26.97
-27.48
-26.31
-23.25
-18.44
-12.43
-5.96
0.23
5.67
10.20
13.88
16.88
19.23
20.87
21.67
21.52
20.41
18.44
15.83
12.87
9.95
7.43
5.59
4.59
4.33
4.59
5.06
5.47
5.59
5.31
4.59
3.47
2.08
0.59
-0.84
-2.09
-3.16
-4.17
-5.27
-6.62
-8.27
-10.19
-12.24
-14.21
-15.86
-17.06
-17.80
-18.32
-19.00
-20.28
-22.42
-25.33
-28.51
-31.14
-32.31
-31.31
-27.85
-22.21
-15.09
-7.48
-0.35
5.57
9.91
12.70
14.27
15.04
15.38
15.48
15.36
14.96
14.26
13.38
12.51
11.84
11.46
11.27
11.12
10.85
10.45
10.09
10.02
10.40
11.18
12.12
12.80
12.86
12.10
10.55
8.42
5.98
3.42
0.79
-1.98
-5.02
-8.43
-12.15
-16.01
-19.71
-22.88
-25.18
-26.33
-26.25
-25.05
-23.07
-20.79
-18.73
-17.27
-16.54
-16.34
-16.20
-15.48
-13.61
-10.26
-5.55
0.08
5.89
11.18
15.47
18.64
20.83
22.32
23.32
23.89
24.05
23.81
23.32
22.81
22.50
22.45
22.54
22.52
22.13
21.30
20.07
18.64
17.16
15.70
14.28
12.84
11.33
9.77
8.17
6.49
4.74
2.91
1.06
-0.65
-2.10
-3.23
-4.08
-4.83
-5.73
-6.91
-8.38
-10.01
-11.58
-12.91
-13.96
-14.80
-15.61
-16.59
-17.91
-19.66
-21.88
-24.43
-26.99
-28.97
-29.65
-28.32
-24.59
-18.56
-10.93
-2.78
4.72
10.67
14.59
16.54
16.96
16.41
15.44
14.37
13.35
12.34
11.28
10.11
8.84
7.54
6.26
5.02
3.82
2.70
1.69
0.85
0.20
-0.35
-0.94
-1.73
-2.78
-4.00
-5.16
-6.00
-6.39
-6.36
-6.08
-5.73
-5.39
-4.97
-4.29
-3.23
-1.78
-0.11
1.48
2.74
3.45
3.49
2.80
1.42
-0.41
-2.23
-3.35
-3.08
-1.01
2.77
7.70
12.94
17.69
21.42
23.92
25.18
25.18
23.85
21.12
17.08
12.08
6.75
1.79
-2.23
-5.03
-6.61
-7.18
-7.02
-6.31
-5.09
-3.28
-0.73
2.63
6.58
10.69
14.33
16.94
18.10
17.72
15.96
13.18
9.75
5.99
2.12
-1.69
-5.35
-8.72
-11.67
-14.10
-15.97
-17.35
-18.43
-19.53
-20.97
-23.01
-25.69
-28.79
-31.83
-34.15
-35.05
-34.02
-30.80
-25.60
-18.98
-11.74
-4.73
1.39
6.24
9.80
12.27
13.96
15.17
16.04
16.60
16.79
16.58
16.05
15.42
14.95
14.88
15.23
15.85
16.48
16.89
16.99
16.86
16.63
16.39
16.05
15.41
14.26
12.52
10.32
7.94
5.71
3.87
2.46
1.34
0.31
-0.88
-2.34
-4.11
-6.07
-8.03
-9.81
-11.30
-12.57
-13.84
-15.43
-17.58
-20.34
-23.48
-26.49
-28.69
-29.40
-28.05
-24.39
-18.56
-11.12
-3.00
4.71
11.00
15.20
17.16
17.17
15.83
13.75
11.44
9.17
7.11
5.37
4.06
3.34
3.26
3.80
4.80
6.14
7.75
9.66
11.95
14.63
17.53
20.34
22.62
24.03
24.36
23.59
21.87
19.46
16.64
13.65
10.70
7.88
5.19
2.54
-0.21
-3.11
-6.06
-8.87
-11.32
-13.31
-14.94
-16.46
-18.21
-20.52
-23.52
-27.21
-31.35
-35.51
-39.07
-41.30
-41.50
-39.23
-34.53
-27.96
-20.48
-13.17
-6.88
-2.00
1.46
3.82
5.42
6.56
7.40
8.04
8.57
9.07
9.54
9.93
10.11
9.95
9.39
8.55
7.65
6.94
6.62
6.72
7.07
7.40
7.40
6.89
5.88
4.48
2.84
1.03
-0.99
-3.29
-5.91
-8.73
-11.54
-14.10
-16.32
-18.33
-20.42
-22.93
-26.15
-30.15
-34.86
-40.02
-45.19
-49.68
-52.63
-53.14
-50.57
-44.86
-36.70
-27.41
-18.49
-11.18
-6.02
-2.83
-0.91
0.47
1.78
3.12
4.29
5.09
5.49
5.72
6.22
7.41
9.45
12.14
15.02
17.48
19.09
19.78
19.80
19.54
19.29
19.09
18.74
18.11
17.23
16.42
16.07
16.38
17.20
18.03
18.29
17.60
15.98
13.79
11.51
9.47
7.68
5.86
3.60
0.55
-3.42
-8.14
-13.15
-17.70
-20.93
-22.05
-20.57
-16.50
-10.45
-3.45
3.41
9.27
13.85
17.35
20.28
23.12
26.05
28.95
31.42
33.05
33.59
32.94
31.17
28.46
25.01
21.12
17.18
13.62
10.78
8.81
7.48
6.26
4.50
1.65
-2.40
-7.30
-12.25
-16.32
-18.74
-19.10
-17.44
-14.23
-10.17
-6.00
-2.28
0.60
2.55
3.60
3.92
3.67
3.01
1.98
0.55
-1.45
-4.18
-7.72
-11.88
-16.06
-19.35
-20.66
-19.23
-14.90
-8.23
-0.37
7.33
13.83
18.59
21.64
23.34
24.09
24.17
23.69
22.71
21.34
19.76
18.23
16.88
15.74
14.77
13.92
13.27
12.93
13.02
13.46
13.95
14.07
13.47
12.07
10.11
8.02
6.19
4.81
3.77
2.83
1.72
0.33
-1.31
-3.09
-4.87
-6.57
-8.16
-9.62
-10.96
-12.25
-13.61
-15.24
-17.39
-20.15
-23.37
-26.54
-28.90
-29.60
-28.01
-24.02
-18.09
-11.15
-4.29
1.57
5.87
8.49
9.66
9.78
9.27
8.43
7.46
6.44
5.39
4.32
3.27
2.34
1.59
1.08
0.78
0.56
0.27
-0.18
-0.83
-1.60
-2.39
-3.19
-4.06
-5.17
-6.67
-8.66
-11.09
-13.78
-16.52
-19.12
-21.51
-23.71
-25.83
-27.99
-30.33
-33.01
-36.14
-39.80
-43.81
-47.80
-51.12
-53.04
-52.96
-50.66
-46.32
-40.53
-34.05
-27.61
-21.77
-16.83
-12.88
-9.91
-7.82
-6.48
-5.71
-5.33
-5.15
-5.07
-5.05
-5.14
-5.35
-5.61
-5.66
-5.07
-3.32
0.06
5.35
12.57
21.47
31.57
42.23
52.64
61.99
69.49
74.51
76.72
76.13
73.12
68.41
62.90
57.50
52.84
49.11
45.93
42.44
37.58
30.37
20.28
7.36
-7.70
-23.60
-38.64
-50.94
-58.78
-60.95
-57.06
-47.56
-33.73
-17.36
-0.38
15.38
28.53
38.26
44.35
47.18
47.47
46.08
43.71
40.80
37.61
34.30
31.11
28.30
26.06
24.45
23.28
22.27
21.18
19.89
18.48
17.12
15.95
14.98
14.04
12.86
11.21
9.01
6.37
3.52
0.71
-1.95
-4.44
-6.87
-9.32
-11.82
-14.27
-16.50
-18.33
-19.68
-20.60
-21.25
-21.92
-22.91
-24.47
-26.73
-29.70
-33.16
-36.65
-39.50
-40.90
-40.10
-36.63
-30.51
-22.33
-13.07
-3.89
4.24
10.70
15.34
18.32
20.01
20.82
21.06
20.95
20.60
20.09
19.44
18.67
17.75
16.65
15.34
13.90
12.49
11.34
10.66
10.50
10.70
10.87
10.54
9.36
7.22
4.33
1.12
-1.93
-4.51
-6.58
-8.36
-10.18
-12.24
-14.55
-16.88
-18.90
-20.39
-21.33
-21.91
-22.43
-23.24
-24.56
-26.46
-28.80
-31.22
-33.14
-33.89
-32.83
-29.60
-24.24
-17.24
-9.37
-1.50
5.68
11.81
16.85
21.01
24.57
27.68
30.25
32.04
32.79
32.39
31.06
29.32
27.79
26.95
26.98
27.70
28.67
29.47
29.83
29.75
29.42
29.04
28.72
28.37
27.82
26.98
25.90
24.78
23.89
23.30
22.86
22.24
21.07
19.17
16.58
13.48
9.99
6.03
1.34
-4.43
-11.43
-19.55
-28.27
-36.74
-43.86
-48.48
-49.61
-46.71
-39.92
-30.14
-18.86
-7.84
1.39
7.92
11.59
12.90
12.64
11.60
10.32
8.99
7.59
6.05
4.39
2.71
1.21
-0.03
-1.05
-2.04
-3.17
-4.46
-5.74
-6.72
-7.15
-6.97
-6.39
-5.79
-5.55
-5.87
-6.73
-7.93
-9.24
-10.47
-11.57
-12.57
-13.51
-14.48
-15.53
-16.74
-18.16
-19.78
-21.51
-23.13
-24.43
-25.26
-25.69
-25.96
-26.46
-27.58
-29.49
-32.05
-34.76
-36.76
-37.11
-35.03
-30.19
-22.93
-14.16
-5.10
3.08
9.64
14.36
17.52
19.57
20.91
21.74
22.12
22.09
21.77
21.33
20.95
20.65
20.28
19.58
18.36
16.65
14.66
12.72
11.15
10.10
9.52
9.20
8.88
8.31
7.38
6.07
4.51
2.82
1.16
-0.37
-1.81
-3.24
-4.79
-6.54
-8.44
-10.36
-12.12
-13.58
-14.69
-15.49
-16.09
-16.69
-17.52
-18.90
-21.08
-24.17
-27.81
-31.20
-33.17
-32.57
-28.75
-21.91
-13.11
-3.89
4.26
10.38
14.16
15.89
16.12
15.38
14.08
12.54
11.01
9.75
8.89
8.46
8.31
8.24
8.07
7.71
7.17
6.54
5.97
5.54
5.30
5.26
5.30
5.29
5.03
4.35
3.08
1.18
-1.28
-4.09
-6.89
-9.33
-11.15
-12.31
-13.02
-13.59
-14.39
-15.65
-17.48
-19.90
-22.91
-26.48
-30.41
-34.23
-37.24
-38.62
-37.79
-34.58
-29.41
-23.11
-16.71
-11.10
-6.81
-3.99
-2.46
-1.85
-1.76
-1.91
-2.11
-2.23
-2.17
-1.82
-1.10
-0.04
1.20
2.40
3.40
4.20
5.01
6.09
7.56
9.28
10.84
11.80
11.89
11.18
10.05
8.91
8.04
7.48
7.07
6.62
6.06
5.42
4.84
4.48
4.40
4.62
5.08
5.64
6.05
5.99
5.07
3.04
-0.05
-3.79
-7.37
-9.78
-10.10
-7.77
-2.84
3.97
11.50
18.49
23.97
27.50
29.26
29.76
29.55
28.97
28.04
26.64
24.70
22.38
20.03
18.07
16.73
16.02
15.67
15.30
14.60
13.49
12.14
10.91
10.08
9.74
9.70
9.55
8.91
7.62
5.84
3.97
2.46
1.58
1.29
1.29
1.18
0.58
-0.69
-2.62
-5.05
-7.75
-10.52
-13.25
-15.91
-18.58
-21.37
-24.42
-27.81
-31.48
-35.16
-38.29
-40.08
-39.70
-36.52
-30.48
-22.17
-12.74
-3.54
4.37
10.42
14.68
17.57
19.55
20.91
21.71
21.92
21.61
21.03
20.52
20.34
20.50
20.74
20.69
20.04
18.73
17.01
15.24
13.81
12.83
12.18
11.56
10.60
9.07
6.89
4.16
1.06
-2.16
-5.29
-8.14
-10.59
-12.59
-14.17
-15.37
-16.27
-17.02
-17.80
-18.90
-20.63
-23.15
-26.41
-30.01
-33.30
-35.47
-35.85
-33.98
-29.86
-23.90
-16.82
-9.52
-2.81
2.73
6.88
9.75
11.67
12.97
13.89
14.49
14.73
14.54
13.94
13.06
12.06
11.09
10.20
9.33
8.39
7.29
6.05
4.81
3.73
2.91
2.33
1.78
0.98
-0.30
-2.12
-4.35
-6.71
-8.90
-10.72
-12.12
-13.23
-14.28
-15.53
-17.18
-19.34
-21.98
-24.84
-27.44
-29.16
-29.32
-27.42
-23.33
-17.32
-10.07
-2.45
4.68
10.70
15.31
18.53
20.59
21.74
22.17
21.98
21.25
20.09
18.68
17.30
16.14
15.26
14.53
13.68
12.47
10.79
8.81
6.82
5.18
4.07
3.41
2.91
2.20
0.98
-0.81
-3.06
-5.49
-7.84
-9.89
-11.55
-12.87
-14.05
-15.42
-17.35
-20.06
-23.47
-27.05
-29.92
-31.05
-29.67
-25.55
-19.11
-11.34
-3.45
3.48
8.84
12.51
14.80
16.21
17.11
17.68
17.82
17.39
16.31
14.75
13.04
11.57
10.55
9.91
9.44
8.84
7.98
6.88
5.67
4.46
3.18
1.67
-0.26
-2.68
-5.43
-8.27
-10.95
-13.41
-15.76
-18.21
-20.95
-23.99
-27.13
-30.10
-32.65
-34.71
-36.34
-37.81
-39.34
-41.09
-43.00
-44.82
-46.06
-46.16
-44.52
-40.75
-34.77
-26.89
-17.72
-8.02
1.49
10.33
18.25
25.20
31.25
36.43
40.72
44.13
46.69
48.57
50.00
51.32
52.83
54.68
56.88
59.22
61.42
63.26
64.65
65.72
66.67
67.65
68.58
69.04
68.38
65.87
60.90
53.26
43.28
31.78
19.97
9.12
0.21
-6.24
-10.34
-12.58
-13.63
-14.03
-14.10
-14.00
-13.88
-14.00
-14.73
-16.46
-19.37
-23.35
-28.03
-32.85
-37.12
-40.16
-41.36
-40.29
-36.77
-30.98
-23.48
-15.11
-6.84
0.48
6.33
10.56
13.41
15.26
16.46
17.22
17.55
17.43
16.88
16.06
15.17
14.37
13.66
12.89
11.89
10.60
9.13
7.74
6.69
6.08
5.79
5.51
4.86
3.61
1.67
-0.79
-3.48
-6.07
-8.32
-10.14
-11.57
-12.75
-13.87
-15.10
-16.53
-18.17
-19.88
-21.48
-22.76
-23.60
-24.07
-24.39
-24.88
-25.82
-27.35
-29.41
-31.68
-33.71
-34.86
-34.57
-32.38
-28.14
-22.10
-14.89
-7.40
-0.49
5.19
9.38
12.12
13.69
14.39
14.47
14.13
13.46
12.52
11.40
10.18
8.98
7.93
7.16
6.75
6.66
6.78
6.92
6.91
6.61
5.98
5.06
3.91
2.63
1.30
0.02
-1.16
-2.22
-3.19
-4.15
-5.19
-6.39
-7.77
-9.35
-11.09
-12.90
-14.66
-16.27
-17.69
-19.01
-20.41
-22.11
-24.18
-26.36
-28.11
-28.63
-27.16
-23.34
-17.34
-9.92
-2.16
4.88
10.50
14.48
17.00
18.39
18.97
18.91
18.34
17.40
16.30
15.31
14.58
14.15
13.84
13.42
12.73
11.74
10.57
9.44
8.49
7.77
7.20
6.63
5.89
4.92
3.73
2.37
0.91
-0.64
-2.26
-3.97
-5.74
-7.52
-9.23
-10.82
-12.23
-13.45
-14.52
-15.54
-16.64
-18.03
-19.88
-22.25
-24.98
-27.64
-29.55
-29.99
-28.38
-24.55
-18.81
-11.87
-4.64
2.05
7.66
11.97
15.05
17.10
18.33
18.89
18.85
18.34
17.51
16.55
15.64
14.90
14.33
13.84
13.33
12.80
12.35
12.15
12.30
12.69
13.00
12.85
11.93
10.23
8.03
5.76
3.81
2.32
1.19
0.18
-0.91
-2.15
-3.47
-4.79
-6.09
-7.41
-8.80
-10.25
-11.67
-13.00
-14.26
-15.63
-17.33
-19.51
-22.01
-24.36
-25.84
-25.70
-23.43
-18.93
-12.54
-4.97
2.85
10.03
15.90
20.13
22.76
24.15
24.74
24.90
24.83
24.49
23.78
22.64
21.17
19.60
18.16
16.98
16.04
15.21
14.32
13.32
12.29
11.37
10.68
10.17
9.63
8.80
7.49
5.75
3.77
1.82
0.07
-1.49
-3.05
-4.83
-6.98
-9.42
-11.88
-14.02
-15.54
-16.37
-16.61
-16.60
-16.72
-17.34
-18.70
-20.88
-23.75
-26.90
-29.72
-31.36
-31.00
-28.06
-22.51
-14.94
-6.46
1.64
8.34
13.15
16.14
17.76
18.54
18.81
18.72
18.24
17.38
16.24
14.99
13.81
12.81
11.97
11.18
10.34
9.41
8.45
7.53
6.74
6.08
5.47
4.74
3.74
2.35
0.58
-1.43
-3.47
-5.35
-6.98
-8.43
-9.84
-11.32
-12.85
-14.29
-15.46
-16.28
-16.86
-17.47
-18.43
-19.95
-22.00
-24.28
-26.27
-27.30
-26.76
-24.24
-19.69
-13.45
-6.22
1.10
7.66
12.88
16.56
18.84
20.02
20.43
20.29
19.73
18.88
17.91
17.02
16.38
16.00
15.76
15.40
14.76
13.80
12.62
11.48
10.57
9.94
9.50
9.05
8.38
7.40
6.17
4.79
3.40
2.05
0.66
-0.93
-2.85
-5.14
-7.63
-10.05
-12.04
-13.38
-14.06
-14.36
-14.77
-15.79
-17.80
-20.86
-24.57
-28.20
-30.77
-31.39
-29.47
-24.94
-18.32
-10.50
-2.51
4.77
10.82
15.49
18.86
21.08
22.30
22.62
22.18
21.22
20.06
19.00
18.23
17.76
17.48
17.22
16.78
16.06
15.04
13.80
12.49
11.32
10.43
9.86
9.52
9.19
8.66
7.78
6.54
5.05
3.49
1.98
0.58
-0.81
-2.29
-3.97
-5.80
-7.64
-9.22
-10.34
-10.91
-11.06
-11.08
-11.33
-12.13
-13.66
-15.91
-18.63
-21.40
-23.57
-24.43
-23.31
-19.83
-14.07
-6.66
1.40
8.95
15.05
19.22
21.53
22.47
22.66
22.63
22.66
22.81
23.05
23.40
23.96
24.81
25.87
26.86
27.35
26.96
25.57
23.43
20.98
18.66
16.65
14.79
12.66
9.87
6.25
1.97
-2.55
-6.80
-10.41
-13.20
-15.21
-16.55
-17.44
-18.06
-18.61
-19.27
-20.16
-21.37
-22.90
-24.68
-26.63
-28.71
-30.85
-33.05
-35.28
-37.45
-39.44
-41.05
-41.94
-41.64
-39.67
-35.67
-29.61
-21.90
-13.35
-4.94
2.44
8.25
12.33
14.87
16.22
16.63
16.25
15.08
13.07
10.31
7.02
3.62
0.59
-1.66
-2.89
-3.14
-2.60
-1.58
-0.31
1.08
2.57
4.18
5.91
7.67
9.38
10.98
12.48
13.93
15.34
16.64
17.65
18.13
17.91
16.97
15.45
13.60
11.66
9.74
7.86
5.91
3.72
1.11
-2.00
-5.59
-9.38
-12.78
-14.96
-15.06
-12.55
-7.46
-0.49
7.20
14.36
19.96
23.52
25.03
24.88
23.59
21.67
19.51
17.33
15.21
13.10
10.97
8.83
6.75
4.90
3.42
2.39
1.77
1.44
1.22
0.90
0.32
-0.63
-1.96
-3.65
-5.58
-7.64
-9.72
-11.74
-13.65
-15.49
-17.37
-19.39
-21.60
-23.93
-26.22
-28.26
-29.94
-31.38
-32.92
-35.00
-37.95
-41.78
-45.98
-49.65
-51.70
-51.16
-47.54
-41.04
-32.41
-22.78
-13.30
-4.76
2.49
8.59
13.98
19.13
24.40
29.86
35.35
40.44
44.65
47.54
48.84
48.47
46.57
43.45
39.51
35.24
31.10
27.48
24.54
22.19
20.12
17.93
15.30
12.15
8.65
5.13
2.01
-0.50
-2.35
-3.75
-5.04
-6.54
-8.51
-10.97
-13.73
-16.44
-18.76
-20.49
-21.65
-22.55
-23.63
-25.30
-27.77
-30.85
-33.98
-36.28
-36.80
-34.83
-30.16
-23.19
-14.81
-6.19
1.61
7.91
12.50
15.58
17.50
18.61
19.12
19.13
18.76
18.18
17.64
17.33
17.29
17.42
17.56
17.55
17.39
17.13
16.87
16.60
16.21
15.56
14.56
13.28
11.89
10.58
9.45
8.46
7.48
6.37
5.06
3.59
2.03
0.41
-1.31
-3.22
-5.33
-7.51
-9.47
-10.96
-11.83
-12.27
-12.68
-13.53
-15.16
-17.65
-20.76
-24.05
-26.96
-28.88
-29.23
-27.55
-23.64
-17.72
-10.45
-2.75
4.42
10.39
14.94
18.23
20.61
22.41
23.72
24.46
24.50
23.78
22.45
20.76
19.04
17.51
16.25
15.18
14.16
13.10
11.98
10.90
9.99
9.30
8.79
8.26
7.51
6.41
4.97
3.34
1.73
0.35
-0.74
-1.65
-2.55
-3.67
-5.14
-7.00
-9.16
-11.43
-13.62
-15.53
-17.03
-18.11
-18.88
-19.58
-20.53
-21.99
-24.11
-26.74
-29.44
-31.49
-32.08
-30.54
-26.59
-20.46
-12.95
-5.13
1.95
7.60
11.63
14.28
15.99
17.06
17.61
17.57
16.92
15.76
14.41
13.18
12.31
11.76
11.34
10.81
10.05
9.13
8.22
7.44
6.81
6.21
5.47
4.45
3.10
1.47
-0.32
-2.18
-4.06
-5.91
-7.76
-9.64
-11.58
-13.63
-15.77
-17.93
-19.96
-21.75
-23.20
-24.34
-25.28
-26.21
-27.37
-28.92
-30.93
-33.25
-35.45
-36.82
-36.56
-33.98
-28.78
-21.21
-12.04
-2.28
7.06
15.28
22.07
27.45
31.60
34.77
37.16
38.95
40.30
41.38
42.29
43.06
43.57
43.61
42.98
41.54
39.32
36.51
33.39
30.23
27.20
24.30
21.42
18.37
15.03
11.34
7.38
3.33
-0.58
-4.16
-7.31
-10.04
-12.42
-14.49
-16.23
-17.57
-18.43
-18.79
-18.70
-18.28
-17.66
-16.96
-16.32
-15.90
-15.91
-16.50
-17.62
-18.90
-19.71
-19.27
-16.99
-12.68
-6.76
-0.04
6.39
11.64
15.17
16.97
17.40
17.00
16.26
15.52
14.90
14.37
13.86
13.28
12.60
11.80
10.91
10.02
9.25
8.75
8.67
9.12
10.10
11.51
13.14
14.72
15.95
16.58
16.40
15.35
13.56
11.35
9.08
7.14
5.69
4.63
3.58
2.04
-0.37
-3.76
-7.84
-12.11
-16.05
-19.33
-21.96
-24.21
-26.44
-28.94
-31.78
-34.75
-37.38
-39.01
-38.94
-36.61
-31.85
-24.95
-16.68
-8.10
-0.22
6.28
11.17
14.59
16.84
18.20
18.81
18.78
18.19
17.24
16.14
15.05
14.01
12.96
11.80
10.53
9.23
8.06
7.17
6.61
6.34
6.24
6.16
5.96
5.49
4.64
3.36
1.65
-0.42
-2.72
-5.14
-7.58
-9.97
-12.22
-14.22
-15.90
-17.20
-18.20
-19.09
-20.15
-21.66
-23.77
-26.41
-29.16
-31.30
-31.94
-30.29
-26.00
-19.33
-11.21
-2.93
4.29
9.65
13.02
14.77
15.52
15.81
15.90
15.78
15.31
14.42
13.22
11.94
10.81
9.95
9.28
8.60
7.77
6.76
5.69
4.74
4.05
3.64
3.38
3.06
2.43
1.32
-0.34
-2.47
-4.86
-7.19
-9.15
-10.58
-11.55
-12.36
-13.44
-15.15
-17.68
-20.91
-24.49
-27.85
-30.31
-31.14
-29.81
-26.08
-20.13
-12.63
-4.52
3.17
9.62
14.42
17.60
19.43
20.29
20.50
20.22
19.58
18.66
17.57
16.44
15.37
14.43
13.66
13.10
12.73
12.50
12.24
11.78
10.95
9.72
8.24
6.75
5.47
4.43
3.45
2.20
0.46
-1.80
-4.31
-6.63
-8.36
-9.35
-9.81
-10.16
-10.91
-12.43
-14.84
-17.97
-21.42
-24.68
-27.11
-28.06
-26.97
-23.51
-17.78
-10.38
-2.29
5.38
11.72
16.27
19.08
20.54
21.18
21.43
21.50
21.39
21.05
20.45
19.65
18.80
18.03
17.37
16.76
16.05
15.12
14.02
12.91
12.00
11.37
10.91
10.28
9.14
7.32
4.98
2.52
0.39
-1.16
-2.20
-3.06
-4.17
-5.78
-7.85
-10.12
-12.24
-13.98
-15.29
-16.31
-17.25
-18.33
-19.70
-21.46
-23.61
-26.03
-28.34
-29.94
-30.10
-28.13
-23.73
-17.11
-9.08
-0.74
6.77
12.64
16.57
18.73
19.58
19.60
19.14
18.37
17.34
16.17
15.07
14.26
13.86
13.81
13.82
13.59
12.94
11.95
10.83
9.86
9.12
8.49
7.71
6.59
5.09
3.38
1.67
0.10
-1.35
-2.84
-4.58
-6.67
-9.05
-11.51
-13.72
-15.47
-16.68
-17.55
-18.47
-19.90
-22.16
-25.24
-28.68
-31.67
-33.26
-32.68
-29.58
-24.18
-17.17
-9.48
-2.05
4.40
9.44
12.96
15.10
16.16
16.46
16.35
16.02
15.62
15.16
14.59
13.88
13.05
12.16
11.30
10.53
9.89
9.41
9.17
9.19
9.44
9.74
9.83
9.42
8.35
6.66
4.57
2.40
0.40
-1.32
-2.82
-4.25
-5.75
-7.40
-9.17
-10.96
-12.62
-14.02
-15.09
-15.94
-16.78
-17.93
-19.71
-22.22
-25.24
-28.19
-30.26
-30.61
-28.65
-24.25
-17.81
-10.13
-2.23
4.93
10.68
14.73
17.13
18.21
18.40
18.13
17.69
17.24
16.77
16.20
15.48
14.58
13.56
12.52
11.53
10.63
9.83
9.10
8.45
7.94
7.64
7.52
7.48
7.28
6.64
5.33
3.30
0.73
-2.04
-4.60
-6.64
-8.06
-9.03
-9.85
-10.87
-12.25
-13.96
-15.79
-17.46
-18.78
-19.70
-20.28
-20.58
-20.57
-20.22
-19.55
-18.79
-18.25
-18.14
-18.32
-18.16
-16.70
-13.07
-6.87
1.54
11.20
20.85
29.39
36.18
41.04
44.12
45.69
46.01
45.29
43.78
41.70
39.27
36.60
33.74
30.62
27.17
23.36
19.30
15.20
11.28
7.73
4.60
1.81
-0.73
-3.09
-5.22
-6.93
-8.08
-8.62
-8.69
-8.50
-8.23
-7.92
-7.44
-6.64
-5.43
-3.98
-2.58
-1.57
-1.20
-1.55
-2.60
-4.24
-6.32
-8.65
-11.02
-13.21
-15.09
-16.68
-18.16
-19.83
-21.97
-24.65
-27.63
-30.28
-31.78
-31.31
-28.35
-22.93
-15.65
-7.49
0.42
7.20
12.37
15.90
18.02
19.08
19.36
19.01
18.13
16.80
15.23
13.64
12.27
11.19
10.34
9.54
8.61
7.55
6.52
5.77
5.49
5.57
5.70
5.42
4.42
2.65
0.36
-1.98
-3.94
-5.22
-5.80
-5.85
-5.67
-5.61
-5.91
-6.71
-7.92
-9.33
-10.67
-11.73
-12.47
-13.05
-13.76
-14.92
-16.75
-19.24
-22.11
-24.79
-26.53
-26.57
-24.39
-19.90
-13.58
-6.34
0.75
6.80
11.30
14.27
16.05
17.11
17.80
18.29
18.57
18.54
18.17
17.45
16.46
15.22
13.75
12.07
10.23
8.40
6.80
5.64
5.00
4.78
4.72
4.51
3.90
2.84
1.43
-0.10
-1.53
-2.74
-3.72
-4.57
-5.41
-6.32
-7.38
-8.60
-9.99
-11.55
-13.26
-15.09
-17.00
-18.98
-20.96
-22.77
-24.11
-24.53
-23.57
-20.92
-16.58
-10.94
-4.71
1.36
6.63
10.80
13.89
16.07
17.54
18.43
18.79
18.62
17.98
16.98
15.83
14.74
13.82
13.09
12.48
11.90
11.31
10.78
10.41
10.24
10.23
10.15
9.76
8.85
7.44
5.77
4.15
2.81
1.73
0.69
-0.61
-2.33
-4.38
-6.43
-8.12
-9.24
-9.84
-10.21
-10.71
-11.69
-13.38
-15.83
-18.90
-22.18
-25.01
-26.56
-26.07
-23.21
-18.20
-11.82
-5.12
0.90
5.65
8.96
11.07
12.36
13.21
13.83
14.32
14.69
14.90
14.97
14.89
14.68
14.32
13.80
13.09
12.23
11.34
10.59
10.12
9.95
9.90
9.67
8.98
7.68
5.91
3.95
2.18
0.84
-0.01
-0.53
-0.99
-1.66
-2.76
-4.36
-6.38
-8.59
-10.71
-12.47
-13.78
-14.75
-15.71
-17.07
-19.11
-21.84
-24.91
-27.62
-29.17
-28.87
-26.37
-21.75
-15.49
-8.30
-0.99
5.74
11.30
15.34
17.76
18.69
18.51
17.70
16.75
15.97
15.47
15.15
14.82
14.34
13.64
12.79
11.88
11.04
10.33
9.83
9.55
9.42
9.30
8.95
8.17
6.83
5.03
3.03
1.12
-0.50
-1.87
-3.16
-4.61
-6.35
-8.32
-10.30
-12.07
-13.51
-14.65
-15.68
-16.88
-18.51
-20.75
-23.57
-26.67
-29.41
-31.00
-30.67
-27.92
-22.75
-15.72
-7.79
-0.05
6.58
11.55
14.71
16.31
16.74
16.43
15.70
14.75
13.68
12.59
11.60
10.81
10.22
9.74
9.21
8.47
7.47
6.29
5.06
3.96
3.11
2.54
2.23
2.07
1.90
1.50
0.68
-0.64
-2.42
-4.44
-6.42
-8.13
-9.47
-10.49
-11.36
-12.31
-13.54
-15.20
-17.36
-19.91
-22.55
-24.73
-25.78
-25.04
-22.13
-17.10
-10.48
-3.19
3.70
9.25
12.95
14.79
15.18
14.76
14.13
13.63
13.33
13.06
12.65
11.99
11.17
10.43
9.97
9.88
10.05
10.26
10.33
10.18
9.88
9.56
9.29
9.00
8.53
7.71
6.49
4.94
3.24
1.56
-0.03
-1.52
-2.95
-4.35
-5.68
-6.89
-7.98
-9.04
-10.30
-11.99
-14.34
-17.34
-20.66
-23.66
-25.51
-25.44
-23.05
-18.42
-12.17
-5.18
1.67
7.76
12.77
16.64
19.45
21.26
22.15
22.28
21.90
21.37
20.98
20.85
20.90
20.94
20.82
20.53
20.24
20.13
20.32
20.74
21.22
21.53
21.53
21.21
20.58
19.72
18.67
17.51
16.36
15.35
14.61
14.14
13.79
13.23
12.13
10.28
7.70
4.67
1.56
-1.26
-3.65
-5.71
-7.69
-9.87
-12.44
-15.40
-18.65
-22.03
-25.36
-28.44
-31.02
-32.86
-33.70
-33.36
-31.74
-28.84
-24.76
-19.73
-14.13
-8.43
-3.14
1.36
4.87
7.43
9.18
10.24
10.66
10.39
9.41
7.81
5.83
3.84
2.23
1.27
1.00
1.26
1.69
1.93
1.80
1.35
0.85
0.63
0.86
1.43
2.01
2.22
1.70
0.28
-2.04
-5.14
-8.73
-12.29
-15.15
-16.62
-16.29
-14.32
-11.58
-9.42
-9.14
-11.50
-16.36
-22.74
-29.27
-34.74
-38.58
-40.93
-42.42
-43.66
-44.85
-45.64
-45.36
-43.41
-39.59
-34.19
-27.84
-21.24
-14.88
-9.05
-3.91
0.43
3.81
6.11
7.35
7.70
7.48
7.00
6.51
6.12
5.85
5.65
5.41
5.10
4.77
4.67
5.15
6.53
8.95
12.17
15.61
18.57
20.48
21.10
20.63
19.49
18.17
17.00
16.11
15.47
14.94
14.32
13.34
11.76
9.44
6.46
3.20
0.18
-2.13
-3.54
-4.25
-4.78
-5.64
-7.15
-9.24
-11.61
-13.79
-15.35
-15.92
-15.17
-12.91
-9.09
-3.99
1.82
7.59
12.58
16.29
18.63
19.79
20.13
20.01
19.63
19.12
18.50
17.75
16.89
15.95
14.95
13.96
13.06
12.30
11.75
11.43
11.35
11.47
11.76
12.11
12.37
12.33
11.82
10.78
9.35
7.82
6.49
5.53
4.86
4.23
3.32
1.92
0.08
-1.90
-3.65
-4.92
-5.68
-6.20
-6.88
-8.09
-10.04
-12.66
-15.68
-18.58
-20.82
-21.83
-21.14
-18.58
-14.25
-8.60
-2.29
3.89
9.32
13.57
16.55
18.40
19.34
19.68
19.62
19.32
18.81
18.11
17.24
16.20
15.02
13.79
12.57
11.46
10.54
9.87
9.48
9.37
9.42
9.44
9.17
8.40
7.05
5.25
3.26
1.42
-0.02
-1.05
-1.90
-2.89
-4.32
-6.33
-8.77
-11.34
-13.69
-15.54
-16.84
-17.70
-18.37
-19.17
-20.33
-22.01
-24.18
-26.54
-28.52
-29.37
-28.42
-25.28
-20.10
-13.49
-6.34
0.49
6.42
11.16
14.70
17.12
18.45
18.74
18.12
16.83
15.22
13.64
12.29
11.24
10.37
9.59
8.81
8.08
7.47
7.10
7.00
7.05
7.09
6.86
6.22
5.15
3.78
2.33
0.99
-0.13
-1.08
-2.01
-3.13
-4.59
-6.45
-8.55
-10.65
-12.44
-13.73
-14.52
-15.04
-15.68
-16.79
-18.56
-20.88
-23.38
-25.48
-26.57
-26.18
-24.05
-20.24
-15.07
-9.11
-3.01
2.68
7.55
11.45
14.37
16.40
17.59
17.95
17.51
16.35
14.66
12.73
10.86
9.31
8.21
7.55
7.21
7.00
6.73
6.24
5.46
4.43
3.22
1.89
0.44
-1.24
-3.26
-5.65
-8.26
-10.82
-13.01
-14.65
-15.74
-16.53
-17.34
-18.52
-20.31
-22.84
-26.18
-30.30
-35.05
-40.00
-44.49
-47.67
-48.80
-47.49
-43.87
-38.57
-32.53
-26.68
-21.72
-18.02
-15.61
-14.33
-13.87
-13.81
-13.67
-12.92
-11.08
-7.83
-3.10
2.92
9.76
16.85
23.59
29.50
34.34
38.13
41.01
43.14
44.54
45.03
44.38
42.46
39.36
35.42
31.10
26.78
22.66
18.81
15.27
12.11
9.51
7.58
6.28
5.33
4.37
3.03
1.09
-1.50
-4.64
-8.08
-11.47
-14.26
-15.79
-15.40
-12.64
-7.51
-0.53
7.33
15.01
21.60
26.67
30.26
32.69
34.38
35.57
36.28
36.35
35.67
34.28
32.50
30.81
29.66
29.31
29.71
30.46
30.98
30.61
28.81
25.30
20.14
13.69
6.57
-0.59
-7.20
-12.83
-17.19
-20.01
-21.06
-20.21
-17.63
-13.89
-9.86
-6.53
-4.65
-4.49
-5.80
-8.03
-10.54
-12.88
-14.87
-16.59
-18.24
-20.09
-22.28
-24.81
-27.51
-29.96
-31.64
-32.01
-30.62
-27.29
-22.13
-15.57
-8.25
-0.92
5.74
11.24
15.42
18.35
20.29
21.49
22.10
22.23
21.91
21.24
20.37
19.44
18.55
17.68
16.71
15.58
14.29
12.98
11.83
10.98
10.41
9.95
9.37
8.45
7.05
5.23
3.15
1.04
-0.87
-2.45
-3.69
-4.75
-5.81
-7.06
-8.59
-10.34
-12.15
-13.83
-15.25
-16.43
-17.51
-18.71
-20.21
-22.12
-24.41
-26.91
-29.31
-31.17
-31.94
-31.10
-28.32
-23.64
-17.48
-10.58
-3.81
2.14
6.83
10.17
12.30
13.48
13.98
14.03
13.88
13.67
13.48
13.31
13.03
12.54
11.78
10.78
9.74
8.84
8.26
8.01
7.96
7.87
7.49
6.72
5.59
4.29
2.99
1.76
0.53
-0.86
-2.56
-4.61
-6.85
-9.08
-11.08
-12.77
-14.19
-15.52
-16.98
-18.82
-21.20
-24.12
-27.40
-30.58
-33.05
-34.16
-33.45
-30.80
-26.53
-21.24
-15.68
-10.51
-6.21
-3.01
-0.93
0.19
0.56
0.51
0.26
0.02
-0.12
-0.08
0.17
0.68
1.51
2.67
4.15
5.92
8.02
10.51
13.48
16.84
20.33
23.52
25.94
27.31
27.61
27.04
25.89
24.40
22.66
20.62
18.21
15.41
12.32
9.11
5.98
3.07
0.45
-1.96
-4.26
-6.62
-9.19
-12.01
-15.00
-17.88
-20.18
-21.34
-20.86
-18.42
-14.13
-8.42
-2.05
4.14
9.45
13.48
16.20
17.85
18.78
19.31
19.59
19.61
19.24
18.42
17.22
15.93
14.84
14.18
13.92
13.88
13.74
13.35
12.73
12.10
11.66
11.49
11.43
11.18
10.51
9.34
7.81
6.20
4.78
3.68
2.85
2.13
1.28
0.13
-1.41
-3.33
-5.51
-7.83
-10.18
-12.50
-14.84
-17.32
-20.09
-23.28
-26.90
-30.72
-34.33
-37.11
-38.46
-37.90
-35.25
-30.74
-24.87
-18.36
-11.87
-5.94
-0.88
3.23
6.46
8.96
10.94
12.55
13.99
15.39
16.87
18.50
20.27
22.07
23.71
25.02
25.91
26.44
26.75
27.02
27.27
27.37
27.03
25.99
24.14
21.61
18.70
15.81
13.26
11.23
9.70
8.47
7.23
5.58
3.24
0.07
-3.82
-8.11
-12.34
-16.12
-19.23
-21.75
-23.97
-26.31
-29.14
-32.62
-36.68
-41.01
-45.13
-48.48
-50.55
-50.99
-49.67
-46.79
-42.76
-38.17
-33.55
-29.26
-25.37
-21.69
-17.86
-13.54
-8.52
-2.81
3.43
9.94
16.42
22.54
27.93
32.20
35.06
36.37
36.25
34.99
32.99
30.58
27.96
25.21
22.35
19.42
16.47
13.57
10.72
7.89
5.01
2.12
-0.65
-3.09
-5.07
-6.62
-7.97
-9.49
-11.53
-14.23
-17.43
-20.71
-23.43
-24.91
-24.62
-22.31
-18.11
-12.47
-6.10
0.19
5.72
10.04
13.01
14.75
15.51
15.59
15.28
14.79
14.33
13.98
13.78
13.71
13.74
13.93
14.34
15.06
16.10
17.31
18.39
18.97
18.63
17.01
13.82
8.88
2.24
-5.81
-14.70
-23.65
-31.90
-38.81
-43.92
-46.98
-47.84
-46.47
-42.99
-37.80
-31.58
-25.26
-19.77
-15.84
-13.82
-13.55
-14.49
-15.75
-16.34
-15.37
-12.28
-7.07
-0.29
7.09
13.96
19.44
23.06
24.85
25.18
24.58
23.52
22.32
21.14
20.09
19.19
18.48
17.94
17.49
16.98
16.27
15.25
13.92
12.44
11.04
9.94
9.21
8.74
8.26
7.52
6.40
5.00
3.50
2.11
0.87
-0.34
-1.70
-3.35
-5.24
-7.20
-8.97
-10.40
-11.45
-12.24
-12.99
-13.95
-15.36
-17.38
-19.97
-22.81
-25.31
-26.64
-26.02
-23.04
-17.82
-11.09
-3.92
2.59
7.70
11.15
13.15
14.13
14.51
14.58
14.43
14.04
13.41
12.61
11.72
10.86
10.12
9.52
9.04
8.63
8.24
7.80
7.28
6.66
5.98
5.30
4.64
3.98
3.23
2.30
1.13
-0.26
-1.79
-3.39
-5.01
-6.65
-8.29
-9.89
-11.38
-12.72
-13.97
-15.29
-16.88
-18.87
-21.13
-23.28
-24.72
-24.83
-23.17
-19.61
-14.47
-8.35
-2.04
3.77
8.60
12.29
14.91
16.64
17.59
17.81
17.30
16.13
14.56
12.95
11.66
10.89
10.60
10.54
10.42
10.09
9.54
8.90
8.33
7.88
7.50
7.05
6.39
5.46
4.27
2.93
1.51
0.14
-1.09
-2.03
-2.48
-2.32
-1.60
-0.66
-0.15
-0.84
-3.33
-7.81
-13.85
-20.52
-26.64
-31.08
-33.11
-32.44
-29.34
-24.40
-18.45
-12.30
-6.55
-1.48
2.89
6.72
10.10
12.99
15.23
16.61
17.06
16.68
15.76
14.61
13.47
12.45
11.54
10.71
9.96
9.29
8.66
7.96
7.08
5.96
4.75
3.73
3.22
3.35
3.95
4.59
4.78
4.16
2.67
0.54
-1.86
-4.21
-6.31
-8.12
-9.73
-11.29
-12.99
-15.02
-17.45
-20.15
-22.69
-24.46
-24.79
-23.21
-19.61
-14.33
-8.01
-1.43
4.71
9.90
13.87
16.57
18.10
18.71
18.73
18.50
18.25
18.12
18.04
17.86
17.41
16.61
15.50
14.26
13.13
12.29
11.83
11.69
11.72
11.67
11.35
10.61
9.42
7.87
6.10
4.32
2.67
1.24
0.01
-1.09
-2.23
-3.54
-5.14
-7.00
-8.99
-10.91
-12.55
-13.85
-14.95
-16.16
-17.82
-20.14
-23.01
-25.97
-28.29
-29.21
-28.16
-24.97
-19.93
-13.68
-7.03
-0.75
4.62
8.75
11.54
13.02
13.33
12.71
11.50
10.12
8.95
8.21
7.91
7.86
7.75
7.38
6.73
6.00
5.43
5.21
5.33
5.65
5.94
6.05
5.95
5.75
5.52
5.36
5.23
5.07
4.81
4.34
3.56
2.33
0.52
-2.02
-5.28
-9.10
-13.21
-17.26
-20.98
-24.25
-27.08
-29.54
-31.65
-33.24
-33.98
-33.41
-31.11
-26.89
-20.91
-13.67
-5.92
1.53
8.07
13.37
17.36
20.18
21.97
22.87
22.95
22.29
21.09
19.59
18.05
16.64
15.44
14.42
13.51
12.72
12.04
11.48
11.02
10.53
9.90
9.06
8.04
6.91
5.74
4.54
3.27
1.88
0.36
-1.23
-2.81
-4.26
-5.52
-6.56
-7.42
-8.20
-9.07
-10.21
-11.80
-13.89
-16.35
-18.75
-20.53
-21.04
-19.84
-16.82
-12.27
-6.81
-1.28
3.55
7.15
9.28
10.08
9.87
9.07
8.02
6.94
5.88
4.82
3.71
2.55
1.41
0.39
-0.39
-0.83
-0.90
-0.58
0.10
1.10
2.34
3.75
5.20
6.58
7.78
8.72
9.32
9.56
9.42
8.84
7.80
6.28
4.26
1.81
-0.96
-3.88
-6.82
-9.62
-12.25
-14.78
-17.43
-20.46
-24.11
-28.28
-32.47
-35.72
-36.92
-35.17
-30.15
-22.34
-12.82
-2.99
5.99
13.35
18.86
22.65
24.97
26.11
26.31
25.80
24.80
23.56
22.28
21.09
20.00
18.94
17.82
16.56
15.17
13.76
12.55
11.75
11.49
11.68
12.07
12.25
11.84
10.62
8.65
6.22
3.75
1.63
0.09
-0.92
-1.67
-2.56
-3.89
-5.76
-8.00
-10.24
-12.11
-13.44
-14.38
-15.31
-16.71
-18.85
-21.72
-24.95
-27.98
-30.16
-30.90
-29.82
-26.71
-21.70
-15.27
-8.25
-1.67
3.48
6.58
7.60
7.05
5.79
4.64
4.21
