1542215157.00
64.000000
-0.00
-0.00
-0.00
-0.00
-0.00
-0.00
-0.00
-0.00
-0.00
-0.00
0.00
0.01
0.01
-0.00
-0.03
-0.05
-0.05
0.00
0.13
0.36
0.66
1.01
1.37
1.72
2.06
2.40
2.79
3.24
3.80
4.42
5.06
5.66
6.20
6.68
7.15
7.68
8.31
9.14
10.09
11.04
11.88
12.56
13.14
13.76
14.65
15.96
17.91
20.32
22.90
25.38
27.58
29.57
31.68
34.32
37.81
42.54
48.15
54.10
59.83
64.97
69.58
74.14
79.34
85.71
93.76
103.00
112.62
121.73
129.77
136.75
143.30
150.75
157.77
166.64
177.95
191.79
206.97
220.57
228.25
225.36
208.53
176.87
132.76
80.05
23.07
-34.94
-92.44
-149.16
-205.23
-260.37
-313.74
-363.87
-409.83
-450.91
-486.50
-515.74
-537.23
-549.22
-549.96
-538.37
-514.21
-478.67
-433.88
-382.45
-327.02
-269.84
-212.63
-156.66
-102.95
-52.37
-5.90
35.58
71.43
101.35
125.50
144.38
158.69
169.15
176.37
180.75
182.57
182.07
179.51
175.23
169.65
163.18
156.15
148.81
141.30
133.69
126.02
118.33
110.69
103.16
95.80
88.68
81.83
75.25
68.95
62.95
57.25
51.86
46.78
42.03
37.58
33.45
29.62
26.08
22.83
19.85
17.16
14.73
12.57
10.66
8.99
7.54
6.30
5.25
4.38
3.65
3.05
2.57
2.19
1.89
1.66
1.50
1.39
1.32
1.29
1.28
1.31
1.36
1.44
1.53
1.65
1.79
1.95
2.14
2.35
2.58
2.85
3.14
3.46
3.81
4.20
4.62
5.08
5.58
6.13
6.70
7.33
8.00
8.71
9.48
10.29
11.15
12.06
13.01
14.02
15.08
16.21
17.41
18.68
20.01
21.38
22.75
24.06
25.24
26.17
26.72
26.77
26.20
24.91
22.87
20.06
16.56
12.42
7.86
3.05
-1.77
-6.39
-10.60
-14.22
-17.14
-19.27
-20.60
-21.13
-20.96
-20.16
-18.85
-17.17
-15.25
-13.22
-11.19
-9.21
-7.27
-5.40
-3.58
-1.81
-0.07
1.63
3.28
4.86
6.43
8.11
9.88
11.82
13.95
16.27
18.73
21.24
23.77
26.34
29.13
32.10
35.31
38.79
42.47
46.15
49.60
52.67
55.41
58.17
61.04
64.26
67.97
72.03
76.02
79.40
81.73
82.95
83.51
83.60
83.61
83.68
83.37
81.62
76.99
67.87
52.71
34.31
14.18
-6.29
-26.24
-45.46
-64.34
-83.67
-104.45
-127.68
-153.99
-183.81
-215.75
-246.49
-271.18
-284.87
-284.35
-269.49
-243.37
-211.07
-178.15
-148.35
-123.12
-102.15
-84.50
-69.49
-56.94
-46.75
-38.33
-30.91
-23.48
-15.40
-6.82
1.50
8.40
13.00
15.02
14.92
13.47
11.69
10.34
9.66
9.32
8.57
6.60
2.95
-2.26
-8.29
-13.93
-17.89
-19.15
-17.23
-12.24
-4.74
4.41
14.32
24.19
33.42
41.59
48.49
53.99
58.07
60.74
62.11
62.36
61.74
60.51
58.88
56.92
54.59
51.79
48.40
44.37
39.77
34.75
29.50
24.24
19.14
14.30
9.76
5.52
1.52
-2.31
-6.05
-9.90
-14.09
-18.78
-23.92
-29.13
-33.62
-36.42
-36.62
-33.68
-27.60
-18.89
-8.39
2.95
14.20
24.59
33.50
40.51
45.43
48.37
49.64
49.72
49.06
48.01
46.78
45.41
43.84
41.96
39.68
36.87
33.48
29.50
25.06
20.33
15.52
10.82
6.34
2.14
-1.78
-5.41
-8.81
-12.03
-15.24
-18.60
-22.26
-26.18
-30.09
-33.42
-35.39
-35.29
-32.65
-27.41
-19.98
-11.03
-1.35
8.36
17.56
25.85
32.89
38.40
42.18
44.16
44.54
43.68
42.14
40.48
39.18
38.49
38.40
38.67
38.91
38.72
37.84
36.18
33.81
30.92
27.68
24.22
20.57
16.73
12.65
8.24
3.32
-2.26
-8.56
-15.32
-21.88
-27.24
-30.26
-30.09
-26.51
-20.01
-11.64
-2.65
5.91
13.36
19.44
24.09
27.30
28.97
29.08
27.71
25.17
21.87
18.23
14.50
10.69
6.65
2.24
-2.60
-7.69
-12.79
-17.65
-22.15
-26.29
-30.19
-33.98
-37.73
-41.48
-45.23
-49.06
-53.11
-57.57
-62.50
-67.65
-72.25
-75.10
-74.87
-70.52
-61.77
-49.22
-34.23
-18.37
-3.04
10.82
22.68
32.20
39.12
43.16
44.30
42.87
39.58
35.38
31.10
27.30
24.14
21.47
19.05
16.65
14.17
11.61
9.00
6.36
3.66
0.82
-2.20
-5.37
-8.54
-11.56
-14.37
-17.04
-19.85
-23.16
-27.15
-31.72
-36.35
-40.24
-42.48
-42.36
-39.50
-34.04
-26.43
-17.39
-7.75
1.67
10.12
17.05
22.13
25.32
26.81
26.96
26.19
24.89
23.47
22.21
21.31
20.79
20.45
20.00
19.13
17.70
15.81
13.73
11.75
9.95
8.24
6.36
4.14
1.61
-1.06
-3.66
-6.15
-8.74
-11.71
-15.21
-19.06
-22.69
-25.32
-26.26
-25.17
-22.18
-17.69
-12.29
-6.41
-0.36
5.62
11.27
16.27
20.29
23.11
24.81
25.64
25.96
26.04
25.95
25.68
25.18
24.48
23.67
22.82
21.85
20.59
18.82
16.43
13.50
10.24
6.91
3.73
0.73
-2.20
-5.23
-8.52
-12.20
-16.30
-20.84
-25.77
-30.96
-36.10
-40.74
-44.30
-46.17
-45.96
-43.52
-39.07
-33.06
-26.03
-18.49
-10.78
-3.17
4.14
10.92
16.92
21.93
25.87
28.81
30.94
32.57
33.99
35.45
37.08
38.86
40.63
42.11
42.96
42.92
41.87
39.91
37.28
34.30
31.20
28.06
24.88
21.55
18.02
14.20
10.03
5.48
0.72
-3.73
-6.94
-7.73
-5.08
1.48
11.61
24.24
38.00
51.62
64.32
75.83
86.19
95.51
103.70
110.44
115.25
117.67
117.50
115.01
111.00
106.60
102.90
100.53
99.41
98.86
98.05
96.44
94.05
91.15
87.75
83.16
76.04
65.05
49.63
30.57
9.82
-10.25
-27.77
-41.93
-52.96
-61.58
-68.33
-73.33
-76.33
-77.29
-76.67
-75.54
-75.16
-76.42
-79.40
-83.31
-86.92
-89.09
-89.23
-87.47
-84.40
-80.73
-76.88
-72.90
-68.47
-63.20
-56.80
-49.31
-41.03
-32.51
-24.33
-16.87
-10.27
-4.39
0.97
5.77
9.56
11.55
10.94
7.35
1.00
-7.22
-15.91
-23.50
-28.51
-29.86
-27.12
-20.69
-11.74
-1.95
6.95
13.69
17.71
19.24
18.91
17.49
15.58
13.57
11.70
10.21
9.34
9.28
10.19
12.07
14.88
18.47
22.69
27.34
32.12
36.62
40.26
42.37
42.32
39.64
34.15
25.91
15.18
2.23
-12.68
-29.18
-46.62
-63.93
-79.69
-92.38
-100.81
-104.48
-103.71
-99.47
-93.02
-85.58
-78.08
-71.16
-65.26
-60.77
-58.04
-57.26
-58.24
-60.36
-62.59
-63.82
-63.26
-60.71
-56.61
-51.89
-47.53
-44.24
-42.44
-42.21
-43.45
-45.98
-49.50
-53.64
-57.93
-62.00
-65.74
-69.34
-73.15
-77.39
-81.81
-85.55
-87.32
-85.80
-80.14
-70.18
-56.62
-40.69
-23.90
-7.69
6.82
18.92
28.33
35.14
39.74
42.58
44.02
44.24
43.37
41.55
39.14
36.62
34.48
33.02
32.17
31.66
31.15
30.41
29.26
27.32
23.96
18.43
10.22
-0.50
-12.84
-25.47
-37.25
-47.65
-56.79
-64.94
-72.03
-77.24
-79.18
-76.64
-69.20
-57.65
-43.72
-29.50
-16.66
-6.10
2.14
8.46
13.36
17.12
19.76
21.26
21.73
21.55
21.34
21.72
23.00
25.04
27.24
28.77
28.92
27.39
24.32
20.24
15.74
11.27
6.94
2.65
-1.86
-6.82
-12.33
-18.46
-25.20
-32.42
-39.81
-46.69
-51.96
-54.34
-52.75
-46.71
-36.72
-24.08
-10.54
2.28
13.30
22.05
28.50
32.75
34.95
35.31
34.40
33.17
32.85
34.54
38.80
45.37
53.27
61.12
67.53
71.48
72.43
70.39
65.76
59.14
51.13
42.16
32.43
21.94
10.66
-1.32
-13.74
-26.10
-37.63
-47.39
-54.27
-57.25
-55.66
-49.46
-39.40
-26.88
-13.61
-1.11
9.57
17.98
24.14
28.27
30.58
31.30
30.64
28.96
26.67
24.28
22.14
20.37
18.88
17.36
15.50
13.05
10.00
6.47
2.73
-1.00
-4.59
-8.07
-11.62
-15.52
-20.05
-25.49
-32.01
-39.52
-47.63
-55.49
-61.87
-65.37
-64.82
-59.69
-50.24
-37.58
-23.28
-8.91
4.29
15.63
24.85
31.96
37.09
40.35
41.93
42.14
41.33
39.94
38.37
36.88
35.57
34.37
33.12
31.58
29.46
26.54
22.67
17.88
12.43
6.73
1.19
-3.96
-8.71
-13.36
-18.35
-24.13
-30.96
-38.73
-46.81
-54.12
-59.26
-60.86
-58.00
-50.55
-39.17
-25.26
-10.48
3.66
16.11
26.35
34.23
39.86
43.35
44.91
44.79
43.41
41.25
38.84
36.59
34.69
33.11
31.61
29.94
27.88
25.36
22.42
19.10
15.48
11.55
7.31
2.81
-1.82
-6.46
-11.00
-15.54
-20.39
-26.00
-32.77
-40.72
-49.25
-57.15
-62.80
-64.67
-61.79
-54.04
-42.23
-27.84
-12.54
2.15
15.15
25.85
34.05
39.82
43.37
44.98
44.97
43.73
41.66
39.18
36.71
34.53
32.72
31.14
29.55
27.68
25.42
22.80
19.92
16.86
13.58
10.00
6.05
1.80
-2.59
-6.88
-11.01
-15.13
-19.68
-25.18
-32.00
-40.04
-48.50
-55.97
-60.66
-61.06
-56.34
-46.80
-33.74
-19.04
-4.60
8.22
18.75
26.91
32.87
36.77
38.69
38.73
37.17
34.53
31.51
28.69
26.45
24.81
23.49
22.14
20.44
18.22
15.54
12.55
9.45
6.37
3.28
0.04
-3.58
-7.78
-12.73
-18.54
-25.24
-32.73
-40.67
-48.36
-54.69
-58.35
-58.19
-53.58
-44.67
-32.44
-18.38
-4.11
8.99
20.05
28.74
35.11
39.41
41.93
42.91
42.59
41.30
39.43
37.40
35.54
33.97
32.51
30.80
28.43
25.13
20.89
15.89
10.49
4.98
-0.47
-5.89
-11.42
-17.30
-23.70
-30.66
-38.22
-46.41
-55.20
-64.47
-73.71
-81.89
-87.57
-89.23
-85.77
-76.96
-63.61
-47.26
-29.71
-12.47
3.40
17.30
28.90
37.87
43.96
47.09
47.52
45.87
43.00
39.77
36.87
34.63
33.12
32.19
31.56
30.94
30.03
28.63
26.58
23.85
20.49
16.60
12.30
7.68
2.80
-2.33
-7.75
-13.57
-19.95
-27.12
-35.13
-43.63
-51.78
-58.17
-61.21
-59.57
-52.78
-41.46
-27.11
-11.69
3.02
15.85
26.29
34.29
39.94
43.36
44.72
44.34
42.81
40.82
38.96
37.52
36.38
35.21
33.68
31.69
29.36
26.90
24.45
21.84
18.73
14.76
9.74
3.84
-2.48
-8.68
-14.40
-19.56
-24.44
-29.52
-35.41
-42.54
-50.98
-60.23
-69.15
-76.15
-79.57
-78.30
-72.07
-61.76
-48.95
-35.50
-22.90
-12.02
-3.13
3.81
8.85
12.01
13.35
13.12
11.84
10.15
8.57
7.35
6.35
5.27
3.84
2.05
0.27
-0.87
-0.72
1.08
4.56
9.31
14.69
20.11
25.14
29.59
33.41
36.61
39.16
40.94
41.88
41.93
41.22
40.00
38.75
38.09
38.74
41.40
46.48
53.97
63.25
73.18
82.36
89.48
93.65
94.57
92.48
87.95
81.65
74.15
65.91
57.30
48.66
40.39
32.74
25.84
19.58
13.72
7.96
2.07
-4.00
-10.19
-16.33
-22.24
-27.78
-32.88
-37.57
-41.90
-46.02
-50.06
-54.24
-58.75
-63.75
-69.25
-75.01
-80.43
-84.64
-86.58
-85.36
-80.47
-72.08
-60.90
-48.00
-34.51
-21.23
-8.64
3.10
13.93
23.69
32.17
39.16
44.61
48.69
51.70
53.91
55.43
56.20
56.00
54.71
52.31
48.98
44.99
40.64
36.22
31.92
27.81
23.84
19.89
15.87
11.68
7.27
2.59
-2.45
-7.94
-13.83
-19.89
-25.64
-30.44
-33.67
-34.90
-34.01
-31.17
-26.81
-21.47
-15.77
-10.31
-5.57
-1.85
0.79
2.45
3.43
4.00
4.38
4.72
5.07
5.41
5.67
5.75
5.57
5.08
4.32
3.38
2.33
1.13
-0.31
-2.12
-4.37
-7.03
-9.93
-12.91
-15.83
-18.69
-21.54
-24.54
-27.77
-31.28
-35.01
-38.74
-42.08
-44.39
-44.94
-43.03
-38.21
-30.48
-20.32
-8.57
3.69
15.40
25.62
33.67
39.15
42.00
42.44
40.98
38.29
35.12
32.07
29.57
27.81
26.68
25.96
25.30
24.35
22.86
20.71
17.94
14.70
11.19
7.56
3.91
0.30
-3.24
-6.72
-10.21
-13.95
-18.28
-23.63
-30.21
-37.85
-45.83
-52.93
-57.74
-59.14
-56.62
-50.54
-41.96
-32.24
-22.62
-13.84
-6.09
0.76
6.94
12.44
17.05
20.45
22.44
23.11
22.75
21.88
21.08
20.95
22.00
24.38
27.75
31.26
33.66
33.81
31.02
25.27
17.20
7.75
-2.04
-11.34
-19.57
-26.46
-32.05
-36.76
-41.33
-46.62
-53.22
-61.06
-69.24
-76.22
-80.27
-79.95
-74.57
-64.38
-50.45
-34.40
-17.99
-2.79
10.11
20.16
27.36
32.04
34.74
35.96
36.14
35.64
34.77
33.85
33.11
32.66
32.38
31.99
31.18
29.72
27.54
24.73
21.48
17.99
14.39
10.79
7.22
3.62
-0.17
-4.44
-9.52
-15.54
-22.26
-28.89
-34.24
-37.04
-36.32
-31.70
-23.49
-12.57
-0.07
12.88
25.25
36.21
45.10
51.42
54.94
55.79
54.39
51.41
47.53
43.30
39.03
34.85
30.69
26.49
22.15
17.59
12.71
7.46
1.77
-4.36
-10.78
-17.31
-23.75
-29.98
-36.05
-42.22
-48.79
-55.98
-63.69
-71.34
-77.91
-82.13
-82.84
-79.36
-71.67
-60.46
-46.89
-32.30
-17.90
-4.58
7.06
16.72
24.19
29.37
32.30
33.21
32.51
30.78
28.58
26.36
24.26
22.22
20.03
17.53
14.70
11.66
8.60
5.64
2.73
-0.29
-3.66
-7.53
-11.97
-16.98
-22.62
-29.01
-36.26
-44.25
-52.50
-60.00
-65.46
-67.59
-65.55
-59.19
-49.06
-36.31
-22.25
-8.16
4.98
16.48
25.97
33.27
38.30
41.13
41.96
41.15
39.22
36.78
34.41
32.56
31.43
30.96
30.91
30.92
30.73
30.13
29.08
27.55
25.60
23.29
20.66
17.72
14.41
10.65
6.24
0.94
-5.46
-12.94
-21.07
-28.81
-34.64
-36.87
-34.21
-26.17
-13.40
2.54
19.60
35.82
49.81
60.96
69.27
75.06
78.77
80.70
81.12
80.27
78.34
75.57
72.06
67.80
62.65
56.47
49.21
41.09
32.54
24.06
16.05
8.64
1.69
-5.10
-11.97
-18.96
-25.91
-32.64
-39.11
-45.62
-52.66
-60.66
-69.60
-78.82
-87.05
-92.71
-94.39
-91.26
-83.31
-71.31
-56.58
-40.63
-24.91
-10.52
1.82
11.79
19.32
24.62
28.06
30.13
31.31
32.09
32.80
33.65
34.65
35.67
36.44
36.65
36.07
34.56
32.16
28.94
24.95
20.22
14.68
8.33
1.24
-6.42
-14.53
-23.08
-32.13
-41.70
-51.47
-60.58
-67.77
-71.60
-70.91
-65.18
-54.71
-40.52
-24.05
-6.89
9.58
24.28
36.56
46.18
53.23
58.06
61.15
62.96
63.82
63.90
63.21
61.79
59.73
57.25
54.55
51.71
48.66
45.20
41.22
36.71
31.78
26.55
21.00
14.91
8.12
0.61
-7.36
-15.41
-23.28
-30.99
-38.71
-46.46
-53.76
-59.57
-62.66
-62.06
-57.60
-49.97
-40.43
-30.30
-20.56
-11.67
-3.82
2.88
8.21
11.87
13.73
13.98
13.16
11.97
11.01
10.53
10.41
10.21
9.44
7.81
5.29
2.11
-1.36
-4.76
-7.86
-10.65
-13.26
-15.90
-18.83
-22.28
-26.41
-31.39
-37.27
-43.92
-50.89
-57.38
-62.33
-64.68
-63.77
-59.47
-52.28
-43.08
-32.88
-22.58
-12.81
-3.96
3.76
10.21
15.23
18.64
20.27
19.92
17.53
13.25
7.38
0.40
-7.14
-14.75
-22.12
-29.04
-35.42
-41.31
-46.85
-52.24
-57.75
-63.57
-69.70
-75.99
-82.16
-87.92
-93.21
-98.15
-103.12
-108.51
-114.51
-120.94
-127.14
-132.04
-134.30
-132.51
-125.47
-112.52
-93.69
-69.99
-43.16
-15.34
11.60
36.50
59.06
79.57
98.33
115.19
129.53
140.54
147.85
151.78
153.35
153.83
154.24
154.94
155.72
156.03
155.34
153.40
150.21
145.92
140.66
134.39
126.92
118.01
107.48
95.34
81.76
66.99
51.25
34.69
17.50
0.11
-16.70
-31.86
-44.32
-53.34
-58.72
-60.75
-59.95
-56.83
-51.79
-45.20
-37.49
-29.26
-20.98
-12.77
-4.30
5.07
15.81
27.77
40.07
51.34
60.29
66.34
69.74
71.46
72.69
74.39
76.96
80.29
83.82
86.62
87.49
85.02
78.05
66.22
50.46
33.01
16.76
4.27
-3.16
-5.82
-5.14
-2.83
-0.02
2.97
6.34
10.23
14.27
17.63
19.46
19.30
17.35
14.27
10.84
7.57
4.64
1.93
-0.73
-3.45
-6.21
-9.01
-11.91
-15.16
-19.03
-23.75
-29.35
-35.59
-42.10
-48.41
-54.13
-58.99
-62.87
-65.83
-68.06
-69.80
-71.22
-72.29
-72.68
-71.90
-69.45
-65.16
-59.29
-52.52
-45.73
-39.59
-34.44
-30.18
-26.54
-23.24
-20.14
-17.33
-14.93
-12.98
-11.47
-10.29
-9.38
-8.81
-8.72
-9.27
-10.51
-12.28
-14.28
-16.19
-17.77
-18.98
-20.00
-21.08
-22.47
-24.42
-27.06
-30.47
-34.62
-39.27
-43.99
-48.14
-51.09
-52.42
-52.01
-50.10
-47.08
-43.35
-39.16
-34.63
-29.83
-24.88
-20.00
-15.47
-11.51
-8.24
-5.69
-3.84
-2.67
-2.13
-2.12
-2.55
-3.27
-4.17
-5.20
-6.45
-8.03
-10.10
-12.68
-15.70
-18.97
-22.23
-25.27
-27.99
-30.47
-32.91
-35.59
-38.70
-42.33
-46.35
-50.29
-53.39
-54.71
-53.28
-48.42
-39.96
-28.38
-14.68
-0.16
13.95
26.68
37.45
46.02
52.34
56.46
58.52
58.79
57.65
55.63
53.32
51.17
49.43
48.08
46.90
45.54
43.58
40.59
36.26
30.47
23.43
15.72
8.15
1.50
-3.81
-7.81
-11.06
-14.24
-17.85
-21.84
-25.48
-27.62
-26.97
-22.51
-13.74
-0.71
16.01
35.51
56.66
78.16
98.60
116.58
130.98
141.33
147.90
151.68
153.91
155.58
157.01
157.80
157.26
154.77
150.24
144.08
136.95
129.38
121.37
112.53
102.25
90.10
76.06
60.56
44.34
28.13
12.51
-2.27
-16.23
-29.49
-42.25
-54.61
-66.68
-78.61
-90.60
-102.87
-115.65
-129.19
-143.75
-159.57
-176.76
-195.09
-213.84
-231.96
-248.28
-261.84
-272.16
-279.21
-283.14
-283.91
-281.26
-274.76
-264.20
-249.77
-232.11
-212.03
-190.29
-167.40
-143.79
-120.01
-96.86
-75.31
-56.28
-40.30
-27.45
-17.50
-10.12
-5.11
-2.33
-1.52
-2.07
-2.96
-2.95
-0.87
4.12
12.30
23.48
37.10
52.44
68.83
85.59
102.06
117.48
130.97
141.65
148.83
152.26
152.23
149.51
144.96
139.27
132.69
125.14
116.51
106.90
96.75
86.59
76.78
67.37
58.17
48.99
39.78
30.55
21.09
10.88
-0.75
-14.07
-28.39
-41.95
-52.36
-57.51
-56.36
-49.28
-37.67
-23.27
-7.44
9.01
25.60
41.76
56.63
69.14
78.36
83.94
86.12
85.61
83.26
79.72
75.40
70.55
65.53
60.79
56.89
54.22
52.87
52.50
52.55
52.38
51.52
49.69
46.80
42.83
37.70
31.26
23.29
13.53
1.84
-11.50
-25.73
-39.52
-51.17
-59.04
-62.11
-60.20
-54.07
-45.03
-34.53
-23.68
-13.25
-3.65
4.83
11.85
17.11
20.39
21.72
21.35
19.76
17.45
14.90
12.48
10.40
8.76
7.52
6.54
5.63
4.58
3.26
1.61
-0.31
-2.43
-4.73
-7.23
-10.06
-13.42
-17.56
-22.68
-28.73
-35.20
-41.13
-45.11
-45.75
-42.12
-34.15
-22.64
-9.01
5.15
18.52
30.30
40.13
47.94
53.77
57.69
59.83
60.49
60.08
59.04
57.74
56.38
54.94
53.27
51.17
48.48
45.19
41.43
37.50
33.74
30.38
27.52
25.08
22.85
20.57
17.99
14.92
11.21
6.90
2.19
-2.49
-6.44
-8.96
-9.49
-7.79
-4.05
1.22
7.40
13.89
20.25
26.12
31.13
34.86
36.87
36.83
34.65
30.65
25.50
20.05
15.15
11.45
9.18
8.21
8.05
8.01
7.40
5.67
2.59
-1.81
-7.22
-13.27
-19.63
-26.11
-32.66
-39.36
-46.34
-53.67
-61.27
-68.82
-75.65
-80.86
-83.37
-82.24
-76.98
-67.74
-55.37
-41.19
-26.74
-13.31
-1.83
7.30
14.04
18.62
21.31
22.49
22.61
22.17
21.65
21.44
21.63
22.07
22.38
22.18
21.22
19.49
17.09
14.18
10.82
6.98
2.60
-2.30
-7.59
-13.12
-18.81
-24.71
-31.08
-38.12
-45.75
-53.38
-59.85
-63.66
-63.45
-58.53
-49.22
-36.75
-22.87
-9.23
3.03
13.50
22.20
29.32
34.89
38.75
40.73
40.86
39.52
37.32
34.87
32.52
30.30
27.90
24.96
21.22
16.66
11.57
6.31
1.25
-3.45
-7.81
-12.03
-16.26
-20.60
-25.06
-29.70
-34.69
-40.31
-46.73
-53.73
-60.46
-65.57
-67.52
-65.21
-58.37
-47.74
-34.77
-21.13
-8.24
3.07
12.48
19.99
25.70
29.62
31.78
32.33
31.63
30.29
28.93
28.01
27.61
27.49
27.17
26.25
24.47
21.85
18.65
15.13
11.55
8.05
4.62
1.17
-2.48
-6.43
-10.84
-15.86
-21.64
-28.28
-35.63
-43.15
-49.84
-54.41
-55.61
-52.67
-45.61
-35.23
-22.89
-10.05
2.09
12.79
21.73
28.82
34.08
37.49
39.06
38.95
37.54
35.39
33.14
31.33
30.15
29.46
28.89
27.96
26.36
24.04
21.17
17.99
14.70
11.28
7.63
3.56
-1.01
-6.06
-11.59
-17.67
-24.46
-32.06
-40.20
-48.06
-54.28
-57.40
-56.29
-50.67
-41.19
-29.18
-16.15
-3.31
8.51
18.92
27.59
34.22
38.54
40.44
40.22
38.47
35.99
33.47
31.34
29.67
28.30
26.95
25.36
23.34
20.77
17.61
13.94
9.94
5.82
1.75
-2.21
-6.18
-10.35
-15.02
-20.44
-26.86
-34.34
-42.63
-50.99
-58.18
-62.69
-63.14
-58.77
-49.78
-37.29
-22.96
-8.47
4.88
16.42
25.89
33.31
38.71
42.07
43.44
43.05
41.34
38.91
36.40
34.20
32.48
31.07
29.65
27.89
25.52
22.48
18.83
14.72
10.32
5.77
1.13
-3.58
-8.41
-13.42
-18.73
-24.54
-31.07
-38.44
-46.42
-54.33
-60.97
-64.95
-65.04
-60.66
-52.04
-40.21
-26.65
-12.82
0.09
11.35
20.65
27.89
33.10
36.41
38.03
38.28
37.52
36.13
34.43
32.59
30.70
28.74
26.65
24.41
22.02
19.48
16.76
13.83
10.59
6.99
3.05
-1.14
-5.46
-9.91
-14.61
-19.82
-25.85
-32.91
-40.85
-49.07
-56.48
-61.67
-63.31
-60.52
-53.20
-42.11
-28.61
-14.27
-0.50
11.73
21.92
29.90
35.72
39.54
41.67
42.48
42.44
41.93
41.15
40.11
38.73
36.90
34.66
32.14
29.47
26.73
23.85
20.68
17.13
13.17
8.91
4.46
-0.11
-4.83
-9.85
-15.34
-21.43
-28.22
-35.63
-43.41
-50.92
-57.19
-60.99
-61.16
-57.03
-48.63
-36.86
-23.21
-9.35
3.28
13.75
21.70
27.23
30.66
32.43
32.88
32.35
31.08
29.38
27.62
26.16
25.27
24.95
24.90
24.56
23.40
21.05
17.57
13.35
8.93
4.72
0.84
-2.90
-6.83
-11.24
-16.32
-22.15
-28.75
-36.05
-43.71
-50.96
-56.61
-59.28
-57.84
-51.89
-41.95
-29.36
-15.84
-2.94
8.32
17.50
24.64
29.94
33.61
35.76
36.53
36.14
34.94
33.35
31.75
30.40
29.32
28.34
27.23
25.77
23.92
21.80
19.60
17.55
15.77
14.24
12.83
11.39
9.73
7.72
5.23
2.13
-1.66
-6.10
-10.84
-15.20
-18.19
-18.71
-15.90
-9.34
0.69
13.29
27.15
40.85
53.22
63.47
71.23
76.37
78.88
78.79
76.23
71.54
65.32
58.37
51.41
44.91
38.90
33.08
27.03
20.52
13.61
6.69
0.32
-5.02
-9.06
-11.94
-14.08
-16.13
-18.79
-22.59
-27.86
-34.64
-42.58
-50.84
-58.09
-62.62
-62.82
-57.78
-47.76
-34.33
-19.88
-6.88
2.97
9.15
12.27
13.45
13.75
13.76
13.62
13.34
13.05
13.17
14.24
16.66
20.42
25.00
29.55
33.12
35.02
34.96
33.13
30.03
26.30
22.53
19.12
16.27
13.93
11.83
9.48
6.35
1.92
-4.16
-12.04
-21.58
-32.34
-43.59
-54.32
-63.47
-70.10
-73.70
-74.37
-72.75
-69.86
-66.63
-63.68
-61.23
-59.16
-57.30
-55.55
-54.02
-52.88
-52.19
-51.74
-50.97
-49.11
-45.41
-39.49
-31.54
-22.25
-12.65
-3.74
3.78
9.54
13.40
15.31
15.24
13.16
9.32
4.23
-1.35
-6.65
-11.15
-14.77
-17.88
-21.05
-24.86
-29.64
-35.30
-41.39
-47.09
-51.49
-53.75
-53.31
-49.99
-44.06
-36.09
-26.89
-17.30
-8.04
0.38
7.71
13.91
19.04
23.20
26.49
28.97
30.74
31.92
32.64
33.07
33.27
33.28
33.08
32.59
31.72
30.33
28.32
25.64
22.37
18.70
14.87
11.10
7.49
4.02
0.58
-3.00
-6.84
-11.06
-15.72
-20.79
-25.99
-30.83
-34.53
-36.24
-35.26
-31.28
-24.54
-15.81
-6.13
3.41
11.94
18.99
24.43
28.41
31.20
33.10
34.35
35.13
35.52
35.59
35.36
34.81
33.93
32.75
31.26
29.51
27.48
25.19
22.59
19.65
16.31
12.49
8.14
3.26
-2.04
-7.58
-13.13
-18.58
-23.94
-29.41
-35.27
-41.57
-47.98
-53.67
-57.51
-58.40
-55.69
-49.47
-40.46
-29.80
-18.60
-7.71
2.38
11.42
19.17
25.40
29.89
32.63
33.88
34.14
34.00
33.89
33.98
34.18
34.23
33.89
33.04
31.76
30.21
28.53
26.71
24.59
21.89
18.43
14.23
9.50
4.62
-0.08
-4.45
-8.53
-12.56
-16.79
-21.42
-26.62
-32.53
-39.13
-46.23
-53.24
-59.21
-63.00
-63.54
-60.26
-53.29
-43.45
-31.97
-20.13
-8.96
1.01
9.64
17.00
23.19
28.22
32.06
34.71
36.31
37.16
37.60
37.92
38.23
38.45
38.43
38.03
37.24
36.17
34.97
33.74
32.47
31.02
29.24
27.05
24.49
21.68
18.71
15.58
12.17
8.29
3.81
-1.28
-6.90
-12.99
-19.55
-26.73
-34.67
-43.40
-52.56
-61.40
-68.82
-73.66
-75.01
-72.56
-66.66
-58.27
-48.63
-38.93
-30.08
-22.59
-16.66
-12.35
-9.64
-8.45
-8.55
-9.63
-11.31
-13.25
-15.31
-17.47
-19.71
-21.85
-23.32
-23.35
-21.13
-16.22
-8.74
0.54
10.48
19.93
28.10
34.65
39.66
43.30
45.63
46.52
45.70
42.95
38.21
31.53
23.04
12.88
1.35
-10.91
-22.80
-32.89
-39.66
-42.04
-39.70
-33.19
-23.70
-12.65
-1.25
9.65
19.63
28.44
35.94
41.97
46.43
49.35
50.95
51.54
51.46
50.98
50.17
49.05
47.59
45.81
43.78
41.60
39.34
37.00
34.47
31.60
28.32
24.64
20.67
16.55
12.34
7.98
3.22
-2.24
-8.69
-16.21
-24.55
-33.08
-40.87
-46.88
-50.21
-50.38
-47.46
-42.00
-34.84
-26.88
-18.87
-11.36
-4.78
0.49
4.13
5.97
6.11
4.95
3.06
1.01
-0.77
-2.08
-2.86
-3.12
-2.89
-2.29
-1.52
-0.95
-0.97
-1.88
-3.77
-6.50
-9.80
-13.36
-17.01
-20.72
-24.62
-28.91
-33.88
-39.82
-46.84
-54.70
-62.72
-69.69
-74.14
-74.75
-70.76
-62.24
-50.07
-35.64
-20.50
-5.96
7.11
18.25
27.32
34.39
39.59
43.14
45.32
46.47
46.87
46.75
46.22
45.34
44.13
42.68
41.12
39.57
38.08
36.51
34.68
32.39
29.52
26.13
22.33
18.29
14.07
9.67
5.01
-0.05
-5.69
-12.10
-19.30
-27.00
-34.43
-40.36
-43.36
-42.19
-36.25
-25.81
-11.95
3.75
19.66
34.49
47.50
58.41
67.24
74.20
79.53
83.52
86.46
88.65
90.28
91.36
91.73
91.19
89.61
87.11
84.08
80.96
78.10
75.48
72.63
68.79
63.11
54.99
44.25
31.27
16.78
1.72
-13.12
-27.23
-40.57
-53.37
-65.96
-78.43
-90.38
-100.94
-108.89
-113.08
-112.67
-107.45
-97.88
-84.92
-69.84
-54.00
-38.52
-24.21
-11.58
-0.88
7.74
14.11
18.09
19.58
18.66
15.56
10.64
4.28
-3.14
-11.26
-19.73
-28.19
-36.41
-44.37
-52.35
-60.77
-70.08
-80.54
-91.99
-103.80
-114.97
-124.40
-131.08
-134.53
-134.97
-133.41
-131.48
-130.91
-132.88
-137.37
-142.79
-146.31
-144.71
-135.54
-118.07
-93.41
-64.11
-33.02
-2.41
26.40
52.83
76.48
96.71
112.81
124.22
130.91
133.36
132.36
128.68
122.94
115.70
107.59
99.34
91.51
84.33
77.47
70.31
62.33
53.37
43.83
34.45
25.99
18.87
13.04
7.88
2.44
-4.25
-12.76
-22.95
-33.85
-43.85
-51.00
-53.51
-50.11
-40.46
-25.34
-6.65
12.84
30.16
42.86
49.78
51.28
49.00
45.02
41.08
37.95
35.52
33.22
30.59
27.76
25.32
23.97
24.03
25.18
26.45
26.64
24.85
20.80
14.89
7.90
0.54
-6.89
-14.64
-23.27
-33.35
-45.14
-58.43
-72.60
-86.70
-99.56
-109.89
-116.34
-117.83
-113.79
-104.52
-91.09
-75.00
-57.68
-40.05
-22.34
-4.41
13.89
32.21
49.58
64.49
75.25
80.35
78.92
70.86
57.03
39.06
19.11
-0.49
-17.73
-31.17
-40.26
-45.29
-47.28
-47.65
-47.81
-48.73
-50.63
-52.96
-54.68
-54.74
-52.51
-48.09
-42.15
-35.69
-29.63
-24.63
-20.99
-18.64
-17.21
-15.92
-13.74
-9.56
-2.67
6.76
17.55
27.75
35.39
39.17
38.98
35.70
30.71
25.10
19.30
13.03
5.74
-2.84
-12.49
-22.38
-31.41
-38.55
-43.11
-44.83
-43.87
-40.69
-35.88
-30.04
-23.76
-17.66
-12.34
-8.41
-6.36
-6.54
-9.01
-13.44
-19.15
-25.09
-30.02
-32.78
-32.57
-29.18
-23.02
-14.96
-5.97
3.09
11.75
19.81
27.16
33.66
39.05
43.07
45.61
46.83
47.07
46.80
46.31
45.68
44.81
43.47
41.57
39.15
36.41
33.56
30.71
27.78
24.54
20.72
16.20
10.97
5.14
-1.18
-8.00
-15.36
-23.23
-31.33
-39.02
-45.41
-49.49
-50.45
-47.90
-41.92
-33.11
-22.40
-10.76
0.85
11.66
21.10
28.82
34.58
38.34
40.15
40.23
38.96
36.84
34.47
32.36
30.88
30.20
30.34
31.18
32.49
33.99
35.38
36.29
36.40
35.50
33.54
30.64
26.96
22.64
17.65
11.78
4.86
-3.14
-11.79
-20.21
-27.16
-31.38
-31.90
-28.33
-20.99
-10.75
1.21
13.72
25.79
36.68
45.90
53.15
58.30
61.38
62.61
62.41
61.27
59.69
58.07
56.60
55.25
53.82
52.07
49.75
46.76
43.03
38.63
33.64
28.18
22.35
16.25
9.96
3.57
-2.95
-9.74
-17.04
-25.10
-34.01
-43.49
-52.75
-60.59
-65.60
-66.59
-62.93
-54.76
-42.92
-28.73
-13.64
1.07
14.41
25.74
34.75
41.38
45.80
48.34
49.41
49.46
48.83
47.77
46.39
44.76
42.83
40.58
37.98
35.08
31.97
28.78
25.65
22.68
19.81
16.88
13.61
9.71
5.01
-0.57
-6.89
-13.70
-20.65
-27.36
-33.35
-38.03
-40.79
-41.12
-38.71
-33.67
-26.48
-17.90
-8.72
0.36
8.81
16.24
22.34
26.83
29.60
30.76
30.64
29.72
28.46
27.18
25.95
24.74
23.44
21.97
20.26
18.34
16.17
13.74
11.05
8.21
5.38
2.70
0.21
-2.23
-4.93
-8.29
-12.49
-17.42
-22.57
-27.16
-30.35
-31.50
-30.31
-26.80
-21.28
-14.23
-6.18
2.23
10.43
17.85
24.06
28.81
32.03
33.81
34.43
34.19
33.49
32.64
31.84
31.15
30.46
29.62
28.51
27.15
25.70
24.39
23.47
23.03
22.89
22.57
21.37
18.48
13.15
4.86
-6.52
-20.68
-36.76
-53.41
-68.86
-81.20
-88.83
-90.82
-87.24
-79.11
-68.02
-55.69
-43.46
-32.20
-22.39
-14.32
-8.27
-4.40
-2.64
-2.48
-3.12
-3.65
-3.45
-2.44
-1.02
0.09
0.32
-0.58
-2.42
-4.78
-7.27
-9.74
-12.40
-15.61
-19.74
-25.03
-31.52
-39.13
-47.62
-56.54
-65.07
-72.01
-75.97
-75.73
-70.73
-61.27
-48.49
-34.06
-19.55
-6.05
5.91
16.33
25.32
32.92
38.99
43.35
46.00
47.24
47.55
47.50
47.48
47.55
47.52
47.06
45.93
44.03
41.43
38.31
34.82
31.03
26.95
22.49
17.52
11.93
5.66
-1.34
-9.06
-17.40
-26.10
-34.62
-42.11
-47.43
-49.41
-47.25
-40.74
-30.52
-17.86
-4.42
8.31
19.29
28.03
34.60
39.28
42.41
44.24
44.94
44.66
43.60
42.01
40.14
38.09
35.86
33.30
30.26
26.71
22.82
18.85
15.03
11.45
8.01
4.50
0.76
-3.22
-7.35
-11.51
-15.76
-20.28
-25.30
-30.81
-36.41
-41.24
-44.17
-44.22
-40.79
-33.93
-24.25
-12.79
-0.67
11.10
21.82
31.00
38.38
43.83
47.31
48.94
48.97
47.84
46.09
44.25
42.68
41.46
40.43
39.29
37.73
35.61
32.93
29.81
26.40
22.75
18.86
14.68
10.22
5.55
0.78
-4.07
-9.06
-14.38
-20.18
-26.41
-32.72
-38.45
-42.74
-44.80
-44.11
-40.59
-34.59
-26.81
-18.05
-9.04
-0.41
7.35
13.85
18.74
21.81
23.08
22.85
21.62
19.98
18.37
17.00
15.86
14.82
13.75
12.56
11.20
9.56
7.56
5.07
2.10
-1.26
-4.78
-8.25
-11.57
-14.83
-18.23
-22.09
-26.64
-31.89
-37.57
-43.14
-47.85
-50.92
-51.73
-49.93
-45.57
-39.03
-30.95
-22.06
-13.05
-4.53
3.07
9.45
14.44
18.03
20.33
21.56
22.01
21.96
21.67
21.27
20.88
20.51
20.13
19.68
19.03
18.08
16.79
15.12
13.10
10.68
7.82
4.48
0.65
-3.57
-8.07
-12.80
-17.81
-23.26
-29.21
-35.51
-41.68
-46.95
-50.44
-51.37
-49.29
-44.17
-36.39
-26.67
-15.90
-5.03
5.10
13.86
20.88
26.03
29.44
31.35
32.10
32.01
31.38
30.40
29.19
27.81
26.25
24.52
22.66
20.69
18.62
16.40
13.99
11.30
8.29
4.92
1.19
-2.86
-7.20
-11.76
-16.49
-21.40
-26.51
-31.95
-37.75
-43.80
-49.69
-54.73
-58.07
-58.86
-56.53
-50.92
-42.31
-31.40
-19.13
-6.57
5.27
15.58
23.86
29.96
34.08
36.60
37.97
38.56
38.63
38.33
37.76
36.98
36.06
34.97
33.66
32.02
29.99
27.55
24.75
21.62
18.22
14.52
10.52
6.26
1.84
-2.59
-6.93
-11.20
-15.61
-20.53
-26.33
-33.13
-40.60
-47.86
-53.60
-56.36
-55.04
-49.22
-39.34
-26.55
-12.37
1.76
14.73
25.87
34.87
41.61
46.17
48.70
49.55
49.16
48.01
46.50
44.85
43.12
41.23
39.11
36.78
34.30
31.82
29.41
27.02
24.44
21.41
17.68
13.14
7.91
2.27
-3.50
-9.15
-14.70
-20.37
-26.51
-33.42
-41.18
-49.45
-57.42
-63.93
-67.64
-67.41
-62.66
-53.60
-41.22
-27.06
-12.74
0.39
11.50
20.23
26.58
30.71
32.80
33.07
31.86
29.65
26.98
24.31
21.91
19.76
17.65
15.31
12.57
9.33
5.56
1.26
-3.59
-8.97
-14.82
-21.01
-27.40
-33.89
-40.43
-46.99
-53.58
-60.23
-66.89
-73.39
-79.28
-83.77
-85.78
-84.19
-78.25
-67.92
-54.01
-38.03
-21.77
-6.80
5.79
15.56
22.54
26.96
29.14
29.38
28.00
25.47
22.41
19.45
17.14
15.73
15.12
14.98
14.83
14.24
12.94
10.80
7.86
4.21
-0.00
-4.65
-9.63
-14.87
-20.41
-26.40
-33.16
-41.04
-50.37
-61.14
-72.79
-84.14
-93.49
-99.12
-99.72
-94.92
-85.37
-72.50
-58.02
-43.32
-29.23
-15.93
-3.23
9.06
20.94
32.15
42.24
50.82
57.68
62.93
66.87
69.96
72.62
75.11
77.43
79.41
80.76
81.20
80.52
78.66
75.69
71.72
66.90
61.43
55.58
49.68
44.04
38.83
33.94
28.90
23.13
16.18
8.20
0.09
-6.62
-10.19
-9.35
-3.76
5.84
17.93
30.72
42.71
52.96
61.14
67.30
71.65
74.41
75.79
76.06
75.50
74.37
72.84
70.92
68.46
65.24
61.08
56.01
50.28
44.28
38.41
32.87
27.58
22.18
16.25
9.47
1.86
-6.25
-14.40
-22.16
-29.39
-36.27
-43.20
-50.61
-58.79
-67.69
-76.82
-85.30
-91.94
-95.45
-94.84
-89.65
-80.17
-67.41
-52.82
-37.94
-24.11
-12.21
-2.65
4.53
9.58
12.84
14.69
15.50
15.56
15.09
14.22
12.98
11.32
9.22
6.72
3.98
1.26
-1.26
-3.56
-5.90
-8.71
-12.48
-17.44
-23.47
-30.15
-36.97
-43.51
-49.60
-55.37
-61.01
-66.70
-72.43
-77.87
-82.38
-85.01
-84.71
-80.54
-72.04
-59.44
-43.65
-26.09
-8.19
8.87
24.37
37.99
49.61
59.23
67.00
73.31
78.84
84.41
90.76
98.22
106.62
115.39
123.92
131.83
139.12
146.09
153.04
160.06
166.87
172.97
177.79
180.85
181.84
180.64
177.48
172.94
167.97
163.57
160.15
157.02
152.12
142.54
125.65
100.35
67.80
31.21
-5.26
-37.91
-64.49
-84.53
-98.78
-108.47
-114.67
-118.18
-119.61
-119.61
-118.91
-118.15
-117.66
-117.42
-117.15
-116.41
-114.87
-112.40
-109.08
-105.18
-101.13
-97.40
-94.31
-91.91
-89.96
-88.04
-85.78
-83.11
-80.35
-78.04
-76.65
-76.32
-76.79
-77.54
-78.02
-77.84
-76.83
-74.95
-72.26
-68.88
-65.03
-60.97
-57.05
-53.49
-50.34
-47.56
-45.02
-42.71
-40.72
-39.14
-38.00
-37.17
-36.43
-35.61
-34.66
-33.61
-32.49
-31.19
-29.44
-26.98
-23.68
-19.68
-15.42
-11.45
-8.23
-6.07
-5.07
-5.19
-6.38
-8.63
-11.84
-15.78
-19.97
-23.78
-26.58
-27.96
-27.82
-26.40
-24.09
-21.36
-18.54
-15.80
-13.12
-10.42
-7.56
-4.42
-0.91
2.97
7.12
11.39
15.51
19.17
22.02
23.79
24.41
24.10
23.38
22.87
23.05
23.99
25.36
26.51
26.84
26.09
24.31
21.85
19.04
16.04
12.86
9.49
6.04
2.74
-0.19
-2.67
-4.87
-7.17
-9.92
-13.27
-17.06
-20.89
-24.36
-27.21
-29.52
-31.63
-33.99
-36.95
-40.57
-44.44
-47.84
-49.94
-50.07
-48.09
-44.32
-39.53
-34.58
-30.14
-26.54
-23.76
-21.70
-20.29
-19.55
-19.59
-20.47
-22.06
-24.11
-26.31
-28.46
-30.50
-32.53
-34.76
-37.31
-40.23
-43.36
-46.47
-49.27
-51.51
-52.99
-53.52
-52.95
-51.24
-48.53
-45.29
-42.22
-40.18
-39.86
-41.71
-45.79
-51.85
-59.40
-67.78
-76.08
-83.17
-87.75
-88.58
-84.75
-75.99
-62.86
-46.67
-29.21
-12.39
2.20
13.56
21.39
26.01
28.11
28.48
27.79
26.51
24.96
23.30
21.69
20.26
19.09
18.28
17.86
17.82
18.06
18.41
18.60
18.37
17.55
16.08
14.12
11.93
9.79
7.85
6.10
4.24
1.84
-1.47
-5.79
-10.77
-15.60
-19.13
-20.14
-17.67
-11.21
-0.86
12.77
28.62
45.34
61.55
75.89
87.29
95.11
99.18
99.84
97.72
93.62
88.33
82.44
76.30
70.05
63.63
56.88
49.64
41.79
33.28
24.10
14.20
3.51
-8.06
-20.44
-33.35
-46.25
-58.55
-69.83
-80.06
-89.72
-99.66
-110.71
-123.29
-137.08
-150.88
-162.94
-171.37
-174.66
-171.95
-163.23
-149.10
-130.50
-108.49
-83.99
-57.84
-30.85
-3.82
22.46
47.22
69.63
88.64
102.96
111.49
114.04
112.01
108.57
107.72
112.77
124.73
141.52
158.67
171.03
174.78
168.61
153.67
132.57
108.11
82.45
57.01
32.74
10.39
-9.43
-26.39
-40.53
-52.09
-61.23
-67.73
-70.97
-70.13
-64.49
-53.82
-38.58
-19.96
0.32
20.29
38.09
52.43
62.79
69.45
73.26
75.26
76.21
76.45
75.92
74.43
71.86
68.36
64.23
59.85
55.46
51.10
46.57
41.59
35.88
29.33
21.96
14.03
5.83
-2.41
-10.60
-18.87
-27.42
-36.42
-45.81
-55.19
-63.83
-70.76
-74.94
-75.46
-71.73
-63.68
-51.87
-37.37
-21.63
-6.13
7.97
19.93
29.49
36.66
41.63
44.62
45.87
45.68
44.48
42.75
40.94
39.35
38.05
36.90
35.65
34.04
31.93
29.28
26.22
22.85
19.28
15.52
11.54
7.20
2.32
-3.33
-9.96
-17.64
-26.11
-34.67
-42.17
-47.24
-48.72
-45.96
-39.09
-28.99
-17.02
-4.56
7.25
17.67
26.39
33.27
38.29
41.44
42.78
42.52
41.07
38.98
36.73
34.69
32.92
31.34
29.67
27.71
25.25
22.23
18.66
14.65
10.33
5.83
1.19
-3.64
-8.82
-14.58
-21.20
-28.87
-37.58
-46.94
-56.16
-64.00
-69.07
-70.16
-66.64
-58.59
-46.88
-32.79
-17.75
-2.98
10.65
22.56
32.40
39.95
45.18
48.22
49.39
49.19
48.11
46.65
45.11
43.63
42.15
40.55
38.63
36.23
33.32
29.91
26.10
21.96
17.53
12.83
7.85
2.62
-2.87
-8.71
-15.12
-22.36
-30.62
-39.71
-48.92
-57.11
-62.90
-65.14
-63.15
-56.93
-47.05
-34.43
-20.18
-5.42
8.80
21.57
32.23
40.44
46.22
49.93
52.10
53.22
53.63
53.48
52.76
51.42
49.47
47.04
44.33
41.51
38.69
35.79
32.61
28.93
24.60
19.66
14.26
8.64
3.03
-2.48
-7.97
-13.65
-19.84
-26.85
-34.84
-43.69
-52.84
-61.28
-67.66
-70.57
-69.00
-62.64
-52.11
-38.77
-24.32
-10.30
2.31
13.17
22.35
30.01
36.16
40.67
43.38
44.39
44.07
42.95
41.51
39.97
38.30
36.39
34.14
31.66
29.12
26.60
24.06
21.28
18.05
14.22
9.85
5.13
0.25
-4.62
-9.48
-14.42
-19.73
-25.74
-32.74
-40.70
-49.13
-56.95
-62.77
-65.25
-63.54
-57.59
-48.13
-36.41
-23.77
-11.31
0.24
10.40
18.91
25.48
29.94
32.19
32.43
31.12
28.96
26.66
24.75
23.42
22.51
21.70
20.65
19.19
17.34
15.20
12.89
10.35
7.45
4.04
0.08
-4.31
-8.89
-13.51
-18.18
-23.19
-28.90
-35.46
-42.56
-49.25
-54.16
-55.85
-53.37
-46.55
-36.07
-23.23
-9.51
3.81
15.84
26.05
34.16
39.98
43.45
44.66
43.97
41.90
39.12
36.19
33.46
31.06
28.87
26.74
24.50
22.00
19.16
15.96
12.40
8.59
4.62
0.65
-3.30
-7.27
-11.44
-16.12
-21.66
-28.32
-36.07
-44.52
-52.81
-59.71
-63.89
-64.23
-60.18
-51.91
-40.24
-26.46
-11.97
1.94
14.32
24.58
32.45
37.96
41.25
42.62
42.42
41.06
38.93
36.42
33.83
31.36
29.06
26.83
24.47
21.73
18.44
14.57
10.25
5.69
1.13
-3.28
-7.53
-11.69
-15.95
-20.55
-25.81
-32.00
-39.22
-47.20
-55.17
-61.94
-66.10
-66.43
-62.32
-53.88
-42.00
-28.05
-13.50
0.39
12.75
23.12
31.32
37.31
41.09
42.71
42.33
40.32
37.16
33.43
29.67
26.24
23.27
20.72
18.36
15.88
13.04
9.68
5.87
1.77
-2.41
-6.56
-10.71
-14.98
-19.47
-24.25
-29.41
-35.01
-41.11
-47.59
-54.01
-59.51
-62.89
-63.00
-59.01
-50.81
-39.00
-24.77
-9.52
5.36
18.80
30.09
38.85
44.99
48.60
49.89
49.09
46.52
42.63
37.99
33.22
28.85
25.11
21.91
18.90
15.70
12.13
8.31
4.52
1.06
-2.01
-4.89
-7.98
-11.64
-16.15
-21.66
-28.21
-35.67
-43.63
-51.27
-57.36
-60.55
-59.75
-54.55
-45.46
-33.70
-20.83
-8.28
2.94
12.28
19.54
24.66
27.61
28.51
27.57
25.23
22.01
18.38
14.66
10.94
7.15
3.17
-1.03
-5.39
-9.81
-14.18
-18.42
-22.53
-26.49
-30.26
-33.82
-37.16
-40.48
-44.04
-48.04
-52.33
-56.27
-58.71
-58.35
-54.11
-45.59
-33.10
-17.57
-0.25
17.63
34.91
50.58
63.70
73.46
79.34
81.21
79.48
74.93
68.56
61.36
54.09
47.21
40.90
35.06
29.46
23.83
17.98
11.85
5.56
-0.64
-6.42
-11.58
-16.05
-20.07
-24.17
-28.98
-35.10
-42.66
-51.13
-59.21
-65.05
-66.72
-62.79
-52.90
-37.77
-19.12
0.90
20.24
37.31
51.08
61.05
67.10
69.35
68.25
64.55
59.28
53.59
48.48
44.57
41.98
40.34
38.91
36.85
33.32
27.77
19.96
10.14
-1.07
-12.79
-24.05
-34.05
-42.35
-48.90
-54.10
-58.59
-63.10
-68.13
-73.65
-78.95
-82.68
-83.31
-79.63
-71.32
-59.03
-44.23
-28.59
-13.55
-0.07
11.37
20.47
26.92
30.45
30.95
28.60
23.94
17.67
10.49
2.92
-4.70
-12.10
-19.12
-25.66
-31.71
-37.38
-42.80
-48.07
-53.14
-57.85
-62.12
-65.99
-69.75
-73.83
-78.73
-84.84
-92.29
-100.90
-110.03
-118.48
-124.58
-126.46
-122.53
-112.03
-95.39
-74.14
-50.37
-26.09
-2.72
18.96
38.47
55.24
68.45
77.30
81.41
81.32
78.40
74.49
71.27
69.87
70.72
73.82
78.96
85.88
94.17
103.18
112.00
119.59
125.07
127.86
127.72
124.75
119.34
112.27
104.57
97.52
92.17
89.10
88.15
88.56
89.42
90.15
90.79
91.88
94.05
97.60
102.30
107.51
112.54
116.78
119.78
121.22
120.83
118.60
114.84
110.22
105.48
101.08
96.78
91.64
84.30
73.47
58.54
39.79
18.35
-4.15
-25.98
-45.72
-62.42
-75.71
-85.67
-92.68
-97.20
-99.73
-100.74
-100.82
-100.69
-101.01
-102.26
-104.53
-107.40
-109.98
-111.11
-109.70
-105.01
-96.89
-85.80
-72.76
-58.97
-45.56
-33.35
-22.73
-13.84
-6.72
-1.44
1.96
3.70
4.40
5.03
6.72
10.43
16.75
25.75
37.14
50.34
64.71
79.55
94.04
107.19
117.78
124.50
126.30
122.90
115.11
104.96
95.00
87.41
82.88
80.28
77.05
70.36
58.46
41.21
19.70
-4.82
-31.87
-61.67
-94.10
-127.24
-157.01
-178.12
-186.31
-180.55
-163.86
-142.13
-121.61
-106.45
-97.52
-93.08
-90.50
-88.00
-85.29
-83.11
-82.18
-82.38
-82.77
-82.23
-80.21
-77.10
-74.07
-72.38
-72.72
-74.85
-77.75
-80.13
-81.12
-80.65
-79.55
-79.14
-80.69
-84.77
-91.04
-98.28
-104.78
-108.85
-109.31
-105.80
-98.69
-88.87
-77.33
-64.95
-52.36
-40.04
-28.48
-18.29
-10.24
-4.97
-2.71
-2.98
-4.65
-6.02
-5.32
-1.10
7.50
20.61
37.60
57.23
77.87
97.90
116.20
132.38
146.86
160.33
173.00
184.01
191.34
192.52
185.77
170.99
150.07
126.33
103.23
83.31
67.56
55.70
46.94
40.79
37.41
37.38
41.10
48.18
57.34
66.69
74.51
79.88
82.94
84.72
86.40
88.73
91.60
94.24
95.62
95.02
92.35
88.04
82.85
77.52
72.56
68.27
64.81
62.17
60.22
58.62
56.85
54.35
50.68
45.62
39.30
31.93
23.77
14.91
5.29
-5.12
-16.20
-27.63
-39.00
-49.97
-60.43
-70.42
-79.94
-88.72
-96.11
-101.32
-103.65
-102.86
-99.11
-92.83
-84.41
-74.04
-61.79
-47.88
-32.93
-17.98
-4.18
7.56
16.80
23.65
28.51
31.85
33.97
35.07
35.28
34.86
34.13
33.34
32.56
31.57
29.92
27.02
22.41
15.86
7.42
-2.58
-13.69
-25.45
-37.50
-49.50
-61.05
-71.47
-79.79
-84.91
-85.89
-82.42
-74.96
-64.73
-53.26
-41.95
-31.69
-22.75
-14.95
-8.05
-1.94
3.27
7.31
9.98
11.28
11.45
10.81
9.65
8.14
6.20
3.72
0.62
-3.05
-7.11
-11.35
-15.64
-19.98
-24.50
-29.39
-34.80
-40.82
-47.39
-54.32
-61.20
-67.35
-71.86
-73.64
-71.72
-65.43
-54.73
-40.34
-23.55
-6.06
10.46
24.67
35.76
43.40
47.72
49.07
47.94
44.90
40.54
35.46
30.17
24.92
19.71
14.31
8.40
1.72
-5.66
-13.38
-20.89
-27.62
-33.27
-37.90
-41.95
-46.06
-50.73
-56.15
-62.03
-67.65
-71.97
-73.90
-72.56
-67.46
-58.72
-47.09
-33.76
-20.14
-7.50
3.30
11.91
18.39
23.08
26.33
28.46
29.70
30.24
30.26
29.86
29.03
27.62
25.42
22.31
18.36
13.84
9.10
4.32
-0.63
-6.24
-13.13
-21.72
-31.99
-43.34
-54.72
-64.85
-72.52
-76.71
-76.73
-72.39
-64.06
-52.72
-39.92
-27.39
-16.70
-8.86
-4.11
-2.05
-1.96
-3.06
-4.76
-6.65
-8.39
-9.63
-10.04
-9.41
-7.83
-5.67
-3.41
-1.49
-0.11
0.66
0.75
-0.10
-2.29
-6.16
-11.54
-17.59
-22.82
-25.61
-24.71
-19.76
-11.33
-0.61
11.00
22.35
32.59
41.20
47.75
51.91
53.50
52.68
49.93
46.01
41.69
37.49
33.59
29.83
25.97
21.87
17.62
13.52
9.86
6.76
3.99
0.94
-3.18
-9.03
-16.86
-26.24
-35.99
-44.41
-49.68
-50.43
-46.16
-37.32
-25.22
-11.58
1.90
13.92
23.62
30.58
34.71
36.16
35.35
32.88
29.48
25.77
22.13
18.56
14.81
10.60
5.85
0.74
-4.36
-9.07
-13.27
-17.12
-21.01
-25.50
-31.11
-38.11
-46.39
-55.24
-63.32
-68.95
-70.53
-66.99
-58.22
-45.10
-29.23
-12.51
3.33
17.04
27.98
36.12
41.89
46.04
49.29
52.19
54.89
57.21
58.74
59.10
58.08
55.71
52.18
47.73
42.66
37.23
31.66
26.07
20.32
13.97
6.35
-3.24
-15.09
-28.78
-42.95
-55.54
-64.30
-67.57
-64.74
-56.45
-44.25
-30.04
-15.48
-1.75
10.44
20.59
28.19
32.80
34.17
32.53
28.60
23.52
18.45
14.26
11.28
9.37
8.05
6.86
5.59
4.36
3.45
3.09
3.26
3.54
3.20
1.34
-2.91
-10.09
-20.26
-32.72
-45.98
-57.96
-66.30
-69.02
-64.98
-54.30
-38.33
-19.26
0.53
18.93
34.51
46.49
54.59
58.80
59.23
56.20
50.27
42.38
33.64
25.19
17.82
11.83
7.10
3.26
0.01
-2.74
-4.90
-6.36
-7.23
-7.97
-9.38
-12.39
-17.77
-25.79
-36.05
-47.33
-57.77
-65.24
-67.91
-64.71
-55.65
-41.81
-24.99
-7.16
10.02
25.40
38.26
48.16
54.77
57.83
57.39
53.94
48.40
42.01
35.96
31.07
27.67
25.66
24.68
24.36
24.44
24.81
25.36
25.93
26.15
25.51
23.36
19.10
12.34
3.13
-7.94
-19.59
-30.11
-37.59
-40.49
-38.01
-30.38
-18.81
-5.13
8.66
20.89
30.47
36.91
40.18
40.49
38.20
33.81
28.03
21.71
15.77
10.92
7.44
5.06
3.14
1.00
-1.80
-5.26
-8.98
-12.46
-15.35
-17.68
-19.89
-22.69
-26.80
-32.63
-40.08
-48.36
-56.00
-61.15
-62.03
-57.51
-47.49
-32.94
-15.69
2.19
18.92
33.34
44.89
53.48
59.19
62.13
62.47
60.53
56.92
52.45
47.96
44.02
40.77
37.86
34.71
30.78
25.79
19.90
13.47
6.96
0.64
-5.41
-11.29
-17.19
-23.38
-30.23
-38.07
-47.12
-57.19
-67.51
-76.76
-83.32
-85.74
-83.14
-75.47
-63.50
-48.53
-32.01
-15.22
0.87
15.64
28.72
39.88
48.98
56.01
61.12
64.65
67.04
68.75
70.08
71.11
71.65
71.34
69.75
66.53
61.48
54.65
46.29
36.84
26.87
16.85
7.10
-2.29
-11.55
-21.01
-30.97
-41.54
-52.42
-62.79
-71.45
-77.00
-78.19
-74.30
-65.40
-52.38
-36.75
-20.35
-4.85
8.45
18.84
26.13
30.51
32.40
32.32
30.83
28.49
25.88
23.47
21.61
20.38
19.58
18.78
17.49
15.33
12.20
8.32
4.09
-0.13
-4.12
-7.94
-11.86
-16.24
-21.40
-27.56
-34.76
-42.80
-51.23
-59.26
-65.77
-69.44
-69.06
-63.88
-53.90
-39.97
-23.61
-6.64
9.23
22.73
33.16
40.41
44.70
46.46
46.16
44.27
41.25
37.57
33.67
29.86
26.24
22.69
19.04
15.16
11.14
7.30
4.08
1.81
0.50
-0.21
-0.99
-2.60
-5.67
-10.55
-17.15
-24.89
-32.74
-39.43
-43.56
-44.03
-40.22
-32.20
-20.75
-7.12
7.13
20.49
31.71
39.92
44.66
45.90
43.94
39.41
33.14
26.08
19.14
12.99
7.96
3.98
0.66
-2.53
-6.00
-9.93
-14.24
-18.68
-22.98
-26.99
-30.84
-34.86
-39.55
-45.46
-52.89
-61.67
-71.03
-79.55
-85.50
-87.26
-83.74
-74.79
-61.22
-44.63
-26.95
-10.02
4.80
16.73
25.52
31.29
34.36
35.18
34.24
32.16
29.50
26.72
23.99
21.21
18.09
14.46
10.57
7.07
4.83
4.54
6.28
9.48
12.99
15.50
15.89
13.40
7.73
-0.96
-11.99
-24.08
-35.47
-44.15
-48.39
-47.29
-41.02
-30.80
-18.46
-5.86
5.63
15.31
23.03
28.93
33.14
35.63
36.34
35.31
32.85
29.62
26.40
23.81
22.10
21.00
19.95
18.40
16.07
13.09
9.84
6.71
3.83
1.05
-2.00
-5.70
-10.30
-15.89
-22.52
-30.17
-38.62
-47.30
-55.03
-60.25
-61.33
-57.24
-47.99
-34.78
-19.57
-4.46
8.96
19.92
28.35
34.57
38.88
41.39
42.15
41.28
39.15
36.31
33.32
30.53
27.97
25.47
22.75
19.67
16.25
12.68
9.20
6.04
3.32
1.13
-0.55
-1.87
-3.10
-4.73
-7.42
-11.82
-18.36
-26.95
-36.76
-46.20
-53.29
-56.07
-53.18
-44.32
-30.34
-13.01
5.48
22.98
37.80
48.83
55.52
57.80
56.04
50.98
43.69
35.39
27.23
20.11
14.53
10.67
8.44
7.66
8.03
9.17
10.57
11.62
11.75
10.63
8.20
4.71
0.56
-3.90
-8.47
-13.25
-18.56
-24.85
-32.42
-41.17
-50.36
-58.59
-64.06
-65.11
-60.76
-51.16
-37.59
-22.10
-6.78
6.76
17.70
25.99
31.87
35.61
37.34
37.12
35.19
32.11
28.66
25.59
23.37
21.96
20.90
19.58
17.51
14.54
10.93
7.13
3.57
0.44
-2.34
-5.09
-8.16
-11.89
-16.53
-22.26
-29.15
-37.09
-45.51
-53.38
-59.19
-61.42
-59.00
-51.69
-40.19
-25.85
-10.23
5.30
19.70
32.24
42.28
49.21
52.57
52.28
48.75
42.93
36.17
29.82
25.00
22.25
21.52
22.27
23.63
24.79
25.14
24.46
22.73
20.13
16.78
12.71
7.83
2.01
-4.86
-12.91
-22.14
-32.31
-42.80
-52.48
-59.88
-63.48
-62.23
-55.88
-45.13
-31.42
-16.48
-1.91
11.15
22.06
30.55
36.58
40.21
41.56
40.96
38.96
36.31
33.76
31.87
30.83
30.38
29.95
28.88
26.62
23.00
18.15
12.54
6.68
1.01
-4.26
-9.24
-14.23
-19.70
-26.08
-33.65
-42.43
-51.93
-61.20
-68.84
-73.23
-73.05
-67.63
-57.27
-43.12
-26.91
-10.37
5.16
18.86
30.39
39.62
46.45
50.76
52.59
52.15
49.98
46.75
43.14
39.71
36.72
34.24
32.10
30.05
27.75
24.90
21.26
16.76
11.47
5.65
-0.34
-6.19
-11.70
-16.94
-22.25
-28.14
-35.06
-43.09
-51.69
-59.56
-64.98
-66.23
-62.23
-52.87
-39.13
-22.80
-5.91
9.75
22.96
33.12
40.16
44.32
46.02
45.76
44.14
41.78
39.24
36.97
35.19
33.87
32.74
31.43
29.54
26.83
23.24
18.90
14.13
9.24
4.53
0.08
-4.20
-8.61
-13.55
-19.42
-26.50
-34.79
-43.90
-52.89
-60.37
-64.72
-64.55
-59.17
-48.93
-35.16
-19.73
-4.53
9.06
20.34
29.05
35.13
38.48
39.01
36.92
32.77
27.55
22.33
17.86
14.37
11.49
8.61
5.11
0.77
-4.25
-9.46
-14.35
-18.52
-21.80
-24.26
-26.10
-27.69
-29.51
-32.09
-35.91
-41.03
-46.88
-52.16
-55.11
-54.12
-48.35
-38.06
-24.60
-9.86
4.39
16.90
27.15
35.04
40.66
44.00
45.02
43.78
40.62
36.16
31.14
26.23
21.85
18.04
14.61
11.19
7.48
3.28
-1.36
-6.26
-11.13
-15.71
-19.89
-23.66
-27.12
-30.36
-33.49
-36.59
-39.78
-43.08
-46.27
-48.75
-49.57
-47.63
-42.10
-32.80
-20.37
-6.09
8.47
21.99
33.71
43.49
51.55
58.17
63.45
67.24
69.34
69.63
68.28
65.69
62.36
58.68
54.80
50.63
46.00
40.86
35.31
29.59
23.95
18.51
13.20
7.79
2.02
-4.26
-11.05
-18.24
-25.73
-33.51
-41.56
-49.55
-56.54
-60.99
-61.09
-55.43
-43.72
-27.12
-8.05
10.56
26.26
37.67
44.68
48.08
48.98
48.37
46.89
44.87
42.48
39.82
36.97
34.01
30.96
27.90
24.92
22.08
19.43
16.94
14.51
11.99
9.23
6.10
2.55
-1.44
-5.85
-10.70
-16.02
-21.92
-28.55
-36.07
-44.49
-53.47
-62.17
-69.20
-72.91
-71.79
-65.02
-52.82
-36.48
-18.02
0.32
16.73
30.14
40.27
47.33
51.71
53.81
53.93
52.33
49.40
45.57
41.26
36.78
32.28
27.77
23.22
18.61
13.95
9.21
4.36
-0.63
-5.83
-11.30
-17.14
-23.50
-30.51
-38.27
-46.70
-55.66
-64.94
-74.21
-82.90
-90.02
-94.18
-93.75
-87.35
-74.44
-55.60
-32.52
-7.57
16.79
38.45
56.03
68.85
76.88
80.56
80.62
77.94
73.35
67.60
61.25
54.74
48.42
42.47
37.00
31.91
27.04
22.18
17.19
12.04
6.85
1.74
-3.20
-7.93
-12.49
-17.02
-21.66
-26.63
-32.15
-38.45
-45.58
-53.27
-60.67
-66.47
-69.07
-67.17
-60.18
-48.59
-33.79
-17.72
-2.19
11.42
22.44
30.65
36.13
39.07
39.75
38.58
36.15
33.16
30.24
27.79
25.93
24.49
23.13
21.51
19.38
16.68
13.57
10.27
7.01
3.89
0.85
-2.35
-6.09
-10.74
-16.55
-23.42
-30.84
-37.72
-42.56
-43.78
-40.18
-31.41
-18.15
-1.94
15.28
31.70
46.08
57.86
67.02
73.86
78.77
82.18
84.53
86.19
87.38
88.11
88.10
86.92
83.99
78.79
70.90
60.16
46.79
31.37
14.71
-2.44
-19.64
-36.81
-54.21
-72.11
-90.55
-109.15
-127.09
-143.16
-155.97
-164.12
-166.35
-161.85
-150.45
-132.77
-110.19
-84.65
-58.31
-33.29
-11.37
6.24
18.98
26.99
30.96
31.80
30.43
27.63
23.98
19.99
16.18
12.96
10.58
8.96
7.69
6.19
3.94
0.64
-3.71
-8.96
-14.92
-21.59
-29.16
-38.00
-48.50
-60.93
-75.22
-90.85
-106.70
-121.07
-131.95
-137.46
-136.27
-128.13
-113.90
-95.30
-74.38
-52.95
-32.24
-12.93
4.57
19.75
31.97
40.52
45.03
45.74
43.73
40.64
38.25
37.98
40.46
45.43
51.88
58.42
63.80
67.33
69.13
70.08
71.43
74.25
78.82
84.35
89.27
91.76
90.64
86.05
79.61
74.05
72.50
77.59
90.70
111.23
136.35
161.17
179.83
187.06
179.95
159.01
127.98
92.47
57.94
28.06
4.05
-14.76
-29.76
-41.99
-51.80
-59.08
-63.91
-66.84
-68.75
-70.44
-72.18
-73.69
-74.30
-73.49
-71.26
-68.36
-66.06
-65.72
-68.22
-73.48
-80.35
-86.83
-90.56
-89.59
-83.00
-71.09
-55.32
-37.70
-20.14
-3.90
10.49
22.99
33.58
41.96
47.60
50.04
49.31
46.17
41.90
37.93
35.25
34.08
33.94
33.93
33.21
31.34
28.30
24.39
19.94
15.05
9.63
3.46
-3.78
-12.38
-22.60
-34.40
-47.30
-60.06
-70.77
-77.13
-77.14
-69.85
-55.80
-36.94
-16.10
3.92
21.07
34.31
43.46
48.77
50.50
48.92
44.43
37.83
30.30
23.16
17.43
13.50
10.95
8.92
6.49
3.15
-1.04
-5.61
-10.00
-13.84
-17.21
-20.48
-24.25
-29.05
-35.26
-42.95
-51.79
-60.94
-69.06
-74.40
-75.28
-70.56
-60.14
-45.18
-27.70
-10.00
6.10
19.68
30.68
39.47
46.42
51.58
54.77
55.79
54.80
52.45
49.70
47.49
46.32
46.06
45.97
45.09
42.56
38.03
31.70
24.17
16.14
8.05
-0.00
-8.30
-17.29
-27.40
-38.80
-51.31
-64.20
-76.24
-85.77
-91.03
-90.60
-83.84
-71.17
-54.02
-34.54
-15.03
2.60
17.15
28.16
35.74
40.22
41.99
41.43
39.03
35.43
31.42
27.73
24.81
22.63
20.74
18.46
15.24
10.89
5.67
0.12
-5.17
-9.84
-13.77
-17.12
-20.15
-23.09
-26.15
-29.41
-32.82
-36.05
-38.36
-38.66
-35.74
-28.69
-17.28
-2.16
15.29
33.31
50.27
64.93
76.56
84.86
89.82
91.65
90.84
88.07
84.22
80.17
76.52
73.42
70.49
67.00
62.14
55.44
46.98
37.40
27.67
18.72
11.09
4.79
-0.76
-6.56
-13.68
-23.02
-34.83
-48.57
-62.80
-75.50
-84.54
-88.33
-86.27
-78.91
-67.66
-54.36
-40.81
-28.39
-18.01
-10.13
-4.86
-2.03
-1.23
-1.85
-3.14
-4.41
-5.15
-5.23
-4.86
-4.52
-4.74
-5.90
-8.05
-10.94
-14.18
-17.34
-20.17
-22.65
-24.97
-27.47
-30.54
-34.57
-39.68
-45.59
-51.55
-56.31
-58.47
-56.91
-51.20
-41.74
-29.71
-16.58
-3.68
8.10
18.41
27.20
34.43
39.95
43.52
44.93
44.32
42.19
39.31
36.49
34.32
32.99
32.26
31.61
30.49
28.53
25.62
21.92
17.74
13.31
8.68
3.64
-2.14
-9.08
-17.48
-27.36
-38.38
-49.72
-60.03
-67.73
-71.31
-69.83
-63.25
-52.50
-39.23
-25.29
-12.17
-0.78
8.57
15.86
21.10
24.16
24.96
23.60
20.55
16.64
12.73
9.49
7.12
5.39
3.69
1.39
-1.90
-6.26
-11.26
-16.25
-20.49
-23.41
-24.81
-24.89
-24.21
-23.52
-23.62
-25.10
-28.20
-32.62
-37.47
-41.37
-42.77
-40.36
-33.54
-22.60
-8.61
6.91
22.49
36.97
49.59
59.80
67.20
71.42
72.32
70.17
65.69
59.95
54.11
49.00
44.97
41.76
38.76
35.28
30.82
25.24
18.79
11.95
5.27
-0.87
-6.32
-11.26
-16.12
-21.42
-27.67
-35.16
-43.80
-53.00
-61.67
-68.31
-71.40
-69.80
-63.15
-52.00
-37.69
-22.00
-6.66
7.02
18.19
26.52
31.92
34.46
34.38
32.13
28.42
24.14
20.16
17.08
15.05
13.74
12.51
10.73
8.06
4.60
0.78
-2.87
-5.99
-8.66
-11.27
-14.41
-18.61
-24.22
-31.26
-39.43
-48.05
-56.02
-61.88
-64.08
-61.43
-53.58
-41.25
-26.11
-10.32
4.15
15.97
24.67
30.33
33.27
33.76
31.95
28.05
22.54
16.21
10.01
4.76
0.78
-2.19
-4.81
-7.83
-11.68
-16.37
-21.52
-26.66
-31.44
-35.80
-39.96
-44.17
-48.66
-53.60
-59.00
-64.82
-70.80
-76.33
-80.46
-81.97
-79.66
-72.70
-60.89
-44.80
-25.59
-4.77
16.07
35.58
52.74
66.89
77.69
85.02
88.92
89.66
87.75
84.00
79.42
75.03
71.58
69.30
67.82
66.36
64.01
60.15
54.69
48.03
40.88
33.89
27.35
21.18
14.90
8.00
0.03
-9.18
-19.42
-30.11
-40.20
-48.37
-53.14
-53.35
-48.52
-39.09
-26.35
-12.15
1.72
13.93
23.79
31.24
36.52
39.94
41.71
42.01
41.08
39.25
36.92
34.41
31.93
29.45
26.80
23.82
20.35
16.38
11.93
7.12
2.08
-3.11
-8.34
-13.53
-18.61
-23.60
-28.58
-33.71
-39.27
-45.53
-52.55
-59.98
-66.81
-71.52
-72.41
-68.21
-58.62
-44.56
-27.89
-10.87
4.56
17.25
26.92
33.91
38.74
41.81
43.28
43.18
41.63
38.96
35.66
32.31
29.37
27.05
25.31
23.87
22.38
20.52
18.15
15.27
12.01
8.49
4.77
0.80
-3.59
-8.60
-14.42
-21.18
-28.92
-37.42
-46.10
-53.95
-59.59
-61.67
-59.20
-52.03
-40.90
-27.25
-12.80
0.90
12.73
22.06
28.66
32.55
33.92
33.12
30.71
27.35
23.80
20.68
18.38
16.96
16.16
15.52
14.57
13.01
10.82
8.17
5.36
2.62
0.04
-2.52
-5.28
-8.51
-12.53
-17.60
-23.97
-31.60
-40.00
-48.14
-54.48
-57.36
-55.57
-48.78
-37.74
-24.07
-9.71
3.69
15.12
24.26
31.23
36.23
39.35
40.59
40.07
38.15
35.50
32.86
30.77
29.38
28.38
27.20
25.29
22.33
18.36
13.68
8.69
3.73
-1.07
-5.82
-10.74
-16.06
-21.98
-28.62
-36.08
-44.47
-53.72
-63.37
-72.35
-79.06
-81.76
-79.18
-71.17
-58.75
-43.93
-28.91
-15.42
-4.36
4.17
10.45
14.77
17.22
17.81
16.66
14.19
11.06
8.00
5.56
3.98
3.21
3.12
3.62
4.69
6.34
8.50
10.91
13.15
14.78
15.47
14.99
13.31
10.44
6.34
0.89
-6.10
-14.67
-24.58
-35.02
-44.69
-51.99
-55.43
-54.09
-47.91
-37.69
-24.80
-10.77
3.07
15.74
26.66
35.47
42.06
46.39
48.61
49.01
47.96
45.90
43.22
40.27
37.27
34.35
31.58
28.93
26.33
23.64
20.75
17.57
14.09
10.33
6.33
2.06
-2.48
-7.35
-12.53
-18.05
-23.95
-30.36
-37.50
-45.34
-53.45
-60.75
-65.67
-66.49
-61.95
-51.74
-36.64
-18.31
1.20
20.01
36.84
51.05
62.52
71.38
77.87
82.29
85.06
86.72
87.94
89.29
91.05
93.18
95.30
96.91
97.74
97.78
97.30
96.62
95.86
94.78
92.83
89.36
83.86
76.16
66.47
55.24
43.04
30.31
17.29
4.00
-9.57
-23.28
-36.55
-48.29
-57.09
-61.67
-61.38
-56.58
-48.56
-39.07
-29.78
-21.77
-15.47
-10.83
-7.68
-5.99
-5.76
-6.93
-9.15
-11.82
-14.33
-16.22
-17.38
-17.95
-18.23
-18.44
-18.74
-19.19
-19.90
-20.98
-22.50
-24.44
-26.63
-28.82
-30.85
-32.69
-34.55
-36.70
-39.52
-43.27
-48.00
-53.45
-58.94
-63.35
-65.33
-63.65
-57.62
-47.39
-34.05
-19.27
-4.83
7.85
18.00
25.49
30.61
33.79
35.43
35.79
35.05
33.40
31.05
28.30
25.47
22.85
20.59
18.69
16.96
15.16
12.99
10.28
6.95
3.06
-1.24
-5.79
-10.43
-15.08
-19.74
-24.52
-29.65
-35.47
-42.22
-49.92
-58.07
-65.62
-71.04
-72.75
-69.63
-61.40
-48.89
-33.73
-17.94
-3.32
8.94
18.40
25.12
29.49
31.95
32.83
32.47
31.17
29.33
27.32
25.46
23.91
22.64
21.52
20.33
18.94
17.26
15.24
12.86
10.06
6.75
2.88
-1.51
-6.23
-11.01
-15.65
-20.13
-24.71
-29.87
-36.07
-43.37
-51.12
-57.97
-62.12
-61.99
-56.76
-46.72
-33.23
-18.16
-3.40
9.68
20.32
28.28
33.65
36.68
37.78
37.50
36.45
35.19
33.99
32.88
31.70
30.29
28.63
26.83
25.09
23.50
21.99
20.32
18.18
15.34
11.74
7.48
2.79
-2.08
-6.91
-11.59
-16.09
-20.53
-25.17
-30.34
-36.38
-43.38
-50.85
-57.75
-62.46
-63.33
-59.22
-50.04
-36.88
-21.65
-6.56
6.65
17.02
24.42
29.29
32.21
33.69
33.99
33.27
31.66
29.41
26.90
24.45
22.34
20.67
19.34
18.15
16.90
15.42
13.65
11.56
9.14
6.41
3.34
-0.03
-3.64
-7.40
-11.29
-15.39
-19.90
-25.06
-31.09
-37.87
-44.83
-50.89
-54.59
-54.57
-50.02
-41.09
-28.89
-15.15
-1.70
10.06
19.43
26.36
31.08
33.90
35.01
34.55
32.77
30.08
27.00
24.10
21.74
20.05
18.87
17.85
16.59
14.82
12.38
9.32
5.85
2.22
-1.39
-4.94
-8.51
-12.21
-16.20
-20.54
-25.31
-30.60
-36.51
-42.91
-49.27
-54.51
-57.19
-55.99
-50.19
-40.13
-27.10
-12.94
0.56
12.16
21.33
28.09
32.66
35.33
36.30
35.78
34.08
31.62
28.91
26.33
24.16
22.50
21.25
20.24
19.23
17.97
16.26
13.96
11.02
7.52
3.57
-0.62
-4.93
-9.32
-13.90
-18.92
-24.73
-31.57
-39.45
-47.88
-55.89
-62.06
-64.93
-63.38
-56.98
-46.22
-32.36
-17.09
-2.12
11.15
21.92
29.89
35.21
38.28
39.59
39.64
38.90
37.72
36.38
35.05
33.80
32.66
31.54
30.36
28.98
27.23
24.99
22.16
18.73
14.78
10.46
5.90
1.22
-3.54
-8.40
-13.43
-18.78
-24.67
-31.37
-39.00
-47.28
-55.34
-61.73
-64.78
-63.22
-56.68
-45.88
-32.44
-18.35
-5.31
5.60
14.02
20.05
23.98
26.11
26.71
26.07
24.53
22.46
20.27
18.28
16.71
15.63
14.98
14.53
13.97
12.99
11.47
9.43
6.98
4.29
1.40
-1.74
-5.25
-9.13
-13.32
-17.77
-22.55
-27.93
-34.20
-41.38
-48.87
-55.42
-59.38
-59.23
-54.19
-44.48
-31.31
-16.44
-1.63
11.76
23.02
31.96
38.70
43.47
46.44
47.75
47.59
46.20
44.03
41.60
39.39
37.63
36.24
34.86
33.06
30.57
27.43
23.88
20.24
16.68
13.11
9.29
4.98
0.11
-5.27
-11.11
-17.47
-24.55
-32.38
-40.57
-48.10
-53.48
-55.20
-52.24
-44.50
-32.89
-18.94
-4.41
9.25
21.09
30.73
38.11
43.34
46.52
47.82
47.38
45.62
43.04
40.28
37.90
36.18
35.08
34.23
33.12
31.27
28.37
24.38
19.48
14.04
8.42
2.97
-2.13
-6.93
-11.71
-16.83
-22.73
-29.67
-37.69
-46.41
-55.03
-62.38
-67.14
-68.11
-64.65
-56.83
-45.57
-32.32
-18.69
-6.03
4.85
13.66
20.56
25.84
29.79
32.65
34.59
35.75
36.30
36.35
36.01
35.33
34.38
33.22
31.94
30.60
29.22
27.63
25.60
22.85
19.27
14.90
10.01
4.96
0.06
-4.56
-8.95
-13.31
-17.95
-23.25
-29.50
-36.81
-44.82
-52.62
-58.79
-61.78
-60.40
-54.29
-44.04
-31.11
-17.21
-3.86
7.97
17.89
25.94
32.25
36.94
40.11
41.97
42.86
43.29
43.70
44.37
45.23
45.98
46.26
45.91
45.10
44.25
43.81
43.96
44.44
44.57
43.53
40.68
35.91
29.77
23.18
17.21
12.56
9.35
7.00
4.50
0.82
-4.68
-11.89
-19.92
-27.37
-32.69
-34.67
-32.74
-27.10
-18.59
-8.41
2.18
12.07
20.53
27.16
31.82
34.54
35.52
35.02
33.40
31.09
28.48
25.88
23.48
21.31
19.32
17.42
15.52
13.56
11.46
9.12
6.36
3.01
-1.10
-6.01
-11.60
-17.53
-23.43
-28.95
-33.99
-38.70
-43.55
-49.09
-55.71
-63.20
-70.65
-76.52
-79.07
-77.00
-69.93
-58.59
-44.53
-29.58
-15.25
-2.49
8.31
17.03
23.65
28.19
30.79
31.84
31.91
31.57
31.21
30.93
30.56
29.81
28.49
26.59
24.35
22.08
20.01
18.12
16.12
13.59
10.17
5.81
0.78
-4.41
-9.32
-13.74
-17.80
-21.94
-26.68
-32.50
-39.58
-47.74
-56.19
-63.71
-68.77
-69.94
-66.40
-58.24
-46.47
-32.71
-18.66
-5.61
5.72
15.18
22.87
28.91
33.33
36.12
37.33
37.23
36.25
34.84
33.32
31.82
30.27
28.64
26.96
25.42
24.21
23.33
22.49
21.21
18.96
15.48
10.86
5.54
0.00
-5.35
-10.40
-15.34
-20.49
-26.26
-33.04
-40.98
-49.85
-58.89
-66.73
-71.65
-72.10
-67.17
-57.05
-43.01
-26.97
-10.94
3.51
15.57
25.10
32.32
37.60
41.20
43.40
44.44
44.69
44.49
44.08
43.49
42.60
41.22
39.30
36.93
34.30
31.52
28.54
25.12
20.99
16.02
10.33
4.24
-1.87
-7.69
-13.10
-18.17
-23.06
-28.13
-33.78
-40.41
-48.13
-56.56
-64.67
-70.85
-73.42
-71.11
-63.61
-51.77
-37.27
-22.22
-8.40
3.02
11.61
17.53
21.13
22.83
22.97
21.88
20.00
17.81
15.75
14.07
12.76
11.55
10.13
8.21
5.78
2.99
0.13
-2.57
-5.01
-7.30
-9.66
-12.28
-15.31
-18.81
-22.81
-27.39
-32.72
-39.00
-46.14
-53.58
-60.21
-64.57
-65.25
-61.44
-53.26
-41.74
-28.46
-15.05
-2.74
7.76
16.26
22.74
27.28
29.97
30.97
30.64
29.47
28.03
26.72
25.77
25.17
24.76
24.33
23.69
22.69
21.21
19.16
16.50
13.27
9.61
5.68
1.69
-2.28
-6.29
-10.58
-15.55
-21.56
-28.80
-37.03
-45.52
-53.07
-58.29
-59.93
-57.29
-50.39
-40.04
-27.55
-14.41
-1.89
9.10
18.13
25.08
30.06
33.26
35.00
35.58
35.33
34.49
33.24
31.62
29.65
27.33
24.68
21.79
18.74
15.69
12.81
10.31
8.37
6.98
5.93
4.78
3.04
0.38
-3.28
-7.77
-12.94
-18.79
-25.53
-33.21
-41.43
-49.04
-54.40
-55.83
-52.35
-44.10
-32.31
-18.89
-5.65
6.15
16.01
24.04
30.48
35.55
39.24
41.47
42.26
41.82
40.54
38.88
37.21
35.76
34.58
33.58
32.60
31.42
29.80
27.51
24.37
20.37
15.64
10.46
5.19
0.09
-4.72
-9.29
-13.84
-18.74
-24.37
-31.03
-38.69
-46.80
-54.27
-59.59
-61.32
-58.59
-51.48
-41.03
-28.86
-16.60
-5.39
4.25
12.29
18.88
24.09
27.86
30.15
31.12
31.16
30.77
30.30
29.86
29.26
28.25
26.69
24.72
22.66
20.77
19.11
17.44
15.35
12.47
8.70
4.33
-0.19
-4.39
-8.10
-11.47
-14.96
-19.15
-24.46
-30.98
-38.25
-45.31
-50.83
-53.48
-52.34
-47.20
-38.63
-27.86
-16.35
-5.43
4.01
11.57
17.23
21.18
23.66
24.97
25.45
25.51
25.58
26.01
27.03
28.67
30.77
32.98
34.87
35.99
35.94
34.55
31.81
27.96
23.36
18.33
13.01
7.36
1.22
-5.59
-13.17
-21.54
-30.68
-40.44
-50.42
-59.77
-67.26
-71.41
-71.10
-65.95
-56.62
-44.62
-31.92
-20.23
-10.66
-3.64
0.95
3.43
4.13
3.27
1.09
-2.13
-6.03
-10.24
-14.51
-18.68
-22.74
-26.65
-30.30
-33.54
-36.16
-38.08
-39.45
-40.60
-41.94
-43.76
-46.05
-48.53
-50.70
-52.17
-52.80
-52.93
-53.23
-54.54
-57.49
-62.05
-67.36
-71.66
-72.73
-68.53
-57.93
-41.10
-19.54
4.39
28.24
50.01
68.52
83.35
94.60
102.55
107.59
110.19
110.99
110.72
110.09
109.62
109.44
109.34
108.91
107.73
105.56
102.37
98.22
93.15
87.13
80.07
71.90
62.80
53.14
43.49
34.43
26.39
19.43
13.24
7.07
0.05
-8.62
-19.22
-31.27
-43.51
-54.15
-61.34
-63.71
-60.76
-52.93
-41.45
-27.95
-14.05
-1.06
10.18
19.30
26.27
31.26
34.50
36.27
36.80
36.38
35.28
33.79
32.11
30.36
28.47
26.32
23.77
20.72
17.22
13.38
9.33
5.13
0.80
-3.73
-8.54
-13.67
-19.18
-25.16
-31.78
-39.18
-47.31
-55.77
-63.67
-69.80
-72.93
-72.20
-67.45
-59.21
-48.51
-36.56
-24.37
-12.67
-1.88
7.64
15.59
21.64
25.61
27.63
28.13
27.81
27.37
27.29
27.69
28.31
28.68
28.35
27.13
25.01
22.24
19.09
15.81
12.57
9.45
6.46
3.51
0.35
-3.37
-8.03
-13.71
-20.04
-26.05
-30.43
-31.91
-29.77
-24.11
-15.81
-6.24
3.26
11.70
18.54
23.59
26.86
28.37
28.27
26.80
24.41
21.62
19.00
16.90
15.45
14.53
13.79
12.81
11.21
8.86
5.88
2.65
-0.45
-3.11
-5.34
-7.47
-9.96
-13.34
-17.94
-23.92
-31.19
-39.27
-47.32
-54.15
-58.41
-58.99
-55.40
-47.99
-37.78
-26.18
-14.44
-3.41
6.53
15.24
22.66
28.60
32.83
35.26
36.04
35.63
34.63
33.60
32.83
32.26
31.57
30.35
28.34
25.55
22.20
18.64
15.11
11.68
8.22
4.50
0.26
-4.76
-10.83
-18.12
-26.61
-35.81
-44.70
-51.84
-55.76
-55.49
-50.83
-42.54
-31.94
-20.49
-9.31
0.94
10.03
17.89
24.40
29.31
32.40
33.65
33.37
32.11
30.50
29.03
27.85
26.77
25.47
23.66
21.26
18.44
15.52
12.76
10.24
7.77
5.00
1.57
-2.80
-8.18
-14.49
-21.64
-29.52
-37.93
-46.43
-54.15
-59.88
-62.32
-60.51
-54.29
-44.31
-31.88
-18.48
-5.41
6.52
16.90
25.57
32.44
37.45
40.66
42.23
42.53
41.94
40.88
39.60
38.26
36.89
35.39
33.60
31.32
28.46
25.00
21.08
16.86
12.45
7.91
3.17
-1.89
-7.39
-13.47
-20.27
-27.90
-36.37
-45.36
-54.11
-61.46
-66.04
-66.69
-62.82
-54.68
-43.22
-29.85
-15.98
-2.74
9.16
19.37
27.73
34.11
38.42
40.68
41.08
40.06
38.20
36.03
33.89
31.82
29.67
27.21
24.31
21.01
17.44
13.75
10.00
6.13
2.01
-2.49
-7.39
-12.66
-18.26
-24.19
-30.60
-37.65
-45.43
-53.71
-61.74
-68.36
-72.28
-72.39
-68.23
-60.06
-48.77
-35.52
-21.48
-7.61
5.27
16.52
25.59
32.12
36.10
37.86
38.02
37.24
36.08
34.83
33.54
32.13
30.50
28.62
26.48
24.08
21.36
18.30
14.78
10.78
6.24
1.19
-4.37
-10.35
-16.67
-23.23
-29.94
-36.86
-44.11
-51.92
-60.33
-69.02
-77.14
-83.40
-86.33
-84.75
-78.11
-66.68
-51.47
-33.92
-15.53
2.38
18.79
33.00
44.50
53.01
58.52
61.34
62.05
61.42
60.14
58.70
57.21
55.61
53.73
51.56
49.18
46.77
44.44
42.12
39.55
36.39
32.41
27.55
21.95
15.87
9.62
3.44
-2.61
-8.67
-15.17
-22.67
-31.61
-42.03
-53.29
-64.02
-72.35
-76.44
-75.01
-67.79
-55.60
-40.02
-22.95
-6.09
9.28
22.37
32.85
40.66
45.99
49.30
51.18
52.32
53.25
54.26
55.25
55.85
55.56
54.02
51.11
47.07
42.35
37.42
32.53
27.65
22.43
16.48
9.56
1.81
-6.39
-14.49
-22.10
-29.10
-35.62
-42.02
-48.65
-55.77
-63.39
-71.11
-78.09
-83.08
-84.66
-81.60
-73.31
-60.13
-43.30
-24.68
-6.17
10.69
24.96
36.31
44.83
50.75
54.34
55.87
55.61
53.98
51.48
48.63
45.84
43.37
41.21
39.20
37.09
34.64
31.73
28.37
24.63
20.64
16.46
11.99
7.10
1.62
-4.56
-11.48
-19.08
-27.36
-36.29
-45.78
-55.37
-64.12
-70.63
-73.31
-70.93
-63.08
-50.40
-34.45
-17.29
-0.87
13.37
24.69
32.92
38.25
41.00
41.52
40.25
37.76
34.77
31.94
29.75
28.29
27.30
26.34
24.99
23.02
20.43
17.34
13.82
9.84
5.30
0.17
-5.44
-11.28
-17.10
-22.77
-28.38
-34.28
-40.92
-48.57
-57.10
-65.77
-73.19
-77.65
-77.63
-72.22
-61.57
-46.83
-29.78
-12.31
4.05
18.40
30.32
39.72
46.58
50.95
52.95
52.88
51.21
48.50
45.25
41.79
38.32
34.93
31.69
28.67
25.88
23.24
20.53
17.52
14.02
9.96
5.37
0.40
-4.78
-10.07
-15.45
-21.04
-27.14
-34.14
-42.35
-51.70
-61.54
-70.51
-76.80
-78.63
-74.79
-65.13
-50.66
-33.22
-14.93
2.36
17.46
29.86
39.52
46.64
51.45
54.21
55.25
55.00
53.90
52.29
50.36
48.18
45.77
43.15
40.42
37.64
34.74
31.56
27.90
23.58
18.55
12.90
6.80
0.46
-5.94
-12.27
-18.53
-24.89
-31.68
-39.23
-47.62
-56.47
-64.73
-70.90
-73.30
-70.73
-62.80
-50.19
-34.45
-17.52
-1.24
13.04
24.60
33.27
39.19
42.61
43.86
43.31
41.42
38.71
35.70
32.78
30.17
27.93
25.97
24.12
22.21
20.09
17.67
14.96
12.02
8.94
5.72
2.28
-1.57
-6.03
-11.28
-17.44
-24.60
-32.78
-41.83
-51.22
-59.96
-66.53
-69.26
-66.81
-58.73
-45.71
-29.50
-12.39
3.53
16.83
27.00
34.21
38.97
41.82
43.09
43.07
42.02
40.30
38.29
36.32
34.53
32.91
31.28
29.41
27.07
24.08
20.43
16.22
11.67
7.05
2.53
-1.91
-6.40
-11.20
-16.55
-22.64
-29.65
-37.65
-46.58
-55.98
-64.83
-71.59
-74.51
-72.20
-64.18
-51.17
-34.92
-17.64
-1.35
12.57
23.57
31.65
37.10
40.25
41.41
40.99
39.49
37.45
35.35
33.48
31.85
30.35
28.83
27.22
25.52
23.70
21.63
19.08
15.89
11.93
7.29
2.16
-3.20
-8.60
-13.99
-19.50
-25.44
-32.20
-40.03
-48.84
-57.91
-65.98
-71.37
-72.46
-68.26
-58.81
-45.14
-29.02
-12.43
2.99
16.18
26.64
34.33
39.46
42.35
43.40
43.11
42.04
40.73
39.49
38.39
37.27
35.92
34.21
32.17
29.96
27.70
25.33
22.64
19.33
15.23
10.35
4.92
-0.78
-6.53
-12.23
-17.91
-23.73
-29.90
-36.66
-44.15
-52.25
-60.36
-67.32
-71.57
-71.55
-66.24
-55.65
-40.84
-23.68
-6.29
9.60
22.92
33.33
40.95
46.10
49.05
50.02
49.29
47.25
44.40
41.25
38.16
35.33
32.70
30.11
27.39
24.41
21.10
17.46
13.44
9.01
4.11
-1.31
-7.19
-13.40
-19.76
-26.09
-32.40
-38.87
-45.87
-53.78
-62.80
-72.63
-82.35
-90.54
-95.52
-95.90
-91.00
-81.19
-67.81
-52.81
-38.16
-25.45
-15.58
-8.84
-5.09
-3.98
-5.00
-7.51
-10.78
-14.05
-16.72
-18.48
-19.34
-19.60
-19.70
-20.17
-21.47
-23.94
-27.76
-32.89
-39.15
-46.25
-53.90
-61.90
-70.08
-78.32
-86.50
-94.55
-102.51
-110.61
-119.14
-128.19
-137.39
-145.80
-151.98
-154.38
-151.79
-143.69
-130.31
-112.57
-91.84
-69.71
-47.78
-27.46
-9.79
4.75
16.23
25.23
32.47
38.65
44.28
49.67
55.01
60.41
65.87
71.15
75.73
79.00
80.48
80.08
78.15
75.43
72.72
70.69
69.65
69.66
70.42
71.37
71.74
70.56
66.82
59.70
48.89
34.85
18.86
2.92
-10.62
-19.51
-22.11
-17.63
-6.28
10.89
32.33
56.30
81.13
105.42
128.01
148.07
164.99
178.50
188.58
195.44
199.47
201.13
200.92
199.31
196.67
193.27
189.11
183.90
177.03
167.75
155.38
139.61
120.70
99.44
77.08
55.07
34.90
17.85
4.85
-3.82
-8.84
-11.87
-15.21
-21.01
-30.24
-42.08
-54.03
-62.91
-66.21
-63.15
-54.85
-43.59
-31.72
-20.64
-10.72
-1.75
6.34
13.13
17.82
19.86
19.43
17.50
15.54
14.79
15.81
18.32
21.51
24.42
26.35
27.05
26.65
25.52
24.07
22.66
21.51
20.65
19.92
18.95
17.24
14.39
10.20
4.86
-0.98
-6.31
-10.00
-11.03
-8.89
-3.62
4.14
13.41
23.16
32.63
41.42
49.44
56.67
62.76
67.10
68.83
67.25
62.11
53.80
43.28
31.80
20.53
10.31
1.56
-5.59
-11.16
-15.22
-17.87
-19.32
-19.92
-20.17
-20.63
-21.80
-23.93
-27.11
-31.20
-36.06
-41.61
-47.88
-54.86
-62.32
-69.57
-75.49
-78.83
-78.60
-74.53
-67.18
-57.76
-47.76
-38.33
-30.09
-23.10
-17.13
-12.01
-7.75
-4.63
-2.93
-2.76
-3.96
-6.10
-8.62
-10.99
-12.86
-14.15
-15.01
-15.73
-16.65
-17.99
-19.81
-22.03
-24.50
-27.09
-29.82
-32.81
-36.22
-40.22
-44.92
-50.34
-56.37
-62.79
-69.13
-74.67
-78.45
-79.48
-77.01
-70.80
-61.36
-49.82
-37.62
-26.16
-16.37
-8.61
-2.77
1.54
4.68
6.90
8.28
8.87
8.75
8.11
7.19
6.27
5.51
4.96
4.55
4.09
3.37
2.22
0.58
-1.53
-4.00
-6.72
-9.65
-12.84
-16.37
-20.32
-24.77
-29.76
-35.35
-41.54
-48.11
-54.45
-59.48
-61.86
-60.43
-54.66
-44.96
-32.66
-19.55
-7.31
2.98
11.02
17.08
21.67
25.14
27.56
28.80
28.78
27.70
25.99
24.18
22.69
21.64
20.85
19.98
18.74
17.01
14.85
12.40
9.74
6.86
3.66
0.01
-4.11
-8.60
-13.30
-18.04
-22.82
-27.83
-33.37
-39.56
-46.10
-52.11
-56.27
-57.22
-54.10
-46.91
-36.55
-24.45
-12.14
-0.76
9.08
17.22
23.66
28.43
31.48
32.87
32.78
31.67
30.12
28.67
27.64
27.06
26.67
26.08
24.98
23.20
20.82
18.01
15.02
11.98
8.93
5.76
2.33
-1.54
-6.05
-11.38
-17.70
-25.03
-33.09
-41.20
-48.21
-52.78
-53.72
-50.39
-42.99
-32.48
-20.41
-8.36
2.40
11.19
17.87
22.61
25.66
27.23
27.48
26.63
25.01
23.04
21.11
19.40
17.91
16.51
15.03
13.29
11.22
8.74
5.76
2.28
-1.60
-5.65
-9.59
-13.26
-16.68
-20.11
-23.96
-28.63
-34.34
-41.00
-48.07
-54.57
-59.22
-60.79
-58.40
-51.88
-41.83
-29.48
-16.32
-3.70
7.41
16.51
23.44
28.29
31.25
32.57
32.59
31.70
30.25
28.55
26.80
25.13
23.59
22.21
20.94
19.69
18.24
16.35
13.80
10.53
6.58
2.20
-2.39
-6.99
-11.57
-16.16
-20.94
-26.11
-31.92
-38.54
-45.79
-53.12
-59.40
-63.22
-63.28
-58.88
-50.27
-38.64
-25.71
-13.19
-2.40
6.06
12.12
16.02
18.14
18.79
18.25
16.80
14.70
12.19
9.44
6.53
3.45
0.15
-3.43
-7.30
-11.50
-16.06
-21.12
-26.81
-33.33
-40.79
-49.17
-58.28
-67.85
-77.51
-87.10
-96.77
-107.04
-118.55
-131.75
-146.39
-161.33
-174.71
-184.52
-189.35
-188.87
-183.91
-176.04
-166.94
-157.81
-149.05
-140.24
-130.19
-117.27
-99.82
-76.68
-47.93
-15.15
18.73
50.22
76.50
96.37
110.50
121.00
130.29
140.13
151.08
162.55
173.35
182.18
188.06
190.44
189.20
184.62
177.15
167.24
155.07
140.49
123.20
103.37
82.13
61.85
45.83
37.41
39.03
51.67
74.58
105.48
140.61
174.93
202.55
217.80
216.74
198.63
166.52
126.36
85.04
48.08
18.19
-4.86
-23.07
-38.79
-53.66
-68.40
-83.09
-97.54
-111.25
-123.24
-131.81
-134.91
-130.87
-119.17
-101.02
-79.14
-57.13
-38.38
-25.27
-18.74
-18.34
-22.58
-29.29
-36.05
-40.51
-40.80
-35.87
-25.71
-11.32
5.60
23.16
39.74
54.18
65.80
74.19
79.11
80.47
78.47
73.61
66.76
59.02
51.42
44.76
39.39
35.18
31.68
28.27
24.46
19.93
14.69
8.99
3.15
-2.57
-8.07
-13.47
-19.04
-25.05
-31.71
-39.09
-47.07
-55.33
-63.33
-70.25
-75.10
-76.83
-74.62
-68.12
-57.58
-43.90
-28.35
-12.34
2.87
16.34
27.46
35.90
41.58
44.59
45.17
43.79
41.06
37.70
34.35
31.45
29.06
26.91
24.52
21.42
17.39
12.49
7.04
1.46
-3.97
-9.15
-14.23
-19.47
-25.27
-31.93
-39.73
-48.69
-58.48
-68.28
-76.76
-82.34
-83.50
-79.20
-69.28
-54.52
-36.51
-17.23
1.38
17.83
31.27
41.44
48.49
52.78
54.71
54.69
53.15
50.60
47.62
44.68
42.05
39.72
37.42
34.75
31.35
27.08
22.00
16.33
10.40
4.43
-1.45
-7.27
-13.22
-19.57
-26.68
-34.86
-44.21
-54.46
-64.82
-73.93
-80.07
-81.56
-77.28
-67.05
-51.75
-33.19
-13.49
5.34
21.86
35.30
45.43
52.36
56.30
57.59
56.75
54.44
51.54
48.87
47.06
46.37
46.65
47.53
48.58
49.61
50.68
52.10
54.26
57.31
61.10
65.07
68.44
70.50
70.82
69.35
66.32
62.01
56.69
50.54
43.96
37.58
32.44
29.66
30.03
33.72
40.00
47.53
54.75
60.43
63.93
65.17
64.38
61.76
57.40
51.23
43.36
34.17
24.38
14.83
6.17
-1.36
-7.99
-14.25
-20.74
-27.79
-35.35
-43.00
-50.10
-56.07
-60.58
-63.72
-65.91
-67.78
-69.92
-72.87
-76.97
-82.37
-88.95
-96.06
-102.49
-106.59
-106.72
-101.84
-92.08
-78.71
-63.77
-49.33
-36.84
-26.85
-19.17
-13.26
-8.65
-5.12
-2.60
-0.97
0.10
1.04
2.23
3.81
5.56
6.97
7.46
6.65
4.48
1.26
-2.50
-6.29
-9.80
-13.10
-16.50
-20.42
-25.21
-31.07
-37.95
-45.65
-53.70
-61.36
-67.50
-70.77
-69.96
-64.36
-54.22
-40.71
-25.63
-10.84
2.29
13.13
21.67
28.17
32.84
35.73
36.80
36.20
34.37
32.00
29.81
28.21
27.19
26.32
24.97
22.59
18.93
14.17
8.78
3.31
-1.78
-6.31
-10.40
-14.36
-18.62
-23.63
-29.70
-36.96
-45.16
-53.53
-60.82
-65.54
-66.31
-62.38
-53.88
-41.82
-27.71
-13.13
0.70
13.06
23.64
32.29
38.87
43.28
45.52
45.85
44.72
42.77
40.54
38.37
36.39
34.44
32.30
29.73
26.61
22.92
18.78
14.41
9.99
5.66
1.46
-2.74
-7.18
-12.17
-17.98
-24.88
-32.84
-41.50
-50.01
-57.14
-61.45
-61.74
-57.49
-49.02
-37.41
-24.16
-10.70
1.91
13.07
22.48
29.95
35.30
38.38
39.26
38.26
35.97
33.08
30.22
27.79
25.90
24.41
23.05
21.49
19.50
16.91
13.66
9.81
5.46
0.74
-4.22
-9.35
-14.68
-20.31
-26.41
-33.21
-40.85
-49.23
-57.90
-65.95
-72.13
-75.12
-73.94
-68.26
-58.54
-45.88
-31.68
-17.28
-3.72
8.30
18.36
26.23
31.87
35.52
37.80
39.66
42.22
46.51
53.21
62.45
73.82
86.49
99.51
112.00
123.36
133.11
140.72
145.42
146.25
142.36
133.53
120.38
104.38
87.33
70.72
55.25
40.87
27.24
14.27
2.55
-6.89
-13.05
-15.52
-14.84
-12.18
-9.01
-6.49
-5.24
-5.38
-6.72
-9.07
-12.28
-16.29
-20.89
-25.78
-30.53
-34.77
-38.25
-40.91
-42.86
-44.25
-45.30
-46.19
-47.11
-48.23
-49.61
-51.21
-52.88
-54.42
-55.67
-56.65
-57.52
-58.62
-60.29
-62.82
-66.28
-70.43
-74.74
-78.37
-80.33
-79.70
-75.76
-68.25
-57.39
-43.92
-28.97
-13.86
0.17
12.19
21.66
28.51
32.98
35.44
36.25
35.75
34.27
32.17
29.84
27.60
25.54
23.55
21.28
18.40
14.72
10.35
5.62
0.97
-3.28
-7.08
-10.66
-14.38
-18.62
-23.65
-29.60
-36.43
-43.90
-51.50
-58.38
-63.32
-64.99
-62.32
-54.94
-43.36
-28.92
-13.47
1.25
13.97
24.14
31.72
37.02
40.35
41.94
41.92
40.46
37.91
34.80
31.69
29.07
27.13
25.72
24.37
22.56
19.90
16.35
12.15
7.73
3.41
-0.71
-4.76
-8.98
-13.57
-18.63
-24.21
-30.36
-37.21
-44.71
-52.50
-59.65
-64.71
-66.14
-62.80
-54.48
-42.03
-27.14
-11.78
2.42
14.47
24.11
31.51
36.95
40.59
42.47
42.62
41.27
38.89
36.13
33.56
31.52
29.96
28.50
26.70
24.19
20.91
17.04
12.93
8.88
5.00
1.24
-2.57
-6.59
-10.91
-15.68
-21.08
-27.39
-34.75
-42.89
-50.94
-57.43
-60.67
-59.32
-52.94
-42.14
-28.46
-13.77
0.28
12.62
22.82
30.86
36.83
40.75
42.57
42.34
40.39
37.34
33.96
30.96
28.68
27.09
25.76
24.22
22.09
19.29
15.98
12.41
8.75
5.02
1.07
-3.31
-8.23
-13.68
-19.59
-25.93
-32.81
-40.39
-48.64
-57.02
-64.40
-69.17
-69.76
-65.24
-55.74
-42.43
-27.14
-11.70
2.58
15.01
25.38
33.67
39.81
43.69
45.38
45.20
43.75
41.71
39.61
37.72
36.06
34.48
32.88
31.21
29.41
27.38
24.93
21.87
18.06
13.51
8.37
2.87
-2.73
-8.25
-13.65
-19.03
-24.67
-30.86
-37.78
-45.28
-52.66
-58.68
-61.78
-60.50
-54.01
-42.46
-26.97
-9.31
8.63
25.33
39.93
52.07
61.76
69.10
74.23
77.39
78.93
79.31
78.90
77.84
76.04
73.21
69.22
64.10
58.17
51.76
45.11
38.21
30.83
22.76
13.96
4.63
-4.82
-13.95
-22.44
-30.16
-37.24
-43.94
-50.70
-57.97
-66.14
-75.23
-84.68
-93.21
-99.04
-100.41
-96.16
-86.27
-71.84
-54.75
-37.05
-20.34
-5.60
6.76
16.63
24.03
29.06
31.94
33.13
33.27
32.91
32.38
31.69
30.64
29.00
26.70
23.88
20.74
17.46
14.02
10.24
5.87
0.72
-5.20
-11.72
-18.55
-25.42
-32.10
-38.52
-44.86
-51.48
-58.81
-67.13
-76.22
-85.27
-92.89
-97.50
-97.78
-93.07
-83.59
-70.22
-54.16
-36.63
-18.72
-1.35
14.62
28.38
39.30
47.05
51.73
53.85
54.20
53.68
53.10
53.09
53.94
55.62
57.76
59.74
60.87
60.59
58.64
55.10
50.31
44.73
38.76
32.64
26.37
19.72
12.23
3.43
-7.03
-19.09
-32.09
-44.68
-54.96
-60.94
-61.10
-54.84
-42.78
-26.59
-8.50
9.32
25.18
38.18
47.97
54.56
58.10
58.80
57.01
53.33
48.60
43.71
39.37
35.91
33.23
30.90
28.40
25.29
21.34
16.55
11.10
5.27
-0.67
-6.56
-12.36
-18.12
-24.05
-30.43
-37.59
-45.86
-55.37
-65.79
-76.12
-84.74
-89.73
-89.44
-83.05
-70.91
-54.43
-35.65
-16.63
0.98
16.17
28.47
37.76
44.14
47.80
49.11
48.61
46.92
44.66
42.31
40.10
38.03
35.97
33.69
30.99
27.75
23.93
19.54
14.65
9.34
3.69
-2.27
-8.52
-15.03
-21.87
-29.21
-37.31
-46.46
-56.68
-67.49
-77.74
-85.67
-89.41
-87.46
-79.23
-65.28
-47.17
-27.00
-6.88
11.52
27.15
39.52
48.52
54.30
57.16
57.61
56.32
54.00
51.28
48.53
45.88
43.24
40.56
37.82
35.14
32.59
30.18
27.74
25.09
22.09
18.71
15.08
11.28
7.38
3.26
-1.40
-7.07
-14.29
-23.40
-34.31
-46.09
-57.09
-65.17
-68.33
-65.43
-56.57
-43.07
-26.95
-10.34
5.10
18.36
29.00
36.88
42.00
44.43
44.42
42.35
38.77
34.31
29.61
25.29
21.90
19.75
18.91
19.12
19.87
20.60
20.87
20.47
19.40
17.79
15.71
13.21
10.24
6.82
3.01
-1.13
-5.69
-11.03
-17.67
-26.10
-36.29
-47.33
-57.38
-64.07
-65.24
-59.75
-48.01
-31.84
-13.91
3.24
17.81
29.08
37.11
42.31
45.09
45.71
44.40
41.52
37.69
33.64
30.02
27.16
25.07
23.36
21.54
19.14
15.91
11.86
7.24
2.43
-2.22
-6.51
-10.46
-14.27
-18.26
-22.76
-28.10
-34.59
-42.45
-51.57
-61.31
-70.36
-76.88
-79.01
-75.44
-65.93
-51.45
-33.85
-15.26
2.43
17.95
30.64
40.21
46.58
49.82
50.15
48.13
44.57
40.46
36.66
33.76
31.84
30.56
29.30
27.44
24.53
20.43
15.28
9.41
3.20
-3.02
-9.09
-15.00
-20.95
-27.31
-34.57
-43.23
-53.51
-65.08
-76.84
-86.96
-93.31
-94.00
-88.06
-75.75
-58.56
-38.68
-18.46
0.20
16.08
28.64
37.82
43.90
47.24
48.33
47.74
46.10
44.03
42.12
40.81
40.42
41.00
42.37
44.06
45.43
45.79
44.67
41.98
38.04
33.39
28.54
23.71
18.75
13.19
6.51
-1.64
-11.25
-21.76
-32.12
-40.80
-46.16
-46.80
-42.02
-32.16
-18.56
-3.14
12.05
25.47
36.24
44.23
49.66
52.84
54.02
53.32
50.82
46.68
41.24
35.04
28.78
23.11
18.50
15.01
12.31
9.78
6.75
2.84
-1.97
-7.40
-13.08
-18.79
-24.48
-30.25
-36.25
-42.56
-49.29
-56.66
-64.95
-74.27
-84.19
-93.42
-99.90
-101.43
-96.36
-84.43
-66.89
-46.09
-24.66
-4.74
12.44
26.49
37.45
45.50
50.72
53.27
53.51
52.10
49.87
47.56
45.63
44.12
42.77
41.22
39.25
36.84
34.17
31.44
28.69
25.77
22.41
18.34
13.44
7.74
1.28
-6.03
-14.51
-24.56
-36.30
-49.24
-62.01
-72.63
-78.91
-79.16
-72.73
-60.24
-43.39
-24.40
-5.42
11.97
26.85
38.89
48.05
54.47
58.35
60.00
59.92
58.70
56.92
55.05
53.39
52.00
50.81
49.59
47.98
45.61
42.14
37.44
31.62
25.01
18.03
10.94
3.73
-3.81
-12.01
-21.20
-31.55
-43.01
-55.22
-67.36
-78.11
-85.79
-88.69
-85.55
-76.07
-61.09
-42.42
-22.34
-3.01
13.96
27.68
37.87
44.68
48.47
49.75
49.14
47.25
44.63
41.69
38.67
35.68
32.76
29.96
27.31
24.76
22.16
19.29
15.88
11.77
6.96
1.55
-4.29
-10.38
-16.61
-22.91
-29.30
-35.93
-43.08
-51.11
-60.13
-69.69
-78.60
-85.05
-87.08
-83.26
-73.26
-58.00
-39.33
-19.41
-0.11
17.35
32.33
44.52
53.74
59.90
63.03
63.52
62.11
59.80
57.52
55.82
54.78
54.03
53.10
51.62
49.57
47.21
44.84
42.60
40.32
37.59
34.07
29.68
24.70
19.66
15.04
11.13
7.94
5.20
2.51
-0.56
-4.39
-9.14
-14.59
-19.96
-23.99
-25.16
-22.25
-14.79
-3.37
10.45
24.68
37.41
47.34
53.92
57.21
57.60
55.52
51.38
45.60
38.67
31.17
23.60
16.27
9.20
2.16
-5.13
-12.78
-20.68
-28.50
-35.89
-42.70
-48.98
-54.96
-60.85
-66.67
-72.19
-77.09
-81.02
-83.87
-85.80
-87.25
-88.81
-91.04
-94.26
-98.44
-103.04
-107.03
-108.99
-107.48
-101.40
-90.41
-75.04
-56.50
-36.44
-16.44
2.14
18.35
31.65
41.81
48.92
53.35
55.65
56.43
56.23
55.42
54.13
52.40
50.26
47.71
44.79
41.49
37.75
33.50
28.68
23.33
17.54
11.45
5.22
-0.99
-7.08
-12.99
-18.82
-24.81
-31.29
-38.54
-46.62
-55.14
-63.21
-69.53
-72.63
-71.35
-65.13
-54.23
-39.72
-23.13
-6.11
9.96
24.17
35.98
45.21
51.81
55.91
57.79
57.88
56.76
55.00
53.10
51.35
49.87
48.59
47.33
45.81
43.71
40.79
36.91
32.14
26.77
21.14
15.57
10.26
5.18
0.16
-5.05
-10.72
-17.02
-23.84
-30.77
-37.01
-41.59
-43.59
-42.44
-38.11
-31.12
-22.35
-12.78
-3.26
5.56
13.19
19.30
23.71
26.37
27.41
27.11
25.79
23.75
21.21
18.34
15.29
12.26
9.34
6.53
3.71
0.70
-2.66
-6.38
-10.33
-14.33
-18.25
-22.14
-26.14
-30.44
-35.17
-40.34
-45.80
-51.23
-56.16
-59.93
-61.80
-61.08
-57.38
-50.78
-41.91
-31.78
-21.42
-11.63
-2.78
5.10
12.13
18.31
23.48
27.39
29.83
30.85
30.74
30.01
29.10
28.40
28.01
27.86
27.78
27.50
26.79
25.52
23.65
21.24
18.41
15.26
11.91
8.39
4.73
0.90
-3.16
-7.51
-12.19
-17.05
-21.65
-25.24
-26.91
-25.81
-21.50
-14.13
-4.42
6.56
17.69
28.12
37.41
45.44
52.29
58.01
62.59
65.95
68.07
69.01
68.98
68.17
66.65
64.28
60.73
55.62
48.67
39.90
29.58
18.19
6.26
-5.75
-17.47
-28.62
-38.96
-48.34
-56.76
-64.46
-71.87
-79.46
-87.50
-95.77
-103.54
-109.70
-113.11
-113.01
-109.23
-102.26
-92.99
-82.49
-71.70
-61.32
-51.78
-43.33
-36.06
-30.01
-25.10
-21.14
-17.86
-14.89
-11.92
-8.74
-5.25
-1.49
2.43
6.37
10.17
13.65
16.59
18.80
20.17
20.70
20.51
19.78
18.67
17.25
15.44
13.08
9.94
5.94
1.24
-3.63
-7.85
-10.43
-10.63
-8.18
-3.38
2.96
9.88
16.49
22.24
26.83
30.11
32.00
32.35
31.10
28.30
24.28
19.48
14.50
9.88
6.02
3.06
0.88
-0.81
-2.39
-4.16
-6.28
-8.71
-11.34
-14.08
-16.92
-19.95
-23.30
-27.04
-31.16
-35.63
-40.46
-45.72
-51.48
-57.65
-63.82
-69.24
-72.93
-74.02
-71.97
-66.68
-58.52
-48.09
-36.07
-23.09
-9.68
3.62
16.26
27.72
37.52
45.31
50.99
54.61
56.42
56.71
55.76
53.82
51.13
47.93
44.46
40.90
37.33
33.65
29.63
25.06
19.84
14.05
7.91
1.70
-4.45
-10.59
-16.98
-23.99
-31.92
-40.80
-50.29
-59.60
-67.58
-72.89
-74.24
-70.76
-62.18
-49.12
-32.89
-15.28
1.89
17.16
29.70
39.29
46.10
50.44
52.61
52.89
51.64
49.34
46.55
43.71
41.08
38.65
36.24
33.61
30.55
26.94
22.67
17.68
12.01
5.77
-0.85
-7.59
-14.22
-20.62
-26.89
-33.30
-40.31
-48.39
-57.69
-67.69
-77.09
-83.91
-85.98
-81.74
-70.79
-54.11
-33.76
-12.18
8.44
26.70
41.94
54.07
63.19
69.50
73.20
74.58
74.17
72.68
70.75
68.89
67.27
65.73
63.93
61.51
58.26
54.15
49.28
43.81
37.81
31.33
24.44
17.32
10.20
3.34
-3.15
-9.42
-15.89
-23.18
-31.86
-42.19
-53.79
-65.53
-75.63
-82.02
-82.89
-77.33
-65.57
-49.04
-29.83
-10.12
8.31
24.39
37.60
47.80
55.06
59.54
61.63
61.92
61.12
59.88
58.63
57.44
56.17
54.56
52.43
49.76
46.63
43.10
39.17
34.68
29.46
23.41
16.58
9.21
1.67
-5.68
-12.61
-19.15
-25.56
-32.33
-40.03
-49.03
-59.24
-69.82
-79.16
-85.12
-85.65
-79.46
-66.61
-48.50
-27.46
-5.97
14.10
31.71
46.56
58.67
68.10
74.83
79.01
81.15
82.09
82.73
83.71
85.09
86.53
87.44
87.42
86.36
84.49
82.14
79.58
76.89
73.92
70.35
65.86
60.16
53.09
44.80
35.59
25.95
16.31
6.94
-2.19
-11.28
-20.52
-29.79
-38.64
-46.35
-52.15
-55.54
-56.48
-55.32
-52.67
-49.18
-45.35
-41.47
-37.70
-34.11
-30.74
-27.62
-24.72
-22.05
-19.53
-17.15
-14.89
-12.76
-10.77
-8.96
-7.42
-6.24
-5.53
-5.36
-5.78
-6.75
-8.25
-10.19
-12.49
-15.08
-17.90
-20.98
-24.44
-28.46
-33.20
-38.68
-44.65
-50.50
-55.32
-58.11
-58.07
-54.82
-48.60
-40.08
-30.22
-20.01
-10.21
-1.37
6.15
12.13
16.42
18.97
19.90
19.52
18.25
16.55
14.77
13.12
11.64
10.26
8.84
7.25
5.36
3.09
0.38
-2.76
-6.29
-10.06
-13.92
-17.73
-21.44
-25.12
-29.02
-33.46
-38.73
-44.89
-51.68
-58.37
-63.89
-66.96
-66.39
-61.36
-51.66
-37.80
-20.94
-2.58
15.66
32.42
46.65
57.78
65.64
70.40
72.59
72.92
72.27
71.41
70.88
70.88
71.32
71.95
72.54
72.92
73.01
72.59
71.31
68.67
64.24
57.76
49.29
39.09
27.49
14.70
0.85
-13.98
-29.48
-45.06
-59.83
-72.73
-82.79
-89.22
-91.41
-88.95
-81.60
-69.49
-53.25
-34.20
-14.23
4.56
20.29
31.81
38.86
41.99
42.22
40.59
37.92
34.69
31.20
27.62
24.20
21.16
18.61
16.42
14.25
11.60
8.05
3.32
-2.58
-9.43
-16.93
-24.76
-32.68
-40.57
-48.33
-55.93
-63.26
-70.13
-76.21
-81.01
-83.89
-84.24
-81.57
-75.74
-67.05
-56.15
-43.91
-31.17
-18.62
-6.76
4.01
13.31
20.81
26.29
29.76
31.52
32.06
31.94
31.54
31.00
30.28
29.22
27.70
25.73
23.40
20.80
17.99
14.93
11.57
7.84
3.77
-0.56
-5.05
-9.64
-14.40
-19.52
-25.20
-31.54
-38.36
-45.12
-51.02
-55.15
-56.77
-55.46
-51.18
-44.29
-35.31
-24.87
-13.64
-2.30
8.42
17.83
25.33
30.63
33.75
35.06
35.07
34.39
33.48
32.67
32.01
31.44
30.66
29.32
27.11
23.86
19.64
14.72
9.48
4.25
-0.80
-5.71
-10.68
-16.07
-22.27
-29.57
-37.94
-46.83
-55.09
-61.09
-63.19
-60.30
-52.26
-39.97
-25.10
-9.51
5.22
18.06
28.52
36.39
41.57
44.06
44.03
41.99
38.71
35.13
32.00
29.66
28.06
26.74
25.19
22.98
19.90
16.00
11.47
6.55
1.51
-3.48
-8.35
-13.14
-18.04
-23.38
-29.55
-36.90
-45.46
-54.80
-63.81
-70.90
-74.26
-72.45
-64.85
-51.99
-35.36
-17.01
1.05
17.28
30.86
41.50
49.25
54.25
56.69
56.82
55.11
52.24
48.96
45.95
43.58
41.87
40.52
39.07
37.09
34.25
30.46
25.77
20.42
14.65
8.74
2.83
-3.03
-8.97
-15.21
-22.03
-29.72
-38.47
-48.18
-58.30
-67.66
-74.63
-77.43
-74.72
-66.04
-52.09
-34.56
-15.60
2.74
18.91
32.08
41.99
48.76
52.79
54.58
54.71
53.71
52.00
49.83
47.25
44.31
41.06
37.64
34.20
30.86
27.59
24.23
20.54
16.32
11.45
5.92
-0.14
-6.46
-12.74
-18.69
-24.22
-29.51
-35.07
-41.55
-49.42
-58.61
-68.16
-76.32
-80.94
-80.15
-73.05
-60.09
-42.91
-23.76
-4.76
12.63
27.72
40.30
50.34
57.76
62.46
64.53
64.46
62.98
60.93
58.88
57.01
55.13
52.89
50.04
46.52
42.48
38.11
33.54
28.77
23.66
18.06
11.88
5.20
-1.70
-8.46
-14.73
-20.32
-25.33
-30.12
-35.27
-41.36
-48.80
-57.58
-67.13
-76.22
-83.14
-86.08
-83.63
-75.24
-61.51
-43.98
-24.74
-5.80
11.33
25.80
37.31
45.79
51.34
54.14
54.58
53.35
51.30
49.22
47.58
46.40
45.28
43.70
41.32
38.13
34.47
30.84
27.58
24.75
22.03
18.91
14.92
9.83
3.76
-2.90
-9.60
-15.93
-21.71
-27.09
-32.48
-38.42
-45.35
-53.40
-62.15
-70.54
-76.93
-79.50
-76.78
-68.20
-54.36
-36.94
-18.20
-0.27
15.33
27.95
37.54
44.34
48.63
50.61
50.61
49.13
46.88
44.49
42.31
40.26
37.96
35.03
31.34
27.10
22.73
18.54
14.52
10.40
5.82
0.60
-5.09
-10.82
-16.16
-20.93
-25.29
-29.61
-34.27
-39.56
-45.51
-52.01
-58.75
-65.11
-70.07
-72.24
-70.18
-62.96
-50.60
-34.26
-16.06
1.68
17.02
28.89
37.14
42.20
44.76
45.45
44.79
43.24
41.27
39.28
37.54
36.05
34.60
32.84
30.48
27.42
23.78
19.83
15.80
11.77
7.61
3.05
-2.09
-7.80
-13.78
-19.61
-24.97
-29.85
-34.63
-39.88
-46.16
-53.69
-62.07
-70.31
-76.90
-80.15
-78.62
-71.58
-59.27
-42.94
-24.50
-5.99
10.91
25.18
36.44
44.74
50.27
53.36
54.36
53.86
52.51
50.94
49.50
48.15
46.50
44.11
40.71
36.39
31.50
26.50
21.66
17.02
12.37
7.50
2.33
-3.01
-8.29
-13.30
-18.02
-22.66
-27.55
-33.09
-39.59
-47.21
-55.75
-64.58
-72.55
-78.04
-79.34
-75.16
-65.17
-50.21
-32.12
-13.18
4.55
19.69
31.68
40.56
46.67
50.40
52.07
52.05
50.77
48.76
46.52
44.40
42.50
40.69
38.72
36.37
33.58
30.49
27.25
23.99
20.61
16.84
12.41
7.16
1.24
-4.96
-11.01
-16.59
-21.71
-26.68
-31.97
-38.10
-45.32
-53.52
-61.95
-69.28
-73.80
-73.80
-68.21
-57.03
-41.44
-23.53
-5.58
10.53
23.73
33.79
40.99
45.75
48.39
49.16
48.30
46.20
43.37
40.34
37.52
35.07
32.93
30.84
28.52
25.75
22.46
18.70
14.58
10.21
5.64
0.88
-4.09
-9.21
-14.35
-19.43
-24.50
-29.80
-35.78
-42.81
-50.93
-59.48
-67.11
-72.00
-72.39
-67.16
-56.29
-40.87
-22.80
-4.23
12.97
27.55
38.89
46.88
51.71
53.78
53.63
51.86
49.16
46.16
43.27
40.64
38.14
35.55
32.68
29.47
25.99
22.36
18.59
14.55
10.03
4.93
-0.77
-6.85
-13.02
-19.02
-24.78
-30.40
-36.18
-42.50
-49.66
-57.79
-66.53
-74.90
-81.33
-83.95
-81.16
-72.25
-57.80
-39.51
-19.74
-0.75
15.85
29.29
39.46
46.56
50.89
52.75
52.58
50.99
48.69
46.30
44.07
41.98
39.75
37.18
34.23
31.06
27.87
24.70
21.36
17.52
12.85
7.24
0.85
-5.94
-12.70
-19.12
-25.08
-30.72
-36.47
-42.89
-50.50
-59.47
-69.25
-78.47
-85.08
-86.91
-82.37
-71.13
-54.24
-33.90
-12.69
7.14
24.18
37.92
48.43
55.97
60.78
63.07
63.14
61.55
59.00
56.19
53.57
51.16
48.74
46.01
42.87
39.42
35.92
32.54
29.19
25.57
21.27
16.06
9.98
3.34
-3.43
-9.96
-16.13
-22.09
-28.21
-34.95
-42.72
-51.70
-61.62
-71.51
-79.82
-84.59
-84.03
-77.15
-64.19
-46.67
-26.93
-7.47
9.85
24.03
34.97
43.03
48.64
52.08
53.53
53.17
51.41
48.79
45.85
42.99
40.39
37.97
35.59
33.08
30.31
27.20
23.64
19.56
14.91
9.69
3.96
-2.14
-8.42
-14.69
-20.79
-26.70
-32.62
-38.98
-46.24
-54.57
-63.48
-71.59
-76.97
-77.62
-72.27
-60.86
-44.66
-25.85
-6.80
10.54
25.01
36.17
44.10
49.03
51.28
51.24
49.43
46.51
43.19
40.03
37.37
35.25
33.49
31.79
29.86
27.49
24.54
20.95
16.77
12.06
6.99
1.69
-3.71
-9.14
-14.62
-20.33
-26.53
-33.54
-41.60
-50.63
-60.03
-68.47
-74.19
-75.36
-70.75
-60.23
-44.92
-26.92
-8.60
8.04
21.79
32.23
39.52
44.01
46.11
46.18
44.65
42.06
38.97
35.87
32.99
30.31
27.60
24.56
20.97
16.77
12.04
6.95
1.63
-3.90
-9.65
-15.65
-21.80
-27.89
-33.72
-39.19
-44.45
-49.93
-56.15
-63.51
-71.87
-80.31
-87.20
-90.47
-88.30
-79.76
-65.24
-46.40
-25.65
-5.43
12.44
27.05
38.30
46.51
52.10
55.40
56.74
56.52
55.27
53.55
51.82
50.26
48.83
47.32
45.44
42.99
39.88
36.10
31.73
26.88
21.64
16.07
10.20
4.03
-2.43
-9.16
-16.21
-23.71
-31.91
-41.13
-51.48
-62.58
-73.34
-82.00
-86.55
-85.34
-77.71
-64.32
-46.90
-27.74
-8.96
7.97
22.35
34.02
43.03
49.41
53.16
54.40
53.56
51.38
48.66
46.03
43.75
41.69
39.48
36.83
33.69
30.31
27.12
24.50
22.61
21.31
20.20
18.85
16.94
14.36
11.23
7.68
3.75
-0.73
-6.12
-12.70
-20.44
-28.85
-36.95
-43.54
-47.49
-47.98
-44.74
-38.00
-28.40
-16.87
-4.49
7.65
18.57
27.58
34.33
38.81
41.30
42.22
41.95
40.84
39.17
37.19
35.16
33.31
31.80
30.63
29.57
28.32
26.54
24.10
21.02
17.55
13.88
10.11
6.12
1.64
-3.60
-9.77
-16.82
-24.47
-32.22
-39.42
-45.29
-49.03
-50.01
-47.90
-42.84
-35.36
-26.27
-16.48
-6.76
2.23
10.07
16.44
21.15
24.18
25.63
25.77
24.99
23.74
22.44
21.44
20.92
20.84
20.93
20.75
19.84
17.96
15.16
11.83
8.50
5.54
3.09
0.87
-1.53
-4.53
-8.32
-12.85
-17.92
-23.25
-28.47
-33.04
-36.19
-37.11
-35.18
-30.43
-23.48
-15.39
-7.16
0.64
7.98
15.11
22.17
28.88
34.58
38.59
40.49
40.40
38.83
36.43
33.68
30.77
27.67
24.24
20.44
16.30
11.88
7.24
2.30
-2.94
-8.32
-13.43
-17.66
-20.39
-21.25
-20.39
-18.45
-16.46
-15.50
-16.43
-19.56
-24.68
-30.94
-37.19
-42.10
-44.56
-43.80
-39.64
-32.43
-22.98
-12.42
-1.81
7.89
16.06
22.43
27.03
30.08
31.85
32.60
32.50
31.71
30.33
28.54
26.51
24.45
22.49
20.70
19.03
17.29
15.30
12.87
9.94
6.54
2.80
-1.12
-5.08
-9.02
-13.02
-17.26
-22.03
-27.51
-33.64
-40.00
-45.71
-49.67
-50.82
-48.58
-43.00
-34.82
-25.18
-15.22
-5.74
2.92
10.83
18.13
24.84
30.72
35.36
38.40
39.73
39.56
38.36
36.68
34.93
33.28
31.70
30.02
28.06
25.68
22.80
19.37
15.31
10.61
5.24
-0.80
-7.46
-14.68
-22.40
-30.51
-38.73
-46.57
-53.25
-57.84
-59.46
-57.56
-52.15
-43.79
-33.45
-22.21
-10.97
-0.38
9.18
17.37
23.91
28.46
30.88
31.29
30.14
28.15
26.02
24.21
22.85
21.75
20.51
18.83
16.53
13.72
10.65
7.64
4.95
2.63
0.56
-1.55
-4.01
-7.17
-11.19
-16.10
-21.65
-27.28
-32.14
-35.26
-35.77
-33.23
-27.77
-20.13
-11.45
-2.93
4.51
10.35
14.43
16.79
17.51
16.75
14.76
11.92
8.77
5.80
3.37
1.59
0.28
-0.81
-1.97
-3.35
-4.93
-6.54
-7.90
-8.72
-8.85
-8.37
-7.66
-7.30
-7.94
-10.11
-14.09
-19.87
-27.13
-35.25
-43.32
-50.28
-54.98
-56.48
-54.29
-48.49
-39.76
-29.18
-17.96
-7.22
2.23
9.87
15.49
19.09
20.82
20.93
19.74
17.62
14.90
11.93
8.94
6.08
3.36
0.76
-1.75
-4.07
-6.04
-7.50
-8.37
-8.78
-9.03
-9.48
-10.51
-12.43
-15.46
-19.73
-25.16
-31.37
-37.62
-42.89
-46.09
-46.34
-43.24
-36.95
-28.09
-17.50
-6.04
5.55
16.64
26.73
35.37
42.19
46.99
49.79
50.88
50.68
49.69
48.28
46.66
44.87
42.83
40.48
37.79
34.73
31.30
27.41
23.03
18.15
12.90
7.51
2.24
-2.72
-7.37
-11.86
-16.44
-21.28
-26.25
-30.93
-34.61
-36.50
-36.00
-32.87
-27.31
-19.86
-11.20
-2.01
7.15
15.76
23.27
29.15
32.97
34.55
34.12
32.33
29.97
27.79
26.18
25.14
24.33
23.28
21.61
19.10
15.77
11.79
7.37
2.72
-2.05
-6.86
-11.71
-16.66
-21.87
-27.55
-33.88
-40.88
-48.29
-55.48
-61.52
-65.44
-66.48
-64.29
-59.03
-51.30
-41.93
-31.81
-21.77
-12.51
-4.60
1.64
6.08
8.89
10.36
10.91
10.97
10.90
11.00
11.42
12.12
12.85
13.20
12.74
11.28
8.99
6.34
3.84
1.77
-0.06
-2.31
-5.82
-11.24
-18.79
-28.08
-38.17
-47.84
-55.75
-60.69
-61.84
-58.81
-51.82
-41.59
-29.21
-15.95
-2.95
8.89
18.99
26.99
32.77
36.36
37.97
37.96
36.79
34.96
32.87
30.83
29.02
27.57
26.47
25.57
24.63
23.32
21.39
18.74
15.48
11.76
7.74
3.39
-1.45
-6.97
-13.27
-20.27
-27.64
-34.82
-41.13
-45.73
-47.83
-46.76
-42.22
-34.40
-24.06
-12.34
-0.46
10.52
19.96
27.65
33.67
38.15
41.19
42.84
43.19
42.54
41.38
40.22
39.41
38.94
38.45
37.44
35.53
32.65
29.10
25.37
21.85
18.65
15.45
11.66
6.69
0.17
-7.86
-16.93
-26.26
-34.84
-41.68
-45.96
-47.19
-45.30
-40.72
-34.18
-26.59
-18.82
-11.54
-5.26
-0.34
2.93
4.49
4.47
3.38
1.97
1.11
1.50
3.45
6.80
11.00
15.27
18.87
21.31
22.45
22.47
21.70
20.45
18.86
16.82
14.07
10.36
5.59
-0.04
-6.01
-11.43
-15.21
-16.28
-13.90
-7.94
0.95
11.47
22.00
30.95
37.16
40.01
39.40
35.67
29.38
21.24
12.05
2.61
-6.45
-14.64
-21.73
-27.72
-32.80
-37.31
-41.57
-45.86
-50.24
-54.57
-58.51
-61.76
-64.26
-66.33
-68.61
-71.79
-76.35
-82.26
-88.78
-94.56
-97.87
-96.97
-90.64
-78.52
-61.31
-40.65
-18.58
2.94
22.45
39.15
52.69
62.95
69.84
73.37
73.79
71.75
68.15
63.97
59.95
56.30
52.82
49.08
44.64
39.34
33.34
26.94
20.44
14.02
7.60
0.93
-6.31
-14.49
-23.86
-34.42
-45.74
-56.89
-66.41
-72.63
-74.01
-69.65
-59.62
-45.00
-27.51
-9.13
8.39
23.78
36.26
45.45
51.29
53.99
54.00
52.06
49.02
45.73
42.79
40.42
38.47
36.52
34.15
31.08
27.32
23.10
18.83
14.85
11.30
7.98
4.39
-0.19
-6.48
-14.94
-25.41
-36.96
-47.90
-56.14
-59.70
-57.34
-49.05
-35.91
-19.79
-2.72
13.73
28.60
41.47
52.11
60.27
65.67
68.18
67.99
65.70
62.17
58.26
54.59
51.47
48.90
46.65
44.42
41.94
38.96
35.35
31.14
26.44
21.41
16.12
10.51
4.29
-2.97
-11.71
-22.17
-34.12
-46.64
-58.14
-66.70
-70.58
-68.78
-61.35
-49.30
-34.25
-17.95
-1.87
12.78
25.16
34.64
40.84
43.77
43.87
41.98
39.06
35.95
33.20
30.94
29.00
27.08
24.83
22.01
18.50
14.38
9.88
5.29
0.88
-3.27
-7.35
-11.79
-17.21
-24.14
-32.81
-42.87
-53.31
-62.54
-68.76
-70.40
-66.56
-57.37
-43.84
-27.58
-10.39
6.21
21.06
33.38
42.64
48.54
51.03
50.51
47.76
43.86
39.84
36.35
33.56
31.22
28.84
26.08
22.79
19.09
15.12
11.01
6.75
2.27
-2.50
-7.63
-13.27
-19.68
-27.17
-35.93
-45.73
-55.73
-64.49
-70.28
-71.57
-67.53
-58.25
-44.75
-28.63
-11.65
4.64
19.11
31.11
40.33
46.74
50.44
51.67
50.77
48.25
44.72
40.81
37.04
33.74
30.95
28.45
25.88
22.89
19.21
14.82
9.81
4.35
-1.38
-7.25
-13.22
-19.31
-25.66
-32.50
-40.10
-48.62
-57.88
-67.21
-75.37
-80.79
-81.93
-77.76
-68.13
-53.81
-36.34
-17.65
0.44
16.53
29.79
39.95
47.13
51.67
53.97
54.41
53.44
51.48
48.99
46.34
43.78
41.36
38.96
36.39
33.39
29.82
25.61
20.77
15.41
9.67
3.71
-2.34
-8.42
-14.57
-20.90
-27.66
-35.07
-43.32
-52.32
-61.60
-70.19
-76.61
-79.29
-76.89
-68.82
-55.49
-38.28
-19.18
-0.24
16.83
30.98
41.77
49.27
53.77
55.67
55.44
53.60
50.69
47.22
43.59
40.02
36.54
33.07
29.47
25.61
21.48
17.10
12.58
8.06
3.65
-0.57
-4.62
-8.64
-12.87
-17.60
-23.10
-29.52
-36.82
-44.67
-52.42
-59.08
-63.43
-64.28
-60.79
-52.70
-40.44
-25.07
-8.07
8.98
24.62
37.75
47.70
54.23
57.50
58.04
56.50
53.57
49.90
45.95
42.01
38.24
34.60
30.95
27.01
22.50
17.24
11.21
4.68
-1.94
-8.22
-13.89
-19.00
-23.84
-28.90
-34.67
-41.46
-49.23
-57.52
-65.41
-71.62
-74.75
-73.62
-67.63
-56.99
-42.73
-26.41
-9.81
5.54
18.56
28.72
35.94
40.43
42.53
42.64
41.15
38.54
35.33
32.05
29.16
26.82
24.90
22.91
20.34
16.85
12.48
7.65
2.91
-1.35
-5.11
-8.75
-12.84
-17.98
-24.61
-32.88
-42.58
-53.00
-62.97
-70.90
-75.11
-74.22
-67.64
-55.78
-39.97
-22.12
-4.24
12.05
25.70
36.21
43.45
47.53
48.70
47.38
44.19
39.93
35.47
31.50
28.35
25.91
23.70
21.10
17.69
13.34
8.30
3.05
-1.94
-6.37
-10.30
-14.03
-18.10
-23.06
-29.30
-36.96
-45.76
-54.94
-63.23
-69.04
-70.80
-67.43
-58.70
-45.35
-28.95
-11.40
5.55
20.65
33.27
43.24
50.59
55.42
57.91
58.34
57.21
55.16
52.82
50.65
48.78
46.97
44.85
41.98
38.12
33.29
27.74
21.81
15.77
9.79
3.82
-2.28
-8.75
-15.85
-23.85
-32.92
-42.95
-53.38
-63.04
-70.30
-73.42
-71.02
-62.66
-48.99
-31.62
-12.67
5.86
22.41
36.11
46.62
53.95
58.28
59.89
59.14
56.57
52.83
48.57
44.35
40.47
36.96
33.63
30.17
26.40
22.25
17.84
13.43
9.20
5.17
1.15
-3.22
-8.29
-14.29
-21.25
-29.01
-37.34
-45.85
-53.96
-60.80
-65.16
-65.79
-61.72
-52.71
-39.44
-23.41
-6.49
9.51
23.29
34.11
41.69
46.05
47.38
46.03
42.61
37.99
33.12
28.79
25.30
22.44
19.58
16.05
11.54
6.24
0.75
-4.23
-8.24
-11.32
-13.90
-16.64
-20.14
-24.82
-30.85
-38.12
-46.22
-54.42
-61.63
-66.48
-67.69
-64.34
-56.27
-44.13
-29.23
-13.21
2.33
16.08
27.18
35.20
40.09
42.08
41.68
39.54
36.43
33.11
30.12
27.69
25.66
23.57
20.86
17.15
12.40
6.96
1.38
-3.85
-8.59
-13.08
-17.85
-23.54
-30.56
-39.05
-48.76
-58.96
-68.53
-76.00
-79.79
-78.58
-71.79
-59.78
-43.84
-25.81
-7.61
9.23
23.72
35.35
43.83
49.08
51.15
50.43
47.65
43.87
40.15
37.23
35.28
33.95
32.59
30.61
27.75
24.11
20.09
16.11
12.40
8.88
5.22
0.90
-4.59
-11.69
-20.60
-31.13
-42.51
-53.42
-62.05
-66.53
-65.49
-58.43
-46.02
-29.87
-12.07
5.42
21.18
34.49
45.19
53.31
58.91
61.97
62.51
60.76
57.22
52.61
47.62
42.73
38.07
33.44
28.50
22.97
16.81
10.17
3.42
-3.10
-9.24
-15.07
-20.90
-27.21
-34.47
-43.04
-52.98
-63.89
-74.91
-84.66
-91.48
-93.81
-90.53
-81.41
-67.18
-49.36
-29.90
-10.69
6.85
21.84
33.88
42.84
48.70
51.55
51.69
49.75
46.67
43.44
40.84
39.11
37.93
36.63
34.55
31.40
27.36
22.92
18.63
14.72
11.01
6.96
1.91
-4.62
-12.84
-22.59
-33.44
-44.68
-55.34
-64.16
-69.71
-70.65
-66.20
-56.37
-42.17
-25.27
-7.60
9.17
23.86
35.83
44.77
50.55
53.16
52.86
50.22
46.12
41.51
37.13
33.29
29.87
26.50
22.81
18.69
14.22
9.57
4.90
0.24
-4.51
-9.49
-14.88
-20.97
-28.07
-36.43
-46.01
-56.20
-65.74
-72.94
-76.06
-73.93
-66.31
-53.98
-38.49
-21.70
-5.28
9.59
22.24
32.32
39.66
44.12
45.72
44.76
42.00
38.49
35.30
33.12
31.96
31.18
29.83
27.09
22.67
16.90
10.47
4.16
-1.58
-6.79
-11.93
-17.78
-25.17
-34.64
-46.17
-58.98
-71.47
-81.49
-86.82
-85.85
-78.10
-64.40
-46.59
-26.89
-7.30
10.83
26.76
40.14
50.65
57.97
61.87
62.47
60.36
56.58
52.24
48.19
44.77
41.81
38.79
35.16
30.54
24.91
18.56
11.97
5.65
-0.13
-5.33
-10.27
-15.52
-21.81
-29.78
-39.73
-51.26
-63.18
-73.55
-80.11
-80.91
-74.93
-62.48
-45.03
-24.73
-3.76
16.21
34.17
49.64
62.35
72.02
78.42
81.51
81.54
79.16
75.23
70.60
65.91
61.48
57.36
53.39
49.31
44.83
39.76
33.97
27.54
20.68
13.76
7.08
0.84
-5.06
-10.98
-17.53
-25.36
-34.91
-46.10
-58.11
-69.32
-77.65
-81.00
-78.01
-68.46
-53.46
-35.12
-15.85
2.25
17.82
30.35
39.80
46.32
50.02
50.99
49.45
46.01
41.58
37.21
33.76
31.60
30.51
29.89
28.98
27.25
24.52
21.00
17.06
13.01
8.92
4.63
-0.15
-5.72
-12.29
-19.99
-28.91
-38.97
-49.80
-60.51
-69.60
-75.25
-75.73
-70.09
-58.48
-42.27
-23.59
-4.67
12.66
27.29
38.74
46.90
51.79
53.55
52.48
49.18
44.57
39.67
35.33
32.00
29.59
27.57
25.29
22.25
18.28
13.58
8.57
3.66
-0.97
-5.44
-10.06
-15.27
-21.42
-28.76
-37.28
-46.70
-56.29
-64.92
-71.10
-73.36
-70.63
-62.63
-50.02
-34.22
-17.05
-0.25
14.77
27.10
36.19
41.82
44.04
43.15
39.77
34.74
29.00
23.41
18.51
14.47
11.02
7.66
3.78
-1.06
-6.92
-13.49
-20.18
-26.38
-31.75
-36.42
-40.90
-45.93
-52.10
-59.64
-68.27
-77.25
-85.40
-91.30
-93.45
-90.54
-81.83
-67.48
-48.63
-27.23
-5.57
14.38
31.32
44.79
54.98
62.27
66.99
69.36
69.57
68.00
65.27
62.11
59.12
56.52
54.08
51.26
47.52
42.50
36.27
29.19
21.87
14.80
8.24
2.11
-3.99
-10.57
-18.23
-27.42
-38.39
-50.99
-64.49
-77.47
-87.85
-93.40
-92.39
-84.19
-69.59
-50.64
-29.94
-9.89
7.90
22.76
34.69
44.00
51.00
55.88
58.77
59.88
59.55
58.23
56.43
54.57
52.97
51.72
50.67
49.48
47.71
44.93
40.87
35.48
28.92
21.50
13.60
5.65
-2.05
-9.41
-16.63
-24.22
-32.81
-42.75
-53.71
-64.45
-72.99
-77.15
-75.28
-66.95
-53.13
-35.87
-17.65
-0.62
13.89
25.35
33.84
39.65
43.04
44.24
43.47
41.12
37.76
33.99
30.37
27.21
24.62
22.51
20.72
19.08
17.38
15.44
13.05
10.00
6.24
1.81
-3.15
-8.42
-13.92
-19.64
-25.82
-32.78
-40.78
-49.83
-59.45
-68.48
-75.25
-77.90
-74.96
-65.91
-51.44
-33.31
-13.83
4.82
21.08
34.20
44.03
50.71
54.45
55.44
54.04
50.78
46.43
41.81
37.55
33.99
31.10
28.59
26.03
23.05
19.42
15.14
10.36
5.32
0.23
-4.86
-10.06
-15.62
-21.86
-29.06
-37.40
-46.86
-57.06
-67.11
-75.60
-80.75
-80.88
-75.00
-63.22
-46.87
-28.08
-9.19
8.00
22.45
33.82
42.15
47.57
50.14
49.98
47.50
43.40
38.66
34.19
30.66
28.27
26.74
25.47
23.77
21.07
17.13
12.09
6.45
0.71
-4.75
-9.91
-15.07
-20.69
-27.20
-34.87
-43.81
-53.92
-64.70
-75.18
-83.80
-88.63
-87.85
-80.47
-66.72
-48.15
-27.17
-6.25
12.66
28.50
40.99
50.30
56.66
60.21
61.08
59.52
56.02
51.35
46.33
41.72
37.92
34.88
32.23
29.43
26.02
21.78
16.83
11.46
6.02
0.73
-4.40
-9.51
-14.80
-20.49
-26.82
-34.10
-42.65
-52.63
-63.75
-74.92
-84.27
-89.51
-88.65
-80.66
-66.00
-46.49
-24.70
-3.16
16.26
32.58
45.51
55.17
61.78
65.59
66.95
66.34
64.43
61.87
59.14
56.52
54.06
51.63
49.10
46.32
43.16
39.50
35.22
30.21
24.38
17.80
10.64
3.21
-4.20
-11.41
-18.49
-25.80
-33.82
-42.95
-53.19
-63.94
-73.87
-81.15
-83.89
-80.70
-71.14
-56.01
-37.08
-16.73
2.79
19.83
33.57
43.94
51.29
56.07
58.60
59.07
57.63
54.52
50.22
45.34
40.54
36.33
32.95
30.23
27.75
24.93
21.29
16.61
10.94
4.56
-2.21
-9.13
-16.04
-22.84
-29.49
-36.04
-42.66
-49.72
-57.63
-66.53
-75.93
-84.54
-90.39
-91.42
-86.24
-74.67
-57.90
-38.13
-17.89
0.69
16.28
28.36
37.00
42.57
45.49
46.25
45.33
43.32
40.80
38.27
36.07
34.32
32.91
31.61
30.08
28.01
25.17
21.50
17.08
12.13
6.93
1.64
-3.69
-9.10
-14.80
-21.09
-28.30
-36.73
-46.41
-56.85
-66.83
-74.54
-77.98
-75.58
-66.80
-52.39
-34.20
-14.56
4.36
21.03
34.69
45.15
52.53
56.97
58.67
57.92
55.21
51.21
46.68
42.27
38.42
35.19
32.35
29.48
26.19
22.24
17.66
12.69
7.60
2.60
-2.31
-7.28
-12.52
-18.21
-24.50
-31.58
-39.69
-49.06
-59.61
-70.72
-81.01
-88.52
-91.18
-87.53
-77.27
-61.40
-42.00
-21.51
-2.04
15.06
29.26
40.59
49.23
55.27
58.72
59.64
58.38
55.58
52.06
48.54
45.46
42.84
40.39
37.67
34.27
30.01
24.88
19.13
13.02
6.87
0.87
-4.97
-10.78
-16.81
-23.33
-30.61
-38.88
-48.23
-58.46
-68.76
-77.59
-82.92
-82.73
-75.75
-62.07
-43.20
-21.63
0.02
19.71
36.35
49.70
59.99
67.47
72.31
74.65
74.76
73.15
70.48
67.42
64.39
61.53
58.69
55.59
52.02
47.89
43.19
37.95
32.15
25.70
18.62
11.05
3.27
-4.35
-11.61
-18.59
-25.67
-33.45
-42.48
-52.93
-64.34
-75.47
-84.47
-89.19
-87.92
-79.88
-65.60
-46.85
-26.06
-5.68
12.44
27.31
38.67
46.71
51.76
54.14
54.19
52.36
49.28
45.64
42.13
39.19
36.96
35.27
33.71
31.84
29.27
25.83
21.56
16.68
11.47
6.17
0.88
-4.41
-9.85
-15.64
-22.05
-29.33
-37.66
-46.96
-56.68
-65.68
-72.32
-74.72
-71.49
-62.13
-47.43
-29.23
-9.94
8.19
23.60
35.54
43.95
49.15
51.56
51.61
49.72
46.47
42.47
38.35
34.58
31.35
28.58
26.00
23.22
19.93
15.95
11.34
6.33
1.25
-3.58
-8.06
-12.28
-16.53
-21.25
-26.87
-33.70
-41.80
-50.85
-59.97
-67.71
-72.25
-71.86
-65.42
-52.85
-35.29
-14.76
6.45
26.32
43.54
57.47
67.98
75.17
79.15
80.12
78.39
74.55
69.39
63.77
58.43
53.76
49.78
46.20
42.62
38.73
34.43
29.88
25.38
21.19
17.36
13.70
9.85
5.44
0.19
-6.03
-13.27
-21.41
-30.13
-38.87
-46.80
-52.91
-56.27
-56.26
-52.86
-46.67
-38.74
-30.39
-22.74
-16.57
-12.20
-9.52
-8.25
-7.98
-8.42
-9.37
-10.69
-12.19
-13.70
-15.01
-16.00
-16.75
-17.44
-18.35
-19.72
-21.73
-24.39
-27.64
-31.31
-35.16
-38.97
-42.57
-45.93
-49.26
-53.01
-57.72
-63.84
-71.41
-79.83
-87.83
-93.66
-95.49
-91.97
-82.60
-67.94
-49.37
-28.76
-7.92
11.70
29.09
43.60
54.87
62.76
67.39
69.15
68.65
66.51
63.25
59.22
54.60
49.57
44.36
39.19
34.23
29.46
24.69
19.72
14.40
8.80
3.12
-2.45
-7.75
-12.85
-17.96
-23.46
-29.71
-36.97
-45.18
-53.82
-61.85
-67.76
-69.97
-67.19
-58.88
-45.50
-28.44
-9.67
8.74
25.15
38.58
48.80
56.05
60.79
63.39
64.11
63.13
60.66
57.06
52.71
47.95
42.97
37.79
32.33
26.58
20.58
14.49
8.44
2.48
-3.37
-9.15
-14.79
-20.18
-25.15
-29.58
-33.53
-37.28
-41.32
-46.21
-52.36
-59.67
-67.34
-73.88
-77.41
-76.16
-69.07
-56.19
-38.61
-18.22
2.87
22.79
40.21
54.31
64.68
71.18
73.90
73.23
69.79
64.46
58.18
51.76
45.75
40.39
35.69
31.49
27.61
23.86
20.06
16.04
11.71
7.09
2.26
-2.58
-7.31
-11.94
-16.75
-22.14
-28.60
-36.39
-45.39
-54.98
-64.04
-71.16
-74.91
-74.15
-68.36
-57.78
-43.45
-26.89
-9.87
6.02
19.59
30.11
37.27
41.14
42.04
40.52
37.30
33.18
28.88
24.95
21.63
18.88
16.53
14.28
11.92
9.31
6.43
3.43
0.48
-2.30
-4.93
-7.61
-10.67
-14.54
-19.60
-26.02
-33.61
-41.70
-49.15
-54.50
-56.37
-53.89
-47.04
-36.68
-24.30
-11.55
0.22
10.18
17.99
23.64
27.24
28.99
29.20
28.33
26.94
25.59
24.71
24.56
25.08
25.97
26.83
27.20
26.82
25.63
23.78
21.56
19.17
16.65
13.73
10.00
5.05
-1.39
-9.25
-18.15
-27.34
-35.76
-42.22
-45.52
-44.75
-39.44
-29.81
-16.78
-1.82
13.40
27.30
38.74
47.15
52.48
54.99
55.09
53.16
49.58
44.75
39.19
33.46
28.10
23.38
19.31
15.54
11.61
7.14
1.98
-3.70
-9.54
-15.11
-20.18
-24.76
-29.22
-34.02
-39.61
-46.11
-53.21
-60.07
-65.51
-68.24
-67.23
-62.00
-52.76
-40.31
-25.86
-10.70
4.01
17.32
28.48
36.91
42.29
44.59
44.17
41.75
38.21
34.27
30.43
26.85
23.48
20.25
17.12
14.21
11.63
9.53
7.96
6.94
6.35
5.98
5.41
4.15
1.67
-2.35
-7.83
-14.22
-20.54
-25.59
-28.28
-27.90
-24.27
-17.78
-9.23
0.43
10.27
19.53
27.61
34.11
38.70
41.26
41.81
40.64
38.20
35.06
31.72
28.57
25.74
23.15
20.60
17.87
14.85
11.55
8.06
4.52
1.01
-2.54
-6.33
-10.69
-16.07
-22.77
-30.83
-39.79
-48.71
-56.35
-61.49
-63.32
-61.65
-56.91
-49.95
-41.68
-32.91
-24.33
-16.49
-9.98
-5.33
-2.84
-2.47
-3.77
-5.99
-8.38
-10.39
-11.85
-12.94
-14.03
-15.47
-17.44
-19.95
-22.86
-25.99
-29.22
-32.51
-35.93
-39.65
-43.96
-49.26
-55.91
-64.02
-73.21
-82.42
-89.95
-93.85
-92.53
-85.22
-72.33
-55.27
-35.94
-16.20
2.56
19.42
33.86
45.43
53.77
58.75
60.69
60.38
58.97
57.55
56.77
56.71
56.92
56.73
55.62
53.34
50.04
46.06
41.74
37.31
32.83
28.23
23.25
17.55
10.71
2.39
-7.46
-18.38
-29.28
-38.55
-44.47
-45.60
-41.31
-31.92
-18.64
-3.14
12.82
27.79
40.71
50.97
58.24
62.42
63.63
62.22
58.74
53.93
48.55
43.17
38.11
33.35
28.63
23.62
18.04
11.80
5.02
-2.03
-8.95
-15.38
-21.07
-25.98
-30.35
-34.67
-39.61
-45.75
-53.35
-62.02
-70.73
-77.91
-81.82
-81.05
-74.90
-63.53
-47.95
-29.63
-10.19
8.95
26.66
42.04
54.37
63.10
67.94
69.05
67.14
63.38
59.01
54.95
51.53
48.35
44.67
39.77
33.40
25.83
17.75
9.94
2.92
-3.15
-8.42
-13.22
-17.95
-22.96
-28.61
-35.20
-42.89
-51.50
-60.33
-68.10
-73.15
-73.78
-68.83
-58.11
-42.53
-23.92
-4.52
13.59
28.91
40.76
49.07
54.18
56.57
56.72
55.10
52.26
48.76
45.09
41.52
38.04
34.38
30.23
25.40
19.93
14.07
8.16
2.50
-2.78
-7.68
-12.32
-16.90
-21.68
-26.98
-33.11
-40.24
-48.18
-56.24
-63.23
-67.73
-68.38
-64.34
-55.56
-42.76
-27.27
-10.66
5.53
20.07
32.10
41.10
46.91
49.67
49.83
48.06
45.22
42.19
39.63
37.91
36.93
36.31
35.47
33.90
31.32
27.73
23.46
18.95
14.59
10.51
6.57
2.36
-2.67
-8.95
-16.75
-25.96
-35.98
-45.78
-53.85
-58.57
-58.56
-53.22
-42.92
-29.04
-13.47
1.98
15.97
27.83
37.29
44.15
48.12
48.94
46.60
41.61
34.96
27.83
21.25
15.78
11.47
7.99
4.91
1.92
-1.08
-3.98
-6.60
-8.86
-10.84
-12.80
-15.10
-18.05
-21.91
-26.78
-32.75
-39.85
-47.98
-56.68
-64.92
-71.14
-73.58
-70.80
-62.19
-48.27
-30.50
-10.88
8.58
26.30
41.29
52.99
61.25
66.12
67.88
67.06
64.43
60.90
57.34
54.29
51.87
49.76
47.39
44.26
40.17
35.26
29.89
24.46
19.16
13.96
8.67
3.07
-3.03
-9.83
-17.51
-26.20
-35.74
-45.55
-54.48
-61.00
-63.64
-61.36
-53.90
-41.86
-26.42
-9.12
8.54
25.23
39.92
51.88
60.72
66.36
69.13
69.71
68.94
67.66
66.39
65.20
63.68
61.22
57.27
51.68
44.75
37.06
29.27
21.84
14.95
8.54
2.46
-3.51
-9.63
-16.17
-23.29
-30.83
-38.19
-44.37
-48.22
-48.92
-46.31
-40.85
-33.53
-25.38
-17.25
-9.64
-2.85
2.87
7.32
10.34
11.98
12.54
12.52
12.42
12.54
12.91
13.31
13.39
12.88
11.69
9.97
8.00
6.09
4.47
3.18
2.12
1.04
-0.37
-2.47
-5.53
-9.69
-14.75
-20.13
-24.85
-27.78
-27.99
-25.15
-19.63
-12.39
-4.66
2.62
8.92
14.18
18.54
22.07
24.59
25.76
25.31
23.26
20.05
16.35
12.82
9.80
7.17
4.41
0.86
-3.95
-10.05
-17.01
-24.09
-30.54
-35.93
-40.26
-43.98
-47.76
-52.22
-57.80
-64.51
-71.91
-79.09
-84.84
-87.87
-87.15
-82.25
-73.48
-61.80
-48.52
-34.92
-21.97
-10.35
-0.43
7.45
13.07
16.32
17.37
16.67
14.91
12.77
10.75
9.00
7.39
5.65
3.49
0.80
-2.42
-6.07
-10.02
-14.18
-18.56
-23.23
-28.32
-33.97
-40.31
-47.45
-55.38
-63.90
-72.43
-79.93
-85.09
-86.54
-83.27
-74.93
-61.96
-45.54
-27.18
-8.44
9.39
25.38
38.97
49.80
57.68
62.63
64.90
64.95
63.48
61.22
58.81
56.66
54.82
53.05
50.94
48.12
44.45
40.05
35.24
30.36
25.62
20.98
16.20
10.93
4.82
-2.37
-10.78
-20.32
-30.60
-40.80
-49.59
-55.39
-56.79
-53.04
-44.35
-31.88
-17.31
-2.33
11.74
24.14
34.43
42.37
47.65
50.05
49.56
46.58
41.89
36.51
31.35
27.02
23.62
20.88
18.35
15.57
12.32
8.60
4.54
0.24
-4.34
-9.40
-15.25
-22.07
-29.88
-38.52
-47.82
-57.57
-67.44
-76.74
-84.33
-88.61
-88.02
-81.51
-69.11
-51.95
-31.98
-11.42
7.84
24.47
37.81
47.61
53.90
56.91
57.11
55.19
52.00
48.45
45.19
42.57
40.51
38.66
36.47
33.48
29.42
24.32
18.44
12.21
6.03
0.16
-5.42
-10.97
-16.99
-24.09
-32.85
-43.59
-56.11
-69.45
-81.89
-91.15
-94.94
-91.71
-81.14
-64.33
-43.47
-21.14
0.40
19.63
35.79
48.65
58.18
64.40
67.45
67.65
65.65
62.29
58.48
54.92
51.93
49.48
47.20
44.63
41.30
36.95
31.54
25.22
18.26
10.91
3.35
-4.29
-11.94
-19.61
-27.42
-35.66
-44.79
-55.05
-66.23
-77.34
-86.52
-91.56
-90.45
-82.18
-67.15
-47.16
-24.85
-2.90
16.63
32.67
45.01
53.96
59.97
63.44
64.69
64.09
62.16
59.50
56.67
54.08
51.86
49.94
48.11
46.15
43.83
40.99
37.45
33.10
27.90
21.93
15.38
8.42
1.25
-6.11
-13.71
-21.74
-30.48
-40.18
-50.89
-62.07
-72.52
-80.33
-83.37
-79.92
-69.33
-52.40
-31.19
-8.46
13.15
31.70
46.21
56.54
63.08
66.46
67.37
66.48
64.42
61.74
58.84
55.97
53.24
50.64
48.09
45.44
42.53
39.19
35.35
31.04
26.38
21.48
16.34
10.85
4.84
-1.78
-8.95
-16.54
-24.41
-32.64
-41.44
-50.95
-60.86
-70.15
-77.12
-79.77
-76.50
-66.78
-51.44
-32.48
-12.45
6.28
22.10
34.27
42.74
47.78
49.72
48.92
45.90
41.40
36.37
31.79
28.30
26.09
24.85
23.95
22.79
20.92
18.25
14.86
10.96
6.74
2.33
-2.21
-6.86
-11.63
-16.67
-22.20
-28.46
-35.50
-42.97
-49.91
-54.94
-56.52
-53.48
-45.49
-33.20
-18.13
-2.12
13.05
26.06
36.16
42.98
46.43
46.62
43.90
38.95
32.68
26.11
20.07
14.99
10.92
7.59
4.63
1.74
-1.29
-4.57
-8.20
-12.22
-16.61
-21.25
-25.88
-30.30
-34.42
-38.45
-42.90
-48.37
-55.23
-63.31
-71.60
-78.43
-81.84
-80.19
-72.63
-59.46
-41.92
-21.90
-1.35
17.97
34.82
48.39
58.27
64.38
66.89
66.25
63.16
58.50
53.19
48.01
43.45
39.58
36.09
32.48
28.26
23.16
17.23
10.78
4.24
-2.02
-7.84
-13.31
-18.70
-24.42
-30.91
-38.51
-47.31
-56.85
-66.05
-73.27
-76.67
-74.82
-67.16
-54.22
-37.51
-18.97
-0.52
16.42
30.95
42.59
51.10
56.40
58.62
58.26
56.14
53.29
50.62
48.65
47.39
46.38
45.00
42.73
39.40
35.17
30.34
25.17
19.68
13.71
7.01
-0.61
-9.22
-18.81
-29.36
-40.68
-52.24
-63.01
-71.47
-75.94
-75.07
-68.33
-56.20
-39.95
-21.34
-2.12
16.16
32.30
45.37
54.79
60.34
62.27
61.24
58.20
54.09
49.62
45.22
41.03
37.03
33.16
29.36
25.53
21.59
17.44
13.04
8.49
4.00
-0.21
-3.98
-7.31
-10.45
-13.77
-17.73
-22.61
-28.45
-34.86
-41.10
-46.14
-48.98
-48.90
-45.69
-39.61
-31.34
-21.68
-11.39
-1.16
8.44
16.86
23.59
28.28
30.84
31.53
30.87
29.53
28.08
26.94
26.25
25.88
25.55
24.86
23.47
21.19
18.03
14.21
9.99
5.58
1.04
-3.73
-8.93
-14.77
-21.42
-28.89
-37.01
-45.20
-52.52
-57.85
-60.11
-58.69
-53.63
-45.64
-35.86
-25.53
-15.71
-7.17
-0.39
4.34
6.92
7.41
6.09
3.40
-0.12
-3.95
-7.68
-11.05
-14.00
-16.60
-18.99
-21.37
-23.82
-26.33
-28.81
-31.10
-33.15
-35.08
-37.14
-39.73
-43.31
-48.36
-55.14
-63.68
-73.51
-83.63
-92.52
-98.43
-99.78
-95.61
-85.89
-71.55
-54.11
-35.33
-16.72
0.62
16.01
29.03
39.46
47.12
52.06
54.54
55.02
54.15
52.58
50.87
49.39
48.25
47.35
46.39
44.98
42.84
39.85
36.12
31.97
27.70
23.49
19.31
14.95
10.00
4.01
-3.36
-12.19
-21.99
-31.60
-39.24
-42.91
-40.95
-32.64
-18.52
-0.35
19.34
37.97
53.46
64.69
71.46
74.34
74.22
71.96
68.15
63.10
57.02
50.24
43.25
36.61
30.76
25.85
21.67
17.80
13.78
9.28
4.22
-1.24
-6.81
-12.13
-16.90
-21.02
-24.58
-27.98
-31.72
-36.36
-42.17
-49.12
-56.68
-63.89
-69.43
-71.90
-70.11
-63.40
-51.98
-36.85
-19.67
-2.26
13.76
27.24
37.59
44.61
48.40
49.30
47.93
45.10
41.75
38.66
36.25
34.46
32.80
30.66
27.57
23.37
18.25
12.52
6.44
0.08
-6.61
-13.74
-21.33
-29.33
-37.67
-46.34
-55.39
-64.73
-73.89
-81.87
-87.20
-88.29
-83.93
-73.81
-58.62
-39.88
-19.54
0.58
19.11
35.16
48.23
57.95
64.06
66.50
65.55
61.98
56.94
51.69
47.30
44.28
42.60
41.69
40.74
38.93
35.61
30.48
23.55
15.07
5.48
-4.80
-15.42
-26.22
-37.22
-48.61
-60.43
-72.53
-84.25
-94.53
-101.97
-105.28
-103.58
-96.67
-85.09
-69.89
-52.41
-33.95
-15.70
1.30
16.12
27.99
36.39
41.22
42.89
42.22
40.26
38.02
36.17
34.93
34.09
33.14
31.54
28.93
25.22
20.61
15.46
10.09
4.72
-0.66
-6.21
-12.23
-19.12
-27.27
-36.94
-48.06
-59.90
-71.05
-79.44
-82.90
-79.79
-69.59
-53.20
-32.62
-10.40
11.13
30.30
46.29
58.89
68.18
74.29
77.39
77.80
76.07
73.04
69.57
66.41
63.96
62.25
61.07
60.04
58.80
57.08
54.72
51.65
47.87
43.43
38.43
33.07
27.52
21.92
16.24
10.21
3.33
-4.89
-14.62
-25.28
-35.47
-43.08
-45.85
-42.15
-31.57
-15.09
5.19
26.70
47.13
64.84
78.97
89.31
96.02
99.39
99.79
97.62
93.33
87.46
80.52
72.99
65.28
57.63
50.19
42.96
35.92
29.07
22.49
16.35
10.82
6.00
1.91
-1.51
-4.36
-6.75
-8.83
-10.81
-13.02
-15.86
-19.70
-24.67
-30.56
-36.70
-42.05
-45.51
-46.23
-43.97
-39.14
-32.75
-26.01
-19.94
-15.14
-11.75
-9.60
-8.43
-8.03
-8.25
-8.97
-9.96
-10.98
-11.82
-12.42
-12.91
-13.50
-14.41
-15.75
-17.45
-19.36
-21.30
-23.14
-24.79
-26.19
-27.28
-28.09
-28.77
-29.62
-31.06
-33.47
-37.05
-41.60
-46.56
-51.06
-54.15
-55.07
-53.47
-49.40
-43.31
-35.85
-27.76
-19.73
-12.38
-6.21
-1.60
1.24
2.35
1.99
0.65
-1.08
-2.68
-3.78
-4.29
-4.36
-4.25
-4.26
-4.53
-5.15
-6.22
-7.99
-10.84
-15.19
-21.25
-28.95
-37.89
-47.56
-57.58
-67.80
-78.21
-88.57
-98.22
-105.92
-110.13
-109.45
-103.08
-91.12
-74.55
-54.94
-34.06
-13.57
5.19
21.23
33.90
42.94
48.42
50.84
50.98
49.69
47.69
45.42
42.97
40.20
36.92
33.14
29.12
25.33
22.32
20.39
19.40
18.71
17.35
14.31
8.89
0.90
-9.41
-21.47
-34.57
-47.98
-60.67
-71.31
-78.28
-80.05
-75.59
-64.91
-49.12
-30.20
-10.44
8.18
24.33
37.43
47.47
54.72
59.55
62.29
63.34
63.13
62.25
61.31
60.77
60.73
60.82
60.28
58.23
54.06
47.77
39.88
31.32
23.01
15.47
8.68
2.08
-5.14
-13.77
-24.26
-36.47
-49.59
-62.08
-71.98
-77.35
-76.77
-69.79
-57.13
-40.40
-21.74
-3.20
13.55
27.50
38.12
45.26
49.08
49.95
48.47
45.46
41.81
38.33
35.55
33.55
32.01
30.32
27.88
24.30
19.56
14.01
8.20
2.68
-2.31
-6.85
-11.43
-16.74
-23.50
-32.12
-42.51
-53.89
-64.83
-73.48
-77.99
-77.03
-70.18
-58.02
-41.97
-23.90
-5.71
11.01
25.09
35.83
42.93
46.47
46.86
44.88
41.49
37.68
34.22
31.47
29.42
27.64
25.57
22.69
18.73
13.79
8.26
2.71
-2.38
-6.80
-10.75
-14.78
-19.66
-26.05
-34.16
-43.58
-53.07
-60.81
-64.77
-63.32
-55.68
-42.29
-24.66
-4.85
15.04
33.45
49.46
62.70
72.96
79.97
83.28
82.55
77.88
70.02
60.37
50.56
41.92
35.00
29.48
24.42
18.80
12.05
4.25
-3.93
-11.62
-18.14
-23.22
-27.10
-30.38
-33.88
-38.32
-44.18
-51.38
-59.17
-66.12
-70.38
-70.21
-64.50
-53.14
-37.12
-18.16
1.73
20.73
37.45
50.97
60.69
66.39
68.16
66.50
62.32
56.79
51.06
45.95
41.86
38.66
35.93
33.07
29.53
25.00
19.37
12.88
5.93
-1.02
-7.58
-13.66
-19.47
-25.46
-32.25
-40.41
-50.18
-61.26
-72.63
-82.60
-89.09
-90.11
-84.39
-71.82
-53.54
-31.65
-8.67
13.09
31.91
46.88
57.78
64.84
68.51
69.35
67.97
65.00
61.06
56.73
52.44
48.43
44.74
41.22
37.63
33.69
29.20
24.08
18.38
12.29
6.00
-0.33
-6.64
-13.02
-19.66
-26.83
-34.82
-43.86
-54.03
-65.04
-76.04
-85.59
-91.78
-92.69
-87.04
-74.70
-56.86
-35.77
-14.05
5.99
22.85
35.93
45.30
51.35
54.59
55.51
54.68
52.78
50.52
48.39
46.60
44.98
43.20
40.95
38.24
35.31
32.58
30.31
28.51
26.86
24.90
22.20
18.53
13.92
8.54
2.60
-3.81
-10.86
-18.79
-27.80
-37.70
-47.69
-56.27
-61.54
-61.69
-55.63
-43.47
-26.54
-7.10
12.38
29.81
43.82
53.89
60.08
62.78
62.59
60.18
56.28
51.68
47.07
42.94
39.51
36.74
34.32
31.83
28.85
25.06
20.32
14.77
8.68
2.49
-3.47
-9.00
-14.15
-19.19
-24.48
-30.40
-37.23
-45.05
-53.68
-62.56
-70.75
-76.99
-79.89
-78.30
-71.60
-60.02
-44.60
-26.99
-9.08
7.44
21.31
31.90
39.11
43.23
44.78
44.34
42.55
39.93
36.93
33.91
31.13
28.73
26.74
25.00
23.27
21.20
18.54
15.13
11.03
6.40
1.42
-3.77
-9.11
-14.60
-20.28
-26.28
-32.83
-40.19
-48.53
-57.58
-66.42
-73.52
-77.07
-75.53
-68.25
-55.65
-39.19
-20.87
-2.68
13.77
27.46
37.91
44.94
48.67
49.48
47.99
44.97
41.24
37.49
34.07
31.09
28.42
25.90
23.43
20.96
18.44
15.77
12.77
9.25
5.12
0.44
-4.54
-9.55
-14.39
-19.09
-23.89
-29.21
-35.46
-42.91
-51.53
-60.75
-69.49
-76.19
-79.16
-77.05
-69.27
-56.30
-39.52
-20.96
-2.67
13.66
27.00
36.93
43.57
47.30
48.66
48.23
46.59
44.26
41.66
39.03
36.52
34.09
31.67
29.15
26.46
23.57
20.44
17.01
13.20
8.95
4.22
-0.90
-6.22
-11.53
-16.66
-21.65
-26.68
-32.18
-38.62
-46.37
-55.39
-65.00
-73.84
-80.12
-81.99
-78.14
-68.25
-53.09
-34.38
-14.25
5.22
22.47
36.57
47.24
54.60
58.98
60.83
60.63
58.92
56.25
53.14
49.94
46.80
43.68
40.43
36.98
33.34
29.60
25.86
22.06
18.02
13.52
8.42
2.78
-3.13
-9.01
-14.64
-20.02
-25.36
-31.06
-37.61
-45.34
-54.28
-63.87
-72.92
-79.69
-82.33
-79.48
-70.75
-56.98
-39.96
-21.96
-5.02
9.49
20.98
29.44
35.15
38.41
39.52
38.82
36.81
34.13
31.41
29.14
27.50
26.37
25.48
24.45
22.96
20.84
18.03
14.57
10.60
6.27
1.72
-2.92
-7.61
-12.43
-17.62
-23.61
-30.88
-39.77
-50.17
-61.22
-71.28
-78.22
-80.05
-75.60
-64.95
-49.46
-31.31
-12.89
3.87
17.73
28.19
35.24
39.17
40.43
39.61
37.43
34.66
31.98
29.88
28.57
27.95
27.69
27.34
26.42
24.58
21.62
17.68
13.13
8.47
4.17
0.41
-2.92
-6.31
-10.37
-15.72
-22.84
-31.83
-42.32
-53.31
-63.25
-70.22
-72.43
-68.71
-58.92
-44.07
-26.07
-7.20
10.50
25.62
37.52
46.19
51.97
55.26
56.42
55.79
53.73
50.74
47.37
44.08
41.19
38.69
36.35
33.82
30.83
27.26
23.12
18.58
13.74
8.68
3.38
-2.20
-8.08
-14.28
-20.84
-27.94
-35.87
-44.95
-55.27
-66.37
-77.03
-85.38
-89.27
-86.99
-77.87
-62.62
-43.11
-21.83
-1.19
17.07
32.05
43.56
51.81
57.19
60.04
60.76
59.75
57.56
54.71
51.67
48.76
46.13
43.72
41.32
38.69
35.60
31.88
27.47
22.43
16.85
10.89
4.66
-1.78
-8.33
-14.94
-21.62
-28.51
-35.92
-44.30
-53.84
-64.17
-74.02
-81.41
-84.07
-80.35
-69.85
-53.69
-34.13
-13.80
5.09
21.18
34.01
43.65
50.38
54.48
56.28
56.21
54.77
52.54
49.92
47.19
44.41
41.65
38.95
36.34
33.79
31.18
28.28
24.87
20.82
16.09
10.78
5.01
-1.09
-7.43
-14.03
-20.98
-28.52
-37.01
-46.67
-57.32
-68.07
-77.31
-83.02
-83.41
-77.60
-66.01
-50.24
-32.50
-14.94
0.93
14.34
25.11
33.25
38.84
41.98
42.90
42.09
40.22
38.00
35.99
34.50
33.50
32.68
31.56
29.64
26.50
22.01
16.37
10.06
3.67
-2.36
-7.87
-13.14
-18.71
-25.32
-33.66
-44.09
-56.51
-70.18
-83.60
-94.71
-101.33
-101.70
-95.13
-82.23
-64.89
-45.63
-26.89
-10.38
3.21
14.05
22.75
29.94
35.93
40.77
44.35
46.65
47.79
48.03
47.58
46.56
44.89
42.39
38.90
34.34
28.86
22.75
16.34
9.97
3.87
-1.88
-7.35
-12.73
-18.34
-24.65
-32.19
-41.43
-52.45
-64.62
-76.40
-85.57
-89.75
-87.23
-77.50
-61.48
-41.20
-19.09
2.63
22.35
39.15
52.61
62.58
69.08
72.33
72.80
71.16
68.18
64.50
60.64
56.86
53.29
49.94
46.74
43.51
40.07
36.18
31.64
26.41
20.55
14.26
7.74
1.18
-5.35
-11.89
-18.67
-26.14
-34.87
-45.33
-57.54
-70.66
-82.92
-91.86
-95.04
-90.85
-79.08
-61.05
-39.19
-16.24
5.44
24.29
39.58
51.13
59.09
63.82
65.84
65.88
64.79
63.30
61.87
60.59
59.18
57.30
54.70
51.39
47.64
43.78
40.01
36.30
32.36
27.79
22.24
15.63
8.18
0.39
-7.23
-14.33
-20.95
-27.54
-34.84
-43.52
-53.74
-64.84
-75.21
-82.60
-84.74
-80.12
-68.53
-51.16
-30.25
-8.41
12.06
29.56
43.26
53.00
59.00
61.81
62.11
60.66
58.17
55.24
52.26
49.46
46.97
44.78
42.84
40.99
39.00
36.63
33.70
30.07
25.67
20.48
14.51
7.89
0.88
-6.16
-12.85
-18.94
-24.51
-29.94
-35.97
-43.35
-52.49
-63.04
-73.66
-82.18
-86.20
-83.79
-74.29
-58.52
-38.59
-17.22
3.05
20.45
34.10
43.89
50.09
53.20
53.76
52.44
49.99
47.14
44.45
42.21
40.40
38.78
37.12
35.24
33.10
30.72
28.09
25.09
21.52
17.17
11.93
5.88
-0.67
-7.31
-13.70
-19.69
-25.48
-31.57
-38.66
-47.31
-57.69
-69.19
-80.32
-88.96
-92.85
-90.29
-80.75
-65.07
-45.25
-23.82
-3.11
15.24
30.37
42.06
50.31
55.30
57.30
56.87
54.84
52.19
49.76
47.91
46.51
45.02
42.91
39.88
36.13
32.10
28.26
24.80
21.51
17.89
13.38
7.73
1.07
-6.11
-13.20
-19.73
-25.55
-30.85
-36.04
-41.69
-48.39
-56.54
-66.26
-76.97
-87.40
-95.54
-99.16
-96.44
-86.64
-70.40
-49.58
-26.75
-4.38
15.67
32.38
45.42
54.86
60.91
63.87
64.21
62.63
60.05
57.41
55.35
54.00
52.97
51.61
49.35
46.05
42.04
37.93
34.28
31.20
28.36
25.07
20.66
14.82
7.72
-0.04
-7.71
-14.72
-20.80
-26.16
-31.25
-36.74
-43.30
-51.47
-61.43
-72.74
-84.15
-93.71
-99.13
-98.46
-90.80
-76.67
-57.87
-36.93
-16.27
2.34
18.09
30.87
40.84
48.21
53.06
55.59
56.22
55.69
54.88
54.51
54.85
55.65
56.28
56.02
54.47
51.63
47.99
44.19
40.78
37.86
35.06
31.73
27.20
21.18
13.88
5.89
-2.06
-9.41
-15.90
-21.63
-26.95
-32.37
-38.49
-45.97
-55.20
-66.05
-77.52
-87.77
-94.43
-95.37
-89.46
-76.93
-59.39
-39.22
-18.79
0.01
16.11
29.03
38.64
44.94
48.06
48.37
46.58
43.64
40.55
38.01
36.27
35.06
33.91
32.36
30.22
27.57
24.64
21.63
18.53
15.12
11.09
6.20
0.46
-5.83
-12.12
-17.95
-23.07
-27.61
-32.13
-37.36
-43.96
-52.20
-61.67
-71.18
-78.96
-83.02
-81.75
-74.33
-61.12
-43.51
-23.59
-3.58
14.71
30.07
42.06
50.77
56.64
60.29
62.37
63.46
64.00
64.23
64.21
63.87
63.08
61.74
59.80
57.28
54.34
51.12
47.80
44.46
41.05
37.42
33.32
28.54
22.98
16.67
9.74
2.29
-5.69
-14.40
-24.04
-34.58
-45.49
-55.66
-63.55
-67.56
-66.61
-60.51
-50.04
-36.70
-22.32
-8.53
3.55
13.34
20.74
25.89
29.00
30.28
29.94
28.22
25.43
22.02
18.50
15.38
12.96
11.29
10.09
8.89
7.17
4.61
1.05
-3.37
-8.45
-13.88
-19.43
-24.91
-30.22
-35.36
-40.50
-46.00
-52.29
-59.67
-67.98
-76.44
-83.62
-87.72
-87.16
-81.07
-69.60
-53.92
-35.79
-17.12
0.53
16.09
29.00
39.00
46.00
50.09
51.56
50.90
48.72
45.66
42.20
38.60
34.99
31.40
27.88
24.40
20.92
17.26
13.25
8.74
3.77
-1.48
-6.71
-11.69
-16.34
-20.82
-25.47
-30.75
-37.07
-44.66
-53.39
-62.58
-70.98
-76.91
-78.59
-74.77
-65.08
-50.34
-32.31
-13.18
4.99
20.78
33.46
42.81
48.85
51.66
51.46
48.68
44.10
38.71
33.43
28.86
25.13
21.95
18.81
15.26
11.06
6.20
0.87
-4.64
-10.02
-15.05
-19.68
-24.04
-28.50
-33.52
-39.56
-46.91
-55.58
-65.12
-74.59
-82.55
-87.29
-87.25
-81.51
-70.20
-54.50
-36.31
-17.74
-0.51
14.32
26.33
35.54
42.01
45.89
47.33
46.69
44.54
41.65
38.80
36.53
34.98
33.91
32.75
30.86
27.80
23.52
18.34
12.85
7.58
2.78
-1.71
-6.35
-11.74
-18.39
-26.57
-36.19
-46.72
-57.11
-65.79
-70.88
-70.70
-64.26
-51.79
-34.68
-15.21
4.26
21.85
36.54
48.06
56.60
62.39
65.60
66.42
65.16
62.37
58.77
55.00
51.46
48.20
45.01
41.50
37.36
32.42
26.73
20.52
14.04
7.57
1.20
-5.10
-11.46
-18.09
-25.20
-33.02
-41.77
-51.58
-62.28
-73.17
-82.90
-89.62
-91.45
-87.08
-76.27
-60.05
-40.44
-19.85
-0.43
16.40
30.02
40.44
47.86
52.55
54.68
54.52
52.52
49.31
45.57
41.86
38.46
35.38
32.54
29.82
27.14
24.38
21.34
17.71
13.19
7.64
1.17
-5.86
-13.02
-20.03
-26.89
-33.98
-41.96
-51.41
-62.55
-74.88
-86.99
-96.77
-101.93
-100.64
-92.19
-77.22
-57.56
-35.63
-13.80
6.16
23.22
37.01
47.56
55.04
59.75
62.04
62.41
61.45
59.73
57.76
55.85
54.12
52.54
50.95
49.17
47.03
44.39
41.19
37.42
33.15
28.47
23.46
18.17
12.61
6.73
0.45
-6.42
-14.10
-22.86
-32.73
-43.36
-53.75
-62.30
-67.13
-66.61
-59.97
-47.61
-31.12
-12.75
5.21
21.04
33.85
43.43
50.01
53.88
55.33
54.62
52.21
48.71
44.86
41.30
38.35
35.93
33.68
31.14
27.94
23.92
19.14
13.77
8.08
2.23
-3.68
-9.63
-15.72
-22.08
-28.89
-36.39
-44.79
-54.21
-64.44
-74.72
-83.71
-89.60
-90.65
-85.69
-74.60
-58.45
-39.21
-19.20
-0.46
15.68
28.60
38.24
44.83
48.62
49.91
49.02
46.43
42.75
38.66
34.71
31.28
28.42
25.93
23.42
20.45
16.67
11.95
6.47
0.58
-5.24
-10.71
-15.78
-20.73
-26.00
-32.12
-39.51
-48.38
-58.55
-69.34
-79.42
-86.95
-89.97
-86.92
-77.24
-61.63
-41.93
-20.55
0.16
18.50
33.58
45.16
53.39
58.59
61.14
61.50
60.28
58.08
55.48
52.87
50.47
48.31
46.34
44.47
42.51
40.25
37.45
33.91
29.53
24.38
18.66
12.64
6.55
0.52
-5.47
-11.63
-18.32
-25.98
-34.85
-44.73
-54.72
-63.12
-67.87
-67.02
-59.47
-45.43
-26.42
-4.86
16.63
35.94
51.84
63.99
72.60
78.10
80.89
81.34
79.82
76.83
73.00
68.95
65.08
61.51
58.08
54.48
50.46
45.99
41.21
36.33
31.45
26.50
21.24
15.40
8.90
1.84
-5.48
-12.83
-20.19
-27.92
-36.50
-46.41
-57.59
-69.29
-80.04
-87.96
-91.31
-89.03
-81.13
-68.67
-53.37
-37.18
-21.74
-8.20
2.85
11.25
17.12
20.77
22.63
23.26
23.20
22.87
22.45
21.90
21.05
19.80
18.22
16.51
14.92
13.52
12.16
10.47
8.10
4.81
0.59
-4.35
-9.72
-15.25
-20.78
-26.26
-31.73
-37.37
-43.45
-50.25
-57.81
-65.65
-72.61
-77.09
-77.49
-72.80
-63.04
-49.28
-33.32
-17.08
-2.12
10.63
20.81
28.45
33.71
36.84
38.14
38.00
36.88
35.21
33.37
31.53
29.74
27.89
25.83
23.42
20.64
17.51
14.08
10.40
6.46
2.20
-2.40
-7.34
-12.55
-17.90
-23.31
-28.90
-34.95
-41.82
-49.65
-58.02
-65.85
-71.46
-73.09
-69.43
-60.21
-46.25
-29.25
-11.29
5.73
20.46
32.20
40.81
46.44
49.45
50.30
49.45
47.36
44.50
41.28
38.05
35.07
32.44
30.12
27.92
25.59
22.84
19.47
15.43
10.81
5.82
0.68
-4.42
-9.41
-14.28
-19.17
-24.25
-29.87
-36.32
-43.89
-52.48
-61.47
-69.58
-75.05
-76.08
-71.40
-60.81
-45.34
-26.95
-7.96
9.60
24.38
35.87
44.10
49.38
52.07
52.55
51.26
48.73
45.59
42.42
39.57
37.10
34.90
32.69
30.26
27.46
24.21
20.46
16.20
11.44
6.28
0.88
-4.58
-9.94
-15.15
-20.28
-25.59
-31.41
-38.09
-45.75
-54.10
-62.25
-68.73
-71.89
-70.26
-63.19
-51.10
-35.42
-18.19
-1.42
13.37
25.45
34.75
41.57
46.24
49.01
49.99
49.40
47.60
45.15
42.61
40.33
38.40
36.62
34.68
32.32
29.42
26.00
22.16
17.99
13.56
8.91
4.06
-0.97
-6.18
-11.59
-17.34
-23.61
-30.67
-38.77
-47.98
-58.02
-68.01
-76.51
-81.77
-82.22
-76.98
-66.26
-51.38
-34.31
-17.15
-1.57
11.44
21.56
28.84
33.50
35.82
36.14
34.91
32.74
30.20
27.81
25.90
24.60
23.83
23.41
23.00
22.23
20.72
18.26
14.85
10.69
6.14
1.56
-2.79
-6.86
-10.76
-14.78
-19.28
-24.66
-31.10
-38.41
-45.80
-51.86
-54.84
-53.11
-45.79
-33.12
-16.39
2.39
21.14
38.23
52.73
64.27
72.82
78.52
81.60
82.51
81.98
80.90
80.13
80.11
80.75
81.37
81.02
78.83
74.32
67.58
59.12
49.70
40.01
30.51
21.39
12.58
3.89
-4.96
-14.34
-24.63
-36.12
-48.78
-62.00
-74.49
-84.47
-90.13
-90.29
-84.79
-74.63
-61.58
-47.59
-34.26
-22.52
-12.74
-5.03
0.57
3.98
5.18
4.42
2.33
-0.22
-2.36
-3.53
-3.61
-2.95
-2.15
-1.75
-2.05
-3.04
-4.46
-6.07
-7.74
-9.53
-11.61
-14.16
-17.25
-20.92
-25.30
-30.61
-37.10
-44.79
-53.22
-61.29
-67.43
-69.92
-67.49
-59.73
-47.27
-31.58
-14.56
2.00
16.79
29.08
38.63
45.47
49.70
51.53
51.27
49.38
46.49
43.21
40.03
37.21
34.77
32.57
30.40
28.06
25.37
22.26
18.70
14.76
10.53
6.06
1.34
-3.71
-9.17
-15.11
-21.57
-28.65
-36.48
-45.12
-54.31
-63.23
-70.49
-74.42
-73.54
-67.22
-55.86
-40.85
-24.09
-7.41
7.82
20.83
31.29
39.10
44.27
46.93
47.41
46.27
44.22
41.93
39.82
38.01
36.34
34.56
32.53
30.28
27.92
25.52
22.99
20.01
16.24
11.52
5.93
-0.10
-6.10
-11.65
-16.66
-21.37
-26.28
-32.01
-39.05
-47.49
-56.78
-65.68
-72.35
-74.89
-71.95
-63.17
-49.45
-32.59
-14.73
2.26
17.14
29.37
38.84
45.64
49.92
51.89
51.93
50.59
48.52
46.26
44.17
42.36
40.70
38.95
36.91
34.45
31.56
28.34
24.89
21.29
17.50
13.35
8.70
3.42
-2.39
-8.45
-14.39
-19.89
-24.89
-29.64
-34.70
-40.66
-47.85
-56.00
-64.14
-70.66
-73.82
-72.24
-65.38
-53.74
-38.68
-22.01
-5.48
9.54
22.19
32.02
38.87
42.83
44.22
43.63
41.81
39.52
37.29
35.35
33.62
31.88
30.00
27.95
25.84
23.72
21.53
19.10
16.22
12.80
8.88
4.60
0.09
-4.54
-9.24
-13.98
-18.80
-23.80
-29.26
-35.51
-42.79
-50.89
-58.92
-65.35
-68.40
-66.59
-59.35
-47.32
-32.08
-15.68
-0.03
13.57
24.51
32.70
38.25
41.38
42.37
41.59
39.65
37.19
34.79
32.75
31.07
29.51
27.79
25.74
23.33
20.64
17.69
14.40
10.63
6.34
1.66
-3.13
-7.69
-11.84
-15.68
-19.57
-23.95
-29.22
-35.58
-42.96
-50.95
-58.81
-65.40
-69.35
-69.34
-64.51
-54.79
-41.07
-24.93
-8.26
7.29
20.54
30.93
38.38
43.14
45.58
46.18
45.40
43.74
41.61
39.33
37.11
34.99
32.94
30.90
28.82
26.70
24.54
22.24
19.63
16.44
12.51
7.81
2.49
-3.22
-9.08
-14.90
-20.61
-26.21
-31.88
-37.85
-44.48
-51.99
-60.13
-68.05
-74.23
-76.91
-74.65
-66.96
-54.44
-38.63
-21.44
-4.58
10.77
24.00
34.79
42.97
48.45
51.30
51.87
50.83
48.98
46.97
45.15
43.50
41.77
39.75
37.36
34.72
31.99
29.28
26.50
23.39
19.67
15.14
9.82
3.96
-2.08
-7.90
-13.24
-18.05
-22.55
-27.24
-32.74
-39.58
-47.91
-57.24
-66.34
-73.51
-76.91
-75.25
-68.10
-56.08
-40.63
-23.52
-6.44
9.38
23.15
34.46
43.07
48.93
52.17
53.15
52.51
50.90
48.93
46.95
45.02
43.03
40.85
38.45
35.94
33.54
31.34
29.25
26.94
24.01
20.10
15.13
9.27
2.93
-3.43
-9.50
-15.12
-20.35
-25.44
-30.83
-37.05
-44.51
-53.20
-62.38
-70.54
-75.80
-76.38
-71.39
-61.02
-46.55
-29.86
-12.84
3.03
16.83
28.12
36.77
42.85
46.48
47.98
47.79
46.45
44.51
42.42
40.41
38.50
36.52
34.31
31.80
29.05
26.20
23.29
20.18
16.60
12.26
7.08
1.31
-4.59
-10.10
-14.90
-19.04
-22.92
-27.10
-32.15
-38.40
-45.77
-53.67
-60.99
-66.30
-68.06
-65.16
-57.24
-44.90
-29.58
-13.18
2.49
16.10
26.92
34.78
39.83
42.43
42.97
41.93
39.81
37.15
34.38
31.79
29.55
27.62
25.84
23.99
21.84
19.22
16.06
12.48
8.66
4.78
0.92
-2.96
-7.02
-11.37
-16.05
-21.03
-26.36
-32.24
-38.95
-46.58
-54.71
-62.15
-67.17
-67.95
-63.37
-53.42
-39.32
-23.08
-6.86
7.69
19.69
28.99
35.80
40.41
43.05
43.90
43.26
41.55
39.26
36.87
34.66
32.69
30.87
29.06
27.19
25.28
23.34
21.33
19.05
16.20
12.56
8.05
2.85
-2.75
-8.39
-13.83
-19.02
-24.15
-29.61
-35.83
-43.15
-51.54
-60.41
-68.54
-74.30
-76.02
-72.59
-63.81
-50.49
-34.24
-16.98
-0.46
14.10
26.05
35.18
41.53
45.30
46.80
46.49
44.96
42.86
40.73
38.88
37.33
35.91
34.42
32.77
31.01
29.33
27.82
26.39
24.70
22.29
18.74
13.90
7.99
1.56
-4.78
-10.59
-15.81
-20.83
-26.29
-32.85
-40.93
-50.42
-60.62
-70.19
-77.44
-80.69
-78.72
-71.18
-58.66
-42.59
-24.79
-7.02
9.36
23.50
34.96
43.61
49.51
52.91
54.23
54.04
52.92
51.37
49.69
47.99
46.23
44.27
42.01
39.46
36.81
34.41
32.62
31.56
30.89
29.80
27.28
22.59
15.73
7.45
-0.95
-8.30
-14.06
-18.61
-22.96
-28.37
-35.73
-45.25
-56.41
-68.09
-78.73
-86.60
-90.13
-88.17
-80.41
-67.47
-50.75
-32.10
-13.33
4.08
19.17
31.41
40.62
46.86
50.39
51.69
51.37
50.13
48.55
47.03
45.69
44.47
43.15
41.49
39.36
36.76
33.88
30.92
28.05
25.28
