1543513179.00
64.000000
-0.00
-0.00
-0.00
-0.00
-0.00
-0.00
-0.00
-0.00
-0.00
-0.00
0.00
0.01
0.01
-0.00
-0.03
-0.05
-0.05
0.00
0.13
0.36
0.66
1.01
1.37
1.72
2.06
2.40
2.79
3.24
3.80
4.42
5.06
5.66
6.20
6.68
7.15
7.68
8.31
9.14
10.09
11.04
11.89
12.58
13.17
13.82
14.74
16.09
18.09
20.55
23.20
25.75
28.03
30.11
32.30
35.04
38.63
43.46
49.16
55.22
61.05
66.30
71.04
75.74
81.10
87.64
95.89
105.33
115.18
124.56
132.89
140.22
147.15
155.02
162.52
171.90
183.76
198.19
214.03
228.36
236.86
234.88
219.04
188.44
145.47
93.97
38.27
-18.36
-74.34
-129.41
-183.70
-236.93
-288.28
-336.29
-380.03
-418.81
-451.95
-478.54
-497.20
-506.18
-503.77
-488.93
-461.56
-423.02
-375.66
-322.30
-265.83
-208.79
-153.11
-100.16
-50.91
-5.99
33.98
68.01
95.87
117.86
134.69
147.32
156.79
163.99
169.60
173.90
176.94
178.72
179.14
178.16
175.78
172.08
167.24
161.45
154.87
147.63
139.92
131.89
123.69
115.44
107.35
99.67
92.68
86.46
80.91
75.77
70.50
65.03
59.13
52.69
45.82
38.78
31.60
24.23
16.39
7.61
-2.55
-14.38
-27.72
-42.00
-56.44
-70.76
-85.03
-99.80
-115.88
-133.94
-154.19
-176.19
-199.08
-221.93
-244.30
-265.65
-285.02
-300.98
-311.71
-315.65
-311.99
-301.00
-281.49
-253.48
-217.31
-173.43
-122.79
-66.79
-7.63
51.95
108.97
160.48
203.29
234.43
251.35
251.84
235.01
200.97
151.51
90.62
24.60
-39.12
-93.38
-131.24
-150.28
-152.91
-145.37
-134.45
-124.77
-117.57
-111.65
-104.69
-94.95
-82.62
-66.91
-46.16
-17.60
21.90
74.68
141.10
218.62
300.02
374.22
428.99
454.08
445.43
406.67
347.97
282.08
219.43
164.93
118.13
77.44
41.25
11.08
-9.36
-17.12
-12.76
-0.81
11.42
17.56
14.91
4.63
-9.70
-25.54
-42.94
-63.28
-87.20
-112.22
-132.69
-142.32
-137.92
-121.23
-98.20
-77.51
-66.02
-65.78
-74.02
-85.49
-95.56
-101.94
-104.37
-103.50
-99.40
-91.17
-76.81
-54.65
-24.06
14.21
57.65
102.29
142.47
172.06
186.42
184.17
167.70
142.17
113.52
85.05
59.23
36.75
17.50
1.84
-9.09
-14.23
-13.67
-9.15
-3.44
1.17
3.50
3.88
3.63
4.26
6.56
10.24
14.16
16.93
17.66
16.01
12.37
7.71
3.03
-0.99
-4.27
-7.21
-10.37
-14.04
-18.24
-22.59
-26.45
-29.14
-30.19
-29.45
-27.02
-23.22
-18.37
-12.80
-6.77
-0.50
5.79
11.78
17.12
21.40
24.21
25.22
24.17
21.01
15.79
8.82
0.37
-9.14
-19.12
-28.91
-37.81
-45.26
-50.69
-53.73
-54.18
-52.02
-47.35
-40.40
-31.57
-21.15
-10.22
0.17
9.12
16.00
20.54
22.86
23.39
22.68
21.22
19.22
16.81
13.97
10.72
7.17
3.50
-0.08
-3.54
-6.99
-10.66
-14.64
-18.92
-23.44
-28.38
-34.32
-42.04
-51.90
-63.05
-73.13
-78.55
-76.03
-64.03
-43.79
-19.05
5.43
25.99
41.40
52.57
60.92
66.53
67.71
62.18
49.29
31.56
14.04
1.70
-3.45
-3.35
-2.29
-3.80
-8.29
-12.92
-14.08
-10.41
-4.23
-0.09
-1.78
-9.58
-20.16
-28.87
-32.79
-32.03
-29.18
-26.87
-25.58
-23.79
-19.09
-10.16
1.76
13.18
19.99
19.46
11.43
-1.74
-16.24
-27.92
-33.10
-29.31
-15.99
4.65
27.46
45.54
52.92
47.61
33.17
17.25
7.65
8.00
15.66
23.41
24.05
15.11
0.49
-11.99
-15.69
-9.55
1.38
9.71
10.95
6.64
3.27
7.45
20.90
38.55
51.20
51.17
37.00
14.43
-7.08
-19.67
-21.08
-15.11
-8.56
-7.05
-11.99
-20.28
-26.53
-26.27
-18.01
-3.80
12.37
26.87
38.28
47.66
57.04
67.22
76.28
80.11
74.61
58.78
36.19
13.94
-0.67
-4.01
2.07
11.48
17.55
16.75
10.34
2.99
-0.36
2.49
10.01
18.11
22.04
19.26
10.31
-1.62
-13.11
-22.53
-30.76
-40.06
-52.24
-67.20
-82.74
-95.64
-102.98
-103.79
-99.49
-93.27
-88.33
-86.49
-87.16
-87.61
-84.27
-73.84
-55.01
-27.42
7.90
48.51
90.44
128.41
156.64
168.65
162.26
140.45
110.37
80.33
56.62
41.52
34.03
31.30
30.71
30.94
31.24
30.59
27.12
18.57
2.37
-22.14
-53.00
-85.64
-113.24
-129.14
-129.13
-113.41
-85.62
-54.39
-28.30
-12.53
-7.53
-9.90
-15.02
-19.37
-21.57
-21.70
-20.22
-16.50
-8.53
5.65
26.65
52.38
77.82
95.97
100.75
89.65
65.84
37.00
11.73
-4.71
-12.80
-17.61
-24.70
-35.73
-47.10
-52.22
-46.18
-29.41
-7.48
12.06
23.83
26.70
23.12
16.49
9.27
2.59
-2.76
-5.40
-3.59
3.08
12.20
18.88
18.30
9.05
-5.43
-18.56
-24.50
-21.72
-13.89
-7.37
-7.14
-13.79
-23.48
-30.95
-32.94
-29.98
-25.17
-21.27
-18.55
-15.14
-9.52
-2.90
0.73
-2.24
-11.33
-20.70
-21.82
-9.04
15.42
40.75
52.03
37.92
-3.05
-61.08
-119.39
-161.80
-179.09
-171.34
-145.62
-111.64
-77.72
-49.16
-28.73
-17.58
-15.75
-21.91
-33.03
-44.87
-53.17
-54.85
-48.44
-33.83
-11.70
16.31
47.00
75.42
95.61
102.43
93.83
72.17
43.80
16.92
-1.21
-6.64
0.32
15.64
33.63
49.43
60.90
68.84
75.58
82.37
87.88
88.96
82.79
69.54
53.15
39.40
32.44
32.21
34.53
34.32
29.70
23.53
21.82
29.59
47.20
69.46
88.29
97.06
94.03
83.56
73.05
68.94
73.53
84.37
96.15
103.82
105.10
98.08
84.07
65.93
46.58
27.81
10.02
-7.11
-23.41
-37.75
-48.55
-54.32
-55.06
-52.44
-49.07
-47.31
-48.18
-51.12
-54.43
-56.32
-55.43
-51.70
-46.34
-41.20
-37.87
-36.91
-37.73
-38.88
-38.86
-36.61
-32.19
-26.73
-21.91
-19.16
-18.92
-20.45
-22.14
-22.32
-19.93
-15.15
-9.39
-4.65
-2.55
-3.53
-6.54
-9.50
-10.28
-7.85
-2.66
3.42
8.25
10.25
8.93
4.61
-2.26
-11.13
-20.58
-27.46
-27.47
-17.17
3.54
29.56
52.00
61.87
54.67
32.71
4.17
-20.99
-35.72
-38.01
-31.29
-20.85
-10.68
-2.08
5.38
11.74
15.25
12.77
2.05
-16.61
-38.80
-57.39
-65.02
-57.82
-37.35
-9.99
14.78
29.60
31.89
24.43
13.08
3.42
-1.75
-2.93
-2.49
-2.74
-4.29
-6.35
-7.47
-6.80
-4.51
-1.69
0.27
0.49
-1.10
-3.69
-6.09
-7.26
-6.78
-4.96
-2.71
-1.07
-0.86
-2.27
-4.85
-7.68
-9.79
-10.50
-9.70
-7.89
-6.03
-5.13
-5.93
-8.54
-12.29
-16.01
-18.49
-18.97
-17.57
-15.24
-13.53
-13.62
-16.16
-20.60
-25.60
-29.52
-30.85
-28.39
-21.27
-9.25
6.65
23.47
36.72
41.63
35.27
18.50
-3.82
-24.57
-37.25
-38.83
-30.85
-17.80
-4.49
6.25
14.06
20.01
24.94
28.56
29.88
28.17
23.86
18.54
14.11
12.09
12.65
14.72
16.63
16.84
14.77
11.01
6.94
4.05
3.22
4.26
6.12
7.40
7.03
4.76
1.33
-1.91
-3.64
-3.05
-0.48
2.91
5.59
6.18
4.00
-0.61
-6.29
-10.93
-12.32
-8.81
-0.13
12.19
25.04
34.63
38.01
34.24
24.82
13.04
2.47
-4.50
-7.51
-7.87
-7.54
-7.93
-9.28
-10.77
-11.28
-10.17
-7.68
-4.95
-3.13
-2.96
-4.33
-6.51
-8.64
-10.43
-12.00
-13.13
-12.72
-8.94
-0.52
11.97
25.49
35.51
38.24
32.64
21.10
8.13
-2.00
-7.31
-8.52
-7.94
-7.58
-7.94
-8.23
-7.36
-5.09
-2.27
-0.28
-0.08
-1.65
-4.24
-6.41
-7.16
-6.17
-3.94
-1.47
0.22
0.53
-0.49
-2.20
-3.70
-4.33
-3.85
-2.57
-1.08
-0.01
0.29
-0.15
-1.00
-1.77
-2.15
-2.02
-1.55
-0.99
-0.59
-0.48
-0.62
-0.86
-1.08
-1.16
-1.11
-0.98
-0.86
-0.75
-0.64
-0.53
-0.39
-0.29
-0.28
-0.44
-0.75
-1.13
-1.40
-1.44
-1.20
-0.78
-0.42
-0.39
-0.84
-1.73
-2.77
-3.58
-3.77
-3.27
-2.31
-1.43
-1.18
-1.95
-3.60
-5.61
-7.18
-7.63
-6.75
-4.98
-3.24
-2.54
-3.44
-5.83
-8.82
-11.19
-12.05
-11.06
-8.71
-6.01
-4.05
-3.56
-5.00
-8.70
-14.44
-20.96
-25.58
-24.75
-15.41
3.15
28.19
54.20
74.79
85.48
85.29
76.68
63.71
49.99
37.21
25.21
13.71
2.64
-7.02
-14.01
-17.65
-18.40
-17.66
-16.98
-17.55
-19.45
-22.02
-24.14
-24.89
-24.03
-22.02
-19.82
-18.41
-18.37
-19.56
-21.44
-23.21
-24.22
-24.28
-23.68
-22.95
-22.66
-23.15
-24.34
-25.94
-27.49
-28.66
-29.25
-29.26
-28.87
-28.20
-27.27
-25.96
-24.08
-21.41
-17.83
-13.33
-8.09
-2.31
3.69
9.63
15.18
20.05
23.97
26.70
28.05
27.94
26.41
23.64
19.93
15.68
11.34
7.33
4.00
1.57
0.12
-0.28
0.26
1.56
3.31
5.18
6.78
7.73
7.66
6.26
3.64
0.02
-4.26
-8.72
-12.88
-16.37
-18.98
-20.84
-22.33
-23.42
-24.25
-24.93
-25.44
-25.73
-25.89
-26.16
-27.05
-29.18
-32.21
-35.75
-39.10
-41.36
-41.72
-39.83
-36.05
-31.40
-27.42
-24.42
-22.52
-21.15
-19.10
-14.89
-7.17
5.16
23.58
42.51
60.36
76.71
92.11
107.82
125.56
147.21
174.42
207.83
245.94
285.46
319.88
341.31
343.16
322.77
282.63
229.48
171.57
115.60
65.65
22.05
-16.91
-52.87
-86.33
-116.63
-142.74
-163.85
-179.36
-187.68
-186.83
-175.00
-151.73
-119.05
-81.69
-45.77
-16.95
1.48
9.57
9.80
5.73
0.65
-3.09
-4.12
-1.81
3.85
12.13
21.65
30.51
36.98
40.08
39.94
37.42
33.54
28.96
23.68
17.24
9.21
-0.39
-10.96
-21.49
-31.02
-38.87
-44.69
-48.59
-51.02
-52.45
-53.95
-57.24
-64.11
-75.91
-93.07
-114.95
-139.97
-165.55
-187.82
-202.55
-206.18
-196.88
-175.81
-147.45
-118.52
-96.24
-85.30
-85.68
-94.04
-105.68
-115.96
-121.52
-120.35
-111.10
-93.56
-67.50
-31.12
15.09
67.61
122.02
174.02
220.17
258.21
284.44
295.84
294.79
283.21
261.80
233.44
202.40
173.08
148.73
127.31
105.62
87.61
74.58
62.93
49.09
30.15
5.36
-22.69
-53.12
-84.15
-106.87
-120.81
-135.85
-162.06
-204.97
-262.84
-299.65
-287.82
-269.61
-264.32
-262.87
-265.81
-270.91
-272.08
-261.61
-233.90
-193.01
-148.06
-101.64
-59.75
-31.27
-19.33
-21.41
-30.73
-39.06
-42.98
-41.98
-31.32
-11.14
13.34
38.37
62.09
83.87
103.07
116.21
119.98
116.98
110.03
100.44
90.04
79.91
70.58
63.08
59.24
62.55
78.53
108.62
147.80
187.08
216.71
230.15
226.22
207.87
179.66
145.57
106.60
61.50
9.47
-48.16
-107.73
-164.32
-213.51
-252.48
-280.07
-295.86
-299.50
-290.39
-268.03
-232.65
-185.43
-128.23
-62.78
9.60
87.30
167.09
243.01
306.67
349.28
364.73
352.41
317.94
271.48
224.15
184.44
156.13
138.60
128.88
124.07
122.52
123.62
126.78
130.58
132.97
132.13
127.47
119.87
111.43
104.27
99.57
97.14
95.63
93.32
88.79
81.64
72.55
63.03
54.88
49.53
47.61
48.62
51.24
53.84
55.03
54.09
51.02
46.23
40.20
33.27
25.45
16.61
6.65
-4.08
-14.78
-24.42
-32.47
-39.52
-47.57
-59.79
-79.60
-109.68
-150.64
-200.25
-253.10
-301.46
-337.00
-353.30
-347.88
-323.04
-284.91
-241.19
-198.52
-160.88
-129.33
-103.18
-81.40
-63.43
-48.94
-37.30
-27.10
-16.42
-3.71
11.47
28.17
44.49
58.32
68.15
73.48
74.70
72.75
68.67
63.36
57.43
51.24
44.97
38.68
32.30
25.79
19.13
12.43
6.04
0.39
-4.14
-7.36
-9.36
-10.39
-10.69
-10.23
-8.74
-5.75
-0.82
6.28
15.39
25.93
37.06
47.91
57.95
67.36
77.30
89.81
107.32
131.54
162.27
196.52
228.70
252.06
260.84
252.33
227.82
192.12
151.79
112.98
79.81
53.86
34.74
21.17
11.97
6.35
3.82
3.69
4.87
6.01
5.90
3.99
0.61
-3.06
-5.49
-5.47
-2.61
2.38
8.02
12.61
14.83
14.10
10.64
5.12
-1.63
-8.86
-16.04
-22.79
-28.93
-34.38
-39.09
-42.90
-45.43
-46.18
-44.78
-41.39
-36.97
-33.28
-32.28
-35.56
-43.75
-56.36
-72.09
-89.29
-106.39
-122.08
-135.34
-145.44
-152.06
-155.46
-156.54
-156.76
-157.68
-160.55
-165.83
-173.03
-180.82
-187.47
-191.33
-191.34
-187.27
-179.70
-169.72
-158.49
-146.84
-135.22
-123.77
-112.55
-101.70
-91.27
-80.93
-69.94
-57.44
-43.15
-28.13
-14.95
-7.30
-8.43
-19.72
-39.25
-61.68
-79.51
-85.05
-72.52
-39.43
12.81
79.25
152.15
222.19
280.10
318.57
334.04
327.64
304.87
273.80
242.40
216.16
196.88
183.28
172.57
162.35
151.62
140.69
130.52
121.93
115.15
109.92
105.60
101.25
95.75
87.53
74.97
57.03
34.03
8.05
-17.55
-39.24
-54.77
-64.00
-68.72
-71.59
-74.86
-79.61
-85.74
-92.58
-99.49
-106.09
-112.18
-117.52
-121.82
-124.93
-127.07
-128.63
-130.02
-131.38
-132.56
-133.33
-133.48
-132.80
-130.93
-127.24
-121.07
-112.21
-101.28
-89.72
-79.24
-71.11
-65.59
-61.98
-59.06
-55.73
-51.52
-46.51
-41.17
-35.93
-31.01
-26.34
-21.74
-17.01
-12.03
-6.83
-1.47
3.86
8.96
13.52
17.17
19.51
20.23
19.24
16.79
13.50
10.30
8.22
8.08
10.29
14.67
20.56
27.03
33.18
38.29
41.93
43.86
43.99
42.25
38.70
33.58
27.29
20.34
13.22
6.24
-0.44
-6.75
-12.59
-17.75
-21.93
-24.94
-26.75
-27.58
-27.88
-28.14
-28.84
-30.29
-32.59
-35.56
-38.75
-41.39
-42.55
-41.28
-36.99
-29.66
-19.90
-8.87
2.08
11.74
19.30
24.40
27.07
27.57
26.27
23.67
20.32
16.81
13.71
11.44
10.18
9.85
10.18
10.73
11.07
10.86
9.95
8.35
6.23
3.75
0.99
-2.17
-5.88
-10.22
-14.89
-19.19
-22.10
-22.59
-20.04
-14.48
-6.59
2.50
11.52
19.43
25.53
29.49
31.24
30.90
28.70
25.09
20.66
16.13
12.18
9.32
7.72
7.12
7.06
6.99
6.54
5.61
4.36
3.04
1.75
0.37
-1.40
-3.88
-7.27
-11.53
-16.36
-21.27
-25.54
-28.39
-29.04
-26.93
-21.92
-14.45
-5.52
3.63
11.79
18.18
22.54
24.99
25.84
25.30
23.53
20.63
16.91
12.86
9.11
6.18
4.33
3.48
3.32
3.45
3.58
3.55
3.34
2.94
2.35
1.52
0.41
-1.11
-3.14
-5.89
-9.44
-13.71
-18.34
-22.67
-25.87
-27.09
-25.75
-21.57
-14.77
-5.99
3.83
13.52
22.01
28.45
32.40
33.86
33.14
30.72
27.12
22.86
18.48
14.58
11.69
10.11
9.77
10.27
11.00
11.36
11.02
9.90
8.16
6.04
3.77
1.48
-0.75
-2.95
-5.25
-7.83
-10.91
-14.59
-18.72
-22.82
-26.15
-27.82
-27.05
-23.45
-17.10
-8.67
0.79
10.04
17.97
23.77
27.12
28.04
26.90
24.19
20.44
16.23
12.08
8.45
5.69
3.93
3.10
2.94
3.10
3.22
3.07
2.57
1.80
0.91
0.06
-0.70
-1.48
-2.50
-4.11
-6.57
-10.00
-14.19
-18.56
-22.27
-24.36
-23.98
-20.71
-14.64
-6.40
2.97
12.29
20.51
26.87
31.00
32.88
32.73
30.90
27.90
24.17
20.20
16.39
13.08
10.54
8.92
8.22
8.25
8.65
9.04
9.06
8.50
7.31
5.52
3.20
0.37
-2.97
-6.80
-11.08
-15.66
-20.30
-24.64
-28.09
-29.89
-29.24
-25.57
-18.84
-9.68
0.68
10.76
19.21
25.13
28.22
28.65
26.84
23.27
18.36
12.52
6.22
0.01
-5.50
-9.74
-12.37
-13.37
-13.04
-11.94
-10.66
-9.67
-9.24
-9.38
-10.01
-10.98
-12.20
-13.59
-15.13
-16.81
-18.76
-21.13
-24.13
-27.77
-31.70
-35.10
-36.81
-35.68
-30.98
-22.69
-11.55
1.14
13.88
25.35
34.62
41.22
45.13
46.57
45.98
43.88
40.78
37.17
33.40
29.70
26.23
23.06
20.26
17.89
15.93
14.31
12.91
11.60
10.24
8.74
7.03
5.04
2.71
0.01
-3.00
-6.13
-9.13
-11.79
-14.00
-15.88
-17.70
-19.81
-22.43
-25.53
-28.63
-30.99
-31.63
-29.74
-24.90
-17.27
-7.56
3.12
13.51
22.49
29.20
33.13
34.14
32.46
28.65
23.53
17.98
12.80
8.53
5.42
3.44
2.42
2.17
2.53
3.34
4.43
5.56
6.43
6.85
6.67
5.85
4.45
2.56
0.29
-2.26
-4.93
-7.55
-9.93
-11.95
-13.57
-14.89
-16.13
-17.51
-19.23
-21.28
-23.41
-25.01
-25.27
-23.35
-18.75
-11.45
-2.12
8.12
17.91
26.06
31.76
34.63
34.75
32.49
28.46
23.35
17.93
12.89
8.71
5.65
3.64
2.46
1.77
1.31
0.93
0.62
0.46
0.49
0.60
0.58
0.11
-1.02
-2.86
-5.25
-7.82
-10.19
-12.10
-13.52
-14.64
-15.84
-17.45
-19.61
-22.20
-24.67
-26.28
-26.17
-23.73
-18.78
-11.65
-3.16
5.60
13.58
19.95
24.29
26.51
26.78
25.34
22.55
18.72
14.29
9.73
5.54
2.11
-0.29
-1.53
-1.65
-0.78
0.78
2.54
3.97
4.49
3.79
1.86
-0.91
-3.94
-6.71
-8.93
-10.61
-11.96
-13.28
-14.80
-16.70
-19.01
-21.62
-24.10
-25.69
-25.49
-22.66
-16.89
-8.57
1.24
11.17
19.90
26.54
30.73
32.52
32.23
30.22
26.89
22.70
18.09
13.61
9.70
6.73
4.85
4.04
4.06
4.57
5.19
5.56
5.50
4.91
3.79
2.15
0.04
-2.53
-5.50
-8.74
-12.20
-15.83
-19.65
-23.61
-27.48
-30.66
-32.32
-31.58
-27.88
-21.27
-12.43
-2.52
7.16
15.50
21.80
25.81
27.55
27.25
25.21
21.78
17.45
12.77
8.28
4.46
1.65
-0.02
-0.60
-0.33
0.37
1.01
1.11
0.36
-1.24
-3.47
-5.97
-8.40
-10.60
-12.60
-14.51
-16.40
-18.30
-20.17
-21.97
-23.67
-25.15
-26.00
-25.56
-23.03
-17.84
-9.95
-0.03
10.67
20.75
29.02
34.82
38.02
38.91
37.90
35.43
31.83
27.45
22.73
18.11
14.06
10.94
8.95
8.12
8.21
8.91
9.76
10.29
10.15
9.12
7.21
4.56
1.45
-1.87
-5.17
-8.34
-11.27
-14.00
-16.61
-19.29
-22.26
-25.67
-29.40
-32.95
-35.44
-35.81
-33.16
-27.10
-18.02
-6.99
4.48
14.89
23.09
28.51
31.14
31.36
29.71
26.76
23.04
19.02
15.18
11.90
9.47
7.98
7.33
7.23
7.38
7.56
7.63
7.54
7.23
6.60
5.49
3.71
1.20
-1.94
-5.46
-9.01
-12.28
-15.07
-17.38
-19.34
-21.25
-23.42
-26.12
-29.40
-32.95
-36.11
-37.86
-37.18
-33.30
-26.10
-16.11
-4.46
7.46
18.35
27.22
33.51
36.99
37.74
36.06
32.49
27.75
22.70
18.09
14.43
11.88
10.27
9.31
8.64
8.12
7.71
7.52
7.65
8.06
8.56
8.78
8.33
6.92
4.50
1.26
-2.43
-6.11
-9.46
-12.32
-14.76
-16.98
-19.29
-21.99
-25.22
-28.87
-32.38
-34.85
-35.14
-32.33
-26.03
-16.67
-5.43
6.13
16.51
24.69
30.20
33.10
33.67
32.23
29.11
24.75
19.68
14.59
10.14
6.85
4.95
4.35
4.79
5.84
7.13
8.27
8.96
8.94
8.07
6.35
3.94
1.09
-1.91
-4.82
-7.53
-10.06
-12.56
-15.25
-18.34
-21.93
-25.86
-29.65
-32.52
-33.56
-31.97
-27.37
-19.97
-10.62
-0.55
8.85
16.49
21.71
24.39
24.89
23.77
21.68
19.14
16.51
14.00
11.67
9.60
7.79
6.28
5.07
4.20
3.60
3.09
2.40
1.17
-1.01
-4.33
-8.77
-13.99
-19.46
-24.62
-29.10
-32.77
-35.76
-38.34
-40.85
-43.53
-46.43
-49.16
-50.93
-50.50
-46.53
-38.06
-25.05
-8.62
9.11
25.60
38.64
46.97
50.41
49.71
46.07
40.68
34.53
28.41
23.04
19.06
16.89
16.55
17.56
19.03
20.11
20.33
19.79
19.14
19.11
20.21
22.45
25.29
27.88
29.33
29.02
26.77
22.99
18.62
14.95
13.31
14.52
18.68
24.99
32.06
38.30
42.45
43.88
42.56
38.91
33.50
26.90
19.61
12.07
4.75
-1.93
-7.63
-12.12
-15.27
-17.11
-17.74
-17.43
-16.56
-15.52
-14.76
-14.47
-14.69
-15.24
-15.88
-16.47
-17.01
-17.64
-18.50
-19.74
-21.42
-23.57
-26.16
-29.08
-31.96
-34.09
-34.57
-32.51
-27.47
-19.69
-10.15
-0.30
8.43
15.01
18.98
20.44
19.82
17.61
14.26
10.19
5.75
1.38
-2.53
-5.67
-7.89
-9.28
-9.98
-10.17
-9.95
-9.23
-7.97
-6.19
-4.18
-2.49
-1.79
-2.62
-5.18
-9.16
-13.83
-18.34
-21.97
-24.40
-25.89
-27.08
-28.76
-31.37
-34.80
-38.21
-40.32
-39.88
-36.19
-29.39
-20.41
-10.50
-0.84
7.78
14.97
20.61
24.53
26.53
26.46
24.43
20.89
16.57
12.16
8.11
4.39
0.63
-3.69
-8.93
-15.04
-21.57
-27.73
-32.71
-35.97
-37.42
-37.39
-36.42
-35.03
-33.48
-31.66
-29.27
-26.01
-21.80
-16.86
-11.70
-7.01
-3.45
-1.45
-1.06
-1.91
-3.23
-3.93
-2.88
0.90
7.85
17.73
29.56
41.90
53.18
62.14
68.12
71.10
71.51
70.00
67.13
63.29
58.68
53.41
47.62
41.51
35.38
29.62
24.68
20.90
18.41
17.01
16.17
15.32
13.96
11.98
9.64
7.39
5.59
4.34
3.39
2.22
0.29
-2.86
-7.44
-13.45
-20.52
-28.05
-35.11
-40.60
-43.40
-42.66
-38.11
-30.21
-20.13
-9.53
-0.07
6.94
10.89
11.92
10.76
8.34
5.60
3.17
1.37
0.24
-0.32
-0.53
-0.61
-0.78
-1.13
-1.64
-2.18
-2.63
-2.93
-3.15
-3.44
-3.93
-4.70
-5.74
-6.93
-8.18
-9.44
-10.78
-12.37
-14.40
-17.03
-20.32
-24.13
-28.00
-31.06
-32.28
-30.66
-25.62
-17.28
-6.54
5.13
16.09
25.00
31.14
34.47
35.39
34.51
32.40
29.50
26.16
22.63
19.13
15.87
12.94
10.37
8.11
6.10
4.23
2.45
0.74
-0.87
-2.37
-3.69
-4.83
-5.89
-7.11
-8.62
-10.49
-12.58
-14.57
-16.23
-17.51
-18.66
-20.07
-22.09
-24.70
-27.43
-29.41
-29.66
-27.45
-22.50
-15.15
-6.14
3.52
12.80
20.84
26.99
30.90
32.46
31.85
29.49
25.96
21.91
17.96
14.55
11.88
10.03
8.89
8.37
8.29
8.46
8.71
8.85
8.77
8.42
7.79
6.86
5.55
3.74
1.33
-1.63
-4.87
-8.04
-10.71
-12.73
-14.27
-15.82
-17.94
-20.99
-24.89
-29.09
-32.65
-34.52
-33.85
-30.20
-23.67
-14.86
-4.73
5.64
15.19
23.06
28.67
31.72
32.24
30.58
27.34
23.31
19.27
15.90
13.53
12.16
11.48
11.04
10.45
9.49
8.17
6.63
5.06
3.55
2.07
0.48
-1.34
-3.47
-5.82
-8.24
-10.51
-12.45
-14.02
-15.28
-16.43
-17.78
-19.57
-21.86
-24.35
-26.35
-26.87
-24.98
-20.18
-12.65
-3.33
6.26
14.52
20.19
22.64
22.01
18.99
14.53
9.56
4.83
0.86
-2.11
-4.00
-4.88
-4.94
-4.47
-3.77
-3.08
-2.55
-2.20
-2.04
-2.00
-2.10
-2.39
-2.95
-3.85
-5.08
-6.66
-8.50
-10.58
-12.88
-15.41
-18.19
-21.17
-24.13
-26.67
-28.17
-27.97
-25.48
-20.45
-13.05
-3.99
5.59
14.43
21.39
25.75
27.37
26.56
23.96
20.27
16.15
12.11
8.54
5.73
3.77
2.62
2.05
1.78
1.59
1.36
1.06
0.70
0.23
-0.51
-1.67
-3.31
-5.40
-7.75
-10.10
-12.21
-13.96
-15.41
-16.86
-18.71
-21.35
-24.95
-29.22
-33.36
-36.20
-36.58
-33.75
-27.71
-19.26
-9.68
-0.42
7.38
13.08
16.48
17.63
16.60
13.41
8.18
1.35
-6.27
-13.51
-19.30
-22.97
-24.70
-25.35
-26.24
-28.59
-32.97
-39.11
-45.92
-51.98
-56.13
-58.09
-58.88
-60.77
-66.74
-79.44
-100.06
-127.49
-158.20
-186.96
-208.18
-217.38
-212.34
-193.59
-164.20
-128.82
-92.31
-58.29
-28.18
-1.18
24.87
51.97
80.75
109.93
136.75
158.13
171.92
177.68
176.78
171.99
166.54
163.14
163.08
165.84
169.54
171.66
170.24
164.63
155.48
144.13
131.89
119.60
107.78
96.96
87.70
80.40
74.93
70.59
66.31
61.32
55.36
48.65
41.47
33.74
24.85
13.89
-0.02
-17.34
-37.83
-60.49
-83.72
-105.76
-125.18
-141.30
-154.24
-164.57
-172.80
-179.13
-183.59
-186.39
-188.07
-189.11
-189.29
-187.08
-179.77
-164.21
-137.93
-100.01
-51.55
4.28
62.40
116.16
157.95
180.32
177.85
149.17
98.45
35.35
-26.94
-75.20
-99.73
-96.71
-68.26
-20.33
40.24
107.89
178.70
249.15
314.64
369.10
406.29
422.35
417.66
397.10
368.14
337.88
310.71
287.49
266.47
245.08
221.67
196.18
169.94
144.65
121.54
100.82
81.67
62.78
42.99
22.11
0.97
-18.63
-34.64
-45.35
-49.89
-48.38
-41.75
-31.42
-18.91
-5.64
7.24
18.89
28.78
36.73
42.80
47.15
49.93
51.20
50.90
48.97
45.36
40.19
33.59
25.68
16.49
5.90
-6.27
-20.22
-36.20
-54.37
-74.76
-97.05
-120.44
-143.67
-165.20
-183.58
-197.93
-208.18
-214.92
-219.16
-221.81
-223.43
-224.19
-224.07
-223.11
-221.48
-219.41
-217.04
-214.40
-211.48
-208.36
-205.28
-202.60
-200.64
-199.50
-198.98
-198.74
-198.39
-197.77
-196.93
-196.20
-196.01
-196.88
-199.15
-202.97
-208.18
-214.39
-221.08
-227.74
-234.11
-240.23
-246.51
-253.60
-262.28
-273.04
-285.72
-299.05
-310.54
-316.87
-314.79
-302.18
-278.97
-247.24
-210.49
-172.45
-135.88
-101.96
-70.47
-40.38
-10.62
19.44
49.86
79.98
108.53
133.87
154.44
169.62
180.19
188.47
197.51
209.97
227.14
248.83
274.02
301.92
332.50
366.27
403.19
441.63
477.89
506.81
523.24
523.67
507.46
477.14
437.60
394.63
353.19
316.10
283.60
253.79
223.71
190.42
151.87
107.48
58.59
8.54
-37.88
-75.95
-102.95
-119.42
-129.04
-136.57
-145.14
-154.48
-161.29
-161.43
-152.91
-137.35
-119.35
-104.02
-94.31
-89.92
-88.07
-85.55
-80.57
-73.34
-65.46
-58.52
-53.10
-48.54
-43.47
-36.75
-28.15
-18.45
-9.10
-1.42
3.93
7.26
9.48
11.55
13.94
16.36
17.96
17.68
14.85
9.40
1.99
-6.27
-14.14
-20.58
-24.99
-27.14
-27.12
-25.14
-21.38
-15.90
-8.84
-0.49
8.55
17.31
24.65
29.47
31.03
29.10
24.04
16.66
7.98
-1.01
-9.51
-17.08
-23.67
-29.54
-35.23
-41.25
-47.93
-55.30
-63.10
-71.00
-78.72
-86.26
-93.82
-101.68
-110.02
-118.68
-127.30
-135.24
-141.88
-146.66
-149.15
-148.99
-145.88
-139.49
-129.51
-115.74
-98.21
-77.19
-53.26
-27.29
-0.50
25.61
49.39
69.24
84.03
93.39
97.79
98.42
96.77
94.15
91.39
88.79
86.30
83.82
81.31
78.72
75.81
71.97
66.30
58.03
47.00
34.09
21.27
11.07
5.88
7.17
14.93
27.92
44.07
61.17
77.45
91.67
103.07
111.23
116.08
117.92
117.47
115.77
113.81
112.18
110.91
109.45
107.04
103.10
97.43
90.37
82.50
74.38
66.23
57.91
48.92
38.63
26.65
13.02
-1.55
-15.84
-28.34
-37.65
-42.87
-43.78
-40.90
-35.26
-28.20
-21.06
-14.96
-10.71
-8.72
-9.06
-11.44
-15.23
-19.56
-23.47
-26.13
-26.98
-25.86
-22.97
-18.82
-14.04
-9.29
-5.07
-1.79
0.40
1.54
1.89
1.82
1.71
1.81
2.16
2.67
3.19
3.60
3.89
4.04
4.03
3.77
3.08
1.83
-0.00
-2.29
-4.69
-6.79
-8.18
-8.63
-8.17
-7.18
-6.35
-6.47
-8.27
-12.08
-17.71
-24.43
-31.05
-36.31
-39.07
-38.62
-34.79
-28.05
-19.35
-9.85
-0.74
7.07
12.99
16.76
18.30
17.67
15.03
10.77
5.48
-0.01
-4.88
-8.63
-11.11
-12.62
-13.64
-14.65
-15.88
-17.35
-18.91
-20.38
-21.62
-22.61
-23.41
-24.13
-24.88
-25.73
-26.66
-27.62
-28.46
-29.03
-29.11
-28.45
-26.75
-23.73
-19.23
-13.28
-6.20
1.44
8.92
15.60
21.03
25.08
27.90
29.86
31.39
32.89
34.64
36.82
39.45
42.48
45.79
49.10
52.15
54.62
56.23
56.80
56.25
54.58
51.90
48.38
44.24
39.74
35.12
30.56
26.17
22.00
18.04
14.31
10.91
7.94
5.61
4.13
3.67
4.37
6.19
8.89
12.06
15.14
17.51
18.74
18.55
16.94
14.10
10.32
5.94
1.28
-3.37
-7.74
-11.54
-14.54
-16.64
-17.87
-18.42
-18.61
-18.73
-18.99
-19.41
-19.90
-20.28
-20.48
-20.50
-20.55
-20.83
-21.57
-22.80
-24.40
-26.09
-27.50
-28.25
-28.00
-26.58
-23.92
-20.17
-15.63
-10.65
-5.58
-0.63
4.07
8.49
12.61
16.40
19.84
22.95
25.75
28.28
30.54
32.40
33.78
34.55
34.70
34.25
33.30
31.91
30.05
27.66
24.60
20.78
16.12
10.63
4.35
-2.65
-10.30
-18.41
-26.64
-34.44
-41.05
-45.68
-47.60
-46.37
-41.99
-34.86
-25.67
-15.25
-4.44
5.95
15.09
22.10
26.11
26.50
23.13
16.56
8.02
-0.93
-8.76
-14.50
-17.81
-18.92
-18.38
-16.73
-14.39
-11.63
-8.71
-5.92
-3.59
-2.01
-1.33
-1.61
-2.80
-4.85
-7.72
-11.35
-15.53
-19.86
-23.75
-26.49
-27.43
-26.17
-22.67
-17.31
-10.76
-3.89
2.49
7.82
11.85
14.58
16.18
16.84
16.64
15.63
13.85
11.44
8.69
5.93
3.45
1.39
-0.22
-1.53
-2.67
-3.75
-4.81
-5.81
-6.70
-7.44
-8.05
-8.63
-9.31
-10.26
-11.58
-13.39
-15.66
-18.31
-21.10
-23.60
-25.30
-25.61
-24.04
-20.37
-14.69
-7.51
0.45
8.35
15.42
21.10
25.04
27.18
27.66
26.76
24.83
22.20
19.22
16.25
13.70
12.02
11.53
12.31
14.04
16.10
17.72
18.34
17.75
16.21
14.29
12.58
11.41
10.79
10.43
9.91
8.81
6.92
4.22
0.97
-2.35
-5.17
-6.89
-7.03
-5.38
-1.99
2.80
8.41
14.11
19.13
22.81
24.72
24.78
23.19
20.32
16.60
12.35
7.81
3.20
-1.23
-5.16
-8.22
-10.18
-10.94
-10.73
-9.96
-9.13
-8.70
-8.91
-9.72
-10.96
-12.38
-13.90
-15.57
-17.59
-20.13
-23.24
-26.80
-30.46
-33.67
-35.75
-35.93
-33.47
-27.92
-19.35
-8.46
3.53
15.15
25.15
32.77
37.90
40.86
42.12
42.04
40.81
38.52
35.35
31.63
27.83
24.27
21.06
17.99
14.71
10.92
6.53
1.70
-3.27
-8.11
-12.68
-16.98
-21.13
-25.24
-29.46
-33.99
-39.09
-45.04
-51.94
-59.56
-67.13
-73.42
-76.90
-76.28
-70.89
-60.97
-47.72
-32.96
-18.68
-6.58
2.14
6.84
7.30
3.53
-4.21
-15.38
-28.96
-43.45
-56.99
-67.65
-73.77
-74.34
-69.22
-59.21
-45.80
-30.88
-16.31
-3.54
6.60
13.93
18.84
21.92
23.74
24.62
24.56
23.36
20.76
16.68
11.27
5.01
-1.36
-6.86
-10.46
-11.27
-8.73
-2.80
5.92
16.29
26.72
35.54
41.32
43.13
40.78
34.76
26.13
16.18
6.10
-3.33
-11.92
-20.03
-28.47
-38.09
-49.37
-61.97
-74.57
-85.27
-92.53
-96.24
-98.48
-103.14
-114.56
-135.76
-167.01
-205.47
-246.05
-282.99
-311.27
-327.45
-329.86
-318.23
-293.51
-257.68
-213.74
-165.41
-116.52
-70.17
-28.13
9.07
41.35
67.94
86.54
93.75
86.59
64.78
32.18
-3.72
-34.35
-53.49
-59.65
-56.09
-48.35
-40.90
-34.83
-27.84
-16.25
2.38
27.83
57.76
89.45
121.65
154.95
190.64
228.96
267.91
303.48
331.26
348.52
355.55
355.63
353.61
353.70
357.61
363.99
369.12
368.67
359.65
341.53
316.26
287.02
256.88
227.88
200.94
176.36
154.18
134.21
115.58
96.75
75.86
51.74
24.81
-2.70
-27.45
-46.41
-58.18
-63.57
-65.13
-66.13
-69.44
-76.84
-88.85
-104.92
-123.70
-143.37
-161.97
-177.64
-188.87
-194.73
-195.07
-190.60
-182.80
-173.49
-164.20
-155.63
-147.51
-138.89
-128.81
-116.99
-104.08
-91.53
-80.84
-72.90
-67.52
-63.68
-60.06
-55.82
-50.98
-46.32
-42.83
-41.11
-41.09
-42.18
-43.71
-45.25
-46.75
-48.35
-50.28
-52.79
-56.27
-61.34
-68.44
-77.21
-85.79
-90.53
-86.71
-70.00
-38.47
6.04
57.89
109.05
151.72
180.74
194.96
196.82
190.67
180.76
169.98
159.81
150.95
143.74
137.77
131.20
120.37
101.06
70.68
30.57
-13.42
-52.84
-80.06
-91.61
-89.40
-79.25
-67.82
-59.63
-55.82
-54.84
-54.33
-52.61
-49.14
-44.03
-37.20
-28.09
-15.93
-0.44
17.69
36.81
54.78
69.69
80.36
86.38
88.04
85.87
80.40
72.08
61.50
49.54
37.48
26.74
18.46
13.08
10.24
9.02
8.35
7.49
6.06
4.09
1.76
-0.66
-2.90
-4.69
-5.96
-6.93
-8.21
-10.67
-14.95
-21.11
-28.36
-35.28
-40.22
-42.01
-40.26
-35.52
-28.96
-22.05
-16.11
-12.22
-11.05
-12.80
-17.06
-22.73
-28.14
-31.57
-31.84
-28.84
-23.61
-17.84
-13.04
-9.96
-8.31
-7.27
-6.09
-4.58
-3.16
-2.43
-2.78
-4.16
-6.28
-8.99
-12.37
-16.68
-21.87
-27.34
-31.85
-33.98
-32.65
-27.52
-19.03
-8.20
3.82
16.04
27.76
38.48
47.75
55.10
60.08
62.34
61.78
58.68
53.67
47.69
41.77
36.87
33.69
32.56
33.35
35.35
37.18
37.02
33.09
24.20
10.38
-7.11
-26.15
-44.53
-60.76
-74.29
-85.28
-93.96
-100.08
-102.79
-100.96
-93.91
-81.80
-65.77
-47.66
-29.47
-12.96
0.65
10.73
17.14
20.11
20.08
17.70
13.75
9.12
4.76
1.49
-0.11
0.12
1.89
4.53
7.25
9.33
10.38
10.39
9.69
8.70
7.72
6.71
5.31
3.00
-0.63
-5.50
-10.98
-15.93
-19.02
-19.16
-15.81
-9.18
-0.16
9.94
19.78
28.23
34.57
38.49
40.08
39.58
37.42
33.97
29.64
24.81
19.85
15.10
10.87
7.36
4.66
2.69
1.22
-0.06
-1.48
-3.27
-5.53
-8.21
-11.26
-14.69
-18.57
-23.09
-28.38
-34.47
-41.17
-48.00
-54.21
-58.81
-60.67
-58.78
-52.57
-42.13
-28.33
-12.62
3.23
17.61
29.33
37.83
43.05
45.29
45.03
42.78
39.10
34.59
29.85
25.41
21.67
18.79
16.76
15.37
14.37
13.48
12.42
10.98
9.04
6.59
3.73
0.64
-2.54
-5.77
-9.10
-12.59
-16.34
-20.38
-24.75
-29.50
-34.62
-39.92
-44.91
-48.74
-50.45
-49.21
-44.65
-37.03
-27.17
-16.20
-5.26
4.71
13.09
19.47
23.65
25.52
25.16
22.85
19.09
14.58
9.97
5.77
2.23
-0.59
-2.63
-3.65
-3.23
-1.02
2.94
7.92
12.57
15.26
14.65
10.08
1.85
-8.92
-20.46
-30.66
-37.38
-38.85
-34.17
-23.83
-9.87
4.53
16.01
22.11
22.13
17.10
9.28
1.09
-5.61
-9.89
-11.59
-11.01
-8.58
-4.73
0.10
5.56
11.40
17.57
24.04
30.65
36.96
42.39
46.51
49.37
51.62
54.27
58.14
63.39
69.28
74.55
77.97
78.88
77.52
74.79
71.83
69.59
68.61
69.02
70.67
73.01
74.91
74.54
69.51
57.58
37.63
10.39
-21.37
-53.52
-81.73
-102.63
-114.48
-117.23
-112.07
-100.91
-86.00
-69.66
-54.23
-41.75
-33.72
-30.77
-32.65
-38.29
-46.22
-54.97
-63.38
-70.71
-76.56
-80.65
-82.69
-82.34
-79.45
-74.23
-67.37
-59.83
-52.57
-46.19
-40.83
-36.34
-32.53
-29.42
-27.30
-26.60
-27.63
-30.46
-34.84
-40.28
-46.03
-51.04
-53.90
-52.99
-46.92
-35.07
-18.07
2.14
22.76
40.91
54.47
62.58
65.60
64.72
61.36
56.75
51.78
47.00
42.75
39.16
36.19
33.61
31.20
28.89
26.85
25.45
25.00
25.57
26.78
27.94
28.22
26.96
23.90
19.20
13.39
7.12
0.92
-5.02
-10.96
-17.49
-25.28
-34.71
-45.48
-56.34
-65.30
-69.99
-68.40
-59.56
-43.96
-23.51
-1.02
20.50
38.63
51.88
59.85
62.94
62.04
58.20
52.43
45.66
38.65
32.02
26.18
21.33
17.44
14.39
12.02
10.26
9.09
8.50
8.38
8.45
8.27
7.40
5.56
2.73
-0.81
-4.69
-8.58
-12.42
-16.46
-21.13
-26.89
-33.96
-42.08
-50.33
-57.17
-60.71
-59.14
-51.37
-37.45
-18.75
2.32
22.93
40.58
53.72
61.88
65.56
65.70
63.29
59.00
53.27
46.40
38.80
31.04
23.78
17.64
13.02
10.03
8.48
7.98
8.07
8.29
8.28
7.77
6.63
4.80
2.28
-0.89
-4.65
-8.96
-13.88
-19.58
-26.29
-34.09
-42.64
-50.93
-57.30
-59.83
-56.90
-47.86
-33.38
-15.33
3.80
21.63
36.50
47.68
55.11
59.06
59.73
57.20
51.65
43.69
34.49
25.55
18.33
13.64
11.40
10.75
10.54
9.88
8.52
6.85
5.63
5.65
7.39
10.92
15.69
20.36
22.62
19.59
8.56
-11.75
-40.18
-72.94
-104.35
-128.66
-141.78
-142.41
-132.01
-113.81
-91.44
-67.94
-45.33
-24.86
-7.39
6.44
16.18
21.78
23.73
22.92
20.46
17.25
13.89
10.63
7.53
4.68
2.32
0.77
0.29
0.88
2.21
3.72
4.76
4.77
3.46
0.81
-2.99
-7.67
-13.10
-19.40
-26.84
-35.57
-45.24
-54.64
-61.82
-64.43
-60.62
-49.74
-32.75
-12.03
9.34
28.52
43.62
53.96
59.84
62.01
61.22
58.00
52.71
45.81
38.00
30.27
23.62
18.86
16.33
15.85
16.84
18.54
20.24
21.46
22.03
22.15
22.38
23.45
26.10
30.65
36.69
43.04
47.85
49.06
44.96
34.88
19.57
1.35
-16.22
-29.14
-33.94
-28.51
-12.65
11.89
41.88
73.14
101.33
122.65
134.35
135.20
125.57
107.35
83.46
57.18
31.43
8.42
-10.56
-24.87
-34.31
-38.77
-38.16
-32.45
-21.92
-7.42
9.48
26.62
41.69
52.72
58.47
58.48
52.96
42.51
27.83
9.77
-10.69
-32.35
-53.90
-74.08
-91.76
-105.92
-115.51
-119.36
-116.44
-106.17
-89.07
-66.94
-42.72
-19.86
-1.46
10.59
15.95
15.75
11.99
6.91
2.35
-0.54
-1.36
-0.32
2.03
4.92
7.59
9.34
9.66
8.32
5.47
1.60
-2.53
-6.10
-8.54
-9.72
-10.01
-10.17
-11.02
-13.19
-16.86
-21.75
-27.34
-33.21
-39.28
-45.96
-53.98
-64.00
-76.12
-89.53
-102.27
-111.57
-114.44
-108.53
-92.92
-68.52
-37.95
-4.95
26.54
53.27
73.20
85.57
90.69
89.53
83.36
73.64
61.90
49.72
38.51
29.39
22.92
19.19
17.88
18.54
20.72
24.12
28.35
32.88
36.86
39.27
39.26
36.37
30.80
23.29
14.90
6.59
-1.02
-7.85
-14.28
-20.82
-27.78
-34.82
-40.85
-44.09
-42.67
-35.22
-21.59
-3.02
18.10
38.89
56.88
70.51
79.43
84.17
85.78
85.38
83.87
81.80
79.29
76.11
71.74
65.63
57.48
47.42
36.09
24.41
13.26
3.22
-5.56
-13.27
-20.11
-26.15
-31.32
-35.57
-39.11
-42.50
-46.50
-51.77
-58.64
-66.89
-75.73
-84.04
-90.41
-93.41
-91.72
-84.50
-71.64
-53.97
-33.19
-11.49
8.98
26.62
40.57
50.62
56.98
59.98
59.99
57.42
52.89
47.18
41.18
35.72
31.31
28.10
25.85
24.11
22.42
20.51
18.39
16.29
14.36
12.52
10.35
7.23
2.71
-3.26
-10.20
-17.26
-23.66
-29.03
-33.63
-38.18
-43.55
-50.38
-58.73
-68.01
-76.96
-83.96
-87.28
-85.57
-78.13
-65.32
-48.48
-29.74
-11.43
4.42
16.59
24.78
29.41
31.32
31.34
30.12
28.07
25.48
22.63
19.88
17.59
16.05
15.38
15.49
16.20
17.20
18.24
19.04
19.36
19.03
17.90
15.94
13.19
9.77
5.76
1.22
-3.86
-9.45
-15.45
-21.66
-27.81
-33.65
-39.03
-43.99
-48.71
-53.56
-58.88
-64.88
-71.40
-77.72
-82.58
-84.32
-81.38
-72.77
-58.55
-39.88
-18.80
2.33
21.41
37.01
48.50
55.96
59.87
60.88
59.69
56.93
53.24
49.19
45.26
41.81
39.02
36.98
35.61
34.83
34.51
34.55
34.87
35.39
36.00
36.49
36.57
35.87
34.11
31.11
26.97
22.00
16.60
11.14
5.81
0.61
-4.59
-9.92
-15.47
-21.17
-26.84
-32.27
-37.27
-41.82
-46.01
-50.16
-54.65
-59.79
-65.62
-71.71
-77.08
-80.32
-79.92
-74.71
-64.32
-49.32
-31.18
-11.91
6.46
22.34
34.78
43.50
48.68
50.74
50.15
47.40
43.02
37.61
31.89
26.47
21.88
18.36
15.92
14.45
13.76
13.69
14.11
14.88
15.77
16.49
16.72
16.16
14.63
12.07
8.54
4.23
-0.60
-5.70
-10.84
-15.84
-20.64
-25.31
-30.07
-35.24
-41.07
-47.55
-54.27
-60.41
-64.82
-66.38
-64.24
-58.08
-48.20
-35.43
-20.91
-5.88
8.53
21.44
32.24
40.63
46.43
49.62
50.23
48.40
44.44
38.85
32.32
25.60
19.41
14.26
10.41
7.85
6.43
5.94
6.15
6.88
7.88
8.79
9.10
8.22
5.77
1.69
-3.68
-9.66
-15.53
-20.82
-25.46
-29.77
-34.32
-39.62
-45.90
-52.96
-60.05
-66.01
-69.45
-69.10
-64.18
-54.63
-41.27
-25.58
-9.32
5.82
18.62
28.41
35.02
38.65
39.68
38.58
35.83
31.99
27.59
23.13
19.00
15.42
12.48
10.23
8.68
7.91
7.97
8.81
10.18
11.65
12.68
12.82
11.72
9.27
5.53
0.65
-5.09
-11.32
-17.62
-23.59
-28.99
-33.86
-38.59
-43.70
-49.69
-56.64
-64.05
-70.77
-75.24
-75.85
-71.39
-61.45
-46.56
-28.11
-8.00
11.80
29.67
44.52
55.85
63.60
67.93
69.11
67.54
63.85
58.85
53.49
48.65
44.96
42.62
41.46
41.05
40.89
40.66
40.32
40.08
40.35
41.51
43.73
46.78
49.85
51.61
50.30
44.28
32.51
15.02
-6.88
-30.89
-54.33
-74.94
-91.49
-103.90
-112.93
-119.48
-123.99
-126.16
-125.13
-120.00
-110.33
-96.46
-79.40
-60.60
-41.47
-23.16
-6.51
7.84
19.37
27.61
32.22
33.10
30.62
25.62
19.40
13.47
9.27
7.75
9.18
13.10
18.55
24.49
30.22
35.64
41.07
46.95
53.31
59.62
64.79
67.68
67.61
64.74
60.07
55.02
50.89
48.36
47.35
47.07
46.30
43.51
37.22
26.21
9.96
-10.83
-34.14
-56.91
-75.93
-89.04
-95.82
-97.65
-96.96
-95.90
-95.37
-94.75
-92.48
-87.12
-78.27
-66.78
-54.35
-42.73
-32.92
-25.01
-18.39
-12.30
-6.31
-0.41
5.07
9.85
13.79
17.05
19.85
22.30
24.32
25.65
26.08
25.59
24.34
22.67
20.75
18.40
15.14
10.44
4.29
-2.40
-7.70
-9.08
-4.31
7.74
26.49
49.66
73.77
94.91
109.48
114.96
110.28
95.98
74.07
47.59
19.88
-6.09
-28.16
-45.12
-56.46
-62.20
-62.84
-59.42
-53.63
-47.61
-43.46
-42.57
-45.22
-50.59
-57.29
-64.05
-70.28
-76.20
-82.56
-90.17
-99.39
-109.85
-120.35
-129.03
-133.62
-131.86
-122.16
-104.11
-78.80
-48.69
-17.08
12.82
38.53
58.77
73.38
82.85
87.88
89.06
86.88
81.95
75.25
68.14
62.11
58.30
57.02
57.63
58.79
59.10
57.63
54.32
49.77
44.77
39.77
34.58
28.54
20.91
11.21
-0.60
-14.16
-28.78
-43.32
-56.08
-64.83
-67.22
-61.57
-47.62
-26.96
-2.64
21.66
42.77
58.83
69.40
75.08
76.90
75.75
72.18
66.54
59.18
50.67
41.86
33.70
27.05
22.33
19.46
17.88
16.74
15.23
12.85
9.49
5.39
0.94
-3.55
-7.96
-12.51
-17.59
-23.78
-31.68
-41.74
-53.94
-67.54
-80.82
-91.20
-95.73
-91.93
-78.68
-56.79
-28.98
0.85
28.71
51.52
67.76
77.41
81.54
81.55
78.76
74.09
68.18
61.48
54.43
47.52
41.21
35.92
31.94
29.45
28.44
28.60
29.36
29.90
29.36
27.08
22.85
16.92
9.91
2.46
-5.01
-12.45
-20.21
-28.87
-39.13
-51.47
-65.77
-80.87
-94.38
-103.01
-103.42
-93.42
-72.96
-44.38
-11.80
20.16
47.77
68.90
83.08
90.93
93.40
91.43
85.92
77.91
68.72
59.74
52.17
46.54
42.73
40.10
37.90
35.63
33.32
31.32
30.11
29.90
30.35
30.62
29.58
26.33
20.54
12.63
3.59
-5.46
-13.65
-20.76
-27.24
-34.04
-42.24
-52.64
-65.36
-79.48
-92.94
-102.82
-106.01
-100.17
-84.62
-60.74
-31.64
-1.31
26.57
49.44
66.18
76.82
82.02
82.56
79.24
72.87
64.44
55.15
46.12
38.19
31.74
26.71
22.83
19.85
17.72
16.56
16.50
17.41
18.87
20.14
20.45
19.25
16.33
11.92
6.50
0.61
-5.42
-11.62
-18.39
-26.46
-36.54
-48.85
-62.60
-75.80
-85.37
-87.99
-81.19
-64.39
-39.32
-9.69
20.00
45.71
64.95
77.01
82.63
83.20
80.15
74.52
67.06
58.35
49.01
39.73
31.22
24.06
18.67
15.20
13.60
13.65
14.92
16.83
18.66
19.67
19.25
17.04
13.04
7.62
1.32
-5.29
-11.81
-18.20
-24.80
-32.25
-41.19
-51.86
-63.53
-74.26
-81.06
-80.73
-70.97
-51.40
-24.03
7.26
37.87
63.74
82.39
93.09
96.57
94.27
87.84
78.78
68.39
57.82
47.96
39.34
32.05
25.80
20.13
14.75
9.74
5.58
2.95
2.38
3.89
6.88
10.15
12.26
12.04
8.98
3.47
-3.31
-9.84
-14.75
-17.31
-17.59
-16.49
-15.32
-15.38
-17.34
-20.85
-24.21
-24.62
-18.87
-4.38
19.77
52.26
89.77
128.05
163.21
192.90
216.59
235.20
250.27
263.18
274.76
285.32
294.83
302.91
308.77
311.19
308.92
301.34
289.01
273.71
257.74
242.86
229.45
216.43
202.02
184.86
164.79
142.89
120.71
99.42
79.26
59.68
39.96
19.81
-0.35
-19.70
-37.55
-53.76
-68.89
-83.99
-100.05
-117.73
-137.11
-157.84
-179.33
-200.80
-221.37
-239.94
-255.27
-266.31
-272.59
-274.62
-273.85
-272.22
-271.45
-272.45
-275.11
-278.59
-281.92
-284.46
-286.00
-286.59
-286.19
-284.53
-281.37
-276.76
-271.48
-267.04
-265.21
-267.29
-273.37
-281.95
-290.07
-294.14
-291.12
-279.56
-260.27
-236.09
-210.90
-188.11
-169.33
-153.88
-139.42
-123.30
-103.84
-80.97
-55.93
-30.41
-5.74
17.38
38.69
57.87
74.41
87.97
98.84
108.11
117.18
126.75
135.94
142.32
142.84
135.45
120.23
99.58
77.36
57.35
41.87
31.31
24.60
20.18
16.89
14.29
12.36
11.11
10.22
9.18
7.60
5.51
3.32
1.64
0.79
0.64
0.69
0.30
-1.04
-3.41
-6.56
-10.12
-13.89
-17.94
-22.60
-28.04
-33.93
-39.23
-42.30
-41.37
-35.12
-23.32
-7.00
11.76
30.40
46.65
59.04
67.13
71.28
72.22
70.69
67.19
62.00
55.36
47.68
39.60
31.86
25.17
19.97
16.39
14.26
13.20
12.75
12.52
12.19
11.53
10.41
8.75
6.46
3.50
-0.09
-4.29
-9.07
-14.50
-20.70
-27.70
-35.22
-42.45
-48.01
-50.19
-47.47
-39.10
-25.49
-8.21
10.36
27.79
42.15
52.39
58.31
60.37
59.32
55.90
50.81
44.55
37.58
30.31
23.13
16.40
10.46
5.60
2.05
-0.04
-0.72
-0.22
0.95
2.13
2.63
1.91
-0.20
-3.50
-7.47
-11.60
-15.52
-19.27
-23.16
-27.69
-33.25
-39.88
-47.11
-53.90
-58.73
-59.90
-55.94
-46.18
-31.09
-12.29
7.80
26.60
42.10
53.17
59.64
61.91
60.64
56.47
50.09
42.37
34.43
27.48
22.49
19.86
19.31
20.04
21.13
21.84
21.86
21.21
20.08
18.55
16.50
13.60
9.45
3.78
-3.36
-11.54
-20.01
-27.91
-34.58
-39.85
-44.22
-48.68
-54.33
-61.76
-70.42
-78.51
-83.19
-81.61
-71.86
-53.90
-29.67
-2.53
23.89
46.85
65.21
79.49
91.21
102.28
114.22
127.76
142.39
156.07
165.35
166.04
154.70
130.27
95.24
55.51
18.74
-8.07
-20.95
-19.94
-8.69
7.14
21.83
31.12
32.86
26.98
15.02
-0.56
-17.06
-32.18
-44.43
-53.37
-59.38
-63.43
-66.48
-69.15
-71.46
-72.79
-72.18
-68.67
-61.79
-51.82
-39.84
-27.43
-16.28
-7.67
-2.24
0.10
0.03
-1.50
-3.49
-5.12
-5.88
-5.60
-4.41
-2.62
-0.58
1.43
3.31
5.06
6.71
8.23
9.49
10.25
10.26
9.32
7.45
4.88
2.00
-0.71
-2.91
-4.47
-5.53
-6.45
-7.69
-9.65
-12.44
-15.89
-19.45
-22.31
-23.66
-22.94
-20.09
-15.69
-10.74
-6.36
-3.45
-2.39
-2.99
-4.69
-6.81
-8.77
-10.22
-11.09
-11.45
-11.44
-11.12
-10.41
-9.14
-7.14
-4.40
-1.27
1.73
4.02
5.24
5.46
5.10
4.72
4.71
5.15
5.74
6.03
5.62
4.35
2.30
-0.16
-2.44
-3.91
-3.94
-2.14
1.60
6.88
12.95
18.88
23.78
27.09
28.66
28.72
27.63
25.78
23.35
20.42
17.00
13.24
9.47
6.13
3.67
2.28
1.88
2.11
2.49
2.60
2.30
1.65
0.88
0.23
-0.26
-0.75
-1.49
-2.74
-4.61
-7.04
-9.88
-12.91
-15.83
-18.25
-19.63
-19.39
-17.05
-12.51
-6.19
1.05
8.14
14.08
18.19
20.23
20.23
18.40
15.06
10.68
5.82
1.12
-2.84
-5.79
-7.86
-9.53
-11.40
-13.85
-16.85
-19.91
-22.40
-23.82
-24.21
-24.18
-24.69
-26.65
-30.48
-35.94
-42.24
-48.38
-53.65
-57.91
-61.66
-65.82
-71.31
-78.58
-87.49
-97.12
-105.78
-111.07
-110.08
-99.99
-79.14
-48.06
-10.08
29.27
63.74
88.41
101.21
103.22
97.69
88.44
78.36
68.89
60.39
52.90
46.62
41.95
39.06
37.56
36.54
35.01
32.35
28.61
24.35
20.27
16.72
13.52
9.99
5.36
-0.84
-8.60
-17.41
-26.54
-35.36
-43.60
-51.41
-59.24
-67.59
-76.58
-85.59
-93.05
-96.63
-93.88
-83.11
-64.21
-38.92
-10.51
17.30
41.43
60.22
73.54
82.14
87.01
88.79
87.81
84.37
79.10
73.07
67.56
63.60
61.57
61.17
61.55
61.80
61.21
59.50
56.73
53.12
48.83
43.94
38.36
32.01
24.78
16.66
7.64
-2.22
-12.77
-23.83
-35.24
-46.96
-59.15
-72.13
-86.11
-100.90
-115.49
-128.07
-136.26
-137.76
-131.05
-115.96
-93.89
-67.46
-39.84
-13.95
8.17
25.63
38.47
47.33
53.07
56.49
58.28
58.98
58.99
58.43
57.15
54.75
50.80
45.11
37.95
30.01
22.27
15.65
10.69
7.38
5.15
3.16
0.53
-3.22
-8.11
-13.68
-19.33
-24.62
-29.59
-34.80
-41.14
-49.45
-60.04
-72.32
-84.53
-94.01
-97.72
-93.16
-79.33
-57.22
-29.75
-0.85
25.64
47.01
62.21
71.59
76.23
77.25
75.47
71.30
65.14
57.55
49.35
41.49
34.75
29.60
26.13
24.14
23.26
23.05
23.09
22.99
22.42
21.09
18.85
15.63
11.41
6.15
-0.24
-7.96
-17.18
-28.01
-40.28
-53.30
-65.66
-75.18
-79.32
-75.82
-63.60
-43.34
-17.49
10.28
36.25
57.54
72.73
81.79
85.60
85.31
81.93
76.23
68.79
60.18
50.95
41.72
33.02
25.33
18.98
14.12
10.71
8.51
7.16
6.24
5.32
4.07
2.27
-0.21
-3.42
-7.38
-12.12
-17.71
-24.40
-32.55
-42.57
-54.57
-67.88
-80.67
-90.03
-92.61
-85.76
-68.62
-42.77
-11.90
19.30
46.59
67.37
81.01
88.40
91.07
90.34
87.01
81.47
74.09
65.49
56.59
48.37
41.61
36.68
33.62
32.18
31.99
32.54
33.13
33.00
31.42
28.00
22.78
16.24
9.10
1.97
-4.87
-11.47
-18.21
-25.57
-34.03
-43.84
-54.75
-65.66
-74.49
-78.54
-75.32
-63.62
-44.19
-19.77
5.87
29.14
47.69
60.75
68.77
72.64
73.22
71.03
66.52
60.31
53.20
46.05
39.47
33.68
28.62
24.15
20.30
17.34
15.65
15.49
16.71
18.64
20.26
20.49
18.59
14.36
8.24
1.04
-6.40
-13.47
-20.00
-26.23
-32.72
-40.14
-49.10
-59.78
-71.64
-83.16
-91.88
-94.95
-90.00
-76.08
-54.23
-27.31
0.83
26.51
47.15
61.73
70.50
74.39
74.42
71.41
66.01
58.90
50.94
43.07
36.07
30.32
25.78
22.15
19.13
16.71
15.12
14.67
15.44
17.03
18.58
19.04
17.59
13.95
8.54
2.24
-4.00
-9.52
-14.26
-18.69
-23.67
-30.09
-38.48
-48.68
-59.64
-69.42
-75.48
-75.39
-67.62
-52.18
-30.81
-6.55
17.17
37.48
52.68
62.37
67.06
67.65
65.03
59.93
53.01
44.95
36.47
28.26
20.88
14.61
9.58
5.80
3.29
2.06
2.05
2.98
4.32
5.31
5.15
3.35
-0.15
-4.93
-10.31
-15.66
-20.67
-25.47
-30.58
-36.65
-44.18
-53.23
-63.16
-72.51
-79.10
-80.54
-74.91
-61.55
-41.54
-17.54
6.89
28.40
44.73
55.15
60.25
61.34
59.78
56.53
52.15
46.90
41.05
34.84
28.47
22.03
15.56
9.21
3.32
-1.58
-5.02
-6.81
-7.24
-7.02
-6.99
-7.78
-9.66
-12.50
-16.00
-19.98
-24.56
-30.15
-37.23
-46.03
-56.21
-66.63
-75.38
-80.09
-78.63
-69.78
-53.84
-32.66
-9.20
13.31
32.31
46.39
55.36
59.81
60.59
58.41
53.71
46.91
38.51
29.29
20.10
11.72
4.64
-0.92
-4.95
-7.52
-8.70
-8.58
-7.43
-5.76
-4.25
-3.64
-4.50
-7.02
-11.05
-16.12
-21.67
-27.26
-32.75
-38.29
-44.35
-51.35
-59.36
-67.71
-74.84
-78.53
-76.55
-67.43
-51.26
-29.79
-6.03
16.62
35.35
48.63
56.28
59.11
58.39
55.26
50.58
44.94
38.83
32.76
27.25
22.66
19.03
16.11
13.46
10.75
7.94
5.31
3.25
1.96
1.25
0.51
-0.98
-3.72
-7.73
-12.47
-17.19
-21.31
-24.68
-27.72
-31.22
-36.02
-42.60
-50.83
-59.63
-67.13
-70.89
-68.64
-59.11
-42.64
-21.29
1.68
22.82
39.56
50.76
56.65
58.30
56.89
53.29
48.03
41.52
34.32
27.20
20.92
15.96
12.38
9.90
8.08
6.64
5.61
5.24
5.80
7.28
9.22
10.80
11.09
9.44
5.73
0.43
-5.58
-11.41
-16.45
-20.59
-24.21
-28.05
-32.92
-39.42
-47.60
-56.73
-65.23
-70.90
-71.46
-65.31
-52.21
-33.51
-11.84
9.63
28.17
42.08
50.94
55.25
55.92
53.81
49.52
43.54
36.40
28.79
21.53
15.38
10.74
7.65
5.75
4.61
3.92
3.66
4.03
5.22
7.13
9.20
10.53
10.19
7.65
2.98
-3.14
-9.75
-15.94
-21.23
-25.71
-29.90
-34.52
-40.26
-47.39
-55.62
-63.89
-70.48
-73.31
-70.54
-61.26
-45.93
-26.38
-5.31
14.50
30.89
42.78
50.06
53.24
53.05
50.17
45.23
38.87
31.75
24.52
17.70
11.65
6.60
2.66
-0.04
-1.41
-1.40
-0.13
2.09
4.72
7.03
8.23
7.71
5.23
1.05
-4.16
-9.57
-14.51
-18.78
-22.76
-27.16
-32.76
-39.98
-48.55
-57.37
-64.58
-67.91
-65.33
-55.80
-39.75
-19.14
3.08
23.83
40.84
53.07
60.64
64.34
64.96
63.04
58.77
52.40
44.44
35.78
27.49
20.52
15.32
11.83
9.51
7.71
5.92
3.98
2.03
0.32
-1.06
-2.41
-4.33
-7.50
-12.35
-18.82
-26.30
-33.94
-40.94
-46.82
-51.63
-55.79
-59.95
-64.80
-70.81
-78.00
-85.70
-92.35
-95.74
-93.49
-83.88
-66.70
-43.45
-17.10
8.86
31.44
48.88
60.83
67.93
71.22
71.61
69.63
65.65
60.05
53.41
46.53
40.24
35.14
31.50
29.16
27.73
26.76
26.00
25.48
25.40
25.91
26.88
27.77
27.73
25.92
21.82
15.49
7.63
-0.73
-8.54
-15.16
-20.50
-25.05
-29.62
-35.08
-42.02
-50.56
-60.19
-69.76
-77.61
-81.79
-80.51
-72.67
-58.25
-38.55
-15.92
6.77
26.90
42.68
53.46
59.61
62.05
61.81
59.65
56.04
51.32
45.89
40.24
34.93
30.32
26.56
23.60
21.34
19.83
19.29
19.98
21.96
24.98
28.48
31.79
34.43
36.30
37.70
39.10
40.84
42.88
44.66
45.32
43.96
40.04
33.62
25.40
16.58
8.59
2.71
-0.26
-0.22
2.15
5.64
8.83
10.62
10.53
8.80
6.15
3.32
0.65
-1.98
-5.02
-8.94
-13.86
-19.52
-25.44
-31.06
-36.01
-40.08
-43.21
-45.37
-46.55
-46.74
-46.01
-44.53
-42.63
-40.73
-39.22
-38.36
-38.21
-38.55
-39.04
-39.27
-38.98
-38.12
-36.90
-35.70
-34.91
-34.75
-35.21
-36.02
-36.71
-36.74
-35.65
-33.18
-29.31
-24.32
-18.61
-12.70
-7.09
-2.24
1.49
3.85
4.79
4.45
3.16
1.38
-0.40
-1.74
-2.37
-2.18
-1.30
0.02
1.48
2.81
3.88
4.73
5.49
6.29
7.19
8.09
8.81
9.18
9.16
8.85
8.45
8.19
8.16
8.38
8.72
8.97
8.94
8.47
7.48
6.02
4.29
2.68
1.72
1.97
3.80
7.32
12.22
17.87
23.41
27.97
30.91
31.93
31.09
28.72
25.30
21.32
17.19
13.24
9.74
6.90
4.86
3.62
3.02
2.77
2.54
2.11
1.41
0.52
-0.49
-1.59
-2.84
-4.27
-5.82
-7.31
-8.46
-9.10
-9.19
-8.96
-8.74
-8.92
-9.74
-11.28
-13.36
-15.55
-17.23
-17.70
-16.44
-13.22
-8.28
-2.25
4.04
9.73
14.15
16.92
18.01
17.57
15.99
13.66
10.98
8.24
5.63
3.21
1.01
-0.95
-2.63
-3.95
-4.81
-5.17
-5.01
-4.45
-3.67
-2.96
-2.62
-2.89
-3.79
-5.23
-6.97
-8.78
-10.55
-12.26
-14.05
-16.07
-18.42
-21.04
-23.61
-25.56
-26.10
-24.53
-20.38
-13.70
-5.16
4.08
12.75
19.72
24.38
26.66
26.91
25.67
23.46
20.65
17.51
14.26
11.22
8.66
6.77
5.57
4.88
4.39
3.90
3.33
2.77
2.35
2.08
1.84
1.37
0.40
-1.19
-3.36
-5.89
-8.43
-10.70
-12.47
-13.75
-14.77
-15.92
-17.56
-19.79
-22.25
-24.14
-24.44
-22.24
-17.22
-9.75
-0.89
7.96
15.54
21.05
24.26
25.40
24.87
23.05
20.21
16.62
12.61
8.64
5.18
2.55
0.88
0.04
-0.22
-0.15
0.09
0.41
0.77
1.08
1.23
1.06
0.44
-0.71
-2.34
-4.29
-6.30
-8.12
-9.53
-10.52
-11.23
-11.92
-12.90
-14.39
-16.38
-18.54
-20.24
-20.71
-19.17
-15.18
-8.84
-0.84
7.71
15.53
21.62
25.47
27.08
26.84
25.30
22.88
19.90
16.57
13.03
9.50
6.23
3.45
1.34
-0.04
-0.76
-0.98
-0.90
-0.70
-0.55
-0.53
-0.71
-1.16
-1.92
-3.03
-4.45
-6.11
-7.85
-9.52
-11.04
-12.45
-13.90
-15.53
-17.46
-19.54
-21.42
-22.43
-21.84
-19.01
-13.72
-6.36
2.08
10.23
16.81
20.94
22.41
21.58
19.12
15.74
11.96
8.08
4.24
0.56
-2.88
-5.97
-8.67
-10.94
-12.75
-14.09
-14.98
-15.52
-15.85
-16.20
-16.66
-17.28
-17.99
-18.64
-19.13
-19.50
-19.91
-20.59
-21.75
-23.47
-25.62
-27.81
-29.42
-29.69
-27.85
-23.39
-16.22
-6.79
4.08
15.30
25.86
34.95
42.08
46.98
49.55
49.78
47.76
43.72
38.08
31.44
24.57
18.22
13.08
9.52
7.54
6.75
6.48
5.95
4.62
2.22
-1.11
-5.01
-9.09
-12.98
-16.50
-19.59
-22.27
-24.65
-26.84
-28.91
-30.71
-31.86
-31.65
-29.26
-24.08
-16.01
-5.69
5.60
16.27
24.94
30.70
33.39
33.41
31.48
28.33
24.59
20.65
16.75
13.03
9.56
6.41
3.58
1.04
-1.38
-3.85
-6.60
-9.70
-13.05
-16.32
-19.05
-20.81
-21.36
-20.80
-19.55
-18.18
-17.27
-17.24
-18.20
-19.98
-22.14
-24.01
-24.79
-23.64
-19.88
-13.19
-3.85
7.24
18.76
29.26
37.49
42.76
44.99
44.58
42.17
38.39
33.75
28.66
23.50
18.65
14.54
11.48
9.59
8.72
8.48
8.43
8.15
7.45
6.31
4.86
3.23
1.49
-0.36
-2.37
-4.53
-6.80
-9.17
-11.70
-14.55
-17.93
-21.86
-26.00
-29.63
-31.74
-31.37
-27.96
-21.62
-13.14
-3.80
5.02
12.22
17.18
19.83
20.46
19.51
17.37
14.35
10.63
6.43
2.07
-2.03
-5.40
-7.70
-8.77
-8.81
-8.28
-7.73
-7.67
-8.35
-9.72
-11.47
-13.21
-14.71
-15.98
-17.33
-19.24
-22.12
-26.18
-31.23
-36.66
-41.49
-44.49
-44.51
-40.68
-32.80
-21.41
-7.76
6.46
19.66
30.75
39.38
45.74
50.26
53.09
54.04
52.70
48.81
42.65
35.07
27.30
20.44
15.06
11.08
8.01
5.23
2.38
-0.48
-3.03
-4.92
-6.05
-6.66
-7.29
-8.55
-10.94
-14.70
-19.73
-25.55
-31.31
-35.93
-38.28
-37.50
-33.30
-26.12
-17.04
-7.46
1.28
8.27
13.06
15.59
15.95
14.22
10.41
4.58
-2.99
-11.73
-20.81
-29.33
-36.54
-42.06
-45.98
-48.77
-51.06
-53.38
-55.96
-58.67
-61.29
-63.62
-65.70
-67.79
-70.22
-73.23
-76.91
-81.12
-85.58
-89.73
-92.76
-93.55
-90.86
-83.66
-71.47
-54.57
-34.00
-11.31
11.86
34.05
54.04
70.97
84.31
93.90
100.02
103.33
104.65
104.81
104.49
104.11
103.96
104.25
105.09
106.51
108.45
110.80
113.43
116.26
119.14
121.72
123.35
123.03
119.64
112.18
100.17
83.74
63.64
41.07
17.58
-5.13
-25.27
-41.08
-51.08
-54.42
-51.07
-41.93
-28.65
-13.26
2.31
16.48
28.26
37.05
42.55
44.69
43.53
39.38
32.81
24.62
15.68
6.74
-1.72
-9.49
-16.57
-23.01
-28.83
-33.91
-38.10
-41.32
-43.64
-45.28
-46.55
-47.73
-49.05
-50.59
-52.40
-54.38
-56.33
-57.70
-57.71
-55.42
-50.17
-41.81
-30.96
-18.83
-6.83
3.81
12.33
18.50
22.38
24.15
24.02
22.27
19.30
15.72
12.16
9.16
7.03
5.74
5.08
4.66
4.16
3.34
2.18
0.89
-0.18
-0.70
-0.54
0.10
0.71
0.52
-1.20
-4.89
-10.53
-17.46
-24.44
-29.94
-32.49
-31.19
-25.98
-17.71
-7.79
2.21
11.10
18.20
23.34
26.49
27.64
26.68
23.56
18.48
12.01
5.13
-1.09
-5.76
-8.43
-9.25
-8.74
-7.63
-6.47
-5.53
-4.76
-3.99
-3.11
-2.30
-1.98
-2.71
-4.98
-8.93
-14.18
-19.71
-24.05
-25.53
-22.82
-15.33
-3.46
11.37
27.16
41.68
53.00
59.69
61.00
56.91
48.11
36.00
22.43
9.37
-1.47
-9.08
-13.22
-14.40
-13.65
-12.16
-10.99
-10.82
-11.87
-13.87
-16.22
-18.21
-19.37
-19.54
-18.95
-18.13
-17.63
-17.91
-19.22
-21.46
-24.17
-26.49
-27.29
-25.42
-20.11
-11.33
0.12
12.72
24.69
34.55
41.44
45.29
46.53
45.78
43.52
40.08
35.74
30.88
25.99
21.52
17.59
13.91
9.88
4.94
-1.02
-7.62
-14.15
-19.92
-24.59
-28.20
-31.06
-33.41
-35.32
-36.77
-37.80
-38.71
-40.02
-42.17
-45.27
-48.86
-51.95
-53.22
-51.48
-46.04
-36.94
-25.00
-11.59
1.78
13.71
23.30
30.15
34.32
36.08
35.84
33.97
30.87
26.96
22.69
18.51
14.83
11.89
9.80
8.55
8.02
8.06
8.44
8.82
8.80
8.01
6.23
3.48
0.06
-3.62
-7.16
-10.37
-13.27
-16.07
-19.05
-22.47
-26.40
-30.68
-34.81
-37.92
-38.81
-36.36
-29.89
-19.53
-6.41
7.64
20.62
30.93
37.76
41.18
41.80
40.42
37.69
34.05
29.79
25.17
20.56
16.33
12.80
10.13
8.24
6.99
6.22
5.91
6.05
6.63
7.41
8.01
7.88
6.65
4.20
0.77
-3.16
-7.08
-10.61
-13.64
-16.28
-18.82
-21.67
-25.19
-29.59
-34.70
-39.87
-43.97
-45.61
-43.52
-37.02
-26.39
-12.82
1.80
15.48
26.61
34.37
38.70
40.13
39.34
36.97
33.44
29.08
24.31
19.61
15.52
12.41
10.40
9.31
8.82
8.70
8.82
9.27
10.10
11.29
12.56
13.46
13.51
12.39
10.07
6.89
3.38
0.14
-2.43
-4.24
-5.53
-6.83
-8.84
-12.16
-17.15
-23.59
-30.58
-36.67
-40.20
-39.87
-35.29
-27.15
-16.98
-6.67
2.21
8.75
12.76
14.53
14.48
12.96
10.29
6.85
3.11
-0.35
-3.00
-4.49
-4.73
-3.93
-2.48
-0.88
0.39
0.90
0.44
-0.95
-3.02
-5.37
-7.64
-9.64
-11.41
-13.13
-15.06
-17.37
-20.12
-23.25
-26.61
-29.87
-32.50
-33.79
-32.86
-29.08
-22.21
-12.68
-1.53
9.84
19.96
27.65
32.24
33.56
31.96
28.16
23.09
17.74
12.87
8.94
6.04
4.04
2.81
2.27
2.47
3.43
5.08
7.07
8.88
9.99
9.97
8.70
6.32
3.23
-0.12
-3.34
-6.28
-9.05
-11.97
-15.46
-19.74
-24.72
-29.88
-34.25
-36.59
-35.72
-30.93
-22.23
-10.47
2.85
15.96
27.32
35.94
41.47
44.11
44.22
42.23
38.50
33.46
27.64
21.71
16.35
12.00
8.81
6.57
4.97
3.78
2.90
2.38
2.20
2.18
1.92
0.99
-0.91
-3.75
-7.18
-10.64
-13.62
-15.82
-17.26
-18.23
-19.14
-20.33
-21.99
-24.08
-26.34
-28.25
-29.19
-28.42
-25.39
-19.79
-11.82
-2.18
8.00
17.46
25.10
30.21
32.63
32.59
30.63
27.32
23.25
18.84
14.49
10.50
7.08
4.35
2.27
0.75
-0.29
-0.87
-0.94
-0.46
0.53
1.79
2.94
3.57
3.39
2.33
0.59
-1.51
-3.59
-5.43
-6.99
-8.45
-10.20
-12.67
-16.21
-20.82
-25.96
-30.58
-33.17
-32.29
-26.96
-17.13
-3.75
11.44
26.40
39.34
49.09
55.14
57.47
56.30
51.90
44.75
35.56
25.46
15.78
7.81
2.41
-0.14
-0.11
1.91
5.25
9.22
13.00
15.64
16.15
13.90
8.87
1.78
-6.12
-13.55
-19.62
-23.98
-26.73
-28.20
-28.72
-28.60
-28.26
-28.22
-28.93
-30.47
-32.39
-33.68
-33.12
-29.81
-23.55
-14.97
-5.38
3.69
10.99
15.82
18.13
18.31
16.95
14.54
11.44
7.86
3.98
0.09
-3.43
-6.17
-7.82
-8.29
-7.72
-6.44
-4.88
-3.41
-2.28
-1.58
-1.32
-1.43
-1.87
-2.61
-3.65
-5.01
-6.72
-8.78
-11.26
-14.14
-17.32
-20.55
-23.29
-24.82
-24.39
-21.48
-16.05
-8.75
-0.65
6.97
13.05
17.01
18.78
18.64
16.99
14.19
10.49
6.15
1.51
-3.02
-7.06
-10.38
-12.96
-14.94
-16.48
-17.71
-18.65
-19.37
-19.94
-20.55
-21.45
-22.80
-24.61
-26.74
-29.02
-31.37
-33.91
-36.85
-40.41
-44.52
-48.72
-52.22
-54.05
-53.38
-49.63
-42.59
-32.42
-19.52
-4.66
11.18
26.66
40.32
50.82
57.35
59.81
58.91
55.80
51.79
47.89
44.60
42.02
39.92
38.14
36.57
35.32
34.50
34.23
34.48
35.15
36.11
37.25
38.52
39.84
41.18
42.42
43.35
43.74
43.22
41.42
37.92
32.28
24.21
13.75
1.32
-12.17
-25.51
-37.33
-46.36
-51.70
-52.90
-50.08
-43.81
-35.13
-25.26
-15.53
-7.09
-0.79
2.91
3.98
2.66
-0.54
-5.03
-10.16
-15.23
-19.61
-22.76
-24.39
-24.46
-23.16
-20.83
-17.81
-14.38
-10.78
-7.26
-4.17
-1.97
-1.11
-1.86
-4.13
-7.47
-11.12
-14.32
-16.53
-17.66
-18.09
-18.51
-19.69
-22.17
-26.13
-31.21
-36.49
-40.63
-42.19
-40.01
-33.55
-23.25
-10.44
3.00
15.11
24.47
30.47
33.30
33.69
32.58
30.77
28.89
27.28
26.05
25.19
24.54
23.91
23.18
22.25
21.15
19.96
18.67
17.24
15.50
13.23
10.23
6.41
1.90
-2.91
-7.46
-11.15
-13.64
-14.99
-15.77
-16.83
-18.98
-22.65
-27.67
-33.23
-38.04
-40.68
-39.98
-35.44
-27.44
-17.20
-6.43
3.15
10.31
14.58
16.16
15.67
13.71
10.68
6.84
2.38
-2.30
-6.61
-9.81
-11.29
-10.64
-7.89
-3.36
2.34
8.49
14.43
19.67
23.87
26.82
28.38
28.39
26.78
23.58
19.08
13.79
8.37
3.56
0.03
-1.66
-1.12
1.79
6.80
13.18
19.78
25.27
28.60
29.17
27.17
23.27
18.48
13.73
9.76
7.09
5.94
6.37
8.09
10.56
12.98
14.54
14.54
12.65
8.98
4.05
-1.40
-6.58
-10.92
-14.17
-16.36
-17.81
-18.87
-19.81
-20.73
-21.60
-22.37
-23.18
-24.46
-26.84
-30.93
-36.90
-44.13
-51.19
-56.06
-56.87
-52.54
-43.20
-30.26
-15.81
-1.99
9.56
17.92
22.93
24.89
24.38
22.07
18.62
14.67
10.74
7.25
4.49
2.69
1.91
2.08
2.98
4.23
5.41
6.14
6.21
5.57
4.28
2.47
0.29
-2.20
-4.95
-7.97
-11.30
-14.96
-18.97
-23.42
-28.35
-33.67
-38.91
-43.12
-44.98
-43.18
-37.02
-26.79
-13.86
-0.19
12.33
22.42
29.74
34.56
37.36
38.45
37.85
35.50
31.52
26.33
20.64
15.25
10.78
7.55
5.48
4.30
3.63
3.20
2.83
2.43
1.92
1.07
-0.41
-2.80
-6.27
-10.70
-15.82
-21.27
-26.73
-32.07
-37.35
-42.74
-48.42
-54.37
-60.12
-64.75
-66.87
-65.00
-57.96
-45.27
-27.25
-4.93
20.21
46.58
72.62
96.91
118.13
135.25
147.60
155.05
158.02
157.45
154.36
149.64
143.70
136.50
127.59
116.45
102.80
86.87
69.42
51.63
34.73
19.68
6.97
-3.45
-11.98
-19.12
-25.23
-30.44
-34.71
-37.93
-40.06
-41.15
-41.39
-41.06
-40.47
-40.03
-40.21
-41.50
-44.10
-47.69
-51.25
-53.18
-51.85
-46.23
-36.45
-23.85
-10.63
0.91
9.11
13.33
13.93
11.92
8.38
4.14
-0.34
-4.91
-9.48
-13.87
-17.86
-21.18
-23.69
-25.43
-26.51
-27.06
-27.16
-26.84
-26.16
-25.37
-24.89
-25.21
-26.64
-29.20
-32.53
-36.10
-39.36
-42.02
-44.11
-45.99
-48.17
-51.13
-55.09
-59.70
-64.07
-66.76
-66.13
-60.97
-50.88
-36.64
-20.01
-3.23
11.68
23.38
31.48
36.34
38.63
39.03
37.97
35.71
32.43
28.41
24.09
19.99
16.60
14.25
13.04
12.79
13.12
13.55
13.65
13.07
11.63
9.33
6.25
2.61
-1.33
-5.31
-9.12
-12.71
-16.28
-20.27
-25.25
-31.62
-39.18
-46.98
-53.36
-56.42
-54.72
-47.87
-36.64
-22.75
-8.14
5.62
17.72
28.01
36.63
43.62
48.84
52.06
53.24
52.68
50.95
48.73
46.56
44.71
43.21
41.99
41.04
40.44
40.36
40.86
41.83
42.85
43.24
42.34
39.70
35.19
29.11
22.04
14.58
7.20
0.09
-6.86
-13.89
-21.28
-29.17
-37.38
-45.24
-51.60
-54.97
-53.95
-47.85
-36.99
-22.77
-7.24
7.61
20.34
30.34
37.63
42.50
45.16
45.65
44.00
40.48
35.73
30.58
25.90
22.22
19.72
18.15
17.05
16.00
14.81
13.55
12.40
11.53
10.85
10.01
8.50
5.96
2.32
-2.08
-6.61
-10.63
-13.75
-16.06
-18.03
-20.30
-23.53
-28.02
-33.58
-39.56
-44.88
-48.14
-48.01
-43.46
-34.22
-20.93
-5.08
11.33
26.33
38.39
46.73
51.16
51.97
49.62
44.64
37.63
29.37
20.71
12.50
5.39
-0.35
-4.76
-8.04
-10.36
-11.77
-12.26
-11.82
-10.60
-8.97
-7.50
-6.76
-7.21
-9.06
-12.16
-16.07
-20.15
-23.85
-26.81
-29.09
-31.05
-33.21
-35.94
-39.18
-42.40
-44.70
-45.10
-42.80
-37.44
-29.27
-19.08
-8.10
2.23
10.62
16.20
18.69
18.41
16.00
12.26
7.83
3.22
-1.26
-5.39
-8.97
-11.92
-14.20
-15.89
-17.02
-17.56
-17.31
-16.12
-13.93
-10.97
-7.67
-4.57
-2.13
-0.53
0.26
0.47
0.23
-0.49
-1.95
-4.47
-8.23
-13.06
-18.23
-22.66
-25.12
-24.55
-20.47
-13.09
-3.30
7.56
17.96
26.66
32.82
36.12
36.69
34.98
31.53
26.82
21.29
15.31
9.29
3.70
-1.00
-4.40
-6.32
-6.83
-6.26
-5.09
-3.83
-2.85
-2.35
-2.36
-2.78
-3.62
-4.93
-6.89
-9.65
-13.37
-18.02
-23.51
-29.58
-35.75
-41.31
-45.24
-46.43
-43.94
-37.37
-27.14
-14.51
-1.31
10.55
19.55
24.83
26.34
24.60
20.47
14.93
8.76
2.50
-3.55
-9.32
-14.77
-19.83
-24.40
-28.41
-31.84
-34.71
-36.91
-38.08
-37.67
-35.14
-30.34
-23.74
-16.51
-10.16
-6.07
-5.09
-7.32
-12.30
-19.29
-27.54
-36.25
-44.50
-51.06
-54.45
-53.38
-47.23
-36.49
-22.73
-8.12
5.33
16.51
25.46
33.15
40.76
48.98
57.63
65.74
72.04
75.54
75.89
73.42
68.91
63.22
57.02
50.71
44.52
38.64
33.26
28.56
24.63
21.31
18.27
15.03
11.13
6.29
0.52
-5.91
-12.54
-18.91
-24.79
-30.27
-35.75
-41.79
-48.70
-56.30
-63.65
-69.13
-70.63
-66.14
-54.22
-34.65
-8.74
20.82
50.48
76.70
96.89
109.98
116.46
118.03
116.85
115.01
114.07
114.69
116.30
116.85
113.21
102.18
82.13
54.11
22.05
-8.61
-32.99
-48.61
-56.03
-57.91
-57.29
-56.07
-54.61
-52.42
-49.26
-45.81
-43.53
-43.83
-47.37
-53.72
-61.62
-69.49
-75.83
-79.59
-80.10
-77.01
-70.27
-59.95
-46.32
-29.88
-11.49
7.68
26.05
41.93
53.92
61.30
64.27
63.96
62.02
60.08
59.42
60.58
63.35
66.73
69.15
68.83
64.37
55.35
42.70
28.45
15.02
4.26
-3.14
-7.78
-10.89
-13.63
-16.51
-19.36
-21.74
-23.37
-24.42
-25.43
-27.09
-30.06
-34.81
-41.55
-49.99
-59.11
-67.18
-72.16
-72.34
-67.13
-57.29
-44.63
-31.29
-18.92
-8.35
0.19
6.69
10.92
12.48
11.16
7.27
1.84
-3.69
-7.92
-10.05
-10.03
-8.49
-6.36
-4.55
-3.68
-3.92
-5.13
-6.93
-8.92
-10.77
-12.36
-13.92
-15.91
-18.97
-23.70
-30.26
-38.11
-45.87
-51.51
-52.92
-48.61
-38.18
-22.69
-4.24
14.60
31.56
45.11
54.65
60.24
62.33
61.39
57.93
52.44
45.52
37.84
30.10
22.96
16.88
12.15
8.82
6.66
5.23
3.96
2.26
-0.18
-3.41
-7.21
-11.19
-15.04
-18.67
-22.20
-25.91
-30.20
-35.36
-41.51
-48.34
-54.99
-59.92
-61.28
-57.35
-47.27
-31.49
-11.70
9.57
29.76
46.94
60.10
69.00
73.85
74.95
72.63
67.33
59.73
50.80
41.64
33.24
26.29
21.11
17.57
15.34
13.93
12.85
11.69
10.20
8.23
5.74
2.77
-0.63
-4.46
-8.76
-13.72
-19.63
-26.84
-35.50
-45.36
-55.43
-64.09
-69.24
-68.97
-62.14
-48.79
-30.28
-8.86
12.81
32.37
48.10
59.19
65.61
67.91
66.96
63.66
58.82
52.98
46.47
39.56
32.55
25.87
20.09
15.75
13.08
11.94
11.80
11.92
11.62
10.51
8.49
5.73
2.47
-1.04
-4.58
-8.05
-11.52
-15.28
-20.05
-26.71
-36.00
-47.91
-61.22
-73.45
-81.45
-82.39
-74.80
-59.19
-37.89
-14.30
8.18
27.05
41.09
50.21
54.97
56.15
54.40
50.28
44.33
37.24
29.80
22.83
16.99
12.61
9.66
7.83
6.65
5.70
4.71
3.56
2.24
0.79
-0.80
-2.54
-4.45
-6.52
-8.80
-11.47
-14.87
-19.45
-25.51
-32.92
-40.80
-47.53
-51.08
-49.57
-41.97
-28.48
-10.57
9.44
28.98
45.79
58.28
65.64
67.74
65.01
58.31
48.87
38.00
27.00
16.87
8.25
1.45
-3.57
-6.97
-9.04
-10.05
-10.32
-10.14
-9.80
-9.54
-9.55
-10.01
-11.06
-12.77
-15.15
-18.11
-21.55
-25.39
-29.68
-34.53
-39.93
-45.48
-50.19
-52.55
-50.90
-44.02
-31.76
-15.24
3.41
21.64
37.30
49.13
56.81
60.68
61.32
59.25
54.86
48.56
40.86
32.44
23.99
16.15
9.38
4.01
0.16
-2.23
-3.41
-3.89
-4.23
-4.98
-6.42
-8.62
-11.46
-14.72
-18.26
-21.99
-25.83
-29.75
-33.77
-38.11
-43.14
-49.17
-56.01
-62.73
-67.62
-68.64
-64.21
-53.89
-38.66
-20.59
-2.18
14.50
28.17
38.50
45.63
49.88
51.47
50.54
47.37
42.38
36.19
29.50
22.94
17.01
12.10
8.43
6.01
4.64
3.90
3.34
2.54
1.30
-0.44
-2.63
-5.20
-8.12
-11.36
-14.90
-18.71
-22.87
-27.53
-32.79
-38.37
-43.38
-46.26
-45.23
-38.87
-26.82
-10.07
9.30
28.73
45.94
59.45
68.64
73.50
74.29
71.31
64.92
55.79
44.93
33.70
23.41
15.05
9.01
5.04
2.53
0.73
-0.95
-2.80
-4.84
-6.95
-8.93
-10.73
-12.40
-14.18
-16.39
-19.36
-23.34
-28.42
-34.41
-40.75
-46.49
-50.34
-50.85
-46.90
-38.07
-25.01
-9.34
6.70
20.97
31.96
39.10
42.55
42.94
40.99
37.36
32.67
27.56
22.65
18.42
15.07
12.43
10.16
7.90
5.48
2.99
0.61
-1.38
-2.83
-3.67
-3.98
-3.93
-3.79
-3.86
-4.44
-5.56
-6.96
-8.04
-8.07
-6.51
-3.32
0.93
5.14
8.12
8.89
7.00
2.62
-3.61
-10.79
-18.01
-24.56
-29.99
-34.21
-37.39
-39.95
-42.29
-44.67
-47.11
-49.39
-51.20
-52.27
-52.58
-52.29
-51.69
-50.97
-50.20
-49.30
-48.20
-46.95
-45.75
-44.85
-44.53
-44.97
-46.17
-48.02
-50.02
-51.24
-50.33
-45.73
-36.22
-21.56
-2.80
17.87
37.76
54.65
67.38
76.04
81.52
84.81
86.49
86.58
84.78
81.01
75.74
70.01
65.13
62.21
61.71
63.35
66.31
69.45
71.58
71.51
68.17
60.64
48.55
32.36
13.49
-5.90
-23.56
-37.85
-48.13
-54.65
-58.00
-58.49
-55.84
-49.40
-38.70
-24.13
-7.07
10.33
25.85
37.84
45.62
49.44
50.07
48.34
44.75
39.54
32.83
24.90
16.26
7.52
-0.86
-8.73
-16.19
-23.45
-30.56
-37.35
-43.36
-48.02
-50.91
-51.89
-51.22
-49.51
-47.63
-46.44
-46.61
-48.31
-51.21
-54.38
-56.52
-56.30
-52.64
-45.10
-33.94
-20.14
-5.26
9.01
21.13
30.04
35.25
36.91
35.46
31.60
26.01
19.35
12.31
5.61
-0.03
-4.00
-6.10
-6.58
-6.11
-5.52
-5.56
-6.56
-8.40
-10.66
-12.81
-14.54
-15.83
-17.01
-18.57
-21.01
-24.58
-29.07
-33.67
-37.01
-37.43
-33.51
-24.68
-11.64
3.79
19.08
31.92
40.87
45.54
46.41
44.27
39.70
33.05
24.62
15.09
5.53
-2.70
-8.45
-11.21
-11.34
-9.89
-8.19
-7.39
-8.07
-10.11
-12.84
-15.35
-16.96
-17.45
-17.22
-17.10
-17.99
-20.57
-24.98
-30.72
-36.67
-41.21
-42.57
-39.23
-30.49
-16.83
0.03
17.55
33.07
44.61
51.35
53.62
52.50
49.24
44.74
39.50
33.73
27.55
21.29
15.40
10.42
6.76
4.47
3.34
2.85
2.41
1.54
0.01
-2.13
-4.63
-7.20
-9.71
-12.18
-14.74
-17.57
-20.83
-24.70
-29.36
-34.93
-41.16
-47.27
-51.78
-52.85
-48.94
-39.44
-25.17
-8.19
8.84
23.49
34.26
40.76
43.46
43.28
41.14
37.78
33.70
29.28
24.78
20.43
16.41
12.82
9.71
7.05
4.79
2.84
1.17
-0.23
-1.43
-2.62
-4.16
-6.43
-9.66
-13.75
-18.17
-22.27
-25.45
-27.59
-29.06
-30.57
-32.93
-36.70
-41.98
-48.19
-54.10
-57.88
-57.60
-51.81
-40.10
-23.47
-4.06
15.52
33.00
47.00
57.17
63.74
67.12
67.56
65.26
60.63
54.46
47.89
42.03
37.63
34.87
33.42
32.75
32.40
32.16
32.01
32.04
32.19
32.25
31.82
30.52
28.05
24.36
19.65
14.32
8.95
4.05
0.02
-3.04
-5.33
-7.46
-10.33
-14.86
-21.73
-30.91
-41.58
-51.97
-59.89
-63.28
-60.91
-52.79
-40.20
-25.27
-10.27
2.95
13.27
20.35
24.26
25.23
23.36
18.77
11.74
2.93
-6.63
-15.68
-23.00
-27.69
-29.29
-27.79
-23.51
-17.05
-9.11
-0.49
7.94
15.24
20.58
23.21
22.76
19.21
13.15
5.51
-2.48
-9.77
-15.74
-20.37
-24.19
-28.05
-32.71
-38.48
-44.99
-51.06
-54.91
-54.60
-48.71
-36.86
-19.98
-0.11
20.26
38.90
54.42
66.30
74.69
79.95
82.46
82.51
80.51
77.09
73.06
69.18
65.85
62.85
59.43
54.58
47.50
38.10
27.15
16.14
6.69
0.02
-3.61
-4.91
-5.25
-6.08
-8.37
-12.36
-17.65
-23.50
-29.23
-34.42
-39.01
-43.24
-47.41
-51.68
-55.79
-58.92
-59.80
-57.05
-49.71
-37.79
-22.46
-5.78
9.97
22.96
32.30
37.95
40.44
40.35
38.06
33.85
28.02
21.20
14.24
8.11
3.54
0.84
-0.18
0.01
0.80
1.72
2.57
3.37
4.24
5.22
6.16
6.67
6.27
4.58
1.51
-2.69
-7.39
-11.91
-15.66
-18.52
-20.75
-22.98
-25.91
-29.97
-35.11
-40.72
-45.71
-48.76
-48.67
-44.62
-36.44
-24.74
-10.83
3.58
16.73
27.23
34.33
37.87
38.23
36.07
32.10
27.05
21.54
16.18
11.39
7.52
4.68
2.84
1.86
1.56
1.77
2.47
3.59
5.08
6.83
8.53
9.86
10.36
9.76
7.96
5.21
1.98
-1.09
-3.58
-5.35
-6.67
-8.08
-10.14
-13.20
-17.24
-21.89
-26.47
-30.10
-31.86
-30.84
-26.48
-18.76
-8.46
2.99
13.76
22.18
27.26
28.79
27.33
23.80
19.15
14.08
9.09
4.44
0.38
-2.93
-5.38
-7.06
-8.17
-8.95
-9.57
-10.00
-10.04
-9.45
-8.21
-6.62
-5.28
-4.86
-5.81
-8.13
-11.32
-14.54
-16.99
-18.19
-18.24
-17.68
-17.46
-18.52
-21.57
-26.74
-33.46
-40.40
-45.72
-47.42
-43.98
-34.87
-20.83
-3.82
13.52
28.72
40.00
46.83
49.68
49.57
47.57
44.40
40.27
35.21
29.27
22.77
16.30
10.59
6.24
3.56
2.50
2.67
3.49
4.33
4.65
4.14
2.69
0.46
-2.28
-5.24
-8.22
-11.13
-14.00
-16.97
-20.23
-23.97
-28.25
-32.79
-36.72
-38.63
-36.83
-30.02
-17.91
-1.61
16.61
33.98
48.20
58.02
63.40
65.04
63.86
60.49
55.26
48.37
40.19
31.40
22.84
15.35
9.47
5.29
2.58
0.82
-0.56
-2.04
-3.91
-6.21
-8.83
-11.51
-14.03
-16.22
-18.06
-19.66
-21.30
-23.32
-26.15
-30.05
-34.98
-40.32
-44.81
-46.73
-44.38
-36.71
-23.83
-7.18
10.78
27.31
40.20
48.30
51.62
51.05
47.76
42.87
37.28
31.79
27.17
24.16
23.08
23.57
24.41
23.79
19.98
11.98
0.02
-14.52
-29.60
-43.15
-53.70
-60.63
-64.17
-65.08
-64.44
-63.29
-62.53
-62.73
-64.00
-65.81
-67.03
-66.07
-61.28
-51.57
-36.82
-18.18
2.16
21.54
37.56
48.80
54.92
56.59
54.96
51.12
45.83
39.40
31.91
23.53
14.62
5.85
-1.99
-8.22
-12.49
-14.82
-15.66
-15.63
-15.36
-15.33
-15.76
-16.70
-17.99
-19.46
-20.94
-22.38
-23.83
-25.55
-27.91
-31.33
-36.04
-41.87
-47.94
-52.62
-53.83
-49.58
-38.84
-22.07
-1.26
20.54
40.18
55.34
65.04
69.58
70.05
67.59
63.08
56.91
49.30
40.52
31.05
21.51
12.51
4.50
-2.28
-7.75
-11.85
-14.53
-15.82
-15.95
-15.38
-14.71
-14.57
-15.30
-16.92
-19.11
-21.46
-23.69
-25.81
-28.20
-31.46
-36.13
-42.39
-49.65
-56.45
-60.57
-59.65
-51.99
-37.27
-16.89
6.32
28.96
48.02
61.65
69.34
71.66
69.71
64.70
57.74
49.87
42.19
35.73
31.31
29.18
29.02
29.94
30.91
31.17
30.51
29.37
28.52
28.64
29.90
31.81
33.38
33.55
31.73
28.04
23.25
18.50
14.77
12.49
11.31
10.20
7.69
2.28
-7.10
-20.57
-36.93
-53.67
-67.42
-74.88
-73.93
-64.45
-48.41
-29.24
-10.62
4.61
15.11
20.93
22.89
21.99
18.93
14.15
8.08
1.40
-5.00
-10.21
-13.57
-14.93
-14.67
-13.49
-12.10
-10.93
-10.03
-9.09
-7.67
-5.58
-3.03
-0.76
0.20
-1.13
-5.23
-11.86
-20.13
-28.72
-36.44
-42.49
-46.84
-49.95
-52.65
-55.66
-59.44
-64.18
-69.74
-75.71
-81.15
-84.56
-83.94
-77.38
-63.84
-43.82
-19.54
5.65
28.21
45.56
56.64
61.93
62.80
61.00
58.08
55.29
53.61
53.67
55.81
59.80
64.83
69.52
72.40
72.19
68.29
61.00
51.32
40.70
30.40
21.23
13.30
6.27
-0.32
-6.75
-12.94
-18.66
-23.65
-27.86
-31.40
-34.39
-36.79
-38.44
-39.25
-39.38
-39.45
-40.30
-42.68
-46.90
-52.52
-58.51
-63.44
-65.97
-65.01
-60.03
-51.11
-38.97
-24.93
-10.60
2.47
13.25
21.39
27.22
31.27
34.01
35.56
35.92
35.25
34.03
32.96
32.62
33.07
33.81
34.10
33.38
31.58
29.09
26.38
23.55
20.23
15.79
9.84
2.55
-5.29
-12.65
-18.71
-23.27
-26.75
-29.98
-33.79
-38.71
-44.83
-51.80
-58.98
-65.47
-70.28
-72.37
-70.85
-65.28
-55.96
-44.03
-31.32
-19.80
-10.92
-5.10
-1.57
1.21
4.84
10.24
17.47
25.85
34.48
42.72
50.34
57.40
63.85
69.52
74.01
77.07
78.74
79.33
79.28
78.82
77.85
75.97
72.62
67.41
60.16
51.05
40.45
28.80
16.44
3.72
-9.02
-21.26
-32.12
-40.46
-44.98
-44.68
-39.27
-29.40
-16.63
-3.05
9.35
19.16
25.81
29.47
30.69
30.09
28.06
24.86
20.71
15.93
10.99
6.36
2.43
-0.62
-2.78
-4.12
-4.64
-4.36
-3.36
-1.86
-0.35
0.61
0.45
-1.07
-3.90
-7.72
-12.12
-16.78
-21.56
-26.59
-32.13
-38.47
-45.69
-53.47
-60.91
-66.50
-68.44
-65.22
-56.19
-41.97
-24.33
-5.66
11.81
26.57
38.09
46.43
51.98
55.01
55.62
53.91
50.19
45.03
39.15
33.20
27.65
22.64
18.18
14.23
10.85
8.21
6.43
5.49
5.08
4.63
3.54
1.38
-1.94
-6.10
-10.61
-15.00
-19.08
-22.98
-27.17
-32.20
-38.49
-46.13
-54.59
-62.64
-68.51
-70.23
-66.25
-56.07
-40.46
-21.34
-1.14
17.88
34.15
46.95
56.15
61.93
64.49
64.10
61.10
56.04
49.69
42.82
36.11
30.00
24.76
20.45
17.04
14.51
12.75
11.67
11.06
10.63
9.94
8.55
6.04
2.34
-2.35
-7.54
-12.64
-17.26
-21.37
-25.33
-29.80
-35.43
-42.50
-50.60
-58.58
-64.65
-66.84
-63.64
-54.49
-40.04
-22.05
-2.82
15.46
31.13
43.37
51.95
57.07
59.00
58.08
54.66
49.22
42.38
34.89
27.51
20.89
15.54
11.68
9.29
8.09
7.67
7.56
7.40
6.86
5.74
3.86
1.12
-2.50
-6.84
-11.60
-16.51
-21.44
-26.57
-32.25
-38.77
-45.89
-52.57
-57.04
-57.38
-52.17
-41.20
-25.68
-7.81
9.95
25.59
38.02
47.04
52.96
56.18
56.93
55.33
51.55
45.97
39.18
31.85
24.55
17.57
11.01
4.79
-1.08
-6.55
-11.41
-15.52
-18.81
-21.36
-23.39
-25.17
-26.97
-29.06
-31.70
-35.20
-39.82
-45.72
-52.70
-60.04
-66.38
-69.97
-69.02
-62.40
-50.04
-33.11
-13.76
5.58
22.75
36.45
46.16
52.04
54.49
53.96
50.84
45.57
38.73
31.03
23.25
16.19
10.45
6.40
4.12
3.31
3.44
3.85
3.94
3.26
1.67
-0.82
-4.08
-7.89
-12.15
-16.78
-21.78
-27.28
-33.48
-40.57
-48.59
-57.11
-65.06
-70.79
-72.34
-68.12
-57.44
-40.88
-20.24
1.95
23.10
41.15
54.91
64.07
68.90
69.94
67.84
63.27
56.96
49.76
42.51
35.97
30.61
26.61
23.92
22.35
21.67
21.68
22.15
22.72
22.96
22.33
20.47
17.23
12.82
7.69
2.38
-2.81
-7.93
-13.39
-19.89
-28.07
-38.28
-50.20
-62.64
-73.64
-80.77
-81.74
-75.13
-60.95
-40.72
-17.16
6.60
27.86
44.90
57.08
64.66
68.29
68.75
66.78
63.06
58.30
53.30
48.74
45.06
42.27
39.92
37.27
33.57
28.48
22.19
15.52
9.48
4.91
2.06
0.46
-0.87
-2.97
-6.52
-11.59
-17.58
-23.67
-29.05
-33.38
-36.77
-39.70
-42.86
-46.81
-52.01
-58.58
-66.21
-73.91
-80.03
-82.40
-79.05
-68.92
-52.49
-31.84
-9.99
10.03
26.11
37.56
44.77
48.67
50.08
49.49
47.10
43.24
38.48
33.63
29.42
26.33
24.42
23.55
23.47
23.94
24.76
25.56
25.83
25.00
22.62
18.54
13.00
6.50
-0.40
-7.23
-13.73
-19.72
-25.07
-29.59
-33.11
-35.67
-37.50
-39.11
-41.14
-44.13
-48.35
-53.65
-59.33
-64.24
-66.84
-65.56
-59.27
-47.69
-31.70
-13.16
5.57
22.27
35.48
44.65
49.98
51.99
51.19
48.04
42.99
36.73
30.13
24.11
19.31
15.97
13.89
12.66
11.91
11.48
11.41
11.89
13.04
14.76
16.67
18.20
18.73
17.84
15.41
11.74
7.36
2.97
-0.97
-4.23
-6.98
-9.62
-12.63
-16.34
-20.77
-25.54
-29.84
-32.55
-32.43
-28.51
-20.44
-8.66
5.57
20.48
34.22
45.32
52.79
56.17
55.40
50.69
42.56
31.93
20.06
8.38
-1.79
-9.62
-14.85
-17.77
-18.97
-19.04
-18.46
-17.51
-16.41
-15.42
-14.87
-15.03
-16.01
-17.68
-19.68
-21.63
-23.28
-24.64
-25.99
-27.79
-30.42
-33.99
-38.19
-42.13
-44.56
-44.07
-39.59
-30.80
-18.37
-3.95
10.38
22.67
31.68
37.07
39.24
38.93
36.87
33.54
29.32
24.54
19.64
15.09
11.31
8.51
6.74
5.89
5.77
6.17
6.80
7.35
7.49
7.02
5.89
4.23
2.32
0.46
-1.16
-2.51
-3.78
-5.41
-7.99
-12.10
-18.06
-25.64
-33.91
-41.36
-46.27
-47.17
-43.31
-34.85
-22.85
-8.94
5.07
17.58
27.38
33.80
36.72
36.49
33.89
30.02
26.07
23.09
21.82
22.46
24.71
27.91
31.35
34.57
37.42
40.13
43.01
46.27
49.84
53.31
55.98
56.91
54.96
48.97
37.96
21.52
0.23
-24.30
-49.63
-73.06
-92.35
-106.00
-113.30
-113.99
-108.03
-95.63
-77.63
-55.90
-33.34
-13.36
1.09
8.45
8.98
4.51
-2.40
-9.37
-14.91
-18.53
-20.43
-21.13
-21.08
-20.54
-19.70
-18.69
-17.69
-16.81
-16.09
-15.39
-14.52
-13.33
-11.78
-10.05
-8.41
-7.24
-6.84
-7.38
-8.81
-10.93
-13.54
-16.57
-20.16
-24.57
-29.96
-36.12
-42.33
-47.24
-49.29
-47.12
-40.05
-28.46
-13.71
2.14
16.91
28.82
36.92
41.09
41.90
40.20
36.92
32.81
28.48
24.48
21.25
19.09
18.02
17.83
18.08
18.40
18.57
18.62
18.70
18.89
19.00
18.61
17.18
14.36
10.17
5.03
-0.37
-5.40
-9.71
-13.34
-16.72
-20.43
-25.03
-30.76
-37.38
-44.03
-49.15
-50.86
-47.49
-38.18
-23.42
-5.09
14.04
31.16
44.19
52.28
55.68
55.33
52.26
47.33
41.10
34.02
26.57
19.38
13.07
8.10
4.71
2.86
2.31
2.71
3.63
4.66
5.41
5.59
5.03
3.72
1.73
-0.81
-3.79
-7.19
-11.03
-15.43
-20.60
-26.68
-33.64
-40.97
-47.54
-51.61
-51.31
-45.32
-33.50
-17.21
1.15
18.80
33.56
44.29
50.95
54.10
54.49
52.64
48.86
43.44
36.84
29.70
22.77
16.76
12.13
9.06
7.45
6.89
6.77
6.42
5.34
3.35
0.65
-2.35
-5.23
-7.84
-10.34
-13.20
-16.94
-21.92
-28.27
-35.74
-43.70
-51.08
-56.35
-57.76
-53.70
-43.43
-27.55
-8.07
12.08
29.96
43.44
51.81
55.55
55.81
53.79
50.22
45.38
39.37
32.41
25.05
18.07
12.25
8.07
5.62
4.55
4.22
4.01
3.43
2.22
0.34
-2.16
-5.26
-8.95
-13.21
-17.97
-23.06
-28.35
-33.87
-39.88
-46.75
-54.66
-63.19
-71.04
-76.09
-76.02
-69.15
-55.20
-35.59
-13.09
9.07
28.19
42.69
52.30
57.53
59.22
58.08
54.65
49.42
43.05
36.32
29.97
24.48
19.91
16.01
12.39
8.81
5.33
2.21
-0.21
-1.83
-2.87
-3.80
-5.13
-7.19
-9.96
-13.06
-16.04
-18.54
-20.57
-22.58
-25.33
-29.70
-36.35
-45.41
-56.05
-66.48
-74.09
-76.12
-70.50
-56.67
-35.91
-11.09
14.20
36.75
54.50
66.90
74.48
78.23
78.98
77.20
73.12
67.06
59.66
51.86
44.67
38.83
34.59
31.72
29.73
28.15
26.72
25.45
24.48
23.83
23.27
22.26
20.08
16.14
10.18
2.50
-6.08
-14.52
-21.91
-27.81
-32.37
-36.26
-40.33
-45.43
-52.06
-60.27
-69.42
-78.18
-84.54
-86.19
-81.22
-68.69
-49.19
-24.74
1.74
27.21
49.27
66.50
78.38
85.00
86.72
84.06
77.72
68.74
58.41
48.09
38.85
31.26
25.37
20.90
17.45
14.82
13.08
12.34
12.63
13.57
14.49
14.54
13.05
9.80
5.06
-0.51
-6.14
-11.22
-15.55
-19.29
-22.93
-27.05
-32.16
-38.51
-45.98
-53.87
-60.86
-65.20
-65.06
-59.22
-47.49
-31.03
-12.02
6.91
23.44
36.13
44.52
48.98
50.23
49.03
45.94
41.39
35.74
29.40
22.90
16.77
11.52
7.49
4.83
3.39
2.81
2.64
2.43
1.94
1.02
-0.41
-2.48
-5.36
-9.24
-14.16
-19.94
-26.32
-33.00
-39.98
-47.36
-55.31
-63.50
-70.84
-75.55
-75.46
-68.93
-55.40
-35.89
-12.71
11.10
32.67
50.00
62.21
69.46
72.57
72.53
70.20
66.25
61.19
55.46
49.56
43.98
39.17
35.49
33.15
32.14
32.27
33.09
33.97
34.15
32.82
29.19
22.67
12.90
-0.12
-15.84
-33.21
-50.85
-67.25
-81.33
-92.63
-101.24
-107.49
-111.26
-111.75
-107.58
-97.52
-81.31
-60.20
-36.78
-14.21
4.84
18.98
28.22
33.55
36.14
36.81
35.86
33.31
29.24
24.12
18.65
13.55
9.32
6.06
3.65
1.79
0.34
-0.72
-1.38
-1.70
-1.99
-2.73
-4.49
-7.64
-12.22
-17.84
-23.91
-29.89
-35.56
-41.16
-47.25
-54.48
-63.15
-72.79
-82.01
-88.56
-90.01
-84.46
-71.32
-51.67
-27.99
-3.39
19.33
38.31
52.80
62.84
68.76
70.90
69.65
65.54
59.49
52.62
46.00
40.28
35.61
31.74
28.37
25.33
22.79
20.99
20.00
19.57
19.01
17.40
14.02
8.53
1.24
-7.05
-15.35
-22.85
-29.22
-34.75
-40.20
-46.56
-54.70
-65.00
-76.94
-88.91
-98.32
-102.10
-97.61
-83.60
-60.76
-31.77
-0.54
28.92
53.47
71.47
82.61
87.55
87.36
83.22
76.34
67.98
59.38
51.57
45.11
40.07
36.08
32.66
29.56
26.88
24.96
24.10
24.26
24.91
25.18
24.14
21.21
16.29
9.82
2.47
-5.02
-12.18
-18.88
-25.40
-32.37
-40.58
-50.71
-62.74
-75.61
-86.94
-93.53
-92.26
-81.30
-60.96
-33.79
-3.85
24.61
48.25
65.41
75.92
80.57
80.54
76.92
70.69
62.84
54.32
45.98
38.41
31.81
26.11
21.17
16.97
13.69
11.59
10.84
11.20
12.03
12.40
11.34
8.23
3.00
-3.90
-11.67
-19.49
-26.84
-33.60
-40.11
-47.01
-54.99
-64.43
-75.00
-85.31
-93.01
-95.16
-89.18
-73.88
-50.05
-20.55
10.52
38.94
61.51
76.69
84.51
86.06
82.86
76.39
67.85
58.24
48.46
39.27
31.30
24.93
20.32
17.39
15.92
15.58
15.93
16.47
16.65
15.97
14.08
10.86
6.43
1.12
-4.76
-11.01
-17.64
-24.99
-33.53
-43.71
-55.61
-68.55
-80.92
-90.16
-93.36
-88.11
-73.41
-50.27
-21.59
8.63
36.34
58.55
73.80
82.06
84.28
81.76
75.80
67.54
58.03
48.33
39.26
31.41
24.94
19.69
15.37
11.75
8.88
6.99
6.24
6.52
7.29
7.62
6.50
3.22
-2.27
-9.42
-17.23
-24.65
-31.05
-36.46
-41.64
-47.80
-56.14
-67.27
-80.71
-94.54
-105.64
-110.38
-105.70
-90.30
-65.28
-33.99
-1.06
28.95
52.79
69.07
78.10
81.13
79.60
74.72
67.41
58.60
49.39
40.98
34.38
30.01
27.62
26.42
25.53
24.34
22.84
21.54
21.05
21.74
23.31
24.82
24.93
22.44
16.76
8.23
-2.01
-12.50
-21.91
-29.60
-35.74
-41.21
-47.24
-54.97
-65.05
-77.22
-90.11
-101.21
-107.26
-105.13
-92.87
-70.61
-40.76
-7.47
24.64
51.82
72.03
85.10
92.15
94.71
94.02
90.83
85.48
78.21
69.50
60.13
51.07
43.18
37.03
32.62
29.59
27.36
25.46
23.80
22.54
21.97
22.08
22.45
22.25
20.63
17.08
11.73
5.30
-1.21
-6.87
-11.23
-14.44
-17.28
-20.85
-26.34
-34.63
-46.02
-60.02
-75.19
-89.22
-99.25
-102.46
-96.82
-81.65
-57.97
-28.22
4.25
35.94
63.79
85.58
100.02
106.73
106.07
99.11
87.43
72.99
57.77
43.43
31.10
21.23
13.68
7.99
3.68
0.48
-1.61
-2.50
-2.29
-1.44
-0.81
-1.37
-3.86
-8.39
-14.53
-21.46
-28.42
-35.02
-41.40
-48.08
-55.67
-64.58
-74.79
-85.73
-96.24
-104.66
-109.06
-107.62
-99.11
-83.41
-61.69
-36.34
-10.39
13.22
32.28
45.79
53.86
57.36
57.43
55.05
50.89
45.37
38.90
31.99
25.33
19.69
15.65
13.50
13.11
14.03
15.54
16.94
17.66
17.45
16.32
14.48
12.14
9.36
5.97
1.66
-3.88
-10.80
-19.08
-28.43
-38.23
-47.45
-54.65
-58.01
-55.74
-46.60
-30.46
-8.52
16.83
42.58
65.84
84.48
97.44
104.75
107.24
106.11
102.73
98.28
93.73
89.75
86.68
84.40
82.25
78.88
72.67
62.14
46.80
27.55
6.66
-12.98
-28.86
-39.69
-45.69
-48.15
-48.64
-48.33
-47.73
-47.02
-46.46
-46.75
-48.92
-53.92
-61.96
-72.08
-82.22
-89.68
-92.05
-88.09
-78.14
-63.91
-47.81
-31.97
-17.68
-5.40
4.82
12.74
17.68
18.72
15.40
8.16
-1.48
-11.37
-19.46
-24.48
-26.19
-25.19
-22.47
-18.90
-15.06
-11.31
-7.96
-5.29
-3.51
-2.60
-2.31
-2.21
-1.99
-1.62
-1.50
-2.28
-4.65
-9.09
-15.56
-23.23
-30.50
-35.17
-35.09
-28.93
-16.76
-0.20
18.10
35.31
49.25
58.95
64.53
66.83
66.82
65.34
62.94
60.04
57.00
54.09
51.37
48.55
45.08
40.29
33.66
25.10
15.00
4.06
-6.80
-16.76
-25.22
-31.85
-36.60
-39.58
-41.13
-41.70
-41.90
-42.37
-43.66
-46.11
-49.59
-53.46
-56.47
-57.02
-53.67
-45.59
-33.15
-17.83
-1.93
12.22
22.84
29.25
31.65
30.90
27.92
23.48
18.15
12.41
6.77
1.78
-2.06
-4.50
-5.58
-5.65
-5.13
-4.48
-4.03
-4.00
-4.52
-5.61
-7.20
-9.15
-11.26
-13.36
-15.40
-17.44
-19.62
-22.13
-25.12
-28.54
-32.14
-35.33
-37.19
-36.60
-32.55
-24.60
-13.19
0.23
13.63
24.99
32.93
37.06
37.82
36.09
32.69
28.13
22.64
16.48
10.09
4.16
-0.63
-3.86
-5.55
-6.16
-6.34
-6.73
-7.69
-9.28
-11.30
-13.48
-15.58
-17.50
-19.32
-21.24
-23.50
-26.38
-30.03
-34.43
-39.26
-43.83
-47.08
-47.77
-44.81
-37.63
-26.63
-13.17
0.73
12.93
21.86
26.92
28.42
27.27
24.48
20.71
16.21
11.00
5.08
-1.29
-7.60
-13.18
-17.48
-20.16
-21.32
-21.51
-21.60
-22.54
-24.97
-29.00
-34.03
-39.06
-43.02
-45.36
-46.24
-46.48
-47.23
-49.54
-53.89
-59.88
-66.09
-70.08
-68.80
-59.47
-40.66
-13.31
19.00
50.73
76.03
90.51
92.62
83.84
67.69
48.17
28.36
9.89
-6.92
-22.17
-35.73
-46.88
-54.56
-57.92
-56.75
-51.66
-43.87
-34.75
-25.43
-16.62
-8.74
-2.16
2.66
5.25
5.43
3.60
0.78
-1.71
-2.89
-2.67
-2.14
-3.21
-7.83
-16.94
-29.84
-44.16
-56.33
-62.83
-61.19
-50.82
-33.07
-10.70
12.94
34.96
53.48
67.82
78.27
85.56
90.42
93.31
94.37
93.62
91.09
87.00
81.72
75.74
69.49
63.36
57.54
52.17
47.23
42.67
38.35
34.12
29.78
25.11
20.00
14.45
8.53
2.35
-4.10
-11.01
-18.80
-27.91
-38.53
-50.25
-61.81
-71.27
-76.32
-75.00
-66.32
-50.68
-29.86
-6.56
16.33
36.43
52.27
63.35
69.86
72.34
71.38
67.51
61.33
53.55
45.04
36.64
29.04
22.49
16.95
12.11
7.77
3.84
0.44
-2.27
-4.32
-5.95
-7.70
-10.13
-13.73
-18.72
-25.11
-32.74
-41.38
-50.72
-60.24
-69.08
-76.00
-79.51
-78.20
-71.23
-58.65
-41.57
-21.93
-2.02
16.03
30.67
41.10
47.24
49.41
48.13
43.92
37.22
28.49
18.38
7.81
-2.10
-10.31
-16.21
-19.91
-22.25
-24.45
-27.63
-32.34
-38.31
-44.75
-50.75
-55.76
-59.87
-63.76
-68.39
-74.62
-82.96
-93.32
-104.96
-116.38
-125.36
-129.34
-125.94
-113.89
-93.68
-67.73
-39.89
-14.29
5.80
18.83
25.03
25.88
23.26
18.81
13.63
8.41
3.66
-0.21
-2.87
-4.26
-4.60
-4.28
-3.73
-3.23
-2.90
-2.75
-2.75
-2.86
-3.06
-3.31
-3.63
-4.21
-5.37
-7.63
-11.54
-17.59
-25.99
-36.48
-48.14
-59.27
-67.45
-70.05
-64.94
-51.32
-30.09
-3.81
24.07
50.19
72.03
88.26
98.61
103.39
103.10
98.40
90.19
79.83
69.22
60.57
55.92
56.53
62.23
71.25
80.46
86.28
85.84
77.99
63.75
45.91
28.06
13.33
3.56
-1.09
-1.85
-0.67
0.30
-0.75
-5.10
-13.19
-24.35
-36.58
-46.80
-51.44
-47.60
-34.10
-12.06
15.31
43.74
69.20
89.01
102.28
109.59
112.29
111.78
109.06
104.69
98.99
92.29
85.00
77.68
70.90
65.13
60.70
57.68
55.97
55.35
55.55
56.32
57.44
58.70
59.87
60.74
61.17
61.09
60.44
59.18
57.17
54.26
50.57
46.71
43.93
43.92
48.24
57.59
71.25
87.07
102.06
113.27
118.68
117.61
110.65
99.16
84.76
68.90
52.87
37.73
24.32
13.18
4.42
-2.31
-7.69
-12.41
-17.00
-21.64
-26.24
-30.58
-34.43
-37.64
-40.24
-42.31
-44.12
-46.02
-48.41
-51.59
-55.57
-59.92
-63.75
-65.94
-65.54
-62.13
-56.01
-48.14
-39.80
-32.21
-26.17
-22.02
-19.70
-18.98
-19.67
-21.68
-24.98
-29.40
-34.59
-39.95
-44.78
-48.46
-50.70
-51.62
-51.69
-51.56
-51.79
-52.64
-53.99
-55.48
-56.77
-57.72
-58.50
-59.58
-61.47
-64.53
-68.79
-73.80
-78.60
-81.76
-81.64
-76.70
-66.02
-49.72
-29.05
-6.18
16.40
36.54
52.90
64.98
72.86
76.87
77.27
74.39
68.76
61.24
52.99
45.17
38.60
33.52
29.68
26.57
23.72
20.89
18.12
15.56
13.28
11.20
9.03
6.38
2.88
-1.77
-7.61
-14.27
-20.82
-25.82
-27.54
-24.51
-16.13
-2.96
13.26
30.22
45.63
57.84
65.98
69.79
69.34
64.87
56.90
46.34
34.53
22.95
12.81
4.61
-1.93
-7.62
-13.32
-19.47
-25.86
-31.80
-36.53
-39.63
-41.27
-42.16
-43.27
-45.49
-49.37
-54.90
-61.48
-67.88
-72.42
-73.29
-69.10
-59.44
-45.16
-28.21
-11.11
3.86
15.18
22.30
25.38
24.95
21.64
16.12
9.20
1.89
-4.78
-10.04
-13.64
-15.90
-17.46
-18.93
-20.54
-22.08
-23.02
-22.86
-21.46
-19.16
-16.69
-14.93
-14.60
-16.12
-19.42
-23.81
-27.98
-30.02
-27.90
-20.08
-6.17
12.67
33.97
54.72
72.26
85.04
92.68
95.56
94.25
89.08
80.22
68.04
53.45
37.95
23.35
11.10
1.86
-4.62
-9.23
-12.97
-16.37
-19.38
-21.56
-22.45
-22.09
-21.06
-20.33
-20.94
-23.53
-28.15
-34.27
-40.89
-46.80
-50.83
-52.09
-50.12
-45.04
-37.44
-28.26
-18.60
-9.47
-1.71
4.05
7.49
8.52
7.36
4.51
0.66
-3.44
-7.18
-10.17
-12.27
-13.57
-14.25
-14.53
-14.57
-14.42
-14.06
-13.46
-12.66
-11.87
-11.43
-11.77
-13.19
-15.85
-19.59
-23.98
-28.30
-31.67
-33.14
-31.93
-27.67
-20.55
-11.39
-1.55
7.53
14.55
18.71
19.82
18.16
14.34
9.10
3.17
-2.77
-8.11
-12.40
-15.33
-16.87
-17.23
-16.80
-16.03
-15.28
-14.71
-14.32
-13.98
-13.59
-13.19
-12.98
-13.31
-14.50
-16.77
-20.06
-23.89
-27.41
-29.48
-29.02
-25.31
-18.33
-8.83
1.84
12.06
20.45
26.10
28.74
28.57
26.05
21.73
16.15
9.90
3.60
-2.11
-6.78
-10.19
-12.43
-13.86
-14.95
-16.05
-17.33
-18.72
-19.97
-20.86
-21.33
-21.58
-22.03
-23.20
-25.49
-28.94
-33.06
-36.81
-38.82
-37.81
-33.04
-24.67
-13.76
-2.00
8.86
17.50
23.24
26.05
26.19
24.01
19.76
13.73
6.40
-1.44
-8.74
-14.48
-17.98
-19.18
-18.68
-17.52
-16.76
-17.14
-18.78
-21.24
-23.89
-26.24
-28.26
-30.44
-33.56
-38.27
-44.85
-52.89
-61.30
-68.38
-72.18
-70.98
-63.93
-51.46
-35.44
-18.70
-4.13
6.39
12.65
16.01
18.71
22.74
29.04
37.30
46.40
55.13
62.80
69.24
74.62
78.88
81.59
82.13
80.10
75.75
70.03
64.30
59.68
56.60
54.58
52.31
48.15
40.60
28.87
13.12
-5.44
-24.66
-41.90
-54.48
-60.36
-58.59
-49.58
-35.02
-17.42
0.52
16.46
28.91
37.27
41.75
43.03
41.89
39.00
34.79
29.62
23.82
17.88
12.46
8.13
5.25
3.80
3.34
3.22
2.80
1.74
0.03
-2.13
-4.45
-6.80
-9.24
-12.01
-15.46
-19.92
-25.70
-32.95
-41.49
-50.68
-59.16
-65.00
-66.11
-60.92
-49.03
-31.55
-10.90
9.91
28.14
42.09
51.26
56.17
57.73
56.74
53.63
48.54
41.61
33.20
24.08
15.23
7.68
2.16
-1.03
-2.07
-1.51
-0.05
1.60
2.92
3.57
3.37
2.23
0.15
-2.83
-6.62
-11.07
-16.08
-21.69
-28.09
-35.45
-43.66
-51.95
-58.84
-62.30
-60.35
-51.85
-37.01
-17.54
3.72
23.73
40.02
51.29
57.51
59.48
58.28
54.78
49.55
42.93
35.37
27.53
20.23
14.20
9.88
7.28
6.09
5.89
6.29
7.01
7.82
8.48
8.66
8.03
6.42
3.84
0.54
-3.20
-7.16
-11.45
-16.41
-22.48
-29.81
-37.91
-45.48
-50.57
-51.11
-45.63
-33.80
-16.69
3.44
23.72
41.42
54.52
62.13
64.40
62.30
57.09
49.99
41.87
33.30
24.64
16.26
8.74
2.77
-1.00
-2.24
-1.13
1.64
5.08
8.16
10.18
10.85
10.26
8.78
6.79
4.54
2.07
-0.74
-4.20
-8.66
-14.45
-21.59
-29.55
-37.11
-42.48
-43.78
-39.68
-30.02
-16.01
0.08
15.50
27.87
35.82
39.14
38.52
35.06
29.73
23.12
15.50
7.09
-1.63
-9.83
-16.44
-20.60
-21.97
-20.98
-18.61
-16.03
-14.17
-13.38
-13.44
-13.88
-14.26
-14.46
-14.75
-15.68
-17.84
-21.65
-27.24
-34.33
-42.18
-49.44
-54.27
-54.69
-49.23
-37.63
-21.21
-2.64
14.87
28.50
36.70
39.38
37.60
32.83
26.45
19.30
11.81
4.19
-3.36
-10.49
-16.76
-21.70
-24.94
-26.32
-25.93
-24.13
-21.37
-18.17
-14.99
-12.24
-10.27
-9.40
-9.86
-11.67
-14.64
-18.31
-22.19
-25.98
-29.76
-33.99
-39.23
-45.58
-52.29
-57.63
-59.28
-55.21
-44.46
-27.75
-7.29
13.88
32.88
47.72
57.60
62.70
63.68
61.37
56.48
49.70
41.79
33.60
25.98
19.58
14.79
11.69
10.13
9.87
10.65
12.22
14.25
16.30
17.79
18.17
16.97
14.08
9.75
4.57
-0.76
-5.69
-10.04
-14.09
-18.42
-23.78
-30.72
-39.22
-48.51
-56.88
-62.03
-61.61
-54.12
-39.55
-19.55
2.90
24.49
42.48
55.35
62.86
65.64
64.57
60.50
54.08
45.96
37.00
28.19
20.46
14.43
10.21
7.51
5.88
4.89
4.42
4.52
5.23
6.45
7.70
8.27
7.46
4.84
0.48
-5.05
-10.87
-16.22
-20.68
-24.40
-28.02
-32.36
-38.08
-45.18
-52.77
-59.10
-61.92
-59.14
-49.58
-33.57
-12.96
9.34
30.22
47.22
59.07
65.60
67.43
65.38
60.24
52.61
43.14
32.64
22.08
12.40
4.35
-1.73
-5.84
-8.20
-9.15
-9.08
-8.40
-7.53
-6.96
-7.09
-8.22
-10.42
-13.61
-17.56
-21.99
-26.62
-31.31
-36.07
-41.14
-46.84
-53.27
-60.00
-65.78
-68.73
-66.78
-58.54
-43.90
-24.34
-2.50
18.63
36.55
49.88
58.30
62.23
62.30
59.13
53.24
45.24
35.97
26.46
17.75
10.68
5.72
2.95
2.12
2.75
4.22
5.84
6.94
7.05
5.92
3.59
0.31
-3.56
-7.73
-12.03
-16.43
-21.10
-26.40
-32.76
-40.45
-49.26
-58.13
-65.16
-68.00
-64.57
-53.92
-36.74
-15.21
7.58
28.63
45.74
57.89
65.08
67.88
67.08
63.38
57.46
50.04
41.91
33.85
26.54
20.44
15.72
12.26
9.83
8.04
6.56
5.09
3.42
1.35
-1.23
-4.39
-8.16
-12.47
-17.13
-21.89
-26.55
-31.06
-35.69
-41.00
-47.62
-55.75
-64.78
-73.09
-78.20
-77.56
-69.43
-53.64
-31.87
-7.17
16.94
37.51
52.82
62.50
67.08
67.47
64.53
58.97
51.51
43.03
34.56
27.09
21.27
17.24
14.72
13.23
12.39
12.07
12.30
13.09
14.19
15.09
15.11
13.70
10.64
6.11
0.62
-5.22
-10.93
-16.33
-21.64
-27.42
-34.38
-43.10
-53.59
-64.99
-75.48
-82.53
-83.64
-77.10
-62.67
-41.87
-17.52
7.00
28.71
45.64
57.10
63.31
65.06
63.20
58.52
51.83
44.01
36.10
29.07
23.58
19.80
17.39
15.77
14.44
13.23
12.34
12.14
12.81
14.14
15.44
15.80
14.35
10.66
4.86
-2.36
-10.02
-17.19
-23.35
-28.53
-33.31
-38.60
-45.28
-53.79
-63.81
-74.05
-82.39
-86.31
-83.58
-73.05
-55.14
-31.86
-6.31
18.24
39.11
54.75
64.76
69.49
69.68
66.19
59.95
51.96
43.35
35.17
28.22
22.83
18.91
16.11
14.06
12.61
11.74
11.55
11.97
12.70
13.15
12.62
10.50
6.54
0.94
-5.67
-12.49
-18.82
-24.31
-29.11
-33.77
-39.10
-45.84
-54.29
-64.04
-73.76
-81.31
-84.18
-80.22
-68.45
-49.53
-25.83
-0.71
22.34
40.68
52.96
59.13
60.03
56.86
50.87
43.18
34.77
26.47
18.94
12.65
7.80
4.43
2.49
1.88
2.43
3.86
5.68
7.26
7.94
7.16
4.70
0.69
-4.33
-9.68
-14.72
-19.12
-23.05
-27.10
-32.12
-38.81
-47.33
-56.88
-65.66
-71.05
-70.42
-61.89
-45.17
-21.85
5.00
31.62
54.71
72.16
83.37
88.84
89.70
87.07
81.85
74.78
66.62
58.22
50.48
44.09
39.38
36.24
34.33
33.30
32.96
33.30
34.28
35.57
36.36
35.52
31.97
25.10
15.17
3.27
-9.05
-20.26
-29.45
-36.53
-42.24
-47.78
-54.37
-62.77
-72.84
-83.26
-91.66
-95.01
-90.53
-76.78
-54.37
-26.09
3.81
30.95
52.07
65.76
72.31
73.03
69.33
62.24
52.46
40.74
28.24
16.49
7.07
1.01
-1.58
-1.41
0.33
2.59
4.82
7.06
9.56
12.47
15.42
17.58
17.93
15.72
10.77
3.61
-4.68
-12.87
-19.95
-25.38
-29.25
-32.18
-35.20
-39.36
-45.46
-53.71
-63.39
-72.82
-79.53
-80.78
-74.42
-59.64
-37.42
-10.48
17.56
43.14
63.74
78.30
87.10
91.15
91.54
89.13
84.47
78.08
70.61
62.94
55.99
50.45
46.63
44.33
43.07
42.20
41.21
39.74
37.60
34.66
30.72
25.58
19.02
11.05
1.95
-7.64
-16.93
-25.20
-31.98
-37.22
-41.23
-44.51
-47.55
-50.77
-54.49
-58.91
-64.09
-69.73
-75.04
-78.66
-78.92
-74.29
-64.00
-48.36
-28.83
-7.60
12.93
30.75
44.51
53.62
58.13
58.49
55.45
49.91
42.76
34.80
26.68
18.83
11.57
5.16
-0.14
-4.12
-6.69
-7.94
-8.20
-8.00
-7.97
-8.66
-10.42
-13.34
-17.23
-21.72
-26.35
-30.74
-34.75
-38.49
-42.32
-46.73
-52.10
-58.40
-64.95
-70.35
-72.69
-70.07
-61.31
-46.40
-26.78
-4.89
16.43
34.76
48.59
57.46
61.68
61.97
59.12
53.86
46.86
38.85
30.61
22.92
16.52
11.85
8.99
7.63
7.20
7.00
6.49
5.34
3.50
1.07
-1.85
-5.14
-8.75
-12.61
-16.68
-20.94
-25.64
-31.09
-37.70
-45.46
-53.77
-61.18
-65.69
-65.26
-58.51
-45.25
-26.67
-5.00
17.00
36.79
52.48
63.04
68.26
68.62
64.97
58.38
49.97
40.77
31.57
22.99
15.37
9.00
4.10
0.82
-0.81
-0.96
-0.13
1.01
1.65
1.17
-0.77
-4.10
-8.46
-13.32
-18.30
-23.20
-28.09
-33.23
-38.99
-45.67
-53.31
-61.48
-69.12
-74.55
-75.80
-71.14
-59.75
-42.12
-20.09
3.59
25.95
44.53
57.77
65.18
67.17
64.66
58.90
51.17
42.63
34.18
26.46
19.77
14.22
9.80
6.49
4.34
3.30
3.26
3.84
4.51
4.58
3.51
1.00
-2.91
-7.86
-13.32
-18.78
-23.94
-28.79
-33.63
-38.99
-45.39
-53.01
-61.37
-69.21
-74.57
-75.22
-69.35
-56.25
-36.68
-12.81
12.27
35.43
54.20
67.24
74.40
76.36
74.19
69.00
61.76
53.34
44.49
35.89
28.11
21.52
16.31
12.52
10.12
8.99
8.88
9.38
9.86
9.62
8.10
4.96
0.27
-5.60
-12.10
-18.69
-24.96
-30.78
-36.36
-42.19
-48.85
-56.72
-65.54
-74.20
-80.77
-82.89
-78.50
-66.63
-47.94
-24.66
0.01
22.77
41.10
53.71
60.58
62.51
60.62
55.98
49.42
41.62
33.23
24.93
17.41
11.25
6.80
4.10
2.94
2.91
3.51
4.27
4.75
4.64
3.66
1.69
-1.23
-4.94
-9.26
-14.01
-19.23
-25.16
-32.22
-40.72
-50.47
-60.50
-68.94
-73.30
-71.22
-61.32
-43.84
-20.87
4.19
27.63
46.55
59.46
66.35
68.21
66.29
61.64
54.92
46.61
37.30
27.83
19.21
12.37
7.86
5.69
5.36
6.01
6.72
6.82
5.97
4.24
1.91
-0.73
-3.60
-6.81
-10.60
-15.22
-20.89
-27.74
-35.85
-45.18
-55.26
-64.92
-72.20
-74.62
-70.04
-57.44
-37.65
-13.30
11.89
34.22
51.07
61.44
65.84
65.57
62.09
56.49
49.38
41.21
32.46
23.82
16.08
9.97
5.91
3.86
3.44
3.96
4.64
4.83
4.07
2.23
-0.60
-4.10
-7.98
-12.02
-16.17
-20.54
-25.36
-31.00
-37.87
-46.29
-56.18
-66.74
-76.20
-81.98
-81.33
-72.28
-54.58
-29.99
-1.99
25.30
48.30
64.88
74.62
78.41
77.76
74.12
68.57
61.83
54.40
46.76
39.31
32.44
26.34
21.09
16.77
13.50
11.46
10.77
11.25
12.33
13.11
12.60
10.06
5.31
-1.23
-8.71
-16.21
-23.08
-29.17
-34.82
-40.78
-47.88
-56.76
-67.44
-78.88
-88.90
-94.48
-92.57
-81.29
-60.82
-33.62
-3.82
24.16
46.91
62.81
72.02
75.76
75.46
72.19
66.65
59.36
51.08
42.84
35.77
30.70
27.86
26.85
26.81
26.82
26.32
25.29
24.14
23.39
23.21
23.24
22.59
20.27
15.63
8.70
0.23
-8.67
-16.89
-23.79
-29.35
-34.11
-39.01
-45.06
-53.05
-63.23
-74.93
-86.47
-95.14
-97.84
-92.04
-76.70
-52.98
-23.92
6.31
33.72
55.57
70.76
79.63
83.25
82.84
79.31
73.36
65.62
56.91
48.13
40.20
33.73
28.90
25.48
22.96
20.82
18.78
16.91
15.51
14.88
15.11
15.78
16.14
15.17
12.08
6.60
-0.93
-9.53
-18.02
-25.36
-31.07
-35.37
-39.10
-43.37
-49.16
-57.02
-66.81
-77.67
-87.98
-95.60
-98.12
-93.55
-80.95
-60.92
-35.70
-8.60
16.85
37.87
52.96
61.88
65.25
64.04
59.19
51.59
42.20
32.18
22.77
15.09
9.85
7.21
6.80
8.01
10.16
12.77
15.53
18.27
20.72
22.52
23.11
21.96
18.72
13.45
6.69
-0.75
-7.96
-14.34
-19.77
-24.71
-29.94
-36.30
-44.14
-53.03
-61.58
-67.62
-68.71
-62.80
-48.98
-27.87
-1.67
26.34
52.53
73.81
88.18
94.95
94.55
88.15
77.29
63.65
48.93
34.72
22.43
13.02
6.91
3.89
3.26
4.03
5.21
5.98
5.89
4.78
2.73
-0.08
-3.57
-7.79
-12.87
-18.88
-25.65
-32.72
-39.45
-45.26
-49.92
-53.74
-57.49
-62.11
-68.29
-76.03
-84.44
-91.86
-96.26
-95.73
-89.10
-76.21
-57.99
-36.22
-13.14
9.03
28.48
44.00
55.06
61.68
64.23
63.29
59.55
53.75
46.74
39.38
32.45
26.54
21.94
18.65
16.54
15.42
15.12
15.46
16.18
16.86
16.95
15.93
13.49
9.63
4.67
-0.86
-6.46
-11.85
-17.07
-22.49
-28.69
-36.21
-45.24
-55.37
-65.46
-73.74
-78.12
-76.87
-69.03
-54.78
-35.55
-13.55
8.66
28.81
45.24
57.11
64.30
67.18
66.45
62.93
57.52
51.04
44.25
37.75
31.99
27.24
23.63
21.14
19.67
19.04
18.98
19.17
19.20
18.64
17.08
14.23
10.01
4.60
-1.60
-8.11
-14.48
-20.46
-26.10
-31.70
-37.79
-44.87
-53.18
-62.40
-71.50
-78.78
-82.19
-79.93
-71.00
-55.64
-35.30
-12.38
10.45
30.83
47.13
58.54
65.02
67.03
65.38
60.99
54.84
47.83
40.70
34.00
28.05
23.01
18.94
15.88
13.90
13.01
13.14
14.03
15.20
16.07
16.07
14.81
12.17
8.32
3.58
-1.69
-7.26
-13.13
-19.49
-26.71
-35.13
-44.86
-55.49
-66.00
-74.67
-79.43
-78.33
-70.24
-55.30
-35.05
-12.11
10.55
30.37
45.73
56.12
61.86
63.64
62.21
58.17
51.97
44.14
35.39
26.61
18.73
12.49
8.25
5.93
5.11
5.14
5.38
5.30
4.61
3.18
1.04
-1.79
-5.26
-9.41
-14.33
-20.20
-27.21
-35.53
-45.04
-55.17
-64.75
-72.11
-75.34
-72.85
-63.92
-49.03
-29.85
-8.84
11.43
28.91
42.37
51.40
56.16
57.05
54.52
49.09
41.45
32.59
23.68
15.90
10.14
6.71
5.34
5.31
5.73
5.85
5.24
3.87
1.95
-0.26
-2.67
-5.42
-8.90
-13.59
-19.95
-28.21
-38.22
-49.30
-60.19
-69.05
-73.77
-72.42
-63.96
-48.71
-28.45
-6.01
15.55
33.74
47.24
55.87
60.25
61.15
59.18
54.78
48.34
40.54
32.41
25.10
19.54
16.16
14.72
14.54
14.71
14.42
13.22
11.03
8.03
4.48
0.60
-3.54
-8.01
-12.94
-18.51
-24.98
-32.64
-41.66
-51.91
-62.61
-72.21
-78.50
-79.13
-72.44
-58.07
-37.39
-13.11
11.42
33.18
50.20
61.76
68.16
70.21
68.84
64.91
59.17
52.39
45.34
38.68
32.89
28.20
24.66
22.24
20.83
20.19
19.90
19.40
18.11
15.60
11.76
6.83
1.21
-4.72
-10.75
-16.90
-23.39
-30.53
-38.68
-48.06
-58.61
-69.68
-79.85
-86.97
-88.60
-82.76
-68.71
-47.50
-21.76
4.95
29.20
48.53
61.93
69.60
72.43
71.51
67.77
62.01
55.03
47.75
41.08
35.75
32.02
29.66
28.12
26.76
25.25
23.64
22.27
21.43
21.15
20.92
19.93
17.35
12.68
6.03
-1.97
-10.36
-18.30
-25.29
-31.40
-37.18
-43.49
-51.13
-60.57
-71.50
-82.69
-91.99
-96.79
-94.68
-84.34
-66.08
-41.93
-15.16
10.72
32.87
49.75
61.17
67.79
70.53
70.15
67.18
62.08
55.53
48.53
42.16
37.27
34.23
32.82
32.47
32.50
32.45
32.19
31.82
31.52
31.29
30.90
29.90
27.79
24.19
19.06
12.58
5.18
-2.71
-10.69
-18.46
-25.80
-32.61
-38.95
-45.19
-51.86
-59.52
-68.31
-77.70
-86.29
-92.04
-92.83
-87.02
-74.12
-54.97
-31.58
-6.67
16.96
37.05
52.26
62.18
67.20
68.12
65.80
61.03
54.55
47.13
39.66
33.08
28.15
25.23
24.12
24.23
24.83
25.42
25.85
26.21
26.64
27.04
27.00
25.91
23.23
18.70
12.53
5.29
-2.28
-9.49
-15.93
-21.56
-26.68
-31.82
-37.59
-44.51
-52.76
-62.03
-71.44
-79.61
-84.82
-85.44
-80.27
-68.96
-52.16
-31.44
-9.01
12.78
31.83
46.73
56.78
61.98
62.84
60.12
54.76
47.68
39.83
32.04
25.04
19.35
15.20
12.59
11.37
11.27
12.04
13.43
15.10
16.69
17.72
17.75
16.39
13.41
8.87
3.04
-3.57
-10.37
-16.83
-22.64
-27.80
-32.68
-37.89
-44.05
-51.46
-59.81
-68.04
-74.47
-77.22
-74.72
-66.21
-52.07
-33.69
-13.17
7.28
25.75
40.96
52.25
59.50
62.84
62.62
59.30
53.51
46.09
38.06
30.49
24.34
20.25
18.37
18.36
19.53
21.03
22.08
22.17
21.09
18.85
15.58
11.40
6.42
0.78
-5.35
-11.69
-17.83
-23.40
-28.10
-31.84
-34.84
-37.58
-40.79
-45.13
-50.87
-57.58
-64.00
-68.20
-68.12
-62.25
-50.09
-32.45
-11.17
11.34
32.79
51.39
66.11
76.58
82.82
85.18
84.09
80.17
74.15
66.92
59.49
52.82
47.74
44.87
44.60
47.01
51.81
58.23
65.00
70.47
73.01
71.37
65.10
54.64
41.14
26.13
11.03
-2.98
-15.13
-24.89
-32.03
-36.49
-38.53
-38.72
-37.85
-36.83
-36.47
-37.26
-39.26
-42.06
-44.83
-46.60
-46.49
-44.08
-39.60
-33.85
-27.95
-22.97
-19.58
-17.96
-17.86
-18.86
-20.60
-22.80
-25.29
-27.87
-30.20
-31.89
-32.65
-32.42
-31.42
-30.09
-28.84
-27.94
-27.35
-26.79
-25.93
-24.59
-22.91
-21.30
-20.28
-20.21
-21.15
-22.78
-24.54
-25.92
-26.66
-26.80
-26.73
-26.89
-27.65
-29.16
-31.32
-33.77
-35.94
-37.06
-36.20
-32.50
-25.41
-15.03
-2.30
11.14
23.36
32.63
37.98
39.37
37.51
33.49
28.35
22.81
17.27
11.94
7.01
2.68
-0.79
-3.26
-4.74
-5.29
-5.05
-4.18
-2.92
-1.65
-0.89
-1.17
-2.77
-5.63
-9.25
-12.92
-16.04
-18.33
-19.96
-21.46
-23.40
-26.18
-29.80
-33.79
-37.25
-38.99
-37.85
-32.98
-24.27
-12.44
1.00
14.15
25.26
33.13
37.40
38.42
36.89
33.59
29.07
23.69
17.70
11.46
5.46
0.30
-3.48
-5.61
-6.15
-5.54
-4.41
-3.37
-2.89
-3.16
-4.11
-5.54
-7.19
-8.94
-10.77
-12.80
-15.23
-18.28
-22.10
-26.67
-31.66
-36.32
-39.54
-40.05
-36.77
-29.34
-18.32
-5.18
8.14
19.84
28.73
34.43
37.17
37.48
35.74
32.23
27.15
20.93
14.31
8.24
3.60
0.87
-0.03
0.31
1.09
1.56
1.31
0.39
-0.90
-2.19
-3.30
-4.36
-5.74
-7.83
-10.92
-15.07
-20.10
-25.72
-31.45
-36.60
-40.14
-40.92
-37.90
-30.64
-19.60
-6.16
7.77
20.34
30.23
36.92
40.58
41.73
40.95
38.65
35.14
30.69
25.63
20.45
15.70
11.92
9.49
8.49
8.62
9.24
9.63
9.17
7.57
4.91
1.55
-2.14
-5.90
-9.66
-13.49
-17.49
-21.78
-26.52
-31.90
-38.02
-44.66
-51.05
-55.82
-57.34
-54.21
-45.94
-33.17
-17.55
-1.24
13.75
26.02
34.94
40.45
42.84
42.49
39.85
35.51
30.22
24.77
19.79
15.64
12.32
9.70
7.59
6.01
5.08
4.98
5.66
6.86
8.04
8.56
7.93
5.91
2.55
-1.80
-6.66
-11.55
-16.08
-20.07
-23.64
-27.17
-31.28
-36.58
-43.28
-50.88
-58.00
-62.57
-62.46
-56.30
-43.94
-26.70
-6.91
12.81
30.27
44.14
54.02
60.15
63.04
63.21
61.15
57.42
52.69
47.73
43.30
39.91
37.72
36.54
35.97
35.61
35.25
34.87
34.59
34.44
34.30
33.84
32.67
30.41
26.84
21.89
15.65
8.42
0.62
-7.13
-14.21
-20.11
-24.65
-28.05
-30.89
-33.92
-37.77
-42.65
-48.18
-53.26
-56.35
-55.84
-50.54
-40.17
-25.54
-8.40
9.04
24.70
37.10
45.55
50.11
51.33
49.93
46.59
41.90
36.33
30.33
24.42
19.12
14.93
12.23
11.10
11.35
12.56
14.27
16.06
17.65
18.79
19.17
18.37
15.99
11.77
5.83
-1.33
-8.92
-16.12
-22.30
-27.17
-30.82
-33.62
-36.01
-38.43
-41.28
-44.83
-49.19
-54.18
-59.12
-62.83
-63.80
-60.65
-52.67
-40.27
-24.92
-8.81
5.84
17.37
25.00
28.80
29.34
27.38
23.67
18.85
13.49
8.14
3.25
-0.85
-4.06
-6.43
-8.14
-9.42
-10.41
-11.18
-11.71
-12.01
-12.24
-12.80
-14.16
-16.81
-20.93
-26.26
-32.17
-37.88
-42.70
-46.36
-49.09
-51.43
-54.10
-57.60
-61.86
-66.09
-68.86
-68.40
-63.24
-52.80
-37.65
-19.39
-0.16
18.10
34.01
46.93
56.72
63.38
66.88
67.24
64.66
59.68
53.18
46.16
39.46
33.61
28.83
25.08
22.26
20.22
18.87
18.03
17.46
16.80
15.65
13.63
10.54
6.42
1.58
-3.57
-8.66
-13.53
-18.38
-23.55
-29.36
-35.73
-41.95
-46.69
-48.33
-45.48
-37.53
-24.91
-9.10
7.83
23.80
37.19
47.13
53.49
56.60
57.01
55.25
51.77
46.97
41.23
34.98
28.69
22.80
17.73
13.81
11.26
10.15
10.30
11.17
11.88
11.27
8.31
2.50
-5.92
-15.87
-25.83
-34.37
-40.62
-44.51
-46.71
-48.25
-50.16
-53.09
-57.11
-61.56
-65.09
-65.89
-62.26
-53.13
-38.62
-20.07
0.26
19.94
36.96
50.13
59.11
64.11
65.63
64.22
60.51
55.28
49.37
43.57
38.48
34.32
30.96
28.04
25.25
22.45
19.82
17.74
16.51
16.22
16.47
16.53
15.55
12.91
8.48
2.67
-3.77
-10.09
-15.84
-21.06
-26.24
-32.05
-39.03
-47.24
-56.05
-64.09
-69.53
-70.50
-65.69
-54.78
-38.63
-19.08
1.54
21.01
37.61
50.32
58.80
63.21
64.02
61.92
57.73
52.28
46.31
40.39
34.88
29.99
25.78
22.30
19.51
17.39
15.87
14.87
14.26
13.83
13.29
12.25
10.35
7.36
3.27
-1.67
-6.99
-12.20
-16.94
-21.10
-24.91
-28.82
-33.36
-38.89
-45.39
-52.25
-58.26
-61.80
-61.25
-55.51
-44.46
-29.12
-11.36
6.55
22.60
35.46
44.60
50.17
52.66
52.67
50.75
47.37
42.97
37.97
32.79
27.77
23.22
19.39
16.47
14.65
14.04
14.56
15.86
17.23
17.78
16.58
13.08
7.28
-0.22
-8.42
-16.26
-23.04
-28.51
-32.97
-36.94
-40.98
-45.31
-49.60
-52.94
-53.96
-51.27
-43.92
-31.89
-16.21
1.27
18.43
33.48
45.32
53.62
58.60
60.71
60.37
57.97
53.93
48.85
43.49
38.74
35.33
33.61
33.33
33.63
33.26
30.89
25.60
17.22
6.43
-5.41
-16.66
-25.86
-32.11
-35.22
-35.60
-34.08
-31.63
-29.11
-27.04
-25.47
-23.97
-21.65
-17.42
-10.34
0.00
13.20
27.96
42.43
54.58
62.91
66.84
66.87
64.22
60.29
56.01
51.48
46.12
39.17
30.31
19.93
9.13
-0.74
-8.59
-13.95
-17.01
-18.38
-18.81
-18.89
-18.92
-18.99
-18.99
-18.77
-18.28
-17.66
-17.25
-17.62
-19.35
-22.82
-28.10
-34.77
-42.01
-48.74
-53.91
-56.76
-57.04
-55.06
-51.50
-47.22
-42.92
-39.07
-35.84
-33.21
-31.17
-29.64
-28.56
-27.85
-27.37
-26.96
-26.45
-25.78
-24.92
-23.95
-22.97
-22.08
-21.33
-20.76
-20.35
-20.12
-20.04
-20.10
-20.26
-20.52
-20.91
-21.64
-22.98
-25.23
-28.55
-32.65
-36.74
-39.62
-39.92
-36.56
-29.20
-18.38
-5.45
7.80
19.68
28.98
35.16
38.37
39.16
38.12
35.78
32.53
28.65
24.46
20.43
17.04
14.74
13.77
14.02
14.99
15.95
16.12
14.91
12.10
7.80
2.45
-3.36
-9.01
-13.93
-17.73
-20.26
-21.78
-22.89
-24.47
-27.29
-31.67
-37.12
-42.37
-45.63
-45.12
-39.73
-29.43
-15.39
0.32
15.32
27.61
35.96
40.15
40.76
38.79
35.27
30.96
26.38
21.81
17.49
13.64
10.55
8.38
7.18
6.81
6.92
7.10
6.98
6.31
5.05
3.36
1.49
-0.35
-2.09
-3.86
-5.90
-8.53
-11.97
-16.24
-21.17
-26.29
-30.86
-33.91
-34.29
-31.03
-23.58
-12.27
1.71
16.39
29.67
39.85
46.08
48.44
47.59
44.41
39.62
33.73
27.15
20.38
14.06
8.85
5.18
3.15
2.42
2.38
2.37
1.90
0.75
-0.95
-2.88
-4.66
-6.06
-7.08
-8.06
-9.45
-11.73
-15.19
-19.82
-25.26
-30.79
-35.37
-37.74
-36.70
-31.39
-21.73
-8.55
6.42
21.11
33.62
42.77
48.20
50.18
49.18
45.54
39.48
31.26
21.51
11.26
1.82
-5.71
-10.78
-13.47
-14.38
-14.31
-13.87
-13.38
-12.99
-12.72
-12.69
-13.01
-13.84
-15.28
-17.37
-20.20
-23.87
-28.35
-33.43
-38.51
-42.60
-44.48
-43.00
-37.56
-28.29
-16.26
-3.14
9.16
19.06
25.64
28.73
28.76
26.44
22.53
17.71
12.67
8.09
4.56
2.45
1.71
1.88
2.14
1.76
0.23
-2.46
-5.89
-9.39
-12.34
-14.40
-15.65
-16.55
-17.74
-19.93
-23.59
-28.88
-35.55
-42.85
-49.45
-53.61
-53.50
-47.80
-36.25
-19.92
-0.96
18.05
34.88
48.13
57.39
62.79
64.69
63.40
59.24
52.79
44.97
36.97
29.82
24.13
19.85
16.48
13.35
10.01
6.39
2.78
-0.40
-2.87
-4.68
-6.24
-8.24
-11.45
-16.46
-23.57
-32.60
-42.71
-52.43
-59.69
-62.31
-58.61
-48.02
-31.45
-11.11
10.09
29.40
44.92
55.86
62.32
64.82
63.93
60.06
53.66
45.35
36.08
27.04
19.32
13.64
10.07
8.12
6.90
5.57
3.61
1.02
-1.85
-4.51
-6.71
-8.60
-10.70
-13.80
-18.58
-25.48
-34.48
-44.96
-55.64
-64.60
-69.57
-68.44
-59.94
-44.19
-22.93
0.97
24.20
44.00
58.68
67.82
71.94
71.94
68.73
63.07
55.63
47.12
38.37
30.20
23.33
18.07
14.49
12.33
11.25
10.88
10.85
10.78
10.19
8.59
5.63
1.20
-4.41
-10.67
-17.00
-22.95
-28.49
-34.00
-40.20
-47.84
-57.26
-67.95
-78.32
-85.82
-87.49
-81.03
-65.64
-42.60
-15.04
13.04
37.97
57.34
70.39
77.62
80.09
78.87
74.69
68.17
60.01
51.17
42.73
35.69
30.59
27.41
25.66
24.65
23.74
22.67
21.53
20.65
20.26
20.32
20.29
19.36
16.68
11.80
4.88
-3.33
-11.74
-19.37
-25.66
-30.69
-35.10
-39.76
-45.54
-52.99
-62.12
-72.35
-82.40
-90.36
-93.92
-90.95
-80.10
-61.46
-36.78
-9.09
18.04
41.54
59.50
71.39
77.71
79.47
77.64
73.03
66.30
58.17
49.48
41.13
33.95
28.45
24.71
22.52
21.41
20.89
20.59
20.35
20.14
19.97
19.69
18.92
17.09
13.66
8.41
1.59
-6.11
-13.77
-20.61
-26.30
-31.00
-35.25
-39.73
-45.05
-51.51
-59.15
-67.55
-75.81
-82.41
-85.44
-82.98
-73.75
-57.69
-36.19
-11.76
12.58
34.19
51.36
63.41
70.50
73.18
72.06
67.78
61.03
52.63
43.62
35.07
27.83
22.36
18.67
16.42
15.14
14.43
14.08
14.06
14.34
14.81
15.13
14.83
13.41
10.53
6.12
0.44
-6.01
-12.66
-19.03
-24.86
-30.18
-35.26
-40.55
-46.55
-53.55
-61.50
-69.78
-77.23
-82.18
-82.87
-77.90
-66.71
-49.83
-28.87
-6.12
15.98
35.36
50.68
61.34
67.36
69.15
67.31
62.59
55.80
47.81
39.51
31.69
24.92
19.53
15.52
12.70
10.77
9.45
8.53
8.00
7.85
8.02
8.23
7.96
6.63
3.74
-0.79
-6.64
-13.12
-19.40
-24.85
-29.26
-32.88
-36.39
-40.65
-46.34
-53.72
-62.24
-70.60
-76.84
-78.87
-75.05
-64.70
-48.40
-27.80
-5.28
16.73
36.20
51.85
63.11
70.01
72.92
72.32
68.81
63.06
55.82
47.92
40.17
33.27
27.64
23.41
20.50
18.67
17.70
17.41
17.62
18.13
18.67
18.88
18.41
16.94
14.24
10.23
4.94
-1.35
-8.22
-15.16
-21.64
-27.37
-32.31
-36.73
-41.08
-45.91
-51.58
-58.12
-65.00
-71.09
-74.81
-74.51
-69.00
-58.02
-42.41
-23.92
-4.77
13.02
27.91
39.08
46.25
49.59
49.50
46.62
41.78
35.89
29.81
24.24
19.59
15.98
13.37
11.61
10.59
10.27
10.62
11.52
12.72
13.76
14.05
13.05
10.43
6.26
0.95
-4.81
-10.34
-15.13
-19.03
-22.24
-25.32
-28.98
-33.93
-40.55
-48.53
-56.81
-63.60
-66.93
-65.22
-57.85
-45.44
-29.59
-12.48
3.84
17.83
28.73
36.38
41.02
42.98
42.53
39.90
35.38
29.45
22.84
16.41
10.94
6.92
4.40
3.10
2.52
2.23
1.93
1.43
0.64
-0.62
-2.46
-4.99
-8.21
-12.04
-16.40
-21.31
-26.92
-33.40
-40.75
-48.52
-55.70
-60.78
-62.07
-58.26
-48.88
-34.60
-17.07
1.44
18.75
33.17
43.80
50.49
53.54
53.49
50.88
46.26
40.18
33.26
26.21
19.72
14.42
10.68
8.54
7.65
7.40
7.08
6.16
4.45
2.11
-0.52
-3.11
-5.59
-8.18
-11.24
-15.20
-20.38
-26.90
-34.69
-43.35
-52.02
-59.28
-63.22
-61.91
-54.06
-39.61
-20.04
1.97
23.27
41.21
54.19
61.91
65.03
64.64
61.82
57.39
51.96
46.01
40.04
34.52
29.82
26.16
23.55
21.89
20.98
20.66
20.71
20.94
21.12
20.97
20.25
18.77
16.42
13.14
8.79
3.12
-4.23
-13.57
-25.00
-38.26
-52.59
-66.79
-79.22
-87.97
-91.12
-87.19
-75.67
-57.36
-34.38
-9.70
13.61
33.11
47.37
56.01
59.36
58.14
53.22
45.59
36.43
26.98
18.42
11.57
6.76
3.90
2.59
2.29
2.53
2.92
3.16
3.14
2.79
2.16
1.22
-0.16
-2.25
-5.38
-9.74
-15.27
-21.54
-27.96
-33.91
-39.05
-43.44
-47.58
-52.24
-58.19
-65.91
-75.20
-84.93
-93.03
-96.92
-94.20
-83.59
-65.43
-41.75
-15.67
9.62
31.62
49.08
61.80
70.23
74.87
76.15
74.45
70.28
64.47
58.03
51.96
46.91
43.12
40.39
38.28
36.35
34.35
32.35
30.60
29.40
28.81
28.60
28.12
26.58
23.29
17.92
10.67
2.18
-6.67
-15.07
-22.54
-29.11
-35.19
-41.44
-48.43
-56.42
-65.22
-74.05
-81.67
-86.44
-86.63
-80.81
-68.41
-50.11
-27.85
-4.46
17.17
34.79
47.37
55.02
58.58
59.04
57.20
53.61
48.75
43.24
37.83
33.24
29.87
27.75
26.52
25.71
25.00
24.24
23.51
22.86
22.13
20.85
18.39
14.16
7.91
-0.07
-9.04
-17.95
-25.90
-32.34
-37.31
-41.37
-45.48
-50.64
-57.60
-66.52
-76.63
-86.17
-92.63
-93.33
-86.32
-71.20
-49.40
-23.95
1.51
23.76
40.94
52.73
59.94
63.82
65.39
65.26
63.69
60.94
57.46
53.91
50.93
48.90
47.81
47.35
47.10
46.68
45.99
45.14
44.34
43.68
42.98
41.72
39.14
34.54
27.54
18.29
7.57
-3.50
-13.76
-22.41
-29.23
-34.58
-39.22
-44.03
-49.73
-56.73
-64.99
-73.92
-82.36
-88.56
-90.50
-86.36
-75.24
-57.56
-35.17
-10.92
12.15
31.55
45.92
55.01
59.43
60.18
58.30
54.67
49.98
44.80
39.57
34.65
30.32
26.73
24.00
22.09
20.94
20.35
20.05
19.74
19.19
18.19
16.63
14.46
11.69
8.38
4.54
0.20
-4.65
-9.98
-15.75
-21.76
-27.76
-33.45
-38.60
-43.22
-47.52
-51.96
-57.04
-63.22
-70.65
-78.91
-86.85
-92.61
-94.00
-89.05
-76.75
-57.50
-33.22
-6.82
18.55
40.29
56.84
67.72
73.32
74.47
72.17
67.45
61.27
54.52
47.95
42.09
37.22
33.41
30.58
28.61
27.41
26.90
26.95
27.33
27.75
27.85
27.35
26.07
24.01
21.22
17.81
13.80
9.14
3.80
-2.16
-8.54
-14.99
-21.17
-26.82
-31.86
-36.45
-40.90
-45.63
-51.10
-57.59
-64.97
-72.49
-78.79
-82.00
-80.28
-72.35
-58.02
-38.37
-15.50
8.02
29.74
47.91
61.59
70.67
75.49
76.61
74.57
69.91
63.24
55.30
46.95
39.03
32.16
26.64
22.40
19.20
16.79
15.06
14.04
13.77
14.14
14.77
15.00
14.14
11.67
7.42
1.65
-5.08
-12.08
-18.75
-24.74
-30.00
-34.75
-39.36
-44.33
-50.16
-57.08
-64.92
-72.84
-79.42
-82.86
-81.57
-74.60
-62.13
-45.34
-26.18
-6.79
10.98
25.87
37.20
44.80
48.80
49.53
47.54
43.52
38.33
32.80
27.66
23.42
20.23
18.04
16.58
15.54
14.68
13.90
13.20
12.59
11.96
11.00
9.26
6.32
2.04
-3.41
-9.50
-15.59
-21.21
-26.24
-30.96
-35.93
-41.79
-48.95
-57.37
-66.39
-74.70
-80.50
-81.86
-77.37
-66.53
-50.10
-29.94
-8.47
11.93
29.47
43.15
52.69
58.21
60.03
58.55
54.33
48.21
41.18
34.31
28.38
23.81
20.51
18.12
16.24
14.64
13.38
12.62
12.50
12.88
13.31
13.09
11.53
8.20
3.08
-3.33
-10.30
-17.04
-23.04
-28.21
-32.95
-37.94
-43.95
-51.46
-60.40
-69.93
-78.46
-83.88
-84.08
-77.56
-63.97
-44.33
-20.93
3.35
25.70
44.07
57.42
65.70
69.48
69.63
67.02
62.46
56.70
50.46
44.39
39.00
34.64
31.45
29.38
28.28
27.87
27.85
28.02
28.22
28.36
28.28
27.59
25.71
21.97
15.89
7.45
-2.85
-14.01
-24.86
-34.39
-42.03
-47.74
-52.02
-55.71
-59.77
-65.01
-71.86
-80.15
-89.04
-96.98
-101.97
-101.95
-95.28
-81.30
-60.65
-35.24
-7.89
18.37
41.01
58.47
70.31
76.87
79.00
77.57
73.46
67.46
60.43
53.28
46.83
41.73
38.24
36.30
35.59
35.63
35.99
36.30
36.35
35.99
35.16
33.76
31.65
28.60
24.41
18.92
12.22
4.67
-3.18
-10.74
-17.58
-23.57
-28.91
-34.05
-39.59
-46.10
-53.89
-62.85
-72.22
-80.56
-85.93
-86.24
-79.90
-66.31
-46.22
-21.65
4.50
29.20
49.92
65.19
74.67
78.97
79.22
76.68
72.52
67.65
62.73
58.11
53.77
49.33
44.16
37.67
29.70
20.67
11.43
2.96
-4.09
-9.67
-14.26
-18.57
-23.14
-28.12
-33.23
-38.02
-42.13
-45.51
-48.50
-51.69
-55.81
-61.40
-68.57
-76.79
-84.77
-90.59
-92.07
-87.39
-75.59
-57.07
-33.54
-7.69
17.48
39.42
56.50
68.20
74.84
77.26
76.37
73.01
68.01
62.19
56.46
51.62
48.14
45.95
44.47
42.92
40.67
37.57
33.93
30.29
26.97
23.78
20.05
14.98
8.11
-0.44
-9.88
-19.13
-27.20
-33.67
-38.69
-42.93
-47.30
-52.66
-59.50
-67.71
-76.49
-84.24
-88.83
-88.06
-80.32
-65.28
-44.13
-19.44
5.56
27.87
45.49
57.69
64.85
67.97
68.11
66.15
62.71
58.30
53.48
48.83
44.87
41.85
39.68
37.90
35.99
33.51
30.38
26.86
23.49
20.74
18.82
17.50
16.10
13.84
10.09
4.69
-2.09
-9.60
-17.16
-24.24
-30.63
-36.43
-41.98
-47.78
-54.33
-62.02
-70.88
-80.38
-89.20
-95.40
-96.80
-91.58
-78.99
-59.73
-35.82
-10.16
14.33
35.29
51.41
62.35
68.53
70.70
69.65
66.13
60.86
54.56
48.01
41.92
36.83
33.00
30.43
28.88
28.09
27.81
27.89
28.20
28.58
28.82
28.67
27.84
26.15
23.40
19.48
14.35
8.04
0.76
-7.11
-15.08
-22.66
-29.52
-35.58
-41.08
-46.49
-52.43
-59.35
-67.37
-75.94
-83.84
-89.32
-90.46
-85.79
-74.68
-57.70
-36.47
-13.31
9.25
29.13
44.93
56.06
62.60
65.03
64.03
60.38
54.89
48.43
41.83
35.84
30.92
27.22
24.60
22.77
21.45
20.50
19.93
19.78
20.00
20.28
20.11
18.90
16.13
11.63
5.62
-1.31
-8.45
-15.17
-21.16
-26.52
-31.64
-37.08
-43.35
-50.65
-58.78
-67.02
-74.19
-78.85
-79.52
-75.03
-64.90
-49.53
-30.25
-9.08
11.69
30.00
44.41
54.23
59.52
60.82
58.86
54.44
48.32
41.25
33.95
27.08
21.12
16.34
12.77
10.32
8.84
8.23
8.29
8.76
9.18
9.00
7.69
4.93
0.72
-4.64
-10.68
-16.95
-23.12
-29.13
-35.18
-41.64
-48.85
-56.97
-65.60
-73.78
-79.91
-82.18
-79.02
-69.61
-54.26
-34.43
-12.35
9.50
28.91
44.39
55.24
61.47
63.55
62.13
58.00
51.93
44.79
37.48
30.87
25.61
21.97
19.79
18.59
17.81
17.04
16.20
15.40
14.78
14.29
13.58
12.09
9.31
4.92
-0.91
-7.63
-14.47
-20.70
-25.88
-30.06
-33.79
-37.97
-43.53
-51.04
-60.31
-70.26
-78.95
-84.03
-83.36
-75.62
-60.78
-40.12
-15.97
8.87
31.74
50.56
64.08
71.81
73.96
71.29
64.88
56.08
46.27
36.71
28.40
21.90
17.36
14.53
12.92
11.91
11.00
9.92
8.74
7.75
7.35
7.70
8.61
9.52
9.68
8.42
5.37
0.55
-5.67
-12.73
-20.02
-27.04
-33.55
-39.56
-45.34
-51.39
-58.23
-66.14
-74.84
-83.29
-89.70
-91.87
-87.78
-76.33
-57.82
-34.07
-7.92
17.49
39.55
56.69
68.43
75.08
77.31
75.87
71.49
65.00
57.37
49.66
42.91
37.82
34.66
33.21
32.94
33.27
33.74
34.12
34.41
34.60
34.63
34.25
33.09
30.81
27.22
22.36
16.51
10.00
3.17
-3.78
-10.77
-17.77
-24.79
-31.87
-39.15
-46.86
-55.31
-64.62
-74.49
-83.95
-91.39
-94.82
-92.44
-83.20
-67.18
-45.64
-20.78
4.88
28.93
49.57
65.67
76.81
83.06
84.87
82.92
78.15
71.64
64.56
57.99
52.66
48.87
46.52
45.22
44.57
44.25
44.02
43.67
42.87
41.18
38.05
33.02
25.72
16.11
4.44
-8.63
-22.12
-34.96
-46.19
-55.33
-62.49
-68.40
-74.02
-80.16
-87.00
-93.86
-99.26
-101.32
-98.34
-89.36
-74.52
-55.07
-33.04
-10.75
9.76
27.00
40.13
48.91
53.49
54.32
52.08
47.56
41.62
35.06
28.56
22.62
17.56
13.53
10.58
8.73
7.87
7.82
8.19
8.49
8.15
6.71
3.95
-0.05
-4.97
-10.33
-15.77
-21.14
-26.64
-32.67
-39.68
-47.92
-57.10
-66.31
-74.02
-78.34
-77.43
-70.10
-56.23
-36.96
-14.45
8.59
29.65
46.89
59.35
66.91
69.96
69.18
65.39
59.48
52.45
45.28
38.80
33.48
29.40
26.31
23.88
21.86
20.22
19.08
18.49
18.33
18.14
17.26
15.02
11.08
5.56
-0.91
-7.47
-13.33
-18.18
-22.34
-26.66
-32.22
-39.82
-49.60
-60.78
-71.68
-80.05
-83.60
-80.60
-70.48
-53.92
-32.86
-9.88
12.31
31.56
46.52
56.76
62.47
64.27
62.94
59.31
54.24
48.56
42.99
38.06
33.94
30.49
27.38
24.36
21.41
18.78
16.83
15.78
15.43
15.16
14.15
11.68
7.43
1.64
-5.06
-11.86
-18.12
-23.53
-28.21
-32.62
-37.44
-43.26
-50.42
-58.67
-67.00
-73.68
-76.59
-73.77
-64.17
-48.02
-26.93
-3.50
19.49
39.70
55.70
66.99
73.72
76.36
75.52
71.90
66.34
59.90
53.69
48.61
45.12
43.03
41.60
39.80
36.66
31.60
24.61
16.20
7.11
-1.96
-10.58
-18.62
-26.13
-33.13
-39.50
-44.92
-49.10
-51.98
-53.82
-55.33
-57.39
-60.86
-66.17
-73.09
-80.55
-86.72
-89.44
-86.79
-77.73
-62.51
-42.65
-20.58
1.07
20.12
35.20
45.83
52.17
54.70
54.07
50.95
46.12
40.39
34.54
29.17
24.56
20.71
17.45
14.66
12.30
10.52
9.42
9.00
8.97
8.78
7.81
5.51
1.63
-3.72
-10.06
-16.73
-23.08
-28.67
-33.58
-38.35
-43.87
-51.03
-60.17
-70.64
-80.70
-87.78
-89.22
-83.17
-69.30
-49.06
-25.28
-1.34
19.81
36.25
47.30
53.28
54.98
53.31
49.10
43.13
36.15
28.87
21.89
15.55
10.00
5.26
1.35
-1.63
-3.62
-4.73
-5.36
-6.14
-7.73
-10.64
-15.04
-20.72
-27.25
-34.20
-41.22
-48.16
-55.04
-62.00
-69.22
-76.67
-83.90
-89.84
-92.71
-90.43
-81.26
-64.52
-41.19
-13.81
14.12
39.17
58.90
72.30
79.67
82.06
80.72
76.72
70.89
64.04
56.98
50.45
44.97
40.63
37.14
34.01
30.96
28.00
25.48
23.78
23.02
22.85
22.45
20.90
17.48
11.97
4.75
-3.37
-11.53
-19.14
-26.15
-33.07
-40.78
-50.05
-61.15
-73.41
-85.11
-93.74
-96.54
-91.35
-77.35
-55.49
-28.27
0.83
28.36
51.70
69.43
81.29
87.71
89.42
87.22
81.96
74.67
66.53
58.70
51.98
46.68
42.56
39.15
36.04
33.10
30.54
28.69
27.72
27.43
27.23
26.22
23.56
18.79
11.96
3.69
-5.12
-13.66
-21.58
-29.10
-36.92
-45.95
-56.81
-69.56
-83.38
-96.53
-106.57
-110.77
-106.85
-93.71
-71.96
-43.94
-13.22
16.34
41.65
60.91
73.78
80.92
83.40
82.30
78.57
73.11
66.88
60.88
55.94
52.49
50.44
49.35
48.66
48.03
47.46
47.17
47.40
48.07
48.71
48.53
46.72
42.84
36.97
29.70
21.83
14.01
6.41
-1.39
-10.25
-21.17
-34.79
-51.10
-69.12
-86.92
-101.76
-110.66
-111.04
-101.58
-82.68
-56.61
-26.98
2.21
27.51
46.85
59.62
66.41
68.33
66.59
62.19
56.02
49.00
42.06
36.02
31.32
27.87
25.17
22.55
19.51
15.95
12.06
8.09
4.09
-0.28
-5.57
-12.20
-20.25
-29.27
-38.47
-47.09
-54.80
-61.86
-69.08
-77.47
-87.69
-99.58
-111.94
-122.59
-128.75
-127.78
-117.90
-98.85
-72.14
-40.77
-8.56
20.76
44.42
61.01
70.52
73.92
72.65
68.20
61.83
54.60
47.34
40.65
34.97
30.47
27.17
25.03
24.00
23.95
24.64
25.64
26.31
25.96
24.08
20.50
15.46
9.50
3.19
-3.09
-9.30
-15.82
-23.21
-32.01
-42.43
-53.97
-65.30
-74.25
-78.31
-75.25
-63.98
-45.03
-20.54
6.36
32.41
55.08
73.04
85.96
94.16
98.14
98.38
95.42
90.05
83.39
76.73
71.22
67.57
65.87
65.69
66.30
66.90
66.81
65.40
62.14
56.49
48.05
36.73
22.94
7.62
-7.97
-22.51
-35.03
-45.18
-53.21
-59.90
-66.32
-73.50
-82.26
-92.86
-104.78
-116.50
-125.62
-129.28
-125.02
-111.71
-90.13
-62.97
-34.05
-7.19
14.86
30.92
41.22
46.75
48.66
47.79
44.76
40.22
34.97
30.00
26.14
23.83
22.92
22.83
22.84
22.46
21.63
20.66
20.06
20.16
20.90
21.71
21.68
19.88
15.72
9.27
1.22
-7.40
-15.61
-22.84
-29.22
-35.39
-42.29
-50.73
-61.05
-72.81
-84.74
-94.81
-100.49
-99.39
-89.96
-72.06
-47.28
-18.59
10.44
36.52
57.44
72.30
81.27
85.10
84.70
80.93
74.65
66.84
58.60
51.01
44.83
40.33
37.24
34.95
32.86
30.64
28.35
26.34
24.97
24.31
23.93
22.99
20.55
15.97
9.17
0.80
-8.15
-16.64
-24.05
-30.41
-36.30
-42.63
-50.23
-59.48
-70.09
-81.00
-90.45
-96.32
-96.48
-89.44
-74.78
-53.50
-27.83
-0.78
24.60
45.96
61.95
72.30
77.45
78.16
75.24
69.44
61.55
52.49
43.25
34.76
27.70
22.28
18.43
15.87
14.29
13.53
13.53
14.17
15.14
15.80
15.31
12.89
8.07
0.95
-7.77
-17.08
-25.94
-33.71
-40.28
-46.11
-52.08
-59.06
-67.60
-77.53
-87.79
-96.48
-101.15
-99.42
-89.74
-71.98
-47.61
-19.47
9.07
34.93
56.01
71.44
81.32
86.32
87.19
84.61
79.23
71.79
63.29
54.86
47.53
42.02
38.55
36.85
36.31
36.24
36.05
35.41
34.27
32.67
30.62
27.94
24.29
19.30
12.87
5.27
-2.90
-10.88
-18.08
-24.32
-29.86
-35.28
-41.29
-48.45
-56.99
-66.74
-77.00
-86.55
-93.72
-96.63
-93.59
-83.61
-66.85
-44.70
-19.55
5.80
28.80
47.70
61.59
70.41
74.54
74.63
71.37
65.56
58.04
49.71
41.42
33.86
27.50
22.56
19.09
17.02
16.24
16.63
18.05
20.24
22.72
24.76
25.41
23.74
19.17
11.67
1.95
-8.84
-19.36
-28.56
-35.95
-41.67
-46.43
-51.15
-56.68
-63.39
-70.98
-78.38
-83.97
-85.97
-82.89
-74.01
-59.60
-40.88
-19.79
1.50
20.99
37.16
49.13
56.61
59.76
59.10
55.33
49.28
41.81
33.75
25.79
18.41
11.96
6.65
2.66
0.15
-0.79
-0.33
1.16
2.99
4.45
4.90
3.96
1.54
-2.15
-6.74
-11.79
-16.99
-22.19
-27.46
-33.13
-39.59
-47.05
-55.32
-63.52
-70.19
-73.51
-71.84
-64.25
-50.88
-32.99
-12.63
7.83
26.30
41.29
52.04
58.42
60.74
59.58
55.58
49.49
42.06
34.02
26.06
18.71
12.37
7.27
3.52
1.12
0.04
0.11
1.01
2.29
3.35
3.57
2.49
-0.05
-3.92
-8.71
-13.91
-19.08
-23.96
-28.66
-33.54
-39.18
-46.05
-54.19
-62.97
-70.96
-76.26
-76.96
-71.74
-60.32
-43.60
-23.42
-2.12
18.07
35.40
48.76
57.70
62.25
62.81
60.00
54.66
47.69
40.04
32.55
25.85
20.30
15.98
12.78
10.54
9.10
8.37
8.26
8.61
9.15
9.47
9.08
7.56
4.65
0.36
-5.00
-10.91
-16.77
-22.16
-26.92
-31.30
-35.89
-41.36
-48.16
-56.16
-64.42
-71.28
-74.74
-73.02
-65.12
-51.19
-32.52
-11.23
10.31
29.96
46.20
58.21
65.83
69.33
69.22
66.13
60.74
53.82
46.17
38.59
31.81
26.34
22.45
20.14
19.22
19.42
20.42
21.93
23.70
25.39
26.65
27.12
26.53
24.75
21.95
18.45
14.66
10.85
7.13
3.35
-0.74
-5.42
-10.84
-16.97
-23.52
-29.94
-35.47
-39.18
-40.23
-38.03
-32.50
-24.08
-13.78
-2.87
7.30
15.61
21.37
24.32
24.64
22.78
19.32
14.81
9.74
4.55
-0.38
-4.69
-8.00
-10.04
-10.66
-9.92
-8.08
-5.53
-2.75
-0.21
1.71
2.73
2.72
1.68
-0.26
-2.87
-5.81
-8.75
-11.39
-13.66
-15.68
-17.84
-20.64
-24.49
-29.44
-34.98
-40.04
-43.22
-43.24
-39.40
-31.84
-21.52
-9.90
1.47
11.33
18.85
23.71
25.89
25.61
23.20
19.07
13.63
7.34
0.64
-5.94
-11.88
-16.63
-19.77
-21.14
-20.81
-19.11
-16.55
-13.67
-11.02
-9.04
-8.05
-8.17
-9.39
-11.50
-14.21
-17.25
-20.48
-23.89
-27.66
-31.98
-36.86
-41.95
-46.41
-49.01
-48.43
-43.70
-34.54
-21.60
-6.19
9.94
25.13
38.09
48.02
54.57
57.71
57.65
54.74
49.53
42.72
35.09
27.46
20.53
14.82
10.57
7.78
6.27
5.79
6.00
6.52
6.94
6.80
5.77
3.68
0.67
-2.90
-6.66
-10.45
-14.44
-19.03
-24.72
-31.69
-39.66
-47.79
-54.84
-59.38
-60.16
-56.37
-47.91
-35.46
-20.34
-4.29
10.91
23.80
33.46
39.54
42.20
41.85
39.03
34.36
28.47
22.03
15.69
9.97
5.21
1.46
-1.38
-3.50
-4.98
-5.78
-5.78
-4.95
-3.60
-2.36
-2.03
-3.31
-6.47
-11.20
-16.76
-22.28
-27.08
-30.97
-34.26
-37.65
-41.92
-47.55
-54.51
-62.03
-68.68
-72.69
-72.31
-66.39
-54.69
-38.03
-18.12
2.85
22.71
39.74
52.89
61.79
66.64
67.93
66.32
62.47
57.06
50.80
44.37
38.44
33.49
29.80
27.34
25.87
25.10
24.74
24.60
24.61
24.68
24.67
24.23
22.90
20.23
15.93
10.09
3.13
-4.29
-11.49
-18.01
-23.79
-29.08
-34.40
-40.34
-47.30
-55.31
-63.83
-71.70
-77.26
-78.74
-74.69
-64.53
-48.79
-29.04
-7.58
13.24
31.43
45.77
55.84
61.79
64.14
63.46
60.33
55.32
49.09
42.40
36.00
30.52
26.33
23.49
21.81
20.98
20.69
20.72
20.93
21.25
21.54
21.63
21.18
19.84
17.32
13.47
8.40
2.43
-4.00
-10.51
-16.89
-23.12
-29.35
-35.79
-42.71
-50.31
-58.65
-67.44
-75.95
-82.88
-86.60
-85.53
-78.62
-65.75
-47.85
-26.67
-4.43
16.69
34.94
49.20
58.92
64.06
64.97
62.20
56.51
48.80
40.08
31.43
23.89
18.25
14.95
13.97
14.87
16.94
19.46
21.92
24.05
25.79
27.10
27.82
27.62
26.08
22.90
18.14
12.20
5.74
-0.60
-6.43
-11.76
-16.95
-22.52
-28.97
-36.50
-44.86
-53.29
-60.49
-64.91
-65.04
-59.88
-49.28
-34.06
-15.84
3.38
21.60
37.23
49.21
57.05
60.74
60.68
57.58
52.31
45.77
38.74
31.81
25.34
19.57
14.64
10.65
7.70
5.87
5.10
5.15
5.61
5.93
5.55
4.08
1.41
-2.30
-6.68
-11.33
-15.99
-20.55
-25.22
-30.38
-36.44
-43.62
-51.67
-59.69
-66.18
-69.37
-67.73
-60.51
-48.06
-31.69
-13.34
4.96
21.46
34.95
44.72
50.54
52.54
51.21
47.27
41.57
34.94
28.04
21.35
15.20
9.88
5.70
2.95
1.78
2.04
3.32
4.95
6.24
6.65
5.94
4.14
1.46
-1.89
-5.89
-10.68
-16.54
-23.75
-32.48
-42.66
-53.83
-65.10
-75.06
-81.96
-83.98
-79.80
-68.97
-52.21
-31.36
-8.91
12.53
30.83
44.68
53.63
57.99
58.49
56.04
51.51
45.67
39.12
32.37
25.82
19.81
14.63
10.50
7.63
6.06
5.71
6.23
7.08
7.59
7.14
5.37
2.25
-1.90
-6.60
-11.43
-16.18
-20.92
-26.00
-31.89
-38.97
-47.35
-56.63
-65.73
-73.01
-76.54
-74.55
-66.09
-51.30
-31.54
-9.03
13.65
34.19
50.93
62.95
70.14
72.86
71.84
67.98
62.26
55.69
49.14
43.21
38.11
33.67
29.44
24.97
20.05
14.80
9.64
5.06
1.33
-1.66
-4.34
-7.24
-10.79
-15.07
-19.82
-24.62
-29.09
-33.17
-37.17
-41.77
-47.67
-55.29
-64.42
-74.02
-82.30
-87.04
-86.15
-78.28
-63.30
-42.39
-17.84
7.58
31.25
51.20
66.34
76.36
81.52
82.40
79.73
74.37
67.28
59.41
51.63
44.56
38.45
33.32
29.07
25.64
23.10
21.57
21.06
21.29
21.68
21.37
19.59
15.90
10.34
3.44
-3.99
-11.19
-17.74
-23.77
-29.90
-37.00
-45.73
-56.14
-67.32
-77.47
-84.29
-85.64
-80.19
-67.87
-49.84
-28.17
-5.36
16.27
34.87
49.30
59.11
64.45
65.83
64.01
59.79
53.91
47.09
39.93
32.96
26.64
21.32
17.21
14.38
12.79
12.23
12.36
12.73
12.85
12.24
10.55
7.64
3.56
-1.44
-7.12
-13.32
-20.13
-27.86
-36.86
-47.29
-58.75
-70.05
-79.33
-84.44
-83.50
-75.58
-60.97
-41.23
-18.71
3.97
24.48
41.18
53.22
60.43
63.16
62.06
57.93
51.59
43.84
35.44
27.08
19.42
13.02
8.26
5.25
3.78
3.39
3.49
3.46
2.89
1.51
-0.73
-3.78
-7.53
-11.92
-17.00
-22.91
-29.95
-38.39
-48.29
-59.19
-69.93
-78.67
-83.19
-81.47
-72.38
-56.15
-34.46
-10.12
13.75
34.43
50.24
60.68
66.19
67.65
65.93
61.74
55.56
47.91
39.47
31.10
23.65
17.74
13.63
11.15
9.84
9.09
8.37
7.24
5.48
2.97
-0.30
-4.30
-8.99
-14.33
-20.37
-27.24
-35.21
-44.59
-55.50
-67.57
-79.65
-89.80
-95.50
-94.36
-84.85
-67.08
-42.90
-15.48
11.51
34.97
53.00
65.09
71.74
73.98
72.81
69.00
63.18
55.95
48.07
40.32
33.45
27.98
24.14
21.83
20.77
20.48
20.42
20.01
18.70
16.10
12.09
6.88
0.84
-5.56
-12.05
-18.67
-25.84
-34.16
-44.23
-56.27
-69.74
-83.14
-94.03
-99.47
-96.82
-84.68
-63.53
-35.86
-5.46
23.65
48.27
66.71
78.66
84.79
86.12
83.68
78.42
71.36
63.56
56.01
49.39
43.89
39.34
35.41
31.89
28.88
26.64
25.41
25.15
25.42
25.40
24.17
20.93
15.35
7.73
-1.11
-10.15
-18.49
-25.83
-32.52
-39.48
-47.87
-58.47
-71.26
-85.04
-97.51
-105.59
-106.27
-97.58
-79.32
-53.32
-23.03
7.53
34.78
56.50
71.89
81.32
85.62
85.68
82.25
76.08
68.13
59.54
51.48
44.82
39.92
36.62
34.42
32.80
31.41
30.22
29.39
29.16
29.48
29.99
29.93
28.40
24.68
18.52
10.33
1.01
-8.36
-16.96
-24.52
-31.37
-38.30
-46.26
-55.96
-67.59
-80.62
-93.70
-104.72
-111.08
-110.28
-100.70
-82.25
-56.57
-26.78
3.43
30.73
52.89
68.97
79.04
83.74
83.82
80.06
73.30
64.61
55.18
46.26
38.76
33.09
29.14
26.45
24.45
22.79
21.43
20.55
20.38
20.84
21.46
21.37
19.68
15.73
9.53
1.69
-6.73
-14.66
-21.44
-27.10
-32.36
-38.32
-46.05
-56.10
-68.11
-80.70
-91.58
-98.04
-97.56
-88.61
-71.13
-46.80
-18.59
9.92
35.44
55.71
69.74
77.66
80.26
78.58
73.69
66.60
58.36
49.98
42.33
35.90
30.79
26.75
23.51
20.95
19.19
18.42
18.68
19.64
20.55
20.49
18.70
14.81
9.02
1.94
-5.63
-13.01
-19.87
-26.35
-33.00
-40.54
-49.51
-59.91
-70.90
-80.71
-86.93
-87.11
-79.52
-63.83
-41.38
-14.94
12.06
36.40
55.85
69.43
77.34
80.46
79.89
76.63
71.43
64.93
57.68
50.28
43.27
37.06
31.92
27.85
24.76
22.43
20.61
19.02
17.37
15.30
12.49
8.72
3.92
-1.76
-7.99
-14.47
-21.03
-27.81
-35.16
-43.47
-52.85
-62.82
-72.16
-79.00
-81.28
-77.31
-66.38
-49.15
-27.56
-4.38
17.47
35.71
49.10
57.41
61.16
61.12
57.98
52.28
44.50
35.23
25.27
15.58
7.03
0.24
-4.56
-7.55
-9.15
-9.90
-10.25
-10.54
-10.93
-11.53
-12.44
-13.87
-16.11
-19.56
-24.58
-31.34
-39.73
-49.09
-58.22
-65.46
-69.02
-67.39
-59.90
-46.90
-29.82
-10.75
8.05
24.63
37.69
46.58
51.21
51.79
48.73
42.59
34.13
24.32
14.29
5.12
-2.38
-7.80
-11.25
-13.15
-14.03
-14.39
-14.51
-14.55
-14.59
-14.76
-15.26
-16.34
-18.30
-21.43
-25.95
-31.97
-39.45
-47.91
-56.45
-63.59
-67.52
-66.51
-59.46
-46.31
-28.29
-7.59
13.14
31.52
45.92
55.67
60.86
61.99
59.60
54.21
46.29
36.52
25.85
15.47
6.54
-0.14
-4.39
-6.57
-7.47
-7.88
-8.31
-8.91
-9.57
-10.12
-10.54
-11.05
-12.06
-14.09
-17.67
-23.17
-30.67
-39.75
-49.34
-57.78
-63.11
-63.49
-57.77
-45.91
-29.06
-9.26
10.99
29.34
44.02
54.12
59.51
60.70
58.54
53.87
47.46
39.92
31.78
23.58
15.93
9.45
4.60
1.58
0.21
-0.01
0.25
0.35
-0.10
-1.22
-2.97
-5.24
-8.01
-11.37
-15.46
-20.46
-26.44
-33.43
-41.34
-49.87
-58.41
-65.80
-70.48
-70.65
-64.96
-52.96
-35.50
-14.64
6.89
26.43
42.05
52.85
58.90
60.91
59.74
56.22
50.95
44.41
37.02
29.25
21.62
14.72
9.09
5.17
3.17
2.99
4.21
6.17
8.09
9.22
9.04
7.29
3.99
-0.60
-6.17
-12.36
-18.99
-26.03
-33.59
-41.83
-50.69
-59.70
-67.80
-73.43
-74.83
-70.55
-60.02
-43.88
-23.94
-2.68
17.34
34.19
46.80
54.99
59.17
60.01
58.23
54.50
49.38
43.41
37.06
30.77
24.92
19.86
15.86
13.07
11.50
10.96
11.11
11.51
11.68
11.18
9.72
7.21
3.80
-0.19
-4.41
-8.73
-13.36
-18.79
-25.58
-34.00
-43.71
-53.70
-62.34
-67.74
-68.11
-62.30
-50.09
-32.48
-11.51
10.10
29.63
45.00
55.15
60.14
60.79
58.26
53.58
47.52
40.56
33.06
25.43
18.13
11.64
6.36
2.54
0.19
-0.88
-1.03
-0.71
-0.39
-0.49
-1.27
-2.86
-5.25
-8.35
-12.04
-16.21
-20.87
-26.12
-32.13
-38.94
-46.30
-53.43
-59.02
-61.46
-59.24
-51.54
-38.55
-21.57
-2.68
15.78
31.82
44.20
52.46
56.86
57.95
56.33
52.50
46.84
39.71
31.66
23.42
15.85
9.78
5.74
3.80
3.60
4.41
5.51
6.34
6.71
6.70
6.50
6.22
5.74
4.67
2.45
-1.57
-7.92
-16.89
-28.28
-41.21
-54.01
-64.36
-69.82
-68.57
-60.07
-45.37
-26.91
-7.75
9.30
22.39
30.86
35.00
35.61
33.49
29.29
23.51
16.64
9.29
2.16
-4.10
-8.99
-12.28
-14.02
-14.44
-13.97
-13.06
-12.19
-11.76
-12.04
-13.14
-15.01
-17.51
-20.54
-24.09
-28.31
-33.48
-39.87
-47.58
-56.34
-65.27
-72.85
-77.04
-75.77
-67.60
-52.37
-31.44
-7.49
16.26
36.90
52.56
62.69
67.76
68.77
66.74
62.47
56.53
49.49
42.00
34.78
28.49
23.48
19.81
17.28
15.68
14.85
14.70
15.12
15.80
16.17
15.57
13.43
9.58
4.34
-1.59
-7.44
-12.66
-17.15
-21.34
-26.03
-32.02
-39.75
-48.92
-58.37
-66.18
-70.10
-68.21
-59.43
-44.05
-23.65
-0.80
21.67
41.27
56.43
66.55
71.93
73.31
71.55
67.44
61.70
55.04
48.26
42.15
37.29
33.93
31.91
30.86
30.48
30.64
31.51
33.20
35.61
38.22
40.18
40.61
38.99
35.37
30.39
24.97
19.98
15.92
12.81
10.33
8.04
5.50
2.45
-1.17
-5.07
-8.62
-10.88
-10.73
-7.39
-0.69
8.67
19.22
29.20
36.99
41.61
42.75
40.65
35.83
28.92
20.53
11.25
1.70
-7.52
-15.87
-22.94
-28.49
-32.40
-34.70
-35.46
-34.82
-32.96
-30.09
-26.53
-22.73
-19.27
-16.80
-15.89
-16.85
-19.64
-23.81
-28.74
-33.80
-38.67
-43.37
-48.25
-53.80
-60.26
-67.43
-74.40
-79.79
-81.99
-79.82
-72.92
-61.97
-48.51
-34.48
-21.62
-11.07
-3.26
1.89
4.68
5.38
4.20
1.34
-2.84
-7.81
-12.93
-17.57
-21.21
-23.56
-24.53
-24.23
-22.90
-20.85
-18.47
-16.14
-14.19
-12.92
-12.46
-12.83
-13.87
-15.41
-17.26
-19.35
-21.79
-24.84
-28.78
-33.67
-39.15
-44.30
-47.76
-48.00
-43.75
-34.46
-20.52
-3.22
15.53
33.66
49.36
61.38
69.20
72.85
72.81
69.80
64.59
58.01
50.89
44.00
38.06
