1537547130.00
64.000000
-0.00
-0.00
-0.00
-0.00
-0.00
-0.00
-0.00
-0.00
-0.00
-0.00
0.00
0.01
0.01
-0.00
-0.03
-0.05
-0.05
0.00
0.13
0.36
0.66
1.01
1.37
1.72
2.06
2.40
2.79
3.24
3.80
4.42
5.06
5.66
6.20
6.68
7.15
7.68
8.31
9.14
10.09
11.04
11.88
12.56
13.14
13.76
14.65
15.96
17.91
20.32
22.90
25.38
27.58
29.57
31.68
34.32
37.81
42.54
48.15
54.10
59.83
64.97
69.58
74.14
79.34
85.71
93.76
103.00
112.62
121.73
129.77
136.75
143.30
150.75
157.77
166.64
177.95
191.79
206.97
220.57
228.25
225.36
208.53
176.87
132.76
80.05
23.07
-34.94
-92.44
-149.16
-205.23
-260.37
-313.74
-363.87
-409.83
-450.91
-486.50
-515.74
-537.23
-549.22
-549.96
-538.37
-514.21
-478.67
-433.88
-382.45
-327.02
-269.84
-212.63
-156.66
-102.95
-52.37
-5.90
35.58
71.43
101.35
125.50
144.38
158.69
169.15
176.37
180.75
182.57
182.07
179.51
175.23
169.65
163.18
156.15
148.81
141.30
133.69
126.02
118.33
110.69
103.16
95.80
88.68
81.83
75.25
68.95
62.95
57.25
51.86
46.78
42.03
37.59
33.45
29.61
26.07
22.81
19.83
17.11
14.67
12.48
10.54
8.83
7.35
6.07
4.97
4.05
3.27
2.62
2.09
1.65
1.30
1.01
0.79
0.61
0.47
0.37
0.29
0.23
0.19
0.17
0.16
0.16
0.17
0.19
0.21
0.24
0.28
0.32
0.36
0.40
0.45
0.50
0.54
0.59
0.65
0.70
0.76
0.83
0.90
0.98
1.06
1.16
1.26
1.38
1.51
1.66
1.82
2.01
2.21
2.44
2.69
2.97
3.27
3.61
3.99
4.39
4.83
5.31
5.82
6.37
6.95
7.59
8.27
9.01
9.80
10.62
11.47
12.33
13.17
14.05
14.99
16.01
17.14
18.37
19.64
20.89
22.03
22.96
23.58
23.81
23.57
22.77
21.35
19.20
16.30
12.66
8.35
3.59
-1.34
-6.13
-10.53
-14.37
-17.63
-20.38
-22.70
-24.64
-26.17
-27.15
-27.44
-27.01
-25.99
-24.72
-23.59
-22.95
-22.93
-23.35
-23.81
-23.89
-23.30
-22.12
-20.77
-19.84
-19.86
-20.97
-22.90
-25.00
-26.67
-27.47
-27.47
-27.08
-26.89
-27.44
-29.14
-32.23
-36.75
-42.22
-47.32
-49.94
-47.77
-39.24
-24.53
-5.82
13.37
29.46
40.28
45.57
46.69
45.61
43.80
41.88
39.77
37.38
34.98
33.23
32.65
33.25
34.31
34.79
33.69
30.61
26.01
20.90
16.43
13.38
11.85
11.27
10.73
9.37
6.81
3.21
-0.81
-4.54
-7.50
-9.60
-11.15
-12.68
-14.62
-17.12
-19.96
-22.79
-25.35
-27.63
-29.92
-32.57
-35.67
-38.88
-41.54
-42.94
-42.68
-40.87
-38.04
-34.78
-31.47
-28.08
-24.34
-19.89
-14.56
-8.53
-2.19
3.95
9.44
13.99
17.52
20.05
21.76
22.87
23.68
24.46
25.39
26.51
27.72
28.79
29.53
29.88
29.93
29.89
29.99
30.29
30.73
31.07
31.14
30.84
30.27
29.58
28.92
28.28
27.47
26.29
24.62
22.55
20.39
18.49
17.06
16.02
15.09
13.90
12.26
10.25
8.21
6.52
5.40
4.78
4.31
3.52
2.04
-0.19
-2.94
-5.74
-8.13
-9.85
-10.97
-11.86
-12.94
-14.53
-16.64
-19.05
-21.41
-23.50
-25.31
-27.03
-29.00
-31.51
-34.74
-38.69
-43.13
-47.59
-51.38
-53.84
-54.44
-53.08
-50.03
-45.81
-40.85
-35.41
-29.49
-23.10
-16.44
-9.96
-4.20
0.47
4.02
6.75
9.14
11.47
13.81
16.02
17.98
19.68
21.27
22.95
24.82
26.91
29.08
31.17
32.99
34.33
34.98
34.81
33.89
32.45
30.85
29.39
28.18
27.02
25.61
23.70
21.36
18.95
16.96
15.70
15.14
14.87
14.32
13.12
11.27
9.13
7.18
5.77
4.83
3.98
2.76
0.85
-1.68
-4.54
-7.34
-9.88
-12.15
-14.30
-16.43
-18.57
-20.75
-22.96
-25.30
-27.93
-30.99
-34.48
-38.23
-41.95
-45.20
-47.62
-48.85
-48.71
-47.13
-44.16
-39.97
-34.83
-29.12
-23.21
-17.52
-12.28
-7.53
-3.10
1.27
5.73
10.25
14.57
18.39
21.51
23.94
25.86
27.43
28.68
29.54
29.95
30.01
30.04
30.39
31.35
32.87
34.65
36.18
36.92
36.54
34.92
32.28
29.05
25.82
23.16
21.43
20.72
20.76
21.05
21.07
20.46
19.18
17.45
15.61
13.93
12.51
11.21
9.86
8.34
6.69
5.06
3.60
2.34
1.16
-0.15
-1.73
-3.61
-5.69
-7.81
-9.85
-11.80
-13.70
-15.55
-17.25
-18.71
-19.86
-20.83
-21.94
-23.53
-25.79
-28.60
-31.61
-34.34
-36.46
-37.93
-38.94
-39.68
-40.23
-40.39
-39.86
-38.47
-36.26
-33.54
-30.62
-27.61
-24.31
-20.36
-15.49
-9.78
-3.78
1.79
6.28
9.45
11.49
12.81
13.84
14.76
15.61
16.32
16.90
17.41
17.95
18.51
19.02
19.35
19.40
19.13
18.55
17.64
16.36
14.72
12.83
10.95
9.34
8.17
7.36
6.62
5.59
4.02
1.90
-0.50
-2.80
-4.75
-6.38
-8.02
-10.12
-12.98
-16.61
-20.75
-24.98
-28.97
-32.54
-35.63
-38.12
-39.81
-40.33
-39.42
-37.01
-33.34
-28.84
-23.97
-19.01
-14.09
-9.21
-4.32
0.51
5.14
9.39
13.05
16.02
18.23
19.75
20.69
21.25
21.67
22.17
22.90
23.88
24.97
25.92
26.42
26.19
25.13
23.32
21.06
18.76
16.81
15.38
14.32
13.28
11.85
9.80
7.20
4.31
1.45
-1.22
-3.75
-6.37
-9.28
-12.56
-16.06
-19.45
-22.39
-24.60
-25.93
-26.37
-26.01
-25.00
-23.44
-21.42
-19.08
-16.57
-14.07
-11.71
-9.46
-7.11
-4.33
-0.84
3.44
8.31
13.33
18.01
21.90
24.75
26.54
27.41
27.61
27.39
27.01
26.66
26.49
26.59
26.99
27.63
28.34
28.86
28.94
28.48
27.59
26.61
25.86
25.55
25.63
25.86
25.95
25.69
25.03
23.96
22.49
20.58
18.30
15.81
13.47
11.71
10.76
10.61
10.92
11.16
10.80
9.47
7.10
3.96
0.54
-2.50
-4.62
-5.61
-5.65
-5.28
-5.12
-5.55
-6.56
-7.79
-8.80
-9.35
-9.63
-10.12
-11.32
-13.47
-16.39
-19.59
-22.61
-25.24
-27.61
-30.05
-32.69
-35.36
-37.54
-38.74
-38.77
-37.86
-36.61
-35.49
-34.68
-33.85
-32.46
-30.04
-26.42
-21.77
-16.50
-11.03
-5.67
-0.66
3.84
7.74
11.03
13.83
16.29
18.49
20.36
21.73
22.41
22.39
21.86
21.24
20.89
20.97
21.38
21.76
21.80
21.29
20.32
19.16
18.10
17.34
16.86
16.52
16.10
15.49
14.70
13.87
13.18
12.73
12.50
12.30
11.86
10.90
9.29
7.08
4.54
2.04
-0.09
-1.66
-2.74
-3.57
-4.48
-5.72
-7.36
-9.36
-11.60
-14.00
-16.52
-19.22
-22.18
-25.46
-29.03
-32.76
-36.39
-39.60
-42.07
-43.60
-44.12
-43.68
-42.42
-40.38
-37.51
-33.73
-29.06
-23.74
-18.19
-12.83
-7.92
-3.48
0.63
4.53
8.17
11.38
13.91
15.70
16.84
17.52
17.91
18.12
18.20
18.28
18.54
19.18
20.27
21.61
22.81
23.46
23.36
22.64
21.70
20.95
20.63
20.64
20.63
20.25
19.29
17.91
16.43
15.19
14.38
13.88
13.42
12.74
11.67
10.26
8.63
6.91
5.16
3.42
1.73
0.30
-0.65
-0.90
-0.40
0.66
1.93
2.99
3.54
3.43
2.79
1.86
0.96
0.29
-0.11
-0.47
-1.08
-2.22
-3.94
-5.94
-7.72
-8.88
-9.29
-9.19
-9.12
-9.49
-10.45
-11.72
-12.82
-13.30
-12.93
-11.80
-10.20
-8.40
-6.62
-4.91
-3.28
-1.69
-0.14
1.39
2.86
4.23
5.39
6.23
6.70
6.83
6.75
6.61
6.50
6.44
6.37
6.15
5.72
5.03
4.14
3.16
2.16
1.18
0.24
-0.63
-1.35
-1.87
-2.23
-2.51
-2.86
-3.34
-3.88
-4.28
-4.33
-3.95
-3.32
-2.73
-2.52
-2.81
-3.53
-4.42
-5.24
-5.89
-6.44
-7.05
-7.85
-8.79
-9.74
-10.55
-11.18
-11.78
-12.64
-14.04
-16.10
-18.70
-21.47
-24.02
-26.08
-27.63
-28.92
-30.32
-32.10
-34.31
-36.69
-38.80
-40.16
-40.50
-39.82
-38.30
-36.19
-33.62
-30.56
-26.94
-22.71
-18.07
-13.43
-9.27
-5.88
-3.16
-0.68
2.10
5.44
9.23
12.93
15.92
17.81
18.65
18.83
18.89
19.21
19.90
20.86
21.86
22.72
23.30
23.53
23.34
22.74
21.83
20.84
20.03
19.50
19.27
19.15
18.87
18.18
16.97
15.31
13.38
11.48
9.84
8.61
7.77
7.13
6.48
5.62
4.48
3.12
1.66
0.11
-1.57
-3.49
-5.72
-8.22
-10.89
-13.58
-16.27
-19.08
-22.21
-25.81
-29.82
-33.91
-37.47
-39.92
-40.87
-40.30
-38.55
-36.19
-33.61
-31.00
-28.23
-25.04
-21.19
-16.65
-11.61
-6.35
-1.25
3.37
7.22
10.13
12.06
13.16
13.72
14.07
14.47
15.04
15.79
16.71
17.78
18.99
20.26
21.44
22.27
22.57
22.32
21.71
21.10
20.82
21.07
21.78
22.78
23.72
24.36
24.52
24.10
23.13
21.68
19.97
18.24
16.79
15.73
15.05
14.53
13.87
12.88
11.52
9.93
8.32
6.85
5.51
4.17
2.64
0.85
-1.13
-3.17
-5.12
-7.04
-9.06
-11.35
-13.95
-16.67
-19.21
-21.23
-22.72
-23.89
-25.24
-27.21
-30.02
-33.48
-37.10
-40.31
-42.69
-44.14
-44.82
-45.00
-44.87
-44.40
-43.43
-41.71
-39.04
-35.36
-30.73
-25.36
-19.54
-13.60
-7.90
-2.75
1.72
5.50
8.74
11.57
14.07
16.21
17.91
19.17
20.11
20.97
22.01
23.34
24.89
26.46
27.72
28.46
28.59
28.19
27.38
26.33
25.15
23.96
22.86
21.94
21.23
20.72
20.36
20.02
19.58
18.96
18.15
17.21
16.25
15.40
14.76
14.35
14.10
13.80
13.22
12.15
10.51
8.42
6.19
4.15
2.51
1.19
-0.14
-1.95
-4.58
-8.04
-12.01
-15.94
-19.39
-22.25
-24.80
-27.49
-30.71
-34.57
-38.94
-43.53
-48.18
-52.79
-57.32
-61.59
-65.27
-67.96
-69.42
-69.68
-69.03
-67.85
-66.42
-64.87
-63.24
-61.62
-60.13
-58.87
-57.80
-56.80
-55.76
-54.76
-54.10
-54.14
-55.04
-56.56
-58.04
-58.63
-57.54
-54.31
-48.78
-40.95
-30.96
-18.96
-5.18
10.07
26.34
43.06
59.51
74.90
88.43
99.41
107.49
112.63
115.11
115.40
113.89
110.93
106.77
101.70
96.05
90.19
84.42
78.90
73.65
68.58
63.53
58.34
52.91
47.25
41.50
35.83
30.37
25.12
19.92
14.50
8.74
2.69
-3.38
-9.20
-14.67
-19.88
-25.05
-30.16
-34.88
-38.53
-40.47
-40.40
-38.67
-36.03
-33.25
-30.70
-28.11
-24.80
-20.03
-13.56
-5.76
2.50
10.13
16.25
20.28
22.03
21.61
19.39
16.02
12.35
9.38
8.02
8.90
12.09
17.07
22.93
28.53
32.95
35.61
36.46
35.78
34.11
31.96
29.74
27.72
26.04
24.82
24.07
23.73
23.57
23.37
22.85
21.87
20.50
18.90
17.37
16.11
15.27
14.78
14.51
14.30
14.00
13.45
12.39
10.50
7.37
2.73
-3.46
-10.89
-18.94
-26.84
-33.76
-39.03
-42.20
-43.18
-42.28
-40.24
-38.08
-36.86
-37.32
-39.65
-43.38
-47.54
-51.02
-52.91
-52.73
-50.53
-46.66
-41.62
-35.88
-29.82
-23.76
-18.02
-12.88
-8.45
-4.57
-0.80
3.38
8.28
13.77
19.22
23.72
26.59
27.63
27.28
26.34
25.58
25.36
25.56
25.75
25.54
24.73
23.45
21.98
20.62
19.63
19.23
19.57
20.74
22.64
24.99
27.30
29.10
30.06
30.07
29.26
27.84
26.02
23.92
21.60
19.13
16.59
14.09
11.73
9.66
7.89
6.42
5.13
3.87
2.49
0.84
-1.16
-3.57
-6.36
-9.47
-12.75
-15.94
-18.80
-21.18
-23.18
-25.18
-27.74
-31.29
-35.96
-41.33
-46.53
-50.50
-52.35
-51.70
-48.71
-43.94
-38.10
-31.81
-25.42
-19.14
-13.07
-7.30
-1.92
3.00
7.43
11.39
14.91
17.98
20.65
23.01
25.15
27.19
29.14
30.94
32.47
33.62
34.37
34.79
34.99
35.05
34.97
34.68
34.03
32.95
31.37
29.35
27.00
24.49
21.98
19.56
17.23
14.86
12.28
9.36
6.07
2.53
-1.07
-4.49
-7.61
-10.46
-13.23
-16.24
-19.84
-24.26
-29.48
-35.17
-40.70
-45.27
-48.15
-48.86
-47.25
-43.55
-38.30
-32.18
-25.88
-19.91
-14.50
-9.58
-4.93
-0.33
4.34
8.86
12.88
15.97
17.81
18.31
17.62
16.05
13.99
11.81
9.83
8.28
7.24
6.71
6.69
7.21
8.41
10.39
13.10
16.19
19.03
20.89
21.19
19.81
17.14
13.93
10.96
8.69
7.07
5.56
3.37
-0.20
-5.41
-12.06
-19.58
-27.34
-34.79
-41.62
-47.50
-51.95
-54.31
-53.88
-50.34
-43.84
-35.03
-24.76
-13.72
-2.20
9.71
21.77
33.30
43.11
50.01
53.33
53.36
51.37
49.09
48.02
48.80
51.09
53.84
55.81
56.02
54.06
50.00
44.29
37.55
30.48
23.77
17.87
12.95
8.80
5.05
1.45
-1.98
-4.86
-6.75
-7.46
-7.38
-7.40
-8.68
-12.13
-18.12
-26.28
-35.57
-44.56
-51.78
-56.01
-56.59
-53.60
-47.93
-41.19
-35.37
-32.38
-33.55
-39.13
-48.18
-58.67
-68.03
-73.84
-74.45
-69.46
-59.68
-46.82
-32.87
-19.56
-8.09
0.93
7.26
10.90
11.95
10.72
7.75
3.86
0.05
-2.74
-3.80
-2.84
0.07
4.48
9.80
15.41
20.91
26.12
31.10
35.91
40.46
44.44
47.47
49.19
49.55
48.79
47.33
45.71
44.34
43.52
43.44
44.20
45.83
48.36
51.77
55.95
60.65
65.38
69.46
72.07
72.55
70.64
66.61
61.17
55.15
49.20
43.59
38.17
32.61
26.63
20.21
13.60
7.25
1.46
-3.69
-8.48
-13.40
-18.89
-25.12
-31.90
-38.73
-45.03
-50.38
-54.65
-57.98
-60.62
-62.77
-64.55
-66.00
-67.18
-68.21
-69.15
-69.98
-70.41
-70.01
-68.26
-64.84
-59.69
-53.15
-45.75
-38.06
-30.45
-23.09
-16.05
-9.40
-3.36
1.80
5.92
9.08
11.64
14.11
16.92
20.25
23.98
27.72
31.01
33.46
34.81
34.99
34.08
32.36
30.22
28.07
26.19
24.66
23.37
22.14
20.86
19.56
18.35
17.35
16.52
15.75
14.88
13.86
12.74
11.66
10.70
9.90
9.12
8.29
7.35
6.39
5.55
4.97
4.75
4.87
5.20
5.49
5.48
5.00
4.08
2.95
1.90
1.18
0.78
0.43
-0.32
-1.86
-4.46
-8.14
-12.75
-17.95
-23.24
-28.00
-31.54
-33.28
-33.03
-31.15
-28.52
-26.24
-25.27
-26.02
-28.26
-31.20
-33.89
-35.46
-35.44
-33.74
-30.55
-26.24
-21.15
-15.66
-10.16
-5.07
-0.78
2.49
4.72
6.20
7.40
8.73
10.42
12.38
14.28
15.74
16.56
16.72
16.40
15.81
15.15
14.48
13.82
13.20
12.65
12.22
11.97
11.94
12.13
12.47
12.78
12.83
12.39
11.38
9.89
8.18
6.54
5.17
4.10
3.26
2.49
1.66
0.74
-0.26
-1.27
-2.14
-2.76
-3.03
-2.96
-2.71
-2.47
-2.40
-2.51
-2.66
-2.70
-2.65
-2.69
-3.10
-3.99
-5.24
-6.41
-7.11
-7.22
-7.03
-7.10
-7.91
-9.59
-11.78
-13.91
-15.51
-16.52
-17.24
-18.13
-19.51
-21.41
-23.60
-25.75
-27.65
-29.20
-30.28
-30.69
-30.10
-28.22
-25.00
-20.75
-16.07
-11.61
-7.86
-4.90
-2.62
-0.78
0.75
1.92
2.71
3.19
3.62
4.34
5.54
7.11
8.67
9.71
9.99
9.59
8.97
8.68
9.12
10.35
12.09
13.88
15.25
15.93
15.88
15.18
14.03
12.63
11.18
9.84
8.78
8.09
7.76
7.64
7.48
7.01
6.09
4.77
3.21
1.69
0.37
-0.68
-1.46
-2.03
-2.38
-2.59
-2.73
-3.01
-3.60
-4.61
-6.00
-7.55
-9.05
-10.36
-11.60
-12.99
-14.76
-17.02
-19.64
-22.30
-24.63
-26.37
-27.42
-27.97
-28.28
-28.56
-28.84
-28.93
-28.53
-27.43
-25.65
-23.37
-20.86
-18.25
-15.54
-12.62
-9.40
-6.00
-2.68
0.22
2.51
4.20
5.51
6.74
8.10
9.68
11.37
12.97
14.20
14.91
15.09
14.91
14.65
14.52
14.61
14.75
14.71
14.22
13.29
12.09
10.95
10.21
10.05
10.43
11.13
11.87
12.35
12.35
11.74
10.52
8.84
6.96
5.20
3.82
2.99
2.68
2.76
2.94
3.02
2.85
2.43
1.86
1.23
0.59
-0.22
-1.32
-2.86
-4.80
-7.01
-9.27
-11.43
-13.47
-15.47
-17.52
-19.70
-22.02
-24.50
-27.09
-29.74
-32.23
-34.22
-35.29
-35.14
-33.67
-31.10
-27.79
-24.12
-20.29
-16.35
-12.35
-8.34
-4.49
-0.96
2.16
4.91
7.44
9.90
12.38
14.82
17.04
18.74
19.69
19.81
19.20
18.17
17.07
16.23
15.83
15.84
16.14
16.57
17.01
17.37
17.61
17.71
17.64
17.38
16.98
16.46
15.93
15.45
15.09
14.82
14.51
13.99
13.05
11.66
9.94
8.24
6.88
6.10
5.87
5.89
5.78
5.20
4.05
2.50
0.83
-0.69
-2.00
-3.21
-4.60
-6.36
-8.56
-11.01
-13.44
-15.52
-17.14
-18.42
-19.71
-21.39
-23.75
-26.83
-30.43
-34.17
-37.64
-40.44
-42.33
-43.08
-42.56
-40.61
-37.12
-32.20
-26.19
-19.70
-13.41
-7.93
-3.62
-0.48
1.81
3.64
5.40
7.28
9.23
11.04
12.47
13.37
13.71
13.65
13.42
13.29
13.51
14.22
15.41
16.94
18.59
20.04
21.05
21.42
21.13
20.30
19.12
17.79
16.45
15.17
13.93
12.71
11.52
10.40
9.40
8.50
7.64
6.68
5.44
3.79
1.71
-0.72
-3.30
-5.80
-8.00
-9.81
-11.28
-12.58
-13.99
-15.75
-18.03
-20.80
-23.92
-27.14
-30.25
-33.19
-36.01
-38.96
-42.28
-46.20
-50.77
-55.87
-61.18
-66.18
-70.30
-72.88
-73.39
-71.38
-66.63
-59.13
-49.13
-37.16
-23.96
-10.41
2.62
14.46
24.77
33.46
40.65
46.50
51.10
54.60
57.21
59.28
61.18
63.16
65.25
67.24
68.86
69.90
70.30
70.16
69.60
68.68
67.44
65.92
64.33
62.96
62.13
62.01
62.51
63.27
63.74
63.37
61.80
58.96
55.19
51.21
48.08
46.90
48.50
53.09
59.96
67.71
74.51
78.79
79.66
77.17
72.09
65.33
57.52
48.70
38.40
26.06
11.54
-4.76
-21.91
-38.83
-54.61
-68.69
-80.85
-90.94
-98.79
-104.19
-107.03
-107.57
-106.49
-104.80
-103.58
-103.66
-105.27
-108.02
-110.94
-112.84
-112.56
-109.37
-103.07
-94.03
-83.00
-70.95
-58.82
-47.37
-37.14
-28.37
-21.01
-14.82
-9.39
-4.35
0.58
5.45
10.11
14.31
17.88
20.79
23.18
25.27
27.26
29.28
31.29
33.22
34.98
36.50
37.74
38.60
38.89
38.36
36.78
34.14
30.77
27.29
24.54
23.12
23.22
24.48
26.02
26.96
26.67
25.10
22.68
20.08
17.83
16.15
14.94
13.96
13.03
12.10
11.24
10.53
9.95
9.35
8.55
7.43
5.97
4.29
2.55
0.91
-0.58
-1.97
-3.48
-5.39
-7.92
-11.16
-14.98
-19.09
-23.10
-26.78
-30.13
-33.45
-37.20
-41.80
-47.35
-53.49
-59.46
-64.29
-67.06
-67.21
-64.59
-59.48
-52.41
-44.05
-35.06
-26.02
-17.40
-9.53
-2.61
3.38
8.53
13.02
16.99
20.52
23.64
26.40
28.80
30.82
32.42
33.48
33.95
33.85
33.34
32.69
32.21
32.10
32.33
32.72
32.99
32.95
32.54
31.87
31.09
30.32
29.59
28.79
27.84
26.67
25.35
24.04
22.90
22.08
21.55
21.19
20.67
19.65
17.86
15.25
12.07
8.76
5.81
3.48
1.82
0.56
-0.64
-2.14
-4.19
-6.88
-10.20
-14.05
-18.24
-22.47
-26.45
-29.92
-32.88
-35.51
-38.22
-41.44
-45.44
-50.23
-55.44
-60.38
-64.08
-65.59
-64.18
-59.56
-52.03
-42.40
-31.82
-21.47
-12.23
-4.53
1.69
6.88
11.54
15.99
20.28
24.14
27.21
29.25
30.31
30.75
31.03
31.52
32.33
33.29
34.11
34.63
34.88
35.04
35.31
35.71
36.06
36.03
35.34
33.93
32.04
30.12
28.58
27.64
27.22
27.06
26.88
26.48
25.83
25.02
24.12
23.08
21.79
20.15
18.15
15.95
13.84
12.05
10.66
9.57
8.60
7.54
6.26
4.73
2.91
0.79
-1.64
-4.37
-7.27
-10.25
-13.21
-16.19
-19.27
-22.64
-26.42
-30.58
-35.02
-39.52
-43.85
-47.91
-51.78
-55.73
-60.12
-65.16
-70.66
-75.95
-79.93
-81.37
-79.39
-73.75
-64.95
-54.03
-42.21
-30.52
-19.58
-9.63
-0.72
7.20
14.09
19.89
24.59
28.31
31.33
33.97
36.53
39.14
41.68
43.88
45.45
46.20
46.20
45.75
45.29
45.19
45.64
46.51
47.42
47.91
47.63
46.55
44.89
43.02
41.32
39.91
38.73
37.58
36.30
34.85
33.31
31.85
30.56
29.42
28.34
27.19
25.95
24.63
23.25
21.80
20.20
18.34
16.17
13.73
11.20
8.78
6.70
5.10
3.99
3.20
2.36
1.05
-1.06
-3.98
-7.42
-10.91
-13.99
-16.50
-18.61
-20.77
-23.38
-26.59
-30.22
-33.87
-37.17
-40.00
-42.54
-45.22
-48.54
-52.87
-58.31
-64.49
-70.63
-75.54
-77.91
-76.74
-71.61
-62.90
-51.69
-39.44
-27.55
-16.96
-8.01
-0.57
5.76
11.44
16.76
21.90
26.89
31.71
36.23
40.24
43.49
45.76
46.93
47.05
46.42
45.37
44.28
43.40
42.86
42.69
42.81
43.07
43.22
42.98
42.10
40.44
38.11
35.40
32.79
30.64
29.14
28.17
27.36
26.35
24.94
23.23
21.56
20.25
19.39
18.82
18.13
16.99
15.28
13.19
11.13
9.38
8.08
7.00
5.79
4.16
2.01
-0.53
-3.17
-5.62
-7.73
-9.49
-11.10
-12.82
-14.89
-17.42
-20.38
-23.59
-26.84
-30.04
-33.20
-36.41
-39.72
-43.11
-46.46
-49.74
-53.06
-56.74
-61.01
-65.79
-70.43
-73.77
-74.52
-71.71
-65.10
-55.30
-43.50
-31.17
-19.54
-9.42
-1.15
5.38
10.48
14.61
18.10
21.16
23.83
26.06
27.83
29.14
30.09
30.76
31.21
31.47
31.61
31.75
32.09
32.76
33.74
34.80
35.60
35.82
35.29
34.06
32.36
30.44
28.50
26.63
24.78
22.83
20.66
18.18
15.36
12.30
9.22
6.39
4.10
2.47
1.46
0.85
0.37
-0.17
-0.83
-1.56
-2.27
-2.95
-3.65
-4.50
-5.56
-6.83
-8.24
-9.70
-11.18
-12.75
-14.55
-16.66
-19.10
-21.79
-24.61
-27.43
-30.16
-32.76
-35.23
-37.61
-40.09
-42.97
-46.65
-51.39
-57.05
-62.97
-68.01
-70.84
-70.41
-66.27
-58.75
-48.79
-37.63
-26.41
-15.95
-6.63
1.43
8.23
13.76
18.04
21.17
23.42
25.20
26.92
28.87
31.08
33.34
35.38
36.91
37.82
38.14
37.98
37.55
37.02
36.55
36.21
35.97
35.68
35.15
34.21
32.81
31.02
28.99
26.87
24.74
22.63
20.52
18.49
16.67
15.19
14.16
13.54
13.13
12.62
11.69
10.17
8.10
5.79
3.67
2.14
1.44
1.45
1.84
2.12
1.89
0.92
-0.76
-3.04
-5.75
-8.76
-11.98
-15.30
-18.61
-21.80
-24.83
-27.75
-30.71
-33.83
-37.15
-40.64
-44.24
-47.97
-51.98
-56.51
-61.73
-67.51
-73.31
-78.17
-80.93
-80.53
-76.37
-68.54
-57.80
-45.38
-32.63
-20.76
-10.52
-2.14
4.58
10.18
15.32
20.49
25.91
31.35
36.35
40.40
43.17
44.70
45.33
45.51
45.62
45.85
46.20
46.58
46.86
46.95
46.79
46.39
45.77
45.01
44.23
43.47
42.72
41.87
40.73
39.13
37.00
34.33
31.25
27.97
24.69
21.66
19.01
16.77
14.91
13.32
11.92
10.67
9.57
8.60
7.70
6.72
5.53
4.02
2.17
0.05
-2.23
-4.53
-6.76
-8.89
-11.00
-13.20
-15.61
-18.26
-21.10
-24.07
-27.04
-29.97
-32.80
-35.49
-37.98
-40.32
-42.69
-45.41
-48.89
-53.32
-58.52
-63.73
-67.85
-69.68
-68.32
-63.50
-55.56
-45.39
-34.17
-23.03
-12.84
-4.13
2.93
8.51
12.86
16.34
19.23
21.75
23.99
25.99
27.70
29.06
30.00
30.49
30.61
30.44
30.18
29.96
29.95
30.19
30.63
31.09
31.24
30.79
29.54
27.57
25.24
23.03
21.36
20.29
19.60
18.82
17.62
15.92
13.95
12.09
10.55
9.30
8.05
6.52
4.61
2.52
0.67
-0.61
-1.19
-1.24
-1.08
-1.04
-1.33
-2.04
-3.13
-4.58
-6.38
-8.50
-10.88
-13.42
-15.96
-18.40
-20.69
-22.87
-25.02
-27.23
-29.55
-32.00
-34.58
-37.32
-40.31
-43.72
-47.69
-52.28
-57.31
-62.21
-66.15
-68.10
-67.19
-62.97
-55.57
-45.69
-34.37
-22.73
-11.68
-1.82
6.51
13.21
18.30
21.96
24.50
26.41
28.13
29.97
31.93
33.78
35.17
35.77
35.58
34.85
34.03
33.55
33.63
34.18
34.87
35.23
34.96
33.97
32.44
30.73
29.17
27.99
27.22
26.68
26.14
25.39
24.25
22.62
20.50
18.00
15.30
12.71
10.52
8.94
7.98
7.49
7.16
6.74
6.11
5.29
4.44
3.75
3.33
3.19
3.15
2.94
2.21
0.66
-1.84
-5.14
-8.88
-12.59
-15.85
-18.42
-20.41
-22.12
-23.96
-26.22
-28.96
-31.97
-34.90
-37.49
-39.73
-41.89
-44.41
-47.67
-51.72
-56.20
-60.47
-63.74
-65.34
-64.75
-61.72
-56.18
-48.33
-38.63
-27.85
-17.00
-7.01
1.36
7.76
12.28
15.35
17.53
19.39
21.35
23.55
25.92
28.20
30.09
31.35
31.90
31.81
31.29
30.63
30.08
29.85
29.98
30.36
30.76
30.92
30.64
29.92
28.97
28.05
27.36
26.85
26.28
25.34
23.82
21.77
19.44
17.17
15.20
13.65
12.46
11.48
10.61
9.75
8.85
7.77
6.45
4.81
2.91
0.90
-1.00
-2.63
-3.89
-4.87
-5.75
-6.77
-8.13
-9.85
-11.81
-13.78
-15.55
-17.04
-18.36
-19.82
-21.73
-24.32
-27.60
-31.34
-35.18
-38.73
-41.75
-44.22
-46.42
-48.82
-51.94
-56.02
-60.86
-65.64
-69.10
-69.94
-67.21
-60.76
-51.25
-39.91
-28.14
-17.02
-7.14
1.40
8.70
14.85
19.82
23.57
26.15
27.85
29.16
30.49
32.10
33.87
35.48
36.56
36.89
36.48
35.59
34.56
33.71
33.27
33.27
33.59
33.94
33.95
33.30
31.86
29.80
27.46
25.27
23.51
22.22
21.22
20.25
19.10
17.72
16.19
14.64
13.23
12.06
11.17
10.57
10.20
9.98
9.79
9.50
8.96
8.03
6.60
4.66
2.31
-0.28
-2.85
-5.20
-7.29
-9.21
-11.13
-13.20
-15.48
-17.91
-20.42
-22.89
-25.27
-27.53
-29.68
-31.73
-33.77
-35.93
-38.43
-41.44
-45.07
-49.32
-53.94
-58.43
-62.03
-63.84
-63.03
-59.13
-52.24
-43.06
-32.74
-22.49
-13.22
-5.35
1.13
6.48
11.00
14.84
18.16
21.11
23.94
26.89
30.04
33.19
35.98
37.99
38.98
38.99
38.28
37.14
35.78
34.27
32.62
30.86
29.14
27.60
26.28
25.11
23.96
22.76
21.58
20.57
19.87
19.49
19.27
19.01
18.55
17.91
17.21
16.56
15.98
15.38
14.67
13.82
12.92
12.03
11.17
10.24
9.05
7.46
5.47
3.24
0.96
-1.17
-3.10
-4.90
-6.69
-8.54
-10.47
-12.48
-14.55
-16.73
-19.04
-21.44
-23.83
-26.06
-27.99
-29.60
-31.03
-32.46
-34.17
-36.36
-39.20
-42.79
-47.09
-51.81
-56.37
-59.88
-61.37
-60.08
-55.75
-48.76
-39.96
-30.36
-20.85
-11.96
-3.97
3.03
8.96
13.74
17.43
20.22
22.41
24.27
25.90
27.17
27.88
27.96
27.55
27.00
26.69
26.86
27.45
28.24
28.93
29.29
29.28
28.97
28.47
27.80
26.90
25.64
23.91
21.68
19.12
16.52
14.21
12.46
11.31
10.60
10.01
9.24
8.17
6.92
5.73
4.80
4.16
3.52
2.54
0.91
-1.41
-4.17
-6.98
-9.52
-11.67
-13.53
-15.35
-17.29
-19.44
-21.71
-23.96
-26.08
-28.04
-29.87
-31.67
-33.58
-35.76
-38.40
-41.66
-45.52
-49.76
-53.85
-57.07
-58.62
-57.89
-54.58
-48.81
-41.07
-32.08
-22.64
-13.51
-5.32
1.52
6.88
10.86
13.80
16.12
18.23
20.31
22.36
24.16
25.52
26.39
26.92
27.41
28.08
28.98
29.94
30.76
31.27
31.46
31.48
31.41
31.30
31.06
30.61
29.91
29.01
27.97
26.78
25.29
23.38
21.06
18.49
16.04
14.02
12.64
11.85
11.43
11.14
10.80
10.35
9.78
9.07
8.10
6.78
5.02
2.88
0.51
-1.92
-4.26
-6.51
-8.77
-11.25
-14.11
-17.41
-20.99
-24.57
-27.81
-30.47
-32.58
-34.40
-36.40
-39.02
-42.59
-47.19
-52.62
-58.43
-63.90
-68.20
-70.45
-69.94
-66.29
-59.60
-50.44
-39.77
-28.68
-18.16
-8.94
-1.36
4.64
9.38
13.35
16.98
20.53
24.03
27.29
30.01
32.03
33.29
33.94
34.19
34.26
34.29
34.34
34.49
34.75
35.16
35.67
36.19
36.62
36.84
36.79
36.44
35.83
34.97
33.92
32.77
31.62
30.61
29.77
29.09
28.44
27.74
26.90
25.91
24.78
23.49
21.97
20.15
18.08
15.83
13.60
11.57
9.85
8.42
7.16
5.88
4.40
2.56
0.31
-2.28
-5.06
-7.82
-10.38
-12.67
-14.80
-17.05
-19.67
-22.82
-26.43
-30.18
-33.61
-36.42
-38.61
-40.51
-42.76
-45.96
-50.40
-55.90
-61.81
-67.19
-71.03
-72.52
-71.10
-66.68
-59.48
-50.15
-39.55
-28.68
-18.44
-9.42
-1.84
4.47
9.84
14.61
18.95
22.90
26.41
29.41
31.82
33.59
34.67
35.01
34.69
33.94
33.08
32.46
32.27
32.53
33.03
33.49
33.65
33.39
32.70
31.66
30.44
29.19
28.04
27.07
26.27
25.51
24.63
23.46
21.95
20.15
18.25
16.48
14.98
13.76
12.71
11.66
10.52
9.27
8.01
6.83
5.73
4.59
3.22
1.44
-0.78
-3.31
-5.92
-8.39
-10.67
-12.82
-15.04
-17.48
-20.24
-23.27
-26.44
-29.65
-32.78
-35.85
-38.88
-42.04
-45.48
-49.43
-53.94
-58.81
-63.51
-67.16
-68.78
-67.55
-63.09
-55.56
-45.64
-34.32
-22.72
-11.84
-2.45
5.06
10.71
14.90
18.25
21.40
24.71
28.16
31.48
34.29
36.40
37.82
38.77
39.47
40.02
40.31
40.20
39.61
38.65
37.60
36.77
36.35
36.27
36.24
35.86
34.86
33.18
31.03
28.79
26.80
25.25
24.10
23.20
22.34
21.40
20.33
19.15
17.87
16.45
14.89
13.26
11.63
10.09
8.65
7.23
5.71
4.07
2.32
0.61
-0.98
-2.48
-4.02
-5.77
-7.82
-10.12
-12.50
-14.86
-17.17
-19.50
-21.98
-24.65
-27.39
-30.03
-32.43
-34.58
-36.67
-39.00
-41.95
-45.81
-50.68
-56.33
-62.18
-67.31
-70.65
-71.33
-68.84
-63.28
-55.22
-45.53
-35.12
-24.73
-14.91
-6.04
1.63
7.98
13.08
17.21
20.82
24.34
28.04
31.83
35.34
38.04
39.55
39.81
39.11
37.97
36.88
36.18
35.93
36.03
36.32
36.64
36.85
36.82
36.44
35.60
34.33
32.73
31.02
29.39
27.98
26.84
25.94
25.21
24.53
23.78
22.82
21.59
20.09
18.46
16.84
15.29
13.78
12.12
10.22
8.05
5.73
3.49
1.48
-0.22
-1.75
-3.26
-4.93
-6.86
-9.03
-11.34
-13.63
-15.83
-17.92
-20.04
-22.39
-25.14
-28.31
-31.70
-34.98
-37.87
-40.33
-42.63
-45.28
-48.80
-53.43
-58.96
-64.70
-69.60
-72.56
-72.76
-69.82
-63.95
-55.77
-46.13
-35.83
-25.50
-15.57
-6.39
1.69
8.37
13.45
17.06
19.61
21.67
23.76
26.05
28.43
30.56
32.13
33.00
33.31
33.29
33.18
33.14
33.24
33.45
33.71
33.95
34.03
33.78
33.12
32.06
30.78
29.46
28.27
27.23
26.27
25.23
24.06
22.77
21.46
20.26
19.24
18.44
17.73
16.89
15.58
13.53
10.63
7.07
3.36
0.08
-2.33
-3.77
-4.55
-5.20
-6.20
-7.78
-9.89
-12.26
-14.59
-16.69
-18.50
-20.09
-21.58
-23.11
-24.81
-26.84
-29.31
-32.27
-35.66
-39.34
-43.18
-47.08
-51.11
-55.44
-60.24
-65.39
-70.45
-74.57
-76.67
-75.82
-71.54
-63.98
-53.92
-42.53
-30.97
-20.15
-10.57
-2.32
4.71
10.76
16.05
20.72
24.90
28.66
32.05
35.08
37.71
39.88
41.54
42.66
43.30
43.61
43.73
43.84
44.01
44.21
44.33
44.22
43.72
42.77
41.36
39.59
37.61
35.57
33.70
32.09
30.81
29.77
28.82
27.73
26.27
24.36
22.07
19.64
17.41
15.60
14.26
13.20
12.12
10.81
9.20
7.44
5.75
4.26
2.88
1.40
-0.42
-2.62
-5.06
-7.52
-9.80
-11.88
-13.88
-15.93
-18.11
-20.37
-22.61
-24.72
-26.68
-28.50
-30.24
-31.96
-33.73
-35.63
-37.79
-40.45
-43.83
-48.09
-53.20
-58.77
-64.14
-68.35
-70.47
-69.76
-65.90
-59.04
-49.73
-38.92
-27.65
-16.94
-7.54
0.22
6.52
11.86
16.86
21.93
27.13
32.18
36.63
40.17
42.76
44.65
46.22
47.72
49.17
50.36
51.01
50.89
49.95
48.23
45.81
42.81
39.24
35.16
30.67
25.95
21.27
16.91
13.17
10.23
8.16
6.84
6.00
5.33
4.63
4.00
3.72
4.13
5.41
7.44
9.78
11.91
13.37
13.96
13.65
12.56
10.79
8.43
5.60
2.41
-0.95
-4.38
-7.89
-11.63
-15.80
-20.57
-25.95
-31.74
-37.65
-43.37
-48.63
-53.35
-57.51
-61.26
-64.78
-68.28
-71.81
-75.17
-77.69
-78.36
-76.06
-69.94
-59.87
-46.61
-31.65
-16.76
-3.53
7.13
14.99
20.39
23.94
26.23
27.66
28.47
28.81
28.85
28.68
28.41
28.08
27.66
27.11
26.41
25.60
24.84
24.29
24.12
24.45
25.24
26.36
27.59
28.77
29.74
30.45
30.88
31.06
31.03
30.80
30.42
29.98
29.58
29.35
29.38
29.68
30.16
30.75
31.28
31.62
31.61
31.04
29.76
27.68
24.87
21.49
17.82
14.05
10.37
6.78
3.23
-0.40
-4.20
-8.23
-12.49
-16.91
-21.38
-25.76
-29.91
-33.73
-37.18
-40.31
-43.23
-46.18
-49.50
-53.61
-58.72
-64.60
-70.42
-74.85
-76.39
-73.96
-67.30
-57.13
-44.88
-32.17
-20.30
-10.00
-1.40
5.67
11.49
16.27
20.22
23.45
26.16
28.55
30.76
32.82
34.68
36.20
37.23
37.68
37.54
36.92
36.07
35.24
34.71
34.60
34.85
35.23
35.44
35.20
34.38
32.99
31.18
29.14
27.01
24.89
22.83
20.86
19.07
17.52
16.24
15.19
14.23
13.13
11.74
9.98
7.88
5.58
3.23
0.96
-1.16
-3.09
-4.86
-6.55
-8.23
-10.00
-11.92
-13.99
-16.15
-18.37
-20.59
-22.89
-25.38
-28.13
-31.15
-34.32
-37.46
-40.48
-43.47
-46.72
-50.63
-55.41
-60.95
-66.63
-71.40
-74.11
-73.76
-69.90
-62.64
-52.69
-41.06
-28.83
-16.97
-6.18
3.09
10.67
16.58
21.03
24.27
26.66
28.52
30.07
31.52
32.92
34.32
35.72
37.14
38.56
40.00
41.48
42.99
44.51
45.92
47.06
47.72
47.80
47.28
46.28
45.04
43.72
42.38
40.93
39.18
36.96
34.33
31.49
28.77
26.43
24.53
22.96
21.46
19.81
17.96
15.97
14.00
12.09
10.14
7.99
5.49
2.62
-0.51
-3.62
-6.50
-9.00
-11.14
-13.09
-15.16
-17.64
-20.73
-24.38
-28.26
-31.92
-34.96
-37.23
-38.97
-40.69
-42.91
-46.07
-50.34
-55.63
-61.65
-67.80
-73.24
-76.80
-77.30
-73.84
-66.28
-55.31
-42.34
-29.03
-16.74
-6.27
2.20
8.88
14.14
18.39
22.03
25.45
28.95
32.68
36.52
40.16
43.15
45.15
46.02
45.80
44.78
43.26
41.62
40.17
39.07
38.31
37.81
37.37
36.88
36.28
35.56
34.73
33.74
32.56
31.15
29.58
27.98
26.47
25.15
23.98
22.86
21.67
20.29
18.68
16.84
14.81
12.61
10.33
7.99
5.66
3.40
1.19
-0.98
-3.22
-5.62
-8.24
-10.97
-13.67
-16.10
-18.12
-19.80
-21.32
-22.98
-24.92
-27.13
-29.40
-31.50
-33.25
-34.69
-36.06
-37.65
-39.77
-42.58
-46.11
-50.23
-54.60
-58.70
-61.76
-62.91
-61.35
-56.68
-49.08
-39.35
-28.70
-18.35
-9.21
-1.63
4.46
9.40
13.50
16.95
19.78
22.01
23.73
25.05
26.07
26.82
27.30
27.47
27.35
27.02
26.57
26.09
25.64
25.28
25.03
24.89
24.79
24.59
24.14
23.35
22.28
21.12
20.08
19.28
18.66
18.02
17.09
15.71
13.91
11.87
9.84
7.95
6.20
4.46
2.60
0.66
-1.21
-2.77
-3.88
-4.62
-5.23
-6.00
-7.11
-8.56
-10.21
-11.87
-13.44
-14.94
-16.47
-18.15
-20.02
-22.10
-24.36
-26.75
-29.25
-31.84
-34.48
-37.15
-39.90
-42.87
-46.24
-50.12
-54.35
-58.38
-61.33
-62.21
-60.26
-55.22
-47.48
-37.88
-27.48
-17.25
-7.88
0.26
7.04
12.49
16.77
20.10
22.75
25.00
27.03
28.92
30.61
32.01
33.00
33.52
33.58
33.22
32.53
31.67
30.82
30.17
29.87
29.90
30.12
30.28
30.16
29.62
28.70
27.52
26.19
24.76
23.16
21.31
19.26
17.19
15.38
14.04
13.22
12.73
12.30
11.72
10.90
9.93
8.97
8.10
7.29
6.42
5.35
4.03
2.47
0.76
-1.01
-2.78
-4.49
-6.21
-7.99
-9.94
-12.17
-14.81
-17.83
-21.13
-24.53
-27.85
-30.99
-33.98
-36.91
-39.88
-43.00
-46.38
-50.11
-54.20
-58.47
-62.50
-65.55
-66.78
-65.44
-61.10
-53.87
-44.34
-33.51
-22.49
-12.32
-3.73
3.01
8.03
11.77
14.80
17.62
20.53
23.64
26.84
29.95
32.76
35.06
36.69
37.58
37.77
37.41
36.76
36.06
35.49
35.13
34.93
34.73
34.30
33.44
32.03
30.17
28.08
26.05
24.38
23.17
22.38
21.82
21.30
20.63
19.74
18.58
17.14
15.45
13.58
11.67
9.85
8.25
6.91
5.80
4.82
3.87
2.88
1.81
0.61
-0.82
-2.55
-4.63
-6.97
-9.40
-11.71
-13.79
-15.69
-17.57
-19.64
-21.95
-24.39
-26.74
-28.83
-30.64
-32.41
-34.54
-37.42
-41.24
-45.82
-50.60
-54.71
-57.13
-57.04
-54.02
-48.30
-40.64
-32.15
-23.84
-16.40
-10.00
-4.47
0.44
4.93
8.92
12.26
14.81
16.61
17.86
18.87
19.88
20.92
21.90
22.64
22.99
22.96
22.73
22.55
22.62
22.99
23.46
23.76
23.56
22.77
21.51
20.03
18.63
17.41
16.30
15.11
13.70
12.08
10.39
8.87
7.66
6.79
6.09
5.30
4.17
2.54
0.39
-2.13
-4.77
-7.33
-9.69
-11.85
-13.94
-16.11
-18.47
-21.04
-23.73
-26.45
-29.13
-31.75
-34.31
-36.85
-39.35
-41.83
-44.33
-46.96
-49.84
-53.08
-56.58
-60.02
-62.81
-64.22
-63.59
-60.48
-54.89
-47.18
-38.04
-28.22
-18.46
-9.41
-1.53
4.93
9.95
13.71
16.58
18.87
20.83
22.55
24.03
25.27
26.31
27.21
28.03
28.75
29.27
29.55
29.64
29.71
30.04
30.84
32.23
34.05
36.02
37.72
38.80
39.14
38.85
38.24
37.61
37.13
36.75
36.27
35.49
34.39
33.09
31.79
30.57
29.37
27.98
26.23
24.10
21.74
19.38
17.15
15.06
12.97
10.72
8.23
5.51
2.62
-0.38
-3.48
-6.69
-9.93
-13.05
-15.88
-18.29
-20.29
-22.02
-23.66
-25.39
-27.29
-29.36
-31.60
-34.10
-37.00
-40.45
-44.46
-48.76
-52.71
-55.41
-55.92
-53.56
-48.20
-40.28
-30.72
-20.67
-11.17
-2.94
3.69
8.71
12.38
15.09
17.27
19.29
21.37
23.57
25.78
27.84
29.58
30.89
31.73
32.14
32.23
32.11
31.93
31.75
31.63
31.51
31.38
31.16
30.82
30.32
29.61
28.68
27.54
26.23
24.83
23.35
21.78
20.03
18.12
16.06
14.03
12.13
10.47
8.99
7.61
6.26
4.98
3.86
2.96
2.24
1.58
0.79
-0.23
-1.47
-2.81
-4.10
-5.18
-6.01
-6.62
-7.12
-7.68
-8.52
-9.78
-11.47
-13.47
-15.52
-17.39
-18.94
-20.18
-21.28
-22.49
-24.07
-26.22
-29.08
-32.53
-36.30
-39.85
-42.47
-43.43
-42.13
-38.31
-32.14
-24.22
-15.36
-6.50
1.69
8.85
14.90
19.90
23.79
26.29
27.06
25.88
22.91
18.65
13.85
9.15
4.92
1.24
-1.96
-4.71
-6.90
-8.36
-8.89
-8.48
-7.26
-5.50
-3.47
-1.39
0.58
2.43
4.24
6.09
7.98
9.81
11.45
12.76
13.79
14.70
15.66
16.67
17.54
17.94
17.55
16.30
14.29
11.84
9.24
6.74
4.50
2.57
0.97
-0.36
-1.57
-2.86
-4.37
-6.16
-8.10
-10.05
-11.91
-13.65
-15.33
-16.97
-18.53
-19.93
-21.19
-22.47
-24.09
-26.38
-29.51
-33.35
-37.44
-41.13
-43.66
-44.37
-42.91
-39.23
-33.66
-26.83
-19.51
-12.43
-6.07
-0.59
4.12
8.25
11.97
15.29
18.12
20.38
22.12
23.50
24.74
25.95
27.07
27.94
28.36
28.32
28.00
27.76
27.89
28.54
29.57
30.64
31.34
31.34
30.54
29.10
27.32
25.59
24.15
23.07
22.25
21.47
20.53
19.30
17.76
15.99
14.07
12.12
10.20
8.39
6.75
5.27
3.93
2.71
1.60
0.62
-0.23
-0.98
-1.77
-2.76
-4.11
-5.85
-7.90
-10.16
-12.53
-15.01
-17.60
-20.32
-23.08
-25.67
-27.88
-29.57
-30.84
-31.99
-33.51
-35.85
-39.24
-43.47
-47.84
-51.34
-52.92
-51.97
-48.42
-42.79
-35.90
-28.55
-21.25
-14.29
-7.80
-1.95
3.00
6.85
9.52
11.26
12.50
13.62
14.79
15.90
16.67
16.87
16.52
15.87
15.28
15.02
15.18
15.59
16.00
16.20
16.07
15.71
15.30
15.04
15.01
15.17
15.28
15.13
14.56
13.61
12.51
11.56
10.95
10.72
10.75
10.82
10.81
10.63
10.22
9.59
8.69
7.53
6.17
4.74
3.38
2.21
1.28
0.54
-0.12
-0.86
-1.82
-3.10
-4.74
-6.65
-8.72
-10.83
-12.93
-15.03
-17.12
-19.16
-21.07
-22.78
-24.25
-25.66
-27.27
-29.39
-32.22
-35.77
-39.71
-43.49
-46.39
-47.69
-46.87
-43.75
-38.55
-31.83
-24.37
-16.96
-10.23
-4.58
-0.09
3.36
6.04
8.27
10.29
12.26
14.20
16.01
17.56
18.72
19.44
19.77
19.83
19.82
19.87
20.11
20.59
21.29
22.14
23.05
23.95
24.74
25.37
25.77
25.91
25.75
25.27
24.47
23.37
22.03
20.52
18.97
17.53
16.27
15.25
14.43
13.69
12.95
12.13
11.23
10.25
9.23
8.20
7.19
6.19
5.20
4.18
3.12
2.02
0.94
-0.08
-1.02
-1.91
-2.85
-3.97
-5.36
-7.03
-8.91
-10.87
-12.78
-14.53
-16.09
-17.48
-18.77
-20.04
-21.43
-23.08
-25.21
-27.98
-31.47
-35.56
-39.83
-43.62
-46.14
-46.71
-44.99
-41.07
-35.43
-28.80
-21.91
-15.36
-9.51
-4.47
-0.22
3.34
6.35
8.98
11.41
13.75
16.14
18.54
20.84
22.84
24.34
25.25
25.59
25.52
25.22
24.90
24.65
24.51
24.42
24.29
24.02
23.52
22.78
21.87
20.94
20.11
19.51
19.10
18.76
18.35
17.73
16.85
15.71
14.46
13.23
12.17
11.39
10.86
10.50
10.18
9.80
9.29
8.67
7.90
6.95
5.77
4.33
2.62
0.65
-1.54
-3.94
-6.48
-9.08
-11.58
-13.81
-15.70
-17.23
-18.46
-19.56
-20.67
-21.95
-23.53
-25.51
-27.93
-30.79
-34.00
-37.40
-40.66
-43.35
-44.94
-44.95
-43.02
-39.12
-33.58
-26.99
-20.07
-13.48
-7.73
-3.10
0.31
2.62
4.14
5.26
6.35
7.59
8.94
10.24
11.31
12.10
12.69
13.22
13.69
14.08
14.31
14.37
14.37
14.45
14.68
15.03
15.42
15.73
15.89
15.82
15.44
14.73
13.76
12.80
12.14
11.99
12.30
12.74
12.89
12.45
11.44
10.07
8.64
7.29
6.04
4.76
3.40
1.95
0.47
-1.03
-2.61
-4.24
-5.88
-7.37
-8.62
-9.67
-10.74
-12.09
-13.87
-16.02
-18.30
-20.45
-22.33
-24.00
-25.60
-27.27
-29.10
-31.13
-33.47
-36.21
-39.32
-42.50
-45.16
-46.53
-45.95
-43.13
-38.23
-31.86
-24.73
-17.57
-10.89
-4.98
0.01
4.06
7.24
9.72
11.70
13.40
14.96
16.43
17.80
19.00
20.01
20.84
21.55
22.16
22.67
23.05
23.32
23.52
23.76
24.15
24.68
25.26
25.68
25.80
25.59
25.14
24.65
24.24
23.94
23.64
23.19
22.50
21.57
20.48
19.38
18.38
17.50
16.77
16.11
15.49
14.83
14.07
13.15
12.00
10.55
8.77
6.72
4.52
2.33
0.28
-1.64
-3.59
-5.81
-8.51
-11.77
-15.39
-19.04
-22.36
-25.17
-27.51
-29.65
-32.00
-34.91
-38.61
-43.07
-47.98
-52.74
-56.62
-58.87
-58.93
-56.57
-51.96
-45.63
-38.27
-30.64
-23.30
-16.56
-10.45
-4.84
0.39
5.27
9.61
13.16
15.70
17.21
17.97
18.43
19.07
20.15
21.58
23.01
24.05
24.47
24.32
23.91
23.63
23.74
24.37
25.47
26.92
28.62
30.49
32.43
34.31
35.92
37.05
37.46
37.03
35.77
33.79
31.25
28.26
24.81
20.74
15.89
10.22
4.04
-2.03
-7.25
-11.01
-13.05
-13.55
-12.93
-11.71
-10.27
-8.88
-7.73
-6.95
-6.68
-6.90
-7.49
-8.15
-8.60
-8.63
-8.39
-8.28
-8.94
-11.01
-14.87
-20.45
-27.14
-33.90
-39.54
-43.10
-44.19
-43.10
-40.61
-37.73
-35.29
-33.78
-33.33
-33.78
-34.85
-36.19
-37.42
-38.18
-38.26
-37.76
-37.14
-37.16
-38.47
-41.34
-45.36
-49.51
-52.52
-53.30
-51.24
-46.20
-38.42
-28.21
-15.94
-1.97
13.10
28.48
43.23
56.43
67.52
76.26
82.78
87.27
89.89
90.69
89.62
86.70
82.09
76.13
69.29
62.00
54.62
47.33
40.16
33.02
25.86
18.66
11.54
4.76
-1.32
-6.33
-10.00
-12.20
-13.03
-12.65
-11.32
-9.30
-6.83
-4.08
-1.24
1.48
3.94
6.05
7.82
9.33
10.66
11.82
12.79
13.50
13.95
14.27
14.71
15.53
16.80
18.36
19.80
20.60
20.39
19.04
16.73
13.78
10.54
7.15
3.50
-0.68
-5.69
-11.65
-18.31
-25.16
-31.49
-36.57
-40.03
-41.84
-42.39
-42.33
-42.45
-43.45
-45.65
-48.77
-51.81
-53.26
-51.56
-45.81
-36.27
-24.36
-12.28
-2.11
4.86
8.51
9.68
9.55
9.11
8.74
8.30
7.28
5.19
1.67
-3.38
-9.73
-16.94
-24.29
-30.83
-35.55
-37.67
-36.89
-33.63
-28.96
-24.30
-20.83
-19.13
-18.91
-19.34
-19.48
-18.74
-17.09
-14.92
-12.57
-10.04
-6.87
-2.48
3.50
10.84
18.77
26.34
32.72
37.48
40.52
41.82
41.21
38.45
33.30
25.98
17.29
8.51
1.10
-3.73
-5.43
-4.17
-0.68
3.98
8.83
13.22
16.82
19.62
21.69
23.07
23.78
23.89
23.59
23.27
23.34
24.14
25.82
28.40
31.76
35.72
40.04
44.38
48.33
51.45
53.42
54.17
53.85
52.78
51.30
49.59
47.73
45.72
43.60
41.45
39.38
37.40
35.40
33.14
30.40
27.01
23.02
18.68
14.33
10.33
6.83
3.73
0.67
-2.90
-7.50
-13.51
-20.98
-29.76
-39.41
-49.29
-58.65
-66.67
-72.72
-76.57
-78.60
-79.68
-80.89
-83.02
-86.13
-89.53
-92.02
-92.56
-90.61
-86.48
-80.96
-75.07
-69.61
-64.94
-61.11
-58.08
-55.90
-54.79
-54.94
-56.29
-58.34
-60.13
-60.47
-58.37
-53.38
-45.87
-36.78
-27.19
-17.76
-8.41
1.69
13.57
28.03
45.24
64.71
85.52
106.63
127.13
146.26
163.47
178.26
190.28
199.36
205.53
208.99
210.04
209.02
206.23
201.95
196.41
189.76
182.07
173.29
163.35
152.29
140.28
127.64
114.79
102.10
89.74
77.52
65.00
51.57
36.77
20.50
3.16
-14.36
-30.85
-45.15
-56.35
-64.07
-68.49
-70.31
-70.54
-70.15
-69.84
-69.77
-69.66
-68.97
-67.33
-64.77
-61.90
-59.67
-59.09
-60.76
-64.67
-70.13
-76.00
-81.07
-84.49
-85.99
-85.89
-84.87
-83.62
-82.59
-81.87
-81.22
-80.33
-78.95
-76.99
-74.53
-71.68
-68.62
-65.56
-62.76
-60.62
-59.49
-59.60
-60.86
-62.86
-64.79
-65.69
-64.57
-60.74
-53.97
-44.62
-33.62
-22.20
-11.51
-2.32
5.13
11.04
15.67
19.05
20.91
20.78
18.47
14.33
9.31
4.70
1.62
0.70
1.87
4.50
7.69
10.59
12.58
13.42
13.21
12.41
11.64
11.57
12.65
14.92
18.02
21.33
24.17
26.11
27.02
27.02
26.29
25.02
23.28
21.25
19.14
17.31
16.14
15.86
16.51
17.77
19.14
20.00
19.86
18.49
15.95
12.61
8.96
5.50
2.56
0.26
-1.49
-2.87
-4.08
-5.23
-6.40
-7.65
-9.04
-10.65
-12.47
-14.47
-16.52
-18.52
-20.42
-22.19
-23.81
-25.10
-25.76
-25.32
-23.43
-19.95
-15.09
-9.37
-3.44
2.17
7.24
11.80
16.08
20.26
24.36
28.20
31.47
33.96
35.67
36.84
37.80
38.81
39.78
40.35
39.97
38.21
34.96
30.53
25.55
20.79
16.90
14.27
12.95
12.62
12.67
12.34
10.83
7.56
2.38
-4.40
-12.05
-19.72
-26.70
-32.64
-37.51
-41.47
-44.63
-47.00
-48.49
-49.19
-49.38
-49.59
-50.34
-51.86
-53.86
-55.64
-56.35
-55.35
-52.49
-48.15
-43.00
-37.75
-32.88
-28.54
-24.61
-20.87
-17.16
-13.40
-9.65
-6.06
-2.80
0.02
2.41
4.51
6.51
8.54
10.62
12.67
14.51
16.03
17.19
18.06
18.76
19.33
19.73
19.92
19.86
19.59
19.21
18.80
18.41
18.01
17.54
16.96
16.26
15.43
14.45
13.33
12.07
10.75
9.47
8.34
7.40
6.61
5.84
4.99
4.05
3.08
2.18
1.35
0.52
-0.45
-1.66
-3.06
-4.49
-5.70
-6.57
-7.12
-7.54
-8.07
-8.86
-9.96
-11.29
-12.80
-14.45
-16.39
-18.83
-21.94
-25.73
-29.95
-34.08
-37.51
-39.66
-40.18
-39.02
-36.39
-32.60
-28.01
-22.94
-17.66
-12.45
-7.56
-3.17
0.60
3.77
6.47
8.84
11.06
13.20
15.29
17.18
18.70
19.64
19.92
19.67
19.18
18.84
18.93
19.56
20.54
21.57
22.33
22.61
22.42
21.83
21.00
20.03
18.94
17.70
16.30
14.78
13.22
11.74
10.43
9.35
8.44
7.62
6.77
5.82
4.76
3.60
2.38
1.07
-0.40
-2.16
-4.23
-6.60
-9.06
-11.38
-13.38
-15.02
-16.49
-18.05
-19.96
-22.35
-25.17
-28.27
-31.44
-34.52
-37.32
-39.62
-41.11
-41.41
-40.21
-37.39
-33.07
-27.71
-21.90
-16.23
-11.17
-6.89
-3.36
-0.37
2.32
4.89
7.43
9.90
12.26
14.41
16.29
17.86
19.07
19.90
20.35
20.54
20.64
20.87
21.35
22.08
22.89
23.57
23.93
23.89
23.45
22.70
21.70
20.51
19.09
17.45
15.60
13.68
11.85
10.24
8.87
7.64
6.35
4.82
2.99
0.95
-1.10
-2.96
-4.49
-5.71
-6.77
-7.84
-9.04
-10.41
-11.94
-13.60
-15.39
-17.33
-19.40
-21.50
-23.50
-25.35
-27.13
-29.09
-31.48
-34.44
-37.76
-40.89
-43.06
-43.61
-42.19
-38.89
-34.13
-28.49
-22.49
-16.50
-10.77
-5.48
-0.77
3.28
6.72
9.72
12.50
15.17
17.71
19.93
21.62
22.67
23.11
23.10
22.80
22.34
21.80
21.31
21.06
21.22
21.88
22.93
24.01
24.69
24.68
23.95
22.74
21.46
20.47
19.89
19.62
19.41
19.05
18.46
17.75
17.03
16.40
15.80
15.13
14.28
13.25
12.13
11.05
10.09
9.21
8.33
7.29
6.02
4.48
2.68
0.64
-1.68
-4.28
-7.17
-10.33
-13.68
-17.06
-20.36
-23.47
-26.37
-29.18
-32.03
-35.09
-38.39
-41.82
-45.04
-47.56
-48.85
-48.37
-45.87
-41.38
-35.32
-28.29
-20.96
-13.85
-7.21
-1.05
4.67
9.94
14.67
18.65
21.81
24.21
26.01
27.45
28.58
29.35
29.57
29.11
27.99
26.45
24.86
23.54
22.67
22.20
21.94
21.68
21.32
20.89
20.48
20.18
19.98
19.79
19.48
18.99
18.30
17.48
16.56
15.56
14.46
13.22
11.84
10.38
8.93
7.57
6.30
5.03
3.63
2.00
0.14
-1.82
-3.80
-5.76
-7.81
-10.08
-12.62
-15.29
-17.85
-20.06
-21.92
-23.68
-25.74
-28.49
-32.02
-36.16
-40.53
-44.62
-48.01
-50.28
-51.00
-49.79
-46.40
-40.89
-33.69
-25.61
-17.58
-10.40
-4.45
0.29
4.18
7.66
10.95
14.07
16.74
18.77
20.07
20.80
21.19
21.47
21.80
22.14
22.45
22.58
22.45
21.97
21.10
19.82
18.18
16.27
14.16
11.94
9.63
7.25
4.88
2.68
0.85
-0.41
-1.05
-1.19
-0.99
-0.64
-0.22
0.22
0.62
0.85
0.68
-0.03
-1.35
-3.13
-5.12
-7.06
-8.85
-10.55
-12.35
-14.41
-16.74
-19.27
-21.83
-24.36
-26.87
-29.46
-32.30
-35.52
-39.30
-43.74
-48.82
-54.31
-59.69
-64.20
-66.97
-67.29
-64.69
-59.15
-51.00
-40.85
-29.40
-17.36
-5.35
6.13
16.70
26.22
34.68
42.24
49.07
55.27
60.80
65.47
68.98
71.02
71.36
69.96
66.99
62.84
58.03
53.11
48.49
44.38
40.74
37.37
34.06
30.70
27.30
23.94
20.65
17.46
14.32
11.24
8.32
5.61
3.23
1.17
-0.67
-2.43
-4.28
-6.37
-8.80
-11.69
-15.07
-18.93
-23.14
-27.50
-31.72
-35.63
-39.09
-42.13
-44.76
-47.02
-48.97
-50.70
-52.50
-54.74
-57.85
-61.97
-66.81
-71.48
-74.69
-75.15
-71.97
-65.01
-54.84
-42.59
-29.44
-16.40
-4.08
7.26
17.51
26.56
34.25
40.41
45.05
48.37
50.75
52.60
54.19
55.52
56.39
56.55
55.89
54.58
53.04
51.77
51.19
51.47
52.45
53.74
54.84
55.32
54.91
53.58
51.49
48.91
46.05
43.03
39.86
36.46
32.82
29.05
25.33
21.91
18.96
16.51
14.47
12.67
10.93
9.16
7.31
5.46
3.64
1.89
0.18
-1.61
-3.63
-6.05
-8.93
-12.23
-15.80
-19.41
-22.93
-26.34
-29.73
-33.23
-36.99
-41.12
-45.78
-51.15
-57.23
-63.73
-69.86
-74.50
-76.45
-74.84
-69.50
-61.00
-50.46
-39.18
-28.27
-18.37
-9.68
-2.09
4.65
10.77
16.38
21.46
25.96
29.77
32.83
35.14
36.69
37.54
37.74
37.42
36.78
36.10
35.71
35.90
36.80
38.36
40.32
42.30
43.87
44.72
44.69
43.85
42.47
40.90
39.44
38.27
37.33
36.39
35.21
33.64
31.71
29.65
27.70
25.99
24.42
22.70
20.54
17.77
14.48
10.93
7.48
4.35
1.51
-1.20
-4.03
-7.15
-10.63
-14.35
-18.20
-22.06
-25.88
-29.64
-33.32
-36.94
-40.58
-44.49
-49.00
-54.41
-60.64
-67.10
-72.60
-75.70
-75.20
-70.54
-62.05
-50.79
-38.18
-25.55
-13.83
-3.56
5.10
12.18
17.83
22.34
26.07
29.38
32.49
35.42
37.94
39.73
40.54
40.33
39.29
37.79
36.25
35.04
34.43
34.53
35.28
36.47
37.76
38.73
39.05
38.56
37.27
35.38
33.21
31.03
29.07
27.47
26.27
25.37
24.55
23.50
21.94
19.78
17.17
14.48
12.11
10.27
8.89
7.69
6.35
4.71
2.82
0.89
-0.90
-2.53
-4.10
-5.81
-7.76
-9.89
-12.02
-14.04
-15.98
-18.02
-20.40
-23.30
-26.69
-30.34
-33.91
-37.15
-40.01
-42.73
-45.73
-49.50
-54.30
-60.02
-66.03
-71.26
-74.42
-74.37
-70.49
-62.91
-52.53
-40.71
-28.85
-18.01
-8.74
-1.03
5.46
11.10
16.16
20.75
24.87
28.49
31.66
34.41
36.76
38.62
39.85
40.34
40.09
39.30
38.36
37.66
37.47
37.78
38.35
38.78
38.76
38.18
37.16
35.88
34.51
33.01
31.21
28.95
26.22
23.24
20.36
17.86
15.91
14.39
13.06
11.68
10.10
8.33
6.45
4.61
2.89
1.31
-0.21
-1.75
-3.45
-5.32
-7.32
-9.32
-11.16
-12.80
-14.30
-15.96
-18.06
-20.74
-23.93
-27.31
-30.48
-33.11
-35.14
-36.80
-38.55
-40.85
-44.03
-48.19
-53.06
-58.11
-62.56
-65.53
-66.20
-64.02
-58.80
-50.86
-40.96
-30.16
-19.60
-10.20
-2.49
3.50
8.07
11.72
14.90
17.85
20.59
22.99
24.92
26.29
27.11
27.42
27.32
26.95
26.49
26.17
26.20
26.67
27.51
28.49
29.28
29.60
29.32
28.52
27.41
26.22
25.11
24.12
23.16
22.14
20.98
19.63
18.10
16.46
14.72
12.97
11.29
9.78
8.50
7.47
6.62
5.82
4.93
3.80
2.36
0.55
-1.56
-3.91
-6.31
-8.64
-10.80
-12.85
-14.95
-17.32
-20.12
-23.39
-26.96
-30.56
-33.87
-36.78
-39.38
-42.01
-45.11
-49.06
-53.98
-59.59
-65.23
-69.93
-72.66
-72.59
-69.27
-62.79
-53.68
-42.88
-31.41
-20.29
-10.32
-1.98
4.60
9.58
13.38
16.48
19.27
21.95
24.48
26.71
28.48
29.69
30.39
30.75
30.88
30.93
30.96
31.05
31.23
31.51
31.81
32.01
31.99
31.68
31.10
30.36
29.57
28.78
28.00
27.18
26.29
25.27
24.10
22.73
21.19
19.48
17.75
16.16
14.83
13.83
13.03
12.23
11.21
9.84
8.15
6.31
4.58
3.13
2.00
1.02
-0.06
-1.48
-3.37
-5.68
-8.23
-10.84
-13.36
-15.78
-18.24
-20.86
-23.75
-26.86
-30.02
-33.00
-35.68
-38.11
-40.51
-43.20
-46.47
-50.46
-55.06
-59.96
-64.67
-68.49
-70.70
-70.62
-67.79
-62.09
-53.84
-43.79
-32.92
-22.25
-12.57
-4.37
2.28
7.58
11.91
15.68
19.19
22.62
25.92
28.98
31.56
33.47
34.61
35.01
34.91
34.64
34.55
34.87
35.62
36.61
37.55
38.16
38.25
37.79
36.84
35.53
34.00
32.36
30.68
29.01
27.40
25.88
24.48
23.17
21.92
20.64
19.33
18.00
16.76
15.66
14.71
13.81
12.79
11.52
9.95
8.20
6.40
4.62
2.83
0.87
-1.36
-3.87
-6.53
-9.18
-11.76
-14.33
-17.02
-19.95
-23.10
-26.27
-29.24
-31.82
-34.04
-36.09
-38.33
-41.18
-44.90
-49.53
-54.76
-59.92
-64.10
-66.37
-66.01
-62.68
-56.60
-48.32
-38.73
-28.68
-18.96
-10.09
-2.40
3.98
9.14
13.21
16.43
19.00
21.07
22.70
23.93
24.76
25.21
25.33
25.15
24.81
24.43
24.23
24.41
25.09
26.31
27.90
29.56
30.88
31.50
31.18
29.93
28.04
25.91
24.04
22.72
22.01
21.67
21.34
20.71
19.66
18.33
16.93
15.69
14.63
13.65
12.60
11.37
9.98
8.56
7.24
6.02
4.84
3.48
1.79
-0.30
-2.70
-5.22
-7.67
-9.96
-12.18
-14.49
-17.08
-20.01
-23.19
-26.40
-29.43
-32.26
-34.98
-37.89
-41.26
-45.30
-50.01
-55.14
-60.18
-64.40
-66.94
-67.05
-64.29
-58.72
-50.83
-41.50
-31.68
-22.17
-13.50
-5.90
0.64
6.23
11.01
15.12
18.69
21.80
24.51
26.88
28.94
30.69
32.03
32.87
33.16
32.95
32.46
32.00
31.84
32.09
32.64
33.19
33.47
33.30
32.72
31.88
30.96
30.00
28.94
27.61
25.96
24.04
22.10
20.38
19.06
18.11
17.34
16.49
15.42
14.09
12.62
11.13
9.74
8.45
7.20
5.91
4.57
3.20
1.88
0.65
-0.58
-1.91
-3.45
-5.20
-7.07
-8.87
-10.50
-11.93
-13.33
-14.95
-17.07
-19.77
-23.01
-26.54
-30.04
-33.27
-36.11
-38.68
-41.27
-44.31
-48.18
-53.03
-58.53
-63.90
-68.00
-69.65
-68.06
-63.01
-55.06
-45.21
-34.67
-24.46
-15.21
-7.17
-0.30
5.53
10.42
14.49
17.84
20.63
23.05
25.28
27.37
29.26
30.75
31.65
31.87
31.57
31.10
30.87
31.19
32.07
33.22
34.22
34.72
34.62
34.09
33.48
33.01
32.72
32.34
31.53
30.06
27.96
25.50
23.11
21.09
19.53
18.32
17.22
16.06
14.84
13.64
12.59
11.72
10.94
10.07
8.99
7.66
6.15
4.59
3.11
1.75
0.43
-0.96
-2.55
-4.42
-6.56
-8.90
-11.33
-13.77
-16.17
-18.55
-20.96
-23.46
-26.07
-28.77
-31.54
-34.31
-37.18
-40.23
-43.74
-47.88
-52.63
-57.57
-61.90
-64.58
-64.71
-61.81
-56.02
-48.02
-38.79
-29.27
-20.17
-11.88
-4.55
1.76
7.09
11.52
15.21
18.38
21.22
23.83
26.19
28.18
29.65
30.52
30.83
30.69
30.29
29.86
29.54
29.47
29.66
30.07
30.55
30.95
31.08
30.81
30.08
28.92
27.46
25.85
24.25
22.76
21.41
20.17
19.03
17.96
16.93
15.86
14.64
13.18
11.43
9.48
7.53
5.74
4.21
2.85
1.53
0.06
-1.59
-3.38
-5.16
-6.88
-8.58
-10.40
-12.49
-14.94
-17.70
-20.60
-23.39
-25.94
-28.19
-30.35
-32.70
-35.62
-39.36
-43.90
-48.80
-53.29
-56.34
-57.04
-54.84
-49.75
-42.39
-33.70
-24.69
-16.16
-8.54
-1.94
3.75
8.62
12.75
16.11
18.71
20.60
21.91
22.87
23.64
24.34
24.88
25.11
24.91
24.36
23.72
23.38
23.71
24.75
26.30
27.86
28.93
29.16
28.50
27.14
25.37
23.48
21.63
19.90
18.33
16.94
15.74
14.69
13.78
12.91
12.07
11.21
10.28
9.18
7.80
6.08
4.05
1.85
-0.30
-2.28
-4.04
-5.71
-7.47
-9.48
-11.71
-14.07
-16.38
-18.58
-20.70
-22.89
-25.25
-27.85
-30.64
-33.58
-36.75
-40.34
-44.57
-49.42
-54.44
-58.72
-61.11
-60.63
-56.84
-50.04
-41.21
-31.60
-22.34
-14.15
-7.25
-1.47
3.52
8.02
12.20
16.15
19.87
23.37
26.56
29.38
31.67
33.32
34.23
34.39
33.95
33.14
32.26
31.62
31.34
31.41
31.64
31.79
31.66
31.22
30.57
29.87
29.25
28.67
28.00
27.08
25.79
24.18
22.42
20.68
19.06
17.63
16.35
15.20
14.16
13.18
12.26
11.34
10.39
9.37
8.30
7.14
5.91
4.63
3.34
2.12
1.01
0.07
-0.77
-1.59
-2.59
-3.86
-5.44
-7.21
-8.98
-10.61
-12.08
-13.57
-15.35
-17.67
-20.60
-23.96
-27.39
-30.50
-33.11
-35.25
-37.23
-39.44
-42.20
-45.66
-49.71
-54.01
-57.97
-60.87
-62.00
-60.81
-57.08
-51.02
-43.22
-34.48
-25.61
-17.23
-9.75
-3.31
2.14
6.76
10.78
14.40
17.76
20.83
23.51
25.62
27.05
27.81
28.03
27.87
27.52
27.14
26.84
26.72
26.80
27.03
27.28
27.39
27.25
26.79
26.06
25.14
24.10
22.97
21.75
20.45
19.04
17.58
16.06
14.56
13.13
11.86
10.78
9.85
8.98
8.06
6.98
5.73
4.30
2.70
0.91
-1.02
-2.99
-4.79
-6.25
-7.33
-8.22
-9.29
-10.88
-13.16
-15.93
-18.81
-21.31
-23.21
-24.54
-25.64
-26.92
-28.79
-31.49
-35.00
-39.09
-43.20
-46.63
-48.54
-48.28
-45.51
-40.37
-33.45
-25.57
-17.59
-10.16
-3.68
1.79
6.38
10.28
13.70
16.76
19.53
21.98
24.09
25.79
27.03
27.76
27.92
27.56
26.80
25.88
25.05
24.56
24.49
24.77
25.23
25.69
26.01
26.13
26.03
25.59
24.72
23.32
21.44
19.29
17.18
15.37
13.99
12.92
11.98
10.99
9.87
8.70
7.61
6.68
5.88
5.11
4.24
3.19
2.00
0.75
-0.50
-1.70
-2.92
-4.26
-5.81
-7.55
-9.41
-11.32
-13.17
-14.90
-16.52
-18.09
-19.65
-21.32
-23.16
-25.17
-27.27
-29.34
-31.37
-33.49
-35.99
-39.14
-42.98
-47.12
-50.77
-52.94
-52.80
-49.98
-44.72
-37.73
-29.94
-22.24
-15.18
-8.99
-3.67
0.97
5.09
8.79
12.14
15.19
18.01
20.64
23.09
25.24
26.84
27.64
27.57
26.76
25.59
24.52
23.91
23.85
24.23
24.79
25.23
25.34
25.02
24.26
23.15
21.83
20.53
19.45
18.73
18.32
18.02
17.56
16.76
15.58
14.12
12.56
11.01
9.52
8.09
6.73
5.45
4.25
3.08
1.83
0.37
-1.41
-3.49
-5.76
-8.05
-10.15
-11.99
-13.61
-15.19
-16.91
-18.93
-21.20
-23.50
-25.56
-27.17
-28.39
-29.51
-31.01
-33.28
-36.48
-40.41
-44.51
-48.06
-50.29
-50.64
-48.85
-45.07
-39.68
-33.23
-26.25
-19.16
-12.30
-5.91
-0.24
4.52
8.31
11.31
13.79
16.08
18.34
20.50
22.34
23.63
24.32
24.52
24.47
24.41
24.44
24.54
24.62
24.65
24.66
24.74
24.95
25.25
25.52
25.57
25.29
24.61
23.52
22.11
20.49
18.84
17.35
16.20
15.41
14.88
14.40
13.74
12.77
11.50
10.11
8.71
7.39
6.08
4.67
3.06
1.28
-0.55
-2.29
-3.87
-5.38
-6.95
-8.75
-10.81
-13.05
-15.31
-17.42
-19.33
-21.08
-22.84
-24.74
-26.89
-29.30
-31.97
-34.92
-38.20
-41.90
-45.91
-49.96
-53.47
-55.76
-56.13
-54.15
-49.80
-43.45
-35.82
-27.74
-19.98
-13.06
-7.23
-2.44
1.51
4.90
8.03
11.07
14.10
17.07
19.90
22.43
24.51
26.01
26.83
27.03
26.76
26.30
25.98
26.04
26.55
27.35
28.15
28.62
28.56
27.96
26.96
25.81
24.71
23.79
23.04
22.38
21.67
20.81
19.71
18.40
16.99
15.64
14.51
13.67
13.08
12.57
12.02
11.32
10.51
9.71
9.02
8.50
8.03
7.43
6.48
5.05
3.21
1.16
-0.83
-2.56
-3.98
-5.26
-6.61
-8.25
-10.26
-12.59
-15.10
-17.67
-20.22
-22.72
-25.18
-27.59
-29.98
-32.48
-35.27
-38.61
-42.66
-47.33
-52.16
-56.37
-59.03
-59.37
-56.98
-51.94
-44.85
-36.55
-27.96
-19.84
-12.64
-6.55
-1.49
2.75
6.39
9.60
12.50
15.06
17.22
18.95
20.26
21.20
21.84
22.23
22.35
22.23
21.95
21.68
21.64
21.98
22.72
23.70
24.60
25.10
24.97
24.17
22.84
21.27
19.74
18.51
17.69
17.24
17.00
16.78
16.42
15.88
15.17
14.37
13.50
12.52
11.39
10.08
8.66
7.24
5.92
4.73
3.57
2.36
1.04
-0.36
-1.76
-3.14
-4.48
-5.89
-7.46
-9.31
-11.43
-13.79
-16.32
-18.89
-21.44
-23.91
-26.33
-28.85
-31.69
-35.09
-39.14
-43.67
-48.13
-51.71
-53.52
-52.85
-49.46
-43.67
-36.24
-28.12
-20.15
-12.80
-6.31
-0.63
4.33
8.61
12.20
15.14
17.56
19.68
21.72
23.77
25.77
27.46
28.53
28.81
28.38
27.57
26.80
26.48
26.77
27.50
28.36
28.99
29.24
29.16
28.90
28.56
28.15
27.54
26.59
25.26
23.63
21.91
20.27
18.84
17.61
16.56
15.58
14.63
13.70
12.80
11.97
11.13
10.17
8.91
7.23
5.17
2.96
0.94
-0.66
-1.80
-2.72
-3.76
-5.14
-6.90
-8.86
-10.80
-12.63
-14.44
-16.40
-18.66
-21.20
-23.84
-26.43
-28.88
-31.25
-33.72
-36.51
-39.83
-43.89
-48.69
-53.98
-59.06
-62.90
-64.35
-62.60
-57.54
-49.78
-40.42
-30.71
-21.56
-13.50
-6.66
-1.04
3.47
7.00
9.79
12.17
14.46
16.90
19.48
21.99
24.05
25.36
25.79
25.51
24.87
24.35
24.33
24.96
26.14
27.52
28.71
29.39
29.46
29.02
28.27
27.39
26.51
25.69
24.88
24.07
23.24
22.36
21.40
20.31
19.05
17.53
15.76
13.78
11.77
9.94
8.51
7.55
6.98
6.53
5.89
4.85
3.38
1.62
-0.21
-2.00
-3.75
-5.57
-7.59
-9.86
-12.35
-14.99
-17.73
-20.53
-23.38
-26.19
-28.85
-31.30
-33.58
-35.90
-38.60
-41.96
-45.99
-50.37
-54.42
-57.32
-58.32
-56.94
-53.07
-46.95
-39.10
-30.17
-20.90
-11.97
-4.00
2.64
7.88
11.93
15.15
17.89
20.38
22.67
24.69
26.31
27.44
28.03
28.11
27.78
27.27
26.86
26.79
27.17
27.92
28.80
29.58
30.13
30.46
30.65
30.76
30.67
30.21
29.24
27.81
26.13
24.53
23.26
22.38
21.74
21.08
20.20
19.10
17.93
16.96
16.36
16.12
15.96
15.56
14.60
12.96
10.71
8.04
5.13
2.07
-1.22
-4.89
-9.10
-13.85
-18.98
-24.17
-29.06
-33.41
-37.17
-40.52
-43.84
-47.50
-51.78
-56.77
-62.24
-67.73
-72.55
-75.91
-77.05
-75.40
-70.76
-63.38
-53.90
-43.24
-32.38
-22.16
-13.10
-5.40
1.09
6.71
11.84
16.80
21.68
26.37
30.59
34.01
36.36
37.60
37.85
37.41
36.57
35.65
34.86
34.36
34.21
34.44
34.96
35.59
36.09
36.18
35.70
34.63
33.09
31.33
29.64
28.22
27.17
26.44
25.82
25.09
24.07
22.70
21.03
19.23
17.47
15.82
14.28
12.72
11.04
9.16
7.09
4.89
2.59
0.25
-2.15
-4.59
-7.01
-9.33
-11.53
-13.64
-15.79
-18.16
-20.84
-23.81
-26.86
-29.75
-32.26
-34.40
-36.39
-38.64
-41.64
-45.69
-50.84
-56.63
-62.26
-66.64
-68.75
-67.92
-63.96
-57.27
-48.64
-39.05
-29.33
-20.12
-11.74
-4.31
2.17
7.77
12.53
16.56
19.94
22.82
25.29
27.43
29.24
30.65
31.63
32.15
32.32
32.32
32.44
32.85
33.67
34.82
36.09
37.24
38.10
38.54
38.55
38.11
37.22
35.86
34.08
31.93
29.56
27.07
24.59
22.20
19.95
17.90
16.00
14.20
12.37
10.44
8.38
6.26
4.14
1.99
-0.37
-3.16
-6.55
-10.46
-14.60
-18.58
-22.05
-24.90
-27.26
-29.42
-31.76
-34.63
-38.24
-42.67
-47.77
-53.07
-57.81
-61.06
-61.91
-59.76
-54.53
-46.66
-36.94
-26.35
-15.80
-6.03
2.45
9.41
14.87
19.07
22.42
25.35
28.16
30.84
33.18
34.79
35.43
35.07
34.02
32.75
31.71
31.18
31.21
31.59
32.03
32.20
31.87
30.89
29.26
27.06
24.45
21.61
18.73
15.96
13.35
10.87
8.38
5.68
2.65
-0.69
-4.17
-7.44
-10.20
-12.31
-13.79
-14.90
-16.01
-17.38
-19.20
-21.45
-23.97
-26.55
-29.04
-31.37
-33.63
-36.08
-38.97
-42.46
-46.46
-50.66
-54.50
-57.41
-58.92
-58.83
-57.19
-54.11
-49.67
-43.78
-36.23
-26.84
-15.64
-3.04
10.25
23.33
35.41
45.91
54.61
61.59
67.13
71.62
75.45
78.93
82.24
85.42
88.28
90.48
91.62
91.32
89.41
85.94
81.22
75.69
69.80
63.83
57.97
52.24
46.70
41.46
36.70
32.59
29.09
25.86
22.21
17.33
10.39
0.92
-11.13
-25.38
-41.24
-58.04
-75.08
-91.53
-106.35
-118.49
-127.15
-132.08
-133.62
-132.33
-128.34
-120.92
-108.66
-90.15
-65.08
-34.83
-2.38
28.61
55.03
75.11
88.54
95.78
97.35
93.44
84.07
69.62
51.32
31.40
12.63
-2.34
-11.82
-15.52
-14.55
-11.06
-7.56
-6.15
-7.96
-12.88
-19.74
-26.63
-31.58
-33.13
-30.63
-24.35
-15.30
-4.86
5.43
14.21
20.57
24.20
25.50
25.50
25.55
26.87
30.05
34.77
39.96
44.24
46.60
46.81
45.42
43.43
41.65
40.47
39.77
39.18
38.28
36.73
34.23
30.56
25.61
19.51
12.76
6.17
0.59
-3.40
-5.71
-6.81
-7.52
-8.63
-10.68
-13.82
-17.95
-22.84
-28.29
-34.20
-40.36
-46.37
-51.58
-55.17
-56.58
-55.70
-53.08
-49.74
-46.84
-45.20
-45.09
-46.16
-47.58
-48.33
-47.50
-44.50
-39.16
-31.84
-23.17
-14.00
-5.11
3.02
10.27
16.87
23.17
29.52
35.97
42.34
48.12
52.68
55.41
55.81
53.70
49.29
43.13
36.06
28.91
22.34
16.66
11.80
7.45
3.34
-0.60
-4.17
-6.97
-8.67
-9.17
-8.65
-7.50
-6.11
-4.76
-3.68
-3.16
-3.65
-5.64
-9.50
-15.32
-22.93
-32.10
-42.55
-53.94
-65.55
-75.99
-83.47
-86.36
-83.91
-76.57
-65.69
-52.68
-38.44
-23.09
-6.33
12.06
31.86
52.40
72.76
92.01
109.18
123.13
132.63
136.56
134.34
126.27
113.48
97.59
80.32
63.15
47.23
33.29
21.72
12.44
5.14
-0.58
-4.95
-7.90
-9.08
-8.06
-4.60
1.10
8.37
16.19
23.32
28.51
30.62
28.84
22.84
12.97
0.27
-13.63
-26.93
-38.08
-46.08
-50.65
-51.99
-50.52
-46.52
-39.94
-30.47
-17.77
-1.92
16.41
36.01
55.40
73.20
88.47
100.70
109.75
115.63
118.37
117.96
114.27
106.95
95.44
79.22
58.03
32.48
4.14
-24.58
-50.90
-72.34
-87.16
-94.51
-94.46
-87.97
-76.85
-63.72
-51.60
-43.36
-40.85
-44.44
-52.80
-63.50
-73.70
-81.02
-84.11
-82.80
-77.97
-71.11
-63.89
-57.59
-52.85
-49.59
-47.22
-45.04
-42.49
-39.39
-35.83
-32.01
-28.13
-24.26
-20.57
-17.34
-15.03
-14.07
-14.61
-16.41
-18.88
-21.36
-23.40
-24.95
-26.34
-28.08
-30.54
-33.79
-37.61
-41.56
-45.26
-48.40
-50.77
-52.16
-52.30
-50.81
-47.43
-42.08
-35.00
-26.79
-18.25
-10.17
-3.12
2.67
7.27
11.02
14.26
17.27
20.14
22.86
25.32
27.45
29.24
30.73
31.98
33.04
33.99
34.82
35.58
36.27
36.85
37.25
37.37
37.12
36.43
35.27
33.63
31.56
29.20
26.72
24.31
22.17
20.40
18.97
17.71
16.39
14.85
13.06
11.19
9.46
8.03
6.93
6.02
5.15
4.21
3.24
2.33
1.55
0.90
0.25
-0.47
-1.32
-2.26
-3.22
-4.23
-5.38
-6.79
-8.48
-10.45
-12.51
-14.54
-16.44
-18.23
-19.96
-21.70
-23.54
-25.54
-27.78
-30.19
-32.56
-34.44
-35.28
-34.63
-32.40
-28.87
-24.64
-20.36
-16.40
-12.88
-9.64
-6.49
-3.33
-0.21
2.77
5.55
8.12
10.56
12.83
14.81
16.32
17.19
17.42
17.14
16.66
16.28
16.23
16.48
16.81
16.85
16.23
14.82
12.82
10.66
8.89
7.88
7.65
7.92
8.23
8.22
7.81
7.12
6.44
5.95
5.67
5.45
5.11
4.57
3.85
3.02
2.13
1.18
0.11
-1.03
-2.06
-2.76
-2.91
-2.51
-1.83
-1.39
-1.72
-3.20
-5.88
-9.46
-13.40
-17.09
-20.11
-22.27
-23.69
-24.66
-25.51
-26.56
-27.92
-29.59
-31.34
-32.77
-33.40
-32.79
-30.72
-27.30
-22.99
-18.41
-14.14
-10.50
-7.55
-5.07
-2.79
-0.53
1.76
3.95
5.90
7.47
8.65
9.58
10.38
11.19
11.99
12.67
13.09
13.13
12.84
12.44
12.23
12.41
13.02
13.94
14.94
15.78
16.30
16.36
15.93
15.04
13.80
12.41
11.04
9.78
8.67
7.65
6.70
5.89
5.34
5.12
5.16
5.25
5.07
4.47
3.48
2.33
1.33
0.66
0.28
-0.08
-0.73
-1.92
-3.71
-5.94
-8.33
-10.60
-12.58
-14.27
-15.77
-17.27
-18.95
-20.92
-23.25
-25.88
-28.66
-31.29
-33.36
-34.42
-34.10
-32.18
-28.73
-24.17
-19.10
-14.25
-10.18
-7.16
-5.14
-3.73
-2.41
-0.76
1.38
3.83
6.20
8.07
9.23
9.71
9.78
9.68
9.61
9.62
9.66
9.71
9.81
10.07
10.60
11.42
12.40
13.37
14.09
14.38
14.12
13.33
12.12
10.72
9.36
8.18
7.21
6.38
5.51
4.48
3.19
1.63
-0.14
-2.04
-3.94
-5.71
-7.24
-8.48
-9.48
-10.36
-11.32
-12.51
-13.99
-15.76
-17.72
-19.82
-21.99
-24.03
-25.69
-26.58
-26.42
-25.05
-22.61
-19.47
-16.06
-12.76
-9.73
-7.01
-4.56
-2.36
-0.40
1.35
2.98
4.68
6.50
8.40
10.18
11.68
12.76
13.47
13.92
14.23
14.47
14.63
14.70
14.64
14.45
14.10
13.54
12.79
11.87
10.91
9.99
9.18
8.41
7.55
6.47
5.15
3.73
2.42
1.42
0.77
0.33
-0.22
-1.24
-2.96
-5.35
-8.12
-10.84
-13.03
-14.45
-15.14
-15.44
-15.92
-17.23
-19.95
-24.43
-30.74
-38.59
-47.34
-56.10
-63.85
-69.60
-72.51
-72.14
-68.45
-61.91
-53.47
-44.49
-36.51
-30.87
-28.36
-28.70
-30.44
-31.32
-28.99
-22.06
-10.91
2.30
14.30
21.75
22.08
13.78
-3.37
-28.19
-57.85
-87.95
-112.97
-127.82
-129.34
-117.35
-94.53
-64.97
-32.29
1.76
37.32
75.04
114.34
152.38
184.64
206.74
216.51
215.18
206.89
196.89
189.29
185.46
183.99
182.07
177.27
168.84
157.86
146.24
135.62
126.52
118.40
110.34
101.75
92.70
83.84
75.73
68.31
60.75
51.71
40.14
25.95
10.24
-5.04
-17.96
-27.38
-33.42
-37.21
-40.24
-43.69
-47.97
-52.78
-57.53
-61.72
-65.14
-67.86
-69.97
-71.45
-72.19
-72.05
-71.04
-69.38
-67.40
-65.45
-63.81
-62.66
-62.06
-61.93
-61.99
-61.79
-60.79
-58.54
-54.84
-49.87
-44.09
-38.08
-32.33
-27.17
-22.79
-19.36
-17.07
-16.08
-16.48
-18.13
-20.73
-23.88
-27.19
-30.43
-33.41
-36.07
-38.35
-40.28
-41.91
-43.39
-44.85
-46.43
-48.18
-50.03
-51.76
-52.97
-53.13
-51.62
-47.91
-41.77
-33.45
-23.68
-13.47
-3.92
4.12
10.22
14.35
16.84
18.22
19.26
20.82
23.78
28.83
36.18
45.46
55.66
65.45
73.44
78.60
80.47
79.22
75.54
70.45
65.01
60.11
56.20
53.32
51.10
49.03
46.63
43.71
40.29
36.60
32.80
28.89
24.69
19.92
14.32
7.80
0.48
-7.29
-15.02
-22.21
-28.43
-33.49
-37.46
-40.59
-43.30
-46.10
-49.40
-53.46
-58.19
-63.10
-67.31
-69.78
-69.58
-66.29
-60.07
-51.72
-42.36
-33.13
-24.82
-17.80
-12.02
-7.14
-2.76
1.42
5.44
9.06
11.90
13.55
13.88
13.14
11.87
10.72
10.12
10.13
10.48
10.78
10.77
10.45
9.98
9.45
8.67
7.21
4.49
0.17
-5.72
-12.70
-19.95
-26.57
-31.81
-35.21
-36.63
-36.29
-34.64
-32.26
-29.75
-27.46
-25.44
-23.40
-20.96
-17.90
-14.59
-12.02
-11.53
-14.16
-19.83
-26.83
-31.86
-30.83
-19.97
3.07
38.34
83.15
132.16
178.19
213.84
233.40
234.57
219.05
191.68
158.65
125.42
95.51
70.45
50.56
35.90
26.61
22.46
22.33
24.11
25.28
23.84
19.13
11.94
4.03
-2.68
-6.77
-7.80
-6.25
-3.23
-0.01
2.37
3.47
3.32
2.33
0.96
-0.51
-2.13
-4.23
-7.26
-11.53
-16.88
-22.48
-27.02
-29.12
-28.01
-23.95
-18.17
-12.30
-7.55
-4.17
-1.46
1.55
5.26
8.89
10.71
8.80
2.01
-9.50
-24.29
-40.25
-55.30
-67.86
-76.94
-82.08
-83.11
-80.28
-74.30
-66.35
-57.95
-50.52
-45.02
-41.64
-39.85
-38.63
-36.91
-34.05
-30.05
-25.52
-21.29
-17.96
-15.57
-13.58
-11.21
-7.88
-3.49
1.53
6.41
10.49
13.33
14.86
15.15
14.41
12.93
11.07
9.28
7.90
7.15
7.04
7.38
7.97
8.63
9.26
9.80
10.23
10.53
10.75
10.94
11.01
10.70
9.61
7.47
4.35
0.83
-2.24
-4.14
-4.79
-4.83
-5.43
-7.67
-12.00
-17.98
-24.42
-29.88
-33.22
-33.95
-32.29
-28.89
-24.57
-20.06
-15.84
-12.14
-8.92
-5.97
-3.06
-0.07
2.88
5.49
7.46
8.67
9.32
9.90
10.94
12.75
15.25
17.94
20.17
21.38
21.38
20.38
18.97
17.80
17.42
17.98
19.20
20.50
21.24
21.15
20.37
19.44
18.95
19.26
20.30
21.68
22.86
23.48
23.41
22.80
21.81
20.53
18.90
16.77
13.99
10.56
6.62
2.44
-1.62
-5.23
-8.14
-10.27
-11.69
-12.63
-13.41
-14.38
-15.86
-18.09
-21.23
-25.40
-30.63
-36.83
-43.70
-50.55
-56.42
-60.22
-61.10
-58.71
-53.47
-46.33
-38.48
-30.85
-23.78
-17.03
-10.08
-2.58
5.27
12.72
18.81
22.83
24.63
24.65
23.57
21.88
19.67
16.67
12.66
7.81
2.87
-0.99
-2.62
-1.38
2.59
8.33
14.46
19.67
23.20
25.02
25.69
26.08
26.80
28.06
29.61
31.00
31.86
32.04
31.54
30.36
28.46
25.80
22.47
18.81
15.22
11.95
8.76
4.98
-0.30
-7.58
-16.52
-25.74
-33.14
-36.75
-35.45
-29.48
-20.31
-10.02
-0.46
7.32
13.19
17.58
20.91
23.27
24.36
23.77
21.36
17.51
12.94
8.52
4.88
2.25
0.48
-0.76
-1.74
-2.55
-3.05
-3.06
-2.47
-1.41
-0.31
0.24
-0.30
-2.15
-5.07
-8.38
-11.14
-12.62
-12.58
-11.38
-9.85
-8.90
-9.12
-10.58
-12.86
-15.31
-17.41
-18.94
-20.09
-21.26
-22.96
-25.55
-29.21
-33.86
-39.04
-44.04
-47.94
-49.84
-49.15
-45.78
-40.22
-33.36
-26.23
-19.76
-14.49
-10.59
-7.84
-5.79
-3.99
-2.04
0.22
2.73
5.29
7.63
9.54
10.90
11.73
12.13
12.27
12.32
12.47
12.91
13.77
15.08
16.72
18.42
19.84
20.62
20.45
19.21
17.04
14.31
11.56
9.27
7.73
6.92
6.54
6.19
5.54
4.45
2.95
1.18
-0.67
-2.52
-4.27
-5.94
-7.59
-9.31
-11.20
-13.31
-15.63
-18.06
-20.50
-22.87
-25.21
-27.67
-30.49
-33.85
-37.76
-41.89
-45.55
-47.85
-47.93
-45.32
-40.06
-32.78
-24.46
-16.12
-8.56
-2.21
2.75
6.40
8.93
10.63
11.90
13.11
14.53
16.18
17.83
19.09
19.69
19.59
19.07
18.57
18.50
19.02
19.99
21.10
21.98
22.42
22.40
22.01
21.38
20.63
19.82
18.98
18.14
17.34
16.61
15.87
15.00
13.84
12.21
10.07
7.45
4.52
1.48
-1.45
-4.14
-6.52
-8.59
-10.42
-12.05
-13.46
-14.59
-15.36
-15.72
-15.80
-15.88
-16.34
-17.61
-19.92
-23.23
-27.11
-30.81
-33.53
-34.59
-33.70
-30.99
-27.00
-22.40
-17.82
-13.64
-9.96
-6.67
-3.57
-0.45
2.84
6.34
10.01
13.67
17.09
19.95
21.99
23.02
23.04
22.19
20.84
19.44
18.49
18.36
19.18
20.75
22.66
24.40
25.58
26.03
25.85
25.23
24.30
23.11
21.65
19.92
18.05
16.27
14.79
13.73
13.08
12.66
12.23
11.61
10.61
9.19
7.35
5.21
2.93
0.64
-1.65
-3.98
-6.38
-8.80
-10.99
-12.73
-13.93
-14.83
-16.02
-18.12
-21.53
-26.12
-31.23
-35.88
-39.10
-40.19
-38.99
-35.75
-31.04
-25.52
-19.81
-14.35
-9.36
-4.95
-1.11
2.19
5.06
7.62
10.02
12.41
14.82
17.13
19.11
20.45
20.95
20.60
19.60
18.30
17.08
16.21
15.78
15.74
15.93
16.19
16.45
16.69
16.94
17.14
17.14
16.68
15.55
13.74
11.50
9.31
7.76
7.17
7.45
8.06
8.21
7.23
4.91
1.64
-1.78
-4.48
-5.97
-6.34
-6.19
-6.30
-7.26
-9.25
-12.02
-15.10
-18.11
-20.85
-23.37
-25.81
-28.29
-30.89
-33.61
-36.41
-39.20
-41.69
-43.42
-43.77
-42.24
-38.64
-33.23
-26.67
-19.79
-13.35
-7.80
-3.27
0.42
3.54
6.35
9.03
11.66
14.23
16.67
18.90
20.75
22.06
22.70
22.63
21.99
21.05
20.17
19.63
19.54
19.85
20.31
20.67
20.73
20.39
19.66
18.58
17.27
15.95
14.87
14.23
14.13
14.41
14.70
14.55
13.64
11.91
9.59
7.14
5.02
3.48
2.52
1.84
1.02
-0.30
-2.25
-4.72
-7.37
-9.82
-11.83
-13.45
-14.92
-16.66
-19.01
-22.05
-25.65
-29.47
-33.07
-35.97
-37.76
-38.08
-36.73
-33.75
-29.39
-24.16
-18.60
-13.25
-8.45
-4.39
-1.07
1.63
3.85
5.81
7.68
9.59
11.54
13.39
14.85
15.63
15.59
14.82
13.67
12.58
11.95
12.02
12.76
13.89
15.02
15.83
16.08
15.83
15.23
14.54
13.90
13.31
12.58
11.50
10.00
8.25
6.61
5.38
4.61
4.06
3.30
1.97
-0.04
-2.50
-5.10
-7.51
-9.60
-11.45
-13.22
-15.08
-17.10
-19.35
-21.93
-25.00
-28.61
-32.63
-36.56
-39.60
-40.95
-39.98
-36.61
-31.25
-24.79
-18.15
-12.05
-6.81
-2.40
1.32
4.52
7.25
9.50
11.32
12.83
14.21
15.61
17.08
18.54
19.89
21.05
22.04
22.97
23.96
25.02
26.01
26.66
26.72
26.08
24.81
23.18
21.50
20.00
18.79
17.85
17.14
16.57
16.02
15.33
14.29
12.76
10.76
8.51
6.31
4.43
2.95
1.74
0.53
-0.92
-2.71
-4.80
-7.05
-9.31
-11.51
-13.67
-15.81
-17.93
-19.98
-21.87
-23.68
-25.59
-27.96
-31.10
-35.08
-39.56
-43.81
-46.91
-48.03
-46.75
-43.16
-37.78
-31.34
-24.61
-18.18
-12.45
-7.59
-3.58
-0.24
2.77
5.74
8.90
12.29
15.72
18.96
21.74
23.92
25.44
26.34
26.66
26.48
25.93
25.19
24.54
24.20
24.28
24.70
25.26
25.73
25.94
25.88
25.63
25.30
24.86
24.28
23.45
22.37
21.08
19.73
18.51
17.49
16.63
15.78
14.79
13.57
12.21
10.89
9.74
8.79
7.84
6.56
4.66
2.09
-0.93
-3.99
-6.65
-8.67
-10.10
-11.27
-12.54
-14.20
-16.34
-18.86
-21.56
-24.26
-26.94
-29.63
-32.55
-35.87
-39.68
-43.83
-47.95
-51.48
-53.75
-54.26
-52.71
-49.12
-43.81
-37.27
-30.05
-22.70
-15.68
-9.28
-3.66
1.20
5.44
9.21
12.62
15.71
18.39
20.54
22.12
23.10
23.56
23.60
23.36
22.96
22.56
22.36
22.50
23.06
23.94
24.91
25.72
26.19
26.30
26.20
26.05
26.00
26.07
26.12
26.03
25.69
25.05
24.15
23.00
21.65
20.12
18.48
16.78
15.02
13.18
11.20
9.04
6.72
4.36
2.08
-0.03
-1.96
-3.84
-5.81
-8.02
-10.46
-13.03
-15.49
-17.62
-19.31
-20.65
-22.01
-23.96
-26.98
-31.27
-36.55
-41.97
-46.41
-48.80
-48.43
-45.28
-39.76
-32.69
-24.95
-17.29
-10.29
-4.28
0.61
4.42
7.36
9.71
11.71
13.58
15.40
17.18
18.91
20.55
21.99
23.06
23.63
23.64
23.25
22.78
22.63
23.04
23.97
25.14
26.12
26.54
26.22
25.21
23.75
22.10
20.49
19.07
17.95
17.12
16.54
16.13
15.77
15.36
14.85
14.23
13.44
12.45
11.18
9.57
7.65
5.55
3.46
1.49
-0.38
-2.30
-4.48
-7.07
-10.01
-13.08
-15.99
-18.54
-20.74
-22.75
-24.84
-27.19
-29.94
-33.15
-36.88
-41.10
-45.62
-49.93
-53.25
-54.70
-53.58
-49.71
-43.46
-35.63
-27.22
-19.09
-11.81
-5.59
-0.47
3.71
7.11
9.91
12.30
14.41
16.36
18.19
19.91
21.54
23.20
24.99
26.98
29.10
31.06
32.47
32.99
32.51
31.27
29.71
28.31
27.30
26.67
26.16
25.51
24.63
23.61
22.68
22.05
21.73
21.56
21.25
20.52
19.22
17.36
15.18
13.00
11.12
9.70
8.72
7.97
7.14
6.02
4.59
2.99
1.45
0.12
-1.05
-2.33
-4.08
-6.52
-9.63
-13.11
-16.54
-19.50
-21.84
-23.72
-25.46
-27.44
-29.93
-33.02
-36.62
-40.52
-44.39
-47.71
-49.81
-49.93
-47.55
-42.61
-35.61
-27.60
-19.79
-13.18
-8.22
-4.78
-2.26
0.02
2.62
5.81
9.56
13.62
17.58
21.00
23.48
24.76
24.81
23.88
22.40
20.82
19.42
18.22
17.04
15.54
13.53
11.03
8.34
5.92
4.21
3.50
3.78
4.67
5.45
5.14
2.70
-2.40
-9.59
-16.75
-20.47
-17.06
-4.02
18.58
47.80
78.42
104.56
121.28
125.63
117.05
97.23
69.69
39.33
11.60
-8.60
-18.16
-16.75
-6.87
7.00
19.84
27.55
27.82
20.39
6.83
-9.92
-26.26
-38.71
-44.81
-43.82
-36.84
-26.28
-14.84
-4.51
3.96
10.85
16.81
22.16
26.52
28.99
28.55
24.62
17.28
7.19
-4.70
-17.39
-29.87
-41.09
-49.86
-55.09
-56.14
-53.34
-48.04
-42.22
-37.62
-34.92
-33.38
-31.35
-27.32
-20.78
-12.57
-4.33
2.47
7.28
10.65
13.64
17.24
21.89
27.56
34.03
41.14
48.72
56.32
62.99
67.40
68.30
64.99
57.44
46.30
32.60
17.61
2.71
-10.64
-21.19
-28.21
-31.74
-32.63
-32.15
-31.49
-31.24
-31.37
-31.34
-30.57
-28.69
-25.72
-21.96
-17.88
-13.98
-10.70
-8.36
-7.01
-6.38
-5.97
-5.24
-3.82
-1.70
0.76
3.02
4.65
5.53
5.89
6.21
7.06
8.85
11.72
15.48
19.59
23.27
25.65
25.95
23.74
19.19
13.00
6.33
0.45
-3.67
-5.53
-5.28
-3.47
-0.95
1.46
2.99
3.06
1.34
-2.10
-6.75
-11.72
-15.97
-18.77
-19.91
-19.82
-19.25
-18.92
-19.31
-20.50
-22.37
-24.84
-27.98
-31.91
-36.62
-41.78
-46.74
-50.70
-52.88
-52.81
-50.42
-46.08
-40.57
-34.91
-30.15
-27.14
-26.29
-27.47
-30.15
-33.53
-36.87
-39.51
-40.98
-40.96
-39.23
-35.86
-31.21
-25.98
-21.01
-16.96
-14.04
-11.97
-10.12
-7.88
-4.99
-1.61
1.80
4.78
7.18
9.20
11.31
13.93
17.09
20.36
22.98
24.13
23.40
20.98
17.53
13.95
10.90
8.66
7.15
6.19
5.72
5.87
6.85
8.69
11.13
13.67
15.72
16.90
17.16
16.78
16.28
16.15
16.60
17.41
18.02
17.80
16.43
14.10
11.54
9.64
9.05
9.75
11.15
12.26
12.31
11.06
8.94
6.79
5.45
5.34
6.29
7.77
9.14
9.99
10.26
10.18
10.07
10.14
10.38
10.57
10.49
9.98
9.05
7.84
6.55
5.30
4.07
2.72
0.98
-1.36
-4.31
-7.69
-11.11
-14.16
-16.49
-17.94
-18.46
-18.01
-16.56
-14.19
-11.16
-8.00
-5.48
-4.29
-4.77
-6.69
-9.31
-11.55
-12.43
-11.42
-8.55
-4.32
0.55
5.33
9.44
12.40
13.78
13.31
10.95
7.05
2.34
-2.11
-5.32
-6.66
-6.09
-4.22
-2.02
-0.55
-0.56
-2.31
-5.49
-9.43
-13.37
-16.72
-19.31
-21.27
-22.99
-24.81
-27.08
-30.08
-34.09
-39.29
-45.54
-52.27
-58.36
-62.36
-62.90
-59.18
-51.28
-40.18
-27.46
-14.78
-3.46
5.89
13.32
19.38
24.80
30.16
35.71
41.25
46.22
49.95
51.92
51.97
50.36
47.68
44.54
41.51
38.92
36.94
35.69
35.16
35.13
35.07
34.14
31.45
26.59
19.81
12.20
5.11
-0.38
-3.98
-6.31
-8.45
-11.40
-15.50
-20.25
-24.53
-27.08
-27.12
-24.55
-20.04
-14.71
-9.76
-6.07
-4.02
-3.43
-3.85
-4.77
-5.89
-7.18
-8.74
-10.65
-12.89
-15.28
-17.73
-20.26
-23.00
-26.05
-29.19
-31.92
-33.52
-33.33
-31.10
-27.09
-21.97
-16.61
-11.72
-7.67
-4.37
-1.44
1.55
4.92
8.56
12.06
14.84
16.44
16.79
16.33
15.76
15.69
16.38
17.53
18.57
18.97
18.61
17.82
17.19
17.16
17.80
18.77
19.52
19.65
19.09
18.08
16.99
16.03
15.18
14.21
12.88
11.13
9.19
7.46
6.30
5.86
5.95
6.14
5.95
5.07
3.42
1.19
-1.32
-3.92
-6.53
-9.22
-12.04
-14.91
-17.56
-19.68
-21.10
-21.93
-22.57
-23.64
-25.65
-28.76
-32.64
-36.52
-39.45
-40.69
-39.86
-37.08
-32.80
-27.62
-22.09
-16.65
-11.60
-7.06
-3.03
0.66
4.20
7.73
11.21
14.38
16.94
18.69
19.67
20.10
20.30
20.48
20.73
21.06
21.53
22.24
23.22
24.37
25.42
25.99
25.84
25.05
23.95
23.00
22.47
22.30
22.17
21.68
20.66
19.23
17.70
16.50
15.79
15.53
15.44
15.23
14.74
14.00
13.19
12.49
11.95
11.41
10.60
9.23
7.22
4.75
2.20
-0.02
-1.70
-2.88
-3.83
-4.89
-6.30
-8.15
-10.38
-12.86
-15.48
-18.22
-21.06
-24.04
-27.17
-30.50
-34.06
-37.82
-41.59
-44.99
-47.42
-48.23
-46.95
-43.45
-38.07
-31.55
-24.77
-18.50
-13.16
-8.81
-5.21
-2.03
1.04
4.21
7.51
10.91
14.25
17.31
19.87
21.77
22.91
23.34
23.20
22.71
22.15
21.75
21.71
22.03
22.66
23.41
24.06
24.47
24.57
24.34
23.81
22.97
21.86
20.55
19.21
18.05
17.22
16.71
16.38
16.00
15.44
14.67
13.82
13.08
12.55
12.19
11.80
11.11
10.00
8.53
6.96
5.60
4.62
3.89
3.13
1.92
0.06
-2.43
-5.29
-8.23
-11.10
-13.84
-16.44
-18.81
-20.76
-22.15
-23.11
-24.01
-25.42
-27.78
-31.14
-35.05
-38.70
-41.17
-41.75
-40.10
-36.33
-30.92
-24.59
-18.13
-12.28
-7.47
-3.83
-1.11
1.11
3.25
5.57
8.03
10.50
12.72
14.53
15.89
16.79
17.29
17.37
17.08
16.48
15.77
15.21
15.07
15.48
16.38
17.55
18.60
19.30
19.46
19.11
18.39
17.48
16.54
15.63
14.78
14.00
13.32
12.74
12.23
11.72
11.06
10.15
8.91
7.38
5.65
3.90
2.29
0.92
-0.20
-1.16
-2.11
-3.25
-4.73
-6.58
-8.71
-10.93
-13.03
-14.81
-16.30
-17.60
-18.98
-20.70
-22.94
-25.66
-28.61
-31.40
-33.60
-34.85
-34.95
-33.85
-31.69
-28.70
-25.14
-21.16
-16.77
-11.82
-6.14
0.30
7.25
14.16
20.29
24.94
27.68
28.45
27.54
25.51
22.94
20.35
18.12
16.46
15.36
14.68
14.25
13.87
13.56
13.39
13.48
13.87
14.42
14.85
14.87
14.24
12.84
10.70
7.90
4.75
1.83
0.04
0.46
3.93
10.56
19.50
29.03
37.11
42.12
43.27
40.77
35.50
28.55
20.93
13.37
6.45
0.59
-3.92
-7.10
-9.30
-11.11
-13.17
-15.85
-19.15
-22.73
-26.15
-29.06
-31.37
-33.24
-34.99
-36.94
-39.33
-42.22
-45.40
-48.44
-50.70
-51.47
-50.24
-46.84
-41.57
-35.11
-28.32
-22.03
-16.82
-12.92
-10.22
-8.36
-6.80
-5.06
-2.81
-0.01
3.15
6.31
9.09
11.25
12.74
13.71
14.31
14.75
15.13
15.53
16.02
16.71
17.66
18.85
20.14
21.24
21.88
21.88
21.34
20.54
19.81
19.41
19.28
19.21
18.84
17.93
16.41
14.43
12.25
10.19
8.45
7.10
6.14
5.45
4.87
4.24
3.48
2.53
1.43
0.22
-1.06
-2.40
-3.83
-5.35
-6.95
-8.60
-10.26
-11.97
-13.79
-15.79
-17.95
-20.20
-22.44
-24.60
-26.77
-29.15
-31.95
-35.17
-38.56
-41.55
-43.44
-43.59
-41.65
-37.73
-32.35
-26.30
-20.37
-15.19
-11.04
-7.82
-5.18
-2.68
0.03
3.14
6.54
9.99
13.19
15.85
17.80
19.02
19.60
19.71
19.56
19.39
19.36
19.59
20.14
20.96
21.94
22.86
23.49
23.66
23.35
22.65
21.79
20.95
20.19
19.44
18.55
17.44
16.17
14.91
13.87
13.14
12.60
12.00
11.07
9.71
7.97
6.12
4.39
2.92
1.66
0.41
-1.04
-2.80
-4.84
-7.01
-9.10
-11.04
-12.84
-14.65
-16.60
-18.69
-20.79
-22.72
-24.40
-25.98
-27.81
-30.22
-33.25
-36.44
-38.97
-39.88
-38.54
-34.85
-29.32
-22.83
-16.34
-10.58
-5.93
-2.42
0.21
2.28
4.19
6.17
8.32
10.53
12.59
14.24
15.35
15.99
16.33
16.63
17.05
17.63
18.29
18.95
19.54
20.03
20.45
20.77
20.96
20.90
20.53
19.83
18.89
17.87
17.00
16.42
16.17
16.11
16.00
15.53
14.46
12.75
10.48
7.88
5.18
2.55
0.15
-1.86
-3.28
-3.88
-3.54
-2.37
-0.80
0.57
1.14
0.52
-1.37
-4.34
-8.04
-12.20
-16.53
-20.76
-24.58
-27.62
-29.69
-30.91
-31.79
-33.06
-35.42
-39.15
-43.87
-48.47
-51.19
-50.02
-43.23
-30.11
-11.33
10.91
33.49
53.28
68.18
77.66
82.56
84.38
84.29
82.70
79.24
73.40
65.04
54.63
43.16
31.78
21.64
13.70
8.79
7.38
9.35
13.79
18.97
22.89
23.86
21.18
15.34
7.68
-0.19
-7.09
-12.53
-16.73
-20.17
-23.18
-25.70
-27.29
-27.45
-26.04
-23.51
-20.79
-18.95
-18.55
-19.41
-20.69
-21.31
-20.62
-18.69
-16.21
-13.92
-12.18
-10.61
-8.34
-4.54
1.06
7.88
14.55
19.21
20.01
15.59
5.49
-9.61
-28.07
-47.58
-65.82
-80.96
-92.05
-99.07
-102.71
-103.98
-103.69
-102.17
-99.31
-94.87
-88.83
-81.59
-73.92
-66.56
-59.86
-53.70
-47.59
-41.02
-33.80
-26.17
-18.55
-11.22
-3.91
4.18
14.13
26.83
42.49
60.36
78.86
96.08
110.50
121.56
129.60
135.50
139.98
143.16
144.59
143.65
140.04
134.04
126.37
117.84
109.09
100.46
92.09
84.03
76.43
69.45
63.22
57.70
52.67
47.80
42.78
37.43
31.82
26.18
20.81
15.89
11.45
7.28
3.11
-1.30
-6.00
-10.89
-15.73
-20.22
-24.08
-27.13
-29.41
-31.21
-33.09
-35.66
-39.40
-44.53
-51.01
-58.66
-67.19
-76.26
-85.29
-93.44
-99.72
-103.38
-104.31
-103.26
-101.66
-100.98
-102.08
-104.83
-108.18
-110.76
-111.36
-109.31
-104.38
-96.48
-85.43
-71.02
-53.18
-32.32
-9.28
14.75
38.46
60.69
80.61
97.90
112.77
125.95
138.27
150.10
160.89
168.88
171.55
166.44
152.26
129.61
100.94
69.85
39.95
14.12
-5.91
-19.36
-26.21
-26.98
-22.81
-15.46
-7.06
0.23
4.91
6.45
5.37
2.85
0.17
-1.77
-2.74
-3.00
-3.16
-3.78
-5.25
-7.64
-10.70
-14.05
-17.35
-20.43
-23.34
-26.15
-28.79
-31.02
-32.52
-33.15
-33.09
-32.98
-33.57
-35.47
-38.97
-43.97
-50.15
-57.29
-65.23
-73.64
-81.75
-88.27
-91.72
-91.10
-86.55
-79.45
-71.84
-65.45
-60.86
-57.25
-53.05
-46.92
-38.55
-28.93
-19.71
-12.37
-7.59
-5.04
-3.84
-3.10
-2.27
-1.21
0.06
1.70
4.02
7.28
11.29
15.17
17.63
17.47
14.20
8.42
1.62
-4.41
-8.32
-9.68
-8.99
-7.30
-5.62
-4.57
-4.19
-4.24
-4.36
-4.39
-4.40
-4.73
-5.91
-8.62
-13.43
-20.53
-29.24
-37.98
-44.55
-46.85
-43.85
-36.17
-26.01
-16.40
-10.01
-8.22
-10.76
-16.07
-22.10
-27.01
-29.60
-29.31
-26.05
-20.02
-11.74
-2.01
8.07
17.38
24.98
30.40
33.68
35.28
35.87
36.11
36.51
37.35
38.66
40.30
42.00
43.50
44.58
45.15
45.14
44.57
43.38
41.45
38.65
34.94
30.45
25.51
20.62
16.23
12.66
9.95
7.87
6.05
4.08
1.66
-1.38
-5.01
-9.10
-13.46
-17.86
-22.12
-26.21
-30.32
-34.77
-39.93
-45.95
-52.47
-58.64
-63.12
-64.55
-62.00
-55.37
-45.43
-33.61
-21.45
-10.25
-0.68
7.11
13.36
18.47
22.78
26.58
30.07
33.32
36.30
38.87
40.84
42.09
42.68
42.77
42.66
42.61
42.77
43.16
43.74
44.48
45.28
45.98
46.33
46.05
44.88
42.85
40.23
37.46
34.99
33.03
31.50
30.10
28.42
26.19
23.33
20.00
16.51
13.18
10.20
7.59
5.15
2.54
-0.56
-4.29
-8.54
-12.97
-17.12
-20.70
-23.65
-26.25
-28.95
-32.24
-36.53
-42.06
-48.75
-56.10
-63.14
-68.52
-70.80
-68.93
-62.65
-52.66
-40.45
-27.77
-16.08
-6.18
1.84
8.34
13.87
18.83
23.44
27.79
31.91
35.80
39.47
42.79
45.58
47.57
48.56
48.56
47.75
46.58
45.53
45.04
45.26
46.05
46.94
47.38
46.96
45.56
43.43
41.04
38.87
37.24
36.14
35.29
34.24
32.65
30.36
27.55
24.57
21.85
19.64
17.98
16.67
15.35
13.73
11.64
9.12
6.36
3.57
0.91
-1.54
-3.80
-5.95
-8.07
-10.28
-12.65
-15.28
-18.20
-21.40
-24.75
-28.02
-30.96
-33.48
-35.78
-38.38
-42.01
-47.17
-53.74
-60.76
-66.63
-69.65
-68.58
-63.14
-54.03
-42.63
-30.52
-19.08
-9.15
-1.09
5.21
10.10
14.09
17.64
21.13
24.69
28.22
31.46
34.12
35.93
36.83
36.88
36.31
35.42
34.57
34.07
34.15
34.84
35.92
36.96
37.49
37.16
35.90
33.93
31.72
29.69
28.16
27.14
26.42
25.73
24.80
23.54
21.98
20.27
18.49
16.67
14.72
12.53
10.02
7.26
4.45
1.80
-0.53
-2.59
-4.62
-6.95
-9.84
-13.32
-17.17
-20.97
-24.33
-26.96
-28.93
-30.56
-32.34
-34.77
-38.17
-42.57
-47.63
-52.68
-56.82
-59.06
-58.57
-54.91
-48.21
-39.14
-28.80
-18.42
-9.08
-1.47
4.23
8.23
11.06
13.27
15.39
17.69
20.23
22.85
25.34
27.47
29.10
30.20
30.78
30.94
30.84
30.67
30.67
31.00
31.69
32.59
33.37
33.64
33.12
31.69
29.42
26.46
22.98
19.17
15.24
11.54
8.43
6.22
5.00
4.55
4.45
4.14
3.14
1.19
-1.78
-5.56
-9.85
-14.20
-18.25
-21.75
-24.70
-27.38
-30.33
-34.11
-39.12
-45.39
-52.37
-59.04
-64.06
-66.20
-64.66
-59.44
-51.31
-41.53
-31.54
-22.40
-14.71
-8.47
-3.31
1.27
5.70
10.20
14.76
19.14
22.94
25.71
27.13
27.04
25.60
23.20
20.42
17.89
16.08
15.19
15.10
15.52
16.06
16.45
16.61
16.58
16.43
16.14
15.62
14.75
13.52
12.03
10.54
9.28
8.36
7.70
7.09
6.25
5.03
3.44
1.73
0.21
-0.85
-1.43
-1.79
-2.36
-3.53
-5.55
-8.32
-11.54
-14.85
-17.99
-20.89
-23.63
-26.38
-29.35
-32.79
-36.93
-41.93
-47.73
-53.90
-59.61
-63.69
-64.95
-62.55
-56.35
-46.97
-35.71
-24.14
-13.69
-5.28
0.79
4.80
7.42
9.48
11.70
14.50
17.94
21.70
25.22
27.99
29.73
30.46
30.51
30.31
30.21
30.37
30.83
31.46
32.17
32.85
33.37
33.61
33.39
32.58
31.13
29.16
26.88
24.58
22.52
20.81
19.38
17.98
16.36
14.37
12.10
9.81
7.85
6.41
5.48
4.83
4.16
3.24
2.00
0.54
-0.96
-2.34
-3.58
-4.84
-6.38
-8.44
-11.14
-14.31
-17.62
-20.64
-23.16
-25.24
-27.28
-29.78
-33.14
-37.42
-42.30
-47.17
-51.23
-53.72
-53.95
-51.49
-46.29
-38.72
-29.62
-20.07
-11.18
-3.73
1.94
5.97
8.78
10.88
12.72
14.56
16.52
18.48
20.25
21.55
22.22
22.29
21.96
21.57
21.41
21.62
22.17
22.99
23.92
24.84
25.57
25.93
25.74
24.90
23.50
21.76
19.93
18.16
16.49
14.92
13.40
12.02
10.82
9.80
8.85
7.75
6.35
4.59
2.54
0.29
-2.07
-4.54
-7.08
-9.59
-11.83
-13.64
-15.01
-16.17
-17.53
-19.45
-22.04
-25.13
-28.33
-31.33
-33.97
-36.46
-39.15
-42.43
-46.45
-51.03
-55.64
-59.42
-61.43
-60.90
-57.49
-51.42
-43.45
-34.61
-25.89
-17.92
-10.92
-4.84
0.52
5.32
9.66
13.63
17.38
21.06
24.73
28.22
31.12
32.97
33.44
32.58
30.81
28.77
27.05
25.94
25.42
25.19
24.93
24.44
23.69
22.70
21.55
20.29
18.92
17.53
16.18
14.96
13.89
12.99
12.28
11.79
11.58
11.57
11.63
11.48
10.89
9.77
8.23
6.53
4.88
3.38
1.94
0.39
-1.41
-3.44
-5.54
-7.56
-9.40
-11.17
-13.02
-15.09
-17.43
-19.93
-22.32
-24.32
-25.78
-26.67
-27.26
-27.94
-29.23
-31.54
-35.12
-39.84
-45.19
-50.38
-54.40
-56.35
-55.54
-51.76
-45.30
-36.88
-27.55
-18.39
-10.33
-3.83
1.08
4.84
8.03
11.18
14.52
17.90
20.96
23.26
24.54
24.81
24.31
23.40
22.38
21.49
20.82
20.40
20.20
20.17
20.26
20.43
20.63
20.87
21.12
21.29
21.29
21.00
20.43
19.70
19.04
18.62
18.47
18.45
18.28
17.72
16.70
15.36
13.99
12.86
12.07
11.52
10.93
9.98
8.48
6.47
4.16
1.90
0.01
-1.36
-2.21
-2.73
-3.14
-3.69
-4.52
-5.73
-7.30
-9.18
-11.30
-13.54
-15.74
-17.77
-19.63
-21.40
-23.32
-25.61
-28.30
-31.08
-33.26
-34.02
-32.71
-29.17
-23.82
-17.63
-11.64
-6.66
-3.04
-0.65
0.96
2.26
3.65
5.32
7.25
9.33
11.42
13.39
15.17
16.70
18.00
19.13
20.22
21.47
23.09
25.17
27.63
30.23
32.62
34.50
35.68
36.19
36.29
36.44
37.26
39.35
43.09
48.43
54.75
61.02
66.09
69.20
70.17
69.42
67.65
65.43
62.94
59.95
56.02
50.81
44.29
36.70
28.43
19.77
10.74
1.17
-9.03
-19.65
-30.02
-39.16
-46.30
-51.23
-54.62
-57.79
-62.20
-68.74
-77.36
-87.00
-95.97
-102.61
-105.72
-104.93
-100.60
-93.68
-85.26
-76.33
-67.53
-59.06
-50.86
-42.69
-34.43
-26.10
-17.89
-10.10
-2.95
3.35
8.76
13.24
16.84
19.57
21.50
22.71
23.34
23.51
23.28
22.79
22.11
21.43
20.97
20.90
21.17
21.44
21.20
19.96
17.56
14.33
11.00
8.38
6.89
6.31
5.85
4.55
1.73
-2.63
-7.86
-12.76
-16.08
-16.94
-15.09
-11.03
-5.79
-0.60
3.54
6.10
7.11
7.04
6.41
5.52
4.34
2.55
-0.09
-3.61
-7.71
-11.93
-15.89
-19.40
-22.49
-25.28
-27.94
-30.55
-33.24
-36.21
-39.67
-43.71
-48.14
-52.36
-55.53
-56.73
-55.32
-51.15
-44.61
-36.51
-27.79
-19.35
-11.80
-5.41
-0.22
3.93
7.36
10.37
13.25
16.21
19.34
22.64
26.02
29.34
32.36
34.81
36.37
36.84
36.19
34.69
32.85
31.30
30.45
30.39
30.79
31.06
30.57
28.93
26.22
22.93
19.82
17.63
16.71
16.95
17.75
18.34
18.14
16.99
15.19
13.29
11.74
10.76
10.27
9.97
9.59
8.89
7.79
6.26
4.30
1.96
-0.67
-3.45
-6.23
-8.91
-11.47
-13.99
-16.58
-19.30
-22.13
-24.95
-27.56
-29.86
-31.89
-33.95
-36.48
-39.88
-44.25
-49.21
-53.94
-57.36
-58.56
-57.04
-52.87
-46.62
-39.12
-31.18
-23.40
-16.14
-9.54
-3.62
1.72
6.57
11.01
15.10
18.78
21.89
24.25
25.72
26.33
26.24
25.71
25.00
24.33
23.74
23.25
22.85
22.54
22.36
22.29
22.24
22.04
21.49
20.53
19.25
17.98
17.10
16.86
17.20
17.80
18.21
18.07
17.28
16.01
14.53
13.05
11.61
10.10
8.33
6.21
3.83
1.34
-1.08
-3.30
-5.38
-7.41
-9.56
-11.98
-14.70
-17.64
-20.67
-23.66
-26.58
-29.51
-32.67
-36.38
-40.90
-46.28
-52.19
-57.83
-62.03
-63.59
-61.70
-56.29
-48.10
-38.39
-28.43
-19.13
-10.89
-3.71
2.52
7.80
12.09
15.46
18.17
20.67
23.31
26.22
29.17
31.77
33.61
34.58
34.80
34.55
34.18
33.90
33.85
34.02
34.28
34.44
34.31
33.80
32.94
31.90
30.85
29.91
29.08
28.25
27.26
25.98
24.36
22.39
20.18
17.85
15.59
13.59
12.01
10.88
10.04
9.25
8.26
6.94
5.37
3.68
2.09
0.67
-0.66
-2.13
-3.98
-6.48
-9.73
-13.67
-18.09
-22.70
-27.20
-31.37
-35.12
-38.52
-41.83
-45.47
-49.89
-55.35
-61.72
-68.36
-74.15
-77.80
-78.20
-74.79
-67.70
-57.66
-45.77
-33.14
-20.79
-9.45
0.45
8.79
15.72
21.55
26.70
31.51
36.21
40.75
44.88
48.20
50.31
51.03
50.51
49.22
47.77
46.70
46.19
46.12
46.15
45.90
45.17
43.92
42.25
40.25
37.99
35.58
33.18
31.03
29.30
28.02
27.03
26.08
24.86
23.26
21.39
19.46
17.70
16.15
14.64
12.82
10.40
7.29
3.76
0.28
-2.72
-5.06
-6.98
-8.95
-11.47
-14.77
-18.70
-22.82
-26.68
-30.06
-32.91
-35.40
-37.73
-40.04
-42.50
-45.32
-48.72
-52.76
-57.18
-61.25
-63.88
-63.94
-60.68
-54.07
-44.83
-34.20
-23.59
-14.15
-6.58
-1.02
2.84
5.53
7.60
9.49
11.41
13.41
15.48
17.60
19.74
21.86
23.83
25.45
26.52
26.98
26.93
26.68
26.59
26.92
27.70
28.73
29.68
30.30
30.40
30.02
29.22
28.06
26.54
24.58
22.14
19.27
16.15
13.03
10.20
7.81
5.91
4.42
3.27
2.33
1.52
0.67
-0.42
-1.96
-4.07
-6.79
-10.04
-13.68
-17.49
-21.24
-24.70
-27.67
-30.09
-32.17
-34.37
-37.35
-41.65
-47.39
-54.04
-60.45
-65.21
-67.03
-65.26
-59.99
-52.01
-42.42
-32.40
-22.85
-14.39
-7.36
-1.89
2.18
5.26
7.95
10.90
14.52
18.78
23.22
27.14
29.97
31.46
31.80
31.50
31.13
31.11
31.64
32.64
33.96
35.38
36.74
37.91
38.78
39.20
39.01
38.07
36.39
34.18
31.79
29.58
27.80
26.37
24.98
23.24
20.92
18.11
15.20
12.68
10.88
9.82
9.21
8.61
7.62
6.02
3.81
1.17
-1.66
-4.45
-7.05
-9.40
-11.61
-13.85
-16.36
-19.35
-22.91
-27.01
-31.49
-36.09
-40.57
-44.77
-48.74
-52.74
-57.21
-62.42
-68.23
-73.85
-77.96
-79.10
-76.21
-69.15
-58.78
-46.73
-34.73
-24.07
-15.21
-7.84
-1.27
5.11
11.46
17.50
22.73
26.76
29.57
31.51
33.11
34.76
36.64
38.62
40.42
41.73
42.29
41.87
40.50
38.69
37.57
38.83
44.00
53.66
66.80
80.82
92.37
98.65
98.48
92.64
83.29
72.92
63.31
55.23
48.59
43.03
38.39
34.68
31.91
29.70
27.38
24.26
19.99
14.87
9.65
5.14
1.77
-0.68
-2.88
-5.59
-9.31
-14.10
-19.68
-25.70
-31.89
-38.11
-44.21
-50.00
-55.32
-60.17
-64.86
-69.91
-75.89
-83.04
-91.11
-99.23
-106.11
-110.45
-111.26
-108.28
-101.97
-93.42
-83.90
-74.56
-66.04
-58.55
-51.90
-45.86
-40.26
-35.07
-30.31
-25.84
-21.50
-17.11
-12.62
-8.23
-4.33
-1.32
0.54
1.26
1.19
0.80
0.60
0.84
1.52
2.32
2.80
2.66
1.89
0.81
-0.09
-0.36
0.38
2.41
6.17
12.24
21.14
33.03
47.29
62.58
77.15
89.47
98.72
104.93
108.71
110.77
111.58
111.26
109.80
107.24
103.73
99.41
94.18
87.65
79.35
69.07
57.08
44.17
31.35
19.43
8.72
-0.99
-10.21
-19.40
-28.68
-37.91
-46.90
-55.58
-64.09
-72.45
-80.38
-87.07
-91.36
-92.20
-89.13
-82.50
-73.50
-63.72
-54.70
-47.50
-42.46
-39.19
-36.71
-33.70
-28.89
-21.57
-11.93
-1.07
9.29
17.53
22.89
25.70
27.25
29.08
32.23
36.76
41.78
45.99
48.21
47.90
45.26
41.12
36.62
32.94
31.05
31.57
34.66
40.01
46.83
53.91
59.86
63.39
63.76
61.01
55.97
49.92
44.10
39.22
35.27
31.75
28.00
23.70
18.94
14.06
9.38
4.95
0.64
-3.80
-8.41
-12.99
-17.16
-20.60
-23.27
-25.46
-27.64
-30.19
-33.22
-36.46
-39.50
-42.06
-44.18
-46.29
-48.90
-52.29
-56.20
-59.74
-61.70
-60.99
-57.08
-50.19
-41.25
-31.51
-22.24
-14.33
-8.11
-3.41
0.30
3.57
6.83
10.18
13.46
16.38
18.67
20.21
21.05
21.40
21.44
21.31
21.10
20.81
20.48
20.19
20.07
20.19
20.56
21.03
21.38
21.38
20.91
19.99
18.76
17.36
15.75
13.77
11.25
8.16
4.82
1.75
-0.49
-1.70
-2.10
-2.21
-2.58
-3.38
-4.34
-4.97
-4.94
-4.32
-3.67
-3.67
-4.77
-6.97
-9.73
-12.37
-14.27
-15.17
-15.16
-14.57
-13.82
-13.25
-13.06
-13.22
-13.48
-13.33
-12.14
-9.27
-4.35
2.59
11.02
20.10
28.91
36.71
43.15
48.17
51.94
54.61
56.27
56.87
56.27
54.32
50.87
45.83
39.17
31.06
21.88
12.21
2.85
-5.50
-12.28
-17.29
-20.64
-22.69
-23.88
-24.61
-25.21
-25.85
-26.65
-27.63
-28.75
-29.86
-30.72
-31.07
-30.72
-29.70
-28.26
-26.80
-25.69
-25.07
-24.80
-24.57
-24.11
-23.36
-22.53
-21.95
-21.91
-22.44
-23.33
-24.23
-24.80
-24.89
-24.53
-23.92
-23.29
-22.90
-22.96
-23.65
-25.05
-27.06
-29.29
-31.00
-31.28
-29.26
-24.39
-16.72
-6.95
3.80
14.28
23.54
31.10
37.06
41.80
45.81
49.38
52.53
55.09
56.78
57.46
57.15
56.07
54.48
52.57
50.35
47.74
44.58
40.79
36.38
31.45
26.10
20.42
14.46
8.29
2.07
-3.99
-9.62
-14.54
-18.52
-21.47
-23.43
-24.57
-25.20
-25.67
-26.26
-27.10
-28.12
-29.11
-29.91
-30.50
-31.02
-31.70
-32.76
-34.27
-36.15
-38.19
-40.18
-41.88
-43.11
-43.77
-43.83
-43.41
-42.76
-42.26
-42.28
-43.07
-44.64
-46.70
-48.87
-50.82
-52.43
-53.90
-55.68
-58.25
-61.83
-66.07
-70.08
-72.66
-72.68
-69.56
-63.54
-55.54
-46.84
-38.58
-31.48
-25.73
-21.18
-17.57
-14.72
-12.55
-10.97
-9.88
-9.11
-8.53
-8.15
-8.05
-8.38
-9.24
-10.62
-12.37
-14.38
-16.53
-18.68
-20.64
-22.16
-22.90
-22.56
-21.10
-18.76
-16.08
-13.73
-12.20
-11.61
-11.66
-11.76
-11.33
-10.04
-7.98
-5.48
-2.90
-0.45
1.94
4.41
7.01
9.50
11.50
12.60
12.65
11.79
10.38
8.72
6.98
5.14
3.23
1.38
-0.17
-1.27
-2.06
-3.05
-4.92
-8.19
-12.89
-18.58
-24.44
-29.61
-33.43
-35.44
-35.38
-33.08
-28.51
-21.97
-14.10
-5.89
1.64
7.72
12.13
15.11
17.17
18.75
20.03
20.89
21.11
20.63
19.62
18.53
17.88
18.04
19.10
20.86
22.98
25.14
27.22
29.25
31.29
33.33
35.20
36.63
37.38
37.37
36.72
35.65
34.40
33.04
31.54
29.78
27.71
25.39
22.96
20.69
18.75
17.28
16.27
15.59
15.01
14.25
13.03
11.13
8.48
5.07
1.05
-3.36
-7.88
-12.23
-16.20
-19.71
-22.92
-26.20
-30.00
-34.66
-40.19
-46.05
-51.28
-54.70
-55.30
-52.61
-46.79
-38.59
-29.09
-19.33
-10.09
-1.83
5.31
11.44
16.74
21.47
25.82
29.85
33.50
36.57
38.87
40.32
41.07
41.45
41.85
42.60
43.81
45.36
47.02
48.50
49.55
50.01
49.78
48.88
47.36
45.37
43.05
40.57
38.09
35.71
33.53
31.58
29.87
28.36
26.94
25.53
24.09
22.65
21.26
19.98
18.79
17.60
16.24
14.55
12.42
9.87
7.10
4.34
1.89
-0.08
-1.59
-2.85
-4.23
-6.10
-8.74
-12.20
-16.32
-20.72
-25.01
-28.82
-31.99
-34.73
-37.55
-41.10
-45.86
-51.83
-58.31
-64.11
-67.83
-68.43
-65.50
-59.41
-50.99
-41.29
-31.25
-21.50
-12.51
-4.50
2.40
8.20
13.09
17.40
21.48
25.55
29.61
33.41
36.55
38.69
39.65
39.58
38.85
37.92
37.25
37.11
37.50
38.22
38.98
39.44
39.32
38.45
36.78
34.40
31.58
28.70
26.21
24.37
23.20
22.41
21.55
20.23
18.33
16.03
13.69
11.74
10.48
10.17
11.01
13.18
16.69
21.13
25.73
29.45
31.44
31.38
29.59
26.74
23.46
19.99
16.12
11.45
5.81
-0.57
-7.14
-13.31
-18.76
-23.54
-27.93
-32.22
-36.60
-41.12
-45.83
-50.76
-55.87
-60.90
-65.19
-67.81
-67.79
-64.55
-58.09
-49.12
-38.79
-28.39
-18.97
-11.17
-5.16
-0.68
2.83
6.01
9.38
13.19
17.29
21.28
24.66
27.11
28.57
29.19
29.23
28.91
28.42
27.91
27.59
27.64
28.09
28.78
29.47
30.01
30.57
31.65
33.71
36.86
40.58
43.86
45.64
45.25
42.79
38.92
34.54
30.32
26.55
23.24
20.35
17.94
16.16
15.05
14.32
13.41
11.70
8.81
4.80
0.11
-4.69
-9.19
-13.29
-17.13
-20.88
-24.50
-27.73
-30.29
-32.14
-33.58
-35.32
-38.05
-42.12
-47.34
-52.85
-57.51
-60.15
-60.00
-56.89
-51.23
-43.84
-35.71
-27.73
-20.50
-14.35
-9.28
-5.21
-1.94
0.77
3.14
5.46
7.92
10.66
13.57
16.44
18.99
21.10
22.85
24.48
26.30
28.33
30.33
31.77
32.19
31.43
29.79
27.92
26.45
25.71
25.56
25.53
25.13
24.08
22.44
20.50
18.56
16.72
14.96
13.14
11.27
9.54
8.17
7.35
6.96
6.72
6.19
5.13
3.57
1.76
0.05
-1.40
-2.63
-3.92
-5.58
-7.81
-10.57
-13.63
-16.70
-19.55
-22.07
-24.29
-26.44
-28.83
-31.78
-35.59
-40.42
-46.21
-52.58
-58.84
-64.04
-67.19
-67.49
-64.64
-59.01
-51.49
-43.36
-35.75
-29.49
-24.81
-21.47
-18.96
-16.64
-14.04
-10.86
-7.07
-2.83
1.54
5.71
9.41
12.52
15.00
16.92
18.40
19.56
20.55
21.52
22.64
24.01
25.64
27.43
29.07
30.25
30.66
30.25
29.20
27.92
26.81
26.10
25.76
25.54
25.13
24.32
23.18
21.94
20.84
19.93
19.00
17.65
15.54
12.59
9.10
5.58
2.51
0.08
-1.87
-3.75
-5.96
-8.68
-11.79
-15.00
-18.08
-20.97
-23.87
-26.99
-30.53
-34.47
-38.75
-43.32
-48.07
-52.89
-57.31
-60.59
-61.74
-59.88
-54.63
-46.32
-35.94
-24.73
-13.77
-3.63
5.56
13.94
21.62
28.56
34.69
40.04
44.82
49.23
53.38
57.09
60.00
61.86
62.62
62.55
61.99
61.19
60.13
58.69
56.71
54.21
51.39
48.47
45.63
42.79
39.72
36.06
31.46
25.72
18.88
11.25
3.39
-4.03
-10.38
-15.27
-18.54
-20.37
-21.06
-21.03
-20.66
-20.24
-19.96
-19.84
-19.83
-19.83
-19.81
-19.86
-20.15
-20.86
-22.06
-23.68
-25.55
-27.53
-29.54
-31.59
-33.71
-35.84
-37.85
-39.54
-40.88
-42.02
-43.37
-45.46
-48.65
-52.92
-57.69
-61.91
-64.29
-63.77
-59.80
-52.60
-43.01
-32.25
-21.45
-11.44
-2.55
5.18
11.85
17.47
22.01
25.50
28.08
30.10
31.90
33.66
35.26
36.34
36.60
35.91
34.55
32.99
31.68
30.86
30.45
30.28
30.19
30.16
30.23
30.31
30.21
29.61
28.32
26.38
24.12
21.93
20.11
18.67
17.39
15.96
14.16
11.98
9.55
7.01
4.40
1.64
-1.35
-4.65
-8.23
-11.96
-15.69
-19.41
-23.18
-27.14
-31.43
-36.11
-41.11
-46.27
-51.46
-56.62
-61.84
-67.32
-73.21
-79.61
-86.37
-93.24
-99.96
-106.37
-112.45
-118.14
-123.12
-126.58
-127.30
-123.91
-115.38
-101.45
-82.76
-60.63
-36.77
-12.83
9.87
30.34
47.99
62.49
73.83
82.23
88.22
92.40
95.33
97.38
98.63
98.92
98.03
95.84
92.51
88.48
84.32
80.57
77.53
75.14
73.11
71.12
68.95
66.62
64.23
61.91
59.62
57.24
54.59
51.58
48.25
44.75
41.21
37.74
34.35
31.07
27.91
24.98
22.40
20.24
18.43
16.74
14.89
12.60
9.81
6.65
3.47
0.61
-1.71
-3.57
-5.25
-7.16
-9.62
-12.72
-16.27
-19.90
-23.23
-26.05
-28.37
-30.37
-32.30
-34.39
-36.88
-40.02
-44.05
-49.05
-54.70
-60.11
-64.00
-65.03
-62.33
-55.89
-46.62
-35.99
-25.58
-16.52
-9.29
-3.76
0.53
4.05
7.15
9.99
12.63
15.11
17.53
19.99
22.46
24.81
26.71
27.90
28.25
27.98
27.57
27.49
28.01
28.99
29.97
30.39
29.88
28.43
26.36
24.16
22.22
20.75
19.68
18.84
18.02
17.13
16.17
15.24
14.46
13.87
13.45
13.05
12.55
11.82
10.80
9.50
7.93
6.11
3.99
1.63
-0.94
-3.58
-6.23
-8.88
-11.63
-14.62
-17.92
-21.48
-25.12
-28.54
-31.46
-33.79
-35.65
-37.39
-39.45
-42.26
-46.03
-50.52
-55.08
-58.72
-60.45
-59.59
-55.98
-50.04
-42.58
-34.46
-26.37
-18.60
-11.13
-3.78
3.56
10.83
17.78
24.08
29.45
33.67
36.70
38.56
39.40
39.43
38.89
37.99
36.94
35.85
34.75
33.60
32.34
30.94
29.46
27.97
26.54
25.19
23.88
22.56
21.19
19.70
18.08
16.32
14.44
12.45
10.38
8.30
6.29
4.48
2.97
1.84
1.11
0.71
0.54
0.48
0.45
0.40
0.35
0.36
0.45
0.66
0.87
0.92
0.60
-0.26
-1.71
-3.66
-5.91
-8.29
-10.71
-13.24
-15.98
-18.99
-22.21
-25.50
-28.82
-32.26
-36.13
-40.75
-46.23
-52.22
-57.97
-62.45
-64.72
-64.28
-61.15
-55.85
-49.13
-41.82
-34.53
-27.67
-21.46
-15.95
-11.15
-6.96
-3.31
-0.03
2.94
5.61
7.89
9.63
10.65
10.84
10.17
8.78
7.00
5.36
4.49
4.95
7.03
10.58
14.98
19.39
23.02
25.44
26.62
26.88
26.59
26.05
25.32
24.32
22.89
20.85
18.07
14.50
10.17
5.32
0.29
-4.52
-8.82
-12.54
-15.90
-19.25
-23.01
-27.47
-32.73
-38.60
-44.58
-49.88
-53.62
-55.02
-53.72
-49.85
-44.07
-37.22
-30.11
-23.23
-16.86
-11.12
-6.16
-2.15
0.76
2.65
3.76
4.49
5.30
6.70
9.25
13.45
19.57
27.45
36.34
45.04
52.29
57.16
59.37
59.23
57.44
54.65
51.29
47.53
43.39
38.92
34.29
29.70
25.31
21.16
17.18
13.25
9.26
5.18
1.03
-3.17
-7.39
-11.62
-15.91
-20.30
-24.87
-29.69
-34.82
-40.19
-45.49
-50.14
-53.36
-54.41
-52.82
-48.62
-42.28
-34.59
-26.34
-18.21
-10.64
-3.90
1.89
6.75
10.87
14.52
17.96
21.28
24.33
26.79
28.34
28.87
28.56
27.79
27.03
26.68
26.93
27.87
29.42
31.41
33.55
35.49
36.91
37.55
37.32
36.27
34.57
32.50
30.35
28.47
27.10
26.34
26.10
26.03
25.67
24.66
22.84
20.36
17.62
15.06
13.00
11.42
10.13
8.81
7.23
5.36
3.32
1.33
-0.56
-2.38
-4.35
-6.62
-9.25
-12.02
-14.59
-16.64
-17.94
-18.57
-18.78
-18.91
-19.17
-19.59
-20.07
-20.56
-21.17
-22.20
-24.03
-26.84
-30.54
-34.75
-39.03
-43.15
-47.10
-50.95
-54.60
-57.49
-58.73
-57.43
-53.13
-46.11
-37.40
-28.36
-20.24
-13.74
-8.91
-5.27
-2.18
0.86
4.07
7.45
10.93
14.48
18.06
21.60
24.92
27.81
30.03
31.47
32.22
32.53
32.75
33.22
34.13
35.49
37.12
38.73
39.96
40.58
40.52
39.88
38.84
37.64
36.36
35.03
33.63
32.12
30.52
28.88
27.26
25.62
23.88
21.95
19.84
17.64
15.58
13.86
12.58
11.71
11.03
10.29
9.24
7.81
6.06
4.16
2.27
0.40
-1.52
-3.59
-5.82
-8.04
-10.03
-11.58
-12.76
-13.84
-15.24
-17.27
-19.98
-23.07
-26.08
-28.69
-30.85
-32.85
-35.11
-37.90
-41.01
-43.83
-45.52
-45.41
-43.24
-39.29
-34.20
-28.71
-23.42
-18.66
-14.57
-11.16
-8.41
-6.21
-4.33
-2.45
-0.32
2.13
4.70
7.04
8.75
9.66
9.84
9.61
9.35
9.38
9.84
10.63
11.57
12.35
12.72
12.56
11.95
11.23
10.77
10.85
11.48
12.30
12.83
12.66
11.73
10.37
9.06
8.14
7.61
7.16
6.42
5.26
3.86
2.65
1.93
1.66
1.48
0.92
-0.32
-2.25
-4.58
-6.96
-9.14
-11.01
-12.55
-13.76
-14.67
-15.44
-16.33
-17.67
-19.75
-22.62
-26.06
-29.70
-33.10
-35.91
-37.82
-38.57
-37.93
-35.74
-31.95
-26.78
-20.62
-13.99
-7.43
-1.40
3.77
7.89
10.91
12.96
14.28
15.13
15.78
16.39
17.00
17.61
18.14
18.54
18.75
18.78
18.70
18.63
18.72
19.05
19.59
20.17
20.58
20.64
20.33
19.70
18.93
18.09
17.20
16.18
14.93
13.49
11.90
10.28
8.71
7.20
5.73
4.30
2.94
1.65
0.45
-0.73
-1.96
-3.33
-4.87
-6.56
-8.38
-10.30
-12.31
-14.40
-16.52
-18.59
-20.55
-22.39
-24.21
-26.24
-28.74
-31.87
-35.51
-39.32
-42.70
-44.97
-45.58
-44.28
-41.14
-36.53
-30.94
-24.88
-18.81
-13.07
-7.95
-3.67
-0.32
2.11
3.84
5.17
6.37
7.59
8.79
9.79
10.33
10.27
9.58
8.48
7.29
6.40
6.13
6.63
7.81
9.35
10.88
12.11
12.95
13.54
14.08
14.65
15.12
15.19
14.67
13.61
12.34
11.33
10.91
11.06
11.55
11.97
12.02
11.62
10.84
9.80
8.62
7.34
6.01
4.66
3.35
2.09
0.86
-0.42
-1.77
-3.18
-4.60
-6.03
-7.54
-9.19
-11.06
-13.10
-15.27
-17.46
-19.68
-22.03
-24.67
-27.79
-31.53
-35.86
-40.60
-45.33
-49.43
-52.20
-53.04
-51.62
-47.98
-42.50
-35.83
-28.59
-21.36
-14.53
-8.36
-2.99
1.58
5.45
8.78
11.77
14.51
17.00
19.17
20.94
22.32
23.43
24.37
25.28
26.20
27.10
27.92
28.60
29.07
29.30
29.27
29.01
28.60
28.12
27.65
27.19
26.61
25.70
24.24
22.15
19.57
16.81
14.27
12.21
10.71
9.68
8.97
8.49
8.26
8.26
8.35
8.25
7.67
6.40
4.49
2.25
0.00
-2.03
-3.84
-5.61
-7.53
-9.69
-11.97
-14.17
-16.15
-17.92
-19.60
-21.43
-23.70
-26.56
-30.07
-34.10
-38.32
-42.19
-45.07
-46.38
-45.72
-43.06
-38.69
-33.23
-27.36
-21.64
-16.35
-11.46
-6.79
-2.13
2.52
7.00
11.08
14.57
17.40
19.64
21.38
22.68
23.54
23.99
24.11
24.04
23.96
24.05
24.38
24.97
25.74
26.58
27.29
27.68
27.57
26.91
25.84
24.57
23.31
22.12
20.85
19.28
17.23
14.75
12.08
9.60
7.58
6.09
4.97
3.89
2.58
0.88
-1.16
-3.41
-5.70
-7.96
-10.19
-12.47
-14.93
-17.64
-20.65
-23.98
-27.58
-31.41
-35.28
-38.87
-41.62
-42.94
-42.29
-39.50
-34.83
-28.93
-22.61
-16.51
-10.95
-5.92
-1.27
3.11
7.12
10.55
13.20
15.01
16.15
16.92
17.62
18.36
19.09
19.65
19.85
19.70
19.38
19.19
19.44
20.21
21.41
22.68
23.68
24.18
24.12
23.56
22.61
21.29
19.61
17.67
15.74
14.26
13.67
14.26
15.98
18.41
20.93
22.87
23.64
22.86
20.37
16.30
11.13
5.67
0.80
-2.73
-4.47
-4.34
-2.46
1.00
5.74
11.23
16.54
20.48
21.97
20.53
16.58
11.24
5.86
1.36
-2.11
-4.95
-7.69
-10.50
-13.07
-14.81
-15.22
-14.18
-12.07
-9.51
-7.11
-5.31
-4.30
-4.14
-4.83
-6.35
-8.63
-11.48
-14.56
-17.46
-19.77
-21.21
-21.75
-21.53
-20.78
-19.74
-18.44
-16.85
-14.86
-12.42
-9.66
-6.91
-4.58
-3.07
-2.58
-2.94
-3.68
-4.17
-3.83
-2.45
-0.28
2.07
3.90
4.74
4.56
3.71
2.78
2.44
3.27
5.71
10.00
15.91
22.69
29.08
33.66
35.36
34.03
30.53
26.37
22.94
20.90
19.83
18.60
16.01
11.45
5.16
-1.94
-8.85
-14.89
-19.98
-24.53
-29.08
-34.02
-39.41
-45.04
-50.49
-55.28
-59.01
-61.29
-61.89
-60.69
-57.76
-53.26
-47.50
-40.87
-33.83
-26.83
-20.28
-14.37
-8.97
-3.73
1.76
7.64
13.70
19.38
24.07
27.47
29.68
31.13
32.36
33.67
35.04
36.30
37.29
37.97
38.47
38.86
39.01
38.60
37.31
35.10
32.36
29.79
28.10
27.62
28.11
28.86
29.06
28.19
26.28
23.74
21.16
18.86
16.83
14.74
12.16
8.96
5.26
1.47
-1.97
-4.83
-7.12
-9.09
-11.09
-13.38
-16.01
-18.84
-21.63
-24.19
-26.47
-28.54
-30.58
-32.68
-34.83
-36.88
-38.65
-40.08
-41.28
-42.62
-44.49
-47.19
-50.63
-54.32
-57.37
-58.82
-57.91
-54.36
-48.49
-41.09
-33.16
-25.53
-18.71
-12.72
-7.26
-1.94
3.45
8.86
13.93
18.21
21.36
23.33
24.31
24.63
24.58
24.33
23.96
23.55
23.27
23.36
24.00
25.16
26.58
27.81
28.46
28.31
27.46
26.28
25.20
24.52
24.29
24.33
24.29
23.79
22.61
20.72
18.33
15.75
13.31
11.21
9.47
7.95
6.43
4.78
2.91
0.88
-1.23
-3.33
-5.41
-7.48
-9.50
-11.42
-13.09
-14.40
-15.24
-15.60
-15.47
-14.86
-13.74
-12.20
-10.50
-9.01
-8.25
-8.59
-10.11
-12.48
-14.98
-16.76
-17.06
-15.49
-12.12
-7.52
-2.52
2.10
5.79
8.38
10.00
10.96
11.47
11.60
11.30
10.50
9.19
7.46
5.47
3.38
1.36
-0.44
-1.87
-2.77
-3.02
-2.48
-1.18
0.81
3.25
5.83
8.13
9.82
10.78
11.07
10.93
10.59
10.18
9.73
9.20
8.60
8.00
7.53
7.20
7.00
6.82
6.52
6.04
5.38
4.58
3.68
2.71
1.66
0.56
-0.57
-1.76
-3.07
-4.64
-6.66
-9.27
-12.54
-16.32
-20.30
-24.09
-27.34
-29.98
-32.27
-34.67
-37.65
-41.46
-45.94
-50.52
-54.41
-56.86
-57.28
-55.47
-51.57
-45.96
-39.20
-31.85
-24.47
-17.47
-11.14
-5.64
-1.04
2.73
5.83
8.45
10.80
12.98
14.96
16.52
17.47
17.70
17.34
16.72
16.30
16.47
17.38
19.01
21.13
23.50
25.90
28.21
30.41
32.47
34.30
35.70
36.44
36.32
35.41
34.01
32.62
31.70
31.44
31.74
32.18
32.28
31.75
30.57
28.93
27.07
25.12
23.02
20.67
18.00
15.11
12.15
9.30
6.60
3.93
1.15
-1.87
-5.11
-8.38
-11.44
-14.12
-16.47
-18.71
-21.16
-24.03
-27.42
-31.27
-35.49
-39.97
-44.59
-49.08
-52.91
-55.38
-55.81
-53.84
-49.57
-43.57
-36.63
-29.47
-22.57
-16.10
-10.03
-4.22
1.42
6.86
11.96
16.47
20.14
22.79
24.34
24.87
24.55
23.69
22.64
21.78
21.47
22.00
23.40
25.46
27.68
29.48
30.35
30.10
28.83
26.94
24.89
23.03
21.46
19.99
18.36
16.37
14.01
11.46
8.98
6.70
4.60
2.47
0.15
-2.46
-5.27
-8.11
-10.82
-13.30
-15.53
-17.57
-19.43
-21.10
-22.58
-23.90
-25.23
-26.88
-29.13
-32.23
-36.07
-40.08
-43.29
-44.62
-43.30
-39.10
-32.37
-23.78
-13.99
-3.46
7.51
18.62
29.35
38.96
46.80
52.52
56.22
58.29
59.17
59.04
57.89
55.69
52.62
49.13
45.85
43.25
41.44
40.03
38.41
35.93
32.23
27.35
21.62
15.51
9.45
3.74
-1.34
-5.58
-8.76
-10.73
-11.52
-11.35
-10.64
-9.90
-9.58
-9.92
-10.93
-12.36
-13.78
-14.74
-14.99
-14.55
-13.77
-13.15
-13.12
-13.85
-15.16
-16.61
-17.75
-18.29
-18.25
-17.85
-17.46
-17.43
-18.02
-19.37
-21.46
-24.14
-27.16
-30.27
-33.32
-36.29
-39.35
-42.71
-46.57
-50.98
-55.74
-60.46
-64.53
-67.29
-68.09
-66.46
-62.15
-55.19
-45.95
-35.09
-23.49
-12.14
-1.87
6.78
13.71
19.16
23.58
27.44
31.08
34.60
37.95
40.89
43.04
43.96
43.27
40.91
37.22
32.96
29.06
26.33
25.22
25.75
27.68
30.76
34.89
40.04
46.04
52.41
58.37
63.06
65.86
66.57
65.46
62.96
59.46
55.16
50.16
44.65
38.99
33.70
29.23
25.78
23.12
20.73
17.98
14.49
10.24
5.65
1.43
-1.74
-3.48
-3.94
-3.83
-4.17
-5.97
-9.84
-15.81
-23.33
-31.51
-39.43
-46.39
-51.99
-56.25
-59.47
-62.18
-64.98
-68.31
-72.31
-76.65
-80.52
-82.86
-82.63
-79.21
-72.63
-63.63
-53.45
-43.40
-34.48
-27.09
-21.06
-15.88
-10.97
-6.01
-0.98
3.89
8.34
12.16
15.25
17.54
18.99
19.59
19.48
19.00
18.68
19.01
20.28
22.35
24.69
26.60
27.49
27.09
25.58
23.44
21.29
19.57
18.50
18.06
18.12
18.49
18.99
19.47
19.77
19.76
19.30
18.27
16.54
14.05
10.81
6.92
2.61
-1.86
-6.23
-10.46
-14.69
-19.11
-23.87
-28.88
-33.90
-38.60
-42.70
-45.98
-48.28
-49.30
-48.68
-46.09
-41.36
-34.70
-26.59
-17.66
-8.39
0.94
10.25
19.50
28.50
36.85
44.04
49.68
53.55
55.75
56.52
56.17
54.94
53.00
50.52
47.73
45.00
42.73
41.21
40.55
40.58
40.90
41.08
40.77
39.76
38.08
35.86
33.34
30.72
28.18
25.89
23.95
22.42
21.25
20.30
19.38
18.33
17.07
15.56
13.78
11.71
9.34
6.66
3.77
0.84
-1.88
-4.21
-6.01
-7.35
-8.41
-9.39
-10.51
-11.96
-13.86
-16.29
-19.29
-22.84
-26.84
-31.11
-35.47
-39.76
-43.97
-48.17
-52.45
-56.75
-60.83
-64.19
-66.27
-66.63
-65.05
-61.60
-56.61
-50.54
-43.91
-37.21
-30.95
-25.58
-21.37
-18.34
-16.18
-14.38
-12.41
-9.96
-7.06
-4.01
-1.25
0.96
2.59
3.92
5.24
6.78
8.53
10.31
11.96
13.40
14.76
16.26
18.05
20.06
22.02
23.46
24.02
23.61
22.49
21.19
20.25
19.97
20.24
20.68
20.79
20.28
19.23
17.98
16.95
16.31
15.86
15.18
13.87
11.85
9.41
7.12
5.43
4.49
3.98
3.32
1.99
-0.21
-3.13
-6.42
-9.73
-12.90
-15.91
-18.74
-21.29
-23.26
-24.39
-24.60
-24.12
-23.49
-23.33
-24.06
-25.65
-27.57
-28.91
-28.72
-26.35
-21.71
-15.38
-8.38
-1.79
3.62
7.64
10.53
12.77
14.76
16.67
18.48
20.19
21.88
23.69
25.66
27.63
29.21
29.99
29.81
28.89
27.74
26.97
26.91
27.52
28.39
28.96
28.76
27.58
25.50
22.81
19.82
16.80
13.79
10.74
7.54
4.20
0.84
-2.31
-5.04
-7.25
-8.97
-10.33
-11.47
-12.44
-13.26
-13.92
-14.50
-15.14
-16.08
-17.52
-19.58
-22.22
-25.19
-28.15
-30.74
-32.67
-33.86
-34.51
-34.98
-35.74
-37.19
-39.56
-42.85
-46.88
-51.33
-55.78
-59.70
-62.44
-63.39
-62.13
-58.60
-53.23
-46.80
-40.18
-34.01
-28.51
-23.48
-18.55
-13.41
-7.98
-2.46
2.81
7.48
11.34
14.40
16.82
18.80
20.51
21.99
23.18
24.00
24.41
24.51
24.45
24.38
24.37
24.34
24.24
23.97
23.53
22.96
22.28
21.49
20.56
19.49
18.34
17.22
16.24
15.40
14.73
14.24
14.08
14.42
15.36
16.83
18.56
20.19
21.41
22.05
22.13
21.76
20.97
19.74
17.98
15.60
12.69
9.35
5.77
2.00
-1.92
-5.97
-10.12
-14.28
-18.37
-22.32
-26.08
-29.63
-32.98
-36.26
-39.71
-43.64
-48.20
-53.18
-57.88
-61.27
-62.37
-60.68
-56.38
-50.20
-43.08
-35.75
-28.52
-21.41
-14.41
-7.65
-1.44
3.86
8.14
11.53
14.40
17.15
20.00
23.03
26.18
29.34
32.44
35.50
38.62
41.85
45.18
48.50
51.53
53.95
55.50
56.10
55.81
54.79
53.19
51.09
48.54
45.64
42.60
39.62
36.86
34.26
31.60
28.63
25.28
21.77
18.50
15.91
14.20
13.34
12.98
12.66
12.01
10.74
8.80
6.33
3.57
0.81
-1.73
-3.96
-5.93
-7.79
-9.76
-11.99
-14.50
-17.22
-20.00
-22.65
-25.12
-27.40
-29.61
-31.89
-34.36
-37.13
-40.28
-43.84
-47.78
-51.90
-55.65
-58.26
-58.92
-57.07
-52.75
-46.60
-39.64
-32.89
-26.98
-22.03
-17.76
-13.82
-9.98
-6.24
-2.66
0.77
4.11
7.48
10.84
13.99
16.56
18.35
19.38
19.92
20.38
21.08
22.14
23.46
24.80
25.95
26.81
27.35
27.62
27.61
27.28
26.54
25.37
23.83
22.06
20.25
18.55
16.98
15.51
14.04
12.49
10.84
9.07
7.20
5.20
3.06
0.74
-1.72
-4.23
-6.67
-8.89
-10.80
-12.36
-13.62
-14.62
-15.50
-16.36
-17.34
-18.58
-20.18
-22.26
-24.91
-28.18
-32.06
-36.38
-40.76
-44.52
-46.87
-47.02
-44.54
-39.50
-32.59
-24.86
-17.41
-11.04
-6.00
-2.05
1.30
4.51
7.76
10.86
13.48
15.25
16.05
15.97
15.38
14.72
14.41
14.74
15.82
17.50
19.51
21.55
23.35
24.75
25.73
26.28
26.36
25.94
25.02
23.75
22.44
21.37
20.69
20.26
19.74
18.78
17.30
15.50
13.71
12.23
11.07
10.05
8.95
7.69
6.33
5.06
3.97
2.96
1.82
0.33
-1.58
-3.77
-6.01
-8.16
-10.16
-12.15
-14.33
-16.85
-19.72
-22.83
-25.94
-28.86
-31.56
-34.13
-36.90
-40.22
-44.26
-48.83
-53.30
-56.74
-58.18
-57.00
-53.13
-47.11
-39.90
-32.49
-25.63
-19.61
-14.37
-9.59
-4.99
-0.42
4.02
8.13
11.67
14.56
16.84
18.67
20.16
21.29
21.96
22.06
21.67
21.13
20.93
21.49
22.85
24.64
26.22
27.06
26.96
26.22
25.34
24.82
24.81
25.08
25.16
24.65
23.40
21.62
19.76
18.22
17.17
16.46
15.76
14.73
13.26
11.49
9.66
7.94
6.30
4.53
2.42
-0.07
-2.77
-5.39
-7.69
-9.68
-11.52
-13.41
-15.53
-17.89
-20.43
-23.11
-26.06
-29.44
-33.40
-37.96
-42.79
-47.32
-50.79
-52.45
-51.75
-48.58
-43.22
-36.38
-28.90
-21.55
-14.85
-8.95
-3.81
0.78
4.96
8.82
12.32
15.39
17.98
20.10
21.84
23.28
24.49
25.51
26.35
27.06
27.72
28.47
29.34
30.27
30.99
31.20
30.74
29.64
28.18
26.71
25.48
24.48
23.52
22.34
20.78
18.82
16.60
14.23
11.75
9.16
6.47
3.79
1.22
-1.18
-3.45
-5.74
-8.20
-10.89
-13.75
-16.72
-19.78
-23.09
-26.86
-31.29
-36.35
-41.68
-46.63
-50.32
-51.85
-50.60
-46.37
-39.53
-30.95
-21.75
-13.07
-5.67
0.12
4.48
7.87
10.86
13.89
17.12
20.48
23.65
26.33
28.23
29.32
29.70
29.64
29.37
29.12
29.06
29.24
29.71
30.43
31.22
31.83
32.02
31.61
30.66
29.38
28.08
26.95
26.05
25.30
24.55
23.73
22.90
22.13
21.48
20.85
20.04
18.84
17.16
15.05
12.71
10.31
7.90
5.45
2.95
0.53
-1.59
-3.21
-4.40
-5.56
-7.24
-9.92
-13.67
-18.14
-22.73
-26.91
-30.57
-33.96
-37.62
-42.02
-47.39
-53.54
-59.88
-65.65
-69.95
-72.11
-71.66
-68.56
-63.11
-55.88
-47.57
-38.86
-30.37
-22.55
-15.68
-9.79
-4.66
0.12
5.01
10.30
15.94
21.53
26.53
30.46
33.11
34.64
35.41
35.81
36.11
36.40
36.68
36.96
37.31
37.87
38.73
39.83
41.00
41.95
42.39
42.12
41.09
39.43
37.36
35.20
33.15
31.27
29.52
27.76
25.94
24.08
22.30
20.67
19.19
17.78
16.33
14.78
13.16
11.54
10.03
8.67
7.39
6.06
4.56
2.81
0.82
-1.31
-3.48
-5.72
-8.19
-11.08
-14.46
-18.17
-21.80
-24.90
-27.29
-29.16
-31.00
-33.38
-36.64
-40.76
-45.38
-49.91
-53.68
-56.02
-56.30
-54.16
-49.56
-42.92
-35.07
-26.97
-19.44
-12.86
-7.25
-2.32
2.17
6.30
9.99
13.07
15.51
17.43
19.04
20.53
21.96
23.25
24.31
25.09
25.64
26.09
26.58
27.13
27.65
28.01
28.06
27.71
26.92
25.69
24.07
22.22
20.35
18.69
17.36
16.30
15.35
14.25
12.84
11.07
9.03
6.83
4.56
2.30
0.12
-1.87
-3.59
-5.01
-6.27
-7.55
-9.03
-10.78
-12.74
-14.77
-16.72
-18.59
-20.50
-22.62
-25.11
-28.06
-31.39
-34.79
-37.76
-39.61
-39.71
-37.71
-33.63
-27.98
-21.46
-14.77
-8.38
-2.43
3.10
8.17
12.63
16.28
18.95
20.65
21.57
21.98
22.09
22.05
21.90
21.69
21.48
21.37
21.43
21.74
22.31
23.09
24.01
24.92
25.63
25.95
25.73
24.98
23.79
22.34
20.84
19.43
18.24
17.34
16.74
16.36
16.08
15.71
15.12
14.35
13.59
13.07
12.98
13.27
13.70
13.93
13.66
12.79
11.48
9.95
8.36
6.66
4.62
1.99
-1.29
-4.98
-8.62
-11.81
-14.45
-16.84
-19.51
-22.94
-27.25
-32.00
-36.42
-39.63
-41.00
-40.28
-37.68
-33.62
-28.67
-23.37
-18.19
-13.49
-9.46
-6.12
-3.32
-0.86
1.52
3.95
6.49
9.03
11.43
13.43
14.85
15.60
15.78
15.64
15.46
15.45
15.61
15.68
15.36
14.39
12.80
10.84
8.87
7.23
6.10
5.55
5.51
5.86
6.46
7.12
7.65
7.94
7.94
7.68
7.18
6.43
5.35
3.83
1.87
-0.44
-2.98
-5.63
-8.32
-10.99
-13.44
-15.26
-15.97
-15.20
-12.87
-9.36
-5.35
-1.56
1.51
3.76
5.45
6.94
8.55
10.30
12.04
13.48
14.31
14.26
13.07
10.63
6.95
2.25
-3.01
-8.26
-13.00
-16.93
-20.03
-22.39
-24.08
-25.04
-25.12
-24.22
-22.46
-20.22
-18.03
-16.40
-15.65
-15.78
-16.56
-17.53
-18.23
-18.37
-17.91
-17.17
-16.65
-16.91
-18.22
-20.51
-23.36
-26.20
-28.51
-30.01
-30.64
-30.44
-29.42
-27.51
-24.56
-20.48
-15.35
-9.44
-3.21
2.85
8.34
12.99
16.71
19.59
21.69
23.09
23.73
23.54
22.45
20.48
17.75
14.51
11.08
7.83
5.08
3.05
1.72
0.79
-0.18
-1.66
-3.86
-6.64
-9.65
-12.46
-14.87
-16.87
-18.62
-20.33
-22.05
-23.80
-25.58
-27.42
-29.37
-31.43
-33.60
-35.88
-38.36
-41.18
-44.47
-48.22
-52.28
-56.36
-59.99
-62.53
-63.16
-61.09
-55.81
-47.52
-37.17
-26.20
-16.04
-7.56
-0.90
4.33
8.59
12.08
14.69
16.28
16.91
16.97
17.00
17.37
18.17
19.18
20.15
20.99
21.74
22.61
23.70
25.00
26.36
27.60
28.61
29.35
29.83
29.94
29.52
28.35
26.37
23.68
20.58
17.42
14.41
11.60
8.88
6.16
3.48
0.95
-1.32
-3.39
-5.57
-8.27
-11.85
-16.36
-21.53
-26.81
-31.50
-34.93
-36.58
-36.09
-33.39
-28.69
-22.51
-15.51
-8.40
-1.68
4.41
9.87
14.79
19.24
23.19
26.57
29.33
31.53
33.25
34.56
35.40
35.67
35.24
34.17
32.64
30.93
29.27
27.83
26.63
25.69
25.07
24.81
24.86
25.02
24.93
24.14
22.34
19.43
15.56
11.06
6.34
1.77
-2.41
-6.09
-9.33
-12.37
-15.56
-19.20
-23.44
-28.10
-32.68
-36.47
-38.77
-39.12
-37.49
-34.28
-30.11
-25.67
-21.49
-17.78
-14.47
-11.29
-7.94
-4.23
-0.21
3.87
7.63
10.72
13.00
14.52
15.54
16.31
17.00
17.62
18.12
18.52
18.96
19.68
20.87
22.50
24.25
25.67
26.29
25.91
24.59
22.65
20.42
18.08
15.54
12.51
8.73
4.07
-1.23
-6.72
-11.93
-16.58
-20.54
-23.82
-26.28
-27.54
-27.11
-24.67
-20.32
-14.70
-8.78
-3.48
0.67
3.70
6.01
8.08
10.25
12.59
14.99
17.26
19.21
20.69
21.55
21.71
21.20
20.16
18.87
17.58
16.54
15.86
15.59
15.78
16.35
17.12
17.74
17.76
16.74
14.53
11.26
7.43
3.73
0.74
-1.26
-2.35
-3.05
-4.01
-5.89
-9.11
-13.71
-19.33
-25.18
-30.32
-33.87
-35.28
-34.41
-31.55
-27.19
-21.94
-16.35
-10.83
-5.68
-0.98
3.25
7.14
10.73
13.99
16.77
18.87
20.18
20.74
20.71
20.31
19.68
18.87
17.86
16.69
15.46
14.35
13.46
12.75
12.06
11.20
10.02
8.53
6.82
4.98
3.07
1.14
-0.76
-2.55
-4.11
-5.38
-6.41
-7.39
-8.52
-9.96
-11.75
-13.79
-16.00
-18.30
-20.75
-23.45
-26.53
-29.98
-33.59
-36.87
-39.19
-39.91
-38.61
-35.28
-30.35
-24.49
-18.43
-12.67
-7.48
-2.90
1.10
4.57
7.56
10.10
12.30
14.21
15.87
17.22
18.17
18.74
19.03
19.22
19.46
19.82
20.26
20.67
20.94
21.02
20.91
20.62
20.12
19.38
18.38
17.11
15.63
13.99
12.23
10.38
8.46
6.53
4.69
2.96
1.30
-0.40
-2.27
-4.33
-6.49
-8.54
-10.32
-11.82
-13.17
-14.60
-16.34
-18.50
-21.12
-24.13
-27.41
-30.75
-33.87
-36.39
-37.95
-38.28
-37.25
-34.93
-31.47
-27.12
-22.17
-16.98
-11.85
-7.00
-2.52
1.62
5.51
9.08
12.15
14.44
15.77
16.20
16.04
15.71
15.52
15.55
15.64
15.54
15.12
14.48
13.90
13.70
14.06
14.97
16.15
17.17
17.60
17.17
15.88
14.00
11.98
10.19
8.78
7.61
6.37
4.80
2.89
0.84
-1.05
-2.65
-4.02
-5.40
-7.02
-8.90
-10.86
-12.75
-14.61
-16.71
-19.44
-22.96
-27.02
-30.89
-33.59
-34.32
-32.73
-29.09
-24.12
-18.68
-13.43
-8.71
-4.53
-0.75
2.69
5.77
8.31
10.21
11.48
12.31
12.95
13.60
14.27
14.78
14.93
14.58
13.83
12.91
12.13
11.71
11.65
11.79
11.82
11.44
10.48
8.99
7.18
5.36
3.75
2.36
0.99
-0.62
-2.63
-4.95
-7.29
-9.32
-10.96
-12.38
-14.00
-16.25
-19.28
-22.94
-26.84
-30.50
-33.51
-35.50
-36.18
-35.34
-32.88
-28.96
-23.95
-18.35
-12.67
-7.26
-2.31
2.07
5.81
8.87
11.22
12.94
14.14
15.02
15.74
16.39
16.98
17.48
17.87
18.14
18.24
18.20
18.06
17.87
17.72
17.62
17.50
17.16
16.38
15.06
13.29
11.34
9.52
8.01
6.70
5.26
3.30
0.64
-2.54
-5.86
-8.85
-11.27
-13.17
-14.81
-16.48
-18.36
-20.56
-23.16
-26.30
-30.12
-34.59
-39.38
-43.80
-47.03
-48.39
-47.53
-44.55
-39.87
-34.07
-27.67
-21.13
-14.83
-9.04
-3.89
0.65
4.70
8.41
11.90
15.17
18.14
20.68
22.73
24.22
25.13
25.51
25.46
25.19
24.99
25.08
25.57
26.34
27.13
27.66
27.76
27.42
26.71
25.69
24.34
22.60
20.42
17.88
15.18
12.59
10.37
8.64
7.37
6.41
5.47
4.24
2.48
0.09
-2.88
-6.28
-9.84
-13.31
-16.58
-19.69
-22.89
-26.49
-30.72
-35.57
-40.60
-45.07
-48.09
-48.93
-47.28
-43.33
-37.72
-31.24
-24.65
-18.37
-12.55
-7.14
-2.04
2.73
7.00
10.58
13.45
15.76
17.81
19.84
21.84
23.59
24.75
25.16
24.89
24.33
23.88
23.79
24.03
24.36
24.52
24.40
24.05
23.66
23.32
23.00
22.53
21.71
20.46
18.84
17.02
15.17
13.41
11.68
9.89
7.97
6.00
4.08
2.33
0.72
-0.90
-2.70
-4.79
-7.13
-9.69
-12.46
-15.60
-19.31
-23.64
-28.30
-32.64
-35.84
-37.19
-36.37
-33.62
-29.45
-24.48
-19.17
-13.78
-8.46
-3.36
1.32
5.33
8.53
10.95
12.75
14.19
15.47
16.69
17.80
18.68
19.27
19.52
19.49
19.34
19.23
19.34
19.62
19.99
20.16
19.96
19.25
18.11
16.64
15.06
13.53
12.18
11.11
10.27
9.54
8.69
7.47
5.66
3.22
0.30
-2.80
-5.72
-8.22
-10.32
-12.21
-14.23
-16.75
-20.04
-24.09
-28.66
-33.21
-37.09
-39.65
-40.35
-39.01
-35.71
-30.86
-25.02
-18.83
-12.83
-7.36
-2.60
1.52
5.14
8.46
11.64
14.70
17.51
19.87
21.59
22.55
22.77
22.42
21.77
21.11
20.72
20.72
21.12
21.77
22.39
22.75
22.67
22.14
21.31
20.35
19.48
18.77
18.17
17.50
16.57
15.26
13.59
11.66
9.65
7.62
5.48
3.07
0.23
-3.07
-6.65
-10.23
-13.48
-16.22
-18.42
-20.28
-22.12
-24.34
-27.34
-31.36
-36.35
-41.89
-47.14
-51.08
-52.83
-51.89
-48.36
-42.81
-36.06
-28.91
-21.90
-15.33
-9.30
-3.83
1.03
5.23
8.81
11.83
14.41
16.61
18.39
19.68
20.49
20.90
21.13
21.42
21.89
22.56
23.35
24.17
24.99
25.80
26.58
27.24
27.67
27.75
27.49
26.93
26.16
25.24
24.15
22.88
21.41
19.79
18.06
16.26
14.39
12.44
10.43
8.40
6.36
4.34
2.23
-0.10
-2.78
-5.82
-9.15
-12.54
-15.77
-18.70
-21.41
-24.16
-27.36
-31.37
-36.30
-41.96
-47.83
-53.16
-57.16
-59.13
-58.69
-55.82
-50.87
-44.47
-37.35
-30.16
-23.36
-17.14
-11.47
-6.29
-1.54
2.74
6.47
9.65
12.34
14.64
16.60
18.17
19.25
19.80
19.91
19.85
20.00
20.76
22.42
25.03
28.40
32.11
35.54
38.09
39.30
39.09
37.75
35.83
33.86
32.08
30.44
28.67
26.57
24.18
21.80
19.78
18.29
17.22
16.20
14.85
12.88
10.29
7.20
3.83
0.32
-3.27
-6.92
-10.68
-14.63
-18.92
-23.69
-29.12
-35.28
-41.99
-48.89
-55.28
-60.31
-63.11
-63.08
-60.12
-54.68
-47.74
-40.45
-33.80
-28.35
-24.15
-20.94
-18.34
-16.11
-14.16
-12.53
-11.30
-10.49
-10.13
-10.29
-11.13
-12.79
-15.38
-18.80
-22.77
-26.93
-30.90
-34.40
-37.24
-39.27
-40.25
-39.81
-37.52
-33.03
-26.24
-17.35
-6.94
4.30
15.61
26.41
36.32
45.18
53.01
59.83
65.58
70.09
73.16
74.63
74.53
73.05
70.49
67.10
62.93
57.86
51.64
44.08
35.10
24.83
13.53
1.58
-10.49
-22.01
-32.08
-39.79
-44.34
-45.32
-42.82
-37.48
-30.24
-22.18
-14.18
-6.79
-0.24
5.55
10.71
15.34
19.35
22.52
24.61
25.54
25.52
25.10
24.92
25.52
27.03
29.18
31.41
33.22
34.39
35.04
35.46
35.88
36.35
36.70
36.77
36.55
36.22
36.10
36.35
36.91
37.45
37.52
36.76
35.09
32.64
29.72
26.53
23.09
19.22
14.65
9.20
2.92
-3.87
-10.64
-16.87
-22.20
-26.60
-30.33
-33.89
-37.86
-42.66
-48.45
-55.02
-61.72
-67.59
-71.52
-72.50
-69.88
-63.67
-54.49
-43.50
-32.11
-21.49
-12.31
-4.68
1.77
7.61
13.24
18.84
24.26
29.20
33.39
36.67
39.04
40.55
41.28
41.28
40.64
39.54
38.31
37.32
36.83
36.89
37.30
37.65
37.55
36.71
35.12
32.99
30.65
28.42
26.44
24.63
22.69
20.34
17.39
13.91
10.14
6.35
2.69
-0.97
-4.85
-9.15
-13.89
-18.80
-23.50
-27.58
-30.84
-33.37
-35.53
-37.86
-40.92
-45.15
-50.67
-57.09
-63.52
-68.71
-71.35
-70.48
-65.77
-57.64
-47.09
-35.36
-23.63
-12.80
-3.46
4.15
10.01
14.38
17.68
20.40
22.95
25.45
27.72
29.36
30.03
29.60
28.32
26.65
25.18
24.34
24.35
25.13
26.33
27.53
28.29
28.32
27.51
25.89
23.58
20.74
17.55
14.30
11.29
8.77
6.80
5.14
3.39
1.10
-1.93
-5.57
-9.43
-13.05
-16.17
-18.80
-21.25
-23.95
-27.26
-31.39
-36.31
-41.75
-47.18
-51.82
-54.71
-54.93
-51.89
-45.59
-36.70
-26.40
-16.00
-6.53
1.51
8.12
13.57
18.04
21.62
24.23
25.86
26.72
27.17
27.59
28.20
28.95
29.59
29.91
29.80
29.40
28.96
28.74
28.90
29.45
30.24
31.02
31.49
31.38
30.54
29.00
26.88
24.45
21.96
19.62
17.52
15.69
14.03
12.44
10.86
9.20
7.45
5.61
3.73
1.87
0.09
-1.53
-2.98
-4.30
-5.65
-7.18
-9.03
-11.24
-13.76
-16.49
-19.31
-22.16
-25.02
-27.85
-30.56
-33.09
-35.52
-38.04
-41.03
-44.88
-49.74
-55.33
-60.93
-65.45
-67.72
-66.77
-62.18
-54.20
-43.72
-32.06
-20.60
-10.40
-2.04
4.50
9.59
13.79
17.55
21.12
24.53
27.68
30.41
32.59
34.09
34.83
34.79
34.06
32.90
31.67
30.77
30.47
30.79
31.56
32.40
32.96
33.03
32.56
31.63
30.37
28.87
27.22
25.51
23.85
22.34
21.01
19.79
18.56
17.23
15.80
14.35
13.06
11.99
11.09
10.21
9.15
7.85
6.32
4.75
3.25
1.91
0.68
-0.56
-1.94
-3.53
-5.30
-7.18
-9.05
-10.90
-12.75
-14.79
-17.19
-20.07
-23.33
-26.71
-29.81
-32.34
-34.31
-36.05
-38.17
-41.26
-45.63
-51.12
-57.11
-62.64
-66.63
-68.11
-66.38
-61.24
-53.05
-42.69
-31.41
-20.48
-10.88
-3.05
3.05
7.84
11.81
15.38
18.69
21.80
24.65
27.14
29.14
30.50
31.06
30.76
29.74
28.34
27.04
26.27
26.22
26.84
27.81
28.72
29.25
29.24
28.74
27.95
27.05
26.15
25.25
24.30
23.20
21.93
20.50
19.00
17.50
16.03
14.56
13.07
11.53
9.96
8.35
6.67
4.82
2.73
0.39
-2.06
-4.42
-6.42
-8.00
-9.27
-10.54
-12.08
-14.06
-16.41
-18.90
-21.33
-23.64
-25.94
-28.37
-31.00
-33.85
-36.90
-40.21
-43.92
-48.04
-52.22
-55.64
-57.21
-55.97
-51.57
-44.39
-35.52
-26.20
-17.47
-9.88
-3.52
1.77
6.13
9.67
12.45
14.61
16.34
17.78
19.01
19.89
20.27
19.98
19.07
17.78
16.48
15.54
15.19
15.45
16.18
17.18
18.25
19.21
19.91
20.25
20.09
19.40
18.21
16.75
15.28
14.01
13.03
12.25
11.42
10.35
8.94
7.20
5.27
3.34
1.59
0.18
-0.81
-1.48
-2.08
-3.00
-4.58
-7.01
-10.15
-13.64
-17.04
-20.03
-22.53
-24.70
-26.85
-29.28
-32.21
-35.71
-39.70
-43.87
-47.62
-50.11
-50.40
-47.82
-42.16
-33.91
-24.09
-14.00
-4.77
2.86
8.67
12.79
15.59
17.43
18.63
19.43
20.01
20.50
20.95
21.38
21.72
21.83
21.61
21.04
20.28
19.66
19.52
20.11
21.38
22.95
24.30
24.93
24.60
23.41
21.72
19.94
18.38
17.16
16.28
15.64
15.11
14.50
13.60
12.16
10.07
7.44
4.60
1.99
0.04
-1.05
-1.42
-1.53
-2.02
-3.49
-6.27
-10.23
-14.88
-19.53
-23.52
-26.50
-28.56
-30.17
-32.07
-34.92
-39.18
-44.84
-51.35
-57.68
-62.55
-64.68
-63.23
-58.10
-49.98
-40.15
-30.09
-20.98
-13.43
-7.46
-2.63
1.57
5.53
9.45
13.29
16.95
20.25
23.01
25.03
26.16
26.34
25.73
24.75
23.96
23.84
24.63
26.16
27.93
29.35
29.99
29.73
28.72
27.26
25.61
23.96
22.36
20.83
19.37
17.98
16.61
15.16
13.51
11.60
9.45
7.19
5.02
3.14
1.66
0.61
-0.17
-0.98
-2.13
-3.84
-6.05
-8.44
-10.56
-12.08
-12.99
-13.66
-14.64
-16.41
-19.12
-22.52
-26.16
-29.56
-32.50
-35.04
-37.42
-39.99
-43.04
-46.73
-51.07
-55.83
-60.46
-64.13
-65.80
-64.62
-60.14
-52.59
-42.79
-31.96
-21.29
-11.75
-3.83
2.35
7.01
10.50
13.29
15.84
18.56
21.73
25.37
29.19
32.66
35.19
36.42
36.34
35.33
33.97
32.83
32.16
31.92
31.83
31.66
31.31
30.87
30.43
30.06
29.64
29.03
28.12
26.97
25.63
24.17
22.59
20.82
18.84
16.71
14.58
12.62
10.90
9.40
8.01
6.64
5.20
3.68
2.06
0.32
-1.52
-3.40
-5.30
-7.20
-9.17
-11.31
-13.72
-16.37
-19.21
-22.07
-24.84
-27.44
-29.92
-32.44
-35.24
-38.54
-42.46
-46.92
-51.53
-55.64
-58.42
-58.99
-56.75
-51.51
-43.63
-33.96
-23.64
-13.81
-5.39
1.14
5.81
9.04
11.44
13.56
15.73
18.02
20.30
22.30
23.77
24.60
24.83
24.65
24.35
24.22
24.44
25.06
25.99
27.05
28.04
28.75
29.02
28.74
27.90
26.58
24.93
23.14
21.35
19.59
17.74
15.67
13.30
10.73
8.19
5.89
3.98
2.35
0.79
-0.95
-3.03
-5.40
-7.92
-10.48
-13.00
-15.55
-18.20
-21.04
-24.16
-27.65
-31.62
-36.16
-41.11
-45.97
-49.83
-51.58
-50.33
-45.67
-38.01
-28.40
-18.29
-8.94
-1.10
5.10
9.93
13.81
16.99
19.50
21.31
22.43
23.04
23.38
23.64
23.83
23.81
23.51
22.97
22.45
22.30
22.77
23.84
25.28
26.67
27.55
27.65
26.90
25.45
23.58
21.56
19.62
17.88
16.33
14.86
13.34
11.62
9.58
7.16
4.42
1.52
-1.29
-3.80
-5.93
-7.82
-9.78
-12.14
-15.05
-18.43
-21.95
-25.28
-28.21
-30.78
-33.34
-36.35
-40.28
-45.31
-51.30
-57.66
-63.41
-67.37
-68.44
-65.91
-59.73
-50.49
-39.36
-27.72
-16.81
-7.48
-0.03
5.70
10.23
14.15
17.92
21.77
25.63
29.27
32.37
34.68
36.08
36.57
36.31
35.56
34.64
33.92
33.76
34.38
35.78
37.73
39.76
41.30
41.91
41.40
39.87
37.69
35.39
33.44
32.07
31.21
30.50
29.55
28.02
25.83
23.13
20.20
17.34
14.73
12.45
10.45
8.71
7.19
5.83
4.49
2.97
1.11
-1.13
-3.61
-6.08
-8.31
-10.26
-12.08
-14.07
-16.56
-19.64
-23.26
-27.10
-30.86
-34.35
-37.59
-40.81
-44.33
-48.40
-53.12
-58.37
-63.81
-68.87
-72.81
-74.79
-74.00
-69.88
-62.35
-51.94
-39.75
-27.23
-15.76
-6.24
1.10
6.66
11.21
15.46
19.78
24.12
28.10
31.30
33.46
34.63
35.02
34.97
34.69
34.35
34.06
33.91
34.00
34.41
35.13
36.03
36.84
37.27
37.09
36.19
34.63
32.61
30.38
28.14
26.01
23.99
22.03
20.16
18.44
16.97
15.83
14.99
14.31
13.62
12.75
11.66
10.35
8.95
7.54
6.15
4.72
3.04
0.91
-1.84
-5.18
-8.92
-12.75
-16.42
-19.79
-22.89
-25.83
-28.65
-31.32
-33.89
-36.56
-39.81
-44.09
-49.54
-55.60
-61.05
-64.30
-63.99
-59.57
-51.50
-41.06
-29.80
-19.06
-9.65
-1.83
4.52
9.58
13.58
16.71
19.14
21.03
22.56
23.83
24.91
25.83
26.54
26.93
26.91
26.54
26.01
25.69
25.95
26.91
28.39
29.87
30.80
30.80
29.83
28.15
26.05
23.78
21.38
18.87
16.33
13.94
11.93
10.33
8.96
7.46
5.43
2.70
-0.62
-4.18
-7.65
-10.80
-13.62
-16.20
-18.66
-21.09
-23.57
-26.31
-29.62
-33.81
-38.96
-44.68
-50.05
-53.78
-54.65
-51.97
-45.85
-37.19
-27.31
-17.42
-8.32
-0.29
6.70
12.68
17.55
21.08
23.20
24.11
24.28
24.26
24.41
24.80
25.23
25.50
25.52
25.45
25.54
25.94
26.60
27.32
27.84
28.01
27.82
27.39
26.86
26.31
25.74
25.14
24.51
23.86
23.17
22.38
21.38
20.04
18.37
16.42
14.35
12.31
10.44
8.79
7.33
5.95
4.51
2.86
0.93
-1.26
-3.56
-5.78
-7.79
-9.53
-11.10
-12.75
-14.74
-17.22
-20.23
-23.63
-27.20
-30.72
-34.05
-37.24
-40.46
-44.05
-48.39
-53.70
-59.86
-66.33
-72.07
-75.89
-76.65
-73.70
-67.05
-57.39
-45.90
-33.92
-22.66
-12.91
-5.03
1.13
6.05
10.40
14.77
19.43
24.29
28.91
32.79
35.59
37.28
38.12
38.47
38.62
38.70
38.71
38.70
38.81
39.25
40.15
41.46
42.86
43.92
44.19
43.43
41.67
39.17
36.28
33.30
30.45
27.83
25.45
23.33
21.48
19.90
18.61
17.58
16.74
15.99
15.19
14.25
13.17
12.00
10.80
9.54
8.15
6.46
4.34
1.77
-1.14
-4.16
-7.07
-9.69
-12.05
-14.28
-16.59
-19.10
-21.84
-24.76
-27.76
-30.81
-33.89
-37.01
-40.19
-43.46
-46.87
-50.52
-54.54
-58.91
-63.34
-67.14
-69.35
-68.97
-65.31
-58.36
-48.78
-37.76
-26.70
-16.66
-8.25
-1.47
4.02
8.64
12.68
16.31
19.53
22.36
24.85
27.00
28.72
29.85
30.25
29.92
29.11
28.28
27.85
28.11
29.04
30.32
31.49
32.08
31.80
30.66
28.91
26.94
25.11
23.55
22.15
20.64
18.81
16.69
14.53
12.70
11.45
10.73
10.22
9.54
8.40
6.77
4.85
2.88
1.07
-0.55
-2.09
-3.74
-5.63
-7.76
-10.02
-12.26
-14.41
-16.50
-18.66
-21.02
-23.58
-26.22
-28.72
-30.99
-33.18
-35.73
-39.14
-43.60
-48.65
-53.13
-55.48
-54.40
-49.37
-40.95
-30.54
-19.81
-10.10
-2.04
4.48
9.86
14.52
18.59
22.00
24.62
26.43
27.56
28.20
28.45
28.36
27.90
27.13
26.25
25.56
25.28
25.49
26.03
26.58
26.83
26.59
25.83
24.68
23.30
21.86
20.43
19.02
17.60
16.11
14.53
12.89
11.25
9.70
8.27
6.93
5.54
3.94
2.07
0.01
-2.02
-3.75
-5.13
-6.33
-7.70
-9.64
-12.33
-15.66
-19.29
-22.80
-25.94
-28.72
-31.34
-34.11
-37.23
-40.77
-44.77
-49.18
-53.86
-58.41
-62.12
-63.99
-63.09
-58.85
-51.38
-41.43
-30.20
-19.02
-8.96
-0.62
5.86
10.74
14.50
17.67
20.62
23.51
26.22
28.60
30.47
31.83
32.78
33.43
33.86
34.08
34.16
34.25
34.57
35.30
36.39
37.57
38.41
38.52
37.72
36.14
34.09
31.93
29.94
28.20
26.70
25.33
23.99
22.60
21.16
19.67
18.17
16.70
15.30
14.00
12.75
11.55
10.31
8.95
7.36
5.48
3.26
0.74
-1.99
-4.83
-7.63
-10.25
-12.57
-14.54
-16.27
-18.03
-20.14
-22.83
-26.11
-29.71
-33.23
-36.32
-38.89
-41.20
-43.80
-47.28
-51.95
-57.66
-63.71
-68.94
-72.04
-71.88
-67.92
-60.38
-50.18
-38.67
-27.19
-16.77
-7.89
-0.69
5.01
9.48
12.97
15.80
18.28
20.70
23.17
25.65
27.92
29.71
30.81
31.15
30.90
30.30
29.72
29.43
29.55
30.01
30.59
31.02
31.11
30.81
30.19
29.34
28.28
27.00
25.51
23.91
22.38
21.06
19.97
18.92
17.70
16.15
14.32
12.41
10.62
9.11
7.80
6.51
4.99
3.08
0.74
-1.92
-4.68
-7.34
-9.72
-11.85
-13.87
-15.96
-18.27
-20.83
-23.55
-26.23
-28.77
-31.12
-33.38
-35.81
-38.68
-42.24
-46.53
-51.21
-55.59
-58.66
-59.38
-57.07
-51.58
-43.41
-33.56
-23.20
-13.42
-4.96
1.81
6.89
10.54
13.22
15.40
17.42
19.42
21.32
22.93
24.09
24.76
25.03
25.04
24.91
24.68
24.43
24.28
24.41
25.02
26.05
27.23
28.09
28.14
27.10
25.01
22.14
18.89
15.68
12.81
10.45
8.59
7.02
5.36
3.24
0.37
-3.30
-7.52
-11.90
-15.97
-19.45
-22.23
-24.45
-26.42
-28.50
-31.09
-34.50
-38.80
-43.74
-48.65
-52.55
-54.39
-53.31
-49.00
-41.78
-32.58
-22.65
-13.20
-5.03
1.51
6.57
10.49
13.66
16.42
18.97
21.43
23.79
25.91
27.56
28.49
28.58
27.94
26.90
25.83
25.02
24.58
24.46
24.60
24.93
25.50
26.21
26.93
27.41
27.48
27.07
26.26
25.16
23.86
22.35
20.60
18.56
16.29
13.92
11.61
9.40
7.27
5.12
2.87
0.50
-1.91
-4.27
-6.54
-8.74
-11.02
-13.47
-16.15
-19.03
-22.02
-24.97
-27.79
-30.47
-32.99
-35.39
-37.78
-40.40
-43.65
-47.86
-53.16
-59.16
-64.97
-69.32
-70.97
-69.09
-63.53
-54.82
-43.97
-32.17
-20.58
-10.09
-1.26
5.75
11.07
15.18
18.62
21.93
25.37
28.90
32.23
34.95
36.73
37.43
37.17
36.27
35.18
34.25
33.72
33.65
33.94
34.43
34.93
35.36
35.58
35.49
34.93
33.77
32.06
30.03
28.15
26.82
26.25
26.28
26.44
26.13
24.96
22.90
20.31
17.76
15.69
14.26
13.22
12.08
10.41
8.04
5.11
2.04
-0.76
-3.07
-4.90
-6.39
-7.78
-9.23
-10.93
-12.99
-15.50
-18.45
-21.65
-24.82
-27.67
-30.18
-32.51
-35.07
-38.23
-42.22
-46.96
-52.10
-57.00
-60.83
-62.72
-61.88
-57.95
-51.10
-42.06
-31.93
-21.86
-12.68
-4.83
1.64
6.90
11.20
14.84
18.09
21.14
24.09
26.82
29.10
30.64
31.30
31.11
30.33
29.29
28.33
27.77
27.76
28.35
29.42
30.66
31.66
31.99
31.35
29.74
27.34
24.51
21.64
18.96
16.57
14.40
12.36
10.27
8.06
5.68
3.14
0.47
-2.21
-4.79
-7.15
-9.25
-11.12
-12.91
-14.82
-17.08
-19.90
-23.46
-27.86
-33.03
-38.65
-44.06
-48.30
-50.33
-49.33
-45.00
-37.70
-28.39
-18.32
-8.71
-0.43
6.21
11.27
15.12
18.07
20.40
22.20
23.55
24.59
25.50
26.41
27.32
28.06
28.38
28.15
27.47
26.70
26.25
26.32
26.87
27.58
28.04
28.01
27.44
26.49
25.36
24.19
22.98
21.59
19.91
17.91
15.71
13.53
11.59
10.07
9.03
8.38
7.96
7.55
6.90
5.88
4.36
2.40
0.10
-2.34
-4.74
-7.01
-9.25
-11.65
-14.42
-17.66
-21.25
-24.95
-28.45
-31.57
-34.29
-36.80
-39.48
-42.68
-46.66
-51.44
-56.63
-61.50
-65.06
-66.28
-64.41
-59.23
-51.12
-41.01
-30.08
-19.45
-9.91
-1.88
4.57
9.57
13.37
16.24
18.55
20.57
22.59
24.71
26.89
28.93
30.55
31.48
31.64
31.12
30.18
29.19
28.46
