1543953850.00
64.000000
-0.00
-0.00
-0.00
-0.00
-0.00
-0.00
-0.00
-0.00
-0.00
-0.00
0.00
0.01
0.01
-0.00
-0.03
-0.05
-0.05
0.00
0.13
0.36
0.66
1.01
1.37
1.72
2.06
2.41
2.79
3.25
3.80
4.41
5.06
5.71
6.32
6.91
7.50
8.14
8.83
9.68
10.60
11.54
12.42
13.23
14.03
14.96
16.20
17.85
20.12
22.81
25.69
28.54
31.22
33.84
36.66
40.05
44.24
49.56
55.69
62.22
68.71
74.93
80.94
87.12
93.93
101.68
110.79
120.83
131.29
141.66
151.66
161.38
171.21
182.05
192.14
203.51
216.84
232.73
250.62
268.15
281.14
284.65
274.65
249.52
211.20
163.52
111.34
58.64
7.70
-40.77
-86.85
-130.63
-172.30
-211.97
-251.06
-290.97
-331.73
-370.81
-402.85
-421.26
-420.68
-399.45
-360.27
-309.72
-255.55
-204.29
-160.19
-125.12
-99.26
-81.86
-71.61
-66.62
-65.00
-65.26
-67.22
-72.28
-82.74
-100.64
-126.62
-159.52
-196.68
-234.98
-271.72
-304.76
-332.98
-355.60
-372.01
-381.60
-383.84
-378.46
-365.46
-345.02
-317.38
-282.88
-241.96
-195.40
-144.44
-90.79
-36.49
16.35
65.88
110.74
150.11
183.70
211.61
234.06
251.34
263.65
271.20
274.27
273.27
268.77
261.50
252.19
241.51
230.00
217.99
205.67
193.15
180.53
167.93
155.51
143.44
131.86
120.87
110.49
100.71
91.49
82.82
74.65
66.97
59.80
53.12
46.94
41.23
36.00
31.23
26.90
22.99
19.48
16.35
13.58
11.15
9.04
7.24
5.73
4.48
3.52
2.80
2.28
1.95
1.78
1.76
1.86
2.07
2.37
2.76
3.20
3.69
4.24
4.83
5.49
6.21
6.99
7.84
8.76
9.73
10.76
11.83
12.97
14.22
15.60
17.09
18.70
20.38
22.05
23.62
24.93
25.82
26.10
25.64
24.23
21.83
18.47
14.33
9.69
4.91
0.52
-2.98
-5.01
-5.35
-3.83
-0.51
4.23
10.08
16.08
21.35
25.02
26.56
25.20
20.80
13.39
3.18
-9.33
-23.54
-38.63
-53.88
-67.69
-79.80
-89.88
-97.65
-102.85
-105.26
-104.63
-100.71
-94.34
-84.72
-71.86
-55.98
-37.61
-17.43
3.77
25.22
46.63
66.78
85.10
100.76
113.05
121.37
125.36
124.97
120.57
112.84
102.47
90.22
76.22
60.39
42.53
22.68
1.33
-20.43
-40.49
-57.78
-71.43
-81.69
-89.55
-96.40
-103.48
-111.30
-119.44
-126.84
-133.12
-137.34
-139.81
-141.70
-144.39
-149.13
-156.79
-167.95
-182.42
-198.72
-213.35
-221.41
-217.80
-199.56
-167.66
-127.04
-84.88
-47.76
-18.41
4.20
23.38
42.54
63.28
84.85
105.31
123.00
136.65
147.08
155.39
161.88
165.96
166.62
162.97
155.12
144.20
132.56
121.79
112.98
106.40
101.50
97.21
92.41
86.41
79.12
71.07
63.20
56.53
51.72
48.92
47.65
46.96
45.71
43.05
38.75
33.35
28.12
24.46
23.37
24.87
27.93
30.83
31.86
30.24
26.38
21.80
18.43
17.65
19.87
24.64
31.06
37.82
43.14
44.44
38.79
23.85
-0.52
-31.51
-63.87
-91.72
-111.13
-121.69
-126.37
-129.19
-132.31
-134.23
-130.33
-115.66
-88.28
-51.18
-11.41
22.95
46.33
57.70
60.26
59.17
58.57
59.91
62.08
63.02
61.46
57.76
53.46
50.45
49.23
49.46
50.26
50.58
49.92
48.38
46.42
44.84
44.14
44.61
46.20
48.59
51.52
55.23
60.52
68.17
77.75
86.76
90.79
85.12
67.15
38.26
3.72
-29.03
-53.41
-66.24
-68.45
-63.72
-56.23
-48.47
-40.91
-33.12
-24.85
-16.62
-9.46
-4.11
-0.36
2.64
6.22
11.54
18.33
25.60
32.27
37.78
42.36
47.00
52.54
60.20
70.62
82.49
94.13
104.69
114.26
123.49
133.18
143.15
153.62
163.89
170.30
169.41
159.99
142.48
117.27
88.90
59.13
29.89
1.49
-30.09
-68.26
-112.28
-158.14
-200.75
-236.33
-263.80
-281.93
-292.80
-304.69
-325.58
-357.79
-398.83
-444.26
-490.52
-536.15
-578.58
-583.79
-534.81
-439.23
-321.62
-206.75
-108.09
-28.72
20.92
51.13
68.51
82.64
90.73
91.67
87.70
82.52
78.78
77.34
80.27
86.68
91.63
90.28
82.96
69.46
55.78
46.54
43.72
49.39
62.65
79.62
95.92
110.35
127.79
148.29
170.22
190.99
209.54
224.33
233.33
234.83
229.46
219.51
206.96
193.32
178.58
162.89
145.53
125.32
101.07
72.64
40.68
5.79
-26.19
-53.15
-74.58
-91.20
-104.09
-114.14
-121.58
-126.14
-127.56
-125.65
-121.62
-116.91
-112.99
-111.15
-111.88
-114.65
-118.13
-120.98
-122.07
-121.79
-121.12
-121.15
-123.04
-127.68
-135.67
-147.11
-161.05
-174.71
-184.04
-184.32
-172.09
-147.64
-115.36
-82.19
-54.81
-36.88
-27.78
-23.80
-20.67
-14.38
-3.64
11.07
28.74
48.88
71.50
96.48
122.73
146.87
166.64
180.04
186.32
186.13
181.29
173.94
165.84
157.89
150.01
141.87
132.80
122.57
111.51
100.50
90.44
81.93
74.94
69.03
63.69
58.30
52.56
46.50
40.56
35.18
30.63
26.94
23.91
21.36
18.96
17.03
15.20
13.55
12.21
11.24
10.68
10.43
10.51
10.75
11.11
11.53
12.02
12.62
13.34
14.18
15.19
16.44
17.83
19.33
20.81
22.11
23.06
23.44
23.08
21.87
20.09
17.17
12.85
6.88
-0.87
-10.38
-21.43
-33.52
-46.29
-58.41
-69.14
-77.85
-84.29
-88.35
-90.10
-89.47
-86.46
-80.84
-72.55
-62.09
-50.21
-38.15
-27.24
-18.57
-12.54
-8.61
-5.39
-1.37
4.39
12.06
20.74
28.89
35.10
38.89
40.27
41.69
45.33
52.25
61.92
72.14
79.88
82.77
80.24
73.93
67.26
63.54
64.93
71.74
82.38
93.79
102.13
103.26
93.74
72.13
40.52
3.52
-30.91
-54.23
-60.84
-50.87
-30.78
-11.08
-1.90
-8.87
-30.69
-60.53
-89.91
-112.96
-128.58
-139.46
-149.23
-158.92
-165.71
-163.49
-147.09
-115.48
-72.94
-27.93
11.19
38.34
52.19
55.77
54.61
53.42
54.13
55.34
53.65
46.54
33.64
17.50
2.49
-7.25
-9.66
-5.03
4.29
15.56
26.69
36.25
43.32
46.93
46.23
41.03
32.55
23.07
15.15
10.59
9.45
10.58
12.12
12.35
9.93
4.22
-4.42
-13.89
-20.23
-19.08
-7.79
12.16
34.45
49.83
50.20
32.30
0.10
-37.54
-71.80
-97.28
-113.33
-122.41
-127.37
-129.00
-126.61
-120.77
-111.76
-102.61
-97.10
-97.93
-104.84
-114.45
-120.45
-115.78
-95.62
-58.88
-9.61
44.56
94.66
133.44
156.43
165.06
164.59
160.67
156.47
151.18
141.50
124.29
99.10
69.22
40.65
19.01
7.06
3.81
5.09
6.51
5.53
2.48
-0.44
-0.82
2.01
6.71
11.19
13.36
12.65
10.13
7.54
6.60
8.13
11.65
15.70
18.63
19.23
17.30
13.52
9.03
4.81
1.35
-1.60
-4.83
-9.18
-15.11
-22.38
-30.06
-36.94
-41.89
-44.31
-44.30
-42.70
-40.65
-39.11
-38.52
-38.71
-38.98
-38.56
-37.09
-34.71
-32.34
-31.17
-32.08
-35.19
-39.61
-43.88
-46.56
-46.71
-44.14
-39.77
-34.90
-30.77
-28.34
-28.37
-31.24
-36.36
-41.53
-42.87
-36.49
-20.16
5.03
34.47
61.41
79.63
85.84
79.22
64.40
46.67
29.69
14.64
1.15
-11.37
-22.39
-30.81
-35.83
-37.54
-37.29
-36.89
-37.91
-40.84
-45.03
-48.99
-51.24
-51.18
-49.06
-45.85
-42.79
-40.82
-40.15
-40.32
-39.93
-38.09
-34.99
-31.77
-29.37
-28.69
-30.04
-33.03
-36.81
-38.84
-37.80
-34.49
-31.32
-29.59
-29.91
-31.89
-34.46
-36.44
-33.83
-25.27
-13.48
-3.76
0.89
-0.22
-5.43
-11.61
-15.18
-7.90
14.88
52.54
93.09
130.12
161.72
189.30
215.77
244.19
283.58
338.29
405.19
475.80
542.54
598.65
637.74
654.12
604.04
477.04
304.21
136.31
6.92
-76.75
-124.39
-149.86
-163.89
-171.77
-168.84
-153.32
-131.05
-112.89
-107.06
-116.46
-139.29
-171.49
-208.98
-235.32
-242.65
-233.58
-217.68
-203.82
-196.26
-194.62
-195.65
-195.30
-187.14
-169.59
-146.08
-122.78
-104.85
-94.86
-93.18
-98.36
-106.96
-112.15
-107.77
-89.56
-56.47
-11.28
39.34
85.69
117.74
128.48
117.03
87.67
48.54
8.77
-24.37
-47.12
-59.57
-64.26
-64.25
-61.93
-59.14
-57.51
-58.53
-62.98
-69.42
-73.90
-70.94
-56.18
-29.13
6.02
42.03
71.55
90.06
96.67
93.05
82.05
66.40
48.63
31.64
18.25
10.46
8.44
10.24
12.42
11.70
6.34
-4.00
-17.17
-30.49
-41.30
-47.37
-47.22
-40.48
-27.87
-10.69
8.12
26.54
43.11
56.94
67.36
73.70
75.34
72.31
65.31
55.73
45.49
35.89
27.33
19.20
10.31
-0.43
-13.25
-27.36
-41.37
-53.80
-63.96
-72.18
-79.70
-87.81
-97.25
-107.78
-118.44
-127.77
-133.99
-134.83
-127.86
-111.13
-84.19
-48.85
-8.79
31.48
68.18
99.05
123.87
143.49
158.63
168.90
172.71
168.21
154.36
132.23
104.82
77.52
56.54
46.23
46.81
53.58
58.84
55.27
39.74
13.31
-18.89
-51.16
-80.34
-106.64
-132.14
-157.83
-182.90
-201.01
-210.54
-212.85
-211.27
-209.02
-207.32
-204.79
-197.71
-185.72
-166.55
-141.24
-111.85
-80.31
-47.55
-13.61
21.73
59.10
97.61
135.66
169.76
197.26
217.46
231.90
243.97
250.79
252.50
249.49
243.07
233.91
223.48
214.05
207.78
205.63
206.55
208.86
209.82
207.69
200.81
188.55
171.53
151.37
130.28
110.73
95.70
83.35
73.21
62.79
47.88
25.36
-3.79
-34.23
-58.85
-72.05
-75.60
-73.39
-70.05
-68.46
-68.07
-65.16
-55.10
-35.02
-5.51
32.23
72.87
108.69
132.22
138.65
126.99
99.74
61.52
17.43
-28.54
-74.01
-118.39
-161.97
-204.66
-245.44
-282.84
-315.73
-344.60
-372.14
-402.58
-440.03
-486.19
-538.84
-591.80
-636.97
-666.93
-677.41
-668.22
-642.68
-605.61
-561.38
-512.75
-460.93
-406.48
-350.28
-293.87
-239.18
-187.75
-139.92
-94.68
-50.10
-4.30
43.89
94.46
146.48
198.61
249.50
297.83
342.14
380.75
411.84
433.93
446.39
449.58
444.67
433.25
416.86
396.90
374.65
351.45
328.59
307.14
287.60
269.82
253.09
236.50
219.35
201.39
182.99
164.87
147.84
132.32
118.19
104.79
91.26
77.01
62.01
46.78
32.10
18.64
6.69
-3.75
-12.75
-20.18
-25.61
-28.51
-28.59
-25.96
-21.26
-15.42
-9.33
-3.53
1.87
7.09
12.32
17.47
22.09
25.53
27.27
27.21
25.83
23.88
22.03
20.62
19.52
18.35
16.85
15.08
13.34
11.94
10.83
9.67
7.93
5.29
1.86
-1.86
-5.25
-7.94
-9.91
-11.45
-12.99
-14.88
-17.36
-20.60
-24.63
-29.34
-34.23
-38.46
-41.02
-41.14
-38.59
-33.83
-27.78
-21.46
-15.58
-10.41
-5.89
-1.92
1.45
4.07
5.75
6.58
6.86
7.11
7.77
8.99
10.58
12.04
12.84
12.68
11.61
10.02
8.52
7.65
7.63
8.35
9.37
10.17
10.38
9.91
8.95
7.82
6.82
6.08
5.60
5.25
4.95
4.68
4.47
4.36
4.26
3.92
2.98
1.10
-1.93
-5.94
-10.33
-14.20
-16.55
-16.63
-14.26
-9.83
-4.18
1.73
7.14
11.62
15.09
17.66
19.60
21.27
23.09
25.40
28.12
30.55
31.36
29.02
22.37
11.23
-3.44
-19.76
-35.61
-49.25
-59.75
-67.00
-71.44
-73.64
-74.11
-73.08
-70.63
-66.73
-61.38
-54.67
-46.81
-38.08
-28.82
-19.30
-9.78
-0.56
7.92
15.06
20.24
22.95
23.06
20.80
16.81
11.95
7.08
2.93
0.04
-1.26
-0.81
1.41
5.15
10.03
15.53
21.10
26.32
30.89
34.61
37.34
39.02
39.66
39.44
38.65
37.62
36.60
35.66
34.58
33.04
30.71
27.42
23.29
18.66
14.00
9.76
6.27
3.64
1.81
0.52
-0.60
-1.89
-3.64
-5.95
-8.79
-12.02
-15.47
-18.98
-22.44
-25.77
-28.90
-31.74
-34.15
-36.02
-37.32
-38.19
-38.86
-39.66
-40.89
-42.64
-44.85
-47.17
-49.18
-50.40
-50.42
-49.03
-46.24
-42.31
-37.59
-32.54
-27.43
-22.42
-17.46
-12.40
-7.11
-1.56
4.17
9.88
15.32
20.18
24.15
26.97
28.60
29.22
29.24
29.13
29.23
29.63
30.23
30.82
31.31
31.79
32.40
33.17
33.89
34.18
33.67
32.20
29.96
27.33
24.77
22.52
20.58
18.70
16.54
13.85
10.47
6.47
2.14
-2.00
-5.35
-7.31
-7.63
-6.49
-4.46
-2.27
-0.47
0.77
1.71
2.75
4.20
6.14
8.35
10.58
12.62
14.45
16.17
17.85
19.49
21.02
22.24
23.00
23.24
22.93
22.09
20.77
18.97
16.72
14.07
11.09
7.94
4.78
1.75
-1.10
-3.77
-6.31
-8.78
-11.16
-13.38
-15.39
-17.24
-19.11
-21.33
-24.14
-27.60
-31.42
-35.02
-37.74
-39.05
-38.72
-36.83
-33.67
-29.57
-24.87
-19.88
-14.89
-10.28
-6.36
-3.30
-1.14
0.28
1.12
1.50
1.46
1.01
0.21
-0.74
-1.58
-2.04
-2.03
-1.65
-1.22
-1.03
-1.26
-1.90
-2.74
-3.63
-4.47
-5.24
-5.92
-6.40
-6.51
-6.07
-5.11
-3.87
-2.82
-2.35
-2.65
-3.65
-5.04
-6.55
-8.12
-9.96
-12.40
-15.62
-19.46
-23.37
-26.46
-27.91
-27.20
-24.43
-20.23
-15.49
-10.98
-7.10
-3.74
-0.59
2.71
6.31
10.08
13.72
16.94
19.54
21.47
22.82
23.69
24.24
24.58
24.77
24.83
24.83
24.88
25.20
26.00
27.35
29.13
30.96
32.43
33.30
33.63
33.85
34.54
36.20
38.99
42.75
47.06
51.51
55.90
60.33
65.15
70.71
77.25
84.80
93.23
102.33
111.94
121.87
131.99
142.21
152.59
163.35
174.78
187.11
200.19
213.41
225.91
236.99
246.54
255.14
263.74
272.94
282.04
288.74
289.36
279.98
257.77
222.03
174.37
118.09
57.10
-4.93
-65.14
-121.47
-172.57
-217.64
-256.27
-288.24
-313.33
-331.15
-341.47
-344.76
-342.78
-338.88
-337.33
-342.28
-356.33
-379.56
-409.22
-440.36
-467.12
-484.25
-488.37
-478.39
-455.34
-421.48
-379.45
-331.63
-280.20
-227.44
-176.16
-129.67
-91.27
-63.40
-46.90
-40.70
-42.06
-47.19
-52.08
-53.25
-48.45
-36.79
-18.76
4.27
30.35
57.31
82.94
105.22
122.58
134.16
140.08
141.41
139.90
137.51
135.81
135.54
136.44
137.46
137.32
135.13
130.75
124.91
118.84
113.61
109.79
107.28
105.52
103.83
101.76
99.03
95.45
90.76
84.55
76.40
65.99
53.14
37.78
19.92
-0.31
-22.62
-46.67
-72.12
-98.66
-125.80
-152.89
-179.33
-205.05
-230.81
-257.99
-287.76
-319.76
-351.21
-376.81
-390.28
-386.63
-364.01
-323.86
-269.47
-204.17
-130.36
-49.86
35.33
121.52
202.97
272.81
325.24
357.71
371.72
371.99
364.76
356.61
352.41
353.51
356.65
354.89
340.51
308.42
258.64
196.78
133.27
79.83
45.69
34.91
46.32
75.31
115.83
161.48
198.64
213.45
198.23
156.93
102.81
50.17
7.73
-22.44
-42.19
-54.51
-60.93
-61.46
-56.54
-49.11
-44.17
-46.15
-55.80
-68.70
-76.80
-73.01
-53.42
-19.72
21.03
59.31
86.90
99.20
91.86
65.07
20.14
-39.99
-108.87
-175.38
-225.48
-246.82
-237.13
-199.05
-141.99
-78.77
-20.30
27.14
61.38
81.72
87.10
76.84
52.93
20.62
-12.67
-40.01
-57.99
-68.14
-75.74
-86.68
-101.97
-116.16
-121.25
-110.81
-84.44
-48.34
-11.50
18.89
40.21
54.40
65.54
76.43
87.02
94.18
93.99
84.63
67.95
46.73
25.26
7.83
-2.59
-4.26
2.59
17.00
37.50
60.85
81.27
91.55
82.60
50.12
-1.05
-59.69
-115.70
-160.93
-191.44
-208.36
-216.22
-215.64
-208.28
-189.82
-159.12
-118.14
-71.86
-27.13
9.99
36.82
54.28
66.96
78.75
89.89
98.73
103.62
104.09
101.55
99.10
98.12
100.10
104.96
110.41
113.64
112.91
108.06
100.33
91.68
83.66
77.06
71.54
65.88
59.25
51.61
43.52
35.79
29.12
24.02
20.97
20.11
21.16
23.71
27.24
31.24
35.18
38.49
40.40
40.07
36.52
29.02
17.65
3.40
-11.83
-25.92
-37.18
-44.92
-49.60
-52.61
-55.69
-60.07
-66.33
-74.37
-83.74
-93.89
-104.15
-113.80
-121.91
-127.58
-130.06
-129.28
-125.95
-121.27
-116.47
-112.12
-108.17
-104.06
-99.32
-93.69
-87.54
-81.72
-77.12
-74.16
-72.55
-71.46
-69.93
-67.31
-62.87
-56.63
-49.52
-42.93
-38.19
-35.99
-36.58
-39.76
-44.82
-48.99
-49.19
-43.72
-33.28
-20.52
-8.62
0.13
5.64
9.96
17.93
32.80
53.30
74.31
90.47
99.77
104.62
110.74
124.81
154.57
204.11
271.13
347.40
421.94
484.70
528.92
552.47
540.45
489.11
410.68
327.30
256.60
204.20
167.44
141.90
124.81
115.94
115.31
121.96
132.05
140.01
141.34
134.67
121.03
102.00
81.24
62.78
49.15
39.30
29.84
17.46
0.81
-19.47
-41.55
-63.15
-81.46
-94.72
-104.99
-116.15
-131.69
-153.00
-179.55
-209.90
-242.45
-275.34
-306.20
-335.28
-361.42
-381.40
-391.17
-388.80
-376.45
-359.15
-341.94
-327.13
-318.64
-316.93
-319.43
-322.18
-322.92
-322.22
-322.10
-324.25
-328.50
-339.83
-361.45
-393.57
-433.19
-477.04
-523.43
-571.67
-621.17
-630.15
-574.16
-454.13
-297.32
-137.41
1.96
110.67
188.24
239.16
270.45
283.15
279.89
264.82
244.52
224.92
208.83
199.53
199.01
208.07
221.10
234.15
244.92
254.56
265.21
278.91
297.40
321.73
352.43
386.56
424.49
460.86
493.95
522.79
546.52
564.61
576.25
580.45
560.09
507.75
426.55
329.98
233.62
148.96
82.05
34.51
5.67
-7.25
-6.23
3.69
15.87
22.70
17.66
-0.21
-27.20
-56.39
-80.42
-92.44
-90.71
-77.33
-57.06
-34.78
-13.64
4.72
19.20
28.07
34.37
38.24
39.54
38.20
34.81
30.64
26.87
24.05
21.78
19.47
15.39
8.17
-2.78
-16.94
-32.71
-48.15
-61.75
-73.09
-82.81
-93.07
-106.11
-123.40
-144.90
-169.06
-193.45
-215.77
-234.95
-251.53
-267.86
-286.93
-311.47
-343.11
-381.55
-424.36
-466.91
-503.02
-526.10
-531.11
-515.98
-482.70
-437.04
-387.00
-340.05
-300.43
-267.94
-238.89
-209.01
-176.55
-144.02
-117.23
-102.15
-101.07
-110.59
-122.56
-127.70
-119.61
-97.24
-64.59
-28.17
6.58
37.93
67.82
100.14
137.93
181.57
228.11
272.57
309.67
335.80
349.98
353.23
347.49
334.69
317.05
297.27
278.27
261.51
245.62
226.86
200.10
161.58
110.63
52.47
-3.60
-47.80
-74.89
-85.95
-85.53
-79.37
-71.62
-65.81
-62.55
-61.69
-63.20
-69.06
-81.82
-100.87
-123.89
-147.96
-173.87
-201.12
-227.41
-247.05
-254.65
-246.08
-216.86
-165.35
-92.53
-5.15
91.47
193.74
300.88
410.36
499.50
545.89
536.05
508.99
490.29
494.22
509.60
528.38
541.58
541.71
527.58
501.77
448.88
360.34
240.82
105.77
-25.59
-140.93
-235.62
-303.65
-347.76
-369.04
-369.86
-353.23
-322.75
-281.39
-233.49
-182.77
-129.01
-70.35
-3.29
74.06
153.57
225.09
279.32
309.77
312.48
286.84
233.83
158.71
71.33
-14.54
-82.89
-121.36
-124.01
-97.84
-54.17
-5.59
38.32
72.37
94.87
106.85
102.16
79.73
39.71
-15.14
-79.10
-143.04
-196.98
-235.94
-258.92
-268.06
-266.48
-258.13
-245.09
-228.23
-208.23
-187.00
-168.03
-154.47
-146.36
-142.79
-141.91
-140.38
-134.99
-124.38
-109.64
-94.21
-81.02
-71.85
-66.28
-61.83
-53.91
-38.07
-12.20
22.16
59.77
95.02
122.89
140.52
144.25
134.69
118.18
105.59
107.41
128.00
165.04
209.39
247.82
267.76
262.01
230.61
180.14
124.70
70.55
23.36
-12.56
-34.82
-42.44
-35.67
-16.31
12.00
44.02
73.50
96.13
109.48
111.45
102.28
84.25
61.00
36.67
14.69
-3.61
-18.49
-32.16
-47.82
-67.85
-92.43
-119.44
-145.23
-165.86
-178.55
-182.08
-177.00
-165.57
-150.67
-134.97
-120.23
-107.12
-95.45
-84.84
-75.34
-66.99
-59.53
-52.18
-44.15
-35.96
-30.34
-31.97
-42.01
-61.33
-88.71
-121.57
-156.79
-190.27
-216.35
-228.23
-219.98
-189.80
-142.83
-89.47
-41.79
-8.40
8.80
14.45
16.45
21.58
33.67
51.97
73.29
94.06
111.68
124.87
133.49
138.31
141.26
144.35
148.55
154.10
160.30
166.09
170.69
174.16
174.37
170.49
161.39
145.17
120.59
88.58
53.17
20.13
-4.95
-17.97
-17.02
-3.29
19.19
44.93
67.86
82.42
84.43
73.24
54.51
39.63
40.86
64.95
109.87
164.78
214.65
245.56
245.50
211.95
155.05
92.84
40.58
4.42
-21.35
-43.96
-66.34
-86.96
-101.84
-108.51
-105.49
-97.72
-92.57
-95.72
-107.60
-123.65
-136.68
-139.77
-129.98
-110.31
-88.94
-75.13
-75.89
-93.73
-127.32
-172.36
-221.83
-266.60
-296.36
-302.02
-278.54
-228.41
-162.20
-96.38
-47.29
-25.34
-32.40
-63.03
-108.83
-162.72
-221.04
-281.83
-341.57
-392.12
-422.57
-423.73
-392.26
-331.85
-251.59
-161.77
-69.93
20.73
111.25
202.89
291.63
365.46
412.10
427.98
420.95
404.71
389.88
380.79
374.59
364.54
345.03
315.01
278.10
239.53
207.52
182.63
165.68
157.50
157.88
164.80
174.74
183.44
185.63
176.53
153.92
120.56
81.93
43.55
7.29
-25.79
-55.66
-83.70
-113.47
-148.48
-189.10
-232.42
-273.00
-304.19
-326.53
-337.22
-335.38
-323.79
-306.82
-287.51
-266.42
-241.56
-205.76
-155.63
-91.62
-18.28
50.21
97.97
116.69
110.07
90.69
72.00
61.51
61.09
68.34
79.46
92.35
106.55
121.96
138.28
154.62
169.27
180.26
186.64
184.41
172.49
153.98
134.93
121.31
115.34
113.73
110.26
97.26
72.90
41.16
9.85
-15.37
-31.80
-40.36
-44.36
-46.70
-48.71
-50.46
-51.33
-50.93
-49.85
-49.29
-49.27
-50.72
-54.25
-59.87
-67.17
-75.01
-81.66
-85.61
-85.91
-82.73
-77.40
-71.52
-66.37
-63.24
-62.70
-64.57
-68.35
-72.87
-76.75
-78.63
-77.41
-72.80
-66.36
-60.06
-55.30
-52.32
-50.02
-46.61
-40.72
-31.80
-16.75
5.01
32.88
65.52
101.16
137.30
170.20
195.25
208.80
212.23
206.23
192.69
174.22
153.28
131.74
111.01
92.23
76.02
62.37
49.62
35.45
17.64
-5.07
-32.58
-63.51
-95.68
-126.56
-153.58
-174.87
-188.72
-193.97
-190.62
-180.20
-165.40
-149.22
-134.01
-121.10
-111.25
-104.44
-100.14
-97.42
-95.28
-93.19
-91.50
-91.32
-93.75
-98.98
-105.12
-108.51
-104.93
-91.40
-67.02
-33.08
7.83
52.38
96.74
136.64
167.84
187.40
194.64
191.70
182.77
172.37
163.61
157.28
152.21
146.74
140.04
132.31
124.17
115.92
107.25
97.58
86.47
73.94
59.76
45.80
35.73
33.29
39.99
54.07
71.11
85.99
94.98
97.10
93.45
86.05
76.57
65.41
51.65
33.78
12.27
-11.13
-33.25
-50.45
-60.06
-61.68
-57.43
-50.91
-45.58
-43.18
-43.54
-44.96
-45.46
-43.98
-40.94
-37.67
-35.38
-34.39
-34.02
-33.43
-32.25
-30.76
-29.69
-29.63
-30.52
-31.56
-31.57
-29.50
-25.00
-18.28
-9.86
-0.35
9.66
19.60
28.86
37.07
44.08
49.97
54.84
58.60
60.85
61.04
58.86
54.47
48.62
42.30
36.36
31.30
27.28
24.39
22.86
22.87
24.22
25.98
26.56
24.34
18.50
9.44
-1.38
-12.05
-21.25
-28.61
-34.64
-40.19
-45.71
-50.99
-55.24
-57.56
-57.41
-54.97
-51.15
-47.40
-45.26
-45.77
-49.05
-54.21
-59.60
-63.54
-65.06
-64.26
-62.19
-60.13
-58.90
-58.48
-58.09
-56.71
-53.76
-49.36
-44.31
-39.59
-35.96
-33.65
-32.43
-31.90
-31.71
-31.71
-31.81
-31.90
-31.73
-31.09
-29.84
-28.14
-26.38
-25.08
-24.67
-25.32
-26.88
-29.00
-31.20
-33.10
-34.51
-35.39
-35.97
-36.45
-37.02
-37.74
-38.52
-39.21
-39.48
-39.01
-37.43
-34.61
-30.71
-26.29
-22.19
-19.17
-17.66
-17.55
-18.34
-19.51
-20.79
-22.41
-24.96
-29.10
-35.14
-42.80
-50.99
-57.90
-61.41
-59.41
-50.51
-34.39
-12.07
14.28
41.76
67.54
89.46
106.41
118.29
125.62
129.08
129.04
125.62
118.81
108.84
96.44
82.75
69.22
57.18
47.64
41.17
38.09
38.43
42.05
48.49
56.87
65.96
74.25
80.28
83.04
82.32
78.93
74.55
71.33
71.18
75.21
83.36
94.40
106.45
117.44
125.69
130.17
130.63
127.45
121.36
113.08
102.88
90.31
74.20
53.23
26.72
-4.54
-38.16
-70.73
-98.89
-120.54
-135.29
-144.28
-149.27
-151.88
-153.06
-153.22
-152.55
-151.41
-150.29
-149.51
-148.98
-148.05
-145.78
-141.35
-134.51
-125.67
-115.71
-105.68
-96.37
-88.14
-80.84
-74.01
-67.05
-59.58
-51.50
-43.08
-34.85
-27.41
-21.22
-16.39
-12.58
-9.23
-5.81
-2.18
1.32
4.08
5.50
5.40
4.17
2.50
0.94
-0.38
-1.87
-4.16
-7.65
-12.32
-17.68
-23.16
-28.55
-34.04
-40.19
-47.55
-56.37
-66.52
-77.46
-88.41
-98.39
-106.29
-111.05
-111.96
-109.17
-103.86
-97.99
-93.39
-90.93
-89.79
-87.80
-82.30
-71.28
-54.16
-31.76
-5.78
21.93
49.62
75.74
98.83
117.69
131.89
142.08
149.91
157.28
165.51
174.77
184.22
192.62
198.87
202.29
202.40
198.64
190.32
176.95
158.65
136.46
112.27
88.25
66.38
47.79
32.73
20.71
10.93
2.68
-4.39
-10.29
-14.96
-18.39
-20.77
-22.41
-23.52
-24.22
-24.65
-25.14
-26.23
-28.42
-31.70
-35.23
-37.33
-36.06
-29.93
-18.47
-2.51
16.11
35.25
53.26
69.52
84.28
97.96
110.27
119.68
123.53
119.00
103.93
77.72
41.63
-1.29
-46.27
-87.24
-117.48
-131.08
-124.76
-99.50
-60.75
-16.92
23.58
55.17
76.60
90.35
100.35
109.54
118.40
125.27
128.04
126.29
122.30
120.42
124.86
137.41
156.04
175.63
190.23
195.72
191.41
179.92
165.18
150.24
135.86
120.79
103.18
82.31
59.13
35.95
14.93
-3.13
-19.27
-35.96
-56.04
-81.74
-113.79
-151.11
-190.84
-228.86
-260.63
-282.43
-292.34
-290.81
-280.41
-264.74
-247.11
-229.43
-212.10
-194.55
-176.22
-157.20
-138.38
-121.00
-105.98
-93.59
-83.45
-75.00
-67.84
-62.02
-57.90
-55.75
-55.45
-56.15
-56.60
-55.59
-52.55
-47.86
-42.69
-38.38
-35.78
-34.75
-34.34
-33.44
-31.38
-28.29
-24.99
-22.41
-21.10
-20.98
-21.65
-22.68
-24.04
-25.96
-28.69
-32.23
-36.24
-40.33
-44.36
-48.59
-53.55
-59.64
-66.70
-73.92
-80.11
-84.17
-85.51
-84.23
-80.84
-75.86
-69.53
-61.75
-52.42
-41.74
-30.45
-19.64
-10.50
-3.77
0.48
2.77
3.99
5.07
6.51
8.46
10.60
12.36
13.25
13.07
12.01
10.68
9.87
10.14
11.68
14.14
16.75
18.76
19.65
19.45
18.74
18.48
19.65
22.93
28.44
35.78
44.12
52.59
60.49
67.46
73.26
77.75
80.68
81.78
80.89
78.16
74.02
69.15
64.26
59.94
56.45
53.79
51.72
49.90
48.07
46.06
43.89
41.64
39.38
37.15
34.80
32.14
28.95
25.14
20.78
16.07
11.31
6.76
2.56
-1.41
-5.34
-9.49
-13.93
-18.44
-22.50
-25.41
-26.55
-25.55
-22.42
-17.53
-11.49
-4.99
1.33
7.02
11.83
15.69
18.60
20.52
21.45
21.41
20.55
19.17
17.68
16.43
15.59
15.11
14.77
14.35
13.85
13.45
13.40
13.81
14.55
15.24
15.56
15.33
14.61
13.63
12.59
11.55
10.34
8.74
6.64
4.16
1.53
-1.00
-3.30
-5.46
-7.61
-9.91
-12.48
-15.40
-18.66
-22.04
-25.05
-27.03
-27.25
-25.27
-21.15
-15.42
-8.90
-2.40
3.57
8.83
13.38
17.28
20.40
22.65
23.95
24.38
24.13
23.42
22.52
21.53
20.56
19.57
18.53
17.40
16.28
15.37
14.94
15.20
16.05
17.02
17.42
16.70
14.64
11.53
8.00
4.64
1.81
-0.52
-2.59
-4.69
-6.92
-9.26
-11.65
-14.12
-16.86
-19.94
-23.22
-26.14
-27.96
-27.92
-25.66
-21.35
-15.64
-9.44
-3.56
1.52
5.77
9.37
12.55
15.32
17.50
18.90
19.39
19.16
18.51
17.84
17.44
17.44
17.78
18.24
18.62
18.69
18.35
17.55
16.37
14.91
13.33
11.76
10.27
8.82
7.30
5.51
3.31
0.65
-2.48
-5.91
-9.35
-12.46
-14.82
-16.19
-16.47
-15.94
-15.15
-14.83
-15.70
-18.13
-21.97
-26.46
-30.39
-32.54
-32.01
-28.61
-22.80
-15.57
-8.04
-1.28
3.92
7.08
8.02
6.95
4.43
1.42
-1.01
-1.96
-1.16
1.06
3.96
6.78
9.12
10.96
12.52
14.00
15.50
17.18
19.31
22.31
26.54
32.02
38.22
44.24
49.07
52.04
52.93
52.05
49.91
46.96
43.42
39.26
34.33
28.54
22.05
15.28
8.86
3.37
-0.94
-4.30
-7.37
-10.88
-15.24
-20.23
-25.08
-28.82
-30.79
-30.97
-29.87
-28.20
-26.43
-24.53
-22.12
-18.80
-14.39
-9.13
-3.55
1.70
6.08
9.23
11.01
11.44
10.80
9.54
8.15
7.02
6.33
5.92
5.53
4.94
4.12
3.22
2.54
2.24
2.22
2.24
1.96
1.29
0.46
-0.04
0.33
1.71
3.71
5.41
5.84
4.36
1.06
-3.36
-7.92
-11.79
-14.67
-16.77
-18.56
-20.42
-22.54
-24.87
-27.27
-29.58
-31.59
-33.02
-33.42
-32.33
-29.41
-24.74
-18.80
-12.32
-6.09
-0.63
3.89
7.63
10.89
14.00
17.09
20.07
22.67
24.48
25.23
24.86
23.71
22.29
21.08
20.37
20.16
20.25
20.43
20.68
21.12
21.86
22.81
23.63
23.73
22.57
19.81
15.52
10.22
4.63
-0.47
-4.49
-7.23
-8.87
-9.84
-10.67
-11.71
-13.01
-14.46
-15.79
-16.81
-17.41
-17.72
-17.93
-18.34
-19.22
-20.60
-22.32
-23.92
-24.81
-24.53
-22.80
-19.71
-15.58
-10.81
-5.84
-1.01
3.44
7.29
10.41
12.78
14.45
15.59
16.31
16.77
17.02
17.12
17.07
16.93
16.83
16.95
17.55
18.69
20.31
22.07
23.56
24.44
24.63
24.37
24.01
23.88
24.04
24.32
24.43
24.14
23.31
21.92
19.92
17.17
13.60
9.22
4.23
-1.01
-6.13
-10.82
-14.88
-18.22
-20.81
-22.61
-23.56
-23.67
-23.09
-22.18
-21.55
-21.92
-23.81
-27.25
-31.60
-35.71
-38.25
-38.32
-35.83
-31.48
-26.39
-21.57
-17.56
-14.31
-11.48
-8.82
-6.30
-4.15
-2.63
-1.76
-1.25
-0.69
0.31
1.83
3.68
5.47
6.86
7.69
7.98
7.99
7.98
8.11
8.37
8.50
8.22
7.25
5.61
3.48
1.25
-0.73
-2.27
-3.44
-4.41
-5.28
-6.06
-6.60
-6.80
-6.83
-7.12
-8.17
-10.40
-13.77
-17.87
-22.00
-25.32
-27.21
-27.16
-25.02
-20.92
-15.24
-8.57
-1.63
4.88
10.34
14.30
16.60
17.34
16.94
15.98
14.95
14.18
13.68
13.29
12.84
12.28
11.74
11.39
11.36
11.58
11.93
12.33
12.73
13.07
13.19
12.86
11.90
10.40
8.65
7.11
6.09
5.52
5.06
4.26
2.84
0.79
-1.67
-4.25
-6.70
-8.94
-10.99
-12.93
-14.79
-16.70
-18.78
-21.07
-23.61
-26.22
-28.59
-30.28
-30.80
-29.66
-26.56
-21.49
-14.89
-7.64
-0.87
4.41
7.74
9.31
9.91
10.42
11.43
12.94
14.36
15.00
14.37
12.53
10.01
7.58
5.94
5.43
6.00
7.25
8.68
9.88
10.62
10.90
10.81
10.43
9.76
8.78
7.50
6.08
4.77
3.82
3.33
3.11
2.76
1.85
0.18
-2.14
-4.70
-7.02
-8.72
-9.70
-10.20
-10.62
-11.41
-12.91
-15.24
-18.22
-21.45
-24.29
-26.08
-26.22
-24.32
-20.41
-14.95
-8.76
-2.75
2.34
6.18
8.93
10.96
12.63
14.02
14.97
15.24
14.71
13.46
11.81
10.04
8.39
6.96
5.80
5.02
4.73
5.04
5.80
6.82
7.84
8.68
9.25
9.58
9.67
9.44
8.85
7.82
6.31
4.38
2.08
-0.46
-3.10
-5.72
-8.14
-10.19
-11.79
-12.98
-14.01
-15.26
-17.09
-19.69
-22.82
-25.92
-28.19
-28.93
-27.86
-25.17
-21.41
-17.13
-12.65
-8.03
-3.21
1.74
6.47
10.47
13.30
14.71
14.92
14.33
13.47
12.69
12.19
11.91
11.70
11.42
10.96
10.39
9.90
9.72
10.06
10.93
12.18
13.45
14.45
14.91
14.70
13.82
12.29
10.27
7.95
5.63
3.58
1.95
0.70
-0.39
-1.60
-3.10
-4.94
-6.98
-9.06
-11.05
-12.90
-14.61
-16.16
-17.54
-18.80
-20.03
-21.34
-22.62
-23.50
-23.41
-21.84
-18.56
-13.86
-8.44
-3.09
1.55
5.25
8.10
10.33
12.11
13.50
14.48
15.12
15.58
15.95
16.21
16.14
15.52
14.31
12.78
11.45
10.86
11.22
12.25
13.39
13.94
13.54
12.33
10.71
9.19
7.97
6.94
5.80
4.31
2.55
0.81
-0.53
-1.34
-1.90
-2.68
-4.11
-6.26
-8.76
-10.96
-12.44
-13.18
-13.60
-14.36
-15.96
-18.52
-21.69
-24.99
-27.87
-29.95
-30.93
-30.54
-28.55
-24.84
-19.63
-13.40
-6.90
-0.82
4.39
8.64
12.02
14.62
16.50
17.60
17.93
17.63
16.94
16.14
15.35
14.61
13.85
13.16
12.65
12.50
12.80
13.54
14.54
15.56
16.30
16.63
16.57
16.22
15.73
15.19
14.49
13.44
11.88
9.79
7.47
5.30
3.62
2.44
1.47
0.21
-1.72
-4.25
-7.01
-9.46
-11.25
-12.44
-13.44
-14.74
-16.67
-19.18
-21.90
-24.31
-25.94
-26.50
-25.86
-24.07
-21.26
-17.66
-13.48
-8.98
-4.37
0.20
4.56
8.54
11.92
14.53
16.28
17.16
17.29
16.78
15.77
14.41
12.94
11.67
10.88
10.71
11.06
11.64
12.15
12.47
12.72
13.11
13.73
14.33
14.47
13.68
11.81
9.11
6.19
3.58
1.63
0.24
-0.88
-2.03
-3.37
-4.79
-6.16
-7.37
-8.48
-9.60
-10.78
-12.04
-13.35
-14.75
-16.37
-18.32
-20.52
-22.66
-24.17
-24.36
-22.73
-19.14
-13.95
-7.89
-1.89
3.26
7.18
9.96
11.99
13.62
14.95
15.74
15.72
14.72
12.99
10.99
9.29
8.25
7.89
7.98
8.16
8.21
8.05
7.81
7.70
7.91
8.49
9.24
9.76
9.60
8.52
6.52
3.95
1.25
-1.23
-3.30
-5.08
-6.67
-8.17
-9.62
-10.99
-12.28
-13.60
-15.07
-16.85
-19.04
-21.48
-23.84
-25.55
-26.04
-24.85
-21.89
-17.45
-12.17
-6.82
-2.07
1.74
4.54
6.58
8.10
9.29
10.17
10.67
10.72
10.43
9.99
9.56
9.27
9.05
8.73
8.26
7.75
7.46
7.70
8.53
9.70
10.77
11.26
10.96
9.96
8.58
7.16
5.91
4.81
3.73
2.61
1.51
0.57
-0.15
-0.81
-1.81
-3.54
-6.16
-9.42
-12.77
-15.63
-17.67
-19.00
-20.05
-21.28
-22.84
-24.50
-25.68
-25.79
-24.50
-21.79
-17.95
-13.33
-8.30
-3.19
1.75
6.27
10.13
13.27
15.71
17.57
19.01
20.04
20.58
20.51
19.77
18.49
16.93
15.34
13.93
12.79
12.03
11.81
12.27
13.43
15.03
16.57
17.46
17.28
15.99
13.97
11.69
9.60
7.77
6.00
4.08
2.00
0.02
-1.50
-2.33
-2.65
-2.94
-3.76
-5.43
-7.87
-10.64
-13.14
-14.96
-15.96
-16.37
-16.66
-17.34
-18.78
-21.07
-23.89
-26.61
-28.39
-28.53
-26.69
-23.01
-18.04
-12.55
-7.18
-2.34
1.84
5.43
8.45
10.90
12.72
13.96
14.78
15.40
15.97
16.41
16.46
15.84
14.45
12.53
10.63
9.35
9.06
9.73
10.95
12.16
12.98
13.19
12.83
11.87
10.33
8.16
5.54
2.80
0.42
-1.23
-2.12
-2.59
-3.11
-4.10
-5.57
-7.22
-8.61
-9.50
-9.93
-10.36
-11.26
-13.01
-15.57
-18.56
-21.39
-23.38
-24.03
-23.02
-20.37
-16.38
-11.52
-6.36
-1.39
3.09
6.97
10.16
12.59
14.08
14.58
14.18
13.29
12.45
12.23
12.85
14.09
15.34
15.92
15.43
13.95
11.99
10.25
9.27
9.25
9.98
10.95
11.59
11.52
10.61
9.02
7.11
5.19
3.49
2.11
1.02
0.14
-0.68
-1.60
-2.77
-4.27
-6.13
-8.32
-10.73
-13.21
-15.62
-17.82
-19.75
-21.40
-22.83
-24.12
-25.31
-26.31
-26.78
-26.28
-24.33
-20.79
-15.92
-10.32
-4.79
0.05
3.98
7.16
9.95
12.61
15.06
16.98
18.00
17.97
17.17
16.11
15.37
15.23
15.61
16.11
16.32
16.07
15.49
14.93
14.66
14.73
14.85
14.70
13.96
12.54
10.64
8.50
6.40
4.51
2.85
1.46
0.32
-0.61
-1.43
-2.31
-3.43
-4.86
-6.58
-8.41
-10.08
-11.44
-12.53
-13.72
-15.53
-18.43
-22.44
-27.06
-31.30
-34.06
-34.51
-32.38
-28.10
-22.49
-16.53
-10.94
-6.02
-1.78
1.94
5.26
8.22
10.72
12.63
13.82
14.35
14.40
14.29
14.35
14.70
15.27
15.76
15.95
15.76
15.32
14.92
14.75
14.85
15.03
15.05
14.76
14.14
13.34
12.49
11.65
10.73
9.65
8.35
6.84
5.17
3.41
1.66
0.04
-1.35
-2.49
-3.49
-4.55
-5.88
-7.57
-9.48
-11.37
-13.09
-14.70
-16.51
-18.84
-21.79
-25.05
-27.96
-29.73
-29.82
-28.15
-25.08
-21.28
-17.31
-13.50
-9.89
-6.32
-2.71
0.87
4.17
6.93
8.93
10.18
10.78
10.96
10.82
10.39
9.67
8.72
7.78
7.15
7.11
7.83
9.28
11.14
12.97
14.34
14.93
14.72
13.93
12.87
11.79
10.76
9.60
8.11
6.16
3.80
1.31
-1.00
-2.93
-4.57
-6.11
-7.82
-9.73
-11.57
-13.04
-13.91
-14.34
-14.82
-15.82
-17.47
-19.34
-20.49
-19.99
-17.38
-12.93
-7.57
-2.47
1.51
4.20
5.99
7.52
9.31
11.42
13.53
15.09
15.74
15.37
14.20
12.58
10.83
9.16
7.60
6.18
5.00
4.26
4.18
4.80
5.95
7.27
8.35
8.86
8.72
8.01
6.91
5.52
3.88
1.99
-0.07
-2.16
-4.16
-5.94
-7.54
-9.08
-10.70
-12.48
-14.43
-16.58
-18.87
-21.30
-23.68
-25.69
-26.75
-26.33
-24.05
-19.95
-14.48
-8.42
-2.58
2.39
6.19
8.85
10.65
11.94
13.07
14.21
15.41
16.49
17.28
17.58
17.36
16.71
15.84
14.97
14.26
13.87
13.83
14.21
14.93
15.73
16.26
16.01
14.69
12.28
9.16
5.89
3.11
1.20
0.18
-0.30
-0.82
-1.86
-3.69
-6.23
-9.17
-12.05
-14.52
-16.45
-17.95
-19.36
-21.04
-23.26
-25.99
-28.87
-31.17
-32.19
-31.31
-28.34
-23.53
-17.52
-11.11
-4.96
0.56
5.34
9.48
13.09
16.18
18.58
20.13
20.67
20.33
19.46
18.50
17.77
17.29
16.90
16.38
15.66
14.94
14.52
14.56
14.93
15.30
15.34
14.87
14.04
13.14
12.36
11.77
11.22
10.53
9.58
8.35
6.87
5.21
3.43
1.60
-0.22
-2.00
-3.83
-5.81
-8.00
-10.38
-12.81
-15.12
-17.26
-19.36
-21.66
-24.43
-27.68
-31.10
-34.01
-35.54
-35.03
-32.19
-27.27
-20.92
-14.00
-7.29
-1.36
3.52
7.34
10.22
12.40
14.10
15.57
16.94
18.22
19.33
20.06
20.34
20.16
19.70
19.22
18.87
18.73
18.66
18.43
17.82
16.78
15.36
13.83
12.36
10.98
9.54
7.83
5.78
3.53
1.44
-0.14
-1.02
-1.43
-1.79
-2.55
-3.93
-5.74
-7.56
-8.92
-9.63
-9.78
-9.88
-10.51
-12.14
-14.92
-18.64
-22.68
-26.23
-28.52
-28.99
-27.53
-24.46
-20.36
-15.88
-11.37
-6.93
-2.43
2.20
6.87
11.28
14.95
17.55
18.93
19.22
18.70
17.67
16.28
14.68
12.97
11.38
10.25
9.89
10.45
11.72
13.19
14.22
14.41
13.73
12.44
10.95
9.43
7.76
5.65
2.95
-0.20
-3.35
-6.04
-7.99
-9.29
-10.29
-11.35
-12.68
-14.40
-16.59
-19.34
-22.68
-26.44
-30.06
-32.76
-33.70
-32.31
-28.44
-22.51
-15.27
-7.69
-0.65
5.16
9.42
12.23
13.98
15.18
16.15
17.01
17.58
17.68
17.26
16.49
15.75
15.28
15.17
15.24
15.17
14.72
13.84
12.67
11.39
10.17
9.05
8.00
6.94
5.89
4.95
4.20
3.61
2.93
1.81
-0.11
-2.86
-6.09
-9.11
-11.19
-11.95
-11.63
-11.06
-11.27
-12.97
-16.23
-20.37
-24.39
-27.32
-28.64
-28.20
-26.07
-22.40
-17.24
-10.74
-3.27
4.50
11.79
17.89
22.42
25.32
26.72
26.85
25.86
23.94
21.28
18.16
14.88
11.72
8.85
6.36
4.29
2.63
1.46
0.88
0.98
1.72
2.90
4.15
5.02
5.12
4.31
2.73
0.74
-1.31
-3.30
-5.31
-7.54
-10.09
-12.83
-15.52
-17.87
-19.81
-21.52
-23.37
-25.74
-28.82
-32.43
-36.11
-39.16
-40.88
-40.75
-38.52
-34.27
-28.33
-21.24
-13.63
-6.16
0.61
6.28
10.61
13.59
15.36
16.20
16.43
16.41
16.39
16.56
16.99
17.58
18.14
18.52
18.64
18.64
18.79
19.32
20.17
21.07
21.46
20.89
19.21
16.65
13.72
10.93
8.58
6.65
5.01
3.51
2.11
0.87
-0.22
-1.36
-2.89
-5.14
-8.25
-11.95
-15.73
-19.02
-21.36
-22.53
-22.49
-21.26
-18.81
-15.19
-10.59
-5.43
-0.31
4.24
7.90
10.71
12.85
14.59
15.96
16.82
16.97
16.31
15.09
13.71
12.62
12.09
12.06
12.18
12.08
11.49
10.46
9.29
8.34
7.84
7.67
7.47
6.74
5.25
3.04
0.44
-2.08
-4.27
-6.13
-7.88
-9.80
-12.12
-14.89
-18.02
-21.37
-24.66
-27.51
-29.44
-29.95
-28.74
-25.77
-21.30
-15.75
-9.54
-3.09
3.13
8.61
12.78
15.28
16.07
15.63
14.70
13.95
13.75
13.86
13.77
13.00
11.41
9.26
7.19
5.73
5.19
5.45
6.06
6.47
6.27
5.31
3.67
1.58
-0.71
-3.00
-5.12
-6.96
-8.50
-9.86
-11.21
-12.85
-14.97
-17.54
-20.26
-22.54
-23.71
-23.24
-20.89
-16.84
-11.54
-5.64
0.17
5.36
9.65
12.98
15.44
17.16
18.18
18.48
17.98
16.74
14.97
13.06
11.44
10.37
9.88
9.78
9.80
9.74
9.54
9.28
8.97
8.54
7.77
6.43
4.42
1.81
-1.19
-4.23
-6.99
-9.26
-11.00
-12.46
-14.03
-16.12
-18.94
-22.34
-25.83
-28.75
-30.51
-30.70
-29.27
-26.28
-21.92
-16.43
-10.16
-3.60
2.69
8.22
12.73
16.14
18.58
20.13
20.91
20.96
20.37
19.35
18.13
16.94
15.94
15.24
14.83
14.70
14.80
15.00
15.13
15.01
14.53
13.64
12.43
10.96
9.29
7.42
5.29
2.86
0.12
-2.81
-5.78
-8.51
-10.84
-12.70
-14.23
-15.65
-17.27
-19.35
-21.97
-25.06
-28.28
-31.13
-32.97
-33.17
-31.35
-27.52
-22.06
-15.61
-8.87
-2.34
3.72
9.19
13.94
17.79
20.58
22.31
23.15
23.49
23.65
23.83
23.97
23.97
23.70
23.20
22.62
22.11
21.72
21.36
20.84
20.04
18.95
17.62
16.24
14.91
13.64
12.32
10.78
8.85
6.53
3.94
1.28
-1.22
-3.52
-5.67
-7.85
-10.24
-12.84
-15.52
-18.07
-20.36
-22.38
-24.33
-26.42
-28.76
-31.11
-32.96
-33.69
-32.72
-29.80
-25.11
-19.18
-12.70
-6.37
-0.59
4.45
8.76
12.40
15.29
17.35
18.44
18.57
17.89
16.70
15.27
13.87
12.64
11.69
11.15
11.11
11.63
12.58
13.64
14.35
14.34
13.38
11.50
8.99
6.29
3.82
1.89
0.56
-0.42
-1.41
-2.78
-4.82
-7.52
-10.71
-14.12
-17.49
-20.59
-23.28
-25.39
-26.75
-27.23
-26.71
-25.07
-22.18
-18.02
-12.64
-6.40
0.17
6.47
11.99
16.47
19.82
22.04
23.09
22.95
21.61
19.30
16.45
13.62
11.29
9.74
9.06
9.14
9.76
10.65
11.51
12.02
12.01
11.42
10.39
9.09
7.72
6.34
4.95
3.44
1.72
-0.35
-2.88
-5.85
-9.14
-12.41
-15.26
-17.34
-18.63
-19.47
-20.46
-22.14
-24.79
-28.23
-31.87
-34.99
-36.82
-36.78
-34.46
-29.73
-22.87
-14.49
-5.55
2.88
9.92
15.11
18.45
20.35
21.39
21.99
22.37
22.43
22.00
20.97
19.43
17.62
15.89
14.49
13.56
13.06
12.82
12.64
12.36
11.94
11.39
10.81
10.33
10.01
9.72
9.18
8.10
6.37
4.14
1.77
-0.42
-2.36
-4.23
-6.34
-8.83
-11.50
-13.98
-15.98
-17.48
-18.86
-20.67
-23.31
-26.82
-30.79
-34.56
-37.44
-38.83
-38.30
-35.62
-30.85
-24.33
-16.71
-8.85
-1.56
4.61
9.50
13.33
16.45
19.16
21.55
23.44
24.58
24.80
24.12
22.80
21.21
19.73
18.67
18.13
18.04
18.13
18.13
17.84
17.32
16.79
16.51
16.59
16.80
16.79
16.13
14.66
12.48
9.97
7.55
5.47
3.69
1.94
-0.07
-2.49
-5.27
-8.13
-10.74
-12.83
-14.34
-15.38
-16.18
-17.02
-18.21
-19.96
-22.45
-25.84
-30.03
-34.68
-39.05
-42.16
-42.99
-40.91
-35.84
-28.34
-19.47
-10.43
-2.28
4.32
9.13
12.27
14.03
14.81
15.03
15.11
15.35
15.85
16.45
16.81
16.57
15.65
14.34
13.15
12.54
12.68
13.28
13.80
13.76
12.96
11.61
10.15
8.97
8.11
7.32
6.16
4.26
1.59
-1.59
-4.83
-7.67
-9.95
-11.66
-13.00
-14.23
-15.62
-17.28
-19.34
-21.79
-24.51
-27.19
-29.32
-30.34
-29.67
-26.94
-22.07
-15.44
-7.81
-0.19
6.45
11.40
14.48
15.98
16.48
16.51
16.32
15.93
15.20
14.04
12.61
11.16
10.01
9.47
9.58
10.20
11.02
11.67
11.84
11.41
10.49
9.26
7.95
6.61
5.12
3.33
1.19
-1.19
-3.58
-5.77
-7.71
-9.48
-11.26
-13.24
-15.54
-18.22
-21.24
-24.50
-27.82
-30.93
-33.44
-34.92
-34.93
-33.11
-29.38
-23.98
-17.43
-10.46
-3.69
2.42
7.66
12.01
15.51
18.18
20.04
21.11
21.50
21.31
20.65
19.62
18.38
17.12
16.06
15.40
15.17
15.23
15.34
15.32
15.18
15.01
14.92
14.78
14.29
13.05
10.93
8.04
4.86
1.84
-0.72
-2.89
-5.00
-7.40
-10.25
-13.42
-16.60
-19.50
-21.98
-24.14
-26.17
-28.23
-30.35
-32.38
-33.94
-34.56
-33.69
-30.92
-26.13
-19.60
-11.97
-4.12
3.26
9.66
14.87
18.94
21.90
23.70
24.28
23.61
21.96
19.84
17.89
16.63
16.25
16.59
17.24
17.84
18.24
18.48
18.74
19.04
19.16
18.69
17.31
14.91
11.78
8.50
5.65
3.62
2.43
1.71
0.94
-0.33
-2.35
-4.93
-7.69
-10.25
-12.40
-14.22
-16.07
-18.33
-21.22
-24.74
-28.56
-32.21
-35.19
-37.01
-37.31
-35.85
-32.58
-27.65
-21.45
-14.52
-7.40
-0.51
5.92
11.74
16.85
21.01
23.95
25.42
25.37
24.03
21.92
19.73
18.02
17.17
17.27
18.25
19.97
22.33
25.24
28.50
31.79
34.69
36.78
37.85
37.91
37.16
35.99
34.80
34.03
34.10
35.20
37.23
39.73
41.99
43.47
44.03
44.16
44.61
46.07
48.75
52.22
55.63
58.30
60.11
61.83
65.09
71.92
84.02
101.91
124.09
146.90
165.06
173.17
167.18
145.61
109.90
63.75
12.27
-39.18
-85.75
-123.68
-150.73
-166.58
-172.69
-171.84
-167.29
-161.65
-156.30
-151.44
-146.69
-141.81
-137.08
-133.21
-130.96
-130.82
-132.81
-136.47
-140.84
-144.42
-145.32
-141.49
-131.29
-114.24
-91.61
-66.46
-43.04
-25.53
-16.63
-16.74
-23.99
-35.01
-46.22
-54.94
-59.95
-61.24
-59.48
-55.50
-50.24
-44.94
-41.24
-40.73
-44.30
-51.55
-60.76
-69.51
-75.83
-79.22
-80.62
-81.63
-82.61
-82.45
-78.93
-69.95
-54.68
-34.19
-11.17
11.06
29.67
44.06
54.70
62.27
66.76
67.82
65.19
59.25
51.11
42.53
36.90
37.00
43.88
56.57
73.08
91.51
110.73
130.33
150.39
172.99
199.48
229.42
260.35
289.01
312.65
329.66
339.47
330.08
294.81
235.58
162.93
89.42
23.46
-31.99
-77.25
-113.85
-143.32
-165.10
-178.79
-185.25
-186.82
-186.22
-185.57
-185.88
-187.18
-188.78
-188.37
-184.10
-175.50
-164.36
-151.99
-139.75
-128.50
-118.68
-110.11
-101.68
-92.57
-82.81
-73.42
-65.69
-60.76
-59.10
-60.50
-63.83
-67.35
-69.58
-69.66
-67.50
-63.33
-57.31
-48.97
-40.01
-30.60
-20.25
-8.35
5.71
22.21
40.98
60.94
80.05
95.59
105.30
107.79
103.28
93.69
81.95
70.98
62.72
57.78
55.74
55.95
57.71
60.45
63.64
66.70
68.99
69.89
69.06
66.49
62.66
58.25
53.87
50.01
46.92
44.58
42.80
41.32
39.89
38.41
36.78
34.86
32.42
29.17
24.84
19.21
12.16
3.78
-5.69
-15.82
-26.11
-36.08
-45.46
-54.36
-63.18
-72.50
-82.73
-93.90
-105.56
-117.05
-127.71
-137.13
-145.13
-151.51
-155.87
-157.55
-155.89
-150.54
-141.76
-130.42
-117.66
-104.50
-91.56
-79.03
-66.95
-55.36
-44.52
-34.71
-26.11
-18.66
-12.07
-6.03
-0.30
5.25
10.93
17.27
25.11
35.25
48.00
62.82
78.39
93.02
105.31
114.64
121.21
125.75
128.94
131.15
132.28
132.15
130.62
127.80
123.85
118.76
112.21
103.73
93.02
80.33
66.61
53.31
41.99
33.80
29.08
27.34
27.44
28.04
28.05
26.92
24.75
22.09
19.72
18.34
18.34
19.69
21.95
24.42
26.41
27.47
27.52
26.82
25.77
24.73
23.93
23.41
23.11
23.00
23.07
23.29
23.57
23.79
23.78
23.46
22.88
22.09
21.15
20.02
18.59
16.74
14.34
11.34
7.65
3.23
-1.91
-7.58
-13.37
-18.66
-22.72
-24.99
-25.17
-23.30
-19.67
-14.73
-8.97
-2.82
3.31
9.08
14.15
18.29
21.38
23.45
24.64
25.19
25.33
25.17
24.76
24.08
23.15
22.04
20.90
19.93
19.19
18.69
18.29
17.80
17.06
16.01
14.72
13.25
11.73
10.19
8.63
6.99
5.21
3.22
0.99
-1.50
-4.35
-7.69
-11.66
-16.26
-21.20
-25.85
-29.36
-30.96
-30.18
-27.06
-22.12
-16.15
-9.94
-4.10
1.11
5.66
9.64
13.23
16.50
19.47
21.98
23.77
24.54
24.10
22.51
20.09
17.36
14.83
12.86
11.52
10.68
10.11
9.62
9.11
8.48
7.62
6.35
4.55
2.22
-0.49
-3.31
-6.01
-8.54
-11.07
-13.88
-17.29
-21.40
-26.01
-30.58
-34.35
-36.58
-36.69
-34.52
-30.35
-24.73
-18.33
-11.79
-5.51
0.29
5.48
10.05
14.00
17.31
19.93
21.85
23.03
23.48
23.29
22.67
21.85
21.04
20.39
19.91
19.54
19.27
19.07
18.90
18.67
18.14
17.01
15.12
12.51
9.48
6.41
3.63
1.17
-1.21
-3.88
-7.24
-11.39
-16.16
-21.09
-25.54
-28.75
-30.04
-28.99
-25.54
-20.10
-13.44
-6.44
0.14
5.91
10.84
15.11
18.95
22.42
25.39
27.63
28.94
29.25
28.71
27.56
26.08
24.46
22.82
21.22
19.76
18.60
17.88
17.63
17.67
17.58
16.93
15.43
13.09
10.15
7.00
3.90
0.92
-2.08
-5.30
-8.96
-13.14
-17.82
-22.82
-27.85
-32.45
-36.08
-38.24
-38.63
-37.17
-34.04
-29.50
-23.87
-17.40
-10.39
-3.16
3.88
10.33
15.87
20.31
23.68
26.09
27.72
28.73
29.26
29.37
29.16
28.74
28.29
27.96
27.90
28.15
28.59
29.02
29.17
28.87
28.05
26.75
25.03
22.88
20.30
17.32
14.12
11.01
8.36
6.42
5.22
4.52
3.97
3.27
2.39
1.60
1.47
2.72
5.92
11.31
18.72
27.63
37.40
47.50
57.61
67.50
76.92
85.45
92.60
97.94
101.08
101.67
99.33
93.71
84.69
72.61
58.51
43.77
29.84
17.65
7.48
-0.88
-7.81
-13.56
-18.25
-22.15
-25.95
-30.67
-37.41
-46.85
-58.92
-72.79
-87.16
-100.62
-112.05
-120.85
-126.98
-130.91
-133.40
-135.30
-137.21
-139.22
-140.81
-140.87
-138.07
-131.15
-119.52
-103.48
-84.28
-63.87
-44.28
-27.08
-12.95
-1.57
8.01
16.94
26.12
35.98
46.51
57.47
68.49
79.10
88.71
96.58
102.03
104.60
104.25
101.30
96.32
89.93
82.65
74.86
66.81
58.65
50.51
42.55
34.95
27.96
21.86
16.89
13.08
10.13
7.48
4.44
0.48
-4.58
-10.52
-16.89
-23.23
-29.29
-35.06
-40.69
-46.32
-51.84
-56.85
-60.66
-62.49
-61.68
-57.88
-51.23
-42.32
-32.08
-21.52
-11.51
-2.55
5.19
11.81
17.55
22.62
27.12
31.00
34.13
36.37
37.69
38.19
38.11
37.73
37.28
36.86
36.43
35.83
34.96
33.76
32.27
30.62
28.86
26.96
24.78
22.12
18.87
15.05
10.87
6.64
2.66
-0.93
-4.24
-7.48
-10.95
-14.78
-18.95
-23.29
-27.66
-32.03
-36.43
-40.87
-45.12
-48.73
-50.97
-51.15
-48.80
-43.87
-36.85
-28.51
-19.76
-11.34
-3.68
3.07
8.89
13.76
17.58
20.23
21.69
22.11
21.82
21.22
20.63
20.21
19.99
19.95
20.02
20.17
20.33
20.37
20.14
19.52
18.43
16.88
14.92
12.59
9.92
6.93
3.69
0.27
-3.29
-7.01
-10.96
-15.24
-19.90
-24.87
-29.92
-34.65
-38.59
-41.22
-42.09
-40.90
-37.56
-32.28
-25.46
-17.70
-9.61
-1.72
5.57
12.00
17.45
21.83
25.10
27.27
28.38
28.58
28.07
27.10
25.89
24.58
23.21
21.78
20.32
18.98
17.91
17.27
16.98
16.78
16.20
14.83
12.49
9.30
5.60
1.78
-1.91
-5.45
-8.99
-12.70
-16.61
-20.63
-24.57
-28.30
-31.86
-35.45
-39.34
-43.68
-48.29
-52.63
-55.86
-57.11
-55.72
-51.53
-44.81
-36.28
-26.89
-17.49
-8.75
-0.99
5.75
11.60
16.65
20.87
24.08
26.10
26.91
26.77
26.10
25.38
24.87
24.56
24.22
23.62
22.64
21.41
20.17
19.13
18.37
17.73
16.93
15.62
13.53
10.53
6.74
2.44
-2.03
-6.33
-10.30
-13.98
-17.58
-21.37
-25.62
-30.41
-35.59
-40.81
-45.51
-48.98
-50.52
-49.56
-45.81
-39.40
-30.91
-21.25
-11.43
-2.37
5.41
11.71
16.69
20.61
23.72
26.16
27.93
28.95
29.15
28.56
27.36
25.86
24.44
23.38
22.83
22.71
22.77
22.74
22.38
21.57
20.33
18.66
16.62
14.25
11.61
8.79
5.90
2.99
0.07
-2.89
-5.96
-9.16
-12.47
-15.88
-19.36
-22.91
-26.63
-30.66
-35.14
-40.07
-45.20
-49.96
-53.55
-55.08
-53.90
-49.81
-43.15
-34.71
-25.45
-16.26
-7.71
-0.12
6.47
12.05
16.62
20.13
22.56
23.98
24.56
24.58
24.29
23.87
23.40
22.82
22.09
21.20
20.23
19.34
18.67
18.22
17.86
17.31
16.28
14.55
12.05
8.88
5.22
1.28
-2.78
-6.77
-10.59
-14.16
-17.49
-20.69
-23.93
-27.44
-31.33
-35.59
-39.95
-43.94
-46.87
-48.05
-46.93
-43.28
-37.30
-29.61
-21.03
-12.39
-4.37
2.61
8.38
12.87
16.12
18.19
19.23
19.42
19.07
18.44
17.73
17.02
16.29
15.49
14.59
13.67
12.89
12.36
12.08
11.90
11.50
10.51
8.67
5.95
2.56
-1.10
-4.66
-7.88
-10.80
-13.62
-16.64
-20.05
-23.93
-28.18
-32.56
-36.73
-40.28
-42.70
-43.48
-42.17
-38.55
-32.73
-25.16
-16.52
-7.63
0.78
8.19
14.30
19.04
22.55
24.98
26.48
27.11
26.94
26.04
24.63
23.04
21.62
20.65
20.22
20.18
20.25
20.10
19.53
18.47
17.00
15.32
13.57
11.81
9.98
7.91
5.42
2.39
-1.14
-4.96
-8.80
-12.43
-15.73
-18.84
-22.02
-25.56
-29.61
-34.12
-38.76
-42.89
-45.77
-46.70
-45.16
-40.99
-34.39
-25.90
-16.27
-6.31
3.50
12.84
21.62
29.77
37.15
43.47
48.36
51.59
53.13
53.66
54.08
55.30
57.79
61.50
65.82
69.89
73.18
75.58
77.94
81.20
85.86
91.39
96.57
99.91
100.34
98.09
94.23
90.71
88.65
87.91
87.18
85.27
81.96
77.96
74.22
65.13
45.08
9.72
-40.69
-100.41
-159.97
-210.13
-247.75
-272.16
-283.47
-281.07
-264.28
-231.00
-182.13
-121.77
-56.85
3.93
51.01
77.51
82.27
69.80
47.85
23.59
1.46
-17.14
-32.17
-44.62
-53.90
-58.03
-55.44
-46.12
-32.18
-16.69
-2.38
9.32
18.38
25.93
33.31
41.27
49.97
59.19
68.66
77.79
85.22
88.90
87.05
79.09
66.19
51.02
36.51
24.75
16.44
11.31
9.04
10.00
14.78
23.37
34.59
46.30
56.43
63.87
68.67
71.37
72.32
71.33
68.09
63.05
57.86
54.91
56.15
61.95
70.81
80.07
87.21
90.94
91.60
90.57
89.32
88.56
87.91
86.16
81.90
74.24
63.06
48.90
32.57
14.77
-3.81
-22.08
-38.38
-50.44
-56.30
-55.50
-49.87
-42.95
-38.27
-37.47
-39.46
-41.42
-40.55
-35.95
-29.04
-22.62
-19.05
-18.94
-21.03
-23.41
-25.38
-27.91
-33.31
-44.16
-62.07
-86.90
-116.61
-147.68
-175.94
-198.55
-213.40
-219.30
-215.95
-204.24
-186.23
-164.90
-143.48
-124.86
-113.21
-110.99
-118.36
-133.22
-152.36
-172.62
-191.20
-205.56
-213.49
-216.96
-218.06
-218.31
-217.99
-217.02
-216.07
-216.77
-221.19
-231.11
-251.77
-285.26
-329.35
-377.27
-420.81
-453.83
-473.82
-481.42
-451.56
-373.49
-253.46
-113.85
20.30
132.97
219.02
279.89
319.00
339.56
338.58
317.21
279.73
234.73
192.62
161.91
146.94
147.61
160.45
177.13
191.61
199.81
201.63
199.51
195.96
192.31
188.62
184.47
177.51
166.90
153.42
139.65
128.25
120.38
115.49
111.94
107.99
101.25
90.18
73.84
52.40
27.03
-0.32
-26.95
-49.88
-66.57
-76.07
-78.81
-76.17
-69.38
-59.13
-45.66
-29.31
-11.00
7.62
24.57
38.23
47.79
53.38
55.72
55.44
52.82
47.75
40.09
29.93
17.90
5.03
-7.49
-18.55
-27.41
-33.67
-37.30
-38.52
-37.76
-35.58
-32.56
-29.22
-25.89
-22.71
-19.67
-16.83
-14.36
-12.56
-11.63
-11.54
-11.96
-12.43
-12.62
-12.55
-12.59
-13.27
-14.96
-17.67
-21.00
-24.32
-26.97
-28.52
-28.65
-27.15
-23.82
-18.49
-11.18
-2.19
7.87
18.20
28.07
36.97
44.66
51.12
56.39
60.56
63.68
65.83
67.08
67.51
67.16
66.10
64.40
62.23
59.86
57.54
55.47
53.72
52.24
50.92
49.59
48.07
46.15
43.60
40.28
36.19
31.51
26.60
21.76
17.16
12.79
8.42
3.74
-1.50
-7.46
-14.07
-21.04
-27.80
-33.53
-37.33
-38.42
-36.42
-31.35
-23.77
-14.57
-4.79
4.69
13.30
20.76
27.01
32.06
36.08
39.22
41.61
43.38
44.62
45.37
45.67
45.55
45.04
44.53
44.40
44.94
46.17
47.85
49.59
50.92
51.48
51.07
50.37
50.14
50.84
52.39
54.19
55.55
55.97
55.37
53.96
53.54
55.57
60.53
67.55
74.86
80.80
84.51
86.09
86.18
87.78
93.28
103.56
117.69
133.58
149.37
164.21
178.21
191.92
208.81
231.65
261.34
296.13
332.07
364.50
389.52
404.68
391.23
338.73
247.90
132.66
13.85
-90.98
-173.25
-232.59
-272.91
-298.96
-311.80
-311.96
-300.97
-282.38
-261.28
-242.12
-227.29
-216.94
-209.74
-201.66
-189.52
-172.29
-151.62
-131.24
-114.63
-103.57
-97.91
-96.08
-94.65
-90.97
-84.14
-75.41
-68.01
-64.62
-66.32
-72.24
-80.13
-86.75
-89.64
-88.04
-83.02
-77.70
-74.93
-76.89
-84.89
-99.30
-118.74
-140.01
-158.09
-162.52
-148.67
-117.19
-74.29
-29.60
7.49
31.50
42.19
43.55
40.91
37.44
34.29
31.02
26.94
22.12
17.36
13.25
9.63
5.63
-0.24
-8.60
-18.76
-29.22
-38.80
-45.87
-49.46
-49.39
-45.96
-40.18
-33.05
-25.47
-18.18
-11.69
-6.25
-2.03
0.80
2.23
2.08
0.45
-2.34
-5.78
-9.29
-12.45
-15.16
-17.64
-20.14
-22.90
-25.86
-28.60
-30.41
-30.51
-28.29
-23.48
-16.75
-8.88
-0.62
7.63
15.95
24.75
34.48
45.52
58.06
72.14
87.87
105.17
123.61
142.32
160.20
176.28
189.99
201.00
208.99
213.42
213.73
209.73
202.13
192.51
182.75
174.31
167.72
162.68
158.62
155.08
151.60
147.39
140.95
130.39
114.46
93.60
70.21
47.95
30.07
17.78
9.62
2.08
-8.84
-25.72
-48.58
-74.70
-99.55
-118.17
-126.57
-122.67
-106.82
-81.67
-51.66
-22.23
1.31
14.97
17.14
8.98
-6.12
-23.78
-40.24
-53.46
-63.50
-71.82
-80.06
-88.82
-97.09
-102.63
-102.92
-96.33
-82.80
-63.98
-42.68
-21.84
-3.46
12.24
27.01
44.03
66.46
95.83
130.81
167.22
199.09
220.87
229.29
224.35
208.79
186.46
160.74
133.58
105.73
77.43
48.92
20.58
-7.26
-34.27
-59.89
-82.97
-101.84
-114.90
-121.19
-120.57
-113.23
-99.11
-77.88
-49.66
-16.18
18.83
50.38
74.06
87.90
93.11
93.30
92.54
93.56
96.97
101.63
105.74
107.91
107.63
105.26
101.67
97.84
94.52
91.96
89.83
87.37
83.71
78.22
70.78
61.66
51.34
40.07
27.82
14.20
-1.23
-19.07
-39.37
-61.57
-84.77
-108.33
-131.94
-155.40
-178.07
-198.52
-215.24
-226.77
-232.43
-232.70
-229.03
-223.13
-216.06
-207.85
-198.04
-187.57
-178.34
-172.82
-173.16
-180.24
-193.08
-209.03
-224.58
-236.83
-246.95
-256.82
-267.62
-279.10
-290.26
-300.27
-308.80
-315.92
-321.99
-332.34
-349.87
-373.09
-396.94
-416.24
-428.48
-434.24
-436.10
-437.29
-448.55
-475.78
-517.07
-563.74
-606.06
-637.55
-655.94
-661.96
-657.71
-655.97
-664.62
-683.00
-702.77
-714.95
-714.99
-703.38
-683.97
-594.94
-413.33
-160.99
106.64
338.68
511.56
625.92
693.56
727.62
738.88
724.66
684.22
623.08
553.80
489.02
435.86
398.05
375.35
365.27
356.48
341.36
319.13
296.76
282.24
281.47
295.89
322.97
358.03
391.47
418.13
432.04
436.23
436.60
440.49
453.08
476.41
509.02
543.91
572.35
585.44
578.83
551.77
510.54
464.77
424.42
395.66
378.55
368.55
358.59
345.38
312.92
256.45
181.87
102.93
32.01
-25.63
-67.30
-103.63
-142.40
-186.80
-233.33
-277.11
-313.41
-339.67
-351.76
-346.12
-323.45
-288.04
-247.87
-208.62
-174.80
-142.62
-108.19
-69.17
-26.01
17.25
54.90
79.82
87.67
78.04
55.51
26.92
-0.67
-23.04
-40.40
-54.98
-68.97
-81.65
-90.13
-90.94
-83.28
-69.29
-53.37
-40.46
-33.33
-31.48
-31.44
-28.84
-20.52
-6.45
10.81
27.43
40.03
47.32
50.17
50.82
51.49
53.31
55.91
57.99
58.39
56.73
53.77
50.98
49.79
50.88
53.77
57.00
58.80
57.70
53.00
44.84
34.08
22.11
10.57
1.04
-5.50
-9.18
-11.43
-14.63
-21.17
-32.12
-46.55
-61.64
-73.88
-80.85
-82.58
-81.77
-82.90
-90.54
-107.66
-134.78
-169.84
-208.81
-246.55
-277.87
-298.40
-305.46
-298.77
-280.45
-254.38
-225.16
-196.69
-171.04
-148.03
-126.07
-103.96
-82.35
-64.19
-53.57
-53.28
-62.64
-77.13
-89.95
-95.03
-89.88
-76.18
-57.97
-38.60
-18.51
4.47
32.34
63.83
93.08
111.48
111.91
92.84
59.89
24.03
-2.75
-12.07
-1.83
24.02
58.09
92.86
122.94
145.70
160.67
168.17
168.49
161.75
148.19
128.63
104.91
79.59
55.40
34.64
18.50
7.05
-0.42
-4.60
-5.59
-2.78
4.67
17.14
33.91
52.94
71.17
85.23
92.39
91.20
81.96
66.60
48.26
30.37
15.69
5.51
-0.46
-3.65
-5.67
-7.53
-9.43
-10.90
-11.43
-10.92
-9.86
-9.08
-9.24
-10.43
-12.20
-13.83
-14.78
-14.91
-14.60
-14.51
-15.23
-16.94
-19.01
-20.40
-20.10
-17.80
-13.90
-9.45
-5.55
-2.72
-0.57
2.45
8.18
17.74
30.92
46.19
61.28
74.05
83.31
89.27
94.33
101.33
111.97
125.94
141.15
154.86
164.73
169.59
169.32
166.34
162.59
158.21
151.57
140.92
126.26
109.39
92.68
77.49
66.83
62.57
65.10
73.63
87.00
103.96
122.23
138.09
147.58
152.94
159.73
174.34
200.82
239.37
286.76
337.27
384.44
397.74
358.48
268.26
149.68
30.65
-71.53
-152.93
-216.93
-267.81
-307.52
-331.69
-336.14
-321.21
-293.08
-261.44
-235.10
-219.60
-216.11
-222.96
-233.50
-240.17
-236.76
-220.09
-190.90
-153.46
-114.66
-82.29
-62.55
-55.62
-57.06
-62.24
-65.72
-64.32
-58.31
-50.47
-43.48
-38.21
-32.42
-23.19
-9.54
6.76
21.72
31.26
33.12
27.58
17.02
4.15
-8.32
-19.02
-27.91
-36.52
-46.83
-60.26
-77.04
-97.16
-120.11
-144.95
-170.30
-193.97
-213.35
-226.10
-231.32
-226.22
-212.34
-193.64
-174.31
-157.03
-141.85
-126.95
-110.10
-90.00
-66.82
-42.29
-17.94
5.70
28.81
51.59
73.40
92.72
107.67
116.78
119.28
115.95
108.83
100.61
93.93
90.66
91.41
95.34
100.22
102.80
100.12
90.56
74.46
53.95
32.04
11.44
-6.39
-21.37
-34.34
-45.91
-55.63
-62.07
-63.45
-58.65
-47.76
-32.01
-13.08
7.62
29.39
52.04
75.21
97.79
117.73
132.69
140.99
142.46
138.55
131.67
124.19
117.48
111.71
106.10
99.64
91.58
81.64
69.89
56.60
42.00
26.43
10.32
-5.76
-21.17
-35.34
-47.90
-58.74
-68.02
-76.16
-83.75
-91.31
-99.09
-106.81
-113.60
-118.37
-120.16
-118.62
-114.07
-107.29
-99.14
-90.24
-80.85
-71.01
-60.66
-49.73
-38.10
-25.67
-12.31
1.97
16.85
31.74
45.92
58.72
69.74
78.80
85.89
91.06
94.44
96.18
96.55
95.94
94.75
93.25
91.51
89.40
86.67
83.21
79.08
74.58
70.10
66.01
62.51
59.57
57.03
54.66
52.28
49.74
46.95
43.81
40.28
36.36
32.14
27.80
23.47
19.14
14.63
9.59
3.61
-3.52
-11.58
-19.89
-27.39
-32.96
-35.74
-35.40
-32.21
-26.93
-20.49
-13.76
-7.43
-1.97
2.32
5.21
6.54
6.29
4.62
1.95
-1.11
-3.96
-6.17
-7.60
-8.38
-8.74
-8.80
-8.46
-7.55
-6.01
-4.10
-2.42
-1.68
-2.33
-4.40
-7.41
-10.72
-13.76
-16.34
-18.64
-21.05
-23.97
-27.63
-32.12
-37.39
-43.21
-49.16
-54.55
-58.46
-59.94
-58.21
-52.97
-44.55
-33.77
-21.88
-10.16
0.30
8.86
15.31
19.80
22.68
24.30
24.93
24.78
24.06
23.00
21.81
20.71
19.76
19.01
18.43
18.01
17.76
17.73
17.90
18.08
17.91
16.98
14.96
11.72
7.47
2.61
-2.32
-6.88
-10.86
-14.32
-17.59
-21.10
-25.26
-30.28
-36.04
-42.02
-47.31
-50.82
-51.50
-48.72
-42.47
-33.47
-22.87
-11.98
-1.84
7.00
14.47
20.79
26.15
30.53
33.72
35.44
35.63
34.55
32.79
30.98
29.61
28.73
28.08
27.26
26.01
24.41
22.82
21.62
20.97
20.64
20.09
18.75
16.30
12.78
8.58
4.19
-0.00
-3.90
-7.59
-11.37
-15.50
-20.10
-25.19
-30.66
-36.35
-42.07
-47.50
-52.16
-55.34
-56.26
-54.21
-48.92
-40.65
-30.23
-18.85
-7.68
2.34
10.77
17.59
23.02
27.34
30.71
33.11
34.49
34.84
34.34
33.31
32.14
31.16
30.48
30.06
29.75
29.46
29.14
28.85
28.59
28.28
27.66
26.48
24.51
21.70
18.17
14.15
9.87
5.47
0.97
-3.60
-8.20
-12.70
-16.96
-20.90
-24.61
-28.31
-32.34
-36.93
-42.15
-47.76
-53.16
-57.50
-59.80
-59.27
-55.49
-48.64
-39.43
-28.91
-18.27
-8.41
0.15
7.31
13.22
18.08
22.01
24.92
26.70
27.26
26.78
25.66
24.46
23.65
23.49
23.95
24.78
25.62
26.21
26.41
26.16
25.47
24.31
22.61
20.33
17.53
14.36
10.96
7.44
3.88
0.31
-3.23
-6.74
-10.29
-14.05
-18.27
-23.21
-28.85
-34.91
-40.78
-45.61
-48.56
-48.91
-46.33
-40.84
-32.90
-23.28
-12.95
-2.87
6.19
13.78
19.81
24.44
27.92
30.50
32.32
33.47
34.09
34.37
34.45
34.49
34.54
34.58
34.58
34.52
34.44
34.40
34.45
34.57
34.65
34.47
33.82
32.50
30.44
27.70
24.46
20.98
17.47
14.00
10.58
7.18
3.75
0.25
-3.37
-7.18
-11.21
-15.43
-19.63
-23.53
-26.88
-29.65
-32.16
-34.93
-38.54
-43.20
-48.65
-54.07
-58.33
-60.31
-59.25
-54.92
-47.70
-38.38
-28.05
-17.70
-8.17
0.11
7.06
12.84
17.69
21.74
25.02
27.45
28.98
29.73
29.94
29.94
29.99
30.21
30.56
30.93
31.31
31.79
32.48
33.44
34.49
35.27
35.38
34.59
32.93
30.67
28.24
26.02
24.13
22.49
20.80
18.79
16.31
13.43
10.39
7.48
4.92
2.69
0.56
-1.79
-4.55
-7.71
-11.08
-14.41
-17.61
-20.78
-24.16
-27.88
-31.99
-36.34
-40.91
-45.78
-51.16
-57.12
-63.38
-69.10
-73.07
-74.03
-71.22
-64.60
-54.87
-43.26
-31.06
-19.38
-8.93
-0.06
7.12
12.65
16.68
19.45
21.23
22.28
22.78
22.81
22.40
21.59
20.53
19.48
18.79
18.73
19.44
20.84
22.62
24.31
25.41
25.53
24.52
22.62
20.32
18.32
17.18
17.22
18.24
19.63
20.45
19.75
16.88
11.80
5.20
-1.66
-7.37
-10.80
-11.56
-10.03
-7.27
-4.60
-3.20
-3.87
-6.94
-12.34
-19.66
-28.30
-37.35
-45.77
-52.47
-56.50
-57.31
-54.86
-49.58
-42.27
-33.90
-25.31
-17.11
-9.59
-2.83
3.21
8.48
12.85
16.14
18.18
19.06
19.04
18.63
18.35
18.56
19.32
20.48
21.71
22.70
23.35
23.75
24.11
24.65
25.42
26.27
26.97
27.21
26.81
25.63
23.67
21.05
17.99
14.86
12.00
9.68
7.88
6.35
4.66
2.40
-0.60
-4.24
-8.13
-11.86
-15.10
-17.80
-20.15
-22.51
-25.28
-28.75
-32.95
-37.65
-42.26
-45.98
-48.02
-47.74
-44.85
-39.57
-32.49
-24.47
-16.36
-8.82
-2.21
3.38
8.03
11.86
14.93
17.22
18.72
19.41
19.37
18.83
18.08
17.42
17.04
17.04
17.36
17.92
18.61
19.37
20.11
20.73
21.04
20.84
19.96
18.35
16.12
13.52
10.84
8.30
5.94
3.66
1.23
-1.56
-4.80
-8.36
-11.99
-15.38
-18.37
-21.03
-23.69
-26.80
-30.73
-35.56
-40.98
-46.30
-50.67
-53.26
-53.47
-51.01
-46.00
-38.91
-30.48
-21.61
-13.15
-5.74
0.29
4.90
8.19
10.35
11.52
11.87
11.65
11.22
10.94
11.09
11.69
12.55
13.39
14.05
14.55
15.12
15.96
17.12
18.43
19.53
19.98
19.51
18.00
15.53
12.30
8.52
4.35
-0.07
-4.65
-9.33
-13.93
-18.30
-22.30
-25.87
-29.03
-31.99
-34.87
-37.74
-40.40
-42.39
-43.12
-42.00
-38.74
-33.38
-26.43
-18.61
-10.73
-3.43
2.92
8.23
12.62
16.22
19.12
21.27
22.61
23.13
22.94
22.32
21.59
21.04
20.87
21.09
21.59
22.19
22.71
22.96
22.89
22.42
21.58
20.35
18.75
16.79
14.49
11.91
9.15
6.26
3.27
0.08
-3.44
-7.32
-11.48
-15.74
-19.92
-24.01
-28.19
-32.79
-38.00
-43.69
-49.32
-54.03
-56.84
-57.03
-54.27
-48.72
-41.00
-31.95
-22.47
-13.34
-5.10
1.94
7.70
12.22
15.63
18.08
19.74
20.78
21.34
21.59
21.68
21.76
21.98
22.43
23.08
23.85
24.54
24.98
25.04
24.72
24.08
23.21
22.12
20.74
18.99
16.75
14.04
10.92
7.53
3.95
0.21
-3.66
-7.64
-11.59
-15.33
-18.73
-21.82
-24.83
-28.14
-32.09
-36.75
-41.79
-46.46
-49.80
-50.91
-49.21
-44.61
-37.47
-28.58
-18.89
-9.38
-0.83
6.27
11.82
15.97
19.04
21.36
23.16
24.56
25.64
26.48
27.19
27.85
28.50
29.09
29.60
30.06
30.58
31.33
32.26
33.20
33.75
33.51
32.19
29.82
26.69
23.25
19.94
16.99
14.40
11.94
9.36
6.43
3.09
-0.61
-4.54
-8.57
-12.58
-16.44
-20.06
-23.40
-26.61
-30.01
-33.98
-38.82
-44.45
-50.29
-55.37
-58.51
-58.78
-55.72
-49.47
-40.75
-30.60
-20.10
-10.19
-1.47
5.79
11.64
16.32
20.13
23.27
25.81
27.70
28.89
29.40
29.44
29.30
29.28
29.56
30.17
31.02
31.99
32.95
33.80
34.40
34.57
34.14
32.99
31.15
28.80
26.14
23.40
20.67
17.99
15.35
12.71
10.01
7.18
4.11
0.70
-3.03
-6.97
-10.90
-14.57
-17.88
-20.89
-23.80
-26.93
-30.50
-34.68
-39.46
-44.73
-50.23
-55.51
-59.95
-62.73
-63.06
-60.34
-54.42
-45.63
-34.78
-22.88
-10.95
0.19
9.99
18.09
24.28
28.44
30.60
31.05
30.36
29.26
28.50
28.60
29.71
31.65
34.03
36.41
38.51
40.15
41.24
41.68
41.37
40.26
38.46
36.27
34.12
32.40
31.23
30.48
29.79
28.73
27.00
24.47
21.28
17.67
13.92
10.21
6.56
2.93
-0.83
-4.79
-8.95
-13.16
-17.18
-20.76
-23.74
-26.19
-28.34
-30.62
-33.47
-37.21
-41.91
-47.26
-52.56
-56.83
-59.01
-58.26
-54.24
-47.22
-38.07
-27.94
-17.98
-8.98
-1.28
5.17
10.59
15.16
18.94
21.91
23.97
25.18
25.65
25.67
25.55
25.60
26.02
26.83
27.87
28.87
29.58
29.91
29.94
29.85
29.79
29.72
29.42
28.58
27.01
24.78
22.14
19.46
16.98
14.71
12.49
10.11
7.41
4.42
1.21
-2.15
-5.65
-9.31
-13.12
-16.93
-20.55
-23.85
-26.90
-29.94
-33.33
-37.28
-41.75
-46.36
-50.49
-53.33
-54.11
-52.26
-47.54
-40.14
-30.75
-20.39
-10.22
-1.22
6.02
11.40
15.20
17.86
19.79
21.19
22.11
22.52
22.52
22.30
22.17
22.37
22.94
23.69
24.32
24.59
24.42
24.02
23.67
23.54
23.62
23.66
23.29
22.27
20.53
18.25
15.78
13.39
11.22
9.19
7.05
4.51
1.39
-2.31
-6.39
-10.53
-14.42
-17.87
-20.88
-23.61
-26.29
-29.15
-32.37
-36.02
-40.08
-44.39
-48.56
-51.98
-53.87
-53.48
-50.37
-44.58
-36.66
-27.55
-18.29
-9.69
-2.20
4.09
9.32
13.65
17.09
19.59
21.11
21.74
21.74
21.52
21.42
21.71
22.39
23.39
24.52
25.60
26.49
27.07
27.29
27.15
26.73
26.13
25.45
24.68
23.69
22.29
20.33
17.87
15.14
12.46
10.08
8.03
6.08
3.91
1.22
-2.13
-6.01
-10.16
-14.23
-17.94
-21.12
-23.80
-26.12
-28.31
-30.67
-33.42
-36.81
-40.90
-45.63
-50.57
-54.99
-57.85
-58.12
-55.13
-48.84
-39.98
-29.78
-19.58
-10.37
-2.63
3.65
8.73
12.89
16.28
18.90
20.73
21.80
22.24
22.28
22.22
22.33
22.77
23.59
24.70
25.92
27.08
28.07
28.80
29.20
29.23
28.89
28.24
27.35
26.28
24.96
23.24
20.97
18.13
14.94
11.75
8.87
6.43
4.29
2.12
-0.39
-3.41
-6.87
-10.51
-14.07
-17.39
-20.44
-23.32
-26.14
-29.03
-32.12
-35.55
-39.49
-43.98
-48.77
-53.24
-56.46
-57.40
-55.35
-50.12
-42.21
-32.62
-22.54
-12.94
-4.46
2.68
8.48
13.01
16.34
18.50
19.66
20.09
20.16
20.31
20.79
21.69
22.89
24.16
25.28
26.11
26.59
26.78
26.78
26.68
26.50
26.21
25.72
24.89
23.63
21.90
19.70
17.17
14.42
11.57
8.72
5.85
2.92
-0.14
-3.31
-6.54
-9.69
-12.61
-15.21
-17.48
-19.56
-21.70
-24.24
-27.48
-31.48
-36.02
-40.50
-44.07
-45.87
-45.24
-41.98
-36.33
-28.91
-20.57
-12.09
-4.11
3.00
9.02
13.86
17.44
19.70
20.66
20.51
19.66
18.63
17.95
17.87
18.34
19.07
19.78
20.31
20.72
21.10
21.50
21.76
21.65
21.00
19.83
18.34
16.69
14.92
12.84
10.22
6.98
3.32
-0.30
-3.47
-6.05
-8.33
-10.89
-14.26
-18.62
-23.72
-29.03
-34.00
-38.23
-41.61
-44.10
-45.70
-46.33
-45.94
-44.55
-42.29
-39.37
-35.90
-31.86
-27.14
-21.66
-15.52
-9.10
-3.00
2.04
5.35
6.45
5.24
2.07
-2.29
-6.78
-10.26
-11.76
-10.59
-6.53
0.24
9.15
19.36
29.90
39.73
47.91
53.72
56.86
57.48
56.16
53.74
51.04
48.56
46.40
44.23
41.61
38.24
34.10
29.48
24.74
20.05
15.26
9.96
3.68
-4.02
-13.33
-24.16
-36.09
-48.28
-59.55
-68.47
-73.69
-74.28
-70.15
-62.04
-51.33
-39.58
-28.11
-17.83
-9.21
-2.45
2.41
5.47
7.06
7.76
8.36
9.60
11.94
15.43
19.70
24.14
28.13
31.21
33.25
34.42
35.08
35.60
36.18
36.75
37.00
36.55
35.11
32.63
29.28
25.39
21.26
17.02
12.60
7.95
3.09
-1.83
-6.60
-11.09
-15.27
-19.18
-22.93
-26.57
-30.10
-33.55
-37.01
-40.58
-44.10
-47.01
-48.30
-46.98
-42.43
-34.77
-24.89
-14.32
-4.66
3.01
8.63
13.14
17.68
23.17
29.72
36.64
42.68
46.54
47.62
46.33
44.05
41.92
40.62
40.00
39.65
39.09
38.20
36.95
35.08
31.92
25.78
15.20
0.25
-15.70
-26.89
-28.56
-20.10
-6.80
7.61
20.34
29.59
33.45
30.24
18.05
-4.48
-37.19
-77.43
-119.37
-155.64
-174.35
-167.17
-134.27
-85.81
-36.70
1.00
22.55
30.38
30.16
27.26
23.97
20.26
15.32
9.38
3.91
0.51
-0.27
0.39
0.24
-3.56
-11.95
-23.84
-36.34
-46.10
-50.73
-49.59
-43.85
-35.59
-27.26
-20.58
-16.29
-14.10
-13.18
-12.64
-11.90
-10.67
-8.89
-6.65
-4.07
-1.39
1.19
3.38
4.85
5.22
4.16
1.44
-2.96
-8.71
-15.02
-20.73
-24.80
-26.76
-27.04
-26.64
-26.51
-26.82
-26.60
-24.23
-18.34
-8.55
4.28
18.48
32.50
45.49
57.48
69.01
80.30
90.90
99.88
106.35
110.00
111.22
110.86
109.73
108.54
107.53
106.66
105.85
105.13
104.47
103.55
101.67
97.86
91.74
83.35
73.31
62.58
52.07
42.31
33.23
24.30
12.81
-1.98
-18.67
-33.97
-44.39
-48.04
-45.28
-38.23
-29.75
-22.47
-17.77
-16.27
-17.93
-22.09
-27.52
-32.49
-35.36
-35.08
-30.82
-22.97
-13.17
-3.55
4.13
9.17
11.88
13.16
13.81
14.20
14.30
13.95
13.22
12.51
12.34
13.00
14.31
15.56
15.85
14.50
11.36
6.75
1.23
-4.68
-10.65
-16.44
-21.74
-26.07
-28.86
-29.75
-28.73
-26.30
-23.36
-20.92
-19.79
-20.33
-22.38
-25.33
-28.42
-30.97
-32.56
-33.21
-33.26
-33.30
-33.89
-35.37
-37.64
-40.08
-41.64
-41.17
-37.94
-31.93
-23.93
-15.23
-7.15
-0.48
4.57
8.27
11.04
13.15
14.73
15.82
16.53
17.04
17.48
17.86
18.06
17.96
17.48
16.70
15.74
14.71
13.61
12.37
10.96
9.39
7.78
6.21
4.68
3.06
1.01
-1.94
-6.35
-12.63
-20.82
-30.38
-40.20
-48.93
-55.47
-59.30
-60.66
-60.18
-58.58
-56.26
-53.27
-49.55
-45.11
-40.14
-34.83
-29.10
-22.60
-14.85
-5.61
4.85
15.68
25.73
33.92
39.59
42.65
43.48
42.74
41.10
39.08
37.01
34.97
32.90
30.72
28.39
26.05
23.88
22.17
21.08
20.64
20.73
21.10
21.55
21.92
22.10
21.96
21.25
19.58
16.46
11.45
4.27
-4.90
-15.45
-26.33
-36.28
-44.13
-49.11
-51.02
-50.22
-47.43
-43.60
-39.63
-36.27
-34.02
-33.07
-33.12
-33.40
-32.69
-29.70
-23.44
-13.79
-1.55
11.63
23.83
33.45
39.66
42.57
42.99
42.02
40.56
39.10
37.66
35.94
33.61
30.47
26.61
22.39
18.23
14.54
11.53
9.26
7.70
6.70
6.11
5.70
5.14
4.07
2.24
-0.36
-3.44
-6.53
-9.28
-11.59
-13.57
-15.51
-17.64
-20.08
-22.90
-26.12
-29.81
-34.00
-38.56
-43.15
-47.33
-50.84
-53.60
-55.73
-57.32
-58.22
-58.06
-56.42
-53.08
-48.32
-43.17
-39.02
-37.10
-37.97
-41.30
-46.15
-51.35
-55.93
-59.59
-63.09
-67.63
-74.16
-82.66
-92.13
-101.31
-109.53
-116.87
-124.16
-132.51
-141.72
-149.73
-152.88
-147.42
-131.47
-105.78
-72.62
-34.86
4.58
43.37
78.73
107.01
123.96
125.79
111.20
83.28
55.83
44.24
59.48
101.02
157.60
214.97
263.05
296.15
318.22
333.16
341.85
342.98
334.43
315.12
286.67
252.59
216.93
183.31
153.30
126.12
99.84
72.48
43.25
13.08
-16.31
-43.41
-67.07
-87.36
-104.86
-119.95
-132.45
-141.65
-146.71
-147.24
-143.63
-136.61
-127.45
-117.66
-108.95
-103.30
-102.58
-107.99
-119.57
-135.92
-154.30
-171.49
-184.59
-191.75
-192.51
-187.64
-178.60
-167.02
-154.18
-140.73
-126.80
-112.07
-96.14
-78.94
-60.78
-42.41
-24.68
-8.39
6.05
18.59
29.38
38.43
45.46
49.88
51.00
48.43
42.30
33.30
22.51
11.16
0.36
-9.01
-16.41
-21.77
-25.54
-28.65
-32.23
-37.22
-43.90
-51.66
-59.23
-65.03
-67.90
-67.32
-63.51
-57.19
-49.13
-39.96
-30.08
-19.75
-9.14
1.56
12.19
22.49
31.98
39.80
45.01
46.81
45.08
40.58
34.69
28.94
24.48
21.96
21.68
23.93
29.07
37.06
47.11
57.43
65.76
70.20
70.11
66.24
60.27
54.03
48.69
44.80
42.47
41.81
43.15
46.84
53.00
61.31
71.14
81.62
91.86
100.99
108.34
113.57
116.75
118.44
119.39
120.18
120.67
119.97
116.75
110.04
99.97
87.92
76.07
66.09
58.26
51.07
42.03
28.97
11.35
-9.48
-30.88
-50.12
-65.41
-75.97
-81.58
-81.95
-76.52
-64.93
-47.63
-26.37
-3.95
16.44
32.15
41.68
44.87
42.57
36.12
26.77
15.33
2.21
-12.39
-28.06
-44.10
-59.53
-73.30
-84.66
-93.10
-98.39
-100.39
-99.19
-95.21
-89.41
-83.15
-77.82
-74.37
-72.79
-72.18
-70.84
-66.80
-58.33
-44.62
-26.36
-5.98
12.69
25.61
29.91
25.07
13.19
-1.88
-16.02
-26.27
-31.46
-32.02
-29.15
-24.00
-17.12
-8.59
1.59
13.20
25.59
37.90
49.39
59.63
68.68
76.79
84.14
90.48
95.20
97.53
96.98
93.62
88.18
81.75
75.32
69.46
64.07
58.63
52.57
45.69
38.31
31.20
25.15
20.63
17.52
15.17
12.70
9.38
4.90
-0.55
-6.48
-12.30
-17.60
-22.23
-26.34
-30.30
-34.52
-39.29
-44.60
-50.13
-55.20
-58.98
-60.60
-59.47
-55.40
-48.75
-40.27
-30.97
-21.79
-13.40
-6.10
0.06
5.11
9.07
11.85
13.34
13.57
12.81
11.55
10.32
9.55
9.35
9.50
9.64
9.38
8.66
7.70
6.97
6.83
7.34
8.21
8.89
8.90
7.94
6.05
3.50
0.55
-2.68
-6.25
-10.32
-15.03
-20.37
-26.17
-32.11
-37.89
-43.11
-47.26
-49.70
-49.66
-46.58
-40.35
-31.54
-21.33
-11.10
-1.96
5.54
11.48
16.25
20.16
23.29
25.43
26.43
26.34
25.45
24.21
22.87
21.53
20.02
18.27
16.36
14.59
13.32
12.79
12.93
13.37
13.65
13.37
12.42
10.93
9.15
7.30
5.41
3.37
1.06
-1.61
-4.64
-7.80
-10.88
-13.72
-16.18
-18.30
-20.26
-22.35
-24.89
-28.17
-32.11
-36.29
-39.90
-41.84
-41.18
-37.35
-30.47
-21.33
-11.21
-1.40
7.16
14.10
19.57
23.91
27.40
30.06
31.75
32.34
31.95
30.90
29.63
28.44
27.37
26.34
25.29
24.31
23.65
23.57
24.13
25.06
25.90
26.15
25.57
24.16
22.13
19.69
16.94
13.89
10.53
6.93
3.27
-0.20
-3.29
-5.87
-7.94
-9.65
-11.24
-13.03
-15.23
-17.89
-20.87
-23.81
-26.39
-28.49
-30.29
-32.20
-34.70
-38.01
-41.93
-45.77
-48.59
-49.39
-47.45
-42.57
-35.07
-25.82
-15.94
-6.51
1.68
8.27
13.26
16.87
19.35
20.93
21.82
22.22
22.39
22.59
23.00
23.61
24.27
24.72
24.80
24.56
24.24
24.19
24.59
25.41
26.25
26.62
26.08
24.46
21.92
18.84
15.62
12.49
9.60
6.96
4.57
2.48
0.62
-1.14
-3.04
-5.25
-7.85
-10.71
-13.61
-16.33
-18.79
-21.00
-23.02
-24.93
-26.75
-28.66
-30.83
-33.51
-36.76
-40.39
-43.80
-46.12
-46.49
-44.26
-39.27
-31.94
-23.14
-14.01
-5.60
1.35
6.74
10.90
14.41
17.70
20.82
23.44
25.11
25.58
24.88
23.41
21.68
20.12
18.98
18.29
18.06
18.26
18.91
19.93
21.15
22.23
22.77
22.40
20.96
18.51
15.36
11.91
8.47
5.18
2.03
-1.08
-4.18
-7.17
-9.85
-12.07
-13.87
-15.55
-17.50
-20.04
-23.27
-26.94
-30.56
-33.51
-35.16
-35.00
-32.71
-28.30
-22.09
-14.71
-6.93
0.44
6.83
11.89
15.55
17.94
19.24
19.65
19.35
18.56
17.43
16.12
14.79
13.60
12.73
12.32
12.42
12.86
13.34
13.55
13.35
12.82
12.22
11.73
11.31
10.63
9.25
6.90
3.64
-0.17
-4.03
-7.57
-10.66
-13.36
-15.75
-17.83
-19.50
-20.72
-21.64
-22.55
-23.79
-25.59
-28.01
-30.91
-34.08
-37.17
-39.67
-40.89
-40.09
-36.67
-30.49
-22.07
-12.49
-3.12
4.80
10.54
13.98
15.56
15.99
16.03
16.17
16.63
17.26
17.74
17.80
17.38
16.68
16.10
15.99
16.38
17.07
17.67
17.87
17.60
16.97
16.19
15.29
14.11
12.34
9.80
6.55
2.99
-0.35
-3.06
-4.99
-6.35
-7.53
-8.99
-11.06
-13.84
-17.23
-20.94
-24.66
-28.09
-31.10
-33.67
-35.97
-38.23
-40.72
-43.63
-46.88
-50.12
-52.69
-53.74
-52.52
-48.64
-42.26
-34.04
-24.99
-16.08
-8.02
-1.11
4.62
9.25
12.82
15.22
16.28
15.93
14.33
11.90
9.25
7.00
5.59
5.13
5.44
6.15
6.92
7.57
8.05
8.46
8.84
9.22
9.68
10.26
10.97
11.66
12.00
11.58
10.13
7.69
4.68
1.73
-0.67
-2.37
-3.68
-5.07
-6.96
-9.44
-12.28
-15.07
-17.45
-19.36
-20.96
-22.54
-24.35
-26.40
-28.55
-30.52
-32.04
-32.91
-33.06
-32.40
-30.82
-28.21
-24.46
-19.52
-13.40
-6.15
2.17
11.40
21.25
31.25
40.69
48.82
55.02
59.02
60.89
60.99
59.67
57.30
54.18
50.60
46.88
43.29
40.06
37.32
35.13
33.54
32.58
32.22
32.26
32.26
31.68
30.04
27.19
23.39
19.17
15.16
11.78
9.11
6.91
4.77
2.36
-0.43
-3.38
-6.03
-7.93
-8.82
-8.82
-8.37
-8.09
-8.45
-9.66
-11.57
-13.74
-15.59
-16.55
-16.12
-13.88
-9.57
-3.11
5.30
15.19
25.89
36.67
47.00
56.62
65.59
73.93
81.36
87.03
89.77
88.63
83.50
75.56
66.84
59.49
54.77
52.50
51.20
48.70
43.00
32.92
18.48
0.84
-17.81
-34.77
-47.43
-53.98
-54.08
-48.94
-40.90
-32.42
-25.30
-20.30
-17.44
-16.64
-18.14
-22.45
-29.87
-40.03
-51.69
-63.08
-72.33
-78.12
-79.88
-77.81
-72.69
-65.43
-56.78
-47.12
-36.39
-24.33
-10.73
4.27
20.25
36.67
53.21
69.72
85.77
100.12
110.52
114.22
109.09
94.80
73.33
48.48
24.55
4.81
-9.34
-18.29
-23.42
-25.90
-26.14
-23.89
-18.87
-11.54
-3.34
3.67
7.60
7.64
4.41
-0.30
-4.48
-6.75
-6.99
-6.07
-5.33
-5.70
-7.33
-9.63
-11.75
-13.02
-13.29
-12.91
-12.59
-13.10
-15.11
-19.10
-25.23
-33.28
-42.52
-51.69
-59.17
-63.43
-63.50
-59.29
-51.74
-42.46
-33.37
-26.03
-21.41
-19.69
-20.41
-22.75
-25.80
-28.82
-31.25
-32.67
-32.73
-31.21
-28.08
-23.54
-18.14
-12.50
-7.21
-2.50
1.83
6.24
11.28
17.18
23.72
30.13
35.20
37.59
36.24
30.81
21.89
10.93
-0.22
-9.87
-17.08
-21.81
-24.74
-26.84
-28.95
-31.51
-34.66
-38.31
-42.41
-47.02
-52.26
-58.31
-65.25
-72.97
-81.02
-88.56
-94.51
-97.69
-97.17
-92.44
-83.54
-71.03
-55.86
-39.22
-22.38
-6.55
7.28
18.38
26.48
31.74
34.71
36.13
36.73
37.08
37.44
37.87
38.32
38.75
39.25
39.87
40.54
41.08
41.23
40.82
39.85
38.50
36.99
35.44
33.73
31.53
28.51
24.55
19.84
14.94
10.54
7.14
4.86
3.40
2.14
0.41
-2.14
-5.49
-9.25
-12.86
-15.90
-18.19
-19.94
-21.53
-23.44
-25.96
-29.13
-32.63
-35.82
-37.92
-38.15
-35.98
-31.34
-24.60
-16.55
-8.08
-0.04
6.98
12.64
16.93
19.95
21.85
22.80
22.94
22.31
20.97
19.08
16.86
14.66
12.87
11.81
11.63
12.22
13.29
14.41
15.20
15.38
14.87
13.75
12.19
10.36
8.36
6.25
4.01
1.65
-0.80
-3.29
-5.82
-8.37
-10.95
-13.57
-16.14
-18.63
-21.02
-23.36
-25.76
-28.36
-31.13
-33.80
-35.86
-36.57
-35.31
-31.67
-25.71
-17.98
-9.32
-0.68
7.19
13.82
19.05
22.85
25.31
26.50
26.60
25.97
25.04
24.21
23.67
23.38
23.04
22.44
21.60
20.80
20.49
20.96
22.16
23.59
24.55
24.41
22.93
20.33
17.13
13.83
10.75
7.91
5.14
2.22
-0.93
-4.30
-7.74
-11.10
-14.26
-17.13
-19.68
-22.00
-24.33
-26.93
-30.08
-33.93
-38.30
-42.76
-46.65
-49.17
-49.51
-47.00
-41.31
-32.65
-21.76
-9.86
1.67
11.66
19.41
24.85
28.35
30.48
31.75
32.52
32.94
33.12
33.04
32.74
32.22
31.49
30.62
29.70
28.86
28.24
27.96
28.00
28.33
28.77
29.09
28.99
28.15
26.35
23.56
20.05
16.27
12.69
9.70
7.33
5.34
3.36
1.02
-1.84
-5.20
-8.84
-12.47
-15.82
-18.66
-20.95
-22.84
-24.62
-26.70
-29.37
-32.78
-36.81
-41.16
-45.37
-48.80
-50.67
-50.20
-46.74
-40.07
-30.50
-18.91
-6.45
5.70
16.66
25.93
33.29
38.76
42.43
44.49
45.27
45.18
44.70
44.14
43.74
43.45
43.12
42.51
41.46
39.99
38.37
37.15
36.93
38.00
39.87
41.19
39.83
33.65
21.29
2.84
-20.11
-44.92
-68.86
-89.94
-107.27
-120.92
-131.47
-139.54
-145.62
-150.00
-152.82
-153.93
-152.85
-148.80
-140.93
-128.75
-112.27
-92.16
-69.62
-46.21
-23.66
-3.83
11.53
21.06
24.19
21.45
14.44
5.40
-3.36
-10.11
-14.08
-15.32
-14.43
-12.10
-8.69
-4.18
1.74
9.41
18.84
29.52
40.48
50.54
58.67
64.29
67.36
68.22
67.37
65.32
62.52
59.46
56.73
54.94
54.54
55.59
57.64
59.75
60.83
59.97
56.74
51.24
44.03
35.98
28.12
21.53
17.08
15.26
15.94
18.46
21.68
24.40
25.60
24.70
21.52
16.21
9.18
0.92
-7.98
-16.99
-25.76
-34.07
-41.79
-48.62
-53.90
-56.68
-55.98
-51.23
-42.55
-30.79
-17.31
-3.50
9.49
20.92
30.39
37.64
42.63
45.58
47.18
48.54
50.96
55.55
62.95
73.12
85.24
97.79
108.58
115.20
115.59
108.70
94.99
76.40
55.72
35.64
17.93
3.18
-8.86
-18.61
-26.20
-31.38
-34.01
-34.34
-33.26
-31.87
-31.09
-31.27
-32.14
-33.10
-33.67
-33.90
-34.31
-35.78
-38.92
-43.71
-49.28
-54.02
-56.18
-54.48
-48.68
-39.68
-29.10
-18.64
-9.42
-1.72
4.87
10.91
16.68
21.88
25.86
28.04
28.24
26.86
24.63
22.28
20.23
18.58
17.18
15.92
14.93
14.49
14.93
16.40
18.74
21.35
23.46
24.33
23.56
21.26
17.91
14.19
10.62
7.35
4.24
1.02
-2.48
-6.12
-9.68
-12.92
-15.85
-18.76
-22.00
-25.96
-30.82
-36.64
-43.19
-50.00
-56.19
-60.62
-62.01
-59.39
-52.45
-41.71
-28.46
-14.23
-0.41
12.17
23.26
32.98
41.51
48.76
54.18
56.59
54.30
45.51
29.08
5.31
-23.26
-51.72
-73.75
-83.26
-76.37
-52.69
-15.39
29.92
76.89
119.91
154.91
179.21
191.25
190.25
176.37
151.06
117.42
79.96
43.87
13.93
-6.66
-16.95
-18.20
-13.20
-5.22
2.89
9.39
13.59
15.55
15.54
13.96
11.28
8.19
5.57
4.35
5.17
8.14
12.87
18.67
24.93
31.33
37.85
44.73
52.20
60.25
68.05
73.91
75.48
70.54
57.85
37.64
11.54
-18.19
-49.69
-81.84
-113.84
-144.15
-169.84
-186.85
-191.50
-182.11
-159.90
-129.00
-95.22
-64.14
-39.42
-22.32
-12.14
-7.42
-6.72
-8.15
-9.72
-9.56
-6.42
-0.25
7.47
13.72
14.78
7.76
-6.94
-26.08
-44.91
-59.06
-65.92
-65.06
-57.88
-46.68
-33.43
-17.62
2.43
27.99
58.58
91.97
125.11
155.08
179.81
190.04
179.71
149.16
105.47
57.83
12.57
-27.73
-62.70
-92.57
-117.41
-135.99
-147.23
-151.55
-150.96
-148.56
-146.11
-143.98
-141.54
-137.80
-130.80
-118.39
-99.59
-75.12
-47.25
-19.16
5.74
24.66
36.44
39.46
34.83
24.70
11.03
-4.68
-21.01
-36.14
-47.70
-53.33
-51.41
-41.91
-27.27
-11.58
1.06
8.15
9.44
6.39
1.26
-3.77
-6.87
-7.09
-4.25
1.36
9.03
17.74
26.25
33.34
38.13
40.58
41.34
41.41
41.81
43.20
45.64
48.78
51.96
54.72
56.99
59.06
61.37
64.28
67.78
71.39
74.28
75.44
73.96
69.32
61.50
51.00
38.84
26.40
15.20
6.59
1.08
-2.09
-5.08
-10.69
-21.12
-36.70
-55.41
-73.52
-87.17
-94.02
-94.05
-89.11
-81.69
-73.55
-65.16
-56.10
-45.93
-34.81
-23.48
-12.58
-2.00
9.19
22.32
38.20
56.55
75.88
93.95
108.60
118.40
123.01
122.97
119.38
113.31
105.50
96.21
85.42
72.99
58.94
43.61
27.61
11.78
-3.15
-16.71
-28.72
-39.27
-48.58
-56.81
-64.05
-70.35
-75.75
-80.35
-84.32
-87.80
-90.97
-93.96
-96.77
-99.19
-100.65
-100.32
-97.34
-91.22
-82.11
-70.92
-58.97
-47.53
-37.35
-28.51
-20.60
-13.08
-5.72
1.34
7.68
12.92
16.93
19.91
22.26
24.39
26.53
28.69
30.72
32.37
33.49
34.07
34.26
34.23
34.12
33.96
33.58
32.74
31.06
28.26
24.21
19.10
13.45
8.00
3.56
0.56
-1.11
-2.26
-4.09
-7.75
-13.80
-22.01
-31.34
-40.32
-47.44
-51.55
-52.03
-48.82
-42.32
-33.33
-22.80
-11.76
-1.07
8.72
17.47
25.36
32.69
39.64
46.09
51.64
55.76
58.04
58.37
56.99
54.41
51.26
48.10
45.29
43.04
41.37
40.20
39.38
38.66
37.76
36.43
34.57
32.32
30.04
28.10
26.68
25.61
24.36
22.28
18.93
14.27
8.73
3.02
-2.19
-6.57
-10.26
-13.77
-17.70
-22.62
-28.70
-35.66
-42.77
-48.89
-52.78
-53.39
-50.20
-43.33
-33.61
-22.33
-10.83
-0.20
8.94
16.42
22.41
27.08
30.58
33.04
34.62
35.61
36.29
36.87
37.34
37.55
37.28
36.47
35.26
33.95
32.91
32.38
32.43
32.91
33.56
34.02
33.89
32.84
30.81
28.03
24.91
21.89
19.16
16.56
13.70
10.23
6.07
1.44
-3.27
-7.76
-11.89
-15.75
-19.42
-22.91
-26.21
-29.32
-32.51
-36.18
-40.73
-46.27
-52.35
-58.02
-61.93
-62.83
-59.91
-53.21
-43.51
-32.19
-20.71
-10.20
-1.26
6.08
12.09
17.18
21.56
25.36
28.53
30.99
32.65
33.48
33.50
32.80
31.64
30.34
29.38
29.14
29.86
31.44
33.47
35.29
36.17
35.63
33.55
30.29
26.43
22.61
19.24
16.42
14.04
11.78
9.39
6.66
3.51
-0.11
-4.10
-8.25
-12.36
-16.22
-19.80
-23.17
-26.51
-30.05
-34.00
-38.51
-43.57
-49.01
-54.34
-58.72
-61.08
-60.43
-56.19
-48.50
-38.24
-26.81
-15.65
-5.86
2.10
8.29
13.07
16.86
19.90
22.29
24.04
25.14
25.69
25.82
25.69
25.43
25.14
24.86
24.65
24.57
24.75
25.27
26.05
26.80
27.12
26.62
25.12
22.79
20.03
17.27
14.77
12.56
10.43
8.10
5.37
2.19
-1.34
-4.95
-8.40
-11.50
-14.26
-16.93
-19.92
-23.65
-28.28
-33.53
-38.67
-42.74
-44.96
-44.91
-42.70
-38.74
-33.44
-27.01
-19.40
-10.56
-0.75
9.31
18.52
25.68
29.96
31.16
29.75
26.82
23.72
21.95
22.85
27.20
34.73
43.93
52.33
57.39
57.71
53.96
48.98
46.81
50.92
62.59
80.18
99.74
116.57
127.19
130.59
128.20
122.96
117.70
113.94
111.54
109.18
105.40
99.49
91.72
82.95
74.06
65.65
58.06
51.86
48.00
47.55
51.20
58.61
68.17
77.24
82.71
81.74
72.42
54.45
29.24
-0.15
-29.65
-55.17
-73.67
-83.94
-86.77
-84.34
-79.23
-73.58
-68.56
-64.50
-61.24
-58.46
-55.86
-53.14
-49.91
-45.79
-40.28
-33.05
-24.15
-14.17
-4.34
3.70
8.41
8.89
5.24
-1.40
-9.36
-17.01
-23.47
-28.66
-33.14
-37.64
-42.61
-48.04
-53.59
-58.82
-63.42
-67.32
-70.56
-73.19
-75.10
-76.00
-75.54
-73.39
-69.45
-63.96
-57.46
-50.74
-44.52
-39.29
-35.12
-31.78
-28.86
-26.17
-23.84
-22.34
-22.15
-23.49
-25.97
-28.79
-30.98
-31.74
-30.86
-28.65
-25.86
-23.28
-21.43
-20.48
-20.21
-20.18
-19.96
-19.38
-18.52
-17.66
-16.96
-16.31
-15.45
-14.18
-12.81
-12.08
-12.91
-15.89
-20.61
-25.57
-28.68
-28.04
-22.67
-12.80
0.13
13.86
25.67
33.19
35.10
31.63
24.47
16.31
9.72
6.31
6.07
7.33
7.86
5.86
0.48
-8.38
-20.50
-35.67
-53.65
-73.99
-96.80
-121.45
-146.54
-169.99
-189.77
-204.23
-212.35
-213.76
-208.88
-200.87
-192.85
-186.82
-183.02
-180.37
-177.39
-173.01
-166.77
-158.83
-152.62
-150.08
-150.95
-153.18
-155.08
-157.17
-161.83
-171.58
-187.16
-210.73
-240.80
-272.94
-301.34
-321.62
-332.32
-334.36
-329.54
-294.79
-220.83
-114.89
1.21
104.30
181.11
229.61
254.82
264.27
265.30
257.99
245.12
230.93
220.99
219.70
227.84
242.14
256.88
266.36
264.27
247.52
218.76
185.18
154.72
132.59
120.10
115.72
116.93
119.72
121.95
123.47
125.43
129.01
134.65
142.25
151.64
162.67
174.08
184.64
193.07
198.03
198.12
192.04
179.36
160.80
138.14
113.33
88.54
65.44
44.79
26.47
9.61
-6.35
-21.56
-35.89
-49.08
-60.47
-69.45
-75.66
-78.95
-79.65
-77.59
-72.58
-64.82
-54.86
-43.26
-30.74
-18.11
-6.08
4.61
14.05
22.40
29.31
31.11
25.09
11.18
-7.63
-24.83
-39.38
-52.08
-63.80
-74.99
-84.06
-88.28
-85.48
-75.56
-60.63
-44.25
-28.68
-14.20
0.37
16.92
36.53
58.25
79.12
95.27
103.19
101.62
91.41
74.83
55.61
37.87
24.98
18.67
18.72
23.26
30.06
37.25
41.26
40.11
33.78
23.88
12.30
0.12
-12.32
-24.63
-35.98
-45.57
-52.29
-55.64
-56.08
-54.89
-54.20
-55.97
-61.52
-71.31
-85.07
-101.40
-118.43
-134.29
-147.47
-157.05
-162.63
-164.48
-162.45
-157.50
-150.79
-143.51
-136.62
-130.67
-125.77
-121.62
-117.72
-113.54
-108.90
-103.83
-98.63
-93.78
-89.67
-86.25
-82.85
-78.42
-71.89
-62.72
-51.04
-37.52
-23.21
-9.08
4.17
16.22
27.04
36.61
44.80
51.44
56.41
59.79
61.89
63.13
63.91
64.48
64.87
64.90
64.45
63.55
62.39
61.24
60.32
59.64
59.00
58.02
56.23
53.24
48.90
43.40
37.16
30.70
24.42
18.38
12.31
5.82
-1.37
-9.13
-16.88
-23.77
-28.81
-31.21
-30.54
-26.75
-20.17
-11.43
-1.41
8.92
18.66
27.13
34.00
39.21
42.95
45.44
46.91
47.50
47.36
46.58
45.34
43.82
42.27
40.96
40.18
40.14
40.88
42.24
43.83
45.15
45.68
45.07
43.16
40.07
36.06
31.49
26.71
22.00
17.52
13.28
9.07
4.56
-0.57
-6.40
-12.60
-18.43
-22.82
-24.76
-23.58
-19.19
-12.14
-3.46
5.65
14.19
21.55
27.62
32.65
37.00
40.88
44.25
46.86
48.54
49.29
49.34
49.08
48.73
48.33
47.76
46.84
45.57
44.16
42.90
41.96
41.23
40.32
38.75
36.13
32.37
27.68
22.52
17.36
12.51
8.05
3.74
-0.78
-5.90
-11.85
-18.59
-25.81
-32.84
-38.81
-42.78
-43.89
-41.72
-36.36
-28.42
-18.85
-8.71
1.15
10.20
18.20
25.10
30.91
35.63
39.21
41.61
42.87
43.10
42.57
41.52
40.19
38.74
37.33
36.04
34.95
34.13
33.55
33.09
32.56
31.74
30.47
28.78
26.74
24.49
22.10
19.51
16.63
13.33
9.57
5.48
1.27
-2.81
-6.55
-9.93
-13.12
-16.45
-20.33
-25.01
-30.46
-36.27
-41.67
-45.67
-47.36
-46.18
-42.04
-35.35
-26.90
-17.59
-8.25
0.50
8.30
14.98
20.53
25.00
28.45
30.98
32.69
33.73
34.30
34.61
34.87
35.17
35.44
35.58
35.45
35.05
34.47
33.88
33.36
32.84
32.10
30.91
29.14
26.77
23.98
20.98
18.00
15.13
12.36
9.59
6.66
3.49
0.10
-3.35
-6.68
-9.70
-12.39
-14.81
-17.09
-19.37
-21.74
-24.26
-26.98
-29.90
-32.88
-35.51
-37.16
-37.11
-34.82
-30.15
-23.48
-15.58
-7.33
0.49
7.46
13.46
18.61
23.04
26.80
29.83
31.96
33.06
33.13
32.31
30.89
29.20
27.54
26.13
25.10
24.47
24.23
24.29
24.54
24.77
24.78
24.36
23.39
21.91
20.01
17.84
15.53
13.09
10.51
7.73
4.76
1.67
-1.43
-4.40
-7.14
-9.59
-11.78
-13.73
-15.55
-17.39
-19.46
-22.02
-25.26
-29.19
-33.49
-37.52
-40.42
-41.44
-40.11
-36.44
-30.86
-24.10
-16.93
-9.93
-3.51
2.18
7.06
11.14
14.40
16.86
18.55
19.50
19.77
19.47
18.71
17.67
16.53
15.50
14.72
14.25
14.03
13.87
13.60
13.15
12.54
11.85
11.08
10.08
8.66
6.64
4.09
1.26
-1.45
-3.74
-5.47
-6.78
-7.95
-9.32
-11.19
-13.72
-16.91
-20.59
-24.40
-27.85
-30.33
-31.29
-30.37
-27.50
-22.85
-16.83
-10.01
-3.07
3.33
8.67
12.66
15.27
16.72
17.35
17.46
17.28
16.91
16.36
15.66
14.86
14.08
13.46
13.07
12.90
12.82
12.68
12.37
11.86
11.21
10.46
9.55
8.31
6.54
4.11
1.10
-2.24
-5.52
-8.43
-10.79
-12.63
-14.19
-15.77
-17.67
-20.09
-23.07
-26.42
-29.74
-32.44
-33.89
-33.52
-31.02
-26.49
-20.36
-13.40
-6.43
-0.16
5.02
9.02
12.04
14.38
16.29
17.92
19.23
20.12
20.42
20.06
19.05
17.59
15.94
14.42
13.23
12.43
11.89
11.43
10.87
10.11
9.19
8.15
7.03
5.81
4.42
2.81
0.97
-1.03
-3.14
-5.30
-7.48
-9.67
-11.85
-13.99
-16.11
-18.32
-20.75
-23.53
-26.60
-29.74
-32.47
-34.23
-34.52
-32.99
-29.61
-24.63
-18.52
-11.91
-5.41
0.48
5.47
9.46
12.53
14.78
16.33
17.27
17.69
17.71
17.50
17.18
16.78
16.29
15.62
14.77
13.83
12.98
12.42
12.25
12.40
12.64
12.69
12.26
11.26
9.70
7.76
5.63
3.42
1.18
-1.15
-3.55
-5.98
-8.31
-10.36
-12.03
-13.30
-14.32
-15.35
-16.70
-18.62
-21.25
-24.56
-28.29
-31.97
-34.99
-36.68
-36.51
-34.26
-30.08
-24.46
-18.09
-11.60
-5.51
-0.10
4.52
8.31
11.27
13.44
14.92
15.88
16.54
17.12
17.73
18.37
18.92
19.21
19.05
18.38
17.29
16.00
14.75
13.73
12.98
12.40
11.88
11.28
10.52
9.51
8.22
6.57
4.60
2.39
0.12
-2.03
-3.94
-5.60
-7.09
-8.54
-10.08
-11.83
-13.89
-16.29
-18.96
-21.78
-24.58
-27.22
-29.55
-31.38
-32.35
-32.03
-30.08
-26.37
-21.20
-15.22
-9.19
-3.74
0.84
4.56
7.64
10.25
12.44
14.17
15.34
15.94
16.02
15.71
15.14
14.47
13.78
13.14
12.62
12.24
11.98
11.78
11.49
10.99
10.18
9.09
7.81
6.45
5.06
3.60
1.95
0.04
-2.09
-4.33
-6.52
-8.56
-10.42
-12.09
-13.57
-14.79
-15.75
-16.56
-17.56
-19.13
-21.56
-24.73
-28.09
-30.77
-31.86
-30.79
-27.50
-22.49
-16.56
-10.56
-5.10
-0.45
3.44
6.75
9.61
12.04
13.93
15.17
15.80
15.98
15.97
15.94
15.90
15.66
15.04
13.96
12.59
11.26
10.32
9.90
9.86
9.90
9.66
8.97
7.87
6.59
5.35
4.24
3.16
1.91
0.30
-1.73
-4.10
-6.59
-8.97
-11.02
-12.71
-14.06
-15.15
-16.13
-17.17
-18.47
-20.30
-22.78
-25.86
-29.14
-31.93
-33.38
-32.81
-29.92
-24.99
-18.71
-12.02
-5.73
-0.35
4.00
7.42
10.16
12.36
14.07
15.33
16.20
16.78
17.19
17.47
17.55
17.31
16.73
15.89
15.02
14.37
14.13
14.30
14.74
15.16
15.24
14.74
13.58
11.85
9.81
7.80
6.05
4.62
3.28
1.72
-0.27
-2.76
-5.57
-8.40
-10.98
-13.12
-14.78
-16.05
-17.13
-18.32
-19.93
-22.19
-25.09
-28.34
-31.44
-33.76
-34.71
-33.92
-31.23
-26.80
-21.12
-14.86
-8.84
-3.69
0.27
3.15
5.29
7.10
8.70
10.01
10.80
10.97
10.60
10.01
9.52
9.29
9.29
9.36
9.34
9.20
8.99
8.81
8.69
8.55
8.25
7.71
6.92
5.93
4.89
3.94
3.15
2.56
2.06
1.52
0.81
-0.08
-0.98
-1.60
-1.67
-1.09
-0.02
1.10
1.78
1.65
0.62
-1.12
-3.25
-5.44
-7.40
-8.79
-9.29
-8.61
-6.65
-3.54
0.26
4.14
7.61
10.42
12.69
14.72
16.72
18.67
20.32
21.26
21.24
20.32
18.87
17.45
16.52
16.20
16.11
15.59
13.97
10.95
6.83
2.35
-1.57
-4.24
-5.38
-5.20
-4.15
-2.75
-1.43
-0.42
0.13
0.17
-0.31
-1.29
-2.73
-4.52
-6.61
-8.84
-11.09
-13.27
-15.35
-17.40
-19.57
-21.99
-24.68
-27.52
-30.19
-32.19
-33.01
-32.16
-29.41
-24.86
-19.02
-12.62
-6.41
-0.94
3.65
7.47
10.78
13.74
16.38
18.60
20.36
21.65
22.55
23.13
23.38
23.30
22.87
22.18
21.38
20.65
20.08
19.70
19.41
19.04
18.42
17.39
15.85
13.78
11.26
8.46
5.51
2.55
-0.39
-3.30
-6.14
-8.84
-11.33
-13.62
-15.83
-18.13
-20.62
-23.19
-25.54
-27.23
-27.89
-27.36
-25.75
-23.34
-20.39
-17.06
-13.33
-9.19
-4.72
-0.22
3.88
7.13
9.32
10.48
10.91
10.98
10.99
11.04
11.06
10.91
10.53
9.93
9.25
8.62
8.13
7.81
7.62
7.49
7.36
7.14
6.81
6.40
5.98
5.63
5.39
5.19
4.84
4.12
2.90
1.21
-0.73
-2.65
-4.42
-6.11
-7.96
-10.26
-13.09
-16.27
-19.38
-21.97
-23.74
-24.60
-24.64
-24.04
-22.90
-21.32
-19.39
-17.34
-15.48
-14.09
-13.25
-12.80
-12.39
-11.67
-10.50
-9.01
-7.54
-6.42
-5.81
-5.57
-5.41
-5.07
-4.45
-3.74
-3.26
-3.30
-3.99
-5.26
-6.89
-8.69
-10.55
-12.44
-14.43
-16.56
-18.87
-21.40
-24.16
-27.17
-30.36
-33.49
-36.17
-37.92
-38.25
-36.88
-33.74
-29.07
-23.32
-17.04
-10.71
-4.65
0.97
6.04
10.47
14.20
17.18
19.35
20.74
21.40
21.38
20.75
19.68
18.38
17.12
16.08
15.31
14.69
14.05
13.24
12.23
11.13
10.01
8.83
7.38
5.40
2.81
-0.27
-3.45
-6.26
-8.39
-9.76
-10.63
-11.52
-12.92
-15.15
-18.13
-21.37
-24.02
-25.26
-24.54
-21.71
-17.15
-11.55
-5.65
0.01
5.10
9.53
13.23
16.08
17.90
18.55
18.12
16.97
15.61
14.57
14.13
14.26
14.65
14.94
14.91
14.56
14.08
13.66
13.36
13.02
12.29
10.92
8.87
6.36
3.79
1.56
-0.24
-1.80
-3.56
-5.94
-9.12
-12.92
-16.85
-20.33
-22.88
-24.18
-24.10
-22.63
-19.83
-15.89
-11.13
-6.01
-1.07
3.27
6.78
9.44
11.43
12.97
14.21
15.21
15.95
16.40
16.55
16.38
15.92
15.20
14.32
13.41
12.62
12.12
11.94
11.95
11.92
11.58
10.74
9.37
7.60
5.54
3.34
1.10
-1.13
-3.35
-5.57
-7.89
-10.43
-13.28
-16.47
-19.92
-23.42
-26.71
-29.54
-31.61
-32.64
-32.25
-30.18
-26.39
-21.11
-14.88
-8.35
-2.14
3.28
7.67
11.00
13.41
15.11
16.35
17.33
18.15
18.89
19.49
19.94
20.24
20.42
20.49
20.43
20.16
19.62
18.88
18.07
17.39
16.93
16.61
16.19
15.38
13.99
12.03
9.68
7.18
4.68
2.24
-0.18
-2.62
-5.02
-7.35
-9.62
-11.96
-14.56
-17.55
-20.89
-24.35
-27.58
-30.16
-31.67
-31.76
-30.16
-26.79
-21.79
-15.59
-8.82
-2.11
4.07
9.44
13.91
17.45
20.00
21.50
22.05
21.83
21.20
20.51
20.05
19.97
20.29
20.94
21.79
22.63
23.25
23.44
23.09
22.24
21.05
19.75
18.49
17.26
15.94
14.39
12.61
10.70
8.88
7.33
6.06
4.87
3.40
1.31
-1.58
-5.18
-9.13
-12.96
-16.27
-18.96
-21.24
-23.49
-26.11
-29.15
-32.20
-34.57
-35.48
-34.47
-31.62
-27.51
-22.93
-18.60
-14.88
-11.77
-9.09
-6.65
-4.42
-2.51
-1.03
0.05
0.91
1.81
2.88
4.09
5.22
6.08
6.61
6.93
7.33
8.00
9.01
10.20
11.27
11.91
11.93
11.28
10.05
8.47
6.81
5.31
4.06
2.99
1.85
0.38
-1.52
-3.74
-6.02
-8.08
-9.82
-11.37
-13.00
-14.98
-17.43
-20.24
-23.08
-25.47
-26.96
-27.17
-25.95
-23.33
-19.53
-14.89
-9.81
-4.68
0.13
4.25
7.49
9.83
11.47
12.67
13.66
14.42
14.75
14.44
13.47
12.14
10.99
10.49
10.79
11.72
12.79
13.56
13.74
13.32
12.45
11.26
9.84
8.20
6.39
4.49
2.69
1.16
-0.03
-0.97
-1.88
-3.03
-4.62
-6.79
-9.49
-12.58
-15.82
-18.84
-21.17
-22.28
-21.77
-19.53
-15.80
-11.14
-6.17
-1.42
2.79
6.35
9.18
11.17
12.18
12.14
11.19
9.64
7.98
6.63
5.84
5.60
5.74
6.03
6.30
6.46
6.44
6.22
5.80
5.20
4.43
3.53
2.48
1.19
-0.41
-2.33
-4.41
-6.39
-7.98
-9.13
-10.01
-11.04
-12.60
-14.80
-17.41
-19.93
-21.82
-22.70
-22.41
-20.99
-18.53
-15.15
-11.02
-6.41
-1.72
2.54
5.93
8.23
9.52
10.06
10.22
10.24
10.25
10.24
10.17
10.00
9.79
9.59
9.44
9.27
9.04
8.71
8.27
7.74
7.13
6.38
5.35
3.88
1.87
-0.61
-3.27
-5.75
-7.67
-8.90
-9.61
-10.29
-11.51
-13.72
-16.96
-20.87
-24.69
-27.56
-28.78
-28.01
-25.37
-21.28
-16.34
-11.12
-6.02
-1.30
2.86
6.32
9.01
10.96
12.37
13.52
14.63
15.70
16.48
16.61
15.82
14.21
12.30
10.80
10.29
10.92
12.36
13.96
15.09
15.31
14.52
12.91
10.73
8.33
5.96
3.83
2.03
0.51
-0.91
-2.44
-4.19
-6.15
-8.17
-10.14
-12.04
-13.99
-16.19
-18.75
-21.65
-24.65
-27.38
-29.33
-30.04
-29.19
-26.71
-22.79
-17.92
-12.67
-7.57
-2.96
1.03
4.48
7.47
10.14
12.54
14.72
16.67
18.34
19.62
20.40
20.66
20.46
19.99
19.47
19.04
18.72
18.49
18.31
18.18
18.08
17.92
17.50
16.60
15.13
13.23
11.22
9.49
8.27
7.47
6.70
5.48
3.46
0.61
-2.77
-6.26
-9.41
-11.95
-13.80
-15.11
-16.13
-17.20
-18.62
-20.62
-23.22
-26.25
-29.23
-31.52
-32.39
-31.27
-27.99
-22.82
-16.43
-9.72
-3.49
1.74
5.79
8.81
11.11
12.98
14.63
16.13
17.48
18.64
19.55
20.18
20.51
20.53
20.37
20.16
20.10
20.27
20.64
21.05
21.28
21.14
20.59
19.74
18.79
17.93
17.18
16.41
15.36
13.78
11.65
9.12
6.56
4.32
2.56
1.24
0.09
-1.16
-2.64
-4.32
-6.12
-7.96
-9.85
-11.86
-14.02
-16.25
-18.46
-20.63
-22.82
-25.18
-27.81
-30.62
-33.18
-34.88
-35.03
-33.12
-29.06
-23.25
-16.52
-9.84
-4.06
0.33
3.33
5.28
6.66
7.86
9.04
10.20
11.24
12.10
12.85
13.59
14.44
15.47
16.68
18.00
19.30
20.40
21.08
21.21
20.79
19.97
19.01
18.11
17.37
16.73
16.05
15.18
14.04
12.66
11.09
9.40
7.64
5.87
4.12
2.44
0.82
-0.80
-2.48
-4.29
-6.26
-8.36
-10.58
-12.89
-15.23
-17.54
-19.70
-21.58
-23.21
-24.63
-25.95
-27.20
-28.21
-28.61
-27.95
-25.84
-22.19
-17.26
-11.59
-5.85
-0.62
3.74
7.14
9.67
11.49
12.67
13.25
13.27
12.88
12.30
11.86
11.75
12.03
12.60
13.27
13.90
14.39
14.72
14.82
14.69
14.29
13.71
13.14
12.78
12.73
12.86
12.84
12.29
10.97
8.94
6.48
4.02
1.92
0.33
-0.82
-1.80
-2.89
-4.28
-6.01
-8.00
-10.09
-12.13
-14.04
-15.76
-17.33
-18.77
-20.15
-21.49
-22.80
-24.00
-24.88
-25.13
-24.40
-22.47
-19.34
-15.35
-10.99
-6.81
-3.09
0.10
2.88
5.35
7.47
9.04
9.82
9.79
9.13
8.29
7.72
7.68
8.17
8.95
9.71
10.21
10.39
10.33
10.15
9.98
9.87
9.86
9.95
10.09
10.16
10.06
9.68
8.96
7.95
6.69
5.22
3.56
1.74
-0.14
-1.91
-3.40
-4.52
-5.34
-6.05
-6.89
-7.98
-9.29
-10.66
-11.93
-13.07
-14.23
-15.62
-17.42
-19.51
-21.54
-22.88
-22.93
-21.32
-18.05
-13.55
-8.50
-3.60
0.66
4.09
6.78
8.90
10.57
11.72
12.22
11.93
10.86
9.26
7.48
5.92
4.82
4.24
4.09
4.19
4.42
4.68
4.94
5.16
5.29
5.27
5.04
4.53
3.72
2.68
1.48
0.27
-0.82
-1.68
-2.31
-2.77
-3.23
-3.88
-4.85
-6.10
-7.49
-8.77
-9.80
-10.56
-11.23
-12.03
-13.15
-14.53
-15.94
-17.01
-17.38
-16.85
-15.40
-13.14
-10.28
-7.06
-3.71
-0.43
2.65
5.39
7.71
9.48
10.61
11.07
10.90
10.24
9.26
8.10
6.91
5.81
4.97
4.61
4.93
5.91
7.27
8.51
9.11
8.78
7.62
6.06
4.61
3.61
3.08
2.76
2.24
1.26
-0.22
-2.00
-3.73
-5.14
-6.10
-6.69
-7.13
-7.72
-8.71
-10.20
-12.07
-14.07
-15.88
-17.25
-18.08
-18.35
-18.06
-17.13
-15.37
-12.63
-8.96
-4.73
-0.57
2.87
5.17
6.32
6.68
6.74
6.89
7.27
7.71
7.98
7.87
7.40
6.76
6.24
6.05
6.26
6.76
7.36
7.90
8.26
8.44
8.43
8.23
7.77
7.03
6.04
4.93
3.82
2.82
1.90
0.95
-0.18
-1.59
-3.24
-5.04
-6.82
-8.45
-9.86
-11.07
-12.18
-13.38
-14.82
-16.63
-18.71
-20.79
-22.42
-23.17
-22.78
-21.22
-18.74
-15.70
-12.41
-9.07
-5.79
-2.61
0.36
3.02
5.30
7.17
8.61
9.63
10.22
10.35
10.02
9.31
8.34
7.31
6.43
5.91
5.96
6.70
8.11
9.97
11.84
13.25
13.87
13.57
12.52
10.98
9.25
7.51
5.87
4.34
2.93
1.59
0.27
-1.08
-2.52
-4.07
-5.74
-7.50
-9.30
-11.09
-12.78
-14.28
-15.60
-16.88
-18.32
-20.13
-22.30
-24.49
-26.13
-26.63
-25.63
-23.15
-19.59
-15.48
-11.30
-7.33
-3.64
-0.21
2.98
5.87
8.31
10.11
11.20
11.58
11.48
11.23
11.19
11.61
12.50
13.72
15.07
16.44
17.79
19.14
20.37
21.24
21.46
20.84
19.45
17.61
15.78
14.30
13.33
12.79
12.47
12.15
11.65
10.83
9.57
7.78
5.49
2.84
0.11
-2.43
-4.61
-6.43
-8.04
-9.68
-11.55
-13.74
-16.19
-18.76
-21.20
-23.15
-24.18
-23.82
-21.74
-17.91
-12.65
-6.54
-0.25
5.71
10.97
15.39
19.06
22.07
24.55
26.58
28.24
29.64
30.96
32.36
33.98
35.93
38.21
40.75
43.48
46.30
49.24
52.36
55.57
58.69
61.49
63.85
65.84
67.72
69.90
72.71
76.27
79.88
82.61
83.60
82.50
79.61
75.80
72.14
69.55
68.55
68.17
67.07
64.05
58.42
50.10
39.06
24.91
7.06
-14.92
-42.25
-74.97
-111.88
-150.60
-188.35
-222.87
-252.96
-278.42
-299.42
-317.99
-335.83
-353.99
-372.64
-391.24
-409.11
-425.86
-441.44
-443.21
-421.56
-371.41
-295.46
-203.47
-107.67
-17.93
60.24
125.10
177.20
216.20
242.26
256.16
259.87
256.45
249.36
241.63
235.37
231.68
229.50
227.20
223.33
217.13
208.90
199.53
190.09
181.43
173.69
165.82
156.69
145.47
132.07
117.23
102.33
88.85
77.63
69.21
63.25
59.09
55.95
53.20
50.52
47.76
45.06
42.43
40.44
40.00
41.96
46.75
53.93
62.17
69.34
75.94
81.35
85.37
88.40
91.15
94.15
97.40
100.49
102.69
103.35
101.66
97.36
90.61
81.89
71.93
61.55
51.67
43.09
36.31
31.17
27.20
23.72
19.95
15.25
9.27
1.88
-6.83
-16.94
-29.01
-43.94
-62.53
-84.85
-109.55
-133.72
-153.51
-165.52
-168.17
-162.52
-151.74
-139.78
-129.90
-123.97
-122.46
-124.80
-129.86
-135.97
-140.91
-142.28
-138.32
-128.88
-115.80
-102.23
-91.15
-83.87
-79.44
-75.26
-68.65
-58.22
-44.52
-29.64
-16.00
-5.36
1.78
6.11
8.89
11.36
14.21
17.44
20.53
22.82
23.74
22.93
20.28
15.79
9.56
1.89
-6.47
-14.41
-20.57
-23.78
-23.60
-20.50
-15.88
-11.43
-8.63
-8.22
-10.01
-13.15
-16.53
-19.14
-20.33
-19.79
-17.53
-13.80
-8.96
-3.48
2.25
7.92
13.40
18.65
23.58
27.90
31.20
33.07
33.37
32.34
30.59
28.73
27.10
25.55
23.63
20.77
16.66
11.46
5.67
-0.11
-5.48
-10.38
-14.93
-19.25
-23.28
-26.67
-29.09
-30.33
-30.56
-30.30
-30.23
-30.86
-32.38
-34.54
-36.89
-38.86
-40.10
-40.46
-40.08
-39.22
-38.21
-37.41
-36.96
-36.83
-36.66
-35.96
-34.16
-30.87
-26.04
-20.00
-13.28
-6.44
0.06
5.86
10.66
14.11
15.92
16.00
14.59
12.28
9.87
8.06
7.36
7.95
9.80
12.71
16.36
20.29
23.85
26.32
27.03
25.64
22.23
17.37
11.83
6.45
1.86
-1.63
-4.01
-5.46
-6.32
-6.93
-7.59
-8.60
-10.11
-12.23
-14.87
-17.80
-20.65
-23.03
-24.57
-25.05
-24.53
-23.33
-22.08
-21.61
-22.68
-25.71
-30.48
-35.98
-40.67
-42.89
-41.47
-36.20
-27.87
-17.98
-8.18
0.31
6.91
11.69
15.13
17.80
20.17
22.50
24.78
26.85
28.44
29.35
29.53
29.14
28.54
28.07
27.93
28.03
28.10
27.80
26.90
25.41
23.43
21.11
18.57
15.87
13.14
10.57
8.40
6.91
6.30
6.57
7.49
8.60
9.30
8.99
7.39
4.52
0.77
-3.21
-6.83
-9.77
-12.02
-13.90
-15.84
-18.25
-21.43
-25.58
-30.72
-36.61
-42.48
-47.13
-49.04
-46.90
-40.07
-29.00
-15.18
-0.78
11.96
21.51
27.34
30.02
30.91
31.57
33.25
36.50
41.17
46.51
51.57
55.58
58.16
59.43
59.98
60.62
62.13
64.93
68.87
73.26
77.10
79.57
80.47
80.28
80.08
81.11
84.42
90.49
98.93
108.26
115.94
118.78
113.80
99.36
75.87
45.67
12.12
-21.86
-54.92
-87.45
-120.46
-154.15
-186.86
-215.24
-235.51
-245.15
-244.04
-234.34
-219.55
-202.98
-186.68
-170.97
-154.92
-137.32
-117.40
-95.38
-72.22
-49.31
-27.89
-8.77
7.67
21.33
32.16
40.03
44.82
46.67
46.02
43.68
40.61
37.73
35.72
34.87
35.19
36.31
37.73
38.84
39.23
38.70
37.37
35.59
33.70
31.93
30.36
28.95
27.60
26.31
25.08
23.88
22.65
21.29
19.76
18.20
16.80
15.78
15.13
14.55
13.51
11.57
8.53
4.60
0.38
-3.50
-6.65
-9.00
-10.84
-12.61
-14.69
-17.36
-20.61
-24.04
-26.80
-27.74
-25.74
-20.16
-11.25
-0.05
11.79
22.63
31.24
37.04
40.13
41.15
41.10
41.07
42.01
44.41
48.19
52.84
57.72
62.76
68.65
76.56
87.52
101.51
117.02
131.26
140.90
142.90
135.34
117.80
91.38
58.51
22.51
-13.18
-45.52
-72.47
-93.29
-108.36
-118.79
-125.98
-131.01
-134.51
-136.54
-136.73
-134.41
-128.83
-119.39
-106.11
-89.79
-72.03
-54.98
-40.73
-30.77
-25.55
-24.50
-26.27
-29.41
-32.86
-36.24
-39.62
-42.99
-45.89
-47.28
-46.08
-41.71
-34.52
-25.64
-16.40
-7.85
-0.50
5.50
10.05
12.77
13.27
11.44
7.71
3.07
-1.43
-5.16
-8.02
-10.41
-12.70
-14.98
-16.97
-18.30
-18.77
-18.56
-18.14
-18.07
-18.70
-20.11
-22.07
-24.11
-25.72
-26.51
-26.27
-25.02
-23.09
-20.99
-19.28
-18.46
-18.74
-19.90
-21.33
-22.12
-21.56
-19.27
-15.50
-10.84
-5.88
-0.97
4.07
9.62
15.98
23.01
30.20
36.77
42.06
45.74
47.78
48.36
47.78
46.44
44.76
43.22
42.12
41.47
40.92
40.00
38.40
36.15
33.64
31.41
29.92
29.27
29.27
29.57
29.89
30.12
30.24
30.30
30.26
29.94
29.18
27.90
26.18
24.12
21.84
19.26
16.19
12.48
8.16
3.57
-0.74
-4.31
-7.05
-9.33
-11.80
-14.90
-18.58
-22.14
-24.64
-25.25
-23.67
-20.13
-15.14
-9.21
-2.67
4.12
10.64
16.20
20.12
22.12
22.42
21.62
20.34
18.94
17.43
15.70
13.74
11.81
10.35
9.65
9.77
10.50
11.44
12.25
12.69
12.67
12.12
11.09
9.65
8.03
6.41
4.91
3.42
1.74
-0.41
-3.13
-6.31
-9.64
-12.72
-15.29
-17.29
-18.92
-20.50
-22.33
-24.61
-27.26
-30.03
-32.41
-33.82
-33.64
-31.42
-26.98
-20.52
-12.59
-4.06
4.20
11.40
17.06
21.04
23.57
25.09
26.07
26.84
27.53
28.02
28.09
27.51
26.27
24.60
23.00
22.01
22.03
23.04
24.64
26.18
27.05
26.94
25.87
24.07
21.84
19.34
16.68
13.90
11.13
8.49
6.07
3.85
1.70
-0.54
-2.95
-5.58
-8.39
-11.33
-14.34
-17.41
-20.62
-24.09
-27.94
-32.13
-36.24
-39.39
-40.44
-38.39
-32.79
-24.17
-13.79
-3.32
5.80
12.78
17.50
20.38
22.02
22.87
23.16
22.95
22.21
21.01
19.53
18.08
16.95
16.28
16.08
16.10
16.13
16.00
15.72
15.49
15.38
15.35
15.16
14.56
13.48
12.14
10.88
10.00
9.53
9.12
8.24
6.41
3.41
-0.67
-5.44
-10.31
-14.59
-17.73
-19.53
-20.16
-20.23
-20.56
-21.82
-24.38
-28.09
-32.40
-36.51
-39.52
-40.49
-38.65
-33.57
-25.39
-15.02
-3.91
6.25
14.15
19.24
21.89
23.02
23.60
24.19
24.81
25.13
24.86
23.97
22.75
21.62
20.80
20.26
19.79
19.22
18.61
18.22
18.41
19.40
21.05
22.90
24.24
24.48
23.30
20.79
17.41
13.77
10.35
7.38
4.86
2.66
0.69
-1.06
-2.51
-3.69
-4.71
-5.83
-7.29
-9.21
-11.48
-13.88
-16.09
-17.95
-19.56
-21.24
-23.45
-26.59
-30.75
-35.54
-40.16
-43.46
-44.35
-42.08
-36.59
-28.44
-18.73
-8.64
0.80
8.91
15.40
20.12
23.05
24.32
24.23
23.30
22.21
21.48
21.31
21.47
21.52
21.13
20.28
19.28
18.56
18.42
18.81
19.42
19.92
20.04
19.62
18.71
17.35
15.68
13.85
12.08
10.51
9.22
8.09
6.87
5.30
3.22
0.77
-1.76
-4.05
-5.94
-7.48
-8.91
-10.47
-12.23
-14.10
-15.78
-17.05
-17.88
-18.67
-20.05
-22.73
-27.02
-32.60
-38.46
-43.11
-45.13
-43.63
-38.53
-30.54
-20.92
-11.02
-1.91
5.71
11.63
15.91
18.79
20.58
21.52
21.80
21.51
20.73
19.49
17.97
16.35
14.81
13.50
12.40
11.50
10.73
10.11
9.74
9.71
10.05
10.63
11.08
11.04
10.19
8.43
5.94
3.04
0.15
-2.49
-4.76
-6.83
-8.96
-11.37
-14.21
-17.27
-20.11
-22.21
-23.20
-23.18
-22.77
-22.97
-24.77
-28.59
-34.00
-39.78
-44.41
-46.67
-46.12
-43.05
-38.11
-31.89
-24.63
-16.50
-7.82
0.64
7.89
13.16
16.28
17.82
18.78
19.97
21.66
23.48
24.81
25.16
24.42
22.85
20.80
18.53
16.24
14.19
12.86
12.88
14.68
18.25
22.82
27.15
29.90
30.17
27.88
23.75
18.90
14.35
10.63
7.70
5.17
2.60
-0.19
-3.17
-6.14
-8.95
-11.63
-14.27
-17.01
-19.94
-23.10
-26.44
-29.82
-32.79
-34.58
-34.16
-30.67
-23.82
-14.18
-3.12
7.61
16.49
22.66
26.06
27.28
27.13
26.31
25.29
24.33
23.60
23.23
23.25
23.49
23.61
23.25
22.17
20.45
18.45
16.71
15.73
15.72
16.60
17.98
19.33
20.12
19.93
18.57
16.11
12.90
9.42
6.16
3.38
1.11
-0.83
-2.68
-4.60
-6.59
-8.53
-10.35
-12.04
-13.76
-15.73
-18.24
-21.43
-25.33
-29.76
-34.32
-38.45
-41.45
-42.62
-41.41
-37.56
-31.26
-23.15
-14.25
-5.64
1.77
7.55
11.71
14.61
16.74
18.38
19.61
20.29
20.27
19.50
18.06
16.18
14.05
11.85
9.69
7.70
6.03
4.83
4.19
4.08
4.32
4.70
4.97
4.98
4.69
4.04
2.97
1.40
-0.72
-3.31
-6.18
-9.09
-11.96
-14.78
-17.63
-20.47
-23.10
-25.11
-26.26
-26.70
-26.99
-28.08
-30.67
-34.81
-39.67
-43.77
-45.50
-43.73
-38.23
-29.55
-18.87
-7.56
3.07
12.00
18.64
22.85
24.96
25.63
25.58
25.39
25.34
25.36
25.26
24.86
24.13
23.23
22.34
21.65
21.16
20.88
20.70
20.52
20.28
19.88
19.24
18.31
16.97
15.16
12.77
9.74
6.04
1.89
-2.27
-5.86
-8.30
-9.32
-9.08
-8.15
-7.35
-7.30
-8.30
-10.19
-12.57
-15.10
-17.64
-20.37
-23.59
-27.43
-31.63
-35.38
-37.56
-37.01
-33.11
-26.00
-16.65
-6.51
2.98
10.89
16.91
21.23
24.20
26.05
26.82
26.55
25.39
23.75
22.13
20.95
20.39
20.34
20.47
20.39
19.80
18.62
16.97
15.19
13.67
12.70
12.34
12.35
12.31
11.88
10.96
9.70
8.42
7.27
6.18
4.78
2.73
-0.15
-3.67
-7.46
-11.11
-14.38
-17.18
-19.53
-21.45
-22.95
-24.09
-25.09
-26.30
-28.10
-30.62
-33.52
-35.93
-36.56
-34.29
-28.64
-20.05
-9.82
0.34
8.95
15.15
18.84
20.49
20.76
20.13
18.94
17.35
15.56
13.86
12.52
11.68
11.29
11.13
10.96
10.66
10.28
9.99
9.94
10.12
10.27
10.00
9.07
7.45
5.41
3.29
1.32
-0.45
-2.21
-4.21
-6.57
-9.22
-11.96
-14.44
-16.37
-17.61
-18.23
-18.57
-19.18
-20.64
-23.36
-27.27
-31.69
-35.42
-37.00
-35.28
-29.89
-21.44
-11.32
-1.25
7.35
13.82
18.29
21.36
23.65
25.43
26.54
26.60
25.34
22.85
19.58
16.17
13.24
11.18
10.15
10.05
10.63
11.60
12.69
13.69
14.45
14.83
14.64
13.70
11.89
9.23
6.02
2.69
-0.33
-2.82
-4.87
-6.81
-8.95
-11.44
-14.18
-16.90
-19.39
-21.57
-23.51
-25.39
-27.40
-29.67
-32.24
-34.99
-37.51
-39.12
-38.90
-36.07
-30.29
-21.96
-12.06
-1.97
7.08
14.31
19.50
22.88
24.85
25.85
26.20
26.15
25.84
25.30
24.54
23.58
22.44
21.27
20.24
19.58
19.47
19.87
20.51
20.99
20.90
19.96
18.18
15.81
13.18
10.57
8.22
6.24
4.64
3.38
2.29
1.17
-0.24
-2.13
-4.54
-7.37
-10.41
-13.42
-16.20
-18.60
-20.60
-22.38
-24.31
-26.90
-30.52
-35.08
-39.77
-43.22
-43.95
-40.95
-34.19
-24.58
-13.59
-2.75
6.81
14.53
20.27
24.09
26.16
26.73
26.19
25.04
23.76
22.67
21.81
20.99
19.92
18.51
16.88
15.33
14.21
13.67
13.64
13.79
13.80
13.40
12.58
11.49
10.30
9.16
8.08
7.03
5.86
4.50
2.89
1.02
-1.06
-3.25
-5.36
-7.24
-8.85
-10.37
-12.05
-14.19
-16.84
-19.80
-22.69
-25.20
-27.36
-29.53
-32.29
-35.92
-40.21
-44.24
-46.65
-46.11
-41.86
-34.08
-23.75
-12.40
-1.54
7.78
15.12
20.62
24.57
27.18
28.43
28.32
27.01
25.04
23.17
22.05
21.90
22.37
22.82
22.68
21.79
20.54
19.58
19.45
20.20
21.38
22.23
22.18
21.03
19.11
16.95
15.02
13.46
12.06
10.52
8.64
6.49
4.25
2.03
-0.25
-2.82
-5.77
-8.85
-11.39
-12.64
-12.20
-10.35
-8.17
-7.03
-8.15
-12.11
-18.63
-26.77
-35.25
-42.76
-48.16
-50.64
-49.71
-45.40
-38.28
-29.41
-20.03
-11.24
-3.71
2.49
7.67
12.22
16.26
19.65
21.99
23.00
22.60
21.02
18.79
16.46
14.53
13.33
12.88
13.03
13.49
13.99
14.25
14.18
13.79
13.18
12.51
11.77
10.83
9.53
7.72
5.46
2.98
0.59
-1.40
-2.91
-4.11
-5.33
-6.90
-8.90
-11.16
-13.29
-14.92
-15.83
-16.12
-16.14
-16.30
-17.05
-18.63
-21.09
-24.24
-27.62
-30.57
-32.19
-31.65
-28.35
-22.22
-13.90
-4.58
4.38
11.88
17.41
21.02
23.06
23.87
23.58
22.23
19.90
16.92
13.84
11.18
9.33
8.40
8.30
8.85
9.88
11.20
12.53
13.58
14.06
13.83
12.97
11.65
10.11
8.52
6.96
5.42
3.80
2.01
-0.10
-2.64
-5.66
-9.02
-12.52
-15.86
-18.78
-21.19
-23.06
-24.51
-25.72
-26.92
-28.27
-29.76
-31.05
-31.48
-30.25
-26.69
-20.62
-12.45
-3.15
6.10
14.17
20.34
24.28
26.07
26.04
24.72
22.71
20.59
18.81
17.56
16.87
16.45
16.03
15.42
14.53
13.45
12.35
11.37
10.70
10.47
10.55
10.48
9.67
7.65
4.30
-0.03
-4.74
-9.00
-12.25
-14.63
-16.82
-19.64
-23.56
-28.53
-34.14
-39.93
-45.41
-50.48
-55.83
-62.69
-72.11
-84.45
-98.85
-113.24
-124.54
-128.88
-122.82
-104.80
-75.84
-39.19
0.45
38.22
70.63
92.50
100.12
93.76
76.99
54.05
28.18
1.46
-24.65
-49.06
-70.79
-89.17
-104.07
-116.10
-126.34
-135.59
-144.09
-151.44
-158.24
-163.05
-164.61
-162.30
-156.39
-147.94
-138.26
-128.58
-119.80
-112.56
-106.59
-101.50
-96.84
-92.29
-87.67
-82.80
-77.09
-69.31
-61.03
-52.14
-42.22
-30.76
-17.50
-2.56
13.52
30.09
46.47
62.19
77.55
92.94
108.78
125.50
143.47
162.73
182.81
202.36
219.19
231.04
235.78
232.35
221.31
204.71
185.38
165.96
148.11
132.28
118.27
105.63
94.13
83.95
75.40
68.53
62.94
57.84
52.31
45.83
38.29
30.07
21.73
13.81
6.59
0.10
-5.79
-11.24
-16.26
-20.85
-25.00
-28.82
-32.52
-36.35
-40.45
-44.83
-49.34
-53.84
-58.29
-62.81
-67.46
-72.20
-76.60
-79.89
-81.15
-79.62
-74.96
-67.41
-57.72
-46.83
-35.68
-24.85
-14.68
-5.32
3.07
10.22
15.81
19.65
21.84
22.79
23.09
23.31
23.84
24.80
26.19
27.86
29.68
31.48
33.03
34.07
34.38
33.83
32.48
30.49
28.07
25.37
22.50
19.45
16.18
12.64
8.75
4.48
-0.12
-4.93
-9.77
-14.48
-18.99
-23.38
-27.80
-32.33
-36.79
-40.63
-43.02
-43.05
-40.13
-34.20
-25.79
-15.89
-5.71
3.65
11.38
17.02
20.42
21.72
21.24
19.47
17.04
14.64
12.99
12.59
13.56
15.62
18.18
20.54
22.14
22.74
22.39
21.28
19.54
17.14
13.99
10.03
5.36
0.29
-4.75
-9.39
-13.33
-16.32
-18.19
-18.83
-18.33
-17.01
-15.51
-14.56
-14.85
-16.71
-19.96
-24.03
-28.01
-31.01
-32.29
-31.43
-28.36
-23.32
-16.72
-8.99
-0.55
8.32
17.34
26.17
34.42
41.62
47.42
51.64
54.39
55.92
56.58
56.61
56.15
55.29
54.16
53.01
52.16
51.88
52.28
53.21
54.28
54.98
54.92
53.85
51.79
48.93
45.54
41.86
38.10
34.41
30.87
27.52
24.25
21.00
17.64
14.12
10.45
6.56
2.31
-2.58
-8.33
-14.89
-21.78
-28.13
-32.90
-35.23
-34.72
-31.42
-25.75
-18.31
-9.80
-0.93
7.61
15.25
21.65
26.74
30.66
33.58
35.64
36.87
37.28
37.03
36.43
35.85
35.58
35.69
36.03
36.38
36.58
36.64
36.67
36.78
36.96
37.06
36.76
35.72
33.76
30.85
27.22
23.18
19.05
14.98
11.01
7.08
3.14
-0.76
-4.52
-8.09
-11.54
-15.12
-19.19
-24.05
-29.74
-35.93
-41.96
-46.98
-50.19
-51.04
-49.33
-45.24
-39.14
-31.55
-22.97
-13.94
-4.96
3.49
11.01
17.31
22.28
25.98
28.59
30.42
31.73
32.77
33.63
34.34
34.83
35.13
35.34
35.63
36.08
36.64
37.16
37.42
37.30
36.84
36.12
35.18
34.08
32.77
31.15
29.24
27.18
25.24
23.67
22.53
21.71
21.02
20.20
19.03
17.46
15.62
13.86
12.63
12.12
12.32
13.21
14.59
16.25
18.14
20.50
23.90
29.16
37.00
48.08
63.66
84.51
110.53
140.35
171.32
199.97
222.71
236.28
239.16
233.09
220.80
204.78
186.35
165.69
142.85
118.68
94.58
73.42
60.51
59.30
70.20
90.31
114.79
139.06
160.23
176.42
188.38
200.95
218.10
241.69
270.92
303.01
335.03
364.97
390.73
389.11
344.88
253.87
127.45
-12.47
-144.32
-254.42
-330.74
-380.35
-410.67
-423.65
-420.33
-402.58
-374.20
-340.91
-307.59
-277.37
-252.56
-232.27
-212.30
-189.34
-162.09
-131.80
-101.59
-74.78
-53.72
-40.31
-33.84
-31.17
-29.30
-26.19
-21.34
-15.66
-10.52
-7.11
-6.55
-8.38
-10.77
-11.91
-10.57
-6.42
-0.02
7.54
14.97
20.82
24.34
25.62
25.22
24.16
23.56
24.28
26.70
30.68
35.72
41.39
47.29
52.88
57.33
59.58
58.67
54.25
46.95
38.28
30.08
23.79
20.02
18.47
18.36
18.89
19.49
19.81
19.49
18.02
14.75
9.14
1.02
-9.28
-21.13
-33.84
-46.90
-60.23
-74.12
-89.07
-105.75
-124.77
-146.52
-170.78
-196.40
-221.16
-242.12
-256.35
-261.89
-258.46
-247.33
-230.82
-211.26
-190.50
-169.70
-149.71
-131.44
-115.96
-104.23
-96.59
-92.63
-91.26
-91.33
-92.18
-93.91
-97.28
-103.14
-111.83
-122.75
-134.43
-144.73
-151.50
-153.04
-148.55
-138.20
-123.01
-104.62
-84.88
-65.62
-48.30
-33.87
-22.68
-14.61
-9.15
-5.59
-3.11
-0.74
2.55
7.83
16.07
27.90
43.48
62.20
82.73
103.06
120.89
134.20
141.76
143.46
140.19
133.44
124.63
114.71
103.98
92.21
78.94
63.81
46.72
27.88
7.80
-12.79
-33.07
-52.16
-69.25
-83.63
-94.75
-102.36
-106.48
-107.45
-105.81
-102.00
-96.10
-87.76
-76.32
-61.38
-43.35
-23.60
-4.28
12.34
24.68
32.31
35.94
36.96
36.73
36.11
35.29
34.02
32.09
29.63
27.23
25.60
25.27
26.34
28.50
31.30
34.44
37.92
41.86
46.32
51.01
55.45
59.07
61.40
62.22
61.18
57.82
51.51
41.77
28.69
13.11
-3.53
-19.67
-34.09
-46.24
-56.14
-64.14
-70.56
-75.58
-79.10
-80.86
-80.45
-77.49
-71.81
-63.67
-53.94
-43.89
-34.86
-27.88
-23.33
-21.06
-20.56
-21.26
-22.60
-24.08
-25.18
-25.38
-24.31
-21.86
-18.25
-13.83
-9.08
-4.35
0.07
3.84
6.62
8.07
8.06
6.67
4.13
0.59
-4.03
-9.99
-17.45
-26.16
-35.26
-43.53
-49.82
-53.54
-54.85
-54.51
-53.52
-52.67
-52.34
-52.46
-52.68
-52.49
-51.26
-48.25
-42.69
-33.95
-21.80
-6.66
10.44
28.09
45.00
60.34
73.89
85.91
96.71
106.26
114.18
119.76
122.44
122.13
119.32
114.86
109.63
104.27
99.03
93.81
88.38
82.59
76.47
70.20
63.98
57.83
51.55
44.71
36.99
28.48
19.86
12.17
6.35
2.64
0.40
-1.65
-4.87
-10.00
-16.88
-24.55
-31.79
-37.60
-41.61
-43.95
-45.11
-45.64
-45.92
-46.00
-45.52
-43.64
-39.23
-31.10
-18.44
-1.27
19.43
41.78
63.41
81.77
94.79
101.15
100.61
93.99
82.88
69.20
54.72
40.68
27.77
16.37
6.87
-0.08
-3.65
-3.28
0.97
8.19
16.73
24.62
30.17
32.37
31.09
26.93
20.78
13.53
5.68
-2.62
-11.32
-20.19
-28.55
-35.50
-40.21
-42.47
-42.79
-42.35
-42.46
-44.05
-47.36
-51.92
-56.91
-61.41
-64.56
-65.58
-63.71
-58.35
-49.31
-37.11
-23.05
-8.93
3.39
12.59
18.16
20.40
20.12
18.33
15.88
13.43
11.34
9.87
9.11
9.01
9.36
9.67
9.37
7.93
5.04
0.81
-4.25
-9.32
-13.60
-16.49
-17.75
-17.43
-15.68
-12.66
-8.48
-3.09
3.58
11.58
20.85
31.08
41.60
51.38
59.20
63.87
64.45
60.44
51.77
38.82
22.30
3.11
-17.79
-39.46
-60.91
-81.11
-98.76
-112.29
-119.94
-120.40
-113.28
-99.58
-81.57
-62.05
-43.54
-27.58
-14.62
-4.29
3.96
10.54
15.63
19.32
21.90
23.82
25.57
27.34
29.11
30.66
32.04
33.75
36.73
42.08
50.43
61.66
74.65
87.60
98.54
105.88
108.89
107.84
104.04
99.53
96.64
97.26
101.85
108.98
115.32
116.67
109.60
92.95
68.37
39.70
11.26
-13.89
-34.94
-53.23
-71.45
-92.55
-118.66
-150.55
-186.97
-224.48
-257.98
-281.78
-291.47
-285.45
-265.40
-235.44
-200.47
-164.55
-130.14
-98.50
-70.48
-47.06
-29.25
-17.57
-11.45
-9.23
-8.79
-8.33
-7.17
-5.75
-5.44
-7.71
-13.38
-22.24
-33.03
-44.05
-53.90
-62.16
-69.35
-76.50
-84.34
-92.71
-100.73
-107.29
-111.86
-114.96
-117.73
-121.03
-124.46
-125.91
-122.16
-110.05
-87.97
-56.71
-19.50
18.97
53.91
81.77
100.83
110.96
112.89
107.51
95.70
78.66
58.44
37.96
20.41
8.42
3.10
4.05
9.87
19.02
29.84
40.09
46.31
44.03
29.34
0.98
-38.10
-81.09
-119.48
-146.03
-157.04
-152.76
-136.15
-110.86
-79.82
-44.97
-7.96
29.22
64.02
93.98
117.33
133.60
143.36
147.74
147.95
144.94
139.45
132.44
125.28
119.77
117.61
119.94
126.95
137.79
150.88
164.29
175.97
183.82
185.60
179.05
162.21
133.93
94.43
45.46
-10.07
-68.69
-127.12
-182.51
-232.40
-274.35
-305.73
-324.00
-327.45
-316.00
-291.63
-257.84
-218.41
-175.94
-131.28
-84.09
-34.25
16.72
65.24
106.59
136.80
154.39
160.96
160.56
158.00
157.26
160.28
166.78
174.85
182.11
187.08
189.91
192.42
197.13
205.90
219.02
235.21
252.64
270.08
287.28
304.07
319.20
329.39
330.12
317.50
290.45
251.72
206.82
161.86
120.87
84.83
52.02
19.82
-13.22
-46.28
-76.50
-100.25
-114.82
-119.43
-115.39
-105.35
-92.26
-78.64
-66.46
-57.47
-53.31
-55.30
-63.91
-78.23
-95.80
-113.15
-126.55
-132.97
-130.86
-120.20
-102.45
-80.25
-56.92
-35.77
-19.37
-8.97
-4.46
-5.06
-9.21
-15.16
-21.58
-28.27
-36.44
-48.48
-67.04
-93.79
-129.30
-171.32
-215.08
-254.63
-284.90
-303.06
-308.99
-304.61
-292.97
-278.90
-266.38
-257.77
-253.49
-252.35
-251.98
-249.29
-241.10
-225.19
-202.89
-176.67
-149.07
-121.93
-96.43
-73.34
-53.16
-36.17
-10.67
27.59
75.33
123.63
164.04
192.46
208.90
215.40
214.32
207.70
195.47
178.03
157.01
135.02
114.62
97.40
83.84
73.61
65.55
57.79
49.11
39.36
29.28
19.67
10.79
2.28
-6.49
-16.06
-27.47
-41.15
-56.54
-72.33
-87.05
-99.52
-109.04
-115.18
-118.32
-119.29
-118.92
-117.87
-116.48
-114.87
-113.06
-110.96
-108.39
-105.12
-101.02
-96.08
-90.36
-83.85
-76.51
-68.18
-58.63
-47.63
-35.10
-21.12
-6.11
9.30
24.51
39.09
52.96
66.28
79.44
92.94
107.35
123.18
140.54
158.77
176.30
190.68
199.31
200.31
193.30
179.62
161.81
142.65
124.17
107.29
91.87
77.29
63.04
48.96
35.15
21.72
8.57
-4.64
-18.36
-32.78
-47.79
-62.77
-76.81
-88.82
-97.76
-102.74
-103.11
-98.55
-89.18
-75.67
-59.48
-42.72
-27.75
-16.45
-9.50
-6.13
-4.14
-0.70
6.86
20.17
39.40
63.25
89.37
115.01
137.83
156.35
170.13
179.63
185.70
189.10
190.15
188.83
185.07
179.06
171.45
163.09
154.63
146.23
137.48
127.63
115.92
102.11
86.52
70.03
53.76
38.64
25.18
13.32
2.62
-7.48
-17.38
-27.21
-36.85
-46.02
-54.42
-61.72
-67.52
-71.28
-72.44
-70.54
-65.44
-57.49
-47.46
-36.45
-25.55
-15.66
-7.25
-0.41
5.03
9.36
12.84
15.72
18.21
20.52
22.86
25.37
28.15
31.13
34.20
37.19
39.97
42.43
44.49
46.08
47.01
47.10
46.18
44.17
41.16
37.38
33.14
28.71
24.29
19.85
15.26
10.39
5.19
-0.22
-5.60
-10.71
-15.35
-19.42
-22.97
-26.17
-29.24
-32.36
-35.74
-39.54
-43.77
-48.16
-52.05
-54.47
-54.46
-51.34
-44.89
-35.50
-24.05
-11.66
0.65
12.10
22.31
31.17
38.69
45.23
51.04
56.24
60.82
64.64
67.61
69.75
71.20
72.18
73.77
76.89
82.06
89.11
97.34
105.80
113.67
120.40
125.74
131.33
138.69
148.61
160.83
174.21
187.34
199.14
208.97
216.54
224.56
235.41
250.38
269.05
289.44
309.05
325.91
338.93
347.86
356.42
367.67
382.86
400.69
417.90
431.10
438.28
439.23
412.60
345.98
237.14
97.23
-53.07
-192.90
-308.52
-395.04
-454.20
-491.11
-508.25
-508.16
-493.88
-469.41
-439.71
-409.40
-381.72
-358.20
-338.95
-320.54
-299.75
-274.72
-245.64
-214.68
-184.67
-157.91
-135.69
-118.35
-103.95
-90.26
-76.17
-61.62
-47.77
-35.92
-26.85
-20.61
-16.62
-13.14
-8.56
-1.82
7.41
18.26
29.68
40.73
50.80
59.66
67.65
75.27
82.97
91.11
99.16
106.68
113.19
118.29
121.57
122.65
120.90
115.20
108.16
100.45
92.26
83.46
73.90
63.48
52.37
40.98
29.88
19.65
10.05
0.70
-8.91
-19.30
-30.75
-43.22
-56.30
-69.44
-82.09
-94.36
-106.51
-118.97
-132.18
-146.64
-162.86
-181.07
-200.88
-220.89
-238.92
-252.14
-258.04
-255.44
-245.05
-229.26
-211.11
-193.07
-176.34
-161.04
-146.63
-132.72
-119.37
-106.99
-95.91
-86.02
-76.92
-68.29
-60.22
-53.13
-47.39
-43.02
-39.32
-35.19
-29.52
-21.73
-11.97
-1.01
9.98
19.85
27.68
33.00
35.78
36.41
35.58
34.00
32.24
30.53
28.73
26.57
23.86
20.71
17.63
15.26
14.02
13.93
14.48
14.88
14.54
13.28
11.47
9.67
8.37
7.54
6.78
5.49
3.24
-0.03
-3.89
-7.74
-10.96
-13.19
-14.43
-14.97
-15.23
-15.61
-16.33
-17.51
-19.02
-20.69
-22.17
-22.93
-22.24
-19.23
-13.22
-4.08
7.43
19.86
31.46
40.83
47.25
50.83
52.20
52.08
50.98
49.09
46.41
43.04
39.31
35.73
32.75
30.66
29.43
28.86
28.67
28.61
28.53
28.31
27.88
27.03
25.61
23.38
20.19
16.08
11.26
6.15
1.26
-2.96
-6.29
-8.85
-11.06
-13.42
-16.32
-19.84
-23.79
-27.96
-32.36
-37.21
-42.81
-49.11
-55.41
-60.43
-62.65
-60.93
-55.03
-45.68
-34.41
-22.91
-12.67
-4.51
1.30
4.97
6.91
7.61
7.50
7.03
6.58
6.45
6.73
7.25
7.62
7.45
6.57
5.19
3.80
2.91
2.69
2.75
2.30
0.50
-3.06
-8.08
-13.69
-18.88
-22.85
-25.29
-26.34
-26.36
-25.74
-24.88
-24.08
-23.54
-23.36
-23.43
-23.44
-23.12
-22.27
-20.92
-19.49
-18.58
-18.75
-20.30
-22.95
-25.91
-27.98
-27.99
-25.18
-19.50
-11.67
-2.91
5.52
12.65
18.02
21.55
23.41
23.85
23.18
21.81
20.13
18.49
17.01
15.61
14.19
12.77
11.54
10.69
10.33
10.25
10.12
9.62
8.63
7.38
6.14
5.12
4.20
3.08
1.44
-0.78
-3.35
-5.89
-8.14
-10.12
-12.00
-14.04
-16.23
-18.28
-19.78
-20.46
-20.35
-19.90
-19.75
-20.40
-22.15
-24.92
-28.37
-31.98
-35.03
-36.68
-36.02
-32.40
-25.67
-16.35
-5.54
5.35
15.03
22.62
27.78
30.68
31.79
31.66
30.76
29.41
27.77
25.98
24.13
22.34
20.71
19.26
17.90
16.59
15.34
14.29
13.63
13.42
13.49
13.49
13.07
12.11
10.79
9.34
7.94
6.54
4.99
3.19
1.31
-0.40
-1.78
-2.96
-4.30
-6.14
-8.56
-11.27
-13.78
-15.66
-16.78
-17.37
-17.86
-18.66
-19.95
-21.43
-22.53
-22.42
-20.30
-15.69
-8.67
0.03
9.24
17.68
24.38
28.91
31.40
32.31
32.16
31.32
30.00
28.31
26.34
24.28
22.37
20.90
20.04
19.84
20.07
20.36
20.36
19.89
19.05
18.15
17.47
17.02
16.45
15.27
13.09
9.96
6.36
3.07
0.53
-1.35
-3.21
-5.77
-9.38
-13.62
-17.55
-20.24
-21.20
-20.69
-19.49
-18.37
-17.82
-17.91
-18.53
-19.61
-21.23
-23.39
-25.75
-27.46
-27.33
-24.31
-18.04
-9.07
1.35
11.70
20.73
27.82
32.93
36.40
38.56
39.55
39.34
37.85
35.17
31.63
27.76
24.05
20.82
18.16
15.98
14.17
12.69
11.64
11.19
11.40
12.16
13.12
13.74
13.55
12.30
10.07
7.24
4.29
1.66
-0.45
-2.10
-3.52
-5.03
-6.87
-9.17
-11.86
-14.63
-17.03
-18.65
-19.19
-18.68
-17.52
-16.35
-15.89
-16.70
-19.01
-22.61
-26.82
-30.62
-32.79
-32.22
-28.21
-20.82
-10.76
0.62
11.80
21.45
28.73
33.44
35.94
37.00
37.41
37.81
38.34
38.72
38.43
37.06
34.68
31.97
30.01
29.63
30.95
33.06
34.35
33.08
28.06
19.12
7.05
-6.54
-19.68
-30.25
-36.33
-36.50
-30.24
-18.33
-2.62
14.42
30.63
44.80
56.79
67.05
75.85
82.87
87.10
87.48
83.34
74.83
62.80
48.53
33.39
18.59
5.10
-6.52
-16.19
-24.27
-31.37
-37.95
-44.01
-49.11
-52.59
-53.92
-53.05
-50.38
-46.48
-41.82
-36.45
-30.17
-22.65
-13.79
-3.91
6.18
15.56
23.46
29.61
34.40
38.61
42.99
47.82
52.86
57.47
61.02
63.24
64.01
63.09
59.71
52.64
40.77
23.96
3.65
-17.32
-35.62
-48.74
-55.91
-58.26
-58.08
-57.70
-58.48
-60.52
-62.91
-64.55
-64.69
-63.22
-60.55
-57.32
-54.13
-51.41
-49.48
-48.69
-49.48
-52.34
-57.49
-64.69
-72.96
-80.62
-85.48
-85.46
-79.08
-65.89
-46.43
-22.12
5.19
33.37
60.06
82.74
98.99
106.84
105.48
95.50
78.84
58.25
36.54
15.79
-2.93
-19.43
-33.92
-46.63
-57.53
-66.49
-73.45
-78.69
-82.74
-86.13
-89.00
-90.87
-90.83
-87.96
-81.93
-73.19
-62.89
-52.42
-42.86
-34.88
-28.64
-24.05
-20.97
-19.33
-19.13
-20.42
-23.17
-27.16
-32.02
-37.15
-41.78
-44.99
-45.90
-43.68
-37.63
-27.45
-13.37
3.61
21.83
39.33
54.32
65.66
73.07
77.03
78.28
77.59
75.43
72.07
67.68
62.40
56.50
50.30
44.21
38.73
34.41
31.70
30.88
31.80
33.91
36.46
38.69
39.97
39.89
38.21
34.75
29.46
22.60
14.84
7.21
0.74
-3.85
-6.45
-7.43
-7.38
-6.63
-5.25
-3.26
-1.03
0.43
-0.37
-4.87
-13.67
-26.05
-39.87
-52.03
-59.18
-58.58
-48.74
-29.69
-3.01
28.38
60.62
89.51
111.17
122.98
124.22
116.24
101.89
84.54
66.95
50.60
35.63
21.39
7.35
-6.20
-18.09
-26.53
-29.87
-27.18
-18.71
-6.14
7.72
19.22
24.87
22.25
10.81
-7.97
-30.92
-54.19
-74.40
-89.33
-98.22
-101.66
-101.03
-97.96
-94.07
-90.76
-88.99
-89.18
-91.00
-93.56
-95.75
-96.71
-96.34
-95.36
-94.91
-95.87
-98.17
-100.52
-100.66
-96.21
-85.62
-68.92
-47.72
-24.68
-2.53
16.66
31.94
43.22
50.88
55.43
57.32
57.08
55.49
53.55
52.09
51.53
51.72
52.08
51.95
50.91
48.96
46.35
43.41
40.36
37.23
33.93
30.28
26.11
21.34
16.13
10.91
6.25
2.68
0.34
-1.07
-2.29
-4.03
-6.81
-10.67
-15.27
-20.10
-24.63
-28.55
-31.75
-34.39
-36.82
-39.44
-42.58
-46.15
-49.44
-51.22
-49.95
-44.36
-33.99
-19.53
-2.67
14.36
29.46
41.22
49.17
53.67
55.52
55.51
54.16
51.70
48.26
44.08
39.60
35.43
32.14
29.99
28.92
28.53
28.36
28.04
27.46
26.71
25.94
25.14
24.10
22.48
20.08
16.92
13.37
9.92
7.00
4.69
2.76
0.70
-1.93
-5.33
-9.41
-13.78
-17.94
-21.48
-24.26
-26.46
-28.54
-31.09
-34.67
-39.57
-45.56
-51.84
-57.04
-59.47
-57.70
-50.94
-39.46
-24.65
-8.56
6.69
19.53
29.31
36.17
40.81
43.95
46.07
47.33
47.70
47.21
45.96
44.15
41.94
39.28
35.94
31.79
26.96
21.98
17.64
14.59
13.00
12.40
11.91
10.65
8.22
4.85
1.24
-1.87
-4.05
-5.40
-6.32
-7.44
-9.20
-11.79
-15.14
-19.00
-23.02
-26.84
-30.13
-32.64
-34.28
-35.30
-36.26
-37.89
-40.77
-44.89
-49.42
-52.72
-52.89
-48.48
-39.09
-25.62
-9.83
6.19
20.71
32.72
41.83
48.06
51.47
52.16
50.36
46.61
41.80
37.01
33.13
30.54
29.12
28.34
27.68
26.84
25.98
25.39
25.31
25.63
25.81
25.27
23.68
21.19
18.35
15.76
13.68
11.89
9.74
6.49
1.81
-4.14
-10.63
-16.76
-21.74
-25.29
-27.52
-28.89
-30.00
-31.40
-33.58
-36.69
-40.52
-44.40
-47.19
-47.64
-44.71
-38.05
-28.05
-15.82
-2.77
9.78
20.84
29.84
36.56
40.97
43.25
43.76
42.89
41.02
38.46
35.44
32.29
29.49
27.63
27.18
28.25
30.41
32.81
34.60
35.23
34.67
33.28
31.40
29.20
26.55
23.19
19.14
14.69
10.37
6.61
3.49
0.69
-2.26
-5.68
-9.60
-13.75
-17.83
-21.76
-25.69
-29.92
-34.70
-40.00
-45.49
-50.55
-54.21
-55.39
-53.07
-46.60
-36.05
-22.35
-7.17
7.58
20.18
29.62
35.68
38.81
39.71
39.10
37.47
35.05
31.92
28.08
23.61
18.74
13.97
9.92
7.26
6.35
7.12
9.08
11.41
13.35
14.22
13.69
11.67
8.27
3.75
-1.51
-7.06
-12.53
-17.63
-22.33
-26.75
-30.99
-34.97
-38.35
-40.65
-41.53
-41.09
-39.86
-38.80
-38.93
-41.05
-45.41
-51.44
-57.79
-62.53
-63.81
-60.40
-52.28
-40.63
-27.40
-14.66
-3.90
4.14
9.46
12.36
13.19
12.24
9.75
6.08
1.59
-3.32
-8.28
-12.94
-16.83
-19.44
-20.36
-19.50
-17.27
-14.48
-12.04
-10.69
-10.79
-12.38
-15.30
-19.34
-24.38
-30.22
-36.56
-42.95
-48.78
-53.53
-56.94
-59.16
-60.74
-62.52
-65.23
-69.30
-74.70
-80.93
-87.38
-93.54
-99.14
-104.13
-108.39
-111.51
-112.78
-111.32
-106.35
-97.44
-84.55
-67.86
-47.57
-23.83
3.12
32.50
62.78
91.91
117.66
138.29
152.94
161.62
164.92
163.60
158.40
149.96
139.14
127.07
115.12
104.55
96.15
89.99
85.49
81.74
77.90
73.54
68.65
63.63
58.98
54.99
51.62
48.46
44.82
40.01
33.57
25.47
16.09
6.18
-3.42
-12.01
-19.26
-25.31
-30.56
-35.51
-40.63
-46.07
-51.70
-56.92
-60.87
-62.41
-60.59
-54.89
-45.45
-33.18
-19.44
-5.79
6.45
16.44
23.91
29.09
32.54
34.85
36.49
37.72
38.62
39.12
39.21
39.00
38.63
38.25
37.90
37.58
37.29
37.03
36.91
37.01
37.39
37.96
38.52
38.70
38.07
36.28
33.11
28.62
23.19
17.36
11.73
6.85
3.06
0.38
-1.40
-2.84
-4.73
-7.85
-12.69
-19.07
-25.97
-31.67
-34.18
-31.93
-24.31
-11.95
3.41
19.53
34.38
46.61
55.90
62.87
68.67
74.44
80.87
87.79
94.29
99.04
100.85
99.22
94.60
88.22
81.46
75.31
69.93
64.47
57.55
47.77
34.32
17.35
-1.95
-21.57
-39.21
-52.74
-60.76
-62.68
-58.89
-50.51
-39.34
-27.45
-16.87
-9.18
-5.11
-4.60
-6.87
-10.94
-15.96
-21.39
-26.86
-31.92
-35.83
-37.48
-35.71
-29.70
-19.34
-5.39
10.82
27.64
43.53
57.41
68.71
77.34
83.58
87.92
91.00
93.53
96.16
99.29
102.77
105.89
107.56
106.93
103.81
98.87
93.29
88.11
83.73
79.81
75.64
70.71
65.07
59.10
53.04
46.59
38.85
28.90
16.44
2.06
-13.03
-27.62
-41.20
-53.98
-66.47
-78.83
-90.56
-100.61
-108.09
-112.81
-115.32
-116.40
-116.24
-113.96
-107.97
-96.81
-80.17
-59.46
-37.30
-16.74
-0.13
11.32
17.31
18.13
14.15
5.88
-5.76
-19.25
-32.54
-43.53
-50.63
-53.14
-51.30
-45.95
-38.26
-29.50
-20.92
-13.87
-9.74
-9.53
-13.63
-21.47
-31.67
-42.45
-52.24
-60.16
-66.13
-70.50
-73.60
-75.42
-75.65
-74.03
-70.75
-66.55
-62.56
-59.83
-58.93
-59.65
-61.26
-62.67
-62.82
-60.87
-56.29
-48.89
-38.82
-26.61
-13.05
0.82
13.96
25.49
34.83
41.89
46.88
50.20
52.07
52.46
51.13
47.89
42.95
37.08
31.55
27.76
26.66
28.36
31.97
35.86
38.34
38.26
35.45
30.70
25.33
20.53
16.88
14.22
11.91
9.35
6.35
3.21
0.58
-1.14
-1.97
-2.45
-3.38
-5.47
-9.12
-14.39
-21.17
-29.24
-38.34
-47.86
-56.62
-62.90
-64.78
-60.84
-50.74
-35.49
-17.10
2.11
20.22
36.17
49.67
60.91
70.23
77.96
84.31
89.51
93.66
96.83
98.91
99.79
99.44
97.90
95.34
91.95
88.06
84.11
80.50
77.16
73.27
67.11
56.52
39.81
16.52
-12.28
-44.62
-78.48
-112.42
-145.51
-176.72
-204.19
-225.34
-237.65
-239.86
-232.80
-219.23
-202.76
-186.51
-172.03
-159.06
-145.92
-130.49
-111.11
-87.23
-59.65
-30.33
-1.83
23.42
43.68
58.33
67.61
72.36
73.65
72.47
69.63
65.89
62.05
58.82
56.80
56.20
56.75
57.67
58.05
57.09
54.52
50.69
46.35
42.24
38.76
35.74
32.68
29.11
24.87
20.21
15.62
11.44
7.78
4.46
1.18
-2.26
-5.87
-9.45
-12.64
-15.17
-16.93
-18.10
-19.23
-20.95
-23.57
-26.77
-29.58
-30.55
-28.47
-22.91
-14.40
-4.30
5.80
14.69
21.81
27.11
30.77
32.96
33.70
33.11
31.39
28.94
26.11
23.00
19.54
15.54
11.12
6.68
2.86
0.11
-1.59
-2.77
-4.16
-6.29
-9.24
-12.70
-16.25
-19.62
-22.67
-25.27
-26.96
-27.04
-24.79
-20.09
-13.60
-6.69
-0.85
2.80
3.88
2.62
-0.43
-4.72
-9.77
-15.11
-20.11
-23.96
-25.77
-24.90
-21.06
-14.50
-5.92
3.65
13.13
21.59
28.38
33.20
36.06
37.12
36.55
34.55
31.28
26.96
21.87
16.37
10.85
5.67
1.08
-2.79
-5.99
-8.76
-11.35
-13.86
-16.13
-17.70
-18.04
-16.89
-14.51
-11.66
-9.29
-8.11
-8.37
-9.78
-11.73
-13.80
-15.79
-17.80
-20.03
-22.59
-25.45
-28.40
-31.21
-33.66
-35.70
-37.44
-39.19
-41.29
-44.03
-47.45
-51.20
-54.51
-56.31
-55.48
-51.13
-42.84
-30.90
-16.28
-0.57
14.30
26.58
35.19
39.94
41.56
41.27
40.16
38.87
37.43
35.45
32.58
28.74
24.29
19.86
16.04
13.13
11.14
9.92
9.25
9.04
9.27
9.89
10.69
11.33
11.38
10.52
8.59
5.80
2.55
-0.73
-3.82
-6.74
-9.69
-12.72
-15.53
-17.52
-18.10
-17.03
-14.76
-12.33
-11.00
-11.77
-14.99
-20.20
-26.25
-31.59
-34.62
-34.01
-29.00
-19.65
-6.90
7.72
22.35
35.47
46.09
53.91
59.08
61.88
62.47
60.79
56.76
50.50
42.60
34.09
26.21
19.96
15.80
13.46
12.12
11.06
9.96
9.25
9.68
11.83
15.58
19.94
23.57
25.32
24.93
23.04
20.91
19.68
19.88
21.41
23.75
26.46
29.20
31.66
33.02
32.02
27.07
16.94
1.35
-18.82
-41.77
-65.59
-88.71
-110.15
-128.93
-143.36
-150.99
-149.19
-136.58
-114.12
-85.31
-55.16
-28.33
-7.56
6.74
15.84
21.33
24.07
24.12
21.34
16.15
9.71
3.33
-2.21
-7.00
-11.64
-16.71
-22.15
-27.33
-31.46
-33.99
-34.67
-33.45
-30.29
-25.17
-18.43
-10.88
-3.66
2.13
6.03
8.29
9.67
10.94
12.43
13.91
14.77
14.43
12.59
9.37
5.30
1.14
-2.23
-4.11
-4.21
-2.97
-1.33
-0.37
-0.60
-1.52
-1.63
1.12
8.36
20.73
37.68
57.80
79.33
100.34
118.55
131.17
135.12
127.96
109.11
80.58
46.65
12.59
-17.17
-40.00
-55.15
-62.95
-63.97
-58.78
-48.34
-34.45
-19.67
-6.72
2.47
7.32
8.40
6.96
4.09
0.50
-3.60
-8.07
-12.77
-17.43
-21.77
-25.66
-28.99
-31.71
-33.81
-35.40
-36.72
-38.07
-39.62
-41.31
-42.98
-44.55
-46.19
-48.30
-51.33
-55.34
-59.82
-63.57
-65.04
-62.83
-56.14
-45.09
-30.71
-14.60
1.56
16.42
29.22
39.72
47.94
53.93
57.49
58.40
56.67
52.80
47.83
43.05
39.52
37.58
36.91
36.74
36.44
35.90
35.42
35.42
36.05
36.98
37.59
37.32
35.90
33.44
30.29
26.75
22.98
19.08
15.13
11.29
7.72
4.40
1.12
-2.36
-6.27
-10.69
-15.55
-20.75
-26.20
-31.91
-37.94
-44.33
-50.93
-57.33
-62.73
-66.09
-66.27
-62.38
-54.10
-41.89
-26.94
-10.92
4.34
17.43
27.48
34.21
37.89
39.05
38.39
36.55
34.10
31.42
28.70
26.00
23.38
21.02
19.26
18.56
19.16
20.96
23.40
25.75
27.36
27.95
27.65
26.71
25.34
23.47
20.94
17.70
13.98
10.26
7.07
4.77
3.31
2.36
1.47
0.28
-1.36
-3.51
-6.19
-9.47
-13.30
-17.27
-20.41
-21.22
-18.07
-9.78
3.74
21.29
40.54
58.72
73.23
82.36
85.51
83.07
76.17
66.31
55.08
43.87
33.74
25.27
18.60
13.44
9.35
5.93
2.96
0.38
-1.68
-3.08
-3.72
-3.62
-2.92
-1.95
-1.12
-0.83
-1.42
-3.07
-5.84
-9.66
-14.43
-19.93
-25.84
-31.63
-36.84
-41.12
-44.52
-47.58
-51.07
-55.79
-62.17
-70.04
-78.53
-86.22
-91.28
-91.94
-86.80
-75.41
-58.45
-37.78
-15.94
4.55
21.77
34.84
43.72
48.89
50.95
50.35
47.53
43.07
37.81
32.70
28.60
25.90
24.50
23.90
23.44
22.61
21.13
18.89
15.84
11.92
7.07
1.39
-4.83
-11.06
-16.64
-21.04
-23.94
-25.41
-25.82
-25.79
-26.03
-27.16
-29.60
-33.36
-38.19
-43.60
-49.24
-54.96
-60.92
-67.40
-74.42
-81.51
-87.46
-90.66
-89.51
-83.01
-71.09
-54.78
-35.81
-16.21
2.19
18.19
31.27
41.57
49.49
55.35
59.06
60.16
58.20
53.12
45.72
37.34
29.64
23.85
20.45
18.94
18.14
16.77
13.94
9.25
2.58
-5.98
-16.08
-26.90
-37.07
-45.25
-50.99
-55.44
-61.63
-73.49
-93.71
-122.06
-154.98
-187.02
-213.26
-230.82
