1543523726.00
64.000000
-0.00
-0.00
-0.00
-0.00
-0.00
-0.00
-0.00
-0.00
-0.00
-0.00
0.00
0.01
0.01
-0.00
-0.03
-0.05
-0.05
0.00
0.13
0.36
0.66
1.01
1.37
1.72
2.06
2.40
2.79
3.24
3.80
4.42
5.06
5.66
6.20
6.69
7.16
7.71
8.36
9.23
10.24
11.27
12.24
13.07
13.82
14.66
15.78
17.34
19.56
22.25
25.13
27.93
30.46
32.81
35.28
38.31
42.22
47.38
53.47
59.96
66.29
72.09
77.43
82.79
88.86
96.17
105.26
115.64
126.56
137.14
146.81
155.60
164.11
173.64
182.90
194.14
208.00
224.65
242.91
259.87
271.20
272.21
259.51
232.19
192.65
144.83
93.14
40.87
-10.42
-60.50
-109.55
-157.35
-203.11
-245.41
-283.23
-315.87
-342.80
-363.38
-376.58
-381.20
-376.17
-361.12
-337.26
-306.87
-272.72
-237.55
-203.54
-172.03
-143.54
-117.98
-95.05
-74.46
-56.17
-40.39
-27.43
-17.59
-10.95
-7.47
-6.99
-9.44
-14.91
-23.13
-34.04
-47.61
-63.73
-82.15
-102.39
-123.86
-145.88
-167.88
-189.16
-209.10
-226.95
-241.88
-252.97
-259.26
-259.94
-253.55
-239.10
-216.01
-184.18
-144.06
-96.49
-42.80
15.34
75.78
136.06
193.45
245.26
289.20
323.59
347.84
362.27
368.50
368.65
364.79
358.61
351.09
342.75
333.72
324.41
315.61
308.34
303.30
300.33
298.41
295.28
288.49
275.65
255.55
228.50
195.77
158.89
118.78
75.89
29.51
-21.36
-78.15
-141.91
-213.31
-292.44
-377.89
-465.99
-549.90
-622.09
-673.13
-697.62
-695.31
-670.31
-628.54
-574.36
-513.80
-448.20
-379.14
-310.71
-250.08
-204.38
-176.10
-162.99
-158.26
-153.40
-139.85
-113.65
-75.23
-27.84
25.09
81.41
139.89
199.28
257.11
310.10
354.19
386.24
405.23
412.63
411.90
406.68
399.50
391.10
380.94
367.57
350.03
328.75
305.62
283.25
263.68
247.35
233.01
218.30
200.35
176.39
145.24
106.22
60.81
13.03
-30.93
-64.34
-82.33
-83.27
-70.99
-53.12
-37.81
-30.24
-31.27
-38.24
-47.29
-55.59
-62.31
-68.19
-73.97
-79.51
-83.70
-85.37
-84.37
-81.75
-79.34
-79.03
-81.78
-87.33
-94.41
-101.40
-107.03
-111.03
-114.13
-117.59
-122.58
-129.73
-138.83
-148.98
-159.04
-168.00
-175.45
-181.39
-186.00
-189.25
-190.57
-188.83
-182.49
-170.35
-151.09
-123.97
-89.04
-47.25
-0.29
49.58
99.78
147.67
190.73
226.81
254.19
271.69
278.81
275.66
262.97
241.94
214.08
181.10
144.77
106.77
68.56
31.33
-4.00
-36.77
-66.57
-93.11
-116.14
-135.36
-150.48
-161.27
-167.71
-170.05
-168.78
-164.56
-158.04
-149.65
-139.55
-127.67
-113.93
-98.47
-81.87
-65.13
-49.50
-36.15
-25.81
-18.48
-13.56
-10.08
-7.10
-4.07
-0.82
2.53
5.88
9.55
14.39
21.80
33.65
52.04
78.88
115.19
160.32
211.32
262.72
307.84
340.44
356.64
356.08
341.85
318.82
292.31
266.51
243.75
224.73
209.19
196.48
185.85
176.29
166.51
155.05
140.62
122.50
100.89
76.88
52.03
27.81
5.23
-15.42
-34.32
-51.90
-68.38
-83.61
-97.08
-108.12
-116.26
-121.42
-123.95
-124.51
-123.83
-122.46
-120.66
-118.41
-115.53
-111.87
-107.40
-102.30
-96.85
-91.38
-86.11
-81.14
-76.41
-71.81
-67.25
-62.66
-58.07
-53.55
-49.19
-45.06
-41.20
-37.62
-34.29
-31.18
-28.28
-25.57
-23.03
-20.67
-18.47
-16.42
-14.51
-12.74
-11.09
-9.57
-8.17
-6.84
-5.61
-4.47
-3.41
-2.43
-1.53
-0.69
0.09
0.78
1.42
2.00
2.53
3.03
3.51
4.00
4.51
5.06
5.64
6.27
6.95
7.55
7.94
7.86
7.07
5.28
2.24
-2.21
-7.98
-14.77
-22.07
-29.23
-35.58
-40.47
-43.44
-43.96
-42.13
-38.16
-32.47
-25.58
-18.11
-10.70
-3.97
1.58
5.66
8.17
9.31
9.50
9.23
8.93
8.78
8.71
8.52
7.90
6.68
4.94
3.09
1.68
1.14
1.50
2.39
3.07
2.80
1.15
-1.67
-4.87
-7.36
-8.21
-7.26
-5.11
-3.04
-2.43
-4.07
-7.79
-12.37
-16.21
-17.84
-16.64
-13.15
-8.73
-5.27
-4.66
-8.13
-15.77
-25.62
-33.63
-34.58
-23.81
0.59
36.48
77.57
115.09
140.38
147.66
135.75
108.20
71.92
34.75
3.21
-19.03
-31.45
-35.88
-35.07
-31.57
-26.96
-22.12
-17.62
-14.36
-13.20
-14.45
-17.52
-20.92
-23.05
-22.89
-20.41
-16.68
-13.21
-11.25
-11.34
-13.17
-15.80
-18.11
-19.26
-19.00
-17.65
-15.86
-14.35
-13.61
-13.87
-15.05
-16.86
-18.90
-20.78
-22.14
-22.73
-22.60
-21.88
-20.79
-19.76
-19.30
-19.96
-22.48
-27.29
-33.60
-38.87
-39.37
-32.34
-17.92
0.27
16.77
27.26
31.51
33.54
39.12
51.85
70.91
91.37
106.90
112.93
108.21
93.76
71.42
43.13
11.76
-17.50
-37.05
-39.44
-21.63
12.26
51.54
82.70
95.04
85.37
58.55
24.60
-6.23
-27.57
-38.21
-40.95
-39.80
-37.48
-34.56
-30.57
-25.30
-19.66
-15.26
-13.59
-14.74
-17.46
-19.81
-20.20
-18.00
-13.90
-9.36
-5.74
-3.94
-3.92
-5.17
-7.06
-9.13
-11.67
-15.79
-23.16
-34.89
-50.35
-66.39
-77.75
-79.58
-69.39
-48.88
-23.50
-0.19
15.65
22.26
21.65
17.69
13.76
11.35
9.98
8.41
6.03
3.36
1.60
1.66
3.50
6.07
8.00
8.08
6.03
2.52
-1.20
-3.82
-4.55
-3.43
-1.29
0.68
1.39
0.36
-2.04
-4.66
-5.95
-4.56
0.16
7.92
17.55
27.40
35.93
42.42
46.81
49.75
51.98
53.89
55.46
56.54
57.08
57.20
56.64
54.28
48.36
37.42
21.61
3.26
-13.67
-25.43
-30.14
-28.63
-23.90
-19.29
-16.60
-15.40
-13.84
-10.30
-5.06
0.04
2.81
2.10
-1.17
-4.89
-6.46
-4.51
0.67
6.29
9.35
7.95
2.10
-6.29
-14.48
-20.04
-22.00
-21.12
-20.33
-21.92
-26.67
-33.67
-40.65
-45.15
-45.31
-40.80
-32.94
-25.55
-21.82
-24.12
-33.62
-50.14
-71.49
-93.41
-110.30
-108.95
-87.15
-49.62
-6.17
32.26
57.63
67.89
66.87
61.61
58.30
58.63
61.72
65.53
68.10
67.35
61.06
47.60
27.37
4.35
-14.95
-23.23
-17.11
2.81
30.17
56.11
73.70
81.10
81.56
80.27
81.06
85.00
90.63
95.21
96.84
95.42
91.98
87.65
82.72
75.71
64.97
49.36
28.27
1.95
-28.72
-62.86
-100.86
-137.84
-172.21
-203.46
-231.61
-257.23
-281.04
-303.95
-326.56
-348.11
-365.45
-373.96
-367.21
-338.93
-285.89
-210.08
-119.25
-25.16
59.92
127.17
172.56
197.85
208.55
210.95
209.87
208.10
207.11
208.32
213.33
222.47
234.30
245.41
251.30
247.89
232.87
206.30
170.66
129.69
87.09
46.25
10.71
-16.58
-34.45
-44.47
-50.37
-55.22
-60.14
-64.98
-69.33
-72.57
-74.75
-76.86
-80.41
-86.27
-92.45
-95.86
-96.02
-96.42
-101.77
-114.89
-134.89
-157.00
-173.63
-175.12
-153.67
-107.91
-42.98
33.97
116.69
200.08
278.78
331.40
335.13
288.73
214.89
139.70
79.33
38.87
15.45
0.19
-12.58
-22.67
-25.98
-19.53
-4.38
17.03
39.91
58.17
65.42
56.42
29.38
-14.01
-70.81
-137.64
-209.31
-279.14
-340.39
-387.71
-417.74
-428.09
-417.04
-384.60
-332.83
-265.49
-188.00
-107.33
-31.25
33.41
82.73
116.39
136.59
147.02
152.27
157.40
167.24
185.40
212.91
247.75
285.32
319.35
343.96
355.63
353.92
340.94
319.96
294.30
266.90
240.35
216.84
198.25
185.42
177.90
174.10
172.03
170.42
169.50
170.80
176.24
187.02
202.72
221.22
239.31
253.66
261.72
262.33
255.80
243.55
227.69
210.38
193.19
176.86
161.24
145.48
128.53
109.46
87.79
63.52
37.11
9.27
-19.23
-47.80
-76.13
-104.21
-132.34
-161.01
-190.76
-221.81
-253.64
-284.69
-312.57
-334.80
-349.80
-357.71
-360.34
-360.48
-360.49
-361.40
-362.61
-362.45
-359.16
-351.72
-340.27
-325.97
-310.57
-295.88
-283.40
-274.05
-267.96
-264.56
-262.71
-261.08
-258.61
-254.65
-248.96
-241.48
-232.02
-220.00
-204.60
-185.17
-161.83
-135.84
-109.49
-85.44
-65.81
-51.29
-40.98
-32.84
-24.47
-13.96
-0.31
16.50
35.55
55.25
73.59
88.31
97.41
99.62
94.95
84.92
72.35
60.81
53.73
53.53
60.87
74.45
91.34
107.74
119.97
125.32
122.41
111.31
93.30
70.66
46.47
24.25
7.18
-2.63
-4.70
-0.36
7.91
17.41
26.31
34.02
41.11
48.65
57.40
67.46
78.25
88.85
98.39
106.28
112.05
115.16
114.90
110.65
102.42
91.34
79.72
70.39
65.76
66.89
73.10
82.43
92.40
100.88
106.44
108.31
105.91
98.68
86.05
67.75
44.04
15.82
-15.46
-48.00
-79.81
-108.94
-133.77
-153.25
-167.16
-176.10
-181.30
-184.23
-186.35
-188.74
-192.19
-197.11
-203.71
-212.03
-222.09
-233.86
-247.04
-260.78
-273.25
-281.77
-283.26
-275.19
-256.45
-227.83
-192.03
-152.94
-114.83
-81.26
-54.46
-34.97
-21.90
-13.52
-7.94
-3.80
-0.31
2.83
5.86
9.17
13.13
17.75
22.47
26.35
28.71
29.92
31.58
36.30
46.86
65.45
93.16
129.54
172.33
217.47
259.59
293.18
314.22
321.45
316.57
303.32
285.64
266.17
245.64
223.53
199.42
174.05
149.67
129.18
114.99
107.83
106.50
108.30
110.19
109.89
106.80
102.12
98.15
96.95
99.38
104.57
110.46
114.85
116.33
114.57
109.80
102.08
90.69
74.34
52.03
24.08
-7.34
-38.48
-65.23
-84.54
-95.43
-99.22
-98.68
-96.68
-95.07
-94.23
-93.48
-91.94
-89.26
-85.91
-82.77
-80.55
-79.29
-78.43
-77.18
-75.02
-72.19
-69.60
-68.58
-70.32
-75.41
-83.50
-93.26
-102.56
-108.92
-110.23
-105.40
-94.81
-80.34
-64.75
-50.78
-40.26
-33.64
-30.17
-28.63
-28.20
-28.94
-31.73
-37.61
-47.07
-59.66
-73.90
-87.53
-97.97
-102.56
-98.97
-85.52
-61.57
-27.83
13.63
59.88
107.96
155.64
201.85
246.33
288.76
327.95
361.56
386.57
400.38
401.77
391.15
370.19
340.99
305.36
264.73
220.52
174.55
129.08
86.17
46.75
10.00
-26.43
-65.22
-107.51
-151.59
-192.59
-223.92
-239.90
-238.20
-221.08
-194.50
-165.66
-140.19
-120.36
-105.18
-91.96
-78.43
-64.04
-49.90
-37.86
-29.30
-24.48
-22.67
-22.60
-23.15
-23.71
-24.27
-25.16
-26.75
-29.06
-31.66
-33.78
-34.72
-34.37
-33.35
-32.79
-33.70
-36.28
-39.56
-41.64
-40.49
-34.81
-24.72
-11.66
2.09
14.27
23.39
29.09
32.02
33.35
34.17
35.04
35.87
36.18
35.42
33.41
30.47
27.22
24.30
22.02
20.31
18.90
17.56
16.40
15.65
15.50
15.78
16.03
15.68
14.40
12.29
9.80
7.36
5.13
2.86
0.07
-3.59
-8.11
-13.09
-17.94
-22.13
-25.46
-28.05
-30.27
-32.60
-35.36
-38.60
-41.93
-44.55
-45.47
-43.83
-39.15
-31.57
-21.77
-10.82
0.15
10.19
18.64
25.19
29.84
32.76
34.27
34.68
34.29
33.35
32.06
30.55
28.90
27.20
25.49
23.83
22.33
21.17
20.47
20.30
20.56
20.99
21.23
20.86
19.62
17.39
14.30
10.69
6.98
3.57
0.73
-1.52
-3.33
-5.00
-6.83
-9.05
-11.73
-14.78
-17.91
-20.77
-23.06
-24.67
-25.72
-26.64
-27.95
-29.98
-32.65
-35.33
-36.94
-36.31
-32.63
-25.74
-16.25
-5.38
5.48
15.16
22.97
28.82
33.08
36.32
39.04
41.43
43.31
44.22
43.70
41.65
38.60
35.70
34.42
36.12
41.53
50.53
62.07
74.35
85.02
91.58
91.84
84.50
69.74
49.39
26.61
5.03
-12.45
-24.45
-31.32
-34.62
-36.25
-37.58
-39.18
-41.08
-43.19
-45.69
-49.05
-53.76
-60.01
-67.47
-75.34
-82.57
-88.14
-91.22
-91.27
-88.07
-81.65
-72.29
-60.49
-46.96
-32.46
-17.66
-2.89
11.89
26.90
42.18
57.21
70.73
81.17
87.20
88.40
85.44
79.68
72.38
64.10
54.54
43.06
29.37
14.01
-1.73
-16.32
-28.56
-38.01
-44.83
-49.59
-52.95
-55.53
-57.81
-60.10
-62.36
-63.99
-64.00
-61.28
-55.20
-46.04
-34.96
-23.59
-13.34
-4.97
1.54
6.58
10.51
13.28
14.60
14.21
12.22
9.16
5.68
2.27
-1.01
-4.25
-7.45
-10.15
-11.47
-10.52
-6.87
-0.90
6.21
13.01
18.41
22.22
25.08
28.09
32.08
37.20
42.83
47.92
51.66
53.79
54.70
55.14
55.90
57.52
60.25
63.86
67.41
69.03
66.16
56.44
39.16
16.44
-6.61
-23.30
-27.86
-17.87
4.46
33.00
59.85
78.23
84.53
78.97
64.85
46.89
29.74
16.80
9.74
8.50
11.50
16.05
18.94
17.14
8.57
-7.30
-29.43
-55.46
-82.44
-107.52
-128.54
-144.21
-154.12
-158.53
-158.11
-153.40
-144.39
-130.14
-109.19
-80.44
-44.52
-4.64
33.59
63.54
79.83
80.18
66.24
42.83
16.21
-7.94
-25.94
-36.52
-40.44
-39.62
-36.39
-32.92
-30.94
-31.44
-34.65
-39.97
-46.03
-50.84
-52.33
-48.78
-39.42
-24.86
-7.04
11.24
27.01
37.87
42.68
41.76
36.82
30.56
25.89
25.18
29.53
38.44
49.98
61.52
70.49
75.19
74.98
70.10
61.25
49.17
34.61
18.49
1.99
-13.38
-26.20
-35.39
-40.59
-42.10
-40.82
-37.89
-34.49
-31.55
-29.67
-28.97
-29.25
-30.10
-30.92
-31.31
-31.08
-30.27
-29.12
-27.89
-26.64
-25.40
-24.09
-22.70
-21.33
-20.18
-19.37
-18.87
-18.42
-17.67
-16.47
-14.97
-13.64
-12.96
-12.98
-13.11
-12.18
-8.99
-2.80
6.16
16.80
27.50
36.78
43.75
48.25
50.58
51.16
50.39
48.60
46.18
43.70
41.71
40.59
40.30
40.34
39.99
38.61
35.90
32.09
27.72
23.44
19.74
16.79
14.49
12.58
10.81
9.03
7.21
5.38
3.52
1.56
-0.63
-3.05
-5.67
-8.34
-11.00
-13.69
-16.58
-19.83
-23.48
-27.42
-31.39
-35.09
-38.18
-40.30
-41.05
-40.04
-37.05
-32.14
-25.76
-18.61
-11.49
-5.06
0.31
4.53
7.72
10.02
11.55
12.37
12.52
12.12
11.33
10.38
9.52
8.93
8.72
8.89
9.36
10.07
10.91
11.77
12.54
13.07
13.21
12.84
11.89
10.40
8.53
6.49
4.52
2.82
1.47
0.41
-0.57
-1.70
-3.18
-5.02
-7.11
-9.24
-11.21
-12.96
-14.51
-16.05
-17.77
-19.85
-22.35
-25.19
-28.11
-30.66
-32.24
-32.28
-30.35
-26.39
-20.71
-13.97
-6.96
-0.40
5.17
9.47
12.44
14.13
14.72
14.43
13.51
12.16
10.55
8.82
7.05
5.36
3.89
2.71
1.86
1.32
1.03
0.92
0.96
1.09
1.23
1.33
1.30
1.17
0.98
0.80
0.72
0.74
0.82
0.88
0.84
0.58
0.02
-0.84
-1.96
-3.23
-4.52
-5.70
-6.70
-7.48
-8.08
-8.57
-9.06
-9.75
-10.81
-12.35
-14.33
-16.50
-18.48
-19.82
-20.08
-18.97
-16.36
-12.28
-7.02
-1.03
5.07
10.64
15.22
18.58
20.71
21.81
22.10
21.75
20.87
19.56
17.94
16.17
14.42
12.84
11.50
10.47
9.74
9.32
9.07
8.83
8.39
7.56
6.31
4.66
2.73
0.60
-1.62
-3.91
-6.24
-8.54
-10.73
-12.67
-14.16
-15.05
-15.21
-14.62
-13.39
-11.73
-9.88
-8.09
-6.54
-5.33
-4.50
-4.04
-3.97
-4.38
-5.35
-6.99
-9.30
-12.17
-15.25
-18.10
-20.18
-21.07
-20.49
-18.38
-14.84
-10.01
-4.14
2.43
9.18
15.49
20.74
24.47
26.51
27.01
26.24
24.54
22.19
19.45
16.63
14.03
11.93
10.50
9.74
9.50
9.55
9.71
9.88
9.99
10.06
10.02
9.82
9.37
8.63
7.56
6.16
4.49
2.63
0.75
-1.03
-2.62
-3.99
-5.19
-6.27
-7.23
-7.99
-8.47
-8.60
-8.45
-8.15
-7.91
-7.84
-8.00
-8.32
-8.73
-9.16
-9.66
-10.36
-11.42
-12.90
-14.67
-16.36
-17.40
-17.21
-15.37
-11.83
-6.97
-1.48
3.86
8.47
12.03
14.49
15.91
16.38
15.97
14.77
13.02
11.06
9.27
7.87
6.93
6.31
5.84
5.39
4.98
4.74
4.85
5.36
6.15
6.93
7.31
6.95
5.74
3.89
1.83
0.04
-1.24
-2.05
-2.67
-3.39
-4.34
-5.39
-6.28
-6.79
-6.89
-6.80
-6.84
-7.33
-8.46
-10.33
-12.88
-15.96
-19.26
-22.31
-24.50
-25.21
-23.99
-20.75
-15.78
-9.72
-3.37
2.45
7.13
10.32
11.99
12.37
11.85
10.82
9.63
8.44
7.26
6.00
4.54
2.82
0.92
-0.99
-2.68
-3.87
-4.47
-4.49
-4.12
-3.62
-3.25
-3.14
-3.37
-3.94
-4.82
-5.98
-7.34
-8.77
-10.10
-11.26
-12.30
-13.46
-15.01
-17.11
-19.64
-22.19
-24.19
-25.04
-24.34
-21.90
-17.84
-12.51
-6.41
-0.19
5.56
10.30
13.67
15.51
15.88
14.97
13.12
10.76
8.29
6.07
4.36
3.26
2.74
2.65
2.82
3.07
3.29
3.46
3.64
3.84
4.01
3.94
3.39
2.16
0.24
-2.16
-4.75
-7.16
-9.19
-10.82
-12.20
-13.60
-15.25
-17.24
-19.53
-21.88
-23.96
-25.34
-25.58
-24.30
-21.29
-16.69
-10.96
-4.88
0.72
5.21
8.39
10.42
11.69
12.50
12.94
12.89
12.24
11.06
9.65
8.39
7.55
7.19
7.15
7.27
7.46
7.75
8.18
8.69
9.13
9.33
9.16
8.63
7.84
6.85
5.69
4.25
2.45
0.23
-2.32
-5.06
-7.82
-10.51
-13.14
-15.80
-18.62
-21.67
-24.83
-27.78
-30.05
-31.10
-30.55
-28.25
-24.36
-19.23
-13.38
-7.29
-1.40
3.95
8.53
12.19
14.84
16.42
16.97
16.54
15.28
13.40
11.16
8.90
6.93
5.46
4.56
4.17
4.10
4.16
4.23
4.30
4.49
4.92
5.68
6.75
7.98
9.17
10.05
10.40
10.04
8.91
7.09
4.78
2.32
0.07
-1.64
-2.61
-2.81
-2.41
-1.68
-1.00
-0.70
-1.02
-1.99
-3.47
-5.21
-6.95
-8.63
-10.35
-12.35
-14.76
-17.43
-19.85
-21.27
-20.97
-18.50
-13.97
-7.97
-1.34
5.07
10.68
15.25
18.85
21.69
23.99
25.86
27.31
28.27
28.66
28.52
27.96
27.21
26.45
25.82
25.34
24.98
24.71
24.52
24.44
24.45
24.44
24.25
23.70
22.71
21.33
19.68
17.95
16.24
14.56
12.87
11.14
9.34
7.49
5.63
3.81
2.14
0.68
-0.56
-1.64
-2.69
-3.89
-5.37
-7.18
-9.27
-11.51
-13.76
-15.89
-17.85
-19.70
-21.54
-23.52
-25.75
-28.28
-30.97
-33.55
-35.57
-36.54
-36.06
-33.90
-30.08
-24.93
-18.96
-12.76
-6.90
-1.73
2.58
6.04
8.76
10.90
12.57
13.88
14.92
15.80
16.61
17.39
18.14
18.84
19.46
20.07
20.77
21.64
22.64
23.65
24.37
24.53
23.97
22.66
20.77
18.49
16.02
13.50
11.01
8.60
6.30
4.15
2.11
0.14
-1.78
-3.62
-5.33
-6.81
-8.05
-9.12
-10.21
-11.52
-13.17
-15.22
-17.52
-19.84
-21.81
-23.00
-23.01
-21.56
-18.61
-14.33
-9.21
-3.88
1.08
5.20
8.28
10.27
11.28
11.48
11.07
10.30
9.46
8.83
8.63
8.94
9.63
10.42
11.00
11.19
11.00
10.58
10.15
9.84
9.62
9.34
8.78
7.80
6.41
4.79
3.15
1.61
0.16
-1.32
-2.97
-4.82
-6.75
-8.51
-9.82
-10.52
-10.60
-10.26
-9.80
-9.64
-10.16
-11.71
-14.50
-18.43
-23.10
-27.74
-31.40
-33.20
-32.50
-29.19
-23.69
-16.87
-9.69
-3.05
2.53
6.87
10.05
12.26
13.63
14.23
14.09
13.37
12.32
11.25
10.36
9.71
9.21
8.74
8.25
7.83
7.66
7.84
8.39
9.15
9.90
10.42
10.61
10.41
9.82
8.84
7.48
5.82
4.01
2.27
0.74
-0.59
-1.87
-3.30
-5.09
-7.25
-9.61
-11.88
-13.83
-15.33
-16.41
-17.21
-17.95
-18.84
-20.09
-21.84
-24.19
-27.05
-30.14
-32.93
-34.75
-34.98
-33.21
-29.44
-24.03
-17.65
-11.01
-4.74
0.78
5.35
8.96
11.65
13.47
14.51
14.89
14.78
14.42
13.96
13.54
13.16
12.79
12.39
12.02
11.77
11.79
12.21
13.08
14.34
15.82
17.30
18.50
19.18
19.22
18.61
17.49
16.04
14.42
12.72
10.96
9.11
7.18
5.22
3.29
1.41
-0.43
-2.28
-4.17
-6.11
-8.07
-10.00
-11.80
-13.43
-14.86
-16.21
-17.67
-19.46
-21.69
-24.25
-26.71
-28.42
-28.66
-26.96
-23.26
-17.95
-11.79
-5.58
0.04
4.69
8.28
10.90
12.68
13.80
14.45
14.88
15.35
16.08
17.18
18.55
19.95
21.16
22.07
22.78
23.47
24.29
25.25
26.15
26.62
26.33
25.16
23.31
21.16
19.13
17.46
16.08
14.76
13.24
11.42
9.43
7.54
5.98
4.79
3.79
2.76
1.52
0.07
-1.50
-3.13
-4.95
-7.18
-9.97
-13.22
-16.43
-18.89
-19.88
-19.02
-16.41
-12.61
-8.35
-4.24
-0.59
2.57
5.32
7.61
9.24
9.93
9.42
7.74
5.14
2.12
-0.76
-3.07
-4.50
-5.02
-4.81
-4.16
-3.36
-2.54
-1.68
-0.65
0.54
1.67
2.29
1.96
0.55
-1.67
-4.09
-6.08
-7.30
-7.84
-8.07
-8.43
-9.17
-10.39
-12.09
-14.31
-17.15
-20.62
-24.51
-28.30
-31.34
-32.96
-32.75
-30.63
-26.81
-21.70
-15.81
-9.70
-3.85
1.29
5.38
8.29
9.99
10.69
10.65
10.26
9.79
9.46
9.33
9.32
9.35
9.40
9.48
9.65
9.97
10.41
10.82
11.06
10.98
10.55
9.80
8.85
7.80
6.69
5.47
4.05
2.29
0.08
-2.59
-5.64
-8.88
-12.10
-15.11
-17.76
-20.09
-22.19
-24.27
-26.52
-29.10
-31.98
-34.97
-37.69
-39.56
-40.05
-38.69
-35.39
-30.37
-24.20
-17.59
-11.19
-5.43
-0.45
3.78
7.32
10.13
12.13
13.28
13.69
13.67
13.61
13.83
14.48
15.47
16.61
17.65
18.49
19.11
19.61
20.04
20.44
20.77
20.95
20.88
20.43
19.49
18.01
16.07
13.82
11.50
9.36
7.49
5.89
4.42
2.89
1.18
-0.69
-2.58
-4.27
-5.65
-6.71
-7.62
-8.69
-10.24
-12.54
-15.61
-19.28
-23.07
-26.31
-28.26
-28.27
-26.01
-21.56
-15.39
-8.27
-1.06
5.52
11.03
15.24
18.17
19.94
20.73
20.78
20.42
19.95
19.60
19.48
19.48
19.47
19.35
19.17
19.08
19.32
20.01
21.11
22.41
23.61
24.41
24.65
24.31
23.37
21.71
19.15
15.45
10.61
4.89
-1.12
-6.78
-11.61
-15.43
-18.39
-20.73
-22.63
-24.16
-25.38
-26.38
-27.39
-28.63
-30.16
-31.81
-33.27
-34.26
-34.69
-34.70
-34.54
-34.41
-34.29
-33.88
-32.72
-30.26
-26.12
-20.20
-12.82
-4.63
3.46
10.60
16.22
20.16
22.60
23.85
24.20
23.83
22.88
21.58
20.26
19.31
19.01
19.43
20.36
21.51
22.58
23.41
24.00
24.39
24.63
24.70
24.59
24.25
23.63
22.66
21.25
19.32
16.86
13.94
10.71
7.39
4.15
1.11
-1.69
-4.21
-6.45
-8.40
-10.06
-11.44
-12.63
-13.72
-14.83
-16.08
-17.57
-19.35
-21.46
-23.76
-25.99
-27.69
-28.27
-27.18
-24.14
-19.27
-13.07
-6.29
0.28
6.03
10.60
13.88
15.93
16.90
16.96
16.34
15.25
13.97
12.76
11.88
11.50
11.66
12.33
13.33
14.45
15.47
16.26
16.73
16.86
16.64
16.05
15.06
13.70
12.07
10.31
8.56
6.88
5.27
3.65
1.97
0.19
-1.63
-3.41
-5.09
-6.66
-8.10
-9.40
-10.53
-11.51
-12.46
-13.63
-15.36
-17.99
-21.63
-25.98
-30.29
-33.53
-34.69
-33.13
-28.88
-22.55
-15.12
-7.61
-0.78
4.96
9.50
12.78
14.76
15.49
15.10
14.00
12.73
11.78
11.51
11.99
13.06
14.41
15.69
16.53
16.62
15.80
14.01
11.44
8.46
5.46
2.76
0.45
-1.58
-3.51
-5.45
-7.40
-9.23
-10.86
-12.21
-13.31
-14.15
-14.71
-14.95
-14.96
-15.00
-15.44
-16.56
-18.34
-20.33
-21.76
-21.82
-19.93
-16.04
-10.55
-4.25
2.01
7.55
11.96
15.10
17.04
17.94
18.02
17.55
16.82
16.11
15.70
15.75
16.32
17.37
18.72
20.22
21.69
23.00
24.11
25.03
25.76
26.28
26.51
26.37
25.80
24.81
23.52
22.06
20.60
19.23
18.08
17.19
16.50
15.75
14.42
11.76
7.13
0.19
-8.77
-18.88
-28.88
-37.41
-43.39
-46.22
-45.85
-42.59
-37.03
-29.93
-22.08
-14.34
-7.54
-2.36
0.77
1.77
0.95
-1.14
-3.81
-6.47
-8.70
-10.31
-11.27
-11.69
-11.72
-11.55
-11.31
-11.08
-10.85
-10.56
-10.15
-9.65
-9.13
-8.82
-8.94
-9.71
-11.17
-13.18
-15.44
-17.58
-19.31
-20.50
-21.32
-22.07
-23.13
-24.75
-26.99
-29.68
-32.50
-35.07
-37.07
-38.39
-39.06
-39.32
-39.56
-40.21
-41.64
-43.99
-47.07
-50.30
-52.81
-53.63
-52.01
-47.69
-40.97
-32.60
-23.41
-14.04
-4.84
4.04
12.28
19.27
24.12
26.08
24.94
21.34
16.58
12.18
9.21
7.98
8.04
8.60
9.05
9.23
9.43
10.04
11.20
12.63
13.73
13.95
12.99
11.07
8.68
6.40
4.60
3.24
2.00
0.41
-1.80
-4.57
-7.48
-9.94
-11.29
-11.08
-9.11
-5.37
-0.11
6.24
13.06
19.61
25.28
29.83
33.43
36.61
39.87
43.38
46.81
49.45
50.52
49.57
46.61
42.04
36.40
30.12
23.51
16.85
10.60
5.36
1.76
0.16
0.43
1.94
3.83
5.17
5.43
4.52
2.76
0.65
-1.33
-2.93
-4.12
-4.98
-5.54
-5.64
-4.97
-3.05
0.68
6.73
15.38
26.55
39.58
53.28
66.11
76.56
83.53
86.59
85.99
82.38
76.56
69.22
60.95
52.34
44.15
37.29
32.74
31.28
33.28
38.42
45.51
52.49
56.80
56.07
48.92
35.47
17.34
-2.97
-22.91
-40.67
-55.32
-66.62
-74.55
-79.03
-80.04
-77.79
-72.97
-66.60
-59.63
-52.65
-45.74
-38.70
-31.30
-23.63
-16.15
-9.52
-4.42
-1.21
0.13
0.04
-0.80
-1.68
-2.08
-1.82
-1.06
-0.15
0.59
1.00
1.14
1.19
1.34
1.62
1.93
2.04
1.72
0.87
-0.51
-2.29
-4.26
-6.22
-8.08
-9.81
-11.45
-13.09
-14.77
-16.47
-18.11
-19.58
-20.84
-21.94
-23.09
-24.57
-26.64
-29.38
-32.51
-35.52
-37.66
-38.25
-36.84
-33.42
-28.43
-22.61
-16.73
-11.40
-6.92
-3.28
-0.33
2.08
3.98
5.30
5.99
6.09
5.79
5.34
4.93
4.63
4.41
4.22
4.09
4.15
4.58
5.41
6.53
7.65
8.41
8.49
7.81
6.45
4.67
2.73
0.82
-0.95
-2.63
-4.31
-6.08
-7.97
-9.95
-11.93
-13.83
-15.62
-17.32
-18.96
-20.61
-22.27
-23.96
-25.64
-27.21
-28.43
-28.93
-28.19
-25.82
-21.68
-16.06
-9.66
-3.37
2.04
6.21
9.12
11.10
12.48
13.45
14.01
14.10
13.73
13.03
12.30
11.81
11.71
12.03
12.68
13.55
14.57
15.68
16.80
17.80
18.45
18.56
18.09
17.11
15.83
14.44
13.04
11.63
10.23
8.85
7.60
6.58
5.78
5.05
4.13
2.78
0.87
-1.52
-4.17
-6.83
-9.37
-11.82
-14.35
-17.18
-20.44
-24.14
-28.08
-31.91
-35.14
-37.15
-37.34
-35.24
-30.67
-23.97
-15.89
-7.48
0.26
6.70
11.64
15.33
18.10
20.22
21.76
22.65
22.86
22.50
21.88
21.31
20.95
20.80
20.71
20.50
20.10
19.56
19.02
18.55
18.14
17.66
16.94
15.84
14.33
12.54
10.69
9.00
7.65
6.68
5.99
5.32
4.43
3.11
1.33
-0.82
-3.10
-5.31
-7.31
-9.11
-10.85
-12.71
-14.90
-17.53
-20.62
-23.97
-27.15
-29.52
-30.42
-29.34
-26.17
-21.16
-14.93
-8.22
-1.70
4.14
8.97
12.61
14.96
16.03
16.00
15.16
13.89
12.58
11.56
11.01
11.05
11.62
12.57
13.69
14.78
15.67
16.30
16.64
16.67
16.36
15.67
14.60
13.20
11.53
9.66
7.64
5.51
3.26
0.93
-1.47
-3.93
-6.41
-8.90
-11.35
-13.72
-16.06
-18.50
-21.19
-24.25
-27.63
-30.99
-33.75
-35.21
-34.74
-32.04
-27.24
-20.88
-13.73
-6.62
-0.17
5.22
9.43
12.49
14.50
15.62
16.02
15.91
15.53
15.08
14.67
14.30
13.97
13.70
13.55
13.68
14.14
14.97
16.07
17.26
18.33
19.08
19.34
19.02
18.12
16.69
14.86
12.75
10.50
8.21
5.93
3.74
1.68
-0.18
-1.87
-3.45
-5.01
-6.63
-8.32
-10.03
-11.72
-13.47
-15.44
-17.84
-20.87
-24.46
-28.33
-31.89
-34.45
-35.27
-33.86
-30.07
-24.24
-17.09
-9.49
-2.27
4.01
9.11
13.03
15.82
17.61
18.48
18.54
18.00
17.16
16.32
15.73
15.50
15.58
15.92
16.43
17.08
17.90
18.89
20.02
21.20
22.22
22.88
23.05
22.66
21.72
20.32
18.60
16.67
14.70
12.85
11.22
9.86
8.66
7.43
6.01
4.36
2.60
0.95
-0.47
-1.63
-2.71
-3.96
-5.51
-7.31
-9.18
-10.88
-12.28
-13.41
-14.48
-15.75
-17.48
-19.89
-23.02
-26.73
-30.59
-33.88
-35.77
-35.50
-32.68
-27.40
-20.26
-12.16
-4.10
3.06
8.81
12.97
15.68
17.24
17.95
18.06
17.69
16.93
15.91
14.86
14.11
13.89
14.26
15.04
15.94
16.67
17.11
17.26
17.24
17.09
16.79
16.30
15.53
14.55
13.45
12.30
11.07
9.64
7.82
5.59
3.11
0.67
-1.42
-2.97
-4.02
-4.82
-5.67
-6.78
-8.23
-9.94
-11.78
-13.64
-15.49
-17.45
-19.64
-22.15
-24.98
-28.00
-30.94
-33.48
-35.18
-35.62
-34.35
-31.12
-25.94
-19.23
-11.72
-4.26
2.40
7.79
11.75
14.35
15.76
16.15
15.72
14.68
13.35
12.02
10.95
10.25
9.90
9.86
10.08
10.57
11.36
12.42
13.59
14.63
15.28
15.29
14.56
13.13
11.12
8.75
6.21
3.65
1.13
-1.39
-3.93
-6.51
-9.04
-11.40
-13.45
-15.16
-16.60
-18.00
-19.63
-21.70
-24.22
-26.94
-29.37
-30.85
-30.76
-28.69
-24.63
-18.98
-12.47
-5.95
-0.08
4.69
8.23
10.59
11.86
12.17
11.68
10.67
9.46
8.43
7.74
7.43
7.39
7.44
7.53
7.63
7.77
7.89
7.98
8.08
8.31
8.81
9.53
10.16
10.17
9.08
6.72
3.43
-0.14
-3.23
-5.37
-6.53
-7.07
-7.54
-8.40
-9.92
-12.13
-14.94
-18.17
-21.57
-24.82
-27.43
-28.80
-28.35
-25.68
-20.76
-14.02
-6.28
1.48
8.35
13.76
17.54
19.86
21.02
21.33
20.98
20.10
18.81
17.22
15.57
14.08
12.96
12.37
12.33
12.79
13.56
14.39
15.01
15.24
15.00
14.36
13.43
12.33
11.03
9.48
7.64
5.51
3.22
0.88
-1.43
-3.76
-6.16
-8.67
-11.23
-13.71
-16.05
-18.28
-20.58
-23.23
-26.44
-30.18
-34.11
-37.57
-39.77
-40.01
-37.86
-33.38
-27.09
-19.83
-12.52
-5.85
-0.17
4.53
8.34
11.38
13.62
14.94
15.30
14.86
13.94
13.02
12.47
12.46
12.94
13.69
14.49
15.25
15.95
16.54
16.96
17.00
16.43
15.12
13.13
10.72
8.18
5.76
3.52
1.38
-0.75
-2.83
-4.73
-6.28
-7.37
-8.10
-8.75
-9.71
-11.32
-13.78
-17.05
-20.87
-24.75
-28.07
-30.16
-30.45
-28.58
-24.53
-18.61
-11.45
-3.86
3.36
9.50
14.14
17.11
18.49
18.54
17.64
16.15
14.46
12.83
11.43
10.33
9.59
9.26
9.42
10.07
11.05
12.11
12.88
13.07
12.58
11.59
10.37
9.19
8.09
6.93
5.49
3.57
1.14
-1.66
-4.62
-7.56
-10.34
-12.91
-15.30
-17.59
-19.91
-22.45
-25.36
-28.62
-31.92
-34.68
-36.15
-35.65
-32.84
-27.85
-21.22
-13.76
-6.27
0.57
6.40
11.09
14.72
17.45
19.46
20.85
21.69
22.04
22.00
21.71
21.39
21.17
21.15
21.31
21.59
21.93
22.29
22.64
22.91
22.97
22.67
21.92
20.71
19.08
17.11
14.89
12.47
9.94
7.39
4.90
2.52
0.19
-2.15
-4.58
-7.05
-9.41
-11.48
-13.14
-14.41
-15.49
-16.73
-18.45
-20.90
-24.09
-27.76
-31.29
-33.83
-34.48
-32.63
-28.18
-21.63
-13.96
-6.28
0.50
5.89
9.86
12.69
14.74
16.25
17.37
18.13
18.54
18.72
18.80
18.97
19.34
19.96
20.72
21.48
22.03
22.27
22.17
21.82
21.33
20.76
20.09
19.20
17.98
16.31
14.21
11.77
9.18
6.56
4.06
1.74
-0.41
-2.43
-4.38
-6.37
-8.50
-10.88
-13.50
-16.29
-19.05
-21.57
-23.69
-25.40
-26.86
-28.33
-30.11
-32.36
-35.06
-37.84
-40.04
-40.85
-39.57
-35.88
-29.96
-22.55
-14.61
-7.09
-0.60
4.68
8.85
12.06
14.39
15.81
16.28
15.85
14.79
13.46
12.20
11.24
10.65
10.39
10.45
10.84
11.61
12.75
14.16
15.60
16.84
17.64
17.90
17.64
16.96
16.00
14.83
13.48
11.92
10.11
8.06
5.84
3.58
1.39
-0.59
-2.32
-3.81
-5.12
-6.40
-7.88
-9.79
-12.35
-15.62
-19.34
-22.92
-25.52
-26.33
-24.86
-21.15
-15.73
-9.44
-3.13
2.59
7.35
11.02
13.60
15.12
15.69
15.48
14.76
13.80
12.83
12.01
11.43
11.13
11.18
11.60
12.32
13.18
13.93
14.33
14.24
13.66
12.68
11.42
9.90
8.12
6.00
3.51
0.72
-2.23
-5.17
-8.01
-10.73
-13.36
-15.91
-18.35
-20.63
-22.73
-24.72
-26.74
-28.99
-31.52
-34.15
-36.45
-37.80
-37.55
-35.27
-30.89
-24.76
-17.58
-10.13
-3.15
2.88
7.78
11.54
14.28
16.14
17.28
17.88
18.17
18.36
18.56
18.77
18.88
18.80
18.57
18.32
18.26
18.54
19.13
19.87
20.48
20.76
20.52
19.76
18.52
16.89
15.01
12.99
10.95
8.94
6.88
4.54
1.69
-1.84
-5.99
-10.46
-14.81
-18.68
-21.93
-24.78
-27.59
-30.76
-34.47
-38.62
-42.89
-46.85
-50.04
-52.05
-52.49
-51.10
-47.68
-42.30
-35.32
-27.32
-18.99
-10.94
-3.58
2.99
8.84
14.12
18.95
23.27
26.97
29.85
31.84
32.99
33.60
34.02
34.56
35.38
36.34
37.16
37.43
36.88
35.51
33.55
31.32
29.09
26.95
24.78
22.36
19.51
16.23
12.69
9.20
6.02
3.36
1.27
-0.28
-1.38
-2.16
-2.74
-3.29
-4.00
-5.15
-6.93
-9.41
-12.44
-15.73
-19.06
-22.35
-25.56
-28.67
-31.71
-34.60
-37.14
-38.92
-39.39
-38.03
-34.52
-28.80
-21.26
-12.91
-5.00
1.41
5.93
8.82
10.77
12.55
15.04
18.78
23.42
27.91
31.12
32.40
31.73
29.60
26.94
25.59
27.25
32.14
38.81
45.25
49.98
52.49
53.40
54.03
57.15
65.19
77.96
92.59
105.53
114.10
117.21
115.03
108.22
99.65
93.23
92.40
99.57
116.80
144.56
180.20
217.55
238.07
227.46
189.41
144.04
110.60
97.00
100.33
111.23
122.36
130.54
137.49
146.39
157.57
167.05
171.90
169.71
160.20
145.18
127.43
110.96
98.97
91.81
86.97
81.39
72.94
61.30
47.75
34.09
22.84
15.88
13.29
13.28
13.73
12.95
10.35
6.28
1.41
-3.19
-6.68
-9.04
-11.09
-13.74
-17.78
-23.40
-30.34
-38.07
-45.83
-52.85
-58.73
-63.44
-67.30
-70.82
-74.48
-78.65
-83.43
-88.68
-94.00
-98.97
-103.32
-107.16
-110.96
-115.44
-121.19
-128.51
-137.16
-146.65
-156.35
-165.90
-175.36
-185.09
-195.72
-207.91
-222.38
-239.77
-260.30
-283.14
-305.95
-325.00
-336.09
-336.16
-324.59
-303.59
-277.26
-249.85
-224.25
-201.49
-181.21
-162.82
-146.23
-131.83
-119.93
-110.09
-101.17
-91.80
-81.84
-71.45
-60.81
-49.88
-38.52
-26.38
-13.03
1.60
17.22
32.43
46.19
58.27
69.00
78.85
88.26
97.80
108.06
119.65
131.46
143.17
155.55
169.31
184.16
199.23
214.03
228.23
241.46
247.94
243.47
227.27
200.29
163.44
118.28
68.21
17.03
-31.76
-85.55
-147.77
-214.55
-279.84
-341.18
-399.41
-455.22
-509.16
-559.30
-616.70
-682.45
-744.92
-790.85
-816.49
-826.91
-828.90
-828.81
-827.42
-839.67
-865.95
-889.59
-892.25
-868.54
-825.09
-771.39
-717.74
-550.26
-251.18
98.35
399.94
612.64
741.39
796.06
802.49
772.50
715.60
623.83
502.35
379.14
284.82
235.05
228.43
254.64
298.07
347.05
380.98
393.94
396.76
403.81
421.05
445.27
470.42
488.75
495.65
480.21
439.98
383.51
323.25
268.40
223.71
191.72
171.81
162.48
157.14
152.13
148.49
148.47
152.01
156.08
156.60
149.43
132.36
103.67
64.14
16.72
-35.04
-87.36
-135.38
-172.66
-192.74
-191.42
-168.93
-130.65
-85.17
-41.00
-3.93
23.47
40.37
45.74
37.54
14.01
-24.20
-72.71
-124.52
-173.02
-215.17
-252.66
-289.97
-330.26
-371.72
-407.04
-426.94
-425.75
-405.52
-375.80
-348.80
-332.60
-326.64
-322.12
-306.97
-272.62
-218.46
-151.71
-83.16
-21.95
27.75
66.54
97.17
121.47
139.01
148.13
147.76
139.17
126.00
113.16
104.91
103.40
108.29
117.34
127.86
138.02
147.51
157.50
169.93
186.40
207.30
231.27
255.56
276.71
291.82
299.25
299.12
292.77
281.92
267.94
251.44
232.55
211.60
189.68
168.68
150.81
137.75
129.97
126.49
125.33
124.25
121.59
116.67
109.79
101.73
93.23
84.47
75.06
64.28
51.61
37.13
21.67
6.46
-7.35
-19.18
-29.29
-38.54
-48.13
-59.01
-71.01
-83.60
-96.27
-108.17
-117.96
-123.31
-121.97
-112.35
-93.96
-66.90
-32.81
5.15
43.15
77.55
105.89
126.54
138.66
142.36
140.29
135.11
128.33
120.77
113.03
106.84
103.31
102.65
104.52
112.67
128.37
148.36
167.27
180.20
187.42
189.76
187.74
182.01
182.23
193.31
210.94
226.44
232.01
230.53
225.86
220.77
217.58
231.88
270.66
325.44
380.31
420.69
449.23
470.49
487.87
504.71
542.06
610.35
699.77
789.78
859.76
909.64
941.02
954.81
835.96
555.58
196.49
-122.90
-309.66
-411.96
-467.99
-499.98
-524.89
-546.66
-547.58
-519.44
-473.88
-432.37
-414.56
-417.07
-433.09
-456.56
-481.54
-489.82
-472.78
-438.48
-403.41
-383.21
-376.57
-380.50
-393.23
-412.53
-426.42
-425.40
-406.94
-372.54
-325.39
-263.36
-189.77
-113.81
-46.33
7.85
46.12
66.37
67.96
52.44
26.93
-1.25
-25.84
-41.89
-45.29
-35.66
-16.96
4.56
22.84
35.27
41.67
43.53
43.10
42.31
42.12
42.58
43.12
43.01
41.76
39.16
35.51
31.55
28.44
27.56
30.15
36.84
47.33
60.43
74.38
87.41
98.30
106.45
111.75
114.17
113.45
108.99
100.17
86.76
69.21
48.73
27.12
6.20
-12.55
-28.39
-41.46
-52.67
-63.44
-75.30
-89.40
-106.10
-124.86
-144.47
-163.41
-180.55
-195.39
-208.31
-220.39
-233.29
-248.87
-268.54
-292.36
-318.14
-341.44
-356.58
-358.65
-345.56
-318.94
-283.64
-245.75
-210.35
-179.93
-154.37
-131.82
-110.33
-88.83
-67.56
-47.72
-30.84
-18.24
-10.68
-8.35
-10.90
-17.67
-27.97
-41.01
-55.85
-71.21
-85.48
-96.99
-104.49
-107.66
-107.16
-104.45
-101.26
-99.01
-98.54
-100.01
-103.11
-107.49
-113.13
-120.71
-131.54
-147.23
-168.65
-194.96
-222.94
-247.01
-260.70
-258.39
-237.19
-197.58
-142.93
-78.27
-9.18
58.66
119.80
169.39
204.34
224.54
233.38
236.77
240.58
248.00
258.07
266.55
268.37
260.49
243.50
221.15
198.54
179.96
167.57
161.21
159.28
159.60
160.16
159.42
156.24
149.85
139.81
126.19
109.63
91.37
72.99
56.11
41.88
30.76
22.45
16.21
11.22
6.84
2.73
-1.23
-5.15
-9.10
-13.06
-16.86
-20.15
-22.67
-24.40
-25.82
-27.83
-31.61
-38.49
-49.69
-65.98
-87.20
-111.66
-135.75
-154.26
-161.58
-153.47
-129.02
-91.51
-47.83
-6.54
24.90
42.30
45.72
39.13
28.74
20.76
19.20
24.41
32.87
38.34
34.41
17.09
-13.24
-51.82
-91.16
-123.99
-145.65
-155.20
-154.61
-146.97
-134.82
-119.54
-101.79
-82.36
-62.50
-43.67
-26.94
-12.56
-0.25
10.02
17.27
19.64
15.30
3.80
-13.02
-31.34
-46.46
-54.57
-53.90
-44.84
-29.21
-9.16
13.46
37.16
60.41
81.31
97.81
108.31
112.39
111.09
106.59
101.13
96.27
92.41
88.96
85.00
79.91
73.60
66.20
57.85
48.45
38.09
27.49
17.99
11.21
8.02
7.78
8.23
6.13
-1.51
-16.34
-38.31
-65.95
-97.08
-129.38
-160.57
-188.14
-209.23
-220.77
-220.37
-207.24
-183.01
-151.57
-118.20
-88.11
-64.85
-49.66
-41.48
-38.12
-37.38
-37.90
-39.22
-41.27
-43.73
-45.75
-46.11
-43.56
-37.50
-28.08
-16.30
-3.72
8.02
17.74
25.11
30.66
35.45
40.33
45.51
50.37
53.82
54.90
53.24
49.19
43.49
36.81
29.38
20.94
10.97
-0.97
-14.83
-29.83
-44.42
-56.55
-64.24
-66.35
-63.08
-56.05
-47.77
-40.70
-36.50
-35.59
-37.38
-40.89
-45.26
-50.06
-55.21
-60.53
-65.56
-69.41
-71.01
-69.23
-63.27
-52.69
-37.59
-18.64
3.06
26.08
49.02
70.66
89.95
105.94
117.53
123.54
122.98
115.59
102.20
84.67
65.30
45.96
27.52
9.75
-8.14
-26.79
-46.08
-65.07
-82.22
-95.81
-104.33
-106.73
-102.50
-91.75
-75.25
-54.24
-30.10
-3.91
23.69
52.31
81.33
109.39
134.33
153.68
165.50
169.14
165.52
156.75
145.35
133.51
122.71
113.75
107.01
102.86
101.59
103.37
107.95
114.55
122.01
129.00
134.45
137.69
138.55
137.24
134.19
129.82
124.52
118.55
112.06
105.13
97.70
89.65
80.82
71.12
60.60
49.44
37.91
26.20
14.45
2.65
-9.06
-20.30
-30.23
-37.64
-41.21
-39.90
-33.32
-21.99
-7.26
9.02
24.97
39.07
50.45
58.88
64.58
67.97
69.39
69.08
67.25
64.21
60.47
56.69
53.51
51.37
50.42
50.49
51.18
52.11
52.93
53.51
53.78
53.75
53.29
52.21
50.18
46.89
42.21
36.26
29.48
22.49
15.91
10.12
5.12
0.57
-4.09
-9.29
-15.19
-21.54
-27.79
-33.34
-37.88
-41.44
-44.43
-47.44
-51.06
-55.69
-61.47
-68.16
-75.09
-81.08
-84.66
-84.32
-79.07
-68.78
-54.34
-37.45
-20.06
-3.91
9.91
20.97
29.36
35.38
39.30
41.27
41.43
39.97
37.27
33.94
30.69
28.15
26.74
26.64
27.81
30.21
33.77
38.44
43.99
49.90
55.37
59.55
61.82
62.00
60.39
57.59
54.23
50.75
47.28
43.74
39.97
35.84
31.41
26.91
22.61
18.78
15.47
12.47
9.34
5.59
0.86
-4.88
-11.22
-17.31
-22.14
-24.69
-24.36
-21.16
-15.77
-9.42
-3.46
1.05
3.63
4.51
4.39
4.02
3.93
4.23
4.67
4.96
4.99
4.89
5.05
5.89
7.63
10.30
13.71
17.61
21.75
25.90
29.74
32.74
34.21
33.34
29.63
23.08
14.37
4.75
-4.29
-11.52
-16.28
-18.64
-19.33
-19.41
-19.93
-21.67
-24.99
-29.79
-35.49
-41.11
-45.33
-46.77
-44.25
-37.24
-26.05
-11.89
3.40
17.84
29.78
38.31
43.34
45.45
45.51
44.35
42.49
40.10
37.15
33.60
29.58
25.40
21.51
18.25
15.82
14.19
13.15
12.41
11.69
10.76
9.44
7.63
5.28
2.41
-0.89
-4.52
-8.34
-12.31
-16.40
-20.68
-25.20
-29.98
-35.01
-40.18
-45.34
-50.35
-55.17
-59.87
-64.60
-69.36
-73.89
-77.47
-79.09
-77.72
-72.66
-63.88
-52.09
-38.55
-24.69
-11.78
-0.68
8.29
15.15
20.07
23.28
24.90
25.00
23.69
21.25
18.15
15.04
12.55
11.19
11.16
12.38
14.51
17.15
19.98
22.70
25.12
26.97
27.95
27.67
25.85
22.46
17.83
12.59
7.51
3.16
-0.31
-3.15
-5.83
-8.78
-12.14
-15.65
-18.79
-21.10
-22.38
-22.80
-22.85
-23.14
-24.27
-26.63
-30.40
-35.48
-41.46
-47.52
-52.50
-55.10
-54.14
-49.04
-40.01
-28.10
-14.88
-1.99
9.29
18.30
24.90
29.33
31.89
32.78
32.10
29.93
26.50
22.23
17.71
13.57
10.37
8.46
7.96
8.73
10.53
12.99
15.65
18.05
19.72
20.26
19.47
17.41
14.37
10.76
7.02
3.42
0.09
-3.00
-5.95
-8.86
-11.75
-14.60
-17.30
-19.69
-21.65
-23.10
-24.03
-24.57
-24.92
-25.27
-25.84
-26.74
-28.01
-29.67
-31.77
-34.48
-38.04
-42.65
-48.28
-54.41
-59.96
-63.45
-63.46
-59.08
-50.28
-38.02
-23.90
-9.64
3.42
14.59
23.79
31.18
36.98
41.14
43.58
44.33
43.74
42.52
41.60
41.85
43.83
47.59
52.69
58.32
63.62
67.92
71.03
73.27
75.37
78.05
81.77
86.51
91.79
96.96
101.39
104.56
105.92
104.77
100.28
91.88
79.59
64.03
46.00
25.91
3.29
-22.82
-53.03
-86.56
-120.83
-152.13
-176.84
-192.77
-199.60
-198.45
-190.83
-177.80
-159.86
-137.42
-111.57
-84.28
-58.07
-35.34
-17.71
-5.80
0.65
2.36
0.25
-4.68
-11.29
-18.26
-24.18
-27.76
-28.14
-25.08
-18.97
-10.73
-1.47
7.73
16.01
22.88
28.11
31.74
33.91
34.80
34.48
32.86
29.66
24.55
17.44
8.59
-1.29
-11.18
-20.09
-27.28
-32.46
-35.72
-37.52
-38.46
-39.25
-40.44
-42.26
-44.45
-46.18
-46.31
-43.73
-37.89
-28.95
-17.84
-5.87
5.61
15.56
23.37
28.83
32.05
33.35
33.28
32.50
31.70
31.35
31.60
32.14
32.39
31.78
30.03
27.38
24.54
22.46
21.90
23.10
25.62
28.41
30.22
30.02
27.32
22.30
15.73
8.58
1.68
-4.52
-10.05
-15.17
-20.24
-25.40
-30.57
-35.40
-39.54
-42.68
-44.71
-45.79
-46.21
-46.37
-46.57
-46.96
-47.36
-47.33
-46.21
-43.36
-38.44
-31.52
-23.15
-14.17
-5.47
2.24
8.62
13.69
17.73
21.04
23.80
25.92
27.19
27.36
26.39
24.48
22.05
19.64
17.70
16.49
16.06
16.31
17.05
18.05
19.04
19.74
19.90
19.36
18.07
16.04
13.34
10.01
6.09
1.65
-3.15
-8.03
-12.64
-16.57
-19.58
-21.60
-22.83
-23.70
-24.76
-26.51
-29.20
-32.70
-36.45
-39.60
-41.16
-40.28
-36.44
-29.65
-20.47
-9.91
0.76
10.37
18.10
23.61
27.01
28.70
29.12
28.61
27.33
25.38
22.94
20.29
17.91
16.27
15.63
15.95
16.90
17.99
18.83
19.22
19.18
18.90
18.45
17.79
16.66
14.80
12.05
8.55
4.66
0.82
-2.57
-5.38
-7.73
-9.97
-12.50
-15.64
-19.53
-24.06
-28.90
-33.46
-37.08
-38.99
-38.55
-35.43
-29.71
-21.91
-12.88
-3.56
5.22
12.87
19.13
23.96
27.47
29.79
31.00
31.15
30.32
28.66
26.43
23.98
21.72
20.03
19.14
19.05
19.55
20.22
20.60
20.31
19.12
17.03
14.25
11.09
7.94
5.09
2.60
0.40
-1.76
-4.16
-6.93
-10.10
-13.51
-16.97
-20.31
-23.49
-26.49
-29.32
-32.05
-34.73
-37.38
-39.85
-41.76
-42.53
-41.52
-38.23
-32.59
-25.02
-16.36
-7.58
0.43
7.10
12.21
15.80
18.11
19.37
19.85
19.77
19.32
18.69
18.10
17.69
17.62
17.93
18.59
19.51
20.49
21.29
21.70
21.60
20.98
19.92
18.55
16.92
15.02
12.79
10.26
7.62
5.19
3.33
2.20
1.71
1.47
0.99
-0.19
-2.27
-5.19
-8.63
-12.11
-15.16
-17.39
-18.61
-18.85
-18.43
-17.86
-17.74
-18.44
-19.90
-21.50
-22.23
-21.06
-17.38
-11.34
-3.80
3.97
10.77
15.88
19.15
20.88
21.43
21.02
19.60
17.04
13.33
8.78
4.04
-0.14
-3.01
-4.17
-3.58
-1.53
1.51
5.09
8.85
12.63
16.27
19.63
22.49
24.57
25.65
25.64
24.64
22.86
20.59
18.04
15.35
12.52
9.56
6.43
3.17
-0.19
-3.65
-7.18
-10.78
-14.37
-17.89
-21.24
-24.36
-27.23
-29.88
-32.39
-34.88
-37.48
-40.28
-43.26
-46.18
-48.51
-49.49
-48.35
-44.51
-37.91
-29.04
-18.87
-8.62
0.65
8.20
13.74
17.37
19.40
20.19
20.07
19.33
18.23
17.04
15.95
15.12
14.54
14.15
13.88
13.72
13.76
14.12
14.93
16.15
17.55
18.77
19.37
19.06
17.73
15.55
12.83
9.92
7.09
4.43
1.89
-0.63
-3.22
-5.86
-8.48
-11.01
-13.44
-15.76
-18.00
-20.09
-21.96
-23.58
-25.04
-26.54
-28.40
-30.89
-34.15
-38.01
-41.97
-45.27
-47.00
-46.37
-42.95
-36.76
-28.36
-18.71
-8.96
-0.10
7.18
12.61
16.29
18.49
19.48
19.45
18.49
16.68
14.23
11.49
8.97
7.15
6.34
6.60
7.76
9.49
11.41
13.17
14.54
15.36
15.53
15.07
14.00
12.45
10.57
8.51
6.32
4.02
1.59
-0.96
-3.49
-5.80
-7.69
-9.09
-10.15
-11.24
-12.75
-15.01
-18.12
-21.81
-25.56
-28.60
-30.10
-29.36
-25.95
-19.90
-11.66
-2.09
7.76
16.86
24.39
29.88
33.19
34.43
33.92
31.99
29.01
25.37
21.52
17.89
14.93
12.96
12.09
12.19
12.91
13.82
14.60
15.05
15.14
14.94
14.47
13.66
12.39
10.59
8.24
5.50
2.59
-0.23
-2.77
-4.97
-6.84
-8.45
-9.91
-11.35
-12.90
-14.74
-16.96
-19.41
-21.58
-22.61
-21.47
-17.36
-10.04
-0.03
11.48
22.97
33.04
40.82
46.15
49.43
51.35
52.53
53.18
53.13
51.99
49.47
45.77
41.61
38.06
36.08
36.05
37.62
39.84
41.79
42.95
43.60
44.53
46.62
50.65
57.12
66.18
77.26
88.83
98.17
101.90
97.00
82.08
58.48
30.34
3.36
-17.30
-28.73
-31.09
-27.02
-20.22
-14.35
-11.69
-12.56
-15.68
-18.95
-20.12
-17.65
-10.93
-0.53
10.95
20.23
24.60
22.47
12.90
-4.25
-28.99
-60.10
-94.77
-130.55
-163.90
-190.24
-205.65
-209.40
-203.85
-194.55
-186.47
-182.02
-183.33
-189.78
-197.38
-200.77
-196.58
-183.70
-165.02
-143.64
-121.59
-103.52
-93.14
-91.07
-95.83
-106.74
-123.29
-147.12
-177.65
-188.18
-161.49
-102.65
-33.55
27.10
63.98
85.40
98.07
106.94
115.64
125.03
132.98
139.05
145.30
153.71
166.15
180.99
193.52
198.76
192.19
173.48
146.42
116.56
88.35
65.65
48.09
35.66
28.89
26.13
24.76
22.81
20.94
18.94
16.82
13.61
9.15
4.39
-0.12
-4.16
-7.28
-8.93
-9.14
-8.01
-6.34
-4.59
-2.82
-1.18
-0.01
0.46
0.26
-0.57
-1.77
-3.38
-5.47
-8.28
-12.04
-16.91
-22.62
-28.36
-32.95
-35.03
-33.69
-28.66
-20.57
-10.71
-0.68
8.10
14.72
18.96
21.29
22.46
23.24
24.01
24.78
25.20
24.99
24.04
22.56
20.98
19.74
19.07
18.91
19.02
19.10
19.05
18.85
18.60
18.32
17.88
17.02
15.50
13.16
10.08
6.49
2.70
-1.03
-4.54
-7.87
-11.17
-14.62
-18.42
-22.60
-27.01
-31.27
-34.75
-36.63
-36.12
-32.63
-26.09
-17.03
-6.49
4.25
14.00
21.95
27.78
31.49
33.25
33.24
31.59
28.51
24.33
19.58
14.83
10.71
7.62
5.73
4.96
5.00
5.48
6.08
6.58
6.93
7.13
7.21
7.07
6.51
5.34
3.46
0.97
-1.84
-4.59
-6.98
-8.90
-10.48
-12.06
-14.06
-16.87
-20.64
-25.18
-29.88
-33.79
-35.81
-35.03
-31.00
-23.91
-14.63
-4.37
5.60
14.32
21.30
26.44
29.96
32.08
33.02
32.82
31.55
29.32
26.40
23.16
20.04
17.39
15.38
14.03
13.19
12.65
12.24
11.88
11.54
11.18
10.73
9.97
8.63
6.46
3.34
-0.58
-4.95
-9.30
-13.25
-16.59
-19.42
-22.01
-24.72
-27.80
-31.39
-35.43
-39.70
-43.76
-46.89
-48.22
-46.93
-42.51
-35.09
-25.47
-14.96
-4.99
3.34
9.50
13.55
15.92
17.12
17.52
17.32
16.61
15.54
14.29
13.18
12.49
12.46
13.19
14.58
16.40
18.39
20.22
21.66
22.57
22.88
22.58
21.64
20.05
17.85
15.13
12.12
9.13
6.43
4.12
2.09
0.06
-2.31
-5.24
-8.67
-12.32
-15.76
-18.64
-20.85
-22.52
-23.91
-25.40
-27.25
-29.70
-32.88
-36.80
-41.19
-45.50
-48.81
-50.05
-48.36
-43.38
-35.50
-25.71
-15.34
-5.72
2.19
7.94
11.51
13.21
13.51
12.83
11.51
9.77
7.74
5.55
3.38
1.41
-0.16
-1.20
-1.73
-1.81
-1.60
-1.22
-0.80
-0.48
-0.51
-1.11
-2.46
-4.48
-6.86
-9.14
-10.89
-11.91
-12.39
-12.74
-13.44
-14.70
-16.40
-18.13
-19.41
-20.02
-20.05
-19.91
-20.10
-20.98
-22.58
-24.57
-26.20
-26.60
-24.94
-20.76
-14.16
-5.78
3.30
11.93
19.13
24.39
27.62
29.07
29.08
28.01
26.16
23.87
21.57
19.75
18.90
19.38
21.28
24.37
28.21
32.31
36.23
39.78
42.88
45.51
47.57
48.76
48.76
47.29
44.29
39.98
34.81
29.32
23.97
19.07
14.76
11.03
7.74
4.72
1.73
-1.35
-4.56
-7.72
-10.57
-12.83
-14.31
-15.14
-15.62
-16.20
-17.28
-19.02
-21.16
-23.08
-23.95
-22.95
-19.60
-13.97
-6.65
1.36
9.03
15.54
20.46
23.80
25.85
26.94
27.29
27.05
26.28
25.09
23.67
22.27
21.15
20.51
20.39
20.73
21.32
21.98
22.54
22.91
23.07
23.03
22.81
22.33
21.53
20.37
18.82
16.93
14.80
12.57
10.38
8.36
6.56
5.00
3.58
2.19
0.63
-1.21
-3.40
-5.95
-8.79
-11.87
-15.12
-18.54
-22.11
-25.82
-29.66
-33.63
-37.71
-41.78
-45.53
-48.46
-49.94
-49.34
-46.34
-41.03
-34.08
-26.49
-19.44
-13.90
-10.45
-9.17
-9.75
-11.66
-14.28
-17.14
-19.86
-22.23
-24.12
-25.51
-26.34
-26.65
-26.49
-25.94
-25.23
-24.62
-24.42
-24.90
-26.22
-28.37
-31.18
-34.29
-37.25
-39.62
-40.99
-41.10
-39.90
-37.47
-34.00
-29.80
-25.23
-20.66
-16.46
-12.95
-10.27
-8.47
-7.43
-6.97
-6.95
-7.26
-7.85
-8.71
-9.80
-11.07
-12.45
-13.73
-14.66
-14.87
-13.92
-11.47
-7.36
-1.76
4.91
11.91
18.48
23.89
27.66
29.61
29.90
28.94
27.24
25.36
23.68
22.41
21.57
21.07
20.81
20.73
20.81
21.04
21.42
21.84
22.21
22.36
22.19
21.60
20.59
19.23
17.63
15.95
14.33
12.93
11.86
11.23
11.11
11.57
12.56
13.96
15.52
16.93
17.84
18.07
17.56
16.46
15.02
13.54
12.33
11.62
11.63
12.52
14.38
17.17
20.69
24.68
28.80
32.79
36.46
39.64
42.19
43.90
44.66
44.41
43.32
41.69
39.88
38.22
36.82
35.70
34.73
33.87
33.12
32.58
32.35
32.44
32.76
33.08
33.15
32.70
31.54
29.60
26.95
23.75
20.23
16.59
13.06
9.80
6.99
4.68
2.81
1.11
-0.78
-3.30
-6.68
-10.80
-15.14
-18.88
-21.27
-21.89
-20.80
-18.54
-15.85
-13.40
-11.67
-10.84
-10.85
-11.58
-12.77
-14.20
-15.65
-16.90
-17.88
-18.57
-19.01
-19.18
-18.95
-18.12
-16.56
-14.28
-11.48
-8.45
-5.47
-2.71
-0.28
1.66
2.81
2.78
1.24
-1.86
-6.28
-11.50
-16.98
-22.31
-27.29
-31.87
-36.06
-39.90
-43.34
-46.49
-49.48
-52.52
-55.63
-58.60
-60.79
-61.38
-59.58
-54.99
-47.82
-38.92
-29.72
-21.80
-16.59
-14.97
-17.06
-22.22
-29.25
-36.83
-43.89
-49.95
-55.16
-60.15
-65.67
-72.30
-80.30
-89.46
-99.21
-108.58
-116.30
-121.09
-122.17
-119.63
-114.83
-110.10
-107.86
-109.50
-114.52
-120.53
-124.09
-122.16
-113.15
-97.45
-76.96
-54.06
-30.76
-8.19
13.18
33.06
50.89
66.11
78.14
86.91
92.92
97.06
100.29
103.17
105.90
108.14
110.06
111.86
113.97
116.88
120.79
125.41
130.04
133.74
135.29
134.79
132.45
128.80
124.44
119.87
115.32
110.91
106.67
101.97
97.72
94.41
92.56
92.66
94.89
98.83
103.22
105.93
103.34
93.95
76.57
51.78
21.94
-9.38
-38.48
-62.59
-74.28
-80.56
-82.04
-80.28
-76.46
-71.18
-64.72
-57.28
-49.18
-40.87
-33.62
-26.52
-19.04
-10.42
-0.04
12.17
25.35
37.71
46.91
50.01
46.24
35.37
18.30
-3.27
-27.29
-51.77
-74.95
-95.29
-111.99
-123.49
-128.91
-127.62
-119.33
-104.12
-82.53
-55.77
-25.84
4.28
31.66
53.35
67.24
72.48
69.56
60.04
46.07
30.04
14.32
1.28
-7.20
-9.96
-6.98
0.54
10.48
20.39
28.29
33.17
34.96
34.31
32.05
28.86
25.13
21.10
16.91
12.84
9.15
6.09
3.80
2.30
1.53
1.38
1.70
2.29
2.83
3.01
2.48
0.98
-1.57
-5.07
-9.24
-13.66
-17.90
-21.64
-24.69
-27.16
-29.35
-31.66
-34.47
-37.87
-41.53
-44.71
-46.35
-45.44
-41.38
-34.26
-24.85
-14.51
-4.68
3.44
9.21
12.63
14.12
14.28
13.66
12.61
11.29
9.77
8.08
6.37
4.86
3.79
3.43
3.90
5.26
7.27
9.57
11.67
13.15
13.75
13.46
12.46
10.97
9.10
6.86
4.12
0.82
-2.91
-6.81
-10.55
-13.89
-16.74
-19.24
-21.60
-24.03
-26.70
-29.77
-33.37
-37.60
-42.26
-46.72
-49.88
-50.41
-47.17
-39.76
-28.79
-15.74
-2.53
9.16
18.34
24.83
29.06
31.68
33.18
33.79
33.56
32.50
30.79
28.70
26.60
24.77
23.39
22.47
22.02
21.99
22.29
22.79
23.28
23.43
22.97
21.67
19.45
16.41
12.80
8.95
5.26
2.08
-0.39
-2.16
-3.44
-4.61
-6.04
-7.97
-10.49
-13.43
-16.48
-19.29
-21.52
-23.04
-23.90
-24.37
-24.89
-25.93
-27.87
-30.89
-34.88
-39.31
-43.26
-45.43
-44.45
-39.25
-29.47
-15.82
0.08
16.05
30.07
40.82
47.94
51.93
53.68
54.06
53.58
52.37
50.39
47.68
44.46
41.20
38.37
36.24
34.82
33.83
32.84
31.53
29.73
27.42
24.62
21.34
17.59
13.40
8.96
4.57
0.57
-2.79
-5.50
-7.76
-9.90
-12.17
-14.71
-17.46
-20.34
-23.24
-26.20
-29.30
-32.58
-35.97
-39.25
-42.14
-44.45
-46.16
-47.54
-48.92
-50.63
-52.83
-55.48
-58.42
-61.37
-63.81
-65.03
-64.10
-60.13
-52.69
-42.08
-29.40
-16.21
-3.94
6.58
15.14
21.87
26.78
29.43
29.12
25.33
18.29
9.11
-0.45
-8.47
-13.61
-15.38
-14.15
-10.91
-6.80
-2.74
0.77
3.56
5.72
7.34
8.42
8.85
8.58
7.69
6.50
5.43
4.83
4.82
5.24
5.79
6.19
6.34
6.29
6.21
6.15
6.02
5.62
4.67
2.98
0.45
-2.96
-7.27
-12.44
-18.28
-24.31
-29.67
-33.40
-34.59
-32.80
-28.07
-20.94
-12.21
-2.75
6.59
14.95
21.44
25.29
26.07
23.92
19.64
14.52
9.96
7.11
6.56
8.34
11.98
16.76
21.83
26.33
29.63
31.36
31.52
30.44
28.53
26.13
23.34
20.02
15.94
11.03
5.46
-0.32
-5.72
-10.23
-13.51
-15.54
-16.56
-17.03
-17.54
-18.63
-20.67
-23.60
-26.78
-29.11
-29.29
-26.23
-19.58
-9.81
1.73
13.36
23.45
30.86
35.22
36.74
36.12
34.15
31.49
28.58
25.65
22.84
20.34
18.39
17.26
17.14
18.06
19.75
21.74
23.55
24.75
25.12
24.63
23.35
21.34
18.61
15.19
11.13
6.59
1.84
-2.84
-7.17
-11.04
-14.45
-17.51
-20.37
-23.21
-26.19
-29.45
-33.15
-37.43
-42.19
-46.99
-50.90
-52.57
-50.67
-44.39
-33.86
-20.27
-5.52
8.31
19.67
27.74
32.54
34.59
34.56
33.05
30.42
26.99
23.07
19.02
15.29
12.36
10.56
10.06
10.74
12.28
14.22
16.17
17.87
19.20
20.15
20.64
20.54
19.62
17.69
14.74
11.00
6.91
2.98
-0.44
-3.25
-5.65
-7.99
-10.61
-13.62
-16.88
-20.00
-22.57
-24.32
-25.24
-25.66
-26.12
-27.29
-29.67
-33.52
-38.57
-43.97
-48.33
-49.93
-47.32
-39.81
-27.86
-13.07
2.29
16.01
26.54
33.35
36.80
37.71
36.99
35.26
32.94
30.23
27.29
24.35
21.68
19.58
18.27
17.89
18.39
19.58
21.11
22.67
23.95
24.77
25.00
24.56
23.46
21.73
19.46
16.84
14.08
11.34
8.74
6.35
4.10
1.94
-0.29
-2.68
-5.30
-8.12
-11.04
-13.98
-16.89
-19.85
-22.95
-26.21
-29.57
-32.87
-36.00
-38.90
-41.71
-44.68
-48.08
-52.12
-56.74
-61.46
-65.32
-66.91
-64.83
-58.10
-46.71
-31.78
-15.34
0.26
13.14
22.25
27.55
29.63
29.35
27.47
24.51
20.92
17.11
13.53
10.61
8.66
7.83
8.05
9.20
11.07
13.51
16.32
19.26
22.02
24.29
25.80
26.36
25.92
24.44
21.99
18.66
14.60
10.03
5.21
0.37
-4.33
-8.85
-13.22
-17.50
-21.72
-25.91
-30.05
-34.16
-38.20
-42.16
-46.02
-49.79
-53.61
-57.63
-61.95
-66.51
-70.98
-74.69
-76.70
-75.89
-71.20
-61.92
-47.93
-30.00
-9.84
10.22
27.64
40.38
47.42
48.91
46.08
40.75
34.71
29.31
25.30
22.84
21.69
21.47
21.75
22.26
22.83
23.40
23.96
24.47
24.79
24.68
23.86
22.09
19.28
15.53
11.12
6.44
1.88
-2.28
-5.88
-8.96
-11.62
-13.99
-16.16
-18.03
-19.34
-19.77
-19.09
-17.28
-14.59
-11.48
-8.43
-5.78
-3.52
-1.26
1.68
5.98
12.11
20.12
29.63
39.86
49.91
58.83
65.76
70.04
71.27
69.34
64.53
57.50
49.09
40.14
31.43
23.50
16.78
11.69
8.60
7.82
9.38
12.97
17.89
23.21
28.00
31.50
33.37
33.62
32.53
30.40
27.36
23.33
18.02
11.13
2.57
-7.39
-18.14
-28.85
-38.73
-47.23
-54.18
-59.77
-64.46
-68.74
-72.99
-77.25
-81.13
-83.77
-83.96
-80.38
-72.00
-58.60
-40.95
-20.94
-1.11
15.95
28.33
35.24
37.10
35.21
31.23
26.67
22.65
19.81
18.39
18.35
19.46
21.44
24.02
26.97
30.18
33.59
37.13
40.67
43.93
46.62
48.40
48.98
48.16
45.72
41.54
35.51
27.60
17.89
6.67
-5.63
-18.38
-30.85
-42.28
-52.06
-59.94
-66.12
-71.28
-76.42
-82.49
-90.08
-98.96
-108.11
-115.80
-120.14
-119.60
-113.48
-102.21
-87.19
-70.36
-53.73
-38.82
-26.37
-16.36
-8.19
-1.17
5.24
11.16
16.42
20.71
23.89
26.07
27.66
29.11
30.85
33.02
35.59
38.34
40.94
43.12
44.65
45.39
45.29
44.32
42.50
39.88
36.53
32.61
28.30
23.75
19.04
14.11
8.86
3.18
-2.89
-9.11
-15.07
-20.27
-24.33
-26.99
-28.19
-27.91
-26.17
-22.94
-18.22
-12.13
-4.97
2.84
10.80
18.54
25.76
32.25
37.72
41.75
43.79
43.42
40.47
35.28
28.64
21.62
15.36
10.77
8.36
8.21
10.03
13.28
17.27
21.25
24.53
26.50
26.75
25.11
21.71
16.84
11.03
4.86
-1.19
-6.70
-11.46
-15.43
-18.71
-21.54
-24.27
-27.27
-30.89
-35.35
-40.56
-45.96
-50.58
-53.13
-52.36
-47.46
-38.32
-25.68
-10.98
4.09
17.91
29.38
38.08
44.17
48.21
50.80
52.33
52.92
52.46
50.84
48.13
44.69
41.07
37.91
35.73
34.81
35.12
36.36
38.06
39.72
40.90
41.30
40.78
39.36
37.15
34.26
30.81
26.82
22.32
17.28
11.63
5.35
-1.50
-8.68
-15.82
-22.51
-28.51
-33.85
-38.78
-43.65
-48.52
-53.00
-56.12
-56.65
-53.56
-46.44
-35.74
-22.70
-8.90
4.08
15.13
23.71
29.80
33.69
35.80
36.46
35.89
34.21
31.49
27.90
23.77
19.58
15.84
12.91
10.84
9.41
8.25
7.03
5.67
4.22
2.83
1.54
0.21
-1.38
-3.37
-5.70
-8.12
-10.24
-11.75
-12.61
-13.05
-13.51
-14.43
-16.08
-18.45
-21.22
-23.91
-26.08
-27.47
-28.14
-28.53
-29.29
-31.05
-34.09
-38.10
-42.13
-44.84
-44.92
-41.53
-34.72
-25.45
-15.33
-6.25
0.17
2.98
2.08
-1.71
-6.96
-11.96
-15.26
-15.98
-13.97
-9.74
-4.11
2.08
8.22
13.98
19.19
23.75
27.44
30.09
31.57
31.96
31.48
30.49
29.33
28.23
27.26
26.35
25.32
23.95
22.08
19.65
16.71
13.41
9.96
6.53
3.22
0.02
-3.16
-6.47
-10.09
-14.08
-18.33
-22.42
-25.56
-26.76
-25.09
-20.06
-11.93
-1.70
9.12
19.00
26.87
32.29
35.49
37.01
37.44
37.12
36.15
34.48
32.08
29.14
26.05
23.31
21.42
20.62
20.91
21.92
23.18
24.19
24.57
24.20
23.10
21.39
19.19
16.55
13.51
10.07
6.31
2.37
-1.52
-5.16
-8.38
-11.08
-13.29
-15.19
-17.01
-19.00
-21.37
-24.17
-27.35
-30.62
-33.50
-35.28
-35.18
-32.51
-26.96
-18.76
-8.73
1.89
11.84
20.12
26.22
30.11
32.10
32.66
32.27
31.30
29.98
28.49
26.95
25.50
24.36
23.76
23.90
24.80
26.26
27.84
28.99
29.20
28.22
26.12
23.18
19.76
16.25
12.90
9.88
7.27
4.96
2.68
-0.00
-3.57
-8.31
-14.17
-20.76
-27.42
-33.62
-39.15
-44.17
-49.13
-54.47
-60.33
-66.37
-71.82
-75.56
-76.47
-73.74
-67.11
-57.00
-44.46
-30.87
-17.66
-6.04
3.26
10.01
14.36
16.75
17.71
17.83
17.70
17.86
18.77
20.69
23.53
26.79
29.67
31.27
30.93
28.45
24.12
18.58
12.58
6.75
1.50
-2.92
-6.42
-9.01
-10.79
-11.97
-12.92
-14.03
-15.68
-18.13
-21.43
-25.43
-29.77
-33.97
-37.55
-40.22
-41.96
-43.08
-44.07
-45.38
-47.11
-48.87
-49.77
-48.77
-44.98
-38.15
-28.78
-17.94
-6.91
3.25
11.92
19.01
24.68
29.09
32.24
33.92
33.92
32.17
28.87
24.46
19.48
14.44
9.83
6.04
3.40
2.18
2.38
3.85
6.15
8.75
11.11
12.90
14.04
14.64
14.90
14.95
14.75
14.08
12.58
9.88
5.80
0.51
-5.55
-11.83
-17.87
-23.52
-28.90
-34.24
-39.50
-44.22
-47.51
-48.28
-45.78
-39.86
-31.20
-21.05
-10.98
-2.31
4.07
7.85
9.21
8.69
6.99
4.86
3.06
2.26
2.89
5.04
8.41
12.43
16.35
19.55
21.62
22.45
22.18
21.09
19.51
17.74
16.04
14.58
13.41
12.48
11.63
10.76
9.80
8.80
7.84
6.90
5.80
4.25
1.98
-1.07
-4.66
-8.34
-11.58
-14.03
-15.66
-16.75
-17.79
-19.26
-21.39
-23.98
-26.47
-27.94
-27.52
-24.67
-19.33
-12.06
-3.81
4.33
11.46
17.03
20.87
23.13
24.05
23.90
22.87
21.15
18.96
16.61
14.44
12.81
12.04
12.37
13.88
16.49
19.89
23.65
27.20
29.94
31.43
31.39
29.80
26.86
22.96
18.49
13.88
9.51
5.61
2.35
-0.32
-2.55
-4.61
-6.68
-8.88
-11.15
-13.34
-15.34
-17.17
-19.07
-21.36
-24.37
-28.21
-32.68
-37.26
-41.12
-43.32
-42.96
-39.57
-33.19
-24.51
-14.68
-5.02
3.39
9.91
14.44
17.26
18.77
19.35
19.25
18.65
17.79
16.96
16.50
16.60
17.32
18.47
19.76
20.91
21.77
22.39
22.91
23.40
23.80
23.87
23.31
21.92
19.70
16.90
13.87
10.96
8.35
6.07
4.02
2.06
0.07
-2.04
-4.28
-6.67
-9.17
-11.72
-14.19
-16.52
-18.74
-21.00
-23.57
-26.69
-30.37
-34.26
-37.59
-39.31
-38.39
-34.19
-26.74
-16.82
-5.81
4.67
13.26
19.14
22.21
22.93
21.99
20.10
17.70
14.97
11.97
8.80
5.69
3.03
1.24
0.57
1.02
2.30
3.96
5.50
6.61
7.13
7.05
6.44
5.33
3.75
1.75
-0.65
-3.42
-6.58
-10.24
-14.53
-19.55
-25.21
-31.24
-37.17
-42.39
-46.35
-48.66
-49.29
-48.55
-47.05
-45.57
-44.77
-44.90
-45.71
-46.34
-45.64
-42.46
-36.08
-26.52
-14.53
-1.51
10.89
21.08
27.94
31.00
30.48
27.18
22.27
16.97
12.31
8.95
7.11
6.67
7.35
8.87
11.00
13.57
16.33
19.01
21.35
23.16
24.41
25.15
25.44
25.14
23.97
21.51
17.39
11.56
4.32
-3.70
-11.72
-19.10
-25.51
-31.01
-35.99
-40.93
-46.17
-51.69
-57.01
-61.32
-63.59
-62.89
-58.60
-50.60
-39.35
-25.78
-11.11
3.39
16.65
27.89
36.59
42.51
45.54
45.73
43.29
38.68
32.66
26.11
19.90
14.73
10.89
8.28
6.52
5.07
3.45
1.41
-1.02
-3.59
-5.89
-7.62
-8.64
-8.98
-8.82
-8.31
-7.53
-6.45
-5.14
-3.84
-3.02
-3.27
-5.09
-8.69
-13.75
-19.40
-24.39
-27.41
-27.45
-24.19
-18.01
-9.95
-1.27
6.87
13.78
19.21
23.30
26.22
28.06
28.77
28.36
26.98
25.01
22.93
21.20
20.11
19.67
19.71
19.98
20.28
20.49
20.55
20.47
20.21
19.76
19.00
17.80
15.99
13.42
10.08
6.14
1.92
-2.16
-5.80
-8.91
-11.61
-14.22
-17.12
-20.50
-24.32
-28.16
-31.23
-32.61
-31.49
-27.43
-20.60
-11.79
-2.17
7.00
14.76
20.64
24.67
27.16
28.52
29.04
28.83
27.96
26.49
24.57
22.45
20.45
18.87
17.89
17.53
17.67
18.11
18.63
19.04
19.17
18.85
17.92
16.23
13.72
10.46
6.69
2.71
-1.24
-5.09
-8.98
-13.16
-17.81
-22.85
-27.94
-32.57
-36.34
-39.18
-41.41
-43.62
-46.41
-50.04
-54.23
-58.25
-61.03
-61.56
-59.09
-53.41
-44.83
-34.20
-22.68
-11.57
-1.92
5.67
11.27
15.50
19.27
23.28
27.73
32.22
35.94
38.14
38.48
37.26
35.25
33.26
31.94
31.48
31.78
32.55
33.61
34.81
36.01
36.98
37.33
36.61
34.49
30.90
26.05
20.38
14.39
8.53
3.07
-1.93
-6.56
-11.00
-15.52
-20.35
-25.65
-31.36
-37.15
-42.37
-46.09
-47.41
-45.64
-40.57
-32.58
-22.61
-11.95
-1.93
6.34
12.21
15.60
16.88
16.70
15.67
14.19
12.37
10.14
7.41
4.36
1.43
-0.71
-1.43
-0.39
2.24
5.70
8.93
10.79
10.51
8.00
3.95
-0.26
-2.99
-2.69
1.57
9.79
20.76
32.14
40.78
43.45
37.85
23.31
1.27
-25.06
-51.60
-74.43
-90.81
-99.53
-100.83
-95.78
-85.81
-72.27
-56.34
-39.11
-21.62
-4.89
10.17
22.87
32.84
40.08
44.84
47.50
48.44
47.95
46.25
43.61
40.34
36.86
33.68
31.21
29.69
29.05
29.02
29.10
28.86
28.03
26.54
24.54
22.24
19.84
17.55
15.52
13.88
12.75
12.15
11.94
11.79
11.23
9.80
7.23
3.57
-0.76
-5.11
-8.77
-11.20
-12.22
-12.07
-11.35
-10.88
-11.42
-13.51
-17.17
-21.93
-26.83
-30.60
-32.02
-30.20
-24.85
-16.43
-6.05
4.90
15.06
23.50
29.90
34.39
37.45
39.61
41.26
42.59
43.63
44.32
44.64
44.59
44.31
44.00
43.91
44.27
45.13
46.42
47.87
49.11
49.83
49.83
48.96
47.24
44.67
41.26
37.03
31.99
26.24
19.92
13.22
6.35
-0.48
-7.04
-13.05
-18.22
-22.33
-25.42
-27.92
-30.66
-34.70
-40.92
-49.73
-60.78
-72.92
-84.42
-93.34
-97.93
-97.11
-90.70
-79.50
-65.17
-49.77
-35.32
-23.27
-14.20
-7.82
-3.16
0.95
5.46
10.75
16.52
21.97
26.18
28.54
29.04
28.20
26.79
25.47
24.49
23.68
22.64
20.97
18.49
15.23
11.32
6.89
2.06
-3.04
-8.14
-12.79
-16.47
-18.68
-19.22
-18.18
-16.06
-13.54
-11.39
-10.20
-10.33
-11.87
-14.68
-18.54
-23.06
-27.80
-32.19
-35.65
-37.62
-37.73
-35.90
-32.28
-27.20
-21.04
-14.27
-7.46
-1.40
3.00
4.92
3.88
0.08
-5.60
-11.75
-16.82
-19.56
-19.35
-16.23
-10.82
-4.04
3.15
9.93
15.71
20.21
23.46
25.71
27.37
28.82
30.23
31.53
32.41
32.53
31.62
29.57
26.41
22.18
17.00
11.09
4.88
-1.02
-5.98
-9.61
-11.93
-13.40
-14.68
-16.33
-18.53
-20.96
-22.93
-23.58
-22.19
-18.35
-12.20
-4.34
4.26
12.53
19.53
24.70
27.89
29.32
29.37
28.40
26.69
24.43
21.79
18.95
16.16
13.68
11.70
10.34
9.60
9.38
9.58
10.07
10.79
11.66
12.56
13.32
13.78
13.78
13.27
12.28
10.92
9.31
7.54
5.62
3.49
1.03
-1.85
-5.20
-8.92
-12.79
-16.51
-19.78
-22.49
-24.73
-26.84
-29.24
-32.20
-35.71
-39.36
-42.45
-44.15
-43.76
-40.91
-35.66
-28.55
-20.42
-12.22
-4.84
1.15
5.53
8.41
10.08
10.86
10.97
10.54
9.67
8.45
7.07
5.78
4.81
4.38
4.65
5.63
7.23
9.21
11.20
12.87
13.98
14.43
14.23
13.47
12.23
10.58
8.62
6.54
4.61
3.11
2.16
1.66
1.31
0.72
-0.33
-1.88
-3.70
-5.53
-7.17
-8.64
-10.15
-11.99
-14.28
-16.75
-18.77
-19.38
-17.71
-13.29
-6.33
2.32
11.34
19.39
25.54
29.47
31.48
32.19
32.18
31.81
31.12
29.94
28.19
25.89
23.30
20.75
18.57
16.92
15.75
14.87
13.96
12.81
11.32
9.64
8.02
6.79
6.14
6.09
6.44
6.82
6.98
6.71
6.06
5.17
4.28
3.59
3.22
3.19
3.39
3.47
2.86
0.92
-2.91
-8.77
-16.15
-23.90
-30.49
-34.56
-35.31
-32.79
-27.78
-21.41
-14.74
-8.51
-3.10
1.39
4.92
7.40
8.80
9.16
8.66
7.58
6.24
4.87
3.67
2.78
2.33
2.41
3.08
4.27
5.81
7.42
8.77
9.51
9.41
8.39
6.55
4.20
1.77
-0.35
-1.94
-3.08
-4.03
-5.13
-6.56
-8.22
-9.78
-10.89
-11.35
-11.29
-11.12
-11.36
-12.43
-14.55
-17.61
-21.25
-24.81
-27.52
-28.53
-27.25
-23.54
-17.75
-10.70
-3.43
3.11
8.28
11.87
13.97
14.88
14.92
14.31
13.25
11.84
10.24
8.65
7.30
6.40
6.05
6.20
6.67
7.26
7.78
8.12
8.15
7.68
6.52
4.48
1.60
-1.90
-5.57
-8.96
-11.71
-13.70
-15.06
-16.04
-16.96
-18.08
-19.51
-21.20
-22.98
-24.63
-25.98
-27.01
-27.90
-28.99
-30.71
-33.27
-36.60
-40.19
-43.17
-44.52
-43.42
-39.53
-33.15
-25.20
-16.91
-9.52
-3.85
-0.26
1.37
1.49
0.66
-0.60
-1.89
-2.94
-3.57
-3.73
-3.37
-2.50
-1.10
0.82
3.28
6.25
9.65
13.34
17.02
20.34
22.88
24.27
24.29
22.92
20.37
17.01
13.31
9.66
6.36
3.55
1.27
-0.53
-1.89
-2.82
-3.30
-3.30
-2.91
-2.38
-2.12
-2.66
-4.44
-7.57
-11.66
-15.85
-18.94
-19.81
-17.81
-12.94
-5.88
2.30
10.49
17.87
23.95
28.58
31.71
33.34
33.51
32.38
30.28
27.72
25.30
23.51
22.63
22.68
23.46
24.61
25.77
26.60
26.86
26.44
25.28
23.44
21.05
18.21
15.04
11.62
8.00
4.21
0.35
-3.45
-6.98
-10.00
-12.32
-13.88
-14.82
-15.39
-15.96
-16.89
-18.48
-20.88
-24.02
-27.54
-30.78
-32.88
-32.94
-30.41
-25.27
-18.12
-10.06
-2.34
4.00
8.41
10.86
11.71
11.50
10.73
9.71
8.64
7.61
6.75
6.16
5.98
6.30
7.12
8.37
9.88
11.45
12.93
14.22
15.20
15.78
15.80
15.07
13.44
10.85
7.45
3.59
-0.30
-3.78
-6.64
-8.84
-10.58
-12.12
-13.72
-15.54
-17.63
-19.98
-22.52
-25.21
-28.09
-31.26
-34.87
-38.95
-43.28
-47.25
-49.99
-50.44
-47.79
-41.73
-32.68
-21.60
-9.89
1.05
10.09
16.52
20.13
21.16
20.09
17.55
14.18
10.49
6.89
3.71
1.19
-0.50
-1.30
-1.34
-0.83
-0.05
0.85
1.86
3.13
4.76
6.67
8.59
10.07
10.72
10.37
9.13
7.38
5.56
3.95
2.67
1.65
0.74
-0.17
-1.07
-1.93
-2.75
-3.62
-4.69
-6.15
-8.04
-10.36
-13.01
-15.93
-19.07
-22.30
-25.25
-27.29
-27.65
-25.66
-21.10
-14.34
-6.26
2.03
9.57
15.80
20.61
24.14
26.63
28.17
28.68
28.07
26.32
23.68
20.61
17.75
15.67
14.73
14.94
16.02
17.47
18.77
19.60
19.84
19.55
18.91
18.06
17.06
15.91
14.55
12.93
10.97
8.69
6.08
3.24
0.25
-2.77
-5.66
-8.36
-10.85
-13.22
-15.62
-18.30
-21.37
-24.84
-28.34
-31.25
-32.75
-32.05
-28.72
-22.79
-14.92
-6.16
2.32
9.60
15.20
19.10
21.60
23.04
23.70
23.71
23.14
22.12
20.84
19.55
18.52
17.85
17.58
17.62
17.90
18.41
19.15
20.07
21.00
21.66
21.67
20.77
18.89
16.23
13.19
10.25
7.76
5.80
4.25
2.80
1.12
-0.98
-3.52
-6.35
-9.23
-11.83
-13.98
-15.60
-16.90
-18.27
-20.22
-23.17
-27.14
-31.68
-35.81
-38.32
-38.18
-34.89
-28.71
-20.51
-11.53
-2.93
4.47
10.24
14.31
16.76
17.75
17.50
16.28
14.47
12.49
10.69
9.29
8.40
7.94
7.85
8.07
8.62
9.52
10.81
12.47
14.41
16.49
18.46
20.03
20.90
20.82
19.66
17.53
14.75
11.77
9.04
6.78
4.88
2.85
0.01
-4.22
-10.04
-17.22
-25.07
-32.71
-39.33
-44.36
-47.56
-48.99
-48.95
-47.87
-46.32
-44.92
-44.15
-44.19
-44.76
-45.09
-44.21
-41.21
-35.63
-27.64
-18.00
-7.77
1.92
10.23
16.75
21.43
24.49
26.26
27.00
26.94
26.27
25.15
23.77
22.31
20.94
19.76
18.86
18.31
18.13
18.33
18.80
19.39
19.88
20.11
19.97
19.42
18.47
17.06
15.17
12.84
10.17
7.37
4.67
2.21
0.01
-2.02
-4.05
-6.20
-8.47
-10.79
-12.95
-14.79
-16.24
-17.32
-18.23
-19.25
-20.67
-22.80
-25.77
-29.45
-33.36
-36.74
-38.64
-38.24
-35.08
-29.28
-21.52
-12.86
-4.44
2.83
8.44
12.34
14.78
16.11
16.59
16.30
15.23
13.40
11.01
8.51
6.48
5.43
5.56
6.77
8.63
10.59
12.18
13.10
13.29
12.88
12.11
11.17
10.22
9.29
8.38
7.43
6.44
5.35
4.12
2.71
1.10
-0.72
-2.70
-4.79
-7.03
-9.53
-12.46
-15.98
-20.10
-24.54
-28.71
-31.77
-32.78
-31.03
-26.27
-18.86
-9.72
-0.05
9.05
16.85
23.11
27.96
31.63
34.21
35.58
35.49
33.81
30.70
26.61
22.24
18.24
15.04
12.84
11.52
10.94
10.96
11.48
12.44
13.69
14.96
15.82
15.85
14.72
12.38
9.05
5.18
1.31
-2.16
-5.05
-7.48
-9.72
-12.16
-15.07
-18.52
-22.33
-26.04
-28.95
-30.28
-29.39
-25.96
-20.15
-12.65
-4.43
3.48
10.27
15.51
19.15
21.42
22.66
23.15
23.07
22.48
21.38
19.82
17.93
16.01
14.40
13.40
13.16
13.61
14.51
15.48
16.22
16.53
16.33
15.63
14.57
13.17
11.48
9.51
7.23
4.64
1.79
-1.23
-4.30
-7.26
-10.01
-12.44
-14.54
-16.43
-18.30
-20.49
-23.29
-26.80
-30.71
-34.28
-36.48
-36.32
-33.23
-27.25
-19.10
-9.91
-0.85
7.16
13.60
18.35
21.56
23.46
24.37
24.56
24.29
23.80
23.25
22.78
22.45
22.28
22.23
22.26
22.28
22.23
22.04
21.68
21.16
20.49
19.61
18.43
16.78
14.57
11.84
8.74
5.57
2.65
0.13
-1.98
-3.94
-6.06
-8.62
-11.70
-15.10
-18.48
-21.47
-23.87
-25.71
-27.22
-28.75
-30.64
-33.10
-36.17
-39.66
-43.07
-45.65
-46.44
-44.60
-39.64
-31.74
-21.76
-11.04
-0.98
7.35
13.42
17.26
19.26
19.93
19.70
18.89
17.75
16.58
15.68
15.34
15.77
17.03
18.99
21.39
23.88
26.09
27.68
28.37
27.95
26.35
23.57
19.76
15.09
9.81
4.18
-1.48
-6.77
-11.25
-14.47
-16.20
-16.53
-15.90
-14.94
-14.30
-14.44
-15.45
-17.11
-19.07
-21.03
-22.84
-24.55
-26.33
-28.43
-31.10
-34.48
-38.55
-43.05
-47.42
-50.79
-52.20
-50.78
-46.06
-38.16
-27.88
-16.44
-5.24
4.52
12.07
17.20
20.05
21.00
20.41
18.63
16.02
13.04
10.26
8.26
7.42
7.81
9.21
11.12
13.07
14.77
16.08
17.08
17.78
18.08
17.76
16.63
14.61
11.93
8.97
6.18
3.89
2.23
1.06
0.12
-0.83
-1.94
-3.22
-4.55
-5.81
-6.88
-7.77
-8.61
-9.61
-11.00
-12.99
-15.65
-18.82
-22.08
-24.76
-26.05
-25.18
-21.66
-15.46
-7.16
2.21
11.40
19.31
25.32
29.27
31.43
32.27
32.09
31.02
29.05
26.26
22.90
19.52
16.74
15.09
14.82
15.79
17.52
19.38
20.76
21.19
20.49
18.79
16.45
13.93
11.62
9.64
7.93
6.21
4.24
1.93
-0.55
-2.90
-4.81
-6.16
-7.09
-7.96
-9.30
-11.59
-15.12
-19.82
-25.20
-30.33
-34.03
-35.13
-32.83
-26.96
-18.12
-7.51
3.40
13.19
20.90
26.07
28.78
29.37
28.25
25.83
22.43
18.33
13.86
9.40
5.35
2.02
-0.39
-1.87
-2.54
-2.66
-2.40
-1.90
-1.14
-0.08
1.29
2.85
4.36
5.48
5.83
5.19
3.48
0.86
-2.37
-5.89
-9.41
-12.78
-16.02
-19.26
-22.64
-26.30
-30.29
-34.53
-38.78
-42.61
-45.44
-46.55
-45.28
-41.28
-34.72
-26.32
-17.16
-8.44
-0.98
4.83
9.09
12.19
14.45
16.06
16.99
17.20
16.68
15.70
14.57
13.69
13.36
13.74
14.81
16.41
18.31
20.21
21.84
22.95
23.36
22.97
21.74
19.75
17.13
14.05
10.77
7.51
4.43
1.63
-0.97
-3.52
-6.21
-9.16
-12.33
-15.53
-18.46
-20.86
-22.66
-24.05
-25.46
-27.39
-30.17
-33.70
-37.39
-40.21
-41.08
-39.18
-34.25
-26.68
-17.40
-7.55
1.79
9.77
15.94
20.13
22.41
22.96
22.07
20.10
17.45
14.59
11.91
9.79
8.42
7.88
8.12
8.98
10.24
11.64
12.98
14.11
15.01
15.71
16.26
16.57
16.43
15.58
13.83
11.19
7.91
4.40
1.00
-2.16
-5.18
-8.32
-11.79
-15.60
-19.53
-23.20
-26.18
-28.20
-29.19
-29.32
-29.00
-28.79
-29.26
-30.80
-33.50
-36.92
-40.23
-42.36
-42.30
-39.49
-33.96
-26.42
-17.93
-9.64
-2.36
3.48
7.87
11.02
13.15
14.37
14.71
14.16
12.76
10.67
8.19
5.67
3.52
2.15
1.78
2.50
4.16
6.37
8.66
10.59
11.87
12.41
12.32
11.80
11.10
10.40
9.81
9.32
8.78
7.92
6.42
3.97
0.50
-3.76
-8.28
-12.49
-15.94
-18.55
-20.62
-22.67
-25.09
-27.87
-30.40
-31.64
-30.52
-26.30
-18.95
-9.21
1.66
12.30
21.67
29.25
35.13
39.70
43.42
46.53
49.01
50.66
51.33
50.96
49.83
48.39
47.24
46.91
47.72
49.65
52.19
54.36
54.85
52.26
45.51
34.28
19.25
2.04
-15.25
-30.50
-42.22
-49.69
-52.86
-52.17
-48.31
-42.13
-34.75
-27.58
-22.16
-19.82
-21.24
-26.18
-33.46
-41.35
-47.97
-51.79
-51.88
-48.11
-41.10
-32.07
-22.54
-13.91
-7.16
-2.66
-0.30
0.14
-1.22
-4.46
-9.52
-15.99
-23.03
-29.55
-34.62
-37.69
-38.93
-39.06
-39.07
-39.76
-41.42
-43.77
-46.00
-47.13
-46.17
-42.81
-37.57
-31.65
-26.28
-22.22
-19.56
-17.96
-16.93
-15.73
-14.19
-12.63
-11.19
-9.13
-4.90
3.19
16.06
33.38
54.49
77.31
98.65
115.50
126.48
132.13
134.20
134.68
135.08
137.60
142.67
148.65
153.03
154.27
152.25
147.77
142.00
136.37
134.59
139.11
149.58
163.01
175.43
182.64
181.15
169.12
134.40
77.66
13.39
-39.74
-72.12
-84.96
-85.01
-78.52
-69.30
-58.86
-45.55
-28.82
-10.56
6.30
20.13
30.34
37.67
42.83
45.96
48.17
49.38
48.10
42.72
33.26
20.24
5.28
-10.08
-24.91
-37.94
-49.08
-59.81
-73.19
-84.31
-91.88
-95.66
-96.56
-96.64
-98.26
-104.26
-117.29
-138.35
-165.33
-194.07
-218.10
-231.26
-230.12
-215.20
-190.78
-163.06
-137.46
-116.73
-101.58
-90.46
-81.15
-71.74
-60.87
-47.50
-30.85
-10.66
12.42
36.11
57.80
75.19
86.96
93.04
94.23
91.74
86.72
80.15
72.70
65.05
57.80
51.28
45.46
39.97
34.39
28.43
22.14
15.71
9.41
3.45
-2.15
-7.54
-12.90
-18.28
-23.48
-27.98
-31.15
-32.42
-31.74
-29.69
-27.44
-26.34
-27.41
-30.87
-36.03
-41.51
-45.59
-46.68
-43.63
-36.03
-24.22
-9.27
7.10
22.98
36.61
46.90
53.62
57.36
59.16
60.06
60.77
61.53
62.32
63.13
64.08
65.45
67.43
69.92
72.48
74.56
75.76
76.05
75.72
74.98
73.69
71.17
66.47
58.88
48.42
35.87
22.57
9.78
-1.76
-11.95
-21.24
-30.18
-39.19
-48.38
-57.70
-66.99
-76.10
-84.92
-93.28
-100.96
-107.74
-113.45
-117.82
-120.39
-120.24
-116.05
-106.45
-90.64
-68.97
-43.12
-15.83
9.89
31.71
48.48
60.39
68.41
73.70
76.97
78.41
77.76
74.88
70.08
64.27
58.77
54.83
53.22
53.90
56.09
58.58
60.12
59.77
57.07
51.98
44.90
36.70
28.66
22.30
18.96
19.38
23.27
29.35
35.76
40.63
42.63
41.24
36.58
29.10
19.48
8.54
-2.72
-13.00
-21.14
-26.44
-29.14
-30.61
-32.91
-38.23
-48.20
-63.46
-83.47
-106.78
-131.11
-153.68
-171.36
-181.11
-180.65
-169.10
-147.49
-118.62
-86.59
-55.59
-29.08
-9.06
3.99
10.76
12.74
11.72
9.52
7.71
7.57
9.87
14.85
22.19
31.15
40.74
50.03
58.34
65.32
71.00
75.58
79.26
82.05
83.71
83.82
82.01
78.14
72.38
65.23
57.26
48.88
40.21
31.09
21.31
10.88
0.16
-10.20
-19.61
-27.85
-35.22
-42.37
-49.90
-57.89
-65.81
-72.71
-77.72
-80.51
-81.56
-81.97
-83.04
-85.81
-90.65
-97.04
-103.60
-108.13
-108.15
-101.49
-87.01
-65.14
-38.05
-9.15
17.74
39.41
54.00
61.26
62.23
58.79
52.94
46.42
40.44
35.57
31.91
29.27
27.30
25.72
24.33
23.02
21.75
20.53
19.39
18.39
17.49
16.56
15.40
13.83
11.83
9.52
7.16
4.89
2.74
0.55
-1.91
-4.77
-7.92
-11.10
-13.92
-16.12
-17.66
-18.69
-19.59
-20.75
-22.52
-25.04
-28.17
-31.50
-34.52
-36.89
-38.59
-39.98
-41.78
-44.66
-48.96
-54.40
-59.92
-63.85
-64.33
-59.70
-49.17
-33.11
-13.10
8.38
28.59
45.22
56.94
63.48
65.52
64.16
60.55
55.57
49.84
43.79
37.84
32.44
27.95
24.56
22.22
20.68
19.64
18.86
18.22
17.76
17.50
17.46
17.52
17.46
17.04
16.06
14.38
12.04
9.16
5.91
2.47
-1.05
-4.56
-7.99
-11.29
-14.46
-17.56
-20.72
-24.03
-27.49
-30.91
-33.99
-36.45
-38.15
-39.23
-40.02
-41.04
-42.82
-45.83
-50.12
-55.20
-59.82
-62.10
-60.00
-52.01
-37.84
-18.76
2.68
23.37
40.60
52.72
59.45
61.53
60.19
56.59
51.53
45.45
38.69
31.63
24.78
18.73
13.89
10.42
8.20
6.92
6.24
5.90
5.77
5.82
6.00
6.23
6.37
6.23
5.65
4.48
2.71
0.40
-2.25
-4.94
-7.45
-9.63
-11.59
-13.64
-16.16
-19.43
-23.44
-27.82
-31.98
-35.32
-37.50
-38.61
-39.25
-40.35
-42.90
-47.44
-53.77
-60.65
-66.12
-67.89
-64.19
-54.30
-38.89
-19.79
0.60
19.88
36.26
48.68
56.85
60.89
61.25
58.39
52.83
45.07
35.75
25.73
16.03
7.79
1.87
-1.30
-1.97
-0.89
0.97
2.85
4.48
6.06
7.97
10.37
13.01
15.20
16.13
15.21
12.30
7.86
2.66
-2.47
-6.97
-10.67
-13.81
-16.77
-19.95
-23.62
-27.88
-32.60
-37.32
-41.25
-43.25
-42.06
-36.70
-26.90
-13.31
2.57
18.79
33.52
45.47
54.07
59.37
61.75
61.66
59.46
55.40
49.75
42.95
35.57
28.24
21.55
15.83
11.19
7.59
4.95
3.25
2.51
2.66
3.46
4.37
4.75
4.00
1.86
-1.52
-5.61
-9.71
-13.32
-16.25
-18.80
-21.60
-25.37
-30.65
-37.44
-45.07
-52.16
-56.89
-57.47
-52.66
-42.25
-27.19
-9.40
8.68
24.81
37.39
45.67
49.76
50.31
48.13
44.02
38.58
32.27
25.51
18.67
12.18
6.44
1.80
-1.51
-3.36
-3.74
-2.85
-1.10
0.93
2.56
3.12
2.17
-0.42
-4.42
-9.39
-14.77
-20.10
-25.16
-30.10
-35.30
-41.24
-48.24
-56.01
-63.56
-69.15
-70.73
-66.48
-55.56
-38.49
-17.15
5.65
26.94
44.40
56.80
63.98
66.50
65.13
60.57
53.40
44.25
34.01
23.81
14.81
7.92
3.53
1.56
1.54
2.93
5.24
8.13
11.30
14.38
16.83
18.01
17.36
14.65
10.11
4.38
-1.71
-7.47
-12.67
-17.53
-22.68
-28.84
-36.46
-45.43
-54.93
-63.34
-68.61
-68.67
-62.18
-49.00
-30.44
-9.01
12.31
30.91
45.16
54.62
59.76
61.40
60.30
56.92
51.55
44.58
36.71
28.86
21.99
16.82
13.58
12.07
11.79
12.19
12.91
13.77
14.73
15.73
16.54
16.69
15.63
12.82
8.11
1.80
-5.31
-12.21
-18.02
-22.41
-25.72
-28.88
-32.99
-38.91
-46.93
-56.58
-66.60
-75.15
-80.17
-79.74
-72.65
-58.82
-39.47
-16.97
5.76
26.01
41.93
52.82
58.98
61.32
60.80
58.17
53.94
48.53
42.43
36.27
30.72
26.32
23.34
21.68
20.97
20.68
20.33
19.62
18.49
17.04
15.40
13.62
11.57
9.03
5.77
1.65
-3.30
-8.91
-14.87
-20.84
-26.49
-31.59
-36.04
-40.04
-43.98
-48.42
-53.89
-60.59
-68.14
-75.45
-80.72
-81.87
-77.01
-65.22
-46.93
-23.99
0.76
24.27
44.02
58.57
67.59
71.62
71.58
68.49
63.23
56.59
49.27
41.94
35.21
29.59
25.49
23.12
22.47
23.31
25.14
27.33
29.28
30.56
30.96
30.52
29.32
27.49
25.07
22.05
18.41
14.15
9.28
3.86
-1.96
-8.01
-14.00
-19.61
-24.59
-28.80
-32.44
-35.95
-40.05
-45.50
-52.83
-61.88
-71.52
-79.63
-83.56
-80.93
-70.53
-52.92
-30.37
-6.16
16.40
34.91
48.24
56.52
60.56
61.38
59.82
56.47
51.76
46.09
39.94
33.84
28.37
23.95
20.88
19.21
18.84
19.57
21.23
23.56
26.25
28.83
30.71
31.30
30.19
27.33
23.02
17.73
12.00
6.13
0.22
-5.82
-12.01
-18.32
-24.49
-30.19
-35.13
-39.19
-42.57
-45.64
-49.03
-53.36
-59.12
-66.27
-74.05
-80.82
-84.28
-82.11
-72.71
-56.02
-33.69
-8.76
15.32
35.64
50.58
59.95
64.55
65.56
64.01
60.61
55.75
49.83
43.38
37.01
31.40
27.04
24.13
22.57
22.09
22.39
23.26
24.62
26.39
28.37
30.09
30.94
30.28
27.81
23.65
18.37
12.72
7.22
1.96
-3.44
-9.54
-16.69
-24.79
-33.26
-41.20
-47.83
-52.76
-56.09
-58.45
-60.73
-63.96
-68.94
-76.04
-84.81
-93.84
-100.82
-103.08
-98.31
-85.56
-65.71
-41.26
-15.75
7.44
25.93
38.87
46.63
50.36
51.24
50.11
47.44
43.54
38.79
33.72
29.01
25.32
23.05
22.37
23.14
25.10
27.92
31.32
35.10
39.07
42.92
46.27
48.61
49.47
48.62
46.16
42.56
38.41
34.17
29.95
25.50
20.39
14.32
7.42
0.25
-6.41
-11.91
-16.06
-19.30
-22.59
-27.03
-33.54
-42.33
-52.71
-62.93
-70.59
-73.18
-68.90
-57.34
-39.66
-18.44
3.23
22.54
37.79
48.46
55.02
58.33
59.15
57.95
54.95
50.42
44.82
38.88
33.40
29.11
26.41
25.40
25.87
27.35
29.27
31.02
32.05
31.91
30.33
27.28
22.98
17.85
12.31
6.71
1.20
-4.29
-9.91
-15.75
-21.78
-27.84
-33.69
-39.16
-44.20
-48.94
-53.72
-59.09
-65.59
-73.49
-82.43
-91.07
-97.23
-98.25
-92.00
-77.58
-55.87
-29.37
-1.43
24.52
45.94
61.43
70.76
74.50
73.64
69.34
62.67
54.66
46.16
37.89
30.43
24.30
19.88
17.36
16.70
17.49
19.03
20.50
21.26
21.06
20.08
18.78
17.54
16.43
15.12
13.05
9.74
5.02
-0.87
-7.45
-14.18
-20.69
-26.87
-32.77
-38.53
-44.36
-50.53
-57.40
-65.29
-74.15
-83.18
-90.69
-94.31
-91.68
-81.31
-63.33
-39.57
-13.08
12.82
35.46
53.29
65.89
73.58
76.95
76.67
73.36
67.76
60.70
53.02
45.51
38.72
33.00
28.48
25.23
23.25
22.56
23.15
24.85
27.29
29.83
31.67
32.02
30.39
26.68
21.31
14.94
8.25
1.67
-4.76
-11.30
-18.28
-25.89
-33.98
-42.02
-49.30
-55.22
-59.60
-62.88
-66.00
-70.19
-76.55
-85.55
-96.70
-108.31
-117.68
-121.74
-117.91
-105.01
-83.84
-57.02
-28.30
-1.52
20.42
36.07
45.43
49.40
49.23
46.14
41.04
34.67
27.62
20.47
13.81
8.28
4.47
2.85
3.67
6.84
12.00
18.52
25.65
32.60
38.66
43.29
46.14
47.14
46.40
44.22
40.84
36.38
30.73
23.69
15.09
5.08
-5.84
-16.96
-27.56
-37.10
-45.44
-52.79
-59.61
-66.29
-72.87
-78.72
-82.50
-82.42
-76.76
-64.60
-46.35
-23.88
-0.02
22.23
40.58
53.92
62.29
66.47
67.45
65.96
62.44
57.20
50.68
43.58
36.82
31.30
27.67
26.09
26.22
27.45
29.12
30.83
32.47
34.12
35.80
37.27
37.95
37.11
34.22
29.13
22.28
14.55
6.91
0.13
-5.54
-10.38
-15.07
-20.42
-27.13
-35.48
-45.16
-55.17
-63.81
-68.96
-68.60
-61.41
-47.35
-27.79
-5.19
17.54
37.90
54.27
66.05
73.37
76.70
76.58
73.41
67.63
59.85
50.96
42.07
34.21
28.12
24.07
21.84
20.92
20.76
20.97
21.34
21.79
22.11
21.84
20.39
17.21
12.08
5.32
-2.36
-10.08
-17.20
-23.58
-29.63
-36.20
-44.23
-54.39
-66.75
-80.58
-94.30
-105.61
-111.86
-110.66
-100.67
-82.09
-56.84
-28.19
0.13
24.91
44.20
57.48
65.45
69.42
70.64
69.99
67.89
64.57
60.22
55.25
50.25
45.81
42.40
40.10
38.65
37.55
36.23
34.28
31.56
28.23
24.66
21.22
18.05
14.95
11.37
6.67
0.34
-7.62
-16.69
-26.02
-34.69
-42.15
-48.32
-53.58
-58.59
-64.08
-70.68
-78.75
-88.12
-97.72
-105.64
-109.25
-106.05
-94.54
-74.93
-49.31
-21.05
6.15
29.38
47.01
58.78
65.41
67.96
67.47
64.73
60.41
55.09
49.43
44.02
39.37
35.72
33.09
31.30
30.15
29.53
29.46
29.96
30.89
31.85
32.21
31.31
28.74
24.50
19.11
13.34
7.94
3.25
-0.90
-5.17
-10.41
-17.23
-25.79
-35.61
-45.77
-55.25
-63.31
-69.73
-74.96
-79.94
-85.77
-93.34
-102.87
-113.65
-123.86
-130.86
-131.77
-124.29
-107.62
-82.86
-52.88
-21.53
7.38
31.09
48.30
59.09
64.45
65.64
63.77
59.65
53.92
47.13
39.91
32.99
27.05
22.65
20.11
19.53
20.73
23.51
27.53
32.47
37.85
43.15
47.73
50.97
52.43
51.89
49.44
45.38
40.16
34.11
27.47
20.34
12.78
4.99
-2.64
-9.54
-15.18
-19.34
-22.23
-24.53
-27.15
-30.96
-36.32
-42.78
-48.96
-52.84
-52.25
-45.60
-32.59
-14.35
6.74
27.85
46.41
60.82
70.51
75.79
77.33
75.90
72.09
66.44
59.50
51.99
44.74
38.65
34.50
32.69
33.17
35.37
38.42
41.37
43.45
44.25
43.69
41.86
38.91
34.93
29.92
23.88
16.82
8.85
0.17
-8.94
-18.10
-26.87
-34.85
-41.81
-47.75
-52.96
-57.92
-63.26
-69.48
-76.72
-84.47
-91.40
-95.48
-94.46
-86.65
-71.63
-50.58
-26.14
-1.55
20.21
37.22
48.84
55.50
58.20
57.97
55.68
51.92
47.21
41.98
36.70
31.80
27.74
24.88
23.47
23.62
25.16
27.65
30.48
32.96
34.46
34.54
32.98
29.76
25.04
19.14
12.46
5.37
-1.81
-8.95
-16.00
-22.99
-29.87
-36.50
-42.74
-48.50
-53.93
-59.32
-65.15
-71.87
-79.68
-88.26
-96.47
-102.42
-103.83
-98.66
-85.99
-66.46
-42.32
-16.79
6.92
26.46
40.74
49.83
54.51
55.75
54.40
51.08
46.30
40.58
34.47
28.54
23.36
19.38
16.89
15.90
16.10
16.92
17.71
18.01
17.64
16.74
15.48
13.99
12.13
9.60
6.07
1.37
-4.42
-11.00
-17.95
-24.92
-31.58
-37.72
-43.20
-47.98
-52.20
-56.23
-60.63
-65.96
-72.45
-79.67
-86.36
-90.57
-90.14
-83.48
-70.13
-51.08
-28.49
-5.08
16.65
34.99
49.18
59.31
65.93
69.71
71.31
71.27
70.11
68.34
66.48
65.01
64.25
64.28
64.83
65.38
65.35
64.29
62.14
59.21
55.94
52.57
48.89
44.25
37.84
29.01
17.63
4.20
-10.42
-25.19
-39.22
-51.89
-62.87
-72.15
-80.03
-87.16
-94.35
-102.30
-111.09
-119.78
-126.43
-128.53
-123.88
-111.52
-92.25
-68.58
-43.98
-21.85
-4.57
6.99
13.36
15.86
15.99
14.83
12.94
10.57
7.94
5.55
4.12
4.52
7.42
13.19
21.76
32.75
45.51
58.98
71.67
81.57
86.50
84.76
75.80
60.57
41.27
20.65
1.07
-16.00
-30.00
-40.85
-48.41
-52.33
-52.27
-48.40
-41.59
-33.33
-25.04
-17.48
-10.38
-2.81
6.14
16.64
27.67
37.24
43.18
44.07
39.87
32.12
23.35
16.16
12.46
13.09
17.92
26.29
37.31
49.91
62.82
74.62
84.16
90.99
95.50
98.65
101.14
102.67
101.88
96.86
86.31
70.27
50.32
28.72
7.59
-11.84
-29.29
-44.97
-59.12
-71.70
-82.52
-91.50
-98.84
-104.96
-110.10
-114.02
-115.72
-113.70
-106.45
-93.26
-74.60
-52.33
-29.21
-8.11
8.83
20.69
27.63
30.45
30.09
27.36
22.98
17.84
13.12
10.10
9.87
12.89
18.83
26.69
35.23
43.37
50.49
56.43
61.20
64.57
65.88
64.12
58.40
48.46
35.03
19.71
4.50
-8.92
-19.75
-28.13
-34.93
-41.25
-48.00
-55.67
-64.15
-72.66
-79.72
-83.18
-80.67
-70.38
-51.96
-26.97
1.24
28.50
51.12
66.94
75.69
78.56
77.30
73.44
67.94
61.33
54.12
47.09
41.09
36.85
34.58
33.95
34.24
34.75
35.03
34.91
34.43
33.60
32.32
30.42
27.77
24.43
20.61
16.51
12.14
7.23
1.35
-5.95
-14.78
-24.88
-35.54
-45.85
-55.10
-62.99
-69.72
-75.99
-82.57
-90.04
-98.42
-106.93
-114.03
-117.68
-115.87
-107.27
-91.78
-70.68
-46.40
-21.88
0.17
17.93
30.60
38.35
41.91
42.21
40.19
36.63
32.17
27.35
22.59
18.21
14.47
11.57
9.73
9.12
9.82
11.71
14.42
17.30
19.63
20.73
20.22
17.99
14.34
9.72
4.59
-0.77
-6.36
-12.33
-18.79
-25.65
-32.59
-39.10
-44.66
-48.96
-51.98
-54.00
-55.57
-57.37
-60.07
-64.02
-68.97
-73.87
-76.93
-76.00
-69.35
-56.43
-38.19
-16.92
4.50
23.53
38.66
49.55
56.69
60.80
62.34
61.44
58.21
53.03
46.81
40.80
36.15
33.47
32.63
32.83
33.05
32.52
30.90
28.32
25.21
21.87
18.31
14.26
9.31
3.24
-3.79
-11.18
-18.10
-23.70
-27.59
-29.89
-31.31
-32.85
-35.55
-40.08
-46.59
-54.46
-62.44
-68.71
-71.30
-68.56
-59.72
-45.16
-26.46
-5.96
13.83
30.96
44.29
53.58
59.12
61.47
61.14
58.51
53.94
47.85
40.81
33.49
26.66
20.99
16.98
14.85
14.53
15.67
17.70
19.95
21.71
22.41
21.61
19.17
15.22
10.11
4.36
-1.58
-7.43
-13.18
-19.11
-25.67
-33.25
-41.80
-50.62
-58.19
-62.45
-61.39
-53.79
-39.80
-21.07
-0.37
19.23
35.13
45.89
51.23
51.72
48.41
42.37
34.59
25.96
17.41
9.78
3.86
0.10
-1.51
-1.32
-0.02
1.78
3.62
5.36
6.99
8.47
9.56
9.82
8.77
6.18
2.18
-2.71
-7.83
-12.72
-17.29
-21.98
-27.55
-34.82
-44.37
-56.14
-69.24
-81.85
-91.43
-95.29
-91.35
-78.91
-59.00
-34.18
-7.83
16.78
37.22
52.24
61.62
65.76
65.38
61.27
54.31
45.55
36.19
27.41
20.20
15.18
12.44
11.68
12.32
13.70
15.38
17.11
18.83
20.52
21.98
22.72
22.07
19.39
14.37
7.25
-1.21
-9.92
-17.80
-24.14
-28.79
-32.15
-35.03
-38.38
-42.98
-49.22
-56.80
-64.71
-71.20
-74.23
-71.91
-63.18
-48.26
-28.62
-6.70
14.80
33.62
48.44
58.91
65.44
68.74
69.47
68.14
65.10
60.79
55.74
50.62
46.06
42.57
40.37
39.43
39.54
40.32
41.34
42.21
42.60
42.30
41.18
39.17
36.14
31.95
26.42
19.52
11.46
2.69
-6.13
-14.40
-21.58
-27.50
-32.29
-36.39
-40.50
-45.44
-51.99
-60.50
-70.70
-81.37
-90.41
-95.33
-93.95
-85.21
-69.62
-49.22
-26.95
-5.75
12.26
26.06
35.69
41.80
45.10
46.16
45.32
42.85
39.00
34.15
28.78
23.44
18.64
14.83
12.32
11.26
11.65
13.37
16.26
20.10
24.64
29.59
34.62
39.33
43.30
46.14
47.49
47.08
44.70
40.30
34.01
26.24
17.62
8.93
0.85
-6.16
-12.03
-17.07
-21.90
-27.16
-33.39
-40.69
-48.58
-55.83
-60.67
-61.12
-55.65
-43.87
-26.79
-6.70
13.50
31.13
44.50
53.10
57.40
58.36
56.87
53.56
48.78
42.79
35.90
28.58
21.37
14.79
9.19
4.64
0.93
-2.35
-5.66
-9.37
-13.57
-18.12
-22.71
-27.06
-31.13
-35.14
-39.42
-44.26
-49.68
-55.33
-60.65
-65.07
-68.16
-69.82
-70.26
-70.00
-69.79
-70.53
-73.05
-77.88
-84.99
-93.46
-101.50
-106.71
-106.70
-99.74
-85.38
-64.65
-39.82
-13.73
10.98
32.47
49.95
63.50
73.61
80.85
85.67
88.48
89.89
90.77
92.16
94.90
99.27
104.74
110.18
114.22
115.81
114.54
110.67
104.84
97.67
89.51
80.36
70.04
58.48
45.91
32.76
19.56
6.75
-5.49
-17.20
-28.57
-39.89
-51.35
-62.83
-73.70
-82.66
-87.96
-87.94
-81.66
-69.54
-53.35
-35.79
-19.59
-6.70
2.10
7.01
8.70
7.84
4.77
-0.36
-7.28
-15.47
-24.10
-32.29
-39.29
-44.66
-48.20
-49.95
-50.05
-48.63
-45.83
-41.73
-36.54
-30.66
-24.75
-19.64
-16.20
-14.93
-15.78
-18.06
-20.62
-22.31
-22.35
-20.76
-18.28
-16.05
-15.19
-16.30
-19.33
-23.68
-28.46
-32.75
-35.74
-36.69
-34.81
-29.37
-19.88
-6.54
9.65
26.90
43.11
56.41
65.56
70.08
70.02
65.74
57.83
47.21
35.22
23.53
13.92
7.65
5.13
5.77
8.31
11.37
13.88
15.23
15.15
13.46
10.00
4.72
-2.13
-9.89
-17.65
-24.67
-30.70
-36.18
-42.07
-49.35
-58.66
-69.86
-82.01
-93.45
-102.07
-105.63
-102.32
-91.37
-73.42
-50.55
-25.65
-1.70
19.04
35.44
47.35
55.08
59.01
59.41
56.66
51.71
46.06
41.54
39.63
40.84
44.55
49.38
54.00
57.77
61.03
64.62
69.13
74.17
78.22
79.20
75.33
65.96
51.88
34.94
17.31
0.79
-13.61
-25.81
-36.42
-46.42
-56.86
-68.63
-81.99
-96.44
-110.49
-121.87
-128.02
-126.75
-116.95
-98.96
-74.62
-46.81
-19.00
5.52
24.16
35.42
39.03
35.90
27.85
17.18
6.18
-3.28
-10.05
-13.70
-14.33
-12.37
-8.40
-3.06
3.05
9.38
15.51
21.16
26.15
30.33
33.41
35.03
34.78
32.51
28.41
23.06
17.18
11.39
5.94
0.59
-5.24
-12.16
-20.46
-29.73
-38.81
-45.94
-49.23
-47.32
-39.96
-28.20
-14.13
-0.27
11.20
19.05
23.08
23.89
22.39
19.44
15.72
11.77
8.12
5.31
3.62
2.92
2.55
1.67
-0.35
-3.44
-6.80
-9.15
-9.25
-6.43
-0.75
7.00
15.76
24.43
32.13
38.33
42.74
45.29
45.94
44.67
41.34
35.80
27.96
17.90
6.00
-7.05
-20.22
-32.18
-41.40
-46.40
-46.13
-40.33
-29.77
-16.06
-1.28
12.75
24.83
34.61
42.24
48.08
52.35
55.05
56.12
55.61
53.80
51.19
48.36
45.83
43.97
42.94
42.64
42.87
43.31
43.72
43.89
43.75
43.21
42.08
40.08
36.89
32.37
26.60
20.09
13.51
7.53
2.52
-1.58
-5.19
-9.02
-13.72
-19.77
-27.21
-35.53
-43.70
-50.21
-53.43
-51.96
-45.14
-33.33
-17.94
-1.09
15.03
28.61
38.67
45.01
48.02
48.40
46.84
44.05
40.58
36.97
33.54
30.49
27.85
25.68
24.05
23.18
23.31
24.56
26.78
29.49
32.03
33.74
34.20
33.32
31.34
28.66
25.63
22.51
19.34
16.08
12.78
9.57
6.68
4.39
2.88
2.08
1.76
1.50
0.82
-0.71
-3.45
-7.44
-12.41
-17.53
-21.69
-23.59
-22.20
-17.09
-8.59
2.26
14.04
25.23
34.56
41.14
44.54
44.71
41.90
36.61
29.50
21.32
12.79
4.55
-2.89
-9.13
-13.91
-17.09
-18.73
-19.04
-18.38
-17.19
-15.93
-15.05
-14.91
-15.78
-17.76
-20.81
-24.72
-29.13
-33.63
-37.82
-41.45
-44.36
-46.54
-47.97
-48.58
-48.32
-47.19
-45.40
-43.37
-41.76
-41.23
-42.24
-44.80
-48.26
-51.36
-52.47
-50.05
-43.13
-31.71
-16.84
-0.36
15.64
29.46
40.15
47.68
52.59
55.66
57.48
58.38
58.48
57.84
56.67
55.24
53.86
52.67
51.67
50.72
49.76
48.83
48.13
47.88
48.07
48.47
48.51
47.55
45.05
40.80
34.91
27.77
19.87
11.60
3.23
-5.13
-13.47
-21.73
-29.78
-37.37
-44.17
-49.74
-53.73
-55.93
-56.34
-55.30
-53.36
-51.23
-49.45
-48.30
-47.49
-46.15
-43.03
-36.89
-27.09
-14.01
0.79
14.90
25.72
31.34
31.04
25.45
16.17
5.10
-6.03
-16.00
-24.07
-29.81
-33.02
-33.61
-31.69
-27.65
-22.13
-15.92
-9.81
-4.39
0.05
3.50
6.15
8.22
9.85
11.00
11.58
11.39
10.33
8.32
5.40
1.65
-2.81
-7.77
-12.91
-17.83
-22.16
-25.59
-27.99
-29.42
-30.07
-30.21
-30.15
-30.22
-30.76
-32.10
-34.58
-38.36
-43.45
-49.64
-56.37
-62.77
-67.70
-69.93
-68.40
-62.54
-52.58
-39.51
-24.90
-10.43
2.57
13.38
21.94
28.47
33.25
36.32
37.59
37.03
34.87
31.72
28.35
25.44
23.33
21.97
21.12
20.53
20.12
19.97
20.25
20.92
21.80
22.50
22.64
21.98
20.49
18.33
15.74
12.97
10.22
7.72
5.59
3.89
2.58
1.48
0.31
-1.17
-3.17
-5.75
-8.88
-12.43
-16.22
-19.98
-23.41
-26.24
-28.39
-30.01
-31.46
-33.27
-35.81
-39.18
-43.00
-46.43
-48.26
-47.25
-42.45
-33.54
-21.03
-6.22
9.10
23.06
34.19
41.64
45.29
45.62
43.50
39.93
35.93
32.36
29.82
28.63
28.74
29.86
31.58
33.49
35.26
36.61
37.32
37.21
36.22
34.39
31.83
28.74
25.27
21.45
17.35
13.03
8.63
4.31
0.13
-4.01
-8.25
-12.68
-17.12
-21.17
-24.35
-26.39
-27.42
-28.01
-28.89
-30.68
-33.61
-37.37
-41.24
-44.24
-45.40
-43.95
-39.58
-32.54
-23.64
-14.14
-5.37
1.68
6.52
9.31
10.54
10.77
10.29
9.10
7.05
4.08
0.40
-3.58
-7.29
-10.32
-12.49
-13.86
-14.69
-15.33
-16.15
-17.45
-19.41
-22.06
-25.15
-28.30
-31.06
-33.09
-34.27
-34.66
-34.40
-33.61
-32.36
-30.75
-29.08
-27.82
-27.57
-28.81
-31.58
-35.42
-39.38
-42.19
-42.71
-40.16
-34.41
-25.94
-15.77
-5.11
4.94
13.53
20.23
24.90
27.57
28.38
27.54
25.39
22.39
19.11
16.05
13.55
11.72
10.45
9.61
9.07
8.79
8.69
8.63
8.35
7.54
5.99
3.69
0.88
-2.11
-4.90
-7.32
-9.38
-11.30
-13.36
-15.90
-19.09
-22.87
-26.77
-29.89
-31.13
-29.40
-24.08
-15.28
-3.93
8.47
20.23
29.97
36.85
40.64
41.63
40.35
37.44
33.52
29.17
24.81
20.78
17.26
14.29
11.85
9.89
8.35
7.21
6.43
5.89
5.42
4.77
3.71
2.18
0.26
-1.79
-3.55
-4.64
-4.94
-4.61
-4.20
-4.43
-6.00
-9.26
-14.01
-19.40
-24.13
-26.72
-25.95
-21.32
-13.23
-2.83
8.26
18.46
26.62
32.16
35.02
35.47
33.87
30.62
26.18
21.05
15.86
11.27
7.87
6.01
5.77
6.90
8.88
11.09
12.88
13.72
13.31
11.52
8.47
4.45
-0.16
-4.87
-9.24
-12.94
-15.88
-18.14
-20.05
-22.02
-24.28
-26.78
-28.93
-29.69
-27.83
-22.34
-12.89
-0.05
14.82
29.95
43.69
54.90
63.21
68.79
72.12
73.70
73.87
72.83
70.75
67.83
64.46
61.13
58.35
56.45
55.34
54.41
52.61
48.75
41.92
31.79
18.79
3.96
-11.37
-25.85
-38.48
-48.69
-56.27
-61.43
-64.68
-66.82
-68.78
-71.37
-74.96
-79.26
-83.20
-85.23
-83.86
-78.20
-68.52
-56.20
-43.32
-31.97
-23.62
-18.71
-16.80
-16.99
-18.32
-20.06
-21.81
-23.39
-24.57
-25.13
-24.78
-23.30
-20.68
-17.10
-12.89
-8.56
-4.65
-1.66
-0.01
0.08
-1.43
-4.29
-8.08
-12.23
-16.13
-19.33
-21.64
-23.18
-24.43
-26.04
-28.60
-32.37
-37.06
-41.76
-45.05
-45.34
-41.35
-32.54
-19.42
-3.43
13.42
29.06
41.90
51.04
56.29
57.95
56.53
52.62
46.80
39.71
32.09
24.74
18.40
13.64
10.76
9.73
10.21
11.64
13.38
14.84
15.52
15.09
13.37
10.30
6.00
0.77
-4.94
-10.56
-15.57
-19.59
-22.51
-24.56
-26.26
-28.26
-31.24
-35.58
-41.13
-47.03
-51.71
-53.34
-50.42
-42.49
-30.35
-15.93
-1.59
10.72
20.02
26.44
30.76
33.80
36.01
37.34
37.51
36.39
34.24
31.71
29.60
28.51
28.64
29.70
31.06
32.05
32.20
31.31
29.52
27.09
24.24
21.09
17.51
13.32
8.38
2.73
-3.30
-9.18
-14.32
-18.32
-21.14
-23.09
-24.84
-27.03
-30.22
-34.57
-39.85
-45.42
-50.26
-53.08
-52.52
-47.51
-37.68
-23.69
-7.17
9.70
24.77
36.57
44.49
48.76
49.98
48.86
45.93
41.70
36.71
31.62
27.10
23.63
21.39
20.25
19.92
20.01
20.21
20.26
19.93
19.03
17.44
15.12
12.14
8.69
4.93
1.03
-2.89
-6.83
-10.75
-14.64
-18.50
-22.24
-25.72
-28.73
-31.03
-32.54
-33.42
-34.05
-35.04
-36.93
-40.05
-44.25
-48.82
-52.59
-54.10
-52.05
-45.62
-34.89
-20.85
-5.22
9.98
22.99
32.66
38.75
41.63
42.08
40.92
38.81
36.15
33.21
30.27
27.64
25.71
24.80
25.05
26.29
28.13
30.05
31.62
32.57
32.89
32.69
32.06
31.01
29.50
27.47
24.97
22.18
19.33
16.60
14.05
11.50
8.75
5.64
2.12
-1.66
-5.47
-9.11
-12.49
-15.65
-18.69
-21.59
-24.09
-25.67
-25.63
-23.26
-18.13
-10.33
-0.49
10.29
20.75
29.74
36.52
40.77
42.54
42.10
39.79
36.01
31.22
25.98
20.88
16.45
13.06
10.85
9.76
9.57
9.97
10.63
11.24
11.50
11.21
10.28
8.73
6.68
4.26
1.63
-1.06
-3.64
-6.03
-8.24
-10.37
-12.63
-15.25
-18.45
-22.33
-26.85
-31.81
-36.94
-41.88
-46.25
-49.66
-51.69
-51.88
-49.70
-44.81
-37.10
-26.96
-15.27
-3.34
7.49
16.19
22.29
25.94
27.66
28.10
27.77
26.96
25.78
24.24
22.44
20.55
18.80
17.42
16.55
16.21
16.25
16.47
16.60
16.44
15.83
14.75
13.25
11.43
9.39
7.22
4.93
2.52
0.00
-2.57
-5.14
-7.65
-10.08
-12.48
-14.89
-17.29
-19.63
-21.91
-24.21
-26.68
-29.44
-32.48
-35.48
-37.90
-39.02
-38.20
-35.02
-29.43
-21.79
-12.82
-3.47
5.31
12.69
18.22
21.85
23.84
24.61
24.55
23.97
23.05
21.95
20.82
19.81
19.05
18.53
18.14
17.70
17.05
16.10
14.86
13.45
11.95
10.44
8.93
7.40
5.78
4.01
2.04
-0.15
-2.51
-5.02
-7.68
-10.51
-13.50
-16.68
-19.92
-23.10
-26.05
-28.67
-30.94
-33.01
-35.10
-37.36
-39.90
-42.55
-45.00
-46.71
-47.11
-45.66
-42.02
-36.18
-28.55
-19.86
-11.06
-3.00
3.70
8.82
12.46
14.84
16.16
16.52
15.92
14.44
12.31
9.86
7.48
5.43
3.79
2.47
1.40
0.53
-0.10
-0.39
-0.32
0.02
0.42
0.65
0.50
-0.19
-1.47
-3.35
-5.71
-8.43
-11.33
-14.26
-17.09
-19.76
-22.19
-24.29
-25.99
-27.17
-27.89
-28.31
-28.74
-29.55
-31.03
-33.23
-35.87
-38.36
-39.87
-39.53
-36.66
-30.99
-22.76
-12.75
-2.04
8.24
17.14
24.13
29.03
31.94
33.14
32.89
31.51
29.35
26.83
24.40
22.49
21.40
21.19
21.80
22.92
24.20
25.33
26.09
26.39
26.30
25.85
25.05
23.87
22.22
19.99
17.18
13.92
10.46
7.05
3.85
0.79
-2.37
-5.96
-10.30
-15.49
-21.42
-27.68
-33.65
-38.55
-41.46
-41.50
-38.00
-30.72
-20.02
-6.91
7.14
20.54
31.94
40.46
45.77
47.99
47.51
44.89
40.78
35.89
30.96
26.62
23.26
20.92
19.33
18.00
16.39
14.14
11.14
7.55
3.69
-0.02
-3.25
-5.85
-7.89
-9.58
-11.19
-12.88
-14.66
-16.40
-17.91
-19.16
-20.28
-21.59
-23.47
-26.20
-29.84
-34.17
-38.69
-42.66
-45.15
-45.21
-42.11
-35.62
-26.17
-14.85
-3.15
7.48
15.95
21.79
25.08
26.33
26.14
25.07
23.59
22.08
20.82
20.10
20.11
20.95
22.60
24.79
27.12
29.05
30.12
30.11
29.09
27.40
25.44
23.54
21.77
20.02
18.11
15.88
13.29
10.32
6.98
3.26
-0.90
-5.40
-10.02
-14.33
-17.73
-19.63
-19.54
-17.26
-12.94
-7.12
-0.60
5.75
11.16
15.11
17.33
17.84
16.82
14.54
11.33
7.54
3.57
-0.13
-3.06
-4.84
-5.31
-4.63
-3.25
-1.71
-0.49
0.19
0.39
0.34
0.22
0.04
-0.33
-1.07
-2.28
-3.85
-5.59
-7.26
-8.67
-9.75
-10.52
-11.13
-11.77
-12.67
-13.93
-15.54
-17.32
-19.05
-20.59
-21.93
-23.28
-24.84
-26.75
-28.92
-31.09
-32.97
-34.38
-35.36
-36.15
-37.12
-38.60
-40.77
-43.54
-46.48
-48.83
-49.58
-47.76
-42.63
-34.00
-22.41
-8.94
4.97
17.92
28.79
36.97
42.30
45.00
45.48
44.25
41.87
38.90
35.87
33.22
31.31
30.35
30.39
31.31
32.85
34.64
36.29
37.47
37.97
37.70
36.63
34.84
32.40
29.43
26.05
22.39
18.59
14.79
11.17
7.87
4.99
2.45
0.05
-2.58
-5.78
-9.78
-14.46
-19.36
-23.76
-26.81
-27.69
-25.87
-21.26
-14.28
-5.78
3.11
11.33
18.04
22.79
25.54
26.48
25.89
24.09
21.39
18.10
14.63
11.34
8.55
6.39
4.83
3.74
2.92
2.26
1.76
1.50
1.60
2.09
2.86
3.68
4.25
4.25
3.50
1.93
-0.33
-2.98
-5.63
-7.91
-9.61
-10.84
-11.92
-13.32
-15.49
-18.62
-22.56
-26.83
-30.67
-33.18
-33.54
-31.12
-25.76
-17.90
-8.47
1.27
10.11
17.23
22.37
25.75
27.90
29.30
30.21
30.71
30.74
30.29
29.49
28.59
27.97
27.90
28.45
29.41
30.34
30.72
30.17
28.63
26.36
23.79
21.35
19.21
17.21
15.05
12.40
9.12
5.43
1.76
-1.43
-3.82
-5.42
-6.67
-8.23
-10.93
-15.61
-22.94
-33.20
-46.02
-60.09
-73.17
-82.45
-85.37
-80.54
-68.38
-51.09
-32.06
-14.67
-1.48
6.30
8.64
6.18
-0.16
-9.38
-20.34
-31.64
-41.66
-48.94
-52.59
-52.59
-49.69
-45.08
-39.77
-34.26
-28.38
-21.65
-13.69
-4.65
4.64
12.95
19.05
22.30
22.82
21.44
19.27
17.31
16.10
15.65
15.67
15.78
15.79
15.74
15.76
15.93
16.07
15.70
14.08
10.29
3.49
-6.85
-20.65
-36.94
-53.80
-68.58
-78.38
-80.93
-75.26
-62.11
-43.78
-23.44
-4.22
11.60
22.90
29.64
32.37
31.88
28.95
24.38
19.04
13.85
9.73
7.25
6.57
7.40
9.22
11.50
13.85
16.03
17.87
19.11
19.43
18.47
15.98
11.98
6.77
0.86
-5.19
-10.97
-16.28
-21.18
-25.82
-30.39
-34.94
-39.45
-43.88
-48.16
-52.30
-56.42
-60.76
-65.62
-71.38
-78.24
-85.95
-93.56
-99.30
-101.00
-96.74
-85.60
-68.12
-46.30
-22.94
-0.89
17.79
32.14
42.22
48.66
52.22
53.47
52.71
50.21
46.33
41.74
37.43
34.42
33.55
35.14
38.88
43.87
48.94
53.04
55.45
55.97
54.80
52.34
48.98
44.85
39.94
34.24
27.85
21.09
14.42
8.26
2.81
-2.02
-6.60
-11.36
-16.68
-22.83
-29.99
-38.09
-46.70
-54.83
-60.87
-63.01
-59.67
-50.29
-35.56
-17.46
1.48
18.84
32.97
43.26
49.91
53.48
54.49
53.22
49.78
44.35
37.47
30.08
23.44
18.77
16.87
17.74
20.63
24.27
27.39
29.20
29.56
28.87
27.63
26.05
23.92
20.70
15.98
9.70
2.32
-5.39
-12.68
-19.10
-24.61
-29.48
-34.11
-38.89
-44.16
-50.11
-56.72
-63.52
-69.47
-72.94
-72.16
-65.72
-53.27
-35.74
-15.17
5.88
25.11
41.02
53.07
61.43
66.75
69.67
70.75
70.39
68.93
66.67
63.98
61.23
58.78
56.93
55.82
55.43
55.56
55.92
56.18
56.09
55.52
54.39
52.61
50.07
46.63
42.26
37.01
31.07
24.62
17.79
10.59
3.01
-4.87
-12.79
-20.27
-26.77
-31.96
-35.86
-39.00
-42.33
-46.91
-53.50
-62.07
-71.48
-79.58
-83.66
-81.37
-71.58
-54.85
-33.40
-10.38
11.07
28.68
41.56
49.98
54.89
57.30
57.94
57.14
55.12
52.14
48.70
45.47
43.05
41.80
41.73
42.57
43.97
45.69
47.54
49.47
51.33
52.81
53.50
52.96
50.95
47.46
42.73
37.14
31.08
24.83
18.57
12.45
6.64
1.32
-3.37
-7.45
-11.12
-14.81
-18.92
-23.75
-29.26
-35.14
-40.95
-46.29
-50.99
-55.19
-59.28
-63.80
-69.32
-76.18
-84.38
-93.22
-101.19
-106.12
-105.75
-98.47
-84.08
-64.11
-41.42
-19.29
-0.43
13.78
23.38
29.34
32.85
34.79
35.50
35.05
33.51
31.29
29.04
27.48
27.09
27.97
29.80
32.08
34.35
36.36
38.13
39.74
41.13
41.99
41.79
40.03
36.52
31.57
25.85
20.20
15.19
10.93
7.11
3.22
-1.10
-5.88
-10.74
-15.20
-18.88
-21.68
-23.91
-26.03
-28.53
-31.63
-35.25
-39.00
-42.44
-45.23
-47.32
-49.06
-51.09
-54.24
-59.15
-66.06
-74.50
-83.19
-90.08
-92.86
-89.60
-79.40
-62.87
-41.96
-19.49
1.74
19.66
33.33
42.80
48.65
51.61
52.23
50.89
48.01
44.18
40.20
36.95
35.13
35.05
36.58
39.24
42.42
45.60
48.50
51.02
53.13
54.71
55.41
54.81
52.62
48.88
44.07
38.92
34.09
29.86
26.02
22.05
17.43
11.98
5.97
0.05
-5.20
-9.50
-12.99
-16.21
-19.81
-24.33
-30.12
-37.14
-44.92
-52.44
-58.16
-60.33
-57.44
-48.83
-35.06
-17.88
0.26
16.96
30.48
40.13
46.05
48.89
49.33
47.86
44.80
40.45
35.30
30.03
25.42
22.10
20.38
20.18
21.13
22.79
24.78
26.86
28.78
30.27
30.90
30.26
28.13
24.57
19.98
14.95
10.01
5.45
1.22
-3.03
-7.63
-12.77
-18.40
-24.13
-29.50
-34.14
-37.98
-41.25
-44.48
-48.28
-53.19
-59.45
-66.75
-74.15
-80.06
-82.55
-79.90
-71.20
-56.81
-38.42
-18.52
0.32
16.17
28.16
36.38
41.48
44.23
45.15
44.59
42.77
40.04
36.90
33.90
31.61
30.35
30.20
31.00
32.40
34.04
35.64
37.03
38.12
38.80
38.89
38.13
36.25
33.10
28.78
23.64
18.16
12.89
8.18
4.21
0.84
-2.26
-5.53
-9.31
-13.81
-18.90
-24.23
-29.27
-33.63
-37.21
-40.27
-43.39
-47.26
-52.37
-58.79
-66.01
-72.89
-77.82
-79.07
-75.29
-65.95
-51.68
-34.11
-15.49
2.00
16.74
27.97
35.70
40.37
42.56
42.77
41.44
39.03
35.97
32.70
29.59
26.93
24.93
23.72
23.33
23.69
24.58
25.66
26.58
27.05
26.88
26.01
24.45
22.22
19.32
15.76
11.64
7.14
2.53
-1.94
-6.08
-9.88
-13.47
-17.13
-21.13
-25.72
-30.93
-36.61
-42.40
-47.85
-52.58
-56.35
-59.24
-61.55
-63.86
-66.74
-70.64
-75.69
-81.46
-86.97
-90.75
-91.13
-86.66
-76.63
-61.45
-42.64
-22.47
-3.32
12.91
25.23
33.57
38.44
40.62
40.70
39.15
36.30
32.55
28.42
24.56
21.61
20.08
20.24
22.08
25.36
29.59
34.16
38.47
41.93
44.13
44.72
43.57
40.74
36.58
31.64
26.61
22.06
18.30
15.24
12.52
9.60
6.12
1.93
-2.80
-7.70
-12.46
-16.87
-20.99
-25.08
-29.49
-34.48
-40.01
-45.57
-50.19
-52.55
-51.36
-45.82
-35.90
-22.50
-7.19
8.17
21.94
33.01
40.90
45.67
47.64
47.25
44.96
41.21
36.45
31.22
26.10
21.65
18.36
16.42
15.80
16.17
17.04
17.93
18.46
18.43
17.75
16.40
14.36
11.62
8.26
4.50
0.57
-3.33
-7.14
-10.98
-15.01
-19.27
-23.65
-27.86
-31.63
-34.88
-37.88
-41.05
-44.88
-49.60
-55.05
-60.63
-65.32
-67.87
-66.96
-61.63
-51.51
-37.14
-19.93
-1.87
14.97
28.96
39.24
45.73
48.89
49.38
47.85
44.87
41.02
36.95
33.32
30.67
29.23
28.82
28.93
29.01
28.63
27.70
26.40
25.04
23.75
22.50
21.06
19.16
16.68
13.68
10.34
6.78
3.07
-0.92
-5.31
-10.22
-15.67
-21.51
-27.56
-33.51
-39.03
-43.86
-47.88
-51.21
-54.23
-57.49
-61.43
-66.14
-71.14
-75.37
-77.37
-75.70
-69.40
-58.38
-43.54
-26.58
-9.56
5.65
17.80
26.42
31.69
34.07
34.11
32.19
28.68
23.98
18.68
13.49
9.10
6.02
4.43
4.19
4.89
6.11
7.43
8.60
9.48
9.99
10.08
9.62
8.47
6.46
3.57
-0.05
-4.04
-7.93
-11.36
-14.20
-16.66
-19.16
-22.16
-25.91
-30.30
-34.93
-39.25
-42.82
-45.53
-47.69
-49.99
-53.18
-57.87
-64.17
-71.54
-78.69
-83.84
-85.02
-80.74
-70.41
-54.67
-35.28
-14.69
4.66
20.87
33.03
41.10
45.64
47.43
47.14
45.26
42.20
38.46
34.68
31.67
30.17
30.69
33.29
37.52
42.56
47.42
51.34
53.90
55.15
55.38
54.93
53.93
52.26
49.66
45.89
41.00
35.31
29.33
23.60
18.46
13.99
9.97
6.08
2.02
-2.39
-7.19
-12.36
-17.74
-22.98
-27.40
-29.99
-29.54
-25.05
-16.20
-3.66
10.97
25.52
38.01
47.10
52.44
54.39
53.72
51.13
47.07
41.80
35.55
28.72
21.94
15.93
11.35
8.60
7.72
8.39
10.09
12.20
14.20
15.72
16.57
16.67
15.99
14.52
12.29
9.34
5.83
1.92
-2.32
-6.88
-11.78
-16.98
-22.27
-27.30
-31.69
-35.20
-37.91
-40.22
-42.75
-46.15
-50.82
-56.71
-63.20
-69.02
-72.53
-72.03
-66.31
-55.10
-39.30
-20.82
-2.06
14.72
28.01
37.23
42.61
44.86
44.83
43.20
40.50
37.15
33.58
30.25
27.58
25.87
25.18
25.37
26.11
27.03
27.77
28.09
27.86
27.03
25.52
23.22
20.01
15.79
10.72
5.14
-0.43
-5.56
-10.01
-13.94
-17.81
-22.12
-27.27
-33.18
-39.46
-45.46
-50.70
-55.05
-58.78
-62.47
-66.78
-72.10
-78.45
-85.25
-91.35
-95.19
-95.13
-89.86
-78.93
-62.94
-43.57
-23.15
-4.06
11.91
23.90
31.90
36.49
38.41
38.30
36.63
33.78
30.21
26.53
23.44
21.57
21.28
22.49
24.73
27.37
29.77
31.65
32.97
33.95
34.72
35.26
35.27
34.33
32.24
29.07
25.27
21.47
18.17
15.57
13.51
11.52
9.10
5.98
2.22
-1.81
-5.55
-8.58
-10.78
-12.34
-13.76
-15.69
-18.66
-23.03
-28.74
-35.32
-41.75
-46.57
-48.12
-44.93
-36.21
-22.23
-4.44
14.85
33.06
48.00
58.38
64.04
65.63
64.28
61.12
57.05
52.69
48.50
44.83
41.96
40.03
38.96
38.50
38.27
37.94
37.30
36.33
35.12
33.77
32.36
30.79
28.87
26.35
23.06
18.98
14.28
9.27
4.30
-0.38
-4.73
-8.88
-13.09
-17.55
-22.30
-27.20
-31.92
-36.12
-39.56
-42.24
-44.45
-46.64
-49.30
-52.79
-57.17
-62.08
-66.85
-70.38
-71.39
-68.72
-61.57
-49.92
-34.62
-17.30
0.09
15.73
28.38
37.57
43.46
46.57
47.48
46.68
44.57
41.52
38.00
34.49
31.48
29.35
28.25
28.12
28.61
29.34
29.88
29.99
29.60
28.80
27.67
26.16
24.04
21.01
16.97
12.01
6.60
1.28
-3.48
-7.47
-10.84
-13.94
-17.14
-20.71
-24.69
-29.01
-33.50
-38.04
-42.48
-46.71
-50.57
-53.99
-56.99
-59.79
-62.78
-66.39
-70.89
-76.08
-81.23
-85.08
-86.16
-83.22
-75.67
-63.78
-48.75
-32.32
-16.38
-2.49
8.43
16.06
20.60
22.47
22.14
20.05
16.69
12.65
8.62
5.38
3.54
3.43
5.00
7.86
11.43
15.13
18.52
21.32
23.44
24.86
25.61
25.66
24.92
23.27
20.68
17.30
13.43
9.57
6.16
3.40
1.15
-1.07
-3.81
-7.40
-11.76
-16.39
-20.60
-23.87
-26.07
-27.56
-29.00
-31.08
-34.32
-38.90
-44.64
-50.96
-56.87
-61.02
-61.86
-58.05
-48.94
-34.84
-17.13
2.07
20.54
36.47
48.87
57.54
62.82
65.23
65.24
63.23
59.59
54.87
49.76
45.04
41.35
39.08
38.33
38.93
40.50
42.62
44.82
46.62
47.60
47.40
45.84
42.93
38.95
34.31
29.43
24.57
19.80
14.98
9.90
4.46
-1.27
-7.06
-12.59
-17.66
-22.18
-26.35
-30.47
-34.95
-40.12
-46.14
-52.75
-59.17
-64.08
-65.85
-63.03
-54.87
-41.72
-24.96
-6.68
10.92
26.15
38.03
46.27
51.03
52.66
51.62
48.50
43.96
38.80
33.78
29.51
26.36
24.51
23.91
24.37
25.63
27.37
29.27
31.00
32.29
32.85
32.51
31.17
28.92
25.94
22.52
18.91
15.26
11.60
7.87
3.96
-0.19
-4.61
-9.29
-14.16
-19.09
-23.88
-28.29
-32.10
-35.28
-38.02
-40.71
-43.89
-48.06
-53.43
-59.81
-66.51
-72.38
-75.98
-75.90
-71.14
-61.36
-47.16
-29.95
-11.71
5.53
20.11
31.12
38.45
42.61
44.35
44.36
43.12
40.96
38.17
35.13
32.29
30.05
28.65
28.11
28.30
29.01
30.00
31.05
31.96
32.55
32.58
31.90
30.35
27.90
24.62
20.65
16.20
11.54
6.89
2.41
-1.82
-5.80
-9.57
-13.18
-16.73
-20.34
-24.17
-28.36
-32.98
-37.86
-42.66
-46.93
-50.29
-52.59
-54.02
-55.06
-56.28
-58.23
-61.21
-65.16
-69.56
-73.38
-75.23
-73.72
-67.83
-57.34
-43.02
-26.46
-9.64
5.62
18.03
26.98
32.40
34.55
33.86
30.96
26.61
21.84
17.66
14.96
14.23
15.53
18.41
22.16
26.05
29.43
31.91
33.31
33.69
33.20
32.07
30.41
28.31
25.83
23.09
20.32
17.85
15.97
14.74
13.93
12.97
11.24
8.33
4.23
-0.62
-5.51
-9.77
-13.07
-15.51
-17.54
-19.79
-22.88
-27.16
-32.63
-38.81
-44.78
-49.20
-50.57
-47.65
-39.78
-27.22
-11.17
6.46
23.53
38.15
49.12
56.05
59.21
59.30
57.15
53.48
48.93
43.96
39.02
34.49
30.67
27.76
25.80
24.70
24.28
24.37
24.76
25.24
25.55
25.43
24.61
22.92
20.38
17.11
13.38
9.41
5.38
1.29
-2.94
-7.48
-12.39
-17.59
-22.86
-27.86
-32.33
-36.16
-39.49
-42.69
-46.23
-50.47
-55.48
-60.97
-66.15
-69.92
-70.95
-68.06
-60.49
-48.30
-32.45
-14.68
2.90
18.39
30.54
38.99
44.12
46.66
47.34
46.58
44.58
41.46
37.54
33.38
29.69
27.10
25.90
26.05
27.17
28.73
30.21
31.25
31.52
30.77
28.84
25.70
21.54
16.72
11.73
6.97
2.66
-1.25
-4.99
-8.85
-13.04
-17.60
-22.38
-27.10
-31.50
-35.39
-38.75
-41.76
-44.73
-47.98
-51.72
-55.76
-59.55
-62.08
-62.20
-58.85
-51.43
-40.01
-25.44
-9.12
7.29
22.35
35.12
45.25
52.80
58.03
61.10
61.97
60.51
56.66
50.69
43.25
35.27
27.77
21.54
17.00
14.15
12.67
12.15
12.20
12.55
13.04
13.51
13.79
13.61
12.71
10.86
7.96
4.07
-0.63
-5.90
-11.40
-16.80
-21.80
-26.20
-29.95
-33.12
-35.90
-38.60
-41.60
-45.32
-50.20
-56.57
-64.55
-73.94
-84.12
-94.09
-102.58
-108.21
-109.80
-106.51
-98.17
-85.28
-69.04
-51.13
-33.35
-17.23
-3.72
6.80
14.50
19.79
23.11
24.80
25.09
24.17
22.31
19.88
17.34
15.17
13.80
13.49
14.31
16.06
18.33
20.58
22.25
22.91
22.31
20.41
17.39
13.56
9.31
4.98
0.79
-3.20
-7.10
-11.13
-15.46
-20.19
-25.20
-30.26
-35.09
-39.49
-43.48
-47.31
-51.39
-56.19
-62.02
-68.79
-75.74
-81.48
-84.14
-81.85
-73.39
-58.66
-38.90
-16.40
6.11
26.31
42.79
55.21
63.94
69.55
72.42
72.63
70.23
65.62
59.71
53.83
49.30
46.93
46.83
48.43
50.81
53.21
55.15
56.54
57.42
57.81
57.49
56.09
53.19
48.56
42.30
34.84
26.85
19.01
11.86
5.61
0.05
-5.28
-10.96
-17.51
-25.28
-34.21
-43.81
-52.98
-60.13
-63.46
-61.35
-53.09
-39.12
-21.15
-1.64
16.88
32.49
44.24
52.05
56.38
57.78
56.70
53.47
48.49
42.28
35.64
29.46
24.59
21.66
20.83
21.78
23.81
26.00
27.55
28.02
27.37
25.85
23.78
21.23
18.04
13.86
8.44
1.86
-5.46
-12.88
-19.77
-25.82
-31.11
-36.01
-41.03
-46.65
-53.19
-60.77
-69.26
-78.10
-86.17
-91.81
-93.00
-88.00
-76.00
-57.56
-34.75
-10.48
12.16
30.83
44.38
52.72
56.58
56.97
54.87
51.11
46.37
41.28
36.38
32.17
29.05
27.29
27.04
28.25
30.62
33.63
36.58
38.73
39.55
38.76
36.39
32.70
28.07
22.82
17.20
11.28
5.03
-1.61
-8.69
-16.11
-23.66
-30.99
-37.80
-44.00
-49.71
-55.29
-61.19
-67.86
-75.52
-84.04
-92.71
-100.08
-104.12
-102.66
-94.09
-78.16
-56.32
-31.42
-6.89
14.34
30.57
41.51
47.89
50.73
50.86
48.75
44.74
39.36
33.42
27.95
23.92
21.98
22.18
24.09
26.97
30.00
32.51
34.16
34.87
34.76
33.92
32.27
29.61
25.74
20.66
14.67
8.37
2.50
-2.42
-6.20
-9.16
-11.89
-15.08
-19.17
-24.23
-29.91
-35.61
-40.78
-45.11
-48.73
-52.12
-56.04
-61.28
-68.38
-77.29
-87.23
-96.48
-102.68
-103.36
-96.66
-82.09
-60.84
-35.50
-9.34
14.66
34.52
49.46
59.67
65.78
68.39
68.03
65.20
60.60
55.22
50.25
46.70
45.20
45.80
48.06
51.28
54.81
58.17
61.06
63.33
64.78
65.12
64.12
61.70
58.06
53.71
49.22
45.06
41.30
37.67
33.76
29.20
24.00
18.53
13.34
8.92
5.45
2.66
-0.08
-3.54
-8.46
-15.19
-23.43
-32.08
-39.29
-42.86
-40.91
-32.56
-18.43
-0.43
18.70
36.37
50.75
61.07
67.39
70.15
69.85
66.83
61.48
54.41
46.52
38.93
32.67
28.44
26.49
26.60
28.22
30.70
33.40
35.80
37.52
38.26
37.77
35.83
32.33
27.31
21.07
14.11
7.07
0.55
-5.14
-10.08
-14.71
-19.61
-25.26
-31.70
-38.55
-45.13
-50.78
-55.27
-58.86
-62.27
-66.39
-71.94
-79.05
-87.25
-95.33
-101.45
-103.54
-99.73
-88.98
-71.56
-49.24
-24.85
-1.55
18.09
32.75
42.43
48.06
50.84
51.67
51.00
48.95
45.67
41.55
37.30
33.68
31.29
30.36
30.71
31.96
33.64
35.39
37.01
38.36
39.30
39.64
39.11
37.44
34.49
30.24
24.85
18.68
12.21
6.01
0.61
-3.69
-6.95
-9.64
-12.41
-15.88
-20.29
-25.49
-30.91
-35.91
-40.02
-43.21
-45.88
-48.69
-52.40
-57.57
-64.47
-72.83
-81.77
-89.68
-94.45
-93.88
-86.38
-71.64
-50.94
-26.97
-3.03
17.84
33.74
44.12
49.60
51.36
50.54
47.97
44.22
39.77
35.28
31.53
29.30
29.02
30.64
33.61
37.16
40.52
43.19
45.00
46.04
46.45
46.31
45.52
43.85
41.09
37.18
32.22
26.61
20.81
15.30
10.43
6.31
2.77
-0.54
-4.03
-8.02
-12.50
-17.28
-21.91
-25.97
-29.27
-31.89
-34.23
-36.83
-40.22
-44.81
-50.81
-58.11
-66.08
-73.47
-78.45
-78.86
-72.96
-60.04
-40.89
-17.77
6.27
28.24
45.97
58.44
65.69
68.33
67.16
62.95
56.43
48.43
39.98
32.15
25.84
21.53
19.15
18.24
18.12
18.11
17.70
16.61
14.78
12.22
9.03
5.32
1.15
-3.39
-8.19
-13.06
-17.71
-21.83
-25.21
-27.81
-29.87
-31.83
-34.16
-37.25
-41.20
-45.85
-50.80
-55.52
-59.52
-62.50
-64.43
-65.67
-66.80
-68.52
-71.42
-75.68
-80.91
-86.05
-89.50
-89.45
-84.31
-73.30
-56.78
-36.24
-14.03
7.28
25.51
39.34
48.36
52.91
53.69
51.41
46.67
40.07
32.35
24.52
17.83
13.51
12.40
14.68
19.70
26.18
32.54
37.37
39.73
39.34
36.40
31.45
25.16
18.15
10.98
4.07
-2.22
-7.72
-12.34
-16.28
-19.88
-23.62
-27.96
-33.24
-39.60
-46.96
-55.08
-63.66
-72.37
-80.68
-87.76
-92.42
-93.22
-88.96
-79.19
-64.64
-47.16
-29.36
-13.75
-2.16
4.66
6.87
5.21
0.55
-6.27
-14.34
-22.58
-29.60
-33.95
-34.41
-30.36
-21.88
-9.75
4.78
20.26
35.34
48.97
60.51
69.65
76.32
80.52
82.34
82.10
80.42
78.33
77.00
77.43
80.15
85.04
91.45
98.45
105.11
110.68
114.55
116.30
115.69
112.79
108.06
102.48
97.32
93.80
92.72
94.05
96.79
99.19
99.34
95.89
88.60
78.37
66.79
55.37
44.93
35.30
25.68
15.16
3.35
-9.42
-22.04
-33.03
-40.97
-44.94
-44.98
-42.19
-38.68
-37.02
-39.51
-47.40
-60.41
-76.73
-93.53
-107.93
-117.93
-123.02
-124.36
-124.26
-125.37
-129.73
-138.06
-149.30
-160.90
-169.28
-170.94
-163.43
-146.27
-121.14
-91.53
-61.72
-35.48
-15.21
-1.59
5.87
8.22
6.48
1.65
-4.84
-10.93
-14.08
-12.01
-3.73
9.89
26.34
42.38
55.31
63.75
67.70
68.15
66.27
62.96
58.71
53.78
48.45
42.84
36.85
29.87
20.90
8.71
-7.62
-28.34
-52.79
-79.37
-105.70
-128.85
-145.72
-153.55
-150.67
-137.22
-115.32
-88.86
-62.49
-40.36
-24.89
-16.27
-12.66
-11.23
-9.40
-5.68
-0.05
6.40
12.16
15.99
17.36
16.56
14.50
12.38
11.43
12.58
16.32
22.57
30.54
38.89
45.95
50.12
50.24
45.82
37.18
25.33
11.80
-1.68
-13.40
-22.07
-27.03
-28.47
-27.32
-25.09
-23.40
-23.46
-25.89
-30.50
-36.61
-43.25
-49.44
-54.28
-56.87
-56.30
-51.65
-42.30
-28.19
-10.13
10.33
31.15
50.29
66.21
78.14
86.20
91.11
93.89
95.42
96.22
96.37
95.65
93.79
90.76
86.75
82.09
77.06
71.76
66.24
60.74
55.77
52.01
49.99
49.80
50.90
52.29
52.83
51.68
48.45
43.16
36.07
27.43
17.31
5.70
-7.40
-21.72
-36.67
-51.33
-64.79
-76.36
-85.66
-92.51
-96.49
-96.64
-91.61
-80.21
-62.25
-39.06
-13.46
11.05
31.40
45.95
54.88
59.70
62.38
64.48
66.69
68.88
70.61
71.55
71.78
71.70
71.70
71.97
72.30
72.32
71.75
70.58
69.09
67.64
66.37
65.03
63.04
59.70
54.55
47.56
39.20
30.30
21.78
14.40
8.52
4.16
0.96
-1.56
-3.86
-6.25
-8.86
-11.66
-14.56
-17.47
-20.18
-22.43
-23.84
-23.95
-22.37
-18.91
-13.69
-7.20
-0.21
6.45
12.08
16.37
19.28
21.08
22.10
22.68
23.02
23.22
23.38
23.60
24.03
24.78
25.87
27.20
28.56
29.74
30.59
31.03
31.05
30.69
30.08
29.35
28.65
28.14
27.83
27.58
27.03
25.66
22.90
18.30
11.65
3.04
-7.26
-18.83
-31.24
-44.08
-56.98
-69.59
-81.68
-93.14
-104.10
-114.85
-125.49
-135.59
-143.84
-148.16
-146.17
-136.08
-117.55
-92.17
-63.27
-34.99
-11.10
5.96
15.54
18.56
16.87
12.53
7.36
2.72
-0.31
-0.98
1.11
5.86
12.53
19.89
26.43
30.93
32.63
31.61
28.50
24.31
19.99
16.14
12.85
9.78
6.48
2.62
-1.74
-6.20
-10.30
-13.79
-16.85
-20.11
-24.31
-29.91
-36.86
-44.54
-52.06
-58.60
-63.73
-67.61
-70.85
-74.31
-78.79
-84.79
-92.16
-99.99
-106.59
-109.67
-106.94
-96.87
-79.31
-55.78
-29.17
-2.85
20.21
38.29
50.98
58.94
63.16
64.52
63.58
60.74
56.51
51.72
47.39
44.45
43.44
44.26
46.32
48.83
51.13
52.90
54.18
55.22
56.19
56.93
56.91
55.46
52.04
46.56
39.53
31.87
24.54
18.21
12.93
8.28
3.63
-1.49
-7.30
-13.73
-20.68
-28.15
-36.19
-44.88
-54.12
-63.74
-73.41
-82.67
-90.68
-96.02
-96.82
-91.13
-77.80
-57.16
-31.34
-3.79
21.80
42.63
57.44
66.46
70.78
71.61
69.74
65.58
59.41
51.74
43.47
35.77
29.68
25.90
24.49
25.05
26.87
29.17
31.36
33.13
34.37
35.02
34.96
33.93
31.57
27.65
22.16
15.47
8.20
1.15
-5.02
-10.01
-13.91
-17.25
-20.69
-24.80
-29.80
-35.50
-41.37
-46.75
-51.14
-54.39
-56.78
-58.95
-61.70
-65.75
-71.51
-78.80
-86.60
-93.12
-95.97
-92.80
-82.03
-63.64
-39.32
-12.20
14.02
36.18
52.39
62.34
66.91
67.52
65.50
61.78
56.97
51.54
46.03
41.06
37.22
34.83
33.89
34.09
34.94
35.98
36.89
37.49
37.78
37.77
37.39
36.42
34.51
31.36
26.88
21.31
15.20
9.24
4.01
-0.25
-3.67
-6.78
-10.15
-14.25
-19.21
-24.79
-30.44
-35.63
-39.97
-43.34
-45.94
-48.16
-50.44
-53.16
-56.57
-60.65
-65.08
-69.17
-71.86
-71.96
-68.42
-60.68
-48.99
-34.38
-18.52
-3.25
9.86
19.87
26.55
30.26
31.65
31.34
29.89
27.63
24.89
21.97
19.27
17.15
15.82
15.36
15.57
16.21
16.92
17.41
17.49
17.09
16.21
14.86
13.00
10.49
7.31
3.47
-0.75
-4.91
-8.53
-11.30
-13.19
-14.55
-15.96
-17.94
-20.77
-24.30
-28.05
-31.46
-34.13
-36.01
-37.42
-38.95
-41.23
-44.68
-49.34
-54.75
-59.97
-63.66
-64.37
-60.90
-52.63
-39.84
-23.66
-5.81
11.84
27.68
40.68
50.36
56.70
59.90
60.29
58.29
54.45
49.50
44.27
39.59
36.06
34.00
33.32
33.67
34.52
35.40
35.97
36.04
35.62
34.72
33.26
31.11
28.04
23.90
18.73
12.80
6.58
0.62
-4.69
-9.21
-13.03
-16.47
-19.88
-23.59
-27.73
-32.26
-36.93
-41.24
-44.40
-45.44
-43.44
-37.77
-28.38
-15.91
-1.65
12.78
25.81
36.26
43.51
47.51
48.62
47.44
44.60
40.69
36.18
31.49
27.03
23.17
20.21
18.28
17.28
16.89
16.66
16.21
15.25
13.72
11.66
9.14
6.23
2.87
-0.98
-5.35
-10.16
-15.26
-20.38
-25.24
-29.56
-33.13
-35.97
-38.28
-40.51
-43.18
-46.71
-51.17
-56.13
-60.64
-63.31
-62.68
-57.59
-47.60
-33.10
-15.37
3.74
22.30
38.56
51.45
60.52
65.95
68.28
68.19
66.28
63.09
59.05
54.52
49.81
45.14
40.67
36.47
32.62
29.17
26.14
23.43
20.81
18.03
14.91
11.50
8.03
4.65
1.27
-2.61
-7.63
-14.32
-22.63
-31.91
-41.09
-49.16
-55.59
-60.50
-64.55
-68.64
-73.52
-79.56
-86.63
-94.04
-100.45
-104.00
-102.65
-94.76
-79.76
-58.61
-33.76
-8.40
14.35
32.43
45.13
52.86
56.64
57.49
56.13
52.99
48.44
43.03
37.57
32.93
29.83
28.64
29.26
31.22
33.74
36.03
37.38
37.36
35.86
33.01
29.08
24.37
19.10
13.34
7.15
0.58
-6.23
-13.05
-19.67
-25.85
-31.54
-36.75
-41.63
-46.37
-51.28
-56.75
-63.10
-70.48
-78.49
-86.03
-91.23
-91.95
-86.33
-73.62
-54.61
-31.56
-7.70
13.79
30.58
41.69
47.32
48.48
46.25
41.50
34.85
26.92
18.60
11.08
5.65
3.19
3.86
6.95
11.16
15.08
17.62
18.36
17.45
15.41
12.75
9.75
6.32
2.18
-3.00
-9.39
-16.86
-24.98
-33.09
-40.46
-46.52
-51.10
-54.41
-57.03
-59.75
-63.31
-68.31
-74.90
-82.70
-90.53
-96.59
-98.61
-94.51
-83.08
-64.60
-40.90
-14.93
10.05
31.43
47.72
58.65
64.71
66.72
65.45
61.51
55.58
48.47
41.29
35.21
31.22
29.78
30.70
33.23
36.31
39.04
40.84
41.61
41.46
40.49
38.51
35.07
29.68
22.13
12.78
2.44
-7.79
-16.95
-24.56
-30.71
-36.00
-41.31
-47.42
-54.80
-63.33
-72.13
-79.61
-83.70
-82.33
-74.12
-58.88
-37.80
-13.21
12.10
35.57
55.40
70.65
81.12
86.92
88.27
85.50
79.20
70.44
60.68
51.58
44.51
40.26
38.78
39.40
41.12
43.04
44.59
45.52
45.75
45.09
43.20
39.61
34.00
26.49
17.60
8.18
-1.01
-9.53
-17.52
-25.56
-34.41
-44.65
-56.25
-68.40
-79.36
-86.76
-88.08
-81.43
-66.29
-43.86
-17.01
10.60
35.50
55.38
69.39
77.98
82.18
82.97
80.96
76.46
69.91
62.04
54.02
47.13
42.28
39.79
39.25
39.81
40.57
40.98
40.93
40.63
40.23
39.51
37.80
34.16
27.86
18.78
7.58
-4.50
-16.08
-26.20
-34.66
-41.94
-49.00
-56.73
-65.72
-75.90
-86.48
-95.86
-101.76
-101.72
-93.79
-77.29
-53.30
-24.60
5.10
32.14
53.99
69.60
79.34
84.30
85.61
84.04
79.99
73.83
66.20
58.15
50.98
45.81
43.29
43.36
45.36
48.30
51.22
53.39
54.39
54.02
52.19
48.91
44.29
38.57
31.98
24.79
17.14
9.12
0.74
-7.91
-16.65
-25.16
-33.07
-40.09
-46.10
-51.27
-56.08
-61.23
-67.40
-75.11
-84.30
-94.01
-102.34
-106.62
-104.20
-93.29
-73.82
-47.70
-18.38
10.11
34.45
52.74
64.77
71.51
74.36
74.51
72.69
69.28
64.60
59.21
53.84
49.30
46.18
44.67
44.53
45.19
46.00
46.41
46.13
45.09
43.35
40.82
37.31
32.53
26.26
18.54
9.86
1.07
-6.86
-13.16
-17.61
-20.61
-23.06
-25.98
-30.04
-35.35
-41.33
-47.07
-51.69
-54.85
-56.87
-58.69
-61.50
-66.32
-73.74
-83.52
-94.55
-104.73
-111.27
-111.17
-102.19
-83.68
-57.14
-26.06
5.04
31.92
51.82
64.02
69.49
70.07
67.51
62.97
56.96
49.84
42.19
34.96
29.33
26.24
25.92
27.80
30.73
33.43
34.97
35.06
33.98
32.22
30.09
27.53
24.11
19.35
13.04
5.48
-2.65
-10.46
-17.20
-22.51
-26.50
-29.75
-32.93
-36.69
-41.23
-46.33
-51.36
-55.58
-58.47
-60.04
-60.82
-61.74
-63.80
-67.73
-73.79
-81.66
-90.31
-98.06
-102.66
-101.77
-93.54
-77.37
-54.35
-27.15
0.57
25.31
44.58
57.45
64.38
66.60
65.42
61.78
56.28
49.40
41.88
34.72
29.05
25.72
25.00
26.47
29.33
32.67
35.84
38.46
40.32
41.24
40.91
39.07
35.60
30.69
24.88
18.85
13.20
8.16
3.59
-0.85
-5.54
-10.59
-15.81
-20.73
-24.86
-27.84
-29.70
-30.91
-32.24
-34.67
-38.99
-45.45
-53.47
-61.49
-67.17
-68.04
-62.26
-49.39
-30.69
-8.72
13.44
33.12
48.70
59.68
66.35
69.22
68.64
64.73
57.72
48.26
37.61
27.52
19.73
15.46
14.95
17.41
21.36
25.15
27.66
28.50
28.03
26.92
25.58
23.88
21.21
16.88
10.52
2.47
-6.42
-15.08
-22.68
-28.97
-34.30
-39.39
-44.96
-51.52
-59.17
-67.57
-75.88
-82.81
-86.62
-85.53
-78.07
-63.74
-43.33
-18.92
6.63
30.38
50.05
64.44
73.44
77.71
78.18
75.69
70.84
64.10
55.97
47.17
38.64
31.44
26.34
23.69
23.19
24.08
25.44
26.49
26.82
26.40
25.42
24.03
22.17
19.54
15.76
10.56
4.00
-3.43
-11.00
-17.93
-23.72
-28.26
-31.95
-35.49
-39.70
-45.25
-52.45
-61.04
-70.07
-77.91
-82.54
-81.96
-74.84
-61.00
-41.67
-19.23
3.39
23.52
39.39
50.36
56.75
59.44
59.40
57.45
54.15
50.01
45.48
41.03
37.06
33.86
31.51
29.96
29.03
28.52
28.20
27.77
27.01
25.69
23.66
20.81
17.11
12.63
7.57
2.33
-2.62
-6.89
-10.32
-13.18
-16.03
-19.51
-24.06
-29.68
-35.95
-42.18
-47.68
-52.04
-55.35
-58.15
-61.29
-65.63
-71.57
-78.69
-85.53
-89.88
-89.39
-82.39
-68.54
-49.03
-26.31
-3.33
17.27
33.79
45.54
52.67
55.70
55.25
51.88
46.15
38.83
30.86
23.29
16.99
12.56
10.13
9.47
10.14
11.64
13.55
15.52
17.26
18.55
19.16
18.86
17.37
14.53
10.29
4.87
-1.30
-7.63
-13.54
-18.63
-22.74
-26.01
-28.77
-31.39
-34.13
-37.04
-39.88
-42.29
-43.92
-44.66
-44.76
-44.78
-45.50
-47.55
-51.26
-56.38
-61.99
-66.62
-68.45
-65.81
-57.57
-43.66
-25.23
-4.38
16.32
34.58
48.87
58.65
64.19
66.21
65.46
62.64
58.29
53.03
47.51
42.51
38.71
36.51
35.99
36.84
38.55
40.53
42.31
43.59
44.24
44.25
43.59
42.20
40.04
37.10
33.46
29.26
24.64
19.67
14.27
8.40
2.06
-4.61
-11.31
-17.65
-23.34
-28.24
-32.43
-36.21
-40.00
-44.13
-48.64
-53.04
-56.31
-57.03
-53.82
-45.88
-33.32
-17.32
0.20
17.08
31.48
42.29
49.12
52.21
52.13
49.58
45.26
39.84
34.00
28.41
23.72
20.42
18.71
18.50
19.38
20.80
22.22
23.32
23.99
24.18
23.86
22.82
20.82
17.73
13.63
8.97
4.33
0.15
-3.47
-6.83
-10.48
-14.84
-20.01
-25.68
-31.23
-36.06
-39.80
-42.51
-44.63
-46.84
-49.86
-54.24
-60.20
-67.32
-74.53
-80.15
-82.26
-79.25
-70.42
-56.22
-38.31
-19.00
-0.68
14.86
26.71
34.86
39.80
42.16
42.42
40.81
37.54
32.90
27.45
21.99
17.41
14.41
13.31
13.99
15.99
18.74
21.70
24.44
26.62
27.90
27.87
26.07
22.23
16.35
8.88
0.52
-7.89
-15.74
-22.83
-29.43
-36.05
-43.15
-50.88
-58.96
-66.80
-73.81
-79.71
-84.72
-89.59
-95.28
-102.61
-111.80
-122.19
-132.19
-139.41
-141.28
-135.71
-121.84
-100.52
-74.20
-46.32
-20.34
1.18
17.18
27.96
34.62
38.39
40.07
39.92
37.95
34.30
29.54
24.66
20.73
18.51
18.11
18.96
20.07
20.40
19.26
16.51
12.47
7.70
2.68
-2.40
-7.75
-13.84
-21.13
-29.83
-39.68
-50.02
-59.99
-68.90
-76.55
-83.44
-90.65
-99.45
-110.96
-125.66
-143.21
-162.36
-181.19
-197.38
-208.80
-213.97
-212.53
-205.42
-194.51
-181.98
-169.47
-157.43
-144.95
-130.18
-111.37
-87.94
-61.17
-33.85
-9.23
10.45
24.96
36.18
47.13
60.55
77.67
97.92
119.42
139.79
156.98
169.40
175.86
175.45
167.81
153.80
135.86
117.92
104.42
98.88
102.51
113.58
127.80
139.74
144.58
139.51
124.31
100.99
72.91
43.75
16.87
-4.89
-19.33
-25.02
-21.61
-10.08
7.26
27.21
46.43
62.23
73.08
78.58
79.21
75.81
69.19
60.04
49.04
37.08
25.37
15.36
8.39
5.32
6.26
10.44
16.53
23.04
28.73
32.82
35.01
35.28
33.62
29.97
24.22
16.37
6.66
-4.32
-15.71
-26.60
-36.30
-44.66
-52.17
-59.85
-68.77
-79.47
-91.43
-102.99
-111.71
-115.22
-112.09
-102.30
-87.19
-68.84
-49.38
-30.35
-12.71
2.97
16.21
26.33
32.71
35.08
33.73
29.67
24.33
19.24
15.66
14.43
15.84
19.79
25.83
33.11
40.47
46.49
49.84
49.52
45.26
37.59
27.70
17.12
7.31
-0.52
-5.49
-6.96
-4.53
1.76
11.27
22.62
33.93
43.25
49.31
51.92
52.15
51.98
53.64
58.87
68.44
81.94
97.98
114.58
129.72
141.72
149.47
152.53
150.98
145.34
136.54
125.87
114.89
105.18
97.96
93.73
92.22
92.56
93.68
94.72
95.24
95.18
94.61
93.69
92.46
90.83
88.62
85.54
81.28
75.62
68.53
60.22
50.94
40.78
29.42
16.16
0.23
-18.75
-40.50
-63.92
-87.36
-108.76
-125.93
-136.76
-139.52
-133.22
-118.03
-95.51
-68.44
-40.22
-14.17
7.28
22.90
32.77
37.86
39.66
39.73
39.38
39.47
40.30
41.72
43.21
44.27
44.50
43.77
42.20
40.04
37.59
35.11
32.74
30.59
28.68
26.96
25.35
23.72
22.00
20.18
18.27
16.21
13.76
10.52
5.97
-0.30
-8.35
-17.68
-27.20
-35.34
-40.38
-40.88
-36.10
-26.27
-12.61
2.99
18.40
31.75
41.80
48.05
50.68
50.25
47.51
43.17
37.92
32.44
27.34
23.28
20.75
20.04
21.14
23.66
26.93
30.13
32.36
32.87
31.09
26.68
19.56
9.88
-1.98
-15.41
-29.58
-43.50
-56.11
-66.57
-74.42
-79.78
-83.33
-86.01
-88.57
-91.03
-92.53
-91.50
-86.18
-75.35
-58.89
-37.95
-14.74
8.06
27.92
42.91
52.03
55.15
52.81
45.95
35.61
22.79
8.45
-6.38
-20.58
-32.83
-41.82
-46.51
-46.42
-41.86
-33.86
-23.94
-13.64
-4.27
3.33
8.75
11.88
12.83
11.80
9.11
5.12
0.19
-5.45
-11.79
-19.04
-27.43
-36.86
-46.65
-55.47
-61.54
-63.16
-59.28
-49.91
-36.22
-20.18
-4.01
10.41
21.91
30.16
35.37
38.00
38.46
37.02
33.86
29.23
23.66
17.89
12.85
9.33
7.73
7.94
9.34
11.04
12.15
12.07
10.62
7.94
4.31
-0.01
-4.87
-10.22
-16.01
-22.09
-28.31
-34.52
-40.64
-46.45
-51.43
-54.61
-54.69
-50.49
-41.48
-28.15
-12.02
4.70
19.83
31.76
39.81
44.08
45.19
43.87
40.70
36.08
30.33
23.89
17.32
11.39
6.87
4.29
3.78
4.93
6.97
8.96
10.04
9.74
7.99
5.06
1.37
-2.64
-6.77
-11.04
-15.66
-20.87
-26.93
-33.89
-41.61
-49.55
-56.77
-61.94
-63.63
-60.65
-52.50
-39.65
-23.57
-6.33
9.91
23.43
33.26
39.21
41.61
41.09
38.29
33.87
28.42
22.59
17.01
12.23
8.65
6.41
5.44
5.54
6.43
7.85
9.50
11.00
11.87
11.57
9.64
5.89
0.54
-5.79
-12.26
-18.12
-22.95
-26.82
-30.25
-34.03
-38.88
-45.15
-52.54
-60.04
-65.99
-68.54
-66.12
-58.12
-45.10
-28.74
-11.36
4.78
18.05
27.73
33.90
37.03
37.63
36.08
32.64
27.69
21.85
15.96
10.98
7.62
6.23
6.58
8.02
9.82
11.31
12.24
12.64
12.81
12.97
13.13
12.98
12.04
9.86
6.25
1.37
-4.38
-10.61
-17.11
-23.97
-31.47
-39.89
-49.29
-59.31
-69.16
-77.56
-82.95
-83.67
-78.42
-66.74
-49.40
-28.47
-6.95
12.06
26.21
34.51
37.47
36.54
33.50
29.73
25.94
22.26
18.64
15.10
11.93
9.56
8.28
8.07
8.59
9.34
9.89
10.02
9.78
9.39
9.10
8.97
8.82
8.18
6.46
3.13
-1.99
-8.63
-16.04
-23.31
-29.73
-35.02
-39.54
-44.05
-49.34
-55.90
-63.67
-71.93
-79.44
-84.65
-86.01
-82.35
-73.24
-59.19
-41.68
-22.81
-4.83
10.43
21.95
29.55
33.66
34.98
34.10
31.40
27.16
21.74
15.74
9.94
5.21
2.17
0.98
1.37
2.72
4.39
5.93
7.06
7.72
7.87
7.39
6.12
3.93
0.81
-3.05
-7.31
-11.62
-15.60
-19.02
-21.77
-23.94
-25.78
-27.73
-30.27
-33.82
-38.58
-44.37
-50.47
-55.70
-58.56
-57.61
-51.91
-41.40
-26.97
-10.31
6.58
21.89
34.36
43.47
49.26
52.05
52.23
50.15
46.18
40.84
34.89
29.20
24.65
21.85
21.01
21.90
23.98
26.58
29.10
31.10
32.33
32.66
32.02
30.30
27.40
23.28
18.06
12.05
5.75
-0.40
-6.10
-11.44
-16.88
-23.09
-30.67
-39.80
-49.97
-59.90
-67.76
-71.61
-69.93
-62.08
-48.52
-30.75
-10.94
8.53
25.54
38.60
46.91
50.42
49.63
45.39
38.69
30.52
21.84
13.56
6.54
1.47
-1.21
-1.53
0.05
2.73
5.67
8.26
10.24
11.59
12.33
12.29
11.06
8.11
3.14
-3.74
-11.92
-20.45
-28.38
-35.05
-40.40
-44.84
-49.15
-54.14
-60.31
-67.66
-75.39
-82.02
-85.54
-84.03
-76.19
-61.94
-42.55
-20.43
1.61
21.04
36.20
46.53
52.37
54.56
53.98
51.35
47.19
41.96
36.27
30.92
26.80
24.64
24.75
26.83
30.17
33.82
36.94
39.10
40.23
40.51
40.13
39.09
37.15
33.92
29.04
22.42
14.39
5.60
-3.11
-11.00
-17.65
-23.07
-27.68
-32.04
-36.76
-42.14
-48.08
-53.96
-58.63
-60.56
-58.24
-50.67
-37.79
-20.70
-1.38
17.70
34.41
47.29
55.80
60.15
60.97
59.01
54.93
49.36
42.86
36.07
29.62
24.14
20.10
17.78
17.14
17.89
19.56
21.58
23.40
24.59
24.78
23.77
21.47
17.96
13.45
8.22
2.57
-3.25
-9.10
-14.94
-20.71
-26.38
-31.87
-37.09
-41.90
-46.32
-50.46
-54.53
-58.94
-64.10
-70.31
-77.44
-84.71
-90.52
-92.82
-89.56
-79.61
-63.18
-42.01
-18.87
3.15
21.61
35.13
43.46
47.16
47.15
44.40
39.80
34.20
28.37
23.00
18.57
15.32
13.29
12.39
12.50
13.48
15.19
17.32
19.43
20.93
21.21
19.74
16.16
10.38
2.57
-6.80
-17.12
-27.64
-37.70
-46.69
-54.13
-59.65
-63.05
-64.28
-63.48
-61.05
-57.62
-54.00
-51.05
-49.57
-50.00
-52.27
-55.62
-58.70
-59.88
-57.76
-51.66
-41.89
-29.61
-16.43
-3.94
6.74
15.06
20.96
24.59
26.07
25.48
22.92
18.74
13.72
9.03
5.97
5.61
8.37
13.84
20.94
28.27
34.67
39.49
42.71
44.56
45.28
44.81
42.84
39.04
33.38
26.28
18.51
10.91
3.94
-2.42
-8.67
-15.52
-23.52
-32.84
-43.11
-53.50
-62.78
-69.56
-72.47
-70.54
-63.30
-51.03
-34.76
-16.06
3.18
21.14
36.34
47.89
55.48
59.29
59.83
57.72
53.59
48.02
41.59
34.94
28.71
23.53
19.85
17.87
17.44
18.20
19.59
21.01
21.88
21.72
20.20
17.19
12.81
7.39
1.48
-4.38
-9.76
-14.50
-18.77
-23.08
-28.05
-34.17
-41.43
-49.07
-55.59
-59.06
-57.73
-50.67
-38.11
-21.54
-3.16
14.68
30.09
42.02
50.20
54.94
56.77
56.22
53.73
49.71
44.58
38.85
33.10
27.95
23.96
21.48
20.59
21.08
22.46
24.08
25.27
25.44
24.25
21.64
17.79
13.09
7.89
2.50
-3.05
-8.88
-15.29
-22.59
-30.96
-40.27
-49.88
-58.59
-64.75
-66.70
-63.16
-53.81
-39.48
-21.94
-3.53
13.56
27.76
38.33
45.30
49.15
50.54
50.03
48.08
45.01
41.09
36.60
31.89
27.37
23.48
20.59
18.91
18.37
18.66
19.28
19.63
19.15
17.41
14.18
9.51
3.60
-3.05
-9.91
-16.45
-22.39
-27.77
-32.96
-38.56
-45.17
-53.04
-61.72
-69.99
-76.02
-77.83
-73.90
-63.78
-48.30
-29.43
-9.67
8.64
23.87
35.35
43.31
48.37
51.25
52.40
52.01
50.16
46.99
42.93
38.69
35.10
32.90
32.46
33.72
36.18
39.09
41.63
43.20
43.40
42.14
39.53
35.77
31.06
25.60
19.58
13.17
6.58
0.03
-6.29
-12.21
-17.60
-22.39
-26.66
-30.58
-34.51
-38.94
-44.38
-51.11
-58.91
-66.85
-73.27
-76.22
-74.01
-65.81
-52.08
-34.43
-15.18
3.31
19.29
31.82
40.75
46.44
49.45
50.35
49.63
47.74
45.11
42.18
39.38
37.13
35.76
35.44
36.12
37.57
39.38
41.20
42.71
43.70
44.02
43.54
42.05
39.42
35.60
30.73
25.13
19.21
13.38
7.95
3.03
-1.44
-5.73
-10.17
-15.06
-20.53
-26.43
-32.32
-37.67
-42.08
-45.46
-48.20
-51.00
-54.73
-60.05
-67.12
-75.41
-83.67
-90.08
-92.66
-89.78
-80.73
-66.01
-47.26
-26.85
-7.26
9.63
22.83
32.27
38.49
42.16
43.83
43.78
42.20
39.35
35.74
32.09
29.20
27.64
27.60
28.83
30.75
32.75
34.38
35.48
36.15
36.53
36.70
36.52
35.72
33.98
31.11
27.12
22.18
16.61
10.74
4.98
-0.28
-4.64
-7.74
-9.29
-9.25
-7.92
-6.03
-4.69
-5.04
-7.94
-13.73
-22.17
-32.55
-43.94
-55.22
-65.10
-72.10
-74.58
-71.26
-61.66
-46.52
-27.73
-7.82
10.80
26.42
38.29
46.37
50.88
51.97
49.77
44.63
37.38
29.41
22.32
17.43
15.38
15.94
18.23
21.20
24.00
26.21
27.88
29.25
30.49
31.50
31.83
30.86
28.00
23.06
16.39
8.89
1.77
-3.94
-7.67
-9.54
-10.17
-10.34
-10.58
-11.03
-11.46
-11.62
-11.48
-11.40
-12.02
-14.02
-17.91
-23.82
-31.43
-39.93
-48.01
-53.97
-56.00
-52.72
-43.68
-29.76
-13.02
3.87
18.44
29.19
35.83
39.05
39.94
39.54
38.55
37.34
36.21
35.43
35.30
35.99
37.44
39.40
41.56
43.74
45.96
48.33
50.90
53.52
55.75
56.91
56.23
53.09
47.25
38.98
29.12
18.86
9.42
1.64
-4.27
-8.75
-12.69
-16.93
-21.92
-27.54
-33.20
-38.24
-42.29
-45.53
-48.66
-52.59
-57.99
-64.95
-72.74
-79.97
-84.93
-86.06
-82.49
-74.24
-62.25
-48.07
-33.44
-19.81
-8.07
1.51
9.09
14.99
19.46
22.51
24.14
24.51
24.12
23.81
24.47
26.76
30.74
35.99
41.72
47.25
52.15
56.33
59.76
62.21
63.23
62.16
58.56
52.42
44.30
35.16
26.08
17.86
10.76
4.54
-1.40
-7.58
-14.20
-20.99
-27.35
-32.64
-36.40
-38.60
-39.53
-39.81
-40.24
-41.67
-44.94
-50.56
-58.40
-67.33
-75.26
-79.55
-77.88
-69.17
-54.11
-35.04
-15.02
3.29
18.50
30.54
40.15
47.92
53.79
57.09
57.05
53.44
46.77
38.17
28.75
19.42
10.79
3.45
-1.89
-4.50
-4.02
-0.77
4.34
10.02
15.09
18.67
20.24
19.50
16.41
11.26
4.74
-2.20
-8.61
-13.92
-18.08
-21.43
-24.39
-27.31
-30.47
-34.25
-39.15
-45.72
-54.20
-64.22
-74.73
-84.09
-90.50
-92.36
-88.59
-78.83
-63.54
-43.94
-21.85
0.51
20.95
37.58
49.08
54.77
54.65
49.23
39.50
26.81
12.74
-1.10
-13.28
-22.77
-29.10
-32.32
-32.85
-31.14
-27.53
-22.24
-15.56
-8.14
-0.98
4.78
8.27
9.29
8.42
6.71
5.20
4.47
4.36
4.10
2.64
-1.05
-7.52
-16.70
-27.79
-39.38
-49.67
-56.93
-59.82
-57.76
-51.06
-40.75
-28.35
-15.47
-3.56
6.36
13.62
17.95
19.41
18.31
15.19
10.72
5.63
0.64
-3.51
-6.24
-7.05
-5.69
-2.15
3.24
9.86
16.81
23.05
27.64
29.84
29.31
26.13
20.83
14.23
7.19
0.42
-5.76
-11.40
-16.90
-22.67
-28.90
-35.37
-41.29
-45.42
-46.34
-42.88
-34.50
-21.65
-5.72
11.34
27.47
41.09
51.34
58.10
61.66
62.45
60.79
56.94
51.21
44.10
36.36
28.87
22.47
17.77
15.04
14.09
14.35
14.95
14.93
13.55
10.44
5.76
0.02
-6.12
-12.12
-17.74
-23.09
-28.51
-34.44
-41.30
-49.31
-58.30
-67.47
-75.32
-79.85
-79.08
-71.77
-57.92
-39.00
-17.59
3.39
21.50
35.26
44.35
49.29
51.04
50.59
48.77
46.18
43.23
40.22
37.36
34.74
32.36
30.14
28.06
26.13
24.49
23.27
22.50
22.00
21.33
19.87
17.02
12.47
6.33
-0.76
-7.83
-13.93
-18.44
-21.45
-23.64
-26.07
-29.78
-35.26
-42.21
-49.43
-55.11
-57.27
-54.39
-45.86
-32.24
-15.18
3.03
20.06
34.10
44.12
49.89
51.70
50.22
46.26
40.79
34.84
29.42
25.35
23.11
22.82
24.28
27.16
31.08
35.60
40.29
44.60
47.94
49.74
49.62
47.42
43.32
37.70
31.09
24.01
16.91
10.12
3.77
-2.13
-7.65
-12.89
-17.92
-22.76
-27.34
-31.55
-35.24
-38.34
-41.00
-43.59
-46.79
-51.25
-57.37
-64.78
-72.28
-77.86
-79.31
-74.99
-64.39
-48.46
-29.27
-9.45
8.68
23.61
34.84
42.69
47.89
51.14
52.95
53.62
53.29
52.18
50.58
48.84
47.31
46.18
45.50
45.13
44.91
44.74
44.64
44.65
44.77
44.86
44.61
43.74
42.05
39.66
36.80
33.84
31.03
28.41
25.90
23.28
20.38
17.12
