1553879429.00
64.000000
-0.00
-0.00
-0.00
-0.00
-0.00
-0.00
-0.00
-0.00
-0.00
-0.00
0.00
0.01
0.01
-0.00
-0.03
-0.05
-0.05
0.00
0.13
0.36
0.66
1.01
1.37
1.72
2.06
2.40
2.79
3.25
3.81
4.43
5.08
5.69
6.25
6.79
7.37
8.08
8.94
10.03
11.20
12.33
13.28
14.03
14.69
15.48
16.66
18.38
20.80
23.69
26.71
29.56
32.10
34.49
37.11
40.44
44.76
50.37
56.80
63.43
69.67
75.29
80.55
86.15
92.92
101.31
111.64
123.04
134.45
144.93
154.14
162.59
171.39
182.17
193.55
207.29
223.30
241.10
259.36
275.58
286.25
287.62
276.81
252.80
217.18
172.67
122.66
70.14
17.23
-34.77
-84.84
-132.06
-175.64
-214.92
-250.26
-282.98
-315.06
-348.44
-383.87
-419.76
-451.51
-472.39
-475.57
-457.45
-419.28
-367.26
-310.33
-256.73
-211.77
-176.99
-151.38
-133.19
-121.52
-116.09
-116.27
-119.99
-123.76
-123.87
-117.95
-106.03
-90.21
-73.74
-59.33
-48.21
-40.13
-34.27
-30.20
-28.33
-29.55
-34.24
-41.36
-48.34
-51.81
-48.97
-38.83
-22.71
-3.69
14.61
29.30
39.09
44.24
46.13
46.41
46.45
47.04
48.58
51.34
55.58
61.53
69.10
77.64
85.96
92.65
96.87
98.57
98.63
98.29
98.34
98.58
98.01
95.74
91.84
87.71
85.33
85.96
89.15
92.62
93.41
89.49
81.00
70.18
60.19
53.43
50.30
49.16
47.35
42.85
35.42
26.83
19.84
16.50
16.69
17.74
15.41
5.59
-13.48
-40.56
-72.00
-103.26
-130.84
-153.26
-170.77
-184.25
-194.11
-199.70
-199.75
-193.28
-180.26
-161.88
-140.05
-116.67
-92.99
-69.43
-45.78
-21.76
2.49
26.23
48.24
67.23
82.33
93.33
100.72
105.39
108.27
109.96
110.68
110.28
108.53
105.30
100.76
95.29
89.42
83.58
78.05
72.87
67.93
63.05
58.16
53.24
48.40
43.77
39.46
35.53
31.95
28.67
25.62
22.74
20.03
17.47
15.09
12.89
10.89
9.06
7.41
5.92
4.59
3.40
2.35
1.43
0.63
-0.05
-0.62
-1.07
-1.42
-1.68
-1.87
-1.99
-2.07
-2.09
-2.09
-2.05
-1.99
-1.92
-1.84
-1.76
-1.67
-1.58
-1.48
-1.40
-1.31
-1.23
-1.15
-1.08
-1.01
-0.95
-0.90
-0.84
-0.79
-0.76
-0.72
-0.68
-0.63
-0.57
-0.50
-0.46
-0.47
-0.56
-0.72
-0.90
-1.07
-1.16
-1.16
-1.09
-1.00
-0.96
-1.00
-1.13
-1.30
-1.44
-1.49
-1.43
-1.29
-1.16
-1.17
-1.40
-1.83
-2.36
-2.80
-3.01
-2.91
-2.62
-2.38
-2.48
-3.12
-4.27
-5.66
-6.84
-7.42
-7.26
-6.58
-5.95
-6.00
-7.17
-9.40
-12.16
-14.56
-15.84
-15.73
-14.61
-13.46
-13.37
-15.07
-18.51
-22.83
-26.66
-29.00
-29.36
-28.18
-26.49
-25.46
-25.98
-28.68
-33.94
-41.57
-50.23
-56.98
-57.69
-48.57
-28.32
0.59
32.24
59.50
76.90
82.98
79.66
71.02
60.85
51.06
41.60
31.73
21.24
11.16
3.16
-1.42
-2.29
-0.23
3.41
7.22
10.53
13.39
16.38
20.12
24.96
30.75
36.76
41.90
45.06
45.53
43.17
38.56
32.76
27.20
23.19
21.52
22.14
24.27
26.74
28.54
29.35
29.45
29.75
31.20
34.34
39.22
45.80
54.07
63.52
72.82
78.96
78.00
66.58
43.65
11.50
-24.36
-57.25
-81.32
-92.73
-92.91
-85.96
-76.17
-66.35
-57.83
-51.28
-48.21
-51.69
-62.65
-79.98
-99.19
-113.37
-115.48
-101.45
-72.01
-31.21
10.15
43.21
63.34
70.66
68.22
60.94
51.26
41.11
31.80
24.39
20.75
22.22
29.25
41.17
56.50
72.94
87.20
94.75
91.13
74.92
48.05
15.17
-18.40
-49.12
-74.13
-88.43
-89.79
-80.48
-65.12
-47.92
-31.14
-15.50
-1.23
11.29
21.56
28.71
32.02
32.30
31.17
30.16
30.15
31.26
33.18
35.18
35.27
32.06
25.23
15.29
3.20
-9.96
-23.20
-35.72
-47.29
-55.06
-60.90
-66.46
-72.44
-78.62
-84.13
-87.77
-88.73
-86.82
-82.89
-78.88
-76.06
-75.23
-76.81
-81.11
-87.92
-95.93
-102.10
-102.08
-92.05
-70.09
-38.12
-1.83
31.42
55.63
68.49
71.74
69.48
65.43
61.67
58.21
54.19
49.22
44.05
40.08
38.39
38.85
40.16
40.75
39.33
35.71
30.71
25.74
22.13
20.54
20.72
21.68
22.23
21.51
19.31
16.13
12.85
10.35
9.11
9.09
9.80
10.51
10.64
9.90
8.40
6.56
4.93
4.01
4.05
4.98
6.42
7.79
8.53
8.31
7.20
5.69
4.61
4.68
6.29
9.14
12.42
14.98
15.98
15.21
13.35
11.76
11.79
14.23
18.74
23.99
28.19
30.06
29.30
26.89
24.53
23.87
25.80
30.36
37.00
44.85
52.36
57.03
55.60
45.21
25.27
-1.31
-28.34
-48.58
-56.99
-53.21
-41.71
-29.52
-22.73
-23.90
-31.62
-42.30
-52.64
-61.28
-68.75
-76.09
-83.39
-89.43
-92.30
-90.67
-84.88
-76.85
-69.22
-63.93
-61.29
-59.85
-57.39
-51.29
-40.19
-24.61
-6.85
9.83
22.45
29.46
31.38
30.44
29.54
30.71
34.26
38.85
42.54
43.99
43.22
41.44
40.09
39.79
39.83
38.70
34.92
27.83
17.84
6.22
-5.41
-15.60
-23.38
-28.45
-31.29
-32.97
-34.68
-37.16
-40.14
-42.23
-41.50
-36.27
-25.93
-11.24
6.18
24.72
43.54
62.73
82.95
104.72
127.87
151.40
173.71
193.10
208.33
218.89
225.00
227.46
227.24
225.23
222.12
218.33
214.19
210.07
206.22
202.49
197.93
190.79
178.62
160.19
136.03
108.32
79.83
52.15
24.40
-6.82
-45.94
-96.31
-158.63
-230.76
-308.57
-386.99
-460.64
-523.95
-571.36
-598.23
-602.27
-584.62
-550.01
-505.17
-456.35
-407.43
-359.48
-311.86
-264.02
-216.47
-170.57
-127.36
-86.43
-45.78
-2.78
44.27
94.94
146.54
195.02
236.55
268.92
292.14
308.14
319.68
329.11
337.47
344.28
348.07
347.30
341.26
330.43
316.23
300.19
283.31
265.68
246.65
225.25
200.72
172.74
141.65
108.55
75.67
46.50
25.15
14.83
15.95
24.78
33.80
33.95
17.82
-17.54
-69.39
-130.39
-191.07
-242.85
-280.16
-301.10
-306.93
-300.60
-285.46
-264.43
-239.65
-212.58
-184.11
-154.83
-125.37
-96.65
-70.07
-47.37
-30.21
-19.53
-14.96
-14.83
-16.73
-18.39
-18.53
-17.07
-14.57
-11.52
-7.90
-3.34
2.19
7.87
12.14
13.34
10.56
4.13
-4.64
-14.08
-22.99
-31.07
-38.91
-47.50
-57.70
-69.75
-83.19
-96.95
-109.64
-119.81
-126.25
-128.26
-125.72
-119.17
-109.57
-98.00
-85.28
-71.74
-57.31
-41.87
-25.75
-10.23
2.61
10.36
11.26
5.07
-6.67
-20.93
-34.14
-43.34
-46.98
-45.21
-39.45
-31.80
-24.22
-18.06
-13.88
-11.45
-9.84
-7.74
-3.91
2.27
10.36
18.87
25.78
29.33
28.69
24.06
16.32
6.49
-4.44
-15.27
-24.11
-28.16
-24.31
-10.26
14.23
47.01
83.99
120.44
152.23
176.44
191.52
197.09
194.07
184.74
172.78
162.37
156.85
157.18
161.37
165.26
164.41
156.23
140.97
121.28
100.56
81.22
63.94
48.07
32.74
17.82
4.05
-7.61
-16.98
-25.03
-33.63
-44.55
-58.57
-75.02
-91.96
-106.93
-117.61
-122.34
-120.22
-111.14
-95.71
-75.20
-51.38
-26.41
-2.43
18.72
35.79
48.17
55.91
59.61
60.27
59.09
57.17
55.21
53.40
51.49
49.18
46.50
43.96
42.26
41.88
42.70
44.01
44.95
44.88
43.73
41.89
39.92
38.20
36.79
35.34
33.34
30.12
25.08
18.00
9.34
0.43
-6.73
-10.09
-8.53
-2.45
6.16
14.41
19.63
20.28
16.28
8.70
-0.96
-11.59
-22.70
-34.33
-46.62
-59.44
-72.34
-84.61
-95.46
-104.12
-109.90
-112.26
-111.12
-107.12
-101.61
-96.31
-92.56
-90.79
-90.32
-89.84
-88.14
-84.86
-80.58
-76.44
-73.45
-71.88
-71.15
-70.06
-67.21
-61.41
-51.83
-38.06
-20.14
1.35
25.28
50.00
73.55
93.99
109.73
119.86
124.33
123.87
119.75
113.55
106.93
101.52
98.87
100.10
105.53
114.13
123.52
130.40
131.77
126.13
114.24
98.85
83.42
70.73
61.76
55.77
51.04
46.00
39.91
32.93
25.76
19.12
13.54
9.37
6.88
6.32
7.74
10.92
15.35
20.27
24.86
28.31
29.84
28.83
24.97
18.40
9.81
0.19
-9.47
-18.55
-26.96
-34.97
-42.93
-50.89
-58.60
-65.63
-71.75
-77.04
-81.98
-87.23
-93.31
-100.45
-108.47
-116.89
-125.12
-132.55
-138.86
-143.97
-147.91
-150.62
-151.56
-149.72
-143.79
-132.63
-115.89
-94.24
-69.31
-43.15
-17.70
5.69
26.32
43.96
58.60
70.30
79.16
85.38
89.26
91.11
91.02
88.86
84.35
77.24
67.63
56.16
43.94
32.36
22.61
15.36
10.50
7.26
4.49
1.00
-4.06
-11.04
-19.69
-29.16
-37.99
-44.25
-45.86
-41.12
-29.30
-11.03
11.75
36.29
59.91
80.74
98.09
112.18
123.54
132.41
138.49
141.08
139.58
133.98
125.03
114.10
102.73
92.21
83.30
76.14
70.41
65.57
61.02
56.25
50.87
44.58
37.24
28.75
19.13
8.52
-2.88
-14.83
-27.11
-39.43
-51.39
-62.25
-70.89
-75.96
-76.25
-71.16
-61.08
-47.41
-32.16
-17.36
-4.42
6.05
14.09
20.00
23.93
25.77
25.38
22.90
18.88
14.26
10.01
6.81
4.78
3.56
2.56
1.27
-0.50
-2.62
-4.76
-6.61
-8.08
-9.30
-10.68
-12.70
-15.90
-20.73
-27.45
-36.00
-45.74
-55.35
-62.97
-66.68
-65.02
-57.53
-44.97
-29.07
-11.99
4.27
18.27
29.21
36.84
41.17
42.34
40.60
36.38
30.41
23.59
16.90
11.14
6.72
3.57
1.25
-0.82
-3.03
-5.45
-7.81
-9.72
-10.90
-11.47
-11.90
-12.94
-15.34
-19.66
-26.11
-34.45
-43.92
-53.25
-60.74
-64.57
-63.33
-56.48
-44.60
-29.33
-12.84
2.81
16.18
26.61
34.10
38.85
41.00
40.61
37.76
32.84
26.62
20.15
14.39
9.93
6.76
4.41
2.27
-0.08
-2.64
-5.16
-7.27
-8.85
-10.05
-11.35
-13.36
-16.68
-21.79
-28.96
-38.11
-48.57
-58.94
-67.19
-71.17
-69.19
-60.76
-46.82
-29.48
-11.36
5.21
18.86
29.19
36.57
41.54
44.41
45.17
43.67
39.96
34.51
28.20
22.11
17.07
13.45
11.03
9.17
7.19
4.65
1.55
-1.79
-4.96
-7.70
-10.07
-12.47
-15.44
-19.60
-25.46
-33.28
-42.95
-53.75
-64.29
-72.57
-76.50
-74.52
-66.20
-52.45
-35.27
-17.08
-0.01
14.55
26.03
34.46
40.14
43.32
44.23
43.09
40.25
36.17
31.44
26.60
22.15
18.41
15.55
13.53
12.15
11.04
9.83
8.23
6.08
3.45
0.46
-2.76
-6.19
-9.98
-14.47
-20.07
-27.17
-35.89
-45.86
-55.99
-64.52
-69.37
-68.69
-61.56
-48.40
-30.89
-11.54
7.11
23.14
35.59
44.32
49.68
52.19
52.34
50.55
47.30
43.06
38.36
33.63
29.18
25.16
21.63
18.61
16.15
14.29
13.01
12.13
11.31
10.04
7.82
4.33
-0.41
-6.04
-11.94
-17.50
-22.38
-26.65
-30.87
-35.90
-42.59
-51.30
-61.56
-71.85
-79.91
-83.31
-80.25
-70.22
-54.30
-34.82
-14.70
3.40
17.72
27.65
33.44
35.83
35.59
33.30
29.40
24.32
18.72
13.36
8.93
5.78
3.77
2.34
0.85
-1.07
-3.31
-5.42
-6.79
-7.12
-6.56
-5.67
-5.25
-6.03
-8.50
-12.83
-18.83
-26.05
-33.89
-41.71
-49.08
-55.88
-62.43
-69.30
-76.97
-85.41
-93.69
-100.04
-102.35
-98.89
-88.95
-73.20
-53.47
-32.11
-11.34
7.40
23.46
36.87
47.81
56.34
62.28
65.44
65.89
64.22
61.50
58.99
57.70
58.00
59.54
61.55
63.26
64.33
65.04
65.97
67.60
69.85
71.87
72.42
70.31
65.02
57.02
47.58
38.36
30.70
25.15
21.36
18.27
14.51
8.86
0.61
-10.24
-22.71
-34.88
-44.22
-48.18
-45.19
-35.32
-20.37
-3.34
12.73
25.81
35.36
42.03
46.85
50.44
52.62
52.64
49.79
44.00
35.98
27.04
18.51
11.20
5.16
-0.18
-5.64
-11.81
-18.70
-25.80
-32.33
-37.69
-41.70
-44.60
-46.81
-48.64
-50.19
-51.37
-52.12
-52.55
-52.99
-53.90
-55.74
-58.68
-62.47
-66.27
-68.75
-68.35
-63.71
-54.07
-39.63
-21.57
-1.84
17.37
34.08
46.96
55.57
60.29
62.08
62.10
61.25
59.99
58.26
55.86
52.71
49.11
45.69
43.12
41.67
41.11
40.76
39.86
37.92
34.91
31.25
27.40
23.59
19.54
14.60
7.96
-0.87
-11.83
-24.17
-36.73
-48.19
-57.46
-63.75
-66.62
-65.86
-61.52
-53.92
-43.85
-32.49
-21.21
-11.23
-3.25
2.64
6.77
9.52
11.10
11.33
9.94
6.81
2.26
-3.01
-7.99
-11.78
-13.75
-13.80
-12.23
-9.71
-7.00
-4.80
-3.60
-3.72
-5.26
-8.23
-12.61
-18.37
-25.49
-33.85
-43.15
-52.79
-61.80
-68.93
-72.80
-72.30
-66.90
-56.90
-43.42
-28.15
-12.92
0.77
11.99
20.43
26.21
29.60
30.86
30.10
27.49
23.36
18.31
13.18
8.81
5.72
3.99
3.23
2.84
2.29
1.34
0.05
-1.36
-2.70
-3.97
-5.38
-7.19
-9.70
-13.21
-17.99
-24.22
-31.80
-40.12
-47.90
-53.42
-54.94
-51.29
-42.33
-29.09
-13.44
2.47
16.81
28.48
37.11
42.94
46.42
47.93
47.79
46.19
43.39
39.76
35.75
31.77
28.18
25.12
22.60
20.43
18.41
16.34
14.12
11.81
9.53
7.39
5.38
3.27
0.64
-2.99
-8.02
-14.68
-22.88
-32.14
-41.52
-49.64
-54.91
-55.85
-51.63
-42.35
-29.19
-14.07
0.88
13.93
24.08
31.11
35.35
37.33
37.53
36.24
33.68
30.13
25.97
21.76
17.98
14.99
12.86
11.44
10.35
9.26
7.92
6.28
4.46
2.66
1.01
-0.52
-2.18
-4.39
-7.58
-12.14
-18.23
-25.73
-34.14
-42.50
-49.42
-53.31
-52.78
-47.09
-36.54
-22.43
-6.75
8.40
21.39
31.37
38.19
42.19
43.83
43.52
41.50
38.02
33.38
28.04
22.61
17.68
13.66
10.68
8.56
6.96
5.52
4.04
2.49
0.97
-0.43
-1.74
-3.19
-5.11
-7.92
-12.01
-17.66
-24.90
-33.34
-42.09
-49.70
-54.45
-54.74
-49.64
-39.23
-24.67
-7.95
8.67
23.25
34.55
42.18
46.39
47.79
47.03
44.63
41.00
36.54
31.70
27.01
22.95
19.84
17.69
16.21
14.96
13.50
11.58
9.23
6.65
4.07
1.61
-0.84
-3.54
-6.83
-11.05
-16.43
-23.08
-30.86
-39.31
-47.47
-53.97
-57.23
-55.96
-49.57
-38.50
-24.14
-8.42
6.69
19.72
29.89
37.10
41.60
43.80
44.04
42.60
39.77
35.90
31.48
27.00
22.94
19.60
17.06
15.20
13.74
12.38
10.91
9.32
7.62
5.90
4.11
2.12
-0.29
-3.30
-7.03
-11.59
-17.12
-23.74
-31.40
-39.63
-47.39
-53.16
-55.29
-52.55
-44.59
-32.11
-16.73
-0.54
14.47
26.83
35.79
41.30
43.78
43.87
42.26
39.50
36.07
32.31
28.48
24.78
21.36
18.32
15.75
13.67
12.08
10.87
9.83
8.77
7.45
5.72
3.55
0.95
-1.99
-5.20
-8.60
-12.22
-16.18
-20.71
-26.08
-32.35
-39.16
-45.55
-50.15
-51.45
-48.31
-40.45
-28.52
-14.06
1.04
14.93
26.32
34.59
39.72
42.09
42.20
40.57
37.66
33.95
29.87
25.84
22.20
19.14
16.73
14.94
13.76
13.14
13.03
13.24
13.50
13.39
12.58
10.87
8.24
4.91
1.16
-2.72
-6.53
-10.22
-13.87
-17.73
-22.10
-27.27
-33.22
-39.49
-45.11
-48.71
-48.96
-44.97
-36.67
-24.91
-11.25
2.50
14.74
24.43
31.14
34.97
36.29
35.55
33.25
29.87
25.90
21.84
18.12
15.05
12.74
11.12
10.05
9.41
9.12
9.17
9.53
10.04
10.40
10.20
9.09
6.93
3.85
0.21
-3.57
-7.11
-10.29
-13.24
-16.33
-20.02
-24.64
-30.19
-36.19
-41.66
-45.30
-45.86
-42.56
-35.36
-25.01
-12.90
-0.61
10.44
19.29
25.48
29.02
30.20
29.43
27.19
23.96
20.25
16.52
13.18
10.47
8.49
7.22
6.55
6.41
6.73
7.40
8.23
8.91
9.06
8.33
6.53
3.69
0.11
-3.78
-7.57
-11.00
-14.04
-16.93
-20.09
-23.99
-28.93
-34.73
-40.67
-45.53
-47.85
-46.42
-40.70
-31.08
-18.83
-5.68
6.67
16.97
24.60
29.54
32.07
32.56
31.39
28.94
25.68
22.12
18.75
15.93
13.75
12.08
10.71
9.52
8.58
8.09
8.17
8.75
9.43
9.64
8.79
6.61
3.19
-1.01
-5.40
-9.49
-13.06
-16.20
-19.27
-22.77
-27.17
-32.73
-39.32
-46.27
-52.41
-56.28
-56.50
-52.26
-43.63
-31.58
-17.76
-3.99
8.18
17.82
24.63
28.77
30.69
30.83
29.61
27.38
24.51
21.41
18.49
16.08
14.31
13.13
12.37
11.80
11.29
10.79
10.34
9.93
9.43
8.57
7.01
4.51
1.05
-3.12
-7.51
-11.64
-15.18
-18.14
-20.87
-23.91
-27.80
-32.82
-38.82
-45.10
-50.49
-53.56
-53.00
-48.05
-38.81
-26.34
-12.37
1.18
12.73
21.43
27.15
30.24
31.23
30.51
28.43
25.33
21.70
18.13
15.15
13.01
11.60
10.52
9.38
7.98
6.46
5.16
4.36
4.03
3.83
3.11
1.30
-1.92
-6.47
-11.88
-17.58
-23.03
-27.99
-32.52
-36.96
-41.76
-47.37
-54.08
-61.89
-70.37
-78.60
-85.28
-89.01
-88.76
-84.27
-76.26
-66.22
-56.10
-47.62
-41.94
-39.49
-40.10
-43.28
-48.45
-55.01
-62.32
-69.62
-76.04
-80.71
-82.88
-82.10
-78.17
-71.07
-60.88
-47.67
-31.59
-12.99
7.41
28.51
48.88
67.11
82.04
93.06
100.13
103.71
104.46
103.06
99.97
95.33
89.07
80.98
71.03
59.51
47.24
35.46
25.72
19.44
17.51
20.11
26.55
35.47
45.15
53.93
60.48
64.11
64.68
62.59
58.51
53.14
47.11
40.91
34.91
29.41
24.67
20.88
18.10
16.27
15.23
14.77
14.66
14.72
14.69
14.30
13.28
11.41
8.69
5.30
1.57
-2.18
-5.75
-9.19
-12.76
-16.88
-21.94
-28.12
-35.17
-42.29
-48.17
-51.26
-50.28
-44.61
-34.69
-21.93
-8.28
4.29
14.38
21.43
25.62
27.51
27.72
26.69
24.59
21.53
17.73
13.60
9.76
6.80
5.12
4.76
5.42
6.53
7.52
7.90
7.45
6.11
3.98
1.24
-1.94
-5.32
-8.72
-12.02
-15.30
-18.83
-23.09
-28.48
-35.05
-42.23
-48.79
-53.05
-53.41
-48.95
-39.74
-26.96
-12.48
1.69
13.94
23.36
29.76
33.44
34.79
34.14
31.71
27.77
22.75
17.36
12.40
8.59
6.29
5.45
5.62
6.19
6.60
6.47
5.70
4.35
2.60
0.62
-1.53
-3.88
-6.59
-9.90
-14.10
-19.45
-26.03
-33.59
-41.42
-48.31
-52.81
-53.53
-49.63
-41.15
-29.09
-15.16
-1.31
10.78
20.14
26.51
30.21
31.77
31.65
30.11
27.26
23.35
18.80
14.32
10.67
8.38
7.55
7.85
8.61
9.18
9.12
8.34
7.00
5.38
3.63
1.70
-0.61
-3.58
-7.49
-12.54
-18.83
-26.30
-34.53
-42.70
-49.51
-53.40
-53.02
-47.67
-37.65
-24.26
-9.43
4.86
17.08
26.46
32.90
36.73
38.36
38.16
36.41
33.47
29.79
25.98
22.61
20.11
18.58
17.87
17.57
17.25
16.54
15.25
13.38
11.09
8.63
6.20
3.84
1.43
-1.37
-4.98
-9.83
-16.20
-24.04
-32.91
-41.84
-49.40
-53.88
-53.79
-48.30
-37.65
-23.18
-7.01
8.57
21.77
31.63
38.10
41.72
43.24
43.27
42.24
40.40
37.95
35.15
32.31
29.69
27.48
25.71
24.36
23.38
22.67
22.11
21.47
20.41
18.59
15.77
11.93
7.30
2.34
-2.50
-6.92
-10.91
-14.83
-19.25
-24.75
-31.63
-39.61
-47.69
-54.19
-57.22
-55.22
-47.64
-35.21
-19.76
-3.69
10.85
22.52
30.99
36.63
40.12
41.97
42.39
41.48
39.42
36.64
33.79
31.48
30.08
29.52
29.43
29.32
28.84
27.95
26.91
26.05
25.56
25.31
24.83
23.45
20.67
16.35
10.85
4.88
-0.81
-5.67
-9.64
-13.03
-16.47
-20.63
-26.01
-32.77
-40.60
-48.61
-55.43
-59.41
-59.06
-53.57
-43.12
-29.01
-13.24
2.05
15.17
25.24
32.12
36.22
38.06
38.11
36.78
34.44
31.60
28.80
26.59
25.31
24.99
25.36
26.02
26.52
26.60
26.23
25.59
24.96
24.55
24.31
23.94
22.92
20.75
17.18
12.34
6.78
1.23
-3.66
-7.53
-10.45
-12.84
-15.33
-18.55
-22.98
-28.80
-35.71
-42.87
-48.94
-52.35
-51.72
-46.37
-36.61
-23.72
-9.56
3.98
15.46
24.19
30.08
33.40
34.52
33.79
31.54
28.23
24.46
20.92
18.18
16.55
15.97
16.09
16.44
16.68
16.72
16.67
16.72
16.89
16.99
16.56
15.13
12.37
8.35
3.47
-1.59
-6.19
-9.89
-12.66
-14.84
-17.07
-20.09
-24.49
-30.46
-37.61
-44.85
-50.63
-53.27
-51.52
-44.99
-34.35
-21.11
-7.20
5.65
16.30
24.25
29.56
32.50
33.42
32.62
30.42
27.27
23.74
20.41
17.74
15.98
15.04
14.65
14.46
14.25
14.02
13.92
14.12
14.58
15.00
14.82
13.48
10.65
6.44
1.36
-3.85
-8.52
-12.30
-15.24
-17.82
-20.76
-24.74
-30.23
-37.16
-44.89
-52.16
-57.37
-59.01
-56.12
-48.60
-37.28
-23.73
-9.77
3.02
13.56
21.47
26.82
30.00
31.40
31.34
30.09
27.94
25.31
22.69
20.56
19.18
18.54
18.34
18.18
17.76
17.07
16.32
15.78
15.57
15.48
15.00
13.57
10.86
6.93
2.25
-2.49
-6.69
-10.06
-12.77
-15.29
-18.29
-22.33
-27.76
-34.43
-41.76
-48.62
-53.58
-55.23
-52.59
-45.45
-34.56
-21.40
-7.80
4.53
14.48
21.58
25.96
28.10
28.50
27.59
25.70
23.11
20.16
17.25
14.76
12.94
11.82
11.22
10.89
10.67
10.55
10.64
11.05
11.72
12.34
12.45
11.57
9.42
6.10
2.03
-2.15
-5.82
-8.66
-10.71
-12.42
-14.52
-17.73
-22.48
-28.73
-35.83
-42.55
-47.35
-48.76
-45.87
-38.60
-27.85
-15.22
-2.53
8.64
17.31
23.16
26.38
27.41
26.79
24.95
22.33
19.35
16.46
14.02
12.27
11.27
10.89
10.88
11.03
11.21
11.43
11.77
12.15
12.35
11.93
10.47
7.76
3.98
-0.39
-4.69
-8.42
-11.40
-13.87
-16.32
-19.33
-23.39
-28.62
-34.70
-40.79
-45.64
-47.83
-46.22
-40.37
-30.74
-18.63
-5.79
6.04
15.56
22.14
25.72
26.68
25.63
23.20
20.00
16.56
13.31
10.52
8.34
6.82
5.93
5.64
5.88
6.54
7.45
8.38
9.02
9.05
8.18
6.27
3.41
-0.09
-3.84
-7.47
-10.82
-14.06
-17.64
-22.12
-27.95
-35.15
-43.16
-50.78
-56.46
-58.65
-56.32
-49.33
-38.52
-25.47
-12.06
0.03
9.76
16.73
21.16
23.50
24.28
23.92
22.74
20.99
18.97
16.98
15.31
14.23
13.86
14.17
14.93
15.71
15.99
15.28
13.32
10.16
6.18
1.90
-2.18
-5.78
-8.83
-11.45
-13.89
-16.42
-19.43
-23.32
-28.45
-34.83
-41.91
-48.48
-52.91
-53.65
-49.81
-41.50
-29.83
-16.61
-3.75
7.28
15.67
21.35
24.70
26.32
26.74
26.35
25.36
23.92
22.16
20.23
18.36
16.77
15.65
15.07
14.97
15.13
15.29
15.13
14.42
13.02
10.93
8.26
5.21
1.97
-1.29
-4.50
-7.72
-11.17
-15.23
-20.29
-26.54
-33.68
-40.79
-46.41
-48.90
-47.03
-40.41
-29.77
-16.74
-3.38
8.50
17.77
24.09
27.80
29.52
29.87
29.25
27.95
26.17
24.15
22.17
20.47
19.20
18.41
18.01
17.91
17.99
18.13
18.17
17.92
17.16
15.73
13.59
10.82
7.56
4.00
0.26
-3.61
-7.68
-12.13
-17.23
-23.18
-29.90
-36.84
-42.88
-46.49
-46.25
-41.33
-32.00
-19.61
-6.23
6.04
15.70
22.16
25.70
27.04
26.97
25.98
24.31
22.02
19.21
16.12
13.12
10.60
8.89
8.13
8.27
9.05
10.05
10.82
10.94
10.20
8.56
6.21
3.41
0.39
-2.73
-5.96
-9.42
-13.28
-17.75
-22.99
-28.98
-35.37
-41.38
-45.76
-47.13
-44.40
-37.26
-26.37
-13.28
0.05
11.82
20.88
26.86
30.07
31.11
30.60
28.99
26.55
23.51
20.13
16.75
13.77
11.49
10.05
9.35
9.16
9.12
8.87
8.13
6.74
4.73
2.23
-0.47
-3.15
-5.70
-8.25
-11.09
-14.65
-19.25
-25.03
-31.74
-38.72
-44.93
-49.03
-49.74
-46.19
-38.25
-26.70
-13.13
0.53
12.52
21.72
27.76
30.94
31.93
31.40
29.90
27.77
25.27
22.59
19.94
17.54
15.55
14.07
13.08
12.52
12.25
12.10
11.89
11.42
10.53
9.12
7.17
4.80
2.14
-0.67
-3.60
-6.82
-10.68
-15.58
-21.82
-29.29
-37.27
-44.48
-49.24
-50.00
-45.88
-37.02
-24.65
-10.77
2.50
13.52
21.48
26.42
28.96
29.93
29.97
29.46
28.49
27.10
25.29
23.21
21.02
18.94
17.10
15.61
14.51
13.80
13.45
13.36
13.31
13.01
12.14
10.48
7.96
4.73
1.06
-2.80
-6.77
-10.98
-15.70
-21.25
-27.69
-34.65
-41.25
-46.15
-47.95
-45.59
-38.82
-28.32
-15.57
-2.37
9.59
19.20
26.06
30.31
32.44
32.97
32.36
30.98
29.18
27.28
25.54
24.10
22.95
21.97
21.00
20.02
19.13
18.53
18.33
18.42
18.43
17.82
16.15
13.30
9.50
5.31
1.28
-2.24
-5.24
-8.02
-11.10
-14.99
-20.04
-26.28
-33.26
-39.95
-44.88
-46.47
-43.57
-35.90
-24.32
-10.58
3.15
15.00
23.83
29.39
32.06
32.51
31.38
29.19
26.36
23.30
20.44
18.09
16.37
15.21
14.37
13.65
12.98
12.40
12.01
11.82
11.65
11.19
10.12
8.23
5.52
2.20
-1.45
-5.18
-8.85
-12.50
-16.34
-20.69
-25.87
-32.00
-38.75
-45.22
-50.03
-51.65
-48.94
-41.62
-30.49
-17.21
-3.79
8.02
17.15
23.36
26.98
28.59
28.70
27.64
25.58
22.73
19.36
15.88
12.76
10.38
8.97
8.55
8.88
9.63
10.41
10.88
10.83
10.14
8.81
6.86
4.38
1.47
-1.76
-5.23
-8.94
-12.98
-17.57
-22.94
-29.11
-35.68
-41.77
-46.08
-47.28
-44.45
-37.46
-27.10
-14.88
-2.60
8.20
16.55
22.20
25.42
26.76
26.76
25.83
24.22
22.07
19.56
16.90
14.40
12.36
11.02
10.41
10.38
10.57
10.56
10.00
8.68
6.65
4.06
1.19
-1.77
-4.69
-7.56
-10.48
-13.66
-17.41
-22.10
-27.97
-34.87
-42.04
-48.17
-51.61
-50.94
-45.53
-35.86
-23.41
-10.19
1.88
11.55
18.31
22.36
24.22
24.48
23.63
22.10
20.25
18.40
16.78
15.50
14.53
13.75
13.08
12.45
11.91
11.45
11.03
10.48
9.62
8.25
6.31
3.81
0.87
-2.37
-5.84
-9.55
-13.59
-18.12
-23.30
-29.14
-35.34
-41.19
-45.58
-47.29
-45.35
-39.42
-30.06
-18.52
-6.50
4.37
12.94
18.66
21.63
22.43
21.84
20.69
19.64
19.02
18.82
18.72
18.34
17.40
15.92
14.18
12.66
11.78
11.83
12.96
15.16
18.24
21.72
24.73
26.08
24.57
19.58
11.44
1.43
-8.74
-17.61
-24.67
-30.33
-35.43
-40.39
-44.68
-46.82
-45.12
-38.56
-27.51
-13.58
0.91
13.87
24.10
31.35
35.95
38.24
38.19
35.53
30.14
22.56
14.05
6.31
0.83
-1.67
-1.39
0.72
3.46
5.89
7.46
8.04
7.66
6.40
4.31
1.53
-1.64
-4.84
-7.72
-10.05
-11.88
-13.49
-15.37
-18.08
-22.15
-27.78
-34.65
-41.75
-47.56
-50.34
-48.75
-42.33
-31.72
-18.55
-4.91
7.28
16.73
22.99
26.32
27.37
26.87
25.44
23.47
21.22
18.84
16.48
14.30
12.49
11.22
10.60
10.57
10.92
11.29
11.28
10.59
9.14
7.03
4.51
1.78
-1.01
-3.84
-6.74
-9.82
-13.23
-17.16
-21.88
-27.50
-33.81
-40.04
-44.97
-47.14
-45.43
-39.45
-29.79
-17.87
-5.51
5.65
14.52
20.71
24.41
26.12
26.34
25.49
23.79
21.45
18.64
15.62
12.67
10.13
8.29
7.33
7.30
8.04
9.26
10.52
11.37
11.46
10.57
8.68
5.94
2.58
-1.07
-4.77
-8.43
-12.19
-16.38
-21.42
-27.51
-34.37
-41.11
-46.33
-48.53
-46.57
-40.15
-29.95
-17.47
-4.56
7.07
16.25
22.56
26.18
27.64
27.57
26.48
24.77
22.69
20.45
18.25
16.28
14.71
13.64
13.12
13.09
13.37
13.70
13.78
13.31
12.13
10.21
7.67
4.76
1.71
-1.32
-4.31
-7.33
-10.60
-14.43
-19.15
-24.96
-31.74
-38.81
-44.96
-48.64
-48.46
-43.67
-34.54
-22.36
-9.04
3.43
13.57
20.70
24.92
26.78
27.01
26.26
24.97
23.48
21.97
20.58
19.34
18.24
17.18
16.12
15.06
14.09
13.26
12.61
12.06
11.42
10.47
8.98
6.86
4.14
0.98
-2.35
-5.63
-8.79
-12.01
-15.73
-20.50
-26.74
-34.38
-42.68
-50.21
-55.20
-56.05
-51.85
-42.75
-29.97
-15.42
-1.16
11.09
20.38
26.46
29.68
30.64
29.95
28.09
25.41
22.24
18.91
15.84
13.35
11.69
10.85
10.68
10.91
11.28
11.57
11.61
11.21
10.15
8.19
5.22
1.39
-2.93
-7.19
-10.93
-13.93
-16.36
-18.76
-21.87
-26.29
-32.25
-39.27
-46.17
-51.23
-52.70
-49.35
-40.98
-28.50
-13.73
1.18
14.37
24.62
31.57
35.42
36.74
36.13
34.15
31.28
27.97
24.62
21.55
18.98
17.04
15.74
15.05
14.88
15.13
15.65
16.29
16.85
17.13
16.91
15.95
14.11
11.37
7.87
3.96
-0.00
-3.76
-7.33
-11.03
-15.39
-20.87
-27.56
-34.95
-41.91
-46.91
-48.43
-45.52
-38.10
-27.09
-14.14
-1.19
10.17
18.98
25.03
28.66
30.38
30.66
29.78
27.93
25.36
22.39
19.47
16.98
15.16
14.03
13.49
13.39
13.60
14.05
14.62
15.11
15.18
14.44
12.62
9.63
5.70
1.29
-3.04
-6.86
-9.95
-12.53
-15.11
-18.44
-23.17
-29.56
-37.20
-44.92
-50.96
-53.50
-51.23
-43.84
-32.22
-18.17
-3.87
8.78
18.61
25.29
29.14
30.77
30.83
29.81
28.05
25.85
23.52
21.32
19.45
17.99
16.91
16.10
15.51
15.15
15.11
15.46
16.13
16.83
17.10
16.42
14.44
11.15
6.91
2.33
-1.99
-5.71
-8.90
-12.01
-15.68
-20.46
-26.48
-33.27
-39.76
-44.52
-46.12
-43.64
-36.95
-26.83
-14.74
-2.38
8.73
17.60
23.85
27.53
29.01
28.72
27.09
24.50
21.34
17.97
14.71
11.80
9.46
7.83
7.00
6.94
7.53
8.44
9.24
9.51
8.93
7.41
5.06
2.14
-1.11
-4.50
-7.95
-11.49
-15.20
-19.21
-23.74
-28.99
-34.95
-41.17
-46.63
-49.92
-49.61
-44.82
-35.70
-23.46
-10.04
2.51
12.60
19.53
23.46
25.07
25.21
24.50
23.23
21.42
19.04
16.14
12.96
9.92
7.45
5.84
5.12
5.12
5.44
5.71
5.65
5.11
4.04
2.47
0.43
-2.03
-4.83
-7.92
-11.27
-15.00
-19.35
-24.60
-30.85
-37.79
-44.53
-49.68
-51.72
-49.50
-42.67
-31.90
-18.73
-5.11
7.18
16.96
23.80
27.91
29.79
30.02
29.03
27.08
24.39
21.23
17.98
15.10
12.97
11.83
11.61
11.99
12.50
12.67
12.17
10.88
8.88
6.33
3.40
0.17
-3.28
-6.93
-10.82
-15.05
-19.86
-25.47
-31.91
-38.82
-45.27
-49.92
-51.31
-48.35
-40.77
-29.34
-15.63
-1.66
10.71
20.23
26.45
29.64
30.50
29.82
28.21
26.07
23.63
21.08
18.68
16.72
15.38
14.75
14.71
15.01
15.35
15.44
15.08
14.11
12.49
10.24
7.51
4.49
1.39
-1.68
-4.79
-8.26
-12.50
-17.91
-24.59
-32.10
-39.39
-44.91
-46.98
-44.43
-36.97
-25.47
-11.72
2.14
14.23
23.43
29.47
32.81
34.18
34.24
33.36
31.72
29.42
26.68
23.84
21.28
19.30
17.96
17.12
16.54
15.97
15.26
14.37
13.29
11.98
10.37
8.37
5.95
3.14
0.02
-3.35
-7.02
-11.15
-16.01
-21.81
-28.50
-35.53
-41.79
-45.85
-46.32
-42.38
-34.16
-22.71
-9.77
2.84
13.65
21.86
27.34
30.42
31.63
31.49
30.38
28.61
26.39
23.93
21.41
19.01
16.87
15.17
14.02
13.50
13.60
14.17
14.96
15.56
15.56
14.61
12.56
9.49
5.74
1.82
-1.82
-4.95
-7.70
-10.55
-14.14
-19.02
-25.28
-32.43
-39.35
-44.52
-46.42
-43.99
-37.02
-26.28
-13.29
0.02
11.91
21.21
27.47
30.86
31.91
31.23
29.36
26.74
23.78
20.86
18.29
16.34
15.07
14.44
14.33
14.60
15.08
15.63
16.07
16.16
15.69
14.48
12.46
9.72
6.45
2.91
-0.65
-4.09
-7.41
-10.81
-14.61
-19.20
-24.79
-31.25
-37.90
-43.54
-46.71
-46.15
-41.25
-32.45
-21.10
-9.06
1.88
10.53
16.49
19.97
21.51
21.57
20.45
18.26
15.11
11.22
6.96
2.76
-0.94
-3.87
-5.92
-7.14
-7.72
-7.96
-8.17
-8.75
-10.05
-12.37
-15.90
-20.62
-26.34
-32.72
-39.42
-46.18
-52.94
-59.86
-67.25
-75.50
-84.82
-95.01
-105.31
-114.43
-120.82
-123.15
-120.80
-114.06
-104.14
-92.66
-81.06
-70.13
-59.83
-49.53
-38.41
-25.93
-11.99
3.08
18.78
34.59
50.08
64.81
78.35
90.17
99.81
106.95
111.43
113.33
112.82
110.16
105.62
99.53
92.33
84.52
76.58
68.83
61.35
54.01
46.43
38.16
28.84
18.34
6.99
-4.29
-14.11
-20.82
-23.09
-20.37
-13.16
-2.99
8.09
18.08
25.60
30.11
31.82
31.38
29.58
27.10
24.37
21.65
19.07
16.67
14.44
12.42
10.64
9.18
8.10
7.37
6.86
6.31
5.41
3.90
1.69
-1.14
-4.32
-7.51
-10.44
-12.95
-15.12
-17.21
-19.64
-22.85
-27.07
-32.16
-37.45
-41.82
-43.89
-42.54
-37.25
-28.36
-17.01
-4.85
6.45
15.59
21.91
25.36
26.39
25.69
23.97
21.85
19.79
18.02
16.67
15.75
15.24
15.12
15.33
15.79
16.37
16.86
17.03
16.71
15.84
14.50
12.90
11.25
9.72
8.32
6.98
5.46
3.50
0.75
-3.08
-8.20
-14.52
-21.45
-27.90
-32.43
-33.65
-30.70
-23.64
-13.44
-1.81
9.39
18.59
24.85
27.99
28.34
26.55
23.35
19.38
15.20
11.23
7.84
5.30
3.82
3.44
4.07
5.41
7.04
8.50
9.37
9.46
8.75
7.39
5.63
3.61
1.38
-1.13
-4.03
-7.46
-11.53
-16.44
-22.38
-29.45
-37.34
-45.22
-51.65
-54.95
-53.70
-47.31
-36.39
-22.56
-7.96
5.48
16.51
24.70
30.21
33.40
34.54
33.82
31.49
28.05
24.18
20.59
17.75
15.82
14.74
14.37
14.64
15.54
16.92
18.32
19.00
18.12
15.12
9.92
3.06
-4.62
-12.28
-19.42
-26.07
-32.70
-40.08
-48.95
-59.82
-72.73
-87.12
-101.82
-115.30
-126.04
-132.93
-135.65
-134.71
-131.20
-126.28
-120.72
-114.70
-107.80
-99.41
-89.03
-76.64
-62.74
-48.21
-34.15
-21.55
-11.04
-2.65
4.23
10.86
18.87
29.78
44.55
63.17
84.56
106.82
127.78
145.56
159.04
167.86
172.26
172.72
169.66
163.46
154.62
143.97
132.82
122.76
115.31
111.44
111.26
113.89
117.81
121.24
122.67
121.16
116.43
108.73
98.55
86.33
72.40
56.93
40.07
22.09
3.50
-15.02
-32.81
-49.39
-64.60
-78.53
-91.39
-103.38
-114.57
-124.92
-134.30
-142.59
-149.66
-155.40
-159.81
-163.11
-165.78
-168.56
-172.10
-176.59
-181.43
-185.30
-186.57
-183.85
-176.54
-165.00
-150.31
-133.77
-116.46
-99.02
-81.76
-64.82
-48.35
-32.57
-17.63
-3.53
9.81
22.33
33.73
43.43
50.90
56.06
59.51
62.42
66.07
71.20
77.66
84.45
90.26
94.14
95.99
96.54
96.84
97.68
99.16
100.68
101.41
100.70
98.54
95.57
92.79
91.18
91.29
93.15
96.31
100.03
103.51
106.00
106.93
105.86
102.55
97.04
89.63
80.94
71.80
63.03
55.19
48.47
42.68
37.47
32.48
27.56
22.75
18.18
13.97
10.12
6.54
3.08
-0.41
-4.09
-8.17
-12.84
-18.07
-23.60
-28.89
-33.44
-36.95
-39.59
-41.82
-44.09
-46.42
-48.25
-48.54
-46.18
-40.51
-31.69
-20.71
-9.10
1.53
9.95
15.53
18.23
18.33
16.21
12.16
6.47
-0.43
-7.79
-14.64
-20.00
-23.27
-24.46
-24.17
-23.34
-22.86
-23.27
-24.61
-26.59
-28.75
-30.79
-32.68
-34.64
-37.05
-40.27
-44.49
-49.49
-54.61
-58.76
-60.65
-59.11
-53.46
-43.79
-30.92
-16.31
-1.63
11.61
22.35
30.17
35.19
37.88
38.77
38.29
36.69
34.14
30.88
27.26
23.74
20.71
18.37
16.64
15.29
14.15
13.17
12.45
12.05
11.83
11.41
10.30
8.13
4.86
0.75
-3.74
-8.22
-12.59
-17.04
-21.83
-26.95
-31.84
-35.37
-36.18
-33.26
-26.39
-16.37
-4.75
6.65
16.39
23.71
28.56
31.25
32.20
31.68
29.87
26.95
23.30
19.41
15.84
12.93
10.78
9.18
7.80
6.36
4.78
3.11
1.47
-0.14
-1.85
-3.79
-6.01
-8.34
-10.49
-12.26
-13.68
-15.13
-17.19
-20.44
-25.13
-30.95
-36.98
-41.81
-43.91
-42.10
-35.88
-25.74
-13.02
0.50
13.10
23.50
31.09
35.82
38.00
38.06
36.47
33.66
30.04
26.01
21.91
18.00
14.44
11.36
8.84
6.90
5.50
4.52
3.77
3.04
2.21
1.21
0.05
-1.23
-2.64
-4.22
-6.07
-8.33
-11.18
-14.83
-19.48
-25.17
-31.60
-37.96
-43.04
-45.44
-44.07
-38.52
-29.27
-17.56
-5.07
6.57
16.18
23.13
27.38
29.25
29.21
27.71
25.11
21.74
17.96
14.15
10.68
7.81
5.59
3.84
2.29
0.74
-0.88
-2.51
-4.02
-5.39
-6.66
-7.92
-9.26
-10.73
-12.34
-14.23
-16.68
-20.06
-24.69
-30.54
-37.02
-42.95
-46.78
-47.03
-42.88
-34.43
-22.85
-9.94
2.37
12.63
20.11
24.81
27.15
27.66
26.73
24.63
21.55
17.77
13.62
9.50
5.81
2.84
0.77
-0.43
-0.97
-1.22
-1.55
-2.29
-3.52
-5.17
-6.99
-8.82
-10.63
-12.53
-14.78
-17.67
-21.46
-26.35
-32.34
-39.08
-45.73
-50.96
-53.23
-51.22
-44.36
-33.15
-19.10
-4.30
9.22
20.01
27.50
31.89
33.78
33.82
32.51
30.12
26.83
22.85
18.53
14.31
10.61
7.73
5.72
4.41
3.47
2.54
1.33
-0.27
-2.25
-4.48
-6.84
-9.30
-11.96
-14.98
-18.57
-22.96
-28.31
-34.70
-42.00
-49.65
-56.63
-61.49
-62.74
-59.34
-51.21
-39.32
-25.52
-11.92
-0.22
8.67
14.72
18.56
20.97
22.58
23.64
24.15
23.97
23.07
21.57
19.73
17.92
16.42
15.42
14.92
14.79
14.77
14.55
13.89
12.64
10.79
8.47
5.84
3.04
0.09
-3.13
-6.86
-11.38
-16.92
-23.41
-30.40
-36.94
-41.65
-43.06
-40.09
-32.47
-21.01
-7.33
6.58
19.03
28.98
36.18
40.85
43.41
44.21
43.50
41.48
38.41
34.66
30.64
26.70
23.13
20.09
17.58
15.51
13.65
11.80
9.78
7.51
5.04
2.43
-0.23
-2.93
-5.67
-8.49
-11.45
-14.70
-18.54
-23.31
-29.23
-36.01
-42.73
-47.87
-49.64
-46.65
-38.44
-25.74
-10.34
5.51
19.72
30.92
38.63
43.07
44.84
44.56
42.72
39.72
35.93
31.85
27.93
24.59
22.02
20.24
19.09
18.40
18.07
18.07
18.40
19.04
19.85
20.54
20.69
19.78
17.25
12.65
5.69
-3.60
-14.94
-27.77
-41.38
-54.84
-67.03
-76.56
-82.03
-82.31
-77.01
-66.74
-53.12
-38.35
-24.56
-13.26
-4.98
0.52
3.84
5.53
5.83
4.85
2.77
0.11
-2.34
-3.70
-3.43
-1.47
1.70
5.27
8.45
10.64
11.64
11.54
10.63
9.23
7.57
5.76
3.71
1.19
-2.15
-6.69
-12.68
-20.05
-28.18
-35.85
-41.45
-43.34
-40.36
-32.33
-20.15
-5.56
9.30
22.59
33.09
40.44
44.88
46.96
47.21
45.96
43.40
39.69
35.13
30.20
25.47
21.41
18.24
15.92
14.17
12.69
11.18
9.50
7.58
5.38
2.87
0.05
-3.03
-6.30
-9.69
-13.29
-17.34
-22.24
-28.38
-35.80
-43.91
-51.44
-56.60
-57.58
-53.21
-43.39
-29.28
-12.93
3.30
17.41
28.21
35.42
39.45
41.02
40.88
39.71
38.05
36.32
34.86
33.82
33.17
32.66
31.96
30.80
29.00
26.56
23.59
20.27
16.77
13.22
9.69
6.16
2.55
-1.31
-5.56
-10.37
-15.86
-22.12
-29.23
-37.09
-45.26
-52.85
-58.53
-60.83
-58.62
-51.53
-40.18
-26.03
-11.01
3.08
14.93
23.93
30.05
33.64
35.16
35.07
33.76
31.62
29.04
26.36
23.96
22.10
20.94
20.56
20.88
21.70
22.77
23.72
24.23
24.04
22.99
21.01
18.08
14.19
9.34
3.57
-3.03
-10.33
-18.26
-26.77
-35.82
-45.00
-53.41
-59.54
-61.66
-58.38
-49.29
-35.26
-18.24
-0.69
15.15
27.80
36.67
41.88
43.95
43.50
41.18
37.57
33.21
28.53
23.86
19.44
15.48
12.15
9.60
7.87
6.83
6.18
5.57
4.73
3.54
2.02
0.31
-1.54
-3.54
-5.81
-8.53
-11.83
-15.89
-20.88
-26.91
-33.89
-41.27
-47.93
-52.31
-52.84
-48.43
-39.02
-25.70
-10.43
4.52
17.26
26.73
32.74
35.77
36.53
35.64
33.46
30.16
25.92
21.09
16.23
11.97
8.84
7.04
6.36
6.30
6.32
5.98
5.12
3.76
2.02
0.01
-2.25
-4.80
-7.61
-10.71
-14.16
-18.25
-23.38
-29.87
-37.62
-45.81
-52.87
-56.85
-56.06
-49.74
-38.37
-23.55
-7.55
7.43
19.81
28.84
34.52
37.27
37.64
36.14
33.11
28.88
23.79
18.25
12.74
7.78
3.83
1.18
-0.09
-0.20
0.45
1.38
2.13
2.41
2.12
1.26
-0.09
-1.86
-4.02
-6.58
-9.62
-13.29
-17.88
-23.63
-30.56
-38.17
-45.27
-50.18
-51.12
-46.88
-37.32
-23.59
-7.70
8.00
21.58
31.94
38.83
42.62
43.93
43.32
41.19
37.87
33.68
28.99
24.22
19.73
15.87
12.83
10.69
9.40
8.77
8.49
8.21
7.59
6.45
4.77
2.67
0.34
-2.07
-4.50
-7.04
-9.91
-13.44
-18.02
-23.94
-31.21
-39.29
-46.98
-52.56
-54.23
-50.70
-41.70
-28.22
-12.19
4.01
18.31
29.36
36.72
40.70
41.98
41.37
39.53
36.94
33.91
30.61
27.18
23.72
20.36
17.24
14.50
12.27
10.59
9.44
8.70
8.12
7.35
6.08
4.11
1.40
-1.85
-5.32
-8.69
-11.84
-14.88
-18.19
-22.29
-27.63
-34.25
-41.57
-48.32
-52.76
-53.18
-48.51
-38.78
-25.21
-9.86
5.05
17.72
27.21
33.39
36.66
37.64
36.85
34.72
31.59
27.83
23.83
19.97
16.51
13.63
11.34
9.61
8.43
7.77
7.65
7.92
8.32
8.46
7.91
6.38
3.84
0.53
-3.13
-6.69
-9.89
-12.72
-15.45
-18.53
-22.42
-27.50
-33.75
-40.65
-47.02
-51.24
-51.63
-47.06
-37.47
-23.97
-8.62
6.31
18.94
28.27
34.22
37.28
38.15
37.35
35.22
32.03
28.11
23.93
19.96
16.60
14.00
12.10
10.75
9.77
9.12
8.81
8.78
8.82
8.56
7.58
5.59
2.61
-1.08
-5.00
-8.71
-11.95
-14.83
-17.69
-21.12
-25.65
-31.54
-38.44
-45.34
-50.63
-52.51
-49.60
-41.52
-29.09
-14.19
0.89
14.10
24.23
30.96
34.71
36.09
35.68
33.79
30.61
26.42
21.66
16.92
12.77
9.55
7.31
5.90
5.08
4.67
4.55
4.59
4.63
4.36
3.49
1.75
-0.91
-4.31
-8.10
-11.94
-15.59
-19.06
-22.67
-26.90
-32.20
-38.62
-45.55
-51.65
-55.12
-54.31
-48.26
-37.24
-22.67
-6.73
8.34
20.81
29.85
35.45
38.13
38.57
37.33
34.84
31.46
27.58
23.61
19.94
16.83
14.37
12.52
11.20
10.41
10.19
10.61
11.64
12.99
14.16
14.56
13.67
11.28
7.52
2.90
-1.97
-6.52
-10.44
-13.84
-17.18
-21.18
-26.51
-33.46
-41.60
-49.66
-55.77
-57.92
-54.74
-46.01
-32.81
-17.16
-1.39
12.61
23.75
31.80
37.03
39.87
40.65
39.61
37.02
33.34
29.19
25.23
21.89
19.31
17.24
15.32
13.30
11.23
9.44
8.37
8.36
9.32
10.78
11.94
12.01
10.50
7.39
3.13
-1.49
-5.74
-9.15
-11.70
-13.81
-16.17
-19.52
-24.38
-30.85
-38.41
-45.81
-51.35
-53.19
-49.95
-41.26
-28.00
-12.09
4.07
18.31
29.29
36.60
40.60
41.95
41.27
39.01
35.57
31.37
26.96
22.89
19.55
17.03
15.14
13.61
12.19
10.87
9.82
9.25
9.25
9.68
10.14
10.11
9.09
6.88
3.60
-0.34
-4.35
-7.96
-10.95
-13.42
-15.79
-18.61
-22.45
-27.62
-34.02
-40.92
-46.97
-50.49
-49.92
-44.43
-34.29
-20.88
-6.25
7.49
18.78
26.93
31.98
34.37
34.65
33.28
30.54
26.72
22.14
17.25
12.48
8.24
4.84
2.44
1.08
0.66
0.97
1.68
2.41
2.77
2.41
1.16
-1.03
-4.04
-7.57
-11.25
-14.63
-17.43
-19.58
-21.39
-23.53
-26.75
-31.49
-37.42
-43.29
-47.14
-47.03
-41.74
-31.43
-17.56
-2.46
11.54
22.77
30.51
34.89
36.48
35.91
33.69
30.19
25.77
20.88
16.01
11.63
8.10
5.57
4.02
3.23
2.92
2.71
2.30
1.48
0.20
-1.47
-3.34
-5.22
-6.98
-8.62
-10.31
-12.33
-15.05
-18.89
-24.16
-30.95
-38.90
-47.03
-53.76
-57.17
-55.66
-48.52
-36.30
-20.78
-4.39
10.49
22.25
30.27
34.80
36.53
36.21
34.37
31.38
27.49
22.97
18.19
13.50
9.26
5.73
3.06
1.25
0.23
-0.24
-0.43
-0.68
-1.27
-2.38
-4.03
-6.15
-8.61
-11.32
-14.30
-17.67
-21.70
-26.73
-33.03
-40.53
-48.59
-55.87
-60.52
-60.69
-55.22
-44.13
-28.77
-11.46
5.30
19.50
30.11
37.05
40.90
42.39
42.15
40.59
37.90
34.30
30.05
25.45
20.90
16.69
13.10
10.30
8.31
7.04
6.24
5.63
4.87
3.73
2.07
-0.14
-2.81
-5.82
-9.04
-12.45
-16.19
-20.56
-26.00
-32.81
-40.81
-49.12
-56.12
-59.81
-58.46
-51.29
-38.87
-22.99
-6.15
9.24
21.48
29.87
34.65
36.56
36.48
35.08
32.83
29.95
26.60
22.91
18.99
15.05
11.31
8.00
5.35
3.48
2.32
1.64
1.11
0.44
-0.54
-1.83
-3.33
-4.97
-6.76
-8.91
-11.74
-15.69
-21.17
-28.33
-36.88
-45.78
-53.28
-57.28
-56.01
-48.72
-36.06
-19.98
-3.06
12.28
24.50
33.09
38.37
41.06
41.77
40.88
38.57
35.00
30.47
25.47
20.61
16.49
13.43
11.43
10.20
9.26
8.20
6.76
4.93
2.82
0.54
-1.85
-4.36
-7.04
-9.99
-13.38
-17.50
-22.76
-29.52
-37.82
-47.04
-55.76
-61.99
-63.69
-59.51
-49.31
-34.36
-17.00
0.15
14.96
26.31
34.14
39.08
41.90
43.12
42.93
41.33
38.40
34.48
30.17
26.13
22.83
20.45
18.80
17.47
16.05
14.29
12.10
9.64
7.12
4.68
2.34
-0.04
-2.70
-5.91
-9.96
-15.13
-21.69
-29.68
-38.68
-47.56
-54.56
-57.62
-55.07
-46.33
-32.29
-15.10
2.52
18.09
30.09
38.17
42.83
44.99
45.46
44.71
42.91
40.16
36.61
32.63
28.69
25.24
22.56
20.65
19.29
18.11
16.78
15.08
12.98
10.56
7.93
5.11
2.05
-1.40
-5.39
-10.04
-15.47
-21.84
-29.29
-37.79
-46.88
-55.42
-61.64
-63.52
-59.53
-49.25
-33.73
-15.28
3.29
19.46
31.78
39.92
44.52
46.55
46.90
46.13
44.49
42.08
38.99
35.36
31.42
27.48
23.86
20.84
18.63
17.24
16.48
16.00
15.33
14.04
11.81
8.49
4.14
-1.01
-6.55
-12.02
-17.09
-21.74
-26.37
-31.73
-38.56
-47.08
-56.55
-65.16
-70.45
-70.12
-62.92
-49.19
-30.85
-10.72
8.35
24.32
36.34
44.55
49.67
52.43
53.32
52.62
50.56
47.54
44.13
40.98
38.52
36.83
35.65
34.52
33.09
31.27
29.24
27.37
25.94
24.91
23.92
22.37
19.65
15.44
9.82
3.33
-3.26
-9.24
-14.15
-18.02
-21.30
-24.71
-29.02
-34.84
-42.38
-51.27
-60.37
-67.89
-71.67
-69.85
-61.56
-47.39
-29.32
-10.15
7.46
21.74
32.12
39.10
43.58
46.38
47.87
48.05
46.86
44.37
40.97
37.25
33.83
31.15
29.34
28.32
27.82
27.55
27.28
26.87
26.27
25.49
24.47
23.12
21.23
18.56
14.96
10.47
5.37
0.09
-4.93
-9.38
-13.25
-16.72
-20.12
-23.78
-27.92
-32.76
-38.51
-45.25
-52.70
-59.95
-65.45
-67.26
-63.78
-54.38
-39.87
-22.28
-4.24
11.93
24.82
34.16
40.47
44.48
46.75
47.49
46.69
44.46
41.13
37.23
33.37
30.03
27.46
25.74
24.78
24.47
24.65
25.14
25.62
25.77
25.27
23.98
21.94
19.37
16.54
13.65
10.72
7.64
4.23
0.38
-3.88
-8.35
-12.73
-16.78
-20.34
-23.44
-26.33
-29.41
-33.19
-38.06
-44.02
-50.43
-55.90
-58.61
-56.88
-49.85
-37.92
-22.73
-6.65
8.04
19.83
28.21
33.52
36.42
37.46
36.91
34.90
31.63
27.56
23.38
19.75
17.12
15.57
14.86
14.59
14.42
14.19
13.93
13.76
13.80
13.98
14.02
13.52
12.02
9.22
5.16
0.20
-4.99
-9.68
-13.36
-15.95
-17.87
-19.84
-22.61
-26.75
-32.39
-39.23
-46.47
-52.90
-57.05
-57.50
-53.30
-44.34
-31.56
-16.67
-1.75
11.42
21.77
29.00
33.41
35.48
35.67
34.30
31.66
28.14
24.25
20.50
17.31
14.87
13.13
11.87
10.87
9.98
9.21
8.71
8.61
8.88
9.28
9.33
8.51
6.42
3.00
-1.43
-6.26
-10.82
-14.64
-17.63
-20.11
-22.71
-26.12
-30.92
-37.29
-44.77
-52.23
-57.94
-60.04
-57.13
-48.83
-36.01
-20.60
-4.92
9.03
20.06
27.85
32.72
35.22
35.77
34.69
32.26
28.89
25.12
21.56
18.71
16.72
15.42
14.42
13.30
11.86
10.25
8.89
8.22
8.45
9.29
10.03
9.80
7.91
4.23
-0.79
-6.24
-11.23
-15.15
-17.98
-20.22
-22.62
-25.97
-30.82
-37.24
-44.73
-52.16
-57.87
-60.07
-57.40
-49.43
-36.91
-21.64
-5.90
8.29
19.63
27.70
32.76
35.32
35.89
34.81
32.43
29.15
25.48
21.97
19.01
16.72
14.94
13.35
11.74
10.10
8.69
7.88
7.91
8.73
9.92
10.82
10.75
9.30
6.38
2.28
-2.45
-7.19
-11.38
-14.76
-17.42
-19.89
-22.91
-27.26
-33.33
-40.84
-48.64
-54.96
-57.82
-55.74
-48.28
-36.25
-21.50
-6.33
7.26
18.03
25.66
30.44
32.97
33.74
33.10
31.27
28.56
25.41
22.33
19.69
17.61
15.94
14.36
12.64
10.77
9.00
7.74
7.31
7.71
8.58
9.23
8.93
7.23
4.09
-0.07
-4.57
-8.74
-12.18
-14.88
-17.14
-19.53
-22.67
-27.06
-32.84
-39.56
-46.11
-50.78
-51.74
-47.65
-38.23
-24.52
-8.60
7.04
20.30
29.98
35.87
38.48
38.60
36.92
34.01
30.33
26.35
22.53
19.27
16.71
14.76
13.11
11.50
9.83
8.24
7.00
6.32
6.17
6.19
5.78
4.36
1.60
-2.38
-7.06
-11.68
-15.58
-18.43
-20.40
-22.08
-24.37
-28.13
-33.84
-41.31
-49.52
-56.70
-60.81
-60.14
-53.93
-42.73
-28.27
-12.86
1.33
12.82
21.06
26.19
28.73
29.21
28.10
25.82
22.82
19.62
16.63
14.11
12.07
10.33
8.76
7.34
6.25
5.74
5.92
6.63
7.41
7.62
6.70
4.39
0.83
-3.50
-7.94
-11.95
-15.26
-17.99
-20.57
-23.65
-27.89
-33.74
-41.12
-49.26
-56.67
-61.37
-61.54
-56.12
-45.32
-30.63
-14.37
1.08
13.94
23.43
29.65
33.21
34.76
34.77
33.49
31.21
28.25
25.10
22.21
19.85
18.01
16.45
14.88
13.15
11.37
9.88
9.01
8.90
9.31
9.66
9.21
7.35
3.85
-1.03
-6.65
-12.20
-17.00
-20.77
-23.73
-26.53
-30.04
-35.03
-41.76
-49.77
-57.75
-63.77
-65.75
-62.19
-52.75
-38.44
-21.35
-4.00
11.45
23.71
32.48
38.11
41.21
42.28
41.66
39.61
36.50
32.84
29.23
26.15
23.85
22.27
21.08
19.95
18.66
17.22
15.92
15.07
14.89
15.20
15.46
14.93
12.92
9.17
3.99
-1.84
-7.30
-11.64
-14.61
-16.56
-18.36
-21.02
-25.41
-31.94
-40.37
-49.71
-58.36
-64.31
-65.66
-61.21
-50.88
-35.87
-18.36
-0.82
14.64
26.80
35.39
40.86
43.90
45.09
44.78
43.11
40.25
36.56
32.60
28.98
26.21
24.48
23.62
23.20
22.79
22.18
21.41
20.71
20.29
20.13
19.89
19.06
17.11
13.73
9.01
3.36
-2.56
-8.09
-12.80
-16.59
-19.74
-22.79
-26.39
-31.11
-37.25
-44.66
-52.64
-59.87
-64.62
-65.19
-60.46
-50.35
-35.97
-19.37
-2.82
11.81
23.47
31.95
37.55
40.71
41.71
40.78
38.14
34.26
29.86
25.66
22.24
19.76
18.01
16.60
15.18
13.69
12.39
11.65
11.71
12.42
13.22
13.32
12.02
9.02
4.58
-0.62
-5.74
-10.17
-13.67
-16.49
-19.21
-22.54
-27.11
-33.30
-41.01
-49.53
-57.47
-62.93
-64.03
-59.49
-49.15
-34.19
-16.77
0.62
15.91
27.91
36.31
41.45
43.90
44.15
42.56
39.50
35.40
30.85
26.44
22.59
19.48
17.02
15.00
13.28
11.86
10.90
10.55
10.74
11.14
11.13
10.08
7.61
3.75
-1.02
-6.03
-10.61
-14.44
-17.57
-20.42
-23.71
-28.22
-34.57
-42.89
-52.49
-61.80
-68.51
-70.26
-65.45
-53.95
-37.29
-18.15
0.52
16.41
28.44
36.59
41.52
43.97
44.42
43.16
40.44
36.74
32.68
28.93
25.87
23.53
21.62
19.76
17.76
15.71
14.01
13.06
13.05
13.75
14.53
14.51
12.95
9.52
4.47
-1.48
-7.41
-12.59
-16.73
-20.12
-23.47
-27.70
-33.59
-41.45
-50.84
-60.45
-68.28
-72.06
-69.99
-61.38
-46.99
-28.85
-9.65
8.11
22.71
33.50
40.65
44.72
46.33
45.93
43.88
40.62
36.73
32.85
29.51
26.97
25.13
23.67
22.26
20.74
19.21
17.96
17.27
17.24
17.58
17.71
16.91
14.56
10.45
4.88
-1.46
-7.65
-12.93
-16.98
-20.09
-23.06
-27.00
-32.86
-41.06
-51.13
-61.61
-70.34
-74.92
-73.51
-65.45
-51.55
-33.86
-15.10
2.23
16.40
26.74
33.42
37.03
38.19
37.34
34.84
31.12
26.77
22.48
18.88
16.22
14.42
13.07
11.80
10.48
9.30
8.66
8.88
9.92
11.29
12.24
12.00
10.12
6.68
2.26
-2.27
-6.03
-8.46
-9.45
-9.39
-9.10
-9.64
-12.11
-17.32
-25.45
-35.71
-46.29
-54.63
-58.16
-55.13
-45.30
-30.06
-11.99
6.08
21.96
34.54
43.73
49.99
53.84
55.63
55.57
54.02
51.58
48.98
46.80
45.23
44.00
42.57
40.53
37.83
34.83
32.13
30.20
29.18
28.76
28.35
27.30
25.23
22.14
18.29
14.10
9.87
5.64
1.18
-3.91
-10.05
-17.47
-26.03
-35.12
-43.59
-49.96
-52.66
-50.63
-43.61
-32.45
-18.84
-4.81
7.86
18.08
25.57
30.58
33.53
34.82
34.67
33.27
30.84
27.65
23.97
19.97
15.78
11.53
7.42
3.78
0.88
-1.16
-2.50
-3.54
-4.78
-6.62
-9.23
-12.54
-16.27
-20.11
-23.77
-27.17
-30.47
-34.08
-38.56
-44.47
-52.06
-61.02
-70.26
-78.01
-82.21
-81.15
-74.08
-61.57
-45.37
-27.86
-11.29
2.86
14.04
22.46
28.68
33.17
36.20
37.88
38.36
37.88
36.76
35.22
33.34
31.11
28.51
25.66
22.83
20.39
18.61
17.52
16.84
16.05
14.58
11.99
8.18
3.38
-1.90
-7.08
-11.79
-15.98
-20.02
-24.60
-30.48
-38.07
-47.08
-56.25
-63.59
-66.81
-64.17
-55.17
-40.80
-23.29
-5.31
10.85
23.85
33.42
39.97
44.16
46.49
47.21
46.52
44.64
41.96
38.92
35.86
32.92
30.09
27.29
24.53
22.03
20.12
19.05
18.84
19.09
19.11
18.09
15.46
11.09
5.42
-0.77
-6.64
-11.63
-15.65
-19.12
-22.81
-27.57
-34.07
-42.41
-51.94
-61.13
-67.85
-69.91
-65.84
-55.45
-39.99
-21.84
-3.66
12.37
25.05
34.17
40.16
43.61
44.96
44.51
42.56
39.52
35.94
32.37
29.11
26.19
23.46
20.75
18.09
15.73
14.01
13.11
12.89
12.87
12.35
10.74
7.77
3.57
-1.37
-6.42
-11.06
-15.08
-18.62
-22.12
-26.25
-31.60
-38.49
-46.65
-55.05
-61.95
-65.33
-63.44
-55.53
-42.21
-25.41
-7.73
8.34
21.15
30.16
35.78
38.85
40.11
40.02
38.74
36.41
33.24
29.61
25.89
22.38
19.22
16.45
14.10
12.27
11.02
10.28
9.82
9.18
7.89
5.62
2.30
-1.84
-6.43
-11.07
-15.50
-19.66
-23.74
-28.16
-33.45
-40.08
-48.11
-56.85
-64.81
-69.86
-69.94
-63.82
-51.68
-35.15
-16.82
0.63
15.23
26.17
33.58
38.17
40.65
41.43
40.67
38.49
35.10
30.95
26.61
22.57
19.16
16.50
14.49
12.98
11.76
10.67
9.51
8.05
6.05
3.33
-0.15
-4.25
-8.70
-13.21
-17.61
-21.98
-26.72
-32.39
-39.50
-48.15
-57.66
-66.47
-72.43
-73.32
-67.71
-55.50
-38.12
-18.10
1.68
18.85
32.10
41.20
46.72
49.53
50.36
49.71
47.86
45.00
41.31
37.02
32.41
27.74
23.30
19.34
16.03
13.41
11.33
9.52
7.66
5.51
2.94
-0.05
-3.39
-7.05
-11.05
-15.48
-20.52
-26.41
-33.42
-41.67
-50.92
-60.25
-68.05
-72.24
-70.95
-63.22
-49.53
-31.76
-12.62
5.18
19.78
30.45
37.51
41.85
44.34
45.52
45.52
44.27
41.73
38.03
33.58
28.93
24.61
20.98
18.17
16.03
14.24
12.44
10.31
7.68
4.53
1.01
-2.70
-6.42
-10.06
-13.67
-17.43
-21.71
-26.95
-33.62
-41.89
-51.30
-60.54
-67.50
-69.85
-65.79
-54.84
-38.16
-18.27
1.81
19.52
33.35
43.03
49.12
52.44
53.68
53.26
51.46
48.56
44.90
40.86
36.74
32.71
28.85
25.16
21.73
18.69
16.19
14.26
12.77
11.38
9.64
7.12
3.58
-0.90
-5.99
-11.26
-16.36
-21.29
-26.40
-32.37
-39.89
-49.19
-59.59
-69.40
-76.20
-77.54
-71.87
-59.20
-41.19
-20.62
-0.49
16.93
30.49
40.17
46.51
50.19
51.66
51.26
49.34
46.39
43.00
39.69
36.69
33.94
31.22
28.34
25.38
22.63
20.49
19.26
18.92
19.06
19.01
17.99
15.43
11.12
5.37
-1.18
-7.72
-13.61
-18.66
-23.19
-27.98
-33.95
-41.81
-51.60
-62.41
-72.34
-78.93
-79.79
-73.53
-60.29
-41.84
-21.00
-0.73
16.81
30.66
40.93
48.26
53.22
56.05
56.72
55.28
52.11
47.90
43.52
39.57
36.26
33.35
30.38
27.04
23.33
19.64
16.50
14.37
13.28
12.75
11.95
10.01
6.36
0.99
-5.53
-12.35
-18.63
-23.93
-28.30
-32.23
-36.43
-41.58
-48.20
-56.45
-66.06
-76.14
-85.09
-90.85
-91.31
-85.10
-72.17
-53.96
-33.02
-12.20
6.18
20.87
31.72
39.18
43.87
46.29
46.77
45.74
43.83
41.97
41.05
41.70
43.97
47.28
50.64
53.03
53.86
53.20
51.81
50.71
50.66
51.69
53.03
53.41
51.72
47.59
41.54
34.72
28.25
22.65
17.58
12.15
5.44
-3.07
-13.31
-24.79
-36.86
-48.76
-59.50
-67.73
-71.85
-70.46
-63.00
-50.18
-33.93
-16.83
-1.26
11.25
20.24
26.03
29.24
30.40
29.82
27.76
24.63
21.08
17.77
15.20
13.47
12.33
11.32
10.08
8.56
7.02
5.85
5.30
5.27
5.23
4.45
2.27
-1.59
-6.88
-12.93
-18.86
-24.00
-28.12
-31.50
-34.82
-38.95
-44.62
-52.14
-61.16
-70.46
-78.13
-81.95
-80.02
-71.47
-56.87
-38.16
-18.03
0.92
16.90
29.16
37.85
43.46
46.47
47.17
45.85
42.93
39.06
35.01
31.36
28.36
25.90
23.65
21.38
19.09
17.05
15.62
14.98
14.96
15.02
14.37
12.36
8.69
3.58
-2.38
-8.40
-13.91
-18.71
-23.07
-27.62
-33.14
-40.31
-49.38
-59.92
-70.58
-79.25
-83.48
-81.27
-71.83
-55.97
-35.99
-14.88
4.58
20.61
32.61
40.87
46.05
48.74
49.28
47.99
45.28
41.75
38.10
34.82
32.09
29.73
27.37
24.76
21.92
19.18
17.02
15.75
15.31
15.20
14.63
12.83
9.40
4.49
-1.29
-7.11
-12.34
-16.79
-20.80
-25.03
-30.24
-37.07
-45.70
-55.69
-65.83
-74.20
-78.53
-76.85
-68.23
-53.24
-33.91
-13.11
6.41
22.79
35.41
44.58
51.00
55.19
57.30
57.27
55.20
51.52
47.03
42.56
38.68
35.48
32.70
29.90
26.87
23.70
20.76
18.49
17.08
16.29
15.51
13.97
10.99
6.31
0.17
-6.75
-13.59
-19.57
-24.29
-27.86
-30.84
-34.05
-38.31
-44.16
-51.61
-59.91
-67.57
-72.55
-72.75
-66.77
-54.45
-37.09
-17.10
2.74
20.12
33.71
43.24
49.07
51.84
52.09
50.32
47.05
42.97
38.82
35.16
32.21
29.75
27.34
24.55
21.26
17.71
14.41
11.91
10.44
9.86
9.52
8.57
6.30
2.42
-2.78
-8.53
-13.93
-18.31
-21.51
-23.95
-26.42
-29.83
-34.93
-42.03
-50.78
-60.00
-67.78
-71.83
-70.16
-61.79
-47.24
-28.49
-8.37
10.35
25.75
37.06
44.47
48.66
50.33
49.94
47.86
44.47
40.30
35.94
31.84
28.22
25.01
22.03
19.15
16.48
14.28
12.80
12.05
11.68
11.00
9.31
6.12
1.42
-4.30
-10.27
-15.74
-20.33
-24.14
-27.78
-32.10
-37.94
-45.74
-55.26
-65.35
-74.04
-78.93
-77.91
-69.93
-55.45
-36.39
-15.54
4.25
20.92
33.52
42.12
47.33
49.86
50.24
48.84
46.03
42.31
38.28
34.41
30.96
27.87
24.90
21.86
18.86
16.23
14.45
13.78
14.01
14.45
14.15
12.23
8.32
2.67
-3.98
-10.69
-16.74
-21.89
-26.43
-31.05
-36.60
-43.80
-52.88
-63.21
-73.26
-80.70
-83.03
-78.44
-66.54
-48.65
-27.42
-5.96
13.16
28.57
40.07
48.24
53.78
57.12
58.40
57.74
55.45
52.11
48.40
44.78
41.38
38.01
34.39
30.46
26.47
22.89
20.19
18.55
17.65
16.81
15.19
12.17
7.54
1.64
-4.85
-11.15
-16.71
-21.36
-25.41
-29.55
-34.62
-41.33
-50.01
-60.25
-70.79
-79.55
-84.05
-82.20
-73.02
-57.16
-36.80
-14.99
5.33
22.15
34.76
43.52
49.30
52.92
54.80
55.05
53.74
51.14
47.79
44.32
41.25
38.69
36.42
34.01
31.11
27.71
24.21
21.18
19.10
18.02
17.44
16.43
14.06
9.82
3.83
-3.17
-10.17
-16.28
-21.12
-24.91
-28.39
-32.49
-38.04
-45.46
-54.61
-64.62
-73.89
-80.33
-81.82
-76.85
-65.16
-47.95
-27.66
-7.17
11.04
25.52
35.91
42.69
46.59
48.19
47.88
45.96
42.87
39.22
35.56
32.24
29.22
26.22
23.01
19.58
16.32
13.79
12.46
12.40
13.13
13.74
13.21
10.78
6.25
0.06
-6.86
-13.53
-19.25
-23.87
-27.84
-31.95
-37.12
-44.02
-52.79
-62.78
-72.50
-79.70
-82.01
-77.64
-66.11
-48.56
-27.48
-5.90
13.53
29.15
40.47
47.81
51.87
53.28
52.59
50.25
46.80
42.79
38.75
35.02
31.74
28.83
26.15
23.59
21.21
19.18
17.72
16.87
16.34
15.53
13.68
10.23
5.10
-1.26
-7.97
-14.16
-19.33
-23.53
-27.35
-31.68
-37.40
-45.09
-54.70
-65.31
-75.07
-81.54
-82.29
-75.83
-62.18
-43.05
-21.31
-0.04
18.38
32.75
42.97
49.52
53.03
53.91
52.55
49.39
45.17
40.69
36.64
33.31
30.56
28.00
25.24
22.20
19.20
16.80
15.46
15.25
15.65
15.71
14.42
11.16
5.96
-0.52
-7.30
-13.52
-18.73
-23.11
-27.29
-32.17
-38.63
-47.22
-57.84
-69.43
-79.95
-86.70
-87.08
-79.60
-64.52
-43.95
-21.09
0.79
19.39
33.78
44.13
51.11
55.32
57.06
56.51
54.02
50.29
46.15
42.32
39.13
36.41
33.74
30.74
27.33
23.83
20.81
18.80
17.99
18.07
18.26
17.57
15.22
10.89
4.94
-1.83
-8.43
-14.17
-18.90
-23.04
-27.39
-32.87
-40.17
-49.53
-60.45
-71.58
-80.76
-85.41
-83.30
-73.37
-56.32
-34.49
-11.17
10.47
28.29
41.55
50.60
56.27
59.28
60.03
58.75
55.71
51.46
46.72
42.17
38.23
34.91
31.95
29.02
25.93
22.84
20.17
18.38
17.64
17.68
17.74
16.84
14.20
9.56
3.31
-3.69
-10.47
-16.33
-21.11
-25.18
-29.30
-34.36
-41.11
-49.91
-60.38
-71.28
-80.54
-85.62
-84.28
-75.39
-59.46
-38.61
-15.93
5.49
23.42
36.88
45.99
51.46
54.01
54.19
52.39
49.08
44.86
40.47
36.48
33.13
30.26
27.52
24.60
21.52
18.58
16.23
14.76
14.06
13.55
12.43
9.94
5.72
-0.03
-6.65
-13.28
-19.17
-24.04
-28.11
-32.08
-36.89
-43.38
-51.98
-62.32
-73.06
-81.89
-86.14
-83.53
-73.12
-55.73
-33.86
-10.84
10.21
27.22
39.53
47.52
52.02
53.83
53.52
51.48
48.22
44.30
40.27
36.46
32.88
29.34
25.72
22.10
18.85
16.40
15.01
14.54
14.43
13.84
12.01
8.51
3.42
-2.71
-9.12
-15.20
-20.64
-25.62
-30.64
-36.45
-43.72
-52.78
-63.24
-73.80
-82.24
-86.00
-82.87
-71.98
-54.15
-31.87
-8.43
13.05
30.51
43.17
51.37
55.89
57.57
57.03
54.77
51.30
47.19
42.96
38.94
35.24
31.76
28.41
25.27
22.57
20.56
19.35
18.67
17.94
16.43
13.55
9.09
3.29
-3.27
-9.92
-16.17
-21.88
-27.27
-32.87
-39.37
-47.41
-57.27
-68.53
-79.81
-88.76
-92.66
-89.26
-77.71
-59.00
-35.82
-11.62
10.46
28.41
41.63
50.51
55.92
58.60
59.03
57.55
54.58
50.66
46.41
42.31
38.59
35.19
31.94
28.73
25.65
23.03
21.20
20.26
19.89
19.37
17.78
14.41
9.07
2.24
-5.19
-12.25
-18.29
-23.23
-27.63
-32.42
-38.64
-47.04
-57.66
-69.54
-80.62
-88.12
-89.34
-82.56
-67.80
-46.97
-23.25
-0.05
19.99
35.64
46.93
54.58
59.38
61.79
62.01
60.24
56.99
53.02
49.20
46.03
43.59
41.50
39.25
36.54
33.51
30.69
28.69
27.86
28.01
28.41
27.99
25.83
21.44
15.03
7.39
-0.37
-7.31
-12.98
-17.55
-21.74
-26.55
-32.91
-41.36
-51.75
-63.07
-73.36
-80.09
-80.81
-73.97
-59.69
-39.78
-17.29
4.51
23.17
37.56
47.73
54.36
58.09
59.27
58.06
54.78
50.09
44.93
40.14
36.16
32.84
29.71
26.23
22.20
17.92
13.99
11.07
9.41
8.67
7.95
6.09
2.11
-4.28
-12.63
-21.85
-30.67
-38.17
-44.16
-49.23
-54.59
-61.65
-71.68
-85.26
-101.98
-120.05
-136.41
-147.23
-148.92
-139.34
-118.74
-89.87
-57.18
-25.29
2.59
25.47
44.38
61.33
78.00
94.77
110.58
123.53
131.69
133.83
129.71
120.01
106.02
89.39
72.00
55.83
42.67
33.79
29.52
29.14
30.96
32.89
32.96
29.90
23.47
14.45
4.35
-5.20
-13.01
-18.83
-23.32
-27.64
-32.70
-38.47
-43.77
-46.59
-44.85
-37.26
-23.73
-5.32
16.29
39.26
61.93
82.78
100.47
113.86
122.29
125.87
125.49
122.63
118.75
114.82
110.95
106.60
100.91
93.23
83.44
71.99
59.64
47.20
35.22
23.97
13.49
3.66
-5.62
-14.47
-22.95
-31.17
-39.18
-46.95
-54.33
-61.14
-67.28
-72.80
-77.98
-83.12
-88.38
-93.54
-97.93
-100.56
-100.36
-96.48
-88.51
-76.63
-61.62
-44.74
-27.49
-11.33
2.54
13.32
20.68
24.71
25.83
24.76
22.27
19.12
15.80
12.45
8.92
4.84
-0.03
-5.66
-11.71
-17.71
-23.33
-28.59
-33.95
-40.12
-47.70
-56.90
-67.31
-78.07
-88.15
-96.78
-103.83
-109.93
-116.37
-124.71
-136.37
-152.07
-171.26
-191.78
-209.88
-220.94
-220.79
-207.21
-181.07
-146.36
-109.01
-75.02
-48.58
-31.00
-20.78
-14.76
-9.43
-2.11
8.55
22.64
39.35
57.31
74.89
90.44
102.48
109.91
112.26
109.71
103.18
94.10
84.08
74.51
66.14
58.89
51.87
43.87
33.79
21.06
5.73
-11.80
-31.19
-52.35
-75.35
-100.01
-125.45
-149.97
-171.28
-187.03
-195.41
-195.51
-187.38
-171.89
-150.49
-125.03
-97.58
-70.14
-44.37
-21.28
-1.14
16.33
31.62
45.07
56.63
66.02
72.97
77.56
80.24
81.81
83.02
84.35
85.88
87.29
88.02
87.51
85.35
81.40
75.79
68.90
61.22
53.24
45.29
37.47
29.56
21.08
11.45
0.24
-12.51
-26.04
-38.74
-48.37
-52.69
-50.17
-40.54
-25.02
-5.84
14.45
33.61
50.18
63.42
73.11
79.26
82.02
81.70
78.82
74.08
68.26
62.04
55.92
50.16
44.86
40.10
35.98
32.65
30.22
28.62
27.52
26.32
24.35
21.07
16.31
10.28
3.50
-3.46
-10.21
-16.63
-22.95
-29.64
-37.26
-46.22
-56.37
-66.82
-75.78
-80.92
-80.04
-71.83
-56.43
-35.51
-11.73
11.99
33.26
50.66
63.69
72.49
77.45
79.03
77.64
73.77
68.02
61.12
53.86
47.03
41.26
36.92
34.07
32.49
31.76
31.34
30.75
29.58
27.54
24.51
20.54
15.78
10.50
4.90
-0.97
-7.35
-14.76
-23.75
-34.53
-46.54
-58.32
-67.63
-72.05
-69.73
-60.00
-43.66
-22.79
-0.16
21.51
40.15
54.56
64.45
70.08
72.02
70.86
67.19
61.60
54.72
47.29
40.08
33.76
28.78
25.23
22.89
21.29
19.88
18.20
16.00
13.25
10.06
6.56
2.77
-1.42
-6.23
-11.93
-18.79
-27.09
-36.94
-48.12
-59.79
-70.35
-77.60
-79.33
-74.02
-61.57
-43.41
-22.19
-0.96
17.68
32.13
41.90
47.35
49.29
48.51
45.55
40.65
33.94
25.63
16.25
6.69
-1.92
-8.59
-12.73
-14.35
-13.88
-11.93
-8.93
-5.09
-0.47
4.75
10.13
14.99
18.67
20.75
21.18
20.22
18.21
15.51
12.56
10.11
9.39
11.98
19.30
32.02
49.59
70.38
92.11
112.75
131.04
146.76
160.15
171.19
178.97
181.57
176.81
163.22
140.99
112.19
80.33
49.21
21.96
0.24
-15.89
-27.58
-36.57
-44.29
-51.35
-57.29
-60.91
-60.99
-57.09
-50.06
-41.85
-34.80
-30.63
-29.94
-32.29
-36.78
-42.48
-48.57
-53.86
-56.48
-54.07
-44.67
-27.80
-5.20
19.28
40.73
54.65
58.34
51.55
36.27
15.79
-6.42
-27.62
-46.20
-61.53
-73.53
-82.25
-87.60
-89.60
-88.62
-85.49
-81.38
-77.31
-73.83
-70.81
-67.72
-64.04
-59.63
-54.87
-50.61
-47.81
-47.26
-49.19
-53.06
-57.51
-60.64
-60.52
-55.83
-46.19
-32.35
-15.88
1.36
17.66
31.72
42.70
50.05
53.49
52.93
48.72
41.59
32.68
23.36
14.93
8.47
4.59
3.33
4.10
5.73
6.78
5.94
2.59
-2.99
-9.63
-15.80
-20.22
-22.49
-23.26
-23.93
-25.99
-30.36
-36.93
-44.48
-51.04
-54.42
-52.82
-45.27
-31.82
-13.57
7.70
29.85
50.84
69.08
83.58
93.97
100.37
103.22
103.11
100.64
96.48
91.29
85.70
80.16
74.85
69.60
64.04
57.82
50.90
43.55
36.33
29.73
24.01
19.05
14.42
9.58
4.02
-2.64
-10.61
-19.91
-30.32
-41.21
-51.52
-59.83
-64.63
-64.73
-59.69
-49.98
-36.93
-22.33
-8.00
4.63
14.71
21.94
26.39
28.20
27.45
24.22
18.69
11.37
3.17
-4.78
-11.35
-15.79
-17.93
-18.12
-17.09
-15.66
-14.52
-14.14
-14.77
-16.44
-19.03
-22.30
-25.94
-29.69
-33.51
-37.64
-42.53
-48.63
-56.02
-64.10
-71.50
-76.36
-76.83
-71.72
-60.95
-45.60
-27.62
-9.21
7.80
22.25
33.72
42.24
47.99
51.09
51.60
49.62
45.50
40.01
34.38
30.16
28.88
31.52
38.03
47.10
56.38
63.28
65.94
63.98
58.58
51.83
45.71
41.16
37.81
34.42
29.64
22.64
13.36
2.33
-9.57
-21.31
-31.60
-38.94
-41.81
-39.19
-31.08
-18.68
-4.16
10.05
21.96
30.49
35.57
37.77
37.88
36.57
34.27
31.18
27.48
23.32
18.93
14.56
10.43
6.74
3.64
1.24
-0.47
-1.64
-2.53
-3.46
-4.78
-6.74
-9.46
-12.90
-16.89
-21.27
-25.93
-30.92
-36.32
-42.11
-47.87
-52.67
-55.13
-53.78
-47.64
-36.62
-21.72
-4.79
11.94
26.49
37.50
44.44
47.51
47.36
44.81
40.65
35.57
30.23
25.18
20.82
17.19
13.97
10.55
6.36
1.20
-4.57
-10.15
-14.64
-17.43
-18.48
-18.22
-17.38
-16.63
-16.48
-17.23
-19.17
-22.60
-27.84
-34.99
-43.63
-52.65
-60.26
-64.41
-63.33
-56.26
-43.73
-27.48
-9.84
6.92
21.22
32.38
40.48
45.96
49.24
50.53
49.85
47.16
42.60
36.66
30.18
24.24
19.82
17.47
17.09
17.94
18.87
18.80
17.02
13.43
8.40
2.55
-3.55
-9.51
-15.22
-20.80
-26.51
-32.66
-39.66
-47.78
-57.01
-66.82
-76.03
-82.92
-85.67
-82.91
-74.25
-60.56
-43.70
-26.09
-9.99
2.92
11.80
16.53
17.54
15.52
11.33
5.88
0.07
-5.30
-9.55
-12.14
-12.73
-11.31
-8.28
-4.53
-1.36
-0.02
-1.29
-5.03
-10.16
-15.03
-18.13
-18.59
-16.52
-12.77
-8.49
-4.74
-2.26
-1.61
-3.24
-7.53
-14.41
-23.07
-31.76
-38.12
-39.82
-35.42
-24.96
-10.02
6.82
22.84
35.96
45.21
50.65
53.05
53.36
52.34
50.40
47.68
44.18
40.03
35.48
30.91
26.71
23.13
20.31
18.21
16.77
15.90
15.41
15.03
14.33
12.82
10.12
6.15
1.21
-4.12
-9.27
-13.81
-17.69
-21.24
-25.05
-29.80
-35.99
-43.62
-51.90
-59.29
-63.78
-63.52
-57.51
-46.05
-30.71
-13.81
2.29
15.85
25.99
32.61
36.09
37.03
36.04
33.76
30.80
27.69
24.76
22.14
19.78
17.58
15.50
13.64
12.14
11.10
10.56
10.32
10.07
9.38
7.87
5.25
1.50
-3.17
-8.31
-13.40
-18.02
-22.03
-25.58
-29.16
-33.43
-38.93
-45.85
-53.73
-61.37
-66.99
-68.74
-65.22
-56.14
-42.42
-25.98
-9.11
6.17
18.58
27.65
33.49
36.49
37.04
35.60
32.69
28.94
25.04
21.56
18.77
16.65
14.98
13.52
12.20
11.16
10.62
10.71
11.32
11.96
12.01
10.88
8.28
4.35
-0.37
-5.26
-9.80
-13.82
-17.51
-21.35
-25.90
-31.67
-38.82
-46.98
-55.13
-61.63
-64.61
-62.50
-54.67
-41.74
-25.51
-8.40
7.27
19.95
29.08
34.92
38.13
39.32
38.89
37.05
34.06
30.33
26.41
22.82
19.85
17.49
15.53
13.75
12.10
10.70
9.75
9.31
9.11
8.64
7.28
4.62
0.60
-4.49
-10.07
-15.62
-20.75
-25.35
-29.62
-33.99
-39.02
-45.17
-52.48
-60.23
-66.91
-70.49
-69.14
-61.88
-49.15
-32.64
-14.81
2.00
16.15
26.97
34.56
39.33
41.73
42.08
40.64
37.79
34.04
30.00
26.20
22.94
20.24
17.94
15.88
13.99
12.43
11.41
11.03
11.08
10.98
9.99
7.48
3.26
-2.34
-8.56
-14.56
-19.74
-24.01
-27.76
-31.72
-36.67
-43.16
-51.21
-60.13
-68.47
-74.28
-75.59
-71.02
-60.31
-44.47
-25.56
-6.09
11.67
26.17
36.83
43.79
47.65
49.05
48.54
46.55
43.44
39.64
35.59
31.72
28.28
25.35
22.84
20.64
18.79
17.39
16.57
16.27
16.15
15.59
13.91
10.68
5.86
-0.09
-6.44
-12.50
-17.85
-22.52
-27.00
-32.03
-38.39
-46.49
-56.15
-66.34
-75.24
-80.64
-80.49
-73.62
-60.16
-41.65
-20.59
0.26
18.57
32.93
42.91
48.82
51.42
51.51
49.75
46.68
42.69
38.13
33.34
28.64
24.29
20.47
17.31
14.87
13.18
12.24
11.89
11.77
11.30
9.84
6.88
2.27
-3.72
-10.44
-17.21
-23.53
-29.33
-35.01
-41.27
-48.83
-58.04
-68.48
-78.80
-86.87
-90.29
-87.09
-76.53
-59.42
-37.96
-15.14
6.18
23.92
37.17
46.01
51.14
53.42
53.60
52.18
49.52
45.95
41.79
37.42
33.21
29.44
26.34
24.02
22.47
21.59
21.14
20.71
19.83
18.01
14.91
10.44
4.81
-1.54
-8.11
-14.47
-20.46
-26.25
-32.35
-39.44
-48.08
-58.26
-69.06
-78.56
-84.26
-83.80
-75.87
-60.75
-40.33
-17.53
4.59
23.69
38.54
48.95
55.42
58.63
59.22
57.69
54.56
50.36
45.67
40.99
36.64
32.75
29.34
26.45
24.19
22.73
22.14
22.30
22.77
22.91
21.97
19.43
15.10
9.24
2.44
-4.55
-11.20
-17.33
-23.30
-29.86
-37.82
-47.61
-58.80
-69.90
-78.58
-82.26
-78.96
-68.01
-50.32
-28.19
-4.61
17.50
36.00
49.78
58.71
63.38
64.72
63.69
61.14
57.74
54.00
50.31
46.90
43.87
41.12
38.50
35.92
33.50
31.56
30.44
30.27
30.76
31.20
30.74
28.77
25.14
20.18
14.57
8.97
3.80
-0.92
-5.62
-11.04
-18.11
-27.60
-39.66
-53.41
-66.78
-76.82
-80.52
-75.80
-62.29
-41.47
-16.15
10.46
35.71
57.98
76.63
91.54
102.55
109.27
111.21
108.21
100.82
90.35
78.52
66.97
56.74
48.12
40.79
34.26
28.26
22.91
18.56
15.42
13.33
11.64
9.43
5.86
0.50
-6.58
-14.82
-23.43
-31.66
-39.02
-45.51
-51.58
-58.01
-65.71
-75.25
-86.55
-98.57
-109.39
-116.56
-117.75
-111.51
-97.74
-77.88
-54.46
-30.39
-8.25
10.32
24.65
34.84
41.37
44.79
45.58
44.28
41.50
38.00
34.49
31.50
29.23
27.57
26.27
25.15
24.21
23.61
23.53
23.91
24.35
24.20
22.72
19.42
14.22
7.57
0.25
-6.92
-13.32
-18.72
-23.37
-27.90
-33.12
-39.76
-48.15
-57.85
-67.49
-74.99
-77.98
-74.65
-64.40
-48.18
-28.21
-7.35
11.85
27.70
39.63
47.87
53.02
55.64
56.07
54.51
51.27
46.86
41.93
37.17
33.04
29.75
27.24
25.39
24.12
23.40
23.15
23.11
22.74
21.36
18.38
13.59
7.28
0.19
-6.84
-13.15
-18.60
-23.54
-28.65
-34.74
-42.37
-51.58
-61.74
-71.46
-78.73
-81.42
-77.86
-67.47
-51.14
-30.99
-9.83
9.72
25.83
37.76
45.69
50.28
52.25
52.18
50.47
47.48
43.61
39.31
34.99
30.93
27.24
23.93
21.00
18.51
16.59
15.30
14.51
13.78
12.50
10.06
6.16
0.93
-5.10
-11.26
-17.00
-22.18
-27.06
-32.23
-38.39
-46.02
-55.06
-64.70
-73.32
-78.79
-79.08
-72.92
-60.35
-42.77
-22.54
-2.26
15.97
30.90
42.17
49.96
54.62
56.48
55.88
53.29
49.35
44.84
40.48
36.77
33.91
31.79
30.24
29.08
28.25
27.72
27.42
27.08
26.27
24.49
21.35
16.78
11.02
4.58
-1.98
-8.24
-14.04
-19.55
-25.16
-31.37
-38.61
-47.02
-56.17
-64.95
-71.64
-74.30
-71.40
-62.39
-48.03
-30.24
-11.52
5.82
20.22
31.08
38.63
43.42
46.04
46.84
45.98
43.58
39.89
35.37
30.54
25.96
21.96
18.69
16.11
14.15
12.74
11.85
11.34
10.90
10.02
8.18
5.07
0.71
-4.49
-9.90
-14.95
-19.37
-23.28
-27.20
-31.82
-37.79
-45.36
-54.18
-63.10
-70.34
-73.89
-72.13
-64.36
-51.13
-34.08
-15.55
2.13
17.21
28.75
36.59
41.11
42.93
42.66
40.81
37.79
33.96
29.67
25.25
21.04
17.31
14.25
11.95
10.42
9.53
9.04
8.63
7.94
6.63
4.48
1.46
-2.30
-6.54
-11.00
-15.52
-20.09
-24.98
-30.58
-37.33
-45.35
-54.18
-62.60
-68.78
-70.77
-67.10
-57.42
-42.71
-25.03
-6.93
9.32
22.28
31.49
37.32
40.49
41.73
41.52
40.07
37.49
33.92
29.65
25.11
20.77
17.05
14.24
12.40
11.44
11.11
11.02
10.75
9.86
8.06
5.20
1.38
-3.17
-8.13
-13.26
-18.45
-23.86
-29.82
-36.72
-44.71
-53.43
-61.81
-68.18
-70.60
-67.56
-58.55
-44.32
-26.76
-8.32
8.69
22.64
32.86
39.49
43.11
44.41
43.96
42.15
39.27
35.60
31.47
27.25
23.26
19.82
17.11
15.24
14.13
13.55
13.12
12.35
10.82
8.26
4.70
0.44
-4.10
-8.53
-12.70
-16.73
-21.08
-26.36
-33.15
-41.74
-51.81
-62.22
-71.04
-76.04
-75.31
-67.94
-54.48
-36.83
-17.63
0.47
15.59
26.86
34.32
38.59
40.42
40.43
39.05
36.62
33.46
29.85
26.08
22.39
18.91
15.79
13.22
11.44
10.69
11.12
12.59
14.68
16.74
18.13
18.37
17.30
15.11
12.14
8.72
4.96
0.60
-4.91
-12.23
-21.77
-33.28
-45.68
-57.12
-65.48
-68.93
-66.60
-58.83
-47.05
-33.33
-19.77
-8.08
0.71
6.27
8.83
9.05
7.81
6.11
5.01
5.50
8.43
14.31
23.18
34.45
47.07
59.70
71.13
80.42
87.04
90.72
91.36
88.96
83.67
75.87
66.22
55.52
44.57
33.96
24.07
14.95
6.41
-1.98
-10.68
-19.89
-29.25
-37.60
-43.19
-44.20
-39.45
-29.02
-14.31
2.30
18.15
31.13
40.06
44.81
46.02
44.64
41.61
37.58
32.83
27.36
20.99
13.55
5.00
-4.41
-14.11
-23.27
-30.98
-36.52
-39.61
-40.51
-39.99
-39.04
-38.55
-39.08
-40.78
-43.46
-46.80
-50.45
-54.14
-57.73
-61.24
-64.87
-69.06
-74.21
-80.33
-86.66
-91.57
-92.93
-88.81
-78.33
-62.13
-42.25
-21.55
-2.73
12.39
23.16
29.91
33.52
34.89
34.66
33.26
30.97
28.09
25.05
22.26
20.06
18.60
17.83
17.54
17.50
17.54
17.50
17.20
16.47
15.09
12.89
9.90
6.31
2.43
-1.47
-5.30
-9.27
-13.89
-19.77
-27.42
-36.78
-47.02
-56.41
-62.71
-63.78
-58.31
-46.45
-29.82
-11.02
7.13
22.49
33.99
41.62
45.98
47.85
47.85
46.42
43.88
40.59
36.92
33.21
29.68
26.39
23.38
20.67
18.40
16.74
15.81
15.52
15.51
15.24
14.18
11.97
8.61
4.37
-0.28
-4.93
-9.37
-13.73
-18.48
-24.23
-31.49
-40.23
-49.66
-58.12
-63.43
-63.57
-57.37
-45.04
-28.20
-9.30
9.07
24.93
37.31
46.15
51.94
55.32
56.77
56.60
55.02
52.29
48.73
44.71
40.56
36.51
32.70
29.27
26.40
24.31
23.06
22.53
22.30
21.78
20.36
17.66
13.67
8.67
3.17
-2.34
-7.51
-12.30
-16.93
-21.86
-27.61
-34.53
-42.55
-50.93
-58.25
-62.68
-62.50
-56.70
-45.45
-30.13
-12.95
3.77
18.19
29.35
37.15
42.00
44.47
44.94
43.62
40.65
36.30
31.07
25.59
20.54
16.41
13.43
11.56
10.59
10.28
10.42
10.79
11.10
10.97
9.99
7.90
4.71
0.78
-3.38
-7.35
-10.96
-14.43
-18.26
-23.11
-29.45
-37.33
-46.15
-54.56
-60.69
-62.64
-59.08
-49.81
-35.94
-19.57
-3.19
11.12
22.11
29.49
33.64
35.22
34.83
32.91
29.75
25.65
20.94
16.01
11.29
7.21
4.14
2.29
1.68
2.09
3.09
4.14
4.72
4.47
3.20
0.97
-2.01
-5.45
-9.04
-12.57
-16.02
-19.58
-23.69
-28.85
-35.42
-43.23
-51.43
-58.45
-62.36
-61.49
-55.01
-43.26
-27.75
-10.66
5.76
19.79
30.45
37.60
41.58
43.00
42.43
40.36
37.18
33.23
28.89
24.54
20.60
17.46
15.35
14.32
14.18
14.54
14.90
14.80
13.93
12.23
9.79
6.80
3.42
-0.26
-4.20
-8.40
-12.90
-17.83
-23.43
-30.01
-37.62
-45.81
-53.37
-58.50
-59.35
-54.65
-44.34
-29.66
-12.83
3.66
17.78
28.38
35.26
38.91
40.08
39.56
37.92
35.59
32.83
29.84
26.73
23.60
20.61
17.89
15.64
14.00
12.95
12.35
11.89
11.23
10.13
8.45
6.26
3.69
0.84
-2.24
-5.65
-9.57
-14.26
-20.00
-26.98
-35.16
-44.10
-52.77
-59.65
-63.03
-61.48
-54.45
-42.48
-27.20
-10.81
4.49
17.13
26.34
32.18
35.21
36.14
35.63
34.16
32.05
29.50
26.67
23.66
20.60
17.62
14.91
12.71
11.23
10.58
10.66
11.15
11.54
11.31
10.06
7.69
4.40
0.64
-3.12
-6.56
-9.63
-12.61
-15.98
-20.32
-26.05
-33.18
-41.03
-48.23
-52.91
-53.21
-48.02
-37.42
-22.82
-6.55
8.91
21.74
31.16
37.44
41.37
43.76
45.08
45.43
44.86
43.54
41.89
40.41
39.47
39.10
39.04
38.90
38.38
37.38
35.97
34.27
32.39
30.44
28.59
27.10
26.19
25.93
26.05
26.03
25.14
22.66
18.03
10.97
1.60
-9.35
-20.53
-29.99
-35.74
-36.26
-31.08
-21.06
-8.04
5.74
18.31
28.40
35.45
39.39
40.41
38.76
34.86
29.25
22.61
15.65
8.88
2.65
-2.84
-7.41
-10.79
-12.72
-13.13
-12.25
-10.73
-9.40
-9.06
-10.19
-12.88
-16.84
-21.56
-26.51
-31.22
-35.44
-39.25
-43.05
-47.55
-53.44
-60.92
-69.31
-76.99
-81.74
-81.54
-75.41
-63.76
-48.33
-31.53
-15.62
-2.14
8.20
15.33
19.49
21.01
20.26
17.74
14.11
10.13
6.47
3.61
1.69
0.64
0.22
0.16
0.21
0.14
-0.22
-1.08
-2.60
-4.81
-7.64
-10.78
-13.84
-16.49
-18.66
-20.63
-23.00
-26.50
-31.78
-39.08
-48.07
-57.75
-66.47
-72.29
-73.47
-69.00
-59.03
-44.94
-28.95
-13.48
-0.52
9.01
15.23
19.12
22.02
25.10
28.98
33.59
38.30
42.30
44.98
46.30
46.74
47.09
48.12
50.19
53.16
56.48
59.43
61.41
62.06
61.23
58.86
54.85
49.09
41.57
32.51
22.41
11.94
1.62
-8.38
-18.29
-28.46
-38.91
-48.95
-57.10
-61.55
-60.84
-54.52
-43.45
-29.52
-15.08
-2.23
7.69
14.22
17.62
18.52
17.64
15.62
12.97
10.07
7.18
4.47
2.01
-0.15
-1.96
-3.31
-4.12
-4.36
-4.11
-3.59
-3.10
-2.99
-3.50
-4.81
-6.87
-9.56
-12.58
-15.64
-18.44
-20.77
-22.64
-24.35
-26.50
-29.83
-34.81
-41.23
-47.90
-52.85
-53.88
-49.45
-39.31
-24.80
-8.33
7.37
20.19
29.16
34.43
36.82
37.24
36.35
34.40
31.49
27.81
23.71
19.74
16.34
13.74
11.83
10.31
8.82
7.21
5.53
3.97
2.69
1.60
0.40
-1.40
-4.24
-8.38
-13.84
-20.50
-28.26
-37.00
-46.56
-56.48
-65.95
-74.02
-79.89
-83.07
-83.42
-80.86
-75.11
-65.84
-52.95
-37.11
-19.82
-3.15
10.99
21.46
28.14
31.70
33.10
33.19
32.60
31.90
31.67
32.41
34.37
37.37
40.94
44.47
47.45
49.57
50.62
50.47
49.09
46.72
43.90
41.40
39.90
39.69
40.46
41.41
41.50
39.77
35.54
28.42
18.32
5.57
-9.02
-23.96
-37.21
-46.51
-50.07
-47.08
-38.07
-24.88
-10.10
3.59
14.15
20.56
22.98
22.42
20.25
17.65
15.23
13.07
10.88
8.37
5.50
2.44
-0.53
-3.17
-5.40
-7.25
-8.71
-9.74
-10.30
-10.49
-10.62
-11.11
-12.36
-14.52
-17.47
-20.82
-24.17
-27.31
-30.44
-34.13
-39.09
-45.75
-53.79
-62.00
-68.44
-71.10
-68.54
-60.49
-47.89
-32.53
-16.47
-1.50
11.16
20.93
27.63
31.37
32.43
31.17
28.07
23.71
18.74
13.83
9.56
6.30
4.03
2.42
0.88
-1.16
-3.97
-7.48
-11.31
-15.06
-18.44
-21.42
-24.18
-26.97
-30.05
-33.73
-38.27
-43.87
-50.56
-58.07
-65.80
-72.87
-78.26
-80.97
-80.17
-75.36
-66.47
-53.90
-38.50
-21.42
-3.91
12.94
28.34
41.85
53.36
62.93
70.68
76.65
80.80
83.05
83.36
81.87
78.95
75.10
70.86
66.66
62.83
59.54
56.89
54.90
53.40
52.04
50.25
47.53
43.57
38.48
32.69
26.77
21.22
16.24
11.79
7.63
3.33
-1.62
-7.75
-15.29
-23.87
-32.31
-38.80
-41.44
-39.02
-31.54
-20.27
-7.27
5.36
16.13
24.43
30.32
34.21
36.48
37.46
37.34
36.33
34.64
32.47
29.94
27.13
24.17
21.17
18.33
15.80
13.71
12.11
10.93
10.01
9.07
7.78
5.78
2.88
-0.91
-5.29
-9.76
-13.80
-17.14
-19.95
-22.77
-26.38
-31.30
-37.38
-43.67
-48.50
-50.05
-46.98
-38.99
-27.00
-12.84
1.32
13.55
22.66
28.31
30.95
31.51
31.08
30.59
30.57
31.01
31.44
31.20
29.76
27.07
23.52
19.89
16.98
15.28
14.83
15.25
15.90
16.09
15.24
12.95
9.03
3.54
-3.18
-10.63
-18.23
-25.55
-32.50
-39.31
-46.37
-53.85
-61.38
-67.92
-71.93
-71.93
-67.04
-57.35
-44.00
-28.76
-13.57
0.04
11.17
19.57
25.40
29.02
30.82
31.14
30.33
28.76
26.74
24.57
22.44
20.43
18.57
16.87
15.35
14.11
13.23
12.75
12.56
12.35
11.63
9.96
7.06
2.97
-1.88
-6.90
-11.50
-15.41
-18.75
-22.02
-25.93
-31.17
-38.02
-46.20
-54.69
-61.89
-65.97
-65.40
-59.43
-48.46
-33.90
-17.78
-2.18
11.37
22.09
29.91
35.22
38.47
40.05
40.26
39.40
37.89
36.17
34.60
33.31
32.13
30.77
28.98
26.81
24.60
22.85
21.93
21.85
22.18
22.16
21.04
18.33
14.04
8.61
2.77
-2.79
-7.65
-11.83
-15.75
-20.10
-25.53
-32.42
-40.61
-49.32
-57.14
-62.39
-63.54
-59.67
-50.81
-38.02
-23.06
-7.86
5.98
17.48
26.28
32.48
36.34
38.13
38.11
36.59
33.99
30.85
27.70
24.94
22.75
21.05
19.63
18.31
17.01
15.84
14.94
14.42
14.15
13.76
12.75
10.65
7.32
3.00
-1.70
-6.16
-9.92
-12.98
-15.77
-18.99
-23.36
-29.31
-36.77
-45.05
-52.86
-58.55
-60.53
-57.70
-49.91
-38.04
-23.79
-9.14
4.18
15.11
23.32
28.94
32.29
33.65
33.23
31.31
28.30
24.72
21.13
17.90
15.19
12.96
11.13
9.69
8.69
8.22
8.24
8.49
8.50
7.73
5.80
2.65
-1.45
-5.95
-10.30
-14.19
-17.65
-21.08
-25.10
-30.27
-36.79
-44.30
-51.79
-57.76
-60.58
-58.99
-52.48
-41.51
-27.43
-12.08
2.65
15.31
25.08
31.80
35.79
37.60
37.77
36.70
34.68
31.92
28.65
25.21
21.96
19.28
17.41
16.38
16.03
16.00
15.82
15.12
13.62
11.25
8.08
4.33
0.24
-3.99
-8.28
-12.69
-17.43
-22.85
-29.30
-37.00
-45.76
-54.85
-62.89
-68.11
-68.85
-64.11
-53.99
-39.73
-23.35
-7.02
7.59
19.61
28.94
35.88
40.80
43.86
45.17
44.86
43.29
41.03
38.72
36.86
35.67
35.12
34.98
34.97
34.86
34.49
33.72
32.47
30.63
28.14
24.95
21.10
16.75
12.14
7.52
3.06
-1.22
-5.57
-10.35
-15.87
-22.13
-28.61
-34.27
-37.73
-37.58
-32.74
-22.89
-8.62
8.47
25.98
41.28
52.07
57.06
56.20
50.54
41.71
31.30
20.48
9.87
-0.20
-9.45
-17.48
-23.85
-28.27
-30.68
-31.36
-30.82
-29.70
-28.65
-28.23
-28.72
-30.10
-32.04
-34.12
-35.99
-37.57
-39.06
-40.87
-43.49
-47.37
-52.81
-59.74
-67.48
-74.66
-79.29
-79.34
-73.44
-61.49
-44.90
-26.19
-8.19
6.83
17.72
24.48
27.90
28.96
28.47
26.86
24.33
21.03
17.25
13.44
10.05
7.39
5.47
4.02
2.63
1.00
-1.00
-3.24
-5.50
-7.67
-9.84
-12.23
-15.08
-18.48
-22.35
-26.56
-31.18
-36.54
-43.22
-51.74
-62.15
-73.71
-84.88
-93.60
-97.83
-96.12
-87.98
-73.99
-55.66
-35.08
-14.51
4.04
19.25
30.71
39.02
45.41
51.33
57.96
65.94
75.37
86.02
97.55
109.52
121.25
131.71
139.62
143.83
143.74
139.59
132.29
123.05
112.81
101.97
90.49
78.20
65.16
51.71
38.23
24.76
10.82
-4.39
-21.36
-39.59
-57.37
-72.06
-81.00
-82.53
-76.63
-65.04
-50.51
-35.97
-23.66
-14.66
-9.02
-6.07
-4.99
-5.13
-6.17
-8.03
-10.67
-13.83
-17.02
-19.62
-21.07
-21.13
-19.97
-18.10
-16.16
-14.70
-14.09
-14.46
-15.82
-18.10
-21.18
-24.90
-29.02
-33.22
-37.30
-41.23
-45.27
-49.94
-55.71
-62.66
-70.14
-76.62
-80.00
-78.25
-70.10
-55.64
-36.43
-15.11
5.34
22.43
34.69
41.83
44.53
44.03
41.68
38.63
35.73
33.49
32.09
31.51
31.54
31.91
32.39
32.81
33.10
33.26
33.20
32.78
31.81
30.15
27.78
24.80
21.40
17.74
13.83
9.56
4.65
-1.18
-8.17
-16.32
-25.22
-33.91
-40.96
-44.69
-43.70
-37.35
-26.06
-11.31
4.81
20.24
33.38
43.46
50.39
54.56
56.50
56.72
55.63
53.59
50.90
47.84
44.64
41.49
38.53
35.86
33.57
31.76
30.48
29.67
29.16
28.60
27.51
25.44
22.10
17.55
12.16
6.49
1.01
-4.15
-9.23
-14.81
-21.50
-29.60
-38.74
-47.90
-55.47
-59.66
-59.05
-53.00
-41.94
-27.29
-11.06
4.66
18.25
28.80
36.16
40.66
42.89
43.44
42.80
41.38
39.54
37.54
35.56
33.66
31.76
29.78
27.76
25.93
24.63
24.15
24.54
25.43
26.14
25.89
24.14
20.79
16.31
11.52
7.33
4.32
2.47
1.05
-1.28
-6.00
-14.19
-25.95
-40.09
-54.32
-65.79
-71.94
-71.26
-63.71
-50.64
-34.37
-17.55
-2.55
8.92
16.01
18.68
17.70
14.28
9.78
5.30
1.36
-2.14
-5.66
-9.73
-14.54
-19.94
-25.53
-30.97
-36.11
-40.99
-45.60
-49.72
-52.91
-54.75
-55.02
-53.79
-51.32
-47.83
-43.36
-37.80
-31.11
-23.53
-15.69
-8.50
-2.80
1.13
3.73
6.19
10.00
16.35
25.55
36.91
48.96
60.07
69.04
75.45
79.58
81.88
82.60
81.55
78.25
72.40
64.20
54.49
44.48
35.31
27.70
21.78
17.34
14.13
12.04
11.04
10.89
10.94
10.19
7.62
2.68
-4.37
-12.57
-20.56
-27.22
-32.03
-35.21
-37.60
-40.30
-44.25
-49.91
-57.09
-64.88
-71.79
-76.08
-76.21
-71.32
-61.55
-48.04
-32.67
-17.51
-4.36
5.69
12.32
15.81
16.75
15.83
13.68
10.83
7.82
5.10
3.00
1.64
0.92
0.57
0.34
0.06
-0.24
-0.48
-0.56
-0.63
-0.97
-1.99
-4.04
-7.21
-11.29
-15.81
-20.28
-24.35
-28.00
-31.53
-35.46
-40.36
-46.60
-54.16
-62.51
-70.52
-76.73
-79.58
-77.90
-71.28
-60.31
-46.39
-31.34
-16.87
-4.19
6.14
14.06
19.76
23.46
25.35
25.72
25.02
23.91
23.10
23.13
24.25
26.41
29.34
32.74
36.34
39.89
43.10
45.54
46.83
46.72
45.36
43.28
41.17
39.58
38.66
38.15
37.69
37.08
36.41
35.96
35.86
35.95
35.76
34.95
33.61
32.35
32.09
33.55
36.92
41.70
47.02
51.98
55.91
58.42
59.28
58.28
55.18
49.91
42.66
33.97
24.64
15.53
7.36
0.52
-4.98
-9.39
-13.10
-16.36
-19.18
-21.36
-22.61
-22.73
-21.87
-20.46
-19.20
-18.72
-19.41
-21.26
-23.93
-26.95
-29.92
-32.71
-35.45
-38.51
-42.28
-47.00
-52.58
-58.42
-63.42
-66.18
-65.30
-59.89
-49.92
-36.43
-21.27
-6.65
5.55
14.28
19.42
21.62
21.86
21.01
19.60
17.83
15.70
13.24
10.63
8.17
6.18
4.89
4.39
4.62
5.46
6.78
8.37
9.95
11.15
11.47
10.47
7.95
4.01
-0.90
-6.10
-10.95
-15.01
-18.32
-21.35
-24.88
-29.59
-35.73
-42.73
-49.16
-53.06
-52.66
-47.04
-36.58
-22.93
-8.47
4.51
14.42
20.70
23.69
24.18
23.06
20.99
18.42
15.62
12.83
10.21
7.88
5.83
4.03
2.40
0.93
-0.37
-1.50
-2.49
-3.45
-4.49
-5.73
-7.27
-9.19
-11.60
-14.63
-18.31
-22.60
-27.38
-32.53
-38.04
-43.96
-50.30
-56.73
-62.46
-66.17
-66.45
-62.28
-53.50
-41.01
-26.45
-11.69
1.74
13.01
21.78
27.97
31.43
32.02
29.82
25.49
20.26
15.62
12.77
12.20
13.58
16.05
18.67
20.83
22.30
23.10
23.21
22.46
20.58
17.48
13.37
8.81
4.56
1.25
-0.89
-2.20
-3.42
-5.43
-8.82
-13.55
-18.84
-23.23
-24.94
-22.35
-14.48
-1.27
16.26
36.27
56.47
74.63
89.03
98.65
103.32
103.53
100.26
94.61
87.58
79.96
72.20
64.58
57.19
49.99
42.90
35.81
28.68
21.61
14.78
8.49
2.87
-2.07
-6.60
-11.05
-15.69
-20.59
-25.67
-30.76
-35.74
-40.69
-45.79
-51.31
-57.40
-63.97
-70.54
-76.16
-79.58
-79.51
-75.07
-66.18
-53.65
-39.04
-24.25
-10.95
-0.24
7.51
12.58
15.53
17.00
17.46
17.16
16.21
14.65
12.64
10.43
8.38
6.88
6.19
6.37
7.27
8.54
9.73
10.41
10.26
9.14
7.13
4.47
1.52
-1.40
-4.10
-6.59
-9.17
-12.35
-16.72
-22.66
-30.16
-38.53
-46.41
-51.99
-53.49
-49.75
-40.77
-27.82
-13.08
1.00
12.50
20.47
25.01
26.93
27.23
26.71
25.77
24.49
22.84
20.79
18.43
15.93
13.46
11.19
9.29
7.89
7.02
6.62
6.46
6.19
5.43
3.89
1.48
-1.63
-5.09
-8.51
-11.61
-14.33
-16.87
-19.64
-23.16
-27.90
-34.01
-41.08
-48.00
-53.06
-54.44
-50.82
-41.94
-28.82
-13.51
1.56
14.32
23.58
29.21
31.84
32.43
31.82
30.53
28.75
26.53
23.94
21.19
18.59
16.51
15.16
14.66
14.93
15.80
16.97
18.08
18.72
18.55
17.33
15.06
11.95
8.35
4.63
1.03
-2.40
-5.89
-9.93
-15.03
-21.49
-28.98
-36.45
-42.24
-44.51
-41.97
-34.37
-22.68
-8.86
4.82
16.41
24.73
29.57
31.42
31.14
29.63
27.52
25.14
22.57
19.79
16.83
13.89
11.30
9.38
8.38
8.27
8.82
9.64
10.28
10.36
9.66
8.09
5.73
2.76
-0.60
-4.10
-7.59
-11.01
-14.49
-18.41
-23.26
-29.45
-36.93
-44.91
-51.82
-55.68
-54.68
-47.97
-36.07
-20.81
-4.81
9.43
20.16
26.83
29.90
30.45
29.62
28.26
26.84
25.46
24.03
22.43
20.63
18.71
16.82
15.19
14.04
13.51
13.63
14.23
14.97
15.43
15.17
13.90
11.51
8.13
4.10
-0.20
-4.39
-8.32
-12.12
-16.21
-21.10
-27.16
-34.25
-41.58
-47.71
-50.92
-49.76
-43.57
-32.83
-19.02
-4.25
9.42
20.52
28.35
32.98
34.90
34.77
33.20
30.71
27.77
24.80
22.11
19.86
18.08
16.69
15.61
14.83
14.38
14.28
14.47
14.72
14.70
14.04
12.51
10.03
6.78
3.13
-0.48
-3.70
-6.45
-9.00
-11.91
-15.93
-21.56
-28.81
-36.89
-44.29
-49.09
-49.54
-44.73
-34.88
-21.38
-6.38
7.84
19.45
27.52
31.94
33.30
32.47
30.31
27.47
24.39
21.29
18.31
15.56
13.18
11.30
9.99
9.26
8.97
8.96
9.02
8.99
8.74
8.15
7.09
5.49
3.31
0.66
-2.30
-5.38
-8.49
-11.73
-15.42
-19.94
-25.55
-32.10
-38.86
-44.56
-47.61
-46.59
-40.79
-30.52
-17.19
-2.86
10.26
20.52
27.20
30.48
31.14
30.16
28.32
26.08
23.60
20.89
18.03
15.16
12.55
10.50
9.24
8.90
9.39
10.44
11.63
12.48
12.62
11.84
10.17
7.79
5.00
2.04
-0.92
-3.89
-7.05
-10.80
-15.63
-21.99
-29.94
-38.85
-47.29
-53.35
-55.15
-51.65
-43.08
-31.03
-17.92
-6.21
2.32
7.01
8.22
6.87
4.00
0.38
-3.55
-7.59
-11.57
-15.30
-18.52
-20.96
-22.40
-22.65
-21.59
-19.17
-15.50
-10.89
-5.88
-1.08
2.91
5.77
7.50
8.31
8.50
8.22
7.42
5.85
3.17
-0.98
-6.71
-13.81
-21.52
-28.50
-33.07
-33.63
-29.26
-20.09
-7.44
6.64
19.93
30.73
38.20
42.34
43.75
43.24
41.54
39.18
36.56
33.95
31.57
29.58
28.06
26.98
26.24
25.72
25.34
25.09
24.95
24.88
24.69
24.11
22.84
20.70
17.71
14.10
10.23
6.49
3.11
0.09
-2.82
-6.07
-10.11
-15.08
-20.59
-25.60
-28.65
-28.29
-23.69
-14.99
-3.43
9.12
20.67
29.77
35.74
38.66
39.02
37.37
34.17
29.77
24.56
19.02
13.67
8.91
4.90
1.53
-1.37
-3.89
-5.89
-7.15
-7.56
-7.32
-6.96
-7.11
-8.21
-10.32
-13.13
-16.11
-18.81
-21.00
-22.79
-24.57
-26.85
-30.16
-34.80
-40.62
-46.86
-52.22
-55.06
-53.97
-48.27
-38.29
-25.41
-11.62
0.99
10.79
17.02
19.73
19.67
17.90
15.42
12.94
10.84
9.18
7.86
6.72
5.62
4.49
3.28
1.99
0.69
-0.54
-1.63
-2.56
-3.36
-4.03
-4.58
-4.93
-5.09
-5.13
-5.24
-5.75
-7.01
-9.35
-13.00
-18.02
-24.15
-30.71
-36.60
-40.47
-41.03
-37.47
-29.81
-18.93
-6.38
6.06
16.80
24.82
29.79
31.91
31.81
30.20
27.75
24.98
22.20
19.63
17.40
15.61
14.32
13.54
13.24
13.31
13.59
13.83
13.78
13.23
12.03
10.13
7.64
4.76
1.71
-1.35
-4.35
-7.37
-10.67
-14.66
-19.73
-26.04
-33.23
-40.26
-45.61
-47.62
-45.13
-37.91
-26.89
-13.84
-0.88
10.19
18.28
23.16
25.27
25.37
24.19
22.31
20.10
17.75
15.38
13.08
10.91
8.95
7.29
6.02
5.22
4.94
5.13
5.60
6.06
6.20
5.73
4.51
2.55
0.03
-2.82
-5.77
-8.68
-11.60
-14.82
-18.78
-23.84
-30.01
-36.68
-42.60
-46.12
-45.75
-40.67
-31.19
-18.69
-5.20
7.24
17.16
23.95
27.82
29.43
29.53
28.65
27.10
25.00
22.47
19.65
16.77
14.06
11.71
9.88
8.66
8.07
8.03
8.28
8.50
8.33
7.50
5.92
3.67
0.93
-2.10
-5.26
-8.46
-11.69
-15.04
-18.80
-23.34
-29.02
-35.80
-42.96
-49.06
-52.25
-50.85
-44.17
-32.81
-18.62
-4.06
8.60
17.93
23.63
26.24
26.73
26.00
24.64
22.90
20.85
18.54
16.12
13.81
11.80
10.20
8.90
7.77
6.66
5.58
4.61
3.87
3.33
2.73
1.77
0.24
-1.79
-3.95
-5.82
-7.16
-8.10
-9.22
-11.29
-14.91
-20.21
-26.60
-32.80
-37.12
-37.99
-34.41
-26.44
-15.19
-2.53
9.45
19.12
25.67
29.16
30.25
29.74
28.29
26.25
23.79
20.98
17.98
15.01
12.36
10.30
9.01
8.51
8.70
9.33
10.01
10.40
10.17
9.24
7.66
5.62
3.32
0.88
-1.69
-4.42
-7.44
-10.94
-15.22
-20.52
-26.84
-33.67
-39.92
-44.05
-44.57
-40.65
-32.48
-21.34
-9.17
2.06
10.94
16.93
20.21
21.41
21.24
20.19
18.58
16.55
14.24
11.80
9.43
7.27
5.44
3.98
2.97
2.45
2.48
2.97
3.71
4.34
4.47
3.79
2.22
-0.11
-2.88
-5.81
-8.71
-11.59
-14.71
-18.51
-23.41
-29.60
-36.81
-44.08
-49.86
-52.45
-50.53
-43.72
-32.78
-19.48
-5.96
5.88
14.87
20.70
23.76
24.74
24.34
23.12
21.38
19.34
17.14
14.92
12.80
10.85
9.08
7.41
5.79
4.20
2.80
1.81
1.42
1.55
1.78
1.49
0.10
-2.59
-6.22
-9.96
-12.88
-14.38
-14.44
-13.62
-12.84
-12.99
-14.58
-17.50
-20.96
-23.57
-23.61
-19.52
-10.46
3.29
20.22
37.95
54.01
66.55
74.90
79.42
81.11
80.96
79.55
77.12
73.73
69.63
65.25
61.04
57.23
53.59
49.60
44.74
38.84
32.17
25.38
19.07
13.52
8.52
3.49
-2.13
-8.61
-15.74
-22.95
-29.59
-35.19
-39.61
-43.00
-45.81
-48.61
-52.02
-56.49
-62.12
-68.36
-74.03
-77.50
-77.17
-72.09
-62.29
-48.95
-33.96
-19.38
-6.92
2.52
8.75
12.20
13.52
13.37
12.27
10.61
8.73
7.03
5.87
5.48
5.88
6.81
7.85
8.64
9.09
9.39
9.93
10.97
12.44
13.88
14.61
14.00
11.79
8.25
4.04
0.01
-3.20
-5.36
-6.75
-8.03
-10.04
-13.49
-18.75
-25.59
-33.13
-39.90
-44.22
-44.61
-40.32
-31.63
-19.79
-6.69
5.72
15.94
23.22
27.49
29.12
28.68
26.71
23.72
20.17
16.52
13.17
10.41
8.29
6.75
5.65
4.91
4.57
4.71
5.41
6.54
7.84
8.82
9.04
8.18
6.20
3.35
0.06
-3.18
-6.07
-8.54
-10.84
-13.45
-16.95
-21.76
-27.96
-35.04
-41.91
-46.99
-48.61
-45.57
-37.57
-25.49
-11.16
3.12
15.28
24.04
29.08
30.90
30.42
28.59
26.07
23.24
20.27
17.22
14.21
11.43
9.13
7.56
6.90
7.15
8.09
9.28
10.18
10.34
9.53
7.76
5.29
2.41
-0.62
-3.67
-6.70
-9.74
-12.93
-16.58
-21.07
-26.82
-33.90
-41.77
-49.13
-54.12
-54.91
-50.37
-40.63
-27.13
-12.20
1.74
12.88
20.45
24.62
26.09
25.69
24.05
21.60
18.69
15.65
12.82
10.37
8.30
6.39
4.43
2.35
0.25
-1.57
-2.89
-3.70
-4.23
-4.82
-5.83
-7.45
-9.73
-12.65
-16.14
-20.13
-24.56
-29.33
-34.40
-39.72
-45.22
-50.62
-55.23
-57.90
-57.25
-52.03
-41.72
-26.78
-8.75
10.17
27.60
41.73
51.68
57.65
60.61
61.82
62.31
62.57
62.68
62.53
62.11
61.60
61.22
61.03
60.71
59.73
57.54
53.89
48.95
43.13
36.81
30.19
23.20
15.70
7.66
-0.71
-8.97
-16.61
-23.34
-29.25
-34.87
-40.92
-47.97
-55.99
-64.06
-70.52
-73.49
-71.51
-64.19
-52.43
-38.14
-23.65
-10.90
-1.08
5.52
9.28
10.86
10.88
9.82
8.05
5.90
3.67
1.62
-0.08
-1.39
-2.35
-3.01
-3.36
-3.35
-2.99
-2.48
-2.21
-2.63
-4.09
-6.60
-9.83
-13.29
-16.58
-19.62
-22.64
-26.11
-30.46
-35.95
-42.59
-50.02
-57.55
-64.06
-68.11
-68.23
-63.48
-53.86
-40.51
-25.43
-10.81
1.68
11.37
18.56
24.11
28.80
32.96
36.43
38.74
39.50
38.60
36.29
33.03
29.34
25.66
22.32
19.58
17.60
16.42
15.85
15.53
14.99
13.81
11.79
9.10
6.16
3.60
2.05
1.93
3.34
5.83
8.51
10.13
9.57
6.37
1.13
-4.43
-7.86
-6.84
-0.04
12.36
28.60
46.01
61.81
73.95
81.56
84.92
85.08
83.23
80.30
76.77
72.77
68.31
63.52
58.63
53.90
49.43
45.08
40.56
35.59
30.12
24.26
18.24
12.15
5.84
-1.03
-8.78
-17.43
-26.63
-35.63
-43.64
-50.04
-54.71
-58.04
-60.93
-64.38
-69.19
-75.44
-82.34
-88.20
-91.03
-89.06
-81.50
-68.82
-52.71
-35.47
-19.36
-5.99
3.96
10.64
14.68
16.85
17.81
18.02
17.78
17.26
16.53
15.67
14.72
13.79
12.97
12.41
12.25
12.57
13.32
14.29
15.09
15.26
14.40
12.31
9.06
4.99
0.59
-3.65
-7.43
-10.77
-13.98
-17.67
-22.47
-28.79
-36.53
-44.83
-52.16
-56.70
-56.83
-51.76
-41.75
-28.15
-12.91
1.98
14.93
25.01
31.98
36.01
37.55
37.16
35.40
32.83
29.98
27.24
24.86
22.86
21.14
19.52
17.91
16.31
14.86
13.76
13.12
12.87
12.74
12.32
11.12
8.80
5.28
0.80
-4.12
-8.84
-12.89
-16.18
-19.07
-22.31
-26.68
-32.68
-40.10
-47.97
-54.66
-58.34
-57.50
-51.52
-40.87
-27.04
-12.12
1.80
13.14
21.11
25.70
27.39
26.86
24.72
21.44
17.41
12.94
8.41
4.18
0.60
-2.12
-3.94
-4.95
-5.32
-5.23
-4.76
-3.94
-2.77
-1.38
0.02
1.16
1.87
2.17
2.26
2.40
2.72
3.20
3.66
3.82
3.46
2.43
0.81
-1.07
-2.50
-2.41
0.33
6.51
16.12
28.23
41.17
53.14
62.78
69.46
73.20
74.31
73.08
69.65
64.19
57.00
48.71
40.04
31.70
24.13
17.59
12.13
7.80
4.69
2.78
1.87
1.53
1.10
-0.09
-2.50
-6.23
-10.96
-16.11
-21.00
-25.16
-28.48
-31.23
-33.94
-37.28
-41.78
-47.64
-54.51
-61.43
-66.95
-69.42
-67.50
-60.65
-49.38
-35.17
-20.04
-5.99
5.58
14.04
19.47
22.41
23.47
23.16
21.84
19.75
17.16
14.42
11.87
9.80
8.27
7.19
6.34
5.54
4.80
4.20
3.88
3.76
3.59
2.90
1.22
-1.72
-5.87
-10.85
-16.08
-20.95
-25.01
-28.15
-30.74
-33.47
-37.04
-41.65
-46.69
-50.58
-51.26
-46.86
-36.50
-20.67
-1.15
19.59
39.17
55.74
68.20
76.08
79.36
78.46
74.33
68.48
62.68
58.48
56.68
57.06
58.54
59.77
59.72
58.07
55.17
51.60
47.82
43.83
39.34
34.01
27.69
20.56
13.01
5.46
-1.78
-8.66
-15.37
-22.23
-29.63
-37.88
-47.02
-56.62
-65.70
-72.84
-76.49
-75.46
-69.39
-58.94
-45.67
-31.64
-18.84
-8.69
-1.80
1.97
3.27
2.91
1.62
-0.10
-1.98
-3.93
-5.94
-8.00
-10.08
-12.05
-13.74
-14.89
-15.29
-14.92
-14.01
-13.09
-12.84
-13.83
-16.25
-19.88
-24.15
-28.39
-32.12
-35.29
-38.20
-41.44
-45.62
-51.17
-58.06
-65.68
-72.71
-77.31
-77.55
-72.07
-60.73
-44.85
-26.97
-9.97
3.92
13.90
20.79
26.46
33.05
42.09
54.02
68.20
83.30
97.81
110.45
120.47
127.78
132.95
137.09
141.53
147.54
155.77
166.05
177.29
187.79
195.74
199.76
199.22
194.39
186.26
176.23
165.69
155.63
146.06
135.80
122.47
103.33
76.38
41.57
1.43
-39.43
-75.63
-102.85
-119.12
-125.22
-123.99
-118.98
-113.25
-108.50
-105.14
-102.72
-100.59
-98.25
-95.53
-92.38
-88.74
-84.52
-79.75
-74.80
-70.52
-67.99
-68.07
-70.86
-75.43
-79.99
-82.60
-81.99
-78.17
-72.40
-66.65
-62.67
-61.25
-62.03
-63.80
-65.34
-66.04
-66.23
-66.98
-69.41
-73.99
-80.21
-86.63
-91.40
-92.93
-90.26
-83.30
-72.54
-58.89
-43.47
-27.51
-12.29
0.95
11.19
17.82
20.83
20.77
18.61
15.49
12.50
10.47
9.89
10.77
12.75
15.27
17.75
19.81
21.33
22.31
22.70
22.25
20.56
17.30
12.34
5.92
-1.55
-9.68
-18.41
-28.00
-38.81
-50.86
-63.46
-75.20
-84.37
-89.66
-90.91
-89.24
-86.67
-85.37
-86.78
-91.26
-98.33
-107.17
-117.21
-128.18
-139.89
-151.69
-162.22
-169.68
-172.39
-169.40
-160.73
-147.23
-130.21
-111.06
-91.02
-71.17
-52.43
-35.42
-20.37
-6.94
5.62
18.14
30.99
43.68
54.91
63.12
67.34
67.87
66.40
65.47
67.50
73.92
84.80
99.17
115.70
133.27
151.05
168.25
183.70
195.85
203.15
204.61
200.24
191.12
178.96
165.55
152.26
139.82
128.46
118.07
108.50
99.57
91.10
82.83
74.42
65.49
55.84
45.52
34.89
24.45
14.68
5.81
-2.24
-9.85
-17.55
-25.78
-34.58
-43.41
-51.15
-56.30
-57.50
-54.05
-46.28
-35.46
-23.37
-11.64
-1.26
7.53
14.97
21.30
26.40
29.78
30.92
29.56
26.03
21.10
15.73
10.76
6.66
3.57
1.36
-0.22
-1.43
-2.45
-3.40
-4.31
-5.13
-5.89
-6.69
-7.80
-9.64
-12.58
-16.89
-22.57
-29.36
-36.68
-43.68
-49.24
-52.12
-51.18
-45.74
-35.91
-22.75
-8.02
6.28
18.44
27.50
33.34
36.44
37.48
37.02
35.29
32.34
28.24
23.28
18.03
13.20
9.37
6.78
5.25
4.35
3.54
2.46
1.03
-0.66
-2.41
-4.11
-5.83
-7.78
-10.29
-13.74
-18.48
-24.65
-32.07
-40.04
-47.34
-52.44
-53.91
-50.85
-43.31
-32.20
-19.11
-5.75
6.47
16.63
24.38
29.69
32.66
33.42
32.12
29.07
24.75
19.86
15.12
11.12
8.14
6.07
4.53
3.09
1.50
-0.25
-1.92
-3.20
-4.01
-4.46
-4.96
-5.92
-7.73
-10.70
-15.01
-20.70
-27.61
-35.07
-41.91
-46.56
-47.49
-43.74
-35.37
-23.47
-9.86
3.55
15.33
24.77
31.81
36.72
39.76
40.96
40.27
37.75
33.75
28.91
24.02
19.75
16.40
13.87
11.81
9.81
7.66
5.37
3.15
1.21
-0.39
-1.80
-3.35
-5.44
-8.45
-12.61
-18.01
-24.59
-32.02
-39.63
-46.32
-50.67
-51.24
-47.05
-37.98
-24.98
-9.85
5.32
18.75
29.41
37.08
42.12
45.06
46.23
45.72
43.51
39.73
34.81
29.43
24.35
20.14
16.96
14.61
12.66
10.68
8.47
6.07
3.67
1.42
-0.68
-2.84
-5.40
-8.68
-12.98
-18.47
-25.28
-33.29
-41.99
-50.29
-56.56
-59.00
-56.21
-47.79
-34.57
-18.47
-1.85
13.13
25.13
33.74
39.29
42.45
43.78
43.60
41.96
38.86
34.51
29.38
24.15
19.51
15.90
13.35
11.52
9.90
8.09
5.93
3.52
1.06
-1.28
-3.56
-5.97
-8.78
-12.24
-16.54
-21.80
-28.10
-35.35
-43.17
-50.56
-56.05
-57.89
-54.69
-45.95
-32.41
-15.93
1.09
16.37
28.44
36.80
41.77
44.07
44.45
43.35
41.01
37.55
33.13
28.13
23.06
18.45
14.70
11.95
10.04
8.59
7.19
5.50
3.41
1.01
-1.48
-3.91
-6.26
-8.69
-11.48
-14.92
-19.32
-24.89
-31.73
-39.73
-48.28
-56.22
-61.83
-63.27
-59.17
-49.24
-34.52
-17.17
0.21
15.37
26.96
34.66
38.95
40.62
40.44
38.97
36.59
33.53
30.00
26.16
22.23
18.45
15.09
12.45
10.80
10.24
10.68
11.85
13.33
14.74
15.74
16.09
15.65
14.31
12.02
8.76
4.59
-0.43
-6.33
-13.16
-20.86
-29.02
-36.70
-42.40
-44.46
-41.66
-33.77
-21.80
-7.70
6.26
18.22
27.21
33.17
36.58
38.11
38.18
37.03
34.77
31.54
27.63
23.40
19.19
15.24
11.71
8.71
6.32
4.53
3.22
2.13
0.89
-0.78
-3.06
-5.94
-9.26
-12.84
-16.53
-20.23
-23.99
-28.00
-32.58
-38.10
-44.64
-51.73
-58.08
-61.83
-61.06
-54.57
-42.44
-26.15
-8.12
9.13
23.65
34.49
41.62
45.51
46.79
45.94
43.29
39.18
34.03
28.43
23.08
18.64
15.53
13.81
13.10
12.72
11.91
10.11
7.15
3.25
-1.07
-5.28
-8.98
-12.07
-14.64
-16.98
-19.48
-22.66
-27.03
-32.97
-40.35
-48.38
-55.47
-59.60
-58.95
-52.51
-40.58
-24.78
-7.50
8.77
22.16
31.75
37.54
40.16
40.43
39.08
36.67
33.53
29.93
26.12
22.36
18.88
15.80
13.15
10.82
8.67
6.57
4.43
2.24
0.07
-2.01
-3.91
-5.64
-7.26
-8.96
-10.98
-13.70
-17.43
-22.48
-28.96
-36.60
-44.67
-51.84
-56.45
-56.85
-52.02
-41.95
-27.83
-11.69
4.18
17.89
28.39
35.50
39.69
41.65
41.97
41.01
38.89
35.71
31.64
26.98
22.16
17.61
13.71
10.69
8.61
7.37
6.71
6.31
5.83
5.00
3.58
1.46
-1.40
-4.98
-9.13
-13.67
-18.45
-23.51
-29.05
-35.33
-42.38
-49.66
-55.95
-59.57
-58.86
-52.89
-41.87
-27.16
-10.85
4.91
18.54
29.23
36.89
41.86
44.56
45.32
44.42
42.15
38.89
35.06
31.08
27.23
23.65
20.46
17.76
15.72
14.44
13.88
13.73
13.53
12.75
11.08
8.50
5.26
1.76
-1.70
-5.04
-8.47
-12.42
-17.37
-23.63
-31.11
-39.11
-46.31
-51.04
-51.67
-47.19
-37.58
-23.87
-7.91
8.17
22.52
33.95
41.97
46.72
48.65
48.36
46.40
43.30
39.52
35.43
31.27
27.17
23.16
19.28
15.66
12.49
10.03
8.39
7.42
6.74
5.87
4.43
2.31
-0.33
-3.21
-6.17
-9.24
-12.63
-16.62
-21.38
-27.02
-33.53
-40.77
-48.31
-55.20
-59.96
-60.88
-56.61
-46.76
-32.32
-15.46
1.22
15.46
26.02
32.81
36.52
38.05
38.07
36.85
34.46
31.00
26.75
22.11
17.55
13.41
9.91
7.19
5.29
4.23
3.88
3.93
3.94
3.45
2.12
-0.14
-3.11
-6.41
-9.60
-12.36
-14.59
-16.42
-18.27
-20.75
-24.45
-29.74
-36.42
-43.52
-49.42
-52.16
-50.11
-42.56
-30.11
-14.54
1.75
16.41
27.86
35.52
39.64
40.92
40.07
37.60
33.87
29.22
24.08
19.01
14.56
11.06
8.61
7.03
6.00
5.19
4.39
3.53
2.66
1.85
1.09
0.29
-0.68
-1.95
-3.56
-5.50
-7.72
-10.28
-13.45
-17.54
-22.69
-28.49
-33.79
-36.85
-35.87
-29.69
-18.38
-3.31
13.24
28.92
41.92
51.47
57.66
61.07
62.33
61.93
60.15
57.28
53.60
49.37
44.75
39.74
34.29
28.42
22.38
16.60
11.54
7.52
4.52
2.21
0.07
-2.41
-5.56
-9.42
-13.87
-18.64
-23.53
-28.53
-33.83
-39.79
-46.67
-54.41
-62.28
-68.88
-72.40
-71.14
-64.11
-51.49
-34.63
-15.72
2.82
18.95
31.42
39.88
44.73
46.86
47.23
46.56
45.15
42.84
39.23
34.02
27.23
19.37
11.28
3.85
-2.30
-7.03
-10.61
-13.59
-16.50
-19.66
-23.13
-26.76
-30.31
-33.66
-36.79
-39.82
-42.98
-46.49
-50.65
-55.70
-61.71
-68.34
-74.64
-79.04
-79.74
-75.22
-64.95
-49.65
-31.26
-12.30
4.88
18.68
28.52
34.66
37.76
38.60
37.78
35.75
32.90
29.55
26.01
22.50
19.14
16.00
13.19
10.83
9.08
8.03
7.55
7.29
6.75
5.48
3.22
0.04
-3.77
-7.82
-11.82
-15.74
-19.76
-24.30
-29.80
-36.61
-44.63
-53.21
-60.97
-66.08
-66.69
-61.64
-50.89
-35.72
-18.28
-0.95
14.38
26.69
35.82
42.08
45.86
47.46
47.05
44.90
41.46
37.31
33.06
29.10
25.59
22.55
20.01
18.12
17.07
16.97
17.65
18.61
19.15
18.58
16.54
13.06
8.58
3.70
-1.01
-5.28
-9.18
-13.05
-17.45
-22.98
-30.06
-38.62
-47.88
-56.21
-61.52
-61.76
-55.78
-43.73
-27.23
-8.84
8.79
23.61
34.65
41.88
45.88
47.35
46.86
44.79
41.47
37.29
32.71
28.19
24.06
20.52
17.62
15.34
13.67
12.61
12.08
11.87
11.64
10.96
9.44
6.86
3.22
-1.22
-6.07
-10.92
-15.52
-19.91
-24.44
-29.69
-36.29
-44.48
-53.82
-62.97
-69.89
-72.35
-68.70
-58.51
-42.86
-24.01
-4.68
12.74
26.80
37.08
43.92
47.92
49.65
49.46
47.67
44.67
40.95
37.02
33.24
29.81
26.77
24.13
22.00
20.53
19.80
19.65
19.59
18.92
17.01
13.49
8.45
2.39
-4.05
-10.28
-16.05
-21.50
-27.10
-33.55
-41.57
-51.59
-63.44
-76.06
-87.45
-95.08
-96.59
-90.73
-77.90
-60.21
-40.80
-22.81
-8.47
1.34
6.97
9.45
9.87
9.05
7.46
5.39
3.10
0.89
-0.90
-2.00
-2.32
-1.90
-0.88
0.58
2.39
4.48
6.77
9.03
10.94
12.09
12.15
11.02
8.97
6.48
3.99
1.70
-0.69
-3.83
-8.52
-15.19
-23.47
-32.03
-38.70
-41.03
-37.02
-25.80
-7.97
14.48
38.72
61.83
81.45
96.27
106.01
111.23
112.93
112.10
109.58
105.85
101.11
95.31
88.28
79.90
70.28
59.90
49.71
40.86
34.37
30.64
29.21
28.86
28.04
25.45
20.54
13.64
5.73
-2.02
-8.71
-13.96
-18.01
-21.54
-25.54
-31.05
-38.84
-49.10
-61.06
-72.97
-82.26
-86.26
-83.06
-72.26
-55.28
-35.08
-15.21
1.20
12.22
17.46
17.77
14.74
10.11
5.25
0.98
-2.49
-5.39
-8.14
-11.04
-14.09
-16.95
-19.12
-20.22
-20.25
-19.54
-18.64
-18.02
-17.92
-18.35
-19.24
-20.60
-22.50
-25.07
-28.29
-32.07
-36.35
-41.23
-47.02
-54.02
-62.09
-70.35
-77.04
-79.88
-76.85
-66.95
-50.66
-29.89
-7.43
13.88
31.81
45.16
53.77
58.21
59.39
58.27
55.66
52.16
48.18
43.99
39.75
35.65
31.86
28.61
26.07
24.30
23.18
22.40
21.53
20.15
18.00
15.10
11.65
7.98
4.35
0.84
-2.73
-6.76
-11.81
-18.36
-26.57
-35.98
-45.29
-52.49
-55.35
-52.12
-42.25
-26.71
-7.77
11.73
29.23
43.12
52.88
58.86
61.75
62.24
60.77
57.66
53.21
47.84
42.09
36.51
31.60
27.64
24.68
22.57
20.97
19.50
17.80
15.62
12.93
9.80
6.37
2.80
-0.87
-4.66
-8.72
-13.33
-18.89
-25.91
-34.69
-45.07
-56.02
-65.59
-71.35
-71.12
-63.84
-50.10
-32.06
-12.73
4.95
18.98
28.63
34.26
36.79
37.18
36.11
33.97
30.97
27.38
23.59
20.04
17.15
15.16
14.04
13.53
13.26
12.88
12.15
10.99
9.43
7.51
5.23
2.55
-0.62
-4.34
-8.64
-13.56
-19.26
-25.96
-33.88
-42.90
-52.33
-60.76
-66.26
-66.99
-61.77
-50.64
-34.86
-16.64
1.63
17.86
30.79
39.99
45.66
48.40
48.91
47.87
45.78
43.00
39.75
36.15
32.39
28.68
25.35
22.67
20.81
19.76
19.33
19.22
19.06
18.52
17.36
15.48
12.96
10.02
6.90
3.79
0.70
-2.62
-6.59
-11.72
-18.30
-26.11
-34.19
-40.87
-44.15
-42.36
-34.78
-22.09
-6.20
10.37
25.29
37.01
45.07
49.74
51.63
51.28
49.02
45.06
39.72
33.51
27.13
21.23
16.31
12.57
9.93
8.11
6.80
5.72
4.74
3.81
2.92
2.06
1.17
0.20
-0.92
-2.24
-3.76
-5.46
-7.30
-9.34
-11.84
-15.22
-19.98
-26.30
-33.69
-40.77
-45.45
-45.57
-39.74
-28.04
-12.19
4.98
20.43
31.96
38.70
41.10
40.30
37.50
33.49
28.65
23.14
17.22
11.40
6.23
2.16
-0.72
-2.58
-3.78
-4.54
-4.95
-5.02
-4.84
-4.65
-4.84
-5.78
-7.67
-10.41
-13.65
-16.92
-19.91
-22.55
-25.17
-28.32
-32.64
-38.42
-45.40
-52.56
-58.30
-60.82
-58.72
-51.49
-39.76
-25.08
-9.52
4.95
16.89
25.57
30.96
33.43
33.53
31.82
28.80
24.98
20.86
16.92
13.54
10.93
9.09
7.90
7.21
6.90
6.86
6.96
6.92
6.39
4.98
2.51
-0.92
-4.89
-8.84
-12.33
-15.18
-17.51
-19.77
-22.56
-26.49
-31.99
-39.01
-46.82
-53.95
-58.45
-58.43
-52.76
-41.58
-26.38
-9.60
6.20
19.05
28.09
33.49
36.05
36.71
36.15
34.78
32.76
30.19
27.23
24.06
20.85
17.77
14.94
12.52
10.68
9.54
9.08
9.07
9.11
8.72
7.48
5.17
1.86
-2.11
-6.26
-10.14
-13.52
-16.49
-19.48
-23.15
-28.14
-34.74
-42.62
-50.63
-57.00
-59.75
-57.32
-49.22
-36.24
-20.31
-3.85
10.91
22.54
30.52
35.10
36.90
36.61
34.82
32.06
28.82
25.58
22.69
20.36
18.53
17.04
15.66
14.29
13.01
12.00
11.45
11.40
11.58
11.50
10.61
8.54
5.27
1.14
-3.28
-7.41
-10.93
-13.84
-16.53
-19.63
-23.84
-29.57
-36.72
-44.46
-51.25
-55.21
-54.71
-48.94
-38.31
-24.38
-9.35
4.63
16.01
24.12
29.06
31.34
31.55
30.17
27.56
24.11
20.24
16.44
13.13
10.53
8.64
7.31
6.39
5.81
5.68
6.11
7.05
8.22
9.04
8.92
7.42
4.52
0.61
-3.66
-7.69
-11.13
-14.03
-16.81
-20.09
-24.49
-30.39
-37.72
-45.74
-53.01
-57.64
-57.82
-52.49
-41.83
-27.40
-11.64
2.90
14.32
21.83
25.67
26.70
25.85
23.80
20.94
17.51
13.82
10.28
7.30
5.12
3.71
2.77
1.95
1.03
0.03
-0.83
-1.34
-1.51
-1.63
-2.15
-3.42
-5.58
-8.39
-11.41
-14.14
-16.34
-18.08
-19.85
-22.30
-25.94
-30.79
-36.06
-40.29
-41.71
-38.92
-31.43
-19.97
-6.14
8.12
21.13
31.88
39.99
45.49
48.53
49.23
47.67
44.05
38.77
32.40
25.58
18.93
12.88
7.71
3.53
0.39
-1.70
-2.77
-2.99
-2.65
-2.30
-2.53
-3.81
-6.25
-9.60
-13.30
-16.82
-19.90
-22.70
-25.76
-29.76
-35.23
-42.25
-50.28
-58.12
-64.15
-66.63
-64.27
-56.58
-44.16
-28.53
-11.80
3.93
17.08
26.85
33.23
36.73
38.09
37.92
36.64
34.48
31.61
28.26
24.75
21.46
18.74
16.81
15.71
15.40
15.66
16.20
16.64
16.52
15.39
12.96
9.24
4.53
-0.59
-5.52
-9.83
-13.48
-16.90
-20.84
-26.14
-33.33
-42.26
-51.87
-60.32
-65.40
-65.25
-58.99
-47.13
-31.39
-14.22
2.01
15.62
25.88
32.88
37.15
39.27
39.72
38.83
36.90
34.28
31.28
28.15
25.02
21.97
19.08
16.52
14.52
13.23
12.63
12.49
12.43
12.05
11.07
9.33
6.76
3.38
-0.73
-5.39
-10.35
-15.45
-20.70
-26.44
-33.05
-40.66
-48.70
-55.74
-59.79
-58.94
-52.20
-39.98
-24.07
-7.02
8.65
21.23
30.10
35.53
38.30
39.15
38.59
36.86
34.04
30.27
25.78
20.98
16.39
12.61
10.16
9.38
10.18
11.97
13.73
14.34
12.98
9.49
4.38
-1.36
-6.71
-11.06
-14.32
-16.87
-19.41
-22.69
-27.40
-33.98
-42.37
-51.75
-60.34
-65.80
-65.81
-59.05
-45.79
-27.91
-8.34
9.96
24.91
35.65
42.46
46.17
47.66
47.55
46.23
43.92
40.88
37.43
33.87
30.48
27.46
24.92
22.89
21.30
19.99
18.74
17.32
15.54
13.33
10.69
7.63
4.15
0.19
-4.27
-9.26
-14.76
-20.85
-27.71
-35.58
-44.39
-53.46
-61.31
-65.87
-65.15
-57.98
-44.65
-26.94
-7.55
10.75
25.93
37.05
44.22
48.10
49.47
49.02
47.21
44.45
41.07
37.37
33.57
29.79
26.16
22.84
20.03
17.93
16.64
16.03
15.74
15.30
14.23
12.20
9.11
5.10
0.47
-4.43
-9.34
-14.16
-19.04
-24.41
-30.77
-38.47
-47.31
-56.30
-63.70
-67.35
-65.48
-57.32
-43.53
-26.06
-7.54
9.57
23.60
33.93
40.78
44.75
46.48
46.44
44.96
42.37
39.08
35.48
31.90
28.50
25.29
22.27
19.52
17.23
15.57
14.55
13.94
13.22
11.86
9.47
6.04
1.94
-2.23
-5.95
-9.01
-11.59
-14.27
-17.85
-23.13
-30.58
-40.02
-50.40
-59.76
-65.67
-65.91
-59.25
-46.06
-28.24
-8.71
9.58
24.45
34.96
41.32
44.38
45.15
44.40
42.60
40.04
36.94
33.53
30.06
26.72
23.67
20.98
18.66
16.71
15.07
13.72
12.61
11.68
10.85
10.00
8.92
7.43
5.42
2.96
0.32
-2.18
-4.29
-6.14
-8.28
-11.49
-16.52
-23.54
-31.86
-39.82
-45.20
-45.84
-40.47
-29.19
-13.57
3.80
20.07
32.87
40.92
44.11
43.29
39.77
34.87
29.55
24.35
19.46
14.95
10.94
7.68
5.45
4.44
4.54
5.37
6.36
6.96
6.85
5.91
4.28
2.11
-0.41
-3.17
-6.07
-9.06
-12.10
-15.26
-18.76
-22.95
-28.23
-34.79
-42.29
-49.76
-55.62
-58.10
-55.79
-48.16
-35.90
-20.70
-4.78
9.75
21.42
29.62
34.52
36.71
36.94
35.87
33.98
31.58
28.89
26.01
23.04
20.07
17.25
14.77
12.87
11.71
11.35
11.64
12.21
12.57
12.17
10.62
7.81
3.93
-0.54
-5.04
-9.14
-12.72
-16.07
-19.86
-24.81
-31.38
-39.38
-47.73
-54.68
-58.21
-56.73
-49.70
-37.82
-22.82
-6.92
7.87
20.16
29.27
35.12
37.96
38.22
36.42
33.20
29.27
25.22
21.39
17.83
14.36
10.75
6.97
3.28
0.18
-1.76
-2.23
-1.36
0.23
1.56
1.62
-0.25
-4.12
-9.35
-14.80
-19.13
-21.38
-21.28
-19.48
-17.41
-16.82
-19.12
-24.74
-32.79
-41.11
-46.94
-47.75
-42.11
-30.27
-13.98
3.98
20.75
34.11
43.02
47.54
48.58
47.27
44.60
41.23
37.50
33.63
29.83
26.35
23.40
21.05
19.18
17.60
16.18
14.95
14.04
13.58
13.43
13.20
12.24
10.00
6.23
1.16
-4.54
-10.02
-14.55
-17.81
-20.12
-22.33
-25.54
-30.62
-37.69
-45.87
-53.38
-58.05
-58.09
-52.70
-42.37
-28.72
-13.87
0.14
11.83
20.47
25.95
28.52
28.64
26.85
23.81
20.22
16.76
13.88
11.73
10.14
8.75
7.29
5.77
4.46
3.82
4.13
5.37
6.98
8.17
8.11
6.36
2.97
-1.51
-6.32
-10.80
-14.61
-17.87
-21.09
-25.02
-30.37
-37.41
-45.68
-53.86
-59.97
-62.00
-58.61
-49.75
-36.77
-21.97
-7.81
3.83
12.11
17.08
19.39
19.77
18.84
17.04
14.74
12.29
10.02
8.04
6.36
4.89
3.64
2.76
2.47
2.81
3.49
3.99
3.78
2.64
0.82
-1.13
-2.69
-3.70
-4.45
-5.47
-7.27
-10.12
-14.06
-18.98
-24.71
-30.88
-36.72
-41.07
-42.54
-39.93
-32.70
-21.20
-6.66
9.17
24.33
37.14
46.39
51.51
52.61
50.31
45.60
39.51
32.93
26.51
20.66
15.65
11.65
8.70
6.71
5.44
4.58
3.79
2.81
1.42
-0.49
-2.98
-6.03
-9.53
-13.29
-17.12
-20.87
-24.57
-28.50
-33.13
-38.94
-46.09
-54.08
-61.58
-66.69
-67.47
-62.73
-52.50
-38.13
-21.84
-5.97
7.67
18.17
25.44
29.93
32.24
32.91
32.34
30.83
28.60
25.88
22.87
19.80
16.92
14.49
12.70
11.63
11.18
11.10
11.01
10.59
9.62
7.97
5.67
2.80
-0.49
-4.10
-7.97
-12.15
-16.91
-22.63
-29.67
-38.08
-47.29
-55.98
-62.29
-64.37
-60.95
-51.94
-38.49
-22.65
-6.74
7.36
18.60
26.78
32.24
35.50
36.98
36.95
35.58
33.11
29.83
26.13
22.41
19.05
16.34
14.45
13.39
13.01
12.97
12.92
12.49
11.51
9.91
7.74
5.07
2.00
-1.40
-5.08
-9.08
-13.62
-19.06
-25.78
-33.89
-42.87
-51.44
-57.70
-59.62
-55.78
-45.99
-31.42
-14.37
2.48
16.92
27.75
34.86
38.95
40.91
41.40
40.67
38.71
35.51
31.29
26.58
22.06
18.33
15.73
14.27
13.67
13.46
13.14
12.33
10.82
8.62
5.92
2.96
-0.09
-3.19
-6.48
-10.22
-14.71
-20.25
-27.02
-35.05
-43.98
-52.92
-60.33
-64.34
-63.21
-56.02
-43.21
-26.58
-8.80
7.49
20.51
29.69
35.53
38.98
40.87
41.52
40.84
38.63
34.95
30.23
25.26
20.87
17.70
15.98
15.56
15.97
16.62
16.92
16.49
15.17
13.01
10.21
6.96
3.35
-0.63
-5.11
-10.25
-16.27
-23.35
-31.53
-40.57
-49.65
-57.35
-61.84
-61.35
-54.86
-42.64
-26.25
-8.20
8.88
22.98
33.20
39.64
43.08
44.34
44.02
42.38
39.57
35.84
31.59
27.35
23.55
20.44
18.06
16.26
14.85
13.65
12.48
11.15
9.51
7.45
4.97
2.13
-1.03
-4.53
-8.54
-13.33
-19.22
-26.49
-35.23
-45.15
-55.33
-64.20
-69.70
-69.88
-63.53
-50.73
-32.99
-12.89
6.73
23.50
36.11
44.39
49.00
50.95
51.14
50.14
48.16
45.23
41.46
37.15
32.80
28.98
26.12
24.41
23.66
23.47
23.33
22.76
21.43
19.22
16.17
12.47
8.35
4.05
-0.29
-4.68
-9.35
-14.74
-21.40
-29.72
-39.58
-50.03
-59.24
-64.85
-64.69
-57.57
-43.88
-25.53
-5.42
13.54
29.23
40.72
48.17
52.28
53.85
53.49
51.57
48.44
44.49
40.17
35.90
31.97
28.53
25.66
23.41
21.85
20.99
20.69
20.62
20.28
19.17
16.93
13.47
8.99
3.96
-1.10
-5.77
-9.92
-13.87
-18.26
-23.88
-31.29
-40.27
-49.70
-57.56
-61.45
-59.43
-50.73
-36.21
-18.07
0.77
17.63
30.82
39.83
45.08
47.43
47.66
46.28
43.56
39.77
35.29
30.64
26.34
22.73
19.97
18.03
16.79
16.09
15.75
15.56
15.21
14.42
12.94
10.63
7.54
3.83
-0.25
-4.44
-8.60
-12.76
-17.22
-22.46
-28.95
-36.70
-45.00
-52.33
-56.64
-56.07
-49.67
-37.85
-22.33
-5.61
9.85
22.34
31.14
36.43
38.83
39.04
37.56
34.78
30.98
26.53
21.88
17.48
13.72
10.85
8.92
7.83
7.30
7.04
6.73
6.18
5.27
3.99
2.34
0.28
-2.24
-5.32
-9.07
-13.56
-18.91
-25.17
-32.27
-39.78
-46.78
-51.92
-53.64
-50.72
-42.78
-30.57
-15.79
-0.63
12.97
23.77
31.44
36.29
38.85
39.55
38.53
35.88
31.76
26.58
20.99
15.68
11.24
7.92
5.74
4.47
3.82
3.49
3.23
2.87
2.24
1.26
-0.12
-1.95
-4.30
-7.32
-11.21
-16.24
-22.62
-30.31
-38.78
-46.89
-53.00
-55.33
-52.57
-44.41
-31.82
-16.74
-1.56
11.73
21.96
28.98
33.27
35.51
36.16
35.35
33.04
29.29
24.43
19.14
14.22
10.41
8.09
7.12
6.99
6.98
6.50
5.32
3.61
1.74
0.03
-1.46
-2.98
-4.98
-7.88
-11.92
-17.22
-23.70
-31.10
-38.79
-45.72
-50.42
-51.41
-47.69
-39.22
-27.06
-13.10
0.56
12.23
21.02
26.85
30.15
31.45
31.15
29.47
26.57
22.73
18.41
14.21
10.68
8.17
6.67
5.89
5.35
4.64
3.56
2.14
0.59
-0.92
-2.35
-3.86
-5.72
-8.25
-11.71
-16.27
-22.00
-28.85
-36.47
-44.10
-50.49
-54.10
-53.57
-48.20
-38.34
-25.37
-11.29
1.87
12.64
20.34
25.06
27.30
27.67
26.60
24.37
21.15
17.16
12.74
8.37
4.57
1.74
0.08
-0.55
-0.52
-0.30
-0.27
-0.55
-1.02
-1.42
-1.59
-1.54
-1.51
-1.84
-2.85
-4.74
-7.64
-11.60
-16.47
-21.81
-26.68
-29.71
-29.36
-24.48
-14.81
-1.20
14.54
30.14
43.54
53.36
59.06
60.81
59.19
54.90
48.65
41.10
32.93
24.77
17.23
10.78
5.69
2.01
-0.41
-1.86
-2.70
-3.35
-4.14
-5.31
-6.92
-8.87
-10.97
-13.04
-15.02
-16.96
-19.06
-21.59
-24.84
-29.11
-34.55
-40.98
-47.68
-53.33
-56.28
-55.05
-48.88
-38.15
-24.34
-9.60
4.00
14.96
22.68
27.33
29.43
29.59
28.28
25.81
22.47
18.58
14.51
10.69
7.46
5.05
3.54
2.79
2.56
2.50
2.33
1.88
1.04
-0.17
-1.75
-3.70
-6.01
-8.65
-11.64
-15.04
-19.00
-23.81
-29.66
-36.49
-43.64
-49.87
-53.56
-53.16
-47.86
-37.85
-24.49
-9.85
3.86
14.96
22.62
26.99
28.78
28.86
27.95
26.39
24.27
21.59
18.49
15.23
12.20
9.72
7.98
6.98
6.59
6.55
6.59
6.43
5.83
4.65
2.87
0.57
-2.10
-5.04
-8.16
-11.57
-15.44
-20.04
-25.61
-32.16
-39.26
-45.96
-50.81
-52.24
-49.05
-40.95
-28.73
-14.17
0.51
13.34
23.07
29.38
32.72
33.89
33.60
32.31
30.18
27.25
23.68
19.78
16.02
12.82
10.44
8.92
8.09
7.66
7.31
6.75
5.80
4.41
2.64
0.61
-1.54
-3.78
-6.20
-9.00
-12.46
-16.90
-22.57
-29.51
-37.40
-45.30
-51.69
-54.77
-52.96
-45.63
-33.41
-18.14
-2.31
11.80
22.67
29.88
33.89
35.56
35.76
35.07
33.71
31.73
29.17
26.11
22.71
19.20
15.83
12.83
10.43
8.79
7.96
7.77
7.86
7.74
6.96
5.23
2.52
-0.95
-4.83
-8.77
-12.61
-16.40
-20.45
-25.22
-31.15
-38.39
-46.45
-54.11
-59.52
-60.80
-56.63
-46.92
-32.89
-16.75
-0.96
12.55
22.81
29.78
33.97
35.96
36.16
34.79
32.09
28.47
24.50
20.74
17.54
14.96
12.81
10.86
9.03
7.45
6.40
6.10
6.54
7.43
8.36
8.95
9.01
8.51
7.38
5.36
2.04
-2.93
-9.54
-17.31
-25.45
-33.11
-39.68
-44.70
-47.66
-47.74
-43.94
-35.50
-22.52
-6.36
10.56
25.52
36.45
42.56
44.47
43.60
41.44
38.95
36.33
33.36
29.79
25.68
21.44
17.63
14.66
12.60
11.24
10.32
9.61
9.02
8.48
7.84
6.82
5.10
2.47
-1.09
-5.31
-9.82
-14.25
-18.44
-22.49
-26.77
-31.76
-37.86
-45.08
-52.84
-59.82
-64.24
-64.31
-58.88
-48.01
-33.04
-16.19
0.02
13.61
23.53
29.68
32.62
33.07
31.73
29.13
25.76
22.09
18.59
15.58
13.15
11.16
9.42
7.82
6.48
5.69
5.72
6.65
8.27
10.09
11.55
12.19
11.80
10.38
8.18
5.50
2.65
-0.23
-3.28
-6.89
-11.64
-17.90
-25.51
-33.46
-39.95
-42.84
-40.38
-31.87
-18.06
-0.93
16.91
32.94
45.37
53.32
56.74
56.14
52.32
46.19
38.68
30.74
23.19
16.66
11.45
7.59
4.86
2.95
1.60
0.68
0.14
-0.02
0.11
0.32
0.24
-0.58
-2.50
-5.57
-9.54
-13.88
-18.04
-21.67
-24.85
-28.10
-32.16
-37.68
-44.84
-53.02
-60.78
-66.13
-67.11
-62.47
-52.17
-37.47
-20.51
-3.72
10.94
22.33
30.18
34.83
36.88
37.00
35.80
33.82
31.51
29.10
26.63
24.03
21.28
18.50
16.06
14.32
13.46
13.40
13.73
13.90
13.37
11.83
9.19
5.61
1.44
-2.87
-6.87
-10.17
-12.67
-14.75
-17.28
-21.45
-28.20
-37.65
-48.53
-58.31
-63.82
-62.46
-53.17
-36.88
-16.16
5.85
26.45
44.05
58.08
68.46
75.20
78.18
77.42
73.36
67.00
59.60
52.24
45.44
39.19
33.14
27.11
21.40
16.74
13.93
13.39
14.77
17.05
18.76
18.61
15.86
10.55
3.37
-4.67
-12.65
-19.97
-26.41
-32.12
-37.50
-43.08
-49.35
-56.50
-64.16
-71.14
-75.70
-75.92
-70.51
-59.35
-43.69
-25.80
-8.26
6.85
18.40
26.23
30.82
32.86
32.90
31.36
28.64
25.18
21.50
18.06
15.10
12.64
10.53
8.66
7.10
6.03
5.67
5.98
6.57
6.76
5.82
3.34
-0.59
-5.34
-10.10
-14.17
-17.32
-19.92
-22.77
-26.81
-32.74
-40.65
-49.79
-58.57
-64.86
-66.57
-62.32
-52.02
-37.04
-19.74
-2.78
11.73
22.71
30.12
34.52
36.54
36.62
34.97
31.79
27.49
22.70
18.11
14.27
11.38
9.44
8.29
7.83
7.99
8.72
9.80
10.83
11.30
10.78
9.14
6.53
3.38
0.08
-3.17
-6.48
-10.23
-14.88
-20.82
-28.21
-36.83
-45.92
-54.18
-59.88
-61.24
-56.98
-46.91
-32.09
-14.67
2.75
17.88
29.28
36.60
40.34
41.43
40.86
39.39
37.53
35.56
33.59
31.67
29.73
27.68
25.45
23.11
20.87
19.10
18.15
18.19
19.03
20.06
20.43
19.33
16.32
11.58
5.86
0.16
-4.66
-8.32
-11.28
-14.60
-19.52
-26.84
-36.35
-46.68
-55.56
-60.46
-59.53
-52.25
-39.61
-23.79
-7.44
7.18
18.68
26.71
31.62
34.10
34.76
34.05
32.28
29.77
26.85
23.89
21.11
18.62
16.39
14.36
12.60
11.26
10.56
10.63
11.34
12.23
12.65
11.96
9.74
6.03
1.27
-3.89
-8.84
-13.29
-17.41
-21.73
-26.95
-33.60
-41.70
-50.56
-58.80
-64.55
-65.98
-61.86
-52.04
-37.59
-20.60
-3.52
11.44
22.90
30.48
34.64
36.24
36.19
35.17
33.60
31.72
29.67
27.54
25.34
23.07
20.67
18.16
15.71
13.65
12.32
11.94
12.31
12.92
13.00
11.91
9.36
5.62
1.33
-2.78
-6.16
-8.73
-10.91
-13.49
-17.41
-23.38
-31.49
-40.91
-49.86
-55.92
-56.86
-51.36
-39.68
-23.58
-5.78
10.94
24.53
34.09
39.71
42.10
42.08
40.36
37.40
33.57
29.17
24.57
20.08
16.02
12.60
9.95
8.10
7.04
6.71
6.93
7.42
7.78
7.54
6.35
4.03
0.72
-3.22
-7.35
-11.29
-14.92
-18.43
-22.33
-27.22
-33.55
-41.27
-49.51
-56.65
-60.62
-59.55
-52.48
-39.82
-23.35
-5.64
10.67
23.72
32.69
37.82
39.97
40.09
38.89
36.70
33.69
30.01
25.94
21.95
18.47
15.78
13.90
12.61
11.60
10.57
9.34
7.84
6.04
3.95
1.54
-1.20
-4.27
-7.60
-11.14
-14.84
-18.79
-23.26
-28.69
-35.49
-43.72
-52.70
-60.91
-66.28
-66.76
-61.18
-49.75
-34.12
-16.86
-0.60
12.76
22.46
28.68
32.12
33.54
33.46
32.23
30.16
27.66
25.16
22.98
21.20
19.65
18.07
16.34
14.57
13.09
12.24
12.11
12.42
12.52
11.73
9.56
6.00
1.46
-3.37
-7.81
-11.48
-14.43
-17.07
-20.13
-24.33
-30.11
-37.32
-45.02
-51.53
-54.77
-52.96
-45.22
-32.07
-15.37
2.23
18.10
30.37
38.35
42.42
43.60
43.02
41.49
39.43
36.98
34.25
31.43
28.80
26.62
24.95
23.63
22.42
21.10
19.66
18.19
16.79
15.39
13.76
11.54
8.53
4.73
0.39
-4.13
-8.51
-12.60
-16.56
-20.81
-25.96
-32.54
-40.59
-49.36
-57.20
-61.92
-61.50
-54.92
-42.63
-26.56
-9.42
6.21
18.55
27.00
31.82
33.79
33.67
32.08
29.48
26.27
22.84
19.54
16.63
14.22
12.39
11.18
10.75
11.23
12.66
14.83
17.17
18.84
18.97
16.98
12.84
7.15
0.96
-4.63
-8.93
-11.87
-14.03
-16.42
-20.10
-25.69
-33.11
-41.32
-48.48
-52.39
-51.24
-44.30
-32.27
-17.13
-1.48
12.35
22.99
30.20
34.60
37.14
38.59
39.28
39.19
38.11
35.87
32.50
28.21
23.41
18.64
14.44
11.28
9.37
8.64
8.65
8.74
8.18
6.46
3.39
-0.76
-5.44
-10.02
-14.03
-17.40
-20.50
-24.05
-28.82
-35.29
-43.31
-51.89
-59.31
-63.54
-62.94
-56.79
-45.61
-31.05
-15.26
-0.36
12.16
21.56
27.73
30.92
31.52
29.95
26.73
22.48
17.86
13.46
9.71
6.85
5.02
4.24
4.47
5.43
6.59
7.31
7.02
5.57
3.22
0.56
-1.81
-3.60
-4.87
-5.89
-6.95
-8.22
-9.79
-11.85
-14.66
-18.40
-22.74
-26.60
-28.23
-25.76
-18.00
-5.15
11.07
27.89
42.52
53.12
59.31
62.08
62.93
63.09
62.94
62.07
59.76
55.52
49.39
41.90
33.76
25.61
17.93
11.03
5.19
0.63
-2.58
-4.68
-6.12
-7.50
-9.34
-11.89
-15.16
-18.88
-22.73
-26.46
-30.00
-33.59
-37.75
-43.08
-49.92
-57.93
-65.92
-71.90
-73.71
-69.74
-59.61
-44.43
-26.51
-8.58
7.07
19.10
27.30
32.22
34.73
35.60
35.29
34.09
32.21
29.82
27.15
24.38
21.64
19.05
16.76
15.00
13.95
13.67
13.92
14.23
13.98
12.70
10.26
6.87
3.00
-0.89
-4.53
-7.95
-11.43
-15.41
-20.39
-26.71
-34.39
-42.90
-51.03
-57.04
-59.02
-55.58
-46.43
-32.64
-16.35
-0.13
13.85
24.31
31.05
34.67
36.04
35.92
34.77
32.72
29.82
26.17
22.01
17.73
13.75
10.41
7.96
6.51
6.05
6.38
7.16
7.85
7.90
6.86
4.51
0.99
-3.26
-7.67
-11.72
-15.22
-18.35
-21.71
-26.02
-31.83
-39.12
-47.11
-54.28
-58.74
-58.75
-53.35
-42.72
-28.28
-12.18
3.23
16.13
25.60
31.63
34.82
35.91
35.48
33.83
31.11
27.55
23.55
19.66
16.42
14.12
12.75
12.04
11.59
11.09
10.38
9.47
8.40
7.13
5.55
3.47
0.81
-2.39
-5.94
-9.68
-13.63
-18.06
-23.46
-30.16
-38.04
-46.21
-53.07
-56.67
-55.36
-48.43
-36.45
-21.20
-5.11
9.47
20.97
28.84
33.44
35.61
36.19
35.71
34.44
32.45
29.83
26.76
23.49
20.25
17.28
14.73
12.76
11.42
10.73
10.51
10.45
10.13
9.19
7.40
4.77
1.47
-2.18
-5.91
-9.56
-13.22
-17.24
-22.20
-28.68
-36.84
-46.10
-54.96
-61.22
-62.65
-57.80
-46.66
-30.80
-12.87
4.27
18.46
28.72
35.21
38.76
40.27
40.40
39.46
37.62
35.06
32.07
28.96
25.92
23.04
20.37
18.03
16.29
15.38
15.40
16.09
16.87
17.02
15.95
13.39
9.48
4.67
-0.47
-5.39
-9.80
-13.75
-17.67
-22.32
-28.43
-36.34
-45.53
-54.50
-61.02
-62.84
-58.50
-48.02
-32.89
-15.74
0.64
14.05
23.40
28.73
30.81
30.71
29.38
27.53
25.66
24.08
22.98
22.43
22.25
22.14
21.75
20.82
19.34
17.56
15.85
14.53
13.66
13.04
12.32
11.13
9.31
6.88
4.08
1.13
-1.87
-4.97
-8.46
-12.75
-18.25
-25.22
-33.46
-42.14
-49.81
-54.61
-54.83
-49.51
-38.85
-24.27
-7.99
7.62
20.74
30.42
36.67
40.05
41.28
40.95
39.39
36.78
33.36
29.49
25.61
22.16
19.38
17.29
15.80
14.77
14.17
13.97
14.03
14.00
13.32
11.47
8.24
3.90
-0.85
-5.24
-8.76
-11.41
-13.72
-16.54
-20.70
-26.74
-34.67
-43.83
-52.91
-60.07
-63.34
-61.18
-53.04
-39.69
-23.14
-6.00
9.22
20.89
28.52
32.64
34.26
34.37
33.60
32.16
30.09
27.43
24.38
21.28
18.42
15.98
14.00
12.41
11.18
10.25
9.53
8.79
7.70
5.90
3.14
-0.60
-5.07
-9.84
-14.46
-18.66
-22.53
-26.56
-31.49
-38.03
-46.38
-55.84
-64.70
-70.68
-71.60
-66.30
-55.12
-39.88
-23.25
-7.89
4.40
12.98
18.26
21.21
22.88
24.00
24.91
25.57
25.68
24.80
22.56
18.90
14.22
9.50
6.01
4.84
6.40
10.17
14.84
18.87
21.11
21.19
19.57
17.06
14.42
11.96
9.53
6.73
3.13
-1.54
-7.42
-14.40
-22.05
-29.48
-35.25
-37.62
-35.05
-26.83
-13.51
3.09
20.34
35.57
46.86
53.47
55.80
54.99
52.36
48.94
45.26
41.42
37.22
32.52
27.30
21.81
16.44
11.64
7.75
4.89
2.93
1.55
0.35
-1.01
-2.71
-4.75
-7.06
-9.55
-12.23
-15.16
-18.48
-22.32
-26.87
-32.34
-38.83
-46.12
-53.41
-59.29
-61.99
-59.89
-52.26
-39.62
-23.78
-7.19
7.79
19.60
27.79
32.77
35.32
36.16
35.69
34.06
31.40
27.97
24.17
20.43
17.11
14.41
12.40
11.06
10.34
10.05
9.95
9.68
8.91
7.47
5.37
2.80
0.03
-2.75
-5.49
-8.32
-11.53
-15.55
-20.80
-27.56
-35.69
-44.42
-52.30
-57.48
-58.24
-53.61
-43.88
-30.55
-15.91
-2.25
8.80
16.67
21.70
24.68
26.32
26.96
26.53
24.84
21.83
17.74
13.08
8.46
4.41
1.27
-0.86
-2.03
-2.42
-2.25
-1.80
-1.32
-1.04
-1.18
-1.90
-3.34
-5.58
-8.59
-12.28
-16.55
-21.43
-27.05
-33.50
-40.49
-47.13
-51.76
-52.42
-47.48
-36.45
-20.42
-1.85
16.20
31.14
41.63
47.76
50.64
51.59
51.55
50.77
49.12
46.44
42.89
38.98
35.32
32.24
29.62
27.01
23.87
19.93
15.27
10.31
5.51
1.21
-2.52
-5.86
-9.04
-12.25
-15.62
-19.26
-23.42
-28.51
-34.99
-42.97
-51.92
-60.47
-66.61
-68.34
-64.36
-54.62
-40.42
-24.03
-7.87
6.14
16.99
24.60
29.44
32.12
33.08
32.56
30.71
27.75
24.04
20.08
16.36
13.24
10.88
9.24
8.20
7.59
7.20
6.79
6.06
4.72
2.60
-0.26
-3.62
-7.13
-10.46
-13.48
-16.35
-19.55
-23.71
-29.44
-36.87
-45.37
-53.39
-58.78
-59.39
-53.95
-42.57
-26.91
-9.60
6.67
19.89
29.18
34.68
37.11
37.29
35.95
33.64
30.78
27.78
24.96
22.54
20.59
19.09
17.94
17.01
16.15
15.15
13.87
12.20
10.15
7.83
5.36
2.75
-0.06
-3.18
-6.68
-10.54
-14.80
-19.55
-25.08
-31.64
-39.10
-46.66
-52.79
-55.59
-53.48
-45.87
-33.49
-18.18
-2.25
12.23
24.02
32.75
38.71
42.43
44.39
44.95
44.40
43.07
41.29
39.35
37.38
35.36
33.27
31.16
29.26
27.84
27.15
27.21
27.77
28.39
28.55
27.78
25.79
22.47
17.90
12.26
5.83
-1.19
-8.71
-16.79
-25.61
-35.19
-45.22
-54.84
-62.66
-67.04
-66.58
-60.61
-49.57
-34.92
-18.79
-3.32
9.85
19.91
26.78
30.83
32.56
32.33
30.49
27.45
23.79
20.18
17.17
15.02
13.61
12.64
11.81
11.08
10.61
10.63
11.18
11.97
12.45
12.00
10.22
7.10
3.06
-1.24
-5.16
-8.30
-10.72
-12.90
-15.66
-19.86
-25.97
-33.81
-42.35
-49.82
-54.14
-53.57
-47.26
-35.69
-20.51
-4.16
10.96
23.09
31.53
36.51
38.82
39.29
38.51
36.75
34.13
30.83
27.15
23.45
20.04
17.02
14.31
11.83
9.59
7.74
6.50
5.99
6.07
6.35
6.26
5.27
3.05
-0.40
-4.89
-10.09
-15.68
-21.54
-27.74
-34.57
-42.36
-51.15
-60.44
-68.97
-74.91
-76.36
-72.06
-61.98
-47.51
-31.01
-15.12
-1.89
7.72
13.83
17.24
18.86
19.36
19.02
17.91
16.14
13.94
11.62
9.52
7.78
6.44
5.49
4.94
4.89
5.39
6.34
7.39
8.03
7.73
6.22
3.56
0.15
-3.50
-7.00
-10.28
-13.66
-17.69
-22.95
-29.76
-37.86
-46.30
-53.47
-57.51
-56.80
-50.61
-39.37
-24.68
-8.79
6.09
18.33
27.21
32.83
35.79
36.83
36.56
35.37
33.49
31.03
28.16
25.13
22.31
20.10
18.79
18.44
18.81
19.41
19.71
19.32
18.07
16.02
13.32
10.16
6.69
3.09
-0.42
-3.65
-6.58
-9.50
-13.03
-18.01
-24.99
-33.85
-43.50
-51.91
-56.73
-56.03
-49.05
-36.62
-20.86
-4.54
9.83
20.69
27.66
31.34
32.72
32.75
31.98
30.60
28.68
26.31
23.73
21.24
19.05
17.22
15.71
14.44
13.44
12.76
12.43
12.31
12.09
11.36
9.80
7.38
4.30
0.99
-2.20
-5.07
-7.73
-10.50
-13.84
-18.26
-24.10
-31.40
-39.59
-47.44
-53.14
-54.76
-50.87
-41.24
-27.02
-10.50
5.59
18.95
28.34
33.70
35.83
35.86
34.67
32.73
30.14
26.85
22.92
18.64
14.43
10.78
8.00
6.22
5.43
5.57
6.65
8.70
11.60
14.91
17.84
19.46
19.02
16.42
12.29
7.84
4.33
2.59
2.64
3.70
4.49
3.87
1.32
-2.79
-7.23
-10.30
-10.41
-6.54
1.43
12.66
25.57
38.22
48.69
55.52
57.95
56.09
50.85
43.63
35.88
28.77
22.87
18.17
14.39
11.16
8.29
5.76
3.64
1.92
0.41
-1.16
-3.10
-5.58
-8.60
-11.97
-15.39
-18.61
-21.45
-23.87
-26.04
-28.28
-31.08
-34.97
-40.32
-47.11
-54.64
-61.54
-65.98
-66.19
-61.12
-50.86
-36.72
-20.87
-5.62
7.20
16.69
22.84
26.20
27.49
27.28
25.87
23.47
20.38
16.97
13.66
10.78
8.42
6.54
5.07
4.03
3.53
3.70
4.45
5.38
5.85
5.29
3.37
0.30
-3.39
-7.08
-10.37
-13.30
-16.31
-20.10
-25.26
-32.04
-40.06
-48.27
-55.01
-58.38
-56.80
-49.58
-37.30
-21.79
-5.57
8.87
19.84
26.83
30.35
31.45
31.15
30.09
28.42
26.02
22.82
18.99
15.00
11.45
8.87
7.51
7.32
7.94
8.93
9.78
10.07
9.44
7.70
4.85
1.13
-2.99
-6.99
-10.47
-13.34
-15.90
-18.76
-22.63
-28.07
-35.17
-43.30
-51.04
-56.45
-57.53
-52.93
-42.56
-27.75
-10.93
5.15
18.27
27.36
32.54
34.73
35.06
34.38
33.06
31.18
28.72
25.81
22.72
19.81
17.36
15.49
14.18
13.34
12.84
12.58
12.39
12.06
11.28
9.78
7.42
4.23
0.45
-3.57
-7.55
-11.42
-15.39
-19.96
-25.69
-32.86
-41.11
-49.32
-55.68
-58.25
-55.60
-47.42
-34.70
-19.47
-4.16
9.15
19.25
25.93
29.73
31.49
32.01
31.76
30.91
29.48
27.50
25.04
22.27
19.41
16.65
14.20
12.28
11.05
10.61
10.81
11.27
11.46
10.87
9.22
6.56
3.24
-0.24
-3.52
-6.48
-9.31
-12.49
-16.60
-22.11
-29.08
-36.97
-44.51
-49.92
-51.37
-47.55
-38.25
-24.58
-8.68
6.89
19.94
29.21
34.55
36.68
36.69
35.56
33.87
31.74
29.09
25.82
22.03
18.05
14.34
11.29
9.09
7.72
6.95
6.44
5.86
5.00
3.72
2.00
-0.12
-2.59
-5.35
-8.34
-11.57
-15.11
-19.16
-24.02
-30.02
-37.26
-45.34
-53.17
-59.04
-61.08
-57.87
-49.07
-35.66
-19.67
-3.54
10.61
21.57
29.07
33.56
35.77
36.30
35.56
33.69
30.86
27.34
23.51
19.84
16.75
14.50
13.15
12.57
12.48
12.52
12.33
11.62
10.23
8.13
5.41
2.28
-1.08
-4.53
-8.02
-11.72
-15.94
-21.11
-27.60
-35.43
-44.03
-52.06
-57.61
-58.71
-54.04
-43.57
-28.65
-11.69
4.60
18.10
27.81
33.83
37.11
38.73
39.55
39.96
39.97
39.43
38.18
36.23
33.73
30.92
28.11
25.56
23.48
21.95
20.92
20.18
19.38
18.15
16.19
13.38
9.82
5.80
1.62
-2.48
-6.54
-10.85
-15.93
-22.30
-30.20
-39.29
-48.47
-55.98
-59.79
-58.27
-50.79
-38.11
-22.18
-5.60
9.22
20.69
28.38
32.76
34.81
35.44
35.22
34.32
32.64
30.07
26.68
22.72
18.68
15.10
12.45
11.03
10.88
11.73
13.06
14.22
14.52
13.48
10.91
6.97
2.15
-2.95
-7.73
-11.86
-15.37
-18.62
-22.24
-26.91
-33.12
-40.83
-49.24
-56.82
-61.56
-61.61
-55.87
-44.52
-29.03
-11.74
4.88
18.90
29.31
36.01
39.51
40.53
39.78
37.84
35.17
32.14
29.09
26.26
23.82
21.79
20.19
18.95
18.07
17.57
17.47
17.65
17.86
17.63
16.44
13.95
10.19
5.59
0.80
-3.52
-7.09
-10.10
-13.15
-17.07
-22.55
-29.86
-38.62
-47.65
-55.19
-59.22
-58.06
-51.04
-38.76
-23.10
-6.61
8.27
19.86
27.57
31.77
33.27
32.94
31.37
28.94
25.89
22.48
19.00
15.72
12.81
10.35
8.38
6.94
6.09
5.78
5.84
5.93
5.62
4.56
2.58
-0.30
-3.92
-8.03
-12.36
-16.69
-20.83
-24.84
-29.00
-33.81
-39.73
-46.76
-54.10
-60.18
-63.06
-61.16
-53.97
-42.27
-27.97
-13.38
-0.47
9.64
16.74
21.26
23.87
25.19
25.63
25.42
24.67
23.39
21.53
19.11
16.39
13.95
12.56
12.99
15.60
20.14
25.75
31.17
35.19
37.05
36.63
34.41
31.23
27.89
24.86
22.17
19.35
15.70
10.47
3.31
-5.53
-15.02
-23.50
-29.08
-30.22
-26.20
-17.51
-5.70
6.99
18.36
26.83
31.70
33.18
31.98
29.01
25.08
20.78
16.48
12.39
8.59
5.08
1.82
-1.13
-3.62
-5.41
-6.28
-6.19
-5.36
-4.24
-3.41
-3.37
-4.40
-6.48
-9.38
-12.72
-16.15
-19.49
-22.80
-26.48
-31.06
-37.02
-44.33
-52.18
-58.99
-62.73
-61.65
-54.90
-42.97
-27.53
-10.93
4.56
17.33
26.65
32.60
35.70
36.60
35.85
33.90
31.11
27.81
24.37
21.15
18.41
16.33
14.89
13.97
13.38
12.90
12.38
11.68
10.69
9.31
7.43
5.03
2.15
-1.02
-4.27
-7.49
-10.78
-14.53
-19.30
-25.58
-33.39
-42.01
-49.94
-55.20
-55.92
-51.03
-40.72
-26.42
-10.37
5.07
18.07
27.66
33.74
36.79
37.53
36.64
34.64
31.91
28.71
25.22
21.61
18.03
14.69
11.85
9.76
8.53
8.11
8.21
8.44
8.39
7.72
6.24
3.91
0.90
-2.54
-6.06
-9.42
-12.51
-15.60
-19.22
-24.02
-30.41
-38.14
-46.06
-52.31
-54.79
-51.91
-43.29
-29.98
-14.18
1.45
14.67
24.26
30.14
33.05
33.98
33.72
32.57
30.55
27.55
23.66
19.23
14.78
10.84
7.79
5.77
4.67
4.22
4.04
3.75
3.11
2.02
0.53
-1.23
-3.14
-5.19
-7.51
-10.29
-13.77
-18.15
-23.64
-30.26
-37.75
-45.31
-51.61
-54.98
-53.89
-47.57
-36.42
-22.03
-6.70
7.28
18.33
25.86
30.23
32.25
32.74
32.23
30.89
28.75
25.86
22.43
18.85
15.57
12.95
11.19
10.24
9.89
9.75
9.44
8.64
7.18
5.11
2.60
-0.10
-2.86
-5.67
-8.67
-12.17
-16.49
-21.98
-28.80
-36.77
-45.18
-52.69
-57.58
-58.14
-53.33
-43.25
-29.25
-13.56
1.40
13.77
22.66
28.21
31.17
32.42
32.58
31.87
30.26
27.73
24.48
20.88
17.44
14.58
12.51
11.21
10.49
10.06
9.68
9.10
8.17
6.80
4.97
2.74
0.20
-2.60
-5.61
-8.93
-12.81
-17.61
-23.73
-31.33
-40.03
-48.72
-55.61
-58.65
-56.25
-47.91
-34.58
-18.40
-2.02
12.26
23.09
30.28
34.45
36.49
37.14
36.77
35.47
33.28
30.40
27.14
23.88
20.89
18.33
16.25
14.68
13.61
13.00
12.67
12.34
11.62
10.21
7.94
4.87
1.22
-2.77
-6.91
-11.22
-15.93
-21.42
-28.10
-36.02
-44.63
-52.58
-57.96
-58.86
-54.09
-43.76
-29.34
-13.18
2.27
15.19
24.81
31.21
35.00
36.77
36.94
35.77
33.46
30.32
26.82
23.39
20.34
17.81
15.79
14.24
13.13
12.50
12.26
12.21
11.98
11.17
9.54
7.09
4.05
0.80
-2.38
-5.46
-8.69
-12.56
-17.66
-24.40
-32.70
-41.71
-49.82
-54.93
-55.18
-49.55
-38.46
-23.57
-7.38
7.65
19.78
28.29
33.32
35.53
35.65
34.26
31.76
28.52
24.89
21.26
18.01
15.35
13.36
11.96
11.02
10.43
10.06
9.80
9.45
8.80
7.61
5.77
3.25
0.19
-3.27
-7.01
-11.07
-15.65
-21.06
-27.54
-35.05
-43.05
-50.34
-55.28
-56.17
-51.91
-42.41
-28.78
-13.05
2.49
15.96
26.25
33.11
36.97
38.48
38.31
36.90
34.54
31.41
27.73
23.84
20.17
17.15
15.06
13.93
13.49
13.32
12.97
12.19
10.92
9.27
7.33
5.10
2.49
-0.62
-4.27
-8.44
-13.13
-18.47
-24.70
-32.04
-40.31
-48.68
-55.55
-58.96
-57.20
-49.53
-36.62
-20.41
-3.54
11.51
23.13
30.83
35.09
36.87
37.10
36.34
34.80
32.49
29.44
25.91
22.33
19.20
16.88
15.50
14.87
14.66
14.51
14.16
13.47
12.38
10.84
8.84
6.38
3.50
0.29
-3.23
-7.11
-11.53
-16.76
-23.06
-30.41
-38.34
-45.74
-50.95
-52.15
-47.99
-38.22
-23.96
-7.52
8.36
21.46
30.73
36.43
39.62
41.44
42.53
42.90
42.17
40.07
36.76
32.83
29.05
26.01
24.00
22.99
22.89
23.77
25.80
29.12
33.45
38.02
41.60
42.95
41.20
36.21
28.60
19.47
9.91
0.66
-8.11
-16.61
-25.13
-33.64
-41.52
-47.64
-50.71
-49.71
-44.36
-35.25
-23.68
-11.33
0.26
9.96
17.18
21.78
23.92
23.87
21.96
18.59
14.16
9.14
3.99
-0.89
-5.13
-8.44
-10.60
-11.50
-11.16
-9.89
-8.18
-6.69
-5.98
-6.39
-7.91
-10.21
-12.81
-15.26
-17.39
-19.28
-21.26
-23.79
-27.38
-32.41
-38.91
-46.43
-53.84
-59.44
-61.35
-58.11
-49.27
-35.72
-19.50
-3.16
11.00
21.59
28.26
31.54
32.29
31.35
29.28
26.41
22.99
19.27
15.58
12.15
9.12
6.44
4.00
1.71
-0.39
-2.18
-3.54
-4.54
-5.45
-6.70
-8.74
-11.77
-15.68
-20.06
-24.36
-28.21
-31.59
-34.96
-38.97
-44.14
-50.45
-57.08
-62.53
-65.00
-63.04
-56.02
-44.40
-29.57
-13.46
2.00
15.27
25.43
32.13
35.53
36.09
34.43
31.17
26.82
21.74
16.25
10.71
5.73
2.03
0.27
0.72
2.91
5.80
7.98
8.34
6.43
2.78
-1.40
-4.58
-5.59
-3.97
-0.22
4.43
8.33
9.98
8.47
3.85
-2.81
-9.61
-14.33
-14.98
-10.40
-0.56
13.44
29.74
46.30
61.44
74.25
84.60
92.76
99.02
103.28
105.01
103.35
97.50
86.94
71.80
53.00
32.18
11.39
-7.57
-23.69
-37.14
-49.11
-61.10
-74.08
-87.92
-101.49
-113.19
-121.75
-126.71
-128.35
-127.38
-124.48
-120.27
-115.32
-110.31
-105.83
-102.07
-98.48
-93.83
-86.63
-75.74
-60.98
-43.26
-24.28
-5.93
10.27
23.48
33.53
40.72
45.50
48.27
49.28
48.72
46.66
43.27
38.76
33.52
28.04
22.74
17.98
13.87
10.32
7.10
3.89
0.43
-3.43
-7.72
-12.27
-16.79
-21.00
-24.68
-27.88
-30.96
-34.39
-38.58
-43.46
-48.33
-51.87
-52.53
-49.03
-40.87
-28.60
-13.62
2.22
17.25
30.31
40.90
48.96
54.61
57.92
58.90
57.68
54.59
50.25
45.42
40.80
36.83
33.61
30.95
28.59
26.26
23.82
21.20
18.39
15.41
12.30
9.08
5.79
2.39
-1.20
-5.16
-9.75
-15.21
-21.67
-28.94
-36.41
-43.02
-47.39
-48.27
-44.88
-37.23
-26.19
-13.17
0.30
12.98
24.15
33.56
41.23
47.19
51.43
53.86
54.45
53.41
51.15
48.26
45.30
42.68
40.52
38.70
36.94
35.01
32.73
30.06
27.04
23.74
20.26
16.66
12.94
9.01
4.67
-0.41
-6.52
-13.75
-21.80
-29.80
-36.44
-40.22
-39.92
-34.93
-25.57
-12.95
1.31
15.54
28.39
39.07
47.32
53.25
57.12
59.16
59.52
58.32
55.71
51.96
47.49
42.80
38.36
34.46
31.08
27.95
24.65
20.87
16.56
11.94
7.41
3.36
-0.11
-3.14
-6.14
-9.59
-13.90
-19.29
-25.81
-33.17
-40.64
-47.02
-50.76
-50.31
-44.69
-33.93
-19.23
-2.68
13.43
27.25
37.83
45.13
49.70
52.24
53.26
52.99
51.53
48.95
45.49
41.45
37.18
32.93
28.81
24.85
21.00
17.27
13.67
10.26
7.08
4.14
1.41
-1.25
-4.01
-7.10
-10.72
-15.02
-20.10
-26.00
-32.62
-39.73
-46.80
-52.93
-56.98
-57.74
-54.42
-46.89
-35.89
-22.80
-9.24
3.36
14.10
22.63
29.01
33.49
36.30
37.64
37.65
36.52
34.49
31.81
28.79
25.75
22.92
20.50
18.53
16.89
15.36
13.69
11.73
9.40
6.79
3.99
1.03
-2.15
-5.68
-9.69
-14.22
-19.24
-24.72
-30.61
-36.75
-42.71
-47.67
-50.50
-50.05
-45.64
-37.42
-26.39
-14.13
-2.25
8.08
16.38
22.72
27.44
30.79
32.83
33.44
32.56
30.33
27.14
23.55
20.14
17.33
15.31
14.03
13.22
12.53
11.62
10.29
8.46
6.20
3.65
0.92
-1.89
-4.76
-7.69
-10.75
-14.08
-17.93
-22.55
-28.06
-34.19
-40.16
-44.68
-46.39
-44.27
-38.10
-28.60
-17.20
-5.57
4.86
13.28
19.48
23.73
26.44
27.98
28.63
28.54
27.84
26.67
25.14
23.35
21.37
19.27
17.17
15.21
13.50
12.10
10.94
9.87
8.64
7.04
4.95
2.36
-0.59
-3.75
-6.96
-10.23
-13.73
-17.80
-22.84
-29.03
-36.17
-43.48
-49.68
-53.30
-53.20
-48.95
-41.04
-30.74
-19.59
-8.96
0.29
7.87
13.85
18.40
21.60
23.53
24.27
24.04
23.10
21.72
20.04
18.10
15.93
13.69
11.61
9.96
8.88
8.30
7.91
7.31
6.16
4.33
1.94
-0.76
-3.48
-6.06
-8.49
-10.89
-13.44
-16.41
-20.03
-24.46
-29.61
-35.00
-39.69
-42.48
-42.28
-38.49
-31.34
-21.80
-11.33
-1.35
7.12
13.71
18.52
21.94
24.33
25.89
26.65
26.56
25.65
24.08
22.11
20.04
18.06
16.31
14.81
13.51
12.39
11.40
10.43
9.35
7.98
6.19
3.90
1.18
-1.83
-4.96
-8.04
-10.98
-13.82
-16.77
-20.11
-24.12
-28.85
-33.93
