1551726199.00
64.000000
-0.00
-0.00
-0.00
-0.00
-0.00
-0.00
-0.00
-0.00
-0.00
-0.00
0.00
0.01
0.01
-0.00
-0.03
-0.05
-0.05
0.00
0.13
0.36
0.66
1.01
1.37
1.72
2.06
2.40
2.79
3.24
3.80
4.42
5.06
5.66
6.20
6.68
7.15
7.68
8.31
9.14
10.09
11.04
11.88
12.56
13.14
13.76
14.65
15.96
17.91
20.32
22.90
25.38
27.58
29.57
31.68
34.32
37.81
42.54
48.15
54.10
59.83
64.97
69.58
74.14
79.34
85.71
93.76
103.00
112.62
121.73
129.77
136.75
143.30
150.75
157.77
166.64
177.95
191.79
206.97
220.57
228.25
225.36
208.53
176.87
132.76
80.05
23.07
-34.94
-92.44
-149.16
-205.23
-260.37
-313.74
-363.87
-409.83
-450.91
-486.50
-515.74
-537.23
-549.22
-549.96
-538.37
-514.21
-478.67
-433.88
-382.45
-327.02
-269.84
-212.63
-156.66
-102.95
-52.37
-5.90
35.58
71.43
101.35
125.50
144.38
158.69
169.15
176.37
180.75
182.57
182.07
179.51
175.23
169.65
163.17
156.14
148.81
141.30
133.70
126.04
118.36
110.74
103.23
95.91
88.83
82.02
75.49
69.25
63.31
57.67
52.35
47.34
42.65
38.28
34.21
30.44
26.97
23.78
20.87
18.25
15.90
13.82
11.99
10.42
9.08
7.96
7.05
6.32
5.76
5.36
5.09
4.95
4.91
4.98
5.14
5.37
5.68
6.07
6.53
7.05
7.64
8.29
9.00
9.76
10.58
11.46
12.38
13.36
14.38
15.46
16.59
17.79
19.05
20.37
21.75
23.18
24.60
25.95
27.12
27.96
28.30
27.95
26.70
24.41
21.01
16.49
10.85
4.22
-3.20
-11.15
-19.32
-27.38
-34.94
-41.61
-47.09
-51.20
-53.91
-55.33
-55.66
-55.19
-54.21
-52.91
-51.43
-49.85
-48.25
-46.66
-45.15
-43.68
-42.18
-40.47
-38.22
-34.94
-30.25
-23.96
-16.16
-7.22
2.31
12.35
22.10
31.21
39.74
47.87
55.69
62.95
69.11
73.57
75.92
76.19
74.91
73.10
71.66
70.89
70.26
68.56
64.31
56.42
44.61
29.50
12.70
-4.27
-20.32
-35.32
-49.82
-64.61
-80.31
-96.37
-113.40
-131.25
-148.60
-162.46
-168.55
-162.72
-143.14
-111.96
-75.18
-40.73
-15.06
-0.95
3.01
0.85
-3.28
-6.95
-9.82
-12.56
-15.58
-18.07
-18.65
-16.18
-10.76
-3.70
3.24
8.53
11.70
13.29
14.54
16.66
20.21
24.88
29.65
33.33
35.04
34.64
32.67
30.11
27.88
26.47
25.80
25.31
24.37
22.50
19.69
16.29
12.83
9.80
7.43
5.60
3.94
2.01
-0.59
-3.88
-7.73
-11.83
-15.91
-19.79
-23.44
-27.01
-30.71
-34.78
-39.14
-43.61
-47.93
-51.85
-55.21
-58.06
-60.66
-63.44
-66.84
-70.72
-74.76
-78.45
-81.21
-82.67
-82.81
-82.04
-81.01
-80.43
-80.12
-79.51
-77.63
-73.35
-65.72
-54.27
-38.91
-19.49
1.17
22.01
42.79
63.88
85.96
109.83
136.21
165.52
197.29
229.61
259.46
282.62
295.03
294.37
281.00
257.94
229.63
200.25
172.40
147.31
124.89
104.81
87.12
72.25
60.51
51.60
44.52
37.91
30.86
23.07
14.99
7.56
1.74
-2.07
-4.20
-5.64
-7.67
-11.19
-16.41
-22.75
-29.00
-33.95
-36.87
-37.87
-37.80
-37.84
-38.89
-41.24
-44.50
-47.95
-50.92
-53.06
-54.41
-55.15
-55.28
-54.50
-52.31
-48.32
-42.63
-36.07
-29.94
-25.73
-24.46
-26.33
-30.57
-35.66
-39.88
-41.78
-40.62
-36.45
-29.92
-22.05
-13.93
-6.51
-0.51
3.69
6.06
6.87
6.56
5.62
4.40
3.02
1.42
-0.44
-2.48
-4.42
-5.92
-6.78
-7.15
-7.52
-8.47
-10.42
-13.28
-16.49
-19.31
-21.22
-22.11
-22.24
-21.92
-21.23
-19.97
-17.95
-15.39
-13.09
-12.19
-13.58
-17.31
-22.32
-26.81
-28.93
-27.70
-23.36
-17.25
-11.16
-6.48
-3.75
-2.56
-2.00
-1.13
0.60
3.23
6.44
9.76
12.71
14.87
15.92
15.64
13.96
11.05
7.33
3.41
-0.05
-2.58
-3.99
-4.41
-4.09
-3.26
-1.92
0.05
2.68
5.69
8.32
9.55
8.48
4.80
-1.09
-8.21
-15.48
-22.26
-28.46
-34.38
-40.24
-45.88
-50.71
-54.00
-55.35
-54.93
-53.37
-51.49
-49.94
-49.17
-49.62
-51.88
-56.62
-63.97
-72.87
-80.82
-84.54
-81.33
-70.47
-53.82
-35.15
-18.39
-5.93
2.36
8.62
15.48
24.50
35.30
45.93
54.12
58.56
59.55
58.66
57.87
58.65
61.45
65.74
70.54
74.87
78.00
79.48
78.92
76.13
71.30
65.21
59.18
54.68
52.79
53.77
56.96
61.07
64.76
67.05
67.54
66.27
63.50
59.44
54.22
47.91
40.78
33.31
26.18
19.95
14.84
10.55
6.51
2.21
-2.42
-6.92
-10.61
-13.06
-14.52
-15.86
-18.21
-22.38
-28.40
-35.56
-42.62
-48.34
-51.78
-52.60
-51.05
-47.92
-44.29
-41.27
-39.58
-39.30
-39.82
-40.10
-39.08
-36.16
-31.55
-26.24
-21.64
-18.83
-17.85
-17.41
-15.11
-8.51
3.75
21.06
40.88
59.63
74.10
82.52
84.92
82.56
76.91
68.88
58.64
46.08
31.33
15.20
-1.00
-15.92
-28.62
-38.84
-46.79
-52.79
-56.87
-58.72
-57.91
-54.18
-47.85
-39.82
-31.32
-23.51
-17.14
-12.43
-9.15
-6.70
-4.29
-1.02
3.75
10.08
17.30
24.14
29.48
32.94
35.21
37.64
41.36
46.48
51.90
55.79
56.68
54.19
49.15
42.99
36.89
31.24
25.81
20.24
14.61
9.56
6.03
4.67
5.43
7.59
9.98
11.55
11.80
10.79
8.92
6.56
3.74
0.08
-4.92
-11.42
-19.01
-26.60
-32.77
-36.19
-36.05
-32.22
-25.27
-16.31
-6.63
2.53
10.24
16.02
19.96
22.56
24.53
26.46
28.61
30.76
32.19
31.90
28.85
22.28
12.07
-1.04
-15.36
-28.49
-37.96
-41.96
-39.89
-32.59
-22.04
-10.64
-0.61
6.50
10.00
10.01
7.31
3.04
-1.52
-5.25
-7.45
-7.95
-7.13
-5.70
-4.51
-4.34
-5.82
-9.46
-15.58
-24.17
-34.74
-46.34
-57.71
-67.77
-75.89
-82.05
-86.63
-89.90
-91.64
-91.11
-87.42
-80.13
-69.69
-57.48
-45.29
-34.70
-26.55
-20.87
-17.18
-14.89
-13.52
-12.74
-12.15
-11.13
-8.98
-5.12
0.62
7.84
15.74
23.36
29.92
35.03
38.70
41.25
43.07
44.48
45.58
46.21
46.10
44.97
42.71
39.43
35.42
30.99
26.33
21.40
16.09
10.43
4.72
-0.45
-4.50
-7.09
-8.26
-8.36
-7.89
-7.35
-7.27
-8.35
-11.29
-16.41
-23.06
-29.46
-33.06
-31.50
-23.82
-11.10
3.82
17.51
27.28
32.17
32.99
31.48
29.29
27.17
24.95
21.95
17.77
12.59
7.23
2.67
-0.37
-1.70
-1.62
-0.63
0.82
2.40
3.78
4.56
4.29
2.67
-0.16
-3.53
-6.36
-7.61
-6.67
-3.69
0.49
4.67
7.75
9.10
8.78
7.39
5.76
4.57
4.02
3.80
3.32
1.98
-0.48
-3.88
-7.65
-11.02
-13.17
-13.55
-12.04
-9.17
-6.08
-4.28
-5.09
-8.97
-15.20
-22.00
-27.30
-29.72
-29.29
-27.43
-26.29
-27.55
-31.63
-37.52
-43.38
-47.47
-48.92
-47.90
-45.27
-42.05
-38.95
-36.35
-34.35
-33.00
-32.24
-31.89
-31.60
-30.89
-29.40
-26.99
-23.81
-20.21
-16.58
-13.21
-10.29
-7.82
-5.63
-3.48
-1.03
1.91
5.28
8.84
12.19
15.03
17.26
18.98
20.30
21.26
21.79
21.80
21.32
20.50
19.45
18.13
16.38
14.12
11.61
9.43
8.22
8.18
8.83
9.09
7.84
4.60
-0.11
-4.93
-8.31
-9.28
-7.97
-5.55
-3.58
-3.17
-4.50
-6.68
-8.29
-8.13
-5.76
-1.77
2.63
6.16
8.02
8.17
7.11
5.47
3.68
1.87
-0.03
-2.03
-3.93
-5.36
-5.92
-5.34
-3.67
-1.24
1.40
3.67
5.23
6.08
6.54
7.04
7.91
9.07
10.18
10.77
10.56
9.57
8.16
6.77
5.69
4.97
4.42
3.78
2.97
2.10
1.45
1.18
1.27
1.46
1.45
1.10
0.58
0.27
0.50
1.33
2.52
3.66
4.48
4.89
5.01
4.85
4.27
2.89
0.45
-3.00
-6.91
-10.38
-12.48
-12.67
-10.99
-8.11
-5.01
-2.61
-1.43
-1.39
-1.90
-2.25
-1.98
-1.07
0.09
0.94
1.11
0.57
-0.44
-1.59
-2.72
-3.85
-5.12
-6.58
-8.14
-9.52
-10.34
-10.30
-9.22
-7.15
-4.26
-0.91
2.53
5.66
8.23
10.15
11.55
12.60
13.49
14.28
14.91
15.24
15.18
14.74
14.03
13.25
12.54
12.01
11.68
11.48
11.34
11.13
10.76
10.21
9.54
8.91
8.48
8.35
8.47
8.70
8.87
8.87
8.68
8.38
8.00
7.54
6.91
6.03
4.90
3.62
2.36
1.31
0.59
0.18
0.01
-0.04
-0.06
-0.13
-0.36
-0.87
-1.75
-2.96
-4.32
-5.47
-6.07
-5.90
-5.04
-3.84
-2.76
-2.15
-2.11
-2.40
-2.57
-2.18
-1.06
0.61
2.33
3.54
3.92
3.52
2.69
1.90
1.36
0.97
0.40
-0.66
-2.22
-3.91
-5.21
-5.65
-5.12
-3.82
-2.17
-0.53
0.86
1.97
2.87
3.70
4.58
5.58
6.69
7.79
8.67
9.14
9.08
8.58
7.90
7.33
7.06
7.07
7.14
7.02
6.50
5.53
4.22
2.82
1.63
0.95
0.99
1.75
2.95
4.08
4.63
4.32
3.28
1.95
0.93
0.57
0.81
1.24
1.41
1.06
0.25
-0.74
-1.62
-2.29
-2.84
-3.44
-4.12
-4.80
-5.17
-4.89
-3.69
-1.53
1.37
4.55
7.43
9.50
10.39
10.02
8.59
6.50
4.27
2.35
1.07
0.60
0.94
1.87
3.05
4.07
4.54
4.22
3.08
1.37
-0.52
-2.11
-3.05
-3.20
-2.62
-1.59
-0.36
0.89
2.08
3.26
4.41
5.50
6.44
7.15
7.64
8.02
8.45
9.09
9.96
10.96
11.86
12.39
12.36
11.75
10.74
9.60
8.60
7.85
7.23
6.55
5.61
4.45
3.30
2.47
2.17
2.33
2.66
2.74
2.31
1.33
0.08
-1.10
-1.91
-2.19
-1.94
-1.26
-0.31
0.76
1.79
2.65
3.20
3.40
3.21
2.65
1.76
0.53
-1.02
-2.88
-5.00
-7.19
-9.19
-10.70
-11.48
-11.43
-10.74
-9.73
-8.76
-8.03
-7.45
-6.70
-5.45
-3.49
-0.90
2.01
4.83
7.19
8.92
10.00
10.54
10.69
10.51
10.03
9.19
8.01
6.64
5.36
4.55
4.46
5.08
6.12
7.13
7.70
7.60
6.91
5.86
4.78
3.88
3.27
3.00
3.06
3.38
3.81
4.08
3.94
3.23
2.05
0.70
-0.39
-0.90
-0.74
-0.04
0.96
2.06
3.20
4.39
5.63
6.82
7.78
8.35
8.50
8.43
8.42
8.69
9.33
10.25
11.27
12.15
12.64
12.43
11.30
9.19
6.32
3.19
0.45
-1.36
-2.04
-1.81
-1.28
-1.16
-1.99
-3.94
-6.68
-9.55
-11.77
-12.72
-12.17
-10.27
-7.50
-4.43
-1.60
0.64
1.98
2.23
1.28
-0.74
-3.44
-6.13
-8.11
-8.99
-8.83
-8.20
-7.94
-8.81
-11.16
-14.87
-19.38
-23.90
-27.67
-30.17
-31.21
-30.92
-29.65
-27.85
-25.92
-24.17
-22.83
-22.01
-21.74
-21.95
-22.48
-23.12
-23.64
-23.91
-23.86
-23.51
-22.89
-22.04
-20.99
-19.76
-18.39
-16.98
-15.59
-14.16
-12.54
-10.46
-7.75
-4.58
-1.56
0.42
0.55
-1.46
-5.11
-9.25
-12.57
-14.11
-13.71
-11.92
-9.71
-7.94
-7.01
-6.78
-6.75
-6.34
-5.14
-3.06
-0.35
2.53
5.05
6.82
7.62
7.43
6.36
4.57
2.27
-0.23
-2.55
-4.24
-5.01
-4.80
-3.85
-2.59
-1.39
-0.38
0.57
1.76
3.48
5.77
8.45
11.16
13.50
15.22
16.22
16.52
16.23
15.47
14.42
13.29
12.28
11.53
11.00
10.56
10.02
9.28
8.42
7.63
7.08
6.84
6.87
7.04
7.16
7.06
6.56
5.54
4.00
2.22
0.58
-0.55
-1.07
-1.27
-1.68
-2.73
-4.49
-6.54
-8.22
-8.94
-8.48
-7.07
-5.21
-3.40
-1.90
-0.74
0.23
1.22
2.38
3.80
5.49
7.37
9.21
10.75
11.66
11.76
11.00
9.53
7.64
5.67
3.86
2.40
1.38
0.85
0.80
1.21
1.98
2.94
3.91
4.78
5.48
6.06
6.59
7.11
7.66
8.23
8.83
9.46
10.13
10.78
11.30
11.55
11.39
10.76
9.70
8.32
6.81
5.37
4.17
3.34
3.00
3.19
3.86
4.81
5.76
6.42
6.60
6.27
5.54
4.59
3.59
2.69
2.06
1.80
1.95
2.35
2.69
2.59
1.83
0.49
-1.10
-2.53
-3.53
-4.11
-4.44
-4.72
-4.99
-5.17
-5.14
-4.82
-4.24
-3.44
-2.49
-1.44
-0.38
0.52
1.10
1.31
1.27
1.17
1.23
1.48
1.81
2.03
1.99
1.70
1.31
1.00
0.86
0.78
0.57
-0.03
-1.08
-2.43
-3.71
-4.44
-4.27
-3.11
-1.16
1.17
3.49
5.54
7.18
8.42
9.28
9.77
9.92
9.76
9.36
8.84
8.33
7.88
7.51
7.19
6.94
6.75
6.63
6.54
6.52
6.57
6.69
6.86
7.07
7.30
7.53
7.76
7.98
8.46
9.41
10.83
12.43
13.71
14.22
13.89
13.09
12.48
13.14
15.65
19.73
24.41
28.56
31.58
33.62
35.41
37.59
41.13
46.22
52.33
58.44
63.58
67.32
69.97
72.36
75.71
82.44
94.75
113.61
137.84
163.92
186.85
201.74
205.41
191.10
157.29
107.75
50.70
-4.72
-52.14
-89.31
-116.85
-136.24
-148.70
-154.26
-153.37
-147.53
-139.08
-130.44
-123.16
-117.57
-113.01
-108.62
-103.10
-95.86
-87.23
-78.26
-70.15
-63.65
-58.75
-54.90
-51.43
-47.42
-42.43
-36.60
-30.55
-24.99
-20.38
-16.78
-13.86
-11.26
-8.48
-5.26
-1.63
2.11
5.65
8.76
11.38
13.62
15.59
17.42
19.12
20.59
21.64
22.09
21.80
20.73
18.95
16.41
13.34
9.92
6.36
2.85
-0.42
-3.27
-5.56
-7.19
-8.12
-8.35
-7.96
-7.06
-5.71
-4.03
-2.10
0.02
2.29
4.76
7.31
9.90
12.52
15.19
17.93
20.79
23.85
27.19
30.95
34.99
39.21
43.59
48.13
52.84
57.76
62.95
68.51
74.62
80.97
87.42
93.89
100.34
106.79
113.25
119.81
126.52
133.59
140.51
146.98
152.77
157.63
161.21
162.97
162.00
156.72
149.85
142.05
133.66
124.95
116.14
107.41
98.90
90.76
83.10
76.10
69.30
62.48
55.61
48.75
42.07
35.69
29.67
23.96
18.54
12.89
6.82
0.40
-6.05
-12.16
-17.64
-22.55
-27.21
-32.10
-37.95
-45.08
-53.33
-62.12
-70.81
-78.94
-86.59
-94.31
-102.90
-113.17
-125.31
-138.83
-152.65
-165.74
-177.45
-187.80
-197.39
-207.09
-217.76
-230.22
-245.42
-264.19
-286.52
-310.64
-332.68
-347.61
-351.18
-341.89
-321.49
-293.92
-262.96
-230.44
-196.10
-158.97
-119.26
-79.11
-41.72
-9.32
18.18
43.05
68.06
94.44
121.00
144.79
162.81
173.37
176.69
174.39
168.27
159.54
148.32
133.86
115.00
90.57
59.71
22.22
-21.19
-68.47
-116.14
-159.61
-194.28
-217.03
-227.40
-227.94
-223.23
-217.95
-214.82
-213.71
-212.09
-206.89
-196.52
-181.96
-166.40
-153.55
-145.73
-142.55
-141.04
-136.70
-125.22
-104.20
-74.17
-38.51
-2.44
28.83
52.06
66.98
76.08
83.03
90.64
99.49
107.83
112.82
112.12
105.01
92.51
76.81
60.43
45.62
34.12
26.86
23.69
23.24
23.21
21.26
16.00
7.66
-2.17
-11.29
-17.70
-20.18
-18.33
-12.32
-2.80
9.10
21.81
33.54
42.79
48.90
52.14
53.53
54.33
55.53
57.52
60.12
62.66
64.19
63.92
61.51
57.27
52.08
46.97
42.77
39.85
38.20
37.69
38.17
39.33
40.47
40.44
37.99
32.40
24.07
14.58
6.10
0.45
-1.74
-1.25
0.21
0.87
-0.19
-2.65
-5.14
-5.88
-3.48
2.30
10.47
19.09
26.03
29.68
29.44
25.78
19.91
13.28
7.22
2.61
-0.28
-1.71
-2.22
-2.41
-2.61
-2.77
-2.53
-1.35
1.13
5.02
10.01
15.58
21.02
25.71
29.24
31.45
32.46
32.50
31.75
30.23
27.90
24.88
21.57
18.61
16.54
15.51
15.05
14.40
12.94
10.65
8.29
7.04
7.91
11.26
16.60
22.81
28.53
32.68
34.68
34.56
32.77
29.97
26.69
23.19
19.42
15.24
10.71
6.23
2.44
-0.19
-1.69
-2.69
-4.05
-6.43
-9.81
-13.58
-16.82
-18.84
-19.51
-19.12
-18.10
-16.54
-14.06
-9.95
-3.57
5.25
15.93
27.22
37.54
45.38
49.71
50.29
47.48
42.05
34.89
26.80
18.66
11.39
5.89
2.74
1.90
2.64
3.88
4.78
5.21
5.82
7.60
11.18
16.33
21.91
26.45
28.86
28.88
27.16
24.75
22.66
21.35
20.70
20.22
19.27
17.37
14.30
10.19
5.55
1.16
-2.16
-3.81
-3.68
-2.24
-0.43
0.73
0.52
-1.16
-3.82
-6.65
-8.80
-9.78
-9.53
-8.41
-6.92
-5.54
-4.54
-3.99
-3.78
-3.70
-3.62
-3.57
-3.80
-4.73
-6.63
-9.44
-12.60
-15.33
-17.06
-17.75
-18.01
-18.68
-20.34
-22.88
-25.57
-27.42
-27.84
-26.96
-25.61
-24.78
-25.05
-26.20
-27.29
-27.06
-24.62
-19.93
-13.87
-7.97
-3.75
-2.07
-2.95
-5.73
-9.46
-13.28
-16.54
-18.62
-18.96
-17.21
-13.65
-9.37
-5.93
-4.61
-5.63
-7.95
-9.74
-9.35
-6.02
0.03
8.07
17.37
27.39
37.49
46.44
52.49
53.81
49.37
39.56
26.22
11.99
-0.49
-9.33
-13.65
-13.46
-9.44
-2.60
5.88
14.91
23.67
31.65
38.59
44.37
48.89
52.00
53.59
53.66
52.45
50.41
48.14
46.20
44.96
44.53
44.73
45.22
45.58
45.41
44.49
42.84
40.70
38.30
35.77
32.96
29.53
25.14
19.60
13.01
5.73
-1.63
-8.37
-13.75
-17.29
-18.94
-19.24
-19.15
-19.61
-21.09
-23.21
-24.94
-25.14
-23.24
-19.53
-15.03
-10.93
-8.16
-7.17
-8.11
-11.01
-15.67
-21.55
-27.57
-32.30
-34.45
-33.37
-29.27
-22.96
-15.39
-7.24
1.11
9.38
17.01
23.18
27.06
28.26
27.19
24.84
22.38
20.57
19.51
18.70
17.53
15.66
13.35
11.30
10.31
10.78
12.48
14.55
15.87
15.47
12.95
8.66
3.58
-1.02
-3.96
-4.61
-2.98
0.29
4.22
7.92
10.77
12.59
13.41
13.32
12.45
11.00
9.30
7.77
6.68
5.81
4.43
1.52
-3.63
-11.00
-19.58
-27.72
-33.73
-36.66
-36.56
-34.46
-31.82
-29.80
-28.87
-28.57
-27.86
-25.71
-21.65
-16.04
-9.85
-4.30
-0.36
1.37
0.62
-2.69
-8.42
-16.05
-24.55
-32.48
-38.41
-41.37
-41.11
-38.11
-33.26
-27.58
-21.96
-17.03
-13.15
-10.35
-8.33
-6.62
-4.83
-2.79
-0.66
1.23
2.63
3.47
3.81
3.72
3.15
2.02
0.34
-1.72
-3.87
-5.88
-7.67
-9.31
-10.88
-12.40
-13.73
-14.71
-15.23
-15.27
-14.89
-14.24
-13.46
-12.69
-12.01
-11.37
-10.63
-9.59
-8.01
-5.77
-2.92
0.27
3.18
4.94
4.65
1.74
-3.71
-10.84
-18.27
-24.55
-28.64
-30.23
-29.74
-28.08
-26.30
-25.19
-25.02
-25.41
-25.46
-24.16
-20.92
-16.06
-10.75
-6.50
-4.41
-4.68
-6.76
-9.75
-13.03
-16.32
-19.52
-22.38
-24.44
-25.21
-24.53
-22.56
-19.58
-15.66
-10.60
-4.20
3.39
11.42
18.84
24.81
29.10
32.07
34.37
36.41
38.14
39.19
39.17
37.90
35.65
32.90
30.15
27.60
25.14
22.34
18.80
14.37
9.40
4.68
1.10
-0.64
-0.45
1.20
3.47
5.61
7.32
8.71
10.21
12.15
14.61
17.36
20.05
22.25
23.66
24.06
23.42
21.90
19.83
17.59
15.39
13.18
10.67
7.54
3.69
-0.65
-5.03
-9.00
-12.24
-14.63
-16.16
-16.87
-16.76
-15.89
-14.35
-12.24
-9.64
-6.59
-3.24
0.06
2.80
4.43
4.60
3.30
0.77
-2.67
-6.63
-10.69
-14.22
-16.49
-16.86
-15.13
-11.66
-7.18
-2.43
2.24
6.93
11.90
17.26
22.71
27.67
31.63
34.43
36.32
37.71
38.92
39.93
40.46
40.20
38.98
36.91
34.31
31.52
28.75
26.07
23.35
20.41
17.15
13.66
10.20
7.07
4.47
2.35
0.45
-1.55
-3.79
-6.07
-7.93
-8.80
-8.32
-6.47
-3.62
-0.36
2.74
5.25
6.89
7.47
6.95
5.55
3.80
2.36
1.75
2.03
2.69
3.05
2.62
1.53
0.35
-0.34
-0.49
-0.78
-2.29
-5.93
-11.84
-19.33
-27.24
-34.36
-39.81
-43.00
-43.61
-41.50
-36.83
-30.28
-22.94
-16.06
-10.54
-6.64
-4.01
-2.01
-0.26
1.13
1.64
0.73
-1.76
-5.28
-8.84
-11.39
-12.37
-11.81
-10.23
-8.10
-5.49
-2.05
2.67
8.68
15.26
21.15
25.16
26.88
26.88
26.47
26.96
28.90
31.74
34.13
34.54
32.06
26.76
19.73
12.61
7.05
4.15
4.14
6.38
9.68
12.67
14.35
14.24
12.43
9.39
5.80
2.32
-0.42
-1.90
-1.82
-0.20
2.44
5.28
7.48
8.57
8.75
8.81
9.73
12.09
15.78
19.94
23.45
25.58
26.25
26.02
25.58
25.26
24.82
23.56
20.86
16.49
10.76
4.36
-1.90
-7.35
-11.57
-14.46
-16.30
-17.65
-19.07
-20.79
-22.40
-22.92
-21.29
-17.00
-10.62
-3.66
1.97
4.83
4.47
1.39
-3.29
-8.33
-12.75
-16.01
-17.96
-18.85
-19.09
-19.06
-18.84
-18.12
-16.41
-13.33
-9.01
-4.10
0.37
3.31
3.83
1.48
-3.64
-10.59
-17.31
-20.67
-17.14
-4.06
18.88
48.95
80.94
108.80
127.92
136.56
135.99
129.26
119.41
108.13
95.54
81.02
64.43
46.73
29.86
15.79
5.57
-1.23
-6.19
-11.21
-17.44
-24.81
-32.11
-37.78
-40.76
-41.00
-39.48
-37.63
-36.78
-37.73
-40.87
-46.38
-54.56
-65.70
-79.70
-95.59
-111.34
-124.38
-132.43
-134.56
-131.58
-125.62
-119.04
-113.16
-107.69
-101.05
-91.51
-78.33
-62.35
-45.64
-30.58
-18.96
-11.54
-8.18
-8.19
-10.68
-14.56
-18.63
-21.75
-23.21
-23.05
-22.01
-21.13
-21.17
-22.24
-23.79
-24.99
-25.15
-23.92
-21.35
-17.67
-13.16
-8.02
-2.43
3.42
9.24
14.63
19.14
22.35
24.10
24.56
24.18
23.40
22.46
21.17
19.11
15.90
11.49
6.39
1.45
-2.37
-4.49
-4.81
-3.72
-1.76
0.77
3.88
7.70
12.08
16.18
18.62
17.91
13.18
4.76
-5.78
-16.14
-24.10
-28.39
-29.08
-27.37
-25.06
-23.66
-23.79
-24.86
-25.48
-24.10
-19.93
-13.39
-5.88
0.88
5.64
8.03
8.32
6.92
4.04
-0.28
-5.83
-11.92
-17.51
-21.60
-23.62
-23.67
-22.21
-19.74
-16.45
-12.33
-7.33
-1.58
4.57
10.70
16.53
21.98
27.03
31.61
35.50
38.38
39.91
39.91
38.42
35.65
31.98
27.79
23.48
19.38
15.78
12.91
10.89
9.82
9.63
10.13
10.99
11.84
12.39
12.49
12.19
11.72
11.45
11.75
12.80
14.47
16.24
17.37
17.25
15.66
12.94
9.85
7.13
5.07
3.42
1.61
-0.85
-3.99
-7.27
-9.83
-10.92
-10.22
-7.95
-4.72
-1.23
1.96
4.59
6.71
8.61
10.60
12.82
15.13
17.13
18.28
18.12
16.33
12.92
8.16
2.66
-2.77
-7.21
-9.84
-10.33
-8.85
-6.05
-2.63
0.84
4.15
7.27
10.11
12.42
13.91
14.54
14.68
15.03
16.31
18.87
22.46
26.33
29.60
31.60
32.21
31.77
30.94
30.34
30.31
30.73
31.05
30.54
28.57
24.93
19.93
14.24
8.63
3.63
-0.53
-3.96
-6.96
-9.86
-12.87
-16.03
-19.09
-21.54
-22.68
-21.81
-18.60
-13.32
-6.77
-0.03
6.01
10.86
14.49
16.95
18.13
17.80
15.83
12.59
8.91
5.75
3.77
2.94
2.76
2.63
2.33
2.11
2.50
3.91
6.36
9.63
13.36
17.38
21.57
25.78
29.59
32.35
33.34
32.05
28.33
22.46
15.18
7.57
0.83
-4.00
-6.32
-6.17
-4.12
-1.01
2.41
5.72
8.80
11.74
14.58
17.20
19.39
20.95
21.85
22.18
22.11
21.76
21.18
20.36
19.25
17.87
16.26
14.50
12.60
10.54
8.29
5.90
3.55
1.48
-0.03
-0.87
-1.07
-0.75
-0.03
1.02
2.33
3.80
5.22
6.31
6.86
6.75
5.90
4.33
2.17
-0.25
-2.35
-3.55
-3.65
-3.22
-3.56
-6.25
-12.38
-21.90
-33.47
-44.91
-54.13
-59.83
-61.97
-61.57
-60.22
-59.43
-60.06
-62.07
-64.49
-65.79
-64.53
-60.01
-52.74
-44.32
-36.88
-32.23
-31.24
-33.57
-37.80
-42.08
-44.70
-44.68
-41.90
-37.01
-30.92
-24.38
-17.63
-10.42
-2.35
6.76
16.57
26.38
35.20
42.12
46.33
47.18
44.22
37.37
27.14
14.69
1.64
-10.42
-20.37
-27.81
-32.89
-36.00
-37.46
-37.44
-36.10
-33.76
-31.01
-28.40
-26.31
-24.69
-23.12
-21.08
-18.30
-14.98
-11.84
-9.72
-9.08
-9.61
-10.36
-10.23
-8.70
-6.23
-4.04
-3.46
-5.18
-8.82
-13.18
-16.83
-18.75
-18.61
-16.72
-13.77
-10.49
-7.41
-4.87
-2.86
-1.02
1.19
4.24
8.18
12.50
16.27
18.49
18.52
16.23
12.10
6.97
1.91
-2.08
-4.30
-4.59
-3.37
-1.38
0.66
2.53
4.49
7.04
10.48
14.54
18.57
21.86
24.15
25.82
27.61
30.06
33.17
36.26
38.33
38.68
37.16
34.36
31.16
28.37
26.35
24.94
23.73
22.31
20.59
18.79
17.38
16.82
17.29
18.61
20.20
21.37
21.48
20.24
17.78
14.62
11.48
9.10
7.94
8.08
9.13
10.36
10.99
10.50
8.87
6.53
4.15
2.21
0.87
-0.10
-1.00
-1.97
-2.92
-3.62
-3.97
-4.11
-4.38
-5.09
-6.25
-7.51
-8.19
-7.67
-5.59
-2.03
2.53
7.30
11.43
14.20
15.19
14.29
11.68
7.79
3.25
-1.18
-4.74
-6.89
-7.57
-7.27
-6.75
-6.56
-6.57
-6.02
-3.93
0.23
5.95
11.77
15.92
17.22
15.71
12.61
9.73
8.55
9.55
12.18
15.23
17.57
18.56
18.25
17.03
15.29
13.11
10.34
6.79
2.51
-2.05
-6.20
-9.21
-10.77
-10.94
-10.25
-9.31
-8.70
-8.69
-9.24
-10.09
-10.81
-11.04
-10.67
-9.80
-8.76
-7.85
-7.18
-6.69
-6.29
-6.02
-6.08
-6.62
-7.53
-8.42
-8.90
-8.93
-9.04
-10.13
-12.83
-16.94
-21.28
-24.08
-23.94
-20.55
-15.04
-9.44
-5.88
-5.58
-8.31
-12.40
-15.21
-14.00
-6.91
6.36
24.33
44.13
62.23
75.39
81.39
79.38
70.02
55.32
38.16
21.60
8.06
-1.29
-6.68
-9.27
-10.32
-10.54
-9.93
-8.23
-5.41
-1.94
1.60
5.10
9.20
15.06
23.42
33.86
44.51
52.70
56.08
53.61
45.93
35.03
23.51
13.78
7.54
5.47
7.25
11.67
16.92
21.04
22.45
20.43
15.28
8.08
0.21
-7.20
-13.53
-18.78
-23.30
-27.44
-31.19
-34.07
-35.25
-33.90
-29.65
-22.84
-14.47
-5.98
1.21
6.04
7.95
6.85
3.09
-2.70
-9.61
-16.53
-22.34
-26.15
-27.60
-27.14
-25.95
-25.45
-26.55
-29.01
-31.15
-30.38
-24.30
-11.95
5.53
25.04
42.65
54.92
59.93
57.70
49.78
38.58
26.63
16.05
8.19
3.43
1.18
0.18
-0.95
-3.03
-6.05
-9.30
-11.84
-13.01
-12.70
-11.30
-9.48
-7.92
-7.21
-7.90
-10.33
-14.54
-20.09
-26.11
-31.56
-35.69
-38.35
-40.05
-41.66
-43.94
-47.14
-50.97
-54.75
-57.74
-59.45
-59.75
-58.80
-56.89
-54.34
-51.37
-48.23
-45.11
-42.04
-38.75
-34.62
-29.05
-21.92
-13.93
-6.61
-1.68
-0.35
-2.60
-7.21
-12.25
-15.99
-17.55
-17.21
-16.07
-15.42
-16.11
-18.14
-20.63
-22.16
-21.43
-17.82
-11.89
-5.10
0.76
4.34
5.11
3.40
-0.10
-4.72
-9.91
-15.14
-19.65
-22.55
-23.11
-21.20
-17.42
-12.87
-8.65
-5.46
-3.37
-2.01
-0.86
0.51
2.37
4.97
8.55
13.28
19.09
25.49
31.65
36.62
39.66
40.60
39.80
37.91
35.52
32.87
29.82
26.13
21.73
16.95
12.38
8.66
6.19
4.91
4.36
3.95
3.28
2.40
1.85
2.34
4.20
7.06
9.76
10.83
9.19
4.72
-1.63
-8.22
-13.45
-16.32
-16.71
-15.23
-12.78
-10.26
-8.25
-6.96
-6.24
-5.69
-4.71
-2.85
0.09
3.78
7.50
10.25
11.11
9.61
5.84
0.55
-5.12
-9.98
-13.15
-14.22
-13.18
-10.32
-6.01
-0.82
4.55
9.27
12.70
14.67
15.64
16.52
18.21
21.14
24.96
28.74
31.38
32.15
30.89
27.96
23.94
19.35
14.59
9.95
5.72
2.15
-0.65
-2.80
-4.73
-6.93
-9.61
-12.39
-14.28
-14.06
-10.79
-4.30
4.78
15.25
25.84
35.58
43.84
50.18
54.05
54.69
51.42
44.14
33.65
21.71
10.52
1.93
-3.23
-5.39
-5.79
-5.78
-6.05
-6.42
-6.12
-4.43
-1.26
2.80
6.78
9.87
11.81
12.86
13.49
14.03
14.54
14.88
14.92
14.68
14.28
13.72
12.79
11.03
8.03
3.66
-1.71
-7.18
-11.61
-14.13
-14.52
-13.30
-11.47
-9.91
-8.94
-8.18
-6.89
-4.48
-0.99
2.88
6.18
8.23
9.09
9.44
10.21
11.96
14.59
17.38
19.42
20.07
19.24
17.33
14.99
12.78
10.99
9.70
8.83
8.33
8.08
7.91
7.39
6.00
3.32
-0.65
-5.39
-9.92
-13.18
-14.47
-13.59
-10.95
-7.28
-3.41
-0.05
2.38
3.69
3.98
3.62
3.16
3.14
3.82
5.03
6.23
6.74
6.20
4.77
3.12
1.98
1.74
2.18
2.56
1.97
-0.24
-4.21
-9.54
-15.42
-20.92
-25.25
-27.90
-28.83
-28.35
-27.05
-25.42
-23.71
-21.82
-19.51
-16.63
-13.36
-10.20
-7.73
-6.43
-6.39
-7.31
-8.47
-8.73
-6.79
-1.53
7.46
19.54
33.19
46.38
57.32
64.83
68.46
68.23
64.44
57.65
49.00
40.39
34.17
32.48
36.14
44.20
54.07
62.65
67.53
67.82
64.12
57.82
50.35
42.58
34.98
27.75
21.12
15.22
9.85
4.39
-2.07
-10.17
-19.92
-30.47
-40.40
-48.23
-53.00
-54.62
-53.75
-51.67
-49.79
-49.18
-50.24
-52.62
-55.66
-58.89
-62.36
-66.48
-71.51
-77.02
-81.91
-85.03
-86.00
-85.67
-85.66
-87.40
-91.05
-95.11
-97.04
-94.54
-86.76
-74.86
-61.46
-49.37
-40.34
-34.31
-29.68
-24.23
-16.44
-6.28
4.73
14.36
20.77
23.33
22.57
19.61
15.32
9.97
3.50
-3.90
-11.44
-17.86
-21.97
-23.22
-21.84
-18.68
-14.70
-10.74
-7.32
-4.81
-3.41
-3.09
-3.49
-3.96
-3.77
-2.45
0.02
3.23
6.62
9.74
12.41
14.70
16.61
17.98
18.39
17.45
15.08
11.68
8.13
5.37
4.05
4.25
5.48
6.93
7.90
8.13
7.81
7.40
7.22
7.27
7.30
7.03
6.52
6.12
6.18
6.69
7.07
6.43
4.03
-0.21
-5.60
-11.03
-15.44
-18.26
-19.47
-19.41
-18.48
-16.94
-15.00
-12.84
-10.64
-8.50
-6.42
-4.33
-2.21
-0.12
1.72
3.04
3.48
2.65
0.17
-4.12
-9.94
-16.47
-22.45
-26.49
-27.51
-24.98
-19.03
-10.37
-0.12
10.42
19.97
27.57
32.80
35.90
37.65
38.96
40.47
42.29
43.97
44.85
44.38
42.31
38.75
34.04
28.62
22.93
17.43
12.54
8.60
5.74
3.87
2.66
1.78
0.97
0.20
-0.29
-0.20
0.75
2.59
5.08
7.76
10.03
11.43
11.76
11.13
9.92
8.51
7.14
5.92
4.82
4.00
3.73
4.28
5.55
6.99
7.76
7.08
4.74
1.21
-2.54
-5.51
-7.09
-7.29
-6.54
-5.43
-4.35
-3.41
-2.49
-1.42
-0.05
1.62
3.45
5.24
6.75
7.79
8.18
7.73
6.20
3.45
-0.40
-4.83
-9.03
-12.23
-14.02
-14.53
-14.22
-13.53
-12.54
-11.03
-8.69
-5.54
-2.05
1.09
3.44
5.19
7.22
10.63
16.13
23.52
31.64
38.69
42.96
43.47
40.33
34.68
28.18
22.39
18.16
15.50
13.68
11.85
9.46
6.58
3.79
1.77
0.97
1.26
2.11
2.74
2.55
1.29
-0.88
-3.37
-5.62
-6.97
-6.92
-5.08
-1.08
5.21
13.57
22.85
31.01
35.65
35.34
30.77
24.89
21.56
23.48
30.41
39.11
44.98
44.49
36.91
24.19
9.31
-5.64
-20.28
-35.07
-49.74
-62.29
-69.46
-68.30
-57.87
-39.83
-17.63
4.56
23.19
35.88
41.53
40.25
33.21
22.66
11.53
2.90
-0.89
1.04
8.07
18.36
29.62
39.73
47.21
51.39
52.28
50.45
46.68
41.72
36.06
29.78
22.57
14.05
4.03
-7.08
-18.15
-27.61
-33.85
-35.81
-33.39
-27.55
-19.90
-12.23
-5.93
-1.78
0.05
-0.14
-1.88
-4.65
-7.92
-11.19
-13.97
-15.83
-16.47
-15.90
-14.38
-12.37
-10.36
-8.77
-7.83
-7.53
-7.66
-7.84
-7.74
-7.27
-6.79
-7.13
-9.24
-13.78
-20.75
-29.35
-38.17
-45.70
-50.84
-53.26
-53.48
-52.55
-51.51
-50.94
-50.70
-50.05
-48.07
-44.20
-38.58
-32.01
-25.62
-20.41
-17.01
-15.66
-16.31
-18.76
-22.46
-26.49
-29.64
-30.90
-29.88
-26.97
-23.06
-18.91
-14.70
-10.04
-4.53
1.71
7.84
12.69
15.39
15.90
15.10
14.20
14.14
15.12
16.57
17.64
17.63
16.43
14.42
12.28
10.50
9.14
7.88
6.25
3.99
1.27
-1.32
-3.04
-3.42
-2.48
-0.73
1.08
2.31
2.74
2.68
2.69
3.28
4.51
5.90
6.77
6.63
5.62
4.36
3.57
3.54
3.86
3.72
2.46
-0.01
-3.08
-5.85
-7.58
-8.07
-7.61
-6.77
-6.03
-5.58
-5.36
-5.08
-4.42
-3.12
-1.06
1.64
4.58
7.21
8.97
9.39
8.23
5.41
1.15
-4.04
-9.33
-13.76
-16.62
-17.62
-16.95
-15.02
-12.14
-8.46
-4.04
0.80
5.46
9.22
11.62
12.83
13.58
14.81
17.14
20.53
24.25
27.36
29.08
29.12
27.65
25.09
21.88
18.30
14.45
10.33
6.00
1.68
-2.17
-5.02
-6.40
-6.16
-4.50
-1.95
0.88
3.58
5.96
8.06
9.94
11.51
12.58
12.97
12.70
12.02
11.23
10.50
9.69
8.53
6.87
4.88
2.98
1.55
0.61
-0.18
-1.31
-3.04
-5.17
-7.21
-8.65
-9.35
-9.54
-9.65
-9.98
-10.46
-10.69
-10.25
-8.89
-6.68
-3.85
-0.65
2.75
6.30
9.95
13.59
16.97
19.71
21.45
21.97
21.43
20.35
19.48
19.38
20.16
21.41
22.47
22.93
22.83
22.78
23.44
25.19
27.84
30.78
33.38
35.27
36.45
37.03
37.02
36.20
34.29
31.15
26.95
22.15
17.31
12.88
9.17
6.37
4.54
3.62
3.38
3.35
2.96
1.78
-0.18
-2.50
-4.38
-5.08
-4.27
-2.27
0.08
1.84
2.42
1.98
1.35
1.62
3.60
7.33
12.06
16.53
19.52
20.47
19.77
18.81
19.48
23.37
30.80
40.33
48.93
53.16
50.79
42.13
30.17
19.36
13.56
14.33
20.40
28.66
35.87
40.05
40.65
37.70
30.87
19.36
2.77
-17.96
-40.55
-62.56
-82.93
-102.36
-121.79
-140.15
-152.98
-153.71
-137.39
-104.79
-64.17
-28.92
-11.76
-18.48
-44.86
-78.53
-104.79
-113.23
-101.59
-75.44
-44.49
-17.90
-0.82
6.63
8.07
8.24
10.30
14.26
16.99
13.92
1.49
-20.40
-47.35
-71.56
-84.74
-82.12
-65.31
-42.42
-25.24
-24.04
-42.75
-76.72
-114.68
-143.73
-155.18
-147.75
-126.70
-99.56
-71.55
-43.37
-12.88
21.18
56.47
87.28
107.98
117.31
120.50
127.74
149.46
191.00
249.51
314.51
371.56
407.46
414.67
393.39
350.77
297.84
245.37
200.50
165.27
137.31
112.12
85.34
54.19
17.97
-22.32
-64.29
-104.41
-138.25
-161.39
-170.83
-166.74
-153.52
-139.07
-132.04
-138.04
-156.79
-181.88
-203.76
-214.61
-212.46
-202.45
-194.29
-197.49
-216.81
-250.42
-291.09
-329.62
-358.18
-372.14
-370.30
-354.19
-327.33
-294.61
-261.67
-233.58
-213.50
-201.50
-194.78
-188.91
-179.74
-164.95
-144.51
-120.05
-93.73
-67.40
-42.22
-18.86
2.32
21.38
38.97
56.56
76.11
99.45
127.04
157.19
186.07
208.71
220.95
220.91
209.45
189.24
163.08
132.76
99.28
64.05
30.08
2.03
-15.45
-19.91
-12.52
2.30
18.94
33.15
43.58
51.60
60.16
72.17
89.41
112.09
138.49
165.19
187.54
201.01
202.54
191.94
171.75
146.40
120.72
98.91
83.95
77.35
79.07
87.60
100.62
115.76
131.45
146.95
161.44
173.14
178.65
173.96
156.40
126.11
85.93
39.54
-10.92
-65.61
-125.25
-188.34
-249.11
-298.36
-327.11
-330.66
-311.02
-276.04
-235.95
-199.26
-170.19
-148.58
-131.83
-117.20
-103.18
-89.51
-76.40
-63.85
-51.45
-38.87
-26.09
-13.30
-0.81
11.82
26.11
44.57
69.92
103.38
142.68
180.96
207.81
212.94
190.98
145.05
86.82
32.47
-3.66
-14.21
-0.30
31.00
70.94
112.71
152.32
187.23
214.32
229.21
227.11
204.46
160.30
96.75
19.16
-64.25
-143.21
-207.03
-247.36
-260.69
-249.49
-221.01
-184.13
-146.00
-110.06
-76.22
-42.73
-7.80
29.72
70.91
117.39
170.87
231.42
295.60
356.22
404.23
432.25
437.59
423.42
397.32
368.00
342.19
322.80
309.49
300.40
293.87
289.09
285.81
283.66
281.97
279.97
276.84
272.22
266.23
259.47
252.17
243.74
232.75
217.40
196.26
168.17
132.98
91.73
46.66
0.32
-45.30
-89.13
-130.80
-170.14
-207.58
-243.22
-276.60
-306.15
-329.89
-346.36
-355.00
-356.01
-345.30
-318.83
-275.98
-221.71
-163.37
-106.86
-55.27
-9.51
30.58
65.64
95.51
120.33
139.94
155.06
166.86
176.38
184.04
189.57
192.03
189.03
180.83
167.17
148.52
125.94
100.59
73.43
45.26
16.70
-12.10
-41.01
-70.07
-98.64
-125.47
-149.12
-168.27
-182.09
-190.44
-194.20
-194.93
-194.73
-195.25
-197.29
-200.82
-205.18
-209.53
-213.33
-216.66
-220.11
-224.60
-230.49
-237.27
-243.63
-248.02
-249.27
-247.23
-242.97
-238.50
-236.48
-239.75
-251.10
-272.73
-305.15
-345.96
-389.16
-425.89
-446.90
-445.81
-421.40
-377.99
-323.20
-264.59
-206.78
-150.74
-95.49
-40.69
11.77
58.33
96.01
124.40
145.95
164.32
181.89
198.38
211.48
218.68
219.35
215.16
208.85
202.37
195.91
188.41
179.20
169.24
160.94
156.70
157.26
161.12
165.54
168.03
167.70
165.11
161.35
156.60
149.73
138.80
122.34
100.38
74.61
47.52
21.30
-3.04
-25.53
-46.41
-65.34
-81.16
-92.48
-98.74
-100.83
-100.90
-101.32
-103.47
-106.99
-110.05
-110.50
-107.05
-99.93
-90.75
-81.50
-73.66
-67.57
-62.57
-57.64
-52.10
-45.94
-39.79
-34.39
-30.05
-26.52
-23.04
-18.82
-13.54
-7.48
-1.42
3.73
7.24
8.74
8.27
6.27
3.66
1.72
1.88
5.27
12.14
21.60
31.87
40.87
46.99
49.54
48.82
45.63
40.85
35.19
29.20
23.52
18.88
15.98
15.07
15.74
16.93
17.44
16.46
13.98
10.89
8.51
7.93
9.51
12.70
16.32
19.12
20.33
19.96
18.63
17.21
16.34
16.18
16.46
16.67
16.35
15.24
13.30
10.66
7.51
4.05
0.54
-2.68
-5.29
-7.03
-7.82
-7.79
-7.28
-6.62
-6.00
-5.47
-4.90
-4.09
-2.95
-1.52
0.01
1.42
2.55
3.39
4.08
4.78
5.59
6.45
7.15
7.48
7.28
6.55
5.43
4.13
2.84
1.71
0.87
0.45
0.49
0.85
1.10
0.59
-1.18
-4.27
-8.04
-11.29
-12.77
-11.72
-8.24
-3.23
2.06
6.55
9.67
11.43
12.09
11.91
11.02
9.41
7.18
4.59
2.04
-0.03
-1.38
-1.93
-1.83
-1.34
-0.64
0.14
1.02
2.12
3.50
5.05
6.53
7.57
7.87
7.34
6.18
4.74
3.41
2.40
1.73
1.26
0.92
0.78
1.06
1.99
3.67
5.92
8.35
10.48
11.90
12.40
12.04
11.07
9.76
8.39
7.00
5.50
3.71
1.52
-0.97
-3.46
-5.52
-6.88
-7.53
-7.86
-8.38
-9.49
-11.20
-13.14
-14.72
-15.49
-15.34
-14.50
-13.34
-12.23
-11.38
-10.98
-11.24
-12.42
-14.58
-17.34
-19.76
-20.61
-18.91
-14.51
-8.18
-1.37
4.46
8.48
10.72
11.82
12.60
13.54
14.59
15.41
15.58
14.95
13.69
12.09
10.37
8.52
6.31
3.47
-0.06
-4.02
-7.87
-10.99
-13.02
-13.98
-14.21
-14.18
-14.15
-14.08
-13.67
-12.67
-11.03
-8.99
-6.94
-5.14
-3.63
-2.30
-1.04
0.08
0.84
0.98
0.48
-0.35
-1.03
-1.19
-0.80
-0.23
-0.06
-0.69
-2.09
-3.74
-4.98
-5.34
-4.81
-3.83
-3.02
-2.82
-3.30
-4.18
-5.07
-5.74
-6.20
-6.63
-7.11
-7.56
-7.86
-7.99
-8.25
-9.12
-10.91
-13.43
-15.89
-17.20
-16.46
-13.49
-8.88
-3.68
1.09
4.89
7.69
9.69
11.02
11.49
10.81
8.84
5.88
2.66
0.14
-0.99
-0.57
0.96
2.82
4.27
4.95
5.00
4.90
5.13
5.91
7.11
8.40
9.46
10.20
10.74
11.30
12.00
12.80
13.51
13.95
14.04
13.83
13.47
13.10
12.75
12.40
11.98
11.44
10.76
9.94
8.95
7.73
6.26
4.59
2.87
1.31
0.09
-0.78
-1.46
-2.17
-3.07
-4.19
-5.32
-6.21
-6.67
-6.65
-6.24
-5.67
-5.23
-5.22
-5.96
-7.64
-10.17
-13.05
-15.42
-16.36
-15.26
-12.12
-7.62
-2.80
1.31
4.11
5.54
5.94
5.76
5.27
4.60
3.67
2.48
1.09
-0.31
-1.51
-2.36
-2.93
-3.41
-4.00
-4.75
-5.51
-5.88
-5.52
-4.30
-2.38
-0.16
1.97
3.87
5.60
7.31
9.11
10.88
12.40
13.52
14.25
14.75
15.17
15.51
15.58
15.10
13.94
12.24
10.45
9.09
8.46
8.57
8.98
9.15
8.71
7.59
6.12
4.79
3.97
3.80
4.13
4.62
4.88
4.65
3.82
2.41
0.62
-1.34
-3.26
-4.93
-6.24
-7.06
-7.40
-7.44
-7.69
-8.81
-11.47
-15.82
-21.21
-26.33
-29.58
-29.83
-26.96
-21.89
-16.04
-10.78
-6.84
-4.25
-2.65
-1.73
-1.43
-1.86
-3.04
-4.65
-6.11
-6.78
-6.30
-4.78
-2.74
-0.87
0.32
0.63
0.24
-0.46
-0.99
-1.06
-0.54
0.47
1.77
3.07
4.20
5.04
5.59
5.89
5.97
5.81
5.41
4.83
4.21
3.73
3.61
3.86
4.35
4.79
4.93
4.61
3.88
2.90
1.94
1.20
0.78
0.67
0.85
1.22
1.68
2.07
2.25
2.15
1.85
1.58
1.64
2.22
3.30
4.54
5.51
5.81
5.27
3.99
2.27
0.43
-1.28
-2.78
-4.13
-5.49
-7.10
-9.26
-12.21
-15.97
-20.14
-23.97
-26.48
-26.92
-25.09
-21.49
-17.10
-13.01
-9.94
-8.11
-7.26
-6.97
-6.83
-6.67
-6.42
-6.04
-5.42
-4.48
-3.13
-1.50
0.16
1.49
2.24
2.36
2.09
1.86
2.10
3.11
4.82
6.94
9.02
10.71
11.83
12.41
12.56
12.39
11.99
11.48
11.05
10.89
11.07
11.55
12.06
12.37
12.38
12.19
12.04
12.13
12.50
13.02
13.49
13.81
13.99
14.09
14.13
13.96
13.41
12.33
10.80
9.16
7.83
7.17
7.20
7.60
7.85
7.50
6.43
4.83
3.12
1.68
0.66
-0.03
-0.53
-1.02
-1.67
-2.81
-4.91
-8.45
-13.55
-19.69
-25.73
-30.35
-32.59
-32.35
-30.28
-27.44
-24.65
-22.21
-19.95
-17.56
-14.96
-12.40
-10.26
-8.76
-7.80
-6.93
-5.69
-3.76
-1.17
1.75
4.52
6.73
8.19
9.02
9.57
10.28
11.44
13.09
14.98
16.76
17.98
18.30
17.41
15.17
11.71
7.56
3.68
1.22
1.01
3.16
6.81
10.41
12.47
12.25
10.11
7.36
5.56
5.75
8.00
11.42
14.66
16.38
15.64
12.08
5.78
-2.73
-12.49
-22.22
-30.38
-35.53
-36.76
-33.98
-28.02
-20.32
-12.51
-5.97
-1.55
0.39
-0.26
-3.39
-8.67
-15.33
-22.08
-27.42
-30.07
-29.54
-26.33
-21.75
-17.34
-14.20
-12.68
-12.30
-12.22
-11.60
-9.90
-6.95
-2.86
2.02
7.25
12.29
16.65
20.03
22.36
23.79
24.58
24.91
24.94
24.77
24.48
24.12
23.63
22.81
21.42
19.46
17.30
15.72
15.66
17.72
21.80
27.03
32.04
35.48
36.53
35.13
31.87
27.70
23.49
19.77
16.63
13.78
10.82
7.44
3.61
-0.43
-4.35
-7.86
-10.92
-13.65
-16.18
-18.46
-20.33
-21.75
-23.09
-25.09
-28.51
-33.61
-39.62
-45.00
-47.96
-47.41
-43.49
-37.48
-31.19
-26.11
-22.93
-21.44
-20.79
-19.85
-17.39
-12.31
-3.95
7.37
20.13
31.82
39.77
42.25
39.24
32.41
24.26
17.13
12.34
10.11
10.00
11.44
13.98
17.16
20.30
22.44
22.66
20.57
16.61
11.87
7.72
5.34
5.25
7.30
10.75
14.54
17.57
19.03
18.58
16.47
13.26
9.55
5.61
1.34
-3.46
-8.81
-14.22
-18.85
-21.85
-22.81
-21.94
-19.93
-17.62
-15.81
-15.18
-16.37
-19.92
-25.94
-33.82
-42.10
-48.83
-52.22
-51.25
-46.05
-37.69
-27.76
-17.68
-8.43
-0.39
6.46
12.24
16.96
20.38
22.22
22.33
20.85
18.38
15.72
13.53
12.13
11.39
10.96
10.67
10.70
11.43
13.13
15.67
18.42
20.59
21.64
21.51
20.59
19.44
18.44
17.65
16.87
15.93
14.84
13.76
12.84
12.01
10.97
9.38
7.08
4.18
1.08
-1.75
-3.95
-5.42
-6.20
-6.47
-6.36
-6.05
-5.74
-5.80
-6.75
-9.18
-13.50
-19.67
-27.08
-34.57
-40.72
-44.34
-44.85
-42.51
-38.20
-33.08
-28.06
-23.59
-19.64
-15.95
-12.23
-8.41
-4.58
-0.85
2.61
5.78
8.62
11.16
13.45
15.60
17.69
19.81
22.08
24.56
27.35
30.49
33.91
37.35
40.41
42.73
44.07
44.45
44.09
43.24
42.05
40.63
38.99
37.22
35.50
34.01
32.83
31.84
30.80
29.48
27.77
25.75
23.61
21.57
19.74
18.17
16.86
15.78
14.94
14.34
13.99
13.84
13.80
13.77
13.63
13.32
12.79
12.05
11.13
10.07
9.00
8.05
7.31
6.84
6.58
6.38
6.00
5.21
3.85
1.94
-0.34
-2.75
-5.04
-7.13
-9.00
-10.67
-12.24
-13.86
-15.82
-18.57
-22.47
-27.55
-33.21
-38.38
-41.87
-42.95
-41.62
-38.60
-34.85
-31.04
-27.32
-23.42
-19.07
-14.32
-9.54
-5.29
-1.94
0.41
1.91
2.79
3.28
3.60
3.91
4.43
5.29
6.58
8.26
10.23
12.39
14.66
16.91
18.95
20.59
21.62
22.00
21.84
21.39
20.86
20.40
20.04
19.75
19.51
19.34
19.24
19.15
18.93
18.42
17.53
16.31
14.96
13.75
12.89
12.47
12.39
12.40
12.15
11.35
9.83
7.61
4.94
2.18
-0.30
-2.24
-3.65
-4.71
-5.68
-6.77
-8.01
-9.30
-10.45
-11.35
-12.01
-12.53
-13.01
-13.56
-14.28
-15.35
-17.15
-20.04
-24.17
-29.20
-34.19
-37.93
-39.36
-38.07
-34.45
-29.50
-24.29
-19.51
-15.33
-11.57
-7.99
-4.58
-1.53
0.92
2.72
4.07
5.27
6.61
8.20
9.90
11.55
13.03
14.34
15.60
16.97
18.48
20.07
21.57
22.80
23.65
24.15
24.36
24.36
24.18
23.78
23.14
22.29
21.36
20.50
19.79
19.26
18.80
18.28
17.57
16.68
15.67
14.63
13.54
12.35
10.94
9.28
7.45
5.65
4.13
3.03
2.33
1.82
1.20
0.20
-1.33
-3.32
-5.60
-7.92
-10.05
-11.85
-13.31
-14.52
-15.68
-17.03
-18.85
-21.41
-24.85
-29.12
-33.85
-38.48
-42.30
-44.70
-45.31
-44.05
-41.07
-36.61
-31.00
-24.67
-18.24
-12.40
-7.83
-4.86
-3.38
-2.89
-2.67
-2.22
-1.33
-0.13
1.12
2.23
3.18
4.08
5.04
6.09
7.21
8.39
9.62
10.95
12.38
13.84
15.14
16.03
16.33
16.09
15.51
14.94
14.70
14.84
15.16
15.28
14.88
13.81
12.30
10.72
9.44
8.65
8.31
8.17
8.00
7.67
7.21
6.74
6.31
5.78
4.95
3.52
1.39
-1.31
-4.26
-7.06
-9.47
-11.52
-13.49
-15.77
-18.57
-21.80
-24.99
-27.51
-28.84
-28.82
-27.84
-26.72
-26.37
-27.35
-29.50
-31.90
-33.23
-32.34
-28.81
-23.14
-16.41
-9.78
-3.92
1.09
5.55
9.69
13.42
16.31
17.94
18.31
17.90
17.53
17.95
19.43
21.69
24.07
25.88
26.67
26.32
25.00
23.02
20.72
18.48
16.60
15.37
14.94
15.31
16.33
17.77
19.38
20.95
22.22
22.90
22.68
21.35
18.90
15.57
11.85
8.31
5.51
3.83
3.38
3.94
4.93
5.57
5.07
3.02
-0.47
-4.76
-8.88
-11.97
-13.57
-13.75
-13.04
-12.16
-11.73
-12.07
-13.15
-14.69
-16.27
-17.56
-18.43
-19.09
-20.01
-21.75
-24.68
-28.72
-33.31
-37.53
-40.42
-41.39
-40.35
-37.65
-33.82
-29.27
-24.24
-18.86
-13.34
-8.10
-3.68
-0.45
1.57
2.83
4.02
5.75
8.26
11.32
14.46
17.15
19.11
20.34
21.06
21.58
22.11
22.76
23.51
24.25
24.87
25.23
25.21
24.74
23.82
22.60
21.26
20.07
19.25
18.85
18.77
18.75
18.46
17.67
16.31
14.54
12.60
10.81
9.31
8.12
7.14
6.18
5.10
3.80
2.24
0.46
-1.48
-3.50
-5.50
-7.37
-9.02
-10.46
-11.83
-13.45
-15.75
-19.05
-23.30
-27.99
-32.14
-34.65
-34.75
-32.29
-27.83
-22.37
-16.90
-12.09
-8.14
-4.92
-2.25
-0.04
1.70
3.00
3.92
4.66
5.36
6.03
6.56
6.80
6.65
6.16
5.57
5.18
5.23
5.79
6.74
7.80
8.66
9.15
9.28
9.21
9.11
9.09
9.08
8.95
8.60
8.07
7.49
7.04
6.85
6.87
7.01
7.14
7.21
7.26
7.36
7.48
7.51
7.20
6.39
5.03
3.32
1.57
0.14
-0.81
-1.31
-1.58
-1.90
-2.50
-3.42
-4.58
-5.79
-6.87
-7.74
-8.36
-8.82
-9.21
-9.69
-10.52
-12.06
-14.66
-18.49
-23.35
-28.53
-32.91
-35.33
-35.08
-32.15
-27.26
-21.58
-16.23
-11.94
-8.92
-6.98
-5.79
-4.95
-4.18
-3.23
-1.95
-0.26
1.72
3.73
5.43
6.51
6.83
6.49
5.80
5.16
4.95
5.41
6.47
7.83
9.03
9.67
9.56
8.81
7.75
6.77
6.15
6.01
6.31
6.86
7.51
8.06
8.38
8.42
8.16
7.67
7.07
6.46
5.90
5.43
5.08
4.89
4.90
5.07
5.21
5.13
4.67
3.85
2.85
1.95
1.35
1.09
1.02
0.94
0.70
0.23
-0.38
-1.08
-1.84
-2.69
-3.70
-4.91
-6.25
-7.59
-8.79
-9.81
-10.82
-12.15
-14.08
-16.62
-19.38
-21.58
-22.37
-21.20
-18.04
-13.43
-8.26
-3.37
0.65
3.58
5.45
6.40
6.61
6.27
5.62
4.98
4.67
4.93
5.78
6.97
8.12
8.86
9.00
8.59
7.93
7.42
7.35
7.82
8.67
9.57
10.15
10.19
9.58
8.41
6.87
5.17
3.58
2.28
1.39
0.85
0.50
0.10
-0.57
-1.56
-2.72
-3.71
-4.20
-3.95
-3.00
-1.65
-0.36
0.42
0.40
-0.49
-2.05
-3.94
-5.73
-7.06
-7.71
-7.71
-7.36
-7.04
-7.09
-7.52
-7.99
-7.93
-6.91
-4.86
-2.22
0.29
1.91
2.18
0.94
-1.73
-5.61
-10.37
-15.44
-20.02
-23.20
-24.33
-23.30
-20.66
-17.27
-13.98
-11.26
-9.10
-7.29
-5.68
-4.40
-3.77
-4.04
-5.18
-6.79
-8.24
-8.94
-8.60
-7.31
-5.47
-3.54
-1.88
-0.58
0.49
1.48
2.52
3.56
4.44
4.96
5.02
4.65
4.02
3.37
2.93
2.92
3.38
4.26
5.32
6.13
6.28
5.46
3.70
1.40
-0.75
-2.11
-2.40
-1.76
-0.72
0.12
0.39
0.05
-0.71
-1.63
-2.60
-3.59
-4.60
-5.49
-6.00
-5.86
-5.01
-3.76
-2.81
-3.03
-5.02
-8.78
-13.51
-17.83
-20.25
-19.85
-16.63
-11.49
-5.79
-0.72
3.09
5.63
7.16
7.93
7.98
7.25
5.86
4.19
2.80
2.16
2.38
3.24
4.25
5.04
5.47
5.70
5.95
6.35
6.85
7.27
7.44
7.32
7.03
6.76
6.66
6.79
7.12
7.58
8.12
8.72
9.37
10.08
10.77
11.40
11.83
11.95
11.63
10.87
9.75
8.44
7.18
6.13
5.28
4.49
3.59
2.44
0.99
-0.66
-2.37
-3.97
-5.32
-6.35
-6.99
-7.17
-6.93
-6.42
-6.00
-6.13
-7.19
-9.22
-11.72
-13.80
-14.43
-12.99
-9.62
-5.09
-0.60
2.80
4.57
4.74
3.76
2.13
0.21
-1.74
-3.57
-5.10
-6.13
-6.52
-6.25
-5.53
-4.61
-3.78
-3.20
-2.93
-2.90
-3.00
-3.11
-3.19
-3.30
-3.47
-3.80
-4.32
-5.00
-5.76
-6.51
-7.17
-7.63
-7.85
-7.80
-7.48
-6.92
-6.21
-5.41
-4.63
-3.96
-3.51
-3.35
-3.50
-3.91
-4.55
-5.33
-6.21
-7.19
-8.24
-9.34
-10.42
-11.38
-12.10
-12.50
-12.52
-12.22
-11.72
-11.22
-10.89
-10.85
-11.14
-11.77
-12.75
-14.16
-16.04
-18.32
-20.65
-22.56
-23.48
-23.04
-21.12
-17.84
-13.49
-8.37
-2.79
2.89
8.21
12.66
15.79
17.40
17.63
16.83
15.47
13.96
12.56
11.36
10.45
9.86
9.54
9.33
8.98
8.20
6.85
5.00
3.02
1.38
0.49
0.50
1.23
2.32
3.36
4.12
4.59
4.89
5.18
5.51
5.83
6.09
6.21
6.13
5.81
5.21
4.40
3.56
2.98
2.97
3.64
4.85
6.24
7.44
8.20
8.53
8.54
8.31
7.77
6.53
4.28
0.76
-4.03
-9.83
-16.24
-22.70
-28.50
-32.85
-35.10
-35.13
-33.60
-31.95
-31.84
-34.40
-39.59
-46.13
-52.09
-55.88
-57.16
-56.99
-57.42
-60.43
-67.21
-77.83
-91.58
-107.36
-123.81
-139.01
-150.40
-155.47
-153.20
-145.51
-137.37
-135.07
-142.99
-160.92
-183.31
-201.42
-207.07
-196.22
-170.11
-133.92
-93.76
-54.17
-17.16
17.01
48.37
76.43
100.05
118.41
131.66
140.87
147.43
152.36
156.10
158.91
161.33
164.52
170.80
183.81
207.75
245.72
297.61
358.69
419.99
470.66
501.18
507.05
490.52
459.18
422.28
387.09
356.94
331.72
309.78
288.38
265.96
242.75
219.88
197.75
175.44
151.43
124.90
96.33
64.54
28.68
-10.33
-50.05
-88.40
-124.76
-159.43
-192.27
-221.96
-250.79
-281.02
-312.02
-340.34
-362.80
-378.81
-390.01
-398.57
-406.01
-418.69
-443.45
-482.65
-533.90
-593.42
-659.57
-732.91
-814.79
-863.35
-848.78
-771.20
-657.68
-537.34
-423.26
-315.27
-210.31
-108.80
-23.25
41.69
81.05
95.83
94.30
87.61
83.31
84.06
89.49
97.05
100.85
94.59
76.56
49.92
21.23
-5.05
-27.20
-44.63
-56.29
-62.40
-64.24
-61.28
-51.07
-27.66
11.19
63.32
123.96
188.51
253.02
314.21
370.83
423.94
480.98
545.78
617.35
692.01
767.14
842.62
918.76
994.28
1064.64
1128.21
1176.91
1198.54
1182.53
1125.89
1034.33
918.07
787.07
603.56
363.27
93.09
-164.05
-375.94
-532.04
-637.48
-703.57
-741.88
-760.95
-760.19
-741.28
-709.86
-674.52
-642.75
-618.91
-604.20
-601.18
-603.03
-596.20
-570.68
-523.37
-458.72
-385.84
-315.12
-255.53
-212.11
-184.69
-166.79
-152.52
-139.36
-128.24
-120.97
-117.90
-119.61
-124.42
-129.76
-132.73
-132.66
-130.96
-130.19
-132.11
-136.76
-142.80
-147.95
-150.05
-147.73
-141.08
-131.40
-120.52
-109.89
-100.08
-90.89
-81.47
-70.84
-58.70
-45.19
-30.88
-16.54
-2.91
9.54
20.63
30.77
40.63
50.84
61.81
73.57
85.73
97.53
108.15
117.07
124.43
131.10
138.41
147.77
160.15
175.73
193.96
213.93
234.90
256.62
279.52
304.28
331.75
362.73
398.22
439.23
486.02
536.94
587.70
632.06
663.81
679.32
678.96
666.66
647.50
625.12
600.13
570.75
534.74
491.44
442.38
390.28
337.40
284.39
230.38
174.18
115.52
55.69
-2.81
-56.92
-103.98
-142.45
-172.11
-194.19
-210.80
-224.54
-237.75
-252.05
-268.18
-286.19
-305.84
-327.02
-349.87
-374.89
-402.64
-433.78
-469.13
-509.64
-555.82
-606.66
-658.37
-704.20
-735.56
-744.76
-727.92
-686.70
-627.78
-560.36
-492.81
-430.28
-374.22
-323.60
-276.84
-233.30
-193.39
-157.92
-127.21
-100.61
-76.70
-53.82
-30.70
-6.84
17.37
40.93
62.72
81.99
98.81
114.23
129.88
147.48
168.14
192.17
219.29
248.96
280.44
312.52
342.74
367.39
382.25
384.31
373.42
352.77
327.52
302.26
278.70
255.15
228.32
196.11
159.89
124.44
95.81
78.22
71.90
73.34
77.34
79.60
78.40
74.33
68.58
61.21
50.38
33.34
8.30
-23.97
-59.75
-93.38
-119.27
-133.56
-134.88
-124.27
-104.44
-79.32
-53.44
-31.61
-17.72
-13.64
-18.44
-28.84
-40.80
-51.58
-61.06
-71.34
-84.95
-102.57
-121.98
-138.74
-148.36
-148.80
-141.55
-130.88
-121.55
-116.48
-115.61
-116.65
-116.98
-115.34
-112.54
-110.33
-109.73
-109.68
-107.18
-98.85
-82.98
-60.79
-35.93
-12.89
5.21
17.93
27.36
36.85
49.32
65.95
85.96
107.17
127.02
143.49
155.56
163.20
167.21
168.82
169.28
169.45
169.51
168.79
166.19
160.64
151.74
139.91
126.24
111.88
97.62
83.71
70.11
56.94
44.60
33.65
24.33
16.20
8.21
-0.67
-10.84
-21.69
-31.89
-40.12
-45.84
-49.63
-52.79
-56.54
-61.28
-66.36
-70.48
-72.46
-71.77
-68.69
-63.79
-57.42
-49.40
-39.21
-26.56
-11.96
3.03
16.16
25.34
29.48
29.00
25.78
22.30
20.56
21.23
23.53
25.93
27.15
27.10
26.86
27.87
30.75
34.55
37.01
35.68
29.38
18.96
7.07
-3.21
-9.81
-12.54
-12.92
-13.09
-14.65
-17.74
-21.22
-23.43
-23.23
-20.61
-16.67
-12.95
-10.56
-9.80
-10.20
-11.10
-12.07
-12.87
-13.05
-11.59
-7.07
1.49
13.76
27.58
39.67
47.05
48.60
45.61
41.10
38.11
38.12
40.31
42.33
41.78
37.78
31.55
25.84
23.52
26.08
32.90
41.48
48.60
51.57
49.13
41.62
30.63
18.46
7.56
0.05
-2.81
-1.19
3.11
7.11
7.80
3.60
-4.77
-14.59
-22.54
-26.39
-25.99
-23.08
-20.08
-18.80
-19.86
-22.96
-27.52
-33.03
-38.98
-44.33
-47.34
-46.11
-39.58
-28.50
-15.50
-4.17
2.46
3.15
-1.17
-8.10
-14.92
-19.61
-21.23
-19.82
-15.92
-10.49
-4.78
-0.29
1.60
0.22
-3.84
-8.80
-12.31
-12.56
-9.09
-2.94
4.01
9.98
14.14
16.82
18.94
21.30
23.91
25.97
26.32
24.21
19.86
14.46
9.71
7.01
6.85
8.69
11.37
13.78
15.40
16.38
17.22
18.38
19.97
21.77
23.53
25.15
26.70
28.20
29.49
30.23
30.14
29.19
27.74
26.22
24.94
23.87
22.67
21.01
18.81
16.31
13.88
11.82
10.22
8.93
7.74
6.43
4.77
2.59
-0.22
-3.47
-6.65
-9.08
-10.31
-10.50
-10.49
-11.37
-13.97
-18.34
-23.90
-29.63
-34.60
-38.09
-39.59
-38.73
-35.38
-29.92
-23.41
-17.37
-13.16
-11.44
-11.81
-13.19
-14.45
-14.97
-14.69
-13.87
-12.54
-10.46
-7.35
-3.30
1.06
4.71
6.75
6.92
5.65
3.85
2.48
2.09
2.69
3.93
5.26
6.17
6.21
5.13
2.84
-0.41
-4.10
-7.43
-9.57
-9.87
-8.17
-4.95
-1.37
0.98
0.53
-3.72
-11.66
-22.04
-32.80
-41.80
-47.62
-49.98
-49.57
-47.44
-44.35
-40.37
-35.13
-28.32
-20.21
-11.76
-4.33
0.96
3.62
3.95
2.83
1.38
0.41
0.19
0.39
0.33
-0.53
-2.22
-4.11
-5.21
-4.67
-2.34
1.13
4.55
6.88
7.74
7.65
7.54
8.18
9.57
10.89
10.94
8.81
4.54
-0.81
-5.56
-8.05
-7.40
-3.84
1.41
6.73
10.70
12.65
12.69
11.54
9.95
8.46
7.20
6.07
5.03
4.21
3.91
4.30
5.25
6.28
6.80
6.44
5.24
3.60
1.98
0.62
-0.56
-1.87
-3.55
-5.53
-7.47
-8.95
-9.77
-10.11
-10.39
-10.97
-11.82
-12.53
-12.39
-10.92
-8.16
-4.77
-1.79
-0.18
-0.46
-2.61
-6.23
-10.73
-15.41
-19.42
-21.78
-21.61
-18.52
-12.89
-5.91
0.91
6.34
9.86
11.73
12.65
13.28
13.82
14.00
13.24
11.04
7.27
2.46
-2.30
-5.62
-6.42
-4.43
-0.42
4.07
7.50
9.00
8.76
7.77
7.12
7.34
8.18
8.90
8.80
7.69
6.01
4.54
3.96
4.42
5.43
6.05
5.44
3.27
0.09
-2.90
-4.40
-3.70
-1.12
2.14
4.57
5.24
4.20
2.49
1.49
2.15
4.63
8.24
11.97
14.93
16.72
17.36
17.18
16.57
15.85
15.20
14.63
14.01
13.10
11.66
9.58
7.00
4.24
1.66
-0.54
-2.58
-4.96
-8.11
-11.94
-15.58
-17.75
-17.33
-14.15
-9.17
-4.10
-0.44
1.28
1.74
2.22
3.67
6.02
8.23
9.00
7.67
4.68
1.19
-1.61
-3.26
-4.22
-5.34
-7.21
-9.53
-11.31
-11.36
-9.10
-4.91
-0.00
4.18
6.65
7.21
6.47
5.34
4.53
4.30
4.35
4.22
3.49
2.06
0.12
-2.03
-4.16
-6.20
-8.18
-10.08
-11.68
-12.68
-12.87
-12.43
-11.96
-12.28
-14.10
-17.55
-22.12
-26.80
-30.52
-32.61
-33.00
-32.11
-30.64
-29.19
-28.04
-27.19
-26.46
-25.70
-24.81
-23.76
-22.60
-21.45
-20.66
-20.67
-21.81
-23.97
-26.34
-27.66
-26.83
-23.54
-18.56
-13.38
-9.39
-7.10
-5.96
-4.88
-3.11
-0.87
0.74
0.41
-2.48
-7.53
-13.50
-19.03
-23.25
-25.97
-27.50
-28.22
-28.34
-27.84
-26.72
-25.08
-23.25
-21.64
-20.82
-21.52
-24.64
-30.92
-40.36
-51.42
-60.75
-63.82
-56.64
-37.78
-9.85
20.73
45.80
58.57
56.15
40.47
17.19
-6.46
-23.68
-29.51
-21.38
0.30
31.72
65.71
93.13
105.81
99.97
78.24
48.80
21.87
5.36
1.68
7.73
17.16
23.61
23.09
14.67
-0.04
-18.03
-35.88
-50.51
-59.75
-62.91
-60.84
-55.54
-49.21
-43.47
-38.88
-35.21
-31.92
-28.42
-24.11
-18.24
-10.03
1.05
14.71
29.56
43.38
53.59
58.09
55.95
47.75
35.62
22.47
11.10
3.19
-1.01
-2.44
-2.27
-1.17
0.97
4.48
9.06
13.34
15.24
13.21
7.40
0.21
-4.50
-3.01
6.45
22.68
41.89
59.15
70.26
73.17
68.60
59.37
49.27
41.63
38.30
39.20
42.62
45.85
46.22
41.82
32.04
17.66
0.51
-17.04
-32.72
-44.91
-53.05
-57.64
-59.98
-61.44
-62.71
-63.50
-62.64
-58.86
-51.72
-42.23
-32.81
-26.56
-26.17
-32.94
-46.36
-64.22
-83.23
-100.02
-112.04
-118.21
-119.19
-117.05
-114.44
-113.88
-117.12
-125.13
-138.21
-155.94
-176.87
-198.11
-215.61
-225.00
-223.21
-209.75
-187.01
-159.34
-131.10
-104.98
-81.14
-57.87
-32.88
-4.75
26.43
59.73
94.54
131.70
173.47
222.19
278.14
337.94
394.29
437.81
460.16
456.88
428.51
379.58
316.36
245.06
171.68
102.55
44.54
3.30
-19.37
-26.84
-26.57
-26.33
-30.24
-37.24
-43.29
-45.49
-45.13
-47.51
-58.08
-78.16
-102.96
-123.55
-131.20
-121.14
-93.84
-53.50
-6.05
42.26
85.12
116.88
134.31
138.62
135.81
134.43
141.04
156.32
174.56
186.86
186.30
171.41
145.88
115.25
83.42
51.34
18.63
-13.77
-42.51
-63.32
-74.11
-76.89
-77.05
-80.22
-88.95
-101.50
-113.34
-119.84
-118.46
-109.00
-92.33
-69.25
-40.61
-8.65
21.88
44.38
52.69
44.44
22.96
-3.33
-23.82
-29.48
-15.64
17.23
64.21
117.64
168.80
209.41
233.17
236.92
221.19
189.45
146.52
96.94
44.14
-8.95
-58.45
-98.47
-121.68
-121.70
-96.59
-51.09
3.62
52.98
83.99
89.47
69.71
31.15
-17.23
-66.80
-110.87
-144.72
-165.17
-171.08
-164.67
-152.54
-144.60
-150.32
-174.08
-212.29
-254.36
-287.20
-300.61
-290.78
-260.16
-214.01
-156.76
-90.25
-15.15
65.75
144.98
210.62
249.70
253.81
223.66
169.93
109.93
61.45
36.68
38.84
62.34
96.25
128.68
150.65
157.94
151.24
134.83
114.59
96.05
82.86
76.03
74.01
73.57
71.09
64.15
52.50
37.99
23.90
13.39
8.26
8.30
11.92
17.73
25.91
38.45
57.89
85.62
120.77
160.65
202.10
242.89
281.91
318.25
350.09
374.45
388.34
390.31
381.48
365.31
346.00
326.72
308.71
291.44
273.55
253.77
231.23
205.48
176.47
144.55
110.62
75.91
41.86
9.80
-19.34
-45.22
-68.00
-88.26
-106.81
-124.58
-142.38
-160.78
-179.99
-199.83
-219.72
-238.98
-256.95
-273.63
-290.06
-308.58
-332.27
-363.74
-403.23
-447.40
-489.59
-521.67
-536.75
-531.15
-504.92
-460.97
-403.97
-339.69
-275.26
-218.93
-178.70
-159.67
-161.86
-180.07
-206.37
-233.82
-258.93
-281.34
-301.31
-316.85
-323.34
-315.46
-290.49
-250.44
-201.42
-151.27
-106.34
-69.60
-40.57
-16.59
5.57
28.59
54.12
82.93
115.23
151.25
191.51
236.56
285.67
335.97
381.72
415.35
429.79
420.69
387.89
335.04
268.30
194.90
122.36
57.80
7.13
-26.49
-44.09
-51.11
-56.15
-68.17
-93.69
-134.97
-189.85
-252.62
-315.37
-369.44
-406.54
-420.30
-407.88
-371.17
-316.73
-254.14
-193.27
-141.49
-102.47
-75.81
-58.14
-44.74
-30.89
-13.00
10.76
40.32
73.88
108.34
139.92
164.61
179.17
182.08
174.53
160.56
146.11
137.01
136.97
146.40
162.52
180.72
196.50
206.85
210.85
209.28
203.75
195.88
186.64
176.25
164.36
150.63
135.17
118.90
103.33
89.98
79.78
72.85
68.92
67.82
69.68
74.47
81.27
87.81
90.92
87.66
76.73
59.28
38.68
19.04
3.52
-6.70
-12.12
-13.83
-12.09
-6.04
5.52
22.54
42.61
61.27
73.58
76.38
69.77
57.05
43.06
31.97
25.74
23.81
24.13
24.41
23.14
19.64
13.37
3.51
-11.13
-31.33
-56.40
-83.46
-108.16
-126.20
-135.07
-135.20
-129.39
-120.96
-111.96
-102.15
-89.69
-72.90
-51.72
-28.13
-5.53
12.86
25.07
30.84
31.14
27.66
22.28
16.83
13.15
12.81
16.63
24.35
34.55
45.15
53.95
59.30
60.46
57.47
51.01
42.14
32.11
22.15
13.25
5.78
-0.78
-7.72
-16.71
-28.63
-42.78
-56.55
-66.17
-68.28
-61.55
-47.69
-30.98
-16.70
-8.95
-9.12
-15.75
-25.63
-35.51
-43.34
-48.70
-52.15
-54.49
-56.14
-57.15
-57.58
-57.70
-57.88
-58.40
-59.08
-59.23
-57.98
-54.50
-48.56
-40.67
-31.97
-23.90
-17.65
-13.78
-11.87
-10.88
-9.53
-6.90
-2.79
2.20
6.81
9.50
8.81
3.93
-4.89
-16.16
-27.48
-36.46
-41.49
-42.21
-39.37
-34.09
-27.27
-19.52
-11.52
-4.47
0.15
1.40
-0.45
-3.63
-5.81
-5.49
-2.95
-0.02
1.10
-0.44
-3.42
-5.29
-3.71
1.85
9.66
16.80
20.90
21.49
20.05
18.73
18.71
19.40
18.86
15.32
8.82
1.51
-3.35
-3.26
1.96
9.95
17.07
20.27
18.60
13.28
6.71
0.90
-3.43
-6.87
-10.40
-14.45
-18.48
-21.37
-22.16
-20.70
-17.75
-14.52
-12.06
-10.83
-10.53
-10.47
-9.94
-8.66
-6.99
-5.76
-5.74
-7.33
-9.87
-11.94
-11.87
-8.53
-2.03
6.08
13.34
17.48
17.27
13.14
6.76
0.28
-4.56
-7.06
-7.47
-6.50
-4.80
-2.72
-0.50
1.38
1.94
0.15
-4.44
-11.13
-18.06
-22.96
-24.26
-21.74
-16.48
-10.21
-4.23
0.98
5.63
9.97
13.78
16.37
17.23
16.66
15.71
15.61
16.71
18.16
18.23
15.51
9.92
2.88
-3.51
-7.60
-9.00
-8.63
-7.88
-7.64
-8.02
-8.51
-8.88
-9.54
-11.62
-16.22
-23.58
-32.61
-40.96
-45.80
-44.79
-37.13
-24.05
-8.66
5.05
13.53
15.00
10.05
1.17
-8.46
-16.24
-20.93
-22.48
-21.32
-17.59
-11.15
-2.21
8.04
17.24
22.71
22.77
17.76
10.02
2.73
-1.79
-3.06
-2.40
-1.66
-1.95
-3.01
-3.75
-3.21
-1.34
1.05
2.84
3.30
2.31
0.02
-3.45
-8.08
-13.51
-18.61
-21.62
-20.78
-15.21
-5.54
6.31
17.78
26.50
30.74
29.57
22.98
11.94
-1.46
-14.49
-24.52
-30.03
-31.08
-28.97
-25.29
-21.01
-16.17
-10.36
-3.59
3.34
8.97
11.99
11.87
9.18
5.17
1.11
-2.09
-3.98
-4.28
-2.66
1.20
7.29
14.80
22.03
26.70
26.87
21.82
12.82
2.84
-4.55
-6.58
-2.55
5.93
15.80
23.88
28.19
28.32
25.14
19.79
13.00
4.91
-4.49
-14.93
-25.27
-33.75
-38.46
-37.83
-31.15
-19.09
-3.70
11.96
24.59
31.54
31.50
24.94
13.84
1.04
-10.58
-18.69
-21.78
-19.36
-11.92
-1.01
10.99
21.23
26.99
26.36
19.06
6.56
-7.97
-20.50
-27.33
-26.36
-17.84
-4.58
9.37
20.08
25.15
24.32
19.29
12.58
6.41
2.04
-0.19
-0.48
0.77
3.02
5.48
7.11
6.87
4.36
0.10
-4.41
-7.36
-7.52
-4.81
-0.28
4.58
8.59
11.70
14.47
17.66
21.45
25.06
27.05
26.05
21.45
13.81
4.66
-4.20
-11.16
-15.32
-16.37
-14.45
-9.81
-2.81
5.96
15.55
24.45
30.92
33.35
30.77
23.26
11.90
-1.38
-14.25
-24.50
-30.59
-32.00
-29.40
-24.55
-19.42
-15.85
-14.81
-16.35
-19.84
-24.33
-28.79
-32.28
-33.87
-32.70
-28.25
-20.60
-10.72
-0.43
7.99
12.43
11.59
5.51
-4.22
-14.83
-23.08
-26.33
-23.50
-15.58
-5.18
4.45
10.81
13.02
11.89
9.16
6.43
4.46
3.17
2.05
0.80
-0.49
-1.40
-1.49
-0.55
1.25
3.61
6.11
8.30
9.82
10.43
10.08
8.93
7.38
6.00
5.38
5.89
7.52
9.79
11.86
12.85
12.27
10.25
7.58
5.27
4.00
3.85
4.30
4.77
4.86
4.51
3.80
2.69
1.09
-0.96
-3.06
-4.51
-4.79
-3.88
-2.45
-1.53
-1.94
-3.68
-6.15
-8.48
-10.06
-10.88
-11.38
-11.97
-12.70
-13.23
-12.98
-11.55
-8.90
-5.37
-1.66
1.28
2.51
1.36
-2.21
-7.41
-12.89
-17.18
-19.31
-18.98
-16.48
-12.25
-6.67
-0.22
6.25
11.36
13.70
12.55
8.47
3.58
0.60
1.66
7.38
16.56
26.78
35.54
41.13
42.95
41.46
37.38
31.36
23.72
14.66
4.62
-5.41
-14.05
-20.01
-22.86
-23.39
-23.36
-24.52
-27.60
-31.75
-34.99
-35.42
-32.34
-26.67
-20.43
-15.56
-12.96
-12.09
-11.53
-9.69
-5.55
1.13
9.87
19.63
29.02
36.46
40.48
40.36
36.32
29.54
21.72
14.51
9.02
5.76
4.69
5.35
6.88
8.14
7.80
5.00
-0.19
-6.65
-12.49
-16.01
-16.42
-14.18
-10.61
-7.12
-4.46
-2.45
-0.32
2.75
6.97
11.76
16.04
18.62
18.71
16.24
11.95
7.05
3.08
1.41
2.89
7.64
14.86
22.87
29.42
32.27
29.87
22.10
10.34
-2.83
-14.56
-22.65
-26.14
-25.24
-21.11
-15.29
-9.42
-5.10
-3.69
-5.86
-11.10
-17.61
-22.74
-24.11
-20.66
-13.18
-3.98
4.35
10.00
12.41
12.14
10.19
7.35
4.15
1.02
-1.43
-2.41
-1.44
1.29
4.86
7.99
9.71
9.94
9.45
9.34
10.42
12.63
15.10
16.67
16.55
14.77
12.10
9.70
8.44
8.59
9.74
11.08
11.71
10.94
8.54
4.76
0.30
-3.92
-7.05
-8.63
-8.80
-8.21
-7.68
-7.89
-9.07
-11.15
-13.86
-16.87
-19.79
-22.16
-23.53
-23.69
-22.91
-21.83
-21.17
-21.14
-21.27
-20.55
-18.11
-13.83
-8.46
-3.21
0.97
3.89
6.00
8.02
10.37
12.84
14.82
15.69
15.06
12.96
9.77
6.06
2.51
-0.21
-1.43
-0.69
2.08
6.53
11.89
17.24
21.76
24.84
26.26
26.07
24.51
21.95
18.83
15.63
12.90
11.22
11.00
12.36
14.93
17.90
20.24
21.16
20.36
18.18
15.39
12.73
10.62
9.00
7.58
6.14
4.76
3.78
3.51
3.92
4.51
4.54
3.37
0.82
-2.68
-6.33
-9.26
-11.00
-11.62
-11.81
-12.52
-14.51
-18.01
-22.36
-26.26
-28.14
-26.94
-22.54
-15.88
-8.53
-2.05
2.60
5.27
6.41
6.68
6.66
6.71
7.07
7.82
8.94
10.21
11.28
11.72
11.36
10.37
9.24
8.55
8.68
9.53
10.62
11.34
11.21
10.12
8.36
6.40
4.72
3.60
3.13
3.22
3.77
4.64
5.67
6.66
7.27
7.23
6.38
4.87
3.09
1.61
0.94
1.34
2.63
4.31
5.68
6.16
5.58
4.13
2.26
0.39
-1.22
-2.52
-3.51
-4.05
-3.90
-2.88
-1.18
0.57
1.39
0.39
-2.78
-7.74
-13.47
-18.72
-22.47
-24.18
-23.75
-21.38
-17.35
-12.04
-6.09
-0.43
3.83
5.77
5.20
2.93
0.58
-0.14
1.82
6.28
11.88
16.71
19.16
18.63
15.62
11.40
7.45
4.86
4.15
5.26
7.79
11.07
14.39
17.08
18.59
18.71
17.59
15.70
13.69
12.13
11.40
11.59
12.45
13.51
14.26
14.24
13.23
11.35
8.97
6.64
4.82
3.79
3.47
3.47
3.24
2.25
0.25
-2.59
-5.66
-8.07
-8.98
-8.07
-5.63
-2.71
-0.65
-0.64
-3.25
-8.21
-14.42
-20.32
-24.37
-25.46
-23.30
-18.46
-12.19
-6.07
-1.55
0.49
-0.05
-2.38
-5.05
-6.48
-5.53
-1.96
3.37
8.82
12.68
13.88
12.40
9.23
5.89
3.68
3.29
4.59
6.94
9.54
11.81
13.46
14.51
15.02
15.06
14.65
13.84
12.88
12.07
11.70
11.81
12.18
12.36
11.97
10.86
9.16
7.25
5.48
4.11
3.18
2.63
2.25
1.81
1.01
-0.39
-2.49
-5.15
-7.93
-10.24
-11.45
-11.08
-8.94
-5.37
-1.16
2.58
4.65
4.25
1.15
-4.24
-11.06
-18.33
-24.87
-29.54
-31.15
-28.71
-21.91
-11.60
0.10
10.25
16.07
15.95
10.20
1.01
-8.35
-14.68
-16.01
-12.17
-4.71
3.82
10.83
14.57
14.53
11.31
6.20
0.63
-4.27
-7.75
-9.44
-9.28
-7.47
-4.50
-1.28
0.82
0.54
-3.12
-10.26
-19.90
-30.22
-39.20
-45.40
-48.58
-49.64
-50.21
-51.89
-55.66
-61.73
-69.71
-79.05
-89.26
-100.01
-110.91
-121.58
-131.66
-141.11
-150.53
-161.32
-175.39
-194.52
-219.36
-248.54
-278.59
-304.78
-322.69
-329.93
-327.03
-317.01
-303.92
-291.11
-280.10
-270.70
-261.83
-252.66
-243.06
-233.25
-223.10
-211.56
-196.81
-177.07
-151.49
-120.75
-86.88
-52.49
-19.68
10.82
39.80
69.08
100.60
135.36
172.91
211.55
249.08
283.75
315.05
343.98
372.84
404.77
442.88
489.16
543.12
600.82
654.86
695.96
715.77
709.79
679.18
630.07
571.11
510.08
451.53
396.40
343.23
290.26
236.69
183.15
131.02
81.82
36.95
-2.20
-34.21
-58.08
-73.76
-82.65
-87.16
-89.87
-92.52
-95.86
-99.98
-105.13
-112.06
-121.49
-133.20
-145.13
-153.53
-154.13
-143.91
-122.48
-92.62
-59.65
-29.49
-6.50
8.36
17.77
26.39
38.16
53.54
68.54
76.31
70.45
47.97
10.54
-36.63
-86.95
-134.35
-173.87
-201.58
-214.95
-214.07
-203.03
-189.67
-183.10
-189.45
-208.70
-234.31
-256.11
-264.77
-255.31
-227.65
-184.81
-130.30
-67.08
1.55
70.19
130.88
175.00
196.34
193.93
172.63
140.91
107.54
78.66
56.56
40.20
26.73
13.17
-2.31
-19.72
-36.97
-50.33
-55.80
-50.79
-35.62
-13.56
10.57
32.55
50.15
62.99
71.21
74.17
70.67
60.38
45.57
31.53
25.20
32.40
55.27
91.10
133.26
173.23
203.10
217.27
213.25
191.54
155.45
110.47
63.21
19.73
-16.07
-43.54
-64.70
-82.46
-98.57
-112.61
-122.69
-127.18
-126.53
-123.66
-122.31
-124.46
-128.57
-129.99
-124.08
-109.97
-92.68
-81.58
-85.70
-108.50
-144.90
-182.84
-208.35
-211.60
-190.70
-151.26
-102.32
-51.24
-0.39
52.44
110.73
174.97
240.27
297.25
335.49
347.90
333.78
298.97
253.13
205.81
163.03
126.12
92.96
60.64
27.71
-5.28
-36.90
-66.67
-96.04
-127.61
-163.10
-201.25
-237.40
-264.93
-278.07
-274.20
-254.65
-223.57
-185.92
-145.94
-106.72
-70.82
-40.87
-19.48
-8.30
-6.95
-12.74
-21.48
-29.22
-33.69
-34.84
-34.27
-33.93
-34.93
-36.93
-38.65
-38.63
-36.19
-31.77
-26.37
-20.73
-14.45
-6.10
5.93
22.22
41.54
61.13
77.85
89.59
96.00
98.31
98.41
97.75
96.74
94.91
91.44
85.82
78.16
69.18
59.91
51.41
44.48
39.49
36.61
35.90
37.56
41.65
47.46
52.79
53.83
45.94
25.56
-7.72
-50.02
-93.59
-128.97
-147.96
-146.18
-123.91
-85.56
-38.11
10.50
52.40
80.17
87.40
69.88
27.50
-34.07
-103.33
-165.26
-205.30
-213.70
-188.32
-134.85
-64.79
7.80
69.47
109.83
123.22
109.73
74.76
27.39
-22.80
-68.93
-108.52
-142.77
-173.70
-201.24
-222.13
-231.56
-226.14
-206.38
-176.70
-143.24
-110.80
-80.94
-52.12
-21.68
11.78
47.28
81.74
111.30
132.86
145.17
148.97
146.69
141.53
136.51
133.61
133.15
133.72
132.82
127.74
116.72
99.94
79.58
59.06
41.94
30.64
25.60
25.26
26.80
27.23
24.12
15.98
2.16
-17.10
-40.13
-63.24
-80.72
-86.28
-75.69
-49.17
-12.16
26.57
58.60
79.35
89.44
93.26
95.76
99.61
104.28
107.37
106.80
102.28
95.14
87.11
78.98
70.23
59.63
46.23
30.20
12.81
-3.93
-17.84
-27.28
-31.64
-31.52
-28.70
-25.52
-24.12
-25.85
-30.99
-39.00
-49.01
-60.13
-71.60
-82.63
-92.37
-99.92
-104.49
-105.48
-102.43
-95.20
-84.00
-69.87
-54.99
-42.73
-37.27
-42.43
-60.30
-89.98
-127.11
-164.56
-194.13
-208.99
-205.54
-184.13
-148.12
-102.06
-50.12
4.11
57.06
104.60
142.37
167.62
180.98
186.88
191.74
200.76
215.02
230.77
241.65
242.04
229.65
205.89
174.13
137.68
99.27
62.02
30.84
12.33
12.65
34.39
74.30
123.47
170.30
204.49
220.21
216.82
197.51
166.81
128.75
86.16
40.90
-5.64
-52.57
-99.62
-146.95
-194.76
-242.39
-287.47
-326.13
-354.13
-368.52
-369.15
-359.16
-344.10
-329.93
-320.84
-317.65
-317.76
-316.31
-308.43
-291.22
-264.78
-231.89
-196.59
-162.38
-130.85
-101.24
-71.17
-37.59
1.96
48.50
101.10
156.51
209.34
252.57
279.11
284.14
267.16
232.87
190.24
149.51
118.52
99.88
90.55
84.12
74.67
60.22
43.77
31.65
30.28
43.22
70.05
107.34
150.63
196.08
240.76
281.97
316.41
340.09
349.41
342.65
320.77
287.47
247.71
206.13
165.78
127.30
89.09
48.06
1.15
-52.82
-111.68
-169.79
-219.65
-254.41
-270.26
-267.69
-250.79
-225.36
-196.74
-168.40
-141.88
-117.49
-95.36
-75.87
-59.55
-46.58
-36.49
-28.23
-20.38
-11.42
-0.07
14.47
31.95
50.93
68.81
82.54
89.70
89.43
82.89
72.79
62.12
52.86
45.35
38.69
31.80
24.50
17.76
13.07
11.32
11.94
13.07
12.58
9.43
4.69
1.17
2.14
9.50
22.51
37.87
50.96
57.87
57.10
50.05
40.13
31.00
24.97
22.27
21.61
21.31
20.13
17.46
12.99
6.65
-1.09
-8.89
-14.64
-16.54
-14.60
-11.52
-12.12
-21.39
-42.27
-74.43
-114.34
-156.65
-195.67
-225.99
-243.05
-243.06
-223.60
-184.35
-128.12
-61.30
6.75
65.56
106.29
124.26
120.55
101.59
76.67
54.50
40.17
33.92
32.02
29.62
23.49
13.58
2.96
-3.87
-3.00
6.94
24.10
43.70
59.54
66.03
60.29
42.95
17.48
-11.30
-39.34
-64.23
-85.21
-102.08
-114.06
-119.54
-116.87
-105.51
-86.72
-63.35
-38.66
-15.08
6.42
25.82
43.13
57.60
67.90
73.08
73.43
70.65
66.93
63.75
61.02
57.53
51.93
43.81
34.01
23.94
14.72
6.73
-0.30
-6.61
-11.98
-15.95
-18.21
-19.05
-19.23
-19.41
-19.67
-19.43
-17.80
-14.20
-8.77
-2.32
4.07
9.52
13.54
15.95
16.71
15.85
13.54
10.26
6.87
4.32
3.18
3.40
4.25
4.75
4.24
2.73
0.77
-0.80
-1.48
-1.34
-0.92
-0.81
-1.20
-1.81
-2.14
-1.94
-1.40
-1.07
-1.44
-2.52
-3.79
-4.51
-4.23
-3.14
-1.92
-1.31
-1.63
-2.58
-3.54
-4.04
-4.09
-4.16
-4.81
-6.28
-8.28
-10.15
-11.28
-11.42
-10.77
-9.74
-8.73
-7.86
-7.04
-6.14
-5.10
-3.98
-2.85
-1.80
-0.80
0.16
1.10
1.93
2.58
2.93
2.95
2.64
2.07
1.37
0.69
0.16
-0.15
-0.24
-0.27
-0.39
-0.71
-1.25
-1.92
-2.67
-3.50
-4.46
-5.53
-6.57
-7.31
-7.52
-7.21
-6.60
-6.14
-6.22
-7.01
-8.40
-10.08
-11.70
-12.95
-13.69
-13.87
-13.52
-12.77
-11.76
-10.63
-9.50
-8.32
-7.00
-5.48
-3.83
-2.27
-0.98
-0.03
0.75
1.56
2.52
3.41
3.84
3.47
2.26
0.59
-0.96
-1.87
-2.04
-1.72
-1.31
-1.09
-1.06
-1.02
-0.79
-0.37
0.07
0.34
0.43
0.60
1.20
2.44
4.22
6.15
7.71
8.55
8.66
8.34
8.03
8.09
8.61
9.44
10.27
10.85
11.11
11.13
11.13
11.35
11.87
12.67
13.60
14.47
15.04
15.10
14.52
13.35
11.76
10.10
8.72
7.89
7.67
7.91
8.46
9.16
9.95
10.71
11.22
11.24
10.61
9.55
8.69
8.91
10.87
14.72
19.92
25.51
30.51
34.30
36.85
38.60
40.27
42.46
45.41
48.96
52.60
55.74
58.21
60.51
63.77
69.26
77.50
87.61
97.21
103.02
102.02
92.40
74.02
48.20
17.14
-16.50
-49.92
-80.45
-105.92
-125.23
-138.78
-148.25
-155.77
-162.73
-169.15
-173.75
-174.99
-172.15
-165.90
-158.05
-150.54
-144.52
-139.92
-135.78
-130.88
-124.51
-116.86
-108.97
-102.29
-97.99
-96.06
-94.73
-90.71
-80.08
-60.02
-30.11
7.16
47.09
84.37
114.78
136.10
148.02
151.34
147.19
136.65
121.02
102.09
82.30
64.24
50.01
40.60
35.73
34.13
34.07
33.89
32.43
29.23
24.66
19.60
15.11
12.01
10.48
10.00
9.67
8.73
6.98
4.86
3.12
2.25
2.14
2.11
1.31
-0.62
-3.36
-5.94
-7.33
-7.02
-5.27
-3.02
-1.39
-1.13
-2.25
-4.08
-5.65
-6.19
-5.49
-3.81
-1.68
0.45
2.34
3.97
5.27
6.04
6.06
5.24
3.81
2.32
1.33
1.06
1.32
1.46
0.84
-0.89
-3.62
-6.79
-9.76
-12.00
-13.22
-13.41
-12.76
-11.60
-10.33
-9.40
-9.21
-10.01
-11.78
-14.16
-16.61
-18.48
-19.33
-19.03
-17.80
-16.04
-14.12
-12.25
-10.48
-8.79
-7.16
-5.63
-4.18
-2.80
-1.43
-0.13
0.88
1.26
0.75
-0.57
-2.21
-3.45
-3.72
-2.94
-1.49
-0.08
0.74
0.82
0.45
0.12
0.21
0.83
1.80
2.84
3.76
4.54
5.25
5.90
6.37
6.41
5.81
4.54
2.85
1.17
-0.08
-0.67
-0.63
-0.23
0.22
0.50
0.54
0.36
0.02
-0.43
-0.93
-1.42
-1.83
-2.11
-2.27
-2.35
-2.49
-2.77
-3.28
-4.12
-5.40
-7.20
-9.46
-11.96
-14.34
-16.26
-17.44
-17.79
-17.29
-15.97
-13.88
-11.11
-7.88
-4.61
-1.74
0.39
1.68
2.40
2.91
3.59
4.60
5.81
6.95
7.72
7.95
7.69
7.23
6.97
7.19
7.99
9.17
10.39
11.30
11.81
11.99
12.07
12.23
12.50
12.77
12.91
12.94
12.98
13.21
13.63
14.08
14.27
13.97
13.12
11.79
10.07
7.98
5.43
2.37
-1.01
-4.35
-7.15
-9.05
-10.00
-10.25
-10.16
-10.02
-9.96
-9.96
-10.01
-10.24
-10.78
-11.72
-12.91
-14.06
-14.83
-15.13
-15.21
-15.54
-16.64
-18.73
-21.68
-24.98
-27.98
-30.08
-30.85
-30.11
-27.96
-24.70
-20.79
-16.78
-13.21
-10.41
-8.42
-6.97
-5.60
-3.91
-1.65
1.09
4.00
6.66
8.78
10.29
11.32
12.09
12.73
13.23
13.49
13.51
13.42
13.53
14.13
15.33
16.92
18.48
19.55
19.83
19.38
18.54
17.85
17.72
18.33
19.47
20.71
21.58
21.77
21.28
20.35
19.33
18.49
17.92
17.50
17.08
16.52
15.78
14.88
13.85
12.65
11.28
9.75
8.13
6.54
5.09
3.76
2.48
1.14
-0.38
-2.14
-4.17
-6.55
-9.37
-12.70
-16.45
-20.29
-23.71
-26.25
-27.76
-28.61
-29.60
-31.65
-35.36
-40.68
-46.90
-52.96
-57.78
-60.80
-62.10
-62.33
-62.38
-63.00
-64.47
-66.44
-68.12
-68.58
-67.15
-63.79
-59.19
-54.74
-52.22
-53.34
-59.06
-68.91
-80.45
-89.47
-90.86
-80.42
-56.61
-21.64
18.78
57.21
86.87
103.76
107.45
100.32
86.03
67.83
47.94
27.64
8.10
-9.20
-22.61
-30.99
-34.24
-33.24
-29.46
-24.18
-18.02
-10.82
-1.86
9.59
23.77
39.83
55.59
67.69
72.42
67.12
51.56
28.78
4.60
-14.00
-21.23
-14.43
5.21
33.38
64.38
93.11
116.38
133.11
143.75
149.03
149.23
144.24
134.35
120.96
106.82
95.18
88.49
87.37
90.37
94.70
97.40
96.30
90.45
80.09
66.41
51.30
37.03
25.68
18.27
14.12
10.88
5.54
-3.94
-17.41
-32.26
-44.67
-51.50
-51.87
-47.61
-42.16
-38.68
-38.57
-40.97
-43.65
-44.58
-43.12
-40.15
-37.23
-35.44
-34.65
-33.63
-30.89
-25.61
-18.16
-9.92
-2.59
2.57
5.20
5.93
5.95
6.57
8.59
12.08
16.31
20.08
22.20
21.98
19.59
15.95
12.35
9.92
9.17
9.82
10.99
11.57
10.70
8.09
4.03
-0.77
-5.55
-9.70
-12.93
-15.28
-16.96
-18.23
-19.37
-20.49
-21.58
-22.46
-22.91
-22.77
-22.05
-21.00
-19.97
-19.33
-19.33
-20.13
-21.83
-24.41
-27.67
-31.17
-34.16
-35.70
-34.99
-31.66
-26.05
-19.17
-12.37
-6.96
-3.74
-2.78
-3.48
-4.94
-6.29
-7.14
-7.49
-7.72
-8.14
-8.71
-9.04
-8.52
-6.76
-3.84
-0.39
2.60
4.13
3.52
0.64
-4.16
-10.25
-16.91
-23.54
-29.69
-34.93
-38.93
-41.34
-42.04
-41.15
-39.19
-36.79
-34.38
-31.78
-28.12
-22.10
-12.64
0.38
15.94
32.31
48.02
62.52
76.18
89.59
102.63
114.14
122.25
125.42
123.27
116.75
107.55
97.23
86.67
76.10
65.57
55.38
45.91
37.25
28.81
19.43
8.07
-5.40
-19.93
-33.53
-44.08
-50.15
-51.52
-49.29
-45.32
-41.53
-39.25
-38.85
-39.89
-41.49
-42.85
-43.48
-43.24
-42.17
-40.19
-37.18
-33.05
-27.97
-22.47
-17.29
-13.10
-10.20
-8.39
-7.10
-5.71
-3.85
-1.55
0.78
2.64
3.70
3.98
3.88
4.04
4.96
6.76
9.08
11.14
12.15
11.64
9.70
6.99
4.40
2.74
2.41
3.35
5.11
7.08
8.61
9.11
8.18
5.71
2.08
-1.86
-5.00
-6.42
-5.80
-3.71
-1.27
0.31
0.39
-0.83
-2.50
-3.56
-3.38
-2.01
-0.11
1.39
1.75
0.69
-1.48
-3.95
-5.66
-5.67
-3.55
0.17
4.08
6.24
4.98
-0.23
-8.35
-17.06
-23.64
-26.22
-24.66
-20.65
-17.01
-16.58
-21.23
-31.39
-46.08
-63.13
-79.26
-90.45
-92.54
-82.60
-60.29
-28.70
6.21
37.53
59.94
71.39
73.31
69.19
62.51
55.37
48.34
41.36
34.75
29.44
26.37
25.66
26.27
26.49
25.02
21.85
18.29
16.27
17.21
21.03
26.22
30.45
31.75
29.46
24.64
19.56
16.72
17.65
22.16
28.35
33.42
34.85
31.56
24.38
15.66
8.30
4.40
4.22
5.71
4.88
-3.27
-23.64
-59.86
-113.17
-181.48
-258.97
-336.71
-404.41
-453.19
-478.12
-479.62
-462.97
-436.07
-406.54
-379.49
-356.73
-337.43
-319.49
-300.73
-279.43
-254.36
-224.67
-190.06
-150.81
-107.95
-62.85
-16.87
29.01
74.48
120.01
166.80
216.22
268.93
323.58
376.26
421.01
451.85
465.21
461.44
444.30
418.77
388.54
354.84
317.29
276.04
233.50
194.40
163.89
144.98
137.02
135.86
135.84
132.12
122.34
106.96
88.71
71.38
58.53
52.56
53.96
61.26
71.63
82.04
90.38
96.14
100.20
104.00
108.50
113.78
119.18
123.95
127.81
131.03
134.17
137.57
141.21
144.79
147.94
150.28
151.21
149.64
143.99
132.60
114.34
89.12
57.96
22.51
-15.40
-54.36
-93.48
-132.14
-169.37
-203.26
-231.10
-250.53
-261.48
-267.06
-272.82
-283.99
-301.99
-322.49
-336.60
-334.69
-310.88
-265.52
-204.44
-135.95
-67.73
-5.43
46.78
85.11
106.44
109.73
97.42
75.25
50.02
26.65
6.43
-12.31
-31.65
-51.51
-68.72
-78.60
-77.69
-66.01
-47.13
-26.52
-9.03
2.65
8.26
8.95
6.49
3.38
3.20
10.43
28.92
59.21
96.41
130.57
150.22
147.65
122.86
83.56
41.20
5.62
-18.72
-32.83
-40.36
-44.36
-46.05
-45.89
-45.58
-48.43
-57.39
-72.17
-87.83
-96.36
-90.75
-69.47
-37.95
-6.51
14.47
19.10
7.89
-13.35
-36.62
-55.21
-65.58
-67.51
-63.05
-55.13
-46.39
-38.69
-33.10
-30.10
-29.96
-33.05
-39.76
-50.03
-62.58
-74.38
-80.98
-77.93
-62.94
-37.43
-6.61
22.50
43.98
55.61
59.48
60.34
62.70
68.34
75.58
80.87
81.22
76.28
68.51
61.59
58.22
58.66
60.99
62.40
60.87
56.07
49.02
41.25
33.91
27.61
22.63
19.14
17.15
16.31
15.97
15.54
14.94
14.70
15.55
17.63
20.10
21.45
20.38
16.78
11.87
7.60
5.50
5.86
7.69
9.36
9.50
7.57
4.02
-0.12
-3.69
-5.84
-6.26
-5.33
-3.88
-2.84
-2.83
-3.89
-5.54
-7.09
-8.03
-8.19
-7.76
-7.17
-6.85
-7.29
-8.88
-11.84
-15.94
-20.40
-24.26
-26.73
-27.69
-27.77
-28.06
-29.46
-32.19
-35.58
-38.50
-39.95
-39.48
-37.44
-34.71
-32.35
-31.11
-31.12
-31.81
-32.29
-31.81
-30.08
-27.49
-24.86
-22.90
-21.74
-20.76
-18.64
-14.42
-8.18
-1.18
4.67
7.70
7.28
3.93
-1.06
-5.76
-8.83
-9.69
-8.17
-4.32
1.76
9.78
18.89
27.94
36.64
44.88
52.75
61.08
71.83
88.05
112.94
147.85
190.51
235.55
274.67
299.52
305.46
293.56
269.95
242.53
217.34
189.58
155.61
114.60
70.03
28.77
-2.47
-20.12
-24.89
-20.94
-13.92
-8.27
-6.36
-8.65
-14.03
-20.94
-28.37
-36.78
-48.31
-66.29
-93.54
-129.19
-172.21
-221.06
-273.73
-327.36
-377.62
-418.47
-442.90
-444.65
-421.36
-377.03
-320.93
-264.23
-215.55
-177.53
-146.58
-116.08
-80.74
-40.23
0.21
33.31
54.07
62.60
63.51
62.57
62.92
63.62
61.51
54.69
45.83
41.31
47.24
64.65
87.30
104.19
105.46
88.02
56.96
22.36
-6.33
-24.82
-34.53
-39.71
-43.55
-46.35
-46.62
-43.56
-38.58
-34.60
-33.88
-36.02
-38.21
-37.14
-31.30
-21.80
-11.31
-2.05
5.58
12.60
19.94
26.64
29.62
24.98
10.32
-13.18
-40.36
-64.00
-77.83
-79.36
-71.05
-59.34
-51.84
-54.24
-68.04
-90.07
-113.75
-131.54
-137.64
-129.82
-109.72
-81.67
-50.63
-20.26
8.12
35.19
62.40
90.73
120.11
149.60
178.23
205.29
230.06
251.16
266.09
271.44
263.94
241.69
205.32
158.27
106.10
55.40
12.43
-17.94
-32.75
-31.29
-15.11
12.00
44.40
75.37
98.44
108.79
104.46
86.55
58.67
25.73
-7.11
-35.21
-54.68
-62.56
-57.05
-38.16
-8.07
28.73
65.97
96.78
115.19
117.31
101.83
70.17
26.17
-24.22
-73.59
-113.90
-138.15
-142.03
-125.09
-90.78
-44.92
6.74
60.67
116.20
174.12
233.87
291.44
339.09
367.69
370.50
346.44
301.22
245.43
190.65
145.26
111.83
87.25
65.30
40.13
8.91
-27.39
-65.56
-102.44
-136.63
-168.79
-200.23
-231.06
-258.88
-279.51
-288.88
-285.47
-271.35
-251.50
-231.69
-216.33
-207.28
-203.92
-204.07
-204.95
-203.57
-197.01
-182.66
-158.89
-125.77
-85.45
-41.88
0.11
35.85
61.81
76.16
78.99
72.48
60.58
48.10
39.14
35.69
37.14
40.94
44.31
45.70
45.33
44.38
43.69
42.86
40.32
34.33
24.04
9.85
-7.20
-26.26
-47.20
-70.16
-94.53
-118.22
-137.83
-150.06
-153.61
-150.29
-144.53
-141.58
-145.27
-156.78
-174.76
-196.38
-218.57
-238.48
-253.27
-259.99
-255.86
-239.18
-210.41
-172.42
-129.62
-86.51
-46.12
-9.11
26.10
62.40
102.52
147.53
195.65
242.38
281.65
308.10
319.22
315.98
301.85
280.66
254.90
225.50
193.25
160.41
131.07
109.58
98.14
95.21
96.29
96.90
95.85
96.42
104.38
124.03
154.48
189.01
218.00
233.51
232.96
219.48
198.95
175.70
149.89
118.25
77.80
29.93
-17.93
-54.33
-68.35
-53.98
-12.25
49.67
121.27
191.62
251.32
293.35
313.39
310.18
285.80
245.59
196.75
146.27
99.12
57.26
20.18
-13.43
-44.40
-72.56
-97.60
-120.15
-142.03
-165.11
-189.33
-211.41
-225.35
-224.84
-206.32
-171.00
-124.58
-75.13
-30.42
3.94
24.67
29.97
18.64
-9.56
-52.62
-104.99
-157.66
-200.34
-225.04
-229.08
-216.43
-195.99
-177.45
-166.88
-164.46
-165.29
-163.33
-155.64
-144.51
-136.19
-136.86
-148.45
-167.07
-184.69
-193.30
-188.92
-173.22
-152.27
-133.18
-120.85
-116.48
-118.27
-123.51
-130.68
-140.18
-153.17
-169.65
-187.11
-200.75
-205.72
-199.68
-184.40
-165.41
-149.84
-143.54
-148.98
-164.54
-185.40
-205.27
-218.31
-220.58
-210.85
-190.69
-163.71
-134.46
-106.90
-83.33
-63.98
-47.42
-31.47
-14.33
4.77
25.44
46.51
66.63
85.02
101.78
118.06
135.87
157.64
185.49
220.22
260.42
302.16
339.61
366.46
377.61
370.59
346.27
308.83
264.99
222.53
188.35
166.42
156.60
154.79
154.90
151.67
143.10
130.82
118.32
108.35
101.08
94.52
86.71
77.82
70.52
68.07
71.69
79.00
84.97
84.70
76.10
60.93
43.48
28.05
17.04
10.41
6.69
4.21
2.06
-0.12
-2.21
-3.87
-4.53
-3.56
-0.73
3.16
5.98
5.13
-0.60
-9.36
-15.83
-12.89
5.26
40.26
88.64
143.32
196.59
242.96
280.07
307.71
325.67
332.52
325.76
303.55
266.64
218.91
166.36
114.81
67.99
26.85
-9.71
-43.52
-75.89
-107.13
-136.85
-164.21
-188.18
-207.05
-218.01
-217.45
-202.17
-171.24
-127.35
-76.59
-26.45
16.60
49.12
70.78
83.30
88.86
89.39
86.79
83.47
82.43
86.36
96.10
109.71
122.77
130.27
128.53
116.42
95.35
67.94
36.54
2.27
-34.81
-74.85
-117.16
-159.93
-200.98
-238.67
-272.66
-303.55
-331.75
-356.53
-375.99
-388.10
-392.17
-389.47
-382.36
-372.63
-360.16
-342.90
-318.28
-284.96
-243.72
-196.89
-147.08
-96.21
-45.79
2.33
45.27
79.29
100.89
108.21
101.91
85.11
62.39
38.57
17.74
2.83
-4.67
-4.58
1.60
10.81
19.05
22.74
20.52
14.53
10.24
14.47
32.46
64.91
107.17
150.68
186.30
207.58
212.37
202.25
180.62
150.79
115.18
75.66
34.32
-6.11
-42.54
-72.19
-93.10
-104.46
-106.65
-101.22
-90.61
-77.71
-65.06
-53.93
-43.92
-33.41
-20.57
-4.78
12.61
28.60
39.88
44.36
42.22
35.75
28.16
21.83
17.17
12.65
6.10
-3.62
-15.57
-26.96
-34.48
-36.13
-32.08
-24.53
-16.52
-10.52
-7.58
-7.32
-8.42
-9.34
-8.58
-4.98
2.24
13.53
29.08
49.16
74.12
104.31
139.61
178.90
219.91
259.43
293.99
320.57
337.17
343.05
338.75
325.91
306.88
284.17
259.71
234.16
206.71
175.46
138.81
96.80
51.95
8.79
-27.88
-55.25
-74.01
-88.40
-104.11
-125.40
-152.87
-183.05
-210.06
-228.10
-233.71
-226.51
-208.59
-183.44
-154.99
-127.08
-103.24
-86.27
-77.53
-76.46
-80.70
-86.86
-91.76
-93.35
-90.92
-84.75
-75.50
-63.98
-51.22
-38.58
-27.86
-21.02
-19.62
-24.24
-33.97
-46.40
-58.12
-65.85
-67.74
-64.18
-57.83
-52.62
-52.02
-57.57
-68.02
-79.95
-89.21
-92.81
-90.14
-83.14
-75.06
-68.55
-64.18
-59.95
-52.30
-37.93
-15.46
14.05
47.85
83.04
117.79
151.47
183.76
213.43
237.92
254.02
259.37
253.86
239.92
221.55
202.82
186.43
173.29
162.88
154.27
146.96
140.83
135.76
130.64
122.97
109.35
87.08
56.01
19.64
-15.61
-42.99
-58.70
-64.02
-64.62
-67.51
-77.08
-92.62
-109.07
-120.20
-121.89
-113.72
-98.09
-77.97
-55.36
-31.55
-8.39
10.75
21.51
20.47
6.74
-17.76
-49.93
-87.20
-128.46
-172.65
-216.75
-254.61
-277.93
-279.59
-257.16
-214.66
-161.33
-107.83
-62.11
-26.73
0.89
25.53
50.47
75.23
95.71
106.62
104.82
91.23
70.53
48.94
31.40
19.36
10.56
0.73
-13.69
-33.06
-53.78
-69.57
-74.72
-67.14
-49.63
-28.42
-9.88
2.55
9.50
14.07
19.06
24.97
29.92
31.81
30.11
26.15
21.47
15.87
6.72
-9.40
-34.06
-65.30
-97.89
-125.41
-142.87
-148.30
-142.81
-129.77
-113.60
-98.55
-87.77
-82.66
-82.84
-86.66
-92.11
-97.80
-103.24
-108.32
-112.72
-115.48
-115.38
-112.18
-107.25
-103.33
-103.32
-108.39
-117.04
-125.69
-130.45
-129.14
-122.39
-112.92
-103.55
-95.39
-87.06
-75.40
-57.37
-31.64
1.01
38.69
79.72
123.14
167.84
211.29
248.82
274.56
283.86
275.73
253.87
225.59
198.99
179.93
170.39
168.84
172.14
177.68
184.52
192.92
203.07
213.92
223.16
228.41
228.63
224.66
218.55
211.65
203.10
190.09
169.95
143.00
114.07
91.15
81.80
89.40
111.34
140.62
169.47
192.86
209.81
222.02
231.35
237.96
240.23
236.13
224.82
207.17
185.18
160.92
135.82
110.78
86.64
64.22
44.21
26.64
10.66
-5.01
-21.60
-39.84
-59.96
-81.95
-105.89
-131.95
-159.89
-188.53
-215.31
-236.62
-249.39
-252.86
-249.59
-244.80
-243.68
-248.55
-257.38
-264.79
-265.20
-256.13
-239.49
-220.48
-204.61
-195.05
-191.84
-192.99
-196.20
-199.88
-202.61
-202.05
-194.70
-177.01
-147.45
-108.21
-65.27
-26.58
0.69
12.88
11.08
0.47
-11.76
-19.13
-18.23
-9.63
2.86
14.07
19.74
18.20
10.57
-0.00
-10.00
-17.20
-21.46
-24.51
-28.85
-36.25
-47.03
-60.05
-73.54
-86.17
-97.61
-108.42
-119.19
-129.82
-139.15
-145.41
-147.00
-143.09
-133.66
-118.93
-98.68
-72.23
-38.93
0.78
44.65
88.70
128.11
158.62
177.80
185.52
183.52
174.37
160.59
144.29
127.31
111.36
97.95
87.94
80.93
75.21
68.46
58.87
46.19
32.05
19.10
9.73
4.74
3.02
2.21
0.10
-4.18
-9.78
-14.75
-17.22
-16.37
-12.72
-7.68
-2.68
1.47
4.56
6.64
7.61
7.22
5.45
2.92
1.01
1.32
4.92
11.60
19.84
27.25
31.45
31.07
26.24
18.56
10.50
4.34
1.37
1.45
3.38
5.76
7.89
10.26
14.10
20.54
29.66
40.31
50.68
59.29
65.80
71.06
76.31
82.16
88.02
92.22
92.74
88.00
77.45
61.60
41.73
19.49
-3.46
-25.59
-45.46
-61.68
-72.91
-78.14
-76.99
-70.35
-60.46
-50.36
-42.87
-39.24
-38.70
-39.02
-38.13
-35.57
-32.95
-32.70
-36.18
-42.32
-47.96
-49.50
-45.21
-36.39
-26.75
-20.36
-19.32
-22.81
-27.69
-30.44
-29.08
-23.91
-17.00
-10.71
-6.39
-3.80
-1.73
1.07
5.01
9.38
12.69
13.36
10.21
2.49
-10.14
-27.77
-50.09
-76.01
-103.40
-129.02
-149.05
-159.75
-158.42
-144.28
-119.05
-86.90
-53.69
-25.35
-6.14
2.64
2.78
-2.10
-8.44
-14.22
-19.49
-25.43
-32.98
-41.83
-50.64
-58.01
-63.55
-68.11
-73.04
-79.06
-85.48
-90.47
-92.12
-89.43
-82.70
-73.09
-61.76
-48.97
-33.96
-15.15
9.03
39.21
74.58
112.58
149.18
179.63
199.61
206.41
199.74
181.82
156.67
129.06
103.28
82.36
67.79
59.76
57.48
59.47
63.70
67.71
69.09
66.18
58.95
49.42
40.93
36.49
37.11
40.91
43.78
41.53
32.29
17.81
2.74
-7.71
-10.27
-4.85
6.08
19.33
32.73
45.65
58.11
69.45
77.70
80.36
75.96
65.46
52.20
40.47
33.36
31.32
32.31
33.17
31.46
26.58
19.43
11.48
3.64
-4.24
-12.84
-22.52
-32.60
-41.44
-47.07
-48.12
-44.48
-37.46
-29.42
-22.96
-20.03
-21.16
-25.22
-29.66
-31.61
-29.09
-22.07
-12.63
-4.09
0.41
-0.74
-7.07
-16.53
-26.54
-34.96
-40.56
-42.82
-41.53
-36.74
-29.05
-20.12
-12.79
-10.31
-14.99
-26.70
-42.06
-54.98
-58.42
-46.81
-18.35
24.07
73.74
122.34
162.79
191.20
207.39
213.85
213.83
209.72
202.34
191.32
176.00
156.15
132.28
105.36
76.50
46.77
17.31
-10.54
-35.10
-54.75
-68.39
-75.85
-78.14
-77.11
-74.91
-73.23
-72.81
-73.40
-74.10
-73.74
-71.50
-67.13
-61.02
-54.07
-47.46
-42.36
-39.51
-39.02
-40.14
-41.59
-42.09
-40.88
-38.01
-34.19
-30.31
-27.09
-24.89
-23.83
-24.03
-25.80
-29.47
-35.05
-41.91
-48.67
-53.41
-54.37
-50.69
-42.90
-32.91
-23.35
-16.54
-13.63
-14.38
-17.66
-22.33
-27.81
-34.10
-41.18
-48.42
-54.60
-58.51
-59.67
-58.61
-56.36
-53.57
-49.91
-44.34
-36.06
-25.50
-14.45
-5.28
0.35
2.31
1.91
0.80
-0.05
-0.77
-1.99
-3.83
-5.42
-5.21
-2.00
4.22
12.12
19.80
25.73
29.35
30.89
30.77
29.28
26.69
23.81
22.25
23.81
29.53
38.78
49.34
58.47
64.25
66.48
66.36
65.59
65.18
65.13
64.71
63.15
60.11
55.67
50.20
44.15
38.13
32.87
29.03
26.84
25.86
25.12
23.59
20.80
17.04
13.19
10.20
8.61
8.33
8.67
8.58
6.97
3.18
-2.66
-9.42
-15.17
-18.10
-17.40
-13.90
-9.72
-7.31
-8.15
-12.21
-18.32
-25.04
-31.39
-36.69
-40.17
-40.77
-37.87
-32.45
-27.41
-26.37
-31.09
-39.30
-44.54
-39.05
-18.05
17.00
58.43
95.67
120.12
128.36
122.14
105.71
82.69
54.92
23.57
-8.91
-38.00
-58.26
-65.88
-61.08
-48.21
-33.99
-24.55
-22.88
-28.12
-36.46
-43.30
-45.19
-41.04
-32.04
-20.79
-10.03
-1.49
4.52
8.82
12.39
15.40
16.90
15.37
9.87
0.93
-9.37
-18.26
-23.66
-25.20
-24.32
-23.30
-24.01
-27.01
-31.53
-36.09
-39.44
-40.96
-40.59
-38.44
-34.52
-28.96
-22.30
-15.63
-10.30
-7.34
-7.00
-8.73
-11.45
-14.00
-15.52
-15.61
-14.37
-12.56
-11.61
-13.33
-19.21
-29.58
-43.02
-56.67
-67.21
-72.41
-72.12
-68.30
-64.05
-62.28
-64.58
-70.96
-80.30
-90.89
-100.84
-108.00
-109.98
-104.53
-90.55
-68.98
-43.09
-17.37
4.32
20.40
32.07
42.02
52.50
63.70
73.71
79.88
80.64
76.58
70.02
63.44
58.03
53.24
47.54
39.83
30.45
21.17
14.27
11.38
12.89
18.44
28.12
43.20
65.97
97.98
138.04
181.23
219.83
246.14
255.55
248.32
228.90
203.43
176.91
151.63
127.47
103.32
78.37
52.51
25.96
-1.11
-28.26
-54.40
-77.45
-95.07
-105.83
-110.04
-109.62
-107.04
-103.98
-100.72
-96.69
-91.41
-85.26
-79.20
-73.87
-68.77
-62.51
-53.88
-43.11
-32.19
-23.98
-20.58
-22.04
-26.35
-30.66
-32.86
-32.51
-30.56
-28.41
-26.91
-26.09
-25.62
-25.36
-25.58
-26.66
-28.58
-30.72
-32.07
-31.76
-29.52
-25.74
-21.27
-17.19
-14.47
-13.77
-15.04
-17.37
-19.09
-18.51
-14.71
-8.18
-0.67
5.62
9.14
9.68
8.29
6.52
5.49
5.47
5.93
6.18
6.06
6.13
7.38
10.58
15.80
22.26
28.63
33.60
36.31
36.68
35.32
33.21
31.34
30.31
30.15
30.36
30.07
28.45
25.06
20.10
14.37
9.00
4.89
2.46
1.78
2.90
5.91
10.77
16.63
21.21
21.08
12.93
-4.22
-27.66
-51.16
-67.47
-71.59
-63.41
-47.78
-31.82
-21.09
-16.67
-15.16
-11.37
-1.95
12.35
27.17
37.25
39.62
35.04
27.10
19.87
15.76
14.98
16.32
18.60
21.57
25.87
32.13
40.14
48.66
55.93
60.38
61.25
58.82
54.25
49.33
45.93
45.47
48.41
53.92
60.10
64.51
65.10
61.08
53.27
43.83
35.31
29.49
26.52
24.91
22.51
17.90
11.48
5.55
3.04
5.72
12.86
21.23
26.75
26.58
20.64
11.51
2.85
-2.56
-4.02
-2.74
-0.74
0.53
0.73
0.21
-0.73
-2.26
-4.78
-8.29
-12.00
-14.79
-15.96
-16.01
-16.54
-19.41
-25.64
-34.96
-46.04
-57.26
-67.41
-75.60
-80.87
-82.16
-78.82
-71.51
-62.55
-55.12
-51.69
-52.53
-55.63
-58.17
-58.35
-56.71
-55.52
-57.01
-61.83
-68.68
-75.63
-81.68
-87.49
-94.58
-103.59
-113.20
-120.36
-121.85
-115.98
-103.48
-86.96
-69.66
-54.24
-42.02
-33.27
-27.49
-23.75
-20.73
-16.88
-10.63
-0.83
12.72
29.07
46.24
61.54
72.47
77.47
76.51
70.91
62.82
54.26
46.40
39.49
33.57
29.19
27.81
31.57
42.25
60.19
83.47
108.09
128.84
140.96
141.82
131.94
114.91
96.07
80.38
70.41
65.37
61.88
56.04
45.67
31.41
16.14
3.28
-5.30
-10.05
-13.27
-17.57
-24.26
-32.74
-40.87
-46.31
-47.87
-46.17
-43.37
-42.02
-43.78
-48.49
-54.25
-58.36
-58.75
-55.10
-49.22
-44.14
-42.55
-45.41
-51.40
-57.75
-61.70
-61.98
-59.29
-55.67
-53.23
-52.92
-54.04
-54.51
-51.79
-43.94
-30.45
-12.43
7.65
26.86
42.71
53.80
60.08
62.47
62.27
60.59
58.32
56.20
55.09
55.93
59.33
65.22
72.77
80.90
89.06
97.69
107.88
120.40
134.61
148.01
156.97
158.25
150.54
134.95
114.46
92.47
71.41
52.20
34.42
17.26
0.32
-15.86
-29.92
-40.06
-44.79
-43.66
-37.91
-30.51
-25.37
-25.85
-33.50
-47.38
-64.53
-81.12
-93.59
-99.59
-98.29
-90.64
-79.26
-68.13
-61.51
-62.41
-71.06
-84.33
-96.58
-102.05
-97.35
-82.91
-62.64
-41.88
-24.99
-13.85
-7.89
-5.43
-5.31
-7.60
-13.18
-22.19
-32.98
-42.02
-45.63
-41.87
-31.78
-19.13
-8.60
-3.72
-5.60
-12.86
-22.65
-31.83
-37.99
-39.80
-37.00
-30.21
-20.70
-10.01
0.44
9.72
17.50
23.91
29.34
34.10
38.11
40.59
39.66
32.77
17.88
-4.90
-32.42
-59.25
-80.15
-92.73
-98.84
-103.28
-110.57
-121.80
-133.60
-140.17
-136.85
-123.07
-102.48
-80.34
-60.17
-41.74
-21.87
2.80
33.07
66.22
97.17
120.89
134.53
138.15
134.05
125.37
115.01
105.25
97.85
93.86
93.36
95.13
96.66
95.05
88.21
75.92
60.16
44.25
31.37
23.10
18.81
16.08
11.83
3.68
-9.08
-25.15
-41.36
-53.73
-58.73
-54.66
-42.58
-26.12
-10.16
1.13
5.89
5.04
1.17
-3.09
-6.51
-9.24
-11.74
-13.53
-12.84
-7.66
2.71
16.63
30.60
40.95
45.70
45.22
41.58
36.93
32.35
27.70
22.56
17.24
12.98
11.09
12.04
14.88
17.86
19.68
20.27
20.70
22.20
25.10
28.46
30.65
30.36
27.32
22.32
16.68
11.62
7.94
6.01
5.97
7.66
10.53
13.59
15.72
16.10
14.55
11.50
7.62
3.47
-0.79
-5.34
-10.51
-16.63
-23.99
-32.69
-42.34
-51.79
-59.03
-61.61
-57.55
-46.27
-29.09
-8.86
11.16
28.46
41.91
51.62
58.19
62.10
63.46
62.28
58.94
54.24
49.09
44.00
38.76
32.68
25.18
16.36
7.08
-1.51
-8.62
-14.34
-19.51
-25.20
-32.02
-39.73
-47.25
-53.13
-56.13
-55.72
-52.24
-46.59
-39.80
-32.57
-25.08
-17.18
-8.85
-0.44
7.22
13.17
16.77
18.02
17.33
15.02
10.62
2.81
-10.16
-29.36
-54.15
-81.62
-106.94
-124.67
-130.34
-121.91
-100.41
-69.78
-35.68
-3.92
21.06
37.33
45.49
48.07
48.14
48.04
48.56
49.04
48.30
45.69
41.69
37.68
35.03
34.05
33.71
32.22
28.27
22.00
14.98
9.37
6.51
6.19
6.78
6.41
4.07
0.18
-3.79
-6.43
-7.20
-6.80
-6.55
-7.65
-10.53
-14.74
-19.27
-23.10
-25.57
-26.50
-25.94
-23.90
-20.09
-14.13
-5.92
3.93
13.91
22.09
26.89
27.71
25.18
20.60
15.16
9.43
3.42
-2.85
-8.76
-13.05
-14.44
-12.43
-7.82
-2.41
1.75
3.25
1.64
-2.71
-9.12
-16.97
-25.63
-34.26
-41.61
-46.29
-47.27
-44.49
-39.02
-32.52
-26.46
-21.34
-16.61
-11.24
-4.66
2.62
9.11
13.28
14.74
14.70
15.63
19.86
28.12
38.94
49.32
56.35
58.69
57.09
53.68
50.40
47.77
44.76
39.69
31.59
21.08
10.16
1.17
-4.42
-6.60
-6.50
-5.59
-4.87
-4.67
-5.12
-6.79
-10.80
-18.37
-29.76
-43.61
-57.07
-67.06
-71.73
-71.36
-68.03
-64.14
-61.03
-58.49
-55.39
-50.91
-45.45
-40.31
-36.71
-34.78
-33.53
-31.59
-28.34
-24.18
-20.07
-16.54
-13.11
-8.58
-2.10
6.05
14.34
20.82
24.31
25.05
24.52
24.40
25.70
28.26
31.37
34.71
39.08
46.28
58.06
74.77
94.45
113.31
127.15
133.09
130.48
120.75
106.17
88.79
70.01
51.21
34.53
23.15
20.52
28.88
47.78
73.58
100.10
120.26
128.14
120.73
98.95
67.38
32.95
2.42
-19.77
-32.83
-38.93
-41.49
-43.21
-45.23
-47.53
-49.96
-52.99
-57.23
-62.54
-67.55
-70.33
-69.79
-66.87
-64.38
-65.43
-71.69
-82.57
-96.00
-109.66
-121.87
-131.33
-136.21
-133.86
-121.70
-98.96
-68.01
-34.25
-4.25
16.85
27.28
28.88
25.69
21.92
20.18
20.85
22.73
24.13
24.02
22.53
20.81
20.36
22.18
26.18
31.29
35.90
38.66
39.13
37.82
35.92
34.61
34.47
35.21
35.92
35.51
33.24
29.03
23.36
16.98
10.61
4.74
-0.34
-4.26
-6.64
-7.10
-5.60
-2.64
0.79
3.48
4.52
3.64
1.31
-1.50
-3.79
-4.97
-5.14
-5.02
-5.61
-7.68
-11.44
-16.55
-22.24
-27.63
-32.05
-35.09
-36.56
-36.49
-35.27
-33.66
-32.74
-33.47
-36.15
-39.99
-43.24
-43.90
-40.61
-33.31
-23.23
-12.24
-2.09
6.27
12.68
17.35
20.41
21.73
21.03
18.29
14.03
9.10
4.36
0.27
-3.31
-6.81
-10.64
-14.81
-18.94
-22.47
-25.14
-27.21
-29.45
-32.68
-37.29
-42.92
-48.55
-52.89
-54.91
-54.33
-51.63
-48.07
-45.17
-44.21
-45.53
-48.14
-49.74
-47.36
-38.20
-20.56
5.50
38.02
73.54
107.74
136.27
155.49
163.29
159.74
147.06
129.14
110.10
92.86
78.29
65.36
52.27
37.84
22.37
7.57
-4.42
-12.09
-15.23
-14.89
-12.57
-9.37
-5.56
-0.72
5.56
13.13
20.98
27.48
31.09
30.92
27.11
20.63
12.77
4.56
-3.48
-11.25
-18.72
-25.47
-30.79
-33.99
-34.93
-34.20
-32.86
-31.82
-31.34
-31.00
-30.30
-29.26
-28.77
-30.16
-34.34
-41.08
-48.74
-54.92
-57.53
-55.68
-50.01
-42.78
-37.52
-38.29
-48.34
-68.44
-95.71
-123.85
-145.04
-153.08
-146.15
-127.53
-104.01
-82.56
-67.34
-58.45
-52.81
-46.43
-36.43
-21.86
-3.31
17.90
40.23
61.80
80.31
93.35
99.22
97.66
90.44
80.87
72.60
68.17
68.10
70.92
73.95
74.46
70.60
62.03
49.96
36.89
26.22
21.49
25.18
37.59
56.18
75.99
91.25
97.39
92.82
79.24
60.45
40.47
21.89
5.60
-8.48
-20.18
-28.79
-33.55
-34.79
-34.62
-36.39
-43.09
-55.66
-72.07
-88.18
-99.60
-103.75
-100.53
-91.64
-78.80
-62.50
-42.03
-16.75
12.32
42.08
68.32
87.76
99.63
105.86
109.70
113.73
118.62
123.24
125.91
125.63
122.57
117.33
110.12
100.29
86.93
69.95
50.71
31.79
15.77
3.90
-4.38
-10.90
-17.39
-24.37
-30.87
-35.33
-36.69
-35.34
-32.83
-30.96
-30.69
-31.69
-32.82
-33.08
-32.33
-31.37
-31.32
-32.78
-35.56
-38.82
-41.61
-43.40
-43.99
-43.37
-41.50
-38.50
-34.98
-32.21
-31.58
-33.85
-38.44
-43.54
-47.11
-48.04
-46.88
-45.46
-45.73
-48.63
-53.59
-59.12
-63.70
-66.72
-68.42
-69.38
-69.78
-69.18
-66.88
-62.57
-56.82
-50.84
-45.77
-41.81
-37.64
-30.76
-18.74
-0.62
22.03
45.46
65.17
77.88
83.03
82.89
81.23
81.48
85.38
92.71
102.11
112.20
122.07
130.92
137.49
139.67
135.05
121.95
100.59
73.43
44.64
18.72
-0.89
-12.99
-18.81
-21.38
-24.05
-29.10
-36.70
-44.96
-51.03
-52.75
-49.89
-44.25
-38.70
-35.50
-35.19
-36.62
-38.07
-38.53
-38.50
-39.43
-42.58
-47.96
-54.12
-58.88
-60.39
-57.83
-51.45
-42.25
-31.64
-21.36
-13.32
-9.21
-9.88
-14.88
-22.56
-30.74
-37.60
-42.23
-44.46
-44.35
-41.79
-36.56
-28.79
-19.28
-9.51
-1.11
4.83
8.14
9.34
9.33
8.91
8.78
9.72
12.56
17.96
25.88
35.23
43.84
49.40
50.32
46.55
39.64
32.18
26.90
25.97
30.76
41.88
59.30
82.19
108.58
135.14
157.62
171.67
173.93
162.87
139.21
105.77
67.00
28.04
-6.47
-33.74
-53.51
-67.60
-78.30
-86.63
-91.52
-90.66
-82.60
-68.48
-52.33
-39.09
-31.96
-30.54
-31.06
-28.71
-20.37
-6.39
9.76
23.42
30.91
30.95
24.67
15.01
5.70
0.34
1.33
8.94
20.75
32.21
38.50
36.88
28.44
17.76
10.72
11.23
18.89
29.17
35.73
33.87
22.74
5.37
-13.32
-29.09
-40.07
-46.68
-50.38
-52.28
-52.48
-50.37
-45.55
-38.61
-31.24
-25.74
-24.28
-27.87
-35.79
-45.68
-54.28
-58.92
-58.98
-56.38
-54.76
-57.54
-65.81
-77.43
-87.87
-92.49
-88.93
-78.46
-65.21
-54.11
-48.53
-49.08
-53.81
-59.42
-62.68
-61.47
-55.13
-44.39
-31.09
-17.70
-6.52
1.04
4.98
6.61
7.78
9.87
13.03
16.20
17.97
17.69
16.05
14.88
16.33
21.87
31.80
45.44
61.60
78.79
95.47
109.83
119.80
123.48
119.79
108.97
92.74
73.87
55.34
39.49
27.53
19.56
14.97
13.06
13.43
16.16
21.66
30.14
40.92
52.32
61.93
67.52
67.81
62.56
51.91
35.60
12.78
-16.99
-52.16
-88.48
-119.74
-140.38
-148.21
-145.53
-137.97
-131.29
-128.39
-128.23
-126.88
-120.16
-105.86
-84.38
-58.00
-29.57
-1.56
23.98
45.25
60.75
69.74
72.82
71.67
68.46
64.72
60.92
56.71
51.77
46.43
41.71
38.69
37.67
38.07
38.81
39.16
39.32
40.16
42.33
45.48
48.22
49.00
47.28
44.17
41.73
41.36
42.55
42.74
38.80
29.15
15.02
-0.12
-12.57
-20.55
-24.90
-27.92
-31.21
-34.34
-35.16
-31.71
-24.00
-14.25
-5.29
1.53
7.56
15.93
29.42
48.51
70.98
93.18
111.88
125.27
132.74
133.96
128.37
115.83
98.00
79.13
65.33
62.25
72.40
93.53
119.18
140.97
151.51
146.71
126.41
93.64
53.35
10.94
-28.68
-61.63
-85.73
-100.71
-108.21
-111.19
-112.74
-114.88
-117.87
-120.51
-121.05
-118.42
-112.92
-106.06
-99.58
-94.59
-90.95
-87.49
-82.95
-76.75
-69.50
-62.98
-59.54
-61.24
-69.01
-82.05
-97.56
-111.19
-117.87
-112.91
-93.29
-58.56
-11.47
42.24
94.65
137.29
163.46
170.45
160.63
140.55
118.06
98.71
83.36
68.11
47.31
17.62
-18.69
-53.54
-75.75
-75.36
-47.84
4.09
71.52
142.52
206.14
255.15
287.04
302.99
305.92
298.56
282.62
259.13
229.51
196.23
162.42
130.64
101.65
73.91
44.42
10.64
-27.95
-69.38
-110.04
-146.56
-177.45
-203.81
-228.77
-256.30
-289.83
-331.34
-380.83
-435.98
-492.18
-542.99
-581.25
-601.03
-599.47
-577.54
-539.64
-491.59
-438.25
-382.28
-324.71
-267.23
-214.15
-172.32
-148.60
-145.97
-160.96
-184.07
-203.34
-209.31
-198.52
-173.99
-142.47
-110.56
-81.88
-56.55
-32.72
-8.61
16.43
42.09
68.05
94.60
122.43
152.30
184.20
217.26
250.06
281.61
312.04
343.16
378.24
420.58
471.65
528.89
584.87
628.72
649.51
640.41
601.67
540.85
469.81
401.09
342.88
297.22
260.63
226.82
190.05
147.76
101.44
54.80
13.81
-17.91
-39.57
-52.92
-60.60
-64.31
-64.00
-58.79
-50.29
-39.50
-31.61
-32.52
-46.29
-73.57
-111.91
-157.19
-204.95
-253.00
-293.04
-317.82
-320.17
-296.33
-249.20
-188.96
-130.38
-87.22
-70.37
-76.15
-98.09
-128.28
-162.02
-199.52
-244.00
-297.61
-337.55
-379.26
-407.36
-411.19
-385.56
-332.93
-262.22
-185.35
-113.27
-53.07
-10.47
18.63
36.65
46.16
49.12
47.04
41.34
33.43
25.01
15.92
11.67
15.56
29.89
54.77
87.57
123.63
157.61
185.19
202.52
210.91
211.76
207.51
201.10
195.57
193.39
195.67
201.72
208.57
214.17
216.31
214.39
209.49
203.65
198.91
196.47
195.99
195.09
190.67
179.71
161.12
136.56
110.38
88.00
73.92
70.29
76.44
89.47
105.28
119.47
128.17
129.05
122.37
111.44
101.83
99.21
106.56
122.69
142.72
160.48
171.29
173.38
167.29
154.36
135.56
111.30
82.32
50.72
19.94
-6.52
-26.88
-42.00
-55.06
-70.18
-90.43
-116.61
-147.31
-179.72
-211.09
-239.94
-266.54
-292.68
-321.32
-355.83
-399.05
-451.81
-511.49
-571.29
-621.26
-651.09
-653.67
-627.99
-579.53
-517.98
-453.35
-392.51
-337.64
-287.17
-238.19
-188.75
-138.71
-89.25
-41.99
1.90
41.54
75.85
103.30
122.10
130.87
130.08
122.85
114.44
110.42
114.15
124.98
138.52
149.25
153.70
152.35
148.94
147.54
149.61
152.91
153.17
147.23
135.42
121.53
110.59
105.78
106.84
110.48
112.62
110.69
104.74
96.85
89.84
85.73
84.82
86.10
88.00
89.26
89.38
88.65
87.50
85.94
83.40
79.27
73.58
67.47
62.95
61.63
63.70
67.47
69.90
67.81
59.13
43.74
23.54
1.78
-17.83
-32.19
-39.82
-41.22
-38.76
-35.77
-35.17
-38.52
-45.42
-53.90
-61.53
-66.56
-68.30
-67.04
-63.37
-57.80
-50.81
-43.18
-36.25
-31.74
-31.24
-35.84
-45.63
-59.87
-76.94
-94.57
-110.01
-120.33
-122.95
-116.21
-99.86
-75.34
-45.59
-14.45
14.12
37.01
52.62
60.95
63.33
61.68
57.79
53.00
48.08
43.66
40.70
40.74
45.71
57.02
74.37
94.94
113.70
125.30
126.61
118.61
106.20
96.09
93.31
98.48
107.61
114.41
114.00
105.57
92.44
79.67
70.91
66.60
64.42
61.45
56.36
50.03
44.37
40.54
37.64
33.23
24.88
12.03
-3.50
-18.51
-30.28
-37.94
-42.59
-46.11
-50.31
-56.16
-64.08
-74.20
-86.52
-100.74
-116.25
-132.51
-149.37
-166.98
-184.95
-201.47
-213.05
-215.37
-204.84
-180.20
-143.17
-97.90
-49.85
-4.49
33.48
60.65
75.33
77.83
70.35
56.45
40.06
24.48
12.06
4.40
2.42
6.72
17.32
33.86
55.83
82.78
114.02
147.95
181.43
209.91
228.45
233.29
223.27
200.42
169.41
135.95
105.15
80.31
62.53
51.07
44.14
39.87
36.89
34.52
32.46
30.25
26.62
19.46
6.11
-16.20
-49.67
-95.21
-151.62
-214.82
-277.79
-331.83
-368.85
-383.95
-377.03
-352.54
-317.19
-277.00
-235.19
-192.12
-147.32
-102.07
-60.94
-31.05
-19.54
-30.39
-62.56
-110.07
-163.93
-214.76
-254.99
-280.05
-288.27
-280.35
-258.56
-226.11
-186.65
-143.72
-100.14
-57.40
-15.52
26.43
69.49
113.67
157.23
196.84
228.49
248.96
257.32
255.63
248.49
241.72
240.54
248.12
264.81
288.25
313.98
336.52
350.63
352.73
342.02
320.83
294.00
267.14
244.67
228.18
216.16
205.06
191.38
173.65
153.08
132.69
115.31
101.62
89.14
73.16
48.90
14.19
-28.92
-74.29
-113.60
-139.36
-147.54
-138.85
-118.21
-92.83
-69.70
-53.41
-45.11
-42.70
-42.27
-39.76
-32.51
-19.88
-3.11
15.23
32.06
44.50
50.40
48.85
40.50
27.61
13.53
1.63
-5.94
-9.03
-9.38
-9.61
-11.91
-16.91
-23.60
-29.98
-33.96
-34.07
-29.68
-20.98
-8.63
6.45
23.11
39.98
55.42
67.39
73.70
72.43
62.86
46.40
26.77
9.17
-1.67
-3.57
1.93
10.33
16.30
16.35
10.17
0.19
-10.33
-19.04
-25.20
-28.99
-30.42
-28.85
-23.54
-14.63
-3.65
7.02
15.26
20.23
22.58
23.89
25.72
29.07
34.30
41.44
50.41
60.94
72.28
83.27
92.71
100.02
105.64
110.94
117.36
125.23
132.98
137.37
134.53
121.37
96.81
62.22
21.17
-21.27
-59.33
-87.54
-101.93
-101.43
-88.81
-70.36
-53.92
-45.94
-48.86
-60.23
-74.25
-84.92
-89.11
-87.80
-84.84
-84.18
-87.31
-92.43
-95.84
-94.48
-87.93
-78.70
-70.34
-65.15
-62.81
-60.90
-56.97
-50.54
-43.67
-39.63
-40.46
-45.40
-51.13
-53.79
-51.26
-44.30
-35.84
-29.00
-25.34
-24.37
-24.31
-23.50
-21.33
-18.21
-14.88
-11.77
-8.88
-6.30
-4.68
-5.24
-9.25
-17.10
-27.73
-38.96
-48.29
-54.00
-55.82
-54.51
-51.18
-46.43
-40.08
-31.64
-21.19
-9.97
-0.38
4.86
3.98
-2.94
-13.80
-25.25
-33.87
-37.43
-35.37
-28.71
-19.37
-9.52
-1.08
4.55
6.73
5.81
3.09
0.57
0.19
2.89
8.18
14.32
19.34
22.00
22.25
20.82
18.51
15.65
12.21
8.46
5.35
4.34
6.52
11.74
18.44
24.30
27.42
27.10
23.94
19.22
14.20
9.57
5.43
1.36
-3.21
-8.74
-15.13
-21.40
-25.73
-26.05
-21.05
-10.99
2.25
15.81
26.98
34.07
36.72
35.54
31.77
26.92
22.53
19.89
19.57
20.99
22.38
21.33
15.92
5.89
-6.81
-18.51
-25.27
-24.64
-16.84
-4.72
7.64
16.81
21.33
21.95
20.50
18.28
15.05
9.29
-0.36
-13.64
-28.13
-40.16
-46.79
-47.29
-43.57
-39.11
-37.18
-39.24
-44.44
-50.29
-53.99
-53.83
-49.81
-43.52
-37.31
-33.29
-32.58
-35.15
-40.09
-46.15
-52.21
-57.52
-61.75
-64.69
-66.29
-66.70
-66.56
-66.97
-69.03
-72.89
-76.98
-77.99
-72.23
-57.58
-35.17
-9.52
13.28
28.63
35.74
38.12
41.33
49.68
63.40
78.39
88.61
89.77
82.02
69.95
60.07
57.12
61.67
70.26
77.77
80.38
77.36
70.56
62.62
54.92
46.89
36.83
23.49
7.40
-9.01
-22.31
-29.54
-29.46
-22.94
-12.62
-1.92
6.15
10.05
10.06
7.91
5.78
5.23
6.63
9.53
13.30
17.77
23.13
29.41
35.72
40.33
41.40
38.01
30.91
22.25
14.55
9.63
7.93
8.76
10.98
13.73
16.67
19.83
23.12
26.17
28.21
28.44
26.38
22.28
17.19
12.73
10.50
11.36
15.04
20.24
25.35
29.31
32.04
34.29
36.87
39.84
42.23
42.55
39.46
32.63
22.99
12.40
3.10
-3.11
-5.34
-3.92
-0.20
3.94
6.80
7.55
6.43
4.60
3.47
3.99
6.09
8.61
9.74
7.76
2.01
-6.65
-15.88
-22.71
-24.79
-21.51
-14.36
-6.15
0.31
3.50
3.73
2.83
3.11
6.56
14.36
26.77
43.26
62.54
82.70
101.59
117.46
129.53
138.03
143.62
146.45
145.56
139.24
126.02
105.71
79.80
50.85
21.32
-7.26
-34.36
-59.93
-83.38
-103.42
-118.49
-127.76
-131.94
-133.23
-134.50
-138.38
-146.86
-161.39
-182.89
-211.09
-243.38
-274.04
-295.09
-298.82
-281.23
-244.30
-195.77
-146.37
-105.78
-79.45
-67.50
-65.95
-69.18
-72.25
-72.17
-68.04
-60.43
-50.69
-40.37
-30.88
-23.21
-17.83
-14.61
-12.65
-10.33
-5.49
3.94
18.94
38.54
59.70
78.10
89.95
93.86
91.80
88.52
89.72
99.58
119.06
145.40
173.47
197.82
214.94
224.19
227.41
227.35
225.88
223.12
217.73
208.19
193.90
175.59
154.66
132.28
109.05
85.30
61.79
40.02
21.83
8.43
-0.13
-4.96
-7.50
-8.69
-8.80
-8.03
-7.46
-9.21
-15.60
-27.56
-43.52
-59.84
-72.36
-78.53
-78.32
-73.82
-67.77
-62.42
-59.45
-60.46
-67.34
-81.48
-102.48
-127.15
-150.04
-165.68
-171.04
-166.84
-156.57
-144.14
-131.80
-119.96
-108.50
-98.37
-91.95
-91.61
-97.68
-107.36
-115.69
-117.74
-110.96
-96.03
-76.08
-54.90
-34.92
-16.02
4.22
28.96
59.89
95.34
129.89
156.07
167.58
162.41
144.08
120.03
97.99
82.48
73.30
66.97
59.69
50.04
39.58
31.37
27.35
26.67
25.74
20.07
6.90
-13.13
-35.87
-55.50
-67.11
-68.95
-63.01
-53.86
-46.47
-44.19
-47.76
-55.78
-65.81
-75.37
-82.40
-85.08
-81.80
-71.42
-53.87
-30.58
-4.33
21.44
43.34
58.70
65.95
64.94
57.16
45.59
34.02
25.58
21.36
19.92
18.05
12.73
2.84
-10.27
-23.60
-34.37
-41.39
-45.37
-48.05
-50.98
-54.70
-58.71
-62.00
-63.64
-63.06
-60.14
-55.15
-48.70
-41.59
-34.62
-28.28
-22.77
-18.23
-15.31
-15.37
-20.10
-30.73
-47.14
-67.63
-89.13
-108.09
-121.14
-125.65
-120.23
-105.03
-82.14
-55.54
-30.50
-12.27
-4.48
-7.82
-19.61
-34.60
-46.57
-50.42
-43.62
-26.87
-3.49
21.81
44.36
60.74
69.35
70.29
64.78
54.60
41.87
29.14
19.38
15.55
19.69
31.82
49.36
67.77
82.01
88.51
86.59
78.60
68.78
61.37
59.11
62.68
71.14
82.84
96.06
109.26
120.84
129.23
133.14
132.09
126.75
118.81
110.12
101.88
94.08
85.75
75.80
63.90
50.95
38.77
29.29
23.61
21.51
21.49
21.49
19.76
15.67
9.91
4.24
0.67
0.55
3.83
8.92
13.25
14.26
10.49
2.29
-8.34
-18.60
-26.12
-29.74
-29.80
-27.62
-24.65
-21.92
-19.88
-18.57
-17.95
-17.97
-18.47
-18.94
-18.60
-16.82
-13.49
-9.34
-5.72
-3.89
-4.26
-5.95
-7.11
-5.65
-0.23
9.23
21.45
34.36
45.74
53.85
57.70
57.22
53.19
46.98
40.28
34.59
30.81
28.94
28.00
26.44
22.56
15.20
4.18
-9.23
-22.46
-32.15
-35.32
-30.81
-20.15
-7.42
2.28
5.11
0.51
-8.43
-16.31
-18.10
-11.68
1.08
15.10
24.41
24.77
15.41
-0.90
-19.11
-34.07
-42.65
-44.79
-43.42
-42.93
-47.19
-57.71
-72.76
-88.00
-98.18
-99.39
-90.76
-75.00
-57.27
-42.94
-35.18
-33.59
-34.65
-33.72
-27.61
-16.31
-2.93
8.24
14.13
14.64
12.44
11.24
13.44
18.87
25.10
29.07
28.92
24.95
19.06
13.56
9.82
7.86
6.80
5.66
4.08
2.33
0.90
0.13
0.13
0.98
3.01
6.59
11.87
18.35
24.92
30.41
34.14
36.18
37.13
37.52
37.48
36.80
35.34
33.25
30.94
28.69
26.33
23.47
19.89
15.93
12.36
9.90
8.65
7.99
6.96
4.82
1.40
-3.03
-8.08
-13.43
-18.66
-22.97
-25.07
-23.63
-18.06
-9.15
0.83
8.97
12.99
12.24
7.96
2.55
-1.75
-4.00
-4.93
-6.35
-9.94
-16.27
-24.53
-33.21
-41.01
-47.32
-51.77
-53.47
-50.65
-41.28
-24.49
-1.89
22.44
43.20
56.09
59.50
54.82
45.34
34.39
24.17
15.50
8.55
3.54
0.94
1.00
3.18
5.98
7.56
6.60
2.91
-2.62
-8.62
-14.21
-19.39
-24.83
-30.95
-37.13
-41.38
-41.08
-34.36
-21.41
-4.93
10.84
22.00
26.72
25.98
22.63
19.54
17.73
15.88
11.38
2.19
-11.64
-27.83
-43.26
-55.96
-66.27
-76.45
-89.02
-104.80
-122.00
-137.02
-146.13
-147.18
-140.14
-126.54
-108.28
-87.01
-64.25
-41.95
-22.65
-8.50
0.25
6.28
14.49
29.81
54.42
86.07
118.68
144.85
159.00
159.54
149.02
132.55
115.57
102.08
94.10
92.02
95.36
103.12
113.70
124.67
132.88
135.14
129.15
114.36
92.33
66.27
40.02
16.79
-1.75
-15.72
-26.69
-36.71
-47.25
-58.44
-68.89
-76.39
-79.13
-76.83
-71.56
-67.41
-69.08
-79.88
-99.83
-124.73
-146.94
-157.73
-150.54
-123.65
-81.08
-31.17
16.48
54.37
79.08
91.34
94.38
91.88
86.66
80.47
74.39
69.23
65.37
62.22
58.12
50.98
39.50
24.30
8.10
-5.36
-13.04
-13.98
-9.88
-4.17
-0.40
-0.79
-5.52
-13.13
-21.43
-28.41
-32.72
-33.72
-31.21
-25.24
-16.24
-5.13
6.70
17.72
26.74
33.33
37.74
40.47
41.58
40.50
36.06
27.21
13.76
-3.31
-22.13
-40.63
-57.24
-71.23
-82.43
-90.82
-96.11
-97.68
-94.72
-86.61
-73.13
-54.78
-32.92
-9.76
11.96
29.66
41.56
47.22
47.31
43.11
35.77
26.04
14.47
1.96
-9.83
-18.60
-21.95
-18.17
-6.86
10.79
32.13
53.54
71.37
83.01
87.78
87.04
83.64
80.39
78.72
78.12
76.73
72.73
65.69
56.94
48.77
42.97
39.61
36.87
31.99
22.76
8.65
-9.02
-27.84
-45.38
-60.00
-70.96
-77.96
-80.75
-78.91
-72.23
-61.14
-46.89
-31.39
-16.62
-4.13
5.22
11.17
14.02
14.46
13.61
12.92
13.93
17.84
25.02
34.76
45.52
55.44
63.02
67.63
69.55
69.36
67.40
63.35
56.59
46.74
34.40
21.19
9.24
0.12
-5.87
-9.76
-13.02
-16.55
-20.00
-22.08
-21.53
-18.16
-13.21
-9.06
-8.06
-11.56
-19.37
-30.01
-41.34
-51.33
-58.45
-61.87
-61.38
-57.36
-50.89
-43.66
-37.61
-34.20
-33.74
-35.01
-35.65
-33.22
-26.58
-16.72
-6.49
0.72
2.68
-0.48
-6.52
-12.48
-16.36
-18.14
-19.46
-22.29
-27.50
-34.40
-41.25
-46.52
-49.80
-51.81
-53.53
-55.15
-55.68
-53.48
-47.52
-38.30
-27.91
-19.16
-14.20
-13.42
-15.33
-17.35
-17.19
-14.01
-8.79
-3.73
-1.17
-2.57
-8.06
-16.69
-26.82
-36.67
-44.60
-49.36
-50.16
-46.75
-39.39
-28.82
-16.03
-2.19
11.42
23.41
32.43
37.49
38.31
35.69
31.35
27.41
25.60
26.55
29.56
33.01
35.13
34.95
32.90
30.55
29.80
31.64
35.46
39.18
40.44
37.88
31.90
24.32
17.09
11.20
6.35
1.75
-2.72
-5.97
-6.32
-2.88
3.41
9.82
13.31
12.39
8.17
3.69
2.07
4.47
9.30
13.12
12.51
6.08
-4.88
-17.11
-27.05
-32.35
-32.73
-29.71
-25.66
-22.85
-22.95
-26.99
-35.51
-48.52
-65.39
-84.46
-103.27
-119.02
-129.49
-133.73
-132.16
-126.01
-116.55
-104.45
-89.74
-72.10
-51.40
-27.97
-2.82
22.69
47.07
69.01
87.48
101.75
111.32
115.88
115.39
110.19
101.20
89.94
78.25
67.76
59.38
53.12
48.42
44.79
42.21
41.13
42.03
44.84
48.74
52.47
54.84
55.10
53.13
49.21
43.77
37.18
29.76
21.91
14.16
7.15
1.45
-2.55
-4.83
-5.68
-5.63
-5.30
-5.24
-5.80
-7.07
-9.05
-11.64
-14.82
-18.57
-22.74
-26.89
-30.25
-31.93
-31.29
-28.16
-23.04
-16.95
-11.11
-6.64
-4.29
-4.29
-6.36
-9.70
-13.11
-15.16
-14.70
-11.23
-5.19
2.15
9.19
14.60
17.81
19.06
19.07
18.60
18.14
17.84
17.61
17.26
16.53
15.07
12.54
8.83
4.29
-0.21
-3.47
-4.50
-2.91
0.84
5.58
9.85
12.37
12.39
9.89
5.52
0.36
-4.31
-7.17
-6.97
-2.56
6.88
21.48
40.16
60.53
79.27
93.12
100.00
99.67
93.57
84.02
73.27
62.97
54.14
47.28
42.41
38.84
35.00
28.88
18.97
5.22
-10.68
-25.88
-37.81
-45.54
-50.11
-53.73
-58.34
-64.38
-70.59
-74.86
-75.57
-72.69
-67.88
-63.68
-62.20
-64.06
-68.14
-72.27
-74.32
-73.19
-69.19
-63.65
-58.26
-54.46
-53.15
-54.70
-58.82
-64.45
-69.73
-72.41
-70.61
-63.70
-52.73
-40.17
-28.83
-20.74
-16.37
-14.71
-14.07
-13.04
-11.13
-8.79
-6.87
-5.84
-5.40
-4.51
-2.00
2.83
9.83
18.17
26.90
35.51
44.01
52.64
61.27
69.20
75.36
79.01
80.25
80.15
80.33
82.28
86.94
94.69
105.54
119.17
134.73
150.60
164.67
175.05
181.04
183.59
184.68
185.81
186.55
184.21
175.01
156.25
127.76
92.15
53.31
14.66
-21.78
-54.87
-83.23
-104.72
-117.17
-119.97
-114.96
-105.85
-96.42
-88.86
-83.56
-80.35
-79.91
-84.12
-94.67
-111.20
-130.48
-147.64
-158.74
-162.71
-161.46
-158.07
-154.39
-149.85
-142.14
-128.98
-109.79
-86.19
-61.30
-38.53
-20.38
-7.94
-0.87
2.34
3.57
4.26
4.67
3.98
0.99
-4.74
-12.27
-19.60
-24.73
-26.71
-25.73
-22.36
-16.63
-7.88
4.39
19.45
34.80
46.92
52.87
51.73
45.06
36.10
28.35
24.34
24.93
29.09
34.10
36.26
32.24
20.59
2.74
-17.15
-33.73
-42.83
-43.12
-36.53
-26.88
-17.98
-12.14
-9.92
-10.82
-14.01
-18.77
-24.18
-28.81
-30.87
-28.92
-22.69
-13.39
-3.39
4.64
8.68
8.05
3.38
-3.74
-11.60
-18.85
-24.91
-29.82
-33.71
-36.32
-36.60
-33.15
-25.02
-12.60
2.00
15.58
25.08
28.97
27.68
23.29
18.09
13.51
9.52
5.21
-0.31
-6.94
-13.39
-17.88
-19.10
-17.11
-13.36
-9.93
-8.18
-7.88
-7.19
-3.85
3.19
12.75
21.76
26.92
26.56
21.67
15.23
10.45
8.98
10.23
12.17
12.93
12.00
10.37
9.63
10.73
13.31
15.92
16.96
15.54
11.85
6.86
1.73
-2.81
-6.65
-10.08
-13.41
-16.59
-19.27
-21.09
-22.17
-23.43
-26.31
-32.17
-41.28
-52.12
-61.41
-65.06
-59.89
-45.17
-23.35
0.66
21.24
34.37
39.04
37.21
32.50
28.15
25.55
24.01
21.66
16.90
9.47
0.78
-6.91
-11.58
-12.40
-10.10
-6.49
-3.51
-2.32
-2.99
-4.71
-6.56
-8.15
-9.82
-12.15
-14.98
-16.81
-15.03
-7.08
8.06
28.83
51.26
70.27
81.72
83.91
78.07
67.54
56.07
46.37
39.26
34.01
29.32
24.29
18.97
14.08
10.39
8.03
6.45
4.88
2.90
0.84
-0.49
-0.43
0.84
2.31
2.61
0.94
-2.40
-6.05
-8.49
-9.01
-8.37
-8.55
-11.67
-18.76
-28.85
-39.03
-45.41
-44.62
-35.27
-18.56
2.05
22.08
37.61
46.46
48.67
45.92
40.57
34.58
29.08
24.37
20.38
17.11
14.75
13.42
12.80
12.01
9.81
5.18
-2.05
-10.96
-19.77
-26.52
-29.90
-29.64
-26.53
-21.95
-17.21
-13.23
-10.32
-8.33
-6.87
-5.53
-4.01
-2.27
-0.50
0.90
1.61
1.54
1.00
0.50
0.52
1.28
2.68
4.43
6.26
8.07
9.82
11.65
13.73
16.28
19.45
23.07
26.48
28.68
28.73
26.36
22.33
18.12
15.21
14.25
14.62
14.91
13.70
10.35
5.31
-0.21
-4.92
-7.91
-8.84
-7.84
-5.35
-2.02
1.29
3.67
4.39
3.22
0.55
-2.82
-6.15
-9.05
-11.60
-14.09
-16.62
-19.05
-21.07
-22.61
-23.87
-25.24
-26.99
-29.05
-31.11
-32.88
-34.41
-36.00
-38.02
-40.60
-43.55
-46.42
-48.80
-50.44
-51.38
-51.81
-52.03
-52.33
-52.77
-52.97
-52.02
-48.73
-42.17
-32.34
-20.39
-8.31
1.85
8.82
12.65
14.48
15.85
17.88
20.82
24.18
27.13
29.05
29.78
29.50
28.52
27.02
25.07
22.66
19.98
17.41
15.59
15.17
16.65
20.25
25.72
32.37
39.16
44.99
49.21
51.84
53.61
55.43
57.79
60.39
62.18
62.01
59.47
55.28
51.13
48.82
49.37
52.56
57.13
61.52
64.54
65.59
64.48
60.91
54.56
45.34
34.01
22.27
12.40
6.12
3.73
3.93
4.50
3.48
-0.05
-5.90
-13.45
-22.06
-31.29
-40.42
-48.06
-52.25
-51.22
-44.41
-32.94
-19.34
-6.64
2.87
8.27
10.01
9.46
8.11
6.96
6.26
5.64
4.58
2.88
1.00
-0.17
0.07
1.68
3.73
4.92
4.37
2.44
0.46
-0.13
1.04
2.73
2.59
-1.41
-9.68
-20.43
-30.46
-36.71
-37.83
-34.72
-29.79
-25.44
-22.81
-21.44
-20.23
-18.66
-17.66
-19.27
-25.29
-35.81
-48.60
-59.93
-66.27
-66.10
-60.71
-53.61
-48.82
-48.99
-54.24
-62.24
-69.37
-72.24
-68.98
-59.72
-46.18
-30.74
-15.48
-1.62
10.41
20.62
28.75
34.14
35.91
33.78
28.62
22.55
18.14
17.40
20.84
27.28
34.43
39.88
42.09
40.62
35.97
29.09
21.06
13.08
6.43
2.22
1.02
2.43
5.11
7.25
7.33
4.66
-0.38
-6.56
-12.26
-15.85
-16.22
-12.91
-6.28
2.64
12.40
21.63
29.31
34.97
38.50
39.93
39.33
36.96
33.47
29.97
27.83
28.08
30.86
35.13
38.89
39.82
36.27
28.08
16.84
5.35
-3.47
-7.83
-7.68
-4.50
-0.30
3.27
5.48
6.37
6.22
5.14
3.04
-0.16
-4.09
-7.90
-10.46
-10.72
-8.08
-2.58
5.07
13.55
21.06
25.73
26.15
21.80
13.29
2.30
-8.81
-17.39
-21.15
-18.88
-11.09
-0.22
9.97
15.72
14.83
7.55
-3.65
-15.39
-24.88
-30.78
-33.04
-32.11
-28.45
-22.67
-16.22
-11.58
-11.50
-17.31
-27.66
-38.50
-44.72
-42.68
-32.02
-15.89
0.66
12.95
18.58
17.80
12.74
5.98
-0.42
-5.26
-8.02
-8.49
-6.60
-2.49
3.28
9.67
15.17
18.15
17.35
12.43
4.28
-5.11
-13.34
-18.43
-19.67
-17.78
-14.48
-11.78
-11.29
-13.87
-19.69
-28.14
-37.79
-46.41
-51.34
-50.29
-42.31
-28.40
-11.22
5.86
20.04
29.95
35.62
37.87
37.42
34.57
29.45
22.73
15.81
10.37
7.53
7.09
7.68
7.66
6.24
4.04
2.57
3.08
5.56
8.63
10.43
9.86
7.12
3.43
-0.11
-3.20
-6.31
-9.84
-13.41
-15.84
-15.94
-13.44
-9.33
-5.26
-2.50
-1.24
-0.71
0.01
1.08
1.83
1.28
-0.97
-4.32
-7.41
-8.97
-8.44
-6.28
-3.56
-1.35
-0.22
-0.15
-0.59
-0.96
-0.85
-0.18
0.91
2.28
3.91
5.86
8.00
9.86
10.65
9.64
6.81
3.07
0.08
-0.47
2.28
7.83
14.50
20.18
23.17
22.87
19.83
15.43
11.24
8.42
7.31
7.32
7.30
5.97
2.54
-3.11
-10.25
-17.68
-24.00
-28.04
-29.14
-27.36
-23.60
-19.35
-16.19
-15.18
-16.44
-19.17
-22.04
-23.89
-24.13
-22.83
-20.42
-17.55
-14.78
-12.58
-11.20
-10.48
-9.88
-8.68
-6.47
-3.36
0.00
2.91
5.02
6.59
8.12
9.90
11.74
13.00
13.11
11.86
9.54
6.67
3.70
0.87
-1.58
-3.30
-3.83
-2.88
-0.63
2.24
4.85
6.49
7.00
6.60
5.65
4.24
2.17
-0.91
-5.05
-9.81
-14.17
-16.86
-16.84
-13.80
-8.34
-1.82
4.22
8.70
11.56
13.75
16.67
21.40
28.06
35.67
42.69
47.70
50.10
50.10
48.43
45.81
42.61
38.92
34.77
30.49
26.80
24.43
23.66
23.85
23.53
21.12
15.76
7.93
-0.59
-7.56
-11.44
-12.00
-10.33
-7.96
-5.96
-4.50
-3.18
-1.84
-1.11
-2.35
-6.96
-15.54
-27.56
-41.51
-55.45
-67.53
-76.46
-81.51
-82.59
-80.25
-75.59
-70.01
-64.90
-61.31
-59.55
-58.98
-57.99
-54.52
-46.94
-35.14
-21.14
-8.68
-1.76
-2.79
-11.36
-24.39
-37.59
-47.51
-52.65
-53.49
-51.25
-46.69
-39.65
-29.50
-16.09
-0.36
15.91
30.87
43.25
52.78
59.86
65.11
68.95
71.46
72.41
71.40
68.09
62.42
54.72
45.80
36.64
28.13
20.77
14.65
9.59
5.42
2.05
-0.60
-2.84
-5.23
-8.37
-12.59
-17.64
-22.72
-26.87
-29.44
-30.42
-30.37
-30.11
-30.25
-30.86
-31.40
-30.83
-27.91
-21.57
-11.27
2.67
18.76
34.50
46.79
52.84
51.09
41.88
27.33
10.67
-4.93
-17.20
-25.12
-28.60
-28.03
-23.97
-17.24
-9.14
-1.44
3.98
5.88
4.19
0.16
-4.27
-7.26
-7.80
-6.05
-2.93
0.39
3.27
5.91
9.15
13.79
19.88
26.31
31.07
32.18
28.69
21.34
12.29
4.21
-0.77
-1.82
0.78
6.16
13.60
22.76
33.46
45.16
56.62
66.06
71.75
72.82
69.69
64.12
58.35
54.07
51.75
50.59
49.30
47.12
44.29
41.77
40.31
39.69
38.70
35.94
30.78
23.80
16.19
8.67
0.81
-8.56
-20.14
-33.03
-44.58
-51.70
-52.47
-47.41
-39.30
-31.79
-27.72
-28.01
-31.77
-37.18
-42.58
-47.00
-50.10
-51.74
-51.64
-49.45
-45.10
-39.18
-32.98
-28.07
-25.85
-27.08
-31.66
-38.77
-47.11
-55.20
-61.55
-64.85
-64.21
-59.56
-51.90
-43.36
-36.62
-33.98
-36.38
-42.99
-51.49
-59.02
-63.18
-62.71
-57.50
-48.12
-35.38
-20.07
-3.09
14.33
30.72
44.84
56.30
65.75
74.44
83.27
92.01
99.17
102.74
101.23
94.56
84.14
72.24
61.09
52.21
46.12
42.47
40.35
38.61
36.22
32.51
27.49
21.75
16.19
11.49
7.86
5.09
2.94
1.46
1.03
2.05
4.33
6.90
8.31
7.21
3.06
-3.49
-10.87
-17.06
-20.27
-19.43
-14.44
-6.20
3.72
13.36
21.01
25.60
26.93
25.51
22.06
16.95
9.93
0.43
-11.86
-26.29
-41.15
-54.25
-63.78
-69.11
-70.75
-69.79
-67.12
-63.14
-58.15
-52.91
-48.84
-47.45
-49.34
-53.45
-57.26
-57.67
-52.32
-40.41
-22.91
-2.04
19.42
38.91
54.64
65.93
73.21
77.60
80.11
81.05
79.89
75.94
69.27
61.31
54.47
50.81
50.74
52.62
53.54
50.95
43.90
33.46
21.98
11.96
5.10
1.81
1.38
2.27
2.53
0.39
-5.27
-14.45
-26.03
-38.19
-49.22
-58.09
-64.65
-69.17
-71.86
-72.70
-71.75
-69.71
-67.99
-68.21
-71.25
-76.52
-81.89
-84.51
-82.01
-73.54
-59.89
-42.93
-24.79
-7.25
8.38
20.94
29.31
32.54
30.48
24.27
16.34
9.78
7.05
8.84
13.62
18.33
19.77
16.22
8.41
-0.87
-8.08
-10.54
-7.49
-0.11
9.34
18.61
26.18
31.35
33.81
33.49
30.58
25.85
20.74
16.98
15.81
17.23
20.04
22.50
23.44
22.82
21.72
21.47
22.73
25.09
27.40
28.49
27.79
25.40
21.68
16.83
10.88
3.99
-3.15
-9.40
-13.66
-15.63
-16.06
-16.47
-18.38
-22.60
-28.92
-36.41
-43.88
-50.32
-55.00
-57.47
-57.51
-55.29
-51.33
-46.48
-41.59
-37.35
-34.21
-32.58
-32.95
-35.66
-40.50
-46.21
-50.55
-51.13
-46.69
-37.96
-27.72
-19.64
-16.76
-20.18
-28.85
-40.31
-51.88
-61.57
-68.22
-71.04
-69.00
-60.73
-45.12
-22.25
5.81
35.13
60.97
79.38
88.48
88.92
83.35
75.12
67.10
60.94
57.03
55.01
54.13
53.67
53.04
51.97
50.58
49.45
49.36
50.76
53.39
56.26
58.25
58.99
59.30
61.03
66.08
75.37
88.20
102.44
115.55
125.63
132.02
135.18
135.99
135.08
132.40
127.37
119.27
107.85
93.54
77.46
61.11
46.00
33.10
22.48
13.25
3.94
-6.70
-18.95
-31.80
-43.48
-52.65
-59.51
-66.02
-74.98
-88.40
-106.09
-125.52
-142.83
-154.72
-159.98
-159.71
-156.37
-152.23
-148.31
-144.27
-139.28
-132.90
-125.54
-118.08
-111.10
-104.41
-97.15
-88.47
-78.16
-67.00
-56.43
-47.72
-41.22
-36.01
-30.32
-22.29
-10.96
3.12
17.95
30.92
40.01
44.79
46.59
47.73
50.21
54.55
59.67
63.66
65.04
63.75
61.00
58.51
57.53
58.29
60.44
63.54
67.56
72.58
78.24
83.34
86.16
85.19
79.96
71.32
61.02
50.95
42.42
35.83
30.97
27.41
24.84
23.11
22.09
21.49
20.86
19.74
17.93
15.63
13.50
12.49
13.45
16.79
22.06
27.99
32.91
35.37
34.81
31.68
27.18
22.56
18.49
14.87
11.22
7.18
2.89
-1.21
-4.82
-8.11
-11.57
-15.49
-19.59
-23.11
-25.52
-27.08
-28.83
-31.91
-36.37
-40.72
-42.45
-39.35
-30.75
-17.90
-3.23
10.87
22.90
32.48
39.89
45.68
50.63
55.63
61.32
67.16
70.69
67.83
54.55
29.37
-4.83
-40.95
-70.22
-85.82
-85.77
-73.40
-55.38
-38.40
-26.56
-20.62
-19.13
-20.36
-23.50
-28.49
-35.05
-41.79
-46.25
-46.13
-40.83
-32.23
-24.19
-20.91
-24.97
-36.04
-50.92
-64.71
-72.47
-70.73
-58.08
-35.16
-4.12
31.89
69.11
103.48
131.05
148.51
153.87
146.90
129.28
104.33
76.26
49.22
26.25
8.47
-5.10
-17.09
-30.61
-47.81
-68.71
-91.13
-111.63
-127.13
-136.31
-139.94
-139.96
-137.86
-133.53
-125.33
-111.40
-91.58
-68.37
-46.37
-30.25
-22.50
-22.26
-26.04
-29.71
-30.52
-27.99
-23.33
-18.00
-12.67
-7.06
-0.78
5.85
11.67
15.33
16.16
14.48
11.28
7.45
3.55
-0.01
-2.53
-2.92
-0.25
5.38
12.54
18.98
22.89
23.89
23.09
22.15
22.16
23.24
25.12
28.16
33.74
43.48
57.79
74.60
89.60
97.95
96.57
85.67
68.55
49.99
34.18
23.41
17.95
16.97
19.42
24.39
30.86
37.41
42.11
43.05
39.12
30.66
19.37
7.63
-2.53
-10.16
-15.53
-19.54
-22.98
-25.89
-27.59
-27.27
-24.76
-20.88
-17.09
-14.49
-13.12
-11.76
-8.72
-3.07
4.45
11.52
15.41
14.48
9.18
1.91
-4.30
-7.29
-6.86
-4.65
-3.09
-4.02
-7.70
-12.74
-17.01
-18.74
-17.49
-14.22
-10.58
-7.87
-6.33
-5.03
-2.62
1.80
7.92
14.29
18.95
20.48
18.69
14.82
10.91
8.81
9.20
11.19
12.74
11.69
6.94
-1.00
-10.25
-18.64
-24.64
-27.98
-29.31
-29.45
-28.63
-26.38
-21.92
-14.86
-5.58
4.97
15.78
26.36
36.71
47.00
57.07
66.12
72.92
76.25
75.38
70.45
62.46
53.22
44.93
39.58
38.10
39.74
41.91
40.74
32.46
14.88
-11.58
-43.71
-76.24
-103.05
-118.69
-119.68
-105.44
-78.81
-45.62
-13.38
11.01
23.59
24.92
19.74
14.72
15.35
23.44
36.30
48.20
52.87
46.02
26.80
-2.15
-35.58
-67.15
-90.93
-103.05
-102.94
-93.88
-82.34
-75.68
-78.97
-92.45
-111.05
-126.66
-131.95
-123.88
-104.84
-81.13
-59.48
-44.09
-35.48
-31.56
-29.79
-28.74
-28.12
-27.74
-26.45
-22.18
-13.11
0.90
17.67
33.32
43.85
46.94
42.82
34.15
24.94
19.11
19.12
25.17
35.18
45.60
52.83
54.72
51.40
45.04
38.53
34.00
31.79
30.72
29.08
26.00
22.02
18.83
18.13
20.61
25.54
31.26
36.11
39.33
41.24
42.69
44.29
45.80
46.26
44.66
40.75
35.40
30.19
26.48
24.68
23.94
22.82
20.15
15.73
10.26
4.65
-0.64
-5.90
-11.64
-17.86
-23.59
-27.19
-27.34
-23.88
-18.08
-12.01
-7.45
-5.01
-4.03
-3.20
-1.47
1.33
4.48
6.87
7.55
6.23
3.31
-0.31
-3.52
-5.47
-5.78
-4.71
-2.95
-1.29
-0.26
0.10
-0.01
-0.38
-1.03
-2.09
-3.46
-4.66
-4.91
-3.56
-0.60
3.19
6.56
8.37
8.15
6.23
3.48
0.82
-1.12
-2.26
-2.91
-3.57
-4.76
-6.82
-9.84
-13.53
-17.24
-20.02
-20.96
-19.44
-15.59
-10.32
-5.24
-2.03
-1.90
-5.00
-10.41
-16.53
-21.72
-24.95
-26.02
-25.37
-23.62
-21.19
-18.21
-14.71
-10.85
-7.15
-4.22
-2.55
-2.15
-2.54
-2.97
-2.73
-1.45
0.71
3.28
5.72
7.77
9.56
11.48
13.88
16.73
19.57
21.79
22.89
22.84
22.00
20.87
19.83
19.02
18.43
18.08
18.02
18.30
18.75
19.03
18.77
17.88
16.60
15.29
14.18
13.08
11.58
9.44
6.86
4.50
3.04
2.69
3.02
3.24
2.76
1.46
-0.26
-1.96
-3.47
-4.91
-6.46
-7.98
-8.95
-8.90
-7.85
-6.70
-6.86
-9.55
-14.92
-21.80
-28.05
-31.58
-31.27
-27.45
-21.55
-15.35
-10.04
-5.89
-2.36
1.30
5.50
10.00
14.08
16.89
18.01
17.59
16.36
15.25
15.07
16.12
18.16
20.52
22.41
23.12
22.23
19.58
15.25
9.53
2.88
-4.07
-10.72
-16.59
-21.40
-24.99
-27.19
-27.77
-26.52
-23.51
-19.33
-15.01
-11.67
-10.04
-10.05
-10.86
-11.39
-10.95
-9.68
-8.56
-8.89
-11.64
-16.93
-23.94
-31.26
-37.48
-41.66
-43.55
-43.45
-41.90
-39.49
-36.73
-34.00
-31.55
-29.37
-27.15
-24.34
-20.40
-15.15
-8.93
-2.50
3.37
8.18
11.83
14.41
15.77
15.32
12.21
5.87
-3.42
-14.24
-24.40
-31.79
-35.30
-35.32
-33.51
-31.87
-31.67
-32.77
-33.78
-32.93
-29.14
-22.72
-15.29
-8.89
-4.97
-3.70
-3.96
-4.04
-2.42
1.72
8.43
17.31
27.73
39.10
50.82
62.25
72.71
81.37
87.24
89.34
86.93
80.05
69.83
58.38
48.16
40.94
37.07
35.49
34.48
32.73
29.97
26.83
24.10
21.97
19.94
17.27
13.74
10.05
7.52
7.36
9.88
14.23
18.78
21.86
22.50
20.85
17.96
15.14
13.20
11.91
10.05
6.07
-1.03
-11.02
-22.33
-32.74
-40.32
-44.17
-44.62
-42.72
-39.56
-35.84
-31.95
-28.30
-25.62
-24.84
-26.52
-30.37
-35.13
-39.04
-40.42
-38.37
-32.96
-25.15
-16.46
-8.65
-3.35
-1.64
-3.58
-8.03
-12.81
-15.58
-14.76
-10.24
-3.28
4.26
10.89
16.15
20.42
24.31
28.02
31.25
33.52
34.55
34.37
33.01
30.31
25.87
19.56
11.88
4.15
-2.06
-5.69
-6.62
-5.63
-3.62
-1.03
2.40
7.10
12.95
18.87
23.25
24.91
23.98
22.05
21.34
23.35
27.86
32.91
35.81
34.66
29.30
21.32
12.99
5.98
0.64
-3.86
-8.77
-14.99
-22.64
-31.20
-39.85
-47.66
-53.66
-56.94
-56.92
-53.81
-48.77
-43.65
-40.12
-38.83
-39.12
-39.51
-38.72
-36.41
-33.29
-30.47
-28.61
-27.50
-26.21
-23.87
-20.29
-16.09
-12.19
-9.06
-6.29
-2.90
1.88
7.90
13.86
17.94
18.82
16.43
12.02
7.47
4.26
2.79
2.35
1.79
0.26
-2.27
-5.12
-7.31
-8.05
-7.04
-4.45
-0.79
3.28
7.12
10.19
12.14
12.83
12.24
10.42
7.53
3.93
0.40
-2.01
-2.35
-0.33
3.42
7.52
10.44
11.27
9.95
7.14
3.68
0.25
-2.68
-4.66
-5.18
-3.83
-0.72
3.39
7.27
9.88
10.89
10.86
10.72
11.14
12.03
12.73
12.49
11.06
8.81
6.45
4.55
3.15
1.81
0.01
-2.52
-5.52
-8.41
-10.63
-12.01
-12.87
-13.75
-14.99
-16.48
-17.60
-17.56
-15.76
-12.11
-6.94
-0.80
5.82
12.54
18.93
24.34
28.01
29.33
28.25
25.52
22.42
20.13
19.23
19.47
20.04
20.26
20.07
20.02
20.92
23.20
26.50
29.74
31.61
31.21
28.43
24.02
19.28
15.60
14.12
15.52
19.86
26.59
34.47
41.74
46.33
46.28
40.30
28.22
11.18
-8.50
-27.90
-44.15
-55.16
-60.05
-59.17
-53.85
-45.92
-37.16
-28.86
-21.76
-16.08
-11.84
-9.07
-7.88
-8.24
-9.82
-11.77
-12.98
-12.48
-9.92
-5.85
-1.60
1.34
1.89
-0.15
-4.00
-8.35
-11.90
-14.05
-15.13
-16.27
-18.71
-23.08
-28.87
-34.60
-38.52
-39.52
-37.69
-34.30
-31.11
-29.49
-29.93
-32.02
-34.84
-37.53
-39.51
-40.48
-40.38
-39.28
-37.39
-35.04
-32.57
-30.07
-27.40
-24.23
-20.35
-15.75
-10.64
-5.21
0.57
6.95
14.31
22.83
32.37
42.39
52.03
60.29
66.09
68.48
66.82
61.04
51.67
39.75
26.67
13.80
2.49
-6.07
-10.84
-11.34
-8.04
-2.60
2.48
4.78
2.97
-2.58
-9.97
-16.61
-20.44
-20.71
-18.11
-14.25
-10.76
-8.53
-7.49
-6.74
-5.18
-1.97
3.09
9.76
17.70
27.02
38.34
52.56
70.21
90.91
113.34
135.75
156.67
175.13
190.33
200.95
204.69
198.55
180.16
149.44
109.71
67.39
30.14
4.13
-8.43
-10.10
-6.90
-5.62
-10.88
-23.62
-41.46
-60.51
-77.28
-89.63
-96.50
-97.05
-90.18
-75.10
-52.46
-25.19
1.92
23.74
36.69
39.82
34.64
23.82
9.90
-5.49
-21.55
-37.87
-54.02
-69.34
-83.07
-94.37
-102.33
-106.24
-105.86
-101.87
-96.06
-91.07
-89.66
-93.70
-103.40
-117.05
-131.47
-142.78
-147.66
-144.32
-133.19
-116.90
-99.54
-85.38
-77.43
-76.61
-81.68
-90.11
-99.11
-106.55
-111.18
-112.53
-110.65
-106.12
-100.28
-95.18
-93.07
-95.41
-101.75
-109.36
-113.74
-110.13
-95.27
-68.70
-32.89
7.64
47.96
84.26
114.68
139.23
159.00
175.08
188.04
197.94
204.96
210.02
214.94
221.81
232.00
245.16
259.07
270.24
275.41
272.91
263.56
250.61
238.72
232.19
233.22
240.74
250.38
255.76
250.74
231.64
198.47
154.52
104.70
53.39
3.00
-46.17
-95.13
-145.10
-197.00
-251.13
-307.05
-362.93
-414.92
-457.13
-482.86
-486.77
-467.02
-426.09
-369.71
-304.45
-235.61
-166.37
-98.77
-35.21
20.77
65.17
95.41
111.77
117.63
117.81
116.47
115.52
114.51
111.79
106.06
97.39
87.15
77.13
68.63
62.03
56.91
52.56
48.33
43.82
38.96
33.94
29.22
25.44
23.11
22.50
23.57
26.14
30.01
34.96
40.32
44.62
45.50
40.23
26.85
5.59
-20.29
-45.02
-62.34
-67.99
-61.51
-46.15
-26.92
-8.13
8.32
22.82
36.50
49.65
61.16
69.30
73.05
72.85
70.13
66.19
61.34
54.95
46.26
35.40
23.54
12.27
2.63
-5.51
-13.22
-21.76
-31.65
-42.31
-52.32
-60.23
-65.23
-67.50
-68.01
-67.92
-67.94
-68.12
-68.07
-67.46
-66.19
-64.08
-60.44
-53.98
-43.41
-28.58
-11.20
5.43
17.62
22.98
21.43
15.11
7.32
1.11
-1.73
-0.90
2.86
8.40
14.65
20.90
26.71
31.81
35.93
38.69
39.66
38.62
35.71
31.52
26.94
22.90
20.12
19.00
19.53
21.33
23.81
26.26
28.05
28.67
27.74
24.95
20.14
13.42
5.33
-3.24
-11.21
-17.73
-22.50
-25.84
-28.44
-30.76
-32.77
-33.88
-33.51
-31.57
-28.80
-26.47
-25.73
-26.94
-29.26
-30.97
-30.22
-25.94
-18.39
-9.13
-0.34
6.05
9.07
8.89
6.46
3.01
-0.43
-3.12
-4.61
-4.64
-3.20
-0.64
2.25
4.40
4.84
3.18
-0.17
-4.07
-7.09
-8.21
-7.24
-4.92
-2.45
-0.82
-0.20
0.05
0.87
2.69
5.01
6.68
6.67
4.98
2.76
1.69
2.91
6.23
10.26
13.35
14.77
15.23
16.39
19.77
25.69
33.05
40.02
45.10
47.95
49.36
50.53
52.14
53.71
53.73
50.40
42.60
30.57
16.00
1.40
-10.91
-19.65
-24.89
-27.75
-29.60
-31.28
-32.70
-33.15
-31.92
-28.92
-24.88
-20.89
-17.92
-16.35
-16.05
-16.80
-18.66
-22.08
-27.42
-34.39
-41.56
-46.78
-48.04
-44.65
-37.74
-29.82
-23.42
-19.89
-18.82
-18.64
-17.89
-16.35
-15.23
-16.36
-20.84
-28.08
-35.86
-41.31
-42.24
-38.13
-30.16
-20.49
-11.29
-4.00
0.92
3.67
4.83
4.98
4.75
4.85
6.05
8.92
13.60
19.61
26.07
32.15
37.50
42.34
47.14
52.10
56.92
60.88
63.36
64.30
64.23
63.94
63.82
63.56
62.25
58.99
53.42
46.07
38.12
30.88
25.20
21.14
18.19
15.58
12.82
9.88
7.15
5.09
3.84
3.03
1.98
0.06
-2.80
-6.02
-8.65
-9.98
-10.07
-9.89
-10.97
-14.51
-20.57
-27.58
-32.72
-32.93
-26.38
-13.54
2.57
17.36
26.33
26.72
18.50
3.97
-13.35
-30.09
-43.90
-53.61
-58.82
-59.68
-56.76
-51.22
-44.84
-39.69
-37.52
-39.15
-44.27
-51.49
-58.76
-63.75
-64.39
-59.28
-48.20
-32.46
-14.68
1.91
14.71
22.64
26.40
27.85
28.89
30.52
32.62
34.41
35.25
34.98
33.98
32.63
31.01
28.85
25.86
22.16
18.44
15.65
14.54
15.20
17.02
18.82
19.24
17.09
11.71
3.34
-6.72
-16.35
-23.18
-25.46
-22.67
-15.70
-6.40
3.27
11.92
18.96
24.26
27.70
28.84
27.13
22.43
15.47
7.88
1.66
-1.65
-1.60
1.01
4.58
7.54
9.11
9.59
10.02
11.52
14.52
18.54
22.40
24.88
25.25
23.55
20.43
16.62
12.58
8.36
3.79
-1.22
-6.50
-11.62
-16.19
-20.11
-23.65
-27.24
-31.07
-34.86
-37.83
-39.04
-37.84
-34.16
-28.60
-22.24
-16.28
-11.66
-8.87
-7.97
-8.70
-10.60
-13.17
-15.92
-18.57
-21.08
-23.72
-26.73
-30.11
-33.43
-36.01
-37.26
-37.15
-36.48
-36.49
-38.30
-41.99
-46.24
-48.43
-45.51
-35.00
-15.77
11.51
44.54
79.80
113.29
141.32
161.39
172.82
176.74
175.51
171.63
166.60
160.49
152.17
140.27
124.04
103.77
80.57
55.79
30.75
6.73
-14.78
-32.00
-43.39
-48.35
-47.86
-44.37
-40.87
-39.61
-41.29
-44.97
-49.02
-52.18
-54.24
-55.93
-58.08
-60.94
-63.88
-65.81
-65.77
-63.46
-59.35
-54.23
-48.80
-43.39
-37.91
-32.18
-26.24
-20.48
-15.49
-11.77
-9.43
-8.09
-6.99
-5.38
-2.84
0.48
4.09
7.38
9.95
11.70
12.65
12.75
11.76
9.45
5.98
2.08
-1.17
-2.84
-2.73
-1.54
-0.48
-0.58
-1.94
-3.73
-4.64
-3.82
-1.48
1.13
2.43
1.46
-1.50
-5.06
-7.62
-8.32
-7.48
-6.39
-6.43
-8.28
-11.56
-15.08
-17.59
-18.30
-17.14
-14.61
-11.48
-8.55
-6.58
-6.18
-7.70
-11.02
-15.44
-19.87
-23.21
-24.86
-25.07
-24.86
-25.54
-27.99
-32.07
-36.51
-39.43
-39.28
-35.66
-29.62
-23.20
-18.36
-16.08
-15.92
-16.49
-16.37
-14.98
-12.92
-11.44
-11.59
-13.46
-16.04
-17.62
-16.74
-12.76
-6.15
1.86
9.91
17.10
23.36
29.24
35.53
42.73
50.83
59.39
67.88
76.05
84.13
92.61
102.00
112.40
123.47
134.50
144.65
153.12
159.17
162.12
161.35
156.38
147.07
133.83
117.57
99.56
81.08
63.17
46.55
31.68
18.82
8.01
-1.01
-8.77
-15.96
-23.11
-30.40
-37.67
-44.58
-50.99
-57.03
-62.98
-68.99
-74.74
-79.53
-82.62
-83.75
-83.30
-82.21
-81.39
-81.35
-81.93
-82.54
-82.50
-81.31
-78.80
-74.99
-70.00
-63.99
-57.23
-50.13
-43.22
-37.00
-31.86
-27.94
-25.20
-23.44
-22.32
-21.45
-20.45
-19.06
-17.27
-15.26
-13.34
-11.76
-10.60
-9.78
-9.13
-8.55
-7.99
-7.50
-7.05
-6.54
-5.79
-4.64
-3.02
-1.11
0.72
2.03
2.51
2.14
1.22
0.23
-0.41
-0.55
-0.42
-0.44
-0.99
-2.12
-3.58
-4.94
-5.91
-6.46
-6.88
-7.45
-8.35
-9.46
-10.56
-11.52
-12.39
-13.42
-14.88
-16.89
-19.26
-21.63
-23.53
-24.54
-24.42
-23.11
-20.75
-17.63
-14.14
-10.68
-7.49
-4.67
-2.15
0.15
2.27
4.12
5.59
6.66
7.38
7.90
8.33
8.66
8.83
8.81
8.72
8.80
9.35
10.48
12.08
13.83
15.40
16.64
17.58
18.31
18.81
18.90
18.32
16.95
15.00
12.92
11.22
10.13
9.48
8.75
7.47
5.43
2.82
0.09
-2.30
-4.11
-5.45
-6.60
-7.87
-9.48
-11.49
-13.79
-16.14
-18.21
-19.59
-19.93
-19.02
-16.85
-13.66
-9.85
-5.90
-2.17
1.08
3.78
5.89
7.39
8.24
8.47
8.17
7.58
7.04
6.78
6.84
7.02
7.00
6.50
5.56
4.56
4.02
4.34
5.53
7.17
8.63
9.40
9.26
8.35
6.99
5.52
4.12
2.88
1.80
0.90
0.14
-0.62
-1.52
-2.76
-4.35
-6.18
-7.95
-9.38
-10.32
-10.83
-11.22
-11.95
-13.49
-16.13
-19.73
-23.57
-26.39
-26.63
-23.10
-15.54
-4.90
6.87
17.52
25.43
30.17
32.44
33.51
34.40
35.30
35.61
34.36
30.84
25.09
17.97
10.81
4.89
1.07
-0.49
-0.29
0.65
1.02
-0.68
-5.81
-15.14
-28.19
-42.93
-55.97
-63.61
-63.23
-54.47
-39.51
-22.21
-6.46
5.29
12.73
17.19
20.52
23.98
27.82
31.53
34.59
36.96
39.12
41.66
44.74
47.80
49.73
49.27
45.71
39.20
30.83
22.27
15.16
10.48
8.33
7.94
8.05
7.53
5.73
2.69
-1.12
-5.04
-8.60
-11.65
-14.30
-16.69
-18.85
-20.64
-21.90
-22.60
-22.96
-23.44
-24.44
-26.03
-27.84
-29.08
-28.97
-27.08
-23.50
-18.87
-13.96
-9.43
-5.59
-2.43
0.10
2.03
3.20
3.51
3.04
2.15
1.36
1.14
1.68
2.85
4.23
5.42
6.17
6.51
6.71
7.02
7.57
8.30
9.05
