1543604340.00
64.000000
-0.00
-0.00
-0.00
-0.00
-0.00
-0.00
-0.00
-0.00
-0.00
-0.00
0.00
0.01
0.01
-0.00
-0.03
-0.05
-0.05
0.00
0.13
0.36
0.66
1.01
1.37
1.72
2.06
2.40
2.79
3.24
3.80
4.42
5.06
5.66
6.20
6.68
7.15
7.68
8.31
9.14
10.09
11.04
11.88
12.56
13.14
13.76
14.65
15.96
17.91
20.32
22.90
25.38
27.58
29.57
31.68
34.32
37.81
42.54
48.15
54.10
59.83
64.97
69.58
74.14
79.34
85.71
93.76
103.00
112.62
121.73
129.77
136.75
143.30
150.75
157.77
166.64
177.95
191.79
206.97
220.57
228.25
225.36
208.53
176.87
132.76
80.05
23.07
-34.94
-92.44
-149.16
-205.23
-260.37
-313.74
-363.87
-409.83
-450.91
-486.50
-515.74
-537.23
-549.22
-549.96
-538.37
-514.21
-478.67
-433.88
-382.45
-327.02
-269.84
-212.63
-156.66
-102.95
-52.37
-5.90
35.58
71.43
101.35
125.50
144.38
158.69
169.15
176.37
180.75
182.57
182.07
179.51
175.23
169.65
163.18
156.15
148.81
141.30
133.69
126.02
118.33
110.69
103.16
95.80
88.68
81.83
75.25
68.95
62.95
57.25
51.86
46.78
42.03
37.59
33.45
29.61
26.07
22.81
19.83
17.11
14.67
12.48
10.54
8.83
7.35
6.07
4.97
4.05
3.27
2.62
2.09
1.65
1.30
1.01
0.79
0.61
0.47
0.37
0.29
0.23
0.19
0.16
0.14
0.14
0.15
0.16
0.18
0.21
0.24
0.27
0.31
0.36
0.40
0.45
0.49
0.54
0.59
0.65
0.71
0.77
0.84
0.91
0.99
1.08
1.17
1.28
1.40
1.54
1.69
1.85
2.04
2.25
2.48
2.74
3.02
3.33
3.67
4.05
4.45
4.90
5.38
5.90
6.46
7.06
7.71
8.40
9.14
9.92
10.75
11.63
12.55
13.51
14.54
15.63
16.79
18.01
19.28
20.59
21.89
23.12
24.19
25.00
25.44
25.37
24.73
23.39
21.33
18.55
15.11
11.06
6.62
1.96
-2.70
-7.12
-11.14
-14.61
-17.45
-19.65
-21.22
-22.21
-22.69
-22.73
-22.38
-21.73
-20.87
-19.88
-18.86
-17.86
-16.88
-15.95
-15.00
-14.00
-12.91
-11.75
-10.64
-9.67
-8.95
-8.44
-8.19
-8.12
-8.04
-7.89
-7.70
-7.65
-7.96
-8.77
-10.05
-11.89
-14.03
-16.15
-18.00
-19.60
-21.19
-23.13
-25.74
-29.03
-33.25
-38.12
-43.15
-47.95
-52.29
-56.37
-60.76
-66.29
-73.81
-84.50
-98.35
-114.05
-129.27
-141.32
-148.19
-149.32
-145.99
-136.48
-122.30
-105.23
-86.37
-65.77
-42.66
-16.22
13.75
46.40
79.91
111.26
137.93
158.31
171.88
179.16
181.20
179.29
174.55
167.91
159.38
148.69
135.30
118.65
98.73
76.48
54.04
34.12
19.07
9.63
5.07
3.71
3.80
4.32
5.19
6.80
9.38
12.56
15.39
16.98
16.84
14.99
11.72
7.32
2.04
-3.81
-9.75
-15.17
-19.48
-22.30
-23.62
-23.54
-22.17
-19.43
-15.19
-9.47
-2.75
3.98
9.50
12.67
12.80
9.76
4.00
-3.68
-12.36
-21.00
-28.57
-34.03
-36.68
-36.41
-33.92
-30.57
-27.92
-27.00
-27.78
-29.18
-29.48
-27.15
-21.48
-12.80
-2.20
9.00
19.68
29.23
37.44
44.32
49.88
54.08
56.93
58.57
59.31
59.57
59.68
59.67
59.30
58.09
55.70
52.09
47.64
43.08
39.09
35.98
33.50
30.94
27.45
22.46
15.94
8.40
0.67
-6.41
-12.23
-16.51
-19.27
-20.65
-20.90
-20.37
-19.43
-18.56
-18.12
-18.29
-18.94
-19.75
-20.33
-20.51
-20.36
-20.12
-20.01
-20.04
-20.01
-19.61
-18.57
-16.80
-14.42
-11.70
-9.03
-6.88
-5.65
-5.67
-6.94
-9.08
-11.29
-12.59
-12.06
-9.27
-4.50
1.29
6.79
10.73
12.37
11.70
9.34
6.16
2.91
-0.06
-2.74
-5.18
-7.17
-8.25
-7.95
-6.11
-3.17
-0.06
2.19
2.94
2.20
0.56
-1.18
-2.40
-2.93
-3.00
-3.04
-3.37
-4.04
-4.76
-5.14
-4.83
-3.85
-2.57
-1.67
-1.84
-3.46
-6.47
-10.36
-14.40
-17.89
-20.41
-21.88
-22.38
-22.10
-21.15
-19.63
-17.62
-15.31
-12.93
-10.72
-8.92
-7.70
-7.09
-7.00
-7.23
-7.46
-7.42
-6.96
-6.19
-5.50
-5.35
-6.09
-7.67
-9.72
-11.56
-12.64
-12.74
-12.05
-11.10
-10.55
-10.92
-12.51
-15.27
-18.90
-22.85
-26.47
-29.10
-30.32
-29.96
-28.15
-25.21
-21.47
-17.26
-12.83
-8.45
-4.47
-1.21
1.18
2.68
3.52
3.95
4.16
4.17
3.94
3.48
2.88
2.35
2.11
2.25
2.70
3.27
3.84
4.19
4.21
3.68
2.34
-0.00
-3.36
-7.37
-11.37
-14.50
-16.09
-15.83
-13.90
-10.84
-7.34
-4.03
-1.26
0.80
2.21
3.04
3.50
3.80
4.21
4.91
5.97
7.34
8.79
10.02
10.78
10.99
10.72
10.20
9.72
9.50
9.64
10.01
10.36
10.38
9.82
8.58
6.73
4.53
2.28
0.25
-1.43
-2.81
-4.05
-5.36
-6.86
-8.48
-9.91
-10.74
-10.57
-9.28
-7.02
-4.27
-1.55
0.70
2.25
3.12
3.39
3.23
2.72
1.97
1.12
0.40
0.03
0.16
0.78
1.67
2.52
3.05
3.09
2.62
1.76
0.72
-0.23
-0.77
-0.74
-0.13
0.80
1.66
2.04
1.73
0.87
-0.23
-1.17
-1.81
-2.22
-2.66
-3.30
-4.11
-4.83
-5.10
-4.68
-3.56
-1.98
-0.26
1.30
2.59
3.60
4.37
4.94
5.23
5.18
4.80
4.22
3.66
3.38
3.53
4.07
4.85
5.64
6.27
6.66
6.80
6.77
6.64
6.50
6.37
6.29
6.21
6.06
5.75
5.24
4.54
3.66
2.61
1.36
-0.10
-1.69
-3.13
-4.07
-4.13
-3.11
-1.04
1.83
5.11
8.42
11.37
13.73
15.35
16.25
16.59
16.64
16.70
16.98
17.49
18.02
18.33
18.20
17.62
16.78
15.99
15.54
15.54
15.81
16.03
15.82
14.99
13.64
12.03
10.44
9.04
7.73
6.34
4.72
3.02
1.64
1.08
1.73
3.57
6.20
8.95
11.16
12.43
12.79
12.55
12.19
12.05
12.17
12.29
11.98
10.89
8.95
6.41
3.76
1.54
0.09
-0.56
-0.69
-0.71
-0.93
-1.50
-2.32
-3.23
-4.12
-5.07
-6.29
-8.08
-10.60
-13.84
-17.56
-21.29
-24.48
-26.54
-27.08
-26.02
-23.67
-20.67
-17.76
-15.46
-13.91
-12.93
-12.21
-11.63
-11.35
-11.58
-12.32
-13.19
-13.56
-12.88
-11.02
-8.46
-5.91
-4.09
-3.33
-3.55
-4.45
-5.66
-6.93
-8.08
-8.96
-9.50
-9.79
-10.09
-10.78
-12.11
-13.98
-16.00
-17.50
-17.92
-17.05
-15.08
-12.49
-9.81
-7.33
-5.09
-2.93
-0.63
1.90
4.53
6.90
8.69
9.69
9.92
9.60
8.96
8.18
7.24
6.10
4.75
3.28
1.94
0.95
0.45
0.32
0.27
-0.11
-1.17
-3.06
-5.69
-8.76
-11.86
-14.54
-16.47
-17.45
-17.43
-16.52
-14.91
-12.77
-10.28
-7.49
-4.44
-1.16
2.27
5.60
8.55
10.79
12.12
12.46
11.91
10.62
8.84
6.76
4.62
2.60
0.88
-0.43
-1.33
-1.90
-2.24
-2.49
-2.76
-3.19
-3.94
-5.14
-6.92
-9.25
-11.94
-14.73
-17.38
-19.69
-21.57
-22.90
-23.54
-23.27
-21.81
-19.05
-15.07
-10.23
-5.03
0.04
4.68
8.81
12.60
16.26
19.95
23.62
27.00
29.74
31.45
31.96
31.43
30.33
29.29
28.90
29.47
30.97
33.10
35.51
37.96
40.50
43.39
46.97
51.52
57.28
64.17
71.73
78.83
83.74
84.45
79.28
67.56
50.10
29.06
7.31
-12.30
-27.78
-38.25
-43.85
-45.38
-43.89
-40.43
-36.00
-31.53
-27.86
-25.61
-24.94
-25.61
-27.10
-28.80
-30.52
-32.46
-35.13
-38.92
-43.81
-49.34
-54.79
-59.60
-63.59
-66.86
-69.60
-71.78
-73.06
-72.97
-71.10
-67.34
-61.93
-55.34
-48.11
-40.73
-33.55
-26.71
-20.24
-14.11
-8.30
-2.76
2.52
7.53
12.26
16.62
20.40
23.35
25.13
25.56
24.62
22.56
19.85
16.99
14.40
12.27
10.49
8.74
6.63
3.82
0.33
-3.52
-7.08
-9.76
-11.23
-11.60
-11.37
-11.14
-11.37
-12.15
-13.21
-14.12
-14.53
-14.37
-13.79
-13.12
-12.60
-12.22
-11.88
-11.38
-10.77
-10.27
-10.26
-10.97
-12.35
-13.93
-15.01
-14.91
-13.18
-9.78
-4.96
0.81
7.02
13.14
18.71
23.39
27.04
29.71
31.53
32.66
33.12
32.88
31.89
30.25
28.26
26.30
24.71
23.62
22.91
22.40
21.87
21.20
20.38
19.41
18.22
16.75
14.91
12.75
10.35
7.95
5.69
3.68
1.85
0.06
-1.85
-3.94
-6.04
-7.82
-8.84
-8.74
-7.39
-4.92
-1.71
1.87
5.50
9.01
12.26
15.12
17.35
18.71
19.07
18.49
17.25
15.66
14.01
12.39
10.81
9.24
7.76
6.52
5.72
5.55
6.00
7.05
8.56
10.41
12.51
14.75
17.05
19.26
21.23
22.71
23.53
23.57
22.85
21.48
19.62
17.39
14.84
12.00
8.88
5.64
2.54
-0.07
-1.89
-2.83
-2.95
-2.52
-1.80
-1.04
-0.38
0.19
0.76
1.42
2.25
3.14
3.91
4.35
4.35
3.96
3.36
2.76
2.36
2.16
2.14
2.21
2.37
2.61
2.91
3.12
3.06
2.62
1.82
0.86
-0.10
-0.93
-1.75
-2.75
-4.08
-5.72
-7.41
-8.78
-9.53
-9.63
-9.37
-9.32
-10.05
-11.97
-15.06
-18.93
-22.94
-26.37
-28.68
-29.50
-28.67
-26.11
-21.82
-16.01
-9.17
-2.20
3.91
8.31
10.74
11.59
11.71
11.88
12.38
12.87
12.54
10.65
6.92
1.80
-3.75
-8.56
-11.71
-12.75
-11.71
-8.97
-5.10
-0.74
3.49
7.09
9.74
11.34
12.05
12.16
11.88
11.28
10.11
8.01
4.63
-0.20
-6.25
-12.96
-19.51
-25.04
-28.82
-30.35
-29.46
-26.31
-21.27
-14.94
-7.99
-1.19
4.66
8.85
10.94
10.99
9.55
7.56
5.88
5.04
5.01
5.35
5.57
5.45
5.20
5.25
6.01
7.55
9.57
11.57
13.08
13.87
13.97
13.62
13.10
12.71
12.63
12.92
13.55
14.39
15.32
16.28
17.26
18.24
19.09
19.61
19.52
18.61
16.80
14.18
10.94
7.31
3.54
-0.13
-3.36
-5.84
-7.27
-7.59
-6.85
-5.30
-3.29
-1.14
0.84
2.48
3.74
4.72
5.63
6.75
8.25
10.11
12.04
13.51
13.88
12.66
9.65
5.11
-0.32
-5.70
-10.07
-12.66
-13.10
-11.51
-8.43
-4.68
-1.07
1.79
3.62
4.49
4.66
4.39
3.87
3.16
2.36
1.68
1.53
2.44
4.81
8.82
14.25
20.62
27.19
33.31
38.45
42.30
44.69
45.50
44.54
41.59
36.50
29.32
20.36
10.23
-0.38
-10.87
-20.94
-30.54
-39.80
-48.78
-57.29
-64.85
-70.69
-74.04
-74.33
-71.50
-66.14
-59.40
-52.64
-46.98
-42.91
-40.25
-38.29
-36.24
-33.59
-30.12
-25.91
-21.07
-15.63
-9.58
-3.03
3.70
10.13
15.78
20.35
23.70
25.76
26.48
25.72
23.42
19.71
14.97
9.61
4.03
-1.65
-7.48
-13.56
-19.93
-26.57
-33.47
-40.63
-48.00
-55.25
-61.72
-66.43
-68.42
-67.17
-62.85
-56.34
-48.91
-41.87
-36.02
-31.63
-28.35
-25.62
-22.83
-19.65
-16.07
-12.27
-8.54
-5.04
-1.81
1.21
4.20
7.38
10.96
15.09
19.72
24.58
29.14
32.90
35.51
36.97
37.60
37.80
37.95
38.19
38.46
38.61
38.47
37.95
37.06
35.84
34.47
33.11
31.91
30.94
30.11
29.29
28.38
27.44
26.67
26.30
26.48
27.15
27.99
28.48
27.94
25.74
21.43
14.86
6.30
-3.66
-14.21
-24.42
-33.32
-40.04
-43.78
-44.10
-41.00
-35.08
-27.41
-19.24
-11.66
-5.21
0.04
4.28
7.66
10.02
11.04
10.59
9.03
7.37
6.97
8.92
13.49
19.94
26.70
32.12
34.99
35.02
32.61
28.48
23.20
17.00
9.96
2.29
-5.46
-12.51
-18.18
-22.31
-25.28
-27.89
-30.88
-34.43
-37.96
-40.36
-40.46
-37.59
-31.90
-24.30
-16.07
-8.38
-1.87
3.38
7.69
11.46
14.83
17.59
19.30
19.51
18.03
15.06
11.16
7.09
3.59
1.10
-0.27
-0.77
-0.74
-0.51
-0.23
0.00
0.12
-0.00
-0.51
-1.56
-3.12
-4.97
-6.77
-8.15
-8.88
-8.93
-8.50
-7.85
-7.21
-6.67
-6.18
-5.63
-4.98
-4.30
-3.71
-3.23
-2.70
-1.87
-0.43
1.65
4.08
6.33
7.74
7.84
6.55
4.21
1.47
-0.96
-2.55
-3.13
-2.81
-1.98
-1.00
-0.10
0.68
1.44
2.17
2.70
2.70
1.89
0.16
-2.17
-4.54
-6.32
-7.15
-7.21
-7.02
-7.17
-7.88
-8.80
-9.13
-7.95
-4.82
0.02
5.71
11.19
15.59
18.60
20.31
21.11
21.27
20.87
19.86
18.19
15.98
13.50
11.08
8.99
7.33
6.08
5.08
4.28
3.60
3.09
2.76
2.58
2.52
2.56
2.75
3.10
3.58
3.98
4.03
3.45
2.10
0.05
-2.48
-5.19
-7.81
-10.09
-11.86
-12.92
-13.06
-12.12
-10.09
-7.17
-3.66
0.07
3.80
7.45
11.10
14.86
18.72
22.55
26.01
28.79
30.60
31.28
30.81
29.27
26.86
23.85
20.65
17.63
15.12
13.22
11.85
10.74
9.63
8.31
6.62
4.49
1.80
-1.57
-5.68
-10.40
-15.38
-20.06
-23.84
-26.15
-26.66
-25.36
-22.58
-18.92
-15.07
-11.57
-8.65
-6.10
-3.51
-0.48
3.02
6.64
9.76
11.93
13.20
14.13
15.59
18.14
21.74
25.67
28.99
31.03
31.70
31.50
31.13
31.06
31.30
31.50
31.21
30.24
28.68
26.90
25.35
24.35
24.11
24.67
26.07
28.36
31.65
36.05
41.44
47.46
53.46
58.73
62.68
64.94
65.25
63.23
58.37
50.14
38.50
24.26
9.22
-4.36
-14.53
-20.34
-22.12
-21.05
-18.67
-16.22
-14.48
-13.80
-14.19
-15.43
-17.08
-18.54
-19.34
-19.53
-19.92
-22.06
-27.83
-38.87
-56.03
-79.15
-107.13
-138.16
-170.06
-200.60
-227.98
-251.17
-270.08
-285.51
-298.59
-310.02
-319.19
-323.98
-321.05
-306.87
-278.99
-237.11
-183.60
-123.36
-62.76
-8.24
35.25
65.48
83.08
91.02
93.12
92.54
90.91
88.25
83.74
76.65
67.22
56.57
46.29
37.62
31.09
26.46
23.13
20.58
18.47
16.76
15.37
14.14
12.96
11.95
11.64
12.69
15.60
20.19
25.51
30.10
32.64
32.48
29.92
26.17
22.83
21.41
22.99
28.06
36.42
47.30
59.42
71.08
80.63
86.74
88.85
87.32
83.26
78.09
73.10
69.10
66.30
64.51
63.29
62.26
61.15
59.78
58.10
56.13
54.02
52.03
50.34
48.90
47.34
45.07
41.64
37.01
31.61
26.23
21.66
18.41
16.59
15.98
16.20
16.86
17.63
18.32
18.86
19.28
19.77
20.55
21.77
23.37
25.00
26.24
26.71
26.38
25.53
24.65
24.10
23.93
23.83
23.33
22.18
20.50
18.78
17.51
16.94
16.87
16.84
16.46
15.77
15.27
15.67
17.57
20.99
25.41
29.77
32.91
33.83
32.01
27.56
21.10
13.58
5.88
-1.41
-8.20
-14.75
-21.34
-27.99
-34.33
-39.78
-43.73
-45.80
-45.89
-44.07
-40.48
-35.27
-28.56
-20.66
-12.07
-3.40
4.61
11.37
16.44
19.67
21.20
21.44
20.96
20.35
20.05
20.18
20.62
20.98
20.91
20.15
18.69
16.67
14.25
11.50
8.24
4.21
-0.82
-6.82
-13.42
-19.97
-25.67
-29.85
-32.09
-32.42
-31.22
-29.15
-26.97
-25.35
-24.65
-24.72
-24.91
-24.24
-21.75
-16.94
-10.05
-1.92
6.29
13.54
19.24
23.27
25.82
27.11
27.25
26.30
24.32
21.56
18.46
15.53
13.23
11.86
11.61
12.56
14.69
17.81
21.35
24.44
25.92
24.91
21.15
15.31
8.94
3.77
0.89
0.06
-0.34
-2.64
-8.82
-19.45
-33.43
-48.39
-61.75
-71.65
-77.54
-79.91
-79.85
-78.40
-76.31
-74.08
-72.11
-70.68
-69.70
-68.50
-65.92
-60.80
-52.66
-42.19
-31.25
-22.09
-16.50
-15.12
-17.21
-21.14
-24.99
-27.20
-26.89
-23.88
-18.52
-11.49
-3.60
4.53
12.47
20.18
27.74
35.23
42.41
48.82
53.81
56.85
57.65
56.12
52.40
46.83
40.02
32.88
26.57
22.19
20.39
21.12
23.53
26.26
27.94
27.66
25.21
21.15
16.51
12.35
9.49
8.23
8.45
9.70
11.46
13.40
15.46
17.85
20.77
24.27
28.10
31.76
34.74
36.71
37.71
38.07
38.28
38.72
39.52
40.52
41.31
41.46
40.47
37.89
33.26
26.23
16.60
4.67
-8.83
-22.64
-35.30
-45.45
-52.25
-55.61
-55.94
-54.04
-50.61
-46.16
-41.09
-35.76
-30.69
-26.33
-22.84
-19.95
-17.08
-13.78
-10.07
-6.53
-3.84
-2.33
-1.60
-0.79
0.92
3.77
7.22
10.30
12.16
12.55
11.78
10.47
9.05
7.55
5.68
3.21
0.17
-2.96
-5.49
-6.75
-6.35
-4.34
-1.19
2.35
5.56
8.01
9.65
10.79
11.89
13.29
15.03
16.85
18.26
18.81
18.20
16.45
13.90
11.09
8.72
7.46
7.78
9.78
13.01
16.56
19.24
19.99
18.20
13.99
8.06
1.46
-4.85
-10.41
-15.29
-19.90
-24.60
-29.43
-33.96
-37.50
-39.32
-38.95
-36.27
-31.45
-25.00
-17.55
-9.90
-2.87
2.82
6.72
8.78
9.30
8.78
7.74
6.57
5.44
4.46
3.63
2.94
2.31
1.58
0.66
-0.53
-1.84
-2.99
-3.68
-3.80
-3.60
-3.63
-4.56
-6.81
-10.43
-15.03
-20.04
-24.87
-29.09
-32.38
-34.46
-35.13
-34.25
-31.92
-28.46
-24.37
-20.16
-16.15
-12.42
-8.80
-5.13
-1.28
2.61
6.35
9.64
12.25
14.06
15.07
15.37
15.09
14.43
13.53
12.59
11.77
11.15
10.69
10.24
9.61
8.59
7.10
5.09
2.57
-0.35
-3.47
-6.41
-8.81
-10.36
-11.03
-11.00
-10.55
-9.81
-8.69
-6.92
-4.27
-0.82
3.02
6.66
9.70
12.08
14.11
16.28
18.98
22.23
25.62
28.43
29.80
28.99
25.61
19.70
11.79
2.69
-6.61
-15.38
-23.14
-29.77
-35.24
-39.51
-42.43
-43.81
-43.63
-42.11
-39.75
-37.07
-34.55
-32.39
-30.60
-29.09
-27.84
-27.06
-27.07
-28.22
-30.51
-33.48
-36.09
-37.06
-35.21
-29.95
-21.54
-10.98
0.31
11.02
20.30
27.88
33.85
38.42
41.79
44.03
45.24
45.66
45.67
45.65
45.81
46.13
46.30
45.97
44.87
43.03
40.71
38.39
36.54
35.46
35.13
35.26
35.37
35.05
34.08
32.52
30.64
28.85
27.55
27.03
27.40
28.50
29.78
30.41
29.31
25.56
18.70
8.99
-2.67
-15.00
-26.76
-37.04
-45.28
-51.09
-54.14
-54.18
-51.23
-45.84
-39.11
-32.44
-27.02
-23.38
-21.23
-19.67
-17.72
-14.78
-10.86
-6.46
-2.28
1.11
3.45
4.77
5.26
5.11
4.42
3.23
1.50
-0.74
-3.47
-6.57
-9.86
-13.00
-15.57
-17.26
-17.96
-17.91
-17.50
-17.22
-17.37
-17.99
-18.87
-19.64
-20.00
-19.73
-18.83
-17.34
-15.37
-13.01
-10.36
-7.58
-4.85
-2.42
-0.39
1.25
2.80
4.64
7.14
10.39
14.04
17.41
19.72
20.46
19.61
17.69
15.42
13.53
12.39
11.97
12.06
12.34
12.60
12.71
12.60
12.18
11.35
10.05
8.26
6.07
3.58
0.95
-1.60
-3.89
-5.73
-7.10
-8.08
-8.91
-9.74
-10.59
-11.21
-11.21
-10.30
-8.42
-5.90
-3.18
-0.70
1.37
3.08
4.62
6.06
7.32
8.23
8.67
8.70
8.53
8.50
8.77
9.28
9.74
9.76
9.08
7.68
5.77
3.73
1.87
0.33
-0.93
-2.07
-3.27
-4.60
-6.02
-7.45
-8.81
-10.08
-11.27
-12.41
-13.52
-14.72
-16.13
-17.92
-20.08
-22.36
-24.27
-25.22
-24.74
-22.67
-19.30
-15.15
-10.87
-7.01
-3.92
-1.71
-0.27
0.75
1.77
3.23
5.33
7.98
10.75
13.09
14.51
14.81
14.09
12.64
10.82
8.94
7.25
6.01
5.49
5.94
7.46
9.88
12.82
15.67
17.74
18.45
17.53
15.16
11.86
8.32
5.03
2.17
-0.47
-3.21
-6.23
-9.36
-12.16
-14.09
-14.83
-14.42
-13.20
-11.66
-10.11
-8.70
-7.34
-5.88
-4.24
-2.56
-1.12
-0.25
-0.12
-0.66
-1.52
-2.26
-2.50
-2.08
-1.07
0.33
1.86
3.27
4.34
4.99
5.17
5.01
4.59
4.01
3.20
2.02
0.38
-1.69
-3.97
-6.07
-7.70
-8.81
-9.63
-10.57
-11.99
-13.98
-16.27
-18.39
-19.85
-20.35
-19.82
-18.32
-15.99
-12.89
-9.07
-4.67
0.01
4.55
8.55
11.71
14.00
15.50
16.39
16.74
16.55
15.87
14.78
13.43
12.00
10.60
9.27
8.05
6.97
6.08
5.37
4.72
3.95
2.91
1.55
-0.00
-1.49
-2.79
-3.95
-5.20
-6.87
-9.15
-12.03
-15.21
-18.27
-20.74
-22.20
-22.38
-21.17
-18.72
-15.34
-11.54
-7.85
-4.66
-2.16
-0.32
0.99
1.91
2.46
2.73
2.80
2.89
3.20
3.82
4.63
5.31
5.58
5.29
4.55
3.68
3.02
2.81
3.11
3.78
4.49
4.88
4.58
3.45
1.58
-0.67
-2.89
-4.76
-6.30
-7.77
-9.49
-11.64
-14.17
-16.84
-19.39
-21.56
-23.09
-23.68
-23.05
-21.07
-17.89
-14.01
-10.04
-6.49
-3.57
-1.17
0.99
3.11
5.20
7.14
8.81
10.17
11.29
12.24
13.13
14.00
14.87
15.82
16.81
17.82
18.74
19.37
19.55
19.17
18.27
17.03
15.79
14.86
14.51
14.77
15.40
16.01
16.10
15.36
13.70
11.29
8.42
5.32
1.99
-1.81
-6.35
-11.76
-17.75
-23.70
-28.67
-31.84
-32.69
-31.29
-28.23
-24.43
-20.77
-17.79
-15.58
-13.89
-12.31
-10.55
-8.57
-6.55
-4.64
-2.94
-1.41
0.01
1.35
2.51
3.36
3.81
3.91
3.91
4.00
4.29
4.65
4.77
4.31
3.07
1.11
-1.34
-3.99
-6.67
-9.23
-11.66
-13.81
-15.51
-16.67
-17.29
-17.60
-17.85
-18.18
-18.50
-18.51
-17.90
-16.51
-14.41
-11.78
-8.78
-5.44
-1.75
2.20
6.16
9.77
12.67
14.70
15.97
16.68
17.05
17.08
16.59
15.31
13.06
9.82
5.78
1.29
-3.24
-7.35
-10.65
-12.84
-13.82
-13.73
-12.96
-12.04
-11.42
-11.35
-11.82
-12.55
-13.23
-13.65
-13.86
-14.13
-14.78
-15.97
-17.51
-18.80
-18.96
-17.26
-13.31
-7.39
-0.34
6.71
12.69
16.93
19.27
19.98
19.49
18.24
16.44
14.24
11.81
9.48
7.67
6.75
6.83
7.62
8.59
9.15
8.99
8.18
7.25
6.79
7.32
9.04
11.76
15.14
18.68
21.96
24.57
26.10
26.12
24.29
20.45
14.75
7.81
0.49
-6.32
-12.06
-16.67
-20.57
-24.33
-28.38
-32.66
-36.59
-39.31
-39.96
-38.08
-33.70
-27.38
-20.03
-12.57
-5.82
-0.10
4.67
8.91
13.13
17.59
22.18
26.45
29.87
32.05
32.86
32.30
30.48
27.46
23.39
18.60
13.69
9.47
6.60
5.36
5.43
5.99
6.10
5.01
2.47
-1.29
-5.64
-9.83
-13.18
-15.25
-15.92
-15.40
-14.30
-13.38
-13.39
-14.75
-17.34
-20.41
-22.84
-23.59
-22.04
-18.35
-13.26
-7.84
-3.06
0.54
2.84
4.07
4.59
4.83
5.09
5.58
6.31
7.16
7.93
8.48
8.79
9.01
9.36
9.97
10.92
12.16
13.66
15.40
17.23
18.92
19.96
19.87
18.31
15.43
11.80
8.23
5.45
3.76
2.86
1.99
0.22
-3.14
-8.21
-14.40
-20.63
-25.59
-28.26
-28.15
-25.43
-20.78
-15.06
-9.07
-3.28
2.09
7.07
11.69
16.00
19.84
23.06
25.46
26.95
27.63
27.70
27.47
27.10
26.68
26.13
25.37
24.38
23.29
22.22
21.21
20.11
18.53
16.08
12.56
8.13
3.34
-1.02
-4.31
-6.31
-7.26
-7.86
-8.83
-10.72
-13.78
-18.01
-23.24
-29.24
-35.67
-41.94
-47.26
-50.66
-51.24
-48.51
-42.45
-33.56
-22.72
-11.03
0.45
10.75
19.23
25.57
29.77
32.15
33.04
32.66
31.13
28.56
25.18
21.45
18.04
15.52
14.22
14.07
14.69
15.68
16.76
17.78
18.71
19.41
19.62
19.08
17.65
15.45
12.84
10.26
7.99
6.18
4.76
3.58
2.48
1.28
-0.26
-2.45
-5.61
-9.94
-15.41
-21.71
-28.21
-34.01
-38.21
-40.01
-39.04
-35.38
-29.61
-22.53
-15.00
-7.70
-0.98
5.05
10.57
15.76
20.78
25.62
30.10
33.94
36.86
38.77
39.72
39.98
39.87
39.62
39.26
38.62
37.31
34.93
31.14
25.91
19.53
12.55
5.66
-0.59
-5.85
-10.08
-13.39
-15.87
-17.56
-18.45
-18.56
-18.01
-17.08
-16.06
-15.24
-14.89
-15.15
-16.14
-17.82
-20.03
-22.44
-24.56
-25.82
-25.68
-23.73
-19.75
-13.84
-6.43
1.78
9.89
17.02
22.42
25.61
26.49
25.29
22.51
18.82
14.86
11.19
8.14
5.87
4.43
3.85
4.23
5.68
8.20
11.60
15.41
18.94
21.43
22.28
21.27
18.62
14.94
11.03
7.56
4.88
2.90
1.18
-0.93
-3.98
-8.29
-13.75
-19.80
-25.56
-30.09
-32.62
-32.81
-30.75
-26.92
-21.90
-16.25
-10.47
-4.97
-0.18
3.58
6.14
7.63
8.44
9.06
9.85
10.86
11.90
12.75
13.34
13.88
14.65
15.81
17.31
18.84
20.05
20.72
20.84
20.50
19.78
18.59
16.72
13.98
10.34
6.03
1.46
-2.93
-6.83
-10.12
-12.90
-15.38
-17.84
-20.56
-23.68
-27.09
-30.40
-33.00
-34.29
-33.86
-31.69
-28.01
-23.27
-17.92
-12.27
-6.59
-1.09
4.04
8.66
12.70
16.18
19.19
21.68
23.54
24.58
24.72
24.04
22.81
21.42
20.19
19.28
18.60
17.84
16.63
14.76
12.27
9.46
6.68
4.17
1.88
-0.42
-3.00
-5.96
-9.01
-11.72
-13.66
-14.67
-14.97
-15.02
-15.39
-16.55
-18.73
-21.92
-25.83
-29.93
-33.53
-36.00
-36.90
-36.10
-33.77
-30.21
-25.74
-20.62
-15.12
-9.56
-4.43
-0.17
2.90
4.74
5.60
5.87
5.94
6.05
6.31
6.70
7.25
8.04
9.13
10.52
12.06
13.59
14.87
15.84
16.59
17.28
17.93
18.38
18.30
17.22
14.83
11.05
6.14
0.56
-5.10
-10.23
-14.33
-17.07
-18.47
-18.89
-19.04
-19.69
-21.28
-23.73
-26.35
-28.12
-28.19
-26.30
-22.74
-18.15
-13.23
-8.31
-3.51
1.13
5.33
8.68
10.81
11.79
12.09
12.41
13.28
14.63
15.90
16.31
15.42
13.29
10.52
7.91
6.02
5.05
4.69
4.42
3.64
1.95
-0.72
-4.08
-7.59
-10.69
-12.94
-14.25
-14.81
-14.98
-15.17
-15.70
-16.72
-18.13
-19.62
-20.66
-20.68
-19.15
-15.90
-11.10
-5.27
0.87
6.68
11.67
15.66
18.68
20.85
22.29
23.01
22.97
22.14
20.57
18.43
15.93
13.14
10.06
6.56
2.60
-1.62
-5.63
-8.80
-10.64
-10.95
-9.99
-8.27
-6.36
-4.60
-3.11
-1.88
-0.92
-0.37
-0.45
-1.30
-2.81
-4.69
-6.59
-8.29
-9.78
-11.16
-12.57
-13.96
-15.16
-15.88
-15.94
-15.23
-13.79
-11.76
-9.29
-6.59
-3.92
-1.43
0.80
2.88
5.06
7.63
10.68
14.06
17.27
19.73
20.91
20.55
18.78
16.04
12.91
9.94
7.49
5.62
4.16
2.88
1.68
0.62
-0.02
0.01
0.73
1.73
2.27
1.56
-0.75
-4.36
-8.43
-11.98
-14.44
-15.88
-16.90
-18.15
-19.89
-21.78
-23.14
-23.43
-22.58
-20.99
-19.18
-17.41
-15.53
-13.04
-9.59
-5.20
-0.40
4.00
7.28
9.13
9.76
9.60
9.08
8.37
7.33
5.76
3.52
0.68
-2.49
-5.60
-8.31
-10.34
-11.62
-12.20
-12.25
-12.03
-11.73
-11.55
-11.61
-11.98
-12.62
-13.48
-14.42
-15.17
-15.39
-14.85
-13.55
-11.76
-10.00
-8.80
-8.52
-9.19
-10.47
-11.89
-12.86
-12.97
-11.98
-9.87
-6.71
-2.77
1.54
5.74
9.34
12.02
13.66
14.45
14.76
14.97
15.35
15.89
16.45
16.74
16.57
15.97
15.12
14.31
13.78
13.70
13.96
14.31
14.47
14.17
13.43
12.41
11.36
10.35
9.29
7.92
6.02
3.59
0.84
-1.91
-4.49
-6.94
-9.53
-12.55
-16.05
-19.72
-22.92
-24.95
-25.29
-23.87
-21.07
-17.57
-14.06
-11.00
-8.39
-5.92
-3.11
0.37
4.51
8.88
12.83
15.76
17.36
17.74
17.29
16.50
15.70
14.88
13.77
12.04
9.55
6.52
3.52
1.15
-0.24
-0.74
-0.85
-1.13
-1.97
-3.32
-4.78
-5.94
-6.51
-6.57
-6.40
-6.31
-6.39
-6.46
-6.22
-5.43
-4.11
-2.62
-1.51
-1.34
-2.40
-4.57
-7.24
-9.51
-10.47
-9.55
-6.75
-2.71
1.62
5.32
7.90
9.37
10.05
10.38
10.59
10.67
10.43
9.67
8.47
7.06
5.92
5.39
5.65
6.60
7.97
9.41
10.70
11.66
12.21
12.31
11.83
10.75
9.03
6.82
4.45
2.25
0.51
-0.75
-1.69
-2.67
-3.96
-5.83
-8.39
-11.63
-15.46
-19.73
-24.12
-28.18
-31.36
-33.10
-33.10
-31.41
-28.44
-24.73
-20.75
-16.77
-12.83
-8.96
-5.26
-2.03
0.45
1.98
2.71
3.06
3.57
4.69
6.52
8.83
11.19
13.12
14.28
14.64
14.50
14.29
14.43
15.01
15.74
16.04
15.41
13.64
10.95
7.84
4.90
2.48
0.60
-0.88
-2.32
-4.03
-6.41
-9.81
-14.33
-19.61
-24.78
-28.64
-30.12
-28.68
-24.58
-18.63
-11.81
-4.85
1.91
8.31
14.15
19.03
22.46
24.13
24.20
23.26
22.09
21.34
21.30
21.88
22.77
23.57
24.05
24.14
23.89
23.48
22.91
22.14
20.98
19.22
16.76
13.78
10.56
7.45
4.61
2.00
-0.58
-3.32
-6.28
-9.43
-12.66
-15.98
-19.47
-23.25
-27.35
-31.52
-35.27
-37.88
-38.68
-37.18
-33.25
-27.21
-19.73
-11.72
-4.04
2.59
7.69
11.08
12.86
13.34
12.95
12.14
11.21
10.33
9.53
8.84
8.35
8.19
8.34
8.62
8.77
8.57
8.06
7.51
7.27
7.44
7.72
7.54
6.33
3.88
0.47
-3.27
-6.67
-9.33
-11.27
-12.82
-14.43
-16.46
-19.05
-22.18
-25.77
-29.64
-33.58
-37.23
-40.14
-41.76
-41.64
-39.45
-35.19
-29.17
-21.97
-14.43
-7.39
-1.58
2.66
5.36
6.93
7.92
8.84
9.89
10.93
11.66
11.74
11.07
9.89
8.62
7.69
7.40
7.73
8.40
9.06
9.33
8.97
7.98
6.57
5.17
4.19
3.88
4.13
4.52
4.40
3.23
0.79
-2.79
-7.12
-11.73
-16.13
-19.94
-22.65
-23.71
-22.57
-19.01
-13.32
-6.28
1.01
7.62
12.98
16.96
19.81
21.90
23.61
25.17
26.71
28.21
29.62
30.79
31.64
32.13
32.31
32.36
32.41
32.55
32.71
32.65
32.20
31.28
30.04
28.66
27.33
26.03
24.57
22.56
19.66
15.66
10.61
4.87
-1.06
-6.60
-11.40
-15.39
-18.94
-22.66
-27.14
-32.55
-38.41
-43.65
-46.90
-47.15
-44.00
-37.84
-29.59
-20.32
-10.90
-1.86
6.52
14.06
20.50
25.58
29.17
31.33
32.29
32.42
32.12
31.62
31.02
30.22
29.07
27.43
25.27
22.74
20.20
18.10
16.75
16.18
16.11
16.06
15.56
14.31
12.26
9.54
6.37
2.95
-0.52
-3.84
-6.84
-9.32
-11.17
-12.40
-13.17
-13.77
-14.63
-16.11
-18.35
-21.23
-24.28
-26.74
-27.88
-27.23
-24.69
-20.59
-15.43
-9.75
-3.96
1.63
6.75
11.24
14.95
17.84
19.88
21.10
21.48
21.07
20.05
18.79
17.72
17.17
17.24
17.78
18.55
19.34
20.05
20.70
21.20
21.31
20.65
18.95
16.09
12.34
8.14
3.98
0.24
-3.05
-5.96
-8.79
-11.76
-15.05
-18.79
-23.06
-27.91
-33.19
-38.55
-43.26
-46.52
-47.54
-45.81
-41.36
-34.57
-26.23
-17.13
-8.08
0.43
8.04
14.54
19.88
24.03
27.01
28.91
29.80
29.78
28.94
27.36
25.07
22.17
18.77
15.18
11.75
8.85
6.73
5.34
4.32
3.15
1.37
-1.29
-4.70
-8.59
-12.52
-16.13
-19.16
-21.57
-23.49
-25.25
-27.34
-30.13
-33.77
-37.85
-41.43
-43.28
-42.34
-38.15
-31.09
-22.30
-13.19
-4.96
1.69
6.63
10.15
12.69
14.68
16.49
18.37
20.44
22.65
24.81
26.68
28.07
28.92
29.34
29.52
29.60
29.63
29.52
29.11
28.30
26.99
25.15
22.81
20.00
16.77
13.23
9.48
5.63
1.72
-2.18
-6.05
-9.88
-13.78
-18.03
-22.89
-28.53
-34.76
-40.95
-46.04
-48.84
-48.51
-44.80
-38.26
-29.98
-21.21
-12.88
-5.40
1.34
7.66
13.69
19.37
24.34
28.30
31.12
32.98
34.27
35.32
36.28
36.96
37.05
36.15
34.10
30.98
27.20
23.37
20.01
17.49
15.68
14.08
11.90
8.50
3.68
-2.20
-8.25
-13.41
-16.93
-18.52
-18.46
-17.42
-16.16
-15.38
-15.63
-17.24
-20.24
-24.22
-28.32
-31.30
-31.95
-29.42
-23.64
-15.40
-6.03
2.94
10.37
15.73
19.12
21.14
22.44
23.52
24.47
25.09
24.90
23.56
20.93
17.28
13.24
9.64
7.15
6.07
6.27
7.20
8.25
8.93
9.00
8.43
7.20
5.24
2.35
-1.48
-6.12
-11.04
-15.66
-19.53
-22.57
-25.16
-27.82
-31.05
-34.95
-39.15
-42.97
-45.60
-46.33
-44.76
-40.85
-34.90
-27.52
-19.43
-11.33
-3.77
2.87
8.40
12.68
15.56
16.92
16.72
15.20
12.91
10.63
9.13
8.86
9.83
11.60
13.58
15.30
16.53
17.23
17.40
16.96
15.70
13.53
10.47
6.81
2.90
-0.94
-4.50
-7.76
-10.79
-13.80
-17.07
-20.89
-25.39
-30.32
-34.89
-37.96
-38.47
-35.86
-30.34
-22.73
-14.20
-5.73
2.06
8.93
14.83
19.70
23.41
25.80
26.82
26.61
25.51
24.00
22.51
21.37
20.60
20.02
19.35
18.42
17.27
16.14
15.31
14.78
14.26
13.25
11.39
8.64
5.31
1.93
-1.12
-3.72
-6.06
-8.42
-11.04
-14.13
-17.83
-22.27
-27.37
-32.72
-37.43
-40.40
-40.69
-38.02
-32.84
-26.18
-19.10
-12.33
-6.14
-0.47
4.63
8.96
12.15
13.88
14.24
13.69
12.98
12.73
13.26
14.36
15.50
16.09
15.77
14.57
12.84
11.13
9.95
9.62
10.17
11.41
12.96
14.46
15.60
16.22
16.31
15.83
14.81
13.16
10.86
7.83
4.07
-0.38
-5.51
-11.29
-17.57
-23.89
-29.51
-33.45
-34.83
-33.25
-28.92
-22.62
-15.47
-8.55
-2.62
1.93
5.10
7.21
8.65
9.85
11.06
12.39
13.72
14.92
15.90
16.71
17.47
18.29
19.14
19.89
20.34
20.33
19.85
18.99
17.87
16.52
14.85
12.72
9.99
6.72
3.10
-0.50
-3.78
-6.57
-9.03
-11.49
-14.30
-17.74
-21.84
-26.40
-31.07
-35.42
-38.96
-41.19
-41.63
-39.95
-36.17
-30.68
-24.29
-17.91
-12.22
-7.43
-3.36
0.37
3.99
7.36
10.06
11.67
11.97
11.14
9.67
8.08
6.73
5.78
5.12
4.69
4.47
4.65
5.42
6.87
8.83
10.79
12.06
11.98
10.33
7.49
4.24
1.41
-0.63
-2.09
-3.67
-6.09
-9.73
-14.40
-19.54
-24.46
-28.60
-31.59
-33.17
-33.13
-31.36
-27.86
-22.98
-17.23
-11.18
-5.25
0.40
5.86
11.28
16.77
22.21
27.26
31.43
34.28
35.67
35.81
35.20
34.36
33.67
33.24
32.97
32.59
31.87
30.59
28.51
25.43
21.29
16.26
10.75
5.17
-0.21
-5.48
-10.98
-16.93
-23.13
-28.93
-33.40
-35.84
-36.14
-34.90
-33.19
-32.09
-32.22
-33.53
-35.25
-36.28
-35.51
-32.27
-26.46
-18.67
-9.91
-1.30
6.24
12.14
16.21
18.59
19.53
19.34
18.32
16.86
15.33
14.04
13.15
12.58
12.09
11.26
9.78
7.51
4.62
1.62
-0.82
-2.12
-2.07
-0.99
0.37
1.18
0.89
-0.45
-2.30
-3.90
-4.63
-4.36
-3.40
-2.42
-2.03
-2.65
-4.44
-7.37
-11.32
-16.17
-21.68
-27.40
-32.62
-36.40
-37.85
-36.35
-31.79
-24.57
-15.47
-5.51
4.26
12.87
19.61
24.11
26.44
27.06
26.64
25.84
25.07
24.46
23.96
23.54
23.28
23.31
23.67
24.17
24.46
24.18
23.19
21.60
19.74
17.89
16.22
14.69
13.05
11.05
8.47
5.27
1.61
-2.23
-5.91
-9.16
-11.91
-14.31
-16.80
-19.87
-23.91
-28.94
-34.56
-39.97
-44.32
-46.90
-47.32
-45.53
-41.74
-36.30
-29.70
-22.55
-15.49
-9.13
-3.95
-0.10
2.56
4.41
5.92
7.42
8.99
10.51
11.64
12.10
11.77
10.77
9.56
8.76
8.97
10.53
13.41
17.16
20.96
23.86
25.04
24.17
21.42
17.46
13.07
8.83
4.86
0.90
-3.41
-8.37
-13.96
-19.87
-25.58
-30.42
-33.65
-34.62
-32.94
-28.72
-22.65
-15.81
-9.38
-4.11
-0.26
2.43
4.52
6.45
8.48
10.58
12.57
14.28
15.64
16.69
17.55
18.35
19.11
19.69
19.73
18.80
16.64
13.32
9.32
5.43
2.44
0.71
0.12
-0.01
-0.46
-1.81
-4.12
-6.92
-9.51
-11.34
-12.31
-12.71
-13.13
-14.14
-16.09
-18.96
-22.47
-26.02
-28.87
-30.24
-29.48
-26.39
-21.23
-14.68
-7.65
-1.00
4.71
9.24
12.57
14.80
15.95
16.07
15.29
13.88
12.29
11.06
10.59
10.99
12.04
13.23
13.94
13.77
12.74
11.36
10.31
10.25
11.35
13.26
15.16
16.20
15.77
13.82
10.82
7.43
4.23
1.37
-1.39
-4.44
-8.10
-12.39
-17.10
-21.93
-26.71
-31.45
-36.11
-40.37
-43.53
-44.58
-42.70
-37.70
-30.20
-21.48
-12.88
-5.30
1.08
6.79
12.47
18.41
24.30
29.39
32.80
34.02
33.05
30.43
26.91
23.20
19.77
16.77
14.05
11.36
8.52
5.45
2.34
-0.48
-2.69
-4.15
-4.98
-5.48
-6.04
-6.96
-8.33
-9.99
-11.61
-12.90
-13.68
-14.14
-14.78
-16.20
-18.79
-22.37
-26.19
-29.12
-30.10
-28.49
-24.30
-18.11
-10.76
-3.11
4.17
10.68
16.20
20.58
23.74
25.59
26.18
25.72
24.64
23.50
22.70
22.38
22.21
21.65
20.20
17.78
14.81
12.02
10.06
9.12
8.98
9.12
9.12
8.77
8.11
7.15
5.81
3.93
1.31
-1.98
-5.63
-9.17
-12.22
-14.72
-16.85
-19.00
-21.57
-24.87
-28.94
-33.63
-38.40
-42.36
-44.39
-43.44
-39.06
-31.62
-22.33
-12.77
-4.34
2.29
7.29
11.39
15.39
19.67
24.05
27.95
30.78
32.20
32.30
31.50
30.32
29.11
27.93
26.69
25.27
23.63
21.91
20.29
18.84
17.43
15.86
13.91
11.61
9.21
7.00
5.21
3.83
2.63
1.35
-0.18
-2.00
-3.96
-5.96
-7.95
-10.09
-12.68
-16.05
-20.32
-25.32
-30.51
-34.99
-37.79
-38.16
-35.84
-31.16
-24.93
-18.15
-11.66
-5.98
-1.31
2.33
4.95
6.55
7.19
7.08
6.58
6.16
6.25
7.11
8.78
11.21
14.29
17.97
22.12
26.54
30.83
34.41
36.76
37.51
36.62
34.38
31.25
27.66
23.84
19.86
15.60
10.95
5.89
0.55
-4.94
-10.48
-16.12
-22.11
-28.68
-35.94
-43.61
-51.09
-57.40
-61.55
-62.83
-60.97
-56.23
-49.15
-40.32
-30.22
-19.22
-7.78
3.45
13.62
21.87
27.68
31.08
32.58
33.00
33.02
32.95
32.74
32.15
31.04
29.51
27.82
26.20
24.65
23.06
21.22
19.06
16.69
14.29
12.02
9.91
7.87
5.79
3.57
1.17
-1.41
-4.22
-7.30
-10.58
-13.79
-16.51
-18.30
-18.89
-18.42
-17.31
-16.19
-15.65
-15.99
-17.06
-18.33
-19.17
-19.04
-17.80
-15.62
-12.94
-10.15
-7.47
-4.91
-2.37
0.17
2.55
4.50
5.77
6.32
6.42
6.54
7.11
8.43
10.50
13.07
15.74
18.14
19.99
21.21
21.88
22.17
22.21
21.99
21.42
20.29
18.43
15.80
12.40
8.41
4.00
-0.54
-4.88
-8.68
-11.79
-14.32
-16.68
-19.43
-22.87
-26.85
-30.59
-33.03
-33.14
-30.44
-25.14
-18.04
-10.24
-2.68
3.96
9.39
13.59
16.60
18.46
19.20
18.94
17.95
16.72
15.71
15.23
15.31
15.58
15.61
15.01
13.73
12.01
10.29
8.94
8.14
7.80
7.68
7.49
6.95
5.88
4.15
1.86
-0.80
-3.46
-5.73
-7.35
-8.40
-9.24
-10.44
-12.58
-16.00
-20.69
-26.12
-31.36
-35.32
-36.98
-35.78
-31.75
-25.50
-17.99
-10.19
-2.85
3.64
9.09
13.47
16.74
18.91
20.10
20.51
20.46
20.23
20.04
20.00
20.16
20.48
20.87
21.12
21.02
20.45
19.48
18.36
17.38
16.70
16.18
15.55
14.49
12.89
10.90
8.79
6.81
4.97
3.00
0.46
-3.08
-7.84
-13.83
-20.79
-28.26
-35.62
-42.06
-46.70
-48.63
-47.15
-42.00
-33.50
-22.55
-10.57
0.95
10.75
18.15
23.15
26.29
28.32
29.85
31.11
31.93
32.07
31.40
30.08
28.57
27.31
26.51
26.00
25.30
23.92
21.59
18.32
14.40
10.18
5.88
1.63
-2.57
-6.66
-10.60
-14.21
-17.33
-19.94
-22.16
-24.26
-26.56
-29.19
-31.89
-34.02
-34.61
-32.79
-28.19
-21.12
-12.63
-4.07
3.29
8.65
11.78
12.84
12.14
9.93
6.49
2.21
-2.22
-6.01
-8.42
-9.08
-8.12
-6.03
-3.38
-0.62
1.99
4.26
5.93
6.70
6.40
5.20
3.61
2.25
1.42
0.89
-0.09
-2.32
-6.17
-11.32
-16.86
-21.72
-25.12
-26.74
-26.67
-25.05
-21.91
-17.13
-10.74
-3.11
5.05
12.86
19.59
24.91
28.86
31.66
33.52
34.56
34.88
34.69
34.28
33.97
33.95
34.10
34.06
33.33
31.50
28.38
24.07
18.98
13.75
8.99
5.21
2.57
0.83
-0.60
-2.49
-5.55
-10.17
-16.29
-23.40
-30.64
-36.90
-41.19
-42.85
-41.88
-38.89
-34.89
-30.92
-27.72
-25.53
-24.15
-23.16
-22.16
-20.88
-19.24
-17.27
-15.09
-12.85
-10.73
-8.87
-7.43
-6.45
-5.92
-5.74
-5.81
-6.02
-6.30
-6.68
-7.35
-8.61
-10.78
-14.07
-18.44
-23.60
-29.14
-34.59
-39.52
-43.44
-45.83
-46.02
-43.46
-37.92
-29.76
-19.95
-9.79
-0.54
6.89
12.22
15.74
18.11
19.97
21.84
23.85
25.91
27.73
29.05
29.70
29.64
28.96
27.80
26.43
25.06
23.88
22.99
22.30
21.64
20.72
19.31
17.28
14.69
11.65
8.42
5.14
2.01
-0.90
-3.59
-6.25
-9.16
-12.57
-16.61
-20.99
-24.98
-27.53
-27.59
-24.55
-18.55
-10.56
-2.04
5.46
10.89
14.02
15.38
15.96
16.65
17.95
19.78
21.71
23.30
24.30
24.75
24.89
24.88
24.70
24.23
23.27
21.89
20.39
19.27
18.93
19.40
20.33
21.03
20.85
19.43
16.88
13.75
10.73
8.32
6.60
5.28
3.87
2.01
-0.42
-3.23
-6.18
-9.04
-11.73
-14.32
-16.93
-19.75
-22.92
-26.53
-30.36
-33.83
-36.02
-35.98
-33.17
-27.77
-20.70
-13.24
-6.56
-1.13
3.19
6.88
10.33
13.54
16.25
18.11
18.98
19.01
18.58
18.09
17.87
18.16
18.98
20.26
21.78
23.18
24.13
24.39
23.95
22.97
21.78
20.57
19.52
18.68
18.03
17.58
17.23
16.77
15.91
14.37
11.96
8.75
4.99
1.01
-2.84
-6.43
-9.80
-13.20
-16.91
-21.09
-25.61
-29.94
-33.33
-35.01
-34.56
-32.04
-28.02
-23.40
-19.02
-15.46
-12.89
-11.18
-10.05
-9.24
-8.60
-8.06
-7.64
-7.35
-7.16
-7.00
-6.78
-6.38
-5.73
-4.75
-3.45
-1.90
-0.25
1.38
2.80
3.89
4.54
4.66
4.17
3.07
1.48
-0.29
-1.83
-2.76
-3.00
-2.83
-2.92
-3.90
-6.14
-9.51
-13.44
-17.24
-20.32
-22.37
-23.18
-22.62
-20.49
-16.64
-11.18
-4.58
2.38
8.85
14.13
17.86
19.97
20.65
20.24
19.21
18.09
17.30
17.02
17.09
17.22
17.08
16.60
15.93
15.30
14.80
14.32
13.66
12.69
11.52
10.49
9.86
9.70
9.77
9.62
8.92
7.45
5.25
2.45
-0.73
-4.07
-7.31
-10.19
-12.53
-14.37
-16.00
-17.88
-20.38
-23.45
-26.57
-28.87
-29.48
-27.95
-24.39
-19.44
-13.85
-8.31
-3.18
1.28
4.88
7.35
8.50
8.44
7.67
6.96
6.98
8.02
9.78
11.59
12.76
12.98
12.40
11.51
10.85
10.68
10.91
11.18
11.12
10.53
9.46
8.14
6.82
5.62
4.41
2.97
1.04
-1.43
-4.28
-7.16
-9.62
-11.36
-12.30
-12.71
-13.00
-13.62
-14.86
-16.77
-19.18
-21.72
-23.99
-25.55
-26.03
-25.12
-22.69
-18.83
-13.86
-8.34
-2.87
1.98
5.87
8.68
10.49
11.44
11.73
11.55
11.02
10.28
9.40
8.49
7.67
7.13
7.08
7.70
8.97
10.63
12.25
13.36
13.75
13.49
12.83
12.06
11.29
10.43
9.25
7.64
5.63
3.40
1.22
-0.77
-2.61
-4.40
-6.26
-8.31
-10.58
-13.09
-15.92
-19.01
-22.19
-25.03
-26.98
-27.45
-26.11
-22.99
-18.55
-13.54
-8.67
-4.48
-1.11
1.43
3.23
4.27
4.50
4.00
3.02
1.98
1.26
1.02
1.11
1.15
0.85
0.10
-0.87
-1.73
-2.11
-1.85
-1.03
0.05
0.97
1.35
0.91
-0.38
-2.33
-4.53
-6.62
-8.33
-9.69
-10.85
-12.12
-13.73
-15.79
-18.19
-20.58
-22.51
-23.42
-22.91
-20.75
-17.01
-12.07
-6.49
-0.89
4.23
8.53
11.89
14.33
15.93
16.82
17.08
16.86
16.20
15.25
14.12
13.01
12.07
11.39
10.98
10.72
10.48
10.14
9.67
9.11
8.53
7.89
7.11
6.04
4.51
2.58
0.39
-1.77
-3.67
-5.24
-6.69
-8.42
-10.86
-14.29
-18.68
-23.68
-28.65
-32.80
-35.42
-35.98
-34.40
-30.91
-26.14
-20.80
-15.54
-10.69
-6.29
-2.20
1.68
5.27
8.28
10.37
11.52
11.88
11.85
11.84
11.99
12.22
12.35
12.19
11.75
11.16
10.56
10.07
9.73
9.46
9.16
8.66
7.73
6.23
4.12
1.54
-1.30
-4.08
-6.67
-9.10
-11.53
-14.19
-17.19
-20.47
-23.89
-27.27
-30.39
-33.10
-35.09
-35.96
-35.31
-32.83
-28.56
-22.89
-16.49
-10.16
-4.49
0.26
4.12
7.31
10.03
12.39
14.39
16.02
17.30
18.30
19.11
19.78
20.26
20.51
20.47
20.13
19.49
18.67
17.78
16.98
16.43
16.20
16.26
16.40
16.23
15.34
13.40
10.45
6.88
3.36
0.49
-1.48
-2.78
-4.02
-5.88
-8.84
-12.90
-17.68
-22.51
-26.74
-29.81
-31.45
-31.54
-30.14
-27.39
-23.46
-18.58
-13.02
-7.18
-1.58
3.20
6.68
8.69
9.42
9.36
9.07
8.96
9.13
9.48
9.82
10.04
10.19
10.45
11.01
11.95
13.22
14.52
15.50
15.79
15.19
13.74
11.62
9.16
6.58
4.05
1.54
-0.98
-3.56
-6.16
-8.71
-11.23
-13.79
-16.53
-19.40
-22.15
-24.17
-24.73
-23.21
-19.36
-13.54
-6.57
0.48
6.74
11.75
15.57
18.55
21.03
23.18
24.82
25.77
25.90
25.39
24.56
23.71
22.99
22.28
21.41
20.23
18.82
17.33
15.98
14.87
13.92
13.01
11.96
10.62
8.87
6.65
3.95
0.88
-2.29
-5.24
-7.71
-9.65
-11.23
-12.87
-14.96
-17.80
-21.47
-25.78
-30.36
-34.64
-37.94
-39.49
-38.67
-35.19
-29.28
-21.72
-13.61
-5.99
0.42
5.34
8.96
11.65
13.79
15.66
17.40
19.11
20.84
22.57
24.13
25.28
25.85
25.81
25.40
24.94
24.70
24.66
24.61
24.20
23.20
21.62
19.68
17.70
15.90
14.37
13.00
11.66
10.24
8.64
6.81
4.72
2.40
-0.09
-2.71
-5.54
-8.75
-12.50
-16.83
-21.39
-25.53
-28.39
-29.24
-27.73
-23.98
-18.51
-12.00
-5.10
1.75
8.28
14.30
19.63
24.08
27.48
29.72
30.86
31.04
30.45
29.22
27.40
25.06
22.40
19.76
17.63
16.47
16.52
17.65
19.39
21.09
22.14
22.17
21.10
19.10
16.42
13.23
9.63
5.64
1.36
-3.03
-7.15
-10.67
-13.36
-15.32
-16.93
-18.71
-21.18
-24.56
-28.82
-33.63
-38.62
-43.44
-47.79
-51.26
-53.25
-53.09
-50.12
-44.12
-35.50
-25.29
-14.82
-5.34
2.38
8.14
12.26
15.24
17.42
18.88
19.46
18.87
16.95
13.78
9.71
5.34
1.38
-1.66
-3.59
-4.65
-5.54
-7.17
-10.43
-15.80
-23.08
-31.36
-39.24
-45.35
-48.86
-49.99
-50.00
-50.89
-54.63
-62.47
-74.31
-88.65
-103.03
-114.74
-121.61
-122.45
-117.32
-107.43
-94.82
-81.89
-70.72
-62.50
-57.18
-53.64
-50.35
-46.32
-41.71
-37.71
-35.68
-35.99
-37.23
-36.51
-30.63
-17.64
2.22
26.47
51.59
74.34
93.04
107.84
120.25
131.98
143.90
155.47
164.87
170.04
169.65
163.87
154.33
143.20
132.20
121.77
111.21
99.35
85.54
70.14
54.34
39.57
26.82
16.55
8.80
3.61
1.01
0.92
2.81
5.70
8.44
10.22
10.87
10.68
10.03
8.79
6.31
1.79
-4.96
-12.93
-19.83
-22.56
-18.13
-4.36
19.24
51.34
88.64
126.54
159.89
184.16
196.68
197.20
187.73
171.49
151.71
130.62
109.30
87.98
66.59
45.15
23.89
3.23
-16.21
-33.35
-46.67
-54.64
-56.41
-52.62
-45.40
-37.80
-32.41
-30.42
-31.25
-33.19
-34.37
-33.37
-29.16
-20.89
-7.95
9.32
28.79
46.40
57.22
57.55
46.94
28.55
7.96
-9.37
-20.15
-24.23
-23.86
-22.26
-22.28
-25.71
-33.40
-45.56
-61.97
-81.83
-103.51
-124.55
-141.93
-152.86
-155.73
-151.05
-141.77
-132.67
-128.61
-132.48
-143.86
-159.00
-172.61
-180.03
-179.46
-172.42
-162.64
-154.60
-151.53
-154.49
-162.21
-171.84
-180.07
-184.07
-181.96
-173.12
-158.45
-140.05
-120.68
-103.02
-89.25
-80.69
-77.79
-80.08
-85.96
-93.44
-100.69
-106.68
-111.26
-114.95
-118.19
-120.78
-121.34
-116.92
-105.32
-86.26
-61.80
-35.16
-9.01
15.64
39.25
63.35
91.02
123.69
160.26
197.86
233.52
265.48
293.45
317.67
339.12
361.93
389.28
422.47
460.58
501.27
541.09
575.45
598.56
605.88
598.96
581.31
556.96
529.12
500.60
473.96
451.43
434.06
398.39
333.40
243.84
147.97
63.62
-1.42
-48.47
-79.02
-101.25
-119.22
-130.68
-134.31
-132.10
-129.77
-131.80
-140.87
-157.04
-179.01
-203.69
-225.47
-240.96
-250.17
-256.19
-263.03
-274.03
-290.94
-314.15
-341.51
-367.36
-385.70
-392.11
-385.20
-366.63
-340.40
-311.36
-284.01
-260.55
-240.38
-221.86
-203.76
-185.87
-168.65
-152.47
-137.13
-122.00
-106.29
-89.44
-71.81
-54.55
-39.16
-26.81
-17.96
-12.15
-8.27
-4.86
-0.65
4.98
11.71
18.57
24.31
28.02
29.52
29.34
28.43
27.82
28.35
30.45
34.25
39.52
45.83
52.49
58.68
63.61
66.75
68.01
67.69
66.28
64.23
61.72
58.55
54.32
48.71
41.73
33.92
26.20
19.59
14.75
11.69
9.81
8.08
5.66
2.10
-2.44
-7.35
-11.82
-15.04
-16.42
-15.64
-12.76
-8.19
-2.71
2.78
7.48
10.87
12.86
13.67
13.67
13.24
12.68
12.13
11.72
11.41
10.99
10.17
8.71
6.65
4.32
2.31
1.12
0.92
1.48
2.28
2.84
2.89
2.47
1.87
1.50
1.80
3.19
5.98
10.16
15.31
20.58
24.95
27.60
28.33
27.51
25.85
24.04
22.32
20.54
18.27
15.11
10.86
5.63
-0.24
-6.19
-11.46
-15.29
-17.04
-16.45
-13.76
-9.65
-4.96
-0.46
3.36
6.36
8.59
10.22
11.41
12.21
12.58
12.45
11.71
10.43
8.90
7.54
6.84
7.09
8.32
10.30
12.64
14.91
16.64
17.54
17.41
16.27
14.28
11.71
8.79
5.62
2.21
-1.48
-5.35
-9.21
-12.83
-16.28
-19.90
-24.31
-30.07
-37.34
-45.77
-54.46
-62.19
-67.55
-69.34
-66.72
-59.57
-48.56
-35.02
-20.71
-7.18
4.53
14.15
21.95
28.30
33.39
37.04
38.96
39.09
37.81
35.96
34.59
34.62
36.55
40.31
45.25
50.30
54.27
56.29
56.22
54.70
52.99
52.14
52.38
52.67
51.14
46.03
36.76
24.46
11.60
0.95
-5.63
-7.92
-7.10
-4.87
-2.40
0.20
3.77
9.27
16.98
25.98
34.58
41.01
44.39
45.12
44.62
44.51
45.71
48.03
50.15
50.29
46.77
38.63
25.98
10.12
-6.71
-21.87
-33.13
-39.48
-41.28
-39.91
-36.87
-32.81
-27.28
-19.23
-7.96
6.01
20.68
33.24
41.02
42.37
36.96
25.32
8.24
-13.67
-39.93
-69.51
-100.29
-128.97
-151.81
-165.69
-169.22
-162.97
-148.71
-128.33
-102.96
-72.90
-38.38
-0.31
39.38
78.17
113.79
144.77
170.40
190.16
203.15
207.97
203.17
187.97
162.88
129.82
91.78
52.15
14.05
-20.14
-49.01
-72.09
-89.54
-101.81
-109.37
-112.68
-112.29
-109.05
-104.14
-98.90
-94.54
-91.78
-90.64
-90.72
-91.32
-91.96
-92.45
-92.98
-93.82
-95.23
-97.25
-99.61
-101.80
-103.08
-102.75
-100.36
-95.85
-89.67
-82.51
-75.02
-67.56
-60.15
-52.57
-44.73
-36.79
-29.20
-22.52
-17.14
-13.13
-10.18
-7.94
-5.98
-4.08
-2.19
-0.32
1.46
3.07
4.38
5.28
5.60
5.32
4.53
3.41
2.21
1.06
-0.01
-1.23
-2.94
-5.49
-9.05
-13.45
-18.11
-22.14
-24.52
-24.44
-21.60
-16.25
-9.19
-1.48
5.92
12.34
17.55
21.64
24.88
27.57
29.88
31.79
33.16
33.73
33.35
32.04
29.92
27.39
24.81
22.51
20.69
19.35
18.37
17.60
16.87
16.04
14.91
13.26
10.89
7.77
4.12
0.31
-3.30
-6.52
-9.57
-12.85
-16.76
-21.25
-25.68
-28.97
-29.98
-28.03
-23.11
-15.99
-7.80
0.32
7.61
13.68
18.52
22.26
25.03
26.90
27.89
28.05
27.52
26.55
25.53
24.83
24.68
24.97
25.31
25.24
24.47
23.11
21.61
20.52
20.11
20.25
20.47
20.20
19.19
17.54
15.61
13.69
11.80
9.61
6.76
3.09
-1.07
-5.01
-7.85
-8.81
-7.60
-4.41
0.13
5.35
10.64
15.65
20.26
24.49
28.38
31.79
34.48
36.12
36.54
35.75
34.09
32.15
30.53
29.63
29.47
29.76
30.04
29.90
29.24
28.19
27.02
25.89
24.69
23.13
20.88
17.80
14.05
10.13
6.52
3.64
1.49
-0.15
-1.73
-3.64
-6.06
-8.92
-11.96
-14.82
-17.13
-18.60
-18.91
-17.85
-15.36
-11.57
-6.86
-1.75
3.18
7.43
10.61
12.57
13.34
13.16
12.42
11.53
10.75
10.12
9.53
8.83
8.02
7.30
6.93
7.04
7.49
7.92
7.87
7.10
5.63
3.70
1.56
-0.71
-3.19
-6.11
-9.52
-13.27
-16.89
-19.85
-21.66
-22.11
-21.20
-18.97
-15.55
-11.01
-5.68
-0.08
5.02
8.85
11.01
11.59
11.18
10.46
9.90
9.62
9.40
8.97
8.27
7.46
6.75
6.27
5.98
5.69
5.27
4.70
4.16
3.90
4.14
4.88
5.97
7.25
8.66
10.39
12.71
15.81
19.52
23.32
26.34
27.84
27.40
25.23
22.06
18.88
16.61
15.81
16.59
18.65
21.53
24.73
27.95
31.01
33.80
36.19
38.03
39.19
39.67
39.67
39.42
39.05
38.48
37.42
35.58
32.80
29.16
24.82
20.04
15.03
9.91
4.86
0.00
-4.58
-8.97
-13.32
-17.80
-22.32
-26.64
-30.36
-33.26
-35.38
-36.95
-38.26
-39.29
-39.83
-39.45
-37.76
-34.61
-30.21
-25.08
-19.86
-15.16
-11.43
-8.88
-7.50
-7.06
-7.27
-7.88
-8.79
-9.96
-11.37
-12.75
-13.65
-13.49
-11.88
-8.86
-4.89
-0.68
3.11
6.12
8.36
10.07
11.43
12.56
13.33
13.56
13.10
11.89
9.94
7.37
4.47
1.66
-0.61
-1.94
-2.28
-1.85
-1.10
-0.42
-0.02
0.17
0.30
0.49
0.74
1.01
1.32
1.73
2.26
2.84
3.23
3.09
2.14
0.31
-2.28
-5.35
-8.63
-11.78
-14.49
-16.43
-17.29
-16.89
-15.33
-12.95
-10.21
-7.59
-5.42
-3.84
-2.80
-2.15
-1.73
-1.46
-1.37
-1.52
-1.96
-2.60
-3.21
-3.56
-3.49
-3.02
-2.33
-1.67
-1.22
-1.07
-1.16
-1.38
-1.65
-1.96
-2.32
-2.77
-3.39
-4.21
-5.27
-6.53
-7.88
-9.18
-10.25
-10.97
-11.33
-11.41
-11.41
-11.56
-12.02
-12.88
-14.02
-15.19
-16.08
-16.34
-15.75
-14.26
-12.06
-9.50
-6.95
-4.68
-2.73
-0.96
0.80
2.64
4.43
5.87
6.67
6.73
6.20
5.47
4.89
4.59
4.44
4.14
3.50
2.59
1.84
1.77
2.70
4.52
6.64
8.24
8.62
7.55
5.31
2.59
0.06
-1.83
-3.05
-3.85
-4.57
-5.44
-6.39
-7.21
-7.66
-7.70
-7.50
-7.36
-7.55
-8.14
-9.06
-10.14
-11.24
-12.33
-13.34
-14.07
-14.21
-13.43
-11.60
-8.87
-5.65
-2.45
0.31
2.32
3.51
3.89
3.61
3.02
2.55
2.64
3.49
4.97
6.70
8.15
8.98
9.12
8.77
8.19
7.64
7.16
6.66
5.98
5.05
3.86
2.65
1.72
1.35
1.63
2.35
3.10
3.43
3.15
2.37
1.45
0.75
0.33
-0.01
-0.64
-1.82
-3.58
-5.72
-8.00
-10.19
-12.23
-14.00
-15.19
-15.37
-14.11
-11.23
-7.09
-2.41
1.90
5.13
6.99
7.67
7.58
7.20
6.81
6.48
6.19
5.92
5.71
5.63
5.71
5.87
5.92
5.72
5.21
4.52
3.84
3.33
3.04
2.89
2.73
2.38
1.69
0.56
-0.98
-2.85
-4.85
-6.77
-8.47
-9.94
-11.39
-13.02
-14.97
-17.10
-19.03
-20.25
-20.33
-19.16
-16.93
-14.08
-11.06
-8.25
-5.71
-3.38
-1.07
1.30
3.62
5.69
7.21
7.99
8.01
7.45
6.58
5.66
4.81
3.96
3.00
1.79
0.32
-1.26
-2.71
-3.73
-4.15
-4.00
-3.56
-3.23
-3.40
-4.29
-5.87
-7.93
-10.20
-12.42
-14.43
-16.12
-17.43
-18.39
-19.13
-20.02
-21.57
-24.21
-28.11
-32.91
-37.72
-41.40
-42.92
-41.75
-38.02
-32.43
-25.92
-19.40
-13.48
-8.46
-4.40
-1.25
1.10
2.81
4.11
5.24
6.42
7.69
8.91
9.90
10.52
10.82
11.04
11.47
12.30
13.40
14.51
15.17
15.13
14.33
13.05
11.61
10.26
8.96
7.52
5.70
3.39
0.68
-2.21
-5.05
-7.67
-10.06
-12.37
-14.86
-17.79
-21.29
-25.18
-28.94
-31.63
-32.28
-30.23
-25.50
-18.90
-11.66
-5.03
0.36
4.62
8.34
12.17
16.24
20.11
22.98
24.25
23.95
22.79
21.74
21.55
22.33
23.54
24.35
24.19
22.98
21.19
19.47
18.36
17.96
18.03
18.11
17.72
16.57
14.67
12.30
9.85
7.69
5.90
4.35
2.66
0.45
-2.46
-6.06
-10.11
-14.44
-18.92
-23.44
-27.66
-30.93
-32.35
-31.11
-26.86
-19.92
-11.30
-2.29
5.91
12.58
17.57
21.12
23.68
25.54
26.84
27.53
27.56
26.96
25.91
24.73
23.68
22.95
22.53
22.32
22.20
22.12
22.09
22.08
21.94
21.39
20.10
17.83
14.57
10.54
6.17
1.92
-1.84
-4.96
-7.59
-10.18
-13.31
-17.45
-22.57
-28.03
-32.64
-35.10
-34.52
-30.74
-24.47
-16.83
-8.96
-1.59
4.96
10.76
15.84
20.13
23.37
25.32
25.90
25.32
24.11
22.92
22.36
22.62
23.53
24.52
25.02
24.68
23.55
21.97
20.34
18.90
17.62
16.35
14.91
13.21
11.20
8.84
6.11
2.96
-0.52
-4.18
-7.86
-11.45
-15.02
-18.67
-22.54
-26.70
-31.12
-35.67
-40.06
-43.75
-46.05
-46.21
-43.69
-38.46
-31.02
-22.36
-13.53
-5.35
1.81
7.96
13.32
18.11
22.33
25.85
28.43
29.92
30.29
29.77
28.79
27.80
27.23
27.27
27.84
28.57
28.96
28.66
27.60
26.04
24.34
22.75
21.21
19.35
16.84
13.48
9.45
5.17
1.06
-2.66
-5.95
-8.89
-11.49
-13.73
-15.67
-17.58
-20.00
-23.43
-28.00
-33.18
-37.83
-40.63
-40.52
-37.16
-30.97
-23.01
-14.46
-6.40
0.49
5.89
9.84
12.65
14.76
16.65
18.64
20.84
23.11
25.17
26.85
28.08
28.93
29.49
29.74
29.60
29.03
28.11
27.04
26.01
25.07
24.07
22.70
20.71
18.05
14.92
11.66
8.59
5.86
3.37
0.96
-1.55
-4.31
-7.42
-10.91
-14.76
-18.79
-22.64
-25.81
-27.72
-27.87
-26.03
-22.22
-16.80
-10.34
-3.48
3.19
9.17
14.20
18.15
21.03
22.95
24.01
24.30
23.90
22.98
21.75
20.49
19.42
18.59
17.90
17.16
16.22
15.11
13.95
12.86
11.77
10.47
8.65
6.15
3.07
-0.25
-3.44
-6.31
-8.92
-11.49
-14.34
-17.68
-21.59
-26.03
-30.82
-35.54
-39.56
-42.07
-42.39
-40.13
-35.45
-28.99
-21.62
-14.24
-7.57
-2.01
2.38
5.81
8.71
11.44
14.18
16.72
18.63
19.45
19.02
17.65
15.93
14.57
13.98
14.14
14.58
14.80
14.45
13.54
12.38
11.28
10.42
9.63
8.59
6.93
4.49
1.44
-1.83
-4.85
-7.38
-9.51
-11.67
-14.39
-18.07
-22.70
-27.74
-32.30
-35.27
-35.81
-33.59
-28.91
-22.61
-15.69
-8.99
-3.00
2.18
6.65
10.51
13.86
16.65
18.82
20.34
21.20
21.50
21.38
21.02
20.61
20.27
20.04
19.87
19.68
19.44
19.14
18.77
18.28
17.48
16.23
14.50
12.47
10.45
8.71
7.36
6.21
4.89
3.16
0.98
-1.42
-3.69
-5.70
-7.60
-9.80
-12.70
-16.35
-20.29
-23.58
-25.17
-24.24
-20.60
-14.68
-7.47
-0.12
6.43
11.63
15.39
17.85
19.29
19.87
19.73
18.92
17.64
16.15
14.82
13.90
13.51
13.52
13.73
13.88
13.89
13.70
13.35
12.72
11.61
9.83
7.31
4.19
0.76
-2.60
-5.66
-8.36
-10.81
-13.26
-15.91
-18.87
-22.10
-25.41
-28.41
-30.61
-31.45
-30.55
-27.86
-23.67
-18.59
-13.35
-8.58
-4.62
-1.46
1.17
3.64
6.14
8.57
10.56
11.70
11.79
11.05
10.02
9.27
9.17
9.57
10.05
10.01
9.19
7.77
6.25
5.12
4.59
4.55
4.53
4.08
2.79
0.59
-2.38
-5.73
-8.97
-11.66
-13.56
-14.79
-15.79
-17.11
-19.22
-22.26
-25.99
-29.84
-33.16
-35.35
-36.05
-35.08
-32.43
-28.28
-23.03
-17.25
-11.55
-6.55
-2.53
0.50
2.88
5.03
7.23
9.49
11.51
12.92
13.43
13.10
12.23
11.23
10.40
9.78
9.19
8.43
7.44
6.30
5.31
4.62
4.22
3.85
3.12
1.77
-0.25
-2.69
-5.14
-7.17
-8.59
-9.53
-10.34
-11.50
-13.36
-16.00
-19.24
-22.60
-25.53
-27.50
-28.08
-27.05
-24.41
-20.38
-15.41
-10.12
-5.13
-0.89
2.41
4.88
6.81
8.41
9.80
10.79
11.22
10.99
10.28
9.44
8.79
8.50
8.50
8.56
8.53
8.48
8.61
9.16
10.17
11.37
12.32
12.54
11.75
10.02
7.67
5.13
2.79
0.84
-0.68
-1.85
-2.84
-3.82
-5.04
-6.71
-8.96
-11.74
-14.64
-17.08
-18.41
-18.20
-16.34
-13.11
-8.98
-4.45
0.04
4.17
7.66
10.38
12.23
13.29
13.75
13.83
13.74
13.52
13.16
12.62
11.97
11.38
11.01
10.94
11.07
11.22
11.16
10.76
9.95
8.71
7.11
5.22
3.28
1.52
0.17
-0.74
-1.41
-2.24
-3.68
-6.05
-9.31
-13.07
-16.64
-19.18
-20.00
-18.75
-15.52
-10.94
-5.89
-1.29
2.27
4.57
5.85
6.52
6.94
7.26
7.52
7.62
7.49
7.06
6.26
5.08
3.59
2.03
0.76
0.09
0.08
0.37
0.39
-0.48
-2.54
-5.72
-9.62
-13.73
-17.68
-21.27
-24.46
-27.28
-29.79
-32.13
-34.62
-37.56
-41.10
-44.98
-48.47
-50.64
-50.79
-48.79
-45.15
-40.79
-36.65
-33.38
-31.19
-30.00
-29.68
-30.14
-31.34
-33.23
-35.70
-38.63
-41.94
-45.58
-49.46
-53.40
-57.05
-60.01
-62.18
-63.79
-65.42
-67.81
-71.56
-76.92
-83.83
-92.10
-101.56
-112.36
-124.86
-139.46
-156.18
-174.20
-191.51
-205.08
-211.64
-208.81
-196.31
-176.33
-152.70
-129.36
-108.81
-91.26
-75.11
-58.19
-39.03
-17.42
5.96
30.29
55.20
80.87
107.59
135.35
163.96
193.53
224.65
258.01
293.17
327.48
355.87
372.19
371.62
352.96
319.54
278.07
236.14
199.57
170.96
150.09
135.44
125.54
119.56
116.67
115.24
112.58
105.87
93.43
75.74
55.09
34.59
16.70
2.63
-7.65
-14.73
-19.31
-22.04
-23.65
-24.95
-26.29
-26.94
-24.76
-16.93
-1.31
22.08
50.43
78.77
101.71
115.32
118.25
111.71
98.49
81.79
64.14
47.18
31.91
19.08
9.29
2.69
-1.37
-4.53
-8.95
-16.46
-27.60
-41.14
-54.43
-64.45
-69.05
-67.85
-62.36
-55.27
-49.35
-46.45
-47.10
-50.61
-55.54
-60.29
-63.51
-64.21
-61.73
-55.80
-46.74
-35.83
-25.43
-18.70
-18.73
-27.30
-43.91
-65.47
-87.04
-103.48
-111.22
-109.51
-100.59
-88.62
-78.07
-71.88
-70.44
-71.59
-71.58
-66.53
-53.70
-32.51
-4.46
27.28
58.63
85.40
104.08
112.43
109.89
97.94
79.74
59.32
39.99
22.86
5.89
-15.14
-44.33
-82.65
-126.03
-165.96
-192.26
-197.33
-179.33
-142.92
-97.05
-51.26
-12.43
16.70
36.56
48.92
55.19
56.02
51.88
43.85
33.85
24.02
15.94
9.97
5.42
1.24
-3.23
-7.82
-11.76
-14.21
-14.86
-14.11
-13.05
-12.94
-14.67
-18.38
-23.32
-28.20
-31.64
-32.75
-31.42
-28.34
-24.69
-21.64
-19.88
-19.37
-19.34
-18.65
-16.27
-11.71
-5.31
1.88
8.51
13.36
15.97
16.73
16.82
17.82
21.14
27.48
36.62
47.51
58.64
68.76
77.22
84.22
90.52
96.93
103.82
110.80
116.93
120.91
121.53
117.83
109.27
95.75
77.73
56.30
33.04
9.69
-12.30
-32.12
-49.68
-65.38
-79.69
-92.89
-104.97
-115.80
-125.24
-133.12
-138.92
-141.66
-139.95
-132.42
-118.41
-98.37
-74.06
-48.11
-23.38
-2.17
14.24
25.68
32.84
36.84
38.88
39.85
40.30
40.45
40.28
39.77
39.00
38.35
38.35
39.77
43.29
49.37
57.91
67.90
77.02
81.72
77.87
62.03
33.03
-7.06
-53.06
-98.16
-136.11
-163.01
-178.03
-182.66
-179.20
-169.26
-153.24
-130.84
-101.98
-67.61
-29.77
8.80
45.53
78.36
105.92
127.40
142.40
151.03
154.12
153.36
151.02
149.39
149.89
152.45
155.32
155.73
150.95
139.46
121.76
100.15
77.96
58.09
41.92
28.58
15.08
-2.81
-29.08
-65.73
-111.54
-161.78
-209.34
-247.02
-269.86
-276.74
-270.15
-254.66
-234.55
-212.18
-187.66
-159.68
-126.92
-89.20
-47.96
-5.76
34.39
69.98
99.54
123.02
141.61
157.23
171.76
186.23
200.31
212.42
220.30
221.73
215.25
200.47
177.85
148.31
112.79
72.24
27.97
-17.88
-61.99
-100.33
-129.26
-146.87
-153.81
-152.86
-147.64
-140.87
-133.27
-123.84
-110.99
-94.14
-74.54
-54.89
-38.10
-25.89
-18.02
-12.70
-7.66
-1.45
5.92
13.15
18.59
21.09
20.61
18.18
15.23
12.94
11.79
11.57
11.66
11.50
10.82
9.81
8.87
8.42
8.65
9.46
10.44
11.11
11.08
10.19
8.62
6.75
4.94
3.36
1.90
0.25
-1.85
-4.50
-7.58
-10.88
-14.27
-17.80
-21.54
-25.43
-28.96
-31.28
-31.34
-28.42
-22.47
-14.27
-5.23
3.16
9.83
14.47
17.52
19.79
22.02
24.49
26.93
28.78
29.55
29.17
27.95
26.55
25.43
24.75
24.25
23.58
22.48
21.01
19.45
18.03
16.72
15.23
13.24
10.63
7.65
4.79
2.52
0.98
-0.09
-1.27
-3.18
-6.22
-10.44
-15.44
-20.37
-24.17
-25.76
-24.46
-20.12
-13.32
-5.10
3.36
11.05
17.39
22.24
25.78
28.26
29.89
30.73
30.76
29.88
28.19
26.01
23.83
22.23
21.52
21.57
21.84
21.62
20.38
18.10
15.24
12.46
10.32
8.85
7.67
6.17
3.90
0.77
-2.87
-6.49
-9.77
-12.74
-15.78
-19.30
-23.36
-27.42
-30.46
-31.34
-29.32
-24.49
-17.64
-10.04
-2.85
3.23
8.04
11.78
14.69
16.86
18.08
18.20
17.20
15.41
13.42
11.78
10.87
10.73
11.11
11.69
12.19
12.46
12.51
12.44
12.27
11.97
11.38
10.30
8.57
6.12
3.08
-0.26
-3.43
-6.06
-8.00
-9.41
-10.75
-12.53
-15.07
-18.40
-22.23
-25.98
-29.06
-30.86
-30.87
-28.84
-24.78
-19.09
-12.49
-5.87
-0.01
4.59
7.88
10.19
11.99
13.64
15.18
16.43
17.07
16.93
16.06
14.75
13.40
12.35
11.81
11.74
11.96
12.25
12.43
12.41
12.17
11.74
11.17
10.47
9.56
8.31
6.62
4.54
2.31
0.31
-1.10
-1.84
-2.13
-2.53
-3.71
-6.12
-9.78
-14.18
-18.48
-21.71
-23.11
-22.37
-19.62
-15.40
-10.47
-5.59
-1.30
2.09
4.55
6.17
7.08
7.41
7.24
6.63
5.69
4.64
3.72
3.16
2.98
3.05
3.01
2.55
1.49
-0.04
-1.71
-3.18
-4.24
-4.95
-5.44
-5.90
-6.40
-6.93
-7.49
-8.13
-8.99
-10.18
-11.73
-13.51
-15.37
-17.18
-18.94
-20.76
-22.68
-24.61
-26.18
-26.89
-26.26
-24.07
-20.46
-15.97
-11.28
-7.01
-3.49
-0.74
1.38
3.03
4.24
5.03
5.41
5.50
5.55
5.72
6.09
6.59
7.06
7.35
7.42
7.28
7.01
6.69
6.34
5.99
5.61
5.16
4.52
3.60
2.31
0.64
-1.30
-3.37
-5.42
-7.38
-9.25
-11.07
-13.00
-15.14
-17.56
-20.08
-22.26
-23.53
-23.32
-21.46
-18.22
-14.25
-10.26
-6.74
-3.77
-1.17
1.25
3.45
5.18
6.16
6.26
5.67
4.75
3.94
3.56
3.73
4.38
5.33
6.26
6.92
7.14
6.88
6.32
5.73
5.35
5.30
5.52
5.82
5.99
5.89
5.54
5.02
4.47
3.92
3.34
2.61
1.63
0.29
-1.43
-3.53
-5.92
-8.41
-10.66
-12.17
-12.43
-11.09
-8.19
-4.17
0.22
4.22
7.28
9.22
10.18
10.45
10.31
9.99
9.65
9.43
9.39
9.45
9.41
8.96
7.95
6.47
4.91
3.78
3.40
3.69
4.26
4.53
4.10
2.90
1.17
-0.73
-2.54
-4.20
-5.82
-7.48
-9.13
-10.67
-12.01
-13.30
-14.90
-17.17
-20.27
-23.92
-27.44
-29.86
-30.40
-28.66
-24.86
-19.79
-14.49
-9.87
-6.38
-3.97
-2.17
-0.49
1.28
2.90
3.91
3.91
2.92
1.47
0.30
-0.02
0.58
1.66
2.50
2.60
1.88
0.75
-0.22
-0.66
-0.56
-0.32
-0.43
-1.20
-2.60
-4.26
-5.78
-6.88
-7.63
-8.31
-9.32
-10.89
-13.07
-15.69
-18.53
-21.38
-24.00
-26.14
-27.49
-27.72
-26.64
-24.25
-20.78
-16.63
-12.27
-8.04
-4.23
-0.92
1.84
4.04
5.69
6.85
7.69
8.42
9.19
10.02
10.76
11.11
10.91
10.17
9.18
8.39
8.15
8.59
9.54
10.64
11.59
12.24
12.54
12.45
11.80
10.34
7.95
4.79
1.31
-1.87
-4.36
-6.14
-7.58
-9.22
-11.51
-14.55
-18.02
-21.39
-24.00
-25.33
-25.07
-23.21
-19.99
-15.88
-11.35
-6.80
-2.44
1.66
5.47
8.86
11.60
13.42
14.17
13.95
13.09
12.05
11.25
10.89
11.00
11.41
11.89
12.28
12.45
12.36
12.07
11.66
11.26
11.00
10.92
10.91
10.76
10.20
9.00
7.15
4.85
2.43
0.16
-1.84
-3.63
-5.39
-7.29
-9.46
-11.94
-14.67
-17.50
-20.08
-21.90
-22.35
-20.98
-17.73
-13.04
-7.68
-2.52
1.86
5.30
7.98
10.17
12.08
13.66
14.76
15.27
15.23
14.86
14.49
14.40
14.66
15.22
15.78
16.07
15.85
15.07
13.88
12.62
11.60
10.95
10.57
10.20
9.64
8.79
7.69
6.45
5.03
3.28
1.04
-1.77
-5.03
-8.48
-11.82
-14.94
-17.88
-20.86
-24.03
-27.37
-30.56
-33.02
-34.14
-33.41
-30.70
-26.20
-20.44
-14.02
-7.54
-1.43
3.99
8.55
12.19
14.93
16.92
18.30
19.27
19.94
20.37
20.62
20.69
20.65
20.57
20.54
20.64
20.87
21.25
21.67
21.99
22.06
21.81
21.28
20.59
19.81
18.91
17.71
15.99
13.62
10.74
7.60
4.60
2.06
0.06
-1.55
-3.10
-5.00
-7.51
-10.73
-14.49
-18.40
-21.91
-24.44
-25.49
-24.64
-21.67
-16.63
-9.95
-2.45
4.78
10.71
14.74
16.86
17.63
17.82
18.10
18.72
19.57
20.39
20.92
21.05
20.81
20.24
19.35
18.25
17.08
16.09
15.45
15.16
14.99
14.55
13.48
11.54
8.75
5.29
1.48
-2.30
-5.75
-8.68
-11.15
-13.44
-16.05
-19.36
-23.46
-27.97
-32.05
-34.67
-35.02
-32.76
-28.18
-22.05
-15.35
-8.96
-3.44
1.03
4.52
7.32
9.62
11.56
13.10
14.16
14.68
14.70
14.42
14.10
14.01
14.25
14.73
15.17
15.29
14.96
14.25
13.42
12.71
12.21
11.66
10.67
8.83
6.06
2.68
-0.71
-3.51
-5.51
-6.92
-8.34
-10.36
-13.31
-17.08
-21.31
-25.64
-29.84
-33.77
-37.16
-39.47
-39.93
-37.86
-33.14
-26.31
-18.51
-10.94
-4.50
0.57
4.61
8.02
11.07
13.61
15.34
15.92
15.41
14.19
12.80
11.73
11.09
10.72
10.25
9.40
8.12
6.65
5.30
4.32
3.86
3.80
3.87
3.55
2.01
-1.68
-8.16
-17.20
-27.34
-36.02
-40.40
-38.45
-29.91
-16.45
-0.98
13.59
25.33
33.75
39.50
43.46
46.17
47.57
47.25
44.94
40.87
35.75
30.45
25.62
21.41
17.58
13.75
9.70
5.62
2.00
-0.59
-1.86
-1.93
-1.32
-0.65
-0.39
-0.72
-1.41
-2.08
-2.35
-2.10
-1.46
-0.82
-0.65
-1.29
-2.84
-5.00
-7.39
-9.63
-11.57
-13.33
-15.16
-17.26
-19.63
-22.21
-24.83
-27.51
-30.36
-33.43
-36.49
-39.00
-40.12
-39.07
-35.49
-29.59
-22.15
-14.22
-6.71
-0.17
5.25
9.67
13.21
15.78
17.27
17.69
17.30
16.62
16.24
16.53
17.54
18.98
20.40
21.45
21.92
21.84
21.37
20.69
19.92
19.12
18.27
17.26
15.92
14.04
11.57
8.62
5.46
2.36
-0.56
-3.35
-6.19
-9.22
-12.50
-15.97
-19.44
-22.74
-25.62
-27.81
-28.89
-28.43
-26.05
-21.69
-15.69
-8.78
-1.89
4.16
8.82
11.94
13.69
14.46
14.67
14.62
14.50
14.39
14.30
14.26
14.27
14.30
14.28
14.09
13.73
13.24
12.70
12.17
11.62
10.91
9.93
8.60
6.98
5.11
3.04
0.76
-1.72
-4.29
-6.81
-9.15
-11.30
-13.42
-15.73
-18.38
-21.42
-24.73
-28.22
-31.71
-34.92
-37.36
-38.33
-37.23
-33.78
-28.31
-21.66
-14.86
-8.69
-3.42
1.05
4.97
8.45
11.29
13.25
14.18
14.25
13.94
13.85
14.38
15.71
17.68
19.92
22.03
23.65
24.66
25.04
24.94
24.45
23.61
22.30
20.35
17.71
14.55
11.24
8.18
5.67
3.69
1.98
0.13
-2.13
-4.82
-7.75
-10.61
-13.22
-15.57
-17.81
-20.10
-22.48
-24.71
-26.26
-26.48
-24.83
-21.19
-15.95
-9.95
-4.10
0.91
4.88
8.08
10.89
13.47
15.64
17.03
17.43
16.98
16.22
15.69
15.73
16.17
16.60
16.60
15.98
14.90
13.60
12.37
11.24
10.19
9.08
7.88
6.60
5.30
4.05
2.83
1.63
0.27
-1.49
-3.98
-7.33
-11.33
-15.34
-18.38
-19.55
-18.34
-14.96
-10.19
-5.14
-0.81
2.21
3.87
4.59
4.89
5.17
5.49
5.68
5.44
4.68
3.50
2.23
1.22
0.60
0.35
0.30
0.35
0.56
1.06
1.92
2.95
3.70
3.65
2.44
0.09
-2.93
-6.00
-8.56
-10.36
-11.61
-12.78
-14.43
-16.88
-20.02
-23.39
-26.23
-27.85
-27.83
-26.21
-23.43
-20.13
-16.85
-13.94
-11.49
-9.39
-7.62
-6.20
-5.27
-4.93
-5.13
-5.71
-6.44
-7.19
-7.92
-8.66
-9.45
-10.28
-11.10
-11.83
-12.45
-12.89
-13.21
-13.44
-13.75
-14.36
-15.55
-17.63
-20.88
-25.46
-31.27
-37.96
-44.80
-50.85
-55.06
-56.48
-54.60
-49.36
-41.20
-30.96
-19.69
-8.38
2.13
11.42
19.53
26.76
33.58
40.32
47.18
54.04
60.64
66.57
71.36
74.60
75.98
75.41
73.04
69.18
64.22
58.44
52.00
45.05
37.85
30.74
24.15
18.40
13.59
9.63
6.42
3.87
2.04
0.98
0.60
0.70
0.97
1.10
0.83
-0.04
-1.72
-4.42
-8.31
-13.42
-19.43
-25.65
-31.04
-34.49
-35.09
-32.39
-26.58
-18.36
-8.79
1.08
10.47
18.97
26.54
33.34
39.44
44.71
48.73
50.90
50.65
47.68
42.17
34.88
26.99
19.85
14.41
11.06
9.41
8.66
7.99
6.85
5.24
3.39
1.55
-0.28
-2.41
-5.20
-8.88
-13.29
-18.03
-22.58
-26.58
-29.85
-32.36
-34.05
-34.74
-34.20
-32.15
-28.57
-23.77
-18.44
-13.43
-9.43
-6.73
-5.24
-4.56
-4.26
-4.13
-4.17
-4.48
-5.07
-5.75
-6.25
-6.36
-6.08
-5.67
-5.47
-5.63
-6.12
-6.69
-7.14
-7.38
-7.47
-7.59
-7.90
-8.57
-9.62
-11.16
-13.26
-15.97
-19.21
-22.77
-26.28
-29.22
-31.13
-31.57
-30.31
-27.36
-22.92
-17.43
-11.40
-5.41
-0.01
4.38
7.59
9.65
10.90
11.72
12.40
13.02
13.39
13.27
12.54
11.33
10.00
8.98
8.51
8.51
8.69
8.68
8.20
7.20
5.78
4.14
2.45
0.88
-0.49
-1.69
-2.79
-3.96
-5.31
-6.98
-9.02
-11.55
-14.67
-18.35
-22.30
-25.88
-28.22
-28.46
-26.19
-21.59
-15.57
-9.31
-3.93
-0.09
2.22
3.46
4.32
5.29
6.57
7.97
9.13
9.72
9.63
9.10
8.52
8.29
8.54
9.08
9.52
9.50
8.93
8.04
7.27
6.89
6.88
6.89
6.38
5.00
2.75
0.02
-2.56
-4.47
-5.55
-5.99
-6.19
-6.60
-7.51
-9.05
-11.24
-14.05
-17.33
-20.80
-23.92
-25.93
-26.14
-24.09
-19.88
-14.13
-7.84
-2.04
2.53
5.56
7.22
7.94
8.21
8.43
8.83
9.42
10.07
10.58
10.83
10.82
10.68
10.61
10.72
10.97
11.16
11.14
10.84
10.40
10.03
9.82
9.69
9.32
8.43
6.85
4.66
2.16
-0.28
-2.32
-3.80
-4.71
-5.24
-5.72
-6.55
-8.12
-10.60
-13.94
-17.78
-21.50
-24.43
-25.94
-25.62
-23.34
-19.32
-14.10
-8.48
-3.23
0.99
3.97
5.85
7.05
8.04
9.09
10.20
11.10
11.44
11.03
9.92
8.47
7.19
6.55
6.73
7.56
8.57
9.27
9.37
9.01
8.56
8.36
8.47
8.53
8.06
6.65
4.43
1.89
-0.27
-1.60
-2.13
-2.25
-2.58
-3.44
-4.95
-6.92
-9.14
-11.46
-13.81
-16.02
-17.79
-18.67
-18.26
-16.36
-13.15
-9.11
-4.82
-0.82
2.60
5.36
7.45
8.91
9.78
10.10
10.00
9.67
9.37
9.30
9.54
10.02
10.60
11.11
11.44
11.54
11.46
11.23
10.95
10.70
10.50
10.26
9.81
9.01
7.82
6.33
4.72
3.12
1.58
0.03
-1.55
-3.09
-4.40
-5.32
-5.83
-6.19
-6.83
-8.05
-9.87
-11.90
-13.43
-13.78
-12.55
-9.75
-5.78
-1.26
3.17
7.03
10.11
12.42
14.10
15.33
16.18
16.67
16.71
16.36
15.74
15.00
14.33
13.78
13.26
12.67
11.99
11.30
10.77
10.48
10.39
10.27
9.85
8.90
7.37
5.31
2.94
0.47
-1.89
-4.05
-6.01
-7.92
-9.99
-12.32
-14.81
-17.09
-18.55
-18.64
-17.15
-14.27
-10.57
-6.68
-2.97
0.45
3.70
6.85
9.74
11.98
13.23
13.32
12.38
10.84
9.13
7.61
6.42
5.59
5.05
4.69
4.44
4.16
3.78
3.18
2.38
1.45
0.53
-0.30
-1.01
-1.72
-2.62
-3.94
-5.83
-8.39
-11.61
-15.36
-19.31
-23.00
-25.83
-27.22
-26.79
-24.56
-20.92
-16.57
-12.22
-8.39
-5.27
-2.77
-0.69
1.11
2.74
4.16
5.29
5.97
6.15
5.80
5.07
4.18
3.44
3.00
2.89
2.96
3.03
2.99
2.83
2.52
1.99
1.11
-0.25
-2.07
-4.19
-6.37
-8.45
-10.53
-12.83
-15.70
-19.24
-23.17
-26.78
-29.08
-29.25
-26.95
-22.56
-16.95
-11.20
-6.15
-2.12
1.02
3.60
5.80
7.59
8.73
9.08
8.73
8.02
7.34
7.01
7.11
7.52
8.04
8.46
8.61
8.41
7.92
7.24
6.47
5.65
4.66
3.28
1.39
-0.92
-3.28
-5.22
-6.40
-6.88
-7.15
-7.90
-9.70
-12.74
-16.63
-20.58
-23.71
-25.29
-25.04
-23.00
-19.53
-15.17
-10.41
-5.73
-1.46
2.11
4.96
7.17
8.94
10.48
11.92
13.23
14.26
14.92
15.22
15.32
15.46
15.80
16.35
16.91
17.24
17.07
16.33
15.07
13.53
12.03
10.83
10.05
9.58
9.11
8.26
6.82
4.78
2.41
0.05
-2.05
-3.84
-5.57
-7.55
-10.06
-13.18
-16.78
-20.55
-24.09
-26.97
-28.84
-29.43
-28.56
-26.21
-22.52
-17.77
-12.38
-6.83
-1.57
3.08
6.91
9.90
12.06
13.46
14.21
14.49
14.57
14.69
14.99
15.44
15.89
16.19
16.28
16.28
16.31
16.45
16.65
16.75
16.59
16.11
15.38
14.44
13.34
11.99
10.37
8.44
6.27
4.00
1.76
-0.34
-2.23
-3.93
-5.56
-7.30
-9.37
-11.95
-15.07
-18.58
-22.15
-25.34
-27.66
-28.66
-27.96
-25.39
-21.02
-15.27
-8.85
-2.58
2.79
6.83
9.40
10.73
11.19
11.25
11.39
11.93
13.06
14.65
16.42
17.90
18.76
18.88
18.43
17.71
17.04
16.55
16.21
15.84
15.29
14.43
13.24
11.81
10.28
8.81
7.55
6.50
5.55
4.48
3.09
1.29
-0.82
-2.99
-4.97
-6.56
-7.86
-9.13
-10.78
-13.21
-16.57
-20.66
-24.83
-28.17
-29.68
-28.70
-25.04
-19.19
-12.14
-5.15
0.65
4.57
6.55
7.14
7.29
7.87
9.38
11.65
14.04
15.79
16.46
16.15
15.44
14.99
15.21
16.03
16.99
17.53
17.32
16.38
15.05
13.70
12.55
11.55
10.47
9.08
7.26
5.07
2.75
0.56
-1.28
-2.70
-3.74
-4.62
-5.55
-6.82
-8.59
-10.99
-13.97
-17.31
-20.69
-23.60
-25.48
-25.82
-24.30
-20.95
-16.19
-10.72
-5.33
-0.65
3.03
5.74
7.72
9.21
10.42
11.37
12.00
12.29
12.21
11.85
11.30
10.73
10.26
10.00
9.92
9.85
9.62
9.12
8.48
8.02
8.09
8.80
9.91
10.81
10.83
9.57
7.07
3.83
0.56
-2.12
-3.92
-4.86
-5.24
-5.39
-5.58
-5.96
-6.55
-7.27
-8.02
-8.71
-9.17
-9.29
-8.93
-7.89
-6.03
-3.29
0.17
3.94
7.61
10.79
13.32
15.26
16.79
18.03
18.97
19.43
19.21
18.21
16.51
14.42
12.37
10.80
9.97
9.83
10.08
10.17
9.66
8.32
6.30
4.06
2.04
0.47
-0.73
-1.82
-3.05
-4.41
-5.74
-6.86
-7.89
-9.27
-11.51
-14.87
-18.98
-22.92
-25.47
-25.68
-23.33
-18.93
-13.56
-8.35
-4.03
-0.84
1.40
2.99
4.13
4.83
4.98
4.50
3.45
2.01
0.42
-1.06
-2.25
-3.04
-3.40
-3.36
-2.99
-2.34
-1.48
-0.50
0.41
0.94
0.73
-0.43
-2.54
-5.29
-8.21
-10.87
-13.09
-15.05
-17.20
-20.06
-23.94
-28.76
-33.96
-38.58
-41.50
-41.80
-39.09
-33.64
-26.34
-18.41
-10.90
-4.52
0.56
4.46
7.46
9.73
11.31
12.19
12.43
12.24
11.91
11.68
11.63
11.67
11.60
11.24
10.59
9.85
9.39
9.48
10.12
10.92
11.21
10.40
8.22
4.90
1.09
-2.50
-5.43
-7.69
-9.69
-12.03
-15.15
-19.18
-23.89
-28.80
-33.21
-36.38
-37.57
-36.26
-32.30
-26.08
-18.47
-10.54
-3.34
2.47
6.66
9.37
11.02
12.10
13.07
14.19
15.56
16.97
18.11
18.70
18.67
18.18
17.55
17.06
16.74
16.38
15.65
14.33
12.46
10.25
7.96
5.72
3.45
0.98
-1.78
-4.75
-7.75
-10.60
-13.26
-15.95
-19.01
-22.71
-27.05
-31.57
-35.37
-37.37
-36.70
-33.10
-27.09
-19.80
-12.59
-6.52
-1.98
1.28
3.93
6.62
9.61
12.70
15.42
17.32
18.23
18.35
18.10
17.86
17.84
17.97
17.98
17.61
16.68
15.19
13.23
10.85
8.00
4.63
0.83
-2.97
-5.99
-7.39
-6.61
-3.71
0.49
4.67
7.46
7.92
5.90
2.01
-2.68
-6.96
-9.85
-10.74
-9.38
-5.87
-0.61
5.70
12.14
17.75
21.81
24.11
24.93
24.94
24.76
24.67
24.59
24.23
23.31
21.88
20.24
18.80
17.86
17.48
17.54
17.81
18.06
18.03
17.48
16.22
14.17
11.53
8.62
5.81
3.30
1.02
-1.28
-3.90
-7.09
-10.93
-15.47
-20.64
-26.25
-31.84
-36.65
-39.75
-40.39
-38.27
-33.73
-27.60
-20.98
-14.72
-9.37
-5.02
-1.50
1.45
4.07
6.46
8.66
10.63
12.34
13.77
14.94
15.87
16.60
17.19
17.62
17.84
17.74
17.24
16.26
14.78
12.80
10.37
7.58
4.52
1.30
-1.91
-5.00
-7.98
-10.96
-14.18
-17.96
-22.46
-27.60
-32.91
-37.60
-40.67
-41.27
-38.97
-33.92
-26.89
-18.95
-11.21
-4.38
1.27
5.92
9.92
13.53
16.75
19.35
21.11
21.95
22.09
21.82
21.43
20.97
20.31
19.28
17.86
16.21
14.71
13.68
13.30
13.46
13.79
13.86
13.30
11.95
9.92
7.51
5.04
2.76
0.75
-1.12
-3.04
-5.24
-7.89
-11.07
-14.78
-18.88
-22.99
-26.53
-28.78
-29.00
-26.74
-21.97
-15.17
-7.26
0.62
7.47
12.62
15.99
17.98
19.29
20.56
22.05
23.66
24.90
25.34
24.83
23.58
21.99
20.38
18.84
17.22
15.45
13.61
12.00
11.01
10.77
11.05
11.29
10.89
9.40
6.78
3.35
-0.39
-3.92
-6.84
-9.00
-10.60
-12.06
-14.01
-16.99
-21.16
-26.12
-30.92
-34.41
-35.59
-33.99
-29.77
-23.66
-16.58
-9.42
-2.80
2.93
7.58
11.06
13.36
14.64
15.17
15.32
15.41
15.60
15.90
16.10
16.06
15.72
15.21
14.64
14.12
13.56
12.82
11.85
10.74
9.71
8.97
8.50
7.98
6.91
4.87
1.70
-2.35
-6.68
-10.65
-13.84
-16.24
-18.26
-20.52
-23.62
-27.89
-33.31
-39.49
-45.76
-51.30
-55.29
-57.15
-56.63
-53.89
-49.54
-44.44
-39.50
-35.43
-32.65
-31.23
-30.97
-31.59
-32.77
-34.38
-36.47
-39.31
-43.36
-48.99
-56.29
-64.79
-73.40
-80.53
-84.25
-82.51
-73.34
-55.14
-27.24
9.52
52.38
96.88
137.59
169.20
187.52
190.19
176.91
149.49
111.55
68.00
24.19
-15.21
-46.96
-69.71
-83.66
-89.83
-89.29
-82.80
-70.80
-53.43
-30.72
-2.74
30.01
66.23
103.41
138.24
167.50
189.15
203.00
210.40
213.14
212.26
207.72
198.86
185.33
167.72
147.48
126.28
105.27
84.85
64.95
45.52
26.93
9.85
-4.95
-16.84
-25.35
-30.19
-31.23
-28.78
-23.83
-17.92
-12.78
-9.58
-8.61
-9.30
-10.73
-12.28
-14.01
-16.64
-21.04
-27.74
-36.53
-46.45
-56.13
-64.17
-69.59
-72.01
-71.66
-69.06
-64.73
-58.80
-51.06
-41.25
-29.39
-16.18
-2.88
8.95
18.09
23.84
26.12
25.09
20.97
14.01
4.74
-5.69
-15.64
-23.33
-27.44
-27.57
-24.29
-18.78
-12.23
-5.56
0.69
6.08
10.07
12.02
11.42
8.11
2.36
-5.17
-13.80
-22.79
-31.47
-39.17
-45.22
-49.15
-50.74
-50.20
-48.04
-44.92
-41.49
-38.41
-36.33
-35.93
-37.75
-41.73
-47.06
-52.08
-54.82
-53.63
-47.86
-38.09
-25.92
-13.53
-2.94
4.31
7.47
6.62
2.64
-2.83
-7.78
-10.27
-9.34
-5.43
-0.22
4.04
5.88
5.53
4.94
6.55
11.66
19.34
26.82
31.25
31.33
27.69
21.84
14.29
3.70
-12.30
-35.11
-63.43
-93.03
-118.38
-134.96
-141.11
-138.07
-128.94
-117.13
-105.46
-95.83
-89.19
-85.48
-83.44
-81.20
-77.07
-70.22
-60.67
-48.58
-33.66
-15.21
6.81
30.93
54.02
72.59
84.54
90.33
92.78
95.38
100.43
108.00
116.29
123.01
126.79
127.92
128.08
129.31
132.94
138.90
145.50
149.84
148.59
138.59
117.45
84.07
39.60
-11.97
-63.71
-107.10
-134.18
-140.38
-126.21
-97.17
-61.75
-28.30
-2.56
13.57
21.32
23.42
22.57
20.44
17.58
13.81
8.77
2.20
-5.99
-15.81
-27.25
-40.41
-55.19
-70.74
-85.40
-96.96
-103.43
-103.92
-99.15
-91.31
-83.20
-77.15
-74.24
-74.14
-75.49
-76.73
-76.79
-75.39
-73.05
-70.70
-69.27
-69.21
-70.30
-71.73
-72.23
-70.54
-65.81
-57.97
-47.73
-36.31
-25.03
-14.88
-6.29
0.74
6.44
11.03
14.69
17.53
19.66
21.24
22.35
22.96
23.00
22.47
21.65
21.00
21.03
21.96
23.54
25.18
26.09
25.81
24.23
21.70
18.78
15.95
13.45
11.24
9.12
6.79
4.02
0.71
-3.08
-7.16
-11.14
-14.49
-16.52
-16.58
-14.26
-9.67
-3.47
3.31
9.60
14.66
18.29
20.71
22.34
23.47
24.14
24.23
23.63
22.38
20.68
18.84
17.11
15.74
14.90
14.68
14.90
15.17
14.90
13.58
11.04
7.56
3.83
0.51
-2.03
-3.91
-5.65
-7.85
-11.01
-15.31
-20.66
-26.66
-32.58
-37.35
-39.72
-38.54
-33.27
-24.35
-13.19
-1.72
8.32
16.02
21.36
25.02
27.73
29.86
31.29
31.72
31.00
29.46
27.79
26.63
26.30
26.63
27.17
27.45
27.25
26.57
25.45
23.93
21.87
19.13
15.65
11.55
7.08
2.55
-1.82
-5.91
-9.75
-13.59
-17.71
-22.44
-27.86
-33.62
-38.84
-42.34
-42.98
-40.19
-34.17
-25.87
-16.57
-7.48
0.72
7.83
13.96
19.27
23.72
27.16
29.46
30.70
31.18
31.35
31.55
31.95
32.45
32.92
33.22
33.34
33.36
33.28
33.07
32.55
31.59
30.12
28.15
25.72
22.85
19.53
15.73
11.47
6.93
2.40
-1.81
-5.50
-8.71
-11.87
-15.55
-20.30
-26.19
-32.63
-38.36
-41.81
-41.77
-37.79
-30.50
-21.26
-11.70
-3.08
4.03
9.67
14.30
18.27
21.72
24.49
26.33
27.10
26.88
25.99
24.81
23.77
23.05
22.66
22.32
21.65
20.30
18.09
15.20
12.00
8.94
6.25
3.86
1.33
-1.89
-6.27
-11.87
-18.36
-25.15
-31.61
-37.46
-42.83
-48.20
-54.17
-61.12
-69.09
-77.77
-86.68
-95.23
-102.91
-109.09
-113.00
-113.71
-110.39
-102.75
-91.24
-77.13
-62.05
-47.51
-34.36
-22.81
-12.68
-3.75
3.96
10.28
15.36
20.04
25.85
34.51
47.03
62.93
80.13
95.70
107.26
114.26
118.18
121.79
127.50
135.96
145.60
153.53
157.04
154.97
148.16
138.62
128.48
118.89
109.85
100.53
89.89
77.25
62.61
46.88
31.57
18.35
8.24
0.89
-5.37
-12.70
-22.33
-33.53
-43.45
-48.18
-44.39
-31.13
-10.27
14.06
37.04
54.92
66.06
71.05
71.92
70.92
69.49
67.88
65.57
62.01
57.37
52.46
48.20
44.85
41.63
37.15
30.32
21.14
10.73
0.78
-7.36
-13.24
-17.36
-20.72
-24.26
-28.40
-33.05
-37.83
-42.22
-45.83
-48.47
-50.08
-50.80
-50.90
-50.79
-50.92
-51.71
-53.33
-55.49
-57.41
-57.87
-55.56
-49.50
-39.46
-26.12
-10.95
4.18
17.43
27.50
33.97
37.16
38.01
37.61
36.82
36.07
35.37
34.53
33.41
32.02
30.56
29.32
28.45
27.89
27.40
26.67
25.45
23.65
21.38
18.84
16.28
13.83
11.53
9.33
7.12
4.85
2.40
-0.38
-3.68
-7.60
-11.97
-16.25
-19.64
-21.52
-21.69
-20.60
-19.20
-18.61
-19.59
-22.22
-25.73
-28.75
-29.51
-26.47
-18.73
-6.51
8.80
24.84
38.80
48.03
50.68
46.01
34.50
17.73
-2.00
-22.22
-40.71
-55.88
-66.98
-74.05
-77.69
-78.84
-78.49
-77.49
-76.44
-75.64
-75.11
-74.62
-73.87
-72.50
-70.18
-66.62
-61.66
-55.37
-48.26
-41.11
-34.87
-30.15
-27.00
-24.81
-22.72
-20.17
-17.29
-14.86
-13.74
-14.19
-15.50
-16.12
-14.41
-9.39
-1.32
8.49
18.25
26.56
32.92
37.73
41.81
45.69
49.28
51.85
52.55
50.99
47.58
43.39
39.77
37.65
37.12
37.43
37.41
36.02
32.90
28.47
23.73
19.79
17.32
16.36
16.34
16.40
15.74
13.90
10.78
6.54
1.45
-4.27
-10.36
-16.49
-22.20
-27.13
-31.17
-34.69
-38.36
-42.94
-48.69
-55.15
-61.04
-64.75
-64.98
-61.20
-53.88
-44.24
-33.75
-23.63
-14.63
-6.96
-0.48
5.09
10.07
14.63
18.75
22.20
24.63
25.76
25.45
23.87
21.25
17.83
13.68
8.89
3.66
-1.59
-6.34
-10.28
-13.49
-16.42
-19.47
-22.72
-25.70
-27.74
-28.52
-28.39
-28.35
-29.57
-32.74
-37.76
-43.88
-50.12
-55.76
-60.48
-64.22
-66.95
-68.42
-68.31
-66.39
-62.70
-57.57
-51.34
-44.26
-36.36
-27.62
-18.17
-8.50
0.53
7.82
12.33
13.46
11.26
6.60
0.96
-3.92
-6.58
-6.33
-3.38
1.35
6.72
11.93
16.67
21.06
25.24
29.03
31.81
32.87
31.72
28.53
24.12
19.74
16.59
15.50
16.72
19.72
23.23
25.57
25.22
21.56
15.32
8.40
3.11
1.09
2.71
7.22
13.46
20.55
28.21
36.34
44.47
51.47
55.98
57.24
55.72
53.08
51.36
51.95
54.88
58.99
62.59
64.43
64.26
62.77
61.05
59.94
59.49
58.96
57.18
53.15
46.50
37.59
27.34
16.84
7.01
-1.42
-8.09
-12.90
-16.04
-18.03
-19.59
-21.48
-24.29
-28.24
-33.06
-38.00
-41.91
-43.53
-41.80
-36.39
-27.91
-18.02
-8.89
-2.47
0.23
-0.50
-3.26
-6.28
-8.14
-8.25
-6.86
-4.78
-2.85
-1.71
-1.60
-2.46
-4.14
-6.37
-8.89
-11.34
-13.32
-14.51
-14.80
-14.37
-13.67
-13.22
-13.34
-14.11
-15.25
-16.35
-17.06
-17.27
-17.11
-16.95
-17.26
-18.52
-21.15
-25.30
-30.68
-36.45
-41.36
-44.07
-43.61
-39.73
-33.00
-24.57
-15.75
-7.60
-0.72
4.72
8.78
11.62
13.41
14.28
14.42
14.09
13.58
13.14
12.89
12.82
12.73
12.38
11.52
10.06
8.07
5.78
3.51
1.52
-0.04
-1.14
-1.89
-2.46
-3.03
-3.81
-5.01
-6.83
-9.39
-12.66
-16.39
-20.11
-23.35
-25.78
-27.49
-28.96
-30.88
-33.81
-37.79
-42.12
-45.51
-46.61
-44.49
-39.21
-31.64
-23.18
-15.04
-7.91
-1.79
3.67
8.72
13.30
16.98
19.41
20.53
20.73
20.65
20.78
21.35
22.12
22.70
22.70
21.88
20.18
17.69
14.62
11.30
8.22
5.83
4.43
3.98
4.05
4.02
3.44
2.30
1.12
0.72
1.87
4.94
9.70
15.29
20.37
23.35
22.57
16.71
5.18
-11.44
-31.28
-51.40
-68.48
-79.76
-83.93
-81.46
-74.27
-64.94
-55.92
-48.83
-44.20
-41.66
-40.29
-39.05
-37.10
-34.05
-29.96
-25.29
-20.62
-16.37
-12.75
-9.58
-6.58
-3.41
0.10
3.90
7.81
11.57
14.97
17.86
20.21
22.06
23.44
24.27
24.33
23.42
21.53
18.91
16.07
13.47
11.35
9.48
7.37
4.51
0.66
-4.12
-9.42
-14.63
-18.98
-21.58
-21.61
-18.40
-11.84
-2.49
8.38
19.20
28.67
36.18
42.03
47.01
51.92
57.01
61.86
65.50
66.81
64.84
59.16
50.05
38.67
26.93
16.91
10.18
7.13
6.78
7.38
7.32
6.04
4.08
2.56
2.14
2.49
2.41
0.77
-2.65
-6.94
-10.50
-12.03
-11.31
-9.30
-7.64
-7.92
-10.92
-16.26
-22.50
-27.45
-28.94
-25.47
-16.83
-4.22
10.07
23.38
33.64
39.91
42.50
42.57
41.44
40.11
39.02
38.27
37.83
37.73
37.98
38.44
38.75
38.33
36.65
33.43
28.93
23.79
18.86
14.90
12.26
10.84
10.21
9.76
8.98
7.53
5.18
1.89
-2.31
-7.18
-12.34
-17.33
-21.77
-25.64
-29.27
-33.25
-38.09
-43.93
-50.32
-56.32
-60.72
-62.37
-60.55
-55.11
-46.63
-36.29
-25.62
-16.06
-8.60
-3.59
-0.75
0.56
1.05
1.24
1.35
1.39
1.24
0.80
0.01
-1.05
-2.15
-3.01
-3.34
-2.96
-1.92
-0.44
1.22
2.86
4.38
5.82
7.20
8.46
9.48
10.14
10.28
9.92
9.13
8.01
6.62
4.90
2.70
-0.26
-4.21
-9.25
-15.20
-21.52
-27.31
-31.51
-33.12
-31.67
-27.46
-21.48
-15.10
-9.46
-5.01
-1.45
1.92
5.63
9.68
13.42
16.00
16.89
16.25
14.87
13.72
13.46
14.15
15.35
16.42
16.86
16.54
15.60
14.35
13.09
11.92
10.79
9.54
7.93
5.82
3.17
-0.01
-3.70
-8.08
-13.45
-20.14
-28.25
-37.55
-47.36
-56.71
-64.63
-70.25
-72.98
-72.44
-68.54
-61.45
-51.81
-40.70
-29.52
-19.59
-11.86
-6.54
-3.19
-0.92
1.19
3.73
6.83
10.21
13.38
15.89
17.60
18.76
19.98
22.08
25.84
31.73
39.79
49.59
60.38
71.23
81.13
89.17
94.52
96.56
94.99
89.97
82.12
72.42
62.02
51.86
42.50
33.97
25.86
17.51
8.34
-1.73
-12.10
-21.54
-28.64
-32.24
-32.00
-28.54
-23.16
-17.26
-11.88
-7.38
-3.58
-0.14
3.17
6.33
9.29
12.31
16.04
21.28
28.53
37.56
47.31
56.25
62.91
66.46
66.94
64.98
61.37
56.61
50.88
44.12
36.38
27.90
19.18
10.66
2.45
-5.70
-14.28
-23.64
-33.72
-43.97
-53.47
-61.39
-67.22
-71.14
-73.76
-75.95
-78.40
-81.45
-84.96
-88.30
-90.56
-90.74
-88.07
-82.15
-73.13
-61.67
-48.72
-35.36
-22.48
-10.83
-0.88
7.08
13.11
17.52
20.89
23.84
26.70
29.47
31.65
32.71
32.35
30.80
28.79
27.23
26.84
27.72
29.37
30.86
31.36
30.46
28.28
25.39
22.40
19.67
17.17
14.63
11.73
8.33
4.49
0.26
-4.42
-9.91
-16.62
-24.78
-34.05
-43.41
-51.35
-56.27
-57.07
-53.49
-46.37
-37.21
-27.78
-19.44
-12.87
-7.91
-3.91
-0.15
3.84
8.08
12.34
16.31
19.79
22.71
24.96
26.47
27.24
27.63
28.41
30.75
35.68
43.47
53.22
62.86
69.80
71.82
67.86
58.36
44.94
29.82
15.06
2.12
-8.29
-16.05
-21.50
-25.31
-28.38
-31.62
-35.74
-40.79
-46.00
-50.01
-51.28
-48.86
-42.69
-33.72
-23.48
-13.50
-4.89
1.88
6.80
10.11
12.02
12.74
12.48
11.54
10.37
9.45
9.18
9.74
11.01
12.60
13.94
14.45
13.75
11.81
8.93
5.63
2.45
-0.32
-2.71
-5.18
-8.21
-12.12
-16.75
-21.57
-25.84
-29.00
-30.95
-32.11
-33.31
-35.58
-39.78
-46.28
-54.74
-63.90
-71.77
-76.08
-74.93
-67.53
-54.59
-38.07
-20.45
-3.81
10.76
23.26
34.21
44.03
52.61
59.42
63.83
65.61
65.18
63.42
61.31
59.48
58.05
56.70
55.00
52.67
49.74
46.53
43.43
40.70
38.28
35.84
32.81
28.75
23.52
17.35
10.82
4.55
-1.03
-5.75
-9.77
-13.35
-16.75
-20.26
-24.17
-28.86
-34.70
-41.74
-49.47
-56.75
-61.98
-63.76
-61.31
-54.84
-45.38
-34.39
-23.33
-13.31
-5.05
1.13
5.12
7.06
7.32
6.43
4.98
3.39
1.88
0.39
-1.19
-2.81
-4.11
-4.52
-3.54
-0.97
2.79
6.78
9.81
10.90
9.62
6.40
2.38
-0.93
-2.08
-0.28
4.42
10.97
17.65
22.59
24.37
22.39
17.02
9.50
1.48
-5.16
-8.73
-7.94
-2.16
8.23
21.81
36.27
49.18
58.67
64.09
65.98
65.49
63.75
61.28
57.91
53.18
46.86
39.15
30.72
22.31
14.45
7.33
0.92
-4.76
-9.58
-13.28
-15.81
-17.40
-18.62
-20.14
-22.40
-25.44
-28.72
-31.50
-33.12
-33.37
-32.61
-31.69
-31.60
-33.12
-36.58
-41.63
-47.36
-52.42
-55.29
-54.70
-50.03
-41.63
-30.67
-18.92
-8.03
0.96
7.90
13.39
18.22
22.96
27.64
31.89
35.20
37.21
37.93
37.57
36.47
34.96
33.29
31.71
30.56
30.12
30.55
31.69
33.03
33.82
33.28
30.92
26.73
21.29
15.57
10.57
7.03
5.06
4.24
3.69
2.45
-0.30
-5.01
-11.69
-19.86
-28.63
-36.78
-42.97
-46.09
-45.51
-41.29
-34.25
-25.65
-16.91
-9.16
-2.98
1.58
4.90
7.43
9.44
10.82
11.22
10.26
7.93
4.67
1.37
-1.00
-1.79
-0.94
0.96
3.04
4.40
4.52
3.28
0.91
-2.20
-5.62
-8.99
-12.02
-14.48
-16.25
-17.35
-17.94
-18.45
-19.40
-21.37
-24.80
-29.77
-35.86
-42.08
-47.05
-49.34
-48.02
-42.89
-34.69
-24.79
-14.80
-6.01
0.91
5.98
9.62
12.33
14.37
15.69
16.07
15.35
13.60
11.24
8.86
6.98
5.94
5.81
6.36
7.27
8.23
8.97
9.29
8.99
7.94
6.06
3.46
0.40
-2.77
-5.75
-8.47
-11.13
-14.15
-17.88
-22.45
-27.49
-32.23
-35.63
-36.70
-34.83
-29.99
-22.81
-14.34
-5.82
1.79
8.06
13.09
17.32
21.13
24.65
27.58
29.42
29.74
28.53
26.23
23.60
21.43
20.26
20.21
21.02
22.16
23.08
23.33
22.66
21.05
18.61
15.53
12.00
8.21
4.23
0.17
-4.00
-8.22
-12.34
-16.02
-18.74
-20.00
-19.37
-16.81
-12.56
-7.12
-1.04
5.21
11.23
16.64
20.96
23.65
24.24
22.57
18.92
14.03
8.88
4.44
1.42
0.09
0.30
1.49
3.00
4.15
4.52
3.97
2.66
0.92
-1.00
-3.00
-5.25
-7.99
-11.51
-15.88
-20.81
-25.72
-29.73
-31.93
-31.59
-28.35
-22.38
-14.37
-5.39
3.38
10.83
16.26
19.38
20.34
19.60
17.71
15.19
12.32
9.27
6.10
2.92
-0.09
-2.72
-4.83
-6.44
-7.70
-8.80
-9.82
-10.69
-11.18
-11.13
-10.62
-10.11
-10.28
-11.87
-15.25
-20.19
-25.66
-30.07
-31.63
-28.93
-21.45
-9.85
4.20
18.56
31.30
41.22
48.11
52.51
55.16
56.61
57.00
56.21
54.23
51.45
48.66
46.76
46.39
47.63
50.04
52.90
55.39
56.86
56.73
54.56
50.10
43.44
35.11
25.92
16.63
7.64
-1.30
-10.94
-22.15
-35.49
-50.85
-67.40
-83.67
-97.79
-107.86
-112.35
-110.54
-102.82
-90.69
-76.29
-61.85
-49.01
-38.47
-30.11
-23.25
-16.99
-10.41
-2.87
5.79
14.82
22.54
26.75
25.54
18.43
7.04
-4.99
-13.05
-13.19
-3.65
14.44
37.39
60.25
78.53
89.43
92.35
88.46
79.74
68.06
54.72
40.52
26.12
12.35
0.10
-10.07
-18.39
-25.93
-34.22
-44.45
-56.88
-70.52
-83.32
-92.83
-97.09
-95.17
-87.50
-75.57
-61.36
-46.61
-32.36
-18.90
-6.10
6.12
17.48
27.22
34.54
39.04
41.02
41.46
41.59
42.36
44.09
46.55
49.25
51.79
54.12
56.36
58.63
60.80
62.35
62.51
60.41
55.31
46.90
35.45
21.92
7.80
-5.22
-15.81
-23.54
-28.99
-33.50
-38.50
-44.84
-52.30
-59.68
-65.31
-67.77
-66.37
-61.41
-53.87
-45.02
-35.91
-27.24
-19.28
-12.21
-6.16
-1.35
2.00
3.83
4.36
4.02
3.34
2.83
2.78
3.26
4.04
4.73
4.93
4.35
2.99
1.10
-0.88
-2.51
-3.43
-3.43
-2.33
0.02
3.80
9.01
15.34
22.06
28.15
32.52
34.36
33.34
29.64
23.73
16.34
8.26
0.40
-6.24
-10.66
-12.08
-10.27
-5.71
0.53
7.11
12.86
17.12
19.78
21.19
21.80
21.93
21.72
21.10
19.96
18.25
16.13
13.84
11.70
10.03
9.01
8.68
8.94
9.57
10.30
10.77
10.65
9.60
7.40
4.04
-0.23
-4.90
-9.33
-12.94
-15.41
-16.84
-17.77
-18.93
-21.04
-24.48
-29.06
-34.02
-38.21
-40.45
-39.86
-36.27
-30.22
-22.90
-15.73
-9.98
-6.45
-5.28
-6.01
-7.85
-9.92
-11.51
-12.26
-12.14
-11.45
-10.71
-10.47
-11.21
-13.11
-15.95
-19.09
-21.66
-22.83
-22.14
-19.74
-16.28
-12.76
-10.18
-9.15
-9.76
-11.40
-13.03
-13.38
-11.51
-7.10
-0.76
6.17
12.09
15.80
17.03
16.54
15.81
16.33
18.98
23.65
29.40
34.98
39.24
41.55
41.81
40.26
37.34
33.45
29.00
24.38
20.10
16.64
14.38
13.38
13.36
13.79
14.11
13.99
13.36
12.41
11.25
9.84
7.90
5.12
1.51
-2.54
-6.22
-8.64
-9.06
-7.22
-3.32
1.89
7.35
11.77
13.92
12.90
8.50
1.29
-7.46
-16.17
-23.37
-28.00
-29.46
-27.64
-22.74
-15.44
-6.98
0.88
6.12
7.17
3.51
-3.83
-12.43
-19.22
-21.49
-17.81
-8.49
4.59
18.85
31.73
41.40
46.98
48.36
45.97
40.48
32.78
23.89
14.88
6.70
-0.09
-5.42
-9.68
-13.58
-17.79
-22.75
-28.54
-34.83
-40.95
-46.11
-49.50
-50.53
-49.01
-45.22
-39.88
-34.00
-28.55
-24.27
-21.47
-20.00
-19.45
-19.37
-19.44
-19.47
-19.33
-18.81
-17.54
-15.13
-11.38
-6.57
-1.43
3.05
6.08
7.42
7.53
7.28
7.51
8.59
10.18
11.55
11.89
10.79
8.38
5.21
1.88
-1.21
-4.05
-6.95
-10.33
-14.49
-19.51
-25.12
-30.74
-35.56
-38.80
-39.93
-38.92
-36.22
-32.57
-28.72
-25.10
-21.80
-18.72
-15.83
-13.31
-11.58
-11.01
-11.63
-13.10
-14.68
-15.63
-15.39
-13.79
-10.98
-7.31
-3.22
0.84
4.43
7.14
8.71
9.34
9.79
11.34
15.36
22.62
32.74
43.96
53.75
59.68
60.48
56.49
49.56
42.31
37.23
36.09
39.65
47.88
60.05
74.80
90.18
103.78
113.26
116.75
113.57
104.34
90.80
75.26
59.88
46.20
34.86
25.74
18.17
11.43
4.95
-1.47
-7.58
-12.89
-16.78
-18.80
-18.83
-17.19
-14.58
-12.03
-10.62
-11.20
-14.16
-19.18
-25.36
-31.41
-36.22
-39.25
-40.70
-41.36
-42.14
-43.61
-45.72
-48.06
-50.17
-51.94
-53.61
-55.42
-57.27
-58.48
-58.17
-55.74
-51.38
-46.02
-40.94
-37.01
-34.34
-32.25
-29.80
-26.28
-21.66
-16.51
-11.69
-7.91
-5.48
-4.30
-3.99
-4.18
-4.59
-5.13
-5.83
-6.80
-8.21
-10.19
-12.87
-16.29
-20.41
-25.06
-29.93
-34.53
-38.34
-40.90
-41.95
-41.54
-40.00
-37.90
-35.87
-34.43
-33.83
-34.11
-35.02
-36.18
-37.07
-37.09
-35.67
-32.41
-27.30
-20.81
-13.80
-7.21
-1.73
2.46
5.67
8.38
10.97
13.35
15.07
15.57
14.55
12.19
9.13
6.24
4.20
3.34
3.50
4.23
4.96
5.32
5.18
4.60
3.75
2.66
1.34
-0.30
-2.29
-4.54
-6.87
-9.07
-11.02
-12.74
-14.40
-16.32
-18.88
-22.30
-26.59
-31.48
-36.46
-41.01
-44.68
-47.18
-48.19
-47.28
-43.79
-37.12
-27.05
-14.07
0.46
14.73
27.00
36.13
41.87
44.68
45.34
44.50
42.62
39.98
36.97
34.20
32.28
31.59
31.90
32.43
32.24
30.65
27.68
23.93
20.24
17.11
14.47
11.66
7.98
3.19
-2.24
-7.33
-11.08
-13.08
-13.77
-14.30
-16.06
-20.05
-26.51
-34.72
-43.17
-50.00
-53.35
-51.98
-45.48
-34.44
-20.26
-4.85
9.89
22.47
32.04
38.40
41.86
42.98
42.46
40.90
38.85
36.68
34.59
32.60
30.61
28.55
26.48
24.55
22.99
21.96
21.47
21.32
21.15
20.65
19.60
17.98
15.91
13.49
10.77
7.69
4.22
0.41
-3.57
-7.47
-11.14
-14.60
-18.19
-22.39
-27.61
-33.88
-40.64
-46.84
-51.09
-52.23
-49.75
-43.90
-35.59
-26.05
-16.37
-7.30
0.78
7.71
13.31
17.46
20.11
21.47
21.98
22.12
22.24
22.36
22.31
21.87
20.99
19.89
18.91
18.40
18.52
19.26
20.44
21.77
22.91
23.44
22.96
21.12
17.91
13.60
8.76
4.02
-0.18
-3.71
-6.78
-9.83
-13.39
-17.88
-23.54
-30.18
-37.18
-43.44
-47.53
-48.10
-44.26
-36.07
-24.57
-11.67
0.49
10.08
16.10
18.54
18.08
15.80
12.72
9.73
7.53
6.61
7.20
9.12
11.69
13.94
15.10
15.02
14.33
14.20
15.77
19.61
25.47
32.36
38.92
43.92
46.47
46.19
43.23
38.04
31.32
23.80
16.11
8.65
1.67
-4.88
-11.08
-17.06
-22.88
-28.36
-33.12
-36.45
-37.60
-35.94
-31.35
-24.34
-15.86
-7.13
0.87
7.54
12.72
16.49
19.00
20.32
20.44
19.45
17.63
15.53
13.83
13.11
13.56
14.96
16.81
18.52
19.69
20.20
20.17
19.76
19.05
17.97
16.31
13.93
10.84
7.26
3.61
0.29
-2.40
-4.49
-6.29
-8.37
-11.27
-15.40
-20.84
-27.23
-33.87
-39.71
-43.64
-44.61
-41.96
-35.63
-26.24
-14.97
-3.25
7.63
16.79
23.85
28.88
32.15
34.02
34.88
35.07
34.87
34.42
33.76
32.76
31.35
29.55
27.54
25.63
24.02
22.81
21.82
20.82
19.52
17.76
15.51
12.85
9.89
6.70
3.23
-0.63
-5.08
-10.33
-16.64
-24.12
-32.75
-42.13
-51.37
-59.10
-63.77
-64.05
-59.41
-50.44
-38.80
-26.74
-16.30
-8.70
-4.09
-1.74
-0.60
0.12
0.58
0.52
-0.50
-2.56
-5.21
-7.58
-8.80
-8.52
-6.99
-5.09
-3.76
-3.63
-4.74
-6.76
-9.19
-11.66
-13.90
-15.60
-16.33
-15.65
-13.37
-9.90
-6.22
-3.60
-3.05
-4.89
-8.59
-12.96
-16.66
-18.54
-18.00
-14.95
-9.69
-2.69
5.56
14.61
23.99
33.07
41.01
46.76
49.53
48.94
45.34
39.72
33.46
27.99
24.48
23.60
25.55
30.07
36.47
43.68
50.39
55.24
57.16
55.60
50.64
42.86
33.25
22.78
12.29
2.24
-7.36
-16.86
-26.69
-36.99
-47.22
-56.14
-62.10
-63.64
-60.02
-51.64
-39.88
-26.66
-13.82
-2.65
6.26
12.96
17.75
20.96
22.75
23.22
22.47
20.84
18.88
17.20
16.30
16.30
16.98
17.82
18.34
18.21
17.39
16.00
14.15
11.87
9.09
5.74
1.90
-2.27
-6.51
-10.66
-14.70
-18.87
-23.60
-29.30
-36.01
-43.16
-49.54
-53.51
-53.68
-49.37
-40.97
-29.78
-17.55
-5.89
4.19
12.34
18.76
23.85
27.97
31.29
33.80
35.40
36.07
35.95
35.33
34.55
33.86
33.29
32.60
31.55
30.05
28.28
26.64
25.42
24.62
23.83
22.43
19.94
16.28
11.84
7.22
3.03
-0.45
-3.29
-5.85
-8.66
-12.29
-17.24
-23.80
-31.81
-40.56
-48.73
-54.72
-57.03
-54.86
-48.30
-38.37
-26.64
-14.69
-3.71
5.73
13.61
20.16
25.56
29.82
32.85
34.55
35.12
34.94
34.59
34.52
34.95
35.74
36.59
37.16
37.27
36.91
36.25
35.42
34.45
33.21
31.49
29.09
25.91
22.11
18.00
13.91
10.13
6.72
3.54
0.32
-3.19
-7.21
-11.82
-17.11
-23.14
-29.90
-37.19
-44.50
-50.87
-55.02
-55.67
-52.02
-44.13
-33.02
-20.48
-8.45
1.57
8.88
13.62
16.40
17.83
18.30
17.98
17.00
15.65
14.44
13.88
14.33
15.77
17.89
20.23
22.47
24.48
26.39
28.32
30.25
31.82
32.46
31.57
28.85
24.50
19.12
13.54
8.39
3.86
-0.35
-4.80
-10.02
-16.18
-23.06
-30.03
-36.23
-40.82
-43.06
-42.49
-39.07
-33.15
-25.46
-16.88
-8.29
-0.33
6.67
12.61
17.50
21.30
23.89
25.11
24.88
23.31
20.83
18.08
15.79
14.52
14.54
15.76
17.72
19.81
21.46
22.20
21.87
20.51
18.36
15.65
12.56
9.12
5.27
0.96
-3.70
-8.40
-12.79
-16.60
-19.85
-22.87
-26.14
-30.09
-34.86
-40.19
-45.53
-50.21
-53.56
-55.05
-54.24
-50.85
-44.87
-36.65
-26.87
-16.50
-6.53
2.26
9.50
15.18
19.58
23.01
25.73
27.86
29.39
30.26
30.41
29.81
28.54
26.82
24.94
23.26
22.00
21.17
20.61
20.02
19.22
18.20
17.09
15.99
14.86
13.32
10.85
7.01
1.70
-4.75
-11.62
-18.07
-23.43
-27.35
-29.84
-31.18
-31.80
-32.13
-32.66
-33.85
-36.02
-39.18
-42.78
-45.68
-46.41
-43.55
-36.36
-25.12
-11.14
3.65
17.31
28.53
36.89
42.66
46.46
48.80
49.94
49.92
48.88
47.20
45.49
44.37
44.11
44.51
44.96
44.79
43.69
41.82
39.66
37.71
36.07
34.36
31.90
28.07
22.66
15.98
8.78
1.98
-3.69
-7.93
-10.93
-13.26
-15.64
-18.69
-22.77
-27.90
-33.77
-39.84
-45.43
-49.73
-51.91
-51.25
-47.41
-40.58
-31.61
-21.77
-12.41
-4.58
1.33
5.49
8.39
10.53
12.17
13.24
13.56
13.05
11.85
10.37
9.15
8.56
8.67
9.23
9.70
9.63
8.85
7.55
6.20
5.20
4.64
4.13
3.01
0.63
-3.24
-8.24
-13.49
-17.98
-20.99
-22.46
-22.98
-23.58
-25.26
-28.56
-33.37
-38.93
-44.09
-47.65
-48.73
-46.90
-42.29
-35.47
-27.29
-18.67
-10.45
-3.21
2.74
7.31
10.61
12.89
14.46
15.63
16.66
17.63
18.41
18.81
18.71
18.25
17.79
17.78
18.44
19.63
20.89
21.71
21.78
21.09
19.86
18.22
16.11
13.31
9.69
5.40
0.92
-3.17
-6.46
-8.99
-11.26
-14.02
-17.92
-23.28
-29.87
-36.96
-43.44
-48.10
-49.86
-48.15
-43.06
-35.31
-26.07
-16.54
-7.64
0.09
6.44
11.28
14.49
16.01
15.94
14.66
12.76
10.83
9.27
8.12
7.20
6.19
4.96
3.62
2.49
2.01
2.44
3.81
5.82
7.97
9.69
10.55
10.37
9.18
7.12
4.31
0.82
-3.26
-7.79
-12.56
-17.40
-22.26
-27.12
-31.84
-35.90
-38.44
-38.47
-35.36
-29.16
-20.79
-11.70
-3.40
3.10
7.48
10.08
11.52
12.31
12.74
12.83
12.52
11.84
10.87
9.72
8.46
7.11
5.66
4.12
2.58
1.18
0.02
-0.81
-1.32
-1.60
-1.78
-2.05
-2.61
-3.57
-4.96
-6.71
-8.77
-11.14
-14.04
-17.82
-22.89
-29.37
-36.88
-44.51
-50.85
-54.47
-54.35
-50.22
-42.72
-33.14
-23.00
-13.57
-5.57
0.87
6.00
10.20
13.70
16.53
18.58
19.78
20.22
20.17
20.09
20.31
21.01
22.11
23.28
24.17
24.57
24.48
24.01
23.31
22.30
20.76
18.34
14.92
10.61
5.83
1.04
-3.41
-7.44
-11.18
-14.85
-18.67
-22.82
-27.44
-32.67
-38.47
-44.41
-49.57
-52.65
-52.39
-47.98
-39.59
-28.22
-15.47
-2.94
8.24
17.56
24.98
30.62
34.50
36.55
36.74
35.35
33.03
30.60
28.75
27.81
27.59
27.66
27.55
27.02
26.13
25.10
24.12
23.23
22.24
20.82
18.59
15.30
10.91
5.65
-0.01
-5.54
-10.48
-14.67
-18.25
-21.62
-25.23
-29.50
-34.64
-40.59
-46.92
-52.86
-57.34
-59.21
-57.57
-52.10
-43.21
-31.99
-19.90
-8.31
1.76
9.80
15.69
19.52
21.49
21.89
21.12
19.71
18.21
17.12
16.61
16.63
16.84
16.88
16.46
15.55
14.39
13.34
12.70
12.57
12.72
12.70
11.99
10.20
7.31
3.66
-0.17
-3.67
-6.65
-9.25
-11.94
-15.23
-19.45
-24.59
-30.31
-35.97
-40.72
-43.70
-44.08
-41.36
-35.53
-27.10
-17.14
-6.90
2.47
10.24
16.14
20.29
23.00
24.63
25.53
26.03
26.45
26.98
27.60
28.08
28.07
27.29
25.72
23.61
21.35
19.27
17.41
15.53
13.24
10.26
6.56
2.44
-1.68
-5.49
-8.94
-12.28
-15.94
-20.31
-25.61
-31.75
-38.33
-44.69
-49.94
-53.08
-53.26
-50.01
-43.46
-34.41
-24.09
-13.79
-4.46
3.45
9.94
15.20
19.43
22.71
25.00
26.32
26.81
26.68
26.21
25.66
25.22
24.98
24.94
24.98
24.97
24.76
24.27
23.48
22.44
21.12
19.41
17.10
14.02
10.22
6.00
1.82
-1.75
-4.47
-6.46
-8.22
-10.46
-13.80
-18.48
-24.26
-30.42
-35.84
-39.41
-40.17
-37.61
-31.80
-23.33
-13.15
-2.27
8.39
18.14
26.55
33.37
38.47
41.77
43.34
43.31
41.96
39.56
36.37
32.54
28.10
23.02
17.22
10.76
3.76
-3.45
-10.39
-16.56
-21.58
-25.39
-28.30
-30.88
-33.70
-37.05
-40.77
-44.28
-46.76
-47.56
-46.37
-43.36
-39.16
-34.61
-30.61
-27.86
-26.69
-26.90
-27.75
-28.14
-26.93
-23.43
-17.59
-10.11
-2.07
5.46
11.71
16.38
19.50
21.29
22.01
22.03
21.75
21.66
22.22
23.63
25.79
28.25
30.49
32.05
32.73
32.60
31.90
30.88
29.62
28.06
25.92
22.87
18.68
13.41
7.55
1.92
-2.50
-4.88
-4.87
-2.82
0.32
3.17
4.34
2.84
-1.67
-8.75
-17.27
-25.70
-32.38
-35.89
-35.37
-30.67
-22.46
-12.03
-0.99
9.15
17.41
23.45
27.47
29.91
31.13
31.29
30.45
28.80
26.72
24.78
23.43
22.81
22.67
22.58
22.24
21.66
21.10
20.85
21.00
21.27
21.10
19.80
16.87
12.22
6.21
-0.38
-6.63
-11.81
-15.61
-18.26
-20.36
-22.64
-25.70
-29.75
-34.63
-39.77
-44.28
-47.15
-47.34
-44.15
-37.41
-27.75
-16.43
-5.03
5.08
13.13
19.07
23.39
26.66
29.25
31.16
32.16
32.05
30.89
29.06
27.08
25.39
24.18
23.32
22.49
21.40
19.95
18.28
16.63
15.28
14.27
13.44
12.37
10.62
7.90
4.27
0.10
-4.02
-7.62
-10.51
-12.88
-15.21
-18.06
-21.86
-26.77
-32.69
-39.24
-45.80
-51.54
-55.41
-56.32
-53.49
-46.76
-36.70
-24.63
-12.13
-0.67
8.84
16.14
21.44
25.16
27.62
28.95
29.19
28.52
27.29
26.04
25.24
25.13
25.63
26.39
27.04
27.33
27.20
26.66
25.73
24.30
22.24
19.47
16.06
12.14
7.94
3.60
-0.77
-5.11
-9.33
-13.28
-16.79
-19.81
-22.44
-25.03
-28.04
-31.87
-36.53
-41.52
-45.86
-48.32
-47.82
-43.75
-36.10
-25.48
-12.90
0.39
13.13
24.16
32.63
38.15
40.84
41.23
40.09
38.13
35.84
33.43
30.96
28.48
26.12
24.01
22.25
20.83
19.67
18.58
17.38
15.98
14.34
12.43
10.19
7.52
4.32
0.55
-3.69
-8.15
-12.41
-16.13
-19.09
-21.43
-23.62
-26.31
-30.07
-34.99
-40.57
-45.68
-48.99
-49.45
-46.71
-41.27
-34.16
-26.55
-19.23
-12.56
-6.53
-1.10
3.67
7.55
10.35
12.11
13.08
13.69
14.26
15.00
16.02
17.35
19.03
20.96
22.92
24.49
25.29
25.15
24.14
22.55
20.61
18.37
15.58
11.93
7.27
1.78
-4.04
-9.59
-14.42
-18.43
-21.90
-25.42
-29.57
-34.85
-41.32
-48.59
-55.80
-61.73
-65.22
-65.36
-61.87
-55.12
-45.98
-35.54
-24.88
-14.90
-6.27
0.46
4.99
7.22
7.43
6.25
4.52
3.17
2.82
3.69
5.56
7.89
10.07
11.70
12.74
13.60
15.11
18.22
23.66
31.60
41.38
51.69
60.95
68.02
72.69
75.86
79.06
83.68
90.15
97.51
103.65
106.03
102.59
92.40
76.00
55.20
32.58
10.96
-7.21
-20.34
-27.88
-30.37
-29.18
-26.04
-22.68
-20.46
-20.16
-22.02
-25.71
-30.53
-35.58
-39.97
-43.08
-44.71
-45.16
-44.97
-44.77
-44.88
-45.20
-45.28
-44.54
-42.62
-39.62
-36.06
-32.73
-30.30
-29.07
-28.89
-29.31
-29.77
-29.91
-29.55
-28.80
-27.88
-27.19
-27.20
-28.31
-30.79
-34.39
-38.37
-41.50
-42.44
-40.19
-34.48
-25.88
-15.52
-4.80
5.13
13.56
20.28
25.44
29.21
31.71
32.89
32.74
31.39
29.27
27.05
25.39
24.70
24.88
25.44
25.63
24.93
23.20
20.76
18.13
15.69
13.60
11.63
9.45
6.75
3.42
-0.41
-4.44
-8.35
-11.94
-15.22
-18.47
-22.12
-26.67
-32.36
-38.91
-45.46
-50.70
-53.30
-52.34
-47.73
-40.22
-31.14
-21.87
-13.46
-6.42
-0.82
3.45
6.52
8.42
9.23
9.13
8.42
7.45
6.53
5.84
5.41
5.23
5.22
5.24
5.17
4.90
4.44
3.94
3.64
3.73
4.29
5.19
6.23
7.20
8.07
8.96
10.07
11.53
13.28
15.00
16.26
16.59
15.63
13.22
9.56
5.26
1.55
0.19
3.23
12.51
28.75
51.03
76.44
100.68
119.14
128.33
126.98
116.20
98.96
78.82
58.90
41.07
26.02
13.72
3.87
-3.60
-8.70
-11.44
-12.16
-11.55
-10.47
-9.77
-9.98
-11.20
-13.17
-15.44
-17.53
-19.07
-19.80
-19.53
-18.24
-16.20
-14.17
-13.52
-15.93
-22.82
-34.63
-50.41
-67.76
-83.52
-94.65
-99.20
-96.68
-88.08
-75.32
-60.58
-45.81
-32.32
-20.86
-11.63
-4.54
0.69
4.37
6.76
8.12
8.74
8.93
8.98
9.09
9.25
9.34
9.20
8.77
8.21
7.78
7.68
7.90
8.14
7.95
6.84
4.57
1.23
-2.77
-6.83
-10.32
-12.76
-14.05
-14.51
-14.96
-16.43
-19.84
-25.69
-33.78
-43.23
-52.67
-60.58
-65.61
-66.84
-63.93
-57.14
-47.26
-35.50
-23.16
-11.44
-1.18
7.24
13.77
18.59
21.92
24.02
25.21
25.86
26.37
26.99
27.73
28.24
27.99
26.55
23.92
20.59
17.45
15.38
14.78
15.31
16.03
15.76
13.66
9.54
3.90
-2.35
-8.31
-13.44
-17.69
-21.39
-25.07
-29.27
-34.39
-40.54
-47.46
-54.34
-59.95
-62.89
-62.03
-56.93
-48.10
-36.84
-24.87
-13.75
-4.43
2.89
8.72
13.88
19.10
24.69
30.49
35.92
40.33
43.28
44.73
44.97
44.52
43.84
43.24
42.85
42.59
42.27
41.56
40.06
37.37
33.30
27.89
21.55
14.89
8.52
2.84
-2.08
-6.51
-10.98
-15.99
-21.87
-28.51
-35.17
-40.61
-43.26
-41.78
-35.57
-25.08
-11.77
2.34
15.24
25.57
32.87
37.48
40.20
41.77
42.57
42.55
41.39
38.80
34.79
29.78
24.51
19.80
16.23
14.01
12.92
12.49
12.25
11.91
11.47
11.11
11.07
11.37
11.82
12.02
11.45
9.63
6.13
0.59
-7.24
-17.35
-29.23
-41.72
-53.04
-61.21
-64.55
-62.26
-54.68
-43.18
-29.71
-16.20
-4.13
5.71
13.14
18.39
21.91
24.18
25.66
26.73
27.66
28.52
29.24
29.53
29.15
28.04
26.36
24.58
23.20
22.52
22.42
22.43
21.79
19.85
16.29
11.29
5.41
-0.66
-6.35
-11.42
-15.97
-20.35
-25.01
-30.35
-36.62
-43.79
-51.47
-58.83
-64.66
-67.66
-66.86
-61.96
-53.50
-42.70
-30.95
-19.51
-9.09
0.06
7.92
14.54
19.94
24.26
27.79
31.02
34.48
38.47
42.91
47.36
51.23
53.98
55.34
55.35
54.24
52.29
49.70
46.61
43.02
39.04
34.80
30.45
26.06
21.59
16.90
11.81
6.22
0.09
-6.59
-13.92
-22.00
-30.80
-39.89
-48.29
-54.64
-57.50
-55.98
-50.11
-40.95
-30.16
-19.47
-10.04
-2.27
4.11
9.59
14.47
18.71
21.97
23.92
24.54
24.14
23.24
22.31
21.64
21.21
20.84
20.37
19.80
19.16
18.47
17.61
16.32
14.33
11.53
8.11
4.45
0.99
-1.99
-4.53
-6.93
-9.72
-13.40
-18.23
-24.11
-30.49
-36.44
-40.83
-42.59
-41.03
-36.00
-28.02
-18.01
-7.16
3.49
13.11
21.21
27.52
31.93
34.42
35.04
33.97
31.49
28.04
24.15
20.36
17.16
14.94
13.93
14.08
15.07
16.23
16.80
16.13
13.92
10.37
6.07
1.68
-2.39
-6.11
-9.83
-13.99
-18.92
-24.75
-31.44
-38.89
-46.85
-54.89
-62.16
-67.52
-69.84
-68.37
-63.07
-54.59
-44.00
-32.45
-20.85
-9.85
0.08
8.58
15.46
20.73
24.76
28.11
31.30
34.60
37.99
41.22
44.04
46.30
47.88
48.65
48.38
46.78
43.72
39.32
33.97
28.13
22.14
16.05
9.70
2.93
-4.24
-11.50
-18.41
-24.63
-30.22
-35.68
-41.72
-48.89
-57.12
-65.60
-72.80
-77.05
-77.08
-72.52
-64.02
-52.98
-41.02
-29.49
-19.24
-10.51
-3.30
2.47
6.74
9.43
10.58
10.49
9.77
9.14
9.17
10.12
11.88
14.10
16.35
18.34
20.01
21.48
23.01
24.82
27.11
29.82
32.76
35.49
37.54
38.46
38.05
36.43
33.94
31.03
27.96
24.70
20.87
15.92
9.47
1.64
-6.79
-14.41
-19.56
-20.82
-17.51
-9.88
0.85
12.89
24.40
33.92
40.69
44.67
46.34
46.39
45.44
43.87
41.87
39.55
37.13
34.92
33.27
32.27
31.61
30.65
28.62
25.02
19.83
13.56
6.99
0.84
-4.43
-8.67
-11.82
-13.83
-14.62
-14.24
-13.12
-12.18
-12.57
-15.34
-20.93
-28.83
-37.58
-45.05
-49.09
-48.21
-42.12
-31.91
-19.69
-7.93
1.51
7.93
11.98
15.08
18.71
23.72
30.01
36.84
43.20
48.20
51.23
51.83
49.66
44.58
36.94
27.75
18.56
10.96
5.93
3.29
1.77
-0.48
-5.05
-12.55
-22.37
-32.94
-42.28
-48.75
-51.44
-50.39
-46.45
-40.97
-35.37
-30.63
-26.96
-23.64
-19.36
-12.83
-3.51
7.93
19.54
28.79
33.48
32.74
27.48
20.02
13.04
8.47
6.73
6.81
7.14
6.61
5.28
4.26
4.99
8.43
14.49
22.10
29.66
35.66
39.09
39.51
36.93
31.55
23.65
13.50
1.39
-12.29
-26.90
-41.63
-55.48
-67.52
-77.04
-83.56
-86.78
-86.42
-82.28
-74.36
-63.17
-49.74
-35.47
-21.80
-9.73
0.31
8.48
15.26
21.23
26.84
32.30
37.60
42.43
46.28
48.54
48.78
46.95
43.51
39.26
34.96
30.96
27.00
22.37
16.31
8.51
-0.62
-10.03
-18.47
-24.96
-29.13
-31.15
-31.55
-30.89
-29.74
-28.67
-28.35
-29.51
-32.59
-37.40
-42.97
-47.79
-50.34
-49.63
-45.57
-38.89
-30.74
-22.21
-13.94
-6.15
1.21
8.20
14.62
20.06
24.00
26.10
26.38
25.20
23.20
20.96
18.93
17.31
16.14
15.40
15.08
15.20
15.61
16.04
16.00
14.98
12.61
8.78
3.76
-1.90
-7.55
-12.69
-17.13
-21.14
-25.25
-29.97
-35.45
-41.32
-46.71
-50.42
-51.32
-48.67
-42.39
-33.09
-21.96
-10.56
-0.37
7.52
12.78
15.82
17.69
19.61
22.45
26.49
31.21
35.68
38.92
40.37
40.03
38.33
35.84
32.98
29.85
26.30
22.29
17.91
13.46
9.21
5.24
1.32
-2.97
-7.93
-13.56
-19.53
-25.40
-30.91
-36.10
-41.22
-46.35
-51.16
-54.69
-55.74
-53.25
-46.84
-37.06
-25.26
-13.22
-2.53
5.79
11.49
14.92
16.74
17.64
18.02
18.04
17.68
16.94
15.93
14.85
13.89
13.12
12.47
11.79
11.00
10.07
9.10
8.15
7.21
6.13
4.71
2.77
0.22
-2.81
-6.07
-9.28
-12.26
-15.07
-18.01
-21.51
-25.80
-30.64
-35.19
-38.13
-38.22
-34.77
-28.09
-19.33
-10.11
-1.81
4.75
9.56
13.09
15.84
18.09
19.82
20.86
21.20
20.98
20.54
20.15
19.94
19.75
19.39
18.63
17.46
15.95
14.27
12.49
10.56
8.34
5.68
2.58
-0.80
-4.13
-7.08
-9.48
-11.39
-13.14
-15.24
-18.13
-22.08
-26.94
-32.14
-36.73
-39.64
-39.95
-37.24
-31.71
-24.09
-15.43
-6.74
1.15
7.73
12.74
16.10
17.88
18.30
17.71
16.54
15.23
14.07
13.24
12.79
12.79
13.30
14.34
15.87
17.67
19.44
20.82
21.55
21.52
20.73
19.24
17.06
14.24
10.80
6.84
2.61
-1.57
-5.34
-8.55
-11.26
-13.85
-16.73
-20.09
-23.57
-26.27
-26.96
-24.53
-18.61
-9.70
0.79
11.04
19.32
24.54
26.47
25.55
22.64
18.55
13.85
8.85
3.80
-1.01
-5.14
-8.14
-9.78
-10.19
-9.85
-9.36
-9.17
-9.42
-9.93
-10.47
-10.91
-11.38
-12.06
-13.12
-14.50
-16.01
-17.45
-18.86
-20.59
-23.19
-27.22
-32.76
-39.22
-45.29
-49.29
-49.73
-45.81
-37.82
-26.99
-15.07
-3.72
5.96
13.55
19.19
23.17
25.69
26.78
26.51
25.14
23.24
21.48
20.36
20.01
20.15
20.36
20.33
20.05
19.73
19.59
19.66
19.73
19.48
18.67
17.36
15.75
14.03
12.21
10.04
7.22
3.50
-1.13
-6.52
-12.46
-18.80
-25.44
-31.96
-37.65
-41.38
-42.02
-38.91
-32.24
-23.06
-12.96
-3.50
4.35
10.26
14.51
17.58
19.85
21.47
22.40
22.59
22.04
20.94
19.52
18.07
16.89
16.20
16.16
16.80
17.96
19.35
20.59
21.36
21.45
20.83
19.55
17.68
15.22
12.14
8.45
4.26
-0.23
-4.80
-9.38
-14.12
-19.36
-25.37
-32.07
-38.84
-44.55
-47.87
-47.76
-43.80
-36.47
-26.85
-16.35
-6.25
2.55
9.67
15.07
18.92
21.48
23.16
24.46
25.94
28.00
30.71
33.69
36.31
37.97
38.41
37.88
36.93
36.12
35.68
35.41
34.81
33.37
30.86
27.40
23.42
19.39
15.64
12.22
8.89
5.28
0.86
-4.78
-11.94
-20.61
-30.35
-40.26
-49.02
-55.14
-57.35
-55.01
-48.34
-38.47
-27.12
-16.09
-6.83
-0.02
4.33
6.75
7.90
8.23
7.85
6.61
4.34
1.10
-2.69
-6.39
-9.32
-11.14
-11.88
-12.07
-12.31
-13.14
-14.76
-17.03
-19.62
-22.14
-24.41
-26.46
-28.51
-30.83
-33.66
-37.16
-41.31
-46.05
-51.09
-55.96
-59.89
-61.91
-61.17
-57.18
-50.19
-41.12
-31.34
-22.12
-14.08
-6.96
0.28
8.83
19.43
31.88
45.05
57.27
66.98
73.27
76.09
76.08
74.21
71.34
68.02
64.46
60.65
56.55
52.13
47.43
42.57
37.64
32.77
28.01
23.41
18.90
14.40
9.87
5.29
0.76
-3.60
-7.64
-11.17
-13.83
-15.07
-14.14
-10.35
-3.38
6.50
18.29
30.58
41.87
51.07
57.60
61.30
62.18
60.21
55.27
47.42
37.10
25.21
12.97
1.59
-8.13
-15.96
-22.17
-27.23
-31.48
-34.96
-37.49
-38.92
-39.39
-39.45
-39.78
-40.87
-42.70
-44.77
-46.37
-47.06
-47.03
-47.06
-48.22
-51.31
-56.45
-62.97
-69.55
-74.54
-76.28
-73.39
-65.05
-51.18
-32.59
-10.79
12.24
34.64
55.09
73.09
88.89
103.14
116.28
127.94
136.67
140.03
135.28
120.44
95.26
61.74
23.94
-13.05
-44.66
-68.05
-82.68
-90.01
-92.53
-92.70
-92.27
-92.10
-92.38
-92.99
-93.73
-94.29
-94.23
-92.94
-89.78
-84.36
-76.69
-67.24
-56.78
-46.07
-35.58
-25.33
-14.90
-3.71
8.55
21.61
34.49
45.67
53.72
57.81
58.09
55.59
51.77
47.87
44.51
41.49
38.04
33.23
26.58
18.33
9.56
1.86
-3.15
-4.45
-1.84
4.06
12.09
20.88
28.99
34.98
37.39
35.15
27.98
16.94
4.26
-7.25
-15.26
-18.76
-18.15
-14.81
-10.08
-4.81
0.82
6.86
13.16
19.22
24.51
28.75
32.25
35.66
39.56
44.03
48.56
52.28
54.41
54.69
53.37
51.12
48.66
46.45
44.48
42.45
39.90
36.52
32.33
27.63
22.89
18.46
14.50
10.87
7.25
3.35
-0.96
-5.58
-10.27
-14.90
-19.57
-24.63
-30.49
-37.40
-45.16
-52.99
-59.62
-63.68
-64.06
-60.30
-52.79
-42.63
-31.29
-20.19
-10.46
-2.65
3.05
6.84
9.09
10.29
10.97
11.64
12.59
13.86
15.10
15.81
15.45
13.83
11.09
7.66
4.06
0.66
-2.44
-5.31
-8.10
-10.89
-13.66
-16.38
-19.12
-22.08
-25.52
-29.59
-34.23
-39.25
-44.47
-49.86
-55.59
-61.76
-68.11
-73.82
-77.66
-78.26
-74.74
-67.08
-56.21
-43.73
-31.28
-20.02
-10.39
-2.11
5.31
12.26
18.67
24.12
28.12
30.40
31.11
30.78
30.07
29.48
29.26
29.37
29.60
29.67
29.25
27.99
25.56
21.79
16.77
10.88
4.81
-0.68
-4.96
-7.69
-9.02
-9.55
-10.24
-12.12
-15.89
-21.49
-27.95
-33.56
-36.46
-35.25
-29.70
-20.70
-9.94
0.79
10.36
18.56
26.06
33.80
42.43
51.85
61.23
69.43
75.55
79.34
81.20
81.90
82.03
81.68
80.47
77.96
73.98
68.90
63.35
57.86
52.58
47.16
41.04
33.86
25.69
17.07
8.76
1.36
-4.95
-10.60
-16.44
-23.46
-32.27
-42.75
-53.88
-63.95
-71.07
-73.83
-71.76
-65.39
-55.99
-45.02
-33.83
-23.37
-14.28
-6.92
-1.44
2.30
4.75
6.56
8.37
10.49
12.92
15.35
17.44
19.03
20.15
20.94
21.41
21.48
20.96
19.77
17.96
15.68
13.08
10.26
7.21
3.91
0.46
-3.00
-6.36
-9.69
-13.25
-17.42
-22.52
-28.55
-35.12
-41.43
-46.41
-48.98
-48.33
-44.21
-36.98
-27.61
-17.37
-7.51
0.98
7.55
11.97
14.34
14.90
14.10
12.55
10.92
9.79
9.42
9.69
10.11
10.11
9.30
7.66
5.54
3.48
2.00
1.32
1.34
1.67
1.72
0.87
-1.37
-5.31
-10.87
-17.40
-23.65
-27.90
-28.53
-24.64
-16.50
-5.64
5.69
15.32
21.99
25.66
27.21
27.87
28.47
29.17
29.57
29.06
27.18
23.85
19.39
14.46
9.91
6.67
5.49
6.78
10.50
16.13
22.89
29.90
36.41
41.89
45.94
48.30
48.83
47.48
44.44
40.03
34.65
28.63
22.30
15.82
9.40
3.29
-2.26
-7.12
-11.42
-15.59
-20.23
-25.86
-32.58
-39.86
-46.61
-51.43
-53.07
-50.94
-45.24
-37.03
-27.75
-18.79
-11.06
-4.83
0.15
4.32
7.93
10.94
12.99
13.76
13.14
11.37
8.91
6.20
3.56
1.08
-1.15
-3.02
-4.30
-4.89
-4.88
-4.73
-5.12
-6.70
-9.69
-13.84
-18.51
-22.96
-26.70
-29.67
-32.14
-34.52
-37.09
-39.91
-42.76
-45.35
-47.31
-48.22
-47.62
-45.11
-40.42
-33.61
-25.12
-15.66
-6.07
2.88
10.63
16.80
21.14
23.44
23.58
21.57
17.70
12.54
6.91
1.71
-2.17
-4.09
-3.80
-1.51
2.13
6.20
9.68
11.82
12.30
11.37
9.69
8.00
6.82
6.19
5.71
4.74
2.76
-0.41
-4.66
-9.72
-15.27
-21.04
-26.57
-31.23
-34.13
-34.48
-31.86
-26.43
-19.01
-10.69
-2.52
4.78
10.95
16.02
20.13
23.36
25.67
27.04
27.53
27.43
27.18
27.23
27.80
28.72
29.44
29.30
27.81
24.89
21.01
16.90
13.29
10.51
8.40
6.34
3.57
-0.47
-5.92
-12.59
-20.08
-28.03
-36.33
-44.97
-53.82
-62.44
-70.00
-75.43
-77.67
-75.97
-70.09
-60.41
-47.83
-33.71
-19.62
-6.99
3.27
11.03
16.91
21.92
26.92
32.18
37.24
41.25
43.35
43.11
40.73
36.82
32.14
27.35
22.94
19.11
15.90
13.25
10.95
8.75
6.40
3.64
0.39
-3.35
-7.50
-11.91
-16.37
-20.69
-24.71
-28.33
-31.64
-34.80
-38.07
-41.50
-44.86
-47.50
-48.45
-46.70
-41.55
-32.91
-21.43
-8.41
4.59
16.18
25.47
32.23
36.67
39.28
40.47
40.55
39.65
37.92
35.60
33.02
30.47
28.07
25.63
22.85
19.43
15.32
10.80
6.34
2.33
-1.14
-4.41
-8.03
-12.52
-17.93
-23.86
-29.57
-34.43
-38.17
-41.11
-43.88
-47.27
-51.81
-57.80
-65.12
-73.23
-80.93
-86.36
-87.25
-81.54
-68.21
-47.85
-22.75
3.87
28.79
49.63
65.12
74.92
79.21
78.47
73.57
65.80
56.89
48.53
41.95
37.70
35.82
36.26
39.14
44.72
52.84
62.55
72.08
79.29
82.48
80.98
75.32
66.76
56.80
46.59
36.83
27.84
19.79
12.76
6.56
0.69
-5.63
-13.00
-21.50
-30.25
-37.62
-41.73
-41.20
-35.86
-26.81
-16.03
-5.61
2.95
9.14
13.33
16.27
18.74
21.33
24.45
28.58
34.20
41.54
50.31
59.53
67.72
73.36
75.42
73.63
68.38
60.31
50.01
37.84
24.15
9.43
-5.48
-19.64
-32.23
-42.86
-51.56
-58.58
-64.17
-68.39
-71.20
-72.65
-73.09
-73.19
-73.62
-74.72
-76.20
-77.09
-76.08
-72.13
-64.80
-54.61
-42.78
-30.79
-19.87
-10.68
-3.30
2.58
7.31
11.11
14.03
16.05
17.22
17.72
17.87
17.98
18.29
18.87
19.60
20.28
20.77
21.04
21.26
21.66
22.38
23.30
24.05
24.10
23.05
20.78
17.53
13.78
10.04
6.64
3.69
1.06
-1.56
-4.54
-8.28
-13.17
-19.42
-26.84
-34.72
-41.80
-46.53
-47.59
-44.35
-37.23
-27.67
-17.76
-9.57
-4.57
-3.22
-5.04
-8.90
-13.52
-17.96
-21.77
-24.98
-27.78
-30.31
-32.48
-34.05
-34.71
-34.26
-32.70
-30.21
-27.19
-24.15
-21.62
-20.07
-19.80
-20.88
-23.11
-26.07
-29.17
-31.87
-33.70
-34.49
-34.36
-33.82
-33.58
-34.28
-36.24
-39.15
-42.13
-43.93
-43.39
-39.84
-33.30
-24.52
-14.67
-5.04
3.38
9.92
14.37
16.76
17.34
16.49
14.59
12.08
9.39
7.00
5.40
5.08
6.52
10.01
15.47
22.33
29.56
35.85
40.11
41.85
41.31
39.45
37.50
36.61
37.47
40.20
44.23
48.65
52.26
53.94
52.85
48.59
41.43
32.22
22.36
13.41
6.85
3.59
3.85
7.01
11.86
16.91
20.87
23.04
23.37
22.46
21.13
20.12
19.82
20.22
21.04
21.90
22.45
22.46
21.77
20.35
18.26
15.75
13.25
11.27
10.22
10.19
10.83
11.41
11.08
9.17
5.47
0.27
-5.72
-11.68
-16.95
-21.28
-24.85
-28.18
-31.93
-36.56
-42.09
-47.96
-53.09
-56.13
-55.93
-51.95
-44.47
-34.57
-23.79
-13.68
-5.44
0.33
3.65
5.04
5.28
5.13
5.23
5.84
6.90
8.00
8.72
8.77
8.25
7.61
7.43
8.19
9.93
12.28
14.51
15.95
16.14
14.99
12.72
9.70
6.33
2.90
-0.36
-3.37
-6.26
-9.39
-13.29
-18.40
-24.78
-31.84
-38.42
-43.08
-44.58
-42.30
-36.40
-27.76
-17.61
-7.25
2.28
10.30
16.52
20.97
23.87
25.49
26.04
25.56
24.08
21.75
18.94
16.19
14.08
12.87
12.44
12.32
11.98
11.14
9.84
8.41
7.14
6.03
4.81
3.02
0.36
-3.10
-6.94
-10.68
-14.07
-17.22
-20.51
-24.19
-28.06
-31.39
-33.10
-32.32
-28.85
-23.24
-16.59
-9.95
-3.91
1.55
6.77
11.93
16.90
21.09
23.85
24.73
23.71
21.18
17.76
14.08
10.57
7.45
4.76
2.53
0.83
-0.09
-0.00
1.20
3.27
5.54
7.12
7.18
5.42
2.14
-1.82
-5.56
-8.60
-11.13
-14.00
-18.32
-24.91
-33.70
-43.44
-51.75
-55.63
-52.38
-40.54
-20.61
4.95
32.34
57.47
77.00
88.90
92.45
88.04
76.76
60.35
41.01
21.34
3.77
-9.92
-19.15
-24.49
-27.23
-28.76
-30.01
-31.40
-33.00
-34.78
-36.74
-38.69
-40.16
-40.43
-38.83
-35.11
-29.70
-23.57
-17.81
-13.23
-10.15
-8.48
-7.92
-8.22
-9.03
-9.81
-9.74
-7.91
-3.62
3.14
11.66
20.68
29.09
36.38
42.80
49.04
55.58
62.11
67.52
70.30
69.38
64.78
57.66
49.92
43.21
38.31
34.93
32.17
29.22
25.89
22.68
20.33
19.31
19.51
20.38
21.20
21.49
21.08
20.01
18.36
16.17
13.47
10.45
7.48
5.08
3.67
3.40
4.04
5.01
5.52
4.89
2.74
-0.90
-5.57
-10.61
-15.36
-19.43
-22.67
-25.18
-27.14
-28.69
-29.98
-31.18
-32.49
-34.11
-36.12
-38.35
-40.45
-41.95
-42.54
-42.12
-40.84
-39.00
-36.88
-34.66
-32.47
-30.40
-28.63
-27.29
-26.48
-26.05
-25.64
-24.82
-23.29
-21.04
-18.52
-16.44
-15.54
-16.30
-18.63
-21.84
-24.73
-25.93
-24.31
-19.36
-11.42
-1.55
8.86
18.46
26.37
32.30
36.29
38.51
39.08
38.06
35.74
32.76
30.09
28.72
29.29
31.80
35.63
39.87
43.57
46.14
47.33
47.18
46.04
44.44
43.12
42.78
43.80
45.89
48.06
48.91
47.11
42.04
33.99
24.07
13.73
4.22
-3.75
-10.16
-15.40
-19.90
-23.85
-26.90
-28.38
-27.49
-23.79
-17.55
-9.72
-1.72
5.10
9.88
12.51
13.42
13.22
12.36
10.94
8.90
6.31
3.63
1.65
1.21
2.81
6.36
11.15
16.15
20.35
23.08
24.14
23.68
22.08
19.76
17.10
14.41
11.93
9.89
8.39
7.45
6.91
6.55
5.99
4.80
2.54
-1.16
-6.44
-13.14
-20.71
-28.24
-34.60
-38.65
-39.54
-36.91
-31.10
-23.03
-14.06
-5.54
1.50
6.58
9.89
12.00
13.60
15.12
16.61
17.80
18.35
18.11
17.22
16.08
15.12
14.61
14.52
14.59
14.42
13.73
12.36
10.31
7.69
4.63
1.31
-2.18
-5.75
-9.39
-13.05
-16.70
-20.33
-23.97
-27.73
-31.69
-35.79
-39.60
-42.27
-42.79
-40.33
-34.70
-26.45
-16.89
-7.46
0.67
6.96
11.51
14.77
17.06
18.30
17.96
15.35
10.04
2.19
-7.36
-17.32
-26.47
-34.04
-40.03
-45.02
-49.85
-55.08
-60.72
-66.25
-70.92
-74.05
-75.31
-74.75
-72.62
-69.24
-64.95
-60.24
-55.85
-52.60
-51.12
-51.35
-52.33
-52.26
-49.18
-41.75
-29.90
-14.97
0.86
15.34
27.07
35.77
42.19
47.43
52.29
56.97
60.92
63.41
63.90
62.38
59.38
55.63
51.69
47.65
43.20
37.92
31.65
24.61
17.31
10.31
3.88
-2.03
-7.64
-13.18
-18.67
-24.06
-29.20
-34.11
-38.89
-43.62
-48.21
-52.20
-54.88
-55.39
-53.05
-47.57
-39.29
-29.10
-18.25
-8.03
0.64
7.33
12.10
15.29
17.26
18.19
18.13
17.15
15.42
13.39
11.57
10.41
10.13
10.60
11.50
12.38
12.86
12.66
11.77
10.32
8.59
6.81
5.14
3.57
1.99
0.26
-1.74
-4.09
-6.94
-10.48
-14.90
-20.10
-25.55
-30.23
-32.85
-32.33
-28.25
-21.09
-12.15
-3.07
4.71
10.42
14.03
16.11
17.48
18.79
20.31
21.95
23.41
24.44
24.94
24.99
24.74
24.25
23.48
22.39
21.02
19.56
18.29
17.41
16.83
16.23
15.12
13.20
10.47
7.28
4.19
1.63
-0.29
-1.86
-3.65
-6.28
-10.16
-15.28
-21.11
-26.65
-30.60
-31.78
-29.48
-23.81
-15.69
-6.58
2.00
8.97
13.94
17.15
19.16
20.52
21.52
22.19
22.46
22.33
21.98
21.67
21.62
21.88
22.34
22.74
22.89
22.65
21.99
20.90
19.32
17.28
14.80
12.11
9.48
7.19
5.35
3.87
2.45
0.67
-1.85
-5.42
-10.05
-15.41
-20.76
-25.11
-27.43
-26.98
-23.65
-17.96
-10.99
-3.93
2.27
7.18
10.91
13.80
16.13
17.91
18.85
18.62
17.10
14.52
11.43
8.47
6.08
4.40
3.19
2.09
0.79
-0.81
-2.61
-4.49
-6.34
-8.15
-9.95
-11.78
-13.65
-15.69
-18.13
-21.36
-25.78
-31.60
-38.65
-46.16
-52.82
-56.93
-56.89
-51.75
-41.69
-28.09
-13.04
1.55
14.79
27.06
39.52
53.13
67.80
82.36
95.29
105.61
113.37
119.29
123.90
126.78
126.72
122.34
113.25
100.42
85.94
71.96
59.74
49.28
39.65
29.79
19.29
8.56
-1.50
-10.10
-17.02
-22.76
-28.20
-34.10
-40.73
-47.81
-54.70
-60.70
-65.23
-67.87
-68.31
-66.28
-61.78
-55.18
-47.25
-39.05
-31.56
-25.42
-20.79
-17.45
-15.01
-13.03
-11.31
-9.91
-9.32
-10.41
-14.21
-21.57
-32.59
-46.39
-61.13
-74.58
-84.77
-90.62
-92.08
-89.85
-84.84
-77.78
-69.13
-59.32
-48.97
-38.89
-29.83
-22.08
-15.19
-8.26
-0.47
8.14
16.43
22.53
24.88
23.22
19.05
15.12
14.27
18.13
26.42
37.26
48.15
57.05
63.03
66.17
67.08
66.33
64.31
61.37
58.01
54.90
52.67
51.57
51.34
51.22
50.26
47.76
43.53
37.93
31.76
25.91
21.11
17.56
15.01
12.76
10.04
6.30
1.42
-4.26
-10.11
-15.49
-20.08
-23.90
-27.30
-30.74
-34.56
-38.84
-43.28
-47.36
-50.41
-51.76
-50.90
-47.55
-41.75
-33.94
-24.96
-15.90
-7.83
-1.56
2.59
4.91
5.98
6.46
6.81
7.17
7.44
7.45
7.18
6.82
6.72
7.31
8.90
11.52
14.95
18.76
22.52
25.89
28.69
30.77
32.02
32.26
31.36
29.40
26.72
23.86
21.23
18.87
16.30
12.75
7.65
0.98
-6.48
-13.48
-18.63
-21.04
-20.47
-17.47
-13.03
-8.39
-4.51
-1.87
-0.37
0.58
1.74
3.66
6.35
9.28
11.67
12.83
12.63
11.43
10.01
9.15
9.39
10.86
13.32
16.23
18.85
20.46
20.49
18.71
15.38
11.12
6.70
2.58
-1.29
-5.64
-11.46
-19.63
-30.44
-43.34
-57.09
-69.99
-80.37
-86.82
-88.50
-85.25
-77.65
-67.02
-55.18
-44.09
-35.28
-29.41
-26.17
-24.48
-23.08
-21.10
-18.33
-15.21
-12.41
-10.43
-9.30
-8.56
-7.59
-5.93
-3.52
-0.77
1.62
3.01
3.02
1.68
-0.60
-3.23
-5.54
-6.89
-6.91
-5.49
-2.95
-0.03
2.23
2.75
0.74
-4.03
-11.00
-18.89
-26.12
-31.38
-34.14
-34.87
-34.73
-35.01
-36.34
-38.39
-39.99
-39.75
-36.78
-31.09
-23.40
-14.57
-5.09
5.08
16.16
28.06
39.95
50.45
58.04
61.77
61.57
58.33
53.43
48.21
43.47
39.39
35.65
31.77
27.44
22.60
17.40
12.03
6.56
0.97
-4.80
-10.62
-16.00
-20.21
-22.48
-22.37
-19.98
-15.99
-11.43
-7.36
-4.44
-2.94
-2.73
-3.54
-5.13
-7.34
-9.95
-12.66
-14.99
-16.51
-17.10
-17.10
-17.33
-18.78
-22.11
-27.19
-32.88
-37.25
-38.18
-34.27
-25.44
-13.18
-0.11
11.00
18.21
21.02
20.34
17.93
15.65
14.94
16.56
20.65
26.92
34.72
43.17
51.20
57.81
62.33
64.57
64.82
63.51
61.04
57.55
53.04
47.60
41.50
35.25
29.36
24.23
20.03
16.76
14.29
12.55
11.41
10.73
10.25
9.59
8.28
5.92
2.21
-3.00
-9.67
-17.56
-26.09
-34.48
-41.81
-47.42
-51.02
-52.74
-52.83
-51.37
-48.13
-42.64
-34.70
-24.60
-13.32
-2.18
7.56
15.20
20.64
24.18
26.19
26.86
26.23
24.44
21.92
19.35
17.55
17.03
17.81
19.39
20.95
21.64
21.04
19.21
16.61
13.81
11.09
8.25
4.65
-0.47
-7.52
-16.27
-25.72
-34.42
-40.86
-44.00
-43.50
-39.81
-33.99
-27.49
-21.79
-18.12
-17.17
-18.93
-22.63
-27.10
-31.24
-34.39
-36.59
-38.28
-39.95
-41.72
-43.15
-43.52
-42.16
-38.97
-34.45
-29.55
-25.23
-22.12
-20.37
-19.70
-19.69
-20.01
-20.59
-21.47
-22.80
-24.56
-26.66
-28.96
-31.40
-33.91
-36.35
-38.31
-39.06
-37.75
-33.65
-26.57
-17.01
-6.13
4.60
13.88
20.87
25.51
28.25
29.80
30.79
31.53
32.05
32.24
32.00
31.36
30.47
29.46
28.46
27.59
26.93
26.56
26.40
26.19
25.49
23.85
20.97
16.89
12.04
7.02
2.45
-1.22
-3.87
-5.68
-7.12
-8.86
-11.58
-15.69
-21.09
-26.98
-31.92
-34.18
-32.24
-25.27
-13.45
2.05
19.41
36.67
52.20
64.97
74.44
80.50
83.24
82.99
80.37
76.35
72.04
68.39
65.81
64.01
62.31
60.00
56.74
52.70
48.28
43.81
39.25
34.24
28.30
21.27
13.42
5.42
-1.97
-8.17
-13.13
-17.26
-21.19
-25.47
-30.13
-34.65
-38.10
-39.53
-38.38
-34.72
-29.21
-22.84
-16.52
-10.85
-6.07
-2.20
0.78
2.82
3.81
3.81
3.09
2.19
1.69
2.00
3.08
4.60
6.14
7.45
8.72
10.35
12.76
15.96
19.43
22.30
23.64
22.88
20.00
15.49
9.97
3.96
-2.37
-9.13
-16.57
-24.80
-33.67
-42.65
-50.91
-57.52
-61.57
-62.48
-60.10
-54.77
-47.22
-38.44
-29.41
-20.90
-13.38
-7.01
-1.71
2.71
6.46
9.68
12.47
14.80
16.59
17.76
18.35
18.46
18.37
18.33
18.45
18.68
18.76
18.36
17.25
15.39
12.91
10.02
6.89
3.52
-0.11
-4.06
-8.35
-12.94
-17.76
-22.71
-27.62
-32.11
-35.51
-36.96
-35.68
-31.23
-23.83
-14.35
-4.07
5.74
14.18
20.98
26.42
30.92
34.79
37.89
39.78
40.02
38.44
35.35
31.35
27.10
23.04
19.29
15.81
12.53
9.40
6.44
3.51
0.40
-3.16
-7.30
-11.87
-16.47
-20.56
-23.63
-25.45
-26.04
-25.72
-24.98
-24.35
-24.19
-24.56
-25.04
-24.94
-23.43
-19.81
-13.78
-5.42
4.78
16.04
27.39
37.78
46.26
52.16
55.27
55.84
54.43
51.64
47.90
43.39
38.09
32.05
25.56
19.12
13.43
9.04
6.23
4.88
4.56
4.62
4.48
3.74
2.29
0.21
-2.37
-5.30
-8.49
-11.83
-15.19
-18.48
-21.76
-25.27
-29.33
-34.08
-39.23
-43.99
-47.19
-47.72
-44.92
-38.89
-30.41
-20.73
-11.17
-2.80
3.70
8.14
10.74
12.04
12.68
13.23
13.99
15.03
16.14
17.14
17.94
18.63
19.36
20.23
21.13
21.78
21.86
21.19
19.82
17.91
15.45
12.12
7.39
0.82
-7.56
-17.11
-26.81
-35.75
-43.54
-50.57
-57.56
-65.05
-72.79
-79.55
-83.50
-82.90
-76.90
-65.86
-51.31
-35.35
-20.06
-6.99
3.07
10.03
14.34
16.75
18.19
19.60
21.74
24.98
29.08
33.31
36.66
38.29
37.88
35.66
32.21
28.10
23.67
19.01
14.19
9.35
4.81
0.86
-2.39
-5.16
-7.85
-10.78
-14.10
-17.68
-21.16
-24.13
-26.13
-26.69
-25.35
-21.73
-15.69
-7.53
2.06
12.11
21.66
30.00
36.64
41.30
43.67
43.53
40.92
36.34
30.78
25.40
21.16
18.38
16.63
14.99
12.50
8.68
3.77
-1.48
-6.21
-9.81
-12.18
-13.62
-14.63
-15.70
-17.19
-19.44
-22.73
-27.36
-33.33
-40.12
-46.58
-51.24
-52.85
-50.96
-46.03
-39.03
-30.81
-21.54
-10.77
2.07
17.02
33.13
48.63
61.57
70.58
75.22
75.96
73.73
69.41
63.60
56.70
49.18
41.60
34.69
29.08
25.08
22.54
20.82
19.06
16.43
12.43
7.00
0.55
-6.29
-12.91
-18.99
-24.61
-30.06
-35.49
-40.60
-44.50
-46.01
-44.21
-39.00
-31.17
-22.14
-13.36
-5.76
0.42
5.46
9.69
13.19
15.72
16.96
16.80
15.44
13.46
11.40
9.64
8.15
6.60
4.49
1.44
-2.60
-7.40
-12.49
-17.46
-22.07
-26.32
-30.27
-33.93
-37.14
-39.61
-41.14
-41.87
-42.29
-43.13
-45.01
-48.16
-52.28
-56.63
-60.21
-62.15
-61.83
-59.04
-53.96
-47.07
-39.02
-30.43
-21.77
-13.38
-5.50
1.55
7.45
11.90
14.94
16.93
18.53
20.40
22.86
25.73
28.38
30.06
30.14
28.39
24.93
20.18
14.65
8.90
3.38
-1.53
-5.69
-9.20
-12.38
-15.67
-19.35
-23.34
-27.08
-29.64
-29.99
-27.48
-22.07
-14.43
-5.67
3.04
10.86
17.45
22.87
27.28
30.75
33.14
34.23
33.88
32.24
29.69
26.81
24.22
22.34
21.36
21.16
21.35
21.44
20.99
19.75
17.75
15.23
12.57
10.09
7.93
6.01
4.05
1.74
-1.19
-4.83
-9.01
-13.40
-17.52
-20.79
-22.66
-22.67
-20.63
-16.61
-10.99
-4.32
2.76
9.69
16.06
21.58
26.08
29.44
31.60
32.60
32.53
31.53
29.76
27.43
24.80
22.21
20.06
18.67
18.16
18.33
18.75
18.85
18.12
16.28
13.35
9.57
5.30
0.90
-3.37
-7.36
-10.99
-14.26
-17.28
-20.20
-23.26
-26.67
-30.43
-34.28
-37.67
-39.97
-40.64
-39.46
-36.63
-32.62
-27.97
-23.16
-18.44
-13.92
-9.68
-5.84
-2.61
-0.25
1.12
1.55
1.30
0.77
0.35
0.30
0.66
1.36
2.31
3.50
5.02
6.83
8.72
10.17
10.58
9.48
6.87
3.24
-0.60
-3.88
-6.29
-8.10
-9.95
-12.54
-16.20
-20.72
-25.45
-29.46
-31.87
-32.04
-29.61
-24.59
-17.31
-8.34
1.47
11.24
20.09
27.41
32.92
36.69
39.07
40.40
40.93
40.62
39.39
37.19
34.22
30.95
27.97
25.76
24.49
24.05
24.05
24.10
23.87
23.26
22.30
21.13
19.88
18.63
17.41
16.20
15.06
14.11
13.46
13.04
12.49
11.12
8.17
3.25
-3.38
-10.66
-17.01
-20.88
-21.30
-18.25
-12.60
-5.83
0.60
5.68
9.08
11.10
12.32
13.27
14.12
14.72
14.74
14.01
12.64
10.97
9.36
7.98
6.78
5.56
4.28
3.12
2.47
2.65
3.64
5.00
5.96
5.80
4.18
1.31
-2.25
-5.87
-9.21
-12.30
-15.45
-18.96
-22.82
-26.73
-30.23
-32.96
-34.85
-36.04
-36.59
-36.35
-34.80
-31.34
-25.57
-17.49
-7.67
2.93
13.26
22.38
29.72
35.07
38.53
40.40
41.05
40.80
39.91
38.63
37.15
35.70
34.47
33.48
32.57
31.41
29.69
27.22
24.09
20.55
16.80
12.92
8.88
4.60
0.11
-4.45
-8.89
-13.09
-17.11
-21.14
-25.43
-30.17
-35.37
-40.80
-45.95
-50.04
-52.16
-51.55
-47.91
-41.60
-33.64
-25.41
-18.18
-12.74
-9.17
-6.98
-5.42
-3.74
-1.47
1.54
5.15
9.04
12.85
16.24
19.05
21.35
23.37
25.43
27.83
30.67
33.95
37.48
40.99
44.09
46.29
47.01
45.73
42.19
36.56
29.47
21.89
14.74
8.57
3.35
-1.46
-6.63
-12.73
-19.77
-27.19
-33.92
-38.79
-40.86
-39.71
-35.55
-29.13
-21.46
-13.58
-6.32
-0.19
4.55
7.83
9.70
10.29
9.85
8.74
7.35
6.01
4.88
3.88
2.82
1.54
0.08
-1.27
-2.12
-2.16
-1.41
-0.24
0.76
0.96
-0.05
-2.37
-5.71
-9.62
-13.53
-17.02
-19.80
-21.83
-23.25
-24.30
-25.32
-26.70
-28.75
-31.54
-34.80
-37.86
-39.80
-39.78
-37.34
-32.69
-26.62
-20.22
-14.44
-9.80
-6.35
-3.83
-1.95
-0.60
0.10
-0.07
-1.29
-3.56
-6.60
-9.96
-12.99
-15.13
-16.00
-15.56
-14.05
-11.95
-9.81
-8.01
-6.78
-6.17
-6.20
-6.86
-8.12
-9.85
-11.89
-14.10
-16.42
-19.01
-22.08
-25.84
-30.19
-34.65
-38.38
-40.44
-40.17
-37.42
-32.65
-26.70
-20.47
-14.58
-9.17
-4.05
1.14
6.62
12.36
18.09
23.41
28.01
31.70
34.55
36.78
38.66
40.37
41.89
43.00
43.35
42.64
40.72
37.73
33.99
29.86
25.58
21.14
16.41
11.16
5.24
-1.36
-8.58
-16.28
-24.22
-31.93
-38.71
-43.70
-46.18
-45.85
-43.00
-38.42
-33.10
-27.82
-22.85
-17.94
-12.49
-5.84
2.43
12.27
23.09
33.90
43.44
50.62
54.69
55.53
53.57
49.63
44.63
39.39
34.48
30.20
26.56
23.40
20.45
17.39
14.04
10.36
6.42
2.30
-2.02
-6.72
-12.08
-18.23
-25.03
-31.97
-38.23
-42.87
-45.10
-44.41
-40.78
-34.65
-26.91
-18.60
-10.79
-4.26
0.55
3.71
5.63
6.95
8.30
10.16
12.78
16.14
20.05
24.19
28.15
31.49
33.74
34.53
33.61
30.95
26.79
21.59
15.87
10.13
4.67
-0.37
-4.98
-9.17
-13.00
-16.53
-19.97
-23.55
-27.49
-31.77
-35.97
-39.31
-40.85
-39.79
-35.82
-29.28
-21.10
-12.44
-4.40
2.37
7.71
11.87
15.17
17.79
19.62
20.41
19.95
18.25
15.65
12.54
9.34
6.28
3.44
0.91
-1.13
-2.42
-2.76
-2.16
-0.94
0.33
1.16
1.28
0.86
0.31
0.05
0.28
0.88
1.52
1.85
1.67
0.92
-0.42
-2.47
-5.44
-9.45
-14.21
-18.89
-22.18
-22.72
-19.69
-13.11
-3.84
6.81
17.66
27.91
37.22
45.35
51.92
56.12
57.14
54.42
48.15
39.31
29.38
19.85
11.71
5.32
0.46
-3.32
-6.40
-8.94
-10.93
-12.35
-13.33
-14.24
-15.49
-17.40
-19.94
-22.71
-25.08
-26.45
-26.69
-26.20
-25.85
-26.66
-29.27
-33.62
-38.92
-43.84
-47.05
-47.66
-45.45
-40.74
-34.22
-26.57
-18.35
-9.95
-1.76
5.86
12.54
18.00
22.13
25.00
26.77
27.64
27.78
27.36
26.59
25.69
24.83
24.09
23.39
22.58
21.47
19.99
18.17
16.11
13.95
11.74
9.43
6.88
3.93
0.58
-3.09
-6.83
-10.45
-13.80
-16.93
-19.99
-23.20
-26.73
-30.59
-34.57
-38.13
-40.57
-41.07
-39.01
-34.18
-26.93
-18.14
-8.93
-0.31
7.04
12.96
17.54
21.03
23.55
25.11
25.71
25.52
24.87
24.15
23.65
23.42
23.21
22.69
21.60
19.93
17.83
15.52
13.18
10.87
8.62
6.55
4.77
3.43
2.50
1.82
1.14
0.25
-0.85
-2.03
-3.15
-4.16
-5.27
-6.87
-9.40
-13.10
-17.83
-23.01
-27.70
-30.85
-31.52
-29.20
-23.97
-16.36
-7.34
2.03
10.79
18.26
24.11
28.34
31.17
32.98
34.16
35.00
35.67
36.20
36.56
36.72
36.82
37.10
37.85
39.28
41.32
43.57
45.37
45.98
44.81
41.50
35.95
28.25
18.63
7.50
-4.56
-16.70
-27.93
-37.36
-44.51
-49.49
-52.91
-55.58
-58.07
-60.40
-62.13
-62.64
-61.62
-59.34
-56.59
-54.26
-52.81
-52.06
-51.27
-49.63
-46.78
-43.05
-39.21
-36.00
-33.66
-31.78
-29.57
-26.32
-21.77
-16.25
-10.60
-5.70
-2.24
-0.41
0.10
-0.07
-0.24
0.01
0.64
1.16
0.93
-0.49
-3.00
-5.98
-8.59
-10.30
-11.22
-12.10
-13.91
-17.28
-22.12
-27.61
-32.44
-35.27
-35.01
-30.90
-22.66
-10.47
4.90
22.08
39.31
54.85
67.40
76.37
81.77
83.95
83.32
80.15
74.76
67.67
59.71
51.87
45.08
39.87
36.11
33.13
29.97
25.81
20.35
13.98
7.63
2.36
-1.11
-2.78
-3.27
-3.66
-4.84
-7.32
-10.98
-15.29
-19.58
-23.33
-26.31
-28.59
-30.48
-32.29
-34.31
-36.56
-38.70
-40.02
-39.56
-36.41
-30.17
-21.06
-10.02
1.70
12.89
22.77
31.00
37.55
42.38
45.37
46.43
45.61
43.35
40.35
37.31
34.71
32.74
31.33
30.36
29.71
29.28
28.90
28.34
27.36
25.80
23.66
21.02
17.95
14.50
10.69
6.60
2.46
-1.50
-5.20
-8.86
-12.89
-17.72
-23.43
-29.56
-35.06
-38.71
-39.49
-36.98
-31.47
-23.86
-15.30
-6.77
1.08
8.02
14.03
19.07
22.92
25.18
25.50
23.87
20.67
16.68
12.75
9.53
7.25
5.79
4.84
4.10
3.38
2.61
1.70
0.42
-1.55
-4.51
-8.59
-13.60
-19.01
-24.17
-28.55
-31.90
-34.46
-36.78
-39.51
-43.13
-47.65
-52.56
-56.90
-59.52
-59.51
-56.38
-50.38
-42.43
-33.87
-26.13
-20.23
-16.49
-14.44
-13.19
-11.71
-9.41
-6.23
-2.72
0.37
2.39
3.16
2.96
2.41
2.15
2.42
3.07
3.58
3.45
2.44
0.73
-1.24
-3.12
-4.77
-6.39
-8.22
-10.28
-12.20
-13.42
-13.54
-12.59
-11.29
-10.72
-11.94
-15.44
-20.79
-26.66
-31.18
-32.57
-29.85
-23.19
-13.91
-3.92
5.01
11.89
16.76
20.43
23.84
27.61
31.67
35.55
38.66
40.63
41.45
41.27
40.19
38.17
35.18
31.52
27.85
25.12
24.12
25.03
27.21
29.36
30.13
28.62
24.71
18.99
12.43
5.85
-0.25
-5.92
-11.42
-16.99
-22.59
-27.68
-31.42
-32.85
-31.35
-26.85
-19.98
-11.91
-3.98
2.73
7.65
10.74
12.25
12.49
11.70
10.08
7.92
5.72
3.98
3.03
2.73
2.58
1.96
0.61
-1.09
-2.28
-1.99
0.24
4.08
8.53
12.34
14.55
14.77
13.12
9.95
5.53
-0.09
-6.90
-14.72
-22.91
-30.50
-36.29
-39.36
-39.32
-36.44
-31.51
-25.49
-19.16
-12.96
-7.02
-1.35
4.02
8.92
13.15
16.47
18.73
19.88
19.92
19.02
17.53
16.08
15.42
16.22
18.77
22.80
27.61
32.34
36.27
39.11
40.82
41.56
41.39
40.27
38.08
34.75
30.31
24.79
18.16
10.28
0.99
-9.71
-21.36
-33.06
-43.50
-51.24
-55.09
-54.47
-49.59
-41.44
-31.60
-21.71
-13.09
-6.40
-1.63
1.69
4.08
5.82
6.87
6.95
5.83
3.57
0.60
-2.37
-4.51
-5.15
-3.99
-1.13
2.94
7.47
11.60
14.57
15.82
15.07
12.36
8.01
2.65
-2.93
-7.87
-11.33
-12.77
-12.05
-9.50
-5.81
-1.78
1.86
4.67
6.54
7.69
8.57
9.80
11.99
15.58
20.66
26.83
33.27
38.95
43.03
45.15
45.56
45.02
44.47
44.57
45.52
47.00
48.31
48.66
47.46
44.49
39.98
34.47
28.65
22.94
17.45
11.96
6.10
-0.39
-7.52
-15.16
-23.07
-30.83
-37.71
-42.28
-42.61
-37.01
-25.19
-9.01
7.64
20.14
24.92
20.81
9.19
-7.01
-24.73
-41.78
-57.05
-69.99
-80.14
-87.00
-90.40
-90.76
-89.06
-86.46
-83.66
-80.85
-77.89
-74.59
-70.99
-67.20
-63.17
-58.71
-53.48
-47.25
-39.88
-31.23
-20.92
-8.27
7.34
25.97
46.68
67.38
85.43
98.51
105.41
106.45
103.16
97.55
91.26
85.03
78.82
72.21
64.98
57.29
49.62
42.24
35.06
27.58
19.31
10.21
0.92
-7.36
-13.29
-15.95
-15.10
-11.23
-5.42
1.12
7.35
12.56
16.47
19.06
20.48
20.88
20.39
19.10
17.14
14.66
11.78
8.63
5.24
1.66
-2.02
-5.55
-8.59
-10.84
-12.16
-12.70
-12.77
-12.76
-12.91
-13.32
-13.95
-14.70
-15.52
-16.37
-17.24
-18.11
-18.94
-19.70
-20.37
-20.97
-21.57
-22.36
-23.60
-25.55
-28.36
-31.83
-35.32
-37.83
-38.38
-36.36
-31.83
-25.50
-18.38
-11.40
-5.05
0.58
5.61
10.08
13.85
16.65
18.33
18.96
18.79
18.16
17.33
16.47
15.73
15.30
15.40
16.15
17.49
19.12
20.71
21.89
22.47
22.31
21.39
19.74
17.46
14.79
12.00
9.39
7.06
4.86
2.47
-0.51
-4.37
-9.20
-14.81
-20.67
-25.96
-29.74
-31.16
-29.71
-25.46
-19.03
-11.45
-3.80
3.07
8.76
13.27
16.81
19.61
21.76
23.17
23.70
23.30
22.09
20.38
18.58
17.04
15.93
15.20
14.60
13.81
12.54
10.64
8.20
5.42
2.60
-0.06
-2.47
-4.74
-7.06
-9.61
-12.56
-16.00
-20.07
-24.85
-30.29
-36.00
-41.23
-44.98
-46.32
-44.72
-40.17
-33.20
-24.55
-15.02
-5.35
3.80
11.74
17.89
21.92
23.94
24.50
24.42
24.42
24.91
25.81
26.64
26.77
25.54
22.60
17.97
12.14
5.91
0.19
-4.33
-7.44
-9.38
-10.81
-12.38
-14.48
-17.11
-19.90
-22.36
-24.19
-25.49
-26.80
-28.96
-32.75
-38.45
-45.56
-52.78
-58.42
-61.01
-59.91
-55.56
-49.29
-42.82
-37.73
-35.03
-35.01
-37.22
-40.40
-42.77
-42.20
-36.90
-26.00
-10.12
8.71
27.49
43.18
53.63
58.07
57.08
52.05
44.62
36.10
27.33
18.90
11.29
5.11
1.00
-0.70
-0.13
2.00
4.64
6.77
7.77
7.49
6.06
3.70
0.52
-3.41
-7.85
-12.30
-16.02
-18.24
-18.50
-16.79
-13.55
-9.53
-5.54
-2.13
0.55
2.85
5.47
9.17
14.45
21.23
28.81
36.10
41.90
45.36
46.23
44.86
42.04
38.75
35.89
33.99
33.18
33.21
33.56
33.63
32.90
31.07
28.06
24.04
19.35
14.43
9.62
5.08
0.66
-3.95
-9.12
-15.03
-21.44
-27.70
-32.81
-35.76
-35.95
-33.31
-28.43
-22.28
-15.88
-9.99
-4.96
-0.84
2.52
5.22
7.26
8.66
9.46
9.83
10.03
10.30
10.77
11.52
12.51
13.68
14.90
15.95
16.55
16.41
15.39
13.54
11.08
8.28
5.41
2.65
0.07
-2.32
-4.58
-6.80
-9.15
-11.78
-14.85
-18.31
-21.84
-24.83
-26.50
-26.19
-23.55
-18.76
-12.46
-5.58
0.99
6.68
11.26
14.87
17.72
20.00
21.73
22.81
23.15
22.67
21.42
19.58
17.47
15.45
13.82
12.65
11.78
10.78
9.22
6.84
3.75
0.38
-2.75
-5.34
-7.44
-9.41
-11.64
-14.34
-17.48
-20.91
-24.43
-27.94
-31.30
-34.20
-36.14
-36.50
-34.79
-30.85
-24.96
-17.73
-9.87
-2.09
5.02
10.95
15.26
17.62
17.86
16.17
13.09
9.46
6.24
4.26
3.93
5.15
7.30
9.49
10.79
10.57
8.64
5.28
1.13
-3.12
-6.97
-10.31
-13.39
-16.70
-20.66
-25.44
-30.77
-36.06
-40.53
-43.44
-44.23
-42.59
-38.47
-32.08
-23.91
-14.77
-5.67
2.40
8.72
13.06
15.60
16.80
17.16
16.99
16.45
15.61
14.59
13.64
13.00
12.75
12.73
12.56
11.84
10.40
8.37
6.09
3.89
1.87
-0.16
-2.59
-5.73
-9.66
-14.17
-18.93
-23.68
-28.30
-32.68
-36.56
-39.34
-40.21
-38.44
-33.78
-26.67
-18.21
-9.78
-2.56
2.81
6.37
8.61
10.23
11.73
13.36
15.07
16.74
18.23
19.51
20.59
21.44
22.00
22.12
21.79
21.10
20.23
19.35
18.48
17.44
15.92
13.64
10.48
6.55
2.21
-2.07
-5.78
-8.62
-10.62
-12.25
-14.26
-17.32
-21.68
-26.88
-31.83
