1541012714.00
64.000000
-0.00
-0.00
-0.00
-0.00
-0.00
-0.00
-0.00
-0.00
-0.00
-0.00
0.00
0.01
0.01
-0.00
-0.03
-0.05
-0.05
0.00
0.13
0.36
0.66
1.01
1.37
1.72
2.06
2.40
2.79
3.24
3.80
4.42
5.06
5.66
6.20
6.68
7.15
7.68
8.31
9.14
10.09
11.04
11.88
12.56
13.14
13.76
14.65
15.96
17.91
20.32
22.90
25.38
27.58
29.57
31.68
34.32
37.81
42.54
48.15
54.10
59.83
64.97
69.58
74.14
79.34
85.71
93.76
103.00
112.62
121.73
129.77
136.75
143.30
150.75
157.77
166.64
177.95
191.79
206.97
220.57
228.25
225.36
208.53
176.87
132.76
80.05
23.07
-34.94
-92.44
-149.16
-205.23
-260.37
-313.74
-363.87
-409.82
-450.89
-486.47
-515.68
-537.14
-549.10
-549.81
-538.17
-513.95
-478.36
-433.51
-382.02
-326.52
-269.28
-212.00
-155.96
-102.18
-51.53
-4.98
36.59
72.53
102.55
126.81
145.81
160.26
170.86
178.25
182.82
184.85
184.57
182.27
178.28
173.02
166.89
160.25
153.33
146.29
139.20
132.09
125.02
118.04
111.23
104.65
98.36
92.40
86.78
81.50
76.58
72.03
67.86
64.07
60.66
57.64
55.02
52.78
50.93
49.45
48.32
47.48
46.85
46.32
45.72
44.88
43.59
41.68
38.99
35.44
30.99
25.68
19.66
13.12
6.35
-0.35
-6.66
-12.30
-17.04
-20.73
-23.29
-24.73
-25.15
-24.72
-23.62
-22.05
-20.19
-18.22
-16.22
-14.26
-12.33
-10.43
-8.51
-6.52
-4.41
-2.13
0.36
3.07
5.99
9.13
12.39
15.68
18.95
22.15
25.25
28.26
31.21
34.15
37.20
40.33
43.55
46.91
50.48
54.31
58.48
63.04
68.07
73.67
79.65
85.91
92.34
98.87
105.42
111.94
118.37
124.70
130.95
136.82
142.07
146.51
149.90
151.99
152.43
150.77
146.36
140.52
133.78
126.49
118.92
111.27
103.72
96.42
89.52
83.17
77.53
72.42
67.76
63.44
59.41
55.62
52.01
48.59
45.38
42.46
39.68
37.02
34.46
32.06
29.90
28.06
26.63
25.70
25.31
25.34
25.65
26.11
26.62
27.08
27.43
27.61
27.61
27.37
26.82
25.86
24.49
22.72
20.64
18.37
16.02
13.71
11.47
9.25
6.97
4.53
1.90
-0.89
-3.73
-6.49
-9.13
-11.70
-14.34
-17.30
-20.75
-24.71
-29.03
-33.38
-37.46
-41.11
-44.48
-47.98
-52.16
-57.51
-64.18
-71.90
-80.14
-88.26
-95.90
-103.13
-110.50
-118.80
-128.70
-140.45
-153.73
-167.83
-181.94
-195.49
-208.39
-220.95
-233.83
-248.03
-264.75
-285.22
-309.86
-337.49
-364.75
-386.57
-397.70
-394.61
-377.06
-348.33
-314.06
-280.05
-250.46
-226.96
-209.04
-195.02
-182.97
-171.16
-158.18
-143.03
-125.30
-105.51
-85.21
-66.62
-51.86
-42.24
-37.69
-36.70
-36.92
-35.88
-31.80
-24.02
-13.21
-1.03
10.33
18.95
23.89
25.43
24.84
23.84
23.76
25.08
27.31
29.55
31.11
31.97
32.81
34.41
37.13
40.43
43.04
43.67
41.49
36.72
30.38
23.57
16.85
9.95
2.25
-6.48
-15.36
-22.46
-25.64
-23.91
-18.17
-11.18
-6.49
-6.88
-13.26
-24.49
-38.35
-52.40
-64.76
-74.28
-80.41
-83.12
-82.94
-81.13
-79.46
-79.85
-83.61
-91.09
-101.69
-114.19
-127.61
-141.52
-156.14
-172.06
-190.01
-210.44
-233.52
-258.76
-284.63
-308.56
-327.19
-337.44
-337.40
-327.08
-308.36
-284.17
-257.60
-230.86
-204.95
-179.91
-155.46
-131.42
-108.10
-85.95
-65.40
-46.60
-29.33
-13.27
1.99
16.80
31.41
45.81
59.93
73.70
87.29
101.09
115.65
131.42
148.60
167.06
186.57
207.00
228.42
250.83
273.61
295.24
313.63
326.80
333.82
335.04
331.86
325.90
318.18
309.06
298.51
286.80
275.01
264.82
258.02
255.58
256.91
259.79
261.07
257.83
248.49
233.45
214.97
195.89
178.47
163.35
149.84
136.94
124.45
113.45
105.53
101.71
101.32
102.14
101.52
97.54
89.82
79.16
66.81
53.66
39.89
25.28
9.66
-6.72
-23.11
-38.53
-52.00
-62.89
-71.11
-77.20
-82.21
-87.16
-92.42
-97.50
-101.19
-102.42
-101.06
-98.28
-96.01
-96.01
-98.84
-103.54
-108.03
-109.79
-106.72
-97.39
-81.36
-59.28
-32.90
-4.88
21.50
43.00
57.12
62.77
60.37
51.79
39.77
27.21
16.45
8.73
3.97
1.04
-1.70
-5.70
-11.72
-19.77
-29.35
-39.80
-50.39
-60.51
-69.42
-76.35
-80.69
-82.23
-81.30
-78.55
-74.99
-71.31
-67.83
-64.40
-60.62
-56.18
-51.24
-46.61
-43.76
-44.45
-49.79
-59.47
-71.02
-80.14
-81.91
-72.46
-50.66
-18.79
17.91
53.26
82.42
103.61
118.32
129.81
140.96
152.67
163.38
170.30
171.21
165.72
155.33
142.40
128.76
114.97
100.56
85.28
69.93
56.58
47.55
44.17
46.03
51.13
56.87
61.07
62.82
62.49
61.15
59.71
58.48
57.11
54.92
51.45
46.72
41.24
35.66
30.50
25.94
21.84
17.96
14.27
11.04
8.75
7.71
7.88
8.67
9.24
8.81
6.99
4.03
0.62
-2.36
-4.40
-5.54
-6.39
-7.80
-10.24
-13.60
-17.15
-19.93
-21.43
-21.85
-22.08
-23.11
-25.46
-28.84
-32.50
-35.83
-38.87
-42.29
-46.92
-53.02
-59.90
-66.23
-70.71
-72.94
-73.75
-74.88
-78.07
-84.17
-92.62
-101.44
-108.19
-110.73
-108.08
-100.72
-90.28
-78.94
-68.59
-60.45
-54.70
-50.30
-45.12
-36.75
-23.53
-5.62
14.90
34.89
51.77
64.78
75.02
84.22
93.00
100.07
102.70
98.53
87.23
70.97
53.42
37.77
25.67
17.22
11.92
9.78
11.37
17.17
26.88
38.99
51.36
61.91
69.41
73.74
75.53
75.63
74.73
73.12
70.80
67.68
63.80
59.48
55.24
51.66
49.02
47.18
45.45
43.04
39.45
34.82
29.91
25.69
22.82
21.36
20.63
19.73
18.00
15.38
12.52
10.40
9.71
10.50
11.99
12.94
12.28
9.63
5.55
1.27
-1.85
-3.02
-2.38
-0.90
0.18
0.12
-0.90
-1.87
-1.55
0.60
4.01
7.13
8.38
7.10
3.97
0.71
-1.08
-0.89
0.41
1.15
-0.01
-3.25
-7.49
-10.98
-12.36
-11.26
-8.39
-4.96
-2.05
-0.22
0.51
0.40
-0.20
-1.01
-1.80
-2.47
-3.09
-3.84
-4.90
-6.22
-7.44
-8.00
-7.48
-5.95
-4.03
-2.43
-1.61
-1.34
-0.88
0.41
2.55
4.79
6.04
5.61
3.71
1.48
0.21
0.64
2.41
4.33
5.04
3.81
0.86
-2.77
-5.94
-7.82
-8.27
-7.65
-6.56
-5.49
-4.65
-3.97
-3.34
-2.81
-2.70
-3.52
-5.64
-9.00
-12.82
-16.02
-17.55
-17.20
-15.79
-14.96
-16.27
-20.33
-26.30
-32.29
-36.29
-37.30
-35.86
-33.78
-33.29
-35.92
-41.93
-50.25
-59.15
-67.09
-73.40
-78.43
-83.17
-88.65
-95.44
-103.37
-111.87
-120.26
-128.40
-136.88
-146.66
-158.46
-172.13
-186.69
-200.84
-213.66
-224.71
-233.77
-240.01
-241.21
-234.28
-216.65
-188.36
-153.12
-117.75
-89.52
-73.56
-70.98
-78.92
-92.48
-107.07
-119.97
-130.49
-138.60
-142.77
-140.47
-129.22
-107.79
-77.26
-40.92
-2.89
33.44
66.44
98.38
132.38
170.97
214.88
262.84
312.17
360.01
404.27
444.19
483.35
525.52
573.43
627.95
687.88
750.54
812.83
872.17
927.01
980.73
1036.60
1096.70
1160.93
1226.91
1290.58
1347.57
1394.20
1402.07
1352.23
1234.43
1050.39
813.99
546.94
272.59
10.47
-226.32
-431.30
-599.01
-727.86
-819.30
-877.30
-907.81
-917.79
-913.97
-902.04
-886.37
-866.93
-843.14
-814.59
-781.61
-745.45
-707.87
-670.63
-635.20
-602.84
-572.77
-544.40
-517.53
-492.14
-468.22
-445.49
-423.23
-400.64
-377.36
-352.65
-326.35
-298.74
-269.44
-237.41
-201.22
-159.56
-111.84
-58.48
-0.26
61.33
123.70
182.62
231.94
263.79
271.98
254.94
216.83
166.72
115.45
71.55
38.87
16.40
0.97
-9.47
-14.31
-11.43
0.04
17.43
34.37
43.59
40.38
25.20
3.62
-16.46
-28.81
-31.45
-26.86
-19.86
-14.53
-12.46
-12.58
-12.54
-10.49
-6.26
-0.91
4.00
7.17
8.64
9.03
8.64
6.78
1.71
-7.87
-21.15
-34.52
-42.50
-40.39
-26.78
-4.45
20.58
41.72
53.99
54.74
42.93
18.93
-16.08
-58.82
-103.16
-140.93
-164.38
-169.03
-154.86
-127.39
-94.22
-61.86
-34.06
-11.79
5.53
18.54
27.59
32.88
34.77
34.22
32.47
30.77
29.75
29.45
29.39
28.97
27.76
25.61
22.92
20.35
18.51
17.66
17.65
17.96
17.99
17.30
15.75
13.65
11.54
10.01
9.37
9.60
10.32
10.95
10.99
10.14
8.57
6.79
5.46
5.12
5.95
7.65
9.51
10.74
10.75
9.51
7.59
5.94
5.45
6.61
9.14
12.14
14.45
15.12
14.07
12.05
10.43
10.30
12.22
15.75
19.57
22.04
21.52
16.61
6.33
-9.47
-29.38
-49.89
-65.91
-72.38
-66.09
-48.64
-25.52
-4.05
9.83
14.02
10.60
4.15
-1.13
-3.38
-3.51
-3.71
-5.63
-9.35
-13.38
-15.74
-15.22
-11.98
-7.36
-3.53
-2.29
-4.23
-8.79
-14.41
-19.27
-22.06
-22.32
-20.06
-15.29
-7.89
1.69
11.82
19.26
20.20
12.17
-4.11
-24.32
-41.99
-51.30
-49.88
-39.45
-24.33
-8.89
4.39
15.25
24.44
32.16
37.51
39.14
36.49
30.63
24.08
19.59
19.05
22.43
27.82
32.44
33.91
31.45
26.24
20.86
17.87
18.76
23.15
29.03
33.67
34.60
30.27
20.14
4.97
-13.14
-30.63
-43.17
-46.95
-40.42
-25.09
-6.03
10.70
20.70
22.86
19.24
13.34
7.90
3.60
-0.48
-5.28
-10.51
-14.36
-14.74
-10.83
-3.87
3.27
7.62
7.33
2.79
-3.73
-9.32
-11.52
-9.24
-2.54
7.50
18.83
28.44
33.03
29.81
17.95
-0.33
-20.13
-35.39
-41.04
-35.87
-22.44
-5.46
10.70
23.36
32.14
36.89
36.79
30.14
15.05
-8.65
-38.38
-68.77
-93.16
-104.65
-100.34
-81.35
-52.68
-21.66
4.86
22.86
32.20
35.71
37.29
39.33
41.95
43.23
41.03
34.62
25.39
16.38
10.50
9.27
12.24
17.80
23.96
28.59
29.39
24.03
11.10
-8.54
-30.76
-49.14
-57.28
-51.85
-34.48
-11.02
11.26
27.04
34.77
36.32
34.71
32.01
28.48
23.31
16.09
7.79
0.43
-4.12
-5.12
-3.44
-1.14
-0.30
-2.09
-6.33
-11.69
-16.55
-19.88
-21.64
-22.79
-24.66
-28.18
-33.40
-39.55
-45.46
-50.37
-54.35
-58.29
-63.47
-70.82
-80.33
-91.05
-101.51
-110.46
-117.64
-123.92
-130.60
-138.81
-148.60
-158.56
-166.10
-168.12
-161.15
-142.08
-109.01
-62.37
-6.08
52.42
103.70
139.21
154.79
152.52
139.60
124.96
115.33
112.75
114.93
117.76
117.90
114.60
109.32
104.06
99.80
95.97
91.03
83.62
73.35
60.89
48.03
36.73
28.48
23.77
21.98
21.49
20.30
16.65
9.71
0.06
-10.51
-19.54
-25.07
-26.24
-23.83
-19.87
-16.79
-16.67
-20.74
-29.35
-41.80
-55.71
-66.44
-67.60
-52.96
-20.13
26.54
75.84
112.94
125.27
107.89
66.04
13.06
-34.62
-63.62
-67.68
-48.37
-12.88
29.81
71.91
108.03
134.79
149.72
150.63
135.84
105.69
63.58
16.16
-28.01
-61.18
-78.98
-81.66
-73.81
-62.10
-52.64
-49.53
-53.47
-62.31
-72.36
-79.94
-82.35
-78.28
-67.73
-51.79
-33.04
-15.60
-4.44
-3.76
-14.13
-31.18
-46.17
-49.64
-35.50
-4.40
36.39
75.40
101.29
107.27
93.67
67.85
41.05
23.31
18.82
24.08
29.82
26.34
9.43
-17.39
-45.05
-64.28
-71.13
-68.91
-65.22
-66.74
-75.31
-87.53
-97.72
-101.38
-96.88
-85.23
-68.31
-47.85
-25.08
-1.32
21.97
43.05
60.46
73.19
80.43
81.62
76.63
66.52
53.95
42.87
37.01
38.24
45.35
54.42
60.81
61.17
55.02
44.83
34.72
28.43
28.31
34.53
45.18
56.55
63.58
60.85
44.20
13.08
-27.70
-68.42
-97.39
-105.70
-91.50
-60.77
-24.36
7.22
28.25
39.03
43.46
44.91
43.67
36.83
21.13
-3.93
-34.93
-65.98
-91.50
-108.59
-117.08
-117.83
-111.08
-96.19
-72.69
-42.11
-8.55
22.32
45.59
59.15
64.11
63.59
60.99
58.15
55.26
51.95
48.04
44.20
41.58
40.91
42.08
44.60
48.09
52.22
56.50
59.55
59.08
52.86
39.94
21.71
1.70
-15.76
-27.28
-31.79
-30.53
-25.81
-19.80
-13.90
-8.85
-5.40
-4.58
-7.25
-13.33
-21.43
-29.18
-34.25
-35.48
-33.07
-28.40
-23.32
-19.27
-16.92
-16.23
-16.75
-17.85
-18.86
-19.29
-18.81
-17.41
-15.27
-12.68
-9.98
-7.52
-5.57
-4.23
-3.61
-3.90
-5.26
-7.78
-11.29
-15.32
-19.11
-21.60
-21.77
-19.00
-13.42
-5.80
2.71
11.13
18.95
26.03
32.62
38.89
44.56
48.69
50.06
47.63
41.08
31.15
19.39
8.14
-0.21
-4.02
-2.92
2.05
8.69
14.33
17.94
18.10
14.57
8.61
2.47
-1.55
-2.06
0.84
5.78
11.03
15.32
18.98
23.72
31.80
44.95
63.54
86.29
110.63
133.33
151.09
161.44
163.02
155.72
140.48
119.11
93.86
67.03
40.78
16.84
-3.45
-19.23
-30.44
-37.90
-43.28
-48.73
-56.34
-67.51
-82.42
-99.72
-116.90
-131.18
-140.83
-146.04
-149.03
-152.97
-160.29
-171.45
-184.57
-196.62
-205.20
-209.86
-212.28
-215.22
-220.87
-229.58
-239.62
-247.60
-249.37
-240.68
-218.01
-179.61
-126.99
-65.98
-6.50
39.58
62.38
58.06
30.96
-7.50
-42.92
-63.24
-62.72
-42.60
-8.75
32.07
74.81
116.52
154.74
186.05
206.29
212.60
205.63
190.06
172.88
160.08
153.82
151.75
148.83
140.18
123.26
98.40
67.75
33.81
-1.27
-35.32
-65.28
-86.89
-95.46
-87.28
-61.58
-22.04
23.22
63.34
87.89
90.40
70.66
34.77
-6.97
-43.47
-66.02
-70.44
-57.51
-32.20
-2.06
24.70
41.19
43.93
34.12
17.53
2.63
-2.33
7.43
31.85
66.41
104.27
138.54
164.15
178.82
182.94
179.19
171.70
165.21
163.47
167.42
174.08
177.43
171.38
153.45
126.84
99.18
78.92
70.93
73.77
80.23
80.90
68.08
38.41
-6.99
-64.05
-126.50
-186.58
-235.75
-266.97
-276.51
-265.45
-239.41
-206.31
-173.95
-146.61
-124.22
-103.72
-83.12
-62.25
-42.49
-25.16
-10.46
1.59
11.69
20.64
29.06
34.72
34.87
27.96
15.38
1.17
-11.01
-18.07
-18.51
-12.25
-3.33
3.61
5.45
2.20
5.39
21.11
46.23
64.73
74.58
75.93
73.38
69.61
66.79
65.94
65.21
62.54
57.27
51.53
46.07
41.09
35.80
29.48
21.83
11.93
-0.18
-13.14
-23.93
-31.50
-36.29
-39.94
-44.13
-49.54
-57.08
-67.23
-79.51
-91.75
-102.46
-111.29
-119.27
-128.08
-138.29
-150.58
-165.33
-182.36
-200.37
-218.72
-238.10
-259.14
-280.43
-295.06
-294.21
-270.80
-222.18
-150.85
-64.36
26.64
112.20
185.88
248.19
301.85
348.78
380.99
389.06
375.59
353.27
339.81
331.55
321.67
303.76
268.40
213.91
145.88
74.37
8.59
-46.30
-90.52
-125.38
-153.98
-179.82
-204.37
-227.06
-246.65
-263.66
-280.64
-301.50
-327.51
-357.71
-388.27
-411.47
-417.51
-397.98
-350.00
-277.61
-190.44
-98.75
-10.87
68.79
140.27
205.55
266.03
321.15
369.22
408.56
438.48
458.04
465.14
457.60
433.63
392.97
337.92
273.53
205.82
139.74
77.78
20.72
-29.58
-71.33
-104.57
-131.59
-155.72
-180.29
-208.08
-240.71
-277.68
-314.26
-344.70
-365.24
-373.98
-369.01
-348.58
-312.96
-265.64
-211.19
-150.29
-81.95
-6.57
73.41
155.01
235.10
309.80
375.09
406.32
387.39
327.83
253.09
181.22
118.10
64.80
24.83
-4.72
-23.98
-30.12
-22.33
-4.93
14.99
30.62
38.72
38.83
31.41
18.20
3.44
-9.02
-18.10
-25.06
-31.11
-36.41
-40.91
-44.99
-48.05
-47.44
-40.30
-25.81
-5.53
17.72
40.68
59.81
71.84
75.27
71.29
62.81
52.89
43.77
36.70
31.86
28.23
24.11
18.24
10.62
2.20
-5.70
-12.08
-16.48
-18.95
-19.91
-19.85
-18.96
-17.26
-14.84
-12.09
-9.63
-8.10
-7.60
-7.66
-7.52
-6.82
-6.11
-6.81
-10.73
-19.31
-33.18
-52.12
-75.33
-101.55
-128.83
-154.30
-174.05
-183.88
-180.63
-163.70
-135.70
-102.07
-69.41
-43.50
-27.42
-20.80
-19.96
-19.11
-11.95
6.77
40.21
88.92
150.67
220.60
291.45
354.22
399.75
420.75
413.91
381.13
328.97
266.37
201.82
141.08
86.64
38.75
-2.99
-38.54
-67.31
-88.91
-103.71
-113.04
-118.72
-122.40
-125.17
-127.48
-129.25
-130.03
-129.25
-126.37
-121.20
-114.11
-105.98
-97.97
-90.94
-85.15
-80.26
-75.71
-71.11
-66.49
-62.23
-58.73
-56.02
-53.73
-51.21
-47.90
-43.65
-38.74
-33.77
-29.27
-25.52
-22.42
-19.61
-16.76
-13.78
-10.90
-8.47
-6.68
-5.32
-3.81
-1.50
1.89
5.92
9.46
11.10
9.69
4.94
-2.46
-11.12
-19.40
-26.00
-30.18
-31.69
-30.64
-27.31
-22.10
-15.57
-8.39
-1.24
5.30
10.94
15.65
19.52
22.65
25.05
26.64
27.34
27.15
26.20
24.74
23.11
21.59
20.40
19.60
19.12
18.81
18.52
18.17
17.82
17.55
17.40
17.35
17.29
17.20
17.11
17.14
17.31
17.49
17.28
16.24
14.05
10.68
6.52
2.16
-1.77
-4.90
-7.17
-8.77
-9.97
-10.96
-11.79
-12.40
-12.77
-12.94
-13.09
-13.37
-13.93
-14.85
-16.16
-17.84
-19.82
-21.89
-23.61
-24.41
-23.70
-21.10
-16.65
-10.78
-4.27
2.06
7.56
11.90
15.04
17.12
18.34
18.84
18.72
18.03
16.84
15.30
13.55
11.74
9.93
8.17
6.50
5.04
3.94
3.39
3.45
4.06
4.99
5.96
6.64
6.81
6.38
5.38
3.96
2.30
0.58
-1.02
-2.43
-3.58
-4.45
-5.03
-5.28
-5.24
-5.01
-4.78
-4.82
-5.31
-6.38
-8.06
-10.26
-12.82
-15.45
-17.67
-18.92
-18.64
-16.49
-12.52
-7.19
-1.22
4.65
9.81
13.87
16.67
18.17
18.52
17.99
16.98
15.93
15.17
14.77
14.58
14.36
13.95
13.34
12.70
12.18
11.86
11.70
11.63
11.59
11.60
11.61
11.50
11.08
10.08
8.43
6.20
3.71
1.36
-0.49
-1.67
-2.22
-2.38
-2.53
-3.01
-4.09
-5.82
-8.03
-10.37
-12.48
-14.16
-15.39
-16.37
-17.29
-18.20
-18.90
-19.00
-18.04
-15.79
-12.35
-8.13
-3.78
0.10
3.12
5.15
6.33
6.93
7.21
7.31
7.31
7.23
7.13
7.10
7.21
7.42
7.65
7.80
7.84
7.88
8.04
8.39
8.78
8.92
8.49
7.38
5.71
3.82
2.13
0.85
-0.05
-0.77
-1.54
-2.50
-3.59
-4.68
-5.64
-6.43
-7.14
-7.95
-8.99
-10.35
-12.05
-14.05
-16.26
-18.48
-20.33
-21.30
-20.82
-18.49
-14.22
-8.42
-1.86
4.52
9.87
13.65
15.70
16.27
15.85
14.99
14.20
13.76
13.66
13.64
13.36
12.57
11.27
9.76
8.47
7.82
8.00
8.86
10.02
10.96
11.28
10.79
9.51
7.66
5.47
3.18
0.96
-1.10
-2.97
-4.68
-6.24
-7.75
-9.25
-10.80
-12.34
-13.81
-15.14
-16.34
-17.50
-18.72
-20.10
-21.53
-22.72
-23.21
-22.49
-20.19
-16.22
-10.84
-4.62
1.72
7.51
12.22
15.55
17.41
17.88
17.18
15.65
13.76
11.93
10.54
9.75
9.47
9.44
9.38
9.11
8.61
8.01
7.46
7.07
6.83
6.64
6.38
5.90
5.06
3.79
2.07
0.03
-2.14
-4.17
-5.88
-7.19
-8.18
-9.07
-10.10
-11.46
-13.17
-14.98
-16.46
-17.00
-16.05
-13.31
-8.92
-3.43
2.31
7.44
11.34
13.80
14.99
15.27
15.06
14.70
14.40
14.32
14.47
14.75
14.85
14.28
12.55
9.35
4.78
-0.65
-6.19
-11.14
-15.05
-17.84
-19.69
-20.82
-21.38
-21.39
-20.87
-19.91
-18.71
-17.52
-16.59
-16.01
-15.83
-16.02
-16.56
-17.39
-18.33
-19.01
-18.87
-17.36
-14.12
-9.22
-3.16
3.18
8.89
13.29
16.09
17.46
17.80
17.58
17.15
16.65
16.03
15.16
13.98
12.51
10.97
9.58
8.55
7.93
7.58
7.27
6.81
6.12
5.29
4.50
3.84
3.28
2.56
1.38
-0.49
-2.99
-5.80
-8.36
-10.13
-10.81
-10.45
-9.41
-8.05
-6.61
-5.01
-2.93
0.22
5.26
13.09
23.95
37.16
51.05
63.19
70.96
72.20
66.09
53.63
37.48
20.89
6.85
-2.64
-6.89
-6.53
-3.44
0.14
2.47
3.15
2.34
0.78
-0.55
-0.79
0.41
2.03
2.81
2.37
2.11
2.58
3.86
5.62
7.58
9.30
8.69
3.85
-5.18
-14.75
-22.98
-28.86
-32.02
-32.27
-30.28
-29.89
-34.87
-45.76
-57.02
-65.79
-70.93
-72.91
-72.57
-71.25
-73.36
-82.44
-98.28
-114.78
-132.22
-154.54
-185.92
-225.95
-247.98
-226.76
-159.15
-84.32
-10.63
60.08
130.77
199.59
265.65
328.00
380.43
413.98
421.56
405.08
367.60
316.04
259.39
204.45
153.74
103.88
50.75
-6.45
-61.10
-107.70
-141.65
-160.66
-167.33
-166.60
-163.92
-161.99
-160.48
-154.95
-142.62
-122.02
-93.95
-64.73
-42.63
-34.46
-42.86
-67.47
-104.69
-150.28
-199.44
-226.11
-212.10
-163.47
-103.96
-51.22
-10.15
22.24
50.17
76.46
101.73
121.72
132.27
132.19
126.02
118.20
111.13
105.36
100.10
93.86
82.33
65.33
44.04
22.27
3.55
-10.16
-18.27
-21.24
-20.04
-17.56
-16.27
-17.18
-19.04
-20.52
-20.89
-20.02
-18.02
-15.10
-12.29
-10.43
-9.98
-10.38
-11.12
-11.91
-12.61
-12.98
-12.72
-11.87
-10.65
-9.54
-8.94
-9.21
-10.59
-12.94
-15.60
-17.68
-18.44
-17.66
-15.97
-14.48
-14.32
-16.16
-19.74
-24.01
-27.51
-29.27
-29.00
-27.38
-25.67
-25.02
-26.17
-29.42
-34.78
-41.92
-49.57
-55.07
-54.68
-44.89
-24.33
4.81
37.02
65.37
84.73
93.48
93.99
90.95
88.51
87.95
87.18
82.31
70.27
50.71
26.35
1.70
-18.99
-33.48
-41.94
-46.25
-48.17
-48.15
-45.41
-39.03
-29.23
-17.86
-7.53
-0.16
4.21
7.33
11.50
18.18
26.86
35.66
42.52
46.40
47.74
48.17
49.51
52.57
56.31
57.79
53.13
39.10
14.76
-17.34
-51.79
-82.25
-103.60
-114.27
-116.51
-114.79
-112.64
-110.39
-104.98
-92.30
-70.38
-41.67
-12.62
9.82
20.75
20.95
15.81
12.28
14.68
23.39
35.48
47.41
57.32
65.42
72.81
79.43
83.60
83.10
77.00
66.57
54.33
42.61
32.23
22.73
13.52
5.13
-0.51
-1.03
4.59
15.06
26.98
36.49
41.08
40.50
36.49
31.48
27.55
25.60
25.42
25.99
26.12
24.71
20.92
14.16
4.40
-7.64
-20.67
-33.24
-44.65
-54.86
-64.20
-72.75
-79.89
-84.48
-85.54
-83.23
-79.19
-76.61
-78.57
-87.09
-102.74
-124.81
-151.64
-180.59
-208.41
-228.04
-234.49
-226.38
-207.60
-186.59
-172.75
-171.78
-182.49
-197.43
-206.60
-203.03
-185.45
-157.80
-125.82
-93.27
-60.36
-25.15
13.48
53.67
90.18
116.71
128.57
124.19
104.95
73.82
33.83
-12.32
-61.64
-110.00
-151.44
-179.08
-186.90
-171.97
-135.65
-83.55
-23.97
34.26
83.73
120.04
142.40
153.10
156.36
156.99
158.93
164.50
174.21
187.10
201.78
217.26
233.69
252.30
274.58
300.84
328.97
353.95
368.91
367.31
345.70
305.25
251.41
191.61
132.02
75.45
21.45
-31.45
-82.85
-128.92
-163.40
-180.33
-176.93
-154.99
-119.64
-76.39
-28.69
22.35
76.35
131.06
180.76
217.36
233.59
226.75
200.65
164.85
131.44
110.80
108.13
122.20
146.80
173.51
194.89
206.59
207.71
199.80
185.25
166.09
143.37
117.60
89.31
59.36
28.23
-4.67
-40.78
-81.33
-125.64
-169.72
-206.76
-229.75
-234.43
-221.38
-195.83
-165.55
-137.74
-116.67
-103.20
-95.79
-92.30
-91.18
-91.66
-93.20
-94.97
-95.79
-94.70
-91.44
-86.67
-81.74
-78.09
-76.56
-77.10
-78.78
-80.24
-80.19
-77.94
-73.66
-68.36
-63.40
-60.05
-58.98
-60.03
-62.21
-63.91
-63.37
-59.17
-50.72
-38.48
-23.96
-9.28
3.46
12.85
18.47
20.85
21.04
20.06
18.53
16.69
14.57
12.31
10.28
9.00
8.87
10.07
12.43
15.52
18.78
21.72
23.92
25.19
25.45
24.80
23.42
21.49
19.12
16.31
13.04
9.32
5.33
1.44
-1.85
-4.09
-5.06
-4.89
-4.03
-3.11
-2.82
-3.69
-6.00
-9.75
-14.52
-19.46
-23.36
-24.91
-23.03
-17.31
-8.24
2.87
14.18
23.90
30.68
33.95
33.86
31.14
26.75
21.62
16.47
11.79
7.84
4.77
2.71
1.73
1.83
2.84
4.50
6.50
8.58
10.59
12.40
13.86
14.73
14.73
13.66
11.49
8.45
4.90
1.25
-2.22
-5.44
-8.54
-11.78
-15.37
-19.36
-23.51
-27.39
-30.52
-32.64
-33.87
-34.75
-36.06
-38.47
-42.31
-47.31
-52.56
-56.65
-57.99
-55.23
-47.72
-35.79
-20.76
-4.65
10.42
22.73
31.44
36.56
38.71
38.78
37.56
35.62
33.33
30.98
28.86
27.26
26.40
26.33
26.92
27.79
28.52
28.71
28.24
27.18
25.77
24.31
22.92
21.56
20.01
18.11
15.78
13.17
10.53
8.13
6.16
4.61
3.37
2.27
1.14
-0.18
-1.81
-3.81
-6.17
-8.76
-11.39
-13.83
-15.94
-17.63
-19.01
-20.33
-21.96
-24.20
-26.98
-29.68
-31.03
-29.48
-23.68
-13.09
1.71
19.13
36.96
52.89
64.93
71.64
72.35
67.35
57.96
46.34
35.04
26.18
20.94
19.20
19.87
21.49
22.96
24.06
25.29
27.45
31.10
36.14
41.96
47.65
52.38
55.41
56.10
54.08
49.59
43.92
39.31
37.95
40.74
46.39
51.85
54.10
52.11
47.67
44.25
44.62
48.62
52.82
52.11
42.18
21.23
-10.12
-49.95
-95.95
-145.28
-193.63
-234.69
-261.30
-267.94
-253.33
-221.32
-179.54
-136.39
-97.92
-66.26
-40.13
-17.00
4.52
23.42
36.60
40.49
33.11
15.24
-9.67
-36.85
-62.02
-82.80
-98.93
-111.50
-121.78
-130.46
-137.70
-143.72
-149.42
-156.27
-165.57
-177.40
-190.07
-200.55
-205.65
-203.53
-194.79
-182.38
-170.49
-162.79
-160.76
-163.00
-165.74
-164.35
-155.23
-137.19
-111.99
-83.96
-58.63
-40.90
-33.22
-34.45
-39.57
-40.88
-30.12
-1.29
47.01
110.39
179.34
241.82
286.76
307.30
302.56
277.29
239.67
198.42
160.42
129.72
107.90
95.24
91.48
95.95
107.05
121.95
136.90
148.38
154.28
154.62
151.28
146.84
143.22
140.89
138.79
135.19
128.68
119.00
107.08
94.54
82.96
73.20
65.23
58.38
51.76
44.73
37.16
29.37
21.92
15.41
10.19
6.29
3.50
1.48
-0.07
-1.33
-2.42
-3.52
-4.93
-7.07
-10.20
-14.20
-18.44
-21.90
-23.50
-22.54
-18.94
-13.24
-6.39
0.54
6.64
11.23
13.99
14.91
14.32
12.79
11.01
9.56
8.78
8.67
8.90
9.02
8.72
8.00
7.23
6.86
7.13
7.83
8.39
8.23
7.14
5.53
4.11
3.49
3.74
4.30
4.33
3.23
1.00
-1.83
-4.58
-6.99
-9.32
-12.23
-16.21
-21.30
-26.91
-32.13
-36.10
-38.35
-38.86
-37.85
-35.60
-32.41
-28.69
-25.19
-22.96
-23.09
-26.08
-31.50
-38.06
-44.12
-48.37
-50.26
-49.97
-47.98
-44.65
-40.00
-33.91
-26.45
-18.20
-10.30
-4.11
-0.71
-0.45
-2.84
-6.69
-10.62
-13.38
-14.10
-12.23
-7.62
-0.30
9.26
20.08
30.49
38.34
41.51
38.41
28.53
12.97
-5.20
-21.28
-30.23
-28.45
-15.55
5.12
27.53
45.41
54.85
55.60
50.51
43.46
37.20
32.13
26.89
19.78
10.25
-0.60
-10.68
-17.97
-21.43
-21.17
-18.29
-14.15
-9.90
-6.06
-2.63
0.52
3.24
4.95
4.81
2.12
-3.11
-9.97
-16.87
-22.02
-24.21
-23.27
-20.03
-15.99
-12.53
-10.39
-9.42
-8.92
-8.04
-6.35
-3.96
-1.42
0.62
1.70
1.69
0.79
-0.64
-2.23
-3.73
-5.10
-6.43
-7.94
-9.82
-12.18
-14.97
-18.00
-21.01
-23.84
-26.43
-28.87
-31.37
-34.18
-37.50
-41.39
-45.71
-50.05
-53.72
-55.94
-56.04
-53.74
-49.30
-43.44
-37.02
-30.81
-25.18
-20.09
-15.32
-10.63
-5.96
-1.39
2.96
7.05
11.01
14.97
18.98
22.83
26.14
28.48
29.58
29.45
28.37
26.72
24.88
23.09
21.55
20.42
19.76
19.43
18.99
17.72
14.95
10.43
4.58
-1.61
-6.97
-10.81
-13.35
-15.61
-18.95
-24.07
-30.49
-36.48
-39.71
-38.24
-31.32
-19.66
-5.07
10.29
24.71
37.23
47.61
55.94
62.34
66.81
69.38
70.24
69.73
68.28
66.19
63.56
60.27
56.13
51.05
45.20
39.16
33.72
29.70
27.63
27.50
28.77
30.48
31.62
31.44
29.62
26.27
21.85
16.86
11.79
6.97
2.55
-1.39
-4.91
-8.08
-11.02
-13.80
-16.50
-19.19
-21.93
-24.86
-28.13
-31.81
-35.75
-39.44
-42.00
-42.42
-39.83
-33.94
-25.24
-14.91
-4.44
4.78
11.89
16.66
19.37
20.53
20.57
19.81
18.44
16.61
14.62
12.79
11.41
10.67
10.51
10.73
11.04
11.18
11.00
10.50
9.79
9.02
8.30
7.64
6.93
5.92
4.34
1.98
-1.18
-4.92
-8.85
-12.50
-15.55
-17.91
-19.69
-21.16
-22.61
-24.25
-26.25
-28.72
-31.62
-34.72
-37.41
-38.80
-37.94
-34.14
-27.33
-18.20
-8.00
1.82
10.05
16.07
19.87
21.87
22.64
22.60
21.94
20.74
19.03
16.93
14.75
12.81
11.38
10.57
10.33
10.52
10.99
11.66
12.43
13.20
13.77
13.93
13.46
12.30
10.50
8.24
5.71
3.02
0.23
-2.72
-5.85
-9.14
-12.47
-15.58
-18.23
-20.26
-21.75
-22.94
-24.27
-26.16
-28.84
-32.29
-36.04
-39.29
-41.00
-40.21
-36.28
-29.27
-19.88
-9.35
0.91
9.75
16.55
21.26
24.18
25.71
26.10
25.45
23.81
21.37
18.50
15.74
13.58
12.27
11.76
11.80
12.05
12.30
12.50
12.73
13.02
13.25
13.15
12.32
10.42
7.34
3.27
-1.39
-6.13
-10.52
-14.28
-17.37
-19.86
-21.95
-23.87
-25.90
-28.29
-31.09
-34.05
-36.45
-37.30
-35.61
-30.77
-22.87
-12.70
-1.61
8.95
17.79
24.18
27.96
29.35
28.85
27.02
24.43
21.59
18.96
16.88
15.56
15.08
15.33
16.09
17.10
18.18
19.23
20.30
21.48
22.76
23.98
24.78
24.72
23.49
21.15
18.15
15.23
13.12
12.25
12.69
14.14
16.25
18.78
21.66
24.79
27.85
30.21
31.08
29.95
26.89
22.75
18.88
16.70
17.17
20.49
26.10
33.01
40.17
46.75
52.14
55.99
58.06
58.24
56.64
53.63
49.77
45.61
41.36
36.74
31.17
24.07
15.22
4.97
-5.99
-16.98
-27.62
-37.89
-47.80
-57.08
-65.20
-71.59
-76.22
-79.83
-83.68
-88.93
-95.92
-103.95
-111.53
-117.16
-119.84
-119.34
-115.89
-109.75
-101.15
-90.40
-78.25
-66.10
-55.75
-48.78
-45.81
-46.14
-47.83
-48.50
-45.98
-39.03
-27.41
-11.72
6.94
27.33
48.20
68.37
86.74
102.54
115.42
125.41
132.68
137.20
138.64
136.56
130.90
122.32
112.21
102.25
93.68
86.89
81.35
76.09
70.35
63.98
57.33
50.90
44.84
38.82
32.24
24.52
15.44
5.00
-6.48
-18.57
-30.74
-42.30
-52.48
-60.67
-66.72
-71.02
-74.43
-77.74
-81.32
-84.76
-87.06
-87.02
-83.73
-76.94
-67.07
-55.06
-42.08
-29.30
-17.63
-7.70
0.18
6.00
9.93
12.26
13.39
13.72
13.69
13.67
13.93
14.57
15.58
16.87
18.28
19.66
20.85
21.75
22.26
22.36
22.11
21.61
20.87
19.79
18.16
15.82
12.80
9.36
5.95
2.92
0.32
-2.20
-5.24
-9.38
-14.88
-21.59
-28.98
-36.29
-42.69
-47.32
-49.37
-48.15
-43.30
-35.01
-24.17
-12.23
-0.91
8.26
14.23
16.66
15.77
12.13
6.48
-0.43
-7.90
-15.26
-21.99
-27.66
-32.07
-35.24
-37.32
-38.53
-39.11
-39.16
-38.73
-37.83
-36.49
-34.80
-32.91
-31.11
-29.80
-29.48
-30.68
-33.78
-38.80
-45.26
-52.29
-58.90
-64.41
-68.73
-72.30
-75.69
-79.07
-81.71
-82.15
-78.76
-70.62
-58.16
-43.23
-28.46
-16.24
-8.05
-4.10
-3.79
-6.22
-10.75
-16.97
-24.48
-32.66
-40.58
-47.27
-52.01
-54.57
-55.16
-54.16
-51.92
-48.70
-44.70
-40.19
-35.58
-31.36
-28.07
-26.12
-25.69
-26.57
-27.97
-28.60
-26.92
-21.69
-12.49
-0.05
13.98
27.37
38.03
44.38
45.75
42.35
35.24
26.21
17.50
11.43
9.81
13.56
22.34
34.78
48.89
62.60
74.29
82.96
88.23
90.16
89.02
85.19
79.15
71.64
63.62
56.19
50.29
46.38
44.28
43.30
42.59
41.52
39.93
38.07
36.27
34.66
33.05
31.04
28.24
24.52
20.04
15.17
10.33
5.81
1.81
-1.58
-4.31
-6.41
-8.06
-9.73
-12.20
-16.43
-23.08
-32.09
-42.26
-51.26
-56.22
-54.82
-46.48
-32.84
-17.34
-4.01
4.12
6.00
2.59
-3.89
-11.13
-17.52
-22.39
-25.82
-28.19
-29.97
-31.53
-33.07
-34.29
-34.21
-31.20
-23.50
-10.14
8.22
28.99
48.14
61.36
65.56
60.04
46.93
30.53
15.98
7.49
6.94
13.41
23.65
33.52
39.55
40.13
35.88
29.20
23.30
21.15
24.79
35.01
51.34
72.19
95.12
117.27
135.95
149.26
156.60
158.73
157.40
154.57
151.81
149.85
148.61
147.54
146.06
143.92
141.43
139.28
138.32
139.08
141.46
144.45
146.23
144.50
137.13
122.70
101.01
73.18
41.41
8.44
-23.10
-51.33
-75.53
-96.05
-113.91
-130.12
-145.03
-158.12
-168.24
-174.20
-175.31
-171.77
-164.56
-155.12
-144.87
-134.90
-125.89
-118.22
-112.11
-107.69
-105.01
-103.87
-103.85
-104.23
-104.30
-103.34
-100.87
-96.56
-90.31
-82.20
-72.54
-61.94
-51.20
-41.19
-32.56
-25.54
-19.95
-15.30
-11.15
-7.31
-3.94
-1.44
-0.32
-0.81
-2.86
-5.99
-9.36
-11.95
-12.75
-11.04
-6.64
0.08
8.20
16.57
24.06
29.79
33.20
34.02
32.21
27.97
21.71
14.16
6.23
-1.10
-7.04
-11.21
-13.67
-14.90
-15.53
-16.13
-17.01
-18.14
-19.27
-20.04
-20.29
-20.03
-19.50
-18.97
-18.68
-18.70
-19.05
-19.68
-20.62
-21.95
-23.84
-26.36
-29.51
-33.16
-37.07
-40.97
-44.54
-47.28
-48.50
-47.29
-42.74
-34.32
-22.23
-7.57
7.79
21.78
32.70
39.70
42.89
43.14
41.57
39.14
36.45
33.72
31.03
28.48
26.27
24.59
23.54
23.01
22.71
22.36
21.82
21.13
20.54
20.24
20.22
20.23
19.84
18.69
16.65
13.91
10.90
8.08
5.74
3.89
2.26
0.46
-1.76
-4.43
-7.23
-9.70
-11.39
-12.10
-11.98
-11.52
-11.43
-12.41
-14.92
-18.94
-23.88
-28.55
-31.46
-31.17
-26.86
-18.68
-7.76
4.01
14.62
22.55
27.07
28.38
27.22
24.59
21.41
18.31
15.61
13.43
11.78
10.61
9.86
9.50
9.48
9.70
10.05
10.35
10.46
10.28
9.81
9.11
8.24
7.20
5.85
4.06
1.77
-0.96
-3.87
-6.65
-9.05
-10.99
-12.59
-14.14
-15.93
-18.15
-20.81
-23.68
-26.37
-28.45
-29.66
-29.99
-29.85
-29.91
-30.92
-33.41
-37.47
-42.60
-47.79
-51.69
-52.90
-50.36
-43.65
-33.15
-20.06
-6.14
6.70
16.90
23.65
26.98
27.56
26.43
24.51
22.35
20.18
17.96
15.62
13.19
10.77
8.47
6.34
4.35
2.38
0.39
-1.54
-3.29
-4.74
-5.82
-6.55
-7.06
-7.52
-8.11
-9.01
-10.30
-11.97
-13.91
-15.90
-17.75
-19.41
-20.97
-22.66
-24.67
-27.04
-29.57
-31.92
-33.73
-34.77
-35.08
-34.90
-34.58
-34.54
-35.15
-36.65
-39.07
-42.02
-44.63
-45.64
-43.76
-38.09
-28.62
-16.33
-2.93
9.59
19.64
26.35
29.59
29.84
27.72
23.93
19.04
13.62
8.18
3.14
-1.27
-5.04
-8.30
-11.09
-13.40
-15.02
-15.76
-15.49
-14.29
-12.32
-9.68
-6.32
-1.95
3.83
11.36
20.85
32.15
44.89
58.42
71.99
84.83
96.18
105.39
111.85
115.09
114.78
110.93
103.86
94.13
82.37
69.02
54.29
38.22
21.03
3.42
-13.26
-27.26
-36.85
-40.92
-39.34
-32.92
-23.17
-11.88
-0.67
9.19
16.86
21.99
24.62
25.11
24.04
22.10
19.86
17.73
15.93
14.52
13.54
12.98
12.77
12.79
12.85
12.80
12.60
12.31
12.06
11.94
11.90
11.80
11.45
10.71
9.56
8.05
6.22
4.13
1.83
-0.59
-2.97
-5.16
-7.14
-9.07
-11.28
-14.11
-17.72
-21.88
-26.04
-29.50
-31.69
-32.40
-31.87
-30.69
-29.62
-29.31
-30.12
-31.95
-34.13
-35.61
-35.09
-31.57
-24.66
-14.90
-3.67
7.21
15.99
21.54
23.54
22.43
19.15
14.80
10.37
6.57
3.80
2.18
1.60
1.79
2.46
3.29
4.07
4.64
5.00
5.19
5.34
5.54
5.78
5.94
5.83
5.24
4.13
2.66
1.13
-0.07
-0.64
-0.42
0.57
2.16
4.08
6.02
7.65
8.66
8.81
7.99
6.28
3.91
1.20
-1.57
-4.22
-6.71
-9.06
-11.28
-13.33
-15.12
-16.65
-18.04
-19.61
-21.63
-24.09
-26.52
-27.93
-27.12
-23.16
-15.85
-5.90
5.17
15.57
23.74
28.79
30.61
29.71
26.90
23.07
18.96
15.12
11.96
9.65
8.20
7.46
7.19
7.16
7.25
7.46
7.87
8.53
9.34
10.11
10.56
10.46
9.76
8.54
7.01
5.35
3.67
1.98
0.23
-1.60
-3.47
-5.30
-6.99
-8.45
-9.67
-10.70
-11.63
-12.61
-13.75
-15.05
-16.41
-17.65
-18.58
-19.12
-19.33
-19.39
-19.50
-19.86
-20.63
-21.96
-23.92
-26.38
-28.86
-30.50
-30.26
-27.31
-21.36
-12.98
-3.41
5.73
13.06
17.77
19.82
19.75
18.32
16.25
14.01
11.84
9.86
8.18
7.03
6.56
6.92
8.00
9.48
10.92
11.87
12.00
11.22
9.65
7.57
5.31
3.12
1.19
-0.43
-1.78
-2.93
-4.00
-5.06
-6.17
-7.28
-8.31
-9.12
-9.65
-9.94
-10.18
-10.61
-11.45
-12.76
-14.36
-15.96
-17.22
-17.97
-18.24
-18.27
-18.37
-18.88
-20.04
-21.91
-24.36
-26.88
-28.67
-28.71
-26.12
-20.53
-12.30
-2.56
7.17
15.46
21.36
24.60
25.42
24.40
22.13
19.14
15.90
12.85
10.32
8.57
7.67
7.52
7.90
8.50
9.10
9.52
9.72
9.75
9.68
9.54
9.34
9.00
8.45
7.66
6.66
5.49
4.22
2.86
1.42
-0.11
-1.70
-3.28
-4.76
-6.10
-7.30
-8.44
-9.64
-10.96
-12.39
-13.85
-15.18
-16.28
-17.11
-17.73
-18.28
-18.98
-20.01
-21.55
-23.65
-26.20
-28.80
-30.79
-31.31
-29.59
-25.24
-18.41
-9.87
-0.76
7.78
14.87
20.06
23.31
24.84
25.01
24.25
22.96
21.59
20.51
19.96
20.02
20.52
21.13
21.47
21.24
20.33
18.79
16.90
14.90
12.95
11.04
9.04
6.82
4.37
1.82
-0.67
-2.94
-4.98
-6.85
-8.61
-10.20
-11.44
-12.16
-12.23
-11.79
-11.07
-10.45
-10.15
-10.25
-10.64
-11.10
-11.45
-11.57
-11.51
-11.38
-11.41
-11.79
-12.71
-14.31
-16.52
-19.06
-21.27
-22.24
-20.98
-16.82
-9.70
-0.29
10.08
19.88
27.75
32.94
35.37
35.55
34.25
32.23
30.05
27.94
25.93
23.88
21.67
19.26
16.73
14.31
12.25
10.81
10.05
9.91
10.10
10.31
10.25
9.75
8.79
7.44
5.84
4.12
2.38
0.66
-1.03
-2.73
-4.47
-6.27
-8.09
-9.88
-11.60
-13.27
-15.03
-17.14
-19.86
-23.43
-27.89
-33.06
-38.34
-42.79
-45.23
-44.53
-40.06
-32.00
-21.41
-10.00
0.40
8.42
13.46
15.76
16.10
15.34
14.19
12.96
11.75
10.51
9.24
8.06
7.12
6.57
6.49
6.85
7.52
8.35
9.24
10.14
11.00
11.74
12.22
12.18
11.45
9.98
7.90
5.49
3.00
0.61
-1.68
-3.91
-6.14
-8.33
-10.39
-12.27
-14.06
-16.01
-18.48
-21.74
-25.73
-29.96
-33.48
-35.05
-33.60
-28.54
-20.14
-9.49
1.77
12.00
20.03
25.38
28.31
29.45
29.55
29.16
28.52
27.66
26.50
25.09
23.68
22.75
22.77
24.09
26.64
29.94
33.19
35.61
36.76
36.74
36.14
35.77
36.21
37.56
39.31
40.53
40.28
38.04
33.90
28.60
23.31
19.33
17.74
19.08
22.97
27.68
30.13
26.31
12.40
-13.85
-51.78
-97.48
-144.60
-186.19
-216.86
-234.19
-238.89
-233.65
-221.53
-204.73
-184.37
-161.13
-136.08
-111.18
-88.75
-70.62
-57.16
-47.14
-38.51
-29.48
-19.50
-9.26
-0.09
7.09
12.45
17.28
23.41
32.23
44.04
57.86
71.96
84.54
94.45
101.43
105.88
108.50
109.77
109.76
108.23
104.86
99.57
92.62
84.63
76.27
68.15
60.61
53.77
47.50
41.54
35.59
29.40
22.84
15.99
9.11
2.52
-3.46
-8.68
-13.26
-17.60
-22.19
-27.52
-33.76
-40.64
-47.24
-52.16
-53.84
-51.09
-43.54
-31.94
-17.92
-3.57
9.24
19.24
25.99
29.74
31.05
30.67
29.27
27.43
25.69
24.42
23.84
24.00
24.79
26.01
27.44
28.92
30.29
31.53
32.65
33.68
34.62
35.37
35.70
35.37
34.22
32.23
29.62
26.73
23.89
21.35
19.18
17.29
15.52
13.63
11.45
8.93
6.15
3.31
0.69
-1.54
-3.37
-5.00
-6.75
-8.92
-11.67
-14.94
-18.50
-22.08
-25.44
-28.48
-31.24
-33.93
-36.90
-40.52
-45.12
-50.61
-56.34
-61.01
-62.98
-60.74
-53.52
-41.67
-26.62
-10.50
4.57
17.02
26.16
32.04
35.23
36.38
36.08
34.80
32.99
31.09
29.56
28.75
28.74
29.37
30.32
31.20
31.77
32.02
32.17
32.48
33.14
34.02
34.74
34.77
33.60
31.05
27.27
22.71
17.99
13.64
10.03
7.22
5.07
3.25
1.38
-0.90
-3.80
-7.30
-11.19
-15.05
-18.45
-21.09
-22.94
-24.26
-25.60
-27.64
-30.98
-35.86
-41.96
-48.29
-53.32
-55.43
-53.36
-46.73
-36.24
-23.45
-10.36
1.16
9.91
15.44
18.00
18.26
17.02
14.99
12.74
10.63
8.84
7.42
6.31
5.39
4.62
3.98
3.53
3.34
3.41
3.61
3.72
3.41
2.33
0.23
-2.92
-6.84
-10.92
-14.39
-16.56
-17.02
-15.79
-13.25
-9.96
-6.45
-3.06
0.03
2.68
4.72
5.86
5.85
4.62
2.36
-0.48
-3.36
-5.86
-7.86
-9.54
-11.36
-13.89
-17.64
-22.92
-29.69
-37.43
-45.11
-51.30
-54.42
-53.26
-47.42
-37.54
-25.14
-12.20
-0.55
8.54
14.69
18.20
19.85
20.49
20.78
21.00
21.13
21.05
20.70
20.37
20.70
22.53
26.51
32.76
40.69
49.12
56.70
62.39
65.81
67.23
67.31
66.69
65.82
64.97
64.45
64.60
65.56
66.84
67.13
64.64
57.93
46.78
32.56
17.78
5.00
-4.22
-9.83
-12.99
-15.21
-17.50
-20.06
-22.52
-24.48
-26.01
-27.70
-30.37
-34.60
-40.36
-46.82
-52.40
-55.23
-53.68
-46.99
-35.64
-21.24
-6.02
7.89
19.09
27.18
32.51
35.84
37.76
38.60
38.40
37.30
35.55
33.61
31.88
30.36
28.66
26.30
23.24
20.17
18.28
18.56
21.05
24.52
26.94
26.47
22.40
15.50
7.56
0.45
-4.71
-7.86
-9.68
-11.06
-12.53
-14.30
-16.36
-18.68
-21.31
-24.23
-27.33
-30.43
-33.34
-36.00
-38.60
-41.50
-45.01
-49.21
-53.58
-56.96
-57.75
-54.45
-46.30
-33.66
-18.03
-1.65
13.24
24.99
32.90
37.23
38.76
38.45
37.03
34.97
32.48
29.68
26.76
24.00
21.74
20.23
19.57
19.62
20.13
20.76
21.30
21.62
21.66
21.37
20.63
19.25
17.05
13.82
9.47
4.09
-2.02
-8.41
-14.46
-19.71
-23.87
-27.02
-29.57
-32.07
-35.10
-39.00
-43.78
-48.99
-53.79
-57.02
-57.41
-53.95
-46.24
-34.71
-20.63
-5.83
7.78
18.74
26.31
30.53
31.99
31.51
29.88
27.72
25.48
23.45
21.85
20.76
20.21
20.08
20.20
20.36
20.39
20.22
19.83
19.31
18.69
17.92
16.84
15.12
12.46
8.64
3.79
-1.72
-7.25
-12.22
-16.21
-19.23
-21.61
-23.98
-27.03
-31.29
-36.87
-43.34
-49.70
-54.48
-56.10
-53.36
-45.86
-34.22
-19.95
-5.02
8.70
19.93
28.12
33.36
36.09
36.82
35.99
34.00
31.35
28.55
26.09
24.25
23.11
22.48
22.14
21.95
21.93
22.18
22.78
23.61
24.34
24.53
23.78
21.89
18.92
15.15
10.97
6.75
2.70
-1.19
-5.05
-9.04
-13.25
-17.56
-21.75
-25.52
-28.63
-31.01
-32.80
-34.37
-36.25
-39.05
-43.16
-48.50
-54.28
-58.98
-60.74
-57.96
-49.86
-37.01
-21.10
-4.50
10.50
22.29
30.30
34.80
36.58
36.56
35.48
33.88
32.09
30.40
29.05
28.21
27.96
28.22
28.77
29.35
29.74
29.88
29.81
29.67
29.47
29.11
28.32
26.79
24.30
20.86
16.75
12.44
8.36
4.75
1.66
-1.09
-3.71
-6.33
-8.94
-11.47
-13.89
-16.29
-18.86
-21.82
-25.33
-29.32
-33.58
-37.74
-41.39
-44.23
-46.14
-47.21
-47.82
-48.50
-49.77
-51.94
-54.88
-57.83
-59.46
-58.16
-52.55
-42.03
-27.16
-9.66
8.07
23.65
35.40
42.63
45.56
45.05
42.12
37.80
33.02
28.57
25.16
23.23
22.88
23.87
25.76
28.07
30.42
32.64
34.68
36.49
37.94
38.82
38.90
37.97
35.96
32.91
29.04
24.67
20.13
15.72
11.62
7.95
4.75
1.99
-0.31
-2.21
-3.81
-5.32
-7.02
-9.24
-12.17
-15.81
-19.89
-24.04
-27.85
-31.11
-33.83
-36.27
-38.83
-41.92
-45.83
-50.48
-55.33
-59.31
-60.99
-58.98
-52.41
-41.41
-27.14
-11.52
3.38
15.90
25.10
30.82
33.46
33.65
32.10
29.53
26.52
23.60
21.09
19.14
17.74
16.82
16.28
16.00
15.84
15.62
15.16
14.33
13.12
11.58
9.82
7.80
5.36
2.26
-1.79
-6.88
-12.85
-19.26
-25.45
-30.68
-34.39
-36.20
-36.01
-33.92
-30.07
-24.64
-17.79
-9.77
-1.02
7.81
15.91
22.46
26.83
28.72
28.07
25.07
20.04
13.60
6.72
0.81
-2.61
-2.35
1.91
9.38
18.32
26.63
32.66
35.61
35.68
33.67
30.48
26.79
22.92
19.01
15.19
11.77
9.10
7.54
7.22
7.96
9.37
10.89
12.04
12.59
12.64
12.49
12.49
12.77
13.17
13.24
12.58
10.98
8.58
5.83
3.19
1.00
-0.71
-2.20
-3.92
-6.25
-9.36
-13.18
-17.34
-21.33
-24.65
-27.04
-28.53
-29.49
-30.42
-31.90
-34.36
-38.00
-42.65
-47.65
-51.85
-53.79
-52.05
-45.78
-35.11
-21.28
-6.26
7.77
19.16
27.09
31.61
33.37
33.20
31.84
29.80
27.48
25.17
23.17
21.77
21.16
21.42
22.43
24.01
25.84
27.70
29.40
30.86
32.01
32.77
32.98
32.38
30.70
27.72
23.41
17.98
11.96
6.07
1.02
-2.73
-5.14
-6.57
-7.66
-9.01
-10.98
-13.61
-16.66
-19.82
-22.77
-25.34
-27.41
-29.01
-30.26
-31.50
-33.25
-36.01
-40.13
-45.43
-51.09
-55.59
-57.23
-54.53
-46.94
-35.01
-20.34
-5.05
8.80
19.76
27.17
31.09
32.02
30.71
27.91
24.40
20.85
17.80
15.57
14.20
13.53
13.29
13.27
13.39
13.65
14.04
14.54
15.05
15.45
15.63
15.50
14.97
13.97
12.41
10.27
7.57
4.49
1.23
-1.96
-4.89
-7.51
-9.91
-12.21
-14.58
-17.08
-19.74
-22.52
-25.33
-28.06
-30.55
-32.69
-34.46
-35.99
-37.59
-39.65
-42.60
-46.63
-51.50
-56.43
-60.13
-61.07
-57.92
-50.08
-37.99
-23.08
-7.37
7.15
18.99
27.45
32.56
34.78
34.77
33.19
30.67
27.85
25.23
23.16
21.78
21.04
20.81
20.96
21.43
22.18
23.19
24.38
25.60
26.61
27.13
26.92
25.80
23.77
21.04
17.94
14.85
12.04
9.55
7.20
4.71
1.83
-1.52
-5.21
-8.90
-12.18
-14.75
-16.46
-17.42
-17.93
-18.34
-18.92
-19.80
-20.86
-21.96
-22.97
-23.93
-25.11
-26.98
-30.05
-34.68
-40.81
-47.74
-54.16
-58.37
-58.82
-54.64
-46.00
-34.12
-20.92
-8.39
2.01
9.55
14.28
16.68
17.32
16.66
15.09
12.95
10.66
8.66
7.30
6.72
6.81
7.31
7.97
8.65
9.33
10.05
10.84
11.60
12.18
12.44
12.25
11.52
10.19
8.24
5.77
3.08
0.57
-1.33
-2.45
-2.84
-2.82
-2.72
-2.72
-2.83
-3.01
-3.28
-3.86
-4.98
-6.77
-9.20
-12.11
-15.43
-19.28
-23.99
-29.79
-36.53
-43.35
-48.81
-51.25
-49.32
-42.54
-31.50
-17.76
-3.36
9.77
20.27
27.60
31.87
33.58
33.31
31.58
28.85
25.58
22.29
19.47
17.46
16.40
16.16
16.51
17.19
18.06
19.07
20.22
21.43
22.46
22.98
22.64
21.22
18.70
15.32
11.50
7.60
3.91
0.44
-2.94
-6.38
-9.95
-13.54
-16.88
-19.72
-21.98
-23.79
-25.52
-27.66
-30.64
-34.67
-39.52
-44.40
-48.00
-48.83
-45.68
-38.09
-26.66
-12.88
1.28
14.00
24.07
31.03
35.04
36.58
36.18
34.34
31.59
28.42
25.38
22.88
21.18
20.28
19.97
19.97
20.01
19.93
19.79
19.77
20.03
20.61
21.23
21.47
20.79
18.84
15.62
11.47
6.97
2.70
-0.95
-3.93
-6.44
-8.89
-11.63
-14.87
-18.59
-22.53
-26.30
-29.56
-32.10
-33.95
-35.45
-37.18
-39.72
-43.56
-48.65
-54.32
-59.25
-61.73
-60.20
-53.84
-42.94
-28.85
-13.61
0.72
12.65
21.48
27.26
30.46
31.68
31.43
30.13
28.17
26.01
24.10
22.82
22.37
22.75
23.73
25.03
26.37
27.58
28.61
29.46
30.16
30.61
30.68
30.19
29.01
27.07
24.38
20.99
17.02
12.67
8.28
4.25
0.87
-1.77
-3.90
-5.94
-8.33
-11.29
-14.78
-18.53
-22.20
-25.58
-28.60
-31.28
-33.80
-36.35
-39.25
-42.89
-47.54
-53.14
-59.05
-63.96
-66.23
-64.36
-57.55
-46.15
-31.57
-15.91
-1.32
10.55
18.91
23.74
25.64
25.43
23.93
21.89
19.94
18.58
18.08
18.48
19.55
20.93
22.32
23.57
24.74
26.03
27.64
29.60
31.80
33.91
35.54
36.38
36.21
35.03
33.00
30.39
27.48
24.48
21.44
18.34
15.16
11.94
8.83
5.96
3.40
1.04
-1.38
-4.13
-7.43
-11.35
-15.80
-20.58
-25.41
-30.04
-34.19
-37.70
-40.54
-42.98
-45.46
-48.55
-52.50
-56.96
-60.87
-62.61
-60.53
-53.68
-42.26
-27.59
-11.80
2.97
15.12
23.96
29.64
32.78
34.09
34.13
33.28
31.83
30.11
28.49
27.36
26.99
27.41
28.41
29.59
30.50
30.87
30.62
29.89
28.92
27.91
26.87
25.63
23.92
21.51
18.34
14.58
10.60
6.80
3.48
0.68
-1.85
-4.53
-7.77
-11.71
-16.17
-20.66
-24.59
-27.58
-29.64
-31.17
-32.86
-35.34
-39.01
-43.84
-49.32
-54.50
-58.11
-58.77
-55.37
-47.41
-35.28
-20.30
-4.46
10.15
21.85
29.75
33.84
34.76
33.48
30.96
27.98
25.08
22.63
20.87
19.90
19.76
20.39
21.69
23.53
25.73
28.05
30.21
31.86
32.66
32.39
30.90
28.28
24.76
20.70
16.51
12.52
8.93
5.76
2.90
0.08
-2.90
-6.15
-9.61
-13.04
-16.19
-18.85
-21.03
-22.92
-24.99
-27.77
-31.64
-36.64
-42.18
-46.99
-49.41
-47.88
-41.51
-30.50
-16.26
-0.94
13.18
24.37
31.80
35.59
36.48
35.37
33.10
30.23
27.10
23.94
20.95
18.31
16.17
14.62
13.64
13.20
13.20
13.53
14.08
14.66
15.08
15.11
14.58
13.39
11.52
8.99
5.85
2.17
-1.92
-6.23
-10.51
-14.50
-18.03
-21.03
-23.54
-25.72
-27.79
-30.04
-32.82
-36.44
-41.04
-46.30
-51.32
-54.68
-54.83
-50.61
-41.70
-28.92
-14.02
0.87
13.83
23.66
30.04
33.37
34.38
33.83
32.29
30.16
27.77
25.47
23.60
22.38
21.87
21.92
22.27
22.72
23.17
23.63
24.12
24.56
24.69
24.22
22.95
20.86
18.13
15.01
11.75
8.42
4.99
1.38
-2.43
-6.33
-10.10
-13.48
-16.31
-18.58
-20.46
-22.28
-24.47
-27.39
-31.06
-34.99
-38.06
-38.71
-35.39
-27.12
-13.96
2.94
21.53
39.54
55.07
67.14
75.70
81.48
85.49
88.70
91.71
94.75
97.86
101.14
104.89
109.57
115.62
123.19
131.99
141.54
151.38
161.44
172.00
183.38
195.40
207.13
217.11
223.86
226.35
224.22
217.56
206.50
190.99
170.89
146.28
117.63
85.74
51.43
15.00
-23.89
-66.08
-112.17
-161.63
-212.01
-258.92
-296.95
-321.32
-329.81
-323.91
-308.53
-290.17
-274.35
-263.60
-256.97
-251.29
-243.14
-230.45
-212.86
-190.90
-165.03
-135.29
-101.80
-65.70
-29.62
2.83
28.33
45.19
53.82
56.34
55.47
53.38
51.22
49.21
47.08
44.49
41.29
37.50
33.19
28.51
23.62
18.69
13.84
9.12
4.55
0.12
-4.12
-8.08
-11.75
-15.20
-18.59
-21.96
-25.05
-27.16
-27.32
-24.65
-18.74
-9.97
0.55
11.29
20.81
28.22
33.26
36.21
37.65
38.07
37.83
37.14
36.10
34.82
33.38
31.80
29.99
27.80
25.02
21.50
17.16
12.02
6.01
-1.12
-9.88
-20.88
-34.59
-50.91
-69.09
-87.78
-105.47
-120.96
-133.72
-143.90
-152.12
-158.95
-164.60
-168.77
-170.70
-169.55
-164.73
-156.23
-144.71
-131.51
-118.40
-107.15
-99.13
-94.81
-93.50
-93.34
-91.71
-85.97
-74.23
-56.00
-32.29
-5.33
22.22
47.92
70.12
87.98
101.42
110.75
116.58
119.57
120.45
119.90
118.48
116.53
114.22
111.55
108.44
104.88
100.88
96.51
91.84
86.96
81.89
76.67
71.32
65.79
60.00
53.86
47.34
40.56
33.78
27.37
21.62
16.68
12.46
8.66
4.90
0.85
-3.71
-8.81
-14.30
-19.93
-25.40
-30.43
-34.91
-38.93
-42.79
-46.87
-51.55
-57.05
-63.24
-69.62
-75.22
-78.68
-78.57
-73.81
-64.09
-50.14
-33.60
-16.60
-1.17
11.29
20.24
25.95
29.18
30.85
31.73
32.40
33.15
34.10
35.34
36.98
39.20
42.06
45.48
49.12
52.48
55.10
56.75
57.52
57.82
58.15
58.86
59.94
61.04
61.51
60.61
57.81
52.93
46.28
38.60
30.81
23.78
18.04
13.76
10.69
8.32
6.02
3.29
-0.15
-4.17
-8.22
-11.39
-12.68
-11.34
-7.09
-0.31
8.09
16.87
24.81
30.89
34.54
35.60
34.34
31.37
27.43
23.24
19.34
16.05
13.48
11.72
10.89
11.20
12.78
15.54
19.17
23.26
27.57
32.03
36.52
40.45
42.31
39.74
30.29
12.56
-12.82
-43.15
-74.49
-103.37
-128.01
-148.69
-166.96
-184.37
-201.59
-218.38
-234.35
-249.60
-264.69
-279.83
-293.76
-303.39
-304.52
-293.46
-268.53
-230.80
-183.53
-131.04
-77.47
-26.29
19.73
58.38
88.02
107.93
118.65
121.97
120.56
117.21
114.24
113.07
114.28
117.69
122.58
127.87
132.33
134.94
135.11
132.88
128.74
123.30
117.05
110.17
102.61
94.29
85.28
75.78
66.02
56.18
46.27
36.27
26.21
16.32
7.01
-1.21
-7.99
-13.24
-17.23
-20.61
-24.16
-28.66
-34.62
-42.07
-50.44
-58.49
-64.55
-66.92
-64.36
-56.60
-44.38
-29.38
-13.60
1.11
13.48
22.99
29.58
33.59
35.44
35.58
34.48
32.67
30.74
29.27
28.83
29.79
32.23
35.90
40.17
44.27
47.64
50.14
52.10
54.08
56.50
59.29
61.89
63.49
63.52
61.92
59.17
55.90
52.57
49.19
45.53
41.46
37.28
33.84
32.21
33.27
37.31
43.98
52.50
61.88
71.23
79.70
86.44
90.50
90.98
87.45
80.28
70.85
61.20
53.45
49.04
48.12
49.40
50.45
48.41
40.86
26.59
5.96
-19.19
-46.13
-71.98
-94.48
-112.50
-126.00
-135.76
-142.86
-148.18
-152.05
-154.19
-153.75
-149.63
-140.93
-127.42
-109.85
-89.84
-69.58
-51.20
-36.24
-25.47
-18.88
-15.96
-15.92
-17.85
-20.72
-23.54
-25.42
-25.82
-24.68
-22.41
-19.80
-17.64
-16.52
-16.59
-17.54
-18.72
-19.46
-19.34
-18.40
-17.24
-16.75
-17.84
-21.03
-26.26
-32.75
-39.09
-43.62
-44.73
-41.34
-33.22
-21.03
-6.18
9.51
24.31
36.86
46.42
52.74
56.01
56.66
55.30
52.63
49.36
46.07
43.17
40.82
39.00
37.59
36.52
35.75
35.25
35.02
34.96
34.89
34.58
33.73
32.10
29.54
26.04
21.82
17.19
12.47
7.86
3.39
-1.12
-5.80
-10.71
-15.69
-20.41
-24.53
-27.77
-30.06
-31.52
-32.39
-32.99
-33.70
-34.92
-36.94
-39.69
-42.54
-44.26
-43.31
-38.39
-29.08
-16.15
-1.34
13.12
25.35
34.27
39.79
42.42
42.94
41.97
39.90
37.00
33.57
30.02
26.88
24.61
23.51
23.56
24.47
25.79
27.07
28.03
28.63
29.00
29.27
29.42
29.18
28.13
25.88
22.35
17.77
12.69
7.80
3.71
0.77
-0.95
-1.66
-1.80
-1.88
-2.43
-3.82
-6.22
-9.52
-13.47
-17.76
-22.20
-26.88
-32.14
-38.40
-45.76
-53.68
-60.87
-65.53
-65.92
-61.07
-51.20
-37.65
-22.47
-7.82
4.66
13.99
19.89
22.61
22.80
21.43
19.64
18.51
18.75
20.48
23.29
26.47
29.37
31.55
32.83
33.23
32.79
31.56
29.59
26.98
23.87
20.42
16.71
12.75
8.51
3.93
-0.95
-6.08
-11.31
-16.44
-21.22
-25.44
-29.01
-32.11
-35.10
-38.40
-42.26
-46.52
-50.72
-54.22
-56.64
-58.10
-59.23
-60.98
-64.15
-69.06
-75.23
-81.54
-86.34
-87.82
-84.33
-74.67
-58.48
-36.41
-10.13
17.93
45.12
69.13
88.60
103.18
113.39
120.05
123.80
124.79
122.87
117.88
110.03
100.11
89.36
79.13
70.54
64.14
59.81
56.84
54.22
50.89
46.10
39.51
31.23
21.67
11.33
0.76
-9.55
-19.03
-27.02
-32.89
-36.27
-37.32
-36.77
-35.73
-35.23
-35.89
-37.68
-40.04
-42.14
-43.31
-43.27
-42.25
-40.88
-39.94
-40.14
-41.85
-44.86
-48.28
-50.63
-50.14
-45.28
-35.29
-20.52
-2.45
16.80
35.01
50.35
61.65
68.35
70.29
67.59
60.74
50.62
38.59
26.18
14.80
5.39
-1.78
-6.94
-10.53
-12.97
-14.50
-15.18
-15.18
-14.72
-14.17
-13.84
-13.89
-14.27
-14.78
-15.28
-15.71
-16.22
-17.05
-18.39
-20.22
-22.29
-24.17
-25.47
-25.91
-25.47
-24.28
-22.55
-20.37
-17.80
-14.82
-11.61
-8.53
-6.11
-4.88
-5.08
-6.60
-8.95
-11.61
-14.20
-16.73
-19.40
-22.34
-25.35
-27.96
-29.72
-30.61
-31.24
-32.47
-34.89
-38.28
-41.55
-43.13
-41.77
-37.04
-29.49
-20.19
-10.19
-0.20
9.50
18.65
26.83
33.43
37.83
39.76
39.41
37.41
34.55
31.50
28.60
25.84
23.01
19.91
16.48
12.93
9.67
7.16
5.63
4.93
4.45
3.18
0.06
-5.64
-13.89
-23.70
-33.15
-39.91
-41.88
-37.99
-28.55
-15.26
-0.63
12.88
23.47
30.40
33.88
34.61
33.39
30.86
27.44
23.51
19.51
15.92
13.19
11.55
10.97
11.16
11.81
12.63
13.48
14.33
15.16
15.84
16.09
15.57
14.00
11.37
7.92
4.14
0.53
-2.57
-5.13
-7.38
-9.68
-12.31
-15.33
-18.57
-21.76
-24.67
-27.31
-29.94
-33.01
-37.07
-42.44
-49.01
-55.95
-61.75
-64.48
-62.38
-54.48
-41.12
-23.94
-5.41
11.87
25.94
35.81
41.47
43.58
43.07
40.90
37.92
34.88
32.31
30.50
29.46
28.95
28.67
28.40
28.12
28.00
28.29
29.13
30.40
31.72
32.59
32.49
31.22
28.87
25.84
22.62
19.55
16.69
13.93
11.03
7.89
4.63
1.54
-1.02
-2.80
-3.74
-4.11
-4.33
-4.84
-5.90
-7.34
-8.71
-9.35
-8.75
-6.75
-3.67
-0.22
2.70
4.18
3.60
0.86
-3.31
-7.35
-9.08
-6.38
2.05
16.05
33.97
53.18
71.10
86.07
97.69
106.55
113.54
119.06
122.46
122.10
115.87
102.06
80.20
51.53
19.00
-13.49
-42.28
-64.97
-81.10
-91.83
-99.12
-104.68
-109.30
-112.79
-114.41
-113.43
-109.51
-102.64
-93.08
-81.18
-67.43
-52.71
-38.26
-25.58
-16.07
-10.63
-9.36
-11.59
-16.09
-21.41
-26.25
-29.84
-32.04
-33.29
-34.35
-35.84
-38.02
-40.59
-42.91
-44.38
-44.70
-44.09
-43.18
-42.79
-43.67
-46.23
-50.22
-54.64
-57.74
-57.40
-51.69
-39.61
-21.56
0.59
24.01
45.74
63.47
76.06
83.53
86.73
86.90
85.35
83.18
81.27
80.14
80.00
80.68
81.85
83.16
84.38
85.56
86.91
88.71
91.09
93.92
96.63
98.19
97.28
92.55
83.08
68.82
50.76
30.86
11.52
-5.12
-17.70
-26.01
-30.79
-33.22
-34.34
-34.57
-33.81
-31.69
-28.23
-24.15
-20.91
-20.32
-23.90
-32.36
-45.22
-60.85
-76.66
-89.65
-97.05
-97.07
-89.65
-76.59
-61.21
-47.13
-37.05
-31.78
-30.19
-30.10
-29.41
-27.09
-23.40
-19.33
-15.87
-13.31
-11.22
-8.82
-5.53
-1.37
3.14
7.32
10.63
12.95
14.53
15.65
16.48
16.83
16.34
14.67
11.81
8.08
4.05
0.30
-2.82
-5.31
-7.45
-9.55
-11.83
-14.25
-16.58
-18.56
-20.12
-21.51
-23.18
-25.51
-28.42
-31.12
-32.15
-29.84
-23.02
-11.65
3.05
18.83
33.26
44.43
51.53
54.84
55.33
54.10
52.02
49.54
46.80
43.87
40.86
38.02
35.65
34.09
33.55
34.06
35.37
37.06
38.56
39.39
39.29
38.23
36.51
34.57
32.97
32.05
31.71
31.07
28.48
21.90
9.61
-8.94
-32.63
-58.71
-83.62
-104.15
-118.42
-126.32
-129.16
-128.92
-127.38
-125.63
-123.92
-121.85
-118.55
-112.91
-103.76
-90.21
-72.05
-50.00
-25.82
-1.95
19.06
35.24
45.68
50.65
51.32
49.35
46.40
43.72
41.99
41.30
41.33
41.62
41.82
41.85
41.85
42.08
42.72
43.76
45.06
46.40
47.50
48.09
47.88
46.60
44.10
40.42
35.87
30.97
26.29
22.27
19.06
16.49
14.17
11.69
8.80
5.58
2.32
-0.53
-2.71
-4.25
-5.51
-7.04
-9.22
-12.10
-15.32
-18.35
-20.73
-22.36
-23.49
-24.62
-26.18
-28.45
-31.47
-35.08
-38.98
-42.53
-44.72
-44.22
-39.67
-30.24
-15.99
2.00
21.80
41.19
58.20
71.46
80.41
85.16
86.37
85.10
82.66
80.43
79.70
81.34
85.44
91.04
96.03
97.56
92.85
80.10
59.32
32.50
3.14
-24.80
-48.07
-65.06
-75.97
-82.32
-85.94
-88.12
-89.18
-88.68
-86.11
-81.48
-75.58
-69.68
-64.82
-61.32
-58.57
-55.59
-51.72
-47.17
-42.92
-40.23
-39.89
-41.79
-45.01
-48.27
-50.45
-51.05
-50.28
-48.76
-47.36
-46.86
-47.81
-50.43
-54.51
-59.15
-62.88
-63.74
-59.87
-50.14
-34.70
-15.05
6.24
26.32
42.89
54.67
61.57
64.28
63.92
61.51
57.93
53.86
49.84
46.33
43.64
41.84
40.76
40.10
39.50
38.74
37.82
36.91
36.27
36.08
36.29
36.55
36.30
34.91
31.98
27.46
21.78
15.67
9.96
5.27
1.80
-0.70
-2.77
-4.99
-7.78
-11.23
-15.11
-18.99
-22.42
-25.11
-27.05
-28.54
-30.03
-32.13
-35.44
-40.28
-46.54
-53.32
-58.98
-61.43
-58.84
-50.31
-36.37
-18.96
-0.82
15.37
27.78
35.74
39.63
40.36
39.00
36.41
33.24
29.94
26.83
24.14
22.01
20.51
19.63
19.34
19.54
20.13
20.98
21.91
22.73
23.25
23.22
22.46
20.85
18.38
15.14
11.31
7.04
2.47
-2.26
-6.95
-11.31
-15.02
-17.88
-19.89
-21.33
-22.66
-24.43
-27.10
-30.95
-35.91
-41.44
-46.43
-49.36
-48.66
-43.27
-33.08
-19.14
-3.47
11.64
24.21
33.13
38.22
39.96
39.14
36.45
32.44
27.55
22.28
17.23
13.04
10.24
9.03
9.26
10.45
12.07
13.70
15.16
16.43
17.57
18.52
19.00
18.63
17.05
14.04
9.71
4.45
-1.15
-6.48
-11.05
-14.68
-17.47
-19.83
-22.28
-25.37
-29.45
-34.55
-40.23
-45.50
-48.91
-48.93
-44.44
-35.16
-21.94
-6.58
8.67
21.78
31.48
37.49
40.26
40.59
39.18
36.47
32.69
28.12
23.22
18.64
15.05
12.90
12.31
13.06
14.66
16.56
18.27
19.41
19.77
19.28
18.00
16.07
13.54
10.42
6.62
2.09
-3.10
-8.66
-14.14
-19.08
-23.14
-26.27
-28.70
-30.85
-33.15
-35.97
-39.51
-43.77
-48.53
-53.10
-56.35
-56.85
-53.22
-44.71
-31.65
-15.50
1.48
16.96
29.26
37.72
42.66
45.01
45.79
45.76
45.37
44.80
44.10
43.27
42.31
41.18
39.82
38.22
36.45
34.73
33.30
32.35
31.83
31.48
30.86
29.56
27.42
24.58
21.45
18.49
16.03
14.21
12.95
12.06
11.37
10.63
9.55
7.73
4.64
-0.18
-6.96
-15.56
-25.41
-35.68
-45.40
-53.77
-60.30
-65.01
-68.33
-71.08
-74.19
-78.45
-84.13
-90.69
-96.66
-99.90
-98.16
-89.92
-75.01
-54.89
-32.20
-10.05
8.93
23.23
32.55
37.54
39.30
38.94
37.35
35.19
33.08
31.49
30.80
31.12
32.22
33.65
34.84
35.35
35.09
34.30
33.47
33.03
33.08
33.33
33.15
31.92
29.26
25.24
20.29
15.00
9.81
4.93
0.38
-3.87
-7.76
-11.15
-13.90
-16.06
-17.84
-19.45
-20.97
-22.30
-23.18
-23.49
-23.30
-22.93
-22.73
-22.93
-23.51
-24.28
-25.14
-26.25
-28.08
-31.35
-36.69
-44.35
-53.91
-64.09
-72.88
-78.00
-77.46
-70.34
-57.08
-39.56
-20.49
-2.69
11.66
21.45
26.66
27.99
26.47
23.19
19.21
15.52
12.93
11.90
12.25
13.18
13.49
12.13
8.74
3.88
-1.16
-4.85
-6.02
-4.33
-0.26
5.17
10.80
15.75
19.57
22.29
24.18
25.60
26.76
27.65
28.15
28.22
28.04
28.01
28.58
29.97
31.91
33.77
34.76
34.27
32.18
28.83
24.84
20.78
16.96
13.36
9.74
5.77
1.14
-4.41
-10.93
-18.18
-25.33
-30.90
-33.01
-29.85
-20.52
-5.51
13.26
32.99
50.84
64.69
73.51
77.20
76.29
71.59
64.07
54.81
44.99
35.78
28.07
22.23
18.13
15.34
13.37
11.97
11.12
10.97
11.61
13.01
14.95
17.11
19.07
20.37
20.57
19.34
16.66
13.06
9.58
7.49
7.91
11.23
17.00
24.15
31.52
38.36
44.59
50.73
57.47
65.33
74.32
84.00
93.54
102.06
108.77
113.07
114.40
112.03
104.76
91.09
69.80
40.85
6.01
-31.07
-65.75
-93.79
-112.58
-121.80
-123.04
-119.01
-112.68
-106.75
-103.59
-105.04
-112.14
-124.39
-139.41
-153.05
-160.42
-157.44
-142.29
-116.01
-82.21
-45.76
-11.43
17.31
38.74
52.70
60.03
62.05
60.15
55.60
49.46
42.55
35.43
28.40
21.64
15.31
9.63
4.82
1.10
-1.50
-3.09
-3.96
-4.48
-4.94
-5.56
-6.37
-7.23
-7.88
-8.08
-7.74
-7.14
-6.98
-8.21
-11.72
-17.84
-25.93
-34.28
-40.48
-42.12
-37.58
-26.74
-11.01
7.07
24.71
39.69
50.84
58.12
62.26
64.21
64.75
64.32
62.97
60.60
57.06
52.31
46.55
40.19
33.83
28.10
23.50
20.22
18.05
16.50
14.97
13.04
10.70
8.42
6.94
7.08
9.29
13.43
18.71
23.95
28.05
30.39
31.03
30.64
30.13
30.17
30.84
31.55
31.10
28.05
20.95
8.75
-8.95
-31.45
-56.77
-81.75
-102.75
-116.90
-123.16
-122.91
-119.41
-116.42
-116.56
-120.24
-125.64
-129.74
-129.87
-124.67
-114.49
-100.85
-85.55
-70.03
-55.08
-41.10
-28.32
-17.09
-7.85
-0.81
4.16
7.68
10.61
13.73
17.31
21.04
24.09
25.60
25.08
22.67
19.17
15.70
13.27
12.40
13.01
14.44
15.76
16.11
14.95
12.26
8.49
4.37
0.60
-2.35
-4.40
-5.88
-7.40
-9.69
-13.37
-18.64
-25.06
-31.30
-35.36
-34.97
-28.45
-15.33
3.19
24.54
45.58
63.58
76.91
85.26
89.33
90.29
89.44
87.99
87.02
87.24
88.57
90.01
89.65
85.33
75.56
60.19
40.56
19.04
-1.77
-19.71
-33.23
-41.44
-43.99
-41.26
-34.52
-25.96
-18.31
-13.94
-14.16
-18.72
-26.08
-34.13
-41.00
-45.68
-48.13
-49.05
-49.38
-49.94
-51.20
-53.22
-55.83
-58.76
-61.77
-64.72
-67.47
-69.93
-72.14
-74.32
-76.91
-80.36
-84.78
-89.53
-93.10
-93.31
-88.03
-75.98
-57.33
-33.84
-8.39
15.89
36.45
51.91
62.08
67.64
69.66
69.19
67.10
64.13
60.94
58.12
56.18
55.38
55.70
56.86
58.41
59.86
60.86
61.21
61.01
60.57
60.29
60.42
60.86
61.04
60.11
57.22
51.95
44.45
35.49
26.13
17.40
9.93
3.82
-1.29
-5.97
-10.73
-15.76
-20.76
-25.12
-28.08
-29.13
-28.17
-25.68
-22.53
-19.90
-18.91
-20.35
-24.38
-30.25
-36.28
-40.09
-39.33
-32.43
-19.25
-1.17
19.35
39.67
57.77
72.70
84.51
93.78
101.00
106.26
109.01
108.30
103.01
92.23
75.74
54.26
29.46
3.74
-20.43
-41.22
-57.78
-70.34
-79.82
-87.18
-92.93
-96.94
-98.48
-96.65
-90.75
-80.71
-67.26
-51.90
-36.60
-23.40
-13.82
-8.54
-7.32
-9.26
-13.20
-18.10
-23.21
-28.03
-32.22
-35.51
-37.82
-39.29
-40.32
-41.33
-42.65
-44.33
-46.21
-48.17
-50.27
-52.62
-55.13
-57.13
-57.26
-53.79
-45.25
-31.18
-12.50
8.52
28.93
45.95
57.79
63.96
65.20
62.99
58.85
53.97
48.95
44.05
39.37
35.06
31.36
28.48
26.46
25.12
24.14
23.30
22.55
22.05
21.98
22.32
22.71
22.59
21.30
18.46
14.10
8.78
3.36
-1.25
-4.46
-6.24
-7.07
-7.78
-9.18
-11.71
-15.24
-19.19
-22.70
-25.12
-26.22
-26.37
-26.40
-27.31
-29.90
-34.36
-39.99
-45.23
-47.92
-45.96
-38.04
-24.32
-6.39
13.06
31.25
46.19
57.08
64.30
68.73
71.16
71.85
70.72
67.67
62.98
57.57
52.76
49.90
50.01
53.39
59.44
66.66
72.76
75.12
71.52
60.77
43.32
21.28
-2.04
-23.04
-39.00
-48.92
-53.89
-56.51
-59.82
-66.05
-75.71
-87.59
-99.48
-109.26
-115.77
-119.10
-120.16
-119.95
-118.99
-117.16
-113.98
-108.98
-101.80
-92.14
-79.74
-64.31
-45.85
-24.97
-2.95
18.31
36.77
50.77
59.49
63.09
62.57
59.45
55.32
51.42
48.46
46.61
45.65
45.21
45.02
45.09
45.65
47.04
49.47
52.80
56.45
59.49
60.99
60.35
57.55
53.27
48.59
44.66
42.23
41.41
41.68
42.14
41.93
40.53
37.97
34.66
31.24
28.21
25.78
23.72
21.55
18.65
14.45
8.67
1.67
-5.33
-10.34
-11.21
-6.65
2.88
14.90
25.51
30.85
28.44
17.99
1.24
-18.94
-39.57
-58.26
-73.32
-83.67
-88.71
-88.41
-83.44
-75.09
-65.03
-54.83
-45.63
-38.04
-32.12
-27.54
-23.66
-19.79
-15.42
-10.55
-5.80
-2.28
-1.08
-2.71
-6.77
-11.98
-16.66
-19.35
-19.39
-17.08
-13.59
-10.39
-8.83
-9.68
-12.99
-18.20
-24.35
-30.44
-35.75
-39.96
-43.16
-45.75
-48.29
-51.46
-55.82
-61.69
-68.79
-75.99
-81.30
-82.27
-76.72
-63.67
-43.91
-20.02
4.38
25.83
42.11
52.78
59.00
62.71
65.62
68.61
71.62
74.04
75.29
75.25
74.31
73.23
72.73
73.23
74.76
77.13
79.90
82.55
84.42
84.78
83.01
78.85
72.64
65.31
58.18
52.50
49.06
47.91
48.40
49.35
49.42
47.48
42.90
35.78
26.99
17.91
10.09
4.68
2.09
1.82
2.74
3.41
2.59
-0.44
-5.68
-12.48
-19.69
-26.04
-30.45
-32.36
-31.82
-29.37
-25.96
-22.62
-20.24
-19.34
-19.85
-21.20
-22.59
-23.49
-24.04
-25.13
-28.13
-34.21
-43.70
-55.82
-68.86
-80.72
-89.55
-94.13
-94.08
-89.66
-81.65
-71.08
-59.12
-46.92
-35.44
-25.35
-16.97
-10.37
-5.40
-1.81
0.68
2.31
3.24
3.59
3.46
2.96
2.19
1.30
0.42
-0.36
-1.02
-1.57
-2.06
-2.59
-3.27
-4.18
-5.41
-6.99
-8.94
-11.25
-13.90
-16.83
-19.89
-22.86
-25.55
-27.84
-29.84
-31.87
-34.49
-38.26
-43.48
-49.86
-56.33
-61.11
-62.11
-57.55
-46.66
-30.07
-9.79
11.32
30.39
45.30
55.17
60.31
61.89
61.27
59.66
57.79
56.01
54.41
53.04
51.97
51.33
51.23
51.71
52.77
54.42
56.68
59.57
62.96
66.50
69.53
71.31
71.31
69.53
66.61
63.68
62.01
62.42
64.95
68.79
72.50
74.59
74.05
70.72
65.26
58.91
52.83
47.68
43.27
38.64
32.42
23.29
10.31
-6.71
-27.01
-48.84
-69.58
-86.37
-96.97
-100.56
-98.19
-92.43
-86.44
-82.65
-81.95
-83.50
-85.39
-85.63
-83.01
-77.40
-69.50
-60.32
-50.69
-41.15
-32.02
-23.59
-16.23
-10.35
-6.24
-3.77
-2.45
-1.55
-0.42
1.22
3.20
5.01
6.03
5.82
4.28
1.67
-1.47
-4.43
-6.56
-7.38
-6.69
-4.73
-2.00
0.78
2.95
4.04
3.92
2.81
1.24
-0.06
-0.18
1.79
6.61
14.65
25.79
39.30
53.99
68.41
81.11
90.96
97.29
100.01
99.47
96.29
91.22
84.96
78.23
71.58
65.34
59.47
53.35
45.90
35.92
22.59
5.88
-13.24
-33.21
-52.37
-69.56
-84.38
-97.03
-107.87
-116.93
-123.77
-127.65
-128.02
-124.84
-118.83
-111.25
-103.39
-96.13
-89.77
-84.13
-78.96
-74.34
-70.84
-69.26
-70.14
-73.10
-76.67
-78.43
-75.79
-66.87
-51.28
-30.42
-7.00
15.76
35.15
49.61
58.87
63.60
64.82
63.53
60.39
55.97
50.80
45.55
40.90
37.41
35.33
34.60
34.93
35.91
37.17
38.40
39.39
40.04
40.35
40.37
40.16
39.67
38.65
36.72
33.47
28.74
22.74
16.07
9.64
4.32
0.73
-0.95
-1.00
-0.08
1.00
1.38
0.40
-2.30
-6.62
-12.01
-17.60
-22.51
-26.24
-28.92
-31.33
-34.65
-39.89
-47.36
-56.26
-64.64
-69.85
-69.36
-61.61
-46.62
-26.11
-3.04
19.26
37.94
51.29
58.88
61.44
60.44
57.60
54.57
52.55
52.13
53.21
55.16
57.07
58.15
58.06
57.02
55.71
55.06
55.77
58.05
61.43
64.75
66.58
65.57
61.03
53.20
43.21
32.69
23.23
15.87
10.92
8.00
6.49
5.81
5.72
6.27
7.57
9.50
11.44
12.33
10.91
5.99
-3.29
-17.30
-35.86
-58.15
-82.77
-107.96
-131.93
-153.34
-171.51
-186.25
-197.40
-204.17
-205.03
-198.11
-182.15
-157.40
-126.00
-91.51
-57.78
-27.89
-3.43
15.45
29.50
39.72
46.89
51.54
54.03
54.82
54.50
53.76
53.20
53.22
53.87
54.92
55.91
56.37
55.90
54.36
51.85
48.64
45.01
41.12
37.00
32.63
28.04
23.42
19.05
15.24
12.12
9.62
7.59
5.89
4.54
3.57
2.89
2.08
0.39
-3.08
-8.98
-17.32
-27.21
-36.88
-43.99
-46.18
-41.84
-30.64
-13.73
6.53
27.25
45.81
60.53
70.86
77.28
80.84
82.76
83.93
84.63
84.48
82.58
78.08
70.73
61.35
51.76
44.19
40.40
40.97
45.16
51.38
57.87
63.31
66.95
68.35
67.16
63.04
55.89
46.15
34.80
22.99
11.47
0.22
-11.59
-25.10
-41.23
-60.15
-81.19
-103.06
-124.29
-143.56
-159.90
-172.60
-181.12
-185.10
-184.24
-178.27
-166.88
-149.64
-126.23
-96.85
-62.63
-25.84
10.21
41.96
66.40
81.91
88.59
87.99
82.46
74.25
65.08
55.85
46.99
38.69
31.20
24.84
19.84
16.21
13.75
12.13
11.11
10.65
10.89
11.94
13.83
16.32
18.99
21.33
22.83
22.99
21.49
18.21
13.41
7.82
2.47
-1.61
-3.75
-4.08
-3.49
-3.35
-4.89
-8.68
-14.38
-20.80
-26.52
-30.40
-32.09
-32.03
-31.40
-31.79
-34.83
-41.57
-51.88
-63.84
-73.83
-77.30
-70.42
-51.83
-23.80
8.14
36.95
56.48
63.64
59.06
46.37
30.56
16.18
6.12
1.42
1.56
5.23
10.87
17.17
23.22
28.44
32.44
34.94
35.73
34.77
32.29
28.88
25.38
22.50
20.51
19.10
17.54
15.10
11.52
7.14
2.85
-0.41
-2.04
-2.09
-1.29
-0.69
-1.36
-3.93
-8.51
-14.65
-21.64
-28.74
-35.43
-41.50
-47.09
-52.56
-58.38
-65.04
-72.78
-81.47
-90.40
-98.17
-102.88
-102.58
-95.88
-82.58
-63.98
-42.59
-21.49
-3.43
9.82
17.78
20.97
20.49
17.55
13.18
8.30
3.74
0.28
-1.54
-1.60
-0.27
1.87
4.41
7.50
11.81
18.18
26.98
37.65
48.79
58.65
65.93
70.24
72.10
72.45
71.92
70.53
67.71
62.78
55.39
45.83
34.82
23.28
11.96
1.35
-8.30
-16.92
-24.50
-31.22
-37.46
-43.73
-50.46
-57.41
-63.52
-66.89
-65.39
-57.48
-43.08
-23.85
-2.76
16.83
32.28
42.38
47.36
48.41
46.98
44.23
40.94
37.59
34.59
32.33
31.09
30.90
31.51
32.50
33.42
33.97
34.11
33.97
33.80
33.77
33.90
34.02
33.70
32.41
29.69
25.42
19.90
13.85
8.14
3.39
-0.22
-3.07
-5.81
-9.07
-13.08
-17.64
-22.24
-26.35
-29.69
-32.31
-34.53
-36.85
-39.79
-43.78
-49.05
-55.48
-62.43
-68.65
-72.49
-72.25
-66.79
-55.88
-40.47
-22.37
-3.85
13.03
26.79
36.70
42.76
45.45
45.54
43.91
41.42
38.86
36.79
35.58
35.35
35.99
37.25
38.78
40.29
41.59
42.66
43.59
44.50
45.39
46.08
46.15
45.13
42.69
38.74
33.56
27.71
21.85
16.54
12.09
8.50
5.53
2.80
-0.05
-3.24
-6.80
-10.56
-14.21
-17.47
-20.16
-22.38
-24.48
-27.02
-30.54
-35.27
-40.86
-46.22
-49.71
-49.59
-44.73
-35.07
-21.86
-7.30
6.26
16.96
24.00
27.55
28.45
27.64
25.91
23.78
21.61
19.70
18.27
17.47
17.24
17.37
17.63
17.81
17.83
17.74
17.64
17.65
17.87
18.27
18.77
19.08
18.77
17.37
14.49
10.03
4.23
-2.39
-9.15
-15.48
-20.94
-25.42
-29.05
-32.22
-35.51
-39.62
-45.14
-52.17
-60.02
-67.04
-70.98
-69.73
-62.18
-48.80
-31.64
-13.62
2.46
14.72
22.59
26.49
27.36
26.14
23.56
20.24
16.77
13.84
12.01
11.54
12.26
13.63
14.98
15.74
15.71
14.98
13.93
12.97
12.35
12.07
11.78
10.95
8.98
5.54
0.71
-5.02
-10.87
-16.04
-19.98
-22.54
-24.00
-25.02
-26.40
-28.94
-33.21
-39.17
-46.05
-52.36
-56.17
-55.68
-49.87
-38.80
-23.69
-6.51
10.61
25.84
38.04
46.68
51.79
53.75
53.13
50.57
46.70
42.12
37.29
32.63
28.43
24.86
21.97
19.69
17.91
16.52
15.52
14.98
15.01
15.54
16.23
16.45
15.45
12.61
7.76
1.23
-6.18
-13.52
-20.03
-25.40
-29.77
-33.67
-37.80
-42.67
-48.49
-54.89
-60.91
-65.09
-65.78
-61.66
-52.22
-38.08
-20.89
-2.95
13.43
26.56
35.62
40.70
42.47
41.89
39.87
37.16
34.29
31.66
29.50
27.95
27.08
26.80
27.01
27.51
28.10
28.60
28.80
28.53
27.61
25.93
23.39
20.02
15.94
11.41
6.73
2.15
-2.23
-6.47
-10.71
-15.12
-19.72
-24.40
-28.95
-33.18
-37.02
-40.56
-44.09
-48.03
-52.83
-58.74
-65.51
-72.20
-77.17
-78.40
-74.11
-63.46
-46.96
-26.49
-4.73
15.55
32.31
44.51
52.09
55.66
56.01
53.92
50.10
45.21
39.99
35.23
31.58
29.39
28.63
28.83
29.33
29.50
28.95
27.62
25.76
23.69
21.67
19.73
17.63
14.99
11.44
6.81
1.20
-4.99
-11.22
-16.89
-21.57
-25.11
-27.73
-29.91
-32.33
-35.60
-40.14
-45.85
-52.02
-57.35
-60.08
-58.56
-51.72
-39.56
-23.28
-5.07
12.62
27.63
38.74
45.70
49.04
49.65
48.34
45.72
42.19
38.08
33.81
29.82
26.49
24.06
22.51
21.65
21.19
20.87
20.55
20.18
19.69
19.02
17.96
16.30
13.87
10.63
6.68
2.27
-2.38
-7.08
-11.69
-16.18
-20.48
-24.49
-28.16
-31.42
-34.33
-37.09
-40.08
-43.75
-48.53
-54.47
-60.99
-66.80
-70.02
-68.76
-61.72
-48.78
-31.15
-11.08
8.80
26.25
39.87
49.22
54.61
56.75
56.42
54.42
51.46
48.27
45.51
43.63
42.77
42.71
42.95
42.87
42.01
40.23
37.71
35.00
32.66
31.08
30.27
29.83
29.03
27.17
23.84
19.16
13.77
8.50
4.10
0.85
-1.47
-3.47
-5.79
-8.89
-12.75
-16.98
-21.03
-24.47
-27.21
-29.57
-32.20
-35.84
-41.10
-48.18
-56.58
-65.09
-71.83
-74.61
-71.59
-61.91
-46.13
-26.28
-5.25
14.03
29.33
39.64
45.04
46.33
44.54
40.61
35.34
29.45
23.74
18.93
15.53
13.63
12.86
12.58
12.21
11.47
10.49
9.75
9.68
10.47
11.84
13.21
13.94
13.52
11.72
8.56
4.26
-0.86
-6.41
-12.05
-17.55
-22.82
-27.86
-32.67
-37.15
-41.06
-44.13
-46.19
-47.38
-48.17
-49.22
-51.24
-54.72
-59.71
-65.66
-71.33
-74.89
-74.31
-68.00
-55.39
-37.29
-15.81
6.29
26.28
42.18
53.12
59.20
61.18
60.01
56.63
51.74
45.94
39.64
33.25
27.17
21.86
17.75
15.10
13.96
13.99
14.57
15.00
14.72
13.54
11.63
9.36
7.14
5.19
3.56
2.22
1.15
0.28
-0.50
-1.51
-3.19
-5.94
-10.01
-15.34
-21.69
-28.70
-36.08
-43.55
-50.59
-56.26
-59.12
-57.62
-50.54
-37.62
-19.80
0.86
21.68
40.01
53.86
62.20
65.04
63.24
58.19
51.44
44.34
37.85
32.50
28.38
25.30
22.91
20.82
18.70
16.35
13.74
11.03
8.45
6.15
4.12
2.20
0.08
-2.52
-5.66
-9.31
-13.25
-17.31
-21.43
-25.65
-30.00
-34.41
-38.69
-42.53
-45.64
-47.89
-49.35
-50.32
-51.22
-52.53
-54.72
-58.12
-62.69
-67.78
-72.00
-73.33
-69.73
-59.82
-43.56
-22.48
0.70
22.96
41.78
55.84
65.02
70.02
71.91
71.60
69.80
67.01
63.74
60.56
58.01
56.56
56.42
57.50
59.42
61.66
63.71
65.16
65.73
65.21
63.44
60.20
55.34
48.82
40.78
31.59
21.76
11.85
2.35
-6.40
-14.21
-20.96
-26.61
-31.15
-34.66
-37.38
-39.70
-42.15
-45.24
-49.25
-54.08
-59.26
-64.12
-68.09
-71.00
-73.19
-75.46
-78.77
-83.79
-90.47
-97.77
-103.72
-105.79
-101.72
-90.26
-71.79
-48.32
-22.94
1.03
21.01
35.59
44.66
48.99
49.75
48.13
45.16
41.72
38.45
35.84
34.09
33.18
32.90
33.02
33.39
33.97
34.78
35.74
36.73
37.45
37.65
37.10
35.73
33.54
30.56
26.80
22.29
17.12
11.52
5.85
0.58
-3.96
-7.64
-10.68
-13.44
-16.35
-19.67
-23.44
-27.49
-31.50
-35.24
-38.55
-41.48
-44.14
-46.74
-49.53
-52.85
-57.09
-62.53
-69.05
-75.77
-80.98
-82.44
-78.01
-66.54
-48.42
-25.73
-1.63
20.56
38.30
50.38
56.92
58.95
57.83
54.79
50.75
46.37
42.13
38.45
35.57
33.62
32.46
31.82
31.44
31.14
31.02
31.23
31.88
32.83
33.66
33.72
32.43
29.47
24.89
19.16
12.87
6.56
0.51
-5.26
-10.87
-16.45
-22.00
-27.34
-32.20
-36.33
-39.65
-42.31
-44.76
-47.63
-51.58
-57.02
-63.76
-70.69
-75.86
-76.92
-71.84
-59.83
-41.69
-19.79
2.73
22.85
38.51
48.94
54.52
56.23
55.22
52.46
48.66
44.35
40.00
36.01
32.73
30.35
28.87
28.19
28.10
28.40
28.99
29.85
30.96
32.26
33.47
34.12
33.65
31.52
27.53
21.87
15.20
8.40
2.33
-2.55
-6.25
-9.22
-12.16
-15.65
-19.92
-24.82
-29.85
-34.46
-38.24
-41.06
-43.09
-44.81
-46.86
-49.97
-54.78
-61.52
-69.70
-77.86
-83.68
-84.58
-78.55
-64.97
-45.06
-21.59
2.05
22.78
38.64
49.04
54.47
55.94
54.56
51.31
47.04
42.53
38.44
35.26
33.19
32.11
31.71
31.65
31.70
31.86
32.28
33.19
34.64
36.39
37.91
38.45
37.33
34.23
29.32
23.20
16.76
10.76
5.64
1.36
-2.45
-6.31
-10.61
-15.47
-20.71
-25.95
-30.79
-34.91
-38.22
-40.87
-43.31
-46.16
-50.17
-55.88
-63.27
-71.49
-78.70
-82.43
-80.32
-71.00
-54.70
-33.39
-10.23
11.50
29.23
41.72
49.02
52.00
51.77
49.36
45.53
40.92
36.17
31.90
28.64
26.59
25.70
25.62
25.93
26.34
26.75
27.30
28.14
29.30
30.48
31.13
30.58
28.36
24.37
19.02
13.05
7.29
2.34
-1.65
-4.97
-8.13
-11.64
-15.68
-20.04
-24.33
-28.11
-31.18
-33.71
-36.23
-39.46
-44.05
-50.29
-57.83
-65.54
-71.59
-73.77
-70.24
-60.13
-44.02
-23.93
-2.77
16.46
31.59
41.64
46.84
48.22
47.04
44.35
40.87
37.05
33.26
29.91
27.43
26.12
26.03
26.89
28.21
29.49
30.44
30.99
31.25
31.36
31.30
30.82
29.48
26.87
22.79
17.43
11.39
5.44
0.32
-3.61
-6.49
-8.84
-11.39
-14.68
-18.86
-23.68
-28.60
-33.06
-36.74
-39.58
-41.86
-44.08
-46.90
-50.96
-56.70
-64.07
-72.23
-79.47
-83.47
-81.92
-73.40
-58.03
-37.59
-15.00
6.53
24.46
37.44
45.41
49.15
49.78
48.38
45.88
43.00
40.37
38.45
37.42
37.19
37.47
37.93
38.35
38.74
39.26
40.11
41.35
42.78
44.00
44.44
43.58
41.17
37.28
32.38
27.14
22.26
18.14
14.85
12.01
9.17
5.92
2.17
-1.82
-5.60
-8.80
-11.30
-13.37
-15.53
-18.34
-22.12
-26.80
-31.97
-37.07
-41.61
-45.40
-48.57
-51.53
-54.87
-59.20
-64.94
-72.05
-79.70
-86.20
-89.18
-86.22
-75.88
-58.30
-35.50
-10.75
12.42
31.25
44.43
52.03
55.07
54.86
52.61
49.27
45.55
42.00
39.05
36.94
35.67
35.10
34.98
35.09
35.27
35.53
35.87
36.36
36.95
37.48
37.64
37.07
35.40
32.42
28.11
22.72
16.69
10.60
4.97
0.13
-3.84
-7.18
-10.30
-13.63
-17.44
-21.69
-26.11
-30.27
-33.80
-36.53
-38.59
-40.36
-42.48
-45.63
-50.41
-56.99
-64.84
-72.53
-77.84
-78.34
-72.17
-58.85
-39.63
-17.22
5.04
24.25
38.66
47.91
52.68
54.00
52.85
49.87
45.58
40.54
35.44
31.04
27.90
26.26
25.92
26.52
27.60
28.84
30.12
31.42
32.76
34.02
34.90
34.95
33.69
30.72
25.97
19.81
12.99
6.46
0.98
-3.08
-6.00
-8.47
-11.32
-15.17
-20.08
-25.66
-31.21
-36.05
-39.74
-42.35
-44.31
-46.42
-49.58
-54.50
-61.48
-70.02
-78.77
-85.61
-88.08
-84.12
-72.84
-54.89
-32.47
-8.71
13.19
30.87
43.23
50.46
53.56
53.85
52.41
50.04
47.21
44.33
41.73
39.73
38.56
38.21
38.57
39.35
40.38
41.52
42.78
44.19
45.61
46.78
47.25
46.52
44.28
40.52
35.61
30.16
24.89
20.28
16.51
13.35
10.36
7.13
3.46
-0.55
-4.54
-8.07
-10.94
-13.26
-15.53
-18.35
-22.12
-26.88
-32.21
-37.50
-42.12
-45.86
-48.89
-51.79
-55.33
-60.18
-66.77
-74.96
-83.83
-91.61
-95.88
-94.17
-84.83
-67.81
-44.93
-19.43
4.98
25.27
39.83
48.60
52.65
53.45
52.29
50.03
47.22
44.24
41.45
39.21
37.74
37.06
37.00
37.28
37.71
38.21
38.82
39.62
40.58
41.52
42.09
41.90
40.58
37.95
34.00
28.96
23.23
17.25
11.47
6.26
1.82
-1.84
-4.89
-7.71
-10.71
-14.18
-18.26
-22.75
-27.31
-31.56
-35.25
-38.37
-41.18
-44.05
-47.44
-51.79
-57.36
-64.11
-71.38
-77.86
-81.60
-80.51
-73.14
-59.24
-40.13
-18.35
3.06
21.47
35.27
44.05
48.36
49.24
47.78
44.91
41.35
37.62
34.11
31.05
28.61
26.85
25.79
25.42
25.70
26.58
27.95
29.66
31.44
32.89
33.49
32.70
30.15
25.85
20.21
13.95
7.88
2.53
-2.00
-6.06
-10.21
-14.95
-20.39
-26.22
-31.88
-36.76
-40.53
-43.27
-45.45
-47.86
-51.32
-56.42
-63.13
-70.56
-76.95
-80.01
-77.61
-68.56
-53.10
-33.06
-11.24
9.41
26.64
39.29
47.32
51.39
52.44
51.38
48.94
45.82
42.58
39.72
37.57
36.25
35.64
35.54
35.68
35.90
36.20
36.66
37.37
38.31
39.29
39.92
39.69
38.11
34.88
30.02
23.89
17.15
10.57
4.83
0.21
-3.47
-6.82
-10.60
-15.35
-21.13
-27.44
-33.52
-38.71
-42.76
-45.97
-49.01
-52.73
-57.78
-64.48
-72.54
-81.01
-88.18
-91.89
-90.01
-81.18
-65.39
-44.26
-20.55
2.52
22.26
37.07
46.60
51.48
52.82
51.84
49.59
46.86
44.19
41.90
40.16
38.95
38.26
38.01
38.18
38.79
39.82
41.17
42.66
44.02
44.97
45.24
44.66
43.07
40.46
36.81
32.24
26.97
21.30
15.63
10.31
5.60
1.56
-1.91
-5.09
-8.30
-11.79
-15.75
-20.26
-25.22
-30.46
-35.74
-40.82
-45.50
-49.75
-53.73
-57.83
-62.63
-68.64
-76.02
-84.18
-91.59
-95.99
-95.01
-86.98
-71.70
-50.69
-26.80
-3.36
16.81
32.06
42.10
47.61
49.67
49.36
47.51
44.76
41.65
38.66
36.22
34.53
33.60
33.23
33.20
33.36
33.76
34.47
35.46
36.45
36.98
36.53
34.74
31.59
27.37
22.54
17.53
12.55
7.60
2.57
-2.66
-8.10
-13.64
-19.09
-24.22
-28.85
-32.89
-36.45
-39.92
-43.88
-48.95
-55.38
-62.75
-69.72
-74.22
-74.05
-67.62
-54.62
-36.32
-15.22
5.66
23.65
37.14
45.77
50.13
51.29
50.28
47.85
44.50
40.64
36.75
33.34
30.90
29.66
29.55
30.26
31.41
32.71
33.98
35.20
36.36
37.31
37.78
37.41
35.83
32.77
28.21
22.34
15.63
8.71
2.26
-3.21
-7.53
-10.94
-14.00
-17.42
-21.66
-26.81
-32.48
-38.02
-42.79
-46.47
-49.21
-51.54
-54.20
-57.97
-63.40
-70.54
-78.75
-86.56
-91.79
-92.07
-85.59
-71.84
-51.94
-28.44
-4.58
16.67
33.34
44.75
51.25
53.83
53.63
51.73
48.98
46.09
43.55
41.69
40.59
40.13
40.10
40.28
40.56
40.97
41.62
42.55
43.69
44.71
45.16
44.62
42.80
39.72
35.68
31.13
26.50
22.09
17.96
14.02
10.16
6.27
2.36
-1.51
-5.17
-8.53
-11.58
-14.47
-17.44
-20.79
-24.70
-29.14
-33.89
-38.61
-42.95
-46.81
-50.37
-54.11
-58.70
-64.73
-72.34
-80.91
-88.92
-94.10
-94.02
-86.92
-72.41
-51.78
-27.74
-3.55
17.84
34.55
45.95
52.42
54.88
54.38
51.87
48.20
44.13
40.34
37.35
35.41
34.47
34.25
34.32
34.36
34.24
34.06
34.06
34.41
35.12
35.85
36.00
34.87
31.96
27.17
20.89
13.98
7.37
1.78
-2.54
-5.95
-9.12
-12.74
-17.17
-22.27
-27.50
-32.20
-35.94
-38.67
-40.78
-42.91
-45.76
-49.93
-55.68
-62.77
-70.31
-76.64
-79.62
-77.19
-68.11
-52.60
-32.42
-10.41
10.41
27.68
40.26
48.15
52.06
52.91
51.48
48.40
44.25
39.66
35.31
31.75
29.31
27.99
27.62
27.95
28.76
29.87
31.12
32.28
33.10
33.26
32.48
30.55
27.42
23.22
18.23
12.79
7.24
1.71
-3.79
-9.39
-15.20
-21.22
-27.21
-32.80
-37.66
-41.63
-44.93
-48.10
-51.97
-57.23
-64.15
-72.09
-79.51
-84.14
-83.64
-76.43
-62.33
-42.76
-20.38
1.76
21.05
35.93
46.00
51.72
53.98
53.68
51.63
48.50
44.90
41.39
38.34
36.00
34.35
33.31
32.79
32.80
33.41
34.63
36.34
38.19
39.75
40.53
40.18
38.57
35.78
32.03
27.63
22.83
17.82
12.74
7.71
2.90
-1.54
-5.45
-8.82
-11.81
-14.73
-17.96
-21.75
-26.14
-30.92
-35.74
-40.22
-44.19
-47.70
-51.04
-54.68
-59.14
-64.87
-72.00
-80.05
-87.77
-93.13
-93.79
-87.82
-74.45
-54.53
-30.44
-5.42
17.32
35.46
47.96
55.02
57.66
57.19
54.81
51.48
47.90
44.58
41.89
40.04
39.06
38.83
39.12
39.74
40.51
41.38
42.31
43.22
43.96
44.33
44.10
43.08
41.11
38.08
33.98
28.87
22.95
16.60
10.24
4.27
-1.09
-5.75
-9.82
-13.51
-17.07
-20.74
-24.64
-28.83
-33.18
-37.54
-41.67
-45.39
-48.72
-51.92
-55.52
-60.15
-66.33
-74.04
-82.41
-89.62
-93.27
-91.04
-81.61
-65.15
-43.55
-19.78
2.91
21.94
35.94
44.78
49.19
50.28
49.13
46.57
43.20
39.47
35.79
32.53
30.03
28.47
27.85
28.02
28.67
29.49
30.18
30.55
30.51
30.02
29.03
27.37
24.76
20.93
15.74
9.27
1.92
-5.69
-12.91
-19.21
-24.39
-28.54
-32.05
-35.40
-39.17
-43.90
-49.90
-57.08
-64.62
-70.98
-74.12
-72.07
-63.66
-49.03
-29.75
-8.40
12.18
29.68
42.74
51.06
55.09
55.69
53.83
50.40
46.24
41.99
38.14
34.90
32.32
30.34
28.92
28.10
27.91
28.36
29.29
30.40
31.25
31.45
30.65
28.66
25.46
21.20
16.13
10.58
4.80
-1.06
-6.97
-12.99
-19.09
-25.17
-31.04
-36.47
-41.29
-45.50
-49.31
-53.15
-57.58
-63.14
-69.94
-77.44
-84.16
-87.94
-86.51
-78.31
-63.23
-42.81
-19.86
2.45
21.45
35.67
44.87
49.73
51.34
50.73
48.80
46.21
43.53
41.15
39.31
37.97
36.92
35.93
34.91
33.94
33.26
33.16
33.68
34.67
35.73
36.28
35.78
33.80
30.16
24.97
18.69
12.01
5.73
0.44
-3.65
-6.79
-9.64
-12.86
-16.92
-21.78
-27.05
-32.09
-36.38
-39.73
-42.39
-44.99
-48.36
-53.24
-59.89
-67.81
-75.60
-81.13
-82.07
-76.68
-64.46
-46.46
-25.01
-3.06
16.69
32.41
43.36
49.71
52.23
51.84
49.47
46.03
42.29
38.92
36.32
34.59
33.50
32.72
31.96
31.17
30.54
30.37
30.84
31.81
32.84
33.30
32.60
30.42
26.83
22.21
17.03
11.72
6.46
1.20
-4.25
-9.98
-15.94
-21.91
-27.53
-32.53
-36.78
-40.33
-43.46
-46.60
-50.28
-54.99
-60.97
-67.80
-74.29
-78.51
-78.25
-71.87
-59.00
-40.85
-19.97
0.59
18.25
31.50
40.11
44.75
46.41
45.98
44.04
40.97
37.15
33.07
29.28
26.28
24.38
23.56
23.60
24.12
24.75
25.23
25.45
25.42
25.17
24.65
23.68
21.93
18.97
14.51
8.54
1.43
-6.09
-13.18
-19.12
-23.68
-27.07
-29.96
-33.19
-37.50
-43.30
-50.51
-58.46
-65.80
-70.76
-71.44
-66.38
-55.13
-38.58
-18.80
1.46
19.59
33.80
43.43
48.79
50.77
50.33
48.26
45.15
41.49
37.74
34.34
31.66
29.82
28.76
28.29
28.21
28.46
29.03
29.93
31.01
31.91
32.14
31.15
28.64
24.63
19.45
13.69
7.88
2.33
-2.96
-8.22
-13.67
-19.39
-25.23
-30.89
-36.08
-40.64
-44.60
-48.17
-51.71
-55.74
-60.80
-67.18
-74.53
-81.61
-86.30
-86.21
-79.44
-65.57
-45.88
-23.13
-0.60
18.92
33.82
43.81
49.49
51.84
51.77
50.01
47.22
44.09
41.30
39.36
38.47
38.43
38.81
39.09
38.97
38.40
37.60
36.91
36.55
36.51
36.48
35.92
34.24
31.09
26.48
20.86
14.94
9.44
4.76
0.92
-2.52
-6.12
-10.32
-15.25
-20.70
-26.21
-31.31
-35.75
-39.48
-42.75
-45.96
-49.66
-54.42
-60.61
-68.10
-75.98
-82.49
-85.30
-82.29
-72.28
-55.67
-34.46
-11.66
9.61
27.04
39.56
47.33
51.18
52.15
51.11
48.65
45.26
41.40
37.67
34.65
32.76
32.09
32.38
33.16
33.99
34.64
35.18
35.82
36.69
37.67
38.27
37.82
35.71
31.70
26.07
19.55
13.04
7.30
2.69
-0.93
-4.14
-7.59
-11.80
-16.91
-22.64
-28.46
-33.82
-38.37
-42.09
-45.31
-48.59
-52.59
-57.85
-64.55
-72.24
-79.70
-85.06
-86.19
-81.36
-69.92
-52.65
-31.66
-9.80
10.16
26.23
37.53
44.23
47.14
47.27
45.52
42.61
39.05
35.27
31.71
28.75
26.72
25.78
25.84
26.55
27.45
28.08
28.20
27.81
27.10
26.26
25.30
23.95
21.76
18.29
13.33
7.09
0.12
-6.85
-13.14
-18.37
-22.52
-25.92
-29.09
-32.60
-36.93
-42.36
-48.84
-55.81
-62.17
-66.31
-66.51
-61.47
-50.80
-35.35
-17.03
1.70
18.54
31.91
41.16
46.48
48.53
48.08
45.84
42.34
38.07
33.53
29.26
25.78
23.53
22.64
22.96
24.04
25.26
26.07
26.18
25.58
24.46
23.03
21.29
19.00
15.75
11.21
5.34
-1.55
-8.81
-15.78
-21.95
-27.19
-31.73
-35.95
-40.29
-45.10
-50.62
-57.00
-64.18
-71.66
-78.37
-82.63
-82.51
-76.46
-64.01
-46.09
-24.90
-3.29
16.09
31.43
42.06
48.28
50.99
51.20
49.81
47.49
44.74
41.94
39.41
37.35
35.89
34.96
34.47
34.28
34.33
34.59
35.02
35.43
35.50
34.82
32.94
29.63
24.99
19.40
13.46
7.76
2.65
-1.89
-6.15
-10.56
-15.44
-20.84
-26.52
-32.05
-36.98
-41.15
-44.74
-48.28
-52.56
-58.24
-65.53
-73.85
-81.69
-86.86
-87.05
-80.60
-67.21
-48.16
-25.97
-3.66
16.09
31.61
42.38
48.80
51.72
52.12
50.84
48.59
46.03
43.70
41.99
41.01
40.65
40.62
40.64
40.50
40.16
39.74
39.39
39.22
39.15
38.97
38.27
36.60
33.62
29.25
23.77
17.72
11.76
6.41
1.90
-1.91
-5.45
-9.24
-13.68
-18.88
-24.63
-30.41
-35.67
-39.98
-43.30
-45.98
-48.78
-52.59
-58.12
-65.52
-74.11
-82.29
-87.87
-88.57
-82.76
-70.05
-51.52
-29.50
-6.92
13.50
29.87
41.40
48.29
51.33
51.56
49.94
47.27
44.21
41.26
38.77
36.93
35.73
34.98
34.45
33.97
33.52
33.22
33.25
33.68
34.30
34.64
34.04
31.95
28.16
22.91
16.88
10.89
5.56
1.08
-2.81
-6.67
-11.01
-16.05
-21.61
-27.17
-32.20
-36.34
-39.61
-42.34
-45.10
-48.52
-53.08
-58.94
-65.71
-72.32
-77.07
-77.95
-73.29
-62.38
-45.93
-25.93
-5.15
13.75
28.92
39.63
46.08
49.02
49.28
47.55
44.36
40.21
35.66
31.29
27.63
25.05
23.70
23.50
24.18
25.31
26.45
27.19
27.33
26.82
25.76
24.22
22.10
19.17
15.15
9.84
3.38
-3.78
-11.01
-17.62
-23.19
-27.59
-31.01
-33.84
-36.65
-39.99
-44.39
-50.15
-57.07
-64.28
-70.22
-72.91
-70.50
-61.97
-47.61
-29.04
-8.86
10.24
26.12
37.75
45.14
49.04
50.38
49.97
48.36
45.90
42.91
39.83
37.10
35.14
34.13
34.02
34.50
35.25
35.97
36.52
36.92
37.18
37.25
36.92
35.81
33.54
29.89
24.89
18.89
12.53
6.45
1.21
-3.03
-6.48
-9.69
-13.28
-17.70
-23.00
-28.81
-34.53
-39.54
-43.53
-46.56
-49.03
-51.59
-54.99
-59.88
-66.59
-74.89
-83.66
-90.95
-94.32
-91.52
-81.34
-64.20
-42.15
-18.27
4.19
22.82
36.48
45.27
50.11
52.21
52.63
52.14
51.18
50.03
48.87
47.81
46.91
46.19
45.65
45.29
45.14
45.19
45.44
45.79
46.11
46.13
45.58
44.15
41.69
38.19
33.88
29.11
24.27
19.61
15.19
10.91
6.61
2.24
-2.10
-6.19
-9.83
-13.00
-15.92
-19.00
-22.64
-27.06
-32.15
-37.52
-42.66
-47.14
-50.87
-54.14
-57.58
-62.00
-68.06
-75.89
-84.76
-92.93
-97.92
-97.20
-89.05
-73.30
-51.56
-26.82
-2.49
18.54
34.62
45.42
51.60
54.24
54.42
53.07
50.91
48.55
46.45
44.89
43.93
43.44
43.19
43.02
42.91
42.98
43.40
44.24
45.39
46.52
47.16
46.84
45.21
42.18
37.93
32.93
27.75
22.94
18.81
15.37
12.33
9.26
5.82
1.92
-2.27
-6.40
-10.13
-13.34
-16.20
-19.07
-22.34
-26.26
-30.83
-35.73
-40.58
-44.99
-48.78
-52.16
-55.65
-60.01
-65.86
-73.35
-81.67
-89.03
-92.96
-91.01
-81.63
-64.90
-42.65
-18.01
5.58
25.32
39.69
48.58
52.84
53.72
52.38
49.66
46.16
42.41
38.97
36.35
34.89
34.62
35.21
36.15
36.96
37.38
37.46
37.49
37.69
38.10
38.40
37.99
36.26
32.82
27.73
21.45
14.81
8.60
3.39
-0.71
-4.03
-7.14
-10.60
-14.74
-19.51
-24.57
-29.45
-33.70
-37.10
-39.72
-41.87
-44.11
-47.08
-51.40
-57.35
-64.57
-71.82
-77.08
-78.03
-72.77
-60.61
-42.49
-20.77
1.43
21.19
36.50
46.62
51.92
53.36
52.07
48.97
44.76
40.03
35.35
31.25
28.18
26.34
25.63
25.78
26.41
27.27
28.31
29.57
31.01
32.37
33.13
32.63
30.35
26.19
20.52
14.08
7.67
1.82
-3.39
-8.25
-13.22
-18.56
-24.22
-29.83
-34.90
-39.08
-42.28
-44.76
-47.08
-49.98
-54.14
-59.95
-67.16
-74.61
-80.28
-81.79
-77.09
-65.36
-47.41
-25.54
-2.84
17.75
34.19
45.61
52.20
54.76
54.36
52.03
48.69
45.11
41.83
39.18
37.20
35.78
34.81
34.20
34.00
34.28
35.05
36.16
37.35
38.24
38.45
37.71
35.90
33.06
29.38
25.10
20.50
15.81
11.16
6.61
2.20
-2.07
-6.18
-10.04
-13.60
-16.88
-20.00
-23.22
-26.76
-30.74
-35.08
-39.52
-43.71
-47.42
-50.62
-53.52
-56.60
-60.47
-65.71
-72.56
-80.59
-88.42
-93.82
-94.18
-87.37
-72.68
-51.23
-25.78
0.05
22.95
40.66
52.41
58.65
60.53
59.37
56.34
52.39
48.25
44.49
41.51
39.51
38.44
38.12
38.22
38.43
38.54
38.53
38.53
38.78
39.42
40.32
41.03
40.80
38.94
35.05
29.28
22.32
15.15
8.68
3.38
-0.79
-4.34
-7.96
-12.20
-17.30
-23.08
-29.10
-34.82
-39.80
-43.82
-46.90
-49.35
-51.69
-54.62
-58.86
-64.90
-72.64
-81.09
-88.33
-91.83
-89.21
-79.09
-61.72
-39.08
-14.36
9.02
28.32
42.14
50.42
54.09
54.41
52.58
49.44
45.55
41.34
37.19
33.45
30.40
28.20
26.86
26.28
26.30
26.77
27.51
28.34
29.03
29.32
28.95
27.65
25.24
21.64
16.92
11.31
5.14
-1.21
-7.42
-13.18
-18.34
-22.82
-26.63
-29.91
-32.95
-36.22
-40.24
-45.42
-51.79
-58.69
-64.66
-67.72
-65.89
-57.91
-43.85
-25.25
-4.70
14.89
31.18
42.83
49.68
52.37
51.89
49.19
45.02
39.93
34.41
28.97
24.16
20.45
18.18
17.40
17.90
19.26
20.95
22.49
23.51
23.84
23.40
22.17
20.15
17.24
13.39
8.56
2.82
-3.60
-10.38
-17.11
-23.43
-29.05
-33.86
-37.92
-41.49
-45.02
-49.13
-54.37
-61.04
-68.80
-76.43
-81.91
-82.89
-77.43
-64.80
-45.88
-23.04
0.56
21.85
38.65
50.01
56.10
57.81
56.33
52.84
48.39
43.85
39.86
36.75
34.54
32.98
31.72
30.54
29.42
28.55
28.24
28.63
29.62
30.74
31.30
30.57
28.06
23.71
17.90
11.42
5.05
-0.67
-5.63
-10.15
-14.75
-19.86
-25.54
-31.51
-37.26
-42.25
-46.20
-49.18
-51.68
-54.45
-58.34
-63.95
-71.29
-79.39
-86.33
-89.54
-86.62
-76.20
-58.56
-35.70
-10.77
12.86
32.56
46.88
55.71
59.86
60.53
58.97
56.16
52.83
49.46
46.40
43.87
42.04
40.95
40.52
40.52
40.61
40.57
40.28
39.84
39.43
39.18
38.97
38.40
36.91
33.96
29.35
23.26
16.27
9.16
2.66
-2.75
-7.05
-10.58
-13.96
-17.83
-22.59
-28.20
-34.22
-39.99
-44.91
-48.71
-51.58
-54.06
-56.92
-60.90
-66.49
-73.74
-81.97
-89.67
-94.61
-94.37
-87.07
-72.18
-50.95
-26.16
-1.29
20.41
36.87
47.46
52.77
54.06
52.68
49.78
46.14
42.32
38.70
35.56
33.09
31.36
30.33
29.89
29.85
30.00
30.19
30.26
30.16
29.79
29.05
27.73
25.60
22.42
18.05
12.56
6.22
-0.52
-7.17
-13.31
-18.64
-23.07
-26.70
-29.84
-33.01
-36.78
-41.65
-47.89
-55.22
-62.66
-68.56
-70.89
-67.82
-58.41
-43.03
-23.47
-2.42
17.26
33.36
44.80
51.57
54.39
54.20
51.83
47.93
43.07
37.85
32.89
28.73
25.70
23.83
23.00
23.01
23.75
25.18
27.19
29.50
31.59
32.78
32.48
30.32
26.35
20.97
14.78
8.42
2.30
-3.42
-8.89
-14.39
-20.18
-26.34
-32.69
-38.89
-44.52
-49.32
-53.31
-56.87
-60.72
-65.68
-72.36
-80.67
-89.49
-96.71
-99.58
-95.73
-84.04
-65.26
-41.89
-17.41
4.84
22.55
34.82
41.93
44.78
44.40
41.75
37.70
33.20
29.22
26.51
25.46
25.93
27.44
29.40
31.48
33.65
36.13
39.14
42.76
46.79
50.98
55.03
58.74
62.01
64.73
66.80
68.09
68.49
67.90
66.14
62.85
57.53
49.78
39.51
27.23
14.06
1.37
-9.65
-18.41
-25.14
-30.67
-36.14
-42.61
-50.63
-60.09
-70.00
-78.56
-83.53
-82.81
-75.19
-60.88
-41.60
-20.13
0.58
18.13
31.31
39.96
44.70
46.44
46.05
44.26
41.72
38.97
36.47
34.51
33.19
32.40
31.94
31.60
31.26
30.96
30.75
30.73
30.91
31.13
31.13
30.51
28.90
26.00
21.79
16.48
10.55
4.61
-0.73
-5.13
-8.59
-11.50
-14.46
-17.99
-22.31
-27.23
-32.23
-36.72
-40.26
-42.85
-44.87
-46.97
-49.90
-54.26
-60.32
-67.69
-75.30
-81.32
-83.62
-80.31
-70.53
-54.81
-35.11
-14.18
5.21
21.03
32.35
39.27
42.52
42.98
41.48
38.63
34.98
31.01
27.24
24.12
21.97
20.93
20.88
21.55
22.53
23.46
24.06
24.22
23.95
23.31
22.32
20.87
18.74
15.69
11.55
6.33
0.30
-6.06
-12.17
-17.56
-21.99
-25.52
-28.45
-31.25
-34.39
-38.32
-43.37
-49.56
-56.40
-62.75
-66.94
-67.07
-61.77
-50.64
-34.69
-15.99
2.87
19.57
32.58
41.39
46.28
47.98
47.35
45.10
41.88
38.22
34.61
31.49
29.10
27.54
26.65
26.19
25.90
25.68
25.59
25.76
26.20
26.62
26.45
25.00
21.85
17.03
11.11
5.01
-0.43
-4.76
-8.12
-11.06
-14.22
-18.08
-22.67
-27.67
-32.58
-36.99
-40.69
-43.76
-46.52
-49.45
-53.11
-57.92
-63.97
-70.67
-76.68
-80.02
-78.65
-71.20
-57.54
-39.07
-18.30
1.89
19.08
31.88
40.08
44.33
45.66
45.07
43.30
40.80
37.91
34.91
32.10
29.76
28.09
27.12
26.77
26.86
27.25
27.83
28.55
29.29
29.84
29.86
28.96
26.82
23.33
18.63
13.11
7.37
2.08
-2.19
-5.17
-6.93
-7.97
-8.96
-10.56
-13.15
-16.77
-21.11
-25.65
-29.93
-33.61
-36.65
-39.18
-41.54
-44.17
-47.54
-52.04
-57.72
-64.13
-70.07
-73.76
-73.26
-67.17
-55.17
-38.40
-19.11
0.03
16.74
29.74
38.78
44.38
47.28
48.12
47.32
45.23
42.30
39.11
36.27
34.20
33.00
32.44
32.14
31.74
31.06
30.16
29.26
28.60
28.28
28.13
27.77
26.71
24.55
21.17
16.81
12.00
7.36
3.38
0.19
-2.38
-4.80
-7.46
-10.60
-14.15
-17.85
-21.34
-24.42
-27.09
-29.51
-32.01
-34.95
-38.70
-43.55
-49.52
-56.10
-62.15
-65.98
-65.77
-60.24
-49.20
-33.74
-16.02
1.50
16.73
28.43
36.27
40.63
42.18
41.63
39.54
36.44
32.78
29.02
25.60
22.90
21.25
20.79
21.50
23.06
24.96
26.61
27.51
27.41
26.27
24.21
21.35
17.79
13.54
8.69
3.42
-1.97
-7.17
-11.98
-16.34
-20.37
-24.14
-27.68
-30.93
-33.84
-36.50
-39.18
-42.36
-46.49
-51.65
-57.30
-62.16
-64.44
-62.45
-55.24
-43.02
-27.24
-10.08
6.18
19.79
29.87
36.31
39.51
40.06
38.57
35.64
31.89
28.00
24.59
22.10
20.76
20.57
21.36
22.86
24.84
27.03
29.27
31.35
33.11
34.30
34.71
34.12
32.38
29.44
25.38
20.40
14.75
8.78
2.89
-2.59
-7.38
-11.33
-14.53
-17.26
-19.98
-23.13
-26.98
-31.48
-36.27
-40.87
-44.86
-48.08
-50.78
-53.48
-56.90
-61.60
-67.75
-74.83
-81.53
-85.85
-85.51
-78.80
-65.15
-45.55
-22.40
1.27
22.69
40.04
52.71
61.00
65.57
67.10
66.01
62.78
58.03
52.62
47.53
43.55
41.06
39.99
40.00
40.72
41.83
43.13
44.45
45.58
46.26
46.26
45.46
43.86
41.52
38.46
34.67
30.09
24.77
18.86
12.69
6.65
1.08
-3.85
-8.20
-12.23
-16.31
-20.75
-25.67
-30.94
-36.20
-41.05
-45.14
-48.34
-50.78
-52.81
-54.93
-57.71
-61.60
-66.72
-72.52
-77.68
-80.19
-77.91
-69.41
-54.57
-34.94
-13.29
7.26
24.20
36.28
43.58
47.02
47.75
46.69
44.38
41.12
37.31
33.50
30.35
28.31
27.49
27.61
28.09
28.42
28.35
28.01
27.73
27.88
28.56
29.52
30.13
29.65
27.53
23.63
18.34
12.41
6.70
1.85
-1.92
-4.87
-7.53
-10.43
-13.87
-17.79
-21.82
-25.47
-28.32
-30.21
-31.32
-32.06
-33.04
-34.86
-38.00
-42.60
-48.27
-53.91
-57.72
-57.64
-51.92
-39.94
-22.61
-2.29
17.95
35.27
47.94
55.62
59.06
59.47
57.98
55.28
51.69
47.39
42.52
37.25
31.75
26.16
20.66
15.52
11.14
7.97
6.38
6.57
8.38
11.32
14.57
17.18
18.30
17.47
14.77
10.82
6.49
2.55
-0.65
-3.26
-5.72
-8.50
-11.78
-15.35
-18.80
-21.68
-23.78
-25.12
-26.04
-27.04
-28.69
-31.47
-35.42
-39.92
-43.55
-44.36
-40.44
-30.75
-15.60
3.20
22.77
40.05
52.54
58.98
59.44
55.10
47.69
39.01
30.51
23.20
17.57
13.70
11.27
9.51
7.39
3.90
-1.47
-8.42
-15.85
-22.22
-26.29
-27.63
-26.73
-24.67
-22.55
-20.96
-19.93
-19.17
-18.42
-17.71
-17.29
-17.47
-18.42
-20.05
-22.08
-24.16
-26.00
-27.48
-28.68
-29.86
-31.36
-33.39
-35.97
-38.85
-41.61
-43.86
-45.36
-46.20
-46.77
-47.69
-49.58
-52.93
-57.84
-63.84
-69.75
-73.68
-73.45
-67.19
-54.12
-34.99
-12.08
11.45
32.50
48.93
59.94
65.90
67.87
67.05
64.41
60.69
56.51
52.42
48.87
46.12
44.17
42.85
41.96
41.40
41.19
41.41
42.02
42.89
43.71
44.13
43.81
42.53
40.19
36.87
32.78
28.20
23.35
18.43
13.56
8.84
4.44
0.53
-2.75
-5.48
-7.95
-10.61
-13.85
-17.84
-22.38
-27.02
-31.31
-34.92
-37.82
-40.22
-42.51
-45.14
-48.61
-53.29
-59.29
-66.11
-72.48
-76.41
-75.73
-68.81
-55.30
-36.51
-15.07
5.89
23.67
36.75
44.84
48.62
49.13
47.38
44.16
40.15
35.94
32.16
29.29
27.51
26.74
26.64
26.81
27.00
27.14
27.38
27.93
28.95
30.31
31.55
31.94
30.75
27.56
22.45
16.12
9.62
3.90
-0.56
-3.91
-6.82
-10.07
-14.07
-18.72
-23.45
-27.57
-30.63
-32.59
-33.81
-34.90
-36.56
-39.35
-43.59
-49.13
-55.16
-60.22
-62.37
-59.77
-51.38
-37.50
-19.79
-0.85
16.63
30.63
40.29
45.81
48.03
47.89
46.10
43.05
38.99
34.24
29.30
24.78
21.22
18.88
17.75
17.59
18.11
19.08
20.39
21.93
23.45
24.54
24.61
23.21
20.12
15.57
10.21
4.82
0.07
-3.77
-6.94
-10.00
-13.58
-18.04
-23.28
-28.75
-33.71
-37.60
-40.25
-42.02
-43.63
-45.96
-49.71
-55.08
-61.49
-67.52
-71.14
-70.20
-63.22
-50.01
-31.87
-11.27
8.90
26.19
39.14
47.46
51.70
52.82
51.82
49.51
46.50
43.27
40.13
37.28
34.82
32.81
31.25
30.19
29.64
29.61
30.05
30.87
31.88
32.84
33.44
33.37
32.35
30.18
26.83
22.43
17.29
11.89
6.70
2.10
-1.73
-4.88
-7.66
-10.49
-13.74
-17.60
-22.03
-26.74
-31.37
-35.50
-38.90
-41.55
-43.63
-45.48
-47.60
-50.49
-54.60
-60.14
-66.79
-73.46
-78.28
-79.00
-73.74
-61.74
-43.84
-22.38
-0.48
18.94
33.91
43.81
49.11
50.91
50.41
48.63
46.26
43.72
41.33
39.25
37.58
36.37
35.65
35.36
35.45
35.80
36.35
37.03
37.79
38.56
39.11
39.11
38.15
35.98
32.56
28.15
23.21
18.16
13.27
8.60
4.12
-0.21
-4.28
-7.93
-11.05
-13.68
-16.13
-18.81
-22.05
-25.99
-30.44
-34.97
-39.09
-42.46
-45.04
-47.13
-49.34
-52.40
-56.92
-63.08
-70.24
-76.90
-80.84
-79.76
-72.11
-57.75
-38.16
-16.10
5.25
23.26
36.41
44.42
47.95
48.08
45.94
42.51
38.63
34.93
31.86
29.59
28.06
27.08
26.45
26.14
26.25
26.92
28.22
29.99
31.87
33.35
33.93
33.24
31.17
27.86
23.63
18.86
13.84
8.74
3.61
-1.48
-6.42
-11.06
-15.24
-18.90
-22.09
-24.96
-27.75
-30.76
-34.34
-38.88
-44.59
-51.19
-57.69
-62.29
-62.91
-57.89
-46.74
-30.50
-11.50
7.37
23.67
35.89
43.71
47.57
48.14
45.97
41.43
34.92
27.04
18.72
11.07
5.10
1.47
0.33
1.42
4.23
8.26
13.12
18.52
24.09
29.23
33.13
34.85
33.73
29.54
22.71
14.21
5.40
-2.47
-8.50
-12.47
-14.84
-16.62
-18.97
-22.69
-27.97
-34.23
-40.46
-45.68
-49.33
-51.50
-52.87
-54.42
-57.03
-61.24
-67.01
-73.54
-79.24
-82.03
-79.79
-71.08
-55.78
-35.33
-12.38
9.90
28.82
42.75
51.34
55.20
55.47
53.32
49.76
45.62
41.51
37.89
35.00
32.89
31.40
30.32
29.43
28.66
28.02
27.67
27.78
28.47
29.71
31.21
32.48
32.84
31.75
28.94
24.65
19.50
14.28
9.67
5.90
2.73
-0.42
-4.15
-8.83
-14.38
-20.32
-25.97
-30.78
-34.51
-37.31
-39.66
-42.18
-45.45
-49.93
-55.77
-62.68
-69.73
-75.32
-77.38
-73.96
-64.02
-47.89
-27.46
-5.64
14.55
30.82
42.11
48.60
51.25
51.27
49.77
47.54
45.06
42.62
40.32
38.16
36.07
34.05
32.18
30.63
29.61
29.20
29.30
29.67
29.94
29.75
28.81
26.97
24.19
20.54
16.18
11.31
6.14
0.83
-4.49
-9.76
-14.91
-19.78
-24.17
-27.87
-30.86
-33.32
-35.69
-38.55
-42.47
-47.74
-54.12
-60.63
-65.65
-67.18
-63.50
-53.80
-38.70
-20.15
-0.90
16.36
29.79
38.73
43.58
45.29
44.87
42.99
40.02
36.20
31.80
27.29
23.21
20.07
18.20
17.67
18.26
19.54
21.03
22.30
23.12
23.44
23.26
22.53
21.12
18.76
15.22
10.47
4.71
-1.64
-8.02
-13.94
-19.07
-23.32
-26.87
-30.00
-33.13
-36.68
-41.08
-46.59
-53.07
-59.75
-65.15
-67.35
-64.59
-55.90
-41.63
-23.47
-3.93
14.39
29.54
40.51
47.26
50.38
50.68
49.00
46.09
42.57
38.99
35.68
32.83
30.49
28.59
27.09
25.98
25.31
25.11
25.39
25.98
26.57
26.70
25.91
23.89
20.62
16.36
11.58
6.74
2.15
-2.18
-6.40
-10.75
-15.35
-20.16
-24.94
-29.42
-33.30
-36.46
-38.99
-41.24
-43.88
-47.67
-53.15
-60.14
-67.40
-72.81
-73.92
-68.88
-57.26
-40.29
-20.48
-0.73
16.60
30.20
39.84
45.95
49.25
50.40
49.95
48.40
46.32
44.23
42.52
41.40
40.85
40.66
40.64
40.61
40.53
40.44
40.40
40.43
40.46
40.34
39.84
38.71
36.70
33.61
29.38
24.07
17.99
11.59
5.36
-0.26
-5.12
-9.29
-13.10
-16.95
-21.16
-25.82
-30.78
-35.78
-40.49
-44.72
-48.44
-51.86
-55.33
-59.34
-64.36
-70.72
-78.19
-85.81
-91.76
-93.80
-89.99
-79.41
-62.66
-41.71
-19.29
1.93
20.01
34.00
43.74
49.58
52.08
51.90
49.83
46.68
43.24
40.08
37.48
35.46
33.93
32.81
32.11
31.91
32.21
32.84
33.46
33.59
32.82
30.96
28.12
24.53
20.55
16.37
12.06
7.56
2.80
-2.19
-7.30
-12.36
-17.20
-21.66
-25.62
-29.07
-32.11
-35.15
-38.74
-43.52
-49.76
-56.99
-63.84
-68.28
-68.23
-62.32
-50.56
-34.36
-16.07
1.70
16.88
28.29
35.64
39.18
39.44
36.95
32.26
25.99
18.82
11.47
4.67
-0.96
-4.93
-6.90
-6.69
-4.34
-0.13
5.30
11.16
16.51
20.60
23.01
23.76
23.22
21.91
20.24
18.31
15.92
12.68
8.31
2.78
-3.68
-10.58
-17.40
-23.72
-29.26
-33.92
-37.77
-41.08
-44.34
-48.22
-53.41
-60.12
-67.70
-74.36
-77.53
-74.57
-63.88
-45.65
-22.03
3.50
27.31
46.62
60.10
67.89
71.01
70.86
68.71
65.58
62.19
58.96
56.00
53.23
50.48
47.64
44.84
42.37
40.61
39.84
39.98
40.66
41.21
40.84
38.89
34.99
29.15
21.80
13.62
5.36
-2.27
-8.77
-13.88
-17.58
-20.12
-21.89
-23.37
-24.98
-26.97
-29.32
-31.84
-34.22
-36.22
-37.76
-38.95
-40.00
-41.16
-42.69
-44.83
-47.96
-52.52
-58.96
-67.31
-76.73
-85.28
-90.15
-88.54
-78.65
-60.63
-36.68
-10.42
14.32
34.69
49.40
58.65
63.42
64.87
63.91
61.22
57.44
53.26
49.41
46.44
44.61
43.81
43.72
43.89
43.97
43.79
43.32
42.71
42.12
41.64
41.16
40.36
38.72
35.75
31.19
25.12
18.03
10.59
3.52
-2.63
-7.65
-11.68
-15.14
-18.58
-22.48
-27.06
-32.25
-37.67
-42.78
-47.09
-50.42
-52.88
-54.92
-57.18
-60.35
-65.03
-71.41
-79.09
-86.81
-92.45
-93.45
-87.63
-74.04
-53.52
-28.60
-2.79
20.54
39.03
51.80
59.19
62.23
62.05
59.67
55.89
51.48
47.15
43.47
40.79
39.11
38.23
37.88
37.94
38.44
39.47
41.04
42.90
44.57
45.41
44.91
42.80
39.17
34.44
29.22
24.08
19.39
15.19
11.34
7.54
3.54
-0.71
-5.12
-9.45
-13.52
-17.30
-20.98
-24.99
-29.93
-36.37
-44.52
-53.89
-62.92
-69.15
-69.82
-62.92
-48.14
-27.33
-4.04
17.70
34.70
45.53
50.61
51.55
50.16
47.77
45.02
42.10
39.21
36.67
34.96
34.46
35.17
36.78
38.68
40.23
40.92
40.43
38.64
35.54
31.20
25.72
19.29
12.12
4.44
-3.59
-11.92
-20.61
-29.70
-39.05
-48.23
-56.55
-63.25
-67.70
-69.71
-69.60
-68.19
-66.49
-65.38
-65.33
-66.23
-67.62
-68.90
-69.69
-70.07
-70.52
-71.81
-74.69
-79.59
-86.31
-93.68
-99.54
-101.08
-95.60
-81.45
-58.90
-30.24
0.74
29.94
54.13
71.69
82.55
87.70
88.52
86.26
81.97
76.56
70.92
65.77
61.59
58.43
55.99
53.88
51.84
49.91
48.35
47.49
47.49
48.14
48.94
49.28
48.60
46.61
43.31
38.95
33.92
28.58
23.16
17.77
12.39
6.99
1.55
-3.78
-8.80
-13.25
-17.01
-20.22
-23.26
-26.67
-30.83
-35.82
-41.29
-46.63
-51.25
-54.86
-57.59
-59.99
-62.84
-66.93
-72.80
-80.38
-88.74
-96.07
-99.81
-97.50
-87.50
-69.81
-46.21
-19.79
6.00
28.29
45.45
57.11
63.78
66.39
65.90
63.20
59.09
54.37
49.80
45.95
43.16
41.41
40.48
40.02
39.75
39.52
39.40
39.51
40.01
40.87
41.76
42.16
41.39
38.89
34.47
28.37
21.28
14.10
7.65
2.38
-1.78
-5.29
-8.83
-12.98
-17.97
-23.63
-29.45
-34.79
-39.12
-42.27
-44.47
-46.34
-48.75
-52.60
-58.46
-66.26
-75.02
-82.83
-87.20
-85.79
-77.19
-61.52
-40.48
-16.85
6.31
26.44
42.02
52.55
58.33
60.10
58.80
55.38
50.77
45.80
41.07
36.96
33.62
31.06
29.28
28.33
28.25
29.03
30.54
32.52
34.58
36.33
37.28
37.01
35.14
31.49
26.21
19.79
12.97
6.50
0.85
-4.01
-8.51
-13.26
-18.71
-24.90
-31.39
-37.54
-42.69
-46.56
-49.31
-51.55
-54.15
-58.03
-63.76
-71.33
-79.86
-87.53
-91.92
-90.71
-82.42
-67.05
-46.22
-22.61
0.78
21.48
38.06
50.11
57.89
61.99
63.04
61.69
58.69
54.86
50.94
47.49
44.78
42.79
41.45
40.70
40.56
41.12
42.38
44.18
46.18
47.90
48.82
48.51
46.78
43.60
39.21
34.03
28.57
23.26
18.41
14.05
9.96
5.86
1.49
-3.11
-7.67
-11.79
-15.16
-17.76
-19.98
-22.42
-25.67
-29.99
-35.23
-40.83
-46.09
-50.44
-53.66
-56.01
-58.13
-60.90
-65.21
-71.62
-79.98
-89.14
-96.92
-100.56
-97.55
-86.56
-68.13
-44.59
-19.30
4.39
24.12
38.86
48.75
54.53
57.08
57.22
55.72
53.37
50.98
49.09
47.89
47.18
46.52
45.60
44.37
43.14
42.39
42.53
43.71
45.69
47.95
49.77
50.49
49.68
47.23
43.43
38.76
33.78
28.93
24.36
19.99
15.56
10.81
5.63
0.15
-5.30
-10.37
-14.79
-18.55
-21.82
-24.96
-28.34
-32.19
-36.45
-40.87
-45.06
-48.70
-51.80
-54.70
-58.11
-62.89
-69.77
-78.92
-89.60
-100.01
-107.47
-109.15
-102.94
-88.26
-66.37
-40.12
-13.03
11.68
31.87
46.64
56.10
60.92
61.98
60.22
56.62
52.21
47.93
44.47
42.10
40.71
40.01
39.69
39.64
39.93
40.70
41.99
43.64
45.28
46.42
46.64
45.69
43.46
40.04
35.60
30.31
24.33
17.91
11.40
5.24
-0.18
-4.63
-8.26
-11.51
-14.96
-19.06
-23.96
-29.42
-34.93
-39.96
-44.20
-47.60
-50.41
-53.06
-56.04
-59.90
-65.09
-71.75
-79.37
-86.55
-91.07
-90.44
-82.77
-67.62
-46.32
-21.65
3.04
24.82
41.87
53.60
60.35
62.91
62.13
58.86
53.95
48.28
42.68
37.81
34.01
31.32
29.66
28.81
28.69
29.25
30.54
32.50
34.92
37.30
38.98
39.20
37.37
33.26
27.16
19.77
12.04
4.77
-1.59
-7.10
-12.13
-17.21
-22.64
-28.36
-34.02
-39.11
-43.23
-46.30
-48.56
-50.62
-53.22
-57.12
-62.78
-70.02
-77.68
-83.72
-85.54
-80.91
-68.78
-49.90
-26.69
-2.44
19.63
37.35
49.86
57.41
60.88
61.26
59.38
55.92
51.51
46.74
42.15
38.12
34.89
32.53
31.03
30.35
30.38
31.02
32.11
33.46
34.87
36.11
36.90
36.86
35.61
32.80
28.36
22.51
15.84
9.09
2.97
-2.05
-5.98
-9.20
-12.37
-16.12
-20.86
-26.57
-32.86
-39.14
-44.88
-49.75
-53.73
-57.14
-60.48
-64.39
-69.49
-76.13
-84.12
-92.32
-98.59
-100.25
-94.89
-81.37
-60.48
-34.82
-8.06
16.30
35.84
49.64
58.03
61.97
62.56
60.77
57.42
53.30
49.16
45.62
43.00
41.27
40.22
39.57
39.18
38.99
39.11
39.68
40.74
42.24
43.86
45.13
45.40
44.12
40.92
35.82
29.23
21.84
14.44
7.70
1.94
-2.87
-7.09
-11.22
-15.75
-20.93
-26.70
-32.71
-38.47
-43.51
-47.58
-50.78
-53.48
-56.35
-60.13
-65.53
-72.85
-81.72
-90.78
-97.69
-99.75
-94.66
-81.53
-61.30
-36.64
-11.02
12.30
31.14
44.69
53.23
57.61
58.73
57.40
54.31
50.17
45.69
41.47
37.86
34.90
32.49
30.49
28.91
27.97
27.99
29.13
31.21
33.62
35.47
35.88
34.29
30.70
25.63
19.86
14.20
9.04
4.36
-0.18
-5.01
-10.36
-16.10
-21.86
-27.12
-31.46
-34.74
-37.10
-38.98
-41.02
-43.96
-48.42
-54.57
-61.73
-68.22
-71.61
-69.34
-59.75
-42.81
-20.31
4.63
28.53
48.65
63.58
73.24
78.38
79.96
78.67
74.95
69.14
61.82
53.83
46.18
39.76
35.17
32.58
31.73
32.08
32.87
33.30
32.61
30.28
26.11
20.24
13.09
5.18
-3.14
-11.79
-20.89
-30.63
-41.06
-51.93
-62.64
-72.41
-80.44
-86.22
-89.70
-91.42
-92.32
-93.55
-96.15
-100.61
-106.66
-112.94
-117.22
-116.73
-109.04
-92.87
-68.83
-39.41
-8.38
20.33
43.67
60.17
69.91
74.00
73.93
71.09
66.61
61.40
56.18
51.49
47.60
44.44
41.71
39.14
36.61
34.34
32.69
32.00
32.32
33.32
34.30
34.43
33.09
30.07
25.64
20.40
14.98
9.84
5.04
0.34
-4.64
-10.19
-16.37
-22.93
-29.47
-35.54
-40.85
-45.39
-49.45
-53.65
-58.74
-65.39
-73.76
-83.11
-91.68
-96.99
-96.47
-88.47
-72.82
-51.10
-26.07
-0.84
21.97
40.79
55.08
65.03
71.15
74.04
74.37
72.88
70.33
67.40
64.57
62.05
59.87
57.99
56.44
55.37
54.93
55.20
56.03
57.08
57.87
57.90
56.85
54.60
51.20
46.81
41.58
35.63
29.09
22.16
15.18
8.55
2.60
-2.56
-7.12
-11.48
-16.11
-21.30
-27.06
-33.04
-38.71
-43.64
-47.63
-50.91
-54.02
-57.65
-62.48
-68.99
-77.27
-86.81
-96.37
-103.90
-106.97
-103.40
-92.01
-73.24
-49.11
-22.69
2.86
25.00
42.31
54.45
61.79
65.09
65.26
63.27
60.03
56.38
52.87
49.78
47.11
44.72
42.56
40.69
39.29
38.58
38.61
39.25
40.12
40.67
40.31
38.59
35.28
30.44
24.41
17.67
10.76
4.06
-2.25
-8.21
-13.97
-19.64
-25.16
-30.34
-34.93
-38.83
-42.23
-45.71
-50.07
-56.03
-63.76
-72.51
-80.51
-85.33
-84.57
-76.73
-61.84
-41.50
-18.47
4.29
24.36
40.30
51.68
58.74
61.98
62.00
59.43
55.02
49.63
44.08
39.07
34.96
31.89
29.84
28.73
28.50
29.09
30.34
31.89
33.23
33.80
33.14
31.02
27.50
22.86
17.47
11.66
5.65
-0.49
-6.80
-13.32
-19.98
-26.68
-33.21
-39.34
-44.90
-49.80
-54.12
-58.26
-62.84
-68.61
-76.06
-84.97
-94.02
-100.90
-102.86
-97.62
-84.31
-63.87
-38.83
-12.49
12.08
32.72
48.48
59.36
65.97
69.07
69.44
67.85
65.01
61.58
58.06
54.81
52.03
49.83
48.33
47.58
47.57
48.16
49.11
50.10
50.77
50.82
49.99
48.04
44.80
40.22
34.39
27.62
20.38
13.15
6.30
0.04
-5.59
-10.68
-15.38
-19.87
-24.40
-29.16
-34.27
-39.69
-45.15
-50.26
-54.73
-58.43
-61.60
-64.78
-68.75
-74.26
-81.72
-90.80
-100.12
-107.33
-109.57
-104.43
-90.85
-69.59
-43.15
-14.87
11.98
35.01
52.99
65.71
73.53
77.13
77.37
75.24
71.81
68.05
64.61
61.75
59.35
57.20
55.17
53.35
51.99
51.28
51.27
51.68
52.08
51.95
50.90
48.79
45.62
41.49
36.49
30.69
24.22
17.31
10.34
3.72
-2.28
-7.55
-12.23
-16.60
-20.99
-25.65
-30.69
-36.08
-41.62
-47.06
-52.12
-56.56
-60.33
-63.58
-66.76
-70.51
-75.57
-82.41
-90.78
-99.41
-106.03
-107.82
-102.42
-88.74
-67.58
-41.45
-13.79
12.07
33.79
50.27
61.50
68.08
70.79
70.38
67.58
63.15
57.94
52.76
48.33
45.11
43.33
42.89
43.50
44.71
46.17
47.61
48.96
50.22
51.32
52.02
51.87
50.39
47.28
42.54
36.59
30.16
24.08
18.97
15.08
12.14
9.57
6.65
2.78
-2.36
-8.71
-15.95
-23.43
-30.12
-34.73
-35.81
-32.32
-24.01
-11.71
2.87
17.74
31.32
42.86
52.22
59.39
63.81
64.20
58.89
46.69
27.59
3.16
-23.79
-49.88
-72.04
-88.20
-97.53
-100.38
-97.82
-91.18
-81.74
-70.57
-58.70
-47.12
-36.95
-29.18
-24.37
-22.49
-22.80
-24.26
-25.93
-27.44
-29.04
-31.31
-34.80
-39.56
-45.08
-50.49
-54.96
-58.09
-60.15
-62.03
-64.96
-70.01
-77.63
-87.16
-96.67
-103.27
-103.90
-96.28
-79.83
-55.94
-27.63
1.46
28.03
49.88
66.11
76.79
82.59
84.45
83.39
80.46
76.71
72.97
69.73
67.06
64.77
62.55
60.26
57.97
55.93
54.53
53.98
54.28
55.02
55.47
54.73
52.11
47.36
40.86
33.41
25.93
19.08
13.08
7.65
2.30
-3.44
-9.81
-16.67
-23.67
-30.41
-36.61
-42.22
-47.45
-52.78
-58.81
-66.13
-74.96
-84.78
-94.09
-100.55
-101.54
-95.03
-80.44
-59.00
-33.42
-7.14
16.78
36.27
50.56
59.84
64.87
66.58
65.86
63.52
60.26
56.65
53.03
49.55
46.21
43.01
40.04
37.53
35.79
35.06
35.31
36.17
36.95
36.89
35.39
32.25
27.71
22.30
16.54
10.69
4.72
-1.56
-8.30
-15.39
-22.42
-28.89
-34.36
-38.71
-42.17
-45.27
-48.75
-53.37
-59.63
-67.49
-76.07
-83.57
-87.54
-85.64
-76.41
-60.00
-38.22
-14.06
9.29
29.23
44.34
54.29
59.54
60.89
59.20
55.32
50.08
44.31
38.73
33.88
30.07
27.31
25.43
24.07
22.93
21.82
20.76
19.92
19.52
19.50
19.43
18.51
15.87
10.96
3.85
-4.69
-13.50
-21.48
-28.00
-33.08
-37.34
-41.72
-47.13
-54.18
-62.89
-72.51
-81.49
-87.65
-88.72
-83.07
-70.35
-51.70
-29.47
-6.54
14.51
32.00
45.24
54.27
59.50
61.37
60.36
56.96
51.82
45.76
39.67
34.33
30.30
27.84
26.82
26.85
27.35
27.70
27.50
26.56
24.92
22.68
19.82
16.10
11.12
4.54
-3.64
-12.95
-22.54
-31.47
-39.11
-45.34
-50.59
-55.64
-61.36
-68.49
-77.35
-87.67
-98.33
-107.35
-112.20
-110.42
-100.44
-82.25
-57.51
-29.17
-0.63
25.18
46.31
62.03
72.58
78.75
81.57
82.05
81.01
79.05
76.58
73.88
71.17
68.68
66.59
65.01
63.97
63.35
63.03
62.90
62.87
62.82
62.51
61.54
59.42
55.76
50.48
43.90
36.72
29.77
23.74
18.95
15.22
12.06
8.81
4.98
0.41
-4.63
-9.61
-13.98
-17.46
-20.22
-22.84
-26.08
-30.55
-36.41
-43.31
-50.53
-57.31
-63.14
-67.91
-71.93
-75.84
-80.46
-86.65
-94.89
-104.87
-115.07
-122.74
-124.42
-116.99
-98.84
-70.64
-35.29
2.79
39.00
69.73
93.05
108.67
117.59
121.37
121.63
119.66
116.32
112.00
106.66
100.05
91.81
81.79
70.11
57.42
44.73
33.25
24.04
17.69
14.16
12.70
12.12
11.11
8.57
3.98
-2.52
-10.20
-18.01
-24.91
-30.22
-33.76
-35.86
-37.05
-37.91
-38.72
-39.45
-39.89
-39.86
-39.42
-38.97
-39.15
-40.55
-43.53
-48.06
-53.69
-59.76
-65.57
-70.65
-74.84
-78.34
-81.75
-86.00
-92.07
-100.55
-111.06
-121.83
-129.86
-131.54
-123.88
-105.55
-77.55
-42.99
-6.24
28.30
57.31
78.95
92.94
100.10
101.89
99.90
95.68
90.52
85.35
80.78
77.05
74.15
71.89
70.07
68.52
67.27
66.43
66.15
66.40
66.89
67.01
66.04
63.35
58.69
52.32
44.91
37.36
30.42
24.47
19.45
14.95
10.48
5.69
0.56
-4.66
-9.57
-13.90
-17.67
-21.19
-24.95
-29.36
-34.56
-40.32
-46.15
-51.56
-56.19
-60.09
-63.67
-67.63
-72.86
-80.08
-89.42
-100.06
-110.00
-116.28
-115.77
-106.11
-86.72
-59.17
-26.81
6.12
35.67
59.12
75.28
84.39
87.57
86.35
82.19
76.37
69.85
63.36
57.36
52.17
47.93
44.68
42.41
41.06
40.59
40.96
41.99
43.37
44.53
44.74
43.23
39.50
33.52
25.76
17.14
8.64
1.02
-5.45
-11.08
-16.48
-22.29
-28.80
-35.83
-42.81
-49.04
-54.02
-57.74
-60.68
-63.82
-68.24
-74.77
-83.44
-93.13
-101.56
-105.70
-102.60
-90.41
-69.15
-40.90
-9.27
21.54
47.94
67.68
80.09
85.85
86.44
83.57
78.74
73.10
67.39
62.00
57.16
53.03
49.71
47.33
45.97
45.61
46.05
46.96
47.84
48.22
47.73
46.19
43.59
40.03
35.55
30.17
23.87
16.77
9.21
1.75
-4.99
-10.57
-14.91
-18.36
-21.60
-25.32
-29.99
-35.69
-42.05
-48.51
-54.43
-59.42
-63.41
-66.74
-70.00
-74.01
-79.54
-87.14
-96.72
-107.21
-116.45
-121.42
-119.02
-107.11
-85.39
-55.72
-21.69
12.29
42.23
65.37
80.55
88.07
89.26
85.92
79.98
73.12
66.57
61.05
56.73
53.48
51.05
49.26
48.03
47.39
47.35
47.81
48.54
49.21
49.48
49.01
47.53
44.88
41.01
36.01
30.07
23.50
16.60
9.72
3.18
-2.80
-8.05
-12.56
-16.45
-20.00
-23.55
-27.46
-31.96
-37.08
-42.62
-48.19
-53.41
-57.98
-61.90
-65.50
-69.44
-74.56
-81.54
-90.47
-100.40
-109.23
-114.06
-111.92
-100.88
-80.74
-53.36
-22.13
8.95
36.29
57.46
71.47
78.55
79.81
76.81
71.23
64.59
58.06
52.31
47.58
43.80
40.80
38.49
36.91
36.16
36.24
36.96
37.94
38.68
38.65
37.47
34.96
31.11
26.10
20.19
13.66
6.76
-0.31
-7.38
-14.28
-20.84
-26.90
-32.25
-36.77
-40.49
-43.63
-46.64
-50.18
-54.97
-61.47
-69.53
-78.03
-84.91
-87.57
-83.60
-71.69
-52.21
-27.25
-0.13
25.60
47.03
62.50
71.65
75.11
74.04
69.66
63.16
55.52
47.65
40.29
34.04
29.29
26.20
24.71
24.54
25.34
26.76
28.43
30.04
31.24
31.60
30.68
28.05
23.54
17.34
10.04
2.44
-4.69
-10.94
-16.41
-21.59
-27.10
-33.30
-40.09
-46.95
-53.18
-58.28
-62.14
-65.18
-68.12
-71.95
-77.44
-84.87
-93.62
-101.97
-107.33
-106.78
-98.11
-80.62
-55.57
-25.95
4.39
31.79
53.67
68.85
77.48
80.57
79.51
75.70
70.39
64.58
58.99
54.09
50.08
47.01
44.78
43.27
42.41
42.19
42.65
43.74
45.23
46.68
47.49
47.07
44.99
41.18
35.90
29.69
23.14
16.77
10.83
5.33
0.14
-4.91
-9.83
-14.50
-18.68
-22.26
-25.28
-28.05
-31.03
-34.65
-39.11
-44.28
-49.73
-54.92
-59.43
-63.15
-66.39
-69.81
-74.25
-80.51
-88.94
-99.05
-109.25
-116.90
-118.89
-112.52
-96.58
-71.86
-41.16
-8.47
22.16
47.62
66.26
77.89
83.27
83.70
80.64
75.47
69.47
63.68
58.79
55.11
52.61
51.11
50.38
50.27
50.66
51.42
52.37
53.23
53.71
53.47
52.24
49.83
46.13
41.20
35.28
28.69
21.83
15.08
8.73
2.93
-2.25
-6.86
-11.03
-14.94
-18.84
-22.96
-27.49
-32.49
-37.85
-43.33
-48.64
-53.50
-57.75
-61.43
-64.85
-68.63
-73.52
-80.14
-88.54
-97.66
-105.31
-108.56
-104.62
-91.87
-70.62
-43.11
-12.96
15.93
40.40
58.63
70.17
75.66
76.30
73.42
68.34
62.16
55.80
49.92
44.88
40.84
37.78
35.63
34.37
34.01
34.50
35.70
37.21
38.47
38.86
37.83
35.08
30.65
24.86
18.22
11.30
4.47
-2.05
-8.30
-14.34
-20.21
-25.81
-30.90
-35.25
-38.79
-41.73
-44.61
-48.18
-53.20
-60.06
-68.37
-76.69
-82.72
-83.76
-77.66
-63.65
-42.72
-17.48
8.62
32.30
51.19
64.16
71.22
73.10
70.88
65.73
58.82
51.23
43.87
37.49
32.49
29.05
27.11
26.46
26.84
27.97
29.56
31.31
32.86
33.82
33.71
32.09
28.64
23.32
16.48
8.80
1.06
-6.06
-12.27
-17.75
-22.99
-28.54
-34.71
-41.40
-48.11
-54.20
-59.14
-62.77
-65.36
-67.62
-70.57
-75.15
-81.92
-90.48
-99.25
-105.56
-106.29
-98.88
-82.31
-57.69
-28.08
2.50
30.17
52.27
67.65
76.58
80.06
79.42
75.88
70.54
64.41
58.40
53.22
49.25
46.53
44.79
43.68
42.91
42.35
42.01
41.97
42.21
42.53
42.55
41.81
39.85
36.40
31.41
25.09
17.85
10.29
2.97
-3.61
-9.18
-13.80
-17.76
-21.55
-25.63
-30.32
-35.62
-41.25
-46.81
-51.85
-56.16
-59.77
-63.05
-66.65
-71.36
-77.89
-86.46
-96.34
-105.69
-111.75
-111.49
-102.66
-84.64
-58.89
-28.57
2.37
30.27
52.67
68.57
78.14
82.31
82.23
79.08
73.99
68.09
62.38
57.59
54.08
51.76
50.30
49.29
48.48
47.80
47.35
47.24
47.39
47.53
47.20
45.82
42.87
38.12
31.69
24.07
16.05
8.45
1.85
-3.59
-8.20
-12.65
-17.62
-23.59
-30.57
-38.11
-45.46
-51.85
-56.80
-60.35
-63.09
-66.02
-70.25
-76.52
-84.76
-93.79
-101.28
-104.36
-100.42
-87.99
-67.46
-41.03
-12.13
15.59
39.13
56.79
68.18
73.84
74.81
72.28
67.39
61.17
54.55
48.28
42.95
38.93
36.40
35.37
35.67
36.99
38.88
40.87
42.50
43.51
43.76
43.23
41.92
39.72
36.48
32.08
26.57
20.31
13.85
7.83
2.74
-1.25
-4.31
-6.87
-9.49
-12.71
-16.94
-22.30
-28.47
-34.59
-39.28
-41.00
-38.47
-31.24
-19.96
-6.28
7.59
19.53
27.91
31.91
31.46
27.04
19.42
9.55
-1.60
-13.19
-24.43
-34.70
-43.35
-49.78
-53.43
-54.01
-51.67
-47.02
-41.01
-34.53
-28.24
-22.38
-17.01
-12.30
-8.66
-6.81
-7.34
-10.51
-15.95
-22.77
-29.88
-36.36
-41.75
-46.06
-49.66
-53.12
-57.07
-62.12
-68.82
-77.29
-86.88
-95.91
-101.70
-101.28
-92.35
-74.25
-48.42
-18.05
12.85
40.62
62.79
78.36
87.57
91.40
91.07
87.72
82.43
76.08
69.43
63.01
57.22
52.31
48.51
45.95
44.66
44.47
44.96
45.58
45.72
44.95
43.06
40.00
35.89
30.81
24.85
18.05
10.53
2.51
-5.67
-13.68
-21.24
-28.25
-34.75
-40.82
-46.62
-52.29
-58.06
-64.33
-71.59
-80.08
-89.36
-97.98
-103.50
-103.17
-94.88
-78.07
-54.13
-26.05
2.52
28.25
48.90
63.57
72.41
76.20
76.06
73.15
68.66
63.64
58.93
55.03
52.07
49.92
48.33
47.07
46.05
45.26
44.75
44.52
44.41
44.15
43.23
41.15
37.46
32.05
25.21
17.59
9.98
3.01
-3.14
-8.74
-14.30
-20.31
-26.84
-33.60
-39.98
-45.48
-49.89
-53.50
-57.02
-61.39
-67.48
-75.65
-85.44
-95.26
-102.57
-104.47
-98.56
-83.89
-61.40
-33.78
-4.67
22.32
44.52
60.63
70.58
75.15
75.49
72.88
68.48
63.39
58.47
54.36
51.34
49.37
48.17
47.35
46.62
45.87
45.21
44.81
44.78
44.96
44.92
44.07
41.73
37.50
31.37
23.84
15.75
8.02
1.32
-4.20
-8.93
-13.58
-18.75
-24.73
-31.27
-37.81
-43.70
-48.57
-52.45
-55.80
-59.35
-63.95
-70.28
-78.55
-88.15
-97.42
-103.84
-104.58
-97.42
-81.63
-58.44
-30.74
-2.24
23.54
44.24
58.84
67.52
71.18
70.91
67.76
62.61
56.34
49.75
43.62
38.58
35.03
33.06
32.45
32.77
33.47
34.14
34.57
34.78
34.90
34.95
34.69
33.61
31.10
26.72
20.40
12.57
4.09
-4.05
-10.99
-16.29
-20.03
-22.78
-25.42
-28.84
-33.73
-40.25
-47.83
-55.08
-59.95
-60.13
-53.71
-39.88
-19.31
5.84
32.55
57.74
79.09
95.44
106.71
113.52
116.62
116.62
113.80
108.33
100.38
90.29
78.65
66.18
53.60
41.48
30.13
19.63
9.91
0.84
-7.72
-15.93
-24.13
-32.82
-42.65
-54.20
-67.70
-82.86
-98.69
-113.69
-126.23
-135.05
-139.60
-140.20
-137.85
-133.87
-129.64
-126.42
-125.22
-126.61
-130.27
-134.46
-136.11
-131.52
-117.71
-93.90
-62.11
-26.67
7.27
35.61
56.33
69.62
76.98
80.17
80.38
78.23
74.07
68.43
62.16
56.20
51.33
47.93
45.97
45.14
45.05
45.32
45.63
45.71
45.30
44.14
42.00
38.75
34.37
28.96
22.62
15.48
7.64
-0.74
-9.41
-18.01
-26.15
-33.49
-39.88
-45.45
-50.53
-55.65
-61.40
-68.34
-76.74
-86.27
-95.70
-102.93
-105.34
-100.62
-87.58
-66.73
-40.30
-11.62
15.80
39.15
56.83
68.55
74.96
77.25
76.72
74.56
71.64
68.56
65.61
62.94
60.66
58.86
57.62
57.01
56.95
57.25
57.63
57.74
57.24
55.89
53.51
50.10
45.76
40.67
35.08
29.20
23.21
17.26
11.47
5.96
0.82
-3.91
-8.33
-12.60
-17.05
-21.93
-27.42
-33.47
-39.79
-45.98
-51.64
-56.54
-60.78
-64.78
-69.23
-74.90
-82.40
-91.78
-102.19
-111.66
-117.41
-116.49
-106.79
-87.93
-61.58
-31.07
-0.39
26.92
48.59
63.83
73.04
77.22
77.59
75.34
71.58
67.29
63.26
59.97
57.57
55.91
54.74
53.86
53.21
52.79
52.62
52.64
52.61
52.28
51.36
49.66
47.02
43.36
38.65
32.96
26.48
19.57
12.72
6.41
1.01
-3.37
-6.92
-10.11
-13.48
-17.50
-22.37
-27.91
-33.66
-39.06
-43.65
-47.34
-50.39
-53.37
-56.98
-61.92
-68.68
-77.31
-87.09
-96.37
-102.69
-103.33
-96.14
-80.45
-57.45
-29.96
-1.65
24.05
44.73
59.38
68.17
71.99
71.98
69.21
64.61
58.94
52.92
47.21
42.46
39.13
37.41
37.16
37.93
39.16
40.38
41.37
42.14
42.73
43.03
42.59
40.77
37.00
31.11
23.50
15.08
6.94
-0.05
-5.53
-9.74
-13.37
-17.18
-21.78
-27.35
-33.66
-40.11
-46.04
-50.91
-54.60
-57.47
-60.34
-64.24
-70.13
-78.38
-88.43
-98.64
-106.42
-108.88
-103.65
-89.67
-67.69
-40.14
-10.52
17.55
41.23
58.95
70.44
76.39
77.99
76.50
73.01
68.43
63.46
58.72
54.68
51.68
49.84
49.07
49.13
49.72
50.59
51.64
52.78
53.94
54.89
55.21
54.37
51.89
47.56
41.61
34.67
27.63
21.32
16.19
12.17
8.71
5.15
0.99
-3.84
-8.98
-13.86
-17.97
-21.17
-23.73
-26.24
-29.32
-33.43
-38.60
-44.56
-50.80
-56.77
-62.03
-66.44
-70.18
-73.77
-78.05
-83.91
-91.96
-102.02
-112.73
-121.56
-125.27
-120.94
-107.00
-83.97
-54.40
-22.14
8.78
35.23
55.46
69.16
76.94
79.89
79.17
75.98
71.44
66.65
62.46
59.33
57.32
56.12
55.27
54.48
53.72
53.23
53.33
54.16
55.54
56.94
57.64
56.91
54.33
49.82
43.75
36.78
29.72
23.26
17.79
13.28
9.30
5.32
0.88
-4.12
-9.39
-14.41
-18.70
-22.13
-24.92
-27.68
-31.01
-35.28
-40.48
-46.23
-51.93
-57.04
-61.27
-64.69
-67.77
-71.25
-75.99
-82.69
-91.37
-101.07
-109.70
-114.39
-112.20
-101.25
-81.40
-54.49
-23.88
6.54
33.41
54.61
69.41
78.22
82.04
82.13
79.67
75.68
71.05
66.42
62.25
58.76
56.01
53.97
52.55
51.68
51.30
51.39
51.89
52.69
53.57
54.28
54.47
53.82
52.03
48.90
44.40
38.68
32.21
25.64
19.73
15.07
11.85
9.69
7.78
5.10
0.77
-5.71
-14.36
-24.81
-36.46
-48.71
-61.07
-73.15
-84.76
-95.95
-106.93
-117.82
-128.29
-137.03
-141.82
-139.99
-129.46
-109.78
-82.57
-51.23
-19.89
7.89
29.95
45.66
55.53
60.51
61.57
59.57
55.36
49.89
44.05
38.57
33.89
30.20
27.55
26.02
25.67
26.52
28.38
30.80
33.20
34.94
35.48
34.52
32.00
28.08
23.03
17.20
10.84
4.14
-2.79
-9.89
-17.02
-23.99
-30.52
-36.36
-41.40
-45.78
-49.90
-54.36
-59.87
-66.85
-75.15
-83.69
-90.42
-92.74
-88.31
-75.94
-56.20
-31.41
-4.93
19.81
40.23
55.06
64.23
68.36
68.45
65.51
60.53
54.52
48.38
42.83
38.23
34.66
32.02
30.17
29.07
28.76
29.24
30.38
31.88
33.26
33.92
33.26
30.88
26.65
20.79
13.90
6.75
-0.02
-6.11
-11.64
-17.14
-23.13
-29.89
-37.24
-44.61
-51.32
-56.82
-61.06
-64.47
-67.97
-72.57
-79.11
-87.76
-97.66
-106.85
-112.56
-112.03
-103.40
-86.46
-62.82
-35.47
-7.85
17.02
37.16
51.74
60.95
65.50
66.46
64.96
62.07
58.67
55.34
52.30
49.56
47.08
44.88
43.05
41.69
40.89
40.56
40.47
40.27
39.57
37.98
35.26
31.31
26.23
20.27
13.73
6.88
-0.16
-7.31
-14.57
-21.84
-28.97
-35.71
-41.83
-47.17
-51.81
-56.08
-60.53
-65.90
-72.82
-81.38
-90.77
-99.20
-104.13
-103.05
-94.36
-77.96
-55.45
-29.61
-3.63
19.73
38.66
52.45
61.33
66.08
67.73
67.31
65.68
63.45
60.93
58.28
55.55
52.84
50.28
48.08
46.40
45.34
44.87
44.75
44.63
44.01
42.38
39.37
34.91
29.25
22.85
16.24
9.73
3.38
-3.02
-9.67
-16.65
-23.77
-30.59
-36.69
-41.79
-45.94
-49.58
-53.49
-58.51
-65.31
-73.86
-83.16
-91.22
-95.45
-93.45
-83.76
-66.46
-43.28
-17.08
8.90
31.90
50.10
62.85
70.39
73.50
73.13
70.22
65.60
60.07
54.44
49.55
46.00
44.06
43.59
44.05
44.78
45.25
45.21
44.65
43.68
42.32
40.30
37.13
32.22
25.15
15.91
5.04
-6.44
-17.36
-26.72
-34.07
-39.66
-44.34
-49.29
-55.57
-63.77
-73.68
-84.11
-92.99
-97.74
-95.99
-86.37
-69.10
-46.09
-20.50
4.25
25.37
41.33
51.96
57.97
60.47
60.40
58.48
55.28
51.31
47.22
43.64
41.14
39.98
40.17
41.37
43.16
45.06
46.63
47.61
47.86
47.36
46.11
44.04
40.94
36.56
30.76
23.72
16.00
8.52
2.13
-2.66
-5.95
-8.46
-11.19
-15.00
-20.26
-26.69
-33.49
-39.72
-44.69
-48.26
-50.83
-53.34
-56.94
-62.73
-71.42
-82.97
-96.33
-109.35
-119.10
-122.53
-117.44
-103.34
-81.73
-55.81
-29.38
-5.82
12.92
26.40
35.46
41.46
45.64
48.72
50.78
51.54
50.63
48.01
44.16
40.00
36.63
34.91
35.14
37.05
40.03
43.40
46.67
49.43
51.29
51.69
50.02
45.95
39.65
31.91
23.89
16.76
11.17
7.15
4.14
1.32
-1.97
-6.01
-10.58
-15.15
-19.20
-22.54
-25.44
-28.56
-32.65
-38.17
-45.09
-52.79
-60.40
-67.09
-72.49
-76.84
-81.00
-86.12
-93.21
-102.64
-113.74
-124.61
-132.36
-133.71
-126.00
-108.10
-81.03
-47.87
-12.96
19.31
45.65
64.58
76.35
82.45
84.75
84.88
83.99
82.71
81.38
80.20
79.31
78.76
78.47
78.28
78.05
77.67
77.19
76.71
76.27
75.77
74.92
73.24
70.26
65.70
59.56
52.23
44.41
36.85
30.14
24.45
19.53
14.88
10.03
4.75
-0.72
-5.94
-10.50
-14.31
-17.74
-21.43
-26.01
-31.72
-38.33
-45.19
-51.63
-57.22
-61.94
-66.27
-71.01
-77.05
-85.08
-95.15
-106.32
-116.51
-122.76
-121.91
-111.75
-91.85
-64.08
-32.14
-0.49
26.97
47.82
61.47
68.79
71.40
70.96
68.79
65.72
62.26
58.69
55.30
52.33
50.04
48.61
48.11
48.46
49.38
50.47
51.25
51.29
50.27
48.03
44.51
39.78
33.95
27.16
19.62
11.56
3.28
-4.86
-12.51
-19.38
-25.32
-30.38
-34.77
-38.86
-43.13
-48.18
-54.60
-62.75
-72.39
-82.39
-90.61
-94.25
-90.69
-78.46
-57.96
-31.57
-3.02
23.72
45.59
61.04
70.18
74.22
74.76
73.17
70.33
66.69
62.55
58.26
54.34
51.32
49.57
49.18
49.89
51.26
52.86
54.35
55.49
56.03
55.65
53.94
50.62
45.66
39.34
32.25
25.03
18.21
12.06
6.57
1.54
-3.25
-7.92
-12.46
-16.77
-20.85
-24.85
-29.09
-33.94
-39.56
-45.77
-52.11
-58.00
-63.06
-67.31
-71.22
-75.53
-81.13
-88.68
-98.30
-109.21
-119.54
-126.40
-126.55
-117.42
-98.15
-70.23
-37.17
-3.62
26.09
49.00
64.10
72.01
74.37
73.13
70.02
66.34
62.94
60.23
58.21
56.72
55.38
53.98
52.46
50.96
49.71
48.85
48.25
47.56
46.32
44.06
40.52
35.68
29.71
22.85
15.36
7.43
-0.78
-9.09
-17.23
-24.92
-31.84
-37.83
-42.90
-47.27
-51.35
-55.69
-60.92
-67.58
-75.95
-85.66
-95.41
-102.95
-105.49
-100.51
-86.77
-64.97
-37.78
-9.04
17.30
38.39
53.00
61.49
65.21
65.81
64.70
62.84
60.76
58.69
56.75
54.97
53.29
51.66
50.03
48.41
46.86
45.43
44.09
42.72
41.06
38.81
35.67
31.46
26.18
19.96
12.97
5.43
-2.49
-10.55
-18.47
-25.91
-32.57
-38.23
-42.86
-46.69
-50.20
-54.02
-58.91
-65.49
-73.99
-83.88
-93.62
-100.72
-102.24
-95.77
-80.30
-56.90
-28.54
0.72
26.91
47.23
60.65
67.68
69.90
69.14
66.95
64.37
61.95
59.89
58.21
56.82
55.64
54.59
53.68
52.96
52.51
52.38
52.50
52.66
52.54
51.71
49.85
46.74
42.34
36.84
30.55
23.90
17.28
11.03
5.35
0.30
-4.21
-8.33
-12.21
-16.00
-19.80
-23.79
-28.15
-33.06
-38.55
-44.48
-50.49
-56.09
-60.88
-64.71
-67.86
-71.06
-75.29
-81.45
-89.93
-100.13
-110.28
-117.64
-119.06
-111.97
-95.36
-70.34
-40.00
-8.60
19.64
41.70
56.30
63.88
65.93
64.29
60.53
55.75
50.65
45.72
41.39
37.99
35.76
34.68
34.46
34.69
34.91
34.76
34.10
33.05
31.80
30.58
29.31
27.62
24.81
20.24
13.59
5.13
-4.22
-13.30
-21.04
-26.88
-30.95
-33.95
-36.87
-40.72
-46.25
-53.77
-62.84
-72.21
-79.78
-82.92
-79.26
-67.54
-48.26
-23.80
2.25
26.16
45.07
57.77
64.54
66.69
65.74
62.86
58.71
53.56
47.71
41.60
35.93
31.39
28.48
27.26
27.42
28.34
29.35
29.88
29.51
28.05
25.44
21.75
17.11
11.71
5.71
-0.79
-7.73
-15.04
-22.58
-30.10
-37.23
-43.58
-48.92
-53.28
-56.99
-60.65
-65.09
-71.06
-79.04
-88.78
-99.02
-107.42
-111.00
-106.91
-93.55
-71.28
-42.55
-11.33
18.04
42.15
59.16
68.99
72.81
72.42
69.57
65.72
61.89
58.71
56.48
55.19
54.64
54.51
54.52
54.45
54.19
53.71
52.95
51.87
50.41
48.47
45.97
42.71
38.50
33.15
26.65
19.27
11.53
4.15
-2.18
-7.04
-10.45
-12.94
-15.29
-18.37
-22.70
-28.29
-34.63
-40.92
-46.46
-50.92
-54.51
-57.87
-61.85
-67.23
-74.51
-83.72
-94.20
-104.38
-111.86
-113.79
-107.63
-92.06
-67.63
-36.84
-3.53
28.14
54.79
74.43
86.64
92.28
92.96
90.54
86.80
83.20
80.73
79.86
80.43
81.81
83.12
83.56
82.79
81.12
79.48
78.99
80.54
84.16
88.91
92.87
93.64
89.21
78.63
62.50
42.92
22.74
4.57
-10.16
-21.74
-32.00
-43.32
-57.57
-75.24
-95.26
-115.50
-133.78
-148.78
-160.53
-170.32
-179.93
-190.76
-202.85
-214.36
-221.83
-221.07
-208.67
-183.45
-147.15
-104.18
-60.19
-20.40
11.83
35.52
51.53
61.51
67.04
69.19
68.69
66.34
63.17
60.29
58.56
58.27
59.05
60.23
61.15
61.51
61.40
61.20
61.16
61.19
60.73
58.98
55.26
49.33
41.59
32.80
23.84
15.24
7.09
-0.94
-9.18
-17.79
-26.51
-34.83
-42.15
-48.17
-53.04
-57.46
-62.48
-69.18
-78.09
-88.75
-99.35
-107.00
-108.39
-100.95
-83.79
-58.30
-27.80
3.42
31.35
53.28
68.24
76.65
79.79
79.04
75.59
70.36
64.14
57.76
52.03
47.60
44.78
43.45
43.16
43.30
43.31
42.96
42.24
41.35
40.40
39.23
37.37
34.14
28.93
21.50
12.23
1.97
-8.08
-16.86
-23.78
-28.93
-33.03
-37.22
-42.71
-50.35
-60.26
-71.52
-82.08
-89.07
-89.56
-81.42
-64.25
-39.75
-11.28
17.04
41.58
60.06
71.86
77.68
78.86
76.75
72.40
66.47
59.54
52.18
45.11
39.11
34.80
32.49
32.07
32.98
34.43
35.60
35.90
35.03
33.00
29.97
26.02
21.12
15.05
7.60
-1.29
-11.34
-21.91
-32.15
-41.21
-48.57
-54.17
-58.42
-62.11
-66.16
-71.48
-78.68
-87.83
-98.13
-107.70
-113.72
-113.08
-103.37
-83.96
-56.44
-24.37
7.78
35.92
57.35
71.22
78.25
80.08
78.57
75.31
71.38
67.42
63.73
60.52
57.93
56.08
54.96
54.46
54.36
54.48
54.79
55.37
56.29
57.37
58.11
57.72
55.52
51.17
44.94
37.58
30.05
23.16
17.27
12.26
7.64
2.87
-2.40
-8.10
-13.81
-19.00
-23.34
-26.92
-30.25
-34.06
-38.90
-44.89
-51.64
-58.36
-64.30
-68.99
-72.52
-75.51
-78.97
-83.96
-91.29
-101.01
-112.10
-122.32
-128.53
-127.41
-116.57
-95.46
-65.82
-31.38
3.17
33.43
56.48
71.35
78.78
80.57
78.74
75.04
70.64
66.29
62.44
59.39
57.28
56.05
55.49
55.27
55.14
55.01
55.02
55.36
56.11
57.03
57.55
56.96
54.60
50.22
44.06
36.82
29.41
22.58
16.68
11.53
6.63
1.46
-4.22
-10.18
-15.88
-20.75
-24.58
-27.64
-30.57
-34.11
-38.71
-44.34
-50.53
-56.59
-61.89
-66.17
-69.54
-72.59
-76.19
-81.30
-88.57
-97.89
-108.00
-116.45
-120.02
-115.65
-101.56
-78.03
-47.54
-14.12
17.82
44.63
64.25
76.29
81.68
82.02
79.05
74.34
69.06
64.02
59.70
56.30
53.81
52.14
51.10
50.53
50.33
50.47
50.95
51.72
52.57
53.14
52.89
51.31
48.09
43.27
37.24
30.62
23.96
17.64
11.77
6.26
0.94
-4.30
-9.42
-14.35
-18.99
-23.35
-27.58
-31.96
-36.77
-42.11
-47.85
-53.58
-58.86
-63.33
-66.96
-70.06
-73.32
-77.56
-83.52
-91.40
-100.52
-109.13
-114.54
-113.81
-104.62
-86.33
-60.35
-29.97
0.64
27.56
48.19
61.61
68.38
69.93
67.90
63.71
58.46
52.90
47.60
42.91
39.05
36.17
34.32
33.50
33.63
34.52
35.84
37.21
38.20
38.48
37.84
36.12
33.24
29.11
23.63
16.81
8.82
0.06
-8.88
-17.29
-24.57
-30.42
-34.92
-38.57
-42.10
-46.20
-51.48
-58.22
-66.32
-75.13
-83.27
-88.74
-89.18
-82.61
-68.18
-46.74
-20.84
6.00
30.23
49.31
62.18
69.07
71.05
69.39
65.20
59.35
52.62
45.78
39.59
34.64
31.21
29.29
28.60
28.78
29.57
30.78
32.20
33.55
34.34
33.96
31.81
27.57
21.37
13.84
5.87
-1.68
-8.31
-14.02
-19.31
-24.80
-30.97
-37.90
-45.17
-52.11
-58.06
-62.63
-65.98
-68.80
-72.12
-77.04
-84.26
-93.51
-103.32
-111.03
-113.43
-107.70
-92.48
-68.56
-38.82
-7.44
21.38
44.53
60.63
69.98
73.95
74.24
72.34
69.33
65.88
62.47
59.46
57.08
55.39
54.27
53.51
52.90
52.39
52.01
51.88
52.05
52.37
52.55
52.11
50.62
47.74
43.37
37.61
30.80
23.41
15.96
8.90
2.58
-2.83
-7.43
-11.45
-15.32
-19.46
-24.22
-29.71
-35.82
-42.19
-48.36
-53.95
-58.74
-62.84
-66.65
-70.88
-76.34
-83.69
-93.01
-103.40
-112.79
-118.22
-116.63
-105.95
-85.98
-58.70
-27.76
2.62
28.84
48.78
61.92
68.97
71.25
70.17
67.03
62.93
58.83
55.41
53.01
51.58
50.73
49.98
49.02
47.82
46.61
45.79
45.61
46.04
46.65
46.74
45.50
42.31
37.02
29.96
21.92
13.84
6.46
0.06
-5.56
-10.98
-16.80
-23.30
-30.26
-37.10
-43.12
-47.79
-51.08
-53.48
-55.92
-59.47
-65.07
-72.98
-82.47
-91.62
-97.58
-97.32
-88.68
-71.25
-46.67
-18.29
9.93
34.51
53.26
65.49
71.69
73.03
70.81
66.30
60.58
54.62
49.18
44.73
41.43
39.15
37.67
36.77
36.36
36.48
37.21
38.52
40.08
41.35
41.57
40.05
36.34
30.52
23.10
14.90
6.79
-0.70
-7.43
-13.71
-20.02
-26.72
-33.85
-41.10
-47.96
-53.96
-58.89
-62.89
-66.51
-70.58
-76.03
-83.50
-92.93
-103.08
-111.51
-114.99
-110.50
-96.38
-73.08
-43.32
-11.30
18.58
42.91
60.07
70.22
74.72
75.41
73.90
71.31
68.27
65.15
62.26
59.86
58.13
57.12
56.66
56.51
56.45
56.41
56.53
56.97
57.79
58.72
59.26
58.74
56.61
52.58
46.82
39.86
32.49
25.53
19.63
14.99
11.42
8.35
5.08
1.06
-3.91
-9.57
-15.29
-20.36
-24.30
-27.08
-29.22
-31.56
-34.95
-39.90
-46.33
-53.60
-60.79
-67.07
-71.99
-75.72
-78.91
-82.59
-87.78
-95.22
-104.86
-115.55
-124.94
-129.82
-126.94
-114.09
-91.05
-59.90
-24.60
10.10
40.01
62.44
76.61
83.38
84.54
82.14
77.95
73.20
68.67
64.72
61.55
59.17
57.56
56.57
56.05
55.83
55.78
55.90
56.18
56.54
56.75
56.31
54.70
51.46
46.49
40.11
32.93
25.66
18.86
12.77
7.32
2.29
-2.51
-7.13
-11.51
-15.54
-19.24
-22.79
-26.48
-30.61
-35.28
-40.42
-45.71
-50.75
-55.21
-58.96
-62.22
-65.54
-69.76
-75.70
-83.82
-93.68
-103.67
-111.06
-112.64
-105.77
-89.35
-64.43
-34.03
-2.32
26.64
49.91
66.12
75.40
78.85
77.90
73.90
68.01
61.16
54.23
47.97
42.98
39.60
37.84
37.38
37.79
38.70
39.91
41.38
43.10
44.85
46.11
46.10
44.06
39.52
32.59
24.00
14.86
6.33
-0.88
-6.68
-11.60
-16.51
-22.15
-28.79
-36.07
-43.22
-49.40
-54.08
-57.30
-59.73
-62.52
-66.93
-73.94
-83.61
-94.78
-104.97
-110.80
-109.01
-97.51
-76.33
-47.79
-15.86
14.95
40.93
59.97
71.72
77.14
77.90
75.69
71.90
67.52
63.13
59.12
55.67
52.84
50.62
48.97
47.91
47.45
47.59
48.26
49.29
50.38
51.12
51.04
49.70
46.81
42.28
36.30
29.28
21.75
14.23
7.09
0.48
-5.60
-11.20
-16.41
-21.28
-25.88
-30.39
-35.04
-40.01
-45.32
-50.82
-56.14
-60.93
-64.95
-68.34
-71.60
-75.52
-81.01
-88.66
-98.36
-108.88
-117.80
-121.87
-117.97
-104.17
-80.63
-49.81
-15.86
16.59
43.69
63.32
75.18
80.42
80.86
78.37
74.43
70.03
65.79
62.06
59.00
56.67
54.98
53.77
52.90
52.25
51.85
51.81
52.21
52.94
53.65
53.82
52.88
50.41
46.30
40.73
34.04
26.67
18.98
11.32
4.00
-2.68
-8.49
-13.36
-17.47
-21.26
-25.29
-30.06
-35.75
-42.15
-48.71
-54.73
-59.76
-63.70
-66.97
-70.30
-74.59
-80.57
-88.56
-98.11
-107.75
-115.03
-116.90
-110.63
-94.77
-69.99
-39.10
-6.37
23.76
47.91
64.52
73.82
77.23
76.62
73.64
69.51
65.02
60.69
56.92
53.93
51.83
50.53
49.81
49.42
49.11
48.80
48.47
48.21
48.08
47.99
47.65
46.58
44.19
40.03
33.95
26.26
17.68
9.15
1.53
-4.66
-9.40
-13.16
-16.66
-20.60
-25.40
-31.06
-37.22
-43.28
-48.68
-53.06
-56.40
-59.10
-61.88
-65.64
-71.18
-78.84
-88.08
-97.30
-103.92
-104.98
-98.04
-82.10
-58.16
-29.09
1.14
28.62
50.47
65.37
73.46
75.87
74.05
69.43
63.21
56.41
49.92
44.40
40.26
37.57
36.09
35.51
35.54
36.07
37.12
38.68
40.60
42.39
43.36
42.75
39.95
34.82
27.70
19.40
10.89
2.99
-3.88
-9.83
-15.39
-21.20
-27.63
-34.67
-41.83
-48.41
-53.84
-57.94
-61.07
-64.11
-68.18
-74.27
-82.77
-92.99
-102.99
-109.77
-110.03
-101.26
-82.77
-56.12
-24.87
6.54
34.12
55.25
69.13
76.45
78.63
77.29
73.78
69.18
64.29
59.74
55.91
52.91
50.68
49.07
47.99
47.46
47.55
48.29
49.56
51.05
52.29
52.72
51.83
49.32
45.12
39.46
32.74
25.44
17.98
10.67
3.69
-2.79
-8.64
-13.75
-18.18
-22.13
-26.07
-30.48
-35.67
-41.61
