1555520466.00
64.000000
-0.00
-0.00
-0.00
-0.00
-0.00
-0.00
-0.00
-0.00
-0.00
-0.00
0.00
0.01
0.01
-0.00
-0.03
-0.05
-0.05
0.00
0.13
0.36
0.66
1.01
1.37
1.72
2.06
2.40
2.79
3.24
3.80
4.42
5.06
5.66
6.20
6.68
7.15
7.68
8.31
9.14
10.09
11.04
11.88
12.56
13.14
13.76
14.65
15.96
17.91
20.32
22.90
25.38
27.58
29.57
31.68
34.32
37.81
42.54
48.15
54.10
59.83
64.97
69.58
74.14
79.34
85.71
93.76
103.00
112.61
121.73
129.76
136.75
143.30
150.75
157.80
166.69
178.03
191.92
207.15
220.83
228.60
225.83
209.12
177.60
133.65
81.11
24.30
-33.53
-90.84
-147.38
-203.28
-258.24
-311.44
-361.40
-407.20
-448.10
-483.53
-512.59
-533.90
-545.69
-546.20
-534.33
-509.85
-473.94
-428.72
-376.80
-320.81
-263.02
-205.11
-148.35
-93.75
-42.17
5.40
48.10
85.24
116.53
142.13
162.54
178.50
190.72
199.81
206.16
210.04
211.62
211.17
209.01
205.59
201.39
196.78
191.98
187.08
182.10
176.90
171.32
165.20
158.27
150.34
141.09
130.09
117.05
101.68
83.72
63.15
40.13
14.96
-11.73
-39.33
-67.21
-94.58
-119.79
-141.87
-159.99
-173.51
-182.80
-187.39
-186.87
-181.12
-170.25
-154.70
-135.32
-113.15
-89.39
-65.19
-41.43
-18.41
3.19
22.98
40.85
56.71
70.50
82.00
91.04
97.59
101.74
103.81
104.47
104.43
104.21
103.97
103.38
101.88
99.14
95.14
90.43
86.00
82.96
81.94
82.86
84.58
85.63
84.73
81.30
75.59
68.64
61.47
54.62
47.74
39.56
28.63
13.80
-5.63
-29.90
-58.47
-89.41
-118.87
-140.57
-148.92
-140.58
-116.45
-81.98
-45.41
-14.52
6.21
16.59
19.87
19.88
19.28
18.70
17.59
15.50
12.99
11.41
11.96
14.86
18.99
22.68
24.37
23.49
20.67
17.33
15.03
14.72
16.42
19.16
21.61
22.59
21.65
19.12
15.87
12.91
10.86
9.78
9.10
8.00
5.74
1.95
-3.24
-9.36
-15.84
-22.28
-28.60
-35.10
-42.31
-50.81
-61.00
-72.92
-86.30
-100.68
-115.58
-130.75
-146.35
-162.86
-180.98
-201.21
-223.45
-246.86
-269.98
-290.99
-308.25
-320.62
-327.64
-329.28
-325.66
-316.21
-299.67
-274.42
-239.17
-193.68
-139.34
-79.01
-16.25
45.56
104.30
159.34
211.32
261.62
311.84
363.47
417.30
472.34
524.27
565.83
588.05
583.23
548.33
487.04
408.94
326.31
249.69
184.81
132.20
89.11
52.43
20.69
-5.84
-26.40
-41.16
-51.77
-60.60
-69.74
-80.02
-90.84
-100.51
-107.35
-110.61
-110.58
-108.46
-105.70
-103.31
-101.71
-101.18
-102.40
-106.18
-112.49
-119.10
-121.08
-112.14
-87.33
-45.67
8.77
67.95
122.24
163.06
184.58
184.03
161.75
121.01
67.92
10.87
-40.89
-79.55
-100.75
-104.55
-94.88
-77.54
-58.25
-41.38
-29.32
-22.68
-20.84
-22.39
-25.54
-28.55
-29.96
-28.63
-24.11
-16.82
-8.24
-0.51
4.46
5.95
5.01
4.29
7.07
15.82
31.23
51.51
72.98
91.07
101.72
102.42
92.80
74.43
50.25
23.74
-1.81
-23.78
-40.49
-51.22
-56.16
-56.25
-52.96
-48.02
-42.90
-38.69
-35.81
-34.21
-33.48
-33.01
-32.27
-30.95
-29.02
-26.75
-24.51
-22.64
-21.27
-20.31
-19.54
-18.73
-17.80
-16.78
-15.78
-14.88
-14.14
-13.53
-13.01
-12.58
-12.27
-12.21
-12.42
-12.81
-13.24
-13.52
-13.61
-13.59
-13.86
-14.51
-15.58
-16.76
-17.56
-17.83
-18.10
-19.29
-21.94
-25.28
-27.20
-25.27
-18.44
-8.02
2.37
8.57
7.96
0.64
-11.10
-24.46
-37.31
-48.15
-54.97
-54.54
-43.18
-18.95
15.97
55.10
89.88
113.30
123.02
121.89
115.49
109.54
107.38
109.62
114.86
120.66
123.95
121.37
110.02
88.73
59.38
26.85
-2.76
-24.35
-35.82
-38.45
-35.50
-30.18
-24.38
-18.48
-12.28
-6.01
-0.50
3.18
4.75
4.90
4.95
6.04
8.50
11.67
14.07
14.21
11.16
4.99
-3.34
-12.38
-20.35
-26.63
-31.06
-34.08
-36.28
-38.15
-39.78
-40.96
-41.55
-41.01
-39.39
-36.90
-34.03
-31.27
-28.96
-27.21
-25.95
-25.01
-24.14
-23.34
-22.59
-21.91
-21.29
-20.70
-20.11
-19.59
-19.28
-19.44
-20.31
-21.84
-23.77
-25.62
-26.95
-27.56
-27.71
-28.01
-29.23
-31.96
-36.17
-41.24
-46.15
-49.94
-52.20
-53.33
-54.39
-56.70
-61.16
-67.68
-75.15
-81.79
-86.06
-87.06
-85.42
-81.98
-78.03
-74.65
-72.40
-71.40
-71.15
-70.18
-65.85
-54.84
-34.32
-3.88
33.60
72.40
105.96
129.48
141.67
144.44
141.02
133.94
123.96
110.64
93.99
75.61
58.75
46.85
41.47
41.11
41.96
39.88
32.19
19.21
3.67
-10.46
-19.51
-21.71
-17.69
-9.89
-2.23
0.26
-7.88
-31.17
-69.86
-117.95
-164.02
-194.78
-200.07
-177.27
-132.32
-76.99
-24.00
16.86
42.54
56.37
63.42
66.53
65.33
58.05
47.03
32.56
17.22
4.55
-4.01
-9.81
-15.85
-25.34
-39.85
-58.80
-80.39
-101.70
-119.77
-133.46
-143.53
-151.80
-159.95
-168.44
-176.15
-180.83
-182.83
-181.05
-175.19
-166.01
-154.93
-143.40
-132.35
-122.10
-112.77
-104.23
-95.99
-88.30
-81.96
-78.07
-77.59
-81.12
-88.69
-100.02
-114.33
-130.17
-146.16
-161.04
-173.68
-183.20
-189.06
-191.06
-189.47
-184.85
-177.61
-168.26
-157.14
-144.44
-130.20
-114.45
-97.28
-78.87
-59.44
-39.00
-17.37
5.82
31.03
58.59
88.41
119.86
151.77
182.63
211.04
235.94
256.90
274.03
287.81
298.65
306.77
312.19
315.05
315.77
315.40
315.31
316.87
321.16
328.76
339.62
352.97
367.09
379.24
385.96
383.56
369.21
342.05
303.96
259.55
215.33
178.23
154.09
146.85
157.59
184.47
223.27
268.19
312.99
352.09
381.43
398.92
405.38
403.07
395.12
385.18
376.72
371.95
370.43
368.46
360.16
341.69
311.63
272.17
228.47
186.91
152.43
126.61
107.69
92.45
81.01
74.39
73.46
77.77
85.48
93.65
98.96
98.44
90.39
78.12
64.78
51.70
37.80
20.83
-1.13
-28.96
-62.23
-119.70
-204.88
-306.72
-404.80
-481.63
-530.42
-553.63
-557.85
-549.66
-533.95
-510.41
-479.13
-442.15
-403.60
-367.73
-337.25
-312.82
-293.61
-278.10
-262.08
-242.96
-220.69
-197.51
-176.09
-158.14
-144.03
-133.21
-124.68
-115.86
-105.21
-92.79
-80.00
-68.48
-59.25
-52.43
-47.58
-44.00
-40.23
-35.40
-29.59
-23.62
-18.46
-14.78
-12.63
-11.65
-11.21
-10.39
-8.69
-6.20
-3.52
-1.40
-0.33
-0.22
-0.43
-0.08
1.64
5.05
9.66
14.33
17.62
18.29
15.91
10.98
4.61
-1.96
-7.79
-12.59
-16.64
-20.41
-24.35
-28.78
-34.10
-40.64
-47.97
-54.36
-56.86
-52.14
-38.02
-16.02
9.39
31.90
46.06
49.53
43.66
32.14
19.27
7.97
-0.66
-6.59
-10.11
-11.17
-9.42
-4.86
1.79
9.41
16.89
23.48
29.12
34.16
38.77
42.74
45.50
46.35
44.97
41.52
36.83
32.36
29.85
30.69
35.30
42.47
49.03
50.50
42.52
23.17
-5.63
-38.16
-66.71
-84.11
-86.07
-72.65
-47.90
-18.42
9.42
30.60
42.51
44.40
37.33
24.08
8.38
-5.81
-15.12
-16.59
-8.99
6.93
27.71
48.60
65.60
76.54
81.46
82.34
82.90
85.54
89.83
91.57
85.34
67.60
37.80
-2.30
-50.00
-99.27
-143.90
-172.02
-175.72
-155.35
-118.24
-73.41
-27.69
10.70
42.76
68.11
83.69
87.19
80.97
72.56
70.52
79.65
98.53
118.17
124.73
106.78
59.28
-16.01
-110.12
-210.65
-307.09
-392.52
-462.64
-491.50
-465.63
-394.12
-300.52
-205.81
-121.27
-51.38
2.71
41.60
66.66
77.71
76.77
70.15
66.47
73.14
93.18
124.64
161.99
193.53
208.16
201.41
177.48
145.90
115.58
90.54
70.10
51.37
32.40
13.20
-4.29
-17.17
-23.60
-24.19
-22.34
-21.62
-23.85
-27.98
-30.32
-26.96
-15.05
6.12
35.19
68.26
100.40
126.37
136.58
127.20
98.72
56.19
8.25
-35.09
-67.00
-84.86
-90.57
-88.85
-83.78
-77.93
-71.12
-61.02
-43.84
-18.27
15.42
54.27
93.22
127.18
151.70
164.68
162.41
149.60
129.98
106.47
80.77
54.34
29.88
10.82
0.06
-1.99
1.88
4.25
-2.69
-24.00
-59.24
-101.91
-141.79
-169.03
-178.05
-166.04
-140.92
-112.18
-86.82
-67.23
-51.75
-37.01
-20.65
-2.67
15.08
29.00
36.97
38.05
32.46
21.19
6.05
-10.35
-24.37
-31.45
-29.00
-17.09
0.97
19.66
33.70
40.54
40.60
36.51
31.37
26.46
21.58
15.65
7.65
-2.78
-15.15
-29.52
-46.12
-64.50
-83.13
-98.99
-108.89
-110.78
-104.82
-91.97
-74.15
-52.23
-25.78
5.54
40.84
76.83
108.84
132.65
147.59
155.07
158.50
160.90
162.82
161.99
153.95
134.55
97.30
47.64
-6.63
-58.06
-102.00
-139.57
-172.81
-203.46
-231.36
-254.00
-266.01
-263.78
-246.60
-217.31
-181.49
-145.35
-114.04
-88.98
-71.68
-60.77
-54.14
-49.40
-44.74
-39.63
-34.44
-30.10
-27.03
-24.55
-19.83
-9.93
7.16
31.54
60.82
90.79
116.37
133.32
139.60
136.60
128.00
118.65
112.83
113.02
119.45
129.98
140.52
145.66
140.47
122.14
91.97
56.62
26.79
13.58
23.29
53.83
94.89
132.63
156.10
161.99
154.91
143.22
133.18
125.25
114.74
95.74
65.89
28.28
-10.11
-42.35
-65.06
-79.57
-90.34
-101.73
-115.60
-130.91
-144.91
-155.05
-160.36
-161.76
-161.01
-159.15
-155.24
-146.18
-127.81
-97.04
-54.06
-3.54
46.04
84.86
105.14
104.10
85.26
57.42
31.85
18.87
24.99
51.49
94.73
147.63
201.74
249.22
284.19
303.53
306.62
294.92
271.36
239.66
203.83
167.55
133.60
103.13
75.38
47.87
17.22
-19.54
-63.41
-112.75
-163.63
-211.36
-252.47
-285.96
-313.29
-336.73
-357.26
-373.04
-379.63
-371.90
-346.43
-303.34
-246.33
-181.04
-112.61
-44.40
21.82
84.60
141.49
189.11
224.00
244.16
250.32
245.93
235.65
223.36
211.04
198.92
186.89
175.65
167.01
162.93
164.43
170.19
176.68
179.48
175.03
161.74
139.03
106.64
64.97
17.09
-30.93
-71.45
-98.58
-111.97
-117.21
-124.85
-145.26
-182.80
-232.04
-281.87
-322.73
-351.76
-373.45
-392.78
-411.94
-427.88
-433.16
-418.49
-379.66
-321.27
-254.56
-192.41
-140.83
-100.96
-70.97
-46.95
-21.58
11.85
56.11
109.30
166.47
225.66
284.32
339.05
367.23
352.20
297.29
222.49
160.22
110.66
72.09
45.23
27.69
21.53
31.79
61.32
106.79
158.63
205.46
241.28
263.16
271.83
273.27
278.16
295.36
326.16
345.37
330.35
276.01
193.89
101.77
14.84
-57.16
-110.85
-147.92
-174.58
-194.63
-206.72
-209.77
-205.62
-198.23
-192.02
-190.80
-197.28
-202.37
-196.43
-171.83
-129.86
-80.54
-35.93
-3.86
14.09
23.18
27.71
29.56
28.43
22.24
9.29
-7.53
-23.57
-33.77
-34.89
-27.46
-16.00
-7.42
-8.89
-24.43
-51.84
-82.45
-103.15
-100.71
-66.89
-1.94
85.16
178.92
261.83
320.21
347.08
342.58
311.95
262.48
201.09
133.30
62.84
-8.18
-76.85
-139.11
-190.79
-228.83
-252.45
-263.62
-266.30
-265.49
-266.46
-271.02
-277.07
-280.89
-279.19
-270.41
-255.15
-235.48
-214.29
-195.19
-178.45
-160.69
-137.84
-107.22
-68.47
-23.10
26.41
83.59
139.64
178.90
190.03
172.18
132.52
80.59
21.35
-41.46
-104.25
-164.44
-217.97
-251.05
-253.95
-224.57
-168.85
-97.64
-21.67
51.60
118.09
178.32
234.50
286.97
331.49
360.99
369.55
355.63
322.28
274.95
221.06
159.10
95.06
38.59
-2.99
-28.09
-38.80
-37.99
-28.43
-12.68
7.58
30.17
50.29
62.27
62.72
52.46
36.23
18.60
5.10
-1.64
-1.33
4.38
14.40
29.99
53.34
83.96
116.29
140.89
148.55
136.38
109.20
77.26
50.65
33.87
24.45
16.71
8.00
2.49
10.69
42.77
101.99
181.60
267.03
342.34
396.97
429.08
443.99
449.43
450.38
446.87
435.11
410.46
370.66
317.55
256.36
193.55
134.24
80.59
31.77
-14.59
-60.53
-106.21
-149.91
-189.02
-221.27
-245.26
-260.46
-266.87
-265.37
-258.70
-251.69
-250.62
-261.09
-285.39
-321.19
-362.29
-401.30
-432.66
-454.40
-467.66
-474.71
-476.89
-473.77
-463.73
-445.52
-419.40
-387.24
-351.87
-315.85
-280.69
-246.63
-213.24
-180.13
-147.60
-116.82
-89.58
-67.66
-52.00
-42.17
-36.43
-32.22
-27.07
-19.37
-8.80
3.80
17.08
29.80
41.50
52.50
63.63
75.60
88.47
101.25
112.06
118.73
119.52
113.85
102.48
87.20
70.21
53.38
37.89
24.10
11.89
0.86
-9.28
-18.72
-27.33
-34.66
-39.88
-41.85
-39.48
-32.07
-19.73
-3.41
15.21
34.20
51.75
66.55
77.96
85.85
90.56
92.69
92.91
91.85
90.04
87.88
85.67
83.70
82.27
81.62
81.96
83.39
85.86
89.18
93.02
96.88
100.19
102.40
103.10
102.11
99.46
95.31
89.85
83.17
75.16
65.67
54.56
41.82
27.64
12.39
-3.51
-19.67
-35.91
-52.28
-69.09
-86.76
-105.55
-125.28
-145.05
-163.24
-177.64
-185.99
-186.54
-178.58
-162.69
-140.56
-114.65
-87.61
-61.77
-38.80
-19.62
-4.40
7.22
15.94
22.62
28.08
32.96
37.63
42.23
46.64
50.71
54.32
57.51
60.43
63.27
66.13
68.91
71.39
73.25
74.21
74.09
72.82
70.35
66.69
61.92
56.20
49.79
43.04
36.27
29.73
23.52
17.62
11.95
6.38
0.80
-4.86
-10.61
-16.43
-22.17
-27.64
-32.61
-36.99
-40.86
-44.60
-48.76
-53.82
-59.86
-66.27
-71.72
-74.43
-72.69
-65.48
-52.87
-36.06
-17.06
1.86
18.81
32.65
43.25
51.23
57.62
63.42
69.21
74.99
80.25
84.28
86.44
86.56
85.02
82.68
80.63
79.85
80.84
83.61
87.59
91.84
95.36
97.19
96.70
93.65
88.18
80.75
72.04
62.72
53.38
44.41
35.98
28.03
20.32
12.48
4.09
-5.09
-15.06
-25.36
-35.24
-43.86
-50.59
-55.35
-58.71
-61.74
-65.59
-71.09
-78.23
-86.08
-92.94
-96.82
-96.05
-89.90
-78.76
-64.05
-47.88
-32.42
-19.38
-9.70
-3.48
-0.13
1.33
1.90
2.36
3.03
3.88
4.70
5.32
5.72
6.06
6.61
7.55
8.93
10.64
12.46
14.14
15.44
16.18
16.18
15.33
13.61
11.12
8.07
4.75
1.44
-1.56
-4.02
-5.77
-6.70
-6.79
-6.20
-5.28
-4.55
-4.57
-5.74
-8.15
-11.60
-15.65
-19.95
-24.36
-29.09
-34.55
-41.16
-49.12
-58.24
-67.98
-77.45
-85.62
-91.27
-93.21
-90.41
-82.29
-68.98
-51.46
-31.42
-10.96
7.86
23.43
34.83
41.86
44.98
45.05
43.19
40.47
37.82
35.83
34.71
34.39
34.63
35.25
36.14
37.38
39.03
41.08
43.33
45.44
46.95
47.49
46.84
45.03
42.29
38.89
35.07
30.91
26.35
21.31
15.81
9.98
4.10
-1.54
-6.78
-11.60
-16.17
-20.66
-25.21
-29.82
-34.39
-38.72
-42.69
-46.24
-49.44
-52.47
-55.65
-59.37
-63.95
-69.57
-75.98
-82.42
-87.56
-89.73
-87.47
-79.97
-67.48
-51.24
-33.22
-15.42
0.55
13.81
24.10
31.55
36.35
38.71
38.77
36.74
32.91
27.67
21.50
14.89
8.41
2.65
-1.73
-4.22
-4.49
-2.51
1.29
6.15
10.92
14.20
14.53
10.66
1.86
-11.78
-29.19
-48.49
-67.26
-83.03
-93.87
-98.96
-98.85
-95.24
-90.42
-86.14
-82.88
-79.39
-73.17
-61.64
-43.40
-19.17
8.33
35.32
58.46
75.97
88.09
96.48
103.20
109.68
116.30
122.61
127.94
131.94
134.72
136.57
137.29
136.01
131.24
121.39
105.55
83.90
57.96
30.10
3.04
-20.84
-39.85
-53.04
-60.17
-61.38
-57.15
-48.31
-36.18
-22.67
-10.16
-1.18
2.27
-0.81
-10.03
-23.69
-39.26
-54.15
-66.32
-74.71
-79.28
-80.75
-80.24
-78.87
-77.50
-76.50
-75.78
-74.81
-72.84
-69.26
-63.85
-56.99
-49.49
-42.30
-36.12
-31.33
-28.03
-26.23
-26.00
-27.31
-29.81
-32.56
-33.98
-32.10
-25.16
-12.14
6.84
30.45
56.47
82.30
105.50
124.26
137.67
145.65
148.82
148.10
144.48
138.80
131.70
123.70
115.28
106.90
98.96
91.77
85.50
80.11
75.46
71.33
67.52
63.83
60.07
56.08
51.65
46.62
40.84
34.36
27.41
20.43
13.98
8.47
4.08
0.53
-2.75
-6.45
-11.12
-16.95
-23.81
-31.36
-39.36
-47.80
-56.94
-67.30
-79.41
-93.57
-109.53
-126.29
-142.00
-154.23
-160.39
-158.40
-147.24
-127.40
-100.74
-70.09
-38.61
-9.13
16.41
37.13
53.05
64.81
73.24
79.04
82.62
84.08
83.44
80.80
76.59
71.55
66.65
62.85
60.78
60.70
62.34
65.14
68.37
71.31
73.33
73.94
72.69
69.21
63.24
54.66
43.57
30.29
15.32
-0.67
-16.87
-32.48
-46.77
-59.24
-69.70
-78.23
-85.14
-90.76
-95.24
-98.47
-99.95
-98.97
-94.65
-86.26
-73.48
-56.55
-36.42
-14.56
7.25
27.32
44.28
57.25
65.84
70.12
70.45
67.53
62.30
55.86
49.30
43.50
38.93
35.56
32.92
30.24
26.80
22.16
16.25
9.44
2.28
-4.66
-11.04
-16.74
-21.76
-26.14
-29.82
-32.72
-34.91
-36.57
-38.05
-39.68
-41.60
-43.67
-45.53
-46.81
-47.29
-47.06
-46.51
-46.20
-46.74
-48.58
-51.89
-56.47
-61.63
-66.34
-69.21
-68.91
-64.35
-55.07
-41.42
-24.56
-6.25
11.51
26.87
38.54
45.95
49.21
49.04
46.43
42.42
37.89
33.50
29.54
26.11
23.11
20.43
18.06
16.16
15.06
15.06
16.35
18.78
21.96
25.25
27.99
29.74
30.27
29.58
27.85
25.35
22.32
18.96
15.43
11.78
8.04
4.29
0.65
-2.68
-5.50
-7.76
-9.57
-11.20
-12.99
-15.24
-18.10
-21.61
-25.63
-29.90
-33.95
-37.12
-38.64
-37.74
-33.98
-27.32
-18.22
-7.51
3.77
14.50
23.48
29.50
31.43
28.45
20.42
8.18
-6.40
-20.81
-32.53
-39.72
-41.57
-38.26
-30.63
-19.75
-6.45
8.56
24.46
39.85
52.82
61.44
64.58
62.42
56.51
49.39
43.64
40.76
40.41
40.40
38.08
31.68
21.09
7.99
-4.97
-15.23
-21.68
-24.67
-25.48
-24.42
-20.97
-15.31
-9.86
-8.91
-16.12
-31.78
-51.65
-69.54
-80.12
-82.41
-80.73
-81.40
-87.91
-97.09
-100.66
-89.90
-63.53
-28.46
5.51
30.83
44.80
48.21
42.95
30.50
15.02
-3.53
-23.21
-39.64
-49.31
-50.35
-42.52
-26.89
-5.49
18.14
38.41
45.23
31.61
-4.94
-60.39
-124.48
-183.37
-224.34
-239.91
-229.94
-199.19
-153.40
-96.88
-30.85
45.30
131.40
223.82
314.58
392.58
447.25
471.96
465.11
430.19
374.71
308.82
244.37
193.23
164.89
164.08
188.06
226.22
262.93
282.98
277.14
245.15
194.69
137.09
82.33
36.08
-0.85
-30.43
-54.58
-73.70
-86.46
-90.91
-85.69
-71.01
-48.54
-21.00
8.58
37.69
64.62
88.29
108.08
123.56
134.68
141.97
146.79
151.29
157.92
168.61
183.82
202.01
219.63
232.09
235.20
226.64
206.73
178.18
144.89
110.38
76.87
44.89
13.93
-16.70
-47.29
-77.59
-107.14
-135.74
-163.70
-191.70
-220.53
-250.59
-281.49
-311.92
-339.87
-363.33
-381.16
-393.74
-402.90
-411.10
-420.18
-430.16
-438.92
-442.65
-437.19
-419.51
-388.86
-347.01
-297.73
-245.74
-195.50
-150.39
-112.34
-81.91
-58.71
-41.88
-30.35
-22.91
-18.33
-15.31
-12.87
-10.52
-8.44
-7.27
-7.77
-10.44
-15.32
-21.99
-29.76
-37.96
-46.08
-53.83
-61.15
-68.13
-74.90
-81.64
-88.56
-95.93
-104.13
-113.46
-123.93
-134.99
-145.46
-153.69
-158.06
-157.60
-152.39
-143.59
-133.01
-122.36
-112.72
-104.36
-96.88
-89.71
-82.55
-75.52
-69.14
-63.99
-60.37
-58.16
-56.71
-55.11
-52.30
-47.24
-38.89
-26.11
-7.93
16.23
46.15
80.49
116.99
153.19
187.38
219.06
248.45
275.45
298.61
315.01
321.34
315.50
297.89
271.44
240.56
209.46
181.07
156.82
137.02
121.61
110.27
102.22
95.92
89.13
79.27
64.12
42.53
14.73
-17.46
-50.86
-81.55
-105.98
-122.03
-129.82
-131.49
-130.13
-128.27
-126.76
-124.84
-120.96
-114.15
-104.78
-94.43
-84.81
-76.70
-69.48
-61.49
-51.08
-37.70
-22.11
-6.21
8.01
19.22
27.20
32.64
36.66
40.22
43.79
47.31
50.49
53.06
54.95
56.31
57.37
58.35
59.26
59.93
60.03
59.23
57.28
54.09
49.83
44.86
39.68
34.74
30.36
26.65
23.45
20.47
17.43
14.16
10.64
6.99
3.36
-0.21
-3.74
-7.43
-11.49
-16.12
-21.48
-27.71
-34.77
-42.40
-49.90
-56.15
-59.73
-59.29
-54.06
-44.12
-30.51
-14.91
0.79
15.04
26.93
36.23
43.21
48.37
52.16
54.93
56.87
58.13
58.81
59.11
59.17
59.14
59.10
59.06
59.10
59.31
59.80
60.56
61.52
62.41
62.84
62.47
61.10
58.74
55.61
51.99
48.15
44.25
40.32
36.32
32.22
28.03
23.83
19.68
15.67
11.79
7.89
3.78
-0.75
-5.76
-11.19
-16.74
-22.04
-26.72
-30.62
-33.89
-36.95
-40.41
-44.80
-50.41
-56.98
-63.57
-68.72
-70.74
-68.20
-60.42
-47.75
-31.44
-13.34
4.62
20.93
34.66
45.50
53.64
59.55
63.88
67.23
70.19
73.11
76.13
79.10
81.73
83.67
84.63
84.49
83.33
81.51
79.50
77.72
76.36
75.29
74.04
71.99
68.62
63.71
57.41
50.19
42.58
35.03
27.79
20.91
14.35
8.09
2.19
-3.24
-8.10
-12.43
-16.38
-20.15
-23.96
-27.94
-32.10
-36.40
-40.76
-45.11
-49.37
-53.51
-57.50
-61.34
-65.17
-69.27
-73.91
-79.22
-84.85
-89.93
-93.17
-93.25
-89.30
-81.29
-70.04
-57.04
-43.95
-32.05
-22.06
-14.14
-8.03
-3.34
0.21
2.77
4.33
4.79
4.14
2.52
0.24
-2.28
-4.63
-6.51
-7.87
-8.81
-9.53
-10.26
-11.14
-12.19
-13.16
-13.52
-12.42
-8.94
-2.47
6.88
17.98
28.83
37.04
40.63
38.62
31.44
20.66
8.41
-3.32
-13.21
-20.83
-26.40
-30.51
-33.90
-37.10
-40.38
-43.56
-46.02
-46.70
-44.27
-37.66
-26.44
-11.22
6.35
24.06
39.68
51.62
59.20
62.69
62.95
61.06
57.96
54.33
50.62
47.18
44.40
42.61
41.98
42.28
43.01
43.40
42.83
40.97
37.91
34.04
29.85
25.69
21.73
18.05
14.56
11.15
7.65
3.80
-0.53
-5.33
-10.38
-15.31
-19.77
-23.69
-27.25
-30.82
-34.71
-38.97
-43.39
-47.55
-51.13
-54.07
-56.63
-59.39
-62.90
-67.46
-72.90
-78.44
-82.82
-84.60
-82.54
-75.97
-64.95
-50.37
-33.71
-16.67
-0.84
12.66
23.40
31.56
37.74
42.61
46.61
49.89
52.32
53.77
54.25
54.07
53.66
53.42
53.49
53.70
53.71
53.16
51.94
50.10
47.84
45.29
42.56
39.69
36.66
33.30
29.14
23.33
14.91
3.22
-11.63
-28.71
-46.47
-63.45
-78.72
-92.03
-103.54
-113.47
-121.95
-129.16
-135.38
-140.95
-145.85
-149.29
-149.66
-145.05
-134.17
-116.98
-94.85
-70.02
-44.77
-20.73
1.36
21.53
40.27
58.34
76.61
96.09
117.72
142.03
168.64
195.84
220.49
238.48
245.89
240.35
222.30
195.16
164.28
134.97
110.56
91.48
75.72
60.58
44.29
27.02
10.44
-3.53
-13.87
-20.99
-26.17
-30.74
-35.18
-39.22
-42.21
-43.91
-44.76
-45.72
-47.70
-51.05
-55.42
-60.05
-64.35
-68.19
-71.96
-76.21
-81.23
-86.85
-92.52
-97.54
-101.35
-103.65
-104.24
-102.95
-99.47
-93.48
-84.72
-73.14
-58.94
-42.61
-24.81
-6.35
11.88
28.94
43.86
55.63
63.36
66.50
65.09
59.89
52.25
43.82
36.06
29.88
25.63
23.27
22.68
23.82
26.62
30.75
35.47
39.75
42.62
43.58
42.82
41.00
38.99
37.39
36.31
35.38
34.08
31.93
28.66
24.21
18.62
12.00
4.58
-3.27
-11.01
-18.10
-24.06
-28.64
-31.98
-34.42
-36.53
-38.77
-41.30
-43.78
-45.41
-45.12
-41.95
-35.46
-25.90
-14.23
-1.81
10.01
20.23
28.34
34.25
38.12
40.28
41.03
40.68
39.51
37.72
35.45
32.83
30.00
27.22
24.87
23.32
22.74
23.02
23.79
24.56
25.03
25.09
24.87
24.46
23.81
22.68
20.74
17.83
14.04
9.67
5.07
0.48
-3.99
-8.35
-12.55
-16.46
-19.94
-22.89
-25.42
-27.83
-30.50
-33.61
-36.99
-39.96
-41.45
-40.35
-35.86
-27.88
-17.11
-4.88
7.30
18.15
26.95
33.54
38.15
41.09
42.61
42.83
41.88
39.98
37.47
34.70
32.02
29.61
27.57
25.98
24.87
24.27
24.11
24.18
24.14
23.60
22.29
20.11
17.20
13.79
10.14
6.42
2.66
-1.17
-5.14
-9.20
-13.18
-16.90
-20.23
-23.10
-25.59
-27.86
-30.09
-32.57
-35.53
-39.15
-43.38
-47.83
-51.67
-53.73
-52.88
-48.38
-40.26
-29.36
-17.06
-4.90
5.90
14.65
21.20
25.73
28.58
30.05
30.39
29.81
28.58
27.00
25.39
23.98
22.87
22.05
21.44
20.97
20.60
20.33
20.18
20.12
20.02
19.69
18.95
17.59
15.55
12.84
9.64
6.24
2.94
-0.02
-2.57
-4.82
-7.04
-9.51
-12.38
-15.63
-19.09
-22.52
-25.75
-28.71
-31.40
-33.91
-36.31
-38.75
-41.37
-44.34
-47.65
-51.04
-53.87
-55.20
-54.08
-49.86
-42.44
-32.44
-20.97
-9.31
1.36
10.26
17.03
21.64
24.24
25.13
24.64
23.17
21.19
19.14
17.41
16.26
15.86
16.22
17.28
18.88
20.77
22.68
24.31
25.43
25.88
25.60
24.60
22.94
20.68
17.83
14.47
10.70
6.70
2.69
-1.10
-4.50
-7.46
-10.11
-12.70
-15.45
-18.59
-22.21
-26.23
-30.44
-34.53
-38.16
-41.09
-43.25
-44.79
-46.06
-47.43
-49.17
-51.21
-53.13
-54.18
-53.50
-50.42
-44.69
-36.68
-27.26
-17.54
-8.62
-1.25
4.37
8.39
11.17
13.11
14.46
15.36
15.89
16.09
15.99
15.65
15.15
14.71
14.68
15.61
18.07
22.46
28.75
36.45
44.65
52.35
58.80
63.76
67.45
70.51
73.54
76.94
80.77
84.85
89.00
93.16
97.57
102.63
108.93
117.00
127.14
139.21
152.42
165.34
176.11
182.78
183.81
178.44
166.95
150.46
130.48
108.36
85.01
60.94
36.62
12.73
-9.73
-29.74
-46.62
-60.26
-71.13
-79.97
-87.43
-94.01
-100.04
-105.92
-112.20
-119.44
-127.82
-137.03
-146.11
-153.82
-158.96
-160.79
-159.24
-154.83
-148.47
-141.04
-133.16
-125.13
-117.04
-108.98
-101.28
-94.38
-88.72
-84.52
-81.65
-79.66
-78.08
-76.46
-74.62
-72.55
-70.36
-68.25
-66.35
-64.81
-63.67
-62.93
-62.43
-61.93
-61.15
-59.93
-58.36
-56.79
-55.63
-55.19
-55.30
-55.30
-54.11
-50.68
-44.32
-35.10
-23.82
-11.76
-0.25
9.69
17.57
23.33
27.20
29.52
30.59
30.71
30.18
29.34
28.52
27.99
27.87
28.12
28.63
29.24
29.88
30.50
31.06
31.48
31.63
31.30
30.42
29.02
27.26
25.36
23.49
21.73
20.08
18.50
16.98
15.55
14.27
13.19
12.24
11.28
10.11
8.50
6.36
3.67
0.59
-2.61
-5.64
-8.23
-10.23
-11.65
-12.69
-13.65
-14.92
-16.83
-19.48
-22.65
-25.68
-27.66
-27.60
-24.79
-19.00
-10.58
-0.38
10.48
20.86
29.85
36.82
41.53
44.01
44.58
43.69
41.86
39.61
37.34
35.35
33.80
32.72
32.04
31.65
31.36
31.01
30.46
29.67
28.69
27.62
26.55
25.50
24.40
23.10
21.51
19.63
17.57
15.54
13.71
12.14
10.70
9.13
7.15
4.60
1.50
-1.91
-5.33
-8.50
-11.26
-13.69
-16.02
-18.50
-21.33
-24.53
-27.98
-31.47
-34.70
-37.47
-39.69
-41.40
-42.69
-43.68
-44.23
-43.97
-42.32
-38.65
-32.58
-24.20
-14.18
-3.53
6.57
15.22
21.88
26.50
29.33
30.78
31.26
31.10
30.56
29.83
29.05
28.33
27.78
27.45
27.32
27.37
27.50
27.63
27.67
27.60
27.41
27.14
26.81
26.41
25.87
25.07
23.86
22.12
19.79
16.98
13.89
10.81
7.95
5.39
3.03
0.62
-2.10
-5.29
-8.97
-12.98
-17.03
-20.79
-23.98
-26.41
-28.06
-29.04
-29.66
-30.28
-31.14
-32.19
-33.02
-32.83
-30.81
-26.38
-19.45
-10.57
-0.74
8.93
17.48
24.36
29.39
32.64
34.24
34.31
32.95
30.43
27.22
23.96
21.29
19.62
19.03
19.28
19.97
20.76
21.52
22.24
23.01
23.75
24.25
24.13
23.05
20.78
17.37
13.12
8.51
4.04
0.11
-3.03
-5.35
-6.94
-7.95
-8.56
-8.94
-9.36
-10.15
-11.66
-14.15
-17.67
-21.97
-26.48
-30.46
-33.26
-34.52
-34.40
-33.48
-32.66
-32.75
-34.13
-36.48
-38.84
-39.95
-38.70
-34.55
-27.76
-19.27
-10.21
-1.53
6.29
13.28
19.67
25.65
31.02
35.25
37.62
37.67
35.35
31.15
25.99
20.99
17.25
15.72
17.05
21.38
28.05
35.57
41.91
45.38
45.26
42.33
38.45
35.62
34.95
36.19
38.12
39.44
39.58
38.85
37.93
37.19
36.10
33.17
26.54
14.75
-2.38
-23.53
-46.04
-66.64
-82.50
-92.13
-95.80
-95.18
-92.55
-89.73
-87.65
-86.40
-85.82
-86.12
-87.85
-91.49
-96.76
-102.31
-105.96
-105.47
-99.42
-87.75
-71.83
-53.79
-35.74
-19.12
-4.50
8.19
19.14
28.41
35.80
41.01
43.96
44.94
44.58
43.76
43.40
44.28
46.79
50.86
55.88
60.83
64.48
65.72
63.85
58.73
50.77
40.76
29.62
18.20
7.21
-2.81
-11.37
-18.05
-22.53
-24.71
-24.64
-22.55
-18.76
-13.58
-7.37
-0.52
6.43
12.82
17.96
21.28
22.39
21.19
17.78
12.50
5.83
-1.63
-9.15
-15.94
-21.19
-24.19
-24.35
-21.36
-15.27
-6.43
4.48
16.59
28.94
40.57
50.55
58.08
62.52
63.49
61.02
55.57
47.93
39.04
29.76
20.69
12.16
4.32
-2.73
-8.91
-14.13
-18.34
-21.56
-23.86
-25.30
-25.91
-25.65
-24.57
-22.85
-20.97
-19.47
-18.82
-19.17
-20.30
-21.67
-22.74
-23.21
-23.15
-22.95
-23.05
-23.69
-24.74
-25.74
-26.11
-25.46
-23.75
-21.32
-18.84
-16.95
-16.09
-16.30
-17.14
-17.86
-17.62
-15.75
-11.93
-6.30
0.62
8.13
15.50
22.16
27.73
31.94
34.68
35.85
35.47
33.71
30.90
27.49
24.01
20.89
18.46
16.86
16.01
15.75
15.80
15.90
15.85
15.53
14.97
14.24
13.43
12.60
11.74
10.75
9.51
7.97
6.11
4.00
1.67
-0.88
-3.72
-6.95
-10.51
-14.23
-17.78
-20.89
-23.40
-25.37
-27.05
-28.71
-30.56
-32.59
-34.67
-36.47
-37.63
-37.71
-36.25
-32.90
-27.51
-20.23
-11.58
-2.38
6.48
14.14
20.01
23.86
25.78
26.19
25.59
24.45
22.94
20.92
17.86
13.09
6.01
-3.57
-15.13
-27.47
-38.82
-47.32
-51.43
-50.45
-44.73
-35.63
-25.10
-15.10
-7.06
-1.52
1.75
3.59
4.92
6.48
8.64
11.40
14.60
17.97
21.19
23.88
25.68
26.24
25.42
23.37
20.45
17.14
13.80
10.49
6.93
2.69
-2.56
-8.74
-15.13
-20.53
-23.64
-23.43
-19.53
-12.38
-3.05
7.10
16.75
24.96
31.24
35.56
38.16
39.45
39.76
39.37
38.43
37.03
35.25
33.19
31.07
29.09
27.47
26.24
25.30
24.37
23.13
21.33
18.90
15.91
12.47
8.62
4.29
-0.59
-6.05
-11.94
-17.97
-23.75
-28.94
-33.26
-36.60
-38.93
-40.26
-40.75
-40.62
-40.14
-39.48
-38.59
-37.21
-34.97
-31.71
-27.66
-23.54
-20.28
-18.65
-18.91
-20.59
-22.63
-23.78
-22.89
-19.30
-12.75
-3.47
7.91
20.25
31.87
40.84
45.51
45.21
40.57
33.15
24.34
14.12
0.86
-17.77
-42.97
-73.23
-104.37
-130.93
-148.36
-154.60
-150.09
-136.50
-115.34
-87.39
-53.33
-14.89
24.67
61.15
90.84
111.79
124.04
128.98
128.24
123.06
114.28
102.79
89.82
77.02
66.11
58.31
54.07
52.97
53.95
55.58
56.37
55.10
51.06
44.09
34.53
23.03
10.42
-2.39
-14.44
-24.75
-32.41
-36.77
-37.56
-35.06
-30.05
-23.55
-16.64
-10.17
-4.64
-0.22
3.05
5.18
5.96
5.11
2.36
-2.32
-8.49
-15.20
-21.10
-24.80
-25.21
-21.86
-14.97
-5.30
6.06
17.97
29.38
39.32
47.05
52.02
54.05
53.36
50.54
46.32
41.36
36.07
30.56
24.73
18.46
11.73
4.62
-2.65
-9.84
-16.74
-23.24
-29.33
-35.12
-40.73
-46.21
-51.51
-56.48
-60.92
-64.72
-67.88
-70.49
-72.51
-73.63
-73.24
-70.55
-64.93
-56.10
-44.38
-30.59
-15.80
-1.10
12.61
24.69
34.85
42.99
49.21
53.75
56.94
59.14
60.68
61.77
62.48
62.65
61.90
59.74
55.66
49.39
41.04
31.19
20.78
10.96
2.69
-3.48
-7.48
-9.61
-10.34
-10.13
-9.32
-8.13
-6.77
-5.47
-4.51
-4.20
-4.75
-6.34
-8.99
-12.57
-16.87
-21.60
-26.44
-31.21
-35.82
-40.31
-44.72
-49.03
-53.18
-57.02
-60.41
-63.14
-64.88
-65.16
-63.44
-59.25
-52.48
-43.45
-32.97
-22.07
-11.73
-2.69
4.72
10.40
14.39
16.72
17.45
16.68
14.61
11.64
8.31
5.24
3.11
2.52
3.98
7.74
13.72
21.43
30.03
38.50
45.81
51.15
54.00
54.21
51.86
47.25
40.77
32.92
24.28
15.51
7.30
0.30
-4.90
-7.89
-8.41
-6.50
-2.48
2.96
8.92
14.37
18.37
20.30
20.02
17.85
14.45
10.58
6.86
3.66
1.11
-0.85
-2.33
-3.41
-4.00
-3.96
-3.01
-0.95
2.33
6.67
11.66
16.64
20.84
23.59
24.47
23.44
20.80
17.08
12.85
8.55
4.46
0.67
-2.78
-5.80
-8.27
-9.97
-10.78
-10.69
-9.86
-8.48
-6.82
-5.12
-3.66
-2.70
-2.54
-3.41
-5.43
-8.52
-12.46
-16.98
-21.81
-26.74
-31.65
-36.46
-41.05
-45.21
-48.63
-50.86
-51.35
-49.63
-45.40
-38.77
-30.26
-20.72
-11.22
-2.69
4.16
9.09
12.13
13.56
13.74
13.05
11.87
10.56
9.48
8.95
9.16
10.11
11.72
13.75
16.00
18.28
20.47
22.49
24.20
25.46
26.07
25.87
24.78
22.87
20.37
17.51
14.55
11.66
8.92
6.33
3.87
1.52
-0.78
-3.04
-5.30
-7.51
-9.61
-11.48
-13.06
-14.36
-15.56
-16.82
-18.29
-20.01
-21.92
-23.87
-25.72
-27.38
-28.78
-29.87
-30.60
-30.91
-30.70
-29.81
-28.02
-24.98
-20.26
-13.44
-4.25
7.30
20.84
35.66
50.76
64.95
76.93
85.44
89.49
88.46
82.45
72.24
59.19
45.02
31.27
19.11
9.05
1.10
-5.19
-10.38
-15.07
-19.73
-24.67
-30.02
-35.62
-41.06
-45.64
-48.65
-49.47
-47.92
-44.26
-39.12
-33.29
-27.49
-22.10
-17.21
-12.72
-8.42
-4.25
-0.38
2.88
5.04
5.63
4.32
1.02
-4.03
-10.25
-16.85
-22.95
-27.73
-30.59
-31.25
-29.74
-26.43
-21.98
-17.08
-12.44
-8.55
-5.62
-3.61
-2.30
-1.46
-0.91
-0.59
-0.46
-0.47
-0.56
-0.70
-1.00
-1.66
-2.90
-4.77
-7.07
-9.31
-10.92
-11.51
-10.99
-9.63
-7.89
-6.25
-5.01
-4.26
-3.93
-3.80
-3.64
-3.12
-1.94
0.13
3.13
6.85
10.82
14.46
17.24
18.83
19.22
18.66
17.53
16.22
15.07
14.23
13.66
13.22
12.74
12.10
11.39
10.86
10.94
12.10
14.73
18.94
24.50
30.82
37.04
42.28
45.78
47.18
46.49
44.07
40.44
36.10
31.42
26.60
21.79
17.15
12.95
9.42
6.72
4.75
3.23
1.73
-0.11
-2.43
-5.09
-7.65
-9.55
-10.27
-9.46
-7.09
-3.46
0.79
4.75
7.44
7.98
5.87
1.08
-5.91
-14.28
-23.03
-31.32
-38.62
-44.81
-50.09
-54.81
-59.19
-63.22
-66.65
-69.16
-70.46
-70.42
-68.93
-65.85
-60.97
-54.03
-44.92
-33.94
-21.85
-9.80
0.97
9.42
14.97
17.50
17.34
15.19
11.85
8.09
4.53
1.60
-0.42
-1.33
-1.00
0.65
3.75
8.34
14.28
21.06
27.91
33.94
38.34
40.53
40.43
38.41
35.14
31.10
26.40
21.00
14.90
8.32
1.72
-4.27
-8.78
-10.87
-10.37
-7.70
-3.60
1.43
7.21
13.82
21.38
30.13
40.20
50.13
57.72
60.83
58.53
51.31
40.59
28.12
15.79
5.50
-2.77
-9.95
-17.51
-26.88
-39.75
-58.38
-85.12
-120.86
-157.10
-182.25
-186.44
-168.07
-133.36
-91.52
-51.34
-19.40
-0.14
10.74
18.56
29.18
47.76
77.55
118.80
168.76
220.26
264.62
294.71
305.29
294.93
266.28
225.82
182.51
145.58
122.16
115.60
124.46
141.81
158.37
166.11
161.19
144.81
121.63
97.05
75.22
57.99
44.53
33.11
22.49
12.46
3.17
-5.92
-16.48
-30.37
-48.33
-69.27
-90.32
-108.03
-119.90
-125.47
-126.27
-124.72
-122.67
-120.58
-117.87
-113.71
-107.91
-100.94
-93.60
-86.29
-78.90
-71.18
-63.35
-56.29
-51.23
-49.16
-50.28
-53.94
-59.08
-64.79
-70.70
-76.93
-83.68
-90.49
-95.86
-97.36
-92.46
-79.75
-60.18
-37.42
-16.87
-3.50
0.25
-4.60
-14.28
-24.22
-30.98
-33.07
-30.67
-24.71
-16.37
-7.19
0.59
4.24
1.66
-7.18
-19.61
-31.03
-36.97
-35.26
-27.21
-17.08
-10.29
-11.10
-21.03
-38.41
-58.97
-77.39
-89.08
-91.67
-85.58
-73.69
-59.99
-47.89
-39.15
-33.58
-29.76
-26.28
-22.65
-19.55
-18.36
-20.23
-25.36
-32.70
-40.21
-45.55
-46.77
-42.94
-34.33
-22.38
-9.36
2.10
9.70
11.81
7.81
-2.01
-16.42
-33.41
-50.38
-64.35
-72.64
-73.50
-66.76
-53.91
-37.71
-21.12
-6.52
4.90
13.26
19.50
24.76
29.77
34.61
38.67
41.09
41.19
38.89
34.73
29.78
25.21
21.87
20.11
19.79
20.44
21.51
22.55
23.23
23.42
23.14
22.49
21.60
20.47
18.96
16.79
13.72
9.70
4.86
-0.56
-6.36
-12.54
-19.32
-26.98
-35.67
-45.25
-55.31
-65.23
-74.25
-81.50
-86.01
-86.78
-82.91
-73.98
-60.26
-42.80
-23.35
-3.89
13.71
28.06
38.44
44.90
48.18
49.48
50.19
51.46
53.86
57.35
61.41
65.58
69.67
73.78
78.10
82.46
86.20
88.32
87.89
84.48
78.29
70.01
60.40
50.08
39.37
28.53
17.82
7.62
-1.71
-10.06
-17.63
-24.91
-32.32
-40.03
-47.76
-54.82
-60.40
-63.85
-64.96
-64.06
-62.01
-59.81
-58.36
-57.90
-58.03
-57.80
-56.03
-51.56
-43.71
-32.41
-18.33
-2.61
13.55
29.05
42.95
54.64
63.85
70.66
75.43
78.60
80.75
82.76
85.33
88.72
92.58
96.23
98.86
99.80
98.67
95.66
92.31
89.90
88.48
86.46
81.24
70.16
51.28
23.89
-10.65
-47.37
-80.66
-106.10
-121.49
-126.42
-121.62
-108.81
-90.90
-70.31
-46.13
-17.33
15.87
51.70
88.21
124.29
158.91
189.72
214.31
233.69
248.75
259.87
267.63
274.70
286.15
306.75
337.59
352.15
331.27
273.23
194.69
115.47
47.81
-3.50
-34.12
-50.96
-58.42
-55.65
-42.51
-21.88
0.41
16.45
21.90
16.01
-0.29
-23.76
-48.47
-69.79
-85.47
-95.59
-101.11
-102.85
-102.54
-103.65
-108.80
-117.44
-126.86
-133.23
-133.00
-123.82
-104.77
-77.11
-44.44
-10.78
20.39
45.55
60.92
63.15
50.75
25.68
-6.68
-38.98
-63.63
-75.32
-72.89
-59.26
-39.93
-20.61
-5.31
4.08
7.40
5.68
0.41
-6.59
-13.29
-17.74
-18.56
-15.37
-8.85
-0.14
9.79
20.25
30.59
39.58
45.19
45.06
37.57
22.80
2.67
-19.97
-42.72
-64.61
-86.13
-108.35
-131.74
-155.61
-178.32
-197.77
-211.95
-219.02
-217.44
-206.38
-186.44
-160.06
-131.27
-104.64
-83.80
-70.41
-64.10
-63.03
-64.78
-67.07
-67.94
-65.89
-60.16
-51.13
-40.80
-32.78
-31.23
-39.18
-57.29
-83.31
-112.88
-141.12
-164.16
-180.02
-188.73
-191.42
-189.25
-182.93
-172.71
-158.85
-141.98
-122.56
-100.65
-76.35
-50.02
-22.89
2.57
22.95
35.43
39.33
37.85
37.35
43.60
59.71
84.74
114.23
142.15
163.68
176.18
180.54
179.66
174.66
165.36
151.44
133.71
114.04
94.94
77.33
61.74
48.15
33.93
16.38
-5.81
-32.29
-62.36
-94.93
-130.13
-166.17
-185.92
-175.71
-134.57
-76.12
-17.64
25.34
55.81
77.95
94.57
106.45
109.27
98.36
72.52
36.35
-1.16
-29.21
-40.91
-33.77
-10.29
21.40
52.08
75.32
89.52
96.86
101.27
104.73
107.82
109.99
109.06
103.52
93.49
80.97
68.55
58.45
51.00
45.75
42.10
39.08
36.14
33.34
31.22
30.26
30.51
31.17
31.30
30.28
27.83
24.24
20.26
16.70
14.07
12.30
10.66
8.24
4.29
-1.66
-9.72
-19.73
-31.24
-43.42
-55.02
-64.45
-70.04
-70.47
-65.19
-54.62
-40.11
-23.61
-7.10
7.75
19.89
28.93
34.99
38.53
40.11
40.28
39.47
38.05
36.31
34.49
32.73
31.01
29.25
27.32
25.18
22.92
20.69
18.66
16.87
15.19
13.42
11.47
9.43
7.62
6.36
5.80
5.83
6.01
5.91
5.13
3.61
1.49
-0.89
-3.28
-5.51
-7.59
-9.71
-12.21
-15.57
-20.24
-26.41
-33.67
-40.96
-46.67
-49.07
-46.84
-39.46
-27.41
-11.97
5.06
21.75
36.30
47.17
53.19
53.79
49.09
40.01
28.11
15.29
3.37
-6.17
-12.35
-14.71
-13.20
-8.22
-0.56
8.67
18.09
26.29
32.05
34.41
32.74
26.95
17.52
5.71
-6.56
-17.02
-23.68
-25.38
-22.20
-15.31
-6.61
1.84
8.32
11.74
11.73
8.70
3.60
-2.24
-7.45
-10.99
-12.45
-12.25
-11.30
-10.77
-11.44
-13.40
-15.91
-17.62
-17.07
-13.23
-5.81
4.68
17.15
30.30
42.81
53.55
61.59
66.40
68.00
67.10
64.97
63.08
62.61
64.09
67.32
71.61
76.13
80.19
83.24
84.69
83.79
79.68
71.64
59.50
43.91
26.27
8.51
-7.54
-20.68
-30.63
-37.99
-43.84
-49.08
-54.01
-58.16
-60.50
-60.11
-56.77
-51.29
-45.26
-40.48
-38.22
-38.84
-41.75
-45.75
-49.56
-52.18
-53.09
-52.29
-50.09
-47.00
-43.55
-39.95
-35.95
-30.78
-23.40
-12.86
1.15
18.29
37.60
57.83
77.84
96.71
113.65
127.67
137.26
140.28
134.28
117.36
89.06
51.09
7.18
-37.72
-78.70
-112.15
-136.44
-151.82
-159.77
-162.11
-160.36
-155.51
-148.21
-138.88
-128.04
-116.20
-103.90
-91.72
-80.27
-70.18
-61.92
-55.64
-51.00
-47.27
-43.50
-38.91
-33.09
-26.08
-18.09
-9.32
0.19
10.49
21.43
32.48
42.75
51.20
56.98
59.77
59.77
57.68
54.57
51.61
49.89
50.35
53.54
59.69
68.54
79.40
91.08
102.14
111.09
116.69
118.23
115.66
109.59
101.08
91.47
81.94
73.37
66.06
59.84
54.19
48.47
42.29
35.53
28.43
21.43
14.97
9.39
4.89
1.50
-0.92
-2.77
-4.70
-7.61
-12.46
-19.98
-30.35
-43.12
-57.26
-71.58
-85.02
-97.01
-107.41
-116.36
-123.97
-130.18
-134.83
-137.78
-139.10
-139.04
-137.80
-135.33
-131.17
-124.60
-114.95
-101.98
-86.06
-68.15
-49.54
-31.54
-15.17
-1.10
10.40
19.30
25.69
29.79
31.84
32.21
31.38
29.86
28.17
26.75
25.80
25.28
25.00
24.65
24.08
23.29
22.46
21.78
21.41
21.32
21.36
21.34
21.08
20.59
19.97
19.41
18.98
18.62
18.11
17.16
15.55
13.14
10.01
6.34
2.35
-1.82
-6.14
-10.74
-15.81
-21.50
-27.90
-34.90
-42.11
-48.84
-54.07
-56.66
-55.63
-50.52
-41.53
-29.68
-16.54
-3.86
6.89
14.84
19.81
22.24
22.91
22.57
21.77
20.66
19.23
17.39
15.18
12.86
10.78
9.34
8.72
8.89
9.65
10.78
12.06
13.45
14.92
16.51
18.12
19.51
20.34
20.20
18.82
16.18
12.55
8.39
4.25
0.52
-2.65
-5.34
-7.73
-10.00
-12.25
-14.47
-16.68
-18.89
-21.13
-23.48
-25.93
-28.53
-31.36
-34.60
-38.38
-42.62
-46.82
-50.00
-50.94
-48.54
-42.34
-32.74
-20.89
-8.38
3.32
13.12
20.52
25.37
27.83
28.15
26.68
23.92
20.38
16.54
12.70
9.05
5.66
2.80
0.87
0.35
1.51
4.33
8.37
12.97
17.49
21.40
24.34
26.10
26.46
25.31
22.72
19.06
14.95
11.17
8.38
6.90
6.65
7.17
7.95
8.56
8.88
9.02
9.24
9.73
10.43
11.00
10.84
9.33
6.06
0.99
-5.40
-12.16
-17.98
-21.44
-21.35
-17.10
-8.81
2.54
15.43
28.07
38.96
47.11
52.17
54.39
54.23
52.18
48.64
43.86
38.17
31.92
25.54
19.52
14.25
10.02
6.98
5.19
4.62
5.21
6.81
9.12
11.69
13.94
15.26
15.18
13.55
10.60
6.94
3.24
0.06
-2.42
-4.45
-6.53
-9.15
-12.53
-16.51
-20.59
-24.16
-26.72
-28.10
-28.49
-28.36
-28.31
-28.83
-30.10
-31.86
-33.43
-33.81
-32.09
-27.65
-20.43
-10.95
-0.19
10.73
20.81
29.34
35.96
40.58
43.21
43.97
43.11
41.09
38.59
36.50
35.62
36.44
38.94
42.59
46.70
50.51
53.63
56.00
57.86
59.58
61.59
64.28
67.80
71.85
75.26
76.20
72.65
63.21
47.84
28.11
6.65
-13.83
-31.40
-45.40
-56.21
-64.59
-71.16
-76.19
-79.68
-81.70
-82.51
-82.45
-81.86
-80.96
-79.83
-78.58
-77.23
-75.76
-73.94
-71.37
-67.53
-62.01
-54.68
-45.79
-35.91
-25.75
-16.07
-7.48
-0.46
4.77
8.12
9.73
10.00
9.45
8.72
8.36
8.66
9.66
11.18
12.89
14.44
15.64
16.39
16.75
16.90
16.96
17.03
17.07
16.94
16.39
15.16
13.07
10.14
6.65
3.00
-0.36
-3.14
-5.16
-6.53
-7.49
-8.30
-9.22
-10.38
-11.88
-13.71
-15.81
-18.04
-20.21
-22.15
-23.81
-25.31
-26.97
-29.24
-32.50
-36.83
-41.84
-46.57
-49.71
-49.92
-46.29
-38.54
-27.30
-13.86
0.17
13.17
23.97
31.96
37.08
39.62
40.10
38.98
36.71
33.75
30.59
27.73
25.50
23.98
22.78
21.30
18.85
15.06
9.97
4.06
-1.83
-6.76
-9.84
-10.54
-8.79
-5.19
-0.88
2.72
4.37
3.48
0.25
-4.40
-9.29
-13.44
-16.50
-18.83
-21.28
-24.87
-30.32
-37.89
-47.18
-57.35
-67.26
-75.85
-82.32
-86.36
-88.07
-87.94
-86.62
-84.68
-82.35
-79.34
-74.97
-68.33
-58.77
-46.19
-31.21
-15.07
0.75
14.90
26.44
34.91
40.37
43.21
44.05
43.65
42.78
42.14
42.17
43.10
44.89
47.35
50.27
53.49
56.88
60.24
63.33
65.73
67.03
66.90
65.19
61.97
57.47
52.05
46.09
40.00
34.17
28.92
24.45
20.74
17.54
14.48
11.21
7.59
3.65
-0.35
-4.23
-7.97
-11.78
-16.02
-21.13
-27.40
-34.87
-43.35
-52.35
-61.23
-69.24
-75.82
-80.66
-83.88
-86.04
-87.86
-89.84
-91.93
-93.40
-92.96
-89.28
-81.40
-69.17
-53.39
-35.67
-18.00
-2.25
10.28
19.09
24.43
27.06
27.93
27.91
27.66
27.62
28.09
29.33
31.64
35.40
41.07
49.03
59.47
72.15
86.16
99.90
111.45
118.99
121.51
119.09
112.87
104.58
95.87
87.67
80.02
72.33
63.88
54.32
43.98
33.61
24.14
16.15
9.77
4.69
0.53
-3.00
-5.99
-8.46
-10.53
-12.45
-14.57
-17.21
-20.48
-24.23
-28.18
-32.06
-35.76
-39.34
-42.88
-46.23
-48.84
-49.84
-48.19
-43.16
-34.62
-23.14
-9.94
3.44
15.55
25.32
32.20
36.11
37.39
36.55
34.27
31.17
27.80
24.59
21.90
19.99
18.97
18.89
19.61
20.94
22.63
24.49
26.36
28.09
29.42
30.01
29.49
27.59
24.33
20.03
15.20
10.38
5.94
1.98
-1.62
-5.11
-8.65
-12.26
-15.82
-19.13
-22.10
-24.72
-27.16
-29.65
-32.48
-35.86
-39.89
-44.42
-49.00
-52.81
-54.80
-53.92
-49.44
-41.25
-29.98
-16.86
-3.45
8.76
18.67
25.77
30.07
31.99
32.11
30.98
29.11
26.90
24.78
23.08
22.09
21.95
22.60
23.88
25.57
27.52
29.61
31.73
33.59
34.78
34.80
33.21
29.87
24.91
18.77
11.99
5.11
-1.49
-7.60
-13.16
-18.27
-23.08
-27.83
-32.73
-37.92
-43.30
-48.59
-53.33
-57.05
-59.38
-60.20
-59.67
-58.28
-56.63
-55.39
-55.07
-55.86
-57.49
-59.13
-59.48
-57.01
-50.43
-39.03
-23.07
-3.74
17.10
37.31
55.06
69.15
79.10
85.07
87.61
87.36
84.89
80.66
75.06
68.51
61.48
54.49
47.98
42.18
37.09
32.47
28.01
23.41
18.49
13.26
7.86
2.51
-2.63
-7.44
-11.94
-16.12
-19.95
-23.35
-26.16
-28.25
-29.54
-30.05
-29.91
-29.30
-28.39
-27.37
-26.43
-25.69
-25.26
-25.06
-24.94
-24.74
-24.37
-23.95
-23.82
-24.40
-26.06
-29.01
-33.09
-37.74
-42.01
-44.82
-45.04
-41.93
-35.24
-25.31
-13.06
0.28
13.35
24.93
33.97
39.79
42.01
40.69
36.32
29.73
22.19
14.93
8.93
4.67
2.22
1.17
0.94
1.08
1.69
3.38
6.91
12.53
19.69
27.13
33.22
36.70
37.33
36.11
35.12
36.15
39.79
44.90
49.35
50.54
46.45
36.70
22.69
7.79
-4.73
-13.06
-17.34
-18.78
-19.56
-22.80
-31.19
-46.20
-66.30
-88.76
-109.80
-124.37
-125.36
-107.70
-72.33
-27.24
14.86
43.59
53.03
44.29
24.88
7.62
2.73
13.10
36.16
68.20
110.04
162.36
222.01
280.10
326.72
351.66
346.62
311.23
239.34
145.72
59.25
10.61
0.10
20.65
65.01
122.82
183.78
239.61
286.99
322.18
340.06
335.83
310.68
268.89
210.17
135.82
51.11
-33.56
-110.31
-177.20
-237.41
-293.55
-347.97
-409.99
-485.88
-574.55
-666.70
-752.41
-825.53
-884.27
-927.66
-910.21
-809.38
-639.28
-443.26
-261.63
-113.79
-1.42
81.35
142.62
188.85
216.67
222.79
208.84
183.24
155.41
131.96
115.71
107.09
104.68
100.12
85.98
59.41
22.45
-21.54
-67.01
-109.54
-143.74
-163.29
-166.33
-153.37
-126.78
-90.65
-50.83
-13.43
16.89
38.69
53.19
61.04
63.32
61.98
59.78
59.04
60.95
65.33
71.83
80.41
90.70
101.96
113.03
122.47
129.22
133.99
139.66
150.79
171.68
204.14
246.38
293.66
340.18
380.85
412.41
432.99
441.54
437.13
418.90
386.51
341.02
285.37
224.40
164.00
109.52
64.32
28.84
0.77
-23.74
-48.20
-74.38
-101.77
-127.97
-149.99
-165.47
-173.47
-174.61
-170.56
-163.30
-154.40
-144.63
-133.99
-122.16
-109.00
-94.92
-81.02
-68.93
-60.57
-57.66
-61.22
-71.13
-86.11
-103.94
-122.05
-138.19
-150.99
-159.99
-165.44
-167.72
-166.97
-162.93
-155.14
-143.18
-126.98
-106.94
-83.89
-59.03
-33.94
-10.25
10.63
27.62
40.19
48.24
51.99
52.01
49.15
44.47
39.14
34.26
30.68
28.83
28.68
29.85
31.83
34.12
36.31
38.16
39.41
39.78
38.98
36.83
33.35
28.81
23.66
18.33
13.15
8.22
3.45
-1.28
-5.99
-10.57
-14.69
-17.99
-20.14
-21.04
-21.01
-20.69
-21.01
-22.95
-27.16
-33.67
-41.72
-49.78
-55.92
-58.26
-55.56
-47.57
-35.14
-19.98
-4.11
10.59
22.88
32.31
39.06
43.74
46.99
49.26
50.74
51.48
51.46
50.71
49.34
47.47
45.24
42.80
40.30
37.98
36.06
34.73
34.01
33.79
33.75
33.53
32.79
31.34
29.18
26.46
23.50
20.64
18.13
16.06
14.38
12.85
11.23
9.20
6.53
3.00
-1.48
-6.83
-12.78
-18.89
-24.69
-29.75
-33.95
-37.46
-40.66
-44.11
-48.30
-53.50
-59.62
-66.00
-71.39
-74.23
-73.05
-66.97
-56.03
-41.32
-24.68
-8.17
6.42
17.96
25.99
30.69
32.58
32.26
30.25
26.89
22.38
16.84
10.40
3.32
-4.00
-11.05
-17.32
-22.37
-25.81
-27.45
-27.20
-25.26
-22.07
-18.34
-14.88
-12.45
-11.53
-12.19
-14.09
-16.62
-19.07
-20.89
-21.81
-21.83
-21.13
-19.91
-18.29
-16.38
-14.32
-12.34
-10.76
-9.87
-9.87
-10.82
-12.61
-15.00
-17.69
-20.30
-22.44
-23.84
-24.44
-24.46
-24.25
-24.03
-23.66
-22.52
-19.73
-14.33
-5.84
5.66
19.41
34.15
48.55
61.52
72.52
81.68
89.69
97.45
105.64
114.48
123.59
132.27
139.75
145.62
150.00
153.55
157.30
162.43
169.82
179.57
190.56
200.27
205.21
201.93
188.24
164.15
132.18
96.69
62.68
34.54
15.13
5.51
5.18
12.48
25.03
40.18
55.48
69.02
79.83
87.85
93.72
98.29
101.97
104.43
104.42
99.90
88.53
68.39
38.77
0.73
-42.76
-87.09
-127.03
-158.02
-177.49
-185.70
-185.61
-181.81
-178.73
-179.03
-182.84
-188.14
-192.29
-193.50
-191.87
-189.01
-186.95
-186.86
-188.46
-190.58
-192.15
-193.23
-195.12
-199.65
-207.94
-219.52
-231.96
-241.84
-245.95
-242.55
-231.73
-215.08
-194.74
-172.49
-149.38
-125.87
-102.28
-79.02
-56.75
-36.00
-17.09
-0.05
15.18
28.47
39.34
47.10
51.10
51.02
47.11
40.14
31.48
22.91
16.41
13.80
16.29
24.22
36.88
52.67
69.57
85.55
99.07
109.19
115.58
118.31
117.74
114.36
108.78
101.71
93.86
85.98
78.69
72.54
67.87
64.88
63.51
63.44
64.12
64.90
65.23
64.74
63.35
61.16
58.34
54.98
51.08
46.67
41.84
36.79
31.82
27.11
22.70
18.41
13.88
8.71
2.57
-4.70
-13.10
-22.36
-31.90
-40.79
-47.80
-51.60
-51.06
-45.61
-35.57
-22.14
-7.17
7.31
19.58
28.62
34.13
36.51
36.39
34.41
31.10
26.83
21.99
17.13
12.94
10.10
9.08
9.91
12.12
14.91
17.35
18.73
18.68
17.35
15.18
12.70
10.20
7.63
4.56
0.53
-4.72
-10.98
-17.59
-23.77
-28.92
-32.97
-36.36
-39.82
-44.16
-49.81
-56.69
-64.06
-70.57
-74.54
-74.36
-68.94
-58.12
-42.81
-24.79
-6.20
10.95
25.28
36.19
43.84
48.78
51.77
53.48
54.46
55.07
55.52
55.90
56.23
56.46
56.50
56.23
55.48
54.15
52.17
49.54
46.27
42.40
37.95
33.03
27.80
22.48
17.27
12.25
7.27
2.14
-3.36
-9.29
-15.51
-21.72
-27.64
-33.05
-37.95
-42.57
-47.27
-52.53
-58.80
-66.14
-74.02
-81.20
-85.83
-85.99
-80.26
-68.32
-51.11
-30.68
-9.51
10.05
26.37
38.71
47.21
52.53
55.55
57.09
57.76
57.95
57.87
57.62
57.25
56.77
56.16
55.39
54.43
53.31
52.12
50.99
49.98
49.12
48.30
47.31
45.95
44.04
41.51
38.42
34.94
31.18
27.20
22.96
18.40
13.55
8.52
3.50
-1.35
-6.00
-10.60
-15.34
-20.43
-25.92
-31.67
-37.46
-43.05
-48.26
-53.10
-57.69
-62.35
-67.53
-73.68
-80.96
-88.97
-96.54
-101.89
-102.99
-98.22
-86.96
-69.92
-48.98
-26.68
-5.58
12.35
26.07
35.44
41.12
44.13
45.54
46.26
46.85
47.61
48.58
49.70
50.79
51.67
52.16
52.16
51.72
51.05
50.39
49.98
49.82
49.71
49.30
48.21
46.22
43.29
39.63
35.58
31.50
27.62
23.99
20.48
16.87
12.96
8.71
4.24
-0.19
-4.35
-8.20
-11.89
-15.73
-20.06
-25.03
-30.57
-36.39
-42.06
-47.23
-51.77
-55.75
-59.57
-63.78
-68.96
-75.41
-82.92
-90.55
-96.66
-99.22
-96.37
-87.12
-71.69
-51.63
-29.37
-7.59
11.47
26.45
36.99
43.58
47.09
48.59
48.96
48.89
48.79
48.91
49.27
49.83
50.46
50.96
51.21
51.19
50.94
50.58
50.26
50.04
49.82
49.40
48.49
46.82
44.26
40.88
36.91
32.70
28.59
24.83
21.51
18.59
15.93
13.29
10.44
7.21
3.51
-0.58
-4.83
-8.92
-12.63
-15.89
-18.84
-21.83
-25.23
-29.29
-34.03
-39.28
-44.63
-49.71
-54.27
-58.26
-62.02
-66.04
-70.93
-77.12
-84.54
-92.34
-98.98
-102.44
-100.81
-92.94
-78.80
-59.70
-37.84
-15.81
4.13
20.46
32.56
40.57
45.19
47.36
47.98
47.81
47.40
47.02
46.79
46.73
46.82
46.99
47.22
47.41
47.57
47.73
47.95
48.32
48.81
49.23
49.19
48.26
46.14
42.79
38.50
33.78
29.17
25.09
21.60
18.49
15.34
11.79
7.68
3.16
-1.43
-5.66
-9.26
-12.26
-14.91
-17.68
-21.02
-25.20
-30.28
-36.03
-42.02
-47.74
-52.78
-56.98
-60.52
-63.94
-67.98
-73.30
-80.06
-87.62
-94.52
-98.71
-98.17
-91.55
-78.71
-60.78
-39.87
-18.54
0.92
16.93
28.80
36.57
40.83
42.35
41.93
40.30
38.08
35.82
33.98
32.86
32.54
32.93
33.80
34.93
36.20
37.53
38.93
40.31
41.52
42.22
42.14
41.01
38.76
35.49
31.50
27.15
22.76
18.56
14.53
10.55
6.45
2.19
-2.09
-6.14
-9.74
-12.91
-15.88
-19.07
-22.86
-27.39
-32.46
-37.70
-42.67
-47.13
-51.19
-55.25
-59.92
-65.71
-72.78
-80.60
-87.95
-93.08
-94.08
-89.49
-78.75
-62.52
-42.51
-21.09
-0.72
16.68
29.91
38.70
43.47
45.14
44.81
43.54
42.14
41.07
40.45
40.21
40.21
40.38
40.70
41.16
41.74
42.37
43.02
43.73
44.56
45.52
46.41
46.86
46.37
44.59
41.44
37.23
32.51
27.87
23.70
20.09
16.83
13.54
9.91
5.80
1.40
-2.96
-6.92
-10.28
-13.16
-15.95
-19.20
-23.31
-28.42
-34.20
-40.13
-45.62
-50.35
-54.38
-58.17
-62.42
-67.74
-74.43
-82.13
-89.82
-95.89
-98.48
-96.00
-87.50
-73.17
-54.28
-33.02
-11.89
6.84
21.63
31.93
38.04
40.84
41.42
40.78
39.70
38.67
38.05
38.04
38.76
40.15
42.00
43.99
45.76
47.08
47.93
48.46
48.91
49.37
49.73
49.69
48.84
46.91
43.90
40.07
35.91
31.89
28.32
25.30
22.65
20.11
17.39
14.30
10.79
6.97
3.07
-0.72
-4.24
-7.50
-10.65
-13.98
-17.78
-22.26
-27.44
-33.10
-38.93
-44.54
-49.66
-54.21
-58.41
-62.71
-67.71
-73.84
-81.00
-88.34
-94.22
-96.62
-93.72
-84.61
-69.64
-50.37
-29.11
-8.34
9.91
24.39
34.63
40.80
43.53
43.68
42.21
40.03
37.84
36.11
35.05
34.65
34.78
35.28
36.09
37.19
38.63
40.37
42.27
44.06
45.38
45.86
45.25
43.45
40.56
36.84
32.61
28.19
23.77
19.40
15.05
10.68
6.29
2.03
-1.95
-5.53
-8.70
-11.62
-14.61
-17.95
-21.78
-26.07
-30.58
-34.97
-38.98
-42.48
-45.69
-49.11
-53.35
-58.87
-65.78
-73.51
-80.85
-86.14
-87.60
-83.89
-74.49
-59.90
-41.58
-21.59
-2.16
14.88
28.32
37.72
43.26
45.49
45.17
43.10
40.05
36.76
33.85
31.79
30.85
31.05
32.23
34.08
36.26
38.42
40.33
41.71
42.40
42.25
41.19
39.26
36.52
33.11
29.19
24.94
20.47
15.89
11.31
6.82
2.57
-1.43
-5.20
-8.88
-12.72
-16.93
-21.63
-26.77
-32.17
-37.52
-42.63
-47.43
-52.03
-56.68
-61.78
-67.72
-74.71
-82.53
-90.31
-96.56
-99.36
-96.96
-88.39
-73.84
-54.77
-33.49
-12.56
5.90
20.55
30.99
37.57
41.11
42.65
43.10
43.18
43.29
43.61
44.19
45.03
46.18
47.63
49.42
51.39
53.42
55.34
57.02
58.37
59.29
59.60
59.04
57.34
54.32
50.02
44.76
39.05
33.51
28.63
24.61
21.29
18.24
14.94
11.08
6.70
2.12
-2.27
-6.18
-9.67
-13.07
-16.79
-21.23
-26.47
-32.31
-38.33
-44.07
-49.19
-53.62
-57.55
-61.42
-65.82
-71.30
-78.18
-86.30
-94.75
-101.90
-105.69
-104.10
-95.87
-81.03
-60.98
-38.19
-15.52
4.58
20.59
32.04
39.37
43.50
45.44
46.06
46.00
45.67
45.44
45.55
46.23
47.52
49.36
51.47
53.51
55.21
56.47
57.41
58.24
59.12
59.94
60.39
60.02
58.54
55.83
52.12
47.83
43.37
39.06
35.03
31.25
27.55
23.71
19.60
15.10
10.28
5.33
0.54
-3.80
-7.53
-10.79
-13.99
-17.63
-22.13
-27.58
-33.72
-39.98
-45.82
-50.93
-55.40
-59.69
-64.38
-70.01
-76.82
-84.64
-92.74
-99.85
-104.28
-104.26
-98.42
-86.35
-68.81
-47.68
-25.49
-4.74
12.69
25.83
34.65
39.78
42.12
42.56
41.88
40.66
39.33
38.24
37.62
37.65
38.36
39.70
41.51
43.58
45.72
47.75
49.53
50.93
51.80
51.93
51.14
49.30
46.42
42.67
38.32
33.67
28.94
24.27
19.65
15.03
10.42
5.86
1.45
-2.77
-6.93
-11.24
-15.97
-21.29
-27.15
-33.29
-39.26
-44.72
-49.50
-53.76
-57.97
-62.74
-68.64
-75.88
-84.09
-92.15
-98.30
-100.52
-97.07
-87.15
-71.18
-50.89
-28.74
-7.34
11.25
25.83
36.17
42.69
46.13
47.33
47.00
45.79
44.33
43.13
42.62
43.00
44.17
45.78
47.42
48.79
49.79
50.56
51.33
52.17
52.95
53.32
52.81
51.11
48.13
44.04
39.23
34.10
29.07
24.37
20.14
16.28
12.60
8.81
4.71
0.24
-4.40
-8.88
-12.93
-16.52
-19.90
-23.49
-27.73
-32.82
-38.63
-44.73
-50.55
-55.67
-59.96
-63.70
-67.49
-72.14
-78.25
-85.99
-94.71
-102.92
-108.51
-109.30
-103.67
-91.18
-72.77
-50.57
-27.31
-5.59
12.71
26.72
36.50
42.77
46.57
48.91
50.61
52.19
53.90
55.76
57.65
59.39
60.79
61.74
62.28
62.56
62.79
63.20
63.92
64.88
65.84
66.40
66.10
64.64
61.88
57.91
53.05
47.70
42.29
37.08
32.21
27.61
23.12
18.59
13.92
9.14
4.40
-0.09
-4.24
-8.10
-11.90
-15.95
-20.50
-25.64
-31.24
-36.99
-42.58
-47.74
-52.46
-56.94
-61.63
-67.13
-73.88
-81.94
-90.67
-98.63
-103.83
-104.24
-98.40
-86.04
-68.15
-46.80
-24.57
-3.85
13.59
26.83
35.74
40.78
42.68
42.27
40.34
37.61
34.63
31.89
29.78
28.58
28.42
29.25
30.84
32.90
35.13
37.29
39.15
40.44
40.89
40.21
38.23
35.03
30.92
26.31
21.58
16.91
12.24
7.43
2.29
-3.25
-9.09
-15.04
-20.88
-26.40
-31.50
-36.27
-41.03
-46.25
-52.45
-59.91
-68.36
-76.80
-83.53
-86.48
-83.91
-74.95
-60.04
-40.93
-20.12
-0.20
16.82
29.93
39.03
44.67
47.64
48.68
48.29
46.89
44.88
42.74
40.99
40.05
40.12
41.11
42.71
44.45
45.99
47.13
47.83
48.16
48.13
47.59
46.24
43.72
39.73
34.25
27.58
20.25
13.00
6.40
0.78
-3.94
-8.14
-12.41
-17.22
-22.80
-29.07
-35.62
-41.98
-47.75
-52.76
-57.12
-61.23
-65.66
-71.02
-77.70
-85.60
-93.99
-101.42
-105.95
-105.63
-99.08
-86.00
-67.41
-45.45
-22.73
-1.83
15.40
28.15
36.59
41.62
44.46
46.27
47.86
49.63
51.62
53.68
55.63
57.41
59.00
60.43
61.71
62.77
63.57
64.12
64.49
64.78
64.96
64.87
64.18
62.58
59.79
55.80
50.74
44.94
38.84
32.81
27.16
21.99
17.27
12.69
7.93
2.70
-3.07
-9.24
-15.48
-21.48
-27.08
-32.31
-37.42
-42.66
-48.31
-54.56
-61.59
-69.50
-78.22
-87.47
-96.76
-105.60
-113.75
-121.49
-129.35
-137.83
-146.86
-155.59
-162.36
-165.07
-161.79
-151.29
-133.53
-109.74
-82.20
-53.74
-27.06
-4.13
14.17
28.03
38.36
46.38
53.26
59.81
66.50
73.36
80.10
86.18
91.05
94.38
96.29
97.38
98.54
100.80
105.12
111.89
120.41
128.39
132.03
126.89
109.60
79.65
40.36
-1.48
-37.65
-60.95
-67.35
-56.55
-31.26
4.38
46.28
90.94
135.44
176.92
212.63
240.38
259.20
269.80
274.36
275.71
276.19
276.81
276.95
275.00
269.27
258.82
243.71
224.60
202.25
177.06
149.28
119.59
89.62
61.86
38.93
22.57
12.80
8.02
5.69
3.50
0.14
-4.60
-10.29
-16.54
-23.32
-30.91
-39.47
-48.77
-58.18
-67.00
-74.71
-81.09
-86.09
-89.63
-91.43
-91.08
-88.39
-83.60
-77.47
-71.11
-65.72
-62.17
-60.89
-61.84
-64.69
-69.01
-74.51
-81.05
-88.61
-97.22
-106.70
-116.61
-126.21
-134.57
-140.79
-144.28
-144.90
-142.99
-139.22
-134.42
-129.28
-124.33
-119.85
-115.87
-112.34
-109.14
-106.16
-103.37
-100.89
-98.90
-97.70
-97.45
-98.02
-98.78
-98.64
-96.27
-90.54
-80.87
-67.63
-52.03
-35.81
-20.79
-8.36
0.84
6.80
10.04
11.32
11.33
10.64
9.66
8.66
7.81
7.26
7.08
7.32
7.99
9.02
10.28
11.67
13.12
14.58
15.95
17.06
17.68
17.54
16.46
14.52
12.02
9.37
6.93
4.82
2.92
0.97
-1.23
-3.74
-6.38
-8.94
-11.26
-13.30
-15.18
-17.02
-18.92
-20.92
-23.02
-25.21
-27.55
-30.05
-32.68
-35.35
-37.88
-40.26
-42.60
-45.15
-48.15
-51.59
-55.11
-57.93
-59.04
-57.41
-52.35
-43.75
-32.14
-18.64
-4.68
8.30
19.15
27.25
32.48
35.15
35.84
35.16
33.66
31.80
29.88
28.11
26.61
25.42
24.53
23.90
23.51
23.32
23.31
23.42
23.53
23.53
23.29
22.68
21.64
20.11
18.10
15.64
12.85
9.91
7.02
4.35
1.94
-0.24
-2.36
-4.55
-6.84
-9.15
-11.28
-13.07
-14.44
-15.52
-16.58
-17.94
-19.79
-22.10
-24.66
-27.16
-29.33
-31.12
-32.67
-34.31
-36.38
-39.11
-42.53
-46.45
-50.33
-53.33
-54.39
-52.47
-46.88
-37.62
-25.46
-11.79
1.73
13.64
22.95
29.31
32.87
34.12
33.66
32.04
29.79
27.33
25.05
23.25
22.18
21.93
22.43
23.45
24.64
25.67
26.33
26.58
26.52
26.31
25.96
25.37
24.32
22.61
20.23
17.35
14.30
11.44
8.96
6.88
5.00
3.14
1.11
-1.11
-3.44
-5.75
-7.95
-9.98
-11.88
-13.78
-15.85
-18.28
-21.11
-24.21
-27.31
-30.09
-32.33
-34.02
-35.43
-37.03
-39.29
-42.50
-46.59
-51.02
-54.79
-56.59
-55.16
-49.66
-40.05
-27.15
-12.48
2.12
15.01
25.11
32.03
35.93
37.30
36.74
34.83
32.11
29.15
26.39
24.21
22.80
22.17
22.16
22.52
23.03
23.52
23.96
24.34
24.70
24.98
25.02
24.61
23.56
21.76
19.33
16.47
13.55
10.87
8.58
6.67
4.96
3.22
1.24
-1.05
-3.57
-6.10
-8.40
-10.30
-11.76
-12.93
-14.11
-15.62
-17.67
-20.23
-23.10
-25.93
-28.48
-30.71
-32.87
-35.38
-38.68
-42.88
-47.69
-52.26
-55.36
-55.69
-52.21
-44.55
-33.22
-19.46
-4.95
8.62
19.96
28.40
33.84
36.57
37.10
36.01
33.85
31.15
28.34
25.81
23.74
22.22
21.20
20.64
20.51
20.83
21.60
22.77
24.22
25.67
26.80
27.28
26.88
25.53
23.33
20.46
17.16
13.66
10.12
6.61
3.20
-0.09
-3.20
-6.11
-8.74
-11.10
-13.23
-15.20
-17.12
-19.05
-21.04
-23.03
-24.96
-26.77
-28.49
-30.24
-32.20
-34.60
-37.58
-41.14
-45.01
-48.53
-50.71
-50.38
-46.54
-38.68
-27.13
-13.05
1.78
15.53
26.68
34.48
38.93
40.59
40.25
38.59
36.13
33.16
29.98
26.96
24.54
23.10
22.83
23.57
24.90
26.30
27.30
27.72
27.65
27.28
26.79
26.21
25.42
24.18
22.33
19.80
16.72
13.35
10.04
7.09
4.66
2.72
1.04
-0.71
-2.84
-5.50
-8.65
-12.09
-15.51
-18.68
-21.48
-23.96
-26.25
-28.64
-31.39
-34.83
-39.09
-44.07
-49.25
-53.68
-56.13
-55.37
-50.60
-41.75
-29.58
-15.60
-1.60
10.75
20.33
26.71
30.09
31.03
30.27
28.37
25.78
22.83
19.83
17.14
15.11
13.98
13.80
14.40
15.51
16.85
18.27
19.72
21.19
22.56
23.61
24.04
23.61
22.23
20.06
17.42
14.62
11.90
9.32
6.80
4.14
1.17
-2.18
-5.85
-9.64
-13.27
-16.49
-19.17
-21.35
-23.22
-25.12
-27.37
-30.28
-33.99
-38.34
-42.82
-46.50
-48.25
-46.98
-42.06
-33.54
-22.23
-9.47
3.23
14.65
23.92
30.70
34.98
36.92
36.79
34.91
31.70
27.69
23.43
19.43
16.13
13.84
12.67
12.58
13.38
14.75
16.30
17.68
18.61
18.94
18.61
17.57
15.72
12.94
9.19
4.60
-0.45
-5.50
-10.07
-13.88
-16.96
-19.57
-22.06
-24.69
-27.57
-30.65
-33.74
-36.53
-38.55
-39.15
-37.57
-33.18
-25.73
-15.55
-3.54
9.12
21.32
32.28
41.62
49.18
54.75
57.95
58.28
55.49
49.80
42.06
33.56
25.67
19.44
15.30
13.12
12.35
12.38
12.73
13.15
13.57
13.91
13.91
13.21
11.44
8.36
4.16
-0.64
-5.31
-9.12
-11.69
-13.10
-13.83
-14.56
-15.90
-18.24
-21.70
-26.16
-31.19
-36.02
-39.44
-40.00
-36.39
-27.91
-14.85
1.40
18.77
35.14
48.90
59.27
66.20
70.07
71.41
70.78
68.75
66.01
63.39
61.65
61.39
62.95
66.37
71.52
78.17
86.07
94.75
103.45
111.06
116.15
117.33
113.50
104.28
90.24
72.88
54.43
37.37
23.76
14.64
9.73
7.55
6.18
4.17
1.15
-2.18
-4.72
-5.84
-5.92
-6.24
-8.29
-12.82
-19.52
-27.29
-35.05
-42.45
-50.13
-59.26
-70.77
-84.71
-100.04
-114.92
-127.26
-135.20
-137.41
-133.30
-123.11
-107.73
-88.71
-67.95
-47.46
-28.96
-13.70
-2.26
5.38
9.72
11.50
11.59
10.78
9.72
8.96
8.93
10.01
12.47
16.33
21.34
26.95
32.61
38.00
43.22
48.66
54.74
61.69
69.40
77.53
85.49
92.29
96.49
96.12
89.04
73.78
50.19
19.54
-15.90
-53.80
-92.59
-131.57
-170.40
-208.24
-243.15
-272.15
-292.08
-300.66
-297.36
-283.58
-262.14
-236.47
-209.73
-184.32
-161.81
-143.27
-129.55
-121.51
-119.80
-124.37
-133.98
-146.10
-157.21
-163.78
-162.99
-153.48
-135.67
-111.48
-83.74
-55.43
-29.04
-6.17
12.54
27.22
38.54
47.40
54.72
61.27
67.62
74.06
80.67
87.28
93.62
99.31
104.05
107.68
110.27
112.09
113.53
115.00
116.69
118.52
120.17
121.24
121.45
120.70
119.08
116.70
113.64
109.88
105.39
100.28
94.81
89.45
84.70
81.08
79.01
78.75
80.21
82.81
85.50
87.03
86.47
83.66
79.23
74.36
70.06
66.62
63.44
59.37
53.25
44.52
33.41
20.86
8.19
-3.21
-12.20
-18.04
-20.68
-20.74
-19.29
-17.51
-16.26
-15.91
-16.37
-17.38
-18.72
-20.27
-21.92
-23.38
-24.19
-23.92
-22.36
-19.73
-16.50
-13.19
-10.04
-6.90
-3.39
0.90
6.15
12.15
18.41
24.30
29.25
32.94
35.32
36.61
37.20
37.48
37.78
38.22
38.75
39.25
39.52
39.40
38.80
37.67
36.05
33.97
31.45
28.46
24.89
20.57
15.34
9.10
1.92
-5.98
-14.20
-22.33
-30.05
-37.24
-44.05
-50.90
-58.38
-67.07
-77.27
-88.70
-100.25
-110.05
-115.81
-115.48
-107.87
-93.18
-72.99
-49.81
-26.46
-5.38
11.89
24.69
33.18
38.02
40.12
40.40
39.82
39.13
38.92
39.52
40.98
43.15
45.81
48.70
51.64
54.59
57.52
60.43
63.20
65.58
67.19
67.54
66.24
63.11
58.28
52.15
45.35
38.52
32.09
26.21
20.72
15.27
9.54
3.43
-2.92
-9.12
-14.76
-19.62
-23.71
-27.38
-31.11
-35.30
-40.08
-45.31
-50.56
-55.36
-59.37
-62.50
-65.02
-67.48
-70.61
-74.99
-80.79
-87.45
-93.57
-97.08
-95.74
-87.88
-73.01
-52.12
-27.44
-1.89
21.66
41.04
55.13
63.78
67.62
67.65
64.99
60.62
55.44
50.20
45.52
41.88
39.58
38.62
38.78
39.68
40.95
42.32
43.64
44.87
45.81
46.16
45.52
43.54
40.06
35.25
29.53
23.51
17.75
12.58
8.01
3.78
-0.43
-4.88
-9.58
-14.25
-18.51
-22.07
-24.92
-27.42
-30.09
-33.37
-37.45
-42.10
-46.90
-51.32
-55.06
-58.15
-60.99
-64.20
-68.44
-74.09
-81.02
-88.34
-94.38
-96.98
-93.96
-83.89
-66.62
-43.49
-17.09
9.39
32.97
51.56
64.22
71.06
72.93
71.00
66.43
60.30
53.55
47.00
41.35
37.13
34.60
33.71
34.14
35.40
36.97
38.46
39.65
40.43
40.70
40.29
38.97
36.54
32.98
28.41
23.17
17.59
11.96
6.44
1.10
-4.02
-8.89
-13.44
-17.62
-21.41
-24.90
-28.22
-31.57
-35.06
-38.83
-42.86
-47.02
-51.08
-54.80
-58.06
-60.97
-63.90
-67.46
-72.23
-78.34
-85.18
-91.18
-94.08
-91.51
-81.82
-64.68
-41.42
-14.65
12.34
36.51
55.67
68.75
75.78
77.48
75.02
69.64
62.56
54.87
47.54
41.33
36.77
34.11
33.28
34.00
35.78
38.09
40.48
42.52
43.90
44.35
43.67
41.74
38.59
34.33
29.23
23.56
17.57
11.46
5.37
-0.50
-5.94
-10.73
-14.68
-17.80
-20.32
-22.69
-25.38
-28.79
-33.03
-37.91
-43.01
-47.87
-52.21
-56.01
-59.53
-63.18
-67.51
-72.95
-79.64
-87.17
-94.37
-99.37
-99.91
-93.99
-80.52
-59.96
-34.27
-6.56
19.82
42.07
58.54
68.81
73.48
73.67
70.61
65.42
59.08
52.46
46.36
41.44
38.13
36.57
36.54
37.61
39.25
40.98
42.44
43.40
43.68
43.19
41.77
39.34
35.85
31.34
25.95
19.94
13.64
7.40
1.54
-3.80
-8.55
-12.76
-16.52
-20.00
-23.40
-26.96
-30.89
-35.28
-40.06
-44.89
-49.36
-53.18
-56.36
-59.32
-62.78
-67.51
-73.98
-82.00
-90.51
-97.58
-100.76
-97.68
-86.83
-68.13
-43.19
-14.97
12.96
37.38
56.12
68.40
74.65
75.94
73.61
68.86
62.69
56.02
49.68
44.47
41.03
39.66
40.20
42.14
44.80
47.46
49.59
50.93
51.40
51.06
49.85
47.63
44.16
39.25
32.89
25.36
17.21
9.14
1.80
-4.44
-9.54
-13.81
-17.71
-21.70
-26.01
-30.64
-35.40
-39.95
-44.03
-47.50
-50.37
-52.91
-55.57
-58.95
-63.68
-70.21
-78.46
-87.59
-95.86
-100.85
-100.16
-92.02
-76.05
-53.48
-26.90
0.42
25.33
45.51
59.79
68.09
71.12
69.99
65.91
60.00
53.31
46.76
41.13
37.03
34.78
34.42
35.58
37.70
40.14
42.35
43.97
44.79
44.60
43.14
40.09
35.18
28.47
20.46
12.03
4.11
-2.61
-8.05
-12.62
-17.06
-22.00
-27.65
-33.78
-39.80
-45.09
-49.34
-52.65
-55.55
-58.82
-63.30
-69.46
-77.21
-85.63
-92.85
-96.45
-94.04
-84.01
-66.22
-42.17
-14.72
12.63
36.69
55.33
67.71
74.16
75.71
73.67
69.27
63.53
57.28
51.23
46.02
42.21
40.12
39.79
40.91
42.91
45.12
46.96
48.08
48.31
47.68
46.20
43.79
40.29
35.57
29.67
22.88
15.70
8.64
2.19
-3.40
-8.07
-11.97
-15.46
-18.97
-22.95
-27.68
-33.21
-39.27
-45.36
-50.96
-55.73
-59.67
-63.14
-66.81
-71.45
-77.72
-85.82
-95.15
-104.15
-110.39
-111.14
-104.10
-88.31
-64.67
-35.77
-5.28
23.12
46.60
63.71
74.32
79.25
79.78
77.24
72.86
67.67
62.56
58.20
55.09
53.39
53.03
53.66
54.81
56.04
57.04
57.69
57.95
57.79
57.06
55.46
52.60
48.24
42.40
35.50
28.27
21.53
15.84
11.41
7.94
4.84
1.53
-2.35
-6.72
-11.16
-15.20
-18.59
-21.50
-24.44
-28.13
-33.04
-39.26
-46.39
-53.75
-60.58
-66.36
-70.98
-74.73
-78.28
-82.49
-88.11
-95.38
-103.64
-111.17
-115.44
-113.70
-103.93
-85.67
-60.27
-30.75
-0.84
25.95
47.17
61.76
69.91
72.62
71.26
67.23
61.78
55.97
50.74
46.75
44.42
43.86
44.91
47.18
50.23
53.66
57.23
60.86
64.50
68.01
71.11
73.33
74.20
73.47
71.26
68.09
64.76
62.09
60.58
60.28
60.66
60.84
59.97
57.48
53.23
47.51
40.77
33.35
25.27
16.25
5.90
-5.94
-19.07
-32.81
-46.17
-58.17
-68.10
-75.84
-81.86
-87.13
-92.73
-99.51
-107.58
-115.98
-122.79
-125.32
-120.93
-107.91
-86.16
-57.45
-25.14
6.76
34.60
55.86
69.61
76.26
77.08
73.62
67.41
59.73
51.72
44.38
38.43
34.31
32.03
31.17
31.05
31.04
30.68
29.83
28.54
26.81
24.48
21.17
16.39
9.80
1.49
-8.06
-18.07
-27.76
-36.67
-44.79
-52.47
-60.20
-68.30
-76.69
-85.02
-92.77
-99.46
-104.93
-109.30
-112.88
-116.04
-118.93
-121.48
-123.41
-124.34
-124.00
-122.42
-119.96
-117.30
-115.30
-114.64
-115.52
-117.26
-118.30
-116.33
-108.91
-94.18
-71.57
-42.15
-8.43
26.31
58.80
86.58
108.35
123.92
133.94
139.41
141.40
140.87
138.67
135.57
132.26
129.28
126.92
125.19
123.85
122.58
121.06
119.06
116.44
113.07
108.73
103.10
95.89
86.98
76.52
64.90
52.72
40.61
29.12
18.64
9.34
1.21
-5.97
-12.46
-18.58
-24.57
-30.60
-36.74
-42.97
-49.18
-55.18
-60.67
-65.26
-68.59
-70.50
-71.26
-71.59
-72.55
-75.23
-80.11
-86.68
-93.12
-96.66
-94.28
-83.77
-64.53
-38.05
-7.49
23.05
49.75
69.98
82.75
88.63
89.19
86.27
81.49
75.98
70.45
65.30
60.87
57.43
55.16
54.08
54.00
54.63
55.61
56.62
57.36
57.60
57.17
55.94
53.85
50.83
46.80
41.71
35.63
28.74
21.45
14.20
7.38
1.18
-4.46
-9.72
-14.84
-20.01
-25.35
-30.91
-36.75
-42.82
-48.95
-54.88
-60.30
-65.02
-69.12
-72.92
-77.03
-82.07
-88.57
-96.55
-105.25
-113.02
-117.54
-116.30
-107.41
-90.30
-66.11
-37.47
-7.77
19.67
42.35
58.99
69.44
74.34
74.79
72.02
67.23
61.51
55.79
50.82
47.07
44.75
43.78
43.90
44.74
45.92
47.17
48.27
49.05
49.34
48.91
47.52
44.98
41.28
36.53
30.96
24.84
18.44
12.04
5.91
0.29
-4.66
-8.94
-12.82
-16.71
-21.06
-26.13
-31.86
-37.89
-43.69
-48.81
-53.04
-56.53
-59.77
-63.48
-68.35
-74.88
-83.06
-92.15
-100.64
-106.34
-106.88
-100.41
-86.17
-64.96
-38.95
-11.19
15.20
37.71
54.85
66.17
72.09
73.49
71.49
67.20
61.65
55.73
50.18
45.56
42.25
40.45
40.14
41.08
42.85
44.97
47.01
48.69
49.83
50.29
49.85
48.29
45.41
41.24
36.05
30.28
24.38
18.66
13.22
7.99
2.93
-1.94
-6.48
-10.61
-14.32
-17.82
-21.43
-25.49
-30.23
-35.72
-41.81
-48.23
-54.67
-60.97
-67.16
-73.58
-80.80
-89.44
-99.88
-111.87
-124.36
-135.43
-142.68
-143.82
-137.33
-122.94
-101.73
-75.71
-47.25
-18.52
8.85
33.74
55.24
72.59
85.21
92.87
96.07
95.97
94.15
92.14
91.01
91.15
92.45
94.47
96.77
99.01
100.94
102.30
102.76
101.90
99.34
94.77
88.04
79.13
68.25
55.84
42.54
29.18
16.59
5.38
-4.25
-12.52
-20.04
-27.45
-35.24
-43.48
-51.81
-59.65
-66.46
-71.99
-76.34
-79.95
-83.36
-87.01
-91.18
-95.86
-100.76
-105.21
-108.06
-107.69
-102.33
-90.55
-71.81
-46.86
-17.67
12.93
41.94
66.80
85.84
98.39
104.72
105.86
103.31
98.76
93.90
90.25
89.03
90.89
95.43
100.89
104.01
100.84
88.06
64.56
31.95
-5.97
-45.10
-82.67
-118.13
-152.43
-186.47
-219.69
-249.86
-274.23
-291.08
-300.87
-306.05
-310.01
-315.82
-325.42
-339.63
-358.39
-380.86
-405.22
-428.48
-446.81
-456.38
-454.60
-440.93
-417.04
-386.10
-351.64
-316.54
-282.64
-250.82
-221.39
-194.46
-170.02
-147.94
-127.87
-109.31
-91.83
-75.25
-59.77
-45.76
-33.54
-23.09
-14.06
-5.76
2.51
11.13
19.94
28.14
34.42
37.32
35.47
27.92
14.36
-4.77
-28.39
-54.76
-81.72
-106.81
-127.42
-141.15
-146.09
-141.13
-126.12
-101.97
-70.53
-34.26
4.11
42.01
77.22
108.12
133.67
153.45
167.57
176.67
181.88
184.62
186.49
188.92
192.97
199.23
207.66
217.89
229.50
242.23
256.07
271.17
287.77
306.01
325.94
347.37
369.82
392.45
413.96
432.71
447.14
456.23
459.76
458.29
452.62
443.29
430.29
413.10
391.26
364.99
335.47
304.70
274.89
247.75
224.03
203.41
184.73
166.66
148.03
128.26
107.26
85.28
62.56
39.18
15.11
-9.52
-34.23
-58.13
-80.14
-99.32
-115.12
-127.52
-136.77
-143.23
-147.03
-147.99
-145.60
-139.16
-127.92
-111.31
-89.23
-62.25
-31.55
1.23
34.38
66.44
96.37
123.44
147.09
166.79
182.09
192.77
199.00
201.40
200.78
197.97
193.57
187.91
181.18
173.49
165.04
156.10
146.90
137.62
128.29
118.87
109.21
99.26
89.06
78.75
68.63
58.91
49.68
40.74
31.66
21.95
11.30
-0.34
-12.65
-25.10
-37.09
-48.19
-58.31
-67.62
-76.55
-85.39
-94.15
-102.29
-108.70
-111.88
-110.42
-103.48
-91.13
-74.59
-55.86
-37.28
-20.94
-8.27
0.15
4.49
5.39
3.70
0.27
-4.14
-8.85
-13.28
-16.93
-19.44
-20.65
-20.61
-19.55
-17.76
-15.53
-13.04
-10.44
-7.91
-5.75
-4.33
-4.04
-5.06
-7.32
-10.47
-14.02
-17.63
-21.12
-24.62
-28.36
-32.52
-37.13
-42.02
-46.88
-51.42
-55.49
-59.15
-62.66
-66.48
-71.12
-77.07
-84.50
-92.93
-101.07
-106.88
-108.03
-102.65
-90.03
-71.01
-47.72
-23.03
0.39
20.63
36.80
48.84
57.17
62.36
65.01
65.67
65.01
63.69
62.28
61.17
60.42
59.84
59.06
57.71
55.57
52.65
49.02
44.81
40.04
34.58
28.23
20.83
12.31
2.84
-7.18
-17.26
-26.89
-35.73
-43.74
-51.14
-58.27
-65.50
-72.87
-80.14
-86.80
-92.27
-96.16
-98.45
-99.53
-100.09
-101.02
-103.16
-107.04
-112.65
-119.18
-125.01
-127.98
-125.92
-117.41
-102.33
-81.96
-58.67
-35.22
-14.03
3.32
16.15
24.57
29.14
30.59
29.81
27.64
24.94
22.50
20.93
20.56
21.43
23.34
25.86
28.53
30.96
32.87
34.15
34.74
34.58
33.59
31.60
28.50
24.36
19.43
14.14
9.00
4.35
0.27
-3.53
-7.54
-12.30
-18.08
-24.72
-31.77
-38.56
-44.54
-49.51
-53.68
-57.59
-62.00
-67.55
-74.58
-82.90
-91.62
-99.21
-103.72
-103.26
-96.58
-83.50
-65.08
-43.36
-20.80
0.31
18.37
32.56
42.79
49.38
52.84
53.68
52.44
49.68
46.05
42.15
38.54
35.62
33.65
32.66
32.58
33.22
34.29
35.38
35.97
35.55
33.72
30.31
25.41
19.32
12.45
5.17
-2.20
-9.47
-16.50
-23.21
-29.48
-35.31
-40.73
-45.78
-50.58
-55.19
-59.75
-64.52
-69.89
-76.23
-83.70
-91.92
-99.75
-105.40
-106.73
-101.97
-90.37
-72.55
-50.43
-26.76
-4.32
14.75
29.32
39.24
45.06
47.64
47.78
46.18
43.39
39.88
36.19
32.84
30.25
28.65
27.95
27.89
28.13
28.43
28.72
29.02
29.35
29.58
29.42
28.47
26.37
22.97
18.34
12.81
6.89
1.09
-4.13
-8.56
-12.31
-15.77
-19.46
-23.80
-28.89
-34.46
-39.99
-44.88
-48.82
-51.90
-54.65
-57.84
-62.34
-68.80
-77.47
-87.96
-98.98
-108.49
-113.98
-113.06
-104.23
-87.39
-64.01
-36.76
-8.81
16.94
38.47
54.87
66.22
73.23
76.89
78.17
77.90
76.73
75.23
73.87
73.00
72.87
73.49
74.74
76.42
78.35
80.38
82.38
84.05
84.99
84.65
82.55
78.40
72.23
64.42
55.56
46.26
37.01
28.04
19.35
10.76
2.13
-6.61
-15.37
-23.97
-32.31
-40.41
-48.50
-56.91
-65.90
-75.52
-85.65
-96.00
-106.23
-116.03
-125.18
-133.62
-141.51
-149.23
-157.23
-165.77
-174.39
-181.73
-185.41
-182.72
-171.36
-150.38
-120.62
-84.65
-46.14
-8.95
23.73
49.97
69.24
82.16
89.98
94.04
95.42
94.86
92.93
90.37
88.22
87.73
89.96
95.35
103.48
113.16
122.90
131.32
137.46
140.82
141.17
138.42
132.59
123.83
112.60
99.70
86.03
72.39
59.09
46.02
32.78
19.06
4.95
-9.01
-21.94
-33.02
-41.76
-48.13
-52.35
-54.76
-55.64
-55.25
-53.92
-52.24
-51.03
-51.20
-53.54
-58.34
-65.21
-72.89
-79.41
-82.44
-79.86
-70.48
-54.36
-32.91
-8.53
16.10
38.55
57.20
71.16
80.26
84.81
85.38
82.78
77.97
71.98
65.86
60.50
56.43
53.83
52.51
52.05
51.93
51.83
51.71
51.83
52.65
54.63
57.91
62.09
66.25
69.18
69.76
67.37
62.07
54.53
45.74
36.49
27.19
17.65
7.37
-4.27
-17.58
-32.41
-47.97
-63.01
-76.02
-85.69
-91.31
-93.04
-91.96
-89.77
-88.32
-89.14
-93.12
-100.23
-109.40
-118.70
-125.52
-127.19
-121.67
-108.13
-87.26
-61.04
-32.23
-3.55
22.87
45.69
64.34
78.77
89.20
95.99
99.64
100.69
99.74
97.39
94.18
90.41
86.04
80.42
72.51
61.25
46.11
27.51
6.85
-13.90
-32.88
-48.87
-61.46
-70.85
-77.41
-81.42
-82.95
-82.13
-79.31
-75.07
-70.12
-65.00
-59.97
-55.05
-50.13
-45.20
-40.41
-36.14
-32.86
-31.03
-30.92
-32.53
-35.60
-39.63
-44.11
-48.69
-53.36
-58.56
-65.01
-73.38
-83.77
-95.28
-105.96
-113.13
-114.19
-107.55
-93.14
-72.61
-48.70
-24.50
-2.56
15.56
29.37
39.13
45.50
49.24
51.03
51.51
51.23
50.69
50.26
50.16
50.39
50.83
51.34
51.79
52.23
52.73
53.35
54.04
54.59
54.62
53.75
51.71
48.43
44.09
39.07
33.76
28.45
23.25
18.10
12.83
7.36
1.78
-3.59
-8.39
-12.37
-15.55
-18.26
-20.93
-23.98
-27.57
-31.59
-35.73
-39.63
-43.18
-46.50
-50.11
-54.72
-61.08
-69.59
-80.03
-91.30
-101.39
-107.83
-108.28
-101.26
-86.66
-65.87
-41.35
-16.05
7.30
26.77
41.33
50.87
55.94
57.43
56.37
53.81
50.67
47.72
45.58
44.68
45.30
47.49
51.08
55.73
60.95
66.27
71.25
75.55
78.86
80.91
81.50
80.51
78.01
74.27
69.71
64.84
60.00
55.31
50.66
45.83
40.65
35.13
29.46
23.86
18.45
13.12
7.57
1.45
-5.42
-13.00
-20.96
-28.84
-36.28
-43.20
-49.77
-56.47
-63.87
-72.43
-82.26
-92.79
-102.73
-110.10
-112.71
-108.73
-97.44
-79.61
-57.34
-33.51
-10.92
8.41
23.57
34.62
42.22
47.12
49.92
51.04
50.80
49.62
48.04
46.64
45.99
46.40
47.91
50.29
53.18
56.16
58.96
61.52
63.80
65.79
67.24
67.65
66.30
62.52
55.91
46.57
35.09
22.36
9.42
-2.92
-14.12
-23.95
-32.49
-40.06
-47.11
-54.13
-61.50
-69.24
-77.11
-84.68
-91.49
-97.31
-102.22
-106.60
-111.03
-116.03
-121.84
-128.15
-133.83
-136.98
-135.34
-126.98
-111.06
-88.34
-61.04
-32.25
-5.08
18.17
36.33
49.26
57.42
61.56
62.44
60.75
57.25
52.69
47.80
43.30
39.72
37.40
36.40
36.55
37.46
38.69
39.89
40.85
41.52
41.83
41.58
40.38
37.80
33.55
27.70
20.74
13.39
6.37
0.09
-5.49
-10.75
-16.22
-22.22
-28.67
-35.16
-41.13
-46.15
-50.21
-53.67
-57.22
-61.64
-67.59
-75.38
-84.77
-94.77
-103.68
-109.19
-109.01
-101.42
-85.97
-63.72
-37.09
-9.19
17.01
39.30
56.55
68.65
76.13
79.75
80.27
78.38
74.72
70.09
65.34
61.37
58.86
58.11
58.89
60.57
62.36
63.60
63.98
63.54
62.42
60.72
58.21
54.50
49.18
42.15
33.76
24.79
16.15
8.56
2.28
-3.01
-8.00
-13.43
-19.74
-26.93
-34.53
-41.90
-48.40
-53.75
-58.09
-61.91
-65.92
-70.77
-76.98
-84.68
-93.41
-101.96
-108.40
-110.40
-105.83
-93.47
-73.58
-47.98
-19.61
8.26
32.88
52.51
66.63
75.58
80.13
81.10
79.22
75.25
70.08
64.77
60.44
57.97
57.77
59.61
62.82
66.53
70.07
73.05
75.37
77.01
77.83
77.50
75.57
71.78
66.07
58.76
50.41
41.71
33.34
25.79
19.26
13.73
8.92
4.44
-0.04
-4.67
-9.38
-13.89
-17.92
-21.42
-24.61
-28.07
-32.56
-38.76
-47.05
-57.18
-68.15
-78.18
-85.02
-86.53
-81.29
-69.18
-51.45
-30.49
-9.13
10.04
25.25
35.69
41.36
42.81
40.79
36.14
29.75
22.56
15.50
9.44
4.97
2.30
1.30
1.53
2.46
3.62
4.79
5.87
6.86
7.77
8.44
8.67
8.27
7.17
5.49
3.55
1.75
0.36
-0.49
-0.98
-1.51
-2.53
-4.46
-7.45
-11.39
-15.93
-20.66
-25.26
-29.71
-34.34
-39.74
-46.46
-54.62
-63.58
-71.76
-77.00
-77.07
-70.56
-57.34
-38.68
-16.98
5.03
24.93
41.16
53.02
60.60
64.36
64.88
62.79
58.75
53.54
48.04
43.17
39.63
37.80
37.63
38.68
40.32
42.01
43.37
44.30
44.81
44.93
44.53
43.34
41.03
37.41
32.57
26.97
21.30
16.26
12.20
8.87
5.53
1.07
-5.44
-14.44
-25.63
-38.08
-50.61
-62.18
-72.22
-80.63
-87.76
-94.13
-100.27
-106.54
-112.97
-119.18
-124.16
-126.35
-123.95
-115.48
-100.37
-79.30
-54.17
-27.69
-2.60
18.95
35.76
47.56
54.75
58.03
58.20
56.08
52.50
48.33
44.40
41.40
39.73
39.44
40.26
41.68
43.15
44.24
44.72
44.56
43.83
42.55
40.67
38.04
34.51
30.07
24.88
19.28
13.68
8.43
3.73
-0.40
-4.15
-7.77
-11.56
-15.73
-20.37
-25.38
-30.54
-35.53
-40.02
-43.82
-46.95
-49.71
-52.69
-56.56
-62.02
-69.35
-78.17
-87.19
-94.29
-97.00
-93.23
-82.06
-64.13
-41.57
-17.38
5.47
24.75
39.40
49.35
55.19
57.70
57.60
55.47
51.92
47.66
43.47
40.15
38.22
37.89
38.93
40.80
42.87
44.63
45.78
46.24
46.08
45.31
43.92
41.83
38.89
35.05
30.34
24.94
19.16
13.39
7.96
3.16
-0.97
-4.63
-8.16
-11.98
-16.36
-21.37
-26.78
-32.21
-37.26
-41.67
-45.47
-48.92
-52.51
-56.85
-62.47
-69.63
-78.09
-86.88
-94.31
-98.26
-96.62
-88.13
-72.77
-51.96
-28.21
-4.44
16.78
33.80
45.97
53.57
57.32
58.11
56.75
53.92
50.21
46.25
42.64
39.94
38.53
38.46
39.50
41.18
42.98
44.44
45.36
45.71
45.52
44.78
43.29
40.82
37.17
32.29
26.43
20.00
13.56
7.58
2.36
-2.06
-5.87
-9.47
-13.34
-17.80
-22.94
-28.54
-34.16
-39.31
-43.67
-47.26
-50.42
-53.69
-57.67
-62.83
-69.41
-77.24
-85.56
-92.88
-97.18
-96.33
-88.79
-74.26
-53.95
-30.32
-6.38
15.16
32.49
44.92
52.65
56.40
57.05
55.39
52.16
48.12
44.01
40.50
38.07
36.95
37.04
38.00
39.39
40.84
42.10
43.03
43.45
43.11
41.65
38.76
34.33
28.56
21.89
14.89
8.03
1.56
-4.50
-10.28
-15.96
-21.67
-27.37
-32.98
-38.37
-43.47
-48.30
-53.02
-58.03
-63.79
-70.70
-78.77
-87.29
-94.76
-99.05
-98.08
-90.48
-76.28
-56.95
-35.04
-13.39
5.60
20.55
31.06
37.44
40.28
40.12
37.40
32.61
26.43
19.81
13.84
9.52
7.42
7.62
9.70
13.10
17.33
22.15
27.54
33.42
39.50
45.11
49.38
51.50
50.95
47.73
42.21
35.10
27.20
19.26
11.77
4.96
-1.25
-7.18
-13.18
-19.50
-26.12
-32.79
-39.12
-44.79
-49.65
-53.86
-57.78
-61.96
-66.98
-73.35
-81.21
-90.15
-98.96
-105.67
-108.02
-104.08
-92.92
-75.03
-52.22
-27.08
-2.30
19.94
38.32
52.41
62.32
68.49
71.39
71.50
69.40
65.72
61.20
56.60
52.53
49.31
46.95
45.25
43.99
43.17
43.05
44.09
46.66
50.80
56.18
62.06
67.54
71.86
74.58
75.67
75.42
74.31
72.79
71.10
69.29
67.19
64.56
61.26
57.42
53.40
49.73
46.84
44.82
43.37
41.75
38.93
33.83
25.45
13.05
-3.53
-23.65
-45.60
-66.69
-83.70
-93.77
-95.21
-88.08
-74.22
-56.60
-38.36
-21.96
-8.68
1.27
8.34
13.12
16.09
17.50
17.62
16.89
15.95
15.61
16.45
18.71
22.13
26.10
30.00
33.39
36.24
38.77
41.30
43.88
46.18
47.57
47.40
45.38
41.77
37.40
33.27
30.11
28.14
27.00
26.03
24.68
22.73
20.32
17.71
14.98
11.92
8.03
2.61
-5.03
-15.50
-29.14
-45.90
-65.09
-85.28
-104.35
-119.85
-129.64
-132.41
-128.01
-117.49
-102.74
-86.02
-69.42
-54.50
-42.10
-32.43
-25.21
-19.95
-16.15
-13.34
-11.05
-8.79
-5.96
-2.09
3.06
9.33
16.22
23.04
29.19
34.26
38.13
40.79
42.26
42.49
41.33
38.67
34.54
29.18
23.05
16.74
10.78
5.48
0.89
-3.31
-7.59
-12.42
-18.03
-24.35
-31.02
-37.51
-43.38
-48.37
-52.52
-56.13
-59.77
-64.06
-69.56
-76.48
-84.46
-92.35
-98.26
-99.99
-95.60
-84.19
-66.26
-43.72
-19.35
3.97
23.96
39.42
50.17
56.79
60.22
61.36
60.92
59.42
57.29
54.88
52.59
50.78
49.74
49.64
50.39
51.80
53.48
55.06
56.18
56.62
56.22
54.93
52.70
49.50
45.29
40.14
34.18
27.67
21.02
14.64
8.84
3.77
-0.66
-4.80
-9.07
-13.86
-19.31
-25.26
-31.29
-36.89
-41.68
-45.61
-49.01
-52.44
-56.64
-62.23
-69.56
-78.43
-87.97
-96.53
-102.03
-102.31
-95.81
-82.17
-62.39
-38.64
-13.73
9.63
29.38
44.41
54.51
60.13
62.00
60.95
57.80
53.40
48.62
44.43
41.61
40.60
41.37
43.38
45.91
48.27
50.16
51.61
52.86
54.03
54.91
55.00
53.72
50.73
46.14
40.51
34.64
29.33
24.97
21.48
18.39
15.06
11.01
6.04
0.38
-5.46
-10.82
-15.16
-18.20
-20.23
-22.14
-25.36
-31.55
-42.00
-56.96
-75.12
-93.60
-108.53
-116.10
-113.86
-101.34
-80.35
-54.27
-27.11
-2.46
17.14
30.42
37.28
38.40
35.03
28.72
21.17
13.93
8.26
4.92
4.07
5.38
8.15
11.60
15.09
18.16
20.56
22.13
22.74
22.19
20.37
17.20
12.83
7.58
1.79
-4.21
-10.25
-16.33
-22.58
-29.18
-36.25
-43.73
-51.41
-58.98
-66.13
-72.77
-79.04
-85.33
-92.08
-99.61
-107.75
-115.68
-121.89
-124.41
-121.31
-111.34
-94.44
-71.90
-46.06
-19.68
4.82
25.73
42.30
54.44
62.53
67.16
69.02
68.99
68.07
67.24
67.26
68.57
71.22
75.02
79.74
85.24
91.51
98.64
106.59
115.04
123.20
129.76
133.05
131.51
124.25
111.46
94.51
75.58
56.86
39.81
24.71
10.69
-3.76
-20.01
-38.76
-59.72
-81.90
-103.89
-124.36
-142.25
-156.93
-168.23
-176.44
-182.16
-186.06
-188.44
-188.83
-185.91
-177.77
-162.72
-140.08
-110.74
-77.18
-42.72
-10.62
16.84
38.67
54.98
66.53
74.22
78.87
81.22
82.04
82.16
82.41
83.36
85.25
87.91
90.88
93.65
95.88
97.45
98.49
99.20
99.70
99.91
99.52
98.07
95.15
90.55
84.43
77.31
69.93
63.00
56.91
51.67
46.82
41.74
35.86
28.90
21.00
12.69
4.54
-3.01
-9.87
-16.35
-23.01
-30.53
-39.48
-50.07
-62.03
-74.38
-85.43
-92.97
-94.77
-89.19
-75.85
-55.86
-31.68
-6.44
16.86
36.05
50.09
58.93
63.13
63.44
60.72
55.83
49.83
43.91
39.25
36.70
36.53
38.37
41.31
44.42
46.94
48.60
49.51
49.94
50.08
49.83
48.85
46.72
43.21
38.39
32.70
26.73
21.09
16.16
11.93
8.12
4.35
0.37
-3.78
-7.85
-11.45
-14.31
-16.37
-17.86
-19.09
-20.51
-22.65
-25.99
-30.89
-37.24
-44.32
-50.60
-54.15
-53.18
-46.71
-35.00
-19.65
-3.18
11.47
21.59
25.34
22.04
12.33
-2.00
-18.55
-34.88
-49.03
-59.91
-67.05
-70.50
-70.48
-67.28
-61.36
-53.40
-44.21
-34.66
-25.37
-16.69
-8.84
-2.01
3.49
7.32
9.21
9.12
7.28
4.12
0.15
-4.15
-8.32
-12.02
-15.07
-17.54
-19.75
-22.16
-25.23
-29.14
-33.68
-38.34
-42.42
-45.50
-47.52
-48.97
-50.77
-54.00
-59.50
-67.53
-77.49
-87.74
-95.96
-99.51
-96.24
-85.07
-66.43
-42.19
-15.24
11.25
34.64
53.29
66.67
75.18
79.66
81.07
80.18
77.65
74.12
70.31
66.95
64.67
63.80
64.28
65.68
67.38
68.75
69.35
69.01
67.73
65.64
62.79
59.14
54.57
48.97
42.42
35.23
27.91
20.98
14.77
9.37
4.56
-0.00
-4.60
-9.43
-14.51
-19.80
-25.14
-30.41
-35.41
-40.05
-44.31
-48.36
-52.58
-57.51
-63.72
-71.46
-80.41
-89.43
-96.65
-99.81
-96.93
-86.92
-70.11
-48.16
-23.72
0.32
21.59
38.57
50.74
58.32
61.95
62.40
60.45
56.82
52.27
47.60
43.53
40.60
39.03
38.66
39.08
39.83
40.55
41.03
41.34
41.50
41.46
40.91
39.39
36.43
31.84
25.80
18.84
11.74
5.20
-0.36
-4.91
-8.82
-12.60
-16.74
-21.45
-26.64
-31.96
-36.97
-41.33
-44.96
-48.11
-51.27
-55.03
-59.93
-66.18
-73.49
-80.92
-86.87
-89.43
-86.82
-77.96
-62.91
-42.92
-20.15
2.89
23.96
41.44
54.56
63.15
67.56
68.31
66.14
61.90
56.54
51.02
46.18
42.65
40.70
40.28
41.11
42.87
45.23
47.90
50.53
52.62
53.54
52.61
49.35
43.60
35.66
26.12
15.73
5.21
-4.95
-14.40
-23.04
-30.88
-38.00
-44.56
-50.63
-56.38
-61.85
-67.28
-72.97
-79.42
-87.09
-96.11
-105.88
-114.91
-121.00
-121.75
-115.38
-101.37
-80.75
-55.89
-29.77
-5.20
15.79
32.20
43.91
51.32
55.01
55.61
53.76
50.20
45.85
41.69
38.54
36.89
36.66
37.36
38.27
38.83
38.82
38.36
37.74
37.11
36.29
34.78
32.01
27.64
21.74
14.83
7.64
0.84
-5.23
-10.63
-15.80
-21.29
-27.55
-34.74
-42.61
-50.62
-58.17
-64.82
-70.46
-75.39
-80.24
-85.71
-92.45
-100.73
-110.21
-119.70
-127.23
-130.29
-126.62
-114.88
-95.27
-69.66
-41.06
-12.83
12.27
32.54
47.52
57.65
63.84
67.08
68.24
68.06
67.24
66.43
66.21
67.00
68.86
71.57
74.63
77.41
79.42
80.40
80.34
79.41
77.83
75.68
72.93
69.43
64.96
59.43
52.89
45.67
38.24
31.14
24.72
19.03
13.82
8.65
3.07
-3.15
-9.92
-16.88
-23.58
-29.70
-35.15
-40.12
-45.08
-50.61
-57.32
-65.66
-75.62
-86.47
-96.64
-103.84
-105.58
-100.01
-86.50
-66.06
-41.12
-14.81
9.83
30.62
46.47
57.28
63.54
65.99
65.44
62.65
58.38
53.47
48.76
44.95
42.47
41.39
41.45
42.11
42.80
43.02
42.52
41.20
39.05
36.03
32.02
26.89
20.56
13.08
4.76
-3.92
-12.42
-20.26
-27.15
-33.02
-38.08
-42.70
-47.33
-52.33
-57.83
-63.70
-69.64
-75.29
-80.42
-84.94
-88.86
-92.24
-95.14
-97.67
-99.94
-102.07
-103.82
-104.48
-102.76
-97.03
-86.00
-69.27
-47.74
-23.45
0.98
23.07
41.11
54.37
63.02
67.67
69.08
67.99
65.06
61.07
56.91
53.43
51.34
50.91
51.98
54.00
56.35
58.49
60.11
61.15
61.62
61.43
60.40
58.29
54.94
50.43
44.98
38.89
32.49
25.96
19.30
12.46
5.38
-1.90
-9.19
-16.21
-22.70
-28.49
-33.65
-38.49
-43.56
-49.43
-56.53
-64.73
-73.11
-79.96
-83.05
-80.33
-70.66
-54.27
-32.85
-9.04
14.40
35.31
52.45
65.54
74.85
80.80
83.78
84.07
82.02
78.08
72.93
67.31
61.90
57.25
53.66
51.23
49.83
49.16
48.79
48.30
47.34
45.73
43.42
40.45
36.83
32.54
27.57
21.98
16.01
10.02
4.41
-0.59
-4.96
-8.89
-12.65
-16.56
-20.95
-26.14
-32.42
-39.76
-47.65
-54.90
-59.73
-60.22
-54.85
-43.07
-25.54
-4.03
19.06
41.35
60.90
76.56
87.86
94.87
97.91
97.44
94.04
88.41
81.47
74.27
67.73
62.50
58.73
56.17
54.32
52.76
51.23
49.67
48.05
46.16
43.58
39.75
34.30
27.08
18.31
8.27
-2.76
-14.53
-26.81
-39.36
-51.93
-64.40
-76.93
-89.83
-103.40
-117.54
-131.42
-143.46
-151.66
-154.10
-149.53
-137.83
-120.14
-98.56
-75.76
-54.26
-35.94
-21.66
-11.36
-4.32
0.37
3.55
5.84
7.62
9.22
10.85
12.65
14.64
16.77
18.93
21.08
23.26
25.49
27.68
29.53
30.62
30.49
28.87
25.73
21.34
16.06
10.20
3.98
-2.51
-9.18
-15.94
-22.63
-29.10
-35.25
-41.00
-46.36
-51.39
-56.33
-61.55
-67.59
-74.94
-83.74
-93.39
-102.37
-108.43
-109.19
-102.99
-89.53
-70.10
-47.26
-23.99
-2.90
14.42
27.41
36.38
41.93
44.68
45.10
43.66
40.91
37.61
34.58
32.51
31.81
32.48
34.23
36.53
38.90
40.99
42.58
43.64
44.12
43.91
42.80
40.55
37.01
32.30
26.79
21.14
16.01
11.91
9.01
7.11
5.74
4.39
2.68
0.52
-1.92
-4.23
-5.96
-6.79
-6.80
-6.38
-6.30
-7.31
-10.02
-14.56
-20.46
-26.74
-31.95
-34.51
-32.97
-26.48
-15.05
0.18
17.25
33.78
47.66
57.59
63.26
65.28
64.70
62.60
59.71
56.36
52.59
48.37
43.78
39.19
35.15
32.21
30.76
30.87
32.23
34.27
36.29
37.73
38.24
37.77
36.45
34.55
32.35
30.10
27.99
26.12
24.56
23.29
22.19
21.10
19.79
18.07
15.75
12.76
9.05
4.58
-0.71
-6.84
-13.64
-20.74
-27.68
-34.06
-39.76
-45.12
-50.86
-57.84
-66.59
-76.92
-87.71
-96.94
-102.15
-101.08
-92.45
-76.36
-54.40
-29.21
-3.82
19.16
37.94
51.77
60.71
65.30
66.29
64.56
60.99
56.52
52.05
48.35
45.97
45.19
45.93
47.95
50.86
54.15
57.39
60.13
62.07
62.96
62.72
61.30
58.80
55.35
51.07
46.19
40.89
35.33
29.58
23.66
17.58
11.43
5.40
-0.33
-5.62
-10.54
-15.37
-20.36
-25.64
-31.08
-36.33
-40.98
-44.87
-48.10
-51.13
-54.56
-58.96
-64.67
-71.63
-79.17
-85.95
-90.13
-89.66
-82.99
-69.59
-50.34
-27.40
-3.58
18.35
36.42
49.70
58.27
62.83
64.29
63.55
61.29
58.14
54.61
51.23
48.42
46.57
45.90
46.46
48.12
50.52
53.04
54.93
55.30
53.38
48.66
41.09
31.19
19.91
8.44
-2.10
-11.01
-18.06
-23.50
-27.89
-31.82
-35.70
-39.71
-43.78
-47.75
-51.52
-55.10
-58.65
-62.42
-66.64
-71.36
-76.44
-81.53
-86.15
-89.98
-92.89
-95.19
-97.53
-100.76
-105.58
-112.08
-119.40
-125.74
-128.77
-126.24
-116.82
-100.57
-79.01
-54.74
-30.68
-9.37
7.48
19.12
25.68
27.88
26.74
23.43
19.04
14.60
10.90
8.48
7.64
8.38
10.54
13.81
17.78
21.99
26.03
29.53
32.23
34.00
34.75
34.48
33.20
30.98
27.92
24.17
19.94
15.47
10.98
6.65
2.63
-1.08
-4.53
-7.93
-11.49
-15.43
-19.80
-24.52
-29.36
-34.06
-38.40
-42.30
-45.92
-49.59
-53.83
-59.16
-65.91
-73.86
-82.06
-88.77
-91.80
-89.17
-79.74
-63.73
-42.70
-19.17
4.16
24.94
41.63
53.61
60.87
63.90
63.44
60.37
55.67
50.28
45.07
40.69
37.57
35.90
35.61
36.43
37.94
39.71
41.32
42.52
43.20
43.33
42.86
41.70
39.62
36.44
32.03
26.51
20.22
13.63
7.23
1.30
-4.05
-8.93
-13.54
-18.16
-22.93
-27.97
-33.26
-38.69
-44.09
-49.30
-54.14
-58.62
-62.92
-67.39
-72.52
-78.83
-86.48
-95.12
-103.62
-110.12
-112.35
-108.32
-96.93
-78.54
-54.92
-28.81
-3.20
19.43
37.54
50.62
58.88
62.96
63.58
61.46
57.47
52.51
47.64
43.84
41.78
41.62
43.10
45.58
48.34
50.84
52.72
53.84
54.20
53.77
52.50
50.31
47.07
42.71
37.26
30.85
23.82
16.63
9.76
3.57
-1.86
-6.68
-11.28
-16.01
-21.03
-26.27
-31.40
-36.07
-40.03
-43.29
-46.13
-49.06
-52.64
-57.42
-63.73
-71.56
-80.28
-88.56
-94.46
-95.84
-90.93
-79.00
-60.69
-37.93
-13.48
9.84
29.78
45.08
55.47
61.39
63.56
62.81
59.79
55.21
49.83
44.56
40.34
37.96
37.70
39.29
42.02
45.01
47.51
49.12
49.75
49.46
48.32
46.28
43.23
39.06
33.80
27.70
21.17
14.71
8.82
3.78
-0.40
-4.01
-7.59
-11.69
-16.63
-22.40
-28.60
-34.66
-40.11
-44.74
-48.78
-52.75
-57.43
-63.55
-71.51
-81.16
-91.53
-100.90
-107.01
-107.64
-101.21
-87.41
-67.32
-43.24
-18.10
5.36
25.10
40.11
50.38
56.59
59.71
60.67
60.16
58.64
56.48
54.01
51.68
49.94
49.10
49.21
50.03
51.16
52.11
52.58
52.40
51.57
50.08
47.84
44.67
40.37
34.90
28.40
21.20
13.77
6.57
-0.06
-5.91
-10.96
-15.34
-19.28
-23.13
-27.29
-32.07
-37.65
-43.90
-50.50
-57.00
-63.08
-68.66
-73.93
-79.29
-85.19
-91.99
-99.70
-107.86
-115.35
-120.44
-121.08
-115.48
-102.71
-83.25
-58.98
-32.84
-7.88
13.42
29.79
41.19
48.43
52.62
54.81
55.72
55.84
55.55
55.24
55.21
55.73
56.84
58.48
60.51
62.79
65.23
67.75
70.14
72.04
73.01
72.60
70.50
66.60
61.08
54.31
46.91
39.55
32.90
27.45
23.29
20.15
17.41
14.35
10.37
5.26
-0.77
-7.19
-13.32
-18.69
-23.05
-26.49
-29.36
-32.27
-35.95
-41.12
-48.28
-57.30
-67.20
-76.05
-81.33
-80.65
-72.61
-57.30
-36.34
-12.38
11.77
33.87
52.72
68.07
80.29
89.94
97.48
103.22
107.40
110.34
112.50
114.45
116.74
119.71
123.41
127.66
132.06
136.15
139.59
142.16
143.70
144.05
143.07
140.61
136.65
131.32
124.85
117.36
108.67
98.20
85.10
68.61
48.63
25.88
1.92
-21.27
-41.79
-58.35
-70.41
-78.13
-82.14
-83.39
-83.02
-82.19
-82.00
-83.28
-86.41
-91.22
-97.19
-103.66
-110.20
-116.82
-123.86
-131.77
-140.60
-149.58
-157.02
-160.59
-157.92
-147.48
-129.18
-104.50
-76.16
-47.33
-20.82
1.50
18.89
31.60
40.43
46.32
50.10
52.34
53.41
53.57
53.08
52.27
51.53
51.20
51.43
52.23
53.36
54.60
55.70
56.49
56.86
56.68
55.79
53.99
51.18
47.33
42.59
37.23
31.62
26.06
20.79
15.93
11.51
7.49
3.77
0.14
-3.61
-7.74
-12.43
-17.69
-23.36
-29.16
-34.76
-39.94
-44.68
-49.12
-53.63
-58.67
-64.80
-72.39
-81.43
-91.15
-99.94
-105.54
-105.71
-99.00
-85.31
-66.15
-44.06
-21.95
-2.16
13.89
25.81
33.86
38.55
40.38
39.85
37.58
34.33
31.03
28.48
27.30
27.62
29.19
31.54
34.16
36.71
39.02
41.01
42.57
43.40
43.11
41.26
37.68
32.45
26.04
19.09
12.28
6.11
0.73
-4.06
-8.67
-13.52
-18.85
-24.50
-30.11
-35.18
-39.38
-42.77
-45.81
-49.24
-53.88
-60.30
-68.39
-77.29
-85.29
-90.23
-90.06
-83.54
-70.68
-52.82
-32.22
-11.38
7.61
23.44
35.61
44.20
49.52
51.91
51.72
49.39
45.52
40.86
36.15
31.97
28.60
25.96
23.75
21.61
19.28
16.65
13.78
10.74
7.53
4.01
-0.06
-4.97
-10.89
-17.76
-25.24
-32.78
-39.75
-45.70
-50.53
-54.53
-58.35
-62.69
-68.04
-74.44
-81.39
-88.06
-93.49
-97.02
-98.45
-98.23
-97.27
-96.80
-97.98
-101.53
-107.32
-114.12
-119.75
-121.46
-116.75
-104.13
-83.72
-57.28
-27.75
1.58
27.91
49.53
65.89
77.45
85.14
90.01
92.91
94.42
94.94
94.77
94.25
93.68
93.35
93.35
93.63
94.06
94.56
95.15
95.96
97.02
98.18
99.07
99.21
98.19
95.90
92.56
88.66
84.76
81.34
78.59
76.40
74.46
72.35
69.72
66.40
62.47
58.16
53.79
49.55
45.40
41.07
36.20
30.55
24.12
17.22
10.31
3.76
-2.41
-8.60
-15.63
-24.39
-35.44
-48.61
-62.76
-75.85
-85.26
-88.52
-83.94
-71.24
-51.69
-27.98
-3.49
18.39
35.03
45.07
48.53
46.67
41.49
35.08
29.07
24.39
21.29
19.58
19.01
19.42
20.80
23.12
26.17
29.62
33.08
36.31
39.20
41.74
43.76
44.80
44.31
41.82
37.28
31.06
23.86
16.30
8.84
1.52
-5.84
-13.53
-21.77
-30.66
-40.26
-50.47
-61.06
-71.57
-81.34
-89.64
-95.96
-100.13
-102.38
-103.28
-103.54
-103.85
-104.85
-107.11
-110.98
-116.51
-123.12
-129.51
-133.63
-133.20
-126.32
-112.21
-91.59
-66.58
-40.05
-14.95
6.55
23.29
35.10
42.52
46.40
47.61
46.91
44.98
42.45
39.91
37.91
36.93
37.26
39.00
42.00
45.88
50.14
54.28
57.89
60.71
62.56
63.40
63.18
61.88
59.59
56.45
52.73
48.76
44.78
40.97
37.41
34.05
30.79
27.48
23.89
19.76
14.89
9.24
3.00
-3.44
-9.59
-15.08
-19.79
-23.96
-28.11
-32.87
-38.88
-46.55
-55.82
-65.94
-75.38
-82.05
-83.93
-79.69
-69.30
-54.17
-36.78
-19.85
-5.68
4.51
10.57
13.21
13.58
12.90
12.18
12.11
12.99
14.78
17.25
20.09
23.10
26.16
29.24
32.25
35.15
37.87
40.34
42.56
44.42
45.73
46.13
45.29
42.98
39.34
34.75
29.79
25.03
20.74
16.96
13.45
9.90
6.09
2.04
-2.02
-5.84
-9.23
-12.23
-15.05
-18.05
-21.57
-25.81
-30.75
-36.13
-41.58
-46.73
-51.37
-55.59
-59.85
-64.85
-71.21
-79.07
-87.65
-95.25
-99.46
-97.97
-89.31
-73.52
-52.21
-28.14
-4.36
16.59
33.17
44.96
52.39
56.28
57.54
56.98
55.28
53.02
50.70
48.66
47.10
46.04
45.38
45.01
44.81
44.77
44.87
45.09
45.28
45.22
44.61
43.19
40.80
37.39
33.08
28.01
22.39
16.51
10.64
5.06
-0.01
-4.41
-8.12
-11.20
-13.85
-16.31
-18.85
-21.73
-25.11
-29.07
-33.52
-38.27
-43.01
-47.46
-51.41
-54.93
-58.38
-62.33
-67.41
-73.96
-81.69
-89.47
-95.41
-97.20
-92.95
-81.76
-64.18
-42.11
-18.33
4.32
23.62
38.33
48.24
53.80
55.83
55.20
52.74
49.25
45.51
42.20
39.83
38.66
38.64
39.50
40.94
42.64
44.38
45.99
47.27
47.93
47.71
46.30
43.61
39.69
34.82
29.42
23.94
18.68
13.76
9.14
4.63
0.15
-4.30
-8.58
-12.54
-16.13
-19.49
-22.89
-26.63
-30.90
-35.68
-40.77
-45.88
-50.70
-55.10
-59.17
-63.32
-68.14
-74.30
-82.17
-91.35
-100.52
-107.43
-109.55
-104.76
-92.20
-72.67
-48.42
-22.56
1.88
22.59
38.40
49.16
55.47
58.30
58.67
57.48
55.46
53.13
50.88
48.99
47.60
46.75
46.35
46.27
46.40
46.70
47.21
47.97
48.88
49.60
49.63
48.52
46.04
42.30
37.71
32.76
27.88
23.25
18.85
14.57
10.34
6.20
2.22
-1.49
-4.95
-8.30
-11.77
-15.67
-20.17
-25.31
-30.93
-36.72
-42.31
-47.41
-51.97
-56.21
-60.68
-66.07
-72.99
-81.60
-91.26
-100.42
-106.84
-108.09
-102.33
-89.00
-69.05
-44.85
-19.41
4.38
24.36
39.46
49.59
55.40
57.77
57.68
55.93
53.25
50.26
47.41
45.02
43.17
41.78
40.67
39.73
38.94
38.45
38.43
38.93
39.77
40.54
40.67
39.66
37.25
33.46
28.60
23.10
17.34
11.55
5.75
-0.12
-6.03
-11.80
-17.08
-21.49
-24.82
-27.14
-28.84
-30.49
-32.63
-35.52
-39.13
-43.09
-46.94
-50.33
-53.26
-56.04
-59.31
-63.77
-69.80
-77.24
-85.12
-91.68
-94.73
-92.19
-82.69
-66.08
-43.64
-17.79
8.49
32.36
51.75
65.72
74.31
78.31
78.78
76.71
72.93
68.12
62.90
57.88
53.67
50.71
49.18
48.96
49.70
50.96
52.30
53.37
53.94
53.82
52.84
50.89
47.89
43.92
39.24
34.24
29.31
24.72
20.52
16.60
12.78
8.95
5.07
1.21
-2.66
-6.74
-11.29
-16.56
-22.63
-29.30
-36.14
-42.70
-48.69
-54.06
-59.08
-64.22
-70.02
-76.93
-84.98
-93.55
-101.23
-105.94
-105.47
-98.18
-83.68
-63.08
-38.85
-13.99
8.65
27.12
40.55
49.02
53.17
53.84
51.91
48.21
43.61
38.96
35.09
32.62
31.85
32.70
34.66
37.17
39.62
41.68
43.28
44.48
45.34
45.72
45.26
43.55
40.31
35.58
29.70
23.29
16.97
11.18
6.01
1.24
-3.53
-8.75
-14.64
-21.09
-27.68
-33.83
-39.06
-43.19
-46.52
-49.70
-53.64
-59.16
-66.64
-75.72
-85.26
-93.33
-97.64
-96.16
-87.73
-72.55
-52.17
-29.12
-6.19
14.20
30.52
42.22
49.53
53.16
54.00
52.84
50.36
47.15
43.73
40.57
38.03
36.34
35.59
35.67
36.38
37.43
38.61
39.68
40.42
40.61
39.91
38.12
35.10
31.01
26.21
21.16
16.23
11.54
6.94
2.10
-3.27
-9.31
-15.89
-22.63
-29.10
-34.96
-40.12
-44.76
-49.38
-54.58
-60.85
-68.29
-76.26
-83.43
-87.83
-87.43
-80.68
-67.15
-47.80
-24.84
-1.16
20.41
37.81
50.10
57.30
60.09
59.29
55.65
49.81
42.46
34.45
26.82
20.59
16.53
14.92
15.57
17.86
20.95
23.97
26.23
27.30
27.01
25.47
22.91
19.53
15.47
10.81
5.60
-0.10
-6.11
-12.21
-18.12
-23.59
-28.44
-32.63
-36.35
-39.99
-44.17
-49.54
-56.49
-64.85
-73.63
-81.01
-84.67
-82.52
-73.28
-57.04
-35.25
-10.37
14.77
37.63
56.42
70.23
78.88
82.76
82.62
79.44
74.34
68.44
62.76
58.05
54.73
52.84
52.12
52.19
52.68
53.28
53.79
54.03
53.72
52.46
49.79
45.39
39.22
31.66
23.44
15.35
7.99
1.58
-4.16
-9.80
-15.88
-22.66
-30.02
-37.47
-44.45
-50.57
-55.75
-60.37
-65.10
-70.72
-77.86
-86.75
-96.83
-106.70
-114.10
-116.37
-111.24
-97.59
-76.04
-48.93
-19.73
7.95
31.34
49.00
60.87
67.76
70.88
71.35
70.07
67.76
65.02
62.38
60.22
58.74
57.87
57.50
57.41
57.48
57.62
57.83
58.01
57.94
57.27
55.63
52.78
48.68
43.56
37.82
31.82
25.77
19.70
13.54
7.18
0.66
-5.85
-12.14
-18.08
-23.67
-28.99
-34.21
-39.39
-44.49
-49.41
-54.00
-58.15
-61.87
-65.33
-68.85
-72.95
-78.22
-85.19
-94.02
-104.14
-114.03
-121.29
-123.15
-117.25
-102.52
-79.68
-51.25
-20.90
7.63
31.43
49.11
60.74
67.42
70.56
71.40
70.78
69.13
66.81
64.15
61.51
59.25
57.54
56.34
55.57
55.09
54.92
55.10
55.58
56.16
56.37
55.64
53.47
49.63
44.15
37.41
29.90
22.13
14.45
7.09
0.08
-6.61
-13.02
-19.23
-25.29
-31.27
-37.30
-43.51
-49.99
-56.70
-63.51
-70.18
-76.48
-82.22
-87.43
-92.25
-96.94
-101.88
-107.38
-113.60
-120.25
-126.32
-130.09
-129.35
-122.12
-107.29
-85.35
-58.31
-29.30
-1.58
22.30
40.98
54.33
63.01
68.03
70.29
70.52
69.27
67.06
64.44
61.98
60.08
58.97
58.58
58.62
58.83
59.02
59.21
59.56
60.19
61.08
61.98
62.51
62.34
61.35
59.64
57.48
55.19
53.00
51.06
49.42
48.08
46.97
45.95
44.82
43.27
41.02
37.93
34.06
29.71
25.32
21.21
17.57
14.22
10.69
6.36
0.59
-6.98
-16.15
-26.04
-35.01
-40.94
-41.71
-35.87
-23.18
-4.85
16.72
38.55
57.92
72.90
82.66
87.30
87.53
84.17
78.02
69.80
60.25
50.21
40.60
32.24
25.65
20.96
17.93
16.08
14.91
14.05
13.33
12.63
11.92
11.08
9.93
8.32
6.13
3.36
0.07
-3.56
-7.37
-11.19
-14.86
-18.33
-21.61
-24.80
-28.06
-31.56
-35.32
-39.29
-43.25
-46.95
-50.19
-52.87
-55.08
-57.14
-59.52
-62.84
-67.67
-74.24
-82.22
-90.45
-97.00
-99.63
-96.37
-86.29
-69.93
-49.18
-26.81
-5.66
12.05
25.20
33.70
38.22
39.73
39.14
37.19
34.41
31.29
28.21
25.62
23.83
23.08
23.33
24.38
25.87
27.42
28.72
29.56
29.87
29.61
28.77
27.30
25.10
22.11
18.31
13.76
8.64
3.14
-2.50
-8.04
-13.30
-18.16
-22.66
-26.92
-31.14
-35.49
-39.97
-44.40
-48.44
-51.78
-54.31
-56.20
-57.95
-60.24
-63.80
-69.13
-76.27
-84.49
-92.21
-97.24
-97.33
-90.80
-77.29
-57.92
-35.04
-11.60
9.73
27.13
39.88
48.09
52.42
53.68
52.66
50.15
46.89
43.64
41.04
39.53
39.25
39.99
41.35
42.87
44.20
45.17
45.75
46.03
46.00
45.55
44.30
41.87
37.91
32.38
25.63
18.31
11.19
4.81
-0.67
-5.61
-10.58
-16.19
-22.69
-29.92
-37.35
-44.39
-50.67
-56.16
-61.23
-66.44
-72.40
-79.53
-87.84
-96.79
-105.21
-111.39
-113.36
-109.49
-98.95
-82.14
-60.64
-36.88
-13.56
7.06
23.49
35.22
42.51
46.19
47.21
46.50
44.83
42.74
40.74
39.22
38.55
38.96
40.50
42.93
45.82
48.69
51.09
52.76
53.57
53.44
52.24
49.79
45.91
40.48
33.62
25.69
17.33
9.23
1.95
-4.20
-9.24
-13.43
-17.21
-21.02
-25.20
-29.89
-35.07
-40.54
-45.96
-51.00
-55.42
-59.24
-62.74
-66.56
-71.41
-77.83
-85.80
-94.47
-102.10
-106.34
-104.90
-96.22
-80.10
-57.90
-32.13
-5.89
17.99
37.56
51.89
61.07
65.81
67.05
65.77
62.88
59.12
55.16
51.60
48.81
47.02
46.18
46.06
46.33
46.67
46.81
46.59
45.90
44.59
42.56
39.63
35.75
30.90
25.20
18.76
11.71
4.19
-3.69
-11.68
-19.53
-26.95
-33.79
-40.11
-46.19
-52.44
-59.15
-66.32
-73.59
-80.32
-85.91
-90.06
-92.95
-95.23
-97.78
-101.40
-106.54
-112.98
-119.72
-124.91
-126.02
-120.37
-105.90
-81.96
-49.78
-12.38
26.22
62.03
92.12
115.08
130.93
140.45
144.66
144.30
139.92
132.03
121.37
109.01
96.21
84.16
73.69
65.21
58.64
53.66
49.86
46.86
44.33
42.03
39.66
36.88
33.36
28.88
23.44
17.32
11.06
5.25
0.33
-3.53
-6.58
-9.36
-12.48
-16.37
-21.11
-26.31
-31.31
-35.49
-38.49
-40.44
-41.99
-44.04
-47.54
-53.08
-60.63
-69.34
-77.55
-83.03
-83.57
-77.51
-64.33
-44.95
-21.49
3.26
26.53
46.24
61.21
71.21
76.63
78.26
76.99
73.79
69.59
65.21
61.36
58.43
56.46
55.19
54.14
52.84
50.87
48.02
44.30
39.87
35.04
30.10
25.15
20.04
14.37
7.67
-0.27
-9.26
-18.58
-27.26
-34.51
-40.01
-44.14
-47.70
-51.50
-55.94
-60.82
-65.43
-68.98
-70.93
-71.28
-70.63
-69.96
-70.29
-72.47
-76.90
-83.36
-90.93
-97.94
-102.17
-101.27
-93.48
-78.19
-56.35
-30.34
-3.25
21.78
42.44
57.53
67.07
71.85
73.06
71.83
69.08
65.44
61.37
57.27
53.59
50.82
49.32
49.26
50.41
52.26
54.15
55.49
55.93
55.41
54.02
51.91
49.12
45.60
41.24
36.02
30.06
23.67
17.25
11.17
5.65
0.71
-3.88
-8.42
-13.26
-18.61
-24.41
-30.44
-36.27
-41.53
-45.98
-49.67
-52.88
-56.15
-60.16
-65.51
-72.57
-81.15
-90.28
-98.19
-102.59
-101.18
-92.39
-76.01
-53.37
-27.14
-0.59
23.22
42.17
55.37
63.08
66.29
66.25
64.08
60.62
56.55
52.34
48.51
45.51
43.68
43.14
43.69
44.94
46.38
47.61
48.38
48.64
48.43
47.67
46.16
43.60
39.77
34.61
28.44
21.74
15.11
8.99
3.53
-1.37
-6.03
-10.79
-15.95
-21.64
-27.82
-34.24
-40.51
-46.18
-50.91
-54.63
-57.61
-60.47
-63.94
-68.72
-75.12
-82.87
-90.94
-97.56
-100.53
-97.75
-87.87
-70.80
-48.00
-22.07
3.88
27.05
45.59
58.72
66.59
69.89
69.52
66.40
61.46
55.67
49.98
45.25
42.04
40.50
40.45
41.44
43.04
44.93
46.97
49.04
50.92
52.14
52.13
50.30
46.41
40.65
33.63
26.23
19.20
12.94
7.37
2.06
-3.56
-9.84
-16.75
-23.88
-30.61
-36.46
-41.30
-45.44
-49.52
-54.34
-60.54
-68.32
-77.31
-86.35
-93.61
-96.89
-94.14
-84.22
-67.34
-45.26
-20.74
3.10
23.71
39.59
50.36
56.49
58.79
58.10
55.14
50.65
45.40
40.26
36.04
33.29
32.22
32.62
34.04
35.95
37.89
39.61
41.00
42.07
42.74
42.83
42.01
39.97
36.52
31.70
25.87
19.59
13.44
7.86
2.97
-1.45
-5.74
-10.32
-15.39
-20.97
-26.82
-32.62
-38.02
-42.77
-46.83
-50.42
-54.04
-58.44
-64.35
-72.14
-81.41
-90.78
-97.98
-100.44
-96.09
-84.09
-65.16
-41.50
-16.08
8.08
28.67
44.45
55.20
61.50
64.23
64.37
62.75
60.09
57.03
54.17
52.06
51.09
51.44
52.96
55.35
58.16
60.99
63.52
65.49
66.73
66.98
66.06
63.76
60.02
54.90
48.65
41.65
34.37
27.34
20.99
15.63
11.30
7.83
4.89
2.03
-1.09
-4.73
-8.94
-13.66
-18.73
-23.97
-29.21
-34.38
-39.61
-45.21
-51.72
-59.64
-69.26
-80.23
-91.39
-100.78
-106.09
-105.30
-97.41
-82.90
-63.67
-42.60
-22.61
-5.98
6.13
13.74
17.66
19.08
19.09
18.51
17.87
17.52
17.71
18.59
20.27
22.75
25.91
29.51
33.29
36.94
40.19
42.86
44.72
45.63
45.49
44.26
41.95
38.68
34.59
29.83
24.58
18.99
13.27
7.67
2.38
-2.45
-6.77
-10.74
-14.61
-18.69
-23.19
-28.17
-33.42
-38.64
-43.53
-47.89
-51.84
-55.69
-59.97
-65.24
-71.90
-79.91
-88.57
-96.47
-101.58
-101.82
-95.54
-82.17
-62.50
-38.60
-13.30
10.49
30.47
45.38
54.96
59.83
61.00
59.63
56.74
53.21
49.78
47.05
45.52
45.44
46.77
49.20
52.23
55.39
58.29
60.76
62.72
64.11
64.72
64.25
62.40
58.99
54.18
48.36
42.17
36.16
30.68
25.64
20.69
15.29
9.02
1.77
-6.25
-14.52
-22.52
-29.81
-36.29
-42.24
-48.38
-55.54
-64.35
-74.73
-85.71
-95.52
-102.08
-103.64
-99.38
-89.63
-75.64
-59.16
-41.98
-25.64
-11.27
0.42
9.10
14.84
18.07
19.45
19.73
19.57
19.54
20.00
21.24
23.44
26.59
30.53
34.86
39.09
42.66
45.16
46.32
46.11
44.67
42.25
39.10
35.38
31.15
26.46
21.38
16.09
10.85
5.93
1.48
-2.56
-6.47
-10.66
-15.53
-21.26
-27.70
-34.43
-40.82
-46.36
-50.81
-54.35
-57.60
-61.38
-66.51
-73.52
-82.36
-92.24
-101.61
-108.29
-109.97
-104.85
-92.32
-73.26
-49.97
-25.53
-2.99
15.46
28.81
37.22
41.59
43.03
42.54
40.83
38.43
35.76
33.27
31.43
30.62
31.00
32.46
34.66
37.15
39.59
41.81
43.78
45.47
46.76
47.44
47.24
45.99
43.72
40.67
37.18
33.55
29.95
26.44
23.05
19.78
16.70
13.82
11.07
8.27
5.21
1.64
-2.52
-7.16
-12.03
-16.81
-21.28
-25.42
-29.43
-33.75
-38.93
-45.47
-53.57
-62.90
-72.35
-80.08
-83.86
-81.67
-72.40
-56.33
-35.22
-11.83
10.79
30.04
44.36
53.26
57.25
57.39
54.93
51.07
46.75
42.69
39.31
36.82
35.24
34.52
34.48
34.95
35.79
36.86
38.03
39.04
39.52
39.02
37.25
34.13
29.91
25.12
20.30
15.84
11.81
7.99
4.10
-0.07
-4.43
-8.66
-12.27
-14.85
-16.22
-16.53
-16.15
-15.55
-15.15
-15.20
-15.75
-16.72
-17.98
-19.45
-21.24
-23.65
-27.23
-32.66
-40.33
-49.99
-60.37
-69.35
-74.47
-73.75
-66.42
-53.22
-36.22
-18.05
-1.17
12.78
23.11
29.99
34.01
35.88
36.23
35.58
34.32
32.85
31.60
31.05
31.55
33.23
35.92
39.11
42.23
44.72
46.22
46.65
46.11
44.70
42.48
39.40
35.35
30.29
24.33
17.75
10.99
4.51
-1.32
-6.38
-10.76
-14.82
-18.99
-23.67
-29.08
-35.16
-41.58
-47.83
-53.43
-58.10
-61.90
-65.28
-68.93
-73.65
-80.01
-88.08
-97.15
-105.62
-111.27
-111.70
-105.10
-90.88
-70.04
-44.90
-18.56
5.97
26.51
41.95
52.30
58.25
60.82
61.02
59.72
57.57
55.12
52.76
50.75
49.22
48.19
47.56
47.19
47.01
47.04
47.39
48.15
49.21
50.20
50.56
49.75
47.40
43.56
38.69
33.49
28.54
24.14
20.23
16.51
12.63
8.47
4.14
-0.06
-3.84
-7.08
-9.96
-12.89
-16.35
-20.65
-25.82
-31.59
-37.52
-43.19
-48.41
-53.32
-58.39
-64.29
-71.61
-80.52
-90.49
-100.08
-107.12
-109.14
-104.08
-91.08
-70.86
-45.62
-18.49
7.29
29.21
45.85
56.98
63.22
65.63
65.30
63.24
60.27
57.05
54.08
51.69
50.05
49.13
48.81
48.89
49.27
49.93
50.91
52.23
53.72
55.07
55.79
55.44
53.67
50.43
45.92
40.59
34.97
29.47
24.27
19.24
14.11
8.61
2.76
-3.21
-8.85
-13.81
-18.03
-21.78
-25.63
-30.13
-35.57
-41.84
-48.49
-54.94
-60.70
-65.57
-69.78
-73.92
-78.79
-85.08
-92.99
-101.97
-110.54
-116.48
-117.34
-111.10
-96.86
-75.24
-48.30
-19.12
8.98
33.19
51.72
64.05
70.69
72.83
71.84
68.95
65.08
60.89
56.87
53.45
51.00
49.81
49.91
51.03
52.68
54.28
55.42
55.95
55.90
55.36
54.28
52.46
49.52
45.19
39.39
32.42
24.82
17.29
10.32
4.16
-1.27
-6.33
-11.39
-16.71
-22.34
-28.06
-33.49
-38.27
-42.22
-45.42
-48.25
-51.33
-55.38
-61.08
-68.75
-78.14
-88.20
-97.02
-102.22
-101.48
-93.38
-77.85
-56.40
-31.66
-6.68
15.81
33.93
46.78
54.38
57.27
56.31
52.45
46.60
39.66
32.42
25.48
19.21
13.65
8.59
3.63
-1.69
-7.64
-14.32
-21.65
-29.55
-38.07
-47.46
-57.97
-69.72
-82.57
-96.11
-109.72
-122.72
-134.45
-144.24
-151.36
-155.08
-154.76
-150.04
-140.90
-127.74
-111.21
-92.16
-71.64
-50.91
-31.45
-14.73
-2.02
6.01
9.35
8.49
4.10
-3.27
-13.29
-25.75
-40.19
-55.66
-70.57
-82.80
-90.06
-90.27
-82.05
-65.13
-40.50
-10.29
22.62
55.21
84.95
110.29
130.68
146.54
158.79
168.58
176.98
184.75
192.38
199.89
206.93
212.83
216.87
218.40
217.13
213.27
207.45
200.69
193.87
187.53
181.45
174.70
165.98
153.99
138.00
118.06
94.97
69.99
44.48
19.66
-3.47
-24.00
-41.09
-54.04
-62.52
-66.69
-67.40
-65.90
-63.63
-61.77
-61.02
-61.40
-62.51
-63.76
-64.72
-65.35
-65.99
-67.20
-69.53
-73.21
-77.92
-82.64
-85.70
-85.03
-78.68
-65.40
-45.18
-19.37
9.48
38.25
64.02
84.63
99.08
107.47
110.68
109.91
106.39
101.15
95.07
88.90
83.29
78.74
75.45
73.29
71.85
70.64
69.36
68.03
66.97
66.51
66.73
67.29
67.34
65.76
61.46
53.84
42.90
29.42
14.61
-0.15
-13.67
-25.22
-34.62
-42.16
-48.39
-53.94
-59.26
-64.62
-70.03
-75.36
-80.46
-85.31
-90.07
-95.07
-100.74
-107.37
-114.93
-122.81
-129.72
-133.79
-132.94
-125.43
-110.50
-88.85
-62.52
-34.57
-8.21
14.01
30.65
41.55
47.45
49.50
48.84
46.37
42.74
38.46
34.14
30.37
27.72
26.53
26.79
28.17
30.18
32.22
33.80
34.63
34.57
33.65
31.97
29.62
26.66
23.13
19.02
14.38
9.32
4.07
-1.12
-6.02
-10.50
-14.54
-18.27
-21.89
-25.61
-29.62
-34.01
-38.69
-43.45
-48.01
-52.07
-55.53
-58.49
-61.34
-64.71
-69.27
-75.43
-83.00
-91.02
-97.64
-100.61
-97.86
-88.19
-71.80
-50.32
-26.38
-2.93
17.57
33.60
44.68
51.24
54.15
54.47
53.17
51.08
48.87
47.07
46.01
45.83
46.47
47.68
49.10
50.38
51.27
51.67
51.62
51.22
50.43
49.17
47.20
44.29
40.35
35.53
30.11
24.55
19.17
14.11
9.26
4.38
-0.78
-6.26
-11.91
-17.47
-22.74
-27.72
-32.68
-38.00
-44.00
-50.74
-57.95
-65.14
-71.77
-77.55
-82.58
-87.33
-92.54
-98.94
-106.87
-115.94
-124.88
-131.59
-133.60
-128.74
-115.91
-95.56
-69.73
-41.50
-14.23
9.37
27.81
40.85
49.24
54.09
56.42
56.90
55.93
53.86
51.20
48.65
47.03
46.97
48.73
52.11
56.57
61.42
66.05
70.12
73.50
76.13
77.88
78.54
77.83
75.59
71.94
67.28
62.21
57.33
53.02
49.39
46.29
43.48
40.68
37.58
33.79
28.80
22.12
13.50
3.15
-8.23
-19.75
-30.79
-41.29
-51.83
-63.40
-76.85
-92.43
-109.39
-126.05
-140.05
-148.97
-150.88
-144.91
-131.52
-112.42
-90.22
-67.75
-47.37
-30.53
-17.64
-8.31
-1.79
2.67
5.69
7.71
9.07
10.17
11.34
12.86
14.85
17.22
19.81
22.49
25.17
27.79
30.25
32.28
33.52
33.59
32.30
29.71
26.19
22.34
18.73
15.79
13.58
11.85
10.07
7.73
4.52
0.54
-3.78
-7.85
-11.20
-13.77
-15.92
-18.27
-21.42
-25.60
-30.67
-36.12
-41.40
-46.14
-50.43
-54.73
-59.83
-66.42
-74.78
-84.32
-93.47
-99.87
-100.88
-94.36
-79.41
-56.81
-28.85
1.18
29.87
54.45
73.29
85.98
93.04
95.56
94.70
91.51
86.82
81.34
75.74
70.65
66.55
63.70
62.00
61.16
60.82
60.74
60.84
61.13
61.49
61.56
60.83
58.73
54.97
49.63
43.16
36.20
29.36
22.96
17.02
11.28
5.41
-0.82
-7.40
-14.14
-20.71
-26.83
-32.40
-37.45
-42.14
-46.55
-50.64
-54.19
-56.97
-58.82
-59.85
-60.49
-61.44
-63.57
-67.63
-73.92
-82.06
-90.67
-97.49
-99.82
-95.32
-82.77
-62.70
-37.30
-9.86
16.15
37.99
54.19
64.58
69.84
71.05
69.20
65.14
59.52
53.03
46.45
40.54
35.93
32.90
31.31
30.75
30.68
30.58
30.13
29.23
27.80
25.80
23.08
19.52
15.03
9.69
3.76
-2.35
-8.18
-13.35
-17.70
-21.35
-24.63
-28.07
-32.15
-37.21
-43.34
-50.38
-58.01
-65.82
-73.50
-80.95
-88.34
-96.12
-104.97
-115.63
-128.61
-143.76
-160.03
-175.45
-187.46
-193.69
-192.79
-184.90
-171.63
-155.49
-138.95
-123.72
-110.48
-98.91
-88.21
-77.47
-65.92
-53.01
-38.40
-21.96
-3.77
15.77
36.03
56.17
75.23
92.36
106.90
118.51
127.29
133.71
138.41
141.97
144.74
146.79
148.02
148.32
147.64
146.06
143.65
140.45
136.45
131.61
125.98
119.72
113.14
106.67
100.79
96.00
92.63
90.74
89.99
89.65
88.78
86.49
82.22
75.83
67.61
57.96
47.19
35.37
22.33
8.02
-7.47
-23.60
-39.34
-53.13
-63.12
-67.39
-64.64
-54.66
-38.66
-19.16
0.72
18.14
31.41
40.32
45.94
49.83
53.27
56.88
60.53
63.75
66.14
67.66
68.70
69.76
71.29
73.44
76.07
78.85
81.46
83.64
85.16
85.78
85.19
83.09
79.29
73.91
67.25
59.84
52.21
44.71
37.50
30.52
23.56
16.51
9.39
2.37
-4.33
-10.61
-16.62
-22.71
-29.26
-36.47
-44.22
-52.07
-59.47
-65.96
-71.40
-76.07
-80.56
-85.57
-91.63
-98.90
-106.86
-114.27
-119.22
-119.63
-113.84
-101.21
-82.48
-59.62
-35.32
-12.27
7.42
22.62
33.10
39.29
41.95
41.94
40.10
37.17
33.81
30.59
27.97
26.26
25.58
25.87
26.90
28.36
29.94
31.33
32.36
32.86
32.77
31.96
30.37
27.94
24.69
20.74
16.26
11.48
6.53
1.58
-3.31
-8.02
-12.45
-16.56
-20.32
-23.89
-27.46
-31.24
-35.27
-39.47
-43.64
-47.57
-51.19
-54.58
-57.98
-61.77
-66.43
-72.39
-79.87
-88.52
-97.17
-103.92
-106.40
-102.59
-91.51
-73.76
-51.43
-27.51
-5.00
13.89
28.05
37.46
42.73
44.76
44.35
42.19
38.88
35.09
31.48
28.66
27.05
26.75
27.61
29.23
31.13
32.92
34.31
35.20
35.50
35.16
34.02
31.96
28.94
25.05
20.53
15.70
10.83
6.02
1.29
-3.40
-7.99
-12.35
-16.26
-19.61
-22.44
-25.07
-27.94
-31.49
-35.93
-41.14
-46.72
-52.11
-56.80
-60.56
-63.54
-66.23
-69.39
-73.77
-79.78
-87.12
-94.54
-99.83
-100.33
-93.62
-78.36
-54.95
-25.51
6.49
37.31
63.79
83.96
97.23
104.13
105.79
103.52
98.58
92.05
84.86
77.77
71.37
65.98
61.74
58.57
56.29
54.74
53.75
53.21
53.02
52.89
52.37
50.85
47.65
42.26
34.63
25.17
14.79
4.58
-4.57
-12.24
-18.52
-23.91
-29.03
-34.29
-39.88
-45.73
-51.64
-57.41
-62.81
-67.55
-71.36
-73.99
-75.40
-75.87
-75.96
-76.42
-78.01
-81.23
-86.09
-91.88
-97.09
-99.61
-97.23
-88.38
-72.71
-51.46
-27.18
-3.01
18.24
34.76
46.03
52.53
55.31
55.45
53.83
51.06
47.63
44.03
40.84
38.61
37.70
38.22
39.94
42.36
44.89
46.98
48.29
48.74
48.34
47.20
45.31
42.66
39.17
34.84
29.78
24.18
18.30
12.34
6.50
0.91
-4.30
-9.04
-13.31
-17.19
-20.87
-24.58
-28.46
-32.46
-36.39
-40.01
-43.13
-45.81
-48.41
-51.44
-55.57
-61.32
-68.90
-77.87
-87.02
-94.33
-97.37
-93.98
-82.95
-64.57
-40.69
-14.28
11.39
33.57
50.61
62.07
68.55
71.12
70.92
68.75
64.98
59.73
53.08
45.28
36.80
28.25
20.13
12.75
6.19
0.58
-3.88
-6.86
-8.07
-7.45
-5.31
-2.30
0.87
3.54
5.32
6.11
5.93
4.93
3.26
1.06
-1.57
-4.48
-7.55
-10.69
-13.87
-17.20
-20.83
-24.93
-29.57
-34.67
-39.96
-45.14
-50.02
-54.57
-59.06
-63.95
-69.77
-76.87
-85.21
-93.98
-101.61
-105.92
-104.62
-96.14
-80.25
-58.34
-33.16
-8.04
14.10
31.40
43.37
50.64
54.41
55.89
56.03
55.38
54.27
53.00
51.87
51.22
51.28
52.06
53.35
54.77
55.94
56.61
56.79
56.66
56.35
55.89
54.96
53.07
49.71
44.59
37.83
30.01
21.96
14.50
8.16
3.00
-1.43
-5.75
-10.60
-16.29
-22.74
-29.51
-36.02
-41.80
-46.72
-51.02
-55.24
-59.98
-65.81
-73.09
-81.84
-91.51
-100.84
-107.98
-110.74
-107.20
-96.43
-78.90
-56.54
-32.23
-8.98
10.86
26.02
36.34
42.50
45.47
46.22
45.52
43.92
41.88
39.82
38.19
37.38
37.65
39.00
41.14
43.66
46.07
48.04
49.42
50.22
50.47
50.10
48.85
46.30
42.15
36.29
29.06
21.18
13.47
6.63
0.91
-3.95
-8.57
-13.60
-19.39
-25.81
-32.34
-38.38
-43.58
-48.03
-52.23
-56.93
-62.83
-70.39
-79.66
-90.06
-100.33
-108.56
-112.38
-109.58
-98.74
-79.89
-54.71
-26.26
1.86
26.50
45.68
58.89
66.82
70.80
72.27
72.37
71.81
71.08
70.49
70.35
70.91
72.20
74.07
76.16
78.10
79.57
80.48
80.90
80.91
80.58
79.76
78.18
75.47
71.38
65.89
59.29
52.12
45.03
38.61
33.13
28.56
24.45
20.25
15.48
9.98
3.96
-2.16
-7.89
-13.01
-17.59
-22.04
-26.97
-32.97
-40.54
-49.89
-60.79
-72.37
-83.11
-91.13
-94.67
-92.72
-85.43
-74.13
-60.81
-47.54
-35.84
-26.31
-18.88
-12.99
-7.99
-3.29
1.50
6.61
12.09
17.77
23.40
28.65
33.38
37.65
41.65
45.55
49.39
53.01
56.02
58.05
58.85
58.33
56.57
53.74
49.94
45.28
39.85
33.83
27.52
21.35
15.72
10.85
6.71
2.97
-0.81
-5.10
-10.18
-16.03
-22.35
-28.67
-34.58
-39.82
-44.41
-48.66
-53.09
-58.33
-64.89
-72.96
-82.22
-91.57
-99.21
-102.92
-100.67
-91.23
-74.82
-53.08
-28.71
-4.79
16.17
32.64
44.21
51.31
54.84
55.64
54.42
51.73
48.10
44.09
40.36
37.52
35.93
35.66
36.42
37.70
38.95
39.70
39.72
38.98
37.58
35.61
33.07
29.81
25.67
20.62
14.88
8.97
3.63
-0.54
-3.27
-4.80
-5.86
-7.35
-9.98
-14.09
-19.44
-25.38
-31.14
-36.10
-39.99
-43.05
-45.83
-49.09
-53.57
-59.76
-67.68
-76.62
-85.15
-91.15
-92.33
-86.76
-73.67
-53.77
-29.26
-3.26
21.10
41.34
56.25
65.80
70.85
72.56
72.07
70.21
67.55
64.56
61.61
59.09
57.29
56.33
56.16
56.54
57.19
57.88
58.43
58.74
58.73
58.22
57.01
54.92
51.89
48.06
43.75
39.31
35.01
30.92
26.95
22.92
18.78
14.59
10.56
6.83
3.38
-0.05
-3.80
-8.15
-13.11
-18.40
-23.58
-28.18
-32.01
-35.10
-37.84
-40.80
-44.75
-50.38
-58.14
-67.81
-78.26
-87.46
-92.80
-91.89
-83.48
-68.02
-47.75
-25.99
-6.20
9.11
18.82
23.16
23.20
20.12
15.00
8.62
1.82
-4.45
-9.10
-11.27
-10.60
-7.44
-2.61
2.93
8.48
13.82
18.99
24.09
28.98
33.19
36.13
37.35
36.78
34.78
31.96
28.90
25.94
23.09
20.10
16.70
12.74
8.35
3.83
-0.41
-4.16
-7.48
-10.74
-14.47
-19.08
-24.73
-31.18
-37.92
-44.37
-50.15
-55.20
-59.81
-64.55
-70.06
-76.89
-85.20
-94.54
-103.61
-110.32
-112.15
-107.01
-93.92
-73.60
-48.43
-21.74
3.09
23.52
38.42
47.91
52.97
54.86
54.70
53.31
51.22
48.81
46.42
44.38
42.98
42.39
42.56
43.28
44.24
45.16
45.88
46.37
46.63
46.57
45.97
44.45
41.63
37.32
31.64
25.02
18.11
11.53
5.69
0.70
-3.65
-7.71
-11.88
-16.48
-21.63
-27.27
-33.13
-38.83
-43.97
-48.31
-52.01
-55.55
-59.76
-65.47
-73.17
-82.63
-92.61
-101.03
-105.31
-103.17
-93.32
-76.04
-53.12
-27.44
-2.20
19.96
37.37
49.52
56.86
60.28
60.76
59.16
56.12
52.19
47.93
43.91
40.72
38.78
38.25
38.95
40.47
42.31
44.06
45.46
46.38
46.70
46.29
44.96
42.55
38.99
34.39
28.99
23.22
17.49
12.16
7.42
3.26
-0.45
-3.98
-7.60
-11.61
-16.15
-21.28
-26.88
-32.68
-38.34
-43.56
-48.27
-52.66
-57.24
-62.72
-69.74
-78.56
-88.66
-98.64
-106.27
-109.05
-104.85
-92.68
-73.13
-48.37
-21.55
4.06
25.81
42.27
53.23
59.41
62.00
62.23
61.08
59.27
57.26
55.39
53.92
53.05
52.90
53.45
54.62
56.22
58.06
59.91
61.56
62.73
63.15
62.52
60.62
57.31
52.67
46.89
40.26
33.10
25.73
18.45
11.50
5.04
-0.85
-6.20
-11.11
-15.76
-20.38
-25.12
-30.15
-35.43
-40.87
-46.24
-51.34
-56.15
-60.88
-66.04
-72.27
-80.09
-89.44
-99.46
-108.31
-113.57
-112.79
-104.31
-87.85
-64.80
-37.95
-10.65
13.94
33.66
47.59
55.95
59.66
59.91
57.78
54.18
49.90
45.67
42.16
39.90
39.09
39.56
40.77
42.14
43.16
43.73
44.03
44.37
44.83
45.13
44.66
42.73
38.93
33.30
26.43
19.11
12.09
5.83
0.28
-4.93
-10.34
-16.35
-23.08
-30.26
-37.40
-43.91
-49.38
-53.76
-57.45
-61.21
-65.96
-72.43
-80.72
-90.02
-98.51
-103.63
-102.90
-94.59
-78.51
-56.09
-30.15
-4.03
19.24
37.62
50.38
57.79
60.87
60.91
59.11
56.40
53.38
50.42
47.66
45.30
43.53
42.55
42.50
43.29
44.61
46.00
47.04
47.40
46.89
45.42
42.92
39.34
34.70
29.15
23.06
16.79
10.68
4.86
-0.78
-6.42
-12.15
-17.94
-23.58
-28.94
-34.09
-39.33
-45.06
-51.53
-58.68
-66.10
-73.22
-79.53
-84.79
-89.22
-93.37
-97.98
-103.86
-111.52
-120.93
-131.18
-140.47
-146.31
-146.20
-138.34
-122.40
-99.71
-72.93
-45.42
-20.31
0.16
14.97
24.24
28.85
29.97
28.74
26.07
22.57
18.67
14.73
11.01
7.64
4.67
1.98
-0.47
-2.64
-4.25
-4.96
-4.41
-2.53
0.48
4.08
7.53
10.12
11.34
11.01
9.48
7.64
6.72
8.00
12.26
19.45
28.57
37.91
45.57
49.97
50.22
46.14
38.14
27.10
14.20
0.80
-11.71
-22.19
-30.05
-35.43
-39.22
-42.84
-47.81
-55.18
-65.02
-76.12
-86.03
-91.60
-89.92
-79.30
-59.99
-34.15
-5.34
22.59
46.49
64.58
76.56
83.28
86.21
86.87
86.48
85.83
85.30
85.05
85.20
85.94
87.42
89.70
92.60
95.73
98.54
100.57
101.56
101.42
100.21
97.94
94.58
90.09
84.52
78.15
71.59
65.58
60.79
57.57
55.82
54.98
54.30
53.03
50.63
46.93
42.00
36.18
29.94
23.77
18.00
12.78
7.90
2.90
-2.86
-10.04
-19.07
-29.91
-41.87
-53.44
-62.49
-66.69
-64.14
-53.99
-36.84
-14.55
10.32
35.18
58.00
77.47
92.74
103.31
108.77
108.97
104.10
94.87
82.39
68.08
53.41
39.69
27.92
18.64
11.90
7.28
4.03
1.35
-1.40
-4.49
-7.90
-11.41
-14.77
-17.78
-20.27
-22.03
-22.82
-22.50
-21.08
-18.89
-16.49
-14.56
-13.71
-14.34
-16.54
-20.23
-25.20
-31.17
-37.82
-44.74
-51.41
-57.31
-62.09
-65.74
-68.67
-71.67
-75.64
-81.18
-88.21
-95.63
-101.33
-102.55
-96.67
-82.05
-58.81
-28.95
4.03
36.17
64.11
85.92
101.27
111.03
116.60
119.30
119.97
119.09
116.96
113.97
110.64
107.60
105.31
103.91
103.23
102.80
102.04
100.46
97.72
93.67
88.32
81.73
73.95
65.10
55.35
45.05
34.62
24.56
15.25
6.94
-0.38
-6.89
-12.85
-18.49
-24.01
-29.53
-35.15
-40.91
-46.86
-52.96
-59.13
-65.18
-70.99
-76.39
-81.32
-85.82
-90.08
-94.50
-99.63
-105.90
-113.28
-120.91
-126.98
-129.11
-125.08
-113.70
-95.36
-72.09
-47.02
-23.44
-3.95
10.08
18.58
22.41
22.91
21.32
18.61
15.37
11.91
8.36
4.87
1.56
-1.42
-3.93
-5.86
-7.07
-7.41
-6.79
-5.20
-2.81
-0.04
2.51
4.23
4.57
3.31
0.52
-3.47
-8.19
-13.21
-18.25
-23.19
-28.01
-32.72
-37.26
-41.50
-45.35
-48.80
-51.97
-55.06
-58.19
-61.31
-64.22
-66.64
-68.41
-69.59
-70.51
-71.74
-73.96
-77.72
-83.19
-89.80
-96.02
-99.50
-97.57
-88.15
-70.60
-46.10
-17.49
11.63
37.94
59.24
74.80
85.05
91.02
93.76
94.02
92.30
88.99
84.55
79.60
74.75
70.48
66.99
64.23
61.99
60.01
58.14
56.31
54.54
52.78
50.89
48.61
45.61
41.64
36.54
30.46
23.75
16.97
10.64
5.11
0.47
-3.46
-6.98
-10.48
-14.27
-18.51
-23.18
-28.12
-33.02
-37.52
-41.38
-44.60
-47.42
-50.35
-54.02
-59.00
-65.63
-73.74
-82.42
-89.97
-94.09
-92.35
-83.08
-65.95
-42.35
-15.08
12.48
37.29
57.35
71.99
81.58
86.96
89.00
88.28
85.07
79.60
72.24
63.57
54.48
45.92
38.72
33.45
30.29
29.09
29.46
30.97
33.17
35.72
38.30
40.53
42.02
42.36
41.22
38.51
34.43
29.50
24.37
19.68
15.81
12.81
10.45
8.27
5.85
2.90
-0.67
-4.76
-9.18
-13.71
-18.21
-22.63
-27.04
-31.65
-36.85
-43.15
-51.09
-60.89
-72.10
-83.30
-92.24
-96.25
-93.09
-81.77
-63.06
-39.37
-14.02
9.61
29.01
42.89
51.19
54.65
54.40
51.54
47.04
41.70
36.14
30.86
26.19
22.27
19.11
16.58
14.55
12.87
11.50
10.42
9.62
9.02
8.46
7.69
6.45
4.52
1.79
-1.66
-5.63
-9.80
-13.87
-17.64
-21.02
-24.04
-26.75
-29.26
-31.66
-34.13
-36.82
-39.86
-43.27
-46.89
-50.44
-53.63
-56.30
-58.53
-60.63
-63.10
-66.48
-71.24
-77.47
-84.62
-91.34
-95.49
-94.67
-86.94
-71.64
-49.75
-23.76
3.07
27.58
47.55
61.98
70.98
75.31
75.93
73.68
69.24
63.29
56.55
49.83
43.96
39.56
36.86
35.74
35.79
36.52
37.49
38.41
39.11
39.44
39.21
38.11
35.77
31.90
26.35
19.32
11.36
3.26
-4.17
-10.28
-14.91
-18.41
-21.49
-24.92
-29.17
-34.24
-39.70
-44.91
-49.40
-53.07
-56.26
-59.62
-63.82
-69.35
-76.35
-84.53
-93.03
-100.38
-104.62
-103.63
-95.79
-80.59
-59.05
-33.57
-7.36
16.51
35.79
49.48
57.73
61.45
61.80
59.87
56.51
52.40
48.12
44.19
41.06
39.04
38.17
38.30
39.12
40.27
41.42
42.35
42.91
42.98
42.46
41.25
39.24
36.42
32.79
28.38
23.29
17.66
11.72
5.80
0.23
-4.76
-9.11
-13.01
-16.85
-21.02
-25.79
-31.19
-36.95
-42.68
-48.00
-52.73
-57.00
-61.18
-65.83
-71.56
-78.84
-87.79
-97.82
-107.45
-114.35
-115.87
-109.77
-95.14
-72.91
-45.71
-17.16
9.17
30.69
46.28
56.15
61.41
63.44
63.40
62.05
59.85
57.11
54.14
51.37
49.23
48.05
47.92
48.60
49.70
50.78
51.61
52.09
52.32
52.33
51.99
51.04
49.15
46.08
41.77
36.46
30.56
24.56
18.92
13.87
9.39
5.20
0.85
-4.11
-9.98
-16.77
-24.14
-31.54
-38.37
-44.25
-49.13
-53.35
-57.48
-62.24
-68.26
-75.88
-84.94
-94.62
-103.25
-108.55
-108.07
-100.01
-83.91
-61.04
-34.14
-6.72
17.95
37.69
51.68
60.23
64.30
64.95
63.08
59.46
54.80
49.85
45.33
41.80
39.52
38.44
38.26
38.65
39.37
40.31
41.42
42.56
43.41
43.47
42.26
39.44
34.98
29.23
22.78
16.25
10.05
4.28
-1.28
-6.97
-13.09
-19.61
-26.20
-32.37
-37.65
-41.87
-45.21
-48.21
-51.58
-56.01
-61.99
-69.50
-77.81
-85.42
-90.07
-89.41
-81.69
-66.46
-44.99
-19.96
5.28
27.69
45.28
57.40
64.42
67.27
66.96
64.29
59.90
54.45
48.67
43.37
39.28
36.80
35.96
36.48
37.92
39.83
41.85
43.73
45.12
45.58
44.58
41.69
36.81
30.18
22.48
14.54
7.14
0.68
-4.86
-9.95
-15.21
-21.08
-27.65
-34.57
-41.20
-46.98
-51.70
-55.69
-59.72
-64.81
-71.68
-80.43
-90.12
-98.84
-103.98
-103.04
-94.34
-77.77
-54.95
-28.78
-2.72
20.26
38.30
50.83
58.35
61.88
62.50
61.12
58.46
55.10
51.58
48.43
46.08
44.77
44.50
45.01
45.88
46.72
47.28
47.51
47.53
47.45
47.23
46.63
45.15
42.29
37.80
31.78
24.76
17.53
10.82
5.07
0.29
-3.97
-8.36
-13.39
-19.30
-25.84
-32.46
-38.56
-43.68
-47.76
-51.16
-54.50
-58.54
-63.96
-71.21
-80.20
-90.16
-99.42
-105.60
-106.15
-99.14
-84.03
-62.05
-35.97
-9.25
14.86
34.22
48.05
56.69
61.08
62.33
61.36
58.93
55.71
52.25
49.15
46.82
45.47
45.06
45.39
46.16
47.14
48.20
49.25
50.19
50.79
50.74
49.69
47.40
43.82
39.17
33.89
28.44
23.22
18.42
13.97
9.68
5.33
0.84
-3.72
-8.14
-12.25
-15.99
-19.55
-23.23
-27.31
-31.95
-37.02
-42.24
-47.29
-51.96
-56.24
-60.38
-64.82
-70.18
-77.01
-85.46
-94.85
-103.51
-108.99
-108.57
-100.27
-83.61
-59.97
-32.33
-4.33
20.71
40.61
54.55
62.94
66.82
67.37
65.64
62.48
58.55
54.44
50.73
47.84
46.05
45.39
45.66
46.57
47.77
49.00
50.07
50.84
51.14
50.78
49.53
47.20
43.76
39.30
34.06
28.33
22.41
16.52
10.87
5.63
0.90
-3.23
-6.82
-10.09
-13.35
-16.98
-21.18
-25.94
-30.98
-35.89
-40.36
-44.31
-48.08
-52.25
-57.55
-64.55
-73.43
-83.67
-94.00
-102.32
-106.17
-103.29
-92.35
-73.55
-48.84
-21.38
5.26
28.09
45.39
56.89
63.32
65.91
65.75
63.61
60.04
55.56
50.88
46.80
44.04
42.94
43.39
44.86
46.68
48.33
49.57
50.43
50.98
51.25
50.98
49.85
47.56
43.97
39.23
33.69
27.72
21.67
15.76
10.11
4.77
-0.21
-4.89
-9.35
-13.78
-18.39
-23.37
-28.73
-34.29
-39.74
-44.75
-49.15
-53.01
-56.69
-60.72
-65.72
-72.23
-80.37
-89.61
-98.54
-104.99
-106.41
-100.65
-86.80
-65.67
-39.74
-12.46
12.71
33.27
48.10
57.35
62.02
63.34
62.35
59.82
56.29
52.23
48.14
44.55
41.86
40.26
39.66
39.77
40.18
40.61
40.90
41.04
41.08
40.94
40.41
39.14
36.81
33.30
28.70
23.32
17.58
11.87
6.48
1.54
-2.94
-7.08
-11.03
-15.08
-19.48
-24.48
-30.16
-36.35
-42.74
-48.83
-54.21
-58.69
-62.42
-65.94
-70.02
-75.46
-82.75
-91.74
-101.30
-109.38
-113.32
-110.60
-99.65
-80.51
-54.98
-26.13
2.45
27.66
47.52
61.41
69.76
73.60
74.07
72.11
68.50
63.84
58.82
54.16
50.54
48.43
47.93
48.77
50.41
52.30
54.01
55.38
56.31
56.71
56.38
55.03
52.44
48.46
43.23
37.02
30.21
23.26
16.53
10.32
4.80
-0.06
-4.52
-8.94
-13.71
-19.04
-24.92
-31.09
-37.14
-42.65
-47.38
-51.32
-54.76
-58.21
-62.39
-67.94
-75.33
-84.47
-94.38
-103.24
-108.49
-107.63
-98.93
-82.20
-59.04
-32.51
-6.21
16.71
34.32
46.08
52.54
54.77
53.80
50.52
45.57
39.62
33.44
27.81
23.43
20.64
19.44
19.50
20.44
21.85
23.42
24.91
26.08
26.66
26.36
24.94
22.23
18.23
13.01
6.81
0.02
-6.97
-13.68
-19.77
-25.03
-29.51
-33.43
-37.19
-41.16
-45.64
-50.86
-56.90
-63.78
-71.46
-79.84
-88.74
-97.99
-107.43
-116.95
-126.54
-136.11
-145.27
-152.97
-157.30
-155.67
-145.38
-124.52
-92.87
-52.40
-7.05
38.08
78.03
109.13
129.61
139.68
140.86
135.31
125.25
112.73
99.54
87.19
76.79
68.88
63.46
60.05
58.06
57.15
57.38
59.03
62.31
67.04
72.58
77.93
82.15
84.58
84.95
83.34
79.95
74.91
68.27
60.08
50.58
40.25
29.85
20.12
11.52
4.06
-2.65
-9.17
-15.96
-23.07
-30.20
-36.88
-42.76
-47.87
-52.64
-57.87
-64.34
-72.70
-83.04
-94.69
-106.18
-115.23
-119.17
-115.65
-103.33
-82.40
-54.85
-23.88
6.86
34.21
56.14
71.92
81.88
86.90
88.09
86.45
82.89
78.22
73.17
68.42
64.49
61.76
60.36
60.20
60.95
62.16
63.32
64.05
64.21
63.79
62.83
61.32
59.09
55.84
51.36
45.60
38.80
31.43
24.05
17.13
10.95
5.57
0.77
-3.80
-8.65
-14.23
-20.82
-28.39
-36.60
-44.92
-52.79
-59.84
-66.00
-71.54
-76.92
-82.72
-89.32
-96.73
-104.26
-110.46
-113.19
-110.14
-99.57
-81.03
-55.73
-26.39
3.52
30.67
52.69
68.53
78.35
83.10
83.88
81.69
77.33
71.49
64.98
58.70
53.54
50.15
48.76
49.13
50.63
52.55
54.21
55.23
55.37
54.53
52.65
49.65
45.46
40.07
33.61
26.34
18.67
11.11
4.18
-1.81
-6.78
-10.97
-14.86
-18.96
-23.68
-29.14
-35.16
-41.36
-47.29
-52.63
-57.25
-61.29
-65.08
-69.14
-74.05
-80.35
-88.28
-97.45
-106.70
-114.00
-116.92
-113.21
-101.70
-82.74
-58.27
-31.29
-5.03
17.87
35.82
48.33
55.77
58.91
58.71
56.15
52.11
47.44
42.86
38.97
36.22
34.86
34.89
36.16
38.31
40.84
43.24
45.03
45.86
45.57
44.13
41.65
38.32
34.31
29.75
24.74
19.33
13.67
7.95
2.46
-2.52
-6.85
-10.59
-14.08
-17.77
-22.05
-27.07
-32.65
-38.34
-43.59
-48.06
-51.72
-54.94
-58.32
-62.59
-68.34
-75.90
-85.06
-94.90
-103.66
-108.98
-108.43
-100.32
-84.36
-62.01
-36.10
-10.02
13.17
31.53
44.45
52.36
56.28
57.30
56.34
54.09
51.09
47.85
44.86
42.52
41.07
40.48
40.53
40.92
41.38
41.80
42.16
42.42
42.46
42.05
40.90
38.77
35.56
31.36
26.44
21.14
15.79
10.69
5.99
1.75
-2.11
-5.72
-9.27
-12.95
-16.95
-21.43
-26.43
-31.86
-37.48
-43.00
-48.11
-52.73
-57.06
-61.60
-67.08
-74.12
-82.93
-93.00
-102.91
-110.52
-113.40
-109.56
-98.03
-79.30
-55.30
-28.96
-3.37
18.92
36.41
48.75
56.45
60.49
61.93
61.56
59.91
57.38
54.34
51.26
48.58
46.61
45.53
45.31
45.69
46.32
46.87
47.12
46.95
46.19
44.60
42.07
38.66
34.40
29.35
23.60
17.42
11.15
5.00
-1.18
-7.22
-12.83
-17.98
-22.91
-28.02
-33.50
-39.44
-46.07
-54.25
-64.30
-76.36
-90.62
-107.33
-126.28
-146.23
-164.97
-179.70
-187.89
-186.23
-171.88
-143.94
-104.12
-56.19
-4.59
46.58
94.37
130.96
148.30
143.22
120.10
87.17
51.50
17.40
-12.90
-36.02
-53.21
-64.55
-69.64
-68.47
-61.91
-50.95
-35.62
-16.64
6.31
33.17
64.29
98.93
134.30
165.65
187.90
197.71
194.52
180.64
159.58
135.81
113.09
93.52
77.40
63.75
51.12
37.84
22.61
4.37
-16.61
-39.05
-61.19
-81.50
-99.32
-114.89
-129.16
-143.18
-157.81
-173.11
-188.52
-203.22
-216.35
-227.04
-234.19
-236.10
-230.38
-214.63
-187.23
-148.45
-101.02
-49.61
0.36
44.20
78.81
102.82
116.04
118.87
112.13
97.19
76.52
53.51
32.05
15.59
6.30
4.78
10.16
20.71
34.35
49.19
63.57
76.24
86.42
93.97
99.33
103.44
107.40
111.96
117.27
122.69
127.05
129.09
128.01
123.63
116.42
107.18
96.64
85.27
73.27
60.68
47.47
33.44
18.18
1.12
-18.17
-39.57
-62.05
-83.74
-102.48
-116.53
-124.98
-127.90
-125.87
-119.61
-109.73
-96.98
-82.63
-68.51
-56.79
-49.24
-46.51
-47.76
-50.97
-53.83
-54.64
-52.85
-48.92
-43.70
-37.66
-30.52
-21.47
-9.90
3.95
18.80
32.87
44.65
53.64
60.45
66.24
71.96
77.83
83.38
88.05
91.71
94.80
97.99
101.58
105.15
107.63
107.90
105.42
100.48
94.04
87.20
80.75
74.97
69.70
64.67
59.80
55.12
50.69
46.33
41.63
36.05
29.16
20.69
10.59
-1.04
-13.91
-27.42
-40.55
-51.89
-59.94
-63.50
-62.12
-56.26
-47.10
-36.26
-25.25
-15.19
-6.67
0.21
5.62
9.84
13.14
15.65
17.47
18.70
19.56
20.36
21.48
23.18
25.54
28.44
31.62
34.83
37.92
40.80
43.44
45.72
47.51
48.59
48.82
48.13
46.59
44.33
41.47
38.15
34.48
30.68
26.93
23.36
20.01
16.79
13.56
10.24
6.88
3.61
0.55
-2.33
-5.23
-8.50
-12.48
-17.48
-23.65
-31.02
-39.45
-48.51
-57.35
-64.78
-69.36
-69.91
-65.82
-57.30
-45.41
-31.76
-18.04
-5.62
4.77
13.04
19.56
24.93
29.66
34.00
37.97
41.50
44.54
47.18
49.70
52.39
55.46
59.05
63.15
67.68
72.48
77.16
81.03
83.10
82.23
77.54
68.75
56.42
41.82
26.53
11.94
-1.23
-12.90
-23.57
-33.73
-43.66
-53.30
-62.30
-70.36
-77.36
-83.37
-88.55
-92.99
-96.69
-99.58
-101.68
-103.19
-104.52
-106.22
-108.77
-112.42
-117.01
-121.86
-125.78
-127.28
-124.93
-117.86
-106.01
-90.21
-71.94
-52.93
-34.66
-18.12
-3.74
8.45
18.67
27.13
34.03
39.43
43.37
45.87
46.88
46.39
44.42
41.17
37.11
32.97
29.69
28.11
28.78
31.69
36.30
41.72
47.04
51.63
55.18
57.77
59.59
60.90
61.79
62.32
62.57
62.65
62.73
62.90
63.13
63.15
62.50
60.68
57.33
52.42
46.25
39.27
31.99
24.58
16.89
8.35
-1.75
-14.06
-28.76
-45.46
-63.19
-80.53
-95.97
-108.08
-115.75
-118.29
-115.49
-107.75
-95.93
-81.38
-65.55
-49.80
-35.09
-21.93
-10.41
-0.42
8.18
15.51
21.71
26.98
31.61
35.97
40.40
45.16
50.32
55.79
61.32
66.61
71.37
75.40
78.62
80.97
82.40
82.84
82.18
80.42
77.66
74.10
69.93
65.27
60.02
53.87
46.38
37.07
25.55
11.70
-4.25
-21.59
-39.22
-55.81
-70.13
-81.33
-89.13
-93.93
-96.66
-98.51
-100.57
-103.44
-107.00
-110.34
-112.08
-110.75
-105.38
-95.78
-82.66
-67.35
-51.43
-36.35
-23.21
-12.62
-4.78
0.55
3.88
5.90
7.22
8.23
8.99
9.34
9.12
8.31
7.14
6.05
5.45
5.59
6.49
7.95
9.67
11.39
12.91
14.12
14.93
15.26
15.02
14.17
12.66
10.54
7.91
4.91
1.73
-1.40
-4.33
-6.99
-9.41
-11.76
-14.27
-17.15
-20.52
-24.33
-28.33
-32.21
-35.65
-38.48
-40.78
-42.95
-45.46
-48.71
-52.67
-56.76
-59.88
-60.71
-58.08
-51.39
-40.84
-27.34
-12.33
2.61
16.14
27.28
35.60
41.11
44.17
45.33
45.18
44.28
43.09
41.95
41.05
40.52
40.42
40.76
41.54
42.71
44.17
45.73
47.20
48.29
48.82
48.67
47.79
46.20
43.90
40.85
36.99
32.32
26.93
21.13
15.31
9.88
5.13
1.11
-2.40
-5.74
-9.25
-13.15
-17.41
-21.79
-26.04
-29.90
-33.30
-36.36
-39.34
-42.62
-46.56
-51.45
-57.32
-63.83
-70.11
-74.95
-76.95
-74.94
-68.38
-57.56
-43.66
-28.43
-13.73
-1.01
8.94
16.01
20.65
23.48
25.00
25.57
25.38
24.62
23.59
22.74
22.47
23.10
24.65
26.88
29.41
31.83
33.86
35.41
36.52
37.21
37.43
37.04
35.88
33.81
30.82
27.07
22.83
18.40
14.01
9.82
5.86
2.08
-1.56
-5.16
-8.87
-12.80
-17.07
-21.66
-26.47
-31.27
-35.93
-40.41
-44.86
-49.62
-55.03
-61.32
-68.42
-75.85
-82.69
