1539033642.00
64.000000
-0.00
-0.00
-0.00
-0.00
-0.00
-0.00
-0.00
-0.00
-0.00
-0.00
0.00
0.01
0.01
-0.00
-0.03
-0.05
-0.05
0.00
0.13
0.36
0.66
1.01
1.37
1.72
2.06
2.40
2.79
3.24
3.80
4.42
5.06
5.66
6.20
6.68
7.15
7.68
8.31
9.14
10.09
11.04
11.88
12.56
13.14
13.76
14.65
15.96
17.91
20.32
22.90
25.38
27.58
29.57
31.68
34.32
37.81
42.54
48.15
54.10
59.83
64.97
69.58
74.14
79.34
85.71
93.76
103.00
112.62
121.73
129.77
136.75
143.30
150.75
157.77
166.64
177.95
191.79
206.97
220.57
228.25
225.36
208.53
176.87
132.76
80.05
23.07
-34.94
-92.44
-149.16
-205.23
-260.37
-313.74
-363.87
-409.83
-450.91
-486.50
-515.74
-537.23
-549.22
-549.96
-538.37
-514.21
-478.67
-433.88
-382.45
-327.02
-269.84
-212.63
-156.66
-102.95
-52.37
-5.90
35.58
71.43
101.35
125.50
144.38
158.69
169.15
176.37
180.75
182.57
182.07
179.51
175.23
169.65
163.18
156.15
148.81
141.30
133.69
126.02
118.33
110.69
103.16
95.80
88.68
81.83
75.25
68.95
62.95
57.25
51.86
46.78
42.03
37.59
33.45
29.61
26.07
22.81
19.83
17.11
14.67
12.48
10.54
8.83
7.35
6.07
4.97
4.05
3.27
2.62
2.09
1.65
1.30
1.01
0.79
0.61
0.47
0.37
0.28
0.22
0.18
0.15
0.13
0.12
0.12
0.12
0.14
0.16
0.18
0.22
0.25
0.29
0.33
0.38
0.42
0.46
0.51
0.56
0.62
0.67
0.73
0.79
0.86
0.94
1.02
1.11
1.21
1.32
1.45
1.58
1.74
1.92
2.11
2.33
2.56
2.83
3.12
3.45
3.80
4.19
4.61
5.06
5.56
6.09
6.66
7.27
7.93
8.63
9.38
10.17
11.00
11.88
12.80
13.78
14.82
15.92
17.08
18.30
19.56
20.83
22.06
23.18
24.09
24.66
24.81
24.38
23.32
21.56
19.09
15.96
12.24
8.11
3.73
-0.68
-4.94
-8.85
-12.25
-15.03
-17.12
-18.49
-19.18
-19.29
-18.92
-18.19
-17.22
-16.07
-14.78
-13.33
-11.73
-9.96
-8.07
-6.11
-4.16
-2.25
-0.38
1.48
3.35
5.33
7.46
9.63
11.74
13.72
15.57
17.33
19.13
21.17
23.61
26.62
29.91
33.21
36.28
38.99
41.38
43.67
46.18
49.25
53.13
57.32
61.30
64.59
66.94
68.38
69.30
70.24
71.72
74.02
76.34
77.73
77.23
74.13
68.08
58.97
46.56
29.84
11.91
-6.73
-26.20
-46.98
-69.68
-94.90
-122.93
-153.13
-183.49
-210.50
-230.55
-240.37
-238.40
-225.51
-204.72
-179.97
-154.64
-130.69
-108.48
-88.14
-69.62
-53.19
-39.37
-28.44
-20.13
-13.64
-7.94
-2.21
3.53
8.91
13.36
16.46
18.16
18.80
18.95
19.13
19.58
20.07
20.17
19.54
18.09
16.01
13.65
11.22
8.71
5.84
2.28
-2.02
-6.68
-10.85
-13.43
-13.38
-10.03
-3.34
6.04
16.93
27.79
37.13
43.82
47.31
47.74
45.78
42.43
38.64
35.12
32.21
29.97
28.34
27.31
26.92
27.21
28.13
29.43
30.74
31.67
31.95
31.53
30.52
29.12
27.49
25.70
23.72
21.48
18.90
15.99
12.83
9.60
6.52
3.72
1.26
-0.96
-3.09
-5.31
-7.80
-10.73
-14.24
-18.37
-23.01
-27.77
-31.96
-34.69
-35.11
-32.64
-27.20
-19.31
-9.95
-0.39
8.17
14.83
19.17
21.21
21.30
19.92
17.53
14.52
11.28
8.22
5.81
4.42
4.22
5.08
6.60
8.29
9.75
10.77
11.35
11.59
11.58
11.26
10.50
9.15
7.14
4.56
1.66
-1.28
-4.00
-6.37
-8.34
-10.04
-11.62
-13.33
-15.44
-18.16
-21.65
-25.80
-30.30
-34.52
-37.72
-39.08
-37.95
-34.01
-27.38
-18.65
-8.80
0.96
9.52
16.02
20.09
21.74
21.29
19.21
16.00
12.22
8.43
5.24
3.13
2.34
2.78
4.06
5.68
7.23
8.48
9.42
10.16
10.76
11.17
11.21
10.67
9.45
7.61
5.31
2.78
0.20
-2.34
-4.79
-7.13
-9.34
-11.35
-13.25
-15.15
-17.34
-20.07
-23.46
-27.29
-31.00
-33.71
-34.46
-32.54
-27.63
-20.08
-10.76
-0.90
8.33
16.02
21.71
25.34
27.02
26.96
25.39
22.57
18.97
15.23
12.06
10.04
9.45
10.17
11.75
13.67
15.44
16.78
17.61
18.02
18.05
17.74
17.03
15.86
14.18
12.01
9.42
6.55
3.57
0.65
-2.04
-4.43
-6.49
-8.29
-10.03
-11.91
-14.16
-16.92
-20.16
-23.63
-26.84
-29.17
-29.88
-28.36
-24.22
-17.52
-8.75
1.15
11.06
19.83
26.57
30.77
32.38
31.66
29.12
25.35
20.95
16.50
12.53
9.50
7.71
7.22
7.82
9.09
10.52
11.70
12.42
12.76
12.86
12.89
12.79
12.30
11.08
8.89
5.71
1.88
-2.08
-5.66
-8.50
-10.55
-12.09
-13.58
-15.50
-18.18
-21.64
-25.48
-29.04
-31.48
-32.01
-30.12
-25.65
-18.90
-10.55
-1.52
7.20
14.71
20.41
24.05
25.68
25.55
23.99
21.30
17.77
13.70
9.47
5.56
2.38
0.23
-0.83
-0.97
-0.49
0.28
1.06
1.59
1.72
1.27
0.15
-1.65
-4.03
-6.79
-9.72
-12.68
-15.65
-18.71
-22.00
-25.62
-29.52
-33.46
-36.99
-39.48
-40.23
-38.66
-34.47
-27.79
-19.20
-9.65
-0.22
8.13
14.72
19.22
21.62
22.09
20.89
18.36
14.97
11.24
7.77
5.01
3.18
2.22
1.88
1.88
1.98
2.12
2.20
2.13
1.68
0.61
-1.25
-3.89
-7.08
-10.49
-13.78
-16.74
-19.38
-21.93
-24.71
-27.95
-31.64
-35.38
-38.46
-39.98
-39.09
-35.32
-28.67
-19.71
-9.37
1.20
10.93
18.95
24.73
28.07
29.02
27.89
25.10
21.24
17.00
13.09
10.09
8.28
7.63
7.87
8.59
9.45
10.25
10.95
11.48
11.74
11.49
10.50
8.60
5.81
2.35
-1.43
-5.15
-8.53
-11.48
-14.13
-16.82
-19.99
-23.93
-28.62
-33.57
-37.85
-40.33
-40.05
-36.49
-29.77
-20.60
-10.02
0.80
10.83
19.23
25.41
29.07
30.17
28.94
25.90
21.75
17.25
13.06
9.67
7.31
5.99
5.54
5.73
6.29
7.03
7.81
8.56
9.18
9.49
9.28
8.30
6.43
3.76
0.64
-2.49
-5.16
-7.10
-8.34
-9.22
-10.27
-12.03
-14.88
-18.85
-23.62
-28.46
-32.42
-34.51
-33.89
-30.10
-23.14
-13.56
-2.28
9.45
20.36
29.35
35.66
39.02
39.57
37.83
34.48
30.25
25.85
21.84
18.64
16.49
15.44
15.37
16.03
17.08
18.19
19.07
19.49
19.31
18.44
16.81
14.42
11.34
7.70
3.77
-0.12
-3.62
-6.49
-8.73
-10.58
-12.55
-15.16
-18.78
-23.35
-28.34
-32.79
-35.54
-35.57
-32.31
-25.85
-16.85
-6.45
4.05
13.48
20.96
25.99
28.46
28.49
26.48
22.94
18.50
13.82
9.51
6.05
3.70
2.46
2.18
2.57
3.36
4.30
5.19
5.84
6.02
5.51
4.11
1.74
-1.51
-5.36
-9.41
-13.26
-16.64
-19.54
-22.20
-25.03
-28.42
-32.47
-36.84
-40.74
-43.14
-43.04
-39.84
-33.50
-24.57
-14.04
-3.08
7.14
15.66
21.74
25.03
25.49
23.42
19.43
14.31
8.91
3.97
0.11
-2.32
-3.20
-2.67
-1.06
1.15
3.49
5.55
7.04
7.81
7.74
6.77
4.87
2.09
-1.39
-5.26
-9.16
-12.76
-15.92
-18.69
-21.38
-24.40
-28.03
-32.36
-37.05
-41.38
-44.36
-44.93
-42.32
-36.21
-26.98
-15.57
-3.38
8.16
17.91
25.15
29.65
31.55
31.21
29.04
25.54
21.28
16.96
13.26
10.76
9.72
10.06
11.41
13.27
15.15
16.74
17.90
18.54
18.61
18.00
16.56
14.25
11.11
7.35
3.26
-0.83
-4.67
-8.11
-11.18
-14.13
-17.28
-20.95
-25.23
-29.89
-34.27
-37.40
-38.25
-36.03
-30.50
-22.01
-11.48
-0.14
10.74
20.14
27.34
31.98
33.97
33.48
30.95
26.99
22.43
18.16
14.89
13.08
12.77
13.63
15.11
16.63
17.79
18.42
18.63
18.60
18.44
18.07
17.25
15.74
13.43
10.46
7.16
3.87
0.80
-2.04
-4.73
-7.47
-10.39
-13.66
-17.40
-21.67
-26.24
-30.59
-33.80
-34.84
-32.92
-27.77
-19.80
-9.89
0.78
11.12
20.21
27.40
32.27
34.68
34.76
32.95
29.95
26.50
23.26
20.68
19.01
18.28
18.39
19.13
20.19
21.19
21.80
21.82
21.25
20.17
18.69
16.79
14.32
11.18
7.37
3.18
-0.96
-4.56
-7.40
-9.59
-11.52
-13.75
-16.74
-20.66
-25.34
-30.20
-34.44
-37.17
-37.58
-35.18
-29.88
-22.10
-12.69
-2.76
6.56
14.39
20.19
23.83
25.51
25.54
24.31
22.22
19.69
17.18
15.16
13.98
13.80
14.49
15.74
17.13
18.34
19.18
19.57
19.49
18.87
17.57
15.47
12.52
8.79
4.53
0.04
-4.41
-8.67
-12.77
-16.86
-21.19
-25.88
-30.80
-35.51
-39.31
-41.36
-41.01
-37.90
-32.16
-24.38
-15.41
-6.22
2.32
9.53
15.01
18.57
20.21
20.10
18.59
16.15
13.36
10.80
8.92
7.93
7.79
8.24
8.95
9.64
10.16
10.50
10.63
10.50
9.93
8.72
6.76
4.07
0.84
-2.65
-6.14
-9.53
-12.81
-16.06
-19.45
-23.14
-27.27
-31.88
-36.77
-41.44
-45.17
-47.08
-46.47
-43.06
-37.10
-29.28
-20.50
-11.61
-3.26
4.13
10.28
14.96
17.96
19.20
18.80
17.20
15.02
12.98
11.62
11.18
11.60
12.58
13.75
14.77
15.50
15.87
15.96
15.80
15.38
14.59
13.22
11.12
8.21
4.66
0.83
-2.87
-6.14
-8.92
-11.43
-14.02
-17.03
-20.60
-24.73
-29.21
-33.70
-37.71
-40.62
-41.75
-40.47
-36.45
-29.78
-21.09
-11.35
-1.69
6.92
13.87
18.91
22.13
23.84
24.38
24.13
23.44
22.68
22.15
22.15
22.81
24.13
25.98
28.10
30.20
31.94
33.06
33.40
32.89
31.58
29.62
27.19
24.39
21.28
17.89
14.20
10.28
6.20
2.07
-1.99
-5.87
-9.53
-12.92
-16.09
-19.19
-22.40
-25.95
-29.91
-34.13
-38.13
-41.21
-42.60
-41.68
-38.12
-32.04
-23.91
-14.50
-4.65
4.76
13.01
19.61
24.31
27.09
28.23
28.14
27.29
26.13
25.00
24.09
23.48
23.17
23.07
23.11
23.21
23.34
23.48
23.58
23.50
23.06
22.08
20.45
18.22
15.56
12.69
9.85
7.18
4.70
2.37
0.11
-2.12
-4.35
-6.58
-8.84
-11.11
-13.48
-16.04
-18.89
-22.10
-25.57
-28.99
-31.86
-33.55
-33.46
-31.21
-26.79
-20.53
-13.07
-5.17
2.50
9.40
15.13
19.44
22.11
23.03
22.24
20.06
17.12
14.16
11.89
10.67
10.53
11.17
12.15
13.11
13.83
14.28
14.52
14.56
14.33
13.73
12.59
10.82
8.52
5.87
3.08
0.29
-2.48
-5.33
-8.27
-11.24
-14.04
-16.54
-18.82
-21.20
-24.08
-27.66
-31.65
-35.27
-37.43
-37.21
-34.14
-28.43
-20.83
-12.33
-3.87
3.85
10.40
15.55
19.22
21.30
21.79
20.76
18.47
15.31
11.90
8.84
6.62
5.46
5.24
5.60
6.13
6.49
6.55
6.39
6.10
5.71
5.11
4.04
2.23
-0.44
-3.89
-7.78
-11.69
-15.27
-18.37
-21.07
-23.67
-26.52
-29.87
-33.77
-38.05
-42.30
-45.98
-48.46
-49.08
-47.35
-43.03
-36.25
-27.53
-17.70
-7.67
1.69
9.69
15.91
20.12
22.31
22.64
21.46
19.21
16.46
13.74
11.49
10.00
9.32
9.35
9.88
10.67
11.55
12.37
13.06
13.50
13.60
13.19
12.09
10.19
7.43
3.92
-0.08
-4.23
-8.19
-11.67
-14.61
-17.13
-19.51
-22.14
-25.32
-29.17
-33.48
-37.74
-41.21
-43.00
-42.37
-38.85
-32.46
-23.68
-13.40
-2.69
7.41
16.11
22.95
27.72
30.47
31.35
30.63
28.70
26.01
23.06
20.37
18.33
17.18
16.96
17.51
18.57
19.73
20.65
21.08
20.92
20.29
19.29
18.00
16.32
14.06
11.08
7.43
3.36
-0.76
-4.56
-7.86
-10.72
-13.36
-16.01
-18.89
-22.15
-25.88
-30.12
-34.74
-39.36
-43.30
-45.64
-45.49
-42.26
-35.89
-26.91
-16.30
-5.17
5.42
14.68
22.10
27.42
30.52
31.43
30.37
27.75
24.15
20.26
16.73
14.06
12.51
12.08
12.59
13.69
15.02
16.24
17.16
17.67
17.76
17.38
16.46
14.86
12.50
9.39
5.71
1.74
-2.22
-5.93
-9.23
-12.09
-14.62
-17.00
-19.55
-22.59
-26.33
-30.67
-35.10
-38.80
-40.75
-40.16
-36.62
-30.28
-21.75
-11.92
-1.77
7.81
16.11
22.65
27.06
29.19
29.04
26.87
23.19
18.76
14.40
10.79
8.36
7.13
6.88
7.32
8.20
9.39
10.78
12.17
13.20
13.51
12.83
11.10
8.50
5.31
1.81
-1.82
-5.50
-9.17
-12.80
-16.43
-20.21
-24.40
-29.20
-34.60
-40.16
-45.03
-48.14
-48.51
-45.57
-39.39
-30.61
-20.30
-9.62
0.37
8.97
15.73
20.56
23.42
24.38
23.55
21.13
17.49
13.20
8.95
5.38
2.95
1.80
1.80
2.64
3.94
5.40
6.79
7.92
8.53
8.33
7.08
4.65
1.20
-2.90
-7.11
-10.93
-14.15
-16.84
-19.41
-22.39
-26.21
-31.00
-36.52
-42.10
-46.76
-49.37
-48.92
-44.79
-36.94
-25.97
-13.00
0.58
13.44
24.47
32.92
38.39
40.81
40.39
37.58
32.99
27.38
21.52
16.13
11.80
8.93
7.61
7.62
8.50
9.63
10.44
10.59
9.94
8.59
6.67
4.26
1.35
-2.22
-6.56
-11.60
-17.02
-22.25
-26.67
-29.90
-32.03
-33.61
-35.48
-38.30
-42.16
-46.44
-49.93
-51.30
-49.52
-44.16
-35.39
-23.84
-10.40
3.84
17.67
29.90
39.40
45.45
47.86
47.04
43.90
39.57
35.19
31.57
29.18
28.09
28.07
28.76
29.80
30.87
31.73
32.22
32.18
31.48
29.99
27.68
24.55
20.69
16.29
11.61
6.93
2.56
-1.33
-4.74
-7.91
-11.23
-15.07
-19.57
-24.48
-29.12
-32.49
-33.48
-31.20
-25.19
-15.63
-3.33
10.34
23.75
35.33
43.83
48.63
49.67
47.43
42.69
36.30
29.09
21.76
14.98
9.28
5.14
2.76
2.15
2.94
4.56
6.33
7.67
8.26
8.05
7.17
5.83
4.18
2.27
0.05
-2.55
-5.59
-9.16
-13.36
-18.31
-23.97
-30.05
-35.90
-40.57
-43.01
-42.32
-38.09
-30.44
-20.07
-8.08
4.25
15.66
25.08
31.72
35.19
35.40
32.61
27.38
20.47
12.82
5.43
-0.79
-5.20
-7.57
-8.10
-7.41
-6.33
-5.66
-5.95
-7.41
-9.97
-13.41
-17.48
-21.93
-26.52
-30.96
-35.02
-38.68
-42.18
-45.99
-50.50
-55.65
-60.75
-64.43
-65.13
-61.62
-53.54
-41.52
-27.05
-11.93
2.18
14.15
23.38
29.75
33.39
34.50
33.34
30.30
25.92
20.94
16.15
12.31
9.93
9.23
10.04
11.94
14.34
16.62
18.30
18.96
18.34
16.31
12.91
8.39
3.20
-2.12
-7.15
-11.81
-16.35
-21.22
-26.72
-32.70
-38.37
-42.45
-43.52
-40.50
-33.02
-21.61
-7.57
7.31
21.17
32.43
40.14
44.02
44.41
42.04
37.84
32.73
27.59
23.13
19.91
18.22
17.98
18.83
20.18
21.44
22.21
22.29
21.67
20.41
18.50
15.92
12.63
8.73
4.44
0.05
-4.14
-7.95
-11.36
-14.55
-17.87
-21.64
-26.04
-30.85
-35.36
-38.39
-38.62
-34.99
-27.13
-15.51
-1.36
13.61
27.73
39.66
48.59
54.24
56.73
56.41
53.81
49.56
44.42
39.15
34.44
30.82
28.52
27.46
27.36
27.79
28.33
28.66
28.60
28.03
26.90
25.11
22.55
19.12
14.82
9.84
4.57
-0.50
-5.03
-8.95
-12.63
-16.67
-21.66
-27.79
-34.66
-41.30
-46.40
-48.66
-47.24
-41.93
-33.19
-21.97
-9.49
3.00
14.41
23.89
30.90
35.18
36.78
36.07
33.61
30.13
26.33
22.80
19.88
17.70
16.19
15.20
14.54
14.06
13.61
13.03
12.13
10.70
8.56
5.59
1.83
-2.56
-7.33
-12.18
-16.86
-21.25
-25.42
-29.62
-34.14
-39.17
-44.49
-49.49
-53.13
-54.27
-51.96
-45.79
-36.00
-23.52
-9.69
3.99
16.15
25.76
32.31
35.75
36.42
34.93
31.97
28.23
24.29
20.59
17.45
15.05
13.43
12.55
12.29
12.43
12.67
12.65
11.99
10.41
7.81
4.32
0.25
-4.07
-8.36
-12.54
-16.71
-21.09
-25.89
-31.28
-37.20
-43.31
-48.98
-53.31
-55.33
-54.18
-49.40
-41.07
-29.84
-16.86
-3.47
8.98
19.46
27.34
32.43
34.97
35.43
34.42
32.54
30.30
28.10
26.24
24.93
24.30
24.34
24.92
25.77
26.52
26.80
26.35
25.01
22.74
19.59
15.68
11.14
6.25
1.29
-3.36
-7.45
-10.91
-14.00
-17.22
-21.16
-26.20
-32.25
-38.66
-44.33
-47.97
-48.48
-45.25
-38.34
-28.41
-16.57
-4.13
7.70
17.97
26.12
31.90
35.37
36.72
36.22
34.25
31.25
27.86
24.73
22.42
21.20
20.99
21.43
22.03
22.40
22.36
21.95
21.27
20.38
19.16
17.41
14.87
11.46
7.31
2.78
-1.69
-5.77
-9.34
-12.55
-15.70
-19.13
-23.09
-27.64
-32.69
-37.99
-43.07
-47.29
-49.83
-49.89
-46.87
-40.59
-31.40
-20.14
-7.90
4.14
14.96
23.76
30.04
33.60
34.61
33.56
31.11
28.02
24.95
22.37
20.57
19.64
19.55
20.11
21.00
21.88
22.45
22.56
22.18
21.39
20.21
18.55
16.20
13.04
9.12
4.69
0.19
-3.99
-7.62
-10.71
-13.52
-16.43
-19.78
-23.81
-28.47
-33.45
-38.14
-41.68
-43.21
-41.97
-37.61
-30.23
-20.42
-9.16
2.40
13.11
21.99
28.31
31.66
32.00
29.72
25.57
20.49
15.41
11.01
7.63
5.31
3.91
3.29
3.40
4.21
5.58
7.18
8.51
9.05
8.48
6.80
4.25
1.16
-2.22
-5.80
-9.62
-13.67
-17.89
-22.17
-26.51
-31.04
-35.90
-41.04
-45.97
-49.77
-51.33
-49.77
-44.72
-36.57
-26.17
-14.69
-3.25
7.15
15.72
21.90
25.39
26.20
24.67
21.46
17.30
12.94
8.93
5.63
3.22
1.73
1.11
1.20
1.75
2.51
3.20
3.56
3.38
2.46
0.69
-1.95
-5.31
-9.09
-12.94
-16.51
-19.66
-22.47
-25.28
-28.54
-32.62
-37.57
-42.98
-47.92
-51.21
-51.66
-48.52
-41.71
-31.86
-20.05
-7.58
4.39
14.94
23.42
29.36
32.49
32.79
30.56
26.46
21.41
16.37
12.16
9.29
7.90
7.82
8.74
10.27
12.03
13.69
14.94
15.54
15.27
14.03
11.83
8.79
5.15
1.24
-2.65
-6.31
-9.72
-13.06
-16.69
-20.98
-26.14
-32.02
-38.04
-43.20
-46.37
-46.52
-43.09
-36.09
-26.14
-14.28
-1.76
10.17
20.44
28.29
33.29
35.43
35.02
32.63
28.99
24.84
20.79
17.29
14.59
12.77
11.80
11.57
11.94
12.71
13.70
14.65
15.30
15.44
14.85
13.45
11.25
8.37
5.02
1.49
-1.97
-5.25
-8.49
-11.99
-16.16
-21.22
-26.99
-32.79
-37.55
-40.10
-39.56
-35.54
-28.22
-18.34
-6.90
4.89
15.87
25.04
31.66
35.32
36.09
34.37
30.88
26.38
21.64
17.26
13.63
10.99
9.41
8.80
8.99
9.74
10.77
11.85
12.74
13.26
13.20
12.33
10.48
7.58
3.77
-0.63
-5.18
-9.51
-13.52
-17.39
-21.55
-26.28
-31.54
-36.78
-41.00
-43.13
-42.33
-38.35
-31.59
-22.99
-13.69
-4.73
3.15
9.55
14.24
17.02
17.69
16.15
12.52
7.26
1.17
-4.83
-9.89
-13.43
-15.17
-15.19
-13.75
-11.31
-8.38
-5.51
-3.18
-1.81
-1.72
-3.02
-5.71
-9.46
-13.83
-18.21
-22.11
-25.32
-28.09
-30.98
-34.55
-39.00
-43.93
-48.32
-50.85
-50.31
-46.01
-37.94
-26.77
-13.63
0.10
13.11
24.30
32.87
38.38
40.70
40.05
36.95
32.21
26.77
21.59
17.41
14.65
13.32
13.13
13.68
14.62
15.76
16.96
18.07
18.83
18.86
17.85
15.64
12.34
8.25
3.77
-0.73
-4.99
-8.86
-12.36
-15.66
-19.06
-22.97
-27.66
-33.11
-38.79
-43.67
-46.45
-45.92
-41.38
-32.84
-21.13
-7.64
6.03
18.42
28.49
35.68
39.88
41.23
40.10
36.96
32.46
27.33
22.31
18.06
15.03
13.43
13.21
14.12
15.75
17.60
19.13
19.98
19.98
19.22
17.91
16.20
14.10
11.46
8.16
4.26
0.07
-3.99
-7.60
-10.64
-13.21
-15.53
-17.86
-20.40
-23.41
-27.18
-31.83
-37.13
-42.33
-46.15
-47.21
-44.44
-37.49
-26.91
-13.92
-0.08
13.15
24.58
33.48
39.44
42.36
42.38
39.88
35.50
30.05
24.47
19.64
16.21
14.50
14.47
15.74
17.80
20.06
22.10
23.64
24.57
24.85
24.39
23.10
20.84
17.60
13.55
9.06
4.57
0.50
-2.94
-5.78
-8.31
-10.91
-14.00
-17.91
-22.77
-28.45
-34.46
-40.00
-44.03
-45.49
-43.64
-38.23
-29.66
-18.79
-6.82
5.06
15.82
24.72
31.21
35.01
36.02
34.44
30.78
25.84
20.59
15.87
12.27
10.02
9.06
9.16
10.11
11.72
13.82
16.12
18.24
19.72
20.18
19.44
17.58
14.84
11.51
7.78
3.76
-0.54
-5.13
-10.05
-15.39
-21.23
-27.59
-34.25
-40.66
-45.89
-48.87
-48.64
-44.73
-37.26
-26.98
-15.01
-2.64
8.89
18.50
25.37
29.07
29.59
27.40
23.32
18.26
13.03
8.15
3.87
0.29
-2.42
-4.11
-4.70
-4.30
-3.37
-2.45
-2.05
-2.44
-3.55
-5.19
-7.19
-9.49
-12.17
-15.28
-18.85
-22.86
-27.35
-32.41
-38.14
-44.45
-50.82
-56.35
-59.92
-60.40
-57.11
-49.88
-39.20
-26.13
-12.06
1.47
13.11
21.89
27.30
29.38
28.50
25.32
20.59
15.07
9.50
4.50
0.57
-2.00
-3.09
-2.77
-1.29
0.94
3.39
5.51
6.80
6.93
5.82
3.61
0.56
-3.08
-7.06
-11.21
-15.40
-19.55
-23.75
-28.20
-33.14
-38.65
-44.36
-49.40
-52.55
-52.51
-48.41
-40.03
-28.01
-13.57
1.68
16.18
28.58
37.96
43.87
46.27
45.55
42.38
37.67
32.37
27.37
23.35
20.65
19.31
19.12
19.73
20.84
22.22
23.71
25.10
26.16
26.50
25.84
23.96
20.94
17.02
12.56
7.97
3.59
-0.37
-3.85
-7.02
-10.26
-14.08
-18.86
-24.60
-30.67
-35.89
-38.75
-37.98
-32.94
-23.96
-12.20
0.69
13.08
23.74
31.98
37.60
40.68
41.38
39.94
36.73
32.34
27.55
23.25
20.20
18.85
19.16
20.71
22.76
24.61
25.77
26.04
25.58
24.67
23.49
22.03
20.10
17.41
13.88
9.68
5.22
1.03
-2.48
-5.15
-7.12
-8.81
-10.81
-13.68
-17.84
-23.36
-29.85
-36.44
-41.99
-45.28
-45.34
-41.74
-34.57
-24.56
-12.84
-0.73
10.44
19.55
25.87
29.13
29.48
27.48
23.93
19.68
15.53
12.08
9.68
8.42
8.18
8.73
9.81
11.24
12.89
14.63
16.24
17.43
17.90
17.41
15.85
13.30
10.02
6.33
2.54
-1.08
-4.43
-7.55
-10.67
-14.09
-18.12
-22.84
-28.00
-32.91
-36.61
-38.07
-36.50
-31.55
-23.49
-13.20
-1.91
9.04
18.46
25.54
29.87
31.42
30.48
27.57
23.31
18.43
13.64
9.52
6.48
4.64
3.84
3.80
4.17
4.64
5.04
5.22
5.07
4.46
3.22
1.20
-1.66
-5.30
-9.50
-13.89
-18.10
-21.87
-25.17
-28.24
-31.57
-35.64
-40.63
-46.30
-51.88
-56.24
-58.17
-56.64
-51.06
-41.38
-28.19
-12.68
3.48
18.51
30.78
39.21
43.51
44.07
41.79
37.77
33.04
28.43
24.51
21.66
20.04
19.67
20.31
21.64
23.25
24.76
25.84
26.28
25.92
24.64
22.39
19.14
15.00
10.16
4.96
-0.21
-5.03
-9.32
-13.16
-16.81
-20.74
-25.39
-31.02
-37.49
-44.10
-49.66
-52.80
-52.27
-47.38
-38.27
-25.89
-11.68
2.74
15.99
27.08
35.43
40.82
43.28
43.03
40.57
36.54
31.78
27.13
23.32
20.86
19.89
20.28
21.61
23.37
25.09
26.46
27.38
27.86
27.97
27.62
26.58
24.54
21.29
16.82
11.42
5.55
-0.29
-5.72
-10.55
-14.77
-18.52
-22.05
-25.71
-29.87
-34.79
-40.43
-46.30
-51.45
-54.63
-54.64
-50.67
-42.63
-31.13
-17.37
-2.83
11.02
22.99
32.25
38.38
41.30
41.30
38.97
35.08
30.53
26.19
22.77
20.71
20.17
20.98
22.78
25.04
27.21
28.81
29.57
29.42
28.53
27.13
25.36
23.23
20.60
17.30
13.32
8.88
4.32
0.00
-3.85
-7.23
-10.26
-13.17
-16.19
-19.56
-23.52
-28.23
-33.61
-39.25
-44.31
-47.69
-48.33
-45.49
-38.95
-29.16
-17.06
-3.93
8.86
20.05
28.69
34.23
36.59
36.08
33.33
29.13
24.26
19.47
15.34
12.27
10.43
9.80
10.15
11.17
12.53
13.93
15.13
15.93
16.07
15.30
13.38
10.25
6.07
1.23
-3.76
-8.48
-12.66
-16.29
-19.55
-22.76
-26.26
-30.34
-35.08
-40.32
-45.53
-49.81
-52.10
-51.43
-47.22
-39.51
-28.94
-16.63
-3.88
8.05
18.13
25.62
30.12
31.57
30.23
26.66
21.64
16.05
10.72
6.33
3.27
1.58
1.07
1.35
2.02
2.80
3.53
4.11
4.42
4.24
3.31
1.41
-1.52
-5.34
-9.70
-14.23
-18.57
-22.53
-26.22
-29.95
-34.23
-39.44
-45.62
-52.26
-58.32
-62.41
-63.25
-60.00
-52.48
-41.27
-27.46
-12.48
2.25
15.41
25.96
33.24
37.02
37.51
35.31
31.32
26.51
21.80
17.85
15.02
13.38
12.75
12.84
13.40
14.16
14.98
15.74
16.29
16.43
15.93
14.57
12.23
8.97
5.03
0.75
-3.48
-7.41
-11.03
-14.56
-18.41
-22.99
-28.53
-34.83
-41.19
-46.52
-49.59
-49.34
-45.23
-37.34
-26.36
-13.41
0.21
13.20
24.40
32.91
38.16
40.04
38.85
35.35
30.49
25.31
20.63
17.01
14.68
13.57
13.46
14.02
14.94
15.97
16.94
17.68
18.04
17.84
16.93
15.23
12.71
9.45
5.61
1.42
-2.85
-6.99
-10.90
-14.71
-18.73
-23.37
-28.89
-35.12
-41.40
-46.62
-49.49
-49.00
-44.66
-36.65
-25.71
-12.96
0.35
12.97
23.74
31.75
36.45
37.78
36.13
32.32
27.30
22.00
17.12
13.09
10.16
8.48
8.08
8.89
10.69
13.07
15.50
17.39
18.26
17.79
15.89
12.74
8.68
4.21
-0.26
-4.47
-8.40
-12.28
-16.53
-21.54
-27.47
-34.07
-40.63
-46.12
-49.34
-49.36
-45.67
-38.38
-28.21
-16.30
-4.04
7.26
16.52
23.03
26.53
27.09
25.06
21.01
15.60
9.58
3.69
-1.44
-5.33
-7.74
-8.67
-8.31
-6.98
-5.13
-3.20
-1.70
-1.05
-1.55
-3.27
-6.03
-9.44
-13.15
-16.88
-20.60
-24.54
-29.00
-34.19
-40.05
-46.05
-51.29
-54.65
-55.04
-51.73
-44.58
-34.10
-21.34
-7.66
5.54
17.07
26.04
31.99
34.79
34.72
32.33
28.36
23.62
18.89
14.74
11.56
9.53
8.70
8.95
10.05
11.65
13.25
14.35
14.44
13.24
10.68
6.95
2.45
-2.34
-7.02
-11.39
-15.54
-19.80
-24.64
-30.31
-36.68
-43.08
-48.34
-51.11
-50.19
-44.96
-35.55
-22.87
-8.39
6.24
19.52
30.30
37.90
42.05
42.87
40.85
36.76
31.60
26.44
22.16
19.33
18.08
18.16
19.14
20.66
22.48
24.43
26.29
27.68
28.19
27.48
25.43
22.10
17.81
12.91
7.75
2.60
-2.39
-7.07
-11.48
-15.91
-20.86
-26.79
-33.74
-41.13
-47.74
-52.00
-52.22
-47.36
-37.62
-24.45
-10.05
3.34
14.10
21.45
25.46
27.25
28.04
28.41
28.10
26.49
23.26
18.81
14.09
10.45
9.75
13.08
19.91
28.08
34.99
38.77
39.13
37.04
34.53
34.85
40.75
53.42
71.96
94.11
117.19
138.85
157.20
164.40
155.04
130.26
98.36
68.54
44.89
25.83
8.35
-11.68
-34.68
-56.93
-73.21
-79.92
-77.30
-67.09
-54.28
-45.22
-45.72
-58.40
-80.88
-106.95
-129.10
-141.42
-141.07
-128.94
-108.81
-86.19
-66.39
-52.64
-45.31
-42.29
-40.19
-35.47
-26.00
-11.82
5.01
21.77
36.67
50.46
63.28
74.97
85.73
95.12
102.20
106.39
108.01
107.97
106.86
104.30
98.72
87.80
70.38
46.68
18.09
-13.75
-47.80
-83.96
-115.47
-140.61
-160.77
-178.44
-194.68
-207.49
-211.91
-202.24
-175.03
-131.89
-80.60
-31.47
6.75
29.95
39.40
40.03
37.28
34.71
33.24
31.39
28.09
23.72
19.81
17.76
17.90
19.30
20.46
20.02
17.16
12.37
7.05
2.67
0.05
-0.99
-1.33
-2.08
-4.00
-7.32
-11.55
-15.82
-19.36
-21.90
-23.62
-24.87
-25.91
-26.61
-26.52
-25.03
-21.74
-16.63
-10.11
-2.99
4.40
11.81
19.27
26.96
35.10
43.76
52.72
61.40
68.59
72.60
71.73
64.96
52.79
37.21
21.15
7.42
-2.35
-8.19
-11.35
-13.43
-15.43
-17.21
-17.93
-16.89
-13.85
-9.21
-3.91
1.13
5.18
7.87
9.27
9.53
8.30
5.29
0.50
-5.93
-13.47
-21.24
-28.18
-32.85
-34.42
-33.71
-32.01
-30.50
-30.24
-31.60
-34.22
-37.14
-38.70
-37.86
-35.73
-33.60
-32.14
-32.40
-34.20
-36.29
-36.55
-31.68
-19.08
0.63
25.50
52.63
77.74
96.37
105.08
97.50
72.21
41.92
15.16
-5.55
-17.57
-20.12
-14.28
-2.63
11.49
25.73
38.33
46.61
49.36
46.92
39.91
29.14
15.62
0.84
-12.71
-22.61
-28.40
-30.30
-29.04
-26.41
-24.43
-24.34
-26.04
-27.71
-27.12
-23.49
-17.14
-9.36
-2.28
2.16
3.09
0.87
-3.03
-7.04
-10.54
-13.49
-16.15
-18.94
-22.13
-25.67
-29.25
-32.40
-34.72
-36.00
-35.99
-34.23
-30.16
-23.33
-13.60
-1.47
11.88
24.73
35.21
41.66
43.10
39.42
31.45
20.79
9.52
-0.24
-6.77
-9.17
-7.45
-2.53
4.13
10.94
16.57
20.34
22.29
23.02
23.37
23.96
24.82
25.49
25.31
23.96
21.78
19.81
19.34
21.34
25.91
32.11
38.15
41.94
41.84
37.43
29.91
21.98
16.92
17.45
24.48
36.81
51.57
65.40
75.63
80.90
81.14
77.07
69.68
59.96
48.89
37.36
26.18
15.88
6.75
-1.02
-7.20
-11.39
-13.24
-12.56
-9.56
-4.83
0.80
6.38
11.17
14.71
17.06
18.61
19.84
20.76
20.67
18.18
11.75
0.40
-15.88
-36.14
-59.15
-83.91
-109.88
-136.39
-162.00
-184.04
-198.95
-203.52
-196.27
-178.37
-153.53
-126.88
-103.32
-86.03
-75.69
-70.64
-67.66
-63.22
-54.54
-40.44
-21.32
1.16
24.96
48.24
69.74
88.70
104.82
118.25
129.76
140.81
153.21
168.35
186.37
205.80
224.00
238.31
247.33
251.53
252.97
254.11
256.50
259.99
262.91
262.96
258.32
248.38
233.89
216.34
197.12
176.87
155.21
131.01
102.95
70.10
32.52
-8.55
-50.68
-90.66
-125.03
-150.96
-167.02
-173.52
-172.49
-166.88
-159.57
-152.52
-146.46
-141.18
-136.22
-131.36
-126.64
-122.04
-116.99
-110.60
-102.13
-91.85
-81.24
-72.39
-66.74
-63.91
-61.61
-56.80
-47.39
-33.57
-17.88
-4.02
4.80
6.97
2.66
-6.77
-19.53
-33.65
-46.94
-56.87
-60.97
-57.70
-47.49
-33.13
-19.03
-9.75
-8.11
-14.10
-24.87
-36.05
-43.61
-45.30
-41.22
-33.33
-24.18
-15.88
-9.52
-5.38
-3.33
-3.38
-5.61
-9.81
-15.18
-20.20
-23.15
-22.73
-18.56
-11.25
-2.09
7.35
15.41
20.36
20.53
14.67
2.55
-14.39
-33.21
-50.22
-62.49
-68.97
-70.76
-70.18
-69.25
-68.68
-67.67
-64.90
-59.87
-53.64
-48.48
-46.67
-49.00
-53.99
-58.41
-58.73
-52.96
-41.75
-28.42
-17.63
-13.54
-18.23
-30.86
-48.11
-65.41
-78.38
-84.00
-80.97
-69.62
-51.38
-28.38
-3.06
21.95
44.05
61.06
71.48
74.87
71.83
63.89
53.02
41.31
30.43
21.44
14.73
10.06
6.77
4.09
1.31
-2.11
-6.47
-11.94
-18.53
-26.06
-34.16
-42.26
-49.79
-56.34
-61.82
-66.50
-70.88
-75.50
-80.61
-85.91
-90.39
-92.53
-90.62
-83.35
-70.36
-52.42
-31.26
-9.06
12.14
30.86
46.20
57.78
65.52
69.56
70.35
68.67
65.53
61.93
58.61
55.89
53.70
51.76
49.85
47.90
46.05
44.52
43.42
42.64
41.82
40.49
38.28
35.03
30.89
26.25
21.51
16.93
12.49
7.87
2.59
-3.69
-10.92
-18.46
-25.04
-29.00
-28.76
-23.30
-12.65
2.10
19.02
35.90
50.87
62.75
71.08
75.94
77.65
76.49
72.77
66.92
59.54
51.49
43.63
36.67
31.00
26.66
23.45
21.13
19.48
18.39
17.75
17.28
16.59
15.22
12.88
9.60
5.79
1.97
-1.40
-4.16
-6.55
-9.07
-12.26
-16.49
-21.77
-27.63
-33.11
-36.92
-37.61
-34.12
-26.13
-14.29
-0.14
14.34
27.26
37.31
43.92
47.22
47.73
46.11
42.95
38.71
33.81
28.73
23.93
19.86
16.78
14.72
13.51
12.89
12.65
12.69
12.91
13.14
13.03
12.18
10.34
7.58
4.26
0.93
-1.99
-4.37
-6.39
-8.48
-11.13
-14.63
-18.91
-23.42
-27.13
-28.72
-27.04
-21.48
-12.33
-0.80
11.41
22.56
31.39
37.33
40.35
40.76
38.96
35.44
30.71
25.43
20.26
15.79
12.33
9.92
8.33
7.27
6.47
5.74
5.01
4.25
3.45
2.55
1.50
0.27
-1.15
-2.73
-4.42
-6.25
-8.29
-10.74
-13.86
-17.85
-22.73
-28.12
-33.22
-36.87
-37.81
-35.17
-28.77
-19.29
-8.10
3.11
12.85
20.16
24.68
26.60
26.32
24.37
21.21
17.30
13.07
8.92
5.19
2.10
-0.20
-1.73
-2.61
-3.05
-3.31
-3.61
-4.10
-4.81
-5.74
-6.85
-8.17
-9.67
-11.30
-12.96
-14.56
-16.12
-17.83
-19.97
-22.73
-26.01
-29.26
-31.54
-31.82
-29.33
-23.86
-15.93
-6.64
2.67
10.75
16.82
20.62
22.29
22.19
20.65
17.94
14.32
10.13
5.83
1.97
-0.99
-2.83
-3.66
-3.80
-3.71
-3.74
-4.03
-4.53
-5.06
-5.53
-5.98
-6.62
-7.70
-9.36
-11.57
-14.21
-17.11
-20.23
-23.61
-27.24
-30.82
-33.62
-34.70
-33.11
-28.42
-20.95
-11.73
-2.22
6.19
12.59
16.67
18.68
19.06
18.21
16.34
13.52
9.90
5.83
1.85
-1.43
-3.54
-4.35
-4.10
-3.28
-2.46
-2.07
-2.28
-3.02
-4.08
-5.20
-6.23
-7.20
-8.30
-9.82
-12.10
-15.33
-19.48
-24.24
-28.98
-32.82
-34.83
-34.22
-30.61
-24.15
-15.66
-6.27
2.76
10.43
16.16
19.77
21.38
21.23
19.61
16.86
13.39
9.70
6.24
3.35
1.12
-0.52
-1.75
-2.69
-3.37
-3.76
-3.90
-4.02
-4.48
-5.65
-7.69
-10.51
-13.78
-17.17
-20.52
-23.96
-27.73
-31.89
-36.06
-39.32
-40.55
-38.80
-33.75
-25.87
-16.31
-6.51
2.25
9.14
13.86
16.52
17.37
16.68
14.61
11.32
7.10
2.40
-2.09
-5.71
-7.97
-8.75
-8.36
-7.42
-6.59
-6.35
-6.81
-7.76
-8.82
-9.65
-10.22
-10.79
-11.87
-14.02
-17.56
-22.45
-28.17
-33.80
-38.20
-40.27
-39.23
-34.84
-27.47
-18.03
-7.72
2.25
10.82
17.31
21.35
22.85
21.98
19.11
14.80
9.73
4.61
0.05
-3.56
-6.06
-7.55
-8.28
-8.59
-8.80
-9.11
-9.62
-10.28
-11.01
-11.78
-12.74
-14.18
-16.46
-19.90
-24.63
-30.54
-37.12
-43.51
-48.54
-50.96
-49.75
-44.49
-35.52
-23.92
-11.26
0.93
11.42
19.54
25.10
28.15
28.87
27.44
24.14
19.43
13.99
8.66
4.24
1.32
0.09
0.28
1.28
2.33
2.77
2.28
0.89
-1.08
-3.27
-5.45
-7.67
-10.24
-13.58
-18.08
-23.95
-31.09
-39.00
-46.80
-53.21
-56.81
-56.34
-51.11
-41.34
-28.12
-13.21
1.50
14.42
24.58
31.59
35.46
36.43
34.75
30.83
25.28
19.00
13.02
8.32
5.53
4.76
5.62
7.37
9.23
10.66
11.33
11.19
10.30
8.69
6.34
3.26
-0.57
-5.13
-10.45
-16.71
-24.09
-32.65
-42.02
-51.16
-58.42
-61.94
-60.19
-52.56
-39.66
-23.17
-5.33
11.63
26.07
37.07
44.38
48.17
48.82
46.78
42.67
37.23
31.35
25.95
21.79
19.33
18.61
19.30
20.86
22.70
24.26
25.20
25.24
24.23
22.12
18.93
14.83
10.08
4.94
-0.39
-5.93
-11.97
-18.92
-27.10
-36.42
-46.07
-54.45
-59.44
-59.04
-51.93
-38.14
-19.05
3.01
25.43
46.04
63.49
77.28
87.48
94.47
98.67
100.55
100.60
99.34
97.37
95.32
93.76
93.14
93.64
95.03
96.65
97.64
97.16
94.81
90.62
85.02
78.51
71.31
63.39
54.60
44.95
34.81
24.78
15.51
7.31
0.07
-6.60
-13.10
-19.38
-24.73
-27.91
-27.56
-22.99
-14.76
-4.77
4.09
8.98
8.15
1.65
-8.74
-20.18
-29.80
-35.27
-34.81
-26.99
-10.68
14.06
44.85
76.55
102.05
114.59
110.46
90.53
59.94
25.85
-5.52
-30.86
-49.98
-64.53
-76.16
-85.41
-91.69
-94.20
-92.67
-87.82
-80.97
-73.53
-66.52
-60.40
-55.14
-50.58
-46.53
-42.80
-39.13
-34.97
-29.44
-21.59
-10.59
3.77
20.88
39.42
57.73
74.24
87.87
98.06
104.60
107.35
105.94
99.84
88.52
71.82
50.10
24.40
-3.67
-32.14
-58.88
-81.88
-99.62
-111.39
-117.44
-119.07
-118.16
-116.73
-116.30
-117.53
-120.25
-123.78
-127.48
-131.06
-134.69
-138.67
-143.07
-147.37
-150.39
-150.45
-145.85
-135.36
-118.73
-96.87
-71.81
-46.18
-22.62
-3.06
11.57
21.36
27.02
29.50
29.60
28.04
25.50
22.83
20.99
20.83
22.79
26.68
31.69
36.64
40.38
42.10
41.60
39.17
35.41
30.93
26.17
21.18
15.71
9.29
1.46
-8.09
-19.25
-31.31
-42.90
-52.10
-56.87
-55.57
-47.58
-33.60
-15.53
4.08
22.69
38.47
50.41
58.25
62.16
62.46
59.62
54.34
47.59
40.58
34.43
29.93
27.29
26.21
26.09
26.33
26.58
26.68
26.59
26.18
25.17
23.17
19.89
15.29
9.69
3.65
-2.21
-7.56
-12.49
-17.54
-23.59
-31.46
-41.52
-53.33
-65.39
-75.36
-80.53
-78.64
-68.69
-51.35
-28.78
-4.03
19.92
40.85
57.61
69.93
78.03
82.26
83.06
80.98
76.88
71.87
67.17
63.75
62.07
62.02
63.06
64.48
65.70
66.48
66.88
67.12
67.28
67.17
66.26
63.88
59.55
53.20
45.30
36.66
28.21
20.61
14.01
8.07
2.05
-4.92
-13.59
-24.20
-36.37
-48.88
-59.78
-66.75
-67.69
-61.38
-47.98
-29.12
-7.48
13.96
32.72
47.39
57.61
63.80
66.62
66.66
64.32
60.03
54.42
48.43
43.12
39.37
37.56
37.52
38.60
40.04
41.19
41.75
41.65
41.03
39.95
38.34
35.98
32.62
28.09
22.43
15.93
9.03
2.22
-4.09
-9.70
-14.64
-19.13
-23.52
-28.21
-33.62
-40.17
-48.10
-57.26
-66.77
-75.00
-79.82
-79.20
-71.95
-58.23
-39.58
-18.51
2.27
20.57
35.11
45.50
51.95
54.93
54.98
52.65
48.57
43.52
38.36
33.95
30.99
29.89
30.61
32.76
35.65
38.53
40.81
42.21
42.79
42.78
42.39
41.67
40.40
38.30
35.08
30.71
25.52
20.08
15.06
10.97
8.02
5.98
4.27
2.12
-1.08
-5.53
-10.83
-15.91
-19.10
-18.49
-12.37
0.26
19.28
43.16
69.20
94.05
114.51
128.27
134.20
132.42
123.86
109.80
91.49
70.04
46.46
21.87
-2.37
-24.66
-43.41
-57.43
-66.42
-71.21
-73.54
-75.54
-79.01
-84.82
-92.73
-101.78
-110.85
-119.12
-126.23
-132.18
-136.97
-140.47
-142.51
-143.12
-142.76
-142.39
-143.09
-145.67
-150.20
-155.94
-161.45
-165.11
-165.63
-162.29
-154.90
-143.47
-127.92
-108.05
-83.81
-55.73
-25.19
5.64
34.21
58.31
76.47
88.19
93.73
93.84
89.40
81.44
71.21
60.25
50.24
42.65
38.34
37.32
38.84
41.79
45.17
48.43
51.54
54.73
58.16
61.60
64.37
65.80
65.44
63.28
59.67
55.19
50.45
45.88
41.58
37.28
32.62
27.20
20.75
13.22
5.04
-2.64
-8.23
-10.03
-6.99
1.29
14.23
30.46
48.17
65.59
81.71
95.82
107.20
114.61
117.39
115.53
109.71
101.04
90.84
81.11
73.30
67.81
63.19
58.50
53.26
47.35
40.51
32.39
24.03
16.43
10.11
3.69
-2.70
-8.04
-10.76
-9.68
-3.64
10.17
33.95
67.86
107.49
148.23
185.46
215.60
236.45
238.18
217.18
177.98
141.94
115.32
97.46
82.53
67.82
52.08
35.14
18.92
4.96
-6.69
-19.14
-33.83
-50.94
-69.55
-88.88
-108.22
-125.80
-140.24
-151.18
-160.50
-168.69
-175.19
-178.88
-179.41
-177.40
-173.65
-169.56
-166.71
-167.00
-170.14
-174.35
-177.33
-177.74
-175.49
-171.20
-165.99
-160.89
-156.70
-152.85
-147.82
-139.81
-127.65
-111.16
-91.12
-69.08
-46.99
-26.87
-9.97
3.19
12.86
19.62
24.23
27.33
29.28
30.18
29.89
28.40
25.96
23.21
21.01
20.08
20.72
22.68
25.33
27.84
29.60
30.25
29.69
27.96
25.19
21.60
17.56
13.64
10.43
8.37
7.50
7.28
6.78
5.02
1.56
-3.16
-7.78
-10.51
-9.81
-5.06
3.16
13.29
23.44
31.97
37.99
41.35
42.37
41.39
38.57
33.89
27.41
19.54
11.12
3.27
-2.93
-6.83
-8.42
-8.26
-7.18
-5.93
-4.97
-4.46
-4.45
-5.06
-6.61
-9.41
-13.57
-18.77
-24.35
-29.51
-33.71
-37.05
-40.22
-44.13
-49.30
-55.33
-60.92
-64.23
-63.67
-58.65
-49.81
-38.81
-27.63
-17.89
-10.37
-5.00
-1.26
1.41
3.24
4.07
3.62
1.79
-1.11
-4.33
-6.88
-7.94
-7.09
-4.55
-0.95
2.82
6.06
8.42
9.92
10.86
11.50
12.05
12.49
12.71
12.49
11.59
9.70
6.46
1.62
-4.82
-12.26
-19.52
-24.98
-27.04
-24.71
-17.94
-7.73
4.22
16.00
26.02
33.31
37.54
38.91
37.86
34.95
30.69
25.62
20.22
15.03
10.56
7.31
5.65
5.68
7.21
9.63
12.04
13.48
13.18
10.76
6.44
0.84
-5.20
-10.90
-15.82
-19.89
-23.45
-27.04
-31.28
-36.53
-42.78
-49.42
-55.30
-59.00
-59.20
-55.16
-47.05
-35.92
-23.41
-11.26
-0.87
7.00
12.16
14.89
15.62
14.80
12.84
10.13
7.11
4.22
1.91
0.42
-0.22
-0.27
-0.12
-0.11
-0.37
-0.79
-1.12
-1.16
-0.96
-0.77
-0.92
-1.67
-3.02
-4.72
-6.44
-7.92
-9.15
-10.42
-12.27
-15.24
-19.66
-25.37
-31.58
-36.92
-39.76
-38.72
-33.11
-23.39
-10.94
2.27
14.34
23.99
30.76
34.87
36.81
37.04
35.84
33.45
30.22
26.75
23.73
21.69
20.88
21.10
21.92
22.93
23.89
24.76
25.59
26.38
26.93
26.95
26.15
24.35
21.56
18.00
13.98
9.88
6.03
2.66
-0.18
-2.67
-5.16
-8.10
-11.82
-16.39
-21.48
-26.40
-30.21
-32.01
-31.14
-27.33
-20.78
-12.12
-2.17
8.13
17.95
26.56
33.46
38.32
41.04
41.72
40.68
38.42
35.61
33.00
31.28
30.94
32.14
34.69
38.05
41.55
44.67
47.19
49.26
51.28
53.56
56.08
58.41
59.83
59.61
57.35
53.09
47.33
40.77
34.15
27.99
22.43
17.18
11.46
4.10
-6.13
-19.95
-37.15
-56.25
-74.77
-89.89
-99.33
-102.00
-98.31
-89.78
-78.48
-66.37
-54.95
-45.14
-37.45
-32.12
-29.23
-28.60
-29.77
-31.91
-33.96
-34.86
-33.89
-30.86
-26.20
-20.72
-15.33
-10.63
-6.86
-3.88
-1.54
0.16
0.98
0.56
-1.31
-4.47
-8.39
-12.34
-15.54
-17.51
-18.14
-17.67
-16.65
-15.78
-15.81
-17.30
-20.53
-25.21
-30.47
-34.93
-37.08
-35.69
-30.16
-20.81
-8.71
4.62
17.76
29.69
39.93
48.40
55.16
60.17
63.28
64.45
63.97
62.56
61.31
61.28
63.19
67.13
72.66
79.10
85.72
91.86
96.87
99.88
99.83
95.78
87.24
74.54
58.69
40.93
22.20
2.88
-16.82
-36.29
-54.14
-68.58
-78.30
-83.33
-85.29
-86.71
-89.82
-95.47
-102.85
-109.96
-114.58
-115.21
-111.35
-103.40
-92.26
-78.95
-64.44
-49.53
-34.89
-21.12
-8.91
0.99
7.85
11.39
11.96
10.74
9.34
9.22
11.18
15.10
20.18
25.39
29.90
33.30
35.62
37.08
37.99
38.62
39.24
40.21
41.86
44.33
47.20
49.32
48.96
44.33
34.41
19.54
1.61
-16.50
-31.86
-42.33
-47.23
-47.20
-43.84
-39.10
-34.84
-32.46
-32.75
-35.61
-40.05
-44.39
-46.76
-45.66
-40.49
-31.71
-20.57
-8.66
2.56
12.09
19.43
24.40
26.98
27.32
25.70
22.63
18.85
15.21
12.42
10.85
10.47
10.92
11.63
12.20
12.45
12.51
12.60
12.86
13.22
13.40
13.02
11.85
9.84
7.20
4.24
1.23
-1.66
-4.40
-7.00
-9.47
-11.80
-14.03
-16.38
-19.16
-22.67
-26.88
-31.26
-34.76
-36.17
-34.52
-29.48
-21.57
-11.89
-1.79
7.59
15.57
21.90
26.55
29.52
30.72
30.07
27.62
23.73
19.07
14.49
10.74
8.34
7.33
7.46
8.27
9.37
10.51
11.57
12.47
13.07
13.10
12.32
10.62
8.10
5.07
1.95
-0.89
-3.30
-5.39
-7.48
-10.04
-13.50
-18.09
-23.72
-29.92
-35.82
-40.35
-42.46
-41.40
-36.97
-29.58
-20.11
-9.69
0.58
9.74
17.13
22.29
25.07
25.61
24.25
21.54
18.12
14.55
11.28
8.54
6.49
5.15
4.51
4.52
5.12
6.17
7.51
8.86
9.84
10.04
9.12
6.93
3.63
-0.37
-4.51
-8.30
-11.46
-14.06
-16.47
-19.28
-23.06
-28.05
-33.98
-40.05
-44.98
-47.45
-46.46
-41.64
-33.44
-22.90
-11.38
-0.22
9.58
17.39
22.93
26.17
27.28
26.54
24.39
21.34
17.94
14.63
11.74
9.50
8.02
7.41
7.71
8.85
10.59
12.51
14.12
14.97
14.78
13.53
11.34
8.47
5.22
1.84
-1.46
-4.53
-7.42
-10.33
-13.68
-17.88
-23.17
-29.27
-35.26
-39.80
-41.49
-39.39
-33.37
-24.22
-13.27
-1.98
8.46
17.29
24.14
28.82
31.21
31.33
29.39
25.97
21.82
17.76
14.40
11.95
10.26
9.01
7.99
7.15
6.68
6.73
7.24
7.85
7.93
7.03
4.92
1.87
-1.59
-4.86
-7.55
-9.63
-11.33
-13.11
-15.44
-18.70
-23.02
-28.18
-33.52
-38.02
-40.50
-40.01
-36.13
-29.10
-19.81
-9.42
0.90
10.24
17.96
23.71
27.27
28.61
27.89
25.51
22.08
18.31
14.75
11.79
9.64
8.34
7.87
8.18
9.18
10.66
12.33
13.78
14.69
14.80
14.03
12.47
10.26
7.56
4.53
1.33
-1.88
-5.00
-8.01
-11.03
-14.38
-18.35
-23.05
-28.16
-32.88
-36.12
-36.88
-34.55
-29.15
-21.33
-12.07
-2.47
6.49
14.11
19.98
23.90
25.88
26.01
24.56
21.84
18.31
14.50
10.98
8.30
6.81
6.60
7.44
8.92
10.60
12.11
13.27
13.99
14.24
13.96
13.08
11.53
9.30
6.52
3.42
0.23
-2.90
-5.98
-9.21
-12.83
-16.97
-21.46
-25.69
-28.70
-29.49
-27.29
-21.98
-14.17
-5.01
4.17
12.31
18.83
23.61
26.82
28.56
28.86
27.68
25.14
21.63
17.82
14.41
11.92
10.55
10.16
10.40
10.92
11.44
11.76
11.70
11.07
9.68
7.43
4.40
0.86
-2.84
-6.41
-9.75
-12.96
-16.32
-20.18
-24.79
-30.26
-36.41
-42.72
-48.32
-52.09
-52.97
-50.25
-43.87
-34.52
-23.45
-12.12
-1.76
6.84
13.43
18.03
20.87
22.08
21.82
20.32
17.96
15.24
12.70
10.74
9.49
8.89
8.78
9.06
9.67
10.59
11.68
12.64
13.04
12.52
10.95
8.47
5.47
2.31
-0.83
-4.02
-7.58
-11.85
-17.02
-22.98
-29.30
-35.31
-40.22
-43.31
-44.07
-42.33
-38.22
-32.13
-24.58
-16.13
-7.25
1.61
9.96
17.26
22.88
26.31
27.27
25.95
22.93
19.12
15.42
12.53
10.81
10.27
10.70
11.75
13.06
14.25
14.97
14.96
14.13
12.57
10.48
8.07
5.41
2.44
-0.91
-4.55
-8.22
-11.56
-14.43
-17.05
-20.04
-24.07
-29.36
-35.38
-40.80
-43.92
-43.33
-38.53
-30.03
-19.25
-7.92
2.49
11.06
17.44
21.69
24.01
24.59
23.62
21.41
18.35
14.95
11.81
9.42
8.17
8.23
9.53
11.77
14.50
17.16
19.28
20.54
20.80
20.15
18.82
17.03
15.00
12.86
10.65
8.26
5.47
1.98
-2.42
-7.72
-13.52
-19.02
-23.17
-24.95
-23.66
-19.14
-11.84
-2.59
7.54
17.52
26.50
33.79
38.97
41.74
42.04
40.04
36.25
31.41
26.39
21.99
18.76
16.85
16.07
16.02
16.18
16.20
15.85
15.05
13.81
12.07
9.81
7.00
3.74
0.21
-3.30
-6.62
-9.81
-13.18
-17.21
-22.21
-28.00
-33.82
-38.37
-40.25
-38.44
-32.73
-23.81
-13.03
-1.99
8.00
16.12
22.14
26.20
28.69
30.11
31.01
31.87
33.03
34.44
35.78
36.50
36.18
34.69
32.29
29.44
26.54
23.76
20.97
17.91
14.39
10.34
5.84
1.01
-4.00
-9.05
-13.94
-18.55
-22.88
-27.18
-31.88
-37.43
-44.05
-51.41
-58.57
-64.23
-67.00
-65.92
-60.70
-51.89
-40.66
-28.46
-16.68
-6.31
2.20
8.79
13.66
17.01
18.99
19.73
19.48
18.68
17.82
17.37
17.51
18.12
18.92
19.62
20.12
20.48
20.80
21.07
21.04
20.37
18.72
16.04
12.54
8.67
4.92
1.62
-1.18
-3.77
-6.65
-10.34
-15.15
-21.03
-27.40
-33.33
-37.61
-39.12
-37.12
-31.43
-22.59
-11.70
-0.16
10.65
19.72
26.56
31.06
33.43
33.98
32.97
30.76
27.78
24.59
21.78
19.89
19.13
19.43
20.40
21.55
22.44
22.84
22.71
22.18
21.46
20.69
19.85
18.75
17.10
14.65
11.36
7.43
3.32
-0.50
-3.75
-6.46
-8.98
-11.85
-15.51
-20.17
-25.60
-31.28
-36.39
-40.04
-41.42
-39.93
-35.33
-27.83
-18.12
-7.24
3.59
13.27
20.96
26.25
29.06
29.61
28.27
25.55
22.04
18.39
15.22
13.00
11.98
12.11
13.15
14.77
16.62
18.45
20.08
21.34
22.02
21.94
20.91
18.86
15.91
12.34
8.55
4.90
1.64
-1.20
-3.83
-6.63
-10.01
-14.29
-19.47
-25.20
-30.73
-35.03
-37.10
-36.18
-32.04
-25.05
-16.03
-6.06
3.77
12.56
19.69
24.85
27.91
28.97
28.26
26.13
23.04
19.53
16.12
13.36
11.58
10.97
11.42
12.59
14.01
15.16
15.64
15.19
13.82
11.68
9.01
6.04
2.98
-0.12
-3.22
-6.36
-9.61
-13.07
-16.89
-21.22
-26.14
-31.49
-36.84
-41.39
-44.13
-44.11
-40.70
-33.85
-24.23
-13.03
-1.74
8.29
16.07
21.21
23.74
24.04
22.59
19.95
16.72
13.52
10.96
9.45
9.12
9.67
10.58
11.24
11.29
10.72
9.83
9.05
8.59
8.32
7.82
6.55
4.22
0.92
-2.95
-6.83
-10.38
-13.59
-16.85
-20.60
-25.14
-30.38
-35.75
-40.39
-43.37
-43.91
-41.62
-36.58
-29.25
-20.42
-11.00
-1.91
6.09
12.38
16.55
18.43
18.10
16.03
12.87
9.40
6.28
3.88
2.30
1.44
1.16
1.38
2.04
3.08
4.30
5.35
5.89
5.68
4.70
3.13
1.28
-0.57
-2.24
-3.67
-4.99
-6.39
-8.11
-10.39
-13.39
-17.19
-21.66
-26.45
-30.88
-34.06
-34.95
-32.76
-27.19
-18.64
-8.20
2.66
12.50
20.32
25.74
28.89
30.08
29.64
27.77
24.58
20.38
15.72
11.35
8.01
6.20
5.96
6.93
8.56
10.31
11.86
13.08
13.94
14.34
14.09
12.89
10.55
7.11
2.91
-1.46
-5.39
-8.46
-10.71
-12.54
-14.63
-17.54
-21.42
-25.79
-29.65
-31.87
-31.49
-28.17
-22.23
-14.50
-5.96
2.49
10.17
16.58
21.33
24.07
24.56
22.84
19.35
14.85
10.28
6.49
4.01
2.96
3.06
3.84
4.80
5.58
6.02
6.11
5.89
5.36
4.45
3.09
1.23
-1.00
-3.39
-5.69
-7.84
-10.01
-12.61
-16.05
-20.48
-25.55
-30.44
-34.05
-35.35
-33.74
-29.21
-22.32
-13.99
-5.22
3.12
10.36
16.05
19.92
21.82
21.75
19.88
16.62
12.50
8.13
4.07
0.73
-1.63
-2.98
-3.38
-3.01
-2.17
-1.24
-0.59
-0.51
-1.17
-2.55
-4.49
-6.76
-9.13
-11.48
-13.82
-16.39
-19.52
-23.57
-28.62
-34.37
-40.03
-44.53
-46.80
-46.11
-42.31
-35.79
-27.39
-18.10
-8.87
-0.43
6.69
12.19
15.92
17.85
18.13
17.10
15.21
13.00
10.88
9.11
7.76
6.82
6.26
6.16
6.57
7.45
8.55
9.43
9.62
8.76
6.78
3.86
0.38
-3.24
-6.69
-9.76
-12.44
-14.89
-17.47
-20.62
-24.70
-29.76
-35.33
-40.50
-44.07
-44.91
-42.35
-36.33
-27.46
-16.78
-5.56
5.02
13.98
20.69
24.84
26.48
25.97
23.88
20.92
17.73
14.84
12.57
11.05
10.27
10.11
10.47
11.20
12.21
13.36
14.47
15.28
15.52
15.00
13.64
11.52
8.84
5.84
2.72
-0.37
-3.34
-6.20
-9.07
-12.17
-15.81
-20.28
-25.54
-31.10
-35.99
-38.92
-38.72
-34.77
-27.26
-17.16
-5.91
5.05
14.60
22.15
27.52
30.76
32.04
31.56
29.62
26.65
23.22
19.96
17.42
15.91
15.43
15.70
16.29
16.81
17.03
16.99
16.88
16.89
17.02
17.02
16.40
14.76
11.93
8.19
4.12
0.37
-2.67
-4.99
-6.97
-9.11
-11.81
-15.28
-19.45
-24.07
-28.76
-32.96
-35.98
-37.02
-35.43
-30.90
-23.63
-14.37
-4.22
5.69
14.48
21.59
26.81
30.12
31.59
31.38
29.73
27.05
23.86
20.74
18.19
16.53
15.83
16.00
16.84
18.15
19.64
21.02
21.96
22.15
21.39
19.62
16.99
13.73
10.07
6.27
2.49
-1.15
-4.60
-7.94
-11.41
-15.28
-19.70
-24.50
-29.10
-32.53
-33.76
-32.06
-27.25
-19.83
-10.80
-1.32
7.58
15.20
21.20
25.43
27.80
28.23
26.75
23.56
19.20
14.41
9.98
6.54
4.44
3.65
3.98
5.07
6.59
8.16
9.39
9.92
9.45
7.88
5.30
2.05
-1.47
-4.95
-8.23
-11.39
-14.67
-18.42
-22.86
-28.02
-33.58
-38.81
-42.74
-44.30
-42.76
-37.87
-30.04
-20.19
-9.52
0.84
10.00
17.33
22.44
25.17
25.56
23.90
20.76
16.87
12.91
9.42
6.68
4.81
3.81
3.66
4.30
5.56
7.14
8.66
9.69
9.93
9.24
7.61
5.19
2.22
-0.99
-4.19
-7.22
-10.10
-13.06
-16.43
-20.45
-25.10
-29.90
-34.01
-36.37
-36.06
-32.56
-25.94
-16.83
-6.25
4.63
14.77
23.36
29.97
34.48
37.03
37.88
37.34
35.70
33.19
29.99
26.31
22.42
18.64
15.31
12.65
10.68
9.25
8.01
6.70
5.14
3.33
1.32
-0.87
-3.33
-6.21
-9.67
-13.79
-18.45
-23.48
-28.65
-33.72
-38.37
-42.14
-44.44
-44.59
-42.06
-36.73
-28.89
-19.29
-8.90
1.24
10.28
17.58
22.69
25.39
25.68
23.83
20.40
16.19
12.04
8.65
6.41
5.41
5.47
6.24
7.37
8.46
9.17
9.21
8.46
6.97
4.97
2.82
0.89
-0.59
-1.66
-2.60
-3.93
-6.16
-9.63
-14.24
-19.43
-24.27
-27.67
-28.72
-26.93
-22.34
-15.43
-7.01
2.00
10.74
18.41
24.37
28.20
29.71
29.05
26.69
23.31
19.61
16.19
13.41
11.35
9.96
9.08
8.64
8.54
8.73
9.07
9.38
9.42
8.93
7.75
5.85
3.34
0.38
-2.84
-6.30
-10.14
-14.60
-19.84
-25.74
-31.75
-36.91
-40.07
-40.24
-36.90
-30.28
-21.24
-11.07
-1.05
7.74
14.66
19.42
22.00
22.51
21.22
18.56
15.14
11.58
8.45
6.08
4.61
3.96
4.05
4.77
5.99
7.42
8.67
9.23
8.75
7.14
4.57
1.42
-1.95
-5.23
-8.32
-11.28
-14.36
-17.91
-22.24
-27.51
-33.49
-39.51
-44.48
-47.23
-46.81
-42.82
-35.58
-25.99
-15.29
-4.76
4.56
12.01
17.22
20.17
21.04
20.23
18.24
15.66
13.04
10.84
9.33
8.58
8.53
9.00
9.79
10.68
11.47
12.00
12.16
11.85
10.99
9.48
7.29
4.46
1.20
-2.18
-5.44
-8.55
-11.73
-15.42
-20.00
-25.46
-31.30
-36.51
-39.89
-40.41
-37.52
-31.30
-22.44
-12.06
-1.44
8.24
16.12
21.73
25.03
26.26
25.83
24.21
21.81
19.02
16.19
13.69
11.86
10.91
10.95
11.87
13.38
15.13
16.71
17.77
18.13
17.64
16.32
14.25
11.48
8.19
4.52
0.67
-3.22
-7.14
-11.22
-15.65
-20.47
-25.42
-29.85
-32.84
-33.50
-31.25
-26.04
-18.37
-9.16
0.52
9.66
17.44
23.39
27.23
28.97
28.76
26.88
23.76
19.90
15.90
12.35
9.76
8.42
8.41
9.48
11.22
13.09
14.57
15.27
15.03
13.85
11.87
9.32
6.37
3.12
-0.40
-4.24
-8.54
-13.48
-19.10
-25.28
-31.51
-36.91
-40.40
-40.95
-38.00
-31.64
-22.69
-12.43
-2.29
6.54
13.29
17.64
19.71
19.88
18.64
16.51
13.93
11.25
8.73
6.56
4.96
4.16
4.38
5.67
7.85
10.49
12.90
14.49
14.86
14.01
12.24
9.98
7.58
5.17
2.68
-0.07
-3.24
-6.97
-11.38
-16.62
-22.74
-29.45
-36.04
-41.31
-43.88
-42.61
-37.07
-27.83
-16.25
-4.22
6.51
14.68
19.84
22.19
22.38
21.16
19.16
16.83
14.48
12.32
10.55
9.29
8.58
8.38
8.55
8.97
9.54
10.20
10.92
11.61
12.09
12.07
11.23
9.33
6.34
2.49
-1.79
-5.98
-9.72
-12.95
-15.93
-19.12
-22.94
-27.61
-32.94
-38.36
-42.95
-45.66
-45.55
-42.08
-35.23
-25.61
-14.33
-2.77
7.81
16.41
22.53
26.09
27.33
26.74
24.85
22.25
19.50
17.06
15.25
14.24
14.03
14.48
15.45
16.75
18.22
19.74
21.15
22.23
22.75
22.45
21.22
19.08
16.26
13.14
10.10
7.40
5.11
3.04
0.81
-2.03
-5.83
-10.71
-16.38
-22.08
-26.74
-29.16
-28.44
-24.28
-17.08
-7.87
2.05
11.47
19.55
25.82
30.12
32.41
32.71
31.11
27.99
23.93
19.74
16.18
13.76
12.66
12.74
13.72
15.29
17.19
19.12
20.80
21.85
21.97
20.96
18.77
15.50
11.37
6.66
1.68
-3.27
-8.03
-12.68
-17.49
-22.79
-28.78
-35.10
-40.90
-44.91
-45.96
-43.40
-37.41
-28.88
-19.12
-9.42
-0.72
6.40
11.63
14.78
15.69
14.41
11.27
6.97
2.39
-1.57
-4.29
-5.52
-5.39
-4.24
-2.49
-0.58
1.07
2.14
2.35
1.55
-0.23
-2.87
-6.11
-9.64
-13.12
-16.26
-18.88
-21.00
-22.94
-25.20
-28.35
-32.71
-38.09
-43.72
-48.37
-50.66
-49.53
-44.55
-36.00
-24.82
-12.29
0.24
11.64
21.07
28.04
32.33
34.01
33.38
31.01
27.65
24.08
20.96
18.67
17.28
16.62
16.50
16.76
17.37
18.27
19.31
20.12
20.27
19.42
17.44
14.54
11.12
7.61
4.22
1.02
-2.16
-5.53
-9.36
-13.93
-19.38
-25.60
-32.09
-37.93
-41.88
-42.78
-39.91
-33.29
-23.74
-12.56
-1.21
9.13
17.67
24.06
28.19
30.12
30.00
28.16
25.10
21.43
17.85
14.92
12.98
12.14
12.29
13.21
14.57
16.09
17.39
18.17
18.20
17.40
15.88
13.83
11.45
8.84
6.01
2.89
-0.60
-4.55
-9.10
-14.31
-20.17
-26.41
-32.40
-37.18
-39.69
-39.05
-34.91
-27.56
-17.92
-7.25
3.16
12.27
19.39
24.26
26.88
27.42
26.15
23.43
19.70
15.52
11.55
8.43
6.68
6.49
7.67
9.73
11.99
13.82
14.81
14.84
13.98
12.45
10.38
7.85
4.86
1.49
-2.15
-5.87
-9.59
-13.41
-17.59
-22.37
-27.65
-32.83
-36.88
-38.60
-37.11
-32.12
-24.12
-14.13
-3.40
6.93
16.01
23.25
28.28
30.93
31.21
29.38
25.96
21.65
17.19
13.28
10.38
8.78
8.45
9.16
10.54
12.06
13.26
13.77
13.42
12.19
10.26
7.85
5.18
2.42
-0.39
-3.32
-6.56
-10.41
-15.14
-20.95
-27.75
-35.11
-42.14
-47.73
-50.66
-50.08
-45.67
-37.80
-27.42
-15.82
-4.26
6.22
14.85
21.20
25.02
26.33
25.39
22.68
18.95
15.02
11.69
9.48
8.58
8.82
9.80
11.09
12.39
13.55
14.52
15.20
15.38
14.80
13.21
10.61
7.23
3.53
-0.06
-3.32
-6.30
-9.32
-12.83
-17.18
-22.53
-28.65
-34.96
-40.56
-44.40
-45.53
-43.38
-37.89
-29.58
-19.34
-8.28
2.50
12.04
19.61
24.71
27.13
27.08
25.11
22.05
18.76
15.90
13.85
12.67
12.25
12.50
13.36
14.81
16.71
18.80
20.63
21.73
21.75
20.54
18.24
15.14
11.58
7.84
4.10
0.40
-3.30
-7.12
-11.28
-16.04
-21.58
-27.82
-34.30
-40.09
-44.04
-45.05
-42.49
-36.41
-27.48
-16.83
-5.68
4.86
13.98
21.18
26.18
28.90
29.44
28.09
25.33
21.80
18.19
15.15
13.12
12.26
12.42
13.29
14.48
15.67
16.62
17.19
17.19
16.46
14.80
12.20
8.83
5.07
1.35
-2.04
-5.03
-7.93
-11.24
-15.46
-20.80
-27.00
-33.26
-38.45
-41.35
-41.11
-37.42
-30.63
-21.57
-11.34
-1.01
8.52
16.59
22.70
26.58
28.12
27.49
25.07
21.45
17.30
13.28
9.96
7.71
6.68
6.80
7.74
9.06
10.33
11.26
11.66
11.49
10.73
9.33
7.22
4.45
1.18
-2.30
-5.79
-9.30
-13.08
-17.53
-22.85
-28.81
-34.64
-39.19
-41.30
-40.24
-35.88
-28.78
-19.91
-10.39
-1.13
7.19
14.14
19.33
22.42
23.19
21.70
18.42
14.15
9.85
6.31
3.97
2.91
2.91
3.69
4.98
6.53
8.08
9.32
9.92
9.63
8.35
6.20
3.41
0.25
-3.10
-6.63
-10.51
-15.01
-20.36
-26.54
-33.14
-39.32
-44.01
-46.19
-45.24
-41.08
-34.20
-25.44
-15.82
-6.24
2.51
9.85
15.35
18.71
19.87
19.06
16.76
13.63
10.35
7.46
5.30
4.03
3.70
4.29
5.70
7.73
10.04
12.17
13.69
14.28
13.85
12.53
10.58
8.29
5.81
3.16
0.21
-3.30
-7.65
-13.02
-19.26
-25.89
-32.01
-36.54
-38.46
-37.14
-32.55
-25.24
-16.20
-6.56
2.62
10.57
16.83
21.19
23.62
24.26
23.34
21.24
18.42
15.42
12.72
10.71
9.63
9.53
10.33
11.79
13.59
15.37
16.71
17.29
16.87
15.36
12.86
9.65
6.10
2.55
-0.76
-3.88
-7.08
-10.80
-15.42
-20.98
-27.12
-32.97
-37.49
-39.69
-38.93
-35.06
-28.47
-19.93
-10.37
-0.83
7.82
14.85
19.81
22.57
23.27
22.33
20.27
17.62
14.85
12.36
10.49
9.52
9.63
10.76
12.62
14.68
16.38
17.23
17.01
15.81
13.89
11.56
9.09
6.60
4.07
1.45
-1.39
-4.63
-8.49
-13.15
-18.62
-24.62
-30.46
-35.19
-37.75
-37.33
-33.59
-26.78
-17.72
-7.56
2.49
11.37
18.40
23.20
25.71
26.12
24.74
22.01
18.45
14.62
11.03
8.14
6.19
5.29
5.33
6.11
7.32
8.62
9.66
10.14
9.88
8.75
6.81
4.17
1.00
-2.54
-6.30
-10.25
-14.47
-19.12
-24.39
-30.30
-36.62
-42.68
-47.54
-50.15
-49.63
-45.62
-38.31
-28.50
-17.33
-6.09
4.09
12.37
18.36
21.98
23.43
23.05
21.24
18.48
15.29
12.24
9.89
8.64
8.64
9.75
11.62
13.78
15.80
17.37
18.32
18.49
17.88
16.47
14.36
11.74
8.77
5.62
2.35
-1.17
-5.16
-9.92
-15.65
-22.27
-29.28
-35.79
-40.71
-42.96
-41.83
-37.15
-29.36
-19.43
-8.59
1.93
11.12
18.37
23.44
26.39
27.47
27.03
25.50
23.39
21.27
19.66
18.85
18.87
19.46
20.31
21.16
21.96
22.77
23.57
24.19
24.24
23.33
21.27
18.16
14.38
10.37
6.42
2.58
-1.32
-5.55
-10.35
-15.84
-21.99
-28.60
-35.25
-41.33
-46.04
-48.53
-48.12
-44.44
-37.66
-28.42
-17.72
-6.70
3.55
12.18
18.68
22.84
24.78
24.79
23.37
21.08
18.50
16.19
14.58
13.93
14.25
15.33
16.88
18.59
20.25
21.78
23.10
24.08
24.44
23.82
21.93
18.74
14.49
9.68
4.87
0.44
-3.54
-7.32
-11.33
-15.95
-21.31
-27.11
-32.68
-37.07
-39.31
-38.65
-34.76
-27.87
-18.73
-8.49
1.59
10.41
17.20
21.62
23.73
23.84
22.45
20.03
17.06
13.97
11.15
8.99
7.77
7.70
8.75
10.73
13.25
15.83
18.00
19.41
19.86
19.20
17.36
14.28
9.96
4.56
-1.56
-7.97
-14.28
-20.37
-26.40
-32.61
-39.02
-45.21
-50.20
-52.79
-51.89
-47.04
-38.53
-27.39
-14.99
-2.70
8.43
17.73
24.79
29.45
31.59
31.31
28.93
25.11
20.72
16.66
13.63
11.94
11.48
11.85
12.59
13.32
13.85
14.05
13.88
13.24
11.95
9.92
7.10
3.59
-0.39
-4.57
-8.70
-12.66
-16.50
-20.46
-24.94
-30.23
-36.30
-42.62
-48.17
-51.69
-52.20
-49.32
-43.40
-35.33
-26.14
-16.72
-7.62
0.83
8.34
14.50
18.94
21.39
21.93
20.98
19.22
17.38
16.00
15.39
15.58
16.45
17.83
19.58
21.60
23.69
25.62
27.03
27.59
27.08
25.42
22.71
19.14
15.00
10.56
6.08
1.71
-2.58
-6.98
-11.76
-17.13
-23.01
-29.01
-34.45
-38.52
-40.51
-39.96
-36.72
-30.93
-22.95
-13.44
-3.33
6.24
14.06
19.20
21.28
20.65
18.24
15.22
12.55
10.77
9.95
9.93
10.57
11.81
13.66
15.97
18.38
20.30
21.14
20.58
18.62
15.50
11.60
7.16
2.29
-2.96
-8.55
-14.30
-20.02
-25.49
-30.50
-34.82
-38.12
-39.90
-39.61
-36.85
-31.53
-23.97
-14.89
-5.14
4.43
13.18
20.67
26.62
30.80
33.04
33.24
31.51
28.20
23.97
19.66
16.13
14.03
13.60
14.57
16.32
18.09
19.26
19.51
18.83
17.41
15.49
13.16
10.39
7.04
2.93
-1.96
-7.62
-13.85
-20.33
-26.59
-32.04
-35.98
-37.73
-36.82
-33.13
-26.96
-19.03
-10.29
-1.74
5.78
11.68
15.62
17.46
17.24
15.17
11.70
7.46
3.14
-0.67
-3.60
-5.56
-6.66
-7.11
-7.03
-6.58
-5.87
-5.16
-4.82
-5.23
-6.74
-9.48
-13.45
-18.50
-24.52
-31.37
-38.83
-46.43
-53.37
-58.59
-60.99
-59.81
-54.80
-46.44
-35.75
-24.04
-12.64
-2.66
5.11
10.27
12.73
12.64
10.36
6.44
1.62
-3.28
-7.42
-10.20
-11.39
-11.19
-10.20
-9.18
-8.79
-9.44
-11.21
-13.89
-17.22
-20.98
-25.08
-29.57
-34.55
-40.22
-46.75
-54.18
-62.31
-70.51
-77.72
-82.70
-84.29
-81.78
-75.10
-64.76
-51.61
-36.61
-20.76
-5.13
9.08
20.61
28.34
31.68
30.83
26.77
21.08
15.41
11.12
8.92
8.83
10.28
12.39
14.28
15.38
15.50
14.80
13.53
11.82
9.53
6.28
1.62
-4.79
-12.96
-22.54
-32.74
-42.33
-49.78
-53.46
-51.99
-44.75
-32.08
-15.31
3.48
22.09
38.56
51.53
60.29
64.66
64.90
61.67
55.97
49.04
42.23
36.65
32.99
31.37
31.39
32.34
33.47
34.12
33.95
32.88
31.02
28.56
25.60
22.03
17.54
11.69
4.13
-5.20
-15.78
-26.46
-35.52
-41.07
-41.51
-36.05
-25.00
-9.70
7.83
25.47
41.45
54.64
64.47
70.80
73.75
73.65
71.08
66.90
62.15
57.77
54.48
52.53
51.75
51.65
51.61
51.07
49.69
47.38
44.26
40.59
36.60
32.36
27.74
22.45
16.17
8.69
-0.04
-9.73
-19.80
-29.37
-37.38
-42.78
-44.75
-42.95
-37.56
-29.28
-19.10
-8.10
2.76
12.77
21.44
28.45
33.54
36.49
37.21
35.82
32.84
29.10
25.71
23.61
23.34
24.75
27.14
29.51
31.02
31.21
30.13
28.18
25.74
23.10
20.26
17.13
13.63
9.76
5.62
1.22
-3.52
-8.76
-14.49
-20.32
-25.41
-28.60
-28.79
-25.38
-18.54
-9.19
1.32
11.68
20.93
28.56
34.36
38.19
39.89
39.30
36.49
31.93
26.46
21.08
16.76
14.06
13.03
13.23
13.92
14.33
13.93
12.54
10.30
7.53
4.52
1.37
-1.94
-5.48
-9.24
-13.10
-16.99
-21.01
-25.45
-30.62
-36.50
-42.50
-47.47
-50.01
-48.95
-43.86
-35.22
-24.24
-12.50
-1.45
7.88
15.00
19.83
22.53
23.39
22.72
20.92
18.48
15.96
13.85
12.44
11.77
11.64
11.76
11.90
11.96
11.89
11.64
11.04
9.85
7.83
4.87
1.06
-3.33
-7.94
-12.47
-16.76
-20.86
-25.01
-29.59
-34.91
-41.04
-47.63
-53.83
-58.46
-60.37
-58.69
-53.24
-44.51
-33.48
-21.40
-9.39
1.67
11.25
19.05
24.90
28.76
30.65
30.81
29.70
27.97
26.31
25.29
25.19
25.92
27.15
28.43
29.39
29.80
29.61
28.88
27.66
25.99
23.90
21.37
18.40
14.97
11.10
6.83
2.28
-2.32
-6.69
-10.60
-13.94
-16.81
-19.49
-22.35
-25.83
-30.22
-35.63
-41.83
-48.15
-53.54
-56.78
-56.80
-53.04
-45.63
-35.37
-23.51
-11.36
-0.00
9.79
17.59
23.19
26.56
27.84
27.38
25.73
23.55
21.53
20.18
19.81
20.41
21.77
23.51
25.24
26.61
27.43
27.68
27.42
26.76
25.77
24.41
22.62
20.35
17.65
14.70
11.73
8.97
6.53
4.36
2.32
0.15
-2.36
-5.33
-8.75
-12.44
-16.12
-19.54
-22.55
-25.24
-27.88
-30.91
-34.78
-39.72
-45.64
-51.93
-57.64
-61.57
-62.62
-60.10
-53.89
-44.49
-32.90
-20.37
-8.14
2.74
11.52
17.83
21.59
23.01
22.53
20.77
18.45
16.24
14.67
14.03
14.32
15.33
16.76
18.35
19.94
21.49
22.99
24.40
25.57
26.28
26.31
25.50
23.87
21.57
18.85
15.97
13.18
10.61
8.33
6.26
4.26
2.12
-0.33
-3.21
-6.45
-9.88
-13.21
-16.23
-18.88
-21.34
-23.94
-27.08
-31.03
-35.84
-41.26
-46.72
-51.43
-54.49
-55.05
-52.53
-46.79
-38.17
-27.52
-16.01
-4.91
4.71
12.13
17.08
19.65
20.15
19.05
16.83
14.04
11.22
8.90
7.47
7.12
7.83
9.35
11.38
13.59
15.70
17.49
18.82
19.57
19.73
19.28
18.28
16.80
14.88
12.55
9.86
6.89
3.77
0.64
-2.35
-5.13
-7.67
-10.00
-12.19
-14.33
-16.53
-18.99
-21.99
-25.75
-30.23
-35.01
-39.19
-41.67
-41.44
-37.97
-31.42
-22.55
-12.48
-2.35
6.89
14.58
20.33
23.93
25.32
24.63
22.17
18.48
14.24
10.13
6.75
4.45
3.36
3.37
4.22
5.59
7.18
8.71
10.03
10.98
11.44
11.31
10.45
8.82
6.41
3.34
-0.13
-3.70
-7.08
-10.15
-12.87
-15.37
-17.85
-20.48
-23.45
-26.95
-31.15
-36.07
-41.48
-46.74
-50.87
-52.78
-51.63
-47.11
-39.64
-30.16
-19.91
-10.01
-1.27
5.86
11.16
14.51
15.80
15.05
12.50
8.71
4.44
0.54
-2.36
-3.98
-4.40
-3.98
-3.15
-2.22
-1.30
-0.34
0.77
2.04
3.29
4.20
4.37
3.54
1.73
-0.81
-3.66
-6.42
-8.85
-10.96
-12.95
-15.08
-17.62
-20.77
-24.63
-29.15
-34.11
-38.99
-43.05
-45.40
-45.20
-41.94
-35.57
-26.58
-15.90
-4.72
5.79
14.64
21.19
25.10
26.39
25.36
22.52
18.56
14.23
10.18
6.92
4.73
3.66
3.61
4.38
5.75
7.48
9.34
11.11
12.55
13.43
13.50
12.55
10.52
7.51
3.91
0.19
-3.19
-6.05
-8.57
-11.18
-14.41
-18.62
-23.85
-29.69
-35.38
-39.97
-42.51
-42.26
-38.97
-32.84
-24.54
-15.00
-5.19
4.09
12.23
18.79
23.44
25.93
26.20
24.51
21.42
17.72
14.24
11.64
10.26
10.13
11.04
12.66
14.61
16.60
18.32
19.53
19.95
19.40
17.76
15.05
11.50
7.42
3.21
-0.82
-4.50
-7.88
-11.21
-14.88
-19.24
-24.45
-30.29
-36.06
-40.75
-43.23
-42.58
-38.46
-31.16
-21.56
-10.81
-0.08
9.68
17.77
23.78
27.45
28.77
27.94
25.40
21.80
17.82
14.05
10.93
8.71
7.53
7.39
8.20
9.67
11.39
12.87
13.70
13.67
12.77
11.15
9.00
6.44
3.50
0.24
-3.31
-7.07
-11.07
-15.41
-20.26
-25.59
-31.07
-35.88
-38.94
-39.19
-35.99
-29.38
-20.13
-9.41
1.49
11.47
19.82
26.10
30.12
31.78
31.17
28.56
24.51
19.77
15.17
11.40
8.86
7.63
7.56
8.35
9.74
11.45
13.19
14.59
15.27
14.88
13.22
10.34
6.50
2.14
-2.32
-6.54
-10.38
-13.97
-17.66
-21.91
-27.09
-33.24
-39.93
-46.16
-50.65
-52.18
-50.01
-44.11
-35.13
-24.17
-12.43
-0.98
9.40
18.10
24.69
28.85
30.47
29.76
27.30
23.92
20.50
17.72
15.92
15.06
14.93
15.26
15.86
16.65
17.58
18.51
19.22
19.41
18.79
17.22
14.70
11.37
7.47
3.25
-1.04
-5.20
-9.10
-12.70
-16.19
-19.93
-24.39
-29.91
-36.45
-43.42
-49.62
-53.61
-54.10
-50.37
-42.56
-31.56
-18.75
-5.58
6.73
17.32
25.72
31.72
35.35
36.78
36.33
34.49
31.84
29.02
26.59
25.01
24.47
24.94
26.17
27.77
29.33
30.50
31.06
30.90
30.04
28.52
26.42
23.75
20.51
16.66
12.25
7.45
2.50
-2.30
-6.72
-10.68
-14.22
-17.44
-20.49
-23.53
-26.80
-30.60
-35.22
-40.70
-46.64
-52.11
-55.76
-56.28
-52.78
-45.15
-34.15
-21.16
-7.84
4.39
14.51
22.09
27.09
29.74
30.34
29.31
27.15
24.53
22.15
20.65
20.40
21.39
23.31
25.67
28.03
30.13
31.79
32.97
33.59
33.51
32.61
30.84
28.27
25.12
21.70
18.24
14.90
11.66
8.40
4.98
1.34
-2.44
-6.24
-9.94
-13.63
-17.51
-21.87
-26.89
-32.50
-38.34
-43.68
-47.65
-49.33
-48.02
-43.39
-35.65
-25.50
-14.01
-2.37
8.42
17.62
24.78
29.69
32.27
32.59
30.93
27.83
24.12
20.68
18.27
17.34
17.91
19.64
21.96
24.24
26.03
27.08
27.41
27.20
26.59
25.63
24.20
22.13
19.23
15.52
11.18
6.55
2.01
-2.17
-5.92
-9.35
-12.67
-16.14
-19.98
-24.33
-29.21
-34.46
-39.65
-44.12
-46.97
-47.33
-44.56
-38.51
-29.61
-18.79
-7.28
3.69
13.09
20.21
24.72
26.63
26.22
24.04
20.76
17.13
13.79
11.24
9.70
9.21
9.63
10.75
12.34
14.14
15.92
17.45
18.49
18.86
18.38
16.97
14.59
11.40
7.69
3.86
0.24
-2.98
-5.88
-8.72
-11.83
-15.42
-19.56
-24.13
-28.83
-33.25
-36.79
-38.74
-38.41
-35.27
-29.25
-20.80
-10.78
-0.33
9.47
17.77
23.98
27.80
29.19
28.29
25.54
21.56
17.10
12.90
9.53
7.28
6.16
5.95
6.40
7.21
8.16
9.07
9.77
10.13
9.99
9.24
7.83
5.75
3.09
-0.04
-3.44
-6.94
-10.37
-13.68
-16.96
-20.47
-24.55
-29.50
-35.34
-41.66
-47.69
-52.34
-54.54
-53.51
-48.97
-41.24
-31.13
-19.82
-8.54
1.61
9.91
16.00
19.87
21.72
21.82
20.52
18.27
15.64
13.22
11.55
10.87
11.12
11.93
12.90
13.76
14.50
15.26
16.15
17.12
17.85
17.90
16.94
14.88
11.93
8.52
5.09
1.95
-0.82
-3.35
-5.88
-8.73
-12.23
-16.62
-21.99
-28.19
-34.68
-40.57
-44.78
-46.25
-44.33
-38.95
-30.76
-20.86
-10.57
-1.04
6.97
13.16
17.55
20.28
21.48
21.26
19.77
17.36
14.61
12.23
10.88
10.90
12.25
14.50
17.01
19.20
20.71
21.51
21.75
21.63
21.23
20.42
18.96
16.63
13.45
9.63
5.60
1.83
-1.41
-4.05
-6.27
-8.42
-10.91
-14.09
-18.17
-23.19
-28.86
-34.61
-39.58
-42.77
-43.26
-40.54
-34.63
-26.17
-16.17
-5.82
3.83
12.05
18.41
22.73
25.00
25.36
24.13
21.74
18.81
15.96
13.77
12.58
12.46
13.22
14.53
16.04
17.52
18.86
20.04
21.01
21.60
21.55
20.63
18.69
15.81
12.25
8.40
4.61
1.15
-1.93
-4.72
-7.47
-10.54
-14.22
-18.66
-23.67
-28.72
-32.98
-35.59
-35.84
-33.41
-28.39
-21.26
-12.76
-3.76
4.87
12.37
18.13
21.86
23.50
23.28
21.63
19.04
16.09
13.31
11.17
10.01
9.97
10.96
12.72
14.79
16.74
18.17
18.82
18.61
17.62
16.00
13.90
11.39
8.46
5.07
1.28
-2.76
-6.83
-10.79
-14.68
-18.73
-23.20
-28.11
-33.08
-37.30
-39.78
-39.71
-36.67
-30.86
-22.98
-13.98
-4.83
3.63
10.83
16.37
19.99
21.59
21.22
19.21
16.09
12.64
9.58
7.46
6.48
6.50
7.24
8.39
9.71
11.08
12.33
13.21
13.37
12.50
10.52
7.54
3.89
-0.05
-4.01
-7.89
-11.70
-15.55
-19.61
-24.04
-28.95
-34.35
-39.99
-45.28
-49.38
-51.36
-50.43
-46.17
-38.75
-28.87
-17.63
-6.28
4.06
12.54
18.73
22.55
24.15
23.89
22.21
19.64
16.75
14.02
11.83
10.25
9.16
8.27
7.36
6.33
5.27
4.32
3.50
2.65
1.39
-0.71
-3.95
-8.34
-13.56
-19.05
-24.27
-28.81
-32.56
-35.71
-38.69
-41.95
-45.81
-50.27
-54.94
-59.02
-61.47
-61.23
-57.55
-50.12
-39.29
-25.98
-11.46
2.79
15.48
25.63
32.77
36.87
38.34
37.81
36.04
33.72
31.41
29.51
28.21
27.53
27.36
27.50
27.73
27.87
27.84
27.58
27.02
25.99
24.21
21.27
16.87
10.90
3.61
-4.42
-12.43
-19.75
-26.10
-31.63
-36.98
-42.87
-49.93
-58.28
-67.47
-76.47
-83.80
-87.86
-87.22
-80.98
-69.13
-52.66
-33.45
-13.88
3.76
17.81
27.58
33.26
35.59
35.45
33.63
30.71
27.25
23.82
21.09
19.56
19.50
20.79
23.04
25.72
28.33
30.42
31.66
31.76
30.55
27.98
24.22
19.58
14.43
9.09
3.67
-1.94
-8.09
-15.18
-23.54
-33.15
-43.42
-53.15
-60.68
-64.24
-62.51
-54.99
-42.27
-25.86
-7.83
9.73
25.12
37.27
45.69
50.40
51.73
50.29
46.85
42.36
37.78
33.94
31.40
30.34
30.60
31.79
33.38
34.89
35.90
36.17
35.56
34.02
31.62
28.43
24.61
20.30
15.63
10.62
5.12
-1.14
-8.45
-16.87
-26.04
-35.13
-43.00
-48.40
-50.26
-47.96
-41.31
-30.65
-16.80
-1.05
15.04
29.83
41.91
50.41
55.18
56.65
55.67
53.17
50.00
46.81
43.99
41.76
40.22
39.34
38.95
38.81
38.56
37.79
36.14
33.31
29.24
24.12
18.29
12.18
6.12
0.22
-5.66
-11.76
-18.34
-25.51
-33.16
-40.91
-48.15
-54.15
-58.15
-59.48
-57.58
-52.15
-43.18
-31.05
-16.56
-0.90
14.50
28.22
39.16
46.73
50.98
52.47
52.07
50.64
48.86
47.14
45.66
44.53
43.80
43.51
43.56
43.66
43.36
42.16
39.67
35.86
30.98
25.48
19.83
14.26
8.82
3.33
-2.39
-8.45
-14.87
-21.62
-28.67
-35.98
-43.41
-50.59
-56.89
-61.46
-63.46
-62.31
-57.87
-50.51
-40.88
-29.71
-17.70
-5.44
6.50
17.52
26.92
34.11
38.73
40.83
40.88
39.69
38.13
36.96
36.57
36.95
37.73
38.37
38.42
37.63
36.00
33.73
30.99
27.90
24.39
20.42
15.98
11.18
6.22
1.30
-3.44
-7.93
-12.18
-16.20
-20.05
-23.85
-27.83
-32.29
-37.43
-43.24
-49.32
-54.83
-58.74
-60.08
-58.31
-53.44
-46.06
-37.05
-27.33
-17.59
-8.29
0.32
7.97
14.31
19.00
21.86
22.97
22.75
21.82
20.80
20.17
20.13
20.63
21.46
22.39
23.24
23.84
24.11
23.99
23.39
22.30
20.66
18.50
15.87
12.85
9.53
6.04
2.47
-1.07
-4.51
-7.86
-11.16
-14.49
-17.95
-21.66
-25.71
-30.15
-34.93
-39.76
-44.10
-47.18
-48.22
-46.60
-42.16
-35.21
-26.49
-17.00
-7.72
0.53
7.21
12.03
14.94
16.06
15.69
14.21
12.14
9.97
8.16
7.04
6.81
7.48
8.87
10.67
12.50
14.07
15.19
15.82
15.98
15.69
14.91
13.54
11.51
8.88
5.85
2.68
-0.36
-3.13
-5.59
-7.84
-10.01
-12.32
-15.01
-18.32
-22.37
-27.03
-31.82
-35.96
-38.51
-38.69
-36.13
-30.95
-23.69
-15.13
-6.10
2.63
10.35
16.45
20.51
22.34
22.07
20.14
17.17
13.87
10.81
8.38
6.76
5.95
5.79
6.11
6.75
7.55
8.42
9.17
9.61
9.47
8.58
6.89
4.55
1.86
-0.84
-3.33
-5.54
-7.57
-9.64
-12.04
-15.06
-18.91
-23.56
-28.65
-33.47
-37.11
-38.68
-37.54
-33.56
-27.11
-18.99
-10.20
-1.71
5.72
11.60
15.68
17.91
18.36
17.27
14.94
11.81
8.42
5.34
2.99
1.56
1.00
1.03
1.39
1.88
2.47
3.21
4.07
4.90
5.42
5.31
4.32
2.40
-0.28
-3.44
-6.71
-9.86
-12.82
-15.71
-18.85
-22.60
-27.22
-32.72
-38.74
-44.61
-49.45
-52.38
-52.73
-50.16
-44.75
-36.91
-27.37
-17.02
-6.81
2.37
9.79
14.98
17.74
18.25
16.99
14.67
12.07
9.87
8.51
8.12
8.57
9.56
10.75
11.89
12.84
13.55
14.02
14.24
14.13
13.60
12.50
10.72
8.22
5.01
1.26
-2.82
-6.96
-10.91
-14.54
-17.93
-21.35
-25.20
-29.76
-34.98
-40.39
-45.08
-47.98
-48.10
-44.94
-38.62
-29.80
-19.52
-8.91
1.07
9.67
16.42
21.04
23.46
23.83
22.52
20.14
17.44
15.12
13.68
13.29
13.86
15.10
16.68
18.34
19.92
21.30
22.39
23.10
23.28
22.76
21.42
19.19
16.12
12.35
8.13
3.75
-0.50
-4.44
-8.02
-11.38
-14.80
-18.64
-23.21
-28.59
-34.54
-40.50
-45.56
-48.71
-49.04
-45.99
-39.60
-30.52
-19.86
-8.92
1.18
9.72
16.38
21.14
24.06
25.21
24.75
22.97
20.47
17.99
16.28
15.76
16.52
18.23
20.39
22.46
24.05
24.95
25.09
24.54
23.48
22.10
20.56
18.90
17.01
14.71
11.82
8.24
4.10
-0.33
-4.72
-8.79
-12.44
-15.75
-18.95
-22.33
-26.16
-30.57
-35.38
-40.11
-43.92
-45.84
-45.03
-41.07
-34.13
-24.96
-14.68
-4.48
4.67
12.16
17.70
21.22
22.81
22.68
21.16
18.72
15.89
13.24
11.22
10.05
9.79
10.27
11.27
12.58
14.04
15.55
16.95
17.99
18.26
17.43
15.34
12.17
8.42
4.65
1.28
-1.59
-4.19
-6.91
-10.10
-13.94
-18.41
-23.38
-28.58
-33.61
-37.81
-40.31
-40.22
-36.94
-30.44
-21.37
-10.92
-0.42
9.02
16.73
22.44
26.16
27.96
27.99
26.48
23.86
20.73
17.80
15.64
14.52
14.40
14.97
15.86
16.69
17.22
17.29
16.78
15.60
13.70
11.11
7.98
4.53
0.95
-2.63
-6.23
-9.97
-13.96
-18.32
-23.06
-28.12
-33.32
-38.27
-42.34
-44.69
-44.46
-41.04
-34.40
-25.08
-14.15
-2.86
7.66
16.62
23.61
28.45
31.11
31.58
30.03
26.85
22.73
18.51
15.04
12.82
11.91
11.98
12.48
12.94
13.12
13.01
12.70
12.23
11.48
10.27
8.45
5.99
3.03
-0.21
-3.52
-6.78
-9.94
-13.08
-16.33
-19.86
-23.87
-28.49
-33.72
-39.26
-44.43
-48.30
-49.81
-48.09
-42.76
-34.12
-23.07
-10.89
1.05
11.68
20.33
26.78
31.05
33.32
33.78
32.67
30.34
27.28
24.10
21.44
19.80
19.38
20.04
21.36
22.80
23.88
24.31
24.08
23.35
22.30
21.05
19.60
17.83
15.63
12.94
9.79
6.29
2.63
-1.02
-4.51
-7.80
-10.95
-14.12
-17.55
-21.50
-26.18
-31.64
-37.63
-43.53
-48.39
-51.11
-50.75
-46.84
-39.52
-29.56
-18.11
-6.41
4.46
13.75
21.03
26.13
29.04
29.90
29.04
26.91
24.12
21.35
19.23
18.17
18.31
19.49
21.30
23.29
25.07
26.41
27.22
27.52
27.32
26.62
25.47
23.94
22.10
20.07
17.88
15.49
12.79
9.72
6.30
2.67
-0.96
-4.41
-7.68
-10.94
-14.50
-18.70
-23.70
-29.43
-35.49
-41.17
-45.61
-47.92
-47.39
-43.65
-36.83
-27.52
-16.74
-5.67
4.54
13.04
19.38
23.48
25.50
25.75
24.58
22.42
19.79
17.22
15.22
14.13
14.04
14.83
16.22
17.92
19.67
21.25
22.56
23.47
23.83
23.53
22.48
20.67
18.16
15.11
11.76
8.36
5.18
2.32
-0.26
-2.78
-5.56
-8.93
-13.12
-18.16
-23.85
-29.71
-35.06
-39.11
-41.13
-40.62
-37.45
-31.89
-24.53
-16.11
-7.39
0.98
8.48
14.67
19.19
21.79
22.40
21.23
18.78
15.73
12.78
10.46
9.06
8.64
9.12
10.35
12.12
14.18
16.17
17.71
18.47
18.27
17.08
15.04
12.31
9.09
5.57
1.97
-1.53
-4.80
-7.87
-10.99
-14.52
-18.80
-23.91
-29.58
-35.14
-39.66
-42.22
-42.13
-39.09
-33.27
-25.22
-15.77
-5.81
3.77
12.24
19.02
23.68
26.00
26.01
23.99
20.50
16.35
12.38
9.31
7.53
7.05
7.58
8.70
10.03
11.35
12.54
13.57
14.32
14.57
14.05
12.51
9.87
6.27
2.04
-2.41
-6.74
-10.80
-14.60
-18.33
-22.26
-26.61
-31.48
-36.78
-42.17
-47.07
-50.66
-52.08
-50.66
-46.10
-38.62
-29.00
-18.29
-7.63
2.02
10.05
16.12
20.15
22.24
22.59
21.51
19.49
17.07
14.83
13.24
12.52
12.64
13.38
14.45
15.61
16.76
17.87
18.91
19.72
20.03
19.56
18.13
15.76
12.70
9.29
5.86
2.59
-0.49
-3.48
-6.57
-10.01
-14.10
-19.03
-24.78
-30.97
-36.83
-41.40
-43.73
-43.19
-39.63
-33.37
-25.08
-15.66
-5.98
3.16
11.10
17.40
21.76
24.13
24.63
23.62
21.59
19.17
16.96
15.48
15.00
15.53
16.83
18.51
20.20
21.60
22.55
22.99
22.91
22.31
21.16
19.47
17.20
14.38
11.09
7.45
3.67
-0.06
-3.60
-6.93
-10.16
-13.54
-17.36
-21.85
-26.99
-32.50
-37.77
-42.01
-44.43
-44.39
-41.54
-35.94
-28.05
-18.65
-8.72
0.73
8.83
14.98
18.91
20.67
20.58
19.12
16.82
14.24
11.90
10.18
9.35
9.42
10.23
11.56
13.08
14.58
15.89
16.89
17.47
17.50
16.87
15.55
13.55
10.99
8.04
4.88
1.63
-1.60
-4.81
-8.11
-11.67
-15.67
-20.17
-24.96
-29.52
-33.12
-34.97
-34.50
-31.51
-26.22
-19.20
-11.16
-2.90
4.90
11.66
16.90
20.30
21.72
21.25
19.22
16.16
12.75
9.61
7.26
5.96
5.72
6.34
7.50
8.91
10.32
11.53
12.40
12.83
12.72
12.02
10.72
8.88
6.61
4.02
1.22
-1.74
-4.90
-8.37
-12.34
-16.96
-22.23
-27.85
-33.23
-37.54
-39.90
-39.62
-36.42
-30.52
-22.57
-13.51
-4.29
4.25
11.48
17.03
20.66
22.32
22.10
20.32
17.53
14.46
11.90
10.44
10.30
11.27
12.83
14.38
15.53
16.16
16.36
16.30
16.00
15.31
13.95
11.71
8.58
4.79
0.79
-3.02
-6.36
-9.24
-11.96
-15.00
-18.81
-23.66
-29.43
-35.63
-41.43
-45.88
-48.15
-47.66
-44.20
-37.99
-29.59
-19.81
-9.64
-0.01
8.29
14.77
19.24
21.77
22.60
22.07
20.61
18.68
16.77
15.34
14.68
14.92
15.97
17.62
19.57
21.55
23.28
24.56
25.23
25.25
24.65
23.50
21.80
19.51
16.58
13.03
9.03
4.83
0.76
-3.01
-6.44
-9.73
-13.20
-17.22
-22.05
-27.71
-33.88
-39.87
-44.73
-47.48
-47.34
-43.99
-37.68
-29.15
-19.41
-9.56
-0.50
7.12
12.99
17.06
19.44
20.38
20.18
19.21
17.85
16.54
15.65
15.46
16.13
17.66
19.92
22.63
25.43
27.88
29.63
30.45
30.37
29.60
28.37
26.90
25.22
23.25
20.83
17.89
14.44
10.56
6.40
2.06
-2.31
-6.57
-10.56
-14.16
-17.41
-20.55
-24.02
-28.27
-33.55
-39.64
-45.78
-50.87
-53.74
-53.52
-49.90
-43.19
-34.17
-23.88
-13.31
-3.33
5.42
12.51
17.66
20.75
21.87
21.36
19.77
17.79
16.08
15.13
15.13
15.98
17.41
19.12
20.93
22.79
24.64
26.39
27.83
28.70
28.80
28.11
26.72
24.84
22.60
20.02
17.02
13.58
9.78
5.88
2.23
-0.92
-3.53
-5.81
-8.11
-10.80
-14.12
-18.18
-22.90
-28.11
-33.41
-38.18
-41.65
-43.00
-41.63
-37.38
-30.62
-22.18
-13.06
-4.17
3.82
10.54
15.77
19.43
21.45
21.84
20.77
18.61
15.94
13.39
11.50
10.56
10.55
11.23
12.31
13.49
14.63
15.60
16.28
16.42
15.74
13.99
11.10
7.29
2.95
-1.48
-5.71
-9.63
-13.37
-17.15
-21.17
-25.60
-30.50
-35.88
-41.59
-47.28
-52.40
-56.21
-57.98
-57.11
-53.30
-46.61
-37.43
-26.37
-14.30
-2.18
9.04
18.53
25.76
30.50
32.81
32.96
31.39
28.61
25.23
21.93
19.38
18.01
18.00
19.16
21.09
23.35
25.52
27.36
28.65
29.18
28.68
26.94
23.85
19.58
14.52
9.19
4.09
-0.43
-4.34
-7.93
-11.73
-16.36
-22.28
-29.60
-37.87
-46.12
-53.02
-57.21
-57.68
-54.08
-46.75
-36.65
-25.10
-13.45
-2.87
5.78
11.93
15.37
16.15
14.70
11.71
8.03
4.49
1.69
-0.14
-1.02
-1.14
-0.64
0.45
2.12
4.29
6.67
8.83
10.29
10.70
9.93
8.08
5.38
2.13
-1.39
-4.98
-8.47
-11.86
-15.32
-19.20
-23.92
-29.69
-36.30
-42.89
-48.15
-50.60
-49.10
-43.28
-33.63
-21.45
-8.33
4.19
15.02
23.60
29.72
33.42
34.84
34.24
32.01
28.70
24.94
21.35
18.40
16.34
15.27
15.16
15.88
17.24
18.92
20.52
21.56
21.68
20.66
18.52
15.47
11.82
7.85
3.81
-0.25
-4.35
-8.72
-13.64
-19.37
-25.98
-33.13
-40.03
-45.48
-48.20
-47.16
-41.92
-32.84
-20.94
-7.68
5.45
17.14
26.50
33.08
36.82
37.94
36.89
34.25
30.60
26.54
22.58
19.15
16.59
15.15
14.92
15.78
17.45
19.41
21.13
22.11
22.05
20.91
18.85
16.13
13.02
9.66
6.09
2.24
-2.07
-7.00
-12.64
-18.92
-25.43
-31.42
-35.86
-37.66
-36.00
-30.59
-21.84
-10.77
1.23
12.74
22.67
30.34
35.53
38.30
38.82
37.27
33.89
29.10
23.53
18.02
13.43
10.39
9.11
9.29
10.35
11.54
12.21
12.00
10.78
8.59
5.62
2.06
-1.88
-6.02
-10.24
-14.62
-19.41
-24.99
-31.68
-39.44
-47.70
-55.30
-60.75
-62.62
-60.04
-52.96
-42.19
-29.21
-15.78
-3.49
6.48
13.63
17.96
19.87
19.87
18.46
16.03
13.03
9.97
7.43
5.95
5.80
6.89
8.82
11.06
13.15
14.81
15.93
16.45
16.27
15.25
13.30
10.48
7.05
3.35
-0.32
-3.89
-7.62
-11.99
-17.46
-24.18
-31.71
-39.02
-44.70
-47.41
-46.25
-41.12
-32.63
-21.85
-10.05
1.66
12.38
21.43
28.30
32.68
34.51
34.06
31.89
28.77
25.51
22.73
20.83
19.90
19.86
20.47
21.49
22.70
23.92
24.99
25.71
25.83
25.02
23.00
19.63
15.05
9.67
4.07
-1.16
-5.72
-9.60
-13.10
-16.74
-21.05
-26.40
-32.86
-40.07
-47.18
-52.96
-56.04
-55.37
-50.51
-41.84
-30.46
-17.78
-5.18
6.33
16.15
23.94
29.48
32.65
33.48
32.27
29.66
26.53
23.76
21.99
21.50
22.15
23.56
25.28
26.93
28.32
29.37
30.08
30.33
29.95
28.72
26.45
23.13
18.90
14.09
9.04
4.12
-0.46
-4.63
-8.52
-12.36
-16.53
-21.38
-27.17
-33.85
-40.96
-47.60
-52.50
-54.42
-52.45
-46.36
-36.68
-24.59
-11.55
1.06
12.17
21.18
27.76
31.79
33.28
32.41
29.62
25.65
21.45
17.89
15.60
14.80
15.31
16.71
18.55
20.49
22.32
23.94
25.22
25.93
25.78
24.49
21.94
18.23
13.69
8.77
3.89
-0.69
-4.91
-8.90
-12.93
-17.33
-22.41
-28.31
-34.88
-41.53
-47.22
-50.71
-50.87
-47.11
-39.61
-29.25
-17.38
-5.38
5.65
15.01
22.36
27.53
30.45
31.15
29.85
27.01
23.37
19.77
16.96
15.37
15.06
15.69
16.81
17.99
18.99
19.76
20.37
20.77
20.74
19.91
17.91
14.57
10.04
4.75
-0.73
-5.96
-10.73
-15.11
-19.35
-23.76
-28.62
-34.16
-40.46
-47.35
-54.34
-60.51
-64.64
-65.51
-62.29
-54.84
-43.78
-30.37
-16.08
-2.32
9.90
19.90
27.34
32.07
34.10
33.67
31.27
27.70
23.86
20.63
18.58
17.87
18.29
19.39
20.68
21.82
22.63
23.15
23.45
23.55
23.30
22.44
20.61
17.61
13.48
8.54
3.30
-1.68
-6.08
-9.91
-13.50
-17.38
-22.04
-27.76
-34.47
-41.71
-48.68
-54.34
-57.62
-57.62
-53.83
-46.29
-35.63
-22.90
-9.41
3.51
14.82
23.75
29.96
33.37
34.19
32.82
29.80
25.87
21.82
18.42
16.26
15.59
16.24
17.75
19.53
21.09
22.20
22.83
23.03
22.82
22.04
20.46
17.89
14.30
9.88
5.03
0.22
-4.16
-7.92
-11.17
-14.30
-17.89
-22.42
-28.15
-34.83
-41.71
-47.64
-51.36
-51.80
-48.37
-41.11
-30.68
-18.26
-5.23
7.08
17.62
25.73
31.10
33.78
33.99
32.13
28.76
24.56
20.27
16.59
13.99
12.67
12.55
13.36
14.72
16.26
17.67
18.69
19.14
18.88
17.81
15.93
13.28
9.97
6.20
2.14
-1.98
-6.06
-10.14
-14.47
-19.43
-25.35
-32.26
-39.67
-46.60
-51.69
-53.63
-51.53
-45.27
-35.55
-23.64
-11.05
0.86
11.13
19.27
25.05
28.42
29.41
28.20
25.19
21.04
16.56
12.54
9.52
7.73
7.14
7.55
8.69
10.27
11.97
13.37
14.09
13.76
12.27
9.73
6.46
2.85
-0.83
-4.49
-8.28
-12.53
-17.65
-23.94
-31.41
-39.62
-47.59
-53.92
-57.18
-56.28
-50.89
-41.52
-29.41
-16.12
-3.14
8.42
17.83
24.78
29.17
31.06
30.73
28.62
25.33
21.51
17.74
14.50
12.11
10.75
10.45
11.08
12.29
13.55
14.25
13.85
12.04
8.82
4.48
-0.54
-5.78
-10.85
-15.53
-19.76
-23.71
-27.68
-32.13
-37.49
-43.92
-51.07
-57.96
-63.09
-64.88
-62.15
-54.59
-42.89
-28.57
-13.54
0.48
12.27
21.25
27.33
30.70
31.67
30.51
27.64
23.61
19.19
15.16
12.21
10.73
10.74
11.94
13.89
16.10
18.14
19.70
20.49
20.30
18.97
16.48
12.95
8.67
4.03
-0.59
-4.94
-9.01
-13.08
-17.68
-23.31
-30.15
-37.84
-45.33
-51.10
-53.57
-51.65
-45.08
-34.56
-21.45
-7.38
6.15
18.04
27.58
34.37
38.24
39.22
37.63
34.15
29.66
25.13
21.33
18.70
17.28
16.85
17.05
17.59
18.25
18.89
19.39
19.56
19.12
17.81
15.44
11.99
7.70
2.94
-1.90
-6.50
-10.82
-15.02
-19.44
-24.48
-30.34
-36.93
-43.67
-49.51
-53.10
-53.13
-48.76
-39.99
-27.72
-13.53
0.78
13.70
24.27
32.10
37.19
39.68
39.80
37.83
34.21
29.65
24.96
20.95
18.24
17.09
17.40
18.84
20.93
23.17
25.12
26.39
26.68
25.79
23.62
20.23
15.85
10.81
5.49
0.15
-5.14
-10.51
-16.28
-22.80
-30.24
-38.35
-46.32
-52.88
-56.54
-56.12
-51.05
-41.67
-29.10
-14.92
-0.74
12.13
22.83
30.88
36.09
38.46
38.20
35.76
31.87
27.38
23.16
19.82
17.69
16.73
16.73
17.39
18.45
19.71
20.94
21.86
22.10
21.27
19.13
15.66
11.10
5.92
0.62
-4.40
-8.99
-13.27
-17.57
-22.38
-28.17
-35.26
-43.60
-52.63
-61.18
-67.65
-70.36
-68.11
-60.57
-48.50
-33.46
-17.38
-1.99
11.46
22.33
30.37
35.54
37.97
37.95
36.01
32.88
29.37
26.16
23.70
22.18
21.55
21.68
22.37
23.38
24.49
25.50
26.24
26.51
26.11
24.72
22.08
18.08
12.88
7.00
1.08
-4.30
-8.94
-13.09
-17.34
-22.37
-28.69
-36.37
-44.98
-53.54
-60.73
-65.07
-65.33
-60.81
-51.62
-38.70
-23.58
-8.06
6.26
18.21
27.19
33.10
36.14
36.66
35.09
32.01
28.14
24.30
21.28
19.67
19.58
20.74
22.60
24.60
26.35
27.74
28.80
29.56
29.88
29.49
28.02
25.22
21.09
15.91
10.17
4.47
-0.76
-5.33
-9.41
-13.44
-17.90
-23.24
-29.59
-36.77
-44.12
-50.61
-54.98
-55.99
-52.82
-45.29
-34.06
-20.41
-5.95
7.80
19.69
29.04
35.49
38.97
39.57
37.61
33.74
28.88
24.05
20.18
17.82
17.07
17.66
19.12
21.01
22.97
24.78
26.24
27.14
27.25
26.34
24.29
21.13
17.07
12.43
7.61
2.95
-1.37
-5.38
-9.34
-13.69
-18.93
-25.32
-32.77
-40.61
-47.71
-52.67
-54.16
-51.37
-44.21
-33.39
-20.24
-6.37
6.74
17.97
26.67
32.56
35.64
36.08
34.18
30.38
25.36
19.89
14.79
10.73
8.04
6.70
6.45
6.87
7.55
8.17
8.47
8.23
7.25
5.39
2.64
-0.83
-4.71
-8.66
-12.39
-15.78
-18.86
-21.80
-24.81
-28.15
-32.03
-36.69
-42.22
-48.41
-54.62
-59.78
-62.56
-61.81
-56.88
-47.90
-35.74
-21.73
-7.30
6.34
18.36
28.25
35.73
40.63
42.96
42.96
41.17
38.36
35.37
32.82
31.04
30.02
29.59
29.54
29.78
30.30
31.09
31.95
32.51
32.28
30.78
27.79
23.38
17.91
11.89
5.84
0.11
-5.16
-9.98
-14.47
-18.83
-23.35
-28.38
-34.24
-40.95
-48.02
-54.39
-58.61
-59.34
-55.77
-47.95
-36.77
-23.61
-9.98
2.87
14.02
22.90
29.16
32.65
33.44
31.85
28.51
24.24
19.94
16.37
14.03
13.09
13.37
14.49
16.07
17.83
19.63
21.39
22.91
23.87
23.82
22.38
19.41
15.11
10.00
4.71
-0.24
-4.64
-8.59
-12.45
-16.72
-21.82
-27.91
-34.72
-41.56
-47.29
-50.64
-50.54
-46.50
-38.72
-28.09
-15.89
-3.45
8.07
17.86
25.41
30.48
33.07
33.35
31.73
28.72
24.94
20.98
17.35
14.51
12.77
12.28
12.95
14.47
16.30
17.85
18.62
18.30
16.86
14.46
11.36
7.81
3.98
-0.01
-4.06
-8.12
-12.21
-16.50
-21.30
-26.88
-33.25
-39.89
-45.74
-49.43
-49.67
-45.77
-37.88
-27.01
-14.65
-2.35
8.69
17.73
24.48
28.88
30.95
30.82
28.72
25.09
20.58
15.93
11.80
8.61
6.52
5.45
5.23
5.64
6.44
7.35
8.00
8.03
7.12
5.16
2.23
-1.42
-5.42
-9.43
-13.23
-16.73
-20.09
-23.66
-27.90
-33.16
-39.40
-46.04
-51.94
-55.65
-55.93
-52.09
-44.27
-33.37
-20.76
-7.88
4.03
14.06
21.71
26.73
29.19
29.34
27.68
24.83
21.48
18.22
15.50
13.57
12.44
12.00
12.03
12.36
12.85
13.46
14.10
14.59
14.63
13.81
11.77
8.41
3.94
-1.14
-6.18
-10.66
-14.38
-17.51
-20.59
-24.27
-29.08
-35.17
-42.10
-48.88
-54.16
-56.59
-55.23
-49.78
-40.73
-29.14
-16.39
-3.81
7.56
17.00
24.14
28.82
31.08
31.09
29.23
26.05
22.29
18.63
15.66
13.69
12.74
12.61
13.00
13.64
14.35
15.06
15.69
16.08
16.03
15.25
13.54
10.82
7.24
3.13
-1.07
-5.00
-8.47
-11.55
-14.56
-17.96
-22.21
-27.57
-33.91
-40.64
-46.74
-50.95
-52.07
-49.34
-42.67
-32.71
-20.64
-7.86
4.35
15.09
23.81
30.26
34.25
35.68
34.61
31.37
26.70
21.57
17.02
13.79
12.16
11.93
12.60
13.66
14.74
15.72
16.58
17.27
17.60
17.30
16.08
13.83
10.63
6.80
2.78
-1.03
-4.38
-7.25
-9.85
-12.49
-15.53
-19.28
-23.90
-29.33
-35.18
-40.76
-45.06
-47.02
-45.74
-40.82
-32.48
-21.58
-9.40
2.68
13.44
22.06
28.12
31.56
32.55
31.39
28.51
24.49
20.04
15.96
12.91
11.24
10.93
11.57
12.65
13.72
14.57
15.24
15.84
16.40
16.76
16.60
15.59
13.55
10.54
6.88
3.00
-0.73
-4.11
-7.18
-10.16
-13.43
-17.34
-22.12
-27.81
-34.08
-40.21
-45.16
-47.78
-47.11
-42.71
-34.82
-24.31
-12.44
-0.53
10.33
19.31
25.95
30.02
31.56
30.81
28.25
24.48
20.20
16.02
12.43
9.78
8.19
7.67
8.06
9.12
10.53
11.94
12.96
13.24
12.56
10.85
8.21
4.93
1.37
-2.16
-5.43
-8.43
-11.33
-14.49
-18.29
-23.02
-28.66
-34.70
-40.16
-43.74
-44.21
-40.85
-33.73
-23.72
-12.25
-0.82
9.39
17.69
23.86
27.87
29.74
29.46
27.16
23.23
18.35
13.31
8.87
5.54
3.44
2.47
2.39
2.95
3.93
5.11
6.26
7.04
7.14
6.29
4.40
1.56
-1.94
-5.69
-9.35
-12.79
-16.16
-19.87
-24.44
-30.16
-36.90
-43.93
-49.96
-53.53
-53.46
-49.21
-41.08
-30.11
-17.70
-5.26
6.10
15.69
23.10
28.09
30.58
30.59
28.40
24.56
19.82
15.00
10.77
7.62
5.77
5.23
5.84
7.35
9.34
11.32
12.72
13.09
12.14
9.91
6.71
3.00
-0.74
-4.23
-7.36
-10.31
-13.37
-16.92
-21.33
-26.74
-32.96
-39.26
-44.47
-47.14
-46.10
-40.82
-31.73
-20.16
-7.86
3.47
12.65
19.24
23.33
25.34
25.68
24.72
22.70
19.92
16.75
13.68
11.18
9.66
9.29
10.02
11.57
13.50
15.35
16.70
17.28
16.98
15.76
13.70
10.92
7.58
3.88
0.03
-3.81
-7.67
-11.74
-16.39
-21.92
-28.31
-34.98
-40.79
-44.33
-44.37
-40.36
-32.58
-22.14
-10.53
0.81
10.85
19.00
25.00
28.81
30.38
29.80
27.36
23.62
19.40
15.55
12.75
11.35
11.27
12.20
13.70
15.39
16.95
18.14
18.74
18.51
17.29
15.04
11.92
8.26
4.40
0.63
-2.95
-6.46
-10.23
-14.62
-19.86
-25.85
-32.02
-37.36
-40.62
-40.69
-36.94
-29.49
-19.20
-7.42
4.34
14.76
22.94
28.43
31.22
31.59
29.99
26.97
23.09
18.96
15.11
12.01
10.02
9.28
9.70
10.95
12.58
14.07
15.00
15.06
14.11
12.21
9.50
6.25
2.70
-0.95
-4.63
-8.43
-12.57
-17.35
-23.01
-29.60
-36.79
-43.84
-49.61
-52.88
-52.56
-48.10
-39.70
-28.28
-15.29
-2.35
9.13
18.21
24.47
27.96
29.02
28.12
25.80
22.59
19.07
15.83
13.40
12.16
12.27
13.54
15.57
17.83
19.80
21.08
21.45
20.84
19.24
16.74
13.45
9.55
5.29
0.89
-3.48
-7.79
-12.20
-16.99
-22.47
-28.68
-35.30
-41.48
-46.05
-47.75
-45.73
-39.79
-30.54
-19.15
-7.06
4.39
14.25
22.00
27.40
30.44
31.20
29.86
26.85
22.84
18.70
15.31
13.32
12.94
13.91
15.69
17.67
19.47
20.92
22.01
22.67
22.68
21.69
19.44
15.95
11.57
6.83
2.28
-1.80
-5.47
-9.06
-13.03
-17.83
-23.66
-30.35
-37.31
-43.54
-47.78
-48.86
-46.06
-39.31
-29.31
-17.31
-4.78
6.93
16.82
24.30
29.17
31.52
31.66
30.02
27.17
23.77
20.49
17.93
16.46
16.15
16.79
18.00
19.39
20.68
21.67
22.20
22.12
21.24
19.38
16.55
12.92
8.79
4.53
0.43
-3.40
-7.00
-10.64
-14.66
-19.46
-25.22
-31.75
-38.34
-43.82
-46.88
-46.47
-42.13
-34.20
-23.70
-12.00
-0.44
9.92
18.43
24.77
28.84
30.75
30.70
29.05
26.34
23.18
20.21
17.94
16.61
16.20
16.45
17.07
17.80
18.49
19.03
19.26
18.92
17.73
15.46
12.09
7.88
3.27
-1.29
-5.48
-9.27
-12.84
-16.55
-20.80
-25.92
-32.05
-38.88
-45.68
-51.28
-54.35
-53.81
-49.20
-40.86
-29.86
-17.69
-5.79
4.76
13.33
19.76
24.08
26.44
27.00
26.04
23.96
21.36
18.89
17.18
16.59
17.13
18.50
20.20
21.77
22.91
23.54
23.73
23.54
22.98
21.89
20.03
17.20
13.36
8.68
3.54
-1.59
-6.34
-10.54
-14.28
-17.85
-21.64
-26.02
-31.24
-37.33
-43.92
-50.23
-55.10
-57.22
-55.53
-49.61
-39.90
-27.57
-14.26
-1.49
9.58
18.40
24.84
29.00
31.07
31.30
30.06
27.89
25.45
23.39
22.20
22.07
22.91
24.38
26.12
27.77
29.09
29.90
30.10
29.68
28.66
27.08
24.99
22.36
19.14
15.35
11.02
6.38
1.69
-2.79
-6.91
-10.71
-14.34
-18.03
-22.04
-26.55
-31.68
-37.29
-42.97
-47.95
-51.20
-51.72
-48.82
-42.42
-33.07
-21.85
-9.99
1.31
11.19
19.13
24.88
28.40
29.75
29.14
26.96
23.79
20.41
17.63
16.06
15.99
17.21
19.26
21.51
23.51
25.07
26.21
27.04
27.51
27.42
26.44
24.31
21.02
16.84
12.25
7.69
3.45
-0.42
-4.06
-7.71
-11.58
-15.83
-20.62
-26.05
-32.08
-38.40
-44.30
-48.71
-50.51
-48.81
-43.37
-34.63
-23.63
-11.71
-0.10
10.24
18.72
25.04
29.05
30.77
30.37
28.21
24.89
21.16
17.74
15.17
13.67
13.12
13.19
13.53
13.92
14.32
14.79
15.33
15.77
15.77
14.86
12.75
9.42
5.22
0.69
-3.62
-7.38
-10.60
-13.57
-16.75
-20.59
-25.34
-30.96
-37.05
-42.85
-47.32
-49.45
-48.39
-43.83
-35.99
-25.68
-14.06
-2.38
8.26
17.06
23.56
27.63
29.38
29.10
27.24
24.33
21.00
17.82
15.25
13.54
12.70
12.53
12.72
13.01
13.25
13.37
13.37
13.16
12.61
11.53
9.71
7.05
3.57
-0.53
-4.98
-9.45
-13.73
-17.72
-21.59
-25.64
-30.25
-35.67
-41.82
-48.18
-53.80
-57.55
-58.36
-55.59
-49.17
-39.64
-27.98
-15.39
-3.04
8.08
17.22
23.96
28.14
29.90
29.63
27.88
25.27
22.38
19.70
17.56
16.18
15.64
15.88
16.72
17.89
19.08
19.96
20.34
20.10
19.22
17.69
15.50
12.59
8.95
4.65
-0.02
-4.66
-8.82
-12.21
-14.83
-17.07
-19.58
-23.03
-27.86
-34.04
-40.98
-47.57
-52.48
-54.51
-52.88
-47.45
-38.71
-27.64
-15.42
-3.21
7.99
17.43
24.59
29.22
31.29
31.09
29.11
26.04
22.57
19.30
16.65
14.78
13.72
13.37
13.60
14.27
15.24
16.32
17.31
17.98
18.13
17.59
16.28
14.23
11.52
8.33
4.88
1.40
-1.89
-4.90
-7.71
-10.56
-13.89
-18.16
-23.65
-30.18
-37.03
-42.95
-46.54
-46.67
-42.85
-35.42
-25.41
-14.23
-3.20
6.66
14.81
20.97
25.08
27.14
27.25
25.67
22.85
19.40
15.94
12.94
10.66
9.12
8.21
7.80
7.84
8.35
9.31
10.54
11.68
12.25
11.83
10.24
7.63
4.37
0.94
-2.36
-5.48
-8.65
-12.22
-16.53
-21.66
-27.43
-33.30
-38.43
-41.79
-42.43
-39.72
-33.60
-24.63
-13.93
-2.86
7.33
15.69
21.70
25.29
26.60
26.02
23.98
20.96
17.42
13.78
10.41
7.59
5.55
4.41
4.19
4.69
5.58
6.41
6.74
6.29
4.97
2.87
0.18
-2.95
-6.37
-10.00
-13.74
-17.52
-21.37
-25.50
-30.29
-36.04
-42.67
-49.48
-55.25
-58.49
-58.04
-53.41
-45.07
-34.17
-22.15
-10.31
0.38
9.33
16.23
20.90
23.33
23.71
22.47
20.15
17.38
14.65
12.32
10.58
9.56
9.29
9.78
10.91
12.43
13.93
15.00
15.26
14.52
12.77
10.24
7.22
4.04
0.95
-1.99
-4.93
-8.18
-12.12
-17.09
-23.16
-29.98
-36.72
-42.20
-45.14
-44.57
-40.05
-31.89
-21.01
-8.68
3.73
15.02
24.32
31.11
35.21
36.78
36.22
34.18
31.37
28.46
25.89
23.91
22.56
21.75
21.41
21.43
21.71
22.18
22.72
23.15
23.27
22.80
21.51
19.21
15.89
11.70
6.93
1.95
-2.93
-7.54
-11.89
-16.20
-20.79
-26.00
-31.93
-38.33
-44.45
-49.10
-51.03
-49.25
-43.44
-34.05
-22.22
-9.41
2.95
13.74
22.27
28.17
31.41
32.14
30.79
27.96
24.42
20.96
18.23
16.56
15.96
16.22
17.00
18.01
19.09
20.16
21.15
21.87
22.05
21.41
19.73
17.00
13.42
9.33
5.12
1.10
-2.57
-5.90
-9.10
-12.51
-16.52
-21.40
-27.10
-33.07
-38.32
-41.58
-41.69
-38.06
-30.82
-20.82
-9.38
2.16
12.66
21.34
27.79
31.83
33.46
32.86
30.41
26.70
22.43
18.30
14.89
12.55
11.38
11.30
12.08
13.41
14.95
16.38
17.42
17.86
17.56
16.47
14.62
12.13
9.19
5.97
2.59
-0.94
-4.76
-9.09
-14.05
-19.58
-25.23
-30.16
-33.29
-33.58
-30.34
-23.52
-13.78
-2.38
9.22
19.71
28.28
34.69
39.17
42.16
44.02
44.89
44.72
43.35
40.58
36.39
30.93
24.62
18.14
12.33
8.00
5.79
5.88
7.95
11.17
14.50
16.89
17.76
17.06
15.35
13.51
12.33
12.09
12.27
11.73
9.06
3.33
-5.44
-16.10
-26.67
-35.05
-39.71
-40.08
-36.65
-30.62
-23.38
-16.11
-9.48
-3.70
1.29
5.62
9.34
12.37
14.52
15.58
15.34
13.68
10.64
6.41
1.32
-4.23
-9.90
-15.47
-20.91
-26.25
-31.50
-36.54
-41.20
-45.30
-48.76
-51.66
-54.17
-56.52
-59.00
-61.85
-65.22
-68.98
-72.68
-75.50
-76.54
-75.09
-70.93
-64.31
-55.90
-46.51
-36.89
-27.72
-19.55
-12.82
-7.86
-4.72
-3.23
-2.95
-3.36
-3.90
-4.08
-3.57
-2.23
-0.11
2.53
5.31
7.84
9.78
10.96
11.33
10.94
9.96
8.57
6.92
5.12
3.21
1.11
-1.36
-4.47
-8.53
-13.73
-20.01
-26.90
-33.47
-38.44
-40.52
-38.78
-33.03
-23.86
-12.50
-0.49
10.73
20.10
27.10
31.66
34.03
34.58
33.71
31.76
29.02
25.84
22.67
19.99
18.27
17.75
18.38
19.78
21.36
22.57
23.04
22.69
21.63
20.08
18.13
15.76
12.88
9.44
5.52
1.31
-3.09
-7.68
-12.62
-17.98
-23.52
-28.48
-31.72
-32.06
-28.77
-21.94
-12.49
-1.84
8.57
17.67
24.93
30.25
33.63
35.12
34.71
32.60
29.21
25.26
21.58
18.88
17.51
17.46
18.36
19.69
20.91
21.56
21.36
20.21
18.27
15.76
12.93
9.90
6.64
3.02
-1.11
-5.79
-11.03
-16.81
-23.10
-29.74
-36.28
-41.93
-45.64
-46.37
-43.54
-37.23
-28.17
-17.54
-6.51
4.03
13.49
21.54
27.91
32.31
34.52
34.58
32.93
30.32
27.66
25.67
24.72
24.70
25.22
25.85
26.27
26.40
26.29
26.04
25.56
24.68
23.08
20.50
16.91
12.50
7.64
2.75
-1.88
-6.23
-10.45
-14.82
-19.61
-24.99
-31.06
-37.79
-44.94
-51.96
-57.95
-61.77
-62.35
-59.08
-52.10
-42.20
-30.58
-18.41
-6.60
4.31
13.97
22.05
28.19
32.15
33.93
33.91
32.84
31.52
30.64
30.56
31.27
32.47
33.79
34.88
35.60
35.95
35.97
35.70
35.10
34.02
32.29
29.81
26.56
22.64
18.23
13.51
8.64
3.75
-1.09
-5.89
-10.74
-15.80
-21.32
-27.47
-34.23
-41.30
-47.97
-53.25
-56.10
-55.72
-51.78
-44.51
-34.62
-23.10
-10.96
0.87
11.67
20.84
27.94
32.73
35.18
35.52
34.30
32.24
30.12
28.62
28.14
28.74
30.16
32.01
33.84
35.32
36.28
36.69
36.52
35.80
34.52
32.64
30.16
27.09
23.49
19.43
15.03
10.35
5.49
0.54
-4.42
-9.31
-14.13
-18.98
-24.06
-29.53
-35.35
-41.13
-46.09
-49.26
-49.79
-47.28
-41.89
-34.19
-25.02
-15.11
-5.08
4.51
13.15
20.28
25.43
28.38
29.30
28.75
27.51
26.32
25.69
25.76
26.42
27.42
28.53
29.58
30.50
31.16
31.46
31.19
30.14
28.18
25.28
21.59
17.39
13.03
8.80
4.87
1.19
-2.44
-6.27
-10.54
-15.36
-20.70
-26.43
-32.25
-37.72
-42.18
-44.89
-45.14
-42.54
-37.10
-29.31
-19.95
-9.94
-0.16
8.63
15.85
21.05
24.03
24.87
23.98
21.98
19.58
17.33
15.57
14.41
13.79
13.64
13.86
14.39
15.07
15.71
16.06
15.88
14.98
13.23
10.59
7.08
2.84
-1.90
-6.79
-11.54
-15.96
-20.11
-24.30
-28.95
-34.39
-40.62
-47.19
-53.19
-57.55
-59.25
-57.67
-52.74
-44.82
-34.68
-23.18
-11.28
0.12
10.17
18.16
23.64
26.53
27.14
26.10
24.19
22.12
20.40
19.30
18.89
19.10
19.81
20.90
22.24
23.62
24.77
25.35
25.02
23.55
20.92
17.28
12.95
8.28
3.57
-0.96
-5.25
-9.36
-13.49
-17.89
-22.86
-28.59
-35.04
-41.82
-48.17
-53.12
-55.70
-55.22
-51.48
-44.76
-35.74
-25.31
-14.40
-3.84
5.66
13.51
19.35
23.01
24.60
24.46
23.16
21.32
19.52
18.20
17.58
17.69
18.35
19.32
20.36
21.34
22.16
22.77
23.04
22.78
21.74
19.80
16.98
13.53
9.79
6.09
2.57
-0.75
-4.03
-7.46
-11.16
-15.26
-19.83
-24.92
-30.44
-36.10
-41.25
-45.06
-46.64
-45.39
-41.18
-34.41
-25.88
-16.53
-7.24
1.34
8.72
14.58
18.73
21.09
21.77
21.07
19.48
17.57
15.92
14.96
14.94
15.82
17.35
19.09
20.65
21.72
22.22
22.23
21.90
21.29
20.32
18.84
16.70
13.91
10.63
7.18
3.86
0.88
-1.71
-4.02
-6.26
-8.69
-11.48
-14.75
-18.46
-22.42
-26.25
-29.43
-31.26
-31.07
-28.39
-23.14
-15.80
-7.30
1.17
8.55
14.16
17.77
19.52
19.70
18.61
16.51
13.65
10.43
7.34
4.83
3.20
2.49
2.48
2.90
3.52
4.21
4.93
5.65
6.22
6.38
5.82
4.36
2.00
-0.98
-4.15
-7.13
-9.72
-12.05
-14.48
-17.42
-21.19
-25.81
-30.96
-36.01
-40.13
-42.49
-42.38
-39.47
-33.85
-26.03
-16.83
-7.22
1.90
9.81
15.98
20.08
21.97
21.72
19.68
16.41
12.57
8.80
5.58
3.17
1.65
0.94
0.92
1.42
2.19
2.95
3.40
3.30
2.54
1.10
-0.90
-3.30
-5.94
-8.72
-11.61
-14.63
-17.91
-21.60
-25.91
-30.96
-36.69
-42.65
-48.07
-51.91
-53.13
-51.07
-45.61
-37.28
-27.11
-16.33
-6.12
2.67
9.53
14.34
17.20
18.33
18.04
16.63
14.50
12.10
9.88
8.26
7.51
7.62
8.37
9.43
10.48
11.33
11.92
12.21
12.11
11.42
9.88
7.29
3.69
-0.64
-5.22
-9.55
-13.30
-16.42
-19.24
-22.29
-26.14
-31.07
-36.87
-42.83
-47.85
-50.69
-50.42
-46.70
-39.80
-30.63
-20.31
-9.94
-0.35
8.01
14.86
20.03
23.27
24.37
23.26
20.24
16.00
11.55
7.87
5.60
4.86
5.19
5.79
5.84
4.78
2.51
-0.61
-3.89
-6.48
-7.48
-6.14
-2.01
4.75
13.16
21.40
27.17
28.41
24.10
14.47
0.76
-15.54
-33.44
-52.69
-73.33
-94.97
-116.10
-134.14
-146.20
-150.02
-144.86
-131.60
-112.45
-90.18
-67.49
-46.64
-29.25
-16.33
-8.35
-5.22
-6.35
-10.71
-16.89
-23.29
-28.34
-30.88
-30.33
-26.82
-21.06
-14.09
-6.93
-0.33
5.26
9.66
12.79
14.61
15.05
14.13
12.00
8.91
5.21
1.25
-2.75
-6.77
-11.05
-16.06
-22.34
-30.16
-39.25
-48.42
-55.74
-58.87
-55.82
-45.70
-29.15
-8.22
14.24
35.49
53.57
67.59
77.49
83.65
86.43
86.12
83.09
78.00
71.91
66.09
61.66
59.24
58.84
59.95
61.81
63.72
65.15
65.83
65.61
64.41
62.19
58.96
54.84
50.09
45.01
39.78
34.38
28.53
21.81
13.88
4.69
-5.32
-15.19
-23.59
-29.09
-30.47
-27.08
-19.00
-7.17
6.89
21.35
34.50
45.07
52.34
56.15
56.81
54.86
51.01
46.01
40.62
35.47
31.09
27.75
25.55
24.34
23.88
23.78
23.63
23.06
21.72
19.45
16.26
12.36
8.02
3.51
-1.05
-5.74
-10.80
-16.61
-23.44
-31.32
-39.82
-47.93
-54.16
-56.83
-54.52
-46.53
-33.25
-16.06
2.98
21.64
38.02
50.81
59.33
63.51
63.75
60.86
55.94
50.20
44.71
40.22
36.97
34.84
33.43
32.42
31.57
30.80
29.98
28.88
27.13
24.39
20.48
15.49
9.80
3.86
-1.95
-7.51
-12.97
-18.63
-24.84
-31.83
-39.65
-48.04
-56.35
-63.52
-68.11
-68.60
-63.84
-53.48
-38.24
-19.87
-0.69
17.00
31.48
41.89
48.23
51.06
51.21
49.46
46.49
42.91
39.23
35.90
33.20
31.23
29.84
28.76
27.69
26.43
24.90
23.10
20.99
18.46
15.31
11.32
6.43
0.79
-5.25
-11.22
-16.77
-21.80
-26.53
-31.42
-37.02
-43.66
-51.18
-58.89
-65.50
-69.37
-68.94
-63.20
-52.11
-36.69
-18.84
-0.75
15.63
29.09
39.12
45.80
49.46
50.46
49.22
46.32
42.61
39.01
36.35
35.03
34.88
35.31
35.51
34.88
33.19
30.68
27.82
25.06
22.58
20.16
17.33
13.57
8.66
2.76
-3.56
-9.66
-15.07
-19.73
-24.03
-28.63
-34.11
-40.71
-48.10
-55.39
-61.25
-64.21
-63.06
-57.21
-46.86
-32.99
-17.17
-1.16
13.43
25.41
34.15
39.54
41.81
41.50
39.29
35.91
32.11
28.55
25.70
23.76
22.66
22.15
21.89
21.56
21.01
20.12
18.85
17.10
14.70
11.48
7.42
2.70
-2.32
-7.24
-11.72
-15.74
-19.59
-23.80
-28.89
-35.17
-42.44
-49.97
-56.57
-60.76
-61.17
-56.92
-47.88
-34.83
-19.27
-3.07
11.90
24.21
33.01
38.15
39.93
39.03
36.22
32.35
28.15
24.24
21.05
18.72
17.23
16.38
15.92
15.61
15.25
14.67
13.73
12.31
10.30
7.60
4.13
-0.14
-5.16
-10.71
-16.47
-22.10
-27.36
-32.26
-37.14
-42.51
-48.78
-56.01
-63.65
-70.55
-75.15
-75.89
-71.67
-62.20
-48.17
-31.08
-12.91
4.40
19.28
30.81
38.69
43.09
44.47
43.43
40.66
36.90
32.93
29.49
27.10
25.97
25.91
26.44
26.97
26.96
26.16
24.62
22.62
20.48
18.37
16.24
13.78
10.65
6.67
2.00
-2.98
-7.76
-11.92
-15.37
-18.33
-21.25
-24.63
-28.88
-34.14
-40.26
-46.74
-52.71
-57.03
-58.37
-55.61
-48.04
-35.78
-19.68
-1.17
18.24
37.42
55.89
73.69
90.94
107.34
121.91
133.11
139.38
139.73
134.11
123.48
109.42
93.62
77.51
62.05
47.85
35.40
25.07
17.06
11.15
6.61
2.27
-3.08
-10.21
-19.17
-29.19
-39.10
-47.71
-54.32
-58.87
-61.82
-63.96
-65.99
-68.44
-71.53
-75.21
-79.28
-83.40
-87.13
-89.88
-90.96
-89.55
-84.98
-76.90
-65.55
-51.84
-37.23
-23.37
-11.74
-3.31
1.67
3.51
3.01
1.18
-0.90
-2.31
-2.37
-0.86
2.02
5.63
9.12
11.67
12.81
12.46
10.97
8.86
6.54
4.22
1.83
-0.82
-3.88
-7.30
-10.96
-14.66
-18.35
-22.15
-26.31
-31.10
-36.74
-43.23
-50.36
-57.62
-64.07
-68.43
-69.23
-65.28
-56.05
-42.10
-24.98
-6.88
10.01
24.05
34.52
41.40
45.23
46.57
45.94
43.77
40.50
36.73
33.06
30.04
27.93
26.63
25.84
25.14
24.26
23.10
21.70
20.05
18.07
15.53
12.24
8.07
3.16
-2.20
-7.70
-13.11
-18.50
-24.16
-30.54
-37.95
-46.31
-54.97
-62.63
-67.64
-68.29
-63.46
-52.96
-37.73
-19.65
-1.00
16.07
30.01
40.06
46.18
48.84
48.74
46.65
43.31
39.39
35.45
31.94
29.13
27.06
25.59
24.45
23.35
22.13
20.72
19.13
17.33
15.13
12.17
8.10
2.75
-3.67
-10.61
-17.42
-23.60
-29.04
-34.08
-39.33
-45.45
-52.75
-61.05
-69.52
-76.74
-80.98
-80.58
-74.46
-62.53
-45.84
-26.33
-6.31
12.14
27.60
39.42
47.51
52.13
53.67
52.65
49.75
45.85
41.88
38.58
36.31
34.98
34.14
33.28
32.09
30.55
28.87
27.27
25.77
24.08
21.70
18.19
13.35
7.36
0.73
-5.96
-12.22
-17.89
-23.11
-28.25
-33.79
-40.13
-47.45
-55.51
-63.53
-70.14
-73.61
-72.27
-65.06
-52.03
-34.46
-14.60
5.00
22.12
35.40
44.44
49.58
51.52
50.98
48.64
45.12
41.14
37.38
34.42
32.48
31.44
30.86
30.30
29.42
28.12
26.52
24.77
22.93
20.87
18.32
14.97
10.61
5.27
-0.75
-6.98
-12.97
-18.44
-23.48
-28.47
-33.95
-40.31
-47.52
-55.00
-61.62
-65.94
-66.54
-62.44
-53.35
-39.84
-23.27
-5.51
11.52
26.11
37.12
44.07
47.05
46.64
43.70
39.26
34.32
29.73
26.07
23.62
22.33
21.93
22.04
22.32
22.46
22.26
21.55
20.16
17.91
14.70
10.52
5.51
-0.09
-5.99
-11.95
-17.79
-23.51
-29.27
-35.34
-42.01
-49.40
-57.20
-64.59
-70.22
-72.45
-69.87
-61.79
-48.53
-31.51
-12.83
5.23
20.80
32.73
40.64
44.73
45.57
43.80
40.16
35.41
30.39
25.89
22.48
20.40
19.48
19.29
19.33
19.23
18.81
18.07
16.97
15.39
13.05
9.64
5.00
-0.78
-7.32
-14.09
-20.58
-26.54
-32.08
-37.62
-43.72
-50.81
-58.86
-67.29
-74.86
-79.88
-80.55
-75.51
-64.30
-47.68
-27.49
-6.25
13.49
29.81
41.72
49.18
52.73
53.22
51.48
48.28
44.34
40.33
36.87
34.35
32.87
32.18
31.88
31.51
30.80
29.65
28.12
26.27
24.10
21.42
18.00
13.66
8.40
2.49
-3.64
-9.57
-15.06
-20.21
-25.38
-31.09
-37.81
-45.64
-54.20
-62.53
-69.19
-72.49
-70.93
-63.62
-50.64
-33.17
-13.22
6.77
24.58
38.67
48.34
53.69
55.32
54.05
50.75
46.32
41.59
37.32
34.00
31.88
30.81
30.48
30.49
30.51
30.33
29.83
28.92
27.49
25.37
22.44
18.61
13.90
8.46
2.56
-3.47
-9.31
-14.84
-20.17
-25.67
-31.85
-39.07
-47.35
-56.04
-63.82
-68.92
-69.53
-64.38
-53.30
-37.33
-18.51
0.68
18.04
32.10
42.28
48.62
51.54
51.57
49.33
45.56
41.17
37.10
34.08
32.46
32.09
32.53
33.18
33.61
33.61
33.15
32.28
30.95
29.05
26.42
22.96
18.75
14.04
9.20
4.62
0.49
-3.17
-6.60
-10.14
-14.15
-18.85
-24.12
-29.35
-33.34
-34.44
-30.86
-21.32
-5.62
15.04
38.20
60.90
80.60
95.93
106.98
114.84
120.84
125.85
129.98
132.68
133.14
130.62
124.44
113.96
98.62
78.27
53.68
26.83
0.63
-21.96
-39.09
-50.71
-58.53
-65.12
-72.67
-82.17
-93.24
-104.76
-115.63
-125.44
-134.49
-143.45
-152.89
-163.16
-174.29
-186.19
-198.50
-210.32
-219.96
-225.00
-222.81
-211.58
-191.08
-163.03
-130.71
-97.96
-68.11
-43.25
-24.05
-10.20
-0.86
4.85
7.77
8.80
8.91
9.10
10.20
12.59
16.16
20.44
24.87
29.03
32.79
36.18
39.26
41.92
43.84
44.53
43.56
40.72
36.15
30.33
23.95
17.70
12.02
6.96
2.13
-3.14
-9.56
-17.60
-27.15
-37.32
-46.38
-52.18
-52.61
-46.37
-33.50
-15.39
5.56
26.71
45.90
61.89
74.21
82.87
88.00
89.73
88.36
84.53
79.31
73.95
69.58
66.85
65.88
66.34
67.69
69.50
71.55
73.83
76.41
79.23
81.95
84.01
84.66
83.28
79.53
73.28
64.56
53.20
38.83
20.99
-0.60
-25.73
-53.69
-83.32
-113.20
-141.71
-166.97
-186.84
-199.16
-202.16
-195.06
-178.36
-153.84
-124.09
-91.87
-59.68
-29.49
-2.82
19.17
35.65
46.25
51.29
51.79
49.35
45.76
42.55
40.68
40.45
41.67
43.82
46.28
48.33
49.22
48.11
44.21
36.96
26.17
12.18
-4.10
-21.37
-38.09
-52.80
-64.48
-72.88
-78.73
-83.54
-88.87
-95.37
-102.07
-106.27
-104.46
-93.91
-74.06
-47.17
-17.63
9.48
30.00
41.76
44.78
40.73
32.35
22.72
14.76
10.69
11.46
16.42
23.64
30.70
35.80
38.52
39.90
41.81
45.90
52.80
61.93
71.74
80.30
85.87
87.26
84.09
76.73
66.28
54.33
42.66
32.84
25.92
22.18
21.09
21.52
22.13
22.00
21.13
20.77
23.12
30.53
44.57
65.23
90.92
119.11
147.22
173.33
196.25
215.18
229.07
236.70
236.90
229.33
214.91
195.66
174.04
152.15
131.17
111.42
92.75
75.01
58.25
42.58
27.97
14.06
0.26
-13.91
-28.55
-43.26
-57.28
-69.78
-80.21
-88.46
-94.88
-100.07
-104.77
-109.54
-114.55
-119.40
-123.13
-124.30
-121.52
-113.83
-101.12
-84.28
-64.94
-45.03
-26.36
-10.28
2.38
11.24
16.26
17.63
15.85
11.70
6.20
0.48
-4.44
-7.83
-9.36
-9.11
-7.52
-5.16
-2.57
-0.11
2.02
3.76
4.99
5.42
4.61
2.14
-2.12
-7.95
-14.74
-21.86
-28.92
-35.95
-43.33
-51.36
-59.90
-68.05
-74.31
-77.02
-74.91
-67.62
-55.85
-41.07
-25.15
-9.87
3.41
13.77
20.71
24.03
23.82
20.50
14.85
7.98
1.14
-4.58
-8.41
-10.14
-10.00
-8.54
-6.42
-4.30
-2.70
-2.03
-2.59
-4.49
-7.70
-11.96
-16.90
-22.07
-27.16
-32.04
-36.88
-42.15
-48.38
-55.93
-64.63
-73.52
-80.94
-84.84
-83.43
-75.75
-62.05
-43.73
-22.96
-2.05
17.08
33.09
45.29
53.43
57.56
57.91
54.98
49.55
42.67
35.54
29.24
24.54
21.66
20.40
20.26
20.69
21.25
21.62
21.53
20.70
18.87
15.86
11.68
6.48
0.54
-5.96
-12.92
-20.37
-28.37
-37.00
-46.37
-56.61
-67.74
-79.38
-90.47
-99.26
-103.58
-101.57
-92.29
-76.24
-55.20
-31.72
-8.38
12.79
30.56
44.36
54.06
59.78
61.79
60.72
57.51
53.35
49.43
46.62
45.33
45.44
46.53
48.11
49.84
51.55
53.11
54.27
54.55
53.34
50.15
44.85
37.78
29.66
21.25
13.02
5.02
-3.13
-11.96
-22.04
-33.77
-47.33
-62.49
-78.45
-93.65
-105.94
-112.95
-112.76
-104.62
-89.22
-68.61
-45.53
-22.74
-2.38
14.24
26.58
34.52
38.23
38.10
34.74
29.17
22.67
16.60
12.13
9.83
9.68
11.12
13.35
15.67
17.63
19.03
19.81
19.79
18.71
16.25
12.22
6.68
-0.04
-7.42
-14.93
-22.22
-29.23
-36.30
-43.99
-52.96
-63.55
-75.50
-87.72
-98.36
-105.23
-106.43
-100.87
-88.57
-70.69
-49.06
-25.87
-3.20
17.14
33.78
45.79
52.75
54.87
52.90
48.09
41.88
35.67
30.58
27.25
25.89
26.24
27.79
29.92
32.12
33.97
35.26
35.76
35.23
33.33
29.73
24.28
17.18
8.96
0.39
-7.77
-15.09
-21.63
-27.92
-34.84
-43.20
-53.46
-65.35
-77.69
-88.54
-95.56
-96.62
-90.43
-76.97
-57.53
-34.34
-9.98
13.22
33.51
49.78
61.34
67.87
69.39
66.42
60.06
51.94
43.87
37.37
33.24
31.53
31.63
32.71
34.06
35.26
36.16
36.72
36.87
36.37
34.83
31.89
27.33
21.23
13.99
6.19
-1.62
-9.08
-16.20
-23.29
-30.86
-39.46
-49.44
-60.74
-72.74
-84.13
-93.05
-97.47
-95.70
-86.99
-71.76
-51.60
-28.77
-5.67
15.64
33.70
47.55
56.72
61.10
60.97
57.04
50.44
42.54
34.79
28.43
24.23
22.47
22.92
24.96
27.79
30.58
32.62
33.34
32.40
29.72
25.40
19.79
13.30
6.39
-0.62
-7.55
-14.43
-21.49
-29.12
-37.78
-47.72
-58.73
-69.85
-79.38
-85.10
-84.97
-77.72
-63.42
-43.52
-20.53
2.65
23.46
40.06
51.57
57.91
59.47
56.97
51.27
43.36
34.37
25.55
18.09
12.91
10.49
10.64
12.68
15.51
18.01
19.25
18.68
16.14
11.86
6.24
-0.23
-7.16
-14.28
-21.51
-28.90
-36.65
-45.06
-54.49
-65.20
-77.06
-89.22
-100.00
-107.05
-107.96
-101.09
-86.23
-64.83
-39.65
-13.84
9.84
29.65
44.83
55.32
61.32
63.06
60.94
55.72
48.60
41.12
34.68
30.19
27.86
27.25
27.65
28.41
29.14
29.66
29.82
29.34
27.71
24.45
19.25
12.24
3.99
-4.70
-13.04
-20.63
-27.62
-34.66
-42.74
-52.66
-64.66
-77.98
-90.81
-100.63
-104.81
-101.52
-90.26
-72.12
-49.42
-24.98
-1.37
19.56
36.77
49.73
58.21
62.18
61.91
58.19
52.40
46.26
41.35
38.71
38.54
40.27
42.89
45.38
47.08
47.75
47.51
46.48
44.62
41.61
37.08
30.85
23.12
14.53
5.93
-1.99
-9.01
-15.47
-22.06
-29.61
-38.78
-49.85
-62.58
-76.09
-88.78
-98.45
-102.71
-99.62
-88.39
-69.78
-45.98
-20.00
5.19
27.33
45.14
58.18
66.45
70.18
69.78
65.94
59.78
52.79
46.45
41.93
39.73
39.64
40.96
42.82
44.54
45.74
46.37
46.41
45.75
44.04
40.78
35.61
28.45
19.70
10.11
0.57
-8.22
-16.00
-23.05
-30.06
-37.93
-47.44
-58.89
-71.75
-84.59
-95.19
-101.05
-100.07
-91.21
-74.89
-52.85
-27.72
-2.28
21.08
40.74
55.71
65.60
70.34
70.23
66.00
58.90
50.59
42.84
37.04
33.93
33.38
34.63
36.69
38.71
40.26
41.25
41.71
41.52
40.30
37.51
32.73
25.89
17.40
7.99
-1.53
-10.53
-18.73
-26.24
-33.50
-41.19
-50.01
-60.43
-72.29
-84.52
-95.07
-101.29
-100.74
-92.04
-75.52
-53.15
-27.99
-3.16
18.91
36.82
50.10
58.72
62.79
62.55
58.53
51.77
43.81
36.37
30.87
28.04
27.74
29.26
31.62
33.99
35.90
37.16
37.62
37.01
34.91
30.91
24.86
17.01
8.08
-1.03
-9.55
-17.12
-23.88
-30.50
-37.90
-46.97
-58.24
-71.46
-85.37
-97.72
-105.70
-106.71
-99.22
-83.39
-61.06
-35.20
-9.05
14.70
34.33
49.00
58.46
62.78
62.29
57.71
50.29
41.72
33.79
27.89
24.67
23.95
24.88
26.41
27.65
28.10
27.61
26.23
23.91
20.44
15.48
8.72
0.11
-9.95
-20.54
-30.29
-37.68
-41.50
-41.37
-38.02
-33.32
-29.88
-30.26
-36.14
-47.66
-63.45
-81.08
-97.94
-111.88
-121.48
-125.96
-124.80
-117.72
-104.84
-87.03
-66.05
-44.22
-23.78
-6.21
8.10
19.71
29.66
38.99
48.43
58.38
68.77
79.03
87.89
93.55
94.14
88.40
76.24
58.98
38.98
18.91
1.04
-13.26
-23.70
-30.79
-35.58
-39.22
-42.78
-47.13
-52.96
-60.77
-70.85
-83.12
-97.13
-112.12
-127.12
-141.15
-153.25
-162.51
-168.14
-169.81
-168.01
-164.43
-161.49
-161.47
-165.13
-170.95
-175.42
-174.39
-164.93
-146.50
-120.89
-90.87
-58.59
-24.83
10.53
47.01
82.40
112.85
134.55
145.84
148.59
147.90
149.98
159.69
178.91
206.57
239.96
276.38
313.98
351.53
387.62
420.12
446.50
464.75
474.25
475.93
471.63
463.16
451.46
436.57
418.17
396.30
371.72
345.81
320.06
295.43
272.00
249.01
225.27
199.63
171.45
140.74
108.06
74.27
40.35
7.29
-23.90
-52.11
-76.25
-95.44
-109.28
-118.15
-123.10
-125.72
-127.66
-130.28
-134.32
-139.89
-146.63
-153.90
-161.14
-167.94
-174.14
-179.71
-184.61
-188.73
-191.85
-193.75
-194.47
-194.33
-194.03
-194.37
-195.87
-198.44
-201.16
-202.51
-200.76
-194.67
-183.88
-169.00
-151.33
-132.39
-113.48
-95.44
-78.72
-63.56
-50.17
-38.83
-29.79
-23.10
-18.50
-15.44
-13.22
-11.13
-8.72
-5.84
-2.62
0.63
3.64
6.15
7.98
9.00
9.03
7.93
5.61
2.12
-2.36
-7.59
-13.34
-19.43
-25.80
-32.49
-39.58
-47.09
-54.92
-62.66
-69.59
-74.72
-76.95
-75.44
-69.83
-60.43
-48.12
-34.15
-19.81
-6.17
6.08
16.53
25.01
31.45
35.82
38.18
38.72
37.80
35.98
33.86
32.01
30.72
30.01
29.61
29.12
28.17
26.51
24.07
20.87
16.95
12.37
7.20
1.59
-4.24
-10.00
-15.50
-20.70
-25.77
-31.01
-36.74
-43.08
-49.73
-56.00
-60.77
-62.84
-61.28
-55.71
-46.51
-34.68
-21.53
-8.33
3.95
14.74
23.77
30.96
36.28
39.77
41.61
42.16
41.95
41.58
41.55
42.18
43.48
45.29
47.34
49.34
51.05
52.27
52.74
52.15
50.16
46.53
41.27
34.65
27.23
19.64
12.37
5.70
-0.41
-6.25
-12.24
-18.75
-25.97
-33.71
-41.28
-47.59
-51.38
-51.54
-47.58
-39.79
-29.20
-17.36
-5.81
4.28
12.29
18.12
21.97
24.14
24.86
24.35
22.85
20.75
18.53
16.67
15.50
15.13
15.44
16.21
17.19
18.21
19.15
19.86
20.08
19.56
18.00
15.29
11.51
6.97
2.08
-2.75
-7.27
-11.47
-15.58
-19.99
-25.10
-31.09
-37.77
-44.47
-50.14
-53.56
-53.74
-50.23
-43.25
-33.64
-22.59
-11.36
-1.00
7.72
14.36
18.74
20.86
20.92
19.30
16.47
13.04
9.60
6.66
4.58
3.52
3.46
4.18
5.33
6.53
7.47
7.93
7.75
6.88
5.31
3.03
0.10
-3.37
-7.16
-11.07
-14.93
-18.74
-22.75
-27.31
-32.78
-39.16
-45.95
-52.15
-56.47
-57.76
-55.38
-49.48
-40.91
-30.93
-20.81
-11.53
-3.67
2.53
7.03
9.80
10.83
10.17
8.08
5.03
1.70
-1.25
-3.31
-4.23
-4.12
-3.26
-2.00
-0.62
0.66
1.69
2.27
2.22
1.36
-0.40
-2.98
-6.20
-9.81
-13.60
-17.55
-21.81
-26.68
-32.28
-38.44
-44.50
-49.41
-52.03
-51.45
-47.39
-40.23
-30.92
-20.59
-10.34
-0.99
6.95
13.13
17.39
19.66
20.04
18.80
16.36
13.22
9.93
6.99
4.80
3.61
3.48
4.21
5.44
6.69
7.57
7.81
7.34
6.26
4.70
2.83
0.68
-1.76
-4.61
-8.07
-12.32
-17.49
-23.43
-29.62
-35.18
-38.98
-39.99
-37.55
-31.63
-22.88
-12.37
-1.41
8.86
17.60
24.35
28.95
31.45
32.06
31.06
28.84
25.87
22.62
19.55
16.98
15.10
14.00
13.62
13.84
14.43
15.04
15.35
15.00
13.83
11.83
9.11
5.86
2.24
-1.67
-5.85
-10.32
-15.19
-20.61
-26.66
-33.22
-39.77
-45.32
-48.67
-48.71
-44.91
-37.52
-27.52
-16.32
-5.31
4.50
12.60
18.87
23.35
26.14
27.25
26.79
25.01
22.39
19.56
17.15
15.58
15.03
15.41
16.50
17.99
19.59
21.02
21.96
22.10
21.19
19.19
16.27
12.81
9.27
5.99
3.07
0.32
-2.64
-6.29
-10.95
-16.70
-23.15
-29.56
-34.84
-37.86
-37.76
-34.19
-27.48
-18.54
-8.62
1.00
9.31
15.67
19.84
21.85
21.92
20.40
17.68
14.30
10.78
7.65
5.27
3.84
3.39
3.81
4.91
6.43
8.08
9.51
10.36
10.44
9.67
8.13
6.04
3.58
0.90
-1.91
-4.80
-7.82
-11.02
-14.57
-18.66
-23.36
-28.45
-33.27
-36.78
-37.81
-35.46
-29.44
-20.28
-9.15
2.48
13.26
22.23
28.95
33.36
35.60
35.85
34.35
31.41
27.48
23.15
19.09
15.83
13.65
12.57
12.34
12.63
13.13
13.66
14.10
14.32
14.16
13.38
11.81
9.40
6.36
3.04
-0.25
-3.38
-6.52
-10.00
-14.19
-19.18
-24.64
-29.84
-33.75
-35.37
-33.96
-29.34
-21.87
-12.39
-2.00
8.18
17.23
24.51
29.68
32.65
33.54
32.59
30.16
26.71
22.73
18.74
15.26
12.67
11.22
10.89
11.40
12.27
12.97
13.03
12.23
10.60
8.35
5.78
3.06
0.25
-2.78
-6.21
-10.20
-14.84
-20.03
-25.47
-30.61
-34.67
-36.83
-36.37
-32.88
-26.45
-17.69
-7.56
2.84
12.48
20.61
26.72
30.58
32.16
31.62
29.24
25.51
21.02
16.46
12.49
9.60
7.96
7.41
7.50
7.64
7.40
6.56
5.20
3.52
1.73
-0.12
-2.15
-4.57
-7.60
-11.35
-15.84
-20.92
-26.24
-31.24
-35.16
-37.16
-36.54
-32.96
-26.60
-18.12
-8.51
1.17
9.98
17.26
22.63
25.90
27.05
26.16
23.48
19.44
14.72
10.14
6.43
4.13
3.31
3.64
4.54
5.42
5.92
5.95
5.62
5.08
4.29
3.07
1.09
-1.90
-6.01
-11.14
-16.98
-23.06
-28.70
-33.11
-35.45
-35.08
-31.70
-25.58
-17.42
-8.18
1.12
9.66
16.83
22.21
25.52
26.59
25.45
22.44
18.18
13.53
9.31
6.14
4.24
3.46
3.40
3.58
3.59
3.23
2.49
1.49
0.37
-0.84
-2.24
-4.08
-6.69
-10.32
-15.06
-20.61
-26.36
-31.42
-34.81
-35.74
-33.76
-28.90
-21.67
-12.87
-3.48
5.55
13.47
19.74
24.09
26.45
26.96
25.88
23.60
20.59
17.36
14.42
12.21
10.94
10.64
11.09
11.92
12.71
13.10
12.82
11.75
9.91
7.42
4.48
1.30
-1.97
-5.26
-8.60
-12.15
-16.09
-20.60
-25.71
-31.18
-36.43
-40.57
-42.57
-41.58
-37.20
-29.69
-19.92
-9.13
1.44
10.84
18.50
24.23
27.99
29.81
29.78
28.13
25.33
22.10
19.25
17.42
16.90
17.49
18.64
19.74
20.33
20.29
19.80
19.14
18.48
17.78
16.75
15.05
12.49
9.12
5.28
1.40
-2.13
-5.16
-7.78
-10.28
-13.02
-16.32
-20.32
-25.03
-30.17
-35.25
-39.52
-42.12
-42.21
-39.26
-33.18
-24.49
-14.17
-3.45
6.48
14.75
20.96
25.04
27.18
27.63
26.71
24.69
22.04
19.31
17.09
15.83
15.71
16.55
17.92
19.31
20.36
20.94
21.14
21.11
20.95
20.61
19.90
18.64
16.71
14.12
11.06
7.78
4.48
1.29
-1.74
-4.67
-7.47
-10.14
-12.66
-15.14
-17.78
-20.91
-24.78
-29.33
-34.07
-38.10
-40.32
-39.80
-36.15
-29.58
-20.87
-11.13
-1.45
7.26
14.41
19.72
23.11
24.69
24.71
23.51
21.54
19.33
17.35
16.00
15.48
15.81
16.81
18.22
19.73
21.09
22.15
22.79
22.94
22.56
21.61
20.11
18.12
15.79
13.25
10.68
8.18
5.84
3.66
1.62
-0.35
-2.36
-4.50
-6.83
-9.30
-11.84
-14.28
-16.56
-18.77
-21.18
-24.20
-28.11
-32.85
-37.90
-42.26
-44.76
-44.46
-40.96
-34.55
-26.10
-16.71
-7.48
0.78
7.58
12.68
16.05
17.79
18.11
17.33
15.86
14.14
12.62
11.64
11.42
11.99
13.25
14.99
16.99
18.99
20.77
22.09
22.76
22.65
21.75
20.15
18.04
15.65
13.16
10.69
8.26
5.80
3.26
0.59
-2.19
-4.96
-7.58
-9.95
-12.03
-13.96
-16.00
-18.46
-21.62
-25.54
-29.96
-34.31
-37.72
-39.30
-38.34
-34.61
-28.35
-20.24
-11.24
-2.28
5.88
12.72
17.96
21.43
23.07
22.95
21.36
18.72
15.67
12.83
10.71
9.63
9.61
10.48
11.91
13.56
15.13
16.43
17.35
17.84
17.81
17.18
15.87
13.84
11.13
7.91
4.43
0.97
-2.27
-5.19
-7.83
-10.34
-12.92
-15.75
-18.99
-22.71
-26.86
-31.18
-35.20
-38.21
-39.42
-38.18
-34.19
-27.68
-19.34
-10.13
-1.04
7.15
13.93
19.02
22.28
23.63
23.14
21.04
17.80
14.09
10.63
8.00
6.51
6.21
6.85
8.14
9.77
11.44
12.94
14.03
14.56
14.38
13.47
11.90
9.78
7.22
4.32
1.14
-2.24
-5.73
-9.20
-12.51
-15.59
-18.44
-21.13
-23.83
-26.81
-30.33
-34.51
-39.24
-44.02
-48.03
-50.30
-49.98
-46.61
-40.23
-31.45
-21.21
-10.67
-0.82
7.51
13.90
18.21
20.57
21.30
20.77
19.39
17.54
15.61
13.92
12.75
12.27
12.48
13.22
14.19
15.10
15.73
16.01
15.96
15.69
15.22
14.44
13.16
11.14
8.28
4.72
0.76
-3.15
-6.68
-9.70
-12.35
-14.90
-17.68
-20.98
-24.92
-29.52
-34.50
-39.40
-43.43
-45.70
-45.39
-42.00
-35.60
-26.82
-16.70
-6.39
3.10
11.08
17.20
21.35
23.60
24.12
23.25
21.41
19.13
16.94
15.24
14.29
14.10
14.55
15.40
16.37
17.20
17.75
17.97
17.92
17.72
17.35
16.72
15.61
13.77
11.10
7.67
3.75
-0.30
-4.12
-7.53
-10.52
-13.26
-16.00
-19.05
-22.61
-26.78
-31.43
-36.18
-40.36
-43.11
-43.61
-41.27
-36.00
-28.22
-18.82
-8.83
0.77
9.29
16.29
21.53
24.90
26.33
25.88
23.87
20.85
17.56
14.73
12.91
12.27
12.66
13.68
14.87
15.90
16.61
17.07
17.37
17.53
17.45
16.88
15.59
13.45
10.55
7.17
3.66
0.30
-2.78
-5.63
-8.38
-11.20
-14.24
-17.66
-21.61
-26.17
-31.18
-36.17
-40.30
-42.56
-42.12
-38.58
-32.23
-23.85
-14.53
-5.34
2.93
9.75
14.83
17.96
19.07
18.20
15.62
11.87
7.65
3.73
0.72
-1.07
-1.64
-1.25
-0.25
1.05
2.48
3.97
5.45
6.78
7.77
8.16
7.85
6.90
5.55
4.11
2.84
1.80
0.91
-0.10
-1.55
-3.71
-6.75
-10.55
-14.69
-18.40
-20.67
-20.61
-17.66
-11.89
-3.98
5.01
13.92
21.79
27.97
32.15
34.23
34.23
32.35
28.91
24.39
19.39
14.49
10.18
6.82
4.54
3.35
3.10
3.53
4.28
4.95
5.22
4.84
3.72
1.86
-0.65
-3.67
-7.02
-10.48
-13.87
-17.10
-20.32
-23.83
-28.03
-33.12
-38.90
-44.66
-49.24
-51.40
-50.18
-45.25
-37.03
-26.53
-15.10
-4.03
5.71
13.53
19.24
22.87
24.55
24.50
23.00
20.44
17.36
14.34
11.87
10.28
9.63
9.78
10.48
11.44
12.42
13.18
13.48
13.15
12.05
10.16
7.59
4.53
1.17
-2.34
-5.96
-9.76
-13.93
-18.66
-24.01
-29.83
-35.59
-40.38
-43.15
-42.94
-39.27
-32.24
-22.64
-11.71
-0.75
9.10
17.09
22.86
26.38
27.83
27.53
25.89
23.44
20.73
18.25
16.36
15.22
14.83
15.05
15.71
16.62
17.62
18.57
19.32
19.71
19.51
18.52
16.57
13.67
10.06
6.15
2.38
-0.94
-3.78
-6.44
-9.38
-13.06
-17.72
-23.23
-29.09
-34.45
-38.30
-39.64
-37.80
-32.62
-24.53
-14.52
-3.86
6.22
14.79
21.29
25.56
27.70
27.97
26.75
24.46
21.64
18.84
16.64
15.45
15.41
16.37
17.90
19.49
20.68
21.27
21.26
20.81
20.11
19.19
17.95
16.22
13.90
11.03
7.80
4.50
1.35
-1.55
-4.25
-6.97
-9.95
-13.43
-17.58
-22.42
-27.75
-33.13
-37.88
-41.16
-42.12
-40.22
-35.29
-27.73
-18.37
-8.29
1.46
9.98
16.72
21.38
23.92
24.46
23.29
20.90
17.91
15.05
12.92
11.97
12.27
13.63
15.60
17.75
19.68
21.19
22.16
22.55
22.33
21.41
19.76
17.34
14.22
10.56
6.60
2.65
-1.08
-4.42
-7.46
-10.46
-13.83
-17.90
-22.73
-27.94
-32.71
-36.02
-36.94
-35.00
-30.24
-23.23
-14.83
-5.94
2.64
10.27
16.47
20.91
23.45
24.17
23.39
21.56
19.23
16.87
14.86
13.51
12.99
13.38
14.56
16.27
18.06
19.47
20.17
20.02
19.13
17.73
16.10
14.33
12.37
10.02
7.09
3.55
-0.46
-4.57
-8.47
-11.90
-14.86
-17.54
-20.28
-23.44
-27.28
-31.90
-37.13
-42.52
-47.28
-50.49
-51.22
-48.85
-43.28
-34.97
-24.87
-14.15
-3.89
5.07
12.27
17.52
20.91
22.65
23.05
22.50
21.43
20.24
19.26
18.74
18.78
19.35
20.38
21.70
23.12
24.45
25.47
26.01
25.97
25.29
24.02
22.22
19.97
17.41
14.66
11.87
9.07
6.31
3.51
0.62
-2.37
-5.38
-8.33
-11.11
-13.74
-16.39
-19.37
-23.02
-27.55
-32.88
-38.56
-43.74
-47.41
-48.64
-46.85
-42.01
-34.65
-25.64
-15.98
-6.55
2.00
9.25
14.95
18.92
21.10
21.61
20.73
19.01
17.05
15.43
14.50
14.33
14.80
15.66
16.75
17.94
19.20
20.47
21.56
22.25
22.23
21.31
19.42
16.67
13.30
9.65
6.08
2.91
0.35
-1.60
-3.13
-4.59
-6.29
-8.38
-10.72
-12.93
-14.58
-15.34
-15.21
-14.50
-13.77
-13.68
-14.79
-17.37
-21.20
-25.62
-29.59
-31.97
-31.82
-28.72
-22.90
-15.09
-6.34
2.34
10.14
16.52
21.21
24.09
25.19
24.69
22.97
20.54
17.94
15.65
13.99
13.10
12.99
13.61
14.82
16.47
18.28
19.95
21.19
21.84
21.89
21.45
20.69
19.74
18.60
17.24
15.60
13.65
11.45
9.05
6.50
3.78
0.90
-2.08
-5.08
-8.02
-10.86
-13.72
-16.81
-20.43
-24.74
-29.61
-34.50
-38.47
-40.47
-39.61
-35.58
-28.77
-20.14
-10.92
-2.20
5.36
11.51
16.27
19.67
21.61
21.97
20.74
18.20
14.94
11.70
9.18
7.78
7.59
8.38
9.79
11.44
13.01
14.30
15.15
15.49
15.32
14.63
13.47
11.88
9.86
7.44
4.66
1.69
-1.24
-3.86
-6.02
-7.75
-9.32
-11.12
-13.61
-17.05
-21.41
-26.29
-30.94
-34.41
-35.78
-34.39
-30.11
-23.34
-14.91
-5.88
2.78
10.35
16.41
20.78
23.40
24.30
23.57
21.52
18.56
15.23
12.06
9.46
7.66
6.67
6.39
6.59
7.07
7.66
8.21
8.64
8.86
8.76
8.23
7.19
5.57
3.42
0.85
-1.94
-4.77
-7.52
-10.14
-12.72
-15.45
-18.58
-22.33
-26.75
-31.59
-36.22
-39.76
-41.31
-40.24
-36.39
-30.11
-22.15
-13.39
-4.65
3.45
10.42
15.87
19.53
21.20
20.93
19.05
16.15
12.93
10.07
8.04
7.03
6.97
7.62
8.68
9.86
10.98
11.91
12.57
12.88
12.76
12.12
10.87
8.93
6.34
3.20
-0.31
-3.91
-7.33
-10.39
-13.07
-15.51
-18.05
-21.11
-24.99
-29.72
-34.90
-39.72
-43.15
-44.23
-42.41
-37.68
-30.56
-21.92
-12.65
-3.55
4.77
11.87
17.42
21.15
22.96
22.98
21.58
19.26
16.61
14.15
12.25
11.14
10.83
11.18
11.94
12.82
13.57
14.05
14.21
14.07
13.65
12.93
11.88
10.44
8.58
6.30
3.64
0.69
-2.41
-5.53
-8.52
-11.29
-13.86
-16.36
-19.04
-22.20
-26.02
-30.43
-35.08
-39.29
-42.18
-42.86
-40.76
-35.71
-28.12
-18.82
-8.88
0.68
9.05
15.75
20.60
23.62
24.97
24.87
23.65
21.66
19.36
17.17
15.46
14.46
14.19
14.55
15.30
16.19
17.00
17.59
17.89
17.92
17.68
17.15
16.33
15.17
13.64
11.69
9.36
6.71
3.87
1.00
-1.74
-4.25
-6.56
-8.77
-11.06
-13.59
-16.55
-20.09
-24.30
-29.13
-34.28
-39.11
-42.73
-44.15
-42.65
-38.00
-30.58
-21.28
-11.25
-1.55
7.02
14.01
19.18
22.46
23.87
23.53
21.76
19.06
16.07
13.44
11.64
10.90
11.20
12.30
13.89
15.63
17.27
18.59
19.45
19.78
19.58
18.93
17.91
16.56
14.81
12.60
9.89
6.81
3.61
0.61
-1.99
-4.20
-6.29
-8.71
-11.87
-15.99
-20.97
-26.37
-31.49
-35.56
-37.81
-37.68
-34.92
-29.64
-22.28
-13.57
-4.40
4.33
11.87
17.69
21.57
23.53
23.79
22.67
20.52
17.72
14.66
11.76
9.43
7.95
7.38
7.56
8.20
9.00
9.74
10.31
10.68
10.72
10.22
8.96
6.82
3.91
0.60
-2.68
-5.56
-7.94
-9.94
-11.92
-14.26
-17.27
-21.07
-25.49
-30.05
-34.08
-36.76
-37.33
-35.33
-30.68
-23.77
-15.31
-6.21
2.64
10.47
16.72
21.05
23.37
23.80
22.65
20.36
17.43
14.33
11.48
9.12
7.39
6.29
5.74
5.67
6.00
6.63
7.43
8.12
8.40
7.92
6.50
4.15
1.10
-2.34
-5.88
-9.36
-12.77
-16.19
-19.73
-23.49
-27.60
-32.15
-37.16
-42.39
-47.19
-50.59
-51.47
-49.05
-43.13
-34.34
-23.81
-12.85
-2.62
6.16
13.11
18.15
21.22
22.34
21.63
19.37
16.12
12.55
9.39
7.12
5.97
5.80
6.36
7.34
8.53
9.86
11.22
12.46
13.29
13.38
12.47
10.49
7.60
4.13
0.44
-3.13
-6.44
-9.43
-12.25
-15.17
-18.55
-22.66
-27.58
-33.05
-38.48
-42.91
-45.34
-44.91
-41.18
-34.32
-25.07
-14.59
-4.09
5.40
13.26
19.29
23.53
26.13
27.18
26.73
24.96
22.22
19.14
16.44
14.70
14.22
14.87
16.22
17.79
19.17
20.19
20.84
21.19
21.24
20.87
19.91
18.21
15.76
12.69
9.22
5.57
1.94
-1.58
-4.97
-8.27
-11.60
-15.11
-18.99
-23.37
-28.27
-33.45
-38.38
-42.22
-44.03
-42.99
-38.74
-31.48
-22.03
-11.52
-1.13
8.25
16.07
22.10
26.25
28.45
28.70
27.14
24.24
20.74
17.52
15.34
14.57
15.19
16.74
18.65
20.41
21.69
22.44
22.75
22.77
22.52
21.91
20.77
18.90
16.30
13.10
9.63
6.22
3.08
0.23
-2.51
-5.35
-8.52
-12.12
-16.19
-20.69
-25.49
-30.30
-34.57
-37.51
-38.24
-36.10
-30.86
-22.93
-13.23
-2.92
6.85
15.24
21.72
26.06
28.16
28.11
26.19
22.88
18.90
15.05
12.04
10.27
9.72
10.06
10.85
11.71
12.48
13.18
13.91
14.62
15.06
14.84
13.58
11.11
7.56
3.34
-1.02
-5.08
-8.57
-11.46
-13.93
-16.31
-18.99
-22.30
-26.40
-31.10
-35.79
-39.45
-40.89
-39.05
-33.44
-24.31
-12.71
-0.15
11.80
21.92
29.55
34.50
36.92
37.03
35.07
31.37
26.45
21.07
16.12
12.40
10.33
9.85
10.49
11.58
12.55
13.06
13.06
12.67
11.95
10.87
9.20
6.71
3.28
-0.94
-5.55
-10.06
-14.11
-17.55
-20.52
-23.27
-26.10
-29.22
-32.81
-36.95
-41.58
-46.37
-50.60
-53.19
-52.98
-49.12
-41.41
-30.52
-17.73
-4.59
7.59
17.95
26.10
31.99
35.67
37.19
36.68
34.45
31.12
27.53
24.52
22.68
22.18
22.77
23.95
25.19
26.20
26.87
27.25
27.41
27.30
26.75
25.55
23.47
20.45
16.61
12.22
7.66
3.30
-0.66
-4.19
-7.49
-10.82
-14.49
-18.71
-23.51
-28.71
-33.84
-38.11
-40.53
-40.20
-36.51
-29.47
-19.77
-8.56
2.79
13.14
21.72
28.20
32.54
34.85
35.27
34.02
31.38
27.83
24.00
20.59
18.14
16.88
16.65
17.03
17.51
17.76
17.72
17.52
17.26
16.83
15.93
14.13
11.24
7.33
2.87
-1.56
-5.49
-8.68
-11.22
-13.43
-15.77
-18.65
-22.36
-27.00
-32.32
-37.77
-42.46
-45.37
-45.58
-42.52
-36.15
-27.04
-16.26
-5.05
5.41
14.30
21.21
26.09
29.06
30.30
30.01
28.44
25.96
23.09
20.34
18.15
16.72
16.02
15.89
16.12
16.57
17.12
17.67
18.03
17.90
16.97
14.97
11.85
7.81
3.28
-1.20
-5.19
-8.55
-11.43
-14.27
-17.60
-21.81
-26.95
-32.67
-38.19
-42.50
-44.57
-43.61
-39.33
-31.97
-22.35
-11.57
-0.79
9.03
17.28
23.65
28.02
30.37
30.75
29.34
26.52
22.89
19.21
16.20
14.39
13.96
14.68
16.05
17.47
18.48
18.90
18.77
18.29
17.53
16.43
14.75
12.26
8.85
4.68
0.10
-4.44
-8.61
-12.29
-15.56
-18.68
-21.94
-25.65
-29.98
-34.94
-40.23
-45.19
-48.88
-50.25
-48.46
-43.17
-34.73
-24.10
-12.63
-1.65
7.80
15.20
20.44
23.71
25.28
25.39
24.26
22.17
19.51
16.85
14.78
13.74
13.91
15.09
16.82
18.55
19.86
20.55
20.64
20.29
19.64
18.79
17.69
16.22
14.25
11.70
8.59
5.08
1.39
-2.25
-5.68
-8.87
-11.93
-15.02
-18.39
-22.28
-26.80
-31.91
-37.24
-42.09
-45.50
-46.48
-44.31
-38.85
-30.57
-20.52
-9.93
-0.01
8.41
14.91
19.42
22.13
23.32
23.25
22.20
20.45
18.36
16.39
15.00
14.53
15.06
16.38
18.11
19.80
21.09
21.82
21.99
21.68
20.96
19.84
18.27
16.18
13.55
10.46
7.03
3.51
0.11
-2.95
-5.59
-7.80
-9.71
-11.51
-13.47
-15.90
-19.08
-23.23
-28.29
-33.82
-39.00
-42.77
-44.10
-42.33
-37.36
-29.69
-20.27
-10.24
-0.65
7.69
14.30
19.00
21.80
22.82
22.30
20.58
18.11
15.41
13.00
11.29
10.51
10.68
11.62
13.03
14.59
16.00
17.07
17.68
17.78
17.38
16.54
15.30
13.69
11.74
9.46
6.85
3.97
0.91
-2.21
-5.26
-8.10
-10.68
-13.07
-15.40
-17.92
-20.87
-24.43
-28.61
-33.19
-37.64
-41.20
-42.99
-42.30
-38.76
-32.54
-24.31
-15.04
-5.75
2.73
9.86
15.39
19.26
21.50
22.20
21.54
19.77
17.28
14.52
11.99
10.16
9.32
9.56
10.66
12.26
13.90
15.26
16.14
16.55
16.51
16.06
15.12
13.58
11.34
8.49
5.21
1.75
-1.66
-4.94
-8.09
-11.17
-14.23
-17.30
-20.42
-23.66
-27.14
-30.91
-34.85
-38.54
-41.28
-42.26
-40.78
-36.52
-29.70
-21.04
-11.48
-2.02
6.57
13.80
19.40
23.27
25.32
25.61
24.27
21.68
18.39
15.05
12.22
10.27
9.29
9.12
9.48
10.07
10.67
11.16
11.50
11.60
11.33
10.49
8.94
6.61
3.60
0.15
-3.47
-7.03
-10.39
-13.52
-16.50
-19.51
-22.76
-26.48
-30.83
-35.77
-40.92
-45.62
-48.91
-49.88
-47.88
-42.75
-34.92
-25.23
-14.76
-4.52
4.66
12.27
18.00
21.75
23.49
23.36
21.66
18.89
15.72
12.85
10.83
9.93
10.08
10.98
12.24
13.49
14.51
15.21
15.58
15.57
15.09
13.98
12.08
9.28
5.61
1.31
-3.26
-7.66
-11.60
-15.02
-18.14
-21.40
-25.25
-29.95
-35.45
-41.30
-46.80
-51.08
-53.32
-52.94
-49.71
-43.78
-35.66
-26.11
-15.99
-6.08
2.92
10.51
16.30
20.08
21.80
21.66
20.10
17.73
15.27
13.30
12.15
11.87
12.18
12.70
13.07
13.11
12.86
12.50
12.22
12.01
11.66
10.82
9.15
6.54
3.18
-0.51
-4.10
-7.31
-10.19
-13.03
-16.24
-20.21
-25.13
-30.98
-37.48
-44.02
-49.75
-53.65
-54.74
-52.36
-46.39
-37.32
-26.17
-14.16
-2.42
8.22
17.28
24.50
29.77
32.98
34.15
33.42
31.23
28.18
25.00
22.29
20.34
19.15
18.46
18.01
17.65
17.42
17.39
17.61
17.91
18.00
17.52
16.28
14.32
11.91
9.53
7.58
6.32
5.70
5.39
4.84
3.47
0.92
-2.82
-7.30
-11.75
-15.19
-16.68
-15.56
-11.57
-4.85
4.02
14.16
24.55
34.11
41.91
47.27
49.79
49.39
46.27
40.83
33.70
25.64
17.49
10.09
4.12
-0.05
-2.48
-3.64
-4.24
-5.07
-6.69
-9.31
-12.72
-16.41
-19.85
-22.65
-24.83
-26.81
-29.28
-32.98
-38.38
-45.49
-53.84
-62.52
-70.54
-76.92
-80.92
-82.05
-79.99
-74.56
-65.70
-53.54
-38.51
-21.44
-3.54
13.66
28.60
40.06
47.54
51.59
53.89
56.94
63.45
75.44
93.16
114.55
135.20
149.35
151.63
138.94
111.86
74.94
35.53
1.54
-21.11
-30.37
-28.40
-20.37
-12.37
-9.21
-13.23
-24.29
-40.72
-60.39
-81.36
-101.83
-119.83
-133.13
-139.64
-138.21
-129.28
-115.00
-98.53
-83.01
-70.41
-61.25
-54.86
-50.04
-45.55
-40.16
-32.58
-21.78
-7.77
8.03
23.14
35.51
45.11
54.55
67.95
88.50
116.04
146.38
173.02
190.17
195.26
189.45
176.31
160.22
145.22
134.54
130.45
133.90
143.92
157.26
169.18
174.88
171.87
160.75
144.16
124.67
103.13
78.17
46.99
6.98
-42.92
-100.45
-160.12
-214.70
-257.69
-285.30
-297.56
-297.93
-289.81
-278.17
-267.84
-261.08
-257.16
-254.29
-251.66
-250.22
-250.47
-251.56
-251.62
-248.13
-239.02
-223.69
-204.12
-183.24
-163.61
-146.27
-130.69
-115.51
-99.01
-79.99
-58.40
-35.49
-13.07
7.40
25.43
41.57
56.90
72.80
90.54
110.67
132.71
155.26
176.25
193.48
205.06
209.83
207.76
199.92
187.95
173.58
158.31
143.32
129.56
117.77
108.42
101.57
96.75
92.92
88.81
83.29
75.78
66.37
55.72
44.73
34.11
24.22
14.84
5.39
-4.90
-16.62
-29.86
-43.97
-57.43
-68.15
-73.84
-72.74
-64.10
-48.44
-27.41
-3.38
21.15
43.98
63.44
78.42
88.38
93.18
93.17
89.04
81.83
72.73
62.93
53.50
45.30
38.82
34.24
31.36
29.70
28.61
27.43
25.59
22.68
18.51
13.10
6.68
-0.32
-7.37
-14.00
-19.96
-25.40
-30.90
-37.39
-45.79
-56.56
-69.24
-82.23
-92.96
-98.51
-96.40
-85.44
-66.10
-40.44
-11.51
17.43
43.60
65.17
81.29
91.83
97.15
97.86
94.70
88.57
80.52
71.71
63.24
55.99
50.44
46.69
44.51
43.44
42.95
42.41
41.38
39.42
36.16
31.31
24.95
17.50
9.58
1.82
-5.55
-12.50
-19.32
-26.55
-34.73
-43.90
-53.67
-63.12
-70.87
-75.48
-75.13
-68.27
-54.33
-33.94
-8.23
20.80
50.58
78.22
100.41
115.58
123.64
125.46
122.70
118.68
116.35
117.40
121.60
125.74
128.23
128.79
127.98
127.09
129.65
138.41
154.01
174.18
192.34
204.90
210.91
211.33
209.22
211.67
225.88
256.77
304.64
361.84
421.38
476.56
521.47
532.79
495.75
409.39
289.62
180.47
93.99
28.04
-24.41
-74.41
-126.08
-176.57
-220.68
-253.73
-273.90
-285.78
-292.21
-295.78
-299.88
-307.85
-320.36
-336.43
-353.42
-367.82
-378.38
-381.34
-373.64
-355.33
-329.47
-300.02
-271.09
-245.60
-224.96
-210.87
-202.29
-197.22
-194.09
-191.56
-188.24
-183.24
-176.59
-169.57
-164.93
-164.01
-166.22
-169.25
-169.62
-164.08
-150.86
-130.25
-104.30
-76.11
-48.13
-21.58
3.44
27.67
51.97
76.68
101.18
123.72
141.54
151.64
151.60
140.42
118.96
89.78
56.44
22.86
-7.52
-32.16
-49.65
-59.67
-62.89
-60.67
-55.02
-48.24
-42.63
-39.95
-40.89
-44.97
-50.76
-56.58
-61.22
-64.38
-66.59
-68.82
-71.93
-76.24
-81.45
-86.65
-90.55
-91.64
-88.50
-80.06
-65.99
-46.93
-24.46
-0.76
21.97
42.04
58.57
71.41
80.85
87.20
90.63
91.15
88.78
83.88
77.15
69.67
62.55
56.70
52.62
50.39
49.83
50.62
52.41
54.69
56.86
58.19
58.00
55.89
51.88
46.43
40.27
34.11
28.33
22.81
17.02
10.25
1.99
-7.64
-17.77
-26.80
-32.86
-34.41
-30.75
-22.23
-10.18
3.62
17.37
29.71
39.75
47.08
51.65
53.63
53.45
51.66
48.92
45.82
42.83
40.30
38.49
37.59
37.66
38.59
40.01
41.41
42.23
42.11
40.89
38.71
35.81
32.35
28.33
23.49
17.47
10.02
1.21
-8.45
-17.98
-26.09
-31.48
-33.22
-30.98
-25.16
-16.69
-6.74
3.53
13.26
21.73
28.31
32.38
33.37
30.97
25.40
17.51
8.61
0.15
-6.77
-11.66
-14.66
-16.31
-17.22
-17.84
-18.38
-18.88
-19.35
-19.89
-20.63
-21.77
-23.49
-25.92
-29.14
-33.11
-37.65
-42.31
-46.32
-48.72
-48.55
-45.15
-38.38
-28.71
-17.06
-4.60
7.59
18.61
27.73
34.32
37.78
37.70
33.98
27.12
18.19
8.54
-0.54
-8.22
-14.31
-19.15
-23.30
-27.28
-31.30
-35.35
-39.21
-42.67
-45.65
-48.30
-51.03
-54.46
-59.29
-65.92
-74.12
-82.72
-89.70
-92.73
-89.84
-80.11
-64.01
-43.19
-19.99
3.26
24.73
43.25
58.23
69.34
76.40
79.26
77.91
72.49
63.46
51.60
38.22
25.27
15.12
10.16
12.05
21.07
35.83
53.64
71.26
85.92
95.98
100.98
101.22
97.08
88.58
75.42
57.46
35.30
10.71
-13.49
-33.99
-47.74
-52.82
-48.75
-36.53
-18.16
3.87
27.17
49.75
70.03
86.85
99.39
107.07
109.70
107.48
100.94
90.80
77.77
62.54
45.88
28.73
12.27
-2.23
-13.69
-21.57
-26.02
-27.72
-27.66
-26.90
-26.43
-27.17
-30.01
-35.65
-44.48
-56.43
-71.03
-87.60
-105.28
-122.91
-138.81
-150.67
-155.91
-152.37
-139.19
-117.28
-89.27
-58.80
-29.50
-4.13
15.80
29.92
38.68
42.92
43.59
41.71
38.27
34.23
30.35
27.15
24.85
23.55
23.26
24.06
25.97
28.87
32.35
35.68
37.99
38.53
36.89
33.15
27.78
21.46
14.74
7.86
0.59
-7.76
-18.10
-31.17
-46.96
-64.31
-80.70
-92.79
-97.23
-91.79
-76.20
-52.35
-23.81
5.27
31.23
51.67
65.67
73.42
75.72
73.54
67.87
59.72
50.20
40.50
31.74
24.77
20.10
17.83
17.74
19.39
22.10
24.98
27.12
27.72
26.31
22.94
18.01
12.08
5.57
-1.36
-8.81
-17.01
-26.23
-36.76
-48.76
-62.04
-75.69
-87.85
-95.93
-97.32
-90.34
-75.02
-53.24
-28.09
-2.94
19.53
37.79
51.27
60.04
64.35
64.54
61.14
55.05
47.48
39.71
32.76
27.21
23.22
20.63
19.23
18.78
18.97
19.39
19.50
18.73
16.65
13.09
8.18
2.28
-4.15
-10.68
-16.99
-22.97
-28.86
-35.27
-43.10
-53.15
-65.55
-79.32
-92.29
-101.54
-104.38
-99.36
-86.90
-69.37
-50.26
-33.10
-20.29
-12.59
-9.28
-8.95
-10.41
-13.27
-18.20
-26.24
-38.11
-53.39
-70.27
-86.02
-97.97
-104.53
-105.84
-104.10
-102.45
-104.31
-111.81
-125.01
-141.72
-158.08
-169.13
-169.46
-154.79
-122.96
-75.87
-19.61
36.74
83.70
114.36
126.73
127.50
125.91
131.38
148.24
173.96
201.88
226.06
244.06
256.50
264.87
269.10
267.91
259.15
242.17
218.89
193.10
168.88
148.59
131.98
115.58
96.72
71.99
39.63
0.88
-40.01
-76.91
-104.00
-117.66
-118.10
-109.00
-96.62
-87.06
-84.04
-87.94
-96.41
-105.76
-112.70
-115.42
-113.78
-109.18
-103.52
-98.58
-95.63
-95.14
-96.63
-98.57
-98.72
-94.85
-85.96
-72.79
-57.88
-44.79
-36.60
-34.60
-37.74
-43.12
-47.35
-48.04
-44.57
-37.92
-29.85
-21.80
-14.36
-7.40
-0.68
5.61
10.71
13.86
14.96
15.11
16.28
20.53
28.95
41.15
55.47
69.74
82.08
91.11
95.57
94.10
85.21
68.16
43.92
15.86
-10.55
-29.03
-34.30
-23.71
1.91
38.44
79.51
118.09
148.01
165.25
168.52
159.16
140.43
116.41
90.99
67.30
47.41
32.46
22.70
17.58
15.80
15.51
14.82
12.28
7.43
0.82
-6.38
-12.98
-18.38
-22.83
-27.23
-32.69
-39.99
-49.33
-60.40
-72.51
-84.78
-96.13
-105.34
-111.03
-111.99
-107.56
-97.89
-84.00
-67.57
-50.53
-34.68
-21.49
-12.03
-7.10
-7.22
-12.47
-22.25
-35.12
-48.84
-60.87
-69.09
-72.45
-71.31
-67.19
-62.21
-58.30
-56.71
-57.81
-61.30
-66.55
-72.97
-80.14
-87.80
-95.94
-104.63
-114.07
-124.30
-135.01
-145.21
-153.29
-157.39
-155.94
-148.27
-134.84
-117.17
-97.35
-77.59
-59.86
-45.73
-36.18
-31.33
-30.10
-30.25
-28.94
-23.73
-13.49
1.21
18.54
36.34
53.03
67.97
81.11
92.37
101.23
106.87
108.81
107.48
104.29
100.97
98.64
97.06
94.63
89.26
79.48
65.35
48.77
32.85
20.74
14.69
15.41
22.25
33.85
