1539961521.00
64.000000
-0.00
-0.00
-0.00
-0.00
-0.00
-0.00
-0.00
-0.00
-0.00
-0.00
0.00
0.01
0.01
-0.00
-0.03
-0.05
-0.05
0.00
0.13
0.36
0.66
1.01
1.37
1.72
2.06
2.40
2.79
3.24
3.80
4.42
5.06
5.66
6.20
6.68
7.15
7.68
8.31
9.14
10.09
11.04
11.88
12.56
13.14
13.76
14.65
15.96
17.91
20.32
22.90
25.38
27.58
29.57
31.68
34.32
37.81
42.54
48.15
54.10
59.83
64.97
69.58
74.14
79.34
85.71
93.76
103.00
112.62
121.73
129.77
136.75
143.30
150.75
157.77
166.64
177.95
191.79
206.97
220.57
228.25
225.36
208.53
176.87
132.76
80.05
23.07
-34.94
-92.44
-149.16
-205.23
-260.37
-313.74
-363.87
-409.83
-450.90
-486.48
-515.71
-537.18
-549.14
-549.86
-538.22
-514.02
-478.44
-433.59
-382.11
-326.62
-269.38
-212.10
-156.06
-102.28
-51.63
-5.09
36.47
72.40
102.42
126.67
145.65
160.08
170.66
178.02
182.56
184.56
184.25
181.91
177.88
172.57
166.40
159.70
152.73
145.63
138.48
131.30
124.15
117.10
110.21
103.55
97.17
91.12
85.40
80.03
75.01
70.36
66.08
62.19
58.67
55.54
52.79
50.42
48.43
46.81
45.56
44.64
44.02
43.60
43.29
42.93
42.36
41.40
39.88
37.66
34.62
30.76
26.10
20.71
14.76
8.50
2.16
-3.97
-9.64
-14.64
-18.80
-22.01
-24.24
-25.51
-25.91
-25.54
-24.55
-23.07
-21.24
-19.17
-16.94
-14.61
-12.20
-9.76
-7.30
-4.83
-2.35
0.16
2.71
5.32
8.01
10.82
13.71
16.67
19.68
22.74
25.86
29.06
32.36
35.81
39.47
43.27
47.18
51.20
55.33
59.61
64.06
68.75
73.73
79.10
84.71
90.45
96.28
102.14
108.01
113.88
119.76
125.66
131.63
137.41
142.75
147.47
151.30
153.98
155.12
154.23
150.58
145.52
139.52
132.89
125.85
118.57
111.20
103.86
96.68
89.81
83.42
77.37
71.58
66.03
60.69
55.57
50.70
46.10
41.85
38.02
34.47
31.11
27.90
24.83
21.88
19.09
16.48
14.10
12.02
10.16
8.47
6.94
5.53
4.22
3.03
1.93
0.94
0.09
-0.67
-1.38
-2.05
-2.71
-3.38
-4.06
-4.73
-5.37
-5.91
-6.35
-6.70
-6.97
-7.21
-7.45
-7.72
-8.05
-8.40
-8.76
-9.11
-9.47
-9.89
-10.42
-11.16
-12.11
-13.27
-14.56
-15.87
-17.12
-18.32
-19.55
-20.99
-22.84
-25.18
-27.98
-31.07
-34.21
-37.22
-40.07
-42.97
-46.25
-50.29
-55.29
-61.18
-67.65
-74.22
-80.57
-86.63
-92.69
-99.30
-107.06
-116.28
-126.92
-138.56
-150.63
-162.68
-174.54
-186.40
-198.69
-212.07
-227.33
-245.36
-266.73
-291.16
-316.95
-340.96
-359.18
-368.09
-365.95
-353.45
-333.49
-309.98
-286.45
-265.12
-246.80
-231.32
-218.17
-206.78
-196.39
-185.83
-173.57
-158.15
-138.88
-116.21
-91.78
-67.86
-46.56
-29.17
-15.79
-5.61
2.71
10.36
17.99
25.63
32.89
39.30
44.58
48.76
52.12
54.98
57.56
59.87
61.87
63.48
64.69
65.53
66.00
65.98
65.28
63.75
61.38
58.31
54.83
51.22
47.68
44.28
40.98
37.65
34.19
30.49
26.51
22.29
17.96
13.71
9.70
6.01
2.56
-0.84
-4.53
-8.73
-13.56
-18.81
-23.90
-27.90
-29.78
-28.68
-24.25
-16.85
-7.48
2.53
11.92
19.80
25.77
29.86
32.32
33.48
33.70
33.30
32.64
32.00
31.58
31.38
31.29
31.10
30.64
29.82
28.68
27.34
25.94
24.60
23.28
21.82
19.96
17.41
14.01
9.81
5.06
0.09
-4.87
-9.77
-14.71
-19.81
-25.00
-29.94
-34.22
-37.48
-39.69
-41.11
-42.24
-43.57
-45.45
-47.97
-50.98
-54.07
-56.53
-57.44
-55.86
-51.15
-43.25
-32.82
-21.07
-9.42
0.94
9.28
15.42
19.64
22.62
25.19
28.29
32.63
38.48
45.52
52.90
59.64
65.04
68.97
71.80
74.10
76.18
77.92
78.82
78.28
76.01
72.13
67.20
62.01
57.34
53.79
51.70
50.95
50.93
50.55
48.43
43.43
35.09
23.83
10.94
-1.99
-13.65
-23.40
-31.36
-38.13
-44.31
-50.16
-55.50
-59.79
-62.42
-62.87
-60.91
-56.64
-50.42
-42.91
-34.89
-27.13
-20.20
-14.34
-9.46
-5.28
-1.49
2.19
5.85
9.55
13.28
17.02
20.64
23.98
26.77
28.81
30.06
30.74
31.22
31.84
32.74
33.75
34.43
34.29
33.00
30.58
27.34
23.82
20.54
17.80
15.59
13.60
11.43
8.70
5.30
1.39
-2.67
-6.53
-9.98
-13.05
-16.01
-19.32
-23.45
-28.75
-35.26
-42.57
-49.76
-55.59
-58.73
-58.25
-53.89
-46.21
-36.43
-25.99
-16.18
-7.79
-1.05
4.30
8.69
12.56
16.15
19.54
22.67
25.48
27.89
29.86
31.39
32.48
33.15
33.47
33.51
33.37
33.11
32.73
32.20
31.48
30.50
29.22
27.57
25.46
22.84
19.73
16.22
12.52
8.81
5.33
2.40
0.40
-0.17
1.09
4.40
9.58
16.04
22.87
29.07
33.79
36.60
37.44
36.59
34.49
31.64
28.50
25.53
23.17
21.78
21.54
22.41
24.07
26.06
27.92
29.35
30.22
30.58
30.49
29.98
29.03
27.67
25.95
24.00
22.02
20.15
18.48
17.02
15.69
14.42
13.13
11.79
10.40
9.00
7.59
6.11
4.52
2.73
0.73
-1.42
-3.58
-5.60
-7.38
-8.91
-10.33
-11.87
-13.77
-16.20
-19.23
-22.73
-26.51
-30.27
-33.80
-36.98
-39.93
-42.96
-46.50
-50.93
-56.38
-62.57
-68.65
-73.38
-75.36
-73.50
-67.39
-57.49
-45.02
-31.69
-19.15
-8.61
-0.58
5.09
8.99
11.84
14.27
16.66
19.17
21.72
24.20
26.45
28.36
29.86
30.95
31.64
31.97
32.03
31.93
31.78
31.69
31.66
31.55
31.12
30.13
28.44
26.13
23.40
20.52
17.62
14.70
11.65
8.33
4.74
1.02
-2.59
-5.89
-8.83
-11.55
-14.41
-17.85
-22.24
-27.66
-33.76
-39.68
-44.25
-46.27
-44.90
-39.98
-32.09
-22.41
-12.35
-3.17
4.34
10.00
14.09
17.20
19.85
22.36
24.73
26.79
28.30
29.15
29.41
29.29
29.07
28.97
29.05
29.23
29.37
29.27
28.84
27.99
26.73
25.13
23.21
20.97
18.33
15.23
11.68
7.83
3.94
0.29
-2.95
-5.82
-8.48
-11.21
-14.27
-17.88
-22.21
-27.30
-33.12
-39.34
-45.28
-49.93
-52.19
-51.18
-46.57
-38.81
-28.99
-18.55
-8.83
-0.76
5.43
10.01
13.56
16.61
19.38
21.84
23.76
24.97
25.48
25.58
25.60
25.82
26.30
26.87
27.30
27.41
27.14
26.56
25.75
24.77
23.62
22.21
20.45
18.27
15.56
12.31
8.56
4.42
0.06
-4.27
-8.28
-11.74
-14.57
-16.87
-19.00
-21.44
-24.70
-29.11
-34.59
-40.52
-45.81
-49.15
-49.41
-46.07
-39.43
-30.50
-20.72
-11.43
-3.48
2.86
7.86
11.98
15.63
19.04
22.24
25.15
27.68
29.71
31.11
31.79
31.71
31.03
30.04
29.13
28.60
28.53
28.76
28.97
28.79
27.91
26.23
23.75
20.63
17.10
13.46
9.94
6.70
3.75
0.98
-1.78
-4.62
-7.51
-10.36
-13.09
-15.79
-18.80
-22.56
-27.41
-33.35
-39.84
-45.86
-50.07
-51.24
-48.66
-42.47
-33.62
-23.64
-14.06
-6.03
0.04
4.44
7.84
10.95
14.23
17.74
21.26
24.43
26.96
28.75
29.83
30.35
30.45
30.27
29.91
29.47
29.06
28.75
28.53
28.32
27.94
27.16
25.81
23.75
20.98
17.57
13.70
9.59
5.59
2.09
-0.39
-1.36
-0.46
2.39
6.98
12.76
18.98
24.82
29.55
32.63
33.77
32.95
30.46
26.76
22.53
18.51
15.35
13.51
13.14
14.13
16.08
18.50
20.83
22.65
23.69
23.87
23.25
21.99
20.25
18.19
15.98
13.78
11.73
9.96
8.57
7.56
6.88
6.46
6.20
5.98
5.72
5.32
4.71
3.81
2.56
0.91
-1.13
-3.49
-6.03
-8.57
-10.92
-13.07
-15.10
-17.24
-19.76
-22.78
-26.30
-30.08
-33.87
-37.40
-40.55
-43.37
-46.06
-48.91
-52.28
-56.48
-61.63
-67.53
-73.53
-78.47
-80.98
-79.82
-74.34
-64.79
-52.36
-38.81
-25.97
-15.21
-7.13
-1.53
2.28
5.18
7.86
10.69
13.75
16.94
20.13
23.20
26.02
28.51
30.54
32.04
33.01
33.58
33.89
34.16
34.49
34.92
35.29
35.36
34.86
33.60
31.58
28.97
26.09
23.24
20.59
18.08
15.44
12.36
8.63
4.28
-0.43
-5.03
-9.06
-12.31
-14.89
-17.31
-20.28
-24.43
-30.06
-36.84
-43.81
-49.62
-52.87
-52.58
-48.48
-41.09
-31.59
-21.35
-11.62
-3.23
3.48
8.59
12.44
15.38
17.73
19.71
21.48
23.14
24.72
26.15
27.26
27.89
27.90
27.30
26.23
25.01
23.98
23.45
23.52
24.06
24.76
25.16
24.88
23.73
21.70
19.03
16.01
12.99
10.16
7.57
5.15
2.72
0.04
-3.01
-6.39
-9.92
-13.31
-16.35
-19.04
-21.68
-24.75
-28.75
-33.88
-39.88
-45.98
-51.02
-53.84
-53.57
-49.87
-43.11
-34.20
-24.35
-14.78
-6.41
0.31
5.34
8.96
11.60
13.65
15.40
17.04
18.67
20.30
21.88
23.25
24.30
24.97
25.32
25.52
25.81
26.36
27.23
28.25
29.14
29.48
28.93
27.31
24.69
21.36
17.79
14.43
11.56
9.15
6.91
4.44
1.45
-2.08
-5.92
-9.74
-13.28
-16.49
-19.51
-22.64
-26.19
-30.43
-35.41
-40.99
-46.67
-51.65
-54.88
-55.34
-52.43
-46.15
-37.21
-26.80
-16.28
-6.73
1.22
7.43
12.14
15.73
18.54
20.83
22.73
24.29
25.52
26.46
27.16
27.69
28.05
28.19
28.04
27.57
26.88
26.12
25.49
25.11
24.96
24.86
24.58
23.83
22.43
20.29
17.48
14.21
10.79
7.57
4.80
2.52
0.56
-1.41
-3.72
-6.54
-9.78
-13.18
-16.40
-19.23
-21.71
-24.12
-26.93
-30.60
-35.32
-40.94
-46.76
-51.66
-54.41
-53.99
-49.97
-42.68
-33.21
-23.03
-13.52
-5.64
0.31
4.58
7.70
10.17
12.35
14.31
16.02
17.32
18.11
18.35
18.16
17.79
17.54
17.66
18.19
19.00
19.81
20.36
20.49
20.19
19.54
18.59
17.33
15.72
13.74
11.41
8.79
5.92
2.82
-0.43
-3.60
-6.30
-7.98
-8.08
-6.19
-2.28
3.32
9.91
16.60
22.52
26.97
29.54
30.13
28.92
26.33
22.89
19.23
15.98
13.72
12.82
13.34
15.02
17.35
19.68
21.49
22.50
22.69
22.26
21.43
20.37
19.10
17.61
15.89
14.04
12.25
10.72
9.56
8.71
8.00
7.19
6.15
4.84
3.39
2.01
0.88
0.06
-0.52
-1.06
-1.80
-2.89
-4.41
-6.28
-8.38
-10.60
-12.87
-15.22
-17.70
-20.37
-23.26
-26.32
-29.42
-32.41
-35.13
-37.55
-39.78
-42.12
-44.97
-48.67
-53.38
-58.86
-64.41
-68.97
-71.32
-70.47
-65.95
-57.97
-47.47
-35.81
-24.43
-14.46
-6.49
-0.61
3.47
6.21
8.10
9.53
10.86
12.31
14.04
16.11
18.48
20.99
23.44
25.59
27.27
28.40
29.00
29.21
29.16
28.98
28.63
27.96
26.72
24.76
22.06
18.84
15.46
12.27
9.54
7.27
5.27
3.24
0.93
-1.79
-4.77
-7.77
-10.47
-12.70
-14.52
-16.27
-18.42
-21.43
-25.50
-30.45
-35.63
-40.13
-42.91
-43.12
-40.34
-34.70
-26.88
-17.87
-8.73
-0.39
6.56
11.84
15.46
17.63
18.66
18.87
18.67
18.36
18.16
18.14
18.26
18.40
18.47
18.46
18.36
18.23
18.10
17.99
17.96
17.97
17.96
17.77
17.20
16.06
14.29
11.89
9.01
5.78
2.37
-1.12
-4.60
-7.94
-11.04
-13.85
-16.46
-19.08
-22.04
-25.68
-30.16
-35.36
-40.72
-45.31
-48.00
-47.80
-44.24
-37.54
-28.65
-18.96
-9.83
-2.23
3.48
7.47
10.23
12.28
13.97
15.43
16.65
17.55
18.07
18.22
18.09
17.82
17.55
17.42
17.51
17.83
18.36
19.01
19.65
20.08
20.08
19.42
18.02
15.93
13.36
10.56
7.75
4.96
2.10
-0.99
-4.41
-8.08
-11.86
-15.52
-18.95
-22.19
-25.45
-29.06
-33.29
-38.25
-43.63
-48.76
-52.60
-54.10
-52.50
-47.68
-40.14
-30.93
-21.23
-12.06
-4.11
2.32
7.16
10.56
12.84
14.43
15.80
17.32
19.15
21.11
22.88
24.16
24.80
24.91
24.73
24.54
24.48
24.61
24.84
25.04
25.01
24.54
23.41
21.49
18.81
15.63
12.37
9.35
6.78
4.51
2.26
-0.31
-3.33
-6.70
-10.11
-13.25
-15.94
-18.27
-20.55
-23.25
-26.81
-31.49
-37.14
-43.13
-48.40
-51.69
-51.98
-48.84
-42.60
-34.28
-25.15
-16.39
-8.79
-2.60
2.23
6.02
9.02
11.56
13.86
16.09
18.30
20.42
22.27
23.68
24.53
24.89
24.89
24.77
24.70
24.82
25.13
25.52
25.79
25.71
25.05
23.67
21.58
18.92
15.87
12.64
9.36
6.14
3.13
0.52
-1.34
-2.09
-1.42
0.79
4.41
9.04
14.13
19.05
23.21
26.12
27.47
27.21
25.50
22.75
19.57
16.60
14.43
13.42
13.62
14.82
16.62
18.53
20.19
21.37
22.01
22.20
22.04
21.61
21.00
20.23
19.40
18.61
17.92
17.37
16.81
16.13
15.18
13.92
12.41
10.77
9.07
7.36
5.60
3.76
1.83
-0.21
-2.38
-4.63
-6.90
-9.07
-10.98
-12.57
-13.92
-15.32
-17.11
-19.53
-22.53
-25.85
-29.12
-32.05
-34.56
-36.82
-39.16
-41.96
-45.60
-50.23
-55.72
-61.46
-66.40
-69.19
-68.61
-63.98
-55.55
-44.42
-32.30
-20.91
-11.52
-4.65
-0.12
2.68
4.49
5.87
7.12
8.30
9.42
10.53
11.70
13.02
14.46
15.87
17.03
17.80
18.22
18.48
18.81
19.36
20.10
20.83
21.31
21.41
21.11
20.48
19.57
18.38
16.81
14.74
12.09
8.88
5.21
1.32
-2.46
-5.87
-8.72
-11.05
-13.12
-15.42
-18.44
-22.52
-27.58
-33.02
-37.83
-40.78
-40.90
-37.79
-31.78
-23.83
-15.23
-7.21
-0.60
4.33
7.76
10.16
12.04
13.70
15.24
16.55
17.49
17.97
18.09
18.04
18.01
18.12
18.38
18.73
19.16
19.66
20.28
20.94
21.45
21.50
20.86
19.41
17.24
14.58
11.64
8.57
5.33
1.87
-1.84
-5.67
-9.40
-12.78
-15.72
-18.31
-20.86
-23.79
-27.48
-32.12
-37.51
-43.02
-47.64
-50.19
-49.74
-45.93
-39.11
-30.29
-20.78
-11.82
-4.24
1.68
6.09
9.38
11.91
13.96
15.69
17.14
18.35
19.37
20.20
20.86
21.36
21.68
21.79
21.77
21.67
21.61
21.65
21.79
21.86
21.63
20.88
19.47
17.49
15.14
12.78
10.64
8.80
7.10
5.23
2.96
0.20
-2.85
-5.91
-8.73
-11.30
-13.82
-16.60
-19.94
-24.03
-28.91
-34.39
-40.08
-45.25
-48.93
-50.10
-48.04
-42.67
-34.74
-25.56
-16.59
-8.93
-3.00
1.39
4.82
7.84
10.77
13.64
16.34
18.69
20.59
22.05
23.16
24.00
24.69
25.29
25.83
26.30
26.70
27.06
27.44
27.89
28.32
28.51
28.12
26.88
24.69
21.74
18.45
15.32
12.72
10.70
9.06
7.45
5.55
3.20
0.42
-2.61
-5.71
-8.68
-11.44
-14.07
-16.76
-19.84
-23.67
-28.50
-34.28
-40.56
-46.45
-50.82
-52.58
-51.05
-46.23
-38.76
-29.82
-20.72
-12.51
-5.75
-0.49
3.60
7.02
10.15
13.20
16.16
18.89
21.22
23.03
24.27
24.94
25.16
25.09
24.97
24.98
25.17
25.45
25.60
25.38
24.68
23.52
22.00
20.22
18.19
15.87
13.27
10.46
7.65
5.10
3.05
1.65
1.08
1.54
3.20
6.18
10.35
15.36
20.60
25.43
29.27
31.75
32.69
32.10
30.17
27.27
23.96
20.89
18.64
17.54
17.55
18.33
19.35
20.15
20.52
20.49
20.25
20.03
19.96
19.94
19.77
19.27
18.36
17.15
15.88
14.79
14.02
13.49
13.02
12.39
11.49
10.30
8.96
7.57
6.22
4.92
3.65
2.43
1.20
-0.11
-1.62
-3.43
-5.56
-7.89
-10.17
-12.18
-13.80
-15.13
-16.46
-18.17
-20.49
-23.46
-26.84
-30.27
-33.40
-36.06
-38.37
-40.63
-43.26
-46.66
-51.07
-56.48
-62.52
-68.41
-73.02
-75.03
-73.36
-67.54
-57.99
-45.97
-33.23
-21.45
-11.82
-4.74
0.01
3.06
5.09
6.61
7.96
9.30
10.71
12.24
13.93
15.78
17.82
20.02
22.30
24.57
26.62
28.32
29.56
30.32
30.62
30.47
29.74
28.28
25.96
22.86
19.30
15.76
12.71
10.35
8.58
7.05
5.39
3.38
1.05
-1.41
-3.79
-5.99
-8.03
-9.97
-11.90
-13.97
-16.44
-19.67
-23.96
-29.28
-35.12
-40.43
-43.90
-44.43
-41.55
-35.57
-27.49
-18.59
-10.03
-2.61
3.38
7.97
11.39
13.89
15.66
16.85
17.58
18.04
18.42
18.96
19.81
21.03
22.49
23.99
25.28
26.18
26.65
26.80
26.78
26.71
26.60
26.28
25.55
24.22
22.22
19.67
16.77
13.80
10.98
8.43
6.11
3.86
1.48
-1.23
-4.34
-7.78
-11.34
-14.77
-17.88
-20.65
-23.24
-25.95
-29.12
-33.02
-37.81
-43.34
-49.16
-54.39
-57.95
-58.73
-56.06
-49.94
-41.17
-31.07
-21.07
-12.23
-5.02
0.66
5.19
8.99
12.29
15.15
17.53
19.48
21.10
22.52
23.79
24.86
25.64
26.03
26.03
25.80
25.51
25.35
25.34
25.42
25.41
25.19
24.64
23.73
22.43
20.69
18.48
15.90
13.18
10.64
8.54
6.90
5.52
3.99
1.91
-0.91
-4.32
-7.97
-11.42
-14.36
-16.78
-18.81
-20.79
-23.00
-25.73
-29.19
-33.56
-38.82
-44.65
-50.30
-54.69
-56.60
-55.16
-50.19
-42.27
-32.66
-22.83
-14.02
-6.94
-1.71
2.01
4.79
7.21
9.70
12.48
15.54
18.72
21.75
24.35
26.32
27.56
28.13
28.16
27.89
27.57
27.43
27.63
28.14
28.82
29.41
29.69
29.48
28.71
27.35
25.41
22.93
20.06
17.04
14.16
11.62
9.45
7.54
5.62
3.48
1.03
-1.73
-4.67
-7.68
-10.65
-13.51
-16.22
-18.86
-21.68
-25.10
-29.59
-35.33
-42.01
-48.71
-54.09
-56.73
-55.70
-50.76
-42.57
-32.43
-21.88
-12.26
-4.40
1.46
5.57
8.49
10.84
13.07
15.46
18.01
20.62
23.08
25.27
27.07
28.44
29.40
30.00
30.35
30.56
30.74
30.91
31.04
30.96
30.52
29.62
28.24
26.51
24.58
22.56
20.40
17.95
15.01
11.50
7.61
3.88
1.09
0.09
1.46
5.24
10.93
17.58
24.11
29.66
33.73
36.22
37.28
37.14
36.04
34.21
31.89
29.46
27.36
26.07
25.96
27.29
30.17
34.65
40.61
47.63
54.77
60.54
63.16
61.25
54.52
44.23
32.98
23.77
18.79
18.50
21.45
25.00
26.44
24.05
17.42
7.33
-4.82
-17.52
-29.20
-38.40
-43.72
-44.11
-39.33
-30.19
-18.44
-6.24
4.53
12.83
18.57
22.21
24.40
25.55
25.84
25.29
24.00
22.05
19.34
15.57
10.37
3.72
-3.84
-11.29
-17.66
-22.55
-26.32
-29.78
-33.50
-37.25
-39.95
-40.20
-37.13
-30.92
-22.75
-14.28
-6.94
-1.41
2.29
4.59
5.88
6.40
6.23
5.44
4.23
2.92
1.80
1.04
0.66
0.53
0.58
0.75
1.04
1.44
1.87
2.22
2.35
2.14
1.51
0.41
-1.19
-3.32
-5.91
-8.78
-11.67
-14.36
-16.72
-18.79
-20.73
-22.71
-24.83
-27.11
-29.39
-31.49
-33.26
-34.74
-36.16
-38.01
-40.75
-44.46
-48.61
-51.91
-52.67
-49.38
-41.40
-29.22
-14.36
1.27
16.02
28.87
39.61
48.46
55.84
62.27
68.28
74.49
81.18
87.88
93.18
95.08
91.89
83.20
70.25
55.56
41.89
31.18
24.10
20.16
18.32
17.60
17.28
16.87
15.79
13.28
8.65
1.65
-7.40
-17.80
-28.67
-39.12
-48.10
-54.40
-56.57
-53.36
-44.09
-29.01
-9.22
13.52
37.15
59.39
77.60
88.87
90.40
80.12
57.40
23.45
-18.81
-65.26
-111.21
-151.95
-183.25
-202.14
-207.62
-201.09
-186.08
-167.15
-148.40
-132.18
-118.90
-107.61
-97.16
-86.95
-77.11
-68.05
-59.91
-52.34
-44.74
-36.75
-28.47
-20.61
-14.01
-9.24
-6.27
-4.58
-3.36
-1.98
-0.22
1.62
2.99
3.31
2.34
0.22
-2.54
-5.37
-7.80
-9.75
-11.36
-13.00
-14.99
-17.51
-20.60
-24.25
-28.50
-33.43
-39.01
-44.89
-50.25
-53.90
-54.54
-51.28
-44.05
-33.73
-21.81
-10.00
0.38
8.65
14.78
19.17
22.21
24.30
25.65
26.50
27.12
27.85
28.85
30.09
31.34
32.27
32.66
32.50
31.98
31.36
30.80
30.25
29.46
28.15
26.07
23.16
19.47
15.17
10.35
5.13
-0.42
-6.24
-12.22
-18.31
-24.51
-30.86
-37.43
-44.26
-51.21
-58.08
-64.66
-70.81
-76.64
-82.31
-87.91
-93.23
-97.65
-100.23
-100.07
-96.62
-89.93
-80.67
-69.92
-58.83
-48.43
-39.42
-32.19
-26.87
-23.44
-21.69
-21.33
-21.93
-22.93
-23.69
-23.67
-22.49
-20.10
-16.81
-13.16
-9.67
-6.63
-3.94
-1.18
2.15
6.30
11.11
15.96
19.98
22.35
22.68
21.14
18.50
15.80
14.05
13.85
15.28
17.99
21.41
25.04
28.51
31.63
34.29
36.41
37.86
38.62
38.70
38.19
37.28
36.16
34.95
33.77
32.65
31.72
31.13
31.07
31.68
32.82
34.01
34.37
32.93
29.02
22.72
15.04
7.80
3.14
2.88
7.81
17.42
29.93
42.82
53.62
60.68
63.61
63.32
61.54
60.20
60.85
64.29
70.48
78.76
88.11
97.28
104.88
109.52
109.95
105.50
96.34
83.60
69.20
55.37
44.04
36.39
32.60
31.98
33.28
35.06
36.16
35.94
34.40
32.10
29.88
28.46
28.12
28.56
29.11
29.06
28.03
26.19
24.14
22.60
22.06
22.55
23.68
24.82
25.50
25.49
24.86
23.75
22.19
19.93
16.56
11.73
5.39
-2.16
-10.37
-18.70
-26.83
-34.66
-42.29
-49.83
-57.29
-64.59
-71.61
-78.28
-84.53
-90.16
-94.72
-97.51
-97.69
-94.63
-88.11
-78.57
-66.96
-54.59
-42.71
-32.19
-23.39
-16.18
-10.24
-5.18
-0.83
2.88
5.93
8.35
10.27
11.87
13.27
14.43
15.29
15.72
15.74
15.50
15.21
15.05
14.99
14.81
14.12
12.60
10.13
6.85
3.07
-0.85
-4.67
-8.35
-12.01
-15.93
-20.41
-25.63
-31.56
-37.72
-43.24
-46.91
-47.62
-44.69
-38.23
-29.15
-18.89
-8.91
-0.30
6.51
11.64
15.46
18.44
20.86
22.86
24.47
25.71
26.66
27.40
27.98
28.36
28.48
28.26
27.76
27.10
26.43
25.85
25.28
24.46
23.00
20.58
17.06
12.62
7.74
2.98
-1.22
-4.69
-7.63
-10.55
-14.01
-18.42
-23.86
-29.96
-35.98
-40.88
-43.58
-43.24
-39.53
-32.73
-23.75
-13.88
-4.43
3.64
9.98
14.77
18.53
21.76
24.72
27.43
29.73
31.48
32.63
33.24
33.39
33.10
32.31
31.01
29.33
27.53
25.95
24.80
24.05
23.38
22.27
20.25
17.06
12.84
8.05
3.32
-0.78
-3.98
-6.40
-8.52
-11.07
-14.67
-19.71
-26.11
-33.34
-40.45
-46.27
-49.68
-49.86
-46.53
-40.15
-31.78
-22.82
-14.59
-7.92
-2.96
0.75
3.95
7.23
10.74
14.25
17.31
19.61
21.14
22.08
22.71
23.14
23.24
22.85
21.85
20.38
18.73
17.17
15.73
14.20
12.19
9.38
5.70
1.35
-3.22
-7.58
-11.41
-14.69
-17.67
-20.78
-24.52
-29.25
-34.92
-41.01
-46.47
-50.00
-50.51
-47.42
-40.96
-32.09
-22.16
-12.47
-3.93
3.13
8.89
13.71
18.02
21.98
25.54
28.51
30.68
31.99
32.56
32.67
32.57
32.47
32.35
32.10
31.65
30.99
30.20
29.39
28.57
27.57
26.13
23.96
20.85
16.89
12.34
7.66
3.31
-0.41
-3.48
-6.19
-9.05
-12.57
-17.03
-22.36
-28.06
-33.34
-37.27
-39.06
-38.21
-34.65
-28.79
-21.44
-13.61
-6.23
0.11
5.32
9.70
13.75
17.85
22.04
26.02
29.35
31.67
32.90
33.25
33.08
32.68
32.15
31.42
30.31
28.79
26.96
25.05
23.28
21.73
20.30
18.73
16.76
14.20
11.04
7.39
3.43
-0.59
-4.45
-8.00
-11.19
-14.12
-17.08
-20.50
-24.79
-30.24
-36.65
-43.33
-49.15
-52.78
-53.19
-49.99
-43.63
-35.28
-26.36
-18.05
-10.94
-4.90
0.62
6.17
11.99
17.84
23.22
27.57
30.62
32.45
33.34
33.75
33.98
34.20
34.40
34.53
34.51
34.29
33.89
33.33
32.63
31.70
30.42
28.60
26.05
22.72
18.70
14.31
9.93
5.92
2.44
-0.56
-3.36
-6.32
-9.78
-13.92
-18.74
-24.14
-29.77
-35.12
-39.44
-41.85
-41.61
-38.32
-32.24
-24.25
-15.63
-7.61
-0.99
4.11
8.06
11.45
14.70
17.90
20.88
23.40
25.32
26.65
27.52
27.99
28.08
27.78
27.15
26.34
25.50
24.78
24.11
23.39
22.46
21.21
19.68
17.92
15.97
13.77
11.19
8.17
4.79
1.38
-1.55
-3.39
-3.66
-2.14
1.08
5.58
10.69
15.74
20.13
23.47
25.63
26.53
26.26
24.91
22.73
20.08
17.46
15.37
14.16
13.90
14.39
15.22
15.98
16.34
16.18
15.52
14.46
13.10
11.51
9.76
7.91
6.06
4.27
2.56
0.89
-0.82
-2.64
-4.53
-6.39
-8.05
-9.41
-10.47
-11.41
-12.52
-14.04
-16.08
-18.57
-21.31
-24.00
-26.44
-28.52
-30.40
-32.40
-35.04
-38.76
-43.81
-49.95
-56.35
-61.77
-64.82
-64.45
-60.30
-52.79
-42.99
-32.28
-21.96
-12.96
-5.74
-0.26
3.82
6.97
9.65
12.14
14.56
16.90
19.08
20.96
22.43
23.32
23.46
22.76
21.28
19.36
17.46
16.09
15.49
15.56
15.83
15.66
14.52
12.20
8.89
5.09
1.44
-1.59
-3.77
-5.23
-6.36
-7.72
-9.83
-13.04
-17.39
-22.56
-27.93
-32.58
-35.61
-36.30
-34.40
-30.16
-24.33
-17.93
-11.87
-6.78
-2.85
0.12
2.51
4.61
6.60
8.42
9.95
11.09
11.83
12.24
12.36
12.14
11.45
10.20
8.50
6.61
4.89
3.52
2.43
1.30
-0.25
-2.44
-5.12
-7.86
-10.21
-11.85
-12.82
-13.46
-14.30
-15.83
-18.41
-22.11
-26.66
-31.49
-35.67
-38.22
-38.33
-35.64
-30.41
-23.39
-15.63
-8.11
-1.56
3.74
7.82
10.90
13.22
15.00
16.32
17.27
17.84
18.01
17.74
16.99
15.80
14.29
12.71
11.34
10.42
10.02
10.00
10.07
9.88
9.12
7.66
5.49
2.77
-0.27
-3.35
-6.18
-8.56
-10.44
-11.99
-13.54
-15.57
-18.45
-22.26
-26.63
-30.72
-33.51
-34.03
-31.77
-26.84
-19.96
-12.26
-4.87
1.33
5.99
9.19
11.31
12.76
13.81
14.57
15.02
15.17
15.12
15.02
15.07
15.31
15.66
15.92
15.90
15.49
14.78
13.98
13.29
12.82
12.49
12.10
11.35
10.00
7.95
5.26
2.18
-0.95
-3.81
-6.28
-8.47
-10.75
-13.62
-17.44
-22.19
-27.38
-32.07
-35.17
-35.76
-33.40
-28.27
-21.05
-12.77
-4.43
3.13
9.41
14.25
17.75
20.11
21.54
22.17
22.09
21.38
20.22
18.87
17.66
16.84
16.50
16.43
16.30
15.77
14.69
13.20
11.64
10.37
9.57
9.10
8.58
7.59
5.89
3.55
0.92
-1.58
-3.63
-5.06
-5.85
-5.93
-5.12
-3.17
0.08
4.56
9.83
15.21
19.95
23.43
25.35
25.67
24.60
22.43
19.54
16.32
13.25
10.73
9.06
8.31
8.30
8.65
8.98
9.04
8.79
8.32
7.84
7.41
6.98
6.40
5.46
4.08
2.28
0.22
-1.97
-4.18
-6.37
-8.59
-10.81
-13.01
-15.13
-17.20
-19.25
-21.38
-23.64
-25.96
-28.24
-30.36
-32.37
-34.48
-37.04
-40.31
-44.29
-48.54
-52.18
-54.15
-53.45
-49.57
-42.70
-33.70
-23.87
-14.60
-6.88
-1.16
2.67
5.02
6.38
7.08
7.34
7.27
7.06
6.93
7.07
7.58
8.34
9.09
9.55
9.54
9.07
8.29
7.31
6.20
4.93
3.44
1.67
-0.34
-2.47
-4.62
-6.67
-8.60
-10.45
-12.38
-14.61
-17.36
-20.82
-24.89
-29.19
-33.04
-35.58
-36.06
-34.03
-29.54
-23.16
-15.82
-8.52
-2.08
3.01
6.65
9.01
10.38
11.05
11.26
11.16
10.89
10.50
10.06
9.69
9.48
9.56
9.95
10.58
11.30
11.90
12.16
11.86
10.89
9.12
6.53
3.20
-0.66
-4.68
-8.51
-11.92
-14.90
-17.70
-20.74
-24.37
-28.71
-33.54
-38.16
-41.63
-42.92
-41.29
-36.54
-29.19
-20.37
-11.47
-3.74
2.14
6.09
8.55
10.11
11.25
12.21
12.98
13.49
13.66
13.51
13.12
12.57
11.97
11.36
10.85
10.45
10.16
9.90
9.54
8.94
8.01
6.74
5.08
3.02
0.55
-2.31
-5.45
-8.69
-11.94
-15.24
-18.78
-22.77
-27.18
-31.62
-35.20
-36.92
-35.99
-32.18
-25.97
-18.33
-10.44
-3.29
2.51
6.79
9.70
11.60
12.92
14.06
15.25
16.57
17.86
18.86
19.25
18.91
17.88
16.38
14.75
13.25
12.05
11.08
10.18
9.06
7.50
5.34
2.62
-0.47
-3.65
-6.60
-9.12
-11.17
-12.92
-14.74
-17.09
-20.30
-24.37
-28.77
-32.57
-34.61
-33.93
-30.20
-23.79
-15.77
-7.38
0.29
6.54
11.24
14.55
16.75
18.11
18.85
19.16
19.24
19.26
19.35
19.54
19.75
19.87
19.77
19.33
18.55
17.48
16.28
15.07
13.96
12.94
11.84
10.38
8.31
5.52
2.08
-1.72
-5.51
-8.92
-11.72
-13.95
-15.85
-17.88
-20.44
-23.82
-27.92
-32.22
-35.83
-37.73
-37.11
-33.68
-27.84
-20.56
-13.10
-6.54
-1.43
2.24
4.98
7.45
10.12
13.04
15.94
18.33
19.88
20.52
20.50
20.25
20.19
20.44
20.87
21.21
21.18
20.75
20.14
19.65
19.48
19.46
19.17
18.09
15.90
12.65
8.73
4.66
0.92
-2.29
-4.99
-7.32
-9.52
-11.85
-14.60
-18.05
-22.31
-27.11
-31.76
-35.21
-36.46
-34.92
-30.64
-24.33
-17.08
-10.03
-4.01
0.62
3.89
6.10
7.60
8.71
9.62
10.46
11.28
12.06
12.77
13.38
13.92
14.43
14.94
15.47
15.89
16.07
15.90
15.36
14.53
13.53
12.42
11.09
9.39
7.12
4.27
1.05
-2.18
-4.93
-6.92
-8.11
-8.76
-9.43
-10.78
-13.36
-17.37
-22.51
-27.92
-32.42
-34.79
-34.24
-30.63
-24.55
-17.06
-9.38
-2.50
3.01
7.06
9.93
12.08
14.02
16.10
18.36
20.60
22.44
23.48
23.54
22.73
21.42
20.07
19.07
18.56
18.41
18.31
17.92
16.99
15.46
13.47
11.30
9.29
7.84
7.30
7.95
9.90
12.93
16.40
19.28
20.32
18.49
13.34
5.19
-4.88
-15.48
-25.20
-33.04
-38.37
-40.94
-40.71
-37.95
-33.19
-27.30
-21.35
-16.23
-12.44
-9.87
-7.96
-6.03
-3.58
-0.55
2.69
5.61
7.79
9.11
9.72
9.96
10.20
10.64
11.33
12.16
12.96
13.58
13.92
13.98
13.83
13.60
13.42
13.34
13.24
12.84
11.81
9.91
7.12
3.79
0.53
-1.93
-2.99
-2.33
-0.03
3.54
7.81
12.27
16.53
20.32
23.50
25.89
27.28
27.49
26.43
24.29
21.52
18.70
16.39
14.92
14.33
14.46
15.03
15.73
16.33
16.63
16.45
15.69
14.33
12.48
10.36
8.28
6.52
5.28
4.63
4.48
4.63
4.83
4.82
4.42
3.58
2.37
0.95
-0.53
-2.07
-3.75
-5.73
-8.14
-10.98
-14.08
-17.19
-20.08
-22.68
-25.11
-27.72
-30.90
-34.91
-39.62
-44.53
-48.72
-51.12
-50.88
-47.65
-41.73
-33.91
-25.31
-16.91
-9.43
-3.24
1.59
5.14
7.54
8.96
9.63
9.87
10.02
10.41
11.21
12.41
13.82
15.16
16.14
16.59
16.49
15.95
15.25
14.63
14.24
14.00
13.67
12.93
11.56
9.60
7.28
4.96
2.90
1.17
-0.38
-2.08
-4.27
-7.23
-11.06
-15.61
-20.44
-24.84
-27.93
-28.91
-27.34
-23.30
-17.38
-10.51
-3.66
2.36
7.07
10.35
12.40
13.57
14.30
14.91
15.52
16.09
16.52
16.65
16.50
16.12
15.60
14.94
14.10
13.08
12.02
11.11
10.62
10.62
10.92
11.13
10.77
9.47
7.18
4.20
1.00
-1.95
-4.39
-6.37
-8.19
-10.26
-12.94
-16.43
-20.59
-24.99
-28.93
-31.57
-32.16
-30.28
-26.05
-20.09
-13.36
-6.80
-1.10
3.44
6.91
9.56
11.68
13.43
14.92
16.15
17.12
17.84
18.31
18.59
18.73
18.79
18.79
18.77
18.72
18.61
18.39
18.04
17.52
16.84
15.98
14.88
13.40
11.38
8.71
5.44
1.81
-1.77
-4.92
-7.49
-9.59
-11.58
-13.96
-17.11
-21.13
-25.81
-30.55
-34.56
-36.96
-37.10
-34.71
-30.03
-23.77
-16.84
-10.17
-4.36
0.38
4.14
7.18
9.75
12.02
14.03
15.81
17.43
18.94
20.41
21.80
23.00
23.82
24.14
23.99
23.57
23.19
23.10
23.36
23.78
24.03
23.75
22.73
21.02
18.86
16.54
14.28
12.10
9.85
7.31
4.34
1.01
-2.44
-5.71
-8.54
-10.81
-12.65
-14.29
-16.06
-18.25
-21.07
-24.61
-28.72
-32.98
-36.68
-38.98
-39.16
-36.87
-32.29
-26.06
-19.10
-12.34
-6.42
-1.66
1.96
4.67
6.80
8.59
10.20
11.68
13.03
14.22
15.28
16.22
17.06
17.79
18.32
18.65
18.82
18.95
19.16
19.47
19.78
19.82
19.34
18.19
16.40
14.22
11.93
9.70
7.54
5.29
2.83
0.21
-2.29
-4.11
-4.72
-3.75
-1.18
2.65
7.14
11.67
15.67
18.81
20.93
22.05
22.22
21.63
20.50
19.14
17.91
17.12
16.94
17.34
18.17
19.16
20.09
20.84
21.39
21.80
22.09
22.22
22.13
21.71
20.86
19.55
17.79
15.72
13.61
11.71
10.22
9.12
8.15
6.95
5.24
2.95
0.28
-2.38
-4.70
-6.51
-7.84
-8.91
-10.01
-11.34
-13.01
-14.95
-17.01
-19.03
-20.91
-22.68
-24.50
-26.57
-29.06
-32.05
-35.43
-38.96
-42.28
-44.88
-46.16
-45.53
-42.62
-37.44
-30.48
-22.61
-14.86
-8.11
-2.84
0.88
3.33
4.95
6.15
7.24
8.43
9.76
11.17
12.53
13.65
14.41
14.81
14.96
14.99
14.99
14.94
14.77
14.42
13.93
13.42
13.04
12.82
12.61
12.17
11.21
9.58
7.28
4.49
1.48
-1.45
-4.10
-6.38
-8.30
-10.01
-11.71
-13.69
-16.26
-19.63
-23.76
-28.31
-32.57
-35.65
-36.71
-35.26
-31.32
-25.46
-18.64
-11.82
-5.83
-1.08
2.35
4.72
6.38
7.66
8.73
9.63
10.33
10.81
11.19
11.65
12.34
13.31
14.42
15.42
16.07
16.28
16.10
15.72
15.28
14.82
14.25
13.40
12.09
10.26
7.94
5.26
2.38
-0.53
-3.36
-6.04
-8.57
-10.99
-13.38
-15.86
-18.62
-21.81
-25.56
-29.68
-33.72
-36.91
-38.38
-37.45
-33.94
-28.22
-21.11
-13.61
-6.56
-0.47
4.48
8.35
11.29
13.44
14.92
15.81
16.25
16.37
16.25
15.98
15.55
14.99
14.36
13.80
13.45
13.37
13.49
13.65
13.65
13.41
12.93
12.30
11.50
10.42
8.82
6.57
3.70
0.51
-2.57
-5.19
-7.25
-8.92
-10.54
-12.48
-14.99
-18.13
-21.84
-25.93
-30.03
-33.59
-35.89
-36.25
-34.22
-29.83
-23.63
-16.53
-9.49
-3.32
1.58
5.13
7.50
8.89
9.50
9.49
9.06
8.51
8.17
8.36
9.21
10.62
12.25
13.68
14.57
14.74
14.31
13.58
12.89
12.49
12.36
12.30
11.94
10.92
9.04
6.38
3.23
0.03
-2.86
-5.24
-7.21
-9.06
-11.17
-13.81
-17.14
-21.13
-25.64
-30.35
-34.79
-38.27
-40.03
-39.43
-36.16
-30.45
-23.01
-14.84
-6.86
0.28
6.36
11.46
15.78
19.44
22.46
24.74
26.23
26.97
27.10
26.86
26.47
26.06
25.70
25.35
24.97
24.49
23.82
22.88
21.59
19.91
17.91
15.65
13.28
10.85
8.36
5.71
2.83
-0.26
-3.41
-6.28
-8.44
-9.46
-8.99
-6.89
-3.30
1.39
6.58
11.58
15.78
18.82
20.57
21.14
20.74
19.59
17.92
16.03
14.23
12.86
12.17
12.19
12.80
13.79
14.88
15.88
16.66
17.08
17.06
16.55
15.56
14.21
12.66
10.99
9.23
7.34
5.27
3.07
0.83
-1.31
-3.24
-4.96
-6.62
-8.40
-10.51
-13.09
-16.15
-19.55
-23.00
-26.19
-28.82
-30.82
-32.38
-33.92
-35.96
-38.92
-42.85
-47.35
-51.52
-54.30
-54.71
-52.26
-47.10
-39.93
-31.82
-23.86
-16.85
-11.21
-6.95
-3.80
-1.43
0.48
2.10
3.55
4.87
6.13
7.41
8.80
10.27
11.73
13.01
13.95
14.53
14.89
15.28
15.89
16.76
17.69
18.31
18.20
17.05
14.81
11.70
8.13
4.56
1.31
-1.44
-3.79
-5.96
-8.21
-10.79
-13.85
-17.45
-21.54
-25.85
-29.90
-33.00
-34.41
-33.57
-30.32
-25.04
-18.52
-11.66
-5.22
0.37
4.97
8.65
11.49
13.57
14.97
15.80
16.27
16.58
16.82
16.98
16.95
16.65
16.06
15.32
14.61
14.08
13.81
13.77
13.83
13.84
13.62
12.99
11.79
9.95
7.52
4.65
1.60
-1.36
-3.99
-6.27
-8.25
-10.15
-12.28
-14.92
-18.26
-22.31
-26.76
-30.92
-33.91
-34.82
-33.12
-28.82
-22.59
-15.50
-8.66
-2.88
1.52
4.68
6.98
8.79
10.31
11.60
12.64
13.44
14.05
14.61
15.22
15.96
16.78
17.56
18.13
18.35
18.15
17.57
16.75
15.87
15.10
14.43
13.72
12.68
11.10
8.89
6.20
3.30
0.53
-1.91
-4.03
-6.00
-8.07
-10.50
-13.48
-17.06
-21.18
-25.62
-29.93
-33.46
-35.45
-35.31
-32.75
-28.01
-21.74
-14.84
-8.22
-2.54
1.95
5.35
7.98
10.25
12.40
14.49
16.41
17.95
18.92
19.29
19.17
18.74
18.16
17.54
16.90
16.23
15.56
14.90
14.32
13.78
13.21
12.46
11.35
9.73
7.53
4.81
1.75
-1.39
-4.40
-7.08
-9.38
-11.42
-13.45
-15.81
-18.76
-22.40
-26.55
-30.68
-34.05
-35.86
-35.53
-32.87
-28.16
-22.02
-15.33
-8.88
-3.28
1.15
4.43
6.81
8.64
10.30
11.96
13.62
15.11
16.18
16.70
16.66
16.23
15.65
15.10
14.68
14.44
14.36
14.43
14.56
14.60
14.35
13.62
12.28
10.30
7.78
4.90
1.83
-1.23
-4.06
-6.43
-8.03
-8.50
-7.58
-5.14
-1.28
3.61
8.99
14.24
18.79
22.26
24.49
25.49
25.39
24.34
22.57
20.35
18.09
16.28
15.31
15.44
16.58
18.34
20.12
21.36
21.74
21.25
20.17
18.85
17.60
16.50
15.48
14.41
13.27
12.08
10.93
9.86
8.84
7.78
6.57
5.17
3.57
1.82
-0.10
-2.17
-4.37
-6.68
-9.04
-11.43
-13.84
-16.23
-18.53
-20.63
-22.44
-23.93
-25.20
-26.36
-27.62
-29.20
-31.31
-34.18
-37.98
-42.61
-47.57
-51.95
-54.60
-54.53
-51.26
-45.04
-36.84
-27.91
-19.43
-12.12
-6.17
-1.38
2.58
5.94
8.73
10.93
12.55
13.80
14.99
16.35
17.89
19.37
20.41
20.76
20.47
19.89
19.48
19.54
20.06
20.74
21.15
20.98
20.15
18.79
17.09
15.17
13.05
10.64
7.92
4.97
1.94
-0.98
-3.62
-5.98
-8.24
-10.67
-13.63
-17.38
-21.95
-26.99
-31.81
-35.49
-37.13
-36.14
-32.50
-26.77
-19.92
-12.99
-6.81
-1.77
2.14
5.14
7.49
9.34
10.77
11.89
12.80
13.65
14.50
15.28
15.87
16.12
15.98
15.58
15.09
14.72
14.54
14.48
14.38
14.07
13.38
12.18
10.40
8.00
5.03
1.63
-1.93
-5.33
-8.25
-10.49
-12.10
-13.37
-14.77
-16.86
-20.00
-24.18
-28.94
-33.40
-36.46
-37.25
-35.31
-30.82
-24.47
-17.30
-10.25
-4.04
0.97
4.73
7.42
9.27
10.53
11.33
11.73
11.79
11.57
11.18
10.80
10.65
10.83
11.35
12.03
12.58
12.75
12.45
11.81
11.10
10.60
10.36
10.18
9.68
8.51
6.50
3.78
0.71
-2.30
-5.00
-7.36
-9.55
-11.85
-14.49
-17.63
-21.28
-25.37
-29.68
-33.82
-37.25
-39.30
-39.37
-37.07
-32.40
-25.80
-18.10
-10.28
-3.24
2.44
6.55
9.28
11.02
12.21
13.20
14.13
15.02
15.74
16.19
16.36
16.31
16.20
16.20
16.36
16.68
17.07
17.39
17.55
17.45
17.01
16.18
14.93
13.28
11.34
9.24
7.08
4.96
2.87
0.81
-1.23
-3.23
-5.18
-7.15
-9.31
-11.92
-15.26
-19.53
-24.71
-30.47
-36.09
-40.66
-43.21
-43.04
-39.94
-34.27
-26.93
-19.08
-11.74
-5.63
-0.93
2.55
5.23
7.54
9.72
11.81
13.68
15.23
16.38
17.15
17.64
17.99
18.28
18.57
18.80
18.94
18.95
18.80
18.51
18.10
17.57
16.86
15.87
14.52
12.71
10.42
7.66
4.57
1.36
-1.64
-3.93
-5.03
-4.46
-2.04
2.15
7.60
13.63
19.48
24.55
28.43
30.96
32.15
32.09
30.97
29.04
26.72
24.48
22.77
21.92
21.94
22.56
23.36
23.92
24.07
23.86
23.50
23.19
22.94
22.59
21.92
20.77
19.10
17.07
14.93
12.89
11.12
9.69
8.61
7.82
7.19
6.50
5.51
4.04
2.10
-0.13
-2.34
-4.29
-5.84
-7.06
-8.18
-9.45
-11.08
-13.14
-15.61
-18.37
-21.30
-24.23
-27.02
-29.61
-32.04
-34.57
-37.58
-41.43
-46.22
-51.60
-56.67
-60.19
-60.94
-58.18
-51.86
-42.77
-32.20
-21.61
-12.20
-4.69
0.81
4.56
7.09
8.93
10.45
11.91
13.39
14.87
16.30
17.57
18.61
19.35
19.78
20.02
20.16
20.30
20.46
20.51
20.31
19.71
18.69
17.31
15.66
13.82
11.82
9.64
7.32
4.88
2.39
-0.06
-2.47
-4.85
-7.23
-9.62
-12.08
-14.73
-17.75
-21.32
-25.47
-29.98
-34.24
-37.41
-38.62
-37.24
-33.11
-26.66
-18.74
-10.44
-2.77
3.60
8.47
12.03
14.71
16.89
18.83
20.53
21.86
22.67
22.91
22.68
22.17
21.57
21.09
20.85
20.85
21.03
21.19
21.11
20.58
19.56
18.13
16.50
14.84
13.23
11.61
9.82
7.69
5.16
2.29
-0.73
-3.72
-6.54
-9.12
-11.53
-13.89
-16.39
-19.24
-22.68
-26.87
-31.79
-37.04
-41.82
-45.07
-45.77
-43.27
-37.70
-29.84
-20.98
-12.41
-5.07
0.71
5.08
8.52
11.53
14.40
17.23
19.96
22.44
24.49
26.00
26.90
27.24
27.15
26.85
26.59
26.62
27.03
27.78
28.61
29.24
29.36
28.79
27.50
25.62
23.37
21.00
18.67
16.45
14.31
12.19
10.05
7.92
5.86
3.95
2.19
0.58
-0.96
-2.51
-4.03
-5.46
-6.59
-7.13
-6.74
-5.07
-1.77
3.25
9.76
17.17
24.52
30.75
34.90
36.51
35.69
33.08
29.66
26.39
24.00
22.72
22.43
22.72
23.16
23.31
22.83
21.41
18.75
14.64
9.02
2.11
-5.66
-13.68
-21.42
-28.54
-34.90
-40.47
-45.16
-48.78
-51.06
-51.85
-51.24
-49.63
-47.56
-45.44
-43.47
-41.48
-39.26
-36.76
-34.23
-32.25
-31.31
-31.68
-33.16
-35.28
-37.52
-39.52
-41.06
-41.96
-41.89
-40.42
-37.09
-31.78
-24.83
-17.03
-9.27
-2.21
3.97
9.52
14.85
20.14
25.21
29.51
32.37
33.33
32.31
29.67
26.09
22.32
19.06
16.76
15.63
15.57
16.30
17.41
18.54
19.52
20.34
21.18
22.24
23.64
25.31
27.01
28.43
29.28
29.42
28.79
27.41
25.36
22.75
19.84
17.02
14.66
13.06
12.16
11.59
10.67
8.71
5.25
0.29
-5.67
-11.75
-16.92
-20.31
-21.49
-20.51
-17.88
-14.33
-10.60
-7.21
-4.44
-2.35
-0.85
0.22
1.08
1.94
2.94
4.18
5.57
6.94
8.05
8.73
8.91
8.73
8.43
8.33
8.69
9.63
11.10
12.85
14.54
15.83
16.51
16.47
15.78
14.57
13.00
11.21
9.36
7.58
5.91
4.31
2.63
0.72
-1.48
-3.89
-6.35
-8.79
-11.22
-13.69
-16.03
-17.70
-17.77
-15.31
-9.93
-2.14
6.63
14.54
20.02
22.40
22.03
19.95
17.37
15.11
13.41
12.02
10.54
8.76
6.77
4.90
3.53
2.82
2.62
2.59
2.32
1.65
0.68
-0.25
-0.84
-0.94
-0.73
-0.55
-0.76
-1.54
-2.84
-4.39
-5.92
-7.20
-8.20
-9.03
-9.87
-10.89
-12.15
-13.57
-14.99
-16.18
-16.97
-17.36
-17.52
-17.79
-18.60
-20.19
-22.46
-24.86
-26.48
-26.48
-24.35
-20.25
-14.94
-9.58
-5.34
-3.06
-3.10
-5.36
-9.37
-14.48
-19.94
-25.02
-29.12
-31.81
-32.91
-32.46
-30.75
-28.17
-25.13
-21.88
-18.53
-14.95
-10.99
-6.58
-1.87
2.77
6.80
9.76
11.34
11.51
10.50
8.67
6.36
3.80
1.18
-1.39
-3.73
-5.53
-6.43
-6.09
-4.36
-1.33
2.64
7.06
11.48
15.54
18.97
21.61
23.32
24.04
23.78
22.71
21.19
19.67
18.65
18.45
19.15
20.54
22.24
23.87
25.16
26.03
26.51
26.62
26.27
25.34
23.75
21.59
19.13
16.74
14.68
13.00
11.52
10.04
8.45
6.80
5.26
3.99
3.01
2.22
1.43
0.55
-0.46
-1.52
-2.60
-3.76
-5.11
-6.80
-8.90
-11.32
-13.91
-16.43
-18.72
-20.70
-22.42
-23.98
-25.49
-27.00
-28.53
-30.01
-31.36
-32.51
-33.45
-34.31
-35.33
-36.83
-39.12
-42.33
-46.32
-50.68
-54.73
-57.74
-59.02
-58.06
-54.68
-49.05
-41.65
-33.24
-24.70
-16.78
-9.99
-4.47
-0.03
3.72
7.10
10.33
13.42
16.31
18.91
21.20
23.16
24.81
26.13
27.15
27.91
28.49
28.93
29.25
29.39
29.32
29.07
28.77
28.54
28.43
28.30
27.84
26.70
24.64
21.72
18.28
14.87
12.04
10.18
9.45
9.70
10.47
11.12
11.00
9.68
7.11
3.62
-0.26
-4.12
-7.91
-11.98
-16.92
-23.09
-30.36
-38.02
-44.96
-50.12
-52.76
-52.67
-50.09
-45.58
-39.78
-33.32
-26.75
-20.54
-15.08
-10.59
-7.10
-4.48
-2.47
-0.76
0.89
2.58
4.26
5.74
6.79
7.31
7.38
7.30
7.42
8.04
9.27
10.96
12.80
14.40
15.49
15.87
15.43
14.15
12.09
9.42
6.46
3.60
1.10
-0.93
-2.63
-4.25
-6.00
-7.95
-10.05
-12.18
-14.28
-16.38
-18.51
-20.71
-22.97
-25.30
-27.81
-30.71
-34.21
-38.27
-42.49
-46.05
-47.98
-47.41
-44.02
-38.09
-30.49
-22.40
-14.84
-8.47
-3.48
0.32
3.34
5.93
8.29
10.49
12.56
14.45
16.23
17.90
19.45
20.79
21.80
22.37
22.51
22.33
22.01
21.77
21.73
21.91
22.14
22.18
21.76
20.70
19.03
16.97
14.84
13.02
11.68
10.70
9.78
8.44
6.31
3.31
-0.31
-4.08
-7.52
-10.34
-12.63
-14.76
-17.20
-20.32
-24.25
-28.81
-33.52
-37.76
-40.83
-42.02
-40.92
-37.40
-31.82
-24.90
-17.58
-10.70
-4.85
-0.20
3.39
6.25
8.64
10.72
12.44
13.75
14.67
15.36
16.03
16.85
17.87
18.98
20.02
20.86
21.50
22.11
22.78
23.52
24.14
24.37
24.00
23.04
21.70
20.28
19.00
17.83
16.55
14.83
12.47
9.55
6.30
3.06
0.06
-2.61
-5.09
-7.50
-9.98
-12.58
-15.30
-18.15
-21.13
-24.10
-26.72
-28.49
-28.76
-27.09
-23.35
-17.83
-11.18
-4.23
2.29
7.85
12.25
15.60
18.24
20.61
23.06
25.80
28.82
31.91
34.75
37.10
38.80
39.82
40.20
39.99
39.23
37.95
36.26
34.26
32.03
29.58
26.82
23.55
19.61
14.96
9.67
3.98
-1.86
-7.62
-13.10
-18.11
-22.39
-25.55
-27.16
-26.87
-24.57
-20.52
-15.28
-9.58
-4.09
0.64
4.29
6.73
7.98
8.16
7.52
6.44
5.31
4.52
4.31
4.76
5.78
7.23
8.94
10.77
12.57
14.14
15.31
15.95
16.01
15.59
14.82
13.93
13.03
12.19
11.38
10.45
9.20
7.42
4.95
1.78
-1.80
-5.37
-8.36
-10.40
-11.42
-11.74
-11.91
-12.44
-13.62
-15.40
-17.56
-19.89
-22.36
-25.09
-28.18
-31.51
-34.73
-37.39
-39.22
-40.28
-40.99
-42.02
-43.94
-46.93
-50.71
-54.53
-57.36
-58.27
-56.67
-52.54
-46.36
-38.96
-31.26
-23.95
-17.42
-11.75
-6.86
-2.65
0.92
3.85
6.16
7.94
9.35
10.55
11.66
12.71
13.62
14.28
14.58
14.56
14.37
14.22
14.31
14.74
15.38
15.94
16.10
15.57
14.32
12.52
10.50
8.57
6.91
5.49
4.11
2.52
0.50
-1.98
-4.77
-7.65
-10.33
-12.67
-14.67
-16.60
-18.74
-21.39
-24.64
-28.25
-31.63
-34.02
-34.70
-33.21
-29.57
-24.25
-18.00
-11.63
-5.80
-0.90
2.94
5.80
7.90
9.55
11.02
12.62
14.47
16.58
18.75
20.70
22.13
22.91
23.15
23.17
23.38
24.09
25.40
27.12
28.87
30.17
30.62
30.03
28.37
25.83
22.65
19.05
15.16
11.10
6.92
2.71
-1.38
-5.24
-8.80
-12.14
-15.37
-18.70
-22.27
-26.17
-30.38
-34.72
-38.79
-42.00
-43.66
-43.15
-40.18
-34.95
-28.12
-20.58
-13.14
-6.34
-0.28
5.12
10.01
14.37
18.08
20.97
22.95
24.11
24.66
24.83
24.76
24.60
24.40
24.23
24.16
24.15
24.08
23.71
22.86
21.38
19.38
17.08
14.70
12.41
10.26
8.20
6.18
4.23
2.33
0.49
-1.34
-3.21
-5.08
-6.90
-8.61
-10.33
-12.44
-15.47
-19.74
-25.18
-31.04
-36.15
-39.27
-39.62
-37.18
-32.61
-26.95
-21.24
-16.12
-11.84
-8.37
-5.51
-3.12
-1.05
0.87
2.75
4.66
6.53
8.13
9.19
9.54
9.22
8.49
7.77
7.43
7.60
8.21
8.97
9.57
9.76
9.48
8.77
7.74
6.52
5.21
3.87
2.48
1.02
-0.55
-2.26
-4.09
-5.96
-7.76
-9.41
-10.94
-12.59
-14.67
-17.48
-21.14
-25.45
-29.84
-33.54
-35.76
-35.95
-33.99
-30.20
-25.17
-19.61
-14.08
-8.92
-4.25
-0.01
3.86
7.39
10.53
13.21
15.40
17.12
18.47
19.62
20.65
21.60
22.35
22.75
22.69
22.11
21.09
19.83
18.51
17.28
16.19
15.18
14.15
12.93
11.42
9.53
7.36
5.17
3.32
2.21
2.17
3.38
5.81
9.31
13.57
18.18
22.71
26.70
29.84
31.92
32.90
32.90
32.11
30.81
29.26
27.74
26.51
25.86
25.93
26.81
28.37
30.40
32.61
34.70
36.44
37.63
38.22
38.25
37.76
36.84
35.53
33.91
32.09
30.26
28.50
26.85
25.17
23.27
21.07
18.64
16.20
13.95
11.95
10.00
7.81
5.17
2.12
-1.05
-4.00
-6.54
-8.84
-11.27
-14.27
-18.05
-22.53
-27.30
-31.85
-35.72
-38.70
-40.84
-42.46
-44.09
-46.26
-49.34
-53.44
-58.31
-63.38
-67.86
-70.95
-71.95
-70.44
-66.35
-59.98
-51.98
-43.23
-34.63
-26.95
-20.63
-15.75
-12.03
-9.03
-6.28
-3.40
-0.25
3.12
6.48
9.57
12.14
14.07
15.39
16.18
16.62
16.83
16.98
17.19
17.54
18.02
18.49
18.70
18.45
17.70
16.53
15.17
13.90
12.84
11.98
11.13
10.08
8.57
6.53
3.97
1.12
-1.78
-4.47
-6.89
-9.21
-11.78
-15.05
-19.23
-24.17
-29.28
-33.70
-36.52
-37.02
-34.94
-30.44
-24.15
-16.94
-9.75
-3.32
1.91
5.89
8.81
11.04
12.81
14.32
15.62
16.61
17.21
17.28
16.80
15.84
14.65
13.54
12.82
12.63
12.88
13.33
13.70
13.77
13.53
13.06
12.45
11.76
10.92
9.85
8.47
6.76
4.76
2.50
0.00
-2.65
-5.36
-7.99
-10.42
-12.67
-14.92
-17.49
-20.72
-24.77
-29.50
-34.35
-38.51
-41.06
-41.29
-38.89
-34.09
-27.57
-20.31
-13.28
-7.28
-2.61
0.77
3.23
5.17
6.88
8.42
9.69
10.55
10.93
10.93
10.71
10.48
10.40
10.55
10.99
11.67
12.53
13.45
14.28
14.82
14.89
14.38
13.31
11.75
9.82
7.59
5.00
1.97
-1.60
-5.68
-10.08
-14.51
-18.61
-22.17
-25.13
-27.64
-30.02
-32.64
-35.84
-39.69
-43.99
-48.13
-51.22
-52.33
-50.80
-46.48
-39.89
-32.00
-23.97
-16.78
-10.91
-6.40
-2.82
0.41
3.78
7.63
12.08
16.98
22.08
27.06
31.56
35.27
37.96
39.57
40.30
40.52
40.68
41.12
41.94
42.96
43.83
44.18
43.77
42.60
40.82
38.62
36.22
33.71
31.09
28.32
25.25
21.71
17.62
13.00
8.08
3.22
-1.17
-4.82
-7.68
-9.99
-12.21
-14.90
-18.48
-23.08
-28.36
-33.52
-37.57
-39.66
-39.40
-36.99
-33.17
-28.81
-24.63
-20.96
-17.73
-14.70
-11.60
-8.26
-4.73
-1.15
2.24
5.14
7.29
8.54
8.91
8.60
7.94
7.25
6.72
6.45
6.46
6.73
7.24
7.87
8.43
8.69
8.37
7.36
5.69
3.51
1.00
-1.68
-4.42
-7.03
-9.19
-10.40
-10.16
-8.09
-4.14
1.38
7.84
14.43
20.43
25.22
28.50
30.18
30.40
29.50
27.87
26.02
24.44
23.56
23.64
24.70
26.50
28.59
30.46
31.72
32.26
32.21
31.84
31.36
30.80
30.07
28.99
27.51
25.75
24.02
22.62
21.71
21.26
21.03
20.72
20.01
18.80
17.13
15.22
13.35
11.75
10.54
9.67
9.03
8.44
7.83
7.23
6.76
6.52
6.49
6.48
6.17
5.25
3.52
0.99
-2.16
-5.66
-9.19
-12.55
-15.66
-18.62
-21.60
-24.86
-28.64
-33.06
-38.04
-43.26
-48.09
-51.70
-53.27
-52.22
-48.45
-42.46
-35.16
-27.63
-20.78
-15.13
-10.73
-7.37
-4.72
-2.50
-0.53
1.27
2.90
4.36
5.62
6.65
7.46
8.13
8.71
9.26
9.77
10.13
10.27
10.23
10.19
10.47
11.22
12.34
13.35
13.67
12.76
10.46
7.03
2.96
-1.23
-5.28
-9.19
-13.11
-17.06
-20.93
-24.45
-27.36
-29.70
-31.75
-33.98
-36.82
-40.40
-44.48
-48.40
-51.24
-52.07
-50.29
-45.77
-38.96
-30.82
-22.42
-14.69
-8.14
-2.80
1.58
5.36
8.75
11.74
14.24
16.14
17.44
18.18
18.48
18.38
17.89
17.06
15.99
14.87
13.91
13.31
13.09
13.15
13.25
13.12
12.54
11.43
9.84
7.96
6.02
4.19
2.54
1.01
-0.56
-2.34
-4.42
-6.81
-9.39
-11.99
-14.43
-16.58
-18.51
-20.49
-22.89
-26.17
-30.57
-35.94
-41.60
-46.42
-49.16
-48.74
-44.80
-37.74
-28.62
-18.84
-9.60
-1.63
4.96
10.50
15.46
20.26
25.11
29.94
34.61
38.97
42.98
46.69
50.24
53.77
57.33
60.88
64.20
67.14
69.52
71.35
72.66
73.48
73.74
73.19
71.56
68.67
64.62
59.78
54.69
49.80
45.32
41.08
36.67
31.67
25.85
19.28
12.24
5.00
-2.33
-9.86
-17.84
-26.53
-35.94
-45.83
-55.70
-64.90
-72.67
-78.29
-81.15
-80.95
-77.76
-72.16
-65.13
-57.73
-50.80
-44.72
-39.43
-34.56
-29.78
-25.02
-20.38
-16.08
-12.23
-8.80
-5.69
-2.84
-0.29
1.86
3.58
5.01
6.40
8.04
10.00
12.12
13.98
15.09
15.13
14.05
12.13
9.84
7.64
5.83
4.40
3.17
1.82
0.17
-1.82
-4.00
-6.12
-8.02
-9.63
-11.08
-12.58
-14.38
-16.70
-19.69
-23.38
-27.56
-31.82
-35.45
-37.59
-37.45
-34.53
-28.82
-20.81
-11.43
-1.66
7.68
16.14
23.67
30.48
36.82
42.90
48.79
54.49
60.02
65.39
70.58
75.50
79.82
83.04
84.53
83.74
80.35
74.44
66.44
57.02
46.92
36.72
26.84
17.46
8.67
0.51
-6.94
-13.65
-19.62
-24.97
-29.86
-34.40
-38.55
-42.05
-44.47
-45.25
-43.92
-40.28
-34.57
-27.47
-20.05
-13.44
-8.53
-5.74
-4.96
-5.68
-7.18
-8.79
-10.01
-10.50
-10.14
-8.96
-7.07
-4.64
-1.95
0.74
3.15
5.06
6.37
7.09
7.38
7.45
7.50
7.65
7.81
7.84
7.54
6.84
5.74
4.37
2.86
1.35
-0.09
-1.39
-2.47
-3.32
-3.98
-4.56
-5.26
-6.21
-7.45
-8.98
-10.67
-12.46
-14.44
-16.70
-19.32
-22.24
-25.20
-27.94
-30.30
-32.43
-34.79
-37.97
-42.39
-48.08
-54.51
-60.74
-65.67
-68.34
-68.14
-64.97
-59.20
-51.53
-42.79
-33.73
-24.96
-16.86
-9.67
-3.48
1.68
5.89
9.37
12.41
15.29
18.19
21.10
23.75
25.71
26.41
25.29
22.15
17.35
12.18
8.68
9.15
15.22
27.00
42.72
59.20
72.83
80.89
82.22
77.39
68.05
56.15
43.31
30.59
18.63
7.77
-1.74
-9.78
-16.40
-21.80
-26.33
-30.37
-34.30
-38.45
-43.00
-47.99
-53.32
-58.65
-63.57
-67.54
-69.95
-70.17
-67.67
-62.18
-53.83
-43.20
-31.23
-19.00
-7.46
2.76
11.39
18.43
23.98
28.19
31.14
32.97
33.83
34.03
33.95
34.02
34.59
35.83
37.62
39.55
41.12
41.88
41.62
40.46
38.76
36.87
35.02
33.16
31.09
28.61
25.63
22.19
18.44
14.40
10.10
5.61
1.23
-2.50
-5.00
-5.94
-5.50
-4.53
-4.19
-5.64
-9.56
-15.99
-24.32
-33.57
-42.60
-50.26
-55.57
-57.76
-56.44
-51.71
-44.29
-35.32
-26.16
-17.95
-11.31
-6.23
-2.20
1.38
4.93
8.47
11.71
14.25
15.89
16.70
17.02
17.23
17.57
18.15
18.94
19.84
20.79
21.69
22.35
22.61
22.28
21.29
19.74
17.82
15.74
13.64
11.51
9.25
6.75
3.92
0.80
-2.54
-5.97
-9.34
-12.50
-15.37
-17.91
-20.27
-22.72
-25.67
-29.51
-34.34
-39.87
-45.20
-49.16
-50.52
-48.55
-43.27
-35.50
-26.56
-17.82
-10.19
-4.02
0.89
5.03
8.82
12.46
15.92
19.02
21.61
23.63
25.13
26.20
26.92
27.37
27.58
27.64
27.67
27.79
28.10
28.52
28.86
28.79
27.98
26.25
23.67
20.50
17.10
13.80
10.72
7.79
4.77
1.43
-2.27
-6.20
-10.00
-13.31
-15.90
-17.85
-19.56
-21.65
-24.72
-29.05
-34.45
-40.21
-45.28
-48.51
-49.05
-46.56
-41.34
-34.19
-26.14
-18.22
-11.15
-5.25
-0.42
3.68
7.50
11.39
15.44
19.51
23.23
26.22
28.23
29.30
29.66
29.70
29.71
29.77
29.80
29.64
29.13
28.28
27.16
25.87
24.43
22.72
20.58
17.87
14.59
10.87
7.00
3.30
0.17
-1.96
-2.69
-1.64
1.35
6.10
12.09
18.55
24.63
29.64
33.11
34.85
34.93
33.53
30.99
27.77
24.46
21.68
19.91
19.39
19.94
21.21
22.72
24.13
25.26
26.12
26.78
27.30
27.63
27.74
27.59
27.20
26.66
26.08
25.57
25.19
24.93
24.75
24.59
24.42
24.25
24.12
24.13
24.34
24.71
25.14
25.50
25.65
25.52
25.11
24.47
23.67
22.73
21.57
19.98
17.75
14.61
10.47
5.43
-0.19
-6.00
-11.67
-17.15
-22.58
-28.32
-34.75
-42.08
-50.27
-58.97
-67.53
-75.07
-80.63
-83.35
-82.71
-78.74
-72.05
-63.71
-54.92
-46.63
-39.38
-33.30
-28.24
-23.96
-20.28
-17.05
-14.10
-11.22
-8.23
-5.04
-1.77
1.32
3.94
5.88
7.15
8.03
8.86
9.97
11.51
13.37
15.25
16.73
17.45
17.21
16.05
14.19
12.01
9.85
7.92
6.24
4.67
2.97
0.96
-1.40
-4.00
-6.74
-9.46
-12.08
-14.59
-17.04
-19.47
-22.07
-25.02
-28.49
-32.42
-36.34
-39.41
-40.56
-38.89
-34.07
-26.52
-17.25
-7.53
1.44
8.91
14.58
18.53
21.01
22.34
22.87
22.88
22.61
22.21
21.67
20.86
19.60
17.78
15.42
12.80
10.30
8.38
7.27
6.99
7.29
7.80
8.14
8.04
7.44
6.34
4.80
2.84
0.52
-2.08
-4.77
-7.33
-9.64
-11.68
-13.62
-15.66
-18.01
-20.74
-23.82
-27.21
-30.92
-35.05
-39.61
-44.40
-48.80
-51.87
-52.64
-50.45
-45.28
-37.82
-29.18
-20.55
-12.79
-6.26
-0.95
3.37
6.91
9.76
12.06
13.99
15.86
17.96
20.41
23.04
25.45
27.22
28.12
28.29
28.15
28.21
28.78
29.87
31.15
32.14
32.42
31.82
30.46
28.62
26.61
24.64
22.73
20.74
18.47
15.71
12.39
8.56
4.40
0.19
-3.83
-7.51
-10.92
-14.35
-18.24
-22.99
-28.73
-35.09
-41.23
-46.10
-48.70
-48.54
-45.79
-41.20
-35.79
-30.48
-25.73
-21.50
-17.41
-13.07
-8.30
-3.25
1.77
6.45
10.65
14.36
17.64
20.44
22.56
23.75
23.76
22.51
20.20
17.24
14.18
11.65
10.15
9.95
10.91
12.56
14.16
15.03
14.74
13.25
10.89
7.99
4.85
1.48
-2.22
-6.26
-10.47
-14.44
-17.70
-19.98
-21.35
-22.28
-23.43
-25.46
-28.73
-33.22
-38.50
-43.82
-48.28
-51.07
-51.52
-49.39
-44.90
-38.70
-31.72
-24.92
-19.08
-14.58
-11.37
-9.07
-7.16
-5.26
-3.21
-1.09
0.80
2.23
3.13
3.67
4.23
5.17
6.69
8.70
10.95
13.13
15.04
16.66
18.07
19.33
20.36
20.96
20.80
19.64
17.42
14.30
10.63
6.88
3.57
1.15
-0.02
0.32
2.30
5.90
10.94
17.03
23.59
29.97
35.47
39.49
41.60
41.64
39.77
36.53
32.72
29.21
26.75
25.71
26.08
27.45
29.31
31.20
32.79
33.95
34.56
34.52
33.72
32.12
29.83
27.04
24.03
21.04
18.21
15.59
13.19
11.00
9.03
7.33
5.92
4.80
3.94
3.27
2.68
2.05
1.23
0.13
-1.29
-2.98
-4.89
-7.00
-9.32
-11.92
-14.85
-18.09
-21.52
-25.00
-28.36
-31.49
-34.36
-37.02
-39.63
-42.49
-45.98
-50.45
-56.03
-62.43
-68.86
-74.16
-77.05
-76.54
-72.22
-64.37
-53.88
-41.98
-29.85
-18.46
-8.41
-0.01
6.63
11.50
14.71
16.52
17.30
17.53
17.60
17.75
17.98
18.12
18.02
17.69
17.34
17.26
17.65
18.55
19.69
20.69
21.18
20.96
20.07
18.72
17.15
15.60
14.13
12.72
11.25
9.54
7.46
4.91
2.00
-1.11
-4.17
-6.98
-9.45
-11.71
-14.06
-16.86
-20.40
-24.73
-29.47
-33.91
-37.06
-37.96
-35.87
-30.61
-22.60
-12.84
-2.67
6.62
14.12
19.58
23.40
26.48
29.75
33.72
38.32
42.82
46.26
47.83
47.26
44.87
41.33
37.39
33.55
30.07
26.94
24.12
21.61
19.45
17.64
16.06
14.48
12.60
10.22
7.32
4.07
0.79
-2.21
-4.80
-7.08
-9.33
-11.87
-14.83
-18.13
-21.48
-24.54
-27.14
-29.36
-31.55
-34.16
-37.55
-41.79
-46.55
-51.03
-54.22
-55.14
-53.12
-48.07
-40.53
-31.53
-22.25
-13.64
-6.27
-0.18
4.86
9.21
13.15
16.79
20.11
23.09
25.72
28.03
30.08
31.79
33.06
33.78
33.97
33.83
33.69
33.89
34.58
35.60
36.60
37.14
36.96
36.12
34.94
33.89
33.30
33.16
33.13
32.67
31.31
28.90
25.70
22.22
19.00
16.39
14.34
12.52
10.44
7.67
3.99
-0.51
-5.44
-10.19
-14.03
-16.30
-16.56
-14.72
-11.05
-6.19
-0.81
4.41
9.03
12.87
16.01
18.71
21.30
23.99
26.81
29.65
32.26
34.38
35.70
35.98
35.01
32.62
28.90
24.16
18.97
13.94
9.49
5.62
1.96
-2.06
-6.91
-12.74
-19.25
-25.85
-31.90
-36.91
-40.72
-43.53
-45.74
-47.73
-49.74
-51.74
-53.53
-54.93
-55.89
-56.63
-57.58
-59.19
-61.80
-65.43
-69.76
-74.11
-77.55
-79.16
-78.19
-74.32
-67.81
-59.39
-50.04
-40.70
-32.06
-24.41
-17.75
-11.89
-6.72
-2.16
1.82
5.23
8.15
10.66
12.87
14.83
16.51
17.88
18.89
19.57
19.94
20.12
20.17
20.14
20.04
19.83
19.40
18.58
17.21
15.17
12.38
8.93
5.05
1.13
-2.31
-4.70
-5.60
-4.76
-2.21
1.74
6.54
11.58
16.30
20.29
23.27
25.07
25.65
25.03
23.35
20.89
18.09
15.49
13.57
12.67
12.85
13.89
15.40
16.97
18.33
19.41
20.34
21.25
22.16
22.99
23.51
23.52
22.95
21.88
20.52
19.09
17.67
16.27
14.76
13.06
11.13
9.07
6.97
4.87
2.70
0.41
-2.01
-4.42
-6.59
-8.35
-9.70
-10.93
-12.52
-14.84
-17.99
-21.64
-25.23
-28.21
-30.37
-31.92
-33.44
-35.62
-38.95
-43.51
-48.94
-54.44
-58.93
-61.26
-60.51
-56.19
-48.48
-38.14
-26.42
-14.68
-3.99
5.12
12.67
19.06
24.60
29.29
32.76
34.56
34.41
32.53
29.52
26.12
22.92
20.13
17.66
15.38
13.29
11.57
10.50
10.21
10.60
11.28
11.75
11.59
10.57
8.74
6.40
3.98
1.93
0.53
-0.24
-0.69
-1.26
-2.33
-4.04
-6.22
-8.51
-10.54
-12.18
-13.59
-15.14
-17.28
-20.37
-24.46
-29.37
-34.60
-39.40
-42.87
-44.21
-42.84
-38.64
-31.99
-23.69
-14.71
-5.89
2.20
9.33
15.50
20.79
25.29
29.09
32.35
35.27
38.06
40.92
43.81
46.60
49.03
50.90
52.12
52.84
53.28
53.65
54.03
54.28
54.15
53.32
51.61
49.00
45.63
41.75
37.59
33.31
28.96
24.59
20.21
15.89
11.71
7.70
3.91
0.31
-3.21
-6.84
-10.81
-15.36
-20.55
-26.25
-31.92
-36.73
-39.71
-40.01
-37.23
-31.52
-23.63
-14.61
-5.63
2.59
9.70
15.83
21.23
26.10
30.39
33.90
36.40
37.75
38.01
37.40
36.14
34.41
32.32
29.91
27.31
24.68
22.22
20.02
18.02
15.94
13.43
10.16
6.08
1.43
-3.32
-7.77
-11.69
-15.16
-18.49
-21.98
-25.81
-30.00
-34.41
-38.98
-43.66
-48.51
-53.56
-58.75
-63.94
-69.04
-73.95
-78.66
-83.11
-87.05
-89.97
-91.08
-89.64
-85.17
-77.77
-68.15
-57.40
-46.68
-36.82
-28.20
-20.81
-14.38
-8.69
-3.68
0.68
4.32
7.26
9.57
11.31
12.50
13.21
13.51
13.60
13.73
14.18
15.09
16.47
18.12
19.68
20.76
21.06
20.47
19.08
17.18
15.06
12.89
10.65
8.13
5.15
1.65
-2.23
-6.14
-9.67
-12.62
-15.04
-17.33
-19.99
-23.47
-27.96
-33.29
-38.86
-43.80
-47.11
-47.91
-45.74
-40.70
-33.45
-25.04
-16.55
-8.83
-2.27
3.12
7.55
11.22
14.16
16.29
17.56
18.00
17.81
17.28
16.72
16.37
16.31
16.53
16.96
17.55
18.28
19.18
20.32
21.65
23.04
24.09
24.31
23.21
20.50
16.26
10.87
5.02
-0.57
-5.23
-8.40
-9.69
-8.84
-5.74
-0.54
6.28
13.93
21.40
27.76
32.34
34.85
35.38
34.29
32.11
29.40
26.70
24.47
23.04
22.53
22.82
23.64
24.59
25.32
25.59
25.34
24.59
23.43
21.97
20.26
18.31
16.15
13.82
11.46
9.34
7.70
6.70
6.31
6.30
6.35
6.22
5.83
5.26
4.70
4.25
3.93
3.61
3.13
2.37
1.24
-0.36
-2.45
-5.07
-8.17
-11.62
-15.29
-19.12
-23.22
-27.87
-33.39
-40.11
-48.17
-57.41
-67.29
-76.77
-84.55
-89.17
-89.53
-85.20
-76.60
-64.95
-51.89
-39.02
-27.50
-17.90
-10.20
-4.05
1.06
5.61
9.92
14.10
18.10
21.79
24.94
27.40
29.07
30.02
30.40
30.50
30.59
30.91
31.55
32.39
33.16
33.56
33.31
32.34
30.71
28.58
26.12
23.41
20.39
17.05
13.31
9.26
5.03
0.84
-3.15
-6.90
-10.48
-14.10
-17.99
-22.36
-27.30
-32.81
-38.55
-43.90
-47.92
-49.56
-48.01
-42.97
-34.90
-24.88
-14.37
-4.67
3.34
9.39
13.74
16.91
19.44
21.73
23.99
26.20
28.28
30.12
31.60
32.67
33.27
33.41
33.13
32.58
31.92
31.30
30.82
30.43
30.02
29.44
28.60
27.42
25.88
23.96
21.61
18.82
15.59
12.07
8.40
4.74
1.19
-2.27
-5.68
-9.12
-12.75
-16.78
-21.50
-27.18
-33.84
-41.08
-47.96
-53.20
-55.56
-54.28
-49.32
-41.37
-31.61
-21.34
-11.62
-3.16
3.75
9.13
13.24
16.47
19.22
21.81
24.36
26.79
28.88
30.45
31.44
31.95
32.14
32.20
32.23
32.20
32.06
31.67
30.82
29.36
27.17
24.29
20.87
17.18
13.48
9.88
6.37
2.83
-0.87
-4.73
-8.68
-12.54
-16.20
-19.67
-23.08
-26.62
-30.49
-34.78
-39.54
-44.58
-49.54
-53.75
-56.34
-56.40
-53.35
-47.26
-38.84
-29.47
-20.59
-13.31
-8.03
-4.46
-1.88
0.45
2.89
5.42
7.68
9.36
10.34
10.84
11.23
11.86
12.91
14.29
15.77
17.13
18.30
19.27
20.09
20.70
20.94
20.62
19.56
17.80
15.44
12.63
9.48
5.98
2.15
-1.95
-6.12
-10.11
-13.73
-16.93
-19.84
-22.81
-26.30
-30.78
-36.49
-43.21
-50.12
-55.89
-59.05
-58.43
-53.68
-45.38
-34.88
-23.77
-13.41
-4.56
2.69
8.68
13.89
18.74
23.39
27.83
31.96
35.63
38.73
41.15
42.76
43.45
43.26
42.38
41.22
40.34
40.19
41.02
42.76
45.05
47.41
49.35
50.49
50.53
49.35
46.92
43.48
39.49
35.57
32.41
30.53
30.26
31.67
34.65
38.96
44.26
50.10
55.85
60.75
64.10
65.33
64.27
61.20
56.78
51.91
47.48
44.09
41.96
40.83
40.13
39.24
37.79
35.76
33.50
31.44
29.86
28.71
27.67
26.34
24.46
22.03
19.17
16.03
12.61
8.85
4.77
0.56
-3.42
-6.80
-9.41
-11.45
-13.40
-15.83
-19.20
-23.60
-28.82
-34.43
-39.94
-44.97
-49.30
-52.85
-55.71
-58.08
-60.25
-62.53
-65.10
-67.93
-70.85
-73.60
-76.04
-78.31
-80.81
-84.02
-88.26
-93.39
-98.72
-103.13
-105.34
-104.27
-99.34
-90.68
-79.05
-65.73
-52.13
-39.49
-28.60
-19.63
-12.35
-6.22
-0.73
4.44
9.38
14.03
18.22
21.78
24.61
26.67
28.04
28.92
29.62
30.45
31.64
33.24
35.13
37.00
38.45
39.12
38.76
37.35
35.03
32.14
29.04
26.07
23.37
20.88
18.43
15.79
12.86
9.67
6.40
3.25
0.38
-2.18
-4.58
-7.09
-10.05
-13.73
-18.21
-23.18
-27.92
-31.41
-32.59
-30.71
-25.59
-17.78
-8.36
1.27
9.86
16.63
21.41
24.58
26.76
28.56
30.28
31.87
33.00
33.40
32.99
31.96
30.71
29.67
29.05
28.83
28.75
28.55
27.98
26.95
25.45
23.51
21.15
18.33
15.10
11.56
7.87
4.23
0.75
-2.59
-5.91
-9.36
-13.02
-16.86
-20.76
-24.61
-28.39
-32.24
-36.44
-41.29
-46.94
-53.25
-59.63
-65.14
-68.60
-68.86
-65.19
-57.59
-46.91
-34.60
-22.38
-11.62
-3.00
3.54
8.57
12.76
16.56
20.03
22.97
25.15
26.49
27.15
27.35
27.32
27.16
26.88
26.48
26.08
25.90
26.10
26.70
27.44
27.85
27.41
25.85
23.20
19.76
16.00
12.27
8.62
4.89
0.82
-3.78
-8.81
-13.97
-18.86
-23.17
-26.83
-30.09
-33.41
-37.31
-42.27
-48.41
-55.44
-62.56
-68.60
-72.21
-72.36
-68.58
-61.23
-51.42
-40.63
-30.28
-21.28
-13.94
-7.97
-2.88
1.80
6.27
10.49
14.34
17.70
20.51
22.81
24.63
25.97
26.87
27.38
27.64
27.84
28.16
28.71
29.44
30.15
30.54
30.29
29.19
27.22
24.58
21.58
18.58
15.74
13.09
10.43
7.50
4.12
0.31
-3.73
-7.67
-11.18
-14.11
-16.54
-18.79
-21.32
-24.67
-29.26
-35.24
-42.39
-49.95
-56.70
-61.23
-62.25
-59.09
-51.98
-42.02
-30.80
-19.95
-10.52
-2.86
3.32
8.62
13.53
18.27
22.74
26.67
29.84
32.18
33.80
34.89
35.64
36.20
36.59
36.80
36.80
36.57
36.15
35.57
34.91
34.16
33.26
32.08
30.43
28.17
25.15
21.38
16.98
12.27
7.81
4.32
2.56
3.10
6.17
11.51
18.44
26.07
33.58
40.32
45.87
50.02
52.64
53.70
53.41
52.17
50.61
49.36
48.86
49.21
50.17
51.36
52.42
53.18
53.61
53.79
53.60
52.82
51.08
48.07
43.71
38.24
32.17
26.07
20.32
14.97
9.81
4.48
-1.21
-7.19
-13.15
-18.67
-23.45
-27.39
-30.60
-33.24
-35.43
-37.20
-38.53
-39.52
-40.31
-41.16
-42.29
-43.87
-45.92
-48.36
-51.05
-53.79
-56.38
-58.66
-60.59
-62.23
-63.82
-65.59
-67.69
-70.08
-72.58
-75.02
-77.41
-79.96
-82.92
-86.38
-89.95
-92.71
-93.43
-90.98
-84.75
-74.95
-62.57
-48.90
-35.25
-22.47
-10.88
-0.40
9.21
18.12
26.40
34.01
40.93
47.15
52.73
57.70
62.14
66.08
69.64
72.98
76.22
79.51
82.90
86.25
89.26
91.28
91.56
89.32
84.20
76.39
66.73
56.43
46.66
38.19
31.18
25.34
20.14
15.20
10.32
5.48
0.66
-4.22
-9.35
-14.98
-21.22
-28.09
-35.41
-42.96
-50.41
-57.35
-63.28
-67.60
-69.78
-69.54
-67.00
-62.64
-57.18
-51.29
-45.43
-39.81
-34.45
-29.38
-24.62
-20.29
-16.42
-12.97
-9.83
-6.92
-4.29
-2.06
-0.35
0.84
1.69
2.44
3.41
4.72
6.31
7.93
9.20
9.80
9.56
8.52
6.85
4.78
2.50
0.06
-2.58
-5.51
-8.78
-12.35
-16.13
-19.90
-23.49
-26.85
-29.97
-33.03
-36.24
-39.91
-44.29
-49.43
-55.15
-60.82
-65.57
-68.38
-68.40
-65.27
-59.25
-51.14
-42.08
-33.17
-25.10
-18.16
-12.20
-6.94
-2.09
2.41
6.52
10.07
12.96
15.17
16.71
17.62
17.95
17.73
17.01
15.89
14.58
13.25
11.99
10.78
9.43
7.70
5.38
2.32
-1.50
-5.98
-10.97
-16.28
-21.80
-27.52
-33.55
-40.09
-47.29
-55.27
-63.93
-73.17
-82.85
-92.86
-103.19
-113.93
-125.25
-137.46
-150.99
-166.26
-183.42
-202.09
-221.20
-239.16
-254.29
-265.35
-271.86
-274.11
-272.82
-268.57
-261.43
-250.80
-235.72
-215.21
-188.65
-156.03
-117.80
-74.91
-28.67
19.24
66.81
111.78
151.92
185.39
211.05
228.63
238.73
242.55
241.58
237.16
230.34
221.77
211.82
200.88
189.52
178.56
168.84
160.95
155.01
150.59
146.87
142.96
138.16
132.12
124.90
116.87
108.59
100.57
93.16
86.40
79.96
73.27
65.73
56.85
46.52
35.08
23.38
12.63
4.21
-0.71
-1.55
1.44
7.18
14.06
20.54
25.54
28.84
30.93
32.67
34.82
37.76
41.36
45.25
48.98
52.27
55.00
57.19
58.83
59.85
60.13
59.52
58.04
55.86
53.28
50.67
48.31
46.25
44.28
42.05
39.14
35.31
30.56
25.14
19.48
14.01
9.13
5.17
2.43
1.23
1.79
4.17
8.14
13.20
18.60
23.58
27.51
29.93
30.64
29.68
27.34
24.14
20.73
17.75
15.59
14.35
13.89
13.97
14.41
15.15
16.23
17.63
19.18
20.62
21.63
22.01
21.76
21.02
20.03
18.97
17.96
16.96
15.85
14.51
12.89
11.04
9.09
7.15
5.25
3.33
1.24
-1.15
-3.87
-6.79
-9.70
-12.32
-14.53
-16.38
-18.15
-20.16
-22.70
-25.83
-29.37
-33.02
-36.48
-39.61
-42.53
-45.50
-48.85
-52.87
-57.77
-63.59
-70.20
-77.08
-83.35
-87.78
-89.11
-86.45
-79.63
-69.32
-56.85
-43.79
-31.50
-20.77
-11.86
-4.57
1.43
6.48
10.77
14.44
17.58
20.28
22.59
24.50
26.00
27.08
27.81
28.39
29.05
29.96
31.12
32.35
33.37
33.86
33.59
32.50
30.67
28.33
25.78
23.23
20.80
18.42
15.89
13.01
9.69
6.01
2.23
-1.42
-4.79
-7.95
-11.13
-14.72
-19.01
-24.21
-30.32
-37.06
-43.88
-49.98
-54.41
-56.31
-55.19
-51.08
-44.59
-36.75
-28.71
-21.38
-15.29
-10.50
-6.75
-3.67
-0.93
1.61
4.01
6.28
8.43
10.46
12.36
14.09
15.57
16.84
18.04
19.46
21.34
23.74
26.44
28.96
30.73
31.34
30.71
29.11
27.10
25.28
24.04
23.49
23.37
23.22
22.56
21.12
18.88
16.07
13.00
9.80
6.41
2.51
-2.26
-8.16
-15.14
-22.80
-30.43
-37.01
-41.51
-43.07
-41.31
-36.42
-29.17
-20.61
-11.82
-3.61
3.60
9.68
14.74
18.98
22.62
25.87
28.84
31.50
33.65
34.99
35.27
34.45
32.81
30.77
28.81
27.24
26.13
25.37
24.77
24.15
23.34
22.26
20.79
18.89
16.47
13.56
10.19
6.48
2.58
-1.38
-5.30
-9.15
-12.90
-16.61
-20.32
-24.16
-28.27
-32.81
-37.88
-43.49
-49.37
-54.98
-59.48
-61.90
-61.39
-57.53
-50.51
-41.15
-30.70
-20.48
-11.46
-4.02
2.00
7.10
11.74
16.16
20.29
23.86
26.67
28.63
29.82
30.47
30.76
30.84
30.71
30.34
29.59
28.36
26.54
24.07
20.98
17.31
13.15
8.57
3.65
-1.55
-6.85
-12.07
-16.99
-21.39
-25.19
-28.44
-31.31
-34.06
-37.01
-40.45
-44.72
-50.06
-56.55
-63.97
-71.63
-78.42
-82.99
-84.21
-81.40
-74.73
-65.11
-53.96
-42.74
-32.54
-23.83
-16.47
-9.99
-3.87
2.11
7.81
12.86
16.89
19.78
21.72
23.12
24.35
25.59
26.72
27.46
27.58
27.08
26.25
25.57
25.31
25.46
25.61
25.09
23.30
19.90
14.94
8.90
2.50
-3.37
-7.87
-10.24
-10.02
-7.13
-1.97
4.63
11.68
18.25
23.77
28.05
31.14
33.15
34.11
33.99
32.85
30.97
28.90
27.32
26.80
27.51
29.18
31.22
32.98
34.02
34.24
33.84
33.13
32.32
31.47
30.52
29.35
27.95
26.42
24.94
23.68
22.74
22.11
21.65
21.15
20.31
18.82
16.50
13.33
9.46
5.20
0.76
-3.78
-8.54
-13.76
-19.66
-26.22
-33.14
-39.96
-46.29
-52.03
-57.54
-63.42
-70.30
-78.54
-88.15
-98.81
-109.98
-120.97
-130.87
-138.50
-142.52
-141.77
-135.73
-124.92
-110.91
-95.90
-82.02
-70.78
-62.70
-57.48
-54.41
-52.82
-52.34
-52.80
-54.03
-55.63
-56.96
-57.26
-55.96
-52.93
-48.59
-43.70
-39.11
-35.46
-32.97
-31.49
-30.55
-29.62
-28.30
-26.41
-24.11
-21.78
-19.98
-19.27
-20.08
-22.56
-26.53
-31.53
-36.87
-41.94
-46.30
-49.99
-53.53
-57.91
-64.24
-73.24
-84.58
-96.47
-105.85
-109.18
-103.73
-88.65
-65.36
-37.02
-7.37
20.53
44.98
65.54
82.48
96.10
106.51
113.74
118.05
120.06
120.51
120.00
118.71
116.40
112.70
107.43
100.88
93.73
86.90
81.26
77.24
74.77
73.22
71.63
68.97
64.47
57.91
49.63
40.46
31.40
23.26
16.42
10.70
5.52
0.14
-6.12
-13.65
-22.49
-32.37
-42.63
-52.29
-60.02
-64.40
-64.29
-59.29
-49.89
-37.47
-23.78
-10.42
1.59
11.99
21.01
29.02
36.25
42.68
48.13
52.47
55.66
57.82
59.13
59.75
59.80
59.44
58.82
58.14
57.61
57.39
57.56
58.02
58.50
58.57
57.73
55.54
51.86
46.87
41.03
34.97
29.20
24.04
19.44
15.04
10.23
4.30
-3.32
-12.77
-23.51
-34.30
-43.42
-49.13
-50.19
-46.30
-38.19
-27.24
-15.10
-3.14
7.79
17.42
25.79
33.10
39.45
44.78
49.02
52.06
53.93
54.76
54.80
54.25
53.30
52.05
50.52
48.70
46.61
44.31
41.93
39.60
37.38
35.19
32.78
29.80
25.92
20.98
15.17
8.91
2.77
-2.80
-7.62
-11.90
-16.13
-20.88
-26.73
-33.97
-42.54
-51.92
-61.13
-68.82
-73.52
-74.07
-69.95
-61.51
-49.84
-36.49
-22.96
-10.36
0.82
10.61
19.36
27.47
35.14
42.29
48.64
53.84
57.64
60.02
61.20
61.49
61.12
60.29
59.06
57.50
55.74
53.96
52.31
50.77
49.19
47.27
44.72
41.37
37.14
32.12
26.41
20.19
13.64
6.96
0.38
-5.88
-11.69
-17.07
-22.33
-27.99
-34.66
-42.75
-52.17
-62.12
-71.16
-77.51
-79.59
-76.54
-68.53
-56.69
-42.76
-28.53
-15.40
-4.08
5.40
13.44
20.53
27.03
33.08
38.55
43.26
47.02
49.77
51.53
52.41
52.62
52.38
51.99
51.74
51.86
52.43
53.34
54.24
54.67
54.16
52.38
49.27
45.04
40.14
35.06
30.18
25.57
21.08
16.35
11.06
5.11
-1.29
-7.68
-13.58
-18.67
-23.03
-27.15
-31.75
-37.51
-44.76
-53.24
-62.01
-69.61
-74.44
-75.13
-71.01
-62.26
-49.90
-35.49
-20.75
-7.11
4.51
13.88
21.29
27.33
32.61
37.50
42.04
45.98
49.00
50.88
51.65
51.59
50.99
50.10
49.06
47.94
46.83
45.85
45.11
44.52
43.81
42.55
40.38
37.14
32.97
28.27
23.44
18.80
14.42
10.20
5.93
1.41
-3.41
-8.47
-13.55
-18.43
-22.93
-27.02
-30.89
-34.95
-39.69
-45.56
-52.63
-60.44
-67.93
-73.65
-76.11
-74.25
-67.82
-57.46
-44.47
-30.49
-16.97
-4.97
5.03
12.99
19.21
24.08
27.95
31.09
33.56
35.38
36.52
37.06
37.12
36.89
36.52
36.16
35.87
35.72
35.78
36.04
36.38
36.50
36.01
34.60
32.12
28.75
24.82
20.75
16.73
12.76
8.65
4.18
-0.67
-5.75
-10.71
-15.25
-19.21
-22.68
-26.01
-29.70
-34.26
-40.03
-47.03
-54.74
-62.15
-67.89
-70.62
-69.42
-64.09
-55.24
-44.09
-32.03
-20.28
-9.66
-0.55
7.02
13.17
18.07
21.89
24.74
26.73
27.91
28.41
28.35
27.89
27.20
26.37
25.44
24.40
23.27
22.13
21.09
20.21
19.42
18.53
17.24
15.28
12.50
8.82
4.32
-0.85
-6.32
-11.57
-15.90
-18.51
-18.75
-16.27
-11.15
-3.90
4.67
13.65
22.12
29.36
34.83
38.24
39.52
38.81
36.46
32.99
29.05
25.37
22.61
21.21
21.28
22.55
24.50
26.51
28.06
28.93
29.09
28.63
27.63
26.14
24.13
21.61
18.73
15.73
12.84
10.22
7.88
5.70
3.53
1.31
-0.91
-2.97
-4.76
-6.25
-7.58
-8.97
-10.65
-12.70
-15.03
-17.45
-19.78
-21.98
-24.20
-26.71
-29.77
-33.43
-37.56
-41.83
-45.86
-49.43
-52.57
-55.56
-58.88
-63.07
-68.52
-75.31
-83.03
-90.73
-97.03
-100.45
-99.79
-94.49
-84.85
-71.92
-57.22
-42.37
-28.67
-17.00
-7.66
-0.55
4.72
8.65
11.73
14.33
16.67
18.78
20.64
22.17
23.36
24.23
24.90
25.49
26.16
27.05
28.22
29.62
31.09
32.31
32.90
32.54
31.09
28.62
25.40
21.76
18.05
14.43
10.88
7.23
3.28
-1.12
-5.93
-10.94
-15.83
-20.32
-24.35
-28.12
-32.07
-36.72
-42.41
-49.03
-55.94
-62.01
-65.88
-66.39
-62.92
-55.63
-45.39
-33.55
-21.47
-10.31
-0.75
6.93
12.77
16.98
19.86
21.74
22.96
23.81
24.49
25.05
25.46
25.66
25.63
25.47
25.35
25.46
25.91
26.65
27.43
27.95
27.91
27.15
25.66
23.60
21.15
18.40
15.31
11.77
7.69
3.06
-1.94
-7.03
-11.89
-16.34
-20.38
-24.17
-28.03
-32.37
-37.47
-43.42
-49.83
-55.92
-60.47
-62.28
-60.49
-54.92
-46.20
-35.55
-24.42
-14.03
-5.15
2.05
7.73
12.14
15.47
17.78
19.13
19.65
19.63
19.36
19.12
19.06
19.18
19.45
19.89
20.55
21.48
22.60
23.68
24.42
24.49
23.75
22.23
20.06
17.38
14.27
10.71
6.71
2.31
-2.29
-6.89
-11.19
-15.09
-18.58
-21.87
-25.28
-29.20
-33.96
-39.72
-46.25
-52.91
-58.64
-62.22
-62.61
-59.31
-52.54
-43.18
-32.44
-21.57
-11.46
-2.64
4.75
10.75
15.49
19.12
21.85
23.81
25.18
26.06
26.52
26.65
26.52
26.26
25.97
25.72
25.52
25.31
24.98
24.44
23.62
22.51
21.12
19.46
17.48
15.06
12.11
8.57
4.52
0.19
-4.09
-8.06
-11.57
-14.73
-17.80
-21.20
-25.37
-30.62
-36.99
-44.08
-51.01
-56.58
-59.55
-59.01
-54.75
-47.25
-37.53
-26.89
-16.47
-7.11
0.76
7.05
11.94
15.75
18.82
21.40
23.55
25.20
26.23
26.60
26.42
25.91
25.35
24.89
24.58
24.36
24.15
23.86
23.39
22.65
21.47
19.70
17.23
14.05
10.22
5.86
1.19
-3.52
-7.83
-11.20
-13.04
-12.87
-10.47
-5.98
0.18
7.35
14.83
21.92
28.00
32.53
35.08
35.45
33.76
30.49
26.43
22.49
19.48
17.86
17.69
18.66
20.28
22.03
23.60
24.81
25.65
26.12
26.16
25.66
24.54
22.84
20.74
18.46
16.24
14.17
12.23
10.33
8.37
6.30
4.10
1.83
-0.50
-2.83
-5.10
-7.22
-9.17
-11.01
-12.94
-15.26
-18.20
-21.84
-26.10
-30.77
-35.56
-40.27
-44.77
-49.11
-53.46
-58.14
-63.50
-69.80
-77.00
-84.53
-91.34
-96.02
-97.20
-94.06
-86.58
-75.58
-62.41
-48.57
-35.31
-23.44
-13.31
-4.93
1.88
7.38
11.82
15.44
18.43
20.92
23.01
24.75
26.25
27.58
28.82
30.02
31.17
32.26
33.21
33.92
34.28
34.17
33.48
32.21
30.32
27.83
24.79
21.23
17.21
12.89
8.45
4.11
0.05
-3.67
-7.06
-10.23
-13.31
-16.49
-20.02
-24.24
-29.40
-35.55
-42.27
-48.67
-53.52
-55.59
-54.07
-48.84
-40.51
-30.24
-19.34
-8.95
0.16
7.74
13.83
18.71
22.66
25.88
28.47
30.50
32.03
33.15
33.97
34.55
34.92
35.08
35.05
34.92
34.83
34.86
34.98
35.01
34.70
33.76
32.05
29.58
26.46
22.88
19.01
14.91
10.59
5.99
1.09
-4.02
-9.12
-13.99
-18.48
-22.58
-26.55
-30.76
-35.62
-41.36
-47.93
-54.79
-61.05
-65.52
-67.04
-64.86
-58.87
-49.70
-38.55
-26.81
-15.72
-6.04
2.00
8.53
13.86
18.28
21.98
25.08
27.64
29.72
31.38
32.63
33.46
33.86
33.86
33.56
33.13
32.76
32.55
32.46
32.30
31.79
30.67
28.78
26.16
22.99
19.52
15.89
12.20
8.37
4.36
0.15
-4.15
-8.41
-12.51
-16.40
-20.14
-23.92
-28.01
-32.73
-38.31
-44.78
-51.70
-58.15
-62.88
-64.66
-62.73
-57.01
-48.23
-37.60
-26.46
-15.91
-6.60
1.23
7.70
13.06
17.61
21.52
24.87
27.62
29.65
30.88
31.36
31.27
30.88
30.49
30.33
30.48
30.92
31.46
31.88
31.89
31.28
29.89
27.71
24.82
21.41
17.68
13.82
9.92
5.99
1.95
-2.28
-6.70
-11.24
-15.73
-20.00
-23.99
-27.78
-31.67
-36.07
-41.39
-47.81
-55.06
-62.31
-68.30
-71.67
-71.33
-66.86
-58.69
-47.92
-36.00
-24.30
-13.78
-4.83
2.63
8.91
14.40
19.30
23.66
27.37
30.26
32.19
33.19
33.45
33.29
32.99
32.77
32.66
32.55
32.34
31.93
31.35
30.63
29.73
28.52
26.75
24.19
20.75
16.54
11.85
7.07
2.59
-1.19
-3.88
-5.06
-4.35
-1.50
3.46
10.15
17.84
25.64
32.60
37.97
41.26
42.30
41.29
38.64
35.02
31.15
27.73
25.23
23.91
23.70
24.28
25.29
26.31
27.08
27.44
27.38
26.94
26.20
25.19
23.92
22.42
20.72
18.92
17.07
15.22
13.41
11.61
9.82
8.08
6.46
5.03
3.83
2.82
1.89
0.89
-0.33
-1.86
-3.66
-5.70
-7.90
-10.20
-12.58
-15.06
-17.71
-20.59
-23.79
-27.36
-31.30
-35.50
-39.78
-43.88
-47.64
-51.07
-54.44
-58.22
-62.91
-68.78
-75.68
-82.95
-89.48
-93.89
-94.94
-91.81
-84.42
-73.46
-60.22
-46.24
-32.93
-21.18
-11.40
-3.51
2.73
7.65
11.53
14.67
17.37
19.89
22.43
25.00
27.47
29.62
31.29
32.50
33.42
34.31
35.44
36.87
38.48
39.89
40.65
40.41
39.03
36.64
33.58
30.22
26.81
23.41
19.93
16.18
12.05
7.53
2.77
-2.00
-6.51
-10.57
-14.13
-17.32
-20.47
-24.00
-28.31
-33.61
-39.71
-46.03
-51.62
-55.36
-56.23
-53.63
-47.56
-38.70
-28.27
-17.61
-7.93
0.10
6.33
11.12
14.98
18.31
21.28
23.80
25.70
26.90
27.49
27.73
27.84
27.93
28.02
28.06
28.10
28.22
28.50
28.86
28.97
28.45
26.98
24.51
21.27
17.66
14.01
10.48
7.02
3.47
-0.30
-4.29
-8.38
-12.39
-16.16
-19.62
-22.83
-26.00
-29.53
-33.85
-39.28
-45.80
-52.82
-59.24
-63.69
-64.94
-62.32
-55.97
-46.76
-36.04
-25.15
-15.09
-6.35
0.99
7.16
12.40
16.90
20.74
23.90
26.38
28.21
29.44
30.14
30.40
30.32
29.98
29.54
29.15
28.98
29.11
29.50
29.91
29.99
29.39
27.85
25.38
22.15
18.51
14.83
11.37
8.21
5.20
2.08
-1.42
-5.43
-9.87
-14.48
-18.91
-22.93
-26.52
-29.91
-33.54
-37.90
-43.32
-49.83
-57.05
-64.15
-70.04
-73.55
-73.76
-70.27
-63.32
-53.73
-42.69
-31.38
-20.78
-11.44
-3.53
3.10
8.74
13.70
18.17
22.28
25.99
29.20
31.84
33.83
35.18
35.97
36.29
36.28
36.14
36.08
36.27
36.79
37.54
38.17
38.18
37.13
34.81
31.42
27.49
23.69
20.53
18.13
16.25
14.40
12.08
9.04
5.34
1.28
-2.78
-6.62
-10.22
-13.78
-17.70
-22.39
-28.18
-35.18
-43.03
-50.90
-57.58
-61.76
-62.42
-59.23
-52.62
-43.71
-33.93
-24.55
-16.39
-9.70
-4.31
0.17
4.06
7.57
10.72
13.49
15.87
17.91
19.66
21.18
22.42
23.28
23.64
23.46
22.80
21.89
20.95
20.20
19.74
19.53
19.37
19.07
18.40
17.23
15.49
13.15
10.25
6.94
3.49
0.37
-1.79
-2.33
-0.77
3.00
8.60
15.31
22.20
28.44
33.47
37.03
39.09
39.68
38.87
36.80
33.76
30.27
26.95
24.41
23.08
23.03
24.01
25.56
27.16
28.39
29.02
29.04
28.58
27.84
26.95
25.95
24.77
23.30
21.50
19.44
17.27
15.20
13.37
11.87
10.69
9.72
8.81
7.81
6.62
5.20
3.59
1.85
0.07
-1.68
-3.35
-4.94
-6.54
-8.33
-10.56
-13.45
-17.04
-21.18
-25.58
-29.92
-34.02
-37.90
-41.84
-46.25
-51.55
-57.97
-65.36
-73.00
-79.67
-83.78
-83.90
-79.23
-70.04
-57.61
-43.93
-30.99
-20.24
-12.28
-6.90
-3.44
-1.17
0.41
1.53
2.23
2.57
2.61
2.54
2.52
2.63
2.88
3.15
3.42
3.76
4.35
5.39
6.97
8.99
11.12
12.96
14.15
14.47
13.86
12.43
10.33
7.73
4.75
1.45
-2.16
-6.09
-10.31
-14.69
-19.07
-23.26
-27.18
-31.01
-35.14
-40.01
-45.79
-52.14
-58.15
-62.50
-63.93
-61.77
-56.11
-47.80
-38.10
-28.29
-19.28
-11.52
-5.11
0.13
4.42
7.95
10.87
13.32
15.42
17.29
19.05
20.74
22.33
23.71
24.76
25.38
25.56
25.41
25.09
24.78
24.62
24.71
25.07
25.58
25.99
25.86
24.64
21.83
17.24
11.01
3.74
-3.73
-10.54
-16.03
-20.01
-22.78
-25.04
-27.68
-31.44
-36.49
-42.29
-47.66
-51.11
-51.36
-47.79
-40.68
-31.06
-20.36
-9.87
-0.47
7.50
14.10
19.54
24.01
27.59
30.38
32.47
34.01
35.16
36.00
36.50
36.57
36.19
35.39
34.39
33.41
32.60
32.00
31.52
30.98
30.17
28.87
26.88
24.04
20.31
15.76
10.59
5.11
-0.44
-5.83
-10.92
-15.70
-20.23
-24.70
-29.42
-34.69
-40.68
-47.19
-53.53
-58.67
-61.44
-60.90
-56.67
-49.02
-38.83
-27.31
-15.76
-5.17
3.83
11.10
16.84
21.38
25.05
28.05
30.40
32.05
33.05
33.51
33.66
33.72
33.78
33.76
33.51
32.86
31.74
30.30
28.75
27.28
25.91
24.39
22.31
19.21
14.85
9.34
3.12
-3.16
-8.95
-14.01
-18.45
-22.70
-27.28
-32.60
-38.85
-45.91
-53.33
-60.32
-65.80
-68.66
-67.99
-63.42
-55.31
-44.67
-32.88
-21.33
-10.95
-2.17
5.08
11.12
16.30
20.85
24.82
28.14
30.69
32.44
33.46
33.92
34.01
33.93
33.77
33.55
33.20
32.62
31.74
30.56
29.11
27.44
25.49
23.09
19.96
15.82
10.48
4.05
-3.08
-10.22
-16.56
-21.22
-23.49
-22.86
-19.18
-12.74
-4.19
5.52
15.38
24.44
32.08
37.86
41.60
43.18
42.66
40.33
36.76
32.77
29.25
26.90
25.99
26.38
27.67
29.36
31.10
32.65
33.84
34.53
34.56
33.83
32.33
30.22
27.70
24.98
22.23
19.50
16.78
14.02
11.14
8.08
4.84
1.40
-2.11
-5.57
-8.86
-11.91
-14.74
-17.50
-20.37
-23.55
-27.24
-31.50
-36.29
-41.46
-46.79
-52.05
-57.04
-61.71
-66.16
-70.68
-75.67
-81.45
-88.05
-94.90
-100.86
-104.39
-104.04
-98.90
-89.01
-75.35
-59.50
-43.23
-27.94
-14.50
-3.20
6.13
13.86
20.39
26.01
30.89
35.09
38.68
41.68
44.19
46.28
48.02
49.43
50.52
51.28
51.73
51.91
51.82
51.32
50.19
48.20
45.23
41.32
36.76
31.90
27.11
22.52
18.08
13.57
8.75
3.54
-1.96
-7.50
-12.76
-17.55
-21.89
-26.04
-30.49
-35.82
-42.36
-50.07
-58.30
-65.93
-71.55
-73.88
-72.16
-66.28
-56.87
-44.99
-31.95
-18.95
-6.89
3.74
12.77
20.32
26.57
31.71
35.87
39.11
41.47
43.01
43.81
43.98
43.64
42.90
41.90
40.71
39.35
37.75
35.83
33.50
30.78
27.77
24.64
21.48
18.31
14.98
11.26
6.90
1.80
-3.89
-9.66
-14.70
-18.02
-18.73
-16.30
-10.73
-2.61
7.13
17.37
27.06
35.38
41.75
45.83
47.55
47.08
44.84
41.54
37.99
34.88
32.72
31.65
31.50
31.96
32.68
33.36
33.81
33.93
33.67
32.99
31.83
30.18
28.02
25.39
22.42
19.29
16.21
13.40
10.96
8.84
6.91
4.94
2.79
0.43
-2.08
-4.59
-7.02
-9.31
-11.54
-13.84
-16.35
-19.22
-22.56
-26.39
-30.67
-35.22
-39.77
-44.12
-48.15
-51.95
-55.80
-60.09
-65.24
-71.48
-78.68
-86.18
-92.78
-96.98
-97.34
-92.99
-83.91
-71.05
-55.94
-40.34
-25.71
-12.98
-2.53
5.65
11.78
16.17
19.17
21.18
22.55
23.66
24.72
25.88
27.17
28.57
30.00
31.34
32.45
33.14
33.30
32.87
31.90
30.46
28.61
26.31
23.49
20.13
16.26
12.03
7.59
3.03
-1.64
-6.45
-11.38
-16.29
-21.00
-25.39
-29.51
-33.72
-38.50
-44.25
-51.03
-58.28
-64.96
-69.66
-71.09
-68.45
-61.72
-51.66
-39.55
-26.87
-14.87
-4.39
4.25
11.11
16.53
20.92
24.58
27.70
30.27
32.22
33.49
34.20
34.59
34.89
35.25
35.64
35.94
36.00
35.79
35.33
34.67
33.72
32.32
30.22
27.31
23.65
19.40
14.76
9.85
4.69
-0.73
-6.31
-11.87
-17.16
-22.01
-26.50
-30.95
-35.89
-41.81
-48.96
-57.05
-65.26
-72.29
-76.72
-77.40
-73.78
-66.11
-55.31
-42.75
-29.83
-17.64
-6.80
2.54
10.54
17.45
23.51
28.86
33.56
37.57
40.82
43.21
44.63
45.05
44.61
43.56
42.33
41.24
40.54
40.22
40.09
39.84
39.16
37.78
35.54
32.44
28.63
24.31
19.70
14.88
9.77
4.22
-1.84
-8.34
-14.93
-21.25
-27.00
-32.19
-37.14
-42.40
-48.47
-55.62
-63.67
-71.94
-79.31
-84.43
-86.08
-83.48
-76.56
-66.03
-53.17
-39.46
-26.23
-14.33
-4.11
4.58
12.16
19.07
25.64
31.95
37.85
43.03
47.20
50.22
52.15
53.18
53.59
53.63
53.50
53.36
53.35
53.59
54.00
54.35
54.18
52.96
50.37
46.39
41.38
36.00
30.88
26.32
22.22
18.10
13.38
7.75
1.26
-5.63
-12.31
-18.30
-23.40
-27.80
-31.95
-36.41
-41.72
-48.22
-55.93
-64.33
-72.46
-78.94
-82.34
-81.61
-76.43
-67.30
-55.39
-42.14
-28.86
-16.49
-5.46
4.23
12.78
20.46
27.43
33.68
39.09
43.51
46.88
49.32
51.02
52.22
53.11
53.76
54.16
54.34
54.38
54.43
54.62
54.94
55.18
55.06
54.25
52.61
50.11
46.93
43.27
39.32
35.27
31.40
28.09
25.90
25.37
26.92
30.63
36.24
43.21
50.82
58.34
64.99
70.04
72.83
72.85
69.97
64.44
56.97
48.51
39.97
32.01
25.04
19.19
14.53
11.12
9.04
8.29
8.66
9.83
11.30
12.70
13.86
14.88
16.10
17.86
20.35
23.32
26.15
27.91
27.75
25.19
20.30
13.74
6.48
-0.48
-6.45
-11.24
-15.11
-18.59
-22.18
-26.12
-30.22
-34.08
-37.22
-39.41
-40.79
-41.84
-43.11
-45.09
-47.99
-51.76
-56.24
-61.21
-66.50
-71.92
-77.43
-83.12
-89.36
-96.74
-105.81
-116.68
-128.67
-140.21
-149.23
-153.79
-152.79
-146.38
-135.81
-122.98
-109.77
-97.51
-86.80
-77.61
-69.61
-62.34
-55.42
-48.52
-41.45
-34.11
-26.55
-18.90
-11.40
-4.31
2.17
7.95
13.05
17.62
21.88
26.00
29.98
33.60
36.45
38.09
38.18
36.71
33.97
30.45
26.68
22.96
19.34
15.65
11.62
7.11
2.23
-2.69
-7.20
-10.98
-13.93
-16.27
-18.49
-21.19
-24.92
-29.95
-36.11
-42.67
-48.39
-51.76
-51.41
-46.62
-37.56
-25.30
-11.46
2.30
14.75
25.33
34.03
41.17
47.01
51.69
55.19
57.44
58.47
58.52
58.00
57.38
57.04
57.16
57.73
58.55
59.35
59.93
60.11
59.78
58.81
57.04
54.29
50.42
45.42
39.42
32.76
25.90
19.24
13.11
7.58
2.50
-2.41
-7.51
-13.04
-19.13
-25.82
-33.08
-40.74
-48.36
-55.12
-59.90
-61.54
-59.28
-53.10
-43.78
-32.69
-21.34
-10.93
-2.15
4.85
10.31
14.63
18.21
21.35
24.19
26.68
28.62
29.84
30.30
30.11
29.60
29.05
28.67
28.48
28.40
28.34
28.23
28.06
27.77
27.27
26.38
24.93
22.76
19.79
16.05
11.66
6.83
1.87
-2.96
-7.47
-11.67
-15.79
-20.19
-25.31
-31.43
-38.60
-46.51
-54.42
-61.27
-65.81
-66.96
-64.12
-57.41
-47.70
-36.38
-24.99
-14.75
-6.34
0.21
5.32
9.57
13.44
17.16
20.68
23.83
26.38
28.24
29.47
30.28
30.89
31.47
32.05
32.55
32.87
32.88
32.52
31.75
30.56
28.92
26.79
24.08
20.78
16.91
12.56
7.87
3.05
-1.70
-6.25
-10.55
-14.58
-18.47
-22.38
-26.61
-31.52
-37.40
-44.34
-51.94
-59.31
-65.12
-68.04
-67.09
-62.04
-53.45
-42.50
-30.64
-19.15
-8.89
-0.23
6.86
12.68
17.58
21.83
25.52
28.58
30.89
32.34
32.95
32.88
32.40
31.76
31.11
30.53
29.96
29.38
28.73
28.02
27.17
26.10
24.62
22.57
19.80
16.29
12.05
7.22
2.00
-3.32
-8.32
-12.39
-14.84
-15.02
-12.50
-7.26
0.21
8.99
17.99
26.15
32.67
37.13
39.43
39.69
38.23
35.48
32.01
28.43
25.33
23.13
22.04
22.02
22.81
24.09
25.52
26.87
27.99
28.82
29.31
29.38
28.96
28.01
26.51
24.57
22.34
19.99
17.63
15.31
13.05
10.85
8.72
6.71
4.77
2.80
0.65
-1.76
-4.45
-7.32
-10.21
-13.00
-15.67
-18.35
-21.28
-24.62
-28.48
-32.78
-37.30
-41.79
-46.08
-50.14
-54.11
-58.26
-62.92
-68.44
-75.05
-82.67
-90.77
-98.32
-103.80
-105.67
-102.80
-94.84
-82.44
-66.98
-50.17
-33.61
-18.51
-5.63
4.67
12.39
17.80
21.49
24.11
26.31
28.46
30.62
32.63
34.25
35.40
36.18
36.81
37.53
38.45
39.53
40.68
41.71
42.42
42.52
41.76
39.96
37.06
33.29
29.04
24.78
20.82
17.25
13.88
10.40
6.48
1.94
-3.13
-8.50
-13.86
-18.93
-23.57
-27.87
-32.12
-36.75
-42.19
-48.59
-55.64
-62.42
-67.59
-69.72
-67.73
-61.33
-51.09
-38.31
-24.58
-11.34
0.40
10.16
17.81
23.50
27.44
29.93
31.28
31.86
32.04
32.05
32.03
31.91
31.65
31.25
30.88
30.83
31.29
32.25
33.39
34.25
34.35
33.42
31.46
28.71
25.45
21.86
18.02
13.86
9.39
4.68
-0.10
-4.79
-9.25
-13.45
-17.43
-21.25
-25.09
-29.20
-33.98
-39.76
-46.71
-54.52
-62.24
-68.43
-71.49
-70.20
-64.15
-53.91
-40.83
-26.63
-12.94
-0.86
9.02
16.63
22.22
26.13
28.71
30.25
31.05
31.32
31.27
31.09
30.97
31.07
31.48
32.24
33.26
34.33
35.15
35.45
34.96
33.57
31.33
28.38
24.95
21.13
16.95
12.32
7.19
1.58
-4.38
-10.42
-16.31
-21.85
-26.94
-31.60
-35.94
-40.17
-44.63
-49.76
-55.89
-63.02
-70.53
-77.16
-81.24
-81.27
-76.37
-66.71
-53.41
-38.20
-22.85
-8.73
3.38
13.21
20.87
26.62
30.77
33.69
35.77
37.31
38.53
39.46
40.03
40.18
39.93
39.46
39.04
38.92
39.21
39.84
40.50
40.75
40.12
38.23
34.95
30.50
25.37
20.30
15.99
12.84
10.79
9.33
7.79
5.65
2.83
-0.31
-3.20
-5.44
-7.05
-8.42
-10.16
-12.80
-16.58
-21.39
-26.78
-31.94
-35.78
-37.09
-34.94
-29.07
-20.20
-9.89
-0.07
7.70
12.80
15.70
17.67
20.20
24.50
31.10
40.02
50.78
62.74
75.20
87.44
98.80
108.65
116.59
122.68
127.53
132.22
137.94
145.28
153.76
161.63
166.40
165.68
158.24
144.41
125.93
105.13
84.00
63.73
44.63
26.61
9.62
-6.02
-19.82
-31.26
-40.11
-46.51
-50.73
-53.08
-53.77
-53.02
-51.21
-48.98
-47.19
-46.54
-47.37
-49.32
-51.37
-52.12
-50.22
-44.84
-35.95
-24.34
-11.37
1.37
12.52
21.11
26.76
29.63
30.24
29.30
27.43
25.09
22.45
19.50
16.18
12.51
8.72
5.06
1.77
-1.09
-3.56
-5.63
-7.10
-7.68
-7.16
-5.71
-3.95
-2.86
-3.33
-5.74
-9.82
-14.73
-19.43
-23.20
-25.81
-27.53
-28.95
-30.60
-32.81
-35.60
-38.81
-42.13
-45.30
-48.19
-50.78
-53.23
-55.92
-59.34
-63.96
-69.94
-76.86
-83.60
-88.41
-89.45
-85.40
-76.06
-62.56
-47.02
-31.84
-18.92
-9.19
-2.54
1.82
4.87
7.34
9.55
11.50
13.05
14.05
14.47
14.37
13.84
12.97
11.89
10.69
9.50
8.49
7.79
7.49
7.56
7.86
8.03
7.71
6.56
4.40
1.38
-2.15
-5.70
-8.90
-11.54
-13.75
-15.79
-18.01
-20.66
-23.74
-27.09
-30.43
-33.49
-36.14
-38.46
-40.74
-43.44
-47.12
-52.38
-59.57
-68.59
-78.56
-87.85
-94.29
-95.75
-90.85
-79.49
-62.92
-43.38
-23.34
-4.81
11.18
24.52
35.79
45.75
54.97
63.62
71.46
78.00
82.65
84.96
84.70
81.95
77.01
70.27
62.16
53.04
43.23
32.92
22.33
11.58
0.74
-10.15
-21.15
-32.23
-43.25
-53.85
-63.54
-71.83
-78.46
-83.58
-87.71
-91.56
-95.67
-100.27
-105.07
-109.57
-113.25
-115.92
-117.80
-119.52
-121.85
-125.54
-131.05
-138.33
-146.67
-154.59
-160.10
-161.05
-155.79
-143.74
-125.64
-103.48
-79.87
-57.34
-37.68
-21.69
-9.22
0.46
8.24
14.78
20.41
25.18
28.99
31.82
33.79
35.11
36.08
36.97
38.00
39.32
40.99
43.02
45.29
47.58
49.56
50.96
51.60
51.44
50.62
49.26
47.35
44.72
41.17
36.67
31.69
27.16
24.34
24.33
27.67
34.04
42.44
51.48
59.85
66.65
71.38
73.84
74.02
71.98
67.98
62.58
56.69
51.35
47.53
45.78
46.09
47.96
50.60
53.20
55.22
56.42
56.87
56.79
56.34
55.56
54.35
52.57
50.14
47.19
43.96
40.81
38.02
35.73
33.86
32.15
30.31
28.14
25.65
23.01
20.44
18.09
15.97
13.86
11.46
8.50
4.93
0.89
-3.29
-7.30
-10.97
-14.35
-17.72
-21.42
-25.72
-30.79
-36.55
-42.83
-49.34
-55.77
-61.85
-67.45
-72.67
-77.84
-83.55
-90.42
-98.77
-108.27
-117.65
-124.86
-127.59
-123.95
-113.22
-96.15
-74.75
-51.70
-29.55
-10.14
5.66
17.80
26.75
33.18
37.76
41.08
43.59
45.66
47.49
49.14
50.57
51.71
52.49
52.97
53.29
53.62
54.18
55.07
56.25
57.51
58.48
58.70
57.83
55.68
52.31
47.96
42.95
37.63
32.28
27.10
22.18
17.54
13.09
8.67
4.11
-0.68
-5.71
-10.82
-15.76
-20.33
-24.43
-28.10
-31.62
-35.42
-40.08
-46.11
-53.68
-62.29
-70.71
-77.05
-79.34
-76.15
-67.17
-53.37
-36.69
-19.48
-3.76
9.18
18.93
25.74
30.23
33.07
34.82
35.94
36.80
37.69
38.79
40.08
41.41
42.51
43.11
43.15
42.72
42.17
41.81
41.85
42.20
42.49
42.22
40.92
38.36
34.63
30.06
25.13
20.30
15.81
11.70
7.74
3.57
-1.13
-6.49
-12.36
-18.37
-24.08
-29.21
-33.83
-38.39
-43.61
-50.13
-58.24
-67.52
-76.80
-84.33
-88.15
-86.75
-79.50
-66.99
-50.88
-33.48
-17.07
-3.32
7.01
14.07
18.61
21.51
23.48
24.91
25.87
26.34
26.38
26.17
26.02
26.19
26.76
27.63
28.58
29.36
29.81
29.94
29.79
29.39
28.67
27.53
25.73
23.10
19.48
14.89
9.50
3.60
-2.47
-8.43
-14.08
-19.42
-24.53
-29.63
-34.96
-40.88
-47.76
-55.81
-64.85
-74.07
-82.00
-86.78
-86.71
-80.87
-69.53
-54.14
-36.88
-19.99
-5.12
6.93
16.16
23.02
28.09
31.80
34.43
36.19
37.29
37.95
38.34
38.54
38.54
38.34
37.97
37.55
37.18
36.85
36.48
35.90
34.98
33.64
31.78
29.22
25.72
21.07
15.24
8.52
1.45
-5.34
-11.40
-16.63
-21.32
-26.04
-31.40
-37.91
-45.81
-54.95
-64.63
-73.64
-80.31
-82.95
-80.33
-72.17
-59.27
-43.35
-26.53
-10.75
2.73
13.46
21.71
28.12
33.34
37.81
41.67
44.80
47.03
48.27
48.61
48.33
47.76
47.20
46.76
46.44
46.14
45.71
45.01
43.93
42.34
40.07
37.03
33.16
28.46
22.96
16.81
10.21
3.47
-3.02
-8.97
-14.29
-19.13
-23.91
-29.16
-35.40
-42.98
-51.96
-61.97
-72.15
-81.14
-87.30
-89.02
-85.25
-75.86
-61.76
-44.65
-26.56
-9.34
5.73
18.01
27.55
34.73
40.11
44.18
47.31
49.63
51.17
51.98
52.17
51.95
51.52
51.01
50.40
49.59
48.51
47.18
45.77
44.43
43.19
41.86
40.02
37.20
33.00
27.29
20.30
12.52
4.58
-2.93
-9.73
-15.86
-21.63
-27.59
-34.30
-42.22
-51.47
-61.68
-71.83
-80.35
-85.44
-85.55
-79.95
-69.01
-54.17
-37.47
-20.98
-6.20
6.20
16.26
24.43
31.20
36.94
41.79
45.75
48.78
50.88
52.07
52.44
52.10
51.22
50.01
48.68
47.44
46.37
45.44
44.50
43.27
41.48
38.90
35.39
30.99
25.81
20.01
13.72
7.01
-0.03
-7.25
-14.39
-21.12
-27.24
-32.78
-38.16
-44.06
-51.29
-60.42
-71.65
-84.53
-97.99
-110.38
-119.74
-124.24
-122.74
-115.18
-102.72
-87.43
-71.69
-57.44
-45.73
-36.60
-29.42
-23.33
-17.63
-11.97
-6.30
-0.76
4.44
9.08
12.90
15.69
17.35
17.99
17.94
17.61
17.40
17.54
17.94
18.31
18.14
16.96
14.45
10.55
5.49
-0.22
-5.97
-11.30
-16.02
-20.31
-24.65
-29.61
-35.58
-42.61
-50.38
-58.36
-66.12
-73.56
-81.05
-89.34
-99.12
-110.65
-123.33
-135.62
-145.29
-149.93
-147.60
-137.38
-119.72
-96.34
-69.77
-42.65
-17.04
5.99
26.34
44.46
60.85
75.63
88.43
98.64
105.81
109.94
111.54
111.44
110.45
109.22
108.01
106.79
105.41
103.74
101.74
99.44
96.87
93.90
90.26
85.62
79.73
72.57
64.37
55.53
46.48
37.65
29.50
22.71
18.23
17.17
20.46
28.39
40.28
54.48
68.81
81.11
89.82
94.26
94.60
91.61
86.31
79.74
72.89
66.63
61.66
58.41
56.93
56.82
57.41
57.93
57.78
56.63
54.53
51.77
48.74
45.76
43.00
40.45
37.96
35.25
32.10
28.42
24.37
20.29
16.56
13.41
10.78
8.31
5.49
1.92
-2.50
-7.52
-12.68
-17.51
-21.76
-25.46
-28.93
-32.64
-37.01
-42.30
-48.46
-55.20
-62.07
-68.62
-74.61
-80.13
-85.65
-91.86
-99.44
-108.77
-119.57
-130.77
-140.52
-146.41
-146.05
-137.74
-121.03
-97.07
-68.49
-38.75
-11.28
11.42
28.21
39.40
46.24
50.25
52.64
54.12
54.99
55.40
55.58
55.82
56.39
57.35
58.50
59.50
60.04
59.99
59.33
58.12
56.37
54.05
51.05
47.30
42.78
37.55
31.68
25.23
18.24
10.74
2.84
-5.29
-13.41
-21.26
-28.65
-35.59
-42.38
-49.54
-57.78
-67.60
-79.05
-91.35
-102.79
-110.89
-113.05
-107.28
-93.02
-71.56
-45.78
-19.35
4.39
23.28
36.76
45.52
50.88
54.01
55.58
55.77
54.60
52.32
49.45
46.76
44.86
43.98
43.88
43.96
43.54
42.19
39.82
36.72
33.32
29.95
26.57
22.76
17.84
11.13
2.30
-8.51
-20.61
-33.03
-44.83
-55.41
-64.67
-73.10
-81.51
-90.92
-102.18
-115.74
-131.31
-147.57
-162.10
-171.63
-172.83
-163.40
-143.09
-114.04
-80.42
-47.02
-17.85
5.03
21.70
33.73
43.04
50.92
57.70
62.94
66.08
66.93
65.90
63.83
61.61
59.84
58.59
57.43
55.65
52.60
48.01
42.17
35.69
29.18
22.75
15.80
7.14
-4.49
-19.75
-38.28
-58.70
-78.97
-96.92
-110.83
-119.83
-124.12
-125.00
-124.80
-126.33
-131.96
-142.59
-156.77
-170.68
-178.95
-176.33
-159.61
-128.87
-87.75
-42.32
0.74
36.15
61.32
76.55
84.33
87.91
90.13
92.64
95.92
99.81
104.12
108.95
114.59
121.20
128.32
134.93
139.77
141.94
141.32
138.62
134.89
130.86
126.52
120.98
113.05
101.91
87.65
71.41
55.04
40.54
29.31
21.83
17.59
15.35
13.62
11.09
7.12
1.90
-3.48
-7.16
-7.00
-1.12
11.39
30.03
52.82
76.80
98.89
116.70
129.11
136.20
138.85
138.22
135.35
131.03
125.97
120.81
116.06
111.96
108.43
105.02
101.09
96.08
89.83
82.55
74.88
67.60
61.36
56.38
52.34
48.53
44.07
38.36
31.21
22.98
14.27
5.74
-2.21
-9.46
-16.15
-22.59
-29.09
-35.93
-43.26
-51.05
-58.94
-66.28
-72.11
-75.53
-75.90
-73.13
-67.72
-60.68
-53.14
-46.05
-39.90
-34.68
-30.09
-25.75
-21.44
-17.25
-13.43
-10.29
-8.04
-6.59
-5.74
-5.18
-4.64
-3.99
-3.21
-2.36
-1.47
-0.60
0.23
0.96
1.42
1.44
0.76
-0.77
-3.23
-6.52
-10.40
-14.59
-18.83
-22.98
-27.05
-31.19
-35.62
-40.58
-46.28
-52.83
-60.15
-67.87
-75.35
-81.64
-85.79
-87.01
-84.86
-79.48
-71.46
-61.71
-51.19
-40.70
-30.80
-21.75
-13.67
-6.67
-0.86
3.62
6.74
8.63
9.66
10.30
11.04
12.20
13.81
15.64
17.30
18.42
18.75
18.28
17.21
15.79
14.21
12.43
10.25
7.39
3.67
-0.84
-5.84
-10.88
-15.61
-19.86
-23.73
-27.57
-31.83
-36.97
-43.35
-51.08
-59.92
-69.12
-77.42
-83.18
-84.73
-80.85
-71.24
-56.71
-39.09
-20.73
-3.79
10.29
21.08
29.01
34.90
39.52
43.25
46.12
48.03
49.02
49.31
49.33
49.42
49.72
50.12
50.28
49.83
48.54
46.37
43.47
40.12
36.55
32.89
29.07
24.86
20.06
14.54
8.39
1.85
-4.73
-11.06
-17.07
-22.86
-28.73
-35.00
-41.98
-49.86
-58.67
-68.24
-78.12
-87.56
-95.39
-100.22
-100.58
-95.46
-84.70
-69.20
-50.85
-31.96
-14.60
0.05
11.85
21.45
29.72
37.25
44.14
50.12
54.81
58.08
60.03
60.96
61.13
60.76
59.96
58.83
57.47
56.02
54.56
53.10
51.45
49.39
46.65
43.00
38.43
33.08
27.25
21.30
15.52
9.98
4.55
-1.01
-6.91
-13.18
-19.68
-26.15
-32.38
-38.42
-44.61
-51.46
-59.44
-68.64
-78.56
-88.02
-95.32
-98.58
-96.28
-87.83
-73.82
-56.00
-36.77
-18.42
-2.51
10.51
21.11
30.16
38.35
45.85
52.33
57.31
60.56
62.24
62.85
62.94
62.87
62.66
62.10
60.96
59.20
57.04
54.87
53.03
51.56
50.14
48.22
45.20
40.80
35.17
28.89
22.65
17.01
12.18
7.91
3.68
-1.04
-6.59
-12.92
-19.67
-26.33
-32.47
-37.88
-42.69
-47.23
-52.01
-57.52
-64.04
-71.55
-79.66
-87.55
-94.04
-97.68
-97.18
-91.71
-81.28
-66.86
-50.14
-33.07
-17.26
-3.65
7.61
16.93
24.86
31.76
37.66
42.41
45.83
48.00
49.15
49.71
50.07
50.41
50.72
50.85
50.64
50.05
49.21
48.30
47.45
46.66
45.72
44.32
42.17
39.13
35.28
30.95
26.53
22.35
18.54
14.99
11.45
7.63
3.37
-1.32
-6.26
-11.23
-16.07
-20.76
-25.40
-30.19
-35.38
-41.17
-47.65
-54.62
-61.65
-68.00
-72.78
-75.05
-74.10
-69.54
-61.49
-50.61
-37.96
-24.86
-12.51
-1.74
7.12
14.20
19.85
24.40
28.01
30.73
32.55
33.63
34.21
34.59
34.97
35.38
35.75
35.96
35.93
35.65
35.12
34.34
33.26
31.84
30.04
27.87
25.32
22.45
19.34
16.06
12.70
9.29
5.78
2.08
-1.94
-6.32
-11.03
-15.90
-20.74
-25.37
-29.80
-34.21
-38.95
-44.33
-50.49
-57.15
-63.65
-69.00
-72.15
-72.25
-68.87
-62.12
-52.60
-41.24
-29.15
-17.36
-6.67
2.43
9.79
15.46
19.66
22.61
24.55
25.64
26.10
26.10
25.91
25.74
25.78
26.10
26.63
27.19
27.56
27.57
27.16
26.41
25.41
24.22
22.81
21.10
18.98
16.38
13.37
10.00
6.50
3.20
0.56
-0.90
-0.73
1.29
5.06
10.12
15.83
21.48
26.50
30.43
32.97
33.91
33.19
30.94
27.56
23.69
20.08
17.38
15.92
15.65
16.17
16.96
17.60
17.97
18.13
18.25
18.45
18.67
18.74
18.45
17.69
16.45
14.89
13.19
11.49
9.91
8.46
7.08
5.66
4.08
2.23
0.10
-2.24
-4.63
-6.90
-8.99
-10.93
-12.85
-14.98
-17.45
-20.32
-23.56
-27.04
-30.61
-34.17
-37.61
-40.95
-44.26
-47.69
-51.50
-55.93
-61.08
-66.75
-72.28
-76.65
-78.68
-77.46
-72.66
-64.69
-54.57
-43.59
-32.90
-23.31
-15.19
-8.56
-3.35
0.59
3.40
5.30
6.57
7.50
8.33
9.23
10.24
11.31
12.36
13.33
14.19
14.99
15.76
16.54
17.21
17.63
17.60
16.98
15.82
14.18
12.24
10.09
7.70
5.03
2.02
-1.24
-4.59
-7.90
-11.16
-14.50
-18.17
-22.36
-27.20
-32.66
-38.53
-44.45
-49.84
-53.99
-56.09
-55.49
-51.91
-45.61
-37.34
-28.08
-18.82
-10.27
-2.80
3.43
8.46
12.33
15.20
17.19
18.54
19.42
19.96
20.18
20.11
19.80
19.39
19.07
18.96
19.09
19.38
19.72
19.99
20.11
20.01
19.56
18.58
16.89
14.43
11.25
7.53
3.51
-0.56
-4.51
-8.23
-11.63
-14.73
-17.73
-20.95
-24.81
-29.65
-35.58
-42.24
-48.82
-54.21
-57.29
-57.24
-53.85
-47.45
-38.89
-29.22
-19.52
-10.67
-3.24
2.52
6.65
9.45
11.35
12.77
13.97
15.04
15.94
16.60
17.02
17.32
17.65
18.10
18.70
19.35
19.90
20.25
20.35
20.21
19.81
19.06
17.79
15.83
13.09
9.65
5.74
1.69
-2.21
-5.79
-9.01
-11.97
-14.87
-17.98
-21.66
-26.30
-32.21
-39.41
-47.42
-55.16
-61.17
-63.91
-62.38
-56.48
-47.08
-35.80
-24.42
-14.39
-6.41
-0.50
3.89
7.44
10.73
14.06
17.54
21.06
24.44
27.42
29.73
31.17
31.71
31.57
31.13
30.86
31.12
31.98
33.21
34.35
34.94
34.62
33.32
31.13
28.21
24.65
20.51
15.81
10.68
5.38
0.25
-4.44
-8.62
-12.49
-16.37
-20.68
-25.69
-31.52
-38.12
-45.20
-52.30
-58.71
-63.62
-66.14
-65.64
-61.88
-55.17
-46.34
-36.53
-26.89
-18.27
-11.12
-5.38
-0.73
3.24
6.90
10.38
13.71
16.79
19.53
21.80
23.44
24.18
23.75
21.97
18.82
14.59
9.73
4.79
0.20
-3.85
-7.35
-10.40
-13.02
-15.20
-16.82
-17.82
-18.28
-18.44
-18.65
-19.22
-20.30
-21.81
-23.60
-25.49
-27.46
-29.74
-32.71
-36.75
-42.05
-48.36
-55.00
-60.94
-65.10
-66.54
-64.73
-59.57
-51.36
-40.79
-28.80
-16.45
-4.73
5.60
14.14
20.89
26.12
30.14
33.20
35.42
36.85
37.60
37.89
38.05
38.32
38.84
39.60
40.50
41.38
42.10
42.49
42.34
41.48
39.74
37.05
33.48
29.15
24.28
19.03
13.51
7.81
2.04
-3.68
-9.25
-14.61
-19.85
-25.13
-30.72
-36.89
-43.89
-51.81
-60.58
-69.77
-78.64
-86.05
-90.64
-91.13
-86.66
-77.15
-63.44
-47.13
-30.14
-14.20
-0.42
10.91
20.16
27.97
34.85
40.95
46.13
50.15
52.95
54.76
56.00
57.06
58.15
59.23
60.13
60.75
61.11
61.35
61.54
61.56
61.07
59.62
56.87
52.76
47.55
41.67
35.59
29.58
23.68
17.72
11.52
4.92
-2.07
-9.31
-16.58
-23.63
-30.31
-36.60
-42.73
-49.11
-56.22
-64.33
-73.22
-82.15
-89.83
-94.77
-95.69
-91.83
-83.12
-70.26
-54.45
-37.17
-19.93
-3.97
9.89
21.38
30.71
38.39
44.92
50.54
55.25
58.85
61.22
62.46
62.92
63.08
63.26
63.56
63.84
63.90
63.62
63.01
62.13
60.98
59.43
57.20
54.05
49.91
44.99
39.70
34.55
29.93
25.88
22.17
18.28
13.69
8.13
1.69
-5.15
-11.75
-17.60
-22.60
-27.08
-31.74
-37.32
-44.34
-52.84
-62.27
-71.55
-79.19
-83.66
-83.67
-78.56
-68.53
-54.62
-38.47
-21.90
-6.45
6.92
17.92
26.82
34.09
40.19
45.42
49.83
53.36
55.97
57.78
58.99
59.91
60.76
61.60
62.34
62.75
62.60
61.80
60.34
58.32
55.85
52.95
49.62
45.78
41.42
36.57
31.32
25.83
20.34
15.21
10.93
8.04
7.02
8.07
11.09
15.56
20.78
25.97
30.44
33.64
35.23
35.08
33.26
30.07
26.03
21.83
18.15
15.55
14.30
14.35
15.39
16.96
18.66
20.18
21.36
22.12
22.44
22.31
21.74
20.81
19.60
18.27
16.97
15.76
14.67
13.63
12.53
11.28
9.82
8.18
6.49
4.91
3.53
2.37
1.29
0.12
-1.30
-3.04
-5.07
-7.35
-9.80
-12.39
-15.09
-17.86
-20.65
-23.42
-26.18
-29.02
-32.07
-35.44
-39.13
-43.03
-47.03
-51.03
-55.07
-59.38
-64.29
-70.12
-76.95
-84.40
-91.58
-97.22
-99.95
-98.73
-93.18
-83.69
-71.34
-57.54
-43.69
-30.97
-20.04
-11.17
-4.22
1.17
5.49
9.21
12.65
15.92
18.93
21.49
23.39
24.53
25.01
25.04
24.93
25.01
25.51
26.59
28.18
29.99
31.49
32.01
30.96
28.08
23.60
18.15
12.57
7.52
3.30
-0.19
-3.31
-6.39
-9.58
-12.82
-15.93
-18.74
-21.18
-23.33
-25.39
-27.71
-30.64
-34.50
-39.38
-45.01
-50.69
-55.40
-58.07
-57.89
-54.49
-48.12
-39.51
-29.61
-19.43
-9.76
-1.10
6.29
12.38
17.23
20.97
23.77
25.86
27.40
28.55
29.36
29.88
30.17
30.34
30.59
31.09
31.86
32.79
33.63
34.05
33.85
32.93
31.35
29.28
26.90
24.36
21.71
18.99
16.13
13.10
9.78
6.11
2.03
-2.43
-7.15
-11.93
-16.58
-21.01
-25.27
-29.67
-34.64
-40.61
-47.76
-55.77
-63.79
-70.50
-74.51
-74.75
-70.80
-63.08
-52.69
-41.03
-29.38
-18.65
-9.23
-1.16
5.70
11.49
16.33
20.35
23.67
26.46
28.81
30.73
32.17
33.06
33.45
33.55
33.68
34.11
34.95
36.09
37.18
37.84
37.69
36.57
34.49
31.63
28.25
24.59
20.78
16.81
12.57
7.96
2.92
-2.51
-8.15
-13.80
-19.27
-24.47
-29.49
-34.53
-39.94
-46.06
-53.06
-60.78
-68.53
-75.16
-79.26
-79.59
-75.51
-67.24
-55.87
-42.97
-30.09
-18.38
-8.33
0.14
7.34
13.56
18.98
23.60
27.42
30.47
32.82
34.56
35.73
36.33
36.46
36.31
36.23
36.51
37.24
38.25
39.16
39.56
39.15
37.81
35.59
32.66
29.18
25.35
21.24
16.89
12.24
7.25
1.88
-3.74
-9.40
-14.86
-19.93
-24.68
-29.36
-34.41
-40.24
-47.15
-55.12
-63.70
-71.96
-78.63
-82.34
-82.01
-77.16
-68.06
-55.69
-41.47
-26.94
-13.38
-1.64
7.96
15.57
21.60
26.53
30.66
34.05
36.59
38.18
38.84
38.79
38.38
37.93
37.68
37.71
37.93
38.20
38.33
38.16
37.57
36.52
34.96
32.87
30.21
26.90
22.88
18.17
12.89
7.26
1.57
-3.95
-9.20
-14.26
-19.33
-24.71
-30.72
-37.62
-45.47
-54.08
-62.86
-70.87
-76.90
-79.70
-78.27
-72.20
-61.84
-48.27
-33.06
-17.84
-3.93
7.92
17.59
25.36
31.71
37.00
41.37
44.79
47.18
48.55
49.05
49.02
48.82
48.74
48.90
49.27
49.68
49.87
49.66
48.89
47.51
45.45
42.69
39.18
34.92
29.99
24.56
18.85
13.07
7.35
1.75
-3.74
-9.15
-14.48
-19.72
-24.93
-30.26
-36.01
-42.57
-50.29
-59.18
-68.80
-78.10
-85.61
-89.78
-89.39
-83.96
-73.95
-60.60
-45.57
-30.50
-16.56
-4.35
6.08
15.03
22.81
29.66
35.63
40.64
44.62
47.58
49.64
51.01
51.93
52.58
53.10
53.55
53.94
54.28
54.47
54.37
53.78
52.44
50.15
46.86
42.69
37.87
32.73
27.53
22.36
17.17
11.77
5.98
-0.21
-6.65
-13.03
-19.02
-24.44
-29.38
-34.26
-39.70
-46.33
-54.49
-64.09
-74.38
-84.11
-91.67
-95.50
-94.44
-88.08
-76.90
-62.18
-45.68
-29.17
-13.99
-0.79
10.42
20.07
28.65
36.46
43.48
49.51
54.28
57.70
59.86
61.10
61.75
62.11
62.32
62.40
62.37
62.23
62.00
61.65
61.04
59.92
57.96
54.93
50.82
45.83
40.36
34.87
29.63
24.71
19.93
15.03
9.76
4.00
-2.23
-8.75
-15.33
-21.75
-27.96
-34.04
-40.27
-47.04
-54.64
-63.10
-71.96
-80.25
-86.61
-89.65
-88.34
-82.31
-72.03
-58.70
-43.88
-29.16
-15.73
-4.27
5.14
12.80
19.17
24.62
29.32
33.28
36.38
38.59
39.98
40.75
41.17
41.44
41.67
41.84
41.91
41.83
41.62
41.29
40.80
40.03
38.78
36.75
33.73
29.57
24.34
18.34
12.06
6.12
1.18
-2.12
-3.31
-2.10
1.46
7.02
13.89
21.24
28.14
33.82
37.72
39.55
39.35
37.41
34.29
30.68
27.35
24.95
23.86
24.14
25.48
27.42
29.40
31.04
32.09
32.51
32.32
31.58
30.36
28.72
26.72
24.49
22.15
19.84
17.60
15.46
13.36
11.22
8.97
6.60
4.13
1.63
-0.86
-3.29
-5.67
-8.05
-10.47
-12.96
-15.57
-18.29
-21.15
-24.15
-27.35
-30.78
-34.47
-38.39
-42.49
-46.76
-51.15
-55.74
-60.63
-66.01
-72.13
-79.16
-87.04
-95.26
-102.80
-108.30
-110.42
-108.21
-101.51
-90.92
-77.62
-63.00
-48.28
-34.42
-22.03
-11.49
-2.94
3.72
8.86
13.01
16.75
20.44
24.17
27.80
31.04
33.64
35.50
36.76
37.67
38.50
39.43
40.42
41.30
41.80
41.67
40.80
39.17
36.87
34.01
30.75
27.29
23.80
20.43
17.18
13.81
10.05
5.65
0.55
-5.01
-10.70
-16.19
-21.34
-26.24
-31.14
-36.40
-42.29
-48.92
-56.07
-63.07
-68.89
-72.33
-72.35
-68.47
-60.97
-50.74
-39.02
-26.99
-15.56
-5.24
3.74
11.36
17.70
22.89
27.16
30.68
33.61
35.92
37.56
38.47
38.72
38.60
38.51
38.83
39.73
41.15
42.76
44.16
44.97
44.94
43.97
42.06
39.30
35.84
31.92
27.80
23.63
19.46
15.18
10.61
5.68
0.48
-4.74
-9.68
-14.20
-18.42
-22.75
-27.71
-33.80
-41.20
-49.61
-58.11
-65.39
-70.00
-70.85
-67.55
-60.55
-51.01
-40.37
-29.98
-20.74
-12.99
-6.67
-1.51
2.80
6.48
9.63
12.32
14.61
16.56
18.19
19.56
20.68
21.57
22.27
22.92
23.69
24.78
26.24
27.97
29.67
30.98
31.53
31.15
29.92
28.10
26.04
24.00
22.00
19.84
17.18
13.72
9.38
4.28
-1.23
-6.83
-12.33
-17.81
-23.52
-29.78
-36.81
-44.57
-52.76
-60.71
-67.57
-72.37
-74.23
-72.59
-67.43
-59.23
-48.97
-37.87
-27.09
-17.48
-9.45
-2.97
2.27
6.68
10.54
13.95
16.84
19.09
20.64
21.61
22.21
22.71
23.28
23.96
24.69
25.34
25.76
25.81
25.36
24.28
22.50
20.05
17.06
13.74
10.28
6.78
3.19
-0.56
-4.53
-8.71
-12.96
-17.18
-21.29
-25.40
-29.70
-34.46
-39.90
-46.15
-53.09
-60.34
-67.21
-72.73
-75.85
-75.60
-71.41
-63.30
-51.93
-38.51
-24.44
-11.05
0.77
10.67
18.74
25.36
30.92
35.64
39.60
42.78
45.19
46.95
48.27
49.29
50.10
50.70
51.02
51.04
50.79
50.28
49.52
48.40
46.78
44.54
41.69
38.40
34.91
31.44
28.08
24.75
21.24
17.29
12.79
7.79
2.47
-2.88
-7.98
-12.70
-17.10
-21.36
-25.79
-30.73
-36.43
-42.89
-49.72
-56.12
-60.96
-63.07
-61.65
-56.51
-48.26
-38.11
-27.51
-17.72
-9.48
-2.97
2.13
6.36
10.21
13.95
17.66
21.20
24.42
27.17
29.37
31.07
32.32
33.23
33.91
34.52
35.17
36.01
37.10
38.43
39.87
41.23
42.30
42.95
43.14
42.89
42.24
41.17
39.61
37.35
34.21
29.94
24.45
17.79
10.28
2.46
-5.06
-11.78
-17.49
-22.37
-26.90
-31.65
-37.18
-43.80
-51.57
-60.16
-68.87
-76.59
-82.05
-84.14
-82.29
-76.69
-68.19
-57.99
-47.24
-36.73
-26.87
-17.78
-9.51
-2.06
4.64
10.81
16.77
22.81
29.01
35.19
40.99
46.04
50.10
53.11
55.14
56.29
56.59
56.05
54.68
52.55
49.82
46.65
43.14
39.30
35.06
30.47
25.66
20.89
16.41
12.39
8.80
5.41
1.94
-1.86
-6.08
-10.63
-15.29
-19.82
-24.06
-27.96
-31.69
-35.52
-39.88
-45.12
-51.47
-58.81
-66.66
-74.14
-80.08
-83.32
-83.05
-79.00
-71.60
-61.73
-50.52
-38.90
-27.49
-16.61
-6.42
2.92
11.19
18.23
23.98
28.55
32.13
34.88
36.86
38.09
38.64
38.72
38.67
38.80
39.31
40.19
41.24
42.18
42.75
42.74
42.04
40.57
38.37
35.56
32.31
28.82
25.18
21.38
17.40
13.21
8.87
4.50
0.15
-4.20
-8.64
-13.23
-17.97
-22.77
-27.48
-32.17
-37.03
-42.39
-48.58
-55.63
-63.16
-70.36
-76.10
-79.21
-78.80
-74.47
-66.52
-55.81
-43.60
-31.18
-19.56
-9.31
-0.54
6.88
13.18
18.43
22.65
25.80
27.92
29.20
30.00
30.67
31.49
32.57
33.85
35.14
36.22
36.90
37.10
36.79
36.01
34.84
33.34
31.59
29.65
27.52
25.18
22.53
19.46
16.03
12.50
9.48
7.72
7.96
10.57
15.38
21.68
28.45
34.63
39.44
42.45
43.60
43.00
40.86
37.48
33.27
28.77
24.61
21.38
19.42
18.81
19.30
20.48
21.87
23.11
23.99
24.48
24.64
24.54
24.23
23.71
22.90
21.79
20.35
18.72
17.02
15.40
13.89
12.40
10.80
9.00
7.01
4.91
2.87
0.99
-0.75
-2.47
-4.35
-6.50
-8.93
-11.53
-14.13
-16.64
-19.06
-21.55
-24.31
-27.50
-31.20
-35.33
-39.67
-43.96
-47.98
-51.64
-55.06
-58.58
-62.64
-67.70
-73.98
-81.27
-88.78
-95.23
-99.12
-99.16
-94.72
-86.05
-74.19
-60.68
-47.08
-34.66
-24.10
-15.56
-8.79
-3.27
1.52
6.05
10.53
14.93
19.03
22.59
25.47
27.67
29.39
30.83
32.12
33.27
34.28
35.20
36.16
37.33
38.68
39.95
40.64
40.26
38.57
35.72
32.22
28.69
25.58
22.93
20.50
17.86
14.65
10.75
6.23
1.32
-3.70
-8.61
-13.29
-17.66
-21.79
-25.87
-30.17
-34.98
-40.36
-46.02
-51.22
-54.95
-56.20
-54.29
-49.11
-41.20
-31.54
-21.38
-11.85
-3.73
2.62
7.30
10.67
13.16
15.11
16.62
17.66
18.13
18.02
17.49
16.78
16.16
15.73
15.57
15.68
16.10
16.91
18.12
19.62
21.10
22.15
22.42
21.69
20.02
17.70
15.16
12.78
10.73
8.98
7.20
5.03
2.16
-1.56
-5.98
-10.77
-15.58
-20.11
-24.28
-28.25
-32.38
-37.13
-42.91
-49.91
-57.87
-66.07
-73.35
-78.35
-79.89
-77.32
-70.75
-61.02
-49.41
-37.22
-25.52
-14.88
-5.52
2.56
9.45
15.18
19.78
23.29
25.80
27.49
28.58
29.25
29.71
30.04
30.30
30.53
30.73
30.94
31.17
31.39
31.45
31.10
30.04
28.11
25.38
22.12
18.73
15.49
12.42
9.29
5.71
1.33
-3.94
-9.91
-16.17
-22.27
-27.94
-33.21
-38.46
-44.21
-50.95
-58.76
-67.16
-75.17
-81.44
-84.67
-83.87
-78.66
-69.31
-56.66
-41.95
-26.59
-11.95
0.91
11.34
19.25
24.96
29.05
32.11
34.51
36.36
37.62
38.25
38.35
38.14
37.91
37.90
38.20
38.71
39.20
39.40
39.07
38.04
36.25
33.69
30.43
26.52
22.01
17.02
11.64
6.07
0.52
-4.77
-9.67
-14.14
-18.31
-22.50
-27.10
-32.53
-39.06
-46.66
-54.89
-62.83
-69.27
-72.95
-72.87
-68.57
-60.26
-48.76
-35.35
-21.45
-8.32
3.17
12.66
20.22
26.26
31.24
35.51
39.20
42.22
44.43
45.77
46.37
46.48
46.42
46.41
46.50
46.57
46.42
45.83
44.68
42.93
40.64
37.92
34.91
31.77
28.61
25.43
22.12
18.50
14.36
9.65
4.43
-1.13
-6.86
-12.60
-18.37
-24.29
-30.63
-37.81
-46.37
-56.68
-68.72
-81.80
-94.52
-105.08
-111.69
-113.15
-109.12
-100.11
-87.28
-72.07
-55.87
-39.77
-24.50
-10.30
2.83
15.06
26.47
36.98
46.33
54.26
60.65
65.55
69.19
71.87
73.80
75.18
76.20
77.00
77.69
78.25
78.51
78.21
77.06
74.90
71.75
67.80
63.30
58.52
53.62
48.64
43.56
38.27
32.66
26.74
20.62
14.46
8.49
2.85
-2.51
-7.85
-13.61
-20.17
-27.73
-36.10
-44.63
-52.27
-57.81
-60.13
-58.60
-53.18
-44.58
-34.01
-22.88
-12.40
-3.26
4.41
10.89
16.62
21.87
26.70
30.99
34.58
37.39
39.43
40.76
41.40
41.41
40.95
40.33
39.96
40.20
41.20
42.75
44.39
45.54
45.76
44.74
42.41
38.77
34.02
28.43
22.44
16.48
10.86
5.63
0.56
-4.65
-10.22
-16.09
-21.95
-27.41
-32.20
-36.38
-40.25
-44.34
-49.16
-55.01
-61.84
-69.14
-75.98
-81.12
-83.40
-82.02
-76.81
-68.30
-57.58
-45.89
-34.31
-23.57
-13.92
-5.33
2.40
9.42
15.78
21.43
26.23
30.12
33.09
35.24
36.74
37.80
38.60
39.28
39.98
40.78
41.71
42.73
43.65
44.20
44.04
42.98
41.00
38.28
35.09
31.66
28.12
24.43
20.55
16.36
11.83
7.00
1.93
-3.26
-8.39
-13.29
-17.80
-21.87
-25.68
-29.64
-34.28
-40.04
-47.06
-55.01
-63.01
-69.85
-74.22
-75.15
-72.18
-65.53
-56.00
-44.71
-32.85
-21.41
-11.02
-1.96
5.78
12.35
17.92
22.54
26.20
28.88
30.61
31.54
31.94
32.12
32.32
32.66
33.08
33.47
33.64
33.45
32.86
31.83
30.42
28.66
26.58
24.15
21.34
18.10
14.34
10.06
5.38
0.68
-3.42
-6.14
-6.78
-4.91
-0.62
5.55
12.70
19.87
26.20
31.14
34.41
35.91
35.72
34.02
31.11
27.48
23.77
20.69
18.81
18.43
19.43
21.37
23.62
25.60
26.93
27.52
27.47
26.97
26.20
25.28
24.28
23.22
22.13
21.01
19.82
18.43
16.73
14.64
12.16
9.45
6.73
4.21
1.92
-0.24
-2.46
-4.85
-7.41
-9.98
-12.38
-14.53
-16.53
-18.64
-21.12
-24.13
-27.70
-31.72
-36.03
-40.48
-44.92
-49.24
-53.35
-57.36
-61.62
-66.64
-72.87
-80.37
-88.56
-96.20
-101.73
-103.70
-101.32
-94.69
-84.70
-72.65
-59.86
-47.33
-35.66
-25.17
-16.03
-8.30
-1.92
3.33
7.82
11.92
15.88
19.75
23.39
26.62
29.36
31.61
33.50
35.16
36.72
38.20
39.59
40.78
41.60
41.85
41.34
40.00
37.89
35.21
32.24
29.22
26.31
23.51
20.69
17.63
14.15
10.14
5.69
1.04
-3.56
-7.87
-11.84
-15.58
-19.41
-23.71
-28.86
-35.14
-42.50
-50.52
-58.29
-64.57
-68.04
-67.73
-63.41
-55.70
-45.84
-35.25
-25.10
-15.98
-7.97
-0.89
5.46
11.12
16.01
20.06
23.30
25.90
28.09
29.99
31.63
32.93
33.85
34.41
34.78
35.14
35.70
36.50
37.38
37.94
37.71
36.31
33.64
29.98
25.86
21.88
18.40
15.47
12.76
9.82
6.26
1.94
-2.96
-8.05
-12.96
-17.44
-21.50
-25.46
-29.76
-34.81
-40.86
-47.79
-55.07
-61.83
-66.99
-69.56
-68.91
-64.88
-57.91
-48.84
-38.68
-28.38
-18.62
-9.83
-2.16
4.36
9.87
14.59
18.72
22.45
25.86
28.90
31.40
33.27
34.45
35.09
35.43
35.77
36.31
37.17
38.24
39.30
40.01
40.05
39.17
37.29
34.49
31.03
27.21
23.30
19.41
15.56
11.62
7.44
2.98
-1.66
-6.28
-10.68
-14.84
-19.04
-23.74
-29.52
-36.71
-45.21
-54.32
-62.84
-69.40
-72.82
-72.48
-68.49
-61.65
-53.13
-44.07
-35.34
-27.35
-20.09
-13.36
-7.00
-0.98
4.55
9.39
13.38
16.52
18.91
20.73
22.10
23.13
23.92
24.57
25.26
26.12
27.16
28.28
29.23
29.77
29.73
29.04
27.77
26.01
23.84
21.26
18.27
14.83
10.95
6.64
1.93
-3.14
-8.51
-14.07
-19.73
-25.47
-31.43
-37.82
-44.78
-52.22
-59.56
-65.79
-69.73
-70.33
-67.06
-60.09
-50.18
-38.45
-26.09
-14.01
-2.81
7.20
15.91
23.35
29.54
34.55
38.47
41.46
43.70
45.40
46.78
48.01
49.20
50.33
51.37
52.27
52.95
53.24
52.88
51.55
49.00
45.14
40.17
34.54
28.76
23.25
18.16
13.36
8.61
3.68
-1.51
-6.89
-12.30
-17.57
-22.62
-27.42
-32.06
-36.67
-41.54
-47.02
-53.41
-60.79
-68.77
-76.42
-82.45
-85.49
-84.56
-79.42
-70.59
-59.19
-46.59
-34.00
-22.22
-11.59
-2.07
6.50
14.29
21.32
27.55
32.82
37.07
40.26
42.52
44.03
45.03
45.66
46.02
46.19
46.28
46.43
46.76
47.27
47.72
47.70
46.76
44.64
41.44
37.61
33.78
30.43
27.68
25.25
22.57
19.09
14.59
9.29
3.76
-1.28
-5.31
-8.22
-10.29
-12.11
-14.29
-17.31
-21.41
-26.59
-32.55
-38.71
-44.22
-48.08
-49.39
-47.68
-43.20
-36.78
-29.64
-22.88
-17.16
-12.59
-8.92
-5.77
-2.87
-0.11
2.55
5.12
7.63
10.07
12.36
14.35
15.95
17.17
18.18
19.24
20.56
22.24
24.24
26.35
28.29
29.87
30.92
31.36
31.16
30.31
28.81
26.70
24.07
21.11
18.01
14.93
11.87
8.67
5.14
1.14
-3.28
-7.91
-12.47
-16.74
-20.65
-24.33
-28.04
-32.15
-37.04
-42.98
-49.93
-57.46
-64.59
-70.01
-72.44
-71.07
-65.84
-57.47
-47.13
-36.05
-25.19
-15.06
-5.87
2.38
9.74
16.23
21.89
26.73
30.77
34.01
36.49
38.29
39.54
40.43
41.12
41.71
42.21
42.64
43.00
43.34
43.65
43.84
43.72
43.10
41.83
39.94
37.60
35.09
32.61
30.23
27.79
25.02
21.65
17.57
12.93
8.02
3.25
-1.15
-5.10
-8.71
-12.26
-16.08
-20.57
-26.07
-32.87
-40.94
-49.79
-58.36
-65.28
-69.21
-69.37
-65.81
-59.34
-51.22
-42.69
-34.61
-27.32
-20.77
-14.77
-9.14
-3.88
0.88
4.94
8.21
10.72
12.69
14.40
16.10
17.91
19.77
21.51
22.97
24.04
24.78
25.27
25.59
25.74
25.65
25.15
24.01
22.00
18.98
14.99
10.27
5.29
0.65
-3.04
-5.24
-5.55
-3.76
0.11
5.80
12.78
20.34
27.64
33.92
38.57
41.26
41.97
40.95
38.64
35.63
32.55
29.97
28.22
27.41
27.36
27.78
28.36
28.91
29.32
29.52
29.41
28.81
27.55
25.63
23.19
20.60
18.30
16.60
15.57
15.09
14.88
14.67
14.32
13.83
13.27
12.68
11.99
11.05
9.68
7.78
5.40
2.76
0.12
-2.35
-4.70
-7.18
-10.16
-13.94
-18.64
-24.05
-29.79
-35.41
-40.58
-45.16
-49.15
-52.63
-55.73
-58.68
-61.90
-65.97
-71.37
-78.13
-85.51
-92.07
-95.98
-95.76
-90.79
-81.60
-69.64
-56.71
-44.36
-33.55
-24.57
-17.34
-11.58
-7.06
-3.54
-0.72
1.74
4.21
6.95
10.03
13.28
16.40
19.11
21.22
22.80
24.05
25.24
26.59
28.13
29.76
31.24
32.29
32.67
32.21
30.89
28.79
26.18
23.29
20.32
17.32
14.19
10.76
6.97
2.92
-1.11
-4.85
-8.19
-11.21
-14.22
-17.60
-21.68
-26.69
-32.71
-39.54
-46.73
-53.44
-58.54
-60.88
-59.66
-54.73
-46.74
-36.91
-26.63
-17.04
-8.77
-1.92
3.74
8.58
12.89
16.82
20.38
23.49
26.08
28.07
29.44
30.18
30.37
30.18
29.84
29.62
29.73
30.19
30.87
31.47
31.63
31.14
30.01
28.41
26.57
24.72
22.98
21.29
19.48
17.27
14.41
10.75
6.29
1.23
-4.11
-9.41
-14.44
-19.19
-23.88
-28.86
-34.54
-41.11
-48.40
-55.83
-62.40
-66.97
-68.52
-66.53
-61.09
-52.94
-43.15
-32.87
-23.03
-14.21
-6.66
-0.40
4.74
8.98
12.60
15.81
18.71
21.26
23.38
24.97
26.02
26.63
26.97
27.21
27.49
27.90
28.42
28.99
29.46
29.66
29.36
28.39
26.71
24.35
21.44
18.15
14.61
10.90
7.09
3.18
-0.84
-4.95
-9.13
-13.31
-17.44
-21.54
-25.72
-30.27
-35.48
-41.58
-48.47
-55.64
-62.13
-66.73
-68.32
-66.24
-60.54
-52.02
-41.98
-31.77
-22.39
-14.30
-7.40
-1.30
4.38
9.77
14.78
19.16
22.73
25.45
27.44
28.92
30.07
31.00
31.74
32.32
32.80
33.25
33.71
34.09
34.18
33.68
32.35
30.16
27.20
23.73
20.00
16.15
12.22
8.19
4.01
-0.30
-4.70
-9.16
-13.60
-17.99
-22.33
-26.71
-31.37
-36.64
-42.78
-49.73
-56.99
-63.49
-67.97
-69.28
-66.82
-60.71
-51.72
-40.99
-29.67
-18.62
-8.38
0.85
8.99
16.08
22.16
27.26
31.47
34.88
37.59
39.67
41.16
42.12
42.68
42.95
43.11
43.23
43.36
43.38
43.12
42.35
40.94
38.83
36.07
32.79
29.11
25.16
20.98
16.58
11.99
7.25
2.40
-2.44
-7.19
-11.79
-16.24
-20.61
-25.07
-29.89
-35.37
-41.77
-49.11
-57.07
-64.92
-71.58
-75.87
-76.78
-73.78
-66.94
-56.93
-44.85
-31.92
-19.29
-7.78
2.23
10.71
17.91
24.17
29.77
34.80
39.19
42.77
45.44
47.27
48.46
49.24
49.85
50.40
50.90
51.35
51.68
51.82
51.70
51.19
50.12
48.42
46.02
42.98
39.46
35.72
32.03
28.61
25.49
22.48
19.20
15.22
10.32
4.64
-1.36
-7.13
-12.25
-16.76
-21.07
-25.82
-31.61
-38.68
-46.74
-54.99
-62.34
-67.54
-69.58
-67.85
-62.39
-53.82
-43.24
-32.00
-21.28
-11.93
-4.24
1.91
6.93
11.31
15.41
19.42
23.32
26.92
30.00
32.33
33.84
34.53
34.55
34.16
33.70
33.51
33.83
34.76
36.17
37.76
39.14
39.91
39.78
38.63
36.55
33.76
30.58
27.33
24.21
21.29
18.49
15.63
12.52
9.06
5.22
1.05
-3.39
-7.98
-12.61
-17.18
-21.57
-25.78
-29.92
-34.22
-39.00
-44.57
-51.09
-58.45
-66.21
-73.52
-79.34
-82.59
-82.45
-78.61
-71.34
-61.39
-49.79
-37.59
-25.64
-14.53
-4.52
4.37
12.26
19.30
25.63
31.27
36.17
40.22
43.34
45.55
46.99
47.90
48.51
48.98
49.38
49.73
50.02
50.20
50.24
50.06
49.52
48.50
46.91
44.73
42.03
38.94
35.58
32.05
28.42
24.77
21.15
17.57
14.00
10.30
6.34
2.04
-2.54
-7.25
-11.93
-16.45
-20.77
-24.97
-29.17
-33.57
-38.45
-44.06
-50.59
-57.84
-65.14
-71.35
-75.16
-75.47
-71.83
-64.62
-54.83
-43.80
-32.74
-22.44
-13.26
-5.24
1.76
7.87
13.18
17.71
21.46
24.42
26.61
28.07
28.95
29.44
29.73
29.99
30.28
30.58
30.76
30.66
30.11
29.03
27.47
25.56
23.49
21.42
19.43
17.47
15.42
13.11
10.37
7.21
3.78
0.51
-1.99
-3.08
-2.19
0.90
6.00
12.51
19.57
26.20
31.61
35.21
36.74
36.23
34.04
30.71
26.94
23.43
20.78
19.29
19.10
20.05
21.88
24.21
26.68
28.96
30.77
31.93
32.33
31.96
30.89
29.29
27.35
25.25
23.12
21.07
19.12
17.31
15.65
14.11
12.66
11.25
9.79
8.24
6.58
4.85
3.11
1.43
-0.23
-1.92
-3.77
-5.86
-8.18
-10.60
-12.92
-14.99
-16.82
-18.62
-20.68
-23.24
-26.34
-29.84
-33.49
-37.09
-40.56
-43.97
-47.46
-51.17
-55.21
-59.77
-65.05
-71.19
-78.03
-85.03
-91.15
-95.13
-95.80
-92.55
-85.51
-75.48
-63.73
-51.58
-40.06
-29.80
-21.03
-13.67
-7.51
-2.22
2.42
6.63
10.49
14.04
17.27
20.19
22.84
25.24
27.43
29.38
31.07
32.47
33.62
34.60
35.48
36.30
36.98
37.35
37.22
36.40
34.74
32.27
29.19
25.78
22.42
19.33
16.56
13.95
11.24
8.20
4.75
0.94
-3.12
-7.30
-11.55
-15.78
-19.85
-23.64
-27.07
-30.28
-33.68
-37.83
-43.18
-49.77
-57.00
-63.72
-68.49
-70.05
-67.74
-61.71
-52.84
-42.42
-31.75
-21.83
-13.20
-5.95
0.04
5.06
9.33
13.04
16.32
19.20
21.73
23.92
25.77
27.32
28.58
29.56
30.30
30.90
31.50
32.29
33.36
34.69
36.11
37.34
38.06
37.99
36.99
35.03
32.25
28.91
25.30
21.69
18.22
14.89
11.53
7.96
4.06
-0.12
-4.41
-8.59
-12.49
-16.08
-19.49
-22.99
-26.93
-31.68
-37.51
-44.48
-52.31
-60.26
-67.22
-71.93
-73.29
-70.75
-64.50
-55.47
-44.98
-34.40
-24.74
-16.52
-9.71
-4.00
1.05
5.75
10.19
14.29
17.89
20.80
22.98
24.53
25.64
26.54
27.37
28.23
29.13
30.11
31.22
32.50
33.86
35.08
35.84
35.83
34.90
33.06
30.51
27.55
24.48
21.53
18.81
16.24
13.65
10.77
7.42
3.53
-0.75
-5.17
-9.50
-13.57
-17.46
-21.32
-25.44
-30.08
-35.48
-41.73
-48.73
-56.01
-62.69
-67.62
-69.65
-68.02
-62.68
-54.36
-44.32
-33.97
-24.43
-16.22
-9.32
-3.36
2.07
7.24
12.18
16.79
20.95
24.57
27.60
30.02
31.77
32.79
33.11
32.90
32.46
32.17
32.38
33.25
34.66
36.24
37.47
37.79
36.91
34.76
31.69
28.18
24.69
21.51
18.62
15.79
12.75
9.30
5.45
1.30
-3.00
-7.35
-11.71
-16.06
-20.40
-24.80
-29.42
-34.55
-40.43
-47.10
-54.16
-60.64
-65.30
-66.93
-64.82
-59.04
-50.43
-40.29
-29.94
-20.33
-11.88
-4.55
1.89
7.66
12.88
17.60
21.85
25.70
29.27
32.55
35.51
37.96
39.76
40.84
41.23
41.07
40.52
39.71
38.71
37.54
36.17
34.61
32.82
30.77
28.50
26.01
23.39
20.67
17.88
14.90
11.57
7.68
3.14
-1.99
-7.43
-12.81
-17.82
-22.37
-26.65
-31.08
-36.24
-42.60
-50.35
-59.21
-68.39
-76.71
-82.83
-85.65
-84.57
-79.69
-71.64
-61.44
-50.09
-38.48
-27.21
-16.66
-7.02
1.68
9.48
16.47
22.70
28.17
32.77
36.38
39.01
40.79
42.02
43.00
43.97
44.99
45.98
46.82
47.37
47.55
47.33
46.71
45.66
44.12
42.01
39.32
36.16
32.72
29.28
26.00
22.90
19.80
16.40
12.43
7.78
2.52
-3.10
-8.81
-14.43
-19.92
-25.35
-30.84
-36.55
-42.67
-49.40
-56.91
-65.12
-73.58
-81.38
-87.27
-89.94
-88.44
-82.44
-72.38
-59.33
-44.68
-29.82
-15.81
-3.28
7.57
16.89
24.95
32.04
38.28
43.68
48.14
51.50
53.72
54.84
55.07
54.72
54.14
53.63
53.31
53.19
53.14
53.05
52.85
52.46
51.75
50.46
48.25
44.93
40.56
35.57
30.57
26.10
22.37
19.21
16.20
12.87
8.98
4.53
-0.31
-5.30
-10.30
-15.20
-19.91
-24.38
-28.68
-33.09
-38.05
-44.04
-51.22
-59.19
-66.85
-72.71
-75.40
-74.09
-68.80
-60.35
-49.96
-38.82
-27.82
-17.46
-7.90
0.80
8.63
15.62
21.83
27.31
32.14
36.30
39.75
42.46
44.44
45.82
46.69
47.18
47.35
47.30
47.15
47.01
46.89
46.64
45.90
44.32
41.69
38.10
33.96
29.80
26.04
22.86
20.16
17.66
15.07
12.13
8.69
4.71
0.24
-4.55
-9.42
-14.13
-18.58
-22.80
-26.99
-31.48
-36.57
-42.48
-49.17
-56.29
-63.10
-68.55
-71.56
-71.33
-67.55
-60.53
-51.07
-40.13
-28.68
-17.46
-6.98
2.38
10.42
17.04
22.28
26.29
29.27
31.40
32.79
33.58
33.96
34.20
34.57
35.26
36.33
37.65
38.99
40.09
40.75
40.84
40.26
38.90
36.71
33.66
29.89
25.66
21.38
17.39
13.90
10.81
7.86
4.71
1.12
-2.96
-7.36
-11.82
-16.11
-20.16
-24.04
-27.97
-32.24
-37.13
-42.85
-49.31
-56.10
-62.43
-67.24
-69.42
-68.25
-63.58
-55.93
-46.33
-35.95
-25.73
-16.22
-7.55
0.35
7.55
13.99
19.52
24.05
27.57
30.27
32.40
34.13
35.51
36.53
37.17
37.54
37.83
38.27
38.96
39.85
40.71
41.22
41.09
40.14
38.35
35.81
32.70
29.21
25.55
21.92
18.48
15.31
12.33
9.31
5.97
2.07
-2.42
-7.32
-12.24
-16.81
-20.76
-24.11
-27.13
-30.28
-34.07
-38.84
-44.65
-51.18
-57.74
-63.35
-66.97
-67.72
-65.20
-59.60
-51.60
-42.30
-32.83
-24.08
-16.57
-10.32
-5.08
-0.41
4.05
8.43
12.65
16.47
19.66
22.12
23.89
25.22
26.34
27.46
28.65
29.88
31.06
32.11
33.05
33.90
34.68
35.32
35.60
35.27
34.08
31.94
28.98
25.54
22.04
18.82
15.98
13.37
10.67
7.50
3.65
-0.86
-5.74
-10.60
-15.10
-19.15
-22.89
-26.65
-30.78
-35.60
-41.28
-47.84
-55.07
-62.50
-69.32
-74.45
-76.80
-75.51
-70.33
-61.71
-50.74
-38.73
-26.92
-16.12
-6.71
1.32
8.16
14.07
19.24
23.77
27.70
30.97
33.57
35.46
36.75
37.58
38.17
38.65
39.07
39.44
39.71
39.90
40.08
40.25
40.29
39.95
38.95
37.09
34.38
31.04
27.39
23.77
20.36
17.16
14.09
10.99
7.68
4.09
0.21
-3.90
-8.07
-12.17
-16.06
-19.70
-23.16
-26.68
-30.58
-35.22
-40.83
-47.39
-54.43
-60.99
-65.81
-67.62
-65.63
-59.83
-51.06
-40.74
-30.36
-21.05
-13.31
-7.07
-1.90
2.60
6.69
10.41
13.64
16.34
18.51
20.29
21.80
23.14
24.35
25.37
26.17
26.71
27.01
27.13
27.14
27.03
26.70
25.95
24.63
22.61
19.90
16.62
12.88
8.80
4.53
0.30
-3.46
-6.15
-7.13
-5.86
-2.15
3.75
11.18
19.26
27.05
33.74
38.77
41.80
42.73
41.66
38.89
34.91
30.36
25.94
22.33
19.94
18.96
19.21
20.31
21.78
23.25
24.51
25.52
26.31
26.88
27.16
27.03
26.43
25.39
24.02
22.46
20.82
19.12
17.35
15.52
13.65
11.78
9.93
8.11
6.27
4.35
2.31
0.06
-2.40
-5.04
-7.74
-10.34
-12.75
-14.96
-17.12
-19.44
-22.12
-25.29
-28.87
-32.66
-36.39
-39.83
-42.89
-45.68
-48.44
-51.63
-55.70
-61.03
-67.75
-75.56
-83.69
-90.98
-96.02
-97.50
-94.62
-87.39
-76.62
-63.78
-50.50
-38.17
-27.61
-19.01
-12.09
-6.33
-1.21
3.72
8.68
13.71
18.67
23.31
27.33
30.50
32.72
34.02
34.49
34.25
33.47
32.36
31.12
29.91
28.77
27.56
26.06
24.07
21.51
18.53
15.41
12.42
9.73
7.30
4.95
2.41
-0.54
-4.02
-8.00
-12.28
-16.64
-20.78
-24.51
-27.78
-30.77
-33.94
-37.87
-43.08
-49.71
-57.28
-64.67
-70.32
-72.70
-70.87
-64.76
-55.18
-43.53
-31.30
-19.75
-9.66
-1.40
5.04
9.93
13.68
16.74
19.47
22.04
24.37
26.32
27.73
28.60
29.10
29.49
29.98
30.67
31.58
32.62
33.68
34.51
34.85
34.43
33.08
30.81
27.83
24.44
20.92
17.38
13.81
10.11
6.20
2.04
-2.33
-6.79
-11.21
-15.53
-19.73
-23.97
-28.50
-33.63
-39.54
-46.06
-52.57
-58.04
-61.24
-61.18
-57.36
-50.05
-40.21
-29.24
-18.53
-9.14
-1.58
4.20
8.57
12.03
14.95
17.49
19.67
21.41
22.66
23.45
23.87
24.04
24.08
24.09
24.18
24.39
24.71
25.10
25.39
25.45
25.12
24.33
23.03
21.19
18.82
15.92
12.60
8.94
5.06
1.06
-3.02
-7.15
-11.29
-15.39
-19.48
-23.65
-28.18
-33.42
-39.61
-46.61
-53.79
-60.00
-63.91
-64.45
-61.15
-54.38
-45.17
-34.92
-24.88
-15.84
-8.07
-1.41
4.45
9.71
14.48
18.72
22.37
25.45
28.02
30.15
31.88
33.19
34.08
34.65
35.11
35.72
36.61
37.74
38.76
39.21
38.63
36.79
33.80
30.07
26.14
22.49
19.33
16.56
13.88
10.90
7.37
3.28
-1.20
-5.78
-10.23
-14.43
-18.47
-22.59
-27.19
-32.68
-39.34
-47.13
-55.49
-63.32
-69.19
-71.70
-70.03
-64.16
-54.95
-43.82
-32.25
-21.41
-11.92
-3.89
2.96
9.00
14.60
19.96
25.10
29.86
33.97
37.20
39.48
40.97
41.95
42.75
43.56
44.39
45.12
45.63
45.87
45.88
45.74
45.40
44.73
43.49
41.46
38.62
35.15
31.41
27.74
24.36
21.20
17.95
14.22
9.71
4.45
-1.23
-6.79
-11.74
-15.85
-19.33
-22.78
-26.95
-32.50
-39.72
-48.33
-57.53
-66.04
-72.42
-75.38
-74.18
-68.76
-59.85
-48.67
-36.67
-25.13
-14.97
-6.56
0.23
5.84
10.85
15.71
20.65
25.54
30.07
33.91
36.86
38.90
40.25
41.16
41.84
42.43
43.02
43.68
44.47
45.38
46.31
47.02
47.19
46.48
44.69
41.86
38.21
34.17
30.16
26.49
23.26
20.32
17.33
13.93
9.89
5.18
0.00
-5.27
-10.26
-14.75
-18.74
-22.50
-26.47
-31.16
-37.00
-44.13
-52.36
-61.03
-69.02
-74.96
-77.53
-75.89
-69.94
-60.47
-48.89
-36.84
-25.69
-16.19
-8.43
-2.00
3.65
8.97
14.09
18.95
23.29
26.93
29.83
32.06
33.81
35.25
36.53
37.70
38.81
39.89
40.95
41.97
42.84
43.42
43.50
42.85
41.28
38.69
35.14
30.87
26.36
22.14
18.64
16.05
14.21
12.63
10.73
7.96
4.11
-0.70
-6.04
-11.36
-16.20
-20.40
-24.18
-28.04
-32.63
-38.50
-45.83
-54.37
-63.25
-71.21
-76.77
-78.58
-75.89
-68.75
-58.07
-45.38
-32.41
-20.56
-10.58
-2.53
4.00
9.60
14.74
19.57
24.04
27.97
31.23
33.80
35.74
37.19
38.28
39.16
39.96
40.85
41.96
43.30
44.76
46.00
46.70
46.54
45.46
43.59
41.19
38.54
35.80
33.02
30.16
27.22
24.25
21.35
18.60
15.97
13.25
10.18
6.53
2.27
-2.49
-7.50
-12.52
-17.43
-22.25
-27.10
-32.14
-37.53
-43.48
-50.19
-57.73
-65.93
-74.16
-81.27
-85.83
-86.50
-82.51
-74.07
-62.33
-49.07
-36.14
-24.86
-15.72
-8.45
-2.35
3.30
8.86
14.32
19.42
23.87
27.51
30.38
32.58
34.23
35.40
36.12
36.48
36.62
36.73
36.98
37.41
37.86
38.03
37.57
36.24
34.00
30.99
27.46
23.65
19.65
15.46
11.11
6.76
2.84
0.03
-0.94
0.53
4.69
11.30
19.66
28.68
37.11
43.83
48.04
49.42
48.12
44.72
40.02
34.86
30.01
26.04
23.24
21.69
21.25
21.71
22.75
24.03
25.22
26.02
26.21
25.73
24.69
23.31
21.83
20.42
19.10
17.83
16.58
15.37
14.28
13.37
12.62
11.91
11.08
10.00
8.61
6.98
5.24
3.47
1.73
0.01
-1.71
-3.47
-5.26
-7.09
-8.95
-10.86
-12.84
-14.88
-17.04
-19.36
-22.00
-25.11
-28.80
-33.03
-37.62
-42.25
-46.63
-50.59
-54.20
-57.74
-61.65
-66.44
-72.45
-79.66
-87.47
-94.68
-99.74
-101.14
-97.87
-89.84
-77.90
-63.64
-48.90
-35.34
-24.04
-15.42
-9.24
-4.88
-1.59
1.25
4.01
6.70
9.21
11.40
13.28
15.00
16.79
18.77
20.92
23.11
25.20
27.13
28.99
30.87
32.78
34.60
36.01
36.71
36.52
35.45
33.72
31.61
29.36
27.02
24.50
21.64
18.36
14.68
10.71
6.57
2.34
-1.96
-6.30
-10.64
-14.90
-19.10
-23.34
-27.93
-33.25
-39.63
-47.06
-55.05
-62.56
-68.18
-70.48
-68.45
-61.90
-51.55
-38.81
-25.39
-12.78
-1.94
6.77
13.47
18.45
22.09
24.70
26.60
28.10
29.52
31.05
32.71
34.35
35.76
36.77
37.33
37.57
37.71
37.92
38.24
38.56
38.63
38.12
36.77
34.44
31.18
27.21
22.85
18.46
14.31
10.54
7.09
3.72
0.12
-4.02
-8.82
-14.23
-19.97
-25.69
-31.06
-35.99
-40.67
-45.51
-51.02
-57.53
-64.95
-72.64
-79.42
-83.89
-84.75
-81.18
-73.18
-61.61
-47.91
-33.81
-20.75
-9.67
-0.83
6.05
11.56
16.31
20.70
24.82
28.56
31.77
34.37
36.48
38.32
40.01
41.60
42.90
43.67
43.74
43.13
42.01
40.61
39.07
37.30
35.11
32.24
28.61
24.33
19.74
15.23
11.13
7.58
4.44
1.41
-1.85
-5.61
-9.91
-14.57
-19.32
-23.86
-28.07
-31.98
-35.83
-39.99
-44.83
-50.63
-57.43
-64.94
-72.41
-78.69
-82.43
-82.42
-77.97
-69.24
-57.23
-43.54
-29.84
-17.46
-7.05
1.40
8.34
14.28
19.59
24.38
28.58
32.15
35.19
37.85
40.32
42.59
44.52
45.88
46.57
46.72
46.70
46.88
47.46
48.34
49.12
49.30
48.57
46.79
44.06
40.64
36.84
32.98
29.36
26.20
23.49
20.96
18.14
14.53
9.92
4.42
-1.54
-7.39
-12.81
-17.84
-22.85
-28.46
-35.19
-43.30
-52.60
-62.40
-71.59
-78.86
-82.96
-83.00
-78.74
-70.69
-60.02
-48.24
-36.82
-26.73
-18.32
-11.37
-5.36
0.19
5.47
10.35
14.50
17.63
19.67
20.83
21.52
22.15
22.97
24.03
25.22
26.38
27.42
28.39
29.31
30.17
30.81
30.93
30.24
28.55
25.88
22.36
18.19
13.55
8.67
3.88
-0.27
-3.09
-3.87
-2.16
2.13
8.60
16.49
24.82
32.60
39.01
43.51
45.90
46.31
45.14
42.93
40.26
37.56
35.20
33.35
32.12
31.55
31.62
32.23
33.18
34.16
34.87
35.08
34.72
33.83
32.53
30.94
29.06
26.87
24.33
21.51
18.56
15.67
13.02
10.67
8.56
6.61
4.70
2.83
1.00
-0.79
-2.58
-4.48
-6.57
-8.87
-11.31
-13.78
-16.21
-18.58
-21.03
-23.73
-26.85
-30.44
-34.42
-38.62
-42.82
-46.87
-50.71
-54.52
-58.62
-63.53
-69.70
-77.29
-85.95
-94.64
-101.79
-105.67
-104.98
-99.21
-88.93
-75.50
-60.69
-46.08
-32.71
-21.06
-11.12
-2.74
4.29
10.12
14.96
19.04
22.63
25.95
29.10
31.99
34.47
36.40
37.70
38.50
39.07
39.72
40.72
42.09
43.61
44.85
45.32
44.64
42.72
39.76
36.16
32.37
28.73
25.35
22.13
18.83
15.20
11.09
6.56
1.81
-2.88
-7.28
-11.35
-15.29
-19.47
-24.39
-30.42
-37.70
-45.93
-54.32
-61.68
-66.66
-68.11
-65.45
-58.89
-49.34
-38.17
-26.80
-16.28
-7.19
0.40
6.72
12.03
16.62
20.60
24.05
27.07
29.69
31.94
33.82
35.24
36.14
36.53
36.54
36.38
36.37
36.71
37.44
38.32
38.93
38.75
37.41
34.85
31.37
27.46
23.63
20.20
17.13
14.14
10.81
6.84
2.15
-3.06
-8.45
-13.71
-18.66
-23.34
-27.95
-32.85
-38.37
-44.72
-51.79
-59.06
-65.62
-70.25
-71.81
-69.56
-63.47
-54.24
-43.11
-31.48
-20.49
-10.80
-2.56
4.40
10.42
15.77
20.58
24.89
28.62
31.73
34.12
35.82
36.87
37.36
37.48
37.40
37.33
37.38
37.59
37.87
37.99
37.70
36.72
34.91
32.28
29.03
25.42
21.76
18.22
14.83
11.46
7.84
3.73
-0.96
-6.14
-11.52
-16.74
-21.55
-25.93
-30.13
-34.67
-40.10
-46.86
-54.97
-63.96
-72.81
-80.13
-84.55
-85.08
-81.46
-74.27
-64.66
-54.05
-43.59
-33.99
-25.39
-17.62
-10.40
-3.58
2.83
8.68
13.79
18.09
21.64
24.55
26.95
28.90
30.41
31.51
32.27
32.83
33.38
33.98
34.58
34.90
34.60
33.40
31.23
28.26
24.82
21.28
17.84
14.49
11.00
7.11
2.66
-2.29
-7.48
-12.64
-17.55
-22.19
-26.73
-31.50
-36.90
-43.32
-50.92
-59.48
-68.15
-75.55
-80.02
-80.16
-75.45
-66.42
-54.55
-41.72
-29.60
-19.14
-10.49
-3.28
3.07
8.97
14.54
19.71
24.26
28.09
31.19
33.66
35.66
37.32
38.73
39.98
41.16
42.38
43.73
45.12
46.34
46.99
46.69
45.20
42.53
38.95
34.90
30.74
26.66
22.59
18.32
13.62
8.39
2.77
-3.00
-8.59
-13.83
-18.72
-23.47
-28.42
-33.96
-40.46
-48.12
-56.90
-66.32
-75.42
-82.80
-86.98
-86.78
-81.78
-72.47
-60.10
-46.26
-32.39
-19.47
-7.87
2.44
11.68
20.07
27.68
34.49
40.44
45.48
49.55
52.70
55.01
56.56
57.50
57.95
58.09
58.06
58.00
57.97
57.93
57.71
57.06
55.68
53.34
49.96
45.58
40.42
34.80
29.07
23.56
18.49
13.82
9.34
4.67
-0.52
-6.42
-12.89
-19.60
-26.14
-32.26
-38.00
-43.69
-49.82
-56.86
-65.13
-74.61
-84.89
-95.14
-104.12
-110.41
-112.69
-110.06
-102.35
-90.22
-75.04
-58.57
-42.44
-27.75
-14.91
-3.63
6.70
16.65
26.40
35.64
43.70
49.90
53.84
55.59
55.65
54.71
53.36
51.92
50.46
48.82
46.90
44.63
42.02
39.00
35.46
31.19
26.00
19.91
13.14
6.17
-0.41
-6.01
-10.21
-12.92
-14.38
-15.15
-16.00
-17.68
-20.64
-24.82
-29.64
-34.29
-38.02
-40.62
-42.49
-44.60
-48.15
-54.18
-63.20
-75.03
-88.57
-101.79
-111.93
-115.99
-111.55
-97.55
-74.88
-46.25
-15.34
14.28
40.27
61.91
79.86
95.30
109.11
121.43
131.72
139.27
143.78
145.61
145.53
144.06
140.87
134.69
124.03
108.17
88.08
66.48
46.93
32.46
24.39
21.93
22.86
24.73
25.86
25.70
24.53
22.69
20.10
16.18
10.13
1.39
-9.99
-23.18
-36.59
-48.15
-55.85
-58.31
-55.38
-48.31
-39.44
-31.45
-26.46
-25.43
-27.99
-32.83
-38.29
-42.80
-45.22
-44.76
-41.09
-34.40
-25.55
-16.13
-8.13
-3.42
-3.17
-7.53
-15.59
-25.92
-37.05
-48.11
-58.98
-70.27
-82.91
-97.65
-114.65
-133.18
-151.68
-168.15
-180.72
-188.08
-189.86
-186.47
-178.95
-168.57
-156.65
-144.45
-133.21
-124.07
-117.87
-114.95
-114.79
-116.02
-116.49
-113.73
-105.50
-90.47
-68.53
-40.97
-10.11
21.24
50.44
75.44
94.99
108.54
116.05
117.97
115.21
109.26
102.06
95.74
92.12
92.32
96.51
103.98
113.44
123.42
132.59
139.96
144.98
147.42
147.37
145.07
140.84
134.98
127.78
119.59
110.87
102.22
94.23
87.34
81.67
76.86
72.27
67.11
60.78
53.14
44.51
35.58
27.04
19.33
12.35
5.55
-1.87
-10.55
-20.60
-31.57
-42.57
-52.75
-61.69
-69.67
-77.59
-86.74
-98.37
-113.25
-131.19
-150.67
-168.77
-181.52
-184.90
-176.01
-154.25
-121.77
-82.97
-43.25
-7.49
21.25
42.14
56.24
65.73
72.91
79.59
86.83
94.86
103.36
111.64
118.91
124.46
127.89
129.31
129.31
128.86
128.93
130.12
132.28
134.54
135.59
134.20
129.66
122.06
112.14
100.95
89.47
78.30
67.62
57.29
47.10
36.85
26.50
16.19
6.17
-3.29
-12.03
-20.11
-27.91
-36.06
-45.28
-55.99
-67.95
-79.91
-89.60
-94.21
-91.23
-79.42
-59.50
-34.17
-7.36
16.95
35.90
48.46
55.18
57.51
56.90
54.22
49.71
43.40
35.56
26.97
18.77
12.04
7.43
4.92
3.98
3.88
4.02
4.20
4.51
5.09
5.98
6.86
7.19
6.37
3.99
-0.11
-5.82
-12.89
-20.96
-29.44
-37.34
-43.09
-44.76
-40.50
-29.24
-11.19
11.99
37.53
62.25
83.28
98.66
107.40
109.47
105.45
96.33
83.38
68.13
52.31
37.73
26.01
18.33
15.12
16.01
19.97
25.54
31.22
35.79
38.45
38.89
37.12
33.41
28.10
21.64
14.49
7.13
-0.09
-6.97
-13.48
-19.70
-25.69
-31.37
-36.58
-41.17
-45.16
-48.90
-53.00
-58.14
-64.83
-73.19
-82.82
-92.92
-102.63
-111.29
-118.82
-125.87
-133.71
-143.78
-157.09
-173.44
-190.94
-206.00
-214.07
-210.86
-193.97
-163.68
-123.25
-77.96
-33.55
5.26
35.82
57.58
71.54
79.36
82.63
82.63
80.38
76.83
73.00
69.87
68.23
68.36
69.99
72.37
74.52
75.64
75.37
73.89
71.72
69.37
66.98
64.08
59.80
53.17
43.66
31.49
17.61
3.40
-9.81
-21.18
-30.57
-38.56
-46.21
-54.81
-65.53
-79.04
-95.02
-111.83
-126.53
-135.37
-134.89
-123.09
-100.35
-69.50
-34.99
-1.60
26.92
48.66
63.59
72.91
78.29
81.12
82.23
81.96
80.42
77.78
74.42
70.87
67.64
64.93
62.65
60.43
57.94
55.10
52.16
49.53
47.43
45.64
43.43
39.81
33.90
25.22
13.85
0.36
-14.32
-28.90
-41.68
-50.57
-53.45
-48.73
-36.02
-16.45
7.46
32.49
55.58
74.48
88.02
95.86
98.21
95.55
88.63
78.55
66.82
55.25
45.57
39.05
36.23
36.85
40.00
44.45
49.00
52.66
54.83
55.13
53.50
50.01
44.90
38.61
31.65
24.52
17.52
10.71
3.91
-3.07
-10.31
-17.62
-24.62
-30.97
-36.50
-41.46
-46.38
-51.92
-58.53
-66.32
-74.97
-83.79
-92.11
-99.42
-105.70
-111.50
-117.92
-126.31
-137.83
-152.76
-169.79
-185.83
-196.39
-196.82
-183.86
-157.01
-119.01
-75.12
-31.53
6.47
35.77
55.75
67.73
73.91
76.40
76.81
76.08
74.85
73.61
72.77
72.67
73.36
74.53
75.61
75.94
75.05
72.88
69.79
66.45
63.43
60.89
58.37
54.93
49.46
41.24
30.28
17.41
4.06
-8.25
-18.46
-26.33
-32.45
-38.03
-44.48
