1541181800.00
64.000000
-0.00
-0.00
-0.00
-0.00
-0.00
-0.00
-0.00
-0.00
-0.00
-0.00
0.00
0.01
0.01
-0.00
-0.03
-0.05
-0.05
0.00
0.13
0.36
0.66
1.01
1.37
1.72
2.06
2.40
2.79
3.24
3.80
4.42
5.06
5.66
6.20
6.68
7.15
7.68
8.31
9.14
10.09
11.04
11.88
12.56
13.14
13.76
14.65
15.96
17.91
20.32
22.90
25.38
27.58
29.57
31.68
34.32
37.81
42.54
48.15
54.10
59.83
64.97
69.58
74.14
79.34
85.71
93.76
103.00
112.62
121.73
129.77
136.75
143.30
150.75
157.77
166.64
177.95
191.79
206.97
220.57
228.25
225.36
208.53
176.87
132.76
80.05
23.07
-34.94
-92.44
-149.16
-205.23
-260.37
-313.74
-363.87
-409.83
-450.91
-486.50
-515.74
-537.23
-549.22
-549.96
-538.37
-514.21
-478.67
-433.88
-382.45
-327.02
-269.84
-212.63
-156.66
-102.95
-52.37
-5.90
35.58
71.43
101.35
125.50
144.38
158.69
169.15
176.37
180.75
182.57
182.07
179.51
175.23
169.65
163.18
156.15
148.81
141.30
133.69
126.02
118.33
110.69
103.15
95.80
88.68
81.83
75.26
68.99
63.01
57.34
51.99
46.97
42.27
37.91
33.86
30.11
26.67
23.51
20.63
18.02
15.68
13.62
11.82
10.28
8.93
7.73
6.64
5.65
4.76
4.02
3.48
3.14
3.00
2.98
3.03
3.06
3.06
3.06
3.13
3.36
3.82
4.50
5.32
6.14
6.86
7.41
7.84
8.31
9.04
10.16
11.63
13.24
14.66
15.60
15.96
15.91
15.88
16.37
17.75
19.94
22.48
24.64
25.79
25.69
24.62
23.32
22.58
22.83
23.72
24.17
22.69
17.95
9.38
-2.62
-16.69
-31.27
-44.93
-57.09
-68.01
-78.51
-89.66
-101.78
-115.84
-131.86
-148.07
-160.48
-163.60
-152.37
-124.69
-83.26
-35.63
9.92
46.21
70.04
82.81
88.95
93.35
99.29
107.56
117.02
125.45
130.25
128.89
119.31
100.50
73.36
41.00
7.88
-21.30
-43.35
-57.57
-65.78
-71.01
-75.74
-80.55
-83.87
-82.98
-75.68
-61.61
-42.50
-21.07
0.25
20.09
37.18
49.32
53.18
45.77
26.77
0.23
-26.33
-45.08
-51.75
-47.80
-39.19
-32.87
-32.56
-37.13
-41.50
-40.05
-29.83
-11.57
11.44
35.86
59.93
83.52
106.54
127.42
142.45
147.39
139.81
120.86
95.13
69.00
47.99
34.40
28.57
28.86
33.02
39.41
47.02
54.39
58.75
56.14
42.88
17.67
-17.19
-55.81
-89.99
-111.73
-115.87
-101.76
-73.81
-40.43
-11.41
5.07
5.41
-8.03
-27.84
-44.97
-52.74
-49.87
-40.80
-32.97
-32.88
-42.67
-59.11
-75.50
-84.94
-83.07
-69.07
-44.40
-10.98
29.92
77.02
127.17
173.91
208.07
220.86
207.90
172.10
123.54
75.85
41.08
25.29
27.11
39.62
54.25
64.39
67.12
62.95
54.01
42.59
30.23
17.73
5.58
-5.66
-15.44
-23.48
-29.98
-35.67
-41.52
-48.34
-56.38
-65.30
-74.26
-82.31
-88.70
-93.14
-95.83
-97.48
-98.95
-100.93
-103.49
-105.91
-106.92
-105.29
-100.56
-93.44
-85.57
-78.74
-73.89
-70.60
-67.34
-62.32
-54.60
-44.52
-33.52
-23.26
-14.78
-8.12
-2.63
2.36
6.98
10.76
13.15
14.11
14.39
15.36
18.33
24.05
32.44
42.81
54.31
66.30
78.46
90.73
103.15
115.75
128.56
141.50
154.22
165.81
174.80
179.52
178.74
172.32
161.38
147.90
133.82
120.20
106.89
92.99
77.83
61.94
47.26
36.45
31.62
33.11
39.23
46.79
52.30
52.89
46.46
31.72
8.86
-19.27
-46.30
-63.36
-62.25
-39.77
-0.51
43.82
78.95
94.11
86.35
60.64
26.20
-8.84
-40.96
-71.47
-104.13
-142.19
-186.94
-237.66
-292.40
-347.94
-399.40
-440.29
-463.44
-463.10
-436.89
-387.11
-320.17
-244.78
-169.53
-101.02
-42.85
4.22
41.52
71.35
95.86
116.36
133.06
145.42
152.75
154.86
152.33
146.19
137.65
127.72
117.22
106.80
97.00
88.14
80.10
72.47
64.62
56.32
48.09
41.26
37.53
38.09
42.83
50.06
57.06
61.17
61.05
57.10
51.11
45.15
40.42
36.80
33.26
28.93
24.05
20.22
19.59
23.83
33.26
46.54
61.34
74.99
84.82
88.37
83.92
71.67
54.85
39.72
33.49
41.11
62.23
90.47
115.86
129.00
124.76
103.21
67.90
22.98
-28.40
-83.81
-139.77
-190.72
-229.86
-251.56
-254.01
-239.80
-214.98
-186.52
-160.59
-141.77
-133.01
-135.95
-150.56
-174.60
-203.72
-232.96
-258.76
-280.49
-299.95
-319.24
-338.18
-353.15
-358.18
-347.86
-320.32
-278.27
-227.63
-174.82
-124.11
-76.84
-32.31
10.43
51.58
90.77
128.21
165.25
203.80
245.23
288.64
330.76
366.53
390.78
399.77
391.95
368.06
330.68
284.06
233.50
184.38
140.32
101.61
64.75
24.60
-22.10
-73.22
-120.33
-151.19
-154.70
-125.88
-68.63
5.17
79.48
139.24
174.54
182.68
167.59
137.52
101.97
69.10
44.23
29.61
25.31
29.97
41.33
56.15
70.20
78.96
79.09
69.83
53.39
33.93
15.62
1.01
-9.60
-17.72
-25.72
-35.92
-50.38
-71.01
-99.54
-136.70
-180.98
-227.50
-268.25
-294.00
-297.04
-273.79
-225.71
-158.41
-79.47
3.65
84.76
159.14
222.90
272.88
307.01
324.93
328.32
320.41
305.11
285.97
265.52
244.98
224.18
201.48
174.44
140.56
98.44
48.77
-5.47
-59.90
-110.55
-155.57
-196.08
-234.92
-274.24
-313.03
-346.21
-365.91
-364.67
-338.86
-290.65
-227.76
-160.86
-100.09
-52.32
-20.11
-2.46
3.68
1.85
-4.59
-12.58
-19.38
-22.58
-20.53
-12.79
-0.41
14.16
27.83
37.78
42.43
41.76
37.00
29.83
21.69
13.46
5.62
-1.39
-6.87
-9.89
-9.40
-4.37
6.06
22.39
44.47
71.28
100.81
130.46
157.84
181.58
201.96
220.69
240.15
262.29
287.71
315.35
342.82
367.06
385.21
395.30
396.69
390.12
377.23
360.06
340.32
319.08
296.74
273.38
249.09
224.16
199.02
173.88
148.53
122.42
94.94
65.83
35.43
4.60
-25.71
-54.87
-82.92
-110.57
-138.86
-168.76
-200.89
-235.43
-272.13
-310.20
-348.16
-383.77
-414.17
-436.54
-448.92
-450.68
-442.50
-425.68
-401.54
-371.02
-335.14
-295.64
-255.47
-218.38
-187.95
-166.25
-153.24
-146.86
-144.02
-141.67
-137.60
-130.69
-121.04
-109.71
-98.34
-88.62
-81.65
-77.39
-74.69
-71.82
-67.22
-60.17
-50.94
-40.43
-29.44
-18.21
-6.13
7.70
23.83
41.85
60.35
77.45
91.57
102.18
109.90
116.13
122.26
129.00
136.10
142.56
146.96
147.85
143.87
133.96
117.73
95.82
70.14
43.45
18.47
-3.01
-20.58
-34.86
-46.80
-56.88
-65.00
-70.72
-73.89
-74.89
-74.48
-73.45
-72.24
-70.88
-69.19
-67.11
-64.88
-62.92
-61.56
-60.85
-60.23
-58.69
-55.04
-48.38
-38.54
-26.27
-13.09
-0.75
9.29
16.22
20.00
21.05
20.00
17.44
13.85
9.69
5.49
1.74
-1.18
-3.19
-4.47
-5.32
-6.01
-6.68
-7.34
-8.00
-8.75
-9.72
-11.02
-12.63
-14.37
-16.03
-17.43
-18.54
-19.52
-20.60
-21.98
-23.76
-25.87
-28.13
-30.18
-31.57
-31.75
-30.20
-26.64
-21.18
-14.39
-7.20
-0.62
4.61
8.15
10.15
11.01
11.18
10.99
10.54
9.87
9.06
8.28
7.78
7.74
8.14
8.76
9.28
9.42
9.09
8.40
7.60
6.96
6.57
6.37
6.14
5.64
4.69
3.29
1.57
-0.28
-2.12
-3.91
-5.61
-7.12
-8.21
-8.55
-7.92
-6.28
-3.78
-0.77
2.43
5.53
8.36
10.76
12.57
13.67
14.03
13.74
13.00
12.02
10.97
9.95
9.03
8.30
7.83
7.63
7.60
7.56
7.35
6.95
6.47
6.06
5.87
5.89
6.04
6.18
6.14
5.74
4.78
3.14
0.81
-1.95
-4.67
-6.78
-7.79
-7.47
-5.89
-3.35
-0.24
2.99
6.03
8.61
10.54
11.75
12.27
12.18
11.59
10.65
9.50
8.29
7.17
6.20
5.40
4.69
3.98
3.21
2.42
1.69
1.11
0.73
0.49
0.32
0.10
-0.21
-0.63
-1.19
-1.93
-2.89
-4.11
-5.49
-6.82
-7.78
-8.00
-7.21
-5.34
-2.57
0.68
3.88
6.56
8.44
9.42
9.67
9.38
8.79
8.04
7.17
6.22
5.24
4.35
3.64
3.22
3.06
3.04
2.97
2.72
2.27
1.72
1.25
0.99
0.91
0.80
0.43
-0.35
-1.55
-2.93
-4.20
-5.05
-5.27
-4.77
-3.57
-1.74
0.59
3.25
6.05
8.79
11.26
13.27
14.70
15.45
15.48
14.87
13.78
12.44
11.09
9.97
9.18
8.74
8.57
8.54
8.46
8.16
7.53
6.52
5.23
3.83
2.60
1.82
1.61
1.88
2.27
2.38
1.94
1.02
0.16
0.12
1.61
4.94
9.86
15.60
21.12
25.50
28.15
28.89
27.86
25.35
21.71
17.23
12.26
7.18
2.48
-1.39
-4.06
-5.47
-5.84
-5.65
-5.41
-5.50
-6.02
-6.77
-7.49
-7.89
-7.92
-7.68
-7.37
-7.19
-7.22
-7.45
-7.85
-8.44
-9.21
-10.08
-10.81
-11.08
-10.52
-8.97
-6.48
-3.33
0.08
3.39
6.33
8.76
10.58
11.77
12.32
12.24
11.61
10.54
9.16
7.61
6.07
4.73
3.78
3.30
3.23
3.37
3.47
3.28
2.71
1.74
0.54
-0.77
-2.01
-3.15
-4.24
-5.46
-7.02
-9.04
-11.48
-14.10
-16.44
-18.02
-18.47
-17.61
-15.57
-12.68
-9.31
-5.88
-2.68
0.02
2.11
3.55
4.47
5.12
5.80
6.84
8.41
10.51
12.96
15.40
17.33
18.23
17.69
15.46
11.65
6.83
2.11
-0.85
-0.25
5.31
16.26
31.66
49.32
66.39
80.30
89.50
93.71
93.61
90.19
84.16
75.78
65.08
52.30
38.13
23.63
9.87
-2.40
-12.91
-21.77
-29.21
-35.27
-39.76
-42.41
-43.06
-41.93
-39.56
-36.68
-33.93
-31.68
-29.97
-28.60
-27.30
-25.83
-24.10
-22.10
-19.94
-17.76
-15.81
-14.32
-13.47
-13.28
-13.56
-14.04
-14.42
-14.55
-14.51
-14.54
-14.88
-15.66
-16.74
-17.78
-18.32
-18.00
-16.63
-14.32
-11.37
-8.13
-4.91
-1.95
0.62
2.71
4.20
4.98
4.97
4.22
2.98
1.57
0.32
-0.53
-0.95
-1.03
-0.95
-0.91
-1.03
-1.30
-1.57
-1.48
-0.61
1.37
4.57
8.76
13.38
17.80
21.47
24.10
25.70
26.42
26.46
26.00
25.29
24.70
24.65
25.51
27.32
29.72
31.97
33.18
32.61
29.84
24.98
18.54
11.31
4.06
-2.54
-8.07
-12.35
-15.42
-17.42
-18.54
-18.90
-18.67
-17.99
-17.10
-16.22
-15.55
-15.21
-15.20
-15.41
-15.74
-16.15
-16.65
-17.32
-18.21
-19.29
-20.45
-21.52
-22.33
-22.75
-22.74
-22.29
-21.40
-20.04
-18.14
-15.64
-12.51
-8.89
-5.02
-1.24
2.10
4.69
6.39
7.24
7.42
7.17
6.69
6.10
5.47
4.83
4.24
3.77
3.50
3.38
3.30
3.12
2.75
2.18
1.55
1.00
0.62
0.34
-0.02
-0.68
-1.79
-3.34
-5.16
-6.99
-8.48
-9.36
-9.43
-8.67
-7.16
-5.09
-2.69
-0.14
2.42
4.87
7.05
8.79
9.92
10.36
10.16
9.48
8.55
7.61
6.80
6.16
5.71
5.38
5.13
4.93
4.73
4.52
4.35
4.27
4.29
4.36
4.26
3.84
2.94
1.60
-0.02
-1.77
-3.53
-5.30
-7.11
-8.94
-10.63
-11.90
-12.43
-11.99
-10.52
-8.16
-5.18
-1.93
1.26
4.16
6.57
8.38
9.46
9.75
9.26
8.13
6.66
5.25
4.25
3.85
4.05
4.65
5.39
6.06
6.53
6.75
6.71
6.43
5.89
5.11
4.16
3.12
2.12
1.25
0.51
-0.19
-1.07
-2.38
-4.26
-6.69
-9.45
-12.15
-14.39
-15.80
-16.15
-15.26
-13.05
-9.56
-4.97
0.31
5.75
10.75
14.82
17.69
19.34
19.98
19.88
19.30
18.43
17.40
16.31
15.19
14.07
12.96
11.82
10.60
9.28
7.82
6.27
4.70
3.19
1.87
0.80
0.01
-0.54
-0.95
-1.32
-1.80
-2.51
-3.54
-4.91
-6.61
-8.51
-10.41
-12.02
-13.03
-13.15
-12.20
-10.19
-7.32
-3.97
-0.56
2.51
4.97
6.72
7.78
8.29
8.37
8.11
7.59
6.82
5.91
4.95
4.09
3.43
3.01
2.78
2.63
2.50
2.38
2.34
2.41
2.55
2.61
2.40
1.74
0.61
-0.86
-2.47
-4.02
-5.41
-6.61
-7.72
-8.84
-10.04
-11.29
-12.45
-13.33
-13.69
-13.37
-12.25
-10.34
-7.75
-4.67
-1.39
1.80
4.56
6.65
7.94
8.47
8.34
7.80
7.02
6.15
5.28
4.52
3.97
3.76
3.92
4.41
5.12
5.82
6.29
6.40
6.10
5.45
4.61
3.72
2.92
2.26
1.71
1.15
0.39
-0.75
-2.37
-4.43
-6.68
-8.79
-10.38
-11.13
-10.89
-9.62
-7.48
-4.69
-1.58
1.53
4.27
6.40
7.74
8.26
8.06
7.34
6.35
5.32
4.43
3.75
3.29
3.03
2.88
2.79
2.70
2.56
2.32
1.97
1.50
0.94
0.30
-0.41
-1.24
-2.25
-3.49
-4.96
-6.57
-8.18
-9.64
-10.88
-11.91
-12.76
-13.36
-13.58
-13.13
-11.81
-9.57
-6.58
-3.23
0.07
2.98
5.35
7.20
8.60
9.60
10.15
10.14
9.51
8.39
7.04
5.84
5.08
4.89
5.20
5.72
6.11
6.10
5.52
4.41
2.95
1.39
-0.03
-1.13
-1.89
-2.41
-2.85
-3.40
-4.18
-5.20
-6.39
-7.65
-8.88
-9.87
-10.42
-10.25
-9.12
-6.98
-4.03
-0.70
2.48
5.03
6.67
7.40
7.43
7.05
6.55
6.11
5.79
5.57
5.40
5.23
5.06
4.94
4.92
5.01
5.18
5.32
5.31
5.07
4.57
3.87
3.07
2.28
1.49
0.69
-0.26
-1.44
-2.87
-4.49
-6.17
-7.74
-9.01
-9.78
-9.89
-9.21
-7.71
-5.48
-2.79
0.03
2.64
4.82
6.46
7.59
8.29
8.64
8.68
8.45
7.95
7.23
6.37
5.43
4.57
3.88
3.44
3.26
3.26
3.34
3.36
3.27
3.06
2.74
2.33
1.75
0.90
-0.27
-1.70
-3.26
-4.76
-6.10
-7.33
-8.59
-10.01
-11.54
-12.91
-13.66
-13.37
-11.86
-9.26
-5.97
-2.54
0.59
3.18
5.14
6.51
7.34
7.65
7.52
7.07
6.49
5.97
5.63
5.51
5.51
5.53
5.42
5.13
4.66
4.01
3.24
2.36
1.43
0.49
-0.38
-1.15
-1.81
-2.43
-3.07
-3.81
-4.63
-5.48
-6.29
-7.02
-7.70
-8.34
-8.91
-9.27
-9.17
-8.38
-6.76
-4.39
-1.52
1.51
4.34
6.66
8.25
9.01
8.95
8.28
7.34
6.47
5.85
5.48
5.17
4.75
4.17
3.54
3.04
2.78
2.70
2.60
2.27
1.59
0.61
-0.51
-1.60
-2.56
-3.41
-4.21
-5.05
-5.94
-6.87
-7.78
-8.61
-9.32
-9.87
-10.18
-10.12
-9.54
-8.24
-6.16
-3.40
-0.22
2.98
5.78
7.87
9.10
9.48
9.17
8.42
7.52
6.69
6.07
5.71
5.54
5.50
5.51
5.51
5.44
5.31
5.11
4.87
4.59
4.26
3.82
3.17
2.25
1.07
-0.33
-1.84
-3.37
-4.84
-6.23
-7.55
-8.82
-10.08
-11.36
-12.67
-13.93
-14.97
-15.47
-15.08
-13.56
-10.88
-7.31
-3.34
0.40
3.39
5.33
6.20
6.25
5.83
5.29
4.88
4.72
4.84
5.23
5.83
6.59
7.45
8.31
9.05
9.56
9.73
9.49
8.80
7.71
6.35
4.95
3.74
2.90
2.43
2.23
2.09
1.84
1.41
0.83
0.13
-0.68
-1.74
-3.20
-5.08
-7.20
-9.09
-10.20
-10.02
-8.39
-5.52
-1.98
1.56
4.54
6.72
8.15
9.05
9.62
9.94
9.99
9.71
9.09
8.25
7.34
6.52
5.94
5.62
5.52
5.56
5.60
5.58
5.45
5.26
5.09
4.97
4.88
4.68
4.18
3.27
1.96
0.45
-1.04
-2.31
-3.36
-4.33
-5.49
-6.98
-8.80
-10.64
-12.04
-12.50
-11.69
-9.59
-6.47
-2.85
0.73
3.80
6.11
7.61
8.36
8.48
8.07
7.23
6.06
4.70
3.37
2.24
1.43
0.96
0.78
0.78
0.85
0.89
0.80
0.52
0.01
-0.71
-1.55
-2.43
-3.28
-4.05
-4.75
-5.41
-6.07
-6.76
-7.56
-8.61
-10.01
-11.85
-14.09
-16.53
-18.87
-20.72
-21.66
-21.29
-19.36
-15.86
-11.05
-5.46
0.23
5.37
9.51
12.47
14.32
15.27
15.55
15.34
14.81
14.07
13.28
12.58
12.05
11.76
11.68
11.77
11.91
11.96
11.77
11.19
10.14
8.68
6.98
5.33
4.07
3.40
3.36
3.74
4.19
4.27
3.68
2.28
0.16
-2.45
-5.21
-7.67
-9.31
-9.63
-8.25
-5.16
-0.80
3.98
8.22
11.18
12.64
12.81
12.09
10.77
8.86
6.22
2.80
-1.09
-4.82
-7.64
-9.00
-8.82
-7.50
-5.65
-3.87
-2.52
-1.64
-1.10
-0.73
-0.46
-0.32
-0.37
-0.67
-1.16
-1.73
-2.26
-2.63
-2.84
-2.91
-2.97
-3.13
-3.56
-4.40
-5.73
-7.47
-9.39
-11.07
-12.03
-11.90
-10.53
-8.12
-5.14
-2.16
0.36
2.19
3.36
4.06
4.46
4.61
4.49
4.05
3.36
2.63
2.12
2.06
2.48
3.22
3.99
4.52
4.70
4.53
4.13
3.63
3.12
2.57
1.93
1.16
0.25
-0.76
-1.83
-2.95
-4.12
-5.37
-6.72
-8.17
-9.70
-11.29
-12.90
-14.47
-15.85
-16.78
-16.92
-15.94
-13.72
-10.39
-6.28
-1.87
2.45
6.42
9.94
12.92
15.22
16.62
16.97
16.25
14.79
13.10
11.75
11.14
11.36
12.16
13.12
13.82
14.00
13.61
12.77
11.68
10.48
9.20
7.73
6.02
4.06
2.05
0.30
-0.90
-1.41
-1.36
-1.12
-1.14
-1.78
-3.15
-5.11
-7.39
-9.63
-11.51
-12.68
-12.84
-11.74
-9.43
-6.35
-3.35
-1.32
-0.83
-1.79
-3.46
-4.81
-5.03
-3.98
-2.14
-0.41
0.39
-0.13
-1.87
-4.36
-7.05
-9.48
-11.34
-12.41
-12.51
-11.56
-9.65
-7.06
-4.28
-1.84
-0.20
0.44
0.14
-0.78
-1.96
-3.12
-4.18
-5.25
-6.56
-8.31
-10.52
-12.97
-15.15
-16.46
-16.37
-14.67
-11.65
-7.96
-4.40
-1.58
0.31
1.50
2.45
3.52
4.76
5.89
6.44
5.98
4.34
1.83
-0.79
-2.32
-1.44
2.88
10.95
22.02
34.38
45.73
53.91
57.55
56.38
51.18
43.31
34.16
24.79
15.83
7.55
0.14
-6.22
-11.39
-15.34
-18.22
-20.28
-21.74
-22.63
-22.74
-21.76
-19.48
-15.97
-11.67
-7.26
-3.44
-0.69
0.82
1.31
1.15
0.73
0.34
0.10
0.03
0.05
0.12
0.24
0.41
0.69
1.06
1.53
2.00
2.40
2.58
2.42
1.88
0.96
-0.23
-1.55
-2.86
-4.14
-5.41
-6.76
-8.29
-10.02
-11.86
-13.54
-14.72
-14.96
-14.00
-11.73
-8.32
-4.20
0.09
4.05
7.28
9.55
10.81
11.10
10.53
9.26
7.54
5.65
3.90
2.56
1.79
1.64
1.93
2.38
2.72
2.71
2.31
1.65
0.95
0.37
-0.09
-0.57
-1.30
-2.48
-4.18
-6.32
-8.72
-11.12
-13.26
-14.80
-15.42
-14.79
-12.75
-9.41
-5.19
-0.70
3.46
6.83
9.22
10.70
11.42
11.54
11.15
10.35
9.21
7.86
6.52
5.40
4.66
4.31
4.28
4.36
4.38
4.20
3.77
3.09
2.18
1.11
-0.05
-1.23
-2.42
-3.66
-5.06
-6.72
-8.60
-10.46
-11.93
-12.54
-11.96
-10.13
-7.22
-3.56
0.43
4.34
7.83
10.62
12.49
13.33
13.18
12.26
10.87
9.32
7.84
6.57
5.55
4.74
4.10
3.56
3.07
2.56
1.97
1.23
0.32
-0.75
-1.94
-3.16
-4.31
-5.38
-6.42
-7.57
-8.98
-10.79
-13.00
-15.42
-17.64
-19.18
-19.56
-18.49
-15.97
-12.31
-8.07
-3.88
-0.28
2.42
4.19
5.18
5.61
5.67
5.45
5.01
4.40
3.75
3.23
3.03
3.25
3.90
4.80
5.66
6.16
6.04
5.21
3.82
2.15
0.51
-0.96
-2.31
-3.76
-5.59
-7.93
-10.75
-13.86
-16.96
-19.65
-21.50
-22.07
-20.97
-18.11
-13.70
-8.32
-2.79
2.18
6.09
8.87
10.68
11.83
12.55
12.90
12.84
12.31
11.34
10.10
8.91
8.05
7.70
7.84
8.27
8.71
8.91
8.77
8.31
7.59
6.67
5.55
4.22
2.73
1.25
-0.05
-1.09
-2.00
-3.05
-4.64
-7.01
-10.09
-13.41
-16.21
-17.65
-17.09
-14.42
-10.03
-4.71
0.58
5.10
8.45
10.61
11.77
12.23
12.16
11.68
10.91
10.01
9.23
8.78
8.77
9.12
9.60
9.97
10.07
9.90
9.56
9.18
8.79
8.30
7.58
6.51
5.10
3.45
1.78
0.20
-1.21
-2.50
-3.75
-4.98
-6.26
-7.62
-9.15
-10.92
-12.91
-14.93
-16.55
-17.27
-16.62
-14.43
-10.85
-6.29
-1.39
3.30
7.36
10.55
12.80
14.16
14.75
14.69
14.16
13.34
12.41
11.52
10.77
10.17
9.66
9.10
8.41
7.52
6.50
5.48
4.61
3.97
3.48
2.97
2.22
1.11
-0.35
-1.99
-3.57
-4.83
-5.63
-5.97
-6.01
-5.95
-6.03
-6.43
-7.26
-8.53
-10.15
-11.93
-13.51
-14.46
-14.29
-12.70
-9.65
-5.49
-0.86
3.56
7.24
9.92
11.62
12.47
12.65
12.26
11.42
10.33
9.26
8.50
8.20
8.40
8.86
9.28
9.34
8.87
7.88
6.53
5.08
3.75
2.66
1.81
1.12
0.44
-0.31
-1.18
-2.11
-3.01
-3.79
-4.36
-4.71
-4.88
-4.99
-5.22
-5.73
-6.64
-7.94
-9.45
-10.87
-11.76
-11.73
-10.48
-7.95
-4.36
-0.16
4.18
8.19
11.60
14.24
15.97
16.66
16.13
14.31
11.28
7.42
3.29
-0.49
-3.44
-5.35
-6.25
-6.41
-6.12
-5.62
-5.05
-4.48
-3.90
-3.30
-2.71
-2.19
-1.81
-1.62
-1.62
-1.79
-2.07
-2.41
-2.86
-3.49
-4.37
-5.50
-6.80
-8.14
-9.39
-10.53
-11.64
-12.83
-14.24
-15.88
-17.55
-18.88
-19.36
-18.58
-16.28
-12.55
-7.82
-2.74
2.00
5.85
8.60
10.32
11.27
11.75
11.95
11.92
11.70
11.31
10.82
10.37
10.06
9.94
10.01
10.21
10.44
10.61
10.62
10.42
9.98
9.32
8.45
7.40
6.18
4.78
3.28
1.78
0.40
-0.76
-1.68
-2.47
-3.29
-4.31
-5.58
-7.01
-8.41
-9.56
-10.38
-10.98
-11.67
-12.79
-14.52
-16.70
-18.79
-20.14
-20.14
-18.55
-15.49
-11.40
-6.85
-2.35
1.74
5.19
7.92
9.89
11.13
11.69
11.70
11.30
10.68
10.02
9.46
9.11
9.01
9.12
9.33
9.53
9.62
9.61
9.55
9.51
9.47
9.33
8.91
8.03
6.66
4.89
2.98
1.21
-0.20
-1.20
-1.89
-2.48
-3.14
-3.98
-4.97
-5.97
-6.88
-7.63
-8.30
-9.07
-10.11
-11.50
-13.20
-15.08
-16.90
-18.44
-19.46
-19.67
-18.79
-16.64
-13.22
-8.82
-3.95
0.74
4.68
7.54
9.25
9.98
10.01
9.65
9.18
8.78
8.60
8.65
8.88
9.15
9.32
9.31
9.10
8.80
8.46
8.13
7.76
7.33
6.79
6.13
5.37
4.50
3.52
2.45
1.38
0.42
-0.32
-0.80
-1.10
-1.41
-1.93
-2.79
-3.97
-5.32
-6.67
-7.87
-8.92
-9.86
-10.82
-11.91
-13.20
-14.65
-16.12
-17.31
-17.87
-17.42
-15.72
-12.73
-8.72
-4.15
0.42
4.50
7.75
10.04
11.39
11.90
11.69
10.91
9.75
8.49
7.37
6.62
6.36
6.53
7.00
7.58
8.08
8.39
8.42
8.13
7.51
6.57
5.43
4.27
3.28
2.54
2.00
1.53
0.93
0.10
-0.98
-2.25
-3.63
-5.04
-6.44
-7.76
-8.97
-10.03
-10.98
-11.89
-12.86
-13.90
-14.89
-15.53
-15.48
-14.41
-12.24
-9.08
-5.31
-1.35
2.36
5.55
8.02
9.72
10.65
10.88
10.59
9.97
9.23
8.50
7.87
7.34
6.90
6.58
6.38
6.26
6.14
5.94
5.65
5.33
5.11
5.03
5.00
4.83
4.32
3.36
2.02
0.47
-1.12
-2.60
-3.93
-5.10
-6.15
-7.08
-7.98
-8.98
-10.22
-11.81
-13.70
-15.66
-17.25
-18.05
-17.71
-16.09
-13.33
-9.78
-5.91
-2.13
1.24
4.12
6.46
8.28
9.50
10.04
9.90
9.16
8.10
7.02
6.18
5.71
5.59
5.73
6.03
6.43
6.81
7.09
7.11
6.73
5.91
4.70
3.25
1.65
-0.00
-1.65
-3.20
-4.59
-5.74
-6.69
-7.56
-8.51
-9.70
-11.14
-12.80
-14.57
-16.33
-17.94
-19.09
-19.40
-18.44
-16.00
-12.19
-7.57
-2.85
1.34
4.69
7.26
9.29
10.97
12.29
13.11
13.25
12.72
11.71
10.54
9.51
8.75
8.29
8.05
7.93
7.84
7.67
7.38
6.94
6.41
5.81
5.11
4.14
2.77
0.92
-1.29
-3.57
-5.59
-7.18
-8.44
-9.66
-11.14
-13.03
-15.19
-17.23
-18.62
-18.92
-17.85
-15.41
-11.89
-7.80
-3.70
-0.06
2.83
4.95
6.43
7.43
8.07
8.36
8.34
8.07
7.74
7.50
7.49
7.67
7.95
8.20
8.37
8.51
8.65
8.82
8.91
8.73
8.08
6.88
5.17
3.15
1.05
-0.95
-2.78
-4.47
-6.10
-7.73
-9.38
-11.11
-12.97
-15.05
-17.29
-19.41
-20.88
-21.04
-19.40
-15.92
-11.08
-5.78
-0.96
2.74
5.13
6.47
7.19
7.73
8.29
8.91
9.46
9.85
10.01
10.01
9.93
9.84
9.76
9.65
9.49
9.23
8.84
8.30
7.57
6.63
5.47
4.07
2.54
0.99
-0.44
-1.68
-2.75
-3.76
-4.88
-6.24
-7.94
-9.92
-11.93
-13.55
-14.27
-13.66
-11.56
-8.14
-3.89
0.54
4.52
7.59
9.57
10.48
10.55
10.04
9.19
8.19
7.14
6.05
4.94
3.82
2.79
2.03
1.67
1.79
2.27
2.87
3.31
3.41
3.12
2.54
1.83
1.07
0.25
-0.79
-2.20
-4.09
-6.46
-9.16
-11.95
-14.55
-16.64
-17.91
-18.07
-16.93
-14.41
-10.66
-6.12
-1.35
3.03
6.51
8.85
10.00
10.14
9.52
8.43
7.13
5.86
4.83
4.17
3.92
3.97
4.12
4.19
4.08
3.80
3.43
3.04
2.58
1.91
0.89
-0.56
-2.36
-4.34
-6.27
-7.96
-9.25
-10.04
-10.25
-9.92
-9.22
-8.47
-8.02
-8.10
-8.59
-9.10
-9.03
-7.88
-5.44
-1.95
2.03
5.82
8.89
10.98
12.14
12.58
12.58
12.38
12.16
12.06
12.18
12.58
13.17
13.77
14.12
14.07
13.59
12.76
11.77
10.75
9.73
8.65
7.46
6.15
4.74
3.27
1.72
0.08
-1.64
-3.40
-5.14
-6.81
-8.41
-10.07
-11.93
-14.11
-16.59
-19.11
-21.22
-22.30
-21.78
-19.37
-15.16
-9.68
-3.77
1.72
6.16
9.32
11.32
12.50
13.24
13.76
14.18
14.50
14.74
14.94
15.17
15.48
15.82
16.09
16.18
16.03
15.67
15.21
14.81
14.56
14.49
14.46
14.20
13.36
11.67
9.15
6.23
3.69
2.38
2.86
5.03
8.10
10.91
12.33
11.75
9.21
5.26
0.71
-3.67
-7.33
-9.88
-11.13
-10.97
-9.46
-6.82
-3.46
0.15
3.55
6.37
8.36
9.35
9.29
8.28
6.58
4.59
2.69
1.20
0.17
-0.52
-1.07
-1.66
-2.28
-2.81
-3.13
-3.16
-3.03
-2.95
-3.15
-3.74
-4.71
-5.98
-7.42
-8.93
-10.46
-11.96
-13.46
-15.01
-16.70
-18.63
-20.83
-23.21
-25.49
-27.28
-28.08
-27.53
-25.46
-22.01
-17.62
-12.88
-8.43
-4.70
-1.88
0.11
1.49
2.48
3.21
3.70
3.96
4.06
4.11
4.27
4.61
5.10
5.62
6.01
6.20
6.23
6.22
6.25
6.28
6.17
5.74
4.88
3.64
2.18
0.71
-0.62
-1.76
-2.78
-3.86
-5.18
-6.92
-9.17
-11.89
-14.90
-17.91
-20.46
-22.13
-22.58
-21.66
-19.46
-16.27
-12.50
-8.57
-4.79
-1.39
1.52
3.90
5.73
7.03
7.81
8.15
8.12
7.93
7.74
7.73
8.00
8.56
9.26
9.90
10.21
9.95
9.06
7.58
5.75
3.82
2.00
0.34
-1.25
-2.91
-4.76
-6.76
-8.75
-10.50
-11.84
-12.74
-13.40
-14.09
-15.13
-16.74
-18.87
-21.29
-23.48
-24.84
-24.80
-23.04
-19.60
-14.91
-9.62
-4.34
0.44
4.56
7.98
10.79
12.98
14.53
15.43
15.77
15.79
15.76
15.89
16.25
16.69
17.00
16.96
16.43
15.49
14.32
13.19
12.28
11.60
10.97
10.12
8.83
6.97
4.57
1.76
-1.25
-4.27
-7.08
-9.49
-11.39
-12.83
-14.04
-15.37
-17.15
-19.46
-21.98
-24.07
-24.99
-24.18
-21.50
-17.24
-12.07
-6.73
-1.80
2.40
5.87
8.72
11.01
12.70
13.60
13.59
12.69
11.20
9.61
8.39
7.82
7.91
8.35
8.74
8.65
7.83
6.29
4.24
2.06
0.15
-1.23
-2.10
-2.76
-3.69
-5.30
-7.75
-10.80
-13.94
-16.61
-18.48
-19.58
-20.35
-21.39
-23.30
-26.59
-31.48
-37.69
-44.14
-48.65
-48.00
-38.61
-17.72
15.35
58.51
107.19
155.63
198.43
231.81
253.77
263.75
261.95
249.05
226.46
196.71
163.43
130.65
101.65
77.94
59.06
43.15
27.99
12.08
-4.95
-22.50
-39.53
-55.09
-68.70
-80.34
-90.29
-98.95
-106.59
-113.34
-119.11
-123.74
-126.98
-128.66
-128.70
-127.11
-123.98
-119.44
-113.68
-106.85
-99.13
-90.73
-81.86
-72.82
-63.94
-55.53
-47.81
-40.82
-34.51
-28.74
-23.40
-18.48
-13.97
-9.93
-6.38
-3.31
-0.65
1.67
3.78
5.78
7.70
9.46
10.87
11.73
11.89
11.39
10.45
9.33
8.25
7.22
6.13
4.86
3.35
1.65
-0.13
-1.91
-3.73
-5.65
-7.69
-9.73
-11.48
-12.53
-12.48
-11.06
-8.28
-4.44
-0.07
4.22
7.90
10.68
12.56
13.69
14.28
14.52
14.43
14.04
13.35
12.49
11.61
10.86
10.27
9.79
9.31
8.77
8.19
7.67
7.31
7.13
7.02
6.82
6.29
5.31
3.87
2.07
0.08
-1.89
-3.67
-5.12
-6.22
-7.09
-8.03
-9.38
-11.34
-13.83
-16.38
-18.26
-18.70
-17.28
-14.02
-9.41
-4.20
0.86
5.19
8.51
10.73
11.96
12.33
12.00
11.14
9.95
8.69
7.64
7.03
6.93
7.23
7.68
7.95
7.86
7.38
6.60
5.71
4.88
4.13
3.37
2.44
1.19
-0.45
-2.40
-4.49
-6.52
-8.29
-9.76
-11.02
-12.31
-13.89
-15.91
-18.31
-20.82
-22.97
-24.22
-24.05
-22.19
-18.63
-13.74
-8.13
-2.52
2.44
6.38
9.13
10.81
11.62
11.80
11.61
11.23
10.82
10.46
10.19
10.02
9.92
9.86
9.80
9.70
9.56
9.39
9.26
9.18
9.07
8.79
8.18
7.11
5.65
3.98
2.36
0.94
-0.32
-1.61
-3.18
-5.18
-7.60
-10.26
-12.85
-15.03
-16.43
-16.70
-15.64
-13.16
-9.44
-4.89
-0.09
4.34
7.90
10.33
11.63
12.04
11.90
11.52
11.08
10.61
10.06
9.38
8.57
7.78
7.19
6.95
7.05
7.34
7.57
7.49
6.99
6.11
4.95
3.62
2.14
0.49
-1.34
-3.31
-5.29
-7.15
-8.81
-10.35
-11.94
-13.72
-15.66
-17.48
-18.72
-18.84
-17.42
-14.37
-9.97
-4.83
0.27
4.61
7.81
9.83
10.95
11.48
11.64
11.41
10.70
9.47
7.89
6.31
5.12
4.55
4.52
4.72
4.80
4.49
3.76
2.72
1.54
0.32
-0.95
-2.32
-3.83
-5.45
-7.14
-8.91
-10.83
-13.03
-15.59
-18.39
-21.00
-22.72
-22.81
-20.78
-16.66
-11.06
-4.93
0.74
5.26
8.41
10.32
11.28
11.57
11.32
10.61
9.56
8.35
7.20
6.34
5.84
5.62
5.54
5.45
5.23
4.85
4.31
3.66
2.94
2.16
1.34
0.47
-0.49
-1.57
-2.83
-4.34
-6.18
-8.39
-10.94
-13.70
-16.29
-18.22
-18.88
-17.80
-14.85
-10.33
-4.95
0.40
5.00
8.46
10.83
12.40
13.51
14.25
14.57
14.30
13.43
12.13
10.73
9.54
8.75
8.31
8.04
7.68
7.06
6.08
4.74
3.16
1.45
-0.27
-1.88
-3.39
-4.83
-6.29
-7.90
-9.76
-11.97
-14.62
-17.68
-20.95
-23.93
-25.95
-26.31
-24.47
-20.39
-14.51
-7.66
-0.88
4.95
9.31
12.12
13.64
14.33
14.51
14.39
13.96
13.19
12.16
11.09
10.27
9.88
9.89
10.05
10.06
9.71
9.02
8.16
7.29
6.52
5.76
4.84
3.62
2.04
0.16
-1.91
-4.06
-6.27
-8.67
-11.37
-14.41
-17.51
-20.04
-21.20
-20.24
-16.82
-11.23
-4.31
2.81
9.14
14.13
17.70
20.17
21.95
23.40
24.79
26.31
28.05
29.98
31.86
33.26
33.67
32.70
30.24
26.52
22.04
17.40
13.12
9.55
6.81
4.75
3.11
1.56
-0.16
-2.09
-4.10
-5.94
-7.44
-8.67
-9.93
-11.67
-14.22
-17.65
-21.63
-25.54
-28.67
-30.35
-30.19
-28.12
-24.42
-19.66
-14.61
-9.99
-6.31
-3.72
-2.06
-0.95
-0.05
0.80
1.49
1.80
1.57
0.81
-0.25
-1.26
-1.94
-2.16
-2.02
-1.71
-1.42
-1.25
-1.15
-1.12
-1.15
-1.36
-1.91
-2.91
-4.31
-5.91
-7.40
-8.52
-9.19
-9.53
-9.88
-10.59
-12.01
-14.31
-17.39
-20.85
-24.03
-26.14
-26.47
-24.67
-20.80
-15.37
-9.12
-2.79
3.06
8.15
12.35
15.65
18.02
19.49
20.07
19.92
19.26
18.39
17.61
17.16
17.17
17.60
18.32
19.10
19.70
19.91
19.63
18.84
17.60
16.01
14.15
12.08
9.81
7.38
4.82
2.17
-0.51
-3.26
-6.16
-9.37
-12.95
-16.77
-20.43
-23.29
-24.63
-23.92
-21.07
-16.39
-10.57
-4.38
1.50
6.63
10.78
13.86
15.80
16.65
16.52
15.65
14.41
13.13
12.11
11.46
11.17
11.14
11.24
11.34
11.38
11.31
11.13
10.84
10.40
9.71
8.62
7.02
4.89
2.34
-0.41
-3.10
-5.52
-7.63
-9.55
-11.51
-13.83
-16.74
-20.30
-24.31
-28.24
-31.33
-32.72
-31.78
-28.33
-22.72
-15.80
-8.55
-1.83
3.87
8.41
11.89
14.42
16.11
17.02
17.28
17.06
16.63
16.17
15.82
15.61
15.51
15.44
15.33
15.10
14.78
14.48
14.38
14.57
14.96
15.17
14.70
13.12
10.34
6.65
2.67
-1.05
-4.16
-6.69
-8.90
-11.18
-13.79
-16.85
-20.34
-24.10
-27.80
-30.92
-32.78
-32.72
-30.33
-25.66
-19.29
-12.16
-5.30
0.48
4.84
7.86
9.90
11.39
12.62
13.71
14.64
15.38
15.89
16.24
16.54
16.95
17.53
18.23
18.90
19.27
19.14
18.37
17.06
15.41
13.73
12.17
10.77
9.39
7.82
5.95
3.78
1.43
-0.94
-3.19
-5.26
-7.12
-8.81
-10.46
-12.27
-14.52
-17.43
-21.04
-25.05
-28.83
-31.47
-32.10
-30.15
-25.61
-19.02
-11.32
-3.59
3.33
8.94
13.12
16.00
17.82
18.80
19.09
18.82
18.14
17.23
16.30
15.52
14.98
14.71
14.65
14.71
14.80
14.84
14.76
14.47
13.88
12.92
11.58
9.97
8.33
6.91
5.81
4.91
3.93
2.55
0.61
-1.79
-4.37
-6.81
-8.95
-10.78
-12.48
-14.23
-16.17
-18.41
-21.03
-24.02
-27.19
-30.08
-31.92
-31.95
-29.66
-25.06
-18.80
-11.83
-5.13
0.64
5.23
8.75
11.41
13.37
14.68
15.28
15.17
14.44
13.35
12.25
11.43
11.10
11.25
11.73
12.31
12.77
13.01
13.02
12.90
12.66
12.26
11.60
10.61
9.31
7.84
6.33
4.85
3.31
1.58
-0.48
-2.83
-5.28
-7.57
-9.51
-11.15
-12.70
-14.45
-16.59
-19.12
-21.89
-24.55
-26.65
-27.66
-27.04
-24.39
-19.65
-13.24
-5.98
1.07
7.01
11.33
13.99
15.31
15.69
15.45
14.75
13.71
12.44
11.14
10.06
9.44
9.34
9.66
10.20
10.65
10.80
10.53
9.91
9.08
8.21
7.37
6.51
5.51
4.24
2.64
0.73
-1.39
-3.58
-5.68
-7.54
-9.08
-10.27
-11.23
-12.13
-13.24
-14.78
-16.82
-19.30
-21.93
-24.26
-25.71
-25.76
-24.02
-20.41
-15.24
-9.13
-2.84
2.91
7.66
11.21
13.56
14.81
15.11
14.60
13.56
12.32
11.28
10.69
10.62
10.97
11.48
11.94
12.24
12.32
12.18
11.81
11.16
10.21
8.99
7.62
6.18
4.72
3.19
1.43
-0.65
-3.05
-5.60
-8.02
-10.04
-11.55
-12.60
-13.41
-14.29
-15.52
-17.33
-19.77
-22.68
-25.61
-27.88
-28.73
-27.57
-24.21
-18.95
-12.48
-5.68
0.63
5.96
10.03
12.83
14.46
15.12
15.08
14.63
14.08
13.60
13.27
13.08
12.99
12.95
12.97
13.01
13.05
13.03
12.92
12.71
12.39
11.91
11.16
10.05
8.53
6.68
4.66
2.64
0.72
-1.06
-2.69
-4.22
-5.67
-7.06
-8.51
-10.21
-12.40
-15.24
-18.70
-22.49
-26.05
-28.68
-29.76
-28.85
-25.88
-21.13
-15.18
-8.76
-2.61
2.72
6.91
9.87
11.72
12.67
12.97
12.90
12.66
12.47
12.42
12.53
12.74
12.96
13.11
13.11
12.97
12.64
12.11
11.35
10.35
9.13
7.75
6.30
4.87
3.51
2.21
0.93
-0.44
-1.98
-3.78
-5.80
-7.89
-9.85
-11.55
-13.00
-14.45
-16.23
-18.59
-21.47
-24.42
-26.65
-27.34
-25.87
-22.14
-16.59
-10.01
-3.33
2.70
7.63
11.29
13.75
15.13
15.63
15.42
14.72
13.73
12.65
11.66
10.90
10.40
10.15
10.04
9.89
9.56
8.95
8.15
7.32
6.65
6.22
5.94
5.55
4.75
3.26
1.04
-1.78
-4.90
-7.93
-10.56
-12.60
-14.04
-15.05
-15.94
-17.05
-18.65
-20.76
-23.13
-25.17
-26.14
-25.31
-22.30
-17.23
-10.75
-3.88
2.36
7.26
10.55
12.38
13.11
13.13
12.70
12.00
11.15
10.30
9.63
9.25
9.20
9.35
9.54
9.59
9.39
8.95
8.37
7.75
7.19
6.62
5.90
4.75
3.01
0.66
-2.08
-4.79
-7.09
-8.79
-10.05
-11.24
-12.83
-15.09
-17.93
-20.87
-23.17
-24.07
-23.03
-19.91
-15.04
-9.14
-3.05
2.44
6.80
9.85
11.67
12.49
12.51
11.91
10.83
9.47
8.14
7.11
6.59
6.58
6.87
7.20
7.37
7.33
7.25
7.31
7.56
7.83
7.74
6.95
5.27
2.79
-0.15
-3.15
-5.87
-8.15
-10.01
-11.58
-13.05
-14.64
-16.52
-18.80
-21.38
-23.92
-25.84
-26.46
-25.21
-21.86
-16.65
-10.28
-3.67
2.30
7.03
10.35
12.43
13.61
14.17
14.32
14.10
13.63
13.03
12.49
12.17
12.03
11.92
11.64
11.11
10.42
9.79
9.40
9.23
9.11
8.71
7.80
6.34
4.44
2.29
0.03
-2.31
-4.72
-7.18
-9.65
-12.04
-14.38
-16.75
-19.31
-22.01
-24.56
-26.31
-26.48
-24.48
-20.23
-14.25
-7.53
-1.11
4.26
8.32
11.20
13.20
14.51
15.15
15.04
14.20
12.85
11.46
10.43
10.06
10.31
10.87
11.29
11.24
10.57
9.48
8.35
7.59
7.39
7.59
7.72
7.21
5.69
3.22
0.20
-2.78
-5.27
-7.15
-8.66
-10.20
-12.18
-14.84
-18.18
-21.96
-25.69
-28.65
-30.02
-29.10
-25.62
-19.89
-12.78
-5.42
1.21
6.50
10.36
13.02
14.77
15.84
16.32
16.23
15.65
14.73
13.68
12.74
12.11
11.90
12.14
12.73
13.46
14.02
14.19
13.84
13.06
12.08
11.13
10.31
9.52
8.51
6.98
4.82
2.12
-0.81
-3.59
-5.94
-7.78
-9.27
-10.71
-12.44
-14.72
-17.68
-21.15
-24.75
-27.78
-29.48
-29.17
-26.49
-21.59
-15.10
-7.96
-1.07
4.87
9.50
12.79
14.86
15.93
16.21
15.90
15.27
14.60
14.16
14.11
14.48
15.10
15.74
16.19
16.35
16.24
15.93
15.45
14.74
13.76
12.47
10.97
9.37
7.75
6.12
4.36
2.41
0.32
-1.77
-3.65
-5.21
-6.49
-7.69
-9.11
-11.05
-13.66
-16.95
-20.74
-24.57
-27.75
-29.52
-29.23
-26.65
-22.04
-16.16
-9.96
-4.33
0.19
3.48
5.74
7.27
8.31
8.95
9.17
9.01
8.60
8.23
8.18
8.61
9.47
10.47
11.29
11.64
11.44
10.83
10.08
9.40
8.90
8.46
7.86
6.82
5.18
2.96
0.33
-2.40
-4.97
-7.25
-9.19
-10.93
-12.61
-14.43
-16.56
-19.06
-21.76
-24.26
-25.89
-25.90
-23.81
-19.52
-13.49
-6.59
0.18
6.05
10.60
13.84
16.00
17.33
18.00
18.07
17.57
16.61
15.41
14.30
13.56
13.39
13.74
14.37
14.92
15.10
14.80
14.02
12.92
11.69
10.43
9.18
7.89
6.49
4.87
2.97
0.76
-1.68
-4.15
-6.43
-8.34
-9.84
-11.08
-12.32
-13.89
-16.06
-18.95
-22.50
-26.45
-30.30
-33.31
-34.63
-33.56
-29.76
-23.53
-15.71
-7.49
0.03
6.09
10.43
13.22
14.80
15.50
15.53
15.10
14.38
13.66
13.18
13.13
13.50
14.15
14.83
15.33
15.53
15.37
14.83
13.90
12.60
11.03
9.35
7.69
6.10
4.50
2.69
0.45
-2.26
-5.28
-8.30
-10.94
-12.96
-14.39
-15.46
-16.61
-18.23
-20.61
-23.73
-27.32
-30.83
-33.59
-34.91
-34.29
-31.45
-26.50
-19.87
-12.24
-4.33
3.26
10.24
16.59
22.46
28.01
33.32
38.42
43.37
48.40
53.82
59.88
66.46
73.02
78.61
82.00
81.99
77.53
68.14
53.98
36.17
16.59
-2.46
-18.89
-31.44
-39.95
-45.20
-48.39
-50.57
-52.27
-53.66
-54.83
-56.08
-57.87
-60.56
-64.14
-68.07
-71.55
-73.92
-75.02
-75.40
-76.09
-78.23
-82.45
-88.58
-95.51
-101.54
-104.92
-104.61
-100.64
-94.20
-87.15
-81.23
-77.25
-74.64
-71.61
-65.70
-54.58
-36.86
-12.58
16.72
48.27
78.66
104.66
123.92
135.51
140.00
139.01
134.65
128.69
122.23
115.50
108.25
100.19
91.24
81.70
72.06
62.64
53.52
44.45
35.05
25.18
15.07
5.33
-3.26
-10.01
-14.57
-16.91
-17.12
-15.34
-11.80
-7.07
-2.38
0.51
-0.06
-4.69
-12.17
-19.28
-21.74
-15.85
-0.08
24.09
52.71
80.83
104.40
121.50
132.48
139.16
143.82
148.47
154.64
163.55
175.86
191.03
206.48
217.42
218.42
206.15
181.75
151.20
122.88
103.28
93.37
87.96
78.27
56.61
20.11
-28.42
-83.00
-138.15
-191.50
-243.70
-296.10
-348.10
-396.08
-434.77
-459.64
-469.04
-464.61
-450.34
-430.52
-408.21
-384.62
-359.41
-331.62
-300.70
-266.97
-231.78
-196.99
-164.23
-134.14
-106.07
-78.36
-49.20
-17.76
15.26
47.80
77.58
103.25
125.10
144.94
165.06
187.15
211.64
237.57
262.79
284.45
299.62
305.77
301.44
286.49
262.20
230.92
195.50
158.71
122.77
89.16
58.69
31.59
7.77
-13.02
-31.10
-46.98
-61.77
-77.51
-96.92
-122.37
-154.29
-189.90
-223.22
-246.76
-254.29
-243.20
-215.55
-176.82
-133.68
-91.30
-51.86
-14.62
23.08
64.51
112.74
169.83
235.94
308.34
380.84
444.62
490.53
512.16
508.14
482.50
442.79
396.82
349.90
303.73
257.13
207.80
154.12
96.07
35.29
-25.35
-82.29
-131.92
-171.32
-198.91
-215.00
-221.48
-221.42
-218.13
-214.68
-213.39
-215.81
-222.52
-233.02
-245.73
-258.29
-268.11
-272.95
-271.15
-261.64
-243.84
-217.88
-184.78
-146.76
-107.25
-70.32
-39.67
-17.98
-5.96
-2.26
-4.04
-7.72
-9.82
-7.52
0.94
15.98
36.70
60.72
84.50
103.75
114.64
115.02
105.52
89.74
73.11
60.75
55.31
55.92
58.97
60.25
57.44
51.58
46.74
48.07
59.20
80.35
107.83
135.38
156.65
166.98
164.64
150.88
128.95
102.94
76.66
53.10
34.09
20.34
11.62
7.05
5.46
5.57
6.18
6.22
4.83
1.59
-3.20
-8.40
-12.28
-13.13
-10.14
-3.89
3.71
10.20
13.53
12.91
8.98
3.36
-2.06
-5.84
-7.27
-6.47
-4.16
-1.40
0.69
1.13
-0.66
-4.61
-10.01
-15.78
-20.83
-24.61
-27.22
-29.29
-31.58
-34.63
-38.52
-43.03
-47.60
-51.42
-53.32
-51.97
-46.38
-36.60
-24.04
-11.03
0.17
8.45
14.17
18.51
22.29
25.12
25.51
21.98
14.20
3.64
-7.03
-15.19
-19.68
-21.12
-21.52
-23.02
-26.90
-33.03
-40.22
-46.77
-51.34
-53.40
-53.34
-52.14
-50.87
-50.22
-50.36
-51.07
-52.02
-53.06
-54.20
-55.47
-56.67
-57.29
-56.60
-53.89
-48.81
-41.49
-32.61
-23.15
-14.16
-6.38
-0.18
4.47
7.86
10.29
11.97
12.99
13.36
13.15
12.48
11.54
10.47
9.30
7.99
6.46
4.76
3.10
1.76
0.91
0.48
0.07
-0.88
-2.90
-6.24
-10.72
-15.77
-20.51
-24.01
-25.43
-24.21
-20.22
-13.78
-5.69
3.00
11.18
18.03
23.08
26.28
27.82
27.99
27.09
25.37
23.14
20.72
18.42
16.45
14.81
13.33
11.75
9.87
7.64
5.24
2.96
1.07
-0.38
-1.57
-2.86
-4.72
-7.44
-11.03
-15.17
-19.16
-22.16
-23.34
-22.11
-18.28
-12.20
-4.63
3.31
10.58
16.39
20.38
22.64
23.45
23.13
21.90
19.91
17.34
14.53
11.96
9.99
8.76
8.09
7.51
6.56
5.00
2.96
0.79
-1.07
-2.37
-3.12
-3.69
-4.58
-6.31
-9.17
-13.08
-17.54
-21.72
-24.62
-25.34
-23.47
-19.14
-13.13
-6.49
-0.23
5.00
8.95
11.75
13.60
14.58
14.63
13.68
11.81
9.32
6.74
4.55
2.98
2.01
1.33
0.58
-0.46
-1.83
-3.37
-4.91
-6.29
-7.50
-8.61
-9.74
-11.07
-12.83
-15.16
-18.03
-21.01
-23.25
-23.66
-21.28
-15.77
-7.63
1.84
11.06
18.66
23.98
27.07
28.52
29.01
28.97
28.64
28.11
27.58
27.36
27.67
28.39
28.93
28.39
25.94
21.35
15.13
8.41
2.41
-2.08
-4.99
-6.88
-8.61
-10.90
-14.11
-18.16
-22.67
-26.96
-30.22
-31.54
-30.15
-25.75
-18.72
-10.03
-1.07
6.95
13.25
17.70
20.54
22.13
22.67
22.23
20.90
18.94
16.88
15.24
14.38
14.23
14.37
14.23
13.41
11.91
10.04
8.24
6.83
5.79
4.85
3.64
1.93
-0.36
-3.13
-6.27
-9.66
-13.06
-16.03
-17.89
-17.85
-15.41
-10.57
-4.00
3.22
9.98
15.47
19.31
21.48
22.17
21.58
19.96
17.61
14.92
12.33
10.17
8.58
7.51
6.70
5.89
4.83
3.47
1.89
0.35
-0.88
-1.63
-1.98
-2.29
-3.05
-4.71
-7.46
-11.20
-15.49
-19.60
-22.60
-23.51
-21.59
-16.64
-9.21
-0.48
8.01
14.98
19.69
22.16
22.84
22.27
20.85
18.71
15.94
12.77
9.62
6.98
5.21
4.33
4.03
3.79
3.11
1.78
-0.04
-1.95
-3.45
-4.30
-4.63
-4.87
-5.63
-7.43
-10.48
-14.58
-19.08
-23.06
-25.43
-25.28
-22.16
-16.23
-8.31
0.34
8.44
15.02
19.62
22.30
23.42
23.41
22.62
21.22
19.35
17.16
14.87
12.86
11.44
10.79
10.77
10.98
10.96
10.37
9.12
7.40
5.52
3.65
1.83
-0.10
-2.34
-5.03
-8.21
-11.81
-15.74
-19.76
-23.42
-26.06
-26.96
-25.57
-21.81
-16.20
-9.70
-3.40
1.87
5.74
8.33
10.05
11.28
12.17
12.62
12.38
11.33
9.60
7.56
5.70
4.33
3.48
2.88
2.15
1.03
-0.52
-2.27
-3.87
-5.07
-5.80
-6.21
-6.55
-7.06
-7.92
-9.21
-11.00
-13.26
-15.81
-18.22
-19.82
-19.85
-17.81
-13.66
-7.94
-1.64
4.17
8.72
11.69
13.27
13.88
13.92
13.62
12.96
11.86
10.26
8.32
6.33
4.68
3.64
3.25
3.30
3.42
3.29
2.75
1.92
1.00
0.19
-0.49
-1.18
-2.07
-3.33
-5.00
-7.00
-9.26
-11.75
-14.40
-17.09
-19.48
-21.01
-21.07
-19.22
-15.41
-10.08
-4.06
1.72
6.49
9.90
11.96
12.99
13.31
13.20
12.78
12.09
11.18
10.16
9.15
8.26
7.52
6.87
6.23
5.55
4.84
4.14
3.51
2.91
2.18
1.17
-0.26
-2.11
-4.22
-6.33
-8.21
-9.81
-11.24
-12.77
-14.71
-17.21
-20.18
-23.20
-25.63
-26.72
-25.92
-22.98
-18.15
-12.04
-5.53
0.57
5.66
9.42
11.87
13.16
13.53
13.18
12.31
11.10
9.75
8.46
7.38
6.64
6.25
6.17
6.30
6.50
6.68
6.71
6.52
5.99
5.04
3.61
1.69
-0.58
-2.99
-5.29
-7.27
-8.86
-10.20
-11.56
-13.28
-15.62
-18.60
-21.94
-25.01
-27.00
-27.12
-24.86
-20.27
-13.95
-6.92
-0.25
5.23
9.11
11.46
12.57
12.75
12.26
11.23
9.74
7.91
5.91
3.94
2.22
0.95
0.22
0.05
0.33
0.85
1.34
1.55
1.32
0.71
-0.14
-1.01
-1.77
-2.43
-3.09
-3.94
-5.10
-6.69
-8.81
-11.44
-14.45
-17.48
-19.89
-20.89
-19.80
-16.36
-10.90
-4.31
2.29
7.88
11.88
14.15
14.86
14.37
13.02
11.19
9.28
7.67
6.62
6.23
6.36
6.75
7.09
7.24
7.19
7.04
6.92
6.91
6.94
6.87
6.48
5.60
4.11
2.10
-0.27
-2.70
-4.94
-6.83
-8.43
-9.93
-11.63
-13.83
-16.70
-20.13
-23.66
-26.50
-27.68
-26.39
-22.28
-15.78
-7.89
0.06
6.90
12.00
15.28
17.09
17.84
17.79
17.07
15.74
14.02
12.21
10.66
9.58
8.95
8.55
8.08
7.30
6.11
4.60
3.01
1.65
0.73
0.24
-0.00
-0.37
-1.17
-2.55
-4.35
-6.25
-7.92
-9.23
-10.32
-11.55
-13.38
-16.13
-19.80
-23.93
-27.64
-29.86
-29.64
-26.52
-20.74
-13.18
-5.07
2.40
8.44
12.78
15.55
17.11
17.80
17.88
17.54
16.94
16.27
15.64
15.12
14.67
14.17
13.48
12.51
11.27
9.90
8.61
7.63
7.07
6.85
6.68
6.19
5.05
3.18
0.76
-1.86
-4.26
-6.22
-7.68
-8.85
-10.04
-11.58
-13.71
-16.52
-19.88
-23.32
-26.14
-27.42
-26.38
-22.68
-16.58
-8.98
-1.10
5.93
11.39
15.09
17.31
18.48
18.92
18.76
18.05
16.89
15.52
14.30
13.55
13.37
13.58
13.81
13.70
13.07
12.00
10.80
9.84
9.32
9.18
9.09
8.59
7.32
5.18
2.38
-0.64
-3.43
-5.71
-7.49
-9.04
-10.79
-13.13
-16.23
-20.05
-24.20
-28.10
-30.97
-32.05
-30.75
-26.85
-20.64
-12.90
-4.70
2.88
9.00
13.31
15.87
17.03
17.17
16.59
15.46
13.87
11.98
10.05
8.39
7.23
6.63
6.45
6.46
6.42
6.19
5.80
5.30
4.69
3.87
2.65
0.86
-1.48
-4.16
-6.80
-9.09
-10.89
-12.33
-13.75
-15.51
-17.81
-20.64
-23.74
-26.62
-28.71
-29.36
-27.99
-24.27
-18.31
-10.77
-2.70
4.74
10.65
14.62
16.77
17.52
17.36
16.65
15.58
14.27
12.88
11.58
10.53
9.78
9.27
8.81
8.30
7.71
7.14
6.73
6.50
6.40
6.19
5.65
4.63
3.12
1.26
-0.77
-2.81
-4.80
-6.78
-8.86
-11.21
-14.03
-17.44
-21.38
-25.42
-28.76
-30.28
-29.01
-24.49
-17.14
-8.16
0.85
8.49
13.98
17.34
19.07
19.77
19.83
19.36
18.34
16.84
15.12
13.54
12.34
11.58
11.05
10.49
9.69
8.68
7.66
6.91
6.58
6.60
6.68
6.38
5.38
3.54
1.01
-1.87
-4.65
-7.00
-8.81
-10.26
-11.78
-13.87
-16.96
-21.14
-26.07
-30.93
-34.59
-35.95
-34.33
-29.70
-22.79
-14.75
-6.82
0.09
5.59
9.73
12.73
14.78
15.86
15.89
14.90
13.18
11.26
9.69
8.81
8.64
8.87
9.10
9.00
8.42
7.47
6.39
5.42
4.74
4.38
4.31
4.45
4.77
5.29
6.01
6.96
8.24
10.26
13.64
18.99
26.40
34.89
42.34
46.15
44.39
36.82
25.31
13.15
3.79
-0.44
1.18
8.13
19.36
33.87
50.52
67.47
81.93
90.72
91.55
84.31
71.44
56.97
44.77
36.88
33.07
31.57
30.51
29.00
27.26
25.86
24.84
23.15
19.08
11.18
-0.91
-16.10
-32.16
-46.51
-56.99
-62.40
-62.66
-58.64
-51.80
-43.78
-36.14
-30.17
-26.76
-26.35
-28.68
-32.71
-36.67
-38.56
-36.78
-30.91
-21.85
-11.64
-2.77
2.53
2.72
-2.82
-13.84
-29.22
-47.10
-64.97
-80.16
-90.48
-94.83
-93.47
-87.74
-79.57
-70.72
-62.31
-54.78
-48.06
-41.93
-36.29
-31.13
-26.53
-22.54
-19.15
-16.25
-13.75
-11.61
-9.89
-8.71
-8.12
-8.14
-8.58
-9.18
-9.63
-9.76
-9.58
-9.35
-9.45
-10.16
-11.51
-13.14
-14.40
-14.49
-12.76
-8.98
-3.38
3.33
10.27
16.57
21.70
25.45
27.94
29.45
30.26
30.54
30.34
29.65
28.44
26.82
24.94
23.01
21.25
19.76
18.48
17.28
15.96
14.35
12.42
10.21
7.83
5.35
2.79
0.20
-2.35
-4.72
-6.80
-8.61
-10.37
-12.43
-15.11
-18.41
-21.95
-24.94
-26.42
-25.57
-22.06
-16.13
-8.60
-0.56
6.91
13.05
17.51
20.33
21.78
22.14
21.68
20.61
19.15
17.58
16.17
15.12
14.50
14.18
13.97
13.71
13.30
12.77
12.18
11.52
10.66
9.44
7.71
5.43
2.75
-0.09
-2.84
-5.30
-7.44
-9.40
-11.48
-13.99
-17.19
-21.09
-25.35
-29.25
-31.85
-32.23
-29.78
-24.45
-16.82
-7.90
1.10
9.11
15.44
19.83
22.41
23.50
23.53
22.84
21.71
20.39
19.00
17.61
16.22
14.80
13.33
11.87
10.54
9.45
8.67
8.11
7.57
6.81
5.67
4.12
2.32
0.46
-1.31
-2.92
-4.46
-6.06
-7.88
-10.05
-12.66
-15.71
-19.07
-22.38
-25.02
-26.19
-25.13
-21.39
-15.10
-6.96
2.06
11.12
19.82
28.14
36.15
43.56
49.49
52.75
52.30
47.86
40.23
30.96
21.80
14.03
8.12
3.84
0.61
-2.04
-4.22
-5.76
-6.44
-6.27
-5.60
-5.00
-5.13
-6.38
-8.78
-11.94
-15.30
-18.30
-20.62
-22.27
-23.55
-24.97
-26.99
-29.90
-33.73
-38.12
-42.27
-45.13
-45.61
-42.95
-36.99
-28.38
-18.33
-8.25
0.69
7.87
13.20
16.96
19.43
20.82
21.20
20.72
19.71
18.65
17.99
17.96
18.44
19.03
19.30
18.95
17.98
16.63
15.24
14.07
13.17
12.35
11.30
9.69
7.38
4.42
1.14
-2.03
-4.73
-6.80
-8.34
-9.76
-11.55
-14.20
-17.98
-22.74
-27.87
-32.32
-34.94
-34.71
-31.19
-24.69
-16.15
-6.88
1.88
9.25
14.86
18.78
21.26
22.56
22.84
22.25
20.98
19.36
17.77
16.51
15.71
15.26
14.95
14.61
14.17
13.72
13.38
13.17
12.92
12.39
11.28
9.44
6.91
3.94
0.88
-1.97
-4.45
-6.64
-8.88
-11.58
-15.14
-19.69
-24.86
-29.83
-33.40
-34.41
-32.09
-26.40
-18.08
-8.47
0.97
9.05
15.16
19.20
21.50
22.44
22.37
21.52
20.12
18.47
16.93
15.86
15.43
15.55
15.95
16.24
16.10
15.44
14.39
13.25
12.30
11.62
11.04
10.16
8.56
6.02
2.64
-1.16
-4.85
-8.02
-10.61
-12.87
-15.27
-18.31
-22.25
-27.03
-32.15
-36.67
-39.42
-39.31
-35.65
-28.56
-18.96
-8.37
1.63
9.84
15.78
19.59
21.77
22.80
23.01
22.52
21.46
20.06
18.68
17.65
17.20
17.28
17.62
17.87
17.81
17.39
16.76
16.11
15.47
14.74
13.64
11.89
9.38
6.23
2.76
-0.62
-3.54
-5.93
-7.92
-9.88
-12.27
-15.51
-19.79
-24.95
-30.46
-35.43
-38.77
-39.48
-36.98
-31.25
-22.94
-13.22
-3.44
5.25
12.10
16.91
19.90
21.50
22.16
22.16
21.66
20.80
19.70
18.62
17.79
17.41
17.42
17.58
17.55
17.06
16.08
14.83
13.64
12.74
12.11
11.45
10.27
8.20
5.11
1.27
-2.75
-6.30
-8.94
-10.60
-11.66
-12.78
-14.67
-17.75
-22.06
-27.13
-32.14
-36.01
-37.69
-36.33
-31.60
-23.83
-13.96
-3.36
6.60
14.94
21.17
25.37
27.88
29.08
29.29
28.80
27.92
27.04
26.59
26.80
27.61
28.53
28.90
28.02
25.55
21.65
16.93
12.26
8.40
5.77
4.25
3.33
2.30
0.57
-2.09
-5.50
-9.17
-12.54
-15.21
-17.13
-18.62
-20.19
-22.36
-25.36
-29.11
-33.13
-36.73
-39.09
-39.45
-37.32
-32.59
-25.63
-17.27
-8.57
-0.58
5.91
10.55
13.36
14.59
14.56
13.59
11.99
10.09
8.23
6.74
5.82
5.49
5.64
6.04
6.50
6.91
7.23
7.47
7.65
7.68
7.40
6.59
5.11
2.98
0.41
-2.22
-4.63
-6.68
-8.54
-10.58
-13.24
-16.86
-21.55
-27.03
-32.64
-37.34
-39.95
-39.40
-35.24
-27.78
-18.19
-8.07
1.05
8.14
12.91
15.63
16.83
16.99
16.47
15.51
14.37
13.37
12.76
12.69
13.08
13.71
14.33
14.70
14.69
14.30
13.67
12.95
12.29
11.65
10.84
9.52
7.43
4.49
0.91
-2.87
-6.39
-9.35
-11.75
-13.80
-15.87
-18.25
-21.14
-24.52
-28.20
-31.75
-34.54
-35.79
-34.76
-31.04
-24.69
-16.33
-7.00
2.13
10.08
16.32
20.74
23.61
25.28
26.04
26.00
25.16
23.54
21.31
18.78
16.34
14.32
12.81
11.72
10.78
9.78
8.62
7.39
6.27
5.42
4.89
4.54
4.10
3.23
1.65
-0.71
-3.71
-6.98
-10.14
-12.92
-15.35
-17.70
-20.42
-23.85
-28.02
-32.62
-37.01
-40.44
-42.22
-41.87
-39.17
-34.22
-27.41
-19.42
-11.09
-3.24
3.57
9.11
13.53
17.16
20.30
23.08
25.44
27.26
28.47
29.14
29.41
29.45
29.31
28.95
28.27
27.27
25.99
24.54
22.94
21.05
18.72
15.78
12.23
8.27
4.27
0.57
-2.61
-5.34
-7.89
-10.67
-14.04
-18.21
-23.16
-28.67
-34.35
-39.58
-43.64
-45.75
-45.26
-41.91
-35.96
-28.21
-19.77
-11.68
-4.61
1.22
5.97
9.86
13.00
15.34
16.82
17.52
17.76
17.97
18.47
19.33
20.32
21.09
21.35
21.06
20.37
19.57
18.84
18.16
17.34
16.10
14.21
11.67
8.68
5.58
2.64
-0.05
-2.65
-5.49
-8.89
-12.98
-17.60
-22.20
-26.03
-28.24
-28.10
-25.25
-19.77
-12.29
-3.83
4.47
11.61
17.02
20.61
22.71
23.69
23.90
23.46
22.39
20.73
18.69
16.63
14.95
13.92
13.55
13.58
13.64
13.31
12.36
10.74
8.59
6.17
3.73
1.40
-0.83
-3.09
-5.51
-8.15
-11.05
-14.17
-17.58
-21.33
-25.34
-29.22
-32.12
-32.98
-30.89
-25.58
-17.64
-8.40
0.53
7.83
12.86
15.74
17.01
17.32
17.08
16.38
15.12
13.21
10.74
8.00
5.38
3.19
1.53
0.23
-1.07
-2.81
-5.28
-8.56
-12.42
-16.47
-20.31
-23.71
-26.78
-29.90
-33.62
-38.41
-44.53
-51.88
-60.10
-68.64
-76.94
-84.51
-90.97
-96.12
-99.95
-102.60
-104.25
-104.91
-104.24
-101.49
-95.78
-86.59
-74.45
-61.33
-50.54
-45.85
-49.98
-63.16
-82.59
-102.98
-118.55
-125.20
-122.12
-111.92
-99.24
-88.48
-82.01
-79.49
-78.74
-77.29
-73.80
-68.48
-62.39
-56.34
-49.84
-40.92
-26.77
-4.72
27.14
69.76
123.11
185.76
254.17
322.30
382.12
425.46
446.66
444.47
422.33
386.74
344.35
299.54
253.55
205.46
154.33
101.02
48.73
1.99
-35.08
-60.42
-74.61
-80.29
-80.86
-79.08
-75.87
-70.56
-61.59
-47.72
-28.83
-6.25
17.67
40.11
58.48
70.71
75.35
71.71
59.96
41.24
17.77
-7.34
-30.70
-49.50
-62.42
-70.17
-75.22
-80.75
-89.26
-101.27
-115.06
-127.37
-134.91
-135.77
-130.27
-120.75
-110.76
-103.81
-102.48
-107.85
-119.38
-135.08
-151.91
-166.38
-175.28
-176.56
-169.87
-156.55
-139.17
-120.43
-102.22
-85.06
-68.24
-50.52
-30.95
-9.43
13.32
36.27
58.64
80.08
100.37
118.84
134.05
144.02
147.05
142.68
132.18
118.21
103.90
91.61
82.26
75.31
69.55
64.05
58.92
55.36
55.15
59.81
70.04
85.67
105.83
129.39
154.93
180.69
204.49
223.90
236.67
241.22
237.01
224.63
205.66
182.47
157.95
135.09
116.36
103.06
94.80
89.67
84.77
76.96
63.51
42.63
13.90
-20.97
-57.88
-90.89
-114.04
-123.82
-121.05
-110.84
-100.46
-96.00
-99.69
-109.30
-119.94
-127.07
-128.84
-126.55
-123.21
-121.22
-120.87
-120.17
-116.16
-106.61
-91.34
-72.15
-51.90
-32.98
-16.29
-1.06
14.34
31.09
48.94
66.05
79.66
87.40
88.32
83.34
74.62
64.60
54.94
46.09
37.62
28.89
19.70
10.40
1.52
-6.83
-15.17
-24.38
-34.88
-46.02
-55.93
-62.12
-62.59
-56.86
-46.29
-33.66
-21.99
-13.38
-8.28
-5.53
-3.16
0.54
6.22
13.27
20.32
26.07
30.02
32.81
35.94
41.23
50.14
63.25
80.04
98.73
116.46
129.56
134.35
128.21
110.71
84.13
52.99
22.60
-2.78
-21.23
-33.23
-40.77
-45.82
-49.35
-51.19
-50.82
-48.20
-44.22
-40.33
-37.70
-36.53
-35.96
-34.54
-31.17
-25.65
-18.85
-12.27
-7.43
-5.28
-5.80
-8.16
-11.17
-13.79
-15.56
-16.66
-17.58
-18.75
-20.28
-21.85
-23.05
-23.64
-23.71
-23.53
-23.10
-21.94
-19.16
-13.87
-5.75
4.57
15.66
25.72
33.23
37.38
38.22
36.54
33.58
30.77
29.44
30.61
34.60
40.86
48.03
54.31
58.09
58.61
56.14
51.87
47.32
43.70
41.40
40.00
38.45
35.51
30.01
21.04
8.20
-8.17
-26.54
-44.09
-57.17
-62.49
-58.66
-47.50
-33.88
-24.26
-24.10
-35.62
-56.95
-83.23
-108.82
-129.64
-144.21
-153.28
-158.36
-160.51
-159.81
-155.77
-148.20
-137.72
-125.66
-113.46
-102.06
-91.62
-81.72
-71.84
-61.74
-51.68
-42.35
-34.54
-28.85
-25.48
-24.11
-24.09
-24.65
-25.23
-25.74
-26.66
-28.75
-32.69
-38.63
-45.96
-53.49
-59.84
-64.01
-65.83
-65.90
-65.39
-65.40
-66.52
-68.63
-71.09
-73.20
-74.61
-75.69
-77.42
-81.05
-87.59
-97.34
-109.60
-122.69
-134.18
-141.47
-142.44
-135.93
-122.07
-102.13
-78.08
-51.97
-25.36
1.10
27.75
55.70
86.11
119.50
155.19
191.36
225.46
254.99
277.92
292.84
298.63
294.30
279.18
253.55
219.40
180.39
141.27
106.54
79.16
60.03
48.25
42.00
39.50
39.49
41.23
44.25
47.97
51.60
54.29
55.30
54.30
51.30
46.52
40.15
32.20
22.70
11.85
0.44
-10.13
-18.25
-22.63
-22.97
-20.02
-15.21
-10.00
-5.21
-0.88
3.28
7.31
10.54
11.61
8.99
1.43
-11.65
-30.20
-53.64
-80.82
-109.72
-137.23
-159.38
-172.16
-172.77
-160.59
-137.46
-107.23
-74.63
-44.09
-19.03
-1.52
7.70
9.06
3.82
-6.19
-18.93
-32.41
-44.88
-54.86
-61.20
-63.20
-60.75
-54.49
-45.64
-35.72
-26.08
-17.62
-10.68
-5.16
-0.73
3.05
6.68
10.70
15.60
21.72
29.05
37.20
45.48
53.04
59.00
62.82
64.38
64.16
63.14
62.58
63.56
66.66
71.75
78.05
84.58
90.52
95.53
99.80
103.76
107.77
111.82
115.63
118.73
120.93
122.49
124.00
126.07
129.02
132.82
137.15
141.63
145.62
147.99
146.91
140.10
125.66
103.05
73.68
40.73
8.10
-20.83
-44.18
-61.59
-73.69
-81.38
-85.45
-86.62
-85.83
-84.27
-83.08
-82.91
-83.63
-84.52
-84.62
-83.31
-80.61
-77.05
-73.30
-69.78
-66.30
-62.29
-57.06
-50.28
-42.25
-33.82
-26.01
-19.55
-14.47
-10.14
-5.52
0.28
7.67
16.23
24.81
31.86
35.87
35.89
31.94
25.30
18.26
13.53
13.13
17.38
24.40
30.44
31.22
23.54
6.50
-18.18
-46.96
-75.75
-101.17
-121.07
-134.57
-141.60
-142.61
-138.38
-130.11
-119.36
-107.71
-96.45
-86.23
-77.04
-68.49
-60.08
-51.59
-43.19
-35.34
-28.62
-23.57
-20.51
-19.35
-19.63
-20.52
-21.10
-20.67
-18.97
-16.30
-13.34
-10.80
-9.04
-7.89
-6.75
-4.83
-1.67
2.70
7.63
12.17
15.46
17.06
17.12
16.32
15.76
16.56
19.70
25.49
33.30
41.35
47.20
48.56
44.38
35.45
24.24
13.86
6.86
4.21
5.19
8.06
11.03
12.95
13.50
12.88
11.33
8.86
5.33
0.71
-4.69
-10.18
-14.78
-17.57
-17.94
-15.77
-11.46
-5.75
0.48
6.43
11.51
15.30
17.68
18.76
18.90
18.61
18.41
18.65
19.39
20.38
21.21
21.50
21.02
19.82
18.22
16.75
16.06
16.64
18.68
21.90
25.54
28.61
30.27
30.19
28.80
27.27
26.99
28.94
32.97
37.67
40.64
39.33
31.77
17.10
-4.21
-30.47
-58.92
-85.78
-106.60
-117.01
-114.03
-97.39
-70.16
-38.14
-8.04
14.78
27.74
31.33
27.91
20.26
10.34
-0.77
-12.27
-22.99
-31.14
-34.96
-33.63
-27.95
-20.13
-12.90
-8.40
-7.34
-9.04
-11.95
-14.60
-16.33
-17.33
-18.31
-19.91
-22.19
-24.63
-26.38
-26.75
-25.56
-23.23
-20.48
-17.98
-15.91
-13.96
-11.45
-7.78
-2.80
3.05
8.86
13.69
16.96
18.72
19.49
19.94
20.60
21.62
22.83
23.92
24.63
24.87
24.70
24.25
23.60
22.73
21.56
19.92
17.66
14.63
10.80
6.30
1.42
-3.35
-7.44
-10.36
-11.82
-11.85
-10.80
-9.16
-7.38
-5.60
-3.69
-1.32
1.84
5.99
11.17
17.41
24.57
32.33
39.80
45.58
48.09
46.21
40.02
31.02
21.65
14.33
10.42
9.71
10.75
11.66
11.02
8.42
4.37
-0.26
-4.67
-8.55
-12.02
-15.39
-18.96
-22.87
-27.07
-31.47
-35.96
-40.51
-45.12
-49.82
-54.50
-58.87
-62.44
-64.62
-64.87
-62.83
-58.44
-51.84
-43.35
-33.51
-23.17
-13.59
-6.24
-2.42
-2.77
-6.75
-12.66
-18.17
-21.17
-20.71
-17.32
-12.64
-8.33
-4.94
-1.44
4.18
13.68
27.20
42.75
56.84
66.00
68.32
64.07
55.10
43.69
31.51
19.49
8.27
-1.10
-7.23
-8.91
-6.02
0.24
7.77
14.61
19.85
23.84
27.70
32.46
38.47
45.21
51.81
57.61
62.57
67.27
72.59
79.21
86.98
94.68
100.23
101.40
96.75
86.41
72.25
57.30
44.75
36.81
33.98
34.88
36.72
36.16
30.21
16.94
-4.04
-31.27
-61.44
-89.73
-110.86
-120.52
-117.01
-101.97
-80.07
-57.37
-39.08
-27.91
-23.68
-24.21
-26.95
-30.31
-33.95
-38.04
-42.43
-46.18
-47.97
-46.92
-43.14
-37.82
-32.60
-28.77
-26.66
-25.65
-24.58
-22.45
-18.86
-14.23
-9.61
-6.10
-4.41
-4.54
-5.90
-7.63
-9.05
-10.03
-10.92
-12.35
-14.75
-18.16
-22.23
-26.37
-30.11
-33.16
-35.38
-36.64
-36.85
-35.88
-33.61
-30.01
-25.13
-19.15
-12.47
-5.75
0.26
5.15
9.34
14.05
20.98
31.45
45.78
63.20
82.22
101.12
118.19
131.64
139.51
139.99
132.16
116.73
96.09
73.53
51.98
33.13
17.39
4.50
-5.63
-12.66
-16.33
-17.09
-16.24
-15.48
-15.98
-17.83
-20.10
-21.56
-21.40
-19.74
-17.30
-15.05
-13.57
-12.95
-12.83
-12.74
-12.32
-11.41
-10.09
-8.48
-6.74
-5.06
-3.59
-2.45
-1.70
-1.23
-0.72
0.19
1.79
4.17
7.12
10.22
12.99
15.09
16.40
17.04
17.19
17.08
16.89
16.74
16.71
16.80
16.92
16.90
16.49
15.46
13.61
10.90
7.55
4.10
1.37
0.21
1.13
4.01
8.01
11.86
14.30
14.66
13.20
10.99
9.42
9.50
11.31
13.94
15.94
16.09
13.98
10.25
6.32
3.59
2.82
3.78
5.47
6.82
7.40
7.60
8.54
11.48
17.44
26.75
38.80
51.94
63.40
69.57
66.79
52.48
26.61
-7.41
-42.92
-71.74
-86.81
-84.52
-66.05
-37.05
-5.82
19.19
31.74
29.36
13.58
-11.01
-38.49
-63.47
-82.46
-94.27
-99.70
-100.55
-98.51
-94.67
-89.43
-83.03
-75.87
-68.67
-62.12
-56.53
-51.75
-47.33
-42.85
-38.33
-34.19
-31.08
-29.26
-28.25
-26.82
-23.45
-17.10
-7.74
3.46
14.53
23.47
28.91
30.50
28.81
25.03
20.44
16.20
13.14
11.82
12.50
15.09
19.13
23.68
27.45
29.13
27.78
23.32
16.67
9.65
4.47
2.83
5.18
10.40
16.11
19.63
19.22
14.77
7.78
0.42
-5.53
-9.52
-12.14
-14.46
-17.21
-20.34
-23.26
-25.45
-26.89
-28.13
-29.89
-32.63
-36.44
-41.14
-46.60
-52.72
-59.28
-65.69
-71.05
-74.36
-75.02
-72.87
-67.89
-59.60
-46.80
-27.92
-2.11
29.52
63.56
95.10
119.18
132.05
131.67
117.56
90.79
54.56
14.99
-19.01
-37.60
-33.58
-5.99
38.34
86.57
124.65
142.62
137.98
115.40
83.47
50.49
21.49
-2.24
-21.73
-38.25
-52.07
-62.31
-67.83
-68.36
-64.86
-59.22
-53.37
-48.51
-44.73
-41.33
-37.57
-33.15
-28.65
-25.30
-24.46
-26.99
-32.70
-40.35
-47.94
-53.48
-55.72
-54.62
-51.27
-47.38
-44.60
-43.81
-44.87
-46.75
-47.96
-47.20
-43.71
-37.48
-29.06
-19.30
-9.10
0.79
9.80
17.71
24.70
31.32
38.32
46.35
55.54
65.49
75.41
84.56
92.59
99.42
105.00
108.89
110.24
108.12
102.07
92.53
80.83
68.90
58.64
51.49
48.07
48.07
50.35
53.07
54.11
51.63
44.62
33.25
18.73
2.92
-12.30
-25.52
-36.07
-44.03
-50.12
-55.39
-60.87
-67.09
-73.82
-80.00
-84.14
-84.98
-82.06
-75.95
-67.95
-59.44
-51.21
-43.35
-35.42
-27.13
-18.70
-10.86
-4.50
-0.21
2.06
2.87
2.97
2.95
3.08
3.40
3.78
4.06
4.08
3.68
2.74
1.34
-0.22
-1.47
-2.06
-1.97
-1.52
-1.16
-1.13
-1.20
-0.80
0.72
3.61
7.59
11.96
16.00
19.36
22.23
25.12
28.48
32.32
36.20
39.31
40.96
40.84
39.25
37.00
35.01
33.99
34.14
35.04
35.95
36.21
35.63
34.51
33.51
33.18
33.63
34.39
34.57
33.30
30.09
25.04
18.79
12.25
6.32
1.64
-1.50
-3.23
-4.01
-4.40
-4.97
-6.14
-8.06
-10.65
-13.63
-16.57
-19.02
-20.49
-20.63
-19.16
-15.95
-10.96
-4.30
3.77
12.67
21.49
28.88
33.34
33.49
28.59
18.84
5.42
-9.81
-24.78
-37.75
-47.57
-53.73
-56.17
-55.13
-50.98
-44.32
-36.00
-27.09
-18.76
-11.91
-6.91
-3.46
-0.81
1.83
4.72
7.36
8.66
7.54
3.68
-1.99
-7.44
-10.29
-8.79
-2.52
7.50
19.38
31.02
40.85
48.00
52.24
53.64
52.32
48.40
41.96
33.20
22.49
10.35
-2.61
-15.70
-27.74
-36.72
-39.85
-34.37
-19.18
3.62
28.30
47.00
52.54
41.45
15.34
-19.88
-56.86
-89.74
-115.81
-135.12
-148.67
-156.67
-157.99
-151.23
-136.24
-115.12
-91.91
-71.18
-56.32
-48.39
-46.03
-46.45
-46.82
-45.38
-41.99
-37.72
-34.04
-31.98
-31.71
-32.53
-33.37
-33.43
-32.42
-30.50
-27.89
-24.42
-19.60
-13.10
-5.46
1.68
6.02
5.80
0.96
-6.59
-13.62
-16.99
-14.90
-7.23
4.87
19.81
36.10
52.36
67.15
78.75
85.73
87.56
84.98
79.85
74.41
70.40
68.55
68.63
69.86
71.23
71.86
71.22
69.31
66.77
64.68
64.26
66.21
70.47
76.21
82.05
86.55
88.47
86.85
80.95
70.37
55.26
36.55
16.05
-3.83
-20.71
-32.87
-39.70
-41.71
-40.16
-36.61
-32.54
-29.13
-27.20
-27.16
-29.12
-32.89
-38.07
-44.11
-50.40
-56.21
-60.74
-63.21
-63.01
-59.89
-54.22
-46.86
-38.94
-31.42
-24.86
-19.26
-14.33
-9.78
-5.60
-2.02
0.66
2.33
3.23
3.85
4.78
6.42
8.89
12.01
15.44
18.89
22.12
25.00
27.39
29.12
29.92
29.48
27.54
23.88
18.46
11.33
2.68
-7.24
-17.96
-28.66
-38.10
-44.79
-47.41
-45.27
-38.62
-28.68
-17.28
-6.16
3.35
10.65
15.73
18.94
20.79
21.86
22.76
24.02
25.96
28.62
31.72
34.95
38.10
41.21
44.41
47.70
50.82
53.31
54.77
55.23
55.28
55.94
58.26
62.74
69.01
75.73
80.89
82.50
79.29
71.23
59.57
46.54
34.79
26.68
23.73
26.11
32.32
39.33
43.22
40.68
30.75
15.87
1.48
-6.09
-2.68
11.33
30.84
47.97
55.41
49.23
29.83
0.99
-32.32
-65.73
-96.30
-122.20
-142.03
-154.43
-158.39
-153.79
-141.84
-124.92
-106.14
-88.54
-74.52
-65.39
-61.25
-61.05
-63.05
-65.26
-66.12
-64.91
-61.78
-57.60
-53.44
-50.14
-48.03
-46.96
-46.55
-46.46
-46.63
-47.22
-48.38
-50.08
-51.91
-53.27
-53.56
-52.46
-50.13
-47.23
-44.72
-43.49
-44.11
-46.56
-50.34
-54.60
-58.56
-61.57
-63.22
-63.29
-61.59
-57.95
-52.42
-45.56
-38.58
-33.07
-30.23
-30.06
-30.91
-29.87
-23.84
-10.87
9.08
34.20
61.64
88.55
112.72
132.70
147.43
156.07
158.01
153.31
142.99
129.07
113.97
99.81
87.90
78.61
71.61
66.38
62.57
60.10
59.03
59.31
60.48
61.74
62.06
60.64
57.24
52.32
46.86
41.80
37.68
34.47
31.72
28.92
25.77
22.22
18.32
14.16
9.93
6.02
2.99
1.18
0.17
-1.46
-5.87
-15.01
-29.38
-47.51
-66.13
-81.43
-90.47
-92.25
-87.78
-79.53
-70.31
-62.34
-56.74
-53.51
-51.85
-50.64
-48.80
-45.59
-40.73
-34.28
-26.60
-18.31
-10.09
-2.70
3.24
7.34
9.59
10.31
10.12
9.69
9.64
10.34
11.95
14.29
16.97
19.47
21.29
22.17
22.17
21.70
21.23
21.17
21.60
22.28
22.86
23.03
22.81
22.47
22.46
23.09
24.41
26.09
27.64
28.52
28.41
27.27
25.38
23.26
21.65
21.32
22.97
27.09
33.82
42.87
53.57
65.02
76.33
86.76
95.91
103.69
110.20
115.68
120.20
123.59
125.34
124.73
121.24
114.89
106.58
97.88
90.51
85.43
82.19
78.97
73.26
63.03
47.74
28.54
7.74
-11.96
-28.20
-39.25
-44.16
-43.07
-37.71
-31.65
-29.85
-37.18
-56.26
-86.00
-121.52
-155.83
-182.37
-197.33
-200.34
-193.70
-180.67
-164.10
-145.83
-127.08
-109.05
-93.15
-80.71
-72.35
-67.56
-64.83
-62.24
-58.32
-52.63
-45.83
-39.41
-34.94
-33.39
-34.76
-38.07
-41.77
-44.37
-45.05
-43.84
-41.51
-39.01
-37.06
-35.80
-34.94
-34.05
-32.77
-30.91
-28.38
-25.15
-21.33
-17.27
-13.61
-11.10
-10.17
-10.60
-11.53
-11.84
-10.61
-7.60
-3.19
1.98
7.43
13.08
19.11
25.55
32.09
38.00
42.55
45.25
46.10
45.55
44.24
42.77
41.48
40.56
40.03
39.90
40.13
40.58
41.04
41.28
41.06
40.24
38.71
36.38
33.19
29.14
24.39
19.30
14.35
9.96
6.40
3.69
1.65
0.10
-1.01
-1.57
-1.38
-0.29
1.68
4.40
7.60
10.96
14.13
16.72
18.40
19.03
18.69
17.72
16.63
15.89
15.77
16.22
16.96
17.56
17.65
17.03
15.67
13.74
11.42
8.91
6.38
3.93
1.70
-0.15
-1.46
-2.05
-1.86
-1.02
0.14
1.14
1.53
1.02
-0.44
-2.76
-5.71
-9.09
-12.68
-16.27
-19.56
-22.22
-23.99
-24.76
-24.56
-23.55
-21.81
-19.32
-16.01
-11.92
-7.39
-3.00
0.57
2.79
3.50
2.93
1.64
0.26
-0.60
-0.45
1.11
4.25
8.90
14.51
20.01
24.03
25.13
22.32
15.40
5.09
-7.19
-19.67
-30.73
-39.29
-44.96
-47.87
-48.46
-47.23
-44.61
-41.08
-37.28
-33.98
-32.01
-31.79
-33.14
-35.18
-36.64
-36.46
-34.28
-30.68
-26.94
-24.48
-24.15
-25.81
-28.40
-30.35
-30.20
-27.10
-20.94
-12.18
-1.57
10.12
22.18
33.93
44.63
53.57
60.25
64.57
66.98
68.25
69.20
70.34
71.69
72.80
72.98
71.55
68.20
63.29
57.92
53.71
52.22
54.17
58.78
63.73
65.71
61.59
49.57
29.96
5.09
-21.28
-45.01
-62.36
-70.71
-68.99
-57.81
-39.37
-17.14
4.85
22.76
33.64
35.97
29.75
16.37
-1.63
-20.97
-38.28
-50.63
-56.24
-54.85
-47.72
-37.21
-26.08
-16.81
-11.02
-9.30
-11.15
-15.24
-19.80
-22.96
-23.20
-19.51
-11.58
0.16
14.66
30.43
45.86
59.49
70.43
78.59
84.74
90.02
95.37
100.92
105.88
108.94
108.98
105.67
99.46
91.11
81.14
69.49
55.91
40.47
24.05
8.30
-4.94
-14.46
-20.05
-22.52
-23.28
-23.71
-24.85
-27.25
-30.95
-35.61
-40.63
-45.26
-48.81
-50.77
-50.94
-49.45
-46.63
-42.89
-38.64
-34.19
-29.77
-25.60
-21.93
-19.10
-17.36
-16.70
-16.73
-16.79
-16.19
-14.56
-12.01
-9.07
-6.36
-4.20
-2.47
-0.78
1.28
3.73
6.15
7.84
8.16
6.90
4.34
1.14
-1.90
-4.14
-5.23
-5.22
-4.49
-3.62
-3.13
-3.34
-4.19
-5.31
-6.26
-6.69
-6.56
-6.05
-5.34
-4.29
-2.43
0.90
6.10
13.00
20.71
27.98
33.67
37.28
39.17
40.30
41.81
44.45
48.41
53.29
58.41
63.02
66.24
67.03
64.27
57.22
46.20
32.96
20.29
10.84
5.67
3.42
0.73
-6.15
-19.39
-38.48
-60.38
-81.26
-98.28
-110.82
-120.18
-128.27
-136.07
-142.88
-146.72
-145.49
-138.30
-126.00
-110.82
-95.34
-81.44
-69.72
-59.63
-50.19
-40.71
-31.27
-22.59
-15.56
-10.66
-7.64
-5.61
-3.47
-0.44
3.61
8.17
12.37
15.36
16.66
16.27
14.49
11.81
8.66
5.43
2.41
-0.06
-1.61
-1.87
-0.56
2.37
6.60
11.45
16.05
19.51
21.26
21.25
19.94
18.17
16.82
16.64
18.00
20.96
25.14
29.74
33.58
35.29
33.80
28.77
20.93
11.93
3.73
-2.04
-4.69
-4.49
-2.36
0.64
3.58
5.79
6.72
6.03
3.66
0.14
-3.37
-5.33
-4.35
0.16
7.56
16.20
24.04
29.46
31.89
32.03
31.60
32.70
36.80
43.84
51.77
56.72
54.21
40.88
16.46
-15.12
-46.17
-67.60
-72.29
-58.11
-28.94
6.90
39.96
63.17
73.68
72.60
63.07
48.26
30.32
10.59
-9.45
-27.60
-41.34
-48.94
-50.54
-48.16
-44.90
-43.42
-44.82
-48.25
-51.57
-52.48
-49.68
-43.44
-35.46
-28.05
-23.13
-21.46
-22.44
-24.46
-25.75
-25.17
-22.62
-18.99
-15.57
-13.48
-13.21
-14.56
-16.74
-18.81
-19.86
-19.28
-16.91
-13.15
-8.93
-5.49
-3.86
-4.35
-6.27
-8.11
-8.16
-5.27
0.76
9.15
18.56
27.60
35.34
41.34
45.63
48.41
49.79
49.70
48.04
44.97
41.08
37.50
35.37
35.43
37.51
40.57
43.16
44.10
43.05
40.62
37.86
35.71
34.51
34.07
33.89
33.63
33.25
33.04
33.34
34.40
36.19
38.39
40.45
41.69
41.49
39.49
35.83
31.18
26.61
23.03
20.66
18.79
15.96
10.57
1.55
-11.28
-27.24
-45.11
-63.47
-80.94
-96.16
-107.87
-115.14
-117.57
-115.45
-109.59
-100.96
-90.35
-78.32
-65.38
-52.22
-39.73
-28.74
-19.73
-12.60
-6.89
-2.15
1.80
4.78
6.43
6.53
5.23
3.00
0.42
-2.13
-4.56
-7.13
-10.23
-14.06
-18.48
-22.94
-26.76
-29.53
-31.41
-33.18
-36.02
-40.96
-48.37
-57.62
-67.15
-74.80
-78.39
-76.35
-68.04
-54.01
-35.87
-16.01
2.89
18.49
29.29
35.03
36.65
35.96
34.96
35.21
37.34
41.02
45.18
48.56
49.98
48.57
43.75
35.08
22.28
5.37
-15.22
-38.53
-63.28
-88.07
-111.78
-133.68
-153.49
-171.34
-187.63
-203.01
-218.27
-234.23
-251.47
-269.93
-288.60
-305.46
-317.81
-322.99
-319.23
-306.20
-285.18
-258.56
-229.04
-198.84
-169.37
-141.23
-114.63
-89.74
-66.83
-46.18
-28.00
-12.25
1.16
12.21
20.68
26.17
28.31
27.00
22.54
15.61
7.08
-2.15
-11.34
-19.86
-27.18
-32.71
-35.86
-36.13
-33.32
-27.69
-20.06
-11.66
-3.78
2.56
6.84
9.10
9.72
9.15
7.61
5.15
1.77
-2.34
-6.50
-9.55
-10.07
-6.48
2.66
18.40
40.91
68.97
99.63
128.59
151.20
164.02
166.12
159.49
148.31
137.35
130.33
129.02
133.18
141.39
151.99
163.64
175.35
186.26
195.50
202.15
205.58
205.64
202.81
197.99
192.25
186.35
180.59
174.81
168.65
161.87
154.60
147.26
140.47
134.55
129.39
124.45
118.94
112.18
103.85
94.10
83.43
72.58
62.15
52.45
43.35
34.27
24.46
13.27
0.63
-12.74
-25.28
-35.00
-39.98
-39.04
-32.06
-20.05
-4.77
11.76
27.75
41.96
53.70
62.69
68.86
72.29
73.15
71.83
68.93
65.16
61.20
57.54
54.34
51.52
48.87
46.17
43.39
40.62
37.99
35.54
33.05
30.16
26.44
21.68
16.02
9.90
3.91
-1.56
-6.47
-11.18
-16.34
-22.59
-30.34
-39.58
-49.70
-59.49
-67.28
-71.22
-69.85
-62.58
-50.00
-33.83
-16.36
0.18
14.23
25.15
33.05
38.42
41.73
43.32
43.45
42.47
40.92
39.39
38.30
37.65
37.07
36.00
34.04
31.23
28.00
24.99
22.60
20.86
19.33
17.40
14.60
10.82
6.36
1.67
-2.90
-7.28
-11.75
-16.78
-22.91
-30.45
-39.31
-48.87
-57.98
-65.09
-68.60
-67.31
-60.85
-49.82
-35.73
-20.49
-5.88
6.85
17.20
25.23
31.23
35.50
38.17
39.36
39.25
38.15
36.53
34.76
33.08
31.52
30.01
28.50
27.01
25.67
24.56
23.64
22.68
21.35
19.34
16.51
12.93
8.88
4.69
0.57
-3.50
-7.77
-12.69
-18.72
-26.11
-34.81
-44.28
-53.51
-61.08
-65.50
-65.56
-60.74
-51.47
-39.01
-25.13
-11.53
0.59
10.68
18.70
24.79
29.02
31.39
31.86
30.65
28.27
25.42
22.74
20.64
19.22
18.32
17.81
17.66
18.02
19.10
20.95
23.34
25.70
27.34
27.65
26.40
23.79
20.30
16.51
12.75
8.98
4.78
-0.43
-7.16
-15.45
-24.75
-33.91
-41.33
-45.42
-45.03
-39.83
-30.40
-18.09
-4.56
8.59
20.21
29.70
36.91
41.99
45.23
46.99
47.64
47.61
47.34
47.21
47.50
48.26
49.36
50.48
51.25
51.32
50.43
48.45
45.32
41.05
35.65
29.26
22.09
14.50
6.90
-0.33
-6.96
-13.02
-18.76
-24.61
-31.00
-38.18
-46.00
-53.77
-60.35
-64.35
-64.54
-60.21
-51.50
-39.39
-25.41
-11.24
1.71
12.57
21.00
27.04
30.87
32.72
32.82
31.48
29.15
26.43
23.92
22.03
20.92
20.46
20.38
20.42
20.46
20.49
20.49
20.32
19.73
18.39
16.04
12.70
8.57
4.08
-0.39
-4.64
-8.72
-12.92
-17.70
-23.44
-30.33
-38.12
-46.10
-53.11
-57.79
-58.98
-56.01
-49.03
-38.89
-26.97
-14.70
-3.21
6.87
15.40
22.45
28.15
32.53
35.61
37.44
38.21
38.20
37.70
36.88
35.78
34.32
32.47
30.29
27.95
25.68
23.63
21.81
20.05
18.09
15.63
12.47
8.58
4.04
-0.87
-5.87
-10.68
-15.20
-19.49
-23.83
-28.59
-34.16
-40.78
-48.39
-56.51
-64.16
-70.02
-72.71
-71.18
-65.05
-54.83
-41.75
-27.41
-13.36
-0.72
9.95
18.52
25.16
30.07
33.46
35.48
36.35
36.35
35.84
35.19
34.69
34.50
34.61
34.86
35.05
35.01
34.63
33.91
32.92
31.70
30.25
28.51
26.31
23.53
20.05
15.88
11.16
6.13
1.06
-3.76
-8.18
-12.20
-16.03
-20.03
-24.64
-30.21
-36.87
-44.32
-51.78
-58.09
-61.95
-62.28
-58.56
-51.00
-40.51
-28.40
-16.04
-4.54
5.43
13.65
20.15
25.10
28.67
31.01
32.24
32.60
32.34
31.81
31.32
31.06
31.10
31.38
31.74
32.01
32.09
31.92
31.43
30.53
29.13
27.10
24.45
21.24
17.64
13.81
9.83
5.72
1.40
-3.18
-8.01
-13.00
-18.07
-23.21
-28.55
-34.34
-40.79
-47.92
-55.31
-62.09
-67.07
-69.07
-67.29
-61.62
-52.57
-41.13
-28.39
-15.29
-2.52
9.39
19.93
28.60
34.98
38.84
40.33
39.93
38.32
36.15
33.94
31.94
30.23
28.80
27.60
26.56
25.61
24.66
23.64
22.54
21.41
20.26
19.00
17.39
15.11
11.91
7.79
3.00
-1.94
-6.52
-10.43
-13.66
-16.46
-19.29
-22.61
-26.81
-32.06
-38.20
-44.63
-50.34
-54.06
-54.66
-51.54
-44.87
-35.55
-24.89
-14.22
-4.50
3.70
10.19
14.93
17.90
19.17
18.92
17.57
15.73
14.02
12.92
12.62
13.02
13.82
14.69
15.36
15.70
15.68
15.37
14.82
14.01
12.87
11.25
9.01
6.06
2.42
-1.78
-6.29
-10.85
-15.22
-19.29
-23.10
-26.83
-30.84
-35.49
-41.00
-47.21
-53.49
-58.82
-62.04
-62.19
-58.82
-52.11
-42.75
-31.69
-19.89
-8.16
2.88
12.71
20.95
27.25
31.42
33.47
33.66
32.52
30.71
28.89
27.55
26.85
26.67
26.72
26.74
26.58
26.29
25.97
25.70
25.45
25.04
24.21
22.73
20.49
17.47
13.84
9.81
5.61
1.40
-2.83
-7.22
-12.03
-17.52
-23.87
-31.03
-38.66
-46.11
-52.42
-56.53
-57.50
-54.78
-48.45
-39.21
-28.23
-16.80
-5.99
3.54
11.56
18.11
23.30
27.20
29.80
31.15
31.40
30.87
29.98
29.13
28.57
28.32
28.23
28.09
27.76
27.26
26.70
26.19
25.73
25.09
23.94
21.90
18.78
14.62
9.81
4.87
0.30
-3.70
-7.27
-10.90
-15.23
-20.72
-27.50
-35.17
-42.89
-49.52
-53.93
-55.21
-52.97
-47.33
-38.93
-28.75
-17.89
-7.33
2.14
10.06
16.22
20.64
23.45
24.91
25.31
24.92
24.01
22.85
21.66
20.64
19.90
19.45
19.22
19.08
18.92
18.65
18.17
17.36
16.01
13.89
10.87
7.00
2.54
-2.10
-6.53
-10.56
-14.29
-18.06
-22.39
-27.70
-34.13
-41.30
-48.37
-54.12
-57.29
-56.96
-52.81
-45.23
-35.24
-24.16
-13.25
-3.46
4.69
11.05
15.69
18.74
20.39
20.80
20.21
18.92
17.30
15.68
14.34
13.41
12.88
12.69
12.70
12.77
12.73
12.38
11.46
9.76
7.13
3.57
-0.67
-5.22
-9.71
-13.93
-17.94
-22.06
-26.74
-32.36
-38.97
-46.15
-53.04
-58.50
-61.34
-60.70
-56.27
-48.45
-38.16
-26.66
-15.15
-4.56
4.60
12.17
18.16
22.59
25.48
26.88
27.00
26.22
25.03
23.88
23.06
22.64
22.52
22.55
22.58
22.57
22.47
22.22
21.68
20.61
18.84
16.20
12.69
8.45
3.71
-1.26
-6.24
-11.11
-15.90
-20.82
-26.19
-32.34
-39.43
-47.20
-54.93
-61.43
-65.38
-65.67
-61.85
-54.26
-43.92
-32.20
-20.38
-9.37
0.39
8.77
15.74
21.29
25.40
28.10
29.60
30.18
30.23
30.05
29.83
29.60
29.32
28.94
28.43
27.79
27.05
26.25
25.42
24.54
23.53
22.18
20.22
17.40
13.57
8.86
3.65
-1.55
-6.30
-10.43
-14.08
-17.71
-21.90
-27.11
-33.58
-41.11
-49.11
-56.60
-62.37
-65.26
-64.43
-59.63
-51.29
-40.44
-28.36
-16.31
-5.23
4.33
12.20
18.40
23.07
26.38
28.51
29.68
30.10
30.03
29.71
29.36
29.15
29.13
29.29
29.52
29.68
29.63
29.27
28.59
27.59
26.26
24.59
22.52
19.99
16.92
13.24
8.94
4.08
-1.20
-6.72
-12.24
-17.62
-22.81
-27.89
-33.05
-38.58
-44.71
-51.59
-59.14
-66.88
-73.94
-79.15
-81.39
-79.93
-74.74
-66.59
-56.73
-46.54
-37.06
-28.82
-21.89
-16.19
-11.69
-8.57
-7.06
-7.26
-8.97
-11.72
-14.99
-18.40
-21.78
-25.15
-28.50
-31.67
-34.29
-35.86
-35.78
-33.35
-27.80
-18.43
-4.92
12.32
31.92
51.77
69.44
82.87
90.78
92.80
89.20
80.59
67.63
51.16
32.30
12.54
-6.51
-23.46
-37.50
-48.48
-56.69
-62.46
-65.86
-66.70
-64.70
-59.84
-52.54
-43.67
-34.26
-25.24
-17.23
-10.44
-4.87
-0.38
3.20
6.11
8.86
12.24
17.24
24.62
34.42
45.51
55.77
62.71
64.50
60.78
52.87
43.10
33.79
26.25
20.51
15.84
11.53
7.57
4.62
3.43
4.05
5.42
5.61
2.45
-5.63
-19.18
-37.74
-60.08
-84.63
-109.52
-132.61
-151.37
-163.16
-165.86
-158.53
-141.95
-118.51
-91.49
-64.14
-38.79
-16.63
1.94
16.77
27.48
33.54
34.72
31.60
25.73
19.39
14.85
13.60
15.99
21.30
28.24
35.67
42.96
50.07
57.15
64.13
70.47
75.30
77.86
77.83
75.58
71.85
67.42
62.69
57.60
51.76
44.72
36.19
26.20
15.05
3.42
-7.66
-16.86
-22.82
-24.51
-21.64
-14.83
-5.37
5.17
15.49
24.78
32.77
39.43
44.73
48.56
50.75
51.30
50.46
48.70
46.53
44.29
42.08
39.73
37.03
33.89
30.47
27.16
24.49
22.83
22.18
22.08
21.78
20.53
17.96
14.28
10.20
6.54
3.86
2.12
0.64
-1.63
-5.74
-12.40
-21.71
-33.14
-45.53
-57.28
-66.59
-71.84
-71.97
-66.80
-57.01
-43.97
-29.29
-14.43
-0.45
12.08
22.86
31.76
38.70
43.70
46.97
48.89
49.94
50.56
51.00
51.30
51.35
50.99
50.15
48.81
47.06
44.94
42.47
39.57
36.15
32.10
27.42
22.22
16.74
11.31
6.20
1.53
-2.86
-7.38
-12.61
-19.03
-26.82
-35.60
-44.41
-51.88
-56.56
-57.38
-53.98
-46.84
-37.11
-26.29
-15.82
-6.72
0.47
5.63
8.99
10.90
11.77
12.00
11.91
11.77
11.75
11.93
12.32
12.89
13.60
14.41
15.25
16.05
16.62
16.72
16.08
14.49
11.84
8.25
4.00
-0.55
-5.08
-9.44
-13.69
-18.08
-22.91
-28.35
-34.32
-40.26
-45.28
-48.25
-48.21
-44.66
-37.77
-28.36
-17.65
-6.91
2.84
11.02
17.46
22.24
25.57
27.58
28.39
28.07
26.75
24.66
22.17
19.72
17.67
16.24
15.40
14.86
14.26
13.27
11.73
9.63
7.13
4.39
1.53
-1.42
-4.59
-8.14
-12.29
-17.20
-22.96
-29.44
-36.22
-42.50
-47.24
-49.29
-47.78
-42.39
-33.57
-22.40
-10.40
1.00
10.72
18.34
23.93
27.89
30.61
32.31
33.01
32.65
31.26
29.03
26.35
23.71
21.54
20.08
19.36
19.17
19.18
18.97
18.13
16.38
13.55
9.65
4.85
-0.52
-6.13
-11.70
-17.15
-22.61
-28.35
-34.60
-41.35
-48.13
-54.04
-57.88
-58.57
-55.44
-48.50
-38.48
-26.63
-14.41
-3.11
6.39
13.78
19.19
23.04
25.75
27.60
28.68
28.97
28.45
27.21
25.47
23.52
21.61
19.85
18.25
16.72
15.18
13.54
11.72
9.62
7.14
4.16
0.64
-3.40
-7.84
-12.54
-17.43
-22.55
-28.10
-34.31
-41.23
-48.47
-55.07
-59.70
-60.96
-57.95
-50.61
-39.81
-27.08
-14.13
-2.36
7.46
15.14
20.91
25.13
28.11
30.05
31.10
31.39
31.11
30.42
29.43
28.21
26.79
25.22
23.60
22.10
20.89
19.96
19.13
18.02
16.23
13.46
9.69
5.21
0.47
-4.08
-8.21
-11.98
-15.74
-20.00
-25.19
-31.44
-38.39
-45.12
-50.32
-52.62
-50.99
-45.17
-35.74
-24.00
-11.56
0.17
10.26
18.40
24.74
29.59
33.21
35.71
37.12
37.50
37.08
36.19
35.18
34.25
33.36
32.30
30.85
28.98
26.86
24.87
23.29
22.19
21.25
19.95
17.78
14.48
10.14
5.20
0.19
-4.49
-8.69
-12.59
-16.63
-21.30
-27.06
-34.10
-42.25
-50.87
-58.89
-64.97
-67.91
-66.93
-62.07
-54.09
-44.31
-34.16
-24.75
-16.74
-10.30
-5.41
-2.01
-0.12
0.25
-0.64
-2.19
-3.47
-3.47
-1.52
2.54
8.32
15.07
22.08
28.87
35.27
41.28
46.87
51.73
55.40
57.39
57.49
55.92
53.23
50.11
47.04
44.08
40.89
36.91
31.75
25.36
18.08
10.47
3.04
-3.91
-10.22
-15.81
-20.54
-24.22
-26.69
-27.95
-28.13
-27.40
-25.87
-23.50
-20.24
-16.21
-11.81
-7.70
-4.55
-2.80
-2.43
-3.03
-4.01
-4.89
-5.39
-5.51
-5.38
-5.18
-5.14
-5.44
-6.22
-7.48
-9.04
-10.54
-11.61
-12.05
-11.87
-11.20
-10.09
-8.49
-6.21
-3.30
-0.24
2.01
2.29
-0.22
-5.55
-12.80
-20.32
-26.26
-29.15
-28.33
-24.07
-17.41
-9.77
-2.49
3.58
8.20
11.68
14.58
17.36
20.19
22.86
25.03
26.43
26.97
26.79
26.06
24.85
23.08
20.59
17.35
13.57
9.67
6.16
3.39
1.38
-0.26
-2.12
-4.78
-8.53
-13.25
-18.44
-23.50
-27.92
-31.52
-34.48
-37.24
-40.30
-44.12
-48.86
-54.40
-60.21
-65.40
-68.84
-69.38
-66.21
-59.11
-48.59
-35.79
-22.18
-9.14
2.35
11.84
19.34
25.10
29.33
32.16
33.63
33.85
33.11
31.88
30.65
29.78
29.35
29.17
28.91
28.34
27.41
26.25
25.09
24.08
23.19
22.16
20.62
18.23
14.82
10.52
5.67
0.73
-3.93
-8.22
-12.33
-16.70
-21.80
-28.00
-35.41
-43.79
-52.50
-60.55
-66.69
-69.64
-68.46
-62.86
-53.39
-41.28
-28.15
-15.48
-4.26
5.08
12.60
18.54
23.05
26.18
27.91
28.32
27.69
26.54
25.42
24.76
24.68
24.97
25.25
25.14
24.48
23.40
22.21
21.21
20.44
19.69
18.48
16.38
13.21
9.11
4.48
-0.17
-4.49
-8.39
-12.04
-15.79
-20.03
-25.08
-31.09
-37.95
-45.15
-51.83
-56.79
-58.78
-56.89
-50.81
-41.03
-28.71
-15.34
-2.35
9.23
18.83
26.30
31.69
35.19
36.96
37.24
36.36
34.76
32.89
31.14
29.67
28.47
27.36
26.19
24.92
23.63
22.46
21.50
20.68
19.79
18.47
16.41
13.43
9.55
5.00
0.16
-4.59
-9.03
-13.10
-16.98
-21.04
-25.68
-31.22
-37.74
-44.93
-52.03
-57.90
-61.24
-60.96
-56.52
-48.17
-36.87
-24.02
-11.05
0.88
11.07
19.17
25.06
28.77
30.47
30.50
29.38
27.71
26.01
24.60
23.52
22.62
21.76
20.84
19.89
18.99
18.21
17.46
16.56
15.20
13.11
10.15
6.40
2.12
-2.30
-6.55
-10.52
-14.35
-18.37
-23.01
-28.57
-35.13
-42.34
-49.46
-55.39
-58.85
-58.71
-54.34
-45.85
-34.18
-20.80
-7.36
4.79
14.86
22.57
28.01
31.40
32.93
32.79
31.27
28.79
25.93
23.25
21.12
19.64
18.61
17.71
16.70
15.50
14.22
12.99
11.83
10.51
8.65
5.89
2.06
-2.64
-7.78
-12.81
-17.36
-21.35
-25.04
-28.92
-33.50
-39.16
-45.93
-53.40
-60.69
-66.55
-69.65
-68.90
-63.82
-54.70
-42.55
-28.82
-15.04
-2.46
8.11
16.40
22.49
26.69
29.35
30.80
31.31
31.15
30.56
29.77
28.94
28.08
27.10
25.86
24.28
22.45
20.56
18.82
17.28
15.75
13.83
11.08
7.25
2.42
-2.98
-8.39
-13.32
-17.50
-21.07
-24.45
-28.22
-32.92
-38.82
-45.74
-52.90
-59.06
-62.68
-62.48
-57.76
-48.72
-36.45
-22.51
-8.52
4.26
15.14
23.89
30.50
35.07
37.71
38.65
38.25
37.01
35.45
33.96
32.67
31.53
30.38
29.09
27.69
26.30
25.10
24.17
23.44
22.63
21.36
19.27
16.15
12.04
7.24
2.19
-2.64
-6.99
-10.87
-14.61
-18.72
-23.75
-30.06
-37.58
-45.67
-53.16
-58.54
-60.29
-57.41
-49.80
-38.32
-24.61
-10.54
2.30
13.01
21.40
27.72
32.34
35.48
37.14
37.29
36.07
33.86
31.19
28.60
26.37
24.52
22.91
21.39
19.93
18.63
17.56
16.64
15.56
13.86
11.17
7.41
2.82
-2.10
-6.87
-11.23
-15.27
-19.38
-24.06
-29.68
-36.36
-43.73
-50.98
-56.88
-60.08
-59.40
-54.26
-44.89
-32.36
-18.32
-4.53
7.59
17.30
24.48
29.44
32.61
34.27
34.57
33.64
31.71
29.18
26.59
24.38
22.80
21.83
21.26
20.83
20.35
19.75
18.99
17.99
16.57
14.48
11.52
7.62
2.93
-2.20
-7.35
-12.16
-16.54
-20.70
-25.17
-30.54
-37.22
-45.06
-53.19
-60.11
-64.12
-63.83
-58.70
-49.18
-36.60
-22.66
-8.92
3.49
14.03
22.49
28.87
33.23
35.66
36.42
35.90
34.66
33.19
31.86
30.81
29.92
28.98
27.86
26.52
25.14
23.95
23.11
22.56
22.00
20.90
18.76
15.26
10.42
4.59
-1.67
-7.77
-13.31
-18.13
-22.43
-26.70
-31.58
-37.62
-44.99
-53.26
-61.33
-67.57
-70.33
-68.44
-61.67
-50.77
-37.27
-22.93
-9.31
2.63
12.46
20.15
25.81
29.57
31.59
32.12
31.62
30.62
29.63
28.98
28.70
28.65
28.61
28.42
28.04
27.57
27.07
26.57
25.98
25.12
23.78
21.77
18.92
15.13
10.47
5.18
-0.36
-5.69
-10.47
-14.58
-18.26
-21.96
-26.29
-31.72
-38.41
-46.01
-53.60
-59.85
-63.28
-62.69
-57.56
-48.30
-36.10
-22.60
-9.37
2.48
12.40
20.30
26.27
30.41
32.75
33.39
32.63
30.98
29.03
27.26
25.90
24.87
23.97
22.95
21.74
20.42
19.15
18.07
17.15
16.15
14.71
12.46
9.18
4.92
0.04
-4.87
-9.10
-11.99
-13.11
-12.35
-10.04
-6.92
-3.94
-2.13
-2.18
-4.15
-7.34
-10.35
-11.47
-9.22
-2.88
7.28
20.03
33.59
46.06
55.86
61.99
64.14
62.55
57.87
51.02
42.98
34.66
26.85
20.09
14.70
10.73
8.04
6.29
5.12
4.29
3.70
3.38
3.35
3.49
3.43
2.72
0.93
-2.06
-6.03
-10.47
-14.80
-18.62
-21.86
-24.82
-28.05
-32.10
-37.33
-43.63
-50.35
-56.39
-60.35
-60.95
-57.41
-49.70
-38.60
-25.49
-12.01
0.38
10.74
18.66
24.24
27.78
29.61
30.00
29.24
27.71
25.86
24.16
22.84
21.91
21.10
20.12
18.82
17.33
15.96
14.97
14.39
13.88
12.86
10.77
7.34
2.70
-2.65
-8.08
-13.07
-17.45
-21.42
-25.42
-30.01
-35.59
-42.32
-49.87
-57.48
-63.87
-67.53
-67.02
-61.45
-50.80
-36.05
-18.90
-1.34
14.94
28.89
40.19
49.10
56.13
61.74
66.20
69.68
72.27
74.18
75.69
77.11
78.66
80.38
82.22
84.03
85.73
87.28
88.69
89.92
90.82
91.10
90.44
88.59
85.61
81.84
77.76
73.64
69.22
63.54
55.22
42.95
26.14
5.27
-18.05
-41.55
-62.85
-80.02
-91.90
-98.07
-98.81
-94.82
-87.12
-76.84
-65.09
-52.83
-40.81
-29.59
-19.56
-11.01
-4.11
1.06
4.59
6.67
7.58
7.60
6.99
6.01
4.89
3.89
3.21
2.95
3.04
3.20
2.96
1.86
-0.46
-4.11
-8.85
-14.20
-19.55
-24.33
-28.26
-31.41
-34.27
-37.55
-41.99
-48.02
-55.55
-63.76
-71.18
-75.96
-76.43
-71.63
-61.76
-48.13
-32.71
-17.50
-3.91
7.53
16.92
24.62
30.83
35.40
38.00
38.40
36.72
33.42
29.17
24.53
19.84
15.16
10.52
6.07
2.19
-0.62
-2.00
-1.99
-1.15
-0.42
-0.75
-2.80
-6.68
-11.99
-18.01
-23.98
-29.36
-33.95
-37.87
-41.58
-45.70
-50.80
-57.16
-64.48
-71.78
-77.44
-79.70
-77.17
-69.41
-57.18
-42.20
-26.64
-12.42
-0.70
8.18
14.50
18.73
21.23
22.21
21.86
20.47
18.47
16.33
14.37
12.70
11.25
9.90
8.67
7.68
7.07
6.88
6.90
6.74
5.96
4.25
1.60
-1.77
-5.44
-9.05
-12.41
-15.61
-18.96
-22.90
-27.87
-34.07
-41.32
-48.83
-55.34
-59.26
-59.20
-54.48
-45.41
-33.30
-20.01
-7.39
3.35
11.75
18.02
22.62
25.94
28.07
28.96
28.56
26.99
24.60
21.87
19.24
17.03
15.38
14.24
13.45
12.77
11.92
10.59
8.52
5.51
1.54
-3.23
-8.41
-13.52
-18.16
-22.11
-25.51
-28.88
-32.96
-38.57
-46.25
-55.94
-66.75
-77.05
-84.77
-88.06
-85.85
-78.30
-66.72
-53.13
-39.68
-28.03
-19.09
-12.99
-9.34
-7.51
-6.85
-6.89
-7.37
-8.27
-9.77
-12.22
-15.96
-21.24
-27.99
-35.68
-43.14
-48.72
-50.67
-47.75
-39.78
-27.88
-14.17
-1.12
9.31
16.13
19.43
19.94
18.51
15.72
11.69
6.30
-0.57
-8.76
-17.75
-26.56
-33.89
-38.35
-38.84
-34.88
-26.77
-15.57
-2.70
10.40
22.61
33.24
41.94
48.62
53.35
56.36
58.06
58.99
59.68
60.43
61.27
61.96
62.17
61.64
60.35
58.52
56.51
54.70
53.25
52.08
50.80
48.91
46.01
41.97
37.00
31.50
25.85
20.22
14.45
8.12
0.72
-8.13
-18.43
-29.67
-40.76
-50.15
-56.16
-57.48
-53.55
-44.84
-32.70
-18.92
-5.21
7.28
18.04
27.14
34.86
41.41
46.77
50.73
53.04
53.63
52.67
50.65
48.24
46.05
44.48
43.48
42.67
41.41
39.14
35.56
30.83
25.41
19.97
15.07
11.00
7.72
4.94
2.27
-0.71
-4.34
-8.96
-14.77
-21.74
-29.49
-37.22
-43.90
-48.47
-50.17
-48.72
-44.31
-37.57
-29.36
-20.58
-12.06
-4.39
2.19
7.75
12.52
16.69
20.18
22.64
23.64
22.98
20.90
18.10
15.46
13.67
13.03
13.36
14.16
14.89
15.10
14.52
13.03
10.58
7.19
3.01
-1.71
-6.66
-11.64
-16.70
-22.18
-28.53
-36.01
-44.33
-52.43
-58.71
-61.47
-59.53
-52.67
-41.73
-28.28
-14.06
-0.54
11.42
21.55
29.97
36.93
42.55
46.82
49.57
50.68
50.13
48.10
44.98
41.33
37.72
34.64
32.36
30.88
29.91
28.97
27.50
25.12
21.66
17.30
12.41
7.40
2.52
-2.27
-7.30
-13.05
-20.00
-28.34
-37.79
-47.46
-55.90
-61.38
-62.42
-58.25
-49.14
-36.39
-21.84
-7.35
5.77
16.90
26.02
33.32
38.89
42.59
44.13
43.42
40.65
36.45
31.62
26.99
23.10
20.14
17.95
16.22
14.59
12.81
10.70
8.11
4.84
0.61
-4.78
-11.45
-19.29
-28.08
-37.57
-47.58
-57.88
-68.08
-77.34
-84.40
-87.81
-86.44
-80.01
-69.22
-55.62
-41.04
-27.07
-14.64
-4.07
4.63
11.48
16.37
19.06
19.49
17.91
14.96
11.49
8.27
5.79
4.11
2.96
1.96
0.89
-0.19
-0.95
-1.04
-0.29
1.11
2.66
3.63
3.31
1.11
-3.30
-9.91
-18.32
-27.64
-36.57
-43.56
-47.11
-46.24
-40.75
-31.35
-19.42
-6.59
5.75
16.73
26.00
33.58
39.49
43.59
45.64
45.53
43.46
40.08
36.27
32.87
30.34
28.62
27.30
25.84
23.92
21.53
18.92
16.40
14.18
12.14
9.98
7.24
3.44
-1.76
-8.53
-16.79
-26.05
-35.42
-43.58
-49.07
-50.65
-47.71
-40.55
-30.24
-18.30
-6.20
5.01
14.79
22.96
29.44
34.02
36.44
36.55
34.53
30.95
26.70
22.70
19.61
17.65
16.61
16.00
15.31
14.18
12.55
10.57
8.45
6.25
3.85
0.93
-2.90
-7.93
-14.29
-21.88
-30.24
-38.61
-45.85
-50.64
-51.82
-48.70
-41.40
-30.85
-18.53
-6.02
5.47
15.27
23.25
29.47
33.98
36.68
37.38
36.08
33.12
29.18
25.10
21.63
19.15
17.56
16.37
15.04
13.19
10.74
7.91
5.00
2.22
-0.47
-3.30
-6.60
-10.74
-15.99
-22.54
-30.34
-38.97
-47.54
-54.66
-58.79
-58.61
-53.58
-44.10
-31.46
-17.40
-3.59
8.80
19.23
27.68
34.31
39.25
42.45
43.78
43.22
41.04
37.81
34.25
30.99
28.34
26.19
24.20
21.95
19.24
16.11
12.78
9.49
6.28
3.03
-0.54
-4.72
-9.68
-15.49
-22.23
-29.90
-38.42
-47.39
-55.89
-62.60
-65.97
-64.75
-58.46
-47.58
-33.50
-18.02
-2.86
10.80
22.41
31.89
39.36
44.89
48.47
50.12
50.05
48.71
46.71
44.63
42.86
41.52
40.45
39.44
38.25
36.73
34.80
32.41
29.55
26.24
22.57
18.66
14.54
10.13
5.24
-0.46
-7.27
-15.38
-24.73
-34.87
-44.85
-53.35
-58.83
-60.02
-56.28
-47.89
-35.93
-22.06
-7.94
5.03
16.01
24.60
30.84
34.93
37.20
38.02
37.76
36.73
35.13
33.13
30.85
28.46
26.17
24.19
22.69
21.70
21.11
20.64
19.92
18.55
16.30
13.10
9.14
4.72
0.19
-4.26
-8.65
-13.27
-18.54
-24.90
-32.55
-41.18
-49.93
-57.33
-61.72
-61.65
-56.48
-46.57
-33.29
-18.53
-4.13
8.64
19.19
27.56
34.00
38.72
41.79
43.23
43.18
42.01
40.30
38.69
37.70
37.58
38.28
39.53
40.95
42.20
43.01
43.20
42.68
41.47
39.77
37.95
36.56
36.17
37.21
39.76
43.50
47.70
51.46
53.84
54.15
52.08
47.73
41.63
34.53
27.27
20.52
14.69
9.89
6.02
2.95
0.61
-1.10
-2.29
-3.25
-4.43
-6.41
-9.69
-14.60
-21.08
-28.76
-36.94
-44.79
-51.55
-56.77
-60.42
-62.90
-64.82
-66.76
-69.02
-71.55
-73.97
-75.91
-77.16
-77.88
-78.54
-79.87
-82.62
-87.34
-94.01
-101.86
-109.21
-113.75
-113.24
-106.23
-92.73
-74.27
-53.39
-32.76
-14.34
1.04
13.47
23.50
31.50
37.55
41.53
43.46
43.71
42.94
41.92
41.18
40.95
41.08
41.27
41.19
40.69
39.80
38.77
37.89
37.33
36.99
36.43
34.97
31.98
27.14
20.72
13.47
6.32
0.04
-5.13
-9.53
-13.87
-18.93
-25.28
-33.08
-42.03
-51.36
-59.83
-65.95
-68.25
-65.77
-58.42
-47.04
-33.15
-18.50
-4.47
8.11
18.94
28.00
35.27
40.58
43.80
44.97
44.40
42.66
40.38
38.05
35.91
34.02
32.27
30.62
29.06
27.73
26.76
26.22
25.95
25.58
24.53
22.25
18.41
13.12
6.83
0.30
-5.81
-11.11
-15.66
-19.92
-24.56
-30.22
-37.31
-45.83
-55.21
-64.29
-71.45
-75.02
-73.73
-67.22
-56.23
-42.33
-27.43
-13.16
-0.51
10.19
19.00
26.04
31.26
34.55
35.88
35.53
34.04
32.10
30.28
28.87
27.88
27.10
26.38
25.67
25.11
24.83
24.86
24.99
24.74
23.57
21.05
17.07
11.89
6.03
0.11
-5.42
-10.37
-14.84
-19.18
-23.85
-29.37
-36.12
-44.18
-53.07
-61.68
-68.35
-71.31
-69.34
-62.18
-50.74
-36.77
-22.26
-8.84
2.55
11.67
18.63
23.66
26.83
28.21
27.94
26.39
24.11
21.73
19.76
18.47
17.89
17.87
18.21
18.76
19.40
19.96
20.15
19.58
17.83
14.69
10.30
5.12
-0.21
-5.19
-9.63
-13.71
-17.92
-22.83
-28.91
-36.33
-44.83
-53.66
-61.58
-67.06
-68.66
-65.47
-57.45
-45.53
-31.32
-16.66
-3.09
8.47
17.77
24.94
30.23
33.81
35.72
36.05
35.08
33.34
31.42
29.85
28.84
28.27
27.85
27.31
26.59
25.84
25.26
24.90
24.52
23.61
21.63
18.23
13.40
7.54
1.25
-4.87
-10.45
-15.45
-20.20
-25.21
-31.03
-38.04
-46.29
-55.30
-64.10
-71.26
-75.24
-74.76
-69.31
-59.27
-45.91
-30.96
-16.11
-2.55
9.13
18.88
26.89
33.30
38.13
41.33
42.90
43.09
42.36
41.29
40.37
39.89
39.78
39.74
39.39
38.46
37.00
35.29
33.72
32.52
31.58
30.42
28.42
25.04
20.16
14.08
7.45
0.91
-5.07
-10.42
-15.36
-20.34
-25.85
-32.28
-39.84
-48.42
-57.48
-65.94
-72.35
-75.23
-73.48
-66.86
-56.01
-42.33
-27.51
-13.08
-0.04
11.20
20.59
28.30
34.38
38.83
41.57
42.66
42.39
41.28
39.95
38.90
38.37
38.25
38.20
37.89
37.15
36.02
34.72
33.43
32.15
30.75
28.92
26.34
22.77
18.14
12.54
6.32
-0.08
-6.19
-11.67
-16.45
-20.78
-25.16
-30.22
-36.47
-44.03
-52.54
-61.03
-68.12
-72.23
-72.12
-67.20
-57.80
-45.06
-30.62
-16.09
-2.68
8.95
18.62
26.35
32.18
36.07
38.04
38.24
37.13
35.35
33.56
32.23
31.49
31.18
31.02
30.83
30.62
30.55
30.75
31.17
31.40
30.85
28.93
25.36
20.28
14.24
8.00
2.17
-2.94
-7.41
-11.64
-16.13
-21.41
-27.88
-35.65
-44.38
-53.17
-60.56
-64.89
-64.71
-59.39
-49.34
-35.94
-21.08
-6.56
6.39
17.26
26.07
33.08
38.45
42.18
44.15
44.37
43.10
40.92
38.61
36.82
35.90
35.75
35.87
35.65
34.58
32.47
29.48
25.93
22.15
18.31
14.35
10.13
5.50
0.42
-5.00
-10.55
-16.02
-21.24
-26.11
-30.62
-34.87
-39.02
-43.38
-48.35
-54.39
-61.72
-70.11
-78.72
-86.08
-90.46
-90.40
-85.19
-75.16
-61.56
-46.18
-30.85
-16.94
-5.20
4.21
11.51
17.04
21.09
23.82
25.27
25.52
24.73
23.15
21.05
18.56
15.66
12.25
8.39
4.53
1.59
0.63
2.45
7.14
13.92
21.34
27.83
32.11
33.60
32.34
28.82
23.69
17.50
10.72
3.68
-3.34
-10.17
-16.80
-23.42
-30.39
-38.03
-46.34
-54.77
-62.05
-66.52
-66.58
-61.28
-50.78
-36.31
-19.83
-3.41
11.41
23.85
33.86
41.73
47.78
52.14
54.79
55.75
55.25
53.76
51.90
50.25
49.11
48.47
48.10
47.66
46.90
45.72
44.18
42.40
40.49
38.44
36.12
33.33
29.84
25.50
20.31
14.45
8.24
2.04
-3.85
-9.26
-14.27
-19.17
-24.37
-30.37
-37.53
-45.98
-55.37
-64.78
-72.76
-77.66
-78.06
-73.21
-63.38
-49.73
-33.97
-17.90
-2.95
9.98
20.51
28.58
34.28
37.78
39.30
39.21
38.00
36.24
34.43
32.92
31.81
30.98
30.24
29.44
28.61
27.91
27.48
27.32
27.13
26.40
24.55
21.24
16.53
10.88
4.97
-0.56
-5.40
-9.66
-13.82
-18.52
-24.33
-31.53
-40.00
-49.04
-57.49
-63.83
-66.58
-64.67
-57.83
-46.69
-32.62
-17.34
-2.41
11.03
22.36
31.29
37.69
41.52
42.84
41.94
39.43
36.12
32.82
30.10
28.17
26.88
25.97
25.21
24.54
24.01
23.61
23.17
22.32
20.58
17.58
13.20
7.70
1.54
-4.71
-10.63
-16.07
-21.18
-26.39
-32.26
-39.29
-47.68
-57.13
-66.67
-74.79
-79.73
-80.01
-74.89
-64.62
-50.45
-34.21
-17.76
-2.58
10.52
21.27
29.71
35.98
40.20
42.49
43.08
42.39
40.95
39.31
37.81
36.58
35.48
34.31
32.94
31.46
30.09
29.07
28.39
27.76
26.60
24.29
20.44
15.09
8.72
2.08
-4.12
-9.47
-14.05
-18.34
-23.10
-29.14
-36.95
-46.45
-56.82
-66.49
-73.48
-75.96
-72.88
-64.33
-51.58
-36.59
-21.36
-7.40
4.55
14.37
22.23
28.33
32.75
35.54
36.86
36.98
36.32
35.31
34.28
33.43
32.85
32.49
32.26
32.10
31.96
31.81
31.59
31.05
29.82
27.47
23.69
18.52
12.37
5.87
-0.30
-5.77
-10.58
-15.13
-20.06
-26.00
-33.38
-42.19
-51.87
-61.24
-68.68
-72.53
-71.52
-65.24
-54.31
-40.19
-24.74
-9.61
4.04
15.70
25.29
32.90
38.61
42.41
44.35
44.59
43.51
41.63
39.51
37.53
35.87
34.45
33.14
31.85
30.60
29.56
28.81
28.28
27.60
26.23
23.63
19.50
13.95
7.47
0.71
-5.72
-11.54
-16.80
-21.89
-27.30
-33.55
-40.91
-49.33
-58.17
-66.25
-72.02
-73.94
-71.01
-63.16
-51.30
-37.03
-22.13
-8.02
4.47
15.05
23.70
30.47
35.28
38.04
38.83
37.91
35.79
33.03
30.16
27.54
25.38
23.72
22.60
21.97
21.76
21.77
21.65
20.99
19.38
16.61
12.69
7.90
2.67
-2.61
-7.72
-12.68
-17.70
-23.16
-29.48
-36.85
-45.10
-53.49
-60.73
-65.25
-65.60
-60.98
-51.60
-38.56
-23.57
-8.37
5.69
17.83
27.74
35.34
40.61
43.56
44.33
43.30
41.04
38.17
35.25
32.58
30.25
28.27
26.61
25.33
24.50
24.12
23.99
23.72
22.76
20.54
16.67
11.08
4.08
-3.67
-11.37
-18.36
-24.35
-29.55
-34.62
-40.43
-47.71
-56.65
-66.68
-76.42
-84.01
-87.59
-85.92
-78.77
-67.01
-52.28
-36.43
-20.99
-6.87
5.57
16.31
25.37
32.67
38.11
41.69
43.59
44.20
44.00
43.42
42.72
42.01
41.22
40.28
39.12
37.82
36.55
35.47
34.61
33.72
32.31
29.81
25.77
20.11
13.17
5.62
-1.85
-8.73
-14.90
-20.61
-26.37
-32.79
-40.41
-49.42
-59.50
-69.63
-78.17
-83.18
-83.04
-76.99
-65.52
-50.18
-33.09
-16.28
-1.09
11.92
22.77
31.72
38.90
44.27
47.71
49.28
49.27
48.25
46.84
45.55
44.60
43.90
43.19
42.22
40.90
39.35
37.84
36.52
35.33
33.91
31.77
28.48
23.86
18.11
11.70
5.16
-1.08
-6.88
-12.29
-17.55
-22.96
-28.86
-35.55
-43.24
-51.90
-60.96
-69.29
-75.32
-77.38
-74.36
-66.04
-53.33
-37.87
-21.58
-6.04
7.83
19.69
29.59
37.61
43.69
47.69
49.54
49.46
47.99
45.85
43.74
42.12
41.04
40.24
39.32
38.02
36.27
34.29
32.35
30.63
29.06
27.34
25.02
21.72
17.26
11.77
5.61
-0.74
-6.90
-12.59
-17.82
-22.73
-27.62
-32.83
-38.74
-45.64
-53.54
-61.92
-69.63
-75.03
-76.41
-72.58
-63.42
-49.93
-33.97
-17.62
-2.51
10.46
21.07
29.41
35.58
39.57
41.38
41.33
40.04
38.40
37.18
36.74
36.94
37.29
37.19
36.31
34.65
32.53
30.29
28.11
25.89
23.25
19.80
15.25
9.59
3.10
-3.75
-10.49
-16.80
-22.53
-27.79
-32.79
-37.87
-43.39
-49.74
-57.17
-65.53
-74.09
-81.50
-86.02
-86.08
-80.82
-70.50
-56.42
-40.54
-24.83
-10.77
0.88
9.98
16.69
21.25
23.85
24.71
24.15
22.61
20.61
18.62
17.03
16.05
15.77
16.15
17.10
18.42
19.90
21.30
22.41
23.08
23.18
22.51
20.86
17.96
13.71
8.28
2.08
-4.36
-10.65
-16.75
-22.94
-29.65
-37.12
-45.40
-54.30
-63.54
-72.79
-81.46
-88.58
-92.75
-92.46
-86.68
-75.35
-59.55
-41.15
-22.21
-4.33
11.63
25.50
37.43
47.60
56.00
62.59
67.39
70.56
72.43
73.38
73.75
73.71
73.26
72.25
70.51
67.94
64.67
61.02
57.42
54.22
51.53
49.12
46.50
43.14
38.64
32.95
26.40
19.58
13.09
7.33
2.32
-2.20
-6.75
-11.91
-18.14
-25.60
-34.04
-42.65
-50.14
-54.90
-55.45
-50.83
-40.97
-26.69
-9.41
9.28
28.10
46.20
63.14
78.64
92.40
104.04
113.31
120.27
125.52
130.10
135.30
142.30
151.74
163.42
176.04
187.43
194.92
196.23
190.22
177.41
159.87
140.54
122.23
106.82
95.06
86.78
81.48
78.70
78.03
78.86
80.07
80.13
77.58
71.60
62.34
50.90
38.80
27.43
17.51
8.97
1.11
-6.94
-15.84
-25.72
-36.14
-46.39
-55.81
-64.20
-71.91
-79.81
-89.04
-100.90
-116.64
-137.22
-162.83
-192.17
-222.20
-248.44
-266.11
-271.78
-264.65
-246.87
-222.61
-196.49
-171.98
-150.73
-132.90
-117.97
-105.60
-95.88
-89.05
-85.05
-83.23
-82.45
-81.50
-79.52
-76.28
-72.25
-68.28
-65.28
-63.79
-63.91
-65.33
-67.55
-70.11
-72.58
-74.47
-74.98
-73.05
-67.64
-58.18
-45.01
-29.42
-13.31
1.38
13.28
21.81
27.03
29.41
29.43
27.57
24.35
20.41
16.52
13.35
11.30
10.34
10.19
10.41
10.76
11.18
11.80
12.68
13.66
14.33
14.09
12.50
9.43
5.17
0.36
-4.33
-8.43
-11.87
-14.96
-18.30
-22.59
-28.35
-35.64
-43.84
-51.54
-56.72
-57.37
-52.15
-40.99
-25.26
-7.28
10.41
25.91
38.30
47.60
54.32
58.93
61.66
62.54
61.66
59.34
56.15
52.75
49.59
46.79
44.09
41.02
37.21
32.63
27.65
22.90
18.93
15.89
13.44
10.89
7.49
2.82
-2.97
-9.28
-15.29
-20.31
-24.13
-27.05
-29.88
-33.58
-38.95
-46.27
-54.99
-63.72
-70.41
-72.90
-69.61
-60.12
-45.37
-27.46
-8.93
7.98
21.89
32.46
40.05
45.28
48.64
50.35
50.49
49.24
47.05
44.57
42.43
40.97
40.14
39.53
38.67
37.30
35.53
33.79
32.59
32.17
32.29
32.31
31.31
28.57
23.78
17.22
9.70
2.24
-4.25
-9.30
-13.03
-16.13
-19.58
-24.34
-30.88
-38.89
-47.13
-53.65
-56.33
-53.58
-44.97
-31.43
-15.00
1.89
17.13
29.44
38.43
44.33
47.52
48.29
46.87
43.57
38.98
33.96
29.39
25.90
23.69
22.48
21.73
20.91
19.72
18.22
16.72
15.67
15.31
15.52
15.83
15.46
13.76
10.39
5.50
-0.29
-6.19
-11.51
-15.99
-19.86
-23.71
-28.25
-33.99
-40.98
-48.62
-55.72
-60.75
-62.23
-59.27
-51.92
-41.18
-28.72
-16.36
-5.47
3.19
9.50
13.66
15.93
16.47
15.45
13.20
10.28
7.41
5.19
4.00
3.79
4.24
4.91
5.45
5.73
5.75
5.58
5.16
4.28
2.63
0.01
-3.57
-7.86
-12.39
-16.69
-20.46
-23.73
-26.85
-30.44
-35.18
-41.45
-49.11
-57.22
-64.08
-67.66
-66.21
-58.94
-46.37
-30.25
-12.90
3.47
17.39
28.32
36.35
41.84
45.02
46.01
44.93
42.19
38.47
34.58
31.18
28.53
26.54
24.87
23.28
21.72
20.32
19.22
18.39
17.47
15.89
13.12
8.93
3.54
-2.47
-8.37
-13.60
-18.02
-21.88
-25.77
-30.39
-36.35
-43.93
-52.86
-62.15
-70.06
-74.45
-73.34
-65.74
-52.06
-34.16
-14.73
3.59
18.95
30.64
38.88
44.32
47.57
48.93
48.54
46.61
43.56
39.98
36.51
33.57
31.24
29.26
27.29
25.07
22.59
20.03
17.60
15.25
12.56
8.85
3.45
-3.84
-12.61
-21.88
-30.53
-37.76
-43.43
-48.14
-52.95
-59.02
-67.17
-77.61
-89.75
-102.26
-113.24
-120.71
-123.20
-120.26
-112.66
-102.11
-90.69
-80.18
-71.68
-65.56
-61.90
-60.80
-62.62
-67.85
-76.71
-88.78
-102.76
-116.59
-127.78
-134.03
-133.79
-126.73
-113.82
-97.12
-79.11
-62.00
-47.20
-35.18
-25.73
-18.42
-12.99
-9.37
-7.40
-6.61
-5.95
-4.20
-0.46
5.33
12.17
18.27
21.74
21.27
16.72
9.21
0.84
-5.87
-8.68
-6.20
1.91
14.91
31.35
49.58
68.04
85.57
101.35
114.76
125.33
132.69
136.68
137.49
135.65
131.98
127.35
122.60
118.35
114.95
112.42
110.54
108.87
106.91
104.29
100.84
96.68
92.13
87.64
83.52
79.81
76.07
71.43
64.80
55.20
42.13
25.72
6.75
-13.60
-33.93
-52.79
-68.70
-80.07
-85.51
-84.10
-75.91
-62.13
-44.96
-26.91
-10.10
4.15
15.46
24.06
30.31
34.41
36.40
36.33
34.50
31.50
28.14
25.23
23.33
22.66
23.13
24.48
26.40
28.64
30.94
33.05
34.62
35.27
34.66
32.56
29.03
24.35
18.96
13.30
7.71
2.27
-3.13
-8.79
-15.16
-22.65
-31.53
-41.64
-52.25
-62.03
-69.19
-71.98
-69.19
-60.60
-47.16
-30.65
-13.16
3.50
18.18
30.44
40.33
48.01
53.58
57.08
58.59
58.44
57.24
55.77
54.70
54.40
54.79
55.44
55.83
55.63
54.82
53.62
52.36
51.21
50.00
48.34
45.74
41.85
36.65
30.41
23.63
16.78
10.23
4.11
-1.65
-7.37
-13.52
-20.65
-29.13
-38.94
-49.42
-59.19
-66.41
-69.26
-66.52
-58.03
-44.74
-28.42
-11.10
5.50
20.32
32.94
43.35
51.70
58.06
62.42
64.86
65.62
65.19
64.23
63.34
62.92
63.06
63.55
64.07
64.32
64.21
63.84
63.42
63.13
62.96
62.62
61.60
59.31
55.33
49.55
42.32
34.31
26.32
18.99
12.57
6.85
1.24
-4.99
-12.52
-21.78
-32.80
-45.12
-57.70
-69.06
-77.56
-81.76
-80.86
-74.96
-65.01
-52.50
-39.03
-25.96
-14.21
-4.26
3.73
9.73
13.80
16.07
16.81
16.41
15.41
14.43
13.93
14.17
15.13
16.53
18.05
19.43
20.52
21.33
21.86
22.09
21.92
21.19
19.72
17.36
14.00
9.68
4.59
-0.90
-6.37
-11.47
-16.05
-20.20
-24.22
-28.48
-33.40
-39.28
-46.24
-54.03
-61.92
-68.71
-72.91
-73.13
-68.62
-59.50
-46.78
-32.06
-17.01
-2.98
9.22
19.25
27.11
32.86
36.57
38.31
38.26
36.81
34.50
31.99
29.86
28.46
27.82
27.65
27.59
27.32
26.72
25.90
25.06
24.29
23.51
22.40
20.60
17.82
13.98
9.22
3.86
-1.80
-7.49
-13.04
-18.40
-23.56
-28.65
-33.97
-39.94
-46.90
-54.85
-63.18
-70.64
-75.57
-76.44
-72.34
-63.35
-50.50
-35.42
-19.85
-5.20
7.67
18.34
26.72
32.86
36.85
38.90
39.34
38.63
37.27
35.75
34.43
33.51
33.01
32.80
32.66
32.38
31.79
30.85
29.61
28.21
26.74
25.18
23.37
21.04
17.92
13.87
8.92
3.34
-2.52
-8.28
-13.74
-18.86
-23.77
-28.77
-34.21
-40.39
-47.53
-55.49
-63.73
-71.19
-76.46
-78.10
-75.09
-67.22
-55.16
-40.33
-24.47
-9.16
4.50
15.94
25.04
31.91
36.72
39.63
40.86
40.70
39.57
37.93
36.19
34.60
33.28
32.21
31.32
30.57
29.88
29.22
28.51
27.72
26.76
25.60
24.12
22.15
19.41
15.68
10.90
5.27
-0.78
-6.73
-12.19
-17.02
-21.42
-25.75
-30.48
-36.00
-42.52
-49.92
-57.66
-64.71
-69.71
-71.27
-68.33
-60.62
-48.73
-34.03
-18.23
-3.01
10.38
21.27
29.51
35.28
38.95
40.86
41.32
40.66
39.18
37.25
35.28
33.57
32.29
31.46
30.93
30.56
30.26
30.02
29.89
29.84
29.69
29.13
27.79
25.38
21.81
17.25
12.06
6.68
1.47
-3.39
-7.91
-12.27
-16.74
-21.67
-27.38
-34.12
-41.85
-50.06
-57.71
-63.32
-65.42
-63.02
-55.98
-45.07
-31.74
-17.56
-3.90
8.35
18.68
26.89
32.84
36.53
38.10
37.92
36.57
34.64
32.63
30.85
29.36
28.11
27.00
25.97
25.04
24.23
23.63
23.22
22.89
22.40
21.42
19.58
16.63
12.52
7.42
1.72
-4.13
-9.73
-14.92
-19.81
-24.76
-30.26
-36.77
-44.40
-52.80
-61.07
-67.92
-71.99
-72.24
-68.24
-60.33
-49.44
-36.86
-23.92
-11.76
-1.23
7.12
12.98
16.27
17.22
16.32
14.33
12.07
10.34
9.61
10.04
11.43
13.36
15.38
17.14
18.49
19.40
19.89
19.89
19.23
17.65
15.00
11.25
6.61
1.47
-3.79
-8.87
-13.74
-18.55
-23.67
-29.49
-36.29
-43.99
-52.07
-59.51
-64.92
-66.92
-64.54
-57.55
-46.66
-33.22
-18.91
-5.22
6.80
16.68
24.33
29.85
33.38
35.06
35.13
33.94
31.96
29.63
27.28
25.09
23.10
21.31
19.81
18.67
17.98
17.66
17.48
17.00
15.75
13.35
9.66
4.81
-0.81
-6.73
-12.46
-17.77
-22.68
-27.51
-32.72
-38.79
-45.88
-53.72
-61.46
-67.74
-71.03
-70.06
-64.24
-53.94
-40.40
-25.42
-10.81
2.06
12.51
20.50
26.41
30.69
33.65
35.42
36.03
35.57
34.30
32.58
30.77
29.13
27.80
26.77
26.01
25.55
25.34
25.28
25.09
24.33
22.61
19.67
15.59
10.72
5.54
0.50
-4.23
-8.73
-13.42
-18.79
-25.28
-33.02
-41.65
-50.21
-57.28
-61.29
-60.95
-55.72
-46.00
-33.07
-18.73
-4.73
7.61
17.61
25.16
30.49
33.93
35.81
36.41
36.05
35.04
33.69
32.19
30.62
28.97
27.21
25.43
23.80
22.48
21.57
20.93
20.22
18.97
16.80
13.52
9.32
4.59
-0.19
-4.67
-8.79
-12.76
-17.02
-22.05
-28.26
-35.71
-44.05
-52.34
-59.16
-62.94
-62.41
-57.01
-47.21
-34.32
-20.16
-6.47
5.47
15.09
22.30
27.33
30.44
31.84
31.68
30.20
27.79
24.94
22.22
20.06
18.69
18.07
17.99
18.14
18.28
18.24
17.88
17.06
15.62
13.41
10.38
6.62
2.41
-1.91
-6.08
-10.13
-14.39
-19.40
-25.57
-32.89
-40.66
-47.56
-51.92
-52.33
-48.06
-39.38
-27.43
-13.87
-0.35
11.87
22.05
29.92
35.54
39.03
40.55
40.32
38.67
36.08
33.08
30.14
27.62
25.61
24.06
22.82
21.76
20.78
19.80
18.73
17.36
15.45
12.74
9.10
4.55
-0.67
-6.18
-11.65
-16.87
-21.90
-27.01
-32.63
-39.15
-46.71
-54.99
-63.09
-69.59
-72.86
-71.55
-65.06
-53.83
-39.27
-23.34
-7.96
5.50
16.39
24.70
30.74
34.86
37.31
38.31
38.16
37.32
36.27
35.45
35.01
34.85
34.65
34.18
33.38
32.46
31.79
31.61
31.92
32.32
32.22
31.07
28.57
24.84
20.34
15.68
11.40
7.78
4.74
1.94
-1.19
-5.17
-10.35
-16.58
-23.08
-28.50
-31.12
-29.39
-22.42
-10.29
5.92
24.51
43.62
61.79
78.16
92.45
104.74
115.27
124.20
131.72
138.06
143.58
148.69
153.75
158.85
163.79
168.14
171.47
173.62
174.75
175.24
175.43
175.34
174.47
171.95
166.77
158.10
145.60
129.54
110.72
90.31
69.49
49.20
29.95
11.77
-5.61
-22.51
-39.09
-55.26
-70.71
-85.05
-97.95
-109.09
-118.19
-124.94
-129.04
-130.31
-128.76
-124.70
-118.69
-111.48
-103.83
-96.33
-89.37
-83.01
-77.10
-71.33
-65.42
-59.16
-52.58
-45.84
-39.21
-33.04
-27.66
-23.38
-20.47
-19.05
-19.04
-20.09
-21.78
-23.81
-26.25
-29.65
-34.83
-42.58
-53.29
-66.68
-81.77
-97.06
-110.87
-121.72
-128.58
-131.14
-129.75
-125.37
-119.23
-112.58
-106.36
-101.09
-96.79
-93.12
-89.54
-85.48
-80.44
-74.14
-66.51
-57.73
-48.18
-38.37
-28.95
-20.49
-13.50
-8.22
-4.60
-2.35
-1.03
-0.26
0.22
0.51
0.61
0.53
0.29
-0.07
-0.49
-0.93
-1.35
-1.69
-1.97
-2.25
-2.80
-3.95
-6.05
-9.31
-13.62
-18.58
-23.61
-28.22
-32.18
-35.66
-39.16
-43.30
-48.62
-55.33
-63.22
-71.67
-79.73
-86.23
-89.99
-90.13
-86.42
-79.66
-71.48
-63.91
-58.53
-55.76
-54.75
-53.76
-51.13
-45.99
-38.64
-30.11
-21.59
-13.74
-6.58
0.24
6.93
13.22
18.43
21.83
23.09
22.49
20.80
18.83
17.02
15.08
12.17
7.31
-0.13
-10.03
-21.57
-33.60
-45.07
-55.55
-65.26
-75.00
-85.81
-98.66
-114.07
-131.78
-150.58
-168.25
-181.85
-188.33
-185.28
-171.66
-148.13
-116.87
-81.00
-43.83
-8.13
24.14
51.84
74.44
91.74
103.79
110.96
113.95
113.82
111.78
108.95
106.08
103.44
100.98
98.47
95.81
93.11
90.56
88.28
86.15
83.73
80.43
75.75
69.49
61.87
53.44
44.87
36.68
29.03
21.64
13.96
5.34
-4.61
-15.76
-27.27
-37.68
-45.24
-48.34
-46.01
-38.25
-25.99
-10.83
5.37
21.01
34.94
46.54
55.68
62.46
67.13
69.97
71.24
71.24
70.32
68.81
67.03
65.15
63.21
61.16
58.97
56.72
54.58
52.68
50.98
49.24
47.01
43.90
39.73
34.59
28.83
22.82
16.85
10.89
4.68
-2.26
-10.39
-19.88
-30.32
-40.57
-48.93
-53.52
-52.95
-46.82
-35.86
-21.76
-6.54
8.03
20.79
31.23
39.29
45.09
48.78
50.55
50.69
49.60
47.70
45.31
42.65
39.86
37.11
34.63
32.66
31.32
30.48
29.80
28.82
27.15
24.59
21.19
17.14
12.67
7.90
2.86
-2.51
-8.32
-14.78
-22.10
-30.44
-39.58
-48.74
-56.51
-61.10
-60.92
-55.23
-44.50
-30.32
-14.89
-0.19
12.54
23.00
31.49
38.43
43.95
47.81
49.67
49.43
47.45
44.54
41.64
39.43
38.09
37.23
36.25
34.65
32.36
29.75
27.46
26.00
25.46
25.52
25.53
24.86
23.09
20.07
15.87
10.66
4.85
-0.81
-5.04
-6.25
-3.12
4.80
16.61
30.36
43.71
54.95
63.52
69.94
75.11
79.54
82.92
84.38
83.11
79.02
72.86
65.92
59.43
54.08
49.86
46.33
42.89
39.05
34.61
29.61
24.25
18.75
13.27
7.80
2.19
-3.83
-10.55
-18.09
-26.40
-35.20
-43.97
-52.01
-58.50
-62.63
-63.74
-61.57
-56.36
-48.88
-40.24
-31.59
-23.82
-17.38
-12.35
-8.62
-6.10
-4.77
-4.64
-5.58
-7.20
-8.96
-10.24
-10.63
-10.02
-8.65
-6.99
-5.51
-4.60
-4.37
-4.71
-5.36
-5.99
-6.43
-6.69
-7.10
-8.06
-9.98
-13.03
-17.09
-21.79
-26.63
-31.12
-34.77
-37.16
-37.88
-36.64
-33.36
-28.25
-21.83
-14.80
-7.90
-1.67
3.57
7.73
10.82
12.92
14.13
14.65
14.70
14.50
14.23
13.89
13.36
12.58
11.69
11.14
11.55
13.45
16.94
21.61
26.52
30.60
32.96
33.06
30.82
26.41
20.18
12.56
4.01
-5.05
-14.42
-24.28
-35.29
-48.39
-64.30
-82.97
-103.13
-122.29
-137.35
-145.49
-145.24
-137.05
-123.23
-107.14
-91.95
-79.71
-70.86
-64.58
-59.45
-54.30
-48.62
-42.49
-36.32
-30.50
-25.26
-20.66
-16.82
-13.90
-12.16
-11.77
-12.74
-14.88
-17.83
-21.25
-24.99
-29.18
-34.09
-39.75
-45.50
-49.84
-50.71
-46.31
-35.94
-20.52
-2.36
15.67
31.16
42.89
50.93
56.15
59.49
61.53
62.32
61.68
59.51
56.00
51.60
46.89
42.43
38.58
35.53
33.20
31.40
29.77
27.95
25.64
22.73
19.26
15.38
11.26
7.02
2.63
-1.92
-6.72
-11.81
-17.40
-23.77
-31.26
-39.87
-48.93
-56.94
-61.78
-61.42
-54.74
-42.16
-25.53
-7.60
8.99
22.49
32.34
38.93
42.99
45.13
45.59
44.48
42.02
38.70
35.22
32.21
29.96
28.37
27.09
25.71
24.14
22.54
21.24
20.45
20.03
19.48
18.10
15.34
11.02
5.48
-0.59
-6.41
-11.42
-15.50
-18.93
-22.34
-26.44
-31.82
-38.64
-46.44
-54.01
-59.53
-61.07
-57.19
-47.57
-33.20
-16.22
0.88
15.95
27.77
36.07
41.28
43.92
44.39
42.87
39.56
34.94
29.78
25.01
21.31
18.93
17.60
16.78
15.92
14.80
13.54
12.43
11.64
11.05
10.20
8.49
5.48
1.14
-4.12
-9.51
-14.28
-17.91
-20.41
-22.27
-24.30
-27.37
-32.02
-38.21
-45.17
-51.37
-54.98
-54.29
-48.38
-37.42
-22.74
-6.36
9.59
23.43
34.27
41.90
46.54
48.52
48.15
45.77
41.87
37.13
32.35
28.25
25.22
23.28
22.07
21.09
19.97
18.59
17.13
15.90
15.12
14.69
14.22
13.17
11.05
7.69
3.29
-1.65
-6.59
-11.10
-15.06
-18.60
-22.15
-26.23
-31.33
-37.71
-45.13
-52.72
-58.94
-62.03
-60.57
-54.00
-43.00
-29.24
-14.85
-1.69
9.12
17.32
23.24
27.38
30.04
31.33
31.22
29.79
27.33
24.36
21.43
18.98
17.19
16.00
15.19
14.51
13.81
13.09
12.44
11.96
11.67
11.47
11.13
10.36
8.90
6.52
3.20
-0.87
-5.26
-9.42
-12.88
-15.36
-16.92
-17.89
-18.78
-20.10
-22.26
-25.40
-29.29
-33.31
-36.46
-37.53
-35.49
-29.83
-20.88
-9.77
1.86
12.29
20.23
25.09
27.09
27.14
26.48
26.20
26.91
28.51
30.32
31.27
30.21
26.13
18.29
6.45
-8.99
-26.72
-44.58
-59.85
-70.03
-73.60
-70.53
-62.26
-51.13
-39.54
-29.38
-21.64
-16.61
-14.06
-13.59
-14.70
-16.93
-19.83
-23.04
-26.41
-30.06
-34.33
-39.45
-45.24
-50.75
-54.32
-54.06
-48.48
-37.24
-21.33
-2.88
15.62
32.04
45.18
54.89
61.68
66.23
69.03
70.21
69.75
67.72
64.52
60.82
57.40
54.86
53.44
52.97
53.04
53.23
53.29
53.17
53.03
53.04
53.28
53.74
54.29
54.72
54.76
54.04
52.13
48.57
42.99
35.25
25.60
14.66
3.33
-7.33
-16.42
-23.40
-28.21
-31.26
-33.28
-34.99
-36.84
-38.84
-40.67
-41.82
-41.85
-40.51
-37.73
-33.47
-27.69
-20.29
-11.39
-1.42
8.73
17.87
24.83
28.77
29.43
27.19
22.89
17.61
12.38
7.90
4.50
2.11
0.42
-0.93
-2.18
-3.40
-4.56
-5.53
-6.25
-6.73
-7.05
-7.34
-7.69
-8.25
-9.11
-10.42
-12.23
-14.61
-17.50
-20.82
-24.47
-28.41
-32.61
-36.99
-41.32
-45.19
-48.03
-49.28
-48.57
-45.82
-41.32
-35.58
-29.21
-22.77
-16.66
-11.17
-6.47
-2.70
0.09
1.90
2.86
3.16
3.03
2.70
2.33
2.03
1.83
1.74
1.76
1.90
2.14
2.47
2.86
3.21
3.47
3.51
3.29
2.74
1.88
0.75
-0.56
-1.98
-3.49
-5.14
-7.05
-9.22
-11.50
-13.51
-14.75
-14.71
-13.08
-9.82
-5.15
0.65
7.31
14.63
22.38
30.17
37.43
43.50
47.92
50.60
51.97
52.80
53.85
55.54
57.74
59.85
61.19
61.39
60.70
59.96
60.20
62.11
65.65
69.94
73.56
75.05
73.39
68.17
59.49
47.64
32.98
15.90
-3.12
-23.59
-45.31
-68.69
-94.61
-123.79
-155.68
-187.58
-214.78
-231.91
-234.96
-223.04
-198.88
-167.66
-134.96
-104.74
-78.48
-55.68
-35.27
-16.69
-0.36
12.82
22.42
28.90
33.56
37.79
42.29
46.72
49.91
50.62
48.20
43.06
36.52
30.28
25.77
23.62
23.49
24.32
24.80
23.99
21.69
18.34
14.81
11.78
9.37
7.05
4.04
-0.31
-6.05
-12.56
-18.79
-23.59
-26.10
-25.85
-22.80
-17.29
-9.97
-1.75
6.36
13.45
18.93
22.66
24.91
26.10
26.65
26.74
26.44
25.72
24.68
23.55
22.62
22.13
22.17
22.64
23.36
24.07
24.51
24.47
23.81
22.45
20.38
17.65
14.37
10.58
6.33
1.62
-3.56
-9.17
-15.05
-21.02
-26.78
-32.02
-36.41
-39.67
-41.55
-41.90
-40.69
-37.98
-33.99
-29.05
-23.57
-18.04
-12.86
-8.36
-4.67
-1.70
0.73
2.76
4.45
5.75
6.52
6.71
6.33
5.54
4.51
3.39
2.27
1.15
-0.04
-1.33
-2.78
-4.38
-6.15
-8.01
-9.94
-11.86
-13.75
-15.64
-17.62
-19.74
-22.05
-24.52
-27.05
-29.54
-31.87
-33.88
-35.39
-36.09
-35.68
-33.89
-30.68
-26.22
-20.92
-15.28
-9.75
-4.62
-0.02
3.98
7.35
10.01
11.95
13.19
13.86
14.12
14.08
13.77
13.14
12.14
10.83
9.40
8.19
7.55
7.75
8.82
10.54
12.53
14.34
15.60
16.13
15.88
14.91
13.29
11.06
8.19
4.66
0.50
-4.15
-9.00
-13.63
-17.52
-20.17
-21.20
-20.48
-18.09
-14.43
-10.01
-5.43
-1.18
2.42
5.22
7.25
8.66
9.61
10.22
10.59
10.79
10.87
10.90
10.89
10.84
10.69
10.36
9.84
9.20
8.50
7.82
7.08
6.07
4.52
2.22
-0.83
-4.38
-8.02
-11.42
-14.45
-17.34
-20.51
-24.40
-29.21
-34.78
-40.61
-46.03
-50.38
-53.15
-54.09
-53.27
-51.01
-47.87
-44.50
-41.54
-39.40
-38.16
-37.48
-36.69
-34.97
-31.60
-26.22
-18.92
-10.25
-1.05
7.77
15.49
21.74
26.55
30.20
33.06
35.45
37.49
39.16
40.27
40.62
39.97
38.20
35.28
31.38
26.81
21.94
17.08
12.39
7.76
2.94
-2.38
-8.30
-14.66
-20.92
-26.24
-29.66
-30.32
-27.74
-21.92
-13.49
-3.43
7.10
17.07
25.78
32.89
38.35
42.32
45.02
46.65
47.44
47.56
47.14
46.28
45.11
43.77
42.48
41.38
40.58
40.09
39.80
39.62
39.41
39.08
38.49
37.46
35.79
33.33
30.07
26.18
21.99
17.84
13.95
10.33
6.76
2.92
-1.51
-6.72
-12.64
-18.96
-25.17
-30.65
-34.77
-37.00
-36.93
-34.40
-29.51
-22.66
-14.55
-6.01
2.15
9.29
15.11
19.58
22.88
25.23
26.77
27.55
27.58
26.92
25.74
24.36
23.10
22.22
21.86
21.94
22.29
22.64
22.77
22.55
21.94
20.95
19.67
18.11
16.29
14.19
11.75
9.00
6.05
3.08
0.24
-2.34
-4.75
-7.19
-9.99
-13.40
-17.47
-22.02
-26.56
-30.50
-33.17
-34.04
-32.76
-29.24
-23.59
-16.22
-7.70
1.21
9.75
17.28
23.41
27.97
31.10
33.03
33.99
34.16
33.65
32.53
30.92
29.01
26.96
24.86
22.68
20.36
17.83
15.14
12.38
9.72
7.17
4.67
2.07
-0.76
-3.81
-6.90
-9.80
-12.30
-14.32
-16.00
-17.56
-19.28
-21.31
-23.73
-26.43
-29.25
-31.90
-34.02
-35.19
-34.98
-33.05
-29.34
-24.10
-17.85
-11.25
-4.91
0.76
5.62
9.68
12.94
15.38
16.88
17.40
17.05
16.17
15.20
14.53
14.31
14.39
14.47
14.27
13.72
12.97
12.28
11.83
11.50
10.99
9.88
7.88
5.03
1.65
-1.75
-4.78
-7.23
-9.19
-10.96
-12.88
-15.25
-18.18
-21.63
-25.32
-28.85
-31.72
-33.39
-33.42
-31.56
-27.80
-22.42
-15.87
-8.72
-1.52
5.26
11.24
16.18
19.98
22.67
24.41
25.47
26.16
26.76
27.46
28.34
29.35
30.37
31.20
31.68
31.69
31.28
30.61
29.99
29.64
29.68
30.00
30.30
30.29
29.81
28.89
27.77
26.72
25.86
25.19
24.55
23.80
22.89
21.81
20.43
18.39
15.29
11.08
6.41
2.70
1.64
4.50
11.42
21.18
31.51
39.75
43.53
41.21
32.02
16.14
-5.23
-29.88
-54.76
-76.63
-92.89
-102.33
-105.38
-103.58
-98.73
-91.99
-83.65
-73.35
-60.75
-46.27
-31.19
-17.28
-6.18
1.31
5.39
7.07
7.66
8.23
9.34
10.99
12.74
13.87
13.61
11.22
6.19
-1.68
-12.16
-24.69
-38.36
-52.04
-64.52
-74.59
-81.28
-84.07
-83.04
-78.86
-72.55
-65.14
-57.42
-49.76
-42.23
-34.74
-27.31
-20.10
-13.42
-7.58
-2.82
0.88
3.71
6.05
8.31
10.82
13.70
16.88
20.00
22.61
24.26
24.57
23.39
20.72
16.72
11.58
5.57
-1.01
-7.71
-14.04
-19.51
-23.78
-26.79
-28.76
-30.12
-31.40
-33.02
-35.24
-38.02
-40.90
-42.98
-43.07
-40.03
-33.23
-22.88
-10.10
3.47
16.20
27.00
35.58
42.20
47.36
51.37
54.18
55.55
55.34
53.73
51.30
48.76
46.70
45.28
44.26
43.11
41.40
38.98
36.05
33.03
30.30
27.94
25.73
23.25
20.14
16.29
11.98
7.68
3.88
0.77
-1.77
-4.21
-7.05
-10.67
-15.09
-20.02
-24.95
-29.33
-32.69
-34.62
-34.84
-33.15
-29.54
-24.32
-18.02
-11.40
-5.18
0.15
4.47
7.86
10.48
12.33
13.14
12.51
10.13
6.03
0.73
-4.80
-9.34
-11.68
-10.91
-6.58
1.17
11.62
23.59
35.59
46.06
53.71
57.77
58.19
55.58
50.97
45.41
39.65
34.00
28.42
22.78
17.08
11.56
6.66
2.86
0.64
0.29
1.86
4.92
8.51
11.13
11.02
6.73
-2.51
-16.43
-33.87
-53.31
-73.42
-93.49
-113.42
-133.18
-152.15
-168.64
-180.09
-183.80
-178.11
-163.19
-141.08
-114.97
-88.09
-62.76
-40.15
-20.70
-4.81
6.79
13.24
14.19
10.37
3.69
-3.34
-8.43
-10.36
-9.23
-6.10
-2.34
1.05
3.76
6.02
8.24
10.62
13.02
15.22
17.21
19.45
22.72
27.85
35.30
44.96
56.14
67.83
78.94
88.49
95.70
100.01
101.09
98.97
94.10
87.32
79.68
72.16
65.36
59.45
54.24
49.42
44.84
40.57
36.83
33.72
31.06
28.34
24.92
20.34
14.52
7.85
0.98
-5.44
-11.09
-16.02
-20.55
-25.17
-30.35
-36.46
-43.70
-51.92
-60.37
-67.59
-71.61
-70.47
-63.03
-49.50
-31.52
-11.67
7.47
24.06
37.37
47.59
55.31
61.02
64.85
66.71
66.57
64.72
61.71
58.26
54.92
51.87
48.96
45.85
42.27
38.25
34.12
30.34
27.20
24.62
22.09
18.89
14.37
8.23
0.68
-7.60
-15.69
-22.81
-28.51
-32.95
-36.73
-40.77
-45.97
-52.93
-61.74
-71.75
-81.58
-89.19
-92.41
-89.51
-79.90
-64.47
-45.38
-25.38
-6.95
8.38
20.19
28.78
34.72
38.42
40.05
39.83
38.15
35.68
33.17
31.19
29.92
29.22
28.76
28.28
27.72
27.26
27.11
27.30
27.49
26.95
24.84
20.53
14.01
6.01
-2.20
-9.34
-14.66
-18.30
-21.19
-24.70
-30.05
-37.85
-47.78
-58.60
-68.27
-74.27
-74.18
-66.42
-50.97
-29.64
-5.74
17.04
35.85
49.60
59.00
65.79
71.60
77.22
82.40
86.39
88.58
88.95
87.94
86.09
83.62
80.36
76.00
70.41
63.89
57.05
50.56
44.85
39.92
35.40
30.77
25.63
19.90
13.78
7.60
1.61
-4.19
-10.07
-16.37
-23.32
-30.90
-38.71
-45.97
-51.77
-55.16
-55.44
-52.37
-46.29
-38.08
-28.92
-19.97
-12.03
-5.44
-0.08
4.35
8.08
11.08
13.16
14.11
13.92
12.82
11.25
9.68
8.38
7.42
6.72
6.13
5.58
5.05
4.49
3.82
2.85
1.40
-0.59
-3.07
-5.92
-8.97
-12.19
-15.64
-19.47
-23.86
-28.89
-34.53
-40.52
-46.33
-51.13
-53.97
-53.93
-50.41
-43.43
-33.57
-21.93
-9.75
1.85
12.07
20.44
26.74
30.81
32.59
32.20
30.05
26.83
23.35
20.28
17.93
16.24
14.99
14.00
13.26
12.89
12.88
12.98
12.67
11.36
8.69
4.72
-0.11
-5.22
-10.19
-14.90
-19.58
-24.66
-30.68
-38.04
-46.92
-56.99
-67.23
-75.92
-80.87
-80.14
-72.65
-58.78
-40.30
-19.80
0.13
17.73
32.29
43.99
53.29
60.55
65.76
68.84
69.80
69.06
67.25
65.02
62.69
60.18
57.23
53.58
49.34
44.97
41.09
38.06
35.78
33.66
30.88
26.76
21.15
14.45
7.43
0.83
-4.92
-9.95
-14.77
-20.07
-26.47
-34.28
-43.40
-53.19
-62.43
-69.37
-72.13
-69.26
-60.35
-46.32
-29.25
-11.69
4.11
16.83
26.17
32.55
36.56
38.65
39.05
37.94
35.66
32.74
29.72
26.99
24.64
22.55
20.50
18.41
16.39
14.64
13.30
12.27
11.21
9.59
6.98
3.25
-1.33
-6.23
-10.86
-14.93
-18.52
-22.09
-26.21
-31.36
-37.69
-45.01
-52.66
-59.60
-64.42
-65.65
-62.08
-53.33
-40.11
-24.15
-7.70
7.19
19.18
27.92
33.74
37.24
38.91
39.02
37.75
35.43
32.52
29.59
26.97
24.67
22.38
19.67
16.24
12.07
7.45
2.74
-1.74
-5.93
-9.96
-14.06
-18.33
-22.68
-26.82
-30.45
-33.43
-35.97
-38.55
-41.86
-46.46
-52.57
-59.77
-66.93
-72.30
-73.97
-70.40
-61.02
-46.53
-28.75
-10.08
7.22
21.66
32.71
40.60
45.88
49.02
50.31
49.98
48.37
46.03
43.57
41.43
39.66
37.93
35.80
32.98
29.57
26.03
22.93
20.63
19.07
17.71
15.76
12.54
7.76
1.63
-5.24
-12.06
-18.23
-23.47
-27.99
-32.36
-37.29
-43.41
-50.91
-59.39
-67.66
-73.94
-76.28
-73.14
-64.05
-49.85
-32.44
-14.25
2.57
16.66
27.60
35.65
41.36
45.16
47.28
47.83
46.96
45.01
42.46
39.85
37.56
35.71
34.15
32.51
30.43
27.80
24.81
21.91
19.50
17.72
16.22
14.36
11.44
7.13
1.56
-4.67
-10.85
-16.44
-21.27
-25.62
-29.99
-34.94
-40.91
-48.07
-56.28
-64.93
-72.93
-78.70
-80.56
-77.15
-68.05
-54.03
-36.91
-19.03
-2.47
11.45
22.36
30.49
36.30
40.08
41.93
41.97
40.55
38.32
35.97
34.01
32.46
30.96
28.95
26.02
22.18
17.93
14.01
11.15
9.66
9.28
9.22
8.46
6.16
2.02
-3.57
-9.70
-15.30
-19.52
-22.11
-23.42
-24.27
-25.74
-28.90
-34.54
-42.83
-53.00
-63.20
-70.82
-73.19
-68.58
-56.97
-40.10
-20.87
-2.21
13.88
26.68
36.46
43.81
49.05
52.06
52.66
50.96
47.63
43.68
40.06
37.31
35.39
33.91
32.41
30.74
29.12
27.94
27.50
27.65
27.75
26.91
24.32
19.67
13.27
5.96
-1.27
-7.65
-12.93
-17.42
-21.82
-27.00
-33.73
-42.37
-52.67
-63.57
-73.27
-79.48
-80.11
-73.94
-61.14
-43.40
-23.35
-3.84
12.96
25.99
35.25
41.37
45.00
46.53
46.06
43.68
39.79
35.07
30.43
26.62
24.01
22.49
21.70
21.27
21.07
21.12
21.48
21.95
22.03
21.09
18.66
14.71
9.75
4.59
0.01
-3.59
-6.27
-8.60
-11.40
-15.40
-21.04
-28.13
-35.74
-42.15
-45.16
-42.77
-33.84
-18.55
1.50
23.87
46.06
66.16
83.19
96.92
107.40
114.65
118.51
118.86
115.92
110.44
103.63
96.85
91.25
87.55
85.88
86.03
87.55
90.04
93.14
96.49
99.62
101.97
103.09
102.84
101.48
99.63
97.95
96.86
96.31
95.88
94.93
92.88
89.45
84.72
79.23
73.81
69.28
65.89
62.78
57.96
48.85
33.47
11.55
-15.06
-42.97
-68.58
-89.40
-104.85
-116.25
-126.10
-137.42
-152.96
-174.45
-201.83
-232.60
-261.84
-283.30
-291.37
-283.13
-259.44
-224.42
-183.67
-142.28
-103.58
-69.24
-40.06
-16.93
-1.00
6.88
6.85
0.35
-10.22
-22.39
-34.38
-45.40
-55.42
-64.57
-72.68
-79.25
-83.71
-85.86
-86.29
-86.27
-87.32
-90.50
-95.84
-102.19
-107.56
-109.91
-107.93
-101.54
-91.92
-80.89
-70.31
-61.36
-54.39
-48.96
-44.14
-38.86
-32.22
-23.64
-13.11
-1.22
10.93
21.93
30.51
35.92
38.12
37.74
35.87
33.66
31.92
31.08
31.16
32.01
33.35
34.92
36.42
37.48
37.72
36.78
34.52
30.94
26.23
20.54
13.90
6.31
-2.15
-11.08
-19.68
-26.85
-31.52
-33.00
-31.22
-26.79
-20.75
-14.31
-8.52
-4.08
-1.36
-0.40
-1.07
-3.12
-6.19
-9.89
-13.77
-17.31
-20.04
-21.50
-21.33
-19.37
-15.70
-10.69
-4.94
0.84
5.91
9.70
11.90
12.48
11.74
10.16
8.30
6.56
5.07
3.57
1.52
-1.78
-6.85
-13.58
-21.02
-27.35
-30.36
-28.09
-19.56
-5.26
12.96
32.49
50.75
65.88
77.06
84.24
87.83
88.24
85.83
80.98
74.28
66.66
59.13
52.60
47.56
44.06
41.72
40.01
38.44
36.62
34.38
31.56
28.13
24.09
19.51
14.48
9.17
3.68
-1.93
-7.68
-13.69
-20.26
-27.71
-36.25
-45.61
-54.79
-62.03
-65.18
-62.43
-53.08
-37.92
-19.10
0.61
18.65
33.39
44.31
51.68
56.10
58.03
57.70
55.17
50.70
44.82
38.38
32.27
27.18
23.44
20.94
19.36
18.23
17.15
15.82
13.97
11.41
8.01
3.81
-1.06
-6.31
-11.62
-16.76
-21.68
-26.58
-31.90
-38.23
-45.92
-54.80
-63.75
-70.80
-73.60
-70.18
-59.82
-43.44
-23.32
-2.37
16.81
32.61
44.55
52.95
58.44
61.49
62.33
61.11
58.03
53.49
48.07
42.38
36.95
32.15
28.16
25.01
22.53
20.45
18.35
15.80
12.42
8.05
2.76
-3.17
-9.36
-15.52
-21.56
-27.59
-33.91
-40.96
-49.17
-58.72
-69.25
-79.61
-87.89
-91.80
-89.42
-79.91
-63.99
-43.79
-22.20
-1.99
15.01
28.13
37.69
44.46
49.17
52.18
53.53
53.13
50.97
47.35
42.80
37.97
33.45
29.59
26.45
23.93
21.84
20.00
18.24
16.39
14.20
11.42
7.86
3.50
-1.43
-6.53
-11.45
-16.07
-20.73
-26.16
-33.25
-42.51
-53.53
-64.76
-73.70
-77.68
-74.81
-64.72
-48.72
-29.26
-9.06
9.69
25.75
38.73
48.73
56.02
60.93
63.82
65.21
65.65
65.53
64.98
63.83
61.82
58.82
54.95
50.59
46.23
42.21
38.59
35.09
31.21
26.44
20.53
13.62
6.24
-0.89
-7.19
-12.33
-16.44
-19.98
-23.66
-28.29
-34.57
-42.90
-52.89
-63.20
-71.46
-74.88
-71.16
-59.45
-40.87
-18.22
4.99
25.72
42.21
54.12
62.05
66.80
68.85
68.22
64.90
59.12
51.66
43.61
36.18
30.24
26.22
24.02
23.17
23.04
23.00
22.60
21.57
19.85
17.46
14.39
10.56
5.87
0.25
-6.20
-13.37
-21.19
-29.80
-39.49
-50.25
-61.31
-70.92
-76.63
-76.10
-68.06
-52.88
-32.56
-9.99
12.03
31.53
47.57
59.99
68.91
74.39
76.36
74.83
70.09
62.85
54.19
45.24
37.01
30.17
24.94
21.17
18.37
15.99
13.51
10.59
7.12
3.18
-1.09
-5.60
-10.38
-15.51
-21.08
-27.11
-33.56
-40.51
-48.18
-56.79
-66.16
-75.33
-82.46
-85.26
-81.80
-71.31
-54.62
-33.82
-11.58
9.81
28.96
45.36
59.01
69.88
77.75
82.29
83.34
81.20
76.66
70.77
64.54
58.81
54.05
50.45
47.98
46.39
45.21
43.78
41.36
37.38
31.61
24.24
15.89
7.28
-0.91
-8.34
-15.05
-21.53
-28.49
-36.63
-46.22
-56.76
-66.91
-74.69
-78.05
-75.58
-67.01
-53.31
-36.37
-18.43
-1.44
13.26
25.02
33.69
39.30
41.96
41.76
38.93
33.88
27.31
20.06
12.99
6.79
1.90
-1.62
-3.99
-5.69
-7.33
-9.40
-12.12
-15.44
-19.00
-22.35
-25.21
-27.64
-30.05
-33.15
-37.63
-43.93
-52.05
-61.27
-70.21
-76.92
-79.37
-75.97
-66.15
-50.60
-31.19
-10.52
8.79
24.70
36.09
42.80
45.32
44.43
40.93
35.46
28.64
21.19
13.97
7.86
3.53
1.09
0.03
-0.67
-2.06
-4.80
-8.87
-13.59
-17.96
-21.10
-22.60
-22.67
-22.08
-21.91
-23.29
-27.15
-33.82
-42.81
-52.54
-60.58
-64.19
-61.26
-51.09
-34.79
-14.93
5.41
23.61
38.20
48.90
56.06
60.03
60.80
58.00
51.46
41.63
29.77
17.73
7.22
-0.69
-6.01
-9.63
-12.82
-16.62
-21.34
-26.72
-32.19
-37.41
-42.44
-47.76
-54.03
-61.88
-71.87
-84.45
-99.85
-117.74
-136.83
-154.69
-168.01
-173.37
-168.22
-151.69
-124.76
-89.90
-50.18
-8.56
32.70
71.99
108.10
139.78
165.54
183.79
193.32
193.96
186.94
174.74
160.28
145.95
132.85
120.70
108.39
94.92
80.10
64.77
50.28
37.84
27.89
20.05
13.44
7.13
0.50
-6.73
-14.66
-23.41
-33.01
-43.14
-52.87
-60.62
-64.47
-62.79
-54.94
-41.63
-24.82
-7.14
8.91
21.57
30.08
34.53
35.44
33.42
29.07
23.00
15.96
8.85
2.63
-2.01
-4.80
-6.02
-6.37
-6.63
-7.34
-8.66
-10.35
-12.01
-13.37
-14.44
-15.53
-17.20
-19.99
-24.36
-30.54
-38.41
-47.35
-56.18
-63.11
-66.14
-63.58
-54.68
-40.02
-21.52
-1.84
16.41
31.36
42.25
49.22
52.92
53.93
52.53
48.81
42.88
35.24
26.84
18.87
12.41
7.96
5.35
3.78
2.31
0.25
-2.57
-5.87
-9.18
-12.17
-14.83
-17.41
-20.33
-23.95
-28.56
-34.40
-41.62
-50.13
-59.23
-67.50
-72.86
-73.12
-66.72
-53.48
-34.74
-13.10
8.43
27.33
42.11
52.45
58.83
61.99
62.48
60.57
56.38
50.18
42.61
34.61
27.18
21.08
16.63
13.60
11.50
9.71
7.75
5.35
2.46
-0.85
-4.43
-8.15
-11.91
-15.69
-19.58
-23.77
-28.57
-34.31
-41.22
-49.24
-57.73
-65.38
-70.30
-70.50
-64.50
-52.01
-34.16
-13.26
7.86
26.64
41.45
51.72
57.75
60.28
60.09
57.85
54.04
49.12
43.55
37.76
32.22
27.26
23.14
19.94
17.62
16.02
14.86
13.79
12.37
10.26
7.17
3.07
-1.84
-7.15
-12.37
-17.10
-21.20
-24.87
-28.62
-33.10
-38.85
-45.98
-53.90
-61.16
-65.72
-65.45
-58.94
-46.10
-28.38
-8.41
10.94
27.32
39.49
47.32
51.40
52.43
50.98
47.47
42.35
36.32
30.19
24.75
20.42
17.25
14.95
13.17
11.68
10.42
9.44
8.67
7.87
6.61
4.46
1.20
-3.10
-8.03
-13.03
-17.63
-21.62
-25.12
-28.57
-32.58
-37.70
-44.15
-51.51
-58.62
-63.68
-64.69
-60.13
-49.54
-33.86
-15.23
3.62
20.18
32.76
40.77
44.54
44.90
42.82
39.13
34.47
29.37
24.26
19.55
15.54
12.48
10.46
9.38
8.99
8.92
8.77
8.21
7.02
5.09
2.44
-0.82
-4.49
-8.29
-11.93
-15.22
-18.16
-21.05
-24.40
-28.78
-34.56
-41.57
-48.96
-55.28
-58.69
-57.59
-51.07
-39.37
-23.84
-6.61
10.03
24.21
34.85
41.65
44.88
45.06
42.79
38.71
33.50
27.98
22.86
18.70
15.67
13.57
12.04
10.70
9.40
8.18
7.22
6.53
5.89
4.86
2.98
0.02
-3.92
-8.39
-12.85
-16.89
-20.40
-23.57
-26.82
-30.70
-35.65
-41.91
-49.23
-56.80
-63.10
-66.31
-64.68
-57.26
-44.36
-27.53
-9.20
8.10
22.45
32.93
39.56
43.02
44.08
43.34
41.14
37.74
33.51
29.01
24.87
21.58
19.29
17.71
16.42
15.05
13.52
12.05
10.95
10.31
9.83
8.93
6.97
3.58
-1.11
-6.58
-12.10
-17.03
-21.09
-24.39
-27.43
-30.96
-35.70
-42.11
-49.98
-58.22
-64.97
-68.05
-65.67
-57.18
-43.36
-26.22
-8.28
8.24
21.97
32.45
39.79
44.29
46.12
45.43
42.55
38.12
33.08
28.39
24.69
22.11
20.36
18.93
17.42
15.70
13.92
12.35
11.14
10.18
9.07
7.27
4.40
0.41
-4.38
-9.38
-13.95
-17.74
-20.74
-23.35
-26.20
-30.00
-35.29
-42.16
-50.05
-57.70
-63.31
-64.99
-61.36
-52.10
-38.09
-21.32
-4.18
11.19
23.36
31.89
37.02
39.42
39.76
38.53
36.07
32.62
28.52
24.22
20.23
17.03
14.88
13.76
13.39
13.40
13.41
13.20
12.62
11.59
9.99
7.78
4.96
1.67
-1.85
-5.30
-8.53
-11.62
-14.85
-18.66
-23.38
-29.09
-35.30
-40.99
-44.67
-44.82
-40.36
-31.15
-18.08
-2.91
12.30
25.68
36.02
42.87
46.35
46.95
45.29
42.01
37.77
33.15
28.66
24.70
21.49
19.13
17.63
16.93
16.90
17.37
18.08
18.72
18.99
18.62
17.40
15.29
12.39
8.86
4.89
0.54
-4.26
-9.72
-16.17
-23.89
-33.01
-43.30
-53.94
-63.48
-70.05
-71.82
-67.61
-57.43
-42.64
-25.63
-9.12
4.51
13.88
18.59
19.10
16.38
11.57
5.86
0.31
-4.22
-7.30
-8.98
-9.76
-10.31
-11.13
-12.31
-13.45
-13.95
-13.36
-11.76
-9.90
-8.93
-9.97
-13.56
-19.38
-26.37
-33.14
-38.55
-42.27
-45.01
-48.31
-53.94
-63.10
-75.74
-90.29
-103.98
-113.62
-116.76
-112.50
-101.88
-87.61
-73.29
-62.36
-56.90
-56.66
-58.70
-57.83
-48.36
-26.43
8.01
50.52
93.64
129.69
153.75
165.16
167.05
164.21
160.77
158.87
158.79
160.03
162.40
166.17
171.58
178.06
183.86
186.38
183.04
172.31
154.23
130.55
104.11
77.97
54.37
34.14
16.68
0.58
-15.45
-31.65
-46.93
-59.18
-66.26
-66.99
-61.76
-52.37
-41.32
-30.86
-22.15
-15.21
-9.27
-3.53
2.28
7.68
11.74
13.59
12.82
9.66
4.85
-0.76
-6.43
-11.74
-16.56
-20.88
-24.71
-27.94
-30.38
-31.82
-32.19
-31.66
-30.61
-29.57
-28.97
-29.06
-29.81
-30.95
-32.18
-33.39
-34.71
-36.48
-38.98
-42.19
-45.65
-48.53
-49.85
-48.88
-45.41
-39.79
-32.84
-25.53
-18.67
-12.69
-7.65
-3.38
0.29
3.30
5.46
6.51
6.37
5.34
4.01
3.11
3.17
4.40
6.45
8.68
10.37
11.08
10.80
9.94
9.11
8.72
8.77
8.77
8.07
6.14
2.85
-1.48
-6.33
-11.01
-14.63
-15.72
-12.45
-3.16
12.48
32.63
53.36
69.77
77.87
75.95
64.94
47.36
25.76
1.78
-23.85
-50.31
-75.82
-97.60
-112.81
-119.89
-119.33
-113.43
-105.03
-96.24
-87.70
-78.84
-68.68
-56.89
-44.20
-32.23
-22.75
-16.88
-14.67
-15.17
-16.89
-18.41
-18.92
-18.30
-17.03
-15.80
-15.27
-15.92
-17.95
-21.20
-25.07
-28.39
-29.55
-26.91
-19.50
-7.59
7.12
21.87
33.85
41.08
42.96
40.17
34.04
25.88
16.57
6.67
-3.31
-12.65
-20.47
-26.19
-29.80
-31.97
-33.75
-36.01
-38.96
-42.08
-44.41
-45.05
-43.67
-40.74
-37.38
-34.90
-34.25
-35.76
-39.02
-43.13
-47.07
-50.06
-51.76
-52.30
-52.20
-52.20
-53.05
-55.27
-58.95
-63.57
-67.95
-70.42
-69.26
-63.27
-52.22
-36.90
-18.70
1.23
22.58
46.08
72.93
103.91
138.53
174.83
209.74
239.91
262.52
275.77
279.00
272.66
258.15
237.72
214.10
190.05
167.72
148.18
131.44
116.77
103.36
90.66
78.47
66.70
55.19
43.60
31.52
18.71
5.17
-9.07
-24.09
-40.29
-58.27
-78.55
-101.17
-125.58
-150.69
-175.17
-197.88
-217.95
-234.77
-247.74
-255.95
-258.20
-253.13
-239.70
-217.64
-187.90
-152.65
-115.01
-78.37
-45.83
-19.69
-1.25
9.18
12.22
9.19
1.96
-7.32
-16.59
-24.12
-28.82
-30.31
-29.03
-26.03
-22.77
-20.54
-19.98
-20.70
-21.35
-20.22
-16.04
-8.69
0.61
9.76
16.60
19.76
19.14
15.87
11.79
8.85
8.51
11.45
17.50
25.81
35.30
44.92
53.93
61.84
68.25
72.75
74.93
74.57
72.05
68.37
65.12
64.03
66.39
72.69
82.43
94.48
107.55
120.72
133.59
146.19
158.71
171.13
183.24
194.66
205.09
214.18
221.39
225.56
224.88
217.15
200.38
173.44
136.39
90.38
37.35
-20.08
-78.64
-134.35
-182.68
-219.06
-239.73
-242.71
-228.36
-199.41
-160.42
-116.90
-74.30
-37.12
-8.36
10.84
20.93
23.62
21.20
16.03
10.15
5.06
1.72
0.44
0.98
2.64
4.53
5.95
6.57
6.61
6.74
7.72
10.09
13.85
18.31
22.18
23.98
22.50
17.28
8.88
-1.33
-11.57
-20.16
-26.06
-28.96
-29.14
-27.21
-23.78
-19.29
-14.04
-8.29
-2.35
3.40
8.61
12.99
16.43
18.96
20.74
21.98
22.94
23.83
24.88
26.31
28.29
30.97
34.44
38.72
43.72
49.23
55.01
60.66
65.73
69.76
72.34
73.24
72.42
70.04
66.23
61.07
54.50
46.47
37.17
27.27
17.85
10.19
5.38
3.93
5.74
10.14
16.18
22.86
29.11
33.78
35.66
33.74
27.53
17.37
4.38
-9.80
-23.55
-35.81
-46.22
-55.00
-62.58
-69.21
-74.77
-78.82
-80.89
-80.74
-78.53
-74.79
-70.21
-65.43
-60.86
-56.69
-53.00
-49.94
-47.83
-46.99
-47.65
-49.72
-52.82
-56.36
-59.77
-62.65
-64.85
-66.34
-67.11
-66.98
-65.67
-62.83
-58.27
-52.03
-44.49
-36.30
-28.20
-20.79
-14.43
-9.18
-4.91
-1.42
1.39
3.57
5.07
5.90
6.17
6.05
5.75
5.44
5.16
4.85
4.42
3.81
3.03
2.12
1.15
0.16
-0.86
-1.99
-3.33
-4.96
-6.98
-9.39
-12.19
-15.36
-18.82
-22.47
-26.11
-29.30
-31.44
-31.82
-29.88
-25.37
-18.63
-10.43
-1.80
6.34
13.36
19.03
23.37
26.46
28.31
28.96
28.48
27.19
25.53
23.97
22.84
22.22
22.00
21.92
21.74
21.25
20.27
18.66
16.42
13.67
10.70
7.88
5.52
3.73
2.38
1.18
-0.23
-2.14
-4.69
-7.88
-11.48
-15.02
-17.82
-19.11
-18.23
-14.98
-9.68
-3.15
3.54
9.44
13.92
16.80
18.24
18.54
18.00
16.86
15.26
13.32
11.19
9.04
7.07
5.45
4.34
3.76
3.65
3.85
4.05
3.93
3.21
1.78
-0.25
-2.62
-4.97
-7.04
-8.70
-9.99
-11.06
-12.13
-13.47
-15.35
-18.05
-21.71
-26.19
-31.00
-35.24
-37.82
-37.76
-34.54
-28.36
-20.04
-10.77
-1.69
6.44
13.32
19.02
23.69
27.35
29.90
31.19
31.24
30.28
28.69
26.87
25.08
23.38
21.70
19.99
18.28
16.68
15.33
14.28
13.45
12.59
11.39
9.57
7.05
3.91
0.40
-3.15
-6.49
-9.52
-12.32
-15.12
-18.20
-21.82
-26.05
-30.68
-35.12
-38.52
-39.95
-38.71
-34.63
-28.15
-20.16
-11.70
-3.61
3.67
10.05
15.55
20.12
23.54
25.58
26.12
25.36
23.76
21.91
20.24
18.94
17.97
17.13
16.27
15.35
14.44
13.69
13.18
12.84
12.46
11.67
10.18
7.79
4.55
0.76
-3.19
-6.93
-10.24
-13.15
-15.81
-18.45
-21.28
-24.47
-28.14
-32.34
-36.86
-41.12
-44.23
-45.14
-43.05
-37.67
-29.40
-19.19
-8.18
2.61
12.49
21.09
28.18
33.53
36.91
38.17
37.44
35.16
32.02
28.79
26.00
23.88
22.34
21.06
19.73
18.15
16.35
14.53
12.90
11.58
10.51
9.44
8.02
5.96
3.14
-0.38
-4.33
-8.35
-12.06
-15.22
-17.77
-19.87
-21.84
-24.13
-27.12
-31.00
-35.55
-40.14
-43.76
-45.29
-43.86
-39.08
-31.19
-20.99
-9.57
1.93
12.55
21.67
28.98
34.41
38.05
40.04
40.58
39.83
38.07
35.65
33.03
30.72
29.17
28.60
28.97
30.00
31.34
32.62
33.58
34.02
33.79
32.70
30.65
27.55
23.51
18.78
13.70
8.69
4.07
0.13
-3.03
-5.47
-7.41
-9.24
-11.35
-14.05
-17.46
-21.34
-25.20
-28.26
-29.78
-29.17
-26.27
-21.41
-15.32
-8.98
-3.27
1.16
4.09
5.63
6.12
5.99
5.58
5.09
4.56
3.88
2.87
1.34
-0.82
-3.63
-7.02
-10.82
-14.91
-19.14
-23.39
-27.51
-31.33
-34.68
-37.44
-39.61
-41.29
-42.55
-43.40
-43.65
-43.07
-41.47
-38.92
-35.88
-33.05
-31.27
-31.16
-32.91
-36.12
-39.82
-42.64
-43.13
-40.22
-33.48
-23.39
-11.17
1.62
13.51
23.59
31.59
37.70
42.24
45.37
47.01
46.98
45.22
42.05
38.03
33.95
30.39
27.65
25.66
24.14
22.74
21.27
19.71
18.12
16.55
14.86
12.77
9.95
6.16
1.38
-4.17
-10.01
-15.63
-20.61
-24.83
-28.44
-31.86
-35.67
-40.36
-46.15
-52.86
-59.79
-65.76
-69.32
-69.08
-64.10
-54.24
-40.28
-23.73
-6.47
9.77
23.76
34.94
43.26
48.92
52.16
53.14
52.07
49.36
45.64
41.71
38.29
35.76
34.07
32.87
31.78
30.61
29.47
28.63
28.24
28.14
27.78
26.46
23.59
19.00
12.95
6.12
-0.70
-6.90
-12.20
-16.69
-20.79
-25.02
-29.80
-35.37
-41.57
-47.89
-53.39
-56.94
-57.46
-54.21
-47.08
-36.71
-24.28
-11.23
1.14
11.94
20.74
27.48
32.29
35.33
36.71
36.54
35.01
32.37
29.01
25.37
21.87
18.83
16.39
14.55
13.22
12.25
11.52
10.84
10.01
8.72
6.67
3.65
-0.39
-5.26
-10.62
-16.08
-21.35
-26.32
-31.04
-35.78
-40.86
-46.59
-53.14
-60.44
-68.05
-75.17
-80.70
-83.46
-82.50
-77.25
-67.76
-54.62
-38.87
-21.76
-4.52
11.76
26.25
38.35
47.66
53.99
57.39
58.19
57.04
54.77
52.23
50.07
48.54
47.53
46.69
45.72
44.46
43.02
41.52
39.98
38.17
35.68
32.10
27.30
21.52
15.27
9.15
3.55
-1.48
-6.21
-11.12
-16.67
-23.17
-30.64
-38.79
-46.88
-53.80
-58.20
-58.81
-54.88
-46.47
-34.50
-20.55
-6.33
6.76
17.87
26.69
33.22
37.55
39.74
39.86
38.15
35.12
31.43
27.81
24.81
22.65
21.24
20.29
19.53
18.79
18.05
17.31
16.49
15.34
13.48
10.59
6.60
1.72
-3.59
-8.81
-13.58
-17.84
-21.84
-26.05
-31.02
-37.14
-44.44
-52.42
-59.99
-65.54
-67.37
-64.18
-55.61
-42.48
-26.47
-9.71
5.96
19.34
29.99
38.02
43.68
47.18
48.61
48.05
45.75
42.20
38.06
34.00
30.52
27.84
25.95
24.67
23.84
23.39
23.28
23.48
23.76
23.68
22.71
20.43
16.69
11.78
6.27
0.83
-4.03
-8.14
-11.73
-15.30
-19.45
-24.69
-31.19
-38.56
-45.83
-51.49
-53.93
-51.99
-45.46
-35.29
-23.32
-11.73
-2.23
4.36
8.20
10.08
10.96
11.52
12.15
12.97
14.02
15.35
16.99
18.87
20.81
22.62
24.13
25.24
25.99
26.37
26.36
25.84
24.62
22.51
19.33
15.05
9.79
3.87
-2.26
-8.07
-13.15
-17.30
-20.65
-23.60
-26.78
-30.81
-36.16
-43.00
-51.00
-59.24
-66.32
-70.55
-70.47
-65.33
-55.39
-41.87
-26.57
-11.32
2.61
14.55
24.43
32.34
38.33
42.33
44.29
44.37
43.03
40.90
38.60
36.50
34.73
33.19
31.67
30.05
28.30
26.53
24.86
23.36
21.89
20.13
17.62
13.97
9.08
3.19
