1541009181.00
64.000000
-0.00
-0.00
-0.00
-0.00
-0.00
-0.00
-0.00
-0.00
-0.00
-0.00
0.00
0.01
0.01
-0.00
-0.03
-0.05
-0.05
0.00
0.13
0.36
0.66
1.01
1.37
1.72
2.06
2.40
2.79
3.24
3.80
4.42
5.07
5.69
6.25
6.77
7.31
7.94
8.72
9.75
10.95
12.21
13.41
14.50
15.53
16.66
18.10
20.00
22.59
25.66
28.95
32.17
35.14
37.96
40.93
44.51
49.01
54.83
61.61
68.84
75.92
82.51
88.71
95.00
102.12
110.62
121.04
132.89
145.38
157.63
169.07
179.80
190.48
202.50
214.63
229.17
246.74
267.45
290.07
311.66
327.85
333.99
326.69
305.10
271.62
230.17
185.09
139.58
95.17
52.05
10.00
-30.75
-69.45
-104.78
-136.02
-162.90
-185.84
-205.34
-221.71
-234.96
-244.86
-251.42
-254.81
-255.90
-255.82
-255.86
-257.11
-260.28
-265.77
-273.11
-281.71
-290.83
-299.96
-308.80
-317.41
-326.03
-335.04
-344.81
-355.19
-365.53
-374.53
-380.58
-382.15
-378.32
-368.95
-354.00
-333.97
-309.15
-279.39
-243.96
-202.19
-153.98
-100.47
-44.15
11.32
59.99
96.48
116.18
115.89
94.79
55.38
3.90
-50.43
-98.02
-130.36
-144.16
-141.77
-129.31
-113.61
-99.44
-89.44
-83.23
-79.51
-77.54
-77.30
-78.80
-81.26
-82.83
-81.73
-77.15
-69.54
-60.46
-51.77
-44.61
-38.67
-32.45
-23.99
-11.92
3.92
22.48
41.86
60.16
76.23
90.26
103.84
119.67
140.63
168.77
204.11
243.91
282.97
314.94
334.41
338.75
329.18
310.19
288.05
268.78
256.46
252.95
258.22
271.15
290.13
313.21
338.00
361.60
380.84
392.81
395.49
388.09
371.21
346.34
315.32
279.89
241.33
200.58
158.42
115.81
73.95
34.30
-1.79
-33.32
-59.87
-81.61
-99.16
-113.29
-124.63
-133.53
-140.11
-144.34
-146.23
-145.98
-143.93
-140.59
-136.43
-131.82
-126.97
-121.93
-116.65
-111.10
-105.29
-99.30
-93.24
-87.26
-81.47
-75.92
-70.63
-65.59
-60.78
-56.20
-51.83
-47.68
-43.74
-40.02
-36.52
-33.23
-30.14
-27.25
-24.56
-22.07
-19.77
-17.66
-15.71
-13.93
-12.32
-10.88
-9.60
-8.48
-7.49
-6.62
-5.87
-5.20
-4.63
-4.12
-3.68
-3.28
-2.92
-2.59
-2.28
-2.00
-1.73
-1.48
-1.26
-1.04
-0.84
-0.65
-0.48
-0.31
-0.14
0.02
0.18
0.34
0.50
0.67
0.85
1.04
1.24
1.45
1.68
1.94
2.21
2.52
2.87
3.25
3.68
4.15
4.67
5.25
5.87
6.56
7.31
8.12
9.00
9.94
10.95
12.04
13.19
14.42
15.71
17.07
18.49
19.95
21.45
23.01
24.63
26.33
28.11
29.98
31.88
33.72
35.34
36.57
37.18
36.94
35.68
33.18
29.32
23.93
16.90
8.28
-1.72
-12.70
-24.09
-35.20
-45.38
-54.01
-60.71
-65.34
-67.92
-68.66
-67.80
-65.58
-62.13
-57.61
-52.13
-45.89
-39.35
-32.74
-26.17
-19.60
-12.75
-5.26
3.11
12.38
22.05
30.96
38.11
42.74
44.63
44.24
42.49
40.32
38.30
36.03
32.03
24.92
13.67
-1.91
-20.96
-41.82
-62.83
-82.64
-99.04
-113.17
-126.25
-139.27
-152.98
-167.86
-183.98
-200.18
-213.23
-218.74
-212.43
-191.77
-158.21
-117.29
-76.60
-42.65
-18.66
-2.21
10.63
23.44
38.26
54.87
71.81
87.79
102.54
114.98
126.09
135.78
142.94
146.40
145.24
139.69
131.02
121.15
111.88
104.60
99.25
95.00
90.78
85.76
79.70
72.99
66.31
60.36
55.80
52.45
49.99
48.01
46.19
44.38
42.53
40.68
38.78
37.05
35.46
34.34
33.98
34.51
35.73
37.06
37.70
36.83
34.83
31.43
27.46
24.02
21.91
21.24
21.37
21.20
19.81
16.97
13.28
10.07
8.73
10.29
15.44
24.50
37.24
52.16
66.30
75.29
74.92
62.97
40.83
13.42
-12.62
-31.68
-41.58
-43.62
-41.48
-38.93
-38.28
-39.97
-43.56
-48.58
-53.95
-60.25
-67.17
-73.51
-77.69
-78.70
-76.52
-72.49
-68.38
-65.63
-64.75
-64.84
-64.37
-62.23
-58.15
-52.87
-47.92
-44.65
-43.70
-45.36
-49.21
-54.11
-57.85
-57.24
-49.26
-33.18
-11.78
8.93
22.11
23.53
13.84
-1.72
-16.69
-25.55
-27.01
-23.48
-18.74
-15.24
-12.97
-10.33
-6.18
-1.31
1.78
0.15
-7.56
-20.46
-35.56
-49.26
-59.01
-64.30
-66.70
-68.89
-73.56
-82.40
-95.76
-112.47
-129.85
-143.83
-149.58
-143.04
-122.59
-90.50
-52.66
-16.74
10.63
26.05
30.07
26.25
18.46
9.23
-0.83
-12.01
-24.20
-36.17
-45.93
-51.98
-53.83
-52.77
-51.05
-50.96
-53.56
-58.31
-63.46
-66.96
-67.56
-64.85
-59.93
-54.65
-50.56
-47.86
-45.02
-38.96
-25.86
-6.30
19.27
49.10
80.89
112.57
143.18
173.09
203.40
235.19
269.00
305.52
345.06
387.71
432.43
476.02
512.92
536.12
539.22
518.81
476.42
417.64
350.64
283.50
221.86
168.53
123.57
84.95
49.21
12.18
-30.97
-84.32
-150.12
-227.67
-311.77
-393.42
-461.86
-508.09
-527.63
-522.31
-498.36
-463.70
-425.36
-386.43
-346.25
-302.05
-251.50
-194.35
-137.63
-91.73
-64.47
-62.36
-85.81
-127.71
-174.73
-211.82
-227.82
-219.22
-189.72
-147.23
-99.70
-51.06
-1.25
51.03
105.02
156.37
198.37
225.69
237.16
236.20
230.19
227.02
231.82
244.87
261.35
273.40
273.53
257.34
224.89
180.64
131.36
83.46
40.92
4.63
-26.92
-56.14
-85.05
-114.73
-145.08
-174.90
-201.94
-223.04
-234.44
-232.53
-214.80
-180.94
-133.55
-77.95
-21.38
28.49
65.36
85.66
89.49
80.21
63.16
43.96
26.92
14.32
6.46
2.56
1.75
3.73
8.92
18.13
31.93
50.01
70.89
92.16
111.14
125.74
134.95
139.00
138.82
135.56
130.11
123.09
114.95
106.18
97.31
88.90
81.50
75.68
72.02
71.08
73.33
79.04
88.17
100.40
115.15
131.65
148.95
165.96
181.63
195.16
206.20
214.85
221.60
227.07
231.95
237.09
243.63
253.04
266.74
285.33
307.79
331.30
351.74
365.18
369.16
363.15
347.86
324.03
291.87
251.55
204.43
153.92
104.98
61.97
26.53
-3.45
-32.89
-66.91
-108.30
-156.77
-210.00
-265.21
-320.00
-371.94
-417.59
-452.52
-472.74
-477.00
-468.15
-452.33
-436.14
-423.86
-415.98
-409.83
-401.99
-390.63
-376.66
-362.74
-351.12
-341.77
-331.99
-317.97
-297.26
-270.59
-241.82
-216.20
-197.64
-186.57
-179.83
-172.24
-158.97
-137.75
-109.83
-79.34
-51.54
-30.82
-19.37
-16.33
-17.92
-18.45
-12.46
2.96
26.80
54.60
80.85
101.75
116.94
128.91
140.67
153.31
165.06
172.39
172.48
165.38
154.36
143.94
136.93
132.28
125.13
109.39
81.13
40.94
-5.93
-51.73
-89.28
-114.46
-126.86
-128.65
-122.47
-109.80
-90.52
-63.90
-30.05
9.13
50.10
88.72
121.75
147.78
167.33
182.14
194.08
204.10
211.89
216.04
214.82
207.04
192.89
174.21
154.30
136.86
124.69
118.56
116.75
115.80
112.23
104.19
92.31
79.10
67.20
57.50
48.40
36.47
18.34
-7.54
-40.10
-76.51
-113.78
-150.18
-185.43
-219.62
-251.72
-278.80
-296.64
-301.59
-292.45
-271.18
-242.10
-209.70
-176.55
-142.26
-104.09
-58.63
-3.63
61.14
133.89
211.53
290.24
365.79
433.63
489.28
529.08
551.16
556.14
547.00
528.24
504.64
480.15
457.39
437.52
420.66
406.14
392.90
379.70
365.45
349.43
331.39
311.41
289.69
266.35
241.27
214.18
184.80
153.10
119.49
84.72
49.78
15.51
-17.70
-49.96
-81.72
-113.50
-145.43
-177.12
-207.71
-236.28
-262.35
-286.29
-309.25
-332.80
-358.32
-386.33
-416.31
-447.11
-477.35
-506.25
-534.00
-561.59
-590.63
-623.06
-660.89
-705.67
-757.43
-813.43
-867.63
-911.36
-935.81
-935.00
-908.12
-859.70
-797.65
-730.05
-662.58
-597.56
-534.93
-473.97
-414.67
-357.79
-304.02
-253.09
-203.65
-153.92
-102.87
-50.79
0.71
49.38
93.52
132.75
168.18
201.96
236.35
272.82
311.60
351.75
391.80
430.54
467.77
504.45
542.48
584.03
630.72
682.78
738.43
793.85
843.62
881.65
902.61
903.22
883.10
844.67
792.30
730.87
664.47
595.70
525.65
454.62
382.94
311.39
241.26
173.90
110.13
49.90
-7.64
-63.69
-119.20
-174.38
-228.56
-280.63
-329.49
-374.73
-416.81
-456.93
-496.58
-537.26
-580.47
-627.62
-679.54
-735.39
-791.64
-841.79
-877.69
-892.01
-881.01
-846.07
-793.07
-730.05
-664.29
-600.39
-539.93
-482.54
-427.24
-373.31
-320.26
-267.42
-213.85
-158.68
-101.78
-44.04
12.94
67.60
119.15
168.00
215.43
262.85
310.98
359.62
407.61
453.55
496.48
536.27
573.44
609.59
647.28
689.21
736.76
788.15
837.79
876.81
895.93
888.51
853.57
796.20
725.55
651.24
580.20
515.60
457.53
405.21
357.60
314.60
276.40
242.57
211.44
180.58
148.33
114.19
79.54
44.49
9.41
-25.16
-58.73
-91.39
-123.97
-156.64
-189.79
-222.34
-257.44
-297.22
-341.59
-387.90
-432.81
-474.56
-512.29
-549.27
-588.30
-637.49
-698.96
-765.71
-823.35
-857.89
-863.98
-845.40
-818.04
-798.26
-806.10
-849.68
-922.13
-1005.82
-1082.09
-1139.91
-1174.71
-1193.02
-1135.37
-967.10
-694.50
-368.85
-54.45
207.55
388.34
517.59
621.70
716.57
797.52
854.83
882.07
877.92
843.18
783.67
715.56
652.85
604.69
565.61
520.92
462.40
391.47
320.14
260.37
221.83
204.68
205.30
210.89
206.82
184.26
144.15
95.19
47.89
11.35
-12.81
-27.65
-36.83
-41.49
-39.27
-27.58
-6.56
19.10
42.42
55.05
48.53
20.28
-24.95
-76.34
-122.04
-154.40
-173.41
-185.63
-200.52
-224.44
-255.96
-286.59
-304.65
-301.29
-274.80
-231.01
-180.02
-131.24
-89.61
-54.53
-22.68
8.78
39.69
67.23
87.96
100.24
105.77
108.74
114.01
124.73
141.32
161.63
182.66
201.99
218.69
233.26
246.70
259.76
272.20
282.70
289.38
290.50
285.15
273.77
258.17
240.98
224.83
211.18
199.95
189.72
178.74
165.74
150.35
132.99
114.28
95.00
76.14
59.21
46.10
38.60
37.54
42.18
50.26
58.47
63.43
62.63
55.06
41.48
24.03
5.61
-11.01
-23.81
-31.94
-35.75
-36.73
-37.13
-39.46
-45.98
-57.81
-74.31
-93.02
-110.35
-122.89
-128.89
-128.96
-125.77
-122.61
-121.83
-123.77
-126.85
-128.50
-126.43
-119.52
-108.15
-93.66
-77.70
-61.56
-45.92
-31.10
-17.34
-4.94
5.63
14.09
20.53
25.51
29.93
34.62
39.99
45.79
51.17
55.02
56.42
55.19
51.95
48.07
45.08
44.13
45.44
48.32
51.38
53.15
52.71
49.99
45.76
41.25
37.59
35.48
35.02
35.87
37.53
39.62
41.95
44.42
46.98
49.51
51.92
54.20
56.43
58.74
61.13
63.37
64.96
65.26
63.86
60.92
57.30
54.38
53.47
55.26
59.57
65.78
73.47
82.81
93.98
106.22
116.74
120.70
112.58
88.09
45.61
-13.59
-86.33
-168.46
-255.20
-340.61
-417.26
-477.11
-513.54
-523.86
-510.42
-479.67
-439.50
-396.27
-353.16
-310.32
-266.52
-220.63
-172.60
-123.13
-72.85
-21.34
32.98
92.02
156.30
223.23
286.24
335.91
362.78
360.79
329.39
273.24
199.77
116.35
28.85
-57.81
-138.17
-205.57
-253.40
-277.80
-280.02
-266.61
-247.01
-229.88
-220.06
-217.77
-220.02
-222.94
-223.79
-221.59
-216.59
-209.42
-200.51
-190.13
-178.68
-166.91
-156.10
-147.82
-143.50
-144.05
-149.67
-159.85
-173.61
-189.81
-207.40
-225.45
-243.14
-259.60
-273.83
-284.78
-291.53
-293.50
-290.58
-283.16
-271.99
-257.95
-241.93
-224.68
-206.83
-188.93
-171.43
-154.56
-138.32
-122.37
-106.07
-88.61
-68.67
-45.36
-18.56
11.16
43.09
76.84
112.38
150.26
190.85
234.53
280.77
328.09
374.38
417.63
456.65
491.05
521.62
549.82
578.94
611.72
648.94
688.48
725.48
753.74
766.95
761.53
737.09
700.57
660.20
622.28
589.50
561.89
538.82
518.82
502.29
488.72
484.68
493.67
513.92
538.81
560.97
576.37
582.53
582.77
580.10
589.34
620.61
674.52
741.65
808.27
863.73
899.85
919.91
930.15
954.00
1008.27
1094.66
1198.19
1296.25
1370.54
1408.90
1416.95
1298.99
1010.24
573.07
74.18
-389.31
-759.81
-997.16
-1143.67
-1235.39
-1296.30
-1324.64
-1318.28
-1285.76
-1241.99
-1201.70
-1168.34
-1139.40
-1105.00
-1064.11
-1011.96
-949.95
-883.46
-819.38
-761.67
-715.40
-681.65
-655.53
-634.31
-608.52
-570.74
-517.90
-453.48
-375.05
-289.00
-204.97
-128.82
-64.76
-10.29
36.48
80.11
121.34
157.93
185.48
200.67
203.20
193.63
176.47
156.02
135.90
117.48
100.76
83.82
65.33
44.87
22.42
-1.59
-26.65
-51.72
-76.16
-99.44
-121.97
-143.78
-164.93
-185.55
-205.92
-227.01
-250.14
-276.89
-307.74
-341.23
-372.83
-395.85
-403.70
-392.55
-363.29
-321.39
-275.03
-232.02
-197.30
-171.76
-153.10
-137.79
-122.97
-107.60
-92.18
-78.02
-66.27
-57.50
-51.43
-47.19
-43.42
-38.66
-31.88
-22.76
-12.36
-3.97
-3.14
-16.29
-47.83
-97.10
-156.87
-214.84
-257.15
-273.37
-260.32
-223.12
-172.17
-118.31
-68.76
-25.39
13.91
53.70
98.60
150.87
208.90
267.23
317.78
351.87
362.40
345.39
302.65
241.51
173.04
108.85
58.38
27.23
16.23
25.23
47.27
70.99
86.12
88.92
81.58
68.23
51.94
33.89
14.81
-4.70
-21.76
-32.77
-35.34
-30.03
-20.64
-11.52
-5.82
-4.30
-5.38
-4.32
3.85
22.41
51.47
88.53
130.09
172.93
214.67
245.68
258.57
248.61
216.55
168.70
114.98
65.51
27.06
1.28
-14.81
-24.84
-31.19
-32.73
-25.50
-5.33
29.18
74.26
121.56
162.68
191.31
204.52
204.04
193.69
176.36
152.35
119.04
74.14
19.18
-38.55
-89.23
-123.68
-138.43
-137.95
-132.23
-133.73
-151.29
-187.49
-230.39
-268.64
-293.36
-302.24
-299.77
-292.84
-288.12
-288.20
-292.09
-296.91
-300.39
-299.93
-292.51
-280.08
-258.61
-226.65
-185.30
-138.39
-90.95
-48.07
-12.95
13.27
30.85
41.48
46.12
48.00
51.74
60.38
75.89
98.16
124.72
151.65
175.87
194.86
210.59
227.33
249.78
281.15
322.42
373.01
431.74
497.21
551.29
575.81
556.63
490.55
387.48
265.83
145.84
43.82
-31.33
-79.71
-105.99
-117.30
-120.13
-118.65
-114.89
-109.38
-102.45
-94.66
-87.42
-80.67
-73.80
-66.59
-59.75
-55.26
-54.65
-58.45
-64.64
-69.01
-65.64
-49.54
-19.51
20.16
60.12
88.30
95.29
78.46
43.89
2.17
-33.05
-49.68
-41.13
-7.76
44.51
107.01
171.93
234.10
290.69
339.74
377.44
398.15
396.95
372.74
328.86
272.91
213.29
154.98
100.44
49.39
-0.87
-52.46
-104.94
-157.10
-206.16
-249.54
-286.24
-316.72
-341.89
-363.17
-380.67
-392.90
-400.81
-405.25
-407.16
-408.16
-411.00
-418.75
-435.75
-463.94
-500.39
-540.64
-575.23
-592.43
-583.05
-544.79
-482.31
-407.56
-333.33
-246.29
-144.78
-36.39
66.21
152.82
212.65
254.12
285.83
313.18
338.18
356.41
360.93
347.36
316.18
272.95
227.78
190.68
165.30
149.89
139.02
126.75
109.44
86.23
58.15
27.79
-3.82
-35.98
-67.35
-98.10
-128.38
-157.75
-186.29
-215.30
-246.74
-283.23
-325.13
-368.29
-405.45
-427.91
-428.57
-405.17
-361.44
-305.22
-245.89
-190.68
-142.74
-101.99
-66.93
-35.90
-7.88
17.81
42.18
66.47
91.86
119.02
147.60
176.32
203.59
228.33
250.66
271.98
294.53
320.51
350.82
384.10
416.61
443.05
458.44
459.90
447.66
424.66
395.21
363.04
330.31
297.40
264.01
230.24
197.21
166.82
140.90
120.45
105.24
94.02
85.00
76.27
66.17
53.44
37.48
18.47
-2.45
-23.49
-42.78
-59.09
-72.39
-83.83
-95.12
-107.75
-122.34
-138.48
-155.19
-171.59
-187.23
-202.28
-217.10
-232.04
-247.05
-261.84
-275.87
-288.45
-298.73
-305.93
-309.78
-310.71
-309.98
-309.10
-309.13
-309.96
-310.07
-307.06
-298.47
-282.61
-258.97
-228.18
-191.56
-150.81
-107.73
-64.18
-21.92
17.59
53.41
85.44
114.22
140.77
166.19
191.50
217.74
246.13
277.84
313.70
353.36
394.60
433.12
463.04
478.58
475.92
455.03
420.24
379.27
341.02
313.17
300.40
304.20
323.20
353.99
391.42
428.71
458.22
473.44
471.53
455.01
430.90
407.14
387.93
370.91
347.99
309.68
250.18
170.48
77.70
-18.93
-112.30
-199.92
-283.63
-367.21
-453.62
-542.92
-631.70
-713.66
-781.21
-827.64
-849.12
-846.02
-822.80
-786.16
-742.63
-696.71
-650.28
-603.67
-557.14
-511.87
-469.65
-431.70
-397.55
-364.84
-330.32
-291.36
-247.11
-198.77
-149.09
-101.11
-56.85
-16.79
20.16
55.85
92.00
129.50
168.34
208.16
248.86
290.58
333.08
374.68
411.91
440.05
454.86
454.38
439.92
415.63
386.78
357.81
331.28
307.88
287.44
269.79
255.01
242.98
232.78
222.64
210.40
194.51
174.80
152.40
129.33
107.54
88.23
71.65
57.40
44.97
34.21
25.38
18.94
15.14
13.71
13.79
14.24
14.06
12.70
10.20
7.08
4.02
1.55
-0.10
-1.06
-1.64
-2.11
-2.58
-2.95
-2.99
-2.58
-1.77
-0.81
-0.08
0.17
-0.12
-0.80
-1.60
-2.36
-3.04
-3.70
-4.41
-5.12
-5.66
-5.89
-5.76
-5.45
-5.23
-5.35
-5.92
-6.75
-7.57
-8.08
-8.17
-7.97
-7.80
-8.00
-8.77
-10.08
-11.68
-13.27
-14.62
-15.69
-16.63
-17.69
-19.13
-21.12
-23.69
-26.68
-29.80
-32.60
-34.50
-34.90
-33.40
-29.89
-24.71
-18.60
-12.46
-7.09
-2.94
-0.02
1.99
3.50
4.87
6.17
7.39
8.46
9.40
10.31
11.32
12.46
13.63
14.67
15.46
15.96
16.25
16.47
16.74
17.05
17.33
17.50
17.45
17.14
16.50
15.47
14.01
12.17
10.12
8.10
6.39
5.10
4.21
3.58
3.05
2.52
2.00
1.55
1.16
0.77
0.21
-0.66
-1.93
-3.54
-5.37
-7.25
-9.04
-10.71
-12.29
-13.85
-15.45
-17.08
-18.71
-20.34
-22.04
-23.94
-26.18
-28.78
-31.49
-33.80
-35.02
-34.51
-31.96
-27.57
-21.93
-15.95
-10.50
-6.15
-3.11
-1.23
-0.15
0.60
1.37
2.45
3.95
5.84
7.95
10.02
11.80
13.13
14.04
14.69
15.26
15.87
16.54
17.21
17.77
18.18
18.38
18.35
18.03
17.40
16.47
15.38
14.32
13.43
12.80
12.35
11.93
11.41
10.76
10.05
9.39
8.89
8.54
8.24
7.87
7.29
6.44
5.31
3.97
2.55
1.21
0.06
-0.81
-1.49
-2.14
-2.98
-4.22
-5.89
-7.91
-10.03
-11.99
-13.57
-14.67
-15.37
-15.90
-16.59
-17.77
-19.67
-22.23
-25.08
-27.55
-28.86
-28.37
-25.83
-21.48
-16.00
-10.30
-5.22
-1.26
1.47
3.25
4.48
5.57
6.70
7.89
9.01
9.94
10.66
11.20
11.64
12.06
12.48
12.83
13.07
13.12
13.02
12.85
12.72
12.68
12.69
12.62
12.32
11.74
10.92
10.05
9.31
8.80
8.48
8.18
7.76
7.09
6.24
5.31
4.44
3.74
3.21
2.81
2.41
1.90
1.19
0.32
-0.62
-1.52
-2.34
-3.13
-4.04
-5.22
-6.65
-8.19
-9.58
-10.63
-11.33
-11.86
-12.56
-13.77
-15.67
-18.25
-21.30
-24.42
-27.14
-28.88
-29.12
-27.53
-24.13
-19.30
-13.75
-8.33
-3.72
-0.28
1.99
3.39
4.29
4.99
5.63
6.18
6.47
6.36
5.81
5.00
4.37
4.45
5.64
8.08
11.47
15.22
18.62
21.10
22.40
22.56
21.81
20.40
18.48
16.12
13.37
10.41
7.55
5.14
3.45
2.52
2.14
1.94
1.52
0.70
-0.50
-1.86
-3.14
-4.25
-5.23
-6.28
-7.55
-9.10
-10.87
-12.68
-14.37
-15.87
-17.20
-18.39
-19.45
-20.35
-21.01
-21.40
-21.54
-21.61
-21.82
-22.40
-23.38
-24.54
-25.39
-25.31
-23.83
-20.76
-16.39
-11.36
-6.43
-2.24
0.92
3.12
4.68
5.90
7.01
7.98
8.72
9.16
9.33
9.40
9.56
9.95
10.54
11.21
11.81
12.27
12.63
12.99
13.43
13.90
14.26
14.34
14.03
13.34
12.40
11.41
10.54
9.88
9.40
9.03
8.64
8.17
7.58
6.94
6.30
5.71
5.17
4.62
4.01
3.34
2.63
1.99
1.50
1.20
1.02
0.84
0.47
-0.22
-1.28
-2.69
-4.33
-6.06
-7.74
-9.27
-10.58
-11.62
-12.43
-13.14
-13.99
-15.28
-17.19
-19.68
-22.36
-24.59
-25.66
-25.09
-22.81
-19.23
-15.08
-11.10
-7.85
-5.51
-3.92
-2.73
-1.56
-0.18
1.41
3.03
4.40
5.29
5.66
5.67
5.61
5.72
6.14
6.81
7.55
8.19
8.66
9.02
9.40
9.82
10.24
10.55
10.61
10.36
9.86
9.26
8.74
8.44
8.40
8.51
8.62
8.54
8.22
7.71
7.17
6.78
6.61
6.60
6.58
6.37
5.86
5.07
4.15
3.26
2.58
2.16
1.97
1.84
1.56
0.96
-0.07
-1.49
-3.12
-4.74
-6.16
-7.27
-8.10
-8.81
-9.65
-10.92
-12.84
-15.49
-18.61
-21.63
-23.79
-24.37
-23.02
-19.86
-15.50
-10.79
-6.53
-3.22
-0.99
0.36
1.20
1.93
2.81
3.88
5.00
5.90
6.36
6.34
5.98
5.59
5.46
5.72
6.30
7.02
7.67
8.18
8.59
8.95
9.30
9.54
9.55
9.24
8.67
8.01
7.45
7.14
7.05
7.08
7.07
6.94
6.67
6.31
5.91
5.49
5.04
4.54
3.99
3.39
2.76
2.06
1.27
0.32
-0.80
-2.10
-3.55
-5.09
-6.62
-8.00
-9.09
-9.88
-10.46
-11.07
-12.02
-13.48
-15.41
-17.45
-19.06
-19.73
-19.13
-17.27
-14.43
-11.12
-7.84
-5.00
-2.78
-1.20
-0.15
0.54
1.00
1.34
1.61
1.81
1.96
2.06
2.15
2.26
2.40
2.55
2.70
2.82
2.91
2.99
3.06
3.14
3.21
3.23
3.21
3.11
2.91
2.59
2.12
1.49
0.76
0.06
-0.47
-0.68
-0.55
-0.15
0.32
0.69
0.79
0.59
0.17
-0.33
-0.80
-1.20
-1.59
-2.09
-2.86
-3.96
-5.36
-6.90
-8.35
-9.53
-10.34
-10.91
-11.46
-12.28
-13.64
-15.62
-18.13
-20.87
-23.45
-25.41
-26.35
-26.03
-24.43
-21.72
-18.28
-14.52
-10.83
-7.47
-4.55
-2.11
-0.09
1.55
2.88
3.98
4.96
5.91
6.89
7.93
9.01
10.11
11.18
12.16
12.94
13.34
13.26
12.69
11.77
10.74
9.82
9.14
8.64
8.15
7.54
6.78
5.96
5.24
4.73
4.44
4.25
4.01
3.60
3.02
2.35
1.69
1.08
0.53
-0.06
-0.75
-1.61
-2.61
-3.68
-4.74
-5.77
-6.80
-7.92
-9.20
-10.65
-12.15
-13.55
-14.73
-15.68
-16.56
-17.67
-19.32
-21.71
-24.73
-27.94
-30.61
-31.94
-31.34
-28.59
-24.00
-18.27
-12.29
-6.84
-2.40
0.96
3.41
5.31
6.91
8.33
9.54
10.40
10.80
10.71
10.23
9.62
9.11
8.94
9.18
9.76
10.51
11.21
11.64
11.70
11.40
10.88
10.27
9.70
9.20
8.74
8.30
7.89
7.58
7.46
7.58
7.86
8.14
8.22
7.97
7.38
6.58
5.75
5.03
4.46
3.99
3.49
2.87
2.04
0.99
-0.24
-1.55
-2.83
-3.99
-4.96
-5.81
-6.67
-7.73
-9.21
-11.22
-13.76
-16.63
-19.50
-21.88
-23.28
-23.29
-21.76
-18.82
-14.92
-10.66
-6.64
-3.26
-0.64
1.37
3.06
4.68
6.33
7.96
9.43
10.64
11.57
12.29
12.94
13.58
14.19
14.68
15.00
15.14
15.19
15.26
15.43
15.69
15.90
15.89
15.50
14.67
13.49
12.16
10.94
10.04
9.53
9.32
9.20
8.93
8.30
7.28
5.96
4.50
3.07
1.72
0.46
-0.80
-2.13
-3.56
-5.06
-6.56
-8.00
-9.37
-10.73
-12.15
-13.75
-15.59
-17.76
-20.25
-22.96
-25.68
-28.00
-29.43
-29.54
-28.11
-25.31
-21.63
-17.74
-14.23
-11.42
-9.27
-7.50
-5.77
-3.91
-1.95
-0.08
1.44
2.47
3.06
3.40
3.73
4.24
4.96
5.86
6.83
7.78
8.63
9.40
10.07
10.64
11.08
11.33
11.35
11.13
10.74
10.26
9.79
9.36
8.98
8.58
8.14
7.66
7.17
6.71
6.27
5.78
5.17
4.35
3.27
1.89
0.22
-1.70
-3.77
-5.85
-7.79
-9.50
-11.01
-12.47
-14.07
-15.94
-18.00
-20.07
-21.86
-23.24
-24.23
-25.07
-26.10
-27.62
-29.72
-32.30
-34.97
-37.17
-38.30
-37.85
-35.59
-31.68
-26.60
-21.08
-15.87
-11.48
-8.08
-5.54
-3.46
-1.42
0.87
3.48
6.30
9.04
11.44
13.36
14.81
15.99
17.12
18.39
19.88
21.57
23.36
25.16
26.89
28.51
29.95
31.15
32.06
32.63
32.89
32.88
32.67
32.25
31.52
30.34
28.53
26.02
22.85
19.23
15.43
11.70
8.25
5.16
2.47
0.12
-1.95
-3.78
-5.42
-6.86
-8.06
-8.95
-9.47
-9.64
-9.61
-9.58
-9.75
-10.23
-10.96
-11.84
-12.76
-13.70
-14.72
-15.92
-17.37
-19.10
-21.03
-23.11
-25.15
-26.87
-27.82
-27.52
-25.62
-22.11
-17.43
-12.30
-7.52
-3.61
-0.70
1.45
3.19
4.82
6.44
8.01
9.41
10.60
11.60
12.49
13.31
14.05
14.65
15.07
15.25
15.22
15.05
14.83
14.64
14.50
14.36
14.08
13.53
12.67
11.57
10.39
9.31
8.51
8.04
7.89
7.99
8.20
8.36
8.36
8.10
7.56
6.81
5.94
5.05
4.16
3.25
2.24
1.09
-0.21
-1.62
-3.07
-4.47
-5.78
-7.01
-8.24
-9.60
-11.25
-13.33
-15.87
-18.74
-21.61
-23.99
-25.35
-25.28
-23.61
-20.50
-16.37
-11.84
-7.52
-3.84
-1.01
0.98
2.35
3.32
4.08
4.71
5.19
5.46
5.48
5.25
4.89
4.50
4.22
4.13
4.26
4.61
5.11
5.69
6.24
6.69
6.95
6.99
6.80
6.39
5.80
5.07
4.33
3.66
3.16
2.84
2.64
2.39
1.96
1.27
0.36
-0.65
-1.59
-2.36
-2.96
-3.51
-4.18
-5.14
-6.42
-7.94
-9.49
-10.83
-11.83
-12.48
-12.97
-13.56
-14.51
-16.04
-18.19
-20.86
-23.76
-26.42
-28.28
-28.80
-27.67
-24.92
-20.96
-16.47
-12.15
-8.51
-5.71
-3.59
-1.83
-0.13
1.69
3.59
5.46
7.18
8.69
9.99
11.17
12.24
13.18
13.91
14.41
14.71
14.92
15.20
15.61
16.09
16.48
16.62
16.39
15.81
15.01
14.13
13.32
12.66
12.17
11.84
11.63
11.42
11.12
10.58
9.75
8.63
7.28
5.80
4.28
2.79
1.39
0.10
-1.06
-2.14
-3.22
-4.40
-5.78
-7.36
-9.10
-10.90
-12.67
-14.38
-16.06
-17.75
-19.49
-21.35
-23.39
-25.71
-28.33
-31.07
-33.49
-35.01
-35.00
-33.13
-29.48
-24.62
-19.38
-14.57
-10.71
-7.90
-5.94
-4.45
-3.11
-1.77
-0.44
0.81
1.94
2.98
4.01
5.10
6.27
7.41
8.38
9.09
9.58
10.04
10.69
11.66
12.90
14.17
15.13
15.48
15.15
14.27
13.13
12.02
11.12
10.43
9.82
9.14
8.33
7.45
6.64
6.01
5.57
5.21
4.71
3.89
2.68
1.13
-0.60
-2.34
-3.94
-5.31
-6.45
-7.45
-8.49
-9.80
-11.62
-14.01
-16.85
-19.78
-22.30
-23.93
-24.36
-23.45
-21.24
-17.96
-13.98
-9.78
-5.86
-2.62
-0.17
1.64
3.22
4.97
7.06
9.35
11.50
13.15
14.14
14.61
14.88
15.31
16.05
17.04
18.09
18.99
19.70
20.32
21.02
21.89
22.88
23.76
24.29
24.32
23.90
23.22
22.51
21.87
21.26
20.46
19.23
17.42
15.06
12.34
9.48
6.70
4.03
1.46
-1.10
-3.69
-6.25
-8.68
-10.89
-12.89
-14.78
-16.78
-19.05
-21.70
-24.71
-27.92
-31.05
-33.74
-35.58
-36.21
-35.36
-32.97
-29.25
-24.59
-19.57
-14.76
-10.58
-7.22
-4.59
-2.45
-0.53
1.30
3.01
4.47
5.57
6.33
6.91
7.50
8.24
9.15
10.10
10.98
11.75
12.42
13.04
13.61
14.04
14.22
14.06
13.53
12.73
11.75
10.75
9.85
9.15
8.64
8.22
7.68
6.79
5.45
3.75
1.96
0.44
-0.56
-1.06
-1.30
-1.63
-2.35
-3.58
-5.23
-7.13
-9.08
-10.96
-12.69
-14.27
-15.70
-17.06
-18.48
-20.19
-22.39
-25.19
-28.42
-31.64
-34.16
-35.32
-34.68
-32.16
-28.12
-23.19
-18.10
-13.44
-9.59
-6.55
-4.12
-1.93
0.34
2.81
5.38
7.80
9.81
11.31
12.36
13.19
14.01
14.94
15.91
16.80
17.47
17.90
18.11
18.16
18.11
17.92
17.55
16.89
15.96
14.78
13.53
12.39
11.53
10.95
10.54
10.06
9.24
7.98
6.34
4.57
2.95
1.70
0.82
0.14
-0.62
-1.66
-3.05
-4.73
-6.53
-8.26
-9.83
-11.20
-12.41
-13.54
-14.69
-16.01
-17.62
-19.59
-21.80
-23.89
-25.31
-25.44
-23.86
-20.47
-15.62
-9.99
-4.38
0.60
4.64
7.79
10.26
12.34
14.18
15.79
17.15
18.25
19.22
20.25
21.48
22.98
24.68
26.46
28.20
29.86
31.47
33.12
34.85
36.70
38.60
40.44
42.03
43.10
43.40
42.73
41.07
38.57
35.56
32.39
29.27
26.16
22.91
19.32
15.39
11.32
7.46
4.09
1.28
-1.14
-3.49
-6.02
-8.76
-11.57
-14.29
-16.91
-19.60
-22.69
-26.42
-30.81
-35.58
-40.17
-43.95
-46.36
-47.05
-45.94
-43.25
-39.43
-35.05
-30.71
-26.88
-23.81
-21.48
-19.70
-18.19
-16.75
-15.27
-13.78
-12.35
-10.99
-9.64
-8.15
-6.44
-4.49
-2.47
-0.58
0.98
2.14
2.98
3.70
4.44
5.23
5.99
6.54
6.77
6.64
6.31
5.93
5.68
5.60
5.64
5.69
5.62
5.36
4.89
4.27
3.55
2.82
2.10
1.39
0.63
-0.29
-1.45
-2.89
-4.56
-6.35
-8.15
-9.86
-11.43
-12.89
-14.32
-15.87
-17.72
-20.06
-22.94
-26.17
-29.34
-31.83
-33.02
-32.47
-30.12
-26.26
-21.46
-16.37
-11.56
-7.40
-4.01
-1.28
0.97
2.99
4.94
6.86
8.67
10.23
11.43
12.30
12.95
13.57
14.29
15.12
15.97
16.72
17.28
17.67
17.98
18.35
18.78
19.22
19.54
19.65
19.53
19.20
18.75
18.23
17.69
17.11
16.48
15.73
14.81
13.67
12.25
10.57
8.71
6.86
5.20
3.89
2.93
2.17
1.35
0.20
-1.48
-3.68
-6.22
-8.87
-11.40
-13.72
-15.91
-18.07
-20.30
-22.62
-25.02
-27.48
-30.01
-32.53
-34.80
-36.37
-36.70
-35.33
-32.17
-27.56
-22.22
-16.93
-12.27
-8.48
-5.44
-2.84
-0.45
1.83
3.95
5.78
7.25
8.41
9.38
10.32
11.30
12.30
13.25
14.04
14.62
15.03
15.35
15.68
16.03
16.30
16.33
15.99
15.25
14.27
13.31
12.67
12.53
12.87
13.50
14.11
14.43
14.30
13.72
12.80
11.76
10.78
9.97
9.34
8.84
8.31
7.61
6.66
5.45
4.07
2.62
1.23
-0.04
-1.23
-2.41
-3.66
-5.08
-6.71
-8.64
-10.87
-13.35
-15.82
-17.87
-18.99
-18.73
-16.92
-13.72
-9.62
-5.26
-1.19
2.30
5.15
7.48
9.43
11.01
12.17
12.79
12.90
12.63
12.25
12.06
12.26
12.85
13.67
14.44
14.88
14.85
14.41
13.76
13.12
12.63
12.25
11.79
11.08
10.07
8.88
7.74
6.83
6.18
5.62
4.89
3.81
2.39
0.81
-0.64
-1.75
-2.48
-2.97
-3.43
-4.06
-4.97
-6.10
-7.37
-8.65
-9.86
-10.98
-11.98
-12.89
-13.76
-14.70
-15.85
-17.39
-19.45
-21.94
-24.57
-26.79
-28.00
-27.71
-25.73
-22.29
-17.99
-13.52
-9.49
-6.21
-3.69
-1.73
-0.12
1.19
2.14
2.61
2.54
2.11
1.58
1.28
1.43
2.06
3.04
4.22
5.45
6.69
7.94
9.22
10.55
11.87
13.11
14.18
14.97
15.45
15.64
15.65
15.64
15.80
16.25
16.99
17.88
18.72
19.33
19.65
19.76
19.83
20.03
20.37
20.75
20.98
20.90
20.53
20.02
19.65
19.59
19.85
20.24
20.51
20.48
20.22
19.94
19.87
19.98
19.89
19.04
16.92
13.44
9.03
4.53
0.94
-0.88
-0.46
2.30
7.13
13.54
20.95
28.73
36.30
43.17
48.96
53.40
56.36
57.90
58.31
58.12
57.98
58.46
59.89
62.31
65.54
69.54
74.56
81.13
89.75
100.52
112.74
124.87
135.02
141.66
144.37
144.29
143.93
146.51
154.94
170.84
193.90
221.69
250.11
274.31
289.85
293.84
285.67
267.12
241.61
212.88
183.68
155.05
126.50
96.97
65.97
34.27
3.72
-23.95
-48.08
-69.77
-91.76
-117.23
-148.75
-187.71
-234.64
-288.65
-347.11
-404.83
-454.66
-489.66
-506.62
-508.80
-505.89
-510.11
-530.00
-565.35
-606.30
-637.66
-646.03
-625.83
-581.14
-522.53
-461.64
-405.93
-356.89
-311.78
-267.07
-220.86
-173.17
-124.70
-75.69
-26.44
21.86
65.52
98.32
113.01
104.65
74.36
30.49
-13.67
-46.02
-58.98
-51.55
-28.33
3.37
36.99
68.71
97.29
122.10
139.83
147.81
146.29
139.29
132.52
130.24
132.54
135.01
129.88
106.87
60.65
-5.82
-81.85
-153.42
-208.18
-238.85
-244.52
-212.32
-142.80
-50.25
43.68
122.90
183.41
229.61
265.00
293.25
313.03
318.46
306.38
279.51
245.84
214.55
193.92
188.79
200.17
225.19
256.77
288.15
314.75
334.43
345.97
348.03
338.95
318.05
285.99
244.31
197.20
151.30
114.44
93.36
91.69
108.74
139.64
176.04
207.38
224.04
219.72
193.02
147.83
92.81
39.56
0.09
-16.85
-8.82
19.66
58.75
96.94
125.05
138.89
139.19
129.43
112.75
90.26
61.31
25.34
-16.10
-59.00
-98.10
-129.45
-152.58
-170.90
-190.30
-217.00
-255.34
-306.34
-366.99
-430.37
-486.48
-524.16
-534.22
-513.26
-466.14
-405.93
-350.59
-317.31
-316.76
-349.64
-406.94
-473.67
-534.33
-577.55
-598.44
-598.20
-581.78
-555.32
-524.17
-492.19
-461.88
-435.12
-413.09
-395.94
-382.41
-369.65
-353.98
-332.30
-303.26
-267.79
-228.46
-188.10
-148.60
-110.08
-71.07
-29.35
16.94
68.48
124.46
183.05
242.14
300.44
358.32
417.83
481.37
549.53
619.04
682.27
729.05
750.34
741.91
706.24
651.43
587.85
524.54
467.02
417.31
375.35
340.48
311.72
287.38
264.72
240.54
212.78
182.02
151.79
127.10
111.94
107.20
109.96
114.69
115.78
109.91
97.22
80.69
64.39
51.41
42.80
37.57
33.72
29.38
23.31
14.89
3.83
-9.69
-24.55
-38.30
-47.59
-49.58
-43.63
-32.34
-20.97
-15.48
-19.83
-34.10
-54.39
-74.47
-88.24
-91.97
-85.12
-69.94
-50.08
-29.20
-10.09
5.63
17.38
25.35
30.33
33.48
36.13
39.53
44.42
50.69
57.35
62.79
65.37
64.07
58.85
50.69
41.21
32.11
24.65
19.39
16.22
14.49
13.36
11.98
9.73
6.29
1.75
-3.44
-8.63
-13.19
-16.73
-19.09
-20.35
-20.72
-20.53
-20.21
-20.28
-21.25
-23.42
-26.67
-30.43
-33.81
-35.95
-36.33
-35.00
-32.51
-29.69
-27.31
-25.77
-25.12
-25.10
-25.41
-25.91
-26.65
-27.75
-29.24
-30.91
-32.36
-33.18
-33.12
-32.29
-31.00
-29.66
-28.54
-27.67
-26.91
-26.11
-25.15
-24.07
-22.94
-21.83
-20.73
-19.62
-18.46
-17.32
-16.26
-15.36
-14.65
-14.11
-13.71
-13.43
-13.32
-13.46
-13.92
-14.73
-15.83
-17.08
-18.24
-19.05
-19.29
-18.84
-17.67
-15.86
-13.52
-10.79
-7.80
-4.74
-1.84
0.57
2.23
3.06
3.12
2.69
2.07
1.51
1.11
0.87
0.73
0.64
0.59
0.57
0.60
0.66
0.73
0.81
0.91
1.04
1.19
1.29
1.26
1.04
0.60
0.01
-0.62
-1.15
-1.52
-1.75
-1.90
-2.11
-2.45
-2.93
-3.48
-4.01
-4.45
-4.89
-5.44
-6.22
-7.14
-7.92
-8.16
-7.47
-5.74
-3.12
-0.06
2.99
5.70
7.93
9.70
11.08
12.09
12.76
13.14
13.34
13.58
14.03
14.75
15.69
16.69
17.57
18.22
18.67
19.03
19.44
20.01
20.74
21.52
22.14
22.41
22.22
21.69
21.10
20.87
21.42
22.95
25.40
28.43
31.60
34.48
36.84
38.66
40.11
41.49
43.15
45.50
48.92
53.65
59.50
65.74
71.14
74.31
74.24
70.84
64.98
58.25
52.22
47.73
44.59
41.81
38.38
34.05
29.52
26.02
24.41
24.35
24.09
21.09
13.11
-0.76
-19.64
-41.18
-62.42
-80.57
-93.47
-99.62
-98.02
-88.16
-70.33
-45.95
-17.62
11.34
37.85
59.99
77.27
90.10
98.59
101.58
96.45
80.20
51.16
10.40
-38.01
-88.02
-133.50
-170.09
-196.10
-212.14
-219.95
-221.18
-216.87
-207.72
-194.72
-179.70
-165.22
-153.75
-146.74
-143.96
-143.61
-143.18
-140.54
-134.86
-126.69
-117.48
-108.78
-101.55
-95.99
-91.78
-88.34
-85.14
-81.69
-77.62
-72.75
-67.21
-61.64
-57.25
-55.40
-56.94
-61.63
-67.93
-73.40
-75.60
-73.06
-65.83
-55.45
-44.13
-33.63
-24.46
-15.87
-6.51
4.24
15.53
25.37
31.98
35.18
36.62
38.64
42.76
48.73
55.29
61.96
70.49
84.51
106.97
137.38
171.00
201.25
223.64
238.77
251.59
267.51
287.68
306.83
315.40
304.45
270.70
217.97
155.11
91.95
35.67
-10.33
-45.38
-69.62
-82.98
-85.43
-77.91
-63.03
-44.82
-28.01
-16.68
-13.33
-18.13
-28.97
-42.24
-53.91
-60.97
-62.39
-59.31
-54.18
-49.58
-47.00
-46.65
-47.88
-49.87
-51.98
-53.74
-54.63
-53.94
-51.03
-45.80
-38.95
-31.81
-25.83
-21.99
-20.53
-21.02
-22.73
-24.90
-26.99
-28.62
-29.50
-29.44
-28.48
-26.87
-25.05
-23.35
-21.90
-20.50
-18.83
-16.64
-14.10
-11.81
-10.50
-10.51
-11.08
-10.30
-5.62
5.01
22.08
44.03
67.64
89.27
106.06
116.52
120.37
118.04
110.11
97.23
80.61
62.16
44.25
28.95
17.15
8.27
0.59
-7.78
-18.01
-30.00
-42.66
-54.56
-64.67
-72.71
-78.92
-83.51
-86.21
-86.24
-82.61
-74.77
-63.08
-48.87
-34.14
-20.87
-10.66
-4.41
-2.31
-3.99
-8.78
-15.65
-23.42
-30.91
-36.98
-40.78
-41.74
-39.61
-34.50
-26.83
-17.25
-6.58
4.37
14.90
24.61
33.34
41.12
48.00
53.95
58.81
62.39
64.58
65.58
65.84
65.97
66.46
67.47
68.67
69.44
69.11
67.28
64.01
59.78
55.36
51.57
48.96
47.73
47.65
48.22
48.82
49.00
48.59
47.70
46.60
45.64
45.29
46.19
48.94
53.76
59.95
65.82
68.98
67.35
60.18
48.56
35.08
22.68
13.52
8.37
6.83
8.01
11.32
16.54
23.42
31.14
37.99
41.79
40.60
33.39
20.22
2.10
-19.63
-43.55
-68.32
-92.46
-114.27
-131.89
-143.64
-148.50
-146.41
-138.53
-126.98
-114.30
-102.83
-94.15
-88.72
-85.99
-84.88
-84.27
-83.47
-82.33
-81.01
-79.55
-77.51
-73.91
-67.53
-57.47
-43.71
-27.38
-10.52
4.59
16.39
24.79
31.17
37.71
46.30
57.55
70.47
83.00
93.04
99.45
102.48
103.28
103.12
102.64
101.52
99.08
94.77
88.74
82.09
76.47
73.26
73.05
75.58
80.00
85.05
89.35
91.70
91.56
90.13
89.98
94.28
105.11
121.48
138.29
147.12
139.14
108.72
56.87
-9.01
-77.10
-134.78
-171.60
-181.18
-161.89
-116.32
-51.04
25.51
103.65
174.76
233.01
276.75
307.68
328.60
341.62
346.89
344.82
335.90
321.68
304.39
286.05
267.79
249.33
230.34
202.70
164.71
120.56
78.75
47.19
29.26
24.53
26.57
29.99
31.60
31.44
29.90
27.94
25.04
19.76
10.67
-3.05
-20.73
-40.84
-60.50
-77.33
-90.07
-98.99
-105.27
-110.16
-114.62
-118.74
-122.37
-124.83
-125.98
-126.35
-127.05
-129.14
-133.03
-138.50
-144.69
-150.91
-156.81
-162.91
-170.38
-180.55
-194.15
-210.87
-229.54
-248.71
-267.37
-285.38
-303.63
-323.50
-346.41
-373.48
-405.41
-442.25
-482.86
-524.41
-562.40
-591.61
-607.91
-610.20
-601.00
-585.31
-568.14
-551.95
-535.67
-515.75
-488.59
-452.88
-410.37
-364.90
-320.36
-279.01
-241.09
-205.65
-171.87
-139.85
-110.56
-85.23
-64.32
-47.11
-31.99
-17.20
-1.61
14.78
30.97
45.46
57.02
65.25
70.68
74.45
77.70
81.06
84.37
86.76
87.15
84.78
79.71
72.77
65.42
59.17
55.11
53.59
54.28
56.47
59.61
63.68
69.23
77.15
88.15
102.17
118.15
134.21
148.15
158.30
164.06
166.09
165.96
165.45
165.68
166.74
167.79
167.75
166.09
163.39
161.43
162.55
169.00
182.42
203.60
232.20
266.22
301.56
332.09
350.94
352.89
336.92
307.23
272.02
240.17
217.65
205.53
200.61
198.17
194.95
190.48
186.24
183.51
181.59
177.80
169.12
154.35
134.99
114.61
97.14
84.83
77.61
73.84
71.48
68.71
63.78
54.52
38.63
15.14
-13.84
-42.29
-61.72
-64.26
-45.72
-6.92
47.16
109.57
173.36
232.17
279.84
310.37
318.83
303.36
266.68
215.69
159.17
104.46
54.86
9.09
-37.14
-88.32
-146.08
-207.54
-265.53
-310.67
-334.52
-332.58
-305.73
-259.58
-202.20
-141.46
-83.22
-31.11
12.70
46.56
69.16
80.06
80.35
72.68
60.70
47.92
36.86
28.71
23.44
20.30
18.36
16.85
15.25
13.24
10.51
6.70
1.46
-5.23
-12.87
-20.32
-26.10
-28.96
-28.44
-25.16
-20.58
-16.38
-13.87
-13.55
-15.10
-17.55
-19.80
-20.92
-20.45
-18.46
-15.50
-12.40
-9.99
-8.80
-8.83
-9.63
-10.50
-10.81
-10.37
-9.50
-8.97
-9.63
-12.14
-16.62
-22.39
-27.86
-30.91
-29.60
-23.21
-12.87
-1.70
6.39
8.37
3.71
-5.34
-14.79
-20.82
-21.45
-17.09
-9.89
-2.71
1.85
1.78
-4.14
-15.97
-31.63
-46.45
-53.84
-47.18
-22.39
20.27
75.94
136.84
194.98
244.32
281.74
306.73
320.57
325.42
323.76
317.95
309.99
301.11
291.68
281.34
269.54
256.03
241.16
225.77
210.85
197.25
185.49
175.76
168.02
162.14
157.88
154.98
153.30
152.82
153.63
155.60
158.22
160.42
160.83
158.31
152.37
143.51
132.92
122.10
112.25
103.97
97.31
91.92
87.34
83.05
78.45
72.87
65.65
56.44
45.30
32.73
19.47
6.20
-6.79
-19.65
-32.84
-46.89
-62.12
-78.46
-95.50
-112.61
-129.27
-145.25
-160.76
-176.45
-193.25
-212.02
-233.08
-255.71
-278.10
-297.51
-311.09
-316.73
-313.79
-303.30
-287.57
-269.40
-251.18
-234.47
-219.87
-207.29
-196.29
-186.36
-177.01
-167.74
-158.20
-148.21
-137.92
-127.77
-118.35
-110.17
-103.41
-97.83
-92.92
-88.10
-82.96
-77.41
-71.63
-65.99
-60.83
-56.37
-52.68
-49.63
-46.99
-44.47
-41.80
-38.77
-35.36
-31.72
-28.14
-25.00
-22.63
-21.14
-20.38
-19.93
-19.23
-17.78
-15.40
-12.34
-9.25
-6.97
-6.22
-7.39
-10.42
-14.85
-20.03
-25.36
-30.34
-34.75
-38.52
-41.74
-44.54
-46.94
-48.81
-49.86
-49.73
-48.27
-45.64
-42.41
-39.34
-37.11
-36.06
-36.07
-36.73
-37.55
-38.21
-38.64
-38.92
-39.15
-39.35
-39.42
-39.21
-38.63
-37.65
-36.31
-34.69
-32.90
-31.11
-29.47
-28.10
-27.07
-26.34
-25.80
-25.36
-24.96
-24.54
-24.06
-23.41
-22.51
-21.33
-19.97
-18.64
-17.61
-17.07
-17.10
-17.65
-18.58
-19.73
-21.04
-22.47
-24.04
-25.70
-27.37
-28.93
-30.31
-31.56
-32.84
-34.43
-36.61
-39.48
-42.86
-46.24
-48.89
-50.02
-48.99
-45.59
-40.05
-33.07
-25.53
-18.36
-12.19
-7.34
-3.81
-1.47
-0.11
0.44
0.38
-0.03
-0.49
-0.69
-0.44
0.25
1.18
2.02
2.49
2.52
2.24
1.88
1.58
1.29
0.84
0.02
-1.15
-2.38
-3.19
-3.04
-1.67
0.75
3.78
6.78
9.23
10.87
11.72
11.96
11.85
11.57
11.21
10.73
10.07
9.13
7.87
6.29
4.39
2.29
0.11
-2.00
-3.87
-5.44
-6.73
-7.94
-9.36
-11.30
-13.97
-17.27
-20.70
-23.41
-24.45
-23.03
-18.93
-12.67
-5.45
1.27
6.29
9.04
9.82
9.49
9.10
9.30
10.23
11.52
12.60
13.03
12.73
11.98
11.23
10.89
11.19
12.08
13.38
14.85
16.33
17.74
19.06
20.21
21.02
21.23
20.63
19.15
16.99
14.55
12.28
10.52
9.43
8.97
9.07
9.62
10.48
11.25
11.30
9.73
5.76
-0.89
-9.80
-19.80
-29.35
-37.06
-42.16
-44.66
-45.22
-44.76
-44.02
-43.39
-42.89
-42.46
-42.12
-42.13
-42.73
-43.94
-45.28
-45.84
-44.71
-41.42
-36.26
-30.28
-24.74
-20.64
-18.19
-16.85
-15.61
-13.64
-10.59
-6.78
-2.98
0.08
2.03
3.03
3.69
4.78
6.87
10.10
14.18
18.49
22.49
25.89
28.74
31.27
33.70
35.97
37.84
38.97
39.12
38.30
36.73
34.76
32.69
30.79
29.24
28.08
27.20
26.25
24.74
22.29
18.83
14.79
10.92
7.94
6.12
5.02
3.65
0.98
-3.50
-9.44
-15.72
-20.94
-24.17
-25.29
-25.11
-25.00
-26.23
-29.50
-34.77
-41.44
-48.44
-54.19
-56.47
-52.71
-41.12
-21.96
1.59
23.94
38.98
42.57
34.31
17.50
-2.57
-21.06
-35.23
-44.57
-49.69
-50.95
-47.96
-40.14
-27.78
-12.68
2.20
13.92
20.67
22.35
20.43
17.12
14.32
12.96
12.87
13.17
12.83
11.13
7.95
3.66
-1.19
-6.20
-11.19
-16.26
-21.56
-27.21
-33.21
-39.52
-46.10
-52.96
-60.05
-67.21
-74.09
-80.30
-85.59
-90.09
-94.36
-99.26
-105.55
-113.38
-121.93
-129.52
-134.01
-133.59
-127.46
-116.09
-100.78
-83.08
-64.09
-44.09
-22.69
0.57
25.97
53.38
82.28
111.50
138.65
159.94
170.55
165.99
144.06
106.41
58.71
9.28
-33.43
-63.39
-78.34
-79.81
-71.76
-58.77
-44.70
-32.16
-22.59
-16.62
-14.16
-14.18
-14.56
-12.38
-4.60
10.46
31.54
53.96
70.64
74.54
61.80
33.82
-2.86
-38.71
-64.86
-76.11
-72.15
-56.72
-35.41
-13.34
6.02
20.89
30.43
34.06
31.52
23.44
11.64
-1.03
-11.58
-17.98
-19.84
-18.25
-14.89
-11.08
-7.07
-2.25
4.08
12.04
20.64
28.21
33.04
34.25
32.07
27.64
22.41
17.55
13.72
11.33
10.51
10.88
11.90
12.87
12.82
10.93
7.08
2.11
-2.15
-3.73
-1.66
4.07
12.74
23.14
34.02
44.36
53.48
61.30
67.91
72.97
76.94
81.14
86.60
93.48
100.83
107.01
111.80
115.53
116.99
116.36
115.45
115.57
117.32
120.44
123.89
128.68
135.17
138.75
137.08
132.03
126.64
124.29
127.65
138.29
159.87
192.94
228.21
258.30
282.11
301.39
319.91
341.65
369.50
408.24
457.90
505.64
541.49
563.53
573.09
573.24
567.15
525.10
429.58
329.85
248.92
176.09
107.01
38.74
-30.08
-98.24
-159.83
-202.22
-216.13
-208.42
-189.81
-169.99
-158.52
-161.64
-188.98
-238.24
-293.32
-335.85
-361.94
-373.98
-382.16
-395.42
-417.50
-446.87
-475.83
-492.45
-486.91
-458.52
-410.13
-346.70
-276.07
-208.77
-155.79
-125.28
-121.26
-144.32
-193.13
-260.60
-334.39
-400.24
-446.59
-467.71
-463.60
-439.14
-401.93
-360.49
-320.77
-285.60
-255.36
-229.60
-207.68
-188.43
-170.36
-152.22
-133.39
-114.07
-95.15
-77.25
-60.39
-43.91
-26.53
-7.08
14.92
38.93
63.83
88.40
111.90
134.30
156.39
179.48
204.90
233.10
263.08
292.13
316.41
331.88
335.65
326.89
307.22
280.25
250.49
221.96
197.32
177.67
163.08
153.51
149.34
151.32
159.62
173.06
188.72
202.64
211.05
211.76
204.85
192.23
176.69
160.75
146.00
133.14
122.40
113.85
107.52
103.22
100.44
98.30
95.75
91.81
85.77
77.38
66.90
55.08
42.94
31.53
21.56
13.31
6.62
1.04
-3.98
-8.98
-14.43
-20.62
-27.45
-34.30
-40.05
-43.41
-43.47
-40.20
-34.63
-28.54
-23.75
-21.53
-22.26
-25.53
-30.60
-36.75
-43.38
-50.03
-56.18
-61.30
-64.91
-66.72
-66.70
-65.08
-62.22
-58.58
-54.60
-50.61
-46.74
-42.96
-39.09
-35.03
-30.88
-27.06
-24.05
-22.04
-20.65
-18.82
-15.23
-8.87
0.39
11.60
23.05
33.00
40.37
45.22
48.61
52.01
56.74
63.44
71.98
81.52
90.68
97.77
101.01
98.89
90.53
76.04
56.58
34.10
10.81
-11.30
-30.80
-46.85
-58.99
-67.03
-70.99
-71.26
-68.70
-64.58
-60.27
-56.79
-54.59
-53.41
-52.53
-51.12
-48.57
-44.64
-39.52
-33.65
-27.66
-22.25
-18.08
-15.67
-15.21
-16.57
-19.23
-22.49
-25.57
-27.83
-28.92
-28.81
-27.90
-26.92
-26.73
-28.08
-31.33
-36.28
-42.25
-48.17
-52.90
-55.51
-55.58
-53.37
-49.85
-46.32
-43.94
-43.25
-43.93
-44.89
-44.90
-43.08
-39.32
-34.28
-28.99
-24.41
-21.14
-19.35
-18.88
-19.28
-19.96
-20.15
-19.13
-16.46
-12.21
-7.02
-1.91
2.14
4.58
5.55
5.63
5.50
5.50
5.54
5.28
4.56
3.67
3.26
3.95
5.79
8.15
9.92
10.19
8.75
6.24
3.79
2.31
2.07
2.64
3.21
3.13
2.23
0.82
-0.63
-1.73
-2.32
-2.36
-1.83
-0.65
1.22
3.59
5.99
7.75
8.29
7.40
5.42
3.11
1.36
0.82
1.67
3.63
6.13
8.64
10.78
12.46
13.80
15.00
16.25
17.66
19.22
20.81
22.25
23.34
23.95
24.03
23.68
23.05
22.37
21.80
21.49
21.50
21.88
22.64
23.74
25.10
26.55
27.88
28.89
29.42
29.41
28.87
27.77
26.08
23.72
20.64
16.92
12.82
8.77
5.32
2.93
1.87
2.06
3.04
3.99
4.01
2.40
-1.07
-6.12
-12.07
-18.13
-23.59
-27.79
-30.19
-30.33
-28.13
-24.14
-19.47
-15.41
-12.70
-10.96
-8.78
-4.42
3.18
13.89
26.45
39.26
51.18
61.94
71.95
81.77
91.57
100.95
109.17
115.52
119.71
121.91
122.55
121.95
119.92
115.62
107.97
96.23
80.87
63.84
48.01
35.97
28.62
24.72
21.59
16.73
9.26
0.36
-7.76
-13.71
-17.86
-22.39
-29.68
-40.68
-54.14
-67.66
-79.47
-89.69
-100.39
-114.29
-133.27
-157.83
-187.77
-223.21
-264.66
-311.70
-360.90
-404.92
-434.02
-439.86
-419.52
-377.35
-323.07
-267.26
-216.69
-172.17
-129.75
-84.32
-33.03
23.20
80.56
134.10
179.75
214.76
237.57
247.50
245.04
232.26
212.87
191.65
172.93
159.37
151.25
147.08
144.57
141.93
138.61
135.10
132.40
130.99
130.16
128.35
124.39
118.93
115.03
117.16
129.03
151.60
182.54
217.42
251.90
283.17
310.08
331.86
346.89
352.53
346.29
327.50
298.16
262.22
223.86
185.78
148.61
111.47
73.34
33.91
-6.04
-44.91
-80.88
-112.65
-139.83
-162.76
-181.90
-197.03
-206.77
-209.10
-202.75
-189.00
-172.55
-160.94
-162.32
-182.31
-221.38
-273.84
-328.90
-373.48
-395.96
-389.43
-353.75
-295.45
-225.91
-158.14
-103.42
-68.95
-56.70
-63.90
-84.45
-110.95
-136.41
-155.59
-165.72
-166.68
-160.47
-150.30
-139.47
-130.58
-125.19
-123.70
-125.67
-129.95
-134.73
-137.73
-136.72
-130.45
-119.30
-105.59
-92.70
-83.50
-78.80
-76.71
-73.74
-66.92
-55.65
-42.19
-30.26
-22.89
-20.69
-21.71
-22.65
-20.75
-14.94
-6.00
4.35
14.49
23.35
30.49
35.59
38.16
37.73
34.27
28.27
20.63
12.12
3.03
-7.00
-18.58
-31.78
-45.28
-56.28
-60.86
-55.31
-37.38
-6.87
34.63
84.43
139.36
195.88
249.94
297.05
333.01
355.20
363.47
360.08
348.69
332.68
313.92
292.46
267.33
237.80
204.25
168.48
133.05
100.37
71.92
48.07
28.32
11.87
-1.89
-13.13
-21.64
-27.27
-30.12
-30.62
-29.37
-26.92
-23.38
-18.51
-11.94
-3.54
6.27
16.45
25.52
31.99
34.83
33.73
29.14
21.93
12.91
2.45
-9.68
-24.20
-41.98
-63.68
-89.57
-119.45
-152.56
-187.34
-221.01
-249.23
-266.44
-267.00
-247.07
-206.41
-149.14
-82.85
-16.39
42.78
90.26
124.96
147.95
161.07
165.92
163.94
156.84
146.92
136.74
128.33
122.43
118.35
114.40
108.76
100.23
88.69
74.94
60.44
46.84
35.48
27.12
21.77
18.74
16.89
15.02
12.23
8.17
3.22
-1.74
-5.67
-7.84
-8.21
-7.53
-7.22
-8.90
-13.88
-22.75
-35.15
-49.49
-62.90
-71.42
-70.90
-58.21
-32.70
3.09
43.82
82.88
114.51
135.37
144.94
144.74
136.82
122.60
102.62
77.13
47.07
14.46
-17.90
-47.55
-73.35
-95.70
-115.81
-134.58
-151.48
-164.37
-170.52
-168.19
-157.99
-143.21
-128.85
-119.61
-117.89
-122.73
-130.33
-135.83
-135.56
-128.66
-117.30
-105.43
-96.86
-93.57
-95.21
-99.59
-104.00
-106.29
-105.31
-100.81
-93.12
-83.04
-71.94
-61.86
-55.34
-54.86
-62.02
-76.76
-96.98
-118.84
-137.63
-149.22
-151.40
-144.64
-131.79
-116.54
-101.65
-87.72
-73.25
-56.09
-35.11
-11.15
13.45
36.20
55.77
72.39
87.09
100.59
112.61
122.09
128.20
131.01
131.55
131.09
130.20
128.36
124.39
117.48
107.94
97.39
88.05
81.74
78.94
78.73
79.24
78.55
75.28
68.88
59.51
48.03
36.14
26.66
23.50
30.69
50.72
82.95
122.92
163.31
196.23
215.79
219.84
209.87
189.61
163.06
133.18
101.79
70.24
40.32
14.43
-5.13
-17.29
-23.11
-25.67
-28.90
-36.04
-48.18
-63.92
-80.07
-93.29
-101.54
-104.93
-105.31
-105.21
-106.55
-110.14
-115.77
-122.89
-130.93
-139.05
-145.69
-148.34
-144.20
-131.50
-110.86
-85.54
-60.28
-39.06
-23.11
-10.47
2.65
19.48
40.76
64.40
86.80
104.88
117.38
124.90
128.72
129.60
127.32
121.20
111.08
98.03
84.18
71.80
62.26
55.52
50.44
45.52
39.66
32.63
25.09
18.16
12.90
9.84
8.76
8.87
9.06
8.36
6.17
2.41
-2.73
-8.89
-15.71
-22.82
-29.65
-35.51
-39.72
-41.90
-42.26
-41.61
-41.04
-41.44
-42.99
-45.10
-46.73
-47.00
-45.79
-43.86
-42.57
-43.07
-45.75
-50.00
-54.55
-58.02
-59.43
-58.37
-54.99
-49.75
-43.37
-36.80
-31.08
-26.89
-23.98
-20.91
-15.49
-5.90
8.22
25.22
41.94
55.19
63.10
65.79
64.91
62.49
59.79
56.95
53.41
48.76
43.22
37.61
32.76
28.93
25.65
22.06
17.47
11.76
5.46
-0.45
-5.08
-7.90
-8.95
-8.68
-7.82
-7.05
-6.82
-7.23
-8.05
-8.88
-9.31
-9.17
-8.70
-8.61
-9.84
-13.19
-18.86
-26.21
-33.87
-40.22
-43.95
-44.53
-42.30
-38.22
-33.46
-29.04
-25.73
-24.12
-24.58
-27.03
-30.76
-34.34
-36.10
-34.76
-30.16
-23.31
-16.06
-10.17
-6.56
-5.01
-4.44
-3.65
-1.92
0.71
3.57
5.80
6.52
5.09
1.15
-5.28
-13.61
-22.71
-30.98
-36.68
-38.37
-35.39
-28.02
-17.45
-5.33
6.79
18.00
28.33
38.57
49.85
62.92
77.73
93.24
107.79
119.69
127.81
131.97
132.75
131.15
128.07
124.04
119.15
113.17
105.76
96.59
85.42
72.12
56.61
38.92
19.28
-1.85
-23.67
-45.03
-64.63
-81.29
-94.38
-103.93
-110.57
-115.16
-118.33
-120.20
-120.41
-118.49
-114.28
-108.13
-100.64
-92.29
-83.18
-73.08
-61.78
-49.39
-36.50
-23.94
-12.49
-2.61
5.67
12.53
18.18
22.69
26.05
28.20
29.24
29.44
29.26
29.21
29.67
30.74
32.23
33.85
35.52
37.61
40.89
46.12
53.51
62.41
71.42
78.82
83.25
84.12
81.62
76.34
68.86
59.51
48.46
36.05
23.02
10.56
-0.00
-7.59
-11.75
-12.67
-11.04
-7.66
-3.17
2.10
7.92
13.97
19.67
24.27
27.05
27.65
26.21
23.33
19.90
16.76
14.47
13.12
12.36
11.54
9.87
6.70
1.64
-5.35
-14.07
-24.25
-35.64
-48.02
-60.99
-73.88
-85.72
-95.41
-102.05
-105.21
-105.03
-102.16
-97.52
-92.00
-86.26
-80.62
-75.13
-69.69
-64.20
-58.66
-53.13
-47.62
-42.04
-36.15
-29.69
-22.51
-14.62
-6.22
2.40
10.91
19.01
26.32
32.39
36.69
38.81
38.53
35.99
31.59
25.88
19.44
12.84
6.73
1.79
-1.32
-2.32
-1.47
0.34
1.84
1.88
-0.10
-3.92
-8.85
-13.97
-18.65
-22.69
-26.17
-29.24
-31.80
-33.54
-34.09
-33.20
-30.94
-27.63
-23.73
-19.67
-15.73
-11.99
-8.41
-4.90
-1.46
1.80
4.62
6.70
7.88
8.17
7.91
7.56
7.60
8.35
9.84
11.85
14.04
16.17
18.19
20.18
22.18
24.10
25.66
26.59
26.78
26.44
25.97
25.73
25.79
25.88
25.55
24.43
22.54
20.31
18.30
16.91
16.17
15.79
15.36
14.71
13.97
13.52
13.75
14.80
16.53
18.55
20.44
21.94
23.01
23.79
24.42
25.05
25.70
26.39
27.16
28.09
29.35
31.13
33.65
37.10
41.59
47.04
53.21
59.64
65.84
71.46
76.41
80.89
85.28
89.90
94.90
100.25
105.91
111.92
118.46
125.59
133.01
139.85
144.79
146.39
143.59
136.13
124.58
110.14
94.27
78.23
62.89
48.71
35.89
24.54
14.65
6.03
-1.92
-10.19
-20.00
-32.42
-47.93
-66.21
-86.08
-105.95
-124.16
-139.40
-150.89
-158.35
-161.88
-161.93
-159.15
-154.42
-148.66
-142.71
-137.10
-131.95
-126.99
-121.71
-115.59
-108.50
-100.85
-93.65
-88.34
-86.29
-88.21
-93.69
-101.13
-108.15
-112.32
-111.88
-106.21
-95.75
-81.63
-65.16
-47.59
-30.05
-13.77
-0.03
10.04
15.87
17.87
17.38
16.20
15.81
16.74
18.42
19.63
19.22
16.82
13.03
9.02
5.91
4.17
3.50
3.12
2.27
0.48
-2.31
-5.97
-10.28
-15.07
-20.09
-24.89
-28.84
-31.27
-31.69
-30.04
-26.75
-22.72
-19.10
-16.90
-16.72
-18.49
-21.44
-24.28
-25.68
-24.73
-21.39
-16.42
-10.99
-6.09
-2.03
1.66
5.87
11.30
17.96
25.08
31.38
35.67
37.35
36.53
33.84
30.11
26.05
22.11
18.68
16.20
15.31
16.73
21.18
29.04
40.28
54.39
70.46
87.29
103.55
118.11
130.36
140.71
150.72
162.86
179.55
202.14
230.00
260.36
288.91
310.98
322.79
322.30
309.25
284.95
251.77
212.77
171.38
131.16
95.29
66.01
44.25
29.47
20.13
14.49
11.50
11.15
14.07
20.53
29.37
37.75
41.96
38.90
27.30
8.02
-16.88
-45.36
-76.18
-108.79
-142.34
-174.90
-203.46
-224.93
-237.47
-241.22
-237.91
-229.80
-218.59
-205.18
-190.37
-175.67
-163.52
-156.48
-155.87
-160.68
-167.73
-172.91
-173.04
-167.14
-156.49
-143.63
-130.90
-119.37
-108.75
-98.18
-87.14
-75.94
-65.57
-57.02
-50.69
-46.13
-42.25
-37.94
-32.65
-26.67
-20.93
-16.51
-13.98
-13.09
-12.98
-12.64
-11.51
-9.77
-8.13
-7.44
-8.18
-10.21
-13.01
-15.89
-18.37
-20.25
-21.50
-22.12
-22.15
-21.71
-21.09
-20.74
-21.10
-22.37
-24.33
-26.40
-27.89
-28.35
-27.89
-27.28
-27.64
-29.84
-33.88
-38.79
-43.03
-45.21
-44.78
-42.11
-38.14
-33.68
-29.01
-23.91
-18.10
-11.69
-5.20
0.76
6.11
11.61
18.60
28.55
42.34
60.07
81.08
104.18
127.78
149.90
168.31
180.78
185.60
181.98
170.41
152.48
130.46
106.66
83.03
60.94
41.24
24.38
10.56
-0.37
-8.84
-15.58
-21.32
-26.57
-31.42
-35.64
-38.90
-41.01
-42.03
-42.29
-42.13
-41.82
-41.37
-40.65
-39.43
-37.51
-34.80
-31.31
-27.22
-22.83
-18.56
-14.79
-11.87
-10.00
-9.23
-9.53
-10.83
-12.96
-15.67
-18.55
-21.20
-23.28
-24.70
-25.63
-26.46
-27.65
-29.58
-32.41
-36.05
-40.11
-43.92
-46.57
-47.17
-45.09
-40.29
-33.36
-25.34
-17.37
-10.26
-4.32
0.56
4.63
8.00
10.59
12.24
12.92
12.87
12.59
12.65
13.49
15.42
18.54
22.92
28.52
35.25
42.79
50.60
57.93
64.05
68.45
71.15
72.67
73.92
75.81
78.80
82.80
87.14
90.98
93.72
95.23
95.82
95.94
95.93
95.73
95.00
93.15
89.55
83.69
75.37
64.90
53.25
41.87
31.87
23.32
14.66
3.00
-14.73
-40.35
-73.33
-110.68
-147.79
-179.60
-201.49
-209.54
-200.61
-172.74
-126.34
-65.24
3.02
68.58
121.81
156.29
170.34
166.69
150.61
127.64
101.92
75.80
50.30
25.84
2.45
-20.57
-44.71
-71.40
-100.99
-131.62
-159.32
-179.31
-187.96
-184.62
-172.08
-155.51
-140.26
-129.81
-124.59
-122.39
-119.75
-113.74
-103.16
-88.85
-72.95
-57.80
-45.10
-35.22
-27.34
-20.04
-11.99
-2.45
8.62
20.76
33.28
45.31
56.00
64.61
70.67
74.23
75.98
77.03
78.45
80.84
84.04
87.25
89.26
88.96
85.80
79.97
72.45
64.63
57.81
52.71
49.17
46.38
43.46
40.02
36.48
33.80
32.83
33.61
35.26
36.17
34.59
29.13
19.27
5.51
-10.56
-26.59
-40.02
-48.87
-52.27
-50.75
-45.76
-39.05
-32.03
-25.67
-20.73
-18.05
-18.45
-22.32
-29.07
-37.14
-44.47
-49.36
-51.02
-49.61
-45.74
-40.00
-32.73
-24.19
-14.83
-5.40
3.35
10.90
17.23
22.63
27.32
31.19
33.81
34.65
33.47
30.32
25.56
19.60
12.65
4.71
-4.30
-14.32
-24.95
-35.26
-43.89
-49.37
-50.50
-46.85
-38.94
-28.21
-16.65
-6.35
0.86
3.71
1.88
-3.84
-11.39
-17.76
-19.59
-14.14
-0.05
22.23
50.61
81.97
112.94
140.60
162.98
179.30
189.89
195.82
198.29
197.74
193.33
182.96
164.12
135.27
97.10
52.96
8.14
-31.76
-62.56
-82.71
-93.28
-96.84
-96.14
-93.01
-88.34
-82.78
-77.72
-75.70
-79.74
-92.02
-112.28
-137.19
-161.08
-177.87
-183.37
-176.78
-160.71
-139.73
-118.22
-98.65
-81.18
-64.63
-47.97
-31.50
-16.85
-5.98
0.25
2.95
4.87
9.18
17.91
31.05
46.68
62.22
75.93
87.70
98.85
110.98
124.72
139.13
152.07
161.15
164.71
162.34
154.65
142.72
127.86
111.65
96.23
84.34
78.63
80.57
89.41
101.91
113.39
119.70
119.06
112.94
105.26
100.37
100.62
105.02
109.46
108.27
96.28
70.40
30.22
-22.12
-82.14
-143.10
-196.42
-233.05
-246.04
-233.15
-198.40
-151.40
-104.53
-69.27
-52.92
-56.82
-76.39
-102.69
-124.53
-131.07
-114.23
-71.04
-5.10
73.44
150.11
210.09
242.33
242.70
214.43
166.48
110.15
55.49
8.60
-29.09
-59.74
-86.63
-111.66
-134.26
-151.73
-160.67
-158.78
-145.93
-124.40
-98.18
-71.93
-49.81
-34.66
-27.30
-26.42
-29.31
-32.80
-34.73
-34.96
-35.15
-37.44
-43.23
-52.29
-63.11
-73.95
-83.52
-91.07
-95.96
-97.40
-94.90
-89.05
-81.78
-75.74
-72.99
-73.82
-76.99
-80.80
-84.54
-88.94
-95.36
-104.36
-114.49
-122.46
-124.25
-116.57
-97.68
-67.32
-26.31
23.92
81.52
144.08
208.52
271.05
327.28
373.00
405.15
422.99
428.71
426.96
423.12
421.05
421.28
420.96
415.33
400.24
373.85
337.07
292.54
243.00
190.34
135.59
79.61
23.55
-31.25
-83.94
-134.94
-185.87
-238.89
-295.33
-354.47
-413.04
-465.67
-506.13
-528.85
-530.37
-510.44
-472.25
-421.69
-365.78
-310.51
-259.13
-211.53
-165.29
-117.63
-67.44
-16.23
32.45
74.69
108.02
132.28
149.15
160.89
169.15
174.45
176.52
175.21
171.14
165.68
160.52
156.72
154.06
151.00
145.28
134.89
119.03
98.59
75.90
53.98
35.38
21.59
12.60
7.22
3.70
0.45
-3.27
-7.25
-10.45
-11.59
-9.84
-5.49
-0.14
3.80
4.18
0.17
-7.22
-15.66
-22.72
-27.20
-29.62
-31.68
-34.95
-39.85
-45.61
-51.04
-55.50
-59.25
-62.88
-66.39
-68.71
-68.13
-63.40
-54.75
-44.03
-33.93
-26.75
-23.53
-23.86
-26.40
-29.68
-32.54
-34.31
-34.75
-33.92
-32.12
-29.81
-27.37
-24.95
-22.37
-19.30
-15.64
-11.65
-8.01
-5.45
-4.57
-5.77
-9.34
-15.53
-24.25
-34.64
-44.76
-51.95
-53.73
-48.94
-38.46
-25.03
-12.21
-3.09
0.70
-0.79
-6.16
-13.37
-20.30
-24.93
-25.52
-20.74
-9.92
6.57
27.32
50.14
72.81
93.92
113.32
131.88
150.58
169.48
187.24
201.45
209.74
211.11
206.33
197.61
187.44
177.54
168.57
160.59
153.77
148.82
146.67
147.52
150.21
152.30
150.94
144.15
131.91
116.24
100.40
87.44
78.86
74.11
70.92
66.25
57.32
42.41
20.94
-6.70
-39.46
-75.96
-114.49
-152.76
-187.89
-216.55
-235.96
-245.14
-246.09
-243.84
-245.14
-255.89
-278.53
-310.77
-346.54
-378.58
-401.30
-412.37
-412.43
-403.40
-386.77
-362.83
-331.10
-291.46
-244.71
-192.42
-136.08
-76.64
-14.92
47.40
106.96
158.96
198.77
223.94
235.39
236.98
233.57
228.78
223.57
216.49
205.26
188.77
167.94
145.32
123.65
104.52
87.94
72.84
58.06
43.04
27.98
13.49
0.29
-10.91
-19.39
-24.43
-25.53
-22.76
-17.11
-10.28
-4.22
-0.53
-0.03
-2.69
-7.82
-14.27
-20.60
-25.31
-27.13
-25.53
-21.06
-15.36
-10.61
-8.77
-10.76
-16.16
-23.35
-30.02
-33.81
-33.17
-27.74
-18.57
-7.77
2.32
10.45
17.30
25.41
38.03
57.29
82.78
111.31
138.04
158.29
169.23
170.46
163.56
151.05
135.42
118.66
102.21
87.11
73.98
62.76
52.60
41.94
29.06
12.83
-6.66
-27.92
-48.57
-66.30
-80.17
-91.15
-101.80
-115.07
-132.86
-155.16
-180.10
-204.87
-226.70
-243.55
-254.24
-258.11
-254.80
-243.97
-225.23
-198.28
-163.23
-121.11
-74.45
-27.32
15.14
48.01
68.13
75.22
71.93
62.87
53.10
46.80
46.47
52.73
64.56
79.51
94.22
105.31
110.32
108.68
101.94
93.31
86.49
84.25
87.45
94.60
102.41
106.83
104.47
93.74
75.53
52.88
29.96
10.67
-2.69
-9.74
-11.65
-10.24
-7.05
-3.00
1.39
5.58
8.75
9.90
8.20
3.30
-4.62
-15.07
-27.38
-40.78
-54.28
-66.69
-76.79
-83.59
-86.51
-85.29
-79.92
-70.59
-57.97
-43.45
-29.07
-17.07
-8.98
-4.99
-3.85
-3.64
-2.60
0.20
4.90
11.25
19.00
28.01
38.11
49.07
60.60
72.56
84.99
97.76
110.22
121.10
129.06
133.47
135.12
136.23
139.57
147.25
159.68
175.22
190.59
201.74
204.99
198.25
181.73
158.02
131.34
105.97
84.69
67.94
54.04
40.33
24.61
5.90
-15.35
-37.87
-60.01
-80.16
-96.80
-108.63
-114.72
-114.71
-108.95
-98.35
-84.21
-68.01
-51.33
-35.76
-22.90
-14.17
-10.54
-12.13
-18.00
-26.20
-34.37
-40.67
-44.46
-46.12
-45.95
-42.96
-34.24
-15.89
14.73
56.65
104.42
149.57
183.69
201.86
204.10
194.38
177.77
157.83
135.59
110.64
83.03
54.63
28.98
9.69
-1.58
-6.08
-7.66
-11.11
-20.35
-37.23
-61.84
-93.39
-131.19
-174.69
-222.83
-273.25
-322.00
-364.58
-397.37
-418.90
-430.22
-433.89
-432.28
-426.06
-413.90
-393.07
-360.79
-315.52
-258.01
-191.71
-122.77
-59.13
-8.93
21.54
29.64
17.01
-11.43
-49.33
-90.65
-130.55
-165.35
-192.27
-209.71
-218.12
-220.57
-222.10
-227.38
-238.19
-251.88
-262.29
-262.60
-248.56
-220.32
-181.83
-138.63
-95.09
-52.88
-11.32
31.15
75.31
120.18
163.29
201.49
231.86
252.49
262.68
262.96
254.96
241.03
223.70
205.01
186.09
167.06
147.72
128.14
109.20
92.44
79.37
71.02
67.88
70.11
77.91
91.47
110.55
133.89
159.21
183.80
205.25
222.20
234.42
242.65
248.01
251.51
253.80
255.00
254.55
251.24
243.75
231.19
213.78
192.83
170.20
147.34
124.63
101.46
77.00
51.07
24.68
-0.23
-21.67
-38.47
-50.58
-58.82
-64.26
-67.82
-70.04
-71.39
-72.46
-73.83
-75.63
-77.27
-77.68
-76.05
-72.66
-69.04
-67.40
-69.42
-75.20
-83.18
-90.76
-95.61
-96.62
-94.27
-90.18
-86.35
-84.53
-85.76
-90.20
-97.14
-105.17
-112.43
-117.27
-118.74
-116.98
-112.94
-107.79
-102.06
-95.29
-86.28
-74.06
-58.87
-42.63
-28.34
-18.88
-15.64
-17.94
-23.30
-28.71
-31.99
-32.68
-31.97
-31.87
-34.26
-39.92
-48.09
-56.51
-61.71
-59.79
-47.20
-22.02
15.05
60.24
107.34
149.33
180.64
198.96
205.75
205.15
201.82
198.83
196.71
194.03
188.79
179.74
166.74
150.01
129.37
103.95
73.24
38.37
2.81
-28.41
-50.66
-61.82
-63.29
-59.31
-54.95
-53.91
-57.20
-63.37
-69.81
-74.49
-77.02
-78.49
-80.37
-83.26
-86.41
-88.31
-87.88
-85.48
-82.78
-81.70
-82.85
-84.77
-84.54
-79.37
-68.23
-52.42
-34.85
-18.27
-3.97
8.55
20.63
33.17
45.92
57.82
68.00
76.54
84.52
92.96
101.73
109.02
112.09
108.93
99.81
87.69
77.08
71.94
73.74
80.95
89.87
96.56
98.42
94.84
86.69
75.38
61.99
47.22
31.71
16.53
3.15
-7.19
-14.30
-19.29
-24.37
-31.97
-43.60
-58.95
-75.59
-89.68
-97.40
-96.49
-87.29
-72.47
-55.93
-41.15
-29.83
-21.56
-14.52
-6.77
2.69
13.48
24.49
34.73
44.05
53.05
62.34
71.70
79.66
84.05
82.84
75.22
62.28
46.80
32.40
22.29
18.17
19.58
24.06
27.92
27.63
21.32
9.77
-3.67
-14.39
-18.52
-14.95
-6.04
3.38
8.32
5.89
-3.59
-17.26
-31.48
-43.43
-51.76
-56.13
-56.41
-52.29
-43.62
-31.25
-17.44
-5.36
1.98
3.00
-1.97
-11.03
-21.63
-31.54
-39.32
-44.39
-46.87
-47.40
-47.05
-47.07
-48.67
-52.71
-59.36
-67.98
-77.14
-84.91
-89.32
-88.88
-83.16
-73.00
-60.34
-47.47
-36.28
-27.55
-20.86
-15.09
-9.05
-2.15
5.44
13.05
19.87
25.33
29.26
31.82
33.26
33.80
33.68
33.20
32.80
32.99
34.24
36.66
39.90
43.12
45.35
45.82
44.41
41.61
38.31
35.28
32.80
30.64
28.27
25.35
21.92
18.38
15.27
12.86
11.17
9.99
9.13
8.53
8.16
7.95
7.67
6.99
5.63
3.51
0.74
-2.50
-6.13
-10.33
-15.45
-21.81
-29.35
-37.55
-45.48
-52.12
-56.74
-59.09
-59.40
-58.24
-56.15
-53.50
-50.41
-46.89
-43.00
-38.99
-35.31
-32.37
-30.53
-29.88
-30.24
-31.11
-31.69
-30.98
-27.95
-21.82
-12.31
0.15
14.42
28.96
42.21
53.05
60.98
66.11
68.95
70.09
70.06
69.20
67.72
65.77
63.40
60.69
57.73
54.62
51.38
47.87
43.64
38.09
30.65
21.26
10.48
-0.53
-10.49
-18.51
-24.39
-28.44
-31.07
-32.47
-32.52
-31.15
-28.64
-25.72
-23.21
-21.54
-20.40
-18.97
-16.44
-12.63
-8.19
-4.33
-2.21
-2.39
-4.64
-8.16
-12.04
-15.54
-18.31
-20.28
-21.50
-22.05
-22.03
-21.56
-20.80
-19.89
-18.98
-18.17
-17.55
-17.22
-17.17
-17.28
-17.23
-16.49
-14.55
-11.00
-5.81
0.74
8.10
15.69
23.08
29.98
36.25
41.71
46.14
49.27
50.99
51.39
50.75
49.42
47.66
45.55
43.05
40.09
36.76
33.28
29.97
27.15
24.98
23.46
22.49
21.84
21.26
20.47
19.23
17.41
15.03
12.27
9.48
7.00
5.03
3.51
2.15
0.49
-1.89
-5.16
-9.18
-13.47
-17.40
-20.32
-21.80
-21.63
-19.88
-16.87
-13.01
-8.84
-4.85
-1.37
1.47
3.79
5.84
7.85
9.88
11.85
13.58
14.94
15.96
16.76
17.50
18.32
19.21
20.14
21.02
21.88
22.74
23.57
24.28
24.64
24.42
23.48
21.85
19.70
17.35
15.12
13.26
11.87
10.90
10.27
9.80
9.29
8.51
7.18
5.10
2.22
-1.25
-4.89
-8.22
-10.87
-12.73
-13.94
-14.82
-15.66
-16.61
-17.62
-18.53
-19.18
-19.53
-19.70
-19.89
-20.26
-20.87
-21.52
-21.85
-21.38
-19.70
-16.56
-12.07
-6.65
-0.97
4.32
8.80
12.48
15.70
18.88
22.28
25.75
28.69
30.34
29.99
27.27
22.27
15.48
7.74
0.17
-5.89
-9.14
-8.48
-3.53
5.14
16.07
27.21
36.52
42.62
45.04
44.17
40.82
35.85
29.85
23.20
16.24
9.42
3.27
-1.84
-5.89
-9.29
-12.66
-16.42
-20.58
-24.87
-28.98
-33.06
-37.64
-43.44
-50.70
-58.82
-66.34
-71.46
-72.86
-70.31
-64.82
-58.30
-52.78
-49.68
-49.39
-51.20
-53.66
-55.12
-54.27
-50.53
-44.19
-36.15
-27.58
-19.40
-12.05
-5.46
0.63
6.39
11.64
15.96
19.01
20.82
21.97
23.37
25.92
30.10
35.78
42.39
49.12
55.24
60.24
63.78
65.66
65.71
63.87
60.28
55.31
49.51
43.48
37.67
32.38
27.76
23.99
21.36
20.27
21.05
23.69
27.68
32.04
35.59
37.33
36.86
34.52
31.17
27.93
25.61
24.49
24.27
24.32
24.04
23.14
21.79
20.44
19.57
19.41
19.82
20.30
20.17
18.84
15.95
11.57
6.14
0.37
-4.98
-9.39
-12.77
-15.42
-17.92
-20.76
-24.12
-27.78
-31.19
-33.73
-34.95
-34.72
-33.31
-31.32
-29.55
-28.78
-29.50
-31.70
-34.86
-38.06
-40.28
-40.70
-39.00
-35.34
-30.33
-24.77
-19.41
-14.84
-11.38
-9.14
-7.98
-7.55
-7.29
-6.48
-4.48
-0.95
3.90
9.32
14.19
17.45
18.51
17.45
14.92
11.83
8.94
6.63
4.91
3.55
2.31
1.09
-0.11
-1.21
-2.13
-2.85
-3.46
-4.16
-5.27
-7.11
-9.79
-13.12
-16.45
-18.93
-19.80
-18.71
-15.94
-12.19
-8.26
-4.69
-1.62
1.03
3.39
5.41
6.93
7.85
8.30
8.58
9.07
9.99
11.35
13.03
14.93
17.00
19.24
21.50
23.41
24.51
24.45
23.29
21.55
20.00
19.38
20.03
21.75
23.92
25.75
26.57
26.03
24.14
21.18
17.57
13.80
10.35
7.62
5.89
5.22
5.55
6.75
8.64
11.10
13.97
17.09
20.22
23.19
25.90
28.40
30.84
33.31
35.66
37.41
37.86
36.23
32.02
25.21
16.34
6.37
-3.54
-12.33
-19.26
-24.03
-26.59
-27.13
-25.88
-23.14
-19.28
-14.87
-10.67
-7.51
-6.08
-6.70
-9.26
-13.30
-18.19
-23.41
-28.67
-33.86
-38.97
-43.92
-48.47
-52.30
-55.04
-56.42
-56.27
-54.57
-51.43
-47.11
-42.09
-37.00
-32.52
-29.18
-27.17
-26.33
-26.13
-25.96
-25.31
-23.93
-21.79
-19.03
-15.82
-12.34
-8.75
-5.23
-1.97
0.82
3.02
4.54
5.41
5.68
5.50
5.06
4.56
4.16
3.91
3.71
3.37
2.64
1.35
-0.62
-3.30
-6.68
-10.67
-15.06
-19.51
-23.53
-26.59
-28.25
-28.24
-26.53
-23.34
-19.03
-14.05
-8.84
-3.81
0.80
4.82
8.19
10.86
12.78
13.83
13.93
13.00
11.14
8.53
5.48
2.35
-0.51
-2.81
-4.31
-4.89
-4.53
-3.37
-1.65
0.33
2.31
4.11
5.67
7.02
8.18
9.12
9.81
10.20
10.32
10.27
10.16
10.04
9.84
9.41
8.56
7.21
5.43
3.44
1.55
0.08
-0.78
-0.93
-0.42
0.55
1.69
2.61
2.90
2.23
0.41
-2.50
-6.25
-10.38
-14.33
-17.62
-19.87
-20.94
-20.86
-19.82
-18.09
-15.98
-13.77
-11.67
-9.81
-8.21
-6.82
-5.58
-4.43
-3.33
-2.27
-1.19
0.02
1.44
3.09
4.83
6.47
7.85
8.92
9.76
10.51
11.21
11.79
12.12
12.12
11.89
11.62
11.56
11.81
12.34
12.95
13.48
13.83
14.07
14.34
14.73
15.21
15.63
15.78
15.50
14.70
13.47
11.89
10.06
8.04
5.82
3.45
1.00
-1.38
-3.60
-5.68
-7.80
-10.27
-13.30
-16.93
-20.90
-24.66
-27.60
-29.22
-29.30
-28.02
-25.80
-23.20
-20.71
-18.60
-16.96
-15.71
-14.73
-13.92
-13.22
-12.61
-12.06
-11.62
-11.34
-11.28
-11.44
-11.71
-11.87
-11.65
-10.92
-9.74
-8.33
-6.99
-5.89
-4.95
-3.92
-2.49
-0.56
1.72
4.01
6.00
7.61
9.04
10.69
12.94
15.94
19.52
23.25
26.53
28.79
29.61
28.85
26.61
23.27
19.43
15.72
12.70
10.72
9.84
9.87
10.44
11.10
11.41
11.01
9.67
7.39
4.34
0.83
-2.78
-6.23
-9.45
-12.52
-15.49
-18.27
-20.54
-21.80
-21.63
-19.87
-16.76
-12.89
-9.00
-5.74
-3.43
-2.09
-1.44
-1.13
-0.79
-0.15
0.94
2.44
4.18
5.88
7.24
8.05
8.23
7.94
7.49
7.28
7.67
8.90
11.06
14.04
17.66
21.69
25.91
30.14
34.24
38.06
41.38
44.00
45.67
46.29
45.93
44.80
43.15
41.15
38.85
36.12
32.88
29.19
25.23
21.26
17.37
13.40
9.02
3.89
-2.05
-8.53
-15.06
-21.12
-26.48
-31.16
-35.43
-39.65
-44.09
-48.92
-54.13
-59.54
-64.81
-69.37
-72.52
-73.61
-72.34
-68.85
-63.75
-57.97
-52.47
-47.94
-44.67
-42.51
-41.00
-39.56
-37.69
-35.10
-31.71
-27.62
-22.97
-17.90
-12.56
-7.17
-2.07
2.32
5.53
7.21
7.26
5.86
3.66
1.81
2.02
6.11
15.35
29.59
46.86
63.76
76.74
83.48
83.90
80.00
74.66
70.07
66.66
63.13
57.38
47.79
33.90
16.31
-3.78
-25.10
-46.40
-66.27
-83.04
-95.00
-101.09
-101.31
-96.91
-89.94
-82.54
-76.25
-71.70
-68.67
-66.40
-63.99
-60.63
-55.80
-49.36
-41.65
-33.37
-25.39
-18.42
-12.87
-8.78
-5.88
-3.79
-2.17
-0.76
0.58
1.91
3.16
4.18
4.79
4.91
4.64
4.25
4.09
4.45
5.38
6.66
7.92
8.86
9.33
9.41
9.25
8.96
8.50
7.72
6.49
4.73
2.47
-0.16
-3.08
-6.14
-9.21
-12.04
-14.40
-16.10
-17.14
-17.70
-18.07
-18.53
-19.20
-20.05
-20.96
-21.92
-23.02
-24.48
-26.56
-29.43
-33.10
-37.42
-41.99
-46.15
-49.07
-49.89
-47.98
-43.15
-35.76
-26.54
-16.32
-5.76
4.82
15.30
25.62
35.55
44.66
52.49
58.65
63.03
65.74
67.04
67.22
66.54
65.25
63.59
61.82
60.14
58.67
57.39
56.23
55.03
53.62
51.89
49.78
47.27
44.31
40.87
36.96
32.61
28.05
23.62
19.76
16.94
15.41
15.20
16.07
17.58
19.27
20.72
21.63
21.80
21.17
19.79
17.82
15.49
12.98
10.34
7.52
4.44
1.24
-1.61
-3.35
-3.14
-0.39
4.94
12.27
20.54
28.52
35.18
39.89
42.53
43.33
42.69
40.95
38.30
34.83
30.61
25.88
21.07
16.77
13.53
11.64
10.99
11.12
11.48
11.68
11.61
11.38
11.15
10.88
10.24
8.79
6.20
2.54
-1.65
-5.54
-8.30
-9.43
-8.87
-6.99
-4.33
-1.44
1.31
3.70
5.68
7.23
8.41
9.37
10.36
11.79
14.02
17.19
21.07
24.87
27.46
27.64
24.65
18.49
9.96
0.45
-8.59
-16.15
-21.89
-26.04
-29.13
-31.56
-33.45
-34.65
-34.96
-34.38
-33.15
-31.70
-30.37
-29.28
-28.36
-27.44
-26.51
-25.78
-25.64
-26.42
-28.14
-30.41
-32.56
-34.01
-34.44
-34.01
-33.15
-32.32
-31.67
-31.05
-30.11
-28.58
-26.45
-24.00
-21.67
-19.78
-18.46
-17.57
-16.84
-16.05
-15.11
-14.10
-13.14
-12.44
-12.17
-12.40
-13.10
-14.02
-14.78
-14.99
-14.40
-13.07
-11.39
-9.96
-9.33
-9.82
-11.41
-13.82
-16.68
-19.65
-22.42
-24.69
-26.17
-26.56
-25.70
-23.69
-20.92
-17.96
-15.39
-13.54
-12.39
-11.67
-11.01
-10.16
-9.14
-8.18
-7.56
-7.43
-7.65
-7.86
-7.66
-6.76
-5.13
-2.92
-0.43
2.11
4.53
6.75
8.69
10.21
11.16
11.39
10.89
9.81
8.43
7.08
5.97
5.19
4.58
3.92
2.97
1.64
0.00
-1.74
-3.38
-4.79
-5.98
-7.04
-8.06
-9.13
-10.28
-11.55
-13.03
-14.80
-16.94
-19.46
-22.29
-25.24
-28.09
-30.57
-32.38
-33.27
-33.11
-31.92
-29.88
-27.33
-24.63
-22.08
-19.85
-17.97
-16.34
-14.89
-13.62
-12.73
-12.50
-13.25
-15.09
-17.84
-20.95
-23.71
-25.40
-25.46
-23.67
-20.09
-15.07
-9.17
-3.10
2.43
6.84
9.83
11.47
12.11
12.31
12.56
13.20
14.31
15.75
17.31
18.72
19.77
20.28
20.14
19.29
17.79
15.80
13.56
11.33
9.31
7.54
5.95
4.39
2.74
0.96
-0.87
-2.60
-4.08
-5.26
-6.16
-6.87
-7.53
-8.30
-9.39
-10.97
-13.04
-15.36
-17.28
-17.94
-16.52
-12.62
-6.47
1.02
8.65
15.35
20.51
24.15
26.70
28.66
30.40
32.01
33.41
34.56
35.53
36.49
37.53
38.62
39.48
39.82
39.44
38.40
36.98
35.54
34.33
33.36
32.45
31.35
29.93
28.23
26.44
24.79
23.43
22.40
21.65
21.13
20.82
20.73
20.92
21.36
21.95
22.52
22.88
22.89
22.50
21.77
20.83
19.74
18.55
17.23
15.74
14.10
12.37
10.67
9.14
7.85
6.81
5.93
5.06
3.99
2.55
0.63
-1.66
-4.01
-5.99
-7.14
-7.16
-6.02
-3.94
-1.27
1.61
4.43
7.03
9.35
11.36
13.02
14.28
15.12
15.55
15.64
15.43
14.95
14.18
13.10
11.73
10.17
8.62
7.32
6.47
6.18
6.47
7.23
8.27
9.32
10.09
10.31
9.87
8.87
7.61
6.55
6.04
6.24
6.98
7.93
8.73
9.23
9.50
9.76
10.23
10.97
11.79
12.43
12.64
12.35
11.69
10.93
10.36
10.15
10.31
10.64
10.89
10.75
10.04
8.67
6.70
4.33
1.84
-0.45
-2.26
-3.40
-3.84
-3.70
-3.22
-2.66
-2.27
-2.19
-2.48
-3.14
-4.12
-5.34
-6.70
-8.06
-9.26
-10.17
-10.68
-10.77
-10.49
-9.94
-9.24
-8.47
-7.70
-6.96
-6.28
-5.71
-5.32
-5.14
-5.15
-5.32
-5.56
-5.79
-5.92
-5.88
-5.63
-5.15
-4.53
-3.89
-3.42
-3.24
-3.33
-3.58
-3.78
-3.82
-3.68
-3.50
-3.44
-3.63
-4.05
-4.63
-5.29
-5.96
-6.65
-7.36
-8.12
-8.96
-9.94
-11.16
-12.71
-14.61
-16.73
-18.78
-20.42
-21.32
-21.30
-20.36
-18.64
-16.44
-14.08
-11.85
-9.91
-8.29
-6.83
-5.31
-3.54
-1.48
0.74
2.85
4.59
5.81
6.55
7.04
7.53
8.23
9.15
10.15
11.05
11.73
12.19
12.57
12.99
13.51
14.02
14.36
14.37
13.99
13.29
12.34
11.13
9.61
7.70
5.42
3.01
0.85
-0.69
-1.38
-1.24
-0.51
0.44
1.30
1.90
2.23
2.37
2.42
2.44
2.38
2.16
1.68
0.88
-0.21
-1.49
-2.79
-3.97
-4.99
-5.87
-6.73
-7.72
-8.92
-10.34
-11.83
-13.14
-13.94
-13.98
-13.10
-11.35
-8.90
-6.05
-3.08
-0.20
2.45
4.83
6.90
8.67
10.12
11.27
12.17
12.87
13.43
13.90
14.29
14.63
14.93
15.22
15.49
15.71
15.85
15.88
15.80
15.65
15.46
15.25
14.95
14.47
13.71
12.68
11.50
10.41
9.65
9.36
9.53
10.04
10.73
11.49
12.26
13.02
13.77
14.48
15.14
15.76
16.39
17.10
17.95
18.92
19.92
20.82
21.43
21.60
21.24
20.35
18.99
17.28
15.27
13.03
10.56
7.89
5.09
2.31
-0.28
-2.49
-4.19
-5.38
-6.15
-6.71
-7.26
-7.94
-8.76
-9.64
-10.41
-10.96
-11.31
-11.58
-11.95
-12.53
-13.31
-14.19
-15.00
-15.61
-15.97
-16.04
-15.83
-15.40
-14.88
-14.46
-14.30
-14.48
-14.93
-15.41
-15.72
-15.74
-15.53
-15.32
-15.36
-15.82
-16.66
-17.69
-18.60
-19.14
-19.14
-18.57
-17.50
-16.10
-14.53
-12.98
-11.62
-10.56
-9.90
-9.67
-9.81
-10.19
-10.64
-11.01
-11.19
-11.19
-11.12
-11.12
-11.29
-11.64
-12.06
-12.32
-12.17
-11.41
-9.94
-7.86
-5.36
-2.74
-0.28
1.82
3.46
4.64
5.46
6.02
6.43
6.71
6.80
6.58
5.96
4.98
3.76
2.59
1.77
1.55
2.02
3.12
4.62
6.22
7.60
8.43
8.38
7.27
5.08
2.17
-0.71
-2.53
-2.33
0.44
5.68
12.68
20.38
27.79
34.26
39.58
43.91
47.55
50.76
53.73
56.47
58.96
61.11
62.85
64.14
65.02
65.45
65.23
63.81
60.38
54.00
43.93
29.86
11.86
-9.60
-33.77
-59.38
-84.56
-106.82
-123.46
-132.32
-132.54
-124.93
-111.70
-95.73
-79.67
-65.37
-53.81
-45.27
-39.74
-37.02
-36.71
-38.20
-40.70
-43.55
-46.34
-48.98
-51.43
-53.51
-54.71
-54.32
-51.83
-47.23
-41.18
-34.80
-29.30
-25.54
-23.81
-23.80
-24.83
-25.97
-26.21
-24.46
-19.80
-11.76
-0.79
11.71
23.54
32.52
37.20
37.40
34.20
29.41
24.76
21.30
19.36
18.80
19.44
21.33
24.67
29.50
35.38
41.48
46.84
50.78
53.08
53.87
53.42
51.88
49.31
45.86
42.02
38.57
36.38
36.02
37.63
40.90
45.40
50.83
57.00
63.67
70.37
76.40
81.10
84.09
85.30
84.55
81.30
74.42
62.74
45.74
24.41
1.26
-20.25
-37.06
-47.48
-51.74
-51.67
-49.92
-49.00
-50.68
-55.84
-64.61
-76.54
-90.62
-105.24
-118.12
-126.67
-128.68
-123.13
-110.77
-94.11
-76.71
-62.01
-52.32
-48.26
-48.96
-52.73
-57.75
-62.43
-65.55
-66.10
-63.40
-57.30
-48.27
-37.35
-25.79
-14.73
-4.95
3.14
9.24
13.09
14.45
13.32
10.08
5.57
0.89
-2.74
-4.37
-3.51
-0.34
4.26
8.90
12.02
12.50
10.01
5.23
-0.37
-5.08
-7.58
-7.38
-4.87
-1.21
2.13
3.74
2.78
-0.76
-5.86
-10.63
-12.87
-10.89
-4.38
5.05
14.15
19.28
18.14
11.47
3.45
0.55
8.83
31.00
64.60
102.60
136.33
159.25
169.64
170.80
168.77
168.74
172.39
177.42
179.63
175.97
166.80
155.97
148.97
150.12
160.68
178.20
197.30
211.77
216.50
208.56
187.42
154.69
113.68
69.20
27.11
-7.49
-30.95
-42.21
-43.03
-37.50
-30.81
-27.75
-31.47
-43.27
-64.06
-94.45
-134.92
-185.54
-245.09
-309.90
-373.28
-425.48
-456.01
-459.24
-436.89
-398.59
-357.98
-326.76
-309.93
-304.32
-301.15
-282.29
-236.52
-163.00
-72.08
20.53
101.85
165.25
208.94
233.28
239.63
229.51
206.47
175.79
143.29
114.00
91.71
78.56
76.26
84.89
100.89
118.65
131.95
136.54
131.66
119.72
104.77
90.66
79.42
70.24
60.87
49.14
34.35
18.54
4.48
-5.57
-10.74
-11.80
-11.02
-10.87
-13.05
-17.80
-23.97
-29.89
-34.08
-35.74
-34.99
-32.65
-29.66
-26.69
-23.95
-21.20
-18.19
-14.80
-11.07
-7.23
-3.57
-0.32
2.35
4.39
5.83
6.71
7.17
7.38
7.48
7.56
7.62
7.67
7.78
8.02
8.44
9.03
9.64
10.09
10.23
10.01
9.49
8.79
8.00
7.13
6.14
5.01
3.79
2.57
1.43
0.39
-0.61
-1.62
-2.68
-3.69
-4.58
-5.28
-5.83
-6.38
-7.08
-8.04
-9.20
-10.44
-11.57
-12.48
-13.17
-13.78
-14.43
-15.22
-16.10
-16.99
-17.76
-18.41
-19.04
-19.79
-20.76
-21.82
-22.62
-22.67
-21.55
-19.08
-15.41
-10.93
-6.17
-1.57
2.58
6.18
9.22
11.70
13.62
14.99
15.85
16.30
16.46
16.51
16.59
16.86
17.38
18.12
18.91
19.50
19.65
19.28
18.50
17.54
16.68
16.06
15.58
15.06
14.28
13.19
11.89
10.58
9.43
8.51
7.73
6.95
6.06
5.04
4.01
3.11
2.42
1.88
1.29
0.43
-0.85
-2.54
-4.50
-6.48
-8.29
-9.88
-11.32
-12.79
-14.43
-16.34
-18.50
-20.88
-23.33
-25.70
-27.67
-28.92
-29.10
-27.98
-25.58
-22.14
-18.08
-13.85
-9.82
-6.17
-2.94
-0.06
2.47
4.59
6.20
7.23
7.69
7.75
7.67
7.67
7.89
8.32
8.85
9.36
9.78
10.16
10.53
10.90
11.23
11.44
11.53
11.55
11.62
11.77
11.91
11.87
11.45
10.63
9.57
8.56
7.86
7.56
7.52
7.46
7.14
6.49
5.62
4.75
4.00
3.37
2.73
1.86
0.61
-1.01
-2.90
-4.89
-6.87
-8.79
-10.69
-12.58
-14.45
-16.25
-17.92
-19.50
-21.10
-22.92
-25.07
-27.53
-30.00
-32.01
-32.99
-32.47
-30.29
-26.63
-21.96
-16.89
-12.02
-7.74
-4.19
-1.34
0.96
2.84
4.40
5.71
6.81
7.75
8.61
9.50
10.50
11.61
12.78
13.87
14.75
15.37
15.73
15.93
16.09
16.24
16.34
16.27
15.97
15.41
14.68
13.88
13.08
12.29
11.47
10.61
9.72
8.89
8.22
7.73
7.32
6.84
6.10
5.02
3.71
2.39
1.28
0.54
0.08
-0.34
-1.00
-2.11
-3.66
-5.46
-7.26
-8.87
-10.24
-11.47
-12.70
-14.06
-15.60
-17.36
-19.35
-21.56
-23.93
-26.27
-28.24
-29.34
-29.05
-27.06
-23.38
-18.43
-12.92
-7.61
-3.09
0.40
2.96
4.84
6.32
7.55
8.61
9.46
10.15
10.75
11.34
11.99
12.65
13.24
13.70
14.01
14.24
14.48
14.79
15.15
15.46
15.59
15.45
15.04
14.43
13.72
13.00
12.33
11.69
11.10
10.52
9.93
9.26
8.42
7.35
6.06
4.68
3.36
2.25
1.37
0.59
-0.30
-1.49
-3.09
-5.02
-7.05
-8.95
-10.54
-11.77
-12.73
-13.63
-14.67
-16.04
-17.82
-20.00
-22.41
-24.70
-26.35
-26.81
-25.67
-22.81
-18.53
-13.43
-8.28
-3.68
0.06
2.94
5.19
7.00
8.44
9.43
9.83
9.66
9.12
8.57
8.36
8.69
9.46
10.43
11.33
11.95
12.29
12.44
12.50
12.47
12.29
11.83
11.02
9.89
8.53
7.08
5.66
4.35
3.15
2.06
1.01
-0.02
-1.05
-2.05
-2.97
-3.77
-4.43
-5.01
-5.63
-6.41
-7.44
-8.74
-10.19
-11.69
-13.13
-14.52
-15.92
-17.43
-19.11
-21.00
-23.12
-25.49
-28.11
-30.89
-33.57
-35.70
-36.72
-36.15
-33.79
-29.81
-24.67
-19.00
-13.35
-8.11
-3.49
0.45
3.67
6.20
8.07
9.38
10.26
10.87
11.37
11.87
12.44
13.10
13.78
14.41
14.91
15.22
15.37
15.43
15.48
15.53
15.53
15.39
15.01
14.37
13.53
12.64
11.81
11.12
10.57
10.05
9.41
8.56
7.49
6.25
4.95
3.66
2.40
1.13
-0.18
-1.55
-2.98
-4.45
-5.97
-7.57
-9.27
-11.08
-12.96
-14.84
-16.70
-18.56
-20.50
-22.68
-25.23
-28.20
-31.46
-34.66
-37.22
-38.50
-37.96
-35.36
-30.88
-25.08
-18.73
-12.58
-7.17
-2.73
0.77
3.47
5.55
7.16
8.43
9.55
10.68
11.99
13.49
15.08
16.54
17.65
18.34
18.72
18.99
19.40
20.06
20.89
21.70
22.23
22.30
21.89
21.10
20.13
19.21
18.46
17.88
17.40
16.88
16.21
15.35
14.31
13.17
12.01
10.90
9.87
8.90
7.95
6.97
5.93
4.78
3.46
1.98
0.33
-1.40
-3.15
-4.84
-6.46
-8.04
-9.64
-11.29
-12.99
-14.75
-16.65
-18.82
-21.42
-24.47
-27.77
-30.83
-33.02
-33.68
-32.44
-29.26
-24.51
-18.82
-12.92
-7.43
-2.77
0.94
3.77
5.88
7.47
8.65
9.49
10.09
10.62
11.28
12.20
13.39
14.70
15.90
16.83
17.47
17.93
18.36
18.82
19.25
19.49
19.42
19.00
18.33
17.52
16.66
15.78
14.87
13.89
12.85
11.73
10.55
9.29
7.92
6.46
4.97
3.61
2.56
1.92
1.63
1.50
1.19
0.40
-1.00
-2.93
-5.13
-7.28
-9.19
-10.84
-12.38
-14.06
-16.11
-18.67
-21.70
-25.00
-28.13
-30.55
-31.70
-31.15
-28.73
-24.61
-19.22
-13.19
-7.15
-1.67
2.83
6.13
8.20
9.16
9.32
9.03
8.69
8.62
8.99
9.80
10.93
12.15
13.29
14.24
14.99
15.64
16.21
16.71
17.02
17.03
16.67
15.95
14.95
13.79
12.57
11.37
10.21
9.15
8.25
7.51
6.90
6.33
5.66
4.81
3.76
2.56
1.31
0.06
-1.20
-2.53
-4.00
-5.68
-7.55
-9.57
-11.64
-13.63
-15.47
-17.19
-18.90
-20.76
-22.98
-25.66
-28.71
-31.87
-34.70
-36.69
-37.34
-36.31
-33.46
-28.97
-23.29
-17.04
-10.90
-5.40
-0.89
2.58
5.13
7.00
8.43
9.68
10.92
12.28
13.78
15.36
16.88
18.21
19.32
20.24
21.12
22.09
23.23
24.46
25.66
26.66
27.30
27.49
27.19
26.44
25.34
24.10
22.94
22.03
21.47
21.20
21.10
20.96
20.56
19.76
18.52
16.96
15.37
14.11
13.48
13.53
13.93
14.11
13.38
11.27
7.66
2.86
-2.62
-8.18
-13.42
-18.16
-22.44
-26.39
-30.15
-33.81
-37.43
-40.99
-44.41
-47.46
-49.76
-50.77
-49.98
-47.05
-42.01
-35.31
-27.77
-20.33
-13.77
-8.49
-4.48
-1.42
1.11
3.43
5.67
7.79
9.70
11.35
12.84
14.35
16.01
17.83
19.65
21.23
22.34
22.90
23.04
22.93
22.81
22.75
22.72
22.53
22.03
21.15
19.94
18.57
17.21
15.94
14.77
13.61
12.38
11.02
9.61
8.24
7.01
5.90
4.81
3.59
2.10
0.34
-1.62
-3.63
-5.59
-7.48
-9.34
-11.24
-13.18
-15.11
-16.93
-18.64
-20.34
-22.31
-24.76
-27.81
-31.25
-34.52
-36.88
-37.54
-36.04
-32.34
-26.91
-20.49
-13.91
-7.83
-2.60
1.65
4.98
7.44
9.09
10.02
10.34
10.29
10.16
10.24
10.69
11.53
12.62
13.73
14.65
15.29
15.70
16.01
16.36
16.76
17.11
17.24
17.01
16.40
15.54
14.57
13.58
12.55
11.32
9.81
8.04
6.19
4.49
3.10
2.00
0.96
-0.25
-1.81
-3.78
-6.06
-8.48
-10.88
-13.15
-15.24
-17.11
-18.78
-20.37
-22.10
-24.24
-27.00
-30.34
-33.90
-36.97
-38.72
-38.43
-35.77
-30.92
-24.52
-17.48
-10.69
-4.78
-0.06
3.53
6.20
8.18
9.66
10.71
11.41
11.86
12.19
12.58
13.14
13.90
14.83
15.83
16.83
17.77
18.63
19.35
19.93
20.30
20.41
20.20
19.65
18.74
17.52
16.06
14.54
13.14
11.99
11.11
10.39
9.59
8.49
6.98
5.15
3.24
1.52
0.13
-0.94
-1.88
-2.92
-4.23
-5.88
-7.84
-10.00
-12.23
-14.42
-16.50
-18.42
-20.24
-22.15
-24.36
-27.14
-30.56
-34.48
-38.44
-41.77
-43.71
-43.64
-41.24
-36.63
-30.34
-23.19
-16.03
-9.59
-4.30
-0.22
2.86
5.29
7.41
9.43
11.43
13.32
14.98
16.32
17.32
18.07
18.68
19.29
19.98
20.77
21.63
22.52
23.34
24.01
24.42
24.50
24.21
23.56
22.62
21.50
20.25
18.91
17.48
15.95
14.31
12.58
10.82
9.21
8.09
7.86
8.82
10.95
13.80
16.64
18.65
19.27
18.38
16.30
13.54
10.55
7.55
4.54
1.39
-1.98
-5.52
-9.10
-12.62
-16.11
-19.75
-23.67
-27.78
-31.68
-34.63
-35.83
-34.72
-31.27
-26.01
-19.86
-13.77
-8.42
-4.08
-0.68
1.99
4.13
5.79
6.94
7.57
7.76
7.70
7.57
7.55
7.68
7.93
8.24
8.52
8.74
8.90
9.02
9.08
9.05
8.84
8.41
7.78
7.00
6.21
5.53
5.03
4.72
4.54
4.39
4.19
3.88
3.43
2.81
2.00
1.03
-0.02
-1.08
-2.11
-3.19
-4.47
-6.09
-8.09
-10.34
-12.62
-14.66
-16.34
-17.70
-18.94
-20.38
-22.29
-24.82
-27.89
-31.17
-34.07
-35.92
-36.10
-34.23
-30.34
-24.78
-18.19
-11.29
-4.73
1.01
5.65
9.11
11.48
12.97
13.85
14.40
14.84
15.32
15.91
16.62
17.45
18.36
19.33
20.34
21.32
22.18
22.80
23.11
23.06
22.66
21.96
21.03
19.91
18.62
17.19
15.65
14.08
12.56
11.13
9.77
8.40
6.92
5.27
3.48
1.62
-0.20
-1.95
-3.66
-5.46
-7.46
-9.71
-12.14
-14.58
-16.89
-19.03
-21.07
-23.25
-25.81
-28.95
-32.70
-36.79
-40.70
-43.66
-44.90
-43.78
-40.13
-34.29
-27.03
-19.35
-12.13
-5.92
-0.89
3.04
6.03
8.22
9.72
10.67
11.33
11.99
12.93
14.23
15.81
17.49
19.07
20.45
21.60
22.54
23.27
23.77
24.09
24.30
24.49
24.65
24.68
24.39
23.58
22.26
20.59
18.86
17.37
16.26
15.46
14.75
13.85
12.53
10.72
8.48
6.06
3.74
1.78
0.23
-1.02
-2.28
-3.87
-5.95
-8.48
-11.21
-13.85
-16.22
-18.39
-20.51
-22.83
-25.48
-28.53
-31.95
-35.63
-39.41
-42.98
-45.79
-47.22
-46.60
-43.57
-38.21
-31.08
-23.06
-15.13
-8.04
-2.20
2.40
6.04
9.06
11.75
14.25
16.55
18.62
20.45
22.15
23.88
25.72
27.59
29.29
30.56
31.24
31.34
31.04
30.56
30.04
29.43
28.60
27.41
25.84
24.01
22.17
20.52
19.15
17.98
16.89
15.71
14.40
12.99
11.58
10.26
9.04
7.91
6.76
5.51
4.13
2.65
1.13
-0.40
-1.94
-3.57
-5.36
-7.32
-9.38
-11.42
-13.31
-15.04
-16.68
-18.42
-20.47
-23.00
-26.14
-29.87
-34.00
-38.14
-41.69
-43.94
-44.20
-42.10
-37.69
-31.46
-24.20
-16.79
-9.88
-3.87
1.10
5.06
8.07
10.25
11.70
12.64
13.30
13.95
14.78
15.89
17.27
18.84
20.49
22.06
23.40
24.38
24.95
25.12
24.95
24.57
24.04
23.41
22.64
21.70
20.61
19.44
18.27
17.18
16.19
15.24
14.23
13.02
11.58
9.95
8.23
6.61
5.20
4.01
2.92
1.71
0.19
-1.75
-4.04
-6.44
-8.70
-10.60
-12.14
-13.49
-14.92
-16.69
-18.92
-21.62
-24.59
-27.57
-30.23
-32.19
-33.03
-32.32
-29.73
-25.16
-18.84
-11.28
-3.20
4.60
11.43
16.81
20.56
22.78
23.75
23.88
23.60
23.22
22.90
22.66
22.58
22.91
24.09
26.54
30.55
36.03
42.42
48.62
53.40
55.94
56.27
55.24
53.98
53.39
53.62
53.88
52.45
47.41
37.76
24.24
9.33
-3.65
-11.57
-12.52
-6.82
2.53
10.69
13.23
8.12
-3.67
-19.26
-35.02
-47.62
-54.80
-56.36
-54.32
-52.79
-57.71
-75.99
-113.51
-171.99
-243.69
-310.29
-349.53
-347.35
-306.57
-243.98
-179.84
-128.19
-93.12
-71.12
-54.26
-38.17
-22.74
-9.43
2.11
15.36
35.69
67.29
108.28
151.85
187.64
206.31
204.15
184.85
156.94
128.54
103.19
79.20
52.80
21.38
-14.00
-49.22
-79.71
-103.13
-119.96
-131.61
-137.95
-136.39
-123.96
-99.90
-67.29
-32.20
-0.96
22.44
37.56
46.53
52.25
56.49
59.84
62.60
65.77
71.10
80.11
93.01
108.05
122.20
132.64
138.32
140.48
141.87
145.09
151.11
158.71
165.04
167.20
163.57
154.42
141.52
127.42
114.32
103.86
97.06
94.22
94.60
95.99
94.50
85.19
63.48
27.08
-22.70
-80.82
-139.91
-192.41
-232.39
-256.43
-263.32
-253.28
-227.56
-188.61
-140.38
-88.18
-37.41
8.19
48.07
84.83
122.52
163.93
208.33
251.15
285.38
304.87
306.57
291.52
263.75
228.22
188.67
146.64
102.13
54.75
5.02
-45.10
-92.35
-132.58
-161.63
-176.33
-175.75
-161.52
-138.01
-111.08
-86.25
-67.33
-56.03
-52.56
-56.48
-67.52
-85.28
-108.53
-134.61
-159.80
-180.57
-195.08
-203.91
-209.19
-212.93
-215.34
-214.31
-206.26
-187.60
-156.65
-114.24
-63.25
-7.49
49.58
105.95
161.28
216.13
270.57
323.01
370.70
410.59
440.49
459.14
466.43
462.46
446.95
419.55
380.51
331.46
275.55
216.62
156.78
96.78
36.35
-24.31
-83.78
-139.67
-189.73
-232.97
-269.94
-303.94
-338.67
-377.68
-422.88
-473.65
-526.41
-574.48
-608.68
-619.28
-601.53
-556.53
-492.54
-422.69
-361.17
-319.52
-303.48
-311.81
-322.44
-314.07
-271.60
-194.60
-96.29
5.28
96.27
170.61
228.57
272.93
304.34
322.74
327.24
318.69
300.80
277.99
254.18
231.64
209.82
184.86
153.26
113.29
68.44
26.48
-4.28
-19.38
-16.14
-0.42
16.73
29.32
33.27
31.35
31.10
39.41
57.75
81.82
104.35
119.59
126.03
124.11
116.65
105.35
90.25
70.26
44.19
11.12
-28.81
-70.38
-110.54
-147.50
-180.37
-207.39
-224.73
-227.01
-210.15
-173.97
-123.50
-69.32
-22.22
10.83
28.43
34.02
33.04
30.05
27.49
27.32
30.63
39.70
56.35
79.91
105.33
124.38
128.72
113.51
79.76
32.05
-22.45
-76.75
-125.51
-165.36
-194.02
-210.18
-213.87
-202.33
-179.51
-153.82
-134.55
-127.20
-131.46
-142.71
-155.03
-165.24
-172.50
-177.98
-182.11
-184.06
-182.22
-176.43
-167.18
-155.63
-143.34
-131.29
-120.48
-110.65
-101.00
-90.84
-80.03
-68.91
-58.05
-47.95
-38.66
-30.36
-21.61
-11.21
1.16
14.88
29.04
43.00
56.77
70.79
85.27
102.87
124.99
151.17
179.29
207.09
233.45
258.79
284.32
310.88
342.83
382.38
428.53
477.50
524.90
567.79
605.58
639.61
672.25
711.71
763.20
825.71
890.99
946.35
979.66
983.79
958.63
874.22
721.90
514.24
281.94
59.23
-130.80
-279.71
-388.69
-463.04
-509.56
-529.99
-528.06
-510.40
-485.21
-459.57
-437.17
-418.04
-400.61
-384.02
-364.58
-341.24
-316.41
-294.06
-277.85
-269.12
-266.92
-269.19
-274.73
-280.68
-284.11
-285.31
-286.37
-289.83
-296.97
-306.63
-314.84
-316.14
-303.84
-274.22
-229.22
-176.00
-124.35
-82.60
-54.70
-37.99
-27.49
-17.59
-4.75
11.46
29.68
48.36
67.01
84.79
102.31
119.43
134.92
146.92
153.51
154.04
149.38
141.67
133.62
127.53
124.10
122.66
121.58
119.46
116.05
112.18
108.79
105.80
102.07
95.81
86.08
73.37
59.23
45.01
30.82
15.79
-0.85
-18.47
-35.03
-47.85
-55.73
-59.28
-60.63
-62.56
-66.83
-73.58
-81.26
-87.52
-90.07
-87.21
-78.07
-63.24
-44.84
-25.74
-8.93
3.42
10.44
12.32
9.94
4.55
-2.46
-9.37
-13.85
-13.44
-6.51
6.97
25.05
44.32
61.14
72.71
77.77
77.19
73.39
69.06
66.42
66.32
68.45
71.78
75.20
77.47
77.81
75.77
71.20
64.29
55.64
46.17
36.64
29.71
26.24
25.48
25.35
23.52
18.64
11.02
2.59
-4.18
-7.45
-7.30
-5.12
-2.76
-1.53
-1.48
-1.53
-0.22
3.49
9.69
17.37
25.23
32.37
38.64
44.62
51.24
59.42
69.70
82.12
95.97
110.09
123.09
133.53
140.40
143.17
141.91
137.19
129.75
120.15
108.69
95.40
80.29
63.67
46.10
28.27
10.67
-6.82
-24.98
-45.05
-68.21
-94.90
-124.27
-154.20
-181.81
-204.27
-219.75
-227.74
-228.95
-224.67
-216.25
-204.71
-190.83
-175.29
-158.83
-142.26
-126.13
-110.70
-96.00
-82.12
-69.37
-58.33
-49.61
-43.52
-39.87
-38.09
-37.54
-37.75
-38.57
-40.14
-42.67
-46.30
-50.99
-56.48
-62.37
-68.17
-73.47
-77.96
-81.53
-84.28
-86.43
-88.23
-89.93
-91.69
-93.51
-95.07
-95.81
-94.94
-91.80
-86.07
-78.00
-68.49
-58.78
-50.00
-42.78
-37.14
-32.70
-29.06
-26.12
-24.19
-23.62
-24.49
-26.39
-28.53
-30.18
-31.05
-31.44
-31.92
-32.97
-34.68
-36.81
-39.05
-41.37
-43.87
-46.50
-48.60
-48.98
-46.25
-39.64
-29.52
-17.31
-4.94
5.93
14.45
20.57
24.74
27.45
29.06
29.84
30.14
30.39
30.95
31.99
33.41
34.97
36.45
37.80
39.02
39.97
40.32
39.71
37.96
35.31
32.43
30.16
29.16
29.64
31.21
33.12
34.69
35.61
36.07
36.60
37.62
39.08
40.53
41.43
41.56
41.35
41.61
43.01
45.54
48.35
50.10
49.68
46.83
42.30
37.40
33.28
30.31
28.03
25.50
21.99
17.36
12.09
6.93
2.49
-0.98
-3.56
-5.36
-6.34
-6.20
-4.61
-1.54
2.61
7.07
10.95
13.62
14.85
14.88
14.16
13.12
11.99
10.67
8.92
6.54
3.62
0.67
-1.63
-2.64
-2.17
-0.52
1.76
4.12
6.39
8.73
11.39
14.43
17.54
20.11
21.56
21.59
20.29
17.99
15.08
11.80
8.26
4.47
0.53
-3.35
-6.79
-9.46
-11.21
-12.21
-12.97
-14.30
-17.12
-22.18
-29.96
-40.38
-52.82
-66.11
-78.80
-89.60
-97.72
-103.10
-106.19
-107.38
-106.48
-102.48
-93.97
-79.96
-60.63
-37.48
-12.83
11.21
33.45
53.78
72.59
89.90
104.99
116.48
123.06
124.21
120.58
113.67
105.20
96.48
87.99
79.64
71.12
62.32
53.56
45.50
38.83
33.84
30.35
27.71
25.18
22.36
19.31
16.55
14.75
14.33
15.23
17.06
19.36
21.99
25.13
29.10
33.97
39.23
44.00
47.35
48.89
49.01
48.83
49.73
52.82
58.42
66.04
74.54
82.64
89.47
94.78
98.97
102.92
107.58
113.64
121.53
131.48
143.63
157.89
173.32
187.77
197.91
200.01
191.23
170.69
139.69
100.80
56.84
10.20
-36.79
-80.91
-117.53
-141.27
-147.67
-135.16
-105.81
-64.51
-17.21
30.76
75.10
112.16
138.18
149.59
144.00
121.58
85.51
40.98
-6.56
-53.10
-96.48
-135.78
-170.25
-198.68
-219.53
-231.72
-235.14
-230.56
-218.92
-200.58
-175.10
-141.82
-100.86
-53.93
-4.55
42.70
83.31
113.95
133.04
140.60
137.61
125.24
104.32
75.70
40.52
0.83
-40.78
-81.87
-121.16
-158.79
-195.80
-232.86
-269.02
-301.48
-326.52
-341.36
-345.75
-342.43
-335.97
-330.85
-329.41
-330.80
-331.46
-326.54
-312.09
-286.73
-252.60
-214.87
-180.14
-154.19
-140.11
-137.60
-143.50
-153.24
-162.39
-167.50
-166.28
-157.28
-139.53
-112.86
-78.16
-37.54
6.06
49.74
91.46
130.36
166.41
199.56
229.10
253.63
271.61
282.17
285.64
283.43
277.39
269.02
258.93
247.05
233.25
217.90
202.01
186.79
172.94
160.29
148.10
135.85
124.07
114.51
109.49
110.82
118.76
131.56
146.00
158.52
166.48
169.06
167.37
163.53
159.45
155.57
150.24
140.26
122.12
93.36
53.45
3.94
-51.90
-109.62
-164.21
-210.57
-244.37
-262.97
-266.16
-256.25
-237.34
-213.88
-189.31
-165.31
-141.98
-118.66
-94.86
-70.68
-46.83
-24.27
-3.94
13.49
27.58
38.23
45.57
49.79
51.11
49.72
45.96
40.30
33.30
25.39
16.63
6.70
-4.82
-17.90
-31.65
-44.36
-53.98
-58.93
-58.74
-54.32
-47.46
-40.10
-33.43
-27.53
-21.49
-14.03
-4.17
8.29
22.65
37.61
51.67
63.60
72.56
78.26
80.84
80.83
78.96
76.08
73.05
70.51
68.88
68.27
68.56
69.41
70.28
70.38
68.94
65.37
59.60
52.26
44.61
37.97
33.25
30.43
28.59
26.38
22.75
17.47
11.23
5.20
0.43
-2.71
-4.55
-5.84
-7.25
-9.10
-11.35
-13.76
-16.18
-18.58
-21.02
-23.49
-25.90
-28.15
-30.27
-32.47
-35.04
-38.17
-41.79
-45.59
-49.10
-51.79
-53.15
-52.73
-50.21
-45.58
-39.27
-32.10
-25.15
-19.26
-14.79
-11.46
-8.56
-5.44
-1.92
1.63
4.58
6.43
7.17
7.30
7.51
8.32
9.88
11.94
14.01
15.68
16.69
17.01
16.79
16.23
15.60
15.13
14.99
15.22
15.78
16.59
17.63
18.91
20.41
21.96
23.17
23.60
22.97
21.35
19.20
17.16
15.68
14.83
14.10
12.70
9.95
5.65
0.18
-5.55
-10.58
-14.13
-15.98
-16.38
-15.94
-15.29
-14.83
-14.69
-14.77
-14.87
-14.77
-14.18
-12.73
-9.98
-5.68
0.08
6.77
13.60
19.76
24.72
28.25
30.35
31.00
30.12
27.65
23.77
19.05
14.28
10.38
7.94
7.22
8.14
10.44
13.79
17.78
21.92
25.72
28.77
30.90
32.15
32.71
32.75
32.39
31.65
30.55
29.21
27.81
26.51
25.40
24.46
23.66
23.05
22.91
23.61
25.35
27.76
29.59
28.72
22.77
10.04
-9.50
-33.70
-58.63
-79.80
-93.67
-98.85
-96.33
-88.73
-79.05
-69.39
-60.52
-52.10
-43.54
-34.60
-25.71
-17.69
-11.17
-6.24
-2.28
1.54
5.78
10.32
14.46
17.29
18.28
17.58
15.97
14.45
13.77
14.15
15.33
16.77
17.99
18.70
18.84
18.50
17.78
16.76
15.49
14.10
12.74
11.56
10.74
10.32
10.25
10.35
10.34
9.98
9.11
7.74
5.99
4.03
1.96
-0.19
-2.39
-4.60
-6.75
-8.71
-10.46
-12.10
-13.85
-15.93
-18.40
-21.15
-23.88
-26.26
-28.11
-29.44
-30.35
-30.88
-30.87
-29.94
-27.71
-24.01
-19.06
-13.50
-8.18
-3.81
-0.72
1.36
3.12
5.37
8.61
12.78
17.24
20.97
22.98
22.62
19.83
15.11
9.40
3.73
-1.05
-4.38
-6.08
-6.24
-5.09
-2.91
0.00
3.37
6.93
10.41
13.59
16.38
18.80
20.94
22.85
24.38
25.21
24.90
23.14
19.94
15.65
10.96
6.57
3.00
0.37
-1.60
-3.37
-5.46
-8.18
-11.54
-15.21
-18.64
-21.31
-22.93
-23.71
-24.15
-24.92
-26.48
-28.78
-31.34
-33.45
-34.56
-34.29
-32.71
-29.87
-25.91
-20.96
-15.23
-9.04
-2.66
3.86
10.78
18.44
27.01
36.10
44.78
51.96
56.74
58.93
58.97
57.71
55.94
54.07
52.12
49.81
46.94
43.36
39.11
34.35
29.29
24.22
19.47
15.32
11.80
8.86
6.06
3.06
-0.31
-3.93
-7.40
-10.33
-12.51
-14.04
-15.16
-16.18
-17.21
-18.18
-18.91
-19.25
-19.17
-18.83
-18.45
-18.25
-18.36
-18.78
-19.44
-20.26
-21.22
-22.39
-23.86
-25.68
-27.78
-29.96
-32.01
-33.81
-35.43
-37.04
-38.77
-40.35
-41.30
-41.00
-38.93
-35.07
-29.89
-24.00
-17.72
-10.74
-2.32
8.12
20.42
33.35
44.99
53.62
58.51
60.22
60.18
59.81
59.71
59.53
58.38
55.54
51.06
45.68
40.33
35.61
31.47
27.35
22.64
17.08
10.83
4.58
-0.91
-5.13
-7.86
-9.27
-9.76
-9.61
-8.99
-7.90
-6.35
-4.64
-3.32
-3.13
-4.67
-8.09
-12.92
-18.24
-22.97
-26.25
-27.78
-27.84
-27.15
-26.62
-27.02
-28.68
-31.39
-34.40
-36.72
-37.51
-36.41
-33.65
-29.85
-25.68
-21.59
-17.70
-13.88
-10.05
-6.28
-2.88
-0.25
1.29
1.63
1.02
-0.08
-1.04
-1.32
-0.59
1.16
3.69
6.58
9.42
11.89
13.76
14.95
15.38
15.05
14.02
12.50
10.86
9.48
8.60
8.22
8.13
8.12
8.11
8.27
8.91
10.25
12.17
14.26
15.93
16.65
16.24
14.82
12.73
10.32
7.87
5.48
3.18
0.94
-1.30
-3.58
-5.92
-8.30
-10.69
-13.06
-15.35
-17.49
-19.35
-20.85
-21.97
-22.87
-23.78
-24.87
-26.09
-27.04
-27.18
-25.96
-23.16
-19.06
-14.27
-9.56
-5.49
-2.27
0.26
2.40
4.48
6.59
8.59
10.05
10.49
9.54
7.14
3.59
-0.54
-4.58
-8.00
-10.56
-12.30
-13.39
-13.98
-14.07
-13.55
-12.31
-10.42
-8.12
-5.76
-3.64
-1.83
-0.10
1.99
4.90
8.90
13.97
19.76
25.73
31.31
36.06
39.74
42.22
43.46
43.43
42.14
39.77
36.65
33.24
29.93
26.95
24.24
21.58
18.80
15.84
12.86
10.04
7.49
5.14
2.79
0.32
-2.29
-4.87
-7.26
-9.34
-11.08
-12.50
-13.54
-14.10
-14.07
-13.45
-12.39
-11.12
-9.76
-8.29
-6.54
-4.42
-1.97
0.63
3.17
5.62
8.20
11.28
15.06
19.40
23.70
27.26
29.51
30.43
30.53
30.58
31.22
32.65
34.67
36.75
38.73
40.64
43.12
46.89
52.54
60.37
70.27
82.22
96.30
112.69
131.41
151.99
173.51
194.97
215.94
236.82
258.53
281.38
303.99
322.92
333.60
332.15
317.21
290.76
257.23
221.68
187.71
156.50
127.10
97.66
66.85
34.42
1.19
-31.80
-63.62
-93.82
-122.21
-148.83
-174.60
-201.55
-232.65
-270.61
-315.76
-364.26
-408.17
-437.31
-442.56
-418.95
-367.38
-294.48
-210.98
-129.41
-61.72
-17.06
-0.13
-10.47
-42.72
-88.60
-139.53
-189.12
-234.46
-276.02
-316.40
-358.49
-404.02
-452.02
-498.41
-536.39
-558.28
-557.97
-533.34
-487.32
-426.56
-359.09
-291.55
-227.72
-168.46
-112.99
-60.16
-9.11
40.73
90.01
139.83
191.69
246.91
305.72
366.25
423.93
472.46
505.83
520.66
517.73
501.52
477.76
450.65
421.11
387.51
348.08
303.33
256.71
212.90
174.79
141.32
107.92
69.50
24.38
-23.51
-65.76
-93.30
-101.04
-90.35
-68.14
-43.00
-20.93
-2.99
13.87
33.68
58.45
87.02
116.55
145.01
172.85
202.28
234.79
268.86
299.56
320.46
326.77
317.84
297.35
271.49
246.06
224.32
206.50
190.79
174.93
157.24
136.84
113.13
85.49
53.26
16.21
-25.12
-69.17
-113.65
-156.17
-194.96
-229.59
-261.46
-293.92
-331.30
-376.92
-430.67
-487.52
-537.82
-570.03
-574.80
-548.60
-495.61
-426.71
-356.18
-297.64
-261.07
-251.52
-269.25
-310.39
-367.36
-429.58
-484.78
-521.46
-531.93
-514.49
-473.86
-419.23
-361.24
-308.50
-265.70
-233.37
-209.10
-189.32
-170.58
-150.29
-126.88
-99.91
-69.94
-38.33
-6.75
23.60
52.22
79.70
107.51
137.56
171.63
210.39
252.62
294.65
330.94
355.58
364.61
357.74
338.79
314.25
290.76
272.55
260.29
251.79
243.89
234.50
223.59
212.75
203.89
197.83
193.83
189.95
184.10
174.99
162.54
147.71
131.74
115.65
99.92
84.77
70.51
57.74
47.29
39.78
35.21
32.84
31.47
29.97
27.72
24.85
22.02
19.94
19.04
19.16
19.63
19.63
18.49
16.02
12.59
8.99
6.09
4.60
4.72
6.12
8.10
9.87
10.87
10.93
10.28
9.25
8.10
6.93
5.67
4.30
2.90
1.67
0.78
0.23
-0.15
-0.59
-1.28
-2.21
-3.18
-3.90
-4.12
-3.79
-3.13
-2.51
-2.41
-3.14
-4.85
-7.48
-10.95
-15.26
-20.41
-26.32
-32.42
-37.78
-41.18
-41.64
-38.83
-33.29
-26.19
-18.85
-12.29
-6.91
-2.64
0.88
3.91
6.55
8.75
10.51
11.98
13.46
15.25
17.43
19.78
21.87
23.21
23.57
23.16
22.60
22.67
23.90
26.27
29.12
31.38
31.97
30.29
26.48
21.39
16.23
12.11
9.48
7.89
6.11
2.57
-3.89
-13.29
-24.32
-34.67
-41.99
-45.10
-44.68
-43.10
-43.47
-48.15
-57.53
-69.87
-81.91
-90.45
-93.81
-92.54
-89.15
-87.20
-90.02
-99.55
-115.48
-134.91
-152.60
-161.81
-156.01
-130.82
-86.25
-27.80
34.09
86.79
119.64
127.91
114.50
88.62
61.52
41.80
32.35
30.75
32.30
33.92
36.34
43.28
58.63
83.23
113.77
144.27
169.05
185.20
193.29
195.87
195.13
191.31
182.78
167.54
145.06
117.29
88.01
61.36
40.21
25.30
15.56
9.14
4.43
0.69
-2.07
-3.53
-3.51
-2.19
-0.13
1.95
3.30
3.31
1.62
-1.76
-6.52
-12.11
-17.93
-23.55
-28.65
-33.08
-36.69
-39.34
-40.94
-41.57
-41.61
-41.71
-42.66
-45.20
-49.67
-55.81
-62.65
-68.80
-72.78
-73.53
-70.76
-64.94
-57.21
-48.95
-41.49
-35.86
-32.58
-31.64
-32.39
-33.74
-34.33
-32.87
-28.53
-21.21
-11.59
-0.92
9.32
17.81
23.81
27.28
28.79
29.32
29.75
30.62
31.90
33.09
33.53
32.65
30.25
26.45
21.70
16.49
11.21
6.09
1.12
-3.84
-9.01
-14.63
-20.87
-27.68
-34.77
-41.57
-47.33
-51.17
-52.32
-50.31
-45.12
-37.30
-27.94
-18.42
-10.14
-4.07
-0.53
0.84
0.87
0.51
0.45
0.99
2.11
3.67
5.64
8.09
11.08
14.57
18.35
22.10
25.52
28.38
30.51
31.75
31.91
30.88
28.72
25.69
22.19
18.71
15.69
13.41
12.05
11.56
11.63
11.76
11.37
10.11
8.01
5.51
3.18
1.39
0.08
-1.15
-2.71
-4.72
-6.85
-8.55
-9.28
-8.83
-7.41
-5.53
-3.81
-2.77
-2.75
-3.78
-5.59
-7.73
-9.70
-11.18
-12.12
-12.73
-13.28
-13.96
-14.74
-15.46
-16.01
-16.43
-16.83
-17.32
-17.85
-18.25
-18.35
-18.17
-17.98
-18.17
-19.07
-20.67
-22.61
-24.22
-24.81
-23.92
-21.52
-17.94
-13.75
-9.58
-5.93
-3.10
-1.16
0.05
0.79
1.30
1.72
2.05
2.24
2.27
2.25
2.35
2.74
3.42
4.26
5.03
5.66
6.24
7.09
8.58
10.88
13.81
16.94
19.71
21.68
22.68
22.83
22.48
21.93
21.33
20.69
19.90
18.93
17.87
16.99
16.54
16.61
17.05
17.56
17.93
18.08
18.16
18.43
19.08
20.05
21.05
21.65
21.48
20.38
18.50
16.16
13.71
11.38
9.14
6.90
4.61
2.38
0.44
-1.13
-2.51
-4.20
-6.69
-10.14
-14.02
-17.23
-18.59
-17.38
-13.69
-8.47
-3.13
1.19
3.97
5.52
6.57
7.83
9.60
11.49
12.65
12.32
10.25
6.89
3.29
0.55
-0.76
-0.76
-0.23
0.02
-0.46
-1.55
-2.77
-3.57
-3.79
-3.67
-3.70
-4.30
-5.58
-7.23
-8.76
-9.75
-10.06
-9.86
-9.51
-9.31
-9.31
-9.25
-8.78
-7.71
-6.35
-5.42
-5.80
-7.97
-11.69
-15.99
-19.65
-21.73
-22.03
-21.18
-20.14
-19.73
-20.25
-21.41
-22.72
-23.83
-24.71
-25.62
-26.71
-27.85
-28.51
-27.98
-25.75
-21.73
-16.36
-10.47
-4.91
-0.29
3.10
5.41
6.92
7.90
8.47
8.66
8.46
7.90
7.08
6.16
5.33
4.79
4.76
5.41
6.76
8.61
10.62
12.35
13.49
13.95
13.86
13.39
12.66
11.66
10.35
8.82
7.34
6.33
6.18
6.98
8.52
10.24
11.44
11.66
10.96
9.95
9.67
11.24
15.30
21.75
29.77
38.14
45.61
51.32
54.88
56.36
55.96
53.87
50.13
44.64
37.29
28.07
17.11
4.74
-8.61
-22.45
-36.16
-49.09
-60.56
-69.97
-76.99
-81.62
-84.03
-84.49
-83.13
-79.92
-74.70
-67.45
-58.37
-47.63
-35.27
-21.09
-4.78
13.60
33.24
52.72
70.37
84.71
94.67
99.39
98.07
89.94
74.78
53.32
27.45
-0.14
-26.67
-49.84
-68.14
-80.61
-86.70
-86.33
-80.19
-69.91
-57.75
-46.01
-36.20
-28.81
-23.43
-19.21
-15.44
-11.57
-7.25
-2.27
3.35
9.14
14.06
16.86
16.50
12.77
6.51
-0.72
-7.16
-11.65
-13.86
-14.31
-13.98
-13.88
-14.67
-16.68
-19.95
-24.43
-29.81
-35.37
-39.92
-42.05
-40.69
-35.59
-27.56
-18.14
-9.00
-1.25
4.80
9.55
13.67
17.66
21.67
25.59
29.17
32.29
34.87
36.78
37.83
37.89
36.97
35.36
33.54
31.92
30.73
29.89
29.07
27.99
26.54
24.73
22.70
20.70
18.87
17.33
16.20
15.53
15.18
15.07
15.31
16.13
17.66
19.70
21.74
23.24
24.02
24.46
25.23
26.66
28.14
28.12
24.71
16.87
5.04
-8.82
-22.24
-33.36
-41.74
-48.20
-54.01
-59.87
-65.36
-69.19
-69.81
-66.15
-58.29
-47.57
-36.04
-25.68
-17.82
-12.71
-9.70
-7.76
-6.05
-4.33
-2.88
-2.06
-1.89
-1.87
-1.16
0.94
4.59
9.26
13.96
17.76
20.19
21.39
21.96
22.63
23.91
25.85
28.07
29.88
30.63
29.92
27.79
24.65
21.23
18.25
16.25
15.37
15.33
15.63
15.69
15.16
13.95
12.25
10.39
8.73
7.56
6.96
6.76
6.59
5.94
4.42
1.91
-1.34
-4.83
-8.00
-10.57
-12.58
-14.42
-16.53
-19.25
-22.63
-26.45
-30.25
-33.42
-35.41
-35.80
-34.53
-31.93
-28.58
-25.10
-21.80
-18.58
-15.04
-10.76
-5.53
0.54
7.20
14.25
21.62
29.40
37.57
45.88
53.69
60.16
64.51
66.23
65.28
62.01
57.02
51.01
44.60
38.41
32.94
28.58
25.45
23.29
21.52
19.46
16.75
13.54
10.57
8.75
8.68
10.30
12.90
15.55
17.47
18.32
18.18
17.41
16.32
15.12
13.86
12.52
11.01
9.21
7.02
4.40
1.39
-1.90
-5.34
-8.85
-12.36
-15.71
-18.75
-21.32
-23.49
-25.60
-28.25
-31.89
-36.56
-41.61
-45.80
-47.79
-46.67
-42.38
-35.77
-28.30
-21.46
-16.22
-12.81
-10.72
-9.14
-7.31
-4.88
-1.98
0.96
3.49
5.27
6.24
6.51
6.31
5.86
5.30
4.71
4.17
3.64
3.04
2.21
0.89
-1.12
-3.98
-7.62
-11.81
-16.13
-20.11
-23.42
-25.88
-27.46
-28.20
-28.05
-26.84
-24.54
-21.32
-17.65
-14.28
-11.86
-10.69
-10.54
-10.82
-10.83
-10.15
-8.75
-6.95
-5.19
-3.83
-3.02
-2.80
-3.20
-4.28
-6.14
-8.73
-11.68
-14.25
-15.43
-14.24
-10.17
-3.54
4.54
12.49
18.79
22.64
24.11
24.05
23.54
23.34
23.66
24.23
24.60
24.54
24.11
23.60
23.28
23.16
23.07
22.69
21.82
20.50
19.01
17.72
16.95
16.77
17.01
17.26
17.10
16.25
14.68
12.65
10.62
9.00
7.99
7.53
7.26
6.80
5.79
4.11
1.84
-0.74
-3.27
-5.42
-6.96
-7.86
-8.33
-8.79
-9.66
-11.23
-13.47
-16.09
-18.60
-20.65
-22.07
-22.93
-23.43
-23.81
-24.40
-25.64
-28.04
-31.88
-36.93
-42.12
-45.86
-46.58
-43.46
-36.91
-28.43
-19.92
-12.93
-8.07
-5.02
-2.97
-1.13
0.96
3.39
6.11
9.09
12.33
15.70
18.98
21.83
24.04
25.64
26.88
28.08
29.41
30.84
32.16
33.17
33.77
33.92
33.52
32.44
30.48
27.59
23.97
20.04
16.38
13.44
11.46
10.40
10.04
10.08
10.16
9.96
9.18
7.64
5.37
2.60
-0.28
-2.88
-4.93
-6.36
-7.26
-7.86
-8.40
-9.06
-9.93
-10.96
-11.95
-12.63
-12.71
-12.08
-10.90
-9.61
-8.83
-9.12
-10.73
-13.45
-16.59
-19.25
-20.50
-19.70
-16.73
-11.99
-6.28
-0.57
4.31
7.89
10.13
11.40
12.28
13.26
14.59
16.21
17.80
18.99
19.46
19.16
18.22
16.95
15.65
14.56
13.78
13.34
13.28
13.70
14.71
16.35
18.48
20.69
22.41
23.10
22.51
20.88
18.79
16.96
15.97
15.90
16.43
16.89
16.57
14.96
11.92
7.78
3.17
-1.15
-4.65
-7.12
-8.78
-10.03
-11.24
-12.53
-13.83
-14.97
-15.86
-16.60
-17.37
-18.35
-19.59
-21.13
-22.98
-25.24
-27.92
-30.88
-33.70
-35.69
-36.19
-34.74
-31.27
-26.14
-19.97
-13.54
-7.64
-2.92
0.29
2.11
3.02
3.67
4.49
5.41
5.97
5.56
3.85
0.97
-2.61
-6.41
-10.27
-14.30
-18.61
-22.84
-26.16
-27.53
-26.33
-22.82
-18.21
-14.08
-11.60
-10.92
-11.07
-10.50
-7.82
-2.64
4.31
11.54
17.48
21.21
22.73
22.75
22.17
21.58
21.12
20.56
19.69
18.49
17.10
15.69
14.25
12.62
10.53
7.86
4.53
0.66
-3.62
-8.15
-12.78
-17.39
-21.85
-26.12
-30.18
-33.92
-37.01
-38.87
-38.88
-36.69
-32.40
-26.72
-20.62
-14.98
-10.35
-6.73
-3.81
-1.19
1.33
3.76
5.91
7.62
8.90
9.94
11.00
12.32
13.85
15.40
16.66
17.40
17.61
17.52
17.40
17.43
17.57
17.62
17.35
16.67
15.66
14.55
13.64
13.12
13.00
13.08
13.08
12.72
11.87
10.69
9.41
8.28
7.36
6.46
5.38
4.02
2.46
0.85
-0.75
-2.59
-5.01
-8.26
-12.23
-16.41
-20.09
-22.72
-24.24
-25.02
-25.70
-26.86
-28.86
-31.75
-35.32
-39.10
-42.35
-44.22
-43.95
-41.18
-36.19
-29.79
-23.09
-17.02
-12.07
-8.21
-5.07
-2.24
0.51
3.20
5.73
8.04
10.15
12.18
14.26
16.41
18.59
20.73
22.79
24.87
27.20
29.95
33.14
36.51
39.64
41.99
43.25
43.29
42.32
40.70
38.88
37.26
36.19
35.85
36.25
37.25
38.50
39.51
39.77
38.88
36.72
33.46
29.55
25.52
21.77
18.48
15.50
12.66
9.79
6.91
4.15
1.55
-0.93
-3.40
-5.91
-8.29
-10.23
-11.51
-12.24
-13.01
-14.66
-17.90
-22.88
-28.99
-35.02
-39.60
-41.73
-41.06
-37.95
-33.23
-27.81
-22.45
-17.59
-13.49
-10.15
-7.45
-5.07
-2.62
0.19
3.38
6.53
8.93
9.88
9.20
7.42
5.67
5.12
6.27
8.67
11.03
11.89
10.38
6.62
1.65
-3.15
-6.58
-8.09
-7.76
-6.15
-4.07
-2.32
-1.61
-2.39
-4.73
-8.24
-12.16
-15.53
-17.53
-17.65
-15.84
-12.51
-8.51
-4.99
-3.06
-3.51
-6.34
-10.71
-15.19
-18.28
-19.06
-17.53
-14.56
-11.51
-9.73
-10.19
-13.21
-18.39
-24.68
-30.58
-34.46
-35.07
-31.93
-25.53
-17.24
-8.87
-2.02
2.34
4.16
4.19
3.59
3.45
4.41
6.47
9.10
11.49
12.94
13.13
12.21
10.69
9.12
7.94
7.44
7.70
8.72
10.43
12.57
14.69
16.17
16.46
15.24
12.70
9.48
6.49
4.53
4.07
5.04
6.87
8.78
9.94
9.84
8.37
6.00
3.46
1.59
0.94
1.55
2.95
4.26
4.70
3.75
1.40
-1.96
-5.76
-9.43
-12.57
-14.92
-16.45
-17.29
-17.89
-18.88
-20.99
-24.69
-29.81
-35.49
-40.26
-42.61
-41.52
-37.04
-30.20
-22.70
-16.18
-11.58
-9.03
-7.85
-7.15
-6.19
-4.64
-2.50
0.02
2.62
5.03
7.00
8.36
9.02
9.06
8.76
8.46
8.50
9.04
10.10
11.53
13.17
14.79
16.13
16.96
17.09
16.44
15.15
13.59
12.27
11.69
12.22
13.94
16.66
19.90
23.16
25.91
27.78
28.56
28.24
27.01
25.25
23.41
21.80
20.50
19.28
17.67
15.23
11.80
7.67
3.40
-0.32
-3.08
-4.85
-6.00
-7.13
-8.80
-11.36
-14.90
-19.17
-23.63
-27.45
-29.71
-29.65
-26.99
-22.15
-16.20
-10.50
-6.19
-3.75
-2.89
-2.78
-2.54
-1.64
-0.05
1.90
3.78
5.39
6.73
7.95
9.14
10.29
11.26
11.95
12.33
12.46
12.41
12.27
12.14
12.15
12.49
13.25
14.35
15.45
16.06
15.86
14.79
13.11
11.33
9.90
9.02
8.72
8.92
9.48
10.31
11.05
11.16
10.06
7.49
3.81
-0.00
-2.80
-3.87
-3.25
-1.81
-0.69
-0.76
-2.24
-4.80
-7.91
-11.27
-15.00
-19.36
-24.35
-29.43
-33.56
-35.67
-35.03
-31.61
-26.13
-19.68
-13.34
-7.84
-3.48
-0.14
2.47
4.70
6.87
9.16
11.71
14.63
17.90
21.43
25.01
28.25
30.61
31.51
30.46
27.30
22.28
16.09
9.54
3.40
-1.94
-6.42
-10.22
-13.67
-16.97
-20.15
-23.09
-25.48
-26.89
-26.89
-25.17
-21.71
-16.93
-11.59
-6.58
-2.66
-0.16
1.06
1.37
1.21
0.82
0.19
-0.78
-2.19
-3.97
-5.98
-8.01
-9.99
-11.96
-14.07
-16.48
-19.28
-22.46
-25.87
-29.27
-32.34
-34.72
-36.06
-36.07
-34.61
-31.75
-27.84
-23.42
-19.12
-15.42
-12.54
-10.29
-8.27
-6.06
-3.46
-0.52
2.47
5.26
7.75
10.05
12.35
14.80
17.36
19.88
22.14
23.97
25.28
26.04
26.32
26.13
25.44
24.29
22.73
20.87
18.89
16.95
15.18
13.66
12.40
11.38
10.59
9.97
9.37
8.54
7.23
5.30
2.90
0.38
-1.81
-3.35
-4.30
-4.98
-5.79
-6.97
-8.40
-9.65
-10.26
-9.97
-8.83
-7.21
-5.55
-4.24
-3.54
-3.61
-4.52
-6.22
-8.39
-10.39
-11.48
-11.04
-8.90
-5.51
-1.82
1.19
2.90
3.35
3.12
3.03
3.72
5.43
7.93
10.72
13.22
15.04
16.03
16.33
16.27
16.18
16.30
16.61
16.94
17.04
16.79
16.23
15.64
15.40
15.72
16.62
17.80
18.83
19.36
19.32
18.96
18.80
19.26
20.45
22.00
23.20
23.32
22.00
19.39
16.12
12.86
10.06
7.72
5.47
2.88
-0.21
-3.64
-6.96
-9.75
-11.75
-13.00
-13.75
-14.33
-15.12
-16.39
-18.30
-20.82
-23.64
-26.25
-27.99
-28.34
-27.00
-23.99
-19.66
-14.51
-9.15
-4.23
-0.31
2.25
3.37
3.36
2.73
2.05
1.57
1.26
0.80
-0.03
-1.19
-2.33
-3.00
-2.95
-2.28
-1.45
-0.94
-1.09
-1.88
-3.03
-4.20
-5.18
-6.00
-6.84
-7.87
-9.09
-10.31
-11.08
-10.87
-9.25
-6.04
-1.55
3.48
8.14
11.60
13.44
13.64
12.50
10.31
7.20
3.24
-1.39
-6.08
-9.95
-12.09
-12.17
-10.72
-9.05
-8.65
-10.49
-14.56
-19.91
-25.21
-29.37
-31.95
-33.13
-33.32
-32.86
-31.77
-29.94
-27.32
-24.14
-20.76
-17.51
-14.50
-11.54
-8.42
-4.89
-1.02
3.05
7.05
10.68
13.67
15.82
17.12
17.71
17.93
18.16
18.56
19.01
19.10
18.39
16.68
14.20
11.56
9.43
8.19
7.78
7.72
7.48
6.75
5.63
4.51
3.80
3.63
3.85
4.04
3.83
3.04
1.80
0.38
-0.98
-2.18
-3.28
-4.43
-5.75
-7.24
-8.90
-10.66
-12.40
-13.98
-15.24
-16.16
-16.79
-17.42
-18.39
-19.96
-22.22
-24.95
-27.79
-30.25
-31.89
-32.36
-31.49
-29.24
-25.81
-21.61
-17.22
-13.19
-9.83
-7.20
-5.02
-2.85
-0.35
2.66
6.10
9.78
13.44
16.96
20.22
23.25
26.10
28.78
31.33
33.65
35.65
37.20
38.26
38.81
38.93
38.65
37.89
36.49
34.33
31.46
28.20
25.15
22.90
21.86
22.00
22.82
23.54
23.41
22.06
19.71
17.05
14.95
13.98
14.13
14.76
14.98
14.06
11.83
8.71
5.41
2.53
0.23
-1.65
-3.42
-5.22
-7.02
-8.74
-10.43
-12.32
-14.66
-17.46
-20.33
-22.56
-23.46
-22.70
-20.49
-17.44
-14.31
-11.73
-10.01
-9.15
-8.92
-8.98
-9.00
-8.74
-8.17
-7.44
-6.79
-6.45
-6.46
-6.70
-6.95
-7.06
-7.14
-7.40
-8.02
-8.74
-8.87
-7.45
-3.77
2.06
8.92
15.02
18.69
19.21
17.10
13.82
10.94
9.31
8.66
7.97
6.25
3.19
-0.61
-4.05
-6.21
-6.91
-6.77
-6.77
-7.67
-9.58
-12.00
-14.16
-15.49
-15.94
-15.97
-16.32
-17.51
-19.67
-22.49
-25.45
-28.06
-29.98
-31.02
-31.01
-29.84
-27.42
-23.89
-19.65
-15.27
-11.26
-7.87
-5.05
-2.52
-0.08
2.27
4.29
5.68
6.35
6.44
6.35
6.46
6.97
7.81
8.73
9.41
9.68
9.56
9.20
8.87
8.73
8.81
8.96
8.92
8.47
7.59
6.49
5.49
4.87
4.68
4.67
4.45
3.71
2.35
0.61
-1.13
-2.36
-2.61
-1.59
0.59
3.34
5.62
6.23
4.44
0.32
-5.15
-10.46
-14.29
-16.09
-16.26
-15.78
-15.72
-16.66
-18.67
-21.44
-24.57
-27.71
-30.43
-32.20
-32.44
-30.69
-26.95
-21.77
-16.15
-11.21
-7.75
-5.92
-5.23
-4.82
-3.90
-2.11
0.33
2.82
4.72
5.69
5.81
5.50
5.23
5.29
5.76
6.68
8.16
10.51
14.00
18.63
23.96
29.16
33.40
36.12
37.25
37.12
36.18
34.76
33.00
30.89
28.44
25.74
22.92
19.98
16.83
13.29
9.38
5.41
1.91
-0.55
-1.65
-1.48
-0.50
0.69
1.55
1.85
1.66
1.17
0.59
0.00
-0.62
-1.35
-2.24
-3.35
-4.80
-6.79
-9.47
-12.77
-16.22
-19.06
-20.44
-19.78
-17.09
-13.03
-8.67
-5.13
-3.05
-2.45
-2.73
-2.93
-2.24
-0.28
2.69
5.94
8.66
10.41
11.23
11.56
11.98
12.83
14.05
15.33
16.35
16.99
17.43
17.87
18.40
18.83
18.78
17.91
16.13
13.71
11.18
9.17
8.10
8.00
8.52
9.08
9.16
8.47
7.04
5.18
3.23
1.62
0.61
0.27
0.46
0.85
1.11
1.00
0.48
-0.27
-0.92
-1.30
-1.53
-2.06
-3.57
-6.60
-11.24
-17.05
-23.16
-28.44
-31.74
-32.13
-29.07
-22.64
-13.71
-3.94
4.53
9.73
10.47
6.91
0.49
-6.61
-12.30
-15.19
-14.97
-12.19
-7.84
-3.05
1.23
4.29
5.75
5.66
4.44
2.76
1.34
0.60
0.57
0.86
0.89
0.10
-1.90
-5.16
-9.28
-13.43
-16.45
-17.20
-14.96
-9.76
-2.50
5.43
12.58
17.94
21.16
22.47
22.26
20.89
18.44
14.92
10.40
5.14
-0.39
-5.70
-10.44
-14.44
-17.69
-20.22
-22.10
-23.41
-24.33
-25.09
-25.90
-26.79
-27.50
-27.60
-26.68
-24.60
-21.56
-17.94
-14.23
-10.70
-7.52
-4.72
-2.41
-0.58
0.83
2.05
3.32
4.78
6.32
7.66
8.57
8.98
9.09
9.16
9.30
9.40
9.23
8.70
7.97
7.44
7.44
8.02
8.86
9.40
9.19
8.10
6.43
4.70
3.46
3.03
3.44
4.43
5.54
6.33
6.44
5.78
4.51
2.92
1.26
-0.49
-2.48
-4.93
-7.83
-10.92
-13.75
-16.01
-17.73
-19.37
-21.52
-24.59
-28.59
-33.06
-37.34
-40.76
-42.77
-42.97
-41.11
-37.07
-31.04
-23.56
-15.42
-7.46
-0.25
6.07
11.65
16.72
21.30
25.21
28.22
30.28
31.70
32.87
34.11
35.39
36.36
36.66
36.16
35.16
34.17
33.68
33.81
34.30
34.70
34.64
34.04
33.06
31.95
30.84
29.64
28.19
26.37
24.24
22.03
20.01
18.28
16.75
15.21
13.44
11.46
9.47
7.78
6.58
5.81
5.13
4.20
2.86
1.21
-0.46
-1.96
-3.34
-4.88
-6.93
-9.62
-12.78
-15.93
-18.50
-19.97
-20.16
-19.16
-17.32
-15.17
-13.20
-11.72
-10.80
-10.23
-9.63
-8.64
-7.08
-5.11
-3.11
-1.50
-0.54
-0.17
-0.06
0.26
1.19
2.88
5.17
7.55
9.31
9.70
8.17
4.59
-0.69
-6.86
-12.96
-18.06
-21.66
-23.65
-24.34
-24.13
-23.36
-22.18
-20.54
-18.41
-15.94
-13.49
-11.62
-10.86
-11.47
-13.28
-15.73
-18.07
-19.71
-20.45
-20.60
-20.73
-21.45
-23.03
-25.36
-28.05
-30.51
-32.23
-32.71
-31.56
-28.46
-23.21
-15.97
-7.33
1.66
9.82
16.13
20.22
22.40
23.57
24.77
26.61
29.08
31.48
32.95
32.84
31.22
28.84
26.77
25.89
26.39
27.78
29.15
29.68
29.02
27.41
25.35
23.25
21.24
19.09
16.49
13.30
9.63
5.84
2.39
-0.31
-1.98
-2.56
-2.17
-1.19
-0.16
0.34
-0.09
-1.58
-3.92
-6.66
-9.36
-11.66
-13.40
-14.58
-15.33
-15.99
-17.06
-19.17
-22.84
-28.34
-35.36
-43.07
-50.21
-55.51
-58.03
-57.47
-54.23
-49.24
-43.63
-38.27
-33.55
-29.29
-24.89
-19.78
-13.70
-6.96
-0.30
5.39
9.57
12.25
13.92
15.30
16.97
19.16
21.70
24.27
26.57
28.49
30.07
31.38
32.44
33.12
33.23
32.57
31.16
29.22
27.20
25.70
25.15
25.73
27.16
28.82
30.06
30.46
30.07
29.28
28.60
28.29
28.21
27.89
26.82
24.81
22.10
19.17
16.53
14.38
12.47
10.29
7.38
3.51
-1.22
-6.48
-11.91
-17.11
-21.72
-25.32
-27.44
-27.71
-26.12
-23.12
-19.55
-16.31
-14.00
-12.71
-11.92
-10.93
-9.12
-6.32
-2.82
0.71
3.69
5.79
7.10
8.05
9.14
10.70
12.68
14.76
16.47
17.48
17.77
17.63
17.45
17.54
17.96
18.51
18.87
18.76
18.12
17.10
15.98
15.02
14.38
14.03
13.80
13.43
12.70
11.45
9.67
7.31
4.41
0.94
-3.03
-7.32
-11.59
-15.36
-18.29
-20.29
-21.74
-23.27
-25.58
-29.08
-33.61
-38.40
-42.28
-44.10
-43.15
-39.43
-33.62
-26.84
-20.30
-14.89
-11.05
-8.75
-7.63
-7.18
-6.93
-6.56
-5.87
-4.75
-3.18
-1.17
1.21
3.79
6.34
8.59
10.34
11.55
12.41
13.22
14.22
15.43
16.59
17.31
17.25
16.35
14.90
13.36
12.15
11.42
10.96
10.38
9.28
7.54
5.32
2.97
0.82
-0.95
-2.36
-3.56
-4.74
-6.07
-7.66
-9.55
-11.66
-13.87
-15.94
-17.67
-18.94
-19.77
-20.32
-20.87
-21.76
-23.28
-25.60
-28.55
-31.54
-33.66
-33.93
-31.76
-27.29
-21.34
-15.14
-9.76
-5.69
-2.77
-0.44
1.84
4.34
6.98
9.50
11.67
13.36
14.58
15.46
16.18
16.92
17.76
18.60
19.19
19.27
18.72
17.74
16.79
16.33
16.51
17.05
17.37
16.88
15.38
13.25
11.14
9.69
9.10
9.10
9.07
8.49
7.18
5.42
3.65
2.28
1.41
0.86
0.33
-0.42
-1.48
-2.86
-4.52
-6.45
-8.66
-11.05
-13.47
-15.69
-17.53
-18.98
-20.22
-21.60
-23.43
-25.95
-29.14
-32.63
-35.83
-37.93
-38.18
-36.16
-31.86
-25.76
-18.68
-11.43
-4.71
1.18
6.26
10.74
14.83
18.68
22.26
25.58
28.67
31.67
34.71
37.76
40.55
42.67
43.73
43.64
42.63
41.25
40.00
39.14
38.54
37.78
36.40
34.21
31.33
28.12
25.07
22.54
20.74
19.68
19.22
19.16
19.31
19.48
19.57
19.51
19.25
18.84
18.28
17.53
16.55
15.27
13.66
11.85
9.99
8.23
6.56
4.82
2.74
0.12
-3.07
-6.66
-10.43
-14.22
-17.96
-21.53
-24.62
-26.74
-27.32
-26.06
-23.19
-19.42
-15.75
-12.94
-11.26
-10.35
-9.53
-8.21
-6.25
-3.99
-2.05
-0.95
-0.80
-1.28
-1.76
-1.65
-0.77
0.67
2.09
2.99
3.12
2.70
2.18
1.96
2.18
2.59
2.75
2.28
1.10
-0.60
-2.50
-4.31
-5.94
-7.43
-8.87
-10.29
-11.67
-12.99
-14.34
-15.84
-17.57
-19.52
-21.50
-23.25
-24.50
-25.11
-25.09
-24.60
-24.01
-23.80
-24.51
-26.52
-29.77
-33.65
-37.04
-38.76
-38.00
-34.68
-29.54
-23.74
-18.43
-14.28
-11.40
-9.44
-7.96
-6.60
-5.27
-3.97
-2.70
-1.41
-0.04
1.41
2.82
4.01
4.80
5.20
5.37
5.66
6.40
7.73
9.47
11.14
12.10
11.88
10.41
8.05
5.54
3.57
2.45
1.95
1.45
0.22
-2.12
-5.44
-9.25
-12.87
-15.85
-18.03
-19.57
-20.75
-21.84
-23.01
-24.33
-25.85
-27.50
-29.04
-30.08
-30.13
-28.85
-26.25
-22.83
-19.53
-17.38
-17.13
-18.85
-21.75
-24.43
-25.35
-23.49
-18.71
-11.81
-4.13
2.98
8.68
12.83
15.91
18.52
21.09
23.64
25.83
27.29
27.88
27.81
27.54
27.58
28.12
29.00
29.74
29.84
29.08
27.62
25.93
24.50
23.59
23.06
22.45
21.27
19.26
16.63
13.94
11.88
10.86
10.85
11.35
11.69
11.34
10.13
8.31
6.37
4.72
3.52
2.57
1.43
-0.33
-2.95
-6.30
-9.93
-13.32
-16.08
-18.14
-19.73
-21.22
-22.91
-24.82
-26.77
-28.55
-30.02
-31.14
-31.81
-31.76
-30.43
-27.26
-22.02
-15.03
-7.22
0.29
6.59
11.40
15.07
18.26
21.47
24.71
27.55
29.35
29.77
28.91
27.35
25.73
24.56
23.93
23.56
23.04
22.11
20.81
19.48
18.57
18.35
18.74
19.29
19.31
18.23
15.88
12.59
9.19
6.59
5.46
5.94
7.57
9.59
11.21
11.92
11.66
10.74
9.56
8.37
7.13
5.58
3.44
0.69
-2.40
-5.40
-7.92
-9.90
-11.65
-13.66
-16.36
-19.94
-24.26
-28.92
-33.52
-37.65
-41.01
-43.24
-43.78
-41.94
-37.24
-29.80
-20.64
-11.39
-3.57
2.09
5.98
9.16
12.58
16.51
20.50
23.84
26.23
27.95
29.63
31.63
33.86
35.85
37.27
38.18
38.86
39.31
39.00
37.02
32.84
26.82
20.12
14.17
9.92
7.35
5.69
4.02
1.81
-0.81
-3.33
-5.31
-6.81
-8.38
-10.82
-14.65
-19.81
-25.69
-31.35
-36.02
-39.46
-41.96
-44.07
-46.31
-48.86
-51.58
-54.15
-56.26
-57.69
-58.17
-57.33
-54.70
-50.04
-43.42
-35.48
-27.18
-19.46
-12.88
-7.38
-2.54
2.12
6.84
11.45
15.63
19.11
21.92
24.31
26.62
29.09
31.72
34.26
36.37
37.82
38.53
38.67
38.52
38.31
38.02
37.33
35.71
32.74
28.40
23.18
17.91
13.33
9.75
6.90
4.18
1.01
-2.80
-7.00
-11.16
-14.89
-18.05
-20.69
-22.89
-24.61
-25.73
-26.20
-26.23
-26.28
-26.91
-28.54
-31.32
-35.07
-39.27
-43.25
-46.25
-47.53
-46.51
-42.93
-37.08
-29.71
-21.84
-14.44
-8.02
-2.55
2.45
7.45
12.66
17.86
22.52
26.16
28.55
29.83
30.39
30.62
30.75
30.83
30.88
30.95
31.21
31.85
32.90
34.20
35.39
36.04
35.97
35.27
34.27
33.30
32.42
31.43
29.96
27.70
24.52
20.52
15.79
10.33
4.09
-3.01
-10.90
-19.24
-27.53
-35.26
-42.00
-47.53
-51.78
-54.81
-56.79
-57.94
-58.44
-58.24
-56.98
-54.01
-48.69
-40.65
-30.12
-17.95
-5.37
6.43
16.60
24.88
31.48
36.80
41.13
44.52
46.90
48.37
49.31
50.32
51.83
53.83
55.66
56.30
54.92
51.40
46.48
41.39
37.21
34.31
32.18
29.67
25.61
19.34
10.95
1.22
-8.69
-17.65
-24.91
-30.12
-33.31
-34.63
-34.24
-32.31
-29.16
-25.42
-21.94
-19.61
-18.98
-20.09
-22.50
-25.53
-28.69
-31.69
-34.46
-36.90
-38.70
-39.41
-38.69
-36.51
-33.19
-29.19
-24.87
-20.34
-15.48
-10.08
-4.18
1.95
7.81
12.86
16.78
19.61
21.72
23.65
25.85
28.43
31.13
33.45
34.88
35.14
34.32
32.76
30.92
29.16
27.64
26.30
24.95
23.42
21.63
19.66
17.71
16.02
14.80
14.04
13.57
13.08
12.29
11.03
9.37
7.45
5.42
3.29
0.98
-1.59
-4.34
-6.98
-9.16
-10.60
-11.38
-11.93
-12.91
-14.91
-18.17
-22.36
-26.69
-30.10
-31.70
-31.02
-28.17
-23.80
-18.73
-13.69
-9.09
-4.94
-1.01
2.90
6.78
10.41
13.45
15.62
16.93
17.69
18.35
19.28
20.60
22.07
23.25
23.71
23.20
21.80
19.81
17.68
15.83
14.52
13.83
13.65
13.72
13.74
13.52
13.07
12.54
12.18
12.12
12.34
12.61
12.69
12.41
11.76
10.77
9.43
7.75
5.73
3.49
1.24
-0.85
-2.77
-4.76
-7.15
-10.22
-13.97
-18.14
-22.25
-25.79
-28.30
-29.45
-29.11
-27.33
-24.43
-20.94
-17.55
-14.91
-13.53
-13.55
-14.76
-16.57
-18.24
-19.12
-18.93
-17.84
-16.33
-14.95
-14.01
-13.44
-12.86
-11.88
-10.32
-8.33
-6.20
-4.23
-2.55
-1.14
0.05
0.96
1.41
1.17
0.12
-1.61
-3.66
-5.53
-6.81
-7.31
-7.20
-6.90
-6.88
-7.44
-8.55
-9.85
-10.82
-11.06
-10.45
-9.20
-7.73
-6.51
-5.88
-6.04
-7.06
-8.88
-11.23
-13.67
-15.60
-16.48
-16.02
-14.28
-11.76
-9.00
-6.46
-4.29
-2.39
-0.57
1.24
2.99
4.59
6.00
7.26
8.44
9.50
10.28
10.57
10.34
9.84
9.51
9.74
10.72
12.23
13.78
14.86
15.19
14.76
13.75
12.34
10.63
8.63
6.37
4.06
2.12
0.94
0.76
1.42
2.42
3.11
3.07
2.26
1.02
-0.12
-0.85
-1.14
-1.30
-1.72
-2.62
-3.95
-5.54
-7.24
-9.04
-11.07
-13.39
-15.93
-18.46
-20.74
-22.63
-24.02
-24.76
-24.56
-23.05
-20.04
-15.75
-10.90
-6.40
-2.94
-0.61
1.11
2.97
5.53
8.78
12.29
15.45
17.77
18.97
18.88
17.28
13.88
8.66
2.15
-4.55
-9.96
-12.82
-12.54
-9.48
-4.78
0.15
4.11
6.48
7.32
7.17
6.71
6.38
6.34
6.41
6.39
6.23
6.16
6.54
7.68
9.73
12.52
15.74
18.93
21.49
22.74
21.86
18.23
11.70
2.93
-6.74
-15.51
-21.69
-24.24
-23.10
-19.17
-14.05
-9.53
-7.01
-7.21
-9.82
-13.80
-17.74
-20.33
-20.86
-19.33
-16.39
-12.98
-9.96
-7.76
-6.30
-5.19
-3.89
-2.04
0.43
3.31
6.28
9.06
11.54
13.69
15.45
16.69
17.15
16.64
15.20
13.20
11.26
10.20
10.65
12.85
16.51
20.79
24.79
27.78
29.59
30.60
31.49
32.80
34.64
36.60
38.11
38.71
38.39
37.46
36.28
35.11
33.89
32.43
30.53
28.11
25.22
22.05
18.87
15.86
13.13
10.61
8.05
5.06
1.34
-3.27
-8.61
-14.32
-19.94
-24.95
-28.86
-31.21
-31.65
-30.10
-26.90
-22.75
-18.55
-15.12
-12.81
-11.62
-11.23
-11.29
-11.63
-12.25
-13.17
-14.33
-15.55
-16.60
-17.29
-17.58
-17.49
-17.15
-16.65
-16.06
-15.47
-14.98
-14.62
-14.38
-14.10
-13.55
-12.60
-11.27
-9.74
-8.28
-7.07
-6.09
-5.14
-4.05
-2.80
-1.63
-0.91
-0.98
-1.92
-3.56
-5.52
-7.46
-9.19
-10.62
-11.72
-12.46
-12.82
-12.91
-12.99
-13.42
-14.50
-16.25
-18.28
-19.94
-20.55
-19.73
-17.49
-14.28
-10.74
-7.44
-4.74
-2.62
-0.83
0.97
2.97
5.07
6.90
8.07
8.39
8.05
7.49
7.14
7.07
6.96
6.22
4.45
1.68
-1.56
-4.41
-6.17
-6.47
-5.44
-3.56
-1.31
1.01
3.33
5.70
8.12
10.38
12.08
12.83
12.45
11.19
9.57
8.15
7.16
6.41
5.34
3.36
0.25
-3.80
-8.29
-12.69
-16.62
-19.94
-22.70
-24.99
-26.93
-28.55
-29.92
-31.09
-32.16
-33.08
-33.70
-33.68
-32.53
-29.77
-25.18
-18.92
-11.66
-4.38
2.00
7.01
10.74
13.71
16.43
19.02
21.13
22.22
21.96
20.58
18.81
17.53
17.36
18.31
19.92
21.54
22.67
23.16
23.13
22.76
22.17
21.36
20.32
19.05
17.64
16.19
14.85
13.77
13.17
13.20
13.88
15.03
16.28
17.18
17.43
17.03
16.23
15.42
14.88
14.64
14.44
13.88
12.65
10.73
8.38
6.08
4.29
3.24
2.80
2.51
1.75
0.00
-3.03
-7.31
-12.46
-17.86
-22.78
-26.56
-28.66
-28.80
-26.99
-23.57
-19.11
-14.33
-9.87
-6.18
-3.42
-1.51
-0.19
0.84
1.82
2.92
4.24
5.81
7.72
9.95
12.42
14.94
17.25
19.11
20.37
20.99
21.05
20.74
20.28
19.86
19.66
19.76
20.16
20.71
21.20
21.35
20.91
19.73
17.82
15.37
12.72
10.22
8.19
6.75
5.81
5.04
4.14
2.92
1.43
-0.12
-1.54
-2.80
-4.09
-5.69
-7.81
-10.49
-13.66
-17.23
-21.14
-25.29
-29.25
-32.36
-33.80
-33.00
-30.02
-25.57
-20.73
-16.52
-13.49
-11.55
-10.26
-9.10
-7.92
-6.88
-6.35
-6.57
-7.42
-8.44
-8.98
-8.57
-7.10
-4.87
-2.39
-0.10
1.82
3.40
4.78
5.91
6.63
6.70
6.00
4.62
2.88
1.11
-0.39
-1.47
-2.12
-2.45
-2.61
-2.74
-2.99
-3.42
-4.03
-4.75
-5.45
-6.03
-6.39
-6.53
-6.53
-6.50
-6.49
-6.54
-6.57
-6.50
-6.40
-6.47
-7.15
-8.85
-11.75
-15.63
-19.85
-23.43
-25.35
-24.90
-21.76
-16.18
-8.85
-0.77
6.91
13.04
16.64
17.25
15.09
11.24
7.23
4.39
3.21
2.98
2.15
-0.83
-6.64
-14.64
-23.06
-29.78
-33.18
-32.51
-27.95
-20.11
-9.88
1.69
13.35
23.59
31.10
35.06
35.60
33.56
30.20
26.56
23.30
20.57
18.30
16.43
14.92
13.71
12.64
11.45
9.92
7.99
5.70
3.10
0.22
-3.00
-6.47
-9.91
-12.92
-15.30
-17.16
-18.99
-21.41
-24.80
-29.20
-34.26
-39.40
-44.06
-47.64
-49.61
-49.44
-46.81
-41.74
-34.74
-26.72
-18.70
-11.54
-5.69
-1.13
2.54
5.96
9.72
14.25
19.55
25.29
30.90
35.84
39.85
42.97
45.42
47.38
48.79
49.46
49.23
48.15
46.61
45.08
43.90
43.01
42.01
40.35
37.77
34.41
30.90
27.94
26.03
25.09
24.59
23.78
22.17
19.80
17.16
15.02
13.96
14.13
15.20
16.49
17.33
17.25
16.17
14.31
12.08
9.85
7.81
5.93
3.97
1.68
-1.10
-4.40
-8.18
-12.47
-17.32
-22.69
-28.30
-33.45
-37.21
-38.68
-37.48
-33.94
-29.03
-23.99
-19.82
-16.85
-14.82
-13.06
-10.97
-8.38
-5.64
-3.42
-2.32
-2.54
-3.75
-5.21
-6.17
-6.15
-5.15
-3.58
-2.03
-0.91
-0.36
-0.19
-0.12
0.01
0.12
0.01
-0.51
-1.40
-2.36
-3.03
-3.29
-3.35
-3.75
-4.99
-7.14
-9.74
-11.96
-13.02
-12.63
-11.18
-9.52
-8.56
-8.79
-10.13
-12.04
-13.87
-15.13
-15.74
-15.93
-16.19
-17.06
-18.94
-22.05
-26.22
-30.94
-35.44
-38.81
-40.32
-39.62
-36.81
-32.37
-27.04
-21.51
-16.26
-11.54
-7.41
-3.80
-0.61
2.24
4.82
7.17
9.35
11.35
13.17
14.83
16.41
18.03
19.78
21.65
23.50
25.13
26.40
27.29
27.93
28.43
28.72
28.54
27.55
25.57
22.83
19.95
17.69
16.53
16.41
16.72
16.68
15.77
14.01
11.88
10.04
8.89
8.37
8.04
7.33
5.85
3.56
0.71
-2.21
-4.75
-6.64
-7.86
-8.70
-9.63
-11.12
-13.44
-16.59
-20.19
-23.69
-26.44
-27.91
-27.74
-25.99
-23.30
-21.14
-21.46
-25.80
-34.27
-45.01
-54.63
-59.73
-58.46
-51.47
-41.33
-31.10
-22.66
-16.15
-10.43
-4.27
2.56
9.19
14.35
17.32
18.47
19.03
20.26
22.76
26.24
29.69
31.97
32.29
30.59
27.43
23.73
20.40
17.98
16.61
16.11
16.18
16.58
17.20
17.93
18.65
19.21
19.52
19.62
19.67
19.94
20.51
21.25
21.71
21.33
19.67
16.66
12.73
8.59
4.98
2.33
0.65
-0.44
-1.45
-2.79
-4.71
-7.28
-10.60
-14.75
-19.62
-24.73
-29.13
-31.62
-31.20
-27.52
-21.23
-13.73
-6.68
-1.35
1.87
3.45
4.32
5.45
7.30
9.78
12.43
14.77
16.60
18.03
19.35
20.76
22.22
23.43
24.05
23.92
23.22
22.36
21.77
21.66
21.92
22.18
22.05
21.29
19.97
18.40
17.01
16.12
15.85
16.02
16.27
16.24
15.68
14.60
13.17
11.66
10.24
8.95
7.66
6.14
4.25
1.91
-0.83
-3.85
-7.03
-10.28
-13.63
-17.12
-20.84
-24.81
-28.92
-32.89
-36.31
-38.70
-39.58
-38.63
-35.71
-31.08
-25.29
-19.17
-13.65
-9.47
-7.02
-6.20
-6.49
-7.18
-7.67
-7.66
-7.23
-6.60
-6.05
-5.66
-5.24
-4.52
-3.27
-1.42
0.88
3.30
5.46
7.05
7.84
7.79
7.03
5.86
4.67
3.86
3.72
4.32
5.47
6.83
7.92
8.38
8.05
6.99
5.45
3.83
2.42
1.43
0.81
0.23
-0.74
-2.48
-5.10
-8.37
-11.72
-14.49
-16.28
-17.10
-17.47
-18.17
-19.95
-23.23
-27.91
-33.38
-38.68
-42.78
-44.73
-43.98
-40.47
-34.77
-27.87
-20.92
-14.90
-10.27
-6.90
-4.24
-1.62
1.48
5.13
9.08
12.89
16.20
18.89
21.05
22.87
24.48
25.88
27.01
27.79
28.25
28.52
28.75
29.01
29.21
29.13
28.52
27.26
25.37
23.10
20.76
18.65
16.94
15.62
14.52
13.32
11.72
9.47
6.52
3.01
-0.71
-4.24
-7.22
-9.48
-11.08
-12.21
-13.17
-14.27
-15.76
-17.78
-20.29
-23.10
-25.83
-28.06
-29.51
-30.17
-30.33
-30.54
-31.36
-33.12
-35.83
-39.04
-42.04
-43.91
-43.73
-40.85
-35.10
-26.87
-17.10
-7.02
2.28
10.10
16.30
21.17
25.22
28.86
32.28
35.44
38.23
40.56
42.44
43.92
45.04
45.80
46.10
45.92
45.28
44.24
42.92
41.38
39.67
37.78
35.66
33.31
30.72
27.94
25.05
22.22
19.66
17.56
16.09
15.22
14.74
14.37
13.85
13.09
12.21
11.45
11.03
11.03
11.28
11.41
11.02
9.79
7.63
4.70
1.35
-2.08
-5.29
-8.19
-10.89
-13.58
-16.52
-19.87
-23.66
-27.69
-31.57
-34.77
-36.75
-37.10
-35.65
-32.56
-28.23
-23.24
-18.24
-13.80
-10.30
-7.89
-6.43
-5.54
-4.82
-4.02
-3.18
-2.58
-2.56
-3.23
-4.35
-5.42
-5.92
-5.58
-4.51
-3.11
-1.82
-0.96
-0.57
-0.51
-0.65
-0.89
-1.25
-1.79
-2.49
-3.31
-4.17
-4.97
-5.64
-6.11
-6.42
-6.61
-6.83
-7.25
-7.97
-8.95
-10.05
-11.03
-11.76
-12.26
-12.71
-13.36
-14.34
-15.64
-17.13
-18.71
-20.48
-22.74
-25.78
-29.61
-33.75
-37.29
-39.17
-38.63
-35.45
-30.08
-23.36
-16.24
-9.48
-3.49
1.60
5.81
9.23
11.95
14.13
15.93
17.50
18.92
20.13
20.99
21.41
21.45
21.30
21.31
21.77
22.86
24.55
26.60
28.61
30.23
31.20
31.45
31.19
30.75
30.51
30.70
31.30
31.94
32.19
31.69
30.40
28.69
27.16
26.43
26.82
28.20
29.89
30.77
29.64
25.56
18.29
8.41
-2.78
-13.64
-22.69
-28.97
-32.10
-32.15
-29.54
-24.84
-18.93
-12.73
-6.97
-1.82
3.22
8.78
14.90
20.40
22.90
19.63
8.72
-9.81
-34.04
-60.77
-86.76
-109.56
-127.75
-140.63
-147.84
-149.38
-145.69
-137.93
-127.73
-116.77
-106.15
-95.98
-85.48
-73.52
-59.26
-42.65
-24.52
-6.19
11.00
26.25
39.44
51.05
61.82
72.19
82.04
90.63
97.01
100.49
101.06
99.35
96.31
92.68
88.75
84.39
79.45
74.05
68.73
64.05
60.26
56.96
53.28
48.38
41.96
34.47
26.92
20.30
15.17
11.41
8.42
5.41
1.80
-2.75
-8.22
-14.36
-20.73
-26.77
-31.83
-35.36
-36.93
-36.40
-33.98
-30.19
-25.76
-21.36
-17.51
-14.46
-12.20
-10.55
-9.29
-8.21
-7.16
-6.04
-4.75
-3.20
-1.33
0.80
3.00
4.99
6.52
7.47
7.85
7.87
7.75
7.69
7.81
8.12
8.52
8.84
8.93
8.67
8.02
7.09
6.03
5.06
4.34
3.93
3.75
3.61
3.26
2.43
0.94
-1.34
-4.41
-8.23
-12.72
-17.72
-23.09
-28.65
-34.21
-39.59
-44.68
-49.33
-53.36
-56.55
-58.59
-59.20
-58.14
-55.23
-50.35
-43.44
-34.61
-24.29
-13.27
-2.60
6.71
13.98
19.12
22.63
25.25
27.66
30.10
32.41
34.19
35.17
35.38
35.16
35.06
35.43
36.30
37.34
38.06
38.06
37.20
35.56
33.30
30.48
27.05
22.97
18.42
13.91
10.15
7.82
7.16
7.77
8.69
8.75
7.07
3.51
-1.29
-6.15
-9.87
-11.80
-12.04
-11.40
-10.91
-11.34
-12.93
-15.37
-18.16
-20.85
-23.21
-25.26
-27.08
-28.74
-30.32
-31.99
-34.01
-36.64
-39.80
-43.00
-45.26
-45.42
-42.59
-36.53
-27.80
-17.61
-7.47
1.31
7.99
12.50
15.34
17.27
18.94
20.69
22.45
23.96
25.01
25.59
25.93
26.31
26.89
27.54
28.05
28.21
28.02
27.70
27.53
27.62
27.75
27.43
26.23
24.01
21.09
18.08
15.60
13.98
13.12
12.61
11.94
10.82
9.19
7.22
5.17
3.22
1.49
-0.04
-1.44
-2.86
-4.48
-6.48
-8.97
-11.95
-15.21
-18.47
-21.39
-23.78
-25.60
-27.08
-28.55
-30.38
-32.82
-35.92
-39.48
-43.09
-46.13
-47.89
-47.61
-44.76
-39.19
-31.37
-22.27
-13.12
-4.95
1.74
7.03
11.34
15.05
18.25
20.76
22.37
23.08
23.30
23.65
24.72
26.75
29.49
32.39
34.77
36.21
36.65
36.35
35.76
35.29
35.02
34.75
34.06
32.68
30.62
28.26
26.20
24.94
24.62
24.98
25.47
25.61
25.14
24.11
22.79
21.39
20.08
18.85
17.68
16.53
15.36
14.09
12.59
10.77
8.59
6.20
3.82
1.67
-0.07
-1.42
-2.46
-3.38
-4.45
-6.03
-8.55
-12.31
-17.27
-22.84
-27.95
-31.37
-32.19
-30.17
-25.90
-20.43
-14.93
-10.27
-6.87
-4.72
-3.53
-2.91
-2.44
-1.77
-0.69
0.77
2.29
3.43
3.84
3.40
2.34
1.05
-0.08
-0.79
-0.92
-0.41
0.78
2.48
4.26
5.46
5.42
3.80
0.81
-2.80
-6.14
-8.55
-9.96
-10.80
-11.71
-13.14
-15.08
-17.16
-18.85
-19.80
-20.00
-19.71
-19.27
-18.92
-18.76
-18.83
-19.23
-20.18
-21.87
-24.29
-27.10
-29.79
-31.93
-33.55
-35.10
-37.20
-40.11
-43.32
-45.58
-45.33
-41.58
-34.42
-25.21
-16.05
-8.83
-4.47
-2.45
-1.12
1.62
7.34
16.27
27.09
37.33
44.48
47.10
45.66
42.48
40.71
42.87
49.79
60.22
71.57
81.07
86.96
88.92
87.88
85.77
85.30
89.81
102.38
124.40
153.96
185.09
208.92
216.50
202.44
167.46
118.32
65.20
17.58
-19.34
-46.03
-67.23
-88.92
-115.31
-147.30
-182.86
-219.11
-254.56
-290.36
-329.47
-374.02
-422.50
-468.45
-502.13
-514.33
-500.55
-463.05
-409.89
-351.07
-294.14
-241.67
-191.51
-139.44
-82.31
-20.00
44.52
106.62
161.90
207.31
241.63
265.32
280.02
287.91
290.95
290.43
286.72
279.77
269.75
257.62
245.06
233.75
224.46
216.62
208.63
198.78
186.27
171.65
156.58
143.03
132.34
124.82
119.89
116.73
114.96
114.83
117.07
122.21
129.93
138.72
146.16
149.72
147.75
140.15
128.51
115.39
103.35
93.87
86.94
81.14
74.28
64.03
48.39
26.19
-2.63
-36.71
-73.09
-107.64
-135.95
-154.71
-162.77
-161.54
-154.65
-146.78
-142.29
-143.90
-151.91
-164.25
-177.09
-186.12
-187.66
-179.54
-161.21
-133.53
-98.14
-57.17
-13.19
30.46
70.22
103.14
127.77
144.85
157.02
167.71
179.28
191.72
202.12
205.69
197.85
176.16
141.31
96.72
47.02
-4.27
-56.09
-110.29
-168.84
-230.79
-290.34
-337.65
-362.21
-356.67
-319.97
-257.11
-178.42
-94.20
-11.54
66.25
137.45
199.39
248.55
280.59
293.41
284.90
256.47
213.35
163.15
112.86
66.88
27.73
-5.39
-33.83
-64.46
-103.12
-151.49
-206.09
-261.18
-312.21
-355.40
-391.75
-423.11
-458.65
-506.28
-568.57
-642.03
-721.22
-803.00
-884.56
-966.60
-1001.26
-953.99
-822.14
-639.34
-450.11
-286.15
-173.96
-100.60
-53.12
-20.25
-0.05
7.88
6.14
0.69
-1.07
6.54
28.71
65.16
114.07
166.88
214.88
252.99
281.72
304.88
326.43
350.73
379.15
411.82
443.88
469.66
485.69
492.36
492.52
489.55
487.37
489.96
500.24
517.81
540.84
567.66
596.84
625.60
648.64
659.71
656.82
640.05
610.62
570.73
523.80
473.58
422.67
372.05
321.95
277.57
242.71
217.92
200.58
187.98
179.32
175.80
179.40
159.19
101.26
11.62
-88.90
-181.10
-255.79
-311.63
-350.55
-375.34
-389.11
-390.24
-379.33
-359.71
-338.32
-320.79
-309.48
-303.71
-300.97
-298.42
-290.03
-272.72
-247.73
-219.88
-194.33
-174.36
-161.57
-155.63
-154.68
-153.42
-147.40
-134.71
-116.53
-95.54
-74.80
-56.96
-43.67
-35.27
-29.63
-24.10
-16.56
-6.08
7.27
22.53
38.02
51.68
61.48
66.39
66.17
61.57
54.11
45.85
38.66
33.56
30.39
27.85
24.23
18.14
9.20
-1.76
-12.78
-21.27
-24.69
-21.11
-9.75
8.70
32.20
57.73
81.97
102.29
117.36
127.28
133.20
136.55
138.20
138.16
135.86
130.78
123.04
113.57
103.52
93.68
83.95
73.49
61.42
47.54
32.80
18.92
7.61
-0.20
-4.73
-7.11
-8.73
-10.64
-13.44
-17.29
-22.36
-28.92
-37.29
-47.36
-58.28
-68.36
-75.47
-77.81
-74.63
-66.77
-56.37
-45.98
-37.26
-30.12
-22.55
-11.63
4.97
27.77
55.00
83.11
107.84
125.33
133.13
130.81
120.12
104.62
88.77
76.67
70.79
71.41
76.74
83.82
89.69
92.11
89.78
81.88
68.01
47.97
22.02
-8.89
-43.23
-79.45
-116.38
-152.93
-187.46
-217.22
-238.90
-249.77
-249.83
-242.71
-235.23
-235.24
-248.12
-274.10
-307.60
-339.32
-360.09
-364.19
-350.95
-323.57
-286.51
-243.14
-195.13
-143.51
-90.51
-40.46
1.06
29.36
43.26
46.08
44.51
45.53
53.49
68.58
87.42
105.18
117.68
122.56
118.83
106.46
85.82
58.14
25.93
-7.65
-40.05
-70.62
-100.61
-131.65
-163.28
-191.41
-209.07
-209.46
-189.59
-152.34
-105.72
-59.17
-19.32
12.67
40.64
70.01
103.37
