1555614242.00
64.000000
-0.00
-0.00
-0.00
-0.00
-0.00
-0.00
-0.00
-0.00
-0.00
-0.00
0.00
0.01
0.01
-0.00
-0.03
-0.05
-0.05
0.00
0.13
0.36
0.66
1.01
1.37
1.72
2.06
2.40
2.79
3.24
3.80
4.42
5.06
5.66
6.20
6.68
7.15
7.68
8.31
9.14
10.09
11.04
11.88
12.56
13.14
13.76
14.65
15.96
17.91
20.32
22.90
25.38
27.58
29.57
31.68
34.32
37.81
42.54
48.15
54.10
59.83
64.97
69.58
74.14
79.34
85.71
93.76
103.00
112.62
121.73
129.77
136.75
143.30
150.75
157.77
166.64
177.95
191.79
206.97
220.57
228.25
225.36
208.53
176.87
132.76
80.05
23.07
-34.94
-92.44
-149.16
-205.23
-260.37
-313.74
-363.87
-409.83
-450.91
-486.50
-515.74
-537.23
-549.22
-549.96
-538.37
-514.21
-478.67
-433.88
-382.45
-327.02
-269.84
-212.63
-156.66
-102.95
-52.37
-5.90
35.58
71.43
101.35
125.50
144.38
158.69
169.15
176.37
180.75
182.58
182.07
179.51
175.23
169.65
163.16
156.13
148.82
141.36
133.81
126.20
118.51
110.80
103.13
95.60
88.31
81.37
74.80
68.61
62.74
57.13
51.73
46.54
41.59
36.96
32.73
28.92
25.51
22.38
19.42
16.51
13.64
10.92
8.51
6.60
5.27
4.43
3.81
3.05
1.87
0.22
-1.66
-3.31
-4.23
-4.17
-3.30
-2.20
-1.64
-2.24
-4.13
-6.83
-9.40
-10.87
-10.73
-9.23
-7.32
-6.31
-7.23
-10.29
-14.71
-18.98
-21.74
-22.17
-20.53
-17.86
-15.68
-15.42
-18.21
-24.81
-35.22
-48.04
-60.06
-66.73
-63.72
-49.27
-25.62
1.30
24.06
37.04
38.52
31.09
19.26
8.15
0.34
-4.30
-7.13
-8.69
-8.05
-3.27
7.28
23.54
43.54
63.90
81.08
93.07
99.04
101.01
101.64
103.10
106.36
111.57
118.14
125.03
130.59
132.07
126.11
109.73
82.65
47.31
9.45
-24.13
-48.28
-61.34
-65.20
-63.52
-59.76
-55.59
-51.12
-45.73
-39.46
-33.39
-28.86
-26.69
-26.41
-26.70
-26.05
-23.59
-19.44
-14.70
-10.93
-9.30
-10.25
-13.33
-17.29
-20.74
-22.69
-22.67
-20.80
-17.70
-13.90
-9.90
-5.92
-2.04
2.02
5.88
9.26
11.97
13.47
13.91
13.13
10.99
7.46
2.68
-2.99
-8.89
-14.18
-18.39
-21.25
-23.40
-25.97
-30.20
-36.87
-45.97
-56.63
-66.23
-73.95
-79.01
-81.81
-83.33
-84.59
-86.36
-89.03
-92.83
-97.55
-103.41
-107.82
-107.65
-99.55
-81.49
-54.21
-20.89
11.44
36.70
51.50
56.18
53.47
46.81
38.90
31.07
23.97
18.56
17.02
21.69
33.82
51.81
71.28
86.24
91.08
83.12
63.76
38.14
14.28
-0.94
-4.42
2.46
14.93
27.33
35.64
38.74
38.24
36.97
37.23
39.92
44.56
49.97
54.39
56.22
54.14
47.52
36.50
22.65
8.93
-1.26
-5.54
-3.69
2.19
8.71
12.97
13.64
11.61
8.85
6.86
5.79
4.55
1.92
-2.52
-7.64
-11.34
-11.56
-7.26
1.52
14.04
29.22
45.36
59.82
69.07
69.62
59.76
40.89
17.59
-4.06
-18.56
-23.96
-22.11
-16.95
-12.19
-9.59
-9.02
-9.57
-10.92
-13.80
-19.49
-28.57
-40.17
-52.16
-62.14
-68.21
-69.95
-68.42
-65.46
-62.93
-61.90
-62.28
-62.95
-62.43
-59.59
-54.22
-47.21
-39.99
-34.07
-30.26
-28.34
-27.14
-25.03
-20.68
-13.20
-3.70
6.02
14.03
18.99
20.60
19.70
17.78
16.06
15.14
14.41
12.59
8.16
0.08
-12.39
-29.33
-49.92
-72.00
-91.61
-103.59
-103.14
-88.04
-59.94
-24.67
9.99
37.29
53.87
60.40
60.14
56.43
50.93
43.77
34.01
21.66
8.32
-3.43
-11.75
-15.10
-13.49
-8.99
-3.44
1.79
6.98
13.59
23.48
37.89
56.76
78.21
97.15
111.03
117.97
118.29
114.23
109.22
106.46
107.75
112.62
118.47
123.99
125.27
121.22
113.42
105.33
100.69
102.42
111.67
127.21
145.73
161.43
168.05
160.15
135.17
94.94
47.08
3.64
-22.55
-22.48
4.49
50.52
101.84
144.32
168.39
172.51
162.04
145.22
128.82
115.38
103.81
91.21
79.17
69.35
63.56
62.50
64.79
67.42
67.20
62.55
54.44
45.90
40.12
39.37
43.96
52.06
60.67
66.93
69.38
68.43
65.96
63.87
63.63
65.50
68.56
71.20
71.94
70.07
65.93
60.68
55.46
51.20
48.25
46.33
44.84
43.18
41.08
38.68
36.43
34.70
33.74
33.57
33.94
34.47
34.77
34.54
33.64
32.06
29.77
26.74
22.83
17.79
11.31
3.04
-7.30
-19.76
-34.17
-50.01
-66.46
-82.48
-96.98
-108.90
-117.37
-121.83
-122.04
-118.09
-110.38
-99.51
-86.29
-71.55
-56.12
-40.75
-26.06
-12.50
-0.42
9.95
18.44
24.94
29.35
31.68
31.97
30.35
27.06
22.41
16.78
10.58
4.27
-1.64
-6.70
-10.50
-12.78
-13.40
-12.47
-10.29
-7.35
-4.26
-1.59
0.15
0.58
-0.48
-3.11
-7.39
-13.40
-21.27
-31.07
-42.75
-56.00
-70.33
-85.13
-99.80
-114.08
-128.08
-142.26
-157.25
-173.51
-191.19
-209.95
-229.10
-247.83
-265.45
-281.41
-295.35
-306.82
-315.01
-318.84
-317.21
-309.47
-295.90
-277.93
-258.00
-239.04
-223.99
-215.40
-215.08
-223.90
-241.04
-263.68
-286.98
-305.15
-313.19
-308.71
-292.80
-269.40
-243.40
-218.50
-196.01
-175.21
-154.89
-134.74
-115.79
-99.88
-88.24
-80.68
-75.55
-70.62
-63.88
-54.09
-40.94
-24.83
-6.73
11.86
29.14
43.32
53.10
58.09
58.90
56.85
53.68
51.06
50.58
53.42
60.04
69.94
81.48
92.39
100.27
103.72
102.61
98.18
92.28
86.64
82.08
78.26
73.79
66.90
56.22
41.44
23.56
4.70
-12.47
-25.71
-33.77
-36.99
-37.06
-36.63
-38.62
-45.40
-57.95
-75.25
-94.24
-110.45
-119.46
-118.53
-107.82
-90.51
-71.52
-55.58
-45.38
-40.80
-39.52
-38.42
-35.27
-29.42
-21.83
-14.04
-7.32
-1.99
2.32
6.24
10.08
13.54
15.95
16.65
15.66
13.68
12.05
12.08
14.53
19.10
24.48
28.94
30.99
30.10
26.89
22.79
19.42
17.80
17.96
18.78
18.63
15.92
9.72
0.24
-11.32
-23.09
-33.24
-40.70
-45.83
-50.35
-56.74
-67.31
-83.02
-103.06
-125.01
-145.67
-161.97
-171.56
-172.63
-163.87
-144.96
-117.28
-84.54
-52.19
-25.73
-8.61
-1.14
-1.13
-6.06
-15.15
-29.53
-50.42
-76.32
-101.51
-117.20
-114.95
-90.67
-46.49
10.24
70.37
126.37
174.34
213.57
244.80
268.49
284.32
291.99
292.13
286.92
279.21
271.41
264.52
258.17
251.46
244.00
236.52
230.61
227.93
229.41
234.84
243.11
252.69
261.99
269.46
273.79
273.52
267.90
257.32
243.27
227.86
213.34
201.62
193.83
190.25
189.87
191.16
192.35
191.64
187.23
177.42
161.29
139.36
114.05
87.98
64.32
45.92
34.39
29.47
29.17
30.75
31.42
28.50
16.98
-5.80
-37.74
-72.22
-101.39
-119.91
-127.02
-126.45
-124.69
-133.49
-159.36
-199.29
-243.04
-280.14
-305.03
-317.37
-320.14
-317.23
-320.94
-339.57
-372.15
-410.67
-447.38
-479.10
-506.18
-530.05
-551.73
-583.01
-631.79
-695.07
-761.46
-820.79
-869.72
-910.77
-949.14
-909.17
-756.91
-521.43
-273.51
-70.73
67.32
148.81
193.34
221.92
240.52
251.33
251.81
243.06
231.05
221.14
215.22
213.21
214.99
222.77
228.16
223.28
208.14
189.93
176.38
171.38
174.98
185.06
198.77
208.16
206.92
195.16
178.45
163.00
152.56
148.11
149.01
153.91
158.80
160.06
157.14
152.16
147.71
145.51
146.31
150.42
157.78
167.22
177.17
186.86
196.26
205.63
215.17
225.15
235.90
247.85
261.70
278.08
297.53
319.79
343.03
363.70
377.06
378.74
366.52
341.39
307.32
269.69
233.22
200.62
172.40
147.68
125.42
105.18
87.18
71.71
58.67
47.45
37.26
27.53
18.14
9.43
1.96
-3.77
-7.59
-9.81
-11.14
-12.40
-14.28
-16.98
-20.16
-23.21
-25.55
-27.01
-27.85
-28.62
-29.78
-31.56
-33.76
-35.88
-37.43
-38.11
-37.91
-37.06
-35.99
-35.00
-34.42
-34.31
-34.57
-35.00
-35.44
-35.75
-35.88
-35.87
-35.60
-35.00
-33.89
-32.14
-29.77
-26.90
-23.75
-20.46
-17.11
-13.63
-10.15
-6.81
-3.89
-1.78
-0.59
-0.34
-0.80
-1.69
-2.69
-3.65
-4.49
-5.17
-5.80
-6.34
-6.79
-7.16
-7.40
-7.54
-7.64
-7.84
-8.34
-9.33
-10.87
-12.94
-15.35
-17.77
-19.80
-21.03
-21.21
-20.27
-18.47
-16.20
-13.94
-12.07
-10.68
-9.68
-8.78
-7.74
-6.44
-4.96
-3.45
-2.11
-1.07
-0.33
0.19
0.55
0.73
0.64
0.21
-0.60
-1.69
-2.89
-4.07
-5.13
-6.12
-7.12
-8.24
-9.55
-11.09
-12.84
-14.76
-16.73
-18.51
-19.81
-20.21
-19.45
-17.47
-14.49
-10.84
-6.99
-3.38
-0.34
1.89
3.28
3.94
4.14
4.17
4.24
4.46
4.77
5.09
5.40
5.68
5.99
6.29
6.41
6.17
5.42
4.16
2.58
0.88
-0.79
-2.40
-4.09
-5.96
-8.03
-10.21
-12.30
-14.01
-15.20
-15.70
-15.40
-14.17
-11.91
-8.60
-4.41
0.23
4.82
8.74
11.61
13.27
13.82
13.49
12.61
11.41
10.08
8.79
7.62
6.70
6.08
5.86
6.07
6.65
7.47
8.25
8.79
8.81
8.24
7.09
5.45
3.48
1.30
-1.01
-3.37
-5.66
-7.76
-9.47
-10.58
-10.88
-10.22
-8.60
-6.24
-3.50
-0.83
1.47
3.23
4.44
5.12
5.31
4.92
3.90
2.20
-0.10
-2.88
-5.99
-9.34
-12.80
-16.19
-19.29
-21.78
-23.44
-24.14
-23.98
-23.18
-22.02
-20.84
-19.88
-19.32
-19.16
-19.28
-19.37
-19.14
-18.21
-16.30
-13.26
-9.14
-4.17
1.33
6.94
12.28
17.06
21.08
24.24
26.46
27.73
28.08
27.63
26.51
24.84
22.73
20.28
17.57
14.77
12.09
9.76
7.90
6.46
5.32
4.33
3.41
2.53
1.69
0.75
-0.55
-2.44
-5.06
-8.16
-11.24
-13.69
-14.96
-14.82
-13.37
-10.95
-7.97
-4.89
-2.09
0.14
1.58
2.15
1.94
1.16
-0.03
-1.43
-2.96
-4.49
-5.84
-6.77
-7.08
-6.83
-6.21
-5.63
-5.40
-5.64
-6.11
-6.49
-6.55
-6.36
-6.32
-6.95
-8.71
-11.66
-15.51
-19.66
-23.30
-25.76
-26.53
-25.46
-22.71
-18.77
-14.27
-9.92
-6.28
-3.64
-2.06
-1.35
-1.30
-1.68
-2.42
-3.52
-4.85
-6.28
-7.49
-8.19
-8.16
-7.38
-6.08
-4.66
-3.52
-2.87
-2.72
-2.77
-2.69
-2.28
-1.58
-0.94
-0.81
-1.54
-3.21
-5.63
-8.31
-10.78
-12.62
-13.54
-13.40
-12.18
-9.90
-6.68
-2.82
1.31
5.22
8.36
10.44
11.34
11.18
10.30
9.08
7.87
6.86
6.11
5.54
5.09
4.63
4.10
3.49
2.78
2.03
1.24
0.33
-0.92
-2.77
-5.56
-9.35
-13.87
-18.52
-22.45
-24.86
-25.26
-23.62
-20.35
-16.16
-11.72
-7.49
-3.70
-0.42
2.33
4.45
5.82
6.38
6.22
5.59
4.82
4.12
3.53
2.89
2.01
0.81
-0.65
-2.20
-3.63
-4.84
-5.85
-6.74
-7.66
-8.75
-10.13
-11.90
-14.07
-16.45
-18.74
-20.38
-20.82
-19.60
-16.48
-11.64
-5.58
0.95
7.14
12.24
15.78
17.50
17.45
15.88
13.19
9.98
6.87
4.45
3.12
2.97
3.72
4.95
6.27
7.50
8.64
9.85
11.06
11.94
11.97
10.56
7.39
2.61
-3.25
-9.35
-14.77
-18.88
-21.24
-21.68
-20.26
-17.22
-12.93
-7.94
-2.85
1.75
5.27
7.41
8.08
7.42
5.84
3.84
2.03
0.95
1.01
2.22
4.27
6.45
7.88
7.86
6.08
2.74
-1.45
-5.59
-8.91
-10.92
-11.64
-11.38
-10.65
-9.98
-9.74
-10.16
-11.20
-12.64
-14.09
-15.07
-15.13
-13.88
-11.14
-6.91
-1.41
4.94
11.54
17.65
22.49
25.46
26.25
24.90
21.83
17.79
13.57
9.89
7.31
6.08
6.19
7.39
9.20
11.02
12.24
12.26
10.73
7.55
2.90
-2.74
-8.61
-13.84
-17.49
-18.92
-17.79
-14.34
-9.25
-3.62
1.42
4.97
6.65
6.67
5.70
4.54
3.91
4.29
5.82
8.46
11.95
15.73
19.08
21.16
21.22
18.94
14.54
8.80
2.91
-1.98
-5.05
-5.99
-5.10
-3.18
-1.23
-0.22
-0.83
-3.20
-6.96
-11.34
-15.32
-17.94
-18.56
-16.85
-12.99
-7.52
-1.22
5.10
10.73
15.18
18.18
19.64
19.78
18.90
17.39
15.61
13.89
12.34
10.96
9.60
8.06
6.25
4.14
1.87
-0.33
-2.28
-4.03
-5.70
-7.64
-10.16
-13.39
-17.18
-21.02
-24.21
-26.08
-26.15
-24.22
-20.44
-15.24
-9.24
-3.12
2.60
7.52
11.45
14.26
15.95
16.45
15.80
14.16
11.86
9.41
7.27
5.79
4.99
4.64
4.32
3.64
2.51
1.02
-0.59
-2.10
-3.45
-4.81
-6.49
-8.73
-11.61
-14.88
-18.15
-20.88
-22.51
-22.60
-20.98
-17.77
-13.33
-8.17
-2.84
2.22
6.74
10.57
13.62
15.79
17.00
17.31
16.82
15.83
14.67
13.61
12.79
12.17
11.57
10.82
9.77
8.36
6.69
4.90
3.16
1.51
-0.10
-1.83
-3.84
-6.18
-8.77
-11.20
-13.00
-13.61
-12.60
-9.80
-5.39
0.18
6.35
12.58
18.65
24.51
30.15
35.41
39.86
42.83
43.80
42.60
39.64
35.88
32.47
30.47
30.37
31.81
33.53
33.52
29.61
20.15
4.85
-14.93
-36.18
-55.28
-69.08
-75.85
-75.87
-70.94
-63.53
-55.66
-48.35
-41.40
-34.04
-25.41
-15.07
-3.29
9.11
20.70
29.74
34.22
32.56
23.94
8.91
-10.65
-32.03
-52.28
-69.18
-81.47
-88.78
-91.18
-88.93
-82.37
-72.07
-59.06
-44.74
-30.59
-17.85
-7.23
1.12
7.36
11.81
14.69
16.10
16.14
14.95
12.98
10.90
9.49
9.49
11.21
14.49
18.61
22.65
25.75
27.52
28.09
27.99
27.87
28.14
28.91
29.86
30.65
30.87
30.34
28.98
26.81
23.77
19.83
15.07
9.81
4.57
-0.09
-3.78
-6.44
-8.31
-9.83
-11.45
-13.49
-15.94
-18.67
-21.35
-23.60
-25.02
-25.20
-23.81
-20.70
-16.08
-10.36
-4.16
1.82
7.02
11.07
13.77
15.14
15.32
14.56
13.21
11.63
10.11
8.79
7.73
6.80
5.88
4.83
3.61
2.33
1.03
-0.24
-1.51
-3.00
-4.94
-7.44
-10.43
-13.63
-16.49
-18.50
-19.21
-18.34
-15.89
-12.09
-7.33
-2.11
3.07
7.84
11.93
15.15
17.45
18.73
18.98
18.22
16.55
14.19
11.43
8.61
6.07
4.04
2.44
1.19
0.06
-1.11
-2.34
-3.51
-4.52
-5.35
-6.15
-7.27
-9.05
-11.63
-14.93
-18.51
-21.68
-23.74
-24.09
-22.45
-18.97
-14.09
-8.49
-2.84
2.32
6.61
9.87
12.05
13.14
13.23
12.43
10.88
8.76
6.26
3.58
0.89
-1.70
-4.12
-6.33
-8.35
-10.14
-11.77
-13.31
-14.90
-16.79
-19.21
-22.27
-25.94
-29.85
-33.45
-36.07
-37.15
-36.43
-34.00
-30.15
-25.30
-19.84
-14.02
-7.99
-1.81
4.42
10.49
16.17
21.23
25.42
28.54
30.37
30.73
29.48
26.71
22.69
17.93
13.14
9.00
5.98
4.27
3.81
4.20
5.01
5.67
5.54
4.10
0.98
-3.75
-9.58
-15.61
-20.80
-24.22
-25.38
-24.21
-21.02
-16.31
-10.60
-4.34
2.01
7.96
13.00
16.70
18.78
19.25
18.26
16.33
13.86
11.23
8.64
6.14
3.81
1.68
-0.05
-1.31
-1.98
-2.15
-2.01
-1.81
-1.83
-2.28
-3.36
-5.10
-7.50
-10.28
-12.99
-15.02
-15.72
-14.59
-11.51
-6.70
-0.73
5.64
11.65
16.58
19.96
21.53
21.27
19.40
16.30
12.57
8.82
5.70
3.72
3.22
4.31
6.72
9.94
13.26
16.00
17.62
17.84
16.56
13.89
9.94
4.85
-1.09
-7.50
-13.88
-19.69
-24.32
-27.18
-27.62
-25.21
-19.82
-11.85
-2.25
7.71
16.74
23.90
28.83
31.65
32.90
33.20
33.18
33.27
33.66
34.42
35.58
37.26
39.71
43.27
48.18
54.48
61.79
69.39
76.31
81.73
85.16
86.68
86.99
87.19
88.46
91.63
97.03
104.46
113.44
123.46
134.19
145.62
158.03
171.83
187.52
205.23
224.17
242.18
255.60
260.07
251.89
229.48
194.07
149.39
100.26
50.88
3.73
-40.66
-83.02
-124.40
-165.72
-207.37
-249.18
-290.18
-328.50
-361.44
-386.03
-400.05
-402.86
-395.68
-381.10
-362.08
-341.07
-319.52
-298.02
-276.74
-255.70
-234.87
-214.04
-192.57
-169.64
-144.59
-117.45
-89.09
-61.21
-35.83
-14.57
1.76
13.59
22.12
28.97
35.50
42.42
49.73
56.90
63.43
68.98
73.50
76.98
79.31
80.18
79.13
75.80
70.17
62.76
54.55
46.83
40.84
37.59
37.61
40.81
46.51
53.55
60.50
65.93
68.75
68.42
65.06
59.36
52.20
44.46
36.69
29.06
21.49
13.88
6.29
-1.05
-7.83
-13.89
-19.33
-24.47
-29.65
-35.02
-40.25
-44.68
-47.50
-48.14
-46.61
-43.51
-40.03
-37.40
-36.50
-37.47
-39.65
-41.76
-42.36
-40.32
-35.04
-26.79
-16.42
-5.28
5.16
13.67
19.54
22.64
23.44
22.71
21.28
19.90
19.11
19.23
20.39
22.46
25.08
27.62
29.34
29.64
28.33
25.72
22.42
19.12
16.22
13.77
11.42
8.65
5.12
0.75
-4.14
-8.92
-12.79
-14.89
-14.64
-11.78
-6.57
0.38
8.13
15.67
22.15
27.11
30.45
32.38
33.26
33.39
33.00
32.16
30.88
29.25
27.44
25.60
23.79
21.93
19.81
17.18
13.99
10.35
6.56
2.92
-0.36
-3.30
-6.00
-8.67
-11.55
-14.82
-18.53
-22.46
-26.15
-28.88
-29.89
-28.51
-24.57
-18.37
-10.66
-2.46
5.36
12.19
17.79
22.21
25.60
28.08
29.72
30.46
30.25
29.20
27.54
25.66
23.91
22.49
21.39
20.39
19.20
17.59
15.62
13.49
11.52
9.90
8.62
7.43
6.01
4.06
1.41
-1.85
-5.43
-8.84
-11.49
-12.76
-12.15
-9.43
-4.73
1.44
8.29
14.95
20.74
25.22
28.18
29.63
29.69
28.52
26.43
23.79
21.00
18.49
16.54
15.18
14.33
13.78
13.34
12.86
12.31
11.64
10.78
9.62
7.99
5.76
2.86
-0.61
-4.52
-8.53
-12.32
-15.51
-17.76
-18.80
-18.33
-16.13
-12.06
-6.20
1.05
9.05
16.98
24.02
29.48
33.02
34.56
34.32
32.62
29.91
26.73
23.69
21.32
19.81
18.90
17.82
15.59
11.39
5.01
-3.03
-11.67
-19.67
-26.11
-30.63
-33.48
-35.15
-36.20
-36.98
-37.49
-37.54
-36.74
-34.74
-31.33
-26.52
-20.55
-13.80
-6.65
0.53
7.33
13.45
18.53
22.27
24.47
25.17
24.64
23.35
21.77
20.12
18.45
16.57
14.27
11.49
8.38
5.27
2.51
0.28
-1.50
-3.08
-4.79
-6.95
-9.72
-13.06
-16.69
-20.12
-22.72
-23.82
-22.88
-19.71
-14.57
-8.15
-1.32
5.09
10.60
15.10
18.66
21.45
23.45
24.50
24.43
23.22
21.10
18.51
15.97
13.82
12.16
10.84
9.60
8.20
6.49
4.32
1.70
-1.29
-4.43
-7.43
-9.95
-11.76
-12.91
-13.75
-14.89
-16.90
-19.96
-23.67
-27.11
-29.16
-28.92
-26.03
-20.78
-13.83
-5.85
2.68
11.50
20.33
28.58
35.41
39.90
41.40
39.85
35.79
30.14
23.76
17.34
11.17
5.37
0.05
-4.55
-8.01
-9.88
-9.81
-7.84
-4.44
-0.49
2.94
4.80
4.36
1.36
-3.93
-10.71
-17.81
-23.93
-27.92
-29.09
-27.37
-23.35
-17.92
-11.99
-6.11
-0.35
5.55
11.69
17.89
23.61
28.00
30.33
30.15
27.44
22.59
16.39
9.64
3.07
-2.76
-7.59
-11.25
-13.63
-14.61
-14.08
-12.10
-9.05
-5.78
-3.31
-2.64
-4.20
-7.88
-12.96
-18.39
-23.15
-26.44
-27.74
-26.86
-23.89
-18.98
-12.49
-4.87
3.32
11.39
18.65
24.43
28.25
29.91
29.47
27.27
23.65
18.93
13.34
7.17
0.81
-5.25
-10.62
-14.99
-18.23
-20.23
-20.80
-19.92
-17.74
-14.87
-12.24
-10.83
-11.21
-13.17
-15.68
-17.40
-17.28
-15.01
-11.15
-6.83
-3.06
-0.39
1.25
2.40
3.62
5.28
7.46
10.08
13.09
16.57
20.48
24.56
28.17
30.34
30.17
27.09
21.26
13.50
5.11
-2.58
-8.69
-12.93
-15.69
-17.63
-19.44
-21.51
-23.80
-25.87
-27.21
-27.32
-25.89
-22.98
-18.79
-13.76
-8.50
-3.56
0.66
4.00
6.52
8.48
10.14
11.75
13.39
15.07
16.69
18.07
18.95
19.04
18.09
15.98
12.83
8.94
4.78
0.81
-2.63
-5.36
-7.35
-8.72
-9.67
-10.45
-11.44
-13.00
-15.39
-18.60
-22.18
-25.30
-26.97
-26.39
-23.28
-17.95
-11.19
-3.90
3.12
9.43
14.90
19.45
22.99
25.30
26.15
25.61
24.00
21.83
19.67
17.78
16.10
14.32
12.14
9.39
6.30
3.27
0.70
-1.13
-2.26
-3.00
-3.74
-4.84
-6.59
-8.98
-11.96
-15.22
-18.34
-20.73
-21.85
-21.18
-18.47
-13.91
-8.01
-1.55
4.65
9.91
13.79
16.16
17.10
16.87
15.72
13.98
11.91
9.80
7.87
6.28
5.16
4.52
4.29
4.28
4.32
4.27
4.12
3.88
3.63
3.36
2.91
2.09
0.63
-1.56
-4.42
-7.64
-10.80
-13.36
-14.80
-14.70
-12.72
-8.81
-3.18
3.60
10.70
17.23
22.31
25.36
25.97
24.05
19.78
13.47
5.61
-3.14
-11.92
-19.81
-25.96
-29.89
-31.59
-31.56
-30.66
-29.77
-29.56
-30.22
-31.62
-33.40
-35.30
-37.17
-38.98
-40.66
-41.92
-42.25
-41.04
-37.85
-32.49
-25.26
-16.68
-7.41
1.86
10.62
18.37
24.71
29.24
31.80
32.36
31.15
28.62
25.21
21.46
17.77
14.45
11.63
9.38
7.56
5.94
4.31
2.51
0.51
-1.61
-3.81
-6.09
-8.49
-11.19
-14.21
-17.40
-20.39
-22.53
-23.22
-21.96
-18.53
-13.15
-6.32
1.23
8.78
15.63
21.29
25.49
28.15
29.43
29.60
29.05
28.05
26.78
25.17
23.11
20.44
17.12
13.23
8.96
4.63
0.48
-3.27
-6.48
-9.02
-10.99
-12.53
-13.94
-15.57
-17.60
-19.99
-22.30
-23.80
-23.63
-21.26
-16.67
-10.38
-3.31
3.60
9.56
14.16
17.29
19.09
19.69
19.31
18.17
16.53
14.74
12.99
11.45
10.09
8.83
7.63
6.48
5.32
4.06
2.62
0.80
-1.42
-4.03
-6.90
-9.85
-12.68
-15.30
-17.60
-19.26
-20.00
-19.38
-17.18
-13.40
-8.32
-2.43
3.69
9.45
14.39
18.10
20.34
21.00
20.20
18.15
15.25
11.95
8.53
5.17
1.88
-1.31
-4.39
-7.24
-9.73
-11.79
-13.40
-14.68
-15.85
-17.18
-18.88
-21.11
-23.97
-27.39
-31.14
-34.72
-37.52
-38.82
-38.09
-35.04
-29.83
-22.96
-15.19
-7.42
-0.45
5.10
8.94
10.94
11.19
9.94
7.56
4.52
1.43
-1.17
-2.85
-3.40
-2.93
-1.78
-0.25
1.35
2.90
4.26
5.21
5.39
4.41
2.04
-1.67
-6.30
-11.22
-15.68
-19.00
-20.65
-20.31
-17.80
-13.20
-6.84
0.76
8.96
17.09
24.42
30.33
34.26
35.91
35.31
32.88
29.35
25.57
22.26
19.86
18.47
18.00
18.11
18.36
18.23
17.15
14.66
10.51
4.79
-2.05
-9.29
-16.04
-21.38
-24.46
-24.67
-21.75
-15.90
-7.77
1.69
11.37
20.26
27.62
32.93
35.97
36.70
35.27
31.98
27.30
21.74
15.75
9.76
4.03
-1.20
-5.78
-9.62
-12.73
-15.18
-16.94
-17.79
-17.35
-15.28
-11.60
-6.87
-2.22
1.06
1.95
0.14
-3.87
-8.92
-13.65
-16.97
-18.33
-17.86
-16.08
-13.66
-11.03
-8.21
-4.78
-0.19
5.90
13.23
20.76
27.01
30.38
29.86
25.37
17.74
8.42
-1.09
-9.64
-16.62
-21.69
-24.56
-25.02
-23.00
-18.96
-14.07
-9.98
-8.26
-9.78
-14.16
-19.90
-24.95
-27.42
-26.14
-20.94
-12.42
-1.67
10.14
21.82
32.29
40.50
45.56
46.80
44.03
37.59
28.40
17.75
7.02
-2.57
-10.11
-15.09
-17.38
-17.13
-14.83
-11.28
-7.64
-5.25
-5.30
-8.39
-14.25
-21.65
-28.82
-33.84
-35.15
-32.05
-24.73
-14.11
-1.63
11.07
22.39
30.99
35.88
36.67
33.56
27.28
19.07
10.27
2.14
-4.41
-8.88
-11.25
-11.71
-10.61
-8.33
-5.30
-2.11
0.49
1.73
0.93
-2.25
-7.58
-14.35
-21.32
-27.11
-30.48
-30.62
-27.26
-20.74
-11.81
-1.43
9.27
19.20
27.27
32.56
34.36
32.44
27.12
19.32
10.38
1.75
-5.30
-9.96
-11.93
-11.37
-8.75
-4.69
0.18
5.24
9.96
13.80
16.27
16.94
15.59
12.17
6.99
0.62
-6.18
-12.56
-17.59
-20.44
-20.55
-17.77
-12.48
-5.49
2.03
8.87
14.02
16.91
17.43
15.93
13.08
9.63
6.30
3.67
2.09
1.63
2.19
3.41
4.89
6.10
6.61
6.11
4.53
2.04
-1.11
-4.64
-8.41
-12.35
-16.29
-19.89
-22.61
-23.78
-22.93
-20.07
-15.73
-10.98
-6.92
-4.29
-3.20
-3.20
-3.44
-3.16
-1.91
0.37
3.46
7.10
11.13
15.47
19.92
24.18
27.83
30.33
31.39
30.96
29.28
26.78
23.84
20.63
17.00
12.56
6.82
-0.42
-9.01
-18.29
-27.39
-35.33
-41.26
-44.58
-44.94
-42.31
-36.78
-28.85
-19.26
-8.99
0.95
9.70
16.73
21.86
25.08
26.59
26.46
24.84
21.98
18.24
14.03
9.76
5.69
1.90
-1.62
-4.87
-7.69
-9.77
-10.89
-10.91
-9.98
-8.39
-6.63
-5.17
-4.44
-4.79
-6.37
-9.08
-12.39
-15.53
-17.48
-17.47
-15.11
-10.59
-4.59
2.05
8.55
14.48
19.51
23.50
26.27
27.66
27.72
26.71
25.11
23.48
22.16
21.27
20.70
20.14
19.34
18.13
16.44
14.27
11.68
8.69
5.43
1.99
-1.61
-5.47
-9.71
-14.47
-19.72
-25.15
-30.17
-33.98
-35.70
-34.68
-30.71
-24.06
-15.51
-6.16
2.87
10.65
16.62
20.65
22.96
23.88
23.75
22.81
21.24
19.27
17.22
15.34
13.80
12.57
11.45
10.12
8.43
6.40
4.29
2.40
0.92
-0.23
-1.34
-2.80
-4.92
-7.88
-11.60
-15.81
-20.02
-23.57
-25.81
-26.18
-24.42
-20.57
-15.10
-8.62
-1.86
4.50
9.92
14.09
16.85
18.19
18.26
17.30
15.64
13.62
11.55
9.70
8.25
7.20
6.44
5.75
4.93
3.92
2.73
1.48
0.28
-0.94
-2.40
-4.41
-7.29
-11.14
-15.74
-20.57
-24.89
-27.88
-28.89
-27.56
-23.90
-18.35
-11.62
-4.46
2.44
8.61
13.74
17.70
20.42
21.87
22.06
21.08
19.16
16.63
13.94
11.42
9.31
7.64
6.32
5.18
4.02
2.77
1.30
-0.43
-2.49
-4.94
-7.88
-11.40
-15.49
-20.03
-24.59
-28.47
-30.74
-30.57
-27.54
-21.89
-14.48
-6.48
0.99
7.20
11.86
15.07
17.16
18.51
19.59
20.79
22.33
24.05
25.36
25.30
22.92
17.77
10.04
0.69
-8.96
-17.54
-24.02
-27.75
-28.49
-26.36
-21.74
-15.53
-8.86
-3.11
0.64
1.78
0.42
-2.79
-6.93
-11.03
-14.41
-16.54
-17.04
-15.60
-11.89
-5.84
2.24
11.49
20.68
28.30
33.13
34.30
31.61
25.50
16.92
7.08
-2.66
-10.94
-16.57
-18.67
-16.96
-12.04
-5.39
0.76
4.00
2.44
-4.60
-16.38
-30.83
-45.12
-56.45
-62.63
-62.45
-55.86
-43.82
-28.08
-10.95
5.24
18.54
27.73
32.57
33.58
31.87
28.69
25.25
22.45
20.88
20.76
21.83
23.50
25.01
25.55
24.55
21.89
17.78
12.82
7.72
3.06
-0.85
-3.98
-6.65
-9.24
-11.92
-14.60
-16.81
-17.95
-17.60
-15.74
-12.74
-9.21
-5.64
-2.21
1.16
4.77
8.81
13.24
17.81
22.18
26.04
29.16
31.43
32.75
33.17
32.84
31.98
30.95
29.91
28.96
28.04
27.09
26.16
25.40
24.95
24.80
24.73
24.33
23.25
21.36
18.95
16.65
15.26
15.57
18.10
23.06
30.20
38.76
47.39
54.21
57.09
53.98
43.68
26.13
2.69
-24.26
-51.71
-76.72
-96.79
-110.17
-116.04
-114.55
-106.89
-95.11
-81.64
-68.52
-56.89
-46.72
-37.17
-27.45
-17.33
-7.48
0.89
6.54
8.68
7.23
2.74
-3.89
-11.61
-19.13
-25.20
-28.65
-28.73
-25.41
-19.36
-11.71
-3.74
3.49
9.38
13.75
16.75
18.73
20.25
21.81
23.90
26.72
30.14
33.80
37.15
39.66
40.89
40.48
38.06
33.41
26.54
17.89
8.36
-0.91
-8.95
-15.14
-19.25
-21.13
-20.33
-16.04
-7.40
6.07
23.76
43.99
64.42
82.81
97.64
108.49
115.86
120.71
124.08
126.69
129.06
131.60
134.87
139.59
146.49
156.12
168.41
182.75
198.06
213.33
227.94
241.59
253.88
263.62
268.58
265.77
252.53
227.56
191.61
147.33
98.25
47.70
-2.01
-49.70
-95.07
-138.01
-178.51
-216.78
-253.41
-289.63
-326.87
-365.75
-405.26
-442.34
-472.34
-490.42
-493.28
-480.31
-453.86
-418.14
-377.67
-335.84
-294.33
-253.42
-212.88
-172.91
-134.31
-98.44
-66.64
-39.86
-18.52
-2.70
7.82
13.40
14.52
12.01
7.19
1.83
-1.91
-2.01
2.83
12.86
26.96
42.92
58.14
70.39
78.38
82.04
82.13
79.71
75.70
70.65
64.91
58.95
53.46
49.19
46.76
46.24
47.08
48.37
49.17
48.73
46.87
43.81
39.92
35.68
31.38
27.08
22.76
18.32
13.50
8.14
2.19
-4.06
-9.90
-14.17
-15.68
-13.54
-7.57
1.47
12.22
23.12
32.84
40.59
46.06
49.25
50.18
48.93
45.65
40.74
34.96
29.16
24.14
20.43
18.19
17.30
17.56
18.58
19.92
20.89
20.62
18.28
13.36
5.89
-3.52
-13.85
-24.16
-33.76
-42.37
-49.88
-55.92
-59.74
-60.22
-56.41
-47.94
-35.42
-20.38
-4.79
9.46
21.20
30.02
36.16
40.12
42.29
42.79
41.56
38.65
34.34
29.38
24.64
20.90
18.52
17.39
16.93
16.48
15.59
14.17
12.43
10.63
8.93
7.20
5.21
2.58
-0.95
-5.46
-10.87
-16.80
-22.54
-27.15
-29.56
-28.82
-24.58
-17.16
-7.59
2.66
12.17
19.89
25.31
28.31
29.04
27.79
24.85
20.74
16.04
11.45
7.52
4.63
2.81
1.92
1.79
2.29
3.40
5.05
7.15
9.37
11.21
12.05
11.31
8.52
3.61
-3.10
-10.88
-18.47
-24.58
-27.94
-27.80
-23.95
-16.90
-7.71
2.29
11.77
19.78
25.77
29.59
31.31
31.17
29.55
26.82
23.54
20.23
17.23
14.62
12.29
9.91
7.31
4.59
1.97
-0.21
-1.85
-3.10
-4.41
-6.24
-8.87
-12.44
-16.80
-21.58
-26.22
-29.98
-31.96
-31.32
-27.51
-20.54
-11.12
-0.48
9.98
19.09
26.08
30.72
33.06
33.36
31.88
29.00
25.23
21.16
17.34
14.07
11.35
8.89
6.38
3.57
0.51
-2.52
-5.20
-7.30
-8.79
-9.91
-11.11
-12.92
-15.89
-20.22
-25.68
-31.53
-36.55
-39.36
-38.77
-34.30
-26.25
-15.67
-4.00
7.31
17.10
24.77
30.10
33.22
34.31
33.67
31.58
28.44
24.70
20.85
17.35
14.41
11.98
9.81
7.55
4.99
2.17
-0.61
-3.03
-4.86
-6.25
-7.66
-9.65
-12.71
-17.01
-22.32
-27.97
-33.03
-36.39
-37.03
-34.27
-27.94
-18.58
-7.32
4.42
15.32
24.40
31.15
35.50
37.57
37.66
36.07
33.18
29.51
25.61
21.94
18.85
16.45
14.65
13.21
11.85
10.26
8.27
5.80
2.94
-0.14
-3.26
-6.33
-9.39
-12.58
-16.15
-20.25
-24.91
-29.83
-34.40
-37.75
-38.88
-36.93
-31.57
-23.18
-12.72
-1.63
8.79
17.61
24.40
29.14
31.99
33.08
32.54
30.64
27.78
24.58
21.62
19.26
17.59
16.49
15.70
15.01
14.22
13.08
11.33
8.78
5.38
1.31
-3.11
-7.58
-11.97
-16.39
-21.10
-26.28
-31.68
-36.71
-40.42
-41.83
-40.23
-35.41
-27.68
-17.86
-7.03
3.66
13.20
20.95
26.58
30.04
31.45
31.03
29.10
26.07
22.35
18.44
14.77
11.62
9.07
7.00
5.12
3.21
1.12
-1.07
-3.14
-4.81
-5.90
-6.46
-6.83
-7.57
-9.25
-12.18
-16.34
-21.21
-25.99
-29.68
-31.26
-30.05
-25.78
-18.69
-9.54
0.58
10.46
18.97
25.40
29.42
31.05
30.50
28.15
24.43
19.87
15.09
10.66
7.04
4.45
2.74
1.53
0.44
-0.82
-2.24
-3.56
-4.52
-5.03
-5.31
-5.92
-7.46
-10.43
-14.95
-20.68
-26.83
-32.37
-36.14
-37.19
-34.96
-29.43
-21.15
-11.16
-0.64
9.31
17.82
24.42
28.88
31.18
31.43
29.91
26.99
23.17
19.02
14.95
11.25
7.95
4.95
2.13
-0.58
-3.12
-5.37
-7.21
-8.71
-10.03
-11.48
-13.46
-16.26
-19.98
-24.49
-29.29
-33.70
-36.82
-37.69
-35.58
-30.22
-21.94
-11.65
-0.62
9.84
18.71
25.31
29.51
31.41
31.34
29.67
26.82
23.25
19.42
15.77
12.56
9.96
7.86
6.05
4.30
2.37
0.25
-1.94
-3.99
-5.75
-7.33
-9.09
-11.49
-14.86
-19.33
-24.61
-30.09
-34.93
-38.18
-38.95
-36.65
-31.12
-22.74
-12.47
-1.59
8.67
17.33
23.90
28.33
30.79
31.48
30.67
28.58
25.55
21.96
18.27
14.88
12.09
9.91
8.14
6.45
4.46
2.01
-0.87
-3.95
-6.92
-9.50
-11.76
-13.97
-16.57
-20.02
-24.41
-29.41
-34.18
-37.58
-38.46
-36.04
-30.21
-21.52
-11.10
-0.31
9.70
18.07
24.45
28.79
31.25
32.04
31.43
29.62
26.93
23.82
20.72
18.01
15.89
14.18
12.50
10.44
7.69
4.28
0.60
-2.92
-5.88
-8.24
-10.29
-12.50
-15.34
-19.09
-23.67
-28.67
-33.30
-36.58
-37.54
-35.58
-30.61
-23.11
-14.00
-4.29
5.32
14.50
23.26
31.57
38.97
44.67
47.74
47.68
44.79
40.30
35.83
32.89
32.07
32.94
34.42
35.47
35.64
35.20
34.74
34.54
34.09
32.11
26.87
16.74
0.50
-22.85
-54.10
-93.74
-141.21
-193.86
-246.62
-292.78
-325.84
-342.14
-342.38
-331.32
-315.45
-299.80
-285.65
-270.84
-252.13
-228.04
-200.41
-173.22
-149.69
-129.74
-109.65
-84.30
-50.87
-11.35
27.65
57.86
73.25
72.76
60.35
42.72
26.51
16.19
13.73
19.40
32.62
52.22
76.05
100.44
120.67
132.23
132.64
122.55
105.91
88.31
75.06
69.40
71.74
80.27
92.05
104.22
114.48
121.50
124.74
124.58
122.40
120.45
121.18
126.37
136.15
148.58
160.20
167.13
166.56
157.75
142.00
121.92
100.37
79.70
61.43
46.57
35.80
29.58
28.11
30.94
37.04
45.05
53.56
61.34
67.10
69.29
66.21
56.62
40.59
20.07
-1.51
-20.42
-34.01
-41.60
-44.22
-43.70
-41.63
-38.77
-35.34
-31.53
-27.93
-25.38
-24.50
-25.24
-26.91
-28.50
-29.09
-28.22
-26.10
-23.63
-22.18
-23.11
-27.05
-33.27
-39.74
-43.69
-42.87
-36.58
-26.53
-16.29
-10.15
-11.16
-19.84
-33.86
-48.92
-60.39
-65.44
-64.70
-62.50
-65.74
-80.98
-112.00
-158.16
-213.76
-269.05
-312.18
-332.14
-321.96
-281.28
-216.99
-141.54
-68.84
-9.64
31.73
57.38
73.26
85.16
95.67
103.77
106.63
102.14
90.64
74.45
56.40
38.60
21.98
6.48
-7.87
-20.66
-30.96
-37.71
-40.64
-40.40
-38.11
-34.59
-29.49
-21.14
-7.11
14.40
43.40
77.44
112.30
143.27
166.75
181.25
187.30
186.61
180.75
170.47
155.59
135.83
111.62
84.37
56.41
30.62
9.93
-2.72
-4.69
5.79
28.81
61.85
99.58
134.83
160.73
172.91
170.94
157.83
138.28
116.52
95.12
74.92
56.08
39.09
25.18
15.95
12.38
14.24
19.73
26.05
30.32
30.46
25.88
17.52
7.50
-1.77
-8.52
-12.31
-14.17
-15.97
-19.48
-25.45
-33.18
-40.80
-46.21
-48.16
-46.85
-43.95
-41.70
-41.70
-44.02
-46.85
-46.99
-40.84
-25.76
-1.25
30.43
64.57
95.00
115.58
121.93
112.80
90.60
60.95
30.83
6.41
-8.87
-15.10
-15.40
-14.25
-15.40
-19.82
-24.69
-24.34
-12.67
13.26
51.34
94.20
131.41
153.34
154.69
136.55
105.93
73.21
48.27
37.70
43.02
60.35
82.25
100.50
108.99
105.57
92.65
75.02
56.97
40.33
24.00
6.11
-13.99
-34.67
-52.82
-65.29
-69.98
-65.88
-52.45
-29.21
3.92
45.02
89.48
131.00
163.81
185.00
195.82
200.65
204.54
211.21
221.37
233.05
243.01
247.60
243.45
228.12
200.72
162.27
116.11
67.07
20.12
-20.84
-54.49
-82.31
-107.70
-134.78
-166.76
-204.56
-245.89
-285.28
-315.37
-329.38
-323.49
-298.30
-258.99
-213.73
-170.78
-135.96
-111.48
-96.63
-89.35
-86.97
-85.85
-80.37
-62.74
-24.62
39.12
126.74
227.96
325.87
402.16
443.21
444.03
408.75
347.25
270.42
186.42
99.76
12.38
-74.29
-158.27
-237.18
-309.41
-375.28
-437.71
-500.84
-567.99
-639.34
-710.73
-773.96
-818.80
-836.14
-821.16
-775.17
-705.04
-620.47
-530.51
-440.72
-352.49
-264.50
-175.34
-85.41
2.58
84.71
157.25
217.47
263.27
292.31
301.86
289.93
257.00
207.70
150.43
95.05
49.29
16.36
-5.62
-21.18
-34.04
-44.55
-49.36
-43.75
-24.84
6.24
44.65
84.05
119.43
148.73
172.49
192.32
208.92
221.31
227.44
225.60
215.70
199.93
182.12
166.60
156.92
154.89
160.27
171.18
184.75
197.86
207.79
212.48
210.67
201.83
186.10
164.17
137.26
106.82
74.41
41.65
10.35
-17.39
-39.04
-52.13
-54.59
-45.12
-23.57
9.00
50.03
95.15
138.48
173.36
193.71
195.78
179.15
146.98
105.19
61.04
21.26
-9.37
-28.94
-38.66
-42.13
-44.03
-48.63
-58.42
-73.63
-92.57
-112.65
-131.13
-145.79
-154.92
-157.34
-152.73
-141.88
-126.82
-110.41
-95.31
-83.28
-74.72
-68.97
-65.06
-62.27
-60.31
-59.28
-59.34
-60.50
-62.73
-65.86
-69.61
-73.73
-77.98
-82.15
-86.07
-89.55
-92.37
-94.35
-95.33
-95.19
-93.74
-90.67
-85.47
-77.72
-67.33
-54.82
-41.16
-27.49
-14.49
-2.18
10.04
22.85
36.62
51.10
65.65
79.41
91.65
101.75
109.13
113.24
113.64
110.39
104.05
95.71
86.60
77.70
69.55
62.25
55.63
49.46
43.51
37.51
31.11
23.92
15.75
6.81
-2.30
-10.70
-17.55
-22.30
-24.74
-24.88
-22.81
-18.61
-12.50
-5.03
2.79
9.68
14.56
16.81
16.56
14.37
11.06
7.34
3.64
0.20
-2.87
-5.62
-8.10
-10.21
-11.52
-11.01
-7.13
1.87
17.21
39.04
65.95
95.38
124.34
150.33
171.90
188.77
201.27
209.78
214.18
213.87
208.15
196.84
180.61
160.88
139.41
117.67
96.44
75.71
54.99
33.74
11.84
-10.28
-31.71
-51.36
-68.43
-82.78
-95.20
-107.32
-121.19
-138.58
-160.11
-184.68
-209.32
-229.82
-241.88
-242.52
-231.08
-209.28
-180.56
-148.84
-117.44
-88.38
-62.66
-40.60
-22.23
-7.25
5.20
16.75
29.71
46.57
69.55
100.24
139.57
187.86
244.38
306.72
370.16
428.01
472.87
498.79
503.10
487.16
455.59
414.38
368.87
322.48
276.73
231.84
187.66
144.39
102.71
63.91
29.53
1.26
-19.67
-32.84
-39.14
-40.59
-39.92
-39.92
-42.88
-50.33
-62.99
-80.81
-102.94
-127.58
-152.19
-173.76
-189.51
-197.67
-197.93
-191.50
-180.76
-168.42
-156.73
-146.94
-139.18
-132.79
-126.88
-120.83
-114.51
-107.94
-101.03
-93.48
-84.95
-75.65
-66.57
-59.36
-55.64
-56.23
-60.57
-67.07
-73.87
-79.58
-83.81
-86.80
-88.92
-90.15
-90.11
-88.46
-85.32
-81.49
-77.92
-75.31
-73.69
-72.40
-70.56
-67.59
-63.49
-58.88
-54.62
-51.30
-49.02
-47.44
-45.99
-44.33
-42.52
-41.06
-40.64
-41.74
-44.31
-47.70
-51.00
-53.40
-54.59
-54.74
-54.36
-53.95
-53.78
-53.81
-53.92
-54.02
-54.16
-54.55
-55.35
-56.51
-57.75
-58.61
-58.54
-57.11
-54.05
-49.32
-43.10
-35.84
-28.00
-20.09
-12.54
-5.57
0.74
6.40
11.45
15.90
19.70
22.97
25.82
28.44
30.96
33.39
35.59
37.28
38.13
37.93
36.66
34.47
31.76
28.99
26.52
24.50
22.73
20.71
17.72
13.11
6.51
-2.01
-11.92
-22.37
-32.41
-41.05
-47.41
-50.78
-50.61
-46.79
-39.77
-30.61
-20.80
-11.87
-4.80
0.24
3.82
6.85
9.87
12.81
15.03
15.81
14.91
12.82
10.48
8.80
8.22
8.50
9.07
9.44
9.43
9.20
8.93
8.59
7.91
6.48
4.08
0.79
-3.08
-7.27
-11.68
-16.43
-21.59
-27.07
-32.41
-36.90
-39.83
-40.65
-39.16
-35.45
-29.97
-23.31
-16.26
-9.61
-4.11
-0.30
1.54
1.52
0.14
-1.95
-4.06
-5.60
-6.24
-5.94
-4.90
-3.49
-2.09
-0.94
-0.19
0.09
-0.06
-0.66
-1.71
-3.17
-4.95
-6.77
-8.35
-9.49
-10.14
-10.35
-10.30
-10.16
-10.10
-10.23
-10.59
-11.10
-11.62
-11.81
-11.28
-9.67
-6.72
-2.41
2.97
8.91
14.71
19.70
23.37
25.55
26.31
25.99
25.04
23.81
22.46
20.91
19.05
16.81
14.33
11.85
9.68
8.02
6.80
5.76
4.62
3.21
1.52
-0.33
-2.21
-4.21
-6.55
-9.51
-13.25
-17.64
-22.25
-26.50
-29.89
-32.06
-32.92
-32.47
-30.77
-27.82
-23.62
-18.28
-12.08
-5.44
1.12
7.12
12.24
16.26
19.11
20.78
21.28
20.72
19.20
16.99
14.42
11.92
9.88
8.55
7.95
7.92
8.15
8.29
8.19
7.75
7.01
6.00
4.66
2.85
0.47
-2.51
-5.96
-9.62
-13.19
-16.40
-18.98
-20.74
-21.41
-20.67
-18.27
-14.16
-8.58
-2.15
4.26
9.81
13.90
16.31
17.26
17.15
16.44
15.39
14.08
12.45
10.53
8.43
6.36
4.60
3.26
2.32
1.63
0.93
-0.01
-1.28
-2.84
-4.51
-6.12
-7.63
-9.19
-11.05
-13.49
-16.72
-20.62
-24.81
-28.66
-31.47
-32.65
-31.76
-28.65
-23.38
-16.34
-8.19
0.28
8.23
15.02
20.22
23.78
25.87
26.80
26.84
26.26
25.17
23.62
21.68
19.46
17.19
15.15
13.54
12.46
11.75
11.02
9.87
8.06
5.62
2.77
-0.17
-2.96
-5.54
-8.03
-10.60
-13.38
-16.33
-19.42
-22.58
-25.61
-28.24
-29.95
-30.01
-27.75
-22.83
-15.44
-6.53
2.64
10.83
17.19
21.45
23.86
24.93
25.12
24.78
23.98
22.75
21.08
19.01
16.68
14.37
12.33
10.79
9.78
9.08
8.38
7.36
5.89
4.07
2.25
0.69
-0.53
-1.61
-2.95
-5.01
-8.01
-11.98
-16.64
-21.50
-25.99
-29.45
-31.19
-30.62
-27.43
-21.59
-13.62
-4.33
5.19
13.91
21.03
26.16
29.25
30.49
30.15
28.47
25.68
21.95
17.56
12.83
8.30
4.45
1.63
-0.02
-0.65
-0.56
-0.17
0.11
0.06
-0.36
-1.02
-1.77
-2.48
-3.28
-4.41
-6.16
-8.74
-12.16
-16.14
-20.18
-23.72
-26.16
-27.04
-26.01
-22.94
-17.89
-11.22
-3.56
4.33
11.58
17.56
21.78
24.15
24.78
24.04
22.36
20.13
17.73
15.40
13.33
11.60
10.29
9.41
8.91
8.66
8.38
7.83
6.85
5.40
3.62
1.63
-0.47
-2.76
-5.35
-8.36
-11.67
-15.08
-18.28
-21.04
-23.19
-24.49
-24.64
-23.12
-19.56
-13.87
-6.56
1.37
8.81
14.77
18.85
21.07
21.78
21.26
19.74
17.30
14.19
10.78
7.54
4.90
3.07
1.92
1.08
0.20
-1.01
-2.60
-4.42
-6.29
-8.07
-9.78
-11.55
-13.66
-16.23
-19.26
-22.59
-25.89
-28.83
-31.00
-32.01
-31.38
-28.72
-23.77
-16.66
-7.99
1.28
10.04
17.41
22.90
26.50
28.45
29.04
28.43
26.67
23.87
20.24
16.21
12.33
9.02
6.37
4.11
1.78
-1.09
-4.58
-8.46
-12.30
-15.70
-18.49
-20.76
-22.76
-24.80
-27.10
-29.71
-32.61
-35.74
-38.85
-41.39
-42.52
-41.27
-36.93
-29.41
-19.39
-8.26
2.44
11.37
17.86
21.85
23.79
24.22
23.53
22.00
19.74
16.97
13.96
11.10
8.76
7.17
6.35
5.97
5.53
4.41
2.29
-0.90
-4.81
-8.94
-12.84
-16.31
-19.59
-23.11
-27.35
-32.46
-38.33
-44.42
-49.90
-53.84
-55.22
-53.21
-47.33
-37.66
-24.90
-10.13
5.38
20.62
34.85
47.69
58.86
68.15
75.32
80.11
82.41
82.29
80.04
76.06
70.94
65.21
59.42
53.89
48.68
43.60
38.40
32.94
27.26
21.66
16.47
11.89
7.88
4.20
0.48
-3.58
-8.14
-13.13
-18.19
-22.82
-26.36
-28.07
-27.33
-23.79
-17.55
-9.22
0.24
9.71
18.20
25.05
30.02
33.15
34.63
34.68
33.49
31.28
28.35
24.98
21.47
18.04
14.75
11.52
8.16
4.54
0.62
-3.50
-7.59
-11.35
-14.55
-17.17
-19.43
-21.70
-24.40
-27.75
-31.73
-36.13
-40.55
-44.49
-47.42
-48.75
-47.89
-44.34
-37.98
-29.08
-18.41
-6.96
4.30
14.62
23.55
30.81
36.22
39.51
40.58
39.47
36.61
32.68
28.46
24.60
21.36
18.75
16.62
14.80
13.14
11.53
9.80
7.73
5.21
2.16
-1.35
-5.25
-9.51
-14.27
-19.67
-25.79
-32.44
-39.06
-44.84
-48.84
-50.32
-48.84
-44.62
-38.39
-31.26
-24.44
-18.75
-14.56
-11.70
-9.84
-8.79
-8.73
-10.22
-13.89
-19.96
-28.06
-37.13
-45.85
-53.29
-59.26
-64.51
-70.25
-77.47
-86.52
-96.82
-107.26
-116.50
-123.34
-126.66
-125.34
-118.26
-104.67
-84.84
-60.30
-33.87
-8.52
13.75
32.81
50.35
68.87
90.27
114.75
140.63
165.20
185.96
201.74
212.96
220.84
226.40
229.63
229.56
225.12
216.40
205.11
194.27
186.83
184.13
185.15
186.89
185.78
179.41
167.65
152.44
136.80
123.34
113.39
106.87
102.84
100.18
98.01
95.67
92.54
88.10
82.23
75.38
68.70
63.39
60.22
58.89
58.18
56.14
50.91
41.19
26.34
6.37
-18.39
-47.35
-79.51
-113.44
-147.16
-178.35
-204.60
-223.79
-234.41
-235.92
-228.91
-215.10
-197.11
-178.04
-160.87
-147.92
-140.39
-138.13
-139.91
-143.74
-147.39
-148.97
-147.16
-141.53
-132.59
-121.64
-110.46
-100.86
-93.92
-89.48
-85.99
-80.79
-71.26
-55.88
-35.12
-11.50
11.29
29.71
41.60
46.50
45.36
39.63
30.46
18.57
4.57
-10.44
-24.63
-35.96
-43.05
-46.02
-46.62
-47.46
-50.87
-57.92
-68.06
-79.66
-90.96
-100.85
-109.23
-116.85
-124.96
-134.76
-146.91
-161.01
-175.26
-186.50
-190.79
-184.46
-165.36
-133.54
-91.19
-41.89
10.24
61.18
107.30
145.54
173.66
190.58
196.73
193.86
184.56
171.42
156.48
140.97
125.53
110.50
96.17
82.87
71.00
61.04
53.49
48.70
46.61
46.59
47.36
47.37
45.19
40.02
31.86
21.46
10.05
-0.81
-9.56
-14.95
-16.26
-13.61
-7.78
0.11
9.18
19.18
30.47
43.61
58.65
74.66
89.68
101.04
106.20
103.46
92.42
74.12
50.70
25.00
0.01
-21.72
-38.55
-50.08
-57.04
-60.91
-63.13
-64.65
-65.55
-65.32
-63.60
-60.66
-57.61
-55.82
-56.02
-57.48
-58.06
-54.94
-45.93
-30.55
-10.29
12.03
33.28
51.05
64.07
72.05
75.24
74.21
69.68
62.68
54.28
45.17
35.27
23.69
9.21
-8.71
-29.25
-50.10
-67.92
-79.41
-82.28
-75.82
-61.01
-40.24
-16.77
5.74
23.80
34.87
37.89
33.60
24.35
13.49
4.39
-0.35
0.55
6.86
17.07
28.86
39.64
47.26
50.45
49.01
43.85
36.53
28.86
22.30
17.63
14.77
13.09
11.67
9.76
7.01
3.42
-0.65
-4.73
-8.46
-11.67
-14.47
-17.17
-20.24
-24.08
-28.85
-34.14
-38.96
-41.92
-41.63
-37.23
-28.65
-16.80
-3.24
10.29
22.23
31.69
38.36
42.49
44.54
45.00
44.16
42.20
39.22
35.35
30.86
26.07
21.35
17.01
13.27
10.24
7.88
6.02
4.27
2.28
-0.37
-3.99
-8.77
-14.70
-21.44
-28.22
-33.79
-36.76
-35.86
-30.53
-21.11
-8.87
4.39
16.95
27.58
35.74
41.37
44.70
45.95
45.28
42.93
39.19
34.58
29.70
25.11
21.22
18.06
15.55
13.37
11.26
9.06
6.75
4.38
1.93
-0.69
-3.78
-7.72
-12.78
-18.89
-25.43
-31.23
-34.86
-35.06
-31.11
-23.22
-12.42
-0.24
11.71
22.15
30.34
36.00
39.14
39.90
38.53
35.40
31.13
26.42
21.96
18.13
15.02
12.33
9.69
6.81
3.75
0.83
-1.62
-3.46
-4.95
-6.67
-9.32
-13.47
-19.34
-26.66
-34.76
-42.60
-48.91
-52.50
-52.35
-48.04
-39.90
-29.06
-17.18
-6.09
2.78
8.80
12.12
13.49
13.73
13.38
12.55
11.08
8.89
6.21
3.60
1.72
0.94
1.05
1.43
1.32
0.25
-1.85
-4.56
-7.43
-10.20
-12.84
-15.68
-19.08
-23.28
-28.25
-33.70
-39.04
-43.54
-46.42
-46.94
-44.60
-39.26
-31.11
-20.58
-8.23
5.25
19.04
32.06
43.08
50.94
54.92
54.92
51.51
45.69
38.37
30.05
20.60
9.51
-3.73
-19.14
-35.74
-51.30
-62.41
-65.38
-57.48
-38.20
-9.86
22.81
54.06
78.85
94.08
98.98
94.61
83.13
67.16
49.60
33.55
21.88
16.72
18.62
26.15
36.30
45.61
51.35
52.43
49.55
44.45
39.07
34.69
31.51
28.96
26.21
22.62
18.00
12.56
6.61
0.40
-5.92
-12.27
-18.49
-24.31
-29.52
-34.08
-38.17
-42.12
-46.18
-50.37
-54.37
-57.37
-58.33
-56.18
-50.22
-40.42
-27.70
-13.77
-0.81
9.18
15.05
16.83
15.68
13.36
11.40
10.64
10.95
11.57
11.65
10.77
9.12
7.40
6.56
7.21
9.51
13.00
16.81
19.91
21.54
21.31
19.45
16.68
13.83
11.63
10.27
9.41
8.44
6.85
4.59
2.25
0.81
1.33
4.61
10.92
19.91
30.54
41.13
49.59
53.89
52.64
45.69
34.21
20.28
6.07
-6.81
-17.71
-26.69
-33.98
-39.64
-43.45
-45.20
-45.00
-43.43
-41.27
-39.22
-37.57
-36.19
-34.81
-33.17
-31.23
-29.22
-27.57
-26.77
-27.19
-28.74
-30.90
-32.67
-32.88
-30.62
-25.58
-18.19
-9.56
-1.07
6.05
10.99
13.36
13.10
10.31
5.19
-1.74
-9.56
-16.98
-22.68
-25.73
-26.15
-24.87
-23.38
-23.22
-25.18
-29.19
-34.36
-39.58
-43.84
-46.70
-48.08
-48.24
-47.54
-46.31
-44.85
-43.31
-41.74
-39.91
-37.39
-33.63
-28.21
-21.01
-12.28
-2.59
7.26
16.52
24.45
30.44
34.01
34.95
33.33
29.56
24.18
17.62
9.95
0.91
-9.79
-22.01
-34.66
-45.90
-53.57
-56.09
-53.13
-45.78
-36.13
-26.53
-18.97
-14.58
-13.73
-16.19
-21.27
-27.82
-34.48
-39.77
-42.59
-42.48
-39.80
-35.56
-31.05
-27.41
-25.39
-25.24
-26.84
-29.76
-33.41
-36.97
-39.51
-40.05
-37.60
-31.58
-21.95
-9.64
3.50
15.02
22.43
24.09
19.90
11.72
2.71
-3.58
-4.61
0.07
8.52
17.05
21.55
19.01
8.71
-7.79
-27.10
-45.20
-58.40
-64.13
-61.35
-50.70
-34.41
-15.79
1.38
13.92
19.95
19.22
13.00
3.35
-7.47
-17.66
-25.97
-31.79
-35.05
-36.05
-35.54
-34.36
-33.26
-32.56
-32.13
-31.54
-30.44
-28.76
-26.87
-25.50
-25.24
-26.21
-27.71
-28.39
-26.62
-21.09
-11.50
1.28
15.31
28.24
38.03
43.59
45.01
43.24
39.71
35.69
32.08
29.28
27.39
26.45
26.47
27.44
29.18
31.35
33.42
34.88
35.36
34.70
32.78
29.43
24.41
17.47
8.76
-0.98
-10.38
-17.75
-21.57
-21.04
-16.32
-8.43
1.07
10.63
19.02
25.62
30.55
34.49
38.37
42.95
48.40
54.20
59.41
63.16
65.01
65.21
64.28
62.66
60.51
57.79
54.47
50.81
47.25
43.87
40.27
35.51
28.47
18.73
6.85
-5.59
-16.63
-24.64
-28.97
-29.96
-28.74
-26.67
-24.77
-23.47
-22.49
-21.24
-19.13
-15.86
-11.57
-6.81
-2.35
1.16
3.29
4.00
3.66
2.84
2.05
1.65
1.63
1.64
1.32
0.39
-1.10
-2.76
-4.22
-5.29
-6.18
-7.50
-9.81
-13.25
-17.29
-20.72
-22.07
-20.15
-14.22
-4.09
10.49
29.77
53.55
80.36
106.82
128.03
139.14
137.39
123.25
100.44
74.05
48.51
25.92
6.02
-12.91
-32.60
-53.98
-77.09
-101.47
-126.70
-152.61
-179.11
-205.63
-230.54
-250.62
-261.27
-257.50
-235.49
-194.34
-136.59
-67.50
7.13
82.73
156.64
226.79
289.57
339.14
368.71
374.02
356.27
322.76
284.42
251.47
229.65
218.93
215.35
214.33
213.69
214.38
219.04
229.34
243.97
258.48
266.65
263.06
245.13
214.08
174.24
131.14
89.25
50.24
13.10
-24.28
-62.65
-100.14
-132.38
-154.42
-163.46
-160.32
-149.39
-136.65
-127.17
-123.33
-124.55
-128.57
-133.02
-136.70
-139.64
-142.26
-144.36
-144.65
-141.25
-132.70
-118.97
-101.72
-83.88
-68.60
-58.09
-53.07
-52.80
-55.73
-60.24
-65.29
-70.39
-75.50
-80.48
-84.86
-87.90
-88.60
-86.10
-79.78
-69.51
-55.72
-39.31
-21.57
-3.83
12.63
26.94
38.56
47.44
53.71
57.62
59.50
59.71
58.67
56.78
54.46
51.82
48.92
45.59
41.72
37.38
32.75
28.07
23.49
19.01
14.40
9.37
3.63
-2.94
-10.18
-17.59
-24.40
-29.62
-32.37
-32.18
-29.14
-23.90
-17.45
-10.80
-4.74
0.42
4.73
8.41
11.66
14.44
16.62
17.99
18.53
18.47
18.26
18.44
19.36
21.12
23.32
25.43
27.12
28.45
29.71
31.15
32.84
34.63
36.17
36.84
36.07
33.74
30.40
27.16
25.34
26.11
30.18
37.53
46.91
56.78
66.16
74.97
83.83
93.41
104.14
115.99
128.66
140.17
148.85
154.38
157.79
160.16
161.50
160.73
156.26
146.59
127.32
95.10
49.81
-4.72
-62.49
-117.38
-164.15
-198.65
-218.35
-228.10
-233.94
-239.52
-244.45
-246.96
-246.95
-246.62
-249.38
-258.69
-284.03
-332.24
-403.13
-488.69
-577.80
-661.46
-734.29
-793.67
-795.06
-710.08
-543.41
-333.82
-125.92
53.63
197.52
308.72
393.19
456.57
497.43
514.71
510.63
492.78
470.44
449.97
433.64
420.73
409.16
391.17
359.28
312.64
256.77
199.37
146.12
99.36
58.93
23.45
-12.07
-51.92
-97.21
-145.57
-193.13
-236.43
-272.85
-300.29
-317.03
-323.98
-323.31
-317.37
-307.87
-295.94
-282.35
-267.46
-251.48
-234.72
-218.66
-205.21
-195.52
-189.04
-183.51
-175.76
-163.32
-145.88
-125.98
-108.63
-99.33
-101.94
-117.10
-142.16
-172.29
-202.45
-228.79
-249.15
-262.71
-269.19
-268.38
-260.42
-245.94
-226.42
-204.09
-181.54
-161.00
-143.78
-129.88
-117.89
-105.95
-91.86
-73.91
-51.30
-24.29
5.79
36.89
66.51
92.15
111.56
123.25
126.50
121.53
109.59
92.71
73.71
55.79
42.29
36.25
40.04
54.74
79.97
113.94
153.48
194.79
234.23
269.02
297.76
320.51
338.32
352.79
365.88
379.30
394.14
410.56
427.09
440.68
447.39
443.74
428.22
402.08
368.82
332.89
297.92
265.45
235.13
205.83
176.96
149.13
123.93
102.93
86.73
74.73
65.49
57.58
50.35
43.94
39.04
36.15
35.14
35.11
34.71
32.77
28.69
22.89
16.36
10.41
6.02
3.51
2.52
2.24
1.84
0.75
-1.08
-3.44
-5.87
-8.03
-9.76
-11.08
-12.15
-13.22
-14.48
-16.09
-18.15
-20.66
-23.47
-26.35
-28.93
-30.72
-31.28
-30.43
-28.34
-25.66
-23.29
-21.99
-22.19
-23.70
-25.78
-27.50
-28.19
-27.58
-25.96
-23.86
-21.83
-20.28
-19.34
-18.96
-19.05
-19.58
-20.54
-21.93
-23.62
-25.33
-26.75
-27.62
-27.93
-27.98
-28.20
-28.89
-30.03
-31.08
-31.24
-29.83
-26.60
-21.91
-16.55
-11.31
-6.68
-2.79
0.56
3.61
6.45
8.97
10.95
12.25
12.86
12.91
12.62
12.21
11.84
11.59
11.47
11.45
11.49
11.59
11.86
12.41
13.35
14.58
15.81
16.64
16.66
15.70
14.01
12.35
11.73
13.21
17.38
24.10
32.53
41.36
49.43
56.04
61.08
64.70
66.91
67.34
65.14
59.31
48.93
33.46
12.82
-12.45
-40.87
-69.79
-95.46
-113.74
-121.21
-116.59
-101.50
-80.09
-57.85
-39.82
-29.16
-26.44
-29.99
-36.85
-43.99
-49.11
-50.99
-49.29
-44.21
-36.21
-25.82
-13.87
-1.52
9.72
18.27
23.16
24.27
22.51
19.41
16.43
14.37
13.25
12.47
11.18
8.97
5.96
2.80
0.38
-0.70
-0.37
0.85
2.18
2.81
2.40
1.07
-0.67
-2.21
-3.25
-4.01
-5.05
-7.04
-10.40
-14.97
-20.01
-24.43
-27.09
-27.31
-24.96
-20.44
-14.55
-8.18
-2.13
3.03
7.06
10.06
12.18
13.60
14.26
14.02
12.82
11.03
9.34
8.69
9.73
12.46
16.05
19.17
20.49
19.25
15.54
10.02
3.70
-2.53
-8.20
-13.28
-17.96
-22.62
-27.86
-34.40
-42.85
-53.13
-63.86
-72.55
-76.25
-73.00
-63.08
-49.29
-35.78
-26.11
-21.30
-19.33
-16.36
-8.84
4.40
21.58
38.88
52.62
60.77
63.44
62.19
58.71
53.92
47.81
39.90
30.19
19.31
7.96
-3.65
-15.90
-29.40
-43.79
-57.35
-67.36
-71.00
-66.79
-55.30
-38.88
-20.77
-4.04
9.14
17.38
19.97
16.80
8.57
-3.04
-15.35
-25.44
-31.25
-32.00
-28.40
-21.97
-14.43
-7.08
-0.69
4.56
8.76
11.94
14.18
15.44
15.71
15.08
13.59
11.32
8.47
5.17
1.58
-2.13
-5.94
-9.78
-13.39
-16.41
-18.19
-18.01
-15.46
-10.60
-3.94
3.61
11.12
17.95
23.72
28.39
31.98
34.43
35.49
34.89
32.48
28.51
23.77
19.26
15.85
13.65
11.57
7.52
-0.74
-14.69
-34.13
-57.07
-80.21
-99.98
-113.66
-120.12
-120.03
-115.47
-109.24
-103.87
-100.80
-99.95
-99.86
-98.38
-93.71
-85.25
-73.61
-60.39
-47.29
-35.39
-24.97
-15.67
-6.77
2.45
12.73
24.62
37.72
50.18
58.76
59.71
50.80
32.94
10.70
-9.05
-19.86
-18.45
-5.91
13.19
32.99
48.92
58.86
62.89
62.12
57.70
50.40
41.19
31.75
24.50
22.12
26.60
38.25
55.26
74.05
90.08
99.25
99.21
90.04
74.27
55.95
39.06
26.20
17.89
12.81
9.04
5.09
0.81
-2.66
-3.71
-1.12
5.26
14.49
24.97
35.13
43.79
50.26
54.11
55.02
52.69
46.89
37.61
25.29
10.77
-4.73
-19.85
-33.21
-43.68
-50.35
-52.80
-51.06
-45.58
-37.16
-26.83
-15.80
-5.45
2.83
7.83
8.77
5.51
-1.36
-10.65
-20.90
-30.75
-39.13
-45.22
-48.51
-48.85
-46.49
-42.23
-37.26
-32.94
-30.25
-29.60
-30.55
-32.29
-33.94
-35.01
-35.56
-36.09
-37.24
-39.32
-42.14
-44.90
-46.53
-45.99
-42.67
-36.61
-28.33
-18.70
-8.46
1.87
12.04
21.95
31.92
42.74
55.36
70.60
88.18
106.12
120.93
128.63
126.45
114.18
94.47
71.58
49.70
31.31
16.73
4.94
-5.28
-14.34
-21.87
-27.21
-30.31
-31.80
-32.67
-33.54
-34.20
-33.70
-30.98
-25.57
-17.98
-9.59
-2.07
3.26
5.86
6.10
4.92
3.36
2.20
1.76
1.90
2.22
2.32
1.99
1.37
0.85
0.88
1.79
3.46
5.33
6.65
6.72
5.25
2.50
-0.93
-4.46
-7.73
-10.79
-13.98
-17.58
-21.63
-25.81
-29.50
-32.09
-33.18
-32.65
-30.71
-27.72
-23.99
-19.88
-15.61
-11.37
-7.32
-3.52
-0.04
3.14
6.03
8.84
11.74
14.94
18.53
22.31
25.97
29.08
31.30
32.47
32.67
32.05
30.73
28.74
26.00
22.46
18.20
13.39
8.34
3.39
-1.18
-5.06
-7.98
-9.82
-10.51
-10.18
-9.10
-7.49
-5.55
-3.38
-1.09
1.18
3.05
4.21
4.39
3.62
2.24
0.66
-0.74
-1.84
-2.69
-3.36
-3.86
-4.04
-3.81
-3.20
-2.64
-2.65
-3.78
-6.10
-9.33
-12.78
-15.76
-17.84
-18.97
-19.46
-19.73
-20.17
-20.95
-22.08
-23.34
-24.36
-24.75
-24.16
-22.47
-19.87
-16.87
-14.17
-12.32
-11.57
-11.67
-12.11
-12.34
-12.10
-11.74
-11.93
-13.34
-16.26
-20.36
-24.71
-28.28
-30.35
-30.79
-30.06
-28.77
-27.36
-26.01
-24.82
-23.88
-23.14
-21.86
-18.19
-9.66
5.89
28.76
56.53
84.64
108.33
124.79
134.10
138.62
140.86
141.83
140.53
135.08
124.46
109.62
93.14
77.78
65.04
54.52
44.62
33.81
21.62
9.10
-2.02
-10.08
-14.24
-14.62
-12.22
-8.37
-4.49
-1.85
-1.53
-4.58
-11.87
-23.74
-39.54
-57.57
-75.36
-90.42
-101.01
-106.49
-107.18
-103.91
-97.55
-88.81
-78.47
-67.48
-57.00
-48.11
-41.45
-37.03
-34.25
-32.28
-30.39
-28.08
-25.12
-21.48
-17.20
-12.38
-7.19
-1.87
3.27
7.95
11.92
15.14
17.68
19.67
21.32
22.81
24.16
25.37
26.33
26.98
27.30
27.38
27.34
27.33
27.43
27.62
27.80
27.83
27.54
26.79
25.52
23.69
21.36
18.75
16.07
13.62
11.67
10.28
9.32
8.47
7.33
5.55
2.98
-0.38
-4.26
-8.36
-12.35
-15.91
-18.75
-20.67
-21.55
-21.46
-20.73
-19.77
-19.08
-18.96
-19.48
-20.38
-21.25
-21.59
-21.03
-19.48
-16.99
-13.81
-10.24
-6.54
-2.91
0.45
3.40
5.80
7.52
8.52
8.90
8.75
8.17
7.18
5.76
3.94
1.82
-0.39
-2.41
-4.09
-5.38
-6.38
-7.26
-8.08
-8.80
-9.25
-9.36
-9.11
-8.62
-8.04
-7.45
-6.86
-6.23
-5.54
-4.73
-3.80
-2.68
-1.34
0.30
2.19
4.18
6.01
7.39
8.13
8.15
7.51
6.28
4.56
2.46
0.10
-2.33
-4.60
-6.48
-7.87
-8.81
-9.41
-9.81
-10.10
-10.28
-10.24
-9.94
-9.34
-8.54
-7.64
-6.73
-5.88
-5.11
-4.49
-4.00
-3.68
-3.52
-3.43
-3.34
-3.21
-3.06
-2.87
-2.72
-2.51
-2.15
-1.54
-0.64
0.49
1.61
2.53
3.13
3.37
3.38
3.29
3.25
3.31
3.43
3.52
3.50
3.31
2.93
2.46
2.03
1.76
1.74
1.87
2.01
2.04
1.83
1.36
0.72
-0.07
-0.96
-1.90
-2.80
-3.42
-3.54
-3.06
-2.13
-1.00
0.01
0.76
1.32
1.90
2.66
3.63
4.60
5.26
5.40
4.93
3.91
2.53
1.03
-0.39
-1.54
-2.26
-2.53
-2.41
-2.13
-1.85
-1.73
-1.85
-2.25
-2.85
-3.55
-4.23
-4.79
-5.18
-5.36
-5.35
-5.18
-4.88
-4.30
-3.31
-1.70
0.57
3.37
6.41
9.26
11.51
12.89
13.31
12.88
11.86
10.48
8.98
7.52
6.19
5.02
4.04
3.19
2.40
1.63
0.89
0.23
-0.30
-0.78
-1.45
-2.71
-5.00
-8.69
-13.89
-20.53
-28.34
-36.91
-45.77
-54.18
-61.39
-66.70
-69.64
-70.02
-67.61
-61.79
-51.39
-34.99
-11.72
17.70
50.43
81.91
107.22
122.73
127.23
122.20
110.89
97.05
83.69
72.56
64.17
58.19
53.62
49.00
42.50
32.42
17.78
-1.02
-22.19
-43.05
-61.25
-75.58
-86.24
-94.45
-101.42
-107.67
-112.63
-114.98
-113.09
-105.52
-91.31
-70.13
-42.52
-10.06
24.50
57.66
85.98
106.90
119.46
124.22
122.78
117.11
108.91
99.37
89.24
78.93
68.69
58.50
48.16
37.27
25.54
13.01
0.09
-12.63
-24.72
-36.31
-48.04
-60.70
-74.55
-88.82
-101.65
-110.54
-113.46
-109.64
-99.95
-86.49
-71.70
-57.55
-44.96
-34.02
-24.33
-15.46
-7.15
0.73
8.23
15.42
22.24
28.41
33.44
36.83
38.33
38.20
37.13
36.08
35.92
37.15
39.72
43.20
46.91
50.22
52.67
54.05
54.55
54.63
54.72
54.78
53.81
49.78
40.15
22.94
-2.19
-33.28
-66.41
-96.92
-120.83
-135.97
-142.31
-141.21
-134.49
-123.61
-109.44
-92.52
-73.61
-53.80
-34.41
-16.67
-1.25
11.81
22.84
32.21
39.95
45.54
48.27
47.57
43.42
36.56
28.24
19.86
12.52
6.73
2.31
-1.35
-4.86
-8.62
-12.57
-16.42
-19.82
-22.52
-24.45
-25.68
-26.19
-25.90
-24.69
-22.50
-19.47
-16.01
-12.54
-9.47
-7.10
-5.54
-4.85
-5.09
-6.30
-8.48
-11.62
-15.51
-19.84
-24.19
-28.19
-31.55
-34.29
-36.60
-38.78
-41.12
-43.67
-46.27
-48.57
-50.25
-51.13
-51.13
-50.24
-48.31
-45.04
-40.01
-32.97
-23.93
-13.26
-1.57
10.51
22.46
33.82
44.06
52.55
58.65
61.98
62.71
61.55
59.59
57.86
56.85
56.45
56.11
55.16
53.29
50.61
47.61
44.82
42.52
40.64
38.88
36.79
34.07
30.71
26.84
22.69
18.44
14.22
10.11
6.31
3.06
0.62
-0.79
-1.15
-0.56
0.87
2.96
5.47
8.13
10.55
12.43
13.63
14.21
14.42
14.51
14.63
14.71
14.65
14.35
13.84
13.28
12.76
12.32
11.94
11.51
10.93
10.25
9.50
8.70
7.84
6.73
5.20
3.10
0.36
-2.95
-6.58
-10.28
-13.81
-16.95
-19.62
-21.73
-23.16
-23.76
-23.28
-21.62
-18.78
-15.06
-10.72
-6.17
-1.68
2.54
6.37
9.77
12.61
14.83
16.30
17.02
17.04
16.49
15.59
14.58
13.73
13.26
13.30
13.87
14.82
15.97
16.97
17.57
17.53
16.83
15.58
13.91
12.00
9.85
7.47
4.85
2.20
-0.20
-1.96
-2.82
-2.72
-1.81
-0.44
1.07
2.44
3.53
4.30
4.76
4.99
5.12
5.30
5.62
6.13
6.75
7.38
8.00
8.56
9.12
9.66
10.10
10.36
10.41
10.31
10.17
10.00
9.50
8.21
5.58
1.41
-4.09
-10.22
-16.12
-21.02
-24.42
-26.19
-26.37
-25.14
-22.77
-19.62
-16.16
-12.93
-10.44
-8.99
-8.65
-9.23
-10.40
-11.76
-12.96
-13.72
-13.87
-13.25
-11.85
-9.83
-7.35
-4.69
-2.17
-0.10
1.33
2.04
2.02
1.32
-0.14
-2.38
-5.39
-9.01
-12.84
-16.33
-18.81
-19.73
-18.79
-16.03
-11.75
-6.55
-1.10
3.97
8.18
11.30
13.27
14.11
13.96
12.95
11.20
8.90
6.32
3.66
1.14
-1.04
-2.83
-4.19
-5.21
-5.96
-6.56
-6.96
-7.18
-7.16
-6.91
-6.58
-6.35
-6.49
-7.14
-8.31
-9.81
-11.41
-12.75
-13.49
-13.30
-11.92
-9.31
-5.65
-1.35
2.95
6.66
9.40
10.99
11.53
11.25
10.34
8.94
7.14
5.04
2.77
0.60
-1.14
-2.17
-2.39
-1.93
-1.14
-0.43
-0.17
-0.50
-1.30
-2.32
-3.31
-4.17
-4.97
-5.86
-6.98
-8.45
-10.25
-12.34
-14.54
-16.57
-18.08
-18.71
-18.28
-16.93
-15.04
-13.19
-11.88
-11.35
-11.43
-11.71
-11.62
-10.72
-8.86
-6.15
-2.95
0.29
3.21
5.66
7.62
9.15
10.27
10.88
10.85
10.11
8.74
7.04
5.43
4.27
3.81
4.09
4.95
6.14
7.40
8.54
9.45
10.09
10.54
11.00
11.66
12.69
14.07
15.56
16.79
17.34
16.96
15.66
13.66
11.32
8.98
6.81
4.84
3.00
1.22
-0.51
-2.21
-3.81
-5.31
-6.75
-8.15
-9.67
-11.38
-13.27
-15.11
-16.67
-17.60
-17.71
-17.06
-15.90
-14.63
-13.66
-13.19
-13.13
-13.21
-13.02
-12.25
-10.74
-8.55
-5.90
-3.08
-0.43
1.80
3.47
4.50
4.88
4.68
4.04
3.13
2.18
1.32
0.72
0.51
0.77
1.49
2.49
3.51
4.25
4.57
4.37
3.78
3.05
2.39
1.97
1.69
1.34
0.54
-0.89
-2.95
-5.25
-7.13
-7.87
-7.03
-4.64
-1.20
2.50
5.75
8.10
9.51
10.19
10.39
10.25
9.72
8.73
7.30
5.58
3.87
2.37
1.12
-0.01
-1.14
-2.42
-3.75
-4.89
-5.61
-5.71
-5.26
-4.45
-3.57
-2.93
-2.83
-3.46
-4.91
-7.02
-9.38
-11.38
-12.28
-11.54
-8.99
-4.95
-0.14
4.58
8.50
11.32
13.12
14.25
15.06
15.73
16.13
15.94
14.86
12.83
10.20
7.52
5.33
3.87
2.97
2.13
0.93
-0.77
-2.62
-3.94
-4.12
-3.02
-1.11
0.74
1.52
0.69
-1.71
-5.00
-8.17
-10.23
-10.51
-8.86
-5.67
-1.82
1.72
4.15
5.10
4.74
3.73
2.94
3.07
4.43
6.65
8.77
9.08
5.88
-2.04
-14.30
-28.77
-42.01
-50.52
-52.22
-47.27
-38.04
-27.78
-19.24
-13.64
-10.59
-8.97
-7.75
-6.74
-6.29
-6.88
-8.43
-10.23
-11.33
-10.94
-8.82
-5.28
-1.12
2.79
5.79
7.68
8.64
9.07
9.36
9.66
9.90
9.81
9.15
7.87
6.17
4.45
3.13
2.57
2.83
3.77
4.97
6.05
6.72
6.83
6.44
5.70
4.89
4.24
3.89
3.76
3.67
3.31
2.47
1.06
-0.81
-2.85
-4.80
-6.29
-7.10
-6.96
-5.68
-3.20
0.26
4.14
7.71
10.27
11.49
11.46
10.56
9.23
7.74
6.11
4.24
2.11
-0.17
-2.31
-3.98
-4.97
-5.28
-5.14
-4.81
-4.54
-4.41
-4.31
-4.05
-3.44
-2.50
-1.40
-0.54
-0.24
-0.66
-1.81
-3.48
-5.35
-7.09
-8.34
-8.80
-8.24
-6.59
-4.04
-1.03
1.89
4.27
5.91
6.83
7.26
7.35
7.08
6.36
5.07
3.35
1.45
-0.19
-1.25
-1.65
-1.64
-1.59
-1.87
-2.53
-3.35
-3.95
-4.05
-3.64
-3.01
-2.68
-3.10
-4.45
-6.61
-9.14
-11.47
-13.02
-13.29
-12.05
-9.30
-5.37
-0.87
3.52
7.18
9.76
11.22
11.76
11.59
10.87
9.63
7.87
5.68
3.23
0.83
-1.28
-2.93
-4.19
-5.23
-6.21
-7.24
-8.32
-9.40
-10.45
-11.48
-12.49
-13.57
-14.70
-15.87
-17.15
-18.55
-20.06
-21.44
-22.24
-21.86
-19.83
-15.98
-10.64
-4.55
1.48
6.76
10.99
14.21
16.56
18.19
19.17
19.47
19.05
18.03
16.59
15.03
13.66
12.76
12.41
12.58
13.05
13.50
13.68
13.47
12.86
11.97
10.85
9.44
7.65
5.43
2.81
0.01
-2.85
-5.68
-8.45
-11.13
-13.46
-14.94
-15.01
-13.26
-9.70
-4.94
0.10
4.46
7.44
8.89
9.03
8.37
7.36
6.34
5.44
4.66
4.01
3.40
2.87
2.46
2.24
2.32
2.72
3.35
3.93
4.19
3.85
2.92
1.54
-0.06
-1.66
-3.20
-4.64
-6.08
-7.59
-9.28
-11.16
-13.25
-15.32
-16.93
-17.49
-16.39
-13.38
-8.73
-3.21
2.19
6.56
9.44
10.88
11.35
11.37
11.32
11.28
11.10
10.60
9.76
8.66
7.52
6.52
5.73
5.13
4.60
4.05
3.50
3.10
3.01
3.32
3.89
4.46
4.62
4.04
2.63
0.51
-1.95
-4.33
-6.31
-7.68
-8.36
-8.22
-7.23
-5.35
-2.71
0.37
3.41
5.98
7.73
8.59
8.67
8.20
7.39
6.42
5.43
4.54
3.87
3.40
3.08
2.76
2.34
1.85
1.32
0.85
0.50
0.24
0.06
-0.04
-0.02
0.13
0.35
0.50
0.39
-0.10
-1.05
-2.40
-4.03
-5.70
-7.06
-7.69
-7.24
-5.52
-2.68
0.84
4.40
7.35
9.30
10.16
10.18
9.62
8.73
7.60
6.17
4.46
2.47
0.40
-1.49
-2.94
-3.78
-4.02
-3.79
-3.38
-3.02
-2.92
-3.09
-3.51
-4.05
-4.65
-5.31
-6.11
-7.13
-8.33
-9.62
-10.72
-11.41
-11.43
-10.61
-8.84
-6.17
-2.80
0.95
4.65
7.89
10.31
11.72
12.15
11.76
10.84
9.57
8.14
6.53
4.72
2.75
0.80
-0.77
-1.61
-1.47
-0.45
1.05
2.34
2.96
2.78
2.03
1.14
0.34
-0.36
-1.22
-2.51
-4.34
-6.55
-8.73
-10.58
-11.80
-12.22
-11.71
-10.07
-7.21
-3.26
1.26
5.59
8.94
10.87
11.38
10.83
9.75
8.48
7.17
5.81
4.35
2.84
1.49
0.50
-0.06
-0.25
-0.24
-0.24
-0.36
-0.64
-1.07
-1.53
-1.97
-2.42
-2.86
-3.42
-4.17
-5.16
-6.42
-7.84
-9.27
-10.60
-11.69
-12.37
-12.49
-11.85
-10.25
-7.68
-4.34
-0.67
2.68
5.17
6.56
6.92
6.61
6.07
5.55
5.08
4.57
3.89
3.04
2.24
1.69
1.58
1.88
2.36
2.77
2.92
2.81
2.51
2.17
1.92
1.86
1.94
2.07
2.14
2.02
1.58
0.72
-0.62
-2.40
-4.35
-6.12
-7.26
-7.25
-5.75
-2.70
1.64
6.73
11.90
16.44
19.80
21.67
22.01
21.02
19.00
16.31
13.20
9.91
6.63
3.57
0.98
-0.99
-2.32
-3.08
-3.42
-3.46
-3.34
-3.08
-2.75
-2.41
-2.21
-2.32
-2.79
-3.61
-4.66
-5.83
-7.10
-8.44
-9.88
-11.32
-12.49
-12.99
-12.42
-10.55
-7.49
-3.67
0.30
3.80
6.55
8.46
9.71
10.49
10.89
10.88
10.29
9.10
7.40
5.54
3.91
2.84
2.41
2.51
2.84
3.05
3.05
2.81
2.50
2.31
2.38
2.62
2.84
2.74
2.00
0.41
-2.13
-5.59
-9.75
-14.20
-18.43
-21.89
-24.07
-24.76
-24.05
-22.40
-20.46
-18.88
-18.07
-18.05
-18.48
-18.86
-18.71
-17.84
-16.32
-14.47
-12.58
-10.89
-9.42
-8.02
-6.62
-5.15
-3.70
-2.45
-1.57
-1.10
-0.97
-1.03
-1.16
-1.29
-1.48
-1.86
-2.59
-3.74
-5.21
-6.71
-7.72
-7.72
-6.30
-3.37
0.75
5.42
9.92
13.67
16.47
18.46
19.99
21.31
22.46
23.27
23.43
22.82
21.51
19.84
18.20
16.98
16.25
15.93
15.76
15.61
15.43
15.43
15.89
17.06
19.01
21.49
24.08
26.35
28.04
29.11
29.85
30.64
31.87
33.85
36.72
40.49
45.10
50.36
56.15
62.41
69.08
76.11
83.30
90.06
95.68
99.53
101.10
100.35
97.62
93.42
88.28
82.71
76.98
71.27
65.37
58.45
49.08
35.78
17.70
-4.64
-29.21
-53.25
-74.43
-91.95
-106.82
-120.94
-135.59
-150.41
-163.19
-171.07
-172.14
-166.47
-156.02
-143.57
-131.21
-119.66
-108.52
-96.99
-84.85
-72.77
-61.94
-53.27
-46.96
-42.32
-38.35
-34.29
-29.90
-25.43
-21.34
-17.94
-15.20
-12.80
-10.36
-7.62
-4.63
-1.59
1.19
3.52
5.40
6.90
8.11
9.04
9.65
9.88
9.73
9.26
8.59
7.91
7.49
7.64
8.75
11.14
14.84
19.52
24.58
29.27
33.00
35.46
36.67
36.90
36.44
35.46
33.97
31.94
29.34
26.34
23.25
20.47
18.41
17.29
17.08
17.55
18.37
19.25
20.06
20.83
21.67
22.57
23.35
23.50
22.43
19.61
14.82
8.36
1.00
-6.16
-12.08
-16.17
-18.61
-20.18
-22.04
-25.17
-29.95
-35.98
-42.32
-47.79
-51.67
-54.10
-56.30
-60.43
-69.17
-84.92
-109.14
-141.88
-181.59
-225.84
-272.18
-318.95
-365.91
-413.87
-464.11
-517.36
-572.77
-627.20
-675.21
-709.88
-724.45
-714.29
-678.23
-619.06
-542.54
-455.54
-364.26
-273.08
-184.56
-100.10
-20.79
52.50
119.33
180.12
235.91
287.70
335.43
377.51
411.19
433.55
442.99
440.08
427.56
409.44
389.54
370.40
352.87
336.39
319.95
302.84
285.00
266.94
249.27
232.35
216.20
200.58
185.20
169.90
154.63
139.43
124.37
109.51
94.87
80.53
66.57
53.09
40.22
28.13
17.18
7.89
0.89
-3.20
-4.04
-1.70
3.21
9.77
16.97
24.09
30.74
36.78
42.22
46.97
50.75
53.28
54.44
54.36
53.52
52.46
51.58
50.95
50.37
49.46
47.95
45.80
43.10
40.08
36.84
33.27
29.16
24.15
18.07
10.89
2.83
-5.69
-14.19
-22.04
-28.59
-33.11
-34.99
-33.79
-29.37
-22.06
-12.58
-1.89
8.97
19.17
28.20
35.83
42.11
47.21
51.29
54.28
56.04
56.27
54.81
51.87
47.93
43.75
40.13
37.52
35.98
35.14
34.41
33.29
31.61
29.37
26.76
23.81
20.43
16.41
11.54
5.73
-0.93
-8.09
-15.19
-21.43
-25.91
-27.77
-26.37
-21.50
-13.52
-3.26
8.16
19.56
30.07
39.11
46.49
52.35
56.92
60.37
62.78
64.10
64.33
63.60
62.19
60.41
58.52
56.52
54.19
51.31
47.71
43.48
38.89
34.23
29.65
25.14
20.50
15.45
9.75
3.23
-4.12
-12.17
-20.45
-28.28
-34.76
-38.94
-40.04
-37.71
-32.18
-24.09
-14.37
-3.95
6.41
16.09
24.61
31.58
36.61
39.39
39.81
38.16
35.09
31.45
28.00
25.18
23.02
21.22
19.42
17.37
15.14
12.97
11.12
9.64
8.38
6.95
5.03
2.43
-0.85
-4.74
-9.14
-13.93
-18.89
-23.61
-27.41
-29.48
-29.08
-25.87
-20.07
-12.39
-3.87
4.45
11.83
17.90
22.57
25.95
28.17
29.30
29.37
28.52
27.00
25.18
23.42
21.96
20.85
19.90
18.82
17.33
15.29
12.68
9.67
6.39
2.95
-0.70
-4.72
-9.24
-14.39
-20.01
-25.74
-30.84
-34.54
-35.98
-34.58
-30.30
-23.49
-14.94
-5.56
3.77
12.42
19.94
26.11
30.84
33.96
35.43
35.26
33.65
30.99
27.83
24.69
21.91
19.59
17.51
15.43
13.11
10.47
7.66
4.90
2.31
-0.19
-2.82
-6.00
-10.00
-14.95
-20.71
-26.68
-32.09
-36.02
-37.68
-36.55
-32.59
-26.18
-18.07
-9.24
-0.50
7.45
14.24
19.70
23.79
26.57
28.14
28.66
28.39
27.74
27.01
26.42
25.88
25.12
23.76
21.63
18.72
15.30
11.81
8.55
5.60
2.80
-0.22
-3.80
-8.08
-13.06
-18.57
-24.33
-30.01
-35.19
-39.26
-41.57
-41.39
-38.31
-32.40
-24.18
-14.69
-5.01
3.90
11.53
17.70
22.53
26.04
28.15
28.76
27.85
25.72
22.92
20.16
17.94
16.46
15.52
14.70
13.65
12.18
10.37
8.39
6.40
4.44
2.45
0.22
-2.43
-5.64
-9.56
-14.20
-19.44
-24.96
-30.18
-34.31
-36.47
-35.96
-32.45
-26.21
-17.90
-8.48
1.04
9.87
17.49
23.64
28.21
31.08
32.13
31.41
29.09
25.56
21.43
17.31
13.75
11.00
9.02
7.55
6.24
4.82
3.19
1.44
-0.38
-2.16
-4.03
-6.12
-8.58
-11.49
-14.83
-18.51
-22.29
-25.87
-28.71
-30.23
-29.86
-27.27
-22.53
-16.07
-8.55
-0.69
6.79
13.42
18.82
22.72
24.96
25.42
24.24
21.74
18.44
14.91
11.66
8.98
6.88
5.28
3.88
2.58
1.31
0.12
-0.91
-1.76
-2.53
-3.42
-4.65
-6.55
-9.33
-13.16
-17.89
-23.02
-27.72
-31.01
-32.04
-30.37
-26.13
-19.90
-12.57
-5.05
1.98
8.08
13.09
16.94
19.63
21.16
21.56
20.96
19.52
17.55
15.34
13.21
11.31
9.63
8.10
6.55
4.89
3.10
1.27
-0.56
-2.38
-4.32
-6.73
-9.96
-14.32
-19.78
-25.94
-31.98
-36.96
-39.88
-40.06
-37.30
-31.86
-24.45
-15.99
-7.39
0.62
7.59
13.35
17.85
21.06
22.99
23.57
22.87
21.19
18.96
16.72
14.88
13.53
12.43
11.24
9.59
7.32
4.57
1.60
-1.36
-4.21
-7.08
-10.20
-13.74
-17.87
-22.61
-27.90
-33.40
-38.54
-42.49
-44.38
-43.48
-39.52
-32.83
-24.22
-14.82
-5.73
2.21
8.61
13.35
16.54
18.32
18.78
18.07
16.41
14.15
11.75
9.63
8.08
7.23
7.05
7.32
7.87
8.39
8.53
7.93
6.28
3.40
-0.72
-5.84
-11.67
-17.95
-24.48
-31.22
-37.99
-44.32
-49.43
-52.38
-52.33
-48.93
-42.43
-33.68
-23.79
-13.85
-4.61
3.44
10.05
14.96
18.00
19.10
18.32
15.98
12.63
8.88
5.33
2.43
0.35
-1.04
-2.04
-3.03
-4.36
-6.12
-8.25
-10.58
-12.99
-15.39
-17.86
-20.46
-23.26
-26.35
-29.84
-33.82
-38.25
-42.69
-46.29
-47.88
-46.32
-41.00
-32.13
-20.73
-8.33
3.49
13.64
21.68
27.76
32.32
35.71
38.01
39.11
38.86
37.28
34.86
32.28
30.28
29.29
29.27
29.72
30.02
29.53
27.90
25.16
21.54
17.37
12.84
8.02
2.86
-2.78
-8.92
-15.47
-22.10
-28.41
-33.85
-37.83
-39.79
-39.14
-35.57
-29.00
-19.91
-9.22
1.73
11.70
19.73
25.41
28.93
30.78
31.48
31.35
30.46
28.78
26.34
23.40
20.32
17.49
15.16
13.34
11.86
10.44
8.92
7.22
5.41
3.49
1.41
-1.05
-4.11
-7.85
-12.25
-17.11
-22.19
-27.21
-31.98
-36.15
-39.28
-40.73
-39.73
-35.82
-28.99
-19.81
-9.21
1.69
12.03
21.25
29.17
35.90
41.55
46.21
49.88
52.55
54.22
54.97
55.00
54.64
54.29
54.29
54.86
55.94
57.04
57.41
56.14
52.45
45.97
36.84
25.56
12.71
-1.27
-16.35
-32.62
-50.14
-68.45
-86.56
-103.08
-116.64
-126.39
-132.20
-134.63
-134.69
-133.50
-132.01
-130.96
-130.81
-131.63
-133.07
-134.32
-134.24
-131.56
-125.34
-115.21
-101.56
-85.64
-69.22
-54.20
-42.08
-33.53
-28.27
-25.38
-23.96
-23.80
-25.59
-30.57
-39.61
-52.31
-66.69
-79.67
-88.01
-89.39
-82.76
-68.09
-45.71
-16.02
20.48
62.65
108.29
154.47
198.32
237.96
272.80
302.92
327.83
345.73
353.73
349.21
331.43
302.53
267.05
230.46
197.22
169.62
147.73
130.31
115.96
103.76
93.28
84.23
76.14
68.25
59.85
50.60
40.69
30.81
21.72
13.97
7.55
1.96
-3.60
-9.75
-16.41
-22.75
-27.24
-28.38
-25.27
-18.24
-8.78
1.02
9.09
14.21
16.11
15.38
13.08
10.35
8.21
7.35
8.21
10.70
14.21
17.56
19.43
18.70
14.87
8.27
-0.17
-9.29
-18.14
-26.21
-33.43
-39.92
-45.81
-51.04
-55.37
-58.60
-60.60
-61.42
-61.17
-59.98
-57.89
-55.01
-51.51
-47.73
-44.18
-41.42
-39.80
-39.41
-39.97
-41.01
-42.04
-42.79
-43.22
-43.59
-44.15
-45.09
-46.42
-48.01
-49.69
-51.27
-52.62
-53.57
-54.03
-53.88
-53.09
-51.83
-50.36
-48.99
-48.00
-47.43
-47.17
-46.91
-46.27
-44.95
-42.84
-40.01
-36.63
-32.98
-29.34
-25.87
-22.72
-20.01
-17.94
-16.74
-16.75
-18.23
-21.34
-26.11
-32.31
-39.60
-47.42
-55.27
-62.59
-68.89
-73.69
-76.42
-76.60
-73.85
-68.26
-60.34
-51.15
-41.90
-33.68
-27.11
-22.11
-18.05
-13.94
-8.91
-2.38
5.64
14.61
23.57
31.43
37.32
40.77
41.87
41.15
39.37
37.38
35.76
34.77
34.25
33.84
33.09
31.71
29.62
26.92
23.86
20.55
17.19
13.92
11.07
8.94
7.73
7.42
7.67
7.99
7.92
7.32
6.48
6.06
6.70
8.73
12.08
16.18
20.29
23.67
25.80
26.41
25.53
23.23
19.62
14.91
9.30
3.13
-3.23
-9.38
-14.95
-19.51
-22.81
-24.73
-25.31
-24.83
-23.63
-22.09
-20.53
-19.13
-17.98
-17.15
-16.73
-16.77
-17.38
-18.49
-19.84
-21.03
-21.50
-20.83
-18.86
-15.86
-12.32
-9.05
-6.59
-5.26
-4.98
-5.47
-6.40
-7.51
-8.66
-9.79
-10.89
-11.83
-12.56
-13.00
-13.19
-13.29
-13.48
-13.90
-14.56
-15.30
-15.84
-15.90
-15.31
-14.13
-12.65
-11.31
-10.59
-10.76
-11.75
-13.10
-14.13
-14.17
-12.73
-9.83
-5.84
-1.39
2.94
6.82
10.20
13.15
15.69
17.63
18.60
18.27
16.51
13.52
9.79
5.79
1.87
-1.87
-5.53
-9.20
-12.84
-16.24
-19.09
-21.02
-21.86
-21.66
-20.75
-19.59
-18.70
-18.37
-18.66
-19.35
-19.98
-20.07
-19.17
-16.94
-13.27
-8.33
-2.52
3.52
9.10
13.71
17.12
19.35
20.62
21.14
21.06
20.46
19.27
17.53
15.35
12.86
10.36
8.08
6.12
4.45
2.92
1.26
-0.66
-2.75
-4.85
-6.66
-8.00
-8.99
-9.87
-10.95
-12.51
-14.66
-17.33
-20.36
-23.39
-25.94
-27.48
-27.41
-25.44
-21.61
-16.40
-10.60
-5.03
-0.22
3.55
6.27
8.07
9.04
9.22
8.66
7.45
5.79
4.02
2.47
1.43
1.03
1.18
1.63
2.05
2.20
1.96
1.49
1.03
0.81
0.82
0.81
0.39
-0.78
-2.83
-5.65
-8.88
-12.04
-14.67
-16.34
-16.71
-15.57
-12.91
-8.98
-4.34
0.36
4.41
7.38
9.11
9.73
9.57
8.94
8.08
7.13
6.16
5.21
4.31
3.59
3.13
2.98
3.06
3.20
3.13
2.61
1.67
0.48
-0.49
-0.91
-0.70
-0.17
0.09
-0.50
-2.30
-5.17
-8.67
-12.14
-14.94
-16.60
-16.82
-15.51
-12.73
-8.86
-4.48
-0.34
2.85
4.64
5.02
4.40
3.30
2.19
1.25
0.39
-0.64
-1.94
-3.38
-4.65
-5.37
-5.45
-5.04
-4.58
-4.53
-5.14
-6.43
-8.17
-10.13
-12.21
-14.54
-17.26
-20.52
-24.18
-27.91
-31.32
-34.06
-36.01
-37.12
-37.39
-36.67
-34.83
-31.78
-27.65
-22.76
-17.57
-12.51
-7.72
-3.08
1.77
7.11
12.98
19.03
24.61
29.06
31.91
33.04
32.71
31.42
29.59
27.53
25.38
23.06
20.58
17.98
15.37
12.94
10.89
9.33
8.23
7.51
6.89
6.12
5.00
3.43
1.37
-1.05
-3.69
-6.32
-8.53
-9.84
-9.78
-8.15
-5.12
-1.26
2.63
5.86
8.10
9.39
10.07
10.54
11.02
11.48
11.82
11.88
11.64
11.17
10.57
9.91
9.23
8.53
7.75
6.89
5.85
4.53
2.81
0.64
-1.84
-4.35
-6.53
-8.15
-9.16
-9.77
-10.24
-10.83
-11.73
-12.93
-14.34
-15.73
-16.68
-16.70
-15.29
-12.15
-7.38
-1.57
4.39
9.54
13.28
15.53
16.59
16.98
17.06
16.90
16.41
15.44
14.02
12.41
11.09
10.39
10.51
11.33
12.50
13.63
14.45
14.90
15.06
15.09
15.08
14.97
14.66
13.95
12.70
10.92
8.77
6.44
4.09
1.88
-0.09
-1.70
-2.89
-3.68
-4.30
-5.11
-6.63
-9.26
-13.06
-17.74
-22.51
-26.56
-29.24
-30.36
-30.21
-29.35
-28.32
-27.28
-26.09
-24.32
-21.71
-18.27
-14.38
-10.66
-7.63
-5.62
-4.64
-4.55
-5.13
-6.16
-7.53
-9.06
-10.57
-11.90
-12.93
-13.61
-14.05
-14.35
-14.50
-14.41
-13.71
-12.02
-9.00
-4.63
0.76
6.41
11.49
15.39
17.79
18.93
19.33
19.52
19.86
20.31
20.49
19.99
18.57
16.28
13.51
10.73
8.25
6.15
4.22
2.07
-0.52
-3.59
-6.89
-10.02
-12.57
-14.34
-15.34
-15.76
-15.90
-16.03
-16.20
-16.36
-16.24
-15.53
-13.93
-11.28
-7.52
-2.85
2.37
7.56
12.11
15.47
17.33
17.79
17.16
16.00
14.71
13.56
12.59
11.73
10.99
10.40
10.14
10.31
10.92
11.72
12.35
12.47
11.84
10.44
8.44
6.01
3.31
0.46
-2.40
-5.22
-7.77
-9.92
-11.66
-13.12
-14.59
-16.24
-17.99
-19.36
-19.71
-18.47
-15.49
-11.14
-6.14
-1.33
2.74
5.92
8.38
10.34
11.92
12.93
13.11
12.30
10.50
8.01
5.30
2.87
1.08
0.13
-0.05
0.27
0.79
1.15
1.22
1.02
0.75
0.56
0.45
0.31
-0.09
-0.87
-1.99
-3.38
-4.85
-6.33
-7.79
-9.14
-10.09
-10.24
-9.19
-6.79
-3.26
0.89
4.96
8.36
10.77
12.23
13.00
13.43
13.76
14.08
14.33
14.39
14.22
13.88
13.54
13.30
13.25
13.26
13.08
12.59
11.80
11.01
10.61
10.96
12.09
13.71
15.23
15.93
15.24
12.87
8.86
3.62
-2.22
-7.86
-12.46
-15.33
-16.15
-14.96
-12.23
-8.62
-4.85
-1.43
1.30
3.22
4.28
4.44
3.76
2.34
0.45
-1.54
-3.25
-4.48
-5.23
-5.62
-5.95
-6.35
-6.92
-7.61
-8.32
-8.95
-9.45
-9.88
-10.35
-11.09
-12.22
-13.80
-15.75
-17.83
-19.77
-21.28
-22.10
-21.98
-20.86
-18.71
-15.68
-12.09
-8.29
-4.71
-1.66
0.76
2.55
3.78
4.60
5.13
5.43
5.62
5.66
5.57
5.35
5.10
4.92
4.93
5.15
5.37
5.33
4.72
3.47
1.76
-0.03
-1.51
-2.50
-3.08
-3.59
-4.37
-5.64
-7.47
-9.70
-12.10
-14.37
-16.16
-17.18
-17.25
-16.41
-14.90
-13.17
-11.69
-10.80
-10.61
-10.98
-11.61
-12.16
-12.43
-12.42
-12.32
-12.36
-12.71
-13.31
-13.90
-14.03
-13.38
-11.77
-9.29
-6.20
-2.86
0.38
3.32
5.89
8.27
10.64
13.26
16.26
19.58
22.84
25.39
26.52
25.61
22.58
17.82
12.32
7.31
3.93
2.82
4.01
6.94
10.66
14.31
17.19
19.02
19.84
19.80
19.04
17.67
15.75
13.33
10.61
7.86
5.44
3.70
2.75
2.44
2.36
2.02
1.03
-0.66
-2.73
-4.72
-6.21
-7.07
-7.49
-7.89
-8.63
-9.94
-11.74
-13.85
-16.00
-17.92
-19.34
-19.83
-19.04
-16.65
-12.65
-7.35
-1.42
4.29
9.04
12.42
14.44
15.46
15.91
16.09
16.05
15.61
14.57
12.95
11.10
9.59
8.96
9.42
10.72
12.24
13.24
13.24
12.14
10.18
7.84
5.53
3.44
1.62
-0.04
-1.70
-3.48
-5.49
-7.76
-10.21
-12.59
-14.41
-15.08
-13.99
-10.94
-6.13
-0.30
5.64
10.73
14.40
16.51
17.34
17.35
16.98
16.51
15.99
15.37
14.58
13.58
12.49
11.48
10.73
10.25
9.89
9.31
8.23
6.52
4.24
1.72
-0.66
-2.53
-3.76
-4.47
-5.01
-5.83
-7.27
-9.53
-12.50
-15.77
-18.62
-20.32
-20.29
-18.33
-14.71
-10.00
-5.00
-0.42
3.22
5.77
7.35
8.25
8.80
9.23
9.65
10.01
10.27
10.28
9.94
9.27
8.25
6.87
5.06
2.85
0.33
-2.32
-4.84
-7.01
-8.67
-9.85
-10.70
-11.43
-12.22
-13.18
-14.42
-15.98
-17.85
-19.91
-21.90
-23.40
-23.96
-23.24
-21.18
-18.06
-14.41
-10.81
-7.74
-5.34
-3.36
-1.46
0.67
3.03
5.40
7.41
8.77
9.48
9.89
10.56
11.93
14.14
16.98
20.11
23.06
25.51
27.31
28.50
29.33
30.04
30.92
32.10
33.51
34.75
35.20
34.11
30.82
24.99
16.69
6.64
-4.04
-14.01
-22.06
-27.35
-29.61
-29.13
-26.53
-22.54
-17.76
-12.61
-7.50
-2.80
1.10
3.85
5.23
5.28
4.27
2.61
0.86
-0.53
-1.27
-1.34
-0.94
-0.44
-0.19
-0.47
-1.28
-2.48
-3.87
-5.17
-6.29
-7.27
-8.23
-9.32
-10.80
-12.77
-15.16
-17.62
-19.49
-20.03
-18.66
-15.19
-9.94
-3.58
3.08
9.32
14.71
19.00
22.09
23.93
24.53
23.95
22.40
20.16
17.55
14.90
12.56
10.70
9.42
8.65
8.21
7.86
7.41
6.76
5.93
5.02
4.09
3.10
1.94
0.48
-1.32
-3.40
-5.64
-7.81
-9.75
-11.19
-11.76
-11.13
-9.00
-5.40
-0.72
4.24
8.59
11.52
12.68
12.18
10.47
8.11
5.60
3.23
1.16
-0.55
-1.90
-2.88
-3.37
-3.37
-2.92
-2.22
-1.63
-1.53
-2.16
-3.55
-5.41
-7.22
-8.58
-9.22
-9.18
-8.70
-8.11
-7.77
-7.96
-8.87
-10.53
-12.70
-14.89
-16.43
-16.72
-15.51
-12.96
-9.73
-6.55
-4.01
-2.37
-1.51
-1.10
-0.87
-0.69
-0.57
-0.66
-1.04
-1.77
-2.72
-3.70
-4.50
-5.01
-5.29
-5.53
-6.04
-6.96
-8.29
-9.76
-11.04
-11.84
-12.10
-11.98
-11.72
-11.57
-11.62
-11.84
-12.13
-12.40
-12.49
-12.14
-11.01
-8.67
-4.93
0.06
5.73
11.29
16.01
19.53
21.92
23.55
24.87
26.07
27.04
27.48
27.13
25.96
24.21
22.31
20.61
19.27
18.19
17.03
15.46
13.33
10.73
8.00
5.60
3.87
2.91
2.48
2.14
1.45
0.20
-1.61
-3.78
-6.09
-8.31
-10.20
-11.38
-11.34
-9.62
-6.13
-1.27
4.13
9.16
13.08
15.68
17.24
18.19
18.92
19.61
20.18
20.53
20.58
20.27
19.56
18.45
16.93
15.05
12.88
10.50
8.03
5.47
2.82
0.14
-2.45
-4.81
-6.79
-8.29
-9.35
-10.06
-10.67
-11.37
-12.37
-13.80
-15.60
-17.48
-18.92
-19.42
-18.62
-16.48
-13.29
-9.58
-5.93
-2.80
-0.41
1.26
2.35
3.03
3.42
3.58
3.56
3.38
3.17
2.98
2.84
2.64
2.16
1.20
-0.37
-2.48
-4.97
-7.54
-9.96
-12.06
-13.79
-15.15
-16.13
-16.76
-17.07
-17.24
-17.55
-18.25
-19.38
-20.65
-21.47
-21.10
-19.02
-15.10
-9.80
-3.93
1.60
6.01
8.88
10.07
9.67
7.87
5.04
1.67
-1.63
-4.31
-6.01
-6.52
-5.96
-4.61
-2.87
-1.11
0.30
1.13
1.27
0.80
-0.01
-0.83
-1.33
-1.38
-1.05
-0.61
-0.42
-0.86
-2.12
-4.07
-6.27
-8.03
-8.64
-7.59
-4.85
-0.75
3.96
8.46
12.12
14.61
15.98
16.51
16.53
16.28
15.84
15.18
14.26
13.20
12.23
11.69
11.85
12.70
14.01
15.26
16.03
16.07
15.44
14.38
13.23
12.14
11.03
9.76
8.12
6.06
3.66
1.14
-1.29
-3.32
-4.64
-4.98
-4.19
-2.43
-0.14
1.94
3.13
3.07
1.86
0.00
-1.81
-3.02
-3.46
-3.36
-3.10
-3.07
-3.40
-3.91
-4.34
-4.44
-4.18
-3.81
-3.71
-4.18
-5.32
-6.93
-8.60
-9.98
-10.88
-11.31
-11.53
-11.86
-12.47
-13.42
-14.49
-15.51
-16.29
-16.78
-16.92
-16.61
-15.67
-13.94
-11.36
-8.14
-4.68
-1.55
0.77
2.07
2.41
2.02
1.20
0.05
-1.40
-3.11
-5.01
-6.85
-8.32
-9.16
-9.29
-8.80
-8.01
-7.19
-6.56
-6.20
-6.10
-6.23
-6.52
-6.87
-7.16
-7.37
-7.56
-7.97
-8.90
-10.55
-12.78
-15.07
-16.57
-16.45
-14.28
-10.21
-4.90
0.72
5.87
10.20
13.74
16.83
19.69
22.30
24.38
25.59
25.79
25.11
23.90
22.55
21.30
20.22
19.22
18.05
16.53
14.51
12.00
9.09
6.00
2.98
0.26
-2.06
-4.06
-5.94
-7.91
-10.06
-12.33
-14.45
-16.13
-17.06
-16.95
-15.72
-13.44
-10.40
-7.00
-3.59
-0.49
2.12
4.13
5.52
6.28
6.41
5.96
5.06
3.96
3.02
2.51
2.60
3.26
4.23
5.14
5.58
5.29
4.25
2.69
1.01
-0.45
-1.42
-1.91
-2.15
-2.48
-3.23
-4.49
-6.10
-7.68
-8.74
-8.80
-7.67
-5.40
-2.33
1.08
4.37
7.26
9.54
11.16
12.18
12.64
12.60
12.10
11.17
9.85
8.25
6.46
4.67
3.06
1.72
0.68
-0.11
-0.79
-1.43
-1.96
-2.26
-2.23
-1.90
-1.48
-1.30
-1.72
-2.93
-4.83
-6.91
-8.42
-8.62
-7.06
-3.75
0.79
5.73
10.26
13.79
16.11
17.26
17.41
16.69
15.14
12.87
10.06
7.07
4.24
1.87
0.02
-1.48
-2.85
-4.40
-6.18
-8.11
-9.91
-11.32
-12.11
-12.24
-11.88
-11.25
-10.73
-10.67
-11.27
-12.62
-14.47
-16.28
-17.40
-17.32
-15.81
-13.05
-9.64
-6.22
-3.29
-1.04
0.67
2.16
3.59
4.96
6.06
6.63
6.49
5.75
4.66
3.48
2.39
1.40
0.39
-0.84
-2.35
-4.07
-5.84
-7.46
-8.79
-9.72
-10.18
-10.18
-9.84
-9.38
-9.12
-9.36
-10.13
-11.10
-11.62
-10.97
-8.67
-4.78
0.17
5.32
9.90
13.54
16.32
18.57
20.56
22.30
23.58
24.03
23.38
21.71
19.36
16.82
14.57
12.91
11.82
11.14
10.54
9.68
8.36
6.59
4.49
2.33
0.34
-1.35
-2.74
-3.97
-5.34
-7.09
-9.43
-12.34
-15.47
-18.18
-19.70
-19.33
-16.77
-12.33
-6.72
-0.94
4.19
8.22
11.13
13.21
14.74
15.84
16.39
16.27
15.34
13.73
11.75
9.72
8.04
6.97
6.56
6.69
7.07
7.31
7.05
6.24
4.93
3.35
1.78
0.31
-1.08
-2.53
-4.13
-5.90
-7.65
-9.19
-10.35
-11.00
-11.00
-10.19
-8.45
-5.79
-2.52
0.83
3.68
5.54
6.28
6.11
5.54
5.01
4.70
4.49
4.06
3.20
1.94
0.67
-0.16
-0.20
0.56
1.73
2.65
2.76
1.77
-0.25
-2.80
-5.36
-7.51
-9.04
-10.04
-10.76
-11.45
-12.35
-13.55
-14.97
-16.40
-17.47
-17.70
-16.73
-14.33
-10.58
-5.80
-0.55
4.69
9.42
13.31
16.20
18.03
18.82
18.69
17.82
16.37
14.59
12.72
10.96
9.52
8.42
7.57
6.70
5.43
3.44
0.68
-2.60
-5.99
-9.04
-11.59
-13.66
-15.47
-17.31
-19.29
-21.32
-23.13
-24.26
-24.24
-22.66
-19.36
-14.49
-8.64
-2.59
2.91
7.31
10.52
12.79
14.44
15.70
16.60
16.93
16.49
15.19
13.17
10.85
8.72
7.28
6.66
6.70
6.97
6.96
6.26
4.82
2.89
0.89
-0.80
-2.02
-2.88
-3.60
-4.52
-5.86
-7.68
-9.82
-11.96
-13.58
-14.15
-13.27
-10.79
-6.97
-2.35
2.36
6.51
9.67
11.79
12.99
13.51
13.55
13.14
12.29
10.98
9.29
7.43
5.79
4.63
4.12
4.14
4.36
4.40
3.86
2.60
0.68
-1.62
-4.02
-6.29
-8.30
-10.04
-11.53
-12.88
-14.23
-15.81
-17.71
-19.81
-21.62
-22.40
-21.46
-18.38
-13.40
-7.35
-1.23
4.07
8.10
10.88
12.71
13.80
14.28
14.03
12.93
11.05
8.68
6.29
4.34
3.12
2.67
2.82
3.27
3.76
4.04
4.02
3.70
3.04
2.07
0.81
-0.66
-2.27
-3.90
-5.56
-7.24
-8.95
-10.60
-12.02
-12.88
-12.79
-11.45
-8.82
-5.08
-0.78
3.54
7.30
10.20
12.18
13.35
13.95
14.10
13.89
13.27
12.28
11.00
9.65
8.51
7.80
7.62
7.87
8.26
8.39
7.94
6.80
5.13
3.25
1.50
0.03
-1.24
-2.56
-4.19
-6.26
-8.64
-11.01
-12.90
-13.97
-14.03
-13.05
-11.20
-8.80
-6.25
-3.91
-2.04
-0.71
0.18
0.82
1.34
1.76
1.98
1.87
1.33
0.46
-0.55
-1.40
-1.88
-1.99
-1.92
-1.94
-2.29
-3.09
-4.21
-5.45
-6.57
-7.45
-8.16
-8.90
-9.81
-11.00
-12.40
-13.74
-14.74
-15.04
-14.35
-12.54
-9.72
-6.15
-2.27
1.44
4.64
7.08
8.69
9.57
9.88
9.82
9.56
9.18
8.81
8.47
8.18
7.97
7.83
7.69
7.35
6.61
5.30
3.43
1.19
-1.11
-3.12
-4.65
-5.77
-6.68
-7.71
-9.05
-10.77
-12.68
-14.43
-15.52
-15.40
-13.72
-10.42
-5.89
-0.79
4.12
8.34
11.64
14.09
15.85
16.93
17.23
16.55
14.84
12.29
9.38
6.67
4.61
3.33
2.62
2.04
1.21
-0.05
-1.68
-3.38
-4.74
-5.49
-5.52
-5.09
-4.56
-4.46
-5.11
-6.65
-8.95
-11.55
-13.82
-14.97
-14.51
-12.15
-8.12
-3.02
2.28
7.04
10.81
13.49
15.40
16.84
18.04
18.87
19.07
18.41
16.86
14.69
12.24
9.89
7.80
5.94
4.12
2.18
0.10
-1.99
-3.85
-5.33
-6.33
-6.97
-7.44
-8.01
-8.97
-10.45
-12.53
-15.05
-17.73
-20.02
-21.34
-21.12
-19.03
-15.12
-9.87
-4.04
1.56
6.27
9.76
12.02
13.25
13.74
13.77
13.48
12.86
11.92
10.68
9.25
7.86
6.80
6.23
6.15
6.28
6.15
5.44
4.06
2.24
0.37
-1.16
-2.23
-3.01
-3.79
-4.90
-6.46
-8.44
-10.59
-12.59
-14.07
-14.69
-14.16
-12.34
-9.39
-5.69
-1.85
1.60
4.35
6.33
7.73
8.77
9.56
10.01
9.90
9.06
7.52
5.58
3.62
2.01
0.90
0.18
-0.39
-1.09
-2.07
-3.28
-4.55
-5.76
-6.78
-7.64
-8.42
-9.18
-10.06
-11.21
-12.73
-14.62
-16.68
-18.42
-19.24
-18.61
-16.25
-12.26
-7.11
-1.45
4.11
9.08
13.23
16.47
18.68
19.84
19.90
18.83
16.71
13.74
10.24
6.70
3.74
1.89
1.49
2.47
4.35
6.41
7.97
8.59
8.25
7.24
5.92
4.60
3.26
1.68
-0.43
-3.22
-6.63
-10.25
-13.51
-15.74
-16.32
-15.04
-12.00
-7.74
-2.94
1.72
5.79
9.06
11.52
13.27
14.25
14.36
13.52
11.77
9.34
6.71
4.36
2.68
1.80
1.52
1.44
1.18
0.45
-0.79
-2.31
-3.78
-4.86
-5.45
-5.64
-5.64
-5.83
-6.47
-7.68
-9.49
-11.67
-13.81
-15.42
-15.94
-14.97
-12.41
-8.50
-3.76
1.07
5.32
8.52
10.55
11.58
11.98
12.08
12.03
11.78
11.12
9.89
8.18
6.32
4.78
3.95
3.87
4.20
4.43
4.10
3.14
1.82
0.62
-0.07
-0.14
0.16
0.36
0.02
-1.15
-3.19
-5.92
-8.96
-11.82
-13.88
-14.60
-13.59
-10.81
-6.56
-1.44
3.78
8.48
12.18
14.74
16.19
16.74
16.55
15.78
14.52
12.89
11.01
9.10
7.40
6.09
5.26
4.72
4.10
3.11
1.64
-0.16
-1.92
-3.32
-4.22
-4.73
-5.14
-5.76
-6.71
-7.96
-9.49
-11.20
-13.03
-14.83
-16.17
-16.45
-15.15
-12.00
-7.27
-1.72
3.71
8.22
11.39
13.27
14.22
14.63
14.79
14.68
14.15
13.04
11.32
9.18
7.03
5.22
4.02
3.37
2.92
2.27
1.23
-0.21
-1.84
-3.32
-4.50
-5.36
-5.99
-6.55
-7.06
-7.52
-8.09
-8.97
-10.27
-11.89
-13.27
-13.75
-12.74
-10.06
-6.09
-1.59
2.65
6.15
8.72
10.48
11.54
11.90
11.56
10.52
8.89
6.93
4.89
2.95
1.23
-0.22
-1.42
-2.36
-3.10
-3.69
-4.15
-4.48
-4.63
-4.51
-4.14
-3.66
-3.38
-3.70
-4.87
-6.93
-9.60
-12.32
-14.42
-15.27
-14.55
-12.27
-8.81
-4.79
-0.82
2.67
5.50
7.78
9.56
10.85
11.49
11.24
10.08
8.18
6.07
4.32
3.44
3.61
4.65
6.19
7.82
9.28
10.57
11.84
13.26
14.89
16.62
18.12
19.10
19.29
18.64
17.29
15.59
14.06
13.37
14.07
16.52
20.68
26.06
31.80
37.09
41.31
44.28
46.19
47.31
47.66
46.90
44.23
38.72
29.75
17.34
2.25
-14.16
-30.24
-44.54
-56.06
-64.28
-68.97
-69.90
-66.93
-60.05
-49.76
-37.27
-24.38
-13.09
-4.93
-0.28
2.06
4.69
10.99
24.00
45.11
73.13
104.20
132.56
152.25
159.07
152.12
134.14
110.80
88.88
74.46
71.37
80.28
98.63
121.32
142.06
155.24
157.76
150.32
137.37
125.61
121.36
127.84
143.61
162.82
177.36
179.77
165.69
134.88
90.48
37.54
-18.76
-74.01
-124.90
-168.88
-203.86
-228.39
-242.14
-246.14
-242.66
-234.66
-224.79
-214.85
-205.68
-197.34
-189.66
-182.59
-176.28
-170.96
-166.74
-163.34
-160.08
-156.16
-150.94
-144.50
-137.64
-131.79
-128.39
-128.18
-130.52
-133.47
-134.45
-131.21
-122.70
-109.37
-92.86
-75.29
-58.59
-44.08
-32.44
-23.60
-16.79
-10.57
-3.18
6.82
19.94
35.31
50.94
64.36
73.64
78.01
77.86
74.40
68.86
62.26
55.27
48.46
42.38
37.63
34.53
32.98
32.37
31.83
30.60
28.42
25.64
23.09
21.63
21.83
23.72
26.76
30.08
32.77
34.16
33.95
32.23
29.28
25.39
20.85
15.84
10.64
5.66
1.41
-1.64
-3.24
-3.53
-2.91
-1.83
-0.69
0.31
1.09
1.50
1.44
0.75
-0.54
-2.21
-3.95
-5.46
-6.51
-7.12
-7.39
-7.48
-7.61
-7.97
-8.66
-9.75
-11.17
-12.75
-14.36
-15.92
-17.41
-18.93
-20.60
-22.50
-24.64
-26.85
-28.67
-29.57
-29.03
-26.78
-22.94
-17.90
-12.19
-6.08
0.39
7.43
14.99
22.57
29.05
33.17
34.07
31.73
27.06
21.51
16.59
13.23
11.80
12.11
13.89
16.97
21.07
25.76
30.26
33.63
35.17
34.74
32.79
30.20
27.64
25.25
22.79
19.79
16.07
11.75
7.05
2.04
-3.56
-10.10
-17.55
-25.15
-31.63
-35.66
-36.53
-34.42
-30.25
-25.12
-19.83
-14.72
-9.78
-5.02
-0.66
2.88
5.24
6.21
5.85
4.42
2.18
-0.57
-3.53
-6.45
-9.15
-11.55
-13.59
-15.27
-16.46
-17.00
-16.66
-15.34
-13.02
-9.78
-5.61
-0.55
5.36
11.97
18.90
25.58
31.41
35.96
39.10
41.02
42.05
42.60
42.95
43.15
43.11
42.60
41.45
39.66
37.37
34.73
31.85
28.78
25.46
21.89
18.22
14.71
11.67
9.33
7.71
6.72
6.20
6.05
6.30
7.05
8.33
10.06
12.04
13.95
15.56
16.78
17.73
18.73
20.08
21.89
24.05
26.18
27.80
28.49
27.90
25.88
22.44
17.77
12.24
6.35
0.72
-4.19
-8.16
-11.35
-14.26
-17.45
-21.34
-26.00
-31.13
-36.06
-40.11
-42.71
-43.68
-43.31
-42.26
-41.28
-40.97
-41.56
-42.81
-44.23
-45.32
-45.79
-45.80
-45.83
-46.56
-48.63
-52.52
-58.47
-66.35
-75.63
-85.21
-93.52
-98.87
-99.97
-96.40
-88.89
-78.92
-68.18
-57.90
-48.43
-39.25
-29.41
-18.04
-4.93
9.40
23.83
37.05
47.96
56.06
61.51
65.04
67.72
70.57
74.47
80.04
87.15
94.50
99.47
98.65
89.29
70.88
46.01
19.81
-1.89
-14.92
-18.20
-13.58
-4.18
7.54
20.74
35.58
51.74
67.35
79.12
83.90
80.36
69.91
56.02
42.66
32.51
25.97
21.45
16.72
10.39
2.63
-4.86
-9.83
-10.52
-6.49
1.25
10.64
19.46
26.09
30.00
31.60
31.88
31.70
31.47
31.06
30.10
28.35
25.96
23.28
20.69
18.26
15.61
12.16
7.39
1.23
-5.80
-12.73
-18.48
-22.22
-23.75
-23.57
-22.63
-22.01
-22.48
-24.26
-27.02
-30.15
-32.92
-34.79
-35.42
-34.75
-32.85
-30.01
-26.57
-22.86
-19.17
-15.66
-12.35
-9.19
-6.11
-3.16
-0.52
1.56
2.84
3.19
2.66
1.44
-0.11
-1.59
-2.80
-3.69
-4.41
-5.11
-5.93
-6.79
-7.55
-8.04
-8.19
-8.10
-7.91
-7.80
-7.81
-7.95
-8.15
-8.39
-8.58
-8.60
-8.28
-7.42
-5.90
-3.78
-1.21
1.57
4.25
6.57
8.35
9.39
9.61
8.94
7.49
5.52
3.46
1.68
0.40
-0.36
-0.84
-1.23
-1.74
-2.39
-3.05
-3.53
-3.65
-3.41
-3.00
-2.77
-2.97
-3.75
-5.04
-6.55
-8.05
-9.25
-10.01
-10.22
-9.74
-8.47
-6.44
-3.83
-1.00
1.50
3.33
4.36
4.76
4.91
5.06
5.24
5.22
4.71
3.45
1.58
-0.53
-2.32
-3.34
-3.46
-2.85
-1.81
-0.62
0.53
1.69
2.89
4.12
5.38
6.49
7.26
7.55
7.18
6.11
4.51
2.66
0.90
-0.42
-1.19
-1.52
-1.69
-2.00
-2.64
-3.50
-4.42
-5.21
-5.82
-6.32
-6.78
-7.25
-7.54
-7.52
-7.04
-6.16
-5.08
-4.06
-3.41
-3.30
-3.77
-4.72
-5.92
-7.12
-8.13
-8.76
-8.93
-8.70
-8.11
-7.16
-5.81
-3.88
-1.27
1.99
5.72
9.55
13.05
15.85
17.68
18.42
17.99
16.50
14.10
11.03
7.62
4.23
1.19
-1.30
-3.15
-4.42
-5.16
-5.43
-5.28
-4.85
-4.31
-3.84
-3.54
-3.38
-3.25
-2.96
-2.48
-1.93
-1.55
-1.57
-2.12
-3.09
-4.19
-5.02
-5.15
-4.34
-2.64
-0.33
2.05
3.92
4.82
4.57
3.28
1.27
-1.13
-3.71
-6.29
-8.76
-10.99
-12.81
-14.11
-14.97
-15.59
-16.21
-16.99
-17.88
-18.76
-19.47
-19.91
-20.09
-20.11
-20.10
-20.18
-20.44
-20.95
-21.77
-22.76
-23.60
-23.86
-23.20
-21.41
-18.54
-14.87
-10.70
-6.31
-1.91
2.37
6.37
9.78
12.37
13.90
14.29
13.64
12.10
9.87
7.27
4.62
2.27
0.57
-0.28
-0.30
0.41
1.56
2.89
4.17
5.17
5.75
5.90
5.70
5.37
5.29
5.72
6.78
8.37
10.22
12.02
13.53
14.49
14.59
13.63
11.43
8.00
3.75
-0.72
-4.76
-7.95
-10.16
-11.61
-12.60
-13.36
-13.95
-14.32
-14.40
-14.22
-13.93
-13.65
-13.36
-12.88
-12.08
-10.91
-9.59
-8.53
-8.09
-8.44
-9.40
-10.57
-11.47
-11.72
-11.15
-9.78
-7.71
-5.11
-2.23
0.59
2.87
4.21
4.24
2.87
0.16
-3.65
-8.41
-14.21
-21.18
-29.44
-38.77
-48.58
-58.09
-66.63
-73.84
-79.89
-85.36
-90.92
-97.03
-103.64
-110.08
-115.19
-117.53
-115.78
-109.00
-97.06
-80.67
-61.15
-40.07
-18.79
1.78
21.11
38.78
54.35
67.22
76.96
83.52
87.44
89.75
91.56
93.68
96.31
99.14
101.62
103.31
104.06
103.97
103.27
102.13
100.47
98.07
94.59
89.68
83.06
74.49
63.91
51.59
38.15
24.56
11.92
1.19
-7.02
-12.56
-15.53
-16.15
-14.57
-10.82
-4.95
2.92
12.39
22.91
33.82
44.39
53.91
61.76
67.45
70.69
71.39
69.53
65.18
58.54
49.89
39.76
28.87
18.02
7.94
-0.97
-8.64
-15.28
-21.19
-26.61
-31.62
-36.15
-40.14
-43.59
-46.56
-49.11
-51.08
-52.13
-51.81
-49.68
-45.62
-39.88
-33.12
-26.09
-19.45
-13.64
-8.89
-5.27
-2.70
-1.14
-0.46
-0.46
-0.86
-1.34
-1.74
-2.02
-2.33
-2.73
-3.32
-4.11
-4.98
-5.77
-6.39
-6.82
-7.17
-7.64
-8.46
-9.84
-11.92
-14.60
-17.55
-20.21
-21.87
-21.87
-19.75
-15.47
-9.45
-2.44
4.69
11.15
16.47
20.40
22.88
23.95
23.67
22.17
19.68
16.56
13.25
10.16
7.51
5.39
3.67
2.18
0.74
-0.78
-2.38
-4.04
-5.65
-7.11
-8.44
-9.73
-11.20
-13.10
-15.56
-18.47
-21.45
-23.89
-25.09
-24.59
-22.20
-18.14
-12.94
-7.18
-1.39
4.06
8.95
13.19
16.68
19.38
21.18
21.95
21.64
20.27
17.97
15.05
11.94
9.01
6.56
4.59
2.94
1.37
-0.30
-2.12
-3.94
-5.51
-6.69
-7.46
-8.03
-8.79
-10.06
-11.95
-14.22
-16.35
-17.73
-17.91
-16.72
-14.31
-10.94
-6.83
-2.12
3.11
8.62
13.96
18.46
21.50
22.69
22.02
20.00
17.24
14.45
11.96
9.76
7.51
4.90
1.80
-1.58
-4.82
-7.50
-9.36
-10.50
-11.19
-11.75
-12.42
-13.24
-14.23
-15.38
-16.77
-18.33
-19.92
-21.14
-21.46
-20.31
-17.31
-12.41
-5.97
1.26
8.41
14.55
19.00
21.40
21.76
20.41
17.72
14.12
9.90
5.40
0.96
-3.10
-6.51
-9.18
-11.17
-12.74
-14.14
-15.57
-16.95
-18.07
-18.60
-18.39
-17.45
-16.12
-14.93
-14.36
-14.68
-15.67
-16.71
-16.99
-15.89
-13.21
-9.27
-4.83
-0.66
2.64
4.96
6.60
8.21
10.42
13.65
17.97
23.19
29.00
35.04
41.09
47.00
52.56
57.44
61.16
63.30
63.67
62.44
60.08
57.20
54.22
51.32
48.38
45.15
41.48
37.43
33.40
29.88
27.38
26.17
26.14
26.99
28.28
29.74
31.30
32.97
34.77
36.53
37.82
38.11
37.03
34.42
30.48
25.63
20.26
14.72
9.17
3.71
-1.64
-6.84
-11.83
-16.58
-20.99
-25.05
-28.74
-32.08
-35.15
-38.01
-40.73
-43.40
-46.11
-48.78
-51.20
-52.91
-53.40
-52.22
-49.15
-44.27
-38.02
-31.02
-23.89
-17.14
-11.09
-5.93
-1.78
1.37
3.61
5.04
5.85
6.18
6.19
6.03
5.83
5.63
5.48
5.30
5.01
4.54
3.94
3.33
2.81
2.45
2.14
1.69
0.87
-0.49
-2.40
-4.74
-7.30
-9.71
-11.48
-12.20
-11.48
-9.23
-5.61
-1.07
3.78
8.32
12.10
14.86
16.50
17.04
16.54
15.01
12.52
9.19
5.32
1.38
-2.12
-4.76
-6.32
-6.90
-6.82
-6.43
-6.01
-5.62
-5.24
-4.78
-4.30
-3.90
-3.81
-4.26
-5.30
-6.90
-8.82
-10.75
-12.29
-13.12
-13.12
-12.33
-11.02
-9.41
-7.71
-6.01
-4.33
-2.76
-1.46
-0.68
-0.61
-1.33
-2.78
-4.83
-7.40
-10.45
-13.98
-17.97
-22.38
-27.08
-31.87
-36.55
-40.78
-44.17
-46.26
-46.77
-45.75
-43.55
-40.76
-37.82
-34.90
-31.70
-27.74
-22.54
-16.00
-8.52
-0.88
6.00
11.45
15.15
17.29
18.33
18.83
19.14
19.27
19.02
17.99
15.88
12.65
8.55
4.00
-0.46
-4.39
-7.41
-9.24
-9.67
-8.76
-6.72
-4.04
-1.34
0.79
1.97
1.99
0.88
-1.12
-3.69
-6.32
-8.48
-9.60
-9.29
-7.27
-3.59
1.51
7.61
14.20
20.78
26.87
32.08
36.11
38.84
40.25
40.40
39.46
37.64
35.32
32.95
30.99
29.84
29.65
30.30
31.42
32.56
33.40
33.83
33.90
33.51
32.44
30.26
26.72
21.82
16.08
10.21
4.93
0.64
-2.69
-5.35
-7.60
-9.47
-10.84
-11.47
-11.31
-10.58
-9.62
-8.87
-8.64
-9.10
-10.18
-11.68
-13.32
-14.87
-16.18
-17.16
-17.82
-18.17
-18.24
-18.07
-17.70
-17.24
-16.76
-16.34
-15.96
-15.65
-15.45
-15.45
-15.84
-16.70
-17.95
-19.29
-20.39
-20.82
-20.44
-19.29
-17.60
-15.64
-13.67
-11.85
-10.24
-8.95
-8.04
-7.66
-7.94
-9.02
-10.96
-13.68
-16.87
-20.14
-23.01
-25.06
-25.97
-25.69
-24.42
-22.69
-21.00
-19.70
-18.60
-16.91
-13.39
-6.83
3.35
16.75
31.87
46.66
59.10
67.81
72.28
72.80
70.07
64.91
58.16
50.55
42.88
35.93
30.30
26.33
23.88
22.44
21.23
19.61
17.18
13.93
10.28
6.65
3.32
0.30
-2.61
-5.63
-8.81
-12.11
-15.36
-18.39
-21.17
-23.73
-26.09
-28.22
-29.99
-31.24
-31.88
-31.89
-31.35
-30.40
-29.24
-28.01
-26.82
-25.70
-24.49
-23.03
-21.15
-18.77
-16.06
-13.32
-10.95
-9.30
-8.55
-8.55
-8.97
-9.40
-9.58
-9.48
-9.24
-9.12
-9.26
-9.66
-10.06
-10.23
-10.02
-9.41
-8.55
-7.53
-6.47
-5.36
-4.22
-3.16
-2.36
-2.00
-2.13
-2.66
-3.23
-3.54
-3.27
-2.36
-0.92
0.74
2.28
3.48
4.19
4.45
4.40
4.24
4.10
4.07
4.16
4.35
4.60
4.85
5.06
5.17
5.08
4.72
4.05
3.11
2.01
0.91
-0.05
-0.78
-1.32
-1.86
-2.67
-3.93
-5.61
-7.45
-9.04
-9.98
-10.06
-9.29
-7.90
-6.18
-4.31
-2.42
-0.59
1.10
2.51
3.55
4.21
4.53
4.65
4.72
4.81
4.89
4.89
4.70
4.24
3.46
2.37
1.06
-0.41
-1.94
-3.48
-4.96
-6.36
-7.63
-8.77
-9.74
-10.55
-11.18
-11.63
-11.79
-11.47
-10.54
-8.77
-6.15
-2.85
0.79
4.32
7.32
9.54
10.90
11.39
11.09
10.12
8.63
6.85
5.05
3.43
2.14
1.23
0.67
0.45
0.53
0.88
1.35
1.77
2.02
2.00
1.75
1.34
0.77
-0.02
-1.12
-2.52
-4.13
-5.65
-6.83
-7.36
-7.10
-6.02
-4.16
-1.75
1.02
3.81
6.42
8.57
10.20
11.30
11.87
11.98
11.63
10.84
9.68
8.30
6.85
5.53
4.37
3.34
2.35
1.25
0.06
-1.08
-1.93
-2.31
-2.16
-1.68
-1.15
-0.86
-0.96
-1.36
-1.85
-2.28
-2.54
-2.67
-2.69
-2.53
-2.00
-0.85
1.10
3.84
7.13
10.59
13.86
16.63
18.71
20.00
20.44
20.02
18.78
16.74
13.94
10.41
6.15
1.33
-3.74
-8.57
-12.63
-15.62
-17.46
-18.36
-18.59
-18.47
-18.10
-17.58
-17.02
-16.60
-16.52
-16.88
-17.60
-18.34
-18.74
-18.43
-17.13
-14.74
-11.29
-6.99
-2.20
2.60
7.03
10.71
13.51
15.39
16.35
16.42
15.62
14.04
11.89
9.44
6.91
4.50
2.29
0.27
-1.54
-3.08
-4.25
-4.98
-5.34
-5.49
-5.68
-6.10
-6.87
-7.86
-8.92
-9.85
-10.55
-10.96
-10.92
-10.23
-8.66
-6.11
-2.60
1.52
5.76
9.63
12.81
15.18
16.69
17.32
16.97
15.58
13.17
9.92
6.25
2.60
-0.58
-3.05
-4.68
-5.58
-5.93
-5.92
-5.72
-5.50
-5.45
-5.80
-6.72
-8.20
-9.98
-11.63
-12.72
-13.02
-12.62
-11.80
-10.89
-9.99
-8.97
-7.58
-5.64
-3.20
-0.52
2.07
4.29
6.01
7.18
7.81
7.94
7.63
7.01
6.24
5.49
4.85
4.34
3.90
3.42
2.77
1.92
0.82
-0.45
-1.72
-2.82
-3.64
-4.29
-5.06
-6.35
-8.37
-10.99
-13.74
-15.88
-16.76
-15.95
-13.50
-9.73
-5.23
-0.51
3.95
7.86
11.08
13.51
15.11
15.83
15.65
14.59
12.78
10.57
8.45
6.95
6.37
6.80
7.97
9.52
11.15
12.80
14.73
17.29
20.81
25.30
30.59
36.21
41.46
45.45
47.20
45.91
41.11
33.05
22.60
11.17
0.32
-8.69
-15.09
-18.73
-19.89
-19.09
-16.93
-14.01
-10.95
-8.31
-6.62
-6.25
-7.33
-9.68
-12.88
-16.34
-19.40
-21.62
-22.81
-23.07
-22.61
-21.64
-20.28
-18.61
-16.61
-14.35
-12.05
-10.08
-8.81
-8.60
-9.51
-11.48
-14.25
-17.33
-20.10
-21.96
-22.32
-20.85
-17.52
-12.59
-6.62
-0.33
5.62
10.65
14.44
16.92
18.25
18.69
18.56
18.12
17.53
16.80
15.88
14.69
13.23
11.60
9.82
7.90
5.79
3.49
1.08
-1.29
-3.39
-4.98
-6.07
-6.85
-7.70
-8.99
-10.90
-13.23
-15.51
-17.06
-17.24
-15.68
-12.34
-7.53
-1.78
4.26
10.05
15.17
19.33
22.42
24.38
25.18
24.78
23.14
20.33
16.55
12.16
7.63
3.43
-0.10
-2.86
-4.98
-6.67
-8.09
-9.25
-10.09
-10.48
-10.42
-10.07
-9.73
-9.71
-10.21
-11.24
-12.54
-13.74
-14.31
-13.76
-11.73
-8.09
-3.02
2.98
9.15
14.79
19.25
22.27
23.78
23.89
22.76
20.55
17.52
14.01
10.55
7.53
5.26
3.69
2.47
1.19
-0.36
-2.13
-3.79
-4.92
-5.28
-4.85
-3.98
-3.15
-2.89
-3.61
-5.46
-8.29
-11.58
-14.55
-16.28
-16.05
-13.57
-9.10
-3.38
2.68
8.24
12.85
16.27
18.48
19.48
19.25
17.96
15.92
13.66
11.74
10.49
9.88
9.57
9.09
8.09
6.57
4.78
3.01
1.59
0.60
-0.10
-0.80
-1.89
-3.71
-6.45
-10.06
-14.23
-18.30
-21.50
-23.04
-22.37
-19.30
-14.12
-7.48
-0.26
6.69
12.67
17.24
20.17
21.45
21.18
19.50
16.57
12.56
7.84
2.90
-1.67
-5.31
-7.64
-8.64
-8.61
-8.05
-7.39
-6.93
-6.71
-6.68
-6.69
-6.71
-6.84
-7.34
-8.43
-10.35
-13.13
-16.52
-19.93
-22.53
-23.39
-21.93
-18.00
-12.01
-4.86
2.44
9.02
14.39
18.38
21.08
22.61
23.01
22.28
20.46
17.80
14.80
11.98
9.69
8.03
6.77
5.52
3.95
1.92
-0.43
-2.81
-4.93
-6.66
-8.02
-9.08
-10.05
-11.11
-12.55
-14.58
-17.33
-20.66
-24.06
-26.73
-27.85
-26.76
-23.22
-17.52
-10.34
-2.65
4.66
10.91
15.80
19.25
21.41
22.41
22.28
21.03
18.71
15.60
12.29
9.57
8.21
8.65
10.84
14.28
18.18
21.73
24.28
25.41
24.95
22.92
19.42
14.60
8.70
2.00
-5.04
-11.92
-18.00
-22.61
-25.13
-25.10
-22.47
-17.63
-11.31
-4.47
2.06
7.69
12.18
15.51
17.73
18.84
18.84
17.83
16.08
14.04
12.15
10.85
10.27
10.42
11.03
11.69
12.05
11.83
10.91
9.24
6.86
3.66
-0.40
-5.36
-11.10
-17.27
-23.46
-29.20
-34.15
-37.93
-40.15
-40.25
-37.76
-32.54
-24.99
-16.09
-7.09
0.87
7.06
11.29
13.79
14.91
14.91
13.94
12.11
9.75
7.35
5.44
4.34
4.00
4.07
4.09
3.66
2.55
0.90
-1.03
-2.94
-4.60
-5.93
-7.02
-8.17
-9.71
-11.93
-14.83
-18.04
-20.86
-22.37
-21.82
-18.88
-13.74
-7.08
0.16
7.06
12.89
17.28
20.17
21.69
22.07
21.51
20.25
18.51
16.61
14.88
13.54
12.65
11.98
11.14
9.76
7.70
5.13
2.39
-0.11
-2.12
-3.59
-4.71
-5.83
-7.27
-9.37
-12.33
-16.11
-20.31
-24.16
-26.68
-26.97
-24.57
-19.61
-12.82
-5.23
2.11
8.43
13.34
16.71
18.67
19.42
19.21
18.33
17.03
15.46
13.82
12.28
10.93
9.91
9.17
8.59
7.88
6.73
4.91
2.46
-0.27
-2.86
-4.91
-6.44
-7.76
-9.45
-12.04
-15.68
-19.99
-24.14
-27.08
-27.85
-26.04
-21.80
-15.74
-8.77
-1.78
4.51
9.62
13.30
15.51
16.28
15.76
14.22
12.04
9.67
7.46
5.72
4.54
3.95
3.77
3.74
3.64
3.34
2.86
2.23
1.54
0.78
0.02
-0.77
-1.69
-2.87
-4.54
-6.92
-10.07
-13.80
-17.58
-20.57
-21.89
-20.95
-17.65
-12.47
-6.20
0.23
6.12
11.00
14.74
17.34
18.85
19.25
18.58
16.95
14.67
12.16
9.87
8.14
7.07
6.49
6.14
5.74
5.12
4.35
3.67
3.37
3.67
4.53
5.73
6.85
7.38
6.86
5.05
2.03
-1.73
-5.41
-8.03
-8.79
-7.27
-3.71
1.15
6.32
10.97
14.65
17.27
19.06
20.19
20.71
20.56
19.58
17.76
15.22
12.10
8.54
4.63
0.43
-3.93
-8.13
-11.78
-14.49
-16.09
-16.58
-16.20
-15.29
-14.21
-13.30
-12.85
-13.19
-14.45
-16.60
-19.26
-21.73
-23.15
-22.82
-20.49
-16.38
-11.22
-5.85
-0.97
3.03
6.12
8.41
9.98
10.78
10.68
9.56
7.57
5.08
2.52
0.39
-1.09
-2.01
-2.64
-3.41
-4.61
-6.28
-8.29
-10.40
-12.27
-13.70
-14.74
-15.59
-16.61
-18.11
-20.21
-22.67
-24.86
-25.86
-24.85
-21.44
-15.77
-8.59
-0.86
6.50
12.81
17.72
21.11
22.99
23.42
22.63
20.97
18.81
16.57
14.43
12.45
10.53
8.58
6.55
4.46
2.39
0.39
-1.43
-3.01
-4.26
-5.15
-5.77
-6.34
-7.22
-8.83
-11.45
-15.15
-19.68
-24.38
-28.27
-30.26
-29.56
-25.83
-19.45
-11.35
-2.71
5.33
12.01
17.06
20.56
22.70
23.72
23.76
22.84
21.01
18.34
15.10
11.66
8.45
5.86
4.01
2.79
1.84
0.77
-0.71
-2.60
-4.76
-6.89
-8.89
-10.88
-13.13
-16.07
-19.89
-24.61
-29.73
-34.55
-38.09
-39.47
-38.14
-34.01
-27.50
-19.24
-10.10
-0.91
7.67
15.15
21.21
25.75
28.86
30.76
31.74
32.03
31.73
30.82
29.27
27.09
24.44
21.62
18.83
16.24
13.82
11.44
8.91
6.13
3.09
-0.09
-3.27
-6.38
-9.47
-12.63
-16.04
-19.69
-23.35
-26.52
-28.49
-28.60
-26.37
-21.81
-15.34
-7.71
0.20
7.58
13.80
18.45
21.28
22.21
21.34
18.99
15.73
12.26
9.36
7.42
6.58
6.49
6.65
6.51
5.75
4.38
2.65
0.96
-0.47
-1.60
-2.59
-3.83
-5.76
-8.71
-12.74
-17.48
-22.11
-25.59
-26.94
-25.62
-21.72
-15.82
-8.88
-1.77
4.89
10.77
15.67
19.44
21.82
22.54
21.56
19.05
15.49
11.59
8.02
5.25
3.47
2.49
1.96
1.51
0.94
0.21
-0.56
-1.34
-2.23
-3.46
-5.40
-8.33
-12.33
-17.20
-22.45
-27.36
-31.09
-32.78
-31.71
-27.65
-20.79
-11.94
-2.19
7.32
15.66
22.28
27.01
29.99
31.34
31.27
29.95
27.58
24.42
20.87
17.31
14.10
11.44
9.26
7.43
5.70
3.92
2.00
0.03
-1.98
-3.98
-5.99
-8.10
-10.44
-13.19
-16.55
-20.48
-24.65
-28.29
-30.36
-29.85
-26.25
-19.66
-10.97
-1.46
7.59
15.24
21.08
25.15
27.76
29.10
29.28
28.24
25.93
22.47
18.28
13.95
10.12
7.15
5.04
3.41
1.73
-0.30
-2.75
-5.27
-7.42
-8.87
-9.67
-10.16
-10.97
-12.64
-15.53
-19.67
-24.68
-29.87
-34.26
-36.83
-36.71
-33.52
-27.44
-19.24
-10.06
-1.05
6.80
12.91
17.07
19.49
20.53
20.73
20.67
20.81
21.61
23.25
25.70
28.79
32.07
34.89
36.62
36.72
34.92
31.37
26.50
20.89
15.19
9.85
5.09
0.96
-2.80
-6.55
-10.66
-15.23
-20.08
-24.56
-27.68
-28.55
-26.50
-21.55
-14.35
-6.02
2.23
9.32
14.68
18.11
19.71
19.69
18.21
15.52
12.00
8.20
4.73
2.14
0.63
0.09
0.12
0.26
0.14
-0.41
-1.39
-2.62
-3.90
-5.00
-5.83
-6.47
-7.20
-8.51
-10.80
-14.19
-18.40
-22.67
-26.02
-27.46
-26.29
-22.33
-15.95
-8.03
0.39
8.31
14.94
19.90
23.09
24.51
24.31
22.67
19.78
16.01
11.79
7.63
3.92
0.87
-1.62
-3.76
-5.75
-7.73
-9.61
-11.33
-12.75
-13.96
-15.15
-16.65
-18.78
-21.63
-25.13
-28.83
-32.14
-34.23
-34.32
-31.83
-26.63
-19.04
-9.87
-0.21
8.90
16.58
22.27
25.78
27.20
26.72
24.63
21.30
17.21
12.96
9.18
6.40
4.84
4.43
4.81
5.40
5.71
5.41
4.49
3.11
1.51
-0.19
-2.07
-4.42
-7.66
-12.00
-17.33
-22.96
-27.70
-30.24
-29.51
-25.16
-17.66
-8.23
1.65
10.66
18.01
23.41
26.98
28.89
29.18
27.92
25.18
21.34
17.03
12.96
9.68
7.34
5.68
4.22
2.57
0.50
-1.77
-3.89
-5.55
-6.72
-7.64
-8.72
-10.39
-12.91
-16.35
-20.47
-24.75
-28.44
-30.59
-30.25
-26.86
-20.44
-11.60
-1.64
8.07
16.38
22.63
26.68
28.71
28.95
27.62
24.97
21.34
17.30
13.48
10.42
8.40
7.31
6.70
6.03
4.98
3.47
1.70
-0.01
-1.47
-2.59
-3.61
-4.88
-6.79
-9.62
-13.39
-17.75
-22.07
-25.48
-27.03
-26.02
-22.18
-15.83
-7.75
0.98
9.30
16.31
21.51
24.85
26.45
26.57
25.36
22.92
19.50
15.48
11.47
8.12
5.85
4.74
4.50
4.64
4.70
4.46
3.89
3.09
2.12
0.95
-0.51
-2.34
-4.66
-7.67
-11.53
-16.22
-21.32
-26.04
-29.20
-29.71
-26.95
-21.05
-12.88
-3.71
5.19
12.91
18.89
22.93
25.00
25.15
23.57
20.71
17.17
13.66
10.74
8.69
7.32
6.25
4.91
2.99
0.53
-2.14
-4.50
-6.14
-6.89
-6.96
-6.84
-7.17
-8.50
-11.20
-15.23
-20.15
-25.16
-29.17
-31.05
-29.93
-25.44
-17.86
-8.16
2.36
12.31
20.51
26.27
29.45
30.39
29.60
27.63
24.90
21.67
18.23
14.90
12.07
10.03
8.87
8.31
7.94
7.34
6.24
4.67
2.87
0.98
-1.03
-3.41
-6.56
-10.76
-15.98
-21.76
-27.22
-31.23
-32.66
-30.80
-25.55
-17.54
-7.92
1.84
10.42
16.97
21.11
22.88
22.59
20.66
17.52
13.72
9.76
6.10
3.17
1.12
-0.12
-0.82
-1.40
-2.23
-3.46
-5.06
-6.85
-8.54
-10.04
-11.41
-12.98
-15.23
-18.60
-23.20
-28.69
-34.19
-38.38
-39.93
-37.87
-31.99
-22.99
-12.26
-1.40
8.16
15.63
20.79
23.91
25.44
25.77
25.14
23.73
21.73
19.43
17.12
15.04
13.27
11.68
10.04
8.11
5.84
3.32
0.88
-1.19
-2.77
-3.97
-5.14
-6.70
-9.02
-12.26
-16.34
-20.89
-25.25
-28.56
-29.85
-28.38
-23.83
-16.58
-7.63
1.66
10.05
16.69
21.32
24.09
25.26
25.11
23.69
21.05
17.33
12.98
8.61
4.83
2.06
0.27
-0.76
-1.41
-1.95
-2.45
-2.75
-2.75
-2.42
-1.98
-1.69
-1.96
-3.06
-5.12
-8.23
-12.29
-17.01
-21.77
-25.62
-27.48
-26.53
-22.48
-15.76
-7.36
1.45
9.60
16.39
21.51
24.94
26.78
27.11
26.07
23.94
21.10
17.98
15.03
12.59
10.84
9.75
9.07
8.45
7.51
6.05
4.07
1.84
-0.39
-2.35
-4.03
-5.64
-7.52
-10.12
-13.66
-18.20
-23.40
-28.62
-32.85
-35.04
-34.32
-30.36
-23.49
-14.70
-5.32
3.36
10.39
15.39
18.42
19.78
19.82
18.72
16.61
13.66
10.21
6.76
3.85
1.87
0.82
0.42
0.07
-0.67
-2.05
-3.95
-6.03
-7.87
-9.23
-10.01
-10.28
-10.29
-10.26
-10.46
-11.10
-12.27
-13.79
-15.21
-15.79
-14.82
-11.81
-6.78
-0.27
6.86
13.64
19.36
23.61
26.28
27.36
26.98
25.30
22.65
19.47
16.35
13.78
11.99
10.90
10.14
9.29
8.06
6.39
4.44
2.54
0.93
-0.20
-0.88
-1.34
-1.90
-3.01
-5.10
-8.45
-12.97
-18.11
-22.84
-25.90
-26.17
-23.16
-17.17
-9.26
-0.86
6.72
12.64
16.66
18.99
19.94
19.73
18.45
16.16
13.06
9.46
5.78
2.41
-0.47
-2.89
-5.05
-7.16
-9.28
-11.31
-13.01
-14.15
-14.67
-14.76
-14.77
-15.19
-16.41
-18.58
-21.58
-24.93
-27.91
-29.70
-29.60
-27.09
-22.09
-14.98
-6.56
2.16
10.25
17.04
22.25
25.81
27.85
28.46
27.73
25.80
22.95
19.66
16.49
13.93
12.15
10.97
9.96
8.62
6.71
4.31
1.69
-0.85
-3.16
-5.32
-7.54
-10.05
-12.95
-16.31
-20.09
-24.11
-28.06
-31.34
-33.12
-32.57
-29.21
-23.19
-15.28
-6.70
1.42
8.28
13.55
17.36
19.97
21.50
21.98
21.36
19.71
17.31
14.57
12.01
9.96
8.61
7.83
7.33
6.72
5.70
4.19
2.27
0.26
-1.61
-3.16
-4.53
-6.08
-8.31
-11.60
-16.05
-21.33
-26.54
-30.64
-32.54
-31.47
-27.21
-20.17
-11.28
-1.74
7.21
14.68
20.12
23.48
25.05
25.30
24.68
23.44
21.74
19.62
17.26
14.88
12.75
11.09
9.83
8.81
7.77
6.56
5.18
3.80
2.56
1.49
0.45
-0.90
-2.77
-5.32
-8.64
-12.69
-17.26
-21.96
-26.16
-28.98
-29.54
-27.21
-21.88
-14.22
-5.43
3.22
10.65
16.32
20.19
22.44
23.16
22.36
19.93
16.03
11.19
6.28
2.15
-0.58
-1.86
-2.06
-1.83
-1.73
-2.07
-2.81
-3.71
-4.49
-4.98
-5.28
-5.76
-6.92
-9.22
-12.91
-17.79
-23.22
-28.12
-31.24
-31.52
-28.38
-21.87
-12.77
-2.29
8.15
17.32
24.32
28.82
30.76
30.41
28.23
24.72
20.47
16.09
12.15
9.11
7.13
6.11
5.69
5.42
4.89
3.92
2.60
1.19
-0.07
-1.12
-2.12
-3.46
-5.56
-8.75
-13.03
-18.07
-23.07
-27.01
-28.85
-27.78
-23.57
-16.59
-7.90
1.25
9.57
16.22
20.81
23.37
24.12
23.38
21.44
18.59
15.23
11.78
8.67
6.21
4.44
3.16
2.02
0.69
-0.95
-2.72
-4.35
-5.58
-6.34
-6.90
-7.72
-9.43
-12.47
-16.98
-22.57
-28.43
-33.34
-36.07
-35.73
-31.98
-25.29
-16.66
-7.36
1.46
9.04
15.08
19.60
22.71
24.46
24.79
23.75
21.48
18.44
15.16
12.12
9.60
7.53
5.67
3.64
1.32
-1.21
-3.63
-5.61
-7.04
-8.05
-9.15
-10.87
-13.70
-17.74
-22.81
-28.26
-33.17
-36.46
-37.08
-34.38
-28.21
-19.20
-8.41
2.67
12.76
21.00
27.09
31.09
33.19
33.55
32.25
29.43
25.43
20.86
16.42
12.71
9.94
7.98
6.46
4.90
3.07
1.01
-1.11
-3.03
-4.63
-5.93
-7.02
-8.10
-9.43
-11.32
-14.19
-18.25
-23.31
-28.53
-32.55
-33.85
-31.47
-25.40
-16.63
-6.92
2.19
9.67
15.31
19.38
22.30
24.16
24.72
23.68
20.93
16.86
12.24
8.08
5.09
3.65
3.54
4.20
4.89
5.07
4.55
3.45
2.12
0.83
-0.42
-1.95
-4.16
-7.34
-11.53
-16.40
-21.34
-25.66
-28.60
-29.58
-28.15
-24.13
-17.63
-9.25
0.13
9.38
17.58
24.11
28.72
31.44
32.43
31.85
29.77
26.43
22.23
17.84
13.95
11.07
9.32
8.39
7.77
6.98
5.85
4.43
2.96
1.63
0.43
-0.85
-2.58
-5.09
-8.59
-13.10
-18.38
-23.79
-28.38
-30.99
-30.57
-26.69
-19.63
-10.47
-0.68
8.33
15.58
20.70
23.78
25.12
24.95
23.41
20.64
16.95
12.88
9.19
6.55
5.28
5.18
5.57
5.59
4.60
2.50
-0.24
-2.85
-4.64
-5.38
-5.43
-5.59
-6.71
-9.35
-13.61
-19.06
-24.83
-29.85
-33.04
-33.47
-30.66
-24.77
-16.58
-7.34
1.62
9.32
15.33
19.65
22.48
23.93
24.01
22.73
20.29
17.18
14.08
11.58
9.90
8.87
8.07
7.09
5.78
4.22
2.54
0.85
-0.95
-3.01
-5.51
-8.54
-12.09
-16.20
-20.90
-26.18
-31.82
-37.21
-41.35
-43.04
-41.32
-35.82
-27.02
-16.07
-4.45
6.46
15.81
23.30
29.08
33.30
36.06
37.19
36.52
34.11
30.39
26.10
22.13
19.11
17.27
16.39
15.92
15.36
14.29
12.66
10.64
8.48
6.33
4.22
2.02
-0.53
-3.60
-7.35
-11.82
-16.88
-22.25
-27.43
-31.57
-33.70
-32.96
-28.90
-21.68
-12.12
-1.41
9.09
18.26
25.46
30.46
33.41
34.57
34.27
32.83
30.54
27.68
24.54
21.39
18.38
15.66
13.29
11.22
9.32
7.46
5.59
3.72
1.99
0.44
-0.94
-2.28
-3.88
-6.03
-8.85
-12.28
-16.13
-20.19
-24.22
-27.80
-30.33
-30.95
-28.83
-23.45
-15.07
-4.69
6.06
15.58
22.66
26.89
28.52
28.16
26.43
23.71
20.19
16.09
11.75
7.67
4.39
2.23
1.15
0.86
0.85
0.68
0.09
-0.96
-2.38
-4.04
-5.76
-7.47
-9.11
-10.64
-12.24
-14.15
-16.67
-19.97
-23.96
-28.08
-31.45
-33.03
-31.94
-27.86
-21.11
-12.62
-3.58
4.87
11.96
17.28
20.80
22.65
22.92
21.70
19.20
15.76
11.96
8.44
5.77
4.24
3.82
4.10
4.56
4.68
4.10
2.76
0.88
-1.21
-3.19
-4.94
-6.63
-8.56
-11.08
-14.43
-18.55
-23.04
-27.16
-30.00
-30.68
-28.61
-23.70
-16.50
-8.04
0.50
8.08
14.02
18.14
20.52
21.42
20.96
19.26
16.39
12.65
8.54
4.69
1.67
-0.15
-0.77
-0.61
-0.26
-0.29
-0.97
-2.25
-3.81
-5.30
-6.55
-7.63
-8.88
-10.64
-13.20
-16.60
-20.66
-24.98
-28.86
-31.37
-31.52
-28.60
-22.44
-13.72
-3.69
6.08
14.30
20.27
23.96
25.71
25.99
25.08
23.07
20.08
16.43
12.69
9.50
7.35
6.30
6.05
6.03
5.63
4.51
2.65
0.33
-2.02
-4.06
-5.61
-6.77
-7.82
-9.19
-11.22
-14.19
-18.08
-22.42
-26.45
-29.12
-29.47
-26.84
-21.22
-13.23
-4.03
5.01
12.79
18.67
22.56
24.78
25.82
26.07
25.71
24.75
23.20
21.14
18.85
16.69
15.00
13.92
13.37
13.14
12.97
12.74
12.42
12.14
11.90
11.69
11.31
10.51
9.06
6.81
3.79
0.10
-4.07
-8.43
-12.54
-15.81
-17.58
-17.30
-14.84
-10.51
-5.12
0.38
5.23
9.11
12.06
14.22
15.59
15.94
15.00
12.70
9.34
5.56
2.07
-0.70
-2.73
-4.28
-5.76
-7.47
-9.52
-11.86
-14.34
-16.81
-19.12
-21.12
-22.72
-23.94
-24.98
-26.24
-28.10
-30.76
-33.95
-37.07
-39.20
-39.39
-37.07
-32.13
-24.98
-16.48
-7.68
0.50
7.36
12.56
16.08
18.02
18.54
17.79
15.94
13.17
9.86
6.52
3.68
1.75
0.83
0.70
0.96
1.18
1.09
0.61
-0.16
-1.08
-2.19
-3.67
-5.86
-8.92
-12.94
-17.68
-22.66
-27.23
-30.68
-32.35
-31.74
-28.73
-23.58
-17.01
-10.05
-3.79
0.89
3.41
3.66
1.89
-1.47
-5.94
-11.16
-16.79
-22.55
-28.17
-33.43
-38.18
-42.48
-46.62
-50.91
-55.59
-60.55
-65.36
-69.45
-72.47
-74.46
-75.94
-77.67
-80.12
-83.25
-86.41
-88.42
-87.95
-83.93
-75.76
-63.47
-47.69
-29.40
-9.72
10.32
29.90
48.51
65.80
81.45
95.08
106.15
114.22
119.04
120.77
120.02
117.66
114.59
111.42
108.37
105.24
101.83
97.97
93.74
89.38
85.00
80.54
75.65
70.02
63.36
55.59
46.78
37.10
26.89
16.66
7.25
-0.21
-4.65
-5.39
-2.56
2.91
9.55
15.89
20.79
23.80
24.91
24.38
22.36
18.87
13.88
7.51
0.20
-7.28
-14.03
-19.18
-22.17
-22.73
-20.94
-17.11
-11.63
-5.07
1.93
8.57
14.00
17.52
18.69
17.50
14.26
9.49
3.70
-2.62
-8.97
-14.78
-19.25
-21.55
-21.04
-17.63
-11.89
-4.92
1.99
7.82
11.95
14.31
15.06
14.44
12.64
9.74
5.90
1.40
-3.31
-7.81
-11.74
-14.97
-17.60
-19.80
-21.78
-23.58
-25.16
-26.32
-26.86
-26.70
-25.95
-24.86
-23.82
-23.19
-23.27
-24.19
-25.86
-27.88
-29.56
-30.00
-28.33
-23.95
-16.84
-7.65
2.50
12.30
20.63
26.74
30.39
31.64
30.80
28.23
24.40
19.77
14.87
10.15
6.07
2.89
0.70
-0.71
-1.71
-2.68
-3.96
-5.55
-7.34
-9.02
-10.41
-11.57
-12.79
-14.43
-16.74
-19.88
-23.71
-27.93
-32.01
-35.31
-37.08
-36.74
-33.98
-29.03
-22.61
-15.72
-9.48
-4.65
-1.67
-0.66
-1.56
-4.21
-8.40
-13.72
-19.57
-25.23
-30.05
-33.74
-36.40
-38.54
-40.87
-43.98
-48.18
-53.47
-59.63
-66.32
-73.26
-80.30
-87.57
-95.35
-104.06
-113.75
-123.86
-132.92
-138.62
-138.30
-129.78
-112.06
-85.80
-53.32
-17.96
16.72
47.68
72.93
91.57
103.56
109.47
110.12
106.52
99.65
90.58
80.27
69.53
58.91
48.78
39.25
30.34
22.05
14.36
7.23
0.65
-5.50
-11.42
-17.29
-23.24
-29.24
-34.82
-39.06
-40.63
-38.17
-30.72
-18.03
-0.83
19.44
40.94
61.90
80.83
96.57
108.27
115.26
117.26
114.45
107.61
98.06
87.29
76.66
67.09
58.97
52.20
46.35
40.86
35.33
29.53
23.59
17.80
12.57
8.26
5.01
2.73
1.15
0.05
-0.80
-1.53
-2.36
-3.45
-4.94
-6.82
-8.79
-10.37
-11.00
-10.34
-8.31
-5.22
-1.60
1.90
4.80
6.85
8.02
8.47
8.32
7.69
6.73
5.52
4.28
3.31
2.88
3.08
3.71
4.40
4.81
4.88
4.81
5.05
5.99
7.74
10.05
12.29
13.66
13.40
11.12
6.67
0.22
-7.82
-16.91
-26.29
-34.97
-41.86
-45.89
-46.18
-42.47
-35.18
-25.26
-14.03
-2.62
8.25
18.34
27.60
35.94
43.04
48.31
51.27
51.69
49.85
46.50
42.48
38.44
34.65
30.98
27.23
23.25
19.08
14.87
10.80
6.82
2.81
-1.39
-6.02
-11.14
-16.77
-22.81
-29.15
-35.50
-41.51
-46.59
-50.10
-51.57
-50.82
-48.26
-44.78
-41.48
-39.31
-38.85
-40.15
-42.86
-46.66
-51.29
-56.76
-63.14
-70.36
-78.07
-85.64
-92.35
-97.74
-101.88
-105.31
-108.90
-113.48
-119.32
-126.08
-132.84
-138.52
-142.25
-143.83
-143.72
-142.78
-142.05
-142.26
-143.68
-145.98
-148.18
-148.76
-145.87
-137.80
-123.41
-102.62
-76.51
-47.24
-17.56
9.82
32.78
50.18
61.93
68.91
72.66
75.13
78.30
83.91
93.18
106.50
123.16
141.46
158.91
172.92
181.44
183.70
180.19
172.43
162.29
151.34
140.56
130.35
120.87
112.39
105.53
101.05
99.57
101.27
105.73
111.96
118.78
124.99
129.69
132.41
132.87
130.92
126.26
118.45
107.14
92.32
74.74
56.03
38.50
24.44
15.47
11.97
12.91
16.39
20.31
23.08
23.96
23.00
20.47
16.52
10.92
3.11
-7.38
-20.52
-35.48
-50.77
-64.48
-74.81
-80.45
-80.83
-76.33
-67.88
-56.80
-44.36
-31.65
-19.49
-8.52
0.80
8.05
12.93
15.39
15.74
14.59
12.86
11.41
10.75
11.00
11.76
12.34
12.17
11.05
9.10
6.75
4.41
2.27
0.22
-2.02
-4.80
-8.40
-12.89
-18.18
-23.83
-29.19
-33.35
-35.37
-34.49
-30.39
-23.36
-14.19
-4.01
5.99
14.69
21.33
25.53
27.25
26.81
24.71
21.49
17.70
13.83
10.29
7.46
5.61
4.80
4.87
5.35
5.71
5.50
4.62
3.28
1.85
0.69
-0.19
-1.11
-2.68
-5.48
-9.81
-15.39
-21.35
-26.41
-29.15
-28.57
-24.33
-16.94
-7.56
2.27
11.10
17.79
21.80
23.03
21.66
18.10
12.67
5.91
-1.70
-9.49
-16.82
-23.16
-28.23
-32.10
-35.07
-37.57
-39.89
-42.19
-44.44
-46.50
-48.27
-49.73
-50.97
-52.18
-53.51
-55.05
-56.68
-58.02
-58.43
-57.09
-53.22
-46.31
-36.37
-23.95
-10.00
4.35
18.08
30.47
41.14
49.95
56.84
61.71
64.46
64.98
63.32
59.78
54.82
49.01
42.85
36.72
30.81
25.18
19.85
14.84
10.27
6.21
2.67
-0.58
-3.93
-7.88
-12.77
-18.61
-24.84
-30.34
-33.75
-33.88
-30.16
-22.92
-13.32
-2.93
6.73
14.58
20.19
23.56
24.99
24.83
23.39
20.97
17.94
14.73
11.75
9.31
7.46
6.09
5.07
4.24
3.57
3.13
3.04
3.38
3.99
4.46
4.07
2.02
-2.40
-9.43
-18.75
-29.31
-39.54
-47.69
-52.30
-52.63
-48.89
-42.10
-33.74
-25.21
-17.41
-10.68
-4.90
0.12
4.33
7.52
9.40
9.94
9.51
8.74
8.26
8.33
8.76
9.01
8.53
7.09
4.85
2.33
0.10
-1.42
-2.23
-2.64
-3.11
-4.19
-6.27
-9.43
-13.51
-17.81
-21.34
-22.92
-21.58
-16.89
-9.13
0.68
11.20
21.04
29.21
35.19
38.93
40.64
40.58
39.01
36.13
32.22
27.62
22.82
18.35
14.63
11.90
10.07
8.78
7.54
5.95
3.86
1.43
-0.97
-3.01
-4.60
-5.90
-7.26
-9.03
-11.44
-14.49
-17.94
-21.31
-23.91
-24.95
-23.66
-19.56
-12.74
-3.88
5.85
15.12
22.83
28.35
31.50
32.43
31.40
28.67
24.58
19.61
14.34
9.40
5.25
2.07
-0.30
-2.14
-3.74
-5.25
-6.65
-7.84
-8.74
-9.39
-9.94
-10.65
-11.75
-13.46
-15.92
-19.13
-22.86
-26.59
-29.42
-30.33
-28.38
-23.18
-15.06
-5.07
5.32
14.67
22.03
26.97
29.64
30.38
29.60
27.59
24.60
20.96
17.04
13.28
10.01
7.34
5.17
3.22
1.29
-0.75
-2.85
-4.85
-6.58
-8.02
-9.38
-10.93
-13.07
-16.04
-19.78
-23.94
-27.78
-30.33
-30.62
-28.01
-22.34
-14.17
-4.62
4.92
13.09
19.00
22.26
22.96
21.46
18.27
13.84
8.69
3.31
-1.79
-6.17
-9.60
-12.13
-14.09
-15.80
-17.56
-19.34
-20.99
-22.30
-23.29
-24.15
-25.37
-27.42
-30.53
-34.64
-39.22
-43.41
-46.26
-46.85
-44.61
-39.49
-32.01
-23.10
-13.90
-5.39
1.80
7.39
11.42
13.96
15.17
15.15
14.17
12.54
10.66
8.82
7.15
5.56
3.91
2.16
0.40
-1.09
-2.11
-2.49
-2.26
-1.57
-0.71
-0.02
0.04
-1.01
-3.38
-6.88
-10.66
-13.36
-13.52
-10.21
-3.30
6.33
17.20
27.80
37.03
44.38
49.86
53.59
55.69
56.14
54.83
51.84
47.50
42.43
37.30
32.75
29.02
26.03
23.38
20.59
17.36
13.72
10.02
6.69
4.04
1.99
0.19
-2.01
-5.20
-9.73
-15.62
-22.42
-29.26
-35.07
-38.76
-39.61
-37.45
-32.82
-26.67
-20.16
-14.17
-9.13
-5.08
-1.86
0.59
2.20
2.79
2.41
1.27
-0.12
-1.24
-1.82
-1.89
-1.84
-2.10
-2.96
-4.39
-6.14
-7.83
-9.20
-10.21
-10.98
-11.83
-13.11
-15.10
-17.91
-21.45
-25.25
-28.56
-30.34
-29.66
-25.95
-19.29
-10.51
-0.86
8.34
16.12
22.00
25.93
28.11
28.73
27.90
25.76
22.55
18.71
14.82
11.40
8.78
6.98
5.80
4.83
3.72
2.18
0.11
-2.36
-5.04
-7.72
-10.37
-13.13
-16.27
-20.09
-24.63
-29.55
-34.08
-37.12
-37.58
-34.77
-28.68
-20.04
-10.16
-0.46
7.90
14.27
18.59
21.10
22.10
21.80
20.32
17.82
14.56
11.01
7.61
4.71
2.43
0.58
-1.16
-3.11
-5.36
-7.78
-10.13
-12.17
-13.90
-15.50
-17.38
-19.85
-23.08
-26.89
-30.79
-34.02
-35.76
-35.23
-31.97
-25.98
-17.71
-8.14
1.62
10.55
17.88
23.22
26.45
27.64
26.94
24.66
21.27
17.43
13.82
10.98
9.16
8.21
7.76
7.34
6.61
5.44
3.97
2.50
1.24
0.29
-0.49
-1.45
-2.99
-5.56
-9.35
-14.24
-19.56
-24.28
-27.16
-27.16
-23.87
-17.62
-9.55
-1.06
6.59
12.70
17.16
20.25
22.29
23.42
23.56
22.54
20.43
17.53
14.39
11.51
9.17
7.26
5.40
3.26
0.68
-2.12
-4.80
-7.02
-8.60
-9.68
-10.61
-11.88
-13.92
-17.03
-21.16
-26.02
-30.90
-34.86
-36.93
-36.37
-32.99
-27.17
-19.85
-12.06
-4.78
1.38
6.18
9.63
11.86
13.01
13.10
12.23
10.52
8.28
5.85
3.57
1.61
-0.03
-1.51
-3.02
-4.68
-6.45
-8.11
-9.41
-10.16
-10.36
-10.26
-10.19
-10.56
-11.67
-13.64
-16.32
-19.26
-21.63
-22.48
-20.91
-16.40
-9.04
0.39
10.71
20.70
29.33
36.03
40.59
43.02
43.45
42.06
39.09
34.97
30.25
25.51
21.23
17.65
14.76
12.40
10.29
8.25
6.22
4.22
2.33
0.59
-1.08
-2.82
-4.84
-7.26
-10.20
-13.75
-17.97
-22.75
-27.70
-32.13
-35.08
-35.61
-32.98
-27.16
-18.76
-8.92
1.05
10.03
17.26
22.44
25.58
26.85
26.49
24.82
22.24
19.18
15.94
12.64
9.11
5.02
0.10
-5.81
-12.53
-19.71
-26.86
-33.50
-39.18
-43.54
-46.48
-47.94
-48.16
-47.42
-46.16
-44.63
-42.81
-40.32
-36.45
-30.47
-21.87
-10.70
2.41
16.28
29.55
41.11
50.19
56.53
60.20
61.39
60.37
57.42
52.97
47.61
42.06
36.97
32.68
29.19
26.13
23.06
19.67
15.95
12.16
8.72
5.92
3.75
1.88
-0.18
-2.89
-6.40
-10.48
-14.49
-17.48
-18.46
-16.69
-12.04
-5.02
3.16
11.02
17.17
20.68
21.21
19.02
14.72
8.98
2.56
-3.91
-9.85
-14.78
-18.40
-20.66
-21.77
-22.14
-22.19
-22.23
-22.30
-22.20
-21.56
-20.14
-17.78
-14.57
-10.85
-7.15
-4.10
-2.39
-2.45
-4.25
-7.24
-10.33
-12.24
-11.89
-8.90
-3.67
2.75
9.08
14.37
18.08
20.30
21.31
21.46
20.91
19.58
17.42
14.50
11.25
8.20
5.83
4.15
2.66
0.50
-3.24
-9.04
-16.74
-25.55
-34.45
-42.50
-49.25
-54.73
-59.30
-63.33
-66.96
-70.10
-72.36
-73.24
-72.23
-68.99
-63.37
-55.41
-45.37
-33.67
-20.93
-7.99
4.21
14.74
22.89
28.33
31.18
31.82
30.82
28.67
25.82
22.56
19.11
15.62
12.16
8.70
5.15
1.47
-2.25
-5.71
-8.45
-10.11
-10.57
-10.09
-9.29
-8.87
-9.35
-10.90
-13.10
-15.11
-15.86
-14.40
-10.19
-3.21
5.86
15.95
25.73
34.11
40.37
44.28
46.01
45.78
43.92
40.61
36.18
31.11
26.07
21.85
18.97
17.62
17.41
17.73
17.89
17.48
16.46
15.10
13.76
12.63
11.58
10.12
7.70
3.85
-1.48
-7.89
-14.52
-20.24
-23.90
-24.61
-22.01
-16.32
-8.37
0.71
9.71
17.60
23.73
27.75
29.69
29.75
28.30
25.71
22.52
19.29
16.40
14.18
12.70
11.78
11.16
10.55
9.73
8.73
7.58
6.32
4.93
3.27
1.14
-1.62
-5.09
-9.24
-13.80
-18.35
-22.15
-24.20
-23.59
-19.75
-12.83
-3.77
6.04
15.14
22.43
27.50
30.47
31.69
31.46
29.96
27.31
23.80
19.90
16.18
13.10
10.90
9.40
8.20
6.91
5.31
3.34
1.17
-1.03
-3.10
-5.05
-7.06
-9.48
-12.66
-16.82
-21.80
-27.00
-31.44
-33.96
-33.62
-29.99
-23.37
-14.70
-5.27
3.67
11.23
16.99
20.90
23.15
23.94
23.43
21.71
18.94
15.45
11.76
8.39
5.65
3.59
1.87
0.08
-2.08
-4.61
-7.24
-9.56
-11.27
-12.41
-13.21
-14.13
-15.60
-17.93
-21.14
-24.97
-28.88
-31.98
-33.33
-32.11
-27.98
-21.31
-13.02
-4.32
3.67
10.23
15.15
18.51
20.55
21.38
21.08
19.79
17.78
15.47
13.34
11.75
10.79
10.27
9.81
8.94
7.39
5.10
2.25
-0.88
-3.93
-6.76
-9.38
-12.02
-15.00
-18.63
-23.08
-28.11
-33.08
-36.91
-38.39
-36.65
-31.43
-23.28
-13.42
-3.27
5.93
13.42
18.89
22.32
23.72
23.22
20.95
17.34
13.02
8.81
5.39
3.22
2.33
2.45
3.16
3.91
4.42
4.56
4.46
4.29
4.19
4.16
3.96
3.28
1.72
-0.90
-4.49
-8.67
-12.78
-15.98
-17.44
-16.59
-13.19
-7.50
-0.24
7.60
14.96
21.08
25.54
28.38
29.78
30.03
29.23
27.48
24.89
21.70
18.45
15.61
13.58
12.42
11.91
11.56
10.97
9.91
8.35
6.50
4.53
2.56
0.53
-1.66
-4.26
-7.42
-11.19
-15.41
-19.55
-22.86
-24.49
-23.72
-20.39
-14.86
-7.97
-0.74
5.94
11.55
15.89
18.95
20.84
21.53
21.09
19.56
17.12
14.10
10.94
8.05
5.76
4.10
2.89
1.83
0.62
-0.85
-2.44
-3.85
-4.87
-5.48
-6.01
-6.90
-8.59
-11.27
-14.75
-18.55
-21.96
-24.27
-24.86
-23.37
-19.76
-14.33
-7.76
-0.87
5.39
10.28
13.37
14.59
14.13
12.34
9.62
6.28
2.66
-1.03
-4.54
-7.70
-10.44
-12.81
-15.01
-17.23
-19.77
-22.80
-26.47
-30.73
-35.44
-40.40
-45.39
-50.44
-55.57
-60.74
-65.53
-69.15
-70.58
-68.88
-63.82
-55.88
-46.29
-36.40
-27.19
-18.87
-11.14
-3.56
4.05
11.28
17.47
21.88
24.19
24.47
23.14
20.73
17.60
13.95
9.90
5.70
1.72
-1.53
-3.64
-4.36
-3.74
-2.14
-0.25
1.21
1.60
0.52
-2.06
-5.72
-9.60
-12.55
-13.42
-11.40
-6.29
1.45
10.75
20.30
28.93
35.87
40.87
44.03
45.62
45.87
44.97
43.05
40.35
37.17
33.82
30.57
27.51
24.59
21.75
18.91
16.10
13.45
11.10
9.13
7.51
6.08
4.63
2.89
0.62
-2.29
-5.74
-9.39
-12.62
-14.63
-14.63
-12.11
-6.96
0.31
8.74
17.18
24.47
29.85
32.93
33.77
32.53
29.52
24.90
18.94
11.97
4.43
-3.12
-10.22
-16.62
-22.46
-27.97
-33.56
-39.34
-45.24
-50.93
-56.08
-60.56
-64.55
-68.60
-73.33
-79.29
-86.61
-94.95
-103.48
-110.95
-116.08
-117.74
-115.25
-108.52
-98.06
-84.95
-70.59
-56.46
-43.80
-33.33
-25.19
-18.96
-13.94
-9.38
-4.66
0.66
6.74
13.68
21.38
29.63
38.18
46.73
55.04
63.00
70.64
78.00
85.03
91.34
96.22
98.78
98.13
93.87
86.29
76.39
65.76
56.12
48.84
44.67
43.59
45.06
48.29
52.54
57.10
61.37
64.68
66.35
65.82
62.85
57.62
50.71
42.97
35.11
27.66
20.82
14.41
8.10
1.51
-5.63
-13.34
-21.24
-28.82
-35.37
-40.50
-44.24
-47.07
-49.75
-52.99
-57.09
-61.70
-65.89
-68.33
-67.64
-62.81
-53.52
-40.28
-24.42
-7.87
7.46
19.98
28.93
34.39
36.97
37.50
36.61
34.63
31.68
27.99
23.82
19.57
15.63
12.23
9.51
7.59
6.68
6.99
8.55
10.92
13.29
14.75
14.61
12.76
9.76
6.54
4.01
2.76
2.75
3.61
4.91
6.36
7.87
9.51
11.26
12.95
14.42
15.55
16.52
17.82
19.96
23.35
28.09
34.02
40.84
48.30
56.24
64.48
72.62
80.11
86.25
90.42
92.44
92.57
91.56
90.23
89.17
88.46
87.79
86.66
84.68
81.73
77.94
73.47
68.21
61.87
54.12
44.79
34.15
22.80
11.58
1.23
-7.65
-14.82
-20.29
-24.16
-26.48
-27.18
-26.06
-22.97
-18.08
-11.87
-5.16
1.27
6.92
11.75
16.00
19.88
23.44
26.39
28.36
29.15
28.98
28.38
28.21
29.28
32.18
37.16
44.09
52.42
61.22
69.39
75.81
79.68
80.71
79.18
75.62
70.64
64.64
57.75
49.98
41.37
32.19
22.92
14.07
5.91
-1.64
-8.98
-16.49
-24.32
-32.28
-39.88
-46.63
-52.27
-56.89
-60.86
-64.49
-68.02
-71.36
-74.36
-76.79
-78.48
-79.24
-78.96
-77.51
-74.84
-71.05
-66.34
-61.01
-55.39
-49.83
-44.57
-39.90
-36.07
-33.24
-31.41
-30.29
-29.43
-28.34
-26.76
-24.79
-22.83
-21.39
-20.90
-21.48
-22.92
-24.77
-26.58
-27.97
-28.73
-28.72
-27.94
-26.54
-24.89
-23.48
-22.68
-22.60
-22.91
-22.94
-22.07
-20.05
-17.24
-14.47
-12.68
-12.45
-13.85
-16.53
-19.98
-23.84
-28.06
-32.80
-38.10
-43.74
-49.14
-53.59
-56.52
-57.65
-57.07
-55.11
-52.26
-48.92
-45.33
-41.65
-37.89
-34.05
-30.13
-26.21
-22.41
-18.94
-16.11
-14.23
-13.62
-14.42
-16.48
-19.37
-22.45
-24.98
-26.42
-26.50
-25.30
-23.15
-20.42
-17.40
-14.25
-11.09
-7.97
-4.96
-2.17
0.31
2.45
4.31
5.91
7.30
8.42
9.21
9.58
9.50
9.02
8.21
7.20
6.05
4.95
4.02
3.41
3.16
3.29
3.67
4.11
4.45
4.48
4.10
3.21
1.82
-0.13
-2.65
-5.69
-9.21
-13.01
-16.84
-20.21
-22.69
-23.84
-23.49
-21.78
-19.11
-15.88
-12.40
-8.90
-5.44
-2.11
0.94
3.58
5.68
7.27
8.45
9.35
9.94
10.16
9.89
9.09
7.93
6.60
5.45
4.66
4.36
4.40
4.58
4.61
4.29
3.57
2.55
1.49
0.70
0.42
0.74
1.58
2.69
3.77
4.60
4.98
4.85
4.13
2.86
1.11
-0.85
-2.69
-4.03
-4.61
-4.42
-3.79
-3.16
-2.91
-3.09
-3.46
-3.69
-3.59
-3.28
-3.04
-3.23
-3.91
-4.90
-5.86
-6.44
-6.50
-6.15
-5.68
-5.29
-5.13
-5.15
-5.33
-5.57
-5.88
-6.26
-6.74
-7.32
-7.86
-8.23
-8.25
-7.80
-6.97
-5.94
-5.02
-4.47
-4.45
-4.94
-5.77
-6.69
-7.41
-7.77
-7.60
-6.94
-5.92
-4.83
-3.89
-3.31
-3.05
-2.85
-2.54
-1.98
-1.23
-0.43
0.23
0.70
1.01
1.24
1.46
1.69
1.87
2.01
2.18
2.49
2.93
3.44
3.82
3.90
3.48
2.57
1.27
-0.21
-1.63
-2.86
-3.88
-4.73
-5.42
-5.87
-5.98
-5.69
-5.12
-4.44
-3.89
-3.70
-3.93
-4.53
-5.36
-6.24
-7.02
-7.58
-7.84
-7.73
-7.28
-6.60
-5.88
-5.29
-4.90
-4.75
-4.73
-4.80
-4.86
-4.79
-4.50
-3.98
-3.22
-2.31
-1.40
-0.65
-0.21
-0.11
-0.25
-0.47
-0.64
-0.73
-0.84
-1.12
-1.65
-2.26
-2.61
-2.32
-1.15
0.82
3.17
5.31
6.75
7.25
6.88
5.96
4.83
3.76
2.92
2.37
2.19
2.43
3.10
4.08
5.22
6.20
6.85
7.05
6.78
6.13
5.23
4.18
3.12
2.21
1.51
1.06
0.80
0.61
0.42
0.23
0.09
0.04
0.09
0.08
-0.12
-0.62
-1.40
-2.26
-2.99
-3.41
-3.52
-3.43
-3.33
-3.33
-3.36
-3.31
-2.99
-2.40
-1.56
-0.58
0.47
1.61
2.99
4.69
6.66
8.66
10.35
11.45
11.88
11.78
11.38
10.89
10.33
9.56
8.38
6.65
4.38
1.78
-0.79
-2.95
-4.47
-5.27
-5.51
-5.44
-5.35
-5.34
-5.41
-5.37
-4.99
-4.22
-3.24
-2.36
-1.92
-2.04
-2.61
-3.21
-3.42
-2.92
-1.73
-0.14
1.41
2.60
3.36
3.79
4.16
4.61
5.09
5.37
5.23
4.53
3.35
2.00
0.67
-0.51
-1.58
-2.65
-3.82
-4.93
-5.70
-5.82
-5.11
-3.70
-1.99
-0.41
0.68
1.22
1.40
1.47
1.67
2.05
2.52
2.92
3.12
3.09
2.88
2.55
2.12
1.61
1.00
0.30
-0.50
-1.36
-2.29
-3.32
-4.45
-5.70
-7.05
-8.34
-9.40
-10.06
-10.22
-9.94
-9.45
-9.05
-9.03
-9.54
-10.51
-11.70
-12.84
-13.85
-14.83
-16.11
-18.02
-20.79
-24.38
-28.57
-32.94
-37.15
-41.03
-44.65
-48.35
-52.53
-57.60
-63.75
-70.87
-78.57
-86.35
-93.87
-101.21
-108.89
-117.64
-128.13
-140.56
-154.47
-169.10
-183.62
-197.60
-211.18
-224.93
-239.58
-255.82
-274.32
-295.51
-319.41
-344.92
-369.45
-389.02
-399.28
-397.04
-381.69
-355.55
-322.95
-288.69
-256.30
-227.42
-202.07
-179.58
-159.42
-141.57
-126.08
-112.65
-100.49
-88.54
-75.97
-62.63
-48.96
-35.85
-24.15
-14.20
-5.83
1.56
8.65
15.93
23.43
30.80
37.61
43.56
48.74
53.46
58.22
63.39
69.06
74.95
80.73
86.13
91.17
96.22
101.72
108.07
115.32
123.19
131.21
139.02
146.63
154.45
163.24
173.66
186.03
200.08
215.11
230.30
244.98
258.96
272.50
286.24
301.01
317.86
337.64
360.62
385.79
410.37
430.17
440.74
438.99
424.33
399.05
367.34
333.65
301.31
271.90
245.58
221.93
200.79
182.22
166.34
152.82
140.77
129.15
117.20
104.88
92.71
81.62
72.24
64.77
58.74
53.42
48.06
42.29
36.19
30.14
24.65
20.12
16.69
14.22
12.35
10.55
8.38
5.60
2.28
-1.15
-4.11
-6.07
-6.81
-6.43
-5.27
-3.85
-2.55
-1.55
-0.88
-0.40
0.03
0.46
0.87
1.12
1.01
0.33
-0.98
-2.82
-5.00
-7.26
-9.43
-11.42
-13.22
-14.78
-15.94
-16.50
-16.33
-15.48
-14.18
-12.76
-11.45
-10.29
-9.16
-7.86
-6.31
-4.59
-2.91
-1.52
-0.61
-0.25
-0.46
-1.21
-2.39
-3.79
-5.23
-6.46
-7.38
-8.02
-8.42
-8.67
-8.74
-8.56
-8.09
-7.42
-6.76
-6.39
-6.59
-7.37
-8.56
-9.86
-10.93
-11.62
-11.96
-12.04
-11.99
-11.97
-12.00
-12.03
-12.08
-12.20
-12.50
-13.16
-14.20
-15.48
-16.77
-17.61
-17.64
-16.59
-14.42
-11.33
-7.77
-4.16
-0.91
1.71
3.57
4.65
4.97
4.66
3.86
2.75
1.61
0.68
0.12
-0.09
-0.18
-0.43
-1.12
-2.30
-3.89
-5.56
-7.03
-8.11
-8.79
-9.14
-9.31
-9.35
-9.30
-9.13
-8.79
-8.35
-7.88
-7.46
-7.19
-7.13
-7.32
-7.71
-8.27
-8.88
-9.40
-9.67
-9.58
-9.11
-8.28
-7.20
-5.94
-4.61
-3.32
-2.18
-1.34
-0.89
-0.94
-1.51
-2.54
-3.92
-5.47
-7.07
-8.55
-9.85
-10.84
-11.46
-11.61
-11.27
-10.48
-9.40
-8.25
-7.22
-6.46
-5.92
-5.55
-5.30
-5.20
-5.33
-5.75
-6.39
-7.00
-7.33
-7.15
-6.40
-5.22
-3.82
-2.39
-1.00
0.31
1.53
2.58
3.34
3.66
3.48
2.84
1.92
0.94
0.09
-0.59
-1.15
-1.76
-2.55
-3.52
-4.51
-5.26
-5.58
-5.40
-4.98
-4.64
-4.68
-5.20
-6.09
-7.11
-8.05
-8.82
-9.40
-9.76
-9.72
-9.07
-7.61
-5.41
-2.78
-0.21
1.91
3.38
4.21
4.61
4.76
4.83
4.91
5.02
5.11
5.00
4.40
3.04
0.77
-2.32
-5.85
-9.24
-11.95
-13.62
-14.15
-13.71
-12.58
-11.05
-9.36
-7.68
-6.17
-5.06
-4.52
-4.58
-5.09
-5.71
-6.03
-5.84
-5.20
-4.46
-4.04
-4.19
-4.77
-5.46
-5.95
-6.09
-6.00
-5.94
-6.09
-6.44
-6.80
-6.95
-6.79
-6.37
-5.84
-5.40
-5.09
-4.87
-4.62
-4.21
-3.57
-2.77
-1.96
-1.37
-1.22
-1.48
-2.03
-2.57
-2.81
-2.64
-2.11
-1.53
-1.11
-1.03
-1.23
-1.54
-1.84
-2.04
-2.18
-2.32
-2.49
-2.63
-2.69
-2.62
-2.40
-2.06
-1.55
-0.87
-0.01
1.01
2.01
2.75
3.00
2.67
1.82
0.67
-0.58
-1.79
-2.85
-3.81
-4.71
-5.64
-6.59
-7.52
-8.32
-8.87
-9.10
-8.98
-8.64
-8.23
-7.90
-7.68
-7.49
-7.22
-6.78
-6.16
-5.42
-4.69
-4.08
-3.68
-3.54
-3.63
-3.91
-4.23
-4.46
-4.50
-4.31
-3.92
-3.40
-2.81
-2.19
-1.62
-1.20
-1.04
-1.27
-1.86
-2.72
-3.67
-4.54
-5.20
-5.66
-5.95
-6.14
-6.25
-6.24
-6.03
-5.54
-4.67
-3.38
-1.70
0.17
1.96
3.37
4.09
4.01
3.08
1.45
-0.70
-3.12
-5.58
-7.84
-9.72
-11.06
-11.66
-11.44
-10.45
-8.89
-7.04
-5.20
-3.56
-2.12
-0.74
0.78
2.41
3.94
5.06
5.48
5.15
4.29
3.29
2.51
2.19
2.31
2.73
3.30
3.92
4.56
5.23
5.86
6.26
6.30
5.87
5.09
4.20
3.52
3.27
3.49
4.09
4.87
5.63
6.17
6.08
4.88
2.17
-2.18
-7.72
-13.49
-18.34
-21.38
-22.22
-21.17
-18.85
-15.97
-12.92
-9.86
-6.83
-4.00
-1.67
-0.16
0.38
0.07
-0.77
-1.76
-2.54
-2.97
-3.14
-3.20
-3.25
-3.33
-3.40
-3.42
-3.39
-3.33
-3.31
-3.39
-3.59
-3.92
-4.34
-4.78
-5.17
-5.43
-5.41
-5.01
-4.19
-3.12
-2.09
-1.44
-1.38
-1.82
-2.48
-3.02
-3.17
-2.94
-2.57
-2.37
-2.55
-3.10
-3.77
-4.34
-4.65
-4.73
-4.75
-4.88
-5.21
-5.61
-5.94
-6.04
-5.83
-5.34
-4.72
-4.13
-3.67
-3.34
-3.04
-2.64
-2.08
-1.39
-0.72
-0.24
0.01
0.12
0.31
0.74
1.45
2.24
2.86
3.09
2.86
2.30
1.63
1.01
0.44
-0.17
-1.04
-2.35
-4.13
-6.20
-8.17
-9.63
-10.28
-10.07
-9.26
-8.21
-7.33
-6.76
-6.40
-5.98
-5.22
-4.06
-2.58
-0.97
0.56
1.89
2.97
3.79
4.31
4.52
4.41
4.11
3.76
3.61
3.77
4.31
5.10
5.92
6.62
7.06
7.35
7.56
7.83
8.14
8.38
8.36
7.88
6.86
5.30
3.37
1.24
-0.84
-2.64
-4.00
-4.84
-5.20
-5.24
-5.12
-4.91
-4.61
-4.18
-3.66
-3.27
-3.19
-3.53
-4.15
-4.81
-5.15
-4.96
-4.29
-3.38
-2.55
-1.96
-1.64
-1.40
-1.05
-0.48
0.28
1.04
1.57
1.69
1.34
0.58
-0.41
-1.43
-2.37
-3.27
-4.21
-5.18
-6.09
-6.73
-6.84
-6.30
-5.16
-3.71
-2.31
-1.24
-0.55
-0.17
0.10
0.39
0.66
0.82
0.75
0.41
-0.10
-0.63
-1.06
-1.32
-1.38
-1.32
-1.13
-0.85
-0.53
-0.24
-0.06
0.00
0.04
0.17
0.42
0.72
0.95
0.98
0.81
0.54
0.29
0.12
0.05
-0.03
-0.19
-0.33
-0.34
-0.12
0.30
0.78
1.17
1.32
1.14
0.62
-0.23
-1.39
-2.72
-3.95
-4.77
-4.86
-4.19
-2.97
-1.62
-0.57
-0.10
-0.23
-0.82
-1.67
-2.66
-3.64
-4.50
-5.09
-5.27
-5.05
-4.52
-3.94
-3.54
-3.41
-3.45
-3.44
-3.22
-2.81
-2.33
-1.91
-1.58
-1.32
-0.99
-0.57
-0.14
0.25
0.47
0.57
0.64
0.77
0.94
1.08
1.08
0.90
0.56
0.16
-0.24
-0.57
-0.81
-0.93
-0.84
-0.46
0.20
1.04
1.92
2.57
2.81
2.51
1.71
0.60
-0.54
-1.44
-1.87
-1.75
-1.18
-0.38
0.31
0.62
0.42
-0.32
-1.42
-2.59
-3.53
-4.05
-4.08
-3.67
-2.92
-1.89
-0.66
0.69
1.96
2.97
3.43
3.19
2.32
1.03
-0.32
-1.51
-2.37
-2.92
-3.25
-3.39
-3.29
-2.88
-2.18
-1.29
-0.46
0.12
0.38
0.36
0.23
0.16
0.15
0.11
-0.04
-0.37
-0.88
-1.52
-2.21
-2.83
-3.31
-3.60
-3.64
-3.33
-2.68
-1.73
-0.64
0.35
1.10
1.53
1.65
1.63
1.64
1.74
1.97
2.30
2.60
2.89
3.13
3.25
3.12
2.55
1.49
0.04
-1.53
-2.91
-3.92
-4.54
-4.88
-5.01
-4.95
-4.59
-3.89
-2.97
-2.06
-1.42
-1.16
-1.26
-1.47
-1.62
-1.57
-1.34
-0.99
-0.60
-0.19
0.16
0.40
0.52
0.44
0.09
-0.55
-1.43
-2.39
-3.25
-3.75
-3.75
-3.25
-2.44
-1.53
-0.72
-0.08
0.53
1.23
2.10
3.08
4.02
4.72
5.07
5.02
4.57
3.81
2.83
1.80
0.92
0.41
0.43
1.00
1.88
2.74
3.26
3.24
2.63
1.58
0.26
-1.05
-2.12
-2.81
-3.12
-3.17
-3.21
-3.43
-3.89
-4.40
-4.68
-4.45
-3.67
-2.52
-1.31
-0.29
0.47
1.01
1.42
1.71
1.79
1.57
1.07
0.51
0.18
0.31
0.90
1.67
2.28
2.47
2.16
1.53
0.79
0.16
-0.30
-0.54
-0.63
-0.49
-0.10
0.56
1.38
2.16
2.70
2.87
2.68
2.22
1.63
0.99
0.34
-0.35
-1.12
-2.00
-2.97
-3.88
-4.62
-5.11
-5.35
-5.51
-5.71
-6.08
-6.48
-6.70
-6.48
-5.79
-4.81
-3.91
-3.47
-3.58
-4.13
-4.80
-5.27
-5.38
-5.17
-4.80
-4.42
-4.11
-3.81
-3.49
-3.04
-2.49
-1.94
-1.53
-1.37
-1.45
-1.64
-1.66
-1.31
-0.52
0.59
1.72
2.60
3.04
3.10
2.96
2.82
2.73
2.61
2.32
1.86
1.39
1.15
1.33
1.89
2.56
2.94
2.80
2.16
1.31
0.63
0.33
0.38
0.55
0.59
0.44
0.18
0.02
0.09
0.34
0.63
0.72
0.52
0.04
-0.57
-1.13
-1.44
-1.36
-0.86
0.07
1.30
2.65
3.95
5.03
5.73
5.99
5.81
5.29
4.64
4.03
3.51
3.05
2.42
1.44
0.11
-1.39
-2.78
-3.73
-4.13
-4.04
-3.60
-3.00
-2.31
-1.52
-0.62
0.31
1.14
1.75
2.06
2.10
1.88
1.45
0.77
-0.14
-1.33
-2.71
-4.16
-5.60
-6.87
-7.95
-8.75
-9.14
-9.01
-8.33
-7.20
-5.88
-4.71
-3.88
-3.43
-3.18
-2.82
-2.21
-1.33
-0.34
0.52
1.13
1.52
1.83
2.19
2.67
3.21
3.69
4.04
4.14
3.92
3.38
2.48
1.25
-0.17
-1.65
-2.97
-3.91
-4.30
-4.10
-3.37
-2.33
-1.21
-0.19
0.70
1.54
2.42
3.35
4.23
4.80
4.87
4.33
