1543444443.00
64.000000
-0.00
-0.00
-0.00
-0.00
-0.00
-0.00
-0.00
-0.00
-0.00
-0.00
0.00
0.01
0.01
-0.00
-0.03
-0.05
-0.05
0.00
0.13
0.36
0.66
1.01
1.37
1.72
2.06
2.40
2.79
3.24
3.80
4.42
5.06
5.66
6.20
6.68
7.15
7.68
8.31
9.14
10.09
11.04
11.88
12.56
13.14
13.76
14.65
15.96
17.91
20.32
22.90
25.38
27.58
29.57
31.68
34.32
37.81
42.54
48.15
54.10
59.83
64.97
69.58
74.14
79.34
85.71
93.76
103.00
112.62
121.73
129.77
136.75
143.30
150.75
157.77
166.64
177.95
191.79
206.97
220.57
228.25
225.36
208.53
176.87
132.76
80.05
23.07
-34.94
-92.44
-149.16
-205.23
-260.37
-313.74
-363.87
-409.83
-450.91
-486.50
-515.74
-537.23
-549.22
-549.96
-538.36
-514.20
-478.66
-433.85
-382.40
-326.95
-269.75
-212.51
-156.51
-102.77
-52.16
-5.67
35.84
71.71
101.66
125.82
144.72
159.06
169.54
176.80
181.23
183.11
182.68
180.20
176.03
170.56
164.21
157.31
150.11
142.76
135.32
127.84
120.35
112.91
105.60
98.49
91.64
85.08
78.82
72.89
67.28
62.01
57.08
52.50
48.27
44.40
40.89
37.74
34.92
32.44
30.28
28.42
26.86
25.60
24.65
24.01
23.69
23.67
23.90
24.31
24.80
25.27
25.59
25.62
25.21
24.25
22.66
20.45
17.73
14.66
11.55
8.71
6.53
5.32
5.37
6.76
9.41
13.27
17.80
22.38
26.41
29.34
30.59
30.01
27.60
23.50
17.99
11.47
4.42
-2.64
-9.25
-15.00
-19.47
-22.42
-23.79
-23.76
-22.77
-21.36
-20.12
-19.56
-20.02
-21.49
-23.91
-27.17
-31.18
-35.94
-41.48
-47.79
-54.77
-62.04
-68.78
-74.06
-77.15
-77.63
-75.50
-71.11
-64.92
-57.34
-48.31
-36.97
-22.32
-3.95
17.62
40.72
62.79
81.02
93.69
99.13
98.34
93.58
86.61
78.16
67.39
52.32
30.74
1.33
-34.78
-73.81
-110.82
-141.86
-165.21
-182.08
-195.69
-210.42
-230.22
-256.92
-289.66
-321.73
-345.77
-353.42
-337.01
-291.81
-215.64
-117.01
-13.77
73.11
128.56
149.77
147.21
137.58
137.40
151.16
173.14
193.44
204.07
202.98
194.30
187.12
188.34
204.07
236.61
284.23
341.74
401.76
455.98
496.09
516.67
514.73
491.18
450.01
396.77
336.86
274.34
211.29
148.23
86.97
27.95
-29.09
-84.67
-139.03
-190.70
-236.37
-273.06
-300.86
-322.10
-344.42
-377.31
-427.87
-492.45
-561.42
-622.28
-665.02
-699.85
-728.92
-748.56
-751.63
-723.34
-658.24
-560.66
-442.42
-318.14
-199.53
-89.38
14.47
116.93
222.26
330.28
437.05
535.97
619.68
682.26
722.68
741.94
743.43
731.96
711.31
684.48
652.74
615.72
571.82
519.98
457.77
383.98
300.55
212.81
129.48
58.80
4.24
-37.70
-74.51
-116.57
-170.25
-234.07
-304.50
-375.01
-440.07
-496.17
-540.99
-566.09
-565.70
-537.39
-484.05
-414.39
-339.78
-271.09
-215.79
-176.66
-152.48
-140.55
-136.90
-137.10
-137.09
-133.40
-124.46
-111.10
-96.01
-82.24
-72.51
-67.15
-63.94
-59.58
-50.98
-36.87
-18.24
2.34
22.00
38.36
50.52
59.39
66.80
74.79
84.43
95.22
105.04
110.76
108.91
97.06
75.85
49.77
27.28
19.19
35.72
83.26
162.14
265.86
377.89
476.37
539.62
553.91
519.10
447.79
358.54
268.22
187.42
120.02
66.18
24.87
-4.76
-23.51
-33.33
-38.28
-43.39
-52.75
-68.00
-87.40
-106.65
-122.07
-131.76
-136.70
-140.83
-148.90
-163.42
-182.54
-199.49
-204.85
-190.22
-151.74
-92.06
-20.38
50.45
107.95
143.28
153.06
139.14
107.21
62.83
14.36
-29.54
-61.70
-78.11
-79.10
-69.03
-54.68
-42.50
-36.24
-35.97
-39.92
-46.21
-53.95
-62.77
-71.53
-77.42
-76.75
-66.98
-48.54
-25.59
-3.86
12.40
22.49
28.67
33.90
39.33
43.80
45.45
43.52
39.25
35.11
32.80
32.02
30.96
27.97
23.08
18.42
16.92
20.50
28.99
40.26
51.29
59.59
63.97
64.64
62.87
60.33
58.42
57.69
57.47
56.02
51.12
41.37
27.23
11.03
-4.02
-15.46
-22.51
-25.91
-26.62
-25.01
-21.08
-15.62
-10.90
-9.77
-13.49
-19.63
-22.34
-15.20
4.61
33.59
62.74
81.66
83.73
69.07
43.91
16.77
-5.74
-21.13
-30.50
-36.22
-39.86
-41.60
-40.96
-38.02
-33.91
-30.47
-29.42
-31.51
-36.42
-43.13
-50.49
-57.64
-64.15
-69.96
-75.25
-80.44
-86.03
-92.32
-99.03
-105.03
-108.55
-107.71
-101.42
-89.94
-74.85
-58.44
-42.77
-29.03
-17.45
-7.63
0.84
7.99
13.45
16.75
17.70
16.60
14.10
10.98
7.82
4.97
2.62
0.96
0.36
1.22
3.82
8.10
13.57
19.42
24.81
29.20
32.45
34.71
36.09
36.40
35.14
31.69
25.82
17.96
9.23
1.06
-5.16
-8.57
-8.93
-6.47
-1.71
4.74
12.16
19.82
26.92
32.91
37.55
41.03
43.82
46.32
48.65
50.56
51.63
51.56
50.31
48.17
45.56
42.75
39.79
36.58
33.01
29.08
24.91
20.65
16.34
11.90
7.19
2.21
-2.89
-7.82
-12.29
-16.25
-20.01
-24.24
-29.83
-37.55
-47.66
-59.43
-70.96
-79.35
-81.41
-74.63
-58.15
-33.32
-3.38
27.26
54.16
73.71
83.70
83.42
73.56
56.05
33.90
10.75
-9.85
-25.34
-34.72
-38.62
-38.72
-36.92
-34.58
-32.26
-30.00
-27.66
-25.27
-23.00
-20.99
-19.15
-17.13
-14.54
-11.21
-7.47
-4.12
-2.19
-2.55
-5.41
-10.11
-15.22
-19.15
-20.86
-20.39
-18.83
-17.68
-17.93
-19.54
-21.44
-22.26
-21.32
-19.17
-17.48
-18.22
-22.68
-30.77
-41.10
-51.63
-60.46
-66.53
-69.76
-70.78
-70.33
-68.92
-66.58
-63.07
-58.20
-52.14
-45.60
-39.59
-35.15
-32.96
-33.10
-35.12
-38.27
-41.74
-44.96
-47.59
-49.35
-49.91
-48.84
-45.68
-40.12
-32.18
-22.29
-11.19
0.21
11.06
20.72
28.78
35.05
39.46
41.89
42.34
40.94
38.16
34.78
31.69
29.53
28.52
28.25
28.05
27.39
26.22
25.00
24.42
24.89
26.26
27.86
28.83
28.54
26.85
24.03
20.51
16.71
13.00
9.93
8.39
9.47
14.03
22.16
32.85
44.15
53.75
59.84
61.65
59.54
54.57
47.94
40.64
33.37
26.76
21.45
18.08
17.14
18.71
22.37
27.39
33.01
38.64
44.06
49.12
53.85
58.45
63.31
68.85
75.24
82.16
88.70
93.82
96.46
96.77
96.51
98.54
105.66
118.94
136.83
155.35
169.66
174.90
168.97
153.16
131.73
110.02
92.24
79.74
70.67
60.74
42.59
9.08
-44.60
-118.94
-209.07
-305.19
-394.57
-464.62
-506.48
-520.36
-514.23
-501.11
-493.91
-500.50
-521.31
-550.42
-578.78
-583.73
-549.19
-469.22
-351.26
-212.84
-73.07
54.56
163.55
251.98
319.86
366.04
390.61
395.89
386.91
370.43
352.82
338.04
327.07
318.36
307.91
292.26
269.79
241.90
210.79
179.52
150.51
125.00
102.76
82.07
61.35
39.68
17.28
-4.72
-24.79
-42.05
-56.77
-70.45
-84.67
-99.69
-113.94
-124.55
-128.75
-125.31
-115.51
-99.00
-78.38
-56.05
-33.05
-9.25
15.40
39.82
61.63
78.15
87.87
90.89
89.50
86.65
84.21
82.18
79.03
72.90
62.89
49.59
34.30
18.79
4.50
-7.79
-17.74
-25.12
-29.67
-31.40
-31.15
-30.90
-33.05
-39.44
-50.58
-65.28
-80.99
-94.73
-103.95
-107.21
-104.37
-96.02
-83.01
-66.15
-46.36
-24.82
-3.10
17.24
35.06
50.20
63.49
76.20
89.02
101.26
110.59
113.55
106.92
89.17
61.47
27.61
-7.17
-37.79
-60.91
-75.44
-82.32
-83.44
-80.66
-75.41
-68.75
-61.67
-55.15
-49.78
-45.32
-40.78
-34.99
-27.53
-19.28
-12.07
-7.77
-7.29
-10.41
-16.32
-24.57
-35.30
-48.89
-64.96
-81.69
-96.09
-105.12
-106.89
-101.45
-90.49
-76.45
-61.64
-47.69
-35.73
-26.69
-21.45
-20.68
-24.50
-32.34
-43.17
-55.81
-69.39
-83.23
-96.49
-107.72
-114.79
-115.44
-108.18
-93.17
-72.47
-49.33
-26.81
-6.50
11.93
30.08
49.40
69.74
89.06
104.15
112.05
111.27
102.14
86.08
64.72
39.46
12.17
-13.79
-33.19
-40.09
-30.34
-4.25
32.39
69.77
97.54
108.77
102.27
82.32
56.22
31.11
11.57
-0.87
-6.74
-7.15
-2.80
6.01
18.88
34.75
51.88
68.15
81.78
91.83
98.52
102.99
106.72
110.91
116.01
121.47
126.13
128.79
128.69
125.64
119.69
110.84
98.91
83.98
67.01
50.39
37.61
32.11
35.83
48.27
66.60
86.80
105.24
119.88
130.51
138.04
143.55
147.43
149.40
148.97
146.01
140.73
133.29
123.17
108.83
88.00
58.52
19.39
-28.61
-82.67
-138.49
-191.37
-237.47
-274.61
-302.62
-323.21
-339.36
-354.23
-369.65
-385.21
-397.52
-401.18
-390.72
-363.05
-319.13
-264.27
-206.73
-155.31
-116.82
-94.48
-87.68
-92.96
-105.59
-121.03
-135.89
-148.18
-157.18
-162.89
-165.57
-165.23
-161.86
-155.62
-147.14
-137.38
-127.29
-117.24
-106.74
-94.67
-79.92
-62.11
-41.71
-20.20
0.54
18.87
33.98
46.08
56.36
66.46
77.79
91.24
107.04
124.99
144.56
164.82
184.26
200.81
212.46
218.29
219.33
218.53
219.74
225.99
238.01
254.01
270.76
285.15
295.30
300.63
301.27
297.19
288.18
274.03
255.02
231.93
205.80
177.63
148.55
120.18
94.85
75.13
62.64
57.07
56.00
55.89
53.65
47.71
38.25
26.29
12.38
-4.10
-24.61
-50.55
-81.73
-115.63
-147.46
-171.86
-185.10
-185.95
-175.73
-157.77
-136.07
-114.11
-94.18
-77.27
-63.59
-53.03
-44.43
-35.31
-22.86
-5.49
15.81
36.98
52.34
56.02
43.09
12.71
-30.52
-77.89
-118.43
-141.76
-141.34
-115.12
-67.75
-11.65
40.34
80.08
104.58
115.83
118.61
117.69
119.14
126.43
134.78
140.10
142.39
142.20
140.43
138.10
136.27
141.29
158.99
184.08
212.07
243.12
276.29
309.79
341.90
372.17
408.63
459.76
519.47
581.14
642.29
698.09
743.54
775.60
752.41
647.71
524.66
419.58
322.87
231.21
141.08
49.98
-42.70
-135.23
-217.22
-278.47
-323.79
-358.83
-384.91
-405.41
-423.57
-440.57
-454.75
-457.93
-443.35
-417.85
-389.58
-361.71
-335.40
-308.42
-276.07
-234.15
-179.12
-113.09
-49.21
-0.77
25.50
28.05
10.04
-22.98
-65.71
-112.92
-159.84
-203.40
-237.40
-252.44
-241.08
-201.78
-140.51
-69.19
-0.84
54.65
92.09
112.20
119.34
117.19
106.67
86.26
54.39
12.17
-35.26
-80.15
-115.11
-136.41
-145.57
-148.03
-149.96
-155.01
-162.81
-169.75
-171.55
-165.81
-153.13
-136.95
-122.26
-114.47
-118.22
-135.86
-165.99
-202.60
-235.60
-253.39
-246.85
-212.70
-155.11
-84.31
-13.25
46.33
86.59
104.65
102.18
84.39
58.78
33.47
15.00
6.13
4.79
4.91
-0.69
-16.76
-43.42
-75.97
-107.26
-130.90
-143.51
-145.13
-137.94
-124.74
-108.08
-90.34
-73.77
-59.99
-49.11
-38.90
-25.46
-4.97
24.10
59.56
95.81
125.80
143.70
146.98
137.18
118.94
98.19
80.13
68.02
63.06
65.18
73.96
88.99
109.43
133.08
156.05
173.49
181.38
178.34
166.34
149.72
133.05
119.11
107.98
97.74
86.19
72.49
57.87
45.13
37.24
35.86
40.50
48.65
56.78
61.81
62.28
58.56
52.20
44.88
37.57
30.35
22.86
14.99
7.16
0.19
-5.09
-8.19
-9.20
-8.63
-7.29
-6.06
-5.73
-6.70
-8.86
-11.54
-13.73
-14.52
-13.54
-11.26
-8.87
-7.87
-9.45
-14.05
-21.10
-29.15
-36.34
-40.87
-41.49
-37.76
-30.28
-20.67
-11.43
-5.30
-4.21
-8.25
-15.13
-21.03
-22.36
-17.68
-8.55
1.08
6.82
5.79
-2.52
-16.48
-33.59
-51.42
-67.99
-81.69
-91.14
-95.41
-94.45
-89.27
-81.53
-72.94
-64.72
-57.58
-52.09
-48.99
-48.91
-51.91
-57.13
-62.86
-67.31
-69.22
-68.30
-65.05
-60.13
-53.84
-45.99
-36.30
-24.86
-12.58
-1.07
7.84
12.93
14.03
12.02
8.30
3.99
-0.67
-6.26
-13.55
-22.72
-32.84
-42.21
-49.18
-52.94
-53.79
-52.77
-51.19
-50.26
-51.01
-54.52
-61.83
-73.61
-89.69
-108.65
-127.90
-144.58
-156.72
-164.14
-168.48
-171.87
-175.19
-176.79
-172.70
-158.23
-130.26
-88.81
-36.93
20.64
79.44
136.06
188.20
233.94
271.66
300.79
322.44
339.18
353.43
365.72
374.06
375.30
367.52
351.61
331.00
309.49
288.78
267.63
243.17
213.29
178.53
142.16
108.40
80.16
57.77
39.15
21.07
0.70
-23.74
-53.36
-89.35
-133.39
-186.72
-248.67
-315.16
-378.59
-429.71
-460.79
-468.50
-455.11
-427.27
-393.06
-358.93
-328.05
-300.54
-274.83
-249.19
-222.32
-193.16
-160.25
-121.64
-75.58
-21.67
38.17
99.61
156.56
202.97
234.67
250.69
253.37
247.14
236.56
224.37
210.80
194.38
173.98
150.71
128.44
112.41
106.68
111.73
123.86
136.73
144.28
143.48
135.29
123.57
112.70
105.47
102.18
101.00
99.11
93.73
82.75
65.38
42.60
17.24
-6.33
-23.84
-32.91
-34.52
-32.92
-34.45
-45.22
-68.87
-105.08
-148.86
-191.23
-220.75
-226.26
-200.41
-142.88
-61.85
27.31
105.98
157.76
173.47
153.61
107.90
51.88
2.25
-27.46
-29.44
-2.14
50.75
121.51
199.72
273.43
330.51
361.03
359.82
328.14
273.10
205.38
135.11
68.57
7.31
-50.44
-107.05
-163.30
-217.73
-267.16
-307.59
-335.26
-347.57
-344.12
-327.31
-302.01
-273.52
-245.62
-219.26
-193.11
-165.74
-137.96
-113.20
-95.84
-88.11
-87.95
-89.36
-84.99
-69.85
-43.42
-9.74
24.81
53.83
73.05
81.16
79.31
70.20
56.76
41.12
24.22
5.98
-13.83
-34.45
-53.20
-65.81
-67.91
-57.38
-36.21
-10.53
11.34
22.20
19.01
4.06
-16.63
-36.42
-51.36
-61.51
-69.87
-79.70
-91.93
-104.36
-112.84
-113.74
-105.66
-90.12
-70.48
-50.30
-32.01
-16.41
-3.29
7.63
16.02
20.99
21.57
17.37
8.93
-2.51
-15.49
-28.70
-41.16
-52.14
-60.94
-67.18
-70.99
-73.27
-75.46
-78.89
-84.06
-90.17
-95.39
-97.67
-95.68
-89.23
-79.16
-66.90
-54.18
-43.09
-36.02
-35.15
-41.40
-53.18
-66.22
-74.48
-72.44
-57.39
-30.43
4.26
41.48
77.24
109.80
139.33
166.85
193.37
219.75
246.96
276.12
307.97
341.85
375.26
404.40
425.71
437.60
441.36
440.47
438.66
437.74
436.44
430.92
416.63
390.67
353.06
306.79
256.39
205.84
157.31
110.77
64.70
17.37
-31.86
-82.12
-131.07
-175.57
-212.42
-239.03
-253.92
-257.23
-250.98
-238.94
-225.71
-215.34
-210.01
-209.37
-211.12
-212.47
-211.44
-207.48
-200.98
-192.38
-181.66
-168.56
-153.42
-137.66
-123.50
-112.83
-106.08
-101.92
-98.09
-92.71
-85.34
-77.06
-69.42
-63.43
-58.89
-54.60
-49.02
-41.11
-30.68
-18.38
-5.42
6.89
17.38
25.29
30.36
32.86
33.46
32.99
32.19
31.41
30.59
29.46
27.91
26.20
25.01
25.09
27.01
30.63
34.68
36.84
33.84
22.35
-0.16
-34.28
-78.13
-127.51
-176.95
-221.26
-256.67
-281.19
-293.99
-294.34
-280.76
-251.33
-204.81
-142.12
-67.45
11.96
87.48
151.49
199.55
231.16
249.23
258.29
262.59
264.57
264.28
259.62
247.30
224.14
188.50
141.78
89.12
38.81
-0.03
-20.47
-20.25
-2.41
26.30
58.20
87.41
110.76
126.92
134.49
131.23
115.02
86.16
49.37
13.21
-12.63
-21.45
-12.10
10.18
36.72
59.52
74.45
81.34
81.17
74.09
58.74
34.80
4.22
-27.02
-50.10
-56.29
-41.53
-10.31
26.00
53.43
62.57
50.03
19.54
-20.69
-60.80
-93.01
-114.67
-126.82
-132.24
-131.72
-126.49
-118.09
-109.01
-101.26
-88.39
-65.00
-27.83
10.38
43.74
69.80
92.42
112.89
131.55
147.78
159.27
164.05
161.61
155.38
149.16
146.38
148.60
156.11
167.57
179.40
187.56
188.76
182.87
170.64
153.46
132.12
107.35
79.20
46.58
8.29
-36.40
-86.72
-142.32
-203.30
-269.79
-339.79
-408.35
-468.06
-510.74
-530.56
-525.46
-498.22
-454.15
-398.58
-335.15
-266.95
-198.84
-138.48
-94.80
-74.45
-79.01
-103.94
-140.31
-177.86
-207.93
-224.84
-226.06
-211.85
-184.67
-148.63
-108.32
-67.35
-27.12
13.17
54.86
97.84
139.43
175.29
201.21
214.97
216.83
208.81
194.36
177.83
164.36
158.69
163.37
176.57
191.58
198.39
187.68
154.92
102.57
39.15
-24.30
-78.39
-118.01
-142.52
-154.12
-155.87
-150.52
-140.53
-128.49
-117.32
-109.86
-108.18
-112.92
-123.28
-137.51
-153.63
-169.96
-185.21
-198.14
-207.29
-210.81
-206.78
-193.83
-171.72
-141.73
-106.44
-69.15
-33.06
-0.45
27.74
52.12
74.60
98.10
125.97
160.92
203.66
251.55
298.33
335.45
354.82
351.96
328.15
290.31
248.57
212.87
189.87
181.54
185.74
198.05
213.79
229.57
243.64
255.62
265.64
273.39
277.51
275.51
264.55
242.76
210.13
168.54
121.00
70.63
20.21
-27.58
-69.82
-103.57
-127.10
-141.42
-151.20
-164.05
-187.99
-227.98
-283.10
-345.91
-404.53
-446.65
-463.79
-454.09
-422.33
-377.56
-329.41
-284.85
-246.68
-213.97
-183.82
-152.89
-118.32
-78.04
-31.35
19.90
70.30
111.01
132.26
127.18
95.54
44.87
-11.68
-60.09
-90.31
-98.79
-87.97
-63.72
-32.62
-0.54
27.34
46.14
51.70
42.08
19.10
-11.54
-42.25
-66.50
-81.27
-87.69
-89.72
-91.72
-96.52
-104.59
-114.34
-123.05
-127.70
-125.69
-115.37
-96.41
-69.96
-38.37
-4.42
29.61
62.47
94.04
124.70
154.90
185.07
215.78
247.58
280.64
314.15
346.28
374.59
396.79
411.43
418.16
417.67
411.47
401.64
390.61
380.55
372.62
366.24
359.08
347.83
329.58
303.21
269.78
231.89
192.50
153.71
116.31
80.15
44.50
8.11
-30.80
-74.25
-123.41
-177.26
-231.68
-279.96
-314.82
-331.09
-327.70
-307.82
-277.34
-242.32
-206.99
-173.06
-140.29
-107.74
-74.77
-41.46
-8.48
23.19
52.36
77.71
97.78
111.26
117.36
116.24
109.48
99.96
90.84
84.11
79.35
73.78
64.00
48.25
28.17
8.40
-5.89
-12.07
-12.07
-11.73
-18.11
-35.99
-65.77
-103.43
-142.41
-176.21
-200.46
-213.64
-216.79
-212.27
-202.42
-188.58
-171.00
-149.53
-124.86
-99.20
-76.03
-58.82
-49.42
-47.29
-49.78
-53.57
-56.23
-57.10
-56.90
-56.84
-57.54
-58.51
-58.45
-55.90
-50.15
-41.61
-31.85
-23.03
-17.12
-15.19
-17.06
-21.41
-26.37
-30.17
-31.54
-29.97
-25.50
-18.48
-9.39
1.26
12.86
24.69
35.93
45.69
53.16
57.68
58.89
56.87
52.16
45.70
38.61
31.87
26.11
21.56
18.17
15.82
14.42
13.95
14.33
15.37
16.79
18.26
19.57
20.51
20.88
20.37
18.61
15.34
10.41
4.01
-3.46
-11.24
-18.38
-23.63
-25.68
-23.37
-16.11
-4.28
10.56
25.99
39.38
48.84
53.82
55.18
54.63
53.77
53.34
52.99
51.68
48.53
43.42
37.10
30.83
25.64
21.89
19.28
17.20
15.19
13.13
11.18
9.51
8.18
7.11
6.22
5.53
5.08
4.76
4.17
2.72
-0.21
-4.77
-10.45
-16.17
-20.53
-22.41
-21.27
-17.33
-11.28
-3.98
3.95
12.08
20.05
27.31
33.04
36.43
37.03
35.06
31.34
26.94
22.71
19.07
16.09
13.85
12.53
12.40
13.48
15.28
16.84
17.14
15.62
12.58
8.96
5.84
3.83
2.73
1.74
-0.02
-2.95
-6.85
-11.08
-14.95
-17.95
-19.75
-20.04
-18.39
-14.41
-8.05
0.16
9.11
17.50
24.37
29.32
32.55
34.42
35.10
34.44
32.13
28.06
22.58
16.56
11.08
6.96
4.51
3.37
2.88
2.39
1.62
0.68
-0.14
-0.59
-0.75
-0.97
-1.64
-3.01
-5.05
-7.66
-10.75
-14.35
-18.50
-22.93
-26.95
-29.55
-29.65
-26.60
-20.39
-11.72
-1.80
8.03
16.64
23.27
27.63
29.77
29.99
28.65
26.13
22.76
18.83
14.55
10.14
5.81
1.85
-1.47
-3.93
-5.47
-6.31
-6.85
-7.65
-9.19
-11.70
-15.08
-18.93
-22.79
-26.21
-28.79
-30.17
-30.02
-28.24
-25.19
-21.80
-19.55
-19.89
-23.63
-30.34
-38.21
-44.69
-47.44
-45.39
-39.05
-30.12
-20.72
-12.57
-6.61
-3.15
-2.09
-3.03
-5.20
-7.28
-7.55
-4.41
3.06
14.81
29.88
47.09
65.43
84.24
102.82
120.21
135.21
146.71
154.23
158.00
158.99
158.61
158.61
161.10
168.54
183.43
207.50
240.72
280.46
321.86
359.11
387.44
404.79
412.30
413.27
411.19
407.74
401.64
390.23
371.43
345.41
314.47
281.43
247.49
211.17
169.35
118.25
56.82
-12.36
-84.00
-152.28
-213.09
-265.02
-308.83
-346.03
-379.43
-410.94
-441.47
-471.03
-499.03
-524.82
-548.02
-568.62
-586.82
-605.08
-625.79
-650.54
-679.20
-709.84
-739.30
-764.14
-781.49
-775.66
-735.69
-657.12
-545.19
-413.64
-279.56
-157.05
-53.99
27.71
89.93
133.80
160.42
170.82
166.89
151.08
126.50
96.76
66.44
41.48
26.84
26.33
40.71
67.30
99.98
131.24
155.23
169.96
177.80
182.87
189.53
196.36
201.84
204.31
203.00
199.28
196.41
198.18
207.13
224.00
247.43
275.22
304.32
331.14
352.03
363.79
364.68
355.53
340.62
326.95
322.85
334.20
361.68
399.87
438.88
468.10
480.29
473.86
451.80
419.99
383.44
344.47
302.76
257.07
207.41
156.26
107.61
63.70
24.88
-10.74
-45.68
-81.19
-116.30
-148.29
-173.91
-191.27
-203.25
-214.87
-231.18
-254.81
-284.63
-316.36
-344.65
-365.28
-376.91
-384.67
-396.32
-419.35
-458.21
-512.93
-580.11
-655.14
-734.03
-795.04
-822.02
-806.62
-752.21
-672.01
-582.34
-496.29
-420.38
-354.52
-293.56
-233.50
-171.55
-107.69
-44.84
12.59
60.23
95.73
119.71
135.39
144.02
145.82
140.75
129.07
114.49
102.00
95.80
97.50
106.05
116.64
124.02
125.64
122.77
119.68
121.47
131.97
152.83
184.03
221.91
259.74
289.40
302.48
293.17
260.87
211.94
154.63
102.61
67.80
55.72
65.59
92.17
130.12
176.91
232.59
297.02
367.32
435.54
482.38
491.56
456.07
382.12
286.74
189.50
104.26
36.27
-17.08
-61.41
-99.99
-132.97
-158.89
-177.63
-191.88
-206.15
-223.08
-241.78
-256.79
-260.21
-244.83
-207.79
-152.68
-88.62
-29.16
15.74
42.57
54.00
56.34
55.59
54.91
54.52
53.15
49.83
45.32
41.04
37.99
36.34
35.43
34.02
31.11
26.49
20.75
15.37
11.74
10.54
11.41
13.25
14.61
14.39
12.27
8.82
5.45
3.56
3.96
6.44
10.01
13.23
14.89
14.45
12.36
9.93
8.65
9.59
12.93
17.88
22.98
26.83
28.60
28.43
27.30
26.52
27.19
30.02
35.38
43.21
52.97
62.21
67.34
64.38
50.61
26.41
-4.28
-35.03
-59.47
-73.84
-78.17
-75.42
-69.53
-63.34
-57.72
-52.15
-45.96
-39.34
-33.37
-29.29
-27.50
-27.37
-27.62
-27.00
-25.00
-22.09
-19.45
-18.43
-19.83
-23.61
-28.95
-34.60
-39.42
-42.82
-44.79
-45.86
-46.73
-47.79
-49.10
-50.24
-50.67
-49.86
-47.70
-44.32
-40.08
-35.42
-30.63
-25.85
-20.99
-15.92
-10.14
-4.16
1.72
7.17
11.92
15.80
18.78
20.90
22.25
22.90
22.85
22.16
20.88
19.08
16.87
14.41
11.81
9.41
7.45
6.11
5.74
6.34
7.86
10.19
13.17
16.53
20.02
23.37
26.33
28.73
30.38
31.18
31.14
30.26
28.59
26.19
23.10
19.47
15.42
11.15
6.90
2.87
-0.74
-3.71
-5.94
-7.30
-7.77
-7.40
-6.31
-4.59
-2.40
0.10
2.74
5.36
7.83
10.04
11.77
12.86
13.12
12.42
10.68
7.65
3.41
-1.52
-6.38
-10.77
-14.38
-17.02
-18.47
-18.54
-17.35
-14.75
-10.31
-3.49
5.45
16.09
27.80
39.91
51.82
62.32
70.91
78.22
85.35
92.29
98.80
104.41
108.72
111.58
111.10
107.31
102.82
101.01
102.81
107.67
114.01
119.94
123.70
119.59
105.23
82.38
60.17
41.72
26.59
12.41
-3.42
-22.74
-52.97
-95.29
-142.67
-185.69
-220.35
-247.27
-269.52
-290.59
-313.43
-349.30
-402.60
-466.96
-530.99
-586.11
-626.30
-646.76
-644.49
-562.60
-397.68
-202.38
-36.19
77.87
146.55
186.31
210.84
227.07
236.26
228.39
200.39
161.35
125.59
102.68
95.43
101.77
116.52
132.90
140.27
135.07
121.64
108.35
100.15
97.30
97.77
98.63
97.64
89.84
74.53
56.69
43.13
37.91
41.47
52.30
67.59
84.40
98.56
107.96
113.12
115.23
114.69
107.99
96.13
81.00
64.81
49.23
35.57
24.71
16.65
10.84
7.08
5.19
5.54
8.62
14.99
23.86
32.64
36.55
33.15
22.47
7.50
-8.04
-22.21
-36.14
-52.16
-71.79
-93.61
-112.56
-122.41
-118.59
-99.12
-70.52
-41.24
-17.77
-2.15
7.83
16.47
26.89
39.77
53.22
63.75
68.91
68.14
62.84
55.61
49.92
46.35
44.08
41.19
35.35
26.04
14.99
5.32
0.28
1.64
8.97
19.90
31.33
40.20
44.64
44.03
38.74
29.83
18.92
7.75
-2.44
-11.02
-18.38
-25.37
-32.88
-41.32
-50.51
-60.17
-67.70
-71.90
-72.63
-70.64
-66.98
-62.40
-57.13
-51.09
-44.33
-37.39
-31.64
-28.50
-28.95
-33.11
-40.28
-49.19
-58.38
-66.36
-71.59
-72.84
-69.22
-60.52
-47.46
-31.55
-14.71
1.24
15.22
27.07
37.09
45.84
53.70
60.76
66.92
72.08
76.06
79.06
81.76
84.90
89.03
94.25
100.13
105.95
110.80
113.29
112.65
109.13
103.60
96.87
89.09
79.56
67.00
50.20
27.81
0.38
-29.22
-56.80
-78.68
-93.08
-100.44
-102.86
-102.93
-103.84
-106.77
-110.91
-114.63
-117.17
-119.12
-121.61
-125.19
-121.42
-105.46
-78.86
-48.46
-20.87
0.19
13.84
21.37
25.18
27.70
28.70
27.58
23.90
18.20
12.05
7.86
7.96
13.85
25.73
41.48
59.20
76.96
92.80
104.62
110.14
107.21
94.62
72.91
41.51
7.64
-18.15
-29.34
-26.80
-15.95
-2.57
9.73
19.44
26.56
32.24
36.57
38.63
37.51
33.30
26.97
19.95
12.96
5.93
-0.97
-8.40
-17.40
-28.69
-42.23
-57.35
-73.06
-89.27
-105.36
-120.19
-132.91
-143.13
-150.79
-156.28
-160.78
-159.98
-153.69
-142.73
-128.15
-111.15
-92.70
-73.23
-52.67
-30.80
-7.57
15.63
37.50
56.93
73.03
85.36
93.83
98.72
100.48
99.80
96.76
92.06
86.75
81.96
78.65
77.32
78.05
80.51
84.32
88.65
93.04
97.31
101.41
105.38
109.22
112.89
116.34
119.46
121.94
123.64
124.61
125.12
125.63
126.51
127.92
129.54
130.70
130.46
128.04
122.98
115.29
105.30
93.60
80.90
68.02
55.85
45.25
36.84
30.95
27.47
26.00
25.90
26.34
26.29
24.46
19.48
10.21
-3.79
-21.90
-42.41
-62.90
-81.10
-95.20
-104.17
-108.12
-108.25
-106.31
-104.12
-103.01
-103.48
-105.30
-107.17
-107.07
-103.11
-94.42
-81.46
-65.91
-49.92
-35.34
-23.84
-15.63
-9.79
-5.16
-1.37
1.17
1.78
0.06
-3.65
-10.08
-18.33
-25.90
-30.27
-30.56
-27.55
-22.93
-18.48
-15.56
-18.28
-27.41
-39.61
-50.56
-58.56
-65.03
-73.02
-85.59
-104.44
-134.93
-176.65
-222.49
-263.91
-296.32
-319.59
-335.98
-348.32
-358.87
-376.09
-401.85
-429.16
-448.16
-452.94
-442.56
-419.38
-387.31
-304.48
-168.68
-16.54
110.52
196.35
245.52
268.45
274.42
270.63
262.66
247.69
227.18
208.44
200.01
204.35
217.76
233.07
243.14
242.68
224.30
186.03
139.51
100.29
78.07
74.24
84.13
101.60
121.33
136.46
144.11
145.75
143.10
135.75
124.15
106.94
85.73
64.11
44.76
30.37
23.18
22.60
24.64
24.65
19.46
9.68
-1.50
-11.06
-17.28
-20.18
-21.53
-23.18
-25.75
-28.09
-27.69
-23.17
-15.89
-9.70
-8.99
-16.58
-32.16
-52.35
-72.25
-86.88
-92.81
-88.63
-74.83
-53.48
-27.91
-2.16
20.08
36.50
47.03
53.37
57.54
60.83
63.09
63.33
60.73
55.61
49.43
44.00
40.30
37.88
35.19
30.64
23.57
14.88
6.52
0.55
-1.88
-1.10
1.20
2.69
1.30
-4.16
-13.61
-25.82
-38.77
-50.14
-57.90
-60.74
-58.22
-50.66
-39.03
-24.54
-8.55
7.50
22.14
33.95
41.75
44.85
43.19
37.42
28.69
18.35
7.66
-2.46
-11.60
-19.78
-27.33
-34.60
-41.81
-48.85
-55.48
-61.43
-66.65
-71.43
-76.27
-81.83
-88.79
-97.63
-108.52
-121.02
-133.83
-144.70
-150.81
-149.46
-138.93
-119.28
-92.35
-61.32
-29.67
-0.26
25.12
45.71
61.35
71.96
77.40
77.60
73.00
64.67
54.24
43.37
33.22
24.10
15.59
7.04
-1.85
-10.70
-18.55
-24.38
-27.65
-28.77
-28.90
-29.64
-32.46
-38.31
-47.49
-59.60
-73.40
-86.91
-97.44
-102.16
-98.76
-86.36
-65.89
-39.90
-11.74
15.46
39.49
59.35
74.84
86.09
93.13
95.90
94.54
89.62
82.28
73.91
65.77
58.66
52.75
47.79
43.41
39.38
35.71
32.60
30.18
28.43
26.99
25.27
22.56
18.04
10.99
0.92
-12.13
-27.34
-42.90
-56.26
-64.63
-65.73
-58.57
-43.71
-23.10
0.51
24.37
46.28
64.85
79.40
89.67
95.59
97.22
94.81
88.96
80.63
71.06
61.48
52.83
45.55
39.57
34.52
30.02
25.90
22.30
19.45
17.48
16.14
14.78
12.45
8.21
1.27
-8.76
-21.76
-36.95
-52.82
-67.16
-77.39
-81.17
-77.02
-64.92
-46.27
-23.54
0.52
23.53
43.86
60.59
73.24
81.48
85.13
84.26
79.44
71.76
62.68
53.62
45.60
38.99
33.62
28.96
24.56
20.26
16.21
12.78
10.24
8.49
6.95
4.75
0.85
-5.59
-14.97
-27.07
-40.94
-54.87
-66.69
-74.17
-75.48
-69.78
-57.36
-39.61
-18.61
3.37
24.30
42.66
57.39
67.88
73.84
75.29
72.64
66.68
58.55
49.50
40.67
32.87
26.40
21.14
16.80
13.08
9.85
7.13
4.87
2.94
0.95
-1.63
-5.35
-10.78
-18.32
-28.18
-40.06
-52.96
-65.07
-73.99
-77.35
-73.47
-62.02
-44.12
-22.02
1.60
24.33
44.38
60.72
72.85
80.53
83.67
82.39
77.15
68.84
58.71
48.16
38.42
30.27
23.91
19.08
15.25
11.92
8.81
5.93
3.38
1.16
-1.02
-3.78
-7.92
-14.25
-23.26
-34.86
-48.21
-61.63
-72.84
-79.36
-79.14
-71.20
-55.97
-35.21
-11.56
12.18
33.70
51.51
64.93
73.81
78.23
78.39
74.68
67.76
58.72
48.89
39.65
31.98
26.29
22.31
19.40
16.83
14.10
11.14
8.12
5.30
2.70
0.05
-3.22
-7.74
-14.06
-22.51
-32.99
-44.90
-56.98
-67.41
-74.05
-74.96
-68.99
-56.19
-37.88
-16.24
6.25
27.43
45.79
60.42
70.86
76.90
78.57
76.15
70.35
62.19
52.95
43.80
35.66
29.01
23.93
20.16
17.26
14.76
12.25
9.45
6.29
2.81
-0.86
-4.73
-8.94
-13.88
-20.10
-28.11
-38.08
-49.62
-61.53
-71.94
-78.62
-79.56
-73.58
-60.74
-42.41
-20.83
1.44
22.21
39.94
53.81
63.49
68.86
69.97
67.10
60.88
52.33
42.77
33.50
25.49
19.26
14.78
11.65
9.34
7.36
5.41
3.40
1.41
-0.52
-2.46
-4.69
-7.61
-11.68
-17.32
-24.77
-34.05
-44.82
-56.28
-67.04
-75.19
-78.68
-75.84
-66.02
-49.90
-29.42
-7.21
14.07
32.47
46.94
57.22
63.50
66.06
65.22
61.31
54.93
46.97
38.51
30.61
24.05
19.12
15.70
13.34
11.50
9.74
7.80
5.59
3.10
0.30
-2.86
-6.52
-10.82
-15.90
-21.90
-28.98
-37.27
-46.70
-56.76
-66.29
-73.57
-76.62
-73.83
-64.52
-49.32
-30.01
-9.04
11.16
28.76
42.77
52.89
59.18
61.80
60.89
56.71
49.76
40.91
31.34
22.32
14.86
9.55
6.37
4.87
4.35
4.16
3.81
3.12
2.04
0.59
-1.30
-3.79
-7.09
-11.40
-16.84
-23.48
-31.36
-40.39
-50.16
-59.76
-67.73
-72.30
-71.82
-65.40
-53.24
-36.71
-17.93
0.78
17.47
30.90
40.47
46.10
47.91
46.18
41.34
34.10
25.44
16.56
8.60
2.38
-1.77
-4.01
-4.85
-4.94
-4.84
-4.87
-5.21
-5.89
-6.96
-8.44
-10.45
-13.11
-16.56
-21.01
-26.62
-33.59
-41.88
-51.12
-60.36
-68.03
-72.22
-71.15
-63.86
-50.56
-32.75
-12.77
6.87
24.17
37.93
47.74
53.67
55.89
54.64
50.22
43.26
34.76
25.94
17.99
11.72
7.45
4.97
3.79
3.30
2.95
2.32
1.13
-0.72
-3.25
-6.42
-10.14
-14.41
-19.35
-25.17
-32.19
-40.62
-50.42
-60.99
-71.10
-78.98
-82.67
-80.59
-72.07
-57.63
-38.90
-18.18
2.21
20.38
35.12
45.91
52.67
55.58
55.02
51.50
45.73
38.58
31.02
23.89
17.87
13.31
10.24
8.38
7.30
6.49
5.50
4.05
1.95
-0.79
-4.14
-8.00
-12.31
-17.06
-22.42
-28.77
-36.62
-46.38
-57.99
-70.47
-81.91
-89.74
-91.48
-85.58
-72.03
-52.39
-29.32
-5.71
16.01
34.31
48.52
58.59
64.82
67.69
67.82
65.94
62.85
59.30
55.93
53.15
51.10
49.69
48.58
47.38
45.76
43.62
41.15
38.70
36.65
35.10
33.86
32.36
29.89
25.73
19.37
10.54
-0.68
-13.81
-27.96
-41.70
-53.22
-60.54
-61.97
-56.54
-44.32
-26.59
-5.54
16.12
35.90
51.99
63.61
70.82
74.18
74.32
71.64
66.37
58.70
49.16
38.61
28.05
18.35
9.90
2.67
-3.60
-9.21
-14.22
-18.50
-21.92
-24.57
-26.70
-28.81
-31.39
-34.77
-39.13
-44.57
-51.28
-59.67
-70.15
-82.75
-96.75
-110.33
-120.93
-125.90
-123.41
-113.04
-96.01
-74.72
-51.92
-30.15
-11.14
4.11
15.28
22.40
25.76
25.83
23.25
18.80
13.34
7.77
2.89
-0.69
-2.62
-2.87
-1.76
0.15
2.24
3.92
4.79
4.62
3.40
1.27
-1.59
-4.99
-8.83
-13.14
-18.17
-24.28
-31.88
-41.14
-51.67
-62.28
-71.03
-75.64
-74.16
-65.59
-50.33
-30.14
-7.65
14.45
33.96
49.61
60.94
68.02
71.09
70.49
66.64
60.19
52.10
43.60
35.90
29.95
26.23
24.64
24.63
25.41
26.24
26.59
26.22
25.13
23.45
21.30
18.62
15.21
10.71
4.76
-2.91
-12.44
-23.77
-36.62
-50.35
-63.80
-75.25
-82.64
-84.01
-78.18
-65.22
-46.64
-25.00
-3.24
16.12
31.43
42.07
48.24
50.54
49.67
46.23
40.71
33.63
25.65
17.56
10.23
4.46
0.74
-0.85
-0.69
0.51
1.93
2.80
2.61
1.08
-1.82
-5.92
-10.97
-16.63
-22.70
-29.10
-36.05
-43.97
-53.35
-64.35
-76.44
-88.20
-97.41
-101.63
-98.89
-88.43
-70.98
-48.68
-24.39
-0.96
19.44
35.57
47.05
54.11
57.26
57.13
54.40
49.77
43.91
37.42
30.86
24.68
19.30
15.05
12.17
10.65
10.20
10.31
10.32
9.68
7.97
5.05
0.99
-4.02
-9.64
-15.55
-21.46
-27.36
-33.52
-40.48
-48.79
-58.55
-69.05
-78.63
-84.98
-85.80
-79.61
-66.20
-46.83
-23.76
0.33
22.95
42.27
57.22
67.39
72.90
74.22
72.17
67.70
61.86
55.54
49.41
43.85
39.01
34.99
31.91
29.97
29.26
29.66
30.69
31.61
31.59
30.03
26.70
21.78
15.78
9.25
2.62
-3.96
-10.68
-17.94
-26.26
-36.01
-47.12
-58.79
-69.47
-77.00
-79.22
-74.56
-62.59
-44.26
-21.68
2.42
25.36
45.06
60.27
70.55
76.10
77.48
75.49
71.01
64.97
58.27
51.73
45.92
41.16
37.54
35.00
33.43
32.75
32.89
33.74
35.00
36.16
36.51
35.32
32.04
26.54
19.16
10.63
1.80
-6.63
-14.42
-21.80
-29.46
-38.19
-48.52
-60.30
-72.55
-83.44
-90.70
-92.22
-86.67
-73.99
-55.40
-33.09
-9.61
12.68
31.98
47.18
57.74
63.56
64.95
62.55
57.32
50.42
42.98
35.97
30.02
25.43
22.26
20.47
19.95
20.61
22.26
24.54
26.91
28.67
29.17
27.95
24.90
20.33
14.82
9.00
3.35
-2.04
-7.52
-13.73
-21.38
-30.91
-42.09
-53.81
-64.18
-70.88
-71.82
-65.77
-52.86
-34.52
-13.18
8.50
28.18
44.30
56.06
63.24
65.95
64.48
59.29
51.06
40.76
29.52
18.59
9.03
1.58
-3.46
-6.25
-7.31
-7.35
-7.10
-7.15
-7.79
-9.12
-11.09
-13.64
-16.78
-20.58
-25.12
-30.49
-36.87
-44.43
-53.35
-63.50
-74.16
-83.91
-90.69
-92.36
-87.39
-75.43
-57.58
-36.08
-13.70
7.09
24.53
37.83
46.83
51.77
52.92
50.64
45.43
38.06
29.62
21.33
14.24
9.05
5.91
4.56
4.43
4.83
5.21
5.22
4.65
3.47
1.66
-0.84
-4.14
-8.40
-13.73
-20.25
-28.09
-37.31
-47.76
-58.83
-69.26
-77.19
-80.45
-77.31
-67.08
-50.49
-29.59
-7.14
14.18
32.38
46.42
56.08
61.58
63.31
61.64
57.03
50.14
41.85
33.28
25.51
19.37
15.26
13.08
12.39
12.52
12.81
12.73
11.90
10.16
7.43
3.77
-0.71
-5.87
-11.58
-17.86
-24.88
-32.98
-42.49
-53.38
-64.99
-75.84
-83.81
-86.69
-82.81
-71.69
-54.23
-32.49
-9.18
13.12
32.38
47.45
57.95
64.05
66.23
65.10
61.34
55.67
48.86
41.70
34.97
29.32
25.18
22.70
21.66
21.59
21.88
21.93
21.25
19.57
16.77
12.94
8.24
2.84
-3.16
-9.74
-17.08
-25.48
-35.24
-46.41
-58.54
-70.44
-80.19
-85.53
-84.49
-76.00
-60.37
-39.28
-15.42
8.28
29.31
46.02
57.76
64.64
67.29
66.48
63.06
57.82
51.56
44.99
38.73
33.27
28.89
25.73
23.80
23.01
23.12
23.77
24.43
24.51
23.47
20.99
17.02
11.79
5.65
-1.03
-8.06
-15.47
-23.53
-32.63
-43.09
-54.83
-67.08
-78.27
-86.23
-88.76
-84.25
-72.38
-54.25
-32.18
-8.99
12.70
31.05
45.12
54.78
60.32
62.23
61.06
57.43
52.10
45.94
39.77
34.30
29.91
26.73
24.64
23.49
23.10
23.28
23.79
24.21
24.06
22.83
20.18
16.04
10.63
4.41
-2.13
-8.64
-15.01
-21.56
-28.84
-37.45
-47.65
-58.95
-69.92
-78.35
-81.81
-78.42
-67.53
-50.04
-28.10
-4.56
17.88
37.23
52.39
63.01
69.23
71.37
69.88
65.36
58.59
50.53
42.16
34.35
27.68
22.39
18.51
15.92
14.44
13.84
13.87
14.18
14.39
14.11
13.03
11.00
8.00
4.15
-0.44
-5.63
-11.46
-18.12
-25.94
-35.22
-45.91
-57.30
-67.90
-75.62
-78.31
-74.45
-63.71
-47.16
-26.95
-5.69
14.19
30.95
43.74
52.37
57.07
58.29
56.52
52.36
46.46
39.61
32.56
25.98
20.37
15.98
12.83
10.71
9.30
8.22
7.16
5.96
4.61
3.16
1.62
-0.13
-2.32
-5.34
-9.53
-15.23
-22.65
-31.84
-42.47
-53.66
-63.83
-70.92
-72.86
-68.25
-56.93
-40.13
-20.18
0.24
18.76
33.86
44.93
51.96
55.27
55.16
51.89
45.82
37.58
28.16
18.87
11.03
5.68
3.25
3.43
5.41
8.12
10.55
12.06
12.42
11.70
10.16
8.10
5.79
3.40
0.88
-2.05
-5.90
-11.28
-18.59
-27.69
-37.65
-46.81
-53.17
-54.92
-51.08
-41.82
-28.46
-13.05
2.22
15.57
25.91
32.84
36.36
36.59
33.71
28.02
20.16
11.27
2.75
-4.00
-8.08
-9.35
-8.42
-6.27
-3.92
-2.08
-1.08
-0.96
-1.71
-3.35
-5.93
-9.50
-13.95
-19.00
-24.36
-29.76
-35.27
-41.22
-48.11
-56.22
-65.25
-73.96
-80.40
-82.33
-78.04
-66.99
-50.05
-29.27
-7.26
13.57
31.44
45.40
55.05
60.44
61.76
59.45
54.25
47.20
39.54
32.44
26.72
22.68
20.17
18.70
17.81
17.16
16.64
16.16
15.53
14.33
11.96
7.93
2.03
-5.49
-13.98
-22.66
-30.86
-38.28
-45.09
-51.88
-59.44
-68.48
-79.16
-90.79
-101.69
-109.49
-111.74
-106.69
-93.93
-74.57
-50.91
-25.82
-2.02
18.45
34.40
45.42
51.72
53.92
52.92
49.75
45.40
40.74
36.43
32.97
30.65
29.54
29.44
29.86
30.14
29.61
27.83
24.76
20.73
16.31
12.12
8.58
5.85
3.80
2.13
0.46
-1.74
-5.04
-10.15
-17.55
-27.30
-38.55
-49.49
-57.54
-60.06
-55.19
-42.53
-23.34
-0.21
23.67
45.31
62.52
74.17
80.10
80.91
77.59
71.25
62.95
53.61
43.98
34.77
26.56
19.83
14.91
11.84
10.45
10.37
11.09
12.02
12.50
11.90
9.68
5.57
-0.34
-7.63
-15.69
-23.89
-31.89
-39.64
-47.52
-56.05
-65.71
-76.50
-87.69
-97.65
-104.15
-104.88
-98.17
-83.64
-62.44
-37.03
-10.47
14.32
35.18
50.97
61.50
67.15
68.56
66.49
61.74
55.18
47.74
40.36
33.78
28.52
24.78
22.55
21.70
21.98
23.09
24.65
26.10
26.85
26.28
23.93
19.67
13.71
6.59
-0.96
-8.29
-15.08
-21.50
-28.23
-36.14
-45.95
-57.69
-70.42
-82.18
-90.37
-92.43
-86.60
-72.55
-51.55
-26.14
0.58
25.73
47.24
64.03
75.86
83.02
85.94
85.12
81.23
75.15
68.04
61.06
55.19
50.89
48.12
46.47
45.48
44.90
44.68
44.90
45.47
45.97
45.71
43.88
39.90
33.65
25.51
16.28
6.81
-2.28
-10.84
-19.22
-28.08
-38.15
-49.85
-62.97
-76.46
-88.47
-96.64
-98.73
-93.30
-80.23
-60.87
-37.70
-13.65
8.64
27.34
41.47
50.76
55.34
55.56
51.99
45.46
37.02
27.80
18.85
10.97
4.59
-0.17
-3.39
-5.25
-5.95
-5.66
-4.58
-3.01
-1.40
-0.33
-0.42
-2.14
-5.61
-10.56
-16.34
-22.21
-27.57
-32.21
-36.35
-40.63
-45.85
-52.69
-61.40
-71.49
-81.61
-89.65
-93.25
-90.37
-80.10
-62.95
-40.81
-16.50
7.07
27.50
43.34
54.03
59.75
61.05
58.72
53.65
46.82
39.26
31.92
25.58
20.74
17.58
16.04
15.88
16.79
18.41
20.33
22.05
23.01
22.70
20.77
17.17
12.16
6.24
-0.05
-6.28
-12.32
-18.36
-24.83
-32.15
-40.47
-49.32
-57.50
-63.27
-64.69
-60.32
-49.70
-33.64
-14.04
6.57
25.69
41.37
52.50
58.80
60.67
58.88
54.33
47.94
40.57
32.98
25.93
20.00
15.64
13.02
12.06
12.48
13.82
15.63
17.34
18.43
18.40
16.88
13.73
9.13
3.49
-2.66
-8.79
-14.65
-20.28
-26.08
-32.57
-40.20
-48.94
-58.05
-66.03
-70.91
-70.77
-64.49
-52.16
-35.14
-15.75
3.46
20.32
33.45
42.38
47.23
48.52
46.87
42.95
37.50
31.35
25.36
20.27
16.53
14.29
13.35
13.40
14.11
15.27
16.74
18.35
19.84
20.84
20.93
19.84
17.50
14.14
10.11
5.76
1.30
-3.26
-8.21
-13.99
-21.06
-29.61
-39.24
-48.79
-56.50
-60.42
-59.07
-51.93
-39.79
-24.42
-8.14
6.90
19.18
27.92
32.95
34.49
32.93
28.80
22.84
16.03
9.42
3.95
0.18
-1.79
-2.25
-1.69
-0.51
1.08
2.98
5.14
7.31
9.06
9.91
9.42
7.37
3.82
-0.85
-6.16
-11.59
-16.75
-21.53
-26.15
-31.03
-36.68
-43.35
-50.80
-58.16
-63.99
-66.58
-64.45
-56.80
-43.91
-27.20
-8.86
8.73
23.54
34.36
40.95
43.68
43.38
40.85
36.87
32.11
27.22
22.80
19.42
17.40
16.77
17.26
18.41
19.81
21.22
22.64
24.20
25.96
27.76
29.08
29.25
27.72
24.37
19.64
14.33
9.26
4.80
0.74
-3.64
-9.22
-16.60
-25.86
-36.49
-47.46
-57.40
-64.81
-68.24
-66.66
-59.73
-48.00
-32.98
-16.71
-1.33
11.43
20.54
25.72
27.26
25.81
22.13
17.02
11.26
5.56
0.55
-3.28
-5.64
-6.48
-5.98
-4.50
-2.43
-0.14
2.11
4.14
5.80
6.95
7.34
6.73
4.89
1.72
-2.63
-7.80
-13.28
-18.56
-23.31
-27.50
-31.42
-35.57
-40.51
-46.56
-53.57
-60.77
-66.85
-70.17
-69.24
-63.21
-52.11
-37.01
-19.68
-2.17
13.66
26.46
35.48
40.54
41.90
40.10
35.88
30.09
23.63
17.34
11.94
7.93
5.54
4.68
5.08
6.34
8.10
10.07
12.04
13.78
14.98
15.28
14.37
12.09
8.55
4.05
-0.97
-6.07
-10.92
-15.40
-19.63
-23.98
-28.96
-35.01
-42.24
-50.08
-57.24
-61.89
-62.16
-56.84
-45.80
-30.15
-11.94
6.44
22.90
36.07
45.40
50.92
52.99
52.05
48.59
43.16
36.51
29.47
22.92
17.58
13.81
11.69
10.99
11.34
12.35
13.67
15.04
16.18
16.72
16.26
14.37
10.83
5.75
-0.39
-6.81
-12.80
-17.95
-22.38
-26.70
-31.73
-38.16
-46.13
-55.06
-63.58
-69.90
-72.17
-69.02
-60.01
-45.79
-27.95
-8.66
9.89
25.88
38.19
46.38
50.58
51.28
49.15
44.90
39.28
33.01
26.81
21.37
17.22
14.61
13.54
13.73
14.78
16.39
18.26
20.17
21.83
22.79
22.55
20.65
16.96
11.71
5.52
-0.92
-7.01
-12.48
-17.44
-22.29
-27.58
-33.74
-40.93
-48.71
-55.97
-61.06
-62.11
-57.67
-47.24
-31.64
-12.78
6.84
24.84
39.52
50.06
56.36
58.72
57.54
53.25
46.44
37.89
28.66
19.87
12.47
7.00
3.48
1.57
0.81
0.85
1.55
2.91
4.87
7.10
9.00
9.81
8.91
6.07
1.53
-4.12
-10.11
-15.81
-20.93
-25.55
-30.17
-35.45
-42.02
-50.11
-59.29
-68.37
-75.55
-78.86
-76.67
-68.25
-54.02
-35.40
-14.51
6.34
25.14
40.46
51.54
58.20
60.76
59.81
56.14
50.64
44.28
37.97
32.47
28.30
25.63
24.35
24.20
24.90
26.25
28.17
30.55
33.12
35.36
36.59
36.17
33.68
29.16
23.02
15.97
8.68
1.58
-5.27
-12.12
-19.44
-27.68
-37.08
-47.46
-58.09
-67.63
-74.35
-76.48
-72.75
-62.81
-47.45
-28.43
-8.02
11.53
28.48
41.73
50.80
55.62
56.46
53.81
48.43
41.31
33.53
26.11
19.74
14.76
11.16
8.78
7.50
7.28
8.09
9.79
11.97
13.99
15.12
14.74
12.59
8.80
3.85
-1.67
-7.26
-12.66
-17.91
-23.30
-29.23
-36.05
-43.93
-52.60
-61.25
-68.57
-72.92
-72.78
-67.13
-55.87
-39.90
-21.01
-1.42
16.67
31.56
42.27
48.53
50.68
49.39
45.52
39.89
33.28
26.39
19.87
14.29
10.12
7.70
7.14
8.31
10.79
13.94
17.01
19.28
20.26
19.72
17.78
14.77
11.12
7.20
3.21
-0.82
-5.18
-10.36
-16.96
-25.42
-35.64
-46.66
-56.67
-63.40
-64.76
-59.62
-48.22
-32.19
-14.03
3.62
18.64
29.80
36.68
39.51
38.86
35.40
29.82
22.81
15.06
7.29
0.24
-5.46
-9.32
-11.18
-11.18
-9.75
-7.53
-5.23
-3.46
-2.67
-3.06
-4.67
-7.32
-10.75
-14.68
-18.89
-23.32
-28.13
-33.71
-40.47
-48.61
-57.76
-66.77
-73.80
-76.73
-73.78
-64.10
-48.12
-27.53
-4.85
17.22
36.41
51.25
61.17
66.37
67.44
65.10
60.06
53.02
44.67
35.82
27.36
20.14
14.81
11.66
10.65
11.33
13.01
14.87
16.12
16.05
14.20
10.38
4.75
-2.24
-9.94
-17.78
-25.43
-32.98
-40.91
-49.77
-59.86
-70.72
-81.07
-88.86
-91.86
-88.34
-77.63
-60.43
-38.66
-14.91
8.18
28.51
44.84
56.74
64.32
67.99
68.22
65.59
60.80
54.70
48.26
42.39
37.75
34.69
33.25
33.20
34.21
35.83
37.53
38.71
38.76
37.18
33.69
28.32
21.38
13.34
4.66
-4.35
-13.70
-23.68
-34.72
-47.09
-60.53
-73.99
-85.61
-93.09
-94.30
-88.02
-74.35
-54.84
-32.05
-8.84
12.28
29.63
42.43
50.64
54.65
55.06
52.60
48.14
42.70
37.34
33.00
30.35
29.53
30.30
32.14
34.53
37.13
39.68
41.99
43.71
44.33
43.30
40.23
35.17
28.59
21.24
13.88
6.93
0.25
-6.80
-15.11
-25.37
-37.64
-50.95
-63.30
-72.07
-74.70
-69.56
-56.42
-36.66
-12.77
12.28
35.84
56.01
71.71
82.59
88.73
90.52
88.66
84.15
78.27
72.32
67.40
64.17
62.72
62.69
63.47
64.51
65.51
66.49
67.55
68.69
69.65
69.80
68.34
64.55
57.97
48.59
36.79
23.24
8.69
-6.27
-21.30
-36.41
-51.85
-67.80
-84.12
-99.97
-113.79
-123.50
-127.15
-123.49
-112.56
-95.68
-75.16
-53.68
-33.59
-16.49
-3.10
6.59
12.99
16.68
18.18
17.98
16.55
14.36
11.91
9.57
7.59
5.99
4.65
3.40
2.19
1.15
0.61
0.90
2.16
4.18
6.44
8.29
9.19
8.87
7.40
5.04
1.96
-1.90
-6.94
-13.69
-22.61
-33.76
-46.45
-59.18
-69.75
-75.77
-75.26
-67.37
-52.65
-33.03
-11.24
9.95
28.36
42.74
52.65
58.25
59.88
58.00
53.14
46.03
37.67
29.20
21.72
16.09
12.74
11.65
12.43
14.47
17.12
19.76
21.80
22.77
22.29
20.20
16.52
11.52
5.62
-0.80
-7.48
-14.39
-21.77
-29.98
-39.30
-49.65
-60.30
-69.76
-76.00
-76.93
-71.12
-58.36
-39.89
-18.10
4.12
24.17
40.31
51.81
58.70
61.40
60.42
56.24
49.43
40.79
31.38
22.43
15.07
10.06
7.65
7.53
9.02
11.25
13.36
14.60
14.49
12.77
9.50
4.91
-0.60
-6.67
-13.02
-19.59
-26.56
-34.30
-43.25
-53.62
-65.10
-76.64
-86.38
-91.97
-91.24
-82.90
-67.09
-45.43
-20.68
4.08
26.14
43.72
56.06
63.25
65.83
64.59
60.30
53.81
46.03
37.94
30.50
24.51
20.46
18.45
18.23
19.30
20.99
22.62
23.58
23.40
21.79
18.64
14.04
8.19
1.38
-6.07
-13.87
-21.95
-30.42
-39.67
-50.14
-61.89
-74.22
-85.49
-93.31
-95.20
-89.47
-75.85
-55.72
-31.65
-6.70
16.41
35.80
50.52
60.32
65.39
66.15
63.23
57.59
50.38
42.86
36.07
30.68
26.89
24.57
23.48
23.35
24.00
25.17
26.47
27.31
27.05
25.18
21.54
16.41
10.43
4.36
-1.19
-5.91
-9.94
-13.85
-18.41
-24.47
-32.54
-42.48
-53.24
-62.80
-68.56
-68.04
-59.75
-43.78
-21.91
2.93
27.55
49.37
66.91
79.70
87.96
92.08
92.39
89.24
83.20
75.19
66.38
57.93
50.68
44.97
40.70
37.64
35.56
34.34
33.98
34.26
34.71
34.53
32.79
28.72
21.99
12.85
2.04
-9.36
-20.41
-30.51
-39.64
-48.37
-57.61
-68.21
-80.50
-93.93
-106.92
-117.13
-121.98
-119.40
-108.53
-90.08
-66.22
-39.94
-14.33
8.14
25.96
38.55
46.01
48.82
47.62
43.17
36.39
28.29
19.97
12.46
6.65
3.16
2.37
4.21
8.23
13.51
18.78
22.67
23.98
21.97
16.53
8.22
-1.96
-12.79
-23.14
-32.19
-39.62
-45.65
-50.91
-56.27
-62.44
-69.57
-76.86
-82.68
-84.85
-81.41
-71.34
-55.01
-34.21
-11.53
10.27
29.03
43.46
53.18
58.43
59.75
57.73
53.01
46.32
38.52
30.61
23.67
18.62
16.09
16.24
18.75
22.83
27.43
31.46
33.92
34.19
32.02
27.60
21.44
14.17
6.35
-1.67
-9.85
-18.39
-27.65
-38.01
-49.65
-62.28
-74.89
-85.68
-92.35
-92.67
-85.27
-70.22
-49.23
-25.15
-1.15
20.11
37.05
49.13
56.57
59.84
59.46
55.90
49.76
41.89
33.34
25.24
18.50
13.66
10.83
9.78
10.05
11.11
12.40
13.39
13.57
12.50
9.89
5.67
0.06
-6.52
-13.61
-20.86
-28.24
-36.09
-45.01
-55.45
-67.38
-79.83
-90.86
-97.91
-98.51
-91.14
-75.79
-54.16
-29.16
-4.10
18.17
35.85
48.28
55.66
58.65
58.01
54.45
48.66
41.40
33.46
25.64
18.63
12.93
8.79
6.35
5.58
6.30
8.15
10.51
12.61
13.67
13.13
10.85
7.12
2.55
-2.16
-6.51
-10.35
-14.03
-18.26
-23.85
-31.45
-41.06
-51.81
-61.86
-68.74
-69.93
-63.66
-49.56
-28.84
-4.07
21.61
45.25
64.79
79.27
88.62
93.25
93.72
90.58
84.42
76.07
66.57
57.02
48.39
41.20
35.57
31.30
28.17
26.02
24.84
24.52
24.74
24.93
24.38
22.46
18.86
13.68
7.34
0.35
-6.91
-14.39
-22.36
-31.42
-42.20
-55.09
-69.82
-85.21
-99.11
-108.75
-111.51
-105.69
-91.21
-69.65
-43.92
-17.35
7.13
27.61
43.23
53.91
59.97
61.88
60.18
55.64
49.26
42.27
35.82
30.75
27.38
25.60
25.00
25.16
25.79
26.71
27.78
28.69
28.92
27.83
24.85
19.71
12.62
4.17
-4.86
-13.75
-22.08
-29.85
-37.48
-45.64
-55.01
-65.92
-77.96
-89.79
-99.25
-103.78
-101.26
-90.70
-72.68
-49.26
-23.39
1.90
24.15
41.80
54.15
61.18
63.33
61.31
56.11
48.88
40.76
32.76
25.59
19.65
15.09
11.95
10.21
9.84
10.77
12.83
15.61
18.52
20.79
21.69
20.69
17.68
12.95
7.05
0.63
-5.90
-12.42
-19.26
-26.99
-36.19
-47.12
-59.25
-71.13
-80.51
-84.85
-82.15
-71.69
-54.32
-32.31
-8.62
13.88
33.06
47.78
57.64
62.77
63.52
60.42
54.22
45.89
36.60
27.47
19.41
12.97
8.37
5.56
4.36
4.53
5.70
7.42
9.08
10.01
9.61
7.52
3.73
-1.45
-7.53
-14.00
-20.54
-27.11
-33.96
-41.51
-50.21
-60.20
-70.99
-81.23
-88.84
-91.46
-87.18
-75.25
-56.55
-33.33
-8.68
14.43
33.76
48.17
57.43
61.90
62.17
58.90
52.76
44.56
35.17
25.55
16.62
9.20
3.86
0.91
0.25
1.37
3.41
5.37
6.32
5.67
3.29
-0.54
-5.35
-10.63
-16.05
-21.54
-27.29
-33.74
-41.50
-51.05
-62.47
-75.00
-86.87
-95.51
-98.14
-92.70
-78.56
-56.89
-30.39
-2.54
23.39
45.00
61.10
71.54
76.78
77.54
74.56
68.63
60.60
51.46
42.22
33.77
26.77
21.55
18.16
16.40
15.89
16.12
16.47
16.36
15.28
12.97
9.45
4.93
-0.23
-5.68
-11.16
-16.63
-22.35
-28.80
-36.65
-46.41
-57.98
-70.35
-81.51
-88.77
-89.54
-82.24
-66.85
-45.11
-19.95
5.31
27.87
45.95
58.87
66.73
70.01
69.28
65.18
58.51
50.25
41.52
33.32
26.39
21.03
17.26
14.93
13.87
13.90
14.76
15.97
16.92
16.95
15.53
12.43
7.79
1.96
-4.58
-11.44
-18.43
-25.69
-33.57
-42.55
-52.89
-64.24
-75.41
-84.44
-89.01
-87.13
-77.84
-61.48
-39.74
-15.07
9.85
32.68
51.67
65.79
74.57
78.02
76.57
71.02
62.49
52.32
41.82
32.15
24.11
18.13
14.35
12.62
12.63
13.91
15.84
17.70
18.78
18.50
16.59
13.08
8.26
2.55
-3.67
-10.23
-17.17
-24.74
-33.36
-43.36
-54.72
-66.79
-78.05
-86.36
-89.42
-85.50
-74.05
-56.07
-33.81
-10.14
12.19
31.19
45.82
55.81
61.32
62.67
60.25
54.60
46.55
37.19
27.80
19.59
13.45
9.81
8.60
9.36
11.36
13.85
16.13
17.71
18.28
17.70
15.97
13.14
9.25
4.41
-1.29
-7.78
-15.06
-23.20
-32.22
-41.77
-50.91
-58.04
-61.17
-58.44
-48.78
-32.36
-10.62
14.05
38.92
61.55
80.12
93.67
101.97
105.38
104.71
101.12
96.06
91.17
87.91
87.16
88.60
90.51
90.01
83.98
70.18
48.23
19.86
-11.70
-42.77
-70.41
-92.95
-110.06
-122.27
-130.45
-135.56
-138.69
-141.07
-143.94
-148.11
-153.40
-158.36
-160.49
-156.97
-145.73
-126.31
-100.15
-70.21
-40.03
-12.77
9.57
26.28
37.68
44.58
47.78
47.87
45.26
40.40
33.97
26.98
20.65
16.08
13.96
14.32
16.51
19.45
21.98
23.18
22.68
20.60
17.34
13.32
8.79
3.69
-2.26
-9.35
-17.88
-27.96
-39.55
-52.22
-65.03
-76.38
-84.12
-86.01
-80.43
-66.95
-46.68
-22.07
3.70
27.60
47.37
61.89
71.05
75.43
75.88
73.29
68.45
62.11
55.04
47.97
41.60
36.46
32.84
30.75
30.05
30.43
31.47
32.68
33.45
33.15
31.21
27.35
21.62
14.45
6.46
-1.72
-9.76
-17.75
-26.14
-35.60
-46.64
-59.18
-72.26
-83.99
-91.82
-93.23
-86.55
-71.61
-49.94
-24.35
1.77
25.44
44.67
58.66
67.53
71.84
72.22
69.32
63.80
56.57
48.73
41.40
35.45
31.30
28.87
27.81
27.68
28.21
29.23
30.54
31.74
32.17
31.05
27.86
22.46
15.29
7.19
-0.92
-8.38
-14.96
-21.00
-27.19
-34.39
-43.31
-54.17
-66.48
-78.85
-89.11
-94.71
-93.37
-83.84
-66.37
-42.79
-16.07
10.58
34.39
53.62
67.57
76.34
80.44
80.50
77.25
71.62
64.73
57.82
52.01
48.04
46.10
45.89
46.82
48.25
49.73
51.08
52.23
53.10
53.41
52.60
50.01
45.05
37.59
28.04
17.29
6.44
-3.61
-12.48
-20.42
-28.16
-36.62
-46.53
-58.09
-70.75
-83.16
-93.30
-98.86
-97.85
-89.19
-73.15
-51.41
-26.69
-2.03
20.03
37.88
50.93
59.32
63.52
63.97
61.16
55.69
48.48
40.76
33.80
28.61
25.64
24.74
25.34
26.77
28.48
30.15
31.69
33.01
33.92
34.06
32.89
29.94
24.94
18.04
9.73
0.82
-7.90
-15.86
-22.91
-29.35
-35.77
-42.90
-51.31
-61.24
-72.24
-83.16
-92.19
-97.20
-96.28
-88.35
-73.59
-53.45
-30.34
-6.98
14.20
31.49
44.02
51.61
54.54
53.34
48.71
41.57
33.00
24.25
16.50
10.65
7.13
5.88
6.42
8.18
10.66
13.54
16.58
19.46
21.63
22.41
21.17
17.65
12.07
5.15
-2.21
-9.20
-15.41
-20.97
-26.49
-32.79
-40.56
-50.01
-60.54
-70.70
-78.38
-81.35
-77.89
-67.38
-50.54
-29.30
-6.23
16.03
35.40
50.57
60.98
66.66
67.96
65.50
60.06
52.60
44.21
35.91
28.56
22.72
18.61
16.23
15.41
15.84
17.15
18.87
20.43
21.21
20.65
18.36
14.24
8.57
1.90
-5.06
-11.74
-17.90
-23.73
-29.83
-37.03
-45.97
-56.77
-68.71
-80.12
-88.65
-91.78
-87.61
-75.49
-56.31
-32.39
-6.83
17.28
37.49
52.34
61.40
64.96
63.84
59.10
51.95
43.55
34.94
26.90
19.91
14.26
10.08
7.41
6.24
6.43
7.64
9.36
10.92
11.69
11.15
9.02
5.24
0.04
-6.22
-13.03
-19.89
-26.46
-32.70
-38.94
-45.82
-54.02
-63.80
-74.54
-84.59
-91.54
-92.89
-86.87
-73.11
-52.82
-28.45
-2.97
20.84
40.90
56.05
65.90
70.70
71.06
67.80
61.89
54.37
46.21
38.24
31.10
25.19
20.76
17.81
16.24
15.79
16.13
16.83
17.42
17.37
16.23
13.64
9.56
4.18
-2.02
-8.48
-14.76
-20.71
-26.58
-33.00
-40.75
-50.44
-62.09
-74.78
-86.61
-95.00
-97.34
-91.85
-78.23
-57.83
-33.27
-7.78
15.76
35.36
50.07
59.83
65.05
66.36
64.44
60.04
54.04
47.40
41.06
35.72
31.74
29.18
27.84
27.52
28.04
29.25
30.91
32.60
33.67
33.47
31.45
27.46
21.68
14.66
7.03
-0.68
-8.22
-15.68
-23.50
-32.26
-42.48
-54.17
-66.57
-78.03
-86.21
-88.67
-83.68
-70.84
-51.41
-27.92
-3.54
18.77
36.96
50.05
57.96
61.21
60.50
56.57
50.16
42.17
33.53
25.21
18.01
12.41
8.55
6.29
5.34
5.40
6.21
7.46
8.77
9.60
9.40
7.70
4.29
-0.63
-6.57
-12.84
-18.95
-24.72
-30.46
-36.81
-44.57
-54.23
-65.57
-77.41
-87.68
-93.88
-93.79
-86.25
-71.53
-51.35
-28.39
-5.49
15.00
31.61
43.72
51.30
54.63
54.13
50.34
44.03
36.13
27.70
19.74
13.03
8.07
5.04
3.89
4.37
6.10
8.55
11.08
12.99
13.64
12.58
9.64
5.00
-0.86
-7.35
-13.97
-20.47
-27.04
-34.19
-42.59
-52.62
-63.95
-75.32
-84.56
-89.14
-86.91
-76.88
-59.64
-37.24
-12.64
11.16
31.78
47.83
58.78
64.74
66.10
63.41
57.43
49.15
39.71
30.33
21.99
15.33
10.66
7.97
7.08
7.65
9.23
11.21
12.89
13.59
12.78
10.21
5.93
0.29
-6.16
-12.93
-19.68
-26.43
-33.59
-41.80
-51.59
-62.85
-74.52
-84.56
-90.38
-89.65
-81.07
-64.90
-42.88
-17.76
7.44
30.18
48.71
62.18
70.48
73.96
73.23
69.10
62.52
54.52
46.12
38.18
31.32
25.93
22.19
20.13
19.68
20.67
22.65
24.91
26.55
26.71
24.84
20.87
15.21
8.56
1.59
-5.34
-12.20
-19.42
-27.67
-37.67
-49.82
-63.88
-78.56
-91.59
-100.15
-101.55
-94.20
-78.22
-55.46
-29.04
-2.34
21.73
41.33
55.67
64.77
69.04
69.10
65.73
59.83
52.52
44.93
38.09
32.70
29.11
27.27
26.95
27.85
29.65
32.09
34.80
37.30
38.96
39.15
37.41
33.60
27.99
21.22
14.11
7.36
1.29
-4.36
-10.38
-17.83
-27.35
-38.66
-50.07
-58.71
-61.20
-54.68
-37.77
-11.22
22.05
57.49
89.77
113.90
126.23
125.15
111.43
87.90
58.67
28.12
-0.04
-23.40
-40.89
-52.55
-59.03
-61.21
-60.04
-56.40
-51.13
-45.04
-38.93
-33.49
-29.30
-26.72
-25.88
-26.67
-28.81
-31.93
-35.69
-39.89
-44.50
-49.68
-55.78
-63.18
-72.14
-82.41
-92.99
-102.00
-107.00
-105.53
-95.99
-78.20
-53.65
-25.13
4.02
30.73
52.79
69.10
79.46
84.34
84.48
80.79
74.31
66.14
57.41
49.15
42.16
36.94
33.62
32.04
31.93
32.93
34.69
36.81
38.74
39.79
39.26
36.55
31.46
24.30
15.77
6.79
-1.91
-10.03
-17.79
-25.85
-35.01
-45.81
-58.19
-71.21
-83.13
-91.56
-94.09
-88.94
-75.60
-55.11
-29.89
-3.13
21.98
43.01
58.61
68.49
73.06
73.07
69.35
62.72
54.10
44.50
35.05
26.76
20.39
16.29
14.41
14.38
15.68
17.70
19.85
21.52
22.15
21.27
18.60
14.17
8.29
1.49
-5.61
-12.60
-19.38
-26.18
-33.59
-42.24
-52.52
-64.18
-76.06
-86.11
-91.81
-90.82
-81.82
-65.03
-42.27
-16.45
9.22
31.99
50.10
62.77
70.02
72.33
70.43
65.21
57.71
49.07
40.41
32.70
26.60
22.46
20.32
20.00
21.17
23.34
25.93
28.27
29.66
29.52
27.52
23.65
18.17
11.59
4.42
-2.93
-10.35
-18.02
-26.44
-36.20
-47.64
-60.38
-72.99
-83.10
-87.82
-84.73
-72.77
-52.81
-27.52
-0.53
24.56
45.22
60.23
69.63
74.14
74.64
71.96
66.80
59.88
51.97
43.93
36.57
30.62
26.58
24.67
24.79
26.47
28.94
31.20
32.23
31.20
27.61
21.39
12.87
2.68
-8.37
-19.46
-29.96
-39.60
-48.56
-57.50
-67.24
-78.38
-90.73
-102.96
-112.65
-116.91
-113.26
-100.57
-79.61
-52.89
-23.90
3.77
27.41
45.50
57.69
64.42
66.49
64.79
60.21
53.67
46.12
38.46
31.43
25.59
21.22
18.45
17.26
17.52
18.96
21.16
23.44
25.08
25.34
23.73
20.09
14.63
7.85
0.37
-7.28
-14.85
-22.47
-30.66
-40.04
-51.09
-63.68
-76.71
-88.12
-95.19
-95.33
-86.89
-69.84
-45.88
-18.06
10.08
35.33
55.50
69.56
77.55
80.15
78.35
73.22
65.78
57.02
47.82
38.96
31.03
24.51
19.68
16.69
15.51
15.97
17.67
20.01
22.22
23.48
23.08
20.59
15.97
9.55
2.00
-5.97
-13.76
-21.18
-28.44
-36.22
-45.31
-56.21
-68.73
-81.65
-92.77
-99.33
-98.81
-89.78
-72.44
-48.68
-21.65
5.22
28.98
47.77
60.91
68.55
71.32
69.89
64.93
57.16
47.54
37.16
27.18
18.56
11.87
7.30
4.72
3.88
4.47
6.09
8.21
10.13
11.08
10.41
7.84
3.48
-2.17
-8.51
-14.96
-21.24
-27.44
-33.96
-41.46
-50.53
-61.36
-73.34
-84.87
-93.52
-96.58
-91.92
-78.74
-58.01
-32.18
-4.60
21.49
43.60
60.32
71.22
76.52
76.81
72.88
65.67
56.30
46.00
35.94
27.05
19.99
15.08
12.36
11.69
12.75
15.00
17.77
20.27
21.73
21.56
19.45
15.35
9.56
2.57
-5.02
-12.68
-20.20
-27.74
-35.86
-45.27
-56.41
-68.84
-81.05
-90.51
-94.34
-90.25
-77.32
-56.46
-30.19
-1.95
24.83
47.48
64.49
75.41
80.51
80.50
76.25
68.74
59.02
48.27
37.61
28.03
20.19
14.40
10.69
8.88
8.74
9.98
12.18
14.72
16.77
17.47
16.16
12.58
6.96
-0.10
-7.82
-15.52
-22.91
-30.06
-37.55
-46.14
-56.51
-68.76
-81.95
-94.03
-102.13
-103.45
-96.07
-79.82
-56.29
-28.46
0.22
26.68
48.74
65.30
76.07
81.29
81.51
77.51
70.29
61.05
51.05
41.44
33.10
26.50
21.82
18.93
17.70
17.97
19.56
22.13
25.04
27.42
28.38
27.22
23.72
18.22
11.47
4.33
-2.53
-8.88
-14.99
-21.53
-29.35
-39.04
-50.55
-62.85
-73.96
-81.31
-82.46
-75.95
-61.83
-41.72
-18.38
5.11
26.07
42.77
54.40
60.89
62.59
60.07
54.10
45.67
35.97
26.24
17.52
10.45
5.23
1.68
-0.41
-1.19
-0.66
1.27
4.45
8.39
12.20
14.77
15.16
12.91
8.20
1.79
-5.32
-12.24
-18.50
-24.12
-29.56
-35.53
-42.77
-51.79
-62.53
-74.15
-84.81
-92.02
-93.13
-86.26
-70.93
-48.43
-21.47
6.61
32.65
54.38
70.61
81.07
86.07
86.25
82.42
75.54
66.78
57.32
48.27
40.43
34.23
29.69
26.56
24.56
23.42
23.10
23.57
24.77
26.32
27.57
27.71
26.00
22.06
15.97
8.19
-0.67
-10.13
-19.93
-30.12
-40.94
-52.63
-65.28
-78.54
-91.39
-102.04
-108.24
-107.75
-99.18
-82.56
-59.53
-32.98
-6.27
17.66
36.80
50.28
58.15
60.94
59.44
54.52
47.11
38.28
29.07
20.44
13.09
7.42
3.53
1.32
0.60
1.09
2.47
4.29
6.01
6.99
6.69
4.71
0.97
-4.27
-10.51
-17.18
-23.89
-30.59
-37.65
-45.66
-55.18
-66.23
-78.05
-88.97
-96.68
-98.87
-93.86
-81.25
-62.10
-38.71
-14.04
9.04
28.29
42.45
51.15
54.70
53.77
49.16
41.79
32.67
22.91
13.72
6.18
1.15
-0.99
-0.32
2.60
6.95
11.73
15.97
18.78
19.52
17.83
13.73
7.59
0.03
-8.27
-16.73
-25.05
-33.33
-42.06
-51.98
-63.73
-77.31
-91.52
-103.81
-110.67
-108.61
-95.40
-71.07
-38.03
-0.45
36.96
70.15
96.45
114.63
124.55
126.78
122.28
112.51
99.42
85.26
72.19
61.81
54.76
50.76
48.91
48.22
48.01
47.98
48.06
48.09
47.63
45.98
42.52
36.92
29.37
20.42
10.69
0.58
-9.87
-20.99
-33.31
-47.28
-63.00
-79.89
-96.56
-110.81
-120.10
-122.10
-115.51
-100.49
-78.76
-53.12
-26.81
-2.66
17.32
32.11
41.53
45.91
45.91
42.31
35.98
27.89
19.05
10.49
3.10
-2.45
-5.80
-6.90
-6.01
-3.63
-0.44
2.75
5.08
5.81
4.44
0.84
-4.66
-11.40
-18.55
-25.45
-31.79
-37.79
-44.14
-51.74
-61.26
-72.61
-84.68
-95.23
-101.45
-100.74
-91.56
-74.09
-50.21
-23.05
3.91
27.65
46.18
58.64
65.10
66.29
63.26
57.19
49.27
40.66
32.40
25.34
20.13
17.12
16.46
18.04
21.56
26.50
32.14
37.60
41.91
44.21
43.84
40.56
34.54
26.41
16.99
7.07
-2.84
-12.68
-22.87
-34.05
-46.77
-61.07
-76.02
-89.78
-99.80
-103.55
-99.21
-86.38
-66.24
-41.29
-14.68
10.56
32.12
48.70
59.94
66.13
67.97
66.34
62.18
56.46
50.09
43.81
38.18
33.43
29.61
26.67
24.57
23.37
23.19
23.98
25.39
26.75
27.17
25.87
22.44
17.07
10.38
3.19
-3.85
-10.58
-17.31
-24.76
-33.70
-44.61
-57.29
-70.63
-82.58
-90.50
-91.83
-84.82
-69.26
-46.65
-19.89
7.50
32.34
52.36
66.54
74.89
77.99
76.67
71.73
64.02
54.45
44.14
34.24
25.79
19.52
15.71
14.25
14.67
16.40
18.78
21.19
23.04
23.80
23.07
20.65
16.61
11.22
4.93
-1.89
-9.02
-16.49
-24.59
-33.76
-44.24
-55.79
-67.44
-77.40
-83.42
-83.33
-75.80
-60.85
-40.03
-16.05
7.91
29.05
45.51
56.60
62.52
64.01
61.91
56.98
49.90
41.37
32.25
23.55
16.26
11.11
8.45
8.15
9.64
12.12
14.68
16.54
17.14
16.22
13.76
9.96
5.09
-0.62
-7.01
-14.03
-21.75
-30.37
-40.14
-51.12
-62.87
-74.19
-83.04
-87.01
-83.97
-72.87
-54.32
-30.46
-4.50
20.30
41.34
57.22
67.59
72.88
73.83
71.18
65.66
58.00
49.06
39.84
31.37
24.48
19.64
16.88
15.84
15.92
16.47
16.88
16.73
15.73
13.72
10.62
6.46
1.35
-4.55
-11.02
-17.94
-25.37
-33.60
-43.03
-53.87
-65.66
-77.06
-85.84
-89.37
-85.49
-73.27
-53.53
-28.70
-2.16
22.74
43.46
58.67
68.17
72.44
72.28
68.50
61.92
53.38
43.86
34.35
25.77
18.76
13.63
10.39
8.78
8.36
8.62
8.97
8.87
7.88
5.74
2.44
-1.88
-6.91
-12.33
-17.89
-23.46
-29.14
-35.34
-42.66
-51.57
-62.06
-73.19
-82.95
-88.67
-87.76
-78.63
-61.30
-37.56
-10.46
16.57
40.62
59.78
73.32
81.38
84.60
83.80
79.80
73.38
65.42
56.78
48.32
40.81
34.79
30.56
28.19
27.55
28.31
29.96
31.74
32.78
32.21
29.32
23.80
15.79
5.83
-5.29
-16.78
-28.12
-39.16
-50.20
-61.78
-74.24
-87.31
-99.72
-109.31
-113.50
-110.16
-98.40
-79.03
-54.39
-27.68
-2.13
19.77
36.57
47.81
53.72
54.91
52.24
46.74
39.56
31.90
24.76
18.86
14.48
11.63
10.23
10.31
12.01
15.43
20.39
26.23
31.93
36.28
38.33
37.62
34.29
28.97
22.41
15.30
8.00
0.46
-7.70
-17.09
-28.19
-40.91
-54.33
-66.47
-74.70
-76.46
-70.07
-55.51
-34.42
-9.72
15.31
37.81
55.89
68.72
76.23
78.79
76.97
71.51
63.37
53.71
43.74
34.53
26.83
20.97
17.02
14.87
14.36
15.25
17.20
19.61
21.71
22.74
22.09
19.58
15.41
10.08
4.12
-2.06
-8.37
-14.99
-22.40
-31.15
-41.62
-53.69
-66.42
-78.01
-86.05
-88.15
-82.76
-69.78
-50.67
-28.12
-5.22
15.29
31.56
42.71
48.68
49.91
47.03
40.81
32.17
22.12
11.79
2.28
-5.45
-10.73
-13.22
-13.03
-10.66
-6.91
-2.75
0.85
3.14
3.68
2.42
-0.36
-4.20
-8.62
-13.23
-17.88
-22.68
-28.03
-34.47
-42.43
-51.91
-62.12
-71.41
-77.51
-78.11
-71.57
-57.56
-37.24
-13.07
11.87
34.62
52.93
65.58
72.38
73.90
71.16
65.30
57.44
48.54
39.47
31.02
23.93
18.82
16.03
15.61
17.23
20.24
23.78
26.92
28.85
28.96
27.00
23.04
17.47
10.79
3.47
-4.25
-12.45
-21.49
-31.88
-43.86
-57.16
-70.56
-82.03
-89.02
-89.22
-81.30
-65.48
-43.58
-18.52
6.44
28.54
45.95
57.87
64.35
65.95
63.50
57.97
50.36
41.64
32.66
24.12
16.62
10.64
6.59
4.71
4.94
6.79
9.40
11.67
12.66
11.84
9.17
5.06
0.01
-5.59
-11.65
-18.39
-26.17
-35.33
-45.96
-57.74
-69.76
-80.46
-87.79
-89.67
-84.51
-71.83
-52.59
-29.00
-4.03
19.31
38.71
52.87
61.51
65.12
64.61
60.93
54.96
47.44
39.09
30.59
22.64
15.91
10.87
7.75
6.43
6.52
7.39
8.40
8.94
8.62
7.23
4.72
1.14
-3.42
-8.82
-14.99
-21.92
-29.79
-38.86
-49.29
-60.77
-72.17
-81.52
-86.30
-84.25
-74.19
-56.59
-33.56
-8.32
15.81
36.23
51.51
61.44
66.54
67.68
65.70
61.29
55.10
47.73
39.86
32.14
25.13
19.26
14.78
11.77
10.12
9.50
9.42
9.29
8.59
6.93
4.15
0.27
-4.58
-10.22
-16.58
-23.67
-31.70
-40.95
-51.63
-63.53
-75.77
-86.64
-93.85
-95.13
-88.95
-75.14
-54.99
-31.00
-6.16
16.71
35.57
49.29
57.57
60.84
59.90
55.78
49.58
42.35
34.90
27.91
21.86
17.10
13.90
12.38
12.47
13.83
15.89
17.87
19.00
18.67
16.60
12.85
7.79
1.91
-4.37
-10.79
-17.38
-24.41
-32.34
-41.58
-52.24
-63.89
-75.28
-84.44
-89.04
-86.95
-77.10
-59.88
-37.29
-12.33
11.76
32.34
47.90
58.00
62.99
63.58
60.53
54.68
46.94
38.37
30.07
22.94
17.55
14.04
12.27
11.91
12.70
14.32
16.42
18.51
19.93
20.04
18.38
14.80
9.50
2.98
-4.19
-11.50
-18.69
-25.79
-33.10
-41.11
-50.29
-60.79
-72.03
-82.62
-90.40
-92.96
-88.38
-75.96
-56.63
-32.74
-7.47
16.09
35.61
49.86
58.62
62.33
61.72
57.59
50.73
42.03
32.49
23.18
15.09
8.96
5.14
3.54
3.81
5.37
7.67
10.16
12.33
13.72
13.87
12.46
9.36
4.76
-0.94
-7.22
-13.63
-20.04
-26.67
-34.06
-42.78
-53.06
-64.38
-75.27
-83.48
-86.50
-82.38
-70.46
-51.70
-28.42
-3.70
19.54
39.17
54.02
63.77
68.59
68.85
65.05
57.97
48.69
38.57
29.05
21.31
16.03
13.34
12.90
14.15
16.52
19.42
22.28
24.44
25.24
24.14
20.97
15.97
9.77
3.11
-3.51
-10.00
-16.75
-24.43
-33.74
-45.03
-57.93
-71.17
-82.60
-89.55
-89.61
-81.38
-65.05
-42.51
-16.79
8.78
31.42
49.39
62.00
69.34
71.86
70.20
65.03
57.27
48.01
38.45
29.70
22.61
17.59
14.71
13.79
14.47
16.28
18.65
20.86
22.11
21.75
19.39
15.06
9.14
2.21
-5.22
-12.86
-20.72
-29.09
-38.46
-49.30
-61.83
-75.69
-89.60
-101.40
-108.38
-108.04
-98.96
-81.45
-57.48
-30.22
-3.07
21.17
40.75
54.95
63.80
67.75
67.44
63.69
57.45
49.78
41.66
33.96
27.29
22.05
18.45
16.59
16.35
17.38
19.06
20.49
20.73
18.95
14.69
7.97
-0.69
-10.45
-20.34
-29.55
-37.61
-44.49
-50.56
-56.59
-63.44
-71.85
-81.85
-92.57
-102.01
-107.47
-106.26
-96.66
-78.64
-54.01
-25.87
2.28
27.57
48.33
64.05
75.01
81.68
84.51
83.89
80.35
74.76
68.25
61.99
56.83
53.13
50.71
49.13
47.94
46.90
45.95
45.13
44.30
43.06
40.83
37.07
31.57
24.66
17.10
9.77
3.31
-2.25
-7.57
-13.71
-21.83
-32.61
-45.87
-60.28
-73.59
-83.01
-86.00
-80.95
-67.81
-48.09
-24.53
-0.35
21.57
39.25
51.80
59.31
62.41
61.98
58.86
53.82
47.59
40.88
34.46
29.04
25.22
23.34
23.49
25.46
28.82
33.02
37.39
41.22
43.79
44.48
42.89
38.91
32.83
25.20
16.71
7.92
-0.88
-9.88
-19.62
-30.73
-43.62
-57.90
-72.27
-84.51
-92.05
-92.70
-85.42
-70.75
-50.70
-28.16
-6.15
12.98
27.80
37.86
43.33
44.70
42.58
37.59
30.46
22.03
13.28
5.26
-1.10
-5.16
-6.65
-5.73
-2.87
1.17
5.55
9.43
12.12
13.18
12.51
10.28
6.87
2.67
-2.09
-7.39
-13.48
-20.76
-29.53
-39.78
-50.87
-61.44
-69.44
-72.62
-69.11
-58.10
-40.30
-17.80
6.43
29.32
48.46
62.44
70.92
74.31
73.38
68.99
61.97
53.11
43.33
33.59
24.89
18.03
13.46
11.14
10.64
11.25
12.20
12.84
12.70
11.50
9.08
5.45
0.71
-4.92
-11.20
-17.99
-25.33
-33.43
-42.69
-53.31
-65.04
-76.89
-87.03
-93.07
-92.69
-84.34
-67.92
-44.89
-18.05
9.26
34.00
54.05
68.48
77.37
81.34
81.22
77.79
71.86
64.34
56.34
49.01
43.33
39.83
38.52
38.91
40.22
41.61
42.35
41.91
39.98
36.53
31.70
25.79
19.14
12.01
4.52
-3.42
-12.07
-21.81
-32.96
-45.55
-59.02
-71.88
-81.93
-86.60
-83.81
-72.75
-54.24
-30.70
-5.36
18.51
38.47
53.15
62.22
66.05
65.38
61.07
54.04
45.26
35.72
26.37
18.05
11.39
6.77
4.34
3.95
5.13
7.20
9.31
10.67
10.69
9.14
6.12
1.96
-2.94
-8.24
-13.83
-19.83
-26.55
-34.41
-43.79
-54.74
-66.67
-78.07
-86.68
-89.91
-85.70
-73.28
-53.65
-29.32
-3.61
20.34
40.32
55.24
64.94
69.75
70.05
66.29
59.03
49.14
37.86
26.60
16.69
9.02
3.94
1.22
0.24
0.21
0.41
0.31
-0.39
-1.80
-3.92
-6.78
-10.48
-15.17
-21.01
-28.19
-36.75
-46.54
-56.99
-66.96
-74.73
-78.20
-75.47
-65.44
-48.30
-25.74
-0.43
24.62
46.87
64.79
77.87
86.20
90.15
89.99
85.95
78.45
68.28
56.71
45.22
35.16
27.41
22.19
19.14
17.49
16.39
15.10
13.19
10.46
6.94
2.72
-2.15
-7.71
-14.13
-21.62
-30.39
-40.50
-51.75
-63.52
-74.66
-83.47
-88.02
-86.58
-78.25
-63.34
-43.41
-20.97
1.18
20.69
35.97
46.42
52.11
53.56
51.43
46.44
39.36
31.05
22.43
14.40
7.70
2.79
-0.26
-1.70
-2.02
-1.83
-1.68
-1.96
-2.97
-4.80
-7.56
-11.30
-16.03
-21.72
-28.21
-35.36
-43.06
-51.38
-60.48
-70.36
-80.50
-89.57
-95.56
-96.25
-89.94
-76.22
-56.35
-32.90
-9.16
11.89
28.24
39.07
44.57
45.45
42.66
37.11
29.71
21.40
13.08
5.51
-0.78
-5.48
-8.50
-9.79
-9.37
-7.32
-3.93
0.25
4.47
7.85
9.64
9.38
7.01
2.93
-2.20
-7.61
-12.85
-17.93
-23.49
-30.53
-40.03
-52.27
-66.45
-80.51
-91.53
-96.47
-93.11
-80.91
-61.13
-36.61
-10.84
12.88
32.29
46.32
54.93
58.70
58.38
54.71
48.39
40.27
31.29
22.53
15.00
9.42
6.12
5.01
5.69
7.63
10.29
13.16
15.79
17.76
18.66
18.19
16.22
12.83
8.22
2.59
-4.02
-11.77
-20.87
-31.35
-42.57
-53.17
-61.15
-64.33
-61.06
-50.84
-34.62
-14.56
6.55
26.09
42.20
53.99
61.43
64.84
64.66
61.29
55.21
47.13
38.12
29.42
22.18
17.18
14.62
14.12
14.93
16.21
17.21
17.56
17.20
16.27
14.96
13.30
11.04
7.76
2.94
-3.89
-12.93
-23.93
-36.03
-47.65
-56.60
-60.52
-57.49
-46.73
-29.08
-6.86
16.70
38.40
55.80
67.62
73.65
74.35
70.44
62.67
51.85
38.98
25.27
12.14
0.88
-7.59
-12.95
-15.58
-16.33
-16.21
-16.07
-16.31
-16.89
-17.53
-18.04
-18.61
-19.84
-22.60
-27.72
-35.63
-46.24
-58.71
-71.49
-82.50
-89.36
-89.97
-83.07
-68.69
-48.29
-24.41
-0.03
22.18
40.37
53.68
61.96
65.47
64.63
59.98
52.22
42.37
31.70
21.56
13.08
6.97
3.29
1.61
1.16
1.17
1.06
0.55
-0.43
-1.83
-3.72
-6.30
-9.94
-15.13
-22.34
-31.91
-43.73
-57.03
-70.19
-80.87
-86.51
-84.97
-75.35
-58.33
-36.10
-11.71
11.75
31.89
47.36
57.82
63.51
64.94
62.61
57.06
48.97
39.31
29.27
20.15
12.95
8.16
5.67
4.85
4.84
4.86
4.46
3.51
2.09
0.23
-2.14
-5.25
-9.37
-14.67
-21.29
-29.21
-38.34
-48.26
-58.03
-66.05
-70.23
-68.54
-59.71
-43.86
-22.64
1.15
24.41
44.51
59.91
70.15
75.56
76.77
74.37
68.95
61.10
51.66
41.74
32.54
25.11
19.99
17.15
16.00
15.71
15.50
14.87
13.71
12.11
10.25
8.11
5.47
1.91
-3.05
-9.74
-18.34
-28.74
-40.66
-53.40
-65.78
-76.09
-82.24
-82.25
-74.85
-60.07
-39.42
-15.61
8.18
29.11
45.36
56.24
61.99
63.40
61.35
56.63
49.95
41.99
33.56
25.54
18.81
14.02
11.47
11.03
12.17
14.12
16.09
17.39
17.59
16.55
14.34
11.15
7.12
2.38
-3.06
-9.29
-16.50
-24.97
-34.85
-45.93
-57.27
-67.08
-72.96
-72.50
-64.23
-48.18
-26.17
-1.27
23.08
44.10
60.30
71.53
78.63
82.78
84.89
85.31
83.65
79.15
70.99
58.80
43.03
25.02
6.78
-9.49
-22.06
-30.09
-33.78
-34.20
-32.82
-31.02
-29.79
-29.60
-30.52
-32.44
-35.19
-38.68
-42.91
-47.94
-53.85
-60.72
-68.39
-76.25
-82.98
-86.67
-85.19
-76.91
-61.36
-39.69
-14.44
11.13
33.91
51.67
63.42
69.31
70.25
67.52
62.44
56.21
49.85
44.12
39.46
36.01
33.68
32.24
31.45
31.09
31.00
30.96
30.69
29.79
27.88
24.68
20.11
14.36
7.83
0.98
-5.85
-12.51
-19.13
-26.16
-34.16
-43.57
-54.38
-65.74
-75.94
-82.62
-83.50
-77.11
-63.45
-44.09
-21.75
0.53
20.17
35.56
46.05
51.78
53.19
50.86
45.42
37.64
28.44
18.92
10.21
3.32
-1.01
-2.47
-1.23
2.17
6.88
12.02
16.84
20.75
23.39
24.51
23.96
21.71
17.94
12.94
7.13
0.81
-6.00
-13.57
-22.35
-32.65
-44.21
-55.92
-65.86
-71.59
-70.92
-62.67
-47.20
-26.45
-3.44
18.61
37.14
50.77
59.19
62.87
62.50
58.74
52.15
43.40
33.41
23.35
14.54
8.02
4.38
3.55
4.91
7.50
10.34
12.66
14.00
14.21
13.29
11.35
8.47
4.68
-0.01
-5.62
-12.24
-20.03
-29.10
-39.36
-50.21
-60.40
-68.11
-71.28
-68.32
-58.60
-42.84
-22.99
-1.68
18.40
35.17
47.45
54.98
58.07
57.33
53.35
46.74
38.13
28.41
18.69
10.22
4.09
0.88
0.46
2.06
4.57
6.95
8.52
9.09
8.74
7.63
5.76
3.00
-0.85
-5.90
-12.18
-19.66
-28.39
-38.42
-49.45
-60.58
-70.10
-75.76
-75.39
-67.73
-52.98
-32.94
-10.52
11.14
29.49
43.12
51.72
55.81
56.18
53.55
48.47
41.38
32.90
23.90
15.47
8.68
4.28
2.45
2.74
4.25
5.96
7.05
7.13
6.23
4.63
2.58
0.09
-3.03
-7.15
-12.57
-19.44
-27.75
-37.37
-47.94
-58.75
-68.51
-75.38
-77.33
-72.71
-60.98
-43.04
-21.19
1.53
22.16
38.58
49.84
56.02
57.83
56.16
51.77
45.31
37.42
28.90
20.73
13.86
9.04
6.53
6.08
7.06
8.63
10.03
10.74
10.50
9.33
7.31
4.54
1.01
-3.37
-8.71
-15.06
-22.43
-30.79
-40.10
-50.21
-60.61
-70.19
-77.22
-79.61
-75.58
-64.34
-46.59
-24.45
-0.94
20.88
38.68
51.29
58.70
61.66
61.25
58.47
54.02
48.39
41.94
35.13
28.53
22.82
18.61
16.25
15.69
16.50
17.99
19.42
20.18
19.88
18.37
15.66
11.83
7.02
1.41
-4.83
-11.49
-18.55
-26.17
-34.65
-44.16
-54.40
-64.29
-71.97
-75.22
-72.15
-61.98
-45.39
-24.50
-2.18
18.76
36.24
49.22
57.59
61.77
62.36
59.94
55.12
48.63
41.34
34.19
28.03
23.35
20.33
18.81
18.49
19.07
20.30
21.95
23.69
25.04
25.44
24.34
21.37
16.44
9.82
2.01
-6.36
-14.75
-22.86
-30.79
-38.93
-47.81
-57.74
-68.39
-78.66
-86.67
-90.23
-87.56
-77.94
-62.05
-41.89
-20.16
0.47
17.94
31.17
39.90
44.41
45.18
42.74
37.69
30.82
23.16
15.84
9.83
5.74
3.68
3.33
4.18
5.71
7.57
9.58
11.58
13.27
14.20
13.84
11.76
7.85
2.46
-3.74
-9.95
-15.64
-20.69
-25.45
-30.62
-36.87
-44.49
-53.04
-61.28
-67.35
-69.20
-65.23
-54.88
-38.83
-19.00
2.09
21.88
38.38
50.48
57.88
60.92
60.22
56.55
50.74
43.62
36.03
28.75
22.45
17.63
14.55
13.25
13.48
14.77
16.50
17.92
18.44
17.63
15.36
11.79
7.23
2.09
-3.33
-8.88
-14.57
-20.56
-27.10
-34.46
-42.81
-52.01
-61.43
-69.82
-75.43
-76.36
-71.21
-59.57
-42.35
-21.62
-0.07
19.65
35.54
46.55
52.58
54.15
52.18
47.63
41.43
34.45
27.46
21.11
15.90
12.11
9.85
9.09
9.63
11.23
13.46
15.79
17.56
18.16
17.16
14.43
10.21
4.93
-0.87
-6.84
-12.82
-18.89
-25.37
-32.63
-41.02
-50.55
-60.64
-69.96
-76.52
-78.15
-73.21
-61.25
-43.24
-21.48
1.19
22.00
39.03
51.31
58.77
61.88
61.36
57.99
52.53
45.74
38.32
31.00
24.38
18.95
14.98
12.48
11.30
11.10
11.47
11.96
12.13
11.60
9.98
7.07
2.83
-2.56
-8.74
-15.30
-21.89
-28.40
-35.00
-42.06
-50.03
-59.10
-68.96
-78.50
-85.95
-89.17
-86.33
-76.55
-60.30
-39.34
-16.27
6.16
25.75
41.17
51.95
58.24
60.50
59.30
55.23
49.01
41.52
33.74
26.65
21.03
17.29
15.49
15.37
16.59
18.78
21.57
24.53
27.07
28.47
28.07
25.44
20.65
14.25
7.06
-0.14
-6.90
-13.25
-19.59
-26.54
-34.63
-43.96
-53.97
-63.33
-70.06
-71.95
-67.33
-55.63
-37.75
-15.92
6.90
27.84
44.80
56.72
63.51
65.64
63.76
58.53
50.61
40.74
29.84
18.93
9.03
0.93
-4.90
-8.31
-9.46
-8.71
-6.59
-3.70
-0.74
1.64
2.90
2.72
1.04
-1.95
-5.91
-10.41
-15.11
-19.86
-24.80
-30.33
-36.97
-45.01
-54.10
-63.14
-70.24
-73.25
-70.38
-60.84
-45.21
-25.30
-3.70
16.90
34.35
47.40
55.66
59.47
59.49
56.45
51.05
43.94
35.83
27.58
20.11
14.30
10.77
9.67
10.72
13.21
16.22
18.91
20.60
20.98
19.98
17.73
14.44
10.29
5.46
0.09
-5.75
-12.14
-19.33
-27.66
-37.27
-47.80
-58.09
-66.23
-70.04
-67.72
-58.58
-43.37
-24.18
-3.79
15.12
30.58
41.65
48.23
50.76
49.80
45.92
39.67
31.73
22.91
14.21
6.56
0.73
-2.90
-4.34
-4.00
-2.54
-0.78
0.60
1.12
0.59
-0.91
-3.20
-6.12
-9.65
-13.90
-19.09
-25.46
-33.22
-42.52
-53.23
-64.70
-75.53
-83.60
-86.52
-82.29
-70.15
-50.97
-27.16
-2.01
21.27
40.34
54.04
62.35
65.86
65.39
61.70
55.46
47.40
38.40
29.48
21.68
15.78
12.17
10.71
10.88
11.86
12.88
13.28
12.71
11.10
8.48
5.02
0.83
-4.03
-9.57
-15.88
-23.17
-31.67
-41.53
-52.53
-63.81
-73.80
-80.39
-81.51
-75.71
-62.83
-44.08
-21.82
1.08
21.93
38.82
50.82
57.86
60.42
59.24
55.11
48.78
41.01
32.65
24.55
17.56
12.33
9.21
8.15
8.73
10.27
12.02
13.31
13.72
13.00
11.11
8.13
4.14
-0.78
-6.59
-13.35
-21.15
-30.18
-40.53
-51.96
-63.61
-73.90
-80.71
-81.89
-75.97
-62.80
-43.67
-21.08
2.00
22.90
39.85
52.07
59.58
62.84
62.44
58.98
53.10
45.61
37.41
29.46
22.56
17.25
13.78
12.12
12.05
13.15
14.90
16.64
17.71
17.54
15.85
12.63
8.11
2.63
-3.54
-10.29
-17.66
-25.89
-35.23
-45.81
-57.43
-69.18
-79.45
-86.01
-86.63
-79.80
-65.40
-44.95
-21.21
2.54
23.43
39.65
50.59
56.65
58.81
58.21
55.92
52.80
49.50
46.40
43.72
41.52
39.80
38.58
37.92
37.84
38.24
38.84
39.22
38.90
37.50
34.80
30.79
25.62
19.55
12.83
5.69
-1.82
-9.77
-18.44
-28.09
-38.80
-50.15
-61.00
-69.54
-73.63
-71.43
-62.09
-46.23
-25.80
-3.62
17.45
35.16
48.29
56.57
60.39
60.45
57.49
52.24
45.41
37.74
29.98
22.82
16.85
12.50
9.96
9.25
10.13
12.17
14.70
16.92
18.09
17.66
15.42
11.55
6.53
0.94
-4.75
-10.39
-16.16
-22.50
-29.94
-38.78
-48.85
-59.27
-68.36
-73.98
-74.00
-67.04
-53.06
-33.47
-10.86
11.74
31.63
47.07
57.39
62.81
64.05
61.91
57.14
50.43
42.50
34.14
26.26
19.66
15.00
12.52
12.10
13.22
15.13
17.06
18.34
18.51
17.36
14.88
11.21
6.56
1.19
-4.64
-10.81
-17.34
-24.50
-32.68
-42.12
-52.58
-63.08
-71.83
-76.63
-75.49
-67.36
-52.58
-32.91
-11.03
10.15
28.29
41.97
50.78
55.03
55.41
52.67
47.54
40.67
32.79
24.67
17.14
11.01
6.86
4.94
5.10
6.78
9.21
11.58
13.23
13.73
12.95
10.92
7.81
3.79
-0.92
-6.19
-11.94
-18.21
-25.24
-33.34
-42.67
-52.93
-63.10
-71.36
-75.51
-73.55
-64.49
-48.74
-28.18
-5.63
15.96
34.19
47.72
56.20
60.04
59.96
56.77
51.21
44.05
36.08
28.10
20.90
15.09
11.01
8.75
8.13
8.77
10.21
11.85
13.10
13.44
12.51
10.22
6.73
2.35
-2.59
-7.84
-13.27
-18.96
-25.13
-32.16
-40.44
-50.01
-60.33
-69.97
-76.80
-78.51
-73.40
-61.08
-42.83
-21.19
0.74
20.21
35.46
45.90
51.83
53.96
53.11
49.93
44.97
38.82
32.08
25.45
19.57
14.96
11.93
10.61
10.92
12.57
15.11
17.91
20.30
21.59
21.31
19.23
15.46
10.38
4.53
-1.58
-7.63
-13.57
-19.72
-26.56
-34.59
-43.89
-53.79
-62.83
-68.84
-69.60
-63.50
-50.24
-31.00
-8.28
14.79
35.25
51.01
61.14
65.75
65.64
61.86
55.46
47.41
38.64
30.08
22.60
16.83
12.98
10.85
9.91
9.62
9.57
9.54
9.44
9.05
8.02
5.86
2.25
-2.84
-9.04
-15.69
-22.15
-27.99
-33.23
-38.23
-43.62
-50.07
-57.99
-67.31
-77.24
-86.27
-92.35
-93.47
-88.23
-76.39
-59.06
-38.42
-17.11
2.45
18.54
30.37
37.91
41.67
42.39
40.86
37.84
34.06
30.21
26.85
24.39
23.07
22.90
23.70
25.22
27.15
29.20
31.04
32.33
32.69
31.72
29.17
25.03
19.52
13.07
6.14
-0.89
-7.85
-14.79
-21.98
-29.79
-38.50
-48.09
-57.90
-66.63
-72.42
-73.33
-68.00
-56.19
-39.07
-18.90
1.57
19.88
34.41
44.52
50.38
52.51
51.56
48.07
42.60
35.86
28.74
22.20
17.14
14.15
13.35
14.51
17.08
20.40
23.90
27.11
29.74
31.59
32.49
32.26
30.75
27.92
23.87
18.82
13.01
6.55
-0.75
-9.19
-19.06
-30.15
-41.47
-51.27
-57.33
-57.67
-51.18
-38.12
-20.04
0.60
21.09
39.09
53.07
62.40
67.17
67.97
65.58
60.78
54.28
46.73
38.76
31.03
24.17
18.70
14.86
12.56
11.41
10.86
10.36
9.44
7.78
5.15
1.38
-3.58
-9.64
-16.49
-23.70
-30.83
-37.66
-44.26
-51.11
-58.87
-67.99
-78.37
-88.98
-97.94
-102.86
-101.58
-92.97
-77.36
-56.63
-33.62
-11.35
7.76
22.35
32.10
37.47
39.21
38.09
34.81
30.04
24.43
18.71
13.55
9.45
6.71
5.38
5.34
6.42
8.40
10.93
13.59
15.79
16.92
16.42
14.00
9.69
3.86
-2.94
-10.19
-17.59
-25.25
-33.53
-42.91
-53.58
-65.07
-76.09
-84.67
-88.67
-86.43
-77.33
-62.12
-42.73
-21.70
-1.60
15.64
28.91
37.97
43.15
45.04
44.30
41.55
37.32
32.15
26.60
21.19
16.39
12.54
9.80
8.18
7.53
7.67
8.32
9.15
9.77
9.71
8.64
6.36
2.98
-1.18
-5.74
-10.42
-15.23
-20.49
-26.74
-34.48
-43.79
-54.10
-64.03
-71.55
-74.51
-71.28
-61.34
-45.56
-25.94
-5.15
14.27
30.39
42.19
49.44
52.50
52.01
48.71
43.37
36.70
29.39
22.12
15.55
10.28
6.72
5.03
5.04
6.28
8.13
9.98
11.32
11.79
11.19
9.46
6.61
2.77
-1.88
-7.13
-12.86
-19.09
-26.03
-33.98
-43.07
-52.97
-62.67
-70.46
-74.30
-72.42
-63.92
-49.18
-29.87
-8.48
12.33
30.45
44.61
54.38
59.94
61.73
60.19
55.83
49.24
41.21
32.69
24.69
18.10
13.52
11.19
10.95
12.35
14.73
17.29
19.26
20.05
19.34
17.19
13.90
9.92
5.60
1.08
-3.76
-9.28
-15.92
-24.06
-33.72
-44.34
-54.57
-62.40
-65.61
-62.48
-52.38
-36.18
-16.02
5.27
24.99
41.16
52.84
59.99
63.05
62.67
59.43
53.84
46.41
37.83
29.00
20.94
14.55
10.44
8.71
8.97
10.49
12.49
14.24
15.24
15.16
13.79
11.04
6.96
1.73
-4.34
-10.91
-17.78
-25.02
-32.88
-41.70
-51.49
-61.64
-70.70
-76.64
-77.34
-71.35
-58.50
-40.06
-18.47
3.41
23.07
38.90
50.23
57.16
60.12
59.68
56.45
51.08
44.36
37.13
30.20
24.20
19.58
16.51
15.03
14.97
16.01
17.73
19.58
20.96
21.37
20.40
17.89
13.87
8.60
2.47
-4.14
-11.02
-18.32
-26.48
-36.01
-47.12
-59.27
-71.01
-80.13
-84.28
-81.73
-72.06
-56.37
-37.04
-16.98
1.13
15.47
25.25
30.61
32.20
30.85
27.40
22.62
17.19
11.79
7.03
3.34
1.07
0.32
1.07
3.19
6.42
10.38
14.58
18.48
21.50
23.20
23.37
22.04
19.44
15.96
11.94
7.55
2.66
-3.13
-10.31
-19.12
-29.13
-39.00
-46.71
-50.07
-47.40
-38.26
-23.66
-5.70
12.99
30.07
43.90
53.68
59.26
60.87
58.96
54.13
47.17
39.02
30.69
23.07
16.79
12.16
9.21
7.81
7.69
8.58
10.11
11.86
13.34
14.05
13.56
11.68
8.45
4.11
-0.98
-6.53
-12.41
-18.71
-25.75
-33.95
-43.60
-54.54
-65.91
-76.07
-82.83
-84.03
-78.25
-65.40
-46.87
-25.15
-3.20
16.41
31.99
42.84
49.08
51.26
50.06
46.12
40.10
32.73
24.83
17.30
10.94
6.33
3.70
2.95
3.69
5.39
7.44
9.24
10.32
10.35
9.23
7.07
4.14
0.73
-2.96
-6.91
-11.31
-16.51
-22.91
-30.79
-40.00
-49.80
-58.73
-64.82
-66.05
-60.97
-49.22
-31.77
-10.70
11.36
31.90
49.08
61.96
70.43
74.88
75.93
74.21
70.25
64.53
57.51
49.71
41.71
34.06
27.17
21.26
16.26
11.81
7.38
2.46
-3.32
-10.05
-17.47
-25.14
-32.51
-39.17
-44.97
-50.05
-54.81
-59.82
-65.60
-72.40
-79.96
-87.29
-92.70
-94.06
-89.43
-77.64
-58.87
-34.79
-8.14
17.91
40.67
58.44
70.70
77.88
80.89
80.64
77.81
72.96
66.59
59.42
52.33
46.18
41.50
38.24
35.83
33.35
29.92
25.04
18.72
11.43
3.77
-3.73
-10.83
-17.51
-23.95
-30.36
-37.03
-44.26
-52.42
-61.75
-72.00
-82.28
-90.85
-95.48
-94.06
-85.34
-69.50
-48.24
-24.37
-1.02
19.08
34.25
43.95
48.66
49.47
47.72
44.59
40.98
37.40
33.96
30.59
27.15
23.63
20.14
16.94
14.28
12.32
11.11
10.58
10.63
11.05
11.53
11.65
10.88
8.77
5.05
-0.23
-6.78
-14.26
-22.49
-31.41
-40.88
-50.23
-58.11
-62.56
-61.58
-53.88
-39.47
-19.89
2.17
23.68
42.04
55.70
64.31
68.42
69.04
67.14
63.50
58.57
52.71
46.34
40.01
34.34
29.85
26.74
24.85
23.73
22.81
21.56
19.63
16.91
13.42
9.31
4.69
-0.35
-5.86
-11.98
-18.98
-27.16
-36.79
-47.84
-59.85
-71.78
-81.97
-88.42
-89.27
-83.39
-70.87
-53.09
-32.44
-11.67
6.86
21.66
32.21
38.73
41.75
41.79
39.19
34.28
27.55
19.79
12.04
5.35
0.48
-2.27
-3.15
-2.79
-1.93
-1.19
-0.98
-1.46
-2.60
-4.35
-6.65
-9.53
-13.14
-17.73
-23.64
-31.20
-40.50
-51.20
-62.24
-71.96
-78.28
-79.27
-73.80
-61.94
-45.07
-25.53
-5.90
11.59
25.57
35.54
41.57
43.95
42.96
38.89
32.25
23.92
15.17
7.37
1.64
-1.54
-2.36
-1.58
-0.15
1.16
1.99
2.36
2.47
2.50
2.37
1.69
-0.12
-3.71
-9.58
-17.91
-28.37
-39.99
-51.15
-59.76
-63.66
-61.18
-51.68
-35.88
-15.66
6.37
27.57
45.86
60.00
69.56
74.65
75.64
73.00
67.34
59.44
50.27
40.98
32.64
26.05
21.52
18.81
17.34
16.36
15.27
13.75
11.72
9.28
6.47
3.14
-1.01
-6.46
-13.64
-22.91
-34.24
-47.16
-60.53
-72.61
-81.25
-84.37
-80.55
-69.58
-52.53
-31.60
-9.46
11.46
29.36
43.35
53.21
59.09
61.30
60.15
56.10
49.85
42.38
34.84
28.29
23.49
20.64
19.47
19.32
19.46
19.29
18.53
17.16
15.27
12.90
9.88
5.84
0.38
-6.83
-15.96
-26.95
-39.40
-52.50
-64.82
-74.43
-79.22
-77.50
-68.59
-53.23
-33.40
-11.79
8.95
26.84
40.83
50.73
56.89
59.86
60.19
58.29
54.53
49.33
43.24
36.97
31.32
26.99
24.38
23.44
23.67
24.34
24.64
23.98
22.11
19.06
15.07
10.38
5.13
-0.67
-7.17
-14.57
-23.08
-32.83
-43.71
-55.18
-66.07
-74.61
-78.68
-76.40
-66.78
-50.23
-28.63
-4.85
18.02
37.49
52.14
61.68
66.68
68.06
66.76
63.54
58.94
53.44
47.51
41.62
36.26
31.77
28.32
25.86
24.16
22.89
21.71
20.25
18.21
15.38
11.61
6.93
1.46
-4.58
-10.94
-17.45
-24.12
-31.20
-39.14
-48.34
-58.83
-69.88
-79.87
-86.48
-87.37
-80.94
-67.02
-47.06
-23.76
-0.28
20.63
37.21
48.84
55.73
58.53
57.90
54.39
48.55
41.07
32.88
25.03
18.43
13.68
10.95
9.98
10.32
11.40
12.70
13.77
14.20
13.72
12.12
9.34
5.48
0.72
-4.70
-10.58
-16.86
-23.65
-31.23
-39.91
-49.63
-59.70
-68.60
-74.21
-74.41
-67.90
-54.72
-36.40
-15.47
5.29
23.60
38.07
48.23
54.21
56.43
55.39
51.63
45.81
38.69
31.19
24.19
18.44
14.41
12.24
11.76
12.54
14.00
15.50
16.48
16.49
15.24
12.59
8.59
3.42
-2.59
-9.11
-15.92
-23.02
-30.73
-39.47
-49.52
-60.56
-71.32
-79.71
-83.29
-80.08
-69.34
-51.98
-30.31
-7.36
14.01
31.81
45.09
53.79
58.31
59.23
57.09
52.47
46.02
38.52
30.84
23.77
17.95
13.77
11.28
10.29
10.37
10.99
11.61
11.75
11.10
9.47
6.88
3.44
-0.65
-5.11
-9.75
-14.51
-19.64
-25.64
-33.06
-42.18
-52.53
-62.66
-70.32
-73.11
-69.25
-58.29
-41.40
-20.94
0.19
19.45
35.10
46.41
53.42
56.55
56.38
53.51
48.52
42.12
35.05
28.11
22.02
17.36
14.45
13.30
13.65
14.97
16.61
17.93
18.42
17.76
15.91
12.99
9.26
4.99
0.38
-4.56
-10.04
-16.40
-23.99
-32.89
-42.68
-52.35
-60.35
-64.97
-64.78
-59.08
-48.16
-33.23
-16.07
1.35
17.34
30.75
40.97
47.89
51.63
52.45
50.66
46.64
40.95
34.40
27.98
22.73
19.48
18.60
19.95
22.89
26.45
29.64
31.72
32.35
31.75
30.48
29.24
28.45
27.86
26.40
22.35
13.83
-0.47
-20.73
-45.65
-72.54
-97.83
-117.85
-129.57
-131.25
-122.83
-105.88
-83.15
-58.04
-33.71
-12.60
3.92
15.48
22.50
25.70
25.93
23.94
20.38
15.85
10.96
6.33
2.56
0.17
-0.56
0.35
2.57
5.48
8.36
10.54
11.58
11.31
9.81
7.26
3.86
-0.25
-5.01
-10.49
-16.91
-24.51
-33.46
-43.46
-53.57
-62.11
-66.97
-66.21
-58.70
-44.70
-25.77
-4.47
16.39
34.51
48.44
57.77
62.76
64.05
62.31
58.09
51.87
44.20
35.80
27.58
20.43
15.05
11.71
10.28
10.26
11.01
11.89
12.36
12.04
10.70
8.31
4.97
0.90
-3.72
-8.78
-14.38
-20.79
-28.38
-37.35
-47.54
-58.13
-67.61
-73.97
-75.20
-69.91
-57.89
-40.27
-19.35
2.13
21.64
37.49
48.93
55.96
59.04
58.70
55.48
49.89
42.62
34.53
26.65
19.98
15.29
13.00
13.02
14.84
17.70
20.77
23.40
25.22
26.21
26.47
26.19
25.35
23.76
21.05
16.78
10.55
2.12
-8.39
-20.43
-32.75
-43.61
-51.00
-53.23
-49.54
-40.43
-27.59
-13.45
-0.50
9.41
15.39
17.46
16.28
12.75
7.74
1.93
-4.11
-9.91
-14.93
-18.62
-20.51
-20.37
-18.34
-14.91
-10.84
-6.91
-3.67
-1.33
0.18
1.04
1.35
0.99
-0.40
-3.31
-8.19
-15.37
-24.88
-36.35
-48.82
-60.67
-69.80
-74.03
-71.66
-62.09
-46.08
-25.60
-3.36
17.93
36.09
49.80
58.52
62.34
61.66
57.11
49.46
39.69
28.94
18.40
9.24
2.30
-2.04
-3.95
-4.09
-3.40
-2.75
-2.78
-3.71
-5.44
-7.69
-10.24
-13.10
-16.55
-21.02
-26.97
-34.80
-44.57
-55.94
-67.92
-78.78
-86.31
-88.25
-83.01
-70.25
-51.17
-28.21
-4.37
17.59
35.81
49.44
58.54
63.55
65.01
63.35
59.00
52.51
44.67
36.48
28.97
22.98
18.89
16.62
15.69
15.43
15.24
14.70
13.64
11.98
9.73
6.83
3.16
-1.40
-7.02
-13.83
-22.05
-31.85
-43.17
-55.49
-67.54
-77.34
-82.61
-81.33
-72.53
-56.66
-35.59
-12.12
10.87
31.04
47.08
58.58
65.76
69.04
68.87
65.67
59.99
52.58
44.45
36.62
30.00
25.13
22.13
20.74
20.48
20.75
21.04
20.96
20.24
18.75
16.37
13.06
8.75
3.41
-2.97
-10.40
-18.97
-28.79
-39.90
-51.93
-63.78
-73.60
-79.04
-77.97
-69.22
-53.21
-31.89
-8.22
14.69
34.40
49.52
59.70
65.25
66.75
64.76
59.84
52.63
43.92
34.69
25.96
18.62
13.28
10.15
9.02
9.37
10.51
11.71
12.43
12.33
11.32
9.42
6.72
3.25
-1.00
-6.11
-12.19
-19.46
-28.14
-38.40
-49.99
-61.96
-72.52
-79.29
-79.95
-73.08
-58.75
-38.67
-15.73
6.90
26.64
41.94
52.42
58.38
60.35
58.84
54.24
47.06
38.08
28.41
19.26
11.77
6.60
3.86
3.18
3.85
5.13
6.38
7.21
7.34
6.67
5.09
2.55
-0.97
-5.48
-11.00
-17.64
-25.58
-35.04
-45.91
-57.53
-68.38
-76.27
-78.91
-74.57
-62.84
-44.87
-23.07
-0.39
20.47
37.64
50.25
58.18
61.67
61.12
57.01
50.00
41.07
31.48
22.50
15.19
10.11
7.28
6.26
6.41
7.04
7.64
7.88
7.61
6.80
5.44
3.50
0.83
-2.76
-7.53
-13.78
-21.75
-31.49
-42.63
-54.17
-64.37
-70.99
-71.84
-65.46
-51.71
-31.99
-8.91
14.48
35.45
52.22
64.06
71.08
73.81
72.87
68.81
62.23
53.88
44.75
35.96
28.51
23.05
19.70
18.06
17.43
17.06
16.38
15.16
13.33
10.94
7.97
4.35
-0.06
-5.36
-11.63
-18.97
-27.52
-37.33
-48.18
-59.28
-69.06
-75.38
-75.98
-69.23
-54.78
-33.89
-9.21
15.88
38.08
54.92
65.24
69.10
67.52
61.96
53.83
44.31
34.32
24.64
16.01
9.15
4.57
2.40
2.25
3.30
4.55
5.16
4.66
2.98
0.36
-2.94
-6.72
-11.02
-15.97
-21.80
-28.73
-36.93
-46.53
-57.33
-68.72
-79.34
-87.26
-90.26
-86.54
-75.37
-57.53
-35.14
-11.10
11.72
31.21
46.25
56.68
62.90
65.45
64.85
61.56
56.13
49.29
41.97
35.15
29.59
25.78
23.73
23.13
23.46
24.12
24.58
24.44
23.49
21.67
19.00
15.54
11.33
6.38
0.62
-6.06
-13.86
-23.02
-33.63
-45.37
-57.19
-67.24
-73.09
-72.47
-64.04
-48.10
-26.59
-2.65
20.36
39.79
54.12
63.08
67.14
67.11
63.80
57.98
50.41
41.93
33.38
25.55
19.02
14.09
10.81
9.01
8.38
8.53
9.01
9.37
9.27
8.46
6.86
4.45
1.26
-2.70
-7.53
-13.42
-20.66
-29.56
-40.27
-52.54
-65.51
-77.56
-86.52
-90.09
-86.55
-75.34
-57.46
-35.22
-11.72
10.06
27.92
40.83
48.82
52.57
52.88
50.41
45.59
38.86
30.81
22.34
14.48
8.20
4.12
2.36
2.52
3.90
5.71
7.29
8.23
8.36
7.68
6.18
3.82
0.46
-4.04
-9.82
-16.98
-25.58
-35.58
-46.66
-58.02
-68.19
-75.22
-77.04
-72.16
-60.22
-42.31
-20.73
1.63
22.07
38.74
50.77
58.16
61.36
60.90
57.27
50.93
42.58
33.21
24.07
16.38
11.01
8.19
7.50
8.11
9.03
9.50
9.12
7.85
5.88
3.38
0.47
-2.95
-7.08
-12.16
-18.46
-26.18
-35.41
-45.97
-57.17
-67.68
-75.57
-78.71
-75.37
-64.87
-47.97
-26.76
-4.10
17.16
34.86
47.88
56.03
59.75
59.70
56.51
50.79
43.17
34.47
25.67
17.85
11.92
8.39
7.17
7.65
8.93
10.03
10.31
9.49
7.68
5.15
2.14
-1.34
-5.46
-10.52
-16.83
-24.65
-34.10
-45.03
-56.84
-68.28
-77.48
-82.24
-80.59
-71.55
-55.54
-34.43
-11.03
11.69
31.34
46.51
56.77
62.39
63.89
61.88
56.91
49.66
40.95
31.81
23.28
16.32
11.51
8.98
8.36
8.94
9.82
10.26
9.84
8.45
6.26
3.50
0.30
-3.37
-7.71
-12.96
-19.40
-27.24
-36.60
-47.34
-58.78
-69.56
-77.61
-80.65
-76.85
-65.58
-47.80
-25.80
-2.59
18.98
36.93
50.32
59.11
63.67
64.51
62.09
56.86
49.46
40.68
31.52
22.90
15.61
10.10
6.47
4.47
3.64
3.40
3.19
2.57
1.27
-0.80
-3.64
-7.20
-11.45
-16.43
-22.26
-29.25
-37.71
-47.90
-59.56
-71.59
-81.87
-87.54
-85.79
-74.83
-54.66
-27.29
3.73
34.31
60.87
81.06
93.99
99.89
99.77
94.86
86.41
75.50
63.07
49.99
37.08
25.16
14.93
6.88
1.15
-2.45
-4.40
-5.26
-5.58
-5.74
-6.06
-6.83
-8.24
-10.47
-13.64
-17.79
-22.96
-29.26
-36.93
-46.14
-56.80
-68.20
-78.91
-86.84
-89.79
-86.07
-75.19
-58.07
-36.85
-14.35
6.76
24.47
37.76
46.41
50.73
51.19
48.32
42.64
34.75
25.56
16.11
7.56
0.90
-3.29
-4.97
-4.64
-3.11
-1.30
0.07
0.56
0.06
-1.33
-3.43
-6.08
-9.28
-13.16
-17.98
-24.12
-31.88
-41.33
-51.95
-62.53
-71.15
-75.64
-74.16
-65.81
-51.03
-31.53
-9.83
11.49
30.29
45.30
56.03
62.55
65.13
64.14
59.99
53.24
44.78
35.77
27.52
21.10
17.12
15.52
15.66
16.57
17.31
17.30
16.38
14.68
12.46
9.85
6.80
3.14
-1.37
-6.94
-13.80
-22.07
-31.72
-42.23
-52.40
-60.32
-63.88
-61.31
-51.97
-36.69
-17.57
2.68
21.50
37.13
48.71
56.17
59.76
59.78
56.48
50.19
41.48
31.25
20.63
10.77
2.61
-3.36
-7.12
-9.05
-9.74
-9.79
-9.67
-9.69
-10.09
-11.02
-12.65
-15.13
-18.52
-22.87
-28.24
-34.80
-42.84
-52.56
-63.74
-75.36
-85.53
-91.82
-91.93
-84.48
-69.63
-49.02
-25.37
-1.64
19.74
37.23
50.24
58.85
63.38
64.25
61.94
56.99
50.14
42.34
34.53
27.58
22.02
18.09
15.69
14.48
14.03
13.88
13.67
13.13
12.11
10.48
8.16
5.01
0.88
-4.39
-10.99
-19.11
-28.89
-40.17
-52.35
-64.08
-73.36
-77.88
-75.65
-65.71
-48.63
-26.44
-2.10
21.27
41.25
56.50
66.73
72.39
74.19
72.81
68.85
62.89
55.68
48.08
40.96
35.06
30.84
28.45
27.81
28.60
30.34
32.35
33.90
34.32
33.25
30.73
27.20
23.26
19.42
15.85
12.23
7.86
1.89
-6.32
-16.73
-28.26
-38.69
-45.01
-44.09
-33.69
-13.41
14.83
46.89
77.23
100.35
112.14
110.86
97.46
74.95
47.38
18.67
-8.24
-31.62
-50.70
-65.25
-75.24
-80.72
-82.06
-80.04
-75.81
-70.67
-65.72
-61.64
-58.58
-56.39
-54.79
-53.64
-52.98
-53.02
-54.08
-56.42
-60.25
-65.65
-72.51
-80.41
-88.43
-95.13
-98.63
-97.04
-88.97
-74.10
-53.41
-29.07
-3.86
19.54
39.11
53.84
63.53
68.54
69.40
66.70
61.10
53.43
44.77
36.31
29.15
24.09
21.44
20.99
22.13
24.02
25.84
26.94
26.97
25.85
23.72
20.79
17.16
12.79
7.49
0.96
-7.10
-16.84
-28.08
-40.11
-51.58
-60.56
-64.93
-62.96
-53.89
-38.35
-18.20
3.85
25.09
43.40
57.50
66.96
71.86
72.44
69.08
62.32
53.03
42.43
31.96
22.95
16.33
12.37
10.72
10.65
11.27
11.83
11.91
11.31
10.02
8.10
5.52
2.19
-2.10
-7.64
-14.73
-23.59
-34.22
-46.05
-57.83
-67.65
-73.25
-72.67
-64.86
-50.14
-30.17
-7.54
15.02
35.19
51.55
63.46
70.82
73.78
72.58
67.65
59.75
50.03
39.95
30.92
23.96
19.42
16.97
15.88
15.34
14.79
14.04
13.24
12.59
12.11
11.48
10.05
6.97
1.53
-6.73
-17.81
-31.27
-46.18
-61.09
-74.06
-82.85
-85.39
-80.30
-67.49
-48.31
-25.28
-1.48
20.32
38.17
51.18
59.27
62.84
62.44
58.63
52.07
43.57
34.19
25.11
17.46
11.94
8.73
7.40
7.14
7.09
6.66
5.64
4.16
2.39
0.38
-2.10
-5.46
-10.15
-16.47
-24.60
-34.55
-46.13
-58.71
-71.01
-81.07
-86.51
-85.21
-76.04
-59.42
-37.29
-12.62
11.46
32.44
48.90
60.40
67.26
70.05
69.36
65.74
59.81
52.35
44.34
36.82
30.72
26.62
24.64
24.44
25.39
26.71
27.72
27.95
27.22
25.50
22.89
19.42
15.10
9.84
3.59
-3.83
-12.58
-22.84
-34.53
-46.94
-58.54
-67.02
-69.82
-64.96
-51.88
-31.78
-7.41
17.73
40.47
58.62
71.27
78.52
81.12
79.96
75.93
69.90
62.65
54.94
47.43
40.67
34.99
30.60
27.50
25.46
24.07
22.83
21.21
18.82
15.51
11.31
6.36
0.83
-5.18
-11.67
-18.72
-26.53
-35.40
-45.58
-57.06
-69.25
-80.77
-89.51
-93.13
-89.75
-78.64
-60.66
-38.08
-14.02
8.48
27.18
40.96
49.76
54.15
54.86
52.54
47.69
40.75
32.39
23.46
14.97
7.88
2.82
-0.02
-0.90
-0.41
0.69
1.71
2.10
1.56
0.06
-2.32
-5.43
-9.22
-13.72
-19.11
-25.60
-33.39
-42.65
-53.30
-64.88
-76.29
-85.71
-90.90
-89.78
-81.13
-65.25
-44.00
-20.34
2.56
22.20
37.20
47.27
52.84
54.54
52.90
48.33
41.31
32.55
23.14
14.28
7.08
2.31
0.14
0.23
1.80
3.93
5.74
6.66
6.39
4.96
2.55
-0.64
-4.50
-9.04
-14.37
-20.68
-28.13
-36.83
-46.73
-57.35
-67.63
-75.87
-79.94
-77.89
-68.58
-52.29
-30.75
-6.77
16.51
36.42
51.31
60.67
64.92
64.95
61.82
56.40
49.42
41.55
33.48
25.97
19.77
15.41
13.03
12.35
12.69
13.29
13.48
12.94
11.61
9.60
6.98
3.77
-0.16
-4.91
-10.60
-17.30
-25.11
-34.22
-44.68
-56.27
-68.04
-78.27
-84.67
-84.95
-77.67
-62.88
-42.24
-18.67
4.59
24.82
40.49
51.19
57.33
59.60
58.56
54.60
48.12
39.76
30.46
21.42
13.75
8.26
5.26
4.48
5.22
6.54
7.53
7.53
6.30
4.06
1.42
-0.91
-2.35
-2.70
-2.24
-1.66
-1.98
-4.31
-9.57
-18.24
-29.96
-43.28
-55.74
-64.34
-66.39
-60.41
-46.71
-27.38
-5.64
15.15
32.36
44.63
51.79
54.48
53.62
50.13
44.77
38.15
30.87
23.59
16.95
11.52
7.66
5.48
4.78
5.18
6.18
7.28
8.00
7.96
6.90
4.66
1.29
-3.12
-8.35
-14.21
-20.62
-27.63
-35.48
-44.45
-54.63
-65.56
-75.92
-83.61
-86.13
-81.44
-68.73
-48.93
-24.60
0.78
23.87
42.32
55.14
62.58
65.52
64.97
61.69
56.24
49.12
40.97
32.65
25.05
18.93
14.71
12.42
11.83
12.49
13.89
15.41
16.43
16.36
14.75
11.46
6.62
0.64
-5.97
-12.79
-19.59
-26.50
-33.95
-42.52
-52.61
-63.98
-75.37
-84.51
-88.68
-85.55
-74.15
-55.35
-31.68
-6.55
16.80
36.06
50.17
59.12
63.48
64.00
61.36
56.19
49.16
41.03
32.72
25.12
19.06
15.06
13.21
13.21
14.41
16.01
17.27
17.67
16.87
14.75
11.33
6.72
1.14
-5.16
-11.93
-19.12
-26.86
-35.53
-45.42
-56.41
-67.62
-77.28
-83.02
-82.60
-74.67
-59.42
-38.61
-15.11
7.95
28.01
43.58
54.21
60.20
62.07
60.38
55.56
48.15
38.94
28.97
19.51
11.72
6.40
3.73
3.24
4.04
5.11
5.69
5.42
4.41
2.91
1.16
-0.87
-3.54
-7.31
-12.68
-19.99
-29.33
-40.42
-52.47
-64.08
-73.29
-77.94
-76.15
-67.07
-51.26
-30.67
-8.09
13.58
32.13
46.32
55.83
60.83
61.63
58.56
52.04
42.82
32.05
21.24
11.82
4.79
0.48
-1.54
-2.12
-2.18
-2.34
-2.80
-3.41
-3.95
-4.41
-5.16
-6.90
-10.50
-16.61
-25.48
-36.68
-49.14
-61.12
-70.53
-75.28
-73.80
-65.45
-50.81
-31.55
-10.04
11.24
30.17
45.32
55.89
61.62
62.52
58.85
51.17
40.47
28.15
15.86
5.18
-2.78
-7.61
-9.64
-9.76
-8.94
-8.01
-7.38
-7.12
-7.12
-7.37
-8.12
-9.95
-13.67
-20.03
-29.38
-41.32
-54.53
-66.82
-75.55
-78.38
-73.89
-62.11
-44.47
-23.40
-1.56
18.74
35.92
49.08
57.78
61.81
61.11
55.94
47.07
35.86
24.06
13.44
5.31
0.23
-2.10
-2.59
-2.31
-2.10
-2.32
-2.89
-3.57
-4.30
-5.34
-7.38
-11.30
-17.86
-27.41
-39.58
-53.12
-66.00
-75.66
-79.66
-76.29
-65.16
-47.36
-25.23
-1.64
20.65
39.62
54.15
63.84
68.73
69.08
65.24
57.85
47.97
37.03
26.70
18.40
12.94
10.34
9.82
10.23
10.49
9.98
8.67
6.91
5.04
3.08
0.55
-3.41
-9.70
-18.93
-31.06
-45.24
-59.76
-72.22
-80.02
-80.91
-73.71
-58.68
-37.53
-13.02
11.82
34.42
53.13
67.22
76.63
81.60
82.44
79.50
73.36
65.01
55.77
47.13
40.34
36.08
34.28
34.27
35.05
35.73
35.82
35.28
34.37
33.40
32.48
31.39
29.50
25.83
19.29
8.91
-5.74
-24.25
-45.12
-65.80
-83.15
-94.03
-96.15
-88.65
-72.44
-49.95
-24.53
0.36
21.96
38.62
49.78
55.75
57.29
55.21
50.41
43.78
36.28
28.94
22.64
17.99
15.24
14.27
14.70
15.98
17.48
18.61
18.87
17.95
15.72
12.25
7.76
2.46
-3.44
-9.91
-17.10
-25.36
-35.12
-46.67
-59.82
-73.47
-85.61
-93.52
-94.56
-87.03
-70.85
-47.74
-20.74
6.60
31.21
51.03
65.15
73.56
76.74
75.47
70.68
63.46
55.06
46.68
39.30
33.49
29.39
26.87
25.68
25.58
26.39
27.81
29.36
30.35
30.06
27.92
23.69
17.54
9.97
1.58
-7.09
-15.73
-24.25
-32.79
-41.70
-51.47
-62.46
-74.68
-87.35
-98.71
-106.24
-107.22
-99.72
-83.38
-59.76
-31.94
-3.63
21.88
42.38
57.01
65.83
69.41
68.48
63.77
56.22
47.00
37.52
29.07
22.56
18.33
16.14
15.51
15.92
17.05
18.73
20.71
22.54
23.51
22.86
20.02
14.93
8.02
0.07
-8.10
-15.88
-23.08
-29.92
-36.96
-44.95
-54.51
-65.75
-77.96
-89.40
-97.59
-99.86
-94.30
-80.36
-59.30
-33.81
-7.27
17.16
37.24
51.88
61.02
65.20
65.18
61.72
55.58
47.65
38.96
30.67
23.86
19.29
17.17
17.25
18.86
21.18
23.44
25.05
25.57
24.72
22.31
18.30
12.83
6.29
-0.88
-8.26
-15.66
-23.27
-31.54
-41.03
-52.03
-64.19
-76.26
-86.14
-91.35
-89.69
-80.04
-62.80
-39.95
-14.46
10.46
32.17
49.07
60.59
66.90
68.62
66.52
61.51
54.66
47.11
39.98
34.03
29.63
26.71
24.98
24.12
23.94
24.26
24.91
25.50
25.51
24.42
21.88
17.83
12.54
6.47
0.10
-6.22
-12.40
-18.65
-25.49
-33.52
-43.08
-53.81
-64.35
-72.36
-75.16
-70.51
-57.56
-37.32
-12.41
13.64
37.47
56.73
70.36
78.40
81.50
80.47
76.07
69.04
60.26
50.77
41.65
33.81
27.82
23.84
21.74
21.27
22.16
24.07
26.51
28.78
29.98
29.34
26.43
21.31
14.60
7.17
-0.19
-6.97
-13.16
-19.19
-25.76
-33.70
-43.64
-55.60
-68.71
-81.09
-90.07
-92.98
-87.98
-74.83
-55.16
-31.98
-8.86
11.12
26.02
35.19
39.05
38.62
35.12
29.71
23.55
17.68
12.93
9.77
8.16
7.55
7.23
6.72
6.05
5.94
7.38
11.13
17.12
24.31
30.98
35.40
36.58
34.63
30.67
26.22
22.49
19.86
17.81
15.19
10.73
3.62
-6.17
-17.65
-28.92
-37.43
-40.56
-36.33
-24.05
-4.67
19.47
45.32
70.13
92.09
110.60
125.88
138.35
148.15
154.92
158.15
157.72
154.27
149.40
145.46
144.98
149.91
160.73
175.78
191.33
202.33
204.07
193.76
171.47
139.80
102.63
63.41
23.97
-15.53
-55.99
-98.50
-143.80
-192.15
-243.13
-295.34
-346.11
-391.57
-427.50
-450.57
-459.31
-454.15
-436.74
-408.88
-371.93
-327.14
-276.35
-222.66
-170.11
-122.69
-83.16
-52.35
-29.46
-12.95
-1.47
5.79
9.31
9.62
7.82
5.50
4.31
5.43
9.22
15.11
21.95
28.52
33.91
37.81
40.32
41.75
42.30
41.99
40.61
38.01
34.17
29.33
23.88
18.20
12.51
6.71
0.38
-7.07
-16.22
-27.26
-39.67
-52.03
-62.11
-67.33
-65.52
-55.62
-38.16
-15.20
10.23
34.93
56.24
72.54
83.23
88.59
89.40
86.65
81.38
74.60
67.22
60.07
53.77
48.66
44.82
42.01
39.90
38.14
36.52
34.95
33.42
31.93
30.40
28.71
26.71
24.26
21.32
17.87
13.81
8.93
2.82
-5.07
-15.15
-27.25
-40.32
-52.32
-60.58
-62.57
-56.83
-43.49
-24.31
-2.17
19.91
39.55
55.42
67.14
74.87
78.88
79.30
76.26
70.02
61.30
51.26
41.31
32.83
26.77
23.53
22.88
24.16
26.55
29.23
31.60
33.32
34.32
34.71
34.58
33.80
31.87
27.88
20.74
9.49
-6.10
-25.17
-45.65
-64.45
-78.24
-84.23
-81.03
-68.98
-50.08
-27.37
-4.06
17.15
34.44
46.94
54.46
57.15
55.40
49.73
40.90
29.91
17.98
6.38
-3.76
-11.63
-16.93
-19.79
-20.75
-20.54
-19.85
-19.15
-18.66
-18.43
-18.49
-19.01
-20.32
-22.92
-27.29
-33.82
-42.60
-53.30
-64.98
-76.00
-84.22
-87.37
-83.74
-72.74
-55.27
-33.43
-10.02
12.30
31.54
46.60
57.12
63.12
64.75
62.25
56.02
46.86
35.96
24.74
14.59
6.50
0.86
-2.54
-4.36
-5.38
-6.23
-7.26
-8.47
-9.76
-11.05
-12.45
-14.30
-17.13
-21.51
-27.95
-36.70
-47.54
-59.60
-71.19
-79.99
-83.56
-80.01
-68.67
-50.43
-27.55
-3.04
20.23
40.11
55.46
65.98
71.82
73.27
70.64
64.35
55.15
44.08
32.50
21.74
12.94
6.79
3.37
2.30
2.89
4.36
6.12
7.81
9.25
10.34
10.88
10.53
8.85
5.45
0.10
-7.25
-16.42
-26.99
-38.18
-48.63
-56.50
-59.70
-56.49
-46.15
-29.27
-7.75
15.69
38.30
57.77
72.63
82.20
86.42
85.70
80.83
72.92
63.29
53.20
43.70
35.42
28.57
23.12
18.93
15.95
14.15
13.45
13.62
14.16
14.39
13.58
11.22
7.11
1.50
-5.10
-12.06
-18.93
-25.57
-32.27
-39.61
-48.33
-58.95
-71.38
-84.54
-96.33
-104.00
-104.82
-97.03
-80.42
-56.59
-28.47
0.49
27.11
49.14
65.39
75.58
80.03
79.48
74.91
67.43
58.17
48.20
38.39
29.41
21.73
15.65
11.36
8.93
8.23
8.93
10.45
12.01
12.79
12.10
9.53
5.06
-0.97
-7.96
-15.29
-22.55
-29.68
-37.09
-45.51
-55.67
-67.81
-81.25
-94.17
-103.82
-107.16
-101.88
-87.16
-64.14
-35.61
-5.26
23.28
47.33
65.49
77.48
83.81
85.33
82.90
77.35
69.45
59.97
49.68
39.40
29.96
22.07
16.33
13.00
11.97
12.73
14.47
16.26
17.23
16.74
14.47
10.42
4.86
-1.80
-9.13
-16.86
-25.03
-34.00
-44.32
-56.29
-69.55
-82.68
-93.25
-98.33
-95.36
-83.08
-62.07
-34.71
-4.57
24.57
49.69
68.95
81.80
88.55
90.00
87.08
80.74
71.93
61.61
50.75
40.24
30.82
23.03
17.22
13.56
12.02
12.28
13.78
15.77
17.43
18.04
17.15
14.62
10.56
5.28
-0.90
-7.74
-15.24
-23.68
-33.52
-45.07
-58.04
-71.14
-82.03
-87.79
-85.82
-74.73
-55.04
-29.08
-0.37
27.37
51.12
69.12
80.82
86.58
87.17
83.51
76.53
67.17
56.46
45.44
35.04
26.04
18.92
13.91
11.00
10.00
10.53
12.08
13.97
15.55
16.21
15.55
13.38
9.77
4.93
-0.85
-7.37
-14.62
-22.80
-32.26
-43.14
-54.97
-66.44
-75.38
-79.23
-75.89
-64.43
-45.60
-21.73
3.94
28.06
48.03
62.43
71.00
74.24
73.05
68.35
60.95
51.65
41.30
30.89
21.47
13.91
8.77
6.16
5.79
7.08
9.36
11.96
14.21
15.56
15.58
14.00
10.85
6.43
1.20
-4.40
-10.15
-16.20
-23.01
-31.15
-40.85
-51.62
-62.04
-69.91
-72.80
-68.86
-57.51
-39.75
-17.92
4.96
26.02
43.17
55.35
62.39
64.71
63.04
58.23
51.20
42.91
34.28
26.11
19.01
13.33
9.25
6.77
5.83
6.26
7.76
9.88
12.06
13.68
14.20
13.32
10.97
7.33
2.71
-2.56
-8.28
-14.41
-21.09
-28.50
-36.70
-45.44
-53.90
-60.73
-64.17
-62.59
-54.94
-41.30
-22.96
-2.18
18.33
36.10
49.41
57.55
60.73
59.82
56.03
50.54
44.32
38.03
32.11
26.80
22.34
19.01
17.14
17.01
18.85
22.61
27.99
34.29
40.38
44.71
45.59
41.57
32.05
17.52
-0.38
-19.36
-37.19
-52.40
-64.65
-74.52
-82.93
-90.36
-96.45
-99.93
-99.20
-93.02
-81.17
-64.65
-45.49
-26.12
-8.71
5.31
15.37
21.49
23.99
23.25
19.63
13.66
6.13
-1.90
-9.26
-14.93
-18.28
-19.24
-18.20
-15.84
-12.89
-9.89
-7.20
-5.02
-3.45
-2.65
-2.75
-3.86
-5.98
-8.96
-12.57
-16.60
-20.98
-25.84
-31.36
-37.57
-44.05
-49.85
-53.52
-53.54
-48.84
-39.23
-25.65
-9.95
5.59
18.92
28.69
34.39
36.27
34.95
31.15
25.49
18.55
10.90
3.24
-3.63
-8.97
-12.25
-13.35
-12.57
-10.52
-7.92
-5.46
-3.60
-2.62
-2.63
-3.68
-5.74
-8.69
-12.33
-16.40
-20.71
-25.28
-30.37
-36.41
-43.62
-51.78
-59.92
-66.40
-69.26
-66.86
-58.50
-44.76
-27.44
-9.04
7.88
21.41
30.57
35.33
36.29
34.30
30.13
24.41
17.67
10.45
3.40
-2.67
-6.99
-8.91
-8.15
-4.88
0.29
6.46
12.65
18.04
22.10
24.61
25.76
26.02
26.16
27.09
29.51
33.70
39.15
44.59
48.24
48.44
44.35
36.40
26.31
16.51
9.36
6.36
7.71
12.46
19.00
25.66
31.14
34.74
36.18
35.53
32.97
28.86
23.70
18.13
12.79
8.16
4.50
1.83
0.03
-1.07
-1.60
-1.71
-1.55
-1.41
-1.68
-2.78
-5.07
-8.68
-13.53
-19.28
-25.49
-31.72
-37.69
-43.35
-48.93
-54.80
-61.23
-68.17
-74.90
-80.11
-82.15
-79.58
-71.65
-58.74
-42.28
-24.36
-7.20
7.42
18.41
25.35
28.41
28.11
25.17
20.46
14.87
9.18
3.98
-0.40
-3.84
-6.36
-7.98
-8.67
-8.40
-7.21
-5.36
-3.37
-1.87
-1.52
-2.70
-5.50
-9.65
-14.66
-20.02
-25.27
-30.20
-34.85
-39.48
-44.50
-50.31
-56.98
-64.10
-70.62
-74.99
-75.55
-71.02
-61.03
-46.30
-28.62
-10.29
6.39
19.67
28.71
33.44
34.42
32.41
28.24
22.66
16.44
10.45
5.44
2.06
0.51
0.59
1.78
3.50
5.33
7.11
8.87
10.56
11.98
12.61
11.89
9.40
5.09
-0.64
-7.03
-13.27
-18.77
-23.36
-27.36
-31.51
-36.62
-43.31
-51.61
-60.78
-69.32
-75.27
-76.70
-72.34
-61.97
-46.58
-28.12
-8.95
8.72
23.31
33.97
40.48
43.06
42.13
38.34
32.46
25.43
18.25
11.81
6.78
3.49
1.99
2.10
3.53
5.95
8.97
12.12
14.86
16.60
16.82
15.23
11.82
6.95
1.18
-4.90
-10.86
-16.58
-22.28
-28.45
-35.60
-44.01
-53.44
-62.88
-70.62
-74.56
-72.82
-64.43
-49.69
-30.30
-8.87
11.75
29.24
42.19
50.18
53.60
53.24
49.97
44.64
38.02
30.83
23.80
17.62
12.93
10.15
9.45
10.70
13.43
16.89
20.25
22.69
23.61
22.77
20.22
16.31
11.46
6.07
0.41
-5.38
-11.39
-17.83
-25.08
-33.48
-43.09
-53.37
-62.95
-69.79
-71.70
-67.01
-55.25
-37.44
-15.83
6.72
27.52
44.57
56.85
64.22
67.13
66.29
62.53
56.68
49.65
42.36
35.81
30.86
28.08
27.58
28.98
31.52
34.36
36.71
38.02
37.91
36.14
32.58
27.27
20.50
12.89
5.16
-2.04
-8.49
-14.41
-20.54
-27.77
-36.76
-47.52
-59.07
-69.46
-76.05
-76.33
-68.74
-53.38
-32.04
-7.77
16.03
36.57
52.18
62.45
67.78
68.96
66.80
62.02
55.42
47.86
40.34
33.77
28.84
25.79
24.54
24.73
25.96
27.88
30.19
32.53
34.39
35.10
34.05
30.84
25.52
18.60
10.86
3.12
-4.08
-10.59
-16.77
-23.27
-30.84
-40.04
-50.79
-62.17
-72.38
-79.02
-79.75
-73.10
-58.90
-38.58
-14.72
9.57
31.51
49.15
61.59
68.86
71.52
70.37
66.31
60.19
52.95
45.51
38.73
33.27
29.41
27.03
25.75
25.09
24.73
24.54
24.50
24.53
24.33
23.38
21.16
17.26
11.69
4.87
-2.49
-9.69
-16.25
-22.11
-27.63
-33.48
-40.37
-48.76
-58.53
-68.78
-77.78
-83.26
-83.05
-75.74
-61.30
-41.15
-17.83
5.73
27.00
44.35
57.12
65.33
69.35
69.60
66.58
60.98
53.78
46.21
39.52
34.62
31.88
31.14
31.84
33.37
35.29
37.40
39.61
41.71
43.21
43.42
41.64
37.52
31.23
23.45
15.13
7.13
-0.02
-6.32
-12.15
-18.14
-25.02
-33.31
-43.14
-53.98
-64.48
-72.61
-76.08
-73.07
-62.85
-46.20
-25.20
-2.66
18.63
36.58
50.05
58.73
62.82
62.75
59.05
52.41
43.74
34.19
24.97
17.19
11.56
8.34
7.34
8.07
9.99
12.57
15.38
18.04
20.11
21.08
20.46
17.89
13.37
7.31
0.45
-6.38
-12.58
-18.02
-23.14
-28.73
-35.61
-44.16
-53.97
-63.75
-71.49
-74.96
-72.35
-62.86
-47.03
-26.66
-4.31
17.33
36.11
50.78
60.94
66.78
68.74
67.28
62.88
56.14
47.97
39.44
31.76
25.91
22.44
21.42
22.48
24.98
28.24
31.56
34.34
36.08
36.50
35.61
33.72
31.27
28.46
25.06
20.36
13.37
3.27
-10.27
-26.88
-45.58
-64.87
-82.88
-97.50
-106.49
-108.05
-101.22
-86.47
-65.76
-42.12
-18.90
1.15
16.40
26.45
31.77
33.26
31.76
27.97
22.44
15.76
8.61
1.83
-3.76
-7.49
-9.03
-8.46
-6.19
-2.83
0.93
4.44
7.10
8.38
7.88
5.44
1.26
-4.12
-10.01
-15.85
-21.41
-27.00
-33.24
-40.78
-49.89
-60.20
-70.49
-78.90
-83.29
-81.77
-73.34
-58.26
-38.15
-15.59
6.57
25.85
40.70
50.54
55.58
56.43
53.91
48.87
42.17
34.73
27.40
20.93
15.82
12.35
10.57
10.39
11.53
13.59
16.01
18.16
19.44
19.40
17.81
14.73
10.39
5.16
-0.61
-6.61
-12.72
-18.99
-25.66
-33.15
-41.76
-51.44
-61.42
-70.14
-75.47
-75.28
-68.20
-54.19
-34.71
-12.31
10.03
29.78
45.30
55.98
62.01
63.93
62.45
58.24
52.06
44.74
37.25
30.48
25.14
21.64
19.98
19.92
21.01
22.80
24.78
26.47
27.37
27.02
25.10
21.48
16.30
9.95
2.97
-4.17
-11.13
-17.91
-24.82
-32.36
-40.94
-50.55
-60.43
-68.97
-74.10
-73.78
-66.83
-53.39
-35.07
-14.39
5.89
23.52
37.20
46.54
51.75
53.26
51.51
46.92
40.06
31.74
22.92
14.60
7.55
2.23
-1.21
-2.81
-2.74
-1.23
1.39
4.58
7.64
9.77
10.29
8.84
5.51
0.72
-4.84
-10.59
-16.15
-21.46
-26.76
-32.56
-39.39
-47.59
-56.99
-66.68
-74.92
-79.53
-78.49
-70.67
-56.36
-37.27
-16.12
4.22
21.42
34.22
42.31
46.07
46.18
43.31
38.12
31.27
23.55
15.82
9.00
3.82
0.74
-0.13
0.97
3.55
6.97
10.57
13.74
15.93
16.76
16.00
13.62
9.83
5.08
-0.13
-5.38
-10.52
-15.78
-21.70
-28.86
-37.51
-47.26
-56.85
-64.32
-67.43
-64.42
-54.56
-38.59
-18.53
2.87
22.90
39.58
51.92
59.84
63.73
64.19
61.78
57.06
50.71
43.46
36.05
29.05
22.82
17.50
13.12
9.70
7.27
5.77
4.95
4.36
3.46
1.70
-1.18
-5.20
-10.09
-15.38
-20.68
-25.76
-30.75
-36.08
-42.36
-50.14
-59.48
-69.69
-79.24
-85.94
-87.54
-82.39
-70.03
-51.45
-28.87
-5.22
16.65
34.53
47.27
54.73
57.51
56.53
52.82
47.26
40.61
33.59
26.91
21.21
16.99
14.56
13.93
14.87
16.99
19.82
22.81
25.41
27.05
27.23
25.64
22.19
17.09
10.78
3.77
-3.52
-10.88
-18.47
-26.67
-35.98
-46.68
-58.44
-70.06
-79.54
-84.53
-83.05
-74.26
-58.85
-38.89
-17.30
3.02
19.88
32.18
39.79
43.22
43.23
40.58
35.94
30.01
23.56
17.42
12.39
9.05
7.60
7.91
9.57
12.09
15.01
17.92
20.47
22.22
22.70
21.53
18.60
14.09
8.49
2.41
-3.63
-9.45
-15.29
-21.74
-29.53
-39.10
-50.19
-61.64
-71.41
-77.05
-76.41
-68.34
-53.14
-32.54
-9.19
14.01
34.56
50.83
62.06
68.27
69.97
67.92
62.98
56.03
47.94
39.58
31.72
25.01
19.87
16.50
14.86
14.70
15.69
17.37
19.19
20.55
20.82
19.56
16.53
11.86
5.94
-0.70
-7.55
-14.29
-20.90
-27.59
-34.80
-43.00
-52.44
-62.81
-73.04
-81.27
-85.29
-83.18
-73.98
-58.18
-37.67
-15.21
6.30
24.55
38.21
46.90
50.98
51.10
48.01
42.43
35.11
26.85
18.61
11.34
5.91
2.88
2.40
4.14
7.42
11.42
15.31
18.44
20.35
20.76
19.50
16.59
12.16
6.61
0.43
-5.96
-12.34
-18.92
-26.26
-34.98
-45.36
-56.86
-67.95
-76.31
-79.50
-75.70
-64.44
-46.81
-25.19
-2.53
18.42
35.69
48.27
56.03
59.34
58.81
55.11
48.98
41.21
32.72
24.44
17.33
12.14
9.39
9.19
11.22
14.77
18.93
22.74
25.46
26.60
25.99
23.69
19.87
14.83
8.85
2.24
-4.83
-12.37
-20.59
-29.77
-39.95
-50.56
-60.27
-67.06
-68.78
-63.84
-51.88
-34.07
-12.84
8.86
28.36
43.88
54.77
61.19
63.72
62.92
59.25
53.15
45.25
36.41
27.71
20.20
14.65
11.41
10.36
11.01
12.65
14.53
15.93
16.31
15.32
12.86
9.00
3.99
-1.85
-8.24
-14.98
-22.05
-29.55
-37.77
-46.96
-57.09
-67.53
-76.87
-83.08
-84.08
-78.37
-65.64
-47.04
-24.89
-2.04
18.88
35.94
48.18
55.47
58.21
57.12
52.99
46.64
38.95
30.83
23.25
17.21
13.53
12.71
14.74
19.09
24.79
30.69
35.65
38.77
39.55
37.81
33.75
27.76
20.41
12.30
3.94
-4.37
-12.72
-21.50
-31.33
-42.59
-55.01
-67.30
-77.24
-82.24
-80.13
-70.05
-52.80
-30.72
-6.93
15.51
34.35
48.43
57.56
62.14
62.78
60.18
55.06
48.24
40.70
33.43
27.31
22.89
20.41
19.69
20.38
22.03
24.15
26.21
27.68
28.03
26.86
23.95
19.43
13.66
7.17
0.42
-6.28
-13.00
-20.05
-27.94
-37.14
-47.73
-59.11
-69.78
-77.53
-79.94
-75.17
-62.64
-43.38
-19.88
4.65
27.08
45.18
57.88
65.22
67.96
67.07
63.49
57.95
51.04
43.35
35.53
28.32
22.47
18.62
17.21
18.39
21.88
26.98
32.52
37.08
39.23
37.94
32.91
24.61
14.11
2.71
-8.47
-18.80
-28.21
-37.08
-46.05
-55.67
-66.05
-76.56
-85.73
-91.45
-91.65
-85.06
-71.83
-53.66
-33.28
-13.64
3.02
15.61
24.09
29.01
31.03
30.57
27.85
23.16
17.03
10.33
4.10
-0.71
-3.49
-4.11
-2.88
-0.41
2.63
5.61
8.02
9.49
9.73
8.55
5.92
2.00
-2.90
-8.40
-14.16
-20.05
-26.20
-33.04
-41.03
-50.37
-60.58
-70.27
-77.23
-79.00
-73.72
-60.85
-41.54
-18.40
5.28
26.51
43.28
54.80
61.24
63.27
61.65
57.10
50.28
41.98
33.19
24.92
18.17
13.61
11.49
11.65
13.51
16.23
18.95
20.89
21.55
20.68
18.34
14.69
10.04
4.60
-1.41
-7.87
-14.83
-22.48
-31.18
-41.24
-52.50
-64.06
-74.10
-80.19
-80.02
-72.19
-56.86
-35.79
-11.92
11.50
31.79
47.28
57.45
62.63
63.55
61.01
55.77
48.55
40.16
31.50
23.56
17.18
12.94
10.99
11.14
12.88
15.56
18.49
21.06
22.66
22.87
21.43
18.32
13.78
8.20
1.97
-4.69
-11.80
-19.70
-28.78
-39.33
-51.02
-62.72
-72.38
-77.43
-75.51
-65.33
-47.30
-23.68
2.00
25.90
44.94
57.48
63.43
63.82
60.10
53.59
45.28
35.86
25.96
16.31
7.71
0.88
-3.67
-5.77
-5.62
-3.72
-0.82
2.26
4.69
5.91
5.62
3.78
0.55
-3.85
-9.19
-15.27
-21.92
-29.08
-36.86
-45.54
-55.37
-66.21
-77.23
-86.67
-92.17
-91.43
-83.02
-66.97
-44.99
-19.99
4.71
26.25
42.80
53.76
59.54
61.04
59.30
55.19
49.42
42.66
35.61
29.03
23.64
19.95
18.19
18.22
19.63
21.87
24.36
26.56
27.96
28.16
26.88
23.97
19.54
13.87
7.35
0.37
-6.83
-14.35
-22.59
-32.11
-43.26
-55.76
-68.36
-78.88
-84.70
-83.58
-74.48
-58.04
-36.44
-12.75
9.95
29.31
44.04
53.80
58.90
59.93
57.52
52.36
45.22
36.98
28.62
21.04
15.01
11.04
9.32
9.71
11.77
14.77
17.86
20.20
21.15
20.37
17.83
13.80
8.70
2.93
-3.27
-9.80
-16.79
-24.47
-33.18
-43.11
-54.10
-65.32
-75.20
-81.59
-82.35
-76.03
-62.53
-43.25
-20.85
1.60
21.33
36.56
46.62
51.77
52.77
50.53
45.78
39.16
31.30
22.92
14.94
8.35
4.00
2.36
3.30
6.16
9.89
13.37
15.78
16.68
16.07
14.15
11.18
7.31
2.65
-2.75
-8.81
-15.45
-22.71
-30.77
-39.84
-49.80
-59.89
-68.43
-73.15
-71.82
-63.12
-47.28
-26.21
-3.00
19.05
37.33
50.43
58.16
61.18
60.41
56.72
50.75
43.08
34.36
25.44
17.33
11.02
7.19
6.06
7.29
10.12
13.63
16.97
19.40
20.35
19.35
16.01
10.23
2.27
-7.14
-17.05
-26.60
-35.40
-43.66
-52.05
-61.22
-71.17
-80.95
-88.62
-91.83
-88.56
-77.94
-60.64
-38.72
-15.06
7.45
26.63
41.24
51.04
56.32
57.66
55.67
51.00
44.40
36.75
29.03
22.17
16.91
13.70
12.61
13.40
15.56
18.44
21.29
23.42
24.26
23.48
21.02
17.08
12.04
6.28
0.06
-6.54
-13.71
-21.83
-31.29
-42.32
-54.65
-67.27
-78.35
-85.50
-86.42
-79.63
-65.08
-44.30
-20.07
4.35
26.13
43.32
55.15
61.73
63.72
61.95
57.26
50.46
42.37
33.89
25.87
19.15
14.36
11.82
11.49
12.97
15.55
18.39
20.65
21.65
20.98
18.54
14.46
9.10
2.88
-3.75
-10.47
-17.17
-24.03
-31.46
-39.92
-49.60
-60.00
-69.78
-76.84
-78.83
-73.91
-61.44
-42.37
-19.05
5.40
27.95
46.29
59.31
66.94
69.78
68.76
64.79
58.64
51.00
42.58
34.16
26.56
20.52
16.54
14.75
14.86
16.30
18.33
20.29
21.67
22.19
21.72
20.12
17.24
12.90
6.99
-0.45
-9.22
-19.07
-29.85
-41.52
-54.02
-66.92
-79.11
-88.66
-93.20
-90.66
-80.09
-62.18
-39.27
-14.61
8.55
27.80
41.96
50.95
55.23
55.42
51.98
45.42
36.41
26.04
15.65
6.65
0.10
-3.47
-4.14
-2.51
0.54
4.03
7.09
9.07
9.61
8.65
6.30
2.79
-1.61
-6.72
-12.47
-18.89
-26.13
-34.46
-44.09
-54.91
-66.22
-76.50
-83.56
-85.13
-79.54
-66.44
-47.09
-23.96
-0.09
21.78
39.79
53.05
61.45
65.25
64.85
60.77
53.74
44.82
35.34
26.71
20.10
16.19
15.04
16.16
18.75
21.87
24.79
27.04
28.45
28.97
28.56
27.14
24.49
20.47
15.02
8.27
0.41
-8.23
-17.27
-26.09
-33.80
-39.23
-41.20
-38.85
-32.04
-21.52
-8.75
4.42
16.32
25.74
32.13
35.48
36.11
34.42
30.78
25.51
19.04
11.91
4.86
-1.37
-6.20
-9.40
-11.12
-11.83
-12.10
-12.38
-12.95
-13.88
-15.12
-16.64
-18.49
-20.82
-23.78
-27.57
-32.35
-38.32
-45.68
-54.62
-65.05
-76.31
-86.98
-94.87
-97.51
-92.88
-80.21
-60.40
-35.84
-9.81
14.53
34.83
49.90
59.61
64.43
65.04
62.12
56.29
48.31
39.15
29.96
21.97
16.12
12.92
12.27
13.57
15.93
18.42
20.34
21.20
20.77
19.00
15.96
11.77
6.59
0.51
-6.43
-14.37
-23.52
-34.14
-46.18
-59.05
-71.35
-80.94
-85.34
-82.38
-71.10
-52.14
-27.81
-1.46
23.46
44.23
59.44
68.86
73.14
73.17
69.80
63.71
55.54
46.07
36.28
27.26
20.01
15.19
12.93
12.85
14.18
16.02
17.58
18.31
17.99
16.59
14.18
10.82
6.54
1.33
-4.82
-11.97
-20.20
-29.69
-40.55
-52.54
-64.82
-75.68
-82.76
-83.64
-76.61
-61.46
-39.71
-14.35
11.07
33.44
50.80
62.55
69.08
71.24
69.85
65.49
58.66
49.98
40.38
31.02
23.10
17.53
14.68
14.33
15.76
18.04
20.25
21.68
21.94
20.87
18.49
14.89
10.19
4.54
-1.90
-9.01
-16.77
-25.40
-35.19
-46.43
-58.85
-71.34
-81.85
-87.72
-86.51
-76.92
-59.42
-36.23
-10.70
13.65
34.15
49.35
59.06
63.79
64.35
61.46
55.77
47.97
38.95
29.81
21.71
15.64
12.15
11.29
12.60
15.33
18.59
21.59
23.71
24.50
23.80
21.63
18.20
13.83
8.88
3.56
-2.10
-8.30
-15.39
-23.71
-33.31
-43.72
-53.72
-61.53
-65.11
-62.88
-54.27
-40.08
-22.33
-3.65
13.37
26.92
36.15
41.05
42.08
39.82
34.81
27.57
18.76
9.22
0.01
-7.82
-13.34
-15.99
-15.68
-12.83
-8.26
-3.04
1.75
5.29
7.13
7.21
5.76
3.04
-0.71
-5.36
-10.84
-17.11
-24.17
-32.16
-41.22
-51.27
-61.72
-71.12
-77.35
-78.08
-71.60
-57.52
-37.10
-12.99
11.55
33.47
50.68
62.24
68.27
69.50
66.91
61.44
53.89
45.02
35.56
26.32
18.11
11.68
7.53
5.85
6.41
8.59
11.52
14.16
15.64
15.40
13.31
9.58
4.65
-1.04
-7.21
-13.80
-20.96
-29.00
-38.28
-49.04
-61.03
-73.23
-83.75
-90.06
-89.66
-81.03
-64.26
-41.26
-15.25
10.19
32.14
48.87
59.93
65.71
66.99
64.57
59.18
51.62
42.78
33.69
25.31
18.46
13.62
10.97
10.39
11.47
13.65
16.20
18.38
19.50
19.13
17.08
13.46
8.54
2.63
-3.98
-11.17
-18.95
-27.56
-37.34
-48.51
-60.72
-72.81
-82.70
-87.76
-85.63
-75.12
-56.71
-32.63
-6.19
19.14
40.61
56.72
67.15
72.43
73.41
70.95
65.78
58.55
50.03
41.09
32.66
25.64
20.61
17.78
17.00
17.78
19.49
21.48
23.10
23.76
23.03
20.68
16.70
11.34
4.99
-1.92
-9.15
-16.75
-25.09
-34.69
-45.95
-58.64
-71.63
-82.81
-89.56
-89.41
-81.01
-64.60
-42.18
-16.88
7.87
29.23
45.49
56.14
61.53
62.41
59.61
53.87
45.96
36.79
27.35
18.72
11.78
7.13
4.92
4.97
6.76
9.59
12.67
15.27
16.77
16.78
15.15
11.91
7.22
1.30
-5.61
-13.25
-21.43
-30.06
-39.31
-49.41
-60.48
-71.99
-82.52
-89.78
-91.22
-84.97
-70.62
-49.68
-25.11
-0.47
21.21
38.10
49.64
56.18
58.40
56.84
51.95
44.21
34.43
23.88
14.04
6.29
1.57
0.13
1.50
4.74
8.76
12.53
15.36
16.86
16.91
15.57
12.96
9.26
4.65
-0.73
-6.87
-13.91
-22.16
-31.94
-43.25
-55.45
-67.00
-75.62
-78.79
-74.56
-62.32
-43.21
-19.84
4.40
26.33
43.74
55.69
62.28
64.17
62.13
56.85
48.97
39.36
29.15
19.66
12.12
7.35
5.47
6.00
8.04
10.59
12.85
14.28
14.63
13.81
11.76
8.50
4.07
-1.39
-7.68
-14.63
-22.21
-30.62
-40.16
-50.93
-62.44
-73.28
-81.26
-83.86
-79.16
-66.58
-47.27
-23.85
0.34
22.26
39.86
52.28
59.57
62.28
60.99
56.28
48.76
39.32
29.08
19.32
11.25
5.68
2.93
2.76
4.54
7.35
10.25
12.44
13.39
12.85
10.86
7.60
3.24
-2.08
-8.33
-15.48
-23.56
-32.62
-42.71
-53.79
-65.37
-76.28
-84.60
-87.98
-84.35
-72.74
-53.82
-29.88
-4.20
19.91
39.91
54.49
63.51
67.56
67.49
64.15
58.24
50.47
41.65
32.76
24.86
18.88
15.42
14.58
15.87
18.45
21.34
23.71
25.06
25.17
24.03
21.67
18.05
13.18
7.17
0.27
-7.22
-15.14
-23.66
-33.13
-43.76
-55.16
-65.94
-73.82
-76.17
-70.99
-57.71
-37.63
-13.55
11.01
32.93
50.12
61.84
68.33
70.36
68.75
64.20
57.29
48.72
39.40
30.39
22.69
17.09
13.88
12.94
13.74
15.58
17.68
19.38
20.13
19.58
17.58
14.22
9.76
4.55
-1.12
-7.12
-13.52
-20.63
-28.88
-38.64
-49.96
-62.25
-74.03
-83.04
-86.69
-82.94
-71.07
-52.13
-28.74
-4.33
17.89
35.72
48.25
55.60
58.38
57.25
52.76
45.48
36.18
25.97
16.19
8.11
2.63
0.12
0.30
2.45
5.63
8.91
11.50
12.91
12.87
11.33
8.46
4.50
-0.26
-5.59
-11.40
-17.80
-25.13
-33.79
-44.00
-55.43
-66.89
-76.36
-81.38
-79.78
-70.47
-53.99
-32.39
-8.75
13.78
32.79
46.95
56.02
60.37
60.63
57.39
51.24
42.85
33.13
23.20
14.29
7.54
3.65
2.72
4.25
7.25
10.59
13.25
14.65
14.57
13.06
10.24
6.21
0.96
-5.47
-13.02
-21.60
-31.20
-41.84
-53.37
-65.15
-75.75
-83.03
-84.68
-78.95
-65.44
-45.46
-21.67
2.63
24.46
41.83
53.94
60.95
63.50
62.33
58.06
51.25
42.57
32.99
23.67
15.85
10.46
7.88
7.82
9.40
11.46
12.89
12.96
11.44
8.47
4.44
-0.24
-5.32
-10.74
-16.65
-23.33
-31.15
-40.41
-51.24
-63.29
-75.47
-85.87
-92.06
-91.67
-83.26
-66.95
-44.60
-19.32
5.37
26.58
42.61
53.08
58.56
59.96
58.13
53.73
47.28
39.40
30.93
22.87
16.26
11.87
10.02
10.46
12.51
15.18
17.54
18.90
18.96
17.71
15.36
12.05
7.84
2.66
-3.67
-11.27
-20.22
-30.53
-42.00
-54.05
-65.49
-74.41
-78.54
-75.84
-65.33
-47.61
-24.93
-0.53
22.22
40.77
53.83
61.35
64.01
62.76
58.44
51.73
43.30
33.99
24.84
16.91
11.14
8.04
7.58
9.17
11.86
14.63
16.63
17.42
16.92
15.31
12.74
9.24
4.70
-1.02
-7.89
-15.73
-24.31
-33.57
-43.60
-54.41
-65.43
-75.22
-81.52
-81.85
-74.54
-59.47
-38.36
-14.28
9.30
29.50
44.70
54.54
59.53
60.45
58.05
52.92
45.62
36.89
27.68
19.10
12.14
7.45
5.19
5.04
6.34
8.33
10.32
11.83
12.58
12.42
11.22
8.92
5.52
1.12
-4.08
-9.89
-16.26
-23.38
-31.68
-41.47
-52.52
-63.73
-72.98
-77.67
-75.48
-65.30
-47.83
-25.42
-1.41
20.93
39.22
52.37
60.28
63.49
62.57
58.04
50.44
40.58
29.62
18.96
9.92
3.43
-0.18
-1.14
-0.12
2.04
4.57
6.81
8.29
8.67
7.75
5.41
1.70
-3.21
-9.08
-15.77
-23.24
-31.74
-41.55
-52.71
-64.65
-75.92
-84.27
-87.21
-82.78
-70.30
-50.82
-26.89
-1.83
21.19
39.93
53.38
61.52
64.92
64.27
60.22
53.41
44.67
35.08
25.89
18.31
13.17
10.79
10.94
12.93
15.86
18.78
20.92
21.75
21.03
18.83
15.45
11.24
6.51
1.35
-4.32
-10.82
-18.61
-28.12
-39.57
-52.50
-65.60
-76.63
-82.91
-82.01
-72.71
-55.52
-32.63
-7.33
16.92
37.43
52.74
62.54
67.29
67.83
65.01
59.63
52.44
44.21
35.76
27.95
21.54
17.01
14.45
13.52
13.59
13.88
13.72
12.63
10.42
7.12
2.88
-2.11
-7.70
-13.82
-20.46
-27.68
-35.65
-44.69
-55.01
-66.56
-78.58
-89.44
-96.78
-98.06
-91.45
-76.58
-54.92
-29.44
-3.71
19.09
36.93
49.16
56.17
58.86
58.10
54.55
48.72
41.24
32.94
24.94
18.30
13.82
11.74
11.78
13.22
15.27
17.22
18.61
19.22
18.95
17.71
15.45
12.10
7.65
2.12
-4.50
-12.32
-21.53
-32.29
-44.44
-57.11
-68.57
-76.42
-78.18
-72.13
-58.01
-37.28
-12.79
12.07
34.28
51.87
64.08
71.10
73.57
72.16
67.41
59.85
50.20
39.53
29.14
20.37
14.17
10.91
10.28
11.48
13.52
15.54
16.94
17.45
16.95
15.40
12.75
8.99
4.16
-1.59
-8.11
-15.34
-23.41
-32.58
-42.94
-54.06
-64.68
-72.70
-75.66
-71.49
-59.38
-40.13
-16.09
9.54
33.61
53.75
68.67
78.08
82.32
82.04
78.02
71.19
62.71
53.92
46.14
40.37
36.98
35.52
34.85
33.56
30.40
24.77
16.85
7.42
-2.45
-11.92
-20.55
-28.36
-35.65
-42.76
-49.95
-57.47
-65.57
-74.52
-84.42
-94.79
-104.30
-110.79
-111.79
-105.33
-90.78
-69.24
-43.34
-16.37
8.71
29.91
46.41
58.06
64.89
66.69
63.22
54.58
41.72
26.55
11.58
-0.78
-8.82
-12.06
-11.15
-7.53
-2.86
1.46
4.60
6.26
6.51
5.59
3.68
0.83
-3.06
-8.16
-14.65
-22.73
-32.53
-43.89
-56.09
-67.65
-76.38
-79.81
-75.98
-64.16
-45.31
-21.91
2.76
25.53
44.17
57.62
65.88
69.45
68.94
64.81
57.59
48.01
37.26
26.79
18.08
12.14
9.28
8.97
10.17
11.66
12.47
12.13
10.66
8.41
5.79
2.96
-0.20
-4.20
-9.66
-17.23
-27.28
-39.81
-54.14
-68.82
-81.64
-89.97
-91.34
-84.27
-68.84
-46.82
-21.29
4.28
26.92
44.75
57.10
64.18
66.65
65.23
60.61
53.59
45.13
36.41
28.65
22.86
19.56
18.70
19.63
21.40
23.05
23.86
23.52
22.14
20.00
17.37
14.28
10.47
5.50
-1.09
-9.64
-20.27
-32.77
-46.47
-60.16
-71.99
-79.72
-81.15
-74.85
-60.76
-40.41
-16.65
7.16
28.04
44.06
54.54
59.83
60.75
58.23
53.04
45.87
37.45
28.64
20.45
13.84
9.50
7.63
7.95
9.75
12.13
14.27
15.61
15.87
15.02
13.04
9.93
5.62
0.10
-6.55
-14.24
-22.93
-32.74
-43.87
-56.14
-68.63
-79.40
-85.79
-85.21
-76.07
-58.56
-34.70
-7.78
18.63
41.67
59.65
72.04
79.10
81.41
79.63
74.48
66.78
57.59
48.09
39.41
32.48
27.80
25.43
25.01
25.88
27.21
28.21
28.21
26.80
23.91
19.69
14.50
8.69
2.47
-4.10
-11.15
-19.00
-28.06
-38.64
-50.69
-63.37
-74.95
-82.97
-84.79
-78.55
-63.82
-42.00
-15.91
11.04
35.80
56.37
71.95
82.58
88.63
90.41
88.09
81.84
72.11
59.86
46.43
33.27
21.68
12.43
5.83
1.72
-0.37
-1.09
-1.12
-1.20
-1.99
-4.02
-7.52
-12.41
-18.28
-24.60
-30.86
-36.83
-42.72
-49.07
-56.52
-65.33
-74.89
-83.46
-88.42
-86.88
-76.65
-57.09
-29.61
2.45
34.59
62.13
81.40
90.53
89.62
80.39
65.46
47.51
28.77
10.82
-5.22
-18.51
-28.31
-34.15
-35.96
-34.36
-30.48
-25.78
-21.54
-18.64
-17.34
-17.42
-18.40
-19.89
-21.70
-23.97
-27.01
-31.16
-36.70
-43.78
-52.39
-62.21
-72.36
-81.24
-86.65
-86.25
-78.36
-62.67
-40.54
-14.76
11.25
34.39
52.54
64.88
71.58
73.36
71.04
65.37
57.06
46.99
36.28
26.27
18.18
12.91
10.71
11.20
13.55
16.76
19.85
22.10
23.04
22.35
19.93
15.87
10.44
4.00
-3.02
-10.45
-18.36
-27.17
-37.36
-49.15
-62.05
-74.59
-84.44
-88.91
-85.78
-74.15
-54.83
-30.28
-3.92
20.86
41.49
56.66
66.20
70.67
70.87
67.57
61.45
53.29
44.04
34.84
26.79
20.71
16.93
15.28
15.27
16.22
17.44
18.37
18.54
17.64
15.48
12.06
7.55
2.22
-3.65
-9.95
-16.80
-24.63
-34.01
-45.26
-58.11
-71.33
-82.70
-89.40
-88.92
-79.86
-62.57
-39.17
-13.01
12.33
33.89
49.97
60.16
65.01
65.51
62.67
57.36
50.30
42.25
34.01
26.42
20.28
16.15
14.23
14.38
16.08
18.61
21.15
22.97
23.52
22.51
19.96
16.01
10.91
4.89
-1.88
-9.29
-17.36
-26.26
-36.26
-47.48
-59.53
-71.12
-80.10
-83.84
-80.11
-67.95
-48.22
-23.42
3.01
27.62
47.85
62.33
70.82
73.86
72.38
67.41
59.98
51.09
41.65
32.51
24.37
17.82
13.20
10.68
10.15
11.27
13.43
15.85
17.67
18.19
16.96
13.91
9.34
3.74
-2.39
-8.73
-15.29
-22.37
-30.45
-40.05
-51.27
-63.57
-75.44
-84.58
-88.36
-84.69
-72.77
-53.58
-29.67
-4.46
18.73
37.49
50.68
58.28
60.96
59.61
55.04
47.99
39.20
29.55
20.07
11.84
5.75
2.27
1.30
2.30
4.38
6.66
8.44
9.29
9.05
7.73
5.36
2.02
-2.25
-7.37
-13.29
-20.04
-27.83
-36.90
-47.41
-59.02
-70.63
-80.28
-85.53
-84.19
-75.06
-58.54
-36.59
-12.25
11.30
31.50
46.85
56.92
61.99
62.65
59.49
53.17
44.48
34.40
24.18
15.04
8.06
3.85
2.45
3.33
5.58
8.17
10.15
10.97
10.42
8.67
5.99
2.60
-1.44
-6.26
-12.07
-19.14
-27.66
-37.70
-48.96
-60.58
-70.99
-78.04
-79.48
-73.69
-60.32
-40.66
-17.33
6.52
27.99
45.15
57.22
64.30
66.90
65.56
60.78
53.09
43.28
32.48
22.06
13.34
7.27
4.17
3.68
4.91
6.77
8.26
8.73
7.97
6.08
3.35
0.01
-3.84
-8.33
-13.73
-20.42
-28.73
-38.84
-50.54
-63.01
-74.69
-83.38
-86.68
-82.67
-70.64
-51.49
-27.61
-2.29
21.22
40.45
54.18
62.29
65.40
64.36
59.97
52.91
43.95
34.09
24.50
16.39
10.65
7.60
6.92
7.83
9.41
10.89
11.77
11.87
11.15
9.57
7.08
3.57
-1.00
-6.66
-13.43
-21.45
-30.96
-42.15
-54.80
-67.93
-79.61
-87.26
-88.35
-81.26
-65.97
-44.22
-19.05
6.07
28.19
45.47
57.29
63.87
65.92
64.18
59.32
52.03
43.12
33.61
24.63
17.29
12.37
10.19
10.50
12.51
15.19
17.54
18.84
18.79
17.43
14.98
11.65
7.52
2.50
-3.57
-10.92
-19.74
-30.21
-42.31
-55.60
-68.94
-80.40
-87.50
-87.85
-79.99
-63.95
-41.54
-15.79
9.81
32.26
49.70
61.53
68.09
70.13
68.47
63.73
56.53
47.61
37.99
28.82
21.25
16.05
13.47
13.19
14.48
16.43
18.23
19.29
19.28
18.11
15.81
12.43
8.04
2.62
-3.85
-11.43
-20.21
-30.27
-41.65
-53.97
-66.23
-76.64
-82.84
-82.52
-74.25
-58.20
-36.27
-11.61
12.27
32.55
47.65
57.28
61.95
62.48
59.53
53.60
45.18
35.04
24.34
14.41
6.54
1.53
-0.49
0.03
2.14
4.82
7.16
8.55
8.70
7.55
5.18
1.76
-2.55
-7.58
-13.28
-19.74
-27.23
-36.10
-46.56
-58.29
-70.09
-79.89
-85.16
-83.65
-74.25
-57.47
-35.41
-11.18
12.10
31.98
47.15
57.31
62.72
63.80
60.95
54.65
45.60
34.98
24.23
14.87
8.05
4.25
3.25
4.26
6.31
8.53
10.35
11.51
11.93
11.59
10.36
8.12
4.68
-0.01
-6.03
-13.40
-22.30
-32.78
-44.59
-56.77
-67.50
-74.38
-75.06
-68.08
-53.52
-33.10
-9.70
13.46
33.69
49.35
59.86
65.36
66.30
63.18
56.58
47.28
36.44
25.42
15.70
8.42
4.12
2.66
3.32
5.11
7.07
8.52
9.11
8.83
7.74
5.93
3.39
-0.05
-4.61
-10.60
-18.35
-28.10
-39.82
-52.95
-66.13
-77.22
-83.64
-83.08
-74.36
-57.89
-35.74
-11.03
13.06
33.99
50.39
61.88
68.69
71.23
69.81
64.80
56.78
46.76
36.10
26.27
18.54
13.62
11.56
11.83
13.50
15.56
17.19
17.88
17.41
15.82
13.18
9.55
4.89
-0.89
-8.00
-16.63
-27.01
-39.18
-52.76
-66.65
-78.86
-86.82
-87.97
-80.66
-64.88
-42.40
-16.45
9.33
31.83
49.13
60.65
66.71
68.12
65.69
60.19
52.34
43.02
33.29
24.30
17.09
12.35
10.32
10.61
12.45
14.79
16.62
17.20
16.19
13.63
9.84
5.22
0.03
-5.60
-11.75
-18.60
-26.45
-35.62
-46.27
-58.15
-70.22
-80.56
-86.68
-86.13
-77.43
-60.73
-37.96
-12.29
12.76
34.30
50.63
61.27
66.61
67.42
64.55
58.74
50.80
41.68
32.46
24.27
18.02
14.23
12.87
13.45
15.14
17.06
18.45
18.88
18.13
16.16
13.02
8.72
3.30
-3.21
-10.75
-19.26
-28.78
-39.41
-51.19
-63.80
-76.28
-86.86
-93.19
-92.95
-84.64
-68.26
-45.50
-19.34
6.78
29.92
48.19
60.92
68.35
71.13
69.93
65.36
58.09
49.00
39.26
30.16
22.91
18.27
16.36
16.75
18.56
20.77
22.53
23.23
22.63
20.67
17.44
13.07
7.68
1.43
-5.56
-13.24
-21.69
-31.16
-41.84
-53.58
-65.53
-75.95
-82.48
-82.78
-75.37
-60.31
-39.33
-15.38
8.26
28.86
44.79
55.57
61.51
63.20
61.19
55.91
47.91
38.03
27.48
17.71
10.07
5.42
3.91
5.00
7.68
10.86
13.62
15.36
15.79
14.79
12.28
8.22
2.67
-4.24
-12.28
-21.26
-31.16
-42.06
-54.00
-66.57
-78.60
-88.08
-92.58
-89.92
-79.10
-60.74
-37.08
-11.33
13.16
33.80
49.13
58.80
63.20
63.09
59.28
52.61
43.97
34.40
25.04
16.99
11.10
7.78
6.90
7.86
9.78
11.80
13.21
13.61
12.85
10.92
7.92
3.97
-0.82
-6.29
-12.39
-19.21
-27.05
-36.27
-46.97
-58.62
-69.80
-78.19
-81.13
-76.41
-63.08
-41.91
-15.35
13.14
39.97
62.20
78.08
87.03
89.49
86.50
79.38
69.54
58.27
46.74
35.90
26.52
19.16
14.09
11.35
10.62
11.34
12.79
14.21
14.94
14.57
12.93
10.08
6.27
1.79
-3.11
-8.29
-13.83
-20.08
-27.56
-36.82
-47.98
-60.31
-72.06
-80.51
-82.70
-76.29
-60.49
-36.56
-7.65
21.98
48.08
67.49
78.76
82.17
79.28
72.21
62.96
53.09
43.62
35.20
28.31
23.35
20.65
20.30
22.06
25.33
29.34
33.35
36.92
40.04
43.06
46.42
50.32
54.45
57.98
59.76
58.75
54.24
46.03
34.27
19.36
2.03
-16.45
-33.97
-47.72
-54.70
-52.60
-40.68
-20.16
6.00
33.95
59.86
80.77
94.92
101.71
101.42
94.95
83.56
68.65
51.64
33.78
16.06
-0.73
-15.97
-29.18
-39.97
-48.11
-53.65
-56.97
-58.79
-60.02
-61.62
-64.36
-68.64
-74.40
-81.25
-88.61
-95.98
-103.16
-110.32
-117.99
-126.71
-136.63
-147.13
-156.58
-162.58
-162.57
-154.68
-138.41
-115.04
-87.22
-58.34
-31.56
-9.14
7.77
19.07
25.28
27.18
25.63
21.48
15.61
8.97
2.50
-2.91
-6.53
-7.90
-6.93
-3.86
0.73
6.01
11.04
14.97
17.18
17.36
15.59
12.19
7.60
2.20
-3.83
-10.52
-18.13
-27.01
-37.50
-49.51
-62.34
-74.35
-83.19
-86.28
-81.60
-68.42
-47.78
-22.24
4.76
29.88
50.59
65.62
74.78
78.65
78.08
73.93
66.96
57.98
47.90
37.77
28.75
21.78
17.46
15.84
16.45
18.45
20.87
22.84
23.75
23.28
21.39
18.20
13.86
8.56
2.44
-4.42
-12.06
-20.65
-30.45
-41.59
-53.73
-65.74
-75.65
-80.95
-79.39
-69.74
-52.40
-29.45
-4.04
20.46
41.39
57.25
67.74
73.25
74.47
71.96
66.23
57.84
47.71
37.10
27.50
20.19
15.93
14.75
15.98
18.55
21.33
23.48
24.45
24.07
22.30
19.17
14.66
8.80
1.67
-6.54
-15.63
-25.55
-36.41
-48.34
-61.10
-73.63
-83.92
-89.37
-87.60
-77.36
-59.21
-35.44
-9.46
15.27
36.16
51.89
62.31
67.91
69.33
67.10
61.70
53.73
44.10
33.99
24.66
17.11
11.88
9.01
8.08
8.49
9.52
10.58
11.13
10.82
9.39
6.74
2.86
-2.15
-8.17
-15.13
-23.07
-32.21
-42.83
-54.99
-68.15
-80.84
-90.75
-95.13
-91.74
-79.67
-59.84
-34.80
-7.99
17.28
38.62
54.81
65.66
71.50
72.83
70.19
64.22
55.82
46.13
36.45
27.99
21.65
17.83
16.41
16.85
18.34
20.01
21.14
21.31
20.37
18.39
15.53
11.86
7.32
1.72
-5.17
-13.60
-23.76
-35.68
-49.05
-62.95
-75.71
-85.01
-88.39
-84.01
-71.33
-51.55
-27.31
-2.01
21.20
40.13
53.83
62.42
66.50
66.76
63.68
57.64
49.22
39.34
29.31
20.55
14.19
10.78
10.10
11.32
13.34
15.19
16.23
16.26
15.30
13.48
10.86
7.37
2.86
-2.85
-9.98
-18.73
-29.27
-41.50
-54.80
-67.84
-78.47
-84.15
-82.67
-72.86
-55.20
-31.79
-5.85
19.27
40.84
57.32
68.38
74.41
76.08
73.94
68.42
60.02
49.66
38.66
28.61
20.89
16.21
14.47
14.79
15.95
16.85
16.84
15.79
13.93
11.53
8.74
5.46
1.37
-3.93
-10.84
-19.67
-30.55
-43.16
-56.55
-68.99
-78.17
-81.63
-77.58
-65.42
-46.19
-22.31
3.10
27.05
47.35
62.85
73.28
78.81
79.69
76.18
68.74
58.24
46.12
34.15
24.00
16.81
12.82
11.43
11.55
12.10
12.41
12.30
12.00
11.69
11.23
10.13
7.58
2.84
-4.55
-14.65
-27.01
-40.66
-54.13
-65.42
-72.36
-73.01
-66.35
-52.67
-33.71
-12.09
9.35
28.31
43.37
53.93
59.84
61.13
57.95
50.73
40.37
28.34
16.40
6.13
-1.43
-6.08
-8.28
-8.91
-8.76
-8.33
-7.78
-7.06
-6.21
-5.55
-5.70
-7.50
-11.76
-19.12
-29.71
-42.98
-57.51
-71.12
-81.14
-85.12
-81.48
-69.97
-51.88
-29.59
-5.94
16.46
35.63
50.36
60.00
64.27
63.20
57.16
47.06
34.44
21.29
9.61
1.00
-3.83
-5.18
-4.12
-2.05
-0.19
0.77
0.71
-0.14
-1.53
-3.49
-6.36
-10.79
-17.50
-27.04
-39.47
-54.18
-69.57
-83.19
-92.14
-93.79
-86.65
-70.93
-48.62
-22.88
2.89
25.91
44.52
58.09
66.61
70.22
69.08
63.51
54.20
42.43
29.96
18.62
9.91
4.57
2.45
2.67
4.01
5.33
5.89
5.48
4.24
2.42
0.09
-3.00
-7.32
-13.46
-21.84
-32.71
-45.81
-60.33
-74.63
-86.38
-92.83
-91.60
-81.45
-62.81
-37.90
-10.09
16.99
40.39
58.39
70.44
76.87
78.32
75.50
69.13
60.11
49.63
39.10
29.97
23.38
19.83
19.10
20.38
22.55
24.54
25.62
25.42
23.98
21.50
18.17
14.03
8.89
2.44
-5.70
-15.80
-27.93
-41.76
-56.40
-70.28
-81.21
-86.68
-84.58
-73.86
-55.08
-30.41
-3.13
23.24
45.85
63.00
74.19
79.82
80.66
77.60
71.45
63.09
53.46
43.68
34.86
27.95
23.53
21.66
21.95
23.64
25.80
27.53
28.17
27.31
24.87
20.98
15.90
9.92
3.24
-3.99
-11.78
-20.27
-29.82
-40.79
-53.32
-66.90
-80.10
-90.53
-95.35
-92.10
-79.63
-58.67
-31.79
-2.68
24.84
47.86
64.78
75.30
80.03
79.90
75.89
68.82
59.59
49.14
38.57
28.97
21.33
16.27
14.00
14.25
16.34
19.37
22.37
24.48
25.12
23.94
20.95
16.40
10.66
4.20
-2.59
-9.56
-16.82
-24.80
-34.10
-45.16
-57.76
-70.66
-81.49
-87.20
-84.99
-73.32
-52.62
-25.40
4.58
33.40
58.10
77.19
90.50
98.62
102.26
101.93
97.98
90.93
81.70
71.74
62.82
56.76
55.03
58.37
66.42
77.58
89.00
97.16
98.59
90.80
73.10
46.66
14.25
-20.60
-54.50
-84.88
-110.37
-130.75
-146.73
-159.54
-170.29
-179.47
-186.45
-189.57
-186.57
-175.58
-155.92
-128.68
-96.53
-62.99
-31.49
-4.60
16.30
30.83
39.27
42.17
40.25
34.37
25.77
15.97
6.69
-0.50
-4.59
-5.34
-3.29
0.43
4.53
7.95
10.11
10.92
10.65
9.59
