1540389577.00
64.000000
-0.00
-0.00
-0.00
-0.00
-0.00
-0.00
-0.00
-0.00
-0.00
-0.00
0.00
0.01
0.01
-0.00
-0.03
-0.05
-0.05
0.00
0.13
0.36
0.66
1.01
1.37
1.72
2.06
2.40
2.79
3.24
3.80
4.42
5.06
5.66
6.20
6.68
7.15
7.68
8.31
9.14
10.09
11.04
11.88
12.56
13.14
13.76
14.65
15.96
17.91
20.32
22.90
25.38
27.58
29.57
31.68
34.32
37.81
42.54
48.15
54.10
59.83
64.97
69.58
74.14
79.34
85.71
93.76
103.00
112.62
121.73
129.77
136.75
143.30
150.75
157.77
166.64
177.95
191.79
206.97
220.57
228.25
225.36
208.53
176.87
132.76
80.05
23.07
-34.94
-92.44
-149.16
-205.23
-260.37
-313.74
-363.87
-409.83
-450.91
-486.50
-515.74
-537.23
-549.22
-549.96
-538.37
-514.21
-478.67
-433.88
-382.45
-327.02
-269.84
-212.63
-156.66
-102.95
-52.37
-5.90
35.58
71.43
101.35
125.50
144.38
158.69
169.15
176.37
180.75
182.57
182.07
179.51
175.24
169.65
163.18
156.14
148.80
141.30
133.70
126.05
118.37
110.71
103.14
95.72
88.51
81.57
74.93
68.62
62.62
56.94
51.55
46.45
41.63
37.11
32.89
29.00
25.46
22.23
19.28
16.56
14.02
11.67
9.51
7.60
5.99
4.71
3.69
2.84
2.03
1.14
0.15
-0.88
-1.78
-2.42
-2.72
-2.75
-2.71
-2.87
-3.41
-4.38
-5.59
-6.75
-7.52
-7.74
-7.52
-7.20
-7.21
-7.88
-9.25
-11.05
-12.80
-14.05
-14.57
-14.45
-14.06
-13.86
-14.21
-15.37
-17.52
-20.63
-24.30
-27.47
-28.55
-25.92
-18.74
-7.60
5.47
17.67
26.61
31.23
32.02
30.46
28.10
25.85
23.82
21.75
19.49
17.28
15.60
14.81
14.84
15.23
15.44
15.09
14.23
13.27
12.72
12.95
13.98
15.49
17.00
18.07
18.52
18.44
18.16
18.08
18.51
19.49
20.87
22.28
23.28
23.51
22.75
21.02
18.53
15.51
12.30
8.89
5.32
1.58
-2.28
-6.14
-9.83
-13.14
-15.85
-17.84
-19.11
-19.72
-19.82
-19.57
-19.06
-18.35
-17.50
-16.56
-15.69
-15.00
-14.53
-14.14
-13.63
-12.87
-11.89
-10.91
-10.14
-9.68
-9.37
-8.84
-7.77
-6.04
-3.81
-1.42
0.74
2.39
3.43
3.90
3.90
3.57
3.09
2.63
2.34
2.26
2.31
2.37
2.32
2.20
2.13
2.25
2.62
3.15
3.68
4.06
4.21
4.15
3.96
3.69
3.37
2.97
2.47
1.92
1.36
0.94
0.77
0.97
1.52
2.29
3.04
3.55
3.68
3.47
3.15
2.94
3.01
3.30
3.63
3.75
3.51
2.89
2.00
1.06
0.24
-0.35
-0.70
-0.83
-0.80
-0.71
-0.69
-0.87
-1.34
-2.09
-2.99
-3.82
-4.39
-4.67
-4.79
-5.02
-5.62
-6.67
-8.10
-9.69
-11.25
-12.69
-14.07
-15.43
-16.79
-18.14
-19.42
-20.73
-22.16
-23.79
-25.53
-27.00
-27.73
-27.29
-25.47
-22.43
-18.57
-14.38
-10.25
-6.39
-2.83
0.48
3.57
6.37
8.75
10.64
12.04
13.08
13.95
14.81
15.71
16.64
17.48
18.14
18.58
18.82
18.94
19.02
19.08
19.07
18.92
18.52
17.80
16.80
15.65
14.54
13.65
13.07
12.76
12.53
12.15
11.48
10.52
9.41
8.39
7.65
7.23
7.00
6.81
6.49
6.04
5.52
4.95
4.32
3.54
2.53
1.29
-0.05
-1.28
-2.23
-2.85
-3.20
-3.46
-3.78
-4.27
-4.97
-5.87
-6.97
-8.25
-9.67
-11.21
-12.75
-14.21
-15.50
-16.61
-17.61
-18.62
-19.80
-21.23
-22.86
-24.46
-25.70
-26.16
-25.50
-23.57
-20.44
-16.42
-11.96
-7.51
-3.46
-0.01
2.75
4.88
6.44
7.54
8.27
8.75
9.13
9.54
10.06
10.69
11.36
11.98
12.51
12.92
13.27
13.57
13.84
14.08
14.27
14.39
14.39
14.19
13.69
12.86
11.71
10.37
9.02
7.80
6.77
5.89
5.06
4.20
3.28
2.31
1.33
0.39
-0.51
-1.39
-2.31
-3.34
-4.52
-5.84
-7.18
-8.39
-9.34
-10.04
-10.63
-11.34
-12.36
-13.69
-15.15
-16.43
-17.25
-17.42
-16.91
-15.74
-13.98
-11.73
-9.11
-6.34
-3.61
-1.13
1.02
2.82
4.30
5.50
6.43
7.07
7.42
7.52
7.41
7.19
6.97
6.89
7.07
7.56
8.28
9.02
9.56
9.71
9.53
9.18
8.84
8.62
8.44
8.13
7.54
6.63
5.48
4.25
3.07
1.99
1.02
0.13
-0.69
-1.47
-2.27
-3.18
-4.31
-5.67
-7.24
-8.90
-10.54
-12.05
-13.40
-14.55
-15.47
-16.08
-16.34
-16.17
-15.49
-14.26
-12.46
-10.09
-7.24
-4.09
-0.91
1.92
4.05
5.24
5.50
5.06
4.31
3.61
3.16
2.96
2.91
2.90
2.96
3.17
3.58
4.12
4.60
4.77
4.41
3.48
2.04
0.30
-1.53
-3.30
-4.91
-6.43
-7.99
-9.78
-11.97
-14.54
-17.39
-20.30
-23.08
-25.64
-28.03
-30.34
-32.66
-34.99
-37.17
-38.95
-39.94
-39.80
-38.21
-35.01
-30.26
-24.14
-17.03
-9.36
-1.58
5.92
12.79
18.77
23.72
27.60
30.47
32.43
33.63
34.22
34.35
34.10
33.53
32.65
31.49
30.08
28.50
26.86
25.21
23.54
21.78
19.87
17.82
15.73
13.73
11.92
10.26
8.64
6.89
4.96
2.88
0.74
-1.34
-3.32
-5.23
-7.14
-9.04
-10.92
-12.64
-14.00
-14.77
-14.74
-13.79
-11.98
-9.48
-6.61
-3.65
-0.78
1.89
4.29
6.26
7.60
8.13
7.87
7.07
6.11
5.40
5.18
5.45
6.04
6.73
7.34
7.83
8.17
8.35
8.33
8.00
7.30
6.22
4.85
3.33
1.81
0.39
-0.95
-2.30
-3.77
-5.38
-7.07
-8.66
-10.04
-11.23
-12.38
-13.72
-15.35
-17.15
-18.74
-19.58
-19.20
-17.36
-14.24
-10.34
-6.29
-2.62
0.41
2.77
4.58
5.93
6.79
7.14
7.05
6.79
6.72
7.11
8.02
9.20
10.28
10.98
11.19
11.02
10.67
10.27
9.82
9.30
8.76
8.28
8.01
7.93
7.88
7.53
6.63
5.10
3.09
0.88
-1.26
-3.18
-4.86
-6.40
-7.90
-9.44
-11.06
-12.79
-14.63
-16.53
-18.31
-19.66
-20.15
-19.40
-17.26
-13.89
-9.79
-5.62
-2.00
0.78
2.74
4.21
5.59
7.10
8.74
10.32
11.69
12.77
13.65
14.45
15.22
15.94
16.48
16.77
16.80
16.65
16.42
16.23
16.09
15.99
15.86
15.61
15.10
14.24
13.02
11.60
10.21
9.10
8.33
7.81
7.27
6.48
5.38
4.12
2.98
2.18
1.76
1.50
1.16
0.51
-0.46
-1.63
-2.83
-4.01
-5.26
-6.73
-8.54
-10.62
-12.72
-14.57
-15.96
-16.90
-17.58
-18.34
-19.47
-21.12
-23.22
-25.51
-27.58
-29.03
-29.51
-28.82
-26.87
-23.75
-19.72
-15.17
-10.56
-6.24
-2.42
0.89
3.83
6.47
8.81
10.72
12.06
12.84
13.23
13.52
13.94
14.54
15.21
15.78
16.17
16.45
16.75
17.12
17.47
17.57
17.25
16.45
15.30
14.03
12.80
11.67
10.58
9.47
8.32
7.17
6.10
5.16
4.31
3.47
2.61
1.68
0.69
-0.38
-1.54
-2.81
-4.15
-5.51
-6.83
-8.18
-9.70
-11.53
-13.70
-16.01
-18.06
-19.40
-19.65
-18.73
-16.75
-14.00
-10.77
-7.28
-3.74
-0.37
2.60
4.91
6.42
7.18
7.41
7.41
7.47
7.71
8.14
8.64
9.10
9.51
9.95
10.54
11.37
12.35
13.25
13.73
13.50
12.49
10.89
9.10
7.56
6.52
5.97
5.65
5.26
4.56
3.52
2.28
1.05
-0.02
-0.92
-1.74
-2.57
-3.47
-4.41
-5.32
-6.14
-6.93
-7.85
-9.08
-10.76
-12.87
-15.23
-17.60
-19.76
-21.54
-22.82
-23.46
-23.31
-22.23
-20.17
-17.24
-13.66
-9.72
-5.74
-2.03
1.20
3.79
5.66
6.83
7.40
7.56
7.49
7.38
7.42
7.71
8.35
9.29
10.42
11.57
12.55
13.25
13.59
13.54
13.11
12.36
11.36
10.22
9.04
7.87
6.71
5.48
4.12
2.59
0.95
-0.75
-2.39
-3.88
-5.13
-6.11
-6.87
-7.56
-8.43
-9.74
-11.65
-14.13
-16.90
-19.50
-21.43
-22.25
-21.74
-19.93
-17.04
-13.48
-9.66
-5.89
-2.38
0.81
3.63
6.04
7.88
8.99
9.28
8.87
8.09
7.34
7.00
7.21
7.90
8.80
9.68
10.36
10.76
10.84
10.55
9.86
8.80
7.55
6.37
5.45
4.86
4.43
3.92
3.09
1.85
0.27
-1.49
-3.24
-4.86
-6.27
-7.46
-8.49
-9.48
-10.60
-12.05
-13.95
-16.29
-18.87
-21.33
-23.24
-24.18
-23.82
-22.03
-18.91
-14.80
-10.21
-5.67
-1.59
1.82
4.53
6.65
8.29
9.55
10.46
11.06
11.39
11.57
11.71
11.91
12.22
12.64
13.13
13.63
14.05
14.29
14.23
13.78
12.91
11.67
10.20
8.65
7.12
5.64
4.19
2.72
1.25
-0.11
-1.24
-2.09
-2.76
-3.48
-4.49
-5.93
-7.75
-9.72
-11.58
-13.16
-14.54
-15.88
-17.34
-18.89
-20.28
-21.07
-20.89
-19.49
-16.87
-13.30
-9.14
-4.83
-0.74
2.80
5.61
7.63
8.91
9.62
9.98
10.22
10.50
10.90
11.43
12.06
12.72
13.33
13.83
14.15
14.21
13.98
13.47
12.74
11.95
11.22
10.57
9.92
9.09
7.94
6.44
4.69
2.93
1.34
0.05
-1.00
-1.94
-2.90
-3.95
-5.07
-6.20
-7.32
-8.51
-9.90
-11.62
-13.73
-16.08
-18.46
-20.51
-21.94
-22.49
-22.03
-20.50
-17.92
-14.43
-10.29
-5.87
-1.56
2.28
5.44
7.86
9.60
10.80
11.64
12.27
12.76
13.13
13.31
13.29
13.12
12.92
12.87
13.05
13.40
13.76
13.89
13.64
13.00
12.13
11.16
10.19
9.18
8.04
6.74
5.35
3.98
2.72
1.54
0.33
-1.04
-2.65
-4.46
-6.35
-8.17
-9.80
-11.18
-12.33
-13.35
-14.44
-15.81
-17.55
-19.55
-21.43
-22.63
-22.59
-20.98
-17.83
-13.52
-8.67
-3.90
0.27
3.58
6.00
7.68
8.84
9.64
10.18
10.45
10.49
10.41
10.42
10.76
11.47
12.43
13.25
13.56
13.20
12.28
11.09
10.01
9.24
8.75
8.35
7.84
7.10
6.15
5.10
4.00
2.88
1.68
0.30
-1.36
-3.28
-5.37
-7.42
-9.22
-10.61
-11.66
-12.55
-13.59
-15.00
-16.76
-18.60
-20.01
-20.45
-19.54
-17.24
-13.81
-9.71
-5.44
-1.39
2.19
5.15
7.38
8.81
9.39
9.22
8.59
7.86
7.39
7.43
7.95
8.72
9.43
9.83
9.83
9.56
9.25
9.09
9.13
9.17
8.96
8.23
6.92
5.14
3.17
1.24
-0.53
-2.17
-3.78
-5.39
-6.98
-8.44
-9.72
-10.91
-12.17
-13.63
-15.25
-16.77
-17.83
-18.13
-17.52
-16.01
-13.72
-10.85
-7.55
-4.05
-0.64
2.37
4.73
6.32
7.21
7.63
7.82
7.96
8.09
8.20
8.26
8.33
8.50
8.80
9.21
9.57
9.69
9.42
8.73
7.75
6.65
5.59
4.57
3.46
2.08
0.28
-1.89
-4.26
-6.57
-8.59
-10.28
-11.73
-13.19
-14.85
-16.80
-18.83
-20.53
-21.36
-20.89
-18.99
-15.94
-12.28
-8.63
-5.41
-2.71
-0.34
1.97
4.35
6.67
8.63
9.91
10.41
10.29
9.96
9.79
10.03
10.64
11.33
11.82
11.88
11.50
10.85
10.10
9.37
8.63
7.74
6.58
5.09
3.39
1.65
0.09
-1.20
-2.28
-3.28
-4.39
-5.75
-7.38
-9.24
-11.25
-13.37
-15.58
-17.83
-19.96
-21.63
-22.39
-21.79
-19.63
-16.10
-11.71
-7.10
-2.81
0.92
4.10
6.82
9.08
10.81
11.90
12.37
12.51
12.66
13.16
14.08
15.24
16.29
16.96
17.16
16.99
16.66
16.31
15.98
15.63
15.14
14.38
13.27
11.78
9.96
7.90
5.74
3.67
1.82
0.22
-1.20
-2.57
-4.00
-5.51
-7.00
-8.36
-9.56
-10.72
-12.09
-13.92
-16.35
-19.27
-22.33
-25.03
-26.87
-27.46
-26.61
-24.29
-20.68
-16.07
-10.90
-5.63
-0.69
3.60
7.10
9.76
11.65
12.87
13.52
13.77
13.85
13.99
14.37
15.02
15.91
16.89
17.83
18.68
19.39
19.92
20.19
20.09
19.58
18.69
17.56
16.34
15.10
13.82
12.43
10.87
9.21
7.56
6.03
4.66
3.41
2.24
1.16
0.24
-0.52
-1.18
-1.96
-3.14
-4.90
-7.23
-9.85
-12.38
-14.44
-15.86
-16.75
-17.46
-18.46
-20.13
-22.62
-25.71
-28.86
-31.32
-32.39
-31.60
-28.89
-24.53
-19.08
-13.23
-7.54
-2.41
1.99
5.67
8.66
10.94
12.48
13.31
13.58
13.60
13.70
14.11
14.85
15.73
16.50
16.97
17.14
17.08
16.94
16.80
16.67
16.57
16.48
16.36
16.11
15.59
14.70
13.39
11.81
10.15
8.62
7.32
6.20
5.14
4.05
2.91
1.81
0.83
-0.01
-0.79
-1.67
-2.75
-4.08
-5.54
-6.99
-8.30
-9.46
-10.64
-12.03
-13.85
-16.12
-18.75
-21.48
-24.10
-26.47
-28.48
-30.01
-30.75
-30.27
-28.16
-24.30
-18.99
-12.91
-6.89
-1.56
2.77
6.08
8.53
10.20
11.16
11.47
11.30
10.95
10.71
10.76
11.11
11.69
12.40
13.23
14.20
15.29
16.32
17.05
17.20
16.64
15.45
13.88
12.28
10.92
9.88
9.03
8.16
7.07
5.71
4.23
2.83
1.69
0.79
-0.04
-1.05
-2.38
-4.01
-5.76
-7.45
-8.97
-10.36
-11.71
-13.14
-14.67
-16.31
-18.08
-19.99
-22.05
-24.16
-26.02
-27.23
-27.34
-26.06
-23.31
-19.30
-14.43
-9.23
-4.20
0.27
3.92
6.67
8.53
9.58
9.94
9.77
9.30
8.81
8.59
8.82
9.50
10.43
11.28
11.79
11.86
11.63
11.34
11.21
11.28
11.39
11.24
10.53
9.17
7.32
5.29
3.43
1.97
0.90
0.05
-0.87
-2.07
-3.63
-5.48
-7.42
-9.21
-10.74
-11.98
-13.06
-14.19
-15.56
-17.31
-19.47
-21.92
-24.42
-26.63
-28.13
-28.51
-27.39
-24.65
-20.39
-15.03
-9.22
-3.59
1.30
5.15
7.84
9.44
10.19
10.40
10.40
10.46
10.73
11.23
11.89
12.60
13.29
13.88
14.34
14.64
14.78
14.79
14.70
14.53
14.23
13.65
12.61
11.05
9.09
6.99
5.05
3.47
2.26
1.28
0.32
-0.79
-2.13
-3.72
-5.52
-7.49
-9.56
-11.63
-13.62
-15.54
-17.43
-19.42
-21.59
-23.83
-25.88
-27.33
-27.74
-26.85
-24.58
-20.99
-16.27
-10.70
-4.65
1.35
6.68
10.74
13.18
14.05
13.78
13.03
12.41
12.26
12.60
13.24
13.95
14.59
15.09
15.42
15.58
15.54
15.34
15.08
14.88
14.80
14.71
14.33
13.37
11.67
9.40
6.96
4.88
3.47
2.67
2.14
1.38
0.06
-1.89
-4.23
-6.64
-8.86
-10.79
-12.53
-14.22
-16.02
-18.06
-20.40
-23.03
-25.79
-28.37
-30.33
-31.14
-30.35
-27.71
-23.29
-17.43
-10.74
-3.98
2.10
6.96
10.33
12.28
13.17
13.41
13.40
13.40
13.52
13.83
14.33
14.97
15.70
16.39
16.90
17.13
17.05
16.74
16.37
16.07
15.83
15.49
14.82
13.61
11.87
9.74
7.52
5.48
3.79
2.45
1.39
0.50
-0.34
-1.28
-2.46
-4.01
-5.92
-7.95
-9.79
-11.18
-12.07
-12.83
-13.94
-15.87
-18.74
-22.19
-25.48
-27.79
-28.52
-27.43
-24.66
-20.56
-15.51
-9.92
-4.17
1.30
6.00
9.55
11.79
12.88
13.25
13.38
13.63
14.11
14.74
15.37
15.91
16.37
16.83
17.30
17.67
17.78
17.47
16.68
15.54
14.27
13.14
12.31
11.77
11.33
10.72
9.73
8.30
6.53
4.67
2.94
1.49
0.29
-0.78
-1.87
-3.07
-4.37
-5.73
-7.15
-8.66
-10.31
-12.17
-14.28
-16.64
-19.23
-21.95
-24.63
-26.96
-28.56
-29.01
-27.97
-25.26
-20.99
-15.51
-9.35
-3.15
2.46
7.02
10.25
12.14
12.86
12.73
12.06
11.16
10.29
9.64
9.39
9.63
10.34
11.40
12.59
13.66
14.42
14.75
14.64
14.11
13.23
12.08
10.73
9.26
7.74
6.25
4.84
3.50
2.15
0.69
-0.99
-2.88
-4.85
-6.69
-8.22
-9.44
-10.55
-11.89
-13.75
-16.23
-19.06
-21.72
-23.62
-24.24
-23.33
-20.95
-17.37
-12.99
-8.24
-3.53
0.81
4.57
7.64
10.00
11.65
12.58
12.80
12.42
11.63
10.76
10.10
9.89
10.13
10.66
11.24
11.63
11.75
11.60
11.26
10.76
10.10
9.24
8.16
6.92
5.58
4.19
2.72
1.14
-0.61
-2.52
-4.54
-6.58
-8.55
-10.40
-12.13
-13.81
-15.53
-17.41
-19.51
-21.83
-24.23
-26.37
-27.83
-28.09
-26.78
-23.78
-19.23
-13.51
-7.14
-0.71
5.22
10.16
13.72
15.73
16.24
15.61
14.38
13.15
12.37
12.26
12.78
13.72
14.85
15.97
16.93
17.57
17.73
17.30
16.28
14.81
13.19
11.64
10.31
9.14
7.94
6.54
4.86
2.97
1.03
-0.80
-2.44
-3.88
-5.21
-6.53
-7.95
-9.54
-11.37
-13.46
-15.84
-18.51
-21.44
-24.51
-27.44
-29.79
-31.01
-30.58
-28.21
-24.00
-18.41
-12.17
-6.00
-0.49
4.14
7.89
10.88
13.22
14.87
15.72
15.72
15.02
14.03
13.27
13.17
13.86
15.12
16.51
17.56
17.97
17.78
17.18
16.44
15.71
14.95
14.03
12.79
11.22
9.46
7.76
6.33
5.24
4.37
3.47
2.31
0.75
-1.12
-3.10
-4.96
-6.58
-7.97
-9.27
-10.67
-12.30
-14.18
-16.29
-18.59
-21.06
-23.68
-26.37
-28.85
-30.63
-31.06
-29.57
-25.87
-20.20
-13.30
-6.18
0.21
5.29
8.91
11.31
12.84
13.75
14.11
13.96
13.39
12.70
12.27
12.43
13.27
14.58
15.95
16.99
17.47
17.44
17.09
16.61
16.05
15.33
14.31
12.90
11.17
9.34
7.65
6.30
5.34
4.64
3.99
3.11
1.80
0.00
-2.18
-4.46
-6.50
-8.04
-9.02
-9.62
-10.24
-11.38
-13.37
-16.28
-19.89
-23.66
-26.95
-29.18
-29.88
-28.88
-26.20
-22.06
-16.82
-10.95
-4.93
0.72
5.59
9.41
12.12
13.82
14.76
15.18
15.30
15.26
15.15
15.02
14.96
15.05
15.36
15.88
16.49
17.01
17.27
17.20
16.81
16.23
15.56
14.83
13.91
12.64
10.94
8.88
6.74
4.85
3.42
2.38
1.44
0.22
-1.49
-3.63
-5.88
-7.85
-9.30
-10.27
-11.08
-12.15
-13.82
-16.24
-19.30
-22.76
-26.18
-29.05
-30.79
-30.88
-28.91
-24.86
-19.07
-12.19
-5.02
1.71
7.48
12.01
15.19
17.04
17.62
17.12
15.82
14.16
12.65
11.72
11.59
12.20
13.20
14.17
14.81
15.03
14.90
14.58
14.10
13.39
12.28
10.70
8.80
6.89
5.31
4.17
3.32
2.34
0.85
-1.31
-3.97
-6.69
-9.03
-10.77
-12.00
-13.07
-14.41
-16.33
-18.84
-21.66
-24.27
-26.16
-26.87
-26.17
-24.03
-20.57
-16.03
-10.77
-5.20
0.25
5.16
9.20
12.22
14.17
15.16
15.33
14.89
14.07
13.15
12.39
12.01
12.08
12.53
13.19
13.84
14.29
14.38
14.04
13.25
12.08
10.61
8.97
7.21
5.33
3.26
0.97
-1.42
-3.75
-5.78
-7.42
-8.76
-10.05
-11.62
-13.69
-16.32
-19.30
-22.23
-24.63
-25.98
-25.83
-23.88
-20.09
-14.71
-8.33
-1.68
4.45
9.45
12.97
14.94
15.54
15.08
13.92
12.44
10.95
9.75
9.03
8.91
9.34
10.12
10.97
11.62
11.88
11.67
11.05
10.08
8.78
7.09
4.94
2.33
-0.59
-3.56
-6.31
-8.66
-10.66
-12.52
-14.52
-16.88
-19.64
-22.70
-25.88
-28.92
-31.52
-33.28
-33.76
-32.59
-29.59
-24.94
-19.15
-12.90
-6.80
-1.26
3.58
7.68
10.98
13.38
14.78
15.23
14.94
14.27
13.57
13.05
12.81
12.86
13.15
13.64
14.15
14.44
14.24
13.37
11.79
9.65
7.14
4.39
1.49
-1.50
-4.43
-7.08
-9.27
-10.97
-12.40
-13.92
-15.95
-18.72
-22.21
-26.12
-29.94
-33.09
-34.93
-34.95
-32.79
-28.42
-22.19
-14.79
-7.12
0.01
6.00
10.63
13.91
16.01
17.12
17.42
17.12
16.53
16.01
15.85
16.18
16.90
17.76
18.43
18.72
18.53
17.90
16.91
15.65
14.23
12.73
11.21
9.62
7.80
5.58
2.87
-0.21
-3.34
-6.17
-8.50
-10.41
-12.21
-14.24
-16.74
-19.74
-23.08
-26.52
-29.76
-32.42
-33.97
-33.81
-31.46
-26.76
-20.07
-12.17
-4.09
3.24
9.19
13.60
16.62
18.56
19.72
20.33
20.53
20.47
20.33
20.33
20.67
21.39
22.36
23.31
23.92
24.00
23.49
22.48
21.09
19.41
17.44
15.21
12.77
10.26
7.84
5.63
3.66
1.86
0.09
-1.73
-3.66
-5.69
-7.79
-9.90
-12.00
-14.10
-16.26
-18.61
-21.27
-24.34
-27.78
-31.35
-34.59
-36.80
-37.25
-35.40
-31.14
-24.86
-17.30
-9.39
-1.90
4.68
10.12
14.39
17.49
19.43
20.30
20.29
19.79
19.23
19.02
19.37
20.28
21.55
22.85
23.85
24.23
23.85
22.77
21.20
19.48
17.90
16.57
15.36
14.03
12.36
10.33
8.09
5.94
4.12
2.68
1.53
0.44
-0.84
-2.46
-4.47
-6.80
-9.33
-11.83
-14.10
-15.99
-17.53
-18.97
-20.74
-23.22
-26.56
-30.56
-34.55
-37.67
-39.02
-37.95
-34.24
-28.16
-20.40
-11.84
-3.39
4.24
10.58
15.38
18.58
20.23
20.52
19.76
18.43
17.13
16.34
16.37
17.21
18.56
20.02
21.17
21.81
21.88
21.49
20.79
19.93
18.99
17.97
16.83
15.51
13.98
12.21
10.26
8.16
5.99
3.88
1.92
0.23
-1.18
-2.34
-3.42
-4.57
-5.95
-7.60
-9.50
-11.61
-13.84
-16.16
-18.51
-20.85
-23.12
-25.36
-27.62
-29.90
-32.03
-33.55
-33.85
-32.35
-28.72
-23.11
-16.03
-8.23
-0.51
6.47
12.15
16.16
18.29
18.64
17.58
15.83
14.15
13.18
13.19
14.08
15.49
16.98
18.27
19.21
19.78
19.99
19.81
19.19
18.06
16.45
14.49
12.33
10.16
8.12
6.30
4.71
3.37
2.21
1.14
-0.00
-1.39
-3.18
-5.40
-7.96
-10.57
-12.87
-14.58
-15.61
-16.15
-16.65
-17.62
-19.45
-22.24
-25.73
-29.32
-32.23
-33.73
-33.25
-30.53
-25.69
-19.18
-11.74
-4.18
2.72
8.35
12.38
14.76
15.66
15.40
14.39
13.02
11.68
10.65
10.13
10.19
10.77
11.72
12.83
13.89
14.69
15.09
14.95
14.20
12.82
10.87
8.49
5.89
3.28
0.84
-1.35
-3.33
-5.19
-7.02
-8.89
-10.77
-12.59
-14.33
-16.03
-17.82
-19.89
-22.34
-25.05
-27.67
-29.62
-30.29
-29.17
-26.11
-21.28
-15.22
-8.64
-2.20
3.60
8.44
12.18
14.78
16.23
16.60
16.08
14.98
13.69
12.60
12.00
11.96
12.42
13.16
13.90
14.38
14.37
13.76
12.57
10.94
9.04
7.00
4.81
2.38
-0.35
-3.31
-6.30
-9.07
-11.42
-13.32
-14.87
-16.28
-17.75
-19.50
-21.68
-24.42
-27.65
-31.03
-33.95
-35.58
-35.17
-32.30
-27.05
-20.01
-12.06
-4.18
2.88
8.70
13.15
16.30
18.25
19.15
19.23
18.78
18.22
17.93
18.09
18.64
19.27
19.63
19.45
18.68
17.42
15.88
14.20
12.52
10.91
9.44
8.10
6.82
5.40
3.63
1.34
-1.45
-4.58
-7.77
-10.74
-13.31
-15.44
-17.27
-19.04
-21.04
-23.52
-26.55
-29.89
-32.98
-35.05
-35.30
-33.20
-28.72
-22.28
-14.69
-6.77
0.81
7.59
13.30
17.71
20.65
22.05
22.09
21.18
19.91
18.85
18.38
18.56
19.23
20.08
20.79
21.14
21.04
20.48
19.58
18.43
17.09
15.59
13.91
12.08
10.17
8.28
6.44
4.60
2.56
0.16
-2.62
-5.57
-8.32
-10.58
-12.27
-13.64
-15.12
-17.14
-19.92
-23.40
-27.26
-31.02
-34.10
-35.91
-35.88
-33.59
-28.92
-22.10
-13.84
-5.11
3.05
9.83
14.79
17.90
19.45
19.87
19.60
19.00
18.31
17.69
17.24
17.01
17.04
17.31
17.73
18.11
18.23
17.91
17.05
15.74
14.14
12.46
10.79
9.08
7.21
5.07
2.68
0.22
-2.04
-3.89
-5.27
-6.34
-7.38
-8.65
-10.29
-12.31
-14.65
-17.21
-19.91
-22.64
-25.14
-26.97
-27.56
-26.35
-22.98
-17.57
-10.70
-3.30
3.63
9.33
13.43
15.97
17.26
17.65
17.37
16.58
15.37
13.90
12.42
11.26
10.73
10.95
11.83
13.03
14.11
14.67
14.50
13.68
12.44
11.03
9.62
8.17
6.55
4.71
2.67
0.61
-1.25
-2.79
-4.08
-5.32
-6.78
-8.66
-11.01
-13.73
-16.55
-19.03
-20.71
-21.12
-19.95
-17.07
-12.60
-6.93
-0.59
5.77
11.56
16.30
19.67
21.59
22.11
21.40
19.73
17.41
14.84
12.44
10.55
9.38
8.94
9.05
9.37
9.57
9.41
8.78
7.71
6.30
4.65
2.81
0.82
-1.29
-3.49
-5.68
-7.74
-9.50
-10.86
-11.87
-12.72
-13.74
-15.23
-17.30
-19.74
-22.01
-23.37
-23.12
-20.81
-16.52
-10.73
-4.25
2.06
7.53
11.78
14.71
16.37
16.86
16.26
14.70
12.44
9.89
7.58
5.93
5.17
5.25
5.87
6.70
7.40
7.76
7.69
7.23
6.43
5.36
4.13
2.78
1.31
-0.32
-2.21
-4.41
-6.90
-9.57
-12.30
-14.96
-17.51
-19.92
-22.20
-24.26
-25.80
-26.33
-25.34
-22.49
-17.71
-11.41
-4.50
1.75
6.06
7.67
6.56
3.45
-0.48
-3.99
-6.17
-6.92
-7.07
-7.80
-9.81
-12.99
-16.38
-18.66
-18.73
-16.31
-12.40
-9.17
-8.80
-12.32
-19.14
-27.33
-34.40
-38.00
-36.29
-28.63
-15.79
0.39
17.35
31.94
40.62
40.00
28.00
8.12
-10.26
-17.12
-7.73
15.27
43.63
67.64
80.44
80.54
71.79
59.93
49.04
40.01
31.56
22.12
11.73
2.27
-3.97
-5.56
-3.45
-0.58
-0.23
-4.14
-12.33
-23.65
-35.84
-47.09
-55.89
-61.79
-65.48
-68.05
-70.00
-70.87
-69.21
-62.06
-50.00
-35.03
-20.45
-9.53
-4.24
-3.49
-5.10
-6.94
-7.84
-8.42
-9.72
-12.73
-17.73
-24.18
-30.28
-33.97
-33.62
-28.84
-21.30
-13.81
-9.61
-11.10
-18.68
-28.79
-35.47
-33.93
-21.70
-0.95
21.78
37.79
39.53
24.02
-3.92
-34.26
-56.80
-65.84
-61.79
-49.38
-34.34
-21.15
-11.95
-4.19
6.61
24.32
50.66
85.97
130.40
184.57
248.15
304.98
337.06
335.10
305.66
263.45
220.52
182.28
149.90
122.18
97.00
74.72
56.58
43.08
32.18
22.87
10.08
-8.33
-31.90
-58.36
-82.72
-99.87
-106.98
-105.11
-97.45
-87.94
-78.76
-70.82
-64.52
-56.71
-45.71
-32.05
-19.31
-11.46
-10.52
-15.75
-23.91
-31.39
-35.50
-35.26
-31.57
-29.96
-32.01
-38.88
-51.13
-69.36
-95.06
-130.99
-174.45
-214.67
-243.12
-254.67
-249.13
-228.30
-194.56
-151.56
-104.75
-60.21
-23.43
1.76
15.55
20.66
20.98
19.17
17.07
15.27
14.24
14.26
14.98
16.53
18.86
21.84
25.16
28.23
30.61
32.58
34.99
37.31
39.71
42.26
44.86
47.07
48.31
48.23
47.01
45.20
43.12
41.13
39.16
36.87
33.87
30.01
25.41
20.54
15.92
11.78
8.23
5.22
2.55
-0.11
-3.10
-6.65
-10.81
-15.40
-20.20
-24.81
-28.85
-31.98
-34.05
-35.03
-34.95
-33.90
-32.01
-29.52
-26.67
-23.52
-20.28
-17.47
-15.88
-16.18
-18.51
-22.32
-26.62
-30.11
-31.16
-28.99
-24.17
-18.40
-13.43
-10.09
-8.04
-6.10
-2.21
6.99
24.02
48.96
79.02
109.52
135.31
151.84
155.67
146.45
128.86
109.53
94.27
86.02
84.99
89.39
95.76
99.16
96.17
88.10
78.44
71.00
68.69
74.17
90.15
118.20
157.01
185.76
187.14
157.67
108.51
52.27
-4.62
-59.07
-103.23
-137.57
-159.59
-164.62
-151.46
-124.53
-92.19
-64.66
-48.33
-44.67
-51.99
-65.56
-79.00
-87.77
-90.41
-88.10
-82.61
-74.73
-65.04
-55.23
-46.64
-39.38
-33.32
-28.36
-24.52
-21.75
-19.35
-16.82
-14.75
-13.64
-13.62
-14.59
-16.34
-18.62
-21.13
-23.31
-24.82
-25.91
-26.83
-27.69
-28.40
-28.84
-28.99
-29.03
-29.19
-29.72
-30.79
-32.08
-33.01
-32.89
-31.30
-28.26
-24.29
-20.04
-16.10
-12.77
-10.15
-8.27
-7.21
-7.06
-7.77
-8.98
-10.02
-10.14
-8.86
-6.02
-1.74
3.82
10.55
18.33
26.73
34.88
41.68
46.23
48.32
48.53
47.93
47.44
47.34
47.17
46.11
43.57
39.59
34.85
30.25
26.47
23.64
21.36
19.02
16.05
12.27
7.89
3.43
-0.45
-3.14
-4.23
-3.59
-1.37
2.00
6.00
10.04
13.76
16.99
19.80
22.39
25.07
28.05
31.30
34.32
36.18
35.81
32.46
26.22
18.16
9.98
3.32
-0.93
-2.94
-3.66
-4.24
-5.38
-7.04
-8.64
-9.54
-9.43
-8.41
-6.86
-5.13
-3.38
-1.64
0.07
1.66
2.84
3.35
3.03
1.99
0.64
-0.50
-0.96
-0.47
0.99
3.17
5.73
8.34
10.77
13.01
15.10
17.10
18.87
20.01
20.02
18.56
15.72
12.04
8.41
5.70
4.42
4.61
5.84
7.46
8.85
9.61
9.67
9.19
8.51
8.01
7.89
8.15
8.61
8.98
9.00
8.56
7.60
6.13
4.07
1.26
-2.53
-7.55
-13.90
-21.54
-30.15
-39.12
-47.69
-55.01
-60.41
-63.54
-64.41
-63.33
-60.62
-56.50
-51.04
-44.25
-36.24
-27.32
-18.00
-8.88
-0.46
6.98
13.43
19.10
24.19
28.79
32.77
35.89
38.00
39.17
39.72
40.11
40.62
41.30
41.90
42.09
41.70
40.81
39.71
38.68
37.89
37.28
36.75
36.19
35.60
34.93
33.99
32.39
29.62
25.31
19.39
12.19
4.30
-3.55
-10.73
-16.81
-21.59
-25.07
-27.31
-28.39
-28.37
-27.34
-25.48
-23.14
-20.75
-18.83
-17.72
-17.52
-18.01
-18.70
-19.03
-18.61
-17.33
-15.46
-13.47
-11.82
-10.80
-10.44
-10.51
-10.72
-10.91
-11.06
-11.29
-11.73
-12.36
-13.04
-13.61
-14.00
-14.31
-14.71
-15.33
-16.18
-17.14
-18.12
-19.13
-20.23
-21.48
-22.80
-23.87
-24.23
-23.44
-21.25
-17.65
-12.92
-7.45
-1.78
3.58
8.10
11.40
13.27
13.76
13.17
11.82
10.08
8.19
6.31
4.55
3.00
1.69
0.61
-0.28
-1.07
-1.82
-2.57
-3.29
-4.02
-4.78
-5.59
-6.47
-7.44
-8.55
-9.70
-10.65
-10.93
-9.93
-7.25
-2.90
2.51
7.99
12.54
15.51
16.80
16.78
16.01
14.93
13.82
12.78
11.91
11.41
11.61
12.90
15.58
19.76
25.22
31.39
37.53
42.93
47.16
50.20
52.29
53.64
54.30
54.07
52.75
50.37
47.28
44.08
41.37
39.45
38.24
37.32
36.14
34.24
31.36
27.50
22.88
17.79
12.55
7.45
2.66
-1.73
-5.72
-9.39
-12.86
-16.21
-19.45
-22.40
-24.80
-26.38
-27.13
-27.27
-27.26
-27.50
-28.03
-28.47
-28.04
-25.93
-21.67
-15.44
-8.11
-1.17
3.67
4.79
1.02
-8.05
-21.96
-39.31
-58.05
-75.93
-91.07
-102.50
-110.41
-116.04
-121.07
-126.78
-133.37
-139.74
-144.06
-144.61
-140.75
-133.25
-123.85
-114.44
-106.10
-98.74
-91.37
-82.88
-72.75
-61.43
-50.06
-39.91
-31.70
-25.41
-20.49
-16.30
-12.68
-10.03
-8.99
-9.87
-12.12
-14.54
-15.94
-16.08
-16.17
-18.38
-24.77
-35.75
-49.81
-64.16
-75.81
-82.75
-84.48
-81.75
-75.81
-67.70
-57.91
-46.92
-35.59
-24.96
-15.49
-6.40
4.25
18.89
39.07
64.98
94.19
122.14
143.74
155.27
155.62
146.26
130.57
112.26
95.80
83.57
75.40
69.53
64.14
57.85
49.14
36.26
17.05
-7.06
-34.29
-62.84
-90.11
-111.92
-123.91
-123.86
-112.18
-92.09
-62.87
-25.13
18.20
63.74
110.08
157.67
206.51
255.86
302.75
349.41
395.43
436.00
465.01
479.17
479.22
467.80
448.99
386.48
268.53
115.38
-35.79
-157.54
-239.34
-278.23
-283.83
-263.50
-225.40
-172.00
-106.94
-41.63
12.09
47.25
63.08
62.18
49.58
29.58
10.65
-2.15
-9.65
-16.12
-25.67
-40.15
-59.85
-82.84
-106.80
-125.70
-135.40
-135.85
-129.77
-120.25
-109.40
-98.67
-88.46
-79.10
-68.61
-55.69
-40.95
-26.02
-12.03
1.14
14.40
29.08
40.81
46.69
46.55
42.78
37.72
32.65
27.92
23.06
16.95
8.20
-3.21
-16.21
-29.03
-39.90
-47.51
-51.44
-52.25
-51.23
-49.70
-47.94
-45.89
-43.60
-41.59
-40.45
-40.34
-40.92
-41.46
-41.06
-38.63
-34.04
-27.28
-19.17
-10.83
-3.07
3.75
9.60
14.61
19.00
22.74
25.61
27.24
27.52
26.88
26.17
26.30
27.82
30.65
33.94
36.44
36.84
34.38
29.30
22.68
16.09
10.88
7.74
6.50
6.27
6.38
5.70
3.19
-1.75
-9.09
-18.18
-27.96
-37.23
-44.97
-50.49
-53.54
-54.04
-51.98
-47.40
-40.57
-32.06
-22.76
-13.63
-5.39
1.63
7.60
12.98
18.12
23.02
27.38
30.81
33.07
34.22
34.51
34.25
33.64
32.72
31.43
29.81
28.07
26.55
25.48
24.88
24.61
24.38
24.01
23.38
22.52
21.48
20.17
18.27
15.28
10.65
3.88
-5.40
-17.29
-31.44
-46.77
-61.59
-73.92
-81.91
-84.30
-81.03
-73.45
-64.01
-55.59
-50.30
-49.10
-51.83
-57.54
-64.68
-72.02
-79.01
-85.60
-92.11
-97.98
-102.32
-104.37
-103.67
-99.68
-92.22
-81.59
-68.54
-54.47
-39.84
-24.95
-10.10
4.77
20.55
38.11
57.56
78.08
97.68
115.71
132.14
147.34
157.32
158.72
151.61
139.79
132.02
128.43
128.26
131.60
136.08
140.89
145.81
150.10
152.22
150.05
141.16
125.31
103.69
78.33
52.08
28.17
9.03
-4.15
-11.64
-15.27
-16.54
-16.89
-17.59
-19.16
-21.41
-24.31
-27.81
-31.86
-36.67
-41.91
-47.18
-52.18
-56.58
-60.13
-63.76
-68.30
-74.15
-81.38
-89.60
-98.30
-106.88
-114.57
-120.74
-126.43
-132.44
-138.77
-144.91
-150.38
-155.03
-158.72
-161.05
-161.39
-160.87
-159.87
-157.76
-153.48
-146.61
-137.62
-127.40
-116.75
-95.43
-60.94
-18.73
22.39
57.40
86.35
111.07
132.21
148.68
158.47
158.47
148.45
131.57
112.81
96.27
83.74
74.79
67.95
62.12
54.96
45.94
36.21
27.59
21.08
16.48
12.69
8.50
3.01
-5.13
-16.03
-28.59
-41.02
-51.82
-60.26
-66.32
-70.42
-71.92
-71.14
-68.58
-64.93
-60.92
-56.93
-52.24
-44.72
-31.29
-9.32
21.45
58.63
97.63
133.28
161.68
181.33
193.10
198.99
200.68
198.35
191.10
177.80
158.44
134.76
110.13
88.46
72.83
64.40
62.22
64.09
67.80
72.13
76.98
82.63
88.46
92.27
90.65
80.43
60.48
32.66
1.37
-28.07
-51.51
-67.33
-76.61
-82.00
-86.25
-90.99
-96.36
-101.39
-104.77
-105.51
-103.30
-98.50
-91.91
-84.40
-76.53
-68.57
-60.59
-52.81
-45.69
-39.83
-35.66
-33.05
-31.28
-29.27
-26.07
-21.29
-15.32
-9.12
-3.80
-0.11
1.80
2.43
2.60
3.08
4.34
6.39
8.94
11.72
14.61
17.81
21.57
25.91
30.43
34.34
36.75
37.14
35.47
32.18
27.72
22.12
14.94
5.50
-6.56
-20.83
-35.99
-50.16
-61.34
-68.01
-69.36
-65.43
-56.97
-45.48
-33.01
-21.86
-14.12
-11.07
-12.86
-18.58
-26.71
-35.71
-44.41
-52.20
-58.71
-63.64
-66.62
-67.41
-66.08
-63.24
-59.80
-56.68
-54.36
-52.66
-50.99
-48.57
-44.88
-39.80
-33.56
-26.52
-18.93
-10.92
-2.49
6.31
15.37
24.48
33.41
42.01
50.13
57.65
64.46
70.44
75.49
79.55
82.66
84.80
85.98
86.25
85.64
84.28
82.30
79.86
77.07
74.03
70.80
67.45
64.02
60.46
56.62
52.35
47.57
42.47
37.47
33.09
29.73
27.41
25.84
24.56
23.21
21.73
20.33
19.27
18.62
18.22
17.62
16.32
13.98
10.54
6.21
1.36
-3.55
-8.18
-12.29
-15.84
-19.06
-22.52
-27.26
-34.57
-45.64
-61.10
-80.55
-102.44
-124.42
-143.97
-159.14
-169.01
-173.59
-173.47
-169.34
-161.80
-151.46
-139.22
-126.34
-114.29
-104.23
-96.69
-91.41
-87.62
-84.36
-80.85
-76.67
-71.68
-66.00
-59.99
-54.22
-49.41
-46.20
-44.93
-45.56
-47.72
-50.92
-54.74
-58.94
-63.35
-67.88
-72.44
-77.04
-81.81
-86.87
-92.18
-97.42
-101.95
-105.01
-105.93
-104.23
-99.69
-92.26
-82.02
-69.26
-54.60
-39.06
-24.04
-11.04
-1.35
4.34
6.17
5.02
2.20
-0.99
-3.62
-5.23
-5.69
-4.92
-2.73
1.10
6.59
13.41
20.86
28.19
34.90
41.01
47.01
53.65
61.51
70.85
81.49
92.92
104.44
115.40
125.37
134.21
142.12
149.55
157.04
165.02
173.64
182.75
191.95
200.93
209.47
217.59
225.36
232.72
239.31
244.53
247.60
247.85
244.87
238.51
228.86
216.15
200.64
182.71
162.84
141.66
119.77
97.69
75.88
54.70
34.66
16.34
0.32
-13.08
-23.92
-32.66
-39.93
-46.16
-51.46
-55.56
-58.11
-58.88
-58.02
-55.96
-53.21
-50.12
-46.81
-43.20
-39.28
-35.21
-31.37
-28.26
-26.23
-25.31
-25.16
-25.17
-24.73
-23.44
-21.35
-18.85
-16.54
-14.96
-14.36
-14.63
-15.44
-16.34
-16.99
-17.15
-16.79
-15.99
-14.84
-13.45
-11.81
-9.91
-7.77
-5.43
-3.02
-0.72
1.26
2.76
3.69
4.12
4.18
4.15
4.40
5.47
7.68
10.89
14.50
17.51
19.09
18.82
17.13
15.19
14.65
16.59
20.88
26.32
31.10
34.19
35.60
36.55
38.86
44.09
52.30
61.76
70.23
75.40
76.08
70.79
57.53
34.31
1.11
-38.96
-79.47
-111.80
-128.62
-125.94
-107.18
-81.05
-59.02
-47.38
-45.35
-49.77
-55.53
-64.66
-78.24
-94.63
-109.43
-117.31
-114.18
-99.30
-76.58
-52.30
-32.69
-20.86
-17.21
-20.24
-27.50
-36.08
-43.38
-47.57
-47.73
-44.62
-40.14
-37.47
-39.48
-46.94
-57.34
-65.88
-67.79
-60.41
-44.70
-24.35
-4.30
11.45
21.37
26.46
28.88
30.37
31.54
32.02
31.43
29.98
28.63
28.59
30.68
34.80
39.86
44.43
47.38
48.44
48.23
47.73
47.80
48.57
49.26
48.50
44.86
37.64
27.18
14.81
2.24
-9.11
-18.60
-26.49
-33.54
-40.58
-47.99
-55.69
-63.15
-69.73
-74.79
-77.92
-78.91
-77.88
-75.29
-71.84
-68.40
-65.70
-64.23
-64.21
-65.53
-67.90
-70.89
-74.07
-77.14
-80.00
-82.78
-85.71
-88.87
-91.90
-93.85
-93.38
-89.12
-80.13
-66.30
-48.37
-27.61
-5.47
16.87
38.56
59.07
77.97
94.76
108.88
119.80
127.28
131.50
133.01
132.53
130.65
127.63
123.43
117.84
110.79
102.45
93.25
83.71
74.19
64.85
55.58
46.17
36.40
26.17
15.58
4.96
-5.08
-13.82
-20.74
-25.76
-29.48
-32.91
-37.13
-42.77
-49.65
-56.77
-62.70
-66.15
-66.57
-64.50
-61.49
-59.52
-60.20
-63.84
-69.26
-74.19
-76.25
-74.04
-67.55
-57.80
-46.08
-33.75
-22.32
-13.82
-10.43
-13.14
-20.10
-26.00
-23.63
-7.39
23.19
62.20
99.41
124.94
133.78
127.63
113.10
97.63
85.69
77.56
70.86
63.46
55.55
49.70
49.10
55.41
67.55
82.12
95.20
104.17
108.50
109.38
108.52
106.85
104.08
99.17
91.37
81.01
69.65
59.41
52.00
47.83
45.86
44.03
40.16
32.82
21.97
9.06
-3.35
-12.36
-15.82
-13.24
-6.20
2.10
7.97
8.78
4.36
-2.69
-7.67
-5.69
6.14
27.21
53.34
78.13
95.33
100.94
94.30
77.82
55.58
31.85
9.89
-8.41
-22.22
-31.40
-36.13
-36.83
-34.25
-29.52
-24.05
-19.21
-16.00
-14.57
-14.08
-13.02
-10.00
-4.44
2.96
10.45
16.04
18.45
17.67
14.96
12.19
11.10
12.66
16.95
23.33
30.69
37.68
42.77
44.35
40.97
31.86
17.58
0.25
-16.78
-29.96
-36.65
-36.10
-29.66
-20.26
-11.54
-6.97
-9.21
-19.93
-39.73
-67.98
-102.77
-141.04
-179.13
-213.63
-242.28
-264.11
-279.02
-286.81
-286.57
-276.90
-256.86
-227.23
-191.17
-153.65
-119.80
-92.94
-73.53
-59.45
-47.45
-34.92
-20.95
-6.29
7.58
19.46
28.86
35.82
40.44
42.42
41.28
36.74
29.24
20.16
11.47
5.16
2.61
4.15
9.05
15.83
22.76
28.47
32.29
34.35
35.28
35.77
36.16
36.32
35.85
34.47
32.26
29.70
27.25
25.02
22.64
19.39
14.66
8.22
0.25
-8.92
-19.01
-29.81
-40.86
-51.20
-59.39
-63.94
-64.00
-59.85
-52.90
-45.13
-38.21
-32.93
-29.01
-25.45
-21.12
-15.28
-7.72
1.29
11.21
21.41
31.18
39.79
46.46
50.55
51.66
49.85
45.59
39.63
32.80
25.77
18.99
12.69
6.93
1.57
-3.63
-8.98
-14.66
-20.54
-26.11
-30.54
-33.03
-33.24
-31.50
-28.78
-26.24
-24.65
-24.16
-24.22
-24.13
-23.53
-22.74
-22.73
-24.58
-28.83
-35.06
-41.82
-47.15
-49.25
-47.14
-40.95
-31.61
-20.39
-8.39
3.72
15.51
26.42
35.60
41.91
44.46
43.14
38.97
33.86
29.92
28.56
29.90
32.86
35.69
36.88
35.88
33.24
30.36
28.65
28.93
30.94
33.56
35.26
34.76
31.47
25.64
18.17
10.29
3.23
-1.99
-4.61
-4.30
-1.10
4.39
11.17
17.97
23.63
27.48
29.58
30.68
31.86
34.13
37.92
43.00
48.57
53.56
57.11
58.75
58.46
56.54
53.48
49.79
45.95
42.46
39.78
38.24
37.96
38.75
40.14
41.51
42.25
41.97
40.62
38.50
36.09
33.89
32.28
31.30
30.73
30.09
28.77
26.17
21.85
15.59
7.53
-1.76
-11.34
-20.01
-26.60
-30.28
-30.77
-28.37
-23.84
-18.23
-12.59
-7.81
-4.51
-3.04
-3.40
-5.38
-8.56
-12.44
-16.50
-20.34
-23.69
-26.46
-28.74
-30.76
-32.78
-34.98
-37.41
-39.86
-42.02
-43.57
-44.34
-44.40
-43.97
-43.40
-43.02
-43.12
-43.89
-45.36
-47.40
-49.64
-51.63
-52.94
-53.42
-53.29
-53.05
-53.25
-54.15
-55.52
-56.70
-56.83
-55.20
-51.46
-45.61
-37.75
-27.96
-16.33
-3.11
11.08
25.40
39.05
51.62
63.26
74.53
85.89
97.19
107.51
115.44
119.87
120.38
117.28
111.34
103.26
93.38
81.65
67.90
52.20
35.53
19.20
4.42
-8.04
-17.69
-24.29
-27.84
-28.67
-27.69
-25.31
-22.32
-19.80
-18.77
-19.57
-21.68
-24.19
-26.35
-28.15
-28.55
-26.96
-23.47
-18.57
-12.63
-5.68
2.22
10.77
19.03
28.27
39.57
53.14
68.10
83.21
97.83
112.31
128.20
137.60
136.65
125.99
109.41
89.55
66.72
41.05
14.35
-7.61
-24.82
-36.12
-41.58
-42.74
-41.94
-40.82
-39.84
-39.00
-38.16
-37.97
-37.44
-35.97
-33.70
-31.26
-29.18
-27.49
-25.95
-24.30
-22.87
-20.90
-17.97
-14.22
-10.22
-6.48
-3.25
-0.69
1.02
1.42
0.88
-0.09
-0.98
-1.44
-1.28
-0.46
0.76
2.07
3.07
3.87
4.68
5.65
6.74
7.79
8.65
9.17
9.27
8.79
7.52
5.14
1.35
-4.01
-10.78
-18.41
-26.14
-33.21
-39.19
-44.05
-48.12
-51.81
-55.31
-58.44
-60.68
-61.40
-60.16
-56.94
-52.14
-46.41
-40.45
-34.78
-29.68
-25.22
-21.31
-17.77
-14.33
-10.75
-6.90
-2.85
1.03
4.17
5.91
5.85
3.99
0.87
-2.55
-5.23
-6.32
-5.49
-2.99
0.47
4.04
6.92
8.68
9.23
8.73
7.39
5.30
2.42
-1.40
-6.20
-11.80
-17.73
-23.18
-27.16
-28.62
-26.78
-21.50
-13.50
-4.29
4.21
10.34
13.25
13.11
10.86
7.60
4.03
0.32
-3.71
-8.16
-12.69
-16.58
-19.05
-19.68
-18.65
-16.60
-14.33
-12.40
-10.98
-9.86
-8.71
-7.29
-5.58
-3.82
-2.26
-1.05
-0.08
1.00
2.58
4.91
7.90
11.14
14.08
16.33
17.83
18.85
19.83
21.01
22.31
23.31
23.53
22.71
21.01
19.01
17.40
16.76
17.20
18.45
19.90
20.90
20.97
19.92
17.72
14.40
9.91
4.19
-2.76
-10.67
-18.92
-26.71
-33.26
-38.11
-41.22
-42.92
-43.69
-43.88
-43.63
-42.86
-41.41
-39.24
-36.44
-33.21
-29.68
-25.91
-21.85
-17.43
-12.64
-7.61
-2.56
2.20
6.38
9.76
12.24
13.85
14.71
14.95
14.68
13.90
12.55
10.56
7.95
4.93
1.88
-0.69
-2.28
-2.49
-1.06
2.08
6.81
12.80
19.50
26.19
32.14
36.75
39.76
41.25
41.54
41.01
39.85
38.05
35.45
31.94
27.67
23.07
18.75
15.26
12.91
11.69
11.36
11.55
11.97
12.39
12.68
12.76
12.56
12.02
11.16
10.09
8.97
7.96
7.11
6.38
5.62
4.71
3.62
2.43
1.26
0.22
-0.68
-1.54
-2.53
-3.88
-5.82
-8.54
-12.13
-16.44
-21.06
-25.37
-28.68
-30.43
-30.38
-28.68
-25.81
-22.44
-19.21
-16.54
-14.60
-13.30
-12.40
-11.65
-10.89
-10.07
-9.22
-8.37
-7.46
-6.35
-4.85
-2.80
-0.15
3.01
6.55
10.35
14.34
18.41
22.29
25.48
27.27
27.00
24.34
19.59
13.70
7.99
3.63
1.10
-0.08
-1.18
-3.65
-8.37
-15.15
-22.75
-29.42
-33.60
-34.52
-32.32
-27.84
-22.07
-15.78
-9.43
-3.32
2.28
7.02
10.66
13.21
14.86
15.93
16.50
16.33
14.96
12.01
7.52
2.06
-3.46
-8.04
-11.06
-12.39
-12.34
-11.35
-9.82
-7.85
-5.42
-2.50
0.81
4.21
7.44
10.29
12.78
14.98
16.98
18.72
20.07
20.89
21.12
20.87
20.34
19.75
19.19
18.64
18.00
17.20
16.27
15.30
14.40
13.47
12.25
10.31
7.30
3.08
-2.12
-7.84
-13.56
-18.89
-23.73
-28.21
-32.50
-36.75
-40.93
-44.94
-48.58
-51.61
-53.72
-54.57
-53.84
-51.35
-47.18
-41.68
-35.35
-28.78
-22.47
-16.77
-11.86
-7.83
-4.66
-2.28
-0.52
0.88
2.22
3.77
5.74
8.15
10.88
13.72
16.41
18.80
20.80
22.40
23.60
24.38
24.69
24.50
23.85
22.81
21.48
19.91
18.12
16.13
14.03
11.97
10.13
8.56
7.20
5.83
4.25
2.41
0.42
-1.50
-3.14
-4.46
-5.60
-6.78
-8.18
-9.87
-11.80
-13.93
-16.27
-18.88
-21.74
-24.67
-27.21
-28.73
-28.70
-26.84
-23.28
-18.49
-13.13
-7.81
-2.91
1.47
5.40
9.03
12.45
15.59
18.29
20.31
21.52
21.95
21.91
21.86
22.22
23.22
24.72
26.25
27.25
27.32
26.43
24.93
23.31
21.88
20.62
19.16
17.12
14.35
11.17
8.18
5.94
4.68
4.14
3.79
3.08
1.76
-0.05
-2.03
-3.79
-5.06
-5.71
-5.66
-4.94
-3.77
-2.75
-2.82
-5.09
-10.37
-18.74
-29.20
-39.86
-48.46
-53.12
-52.99
-48.53
-41.21
-32.88
-25.07
-18.53
-13.25
-8.80
-4.83
-1.26
1.76
4.11
5.94
7.62
9.49
11.63
13.73
15.35
16.22
16.46
16.53
16.99
18.16
20.00
22.20
24.32
26.03
27.16
27.73
27.85
27.71
27.48
27.28
27.04
26.48
25.20
22.77
18.97
13.83
7.71
1.15
-5.27
-10.99
-15.66
-19.20
-21.75
-23.62
-25.07
-26.09
-26.40
-25.53
-23.10
-19.12
-14.01
-8.52
-3.37
0.90
4.16
6.46
7.94
8.69
8.71
8.07
6.96
5.75
4.79
4.37
4.56
5.22
6.13
7.03
7.80
8.44
9.03
9.66
10.40
11.18
11.81
12.12
11.96
11.33
10.36
9.26
8.19
7.27
6.51
5.88
5.34
4.80
4.16
3.27
1.96
0.16
-2.07
-4.59
-7.16
-9.59
-11.82
-13.94
-16.13
-18.59
-21.39
-24.40
-27.34
-29.77
-31.29
-31.63
-30.73
-28.79
-26.12
-23.05
-19.83
-16.53
-13.13
-9.64
-6.11
-2.72
0.36
2.99
5.24
7.36
9.69
12.55
15.96
19.70
23.31
26.30
28.35
29.42
29.76
29.71
29.59
29.51
29.41
29.13
28.57
27.76
26.86
26.00
25.26
24.61
23.90
22.98
21.74
20.16
18.31
16.32
14.29
12.33
10.51
8.93
7.65
6.65
5.81
4.95
3.94
2.79
1.65
0.76
0.32
0.38
0.83
1.48
2.11
2.60
2.88
2.89
2.59
1.91
0.79
-0.83
-2.93
-5.47
-8.32
-11.27
-14.06
-16.46
-18.43
-20.14
-21.97
-24.27
-27.24
-30.76
-34.41
-37.68
-40.10
-41.38
-41.48
-40.49
-38.59
-35.95
-32.74
-29.14
-25.37
-21.66
-18.20
-15.06
-12.22
-9.60
-7.10
-4.69
-2.39
-0.28
1.63
3.45
5.38
7.63
10.27
13.15
15.90
18.09
19.46
20.04
20.19
20.37
20.87
21.68
22.50
22.92
22.71
21.92
20.81
19.75
18.96
18.46
18.09
17.65
17.00
16.10
14.99
13.75
12.44
11.10
9.73
8.25
6.57
4.68
2.68
0.81
-0.67
-1.61
-2.09
-2.42
-2.99
-4.10
-5.79
-7.90
-10.16
-12.38
-14.53
-16.65
-18.79
-20.87
-22.70
-24.11
-25.09
-25.82
-26.66
-27.90
-29.63
-31.63
-33.50
-34.76
-35.11
-34.46
-32.88
-30.50
-27.40
-23.64
-19.28
-14.55
-9.83
-5.59
-2.21
0.18
1.69
2.66
3.48
4.50
5.89
7.69
9.75
11.84
13.67
15.00
15.68
15.73
15.37
14.91
14.69
14.84
15.30
15.76
15.90
15.47
14.49
13.17
11.79
10.58
9.56
8.66
7.72
6.67
5.51
4.29
3.03
1.75
0.41
-1.00
-2.44
-3.83
-5.08
-6.17
-7.16
-8.22
-9.55
-11.27
-13.35
-15.55
-17.47
-18.68
-18.92
-18.11
-16.41
-14.06
-11.37
-8.59
-5.93
-3.56
-1.63
-0.17
0.90
1.76
2.62
3.63
4.79
5.95
6.95
7.66
8.12
8.46
8.89
9.58
10.58
11.86
13.25
14.59
15.70
16.44
16.71
16.37
15.30
13.40
10.71
7.41
3.87
0.54
-2.29
-4.53
-6.40
-8.27
-10.46
-13.07
-15.87
-18.46
-20.41
-21.53
-21.88
-21.84
-21.80
-22.10
-22.81
-23.84
-24.97
-26.02
-26.88
-27.45
-27.58
-26.97
-25.30
-22.38
-18.26
-13.30
-8.07
-3.11
1.25
4.94
8.09
10.88
13.45
15.85
18.06
20.10
22.07
24.13
26.38
28.78
31.07
32.80
33.45
32.59
30.13
26.34
21.72
16.82
11.99
7.23
2.24
-3.33
-9.68
-16.64
-23.68
-30.13
-35.36
-39.01
-41.00
-41.45
-40.55
-38.52
-35.66
-32.34
-29.15
-26.70
-25.50
-25.69
-26.97
-28.64
-30.00
-30.57
-30.37
-29.79
-29.31
-29.17
-29.18
-28.75
-27.27
-24.37
-20.12
-14.92
-9.29
-3.57
2.15
7.93
13.82
19.69
25.21
30.00
33.79
36.53
38.44
39.82
40.96
42.03
42.99
43.77
44.29
44.58
44.71
44.81
44.91
44.95
44.81
44.35
43.43
42.01
40.11
37.88
35.53
33.31
31.39
29.83
28.52
27.29
25.98
24.56
23.13
21.83
20.76
19.91
19.17
18.49
17.82
17.24
16.79
16.50
16.28
16.00
15.52
14.74
13.64
12.22
10.55
8.75
7.02
5.56
4.52
3.91
3.55
3.14
2.36
1.01
-0.95
-3.42
-6.34
-9.69
-13.51
-17.78
-22.34
-26.85
-30.89
-34.21
-36.76
-38.73
-40.43
-42.14
-44.02
-46.08
-48.22
-50.27
-51.99
-53.07
-53.19
-52.16
-49.94
-46.75
-42.95
-38.97
-35.11
-31.56
-28.34
-25.39
-22.65
-20.05
-17.57
-15.19
-12.87
-10.59
-8.29
-5.97
-3.68
-1.61
0.01
0.98
1.22
0.93
0.48
0.32
0.70
1.58
2.53
3.02
2.67
1.47
-0.14
-1.43
-1.68
-0.45
2.23
5.96
10.09
14.02
17.31
19.75
21.26
21.95
22.16
22.50
23.82
26.98
32.52
40.44
50.27
61.41
73.55
86.87
101.71
118.20
135.55
151.96
164.81
171.51
170.35
161.19
145.61
126.36
106.56
88.71
74.04
62.35
52.37
42.41
31.14
17.97
3.18
-12.37
-27.68
-41.91
-54.60
-65.55
-74.79
-82.49
-88.85
-94.13
-98.56
-102.30
-105.29
-107.16
-107.27
-105.03
-100.14
-92.86
-83.98
-74.54
-65.51
-57.44
-50.44
-44.34
-38.97
-34.30
-30.39
-27.23
-24.63
-22.19
-19.49
-16.27
-12.55
-8.68
-5.11
-2.30
-0.52
0.21
0.16
-0.18
-0.23
0.52
2.30
5.01
8.26
11.53
14.37
16.51
17.88
18.56
18.68
18.42
18.02
17.69
17.67
18.13
19.11
20.45
21.76
22.68
23.10
23.39
24.23
26.41
30.46
36.34
43.33
50.25
55.90
59.37
60.19
58.19
53.52
46.48
37.49
26.89
14.66
0.72
-14.80
-31.27
-47.50
-61.99
-73.45
-81.26
-85.67
-87.96
-89.21
-89.72
-89.17
-87.26
-84.30
-81.08
-78.51
-77.10
-77.73
-80.23
-83.55
-86.47
-88.44
-89.72
-90.78
-91.82
-92.57
-94.05
-96.31
-98.35
-98.75
-96.72
-92.37
-86.26
-79.15
-71.93
-67.83
-68.76
-74.36
-82.24
-89.21
-92.28
-89.02
-77.99
-47.71
2.97
64.47
122.16
165.85
192.59
203.82
202.48
191.88
176.66
156.98
134.00
110.58
90.12
74.92
65.55
61.32
60.92
63.74
66.87
68.33
67.56
65.16
61.92
58.38
54.91
51.79
49.11
45.57
40.66
35.08
30.42
28.18
29.19
33.36
39.76
46.89
52.37
54.56
52.99
48.35
41.98
35.42
29.89
26.03
23.76
22.08
19.91
16.41
11.22
4.44
-3.50
-11.95
-20.16
-27.42
-33.17
-37.00
-38.84
-38.99
-38.08
-36.78
-35.63
-34.88
-34.51
-34.36
-34.31
-34.25
-34.06
-33.50
-32.21
-29.96
-26.92
-23.72
-21.33
-20.59
-21.68
-23.94
-26.05
-26.67
-25.05
-21.51
-17.28
-14.01
-13.02
-14.88
-19.20
-24.91
-30.69
-35.32
-37.97
-38.26
-36.29
-32.52
-27.62
-22.30
-17.11
-12.33
-8.03
-4.24
-1.11
1.02
1.79
1.04
-1.07
-4.02
-7.17
-9.99
-12.27
-14.06
-15.63
-17.19
-18.79
-20.17
-20.91
-20.57
-18.98
-16.30
-12.95
-9.43
-6.08
-3.05
-0.45
1.52
2.53
2.24
0.62
-1.82
-4.20
-5.65
-5.71
-4.51
-2.63
-0.78
0.54
1.07
0.78
-0.43
-2.76
-6.32
-10.93
-16.05
-20.92
-24.81
-27.38
-28.59
-28.76
-28.40
-27.92
-27.56
-27.27
-26.87
-26.07
-24.63
-22.22
-18.80
-14.83
-11.08
-8.24
-6.60
-6.08
-6.17
-6.42
-5.96
-4.26
-1.41
2.03
5.40
8.28
10.26
11.42
11.94
13.09
16.05
21.19
28.08
35.95
44.21
52.20
59.89
67.19
75.14
84.49
95.03
105.86
116.05
125.39
133.82
142.16
142.48
129.56
104.14
72.63
42.09
16.32
-0.82
-11.77
-18.30
-21.84
-22.61
-21.05
-19.95
-21.70
-27.72
-37.82
-50.96
-64.97
-77.99
-87.89
-93.41
-94.53
-92.07
-87.23
-81.00
-74.41
-67.83
-61.54
-55.18
-48.52
-41.89
-36.05
-31.83
-29.50
-28.55
-27.14
-22.91
-13.42
2.52
24.03
48.21
70.97
88.54
98.55
100.85
97.00
89.43
80.25
70.64
60.80
50.54
39.79
28.95
18.83
10.31
3.93
-0.23
-2.50
-3.42
-3.51
-3.09
-2.33
-1.35
-0.40
-0.00
-0.83
-3.43
-7.89
-13.67
-19.72
-24.88
-28.38
-30.13
-30.78
-31.36
-32.80
-35.56
-39.38
-43.51
-46.94
-48.83
-48.73
-46.65
-43.01
-38.40
-33.40
-28.44
-23.67
-19.10
-14.66
-10.36
-6.35
-2.80
0.15
2.43
4.10
5.25
5.96
6.34
6.58
6.97
7.79
9.17
10.91
12.52
13.32
12.71
10.35
6.28
0.89
-5.13
-10.96
-15.73
-18.78
-19.81
-19.04
-17.06
-14.61
-12.23
-10.04
-7.84
-5.36
-2.50
0.51
3.25
5.28
6.37
6.57
6.12
5.22
3.97
2.34
0.20
-2.51
-5.77
-9.41
-13.18
-16.74
-19.76
-21.89
-22.87
-22.54
-20.89
-18.02
-14.13
-9.47
-4.30
1.11
6.55
11.78
16.58
20.80
24.39
27.36
29.81
31.83
33.44
34.64
35.46
35.98
36.35
36.78
37.35
38.07
38.81
39.43
39.81
39.90
39.66
39.04
37.93
36.25
33.98
31.19
28.00
24.59
21.08
17.64
14.38
11.38
8.58
5.65
2.15
-2.27
-7.67
-13.63
-19.41
-24.24
-27.76
-30.25
-32.61
-36.13
-42.01
-50.87
-62.13
-73.74
-82.33
-83.99
-75.52
-55.71
-26.07
9.22
44.44
73.84
93.29
101.32
99.37
91.25
81.81
75.55
75.31
81.71
93.44
108.15
123.61
138.47
152.09
164.08
173.53
179.00
179.01
172.85
161.10
145.45
128.08
110.74
94.25
78.57
63.32
48.27
33.58
19.74
7.24
-3.72
-13.30
-21.93
-30.09
-38.17
-46.27
-54.20
-61.48
-67.50
-71.80
-74.21
-75.03
-74.85
-74.40
-74.16
-74.30
-74.66
-74.98
-75.15
-75.25
-75.48
-76.00
-76.75
-77.42
-77.59
-76.89
-75.16
-72.50
-69.17
-65.48
-61.70
-57.98
-54.38
-50.86
-47.35
-43.79
-40.20
-36.63
-33.25
-30.25
-27.81
-26.04
-24.90
-24.18
-23.59
-22.93
-22.20
-21.63
-21.68
-22.72
-24.92
-28.19
-32.28
-36.93
-41.94
-47.14
-52.25
-56.85
-60.48
-62.90
-64.22
-64.85
-65.16
-65.19
-64.52
-62.50
-58.74
-53.35
-47.10
-40.95
-35.64
-31.28
-27.43
-23.40
-18.75
-13.50
-8.07
-3.04
1.30
4.98
8.33
11.71
15.22
18.68
21.68
23.84
25.05
25.54
25.77
26.21
27.06
28.21
29.21
29.57
28.96
27.37
25.12
22.64
20.29
18.18
16.19
14.09
11.66
8.87
5.83
2.67
-0.53
-3.86
-7.42
-11.26
-15.17
-18.70
-21.27
-22.31
-21.50
-18.81
-14.49
-8.94
-2.58
4.23
11.20
18.06
24.56
30.47
35.66
40.14
44.04
47.56
50.82
53.86
56.51
58.56
59.78
60.09
59.56
58.42
56.97
55.46
54.05
52.76
51.47
49.99
48.08
45.57
42.39
38.65
34.56
30.33
26.10
21.88
17.61
13.26
8.92
4.76
0.95
-2.50
-5.81
-9.29
-13.21
-17.63
-22.34
-26.93
-30.94
-34.00
-35.89
-36.56
-36.06
-34.50
-32.10
-29.14
-25.89
-22.63
-19.48
-16.46
-13.55
-10.82
-8.42
-6.58
-5.50
-5.20
-5.45
-5.88
-6.07
-5.71
-4.71
-3.22
-1.53
0.03
1.27
2.17
2.91
3.70
4.70
5.86
6.93
7.59
7.61
7.01
6.05
5.10
4.46
4.16
4.05
3.84
3.31
2.37
1.10
-0.34
-1.83
-3.32
-4.87
-6.61
-8.65
-11.08
-13.90
-17.06
-20.47
-23.96
-27.33
-30.25
-32.32
-33.14
-32.36
-29.89
-25.91
-20.89
-15.43
-10.14
-5.40
-1.35
2.13
5.24
8.19
11.02
13.64
15.94
17.84
19.41
20.79
22.12
23.43
24.62
25.48
25.91
25.93
25.69
25.41
25.22
25.11
24.94
24.52
23.71
22.44
20.76
18.78
16.65
14.56
12.69
11.12
9.84
8.71
7.50
5.97
3.96
1.45
-1.40
-4.36
-7.19
-9.78
-12.19
-14.65
-17.44
-20.74
-24.55
-28.64
-32.57
-35.78
-37.72
-37.94
-36.23
-32.68
-27.77
-22.16
-16.62
-11.69
-7.54
-4.01
-0.75
2.44
5.55
8.37
10.69
12.50
13.98
15.44
17.10
18.97
20.85
22.51
23.78
24.64
25.16
25.44
25.55
25.55
25.49
25.42
25.38
25.34
25.20
24.86
24.25
23.39
22.41
21.46
20.67
20.13
19.82
19.70
19.73
19.81
19.90
19.94
19.89
19.74
19.48
19.13
18.74
18.33
17.88
17.24
16.25
14.72
12.63
10.08
7.30
4.53
1.88
-0.67
-3.26
-5.95
-8.65
-11.04
-12.76
-13.51
-13.24
-12.20
-10.83
-9.55
-8.67
-8.25
-8.20
-8.38
-8.71
-9.22
-10.00
-11.13
-12.59
-14.25
-15.87
-17.23
-18.17
-18.66
-18.80
-18.76
-18.71
-18.76
-19.01
-19.58
-20.65
-22.46
-25.18
-28.84
-33.19
-37.78
-42.00
-45.37
-47.70
-49.19
-50.48
-52.40
-55.73
-60.83
-67.41
-74.53
-80.83
-84.98
-86.09
-83.94
-78.96
-71.98
-63.93
-55.60
-47.54
-40.07
-33.39
-27.59
-22.71
-18.73
-15.65
-13.58
-12.72
-13.25
-15.12
-17.85
-20.53
-22.05
-21.49
-18.45
-13.22
-6.63
0.28
6.65
12.13
16.79
20.96
24.90
28.62
31.87
34.33
35.88
36.70
37.26
38.07
39.45
41.40
43.61
45.64
47.15
48.06
48.53
48.82
49.11
49.41
49.54
49.23
48.29
46.75
44.81
42.78
40.94
39.42
38.15
36.89
35.37
33.34
30.74
27.69
24.41
21.17
18.08
15.07
11.92
8.36
4.17
-0.68
-6.09
-11.85
-17.69
-23.26
-28.12
-31.76
-33.73
-33.77
-32.02
-28.89
-24.99
-20.83
-16.71
-12.72
-8.84
-5.13
-1.72
1.16
3.35
4.86
5.89
6.75
7.77
9.13
10.81
12.68
14.48
16.02
17.21
18.06
18.61
18.86
18.75
18.20
17.19
15.86
14.43
13.13
12.02
11.02
9.90
8.44
6.59
4.46
2.26
0.18
-1.74
-3.57
-5.47
-7.54
-9.82
-12.29
-14.95
-17.85
-21.07
-24.60
-28.18
-31.29
-33.26
-33.44
-31.49
-27.55
-22.12
-15.95
-9.71
-3.84
1.51
6.38
10.85
14.92
18.48
21.44
23.80
25.66
27.26
28.89
30.79
33.08
35.77
38.68
41.49
43.87
45.61
46.69
47.29
47.65
47.88
47.86
47.39
46.32
44.71
42.87
41.12
39.59
38.16
36.47
34.13
30.99
27.15
22.89
18.53
14.25
10.09
5.95
1.69
-2.86
-7.82
-13.25
-19.01
-24.80
-30.13
-34.44
-37.31
-38.58
-38.42
-37.30
-35.79
-34.31
-33.02
-31.81
-30.46
-28.79
-26.89
-25.05
-23.66
-22.97
-22.99
-23.46
-24.03
-24.43
-24.60
-24.65
-24.83
-25.29
-26.01
-26.81
-27.44
-27.77
-27.89
-28.13
-28.84
-30.20
-31.98
-33.63
-34.47
-34.03
-32.25
-29.53
-26.54
-23.91
-22.00
-20.84
-20.18
-19.71
-19.16
-18.40
-17.49
-16.62
-16.09
-16.18
-17.08
-18.81
-21.14
-23.72
-26.07
-27.71
-28.20
-27.26
-24.78
-20.92
-16.04
-10.65
-5.22
-0.06
4.75
9.26
13.55
17.56
21.11
24.03
26.24
27.87
29.16
30.37
31.59
32.77
33.75
34.42
34.81
35.02
35.20
35.44
35.65
35.70
35.42
34.72
33.59
32.10
30.37
28.54
26.71
24.94
23.23
21.56
19.84
18.02
16.06
13.99
11.80
9.48
6.97
4.25
1.33
-1.68
-4.62
-7.42
-10.05
-12.63
-15.32
-18.32
-21.77
-25.71
-29.99
-34.22
-37.84
-40.21
-40.75
-39.26
-35.87
-31.10
-25.63
-20.08
-14.82
-10.00
-5.61
-1.57
2.15
5.55
8.58
11.21
13.48
15.49
17.36
19.24
21.14
22.99
24.64
25.94
26.89
27.61
28.30
29.10
30.02
30.87
31.45
31.58
31.23
30.51
29.61
28.73
28.01
27.54
27.32
27.28
27.33
27.31
27.10
26.67
26.07
25.53
25.28
25.52
26.25
27.21
28.01
28.27
27.92
27.22
26.70
26.83
27.71
28.86
29.41
28.43
25.36
20.24
13.71
6.66
-0.11
-6.17
-11.50
-16.36
-21.10
-25.94
-30.98
-36.12
-41.21
-46.07
-50.55
-54.57
-58.08
-61.11
-63.77
-66.26
-68.80
-71.65
-74.90
-78.47
-81.99
-84.87
-86.42
-86.04
-83.45
-78.72
-72.27
-64.70
-56.58
-48.34
-40.18
-32.18
-24.36
-16.79
-9.62
-3.01
2.90
8.06
12.52
16.38
19.76
22.76
25.42
27.74
29.70
31.26
32.36
33.02
33.30
33.30
33.10
32.77
32.33
31.80
31.22
30.61
30.02
29.43
28.81
28.10
27.26
26.27
25.13
23.84
22.40
20.76
18.91
16.82
14.55
12.20
9.90
7.76
5.84
4.10
2.41
0.61
-1.43
-3.75
-6.29
-8.89
-11.36
-13.46
-14.97
-15.63
-15.24
-13.67
-10.99
-7.49
-3.65
0.01
3.02
5.16
6.39
6.88
6.92
6.80
6.77
6.87
7.03
7.10
6.94
6.57
6.13
5.90
6.06
6.62
7.35
7.91
7.99
7.50
6.58
5.49
4.46
3.60
2.88
2.19
1.46
0.71
0.02
-0.56
-1.15
-1.96
-3.21
-5.00
-7.20
-9.47
-11.50
-13.09
-14.35
-15.58
-17.17
-19.37
-22.23
-25.51
-28.78
-31.44
-32.92
-32.82
-31.05
-27.87
-23.79
-19.36
-15.00
-10.85
-6.95
-3.27
0.09
2.93
5.07
6.48
7.32
7.87
8.43
9.14
10.01
10.95
11.85
12.65
13.28
13.71
13.89
13.85
13.61
13.23
12.77
12.21
11.49
10.53
9.34
8.02
6.75
5.72
4.92
4.18
3.17
1.60
-0.58
-3.16
-5.72
-7.83
-9.29
-10.20
-10.95
-12.03
-13.89
-16.70
-20.37
-24.55
-28.81
-32.64
-35.58
-37.16
-37.01
-34.95
-31.07
-25.83
-19.97
-14.29
-9.40
-5.50
-2.39
0.33
3.00
5.71
8.29
10.46
12.09
13.27
14.25
15.27
16.42
17.57
18.52
19.14
19.43
19.59
19.78
20.04
20.29
20.31
19.95
19.18
18.14
17.10
16.25
15.68
15.27
14.79
14.00
12.75
11.07
9.13
7.24
5.63
4.36
3.32
2.20
0.70
-1.32
-3.82
-6.52
-9.09
-11.26
-12.98
-14.42
-15.94
-17.94
-20.73
-24.37
-28.64
-33.02
-36.88
-39.60
-40.68
-39.90
-37.33
-33.27
-28.22
-22.74
-17.37
-12.47
-8.15
-4.29
-0.64
3.00
6.63
10.05
12.97
15.20
16.76
17.86
18.80
19.82
21.03
22.36
23.66
24.82
25.74
26.44
26.94
27.23
27.27
27.01
26.43
25.64
24.82
24.14
23.65
23.22
22.59
21.56
20.08
18.34
16.62
15.18
14.07
13.22
12.50
11.83
11.17
10.51
9.73
8.72
7.36
5.67
3.76
1.84
0.03
-1.59
-3.07
-4.46
-5.82
-7.16
-8.56
-10.12
-11.94
-14.07
-16.44
-18.84
-21.02
-22.77
-24.08
-25.09
-26.15
-27.69
-30.06
-33.38
-37.41
-41.54
-44.95
-46.81
-46.56
-44.08
-39.78
-34.35
-28.57
-23.00
-17.92
-13.26
-8.88
-4.69
-0.70
2.94
6.08
8.69
10.87
12.75
14.45
15.99
17.32
18.41
19.23
19.84
20.28
20.56
20.61
20.36
19.80
18.97
18.01
17.07
16.26
15.57
14.95
14.31
13.56
12.60
11.40
9.93
8.22
6.34
4.37
2.39
0.45
-1.44
-3.31
-5.25
-7.33
-9.68
-12.34
-15.28
-18.28
-20.98
-22.89
-23.61
-22.91
-20.88
-17.83
-14.22
-10.44
-6.72
-3.14
0.27
3.41
6.12
8.18
9.51
10.23
10.63
11.04
11.73
12.81
14.21
15.81
17.47
19.04
20.39
21.40
21.92
21.91
21.41
20.58
19.60
18.60
17.59
16.51
15.26
13.83
12.29
10.77
9.36
8.10
6.91
5.64
4.14
2.34
0.25
-2.04
-4.43
-6.77
-8.93
-10.86
-12.59
-14.25
-16.09
-18.36
-21.23
-24.78
-28.89
-33.33
-37.70
-41.47
-44.05
-44.87
-43.61
-40.28
-35.38
-29.69
-24.06
-19.03
-14.68
-10.70
-6.69
-2.40
2.01
6.12
9.44
11.79
13.34
14.57
15.92
17.58
19.39
21.03
22.21
22.92
23.39
23.91
24.63
25.45
26.03
26.02
25.18
23.57
21.47
19.32
17.50
16.21
15.38
14.72
13.85
12.47
10.46
7.96
5.22
2.53
0.06
-2.18
-4.32
-6.51
-8.87
-11.49
-14.38
-17.53
-20.89
-24.36
-27.77
-30.88
-33.39
-34.94
-35.21
-33.99
-31.28
-27.37
-22.77
-18.04
-13.56
-9.48
-5.65
-1.89
1.91
5.64
9.03
11.83
13.99
15.71
17.30
19.05
20.99
22.92
24.57
25.70
26.30
26.52
26.62
26.73
26.87
26.87
26.57
25.90
24.94
23.88
22.89
21.99
21.07
19.95
18.58
17.03
15.52
14.24
13.27
12.50
11.73
10.77
9.51
8.01
6.41
4.92
3.71
2.81
2.10
1.33
0.23
-1.42
-3.63
-6.23
-8.93
-11.52
-13.93
-16.21
-18.53
-21.01
-23.73
-26.74
-30.17
-34.15
-38.66
-43.44
-47.84
-51.03
-52.22
-51.01
-47.53
-42.37
-36.35
-30.23
-24.47
-19.20
-14.28
-9.46
-4.58
0.39
5.28
9.86
13.94
17.41
20.27
22.59
24.48
26.02
27.33
28.52
29.78
31.18
32.64
33.99
34.93
35.28
35.07
34.51
33.93
33.51
33.34
33.27
33.10
32.64
31.79
30.52
28.89
27.03
25.11
23.26
21.53
19.80
17.80
15.24
11.96
7.99
3.54
-1.11
-5.74
-10.28
-14.86
-19.69
-25.00
-30.93
-37.40
-44.06
-50.33
-55.40
-58.47
-58.99
-56.85
-52.49
-46.75
-40.58
-34.73
-29.56
-25.06
-21.02
-17.19
-13.51
-10.06
-7.04
-4.60
-2.75
-1.37
-0.23
0.87
2.01
3.11
3.99
4.46
4.41
3.90
3.13
2.36
1.74
1.24
0.74
0.07
-0.78
-1.69
-2.39
-2.64
-2.35
-1.65
-0.87
-0.37
-0.39
-1.00
-2.01
-3.21
-4.38
-5.50
-6.65
-8.01
-9.75
-11.95
-14.64
-17.77
-21.17
-24.55
-27.39
-29.07
-29.04
-27.04
-23.22
-18.17
-12.64
-7.27
-2.32
2.27
6.82
11.51
16.29
20.83
24.66
27.45
29.19
30.16
30.87
31.79
33.25
35.24
37.51
39.66
41.27
42.12
42.25
41.85
41.23
40.66
40.21
39.81
39.30
38.50
37.34
35.77
33.73
31.16
27.96
24.17
19.98
15.76
11.87
8.55
5.74
3.11
0.15
-3.63
-8.57
-14.82
-22.24
-30.49
-38.88
-46.49
-52.27
-55.29
-55.11
-51.96
-46.70
-40.55
-34.62
-29.55
-25.39
-21.71
-18.03
-14.09
-9.98
-6.11
-2.93
-0.69
0.71
1.63
2.54
3.77
5.38
7.18
8.82
10.03
10.71
11.01
11.15
11.32
11.54
11.69
11.57
11.04
10.12
8.95
7.74
6.63
5.64
4.65
3.41
1.72
-0.47
-2.98
-5.48
-7.66
-9.39
-10.78
-12.17
-13.96
-16.44
-19.66
-23.48
-27.58
-31.53
-34.79
-36.74
-36.83
-34.75
-30.61
-24.99
-18.84
-13.13
-8.50
-5.05
-2.38
0.18
3.18
6.76
10.63
14.21
16.97
18.72
19.72
20.53
21.66
23.37
25.48
27.55
29.18
30.17
30.68
30.98
31.24
31.38
31.07
29.96
27.89
24.96
21.54
18.05
14.78
11.85
9.21
6.75
4.40
2.11
-0.12
-2.28
-4.35
-6.28
-8.01
-9.55
-11.03
-12.70
-14.89
-17.84
-21.59
-25.94
-30.49
-34.69
-37.96
-39.77
-39.73
-37.71
-33.91
-28.89
-23.36
-17.99
-13.16
-8.90
-5.01
-1.30
2.22
5.33
7.71
9.19
9.86
10.08
10.27
10.74
11.56
12.60
13.62
14.41
14.84
14.85
14.42
13.55
12.21
10.43
8.29
5.97
3.68
1.59
-0.20
-1.70
-3.02
-4.29
-5.60
-6.98
-8.34
-9.54
-10.44
-11.04
-11.48
-12.02
-13.01
-14.74
-17.33
-20.69
-24.44
-28.04
-30.83
-32.30
-32.11
-30.28
-27.08
-22.97
-18.45
-13.91
-9.62
-5.69
-2.08
1.27
4.44
7.46
10.28
12.75
14.72
16.11
17.01
17.68
18.43
19.51
20.94
22.50
23.81
24.48
24.29
23.24
21.60
19.76
18.09
16.82
15.97
15.36
14.80
14.14
13.36
12.56
11.82
11.11
10.32
9.30
7.94
6.21
4.10
1.60
-1.29
-4.51
-7.75
-10.57
-12.34
-12.54
-10.96
-7.80
-3.64
0.79
4.84
8.17
10.70
12.58
13.97
14.99
15.70
16.16
16.52
17.01
17.83
19.02
20.37
21.52
22.09
21.95
21.19
20.13
19.06
18.04
16.94
15.50
13.52
10.94
7.95
4.80
1.78
-0.92
-3.23
-5.24
-7.09
-8.95
-10.99
-13.26
-15.71
-18.16
-20.37
-22.17
-23.56
-24.69
-25.93
-27.68
-30.30
-33.91
-38.29
-42.83
-46.71
-49.07
-49.30
-47.20
-43.03
-37.39
-30.98
-24.45
-18.23
-12.53
-7.37
-2.69
1.52
5.23
8.39
10.97
13.02
14.66
16.10
17.51
18.99
20.49
21.89
23.02
23.78
24.16
24.22
24.10
23.87
23.50
22.82
21.69
20.03
17.91
15.58
13.32
11.28
9.42
7.50
5.24
2.46
-0.88
-4.66
-8.66
-12.70
-16.62
-20.30
-23.72
-26.96
-30.29
-34.06
-38.58
-43.89
-49.67
-55.16
-59.47
-61.83
-61.85
-59.61
-55.58
-50.35
-44.50
-38.49
-32.63
-27.08
-21.93
-17.17
-12.71
-8.48
-4.46
-0.65
2.96
6.43
9.94
13.63
17.58
21.68
25.68
29.27
32.28
34.73
36.75
38.54
40.16
41.56
42.65
43.38
43.81
44.03
44.11
44.01
43.59
42.66
41.13
39.04
36.54
33.88
31.30
28.94
26.86
24.98
23.17
21.23
18.95
16.11
12.60
8.46
3.90
-0.76
-5.17
-9.13
-12.70
-16.11
-19.72
-23.83
-28.53
-33.65
-38.75
-43.16
-46.20
-47.28
-46.14
-42.87
-37.98
-32.17
-26.14
-20.38
-15.07
-10.12
-5.38
-0.73
3.77
8.00
11.79
15.01
17.65
19.74
21.37
22.64
23.69
24.61
25.46
26.26
26.95
27.46
27.70
27.59
27.06
26.03
24.52
22.63
20.62
18.81
17.43
16.52
15.82
14.96
13.58
11.62
9.34
7.20
5.56
4.49
3.71
2.76
1.29
-0.81
-3.34
-5.98
-8.45
-10.72
-12.91
-15.29
-18.07
-21.37
-25.15
-29.27
-33.44
-37.24
-40.08
-41.32
-40.46
-37.34
-32.26
-25.94
-19.22
-12.83
-7.12
-2.13
2.31
6.35
9.99
13.10
15.51
17.15
18.09
18.55
18.74
18.84
18.92
18.96
18.88
18.60
18.07
17.32
16.40
15.41
14.37
13.31
12.20
11.03
9.82
8.57
7.20
5.61
3.70
1.47
-0.92
-3.26
-5.41
-7.39
-9.38
-11.65
-14.35
-17.50
-20.95
-24.53
-28.05
-31.29
-33.97
-35.69
-35.99
-34.58
-31.45
-26.94
-21.60
-16.01
-10.55
-5.43
-0.74
3.39
6.75
9.15
10.56
11.17
11.41
11.76
12.54
13.82
15.39
16.93
18.17
19.02
19.50
19.69
19.65
19.30
18.56
17.33
15.64
13.61
11.41
9.19
7.04
4.98
2.98
1.01
-0.97
-3.01
-5.18
-7.56
-10.25
-13.31
-16.78
-20.63
-24.75
-28.97
-33.07
-36.75
-39.64
-41.30
-41.28
-39.29
-35.30
-29.66
-23.10
-16.44
-10.36
-5.19
-0.89
2.83
6.24
9.47
12.47
15.15
17.44
19.40
21.15
22.79
24.32
25.65
26.65
27.22
27.38
27.22
26.84
26.35
25.78
25.09
24.15
22.86
21.18
19.24
17.25
15.46
13.96
12.71
11.45
9.86
7.73
5.03
1.91
-1.34
-4.45
-7.31
-9.99
-12.75
-15.88
-19.63
-24.06
-29.01
-34.15
-39.01
-43.05
-45.74
-46.65
-45.53
-42.39
-37.56
-31.60
-25.14
-18.71
-12.59
-6.86
-1.49
3.50
8.03
11.98
15.31
18.12
20.61
22.94
25.22
27.43
29.50
31.38
33.04
34.44
35.57
36.41
36.93
37.11
36.93
36.33
35.31
33.96
32.47
31.08
29.95
29.10
28.33
27.40
26.17
24.66
23.06
21.59
20.39
19.39
18.41
17.25
15.82
14.15
12.40
10.71
9.18
7.76
6.34
4.80
3.09
1.21
-0.76
-2.73
-4.65
-6.54
-8.40
-10.25
-12.07
-13.87
-15.68
-17.58
-19.65
-21.92
-24.36
-26.89
-29.42
-31.89
-34.32
-36.85
-39.66
-42.94
-46.79
-51.08
-55.40
-59.10
-61.44
-61.82
-59.97
-55.98
-50.32
-43.62
-36.55
-29.64
-23.19
-17.30
-11.90
-6.85
-2.02
2.64
7.08
11.17
14.80
17.97
20.73
23.21
25.48
27.53
29.31
30.75
31.87
32.77
33.53
34.20
34.77
35.10
35.07
34.62
33.83
32.81
31.72
30.62
29.52
28.34
27.02
25.56
24.02
22.52
21.17
20.01
19.00
18.05
17.00
15.79
14.38
12.85
11.29
9.79
8.40
7.05
5.66
4.10
2.26
0.15
-2.18
-4.53
-6.70
-8.51
-9.94
-11.10
-12.23
-13.60
-15.32
-17.35
-19.50
-21.59
-23.57
-25.64
-28.08
-31.22
-35.14
-39.68
-44.32
-48.40
-51.24
-52.34
-51.49
-48.75
-44.48
-39.14
-33.23
-27.18
-21.35
-15.99
-11.19
-6.97
-3.25
0.10
3.14
5.88
8.25
10.22
11.82
13.21
14.60
16.12
17.77
19.42
20.87
21.93
22.53
22.65
22.32
21.57
20.41
18.92
17.20
15.41
13.78
12.44
11.45
10.68
9.91
8.86
7.35
5.39
3.11
0.78
-1.46
-3.59
-5.77
-8.25
-11.24
-14.76
-18.66
-22.67
-26.48
-29.80
-32.38
-33.95
-34.19
-32.86
-29.87
-25.45
-20.12
-14.52
-9.26
-4.66
-0.78
2.52
5.37
7.80
9.75
11.16
12.08
12.68
13.22
13.90
14.84
16.04
17.41
18.79
19.96
20.70
20.80
20.24
19.14
17.70
16.12
14.42
12.51
10.28
7.70
4.95
2.31
0.01
-1.89
-3.54
-5.24
-7.29
-9.85
-12.88
-16.22
-19.69
-23.18
-26.67
-30.13
-33.40
-36.17
-37.96
-38.27
-36.81
-33.55
-28.82
-23.15
-17.17
-11.40
-6.20
-1.67
2.17
5.44
8.16
10.36
12.06
13.35
14.46
15.61
17.00
18.59
20.20
21.54
22.46
22.93
23.08
23.09
23.02
22.80
22.30
21.41
20.11
18.46
16.59
14.60
12.55
10.47
8.32
6.01
3.43
0.53
-2.65
-5.93
-9.08
-11.88
-14.30
-16.54
-18.94
-21.90
-25.68
-30.35
-35.68
-41.25
-46.41
-50.45
-52.72
-52.77
-50.47
-46.09
-40.20
-33.50
-26.63
-19.98
-13.67
-7.70
-2.03
3.26
8.04
12.13
15.52
18.33
20.79
23.10
25.33
27.40
29.17
30.56
31.59
32.41
33.17
33.93
34.65
35.19
35.40
35.16
34.50
33.46
32.19
30.76
29.24
27.63
25.85
23.86
21.61
19.14
16.55
13.95
11.42
8.98
6.60
4.21
1.77
-0.70
-3.19
-5.61
-7.96
-10.31
-12.80
-15.66
-19.07
-23.16
-27.87
-32.96
-38.09
-42.84
-46.75
-49.37
-50.29
-49.18
-45.95
-40.79
-34.27
-27.10
-19.96
-13.27
-7.14
-1.42
4.07
9.31
14.16
18.35
21.75
24.40
26.52
28.35
30.00
31.43
32.53
33.21
33.50
33.56
33.60
33.74
33.95
34.07
33.87
33.21
32.13
30.80
29.51
28.47
27.79
27.38
27.08
26.68
26.09
25.28
24.33
23.33
22.35
21.39
20.38
19.23
17.82
16.11
14.22
12.29
10.49
8.86
7.33
5.75
4.05
2.26
0.52
-1.06
-2.44
-3.80
-5.30
-7.02
-8.85
-10.50
-11.75
-12.62
-13.39
-14.51
-16.36
-19.00
-22.14
-25.34
-28.22
-30.65
-32.81
-35.05
-37.74
-41.10
-45.18
-49.91
-55.10
-60.40
-65.25
-68.88
-70.50
-69.56
-65.97
-60.19
-53.09
-45.63
-38.50
-31.95
-25.87
-19.99
-14.12
-8.33
-2.85
2.03
6.21
9.84
13.25
16.76
20.50
24.31
27.87
30.83
33.04
34.61
35.77
36.78
37.73
38.54
39.02
38.95
38.26
37.01
35.42
33.73
32.13
30.66
29.21
27.55
25.51
23.08
20.45
17.98
15.97
14.51
13.41
12.25
10.62
8.23
5.12
1.53
-2.16
-5.65
-8.81
-11.72
-14.56
-17.56
-20.93
-24.78
-29.11
-33.81
-38.62
-43.08
-46.63
-48.68
-48.76
-46.71
-42.69
-37.20
-30.92
-24.53
-18.53
-13.11
-8.16
-3.46
1.15
5.65
9.76
13.15
15.64
17.38
18.80
20.37
22.38
24.74
27.14
29.21
30.78
31.88
32.65
33.17
33.35
33.02
32.06
30.48
28.51
26.47
24.63
23.06
21.68
20.22
18.46
16.26
13.64
10.81
8.05
5.60
3.53
1.72
-0.11
-2.21
-4.75
-7.72
-10.96
-14.29
-17.56
-20.72
-23.86
-27.10
-30.61
-34.52
-38.89
-43.58
-48.21
-52.15
-54.56
-54.73
-52.30
-47.48
-40.99
-33.79
-26.73
-20.25
-14.27
-8.42
-2.34
4.05
10.50
16.54
21.77
26.03
29.46
32.41
35.27
38.32
41.72
45.45
49.38
53.24
56.65
59.13
60.23
59.67
57.46
53.93
49.65
45.23
41.15
37.67
34.84
32.55
30.62
28.87
27.08
25.08
22.78
20.18
17.48
14.94
12.80
11.12
9.65
7.90
5.32
1.48
-3.70
-9.91
-16.60
-23.18
-29.20
-34.50
-39.15
-43.41
-47.66
-52.25
-57.45
-63.25
-69.20
-74.41
-77.70
-78.01
-74.80
-68.37
-59.75
-50.39
-41.61
-34.16
-28.11
-23.03
-18.39
-13.84
-9.34
-5.06
-1.20
2.20
5.25
8.13
10.99
13.81
16.44
18.72
20.50
21.75
22.56
23.06
23.33
23.39
23.15
22.51
21.41
19.90
18.14
16.33
14.68
13.24
11.98
10.76
9.43
7.93
6.27
4.51
2.73
0.91
-1.05
-3.30
-5.96
-8.96
-12.11
-15.13
-17.77
-19.97
-21.87
-23.73
-25.81
-28.34
-31.39
-34.99
-39.01
-43.11
-46.70
-49.03
-49.33
-47.19
-42.72
-36.56
-29.64
-22.78
-16.44
-10.65
-5.18
0.15
5.29
9.99
13.90
16.86
18.96
20.50
21.89
23.45
25.34
27.52
29.76
31.79
33.34
34.22
34.41
33.99
33.14
31.99
30.62
28.99
27.06
24.84
22.47
20.16
18.08
16.29
14.64
12.89
10.80
8.32
5.56
2.81
0.31
-1.83
-3.71
-5.60
-7.80
-10.47
-13.65
-17.23
-21.13
-25.35
-29.93
-34.85
-39.91
-44.65
-48.43
-50.59
-50.65
-48.48
-44.32
-38.73
-32.42
-26.01
-19.94
-14.36
-9.21
-4.36
0.25
4.55
8.39
11.67
14.40
16.75
18.94
21.11
23.27
25.30
27.08
28.49
29.54
30.23
30.57
30.53
30.03
29.05
27.62
25.85
23.82
21.62
19.29
16.88
14.47
12.14
9.95
7.84
5.70
3.37
0.75
-2.17
-5.27
-8.39
-11.40
-14.33
-17.30
-20.53
-24.20
-28.47
-33.39
-38.86
-44.59
-50.04
-54.46
-57.08
-57.30
-54.96
-50.36
-44.16
-37.16
-29.97
-22.92
-16.08
-9.38
-2.83
3.49
9.38
14.68
19.29
23.24
26.65
29.70
32.57
35.37
38.14
40.74
43.00
44.74
45.94
46.69
47.20
47.63
47.97
48.06
47.64
46.52
44.68
42.35
39.92
37.80
36.28
35.34
34.73
33.99
32.67
30.54
27.76
24.78
22.22
20.54
19.89
20.06
20.57
20.91
20.73
19.87
18.35
16.25
13.71
10.83
7.72
4.49
1.25
-1.95
-5.08
-8.11
-10.97
-13.56
-15.83
-17.83
-19.76
-21.84
-24.24
-26.99
-29.92
-32.78
-35.30
-37.30
-38.69
-39.42
-39.46
-38.84
-37.70
-36.33
-35.19
-34.79
-35.49
-37.31
-39.80
-42.16
-43.47
-42.99
-40.44
-36.05
-30.41
-24.26
-18.24
-12.75
-7.98
-3.87
-0.24
3.17
6.54
9.95
13.27
16.20
18.44
19.86
20.55
20.87
21.25
22.08
23.52
25.54
27.90
30.31
32.39
33.85
34.48
34.24
33.28
31.86
30.28
28.74
27.35
26.08
24.91
23.84
22.89
22.02
21.14
20.06
18.57
16.58
14.10
11.26
8.24
5.19
2.16
-0.86
-3.93
-7.12
-10.51
-14.15
-18.12
-22.45
-27.12
-31.97
-36.70
-40.90
-44.07
-45.75
-45.60
-43.50
-39.62
-34.37
-28.32
-22.03
-15.93
-10.26
-5.10
-0.42
3.81
7.60
10.93
13.78
16.15
18.11
19.77
21.28
22.74
24.23
25.72
27.17
28.47
29.54
30.26
30.50
30.15
29.09
27.35
25.08
22.62
20.34
18.54
17.30
16.49
15.89
15.19
14.17
12.64
10.48
7.70
4.48
1.11
-2.02
-4.68
-6.89
-8.98
-11.45
-14.75
-19.11
-24.38
-30.13
-35.70
-40.38
-43.53
-44.65
-43.53
-40.30
-35.45
-29.71
-23.81
-18.30
-13.38
-9.03
-5.11
-1.60
1.43
3.86
5.67
7.01
8.12
9.26
10.53
11.94
13.41
14.91
16.43
17.89
19.15
20.01
20.30
19.93
18.97
17.46
15.43
12.82
9.66
6.09
2.47
-0.82
-3.54
-5.73
-7.72
-9.96
-12.83
-16.52
-20.97
-25.95
-31.16
-36.27
-40.99
-45.03
-48.07
-49.80
-49.95
-48.42
-45.30
-40.93
-35.73
-30.16
-24.51
-18.91
-13.39
-8.02
-2.97
1.46
4.98
7.50
9.17
10.37
11.54
13.00
14.84
16.96
19.14
21.14
22.81
24.04
24.78
24.94
24.45
23.29
21.53
19.39
17.11
14.89
12.80
10.74
8.54
6.04
3.19
0.11
-3.04
-6.12
-9.17
-12.38
-16.07
-20.48
-25.67
-31.40
-37.20
-42.39
-46.21
-47.99
-47.34
-44.25
-39.15
-32.77
-25.91
-19.23
-13.02
-7.27
-1.78
3.59
8.79
13.58
17.73
21.15
23.97
26.46
28.87
31.28
33.58
35.57
37.05
37.95
38.30
38.27
37.99
37.56
36.99
36.23
35.19
33.77
31.91
29.60
26.96
24.18
21.48
19.02
16.78
14.57
12.09
9.04
5.32
1.08
-3.34
-7.54
-11.30
-14.71
-18.06
-21.79
-26.22
-31.51
-37.54
-43.97
-50.19
-55.36
-58.64
-59.30
-57.03
-52.07
-45.17
-37.31
-29.38
-21.88
-14.89
-8.23
-1.72
4.70
10.88
16.60
21.71
26.19
30.19
33.86
37.33
40.62
43.60
46.12
48.02
49.23
49.77
49.80
49.47
48.94
48.28
47.45
46.38
45.01
43.33
41.45
39.49
37.54
35.63
33.75
31.76
29.61
27.33
25.02
22.84
20.88
19.13
17.52
15.91
14.23
12.43
10.56
8.65
6.70
4.73
2.68
0.55
-1.63
-3.82
-5.98
-8.09
-10.20
-12.43
-14.89
-17.58
-20.42
-23.16
-25.55
-27.41
-28.80
-30.00
-31.37
-33.21
-35.61
-38.45
-41.47
-44.43
-47.23
-50.01
-53.03
-56.66
-61.17
-66.59
-72.53
-78.20
-82.50
-84.31
-82.87
-78.09
-70.57
-61.38
-51.74
-42.57
-34.26
-26.71
-19.50
-12.21
-4.70
2.86
10.01
16.25
21.30
25.17
28.19
30.83
33.47
36.18
38.74
40.81
42.10
42.56
42.38
41.87
41.28
40.69
39.97
38.92
37.36
35.26
32.76
30.12
27.58
25.26
23.07
20.79
18.15
14.97
11.22
7.10
2.88
-1.18
-5.01
-8.68
-12.44
-16.53
-21.17
-26.44
-32.24
-38.25
-43.91
-48.53
-51.38
-51.98
-50.20
-46.35
-41.04
-34.96
-28.73
-22.71
-17.11
-11.98
-7.31
-3.06
0.87
4.64
8.41
12.25
16.13
19.97
23.76
27.77
32.52
38.62
46.49
56.00
66.38
76.45
85.06
91.55
96.05
99.28
102.18
105.43
109.16
112.93
116.02
117.62
117.11
114.05
108.27
100.17
91.07
83.39
80.26
84.46
96.95
115.86
136.63
153.40
161.20
157.89
144.60
124.86
102.70
81.01
60.88
42.24
24.86
9.21
-3.66
-12.96
-18.98
-23.37
-28.54
-36.61
-48.47
-63.54
-80.16
-96.47
-111.06
-123.35
-133.35
-141.34
-147.63
-152.53
-156.50
-160.24
-164.58
-170.16
-177.10
-184.85
-192.35
-198.40
-202.04
-202.74
-200.35
-194.99
-186.91
-176.42
-164.06
-150.67
-137.31
-125.06
-114.69
-106.40
-99.74
-93.91
-88.19
-82.33
-76.71
-72.18
-69.52
-69.05
-70.28
-71.99
-72.66
-71.00
-66.40
-59.08
-49.95
-40.19
-30.80
-22.29
-14.67
-7.58
-0.60
6.48
13.55
20.23
26.14
31.09
35.19
38.81
42.28
45.74
48.98
51.60
53.29
54.02
54.11
54.04
54.13
54.27
54.00
52.66
49.80
45.41
39.96
34.19
28.85
24.39
20.88
18.08
15.54
12.75
9.25
4.71
-0.93
-7.44
-14.18
-20.30
-24.84
-27.07
-26.64
-23.69
-18.81
-12.72
-6.11
0.58
7.19
13.68
20.01
26.00
31.33
35.66
38.81
40.86
42.22
43.40
44.85
46.72
48.82
50.74
52.07
52.55
52.18
51.18
49.83
48.35
46.82
45.17
43.21
40.83
37.95
34.58
30.79
26.65
22.19
17.46
12.49
7.32
1.92
-3.78
-9.80
-16.01
-21.94
-26.82
-29.78
-30.17
-27.78
-22.97
-16.52
-9.24
-1.80
5.49
12.57
19.49
26.12
32.11
37.07
40.66
42.91
44.16
45.00
45.96
47.35
49.11
50.95
52.49
53.46
53.80
53.55
52.79
51.55
49.77
47.44
44.68
41.70
38.84
36.33
34.24
32.43
30.60
28.40
25.66
22.41
18.92
15.49
12.36
9.51
6.71
3.61
-0.08
-4.40
-9.21
-14.13
-18.83
-23.06
-26.82
-30.33
-33.90
-37.86
-42.44
-47.70
-53.48
-59.32
-64.49
-68.00
-68.86
-66.43
-60.65
-52.20
-42.31
-32.28
-22.98
-14.65
-6.90
0.77
8.63
16.44
23.55
29.28
33.38
36.09
38.10
40.15
42.67
45.70
48.87
51.68
53.77
54.98
55.43
55.30
54.79
53.98
52.88
51.52
49.94
48.27
46.65
45.14
43.67
42.14
40.40
38.41
36.24
34.03
31.92
29.97
28.16
26.44
24.77
23.15
21.56
19.95
18.20
16.26
14.07
11.74
9.36
7.01
4.68
2.30
-0.16
-2.68
-5.19
-7.62
-9.93
-12.16
-14.36
-16.52
-18.62
-20.69
-22.91
-25.53
-28.75
-32.53
-36.60
-40.45
-43.66
-46.07
-47.90
-49.67
-52.01
-55.40
-60.01
-65.60
-71.50
-76.72
-80.12
-80.73
-78.00
-72.02
-63.52
-53.64
-43.59
-34.28
-26.12
-19.09
-12.88
-7.13
-1.65
3.54
8.30
12.50
16.17
19.46
22.62
25.85
29.12
32.20
34.65
36.13
36.51
36.02
35.11
34.23
33.64
33.26
32.73
31.66
29.81
27.30
24.48
21.78
19.49
17.58
15.81
13.85
11.49
8.74
5.74
2.69
-0.29
-3.19
-6.08
-9.03
-12.11
-15.37
-18.97
-23.08
-27.78
-32.93
-37.98
-42.10
-44.35
-44.05
-41.03
-35.78
-29.17
-22.21
-15.67
-9.90
-4.92
-0.61
3.05
5.91
7.79
8.61
8.58
8.12
7.77
7.98
8.91
10.46
12.31
14.05
15.32
15.92
15.76
14.95
13.65
12.07
10.37
8.61
6.81
4.90
2.80
0.47
-2.12
-4.90
-7.74
-10.49
-13.06
-15.50
-18.02
-20.92
-24.45
-28.71
-33.45
-38.10
-41.89
-43.98
-43.73
-40.94
-35.91
-29.36
-22.25
-15.43
-9.43
-4.45
-0.31
3.26
6.45
9.30
11.68
13.46
14.61
15.31
15.88
16.66
17.87
19.46
21.15
22.52
23.18
22.96
21.92
20.31
18.42
16.46
14.44
12.26
9.81
7.03
4.04
1.03
-1.81
-4.39
-6.71
-8.94
-11.26
-13.87
-16.97
-20.67
-25.07
-30.11
-35.57
-40.96
-45.60
-48.71
-49.65
-48.11
-44.20
-38.45
-31.58
-24.36
-17.38
-10.91
-4.99
0.51
5.67
10.44
14.65
18.11
20.70
22.54
23.89
25.09
26.35
27.70
29.00
30.06
30.76
31.15
31.36
31.50
31.52
31.21
30.30
28.62
26.16
23.20
20.12
17.25
14.77
12.57
10.39
7.94
5.08
1.89
-1.41
-4.59
-7.53
-10.32
-13.21
-16.47
-20.31
-24.80
-29.90
-35.41
-41.03
-46.20
-50.31
-52.66
-52.74
-50.33
-45.64
-39.23
-31.87
-24.31
-17.04
-10.26
-3.89
2.22
8.11
13.66
18.58
22.62
25.70
28.00
29.93
31.88
34.07
36.44
38.68
40.46
41.56
41.95
41.78
41.29
40.66
39.97
39.25
38.45
37.49
36.29
34.83
33.16
31.41
29.77
28.37
27.23
26.26
25.32
24.30
23.18
22.01
20.80
19.55
18.20
16.69
15.08
13.46
11.94
10.57
9.29
7.97
6.51
4.86
3.05
1.15
-0.79
-2.70
-4.56
-6.33
-8.02
-9.66
-11.32
-13.00
-14.68
-16.28
-17.75
-19.12
-20.51
-22.10
-24.07
-26.50
-29.29
-32.23
-35.08
-37.63
-39.84
-41.83
-43.87
-46.40
-49.77
-54.19
-59.42
-64.79
-69.25
-71.67
-71.18
-67.53
-61.21
-53.22
-44.78
-36.82
-29.72
-23.35
-17.27
-11.10
-4.76
1.53
7.40
12.53
16.83
20.44
23.56
26.39
28.92
31.10
32.85
34.16
35.16
36.06
37.02
38.07
39.10
39.89
40.18
39.86
38.97
37.69
36.24
34.80
33.41
32.03
30.59
29.03
27.33
25.53
23.69
21.87
20.13
18.47
16.91
15.44
13.98
12.45
10.80
9.04
7.19
5.30
3.34
1.26
-1.00
-3.39
-5.77
-7.97
-9.81
-11.29
-12.58
-13.97
-15.73
-18.03
-20.80
-23.81
-26.76
-29.41
-31.70
-33.78
-35.91
-38.44
-41.63
-45.58
-50.08
-54.65
-58.58
-61.04
-61.42
-59.43
-55.24
-49.43
-42.78
-35.97
-29.43
-23.31
-17.54
-12.06
-6.87
-2.13
1.95
5.22
7.68
9.56
11.19
12.92
14.93
17.22
19.58
21.71
23.40
24.57
25.25
25.49
25.31
24.67
23.58
22.10
20.39
18.62
16.90
15.23
13.51
11.64
9.57
7.36
5.11
2.97
1.00
-0.86
-2.75
-4.90
-7.52
-10.70
-14.45
-18.65
-23.08
-27.48
-31.48
-34.63
-36.41
-36.35
-34.20
-30.09
-24.56
-18.41
-12.38
-6.94
-2.15
2.18
6.24
10.09
13.56
16.39
18.43
19.75
20.64
21.45
22.47
23.79
25.35
26.97
28.47
29.70
30.61
31.21
31.50
31.47
31.03
30.04
28.37
26.02
23.16
20.07
17.08
14.40
12.05
9.91
7.77
5.48
2.94
0.11
-3.00
-6.36
-9.88
-13.40
-16.73
-19.74
-22.47
-25.16
-28.17
-31.88
-36.45
-41.76
-47.31
-52.38
-56.12
-57.86
-57.24
-54.36
-49.67
-43.82
-37.47
-31.06
-24.76
-18.58
-12.44
-6.37
-0.52
4.83
9.42
13.17
16.18
18.78
21.30
23.98
26.85
29.72
32.36
34.58
36.34
37.70
38.75
39.51
39.94
39.93
39.45
38.56
37.42
36.22
35.16
34.32
33.73
33.26
32.76
32.04
31.01
29.67
28.10
26.44
24.77
23.20
21.77
20.52
19.49
18.63
17.83
16.95
15.90
14.60
13.12
11.55
9.97
8.38
6.77
5.13
3.53
2.03
0.67
-0.62
-1.96
-3.45
-5.08
-6.75
-8.32
-9.73
-11.00
-12.28
-13.77
-15.65
-18.02
-20.86
-24.06
-27.39
-30.63
-33.59
-36.23
-38.68
-41.20
-44.12
-47.71
-52.04
-56.95
-61.98
-66.41
-69.40
-70.19
-68.41
-64.21
-58.24
-51.45
-44.68
-38.39
-32.53
-26.68
-20.39
-13.46
-6.14
1.04
7.47
12.76
16.86
20.00
22.56
24.83
26.98
29.06
31.07
33.04
35.02
37.00
38.88
40.42
41.37
41.56
40.96
39.76
38.29
36.89
35.83
35.16
34.72
34.19
33.32
31.97
30.22
28.36
26.63
25.22
24.09
23.12
22.16
21.10
19.95
18.71
17.36
15.84
14.10
12.16
10.15
8.29
6.74
5.57
4.68
3.83
2.79
1.39
-0.36
-2.32
-4.29
-6.13
-7.87
-9.63
-11.56
-13.76
-16.20
-18.77
-21.36
-23.92
-26.43
-28.88
-31.25
-33.52
-35.79
-38.27
-41.28
-45.03
-49.48
-54.18
-58.35
-61.01
-61.39
-59.08
-54.31
-47.79
-40.49
-33.36
-26.98
-21.48
-16.58
-11.88
-7.12
-2.31
2.28
6.35
9.71
12.43
14.77
17.00
19.30
21.65
23.88
25.78
27.24
28.28
29.02
29.58
29.97
30.11
29.86
29.18
28.14
26.92
25.70
24.54
23.38
22.11
20.61
18.85
16.87
14.72
12.47
10.14
7.78
5.42
3.07
0.72
-1.73
-4.36
-7.18
-10.12
-13.08
-16.03
-19.04
-22.30
-25.99
-30.21
-34.81
-39.40
-43.39
-46.09
-46.89
-45.50
-42.01
-36.95
-31.06
-25.08
-19.47
-14.37
-9.61
-4.99
-0.42
4.01
8.08
11.55
14.35
16.56
18.36
19.95
21.46
22.94
24.37
25.68
26.79
27.67
28.30
28.65
28.72
28.50
27.97
27.18
26.20
25.10
23.95
22.77
21.49
20.07
18.45
16.62
14.64
12.57
10.52
8.55
6.66
4.80
2.90
0.85
-1.44
-4.00
-6.80
-9.76
-12.79
-15.87
-19.09
-22.58
-26.50
-30.88
-35.58
-40.22
-44.20
-46.85
-47.63
-46.31
-43.05
-38.35
-32.89
-27.21
-21.66
-16.27
-10.98
-5.74
-0.68
3.91
7.76
10.75
13.04
14.98
16.92
19.08
21.35
23.46
25.07
25.96
26.17
25.91
25.53
25.30
25.32
25.45
25.46
25.11
24.29
23.08
21.65
20.18
18.76
17.37
15.97
14.54
13.09
11.65
10.20
8.62
6.80
4.68
2.37
0.04
-2.17
-4.22
-6.31
-8.74
-11.86
-15.78
-20.42
-25.35
-29.94
-33.48
-35.34
-35.05
-32.46
-27.69
-21.15
-13.38
-4.99
3.50
11.70
19.44
26.66
33.30
39.27
44.34
48.29
50.96
52.38
52.76
52.41
51.66
50.81
50.09
49.63
49.40
49.17
48.51
46.91
43.93
39.37
33.34
26.20
18.45
10.55
2.81
-4.56
-11.52
-18.11
-24.45
-30.71
-36.98
-43.26
-49.44
-55.32
-60.69
-65.43
-69.56
-73.16
-76.36
-79.29
-81.98
-84.39
-86.31
-87.48
-87.53
-86.12
-82.88
-77.56
-70.07
-60.53
-49.36
-37.11
-24.41
-11.77
0.50
12.20
23.23
33.48
42.90
51.55
59.68
67.59
75.55
83.56
91.32
98.37
104.24
108.65
111.54
112.99
113.10
111.91
109.45
105.66
100.45
93.59
84.77
73.74
60.57
45.72
30.13
14.93
1.11
-10.78
-20.70
-28.98
-36.00
-41.94
-46.78
-50.35
-52.63
-53.79
-54.19
-54.21
-54.11
-54.02
-54.04
-54.32
-55.11
-56.66
-59.07
-62.09
-65.17
-67.59
-68.70
-68.13
-65.86
-62.14
-57.36
-51.87
-45.95
-39.84
-33.81
-28.12
-23.00
-18.57
-14.84
-11.72
-9.06
-6.70
-4.50
-2.36
-0.17
2.11
4.43
6.67
8.67
10.35
11.68
12.74
13.63
14.41
15.06
15.55
15.91
16.18
16.45
16.76
17.08
17.34
17.51
17.62
17.78
18.18
18.92
19.99
21.23
22.37
23.17
23.49
23.36
22.94
22.42
21.89
21.37
20.73
19.85
18.65
17.09
15.23
13.13
10.84
8.42
5.92
3.39
0.83
-1.82
-4.64
-7.69
-10.97
-14.34
-17.59
-20.44
-22.71
-24.30
-25.31
-25.91
-26.34
-26.82
-27.46
-28.28
-29.24
-30.33
-31.62
-33.29
-35.58
-38.68
-42.61
-47.14
-51.74
-55.69
-58.21
-58.67
-56.69
-52.34
-46.01
-38.40
-30.25
-22.18
-14.53
-7.41
-0.74
5.53
11.40
16.76
21.49
25.55
29.05
32.14
34.96
37.57
39.91
41.90
43.48
44.75
45.89
47.10
48.47
49.95
51.33
52.32
52.67
52.26
51.09
49.26
46.94
44.34
41.66
39.12
36.89
35.00
33.37
31.74
29.84
27.49
24.67
21.59
18.55
15.85
13.61
11.80
10.26
8.85
7.43
5.92
4.26
2.38
0.22
-2.23
-4.92
-7.75
-10.57
-13.32
-16.01
-18.76
-21.70
-24.96
-28.56
-32.41
-36.35
-40.22
-43.91
-47.39
-50.73
-53.98
-57.14
-60.08
-62.53
-64.08
-64.26
-62.72
-59.27
-54.07
-47.61
-40.57
-33.65
-27.31
-21.64
-16.47
-11.51
-6.60
-1.76
2.82
6.98
10.68
14.04
17.25
20.38
23.36
25.99
28.05
29.45
30.24
30.57
30.62
30.48
30.17
29.66
28.92
27.92
26.72
25.43
24.17
23.01
21.96
20.92
19.71
18.21
16.39
14.42
12.51
10.87
9.51
8.25
6.76
4.74
2.07
-1.11
-4.44
-7.54
-10.15
-12.28
-14.16
-16.18
-18.63
-21.63
-25.09
-28.74
-32.23
-35.27
-37.60
-38.97
-39.18
-38.11
-35.74
-32.26
-27.95
-23.18
-18.20
-13.15
-8.05
-2.95
2.02
6.60
10.48
13.47
15.66
17.34
18.92
20.68
22.63
24.59
26.25
27.45
28.21
28.67
28.96
29.08
28.91
28.33
27.35
26.16
25.07
24.26
23.73
23.30
22.70
21.79
20.55
19.07
17.50
15.92
14.37
12.80
11.18
9.47
7.61
5.58
3.40
1.14
-1.03
-3.00
-4.71
-6.24
-7.77
-9.48
-11.49
-13.80
-16.31
-18.92
-21.53
-24.12
-26.66
-29.15
-31.59
-34.00
-36.46
-39.11
-42.02
-45.09
-48.03
-50.29
-51.26
-50.42
-47.56
-42.87
-36.92
-30.46
-24.20
-18.56
-13.55
-8.93
-4.34
0.42
5.29
9.98
14.19
17.74
20.63
23.03
25.12
26.99
28.61
29.94
31.01
31.89
32.71
33.49
34.16
34.52
34.41
33.80
32.78
31.58
30.41
29.45
28.72
28.15
27.62
27.02
26.31
25.49
24.61
23.69
22.72
21.71
20.65
19.52
18.31
16.99
15.51
13.82
11.94
9.94
7.95
6.08
4.40
2.90
1.53
0.23
-1.07
-2.45
-4.00
-5.78
-7.78
-9.84
-11.81
-13.55
-15.09
-16.62
-18.41
-20.63
-23.30
-26.22
-29.14
-31.83
-34.25
-36.52
-38.87
-41.50
-44.49
-47.64
-50.59
-52.82
-53.84
-53.33
-51.19
-47.57
-42.79
-37.29
-31.49
-25.79
-20.44
-15.54
-11.03
-6.74
-2.52
1.64
5.60
9.18
12.21
14.70
16.79
18.66
20.39
21.97
23.32
24.36
25.13
25.68
26.09
26.37
26.40
26.09
25.36
24.22
22.75
21.04
19.21
17.30
15.37
13.45
11.52
9.58
7.57
5.45
3.22
0.93
-1.29
-3.33
-5.14
-6.83
-8.58
-10.65
-13.24
-16.37
-19.92
-23.64
-27.24
-30.34
-32.62
-33.75
-33.49
-31.73
-28.57
-24.26
-19.16
-13.71
-8.30
-3.29
1.09
4.69
7.54
9.76
11.56
13.14
14.66
16.17
17.71
19.25
20.77
22.24
23.59
24.73
25.60
26.18
26.48
26.48
26.14
25.36
24.10
22.42
20.46
18.40
16.39
14.47
12.58
10.65
8.59
6.38
4.02
1.49
-1.27
-4.27
-7.50
-10.82
-14.02
-16.95
-19.52
-21.81
-24.01
-26.38
-29.21
-32.64
-36.61
-40.81
-44.69
-47.61
-49.00
-48.51
-46.15
-42.22
-37.25
-31.79
-26.30
-21.05
-16.11
-11.45
-6.93
-2.45
2.00
6.34
10.38
13.95
16.93
19.31
21.19
22.73
24.13
25.51
26.97
28.48
29.98
31.27
32.14
32.41
31.99
30.95
29.43
27.66
25.79
23.93
22.12
20.37
18.62
16.83
14.95
12.87
10.52
7.84
4.86
1.67
-1.64
-4.95
-8.27
-11.60
-15.00
-18.57
-22.40
-26.55
-30.99
-35.54
-39.83
-43.37
-45.64
-46.25
-45.05
-42.20
-38.06
-33.12
-27.84
-22.54
-17.31
-12.07
-6.67
-0.99
4.89
10.72
16.13
20.78
24.52
27.41
29.75
31.84
33.88
35.90
37.78
39.35
40.51
41.24
41.60
41.67
41.44
40.92
40.17
39.28
38.38
37.54
36.78
36.05
35.25
34.35
33.33
32.30
31.33
30.45
29.61
28.73
27.77
26.78
25.79
24.78
23.80
22.84
21.88
20.93
19.94
18.94
18.03
17.07
15.98
14.87
13.95
13.38
13.09
12.81
12.28
11.40
9.85
7.55
4.90
2.59
1.06
0.27
-0.22
-0.90
-2.03
-4.12
-7.42
-11.49
-15.48
-18.86
-21.83
-25.19
-29.88
-36.61
-46.34
-59.59
-75.48
-91.86
-106.42
-117.74
-125.72
-131.47
-129.87
-118.86
-101.70
-84.42
-70.72
-59.73
-47.64
-30.68
-7.41
19.07
45.61
67.89
82.60
88.59
86.52
77.67
63.11
43.35
18.47
-8.74
-34.09
-53.14
-63.10
-64.05
-58.50
-49.88
-41.22
-34.27
-29.77
-28.30
-30.05
-34.44
-39.94
-44.16
-44.06
-37.06
-22.27
-1.29
21.65
41.54
54.64
59.80
58.54
54.42
51.28
51.93
57.51
67.32
79.53
91.78
102.37
108.24
107.18
98.22
82.14
61.41
39.48
19.93
5.42
-2.93
-5.66
-4.19
-0.51
3.34
5.62
5.20
1.95
-3.05
-7.89
-10.59
-9.90
-6.05
-0.59
4.40
7.30
7.77
6.71
5.65
5.75
7.51
10.55
14.14
18.00
21.74
25.09
27.81
29.58
30.06
29.07
26.70
23.30
19.24
14.61
9.25
2.68
-5.66
-16.26
-29.15
-43.72
-58.69
-72.31
-82.81
-88.75
-89.52
-85.40
-77.48
-67.14
-55.69
-43.98
-32.47
-21.46
-11.33
-2.65
3.98
8.21
10.27
11.01
11.54
12.82
15.21
18.35
21.35
23.23
23.24
21.17
17.29
12.24
6.92
2.24
-1.05
-2.65
-3.04
-3.65
-6.73
-14.70
-29.22
-50.20
-75.48
-101.18
-122.92
-137.28
-142.93
-140.92
-133.95
-125.06
-116.44
-108.73
-101.36
-93.24
-83.58
-72.17
-59.20
-44.79
-28.77
-10.91
8.59
28.65
47.42
62.75
73.11
78.24
79.32
78.51
78.06
79.46
82.89
87.43
91.48
93.48
92.55
88.68
82.59
75.33
67.82
60.51
53.40
46.27
38.99
31.76
24.94
18.89
13.56
8.33
2.10
-6.26
-17.41
-31.21
-46.65
-62.27
-76.59
-88.56
-97.59
-103.35
-105.66
-104.29
-99.28
-91.11
-80.86
-69.98
-59.77
-50.92
-43.29
-36.01
-27.93
-18.07
-6.08
7.41
20.89
32.35
39.99
42.89
41.34
36.85
31.54
27.38
25.44
25.81
28.12
32.01
37.47
44.57
53.19
62.72
72.19
80.37
86.59
91.44
96.62
104.09
115.02
129.31
145.63
162.20
176.70
187.33
193.56
196.12
196.06
194.12
190.79
186.48
182.06
177.22
170.95
162.44
151.49
138.25
122.96
106.03
87.65
68.16
45.65
17.55
-17.29
-57.43
-99.77
-141.02
-178.67
-212.12
-233.64
-236.25
-219.99
-192.95
-163.98
-137.51
-114.09
-92.79
-76.44
-63.33
-54.34
-51.27
-55.06
-65.12
-80.34
-100.31
-120.34
-137.41
-148.22
-152.06
-150.02
-144.01
-135.70
-126.36
-116.78
-106.95
-97.06
-86.61
-76.55
-68.18
-62.17
-57.98
-54.30
-49.80
-43.55
-35.78
-26.92
-18.36
-11.53
-7.19
-5.13
-4.41
-3.83
-2.24
0.73
5.15
10.43
15.90
21.27
26.75
32.83
39.78
47.31
54.29
59.44
61.78
61.25
58.75
55.76
53.61
52.92
53.43
54.32
54.71
54.10
52.40
49.75
46.38
42.49
38.33
34.32
30.98
28.71
27.64
27.49
27.72
27.73
27.15
25.93
24.31
22.61
21.08
19.88
19.00
18.42
18.07
17.86
17.70
17.50
17.25
16.98
16.76
16.64
16.57
16.41
16.12
15.78
15.68
16.13
17.30
18.97
20.67
21.84
22.08
21.32
19.79
17.90
16.03
14.45
13.27
12.42
11.72
10.87
9.59
7.67
5.12
2.15
-0.88
-3.57
-5.69
-7.25
-8.53
-9.94
-11.92
-14.74
-18.50
-23.04
-28.05
-33.16
-38.01
-42.36
-46.09
-49.16
-51.54
-53.08
-53.45
-52.16
-48.74
-43.01
-35.29
-26.35
-17.22
-8.78
-1.57
4.26
8.74
11.88
13.69
14.22
13.84
13.21
13.04
13.82
15.52
17.61
19.37
20.29
20.27
19.59
18.65
17.77
17.02
16.34
15.66
14.98
14.41
14.06
13.96
14.08
14.31
14.57
14.77
14.85
14.69
14.18
13.23
11.89
10.31
8.75
7.48
6.74
6.67
7.29
8.50
10.13
11.89
13.41
14.35
14.41
13.47
11.65
9.22
6.60
4.17
2.21
0.84
-0.03
-0.67
-1.44
-2.65
-4.44
-6.70
-9.05
-11.04
-12.28
-12.64
-12.32
-11.85
-11.87
-12.91
-15.22
-18.60
-22.46
-25.99
-28.38
-29.20
-28.44
-26.58
-24.25
-21.95
-19.81
-17.67
-15.24
-12.46
-9.57
-7.03
-5.15
-3.94
-3.05
-1.99
-0.46
1.46
3.42
5.06
6.23
7.07
7.92
9.02
10.45
12.06
13.68
15.11
16.24
16.95
17.09
16.54
15.34
13.77
12.37
11.76
12.37
14.26
16.83
18.94
19.09
15.91
8.77
-1.79
-13.97
-25.29
-33.37
-36.87
-35.85
-31.61
-26.05
-20.81
-16.87
-14.41
-13.18
-12.86
-13.30
-14.39
-15.96
-17.61
-18.79
-19.07
-18.34
-17.04
-15.91
-15.78
-17.04
-19.49
-22.37
-24.70
-25.69
-25.02
-22.88
-19.81
-16.40
-13.11
-10.28
-8.17
-6.95
-6.75
-7.47
-8.69
-9.70
-9.63
-7.82
-4.14
0.74
5.49
8.66
9.25
7.30
3.88
0.63
-0.97
-0.20
2.72
6.91
11.44
15.62
19.10
21.58
22.62
21.54
17.65
10.62
0.68
-11.40
-24.64
-38.18
-51.46
-63.97
-74.93
-82.88
-86.01
-82.99
-73.96
-61.24
-48.95
-41.45
-41.55
-49.51
-63.55
-81.25
-101.16
-123.00
-146.61
-170.36
-190.29
-200.81
-196.85
-176.16
-140.46
-94.94
-46.35
-0.91
37.06
65.51
84.26
94.23
96.85
93.59
85.60
73.45
57.21
36.91
13.21
-12.10
-35.98
-54.95
-66.78
-72.05
-74.77
-81.24
-97.33
-125.60
-163.64
-204.70
-240.30
-263.40
-270.28
-260.61
-236.28
-200.35
-157.02
-112.09
-72.77
-45.94
-35.48
-40.22
-54.18
-69.25
-78.94
-80.85
-76.56
-69.16
-60.41
-49.34
-33.06
-9.15
22.47
59.18
97.12
133.19
166.48
198.08
230.36
265.58
305.00
348.53
394.53
439.70
479.35
508.03
520.84
514.74
489.37
446.96
391.45
327.52
259.94
193.37
132.36
80.98
42.10
16.40
2.07
-4.76
-8.63
-13.31
-20.78
-31.16
-43.23
-55.36
-66.23
-75.17
-82.12
-87.38
-91.39
-94.47
-96.82
-98.57
-99.91
-101.07
-102.25
-103.54
-104.86
-105.87
-105.91
-103.93
-98.57
-88.41
-72.44
-50.58
-23.93
5.39
34.84
62.16
85.79
105.02
119.50
128.98
133.06
131.46
124.36
112.72
98.19
82.73
68.12
55.59
45.63
38.15
32.78
29.03
26.57
25.17
24.66
24.78
25.17
25.32
24.72
23.04
20.23
16.60
12.73
9.31
6.99
6.24
7.24
9.81
13.58
17.98
22.46
26.62
30.19
32.98
34.77
35.31
34.40
32.08
28.70
24.90
21.37
18.61
16.76
15.50
14.27
12.49
9.81
6.27
2.18
-1.92
-5.55
-8.35
-10.12
-10.79
-10.42
-9.23
-7.64
-6.26
-5.86
-7.15
-10.59
-16.17
-23.41
-31.42
-39.21
-45.92
-51.05
-54.50
-56.46
-57.26
-57.10
-55.98
-53.68
-50.00
-44.89
-38.63
-31.80
-25.02
-18.83
-13.46
-8.88
-4.95
-1.55
1.33
3.63
5.35
6.63
7.61
8.44
9.10
9.45
9.35
8.75
7.76
6.58
5.34
4.06
2.64
1.00
-0.88
-2.84
-4.70
-6.32
-7.72
-9.10
-10.75
-12.94
-15.76
-19.07
-22.49
-25.54
-27.75
-28.73
-28.25
-26.18
-22.50
-17.40
-11.23
-4.63
1.63
6.85
10.58
12.73
13.56
13.49
12.97
12.30
11.71
11.33
11.28
11.63
12.34
13.20
13.90
14.09
13.58
12.37
10.69
8.80
6.89
4.99
2.98
0.75
-1.76
-4.45
-7.20
-9.92
-12.60
-15.33
-18.21
-21.33
-24.74
-28.43
-32.29
-35.99
-38.99
-40.61
-40.22
-37.59
-32.94
-26.96
-20.46
-14.06
-8.04
-2.36
3.12
8.32
12.90
16.40
18.49
19.23
19.14
18.97
19.41
20.79
22.89
25.14
26.80
27.32
26.41
24.03
20.30
15.40
9.61
3.32
-2.90
-8.49
-12.98
-16.23
-18.42
-19.99
-21.38
-22.87
-24.52
-26.32
-28.26
-30.48
-33.22
-36.59
-40.45
-44.31
-47.37
-48.83
-48.11
-45.06
-39.97
-33.47
-26.28
-19.00
-12.01
-5.44
0.75
6.64
12.20
17.27
21.56
24.80
26.88
27.98
28.54
29.12
30.18
31.86
33.94
35.92
37.23
37.50
36.63
34.80
32.30
29.41
26.32
23.12
19.82
16.38
12.79
9.07
5.24
1.33
-2.61
-6.54
-10.38
-14.06
-17.54
-20.85
-24.16
-27.76
-31.97
-36.98
-42.57
-48.09
-52.43
-54.42
-53.24
-48.77
-41.66
-33.09
-24.28
-16.06
-8.63
-1.71
5.16
12.26
19.42
26.10
31.70
35.78
38.28
39.51
39.98
40.12
40.20
40.24
40.20
40.02
39.73
39.38
38.95
38.35
37.43
36.06
34.22
32.02
29.68
27.40
25.34
23.56
22.06
20.79
19.62
18.44
17.13
15.63
14.01
12.39
10.91
9.62
8.41
7.08
5.39
3.26
0.81
-1.63
-3.70
-5.17
-6.05
-6.57
-6.98
-7.47
-8.00
-8.43
-8.65
-8.69
-8.79
-9.27
-10.33
-11.95
-13.96
-16.11
-18.34
-20.78
-23.65
-27.09
-30.97
-34.94
-38.51
-41.39
-43.49
-45.09
-46.65
-48.64
-51.40
-55.01
-59.29
-63.81
-67.93
-70.92
-72.06
-70.83
-67.04
-60.93
-53.13
-44.51
-35.96
-28.10
-21.18
-15.08
-9.41
-3.79
2.01
7.94
13.77
19.22
24.07
28.31
31.99
35.24
38.08
40.41
42.13
43.17
43.62
43.73
43.80
44.00
44.29
44.37
43.87
42.51
40.27
37.43
34.43
31.63
29.23
27.17
25.22
23.25
21.23
19.33
17.76
16.56
15.58
14.56
13.25
11.62
9.85
8.21
6.86
5.73
4.55
3.08
1.26
-0.72
-2.57
-4.09
-5.33
-6.52
-7.91
-9.59
-11.42
-13.18
-14.71
-16.08
-17.49
-19.18
-21.25
-23.60
-25.98
-28.17
-30.10
-31.80
-33.46
-35.25
-37.34
-39.87
-42.89
-46.35
-49.96
-53.11
-55.04
-55.04
-52.70
-48.14
-41.96
-35.05
-28.24
-22.11
-16.88
-12.44
-8.57
-5.04
-1.67
1.66
4.99
8.28
11.44
14.31
16.72
18.61
19.98
21.02
21.91
22.84
23.82
24.75
25.46
25.80
25.72
25.26
24.42
23.22
21.58
19.51
17.11
14.64
12.42
10.69
9.50
8.68
7.90
6.88
5.51
3.88
2.24
0.76
-0.50
-1.66
-2.89
-4.32
-5.94
-7.64
-9.33
-10.93
-12.45
-13.92
-15.39
-16.87
-18.42
-20.16
-22.30
-24.98
-28.14
-31.45
-34.31
-35.99
-35.96
-33.99
-30.29
-25.43
-20.13
-15.00
-10.43
-6.49
-3.05
0.05
2.87
5.32
7.29
8.66
9.52
10.09
10.67
11.46
12.46
13.49
14.27
14.62
14.55
14.25
13.99
13.99
14.25
14.59
14.68
14.24
13.22
11.82
10.42
9.40
8.93
8.86
8.81
8.28
6.98
4.94
2.51
0.24
-1.44
-2.41
-2.90
-3.40
-4.37
-5.98
-8.07
-10.22
-12.00
-13.23
-14.05
-14.86
-16.05
-17.83
-20.12
-22.64
-25.14
-27.41
-29.37
-30.93
-31.89
-31.95
-30.81
-28.30
-24.55
-19.97
-15.13
-10.62
-6.85
-3.93
-1.75
-0.05
1.34
2.45
3.21
3.60
3.74
3.90
4.35
5.15
6.16
7.08
7.63
7.77
7.75
7.89
8.51
9.74
11.56
13.84
16.44
19.20
21.91
24.31
26.07
26.92
26.79
25.76
24.13
22.21
20.25
18.33
16.38
14.29
12.02
9.61
7.22
4.95
2.83
0.71
-1.59
-4.23
-7.20
-10.36
-13.47
-16.34
-18.77
-20.60
-21.63
-21.67
-20.52
-18.15
-14.70
-10.54
-6.14
-2.01
1.44
3.97
5.53
6.25
6.43
6.37
6.37
6.59
7.03
7.54
7.94
8.09
7.97
7.68
7.42
7.35
7.59
8.08
8.68
9.17
9.34
9.05
8.27
7.08
5.70
4.36
3.28
2.58
2.21
1.99
1.67
1.03
-0.08
-1.59
-3.32
-5.02
-6.47
-7.62
-8.58
-9.60
-10.91
-12.66
-14.80
-17.11
-19.25
-20.86
-21.57
-21.07
-19.12
-15.71
-11.04
-5.65
-0.24
4.43
7.81
9.60
9.87
8.89
7.08
4.85
2.58
0.64
-0.68
-1.19
-0.84
0.23
1.68
3.10
4.10
4.47
4.27
3.81
3.45
3.43
3.76
4.16
4.31
3.95
3.05
1.76
0.27
-1.31
-2.98
-4.81
-6.78
-8.74
-10.44
-11.71
-12.57
-13.29
-14.30
-15.98
-18.50
-21.66
-24.90
-27.50
-28.77
-28.31
-26.15
-22.70
-18.55
-14.27
-10.19
-6.41
-2.91
0.31
3.16
5.47
7.09
8.06
8.59
9.03
9.67
10.62
11.83
13.12
14.32
15.31
16.05
16.51
16.66
16.45
15.89
15.08
14.21
13.44
12.81
12.20
11.37
10.13
8.53
6.79
5.29
4.24
3.62
3.14
2.38
1.06
-0.86
-3.08
-5.21
-6.95
-8.27
-9.38
-10.59
-12.15
-14.16
-16.59
-19.38
-22.51
-25.93
-29.42
-32.54
-34.58
-34.83
-32.89
-28.87
-23.45
-17.61
-12.27
-7.96
-4.65
-1.97
0.51
3.02
5.51
7.78
9.68
11.24
12.65
14.14
15.79
17.50
19.10
20.47
21.61
22.62
23.56
24.40
24.98
25.17
24.95
24.45
23.87
23.38
23.06
22.84
22.62
22.33
21.99
21.64
21.29
20.90
20.41
19.79
19.08
18.37
17.71
17.09
16.39
15.49
14.33
12.96
11.52
10.13
8.86
7.68
6.53
5.42
4.37
3.48
2.76
2.15
1.52
0.71
-0.32
-1.55
-2.87
-4.11
-5.17
-6.02
-6.71
-7.32
-7.95
-8.67
-9.57
-10.72
-12.21
-14.08
-16.23
-18.46
-20.50
-22.17
-23.56
-25.02
-27.01
-29.87
-33.43
-37.04
-39.76
-40.74
-39.56
-36.39
-31.86
-26.77
-21.81
-17.36
-13.47
-9.99
-6.68
-3.36
-0.02
3.21
6.13
8.53
10.34
11.65
12.66
13.58
14.52
15.46
16.30
17.01
17.63
18.27
19.02
19.83
20.56
20.98
20.96
20.51
19.81
19.09
18.57
18.30
18.21
18.11
17.80
17.15
16.21
15.14
14.17
13.49
13.12
12.86
12.37
11.35
9.73
7.73
5.75
4.15
3.09
2.41
1.83
1.12
0.18
-0.90
-2.06
-3.31
-4.79
-6.58
-8.66
-10.82
-12.81
-14.49
-15.94
-17.44
-19.37
-22.04
-25.45
-29.37
-33.28
-36.52
-38.46
-38.63
-36.84
-33.25
-28.35
-22.84
-17.46
-12.84
-9.28
-6.72
-4.81
-3.15
-1.48
0.25
1.85
3.13
4.04
4.73
5.50
6.60
8.08
9.81
11.54
13.04
14.22
15.06
15.55
15.67
15.37
14.65
13.60
12.38
11.20
10.23
9.56
9.15
8.90
8.65
8.17
7.35
6.13
4.62
3.04
1.64
0.58
-0.19
-0.86
-1.72
-2.94
-4.56
-6.41
-8.25
-9.87
-11.26
-12.58
-14.06
-15.88
-18.01
-20.16
-21.88
-22.68
-22.20
-20.35
-17.28
-13.34
-9.01
-4.74
-0.94
2.12
4.35
5.83
6.79
7.47
8.05
8.58
9.05
9.45
9.82
10.28
10.96
11.89
12.95
13.93
14.61
14.84
14.68
14.25
13.74
13.28
12.89
12.47
11.84
10.86
9.51
7.95
6.44
5.27
4.59
4.29
4.10
3.70
2.93
1.85
0.71
-0.24
-0.93
-1.53
-2.33
-3.49
-5.03
-6.72
-8.34
-9.77
-11.07
-12.37
-13.75
-15.18
-16.56
-17.85
-19.12
-20.58
-22.42
-24.68
-27.17
-29.48
-31.04
-31.32
-30.00
-27.07
-22.88
-18.07
-13.34
-9.23
-5.91
-3.24
-0.91
1.31
3.46
5.40
6.99
8.23
9.30
10.48
11.89
13.44
14.85
15.88
16.48
16.86
17.34
18.15
19.24
20.30
21.00
21.10
20.64
19.81
18.87
17.99
17.21
16.50
15.82
15.19
14.63
14.15
13.71
13.26
12.78
12.30
11.86
11.44
10.99
10.42
9.66
8.72
7.67
6.68
5.89
5.39
5.17
5.10
5.00
4.69
4.03
3.01
1.67
0.15
-1.42
-2.90
-4.17
-5.17
-5.88
-6.37
-6.76
-7.22
-7.91
-8.90
-10.18
-11.67
-13.22
-14.71
-16.06
-17.29
-18.49
-19.82
-21.51
-23.72
-26.54
-29.83
-33.17
-35.96
-37.51
-37.24
-34.94
-30.88
-25.72
-20.33
-15.43
-11.41
-8.29
-5.80
-3.59
-1.45
0.72
2.89
4.99
6.98
8.80
10.44
11.86
13.08
14.10
15.00
15.83
16.67
17.58
18.60
19.67
20.62
21.24
21.32
20.80
19.82
18.65
17.61
16.87
16.39
16.00
15.51
14.85
14.08
13.35
12.75
12.27
11.82
11.31
10.72
10.15
9.75
9.57
9.53
9.35
8.73
7.53
5.88
4.17
2.88
2.34
2.56
3.22
3.83
3.97
3.38
2.09
0.27
-1.80
-3.87
-5.70
-7.18
-8.28
-9.11
-9.84
-10.69
-11.79
-13.13
-14.60
-15.97
-17.05
-17.74
-18.10
-18.33
-18.76
-19.80
-21.80
-24.86
-28.72
-32.67
-35.71
-36.91
-35.74
-32.30
-27.25
-21.56
-16.09
-11.38
-7.54
-4.47
-1.99
0.01
1.61
2.93
4.22
5.70
7.46
9.40
11.23
12.67
13.58
14.03
14.24
14.42
14.71
15.13
15.62
16.05
16.29
16.24
15.81
15.02
14.01
13.01
12.22
11.79
11.71
11.85
12.06
12.19
12.21
12.11
11.90
11.56
11.08
10.47
9.78
9.08
8.41
7.79
7.13
6.37
5.45
4.39
3.26
2.13
1.07
0.08
-0.86
-1.82
-2.90
-4.14
-5.52
-6.97
-8.40
-9.73
-10.97
-12.20
-13.50
-14.97
-16.65
-18.54
-20.65
-22.95
-25.31
-27.51
-29.16
-29.83
-29.14
-26.94
-23.39
-18.92
-14.11
-9.49
-5.49
-2.28
0.16
1.96
3.30
4.29
5.04
5.66
6.33
7.24
8.49
10.01
11.53
12.70
13.30
13.31
13.00
12.71
12.69
12.98
13.45
13.83
13.94
13.62
12.87
11.71
10.26
8.69
7.22
6.03
5.20
4.65
4.16
3.52
2.60
1.44
0.19
-1.00
-2.09
-3.16
-4.37
-5.83
-7.56
-9.49
-11.54
-13.69
-15.97
-18.36
-20.63
-22.34
-22.88
-21.80
-19.00
-14.90
-10.29
-6.00
-2.59
-0.19
1.40
2.56
3.55
4.47
5.26
5.89
6.41
6.98
7.75
8.75
9.84
10.79
11.42
11.67
11.65
11.56
11.50
11.47
11.30
10.75
9.72
8.30
6.72
5.27
4.14
3.31
2.61
1.84
0.87
-0.31
-1.60
-2.88
-4.08
-5.25
-6.50
-7.99
-9.85
-12.17
-14.93
-18.00
-21.10
-23.79
-25.54
-25.90
-24.60
-21.75
-17.74
-13.14
-8.48
-4.13
-0.25
3.09
5.84
7.89
9.17
9.70
9.68
9.44
9.33
9.61
10.35
11.44
12.66
13.82
14.82
15.62
16.26
16.67
16.79
16.47
15.63
14.29
12.65
10.95
9.41
8.12
7.03
5.97
4.77
3.30
1.53
-0.47
-2.62
-4.76
-6.76
-8.55
-10.13
-11.64
-13.32
-15.42
-18.12
-21.37
-24.98
-28.55
-31.60
-33.67
-34.42
-33.72
-31.62
-28.42
-24.49
-20.20
-15.81
-11.51
-7.36
-3.40
0.31
3.73
6.81
9.56
12.02
14.23
16.22
17.99
19.54
20.87
22.04
23.13
24.21
25.29
26.32
27.14
27.56
27.39
26.55
25.13
23.44
21.88
20.79
20.15
19.52
18.04
14.69
8.67
-0.21
-11.32
-23.19
-33.97
-41.95
-46.11
-46.38
-43.57
-39.00
-33.97
-29.46
-25.87
-23.08
-20.61
-17.78
-13.98
-8.80
-2.22
5.46
13.71
22.08
30.33
38.53
46.87
55.42
64.04
72.44
80.29
87.27
93.09
97.24
98.99
97.55
92.35
83.36
71.28
57.37
43.12
29.86
18.42
8.99
1.19
-5.86
-13.25
-22.02
-32.74
-45.36
-59.00
-72.30
-83.67
-91.86
-96.29
-97.04
-94.81
-90.45
-84.76
-78.33
-71.48
-64.39
-57.17
-49.92
-42.69
-35.52
-28.42
-21.48
-14.86
-8.78
-3.35
1.49
6.04
10.73
15.98
21.97
28.60
35.47
42.04
47.79
52.32
55.38
56.88
56.83
55.42
52.90
49.63
45.90
41.92
37.73
33.31
28.65
23.88
19.23
14.94
11.13
7.75
4.63
1.53
-1.66
-4.92
-8.06
-10.82
-12.95
-14.33
-15.00
-15.16
-15.15
-15.27
-15.75
-16.60
-17.67
-18.72
-19.55
-20.20
-20.88
-21.91
-23.57
-26.02
-29.26
-33.20
-37.60
-42.09
-46.13
-49.05
-50.24
-49.33
-46.45
-42.15
-37.30
-32.70
-28.75
-25.33
-21.90
-17.88
-12.93
-7.22
-1.34
4.01
8.36
11.65
14.27
16.72
19.32
22.00
24.39
26.01
26.64
26.40
25.71
25.00
24.47
23.95
23.05
21.41
18.95
16.01
13.17
11.00
9.80
9.43
9.43
9.23
8.41
6.87
4.84
2.72
0.89
-0.53
-1.71
-2.99
-4.72
-7.06
-9.94
-13.06
-16.06
-18.62
-20.47
-21.38
-21.13
-19.59
-16.74
-12.81
-8.24
-3.58
0.70
4.38
7.40
9.83
11.72
13.04
13.79
14.05
14.06
14.18
14.71
15.79
17.29
18.86
20.06
20.56
20.27
19.31
17.99
16.63
15.48
14.60
13.92
13.28
12.51
11.53
10.37
9.11
7.85
6.61
5.31
3.81
1.98
-0.26
-2.87
-5.77
-8.76
-11.64
-14.24
-16.50
-18.47
-20.37
-22.49
-25.15
-28.54
-32.65
-37.24
-41.84
-45.86
-48.69
-49.85
-49.09
-46.45
-42.33
-37.31
-32.07
-27.17
-22.93
-19.46
-16.69
-14.47
-12.65
-11.02
-9.45
-7.80
-6.03
-4.18
-2.42
-0.90
0.25
0.99
1.40
1.60
1.87
2.59
4.24
7.19
11.50
16.77
22.13
26.58
29.38
30.44
30.32
29.93
30.03
30.76
31.65
31.82
30.57
27.78
23.93
19.95
16.63
14.32
12.70
11.07
8.73
5.37
1.15
-3.48
-8.05
-12.39
-16.62
-20.91
-25.23
-29.20
-32.15
-33.39
-32.50
-29.40
-24.25
-17.35
-8.97
0.51
10.48
20.09
28.32
34.26
37.42
37.86
36.16
33.17
29.75
26.52
23.78
21.58
19.77
18.18
16.69
15.26
14.00
12.96
12.09
11.22
10.07
8.44
6.37
4.09
1.92
0.10
-1.37
-2.71
-4.15
-5.79
-7.47
-8.91
-9.87
-10.32
-10.44
-10.49
-10.56
-10.47
-9.97
-8.82
-7.14
-5.36
-4.16
-4.20
-5.95
-9.55
-14.84
-21.48
-29.02
-36.97
-44.82
-51.93
-57.60
-61.15
-62.06
-60.21
-55.87
-49.65
-42.27
-34.37
-26.37
-18.49
-10.98
-4.16
1.62
6.08
9.27
11.53
13.39
15.20
17.10
18.96
20.61
22.07
23.58
25.35
27.37
29.31
30.61
30.87
30.12
28.96
28.35
29.27
32.38
37.82
45.22
53.80
62.57
70.50
76.63
80.23
80.97
79.01
74.94
69.62
63.96
58.57
53.70
49.09
44.19
38.36
31.17
22.64
13.25
3.85
-4.71
-11.94
-17.91
-23.13
-28.27
-33.73
-39.35
-44.39
-47.89
-49.02
-47.48
-43.54
-37.87
-31.31
-24.57
-18.17
-12.49
-7.79
-4.28
-1.96
-0.62
0.13
0.82
1.82
3.26
5.03
6.90
8.63
10.10
11.31
12.39
13.48
14.70
16.11
17.62
19.03
20.01
20.18
19.23
17.04
13.73
9.68
5.40
1.45
-1.67
-3.67
-4.53
-4.52
-4.04
-3.55
-3.28
-3.18
-3.05
-2.67
-2.00
-1.23
-0.67
-0.59
-1.06
-2.02
-3.32
-4.84
-6.53
-8.37
-10.39
-12.60
-15.09
-18.02
-21.63
-26.07
-31.23
-36.64
-41.51
-44.95
-46.25
-45.18
-42.03
-37.52
-32.53
-27.73
-23.46
-19.71
-16.28
-12.98
-9.79
-6.83
-4.29
-2.26
-0.66
0.70
2.07
3.62
5.36
7.15
8.75
9.96
10.64
10.90
10.97
11.15
11.72
12.73
14.02
15.24
16.08
16.37
16.22
15.89
15.66
15.71
16.03
16.46
16.82
16.95
16.77
16.25
15.32
13.97
12.24
10.31
8.42
6.83
5.63
4.72
3.91
2.97
1.82
0.44
-1.07
-2.68
-4.37
-6.19
-8.14
-10.19
-12.21
-14.12
-15.86
-17.47
-19.04
-20.63
-22.32
-24.13
-26.11
-28.30
-30.64
-32.90
-34.66
-35.35
-34.45
-31.73
-27.39
-22.05
-16.52
-11.52
-7.43
-4.19
-1.48
1.06
3.61
6.08
8.23
9.86
11.03
11.97
13.04
14.45
16.19
17.99
19.48
20.43
20.81
20.80
20.64
20.49
20.38
20.20
19.83
19.19
18.30
17.25
16.18
15.23
14.49
14.00
13.65
13.24
12.53
11.39
9.87
8.20
6.62
5.27
4.13
2.98
1.71
0.30
-1.05
-2.10
-2.76
-3.18
-3.66
-4.55
-5.95
-7.73
-9.57
-11.16
-12.35
-13.22
-13.96
-14.81
-15.91
-17.35
-19.20
-21.50
-24.17
-26.92
-29.20
-30.28
-29.55
-26.81
-22.36
-16.93
-11.39
-6.49
-2.58
0.33
2.49
4.18
5.55
6.60
7.29
7.57
7.57
7.55
7.83
8.67
10.10
11.89
13.64
14.92
15.53
15.55
15.26
14.97
14.82
14.68
14.22
13.18
11.47
9.30
7.05
5.09
3.62
2.64
1.96
1.41
0.90
0.47
0.16
-0.06
-0.29
-0.73
-1.51
-2.65
-4.01
-5.34
-6.44
-7.26
-7.91
-8.64
-9.68
-11.10
-12.78
-14.43
-15.75
-16.59
-17.04
-17.38
-18.01
-19.29
-21.34
-23.97
-26.68
-28.78
-29.49
-28.23
-24.78
-19.36
-12.64
-5.48
1.25
7.03
11.70
15.46
18.70
21.65
24.38
26.72
28.43
29.34
29.47
29.03
28.27
27.37
26.36
25.14
23.59
21.63
19.30
16.73
14.02
11.28
8.55
5.85
3.17
0.46
-2.34
-5.31
-8.52
-12.04
-15.84
-19.77
-23.62
-27.11
-30.01
-32.23
-33.81
-34.98
-36.04
-37.31
-38.96
-40.97
-43.10
-44.90
-45.87
-45.54
-43.65
-40.19
-35.42
-29.80
-23.87
-18.04
-12.49
-7.17
-1.90
3.50
9.04
14.55
19.67
24.09
27.64
30.33
32.31
33.75
34.69
35.05
34.72
33.67
32.05
30.15
28.31
26.73
25.43
24.20
22.81
21.16
19.36
17.74
16.62
16.13
16.14
16.15
15.59
13.98
11.20
7.59
3.81
0.57
-1.69
-2.99
-3.79
-4.77
-6.50
-9.21
-12.73
-16.67
-20.62
-24.40
-28.04
-31.73
-35.63
-39.75
-43.99
-48.24
-52.45
-56.66
-60.94
-65.19
-69.13
-72.32
-74.36
-75.05
-74.34
-72.10
-67.82
-60.52
-49.14
-33.16
-13.20
8.77
29.99
47.77
60.52
68.12
71.74
73.22
74.32
76.31
79.91
85.45
92.98
102.30
112.75
123.29
132.62
139.49
143.02
142.83
138.95
131.59
120.94
107.12
90.36
71.17
50.51
29.64
9.97
-7.32
-21.44
-32.01
-39.10
-43.07
-44.62
-44.75
-44.55
-45.07
-46.99
-50.44
-55.03
-60.07
-64.86
-68.95
-72.26
-74.89
-76.82
-77.84
-77.47
-75.21
-70.87
-64.68
-57.35
-49.75
-42.60
-36.27
-30.75
-25.79
-21.21
-17.04
-13.49
-10.74
-8.80
-7.42
-6.16
-4.62
-2.60
-0.21
2.23
4.31
5.74
6.44
6.61
6.61
6.77
7.22
7.83
8.23
8.05
7.10
5.47
3.51
1.65
0.23
-0.60
-0.92
-0.95
-0.96
-1.25
-1.95
-3.11
-4.61
-6.26
-7.82
-9.17
-10.29
-11.32
-12.47
-13.99
-16.07
-18.74
-21.82
-24.83
-27.07
-27.84
-26.64
-23.42
-18.65
-13.16
-7.77
-3.05
0.83
4.10
7.06
9.87
12.50
14.72
16.35
17.39
18.05
18.65
19.44
20.47
21.57
22.48
23.02
23.11
22.89
22.57
22.31
22.21
22.21
22.17
21.92
21.26
20.12
18.53
16.68
14.87
13.35
12.27
11.56
10.98
10.24
9.13
7.66
6.00
4.42
3.11
2.05
1.07
-0.07
-1.55
-3.41
-5.53
-7.78
-10.02
-12.21
-14.39
-16.58
-18.87
-21.31
-24.04
-27.21
-30.83
-34.66
-38.11
-40.32
-40.46
-38.09
-33.37
-27.11
-20.40
-14.25
-9.20
-5.20
-1.78
1.60
5.23
9.05
12.70
15.78
18.09
19.70
20.87
21.90
22.97
24.07
25.09
25.92
26.57
27.11
27.60
28.03
28.25
28.06
27.32
26.08
24.55
23.08
21.96
21.33
21.17
21.29
21.43
21.36
20.95
20.18
19.12
17.89
16.57
15.24
13.94
12.68
11.49
10.41
9.50
8.80
8.33
8.06
7.89
7.67
7.27
6.59
5.62
4.42
3.09
1.73
0.43
-0.76
-1.81
-2.72
-3.56
-4.40
-5.32
-6.40
-7.60
-8.90
-10.25
-11.67
-13.24
-15.04
-17.09
-19.25
-21.30
-23.04
-24.42
-25.60
-26.90
-28.68
-31.18
-34.41
-38.14
-41.88
-44.96
-46.65
-46.30
-43.57
-38.56
-31.91
-24.59
-17.58
-11.63
-6.95
-3.36
-0.39
2.36
5.06
7.63
9.89
11.75
13.27
14.66
16.12
17.71
19.29
20.63
21.55
22.03
22.22
22.38
22.70
23.22
23.76
24.08
23.91
23.15
21.85
20.22
18.56
17.16
16.21
15.69
15.42
15.14
14.59
13.67
12.45
11.15
10.02
9.17
8.59
8.12
7.55
6.74
5.73
4.65
3.69
2.94
2.33
1.68
0.78
-0.47
-1.99
-3.56
-4.89
-5.77
-6.19
-6.32
-6.52
-7.12
-8.29
-9.98
-11.92
-13.78
-15.37
-16.72
-18.04
-19.63
-21.69
-24.24
-27.17
-30.24
-33.18
-35.60
-37.04
-37.01
-35.15
-31.42
-26.21
-20.23
-14.25
-8.92
-4.58
-1.28
1.10
2.78
3.95
4.86
5.72
6.71
7.93
9.35
10.85
12.30
13.62
14.73
15.61
16.20
16.50
16.54
16.42
16.28
16.19
16.11
15.89
15.39
14.54
13.40
12.18
11.08
10.27
9.79
9.58
9.46
9.25
8.85
8.25
7.54
6.84
6.25
5.72
5.15
4.39
3.36
2.13
0.86
-0.26
-1.14
-1.83
-2.49
-3.33
-4.44
-5.86
-7.49
-9.22
-10.91
-12.47
-13.83
-15.01
-16.13
-17.41
-19.10
-21.33
-24.07
-27.00
-29.63
-31.40
-31.85
-30.76
-28.16
-24.29
-19.58
-14.51
-9.60
-5.28
-1.86
0.64
2.39
3.66
4.72
5.70
6.64
7.50
8.28
9.03
9.85
10.80
11.83
12.83
13.65
14.21
14.51
14.62
14.58
14.41
14.05
13.48
12.73
11.88
11.09
10.48
10.11
9.96
9.93
9.90
9.76
9.45
8.95
8.27
7.43
6.45
5.37
4.27
3.25
2.42
1.81
1.34
0.87
0.19
-0.83
-2.22
-3.92
-5.78
-7.67
-9.47
-11.07
-12.41
-13.51
-14.52
-15.70
-17.36
-19.73
-22.78
-26.18
-29.28
-31.36
-31.79
-30.25
-26.83
-22.01
-16.53
-11.17
-6.56
-3.00
-0.44
1.38
2.78
3.96
4.96
5.73
6.24
6.59
6.97
7.59
8.54
9.71
10.87
11.84
12.58
13.23
13.96
14.84
15.74
16.36
16.39
15.69
14.35
12.72
11.19
10.07
9.46
9.28
9.32
9.33
9.11
8.55
7.67
6.62
5.63
4.91
4.52
4.30
3.97
3.25
2.06
0.56
-0.92
-2.08
-2.82
-3.26
-3.70
-4.40
-5.47
-6.83
-8.29
-9.70
-11.02
-12.36
-13.86
-15.62
-17.65
-19.85
-22.11
-24.44
-26.87
-29.43
-31.93
-33.95
-34.89
-34.21
-31.64
-27.38
-22.02
-16.32
-10.96
-6.37
-2.69
0.13
2.22
3.72
4.78
5.55
6.25
7.09
8.23
9.71
11.45
13.25
14.87
16.14
17.01
17.55
17.89
18.16
18.38
18.53
18.55
18.34
17.83
17.03
16.00
14.88
13.85
13.06
12.54
12.23
11.99
11.67
11.24
10.75
10.28
9.91
9.60
9.23
8.67
7.90
6.95
5.97
5.05
4.18
3.30
2.28
1.06
-0.33
-1.75
-3.04
-4.06
-4.88
-5.67
-6.70
-8.13
-9.94
-11.91
-13.70
-15.08
-16.01
-16.71
-17.52
-18.83
-20.87
-23.72
-27.26
-31.19
-35.01
-38.08
-39.73
-39.43
-36.96
-32.60
-26.99
-20.95
-15.21
-10.25
-6.19
-2.94
-0.29
1.96
3.92
5.67
7.27
8.76
10.16
11.50
12.83
14.18
15.58
17.01
18.38
19.61
20.59
21.26
21.63
21.71
21.55
21.14
20.46
19.50
18.31
17.03
15.87
15.04
14.65
14.64
14.81
14.86
14.54
13.74
12.53
11.17
9.97
9.16
8.77
8.63
8.42
7.87
6.85
5.44
3.87
2.39
1.12
0.01
-1.08
-2.30
-3.71
-5.29
-6.98
-8.76
-10.67
-12.74
-14.96
-17.20
-19.34
-21.33
-23.25
-25.28
-27.64
-30.43
-33.52
-36.55
-38.92
-40.02
-39.32
-36.64
-32.20
-26.62
-20.67
-15.01
-10.04
-5.81
-2.18
1.06
4.00
6.62
8.81
10.49
11.70
12.58
13.34
14.20
15.31
16.72
18.33
19.92
21.29
22.32
23.03
23.53
23.90
24.10
23.98
23.40
22.35
21.00
19.66
18.58
17.87
17.42
16.99
16.40
15.54
14.49
13.38
12.36
11.55
10.99
10.61
10.23
9.61
8.53
6.97
5.11
3.26
1.72
0.55
-0.44
-1.56
-3.05
-4.92
-6.95
-8.88
-10.56
-12.10
-13.72
-15.60
-17.79
-20.24
-22.88
-25.75
-28.93
-32.39
-35.73
-38.25
-39.08
-37.60
-33.76
-28.13
-21.78
-15.74
-10.70
-6.79
-3.70
-0.96
1.72
4.35
6.75
8.72
10.29
11.63
13.00
14.56
16.22
17.74
18.87
19.50
19.78
19.99
20.41
21.15
22.07
22.84
23.11
22.64
21.48
19.92
18.37
17.21
16.62
16.47
16.43
16.10
15.24
13.83
12.10
10.36
8.85
7.67
6.74
5.94
5.17
4.37
3.49
2.46
1.17
-0.43
-2.30
-4.29
-6.26
-8.11
-9.85
-11.50
-13.13
-14.71
-16.23
-17.71
-19.30
-21.29
-23.97
-27.46
-31.54
-35.64
-38.90
-40.49
-39.78
-36.65
-31.49
-25.15
-18.60
-12.67
-7.82
-4.12
-1.30
0.96
2.97
4.86
6.68
8.41
10.07
11.67
13.25
14.77
16.12
17.20
17.97
18.51
18.92
19.35
19.85
20.40
20.89
21.16
21.10
20.64
19.81
18.70
17.50
16.39
15.54
15.02
14.78
14.69
14.59
14.35
13.91
13.28
12.47
11.49
10.35
9.07
7.71
6.34
5.00
3.67
2.28
0.76
-0.98
-2.89
-4.85
-6.67
-8.18
-9.38
-10.41
-11.55
-13.04
-15.04
-17.54
-20.41
-23.52
-26.82
-30.32
-34.00
-37.66
-40.82
-42.78
-42.84
-40.62
-36.25
-30.38
-23.97
-17.95
-12.94
-9.08
-6.13
-3.62
-1.11
1.61
4.56
7.57
10.38
12.80
14.72
16.14
17.14
17.84
18.36
18.86
19.43
20.17
21.08
22.07
22.90
23.31
23.05
22.06
20.46
18.55
16.68
15.13
14.03
13.32
12.87
12.43
11.82
10.89
9.58
7.94
6.11
4.25
2.54
1.06
-0.21
-1.40
-2.71
-4.30
-6.27
-8.58
-11.06
-13.50
-15.76
-17.89
-20.10
-22.69
-25.86
-29.53
-33.26
-36.36
-38.11
-37.98
-35.84
-31.92
-26.71
-20.82
-14.81
-9.12
-4.04
0.33
4.02
7.18
9.95
12.52
14.98
17.36
19.66
21.77
23.60
25.04
26.03
26.58
26.81
26.87
26.94
27.14
27.47
27.80
27.94
27.66
26.79
25.29
23.25
20.90
18.56
16.53
14.96
13.79
12.83
11.80
10.47
8.76
6.76
4.62
2.52
0.58
-1.18
-2.83
-4.50
-6.30
-8.30
-10.43
-12.58
-14.55
-16.22
-17.60
-18.89
-20.41
-22.48
-25.25
-28.63
-32.26
-35.60
-38.01
-38.90
-37.87
-34.91
-30.34
-24.85
-19.20
-14.03
-9.63
-5.91
-2.58
0.61
3.75
6.70
9.30
11.45
13.24
14.82
16.32
17.72
18.91
19.76
20.20
20.30
20.22
20.14
20.20
20.48
20.94
21.41
21.70
21.61
21.08
20.18
19.14
18.17
17.41
16.85
16.42
16.04
15.66
15.31
15.00
14.68
14.26
13.69
12.93
12.06
11.14
10.23
9.30
8.26
7.05
5.63
4.07
2.48
0.98
-0.37
-1.52
-2.50
-3.37
-4.21
-5.09
-6.06
-7.13
-8.24
-9.36
-10.43
-11.43
-12.44
-13.54
-14.82
-16.31
-17.98
-19.70
-21.32
-22.74
-23.91
-24.89
-25.85
-26.99
-28.56
-30.77
-33.72
-37.30
-41.18
-44.70
-47.06
-47.43
-45.32
-40.79
-34.52
-27.58
-21.12
-15.88
-11.99
-9.04
-6.31
-3.21
0.46
4.49
8.38
11.68
14.22
16.12
17.65
19.05
20.40
21.57
22.42
22.90
23.13
23.35
23.75
24.38
25.10
25.61
25.71
25.30
24.48
23.44
22.37
21.34
20.31
19.20
17.97
16.69
15.50
14.53
13.81
13.28
12.80
12.29
11.72
11.11
10.51
9.90
9.25
8.55
7.85
7.25
6.83
6.57
6.32
5.94
5.30
4.46
3.53
2.67
1.88
1.12
0.31
-0.62
-1.61
-2.62
-3.59
-4.55
-5.64
-7.02
-8.81
-11.01
-13.48
-15.94
-18.09
-19.74
-20.84
-21.61
-22.34
-23.42
-25.15
-27.70
-31.04
-34.92
-38.88
-42.23
-44.25
-44.34
-42.25
-38.20
-32.84
-27.03
-21.54
-16.83
-12.94
-9.63
-6.54
-3.41
-0.13
3.23
6.45
9.29
11.51
12.98
13.67
13.71
13.34
12.90
12.69
12.88
13.49
14.35
15.25
15.98
16.43
16.56
16.41
16.03
15.55
15.11
14.89
14.94
15.16
15.30
15.08
14.36
13.23
11.99
10.98
10.39
10.21
10.21
10.12
9.79
9.24
8.61
8.00
7.43
6.81
6.02
4.98
3.71
2.29
0.80
-0.75
-2.38
-4.08
-5.79
-7.36
-8.63
-9.56
-10.29
-11.05
-12.10
-13.54
-15.31
-17.20
-19.03
-20.81
-22.74
-25.11
-28.11
-31.53
-34.80
-37.12
-37.76
-36.37
-33.10
-28.50
-23.24
-17.87
-12.74
-8.00
-3.76
-0.12
2.83
5.08
6.80
8.24
9.62
11.03
12.46
13.84
15.12
16.25
17.18
17.80
18.03
17.90
17.58
17.30
17.26
17.42
17.55
17.24
16.18
14.34
11.99
9.58
7.58
6.16
5.14
4.05
2.41
-0.12
-3.43
-7.12
-10.58
-13.28
-14.99
-15.82
-16.13
-16.41
-17.07
-18.31
-20.14
-22.27
-24.24
-25.48
-25.43
-23.67
-20.06
-14.83
-8.53
-1.89
4.34
9.62
13.72
16.77
19.07
20.91
22.45
23.65
24.36
24.56
24.37
24.08
23.96
24.16
24.61
25.08
25.35
25.30
24.87
24.13
23.13
21.89
20.45
18.81
16.99
15.01
12.87
10.65
8.49
6.59
5.10
4.02
3.15
2.14
0.63
-1.58
-4.46
-7.78
-11.23
-14.51
-17.32
-19.32
-20.12
-19.41
-17.08
-13.32
-8.65
-3.69
1.02
5.19
8.76
11.72
14.03
15.53
16.13
15.87
15.05
14.05
13.13
12.28
11.14
9.23
6.27
2.21
-2.66
-7.92
-13.24
-18.44
-23.40
-28.01
-32.08
-35.33
-37.54
-38.70
-39.05
-38.96
-38.77
-38.62
-38.47
-38.28
-38.16
-38.47
-39.72
-42.34
-46.32
-51.09
-55.67
-58.93
-60.06
-58.73
-55.20
-50.08
-44.05
-37.67
-31.21
-24.80
-18.37
-11.86
-5.29
1.22
7.43
13.05
17.84
21.69
24.65
26.92
28.70
30.14
31.32
32.22
32.89
33.44
33.97
34.54
35.09
35.41
35.24
34.43
33.02
31.21
29.30
27.50
25.96
24.62
23.38
22.05
20.51
18.66
16.51
14.17
11.86
9.76
7.93
6.23
4.37
2.03
-0.92
-4.33
-7.86
-11.14
-14.05
-16.69
-19.40
-22.55
-26.38
-30.98
-36.30
-42.03
-47.61
-52.17
-54.72
-54.45
-51.13
-45.27
-37.96
-30.45
-23.62
-17.70
-12.27
-6.65
-0.30
6.89
14.52
21.98
28.65
34.12
38.27
41.26
43.41
45.01
46.29
47.33
48.12
48.61
48.81
48.84
48.82
48.84
48.82
48.52
47.67
46.14
43.99
41.52
39.13
37.16
35.79
34.91
34.29
33.57
32.49
30.95
29.02
26.92
24.89
23.12
21.70
20.57
19.62
18.71
17.77
16.78
15.74
14.66
13.53
12.31
10.99
9.59
8.15
6.73
5.30
3.80
2.09
0.06
-2.33
-4.99
-7.75
-10.43
-12.84
-14.89
-16.56
-17.93
-19.17
-20.49
-22.11
-24.07
-26.33
-28.65
-30.81
-32.71
-34.48
-36.42
-38.92
-42.24
-46.44
-51.37
-56.62
-61.52
-65.27
-67.05
-66.29
-62.89
-57.32
-50.51
-43.52
-37.13
-31.59
-26.66
-21.75
-16.35
-10.20
-3.45
3.43
9.90
15.53
20.19
24.00
27.22
30.07
32.61
34.70
36.18
37.04
37.41
37.51
37.51
37.41
37.12
36.52
35.62
34.54
33.45
32.44
31.47
30.46
29.32
28.10
26.86
25.67
24.51
23.30
22.00
20.66
19.41
18.33
17.38
16.40
15.22
13.73
11.96
10.06
8.23
6.57
5.15
3.92
2.88
2.04
1.44
1.03
0.71
0.28
-0.45
-1.65
-3.34
-5.41
-7.63
-9.76
-11.57
-13.01
-14.17
-15.26
-16.51
-18.05
-19.85
-21.74
-23.55
-25.13
-26.50
-27.79
-29.19
-30.83
-32.83
-35.20
-37.89
-40.69
-43.14
-44.62
-44.45
-42.23
-37.99
-32.34
-26.21
-20.55
-15.92
-12.38
-9.52
-6.75
-3.66
-0.19
3.37
6.61
9.20
11.12
12.53
13.67
14.68
15.49
15.95
15.94
15.55
15.03
14.69
14.70
14.98
15.21
15.01
14.15
12.68
10.93
9.33
8.25
7.79
7.75
7.72
7.34
6.50
5.41
4.42
3.87
3.82
4.06
4.20
3.91
3.07
1.83
0.47
-0.79
-1.85
-2.82
-3.83
-4.97
-6.20
-7.43
-8.66
-10.00
-11.70
-13.94
-16.72
-19.62
-21.99
-23.11
-22.54
-20.25
-16.62
-12.24
-7.70
-3.42
0.37
3.54
6.03
7.86
9.11
9.95
10.56
11.05
11.46
11.79
12.09
12.46
13.01
13.70
14.36
14.78
14.80
14.52
14.17
14.03
14.14
14.33
14.25
13.61
12.37
10.74
9.06
7.62
6.57
5.81
5.20
4.59
3.89
3.17
2.51
2.01
1.67
1.46
1.22
0.81
0.17
-0.70
-1.69
-2.66
-3.46
-3.98
-4.02
-3.32
-1.54
1.60
6.05
11.40
16.94
21.90
25.82
28.57
30.39
31.53
32.16
32.26
31.80
30.89
29.87
29.25
29.48
30.73
32.85
35.45
38.06
40.34
42.27
44.03
46.00
48.47
51.57
55.09
58.55
61.37
63.00
63.15
61.81
59.16
55.45
50.87
45.45
39.02
31.25
21.70
9.88
-4.55
-21.68
-41.13
-62.07
-83.19
-103.10
-120.65
-135.26
-146.99
-156.35
-163.87
-169.79
-173.93
-175.88
-175.38
-172.62
-168.24
-163.17
-158.20
-153.74
-149.66
-145.51
-140.76
-135.05
-128.31
-120.78
-112.89
-105.05
-97.44
-89.90
-81.96
-73.01
-62.58
-50.62
-37.51
-23.98
-10.86
1.21
11.84
20.84
28.12
33.56
37.04
38.57
38.36
36.83
34.55
32.25
30.97
32.13
37.53
48.90
67.19
91.88
120.78
150.38
176.92
197.48
210.74
216.99
217.48
213.51
205.83
194.69
180.37
163.74
146.42
130.36
116.95
106.36
97.42
88.19
76.92
62.94
46.96
30.71
16.37
5.87
0.48
0.65
6.02
15.29
26.36
36.64
43.53
45.18
40.83
30.88
16.49
-1.02
-20.64
-41.73
-63.69
-85.66
-106.26
-123.79
-136.63
-143.88
-145.77
-143.53
-139.08
-134.29
-130.49
-128.19
-127.29
-127.46
-128.56
-130.77
-134.40
-139.41
-145.08
-150.04
-152.71
-151.93
-147.55
-140.58
-132.71
-125.64
-120.30
-116.60
-113.48
-109.53
-103.31
-93.66
-79.67
-60.62
-36.16
-6.49
27.37
63.66
100.14
134.68
165.51
191.40
211.54
225.36
232.58
233.33
228.35
218.92
206.58
192.71
178.17
163.30
148.12
132.68
117.27
102.45
88.90
77.19
67.57
59.80
53.38
47.64
42.09
36.58
31.46
27.34
24.86
24.38
25.75
28.38
31.40
33.91
35.24
35.06
33.36
30.33
26.37
21.92
17.45
13.35
9.79
6.59
3.19
-1.33
-7.95
-17.43
-30.05
-45.57
-63.39
-82.82
-103.25
-124.06
-144.28
-162.35
-176.03
-182.84
-180.80
-169.39
-150.10
-126.44
-103.16
-84.94
-74.98
-73.93
-79.79
-88.77
-96.72
-100.67
-99.58
-94.21
-86.29
-77.37
-68.22
-58.82
-48.78
-37.86
-26.07
-13.48
0.08
14.94
31.34
48.93
66.52
82.30
94.48
101.91
104.54
103.33
99.81
95.49
91.47
88.17
85.46
82.84
79.70
75.53
70.14
63.72
56.83
50.20
44.54
40.18
36.95
34.20
31.06
26.78
21.15
14.74
8.74
4.62
3.48
5.54
9.85
14.53
17.38
16.72
11.98
3.87
-6.04
-15.98
-24.70
-31.72
-37.26
-41.89
-46.20
-50.60
-55.27
-60.27
-65.48
-70.57
-75.00
-78.01
-78.88
-77.23
-73.13
-67.19
-60.30
-53.37
-47.08
-41.73
-37.33
-33.62
-30.29
-27.03
-23.67
-20.18
-16.72
-13.55
-10.95
-9.18
-8.45
-8.90
-10.55
-13.32
-16.90
-20.71
-23.96
-25.80
-25.56
-23.04
-18.55
-12.84
-6.86
-1.37
3.16
6.60
9.08
10.75
11.83
12.53
13.12
14.01
15.59
18.24
22.11
27.18
33.26
40.21
47.97
56.63
66.27
76.81
87.85
98.67
108.34
115.93
120.73
122.49
121.52
118.65
115.00
111.59
108.93
106.79
104.20
99.90
92.79
82.46
69.34
54.60
39.81
26.54
16.10
9.34
6.51
7.26
10.60
15.09
19.10
21.16
20.15
15.41
6.55
-6.51
-23.51
-43.63
-65.32
-86.47
-104.81
-118.48
-126.53
-129.03
-126.86
-121.26
-113.43
-104.32
-94.64
-85.01
-75.99
-67.99
-61.02
-54.63
-47.89
-39.75
-29.55
-17.41
-4.36
7.85
17.36
22.73
23.42
19.84
13.15
4.93
-3.26
-10.09
-14.60
-16.31
-15.27
-12.04
-7.54
-2.83
1.20
3.99
5.45
5.84
5.65
5.45
5.72
6.74
8.60
11.26
14.61
18.59
23.30
28.86
35.39
42.75
50.54
58.14
64.90
70.35
74.35
77.04
78.73
79.73
80.20
80.12
79.24
77.10
73.17
66.90
58.07
46.98
34.53
22.18
11.57
4.05
0.25
-0.11
1.87
4.61
6.48
6.16
2.85
-3.81
-13.74
-26.67
-42.20
-59.67
-78.04
-95.85
-111.36
-123.00
-129.82
-131.96
-130.50
-127.01
-122.99
-119.28
-115.96
-112.57
-108.51
-103.52
-97.78
-91.86
-86.46
-82.09
-78.93
-76.77
-75.13
-73.42
-71.17
-68.15
-64.36
-59.87
-54.75
-48.97
-42.50
-35.37
-27.72
-19.55
-10.64
-0.39
11.91
26.65
43.53
61.45
78.83
94.26
107.00
117.08
125.04
131.41
136.32
139.56
140.85
140.19
138.04
135.12
132.04
129.09
126.15
122.83
118.77
113.78
107.98
101.63
95.12
88.72
82.55
76.56
70.57
64.44
58.04
51.37
44.44
37.27
29.86
22.27
14.60
7.08
0.02
-6.37
-12.10
-17.44
-22.91
-29.07
-36.34
-44.81
-54.17
-63.74
-72.62
-79.91
-84.93
-87.42
-87.50
-85.64
-82.39
-78.33
-73.80
-68.95
-63.74
-58.05
-51.82
-45.17
-38.34
-31.71
-25.59
-20.15
-15.31
-10.81
-6.35
-1.73
3.06
7.80
12.22
16.13
19.47
22.34
24.89
27.17
29.05
30.28
30.59
29.87
28.25
26.13
24.00
22.28
21.17
20.61
20.32
19.93
19.09
17.57
15.24
12.09
8.25
4.02
-0.16
-3.90
-6.96
-9.34
-11.37
-13.46
-15.86
-18.58
-21.35
-23.78
-25.55
-26.52
-26.73
-26.35
-25.55
-24.55
-23.59
-22.94
-22.85
-23.50
-24.89
-26.94
-29.51
-32.47
-35.70
-39.09
-42.51
-45.84
-49.03
-52.03
-54.83
-57.35
-59.44
-60.91
-61.63
-61.54
-60.53
-58.37
-54.65
-48.94
-41.06
-31.37
-20.78
-10.52
-1.66
5.31
10.59
14.90
19.04
23.51
28.31
33.06
37.26
40.54
42.78
44.11
44.72
44.83
44.55
43.96
43.16
42.26
41.41
40.79
40.49
40.54
40.82
41.17
41.35
41.16
40.48
39.27
37.62
35.70
33.69
31.68
29.61
27.30
24.55
21.33
17.83
14.43
11.54
9.42
8.07
7.27
6.75
6.28
5.82
5.47
5.32
5.31
5.32
5.16
4.71
3.99
3.13
2.28
1.54
0.87
0.08
-1.08
-2.85
-5.36
-8.61
-12.47
-16.76
-21.30
-25.99
-30.75
-35.55
-40.41
-45.46
-50.85
-56.72
-63.11
-69.82
-76.46
-82.51
-87.51
-91.25
-93.77
-95.30
-96.01
-95.93
-94.97
-93.03
-90.27
-87.09
-84.09
-81.82
-80.61
-80.34
-80.49
-80.06
-77.65
-71.64
-60.48
-43.20
-19.97
7.67
37.04
64.99
88.87
107.31
120.35
129.13
135.05
139.02
141.21
141.22
138.57
133.30
126.05
117.91
109.90
102.52
95.62
88.59
80.83
72.25
63.40
55.30
48.90
44.59
42.03
40.34
38.56
36.13
33.16
30.21
27.89
26.37
25.16
23.30
19.76
13.96
6.03
-3.21
-12.53
-20.70
-26.77
-30.26
-31.20
-29.97
-27.23
-23.78
-20.33
-17.29
-14.69
-12.12
-9.01
-4.96
-0.04
5.16
9.73
12.87
14.22
13.97
12.67
10.96
9.25
7.66
6.11
4.52
2.92
1.42
0.19
-0.74
-1.39
-1.92
-2.40
-2.84
-3.19
-3.39
-3.46
-3.45
-3.47
-3.61
-3.98
-4.67
-5.80
-7.42
-9.50
-11.81
-13.97
-15.59
-16.38
-16.39
-15.90
-15.38
-15.24
-15.69
-16.71
-18.13
-19.70
-21.19
-22.31
-22.71
-22.02
-19.86
-16.08
-10.80
-4.50
2.14
8.40
13.72
17.75
20.38
21.68
21.78
20.88
19.21
17.09
14.90
13.00
11.68
11.01
10.82
10.79
10.59
9.97
8.87
7.36
5.49
3.24
0.53
-2.73
-6.45
-10.34
-14.00
-17.03
-19.22
-20.58
-21.28
-21.48
-21.27
-20.66
-19.66
-18.38
-17.10
-16.12
-15.74
-16.07
-17.00
-18.32
-19.75
-21.11
-22.36
-23.58
-24.86
-26.29
-27.86
-29.50
-31.06
-32.35
-33.12
-33.11
-32.06
-29.85
-26.51
-22.30
-17.57
-12.78
-8.29
-4.34
-1.04
1.57
3.48
4.74
5.37
5.48
5.25
4.93
4.78
4.99
5.61
6.55
7.60
8.53
9.19
9.51
9.53
9.32
8.95
8.53
8.11
7.75
7.44
7.17
6.85
6.41
5.86
5.21
4.54
3.83
3.03
2.07
0.91
-0.40
-1.77
-3.06
-4.18
-5.13
-5.95
-6.76
-7.66
-8.82
-10.46
-12.74
-15.71
-19.12
-22.44
-24.95
-25.99
-25.18
-22.56
-18.63
-14.09
-9.61
-5.65
-2.36
0.29
2.38
3.93
4.94
5.41
5.49
5.40
5.43
5.78
6.53
7.61
8.84
10.01
10.92
11.42
11.48
11.13
10.50
9.75
9.00
8.25
7.45
6.48
5.30
3.99
2.65
1.42
0.31
-0.77
-1.98
-3.37
-4.91
-6.44
-7.81
-9.00
-10.15
-11.51
-13.33
-15.69
-18.35
-20.92
-22.85
-23.67
-23.15
-21.27
-18.25
-14.41
-10.13
-5.76
-1.65
1.90
4.65
6.44
7.25
7.26
6.80
6.31
6.16
6.57
7.53
8.85
10.27
11.59
12.69
13.55
14.21
14.65
14.86
14.80
14.43
13.75
12.79
11.57
10.10
8.41
6.58
4.68
2.81
1.01
-0.76
-2.61
-4.59
-6.66
-8.69
-10.51
-12.04
-13.42
-15.00
-17.16
-20.19
-24.00
-28.08
-31.63
-33.81
-34.04
-32.17
-28.48
-23.57
-18.11
-12.70
-7.79
-3.60
-0.19
2.50
4.63
6.38
7.93
9.40
10.87
12.37
13.87
15.33
16.69
17.94
19.12
20.24
21.32
22.29
23.05
23.47
23.46
23.06
22.37
21.54
20.64
19.61
18.35
16.74
14.78
12.54
10.20
7.87
5.64
3.49
1.42
-0.50
-2.23
-3.70
-4.94
-6.03
-7.14
-8.47
-10.17
-12.35
-15.07
-18.34
-22.08
-26.17
-30.39
-34.34
-37.49
-39.22
-39.00
-36.58
-32.10
-26.11
-19.41
-12.85
-6.97
-1.96
2.30
6.06
9.47
12.49
14.97
16.81
18.06
18.99
19.91
21.05
22.46
24.01
25.52
26.86
28.02
28.98
29.73
30.20
30.30
30.05
29.52
28.82
27.98
27.01
25.91
24.76
23.77
23.19
23.11
23.40
23.75
23.83
23.47
22.78
22.03
21.43
20.94
20.34
19.28
17.62
15.47
13.21
11.32
10.09
9.53
9.37
9.27
8.95
8.33
7.42
6.29
4.98
3.48
1.78
-0.05
-1.86
-3.53
-5.02
-6.40
-7.83
-9.47
-11.36
-13.40
-15.44
-17.31
-18.95
-20.40
-21.81
-23.42
-25.48
-28.21
-31.70
-35.92
-40.57
-45.16
-49.03
-51.49
-51.97
-50.16
-46.14
-40.35
-33.54
-26.53
-20.09
-14.63
-10.19
-6.48
-3.06
0.41
4.05
7.65
10.93
13.62
15.65
17.17
18.45
19.69
20.97
22.22
23.32
24.20
24.84
25.28
25.54
25.63
25.48
25.04
24.29
23.33
22.32
21.48
20.94
20.75
20.75
20.71
20.41
19.72
18.67
17.44
16.23
15.20
14.36
13.59
12.74
11.69
10.41
9.05
7.79
6.86
6.38
6.30
6.31
6.02
5.10
3.43
1.25
-1.03
-2.98
-4.36
-5.22
-5.87
-6.66
-7.84
-9.47
-11.33
-13.19
-14.86
-16.32
-17.70
-19.21
-21.04
-23.31
-26.08
-29.32
-32.92
-36.63
-40.02
-42.49
-43.35
-42.08
-38.53
-33.07
-26.51
-19.89
-14.10
-9.58
-6.31
-3.84
-1.63
0.68
3.19
5.72
8.02
9.92
11.42
12.67
13.82
14.95
16.00
16.89
17.56
18.05
18.43
18.78
19.12
19.40
19.57
19.59
19.47
19.17
18.70
18.03
17.22
16.35
15.53
14.85
14.28
13.72
13.02
12.09
10.97
9.78
8.71
7.89
7.33
6.95
6.60
6.15
5.50
4.64
3.56
2.27
0.70
-1.23
-3.52
-6.06
-8.61
-10.82
-12.42
-13.39
-13.98
-14.70
-16.10
-18.50
-21.90
-25.86
-29.65
-32.49
-33.74
-33.06
-30.46
-26.29
-21.11
-15.62
-10.43
-5.99
-2.48
0.15
2.14
3.71
4.99
5.99
6.67
7.08
7.39
7.86
8.69
9.91
11.34
12.65
13.58
14.07
14.23
14.26
14.30
14.32
14.19
13.77
13.05
12.19
11.39
10.79
10.37
10.00
9.54
8.96
8.37
7.92
7.68
7.62
7.56
7.38
7.00
6.49
5.91
5.30
4.58
3.64
2.44
1.10
-0.19
-1.26
-2.11
-2.95
-4.08
-5.70
-7.75
-9.92
-11.78
-13.05
-13.72
-14.09
-14.59
-15.55
-17.12
-19.25
-21.79
-24.51
-27.11
-29.15
-30.12
-29.50
-27.07
-23.04
-18.02
-12.85
-8.26
-4.69
-2.16
-0.36
1.09
2.54
4.06
5.56
6.85
7.78
8.35
8.68
8.97
9.35
9.84
10.34
10.72
10.94
11.05
11.14
11.25
11.34
11.26
10.83
10.00
8.80
7.41
6.02
4.85
4.03
3.64
3.61
3.78
3.94
3.91
3.61
3.09
2.47
1.86
1.29
0.73
0.06
-0.80
-1.90
-3.23
-4.75
-6.38
-8.06
-9.70
-11.22
-12.56
-13.68
-14.62
-15.48
-16.39
-17.53
-19.07
-21.09
-23.50
-25.95
-27.88
-28.66
-27.81
-25.21
-21.22
-16.50
-11.83
-7.78
-4.59
-2.20
-0.35
1.18
2.51
3.68
4.65
5.49
6.29
7.22
8.36
9.70
11.09
12.36
13.34
13.97
14.30
14.37
14.29
14.06
13.66
13.08
12.29
11.39
10.42
9.47
8.51
7.54
6.54
5.60
4.85
4.37
4.10
3.91
3.58
2.98
2.10
1.10
0.14
-0.68
-1.38
-2.14
-3.08
-4.29
-5.70
-7.20
-8.68
-10.13
-11.54
-12.95
-14.36
-15.82
-17.45
-19.41
-21.88
-24.92
-28.36
-31.75
-34.48
-35.86
-35.42
-33.02
-28.94
-23.84
-18.50
-13.60
-9.55
-6.37
-3.81
-1.53
0.67
2.86
4.94
6.86
8.65
10.39
12.16
13.88
15.40
16.54
17.26
17.68
18.04
18.53
19.15
19.78
20.22
20.30
20.00
19.36
18.48
17.46
16.37
15.30
14.40
13.76
13.36
13.05
12.56
11.70
10.42
8.90
7.39
6.13
5.15
4.28
3.27
1.87
0.04
-2.09
-4.31
-6.38
-8.18
-9.76
-11.28
-12.92
-14.78
-16.89
-19.19
-21.68
-24.36
-27.26
-30.32
-33.20
-35.33
-36.03
-34.81
-31.63
-26.95
-21.57
-16.26
-11.51
-7.36
-3.60
0.02
3.50
6.66
9.27
11.23
12.69
13.97
15.40
17.13
19.11
21.08
22.73
23.81
24.23
24.14
23.78
23.42
23.26
23.25
23.21
22.87
22.09
20.96
19.77
18.85
18.38
18.27
18.21
17.84
16.97
15.66
14.18
12.88
11.97
11.46
11.12
10.66
9.88
8.75
7.48
6.31
5.46
4.96
4.73
4.60
4.43
4.14
3.68
2.99
2.02
0.77
-0.66
-2.11
-3.40
-4.46
-5.37
-6.36
-7.64
-9.32
-11.29
-13.36
-15.26
-16.84
-18.10
-19.22
-20.53
-22.34
-24.92
-28.31
-32.23
-36.10
-39.18
-40.68
-40.12
-37.44
-33.02
-27.56
-21.86
-16.54
-11.94
-8.15
-5.02
-2.34
0.07
2.31
4.38
6.26
7.93
9.42
10.79
12.08
13.32
14.47
15.49
16.37
17.18
18.03
19.00
20.06
21.06
21.78
21.98
21.54
20.47
18.94
17.25
15.68
14.50
13.82
13.59
13.66
13.82
13.91
13.87
13.71
13.48
13.19
12.76
12.14
11.31
10.37
9.48
8.75
8.18
7.61
6.85
5.76
4.34
2.81
1.40
0.34
-0.35
-0.82
-1.29
-1.97
-2.94
-4.17
-5.51
-6.88
-8.26
-9.70
-11.25
-12.91
-14.57
-16.09
-17.41
-18.66
-20.10
-22.08
-24.82
-28.27
-32.06
-35.59
-38.17
-39.21
-38.43
-35.88
-31.90
-27.06
-21.96
-17.12
-12.85
-9.22
-6.11
-3.27
-0.50
2.28
5.01
7.50
9.53
11.00
11.94
12.54
13.09
13.81
14.79
15.99
17.25
18.41
19.35
20.03
20.40
20.35
19.83
18.79
17.33
15.69
14.17
13.01
12.29
11.86
11.50
10.96
10.11
8.99
7.71
6.39
5.10
3.80
2.41
0.85
-0.87
-2.65
-4.38
-6.02
-7.63
-9.35
-11.27
-13.38
-15.59
-17.81
-20.05
-22.40
-24.90
-27.39
-29.43
-30.36
-29.65
-27.13
-23.08
-18.19
-13.22
-8.78
-5.11
-2.20
0.17
2.22
4.06
5.76
7.28
8.60
9.73
10.75
11.76
12.85
14.02
15.20
16.23
16.97
17.31
17.26
16.89
16.33
15.65
14.90
14.05
13.07
11.98
10.86
9.79
8.83
7.98
7.13
6.16
4.94
3.42
1.65
-0.25
-2.06
-3.57
-4.66
-5.39
-6.07
-7.10
-8.90
-11.67
-15.31
-19.40
-23.37
-26.65
-28.80
-29.55
-28.83
-26.68
-23.34
-19.15
-14.56
-10.04
-5.94
-2.40
0.59
3.14
5.35
7.21
8.66
9.66
10.26
10.64
11.07
11.75
12.74
13.90
14.95
15.64
15.85
15.69
15.40
15.15
14.94
14.58
13.81
12.50
10.78
8.97
7.39
6.21
5.33
4.44
3.24
1.56
-0.55
-2.87
-5.16
-7.29
-9.22
-11.00
-12.74
-14.55
-16.52
-18.74
-21.29
-24.13
-27.09
-29.82
-31.79
-32.41
-31.28
-28.33
-23.95
-18.87
-13.87
-9.50
-5.85
-2.62
0.58
3.96
7.36
10.31
12.31
13.18
13.20
13.01
13.25
14.32
16.12
18.20
19.99
21.09
21.42
21.24
20.88
20.58
20.34
19.95
19.20
18.03
16.62
15.31
14.37
13.87
13.56
13.04
11.94
10.15
7.87
5.49
3.43
1.85
0.64
-0.52
-1.99
-3.95
-6.37
-9.01
-11.61
-14.05
-16.34
-18.64
-21.13
-23.94
-27.13
-30.64
-34.25
-37.58
-40.10
-41.22
-40.52
-37.90
-33.69
-28.52
-23.11
-17.94
-13.16
-8.66
-4.18
0.35
4.79
8.84
12.21
14.78
16.68
18.19
19.61
21.14
22.78
24.44
25.94
27.13
27.95
28.42
28.67
28.80
28.89
28.94
28.85
28.48
27.74
26.65
25.36
24.07
22.92
22.02
21.36
20.86
20.43
19.94
19.32
18.53
17.63
16.69
15.79
14.94
14.06
13.03
11.79
10.40
9.00
7.73
6.66
5.74
4.85
3.93
3.01
2.22
1.69
1.45
1.38
1.26
0.87
0.08
-1.15
-2.74
-4.54
-6.36
-8.02
-9.40
-10.53
-11.57
-12.73
-14.21
-16.07
-18.23
-20.49
-22.63
-24.48
-26.03
-27.46
-29.11
-31.35
-34.51
-38.60
-43.31
-47.99
-51.76
-53.80
-53.59
-51.04
-46.52
-40.69
-34.28
-27.92
-22.01
-16.69
-11.91
-7.52
-3.35
0.70
4.69
8.55
12.18
15.42
18.14
20.26
21.82
22.97
23.89
24.77
25.72
26.69
27.61
28.37
28.87
29.09
29.01
28.63
27.97
27.06
26.01
24.99
24.16
23.57
23.18
22.79
22.20
21.21
19.75
17.89
15.83
13.82
12.14
10.96
10.32
10.13
10.10
9.99
9.58
8.83
7.83
6.73
5.64
4.56
3.45
2.28
1.08
-0.07
-1.02
-1.75
-2.31
-2.87
-3.60
-4.60
-5.91
-7.47
-9.20
-11.00
-12.80
-14.57
-16.28
-17.92
-19.56
-21.32
-23.39
-25.94
-29.08
-32.71
-36.50
-39.93
-42.43
-43.53
-42.96
-40.75
-37.16
-32.61
-27.58
-22.51
-17.75
-13.46
-9.69
-6.32
-3.13
0.05
3.30
6.55
9.63
12.34
14.55
16.26
17.54
18.53
19.31
19.94
20.42
20.83
21.22
21.66
22.17
22.66
22.98
22.94
22.45
21.52
20.33
19.07
17.95
17.07
16.42
15.86
15.26
14.53
13.66
12.72
11.81
11.00
10.29
9.63
8.94
8.19
7.36
6.41
5.34
4.12
2.76
1.31
-0.15
-1.53
-2.86
-4.24
-5.81
-7.65
-9.69
-11.71
-13.41
-14.61
-15.35
-15.93
-16.81
-18.42
-21.01
-24.52
-28.58
-32.56
-35.71
-37.35
-37.03
-34.66
-30.56
-25.37
-19.80
-14.50
-9.83
-5.90
-2.62
0.16
2.54
4.57
6.23
7.57
8.65
9.57
10.45
11.35
12.29
13.25
14.22
15.22
16.28
17.36
18.36
19.06
19.30
18.94
18.03
16.72
15.20
13.64
12.15
10.76
9.47
8.26
7.06
5.79
4.37
2.78
1.17
-0.22
-1.16
-1.56
-1.63
-1.76
-2.37
-3.69
-5.63
-7.80
-9.75
-11.17
-12.13
-12.96
-14.17
-16.14
-18.92
-22.26
-25.69
-28.59
-30.39
-30.64
-29.09
-25.76
-21.02
-15.51
-10.01
-5.22
-1.53
1.05
2.80
4.10
5.25
6.38
7.45
8.41
9.25
10.01
10.78
11.64
12.58
13.53
14.37
14.97
15.31
15.44
15.47
15.49
15.47
15.27
14.63
13.39
11.52
9.27
6.99
5.08
3.78
3.06
2.64
2.12
1.16
-0.36
-2.33
-4.43
-6.37
-8.04
-9.56
-11.20
-13.23
-15.76
-18.70
-21.86
-25.01
-27.98
-30.53
-32.33
-32.94
-31.94
-29.17
-24.88
-19.70
-14.45
-9.77
-5.96
-2.95
-0.47
1.73
3.74
5.47
6.79
7.64
8.10
8.38
8.72
9.32
10.28
11.58
13.08
14.54
15.73
16.46
16.67
16.40
15.80
15.03
14.15
13.16
12.00
10.67
9.23
7.88
6.80
6.11
5.76
5.58
5.27
4.54
3.19
1.21
-1.28
-4.06
-6.89
-9.58
-11.98
-14.01
-15.69
-17.16
-18.70
-20.70
-23.51
-27.24
-31.58
-35.79
-38.86
-39.89
-38.40
-34.55
-29.05
-22.87
-16.92
-11.72
-7.41
-3.74
-0.35
3.03
6.50
9.90
12.98
15.54
17.49
18.90
19.90
20.62
21.14
21.47
21.66
21.85
22.21
22.86
23.81
24.89
25.82
26.37
26.41
25.94
25.07
23.94
22.70
21.54
20.62
20.07
19.87
19.85
19.70
19.11
18.00
16.51
14.93
13.58
12.58
11.82
11.06
10.15
9.07
7.97
7.02
6.29
5.70
5.16
4.66
4.38
4.48
5.00
5.69
6.11
5.86
4.85
3.41
2.14
1.58
1.78
2.31
2.35
1.18
-1.43
-5.11
-9.08
-12.55
-15.11
-16.90
-18.41
-20.22
-22.71
-25.91
-29.67
-33.67
-37.58
-40.97
