1538755399.00
64.000000
-0.00
-0.00
-0.00
-0.00
-0.00
-0.00
-0.00
-0.00
-0.00
-0.00
0.00
0.01
0.01
-0.00
-0.03
-0.05
-0.05
0.00
0.13
0.36
0.66
1.01
1.37
1.72
2.06
2.40
2.79
3.24
3.80
4.42
5.06
5.66
6.20
6.68
7.15
7.68
8.31
9.14
10.09
11.04
11.88
12.56
13.14
13.76
14.65
15.96
17.91
20.32
22.90
25.38
27.58
29.57
31.68
34.32
37.81
42.54
48.15
54.10
59.83
64.97
69.58
74.14
79.34
85.71
93.76
103.00
112.62
121.73
129.77
136.75
143.30
150.75
157.77
166.64
177.95
191.79
206.97
220.57
228.25
225.36
208.53
176.87
132.76
80.05
23.07
-34.94
-92.44
-149.16
-205.23
-260.37
-313.74
-363.87
-409.83
-450.91
-486.50
-515.74
-537.23
-549.22
-549.96
-538.37
-514.21
-478.67
-433.88
-382.45
-327.02
-269.84
-212.63
-156.66
-102.95
-52.37
-5.90
35.58
71.43
101.35
125.50
144.38
158.69
169.15
176.37
180.75
182.57
182.07
179.51
175.23
169.65
163.18
156.15
148.81
141.30
133.69
126.02
118.33
110.69
103.16
95.80
88.68
81.83
75.25
68.95
62.95
57.25
51.86
46.78
42.03
37.59
33.45
29.61
26.07
22.81
19.83
17.11
14.67
12.48
10.54
8.83
7.35
6.07
4.97
4.05
3.27
2.62
2.09
1.65
1.30
1.01
0.79
0.61
0.48
0.37
0.29
0.22
0.18
0.15
0.15
0.16
0.19
0.19
0.18
0.13
0.05
-0.03
-0.08
-0.09
-0.06
0.02
0.08
0.11
0.09
0.04
-0.04
-0.08
-0.06
0.03
0.15
0.25
0.27
0.20
0.04
-0.13
-0.22
-0.14
0.10
0.42
0.68
0.74
0.51
0.08
-0.40
-0.67
-0.57
-0.06
0.65
1.24
1.41
0.98
0.08
-0.93
-1.58
-1.53
-0.72
0.53
1.64
2.06
1.53
0.21
-1.34
-2.41
-2.52
-1.56
0.09
1.72
2.64
2.22
0.02
-4.16
-9.99
-16.36
-21.37
-22.81
-19.19
-10.47
1.50
13.50
22.35
26.06
24.64
19.72
13.56
7.99
3.85
1.08
-0.76
-1.95
-2.50
-2.33
-1.53
-0.48
0.29
0.35
-0.42
-1.82
-3.33
-4.51
-5.04
-4.94
-4.45
-4.03
-4.09
-4.85
-6.31
-8.06
-9.49
-9.86
-8.61
-5.59
-1.25
3.53
7.76
10.65
12.09
12.41
12.20
11.91
11.62
11.04
9.83
7.89
5.50
3.21
1.56
0.79
0.75
0.99
1.04
0.74
0.26
0.00
0.35
1.33
2.62
3.66
3.93
3.22
1.62
-0.53
-2.77
-4.83
-6.67
-8.41
-10.22
-12.25
-14.64
-17.54
-21.05
-25.17
-29.59
-33.69
-36.57
-37.39
-35.63
-31.26
-24.81
-17.04
-8.83
-0.90
6.26
12.37
17.35
21.23
24.11
26.11
27.36
27.93
27.86
27.13
25.86
24.29
22.82
21.85
21.51
21.64
21.89
21.90
21.53
20.88
20.14
19.35
18.32
16.65
14.03
10.45
6.27
2.06
-1.68
-4.75
-7.24
-9.49
-11.86
-14.66
-18.11
-22.27
-27.12
-32.26
-37.04
-40.49
-41.63
-39.75
-34.84
-27.57
-19.17
-10.92
-3.65
2.45
7.72
12.64
17.32
21.37
24.11
24.99
24.04
21.94
19.73
18.33
18.06
18.61
19.25
19.37
18.73
17.52
16.19
15.12
14.41
13.89
13.18
11.98
10.13
7.69
4.85
1.88
-1.05
-3.85
-6.58
-9.44
-12.69
-16.63
-21.43
-27.05
-33.07
-38.69
-42.81
-44.40
-42.71
-37.71
-30.08
-21.02
-11.90
-3.73
3.04
8.42
12.71
16.11
18.65
20.19
20.67
20.23
19.27
18.28
17.67
17.57
17.84
18.19
18.29
17.97
17.21
16.14
14.95
13.79
12.75
11.76
10.65
9.13
7.00
4.16
0.77
-2.81
-6.17
-9.04
-11.51
-13.97
-16.97
-20.93
-25.87
-31.42
-36.87
-41.41
-44.34
-45.14
-43.53
-39.53
-33.44
-25.83
-17.49
-9.24
-1.72
4.77
10.20
14.71
18.38
21.15
22.90
23.58
23.42
22.84
22.34
22.23
22.55
23.04
23.40
23.41
23.13
22.82
22.71
22.88
23.11
23.05
22.29
20.63
18.06
14.78
11.09
7.26
3.55
0.16
-2.77
-5.25
-7.45
-9.70
-12.44
-16.02
-20.65
-26.19
-32.22
-37.97
-42.45
-44.68
-43.92
-40.02
-33.45
-25.25
-16.59
-8.46
-1.40
4.47
9.30
13.27
16.47
18.94
20.77
22.09
23.01
23.57
23.80
23.66
23.20
22.50
21.63
20.57
19.25
17.65
15.85
14.10
12.73
11.89
11.46
11.03
9.97
7.78
4.25
-0.34
-5.29
-9.73
-12.99
-14.87
-15.67
-16.15
-17.09
-19.10
-22.33
-26.43
-30.65
-34.02
-35.71
-35.11
-32.12
-27.01
-20.33
-12.76
-4.89
2.73
9.56
15.02
18.53
19.68
18.61
15.97
12.85
10.34
9.06
9.04
9.80
10.65
11.11
11.06
10.75
10.53
10.67
11.13
11.69
12.00
11.77
10.83
9.21
7.06
4.60
2.10
-0.27
-2.50
-4.71
-7.18
-10.19
-13.93
-18.40
-23.30
-28.07
-31.94
-34.07
-33.79
-30.77
-25.24
-17.87
-9.69
-1.79
4.99
10.23
13.93
16.43
18.16
19.44
20.34
20.74
20.45
19.39
17.74
15.84
14.03
12.51
11.29
10.31
9.53
9.00
8.77
8.81
8.83
8.46
7.39
5.54
3.10
0.38
-2.42
-5.20
-8.09
-11.26
-14.80
-18.74
-22.99
-27.29
-31.16
-33.93
-34.77
-33.12
-28.84
-22.42
-14.82
-7.11
-0.17
5.58
10.11
13.59
16.16
17.87
18.74
18.84
18.41
17.84
17.45
17.37
17.47
17.37
16.72
15.40
13.61
11.79
10.41
9.73
9.64
9.73
9.45
8.35
6.23
3.27
-0.22
-3.85
-7.40
-10.78
-14.04
-17.25
-20.42
-23.61
-26.84
-30.12
-33.26
-35.72
-36.70
-35.35
-31.24
-24.51
-16.09
-7.23
0.91
7.64
12.79
16.61
19.38
21.22
22.16
22.10
21.06
19.28
17.17
15.18
13.66
12.77
12.43
12.38
12.35
12.20
11.97
11.73
11.49
11.06
10.10
8.28
5.55
2.23
-1.06
-3.70
-5.39
-6.24
-6.80
-7.77
-9.70
-12.79
-16.78
-21.08
-24.93
-27.60
-28.49
-27.25
-23.80
-18.41
-11.61
-4.15
3.18
9.69
14.96
18.76
21.07
21.94
21.42
19.68
17.01
13.93
11.01
8.80
7.56
7.14
7.12
6.95
6.28
5.06
3.51
2.00
0.69
-0.47
-1.74
-3.40
-5.61
-8.25
-11.05
-13.76
-16.28
-18.76
-21.50
-24.74
-28.44
-32.13
-34.97
-36.06
-34.73
-30.83
-24.72
-17.16
-9.00
-0.97
6.36
12.61
17.50
20.83
22.60
23.00
22.37
21.05
19.30
17.26
15.10
13.11
11.58
10.77
10.58
10.65
10.42
9.44
7.60
5.19
2.79
0.86
-0.43
-1.37
-2.54
-4.60
-8.00
-12.81
-18.67
-24.87
-30.47
-34.49
-36.17
-35.08
-31.27
-25.20
-17.69
-9.71
-2.10
4.52
9.86
13.88
16.73
18.55
19.52
19.77
19.36
18.33
16.74
14.73
12.50
10.35
8.51
7.08
6.04
5.19
4.35
3.42
2.42
1.44
0.51
-0.52
-1.87
-3.75
-6.22
-9.18
-12.50
-16.18
-20.30
-24.84
-29.49
-33.41
-35.47
-34.70
-30.72
-23.98
-15.58
-6.87
1.11
7.85
13.32
17.65
20.95
23.25
24.46
24.61
23.79
22.19
19.99
17.36
14.56
11.85
9.63
8.14
7.44
7.35
7.55
7.62
7.26
6.28
4.58
2.20
-0.72
-3.89
-6.96
-9.61
-11.77
-13.69
-15.87
-18.84
-22.78
-27.32
-31.56
-34.34
-34.73
-32.25
-27.02
-19.68
-11.10
-2.23
6.12
13.30
18.87
22.55
24.33
24.40
23.16
21.09
18.70
16.38
14.43
12.93
11.83
10.95
10.09
9.12
8.02
6.86
5.69
4.52
3.27
1.87
0.24
-1.58
-3.58
-5.79
-8.32
-11.30
-14.82
-18.83
-23.14
-27.48
-31.48
-34.67
-36.47
-36.27
-33.53
-28.04
-20.09
-10.52
-0.55
8.47
15.51
20.11
22.43
23.08
22.81
22.16
21.29
20.10
18.40
16.23
13.82
11.58
9.77
8.44
7.35
6.16
4.60
2.55
0.08
-2.68
-5.59
-8.63
-11.82
-15.24
-18.96
-23.00
-27.40
-32.24
-37.62
-43.60
-50.07
-56.63
-62.52
-66.74
-68.31
-66.65
-61.82
-54.56
-46.05
-37.57
-30.11
-24.20
-19.91
-16.98
-15.12
-14.03
-13.54
-13.50
-13.60
-13.34
-12.07
-9.15
-4.16
2.89
11.58
21.20
30.89
39.93
47.70
53.77
57.84
59.72
59.38
56.98
52.90
47.65
41.74
35.65
29.59
23.54
17.29
10.48
2.88
-5.40
-13.69
-20.85
-25.47
-26.43
-23.32
-16.62
-7.61
2.14
11.28
19.06
25.36
30.48
34.68
38.03
40.26
41.08
40.35
38.32
35.62
32.92
30.71
29.11
27.85
26.58
25.05
23.32
21.61
20.14
18.91
17.72
16.30
14.48
12.19
9.46
6.26
2.57
-1.63
-6.16
-10.67
-14.69
-18.03
-20.84
-23.69
-27.28
-32.08
-37.99
-44.27
-49.69
-52.83
-52.59
-48.52
-40.90
-30.73
-19.27
-7.74
2.97
12.39
20.33
26.67
31.28
34.04
34.97
34.30
32.54
30.36
28.39
27.13
26.73
27.03
27.52
27.61
26.85
25.16
22.95
20.87
19.45
18.75
18.33
17.43
15.38
11.97
7.46
2.41
-2.62
-7.28
-11.41
-15.03
-18.23
-21.16
-24.12
-27.48
-31.57
-36.44
-41.60
-46.12
-48.79
-48.49
-44.61
-37.23
-27.18
-15.73
-4.35
5.78
13.89
19.77
23.60
25.81
26.87
27.13
26.82
26.07
25.00
23.71
22.35
21.09
20.01
19.13
18.37
17.65
16.87
16.00
15.00
13.79
12.19
9.98
7.01
3.29
-0.92
-5.24
-9.22
-12.59
-15.36
-17.82
-20.50
-23.89
-28.20
-33.28
-38.43
-42.57
-44.58
-43.59
-39.29
-32.03
-22.67
-12.30
-1.98
7.45
15.47
21.75
26.19
28.83
29.86
29.63
28.52
26.92
25.11
23.23
21.41
19.68
18.14
16.82
15.70
14.68
13.63
12.37
10.79
8.72
6.12
2.92
-0.74
-4.58
-8.31
-11.69
-14.76
-17.81
-21.33
-25.74
-31.21
-37.47
-43.87
-49.45
-53.20
-54.27
-52.12
-46.72
-38.46
-28.17
-16.91
-5.80
4.25
12.69
19.39
24.54
28.47
31.43
33.52
34.68
34.87
34.13
32.68
30.80
28.74
26.63
24.48
22.36
20.39
18.85
17.97
17.75
17.88
17.75
16.68
14.17
10.12
4.84
-1.07
-6.94
-12.22
-16.66
-20.36
-23.71
-27.21
-31.34
-36.33
-42.04
-47.89
-52.89
-55.89
-55.83
-52.07
-44.65
-34.30
-22.24
-9.85
1.67
11.58
19.58
25.72
30.17
33.08
34.61
34.96
34.47
33.57
32.65
31.88
31.25
30.61
29.84
28.92
27.92
26.92
25.92
24.86
23.68
22.37
21.00
19.55
17.87
15.65
12.53
8.30
3.13
-2.51
-7.99
-12.79
-16.71
-19.88
-22.64
-25.39
-28.44
-31.99
-36.20
-41.11
-46.59
-52.12
-56.80
-59.42
-58.87
-54.54
-46.54
-35.70
-23.32
-10.71
1.08
11.42
19.97
26.64
31.41
34.41
35.85
36.14
35.76
35.15
34.64
34.30
34.04
33.69
33.10
32.23
31.18
30.13
29.17
28.26
27.19
25.73
23.70
21.12
18.18
15.08
11.90
8.56
4.86
0.71
-3.78
-8.30
-12.49
-16.11
-19.12
-21.70
-24.14
-26.72
-29.71
-33.39
-37.95
-43.43
-49.43
-55.02
-58.88
-59.64
-56.43
-49.25
-39.01
-27.22
-15.43
-4.75
4.37
12.02
18.45
23.75
27.82
30.39
31.35
30.92
29.66
28.23
27.20
26.84
27.07
27.52
27.72
27.33
26.24
24.62
22.79
21.15
19.86
18.85
17.75
16.10
13.55
10.09
6.00
1.73
-2.29
-5.94
-9.29
-12.55
-15.86
-19.27
-22.72
-26.24
-30.01
-34.35
-39.47
-45.27
-51.07
-55.71
-57.80
-56.22
-50.59
-41.45
-30.07
-18.05
-6.75
3.00
10.99
17.41
22.56
26.65
29.66
31.50
32.05
31.40
29.80
27.75
25.82
24.49
23.96
24.07
24.36
24.32
23.56
22.06
20.11
18.10
16.30
14.69
12.90
10.56
7.37
3.32
-1.35
-6.28
-11.14
-15.75
-20.06
-24.18
-28.22
-32.30
-36.53
-40.99
-45.80
-51.03
-56.52
-61.74
-65.75
-67.40
-65.66
-60.04
-50.81
-39.04
-26.17
-13.59
-2.22
7.61
16.02
23.16
29.09
33.62
36.55
37.88
37.88
37.09
36.04
35.07
34.31
33.69
33.14
32.59
32.05
31.45
30.64
29.43
27.66
25.26
22.30
18.98
15.44
11.77
7.94
3.83
-0.68
-5.64
-10.95
-16.37
-21.58
-26.26
-30.35
-34.08
-37.97
-42.67
-48.64
-55.86
-63.65
-70.65
-75.20
-75.78
-71.59
-62.76
-50.42
-36.19
-21.71
-8.18
3.81
14.18
23.09
30.61
36.60
40.81
43.05
43.37
42.19
40.22
38.23
36.87
36.37
36.53
36.84
36.81
36.12
34.80
33.13
31.40
29.76
28.11
26.18
23.67
20.38
16.25
11.40
6.00
0.21
-5.81
-11.92
-17.93
-23.65
-28.98
-33.99
-39.00
-44.43
-50.60
-57.33
-63.82
-68.77
-70.68
-68.40
-61.49
-50.39
-36.28
-20.77
-5.46
8.32
19.71
28.38
34.37
38.01
39.74
40.10
39.55
38.55
37.44
36.50
35.86
35.46
35.09
34.41
33.19
31.39
29.23
27.07
25.15
23.40
21.37
18.48
14.26
8.74
2.43
-3.90
-9.60
-14.48
-18.83
-23.26
-28.35
-34.43
-41.45
-48.99
-56.26
-62.24
-65.76
-65.75
-61.56
-53.19
-41.35
-27.27
-12.46
1.73
14.30
24.71
32.84
38.86
43.11
45.87
47.36
47.68
46.94
45.31
43.15
40.87
38.79
37.05
35.48
33.79
31.70
29.15
26.32
23.52
20.96
18.51
15.76
12.09
7.06
0.69
-6.51
-13.73
-20.27
-25.82
-30.65
-35.38
-40.66
-46.95
-54.28
-62.22
-69.93
-76.24
-79.77
-79.29
-74.05
-64.07
-50.19
-33.90
-16.86
-0.54
14.12
26.66
37.00
45.20
51.32
55.39
57.40
57.54
56.18
53.98
51.68
49.88
48.83
48.29
47.70
46.50
44.46
41.75
38.88
36.28
34.08
31.97
29.37
25.71
20.71
14.47
7.41
0.07
-7.02
-13.52
-19.33
-24.56
-29.51
-34.67
-40.54
-47.48
-55.43
-63.64
-70.83
-75.47
-76.27
-72.59
-64.63
-53.28
-39.72
-25.12
-10.44
3.63
16.50
27.67
36.70
43.30
47.49
49.48
49.76
48.99
47.82
46.82
46.29
46.18
46.15
45.70
44.45
42.30
39.56
36.78
34.44
32.71
31.26
29.43
26.50
22.03
16.04
9.04
1.74
-5.15
-11.19
-16.30
-20.70
-24.79
-29.05
-33.95
-39.78
-46.57
-53.80
-60.41
-64.95
-65.96
-62.47
-54.35
-42.45
-28.28
-13.64
-0.04
11.59
21.02
28.49
34.35
38.83
41.88
43.36
43.20
41.73
39.56
37.46
36.03
35.43
35.35
35.18
34.37
32.65
30.17
27.33
24.50
21.82
19.17
16.18
12.52
8.04
2.86
-2.71
-8.29
-13.58
-18.49
-23.08
-27.45
-31.69
-35.95
-40.47
-45.55
-51.38
-57.76
-63.79
-68.03
-68.81
-64.95
-56.24
-43.63
-28.87
-13.87
-0.17
11.49
20.96
28.43
34.18
38.39
41.14
42.64
43.15
43.08
42.74
42.25
41.49
40.28
38.52
36.30
34.01
32.07
30.80
30.17
29.75
28.90
27.11
24.14
20.03
15.07
9.61
4.03
-1.42
-6.65
-11.83
-16.95
-22.04
-27.10
-32.17
-37.22
-42.19
-47.25
-52.76
-59.04
-65.29
-70.07
-71.65
-68.72
-60.96
-49.26
-35.59
-22.44
-11.91
-3.97
2.47
8.70
15.30
22.05
28.47
34.38
40.17
46.71
56.02
69.10
85.06
101.39
115.58
126.63
135.41
143.63
144.28
131.85
104.72
67.11
26.48
-10.28
-38.62
-56.93
-66.33
-69.82
-69.55
-66.91
-62.47
-56.62
-49.86
-42.91
-36.73
-32.36
-30.47
-30.10
-29.77
-28.13
-24.61
-19.42
-13.28
-7.21
-2.52
-0.08
0.40
-0.16
-0.58
-0.01
1.85
4.66
7.42
8.56
6.86
2.08
-5.25
-13.68
-21.60
-28.01
-32.58
-35.97
-39.72
-44.93
-52.21
-61.82
-73.80
-87.92
-103.08
-116.59
-122.50
-117.55
-99.89
-71.29
-37.21
-4.94
19.36
33.00
37.22
35.76
32.08
28.41
25.03
21.40
17.40
13.93
12.52
14.06
17.97
21.96
23.52
20.65
13.25
3.21
-6.37
-12.50
-13.69
-10.22
-4.12
2.19
6.84
9.17
9.62
9.21
8.87
8.98
9.39
9.57
9.07
7.76
5.86
4.01
2.77
2.41
2.66
2.88
2.28
0.41
-2.64
-6.23
-9.56
-12.07
-13.80
-15.26
-17.12
-19.78
-23.24
-27.16
-31.08
-34.44
-36.98
-38.73
-40.06
-41.59
-44.01
-47.92
-53.48
-60.16
-66.55
-70.81
-71.36
-67.42
-59.31
-48.22
-35.62
-22.46
-10.49
-0.52
7.37
13.52
18.27
21.73
23.79
24.34
23.43
21.33
18.68
16.04
13.71
11.76
10.19
9.05
8.56
8.92
10.16
12.12
14.34
16.14
16.89
16.30
14.46
11.79
8.75
5.59
2.34
-1.20
-5.33
-10.08
-15.25
-20.41
-25.15
-29.31
-33.07
-36.83
-41.09
-46.36
-52.94
-60.78
-69.22
-76.90
-81.86
-82.04
-75.92
-63.23
-45.21
-24.23
-3.06
16.05
31.89
44.35
53.89
61.14
66.46
69.87
71.33
70.90
69.00
66.23
63.33
60.92
59.38
58.79
58.93
59.43
59.87
59.91
59.39
58.30
56.72
54.67
52.09
48.82
44.71
39.66
33.75
27.12
19.98
12.57
5.13
-2.04
-8.69
-14.72
-20.37
-26.14
-32.79
-40.89
-50.57
-61.17
-71.28
-78.97
-82.27
-79.74
-70.89
-56.43
-38.03
-17.99
1.40
18.41
32.07
42.20
49.10
53.13
54.56
53.61
50.72
46.59
42.18
38.45
35.99
34.83
34.59
34.75
34.95
35.08
35.21
35.33
35.21
34.38
32.36
28.90
24.05
18.15
11.74
5.35
-0.54
-5.68
-10.15
-14.38
-19.13
-25.19
-33.04
-42.42
-52.16
-60.29
-64.67
-63.64
-56.57
-44.10
-27.84
-9.87
7.78
23.55
36.45
45.96
52.04
54.96
55.33
53.90
51.36
48.25
44.78
41.04
37.14
33.34
30.01
27.48
25.82
24.87
24.29
23.71
22.83
21.34
18.91
15.19
9.97
3.37
-4.11
-11.74
-18.86
-25.14
-30.79
-36.47
-43.00
-50.86
-59.79
-68.58
-75.20
-77.35
-73.17
-62.02
-44.80
-23.76
-1.85
18.20
34.59
46.72
54.91
59.89
62.32
62.58
60.94
57.73
53.55
49.14
45.17
42.08
39.92
38.54
37.70
37.19
36.86
36.46
35.66
34.02
31.21
27.15
22.06
16.35
10.49
4.68
-1.29
-7.95
-15.98
-25.79
-37.12
-48.83
-59.11
-65.89
-67.51
-63.27
-53.61
-39.92
-24.08
-7.94
6.99
19.76
29.87
37.15
41.63
43.50
43.05
40.68
36.98
32.67
28.53
25.25
23.17
22.21
21.86
21.39
20.16
17.82
14.47
10.51
6.45
2.69
-0.69
-3.90
-7.45
-11.99
-18.16
-26.41
-36.71
-48.27
-59.52
-68.28
-72.32
-70.18
-61.65
-47.92
-31.22
-14.02
1.68
14.79
25.11
32.86
38.35
41.73
43.02
42.29
39.82
36.11
31.79
27.49
23.70
20.66
18.41
16.80
15.53
14.30
12.83
10.95
8.63
5.90
2.76
-0.84
-5.08
-10.20
-16.41
-23.91
-32.68
-42.31
-51.88
-60.00
-65.04
-65.53
-60.62
-50.41
-35.91
-18.87
-1.24
15.26
29.43
40.67
48.78
53.79
55.84
55.21
52.47
48.48
44.28
40.81
38.55
37.34
36.52
35.21
32.84
29.33
25.09
20.67
16.44
12.41
8.18
3.25
-2.93
-10.73
-20.33
-31.56
-43.69
-55.39
-64.78
-69.92
-69.41
-62.94
-51.43
-36.71
-20.91
-5.80
7.47
18.36
26.67
32.33
35.29
35.67
33.80
30.29
25.90
21.33
17.14
13.61
10.70
8.17
5.66
2.92
-0.17
-3.42
-6.62
-9.64
-12.72
-16.35
-21.13
-27.49
-35.39
-44.30
-53.25
-61.06
-66.48
-68.44
-66.19
-59.52
-48.83
-35.15
-19.87
-4.40
10.15
23.13
34.24
43.24
49.83
53.61
54.32
52.12
47.74
42.28
36.94
32.56
29.39
27.09
25.03
22.60
19.50
15.81
11.88
8.02
4.33
0.62
-3.50
-8.41
-14.35
-21.36
-29.42
-38.53
-48.58
-59.03
-68.75
-75.96
-78.71
-75.52
-66.04
-51.20
-32.92
-13.39
5.46
22.39
36.63
47.69
55.17
58.77
58.57
55.20
49.84
43.92
38.71
34.92
32.56
31.12
29.89
28.37
26.49
24.48
22.68
21.12
19.43
16.90
12.87
7.06
-0.28
-8.39
-16.37
-23.49
-29.47
-34.45
-38.93
-43.62
-49.22
-56.21
-64.58
-73.58
-81.64
-86.72
-86.84
-80.82
-68.75
-52.00
-32.78
-13.39
4.38
19.58
31.94
41.51
48.34
52.38
53.64
52.39
49.33
45.51
42.03
39.74
38.96
39.51
40.82
42.28
43.33
43.63
43.03
41.56
39.27
36.23
32.45
27.89
22.52
16.37
9.63
2.58
-4.52
-11.52
-18.48
-25.60
-32.99
-40.51
-47.85
-54.68
-61.00
-67.26
-74.03
-81.52
-89.09
-95.05
-97.14
-93.37
-82.85
-66.24
-45.50
-23.20
-1.69
17.47
33.57
46.50
56.34
63.14
66.96
68.03
66.90
64.43
61.57
59.12
57.52
56.81
56.72
56.86
56.87
56.50
55.61
54.13
52.01
49.20
45.71
41.55
36.69
31.15
24.91
18.01
10.58
2.85
-4.83
-12.17
-18.89
-24.88
-30.17
-35.02
-39.82
-45.08
-51.31
-58.79
-67.36
-76.21
-83.97
-88.91
-89.42
-84.48
-74.01
-58.94
-40.90
-21.94
-3.90
11.83
24.52
34.02
40.52
44.41
46.08
45.90
44.21
41.46
38.18
34.94
32.24
30.37
29.42
29.21
29.42
29.64
29.43
28.45
26.51
23.63
20.05
16.08
11.97
7.75
3.23
-1.83
-7.52
-13.69
-19.98
-25.98
-31.42
-36.26
-40.56
-44.51
-48.39
-52.64
-57.74
-64.02
-71.27
-78.46
-83.84
-85.37
-81.46
-71.58
-56.51
-38.05
-18.46
0.22
16.55
29.80
39.79
46.52
50.15
50.90
49.18
45.64
41.19
36.80
33.23
30.85
29.53
28.80
28.06
26.92
25.32
23.43
21.56
19.80
18.00
15.74
12.50
7.93
2.05
-4.70
-11.66
-18.14
-23.73
-28.35
-32.36
-36.29
-40.76
-46.36
-53.38
-61.66
-70.39
-78.02
-82.59
-82.25
-76.01
-64.12
-48.03
-29.91
-11.87
4.56
18.65
30.15
39.03
45.17
48.48
49.06
47.36
44.12
40.22
36.33
32.87
30.04
27.81
26.09
24.78
23.71
22.75
21.82
20.87
19.86
18.66
16.99
14.41
10.50
5.09
-1.65
-9.19
-16.82
-23.84
-29.80
-34.65
-38.78
-42.95
-48.03
-54.66
-62.87
-71.77
-79.62
-84.27
-83.81
-77.28
-64.98
-48.39
-29.63
-10.87
6.21
20.65
32.17
40.83
46.90
50.64
52.28
52.09
50.44
47.79
44.72
41.82
39.53
38.04
37.25
36.78
36.23
35.33
34.02
32.44
30.69
28.76
26.46
23.52
19.72
14.96
9.35
3.04
-3.68
-10.55
-17.22
-23.46
-29.07
-34.13
-38.90
-43.90
-49.64
-56.49
-64.41
-72.79
-80.44
-85.68
-86.80
-82.48
-72.31
-57.02
-38.39
-18.72
-0.24
15.47
27.74
36.63
42.58
46.06
47.38
46.75
44.51
41.22
37.59
34.26
31.64
29.72
28.27
27.02
25.88
25.00
24.53
24.41
24.20
23.16
20.52
15.88
9.45
1.96
-5.53
-12.17
-17.56
-21.98
-26.15
-30.97
-37.13
-44.88
-53.92
-63.36
-71.83
-77.63
-79.06
-74.93
-64.92
-49.82
-31.40
-11.90
6.54
22.38
34.90
43.97
49.88
53.01
53.72
52.42
49.59
45.79
41.59
37.50
33.85
30.78
28.24
26.07
24.10
22.22
20.31
18.25
15.77
12.56
8.33
2.96
-3.34
-10.10
-16.70
-22.69
-27.95
-32.77
-37.79
-43.73
-51.18
-60.24
-70.22
-79.59
-86.16
-87.64
-82.46
-70.35
-52.60
-31.63
-10.21
9.34
25.66
38.31
47.53
53.71
57.26
58.55
57.99
56.05
53.17
49.70
45.92
42.00
38.13
34.51
31.29
28.56
26.30
24.42
22.76
21.08
19.05
16.27
12.36
7.11
0.56
-6.87
-14.57
-21.86
-28.32
-33.99
-39.42
-45.42
-52.73
-61.54
-71.13
-79.87
-85.60
-86.15
-80.16
-67.49
-49.38
-28.05
-6.14
14.02
30.88
43.79
52.82
58.50
61.40
62.05
60.90
58.42
55.10
51.38
47.60
43.95
40.45
37.13
34.05
31.36
29.20
27.59
26.32
25.01
23.14
20.26
16.13
10.82
4.63
-2.01
-8.65
-14.99
-20.93
-26.63
-32.55
-39.32
-47.55
-57.31
-67.86
-77.41
-83.53
-83.91
-77.28
-63.95
-45.80
-25.54
-5.82
11.49
25.57
36.38
44.26
49.49
52.24
52.61
50.80
47.22
42.52
37.46
32.83
29.27
27.10
26.27
26.35
26.62
26.35
24.97
22.21
18.16
13.08
7.31
1.19
-5.05
-11.20
-17.04
-22.52
-27.85
-33.59
-40.52
-49.23
-59.58
-70.32
-79.18
-83.56
-81.39
-72.00
-56.32
-36.53
-15.32
4.92
22.49
36.50
46.57
52.72
55.22
54.63
51.75
47.51
42.79
38.22
34.16
30.77
28.06
25.97
24.38
23.03
21.56
19.61
16.86
13.17
8.52
3.06
-3.03
-9.46
-15.92
-22.13
-28.03
-33.92
-40.45
-48.36
-57.94
-68.57
-78.57
-85.55
-87.21
-82.09
-70.20
-52.88
-32.41
-11.22
8.67
25.90
39.79
50.10
56.89
60.43
61.19
59.77
56.91
53.29
49.47
45.82
42.54
39.72
37.37
35.43
33.76
32.12
30.17
27.56
24.04
19.51
14.05
7.89
1.32
-5.44
-12.20
-18.94
-25.79
-33.10
-41.35
-50.81
-61.28
-71.74
-80.41
-85.09
-83.89
-75.91
-61.56
-42.51
-21.09
0.29
19.72
36.04
48.72
57.68
63.05
65.15
64.42
61.54
57.32
52.63
48.18
44.42
41.44
39.08
37.08
35.19
33.32
31.39
29.34
26.96
23.91
19.83
14.50
7.99
0.68
-6.81
-13.89
-20.15
-25.62
-30.69
-36.02
-42.34
-50.15
-59.50
-69.68
-79.25
-86.14
-88.22
-83.90
-72.73
-55.63
-34.71
-12.68
7.94
25.39
38.81
48.13
53.66
55.86
55.24
52.48
48.46
44.10
40.21
37.18
34.95
33.04
30.96
28.34
25.19
21.73
18.24
14.84
11.41
7.68
3.42
-1.48
-6.99
-12.93
-19.08
-25.13
-30.80
-36.03
-41.06
-46.61
-53.52
-62.28
-72.48
-82.43
-89.51
-90.96
-85.00
-71.47
-52.05
-29.58
-7.21
12.42
27.59
37.42
41.78
41.07
36.35
29.40
22.52
17.96
17.33
20.96
27.91
36.32
44.13
49.81
52.79
53.39
52.43
50.65
48.38
45.42
41.29
35.58
28.19
19.54
10.45
1.92
-5.16
-10.35
-13.84
-16.33
-18.86
-22.37
-27.31
-33.43
-39.89
-45.61
-49.67
-51.47
-50.70
-47.22
-40.88
-31.58
-19.46
-4.98
10.94
27.08
42.03
54.42
63.14
67.47
67.34
63.45
57.22
50.47
44.82
41.24
39.79
39.64
39.49
38.05
34.52
28.86
22.00
15.65
11.97
12.91
19.19
29.60
40.84
48.48
48.71
40.08
24.03
3.99
-16.47
-35.44
-53.01
-70.12
-86.42
-99.02
-103.08
-94.34
-72.02
-40.11
-6.01
22.79
41.97
51.76
55.85
58.61
62.43
66.52
67.75
62.62
49.55
30.08
8.49
-9.73
-20.03
-20.49
-12.35
0.74
14.34
25.12
31.88
35.27
36.47
35.86
32.50
24.75
11.61
-6.32
-26.74
-46.55
-63.24
-75.70
-84.35
-90.67
-96.38
-102.92
-111.23
-121.71
-134.24
-147.98
-161.19
-171.25
-175.20
-170.64
-156.74
-134.65
-107.34
-78.63
-52.07
-30.05
-13.53
-2.27
4.59
8.05
9.09
8.61
7.60
6.96
7.50
9.55
13.06
17.45
21.85
25.31
27.19
27.38
26.27
24.57
22.98
22.21
22.38
22.96
22.86
20.99
16.79
10.41
2.61
-5.69
-13.30
-19.52
-24.23
-27.53
-29.02
-27.32
-20.51
-6.92
14.09
42.64
77.53
116.14
154.72
188.92
214.80
228.93
229.17
215.30
190.70
160.94
132.17
109.50
95.97
92.74
98.50
110.21
116.11
106.13
75.74
28.59
-26.78
-81.97
-130.45
-168.49
-194.19
-207.32
-207.81
-196.57
-175.72
-148.44
-119.75
-92.04
-68.13
-50.25
-39.54
-34.62
-32.61
-30.45
-25.68
-18.87
-9.12
2.43
15.07
29.15
46.37
68.42
93.04
117.00
136.23
147.64
149.38
141.99
127.71
109.59
90.21
71.03
53.07
36.30
19.89
1.71
-20.14
-46.36
-75.65
-104.93
-130.37
-147.73
-153.90
-147.44
-129.06
-100.72
-65.28
-26.26
12.30
43.40
60.65
61.87
50.16
31.54
12.01
-4.31
-15.64
-22.24
-25.76
-27.82
-29.50
-30.95
-31.45
-29.52
-23.64
-13.39
-0.06
13.64
25.17
33.00
36.86
37.33
35.26
31.43
26.49
21.24
16.94
14.38
13.94
14.68
14.50
11.16
3.73
-6.85
-18.08
-27.28
-32.64
-34.03
-32.78
-30.80
-29.63
-29.88
-31.39
-33.68
-36.34
-39.20
-42.13
-44.81
-46.81
-47.80
-47.62
-46.24
-43.66
-39.65
-32.92
-22.83
-9.32
7.01
25.09
43.85
62.62
81.29
99.96
118.46
136.00
151.29
162.88
169.42
169.97
164.05
151.76
134.04
112.77
90.67
70.83
55.85
46.77
42.67
40.99
38.61
33.20
24.04
11.94
-1.45
-14.52
-26.36
-36.65
-45.22
-51.76
-55.90
-57.70
-58.19
-59.41
-63.83
-73.44
-88.88
-108.91
-130.68
-150.24
-163.47
-166.97
-158.92
-139.48
-110.69
-76.08
-39.81
-6.12
21.57
41.27
52.53
56.32
54.51
49.47
43.23
37.14
30.97
23.72
14.37
2.38
-11.80
-26.91
-40.89
-51.95
-58.55
-60.96
-60.28
-57.88
-54.99
-52.26
-50.11
-48.38
-47.41
-47.09
-48.09
-50.53
-53.84
-57.47
-61.35
-66.59
-74.29
-85.98
-92.74
-87.08
-66.60
-36.73
-7.25
14.18
20.82
17.29
9.72
3.71
1.32
1.53
4.69
8.61
11.02
10.47
7.98
5.52
6.01
10.87
19.97
31.85
44.15
54.90
62.80
68.06
71.16
72.99
73.52
72.28
68.89
63.21
56.02
48.36
41.83
37.40
35.29
34.37
32.86
29.14
22.14
11.69
-2.02
-17.67
-33.19
-45.97
-53.80
-55.18
-49.67
-38.09
-20.39
0.05
17.73
28.42
31.77
30.31
27.08
24.17
22.22
20.56
17.46
11.56
2.70
-8.02
-18.83
-27.69
-33.40
-35.38
-33.96
-30.43
-26.08
-21.58
-17.00
-12.41
-8.21
-5.11
-3.76
-4.53
-7.27
-10.92
-14.48
-16.79
-17.55
-17.46
-17.91
-20.29
-25.52
-33.79
-44.35
-55.67
-65.65
-72.22
-73.66
-68.91
-57.79
-41.12
-20.72
1.17
22.29
40.96
56.08
67.12
74.00
76.92
76.34
72.91
67.50
61.03
54.38
48.16
42.72
38.18
34.52
31.71
29.65
28.18
27.04
25.88
24.36
22.10
18.89
14.58
9.22
2.99
-3.80
-10.80
-17.76
-24.61
-31.59
-39.20
-47.92
-57.90
-68.61
-78.74
-86.22
-88.88
-84.97
-73.90
-56.43
-34.58
-11.00
11.63
31.27
46.77
57.76
64.46
67.39
67.09
64.17
59.25
53.07
46.41
40.00
34.41
29.93
26.55
24.15
22.50
21.41
20.64
19.85
18.60
16.42
13.01
8.40
2.93
-2.90
-8.66
-14.25
-19.89
-26.07
-33.41
-42.35
-52.93
-64.52
-75.77
-84.68
-89.01
-86.91
-77.56
-61.59
-40.87
-18.08
4.13
23.74
39.61
51.40
59.18
63.24
63.94
61.78
57.42
51.67
45.38
39.24
33.71
28.98
25.06
21.90
19.49
17.82
16.83
16.37
16.07
15.44
13.96
11.26
7.28
2.22
-3.49
-9.36
-15.10
-20.69
-26.47
-32.95
-40.41
-48.49
-55.96
-60.85
-60.94
-54.54
-41.18
-21.84
1.27
25.47
48.34
68.21
84.19
95.95
103.30
106.13
104.46
98.68
89.64
78.60
66.96
55.94
46.34
38.48
32.19
27.01
22.35
17.58
12.26
6.21
-0.39
-7.11
-13.48
-19.21
-24.31
-29.11
-34.05
-39.51
-45.75
-52.96
-61.26
-70.52
-80.08
-88.59
-93.99
-94.11
-87.45
-73.84
-54.72
-32.68
-10.68
8.96
24.95
37.06
45.60
50.98
53.47
53.18
50.39
45.68
39.95
34.19
29.21
25.39
22.74
20.93
19.52
18.03
16.08
13.41
9.94
5.78
1.16
-3.74
-8.85
-14.32
-20.48
-27.69
-36.15
-45.77
-55.98
-65.67
-73.27
-77.01
-75.34
-67.48
-53.82
-35.95
-16.27
2.77
19.26
32.19
41.37
46.99
49.29
48.43
44.72
38.74
31.53
24.31
18.15
13.60
10.57
8.46
6.55
4.30
1.52
-1.62
-4.82
-7.91
-10.91
-14.05
-17.69
-22.12
-27.43
-33.65
-40.70
-48.58
-57.09
-65.58
-72.79
-76.94
-76.20
-69.39
-56.57
-39.16
-19.53
-0.25
16.66
30.11
39.86
46.17
49.40
49.83
47.79
43.74
38.40
32.69
27.48
23.41
20.70
19.16
18.29
17.55
16.49
14.91
12.84
10.44
7.87
5.11
2.06
-1.52
-5.78
-10.80
-16.61
-23.22
-30.61
-38.56
-46.39
-52.90
-56.51
-55.64
-49.35
-37.77
-22.21
-4.79
12.14
26.73
37.96
45.63
50.11
51.93
51.52
49.21
45.29
40.21
34.59
29.12
24.40
20.78
18.32
16.82
15.94
15.18
14.13
12.40
9.85
6.49
2.54
-1.69
-5.95
-10.11
-14.23
-18.52
-23.29
-28.87
-35.49
-42.94
-50.52
-56.90
-60.32
-59.11
-52.31
-40.11
-23.95
-6.08
11.13
25.83
37.08
44.75
49.20
50.92
50.34
47.90
44.13
39.74
35.48
31.87
29.04
26.79
24.76
22.75
20.82
19.26
18.32
17.96
17.76
17.06
15.22
11.90
7.23
1.71
-4.01
-9.41
-14.27
-18.72
-23.17
-28.11
-33.85
-40.31
-46.83
-52.21
-54.89
-53.41
-46.95
-35.61
-20.59
-3.79
12.72
27.20
38.60
46.51
51.01
52.43
51.20
47.87
43.08
37.57
32.09
27.25
23.44
20.74
19.01
17.94
17.18
16.43
15.46
14.14
12.37
10.05
7.11
3.57
-0.40
-4.54
-8.59
-12.42
-16.06
-19.67
-23.47
-27.70
-32.56
-38.08
-43.93
-49.33
-52.94
-53.22
-49.02
-40.03
-27.09
-11.96
3.31
17.02
28.21
36.66
42.50
45.86
46.80
45.29
41.57
36.25
30.27
24.62
20.05
16.85
14.86
13.68
12.92
12.35
11.93
11.62
11.22
10.35
8.57
5.61
1.49
-3.43
-8.62
-13.58
-17.98
-21.80
-25.25
-28.72
-32.67
-37.45
-43.07
-49.03
-54.22
-57.16
-56.44
-51.15
-41.30
-27.84
-12.33
3.46
18.02
30.27
39.67
45.99
49.28
49.72
47.69
43.71
38.49
32.80
27.42
22.94
19.64
17.50
16.18
15.24
14.29
13.13
11.78
10.39
9.03
7.59
5.76
3.17
-0.41
-4.92
-9.98
-15.05
-19.62
-23.47
-26.71
-29.70
-32.95
-36.94
-41.93
-47.85
-54.11
-59.62
-62.89
-62.41
-57.10
-46.73
-32.13
-15.02
2.50
18.47
31.53
41.06
47.06
49.91
50.11
48.21
44.71
40.12
35.04
30.06
25.83
22.76
20.95
20.14
19.78
19.33
18.40
16.97
15.24
13.44
11.64
9.64
7.09
3.69
-0.58
-5.45
-10.44
-15.07
-19.08
-22.45
-25.43
-28.49
-32.18
-36.97
-43.03
-50.00
-56.82
-61.83
-63.24
-59.64
-50.64
-37.06
-20.70
-3.79
11.78
24.81
34.89
42.05
46.35
47.80
46.35
42.30
36.43
29.94
24.14
19.98
17.74
17.06
17.17
17.34
17.14
16.51
15.61
14.63
13.64
12.50
10.99
8.85
5.93
2.21
-2.11
-6.75
-11.30
-15.45
-19.00
-22.02
-24.81
-27.86
-31.74
-36.79
-42.89
-49.29
-54.67
-57.39
-56.01
-49.77
-38.86
-24.46
-8.36
7.48
21.47
32.59
40.42
44.98
46.53
45.47
42.27
37.60
32.25
27.07
22.74
19.64
17.78
16.82
16.38
16.12
15.91
15.75
15.56
15.17
14.22
12.34
9.35
5.35
0.74
-3.96
-8.33
-12.23
-15.87
-19.69
-24.21
-29.75
-36.26
-43.22
-49.64
-54.20
-55.56
-52.70
-45.26
-33.76
-19.48
-4.16
10.40
22.79
32.16
38.25
41.28
41.73
40.16
37.11
33.08
28.52
23.79
19.22
15.13
11.77
9.30
7.77
7.07
6.95
7.03
6.92
6.21
4.58
1.88
-1.91
-6.59
-11.76
-16.96
-21.74
-25.87
-29.47
-33.03
-37.24
-42.63
-49.19
-56.11
-61.87
-64.63
-62.86
-55.80
-43.83
-28.27
-11.03
5.90
20.80
32.51
40.49
44.76
45.78
44.30
41.18
37.20
33.00
28.97
25.34
22.18
19.50
17.30
15.55
14.24
13.33
12.66
12.01
11.01
9.31
6.65
2.97
-1.55
-6.50
-11.48
-16.19
-20.53
-24.64
-28.76
-33.22
-38.28
-44.03
-50.13
-55.69
-59.26
-59.23
-54.40
-44.45
-30.22
-13.47
3.62
19.14
31.83
41.13
47.00
49.65
49.39
46.70
42.28
37.02
31.83
27.41
24.02
21.57
19.74
18.21
16.79
15.45
14.25
13.21
12.23
11.06
9.34
6.74
3.10
-1.47
-6.58
-11.67
-16.25
-20.10
-23.35
-26.38
-29.76
-34.00
-39.28
-45.41
-51.62
-56.67
-59.05
-57.38
-50.84
-39.58
-24.76
-8.24
7.91
22.00
33.02
40.67
45.10
46.71
45.96
43.37
39.57
35.24
31.04
27.43
24.56
22.34
20.55
19.02
17.78
16.89
16.40
16.19
15.87
14.98
13.09
10.03
5.94
1.20
-3.69
-8.32
-12.46
-16.16
-19.64
-23.32
-27.58
-32.67
-38.52
-44.63
-49.99
-53.25
-53.06
-48.50
-39.43
-26.64
-11.67
3.60
17.45
28.66
36.68
41.51
43.52
43.15
40.87
37.14
32.45
27.39
22.56
18.50
15.50
13.52
12.28
11.40
10.59
9.76
9.02
8.39
7.73
6.62
4.54
1.14
-3.53
-9.04
-14.68
-19.78
-23.94
-27.17
-29.80
-32.38
-35.50
-39.63
-44.97
-51.16
-57.20
-61.57
-62.52
-58.74
-49.78
-36.34
-20.08
-3.13
12.57
25.71
35.68
42.48
46.33
47.52
46.33
43.11
38.39
32.98
27.77
23.59
20.96
19.82
19.69
19.80
19.48
18.41
16.71
14.78
13.06
11.71
10.55
9.11
6.85
3.47
-1.00
-6.22
-11.64
-16.73
-21.11
-24.69
-27.66
-30.50
-33.76
-37.94
-43.21
-49.20
-54.97
-59.13
-60.23
-57.10
-49.30
-37.31
-22.37
-6.26
9.19
22.47
32.67
39.47
43.07
43.97
42.77
39.98
36.08
31.53
26.79
22.39
18.78
16.27
14.89
14.37
14.26
14.11
13.66
12.89
11.98
11.13
10.35
9.37
7.79
5.25
1.73
-2.40
-6.46
-9.78
-12.01
-13.34
-14.31
-15.62
-17.77
-20.96
-25.11
-29.97
-35.21
-40.32
-44.48
-46.48
-45.10
-39.45
-29.52
-16.29
-1.49
12.89
25.26
34.70
41.05
44.55
45.60
44.59
41.89
37.95
33.33
28.72
24.68
21.56
19.44
18.15
17.45
17.12
17.04
17.11
17.24
17.21
16.68
15.28
12.72
8.94
4.19
-1.06
-6.22
-10.83
-14.72
-18.02
-21.17
-24.68
-28.99
-34.25
-40.21
-46.17
-51.02
-53.44
-52.25
-46.74
-36.98
-23.90
-9.09
5.66
18.73
29.02
36.06
39.84
40.70
39.10
35.63
30.97
25.84
20.93
16.74
13.50
11.11
9.28
7.72
6.24
4.88
3.81
3.11
2.71
2.24
1.22
-0.78
-3.91
-8.03
-12.66
-17.26
-21.35
-24.67
-27.25
-29.39
-31.59
-34.51
-38.67
-44.25
-50.82
-57.18
-61.55
-62.06
-57.37
-47.22
-32.66
-15.72
1.22
16.12
27.84
36.08
41.16
43.55
43.65
41.71
38.09
33.38
28.41
24.00
20.72
18.65
17.45
16.54
15.46
14.04
12.46
11.09
10.25
10.00
9.97
9.56
8.03
4.96
0.33
-5.35
-11.29
-16.67
-20.99
-24.20
-26.68
-29.04
-31.90
-35.68
-40.43
-45.71
-50.53
-53.54
-53.27
-48.61
-39.27
-26.01
-10.46
5.37
19.63
31.13
39.43
44.70
47.30
47.58
45.81
42.29
37.49
32.11
26.89
22.50
19.31
17.40
16.58
16.52
16.87
17.31
17.59
17.57
17.16
16.29
14.78
12.44
9.05
4.53
-0.88
-6.69
-12.18
-16.75
-20.13
-22.48
-24.39
-26.58
-29.73
-34.20
-39.80
-45.72
-50.57
-52.72
-50.72
-43.91
-32.60
-18.16
-2.55
12.27
24.81
34.34
40.80
44.49
45.78
45.02
42.45
38.40
33.31
27.83
22.70
18.57
15.83
14.45
14.08
14.13
14.07
13.63
12.82
11.80
10.61
9.07
6.77
3.33
-1.36
-6.94
-12.74
-18.01
-22.28
-25.50
-28.08
-30.61
-33.72
-37.82
-42.97
-48.74
-54.26
-58.24
-59.27
-56.22
-48.63
-36.98
-22.57
-7.17
7.50
20.15
30.14
37.28
41.63
43.34
42.63
39.88
35.69
30.88
26.33
22.74
20.42
19.27
18.79
18.36
17.50
16.05
14.19
12.33
10.85
9.83
9.05
8.02
6.22
3.34
-0.60
-5.28
-10.22
-14.93
-19.10
-22.59
-25.51
-28.16
-30.96
-34.37
-38.67
-43.75
-48.99
-53.21
-55.01
-53.11
-46.75
-36.10
-22.19
-6.74
8.26
21.11
30.68
36.65
39.34
39.43
37.64
34.51
30.40
25.56
20.41
15.57
11.84
9.86
9.81
11.34
13.59
15.63
16.75
16.80
16.08
15.10
14.26
13.60
12.82
11.43
9.01
5.43
0.93
-3.96
-8.63
-12.57
-15.62
-18.01
-20.27
-23.05
-26.91
-32.17
-38.75
-46.15
-53.41
-59.18
-61.94
-60.38
-53.78
-42.42
-27.51
-10.93
5.24
19.36
30.43
38.12
42.60
44.29
43.70
41.43
38.16
34.56
31.19
28.40
26.26
24.63
23.32
22.18
21.19
20.46
20.10
20.11
20.27
20.16
19.25
17.12
13.57
8.75
3.12
-2.72
-8.17
-12.86
-16.71
-20.00
-23.22
-26.89
-31.41
-36.75
-42.36
-47.14
-49.70
-48.79
-43.68
-34.46
-22.05
-7.96
6.11
18.71
28.89
36.27
40.86
42.84
42.46
39.99
35.85
30.64
25.15
20.08
15.91
12.78
10.48
8.71
7.29
6.21
5.60
5.42
5.42
5.10
3.98
1.77
-1.46
-5.31
-9.34
-13.18
-16.69
-19.95
-23.20
-26.78
-31.02
-36.19
-42.27
-48.79
-54.70
-58.46
-58.43
-53.46
-43.39
-29.20
-12.82
3.54
17.95
29.29
37.21
41.98
44.09
44.00
42.12
38.84
34.68
30.24
26.06
22.53
19.79
17.75
16.22
14.94
13.76
12.58
11.36
10.02
8.43
6.40
3.73
0.32
-3.74
-8.11
-12.35
-16.10
-19.23
-21.95
-24.77
-28.26
-32.87
-38.59
-44.83
-50.43
-53.85
-53.62
-48.79
-39.27
-26.00
-10.73
4.54
18.08
28.83
36.49
41.34
43.85
44.37
43.10
40.16
35.80
30.51
25.02
20.13
16.43
14.14
13.09
12.81
12.79
12.68
12.36
11.94
11.51
10.99
10.07
8.26
5.16
0.73
-4.64
-10.22
-15.23
-19.23
-22.22
-24.66
-27.20
-30.38
-34.40
-38.97
-43.33
-46.47
-47.22
-44.58
-37.96
-27.46
-13.96
1.06
15.83
28.74
38.70
45.29
48.58
49.01
47.11
43.48
38.79
33.75
29.03
25.16
22.29
20.29
18.76
17.42
16.16
15.13
14.52
14.38
14.47
14.31
13.29
10.98
7.31
2.56
-2.66
-7.76
-12.29
-16.07
-19.28
-22.27
-25.49
-29.32
-33.91
-39.04
-44.05
-47.86
-49.24
-47.07
-40.77
-30.49
-17.20
-2.47
11.88
24.27
33.64
39.60
42.35
42.40
40.34
36.69
31.90
26.49
21.05
16.21
12.49
10.05
8.75
8.12
7.75
7.41
7.09
6.91
6.85
6.62
5.75
3.80
0.53
-3.97
-9.38
-15.22
-21.08
-26.59
-31.55
-35.88
-39.65
-43.12
-46.69
-50.74
-55.32
-59.91
-63.36
-64.15
-60.90
-52.90
-40.46
-24.84
-7.91
8.43
22.66
33.93
41.96
46.83
48.80
48.12
45.17
40.53
34.98
29.43
24.74
21.48
19.76
19.26
19.39
19.48
19.08
18.03
16.53
14.90
13.44
12.15
10.80
8.97
6.29
2.58
-1.97
-6.93
-11.77
-16.04
-19.52
-22.27
-24.56
-26.78
-29.37
-32.70
-36.94
-41.84
-46.65
-50.14
-50.86
-47.66
-40.09
-28.63
-14.60
0.31
14.48
26.70
36.32
43.03
46.70
47.34
45.13
40.56
34.54
28.15
22.50
18.30
15.76
14.58
14.12
13.70
12.83
11.40
9.65
8.05
7.00
6.60
6.59
6.38
5.45
3.51
0.72
-2.43
-5.30
-7.50
-9.01
-10.13
-11.37
-13.25
-16.23
-20.63
-26.46
-33.28
-40.08
-45.34
-47.43
-45.23
-38.50
-28.16
-15.89
-3.55
7.39
16.19
22.78
27.37
30.10
30.92
29.76
26.79
22.64
18.34
14.94
13.17
13.09
14.11
15.32
15.91
15.53
14.34
12.85
11.58
10.71
10.03
8.98
6.96
3.58
-1.06
-6.46
-11.82
-16.39
-19.75
-21.92
-23.29
-24.45
-25.95
-28.17
-31.31
-35.38
-40.05
-44.52
-47.57
-47.73
-43.83
-35.48
-23.45
-9.43
4.45
16.36
25.22
30.83
33.53
33.80
32.03
28.47
23.39
17.29
10.92
5.17
0.80
-1.78
-2.60
-2.09
-0.89
0.46
1.69
2.87
4.19
5.77
7.42
8.66
8.86
7.62
4.90
1.10
-3.14
-7.24
-10.86
-13.95
-16.69
-19.38
-22.39
-26.08
-30.73
-36.30
-42.26
-47.49
-50.49
-49.77
-44.47
-34.61
-21.18
-5.82
9.70
23.89
35.78
44.88
50.99
54.07
54.22
51.73
47.13
41.20
34.80
28.79
23.86
20.44
18.57
17.95
18.02
18.14
17.84
16.96
15.68
14.25
12.74
10.95
8.47
4.98
0.50
-4.52
-9.36
-13.49
-16.71
-19.35
-21.97
-25.18
-29.35
-34.47
-40.14
-45.58
-49.69
-51.28
-49.25
-42.99
-32.67
-19.25
-4.33
10.32
23.20
33.32
40.34
44.27
45.37
43.93
40.34
35.20
29.28
23.51
18.69
15.32
13.43
12.63
12.35
12.11
11.69
11.11
10.49
9.82
8.83
7.14
4.38
0.51
-4.15
-8.98
-13.43
-17.23
-20.48
-23.57
-27.01
-31.18
-36.29
-42.29
-48.73
-54.72
-58.97
-59.98
-56.53
-48.14
-35.36
-19.72
-3.25
12.12
25.03
34.83
41.42
44.98
45.77
44.11
40.43
35.43
29.98
24.98
21.06
18.42
16.78
15.60
14.34
12.79
11.12
9.73
8.92
8.67
8.51
7.72
5.63
2.01
-2.93
-8.53
-14.06
-18.94
-22.98
-26.36
-29.55
-33.09
-37.47
-42.90
-49.16
-55.48
-60.55
-62.84
-60.97
-54.22
-42.85
-28.03
-11.57
4.62
19.00
30.62
39.12
44.57
47.18
47.25
45.15
41.38
36.61
31.58
27.01
23.38
20.90
19.47
18.85
18.69
18.68
18.65
18.47
18.07
17.33
16.06
13.98
10.87
6.68
1.60
-3.92
-9.32
-14.08
-17.92
-20.87
-23.27
-25.68
-28.66
-32.72
-38.07
-44.53
-51.32
-57.13
-60.36
-59.46
-53.55
-42.68
-27.94
-11.14
5.62
20.60
32.65
41.35
46.77
49.23
49.18
47.07
43.46
38.96
34.26
29.92
26.36
23.74
21.94
20.71
19.73
18.78
17.79
16.83
16.04
15.46
14.98
14.29
12.96
10.58
6.96
2.24
-3.13
-8.52
-13.37
-17.32
-20.36
-22.73
-24.85
-27.13
-29.93
-33.53
-38.06
-43.48
-49.35
-54.65
-57.91
-57.51
-52.20
-41.68
-26.87
-9.67
7.51
22.53
34.04
41.68
45.87
47.37
46.88
44.88
41.65
37.49
32.82
28.21
24.19
21.06
18.83
17.28
16.17
15.38
14.99
15.10
15.68
16.43
16.79
16.14
13.98
10.17
4.99
-1.01
-7.12
-12.74
-17.53
-21.48
-24.92
-28.43
-32.63
-37.84
-43.80
-49.56
-53.57
-54.22
-50.37
-41.90
-29.79
-15.75
-1.59
11.27
22.02
30.42
36.41
39.94
40.97
39.66
36.49
32.30
28.02
24.36
21.64
19.73
18.29
17.01
15.73
14.50
13.42
12.51
11.61
10.43
8.60
5.82
2.04
-2.63
-7.85
-13.24
-18.47
-23.41
-28.19
-33.18
-38.77
-45.15
-52.00
-58.33
-62.67
-63.42
-59.53
-50.82
-38.15
-23.11
-7.52
7.04
19.53
29.39
36.41
40.49
41.71
40.37
37.05
32.61
27.95
23.72
20.26
17.53
15.33
13.51
12.02
10.93
10.34
10.19
10.23
10.01
9.02
6.85
3.34
-1.41
-7.00
-12.89
-18.56
-23.66
-28.13
-32.25
-36.56
-41.65
-47.91
-55.10
-62.24
-67.64
-69.31
-65.72
-56.32
-41.88
-24.23
-5.72
11.51
26.05
37.26
45.11
49.80
51.58
50.75
47.80
43.50
38.80
34.57
31.30
28.98
27.22
25.50
23.48
21.14
18.67
16.36
14.34
12.44
10.30
7.51
3.76
-1.04
-6.67
-12.64
-18.34
-23.21
-26.98
-29.81
-32.30
-35.34
-39.70
-45.69
-52.87
-59.95
-65.06
-66.26
-62.11
-52.14
-37.09
-18.68
0.81
19.09
34.40
45.69
52.68
55.67
55.35
52.58
48.27
43.24
38.13
33.39
29.22
25.74
22.97
20.96
19.78
19.48
19.92
20.76
21.41
21.17
19.46
16.02
11.05
5.12
-1.02
-6.77
-11.82
-16.22
-20.34
-24.64
-29.58
-35.51
-42.44
-49.82
-56.45
-60.58
-60.31
-54.27
-42.19
-25.19
-5.44
14.40
32.03
45.98
55.70
61.41
63.55
62.68
59.27
53.87
47.23
40.22
33.73
28.40
24.48
21.82
20.07
18.77
17.56
16.15
14.30
11.79
8.45
4.23
-0.74
-6.15
-11.65
-16.95
-21.92
-26.58
-31.04
-35.56
-40.47
-46.09
-52.48
-59.20
-65.11
-68.42
-67.20
-59.97
-46.48
-27.86
-6.46
14.88
33.60
48.02
57.58
62.52
63.60
61.64
57.46
51.79
45.43
39.15
33.58
29.12
25.82
23.46
21.74
20.42
19.38
18.56
17.83
16.91
15.40
12.85
9.10
4.20
-1.46
-7.37
-13.01
-18.05
-22.54
-26.82
-31.59
-37.54
-44.99
-53.49
-61.66
-67.36
-68.30
-62.89
-50.87
-33.52
-13.22
7.23
25.48
40.05
50.43
56.76
59.52
59.21
56.35
51.47
45.28
38.53
32.00
26.29
21.80
18.65
16.76
15.88
15.65
15.64
15.40
14.63
13.10
10.76
7.59
3.62
-1.08
-6.36
-11.91
-17.34
-22.33
-26.80
-31.05
-35.72
-41.33
-47.97
-54.89
-60.52
-62.89
-60.28
-51.88
-38.14
-20.69
-1.85
16.06
31.22
42.62
49.95
53.39
53.35
50.40
45.20
38.63
31.64
25.13
19.78
15.86
13.34
11.94
11.34
11.30
11.59
11.95
12.04
11.45
9.80
6.95
3.03
-1.58
-6.38
-11.03
-15.42
-19.74
-24.36
-29.68
-35.93
-42.97
-50.14
-56.20
-59.54
-58.60
-52.39
-40.96
-25.55
-8.23
8.61
23.02
33.87
40.93
44.63
45.61
44.47
41.61
37.33
32.00
26.11
20.29
15.15
11.16
8.47
6.93
6.13
5.57
4.83
3.61
1.89
-0.31
-2.90
-5.88
-9.36
-13.40
-17.99
-22.99
-28.25
-33.68
-39.35
-45.27
-51.24
-56.54
-59.95
-60.04
-55.69
-46.53
-33.24
-17.37
-0.91
14.27
26.81
36.00
41.76
44.35
44.16
41.64
37.25
31.54
25.21
19.03
13.76
9.90
7.58
6.50
6.08
5.67
4.86
3.54
1.85
-0.01
-1.96
-4.06
-6.49
-9.43
-12.92
-16.93
-21.38
-26.34
-31.90
-38.02
-44.28
-49.63
-52.58
-51.62
-45.81
-35.26
-21.17
-5.45
9.82
23.03
33.24
40.18
44.04
45.12
43.77
40.35
35.37
29.48
23.45
17.98
13.58
10.48
8.61
7.66
7.22
6.88
6.28
5.19
3.51
1.25
-1.49
-4.53
-7.66
-10.76
-13.80
-16.93
-20.44
-24.65
-29.72
-35.53
-41.48
-46.49
-49.21
-48.33
-43.07
-33.45
-20.45
-5.73
8.80
21.47
31.19
37.53
40.63
40.91
38.92
35.22
30.39
25.02
19.69
14.91
11.10
8.46
7.01
6.57
6.80
7.24
7.33
6.66
4.96
2.29
-1.10
-4.82
-8.56
-12.13
-15.53
-18.95
-22.63
-26.90
-31.94
-37.67
-43.51
-48.37
-50.83
-49.59
-43.95
-34.09
-21.16
-6.83
7.14
19.31
28.79
35.16
38.39
38.71
36.61
32.70
27.68
22.21
16.82
11.91
7.75
4.61
2.62
1.79
1.85
2.31
2.59
2.21
0.90
-1.29
-4.13
-7.35
-10.70
-14.05
-17.34
-20.65
-24.18
-28.24
-33.16
-39.01
-45.32
-50.96
-54.34
-53.82
-48.39
-38.09
-24.06
-8.27
7.15
20.48
30.74
37.65
41.44
42.51
41.29
38.25
33.92
28.94
23.96
19.49
15.84
13.07
11.09
9.74
8.89
8.36
7.94
7.30
6.12
4.15
1.41
-1.87
-5.32
-8.65
-11.80
-14.92
-18.29
-22.17
-26.67
-31.80
-37.34
-42.85
-47.52
-50.27
-49.85
-45.30
-36.37
-23.73
-8.89
6.25
19.90
30.86
38.61
43.17
44.89
44.26
41.85
38.25
34.05
29.73
25.61
21.91
18.71
16.13
14.25
13.11
12.54
12.25
11.85
11.01
9.57
7.53
4.96
1.89
-1.66
-5.66
-9.90
-14.08
-17.94
-21.40
-24.76
-28.55
-33.28
-39.02
-45.11
-50.22
-52.68
-51.08
-44.73
-33.94
-19.98
-4.63
10.25
23.15
33.16
39.87
43.35
43.91
41.94
38.02
32.84
27.27
22.18
18.29
15.88
14.75
14.36
14.10
13.63
13.04
12.62
12.63
12.93
13.02
12.31
10.44
7.49
3.95
0.36
-2.92
-5.91
-8.84
-12.01
-15.66
-19.91
-24.85
-30.41
-36.33
-41.83
-45.73
-46.60
-43.29
-35.41
-23.53
-9.12
5.91
19.66
30.71
38.25
42.06
42.38
39.76
34.97
28.87
22.36
16.15
10.73
6.37
3.16
1.10
0.15
0.13
0.75
1.56
2.04
1.80
0.67
-1.23
-3.69
-6.47
-9.44
-12.56
-15.71
-18.72
-21.45
-23.96
-26.58
-29.77
-33.76
-38.13
-41.74
-42.97
-40.37
-33.26
-22.11
-8.39
5.88
18.83
29.17
36.37
40.49
41.92
41.07
38.33
34.07
28.76
22.97
17.45
12.85
9.62
7.77
6.99
6.71
6.42
5.81
4.82
3.55
2.10
0.44
-1.51
-3.89
-6.73
-10.08
-13.98
-18.60
-24.11
-30.55
-37.48
-43.88
-48.28
-49.18
-45.49
-37.07
-24.77
-10.26
4.54
17.87
28.61
36.27
40.87
42.70
42.12
39.49
35.21
29.82
23.97
18.38
13.66
10.14
7.79
6.27
5.08
3.86
2.46
0.96
-0.48
-1.86
-3.41
-5.46
-8.30
-11.99
-16.40
-21.28
-26.47
-31.88
-37.35
-42.30
-45.72
-46.35
-43.12
-35.67
-24.57
-11.19
2.75
15.67
26.50
34.72
40.22
43.09
43.46
41.47
37.46
31.98
25.81
19.84
14.85
11.29
9.22
8.31
8.02
7.78
7.18
6.03
4.37
2.38
0.20
-2.11
-4.61
-7.42
-10.65
-14.37
-18.60
-23.37
-28.67
-34.28
-39.60
-43.53
-44.68
-41.81
-34.39
-22.94
-8.99
5.43
18.37
28.53
35.49
39.43
40.85
40.17
37.72
33.68
28.41
22.45
16.53
11.41
7.62
5.35
4.37
4.20
4.31
4.26
3.82
2.93
1.63
-0.05
-2.06
-4.41
-7.12
-10.26
-13.97
-18.44
-23.77
-29.86
-36.24
-41.94
-45.64
-45.98
-42.03
-33.63
-21.55
-7.31
7.24
20.42
31.03
38.42
42.42
43.14
40.91
36.28
30.08
23.31
17.03
12.02
8.61
6.66
5.64
4.89
3.90
2.39
0.40
-1.84
-4.02
-5.92
-7.51
-9.00
-10.77
-13.25
-16.83
-21.70
-27.71
-34.32
-40.49
-44.89
-46.14
-43.23
-35.88
-24.75
-11.30
2.65
15.37
25.69
33.05
37.40
38.91
37.81
34.38
29.04
22.51
15.69
9.49
4.65
1.45
-0.26
-0.93
-1.10
-1.27
-1.76
-2.76
-4.27
-6.18
-8.34
-10.66
-13.19
-16.19
-20.02
-24.87
-30.61
-36.51
-41.35
-43.75
-42.52
-37.10
-27.74
-15.49
-1.91
11.29
22.67
31.27
36.66
38.89
38.27
35.29
30.57
24.82
18.89
13.58
9.53
7.02
5.85
5.46
5.16
4.41
3.06
1.28
-0.52
-2.03
-3.22
-4.35
-5.92
-8.35
-11.90
-16.57
-22.14
-28.18
-33.99
-38.64
-40.99
-39.98
-34.92
-25.85
-13.64
0.16
13.74
25.52
34.49
40.34
43.27
43.70
42.07
38.70
33.96
28.27
22.29
16.75
12.32
9.39
7.91
7.49
7.58
7.67
7.44
6.71
5.43
3.62
1.31
-1.40
-4.41
-7.64
-11.09
-14.88
-19.23
-24.31
-30.01
-35.84
-40.77
-43.49
-42.66
-37.50
-28.06
-15.36
-1.16
12.58
24.27
32.98
38.54
41.23
41.50
39.68
36.02
30.82
24.64
18.27
12.61
8.37
5.86
4.94
5.11
5.71
6.16
6.02
5.00
2.99
-0.01
-3.80
-8.03
-12.29
-16.26
-19.81
-23.16
-26.77
-31.16
-36.58
-42.76
-48.76
-53.12
-54.19
-50.74
-42.37
-29.78
-14.59
1.13
15.38
26.72
34.43
38.45
39.12
37.00
32.77
27.18
21.09
15.35
10.67
7.41
5.55
4.79
4.69
4.91
5.19
5.36
5.20
4.49
2.98
0.55
-2.78
-6.76
-11.10
-15.44
-19.58
-23.51
-27.46
-31.83
-37.01
-43.05
-49.36
-54.70
-57.35
-55.72
-48.97
-37.36
-22.25
-5.66
10.31
24.01
34.50
41.51
45.21
46.03
44.44
40.95
36.14
30.70
25.31
20.56
16.85
14.28
12.70
11.89
11.57
11.54
11.62
11.56
11.03
9.67
7.23
3.71
-0.60
-5.21
-9.59
-13.40
-16.56
-19.33
-22.16
-25.65
-30.26
-36.06
-42.51
-48.39
-52.00
-51.61
-46.13
-35.50
-20.83
-4.11
12.46
27.01
38.41
46.24
50.58
51.80
50.38
46.86
41.93
36.35
30.81
25.87
21.90
18.99
17.08
16.00
15.50
15.38
15.45
15.55
15.45
14.87
13.46
10.97
7.32
2.78
-2.14
-6.82
-10.80
-14.01
-16.75
-19.60
-23.12
-27.68
-33.30
-39.53
-45.50
-49.94
-51.49
-48.97
-41.78
-30.20
-15.39
0.77
16.24
29.27
38.81
44.55
46.80
46.22
43.55
39.47
34.64
29.63
24.92
20.87
17.64
15.27
13.68
12.79
12.55
12.86
13.50
14.07
14.04
12.91
10.40
6.53
1.67
-3.57
-8.62
-13.06
-16.85
-20.31
-23.96
-28.36
-33.75
-39.84
-45.73
-50.07
-51.41
-48.62
-41.30
-29.92
-15.76
-0.56
13.92
26.30
35.73
41.90
44.88
44.94
42.48
38.04
32.33
26.15
20.34
15.52
12.02
9.81
8.65
8.22
8.23
8.43
8.57
8.37
7.54
5.86
3.24
-0.24
-4.35
-8.76
-13.18
-17.39
-21.34
-25.21
-29.30
-33.95
-39.28
-44.97
-50.13
-53.43
-53.46
-49.17
-40.33
-27.59
-12.41
3.37
18.01
30.17
39.05
44.39
46.35
45.36
42.05
37.21
31.68
26.25
21.54
17.87
15.30
13.64
12.62
11.97
11.57
11.35
11.25
11.15
10.78
9.77
7.73
4.49
0.11
-4.98
-10.20
-14.98
-19.02
-22.33
-25.33
-28.61
-32.73
-37.93
-43.83
-49.40
-53.03
-53.05
-48.27
-38.49
-24.65
-8.66
7.23
21.07
31.67
38.73
42.56
43.74
42.85
40.32
36.55
31.96
27.11
22.55
18.72
15.86
13.96
12.81
12.14
11.69
11.35
11.08
10.85
10.56
9.98
8.77
6.61
3.35
-0.92
-5.82
-10.79
-15.36
-19.21
-22.31
-24.90
-27.35
-30.12
-33.57
-37.86
-42.72
-47.37
-50.60
-51.04
-47.64
-40.02
-28.70
-14.93
-0.37
13.38
25.09
34.06
40.01
42.95
43.11
40.88
36.87
31.81
26.52
21.71
17.86
15.12
13.41
12.48
12.07
12.03
12.24
12.60
12.94
13.04
12.60
11.35
9.12
5.84
1.66
-3.07
-7.84
-12.15
-15.71
-18.53
-20.97
-23.58
-26.86
-31.11
-36.21
-41.63
-46.37
-49.20
-48.84
-44.41
-35.76
-23.67
-9.71
4.24
16.53
26.09
32.62
36.27
37.39
36.32
33.36
28.96
23.76
18.60
14.30
11.36
9.82
9.28
9.18
9.03
8.64
8.11
7.70
7.56
7.61
7.45
6.57
4.50
1.07
-3.53
-8.74
-13.89
-18.38
-21.90
-24.54
-26.69
-28.97
-31.92
-35.90
-40.83
-46.09
-50.56
-52.79
-51.42
-45.64
-35.49
-22.06
-7.11
7.38
19.81
29.28
35.65
39.24
40.50
39.79
37.34
33.50
28.81
24.03
19.95
17.05
15.42
14.74
14.52
14.37
14.09
13.73
13.33
12.91
12.34
11.42
9.97
7.83
4.92
1.21
-3.22
-8.09
-13.01
-17.46
-21.12
-23.96
-26.28
-28.70
-31.82
-36.05
-41.35
-47.20
-52.53
-55.99
-56.24
-52.30
-43.95
-31.82
-17.35
-2.34
11.52
23.02
31.63
37.37
40.54
41.49
40.57
38.06
34.39
30.06
25.68
21.81
18.89
17.14
16.49
16.71
17.37
18.02
18.30
18.04
17.29
16.21
14.93
13.41
11.48
8.92
5.57
1.51
-3.00
-7.60
-11.95
-15.85
-19.26
-22.26
-25.01
-27.74
-30.69
-34.15
-38.36
-43.27
-48.33
-52.43
-54.08
-51.85
-44.97
-33.66
-19.22
-3.64
11.05
23.28
32.32
38.11
41.00
41.47
39.95
36.86
32.68
28.00
23.49
19.73
17.09
15.63
15.12
15.18
15.44
15.65
15.72
15.62
15.31
14.59
13.18
10.81
7.37
3.02
-1.83
-6.71
-11.17
-15.05
-18.40
-21.53
-24.85
-28.75
-33.50
-39.05
-44.96
-50.35
-54.05
-54.79
-51.65
-44.28
-33.13
-19.34
-4.47
9.91
22.47
32.37
39.21
43.01
44.08
42.91
40.17
36.54
32.69
29.15
26.26
24.15
22.71
21.67
20.70
19.56
18.10
16.39
14.56
12.70
10.76
8.49
5.60
1.90
-2.60
-7.65
-12.84
-17.83
-22.35
-26.39
-30.13
-33.87
-38.01
-42.84
-48.38
-54.19
-59.30
-62.35
-62.00
-57.27
-48.00
-34.92
-19.44
-3.30
11.86
24.86
35.00
42.04
46.06
47.36
46.34
43.53
39.54
35.05
30.76
27.24
24.81
23.45
22.83
22.42
21.78
20.70
19.31
17.95
16.88
16.08
15.18
13.64
11.05
7.33
2.75
-2.26
-7.28
-12.06
-16.43
-20.30
-23.61
-26.47
-29.29
-32.72
-37.34
-43.17
-49.31
-54.04
-55.34
-51.79
-43.05
-30.13
-14.90
0.53
14.48
25.88
34.33
39.78
42.40
42.47
40.35
36.58
31.79
26.73
22.07
18.38
15.96
14.77
14.50
14.68
14.84
14.70
14.20
13.45
12.61
11.72
10.67
9.23
7.15
4.21
0.40
-4.08
-8.87
-13.49
-17.56
-20.87
-23.47
-25.63
-27.74
-30.23
-33.45
-37.56
-42.33
-47.05
-50.57
-51.48
-48.63
-41.46
-30.36
-16.51
-1.55
12.89
25.59
35.81
43.22
47.68
49.19
47.85
44.09
38.65
32.58
26.92
22.47
19.60
18.09
17.39
16.86
16.04
14.87
13.65
12.75
12.43
12.51
12.46
11.55
9.27
5.47
0.52
-4.91
-10.14
-14.70
-18.49
-21.68
-24.65
-27.85
-31.65
-36.18
-41.20
-46.01
-49.47
-50.27
-47.35
-40.28
-29.51
-16.31
-2.36
10.69
21.67
30.03
35.72
38.95
39.94
38.82
35.78
31.26
26.00
20.96
17.00
14.63
13.75
13.86
14.26
14.41
14.12
13.47
12.67
11.77
10.62
8.91
6.34
2.81
-1.55
-6.38
-11.29
-15.97
-20.20
-23.91
-27.12
-29.97
-32.75
-35.89
-39.83
-44.68
-50.07
-54.94
-57.83
-57.24
-52.17
-42.56
-29.29
-13.97
1.53
15.56
27.01
35.34
40.59
43.05
43.22
41.57
38.55
34.58
30.15
25.82
22.17
19.60
18.23
17.83
17.87
17.79
17.23
16.15
14.82
13.62
12.75
12.08
11.13
9.34
6.28
1.94
-3.34
-8.90
-14.05
-18.26
-21.32
-23.33
-24.76
-26.32
-28.76
-32.63
-37.91
-43.84
-48.95
-51.51
-50.08
-44.03
-33.77
-20.57
-6.14
7.88
20.22
30.14
37.31
41.70
43.46
42.85
40.32
36.42
31.84
27.25
23.26
20.26
18.44
17.74
17.91
18.58
19.32
19.77
19.62
18.76
17.15
14.91
12.16
8.97
5.35
1.25
-3.28
-8.03
-12.66
-16.77
-20.12
-22.74
-24.90
-27.05
-29.69
-33.09
-37.34
-42.15
-46.88
-50.51
-51.85
-49.77
-43.58
-33.31
-19.84
-4.69
10.40
23.85
34.62
42.29
46.89
48.82
48.60
46.73
43.68
39.81
35.42
30.68
25.73
20.75
15.97
11.69
8.17
5.54
3.81
2.83
2.34
2.03
1.53
0.49
-1.36
-4.15
-7.80
-12.02
-16.39
-20.48
-24.03
-27.00
-29.68
-32.54
-36.07
-40.39
-45.10
-49.12
-51.01
-49.41
-43.53
-33.50
-20.32
-5.59
9.07
22.28
33.16
41.20
46.22
48.24
47.54
44.66
40.35
35.45
30.66
26.42
22.86
19.85
17.24
14.99
13.22
12.07
11.59
11.60
11.65
11.15
9.57
6.66
2.51
-2.51
-7.88
-13.09
-17.77
-21.74
-24.99
-27.80
-30.61
-34.01
-38.46
-44.07
-50.27
-55.86
-59.22
-58.80
-53.67
-43.84
-30.34
-14.82
0.85
15.12
26.96
35.90
41.87
44.99
45.51
43.80
40.40
36.04
31.47
27.35
24.08
21.73
20.13
18.99
18.06
17.22
16.42
15.67
14.91
14.04
12.88
11.25
8.95
5.88
2.01
-2.49
-7.27
-11.92
-16.05
-19.48
-22.33
-24.96
-27.91
-31.65
-36.33
-41.63
-46.65
-50.13
-50.73
-47.48
-40.10
-29.14
-15.83
-1.75
11.56
22.97
31.78
37.76
40.92
41.47
39.72
36.14
31.34
26.06
21.08
17.04
14.32
12.94
12.65
12.97
13.45
13.76
13.79
13.60
13.23
12.63
11.55
9.66
6.75
2.85
-1.71
-6.41
-10.79
-14.60
-17.90
-21.01
-24.37
-28.34
-33.03
-38.22
-43.19
-46.90
-48.13
-45.89
-39.71
-29.91
-17.46
-3.77
9.65
21.52
30.95
37.43
40.82
41.30
39.29
35.44
30.56
25.47
20.87
17.24
14.80
13.45
12.85
12.53
12.11
11.41
10.45
9.36
8.21
6.94
5.35
3.28
0.63
-2.55
-6.12
-9.95
-13.96
-18.13
-22.46
-26.95
-31.68
-36.71
-41.97
-47.07
-51.20
-53.15
-51.70
-46.05
-36.27
-23.35
-8.93
5.16
17.48
27.17
33.93
37.86
39.16
38.16
35.29
31.16
26.52
22.13
18.52
15.93
14.23
13.09
12.14
11.17
10.13
9.11
8.22
7.47
6.68
5.54
3.74
1.08
-2.42
-6.48
-10.70
-14.72
-18.33
-21.58
-24.67
-27.99
-31.89
-36.57
-41.86
-47.15
-51.35
-53.11
-51.22
-45.01
-34.66
-21.24
-6.44
7.91
20.37
30.11
36.96
41.14
42.96
42.66
40.43
36.60
31.76
26.77
22.51
19.58
18.05
17.49
17.23
16.74
15.84
14.69
13.60
12.68
11.78
10.46
8.28
5.00
0.75
-4.06
-8.88
-13.20
-16.71
-19.34
-21.33
-23.12
-25.39
-28.73
-33.46
-39.32
-45.37
-50.15
-52.03
-49.80
-43.00
-32.14
-18.48
-3.74
10.37
22.46
31.67
37.68
40.61
40.87
38.96
35.49
31.08
26.43
22.14
18.70
16.29
14.79
13.87
13.18
12.55
12.02
11.74
11.76
11.94
11.86
11.02
9.03
5.77
1.47
-3.36
-8.08
-12.16
-15.37
-17.82
-19.93
-22.28
-25.34
-29.31
-33.97
-38.63
-42.21
-43.47
-41.32
-35.24
-25.43
-12.93
0.69
13.67
24.59
32.60
37.48
39.48
39.08
36.81
33.14
28.54
23.51
18.52
14.06
10.49
8.01
6.57
5.98
5.91
5.98
5.87
5.32
4.16
2.27
-0.35
-3.62
-7.39
-11.35
-15.25
-18.83
-21.97
-24.70
-27.26
-30.06
-33.55
-38.00
-43.16
-48.19
-51.68
-52.03
-48.02
-39.30
-26.68
-11.83
3.14
16.43
26.85
33.97
37.89
39.00
37.82
34.91
30.93
26.56
22.42
18.88
16.04
13.79
11.94
10.41
9.26
8.61
8.43
8.51
8.43
7.71
6.03
3.31
-0.26
-4.28
-8.33
-12.06
-15.30
-18.09
-20.71
-23.60
-27.26
-32.07
-38.00
-44.36
-49.85
-52.81
-51.77
-45.99
-35.70
-22.09
-6.94
7.91
20.94
31.23
38.43
42.61
44.11
43.38
40.90
37.21
32.88
28.48
24.55
21.41
19.15
17.62
16.50
15.52
14.56
13.67
12.94
12.42
11.97
11.30
10.05
7.90
4.71
0.57
-4.19
-9.03
-13.40
-16.91
-19.55
-21.66
-23.89
-26.90
-31.10
-36.36
-41.94
-46.62
-48.98
-47.81
-42.47
-33.12
-20.67
-6.64
7.31
19.74
29.68
36.78
41.14
43.11
43.01
41.13
37.71
33.15
28.00
23.00
18.89
16.17
14.96
14.95
15.61
16.34
16.75
16.69
16.24
15.58
14.80
13.82
12.41
10.25
7.13
3.04
-1.71
-6.64
-11.23
-15.17
-18.43
-21.26
-23.96
-26.84
-30.05
-33.66
-37.65
-41.78
-45.57
-48.10
-48.28
-45.03
-37.82
-26.96
-13.62
0.45
13.51
24.31
32.31
37.54
40.29
40.86
39.46
36.36
32.05
27.30
22.92
19.53
17.32
16.03
15.19
14.35
13.38
12.43
11.79
11.60
11.74
11.76
11.06
9.20
6.00
1.69
-3.27
-8.27
-12.83
-16.66
-19.79
-22.46
-25.09
-28.13
-31.93
-36.54
-41.52
-45.95
-48.52
-47.96
-43.46
-34.99
-23.43
-10.20
3.06
15.02
24.87
32.31
37.32
39.94
40.17
38.06
33.93
28.50
22.75
17.68
13.98
11.79
10.76
10.33
10.02
9.60
9.10
8.65
8.23
7.67
6.65
4.86
2.12
-1.49
-5.76
-10.31
-14.79
-18.91
-22.61
-26.00
-29.37
-33.10
-37.48
-42.55
-47.96
-52.92
-56.34
-57.03
-54.09
-47.16
-36.61
-23.37
-8.79
5.67
18.67
29.16
36.50
40.50
41.39
39.80
36.58
32.62
28.67
25.28
22.69
20.88
19.60
18.46
17.12
15.40
13.37
11.31
9.58
8.35
7.44
6.38
4.56
1.50
-2.88
-8.20
-13.79
-18.90
-23.05
-26.20
-28.78
-31.50
-35.14
-40.12
-46.30
-52.78
-58.12
-60.64
-58.96
-52.47
-41.52
-27.30
-11.48
4.29
18.71
30.87
40.24
46.53
49.66
49.82
47.50
43.48
38.60
33.60
29.01
25.12
22.08
19.97
18.76
18.32
18.41
18.69
18.89
18.82
18.37
17.41
15.72
13.06
9.30
4.55
-0.77
-6.06
-10.86
-15.02
-18.77
-22.57
-26.89
-31.98
-37.78
-43.90
-49.61
-53.89
-55.61
-53.71
-47.53
-37.14
-23.39
-7.75
8.06
22.46
34.32
42.99
48.27
50.26
49.25
45.71
40.37
34.12
27.89
22.44
18.26
15.43
13.79
12.99
12.75
12.85
13.17
13.58
13.83
13.57
12.43
10.10
6.52
1.90
-3.37
-8.80
-14.00
-18.79
-23.29
-27.85
-32.92
-38.77
-45.32
-51.88
-57.23
-59.84
-58.23
-51.57
-39.90
-24.32
-6.75
10.63
25.91
37.84
45.97
50.50
51.93
50.80
47.60
42.78
36.83
30.41
24.26
19.10
15.44
13.47
12.99
13.58
14.64
15.54
15.72
14.74
12.37
8.63
3.80
-1.62
-7.07
-12.06
-16.37
-20.05
-23.46
-27.17
-31.73
-37.51
-44.42
-51.78
-58.26
-62.11
-61.59
-55.55
-43.87
-27.69
-9.10
9.43
25.77
38.59
47.52
52.86
55.18
54.92
52.43
48.03
42.28
36.00
30.18
25.56
22.44
20.60
19.49
18.62
17.73
16.86
16.12
15.45
14.48
12.71
9.75
5.55
0.43
-5.09
-10.55
-15.68
-20.53
-25.29
-30.24
-35.63
-41.48
-47.56
-53.12
-56.95
-57.58
-53.73
-44.78
-31.19
-14.47
3.25
19.75
33.31
42.97
48.56
50.47
49.40
46.19
41.67
36.61
31.64
27.22
23.59
20.79
18.70
17.15
15.96
15.05
14.37
13.87
13.46
12.95
12.03
10.35
7.62
3.76
-1.07
-6.42
-11.76
-16.56
-20.56
-23.80
-26.66
-29.75
-33.70
-38.79
-44.70
-50.39
-54.27
-54.61
-50.20
-40.80
-27.26
-11.38
4.76
19.27
30.92
39.19
44.09
45.94
45.16
42.22
37.69
32.26
26.67
21.56
17.39
14.30
12.24
11.05
10.53
10.48
10.70
10.91
10.76
9.93
8.18
5.49
1.98
-2.08
-6.40
-10.66
-14.58
-17.96
-20.75
-23.24
-25.99
-29.68
-34.69
-40.74
-46.63
-50.52
-50.52
-45.40
-35.17
-21.13
-5.42
9.70
22.50
32.11
38.45
41.84
42.67
41.26
37.89
33.00
27.25
21.45
16.32
12.35
9.59
7.82
6.71
5.95
5.40
4.96
4.48
3.73
2.43
0.33
-2.60
-6.17
-10.05
-13.87
-17.46
-20.86
-24.25
-27.97
-32.31
-37.35
-42.94
-48.46
-52.94
-55.13
-53.86
-48.40
-38.77
-25.85
-11.10
3.73
17.06
27.74
35.18
39.25
40.23
38.63
35.14
30.56
25.60
20.91
16.88
13.69
11.31
9.57
8.23
7.11
6.10
5.19
4.44
3.82
3.16
2.18
0.53
-2.03
-5.55
-9.83
-14.45
-18.94
-22.97
-26.47
-29.71
-33.16
-37.27
-42.14
-47.23
-51.37
-52.98
-50.68
-43.74
-32.52
-18.32
-3.03
11.47
23.71
32.91
38.86
41.77
42.07
40.29
36.98
32.72
28.06
23.50
19.45
16.25
14.06
12.83
12.32
12.15
11.97
11.58
10.96
10.13
9.03
7.46
5.13
1.88
-2.21
-6.71
-11.08
-14.90
-18.07
-20.90
-23.88
-27.49
-31.93
-36.96
-41.88
-45.67
-47.15
-45.29
-39.51
-29.90
-17.31
-3.20
10.70
22.82
32.09
38.05
40.79
40.74
38.48
34.64
29.85
24.81
20.13
16.30
13.58
11.94
11.16
10.94
11.01
11.22
11.47
11.63
11.48
10.76
9.17
6.57
3.05
-1.09
-5.42
-9.53
-13.16
-16.32
-19.28
-22.46
-26.30
-31.01
-36.30
-41.29
-44.59
-44.68
-40.49
-31.88
-19.78
-5.91
7.71
19.46
28.36
34.17
37.09
37.48
35.74
32.32
27.73
22.61
17.58
13.13
9.54
6.90
5.15
4.23
4.03
4.32
4.77
4.95
4.43
3.00
0.70
-2.23
-5.46
-8.70
-11.83
-14.86
-17.91
-21.17
-24.92
-29.39
-34.59
-40.13
-45.05
-48.01
-47.64
-43.05
-34.18
-21.98
-8.09
5.66
17.74
27.24
33.90
37.87
39.47
39.09
37.00
33.52
29.00
23.91
18.82
14.27
10.74
8.46
7.38
7.20
7.50
7.82
7.75
7.03
5.54
3.32
0.51
-2.65
-5.94
-9.17
-12.27
-15.32
-18.56
-22.27
-26.72
-31.97
-37.72
-43.27
-47.49
-49.10
-46.99
-40.63
-30.32
-17.16
-2.82
10.94
22.71
31.67
37.61
40.76
41.54
40.39
37.72
33.94
29.55
25.05
20.91
17.44
14.73
12.71
11.29
10.37
9.94
9.98
10.31
10.57
10.23
8.77
5.90
1.72
-3.29
-8.39
-12.85
-16.25
-18.59
-20.33
-22.17
-24.84
-28.72
-33.63
-38.83
-43.08
-45.01
-43.48
-37.95
-28.64
-16.46
-2.88
10.50
22.19
31.13
36.82
39.29
39.05
36.87
33.58
29.85
26.13
22.67
19.58
16.96
14.88
13.37
12.39
11.79
11.44
11.22
11.10
11.02
10.77
9.98
8.23
5.23
1.06
-3.79
-8.59
-12.68
-15.75
-18.00
-20.00
-22.43
-25.80
-30.16
-35.08
-39.64
-42.61
-42.75
-39.13
-31.42
-20.14
-6.56
7.54
20.35
30.48
37.21
40.51
40.88
39.08
35.89
31.97
27.85
23.90
20.32
17.18
14.49
12.24
10.44
9.18
8.50
8.39
8.63
8.81
8.43
7.02
4.32
0.37
-4.46
-9.59
-14.42
-18.51
-21.74
-24.39
-27.06
-30.46
-35.03
-40.69
-46.60
-51.29
-53.09
-50.64
-43.43
-31.96
-17.65
-2.40
11.93
23.90
32.70
38.07
40.23
39.71
37.22
33.56
29.48
25.54
22.08
19.14
16.63
14.41
12.36
10.54
9.06
8.04
7.47
7.18
6.80
5.94
4.28
1.68
-1.76
-5.79
-10.03
-14.16
-17.89
-21.14
-24.00
-26.83
-30.13
-34.32
-39.43
-44.86
-49.37
-51.37
-49.44
-42.88
-31.98
-18.02
-2.80
11.78
24.25
33.75
40.01
43.17
43.56
41.64
37.89
32.93
27.43
22.12
17.62
14.32
12.27
11.26
10.96
10.98
11.10
11.10
10.85
10.14
8.78
6.65
3.79
0.45
-3.02
-6.35
-9.41
-12.30
-15.27
-18.67
-22.84
-27.91
-33.74
-39.74
-44.93
-48.00
-47.71
-43.18
-34.32
-21.88
-7.41
7.15
19.99
29.79
36.02
38.82
38.86
36.95
33.85
30.12
26.08
21.99
18.08
14.62
11.90
10.10
9.25
9.11
9.29
9.33
8.87
7.76
6.03
3.87
1.49
-1.07
-3.88
-7.10
-10.90
-15.34
-20.43
-26.02
-31.85
-37.50
-42.26
-45.19
-45.29
-41.79
-34.50
-23.99
-11.47
1.46
13.31
23.05
30.18
34.66
36.63
36.35
34.08
30.18
25.14
19.63
14.34
9.87
6.61
4.68
3.98
4.15
4.72
5.09
4.74
3.39
1.02
-2.05
-5.42
-8.71
-11.80
-14.79
-17.94
-21.57
-25.94
-31.14
-36.98
-43.00
-48.28
-51.69
-51.98
-48.20
-40.09
-28.23
-14.07
0.53
13.75
24.30
31.62
35.84
37.46
37.11
35.30
32.36
28.55
24.13
19.48
15.14
11.59
9.21
8.04
7.82
8.01
7.97
7.18
5.41
2.78
-0.38
-3.67
-6.82
-9.71
-12.43
-15.17
-18.22
-21.91
-26.49
-32.02
-38.09
-43.71
-47.49
-47.92
-43.97
-35.42
-23.06
-8.51
6.28
19.52
29.92
36.86
40.38
40.97
39.35
36.31
32.54
28.55
24.63
20.90
17.44
14.35
11.82
10.04
9.14
9.01
9.35
9.63
9.29
7.95
5.48
2.08
-1.87
-5.94
-9.85
-13.51
-16.96
-20.34
-23.83
-27.59
-31.72
-36.15
-40.43
-43.68
-44.61
-41.95
-34.93
-23.71
-9.56
5.51
19.36
30.34
37.74
41.69
42.82
41.82
39.20
35.22
30.07
24.16
18.17
12.96
9.34
7.71
7.93
9.33
10.97
11.99
11.91
10.71
8.67
6.18
3.44
0.52
-2.65
-6.07
-9.60
-13.10
-16.56
-20.24
-24.57
-29.88
-36.03
-42.13
-46.71
-48.10
-45.12
-37.53
-26.19
-12.79
0.73
12.68
22.00
28.28
31.64
32.45
31.19
28.40
24.61
20.36
16.09
12.11
8.60
5.64
3.28
1.59
0.55
0.05
-0.13
-0.30
-0.72
-1.51
-2.63
-3.99
-5.58
-7.51
-9.96
-12.98
-16.53
-20.46
-24.73
-29.39
-34.44
-39.48
-43.54
-45.13
-42.77
-35.64
-24.13
-9.75
5.24
18.70
29.16
36.13
39.93
41.26
40.81
39.06
36.25
32.54
28.20
23.65
19.38
15.84
13.29
11.73
10.87
10.35
9.82
9.07
8.07
6.84
5.40
3.69
1.61
-0.95
-4.06
-7.70
-11.79
-16.20
-20.88
-25.83
-31.06
-36.43
-41.40
-44.94
-45.76
-42.73
-35.37
-24.15
-10.43
3.90
17.05
27.75
35.46
40.18
42.22
41.92
39.64
35.72
30.66
25.04
19.53
14.72
11.07
8.76
7.71
7.56
7.77
7.84
7.40
6.29
4.62
2.61
0.45
-1.79
-4.18
-6.90
-10.09
-13.86
-18.22
-23.12
-28.40
-33.64
-38.14
-40.86
-40.66
-36.69
-28.76
-17.63
-4.81
7.81
18.59
26.58
31.61
34.08
34.57
33.48
31.01
27.31
22.65
17.62
12.95
9.31
7.02
5.96
5.66
5.53
5.11
4.21
2.91
1.40
-0.15
-1.71
-3.46
-5.67
-8.62
-12.48
-17.24
-22.70
-28.38
-33.56
-37.27
-38.51
-36.49
-30.90
-22.05
-10.85
1.43
13.47
24.12
32.58
38.40
41.48
42.03
40.44
37.23
32.98
28.29
23.71
19.77
16.90
15.25
14.68
14.69
14.67
14.12
12.85
10.97
8.79
6.52
4.19
1.63
-1.38
-4.98
-9.21
-14.03
-19.31
-24.75
-29.71
-33.23
-34.16
-31.54
-25.08
-15.33
-3.61
8.42
19.20
27.67
33.34
36.19
36.46
34.45
30.56
25.33
19.44
13.68
8.69
4.90
2.39
0.93
0.15
-0.37
-1.01
-2.01
-3.49
-5.39
-7.58
-9.94
-12.39
-14.96
-17.67
-20.55
-23.61
-26.83
-30.14
-33.37
-36.11
-37.64
-37.04
-33.45
-26.49
-16.52
-4.65
7.53
18.54
27.30
33.42
37.00
38.36
37.73
35.26
31.10
25.65
19.64
14.02
9.73
7.28
6.61
7.11
7.86
8.08
7.37
5.81
3.78
1.66
-0.41
-2.57
-5.12
-8.35
-12.36
-17.07
-22.26
-27.69
-32.97
-37.55
-40.63
-41.25
-38.65
-32.57
-23.47
-12.48
-1.05
9.44
17.98
24.09
27.68
28.89
27.99
25.33
21.39
16.72
11.99
7.75
4.35
1.95
0.47
-0.28
-0.60
-0.83
-1.37
-2.57
-4.66
-7.64
-11.22
-14.94
-18.30
-20.94
-22.79
-24.07
-25.27
-26.94
-29.44
-32.76
-36.32
-39.06
-39.66
-36.99
-30.51
-20.52
-8.07
5.29
18.03
28.88
37.09
42.34
44.70
44.51
42.23
38.45
33.71
28.47
23.01
17.46
11.98
6.82
2.48
-0.44
-1.43
-0.43
2.11
5.24
7.83
8.98
8.27
5.88
2.43
-1.29
-4.63
-7.15
-8.69
-9.34
-9.37
-9.24
-9.40
-10.06
-10.94
-11.23
-9.78
-5.46
2.31
13.30
26.40
39.99
52.29
61.78
67.46
68.96
66.51
60.88
53.24
44.80
36.59
29.20
22.66
16.67
10.74
4.54
-2.07
-8.99
-16.06
-23.00
-29.57
-35.46
-40.40
-44.28
-47.31
-50.05
-53.13
-56.96
-61.48
-66.02
-69.64
-71.53
-71.54
-70.29
-68.93
-68.56
-69.56
-71.25
-72.04
-70.05
-63.81
-52.95
-38.29
-21.53
-4.65
10.74
23.69
33.87
41.30
46.07
48.25
48.04
45.83
42.35
38.45
34.86
32.01
29.93
28.43
27.27
26.28
25.43
24.70
24.00
23.11
21.79
19.83
17.18
13.90
10.18
6.24
2.24
-1.68
-5.50
-9.35
-13.47
-18.16
-23.63
-29.74
-35.88
-40.88
-43.30
-41.83
-35.81
-25.56
-12.37
1.90
15.37
26.73
35.47
41.70
45.85
48.25
49.00
48.13
45.82
42.53
38.95
35.68
32.99
30.74
28.53
26.03
23.16
20.22
17.57
15.47
13.82
12.18
10.06
7.17
3.49
-0.69
-5.08
-9.52
-14.12
-19.14
-24.85
-31.44
-38.96
-47.30
-56.14
-64.82
-72.28
-77.20
-78.27
-74.66
-66.34
-54.21
-39.86
-25.07
-11.38
0.21
9.27
15.81
19.98
22.00
22.13
20.75
18.42
15.85
13.71
12.43
12.05
12.17
12.25
11.81
10.74
9.37
8.30
8.09
8.94
10.53
12.09
12.69
11.72
9.15
5.53
1.77
-1.33
-3.48
-5.08
-7.02
-10.29
-15.57
-22.92
-31.79
-41.15
-49.68
-55.97
-58.77
-57.26
-51.33
-41.70
-29.81
-17.47
-6.31
2.59
8.79
12.41
13.80
13.25
10.99
7.30
2.66
-2.12
-6.12
-8.52
-8.90
-7.40
-4.55
-1.09
2.33
5.35
7.87
9.97
11.72
13.04
13.68
13.36
11.94
9.53
6.46
3.22
0.24
-2.25
-4.29
-6.21
-8.48
-11.57
-15.72
-20.78
-26.07
-30.44
-32.49
-30.97
-25.30
-15.78
-3.57
9.61
22.08
32.56
40.47
45.79
48.79
49.80
49.05
46.74
43.14
38.67
33.91
29.43
25.62
22.62
20.36
18.62
17.32
16.49
16.19
16.36
16.63
16.40
15.03
12.15
7.83
2.53
-3.15
-8.70
-13.89
-18.80
-23.65
-28.68
-34.07
-39.84
-45.73
-51.13
-55.06
-56.40
-54.16
-47.92
-37.99
-25.38
-11.55
2.04
14.22
24.25
31.81
36.84
39.42
39.77
38.20
35.19
31.38
27.48
24.08
21.52
19.83
18.74
17.89
16.99
15.95
14.82
13.71
12.57
11.17
9.14
6.21
2.34
-2.20
-6.89
-11.17
-14.68
-17.42
-19.75
-22.23
-25.50
-29.86
-35.26
-41.06
-46.21
-49.42
-49.47
-45.56
-37.56
-26.07
-12.30
2.16
15.78
27.34
36.09
41.82
44.69
45.09
43.46
40.27
35.95
31.03
26.09
21.73
18.37
16.12
14.67
13.41
11.65
8.98
5.38
1.30
-2.60
-5.77
-8.05
-9.70
-11.25
-13.25
-15.99
-19.38
-23.00
-26.31
-28.95
-30.83
-32.28
-33.83
-36.10
-39.44
-43.81
-48.53
-52.43
-54.04
-52.00
-45.53
-34.73
-20.64
-4.93
10.48
23.93
34.28
41.03
44.25
44.40
42.23
38.60
34.38
30.30
26.78
23.95
21.68
19.77
18.02
16.37
14.83
13.51
12.47
11.71
11.16
10.54
9.56
7.86
5.28
1.89
-1.95
-5.74
-8.96
-11.34
-12.88
-13.97
-15.27
-17.48
-21.06
-25.89
-31.23
-35.71
-37.74
-36.02
-30.01
-20.17
-7.78
5.45
17.90
28.36
36.25
41.45
44.16
44.68
43.31
40.41
36.44
31.96
27.58
23.82
20.92
18.89
17.54
16.64
15.98
15.46
15.04
14.58
13.88
12.64
10.51
7.28
2.95
-2.22
-7.73
-12.99
-17.49
-21.02
-23.73
-26.17
-29.08
-33.18
-38.83
-45.81
-53.16
-59.37
-62.68
-61.65
-55.64
-45.07
-31.31
-16.22
-1.64
11.14
21.51
29.43
35.08
38.65
40.23
39.88
37.86
34.71
31.19
28.09
26.00
25.06
24.96
25.12
24.94
24.04
22.41
20.32
18.12
16.08
14.20
12.21
9.77
6.55
2.41
-2.50
-7.84
-13.11
-17.89
-21.98
-25.51
-28.87
-32.65
-37.32
-43.07
-49.61
-56.21
-61.77
-65.04
-64.87
-60.55
-52.00
-39.86
-25.41
-10.23
4.20
16.76
26.83
34.20
38.90
41.05
40.84
38.69
35.27
31.41
27.99
25.61
24.51
24.50
25.09
25.69
25.83
25.24
23.99
22.35
20.63
19.05
17.55
15.83
13.52
10.34
6.26
1.54
-3.37
-8.03
-12.15
-15.65
-18.74
-21.72
-24.97
-28.80
-33.36
-38.54
-43.85
-48.42
-51.12
-50.81
-46.73
-38.78
-27.69
-14.83
-1.82
9.93
19.55
26.75
31.69
34.69
36.02
35.87
34.48
32.20
29.55
27.10
25.30
24.30
23.99
24.02
24.00
23.69
23.01
22.03
20.85
19.43
17.55
14.86
11.13
6.37
0.92
-4.60
-9.53
-13.42
-16.19
-18.12
-19.76
-21.74
-24.61
-28.69
-33.85
-39.45
-44.31
-47.01
-46.24
-41.30
-32.35
-20.40
-6.97
6.34
18.23
27.91
35.02
39.53
41.53
41.24
39.02
35.36
30.91
26.33
22.20
18.87
16.40
14.55
12.97
11.27
9.26
6.94
4.50
2.23
0.27
-1.46
-3.31
-5.75
-9.15
-13.56
-18.62
-23.73
-28.31
-31.99
-34.86
-37.33
-39.98
-43.24
-47.30
-51.98
-56.75
-60.81
-63.15
-62.69
-58.59
-50.45
-38.61
-24.11
-8.48
6.66
19.97
30.70
38.64
44.03
47.30
48.87
49.12
48.37
46.90
45.05
43.10
41.24
39.57
38.04
36.52
34.87
32.98
30.79
28.28
25.40
22.09
18.34
14.22
9.88
5.53
1.32
-2.69
-6.57
-10.36
-14.03
-17.41
-20.39
-22.94
-25.25
-27.69
-30.66
-34.47
-39.19
-44.59
-50.07
-54.70
-57.28
-56.64
-52.03
-43.37
-31.42
-17.57
-3.44
9.59
20.62
29.31
35.70
39.95
42.29
42.93
42.13
40.29
37.93
35.62
33.88
32.99
32.96
33.48
34.05
34.21
33.65
32.30
30.30
27.83
25.00
21.79
18.08
13.76
8.86
3.61
-1.65
-6.53
-10.82
-14.54
-18.01
-21.71
-26.11
-31.55
-38.09
-45.54
-53.40
-60.89
-66.98
-70.52
-70.53
-66.48
-58.61
-47.84
-35.53
-23.09
-11.60
-1.65
6.53
12.95
17.59
20.50
21.77
21.74
20.93
20.03
19.58
19.90
20.92
22.30
23.55
24.29
24.30
23.59
22.36
20.80
19.09
17.22
15.12
12.66
9.76
6.44
2.83
-0.83
-4.35
-7.56
-10.44
-13.11
-15.90
-19.25
-23.61
-29.17
-35.63
-42.07
-47.00
-48.83
-46.38
-39.43
-28.85
-16.35
-3.95
6.72
14.78
20.16
23.35
24.96
25.43
24.94
23.54
21.41
18.98
16.82
15.49
15.20
15.78
16.75
17.59
18.03
18.09
17.98
17.90
17.81
17.43
16.33
14.16
10.78
6.39
1.40
-3.66
-8.33
-12.35
-15.70
-18.66
-21.66
-25.29
-30.03
-36.16
-43.48
-51.22
-58.06
-62.37
-62.67
-58.14
-48.94
-36.19
-21.58
-6.92
6.37
17.43
25.92
31.77
35.01
35.68
34.02
30.56
26.10
21.68
18.19
16.25
15.92
16.84
18.35
19.80
20.77
21.06
20.78
20.11
19.24
18.31
17.27
15.96
14.15
11.61
8.31
4.39
0.17
-3.99
-7.85
-11.36
-14.66
-18.02
-21.71
-25.87
-30.43
-35.05
-39.06
-41.53
-41.43
-37.95
-30.79
-20.43
-8.01
4.91
16.86
26.82
34.39
39.59
42.63
43.71
42.95
40.49
36.65
31.98
27.13
22.70
19.05
16.26
14.21
12.69
11.57
10.80
10.38
10.24
10.18
9.81
8.70
6.49
3.12
-1.08
-5.53
-9.58
-12.77
-15.02
-16.64
-18.26
-20.56
-24.10
-29.07
-35.11
-41.24
-46.02
-47.90
-45.68
-39.02
-28.52
-15.60
-1.99
10.73
21.50
29.85
35.70
39.14
40.25
39.17
36.21
31.90
27.01
22.35
18.52
15.78
14.07
13.07
12.41
11.80
11.08
10.19
9.15
7.95
6.51
4.74
2.49
-0.33
-3.74
-7.62
-11.72
-15.76
-19.46
-22.60
-25.12
-27.09
-28.86
-30.90
-33.73
-37.62
-42.28
-46.71
-49.43
-48.90
-44.16
-35.20
-23.04
-9.30
4.27
16.35
26.23
33.68
38.81
41.72
42.56
41.52
38.92
35.25
31.11
27.05
23.46
20.51
18.20
16.36
14.78
13.27
11.73
10.18
8.74
7.54
6.63
5.91
5.11
3.94
2.22
-0.02
-2.56
-5.16
-7.66
-10.09
-12.64
-15.49
-18.75
-22.41
-26.39
-30.70
-35.34
-40.09
-44.40
-47.33
-47.73
-44.69
-37.89
-27.85
-15.85
-3.50
7.70
16.82
23.55
28.08
30.71
31.65
30.86
28.22
23.75
17.87
11.43
5.55
1.29
-0.69
-0.36
1.76
4.80
7.82
10.07
11.02
10.42
8.26
4.73
0.19
-4.91
-10.09
-14.95
-19.22
-22.85
-25.97
-28.70
-31.16
-33.32
-35.01
-36.04
-36.37
-36.21
-36.06
-36.50
-37.77
-39.54
-40.71
-39.79
-35.41
-26.97
-15.00
-0.97
13.27
26.15
36.80
45.05
51.14
55.30
57.54
57.71
55.75
51.96
47.01
41.80
37.15
33.44
30.61
28.24
25.89
23.36
20.84
18.75
17.39
16.72
16.24
15.25
13.20
10.08
6.38
2.87
0.17
-1.58
-2.68
-3.70
-5.17
-7.41
-10.52
-14.43
-18.93
-23.56
-27.61
-30.12
-30.16
-27.16
-21.14
-12.78
-3.13
6.69
15.75
23.40
29.27
33.03
34.43
33.35
29.97
24.86
18.92
13.22
8.62
5.55
3.86
2.93
2.01
0.44
-2.03
-5.25
-8.79
-12.17
-15.07
-17.43
-19.34
-21.00
-22.54
-24.06
-25.62
-27.27
-29.11
-31.24
-33.72
-36.53
-39.70
-43.29
-47.40
-52.01
-56.75
-60.81
-63.00
-62.10
-57.30
-48.64
-37.02
-23.96
-11.07
0.45
10.07
17.85
24.15
29.29
33.38
36.35
38.12
38.75
38.50
37.66
36.42
34.78
32.62
29.80
26.40
22.66
18.92
15.48
12.51
9.99
7.82
5.80
3.72
1.37
-1.34
-4.36
-7.38
-10.00
-11.90
-13.03
-13.69
-14.37
-15.59
-17.65
-20.57
-24.02
-27.45
-30.17
-31.39
-30.45
-26.94
-20.88
-12.85
-3.78
5.22
13.18
19.42
23.60
25.59
25.44
23.33
19.66
15.10
10.46
6.54
3.87
2.55
2.25
2.36
2.33
1.89
1.13
0.42
0.14
0.46
1.23
2.02
2.35
1.99
0.98
-0.35
-1.59
-2.47
-3.04
-3.59
-4.56
-6.35
-9.19
-12.96
-17.20
-21.09
-23.62
-23.84
-21.13
-15.44
-7.39
1.90
11.12
19.13
25.28
29.39
31.69
32.53
32.30
31.23
29.53
27.40
25.10
22.93
21.18
19.99
19.35
19.16
19.31
19.72
20.39
21.31
22.40
23.46
24.24
24.46
23.97
22.75
20.96
18.90
16.95
15.41
14.37
13.61
12.72
11.17
8.65
5.09
0.70
-4.18
-9.19
-14.03
-18.44
-22.08
-24.63
-25.82
-25.66
-24.42
-22.68
-21.11
-20.25
-20.39
-21.52
-23.35
-25.38
-26.96
-27.45
-26.32
-23.37
-18.81
-13.29
-7.74
-3.09
-0.07
1.01
0.25
-1.89
-4.80
-7.91
-10.87
-13.54
-16.01
-18.41
-20.85
-23.37
-25.99
-28.77
-31.78
-35.03
-38.27
-40.93
-42.15
-41.08
-37.13
-30.22
-20.84
-9.89
1.57
12.49
21.96
29.32
34.17
36.40
36.23
34.17
30.93
27.29
23.98
21.63
20.64
21.15
22.96
25.48
27.88
29.28
29.01
26.85
22.97
17.85
12.03
6.00
0.10
-5.37
-10.05
-13.53
-15.47
-15.73
-14.60
-12.70
-10.93
-10.14
-10.91
-13.34
-17.06
-21.23
-24.77
-26.60
-25.87
-22.25
-15.99
-7.89
0.89
9.19
16.11
21.23
24.54
26.29
26.75
26.13
24.52
22.06
19.02
15.87
13.11
11.18
10.27
10.29
10.99
12.06
13.27
14.54
15.86
17.22
18.55
19.71
20.56
20.97
20.95
20.57
19.95
19.17
18.24
17.10
15.69
13.88
11.58
8.79
5.66
2.51
-0.19
-1.91
-2.28
-1.18
1.22
4.55
8.35
12.23
15.87
19.04
21.49
23.04
23.60
23.18
21.95
20.17
18.12
16.05
14.19
12.71
11.72
11.17
10.85
10.45
9.64
8.13
5.80
2.63
-1.30
-5.86
-10.85
-16.02
-21.02
-25.46
-28.98
-31.41
-32.84
-33.64
-34.44
-35.88
-38.32
-41.56
-44.76
-46.66
-45.92
-41.73
-34.14
-24.03
-12.81
-1.95
7.46
14.83
20.01
23.11
24.27
23.73
21.80
19.01
16.04
13.52
11.85
11.10
10.94
10.95
10.77
10.27
9.63
9.15
9.03
9.30
9.66
9.69
8.98
7.22
4.34
0.43
-4.25
-9.36
-14.56
-19.58
-24.31
-28.81
-33.26
-37.75
-42.11
-45.78
-47.92
-47.60
-44.23
-37.79
-28.93
-18.77
-8.56
0.72
8.63
15.25
20.91
25.97
30.53
34.41
37.32
39.09
39.75
39.57
38.83
37.73
36.24
34.15
31.17
27.03
21.53
14.46
5.55
-5.32
-17.96
-31.48
-44.33
-54.55
-60.32
-60.61
-55.46
-46.00
-34.12
-21.90
-11.20
-3.31
1.17
2.27
0.70
-2.38
-5.46
-7.07
-6.06
-1.89
5.22
14.45
24.57
34.24
42.37
48.32
52.02
53.78
54.10
53.39
51.84
49.38
45.86
41.19
35.55
29.32
23.06
17.31
12.43
8.54
5.53
3.17
1.23
-0.44
-1.88
-3.10
-4.08
-4.86
-5.58
-6.41
-7.49
-8.88
-10.51
-12.20
-13.80
-15.33
-16.92
-18.75
-20.77
-22.53
-23.16
-21.66
-17.33
-10.16
-1.00
8.75
17.56
24.32
28.58
30.46
30.33
28.49
25.06
20.12
13.94
7.10
0.41
-5.36
-9.71
-12.50
-13.88
-14.10
-13.43
-12.07
-10.34
-8.61
-7.32
-6.79
-7.06
-7.95
-9.08
-10.05
-10.64
-10.84
-10.85
-10.94
-11.42
-12.44
-13.85
-15.16
-15.55
-14.07
-9.95
-2.88
6.92
18.69
31.41
43.92
55.27
64.67
71.64
75.99
77.80
77.36
75.05
71.21
66.10
59.94
53.00
45.68
38.48
31.82
25.94
20.80
16.23
12.05
8.17
4.57
1.12
-2.60
-7.19
-13.29
-21.17
-30.46
-40.25
-49.38
-56.96
-62.73
-67.00
-70.36
-73.16
-75.13
-75.46
-73.18
-67.68
-59.07
-48.22
-36.45
-25.13
-15.27
-7.41
-1.70
1.98
3.81
4.03
2.91
0.77
-2.01
-5.02
-7.87
-10.21
-11.80
-12.56
-12.52
-11.87
-10.85
-9.72
-8.69
-7.88
-7.38
-7.23
-7.50
-8.27
-9.62
-11.57
-14.03
-16.82
-19.74
-22.68
-25.70
-28.98
-32.61
-36.38
-39.59
-41.14
-39.94
-35.33
-27.40
-17.05
-5.64
5.41
15.05
22.65
27.98
30.99
31.79
30.59
27.86
24.24
20.46
17.06
14.30
12.17
10.52
9.23
8.31
7.84
7.81
8.03
8.11
7.63
6.30
4.12
1.32
-1.72
-4.65
-7.28
-9.56
-11.60
-13.63
-15.93
-18.81
-22.43
-26.66
-30.92
-34.25
-35.50
-33.78
-28.78
-20.97
-11.46
-1.67
7.14
14.13
19.04
21.98
23.28
23.28
22.21
20.24
17.54
14.35
10.96
7.71
4.89
2.72
1.30
0.58
0.39
0.46
0.56
0.46
0.04
-0.81
-2.14
-4.03
-6.50
-9.48
-12.75
-16.07
-19.24
-22.26
-25.31
-28.60
-32.09
-35.28
-37.24
-36.90
-33.51
-26.98
-18.00
-7.79
2.32
11.25
18.40
23.56
26.72
27.98
27.45
25.38
22.19
18.44
14.72
11.47
8.93
7.08
5.80
4.96
4.45
4.17
4.00
3.74
3.15
1.99
0.15
-2.35
-5.33
-8.57
-11.82
-14.95
-17.99
-21.06
-24.41
-28.15
-32.14
-35.87
-38.50
-39.05
-36.74
-31.28
-23.05
-12.96
-2.25
7.92
16.67
23.48
28.17
30.72
31.25
29.95
27.19
23.45
19.36
15.49
12.26
9.84
8.21
7.22
6.70
6.54
6.65
6.93
7.16
7.10
6.48
5.16
3.12
0.50
-2.44
-5.44
-8.30
-10.98
-13.63
-16.59
-20.23
-24.65
-29.52
-33.99
-36.88
-37.07
-33.87
-27.32
-18.08
-7.26
3.95
14.51
23.60
30.65
35.31
37.49
37.35
35.29
31.96
28.01
24.06
20.52
17.61
15.38
13.77
12.67
11.99
11.66
11.63
11.77
11.93
11.90
11.49
10.58
9.06
6.82
3.77
-0.10
-4.63
-9.38
-13.74
-17.08
-19.10
-20.01
-20.52
-21.58
-23.95
-27.79
-32.53
-36.94
-39.50
-38.90
-34.43
-26.25
-15.34
-3.22
8.52
18.61
26.35
31.58
34.51
35.40
34.51
32.10
28.55
24.43
20.41
17.05
14.66
13.19
12.40
11.94
11.63
11.42
11.33
11.34
11.28
10.90
9.96
8.35
6.08
3.31
0.28
-2.77
-5.61
-8.13
-10.26
-12.13
-13.97
-16.09
-18.79
-22.18
-26.00
-29.62
-32.06
-32.32
-29.68
-23.93
-15.56
-5.59
4.72
14.19
21.98
27.65
31.14
32.56
32.09
29.97
26.53
22.24
17.69
13.47
9.98
7.40
5.66
4.55
3.89
3.58
3.56
3.74
3.91
3.76
3.00
1.43
-0.91
-3.85
-7.09
-10.38
-13.48
-16.25
-18.63
-20.74
-22.88
-25.45
-28.78
-32.81
-36.96
-40.15
-41.11
-38.86
-33.07
-24.22
-13.37
-1.83
9.20
18.78
26.33
31.51
34.19
34.47
32.65
29.28
25.03
20.60
16.59
13.37
11.06
9.56
8.63
8.01
7.57
7.29
7.24
7.43
7.62
7.38
6.24
3.88
0.38
-3.78
-7.92
-11.45
-14.12
-16.03
-17.58
-19.23
-21.41
-24.38
-28.20
-32.60
-36.86
-39.92
-40.55
-37.80
-31.34
-21.76
-10.33
1.32
11.83
20.39
26.82
31.29
33.99
34.96
34.12
31.47
27.31
22.30
17.31
13.13
10.22
8.61
7.94
7.75
7.64
7.43
7.12
6.78
6.42
5.95
5.15
3.73
1.53
-1.44
-4.95
-8.57
-11.86
-14.51
-16.48
-17.96
-19.37
-21.09
-23.44
-26.49
-30.05
-33.56
-36.18
-36.91
-34.91
-29.77
-21.69
-11.52
-0.48
10.17
19.41
26.64
31.59
34.22
34.62
33.05
29.94
25.89
21.57
17.64
14.52
12.36
11.02
10.24
9.72
9.28
8.92
8.74
8.81
9.05
9.20
8.86
7.72
5.66
2.85
-0.34
-3.49
-6.33
-8.77
-10.94
-13.07
-15.42
-18.20
-21.55
-25.45
-29.58
-33.30
-35.67
-35.74
-32.79
-26.69
-17.94
-7.60
2.93
12.42
19.94
25.11
27.99
28.91
28.23
26.29
23.33
19.67
15.75
12.07
9.14
7.16
6.03
5.39
4.84
4.16
3.34
2.56
1.89
1.26
0.39
-1.03
-3.18
-5.97
-9.16
-12.44
-15.55
-18.37
-20.94
-23.42
-26.06
-29.07
-32.42
-35.75
-38.28
-39.06
-37.24
-32.43
-24.84
-15.28
-4.87
5.23
14.10
21.13
26.02
28.68
29.21
27.89
25.19
21.73
18.11
14.87
12.31
10.50
9.29
8.49
7.85
7.26
6.67
6.08
5.51
4.95
4.32
3.52
2.39
0.79
-1.43
-4.32
-7.77
-11.56
-15.31
-18.67
-21.55
-24.12
-26.81
-29.98
-33.57
-36.99
-39.12
-38.75
-35.12
-28.16
-18.59
-7.58
3.61
13.95
22.71
29.48
33.98
36.04
35.73
33.36
29.50
24.89
20.24
16.16
12.98
10.78
9.40
8.58
8.06
7.63
7.24
6.92
6.70
6.50
6.11
5.24
3.65
1.29
-1.63
-4.76
-7.72
-10.31
-12.59
-14.81
-17.26
-20.17
-23.60
-27.41
-31.24
-34.53
-36.51
-36.31
-33.18
-26.79
-17.46
-6.18
5.61
16.43
25.14
31.20
34.58
35.60
34.66
32.18
28.52
24.13
19.54
15.29
11.86
9.52
8.29
7.97
8.27
8.90
9.62
10.24
10.53
10.29
9.33
7.55
4.98
1.82
-1.60
-4.93
-7.86
-10.26
-12.23
-14.11
-16.38
-19.46
-23.53
-28.26
-32.87
-36.15
-36.91
-34.36
-28.39
-19.61
-9.14
1.77
12.02
20.79
27.52
31.87
33.70
33.12
30.56
26.71
22.40
18.28
14.77
11.98
9.78
8.03
6.66
5.66
4.98
4.59
4.32
3.98
3.41
2.45
1.00
-0.96
-3.38
-6.14
-9.05
-11.89
-14.56
-17.05
-19.51
-22.19
-25.36
-29.10
-33.19
-36.98
-39.48
-39.65
-36.67
-30.35
-21.18
-10.26
1.05
11.55
20.39
27.19
31.89
34.53
35.17
33.96
31.22
27.45
23.32
19.43
16.19
13.74
12.01
10.81
9.97
9.38
8.94
8.58
8.19
7.65
6.83
5.58
3.75
1.27
-1.82
-5.32
-8.88
-12.12
-14.80
-16.92
-18.73
-20.66
-23.15
-26.37
-30.13
-33.76
-36.22
-36.39
-33.43
-27.09
-17.88
-6.98
4.18
14.28
22.45
28.36
32.06
33.82
33.85
32.32
29.42
25.50
21.11
16.89
13.45
11.16
10.04
9.88
10.26
10.78
11.19
11.39
11.37
11.16
10.71
9.90
8.57
6.63
4.08
1.06
-2.20
-5.43
-8.41
-11.04
-13.37
-15.53
-17.72
-20.11
-22.88
-26.04
-29.37
-32.37
-34.18
-33.86
-30.62
-24.16
-14.89
-3.87
7.43
17.60
25.61
30.99
33.77
34.30
33.03
30.38
26.78
22.65
18.49
14.78
11.91
10.08
9.24
9.16
9.49
9.89
10.13
10.11
9.78
9.11
8.02
6.40
4.19
1.41
-1.75
-5.01
-8.13
-10.94
-13.48
-15.97
-18.70
-21.93
-25.65
-29.51
-32.79
-34.59
-34.09
-30.77
-24.68
-16.36
-6.77
3.04
12.13
19.77
25.47
29.00
30.27
29.41
26.79
22.97
18.62
14.39
10.77
7.99
6.06
4.83
4.14
3.85
3.87
4.10
4.37
4.37
3.78
2.33
-0.01
-3.04
-6.36
-9.53
-12.29
-14.57
-16.52
-18.39
-20.47
-22.96
-26.03
-29.63
-33.50
-37.02
-39.26
-39.18
-35.99
-29.43
-19.98
-8.75
2.80
13.27
21.65
27.50
30.89
32.16
31.71
29.89
27.00
23.44
19.70
16.32
13.71
11.96
10.83
9.91
8.89
7.72
6.66
6.09
6.16
6.72
7.20
6.93
5.38
2.42
-1.65
-6.22
-10.58
-14.19
-16.79
-18.53
-19.82
-21.27
-23.41
-26.49
-30.25
-34.01
-36.70
-37.22
-34.81
-29.28
-21.06
-11.09
-0.50
9.67
18.58
25.68
30.64
33.28
33.63
31.92
28.60
24.30
19.72
15.47
11.94
9.29
7.47
6.31
5.67
5.45
5.61
6.10
6.82
7.52
7.95
7.79
6.84
5.04
2.46
-0.69
-4.13
-7.51
-10.56
-13.07
-15.06
-16.76
-18.56
-20.88
-23.93
-27.59
-31.34
-34.31
-35.56
-34.30
-30.13
-23.21
-14.16
-3.94
6.36
15.75
23.47
29.04
32.24
33.11
31.95
29.21
25.54
21.60
17.92
14.82
12.33
10.31
8.56
6.99
5.68
4.85
4.69
5.20
6.14
7.05
7.41
6.82
5.11
2.38
-1.04
-4.76
-8.41
-11.74
-14.70
-17.42
-20.17
-23.25
-26.75
-30.45
-33.75
-35.78
-35.69
-32.94
-27.48
-19.74
-10.55
-0.90
8.26
16.11
22.07
25.78
27.23
26.68
24.67
21.84
18.78
15.84
13.19
10.82
8.72
6.93
5.52
4.54
3.91
3.43
2.91
2.19
1.24
0.09
-1.25
-2.87
-4.87
-7.34
-10.15
-13.03
-15.65
-17.84
-19.72
-21.67
-24.18
-27.52
-31.53
-35.52
-38.42
-39.05
-36.55
-30.63
-21.74
-10.93
0.39
10.87
19.49
25.80
29.78
31.72
31.93
30.60
27.96
24.33
20.27
16.49
13.61
11.85
11.00
10.52
9.94
9.07
8.12
7.48
7.37
7.71
8.02
7.67
6.21
3.54
-0.06
-4.07
-7.92
-11.29
-14.05
-16.36
-18.55
-20.98
-23.95
-27.52
-31.44
-35.08
-37.57
-37.94
-35.48
-29.94
-21.67
-11.57
-0.81
9.51
18.54
25.72
30.78
33.60
34.19
32.70
29.51
25.22
20.56
16.27
12.87
10.66
9.60
9.45
9.86
10.45
10.97
11.27
11.28
10.98
10.36
9.36
7.94
6.07
3.74
1.00
-2.06
-5.30
-8.53
-11.52
-14.08
-16.14
-17.81
-19.42
-21.31
-23.75
-26.74
-29.94
-32.69
-34.17
-33.48
-29.95
-23.34
-14.01
-2.93
8.54
18.99
27.38
33.18
36.38
37.24
36.10
33.29
29.18
24.31
19.40
15.20
12.26
10.70
10.23
10.31
10.44
10.37
10.15
9.99
10.02
10.19
10.22
9.70
8.27
5.76
2.25
-1.93
-6.27
-10.26
-13.51
-15.86
-17.53
-19.02
-20.94
-23.73
-27.31
-31.01
-33.74
-34.35
-32.01
-26.55
-18.47
-8.70
1.58
11.28
19.48
25.54
29.14
30.29
29.32
26.78
23.30
19.45
15.65
12.21
9.32
7.09
5.57
4.69
4.30
4.23
4.34
4.55
4.80
4.98
4.85
4.13
2.60
0.19
-2.89
-6.26
-9.50
-12.26
-14.47
-16.29
-18.11
-20.36
-23.37
-27.29
-31.85
-36.43
-40.04
-41.58
-40.11
-35.17
-26.94
-16.26
-4.41
7.18
17.28
25.10
30.25
32.84
33.19
31.76
29.04
25.48
21.54
17.62
14.19
11.58
10.01
9.37
9.34
9.45
9.31
8.77
7.94
7.05
6.31
5.68
4.91
3.64
1.65
-1.05
-4.15
-7.21
-9.83
-11.87
-13.47
-15.04
-17.05
-19.83
-23.43
-27.45
-31.21
-33.76
-34.23
-32.02
-26.93
-19.28
-9.79
0.52
10.55
19.32
26.14
30.67
32.92
33.12
31.63
28.80
25.03
20.73
16.38
12.54
9.68
8.06
7.65
8.05
8.75
9.25
9.32
9.02
8.63
8.37
8.25
7.99
7.08
5.08
1.91
-2.10
-6.25
-9.84
-12.41
-13.95
-14.84
-15.67
-16.97
-19.08
-22.04
-25.59
-29.10
-31.74
-32.53
-30.64
-25.64
-17.73
-7.77
2.98
13.17
21.73
28.03
31.95
33.66
33.47
31.72
28.76
25.00
20.92
17.09
14.00
11.92
10.82
10.36
10.13
9.82
9.40
9.03
8.89
8.97
8.97
8.39
6.79
4.05
0.45
-3.46
-7.14
-10.19
-12.58
-14.49
-16.23
-18.12
-20.45
-23.36
-26.86
-30.66
-34.14
-36.42
-36.60
-34.01
-28.49
-20.43
-10.75
-0.59
8.91
16.83
22.60
26.03
27.26
26.67
24.76
22.04
18.97
15.91
13.15
10.87
9.16
8.01
7.29
6.80
6.33
5.76
5.07
4.33
3.61
2.91
2.11
1.00
-0.63
-2.87
-5.65
-8.72
-11.72
-14.38
-16.59
-18.47
-20.34
-22.54
-25.41
-29.03
-33.20
-37.25
-40.21
-40.96
-38.60
-32.82
-24.04
-13.40
-2.32
7.85
16.20
22.41
26.59
29.05
30.08
29.88
28.55
26.23
23.15
19.75
16.49
13.88
12.25
11.63
11.80
12.31
12.71
12.66
12.09
11.11
9.91
8.62
7.29
5.85
4.19
2.21
-0.16
-2.88
-5.79
-8.68
-11.27
-13.40
-15.02
-16.34
-17.65
-19.36
-21.78
-25.01
-28.92
-33.07
-36.76
-39.06
-39.05
-35.99
-29.69
-20.57
-9.66
1.68
12.13
20.71
26.92
30.69
32.21
31.81
29.89
26.97
23.57
20.21
17.26
14.89
13.08
11.75
10.83
10.28
10.06
10.07
10.16
10.11
9.81
9.23
8.39
7.35
6.06
4.45
2.39
-0.13
-3.05
-6.18
-9.25
-12.04
-14.41
-16.35
-17.98
-19.47
-21.05
-22.93
-25.28
-28.11
-31.24
-34.15
-36.02
-35.91
-33.04
-27.14
-18.63
-8.50
1.93
11.47
19.30
25.06
28.76
30.58
30.74
29.49
27.07
23.82
20.12
16.40
13.08
10.47
8.77
8.03
8.13
8.81
9.74
10.62
11.22
11.45
11.20
10.40
8.88
6.56
3.45
-0.25
-4.15
-7.83
-10.95
-13.42
-15.37
-17.15
-19.10
-21.51
-24.42
-27.65
-30.83
-33.43
-34.83
-34.42
-31.73
-26.56
-19.14
-10.11
-0.46
8.80
16.83
23.11
27.48
29.96
30.58
29.43
26.64
22.58
17.86
13.27
9.53
7.02
5.74
5.39
5.56
5.93
6.32
6.66
6.88
6.84
6.39
5.36
3.69
1.36
-1.52
-4.76
-8.16
-11.45
-14.44
-17.02
-19.27
-21.45
-23.90
-26.97
-30.76
-35.03
-39.07
-41.87
-42.41
-39.93
-34.28
-25.87
-15.62
-4.65
5.93
15.20
22.48
27.35
29.67
29.54
27.30
23.45
18.59
13.33
8.28
3.97
0.83
-0.93
-1.36
-0.74
0.55
2.22
4.11
6.20
8.43
10.61
12.42
13.48
13.55
12.58
10.75
8.39
5.88
3.58
1.69
0.24
-0.98
-2.36
-4.34
-7.27
-11.25
-16.02
-20.98
-25.30
-28.02
-28.38
-25.87
-20.52
-12.84
-3.76
5.60
14.14
21.01
25.70
28.00
28.00
25.98
22.43
17.99
13.37
9.20
5.93
3.75
2.57
2.16
2.28
2.72
3.39
4.28
5.33
6.46
7.48
8.15
8.21
7.53
6.07
3.99
1.50
-1.19
-3.92
-6.61
-9.22
-11.76
-14.32
-17.07
-20.16
-23.59
-27.02
-29.63
-30.38
-28.23
-22.70
-14.11
-3.53
7.57
17.77
26.11
32.22
36.10
37.95
37.92
36.14
32.82
28.40
23.58
19.15
15.70
13.43
12.15
11.42
10.87
10.38
10.03
9.91
9.90
9.60
8.48
6.23
2.92
-0.97
-4.80
-8.10
-10.78
-13.13
-15.65
-18.73
-22.57
-27.00
-31.62
-35.77
-38.65
-39.41
-37.33
-32.08
-23.89
-13.60
-2.51
7.94
16.61
22.86
26.64
28.31
28.34
27.18
25.11
22.36
19.15
15.81
12.67
9.99
7.86
6.29
5.18
4.50
4.29
4.55
5.17
5.84
6.11
5.51
3.70
0.61
-3.46
-7.94
-12.17
-15.63
-18.14
-19.94
-21.57
-23.68
-26.71
-30.67
-35.09
-39.02
-41.34
-40.99
-37.30
-30.19
-20.24
-8.62
3.22
13.89
22.33
28.04
31.03
31.70
30.64
28.41
25.48
22.20
18.88
15.82
13.29
11.48
10.39
9.85
9.54
9.21
8.75
8.26
7.89
7.72
7.58
7.05
5.68
3.21
-0.23
-4.16
-7.95
-11.12
-13.51
-15.35
-17.11
-19.27
-22.12
-25.68
-29.57
-33.14
-35.53
-35.85
-33.41
-27.95
-19.74
-9.61
1.29
11.73
20.66
27.45
31.82
33.84
33.80
32.10
29.18
25.50
21.50
17.60
14.18
11.55
9.84
9.02
8.86
9.06
9.31
9.42
9.30
8.93
8.30
7.37
6.08
4.42
2.47
0.28
-2.03
-4.42
-6.87
-9.36
-11.88
-14.43
-17.08
-19.90
-22.95
-26.16
-29.26
-31.79
-33.16
-32.81
-30.23
-25.24
-17.94
-8.87
1.09
10.87
19.45
26.09
30.43
32.53
32.63
31.11
28.33
24.68
20.65
16.77
13.52
11.21
9.90
9.40
9.37
9.44
9.38
9.13
8.79
8.43
8.06
7.49
6.45
4.70
2.17
-0.97
-4.35
-7.58
-10.38
-12.76
-14.93
-17.26
-20.11
-23.67
-27.88
-32.27
-36.10
-38.30
-37.92
-34.31
-27.47
-18.10
-7.41
3.25
12.68
20.13
25.27
28.10
28.79
27.64
25.05
21.57
17.85
14.45
11.73
9.75
8.33
7.15
5.97
4.76
3.71
3.06
2.93
3.16
3.39
3.12
2.01
-0.01
-2.76
-5.90
-9.06
-12.01
-14.61
-16.89
-19.04
-21.38
-24.25
-27.85
-31.99
-36.03
-38.94
-39.62
-37.28
-31.70
-23.27
-12.86
-1.63
9.26
18.75
26.07
30.83
32.98
32.83
30.87
27.69
23.84
19.85
16.22
13.32
11.32
10.12
9.32
8.45
7.19
5.50
3.68
2.19
1.33
1.12
1.23
1.13
0.28
-1.57
-4.36
-7.72
-11.18
-14.37
-17.08
-19.38
-21.48
-23.69
-26.30
-29.42
-32.89
-36.20
-38.53
-38.92
-36.58
-31.19
-23.05
-13.08
-2.49
7.52
16.06
22.66
27.15
29.54
29.90
28.39
25.33
21.31
17.02
13.21
10.38
8.70
7.97
7.82
7.86
7.83
7.62
7.23
6.71
6.09
5.38
4.51
3.37
1.81
-0.27
-2.87
-5.81
-8.86
-11.70
-14.13
-16.04
-17.61
-19.11
-20.98
-23.58
-27.06
-31.16
-35.18
-38.06
-38.66
-36.17
-30.37
-21.71
-11.22
-0.24
10.01
18.63
25.15
29.53
31.89
32.47
31.50
29.21
25.92
22.14
18.51
15.59
13.73
12.91
12.79
12.91
12.92
12.73
12.46
12.32
12.37
12.51
12.47
11.92
10.65
8.58
5.83
2.59
-0.89
-4.32
-7.46
-10.11
-12.18
-13.73
-15.04
-16.50
-18.53
-21.40
-25.07
-29.10
-32.72
-34.89
-34.64
-31.36
-24.99
-16.09
-5.71
4.91
14.61
22.55
28.26
31.61
32.73
31.92
29.62
26.32
22.64
19.14
16.27
14.25
13.04
12.46
12.24
12.17
12.08
11.95
11.76
11.47
10.99
10.13
8.76
6.78
4.21
1.22
-1.99
-5.23
-8.40
-11.48
-14.54
-17.67
-20.93
-24.33
-27.76
-30.99
-33.56
-34.87
-34.24
-31.18
-25.57
-17.79
-8.66
0.80
9.63
17.10
22.76
26.47
28.23
28.16
26.52
23.68
20.09
16.31
12.83
10.00
8.00
6.76
6.09
5.75
5.57
5.50
5.59
5.87
6.20
6.22
5.47
3.61
0.61
-3.21
-7.28
-11.06
-14.26
-16.91
-19.29
-21.79
-24.73
-28.24
-32.15
-35.97
-38.90
-39.94
-38.26
-33.40
-25.55
-15.55
-4.62
5.99
15.27
22.65
27.92
31.07
32.23
31.57
29.39
26.05
22.04
17.86
13.95
10.65
8.14
6.42
5.38
4.86
4.73
4.88
5.24
5.61
5.68
5.08
3.52
0.92
-2.49
-6.21
-9.71
-12.59
-14.77
-16.45
-18.09
-20.18
-23.05
-26.74
-30.80
-34.43
-36.58
-36.25
-32.87
-26.42
-17.49
-7.08
3.67
13.66
22.06
28.34
32.32
34.07
33.86
32.11
29.28
25.79
22.02
18.33
15.07
12.51
10.81
10.00
9.87
10.14
10.47
10.57
10.29
9.56
8.35
6.66
4.45
1.69
-1.57
-5.16
-8.88
-12.50
-16.02
-19.55
-23.29
-27.23
-30.99
-33.79
-34.59
-32.54
-27.26
-19.08
-8.95
1.83
11.89
20.17
26.03
29.33
30.32
29.46
27.26
24.14
20.42
16.35
12.25
8.51
5.55
3.64
2.78
2.65
2.78
2.74
2.34
1.66
0.84
-0.01
-0.97
-2.23
-4.00
-6.38
-9.35
-12.88
-16.95
-21.52
-26.35
-30.87
-34.16
-35.15
-33.03
-27.56
-19.21
-9.07
1.46
11.13
19.09
25.02
29.01
31.27
31.98
31.17
28.88
25.25
20.72
15.98
11.80
8.75
7.05
6.49
6.63
6.93
7.01
6.75
6.18
5.40
4.44
3.15
1.33
-1.24
-4.61
-8.67
-13.16
-17.82
-22.42
-26.69
-30.20
-32.30
-32.26
-29.52
-23.99
-16.19
-7.15
1.96
10.21
17.01
22.19
25.71
27.53
27.54
25.73
22.32
17.85
13.12
8.91
5.72
3.69
2.54
1.81
1.02
-0.10
-1.59
-3.25
-4.81
-6.11
-7.15
-8.21
-9.70
-12.04
-15.53
-20.17
-25.57
-30.98
-35.38
-37.72
-37.25
-33.64
-27.16
-18.53
-8.79
1.00
9.92
17.31
22.76
26.10
27.34
26.60
24.22
20.64
16.43
12.23
8.60
5.93
4.37
3.76
3.68
3.63
3.19
2.20
0.77
-0.80
-2.22
-3.42
-4.53
-5.92
-7.92
-10.75
-14.38
-18.52
-22.71
-26.28
-28.52
-28.71
-26.35
-21.27
-13.79
-4.66
5.00
14.05
21.55
26.93
30.04
31.04
30.24
27.97
24.61
20.58
16.39
12.61
9.69
7.87
7.07
6.96
7.20
7.51
7.78
7.98
7.98
7.56
6.44
4.47
1.75
-1.39
-4.53
-7.35
-9.82
-12.14
-14.62
-17.53
-20.91
-24.47
-27.61
-29.52
-29.38
-26.53
-20.77
-12.48
-2.58
7.68
17.03
24.52
29.67
32.44
33.11
32.01
29.52
26.00
21.92
17.86
14.40
11.97
10.69
10.34
10.47
10.62
10.52
10.15
9.59
8.92
8.09
6.93
5.24
3.01
0.39
-2.33
-4.89
-7.16
-9.25
-11.38
-13.78
-16.61
-19.91
-23.58
-27.28
-30.46
-32.32
-32.01
-28.84
-22.65
-13.95
-3.86
6.18
14.84
21.23
25.04
26.44
25.84
23.79
20.78
17.32
13.90
10.91
8.57
6.84
5.51
4.35
3.23
2.19
1.34
0.76
0.35
-0.16
-1.05
-2.50
-4.51
-6.98
-9.72
-12.57
-15.39
-18.09
-20.63
-23.09
-25.69
-28.65
-32.01
-35.43
-38.11
-39.04
-37.31
-32.51
-24.90
-15.37
-5.06
4.90
13.67
20.74
25.88
29.02
30.19
29.51
27.23
23.77
19.69
15.61
12.12
9.61
8.13
7.49
7.30
7.19
6.97
6.64
6.26
5.85
5.28
4.35
2.90
0.89
-1.56
-4.27
-7.05
-9.75
-12.26
-14.48
-16.39
-18.06
-19.74
-21.77
-24.48
-28.01
-32.09
-35.93
-38.43
-38.38
-34.98
-28.12
-18.50
-7.39
3.75
13.69
21.64
27.24
30.47
31.47
30.57
28.28
25.24
22.11
19.35
17.14
15.43
14.07
13.04
12.38
12.11
12.13
12.22
12.12
11.67
10.90
9.96
8.93
7.77
6.29
4.28
1.70
-1.31
-4.44
-7.39
-9.98
-12.14
-13.94
-15.49
-16.93
-18.50
-20.45
-23.01
-26.20
-29.74
-32.92
-34.76
-34.32
-31.02
-24.86
-16.44
-6.74
3.11
12.14
19.67
25.29
28.91
30.60
30.54
29.04
26.47
23.27
19.89
16.78
14.25
12.50
11.59
11.46
11.92
12.65
13.34
13.70
13.52
12.80
11.69
10.35
8.93
7.45
5.80
3.85
1.54
-1.04
-3.69
-6.20
-8.42
-10.37
-12.23
-14.21
-16.54
-19.37
-22.71
-26.41
-30.12
-33.28
-35.17
-35.02
-32.25
-26.63
-18.48
-8.63
1.74
11.45
19.51
25.41
29.04
30.68
30.72
29.60
27.66
25.20
22.46
19.68
17.09
14.82
12.94
11.44
10.28
9.45
8.94
8.76
8.81
8.91
8.74
7.96
6.29
3.62
0.09
-3.97
-8.10
-11.83
-14.87
-17.15
-18.94
-20.66
-22.85
-25.83
-29.57
-33.53
-36.78
-38.23
-37.03
-32.80
-25.73
-16.54
-6.26
4.01
13.24
20.65
25.73
28.33
28.62
27.11
24.50
21.50
18.67
16.32
14.48
13.03
11.78
10.58
9.41
8.31
7.42
6.85
6.63
6.63
6.54
5.94
4.41
1.73
-2.01
-6.40
-10.86
-14.89
-18.19
-20.83
-23.11
-25.46
-28.20
-31.46
-35.08
-38.61
-41.36
-42.47
-41.21
-37.05
-29.96
-20.48
-9.60
1.46
11.57
19.89
25.99
29.77
31.36
31.00
29.06
26.01
22.43
18.94
16.06
14.10
13.03
12.62
12.47
12.23
11.65
10.67
9.32
7.77
6.17
4.64
3.19
1.65
-0.27
-2.76
-5.84
-9.29
-12.72
-15.80
-18.40
-20.67
-22.97
-25.66
-29.01
-32.99
-37.20
-40.92
-43.24
-43.22
-40.19
-33.97
-24.94
-14.01
-2.33
8.91
18.77
26.60
32.09
35.20
36.09
35.08
32.64
29.30
25.64
22.23
19.49
17.70
16.81
16.56
16.54
16.35
15.79
14.88
13.77
12.60
11.41
10.10
8.55
6.70
4.64
2.53
0.50
-1.50
-3.62
-6.13
-9.15
-12.64
-16.30
-19.71
-22.54
-24.71
-26.45
-28.27
-30.64
-33.74
-37.16
-39.95
-40.87
-38.83
-33.35
-24.74
-14.02
-2.59
8.16
17.26
24.24
29.08
32.04
33.37
33.30
31.97
29.54
26.30
22.71
19.32
16.63
14.91
14.11
13.95
14.07
14.18
14.13
13.92
13.59
13.18
12.63
11.85
10.70
9.03
6.69
3.63
-0.04
-4.02
-7.85
-11.11
-13.64
-15.52
-17.07
-18.69
-20.65
-23.07
-25.91
-28.94
-31.78
-33.81
-34.22
-32.22
-27.36
-19.75
-10.18
0.10
9.79
17.91
23.95
27.90
29.99
30.47
29.54
27.42
24.45
21.11
17.95
15.43
13.73
12.67
11.90
11.08
10.08
9.04
8.23
7.85
7.80
7.74
7.20
5.78
3.39
0.18
-3.49
-7.23
-10.72
-13.80
-16.45
-18.82
-21.21
-23.97
-27.41
-31.57
-36.05
-39.97
-42.17
-41.57
-37.58
-30.32
-20.66
-9.89
0.64
9.93
17.46
23.08
26.88
28.93
29.30
28.06
25.47
22.00
18.29
14.95
12.41
10.75
9.81
9.30
8.92
8.54
8.15
7.78
7.43
6.96
6.18
4.87
2.88
0.21
-3.03
-6.61
-10.32
-13.95
-17.41
-20.70
-23.96
-27.39
-31.17
-35.31
-39.53
-43.17
-45.33
-45.09
-41.80
-35.37
-26.28
-15.48
-4.14
6.67
16.17
23.86
29.48
32.95
34.27
33.57
31.16
27.58
23.52
19.76
16.92
15.25
14.65
14.69
14.84
14.69
14.05
12.98
11.68
10.32
8.95
7.47
5.70
3.46
0.65
-2.68
-6.35
-10.06
-13.50
-16.42
-18.79
-20.79
-22.79
-25.22
-28.40
-32.36
-36.68
-40.52
-42.78
-42.36
-38.50
-31.09
-20.73
-8.61
3.85
15.28
24.69
31.52
35.64
37.18
36.50
34.10
30.61
26.66
22.82
19.48
16.87
15.10
14.22
14.20
14.87
15.90
16.78
17.06
16.48
15.08
13.18
11.13
9.16
7.22
5.09
2.51
-0.62
-4.18
-7.92
-11.56
-14.85
-17.68
-20.02
-21.93
-23.55
-25.15
-27.09
-29.73
-33.16
-37.08
-40.67
-42.73
-42.03
-37.74
-29.75
-18.81
-6.31
6.08
16.87
25.12
30.55
33.37
34.08
33.23
31.33
28.76
25.86
22.96
20.40
18.48
17.35
16.96
17.04
17.26
17.29
16.96
16.28
15.39
14.42
13.39
12.17
10.54
8.23
5.12
1.28
-3.00
-7.32
-11.21
-14.37
-16.69
-18.36
-19.75
-21.31
-23.40
-26.21
-29.65
-33.37
-36.75
-38.95
-39.05
-36.27
-30.18
-21.06
-9.80
2.18
13.35
22.51
28.97
32.67
33.93
33.24
31.13
28.06
24.53
21.00
17.91
15.58
14.09
13.21
12.60
11.91
10.98
9.90
8.92
8.30
8.09
8.05
7.70
6.54
4.19
0.62
-3.80
-8.50
-12.86
-16.42
-19.05
-20.86
-22.23
-23.63
-25.57
-28.42
-32.27
-36.77
-41.14
-44.29
-45.16
-43.01
-37.62
-29.35
-19.00
-7.62
3.70
14.01
22.55
28.81
32.65
34.19
33.84
32.11
29.54
26.58
23.65
21.05
19.07
17.79
17.12
16.79
16.47
15.87
14.88
13.58
12.16
10.79
9.54
8.31
6.92
5.17
2.98
0.33
-2.62
-5.72
-8.81
-11.78
-14.56
-17.10
-19.36
-21.32
-23.03
-24.70
-26.70
-29.39
-32.95
-37.10
-40.97
-43.30
-42.81
-38.61
-30.63
-19.59
-6.94
5.70
16.84
25.56
31.53
34.93
36.25
36.09
34.95
33.19
31.03
28.60
26.06
23.62
21.49
19.83
18.63
17.74
16.91
15.95
14.80
13.55
12.33
11.23
10.26
9.25
8.05
6.53
4.65
2.39
-0.25
-3.26
-6.56
-9.98
-13.27
-16.16
-18.50
-20.29
-21.70
-23.01
-24.56
-26.65
-29.45
-32.87
-36.39
-39.16
-40.03
-37.98
-32.46
-23.62
-12.40
-0.15
11.63
21.77
29.52
34.64
37.21
37.58
36.23
33.71
30.54
27.19
23.99
21.15
18.84
17.19
16.24
15.97
16.15
16.49
16.62
16.34
15.59
14.51
13.26
11.88
10.33
8.40
5.92
2.82
-0.79
-4.63
-8.37
-11.73
-14.57
-16.85
-18.67
-20.17
-21.62
-23.27
-25.41
-28.21
-31.58
-35.05
-37.74
-38.57
-36.63
-31.49
-23.45
-13.41
-2.63
7.67
16.54
23.43
28.18
30.90
31.85
31.36
29.76
27.32
24.32
21.05
17.90
15.25
13.41
12.46
12.20
12.29
12.35
12.17
11.66
10.91
9.96
8.78
7.23
5.22
2.71
-0.15
-3.17
-6.10
-8.83
-11.33
-13.67
-15.93
-18.11
-20.20
-22.19
-24.13
-26.23
-28.80
-32.11
-36.10
-40.35
-43.97
-45.85
-44.98
-40.80
-33.38
-23.45
-12.16
-0.80
9.52
18.04
24.40
28.56
30.67
30.99
29.90
27.83
25.26
22.66
20.37
18.54
17.15
16.05
15.08
14.16
13.29
12.58
12.08
11.80
11.62
11.35
10.79
9.76
8.16
5.95
3.17
-0.05
-3.56
-7.15
-10.59
-13.68
-16.29
-18.42
-20.22
-21.91
-23.80
-26.16
-29.10
-32.55
-36.15
-39.24
-40.95
-40.41
-37.00
-30.63
-21.76
-11.33
-0.51
9.60
18.17
24.73
29.06
31.19
31.35
29.93
27.48
24.51
21.45
18.56
16.01
13.92
12.43
11.64
11.51
11.82
12.24
12.49
12.45
12.21
11.92
11.66
11.29
10.55
9.13
6.87
3.84
0.29
-3.44
-7.05
-10.33
-13.22
-15.73
-17.93
-19.93
-21.91
-24.13
-26.82
-30.07
-33.62
-36.83
-38.73
-38.33
-34.96
-28.49
-19.47
-8.96
1.77
11.60
19.75
25.86
29.89
32.04
32.58
31.79
29.94
27.32
24.25
21.04
18.00
15.36
13.23
11.62
10.53
9.91
9.69
9.82
10.12
10.36
10.24
9.46
7.83
5.29
1.95
-1.95
-6.07
-10.05
-13.59
-16.56
-19.01
-21.25
-23.66
-26.66
-30.44
-34.82
-39.19
-42.61
-44.00
-42.50
-37.75
-30.01
-20.12
-9.24
1.43
10.93
18.67
24.42
28.16
30.04
30.21
28.91
26.42
23.17
19.63
16.28
13.54
11.61
10.51
10.00
9.75
9.44
8.88
8.05
7.02
5.89
4.63
3.09
1.03
-1.71
-5.14
-9.03
-12.98
-16.56
-19.52
-21.88
-23.99
-26.35
-29.40
-33.33
-37.87
-42.31
-45.61
-46.64
-44.47
-38.70
-29.57
-18.02
-5.44
6.66
17.01
24.86
30.05
32.88
33.85
33.44
31.96
29.61
26.60
23.25
19.99
17.30
15.53
14.71
14.58
14.68
14.55
13.97
12.97
11.77
10.61
9.56
8.40
6.82
4.50
1.41
-2.24
-6.07
-9.67
-12.81
-15.48
-17.86
-20.18
-22.75
-25.80
-29.47
-33.70
-38.05
-41.70
-43.57
-42.61
-38.13
-30.20
-19.57
-7.58
4.26
14.67
22.86
28.59
32.08
33.77
34.08
33.32
31.68
29.28
26.38
23.29
20.45
18.16
16.59
15.64
15.07
14.62
14.11
13.51
12.90
12.42
12.07
11.70
10.98
9.50
6.97
3.44
-0.73
-4.90
-8.44
-11.02
-12.76
-14.09
-15.64
-17.90
-21.09
-25.14
-29.65
-33.96
-37.19
-38.37
-36.65
-31.58
-23.30
-12.57
-0.66
11.05
21.37
29.50
35.06
38.05
38.64
37.17
34.06
29.88
25.28
20.91
17.34
14.89
13.61
13.22
13.24
13.21
12.78
11.89
10.70
9.46
8.35
7.36
6.25
4.67
2.37
-0.72
-4.41
-8.34
-12.09
-15.36
-18.00
-20.10
-21.91
-23.82
-26.18
-29.22
-32.89
-36.70
-39.84
-41.26
-39.98
-35.42
-27.63
-17.35
-5.79
5.63
15.70
23.61
29.03
32.03
32.91
32.08
29.98
26.99
23.51
19.96
16.70
14.10
12.36
11.47
11.25
11.32
11.30
10.91
10.12
9.11
8.12
7.24
6.32
5.02
2.99
0.11
-3.44
-7.26
-10.92
-14.11
-16.75
-18.91
-20.79
-22.61
-24.64
-27.16
-30.33
-34.10
-38.01
-41.17
-42.47
-40.88
-35.85
-27.49
-16.59
-4.45
7.50
18.00
26.21
31.76
34.74
35.50
34.53
32.34
29.39
26.06
22.68
19.56
16.96
15.10
14.07
13.78
14.01
14.38
14.53
14.22
13.40
12.21
10.82
9.35
7.79
6.03
3.95
1.52
-1.18
-4.00
-6.80
-9.48
-11.97
-14.22
-16.21
-17.94
-19.52
-21.21
-23.33
-26.15
-29.66
-33.34
-36.23
-37.13
-35.02
-29.48
-20.91
-10.41
0.62
10.85
19.36
25.73
29.93
32.13
32.58
31.54
29.31
26.26
22.75
19.16
15.81
12.97
10.83
9.48
8.93
9.10
9.84
10.90
11.99
12.74
12.87
12.18
10.71
8.62
6.21
3.72
1.31
-1.04
-3.42
-5.91
-8.47
-10.97
-13.19
-14.99
-16.37
-17.53
-18.80
-20.58
-23.11
-26.42
-30.17
-33.68
-36.03
-36.27
-33.72
-28.15
-19.87
-9.71
1.18
11.57
20.44
27.11
31.33
33.20
33.10
31.51
28.93
25.75
22.33
18.95
15.94
13.54
11.89
10.97
10.59
10.48
10.42
10.29
10.09
9.81
9.36
8.58
7.21
5.06
2.07
-1.55
-5.44
-9.17
-12.35
-14.82
-16.62
-17.97
-19.25
-20.83
-23.03
-26.01
-29.71
-33.74
-37.41
-39.77
-39.83
-36.88
-30.70
-21.72
-10.94
0.33
10.81
19.53
25.95
30.01
31.94
32.09
30.83
28.45
25.21
21.41
17.46
13.85
11.06
9.34
8.65
8.66
8.86
8.80
8.27
7.35
6.28
5.27
4.37
3.41
2.05
0.04
-2.71
-6.00
-9.49
-12.79
-15.66
-18.07
-20.13
-22.06
-24.11
-26.44
-29.20
-32.41
-35.89
-39.20
-41.59
-42.07
-39.75
-34.15
-25.41
-14.45
-2.67
8.45
17.71
24.51
28.81
30.93
31.34
30.39
28.39
25.61
22.35
19.01
16.02
13.71
12.19
11.38
11.00
10.80
10.54
10.17
9.73
9.27
8.75
8.01
6.87
5.12
2.72
-0.20
-3.36
-6.55
-9.59
-12.43
-15.11
-17.65
-20.05
-22.35
-24.70
-27.28
-30.27
-33.62
-36.89
-39.30
-39.89
-37.83
-32.67
-24.55
-14.18
-2.73
8.50
18.31
25.88
30.88
33.38
33.75
32.45
29.96
26.71
23.14
19.71
16.80
14.70
13.38
12.63
12.17
11.79
11.46
11.30
11.41
11.72
11.98
11.76
10.70
8.58
5.43
1.52
-2.75
-6.89
-10.53
-13.49
-15.83
-17.87
-20.07
-22.84
-26.40
-30.55
-34.67
-37.76
-38.68
-36.50
-30.88
-22.21
-11.62
-0.58
9.57
17.95
24.29
28.73
31.50
32.75
32.45
30.62
27.48
23.52
19.40
15.70
12.78
10.68
9.20
8.08
7.17
6.40
5.88
5.65
5.67
5.64
5.14
3.74
1.24
-2.24
-6.24
-10.16
-13.49
-16.10
-18.18
-20.16
-22.50
-25.48
-29.19
-33.49
-37.95
-41.89
-44.34
-44.24
-40.70
-33.48
-23.12
-10.92
1.44
12.50
21.31
27.60
31.56
33.51
33.70
32.30
29.55
25.83
21.77
18.02
15.09
13.16
12.06
11.44
10.89
10.23
9.48
8.84
8.50
8.48
8.58
8.42
7.57
5.73
2.88
-0.78
-4.85
-8.92
-12.61
-15.70
-18.19
-20.28
-22.36
-24.90
-28.27
-32.54
-37.23
-41.37
-43.62
-42.75
-38.06
-29.66
-18.53
-6.16
5.87
16.31
24.48
30.17
33.50
34.65
33.87
31.49
27.99
23.99
20.15
17.01
14.87
13.75
13.43
13.61
13.96
14.25
14.37
14.31
14.10
13.75
13.20
12.23
10.58
8.04
4.66
0.77
-3.09
-6.40
-8.91
-10.69
-12.10
-13.60
-15.61
-18.37
-21.92
-26.07
-30.38
-34.15
-36.46
-36.33
-33.04
-26.41
-16.95
-5.78
5.69
16.12
24.55
30.46
33.81
34.81
33.82
31.26
27.64
23.55
19.60
16.31
14.03
12.78
12.33
12.28
12.26
12.03
11.54
10.91
10.23
9.50
8.50
6.94
4.57
1.34
-2.56
-6.70
-10.61
-13.95
-16.57
-18.62
-20.45
-22.51
-25.23
-28.82
-33.16
-37.67
-41.33
-42.96
-41.53
-36.55
-28.25
-17.58
-5.92
5.30
14.93
22.36
27.39
30.14
30.90
29.97
27.73
24.63
21.15
17.81
14.98
12.90
11.59
10.95
10.78
10.84
10.87
10.66
10.10
9.19
8.03
6.70
5.23
3.53
1.46
-1.03
-3.89
-6.96
-10.06
-13.02
-15.74
-18.10
-20.04
-21.59
-22.92
-24.38
-26.41
-29.32
-33.01
-36.85
-39.81
-40.70
-38.55
-32.94
-24.18
-13.20
-1.35
10.02
19.79
27.30
32.32
34.94
35.44
34.20
31.66
28.33
24.76
21.46
18.76
16.80
15.49
14.65
14.13
13.87
13.87
14.00
14.08
13.80
12.97
11.63
9.98
8.30
6.79
5.36
3.72
1.57
-1.24
-4.57
-8.05
-11.28
-13.99
-16.13
-17.85
-19.40
-21.06
-23.06
-25.59
-28.64
-31.95
-34.91
-36.65
-36.21
-32.91
-26.53
-17.56
-6.99
3.92
13.96
22.29
28.45
32.34
34.10
33.94
32.13
29.01
25.05
20.82
16.91
13.84
11.85
10.90
10.74
10.99
11.29
11.45
11.40
11.20
10.96
10.72
10.45
9.96
8.98
7.22
4.56
1.17
-2.54
-6.01
-8.81
-10.78
-12.15
-13.35
-14.89
-17.09
-20.04
-23.56
-27.27
-30.62
-32.93
-33.50
-31.76
-27.36
-20.39
-11.37
-1.20
9.07
18.35
25.79
30.84
33.31
33.36
31.43
28.14
24.17
20.09
16.35
13.21
10.80
9.08
7.98
7.33
6.96
6.72
6.55
6.38
6.17
5.78
4.97
3.48
1.13
-2.07
-5.83
-9.69
-13.12
-15.72
-17.37
-18.33
-19.16
-20.58
-23.17
-27.07
-31.79
-36.27
-39.19
-39.34
-36.12
-29.65
-20.74
-10.56
-0.30
9.06
16.88
22.82
26.81
28.89
29.21
27.98
25.49
22.14
18.43
14.87
11.89
9.68
8.16
7.08
6.15
5.23
4.38
3.81
3.62
3.75
3.86
3.50
2.29
0.09
-2.96
-6.48
-10.00
-13.13
-15.65
-17.57
-19.11
-20.64
-22.56
-25.23
-28.74
-32.81
-36.77
-39.63
-40.33
-38.07
-32.54
-24.09
-13.65
-2.52
8.06
17.08
24.03
28.78
31.48
32.35
31.60
29.45
26.21
22.37
18.53
15.33
13.19
12.20
12.07
12.22
12.13
11.48
10.29
8.94
7.88
7.40
7.42
7.49
6.98
5.37
2.53
-1.21
-5.26
-9.01
-12.09
-14.48
-16.42
-18.23
-20.18
-22.44
-25.14
-28.32
-31.87
-35.32
-37.80
-38.15
-35.34
-28.94
-19.38
-7.92
3.73
14.03
21.99
27.34
30.35
31.52
31.25
29.79
27.35
24.20
20.74
17.53
15.01
13.43
12.70
12.54
12.58
12.56
12.42
12.24
12.08
11.87
11.36
10.21
8.16
5.20
1.58
-2.25
-5.86
-8.90
-11.29
-13.13
-14.73
-16.46
-18.62
-21.42
-24.79
-28.35
-31.45
-33.22
-32.79
-29.54
-23.30
-14.46
-3.94
7.03
17.18
25.50
31.44
34.87
35.96
35.04
32.44
28.53
23.80
18.84
14.32
10.79
8.51
7.39
7.07
7.15
7.32
7.43
7.42
7.12
6.30
4.67
2.11
-1.23
-4.90
-8.42
-11.43
-13.85
-15.89
-17.95
-20.43
-23.63
-27.61
-32.10
-36.45
-39.70
-40.72
-38.58
-32.86
-23.95
-12.93
-1.27
9.55
18.44
24.85
28.73
30.31
29.94
27.99
24.84
20.95
16.83
12.98
9.77
7.40
5.79
4.74
4.03
3.45
2.89
2.23
1.37
0.23
-1.24
-3.07
-5.18
-7.49
-9.93
-12.48
-15.20
-18.21
-21.68
-25.74
-30.32
-35.02
-39.04
-41.25
-40.53
-36.21
-28.36
-17.88
-6.22
5.05
14.70
22.05
26.92
29.47
29.94
28.67
26.01
22.46
18.62
15.01
12.00
9.69
7.95
6.59
5.42
4.41
3.56
2.89
2.33
1.73
0.89
-0.33
-2.03
-4.18
-6.71
-9.53
-12.52
-15.66
-18.96
-22.45
-26.11
-29.72
-32.79
-34.56
-34.21
-31.13
-25.11
-16.56
-6.38
4.21
14.00
22.01
27.67
30.85
31.76
30.84
28.54
25.30
21.49
17.44
13.48
9.99
7.26
5.47
4.60
4.42
4.58
4.69
4.46
3.72
2.48
0.86
-0.95
-2.82
-4.67
-6.59
-8.78
-11.54
-15.09
-19.51
-24.56
-29.64
-33.81
-36.01
-35.30
-31.24
-24.00
-14.44
-3.81
6.55
15.60
22.75
27.85
31.00
32.38
32.13
30.42
27.50
23.79
19.88
16.36
13.68
12.07
11.47
11.55
11.90
12.10
11.90
11.19
10.02
8.51
6.75
4.82
2.72
0.40
-2.29
-5.52
-9.47
-14.10
-19.02
-23.41
-26.22
-26.41
-23.39
-17.22
-8.67
1.07
10.70
19.16
25.71
29.94
31.72
31.15
28.50
24.27
19.19
14.05
9.60
6.31
4.30
3.30
2.82
2.33
1.46
0.17
-1.32
-2.70
-3.75
-4.49
-5.25
-6.47
-8.56
-11.75
-16.03
-21.08
-26.30
-30.85
-33.72
-33.96
-30.93
-24.60
-15.66
-5.36
4.78
13.37
19.56
23.06
24.13
23.29
21.09
17.96
14.25
10.21
6.15
2.43
-0.65
-2.89
-4.30
-5.12
-5.71
-6.38
-7.29
-8.38
-9.45
-10.32
-11.02
-11.85
-13.28
-15.83
-19.70
-24.74
-30.25
-35.17
-38.23
-38.31
-34.75
-27.58
-17.59
-6.13
5.23
15.11
22.61
27.42
29.75
30.02
28.65
26.01
22.43
18.34
14.22
10.60
7.84
6.05
5.07
4.54
4.13
3.56
2.72
1.55
0.13
-1.51
-3.26
-5.11
-7.09
-9.32
-11.99
-15.29
-19.26
-23.69
-28.02
-31.38
-32.73
-31.22
-26.41
-18.47
-8.24
2.99
13.83
23.08
29.96
34.18
35.86
35.41
33.31
30.11
26.34
22.44
18.80
15.76
13.54
12.24
11.81
12.06
12.71
13.42
13.89
13.87
13.20
11.83
9.82
7.34
4.61
1.87
-0.74
-3.20
-5.71
-8.54
-12.01
-16.22
-20.95
-25.53
-28.98
-30.19
-28.29
-22.90
-14.41
-3.82
7.48
18.06
26.75
32.85
36.10
36.68
35.03
31.81
27.69
23.35
19.27
15.77
12.97
10.85
9.40
8.58
8.41
8.78
9.45
10.01
10.05
9.25
7.54
5.11
2.30
-0.58
-3.35
-6.02
-8.65
-11.38
-14.32
-17.57
-21.23
-25.23
-29.23
-32.59
-34.39
-33.74
-30.10
-23.54
-14.79
-5.02
4.48
12.68
18.96
23.08
25.13
25.34
24.04
21.60
18.44
14.97
11.59
8.58
6.17
4.50
3.60
3.39
3.63
3.96
3.94
3.22
1.66
-0.62
-3.35
-6.18
-8.91
-11.49
-13.98
-16.48
-18.99
-21.49
-24.03
-26.73
-29.70
-32.84
-35.70
-37.42
-36.98
-33.62
-27.15
-18.18
-7.93
2.18
10.94
17.60
21.94
24.09
24.41
23.31
21.23
18.59
15.82
13.20
10.90
8.99
7.39
6.03
4.88
3.98
3.37
3.07
2.95
2.78
2.23
1.03
-1.00
-3.77
-7.03
-10.35
-13.38
-15.92
-18.00
-19.82
-21.71
-23.99
-26.89
-30.40
-34.22
-37.68
-39.77
-39.46
-35.99
-29.19
-19.68
-8.66
2.37
12.13
19.76
24.99
27.96
28.98
28.40
26.55
23.80
20.61
17.50
14.95
13.25
12.36
12.04
11.90
11.66
11.18
10.52
9.80
9.08
8.33
7.38
6.06
4.24
1.90
-0.84
-3.76
-6.58
-9.07
-11.09
-12.71
-14.12
-15.67
-17.67
-20.31
-23.63
-27.42
-31.25
-34.46
-36.20
-35.60
-32.06
-25.47
-16.35
-5.83
4.69
13.98
21.22
26.12
28.76
29.45
28.47
26.12
22.73
18.80
14.99
11.94
10.12
9.61
10.09
10.97
11.65
11.80
11.47
11.00
10.83
11.14
11.75
12.20
11.95
10.64
8.29
5.17
1.71
-1.77
-5.06
-8.15
-11.07
-13.81
-16.37
-18.82
-21.35
-24.18
-27.40
-30.71
-33.35
-34.33
-32.68
-27.94
-20.32
-10.73
-0.38
9.54
18.12
24.85
29.49
31.92
32.19
30.55
27.47
23.67
19.95
16.91
14.84
13.65
13.02
12.59
12.10
11.51
10.93
10.47
10.13
9.75
9.03
7.67
5.49
2.59
-0.75
-4.14
-7.27
-9.99
-12.40
-14.71
-17.19
-20.05
-23.42
-27.27
-31.35
-35.12
-37.73
-38.20
-35.72
-30.03
-21.61
-11.54
-1.22
8.12
15.70
21.25
24.79
26.45
26.35
24.64
21.69
18.03
14.34
11.17
8.84
7.31
6.35
5.69
5.14
4.64
4.16
3.61
2.89
1.78
0.17
-2.00
-4.62
-7.50
-10.43
-13.24
-15.86
-18.36
-20.96
-23.92
-27.47
-31.63
-36.07
-40.05
-42.57
-42.62
-39.52
-33.17
-24.13
-13.46
-2.42
7.87
16.57
23.29
27.92
30.55
31.35
30.54
28.47
25.56
22.32
19.17
16.42
14.12
12.22
10.57
9.12
7.89
6.96
6.37
5.96
5.41
4.34
2.46
-0.31
-3.77
-7.52
-11.16
-14.41
-17.27
-19.96
-22.83
-26.23
-30.29
-34.83
-39.33
-42.98
-44.82
-43.96
-39.83
-32.39
-22.20
-10.40
1.58
12.36
20.89
26.66
29.66
30.28
29.08
26.64
23.54
20.24
17.15
14.55
12.64
11.45
10.88
10.75
10.90
11.24
11.71
12.24
12.71
12.85
12.34
10.90
8.41
5.03
1.15
-2.73
-6.16
-8.93
-11.06
-12.85
-14.70
-17.04
-20.18
-24.18
-28.71
-33.08
-36.22
-37.02
-34.56
-28.51
-19.31
-8.08
3.68
14.51
23.40
29.88
33.96
35.91
36.02
34.60
31.95
28.51
24.86
21.55
19.02
17.37
16.48
16.03
15.77
15.56
15.43
15.36
15.26
14.88
13.87
11.98
9.17
5.67
1.91
-1.65
-4.72
-7.30
-9.65
-12.20
-15.35
-19.29
-23.88
-28.63
-32.74
-35.23
-35.17
-31.94
-25.49
-16.36
-5.70
5.12
14.83
22.53
27.84
30.76
31.54
30.51
28.05
24.57
20.58
16.59
13.02
10.12
7.90
6.22
4.90
3.78
2.84
2.07
1.49
1.08
0.68
0.06
-1.10
-3.06
-5.93
-9.60
-13.70
-17.70
-21.13
-23.76
-25.75
-27.54
-29.74
-32.76
-36.64
-40.81
-44.30
-45.88
-44.51
-39.69
-31.60
-21.08
-9.34
2.29
12.70
21.16
27.30
31.06
32.63
32.33
30.56
27.77
24.43
20.97
17.80
15.20
13.36
12.31
11.91
11.88
11.95
11.93
11.76
11.44
10.97
10.21
8.96
7.04
4.39
1.16
-2.36
-5.79
-8.87
-11.47
-13.61
-15.51
-17.46
-19.74
-22.58
-26.05
-30.01
-34.00
-37.32
-39.13
-38.59
-35.11
-28.56
-19.32
-8.32
3.20
13.95
22.87
29.41
33.49
35.37
35.47
34.18
31.83
28.74
25.30
22.05
19.51
17.99
17.49
17.65
17.99
18.13
17.92
17.50
17.09
16.78
16.46
15.86
14.76
13.09
11.00
8.75
6.51
4.31
2.00
-0.60
-3.52
-6.69
-9.84
-12.72
-15.15
-17.12
-18.77
-20.39
-22.31
-24.84
-28.22
-32.39
-36.92
-40.94
-43.32
-42.94
-39.07
-31.72
-21.59
-9.92
1.86
12.54
21.32
27.82
31.99
33.99
34.05
32.53
29.86
26.55
23.17
20.19
17.93
16.44
15.58
15.10
14.73
14.39
14.06
13.78
13.54
13.20
12.56
11.44
9.78
7.64
5.20
2.58
-0.13
-2.95
-5.89
-8.92
-11.94
-14.83
-17.48
-19.86
-22.07
-24.29
-26.78
-29.69
-32.98
-36.19
-38.55
-39.04
-36.73
-31.17
-22.56
-11.80
-0.22
10.75
19.96
26.79
31.11
33.11
33.17
31.64
28.95
25.53
21.95
18.73
16.32
14.88
14.31
14.25
14.28
14.08
13.50
12.58
11.44
10.18
8.79
7.22
5.40
3.23
0.69
-2.27
-5.66
-9.40
-13.35
-17.25
-20.83
-23.84
-26.27
-28.26
-30.13
-32.24
-34.84
-38.00
-41.48
-44.72
-46.89
-47.04
-44.37
-38.49
-29.67
-18.80
-7.20
3.77
13.08
20.18
25.02
27.84
29.00
28.83
27.58
25.53
23.02
20.44
18.19
16.58
15.70
15.47
15.58
15.75
15.79
15.66
15.40
15.04
14.50
13.58
12.10
10.00
7.43
4.64
1.93
-0.55
-2.82
-5.05
-7.40
-9.98
-12.77
-15.61
-18.26
-20.53
-22.33
-23.80
-25.33
-27.39
-30.35
-34.16
-38.21
-41.36
-42.31
-40.00
-34.04
-24.87
-13.62
-1.74
9.40
18.82
26.02
30.91
33.59
34.35
33.50
31.46
28.66
25.60
22.67
20.13
18.15
16.74
15.90
15.57
15.70
16.17
16.77
17.27
17.40
17.00
16.02
14.59
12.90
11.13
9.34
7.46
5.33
2.82
-0.12
-3.38
-6.78
-10.14
-13.30
-16.19
-18.81
-21.18
-23.45
-25.81
-28.46
-31.49
-34.61
-37.15
-38.09
-36.45
-31.63
-23.77
-13.65
-2.58
8.14
17.46
24.79
29.94
32.95
33.98
33.24
31.08
27.99
24.56
21.38
18.89
17.25
16.37
16.00
15.84
15.61
15.16
14.44
13.50
12.43
11.31
10.14
8.79
7.07
4.77
1.80
-1.74
-5.56
-9.32
-12.68
-15.53
-17.92
-20.08
-22.31
-24.90
-28.03
-31.66
-35.52
-38.99
-41.21
-41.23
-38.30
-32.20
-23.32
-12.68
-1.62
8.54
16.85
22.92
26.79
28.78
29.21
28.34
26.36
23.52
20.17
16.74
13.67
11.21
9.44
8.25
7.43
6.86
6.45
6.20
6.09
6.01
5.73
4.92
3.28
0.63
-2.93
-7.04
-11.15
-14.73
-17.49
-19.49
-21.11
-22.86
-25.23
-28.47
-32.55
-37.17
-41.68
-45.14
-46.51
-44.84
-39.61
-31.00
-19.89
-7.67
4.15
14.38
22.32
27.84
31.16
32.64
32.60
31.25
28.79
25.45
21.60
17.79
14.57
12.33
11.14
10.74
10.69
10.57
10.22
9.72
9.28
9.01
8.78
8.23
6.93
4.61
1.30
-2.71
-6.93
-10.90
-14.30
-17.04
-19.19
-20.98
-22.75
-24.92
-27.82
-31.55
-35.83
-39.89
-42.55
-42.62
-39.19
-32.10
-21.91
-9.85
2.61
14.08
23.55
30.45
34.70
36.57
36.55
35.20
33.00
30.28
27.22
23.96
20.75
17.87
15.60
14.05
13.13
12.60
12.26
12.03
12.00
12.18
12.38
12.17
11.02
8.63
5.02
0.64
-3.88
-7.94
-11.21
-13.68
-15.57
-17.24
-19.02
-21.22
-24.05
-27.52
-31.35
-34.88
-37.14
-37.11
-34.01
-27.62
-18.44
-7.49
3.92
14.50
23.31
29.82
33.91
35.72
35.56
33.81
30.84
27.10
23.03
19.10
15.71
13.13
11.42
10.43
9.87
9.43
8.95
8.37
7.74
7.09
6.31
5.19
3.47
1.02
-2.18
-5.88
-9.74
-13.37
-16.51
-19.10
-21.31
-23.51
-26.12
-29.41
-33.38
-37.62
-41.31
-43.43
-43.04
-39.58
-33.02
-23.92
-13.18
-1.82
9.23
19.23
27.54
33.64
37.13
37.91
36.21
32.68
28.16
23.48
19.22
15.75
13.20
11.64
11.04
11.26
11.97
12.73
13.07
12.73
11.70
10.21
8.56
6.85
4.99
2.71
-0.26
-3.90
-7.92
-11.81
-15.05
-17.45
-19.20
-20.80
-22.83
-25.69
-29.46
-33.91
-38.56
-42.74
-45.59
-46.17
-43.63
-37.48
-27.88
-15.70
-2.40
10.40
21.38
29.76
35.38
38.47
39.43
38.72
36.71
33.73
30.11
26.23
22.48
19.26
16.89
15.54
15.15
15.44
16.00
16.42
16.46
16.03
15.22
14.13
12.82
11.28
9.39
6.98
3.96
0.37
-3.65
-7.75
-11.56
-14.76
-17.16
-18.84
-20.05
-21.19
-22.68
-24.88
-27.99
-31.95
-36.31
-40.20
-42.45
-41.89
-37.73
-29.91
-19.15
-6.80
5.56
16.54
25.21
31.20
34.56
35.64
34.90
32.79
29.73
26.10
22.26
18.59
15.44
13.18
12.04
12.06
13.00
14.39
15.69
16.45
16.50
15.95
15.14
14.33
13.52
12.46
10.72
7.99
4.27
-0.07
-4.46
-8.36
-11.52
-13.98
-16.02
-17.93
-19.92
-22.12
-24.58
-27.37
-30.47
-33.59
-36.17
-37.32
-36.10
-31.89
-24.62
-14.87
-3.76
7.44
17.61
25.97
32.11
35.87
37.25
36.40
33.61
29.39
24.45
19.55
15.38
12.36
10.58
9.80
9.59
9.52
9.33
8.98
8.59
8.29
8.06
7.66
6.76
5.10
2.67
-0.30
-3.43
-6.46
-9.26
-11.93
-14.64
-17.54
-20.73
-24.30
-28.27
-32.54
-36.74
-40.11
-41.67
-40.52
-36.10
-28.56
-18.67
-7.66
3.20
12.80
20.48
25.93
29.16
30.28
29.52
27.17
23.61
19.37
15.03
11.16
8.12
6.04
4.79
4.12
3.81
3.71
3.78
3.96
4.14
4.06
3.46
2.11
-0.05
-2.85
-6.02
-9.17
-12.05
-14.53
-16.71
-18.84
-21.24
-24.23
-27.92
-32.22
-36.71
-40.68
-43.19
-43.25
-40.10
-33.51
-23.94
-12.45
-0.42
10.85
20.44
27.89
33.07
36.01
36.77
35.50
32.56
28.52
24.11
20.07
16.86
14.59
13.12
12.15
11.41
10.76
10.14
9.58
9.14
8.79
8.48
8.02
7.18
5.68
3.37
0.29
-3.36
-7.23
-11.00
-14.47
-17.62
-20.56
-23.52
-26.73
-30.35
-34.34
-38.32
-41.48
-42.74
-41.01
-35.69
-26.88
-15.52
-3.11
8.70
18.62
25.93
30.51
32.70
32.99
31.80
29.45
26.17
22.26
18.15
14.40
11.50
9.74
9.09
9.17
9.48
9.56
9.24
8.67
8.15
7.89
7.84
7.62
6.73
4.75
1.60
-2.38
-6.65
-10.60
-13.83
-16.27
-18.13
-19.83
-21.77
-24.26
-27.40
-30.99
-34.52
-37.16
-37.94
-35.90
-30.51
-21.82
-10.58
1.88
13.98
24.31
31.99
36.73
38.77
38.62
36.83
33.83
29.99
25.64
21.19
17.15
13.91
11.73
10.51
9.95
9.63
9.19
8.52
7.68
6.81
5.92
4.86
3.28
0.91
-2.34
-6.24
-10.28
-13.92
-16.79
-18.93
-20.69
-22.66
-25.36
-28.95
-33.10
-36.98
-39.47
-39.51
-36.43
-30.16
-21.26
-10.72
0.30
10.72
19.72
26.76
31.54
33.93
33.93
31.77
27.93
23.16
18.34
14.21
11.23
9.42
8.51
8.12
7.97
7.93
7.94
7.95
7.73
6.99
5.50
3.19
0.21
-3.16
-6.59
-9.85
-12.79
-15.39
-17.76
-20.11
-22.77
-26.07
-30.18
-34.93
-39.66
-43.33
-44.71
-42.71
-36.80
-27.23
-15.07
-1.89
10.62
21.07
28.59
32.96
34.47
33.71
31.42
28.31
24.95
21.75
18.88
16.40
14.23
12.32
10.68
9.37
8.48
8.05
8.04
8.26
8.45
8.28
7.40
5.58
2.81
-0.69
-4.54
-8.28
-11.60
-14.39
-16.76
-18.99
-21.45
-24.46
-28.16
-32.40
-36.55
-39.66
-40.56
-38.27
-32.31
-23.00
-11.36
1.10
12.79
22.44
29.34
33.38
34.90
34.43
32.51
29.57
25.94
21.96
18.04
14.61
12.04
10.53
9.98
10.09
10.46
10.75
10.76
10.49
10.02
9.43
8.70
7.66
6.09
3.82
0.85
-2.57
-6.08
-9.30
-11.97
-14.09
-15.88
-17.67
-19.84
-22.68
-26.33
-30.62
-34.97
-38.40
-39.74
-37.95
-32.49
-23.64
-12.37
-0.19
11.40
21.25
28.75
33.79
36.50
37.11
35.81
32.86
28.68
23.88
19.22
15.36
12.72
11.39
11.10
11.44
11.95
12.30
12.32
11.97
11.26
10.25
8.96
7.38
5.48
3.20
0.58
-2.27
-5.13
-7.77
-10.06
-11.98
-13.74
-15.63
-18.00
-21.10
-24.96
-29.26
-33.33
-36.21
-36.85
-34.46
-28.71
-19.98
-9.24
2.15
12.77
21.54
27.82
31.45
32.62
31.75
29.31
25.86
21.95
18.13
14.85
12.33
10.54
9.29
8.29
7.39
6.63
6.17
6.18
6.59
7.06
7.07
6.08
3.86
0.52
-3.51
-7.64
-11.38
-14.42
-16.80
-18.72
-20.62
-22.92
-25.99
-29.87
-34.29
-38.56
-41.71
-42.72
-40.78
-35.56
-27.34
-16.94
-5.60
5.40
14.94
22.35
27.38
30.12
30.85
29.85
27.41
23.87
19.74
15.60
12.08
9.57
8.19
7.72
7.74
7.88
7.88
7.65
7.16
6.42
5.46
4.22
2.66
0.73
-1.62
-4.38
-7.42
-10.54
-13.47
-16.01
-18.19
-20.25
-22.62
-25.68
-29.62
-34.19
-38.65
-42.01
-43.15
-41.22
-35.91
-27.55
-17.03
-5.52
5.78
15.95
24.37
30.73
34.93
36.94
36.86
34.86
31.30
26.72
21.79
17.22
13.65
11.46
10.67
10.99
11.84
12.66
13.00
12.70
11.85
10.67
9.38
8.04
6.60
4.85
2.58
-0.27
-3.60
-7.15
-10.57
-13.59
-16.10
-18.15
-19.99
-21.97
-24.46
-27.69
-31.64
-35.79
-39.20
-40.62
-38.96
-33.66
-24.95
-13.89
-1.98
9.28
18.75
25.87
30.52
32.91
33.33
32.11
29.59
26.17
22.29
18.40
14.89
12.09
10.15
9.12
8.92
9.37
10.20
11.11
11.82
12.12
11.88
11.05
9.62
7.67
5.29
2.60
-0.24
-3.14
-6.00
-8.78
-11.40
-13.84
-16.12
-18.43
-21.04
-24.19
-27.92
-31.85
-35.16
-36.77
-35.64
-31.15
-23.34
-12.94
-1.20
10.45
20.70
28.61
33.79
36.30
36.57
35.16
32.52
29.01
24.93
20.63
16.56
13.21
10.88
9.62
9.16
9.08
9.01
8.77
8.35
7.78
7.01
5.86
4.14
1.76
-1.17
-4.41
-7.69
-10.86
-13.86
-16.73
-19.53
-22.36
-25.38
-28.74
-32.47
-36.25
-39.31
-40.51
-38.75
-33.42
-24.78
-13.90
-2.30
8.56
17.68
24.61
29.32
31.93
32.59
31.46
28.86
25.31
21.43
17.80
14.76
12.33
10.37
8.75
7.42
6.46
5.94
5.81
5.87
5.77
5.19
3.85
1.69
-1.25
-4.77
-8.59
-12.40
-15.86
-18.77
-21.11
-23.14
-25.35
-28.28
-32.21
-36.94
-41.64
-45.04
-45.77
-42.85
-36.03
-25.90
-13.72
-1.03
10.72
20.46
27.60
31.97
33.77
33.37
31.28
28.05
24.22
20.30
16.69
13.71
11.51
10.10
9.30
8.85
8.47
8.00
7.45
6.95
6.65
6.54
6.40
5.86
4.55
2.31
-0.73
-4.16
-7.52
-10.44
-12.87
-15.04
-17.43
-20.50
-24.41
-28.95
-33.42
-36.79
-37.95
-36.08
-30.85
-22.54
-12.00
-0.40
10.99
21.04
28.92
34.17
36.65
36.57
34.37
30.71
26.33
22.00
18.30
15.59
13.92
13.10
12.76
12.60
12.40
12.15
11.87
11.60
11.27
10.69
9.67
8.07
5.88
3.19
0.09
-3.27
-6.76
-10.24
-13.53
-16.55
-19.37
-22.27
-25.58
-29.41
-33.41
-36.66
-37.92
-36.07
-30.61
-21.89
-11.05
0.42
11.10
20.04
26.74
31.11
33.21
33.20
31.31
27.99
23.82
19.50
15.66
12.75
10.89
9.96
9.58
9.35
8.96
8.30
7.46
6.65
6.07
5.76
5.51
4.94
3.64
1.39
-1.74
-5.44
-9.25
-12.78
-15.83
-18.46
-20.90
-23.48
-26.53
-30.25
-34.58
-39.07
-42.94
-45.10
-44.54
-40.57
-33.17
-23.02
-11.35
0.40
10.96
19.47
25.53
29.14
30.50
29.93
27.83
24.65
20.88
17.00
13.45
10.50
8.32
6.90
6.14
5.90
6.03
6.39
6.88
7.39
7.80
7.91
7.51
6.37
4.38
1.61
-1.65
-4.98
-7.98
-10.42
-12.36
-14.08
-16.00
-18.51
-21.88
-26.12
-30.90
-35.54
-39.06
-40.35
-38.52
-33.17
-24.62
-13.79
-2.02
9.33
19.21
26.95
32.24
35.06
35.53
33.89
30.57
26.16
21.38
16.96
13.48
11.20
10.08
9.81
10.07
10.59
11.24
12.00
12.82
13.59
14.05
13.92
12.99
11.20
8.69
5.71
2.55
-0.56
-3.52
-6.30
-8.99
-11.70
-14.55
-17.67
-21.15
-24.97
-28.89
-32.39
-34.74
-35.10
-32.83
-27.68
-19.95
-10.38
-0.06
9.91
18.59
25.39
30.02
32.50
33.04
31.97
29.72
26.71
23.38
20.08
17.08
14.53
12.55
11.18
10.44
10.30
10.66
11.28
11.84
11.99
11.42
9.97
7.61
4.49
0.84
-2.98
-6.65
-9.90
-12.62
-14.92
-17.09
-19.51
-22.55
-26.39
-30.89
-35.56
-39.56
-41.93
-41.74
-38.45
-32.02
-23.02
-12.48
-1.64
8.30
16.51
22.53
26.28
27.96
27.86
26.27
23.49
19.81
15.66
11.59
8.19
5.88
4.74
4.52
4.68
4.75
4.49
3.98
3.46
3.07
2.70
1.98
0.52
-1.91
-5.16
-8.81
-12.34
-15.36
-17.79
-19.75
-21.63
-23.85
-26.79
-30.62
-35.15
-39.70
-43.24
-44.58
-42.73
-37.26
-28.48
-17.34
-5.15
6.71
17.07
25.14
30.53
33.20
33.43
31.67
28.54
24.71
20.79
17.29
14.57
12.74
11.71
11.25
11.06
10.84
10.46
9.90
9.24
8.55
7.85
7.00
5.77
3.95
1.38
-1.89
-5.65
-9.52
-13.11
-16.13
-18.53
-20.51
-22.52
-25.09
-28.56
-32.86
-37.33
-40.83
-42.09
-40.06
-34.36
-25.35
-14.03
-1.73
10.21
20.71
29.02
34.74
37.73
38.11
36.23
32.66
28.12
23.42
19.18
15.89
13.73
12.57
12.11
11.93
11.72
11.36
10.98
10.74
10.70
10.70
10.32
9.11
6.81
3.54
-0.29
-4.09
-7.45
-10.24
-12.61
-14.85
-17.27
-20.09
-23.48
-27.44
-31.68
-35.54
-37.96
-37.73
-33.95
-26.43
-15.91
-3.81
8.17
18.64
26.81
32.46
35.79
37.05
36.41
33.98
29.97
24.84
19.36
14.40
10.67
8.52
7.76
7.93
8.43
8.88
9.14
9.27
9.25
8.92
7.96
6.01
2.96
-1.03
-5.50
-9.90
-13.83
-17.10
-19.83
-22.30
-24.92
-28.06
-31.91
-36.37
-40.96
-44.82
-46.92
-46.24
-42.13
-34.54
-24.03
-11.73
0.96
12.66
22.25
29.14
33.19
34.64
33.97
31.70
28.38
24.51
20.64
17.25
14.73
13.19
12.48
12.22
12.03
11.68
11.14
10.53
9.94
9.30
8.42
7.02
4.92
2.09
-1.36
-5.22
-9.22
-13.11
-16.62
-19.61
-22.12
-24.41
-26.91
-30.05
-33.94
-38.15
-41.70
-43.20
-41.41
-35.66
-26.19
-14.10
-1.01
11.42
21.96
29.95
35.29
38.16
38.77
37.36
34.16
29.62
24.45
19.48
15.48
12.89
11.66
11.42
11.61
11.83
11.95
12.06
12.36
12.90
13.44
13.54
12.70
10.64
7.40
3.38
-0.86
-4.79
-8.07
-10.63
-12.63
-14.40
-16.33
-18.85
-22.32
-26.79
-31.88
-36.59
-39.54
-39.30
-34.93
-26.45
-14.82
-1.73
11.00
21.89
30.09
35.41
38.07
38.45
36.95
34.00
30.09
25.82
21.83
18.63
16.47
15.26
14.67
14.29
13.80
13.12
12.38
11.83
11.61
11.59
11.41
10.59
8.71
5.64
1.60
-2.92
-7.35
-11.21
-14.33
-16.90
-19.36
-22.20
-25.77
-30.01
-34.43
-38.08
-39.85
-38.67
-33.97
-25.81
-14.98
-2.80
9.23
19.74
27.81
33.02
35.44
35.47
33.66
30.54
26.62
22.35
18.15
14.42
11.45
9.35
8.01
7.13
6.38
5.51
4.48
3.39
2.42
1.61
0.80
-0.34
-2.21
-5.03
-8.75
-12.99
-17.20
-20.80
-23.44
-25.13
-26.21
-27.24
-28.79
-31.15
-34.11
-36.95
-38.54
-37.73
-33.65
-26.09
-15.55
-3.09
9.90
22.06
32.33
40.13
45.30
48.08
48.91
48.31
46.73
44.51
41.87
38.91
35.65
32.10
28.22
24.07
19.77
15.57
11.76
8.68
6.53
5.37
5.07
5.33
5.85
6.31
6.52
6.36
5.81
4.97
4.03
3.26
2.90
3.07
3.64
4.26
4.53
4.21
3.47
2.86
3.13
4.73
7.58
10.95
13.74
14.91
13.88
10.63
5.63
-0.50
-7.26
-14.33
-21.55
-28.67
-35.36
-41.21
-45.85
-49.09
-51.04
-51.95
-52.13
-51.82
-51.18
-50.23
-49.02
-47.63
-46.12
-44.56
-42.94
-41.16
-39.14
-36.80
-34.21
-31.50
-28.93
-26.84
-25.67
-25.85
-27.65
-30.97
-35.18
-39.22
-41.89
-42.24
-39.90
-35.11
-28.55
-21.07
-13.38
-5.97
0.77
6.49
10.80
13.40
14.24
13.67
12.42
11.36
11.20
12.24
14.33
16.97
19.47
21.29
22.12
21.92
20.84
19.14
17.08
14.91
12.82
10.89
9.05
7.13
4.89
2.23
-0.75
-3.69
-6.14
-7.71
-8.26
-7.80
-6.46
-4.30
-1.21
3.05
8.74
15.92
24.37
33.51
42.52
50.49
56.57
60.12
60.75
58.39
53.23
45.67
36.37
26.21
16.22
7.49
0.92
-3.01
-4.37
-3.78
-2.09
-0.08
1.74
3.21
4.36
5.19
5.56
5.18
3.79
1.33
-2.01
-5.85
-9.75
-13.45
-16.86
-20.10
-23.31
-26.64
-30.16
-33.84
-37.59
-41.07
-43.75
-44.83
-43.47
-39.03
-31.39
-21.09
-9.23
2.72
13.34
21.55
26.76
28.92
28.39
25.82
21.91
17.34
12.64
8.25
4.42
1.33
-0.99
-2.58
-3.55
-4.06
-4.24
-4.19
-3.98
-3.65
-3.28
-2.91
-2.59
-2.38
-2.39
-2.80
-3.83
-5.64
-8.22
-11.46
-15.18
-19.29
-23.73
-28.35
-32.62
-35.64
-36.23
-33.39
-26.82
-17.11
-5.65
5.82
15.81
23.42
28.44
31.08
31.66
30.40
27.39
22.78
16.98
10.72
4.88
0.22
-2.88
-4.50
-5.20
-5.65
-6.45
-7.80
-9.58
-11.41
-12.94
-14.05
-14.92
-15.92
-17.49
-19.91
-23.25
-27.48
-32.46
-38.03
-43.77
-48.92
-52.26
-52.41
-48.31
-39.67
-27.25
-12.66
2.13
15.39
26.03
33.76
38.73
41.28
41.68
40.15
36.98
32.72
28.18
24.20
21.36
19.75
18.97
18.31
17.13
15.20
12.70
10.15
8.08
6.71
5.86
4.96
3.30
0.22
-4.59
-11.01
-18.37
-25.57
-31.21
-33.88
-32.49
-26.61
-16.58
-3.46
11.21
25.74
38.63
48.80
55.65
58.96
58.85
55.66
50.00
42.73
34.87
27.46
21.28
16.70
13.58
11.46
9.74
8.00
6.06
4.01
2.05
0.30
-1.31
-3.06
-5.38
-8.73
-13.45
-19.61
-26.83
-34.15
-40.15
-43.15
-41.72
-35.21
-24.01
-9.52
6.25
21.30
34.14
43.99
50.66
54.26
54.92
52.77
48.08
41.44
33.76
26.18
19.64
14.70
11.39
9.27
7.72
6.20
4.38
2.27
0.09
-1.83
-3.27
-4.23
-5.05
-6.35
-8.84
-13.11
-19.34
-27.09
-35.25
-42.18
-46.12
-45.61
-40.00
-29.59
-15.62
0.12
15.68
29.42
40.18
47.38
50.88
50.91
47.93
42.60
35.76
28.31
21.14
14.98
10.29
7.16
5.35
4.33
3.49
2.33
0.64
-1.47
-3.71
-5.77
-7.60
-9.45
-11.84
-15.38
-20.53
-27.30
-35.16
-42.97
-49.14
-52.01
-50.29
-43.46
-32.02
-17.39
-1.45
13.86
27.07
37.29
44.12
47.51
47.61
44.74
39.50
32.77
25.64
19.17
14.16
10.91
9.25
8.62
8.32
7.80
6.81
5.47
4.26
3.69
4.06
5.27
6.73
7.58
6.91
4.14
-0.80
-7.32
-14.28
-20.13
-23.25
-22.35
-16.83
-7.00
5.89
20.04
33.55
44.93
53.38
58.72
61.18
61.05
58.56
53.85
47.11
38.77
29.48
20.05
11.20
3.46
-2.96
-8.12
-12.23
-15.52
-18.26
-20.64
-22.79
-24.86
-26.92
-29.08
-31.50
-34.40
-38.07
-42.67
-48.07
-53.63
-58.18
-60.28
-58.61
-52.40
-41.72
-27.53
-11.33
5.22
20.73
34.17
44.93
52.63
56.93
57.66
54.94
49.43
42.30
34.99
28.77
24.34
21.64
19.99
18.52
16.55
13.89
10.83
7.88
5.47
3.70
2.27
0.65
-1.75
-5.36
-10.33
-16.58
-23.76
-31.31
-38.44
-44.07
-46.95
-45.87
-40.03
-29.41
-14.89
1.78
18.51
33.30
44.71
52.02
55.21
54.74
51.33
45.76
38.79
31.18
23.65
16.82
11.15
6.68
3.12
-0.15
-3.80
-8.34
-13.84
-20.03
-26.36
-32.34
-37.70
-42.52
-47.08
-51.69
-56.58
-61.78
-67.09
-72.06
-75.94
-77.78
-76.46
-71.01
-60.97
-46.60
-29.02
-9.95
8.72
25.35
38.88
48.76
54.82
57.01
55.37
50.12
41.86
31.71
21.15
11.74
4.66
0.37
-1.45
-1.71
-1.54
-1.86
-3.15
-5.47
-8.57
-12.16
-16.06
-20.20
-24.52
-29.03
-33.64
-38.20
-42.54
-46.31
-48.99
-49.89
-48.25
-43.57
-35.79
-25.48
-13.68
-1.72
9.20
18.15
24.59
28.26
29.04
26.93
22.15
15.23
7.06
-1.21
-8.48
-13.97
-17.45
-19.24
-19.96
-20.17
-20.17
-19.96
-19.44
-18.63
-17.83
-17.52
-18.20
-20.17
-23.47
-27.85
-32.84
-37.72
-41.59
-43.35
-41.98
-36.83
-27.91
-16.03
-2.62
10.65
22.35
31.49
37.60
40.60
40.61
37.89
32.87
26.23
18.86
11.81
6.00
1.99
-0.20
-1.09
-1.51
-2.29
-3.94
-6.51
-9.63
-12.81
-15.67
-18.12
-20.37
-22.79
-25.71
-29.28
-33.37
-37.55
-41.05
-42.83
-41.83
-37.25
-28.96
-17.66
-4.76
8.09
19.35
28.10
33.96
37.01
37.53
35.86
32.48
28.01
23.17
18.63
14.85
11.95
9.82
8.21
6.95
5.92
5.06
4.25
3.35
2.24
0.82
-0.91
-2.97
-5.51
-8.77
-13.04
-18.40
-24.55
-30.72
-35.78
-38.51
-37.97
-33.77
-26.19
-16.05
-4.50
7.21
17.99
26.93
33.40
37.09
38.01
36.55
33.37
29.25
24.96
21.03
17.78
15.23
13.29
11.76
10.48
9.34
8.29
7.33
6.38
5.31
3.89
1.81
-1.20
-5.31
-10.52
-16.58
-22.94
-28.78
-33.09
-34.80
-33.16
-27.92
-19.56
-9.19
1.72
11.72
19.71
25.11
27.79
27.93
25.92
22.24
17.58
12.72
8.46
5.42
3.82
3.48
3.90
4.56
5.13
5.54
5.90
6.22
6.29
5.68
3.89
0.54
-4.41
-10.65
-17.49
-23.94
-28.91
-31.33
-30.48
-26.16
-18.81
-9.42
0.74
10.39
18.57
24.70
28.53
29.99
29.19
26.38
22.07
17.03
12.14
8.17
5.48
3.97
3.08
2.16
0.67
-1.59
-4.47
-7.67
-10.87
-13.97
-17.06
-20.39
-24.23
-28.70
-33.70
-38.72
-42.98
-45.42
-44.99
-40.99
-33.29
-22.46
-9.62
3.73
16.18
26.55
34.12
38.57
39.90
38.40
34.58
29.15
22.98
16.97
11.82
7.95
5.37
3.75
2.58
1.38
-0.14
-1.99
-3.96
-5.81
-7.37
-8.73
-10.24
-12.44
-15.86
-20.71
-26.70
-32.88
-37.82
-39.97
-38.15
-31.93
-21.83
-9.21
4.19
16.71
27.13
34.78
39.45
41.24
40.40
37.34
32.71
27.31
22.06
17.69
14.58
12.64
11.46
10.54
9.54
8.35
7.10
5.92
4.85
3.73
2.26
0.09
-3.10
-7.54
-13.26
-19.97
-26.99
-33.22
-37.34
-38.16
-35.01
-27.95
-17.79
-5.86
6.35
17.53
26.71
33.31
37.09
38.09
36.59
33.11
28.41
23.33
18.66
14.96
12.46
11.07
10.46
10.20
9.86
9.19
8.10
6.67
5.09
3.46
1.78
-0.16
-2.76
-6.44
-11.38
-17.39
-23.69
-29.09
-32.24
-31.99
-27.82
-19.96
-9.37
2.49
14.08
24.11
31.77
36.74
39.07
38.98
36.75
32.70
27.29
21.18
15.17
10.08
6.43
4.34
3.44
3.10
2.69
1.85
0.56
-0.94
-2.36
-3.60
-4.80
-6.26
-8.39
-11.49
-15.72
-20.99
-26.89
-32.58
-36.95
-38.71
-36.86
-31.04
-21.77
-10.30
1.71
12.79
21.94
28.79
33.30
35.58
35.67
33.62
29.69
24.45
18.75
13.53
9.49
6.91
5.62
5.10
4.72
4.01
2.73
0.97
-0.96
-2.72
-4.14
-5.29
-6.49
-8.19
-10.80
-14.51
-19.22
-24.54
-29.78
-34.04
-36.29
