1551463599.00
64.000000
-0.00
-0.00
-0.00
-0.00
-0.00
-0.00
-0.00
-0.00
-0.00
-0.00
0.00
0.01
0.01
-0.00
-0.03
-0.05
-0.05
0.00
0.13
0.36
0.66
1.01
1.37
1.72
2.06
2.40
2.79
3.24
3.80
4.42
5.06
5.66
6.20
6.68
7.15
7.68
8.31
9.14
10.09
11.04
11.88
12.56
13.14
13.76
14.65
15.96
17.91
20.32
22.90
25.38
27.58
29.57
31.68
34.32
37.81
42.54
48.15
54.10
59.83
64.97
69.58
74.14
79.34
85.71
93.76
103.00
112.62
121.73
129.77
136.75
143.30
150.75
157.77
166.64
177.95
191.79
206.97
220.57
228.25
225.36
208.53
176.87
132.76
80.05
23.07
-34.94
-92.44
-149.16
-205.23
-260.37
-313.74
-363.87
-409.83
-450.91
-486.50
-515.74
-537.23
-549.22
-549.96
-538.37
-514.21
-478.67
-433.88
-382.45
-327.02
-269.84
-212.63
-156.66
-102.95
-52.37
-5.90
35.58
71.43
101.35
125.50
144.38
158.69
169.15
176.37
180.75
182.57
182.07
179.51
175.23
169.65
163.18
156.15
148.81
141.30
133.69
126.02
118.33
110.69
103.16
95.80
88.68
81.83
75.25
68.95
62.95
57.25
51.86
46.78
42.03
37.59
33.45
29.61
26.07
22.81
19.83
17.11
14.67
12.48
10.54
8.83
7.35
6.07
4.97
4.05
3.27
2.62
2.09
1.65
1.30
1.01
0.79
0.61
0.48
0.37
0.29
0.22
0.18
0.14
0.11
0.09
0.08
0.07
0.06
0.05
0.05
0.05
0.06
0.06
0.07
0.09
0.11
0.13
0.16
0.20
0.23
0.27
0.32
0.36
0.41
0.46
0.51
0.56
0.62
0.68
0.76
0.87
0.98
1.08
1.15
1.15
1.10
1.03
1.00
1.04
1.19
1.44
1.73
2.01
2.21
2.35
2.45
2.61
2.88
3.32
3.89
4.50
5.02
5.38
5.58
5.72
5.98
6.52
7.42
8.61
9.83
10.78
11.26
11.26
11.04
11.04
11.67
13.12
15.20
17.32
18.79
19.04
17.95
15.90
13.65
11.93
11.07
10.67
9.81
7.34
2.47
-4.74
-13.31
-21.66
-28.40
-32.76
-35.01
-36.27
-37.92
-41.15
-46.61
-54.49
-64.17
-74.04
-81.27
-82.27
-73.99
-55.42
-28.89
0.38
25.82
42.21
47.60
43.88
35.38
26.60
20.31
16.87
14.99
13.12
10.70
8.44
7.67
9.40
13.65
19.35
24.56
27.63
27.78
25.47
22.20
19.54
18.51
18.94
19.91
20.32
19.75
18.64
18.00
18.82
21.39
25.20
29.22
32.64
35.11
36.90
38.40
39.72
40.62
40.66
39.57
37.57
35.26
33.31
32.75
33.86
36.25
38.97
40.86
40.95
38.62
33.65
26.23
16.89
6.48
-3.90
-13.02
-19.79
-23.60
-24.43
-22.88
-19.87
-16.29
-12.81
-9.84
-7.53
-6.04
-5.53
-6.17
-7.92
-10.57
-13.76
-17.30
-21.18
-25.50
-30.26
-35.19
-39.72
-43.11
-44.60
-43.62
-39.83
-33.23
-24.28
-13.90
-3.48
5.54
12.09
15.90
17.56
18.16
18.68
19.59
20.71
21.52
21.51
20.48
18.68
16.64
15.04
14.45
15.19
17.10
19.52
21.37
21.50
19.11
14.16
7.37
0.09
-6.32
-10.97
-13.65
-14.84
-15.27
-15.64
-16.36
-17.54
-19.22
-21.51
-24.69
-29.08
-34.72
-41.30
-48.19
-54.65
-60.18
-64.50
-67.54
-69.19
-69.24
-67.46
-63.89
-59.03
-53.71
-48.84
-44.93
-41.94
-39.36
-36.59
-33.32
-29.61
-25.71
-21.89
-18.21
-14.69
-11.43
-8.61
-6.35
-4.61
-3.06
-1.38
0.48
2.09
2.65
1.42
-1.80
-6.53
-11.76
-16.50
-20.23
-23.04
-25.46
-28.02
-30.98
-34.22
-37.36
-39.95
-41.48
-41.56
-39.82
-36.10
-30.51
-23.46
-15.65
-7.84
-0.72
5.25
9.79
12.80
14.30
14.49
13.78
12.78
12.19
12.65
14.56
18.06
22.98
28.83
34.94
40.52
44.76
47.06
47.11
44.93
40.82
35.23
28.71
21.83
15.23
9.50
5.04
1.90
-0.26
-2.06
-4.13
-6.85
-10.23
-13.92
-17.42
-20.22
-21.94
-22.34
-21.39
-19.23
-16.18
-12.71
-9.20
-5.82
-2.35
1.71
6.97
13.89
22.52
32.47
43.04
53.47
63.11
71.61
78.84
84.71
89.00
91.24
90.79
87.04
79.75
69.18
56.11
41.60
26.62
11.89
-2.31
-15.96
-29.09
-41.50
-52.63
-61.59
-67.41
-69.31
-66.99
-60.68
-51.03
-38.88
-25.17
-10.84
3.10
15.46
24.88
30.11
30.30
25.32
15.87
3.40
-10.30
-23.49
-34.95
-44.14
-51.17
-56.62
-61.17
-65.31
-69.14
-72.34
-74.27
-74.14
-71.23
-65.08
-55.59
-43.13
-28.46
-12.75
2.63
16.43
27.74
36.12
41.67
44.75
45.84
45.44
44.13
42.71
42.16
43.35
46.60
51.30
56.05
59.12
59.22
56.10
50.63
44.36
38.72
34.58
32.01
30.58
29.74
29.15
28.78
28.69
28.80
28.68
27.64
24.99
20.40
14.13
7.04
0.33
-4.91
-8.03
-9.03
-8.43
-7.12
-5.99
-5.75
-6.83
-9.25
-12.73
-16.74
-20.68
-23.93
-25.95
-26.27
-24.56
-20.77
-15.25
-8.80
-2.48
2.73
6.29
8.22
9.01
9.31
9.53
9.91
10.39
10.96
11.70
12.75
14.16
15.77
17.17
17.77
16.99
14.46
10.09
4.09
-3.07
-10.88
-18.81
-26.52
-33.83
-40.77
-47.46
-54.10
-60.88
-67.84
-74.93
-81.98
-88.77
-95.27
-101.63
-108.23
-115.40
-123.22
-131.43
-139.58
-147.30
-154.62
-161.95
-169.78
-178.29
-187.08
-195.19
-201.45
-204.81
-204.53
-200.10
-191.16
-177.39
-158.74
-135.53
-108.51
-78.66
-46.70
-12.73
23.63
62.74
104.11
145.92
185.01
217.74
241.10
253.71
256.21
250.91
240.86
228.81
216.61
204.97
193.95
183.32
173.12
163.61
155.13
147.93
141.91
136.72
131.84
126.79
121.16
114.73
107.38
99.15
90.37
81.65
73.87
67.95
64.48
63.33
63.39
62.78
59.30
51.22
38.02
20.73
1.71
-16.08
-30.08
-38.88
-42.42
-41.72
-38.17
-33.03
-27.12
-20.92
-14.84
-9.38
-5.04
-2.06
-0.19
1.20
2.87
5.22
8.11
10.87
12.78
13.41
12.99
12.23
11.94
12.57
13.88
14.98
14.72
12.27
7.49
1.03
-5.96
-12.27
-17.17
-20.56
-22.83
-24.64
-26.53
-28.73
-31.18
-33.69
-36.12
-38.40
-40.57
-42.56
-44.25
-45.41
-45.81
-45.41
-44.33
-42.88
-41.36
-39.94
-38.58
-37.01
-34.88
-31.89
-27.97
-23.35
-18.56
-14.20
-10.85
-8.79
-7.89
-7.64
-7.18
-5.68
-2.51
2.56
9.35
17.36
25.93
34.31
41.70
47.34
50.59
51.12
49.07
45.08
40.10
35.11
30.75
27.11
23.79
20.14
15.68
10.31
4.35
-1.58
-6.91
-11.31
-14.80
-17.68
-20.32
-23.04
-26.00
-29.35
-33.22
-37.79
-43.19
-49.39
-56.00
-62.45
-68.01
-72.15
-74.63
-75.56
-75.23
-73.86
-71.54
-68.17
-63.67
-58.13
-52.01
-46.12
-41.46
-38.94
-38.97
-41.26
-44.85
-48.33
-50.36
-50.14
-47.66
-43.61
-38.99
-34.65
-30.87
-27.37
-23.46
-18.40
-11.69
-3.15
7.15
18.97
31.97
45.62
59.13
71.50
81.76
89.32
94.19
96.96
98.47
99.35
99.83
99.67
98.56
96.30
93.00
88.88
84.12
78.73
72.60
65.72
58.15
50.07
41.56
32.48
22.55
11.64
-0.03
-11.88
-23.17
-33.41
-42.48
-50.67
-58.42
-65.97
-73.32
-80.25
-86.60
-92.32
-97.45
-101.71
-104.39
-104.20
-99.70
-89.78
-74.15
-53.55
-29.50
-4.02
20.96
43.85
63.49
79.10
90.22
96.74
98.88
97.32
92.98
86.88
79.81
72.24
64.38
56.28
48.11
40.26
33.22
27.50
23.38
20.83
19.47
18.62
17.56
15.61
12.40
7.92
2.55
-3.11
-8.48
-13.20
-17.12
-20.32
-22.99
-25.33
-27.62
-30.21
-33.52
-37.85
-43.22
-49.29
-55.39
-60.80
-65.04
-68.13
-70.49
-72.77
-75.46
-78.58
-81.60
-83.59
-83.56
-80.81
-75.19
-67.11
-57.42
-47.03
-36.69
-26.85
-17.67
-9.24
-1.68
4.79
10.03
14.16
17.63
21.11
25.19
30.07
35.36
40.18
43.58
44.93
44.23
42.14
39.70
37.85
37.06
37.15
37.46
37.18
35.75
33.14
29.74
26.13
22.79
19.87
17.20
14.44
11.43
8.28
5.42
3.37
2.52
2.90
4.14
5.50
6.06
4.94
1.47
-4.57
-12.89
-22.76
-33.10
-42.75
-50.61
-55.86
-57.95
-56.77
-52.52
-45.84
-37.58
-28.79
-20.36
-12.86
-6.48
-1.10
3.43
7.06
9.38
9.86
8.12
4.30
-0.85
-6.15
-10.39
-12.85
-13.39
-12.41
-10.47
-8.01
-5.20
-2.02
1.52
5.30
9.14
13.00
17.07
21.69
27.09
33.13
39.32
44.90
49.31
52.40
54.47
56.08
57.75
59.70
61.94
64.29
66.56
68.56
70.16
71.16
71.31
70.42
68.47
65.58
62.05
58.19
54.37
50.93
48.19
46.47
46.00
46.80
48.69
51.35
54.38
57.40
59.89
61.14
60.16
55.76
46.97
33.37
15.41
-5.63
-28.02
-50.10
-70.68
-89.17
-105.45
-119.59
-131.59
-141.35
-148.74
-153.78
-156.63
-157.60
-157.03
-155.04
-151.57
-146.38
-139.30
-130.30
-119.59
-107.49
-94.35
-80.39
-65.62
-50.09
-34.03
-18.02
-2.93
10.30
21.01
29.05
34.82
39.05
42.40
45.20
47.23
47.92
46.63
43.06
37.51
30.89
24.57
19.89
17.79
18.52
21.65
26.30
31.51
36.48
40.72
44.09
46.68
48.75
50.56
52.29
53.93
55.28
56.04
55.97
55.06
53.60
52.00
50.61
49.58
48.79
47.91
46.71
45.04
43.00
40.77
38.46
36.13
33.78
31.38
28.98
26.59
24.13
21.44
18.29
14.61
10.58
6.59
3.03
0.11
-2.24
-4.33
-6.50
-8.88
-11.37
-13.80
-16.14
-18.59
-21.49
-25.10
-29.32
-33.56
-36.95
-38.59
-37.88
-34.79
-29.81
-23.84
-17.82
-12.47
-8.11
-4.70
-2.00
0.18
1.84
2.77
2.69
1.52
-0.49
-2.74
-4.42
-4.86
-3.67
-0.98
2.74
6.81
10.65
13.91
16.50
18.44
19.75
20.33
19.96
18.53
16.10
13.03
9.85
7.08
5.07
3.76
2.81
1.75
0.20
-1.92
-4.39
-6.86
-8.94
-10.43
-11.35
-11.87
-12.26
-12.86
-13.96
-15.83
-18.55
-22.01
-25.77
-29.14
-31.23
-31.25
-28.69
-23.43
-15.79
-6.42
3.87
14.31
24.17
32.93
40.26
45.95
50.00
52.37
53.14
52.37
50.24
47.03
43.17
39.06
35.01
31.04
27.00
22.58
17.61
12.20
6.72
1.64
-2.64
-6.05
-8.73
-10.99
-13.05
-14.97
-16.63
-17.87
-18.60
-18.92
-19.08
-19.37
-19.94
-20.77
-21.60
-22.19
-22.33
-22.06
-21.55
-21.10
-20.95
-21.25
-22.02
-23.18
-24.65
-26.37
-28.30
-30.43
-32.74
-35.20
-37.79
-40.54
-43.43
-46.44
-49.41
-51.99
-53.71
-54.04
-52.58
-49.24
-44.31
-38.38
-32.15
-26.09
-20.33
-14.73
-9.01
-3.11
2.71
7.84
11.62
13.59
13.80
12.74
11.19
9.94
9.44
9.75
10.62
11.70
12.72
13.54
14.07
14.20
13.79
12.75
11.18
9.44
8.07
7.59
8.28
10.09
12.58
15.14
17.16
18.26
18.40
17.83
16.97
16.17
15.56
14.92
13.81
11.81
8.72
4.65
-0.02
-4.84
-9.51
-13.88
-18.04
-22.10
-26.11
-30.02
-33.74
-37.16
-40.21
-42.86
-44.98
-46.32
-46.56
-45.41
-42.69
-38.42
-32.77
-26.04
-18.60
-10.83
-3.09
4.29
11.05
16.91
21.64
25.06
27.09
27.78
27.38
26.20
24.57
22.74
20.84
18.92
17.05
15.36
14.03
13.22
12.93
12.92
12.69
11.66
9.33
5.52
0.57
-4.75
-9.42
-12.47
-13.39
-12.22
-9.65
-6.58
-3.92
-2.20
-1.50
-1.54
-1.94
-2.41
-2.85
-3.36
-4.13
-5.27
-6.84
-8.76
-10.91
-13.13
-15.28
-17.12
-18.34
-18.57
-17.43
-14.70
-10.42
-4.95
1.12
7.07
12.31
16.46
19.44
21.36
22.39
22.66
22.21
21.10
19.45
17.55
15.75
14.39
13.64
13.42
13.47
13.49
13.34
13.04
12.73
12.53
12.37
11.98
11.01
9.31
6.96
4.32
1.83
-0.23
-1.87
-3.36
-5.11
-7.35
-10.09
-13.11
-16.01
-18.48
-20.30
-21.46
-22.15
-22.71
-23.48
-24.76
-26.69
-29.25
-32.20
-35.13
-37.44
-38.48
-37.72
-34.85
-29.99
-23.61
-16.49
-9.45
-3.20
1.86
5.67
8.46
10.59
12.37
14.00
15.45
16.57
17.25
17.45
17.27
16.90
16.50
16.09
15.63
15.02
14.23
13.32
12.38
11.49
10.60
9.57
8.17
6.17
3.49
0.22
-3.34
-6.79
-9.71
-11.93
-13.58
-15.12
-17.11
-19.90
-23.51
-27.53
-31.37
-34.54
-36.94
-38.81
-40.56
-42.43
-44.26
-45.43
-44.98
-41.96
-35.64
-25.80
-12.69
2.96
20.15
37.63
54.13
68.51
79.92
88.00
92.86
95.12
95.60
95.05
93.89
92.11
89.34
85.17
79.47
72.47
64.78
57.08
49.84
43.24
37.18
31.51
26.14
21.14
16.64
12.63
8.92
5.18
1.04
-3.72
-9.09
-14.84
-20.61
-26.06
-30.96
-35.26
-39.08
-42.60
-45.94
-49.00
-51.47
-52.82
-52.67
-50.88
-47.82
-44.29
-41.25
-39.47
-39.21
-40.10
-41.30
-41.82
-40.87
-38.15
-33.78
-28.21
-21.94
-15.40
-8.90
-2.64
3.22
8.53
13.16
17.01
19.94
21.83
22.42
21.52
18.92
14.64
8.90
2.20
-4.88
-11.70
-17.80
-22.89
-26.89
-29.88
-32.04
-33.56
-34.60
-35.23
-35.47
-35.26
-34.58
-33.41
-31.80
-29.84
-27.71
-25.62
-23.78
-22.34
-21.31
-20.61
-20.05
-19.43
-18.63
-17.67
-16.67
-15.88
-15.59
-16.11
-17.67
-20.25
-23.57
-26.99
-29.65
-30.74
-29.81
-26.86
-22.35
-16.96
-11.32
-5.85
-0.82
3.66
7.43
10.35
12.33
13.51
14.29
15.32
17.28
20.77
26.10
33.25
41.88
51.49
61.40
70.96
79.50
86.43
91.30
93.92
94.37
93.01
90.33
86.77
82.64
78.06
73.09
67.82
62.47
57.32
52.53
48.18
44.11
40.06
35.80
31.25
26.40
21.34
16.09
10.69
5.16
-0.38
-5.57
-9.91
-12.80
-13.67
-12.18
-8.32
-2.45
4.83
12.86
21.11
29.20
36.98
44.35
51.26
57.54
62.98
67.35
70.35
71.67
71.01
68.08
62.78
55.38
46.48
36.98
27.75
19.36
11.93
5.12
-1.53
-8.42
-15.67
-23.07
-30.15
-36.36
-41.09
-43.90
-44.52
-43.09
-40.10
-36.51
-33.43
-31.85
-32.27
-34.44
-37.45
-39.99
-40.94
-39.79
-36.93
-33.47
-30.86
-30.19
-31.91
-35.67
-40.66
-46.10
-51.46
-56.49
-60.94
-64.37
-66.18
-65.98
-63.93
-60.93
-58.25
-56.87
-56.92
-57.50
-56.96
-53.71
-46.80
-36.33
-23.26
-8.99
5.05
17.66
28.04
35.75
40.67
42.94
42.84
40.70
36.72
31.13
24.21
16.42
8.41
0.86
-5.74
-11.25
-15.79
-19.59
-22.78
-25.37
-27.35
-28.85
-30.21
-31.85
-34.02
-36.62
-39.25
-41.34
-42.39
-42.27
-41.18
-39.52
-37.78
-36.29
-35.16
-34.36
-33.81
-33.47
-33.40
-33.75
-34.65
-36.24
-38.58
-41.62
-45.21
-49.08
-52.91
-56.41
-59.48
-62.24
-65.04
-68.34
-72.58
-78.03
-84.60
-91.88
-99.01
-104.96
-108.61
-109.11
-106.06
-99.56
-90.18
-78.60
-65.43
-51.01
-35.49
-18.96
-1.63
16.08
33.60
50.33
65.79
79.69
92.03
102.93
112.55
120.95
128.08
133.81
138.05
140.89
142.51
143.17
142.97
141.90
139.83
136.64
132.36
127.13
121.18
114.74
108.04
101.29
94.69
88.39
82.41
76.60
70.66
64.26
57.22
49.59
41.67
33.94
26.89
20.87
16.07
12.37
9.41
6.60
3.32
-0.99
-6.60
-13.36
-20.70
-27.71
-33.42
-37.03
-38.21
-37.11
-34.27
-30.39
-26.07
-21.69
-17.40
-13.30
-9.59
-6.61
-4.76
-4.22
-4.84
-6.07
-7.25
-7.78
-7.46
-6.48
-5.26
-4.22
-3.54
-3.23
-3.17
-3.29
-3.65
-4.32
-5.25
-6.24
-6.94
-6.99
-6.21
-4.57
-2.27
0.43
3.23
5.80
7.83
9.01
9.19
8.40
6.88
4.97
3.04
1.38
0.15
-0.64
-1.13
-1.56
-2.25
-3.40
-5.06
-6.93
-8.45
-8.96
-7.92
-5.17
-0.96
4.13
9.45
14.51
19.15
23.49
27.76
32.21
36.86
41.60
46.24
50.58
54.56
58.20
61.48
64.30
66.45
67.80
68.31
68.28
68.18
68.62
70.03
72.56
75.94
79.68
83.27
86.45
89.38
92.56
96.67
102.16
109.08
116.96
124.96
132.28
138.47
143.68
148.50
153.72
159.93
167.30
175.34
183.00
188.62
190.24
186.04
174.77
156.38
131.96
103.55
73.40
43.18
13.57
-15.85
-46.35
-79.62
-117.10
-159.23
-204.59
-249.64
-289.11
-317.45
-330.74
-328.14
-312.24
-287.95
-260.63
-234.35
-211.06
-190.94
-173.37
-157.93
-144.65
-133.80
-125.36
-118.80
-113.21
-107.78
-102.17
-96.58
-91.65
-87.93
-85.55
-84.09
-82.71
-80.59
-77.30
-73.02
-68.40
-64.26
-61.21
-59.43
-58.71
-58.58
-58.52
-58.07
-56.96
-55.11
-52.69
-50.06
-47.66
-45.85
-44.73
-44.15
-43.79
-43.27
-42.30
-40.74
-38.50
-35.70
-32.63
-29.82
-27.79
-26.69
-25.93
-24.15
-19.60
-10.86
2.57
19.91
39.39
58.82
76.24
90.32
100.39
106.25
108.04
106.10
101.02
93.60
84.87
75.84
67.35
59.90
53.65
48.46
44.08
40.22
36.67
33.32
30.01
26.58
22.82
18.61
13.91
8.85
3.69
-1.37
-6.13
-10.60
-14.82
-18.93
-23.11
-27.48
-32.05
-36.74
-41.28
-45.38
-48.82
-51.47
-53.37
-54.55
-55.08
-55.01
-54.37
-53.23
-51.63
-49.43
-46.26
-41.56
-34.78
-25.68
-14.54
-2.12
10.49
22.32
32.71
41.43
48.60
54.46
59.15
62.59
64.48
64.39
61.90
56.74
48.83
38.32
25.56
11.13
-4.27
-19.84
-34.84
-48.73
-61.23
-72.28
-81.79
-89.44
-94.53
-96.14
-93.57
-86.63
-75.91
-62.46
-47.50
-32.03
-16.67
-1.72
12.60
26.03
38.32
49.27
58.92
67.46
75.09
81.78
87.28
91.09
92.68
91.63
87.66
80.68
70.84
58.61
44.81
30.55
16.96
4.88
-5.37
-14.09
-21.97
-29.67
-37.41
-44.62
-50.01
-52.06
-49.55
-42.21
-30.97
-17.66
-4.41
7.01
15.56
20.93
23.11
21.96
17.15
8.26
-4.74
-21.32
-40.37
-60.60
-80.88
-100.47
-119.03
-136.46
-152.91
-168.68
-184.23
-200.02
-216.27
-232.74
-248.56
-262.42
-272.91
-278.95
-280.13
-276.80
-269.79
-260.08
-248.42
-235.10
-220.06
-203.09
-184.12
-163.27
-140.82
-116.88
-91.11
-62.75
-30.70
6.19
48.75
97.01
149.68
203.72
254.37
296.03
323.69
334.65
329.70
312.95
290.58
268.71
251.64
241.01
236.03
234.56
234.28
233.30
230.24
224.09
214.00
199.49
180.83
159.20
136.67
115.61
97.80
83.77
72.71
62.83
52.22
39.83
25.87
11.75
-0.61
-9.63
-14.81
-16.92
-17.73
-19.28
-23.00
-29.17
-36.89
-44.49
-50.35
-53.41
-53.44
-50.84
-46.19
-40.02
-32.68
-24.62
-16.49
-9.19
-3.57
-0.10
1.31
1.22
0.36
-0.64
-1.44
-1.89
-1.86
-1.18
0.38
2.97
6.47
10.43
14.17
17.01
18.47
18.47
17.26
15.30
13.08
10.98
9.19
7.76
6.57
5.44
4.10
2.21
-0.54
-4.42
-9.43
-15.33
-21.64
-27.83
-33.48
-38.40
-42.50
-45.79
-48.12
-49.18
-48.59
-46.11
-41.78
-35.94
-29.14
-21.92
-14.66
-7.55
-0.61
6.12
12.48
18.17
22.82
26.13
28.03
28.72
28.65
28.33
28.22
28.60
29.47
30.67
31.90
32.86
33.32
33.12
32.22
30.62
28.38
25.59
22.30
18.56
14.49
10.21
5.97
1.97
-1.68
-4.97
-8.07
-11.27
-14.80
-18.83
-23.43
-28.60
-34.22
-40.13
-45.96
-51.14
-54.95
-56.61
-55.54
-51.57
-45.15
-37.16
-28.80
-21.07
-14.54
-9.24
-4.81
-0.82
2.86
6.05
8.28
9.08
8.26
5.96
2.60
-1.29
-5.25
-8.96
-12.26
-15.17
-17.79
-20.26
-22.62
-24.71
-26.10
-26.21
-24.59
-21.10
-16.09
-10.30
-4.61
0.28
4.02
6.70
8.77
10.87
13.68
17.71
23.24
30.12
37.79
45.38
51.94
56.82
59.96
61.98
63.88
66.71
71.08
76.86
83.14
88.46
91.26
90.43
85.64
77.48
67.25
56.50
46.33
37.01
27.94
18.04
6.44
-7.01
-21.70
-36.56
-50.70
-63.69
-75.52
-86.09
-94.84
-100.71
-102.58
-99.94
-93.07
-82.91
-70.36
-55.76
-38.74
-18.78
4.18
29.33
55.00
79.12
99.82
115.70
125.91
129.91
127.36
118.28
103.29
83.90
62.49
41.96
25.10
13.98
9.48
11.34
18.45
29.38
42.80
57.56
72.56
86.54
98.24
106.68
111.78
114.63
117.23
121.66
129.09
139.12
149.81
158.35
162.10
159.46
150.25
135.53
117.01
96.50
75.56
55.39
36.83
20.34
5.97
-6.77
-18.85
-31.42
-45.36
-60.89
-77.46
-93.89
-108.95
-121.74
-132.09
-140.57
-148.24
-156.16
-164.97
-174.65
-184.29
-192.14
-195.81
-192.87
-181.59
-161.77
-135.05
-104.69
-74.66
-48.55
-28.71
-15.89
-9.53
-8.43
-11.26
-16.82
-24.11
-32.09
-39.77
-46.25
-50.97
-53.90
-55.49
-56.57
-58.03
-60.50
-64.04
-68.03
-71.38
-72.87
-71.70
-67.62
-60.94
-52.20
-41.89
-30.20
-17.17
-2.89
12.16
27.00
40.26
50.60
57.04
59.41
58.48
55.71
52.82
51.22
51.59
53.75
56.92
60.18
62.82
64.50
65.15
64.89
63.85
62.25
60.37
58.63
57.45
57.11
57.72
59.18
61.32
64.09
67.59
72.07
77.71
84.42
91.52
97.86
101.86
101.96
97.02
86.67
71.39
52.44
31.45
10.03
-10.50
-29.32
-46.04
-60.63
-73.29
-84.33
-93.98
-102.30
-109.01
-113.62
-115.50
-114.14
-109.38
-101.50
-91.27
-79.74
-68.07
-57.24
-47.99
-40.68
-35.44
-32.15
-30.58
-30.32
-30.80
-31.31
-31.09
-29.53
-26.32
-21.60
-15.79
-9.45
-3.06
3.12
8.95
14.30
18.94
22.64
25.20
26.63
27.15
27.10
26.74
26.14
25.21
23.73
21.52
18.56
14.97
10.93
6.59
1.99
-3.03
-8.71
-15.22
-22.46
-29.95
-36.86
-42.23
-45.25
-45.52
-43.17
-38.75
-33.05
-26.84
-20.65
-14.77
-9.34
-4.46
-0.26
3.03
5.25
6.36
6.57
6.26
5.92
5.94
6.44
7.27
8.09
8.59
8.67
8.45
8.25
8.31
8.72
9.31
9.77
9.76
9.08
7.76
6.04
4.25
2.73
1.67
1.08
0.84
0.75
0.62
0.36
-0.07
-0.64
-1.37
-2.31
-3.61
-5.50
-8.19
-11.79
-16.27
-21.34
-26.46
-30.89
-33.87
-34.77
-33.28
-29.46
-23.70
-16.65
-9.00
-1.37
5.78
12.11
17.34
21.26
23.69
24.58
24.02
22.33
19.97
17.50
15.47
14.32
14.31
15.41
17.33
19.53
21.51
22.85
23.43
23.38
22.89
22.11
21.02
19.51
17.48
15.05
12.48
10.09
7.99
6.06
3.94
1.28
-2.01
-5.69
-9.30
-12.45
-14.99
-17.10
-19.19
-21.66
-24.71
-28.28
-32.09
-35.70
-38.55
-40.07
-39.75
-37.25
-32.46
-25.66
-17.40
-8.44
0.41
8.47
15.26
20.52
24.22
26.46
27.47
27.51
26.91
26.05
25.31
25.01
25.25
25.86
26.50
26.76
26.47
25.70
24.80
24.15
23.98
24.26
24.65
24.75
24.20
22.89
20.97
18.71
16.40
14.17
11.99
9.78
7.53
5.35
3.47
2.07
1.15
0.49
-0.20
-1.20
-2.56
-4.18
-5.86
-7.47
-9.06
-10.78
-12.83
-15.35
-18.42
-22.10
-26.46
-31.48
-36.91
-42.12
-46.20
-48.18
-47.27
-43.23
-36.43
-27.74
-18.25
-8.96
-0.55
6.63
12.53
17.23
20.82
23.39
24.98
25.69
25.71
25.33
24.85
24.52
24.43
24.47
24.48
24.36
24.12
23.90
23.90
24.17
24.59
24.89
24.77
24.06
22.86
21.45
20.13
19.08
18.24
17.37
16.18
14.52
12.44
10.20
8.10
6.35
5.00
3.94
2.97
1.87
0.47
-1.37
-3.66
-6.31
-9.12
-11.87
-14.38
-16.60
-18.65
-20.74
-23.13
-26.01
-29.43
-33.20
-36.88
-39.84
-41.36
-40.78
-37.81
-32.55
-25.58
-17.70
-9.81
-2.59
3.52
8.35
11.96
14.50
16.16
17.10
17.51
17.52
17.26
16.83
16.27
15.65
15.02
14.51
14.27
14.48
15.21
16.38
17.74
18.92
19.60
19.59
18.93
17.77
16.32
14.75
13.19
11.68
10.20
8.77
7.37
6.03
4.76
3.58
2.48
1.40
0.27
-1.00
-2.48
-4.14
-5.95
-7.78
-9.56
-11.25
-12.91
-14.65
-16.62
-18.95
-21.66
-24.68
-27.65
-30.05
-31.19
-30.48
-27.63
-22.84
-16.70
-10.01
-3.55
2.20
7.00
10.78
13.55
15.28
15.95
15.66
14.66
13.33
12.01
10.96
10.24
9.85
9.73
9.90
10.38
11.15
12.18
13.33
14.45
15.36
15.90
15.87
15.12
13.55
11.22
8.31
5.13
2.02
-0.82
-3.33
-5.58
-7.68
-9.70
-11.61
-13.38
-15.02
-16.58
-18.14
-19.67
-21.07
-22.18
-22.96
-23.49
-23.99
-24.62
-25.39
-26.19
-26.88
-27.49
-28.29
-29.67
-31.94
-34.98
-38.29
-40.95
-42.03
-40.82
-37.13
-31.27
-23.99
-16.15
-8.52
-1.68
4.10
8.76
12.34
14.90
16.49
17.22
17.22
16.81
16.30
15.99
16.02
16.39
16.94
17.52
18.05
18.61
19.40
20.55
22.08
23.80
25.40
26.64
27.38
27.73
27.87
28.07
28.46
29.15
30.10
31.35
32.88
34.69
36.77
39.00
41.23
43.25
44.82
45.64
45.33
43.59
40.22
35.22
28.90
21.73
14.26
6.95
0.10
-6.17
-11.85
-16.96
-21.52
-25.57
-29.17
-32.40
-35.27
-37.70
-39.62
-40.98
-41.97
-42.99
-44.57
-47.06
-50.44
-54.16
-57.27
-58.72
-57.71
-53.95
-47.77
-39.92
-31.42
-23.20
-15.95
-10.00
-5.38
-1.91
0.64
2.48
3.77
4.62
5.12
5.34
5.38
5.35
5.34
5.49
5.91
6.71
7.93
9.50
11.20
12.78
13.98
14.63
14.72
14.34
13.66
12.86
12.10
11.46
10.98
10.62
10.31
9.94
9.36
8.46
7.23
5.71
4.09
2.54
1.20
0.12
-0.75
-1.52
-2.29
-3.22
-4.43
-5.97
-7.87
-9.97
-12.04
-13.79
-15.02
-15.75
-16.24
-16.87
-18.01
-19.82
-22.30
-25.31
-28.66
-32.17
-35.53
-38.20
-39.48
-38.66
-35.28
-29.46
-21.85
-13.48
-5.38
1.71
7.51
12.05
15.49
17.86
19.13
19.22
18.25
16.56
14.67
13.09
12.09
11.70
11.73
11.96
12.24
12.58
13.09
13.78
14.53
15.11
15.32
15.09
14.59
14.06
13.69
13.42
13.01
12.18
10.78
8.93
6.94
5.13
3.69
2.59
1.62
0.50
-1.01
-2.99
-5.41
-8.10
-10.85
-13.44
-15.68
-17.54
-19.12
-20.63
-22.33
-24.46
-27.10
-30.20
-33.52
-36.67
-39.05
-40.03
-39.03
-35.72
-30.24
-23.15
-15.37
-7.89
-1.39
3.87
8.03
11.44
14.38
16.81
18.53
19.28
19.03
18.11
17.00
16.24
16.07
16.42
17.03
17.65
18.25
18.93
19.82
20.86
21.82
22.34
22.25
21.51
20.32
18.92
17.48
16.07
14.64
13.10
11.40
9.48
7.33
4.95
2.43
-0.09
-2.47
-4.66
-6.74
-8.86
-11.08
-13.28
-15.27
-16.85
-18.07
-19.22
-20.73
-22.96
-26.01
-29.69
-33.52
-36.86
-39.05
-39.55
-37.98
-34.27
-28.63
-21.52
-13.56
-5.40
2.33
9.11
14.52
18.41
20.85
22.12
22.62
22.68
22.51
22.16
21.67
21.15
20.80
20.77
21.11
21.67
22.17
22.35
22.10
21.41
20.38
19.03
17.26
14.80
11.34
6.63
0.54
-6.83
-15.31
-24.65
-34.57
-44.62
-54.19
-62.43
-68.50
-71.82
-72.37
-70.72
-67.89
-64.95
-62.72
-61.52
-61.29
-61.68
-62.35
-62.94
-63.18
-62.73
-61.32
-58.73
-54.77
-49.29
-42.10
-32.90
-21.44
-7.66
8.06
24.85
41.49
56.71
69.49
79.29
86.04
89.99
91.47
90.80
88.28
84.28
79.28
73.85
68.49
63.56
59.22
55.46
52.23
49.47
47.17
45.31
43.80
42.47
41.05
39.29
37.01
34.13
30.72
26.95
23.07
19.32
15.89
12.87
10.25
7.92
5.80
3.84
2.04
0.46
-0.93
-2.26
-3.73
-5.48
-7.55
-9.79
-11.99
-14.08
-16.21
-18.72
-21.94
-25.87
-30.06
-33.68
-35.76
-35.56
-32.89
-28.05
-21.76
-14.87
-8.10
-1.93
3.47
8.12
12.07
15.30
17.66
18.92
18.99
18.07
16.65
15.35
14.62
14.62
15.12
15.78
16.31
16.65
16.91
17.17
17.38
17.31
16.74
15.55
13.87
12.07
10.50
9.41
8.73
8.22
7.53
6.43
4.93
3.24
1.64
0.30
-0.79
-1.85
-3.11
-4.68
-6.48
-8.32
-10.00
-11.50
-13.03
-14.88
-17.31
-20.46
-24.24
-28.42
-32.65
-36.42
-39.10
-40.13
-39.14
-36.04
-31.12
-24.89
-17.97
-10.91
-4.14
2.03
7.36
11.74
15.10
17.50
19.07
19.94
20.24
20.03
19.36
18.35
17.20
16.20
15.58
15.53
15.99
16.81
17.71
18.48
18.98
19.25
19.33
19.25
18.93
18.29
17.29
16.05
14.80
13.82
13.21
12.85
12.44
11.67
10.35
8.53
6.50
4.56
2.98
1.80
0.92
0.09
-0.91
-2.22
-3.82
-5.50
-7.00
-8.10
-8.74
-9.07
-9.37
-9.95
-11.01
-12.53
-14.33
-16.19
-17.95
-19.65
-21.47
-23.67
-26.43
-29.70
-33.16
-36.22
-38.22
-38.57
-36.89
-33.16
-27.71
-21.14
-14.20
-7.57
-1.73
3.07
6.88
9.84
12.11
13.77
14.78
15.07
14.58
13.45
11.98
10.61
9.78
9.73
10.42
11.58
12.85
13.96
14.77
15.37
15.89
16.41
16.84
16.99
16.59
15.54
13.92
12.03
10.27
8.95
8.24
8.09
8.28
8.56
8.66
8.44
7.86
6.96
5.81
4.49
3.05
1.55
0.11
-1.14
-2.00
-2.38
-2.29
-1.96
-1.66
-1.67
-2.07
-2.76
-3.58
-4.41
-5.32
-6.54
-8.32
-10.72
-13.55
-16.45
-19.02
-21.04
-22.57
-23.85
-25.24
-26.94
-28.96
-31.07
-32.85
-33.79
-33.44
-31.48
-27.87
-22.84
-16.86
-10.54
-4.43
1.06
5.76
9.62
12.71
15.07
16.67
17.45
17.38
16.57
15.26
13.78
12.43
11.46
10.97
10.96
11.37
12.08
13.00
14.00
14.99
15.83
16.44
16.72
16.53
15.76
14.39
12.52
10.43
8.54
7.15
6.36
5.96
5.63
5.06
4.12
2.95
1.79
0.81
0.08
-0.53
-1.17
-1.91
-2.76
-3.63
-4.48
-5.40
-6.53
-8.00
-9.82
-11.83
-13.77
-15.43
-16.74
-17.75
-18.65
-19.70
-21.08
-22.94
-25.39
-28.41
-31.80
-35.08
-37.54
-38.35
-36.93
-33.15
-27.42
-20.56
-13.51
-7.01
-1.42
3.20
6.96
9.97
12.26
13.84
14.76
15.14
15.16
14.96
14.66
14.28
13.88
13.54
13.38
13.45
13.68
13.89
13.88
13.52
12.82
11.92
11.00
10.23
9.63
9.21
8.85
8.53
8.21
7.94
7.70
7.47
7.16
6.62
5.81
4.74
3.56
2.46
1.59
0.94
0.35
-0.45
-1.73
-3.66
-6.17
-8.99
-11.78
-14.22
-16.07
-17.31
-18.11
-18.79
-19.72
-21.24
-23.49
-26.43
-29.77
-33.01
-35.55
-36.78
-36.17
-33.44
-28.73
-22.55
-15.73
-9.18
-3.58
0.75
3.97
6.42
8.47
10.24
11.59
12.32
12.29
11.64
10.73
9.97
9.63
9.74
10.14
10.61
11.04
11.47
12.00
12.73
13.62
14.45
14.86
14.53
13.36
11.59
9.71
8.27
7.67
7.88
8.48
8.83
8.40
7.01
4.92
2.67
0.79
-0.43
-1.08
-1.46
-1.97
-2.79
-3.99
-5.44
-7.02
-8.65
-10.34
-12.07
-13.81
-15.46
-16.92
-18.19
-19.36
-20.64
-22.25
-24.24
-26.38
-28.16
-28.86
-27.87
-24.92
-20.20
-14.34
-8.15
-2.31
2.75
6.91
10.24
12.77
14.52
15.42
15.51
14.94
14.01
13.06
12.36
12.02
12.07
12.46
13.12
13.97
14.94
15.96
16.96
17.86
18.52
18.81
18.58
17.78
16.49
14.95
13.47
12.31
11.50
10.88
10.10
8.92
7.27
5.33
3.43
1.85
0.66
-0.29
-1.31
-2.69
-4.56
-6.84
-9.28
-11.61
-13.68
-15.50
-17.18
-18.94
-20.92
-23.26
-25.99
-29.12
-32.53
-35.90
-38.66
-40.12
-39.56
-36.59
-31.27
-24.16
-16.17
-8.31
-1.34
4.30
8.57
11.66
13.86
15.36
16.28
16.72
16.80
16.73
16.73
16.98
17.50
18.17
18.88
19.55
20.22
20.94
21.78
22.60
23.21
23.37
22.92
21.87
20.38
18.68
16.99
15.48
14.17
13.03
11.89
10.62
9.17
7.61
6.10
4.81
3.83
3.09
2.43
1.64
0.68
-0.42
-1.54
-2.55
-3.48
-4.44
-5.59
-7.06
-8.84
-10.83
-12.84
-14.67
-16.20
-17.46
-18.61
-19.94
-21.76
-24.28
-27.54
-31.33
-35.23
-38.61
-40.78
-41.10
-39.13
-34.79
-28.42
-20.73
-12.63
-5.03
1.46
6.60
10.50
13.49
15.89
17.90
19.63
21.09
22.30
23.35
24.39
25.60
27.18
29.23
31.80
34.83
38.20
41.76
45.46
49.39
53.78
58.87
64.83
71.64
79.08
86.91
94.87
102.76
110.46
117.79
124.59
130.76
136.35
141.50
146.41
151.07
155.20
158.29
159.78
159.27
156.72
152.38
146.68
140.01
132.70
124.91
116.72
108.19
99.36
90.31
81.11
71.91
62.89
54.27
46.25
38.89
32.13
25.65
19.03
11.88
4.09
-4.12
-12.15
-19.23
-24.65
-28.01
-29.37
-29.17
-28.21
-27.41
-27.73
-30.05
-35.08
-43.23
-54.41
-67.96
-82.70
-97.26
-110.42
-121.45
-130.20
-136.94
-142.04
-145.69
-147.84
-148.30
-146.95
-143.91
-139.47
-134.00
-127.81
-121.12
-114.16
-107.24
-100.72
-94.91
-89.92
-85.56
-81.48
-77.29
-72.82
-68.10
-63.32
-58.71
-54.38
-50.44
-46.95
-44.09
-42.07
-41.06
-41.05
-41.80
-42.90
-44.01
-44.93
-45.73
-46.71
-48.18
-50.37
-53.33
-56.83
-60.43
-63.62
-65.91
-66.95
-66.65
-65.13
-62.65
-59.58
-56.21
-52.66
-48.92
-44.92
-40.65
-36.27
-32.09
-28.58
-26.15
-24.98
-25.10
-26.26
-28.19
-30.63
-33.35
-36.18
-38.96
-41.64
-44.26
-47.06
-50.24
-53.84
-57.57
-60.80
-62.87
-63.39
-62.63
-61.72
-62.36
-66.31
-74.64
-87.23
-102.70
-118.90
-133.63
-145.32
-153.16
-156.85
-156.25
-151.41
-142.95
-132.61
-123.38
-118.64
-120.90
-130.41
-144.77
-159.79
-170.91
-174.88
-170.50
-158.52
-140.77
-119.40
-96.24
-72.57
-49.17
-26.26
-3.53
19.74
44.58
72.10
103.33
138.91
178.58
220.65
262.01
298.58
326.50
343.55
349.91
347.87
340.50
330.18
317.59
301.99
282.30
258.40
231.63
204.36
178.92
156.46
136.79
118.81
101.40
84.20
67.79
53.34
41.97
34.13
29.18
25.52
20.93
13.51
2.38
-11.85
-27.39
-42.16
-54.69
-64.66
-72.61
-79.07
-83.72
-85.21
-81.86
-72.74
-58.57
-41.65
-25.00
-11.06
-0.77
6.52
12.42
18.59
26.05
34.99
44.95
55.10
64.49
72.22
77.44
79.58
78.62
75.26
70.93
67.38
66.24
68.48
74.18
82.48
91.93
100.73
107.24
110.42
110.11
107.12
102.89
98.85
95.77
93.40
90.69
86.39
79.61
70.22
58.61
45.25
30.39
13.90
-4.44
-24.61
-46.08
-67.69
-87.82
-104.69
-116.82
-123.37
-124.36
-120.64
-113.58
-104.61
-94.88
-85.17
-75.90
-67.43
-60.09
-54.14
-49.53
-45.79
-42.07
-37.51
-31.56
-24.24
-16.12
-8.07
-0.98
4.47
7.98
9.63
9.95
9.78
10.20
12.17
16.13
21.77
28.13
34.21
39.70
45.49
53.36
65.19
81.94
103.02
126.48
150.13
172.50
193.44
213.83
234.73
256.54
278.75
300.26
320.17
337.99
353.69
367.14
377.51
383.21
382.23
372.87
354.25
326.39
289.72
244.88
192.80
134.75
72.52
8.33
-55.58
-117.61
-177.26
-235.63
-294.81
-357.38
-425.75
-501.40
-583.43
-667.60
-746.23
-809.94
-851.43
-867.02
-857.70
-828.60
-786.89
-739.16
-689.46
-639.23
-588.54
-539.58
-494.54
-454.49
-418.83
-385.85
-353.52
-320.21
-285.23
-249.01
-215.86
-188.75
-167.64
-149.72
-131.59
-110.86
-86.52
-58.88
-29.33
-3.79
13.70
22.77
26.07
26.58
25.93
24.60
22.14
42.31
92.39
161.80
229.52
279.80
308.31
318.27
315.55
305.38
291.54
272.35
246.90
216.74
185.50
156.15
129.90
107.13
87.77
71.83
56.36
39.78
22.79
7.85
-2.42
-8.82
-11.70
-11.11
-6.79
-0.50
6.39
13.30
20.26
27.18
33.86
40.99
49.90
62.19
78.05
96.87
117.38
138.08
157.44
174.64
190.34
206.29
224.69
247.48
276.44
313.01
357.37
407.09
455.96
494.76
513.60
505.96
471.98
419.09
359.25
303.98
260.04
227.88
203.69
183.00
163.78
146.93
134.53
127.32
123.48
119.40
111.84
99.68
84.21
68.12
53.82
42.42
33.87
27.84
24.24
23.31
24.92
27.79
29.36
26.43
16.39
-2.07
-28.46
-60.68
-95.24
-127.64
-153.10
-167.99
-171.63
-167.29
-161.50
-161.31
-170.91
-189.27
-210.55
-226.92
-232.51
-225.94
-210.29
-190.79
-171.88
-155.42
-140.88
-126.81
-112.46
-98.33
-85.72
-75.68
-68.18
-62.10
-55.83
-48.11
-38.63
-28.26
-18.55
-11.02
-6.42
-4.42
-3.83
-3.07
-1.03
2.65
7.38
12.02
15.32
16.46
15.27
12.21
8.16
3.98
0.25
-2.98
-6.06
-9.51
-13.71
-18.64
-23.88
-28.74
-32.48
-34.61
-34.92
-33.51
-30.64
-26.66
-21.90
-16.65
-11.15
-5.67
-0.47
4.17
8.02
10.92
12.86
13.96
14.46
14.63
14.74
14.95
15.32
15.78
16.22
16.52
16.58
16.43
16.16
15.98
16.00
16.29
16.70
16.99
16.92
16.38
15.48
14.37
13.22
12.06
10.74
9.13
7.15
4.89
2.51
0.16
-2.10
-4.30
-6.50
-8.70
-10.90
-13.08
-15.27
-17.56
-19.95
-22.31
-24.29
-25.39
-25.14
-23.21
-19.63
-14.76
-9.25
-3.88
0.74
4.24
6.58
7.95
8.69
9.04
9.19
9.27
9.40
9.74
10.34
11.17
12.01
12.60
12.68
12.23
11.45
10.68
10.29
10.51
11.26
12.17
12.70
12.37
11.06
9.06
6.96
5.33
4.39
3.89
3.26
1.94
-0.25
-3.07
-6.08
-8.87
-11.34
-13.65
-16.04
-18.66
-21.44
-24.20
-26.80
-29.15
-31.19
-32.73
-33.50
-33.10
-31.27
-28.01
-23.56
-18.33
-12.77
-7.26
-2.04
2.71
6.85
10.27
12.87
14.65
15.68
16.13
16.24
16.23
16.32
16.67
17.28
18.03
18.70
19.04
18.91
18.33
17.53
16.75
16.21
15.98
15.94
15.86
15.50
14.74
13.59
12.18
10.66
9.08
7.41
5.57
3.53
1.39
-0.63
-2.25
-3.37
-4.01
-4.44
-4.98
-5.90
-7.27
-8.95
-10.72
-12.30
-13.58
-14.60
-15.58
-16.84
-18.71
-21.35
-24.68
-28.33
-31.67
-34.03
-34.89
-33.92
-31.15
-26.83
-21.35
-15.13
-8.68
-2.53
2.85
7.09
10.06
11.89
12.89
13.39
13.68
13.87
13.99
14.04
14.10
14.30
14.79
15.69
16.95
18.42
19.87
21.04
21.75
21.93
21.66
21.09
20.41
19.76
19.20
18.72
18.28
17.80
17.26
16.70
16.14
15.65
15.19
14.73
14.18
13.51
12.80
12.13
11.59
11.12
10.54
9.61
8.18
6.29
4.16
2.13
0.43
-0.91
-2.08
-3.38
-5.08
-7.28
-9.93
-12.87
-15.93
-19.08
-22.40
-26.05
-30.10
-34.41
-38.58
-42.04
-44.27
-44.90
-43.85
-41.25
-37.37
-32.47
-26.75
-20.44
-13.82
-7.26
-1.18
4.06
8.27
11.43
13.66
15.03
15.46
14.73
12.60
8.97
4.13
-1.22
-6.05
-9.35
-10.45
-9.30
-6.47
-2.97
0.05
1.65
1.36
-0.76
-4.02
-7.34
-9.54
-9.68
-7.52
-3.57
1.04
4.96
7.31
8.00
7.79
7.85
9.14
11.86
15.26
18.09
19.02
17.21
12.59
5.99
-1.16
-7.33
-11.16
-11.97
-10.24
-8.35
-10.47
-21.12
-42.72
-73.37
-106.48
-133.18
-146.24
-143.38
-128.60
-110.00
-95.48
-88.83
-88.56
-89.65
-86.73
-76.49
-57.33
-29.56
4.94
42.60
78.09
105.09
117.91
113.93
95.09
69.49
46.98
35.05
36.16
48.19
66.77
87.35
106.43
121.95
135.35
147.79
158.54
165.11
165.52
160.33
152.47
145.86
143.78
151.22
170.52
200.04
234.66
268.61
297.74
319.83
333.92
318.86
263.81
175.30
75.44
-13.60
-81.11
-127.18
-156.87
-175.55
-186.94
-189.90
-183.54
-169.64
-152.95
-138.37
-128.50
-123.24
-121.01
-119.89
-116.03
-107.08
-93.50
-78.31
-64.90
-55.04
-48.69
-44.77
-42.00
-37.81
-30.57
-20.42
-9.14
1.05
9.02
14.57
18.11
20.12
21.68
23.39
25.03
25.66
23.98
19.61
12.70
3.85
-6.24
-16.56
-26.35
-35.15
-41.88
-47.22
-51.30
-54.16
-55.80
-56.25
-55.64
-54.22
-52.25
-49.97
-47.77
-45.68
-43.73
-41.90
-40.12
-38.37
-36.70
-35.18
-33.83
-32.85
-32.17
-31.71
-31.39
-31.08
-30.74
-30.47
-30.37
-30.56
-31.23
-32.31
-33.66
-35.46
-37.16
-38.56
-39.70
-40.73
-41.77
-42.86
-43.75
-43.93
-42.79
-40.18
-35.60
-29.38
-22.29
-15.28
-9.16
-4.26
-0.40
2.99
6.44
10.13
13.53
15.67
15.48
12.42
6.71
-0.52
-7.73
-13.62
-17.53
-19.86
-21.66
-24.17
-28.48
-35.38
-45.26
-57.73
-71.04
-81.72
-85.28
-77.75
-57.78
-27.83
6.15
36.95
58.85
69.71
71.14
66.93
60.78
54.71
48.91
42.77
36.05
29.41
23.95
20.33
18.26
16.39
13.05
6.97
-2.12
-13.43
-25.66
-37.54
-48.52
-58.62
-68.53
-79.08
-90.66
-102.96
-115.02
-125.56
-133.24
-138.03
-139.98
-139.51
-137.20
-133.52
-128.68
-122.65
-115.35
-106.83
-97.48
-87.82
-78.68
-70.89
-65.14
-61.89
-61.31
-63.35
-67.86
-74.61
-83.25
-93.37
-104.55
-116.24
-127.84
-138.71
-148.23
-155.82
-161.03
-163.53
-163.18
-160.05
-154.33
-146.30
-136.26
-124.48
-111.23
-96.78
-81.41
-65.48
-49.39
-33.53
-18.18
-3.46
10.75
24.67
38.54
52.51
66.56
80.49
94.06
107.10
119.61
131.83
144.11
156.81
170.07
183.83
197.77
211.54
224.81
237.42
249.37
260.81
272.07
283.83
297.06
312.60
330.61
349.90
367.81
380.92
386.25
382.41
370.07
351.50
329.51
306.35
283.36
261.12
239.99
220.30
202.17
185.11
167.92
149.16
127.90
104.35
79.82
56.24
35.25
17.67
3.31
-8.64
-19.13
-28.81
-37.92
-46.40
-54.13
-61.08
-67.37
-73.18
-78.62
-83.55
-87.54
-89.96
-90.27
-88.19
-83.94
-78.22
-72.02
-66.41
-62.18
-59.67
-58.69
-58.59
-58.47
-57.54
-55.30
-51.73
-47.26
-42.57
-38.32
-35.03
-32.89
-31.91
-31.89
-32.56
-33.59
-34.66
-35.49
-35.91
-35.92
-35.67
-35.37
-35.22
-35.27
-35.47
-35.65
-35.70
-35.68
-35.81
-36.34
-37.49
-39.24
-41.30
-43.10
-44.00
-43.43
-41.09
-37.05
-31.71
-25.63
-19.44
-13.60
-8.37
-3.76
0.32
3.98
7.27
10.15
12.51
14.24
15.24
15.49
15.08
14.07
12.60
10.85
9.03
7.39
6.22
5.70
5.92
6.73
7.84
8.86
9.49
9.66
9.46
9.14
8.89
8.73
8.52
7.98
6.87
5.04
2.47
-0.80
-4.64
-8.93
-13.49
-18.02
-22.13
-25.35
-27.28
-27.75
-26.90
-25.22
-23.37
-22.04
-21.63
-22.21
-23.48
-24.94
-26.11
-26.58
-26.04
-24.31
-21.21
-16.65
-10.68
-3.58
4.11
11.61
18.07
22.75
25.23
25.49
23.98
21.33
18.29
15.47
13.23
11.76
11.14
11.46
12.75
14.91
17.61
20.33
22.47
23.55
23.45
22.33
20.60
18.65
16.75
14.99
13.38
11.90
10.55
9.31
8.07
6.61
4.71
2.27
-0.70
-4.00
-7.36
-10.49
-13.21
-15.42
-17.10
-18.32
-19.18
-19.91
-20.80
-22.20
-24.37
-27.39
-31.15
-35.20
-38.89
-41.42
-42.06
-40.25
-35.90
-29.31
-21.20
-12.52
-4.18
3.14
9.15
13.81
17.31
19.84
21.51
22.37
22.48
22.01
21.21
20.42
19.93
19.93
20.41
21.24
22.21
23.04
23.53
23.49
22.86
21.66
20.01
18.10
16.16
14.49
13.36
12.99
13.34
14.13
14.87
15.09
14.47
13.08
11.27
9.50
8.14
7.25
6.66
6.06
5.21
4.08
2.82
1.63
0.58
-0.41
-1.57
-3.14
-5.23
-7.83
-10.80
-13.96
-17.23
-20.61
-24.17
-27.98
-32.04
-36.29
-40.62
-44.94
-49.30
-53.90
-59.16
-65.75
-74.45
-85.98
-100.70
-118.40
-138.32
-159.38
-180.45
-200.52
-218.75
-234.13
-245.48
-251.50
-251.16
-244.18
-231.27
-213.86
-193.65
-171.98
-149.54
-126.42
-102.27
-76.60
-48.91
-18.62
14.98
52.72
95.17
142.01
191.40
239.83
282.77
315.89
336.60
344.83
342.98
334.79
323.92
312.66
301.51
289.70
275.94
259.14
238.53
213.80
185.02
153.16
120.38
90.05
66.01
51.23
46.56
50.09
57.64
64.10
65.19
58.62
44.66
25.51
4.35
-15.78
-32.58
-44.67
-51.36
-52.36
-47.57
-37.20
-21.96
-3.35
16.47
35.06
50.33
61.01
66.94
68.84
67.71
64.36
59.11
51.87
42.47
31.00
17.85
3.74
-10.66
-24.97
-39.21
-53.82
-69.38
-86.34
-104.63
-123.47
-141.55
-157.27
-169.31
-176.99
-180.40
-180.31
-177.77
-173.59
-168.02
-160.79
-151.22
-138.82
-123.62
-106.39
-88.48
-71.32
-55.85
-42.04
-28.84
-14.52
2.69
23.88
48.98
76.68
104.75
130.66
152.17
167.84
177.18
180.68
179.60
175.79
171.25
167.76
166.33
166.73
167.40
165.76
159.09
145.42
124.38
97.28
66.60
35.11
5.11
-21.89
-45.11
-64.10
-78.56
-88.39
-93.93
-96.09
-96.21
-95.59
-94.97
-94.35
-93.06
-90.28
-85.45
-78.53
-70.11
-61.08
-52.57
-45.61
-41.13
-39.68
-41.36
-45.78
-52.12
-59.44
-66.82
-73.62
-79.40
-83.82
-86.39
-86.53
-83.71
-77.71
-68.90
-58.13
-46.53
-35.16
-24.72
-15.45
-7.29
-0.10
6.18
11.42
15.39
17.97
19.15
19.17
18.38
17.09
15.51
13.66
11.51
9.03
6.38
3.85
1.84
0.59
0.13
0.20
0.36
0.14
-0.84
-2.71
-5.43
-8.70
-12.12
-15.19
-17.43
-18.49
-18.31
-17.15
-15.44
-13.67
-12.05
-10.53
-8.77
-6.35
-3.08
0.96
5.40
9.73
13.48
16.37
18.24
19.09
19.01
18.15
16.77
15.25
13.96
13.17
12.91
12.95
12.88
12.29
10.94
8.84
6.21
3.31
0.40
-2.37
-4.94
-7.29
-9.38
-11.24
-12.93
-14.58
-16.34
-18.32
-20.52
-22.83
-25.07
-27.14
-29.01
-30.76
-32.57
-34.57
-36.75
-38.87
-40.46
-40.96
-39.91
-37.16
-32.90
-27.62
-21.93
-16.29
-10.96
-6.02
-1.44
2.72
6.28
9.07
10.93
11.86
12.02
11.67
11.06
10.39
9.76
9.18
8.59
8.00
7.49
7.16
7.09
7.20
7.27
7.04
6.35
5.22
3.87
2.56
1.48
0.64
-0.01
-0.61
-1.21
-1.79
-2.34
-2.90
-3.63
-4.65
-6.04
-7.71
-9.45
-11.08
-12.44
-13.56
-14.55
-15.60
-16.83
-18.31
-19.96
-21.57
-22.82
-23.35
-22.85
-21.15
-18.30
-14.57
-10.31
-5.92
-1.72
2.11
5.50
8.32
10.50
11.97
12.67
12.70
12.24
11.57
10.94
10.49
10.20
10.01
9.82
9.65
9.56
9.69
10.09
10.72
11.42
12.01
12.35
12.36
12.04
11.46
10.67
9.68
8.60
7.51
6.51
5.70
5.03
4.39
3.57
2.44
0.93
-0.87
-2.83
-4.77
-6.56
-8.19
-9.68
-11.10
-12.52
-14.01
-15.61
-17.38
-19.34
-21.40
-23.45
-25.23
-26.45
-26.80
-26.07
-24.18
-21.20
-17.38
-13.04
-8.54
-4.19
-0.22
3.21
6.08
8.38
10.13
11.34
12.04
12.28
12.21
11.99
11.77
11.62
11.54
11.40
11.08
10.53
9.75
8.92
8.21
7.75
7.60
7.67
7.78
7.74
7.46
6.92
6.24
5.56
4.98
4.48
3.89
3.05
1.82
0.26
-1.49
-3.23
-4.81
-6.21
-7.50
-8.78
-10.08
-11.39
-12.63
-13.85
-15.11
-16.55
-18.20
-19.88
-21.24
-21.81
-21.17
-19.23
-16.17
-12.42
-8.44
-4.60
-1.03
2.28
5.41
8.35
10.94
12.94
14.20
14.72
14.65
14.24
13.78
13.45
13.32
13.31
13.36
13.39
13.40
13.42
13.46
13.48
13.39
13.05
12.34
11.26
9.91
8.42
6.94
5.54
4.22
2.87
1.38
-0.30
-2.12
-3.98
-5.65
-6.98
-7.87
-8.37
-8.63
-8.82
-9.10
-9.54
-10.16
-10.96
-11.98
-13.28
-14.90
-16.89
-19.17
-21.53
-23.67
-25.17
-25.62
-24.71
-22.34
-18.61
-13.91
-8.70
-3.53
1.20
5.19
8.33
10.68
12.38
13.59
14.40
14.87
14.98
14.79
14.36
13.84
13.42
13.17
13.12
13.25
13.51
13.85
14.22
14.55
14.73
14.68
14.32
13.69
12.84
11.90
10.98
10.14
9.38
8.63
7.83
6.88
5.73
4.36
2.79
1.08
-0.68
-2.37
-3.93
-5.29
-6.47
-7.47
-8.34
-9.13
-9.87
-10.58
-11.23
-11.88
-12.55
-13.37
-14.48
-16.00
-17.93
-20.03
-21.94
-23.16
-23.30
-22.14
-19.72
-16.27
-12.10
-7.59
-3.05
1.21
4.89
7.77
9.69
10.65
10.80
10.42
9.80
9.18
8.73
8.47
8.41
8.48
8.61
8.73
8.85
8.96
9.12
9.40
9.82
10.37
10.93
11.41
11.68
11.66
11.29
10.57
9.55
8.33
7.08
5.98
5.17
4.68
4.37
4.05
3.52
2.69
1.57
0.25
-1.18
-2.67
-4.22
-5.81
-7.35
-8.72
-9.80
-10.54
-11.00
-11.28
-11.56
-11.98
-12.69
-13.76
-15.27
-17.14
-19.22
-21.22
-22.74
-23.41
-22.90
-21.08
-18.01
-13.94
-9.23
-4.28
0.52
4.87
8.59
11.54
13.72
15.13
15.85
15.94
15.51
14.68
13.66
12.64
11.81
11.27
10.99
10.87
10.73
10.46
10.03
9.58
9.28
9.31
9.71
10.35
11.01
11.44
11.48
11.14
10.58
9.93
9.29
8.63
7.89
7.03
6.08
5.12
4.25
3.44
2.63
1.73
0.66
-0.56
-1.85
-3.17
-4.51
-5.92
-7.48
-9.16
-10.89
-12.55
-14.04
-15.32
-16.49
-17.69
-19.10
-20.81
-22.78
-24.78
-26.48
-27.46
-27.36
-25.97
-23.31
-19.58
-15.14
-10.35
-5.54
-0.97
3.19
6.79
9.74
12.04
13.69
14.78
15.38
15.53
15.21
14.38
13.08
11.51
10.00
8.94
8.58
8.95
9.88
11.07
12.20
13.04
13.52
13.66
13.53
13.21
12.80
12.33
11.86
11.37
10.77
9.98
8.97
7.76
6.48
5.28
4.25
3.43
2.78
2.24
1.73
1.21
0.64
-0.01
-0.75
-1.61
-2.55
-3.50
-4.39
-5.20
-5.98
-6.86
-7.91
-9.16
-10.57
-12.08
-13.64
-15.28
-17.03
-18.95
-21.00
-23.09
-25.02
-26.51
-27.27
-27.04
-25.69
-23.24
-19.88
-15.92
-11.72
-7.57
-3.63
0.00
3.33
6.31
8.84
10.83
12.19
12.93
13.16
13.00
12.56
11.93
11.14
10.26
9.40
8.71
8.38
8.55
9.26
10.39
11.76
13.12
14.30
15.20
15.77
16.00
15.82
15.18
14.03
12.48
10.69
8.97
7.54
6.51
5.79
5.21
4.60
3.91
3.19
2.49
1.87
1.27
0.57
-0.35
-1.60
-3.18
-5.01
-6.94
-8.81
-10.47
-11.86
-13.01
-14.04
-15.10
-16.33
-17.78
-19.41
-21.16
-22.94
-24.62
-26.05
-26.97
-27.03
-25.97
-23.65
-20.22
-16.07
-11.64
-7.36
-3.45
0.02
3.08
5.69
7.77
9.27
10.20
10.64
10.77
10.73
10.57
10.26
9.79
9.26
8.79
8.58
8.72
9.19
9.84
10.51
11.08
11.52
11.85
12.06
12.11
11.94
11.45
10.70
9.76
8.78
7.88
7.05
6.26
5.43
4.51
3.51
2.47
1.45
0.45
-0.55
-1.69
-3.06
-4.69
-6.52
-8.41
-10.15
-11.60
-12.68
-13.48
-14.22
-15.17
-16.50
-18.25
-20.25
-22.16
-23.57
-24.09
-23.43
-21.54
-18.57
-14.81
-10.67
-6.50
-2.58
0.90
3.80
5.98
7.34
7.85
7.67
7.11
6.55
6.36
6.66
7.37
8.29
9.20
9.99
10.70
11.45
12.35
13.41
14.53
15.50
16.15
16.33
16.02
15.26
14.16
12.84
11.36
9.77
8.07
6.29
4.49
2.80
1.33
0.21
-0.55
-1.02
-1.41
-1.92
-2.73
-3.87
-5.25
-6.70
-8.06
-9.26
-10.30
-11.27
-12.27
-13.33
-14.46
-15.72
-17.18
-18.97
-21.12
-23.52
-25.84
-27.59
-28.21
-27.37
-24.97
-21.25
-16.77
-12.17
-8.01
-4.66
-2.20
-0.49
0.66
1.36
1.63
1.37
0.49
-0.92
-2.64
-4.29
-5.51
-6.03
-5.72
-4.54
-2.55
0.10
3.15
6.21
8.87
10.83
12.02
12.66
13.18
13.99
15.33
17.09
18.88
20.08
20.11
18.69
16.02
12.80
10.04
8.66
9.02
10.74
12.83
14.22
14.24
12.93
10.92
8.95
7.29
5.47
2.39
-3.08
-11.52
-22.55
-34.76
-46.29
-55.33
-60.87
-63.03
-62.93
-62.33
-63.06
-66.51
-73.05
-81.66
-89.73
-93.37
-88.35
-71.37
-41.52
-1.07
44.88
89.76
127.63
154.81
170.62
176.83
176.29
171.48
163.75
153.27
139.65
122.65
102.66
80.76
58.30
36.54
16.21
-2.44
-19.36
-34.36
-46.88
-56.07
-61.15
-61.93
-59.05
-53.93
-48.28
-43.35
-39.55
-36.32
-32.58
-27.41
-20.62
-12.94
-5.79
-0.65
1.50
0.63
-2.38
-6.22
-9.63
-11.93
-13.18
-14.03
-15.27
-17.50
-20.87
-25.03
-29.33
-33.03
-35.50
-36.40
-35.64
-33.36
-29.86
-25.54
-20.79
-15.99
-11.48
-7.58
-4.52
-2.40
-1.11
-0.41
-0.00
0.32
0.56
0.55
0.14
-0.69
-1.71
-2.51
-2.71
-2.10
-0.72
1.16
3.24
5.27
7.13
8.78
10.23
11.45
12.40
13.04
13.34
13.38
13.24
12.98
12.56
11.90
10.87
9.43
7.61
5.49
3.20
0.86
-1.46
-3.65
-5.58
-7.11
-8.21
-8.96
-9.64
-10.56
-11.95
-13.81
-15.92
-17.85
-19.15
-19.45
-18.60
-16.59
-13.57
-9.78
-5.48
-1.02
3.27
7.00
9.83
11.55
12.03
11.40
9.84
7.65
5.08
2.42
-0.10
-2.23
-3.69
-4.29
-3.97
-2.84
-1.16
0.81
2.84
4.82
6.71
8.46
9.97
11.13
11.84
12.11
12.00
11.60
10.98
10.09
8.90
7.33
5.42
3.28
1.10
-0.97
-2.82
-4.43
-5.83
-7.11
-8.40
-9.83
-11.49
-13.47
-15.74
-18.20
-20.67
-22.88
-24.45
-25.03
-24.32
-22.24
-18.92
-14.69
-9.99
-5.23
-0.67
3.55
7.41
10.87
13.90
16.42
18.38
19.74
20.51
20.72
20.43
19.77
18.90
18.07
17.55
17.51
18.00
18.93
20.08
21.16
21.97
22.32
22.14
21.45
20.32
18.89
17.30
15.72
14.21
12.80
11.42
10.00
8.50
6.95
5.45
4.12
3.05
2.24
1.68
1.26
0.87
0.40
-0.25
-1.18
-2.46
-4.10
-6.03
-8.12
-10.21
-12.15
-13.86
-15.33
-16.62
-17.90
-19.34
-21.11
-23.33
-25.96
-28.77
-31.34
-33.13
-33.60
-32.43
-29.62
-25.43
-20.36
-14.94
-9.60
-4.58
-0.00
4.11
7.69
10.67
13.05
14.89
16.33
17.48
18.38
18.96
19.18
19.07
18.79
18.62
18.74
19.22
19.93
20.58
20.93
20.83
20.37
19.71
19.06
18.51
18.05
17.56
16.89
15.99
14.93
13.84
12.83
11.96
11.14
10.24
9.19
7.94
6.53
5.03
3.51
2.02
0.59
-0.72
-1.83
-2.65
-3.13
-3.33
-3.44
-3.68
-4.29
-5.39
-6.94
-8.79
-10.68
-12.39
-13.81
-14.93
-15.85
-16.77
-17.93
-19.53
-21.69
-24.36
-27.27
-29.93
-31.76
-32.24
-31.04
-28.17
-23.93
-18.82
-13.40
-8.09
-3.16
1.26
5.17
8.54
11.30
13.33
14.52
14.86
14.48
13.66
12.73
12.05
11.84
12.25
13.19
14.46
15.75
16.77
17.34
17.43
17.13
16.62
16.01
15.35
14.54
13.53
12.32
11.01
9.71
8.51
7.36
6.14
4.75
3.16
1.47
-0.12
-1.42
-2.40
-3.20
-4.05
-5.25
-6.89
-8.90
-11.06
-13.12
-14.95
-16.62
-18.30
-20.25
-22.60
-25.25
-27.89
-30.13
-31.51
-31.70
-30.52
-27.96
-24.21
-19.54
-14.32
-8.88
-3.54
1.43
5.80
9.38
12.08
13.89
14.93
15.38
15.45
15.33
15.19
15.13
15.22
15.54
16.07
16.75
17.45
18.05
18.50
18.82
19.07
19.27
19.40
19.29
18.85
17.98
16.78
15.48
14.29
13.38
12.72
12.18
11.57
10.70
9.38
7.41
4.60
0.82
-3.79
-8.89
-13.89
-18.22
-21.42
-23.33
-24.12
-24.07
-23.58
-22.90
-22.24
-21.76
-21.63
-21.99
-22.97
-24.56
-26.51
-28.49
-29.97
-30.46
-29.54
-27.07
-23.15
-18.18
-12.73
-7.29
-2.31
1.99
5.59
8.53
10.87
12.65
13.85
14.42
14.48
14.14
13.62
13.13
12.81
12.69
12.75
12.93
13.15
13.42
13.75
14.17
14.68
15.19
15.58
15.72
15.49
14.89
14.01
12.95
11.86
10.79
9.70
8.49
7.08
5.43
3.63
1.85
0.26
-1.01
-1.94
-2.67
-3.43
-4.51
-6.12
-8.27
-10.77
-13.33
-15.57
-17.36
-18.76
-20.04
-21.55
-23.55
-26.13
-29.13
-32.19
-34.78
-36.24
-35.89
-33.15
-27.78
-20.05
-10.86
-1.41
7.12
14.04
19.34
23.55
27.43
31.52
35.93
40.42
44.58
48.21
51.31
54.05
56.44
58.27
59.01
58.07
55.05
50.06
43.66
36.65
29.82
23.65
18.15
12.94
7.48
1.27
-5.86
-13.73
-21.91
-29.86
-37.15
-43.67
-49.68
-55.66
-62.14
-69.32
-76.95
-84.26
-90.19
-93.77
-94.55
-92.79
-89.36
-85.61
-82.82
-81.98
-83.52
-87.34
-92.94
-99.48
-106.09
-111.93
-116.60
-120.16
-123.22
-126.63
-131.09
-136.73
-142.99
-148.96
-153.98
-158.09
-161.82
-165.44
-168.09
-167.23
-159.23
-140.88
-111.05
-71.77
-28.07
13.54
47.12
69.08
79.10
79.91
76.43
74.26
78.33
91.63
114.49
144.30
176.01
203.32
220.43
223.92
214.08
195.18
174.28
158.94
154.72
163.40
182.90
208.56
235.15
258.44
275.50
284.14
282.21
267.75
239.93
200.26
152.92
103.78
58.44
20.40
-9.80
-34.00
-54.87
-74.33
-92.73
-109.04
-121.70
-129.54
-132.46
-131.44
-128.22
-124.52
-121.54
-119.47
-117.65
-114.92
-110.14
-102.59
-92.06
-78.67
-62.65
-44.24
-23.53
-0.51
24.95
53.17
84.58
119.49
157.53
197.15
235.41
268.43
292.17
303.68
301.97
288.36
266.02
239.08
211.47
186.08
164.58
147.44
134.20
123.86
114.98
105.99
95.35
81.77
64.20
41.84
14.07
-19.32
-57.62
-98.91
-139.98
-177.05
-206.81
-227.44
-238.97
-242.89
-241.13
-235.29
-226.35
-214.83
-201.27
-186.36
-170.75
-154.74
-138.24
-120.88
-102.61
-84.07
-66.66
-52.14
-42.06
-37.22
-37.37
-41.37
-47.39
-53.43
-57.69
-58.83
-56.13
-49.57
-39.72
-27.55
-14.27
-1.04
11.23
21.85
30.37
36.53
40.14
41.14
39.56
35.61
29.70
22.41
14.33
5.95
-2.42
-10.60
-18.51
-26.04
-32.98
-38.97
-43.67
-46.87
-48.66
-49.46
-49.84
-50.27
-50.87
-51.44
-51.49
-50.51
-48.17
-44.42
-39.46
-33.65
-27.32
-20.69
-13.94
-7.22
-0.66
5.56
11.29
16.44
20.91
24.66
27.67
29.86
31.16
31.55
31.04
29.82
28.14
26.29
24.52
22.96
21.59
20.30
19.01
17.66
16.26
14.91
13.62
12.41
11.23
10.04
8.82
7.65
6.61
5.76
5.09
4.47
3.72
2.67
1.20
-0.62
-2.68
-4.81
-6.92
-9.06
-11.36
-14.00
-17.06
-20.52
-24.21
-27.90
-31.32
-34.13
-36.00
-36.59
-35.63
-32.95
-28.65
-22.94
-16.30
-9.28
-2.39
3.93
9.39
13.79
17.14
19.55
21.27
22.52
23.42
24.06
24.39
24.44
24.25
24.02
23.86
23.84
23.90
23.89
23.71
23.35
22.93
22.57
22.34
22.15
21.86
21.35
20.61
19.80
19.05
18.44
17.89
17.22
16.22
14.82
13.11
11.28
9.51
7.84
6.16
4.21
1.81
-1.09
-4.26
-7.31
-9.87
-11.71
-12.92
-13.83
-14.86
-16.31
-18.21
-20.33
-22.24
-23.55
-23.94
-23.28
-21.51
-18.66
-14.84
-10.29
-5.41
-0.72
3.27
6.21
8.01
8.89
9.20
9.29
9.36
9.44
9.52
9.61
9.80
10.28
11.18
12.53
14.18
15.79
17.05
17.78
17.98
17.78
17.35
16.71
15.76
14.37
12.42
9.99
7.29
4.61
2.22
0.21
-1.45
-2.91
-4.26
-5.55
-6.73
-7.70
-8.35
-8.68
-8.78
-8.84
-9.11
-9.76
-10.93
-12.57
-14.58
-16.81
-19.17
-21.56
-23.84
-25.74
-26.83
-26.66
-24.84
-21.29
-16.28
-10.38
-4.25
1.52
6.55
10.70
13.95
16.39
18.08
19.08
19.45
19.30
18.73
17.85
16.75
15.49
14.17
12.90
11.75
10.82
10.17
9.82
9.74
9.92
10.26
10.69
11.09
11.34
11.45
11.36
11.07
10.59
9.94
9.10
8.06
6.88
5.56
4.18
2.75
1.26
-0.32
-1.98
-3.70
-5.40
-7.01
-8.47
-9.82
-11.18
-12.77
-14.79
-17.37
-20.48
-23.89
-27.20
-29.97
-31.68
-31.98
-30.67
-27.70
-23.27
-17.67
-11.35
-4.85
1.35
6.84
11.36
14.77
17.09
18.35
18.71
18.32
17.41
16.19
14.86
13.58
12.40
11.35
10.41
9.60
8.96
8.54
8.36
8.40
8.61
8.91
9.21
9.41
9.46
9.37
9.13
8.78
8.31
7.70
6.91
5.93
4.78
3.53
2.29
1.06
-0.24
-1.71
-3.43
-5.34
-7.21
-8.81
-9.97
-10.70
-11.22
-11.86
-12.95
-14.72
-17.23
-20.31
-23.57
-26.56
-28.76
-29.78
-29.36
-27.45
-24.22
-19.92
-14.84
-9.36
-3.82
1.40
5.96
9.60
12.25
13.92
14.79
15.08
15.00
14.71
14.39
14.15
14.02
14.03
14.11
14.23
14.39
14.64
15.05
15.65
16.41
17.16
17.67
17.79
17.43
16.70
15.77
14.84
14.01
13.25
12.43
11.44
10.21
8.82
7.40
6.09
4.98
4.05
3.21
2.36
1.43
0.39
-0.72
-1.81
-2.85
-3.83
-4.83
-5.97
-7.35
-9.00
-10.90
-12.89
-14.80
-16.51
-17.95
-19.16
-20.32
-21.67
-23.41
-25.63
-28.19
-30.73
-32.77
-33.80
-33.44
-31.54
-28.13
-23.46
-17.88
-11.83
-5.79
-0.22
4.46
8.04
10.45
11.81
12.34
12.25
11.73
10.92
9.93
8.94
8.14
7.71
7.74
8.21
8.93
9.69
10.28
10.55
10.50
10.21
9.78
9.35
9.02
8.77
8.58
8.35
7.97
7.37
6.51
5.37
4.03
2.56
1.05
-0.41
-1.82
-3.21
-4.61
-6.11
-7.72
-9.45
-11.26
-13.11
-14.89
-16.53
-17.97
-19.27
-20.56
-22.01
-23.71
-25.56
-27.23
-28.22
-28.08
-26.47
-23.40
-19.11
-13.99
-8.54
-3.19
1.66
5.72
8.79
10.88
12.14
12.91
13.60
14.57
15.98
17.72
19.50
20.92
21.67
21.61
20.80
19.48
17.86
16.15
14.42
12.66
10.89
9.20
7.68
6.50
5.74
5.34
5.14
4.95
4.55
3.88
3.01
2.11
1.31
0.67
0.05
-0.69
-1.69
-2.98
-4.45
-5.98
-7.47
-8.94
-10.53
-12.41
-14.63
-17.11
-19.67
-22.10
-24.26
-26.15
-27.75
-28.98
-29.64
-29.39
-27.95
-25.23
-21.37
-16.72
-11.77
-6.92
-2.48
1.35
4.48
6.87
8.56
9.61
10.14
10.31
10.23
10.07
9.95
9.94
10.07
10.30
10.59
10.89
11.23
11.69
12.35
13.21
14.15
15.01
15.60
15.86
15.75
15.32
14.59
13.58
12.28
10.73
8.99
7.17
5.37
3.66
2.03
0.42
-1.23
-2.98
-4.83
-6.74
-8.66
-10.46
-12.06
-13.37
-14.37
-15.13
-15.79
-16.57
-17.70
-19.34
-21.49
-23.91
-26.16
-27.70
-28.07
-26.98
-24.45
-20.68
-16.04
-10.92
-5.72
-0.78
3.63
7.35
10.30
12.52
14.12
15.18
15.77
15.94
15.76
15.39
15.05
14.89
14.96
15.24
15.61
15.98
16.27
16.51
16.66
16.68
16.44
15.84
14.82
13.46
11.94
10.46
9.18
8.12
7.14
6.08
4.84
3.44
2.01
0.78
-0.10
-0.63
-0.97
-1.35
-1.93
-2.71
-3.63
-4.61
-5.58
-6.60
-7.80
-9.27
-11.08
-13.15
-15.40
-17.72
-20.06
-22.40
-24.68
-26.73
-28.22
-28.75
-27.91
-25.51
-21.59
-16.51
-10.83
-5.16
0.01
4.38
7.81
10.29
11.82
12.41
12.07
10.89
9.11
7.07
5.20
3.90
3.40
3.69
4.58
5.80
7.13
8.48
9.86
11.30
12.78
14.20
15.38
16.22
16.65
16.68
16.36
15.77
15.00
14.09
13.11
12.05
10.85
9.41
7.67
5.64
3.44
1.14
-1.15
-3.43
-5.70
-7.98
-10.29
-12.64
-15.10
-17.73
-20.66
-23.93
-27.43
-30.87
-33.84
-35.87
-36.57
-35.75
-33.36
-29.56
-24.55
-18.63
-12.17
-5.58
0.65
6.06
10.33
13.35
15.25
16.32
16.86
17.10
17.11
16.92
16.53
16.01
15.50
15.14
15.06
15.29
15.79
16.41
17.00
17.45
17.66
17.60
17.26
16.62
15.70
14.51
13.09
11.46
9.67
7.79
5.89
4.05
2.34
0.81
-0.57
-1.83
-3.07
-4.32
-5.63
-6.93
-8.22
-9.53
-10.92
-12.45
-14.13
-15.94
-17.87
-19.95
-22.23
-24.71
-27.27
-29.57
-31.14
-31.48
-30.24
-27.36
-23.06
-17.76
-11.94
-6.00
-0.21
5.24
10.16
14.33
17.51
19.56
20.45
20.36
19.58
18.44
17.24
16.15
15.26
14.60
14.23
14.15
14.36
14.80
15.35
15.92
16.43
16.83
17.07
17.07
16.71
15.88
14.53
12.77
10.79
8.85
7.15
5.70
4.45
3.21
1.88
0.43
-1.09
-2.65
-4.22
-5.80
-7.45
-9.14
-10.81
-12.35
-13.63
-14.66
-15.44
-16.09
-16.69
-17.32
-18.01
-18.79
-19.62
-20.48
-21.38
-22.25
-22.90
-22.98
-21.98
-19.38
-14.93
-8.79
-1.52
5.99
12.94
18.77
23.35
26.74
29.12
30.52
30.84
29.99
28.01
25.15
21.84
18.51
15.51
12.98
10.94
9.26
7.87
6.67
5.71
4.97
4.40
3.84
3.06
1.94
0.49
-1.09
-2.51
-3.50
-3.95
-3.99
-3.88
-3.82
-3.90
-4.07
-4.20
-4.22
-4.18
-4.24
-4.60
-5.31
-6.35
-7.55
-8.74
-9.80
-10.75
-11.79
-13.07
-14.69
-16.51
-18.16
-19.13
-18.95
-17.33
-14.28
-10.15
-5.38
-0.48
4.18
8.29
11.71
14.30
16.04
16.96
17.17
16.85
16.25
15.54
14.81
14.04
13.14
12.02
10.69
9.26
7.97
7.04
6.56
6.53
6.81
7.23
7.65
8.07
8.48
8.90
9.29
9.57
9.55
9.10
8.08
6.46
4.35
2.00
-0.27
-2.18
-3.57
-4.47
-4.99
-5.30
-5.52
-5.74
-6.03
-6.46
-7.09
-7.96
-9.06
-10.31
-11.64
-13.03
-14.59
-16.47
-18.76
-21.39
-24.12
-26.53
-28.17
-28.62
-27.61
-25.09
-21.26
-16.41
-10.94
-5.19
0.46
5.64
9.97
13.10
14.83
15.15
14.28
12.57
10.44
8.15
5.88
3.68
1.60
-0.29
-1.84
-2.90
-3.31
-2.99
-1.96
-0.34
1.56
3.43
5.01
6.18
6.99
7.61
8.27
9.11
10.21
11.55
13.07
14.75
16.52
18.27
19.77
20.82
21.24
20.94
19.90
18.18
15.84
12.99
9.74
6.28
2.81
-0.53
-3.71
-6.85
-10.13
-13.75
-17.74
-21.99
-26.21
-30.00
-32.96
-34.75
-35.14
-34.06
-31.59
-27.87
-23.12
-17.57
-11.52
-5.31
0.64
5.89
10.06
12.93
14.51
15.04
14.91
14.47
14.04
13.78
13.71
13.80
13.94
14.06
14.12
14.13
14.18
14.38
14.79
15.40
16.08
16.62
16.80
16.45
15.51
14.09
12.34
10.42
8.48
6.67
5.08
3.78
2.76
1.89
1.04
0.02
-1.30
-2.96
-4.84
-6.79
-8.63
-10.25
-11.59
-12.70
-13.65
-14.67
-16.02
-17.89
-20.30
-22.98
-25.36
-26.75
-26.62
-24.74
-21.30
-16.78
-11.73
-6.63
-1.69
2.95
7.21
10.86
13.66
15.42
16.14
16.04
15.50
14.95
14.73
14.99
15.70
16.70
17.79
18.80
19.60
20.16
20.50
20.67
20.63
20.36
19.79
18.93
17.79
16.43
14.88
13.05
10.84
8.23
5.31
2.28
-0.59
-3.16
-5.35
-7.26
-9.00
-10.65
-12.17
-13.54
-14.74
-15.84
-16.95
-18.20
-19.65
-21.39
-23.45
-25.81
-28.47
-31.34
-34.16
-36.55
-38.01
-38.06
-36.34
-32.80
-27.68
-21.53
-15.02
-8.74
-3.16
1.53
5.30
8.23
10.39
11.87
12.75
13.13
13.17
13.00
12.79
12.62
12.57
12.63
12.78
13.00
13.31
13.76
14.35
15.07
15.77
16.28
16.46
16.26
15.79
15.26
14.84
14.52
14.22
13.67
12.70
11.28
9.55
7.73
6.05
4.64
3.44
2.36
1.29
0.21
-0.91
-2.15
-3.64
-5.61
-8.24
-11.58
-15.40
-19.35
-23.04
-26.25
-29.05
-31.63
-34.21
-36.75
-38.91
-40.11
-39.82
-37.72
-33.85
-28.61
-22.50
-16.01
-9.51
-3.24
2.65
7.94
12.41
15.85
18.10
19.20
19.35
18.93
18.34
17.93
17.87
18.13
18.61
19.17
19.74
20.26
20.70
20.95
20.86
20.36
19.44
18.24
16.96
15.81
14.84
14.02
13.23
12.34
11.28
10.00
8.55
6.94
5.24
3.48
1.74
0.02
-1.66
-3.35
-5.06
-6.72
-8.31
-9.78
-11.15
-12.48
-13.86
-15.35
-17.03
-18.92
-21.05
-23.43
-26.01
-28.58
-30.74
-31.98
-31.81
-29.98
-26.55
-21.90
-16.63
-11.31
-6.34
-1.92
1.95
5.33
8.22
10.55
12.21
13.13
13.33
12.96
12.22
11.32
10.44
9.72
9.23
9.08
9.29
9.83
10.58
11.31
11.80
11.91
11.62
11.05
10.38
9.77
9.25
8.73
8.06
7.14
5.93
4.52
2.99
1.46
-0.05
-1.53
-3.00
-4.50
-6.05
-7.64
-9.27
-10.93
-12.63
-14.37
-16.14
-17.96
-19.83
-21.74
-23.65
-25.39
-26.78
-27.51
-27.28
-25.88
-23.18
-19.21
-14.18
-8.49
-2.60
2.93
7.70
11.45
14.12
15.81
16.65
16.79
16.34
15.43
14.25
12.98
11.87
11.03
10.50
10.26
10.26
10.48
10.92
11.54
12.27
12.98
13.49
13.63
13.27
12.40
11.11
9.53
7.88
6.30
4.92
3.70
2.48
1.05
-0.74
-2.87
-5.24
-7.63
-9.89
-11.95
-13.89
-15.86
-18.06
-20.65
-23.65
-26.95
-30.24
-33.06
-34.87
-35.20
-33.79
-30.66
-26.10
-20.57
-14.57
-8.53
-2.77
2.52
7.22
11.30
14.74
17.49
19.49
20.69
21.08
20.71
19.75
18.46
17.14
16.07
15.41
15.24
15.51
16.12
16.93
17.79
18.55
19.08
19.27
19.09
18.59
17.94
17.36
16.96
16.74
16.57
16.18
15.41
14.20
12.69
11.10
9.60
8.21
6.81
5.16
3.16
0.78
-1.83
-4.52
-7.18
-9.77
-12.32
-14.87
-17.46
-20.03
-22.57
-25.09
-27.61
-30.16
-32.62
-34.77
-36.22
-36.54
-35.40
-32.67
-28.48
-23.20
-17.39
-11.56
-6.11
-1.26
2.92
6.45
9.30
11.44
12.85
13.52
13.60
13.28
12.81
12.43
12.27
12.39
12.77
13.40
14.19
15.08
15.98
16.78
17.32
17.52
17.30
16.68
15.80
14.78
13.79
12.86
11.98
11.03
9.92
8.60
7.08
5.41
3.64
1.84
0.01
-1.79
-3.53
-5.13
-6.57
-7.84
-9.03
-10.27
-11.73
-13.50
-15.63
-18.08
-20.76
-23.60
-26.54
-29.46
-32.23
-34.56
-36.14
-36.67
-35.99
-34.20
-31.52
-28.24
-24.62
-20.82
-16.91
-13.02
-9.34
-6.12
-3.64
-2.01
-1.10
-0.62
-0.09
0.89
2.57
4.87
7.54
10.27
12.89
15.47
18.26
21.53
25.32
29.40
33.26
36.33
38.20
38.79
38.36
37.33
36.09
34.84
33.51
31.86
29.63
26.65
22.97
18.83
14.53
10.31
6.28
2.44
-1.27
-4.82
-8.12
-11.02
-13.41
-15.27
-16.71
-17.91
-19.08
-20.37
-21.84
-23.51
-25.34
-27.25
-29.06
-30.52
-31.32
-31.14
-29.70
-26.85
-22.63
-17.25
-11.12
-4.75
1.34
6.66
10.89
13.91
15.75
16.63
16.82
16.62
16.27
15.98
15.85
15.91
16.13
16.44
16.80
17.23
17.74
18.33
18.88
19.23
19.17
18.64
17.65
16.36
15.00
13.73
12.64
11.70
10.76
9.66
8.32
6.73
4.99
3.25
1.60
0.06
-1.46
-3.12
-5.09
-7.42
-10.01
-12.64
-15.03
-16.98
-18.42
-19.45
-20.27
-21.16
-22.31
-23.80
-25.60
-27.57
-29.40
-30.73
-31.11
-30.15
-27.64
-23.61
-18.36
-12.32
-5.98
0.26
6.06
11.21
15.57
19.05
21.66
23.50
24.76
25.64
26.26
26.62
26.67
26.36
25.74
24.91
24.01
23.13
22.20
21.11
19.75
18.14
16.43
14.85
13.51
12.40
11.39
10.36
9.26
8.19
7.28
6.62
6.16
5.79
5.33
4.71
3.97
3.16
2.38
1.54
0.53
-0.84
-2.68
-4.93
-7.43
-9.91
-12.15
-14.03
-15.61
-17.04
-18.52
-20.25
-22.36
-24.84
-27.58
-30.34
-32.75
-34.42
-34.91
-33.92
-31.34
-27.29
-22.07
-16.14
-10.00
-4.10
1.16
5.52
8.85
11.16
12.57
13.30
13.59
13.67
13.67
13.68
13.67
13.65
13.68
13.82
14.13
14.60
15.16
15.72
16.22
16.66
17.13
17.64
18.17
18.56
18.55
17.91
16.54
14.53
12.06
9.47
7.02
4.89
3.11
1.54
0.01
-1.61
-3.41
-5.38
-7.44
-9.52
-11.56
-13.49
-15.30
-17.01
-18.72
-20.61
-22.85
-25.52
-28.49
-31.36
-33.58
-34.64
-34.21
-32.26
-29.05
-24.92
-20.24
-15.29
-10.36
-5.59
-1.15
2.94
6.67
10.12
13.33
16.20
18.61
20.32
21.31
21.63
21.49
21.16
20.82
20.56
20.28
19.86
19.12
18.04
16.64
15.06
13.38
11.63
9.74
7.53
4.95
2.10
-0.73
-3.13
-4.84
-5.80
-6.25
-6.55
-7.01
-7.70
-8.53
-9.32
-9.93
-10.40
-10.82
-11.36
-12.14
-13.18
-14.53
-16.19
-18.21
-20.57
-23.22
-25.94
-28.40
-30.17
-30.77
-29.80
-27.10
-22.83
-17.47
-11.69
-6.16
-1.35
2.57
5.66
8.08
9.89
11.12
11.74
11.76
11.37
10.84
10.45
10.32
10.41
10.55
10.61
10.56
10.56
10.87
11.65
12.91
14.46
15.94
17.02
17.54
17.54
17.19
16.72
16.24
15.71
15.03
14.04
12.69
11.00
9.03
6.88
4.59
2.20
-0.26
-2.75
-5.23
-7.62
-9.86
-11.87
-13.60
-14.96
-15.84
-16.06
-15.41
-13.69
-10.69
-6.33
-0.71
5.89
13.05
20.31
27.28
33.66
39.24
43.81
47.12
48.93
49.09
47.62
44.81
41.04
36.71
32.04
27.09
21.86
16.40
10.92
5.68
0.94
-3.20
-6.79
-9.88
-12.50
-14.55
-15.90
-16.50
-16.51
-16.28
-16.22
-16.62
-17.59
-18.99
-20.59
-22.18
-23.61
-24.86
-25.95
-26.95
-27.87
-28.73
-29.47
-30.03
-30.36
-30.46
-30.38
-30.28
-30.29
-30.50
-30.96
-31.59
-32.26
-32.79
-32.97
-32.55
-31.32
-29.11
-25.91
-21.92
-17.52
-13.15
-9.19
-5.83
-3.11
-0.95
0.72
1.92
2.66
3.01
3.15
3.34
3.89
5.05
6.91
9.40
12.29
15.25
17.92
20.02
21.31
21.72
21.29
20.12
18.31
15.98
13.21
10.05
6.53
2.69
-1.35
-5.40
-9.20
-12.51
-15.12
-17.00
-18.28
-19.14
-19.87
-20.65
-21.67
-22.98
-24.54
-26.13
-27.36
-27.76
-26.88
-24.56
-20.84
-16.11
-10.79
-5.33
-0.01
4.97
9.44
13.24
16.15
18.00
18.70
18.32
17.03
15.03
12.51
9.61
6.47
3.23
0.13
-2.61
-4.75
-6.19
-7.02
-7.44
-7.74
-8.09
-8.55
-9.00
-9.30
-9.34
-9.13
-8.74
-8.23
-7.65
-6.98
-6.18
-5.30
-4.42
-3.65
-3.10
-2.81
-2.75
-2.90
-3.19
-3.56
-3.96
-4.34
-4.73
-5.24
-6.03
-7.32
-9.25
-11.82
-14.79
-17.75
-20.14
-21.38
-21.08
-19.11
-15.68
-11.31
-6.65
-2.36
1.05
3.34
4.49
4.70
4.25
3.39
2.25
0.82
-0.99
-3.36
-6.41
-10.24
-14.83
-19.96
-25.24
-30.14
-34.17
-37.10
-39.13
-40.82
-42.91
-45.91
-49.85
-54.21
-58.16
-60.98
-62.37
-62.65
-62.49
-62.52
-62.93
-63.19
-62.16
-58.33
-50.20
-36.83
-18.27
4.20
27.98
49.60
65.68
74.03
74.59
69.61
62.82
57.98
57.43
61.41
68.34
75.91
82.22
86.37
88.39
88.77
87.96
86.18
83.62
80.64
77.79
75.69
74.69
74.72
75.35
75.97
76.06
75.40
74.01
72.06
69.63
66.45
61.99
55.67
47.31
37.61
28.27
21.62
19.81
23.86
33.03
44.87
55.92
62.93
63.93
58.88
49.52
38.61
28.87
22.22
19.30
19.56
21.65
24.01
25.38
25.20
23.74
21.96
21.19
22.55
26.45
32.18
37.97
41.28
39.44
30.38
13.41
-10.33
-37.81
-64.81
-87.05
-101.73
-108.72
-110.72
-112.33
-118.09
-130.54
-149.13
-170.54
-190.33
-205.04
-213.63
-217.63
-219.92
-222.87
-226.76
-229.07
-225.34
-210.81
-182.55
-140.85
-89.53
-34.87
16.24
58.35
88.85
108.24
119.36
125.97
131.37
137.59
145.14
153.34
160.87
166.18
167.77
164.41
155.24
140.03
119.45
95.03
68.97
43.66
21.13
2.57
-11.74
-22.36
-30.26
-36.36
-41.28
-45.08
-47.43
-47.85
-45.98
-41.83
-35.84
-28.67
-20.97
-13.16
-5.45
2.00
8.93
14.88
19.36
22.17
23.56
24.24
25.04
26.49
28.56
30.67
32.04
32.05
30.57
28.05
25.30
23.14
22.11
22.28
23.30
24.67
25.92
26.76
27.10
26.93
26.22
24.90
22.88
20.19
16.98
13.56
10.23
7.19
4.39
1.63
-1.37
-4.80
-8.68
-12.84
-17.02
-21.01
-24.66
-28.05
-31.37
-34.79
-38.26
-41.39
-43.46
-43.59
-41.19
-36.25
-29.52
-22.34
-16.16
-12.04
-10.31
-10.55
-11.98
-13.82
-15.63
-17.33
-19.04
-20.86
-22.71
-24.38
-25.61
-26.27
-26.37
-25.98
-25.12
-23.70
-21.60
-18.78
-15.38
-11.75
-8.34
-5.59
-3.73
-2.70
-2.19
-1.77
-1.04
0.26
2.29
5.06
8.46
12.27
16.16
19.67
22.37
24.03
24.68
24.71
24.52
24.40
24.27
23.82
22.66
20.62
17.89
14.89
12.07
9.73
7.96
6.80
6.42
7.15
9.38
13.22
18.25
23.60
28.16
31.06
31.94
31.05
29.04
26.61
24.33
22.53
21.39
21.02
21.32
21.99
22.39
21.78
19.49
15.28
9.45
2.86
-3.42
-8.47
-11.86
-13.91
-15.49
-17.77
-21.71
-27.58
-34.95
-42.73
-49.66
-54.66
-57.21
-57.34
-55.52
-52.45
-48.82
-45.22
-42.00
-39.33
-37.08
-35.06
-33.02
-30.73
-27.98
-24.51
-20.11
-14.62
-8.09
-0.83
6.60
13.74
20.20
25.78
30.41
33.87
35.82
35.95
34.07
30.35
25.29
19.48
13.52
7.86
2.83
-1.28
-4.10
-5.30
-4.54
-1.71
2.97
8.89
15.10
20.49
24.13
25.62
25.27
23.95
22.79
22.65
23.84
26.05
28.46
30.19
30.51
29.09
25.93
21.38
15.96
10.33
5.07
0.60
-3.00
-5.82
-8.05
-9.72
-10.52
-9.87
-7.11
-1.90
5.53
14.34
23.25
31.04
36.84
40.37
41.89
41.92
40.99
39.48
37.65
35.48
32.67
28.55
22.10
12.37
-0.95
-16.99
-33.60
-47.85
-56.98
-59.37
-55.03
-45.47
-32.93
-19.68
-7.44
2.71
10.17
14.71
16.38
15.68
13.41
10.62
8.15
6.50
5.70
5.47
5.41
5.25
4.86
4.19
3.18
1.66
-0.63
-3.96
-8.43
-13.97
-20.22
-26.59
-32.43
-37.06
-39.95
-40.79
-39.57
-36.55
-32.24
-27.27
-22.27
-17.69
-13.76
-10.44
-7.58
-5.04
-2.79
-0.93
0.39
1.06
1.14
0.78
0.28
-0.16
-0.45
-0.76
-1.33
-2.31
-3.65
-5.06
-6.23
-6.96
-7.35
-7.65
-8.17
-9.13
-10.59
-12.59
-15.19
-18.52
-22.51
-26.82
-30.88
-34.10
-36.14
-37.15
-37.65
-38.31
-39.68
-42.03
-45.40
-49.69
-54.69
-60.01
-64.99
-68.72
-70.18
-68.50
-63.29
-54.73
-43.47
-30.47
-16.80
-3.43
8.77
19.09
27.07
32.48
35.44
36.34
35.75
34.19
32.11
29.70
27.00
23.93
20.48
16.82
13.49
11.28
11.08
13.48
18.53
25.72
34.12
42.76
50.87
57.98
63.77
67.93
70.09
70.11
68.27
65.33
62.17
59.34
56.67
53.43
48.80
42.45
34.91
27.37
21.14
17.10
15.53
16.09
18.17
20.90
23.42
24.88
24.74
22.97
20.20
17.46
15.71
15.34
16.04
17.02
17.57
17.40
16.78
16.39
16.86
18.57
21.49
25.19
29.01
32.06
33.54
32.89
30.05
25.50
20.04
14.46
9.22
4.31
-0.62
-6.04
-12.26
-19.42
-27.36
-35.68
-43.70
-50.54
-55.24
-57.00
-55.55
-51.28
-45.28
-38.97
-33.73
-30.46
-29.40
-30.16
-32.03
-34.18
-35.96
-36.93
-36.81
-35.40
-32.53
-28.14
-22.34
-15.49
-8.11
-0.85
5.70
11.07
14.93
17.11
17.59
16.62
14.63
12.32
10.43
9.58
10.07
11.82
14.45
17.38
20.06
22.06
23.09
23.06
22.07
20.34
18.18
15.93
13.84
12.07
10.62
9.44
8.47
7.70
7.11
6.55
5.77
4.44
2.29
-0.77
-4.52
-8.57
-12.45
-15.80
-18.45
-20.31
-21.42
-21.80
-21.62
-21.14
-20.80
-21.02
-22.01
-23.55
-25.08
-25.91
-25.53
-23.83
-21.13
-17.94
-14.65
-11.34
-7.85
-4.01
0.13
4.20
7.66
9.94
10.84
10.56
9.60
8.53
7.80
7.56
7.78
8.38
9.30
10.53
12.03
13.60
14.89
15.48
15.09
13.77
11.80
9.69
7.85
6.49
5.58
4.91
4.25
3.47
2.58
1.65
0.74
-0.17
-1.17
-2.36
-3.78
-5.40
-7.12
-8.83
-10.51
-12.18
-13.97
-15.95
-18.08
-20.08
-21.51
-21.96
-21.19
-19.32
-16.80
-14.21
-12.04
-10.37
-8.91
-7.10
-4.53
-1.09
2.87
6.80
10.12
12.48
13.85
14.41
14.35
13.80
12.83
11.46
9.82
8.19
6.95
6.45
6.88
8.18
10.03
11.99
13.57
14.43
14.46
13.73
12.48
10.92
9.26
7.58
5.96
4.38
2.83
1.29
-0.31
-2.02
-3.84
-5.67
-7.34
-8.68
-9.63
-10.31
-11.00
-12.07
-13.81
-16.26
-19.24
-22.37
-25.11
-26.95
-27.45
-26.46
-24.09
-20.67
-16.64
-12.46
-8.46
-4.81
-1.63
1.06
3.23
4.92
6.19
7.14
7.86
8.39
8.85
9.28
9.78
10.34
10.82
11.06
10.87
10.23
9.24
8.14
7.15
6.42
5.99
5.77
5.78
6.10
6.82
7.85
8.94
9.60
9.41
8.15
5.97
3.35
0.81
-1.21
-2.64
-3.66
-4.59
-5.73
-7.14
-8.72
-10.33
-11.88
-13.43
-15.14
-17.12
-19.42
-21.91
-24.28
-26.19
-27.28
-27.30
-26.08
-23.52
-19.70
-14.80
-9.20
-3.41
1.96
6.40
9.56
11.36
11.91
11.46
10.30
8.79
7.26
6.01
5.24
5.01
5.25
5.81
6.59
7.57
8.79
10.17
11.48
12.38
12.60
12.13
11.25
10.40
9.95
9.95
10.18
10.24
9.88
9.06
8.01
6.97
6.03
5.08
3.94
2.49
0.81
-0.86
-2.30
-3.42
-4.30
-5.12
-5.96
-6.80
-7.54
-8.05
-8.25
-8.15
-7.80
-7.29
-6.76
-6.40
-6.44
-7.10
-8.43
-10.23
-12.02
-13.16
-13.00
-11.14
-7.66
-3.20
1.18
4.28
5.18
3.57
-0.12
-4.93
-9.73
-13.55
-15.87
-16.58
-15.89
-14.06
-11.35
-7.90
-3.82
0.77
5.74
10.82
15.71
20.04
23.49
25.80
26.88
26.83
25.82
24.11
21.90
19.44
16.94
14.61
12.63
11.09
10.02
9.25
8.56
7.68
6.44
4.76
2.81
0.80
-1.03
-2.49
-3.57
-4.35
-4.94
-5.47
-5.97
-6.50
-7.16
-8.16
-9.70
-11.95
-14.86
-18.20
-21.63
-24.78
-27.33
-29.12
-30.05
-30.08
-29.23
-27.55
-25.13
-22.08
-18.43
-14.12
-9.08
-3.33
2.86
8.93
14.21
18.02
20.08
20.55
20.12
19.79
20.50
22.76
26.40
30.56
33.93
35.16
33.41
28.57
21.37
13.11
5.33
-0.66
-4.20
-5.49
-5.49
-5.59
-7.08
-10.63
-16.03
-22.36
-28.37
-33.09
-36.01
-37.20
-37.03
-35.98
-34.42
-32.69
-31.16
-30.07
-29.63
-29.78
-30.22
-30.43
-29.85
-27.88
-24.13
-18.49
-11.12
-2.45
7.01
16.86
26.93
37.11
47.19
56.59
64.43
69.99
72.92
73.55
72.65
70.94
68.73
65.79
61.72
56.47
50.56
44.95
40.58
37.92
36.83
36.82
37.42
38.27
38.99
38.83
36.64
31.23
22.09
9.87
-3.60
-16.00
-25.46
-31.22
-33.63
-33.59
-31.88
-28.83
-24.49
-19.10
-13.43
-8.69
-6.03
-6.00
-8.30
-12.01
-16.03
-19.56
-22.30
-24.32
-25.92
-27.34
-28.73
-30.21
-31.89
-33.90
-36.33
-39.10
-41.97
-44.51
-46.22
-46.58
-45.24
-42.03
-37.07
-30.68
-23.45
-16.05
-9.22
-3.68
0.03
1.60
0.90
-1.93
-6.51
-12.16
-18.00
-23.11
-26.79
-28.73
-29.11
-28.42
-27.23
-25.97
-24.93
-24.20
-23.91
-24.20
-25.20
-26.93
-29.23
-31.85
-34.58
-37.27
-39.86
-42.20
-44.05
-45.16
-45.54
-45.60
-46.08
-47.81
-51.26
-56.18
-61.67
-66.56
-69.86
-71.20
-70.87
-69.57
-67.96
-66.40
-64.77
-62.56
-58.98
-52.97
-43.41
-29.37
-10.46
12.86
39.07
65.92
90.85
111.64
126.73
135.48
137.95
134.81
127.15
116.42
104.24
92.17
81.47
72.86
66.57
62.37
59.75
58.14
56.96
55.77
54.28
52.40
50.25
48.07
46.11
44.47
43.07
41.63
39.85
37.51
34.59
31.32
28.17
25.64
24.12
23.68
24.02
24.58
24.72
24.07
22.66
20.83
19.07
17.66
16.57
15.47
14.02
12.14
10.10
8.52
8.04
9.11
11.85
16.12
21.54
27.62
33.79
39.34
43.51
45.54
44.97
41.70
36.07
28.64
19.99
10.49
0.24
-10.74
-22.35
-34.21
-45.68
-55.98
-64.43
-70.63
-74.54
-76.44
-76.71
-75.73
-73.75
-70.92
-67.23
-62.66
-57.21
-50.95
-44.12
-37.11
-30.38
-24.49
-19.89
-16.90
-15.68
-16.15
-18.00
-20.65
-23.41
-25.59
-26.67
-26.45
-25.06
-22.83
-20.19
-17.47
-14.87
-12.48
-10.35
-8.49
-6.87
-5.40
-3.94
-2.33
-0.48
1.65
4.03
6.61
9.31
11.97
14.35
16.14
17.02
16.83
15.65
13.81
11.79
10.10
9.02
8.52
8.19
7.35
5.20
1.23
-4.51
-11.27
-17.75
-22.53
-24.49
-23.35
-19.59
-14.30
-8.67
-3.59
0.57
3.88
6.63
9.03
11.03
12.35
12.72
12.05
10.70
9.45
9.25
10.92
14.72
20.20
26.27
31.66
35.34
36.79
36.11
33.79
30.47
26.72
23.03
19.83
17.56
16.56
16.98
18.65
21.04
23.40
24.92
25.02
23.53
20.69
17.06
13.30
10.00
7.47
5.76
4.73
4.21
4.04
4.17
4.54
5.06
5.56
5.87
5.86
5.52
4.96
4.27
3.46
2.56
1.48
0.19
-1.30
-2.95
-4.63
-6.23
-7.67
-8.93
-9.97
-10.78
-11.35
-11.64
-11.72
-11.66
-11.65
-11.88
-12.55
-13.70
-15.19
-16.70
-17.83
-18.30
-18.09
-17.54
-17.18
-17.62
-19.16
-21.68
-24.68
-27.37
-29.04
-29.25
-27.94
-25.42
-22.22
-18.91
-15.92
-13.48
-11.61
-10.20
-9.08
-8.17
-7.44
-6.91
-6.52
-6.15
-5.58
-4.62
-3.23
-1.55
0.17
1.70
3.00
4.23
5.65
7.41
9.48
11.55
13.27
14.42
15.04
15.45
16.00
16.86
17.90
18.73
18.89
18.17
16.78
15.19
13.90
13.04
12.25
10.86
8.22
4.27
-0.48
-5.04
-8.58
-10.78
-12.07
-13.32
-15.27
-18.20
-21.71
-24.99
-27.26
-28.05
-27.35
-25.42
-22.69
-19.49
-16.10
-12.70
-9.47
-6.58
-4.19
-2.49
-1.67
-1.91
-3.28
-5.69
-8.78
-12.03
-14.87
-16.90
-17.95
-18.15
-17.68
-16.70
-15.30
-13.54
-11.61
-9.97
-9.11
-9.40
-10.89
-13.23
-15.87
-18.33
-20.34
-21.81
-22.78
-23.17
-22.80
-21.59
-19.68
-17.60
-16.06
-15.65
-16.51
-18.14
-19.58
-19.77
-18.00
-14.13
-8.57
-1.94
5.22
12.71
20.64
29.20
38.41
47.99
57.27
65.40
71.42
74.50
73.98
69.60
61.47
50.21
36.79
22.35
7.87
-5.98
-18.81
-30.32
-40.16
-47.90
-53.15
-55.78
-56.04
-54.50
-51.87
-48.82
-45.83
-43.22
-41.10
-39.23
-36.79
-32.39
-24.41
-11.72
5.58
25.86
46.31
63.94
76.73
84.37
88.13
90.12
92.22
95.28
98.94
102.10
103.56
102.58
99.00
92.99
84.79
74.54
62.35
48.59
34.02
19.63
6.32
-5.50
-16.12
-26.15
-36.13
-45.97
-54.73
-60.91
-63.01
-60.18
-52.62
-41.61
-29.19
-17.54
-8.35
-2.39
0.61
1.82
2.77
4.83
8.79
14.59
21.50
28.29
33.71
36.78
37.06
34.72
30.48
25.31
20.11
15.48
11.56
8.16
4.94
1.71
-1.62
-5.02
-8.46
-12.00
-15.79
-19.95
-24.52
-29.32
-34.08
-38.43
-42.06
-44.73
-46.28
-46.68
-46.00
-44.39
-42.09
-39.36
-36.51
-33.77
-31.30
-29.23
-27.63
-26.53
-25.93
-25.73
-25.80
-25.87
-25.68
-24.92
-23.39
-20.97
-17.70
-13.73
-9.34
-4.95
-0.96
2.20
4.21
4.82
3.94
1.57
-2.12
-6.88
-12.42
-18.30
-24.15
-29.57
-34.27
-38.04
-40.88
-42.90
-44.30
-45.36
-46.29
-47.25
-48.34
-49.63
-51.19
-52.99
-54.90
-56.77
-58.42
-59.78
-61.06
-62.65
-65.03
-68.36
-72.04
-74.54
-73.53
-66.48
-51.58
-28.64
0.51
32.32
62.39
86.68
102.52
109.19
107.81
100.83
91.26
81.90
74.79
70.80
69.66
70.21
70.85
70.09
66.98
61.28
53.51
44.74
36.29
29.37
24.68
22.22
21.24
20.46
18.58
14.75
8.95
1.91
-5.19
-11.16
-15.16
-16.80
-16.25
-14.07
-11.10
-8.33
-6.69
-6.82
-8.84
-12.30
-16.28
-19.73
-21.91
-22.67
-22.48
-22.23
-22.68
-24.01
-25.58
-26.04
-23.86
-17.93
-8.10
4.72
18.73
31.97
42.76
50.16
53.97
54.61
52.77
49.21
44.62
39.46
34.03
28.42
22.60
16.46
9.94
3.01
-4.27
-11.68
-18.98
-25.70
-31.29
-35.12
-36.66
-35.72
-32.58
-27.90
-22.49
-17.13
-12.29
-8.26
-5.21
-3.29
-2.64
-3.24
-4.72
-6.47
-7.69
-7.78
-6.46
-3.83
-0.12
4.50
9.96
16.27
23.19
30.19
36.47
41.18
43.75
44.19
42.95
40.80
38.44
36.28
34.17
31.58
27.84
22.46
15.44
7.26
-1.37
-9.85
-17.85
-25.27
-31.78
-36.45
-37.62
-33.39
-22.49
-5.10
16.82
39.91
60.44
75.39
83.29
84.28
79.75
71.63
61.68
51.18
40.78
30.67
20.82
11.19
1.83
-7.06
-15.29
-22.79
-29.66
-36.09
-42.23
-47.99
-53.00
-56.81
-59.03
-59.63
-58.90
-57.35
-55.42
-53.37
-51.16
-48.57
-45.35
-41.36
-36.65
-31.47
-26.15
-21.10
-16.63
-12.95
-9.96
-7.44
-5.07
-2.60
-0.08
2.21
3.82
4.40
3.83
2.35
0.42
-1.49
-3.06
-4.25
-5.25
-6.30
-7.62
-9.22
-10.96
-12.51
-13.55
-13.86
-13.43
-12.46
-11.26
-10.08
-9.03
-8.09
-7.14
-6.09
-4.84
-3.35
-1.51
0.76
3.54
6.81
10.37
14.05
17.66
21.20
24.68
27.95
30.60
32.00
31.51
28.79
24.02
17.89
11.38
5.38
0.32
-3.74
-7.06
-9.84
-11.97
-12.91
-11.91
-8.28
-1.73
7.43
18.34
29.74
40.24
48.54
53.62
54.91
52.37
46.58
38.58
29.64
20.93
13.31
7.15
2.36
-1.39
-4.50
-7.27
-9.84
-12.31
-14.84
-17.61
-20.88
-24.77
-29.18
-33.68
-37.67
-40.60
-42.15
-42.35
-41.44
-39.70
-37.27
-34.09
-30.09
-25.43
-20.59
-16.30
-13.27
-11.91
-12.12
-13.38
-14.99
-16.42
-17.43
-18.05
-18.41
-18.55
-18.33
-17.51
-15.85
-13.30
-10.05
-6.42
-2.76
0.70
3.86
6.79
9.70
12.81
16.26
20.08
24.09
27.98
31.36
33.83
35.12
34.98
33.28
30.00
25.42
20.17
15.14
11.22
8.90
8.03
7.87
7.45
6.06
3.55
0.39
-2.64
-4.80
-5.66
-5.19
-3.55
-1.02
2.13
5.66
9.27
12.63
15.36
17.17
17.89
17.61
16.59
15.25
13.97
12.94
12.07
11.07
9.61
7.57
5.13
2.72
0.83
-0.27
-0.58
-0.36
0.02
0.30
0.31
-0.00
-0.64
-1.65
-3.05
-4.84
-6.90
-9.07
-11.23
-13.29
-15.25
-17.15
-19.03
-20.86
-22.58
-24.09
-25.36
-26.38
-27.17
-27.75
-28.08
-28.17
-28.06
-27.90
-27.90
-28.26
-29.04
-30.11
-31.21
-32.01
-32.22
-31.62
-30.07
-27.55
-24.06
-19.77
-14.92
-9.93
-5.21
-1.14
2.04
4.31
5.86
7.03
8.19
9.56
11.06
12.42
13.21
13.11
12.04
10.24
8.19
6.38
5.16
4.55
4.35
4.15
3.53
2.16
-0.16
-3.31
-6.91
-10.27
-12.61
-13.30
-12.11
-9.33
-5.63
-1.87
1.29
3.47
4.74
5.45
6.00
6.62
7.35
8.01
8.37
8.39
8.23
8.35
9.27
11.34
14.42
17.92
20.89
22.48
22.29
20.60
18.24
16.24
15.36
15.82
17.24
18.98
20.39
21.19
21.49
21.60
21.76
21.90
21.70
20.77
18.92
16.27
13.31
10.62
8.63
7.49
6.94
6.63
6.20
5.57
4.92
4.55
4.66
5.21
5.96
6.61
7.01
7.25
7.64
8.52
10.00
11.87
13.63
14.69
14.56
13.03
10.24
6.58
2.61
-1.20
-4.56
-7.45
-10.06
-12.65
-15.45
-18.52
-21.79
-25.02
-28.00
-30.48
-32.23
-33.04
-32.76
-31.37
-29.03
-26.02
-22.56
-18.79
-14.69
-10.14
-5.05
0.47
6.13
11.40
15.68
18.42
19.41
18.91
17.63
16.52
16.41
17.63
19.87
22.35
24.27
25.31
25.73
26.29
27.63
29.98
32.89
35.55
37.03
36.81
34.80
31.35
27.01
22.41
18.10
14.42
11.49
9.08
6.74
4.00
0.62
-3.28
-7.26
-10.85
-13.83
-16.40
-19.03
-22.16
-26.00
-30.34
-34.71
-38.66
-41.97
-44.68
-46.98
-48.95
-50.38
-50.78
-49.61
-46.60
-41.92
-36.32
-30.75
-26.11
-22.87
-20.96
-19.93
-19.25
-18.63
-18.11
-17.95
-18.31
-18.99
-19.30
-18.30
-15.17
-9.54
-1.76
7.20
15.94
23.13
27.80
29.62
29.00
26.93
24.74
23.74
24.85
28.39
33.94
40.57
47.16
52.69
56.65
59.04
60.30
61.03
61.65
62.20
62.34
61.53
59.26
55.32
49.80
43.08
35.57
27.68
19.60
11.49
3.47
-4.23
-11.31
-17.45
-22.51
-26.54
-29.72
-32.25
-34.14
-35.19
-35.14
-33.80
-31.28
-28.06
-24.73
-21.86
-19.71
-18.23
-17.23
-16.45
-15.70
-14.95
-14.32
-14.06
-14.42
-15.59
-17.49
-19.71
-21.61
-22.55
-22.22
-20.87
-19.27
-18.39
-18.94
-21.04
-24.10
-27.16
-29.29
-30.00
-29.41
-28.05
-26.53
-25.26
-24.36
-23.70
-23.13
-22.58
-22.07
-21.59
-20.98
-20.02
-18.57
-16.69
-14.65
-12.71
-10.97
-9.24
-7.15
-4.35
-0.62
4.05
9.59
15.95
23.13
31.02
39.25
47.14
53.80
58.52
61.05
61.81
61.62
61.32
61.29
61.29
60.58
58.35
54.17
48.20
41.12
33.68
26.32
19.01
11.37
3.01
-6.12
-15.61
-24.80
-33.05
-39.96
-45.47
-49.66
-52.60
-54.20
-54.28
-52.60
-49.04
-43.58
-36.38
-27.77
-18.31
-8.74
0.11
7.48
12.86
16.08
17.22
16.58
14.55
11.54
7.93
4.08
0.25
-3.45
-7.06
-10.71
-14.47
-18.21
-21.44
-23.38
-23.13
-19.95
-13.58
-4.41
6.59
17.99
28.27
36.15
40.89
42.52
41.81
40.09
38.88
39.42
42.17
46.77
52.04
56.47
58.68
57.90
54.04
47.72
39.97
31.86
24.25
17.63
12.10
7.48
3.51
-0.04
-3.30
-6.26
-8.89
-11.14
-12.96
-14.35
-15.27
-15.81
-16.10
-16.39
-16.93
-17.92
-19.39
-21.25
-23.32
-25.43
-27.49
-29.50
-31.50
-33.50
-35.47
-37.33
-38.95
-40.15
-40.76
-40.64
-39.77
-38.31
-36.63
-35.25
-34.54
-34.59
-35.02
-35.12
-34.16
-31.68
-27.67
-22.52
-16.84
-11.17
-5.83
-0.96
3.42
7.26
10.48
13.03
15.06
16.82
18.60
20.47
22.30
23.79
24.60
24.57
23.77
22.46
20.94
19.48
18.12
16.79
15.29
13.48
11.26
8.60
5.57
2.33
-0.87
-3.72
-5.98
-7.48
-8.21
-8.26
-7.83
-7.12
-6.29
-5.43
-4.63
-4.05
-3.90
-4.47
-5.99
-8.57
-12.11
-16.25
-20.52
-24.39
-27.38
-29.10
-29.29
-27.81
-24.78
-20.50
-15.55
-10.55
-6.14
-2.72
-0.41
0.87
1.39
1.50
1.55
1.91
2.95
4.89
7.80
11.45
15.38
19.10
22.20
24.53
26.16
27.27
28.01
28.42
28.43
27.94
26.89
25.28
23.18
20.73
18.04
15.23
12.34
9.35
6.22
2.94
-0.40
-3.60
-6.44
-8.81
-10.76
-12.50
-14.35
-16.54
-19.13
-22.04
-24.97
-27.57
-29.40
-30.07
-29.29
-26.90
-22.96
-17.77
-11.76
-5.45
0.70
6.41
11.48
15.88
19.54
22.36
24.22
25.06
24.94
24.10
22.95
21.88
21.12
20.68
20.37
19.98
19.42
18.79
18.25
17.93
17.76
17.55
17.09
16.27
15.18
14.07
13.16
12.50
12.00
11.41
10.54
9.30
7.83
6.42
5.35
4.74
4.52
4.40
4.03
3.10
1.40
-1.16
-4.51
-8.44
-12.66
-16.75
-20.31
-23.05
-24.86
-25.81
-26.06
-25.77
-25.04
-23.97
-22.69
-21.41
-20.31
-19.48
-18.79
-17.94
-16.53
-14.29
-11.20
-7.52
-3.71
-0.24
2.60
4.68
6.08
6.98
7.57
7.97
8.27
8.49
8.64
8.80
9.12
9.77
10.85
12.35
14.10
15.84
17.24
18.08
18.29
17.99
17.34
16.53
15.62
14.64
13.60
12.54
11.52
10.64
9.92
9.28
8.59
7.73
6.64
5.32
3.89
2.45
1.12
-0.03
-0.98
-1.69
-2.14
-2.31
-2.29
-2.18
-2.21
-2.56
-3.36
-4.62
-6.26
-8.13
-10.13
-12.30
-14.74
-17.61
-20.98
-24.84
-29.03
-33.35
-37.48
-41.05
-43.51
-44.33
-43.06
-39.62
-34.30
-27.78
-20.86
-14.21
-8.27
-3.21
0.92
4.08
6.27
7.50
7.88
7.65
7.12
6.65
6.53
7.02
8.21
10.04
12.32
14.76
17.06
19.04
20.60
21.80
22.71
23.39
23.80
23.88
23.63
23.11
22.45
21.82
21.31
20.93
20.56
20.07
19.27
18.08
16.53
14.74
12.90
11.15
9.54
7.97
6.26
4.18
1.56
-1.67
-5.40
-9.45
-13.61
-17.65
-21.40
-24.69
-27.41
-29.46
-30.81
-31.47
-31.49
-30.92
-29.73
-27.79
-24.98
-21.29
-16.86
-12.01
-7.18
-2.79
0.88
3.67
5.60
6.71
7.08
6.79
6.05
5.10
4.27
3.91
4.25
5.34
7.02
8.96
10.74
12.01
12.59
12.57
12.13
11.45
10.61
9.52
8.05
6.18
4.09
2.02
0.20
-1.29
-2.61
-4.00
-5.61
-7.40
-9.12
-10.46
-11.23
-11.42
-11.23
-10.96
-10.81
-10.91
-11.24
-11.71
-12.34
-13.22
-14.52
-16.30
-18.43
-20.46
-21.80
-21.87
-20.40
-17.51
-13.64
-9.34
-5.03
-0.85
3.25
7.32
11.24
14.73
17.43
19.10
19.71
19.40
18.45
17.12
15.65
14.21
12.96
12.02
11.48
11.26
11.25
11.25
11.11
10.74
10.12
9.32
8.38
7.35
6.20
4.94
3.56
2.04
0.39
-1.31
-2.96
-4.41
-5.56
-6.36
-6.89
-7.24
-7.55
-7.91
-8.35
-8.88
-9.59
-10.61
-12.06
-13.99
-16.26
-18.65
-20.92
-22.92
-24.68
-26.37
-28.20
-30.25
-32.47
-34.59
-36.28
-37.23
-37.24
-36.23
-34.20
-31.25
-27.54
-23.31
-18.82
-14.47
-10.71
-7.98
-6.58
-6.52
-7.52
-9.04
-10.55
-11.64
-12.20
-12.43
-12.62
-13.04
-13.78
-14.74
-15.73
-16.53
-16.99
-16.99
-16.51
-15.62
-14.57
-13.66
-13.24
-13.36
-13.64
-13.26
-11.06
-6.06
2.18
13.14
25.39
36.92
45.85
50.98
52.15
50.18
46.36
41.93
37.69
33.99
30.95
28.84
28.08
29.14
32.18
36.89
42.51
48.05
52.56
55.28
55.69
53.45
48.46
41.03
31.86
22.04
12.66
4.49
-2.26
-7.90
-12.88
-17.49
-21.63
-24.88
-26.77
-27.04
-25.84
-23.65
-21.09
-18.63
-16.50
-14.72
-13.21
-11.95
-11.15
-11.08
-11.96
-13.87
-16.58
-19.78
-23.10
-26.25
-28.98
-31.03
-32.06
-31.83
-30.28
-27.69
-24.63
-21.70
-19.28
-17.29
-15.31
-12.67
-8.83
-3.49
3.34
11.46
20.49
29.90
39.10
47.46
54.51
59.98
63.88
66.39
67.66
67.71
66.40
63.54
59.05
53.10
45.97
38.08
29.79
21.51
13.62
6.60
0.83
-3.43
-6.24
-7.96
-9.09
-10.11
-11.30
-12.67
-14.02
-15.06
-15.52
-15.28
-14.44
-13.19
-11.79
-10.44
-9.23
-8.17
-7.21
-6.33
-5.59
-5.13
-5.06
-5.40
-6.00
-6.61
-7.00
-6.96
-6.42
-5.40
-3.95
-2.20
-0.36
1.32
2.58
3.23
3.32
3.07
2.86
2.99
3.51
4.19
4.58
4.26
3.01
0.88
-1.85
-4.82
-7.75
-10.41
-12.73
-14.68
-16.28
-17.66
-18.90
-20.14
-21.51
-23.09
-25.00
-27.40
-30.51
-34.67
-40.17
-47.10
-55.12
-63.31
-70.29
-74.50
-74.74
-70.52
-62.29
-51.23
-38.84
-26.46
-14.89
-4.31
5.49
14.91
24.10
32.92
40.92
47.50
52.15
54.68
55.28
54.42
52.67
50.54
48.41
46.48
44.83
43.47
42.33
41.24
40.02
38.47
36.52
34.29
31.99
29.94
28.36
27.36
26.79
26.40
25.85
24.84
23.18
20.75
17.55
13.60
8.99
3.87
-1.54
-6.99
-12.30
-17.41
-22.30
-27.01
-31.41
-35.22
-38.11
-39.80
-40.32
-39.95
-39.25
-38.80
-38.94
-39.66
-40.61
-41.15
-40.65
-38.75
-35.44
-31.07
-26.21
-21.38
-16.86
-12.67
-8.56
-4.29
0.22
4.79
9.01
12.51
15.06
16.75
17.86
18.73
19.54
20.27
20.78
20.88
20.59
20.07
19.59
19.37
19.50
19.88
20.34
20.71
20.85
20.76
20.44
19.92
19.20
18.27
17.13
15.79
14.38
13.03
11.92
11.10
10.55
10.06
9.39
8.33
6.81
4.87
2.70
0.50
-1.58
-3.47
-5.20
-6.83
-8.40
-9.94
-11.46
-12.99
-14.53
-16.12
-17.81
-19.60
-21.49
-23.34
-24.94
-25.99
-26.19
-25.29
-23.22
-20.10
-16.20
-11.87
-7.43
-3.14
0.82
4.34
7.32
9.68
11.37
12.45
13.00
13.15
13.02
12.72
12.35
12.00
11.71
11.54
11.52
11.60
11.71
11.75
11.61
11.29
10.82
10.28
9.80
9.46
9.26
9.09
8.81
8.26
7.40
6.25
4.85
3.29
1.59
-0.17
-1.83
-3.19
-4.10
-4.48
-4.46
-4.33
-4.40
-4.89
-5.83
-7.10
-8.47
-9.80
-11.04
-12.29
-13.72
-15.47
-17.52
-19.68
-21.54
-22.65
-22.60
-21.17
-18.44
-14.65
-10.14
-5.26
-0.32
4.41
8.64
12.10
14.59
16.06
16.63
16.53
16.02
15.33
14.61
13.97
13.47
13.14
12.99
12.97
12.98
12.93
12.80
12.64
12.54
12.53
12.57
12.56
12.39
11.93
11.21
10.28
9.17
7.89
6.43
4.78
3.01
1.22
-0.46
-1.92
-3.15
-4.19
-5.06
-5.74
-6.23
-6.54
-6.77
-7.08
-7.61
-8.46
-9.65
-11.09
-12.62
-14.15
-15.62
-17.09
-18.67
-20.45
-22.39
-24.38
-26.13
-27.30
-27.53
-26.56
-24.29
-20.83
-16.48
-11.65
-6.81
-2.37
1.36
4.23
6.24
7.47
8.07
8.21
8.03
7.68
7.27
6.92
6.71
6.70
6.95
7.47
8.27
9.26
10.29
11.19
11.82
12.07
11.96
11.55
10.90
10.05
9.04
7.90
6.70
5.53
4.45
3.48
2.60
1.77
1.00
0.37
-0.02
-0.11
0.05
0.30
0.49
0.46
0.16
-0.37
-1.03
-1.76
-2.55
-3.45
-4.62
-6.22
-8.30
-10.78
-13.36
-15.58
-16.98
-17.18
-16.11
-13.92
-10.94
-7.55
-4.04
-0.66
2.47
5.28
7.69
9.66
11.11
12.01
12.39
12.37
12.12
11.89
11.90
12.23
12.85
13.66
14.60
15.65
16.90
18.32
19.85
21.26
22.33
22.91
22.99
22.70
22.14
21.40
20.41
19.14
17.50
15.48
13.10
10.38
7.35
4.12
0.85
-2.25
-4.94
-7.11
-8.77
-10.10
-11.35
-12.73
-14.35
-16.17
-18.04
-19.80
-21.37
-22.82
-24.32
-26.09
-28.21
-30.68
-33.34
-35.92
-38.15
-39.72
-40.36
-39.86
-38.10
-35.12
-31.17
-26.59
-21.82
-17.22
-13.03
-9.35
-6.25
-3.73
-1.80
-0.45
0.34
0.68
0.73
0.70
0.86
1.33
2.15
3.16
4.13
4.80
5.05
4.90
4.50
4.06
3.72
3.60
3.76
4.29
5.28
6.81
8.83
11.14
13.43
15.33
16.55
16.98
16.69
15.87
14.79
13.61
12.51
11.57
10.85
10.38
10.11
9.86
9.39
8.47
6.97
5.01
2.96
1.30
0.40
0.36
0.91
1.53
1.63
0.80
-0.97
-3.27
-5.43
-6.78
-6.90
-5.69
-3.34
-0.20
3.37
7.12
10.96
14.77
18.47
21.88
24.79
27.02
28.43
28.98
28.74
27.85
26.49
24.92
23.47
22.50
22.41
23.46
25.65
28.55
31.41
33.33
33.69
32.26
29.30
25.43
21.25
17.18
13.36
9.73
6.24
2.87
-0.43
-3.78
-7.39
-11.52
-16.28
-21.55
-26.99
-32.10
-36.42
-39.73
-42.10
-43.80
-45.25
-46.75
-48.38
-49.98
-51.21
-51.79
-51.65
-51.07
-50.50
-50.38
-50.85
-51.63
-52.15
-51.79
-50.10
-46.90
-42.29
-36.48
-29.68
-22.13
-14.12
-6.08
1.49
8.12
13.59
17.95
21.49
24.50
27.20
29.48
31.05
31.63
31.10
29.69
27.89
26.29
25.34
25.22
25.75
26.57
27.28
27.64
27.54
26.96
25.86
24.17
21.84
18.96
15.85
12.96
10.78
9.61
9.53
10.51
12.58
15.93
20.84
27.46
35.53
44.28
52.59
59.27
63.36
64.32
62.03
56.65
48.46
37.82
25.12
10.98
-3.80
-18.21
-31.20
-41.84
-49.56
-54.24
-56.21
-56.08
-54.57
-52.32
-49.71
-46.97
-44.19
-41.52
-39.14
-37.24
-35.88
-34.91
-33.89
-32.21
-29.25
-24.64
-18.33
-10.66
-2.22
6.35
14.53
22.06
28.92
35.24
41.14
46.62
51.51
55.49
58.25
59.61
59.40
57.55
54.00
48.74
41.90
33.87
25.19
16.59
8.76
2.16
-2.99
-6.77
-9.42
-11.29
-12.73
-14.10
-15.67
-17.72
-20.37
-23.62
-27.27
-30.97
-34.21
-36.49
-37.40
-36.74
-34.57
-31.19
-27.05
-22.64
-18.37
-14.46
-11.02
-8.01
-5.41
-3.29
-1.78
-1.03
-1.04
-1.66
-2.51
-3.18
-3.33
-2.86
-1.85
-0.54
0.83
2.15
3.40
4.64
5.87
7.08
8.20
9.19
9.98
10.58
10.94
11.03
10.79
10.19
9.21
7.91
6.41
4.84
3.30
1.90
0.65
-0.41
-1.32
-2.21
-3.21
-4.45
-6.04
-8.06
-10.52
-13.47
-16.83
-20.48
-24.27
-27.97
-31.40
-34.39
-36.82
-38.58
-39.65
-39.99
-39.63
-38.71
-37.38
-35.85
-34.29
-32.84
-31.49
-30.25
-29.06
-27.88
-26.67
-25.31
-23.58
-21.09
-17.38
-12.08
-5.13
3.13
11.97
20.47
27.78
33.41
37.26
39.60
40.86
41.46
41.74
41.83
41.73
41.33
40.48
39.09
37.18
34.89
32.42
29.99
27.75
25.70
23.74
21.75
19.68
17.55
15.43
13.43
11.57
9.91
8.46
7.26
6.27
5.38
4.36
2.94
0.92
-1.78
-5.01
-8.53
-12.07
-15.43
-18.54
-21.41
-24.08
-26.53
-28.66
-30.25
-31.01
-30.67
-29.04
-26.16
-22.28
-17.77
-13.02
-8.38
-3.99
0.06
3.68
6.73
9.06
10.53
11.14
11.07
10.58
9.93
9.31
8.83
8.53
8.46
8.66
9.19
9.99
10.91
11.74
12.30
12.50
12.40
12.13
11.78
11.36
10.79
9.91
8.63
6.95
4.96
2.80
0.54
-1.75
-4.02
-6.24
-8.44
-10.63
-12.86
-15.15
-17.54
-19.97
-22.41
-24.83
-27.23
-29.67
-32.23
-34.92
-37.59
-39.91
-41.40
-41.56
-40.02
-36.68
-31.76
-25.77
-19.36
-13.11
-7.42
-2.45
1.75
5.23
7.97
9.93
11.05
11.28
10.68
9.45
7.86
6.25
4.97
4.25
4.19
4.73
5.68
6.79
7.80
8.57
9.09
9.46
9.95
10.87
12.54
15.08
18.40
22.14
25.81
28.84
30.80
31.42
30.67
28.79
26.25
23.61
21.34
19.69
18.55
17.66
16.80
15.98
15.51
15.64
16.37
17.27
17.66
16.93
14.90
11.85
8.30
4.69
1.21
-2.09
-5.13
-7.64
-9.18
-9.44
-8.38
-6.29
-3.70
-1.09
1.21
3.10
4.64
5.94
7.11
8.17
9.10
9.74
9.91
9.47
8.41
6.91
5.25
3.69
2.32
1.08
-0.22
-1.68
-3.30
-5.11
-7.13
-9.42
-12.06
-15.01
-17.94
-20.42
-22.03
-22.58
-22.27
-21.53
-20.88
-20.73
-21.27
-22.35
-23.66
-24.81
-25.49
-25.60
-25.22
-24.60
-24.06
-23.83
-23.99
-24.48
-25.10
-25.74
-26.42
-27.30
-28.60
-30.51
-33.05
-36.14
-39.61
-43.11
-46.10
-47.75
-47.05
-43.07
-35.29
-23.93
-10.03
4.77
18.71
30.48
39.41
45.47
49.07
50.74
50.88
49.81
47.84
45.37
42.92
41.03
40.05
40.00
40.65
41.52
42.17
42.31
41.91
41.11
40.13
39.07
37.85
36.28
34.18
31.49
28.32
24.89
21.47
18.27
15.40
12.93
10.78
8.83
6.89
4.77
2.27
-0.71
-4.28
-8.52
-13.49
-19.24
-25.71
-32.61
-39.41
-45.47
-50.11
-52.79
-53.24
-51.49
-47.90
-43.04
-37.62
-32.27
-27.50
-23.47
-20.10
-17.08
-14.06
-10.75
-7.01
-2.93
1.25
5.21
8.70
11.55
13.74
15.27
16.15
16.35
15.87
14.83
13.49
12.27
11.51
11.37
11.71
12.16
12.28
11.78
10.66
9.20
7.82
6.91
6.57
6.66
6.86
6.79
6.17
4.93
3.12
0.87
-1.75
-4.72
-8.16
-12.21
-16.97
-22.32
-27.92
-33.13
-37.21
-39.51
-39.64
-37.65
-33.92
-29.03
-23.54
-17.83
-12.16
-6.72
-1.72
2.53
5.77
7.91
9.10
9.76
10.33
11.10
12.09
13.05
13.63
13.60
12.97
12.02
11.09
10.46
10.15
10.04
9.99
10.03
10.38
11.28
12.88
14.99
17.13
18.67
19.13
18.37
16.54
13.92
10.71
6.95
2.60
-2.26
-7.33
-12.14
-16.16
-19.13
-21.09
-22.39
-23.50
-24.80
-26.48
-28.55
-30.84
-33.03
-34.67
-35.22
-34.18
-31.26
-26.55
-20.51
-13.85
-7.30
-1.42
3.56
7.67
11.14
14.23
17.15
20.01
22.75
25.25
27.37
29.15
30.87
33.04
36.17
40.56
46.09
52.20
57.94
62.31
64.42
63.74
60.17
54.06
46.04
36.93
27.43
17.99
8.80
-0.25
-9.16
-17.71
-25.20
-30.59
-32.73
-30.85
-24.79
-15.13
-3.09
9.84
22.20
32.77
40.71
45.63
47.49
46.65
43.71
39.39
34.34
29.00
23.50
17.72
11.49
4.72
-2.57
-10.21
-18.00
-25.70
-32.98
-39.47
-44.78
-48.61
-50.91
-51.90
-52.03
-51.69
-51.05
-50.07
-48.53
-46.35
-43.66
-40.90
-38.59
-37.23
-36.97
-37.64
-38.81
-39.89
-40.37
-39.86
-38.21
-35.43
-31.71
-27.34
-22.75
-18.42
-14.83
-12.38
-11.15
-10.86
-10.95
-10.79
-9.97
-8.51
-6.86
-5.66
-5.43
-6.29
-7.82
-9.25
-9.72
-8.55
-5.60
-1.22
3.84
8.62
12.28
14.29
14.60
13.60
12.04
10.81
10.74
12.44
16.15
21.70
28.50
35.67
42.22
47.27
50.25
50.97
49.64
46.74
42.79
38.29
33.57
28.83
24.14
19.52
14.94
10.48
6.32
2.81
0.39
-0.57
0.16
2.50
6.03
10.17
14.22
17.59
19.92
21.05
21.07
20.21
18.76
16.95
14.91
12.62
9.98
6.95
3.57
0.08
-3.24
-6.05
-8.20
-9.64
-10.44
-10.73
-10.59
-10.10
-9.38
-8.60
-7.99
-7.85
-8.41
-9.76
-11.83
-14.25
-16.59
-18.34
-19.15
-18.92
-17.82
-16.24
-14.55
-13.05
-11.81
-10.78
-9.86
-8.98
-8.15
-7.44
-6.86
-6.36
-5.85
-5.26
-4.64
-4.12
-3.88
-4.03
-4.60
-5.51
-6.55
-7.59
-8.55
-9.52
-10.72
-12.44
-14.94
-18.31
-22.41
-26.84
-31.06
-34.55
-36.98
-38.27
-38.54
-37.98
-36.68
-34.66
-31.96
-28.76
-25.42
-22.37
-19.95
-18.26
-17.11
-16.10
-14.65
-12.11
-7.82
-1.28
7.64
18.44
30.06
41.09
50.21
56.65
60.30
61.58
61.09
59.23
56.15
51.95
46.85
41.42
36.32
32.13
29.01
26.70
24.62
22.18
19.03
15.23
11.13
7.25
4.03
1.66
-0.02
-1.38
-2.95
-5.12
-7.94
-11.16
-14.19
-16.41
-17.32
-16.82
-15.11
-12.71
-10.20
-8.04
-6.52
-5.75
-5.73
-6.37
-7.54
-8.96
-10.34
-11.34
-11.66
-11.13
-9.63
-7.10
-3.54
0.95
6.17
11.77
17.31
22.42
26.80
30.29
32.88
34.55
35.38
35.47
34.95
33.94
32.44
30.32
27.39
23.58
19.06
14.26
9.74
5.97
3.15
1.22
-0.06
-0.90
-1.41
-1.60
-1.49
-1.21
-0.98
-1.11
-1.83
-3.16
-4.91
-6.65
-7.95
-8.45
-8.06
-6.96
-5.56
-4.29
-3.53
-3.48
-4.15
-5.48
-7.30
-9.42
-11.60
-13.58
-15.14
-16.21
-16.92
-17.57
-18.45
-19.76
-21.40
-23.10
-24.41
-24.98
-24.62
-23.32
-21.24
-18.58
-15.62
-12.54
-9.58
-6.93
-4.82
-3.47
-3.14
-3.89
-5.66
-8.06
-10.40
-11.83
-11.51
-8.91
-4.01
2.65
10.09
17.14
22.68
26.01
26.92
25.85
23.80
22.15
22.15
24.56
29.29
35.37
41.29
45.49
46.95
45.40
41.32
35.61
29.18
22.65
16.30
10.11
4.02
-1.94
-7.60
-12.77
-17.31
-21.26
-24.85
-28.34
-31.87
-35.36
-38.47
-40.84
-42.18
-42.45
-41.74
-40.18
-37.87
-34.82
-31.04
-26.58
-21.66
-16.52
-11.45
-6.68
-2.38
1.32
4.33
6.62
8.30
9.55
10.64
11.77
13.00
14.25
15.33
16.10
16.59
17.01
17.60
18.52
19.69
20.88
21.74
22.01
21.56
20.44
18.79
16.83
14.79
12.83
11.05
9.44
7.89
6.25
4.36
2.15
-0.29
-2.78
-5.09
-7.10
-8.77
-10.23
-11.70
-13.46
-15.71
-18.45
-21.51
-24.58
-27.38
-29.83
-32.10
-34.45
-37.03
-39.65
-41.81
-42.85
-42.23
-39.77
-35.75
-30.69
-25.16
-19.58
-14.10
-8.75
-3.49
1.64
6.52
10.95
14.70
17.66
19.79
21.19
22.05
22.60
23.04
23.49
23.94
24.36
24.64
24.71
24.51
24.00
23.10
21.76
19.97
17.71
15.01
11.90
8.37
4.53
0.52
-3.37
-6.67
-8.87
-9.51
-8.31
-5.22
-0.44
5.63
12.49
19.51
26.18
32.05
36.83
40.41
42.74
43.76
43.23
40.76
35.96
28.60
18.81
7.16
-5.51
-18.21
-30.04
-40.24
-48.18
-53.30
-55.03
-52.94
-46.85
-37.11
-24.66
-10.93
2.43
13.98
22.75
28.44
31.33
31.99
31.14
29.42
27.36
25.43
24.03
23.50
24.00
25.35
27.08
28.44
28.70
27.33
24.23
19.75
14.54
9.29
4.45
0.14
-3.79
-7.64
-11.63
-15.86
-20.25
-24.66
-28.92
-32.87
-36.37
-39.19
-41.14
-42.03
-41.83
-40.78
-39.30
-37.95
-37.20
-37.24
-37.92
-38.80
-39.34
-39.14
-38.04
-36.17
-33.78
-31.08
-28.06
-24.53
-20.28
-15.20
-9.48
-3.50
2.22
7.25
11.34
14.42
16.64
18.07
18.81
18.89
18.38
17.51
16.65
16.24
16.60
17.77
19.41
21.03
22.13
22.42
21.91
20.81
19.37
17.75
16.04
14.27
12.53
11.03
9.95
9.37
9.26
9.47
9.86
10.41
11.16
12.16
13.34
14.40
14.97
14.76
13.70
11.93
9.79
7.53
5.29
2.97
0.34
-2.82
-6.62
-11.02
-15.82
-20.70
-25.29
-29.21
-32.10
-33.70
-33.83
-32.51
-29.94
-26.53
-22.77
-19.16
-16.11
-13.82
-12.28
-11.34
-10.75
-10.25
-9.62
-8.72
-7.47
-5.88
-3.98
-1.87
0.42
2.85
5.36
7.81
9.97
11.59
12.49
12.67
12.37
11.94
11.76
12.01
12.64
13.43
14.11
14.52
14.63
14.58
14.50
14.48
14.43
14.19
13.64
12.86
12.13
11.74
11.90
12.43
12.93
12.84
11.77
9.63
6.66
3.25
-0.22
-3.55
-6.62
-9.29
-11.26
-12.20
-11.84
-10.22
-7.62
-4.53
-1.40
1.52
4.16
6.60
8.90
11.00
12.79
14.14
14.93
14.99
14.07
11.82
7.99
2.53
-4.28
-11.85
-19.39
-26.13
-31.51
-35.21
-37.11
-37.24
-35.68
-32.58
-28.15
-22.74
-16.81
-10.83
-5.24
-0.34
3.74
7.05
9.62
11.43
12.32
12.06
10.48
7.67
3.97
-0.05
-3.78
-6.80
-8.93
-10.26
-10.92
-11.01
-10.57
-9.60
-8.13
-6.25
-4.08
-1.78
0.49
2.62
4.38
5.57
6.02
5.68
4.74
3.57
2.56
1.98
1.88
2.09
2.37
2.52
2.54
2.62
2.95
3.62
4.49
5.27
5.63
5.40
4.62
3.52
2.34
1.12
-0.25
-2.02
-4.31
-7.05
-9.95
-12.63
-14.81
-16.42
-17.66
-18.84
-20.31
-22.25
-24.61
-27.07
-29.14
-30.25
-29.99
-28.13
-24.68
-19.89
-14.14
-7.88
-1.56
4.37
9.52
13.59
16.37
17.86
18.20
17.72
16.78
15.78
15.03
14.69
14.78
15.22
15.87
16.53
17.07
17.34
17.24
16.74
15.87
14.72
13.39
12.00
10.57
9.11
7.61
6.05
4.48
2.95
1.50
0.08
-1.40
-3.05
-4.95
-7.00
-9.05
-10.91
-12.43
-13.65
-14.74
-15.98
-17.61
-19.73
-22.24
-24.87
-27.26
-28.97
-29.65
-28.99
-26.87
-23.34
-18.66
-13.25
-7.64
-2.34
2.32
6.12
9.05
11.17
12.61
13.51
14.00
14.20
14.24
14.25
14.32
14.56
15.01
15.61
16.25
16.72
16.81
16.42
15.52
14.30
12.97
11.78
10.77
9.92
9.07
8.08
6.91
5.55
4.05
2.38
0.50
-1.69
-4.08
-6.45
-8.48
-9.93
-10.79
-11.33
-11.96
-13.01
-14.56
-16.39
-18.10
-19.26
-19.53
-18.76
-16.93
-14.10
-10.41
-6.07
-1.41
3.22
7.45
11.05
13.91
16.03
17.41
18.10
18.13
17.55
16.49
15.14
13.77
12.58
11.76
11.34
11.25
11.29
11.28
11.02
10.44
9.58
8.50
7.26
5.80
4.02
1.83
-0.74
-3.51
-6.22
-8.64
-10.67
-12.38
-13.91
-15.39
-16.90
-18.39
-19.81
-21.12
-22.31
-23.37
-24.17
-24.49
-24.05
-22.65
-20.22
-16.90
-12.96
-8.75
-4.57
-0.70
2.67
5.43
7.50
8.92
9.73
10.08
10.07
9.85
9.65
9.67
10.16
11.25
12.85
14.71
16.52
18.08
19.42
20.81
22.47
24.45
26.52
28.23
29.18
29.20
28.38
26.98
25.29
23.43
21.38
19.09
16.55
13.81
10.92
7.86
4.54
0.87
-3.14
-7.30
-11.32
-14.88
-17.72
-19.76
-21.13
-22.19
-23.33
-24.89
-26.90
-29.11
-30.94
-31.76
-31.08
-28.76
-25.03
-20.31
-15.05
-9.60
-4.22
0.86
5.41
9.18
12.02
13.91
14.97
15.37
15.30
14.89
14.32
13.82
13.63
13.90
14.63
15.67
16.69
17.45
17.81
17.80
17.54
17.07
16.37
15.28
13.68
11.50
8.82
5.87
2.91
0.14
-2.35
-4.63
-6.83
-9.12
-11.55
-14.09
-16.60
-18.94
-21.05
-23.03
-25.08
-27.41
-30.16
-33.28
-36.55
-39.72
-42.55
-44.91
-46.75
-48.03
-48.61
-48.27
-46.68
-43.59
-39.00
-33.13
-26.48
-19.60
-12.97
-6.84
-1.25
3.89
8.61
12.87
16.54
19.54
21.96
24.11
26.40
29.24
32.85
37.16
41.85
46.45
50.44
53.39
55.02
55.26
54.27
52.46
50.38
48.67
47.72
47.59
47.89
47.87
46.69
43.78
39.06
32.93
26.20
19.68
13.99
9.35
5.61
2.37
-0.87
-4.49
-8.67
-13.31
-18.07
-22.41
-25.72
-27.50
-27.46
-25.65
-22.47
-18.59
-14.80
-11.88
-10.45
-10.79
-12.84
-16.17
-20.04
-23.62
-26.09
-26.88
-25.84
-23.21
-19.53
-15.47
-11.54
-7.98
-4.65
-1.26
2.52
6.83
11.55
16.40
21.02
25.13
28.57
31.27
33.24
34.40
34.64
33.83
31.87
28.76
24.62
19.72
14.42
9.08
4.02
-0.55
-4.57
-8.09
-11.22
-14.05
-16.60
-18.82
-20.61
-21.90
-22.69
-23.07
-23.24
-23.52
-24.18
-25.50
-27.59
-30.40
-33.63
-36.85
-39.54
-41.19
-41.46
-40.18
-37.40
-33.36
-28.44
-23.11
-17.93
-13.41
-9.92
-7.64
-6.49
-6.21
-6.49
-7.00
-7.48
-7.76
-7.77
-7.47
-6.81
-5.65
-3.71
-0.59
4.12
10.56
18.50
27.19
35.57
42.55
47.26
49.19
48.27
44.76
39.10
31.99
24.20
16.57
9.83
4.42
0.38
-2.56
-4.89
-7.02
-9.12
-11.13
-12.88
-14.28
-15.42
-16.52
-17.72
-18.94
-19.88
-20.13
-19.44
-17.89
-15.79
-13.56
-11.47
-9.51
-7.48
-5.24
-2.84
-0.61
1.00
1.71
1.50
0.67
-0.27
-0.90
-0.94
-0.41
0.52
1.69
2.99
4.42
6.00
7.78
9.78
12.10
14.94
18.58
23.28
29.10
35.82
42.94
49.84
55.99
61.04
64.81
67.05
67.32
64.97
59.37
50.19
37.75
22.93
6.99
-8.90
-23.98
-37.95
-50.69
-61.91
-70.96
-76.84
-78.60
-75.81
-68.85
-58.92
-47.73
-36.88
-27.49
-19.88
-13.78
-8.64
-4.04
0.11
3.53
5.80
6.65
6.06
4.32
1.89
-0.83
-3.59
-6.31
-8.97
-11.44
-13.51
-14.87
-15.28
-14.67
-13.25
-11.41
-9.58
-8.00
-6.73
-5.61
-4.42
-3.01
-1.32
0.55
2.53
4.61
6.80
9.13
11.57
13.94
16.06
17.78
19.08
20.10
21.03
21.99
22.89
23.47
23.39
22.49
20.85
18.87
17.14
16.15
16.17
17.12
18.60
20.07
21.09
21.43
21.16
20.42
19.44
18.23
16.75
14.82
12.36
9.43
6.26
3.19
0.49
-1.67
-3.23
-4.23
-4.71
-4.74
-4.44
-4.00
-3.65
-3.63
-4.06
-4.87
-5.79
-6.47
-6.60
-6.11
-5.19
-4.17
-3.44
-3.22
-3.60
-4.52
-5.87
-7.60
-9.67
-12.04
-14.59
-17.10
-19.34
-21.24
-23.01
-25.07
-27.83
-31.49
-35.77
-40.02
-43.38
-45.12
-44.90
-42.85
-39.41
-35.09
-30.31
-25.29
-20.11
-14.87
-9.76
-5.19
-1.62
0.54
1.12
0.34
-1.28
-3.01
-4.25
-4.66
-4.32
-3.62
-3.11
-3.27
-4.39
-6.46
-9.03
-11.20
-11.61
-8.76
-1.55
10.18
25.35
41.74
56.73
68.07
74.66
76.62
75.02
71.16
65.99
59.88
52.70
44.29
34.74
24.62
14.84
6.37
-0.10
-4.37
-6.73
-7.80
-8.19
-8.32
-8.31
-8.10
-7.55
-6.66
-5.53
-4.28
-2.96
-1.45
0.42
2.74
5.37
7.98
10.03
11.07
10.83
9.40
7.19
4.80
2.81
1.58
1.22
1.56
2.25
2.91
3.25
3.18
2.75
2.16
1.64
1.36
1.34
1.44
1.45
1.18
0.64
-0.09
-0.83
-1.46
-2.00
-2.53
-3.18
-4.05
-5.16
-6.42
-7.79
-9.20
-10.58
-11.90
-13.12
-14.26
-15.42
-16.78
-18.55
-20.90
-23.84
-27.19
-30.57
-33.41
-35.07
-34.96
-32.77
-28.55
-22.78
-16.13
-9.36
-3.09
2.36
6.83
10.29
12.68
13.95
14.16
13.49
12.30
10.90
9.59
8.43
7.43
6.56
5.91
5.57
5.64
6.07
6.69
7.20
7.33
6.93
5.96
4.57
2.96
1.36
-0.07
-1.26
-2.26
-3.24
-4.31
-5.60
-7.11
-8.77
-10.46
-12.03
-13.39
-14.56
-15.64
-16.78
-18.14
-19.79
-21.62
-23.38
-24.62
-24.97
-24.13
-22.01
-18.73
-14.59
-9.91
-5.05
-0.35
3.92
7.49
10.19
11.95
12.77
12.74
12.06
11.06
10.03
9.25
8.89
8.98
9.41
10.01
10.58
11.00
11.23
11.22
10.99
10.51
9.78
8.85
7.79
6.69
5.61
4.50
3.26
1.78
0.02
-1.98
-4.12
-6.30
-8.48
-10.65
-12.80
-14.87
-16.73
-18.27
-19.46
-20.37
-21.10
-21.76
-22.35
-22.80
-22.95
-22.62
-21.68
-20.04
-17.70
-14.70
-11.17
-7.31
-3.37
0.46
4.00
7.17
9.91
12.21
14.03
15.30
16.01
16.19
15.95
15.46
14.97
14.68
14.74
15.15
15.78
16.50
17.10
17.44
17.43
17.12
16.61
16.08
15.65
15.35
15.12
14.80
14.25
13.45
12.52
11.61
10.76
9.93
8.95
7.71
6.22
4.57
2.89
1.21
-0.55
-2.48
-4.62
-6.86
-9.00
-10.87
-12.41
-13.68
-14.86
-16.12
-17.60
-19.28
-21.11
-22.89
-24.53
-25.95
-27.19
-28.27
-29.10
-29.48
-29.13
-27.81
-25.45
-22.17
-18.25
-13.99
-9.58
-5.08
-0.49
4.13
8.57
12.51
15.65
17.82
19.05
19.54
19.61
19.53
19.47
19.46
19.50
19.54
19.58
19.58
19.50
19.27
18.84
18.18
17.38
16.56
15.85
15.30
14.89
14.50
13.97
13.17
12.06
10.67
9.12
7.54
6.07
4.81
3.74
2.79
1.84
0.79
-0.36
-1.57
-2.78
-3.99
-5.17
-6.38
-7.65
-9.00
-10.43
-11.95
-13.61
-15.49
-17.66
-20.13
-22.70
-25.06
-26.78
-27.48
-26.91
-25.01
-21.92
-17.92
-13.40
-8.74
-4.25
-0.20
3.26
6.02
8.11
9.56
10.49
11.02
11.27
11.43
11.65
12.06
12.69
13.48
14.29
14.95
15.32
15.38
15.20
14.86
14.41
13.82
12.98
11.86
10.43
8.78
6.99
5.17
3.37
1.66
0.08
-1.36
-2.69
-3.95
-5.16
-6.28
-7.25
-8.01
-8.58
-9.06
-9.61
-10.37
-11.35
-12.50
-13.75
-15.07
-16.49
-18.07
-19.77
-21.41
-22.71
-23.39
-23.19
-22.05
-20.01
-17.24
-13.95
-10.32
-6.49
-2.54
1.39
5.09
8.27
10.64
12.06
12.60
12.55
12.31
12.21
12.44
12.99
13.75
14.64
15.65
16.78
18.06
19.32
20.35
20.90
20.79
20.00
18.67
17.00
15.25
13.60
12.14
10.88
9.79
8.79
7.81
6.75
5.59
4.28
2.86
1.37
-0.17
-1.76
-3.43
-5.23
-7.18
-9.26
-11.42
-13.56
-15.62
-17.54
-19.35
-21.13
-22.98
-25.02
-27.27
-29.65
-31.94
-33.78
-34.83
-34.86
-33.78
-31.69
-28.81
-25.41
-21.79
-18.17
-14.74
-11.64
-8.94
-6.66
-4.83
-3.44
-2.51
-2.03
-1.96
-2.22
-2.62
-2.98
-3.16
-3.04
-2.62
-1.87
-0.74
0.84
3.01
5.80
9.15
12.77
16.22
18.95
20.43
20.31
18.49
15.19
10.85
6.08
1.47
-2.42
-5.20
-6.67
-6.84
-5.83
-3.81
-0.93
2.77
7.34
12.80
18.97
25.39
31.25
35.56
37.47
36.62
33.32
28.57
23.68
19.89
17.99
18.16
20.16
23.51
27.73
32.35
36.82
40.48
42.65
42.89
41.16
37.94
33.95
29.83
25.83
21.77
17.23
11.94
6.00
-0.04
-5.40
-9.35
-11.49
-11.80
-10.60
-8.38
-5.68
-3.05
-1.03
-0.13
-0.69
-2.81
-6.28
-10.67
-15.39
-19.91
-23.87
-27.18
-29.92
-32.32
-34.63
-36.89
-39.04
-40.73
-41.64
-41.50
-40.33
-38.35
-35.99
-33.61
-31.47
-29.66
-28.16
-26.92
-25.83
-24.71
-23.16
-20.75
-17.08
-12.00
-5.78
1.00
7.56
13.28
17.84
21.33
24.16
26.81
29.69
32.91
36.28
39.32
41.47
42.23
41.36
38.95
35.40
31.29
27.14
23.34
19.96
16.90
13.94
10.89
7.68
4.33
0.94
-2.44
-5.74
-8.94
-11.98
-14.67
-16.81
-18.21
-18.84
-18.81
-18.43
-18.05
-17.94
-18.19
-18.72
-19.40
-20.16
-21.00
-21.98
-23.14
-24.42
-25.71
-26.84
-27.79
-28.64
-29.58
-30.80
-32.35
-34.05
-35.49
-36.04
-35.09
-32.29
-27.58
-21.34
-14.26
-7.07
-0.35
5.58
10.61
14.76
18.02
20.44
22.07
23.03
23.56
23.84
23.93
23.80
23.35
22.57
21.64
20.80
20.19
19.79
19.36
18.57
17.26
15.47
13.47
11.62
10.22
9.32
8.86
8.57
8.24
7.75
7.11
6.33
5.45
4.41
3.12
1.48
-0.53
-2.85
-5.29
-7.66
-9.85
-11.80
-13.57
-15.25
-16.91
-18.65
-20.54
-22.57
-24.71
-26.75
-28.29
-28.90
-28.14
-25.81
-22.05
-17.28
-12.02
-6.82
-2.00
2.37
6.29
9.81
12.87
15.30
16.88
17.54
17.29
16.32
14.98
13.58
12.40
11.56
11.11
11.00
11.11
11.35
11.63
11.90
12.11
12.24
12.29
12.28
12.32
12.54
13.07
13.94
15.00
15.91
16.30
15.91
14.76
13.15
11.53
10.28
9.55
9.13
8.60
7.48
5.41
2.27
-1.86
-6.78
-12.17
-17.68
-22.96
-27.71
-31.72
-34.82
-36.95
-37.98
-37.87
-36.50
-33.90
-30.18
-25.60
-20.53
-15.29
-10.12
-5.15
-0.41
4.04
8.07
11.49
14.12
15.89
16.86
17.22
17.24
17.11
16.90
16.52
15.92
15.11
14.22
13.48
13.13
13.30
14.00
15.14
16.51
17.91
19.10
19.87
20.01
19.44
18.18
16.33
14.04
11.46
8.65
5.71
2.69
-0.28
-3.12
-5.76
-8.22
-10.54
-12.83
-15.10
-17.37
-19.53
-21.47
-23.06
-24.18
-24.70
-24.47
-23.24
-20.77
-16.90
-11.66
-5.43
1.13
7.23
12.17
15.54
17.25
17.50
16.59
14.89
12.71
10.38
8.13
6.14
4.49
3.12
1.93
0.89
0.07
-0.36
-0.23
0.54
1.88
3.59
5.45
7.25
8.88
10.25
11.27
11.86
11.92
11.42
10.45
9.20
7.89
6.66
5.46
4.14
2.51
0.53
-1.65
-3.72
-5.37
-6.53
-7.34
-8.19
-9.43
-11.28
-13.71
-16.50
-19.29
-21.73
-23.39
-23.87
-22.80
-19.98
-15.56
-10.01
-4.06
1.56
6.34
10.18
13.24
15.81
18.07
20.00
21.40
22.03
21.73
20.52
18.60
16.32
14.04
12.01
10.39
9.15
8.15
7.18
6.06
4.73
3.25
1.76
0.41
-0.67
-1.49
-2.15
-2.77
-3.41
-4.07
-4.68
-5.17
-5.55
-5.88
-6.27
-6.81
-7.52
-8.34
-9.19
-10.02
-10.83
-11.73
-12.92
-14.58
-16.80
-19.52
-22.51
-25.38
-27.65
-28.87
-28.74
-27.18
-24.36
-20.65
-16.49
-12.30
-8.37
-4.80
-1.57
1.40
4.15
6.64
8.74
10.33
11.38
11.96
12.22
12.35
12.49
12.78
13.27
13.98
14.91
16.01
17.22
18.44
19.55
20.48
21.21
21.71
21.87
21.59
20.75
19.34
17.45
15.30
13.10
10.99
8.98
7.01
4.98
2.82
0.46
-2.18
-5.13
-8.34
-11.55
-14.37
-16.36
-17.31
-17.32
-16.72
-16.06
-15.66
-15.60
-15.62
-15.33
-14.32
-12.37
-9.49
-5.84
-1.72
2.57
6.71
10.45
13.62
16.15
18.10
19.59
20.75
21.55
21.90
21.61
20.54
18.79
16.61
14.39
12.48
11.06
10.08
9.37
8.75
8.10
7.48
6.99
6.65
6.41
6.13
5.65
4.88
3.85
2.68
1.55
0.59
-0.21
-0.92
-1.70
-2.60
-3.57
-4.45
-5.08
-5.42
-5.60
-5.87
-6.51
-7.65
-9.20
-10.92
-12.55
-13.91
-15.04
-16.11
-17.33
-18.88
-20.86
-23.19
-25.73
-28.22
-30.34
-31.68
-31.93
-30.82
-28.28
-24.45
-19.66
-14.34
-8.93
-3.82
0.69
4.36
7.08
8.80
9.57
9.58
9.09
8.42
7.88
7.59
7.56
7.66
7.74
7.77
7.81
8.07
8.70
9.73
11.00
12.21
13.08
13.43
13.28
12.79
12.13
11.43
10.73
9.97
9.15
8.23
7.20
6.05
4.79
3.47
2.29
1.47
1.14
1.30
1.58
1.49
0.59
-1.28
-3.91
-6.76
-9.26
-11.10
-12.28
-13.15
-14.16
-15.68
-17.83
-20.51
-23.46
-26.36
-28.87
-30.66
-31.40
-30.74
-28.48
-24.60
-19.33
-13.19
-6.82
-0.85
4.21
8.08
10.75
12.38
13.21
13.55
13.68
13.82
14.11
14.66
15.45
16.44
17.56
18.75
19.94
21.07
22.05
22.77
23.10
22.96
22.34
21.35
20.17
19.01
18.04
17.35
16.90
16.56
16.08
15.23
13.82
11.83
9.42
6.91
4.60
2.73
1.37
0.36
-0.55
-1.62
-2.95
-4.56
-6.32
-8.15
-9.99
-11.87
-13.82
-15.88
-17.96
-19.90
-21.42
-22.25
-22.16
-21.04
-18.87
-15.85
-12.35
-8.84
-5.80
-3.46
-1.82
-0.56
0.73
2.41
4.62
7.24
9.98
12.55
14.77
16.62
18.09
19.06
19.30
18.55
16.72
13.99
10.84
7.92
5.75
4.57
4.25
4.46
4.84
5.21
5.59
6.10
6.85
7.84
8.89
9.73
10.14
9.99
9.34
8.38
7.34
6.35
5.44
4.49
3.27
1.61
-0.52
-2.96
-5.40
-7.49
-8.96
-9.73
-9.88
-9.62
-9.22
-8.85
-8.62
-8.54
-8.59
-8.70
-8.86
-9.12
-9.56
-10.30
-11.46
-13.18
-15.53
-18.51
-21.94
-25.48
-28.61
-30.81
-31.64
-30.94
-28.86
-25.70
-21.85
-17.61
-13.18
-8.68
-4.26
-0.18
3.23
5.64
6.88
6.98
6.15
4.78
3.24
1.89
0.98
0.66
1.00
1.93
3.27
4.78
6.19
7.32
8.12
8.65
9.06
9.47
9.98
10.57
11.20
11.77
12.13
12.16
11.78
11.00
9.90
8.57
7.16
5.72
4.27
2.76
1.14
-0.57
-2.38
-4.19
-5.94
-7.57
-9.04
-10.40
-11.83
-13.49
-15.47
-17.63
-19.59
-20.83
-20.89
-19.62
-17.16
-13.90
-10.25
-6.40
-2.38
1.83
6.13
10.20
13.60
15.94
17.04
17.01
16.25
15.23
14.40
14.05
14.27
14.93
15.81
16.65
17.24
17.50
17.43
17.13
16.67
16.02
15.08
13.67
11.71
9.23
6.46
3.72
1.32
-0.58
-2.00
-3.13
-4.17
-5.27
-6.48
-7.74
-8.99
-10.18
-11.30
-12.36
-13.39
-14.48
-15.78
-17.52
-19.88
-22.92
-26.49
-30.24
-33.64
-36.17
-37.37
-36.99
-34.94
-31.31
-26.40
-20.62
-14.53
-8.72
-3.66
0.37
3.33
5.38
6.74
7.64
8.21
8.53
8.62
8.57
8.51
8.57
8.89
9.47
10.25
11.09
11.84
12.40
12.69
12.74
12.53
12.05
11.32
10.41
9.44
8.61
8.07
7.79
7.62
7.29
6.57
5.38
3.86
2.25
0.83
-0.24
-0.95
-1.42
-1.84
-2.40
-3.25
-4.47
-6.10
-8.17
-10.63
-13.36
-16.07
-18.40
-19.87
-20.09
-18.85
-16.20
-12.50
-8.25
-3.94
0.13
3.83
7.15
10.07
12.53
14.40
15.58
16.03
15.83
15.14
14.12
12.94
11.81
10.92
10.53
10.81
11.85
13.58
15.76
18.06
20.16
21.80
22.87
23.35
23.38
23.08
22.67
22.30
22.05
21.92
21.71
21.12
19.89
17.86
15.07
11.77
8.29
4.87
1.68
-1.29
-4.14
-6.91
-9.61
-12.18
-14.55
-16.68
-18.53
-20.11
-21.49
-22.79
-24.12
-25.58
-27.18
-28.82
-30.23
-31.00
-30.73
-29.13
-26.13
-21.91
-16.84
-11.39
-5.95
-0.77
3.90
7.91
11.04
13.11
14.01
13.86
12.92
11.66
10.49
9.68
9.33
9.38
9.70
10.11
10.48
10.68
10.64
10.34
9.81
9.14
8.42
7.74
7.07
6.38
5.60
4.73
3.84
2.98
2.27
1.65
1.01
0.17
-0.99
-2.50
-4.19
-5.81
-7.21
-8.38
-9.56
-11.12
-13.35
-16.37
-19.99
-23.77
-27.13
-29.57
-30.73
-30.48
-28.79
-25.76
-21.59
-16.57
-11.08
-5.54
-0.34
4.21
7.94
10.79
12.78
13.99
14.53
14.54
14.18
13.68
13.27
13.05
13.06
13.25
13.54
13.90
14.33
14.82
15.35
15.86
16.23
16.35
16.16
15.65
14.89
13.90
12.75
11.45
10.00
8.42
6.70
4.83
2.79
0.59
-1.74
-4.17
-6.67
-9.20
-11.69
-14.09
-16.35
-18.42
-20.31
-22.03
-23.67
-25.36
-27.25
-29.34
-31.50
-33.40
-34.54
-34.44
-32.78
-29.46
-24.70
-18.91
-12.52
-6.02
0.22
5.86
10.65
14.36
16.90
18.31
18.76
18.52
17.92
17.24
16.73
16.54
16.68
17.07
17.56
17.95
18.10
17.94
17.58
17.19
16.94
16.96
17.17
17.36
17.26
16.69
15.63
14.28
12.85
11.52
10.29
9.13
7.92
6.68
5.50
4.47
3.55
2.59
1.37
-0.30
-2.41
-4.83
-7.33
-9.71
-11.89
-13.87
-15.66
-17.24
-18.62
-19.85
-21.00
-22.28
-23.84
-25.75
-27.88
-29.96
-31.58
-32.32
-31.86
-30.00
-26.70
-22.12
-16.56
-10.41
-4.13
1.82
7.09
11.42
14.70
16.89
18.09
18.45
18.20
17.55
16.74
15.97
15.45
15.31
15.64
16.48
17.68
19.00
20.15
20.91
21.20
21.07
20.66
20.06
19.28
18.24
16.85
15.13
13.22
11.28
9.44
7.67
5.89
4.06
2.21
0.47
-1.00
-2.19
-3.22
-4.32
-5.69
-7.41
-9.42
-11.59
-13.81
-16.04
-18.32
-20.65
-22.96
-25.08
-26.77
-27.76
-27.83
-26.85
-24.74
-21.54
-17.42
-12.62
-7.50
-2.44
2.19
6.14
9.23
11.47
12.87
13.51
13.49
12.92
11.99
10.95
10.11
9.73
9.97
10.76
11.89
13.05
13.99
14.61
14.92
15.07
15.12
15.09
14.89
14.39
13.53
12.28
10.68
8.82
6.80
4.71
2.61
0.54
-1.48
-3.49
-5.56
-7.75
-10.08
-12.49
-14.90
-17.22
-19.33
-21.22
-22.95
-24.64
-26.38
-28.26
-30.15
-31.81
-32.84
-32.80
-31.33
-28.30
-23.89
-18.54
-12.84
-7.29
-2.27
2.09
5.78
8.77
11.05
12.59
13.43
13.71
13.73
13.72
13.83
14.07
14.31
14.47
14.51
14.47
14.41
14.40
14.40
14.32
14.07
13.56
12.87
12.11
11.45
10.96
10.61
10.27
9.75
8.92
7.78
6.47
5.18
4.09
3.19
2.40
1.49
0.29
-1.26
-3.14
-5.18
-7.29
-9.43
-11.62
-13.91
-16.29
-18.72
-21.14
-23.60
-26.16
-28.91
-31.75
-34.27
-35.86
-35.79
-33.59
-29.25
-23.31
-16.60
-10.01
-4.12
0.80
4.82
8.11
10.77
12.83
14.22
14.96
15.17
15.12
15.07
15.19
15.50
15.88
16.17
16.25
16.11
15.88
15.74
15.82
16.17
16.70
17.26
17.71
17.95
17.97
17.78
17.38
16.70
15.63
14.11
12.15
9.89
7.59
5.52
3.89
2.72
1.90
1.22
0.46
-0.47
-1.55
-2.71
-3.84
-4.96
-6.16
-7.57
-9.30
-11.34
-13.62
-16.03
-18.39
-20.54
-22.22
-23.11
-22.90
-21.41
-18.64
-14.92
-10.68
-6.35
-2.26
1.44
4.72
7.55
9.85
11.48
12.38
12.58
12.24
11.62
11.00
10.52
10.19
9.97
9.71
9.32
8.73
7.85
6.60
4.90
2.74
0.20
-2.48
-4.94
-6.87
-7.99
-8.31
-8.02
-7.48
-7.07
-7.02
-7.39
-8.07
-8.85
-9.53
-10.01
-10.29
-10.47
-10.64
-10.89
-11.26
-11.80
-12.62
-13.81
-15.48
-17.50
-19.60
-21.30
-22.11
-21.71
-19.99
-17.19
-13.64
-9.73
-5.72
-1.76
2.06
5.60
8.68
11.15
12.87
13.90
14.35
14.39
14.10
13.53
12.64
11.51
10.29
9.26
8.70
8.72
9.30
10.22
11.19
12.00
12.57
12.92
13.08
13.02
12.63
11.78
10.39
8.53
6.44
4.38
2.52
0.91
-0.60
-2.20
-4.02
-6.05
-8.14
-10.14
-11.97
-13.71
-15.48
-17.32
-19.15
-20.68
-21.60
-21.62
-20.66
-18.85
-16.43
-13.64
-10.68
-7.63
-4.58
-1.63
1.01
3.06
4.29
4.67
4.37
3.82
3.50
3.81
4.87
6.53
8.49
10.49
12.42
14.31
16.24
18.15
19.84
21.00
21.43
21.10
20.22
19.05
17.76
16.33
14.60
12.46
9.89
7.08
4.36
2.00
0.14
-1.26
-2.39
-3.50
-4.78
-6.35
-8.21
-10.35
-12.77
-15.52
-18.61
-22.04
-25.66
-29.24
-32.40
-34.76
-35.94
-35.68
-33.78
-30.27
-25.38
-19.53
-13.28
-7.21
-1.82
2.56
5.78
7.87
9.04
9.57
9.82
10.10
10.57
11.24
12.00
12.77
13.55
14.48
15.77
17.51
19.64
21.82
23.72
24.97
25.46
25.20
24.28
22.78
20.68
18.03
14.92
11.67
8.64
6.18
4.43
3.33
2.65
2.13
1.57
0.81
-0.24
-1.76
-3.85
-6.54
-9.73
-13.17
-16.62
-19.85
-22.81
-25.46
-27.71
-29.33
-29.96
-29.24
-26.94
-23.15
-18.19
-12.62
-6.96
-1.65
3.12
7.28
10.81
13.72
15.93
17.41
18.15
18.22
17.73
16.87
15.84
14.82
14.03
13.65
13.80
14.51
15.64
16.93
18.07
18.80
18.93
18.50
17.56
16.29
14.81
13.18
11.37
9.35
7.12
4.74
2.35
0.06
-2.09
-4.11
-6.07
-8.04
-10.07
-12.13
-14.21
-16.34
-18.58
-21.00
-23.58
-26.12
-28.25
-29.54
-29.52
-27.93
-24.69
-19.99
-14.18
-7.73
-1.12
5.22
10.92
15.72
19.40
21.85
23.04
23.10
22.25
20.82
19.17
17.62
16.41
15.59
15.09
14.74
14.40
13.98
13.47
12.89
12.21
11.38
10.28
8.79
6.96
4.90
2.87
1.11
-0.25
-1.22
-1.92
-2.54
-3.27
-4.21
-5.40
-6.85
-8.51
-10.35
-12.30
-14.23
-16.02
-17.62
-19.13
-20.75
-22.72
-25.16
-27.95
-30.65
-32.62
-33.26
-32.18
-29.43
-25.35
-20.41
-15.03
-9.49
-3.88
1.69
7.05
11.97
16.17
19.41
21.57
22.66
22.77
22.05
20.76
19.22
17.80
16.89
16.78
17.55
19.06
20.94
22.75
24.10
24.77
24.71
24.08
23.04
21.74
20.27
18.69
17.10
15.61
14.32
13.24
12.21
10.98
9.29
6.97
4.07
0.84
-2.45
-5.58
-8.45
-11.13
-13.70
-16.23
-18.74
-21.24
-23.80
-26.50
-29.44
-32.58
-35.67
-38.27
-39.78
-39.70
-37.79
-34.09
-28.94
-22.89
-16.49
-10.26
-4.59
0.25
4.11
6.89
8.60
9.33
9.24
8.54
7.44
6.12
4.74
3.45
2.42
1.86
1.98
2.93
4.74
7.22
9.98
12.53
14.42
15.46
15.69
15.41
14.99
14.77
14.86
15.18
15.48
15.46
14.88
13.70
12.06
10.31
8.88
8.13
8.27
9.28
10.96
13.02
15.24
17.47
19.61
21.51
22.89
23.43
22.85
21.03
18.13
14.47
10.50
6.57
2.92
-0.31
-2.96
-4.91
-5.96
-5.96
-4.90
-2.91
-0.37
2.25
4.42
5.70
5.84
4.80
2.79
0.10
-2.85
-5.73
-8.29
-10.48
-12.28
-13.71
-14.74
-15.31
-15.44
-15.20
-14.78
-14.40
-14.22
-14.30
-14.57
-14.92
-15.24
-15.49
-15.68
-15.88
-16.14
-16.48
-16.85
-17.18
-17.42
-17.61
-17.90
-18.43
-19.31
-20.49
-21.78
-22.96
-23.81
-24.25
-24.26
-23.83
-22.86
-21.23
-18.83
-15.64
-11.82
-7.68
-3.48
0.55
4.33
7.94
11.49
15.08
18.72
22.31
25.65
28.51
30.70
32.10
32.69
32.45
31.40
29.52
26.82
23.37
19.33
14.97
10.61
6.55
3.01
0.16
-1.90
-3.13
-3.47
-2.87
-1.34
1.04
4.10
7.44
10.55
12.85
13.72
12.78
9.96
5.55
0.08
-5.76
-11.39
-16.43
-20.78
-24.50
-27.73
-30.52
-32.76
-34.25
-34.77
-34.14
-32.38
-29.60
-25.99
-21.78
-17.15
-12.36
-7.69
-3.45
0.05
2.50
3.72
3.70
2.56
0.60
-1.82
-4.27
-6.36
-7.82
-8.55
-8.62
-8.19
-7.50
-6.74
-6.05
-5.53
-5.24
-5.17
-5.32
-5.60
-5.86
-5.99
-5.91
-5.75
-5.81
-6.45
-7.90
-10.10
-12.48
-14.16
-14.13
-11.60
-6.34
1.21
10.05
18.86
26.30
31.39
33.58
32.92
29.92
25.43
20.45
15.91
12.48
10.48
9.89
10.40
11.55
12.80
13.68
13.86
13.20
11.71
9.59
7.11
4.54
2.07
-0.24
-2.38
-4.41
-6.28
-7.82
-8.83
-9.10
-8.53
-7.24
-5.48
-3.60
-1.82
-0.29
0.95
1.92
2.63
3.04
3.11
2.87
2.35
1.68
0.86
-0.17
-1.62
-3.82
-7.03
-11.35
-16.57
-22.21
-27.51
-31.74
-34.20
-34.53
-32.63
-28.76
-23.37
-17.04
-10.41
-4.09
1.39
5.68
8.64
10.40
11.34
11.95
12.74
14.03
15.95
18.37
21.03
23.52
25.46
26.50
26.43
25.18
22.89
19.92
16.70
13.68
11.14
9.16
7.65
6.39
5.18
3.87
2.43
0.83
-0.98
-3.15
-5.85
-9.15
-13.02
-17.13
-21.08
-24.32
-26.41
-27.02
-26.06
-23.60
-19.88
-15.28
-10.21
-5.11
-0.34
3.84
7.32
10.06
12.09
13.42
14.06
14.07
13.56
12.76
11.92
11.35
11.25
11.66
12.49
13.46
14.30
14.71
14.54
13.74
12.34
10.43
8.07
5.32
2.14
-1.38
-5.12
-8.78
-12.11
-14.92
-17.17
-19.02
-20.71
-22.49
-24.51
-26.82
-29.28
-31.67
-33.61
-34.67
-34.37
-32.31
-28.27
-22.38
-15.12
-7.18
0.68
7.78
13.71
18.26
21.44
23.37
24.22
24.17
23.37
22.06
20.50
18.96
17.72
16.93
16.59
16.60
16.73
16.77
16.62
16.22
15.58
14.67
13.46
11.94
10.25
8.53
6.99
5.73
4.75
3.94
3.12
2.14
0.93
-0.53
-2.23
-4.14
-6.20
-8.29
-10.28
-12.12
-13.88
-15.71
-17.83
-20.33
-23.09
-25.69
-27.54
-27.99
-26.63
-23.41
-18.72
-13.27
-7.86
-3.21
0.29
2.55
3.80
4.38
4.64
4.85
5.12
5.48
5.90
6.37
6.81
7.17
7.33
7.29
7.08
6.90
6.99
7.58
8.65
10.00
11.21
11.88
11.85
11.20
10.22
9.26
8.58
8.14
7.81
7.32
6.53
5.44
4.12
2.62
0.96
-0.93
-3.13
-5.66
-8.37
-10.98
-13.10
-14.34
-14.46
-13.35
-11.15
-8.11
-4.56
-0.81
2.91
6.43
9.64
12.39
14.58
16.12
16.96
17.19
16.95
16.44
15.85
15.38
15.15
15.24
15.61
16.09
16.45
16.41
15.77
14.43
12.48
10.06
7.38
4.56
1.67
-1.24
-4.11
-6.81
-9.16
-11.05
-12.45
-13.50
-14.45
-15.52
-16.83
-18.36
-19.99
-21.53
-22.85
-23.78
-24.13
-23.60
-21.90
-18.78
-14.29
-8.76
-2.79
2.96
7.99
12.04
15.12
17.32
18.75
19.42
19.29
18.45
17.07
15.51
14.11
13.09
12.48
12.17
11.98
11.77
11.52
11.26
11.04
10.89
10.69
10.31
9.58
8.45
6.92
5.15
3.28
1.42
-0.37
-2.16
-4.05
-6.11
-8.33
-10.62
-12.81
-14.81
-16.58
-18.16
-19.70
-21.34
-23.20
-25.35
-27.75
-30.23
-32.52
-34.23
-34.97
-34.36
-32.21
-28.51
-23.51
-17.62
-11.40
-5.39
0.03
4.62
8.30
11.16
13.34
15.00
16.28
17.34
18.28
19.24
20.20
21.11
21.85
22.33
22.52
22.42
22.12
21.61
20.87
19.77
18.28
16.42
14.36
12.33
10.53
9.07
7.92
7.04
6.30
5.69
5.17
4.61
3.92
2.93
1.58
-0.12
-2.00
-3.86
-5.47
-6.72
-7.67
-8.46
-9.36
-10.65
-12.52
-15.07
-18.21
-21.68
-25.10
-27.99
-29.84
-30.31
-29.19
-26.46
-22.35
-17.23
-11.67
-6.19
-1.29
2.81
6.02
8.42
10.14
11.26
11.85
11.96
11.67
11.11
10.48
9.98
9.77
9.92
10.42
11.18
12.07
12.94
13.64
14.11
14.35
14.48
14.59
14.65
14.61
14.30
13.63
12.55
11.12
9.44
7.65
5.83
3.96
2.01
-0.11
-2.42
-4.88
-7.40
-9.84
-12.07
-14.01
-15.64
-16.97
-18.07
-18.95
-19.65
-20.24
-20.83
-21.56
-22.54
-23.75
-25.03
-26.14
-26.76
-26.58
-25.37
-22.98
-19.47
-15.02
-10.01
-4.86
0.00
4.27
7.81
10.58
12.58
13.79
14.23
13.98
13.24
12.33
11.53
11.05
10.95
11.13
11.41
11.68
11.84
11.88
11.82
11.65
11.35
10.90
10.26
9.44
8.44
7.27
5.94
4.45
2.88
1.30
-0.19
-1.59
-2.93
-4.31
-5.81
-7.45
-9.20
-10.98
-12.73
-14.39
-15.97
-17.47
-18.91
-20.35
-21.82
-23.34
-24.84
-26.09
-26.70
-26.30
-24.58
-21.49
-17.23
-12.17
-6.76
-1.45
3.41
7.52
10.65
12.69
13.65
13.66
12.98
11.93
10.77
9.74
8.98
8.58
8.57
8.93
9.53
10.23
10.88
11.37
11.68
11.82
11.83
11.73
11.52
11.15
10.57
9.72
8.56
7.09
5.39
3.63
1.93
0.38
-1.05
-2.52
-4.22
-6.28
-8.65
-11.13
-13.45
-15.43
-17.01
-18.31
-19.50
-20.80
-22.30
-24.07
-26.07
-28.18
-30.20
-31.78
-32.51
-31.96
-29.88
-26.25
-21.34
-15.66
-9.77
-4.18
0.78
4.90
8.14
10.57
12.24
13.25
13.70
13.70
13.36
12.79
12.11
11.44
10.88
10.51
10.35
10.44
10.78
11.37
12.19
13.11
13.95
14.49
14.58
14.21
13.50
12.64
11.76
10.88
9.86
8.54
6.87
4.93
2.93
1.10
-0.48
-1.83
-3.07
-4.34
-5.71
-7.16
-8.66
-10.17
-11.69
-13.22
-14.80
-16.43
-18.07
-19.72
-21.40
-23.18
-25.17
-27.33
-29.53
-31.40
-32.40
-32.03
-29.95
-26.14
-20.95
-14.97
-8.79
-2.90
2.46
7.17
11.13
14.19
16.24
17.20
17.19
16.48
15.39
14.29
13.35
12.66
12.17
11.83
11.54
11.28
11.10
11.06
11.25
11.70
12.33
12.99
13.40
13.36
12.75
11.65
10.25
8.81
7.53
6.49
5.68
4.99
4.33
3.68
3.00
2.23
1.27
0.01
-1.59
-3.46
-5.47
-7.45
-9.33
-11.14
-13.05
-15.19
-17.62
-20.26
-22.84
-25.07
-26.61
-27.15
-26.46
-24.38
-20.90
-16.16
-10.54
-4.55
1.24
6.36
10.53
13.68
15.85
17.17
17.67
17.38
16.34
14.68
12.69
10.73
9.17
8.20
7.85
7.95
8.30
8.76
9.31
9.98
10.74
11.46
11.89
11.83
11.20
10.16
8.94
7.76
6.68
5.58
4.25
2.52
0.37
-2.05
-4.45
-6.60
-8.35
-9.74
-10.92
-12.09
-13.46
-15.16
-17.22
-19.60
-22.20
-24.79
-27.06
-28.55
-28.82
-27.54
-24.66
-20.46
-15.42
-10.06
-4.76
0.24
4.85
8.98
12.52
15.32
17.22
18.21
18.41
18.02
17.23
16.19
15.04
13.91
12.98
12.40
12.29
12.62
13.19
13.76
14.10
14.16
13.98
13.69
13.39
13.08
12.71
12.17
11.42
10.45
9.29
8.00
6.62
5.21
3.86
2.64
1.59
0.69
-0.17
-1.16
-2.43
-4.09
-6.16
-8.56
-11.12
-13.62
-15.94
-18.03
-20.01
-22.03
-24.30
-26.84
-29.52
-31.96
-33.68
-34.20
-33.21
-30.64
-26.65
-21.57
-15.83
-9.86
-4.06
1.24
5.80
9.44
12.13
13.97
15.16
15.96
16.55
17.05
17.41
17.57
17.49
17.24
17.03
17.03
17.36
17.98
18.71
19.38
19.85
20.10
20.18
20.15
19.97
19.55
18.81
17.76
16.49
15.12
13.69
12.18
10.52
8.69
6.72
4.77
2.96
1.37
-0.02
-1.31
-2.66
-4.16
-5.85
-7.67
-9.54
-11.41
-13.22
-14.95
-16.68
-18.50
-20.50
-22.69
-24.98
-27.14
-28.83
-29.62
-29.16
-27.22
-23.78
-19.03
-13.36
-7.29
-1.36
4.00
8.52
12.08
14.65
16.34
17.22
17.42
17.06
16.27
15.24
14.18
13.29
12.71
12.50
12.69
13.22
14.03
14.99
16.00
16.90
17.57
17.92
17.91
17.53
16.80
15.80
14.61
13.31
11.98
10.64
9.24
7.74
6.11
4.39
2.68
1.04
-0.52
-2.05
-3.63
-5.31
-7.09
-8.90
-10.62
-12.18
-13.56
-14.75
-15.87
-17.01
-18.33
-19.95
-21.98
-24.39
-27.00
-29.43
-31.19
-31.82
-30.90
-28.27
-24.04
-18.58
-12.47
-6.32
-0.64
4.22
8.09
10.98
13.01
14.33
15.06
15.32
15.24
14.99
14.75
14.72
15.07
15.84
16.95
18.18
19.26
20.03
20.47
20.65
20.66
20.53
20.16
19.43
18.31
16.91
15.40
13.95
12.56
11.12
9.45
7.47
5.26
3.05
1.07
-0.56
-1.94
-3.24
-4.63
-6.19
-7.84
-9.40
-10.77
-11.92
-12.88
-13.73
-14.49
-15.17
-15.81
-16.56
-17.62
-19.24
-21.52
-24.29
-27.11
-29.34
-30.38
-29.80
-27.51
-23.69
-18.77
-13.26
-7.64
-2.24
2.70
7.06
10.77
13.80
16.11
17.70
18.61
18.93
18.82
18.47
18.03
17.58
17.16
16.70
16.23
15.81
15.52
15.47
15.70
16.09
16.47
16.65
16.52
16.06
15.37
14.56
13.72
12.90
12.08
11.28
10.49
9.69
8.87
7.98
6.99
5.94
4.91
3.97
3.16
2.37
1.37
-0.02
-1.90
-4.19
-6.67
-9.08
-11.18
-12.90
-14.26
-15.42
-16.56
-17.89
-19.56
-21.60
-23.93
-26.26
-28.24
-29.45
-29.53
-28.23
-25.47
-21.37
-16.22
-10.54
-4.85
0.30
4.49
7.54
9.45
10.40
10.63
10.33
9.63
8.66
7.58
6.60
5.95
5.75
6.01
6.54
7.11
7.52
7.77
8.01
8.45
9.19
10.14
10.99
11.38
11.09
10.14
8.80
7.38
6.18
5.24
4.41
3.42
2.09
0.49
-1.10
-2.32
-2.92
-2.89
-2.53
-2.25
-2.46
-3.35
-4.79
-6.48
-8.04
-9.27
-10.22
-11.14
-12.31
-13.94
-16.02
-18.43
-20.94
-23.28
-25.15
-26.22
-26.16
-24.72
-21.88
-17.85
-13.05
-7.97
-3.03
1.49
5.47
8.79
11.38
13.15
14.05
14.14
13.58
12.64
11.59
10.70
10.11
9.92
10.17
10.85
11.94
13.36
14.96
16.50
17.75
18.51
18.74
18.49
17.94
17.26
16.55
15.81
15.00
14.07
13.05
12.08
11.24
10.57
9.96
9.24
8.28
7.04
5.61
4.13
2.71
1.37
0.09
-1.12
-2.20
-3.06
-3.64
-3.98
-4.27
-4.73
-5.49
-6.63
-8.05
-9.64
-11.31
-13.00
-14.69
-16.36
-18.00
-19.58
-21.13
-22.73
-24.48
-26.51
-28.80
-31.19
-33.37
-34.95
-35.50
-34.70
-32.44
-28.77
-23.99
-18.48
-12.67
-6.98
-1.75
2.80
6.52
9.41
11.48
12.84
13.65
14.10
14.33
14.49
14.60
14.61
14.52
14.32
14.09
13.99
14.14
14.65
15.51
16.68
17.99
19.27
20.33
20.94
21.02
20.59
19.74
18.64
17.44
16.17
14.87
13.51
12.12
10.77
9.50
8.36
7.32
6.33
5.36
4.50
3.82
3.36
3.09
2.84
2.44
1.77
0.83
-0.24
-1.27
-2.15
-2.87
-3.55
-4.35
-5.40
-6.77
-8.47
-10.43
-12.56
-14.71
-16.73
-18.48
-19.98
-21.33
-22.75
-24.46
-26.52
-28.75
-30.74
-31.99
-32.06
-30.73
-27.99
-24.05
-19.27
-14.00
-8.58
-3.34
1.43
5.46
8.53
10.58
11.66
11.97
11.73
11.13
10.34
9.49
8.72
8.17
7.98
8.19
8.74
9.55
10.48
11.50
12.57
13.67
14.71
15.50
15.84
15.59
14.76
13.53
12.19
10.98
10.02
9.23
8.46
7.51
6.36
5.04
3.66
2.36
1.20
0.19
-0.71
-1.56
-2.46
-3.49
-4.73
-6.16
-7.71
-9.30
-10.86
-12.42
-14.10
-16.04
-18.28
-20.74
-23.17
-25.22
-26.50
-26.67
-25.50
-23.00
-19.35
-14.89
-10.02
-5.10
-0.38
3.97
7.79
10.92
13.17
14.44
14.75
14.24
13.20
11.99
10.85
9.97
9.44
9.23
9.33
9.72
10.35
11.18
12.13
13.13
14.12
15.04
15.81
16.32
16.41
15.91
14.79
13.13
11.19
9.23
7.43
5.80
4.17
2.36
0.28
-1.98
-4.21
-6.19
-7.80
-9.06
-10.05
-10.90
-11.74
-12.67
-13.80
-15.21
-16.90
-18.77
-20.57
-22.01
-22.90
-23.23
-23.19
-23.14
-23.43
-24.34
-25.83
-27.67
-29.34
-30.29
-30.01
-28.16
-24.75
-20.01
-14.40
-8.48
-2.74
2.42
6.74
10.10
12.44
13.80
14.32
14.20
13.73
13.20
12.82
12.68
12.76
12.99
13.30
13.72
14.33
15.16
16.21
17.35
18.42
19.25
19.77
19.97
19.96
19.80
19.50
19.00
18.25
17.24
16.08
14.87
13.72
12.68
11.63
10.45
9.08
7.55
6.04
4.72
3.69
2.90
2.18
1.33
0.25
-1.02
-2.43
-3.94
-5.56
-7.38
-9.42
-11.60
-13.72
-15.62
-17.23
-18.71
-20.33
-22.37
-24.91
-27.68
-30.18
-31.81
-32.12
-30.89
-28.21
-24.33
-19.65
-14.53
-9.32
-4.28
0.34
4.38
7.74
10.38
12.29
13.53
14.18
14.36
14.23
13.96
13.73
13.66
13.79
14.03
14.30
14.45
14.37
14.08
13.62
13.13
12.73
12.44
12.24
11.99
11.55
10.81
9.73
8.36
6.83
5.27
3.70
2.11
0.38
-1.59
-3.75
-5.98
-8.07
-9.85
-11.27
-12.43
-13.49
-14.62
-15.86
-17.14
-18.35
-19.45
-20.52
-21.64
-22.90
-24.16
-25.10
-25.24
-24.15
-21.64
-17.79
-12.98
-7.75
-2.60
2.10
6.20
9.63
12.39
14.42
15.67
16.15
15.95
15.31
14.52
13.88
13.58
13.68
14.15
14.90
15.77
16.64
17.37
17.86
18.06
17.93
17.47
16.75
15.82
14.78
13.72
12.73
11.80
10.89
9.92
8.84
7.66
6.47
5.41
4.60
4.03
3.58
3.04
2.21
0.99
-0.61
-2.46
-4.45
-6.49
-8.55
-10.65
-12.79
-14.92
-16.99
-18.94
-20.83
-22.79
-24.94
-27.31
-29.79
-32.06
-33.73
-34.43
-33.84
-31.85
-28.53
-24.12
-18.93
-13.35
-7.76
-2.51
2.13
6.06
9.21
11.64
13.42
14.61
15.30
15.60
15.65
15.67
15.82
16.16
16.68
17.24
17.74
18.15
18.50
18.82
19.13
19.31
19.17
18.54
17.41
15.92
14.38
13.11
12.35
12.06
12.08
12.17
12.14
11.95
11.67
11.39
11.17
10.99
10.80
10.57
10.34
10.14
9.97
9.77
9.41
8.81
7.89
6.66
5.23
3.73
2.31
1.09
0.09
-0.71
-1.43
-2.22
-3.22
-4.53
-6.17
-8.08
-10.12
-12.13
-13.98
-15.62
-17.06
-18.39
-19.72
-21.13
-22.61
-24.14
-25.69
-27.29
-28.92
-30.42
-31.51
-31.74
-30.73
-28.26
-24.45
-19.64
-14.34
-8.98
-3.92
0.59
4.40
7.34
9.34
10.40
10.68
10.39
9.78
9.08
8.48
8.10
7.99
8.13
8.44
8.81
9.18
9.54
9.94
10.45
11.09
11.77
12.31
12.56
12.38
11.81
10.97
10.02
9.07
8.16
7.24
6.23
5.11
3.94
2.85
1.93
1.19
0.48
-0.40
-1.64
-3.27
-5.16
-7.11
-8.88
-10.39
-11.72
-13.05
-14.60
-16.49
-18.68
-20.98
-23.12
-24.74
-25.58
-25.38
-24.06
-21.59
-18.13
-13.97
-9.44
-4.94
-0.79
2.81
5.81
8.24
10.19
11.69
12.77
13.42
13.71
13.73
13.62
13.48
13.33
13.14
12.87
12.53
12.15
11.86
11.77
11.88
12.13
12.41
12.63
12.74
12.75
12.67
12.50
12.18
11.64
10.80
9.63
8.11
6.33
4.42
2.49
0.65
-1.12
-2.89
-4.73
-6.68
-8.66
-10.53
-12.15
-13.48
-14.58
-15.62
-16.72
-17.97
-19.42
-21.10
-23.05
-25.27
-27.66
-29.90
-31.55
-32.12
-31.29
-29.06
-25.68
-21.55
-17.09
-12.53
-8.02
-3.62
0.54
4.24
7.23
9.36
10.68
11.36
11.74
12.10
12.63
13.35
14.17
14.95
15.58
16.05
16.40
16.76
17.14
17.56
17.91
18.03
17.80
17.15
16.16
14.98
13.82
12.81
11.99
11.36
10.78
10.14
9.38
8.45
7.33
6.03
4.63
3.20
1.89
0.77
-0.14
-0.94
-1.78
-2.84
-4.18
-5.74
-7.37
-8.93
-10.36
-11.75
-13.30
-15.18
-17.48
-20.10
-22.83
-25.43
-27.64
-29.31
-30.21
-30.16
-28.94
-26.40
-22.52
-17.45
-11.53
-5.22
1.03
6.79
11.77
15.77
18.67
20.46
21.14
20.74
19.39
17.32
14.85
12.45
10.57
9.52
9.43
10.17
11.39
12.74
13.91
14.74
15.25
15.49
15.54
15.42
15.13
14.64
14.01
13.32
12.62
11.94
11.28
10.61
9.93
9.27
8.65
8.11
7.60
7.01
6.22
5.17
3.89
2.46
1.00
-0.43
-1.84
-3.28
-4.81
-6.43
-8.12
-9.85
-11.69
-13.70
-16.01
-18.62
-21.47
-24.34
-26.94
-29.01
-30.34
-30.75
-30.11
-28.37
-25.62
-22.10
-18.18
-14.30
-10.76
-7.72
-5.15
-2.98
-1.12
0.36
1.39
1.87
1.84
1.43
0.82
0.21
-0.30
-0.70
-1.00
-1.24
-1.50
-1.76
-2.00
-2.09
-1.93
-1.43
-0.74
-0.01
0.45
0.44
-0.08
-0.99
-2.07
-3.09
-3.98
-4.85
-5.87
-7.17
-8.78
-10.62
-12.64
-14.85
-17.32
-20.09
-23.05
-25.81
-27.77
-28.32
-27.08
-24.25
-20.49
-16.80
-14.11
-12.91
-13.03
-13.80
-14.36
-13.87
-11.86
-8.00
-2.03
6.41
17.62
31.53
47.46
64.17
80.19
94.28
105.90
115.08
122.26
127.81
131.78
134.00
134.31
132.81
129.90
126.12
121.92
117.50
112.84
107.85
102.53
96.98
91.30
85.58
79.82
74.05
68.35
62.92
57.96
53.58
49.69
45.98
42.05
37.55
32.22
25.98
18.90
11.13
2.91
-5.47
-13.75
-21.69
-29.13
-36.03
-42.39
-48.32
-53.87
-59.12
-64.04
-68.50
-72.33
-75.40
-77.67
-79.26
-80.39
-81.23
-81.75
-81.66
-80.43
-77.55
-72.73
-66.03
-57.88
-48.97
-40.00
-31.59
-24.16
-17.89
-12.83
-8.93
-6.04
-3.98
-2.56
-1.55
-0.64
0.39
1.72
3.28
4.78
5.85
6.14
5.45
3.89
1.73
-0.76
-3.39
-6.18
-9.29
-12.85
-16.85
-21.15
-25.56
-29.98
-34.45
-39.15
-44.22
-49.62
-55.08
-60.14
-64.29
-67.18
-68.73
-69.13
-68.76
-68.06
-67.42
-67.09
-67.22
-67.76
-68.63
-69.62
-70.53
-71.14
-71.25
-70.73
-69.47
-67.39
-64.37
-60.29
-55.04
-48.60
-41.10
-32.80
-24.08
-15.31
-6.86
1.02
8.08
14.14
19.06
22.80
25.46
27.21
28.25
28.69
28.48
27.41
25.32
22.16
18.15
13.72
9.45
5.84
3.18
1.47
0.52
0.04
-0.25
-0.48
-0.65
-0.68
-0.46
0.06
0.86
1.84
2.85
3.75
4.50
5.09
5.63
6.20
6.84
7.51
8.09
8.47
8.57
8.33
7.68
6.50
4.70
2.28
-0.56
-3.51
-6.17
-8.23
-9.51
-9.94
-9.46
-7.99
-5.44
-1.77
2.83
7.98
13.06
17.53
20.89
22.88
23.38
22.40
20.05
16.50
12.09
7.26
2.61
-1.38
-4.30
-6.04
-6.67
-6.39
-5.43
-3.88
-1.76
0.97
4.34
8.27
12.56
16.92
21.00
24.48
27.08
28.58
28.88
27.93
25.80
22.71
18.94
14.85
10.75
6.80
3.03
-0.66
-4.31
-7.93
-11.34
-14.42
-17.06
-19.37
-21.52
-23.79
-26.29
-29.06
-31.94
-34.75
-37.32
-39.50
-41.11
-41.92
-41.70
-40.12
-37.02
-32.41
-26.60
-20.14
-13.63
-7.63
-2.46
1.80
5.25
8.00
10.12
11.57
12.30
12.33
11.87
11.23
10.75
10.71
11.17
12.08
13.30
14.65
16.03
17.32
18.41
19.18
19.50
19.26
18.44
17.17
15.64
14.09
12.65
11.39
10.28
9.27
8.27
7.26
6.23
5.17
4.05
2.82
1.40
-0.25
-2.13
-4.18
-6.29
-8.33
-10.24
-12.04
-13.86
-15.84
-18.09
-20.61
-23.19
-25.43
-26.85
-27.05
-25.71
-22.81
-18.53
-13.24
-7.41
