1551729834.00
64.000000
-0.00
-0.00
-0.00
-0.00
-0.00
-0.00
-0.00
-0.00
-0.00
-0.00
0.00
0.01
0.01
-0.00
-0.03
-0.05
-0.05
0.00
0.13
0.36
0.66
1.01
1.37
1.72
2.06
2.40
2.79
3.24
3.80
4.42
5.06
5.66
6.20
6.68
7.15
7.68
8.31
9.14
10.09
11.04
11.88
12.56
13.14
13.76
14.65
15.96
17.91
20.32
22.90
25.38
27.58
29.57
31.68
34.32
37.81
42.54
48.15
54.10
59.83
64.97
69.58
74.14
79.34
85.71
93.76
103.00
112.62
121.73
129.77
136.75
143.30
150.75
157.77
166.64
177.95
191.79
206.97
220.57
228.25
225.36
208.53
176.87
132.76
80.05
23.07
-34.94
-92.44
-149.16
-205.23
-260.37
-313.74
-363.87
-409.83
-450.91
-486.50
-515.74
-537.23
-549.22
-549.96
-538.37
-514.21
-478.67
-433.88
-382.45
-327.02
-269.84
-212.63
-156.66
-102.95
-52.37
-5.90
35.58
71.43
101.35
125.50
144.38
158.69
169.15
176.37
180.75
182.57
182.07
179.51
175.23
169.65
163.18
156.15
148.81
141.30
133.69
126.02
118.33
110.69
103.16
95.80
88.68
81.83
75.25
68.95
62.95
57.25
51.86
46.78
42.03
37.59
33.45
29.61
26.07
22.81
19.83
17.11
14.67
12.48
10.54
8.83
7.35
6.07
4.97
4.05
3.27
2.62
2.09
1.65
1.30
1.01
0.79
0.61
0.47
0.37
0.29
0.23
0.18
0.16
0.14
0.14
0.14
0.15
0.17
0.20
0.23
0.27
0.31
0.35
0.39
0.44
0.48
0.53
0.58
0.63
0.69
0.75
0.81
0.88
0.96
1.04
1.13
1.24
1.35
1.48
1.63
1.79
1.97
2.17
2.39
2.63
2.90
3.20
3.53
3.89
4.28
4.71
5.18
5.68
6.22
6.81
7.43
8.10
8.81
9.57
10.37
11.23
12.12
13.05
14.04
15.10
16.21
17.39
18.62
19.89
21.16
22.37
23.45
24.29
24.77
24.77
24.18
22.91
20.92
18.21
14.85
10.90
6.57
2.04
-2.49
-6.77
-10.64
-13.92
-16.50
-18.34
-19.43
-19.80
-19.56
-18.82
-17.70
-16.30
-14.71
-13.01
-11.27
-9.51
-7.74
-5.99
-4.26
-2.48
-0.60
1.42
3.63
6.02
8.57
11.33
14.12
16.87
19.60
22.29
24.97
27.64
30.29
32.95
35.69
38.34
40.86
43.37
46.00
48.87
52.05
55.50
59.14
63.04
66.77
70.29
73.76
77.40
81.42
85.83
90.41
94.84
98.95
102.01
103.82
104.50
104.25
103.00
100.14
94.33
83.28
69.21
52.49
33.65
13.49
-7.11
-27.48
-47.36
-66.86
-86.38
-106.33
-127.91
-152.03
-179.08
-208.45
-238.06
-264.42
-283.43
-291.62
-287.46
-272.51
-250.23
-224.81
-199.76
-177.07
-157.30
-140.22
-125.51
-112.98
-102.69
-94.08
-85.85
-76.39
-64.41
-49.59
-32.78
-15.59
0.23
13.30
23.24
30.51
36.08
40.87
45.43
49.85
53.86
57.15
59.50
60.97
61.89
62.71
63.82
65.41
67.36
69.30
70.66
70.94
69.82
67.29
63.61
59.17
54.39
49.56
44.84
40.34
36.17
32.52
29.63
27.78
27.17
27.91
29.83
32.55
35.46
37.90
39.25
39.23
37.87
35.56
32.88
30.39
28.42
27.00
25.82
24.36
22.00
18.26
12.84
5.88
-2.14
-10.45
-18.27
-25.07
-30.76
-35.69
-40.53
-45.99
-52.43
-59.74
-67.28
-73.97
-78.70
-80.61
-79.30
-74.94
-68.19
-60.03
-51.52
-43.58
-36.87
-31.74
-28.15
-25.80
-24.18
-22.73
-20.96
-18.59
-15.56
-12.00
-8.15
-4.22
-0.36
3.43
7.22
11.14
15.35
19.92
24.74
29.54
33.91
37.46
39.95
41.41
42.13
42.59
43.24
44.38
46.01
47.81
49.26
49.78
48.94
46.62
43.04
38.69
34.16
29.96
26.42
23.62
21.48
19.79
18.31
16.79
15.04
12.94
10.42
7.46
4.00
-0.13
-5.16
-11.27
-18.39
-26.08
-33.37
-38.99
-41.63
-40.35
-34.92
-25.92
-14.56
-2.34
9.33
19.37
27.06
31.95
33.89
32.99
29.74
24.96
19.57
14.24
9.11
3.84
-2.16
-9.24
-17.13
-24.91
-31.33
-35.20
-35.94
-33.69
-29.23
-23.67
-18.02
-12.98
-8.88
-5.75
-3.58
-2.35
-2.09
-2.70
-3.80
-4.76
-4.81
-3.39
-0.41
3.59
7.58
10.29
10.63
7.98
2.38
-5.50
-14.54
-23.48
-31.24
-37.25
-41.41
-44.01
-45.39
-45.64
-44.55
-41.68
-36.76
-29.92
-21.81
-13.44
-5.86
0.22
4.50
7.08
8.32
8.64
8.54
8.54
9.24
11.16
14.61
19.64
25.93
33.01
40.40
47.79
55.00
61.90
68.29
73.77
77.90
80.26
80.70
79.42
76.96
74.06
71.33
69.01
66.82
63.99
59.53
52.70
43.21
31.42
18.19
4.55
-8.49
-20.24
-30.34
-38.85
-46.08
-52.57
-58.75
-64.73
-70.17
-74.30
-76.23
-75.31
-71.48
-65.30
-57.78
-49.99
-42.77
-36.63
-31.76
-28.23
-25.98
-24.88
-24.63
-24.86
-25.19
-25.36
-25.34
-25.18
-24.88
-24.25
-22.97
-20.74
-17.49
-13.44
-9.03
-4.67
-0.62
3.11
6.62
9.96
13.00
15.55
17.46
18.72
19.53
20.08
20.47
20.49
19.77
17.90
14.70
10.39
5.58
1.16
-2.00
-3.35
-2.84
-0.87
1.82
4.53
6.82
8.62
10.20
11.83
13.72
15.74
17.56
18.75
18.92
17.81
15.39
11.82
7.45
2.83
-1.33
-4.33
-5.62
-5.02
-2.75
0.63
4.38
7.91
10.90
13.36
15.49
17.47
19.22
20.48
20.81
19.94
17.88
14.94
11.61
8.25
4.94
1.41
-2.88
-8.49
-15.79
-24.72
-34.85
-45.34
-55.17
-63.33
-68.90
-71.27
-70.13
-65.56
-58.03
-48.34
-37.58
-26.90
-17.31
-9.46
-3.45
1.18
5.37
10.18
16.51
24.74
34.66
45.47
56.12
65.58
73.20
78.76
82.45
84.61
85.59
85.66
84.88
83.17
80.28
75.83
69.41
60.71
49.76
36.99
23.21
9.35
-3.79
-15.76
-26.52
-36.19
-44.88
-52.40
-58.33
-62.17
-63.68
-63.16
-61.42
-59.47
-58.06
-57.36
-56.77
-55.17
-51.44
-44.89
-35.54
-24.12
-11.80
0.11
10.53
18.72
24.31
27.27
27.80
26.32
23.41
19.77
16.15
13.16
11.21
10.34
10.29
10.63
10.98
11.20
11.49
12.18
13.61
15.86
18.65
21.38
23.30
23.76
22.41
19.31
14.83
9.49
3.78
-1.99
-7.70
-13.31
-18.72
-23.72
-27.97
-31.08
-32.79
-33.06
-32.15
-30.63
-29.17
-28.39
-28.53
-29.32
-29.98
-29.48
-26.94
-21.96
-14.73
-6.00
3.22
11.93
19.35
25.03
28.88
31.20
32.67
34.06
36.08
39.04
42.67
46.32
49.06
50.10
48.97
45.59
40.30
33.67
26.47
19.49
13.51
9.08
6.45
5.51
5.83
6.79
7.75
8.19
7.84
6.63
4.69
2.27
-0.44
-3.39
-6.70
-10.65
-15.51
-21.38
-27.99
-34.68
-40.42
-44.04
-44.56
-41.50
-35.05
-26.10
-15.99
-6.10
2.46
9.09
13.71
16.55
17.96
18.20
17.44
15.81
13.49
10.78
8.08
5.76
4.09
3.09
2.66
2.57
2.60
2.60
2.47
2.14
1.50
0.40
-1.24
-3.41
-5.93
-8.51
-10.91
-13.01
-14.94
-17.05
-19.72
-23.13
-27.12
-31.06
-33.97
-34.85
-32.92
-28.04
-20.66
-11.81
-2.67
5.68
12.55
17.61
20.88
22.53
22.80
21.95
20.28
18.10
15.77
13.58
11.73
10.33
9.39
8.84
8.61
8.56
8.54
8.37
7.93
7.13
5.92
4.34
2.40
0.13
-2.45
-5.36
-8.62
-12.28
-16.43
-21.16
-26.44
-31.96
-37.08
-40.80
-42.07
-40.08
-34.65
-26.30
-16.18
-5.70
3.87
11.69
17.44
21.23
23.37
24.24
24.21
23.66
22.94
22.32
21.97
21.91
22.04
22.25
22.49
22.76
23.12
23.64
24.29
25.03
25.77
26.38
26.71
26.58
25.85
24.41
22.31
19.68
16.73
13.63
10.49
7.34
4.14
0.84
-2.57
-6.07
-9.62
-13.18
-16.65
-20.00
-23.19
-26.24
-29.25
-32.38
-35.87
-39.88
-44.41
-49.13
-53.33
-56.02
-56.15
-52.95
-46.23
-36.53
-25.00
-13.12
-2.28
6.55
12.94
17.02
19.24
20.17
20.32
20.12
19.88
19.82
20.08
20.70
21.60
22.64
23.67
24.62
25.56
26.62
27.95
29.57
31.32
32.90
33.96
34.20
33.49
31.89
29.58
26.81
23.80
20.75
17.84
15.17
12.79
10.72
8.83
6.95
4.95
2.72
0.29
-2.26
-4.84
-7.43
-10.08
-12.92
-16.02
-19.34
-22.70
-25.87
-28.68
-31.15
-33.58
-36.46
-40.23
-45.10
-50.79
-56.52
-61.14
-63.45
-62.53
-58.08
-50.45
-40.54
-29.51
-18.44
-8.13
0.90
8.39
14.16
18.11
20.24
20.77
20.17
19.09
18.15
17.85
18.38
19.70
21.59
23.77
25.94
27.85
29.25
29.99
30.11
29.73
29.14
28.55
28.02
27.47
26.73
25.68
24.35
22.87
21.33
19.72
17.88
15.61
12.79
9.52
6.11
2.96
0.37
-1.61
-3.18
-4.72
-6.59
-8.98
-11.86
-15.00
-18.14
-21.06
-23.71
-26.17
-28.59
-31.24
-34.37
-38.22
-42.85
-47.97
-52.83
-56.35
-57.33
-54.88
-48.76
-39.51
-28.26
-16.44
-5.35
4.11
11.50
16.76
20.07
21.72
22.06
21.44
20.26
18.86
17.57
16.58
16.01
15.93
16.41
17.56
19.48
22.12
25.27
28.49
31.23
32.95
33.39
32.58
30.86
28.76
26.73
25.05
23.72
22.50
21.05
19.07
16.44
13.22
9.67
6.09
2.75
-0.25
-3.00
-5.61
-8.24
-10.91
-13.58
-16.12
-18.50
-20.78
-23.12
-25.74
-28.74
-32.23
-36.19
-40.51
-44.96
-49.07
-52.12
-53.26
-51.67
-46.91
-39.14
-29.10
-17.97
-7.08
2.45
9.91
15.11
18.23
19.69
19.90
19.21
17.92
16.29
14.65
13.34
12.59
12.47
12.83
13.44
14.09
14.79
15.68
16.89
18.39
19.90
20.98
21.19
20.33
18.47
15.89
13.00
10.15
7.50
5.07
2.70
0.19
-2.64
-5.85
-9.35
-12.95
-16.36
-19.41
-22.05
-24.45
-26.87
-29.67
-33.11
-37.21
-41.69
-45.85
-48.76
-49.42
-47.13
-41.72
-33.70
-24.03
-13.89
-4.31
4.02
10.75
15.83
19.27
21.13
21.52
20.67
18.95
16.85
14.89
13.44
12.75
12.78
13.36
14.29
15.37
16.55
17.79
19.03
20.11
20.77
20.74
19.89
18.27
16.10
13.69
11.21
8.76
6.24
3.53
0.60
-2.54
-5.77
-9.00
-12.20
-15.41
-18.73
-22.25
-26.04
-30.16
-34.68
-39.57
-44.69
-49.56
-53.44
-55.32
-54.26
-49.66
-41.58
-30.79
-18.56
-6.38
4.48
13.21
19.56
23.67
25.95
26.86
26.83
26.26
25.50
24.87
24.66
25.03
25.95
27.23
28.58
29.73
30.58
31.19
31.75
32.38
33.03
33.47
33.40
32.60
31.08
29.09
26.96
24.94
23.05
21.10
18.80
15.94
12.57
8.99
5.61
2.75
0.55
-1.15
-2.70
-4.50
-6.85
-9.82
-13.26
-16.90
-20.49
-23.88
-27.02
-30.02
-33.09
-36.49
-40.51
-45.33
-50.88
-56.76
-62.08
-65.73
-66.52
-63.65
-56.97
-47.04
-35.05
-22.42
-10.46
-0.08
8.22
14.35
18.44
20.82
21.87
22.09
21.98
21.96
22.34
23.18
24.42
25.88
27.41
28.89
30.29
31.60
32.81
33.91
34.85
35.60
36.04
36.07
35.58
34.46
32.68
30.29
27.47
24.50
21.65
19.17
17.10
15.29
13.45
11.33
8.84
6.11
3.42
1.01
-1.08
-3.06
-5.26
-7.99
-11.36
-15.23
-19.32
-23.30
-26.95
-30.18
-33.08
-35.90
-38.97
-42.67
-47.27
-52.73
-58.50
-63.54
-66.50
-66.15
-61.76
-53.45
-42.16
-29.35
-16.57
-5.10
4.34
11.53
16.58
19.80
21.52
22.08
21.83
21.11
20.33
19.82
19.82
20.42
21.54
22.98
24.55
26.08
27.54
28.94
30.30
31.55
32.56
33.07
32.86
31.76
29.72
26.82
23.26
19.36
15.50
12.10
9.46
7.70
6.72
6.21
5.72
4.89
3.48
1.49
-1.01
-3.85
-6.94
-10.21
-13.67
-17.32
-21.15
-25.26
-29.74
-34.74
-40.20
-45.74
-50.54
-53.45
-53.31
-49.36
-41.65
-31.06
-19.11
-7.44
2.62
10.39
15.79
19.14
20.87
21.33
20.82
19.55
17.82
15.91
14.11
12.67
11.74
11.42
11.77
12.82
14.54
16.74
19.17
21.46
23.21
24.11
23.95
22.69
20.52
17.75
14.76
11.77
8.84
5.81
2.40
-1.53
-5.96
-10.55
-14.91
-18.67
-21.74
-24.29
-26.73
-29.56
-33.18
-37.76
-43.10
-48.59
-53.22
-55.79
-55.16
-50.64
-42.26
-30.92
-18.09
-5.46
5.57
14.20
20.26
24.07
26.14
26.92
26.76
25.90
24.64
23.27
22.13
21.47
21.44
22.07
23.29
24.91
26.69
28.37
29.70
30.60
31.12
31.40
31.51
31.34
30.59
28.93
26.21
22.56
18.46
14.43
10.91
7.95
5.24
2.30
-1.32
-5.75
-10.78
-15.94
-20.77
-24.94
-28.48
-31.69
-35.10
-39.21
-44.37
-50.58
-57.40
-63.94
-68.97
-71.16
-69.50
-63.53
-53.60
-40.77
-26.54
-12.54
-0.08
9.98
17.30
22.03
24.62
25.71
26.01
26.14
26.51
27.32
28.58
30.12
31.76
33.37
34.89
36.35
37.83
39.41
41.11
42.83
44.39
45.51
45.93
45.45
44.01
41.71
38.79
35.54
32.24
29.08
26.10
23.26
20.44
17.53
14.50
11.40
8.33
5.39
2.64
0.08
-2.34
-4.67
-6.97
-9.33
-11.87
-14.70
-17.92
-21.53
-25.40
-29.30
-33.03
-36.50
-39.81
-43.26
-47.23
-52.09
-58.03
-64.84
-71.76
-77.60
-80.83
-80.02
-74.34
-63.85
-49.63
-33.48
-17.42
-3.19
8.14
16.23
21.34
24.10
25.24
25.44
25.30
25.24
25.61
26.55
28.07
30.02
32.15
34.19
35.89
37.22
38.25
39.13
40.05
41.06
42.05
42.77
42.94
42.25
40.64
38.19
35.16
31.94
28.86
26.13
23.74
21.50
19.15
16.49
13.44
10.10
6.69
3.42
0.47
-2.22
-4.79
-7.49
-10.54
-13.98
-17.69
-21.46
-25.10
-28.49
-31.68
-34.87
-38.33
-42.39
-47.36
-53.42
-60.41
-67.60
-73.72
-77.16
-76.43
-70.74
-60.29
-46.33
-30.73
-15.41
-1.90
8.97
16.94
22.20
25.17
26.40
26.49
26.05
25.67
25.73
26.45
27.84
29.75
31.95
34.20
36.31
38.16
39.75
41.17
42.46
43.60
44.38
44.54
43.82
42.15
39.63
36.54
33.16
29.76
26.48
23.36
20.39
17.52
14.67
11.79
8.84
5.84
2.86
-0.02
-2.73
-5.29
-7.79
-10.40
-13.28
-16.50
-20.04
-23.75
-27.42
-30.90
-34.12
-37.28
-40.74
-44.97
-50.31
-56.65
-63.33
-69.05
-72.22
-71.38
-65.75
-55.54
-41.95
-26.82
-12.05
0.83
10.98
18.21
22.75
25.01
25.47
24.62
23.03
21.33
20.12
19.77
20.38
21.79
23.68
25.75
27.83
29.82
31.71
33.44
34.91
35.97
36.50
36.40
35.62
34.14
31.94
29.05
25.54
21.58
17.40
13.19
9.13
5.28
1.64
-1.87
-5.32
-8.76
-12.18
-15.55
-18.77
-21.75
-24.47
-26.93
-29.26
-31.65
-34.44
-38.02
-42.72
-48.55
-54.94
-60.74
-64.34
-64.20
-59.33
-49.81
-36.77
-22.04
-7.61
4.92
14.70
21.54
25.72
27.71
27.99
27.05
25.37
23.46
21.81
20.84
20.79
21.73
23.52
25.91
28.56
31.15
33.42
35.18
36.34
36.85
36.70
35.90
34.48
32.50
30.07
27.29
24.26
21.02
17.55
13.87
10.04
6.19
2.53
-0.78
-3.68
-6.30
-8.90
-11.75
-15.02
-18.71
-22.69
-26.75
-30.69
-34.44
-38.03
-41.63
-45.52
-50.06
-55.47
-61.62
-67.77
-72.58
-74.40
-71.77
-64.01
-51.58
-36.01
-19.39
-3.80
9.23
18.97
25.38
28.92
30.33
30.41
29.95
29.52
29.48
29.90
30.68
31.64
32.66
33.73
34.92
36.33
37.98
39.78
41.54
43.02
43.99
44.30
43.90
42.82
41.08
38.74
35.80
32.33
28.49
24.57
20.91
17.77
15.18
12.95
10.76
8.32
5.47
2.30
-0.99
-4.13
-6.92
-9.33
-11.51
-13.68
-16.12
-19.05
-22.52
-26.42
-30.46
-34.36
-37.93
-41.18
-44.37
-47.89
-52.21
-57.63
-64.12
-71.17
-77.72
-82.30
-83.37
-79.79
-71.20
-58.23
-42.39
-25.63
-9.85
3.53
13.75
20.74
24.87
26.81
27.31
27.05
26.59
26.33
26.49
27.11
28.11
29.36
30.70
32.05
33.42
34.90
36.57
38.47
40.42
42.18
43.39
43.80
43.30
41.95
39.92
37.40
34.52
31.35
27.95
24.38
20.78
17.24
13.85
10.62
7.48
4.39
1.33
-1.58
-4.21
-6.44
-8.32
-10.06
-11.98
-14.42
-17.54
-21.33
-25.49
-29.69
-33.58
-37.05
-40.17
-43.30
-46.92
-51.50
-57.31
-64.13
-71.17
-77.07
-80.21
-79.12
-73.04
-62.17
-47.65
-31.28
-15.00
-0.42
11.41
20.08
25.66
28.54
29.32
28.69
27.38
26.08
25.28
25.29
26.13
27.65
29.58
31.62
33.54
35.21
36.60
37.74
38.76
39.70
40.51
41.04
41.01
40.20
38.50
35.99
32.94
29.68
26.52
23.59
20.84
18.09
15.12
11.86
8.34
4.74
1.34
-1.67
-4.21
-6.41
-8.52
-10.85
-13.64
-16.98
-20.78
-24.85
-28.91
-32.71
-36.13
-39.15
-41.99
-45.04
-48.80
-53.66
-59.67
-66.26
-72.17
-75.73
-75.28
-69.78
-59.27
-44.87
-28.54
-12.38
1.83
13.10
21.11
26.11
28.59
29.11
28.22
26.45
24.35
22.36
20.81
19.90
19.67
20.10
21.11
22.59
24.43
26.50
28.66
30.76
32.64
34.11
34.96
35.01
34.17
32.42
29.81
26.50
22.70
18.66
14.64
10.90
7.63
4.88
2.53
0.35
-1.99
-4.76
-8.06
-11.87
-15.96
-19.98
-23.64
-26.78
-29.46
-31.99
-34.82
-38.40
-43.06
-48.80
-55.20
-61.28
-65.65
-66.72
-63.25
-54.79
-42.00
-26.60
-10.79
3.36
14.53
22.35
27.18
29.72
30.55
30.04
28.45
26.09
23.41
20.99
19.28
18.54
18.74
19.70
21.22
23.07
25.10
27.14
29.02
30.54
31.55
31.90
31.53
30.39
28.51
25.95
22.80
19.22
15.39
11.49
7.62
3.83
0.09
-3.71
-7.65
-11.74
-15.89
-19.94
-23.72
-27.13
-30.24
-33.25
-36.47
-40.23
-44.83
-50.45
-56.98
-63.87
-70.08
-74.18
-74.65
-70.47
-61.45
-48.45
-33.07
-17.24
-2.60
9.77
19.42
26.35
30.77
33.00
33.39
32.47
30.82
29.11
27.85
27.36
27.69
28.63
29.95
31.41
32.95
34.62
36.51
38.59
40.72
42.59
43.81
44.09
43.29
41.51
38.97
36.02
32.95
29.91
26.93
23.90
20.61
16.91
12.81
8.46
4.18
0.20
-3.45
-6.97
-10.73
-14.96
-19.70
-24.67
-29.46
-33.73
-37.36
-40.53
-43.61
-47.03
-51.20
-56.37
-62.58
-69.46
-76.12
-81.20
-83.12
-80.60
-73.08
-61.02
-45.78
-29.20
-13.14
0.99
12.33
20.59
25.89
28.62
29.40
29.00
28.18
27.63
27.73
28.61
30.09
31.87
33.63
35.14
36.37
37.44
38.56
39.89
41.43
43.00
44.24
44.71
44.08
42.25
39.36
35.78
31.95
28.32
25.13
22.43
20.07
17.73
15.14
12.08
8.57
4.77
0.94
-2.70
-6.05
-9.18
-12.31
-15.59
-19.14
-22.88
-26.65
-30.26
-33.62
-36.77
-39.89
-43.29
-47.31
-52.30
-58.41
-65.43
-72.57
-78.45
-81.35
-79.67
-72.61
-60.47
-44.74
-27.56
-11.10
3.08
14.21
22.25
27.51
30.43
31.44
30.98
29.68
28.22
27.21
27.02
27.67
28.88
30.31
31.75
33.19
34.76
36.63
38.77
40.95
42.79
43.88
43.94
42.89
40.83
37.99
34.71
31.30
27.99
24.89
21.97
19.04
15.90
12.41
8.61
4.70
0.93
-2.46
-5.50
-8.35
-11.33
-14.66
-18.38
-22.31
-26.12
-29.53
-32.45
-35.09
-37.94
-41.59
-46.54
-52.93
-60.26
-67.38
-72.63
-74.23
-70.90
-62.30
-49.26
-33.54
-17.30
-2.51
9.57
18.46
24.34
27.69
29.03
28.79
27.35
25.13
22.63
20.38
18.77
17.98
17.97
18.53
19.49
20.74
22.33
24.36
26.84
29.56
32.09
33.84
34.28
33.08
30.24
26.19
21.55
16.97
12.91
9.46
6.36
3.16
-0.58
-5.05
-10.11
-15.33
-20.16
-24.16
-27.21
-29.54
-31.69
-34.37
-38.22
-43.59
-50.26
-57.34
-63.37
-66.59
-65.51
-59.40
-48.61
-34.41
-18.72
-3.47
9.87
20.46
28.06
32.78
34.96
34.98
33.36
30.75
27.86
25.38
23.72
23.02
23.14
23.80
24.72
25.79
27.04
28.54
30.33
32.28
34.10
35.43
35.89
35.21
33.28
30.18
26.16
21.61
16.92
12.43
8.23
4.25
0.24
-4.02
-8.66
-13.58
-18.54
-23.25
-27.47
-31.12
-34.35
-37.47
-40.95
-45.29
-50.83
-57.62
-65.10
-72.12
-77.03
-78.10
-74.09
-64.73
-50.90
-34.42
-17.52
-2.17
10.38
19.71
26.07
30.02
32.16
33.04
33.12
32.83
32.60
32.73
33.35
34.39
35.66
36.95
38.15
39.29
40.44
41.70
43.10
44.49
45.68
46.35
46.24
45.18
43.15
40.28
36.84
33.18
29.64
26.43
23.58
20.90
18.10
14.84
11.02
6.76
2.38
-1.70
-5.24
-8.24
-10.98
-13.89
-17.31
-21.36
-25.95
-30.79
-35.57
-40.08
-44.30
-48.41
-52.75
-57.79
-63.89
-71.08
-78.82
-85.86
-90.47
-90.85
-85.80
-75.13
-59.89
-42.00
-23.72
-7.02
6.84
17.34
24.57
28.95
31.05
31.52
31.09
30.49
30.32
30.95
32.40
34.37
36.47
38.37
39.94
41.30
42.67
44.22
45.95
47.67
49.03
49.65
49.27
47.77
45.26
41.99
38.33
34.63
31.17
28.10
25.42
23.03
20.76
18.39
15.75
12.72
9.31
5.67
2.06
-1.27
-4.12
-6.55
-8.79
-11.22
-14.18
-17.86
-22.21
-26.93
-31.66
-36.04
-39.89
-43.24
-46.36
-49.71
-53.85
-59.22
-65.90
-73.32
-80.26
-84.96
-85.62
-81.00
-70.83
-56.06
-38.58
-20.67
-4.40
8.86
18.58
24.96
28.56
30.08
30.18
29.44
28.34
27.31
26.73
26.81
27.62
29.06
30.94
33.04
35.16
37.19
39.09
40.81
42.31
43.41
43.93
43.62
42.33
40.05
36.99
33.54
30.11
27.02
24.37
21.98
19.50
16.63
13.18
9.29
5.34
1.75
-1.13
-3.31
-5.08
-6.94
-9.35
-12.54
-16.41
-20.63
-24.78
-28.57
-31.94
-35.08
-38.34
-42.16
-46.94
-52.85
-59.62
-66.43
-71.88
-74.26
-72.09
-64.69
-52.50
-37.02
-20.37
-4.61
8.78
19.10
26.29
30.70
32.79
32.98
31.74
29.55
26.96
24.49
22.58
21.50
21.37
22.16
23.72
25.79
28.12
30.47
32.71
34.70
36.33
37.43
37.76
37.08
35.25
32.31
28.48
24.12
19.66
15.41
11.55
8.09
4.90
1.78
-1.49
-5.07
-9.03
-13.33
-17.80
-22.20
-26.26
-29.82
-32.84
-35.56
-38.40
-41.93
-46.69
-52.90
-60.21
-67.57
-73.28
-75.42
-72.46
-63.85
-50.32
-33.78
-16.62
-1.08
11.44
20.49
26.39
29.79
31.30
31.39
30.44
28.90
27.32
26.22
25.96
26.59
27.89
29.56
31.33
33.11
34.93
36.83
38.78
40.63
42.11
42.88
42.68
41.35
38.94
35.63
31.82
27.91
24.25
21.01
18.11
15.32
12.39
9.22
5.86
2.51
-0.57
-3.25
-5.57
-7.75
-10.10
-12.92
-16.33
-20.26
-24.51
-28.78
-32.79
-36.46
-39.84
-43.19
-46.93
-51.50
-57.25
-64.21
-71.78
-78.76
-83.41
-83.99
-79.28
-69.07
-54.36
-37.04
-19.37
-3.31
9.84
19.58
26.02
29.64
31.06
30.95
30.00
28.82
27.88
27.49
27.77
28.64
29.98
31.61
33.37
35.17
36.93
38.60
40.12
41.35
42.13
42.31
41.78
40.56
38.74
36.44
33.82
30.97
27.99
24.92
21.82
18.74
15.71
12.73
9.77
6.83
3.90
1.02
-1.73
-4.26
-6.56
-8.71
-10.88
-13.36
-16.38
-20.06
-24.29
-28.77
-33.10
-36.96
-40.22
-43.03
-45.77
-48.96
-53.12
-58.54
-65.13
-72.15
-78.27
-81.78
-81.02
-74.97
-63.65
-48.27
-30.85
-13.63
1.50
13.47
21.99
27.40
30.30
31.36
31.17
30.28
29.20
28.37
28.10
28.50
29.53
30.96
32.56
34.16
35.67
37.09
38.44
39.77
41.02
42.09
42.77
42.83
42.07
40.40
37.93
34.90
31.67
28.55
25.76
23.27
20.89
18.33
15.38
12.02
8.42
4.88
1.69
-1.02
-3.33
-5.47
-7.72
-10.31
-13.32
-16.71
-20.33
-24.06
-27.75
-31.32
-34.72
-37.89
-40.88
-43.89
-47.28
-51.48
-56.82
-63.15
-69.68
-74.97
-77.29
-75.13
-67.78
-55.66
-40.15
-23.27
-7.06
6.88
17.68
25.09
29.36
31.02
30.70
29.14
27.04
25.02
23.56
22.91
23.11
23.95
25.20
26.59
28.02
29.50
31.13
32.92
34.76
36.36
37.27
37.17
35.89
33.56
30.52
27.15
23.76
20.50
17.47
14.71
12.34
10.38
8.74
7.14
5.23
2.73
-0.46
-4.18
-8.15
-12.04
-15.67
-18.98
-22.01
-24.85
-27.62
-30.56
-33.98
-38.31
-43.79
-50.30
-57.07
-62.74
-65.60
-64.13
-57.58
-46.38
-31.99
-16.51
-2.01
10.06
19.08
25.16
28.78
30.44
30.51
29.26
26.95
23.98
20.90
18.23
16.39
15.58
15.82
16.92
18.66
20.79
23.05
25.20
27.04
28.40
29.17
29.24
28.51
26.84
24.12
20.37
15.88
11.14
6.76
3.18
0.58
-1.31
-3.06
-5.29
-8.48
-12.68
-17.60
-22.63
-27.21
-30.97
-33.90
-36.33
-38.79
-41.88
-46.04
-51.46
-57.91
-64.67
-70.54
-74.01
-73.59
-68.34
-58.27
-44.33
-28.27
-12.09
2.50
14.41
23.21
29.07
32.45
33.90
34.01
33.26
32.11
30.96
30.10
29.75
29.96
30.67
31.66
32.77
33.90
35.08
36.46
38.11
39.86
41.34
42.05
41.61
39.90
37.19
33.93
30.60
27.45
24.46
21.39
18.01
14.20
10.04
5.79
1.72
-1.97
-5.28
-8.35
-11.37
-14.56
-18.02
-21.74
-25.64
-29.61
-33.52
-37.28
-40.86
-44.31
-47.85
-51.83
-56.61
-62.31
-68.54
-74.31
-78.08
-78.27
-73.74
-64.28
-50.69
-34.58
-17.92
-2.46
10.50
20.34
26.94
30.61
31.89
31.49
30.14
28.55
27.32
26.81
27.15
28.19
29.68
31.34
32.97
34.51
36.01
37.56
39.18
40.79
42.15
43.02
43.13
42.34
40.64
38.15
35.06
31.62
28.08
24.64
21.47
18.60
15.98
13.46
10.87
8.07
5.03
1.88
-1.18
-3.94
-6.37
-8.58
-10.88
-13.58
-16.87
-20.70
-24.82
-28.84
-32.50
-35.72
-38.67
-41.68
-45.13
-49.37
-54.58
-60.78
-67.62
-74.30
-79.54
-81.73
-79.42
-71.81
-59.21
-43.05
-25.47
-8.65
5.74
16.87
24.65
29.45
31.78
32.16
31.16
29.40
27.58
26.31
25.96
26.57
27.91
29.64
31.47
33.23
34.91
36.61
38.39
40.27
42.19
43.89
45.01
45.14
44.03
41.61
38.19
34.26
30.33
26.79
23.75
21.06
18.52
15.90
13.10
10.14
7.01
3.77
0.50
-2.68
-5.62
-8.19
-10.42
-12.51
-14.77
-17.50
-20.80
-24.57
-28.51
-32.30
-35.72
-38.78
-41.70
-44.86
-48.73
-53.69
-59.78
-66.59
-73.02
-77.43
-78.07
-73.58
-63.61
-49.07
-31.89
-14.44
1.13
13.52
22.31
27.81
30.65
31.46
30.80
29.13
26.98
24.89
23.36
22.67
22.82
23.66
24.92
26.47
28.24
30.27
32.51
34.81
36.91
38.50
39.32
39.22
38.23
36.43
34.00
31.11
27.95
24.66
21.34
18.05
14.75
11.41
8.03
4.67
1.40
-1.73
-4.77
-7.82
-10.97
-14.26
-17.56
-20.71
-23.55
-26.08
-28.45
-30.98
-34.01
-37.90
-42.90
-48.96
-55.63
-61.85
-66.13
-66.87
-62.90
-54.02
-41.11
-25.95
-10.67
2.98
13.90
21.82
26.97
29.78
30.62
29.81
27.64
24.58
21.19
18.06
15.62
14.09
13.44
13.56
14.34
15.73
17.62
19.85
22.11
23.98
25.10
25.27
24.46
22.75
20.29
17.20
13.60
9.63
5.44
1.17
-3.13
-7.47
-11.89
-16.36
-20.80
-25.02
-28.96
-32.76
-36.78
-41.50
-47.16
-53.49
-59.51
-63.68
-64.35
-60.36
-51.47
-38.60
-23.48
-8.19
5.51
16.54
24.58
29.85
32.75
33.67
32.86
30.60
27.27
23.42
19.71
16.75
14.95
14.44
15.08
16.50
18.32
20.15
21.73
22.92
23.65
23.88
23.51
22.47
20.63
17.92
14.29
9.80
4.61
-1.01
-6.70
-12.11
-16.99
-21.35
-25.40
-29.58
-34.38
-40.19
-47.05
-54.51
-61.57
-66.79
-68.65
-65.92
-58.17
-45.92
-30.59
-14.13
1.53
14.85
25.03
31.87
35.73
37.23
37.09
36.03
34.72
33.67
33.23
33.47
34.28
35.39
36.54
37.57
38.50
39.44
40.55
41.86
43.31
44.69
45.68
46.01
45.40
43.75
41.08
37.62
33.73
29.82
26.21
23.05
20.31
17.73
15.07
12.14
8.89
5.45
1.99
-1.28
-4.23
-6.86
-9.29
-11.74
-14.48
-17.73
-21.60
-25.99
-30.70
-35.41
-39.81
-43.71
-47.10
-50.23
-53.56
-57.69
-63.11
-69.86
-77.31
-84.01
-88.05
-87.52
-81.28
-69.42
-53.27
-35.04
-17.03
-1.08
11.85
21.54
28.24
32.31
34.11
34.04
32.67
30.79
29.22
28.64
29.34
31.17
33.66
36.22
38.40
40.05
41.26
42.29
43.35
44.50
45.58
46.27
46.21
45.17
43.10
40.18
36.76
33.20
29.77
26.56
23.49
20.42
17.23
13.88
10.47
7.11
3.94
0.99
-1.75
-4.37
-7.02
-9.88
-13.14
-16.93
-21.21
-25.81
-30.39
-34.62
-38.32
-41.53
-44.49
-47.66
-51.55
-56.63
-63.07
-70.56
-78.12
-84.11
-86.63
-84.04
-75.60
-61.86
-44.52
-25.93
-8.43
6.33
17.55
25.25
29.96
32.38
33.18
32.95
32.20
31.39
30.89
30.93
31.62
32.85
34.44
36.22
38.03
39.84
41.66
43.50
45.30
46.91
48.07
48.50
47.98
46.38
43.72
40.23
36.31
32.41
28.93
26.04
23.58
21.17
18.33
14.78
10.53
5.91
1.41
-2.53
-5.69
-8.14
-10.17
-12.18
-14.50
-17.34
-20.73
-24.55
-28.61
-32.69
-36.68
-40.54
-44.41
-48.53
-53.23
-58.80
-65.28
-72.22
-78.54
-82.61
-82.70
-77.55
-66.89
-51.66
-33.76
-15.49
1.13
14.76
24.85
31.46
35.01
36.06
35.26
33.36
31.15
29.31
28.31
28.26
29.01
30.20
31.51
32.76
33.94
35.16
36.55
38.18
39.98
41.74
43.15
43.82
43.44
41.87
39.16
35.61
31.69
27.86
24.47
21.63
19.25
17.05
14.73
12.06
8.97
5.61
2.25
-0.85
-3.50
-5.76
-7.88
-10.24
-13.13
-16.66
-20.73
-25.02
-29.16
-32.88
-36.13
-39.10
-42.27
-46.21
-51.46
-58.18
-65.94
-73.58
-79.36
-81.39
-78.28
-69.55
-55.90
-39.06
-21.20
-4.42
9.79
20.67
28.19
32.70
34.74
34.88
33.65
31.63
29.37
27.37
26.01
25.42
25.54
26.20
27.25
28.60
30.23
32.17
34.33
36.52
38.41
39.63
39.90
39.07
37.18
34.44
31.19
27.75
24.37
21.11
17.92
14.63
11.16
7.50
3.85
0.45
-2.54
-5.07
-7.38
-9.77
-12.58
-15.92
-19.67
-23.48
-27.01
-30.08
-32.69
-35.14
-37.85
-41.28
-45.75
-51.25
-57.31
-62.95
-66.80
-67.37
-63.57
-55.12
-42.69
-27.78
-12.29
2.04
13.96
22.87
28.71
31.71
32.30
30.96
28.24
24.70
20.87
17.22
14.08
11.65
10.10
9.53
9.98
11.43
13.64
16.26
18.84
20.94
22.24
22.61
22.09
20.82
18.98
16.66
13.84
10.50
6.55
2.04
-2.92
-8.10
-13.26
-18.20
-22.81
-27.12
-31.26
-35.50
-40.12
-45.38
-51.35
-57.70
-63.54
-67.49
-67.99
-63.81
-54.61
-41.12
-25.06
-8.57
6.41
18.59
27.54
33.41
36.68
37.83
37.25
35.32
32.47
29.25
26.19
23.75
22.12
21.32
21.18
21.47
22.10
23.04
24.37
26.10
28.06
29.82
30.81
30.47
28.52
25.11
20.76
16.17
11.83
7.85
3.93
-0.37
-5.37
-11.02
-16.87
-22.39
-27.16
-31.13
-34.63
-38.22
-42.49
-47.85
-54.37
-61.62
-68.57
-73.73
-75.42
-72.33
-63.95
-50.91
-34.74
-17.55
-1.30
12.55
23.25
30.62
34.89
36.52
36.16
34.56
32.54
30.83
29.84
29.71
30.27
31.23
32.36
33.54
34.79
36.20
37.84
39.61
41.29
42.56
43.09
42.67
41.35
39.33
36.88
34.25
31.48
28.44
24.98
20.98
16.50
11.76
7.07
2.66
-1.35
-5.06
-8.68
-12.45
-16.54
-20.89
-25.35
-29.67
-33.72
-37.48
-41.06
-44.70
-48.64
-53.17
-58.56
-64.89
-71.82
-78.43
-83.20
-84.34
-80.35
-70.70
-56.08
-38.33
-19.82
-2.73
11.48
22.28
29.76
34.43
36.78
37.33
36.55
35.00
33.23
31.74
30.81
30.55
30.90
31.76
33.01
34.59
36.39
38.30
40.21
41.99
43.46
44.42
44.61
43.82
41.98
39.23
35.88
32.32
28.83
25.44
21.98
18.23
14.07
9.64
5.28
1.38
-1.89
-4.61
-7.13
-9.87
-13.15
-17.03
-21.31
-25.66
-29.73
-33.34
-36.50
-39.39
-42.36
-45.83
-50.25
-55.92
-62.83
-70.38
-77.30
-81.83
-82.15
-76.98
-66.10
-50.56
-32.40
-14.03
2.44
15.67
25.22
31.29
34.43
35.25
34.34
32.32
29.80
27.41
25.65
24.77
24.80
25.61
27.02
28.95
31.37
34.23
37.41
40.62
43.47
45.63
46.81
46.93
45.97
44.00
41.12
37.44
33.12
28.45
23.75
19.35
15.53
12.39
9.89
7.87
6.05
4.09
1.67
-1.47
-5.46
-10.22
-15.48
-20.84
-25.93
-30.49
-34.54
-38.33
-42.36
-47.14
-52.98
-59.70
-66.41
-71.60
-73.45
-70.46
-62.00
-48.73
-32.39
-15.33
0.20
12.68
21.49
26.83
29.34
29.70
28.46
26.07
22.96
19.64
16.65
14.47
13.36
13.31
14.12
15.54
17.38
19.61
22.13
24.80
27.27
29.07
29.75
29.02
26.88
23.54
19.40
14.84
10.18
5.58
1.07
-3.41
-7.92
-12.46
-16.96
-21.25
-25.21
-28.77
-32.05
-35.38
-39.24
-44.09
-50.09
-56.87
-63.30
-67.73
-68.33
-63.83
-53.97
-39.73
-23.06
-6.29
8.61
20.46
28.95
34.38
37.33
38.33
37.78
36.04
33.50
30.63
27.94
25.89
24.75
24.62
25.42
26.91
28.77
30.69
32.38
33.66
34.47
34.76
34.51
33.59
31.82
29.04
25.25
20.73
15.93
11.43
7.63
4.64
2.19
-0.24
-3.19
-6.97
-11.59
-16.71
-21.89
-26.72
-30.94
-34.57
-37.82
-41.02
-44.63
-49.13
-54.88
-61.92
-69.72
-77.00
-81.95
-82.68
-77.87
-67.28
-51.94
-33.84
-15.31
1.56
15.38
25.59
32.28
35.95
37.29
37.05
35.99
34.80
33.99
33.87
34.47
35.63
37.07
38.50
39.73
40.72
41.62
42.65
43.98
45.60
47.17
48.19
48.10
46.54
43.58
39.64
35.38
31.37
27.92
24.93
22.06
18.89
15.15
10.85
6.21
1.60
-2.63
-6.30
-9.45
-12.33
-15.32
-18.77
-22.86
-27.49
-32.38
-37.10
-41.32
-44.88
-47.98
-51.05
-54.71
-59.51
-65.68
-72.84
-79.86
-84.96
-86.17
-82.01
-72.01
-57.01
-38.90
-20.10
-2.74
11.73
22.72
30.33
34.99
37.25
37.64
36.71
35.04
33.20
31.69
30.83
30.75
31.38
32.54
34.00
35.61
37.25
38.89
40.51
42.03
43.31
44.08
44.07
43.03
40.90
37.83
34.20
30.48
27.09
24.22
21.79
19.44
16.76
13.47
9.60
5.44
1.49
-1.87
-4.53
-6.77
-9.06
-11.93
-15.64
-20.17
-25.18
-30.21
-34.85
-38.88
-42.30
-45.35
-48.40
-51.98
-56.56
-62.40
-69.21
-75.96
-80.94
-82.18
-78.08
-68.12
-53.13
-35.10
-16.48
0.51
14.42
24.72
31.54
35.35
36.72
36.24
34.53
32.25
29.99
28.20
27.12
26.84
27.35
28.69
30.77
33.43
36.35
39.10
41.29
42.63
43.06
42.67
41.60
39.94
37.78
35.18
32.18
28.88
25.37
21.76
18.13
14.58
11.18
7.98
4.97
2.08
-0.81
-3.79
-6.88
-10.06
-13.21
-16.24
-19.07
-21.68
-24.12
-26.52
-29.10
-32.24
-36.33
-41.57
-47.67
-53.63
-57.80
-58.36
-53.92
-44.09
-29.74
-12.72
4.69
20.52
33.47
43.04
49.31
52.56
53.06
51.00
46.63
40.26
32.42
23.70
14.69
5.85
-2.54
-10.31
-17.30
-23.35
-28.24
-31.76
-33.77
-34.22
-33.10
-30.49
-26.54
-21.57
-16.04
-10.55
-5.69
-1.91
0.60
1.83
1.96
1.16
-0.39
-2.58
-5.25
-8.22
-11.36
-14.62
-18.13
-22.09
-26.57
-31.35
-35.72
-38.62
-38.87
-35.62
-28.65
-18.55
-6.50
6.02
17.66
27.41
34.79
39.72
42.42
43.14
42.14
39.62
35.83
31.12
26.02
21.20
17.28
14.78
13.90
14.48
16.12
18.32
20.55
22.36
23.34
23.05
21.13
17.26
11.44
3.98
-4.39
-12.64
-19.64
-24.44
-26.60
-26.35
-24.69
-23.15
-23.32
-26.27
-32.00
-39.24
-45.77
-49.28
-48.22
-42.44
-33.24
-22.72
-13.02
-5.50
-0.56
2.18
3.36
3.53
2.98
1.87
0.33
-1.40
-3.03
-4.31
-5.08
-5.19
-4.41
-2.48
0.92
5.89
12.21
19.24
25.98
31.31
34.22
34.09
30.84
24.92
17.23
8.81
0.63
-6.66
-12.86
-18.29
-23.64
-29.78
-37.32
-46.18
-55.42
-63.21
-67.38
-66.08
-58.50
-45.22
-28.04
-9.50
7.96
22.48
33.16
39.97
43.46
44.49
43.95
42.65
41.24
40.17
39.64
39.69
40.09
40.53
40.71
40.51
40.02
39.57
39.54
40.11
41.28
42.67
43.81
44.18
43.45
41.51
38.43
34.48
29.95
25.19
20.41
15.74
11.19
6.66
2.10
-2.53
-7.15
-11.65
-15.86
-19.69
-23.12
-26.22
-29.19
-32.29
-35.79
-39.78
-44.21
-48.76
-53.07
-56.88
-60.19
-63.31
-66.78
-71.15
-76.74
-83.34
-90.09
-95.51
-97.75
-95.11
-86.62
-72.38
-53.68
-32.66
-11.71
7.14
22.56
33.99
41.52
45.55
46.77
45.92
43.85
41.41
39.25
37.80
37.18
37.30
37.94
38.88
39.94
41.03
42.18
43.40
44.72
46.00
46.97
47.27
46.53
44.61
41.62
37.96
34.12
30.53
27.36
24.48
21.50
18.04
13.86
9.01
3.81
-1.33
-6.02
-10.14
-13.81
-17.37
-21.18
-25.42
-30.06
-34.85
-39.46
-43.62
-47.31
-50.68
-54.11
-58.09
-63.11
-69.49
-77.10
-85.18
-92.25
-96.31
-95.36
-88.05
-74.24
-55.19
-33.26
-11.22
8.50
24.38
35.91
43.39
47.53
49.13
48.88
47.45
45.46
43.52
42.09
41.39
41.33
41.63
41.96
42.17
42.33
42.73
43.57
44.98
46.77
48.50
49.65
49.74
48.53
46.04
42.54
38.45
34.22
30.17
26.42
22.86
19.24
15.29
10.92
6.25
1.64
-2.57
-6.17
-9.25
-12.19
-15.43
-19.31
-23.83
-28.70
-33.44
-37.66
-41.22
-44.32
-47.42
-51.14
-56.02
-62.34
-69.87
-77.72
-84.30
-87.65
-85.97
-78.22
-64.67
-46.83
-27.08
-7.86
8.96
22.38
32.24
38.82
42.52
43.76
42.98
40.80
38.00
35.38
33.48
32.52
32.36
32.72
33.34
34.12
35.10
36.35
37.84
39.41
40.81
41.77
42.09
41.60
40.28
38.15
35.30
31.89
28.05
23.91
19.52
14.99
10.44
6.02
1.79
-2.32
-6.48
-10.91
-15.70
-20.75
-25.79
-30.50
-34.67
-38.31
-41.62
-44.88
-48.46
-52.64
-57.68
-63.58
-69.90
-75.65
-79.26
-79.04
-73.65
-62.75
-47.23
-29.02
-10.51
6.20
19.71
29.51
35.79
39.07
39.95
39.04
36.94
34.26
31.57
29.28
27.59
26.47
25.84
25.60
25.75
26.28
27.16
28.21
29.13
29.65
29.55
28.78
27.40
25.51
23.16
20.30
16.82
12.63
7.76
2.37
-3.26
-8.83
-14.05
-18.75
-22.91
-26.72
-30.56
-34.94
-40.31
-46.83
-54.06
-60.90
-65.69
-66.65
-62.47
-52.86
-38.71
-21.93
-4.83
10.52
22.79
31.48
36.77
39.14
39.08
37.02
33.39
28.76
23.81
19.24
15.59
13.07
11.61
10.91
10.79
11.23
12.34
14.28
16.95
19.92
22.41
23.56
22.75
19.83
15.21
9.70
4.16
-0.76
-4.91
-8.62
-12.52
-17.30
-23.44
-30.96
-39.32
-47.38
-53.61
-56.40
-54.55
-47.63
-36.23
-21.83
-6.40
8.15
20.39
29.57
35.56
38.59
39.07
37.47
34.28
30.03
25.27
20.48
16.03
12.17
9.03
6.75
5.48
5.25
6.02
7.48
9.18
10.53
10.98
10.19
8.06
4.75
0.64
-3.80
-8.19
-12.30
-16.16
-20.08
-24.57
-30.08
-36.73
-43.98
-50.56
-54.71
-54.72
-49.58
-39.39
-25.47
-9.88
5.17
17.93
27.47
33.58
36.59
37.02
35.38
32.08
27.53
22.18
16.58
11.28
6.86
3.75
2.16
2.01
2.97
4.49
5.98
6.96
7.14
6.44
4.95
2.82
0.14
-3.04
-6.73
-10.95
-15.75
-21.25
-27.57
-34.71
-42.35
-49.61
-55.06
-57.04
-54.19
-46.05
-33.29
-17.66
-1.40
13.37
25.17
33.37
38.02
39.62
38.80
36.20
32.43
28.06
23.63
19.56
16.17
13.59
11.80
10.73
10.26
10.30
10.69
11.24
11.64
11.53
10.54
8.44
5.20
1.04
-3.61
-8.38
-12.98
-17.49
-22.26
-27.88
-34.81
-43.08
-51.99
-60.05
-65.28
-65.78
-60.35
-49.04
-33.18
-15.04
2.83
18.33
30.20
38.13
42.52
44.08
43.65
41.96
39.62
37.18
35.04
33.48
32.58
32.30
32.51
33.09
33.93
34.93
36.01
37.06
37.96
38.58
38.82
38.53
37.59
35.87
33.33
30.01
26.08
21.76
17.29
12.83
8.47
4.23
0.10
-3.93
-7.91
-11.88
-15.92
-20.07
-24.28
-28.46
-32.47
-36.15
-39.50
-42.66
-46.00
-49.98
-55.11
-61.70
-69.53
-77.69
-84.55
-88.13
-86.59
-78.98
-65.59
-47.96
-28.39
-9.31
7.41
20.70
30.27
36.35
39.40
39.98
38.71
36.32
33.57
31.19
29.69
29.27
29.84
31.07
32.63
34.28
35.93
37.67
39.55
41.53
43.33
44.55
44.78
43.77
41.58
38.50
34.96
31.27
27.57
23.83
19.95
15.91
11.80
7.79
4.04
0.65
-2.40
-5.28
-8.25
-11.56
-15.41
-19.82
-24.63
-29.53
-34.22
-38.54
-42.58
-46.64
-51.17
-56.61
-63.14
-70.50
-77.88
-83.90
-86.83
-85.01
-77.46
-64.31
-46.87
-27.38
-8.28
8.38
21.45
30.67
36.42
39.30
39.89
38.62
35.95
32.48
28.96
26.16
24.62
24.49
25.50
27.14
28.90
30.49
31.91
33.30
34.80
36.29
37.40
37.65
36.61
34.14
30.39
25.79
20.93
16.30
12.21
8.64
5.32
1.83
-2.16
-6.78
-11.83
-16.89
-21.52
-25.38
-28.41
-30.86
-33.18
-35.94
-39.65
-44.62
-50.74
-57.31
-62.98
-66.05
-64.92
-58.67
-47.53
-32.80
-16.53
-0.84
12.60
22.96
30.06
34.15
35.57
34.65
31.74
27.32
22.11
16.89
12.47
9.41
7.96
8.00
9.18
11.00
12.98
14.81
16.32
17.55
18.52
19.14
19.06
17.82
14.99
10.49
4.71
-1.65
-7.72
-12.92
-17.15
-20.77
-24.50
-29.09
-35.04
-42.42
-50.76
-58.97
-65.57
-68.88
-67.54
-60.89
-49.31
-34.13
-17.33
-0.97
13.33
24.62
32.58
37.36
39.29
38.80
36.35
32.53
28.03
23.57
19.81
17.21
15.91
15.74
16.31
17.17
18.01
18.72
19.36
19.95
20.36
20.21
18.95
16.13
11.63
5.74
-0.91
-7.57
-13.67
-18.99
-23.63
-28.01
-32.71
-38.31
-45.19
-53.35
-62.12
-70.14
-75.59
-76.68
-72.23
-62.12
-47.40
-29.98
-12.11
4.27
17.90
28.22
35.31
39.55
41.44
41.52
40.38
38.60
36.75
35.33
34.61
34.66
35.38
36.63
38.27
40.24
42.44
44.71
46.75
48.18
48.68
48.06
46.35
43.70
40.39
36.64
32.59
28.31
23.85
19.26
14.65
10.15
5.85
1.79
-2.09
-5.92
-9.83
-13.95
-18.28
-22.79
-27.34
-31.82
-36.09
-40.12
-44.02
-48.05
-52.67
-58.41
-65.62
-74.17
-83.11
-90.71
-94.78
-93.30
-85.20
-70.83
-51.93
-31.12
-11.11
5.99
19.13
28.21
33.79
36.72
37.85
37.91
37.53
37.22
37.34
38.10
39.60
41.76
44.38
47.17
49.83
52.10
53.89
55.31
56.51
57.57
58.36
58.50
57.56
55.26
51.63
47.09
42.24
37.64
33.65
30.31
27.40
24.62
21.65
18.30
14.52
10.44
6.28
2.31
-1.23
-4.25
-6.84
-9.25
-11.80
-14.84
-18.56
-22.96
-27.88
-32.96
-37.88
-42.37
-46.40
-50.15
-54.05
-58.69
-64.63
-72.04
-80.45
-88.56
-94.38
-95.74
-91.00
-79.72
-62.88
-42.70
-21.89
-2.91
12.62
24.07
31.60
35.81
37.48
37.38
36.27
34.92
33.96
33.82
34.66
36.34
38.53
40.82
42.88
44.53
45.75
46.66
47.49
48.35
49.16
49.61
49.26
47.70
44.82
40.90
36.51
32.27
28.63
25.63
22.98
20.20
16.93
13.07
8.86
4.74
1.12
-1.82
-4.23
-6.50
-9.09
-12.32
-16.20
-20.52
-24.92
-29.08
-32.82
-36.18
-39.36
-42.75
-46.85
-52.12
-58.83
-66.71
-74.78
-81.39
-84.55
-82.53
-74.49
-60.81
-43.12
-23.82
-5.37
10.28
22.10
29.96
34.34
36.05
35.90
34.62
32.84
31.09
29.84
29.42
29.93
31.28
33.22
35.43
37.68
39.80
41.70
43.26
44.33
44.76
44.37
43.06
40.86
37.87
34.27
30.27
26.07
21.81
17.57
13.39
9.35
5.52
1.99
-1.25
-4.24
-7.17
-10.24
-13.58
-17.20
-20.96
-24.68
-28.24
-31.61
-34.92
-38.39
-42.29
-46.92
-52.45
-58.69
-64.91
-69.76
-71.56
-68.77
-60.67
-47.68
-31.36
-13.99
2.18
15.48
25.13
31.15
34.05
34.48
33.08
30.44
27.21
24.06
21.63
20.35
20.35
21.44
23.21
25.25
27.27
29.15
30.86
32.40
33.66
34.49
34.72
34.18
32.82
30.61
27.58
23.85
19.58
15.07
10.69
6.76
3.45
0.69
-1.81
-4.45
-7.56
-11.23
-15.28
-19.30
-22.85
-25.67
-27.79
-29.56
-31.57
-34.50
-38.85
-44.72
-51.57
-58.25
-63.08
-64.38
-60.93
-52.47
-39.81
-24.63
-8.96
5.38
17.13
25.73
31.16
33.67
33.66
31.65
28.25
24.21
20.30
17.16
15.21
14.57
15.10
16.50
18.45
20.65
22.92
25.12
27.11
28.72
29.67
29.61
28.27
25.56
21.67
17.06
12.29
7.83
3.86
0.24
-3.38
-7.32
-11.71
-16.36
-20.92
-25.01
-28.40
-31.14
-33.54
-36.04
-39.17
-43.34
-48.67
-54.83
-60.88
-65.36
-66.60
-63.22
-54.69
-41.63
-25.72
-9.20
5.80
17.83
26.30
31.45
33.92
34.41
33.50
31.60
29.09
26.36
23.86
22.02
21.16
21.38
22.53
24.29
26.26
28.10
29.60
30.74
31.55
32.11
32.36
32.13
31.16
29.23
26.23
22.26
17.63
12.76
8.07
3.81
0.04
-3.41
-6.82
-10.45
-14.40
-18.59
-22.74
-26.54
-29.80
-32.52
-34.95
-37.48
-40.59
-44.69
-50.00
-56.48
-63.59
-70.26
-74.97
-76.10
-72.37
-63.40
-49.88
-33.47
-16.33
-0.51
12.56
22.22
28.51
31.91
33.02
32.50
30.92
28.87
26.90
25.47
24.90
25.26
26.41
28.07
29.96
31.86
33.67
35.35
36.84
38.00
38.61
38.47
37.44
35.55
32.94
29.79
26.26
22.50
18.57
14.53
10.45
6.42
2.53
-1.14
-4.51
-7.62
-10.53
-13.43
-16.53
-19.97
-23.74
-27.65
-31.45
-34.93
-38.04
-41.03
-44.34
-48.47
-53.77
-60.22
-67.17
-73.41
-77.27
-77.12
-71.83
-61.28
-46.50
-29.35
-12.07
3.41
15.85
24.82
30.50
33.44
34.30
33.75
32.46
31.00
29.87
29.32
29.39
29.96
30.85
31.92
33.16
34.61
36.23
37.91
39.39
40.40
40.70
40.13
38.68
36.44
33.61
30.42
27.11
23.83
20.60
17.30
13.77
9.90
5.71
1.42
-2.73
-6.53
-9.98
-13.25
-16.58
-20.19
-24.09
-28.16
-32.21
-36.09
-39.71
-43.17
-46.67
-50.48
-54.92
-60.22
-66.32
-72.66
-78.06
-80.88
-79.48
-72.82
-60.94
-45.09
-27.36
-10.03
5.07
16.91
25.33
30.69
33.58
34.60
34.27
33.10
31.58
30.20
29.31
29.15
29.73
30.95
32.66
34.68
36.85
38.97
40.82
42.15
42.71
42.37
41.15
39.19
36.74
33.97
30.99
27.81
24.36
20.60
16.56
12.32
8.05
3.90
0.02
-3.50
-6.67
-9.61
-12.52
-15.63
-19.11
-23.00
-27.19
-31.40
-35.38
-38.97
-42.23
-45.53
-49.42
-54.46
-60.89
-68.27
-75.41
-80.43
-81.37
-76.77
-66.34
-51.12
-33.15
-14.82
1.80
15.45
25.70
32.67
36.76
38.40
38.04
36.23
33.64
30.98
28.85
27.59
27.24
27.70
28.77
30.30
32.15
34.18
36.20
37.97
39.25
39.88
39.78
39.01
37.66
35.83
33.58
30.93
27.87
24.43
20.63
16.55
12.31
8.05
3.95
0.10
-3.45
-6.79
-10.06
-13.47
-17.17
-21.16
-25.30
-29.32
-32.97
-36.13
-39.02
-42.10
-46.05
-51.45
-58.41
-66.30
-73.64
-78.41
-78.63
-73.04
-61.58
-45.49
-26.94
-8.33
8.32
21.75
31.53
37.82
41.02
41.65
40.28
37.54
34.12
30.70
27.84
25.83
24.75
24.49
24.85
25.71
26.99
28.64
30.56
32.60
34.46
35.86
36.50
36.23
35.01
32.94
30.15
26.79
23.05
19.11
15.16
11.41
7.93
4.73
1.63
-1.59
-5.13
-9.08
-13.35
-17.73
-21.88
-25.54
-28.58
-31.05
-33.26
-35.72
-39.05
-43.80
-50.11
-57.45
-64.51
-69.42
-70.24
-65.69
-55.64
-41.21
-24.43
-7.59
7.42
19.53
28.36
34.08
37.01
37.48
35.82
32.49
28.11
23.42
19.15
15.90
13.95
13.31
13.77
15.05
16.87
19.09
21.60
24.34
27.08
29.44
30.89
30.97
29.40
26.30
22.11
17.45
12.95
8.95
5.40
1.97
-1.79
-6.21
-11.30
-16.79
-22.21
-27.11
-31.24
-34.62
-37.47
-40.23
-43.37
-47.40
-52.64
-59.04
-65.84
-71.63
-74.49
-72.64
-65.10
-52.15
-35.40
-17.24
-0.08
14.27
25.02
32.21
36.30
37.82
37.12
34.47
30.19
24.87
19.25
14.19
10.38
8.28
7.98
9.30
11.76
14.77
17.72
20.10
21.66
22.38
22.40
21.86
20.74
18.86
15.90
11.64
6.09
-0.43
-7.37
-14.14
-20.29
-25.63
-30.29
-34.64
-39.23
-44.63
-51.25
-59.06
-67.45
-75.08
-80.15
-80.86
-75.97
-65.26
-49.71
-31.24
-12.17
5.37
19.85
30.51
37.28
40.58
41.18
39.93
37.67
35.05
32.50
30.25
28.44
27.25
26.91
27.63
29.41
31.92
34.55
36.63
37.63
37.41
36.19
34.35
32.16
29.59
26.39
22.16
16.68
10.00
2.54
-5.14
-12.50
-19.18
-25.16
-30.63
-35.94
-41.51
-47.72
-54.86
-62.97
-71.62
-79.73
-85.61
-87.28
-83.08
-72.32
-55.74
-35.36
-14.00
5.64
21.64
33.26
40.72
44.83
46.51
46.50
45.42
43.81
42.23
41.19
41.06
41.97
43.73
45.95
48.23
50.29
52.07
53.67
55.18
56.57
57.66
58.14
57.76
56.39
54.11
51.12
47.66
43.92
40.06
36.16
32.33
28.63
25.03
21.44
17.69
13.61
9.18
4.56
0.10
-3.86
-7.10
-9.71
-12.04
-14.60
-17.87
-22.06
-27.09
-32.67
-38.39
-43.92
-49.10
-53.91
-58.54
-63.36
-68.94
-75.94
-84.77
-95.10
-105.58
-113.86
-117.14
-113.15
-101.04
-81.81
-58.06
-33.14
-10.04
9.23
23.92
34.16
40.55
43.77
44.53
43.59
41.88
40.33
39.68
40.26
41.94
44.28
46.77
49.07
51.07
52.89
54.70
56.59
58.46
60.05
61.04
61.12
60.11
58.00
54.88
50.99
46.57
41.90
37.23
32.76
28.61
24.77
21.13
17.50
13.70
9.65
5.43
1.29
-2.52
-5.87
-8.88
-11.91
-15.42
-19.75
-24.93
-30.69
-36.54
-42.02
-46.89
-51.21
-55.39
-60.04
-65.85
-73.30
-82.35
-92.21
-101.13
-106.75
-106.66
-99.24
-84.34
-63.50
-39.48
-15.45
5.88
22.89
35.10
42.85
46.87
48.00
47.03
44.76
42.05
39.76
38.53
38.67
40.12
42.41
45.03
47.52
49.70
51.63
53.49
55.43
57.33
58.83
59.38
58.51
56.01
52.05
47.14
41.97
37.11
32.86
29.20
25.83
22.34
18.40
13.85
8.79
3.53
-1.46
-5.72
-8.94
-11.17
-12.76
-14.32
-16.48
-19.57
-23.55
-28.02
-32.44
-36.46
-40.08
-43.63
-47.73
-53.00
-59.90
-68.40
-77.86
-86.81
-93.17
-94.65
-89.52
-77.21
-58.74
-36.46
-13.41
7.60
24.64
36.96
44.75
48.73
49.78
48.67
46.10
42.75
39.27
36.29
34.25
33.37
33.59
34.67
36.33
38.36
40.60
43.01
45.50
47.90
49.94
51.23
51.40
50.17
47.48
43.56
38.87
34.00
29.45
25.52
22.17
19.10
15.87
12.10
7.65
2.72
-2.22
-6.60
-10.02
-12.44
-14.26
-16.13
-18.69
-22.29
-26.81
-31.76
-36.50
-40.54
-43.80
-46.60
-49.57
-53.40
-58.65
-65.51
-73.63
-81.97
-88.88
-92.31
-90.40
-82.05
-67.39
-47.87
-25.91
-4.24
14.85
29.90
40.41
46.65
49.28
49.05
46.65
42.76
38.03
33.15
28.82
25.62
23.96
23.93
25.35
27.86
30.96
34.21
37.29
39.91
41.84
42.86
42.81
41.59
39.22
35.85
31.71
27.03
21.98
16.71
11.33
5.98
0.80
-4.11
-8.69
-13.03
-17.29
-21.62
-26.10
-30.67
-35.11
-39.16
-42.67
-45.59
-48.14
-50.73
-53.93
-58.30
-64.24
-71.68
-79.82
-87.10
-91.40
-90.65
-83.50
-69.90
-51.22
-29.88
-8.67
10.00
24.64
34.82
40.96
44.00
44.90
44.39
42.84
40.24
36.44
31.27
24.75
17.15
8.95
0.84
-6.31
-11.55
-13.93
-12.76
-7.80
0.56
11.42
23.62
36.08
47.94
58.71
68.10
75.93
82.07
86.41
88.88
89.44
88.01
84.45
78.64
70.61
60.66
49.35
37.41
25.52
14.17
3.55
-6.51
-16.46
-27.02
-38.96
-52.89
-68.97
-86.61
-104.34
-119.97
-131.00
-135.36
-132.11
-121.81
-106.46
-88.81
-71.66
-56.99
-45.83
-38.44
-34.79
-34.91
-38.87
-46.38
-56.37
-66.88
-75.47
-79.98
-79.29
-73.81
-65.31
-56.45
-49.86
-47.38
-49.56
-55.52
-63.51
-71.55
-78.24
-83.04
-86.18
-88.05
-88.55
-86.90
-81.91
-72.60
-58.79
-41.17
-20.96
0.65
22.88
45.43
68.30
91.62
115.61
140.47
166.13
191.77
215.65
235.26
248.28
253.76
252.97
249.27
246.91
249.20
257.13
269.03
281.48
290.84
294.65
292.26
284.54
273.07
259.30
244.22
228.39
212.10
195.59
178.85
161.46
142.45
120.67
95.38
66.76
36.11
5.29
-24.18
-52.04
-79.49
-108.53
-140.51
-174.82
-208.52
-237.26
-257.10
-266.13
-265.37
-258.07
-248.07
-238.27
-229.72
-221.92
-213.83
-204.78
-194.89
-184.79
-175.01
-165.56
-155.92
-145.47
-133.93
-121.59
-109.28
-97.91
-88.11
-79.89
-72.74
-65.92
-58.85
-51.48
-44.24
-37.85
-32.95
-29.82
-28.29
-27.88
-28.08
-28.54
-29.17
-30.07
-31.29
-32.68
-33.79
-33.98
-32.53
-28.94
-23.09
-15.32
-6.37
2.81
11.36
18.62
24.26
28.20
30.54
31.45
31.17
29.99
28.28
26.38
24.56
22.94
21.53
20.23
19.02
17.91
17.00
16.40
16.11
15.99
15.73
14.98
13.38
10.82
7.47
3.78
0.36
-2.23
-3.62
-3.69
-2.33
0.58
5.22
11.65
19.62
28.51
37.60
46.39
54.79
63.05
71.40
79.76
87.68
94.56
100.03
104.03
106.75
108.23
108.16
105.97
101.22
94.03
85.20
76.02
67.65
60.74
55.23
50.53
45.96
41.00
35.55
29.69
23.56
17.16
10.45
3.51
-3.25
-9.15
-13.52
-16.18
-17.72
-19.36
-22.51
-28.11
-36.21
-45.98
-56.06
-65.13
-72.25
-77.03
-79.40
-79.47
-77.45
-73.84
-69.50
-65.50
-62.72
-61.33
-60.62
-59.32
-56.34
-51.47
-45.54
-39.92
-35.63
-32.66
-29.89
-25.79
-19.42
-11.10
-2.37
4.72
8.45
8.04
3.66
-4.01
-14.20
-26.28
-39.48
-52.70
-64.34
-72.64
-76.31
-75.11
-70.00
-62.88
-55.83
-50.29
-46.56
-43.73
-40.24
-34.72
-26.66
-16.75
-6.58
2.15
8.38
12.07
13.93
14.89
15.47
15.56
14.79
13.06
10.83
8.94
8.03
7.95
7.63
5.69
1.21
-5.63
-13.63
-21.21
-27.27
-31.65
-34.97
-38.08
-41.40
-44.75
-47.70
-50.08
-52.30
-55.26
-59.90
-66.72
-75.66
-86.10
-97.09
-107.46
-115.85
-120.77
-120.81
-115.05
-103.49
-87.17
-68.04
-48.43
-30.47
-15.67
-4.74
2.27
5.75
6.30
4.58
1.34
-2.44
-5.51
-6.51
-4.44
0.74
7.87
14.85
19.60
21.08
19.85
17.81
17.16
19.25
24.05
30.48
37.24
43.75
50.19
56.88
63.45
68.28
69.03
63.81
52.38
36.81
20.90
8.90
3.98
7.31
17.87
33.23
50.48
67.12
81.49
92.69
100.33
104.27
104.56
101.41
95.39
87.37
78.47
69.78
62.14
55.96
51.16
47.30
43.85
40.32
36.43
32.12
27.51
22.80
18.33
14.42
11.27
8.71
6.17
2.72
-2.53
-10.07
-19.76
-30.93
-42.68
-54.18
-64.67
-73.22
-78.50
-78.85
-72.77
-59.61
-40.12
-16.37
8.76
32.51
52.94
69.24
81.56
90.53
96.85
101.01
103.26
103.72
102.52
99.92
96.26
91.94
87.32
82.66
78.08
73.57
69.05
64.44
59.70
54.90
50.14
45.53
41.11
36.74
32.11
26.83
20.50
12.99
4.40
-4.82
-14.12
-22.91
-30.85
-37.84
-44.08
-50.01
-56.22
-63.39
-71.99
-82.03
-92.74
-102.39
-108.62
-109.01
-102.00
-87.45
-66.91
-43.13
-19.23
2.19
19.55
32.41
41.08
46.24
48.63
48.89
47.71
45.74
43.68
42.15
41.57
42.13
43.68
45.88
48.28
50.50
52.37
53.90
55.21
56.31
57.02
56.98
55.73
53.00
48.81
43.48
37.51
31.44
25.66
20.36
15.51
10.84
5.98
0.52
-5.83
-13.04
-20.72
-28.18
-34.72
-39.87
-43.71
-46.84
-50.21
-54.82
-61.45
-70.27
-80.73
-91.36
-100.03
-104.38
-102.46
-93.37
-77.67
-57.29
-34.99
-13.60
4.66
18.57
27.91
33.20
35.33
35.31
34.10
32.49
31.09
30.18
29.85
29.99
30.45
31.10
31.88
32.86
34.15
35.80
37.77
39.86
41.74
42.99
43.23
42.22
39.90
36.41
32.02
26.99
21.48
15.47
8.87
1.61
-6.26
-14.41
-22.35
-29.57
-35.73
-40.86
-45.46
-50.40
-56.68
-64.98
-75.26
-86.46
-96.55
-103.06
-103.85
-97.90
-85.69
-69.07
-50.64
-32.93
-17.81
-6.31
1.27
5.04
5.38
2.80
-1.95
-8.06
-14.71
-21.35
-27.59
-33.02
-36.93
-38.37
-36.58
-31.43
-23.66
-14.63
-5.69
2.45
9.84
16.89
23.75
30.03
35.06
38.59
41.32
44.82
50.80
60.07
72.05
84.96
96.59
105.34
110.72
113.25
114.01
114.17
114.62
115.86
117.87
120.08
121.22
119.54
113.21
100.90
82.33
58.49
31.51
4.32
-19.96
-38.58
-49.70
-52.84
-49.06
-40.82
-31.31
-23.58
-19.65
-19.99
-23.66
-28.86
-33.72
-36.87
-37.86
-37.01
-35.10
-33.02
-31.55
-31.25
-32.42
-35.18
-39.39
-44.65
-50.35
-55.79
-60.42
-63.99
-66.66
-68.91
-71.38
-74.63
-78.92
-84.12
-89.71
-94.88
-98.75
-100.69
-100.56
-98.74
-95.84
-92.21
-87.53
-80.78
-70.69
-56.49
-38.52
-18.40
1.45
18.70
31.91
40.89
46.46
49.86
52.13
53.79
54.94
55.56
55.80
56.08
56.95
58.75
61.30
63.91
65.59
65.49
63.31
59.49
54.96
50.68
47.12
43.94
40.22
34.95
27.47
17.84
6.70
-4.96
-15.96
-25.08
-31.17
-33.40
-31.58
-26.35
-19.12
-11.53
-4.81
0.63
5.14
9.35
13.46
17.02
19.12
18.92
16.25
11.73
6.48
1.67
-1.94
-4.09
-4.96
-4.81
-3.84
-2.08
0.44
3.55
6.80
9.54
11.07
10.94
9.13
6.10
2.65
-0.40
-2.42
-3.18
-2.88
-2.03
-1.33
-1.55
-3.43
-7.41
-13.41
-20.54
-27.18
-31.35
-31.32
-26.29
-16.67
-4.02
9.57
22.11
32.22
39.29
43.35
44.80
44.13
41.82
38.28
33.77
28.51
22.64
16.36
9.88
3.49
-2.52
-7.95
-12.67
-16.65
-19.81
-22.11
-23.51
-24.05
-23.97
-23.67
-23.66
-24.41
-26.18
-29.04
-32.96
-37.85
-43.65
-50.06
-56.41
-61.57
-64.08
-62.62
-56.53
-46.14
-32.84
-18.63
-5.49
5.14
12.62
17.04
18.88
18.76
17.19
14.57
11.23
7.62
4.27
1.76
0.52
0.71
2.08
4.07
5.96
7.14
7.30
6.45
4.82
2.73
0.39
-2.15
-5.06
-8.61
-13.13
-18.96
-26.26
-34.85
-44.01
-52.45
-58.53
-60.70
-57.97
-50.37
-38.96
-25.52
-12.09
-0.34
8.73
14.83
18.22
19.44
19.10
17.74
15.89
14.00
12.51
11.68
11.69
12.43
13.67
15.07
16.33
17.28
17.88
18.18
18.18
17.70
16.39
13.86
9.83
4.38
-2.03
-8.63
-14.56
-19.24
-22.47
-24.55
-26.15
-28.14
-31.37
-36.43
-43.38
-51.53
-59.40
-64.93
-66.10
-61.53
-51.10
-36.15
-19.03
-2.40
11.52
21.55
27.57
30.26
30.60
29.52
27.74
25.76
23.91
22.52
21.71
21.52
21.75
22.13
22.39
22.40
22.24
22.17
22.50
23.45
24.99
26.90
28.71
29.99
30.45
30.07
29.02
27.59
25.96
24.08
21.78
18.89
15.49
11.98
8.89
6.56
4.93
3.49
1.52
-1.45
-5.43
-9.88
-14.05
-17.41
-19.92
-22.08
-24.61
-28.16
-33.01
-39.15
-46.34
-54.15
-61.88
-68.39
-72.18
-71.63
-65.61
-53.96
-37.78
-19.20
-0.75
15.31
27.52
35.39
39.10
39.19
36.34
31.24
24.72
17.89
12.10
8.69
8.73
12.66
20.17
30.37
41.97
53.64
64.30
73.09
79.49
83.19
84.03
82.07
77.52
70.82
62.61
53.66
44.69
36.22
28.39
20.95
13.46
5.53
-2.86
-11.28
-19.00
-25.40
-30.25
-33.85
-36.87
-39.95
-43.27
-46.58
-49.27
-50.86
-51.36
-51.33
-51.76
-53.70
-57.85
-64.32
-72.59
-81.38
-88.84
-92.81
-91.31
-83.15
-68.53
-49.16
-27.92
-7.98
8.10
19.13
25.29
27.81
28.20
27.64
26.80
25.90
24.97
24.15
23.65
23.73
24.47
25.75
27.28
28.77
30.10
31.27
32.46
33.78
35.23
36.59
37.51
37.60
36.65
34.66
31.91
28.81
25.74
22.89
20.22
17.55
14.69
11.61
8.43
5.28
2.19
-1.03
-4.69
-8.96
-13.79
-18.84
-23.69
-28.02
-31.81
-35.35
-39.14
-43.74
-49.46
-56.18
-63.12
-68.89
-71.72
-70.02
-62.95
-50.83
-35.14
-18.08
-1.89
11.74
21.93
28.53
31.91
32.67
31.52
29.20
26.45
23.93
22.11
21.22
21.27
22.13
23.57
25.40
27.44
29.54
31.57
33.35
34.75
35.55
35.61
34.81
33.19
30.96
28.44
25.94
23.63
21.50
19.35
16.95
14.12
10.88
7.41
3.92
0.59
-2.58
-5.76
-9.22
-13.10
-17.36
-21.70
-25.74
-29.13
-31.79
-33.94
-36.06
-38.81
-42.73
-48.12
-54.78
-61.86
-67.88
-71.03
-69.72
-63.13
-51.63
-36.74
-20.63
-5.44
7.36
17.19
24.17
28.68
31.06
31.43
29.87
26.73
22.64
18.62
15.70
14.70
15.97
19.38
24.40
30.30
36.30
41.70
45.94
48.66
49.78
49.59
48.73
48.00
47.88
48.16
47.79
45.25
39.35
29.99
18.39
6.68
-3.10
-9.93
-14.09
-16.82
-19.35
-22.29
-25.36
-27.88
-29.41
-30.17
-30.95
-32.59
-35.53
-39.52
-43.96
-48.29
-52.31
-56.17
-60.04
-63.64
-65.93
-65.38
-60.53
-50.58
-35.97
-18.29
0.12
16.94
30.48
40.05
45.87
48.81
49.97
50.37
50.73
51.41
52.43
53.64
54.81
55.76
56.39
56.61
56.29
55.32
53.65
51.43
48.96
46.61
44.52
42.54
40.18
36.87
32.30
26.54
20.12
13.75
8.03
3.20
-0.85
-4.47
-7.97
-11.48
-14.94
-18.13
-20.80
-22.81
-24.13
-24.97
-25.63
-26.54
-28.15
-30.77
-34.42
-38.71
-42.72
-45.18
-44.75
-40.50
-32.26
-20.83
-7.77
5.03
15.95
23.99
28.92
31.09
31.11
29.63
27.19
24.23
21.14
18.29
15.93
14.16
12.91
12.01
11.35
10.90
10.77
11.10
11.91
13.04
14.19
14.96
15.07
14.36
12.91
10.90
8.56
6.07
3.44
0.63
-2.46
-5.88
-9.58
-13.35
-16.93
-20.06
-22.60
-24.71
-26.72
-29.12
-32.29
-36.35
-41.00
-45.49
-48.78
-49.79
-47.66
-42.14
-33.61
-23.03
-11.75
-1.13
7.75
14.19
17.99
19.30
18.54
16.31
13.27
10.06
7.22
5.08
3.74
3.13
3.08
3.43
4.09
5.01
6.11
7.27
8.22
8.70
8.43
7.28
5.26
2.59
-0.43
-3.45
-6.20
-8.61
-10.85
-13.21
-16.04
-19.52
-23.58
-27.86
-31.88
-35.18
-37.60
-39.26
-40.65
-42.36
-45.00
-48.91
-54.02
-59.73
-64.86
-67.86
-67.20
-61.85
-51.79
-38.12
-22.84
-8.22
3.81
12.19
16.79
18.19
17.22
14.69
11.23
7.29
3.33
-0.21
-2.85
-4.29
-4.44
-3.50
-1.82
0.22
2.40
4.74
7.37
10.39
13.65
16.73
19.12
20.41
20.58
19.98
19.13
18.41
17.74
16.50
13.78
8.79
1.16
-8.75
-19.95
-31.19
-41.44
-50.12
-57.22
-63.12
-68.21
-72.73
-76.58
-79.49
-81.07
-80.91
-78.48
-73.23
-64.62
-52.42
-37.03
-19.54
-1.61
14.99
28.85
39.25
46.17
50.08
51.60
51.27
49.49
46.66
43.20
39.65
36.54
34.28
33.05
32.83
33.40
34.53
35.99
37.60
39.15
40.39
41.04
40.84
39.65
37.48
34.51
31.02
27.28
23.45
19.55
15.46
11.09
6.44
1.72
-2.80
-6.84
-10.26
-13.16
-15.88
-18.86
-22.65
-27.68
-34.18
-41.95
-50.20
-57.46
-61.84
-61.57
-55.63
-44.21
-28.81
-11.77
4.44
17.88
27.57
33.45
36.01
35.92
33.88
30.47
26.30
22.01
18.21
15.34
13.58
12.86
12.98
13.69
14.85
16.38
18.25
20.32
22.32
23.84
24.39
23.53
21.03
16.96
11.70
5.85
0.07
-5.13
-9.57
-13.45
-17.28
-21.74
-27.34
-34.21
-41.76
-48.71
-53.29
-53.69
-48.77
-38.49
-24.12
-7.91
7.60
20.37
29.25
34.27
36.15
35.90
34.39
32.12
29.30
26.00
22.41
18.81
15.62
13.23
11.90
11.68
12.42
13.84
15.54
17.07
17.97
17.86
16.46
13.68
9.63
4.64
-0.83
-6.28
-11.31
-15.80
-19.98
-24.43
-29.87
-36.75
-44.87
-53.16
-59.73
-62.39
-59.44
-50.35
-36.02
-18.62
-0.81
15.00
27.32
35.72
40.65
42.94
43.51
43.05
42.06
40.88
39.75
38.89
38.44
38.44
38.86
39.58
40.47
41.37
42.24
43.04
43.74
44.27
44.46
44.09
42.97
40.99
38.22
34.87
31.22
27.49
23.82
20.20
16.59
12.94
9.25
5.58
2.00
-1.52
-5.03
-8.69
-12.62
-16.83
-21.22
-25.59
-29.73
-33.55
-37.14
-40.78
-44.88
-49.93
-56.30
-63.94
-72.16
-79.45
-83.74
-82.98
-75.89
-62.63
-44.86
-25.28
-6.74
8.63
19.89
27.24
31.51
33.63
34.30
33.99
33.10
32.07
31.38
31.40
32.23
33.65
35.24
36.59
37.52
38.13
38.68
39.48
40.62
41.94
43.03
43.44
42.79
40.98
38.17
34.72
31.11
27.72
24.78
22.31
20.19
18.17
16.03
13.61
10.88
7.86
4.68
1.46
-1.79
-5.12
-8.70
-12.70
-17.22
-22.16
-27.22
-32.05
-36.32
-39.87
-42.81
-45.44
-48.23
-51.69
-56.27
-62.19
-69.14
-76.20
-81.78
-84.00
-81.25
-72.81
-59.26
-42.28
-24.22
-7.35
6.73
17.31
24.46
28.72
30.80
31.38
31.06
30.42
29.95
29.99
30.71
32.06
33.77
35.51
36.97
38.01
38.64
39.03
39.37
39.76
40.10
40.06
39.29
37.49
34.72
31.27
27.58
24.06
20.87
17.90
14.85
11.44
7.58
3.38
-0.81
-4.64
-7.91
-10.68
-13.29
-16.20
-19.87
-24.58
-30.31
-36.81
-43.63
-50.24
-56.13
-60.89
-64.31
-66.49
-67.79
-68.67
-69.34
-69.48
-68.12
-63.93
-55.76
-43.26
-27.22
-9.37
8.13
23.46
35.51
44.07
49.49
52.33
53.11
52.24
50.16
47.41
44.60
42.25
40.66
39.80
39.47
39.42
39.53
39.85
40.48
41.40
42.45
43.33
43.73
43.46
42.51
40.95
38.92
36.41
33.33
29.60
25.23
20.37
15.30
10.35
5.75
1.60
-2.09
-5.42
-8.53
-11.56
-14.65
-17.86
-21.20
-24.53
-27.70
-30.56
-33.13
-35.62
-38.41
-41.95
-46.51
-51.98
-57.71
-62.47
-64.73
-63.05
-56.69
-45.88
-31.87
-16.59
-2.05
10.21
19.35
25.23
28.16
28.64
27.28
24.73
21.69
18.84
16.73
15.68
15.71
16.67
18.28
20.31
22.51
24.69
26.66
28.29
29.51
30.33
30.80
30.94
30.64
29.72
27.98
25.36
21.99
18.27
14.71
11.74
9.51
7.84
6.33
4.44
1.84
-1.57
-5.63
-9.99
-14.28
-18.25
-21.88
-25.34
-29.03
-33.39
-38.79
-45.31
-52.58
-59.72
-65.42
-68.19
-66.80
-60.70
-50.24
-36.67
-21.80
-7.49
4.78
14.14
20.39
23.77
24.75
23.88
21.75
18.92
15.94
13.25
11.12
9.65
8.88
8.83
9.52
10.95
13.00
15.39
17.66
19.41
20.34
20.39
19.70
18.46
16.83
14.82
12.35
9.37
5.90
2.06
-1.96
-5.94
-9.71
-13.17
-16.29
-19.11
-21.80
-24.63
-27.96
-32.16
-37.38
-43.32
-49.10
-53.25
-54.12
-50.43
-41.83
-29.18
-14.31
0.50
13.32
22.99
29.28
32.59
33.53
32.66
30.34
26.88
22.67
18.19
14.01
10.62
8.32
7.26
7.37
8.45
10.15
12.06
13.72
14.79
15.09
14.63
13.55
11.98
9.94
7.29
3.84
-0.43
-5.30
-10.32
-14.96
-18.86
-22.01
-24.77
-27.70
-31.34
-36.04
-41.89
-48.66
-55.79
-62.28
-66.76
-67.70
-63.88
-54.88
-41.47
-25.49
-9.33
4.81
15.55
22.51
26.15
27.31
26.91
25.67
24.16
22.74
21.69
21.13
21.01
21.23
21.67
22.32
23.24
24.51
26.10
27.82
29.34
30.24
30.18
28.92
26.45
22.95
18.78
14.34
9.98
5.89
2.03
-1.78
-5.81
-10.23
-15.07
-20.17
-25.22
-29.89
-33.99
-37.55
-40.93
-44.71
-49.47
-55.46
-62.22
-68.52
-72.52
-72.35
-66.82
-55.88
-40.77
-23.60
-6.68
8.08
19.60
27.57
32.32
34.46
34.72
33.84
32.51
31.32
30.70
30.82
31.62
32.88
34.36
35.81
37.16
38.37
39.53
40.68
41.79
42.72
43.21
42.99
41.84
39.78
36.98
33.83
30.67
27.73
25.02
22.34
19.46
16.21
12.59
8.81
5.13
1.82
-1.06
-3.61
-6.13
-8.90
-12.16
-15.95
-20.11
-24.32
-28.22
-31.60
-34.38
-36.80
-39.30
-42.53
-47.03
-53.03
-60.10
-67.05
-72.06
-73.20
-69.09
-59.45
-45.35
-28.87
-12.48
1.73
12.55
19.74
23.79
25.49
25.59
24.65
23.14
21.49
20.15
19.53
19.93
21.38
23.64
26.30
28.88
31.03
32.62
33.72
34.55
35.27
35.87
36.10
35.56
33.90
31.09
27.42
23.50
19.98
17.27
15.31
13.60
11.47
8.40
4.32
-0.40
-5.08
-9.10
-12.21
-14.62
-16.94
-19.88
-23.94
-29.18
-35.17
-41.18
-46.42
-50.33
-52.79
-54.22
-55.46
-57.64
-61.80
-68.41
-77.05
-86.17
-93.39
-96.10
-92.31
-81.39
-64.30
-43.32
-21.35
-1.02
15.99
29.14
38.88
46.02
51.23
54.65
55.94
54.62
50.61
44.62
38.16
33.16
31.37
33.73
40.15
49.57
60.30
70.50
78.53
83.19
83.89
80.67
74.22
65.82
57.08
49.62
44.57
42.24
41.89
42.02
40.86
37.01
29.87
19.89
8.18
-3.99
-15.76
-26.90
-37.58
-47.99
-57.85
-66.42
-72.78
-76.45
-77.76
-77.88
-78.26
-79.83
-82.43
-84.76
-84.89
-81.27
-73.34
-61.74
-47.86
-33.21
-18.92
-5.68
5.98
15.53
22.44
26.46
27.91
27.67
26.92
26.61
27.13
28.30
29.67
30.82
31.64
32.26
32.91
33.69
34.56
35.32
35.69
35.44
34.41
32.56
29.97
26.80
23.27
19.57
15.82
12.01
8.07
3.89
-0.60
-5.37
-10.28
-15.07
-19.50
-23.41
-26.86
-30.12
-33.66
-37.99
-43.49
-50.09
-57.21
-63.65
-67.79
-68.04
-63.30
-53.42
-39.37
-23.02
-6.64
7.73
18.74
25.90
29.48
30.23
29.03
26.65
23.73
20.70
17.89
15.52
13.78
12.74
12.41
12.70
13.49
14.65
16.02
17.44
18.70
19.46
19.39
18.17
15.66
11.95
7.39
2.45
-2.41
-6.86
-10.85
-14.66
-18.79
-23.88
-30.34
-38.12
-46.39
-53.62
-57.85
-57.38
-51.36
-40.16
-25.39
-9.34
5.71
18.09
26.98
32.38
34.80
34.91
33.36
30.69
27.35
23.76
20.32
17.30
14.91
13.24
12.36
12.27
12.93
14.19
15.70
17.00
17.53
16.85
14.74
11.25
6.65
1.36
-4.24
-9.81
-15.19
-20.40
-25.68
-31.51
-38.35
-46.40
-55.12
-63.19
-68.59
-69.26
-63.90
-52.54
-36.74
-19.05
-2.20
11.74
21.76
27.96
31.08
32.03
31.57
30.23
28.39
26.43
24.72
23.61
23.39
24.16
25.83
28.17
30.80
33.34
35.42
36.82
37.47
37.46
37.01
36.39
35.91
35.89
36.53
37.83
39.36
40.34
39.76
36.78
31.07
22.98
13.41
3.43
-6.17
-15.23
-24.20
-33.89
-44.91
-57.02
-68.74
-77.53
-80.45
-75.32
-61.76
-41.56
-18.26
4.13
22.39
34.92
41.73
43.82
42.41
38.48
32.84
26.28
19.82
14.52
11.11
9.76
10.05
11.26
12.75
14.23
15.72
17.43
19.53
22.02
24.71
27.34
29.56
31.08
31.69
31.35
30.21
28.67
27.20
26.17
25.68
25.42
24.76
23.06
19.95
15.55
10.49
5.57
1.44
-1.67
-4.03
-6.26
-8.99
-12.63
-17.17
-22.26
-27.39
-32.11
-36.18
-39.66
-42.88
-46.38
-50.76
-56.52
-63.86
-72.38
-81.01
-87.95
-91.13
-88.81
-80.18
-65.85
-47.69
-28.35
-10.38
4.42
15.31
22.49
26.74
28.93
29.84
30.10
30.21
30.63
31.62
33.28
35.41
37.70
39.78
41.44
42.68
43.65
44.59
45.63
46.76
47.79
48.43
48.33
47.31
45.32
42.51
39.14
35.57
32.11
28.96
26.17
23.61
21.02
18.10
14.64
10.67
6.41
2.28
-1.37
-4.39
-6.93
-9.36
-12.17
-15.67
-19.88
-24.55
-29.24
-33.58
-37.38
-40.73
-43.94
-47.47
-51.80
-57.36
-64.22
-71.89
-79.22
-84.44
-85.64
-81.38
-71.27
-56.25
-38.31
-19.95
-3.35
10.06
19.81
26.12
29.63
31.10
31.23
30.66
29.98
29.60
29.74
30.45
31.55
32.80
34.01
35.10
36.09
37.07
38.15
39.37
40.69
41.95
42.88
43.10
42.32
40.39
37.42
33.78
30.01
26.57
23.70
21.33
19.19
16.88
14.18
11.01
7.53
4.02
0.73
-2.18
-4.72
-7.12
-9.73
-12.87
-16.69
-21.07
-25.64
-29.94
-33.57
-36.47
-38.89
-41.37
-44.57
-49.10
-55.30
-63.02
-71.49
-79.28
-84.49
-85.26
-80.38
-69.75
-54.51
-36.78
-18.97
-3.11
9.55
18.66
24.51
27.71
28.91
28.77
27.90
26.87
26.18
26.10
26.68
27.75
29.07
30.48
31.91
33.43
35.11
36.93
38.74
40.27
41.19
41.22
40.20
38.17
35.35
32.12
28.84
25.77
22.97
20.28
17.43
14.21
10.58
6.72
2.94
-0.46
-3.35
-5.82
-8.13
-10.62
-13.59
-17.16
-21.26
-25.60
-29.86
-33.72
-37.07
-40.09
-43.22
-47.08
-52.21
-58.80
-66.39
-73.79
-79.28
-81.02
-77.69
-68.87
-55.34
-38.82
-21.52
-5.51
7.69
17.36
23.46
26.48
27.17
26.39
24.96
23.55
22.61
22.34
22.69
23.49
24.52
25.64
26.78
27.95
29.19
30.51
31.89
33.22
34.30
34.79
34.34
32.66
29.68
25.62
20.88
15.97
11.23
6.86
2.78
-1.24
-5.41
-9.80
-14.30
-18.66
-22.65
-26.14
-29.30
-32.52
-36.39
-41.42
-47.73
-54.89
-61.79
-66.84
-68.40
-65.30
-57.23
-44.92
-29.93
-14.21
0.40
12.55
21.59
27.43
30.40
31.08
30.11
28.12
25.67
23.23
21.17
19.66
18.81
18.64
19.12
20.11
21.49
23.04
24.58
25.94
26.95
27.44
27.22
26.11
24.04
21.09
17.52
13.65
9.75
5.90
1.94
-2.36
-7.13
-12.28
-17.50
-22.35
-26.58
-30.20
-33.57
-37.33
-42.14
-48.44
-56.14
-64.42
-71.76
-76.21
-76.01
-70.11
-58.70
-43.15
-25.71
-8.78
5.79
16.99
24.71
29.40
31.72
32.29
31.60
30.13
28.37
26.75
25.64
25.16
25.29
25.88
26.80
28.02
29.53
31.31
33.22
35.01
36.36
36.97
36.62
35.20
32.72
29.33
25.32
21.05
16.89
13.15
9.86
6.82
3.63
-0.13
-4.67
-9.96
-15.67
-21.33
-26.50
-30.94
-34.61
-37.74
-40.77
-44.32
-49.04
-55.43
-63.52
-72.51
-80.79
-86.18
-86.59
-80.76
-68.78
-52.17
-33.38
-15.08
0.67
12.77
21.08
26.18
28.90
30.02
30.15
29.74
29.15
28.68
28.58
28.98
29.90
31.18
32.61
34.00
35.25
36.36
37.40
38.43
39.39
40.13
40.38
39.89
38.44
35.99
32.61
28.56
24.19
19.87
15.91
12.39
9.19
5.98
2.41
-1.81
-6.74
-12.15
-17.63
-22.72
-27.07
-30.62
-33.62
-36.56
-40.03
-44.62
-50.76
-58.51
-67.39
-76.20
-83.16
-86.23
-83.78
-75.11
-60.94
-43.19
-24.46
-7.21
6.82
16.98
23.48
27.05
28.61
28.94
28.66
28.21
27.90
27.86
28.19
28.88
29.90
31.25
32.91
34.87
37.10
39.44
41.69
43.54
44.74
45.06
44.41
42.83
40.43
37.36
33.72
29.68
25.39
21.08
16.99
13.29
9.94
6.73
3.30
-0.72
-5.49
-10.87
-16.52
-21.99
-26.91
-31.15
-34.86
-38.37
-42.16
-46.68
-52.38
-59.45
-67.65
-76.07
-83.10
-86.66
-84.85
-76.66
-62.45
-44.01
-24.05
-5.34
10.04
21.16
28.16
31.80
33.06
32.73
31.43
29.59
27.68
26.15
25.43
25.73
26.99
28.92
31.13
33.24
35.04
36.51
37.79
39.01
40.21
41.21
41.65
41.07
39.14
35.83
31.46
26.61
21.96
17.97
14.71
11.86
8.86
5.18
0.54
-4.94
-10.85
-16.59
-21.70
-25.93
-29.43
-32.62
-36.12
-40.54
-46.35
-53.64
-61.94
-70.08
-76.31
-78.67
-75.61
-66.58
-52.31
-34.72
-16.34
0.44
13.97
23.51
29.20
31.67
31.69
30.00
27.25
23.96
20.63
17.74
15.71
14.92
15.54
17.54
20.60
24.19
27.73
30.72
32.85
34.03
34.25
33.58
32.06
29.67
26.46
22.45
17.73
12.41
6.68
0.75
-5.13
-10.74
-15.96
-20.77
-25.36
-30.05
-35.25
-41.39
-48.68
-56.90
-65.18
-71.96
-75.32
-73.54
-65.78
-52.49
-35.38
-16.98
0.23
14.44
24.89
31.66
35.39
36.78
36.40
34.74
32.26
29.51
27.08
25.46
24.92
25.48
26.98
29.20
31.91
34.84
37.66
39.98
41.40
41.62
40.51
38.19
34.91
31.02
26.77
22.33
17.68
12.75
7.43
1.71
-4.37
-10.63
-16.85
-22.80
-28.32
-33.43
-38.41
-43.77
-50.13
-57.91
-66.90
-76.04
-83.38
-86.60
-83.77
-74.19
-58.72
-39.59
-19.70
-1.62
12.99
23.63
30.66
34.78
36.71
37.02
36.23
34.94
33.80
33.37
33.95
35.52
37.73
40.16
42.43
44.33
45.81
46.94
47.76
48.28
48.46
48.18
47.30
45.61
42.91
39.06
34.14
28.49
22.64
17.15
12.37
8.23
4.35
0.15
-4.79
-10.52
-16.69
-22.73
-28.13
-32.69
-36.60
-40.30
-44.39
-49.45
-55.93
-64.03
-73.44
-83.11
-91.26
-95.61
-94.10
-85.63
-70.61
-51.02
-29.73
-9.69
6.99
19.37
27.61
32.49
35.01
36.04
36.28
36.29
36.51
37.21
38.46
40.18
42.17
44.24
46.30
48.31
50.26
52.11
53.78
55.13
55.98
56.09
55.25
53.36
50.43
46.74
42.68
38.69
35.08
31.88
28.84
25.55
21.68
17.08
11.99
6.86
2.20
-1.66
-4.72
-7.37
-10.20
-13.73
-18.23
-23.56
-29.29
-34.83
-39.74
-43.86
-47.35
-50.73
-54.72
-60.08
-67.33
-76.38
-86.32
-95.28
-100.83
-100.66
-93.38
-79.14
-59.71
-37.92
-16.83
1.19
14.90
24.18
29.69
32.41
33.30
33.18
32.72
32.45
32.71
33.69
35.36
37.55
40.00
42.43
44.66
46.59
48.23
49.69
51.10
52.51
53.79
54.63
54.63
53.40
50.83
47.08
42.63
38.07
33.92
30.43
27.50
24.78
21.77
18.15
13.83
9.01
4.13
-0.35
-4.07
-7.00
-9.41
-11.80
-14.73
-18.60
-23.43
-28.88
-34.37
-39.30
-43.38
-46.73
-49.95
-53.88
-59.38
-66.91
-76.22
-86.19
-94.89
-99.94
-99.20
-91.49
-77.07
-57.71
-36.14
-15.27
2.63
16.37
25.77
31.40
34.08
34.63
33.79
32.22
30.61
29.56
29.49
30.51
32.45
34.89
37.40
39.70
41.72
43.59
45.49
47.47
49.33
50.64
50.91
49.79
47.28
43.69
39.60
35.61
32.12
29.23
26.69
24.07
20.92
16.98
12.31
7.29
2.40
-1.90
-5.47
-8.52
-11.47
-14.78
-18.73
-23.25
-28.01
-32.59
-36.62
-39.98
-42.82
-45.50
-48.59
-52.72
-58.45
-65.91
-74.59
-83.04
-89.15
-90.60
-85.67
-73.98
-56.75
-36.43
-15.94
2.18
16.43
26.37
32.33
35.09
35.42
34.11
31.89
29.46
27.48
26.42
26.40
27.35
29.01
31.08
33.37
35.77
38.24
40.73
43.08
45.01
46.16
46.14
44.80
42.19
38.67
34.74
30.89
27.41
24.28
21.26
18.04
14.41
10.40
6.20
2.09
-1.72
-5.21
-8.54
-11.93
-15.57
-19.49
-23.61
-27.73
-31.65
-35.23
-38.51
-41.74
-45.39
-50.04
-56.17
-63.88
-72.54
-80.74
-86.48
-87.73
-83.02
-72.08
-55.97
-36.81
-17.15
0.67
15.10
25.52
32.04
35.27
35.96
34.85
32.63
29.95
27.38
25.43
24.36
24.30
25.18
26.83
29.05
31.69
34.58
37.54
40.32
42.65
44.20
44.68
43.89
41.86
38.80
35.11
31.22
27.53
24.20
21.14
18.09
14.75
10.99
6.88
2.65
-1.48
-5.38
-9.12
-12.86
-16.74
-20.78
-24.88
-28.89
-32.69
-36.23
-39.55
-42.78
-46.15
-50.03
-54.91
-61.17
-68.69
-76.58
-83.09
-86.02
-83.41
-74.35
-59.42
-40.60
-20.58
-2.01
13.31
24.57
31.80
35.59
36.61
35.58
33.21
30.25
27.41
25.23
24.02
23.81
24.46
25.81
27.71
30.05
32.74
35.63
38.50
41.03
42.88
43.73
43.35
41.71
38.97
35.50
31.71
27.99
24.49
21.21
17.94
14.49
10.75
6.73
2.59
-1.53
-5.52
-9.40
-13.28
-17.25
-21.35
-25.54
-29.70
-33.70
-37.45
-40.93
-44.26
-47.70
-51.65
-56.64
-63.02
-70.62
-78.46
-84.74
-87.20
-83.96
-74.22
-58.71
-39.50
-19.33
-0.76
14.46
25.63
32.87
36.71
37.81
36.78
34.27
31.03
27.83
25.36
24.05
24.00
25.00
26.74
28.88
31.26
33.78
36.38
38.89
41.04
42.47
42.88
42.11
40.20
37.40
34.04
30.46
26.85
23.24
19.50
15.52
11.25
6.84
2.49
-1.56
-5.28
-8.83
-12.48
-16.43
-20.70
-25.10
-29.31
-33.13
-36.52
-39.67
-42.94
-46.73
-51.44
-57.37
-64.49
-72.25
-79.38
-84.02
-84.18
-78.46
-66.64
-49.91
-30.53
-11.14
6.04
19.66
29.30
35.21
37.94
38.15
36.50
33.69
30.44
27.40
25.06
23.71
23.45
24.24
25.98
28.49
31.55
34.82
37.92
40.52
42.30
43.08
42.82
41.58
39.50
36.75
33.46
29.76
25.73
21.46
17.10
12.82
8.77
5.03
1.54
-1.89
-5.51
-9.55
-14.04
-18.86
-23.71
-28.23
-32.15
-35.39
-38.18
-40.90
-44.11
-48.38
-54.10
-61.28
-69.30
-76.78
-81.80
-82.35
-76.98
-65.47
-48.96
-29.73
-10.48
6.42
19.47
28.21
32.90
34.26
33.08
30.13
26.14
21.86
17.98
15.04
13.39
13.12
14.13
16.17
18.95
22.14
25.37
28.26
30.47
31.70
31.75
30.61
28.41
25.38
21.77
17.74
13.31
8.43
3.11
-2.58
-8.38
-13.99
-19.12
-23.68
-27.74
-31.56
-35.50
-39.96
-45.36
-51.89
-59.36
-66.95
-73.15
-76.05
-73.91
-65.83
-52.19
-34.69
-15.79
1.96
16.66
27.38
34.04
37.17
37.56
35.94
33.02
29.37
25.57
22.14
19.55
18.09
17.89
18.80
20.50
22.59
24.73
26.67
28.31
29.56
30.18
29.76
27.81
23.92
18.07
10.70
2.64
-5.15
-11.97
-17.62
-22.45
-27.30
-33.14
-40.72
-50.21
-60.91
-71.18
-78.74
-81.24
-76.98
-65.62
-48.46
-28.12
-7.75
9.89
23.18
31.81
36.46
38.24
38.14
36.76
34.43
31.43
28.21
25.35
23.54
23.25
24.63
27.41
30.95
34.45
37.15
38.62
38.80
37.97
36.53
34.73
32.47
29.40
25.07
19.24
12.10
4.22
-3.63
-10.80
-16.95
-22.22
-26.97
-31.77
-37.20
-43.81
-52.03
-61.95
-72.95
-83.47
-91.13
-93.28
-87.97
-74.77
-55.12
-31.98
-8.83
11.36
26.90
37.43
43.67
46.76
47.79
47.65
47.01
46.40
46.21
46.69
47.88
49.70
51.95
54.41
56.95
59.49
62.00
64.47
66.77
68.69
69.96
70.29
69.49
67.49
64.34
60.26
55.52
50.50
45.56
40.99
36.89
33.22
29.79
26.32
22.63
18.68
14.57
10.46
6.50
2.75
-0.83
-4.26
-7.62
-10.97
-14.45
-18.24
-22.53
-27.43
-32.89
-38.68
-44.44
-49.81
-54.62
-59.03
-63.46
-68.67
-75.37
-84.10
-94.67
-105.87
-115.46
-120.55
-118.48
-107.83
-89.15
-64.94
-38.88
-14.70
4.94
18.98
27.76
32.44
34.35
34.54
33.83
32.86
32.27
32.61
34.19
36.95
40.43
44.01
47.09
49.43
51.15
52.64
54.35
56.48
58.89
61.07
62.41
62.35
60.63
57.30
52.72
47.44
42.07
37.11
32.87
29.39
26.40
23.45
20.09
16.09
11.54
6.82
2.45
-1.25
-4.29
-7.00
-9.93
-13.53
-17.99
-23.12
-28.51
-33.64
-38.15
-41.98
-45.40
-48.95
-53.29
-59.08
-66.74
-76.23
-86.74
-96.55
-103.28
-104.41
-98.19
-84.35
-64.36
-41.10
-17.94
2.25
17.75
28.20
34.21
36.88
37.35
36.63
35.54
34.72
34.61
35.35
36.82
38.73
40.74
42.62
44.30
45.86
47.46
49.25
51.29
53.38
55.08
55.84
55.18
52.93
49.34
45.02
40.66
36.70
33.19
29.84
26.18
21.90
17.01
11.85
6.87
2.39
-1.54
-5.18
-8.94
-13.20
-18.10
-23.53
-29.11
-34.39
-38.95
-42.61
-45.52
-48.18
-51.36
-55.91
-62.40
-70.73
-79.86
-87.83
-92.18
-90.69
-82.24
-67.25
-47.67
-26.42
-6.42
10.16
22.28
29.98
33.93
35.02
34.14
32.04
29.42
26.96
25.23
24.59
25.12
26.59
28.63
30.85
32.96
34.88
36.65
38.32
39.87
41.07
41.57
40.95
38.96
35.57
31.07
25.93
20.72
15.88
11.62
7.89
4.38
0.70
-3.52
-8.38
-13.72
-19.10
-23.99
-28.05
-31.23
-33.89
-36.68
-40.33
-45.41
-52.05
-59.72
-67.19
-72.67
-74.21
-70.36
-60.69
-46.07
-28.48
-10.42
5.86
18.83
27.93
33.31
35.49
35.06
32.58
28.65
23.95
19.24
15.26
12.53
11.30
11.47
12.70
14.49
16.38
18.06
19.45
20.62
21.63
22.34
22.27
20.80
17.41
12.04
5.20
-2.15
-8.97
-14.58
-18.91
-22.48
-26.18
-30.89
-37.23
-45.36
-54.78
-64.33
-72.20
-76.27
-74.70
-66.62
-52.60
-34.58
-15.30
2.55
17.11
27.60
34.22
37.64
38.57
37.58
35.13
31.70
27.87
24.27
21.45
19.73
19.16
19.48
20.30
21.21
21.90
22.33
22.63
22.98
23.36
23.45
22.68
20.44
16.36
10.57
3.68
-3.41
-9.86
-15.17
-19.37
-22.94
-26.62
-31.27
-37.54
-45.75
-55.56
-65.79
-74.46
-79.16
-77.78
-69.34
-54.50
-35.46
-15.28
3.12
17.78
28.06
34.36
37.64
38.80
38.56
37.40
35.73
34.04
32.77
32.28
32.65
33.72
35.14
36.59
37.83
38.83
39.67
40.44
41.09
41.42
41.14
39.95
37.77
34.70
31.02
27.05
23.03
19.03
15.02
10.90
6.67
2.44
-1.62
-5.38
-8.85
-12.27
-15.96
-20.24
-25.14
-30.39
-35.51
-40.01
-43.69
-46.79
-49.96
-54.09
-59.88
-67.54
-76.41
-84.93
-90.86
-91.93
-86.57
-74.54
-57.13
-36.81
-16.42
1.60
15.79
25.79
31.99
35.14
36.07
35.48
34.04
32.33
30.90
30.12
30.16
30.95
32.29
33.92
35.66
37.40
39.13
40.87
42.62
44.27
45.59
46.23
45.84
44.20
41.34
37.54
33.24
28.85
24.62
20.56
16.57
12.55
8.53
4.63
0.94
-2.60
-6.20
-10.18
-14.73
-19.81
-25.14
-30.30
-34.92
-38.82
-42.12
-45.20
-48.70
-53.25
-59.39
-67.20
-76.01
-84.36
-90.11
-91.05
-85.64
-73.61
-56.20
-35.81
-15.34
2.73
16.85
26.60
32.40
35.14
35.78
35.14
33.82
32.32
31.00
30.14
29.88
30.25
31.22
32.66
34.46
36.50
38.62
40.68
42.44
43.71
44.26
43.97
42.81
40.85
38.24
35.09
31.55
27.68
23.58
19.30
14.95
10.62
6.42
2.36
-1.59
-5.58
-9.77
-14.27
-19.04
-23.91
-28.61
-32.88
-36.61
-39.89
-43.02
-46.48
-50.77
-56.31
-63.21
-71.10
-78.88
-84.81
-86.86
-83.29
-73.37
-57.78
-38.52
-18.34
0.11
14.99
25.56
32.06
35.30
36.19
35.49
33.81
31.65
29.46
27.64
26.48
26.11
26.57
27.78
29.64
31.96
34.51
36.97
39.00
40.37
40.96
40.78
39.93
38.45
36.36
33.62
30.22
26.23
21.87
17.41
13.12
9.14
5.45
1.87
-1.90
-6.08
-10.72
-15.66
-20.57
-25.11
-29.05
-32.40
-35.41
-38.48
-42.03
-46.46
-52.01
-58.66
-65.89
-72.56
-77.02
-77.43
-72.39
-61.57
-45.98
-27.75
-9.49
6.48
18.78
27.09
31.87
33.92
33.96
32.43
29.62
25.87
21.69
17.76
14.76
13.17
13.13
14.45
16.67
19.28
21.81
23.91
25.41
26.22
26.29
25.61
24.12
21.78
18.53
14.37
9.39
3.84
-1.92
-7.46
-12.43
-16.65
-20.17
-23.30
-26.54
-30.47
-35.64
-42.31
-50.30
-58.70
-65.95
-70.08
-69.34
-62.73
-50.50
-34.21
-16.19
1.06
15.62
26.52
33.70
37.67
39.09
38.50
36.25
32.68
28.22
23.56
19.46
16.63
15.40
15.69
17.02
18.67
20.06
20.87
21.11
20.98
20.69
20.18
19.13
17.10
13.69
8.85
2.91
-3.51
-9.71
-15.24
-19.96
-24.12
-28.22
-32.86
-38.61
-45.84
-54.54
-64.09
-73.10
-79.57
-81.35
-76.85
-65.71
-49.09
-29.42
-9.62
7.79
21.32
30.64
36.30
39.17
40.03
39.41
37.64
35.06
32.08
29.18
26.86
25.47
25.13
25.72
26.93
28.32
29.51
30.25
30.51
30.38
30.01
29.38
28.27
26.25
22.87
17.92
11.56
4.34
-3.01
-9.79
-15.63
-20.57
-24.95
-29.27
-34.03
-39.66
-46.52
-54.79
-64.20
-73.79
-81.74
-85.73
-83.68
-74.55
-58.97
-39.16
-18.22
0.92
16.28
27.21
34.12
37.96
39.68
39.97
39.26
37.94
36.43
35.18
34.59
34.87
35.95
37.53
39.25
40.78
42.00
42.98
43.89
44.85
45.74
46.22
45.79
44.01
40.72
36.08
30.57
24.87
19.55
14.92
10.91
7.09
2.84
-2.36
-8.70
-15.89
-23.24
-29.94
-35.37
-39.42
-42.50
-45.43
-49.18
-54.57
-61.99
-71.20
-81.13
-89.95
-95.31
-95.03
-87.76
-73.62
-54.33
-32.65
-11.60
6.46
20.31
29.80
35.50
38.18
38.54
37.25
35.04
32.72
31.06
30.61
31.48
33.41
35.87
38.36
40.52
42.26
43.63
44.76
45.72
46.45
46.76
46.31
44.75
41.85
37.59
32.30
26.58
21.13
16.51
12.87
9.90
6.90
3.16
-1.78
-7.86
-14.53
-21.03
-26.69
-31.23
-34.84
-38.11
-41.84
-46.79
-53.47
-61.82
-71.03
-79.40
-84.67
-84.61
-77.87
-64.52
-46.26
-25.86
-6.28
10.20
22.42
30.33
34.53
35.86
35.08
32.87
29.86
26.73
24.07
22.33
21.71
22.17
23.57
25.68
28.21
30.86
33.29
35.20
36.35
36.65
36.07
34.63
32.32
29.10
24.95
19.93
14.24
8.20
2.19
-3.49
-8.67
-13.37
-17.79
-22.22
-26.99
-32.42
-38.79
-46.29
-54.86
-63.94
-72.28
-78.00
-79.03
-73.83
-62.13
-45.21
-25.58
-6.18
10.60
23.49
32.36
37.82
40.60
41.30
40.33
38.13
35.28
32.51
30.51
29.73
30.25
31.86
34.19
36.81
39.38
41.67
43.61
45.21
46.47
47.24
47.15
45.76
42.73
38.07
32.24
26.05
20.33
15.57
11.74
8.30
4.46
-0.43
-6.57
-13.61
-20.83
-27.44
-32.92
-37.16
-40.60
-43.94
-48.08
-53.75
-61.33
-70.55
-80.30
-88.66
-93.21
-91.80
-83.24
-67.96
-47.92
-26.12
-5.62
11.31
23.66
31.61
36.04
38.07
38.64
38.43
37.90
37.40
37.20
37.51
38.44
39.94
41.91
44.14
46.41
48.52
50.36
51.82
52.84
53.37
53.27
52.42
50.65
47.93
44.27
39.85
34.92
29.73
24.56
19.62
15.04
10.88
7.08
3.49
-0.17
-4.18
-8.77
-14.01
-19.73
-25.60
-31.19
-36.20
-40.52
-44.35
-48.08
-52.29
-57.59
-64.44
-72.91
-82.34
-91.20
-97.27
-98.17
-92.21
-79.14
-60.37
-38.65
-17.16
1.47
15.73
25.44
31.28
34.31
35.51
35.66
35.31
34.93
34.92
35.55
36.89
38.80
40.98
43.11
44.97
46.51
47.85
49.16
50.48
51.66
52.37
52.22
50.90
48.38
44.90
40.85
36.66
32.58
28.67
24.82
20.85
16.67
12.29
7.89
3.67
-0.20
-3.73
-7.08
-10.52
-14.33
-18.62
-23.32
-28.18
-32.91
-37.28
-41.32
-45.28
-49.66
-55.07
-61.99
-70.45
-79.76
-88.33
-93.95
-94.35
-88.05
-74.98
-56.71
-35.96
-15.75
1.48
14.48
23.13
28.15
30.47
31.03
30.55
29.70
29.09
29.19
30.24
32.15
34.54
36.99
39.16
40.92
42.38
43.68
44.91
46.06
46.97
47.39
47.11
45.94
43.90
41.12
37.88
34.47
31.12
27.86
24.52
20.88
16.81
12.41
8.04
4.14
1.02
-1.36
-3.43
-5.82
-9.10
-13.50
-18.82
-24.49
-29.92
-34.69
-38.71
-42.28
-45.86
-50.01
-55.25
-61.86
-69.75
-78.12
-85.44
-89.64
-88.68
-81.32
-67.72
-49.55
-29.52
-10.47
5.50
17.38
25.28
29.90
32.10
32.57
31.81
30.28
28.48
26.99
26.28
26.56
27.80
29.68
31.79
33.76
35.35
36.55
37.45
38.23
38.92
39.41
39.35
38.33
35.97
32.18
27.22
21.71
16.40
11.86
8.29
5.41
2.60
-0.77
-5.05
-10.16
-15.62
-20.82
-25.29
-28.89
-31.84
-34.66
-37.98
-42.41
-48.37
-55.84
-64.19
-72.02
-77.37
-78.21
-73.18
-62.10
-46.24
-27.92
-9.83
5.78
17.63
25.50
29.87
31.63
31.55
30.27
28.23
25.84
23.54
21.78
20.93
21.16
22.41
24.43
26.85
29.33
31.63
33.65
35.35
36.66
37.43
37.44
36.47
34.44
31.41
27.61
23.37
19.04
14.91
11.13
7.71
4.50
1.22
-2.43
-6.66
-11.48
-16.63
-21.66
-26.12
-29.75
-32.59
-35.00
-37.58
-41.00
-45.83
-52.27
-60.01
-67.99
-74.51
-77.54
-75.36
-67.18
-53.56
-36.34
-18.06
-1.17
12.56
22.42
28.59
31.74
32.65
31.96
30.16
27.67
24.93
22.43
20.62
19.84
20.17
21.44
23.29
25.33
27.27
29.05
30.72
32.30
33.61
34.23
33.67
31.60
28.11
23.69
19.09
14.97
11.65
8.99
6.44
3.39
-0.60
-5.57
-11.21
-16.96
-22.29
-26.82
-30.52
-33.64
-36.68
-40.29
-45.04
-51.19
-58.43
-65.70
-71.31
-73.29
-70.02
-60.92
-46.69
-29.26
-11.22
5.04
17.90
26.74
31.80
33.81
33.54
31.67
28.78
25.37
21.93
18.90
16.67
15.49
15.51
16.69
18.79
21.39
23.95
25.92
26.93
26.89
25.97
24.46
22.59
20.42
17.83
14.60
10.61
5.90
0.77
-4.41
-9.24
-13.53
-17.34
-20.93
-24.70
-28.98
-34.04
-40.04
-46.95
-54.40
-61.48
-66.77
-68.54
-65.34
-56.61
-43.06
-26.53
-9.43
6.01
18.31
26.95
32.09
34.22
33.89
31.62
27.99
23.71
19.59
16.31
14.29
13.56
13.85
14.76
15.97
17.31
18.72
20.13
21.39
22.21
22.21
21.03
18.49
14.62
9.76
4.43
-0.80
-5.49
-9.50
-13.12
-16.98
-21.83
-28.24
-36.22
-44.99
-53.03
-58.35
-59.08
-54.13
-43.63
-28.98
-12.50
3.31
16.45
25.83
31.39
33.73
33.69
32.04
29.31
25.87
22.06
18.31
15.06
12.69
11.40
11.17
11.76
12.87
14.20
15.48
16.48
16.94
16.57
15.10
12.41
8.60
4.04
-0.75
-5.25
-9.13
-12.43
-15.55
-19.23
-24.26
-31.12
-39.53
-48.27
-55.29
-58.22
-55.26
-45.86
-31.06
-13.19
4.82
20.36
31.77
38.59
41.30
40.81
38.10
33.93
28.86
23.37
17.97
13.21
9.57
7.34
6.53
6.88
8.00
9.49
11.05
12.43
13.35
13.50
12.54
10.23
6.57
1.84
-3.49
-8.84
-13.82
-18.33
-22.61
-27.22
-32.76
-39.63
-47.59
-55.61
-61.91
-64.47
-61.65
-52.90
-39.09
-22.30
-5.20
9.82
21.24
28.66
32.52
33.69
32.97
30.90
27.85
24.15
20.24
16.66
13.94
12.42
12.17
12.95
14.37
15.98
17.42
18.41
18.69
18.05
16.23
13.11
8.74
3.40
-2.42
-8.20
-13.55
-18.47
-23.34
-28.90
-35.84
-44.42
-54.02
-63.01
-69.11
-70.02
-64.41
-52.39
-35.65
-16.85
1.17
16.30
27.48
34.67
38.49
39.77
39.31
37.77
35.73
33.70
32.06
31.09
30.83
31.20
32.03
33.15
34.42
35.71
36.94
37.97
38.60
38.53
37.46
35.23
31.85
27.56
22.78
17.84
12.97
8.12
3.11
-2.24
-8.01
-14.06
-20.10
-25.79
-30.94
-35.60
-40.09
-44.96
-50.85
-58.25
-67.14
-76.65
-85.06
-90.10
-89.60
-82.34
-68.60
-50.20
-29.94
-10.68
5.45
17.54
25.76
30.94
34.01
35.74
36.63
37.09
37.50
38.20
39.43
41.24
43.41
45.64
47.61
49.17
50.37
51.39
52.42
53.49
54.45
54.92
54.49
52.84
49.90
45.96
41.50
37.05
32.98
29.32
25.81
22.05
17.75
12.87
7.74
2.84
-1.43
-4.93
-7.92
-10.90
-14.40
-18.72
-23.77
-29.16
-34.35
-38.95
-42.88
-46.39
-50.01
-54.36
-60.00
-67.31
-76.22
-85.94
-94.87
-100.75
-101.25
-94.76
-81.12
-61.95
-40.11
-18.88
-0.91
12.47
21.27
26.43
29.20
30.63
31.43
32.05
32.78
33.87
35.51
37.75
40.44
43.29
46.00
48.37
50.33
51.94
53.35
54.64
55.76
56.44
56.33
55.05
52.45
48.66
44.12
39.41
35.06
31.30
28.03
24.89
21.43
17.39
12.76
7.87
3.18
-0.87
-4.07
-6.57
-8.82
-11.40
-14.80
-19.20
-24.42
-30.01
-35.44
-40.30
-44.52
-48.37
-52.45
-57.47
-64.04
-72.35
-81.79
-90.90
-97.51
-99.37
-94.82
-83.54
-66.68
-46.61
-26.17
-7.84
6.84
17.42
24.30
28.35
30.50
31.56
32.13
32.66
33.44
34.62
36.23
38.20
40.38
42.60
44.72
46.66
48.40
49.97
51.39
52.58
53.37
53.49
52.68
50.80
47.94
44.38
40.57
36.83
33.33
30.02
26.66
22.99
18.89
14.42
9.78
5.31
1.23
-2.39
-5.68
-8.95
-12.55
-16.73
-21.48
-26.57
-31.61
-36.22
-40.18
-43.59
-46.79
-50.35
-54.90
-60.95
-68.60
-77.25
-85.43
-91.02
-91.78
-86.14
-73.89
-56.43
-36.34
-16.52
0.69
14.03
23.37
29.29
32.60
34.02
34.12
33.42
32.48
31.81
31.74
32.34
33.45
34.84
36.38
38.05
39.93
42.04
44.25
46.28
47.79
48.47
48.15
46.77
44.40
41.22
37.54
33.70
30.02
26.69
23.65
20.64
17.35
13.58
9.37
4.99
0.84
-2.74
-5.70
-8.23
-10.78
-13.80
-17.53
-21.91
-26.59
-31.11
-35.14
-38.63
-41.89
-45.48
-50.05
-56.10
-63.69
-72.24
-80.40
-86.23
-87.65
-83.13
-72.26
-56.11
-36.95
-17.57
-0.42
13.00
22.30
27.94
30.77
31.61
31.08
29.65
27.75
25.84
24.38
23.74
24.11
25.46
27.55
30.00
32.44
34.57
36.23
37.49
38.44
39.14
39.48
39.17
37.86
35.31
31.56
26.97
22.16
17.73
14.09
11.24
8.82
6.29
3.14
-0.86
-5.61
-10.73
-15.75
-20.25
-24.01
-27.08
-29.70
-32.33
-35.52
-39.81
-45.55
-52.61
-60.16
-66.72
-70.39
-69.44
-62.92
-51.07
-35.37
-18.10
-1.68
11.99
21.92
28.06
30.99
31.50
30.25
27.69
24.14
19.92
15.58
11.86
9.48
8.92
10.19
12.82
16.04
19.07
21.34
22.69
23.22
23.11
22.49
21.25
19.19
16.09
11.92
6.86
1.32
-4.22
-9.34
-13.84
-17.80
-21.46
-25.25
-29.60
-34.92
-41.45
-49.09
-57.22
-64.53
-69.24
-69.50
-64.09
-52.98
-37.49
-19.92
-2.82
11.79
22.88
30.38
34.82
36.88
37.03
35.56
32.66
28.73
24.35
20.31
17.32
15.88
16.08
17.63
19.94
22.32
24.20
25.26
25.48
24.99
23.98
22.51
20.58
18.07
14.90
11.03
6.46
1.31
-4.29
-10.10
-15.91
-21.48
-26.67
-31.53
-36.30
-41.40
-47.37
-54.62
-63.10
-71.99
-79.68
-83.97
-82.82
-75.08
-61.11
-42.77
-22.85
-4.13
11.41
22.92
30.60
35.18
37.48
38.10
37.45
35.92
33.94
32.07
30.78
30.40
30.99
32.33
34.01
35.67
37.06
38.18
39.18
40.21
41.23
41.92
41.80
40.37
37.40
33.04
27.81
22.41
17.47
13.28
9.71
6.29
2.45
-2.23
-7.86
-14.20
-20.78
-27.08
-32.70
-37.50
-41.60
-45.38
-49.45
-54.49
-61.07
-69.33
-78.65
-87.49
-93.65
-94.77
-89.21
-76.70
-58.57
-37.46
-16.40
2.01
16.29
26.11
32.06
35.07
36.10
35.89
35.08
34.21
33.73
33.95
34.91
36.46
38.34
40.30
42.22
44.06
45.92
47.81
49.66
51.24
52.22
52.25
51.04
48.53
44.94
40.72
36.42
32.45
28.93
25.65
22.18
18.15
13.46
8.39
3.43
-0.92
-4.50
-7.54
-10.64
-14.36
-19.03
-24.49
-30.24
-35.68
-40.37
-44.27
-47.66
-51.12
-55.31
-60.89
-68.27
-77.38
-87.37
-96.49
-102.30
-102.41
-95.25
-80.87
-61.06
-38.84
-17.45
0.63
14.21
23.37
28.96
32.01
33.36
33.62
33.29
32.82
32.66
33.12
34.28
36.08
38.26
40.63
43.04
45.43
47.78
50.01
51.94
53.33
53.86
53.27
51.46
48.54
44.83
40.75
36.65
32.70
28.84
24.87
20.63
16.11
11.50
7.08
3.02
-0.70
-4.39
-8.44
-13.10
-18.37
-23.91
-29.26
-34.07
-38.26
-42.09
-46.02
-50.63
-56.38
-63.61
-72.25
-81.62
-90.28
-96.10
-96.75
-90.57
-77.28
-58.34
-36.50
-15.02
3.46
17.50
26.96
32.60
35.47
36.52
36.45
35.74
34.79
33.92
33.44
33.53
34.31
35.78
37.85
40.35
43.04
45.63
47.87
49.57
50.63
51.00
50.63
49.47
47.50
44.77
41.42
37.57
33.39
28.98
24.45
19.92
15.53
11.36
7.40
3.53
-0.51
-4.97
-10.01
-15.57
-21.40
-27.05
-32.11
-36.36
-39.87
-43.13
-46.85
-51.80
-58.51
-66.95
-76.35
-85.15
-91.27
-92.58
-87.56
-75.89
-58.61
-38.01
-16.90
2.12
17.28
27.91
34.32
37.36
38.08
37.37
35.92
34.18
32.52
31.24
30.58
30.73
31.78
33.67
36.17
38.90
41.47
43.57
45.08
45.98
46.34
46.14
45.20
43.31
40.31
36.26
31.46
26.42
21.65
17.53
14.08
11.02
7.86
4.04
-0.73
-6.45
-12.74
-18.97
-24.53
-29.06
-32.59
-35.52
-38.54
-42.35
-47.55
-54.42
-62.82
-72.06
-80.80
-87.21
-89.30
-85.49
-75.16
-59.05
-39.17
-18.23
1.11
16.98
28.55
35.93
39.81
40.98
40.14
37.84
34.66
31.25
28.32
26.50
26.15
27.25
29.46
32.19
34.96
37.41
39.47
41.20
42.61
43.55
43.71
42.68
40.26
36.53
31.87
26.85
22.04
17.80
14.24
11.19
8.20
4.74
0.29
-5.40
-12.11
-19.21
-25.84
-31.23
-35.07
-37.66
-39.83
-42.67
-47.11
-53.59
-61.77
-70.51
-77.96
-81.99
-80.73
-73.24
-59.86
-42.26
-22.95
-4.55
10.92
22.48
30.10
34.37
36.00
35.53
33.34
29.75
25.22
20.44
16.26
13.44
12.45
13.34
15.73
18.94
22.18
24.83
26.56
27.39
27.53
27.22
26.45
25.00
22.47
18.56
13.29
7.07
0.60
-5.42
-10.54
-14.71
-18.26
-21.76
-25.81
-30.94
-37.45
-45.32
-54.01
-62.33
-68.53
-70.65
-67.15
-57.56
-42.77
-24.88
-6.52
9.90
22.89
32.01
37.55
40.16
40.35
38.43
34.69
29.59
23.91
18.66
14.78
12.83
12.88
14.43
16.76
19.12
21.03
22.34
23.14
23.62
23.76
23.30
21.76
18.64
13.69
7.16
-0.28
-7.71
-14.31
-19.69
-23.99
-27.83
-32.03
-37.37
-44.38
-53.12
-63.07
-72.94
-80.81
-84.45
-82.00
-72.62
-56.98
-37.16
-16.06
3.44
19.33
30.70
37.72
41.16
41.98
41.03
38.98
36.37
33.70
31.38
29.73
28.94
29.07
30.02
31.65
33.73
35.98
38.06
39.60
40.28
39.86
38.24
35.50
31.86
27.57
22.84
17.76
12.33
6.47
0.15
-6.53
-13.36
-20.00
-26.17
-31.70
-36.63
-41.26
-46.09
-51.74
-58.76
-67.32
-76.91
-86.17
-92.99
-95.06
-90.59
-79.04
-61.43
-40.13
-18.15
1.75
17.69
28.96
35.86
39.30
40.44
40.37
39.95
39.74
40.00
40.82
42.12
43.83
45.83
48.04
50.34
52.61
54.74
56.66
58.33
59.68
60.54
60.62
59.64
57.40
53.94
49.56
44.75
40.00
35.55
31.43
27.35
22.99
18.17
12.98
7.77
2.94
-1.25
-4.93
-8.53
-12.65
-17.73
-23.83
-30.54
-37.21
-43.18
-48.08
-52.04
-55.67
-59.89
-65.66
-73.65
-83.83
-95.19
-105.65
-112.47
-113.00
-105.63
-90.47
-69.44
-45.66
-22.51
-2.60
12.77
23.54
30.49
34.66
36.99
38.22
38.93
39.62
40.67
42.25
44.28
46.48
48.52
50.16
51.40
52.43
53.58
55.07
56.95
58.96
60.60
61.33
60.72
58.60
55.12
50.65
45.73
40.85
36.42
32.58
29.21
26.01
22.58
18.57
13.92
8.88
3.92
-0.43
-3.90
-6.69
-9.36
-12.66
-17.12
-22.79
-29.21
-35.61
-41.30
-45.95
-49.70
-53.13
-57.06
-62.33
-69.57
-78.87
-89.49
-99.68
-106.92
-108.57
-102.75
-89.15
-69.34
-46.25
-23.28
-3.22
12.38
23.29
30.14
33.93
35.59
35.88
35.46
34.98
34.98
35.79
37.41
39.55
41.84
43.98
45.84
47.52
49.20
51.02
53.00
54.97
56.60
57.42
56.95
54.87
51.24
46.50
41.40
36.75
33.00
30.17
27.77
25.15
21.76
17.46
12.48
7.39
2.73
-1.13
-4.21
-6.85
-9.56
-12.86
-17.02
-22.01
-27.46
-32.91
-37.89
-42.25
-46.17
-50.13
-54.82
-60.84
-68.57
-77.76
-87.42
-95.77
-100.49
-99.41
-91.23
-76.14
-55.90
-33.42
-11.82
6.39
19.92
28.72
33.55
35.51
35.61
34.66
33.33
32.13
31.47
31.57
32.44
33.91
35.76
37.78
39.91
42.07
44.25
46.29
48.02
49.18
49.57
49.09
47.70
45.48
42.56
39.06
35.11
30.83
26.34
21.72
17.07
12.49
8.07
3.88
-0.08
-3.87
-7.73
-11.86
-16.44
-21.46
-26.70
-31.78
-36.33
-40.18
-43.46
-46.63
-50.34
-55.28
-61.89
-70.08
-78.93
-86.72
-91.14
-90.00
-82.01
-67.38
-47.91
-26.48
-6.11
10.88
23.41
31.59
36.21
38.24
38.45
37.33
35.28
32.75
30.28
28.41
27.53
27.79
29.03
30.95
33.21
35.57
37.93
40.24
42.39
44.16
45.21
45.21
44.02
41.69
38.50
34.83
30.98
27.10
23.18
19.14
14.93
10.59
6.20
1.89
-2.31
-6.48
-10.73
-15.17
-19.76
-24.37
-28.74
-32.67
-36.11
-39.17
-42.18
-45.59
-49.91
-55.57
-62.61
-70.45
-77.71
-82.42
-82.50
-76.53
-64.42
-47.55
-28.36
-9.50
6.89
19.70
28.76
34.43
37.19
37.45
35.60
32.13
27.75
23.29
19.53
17.02
15.99
16.39
17.93
20.25
23.02
25.95
28.90
31.75
34.31
36.25
37.09
36.40
33.94
29.91
24.91
19.72
14.99
10.99
7.51
4.08
0.20
-4.42
-9.71
-15.33
-20.86
-25.89
-30.18
-33.69
-36.61
-39.38
-42.66
-47.15
-53.31
-60.94
-68.95
-75.38
-77.98
-74.89
-65.46
-50.51
-32.14
-13.04
4.30
18.23
28.08
33.98
36.51
36.26
33.84
29.78
24.68
19.30
14.39
10.60
8.30
7.45
7.71
8.56
9.56
10.52
11.52
12.76
14.27
15.69
16.36
15.43
12.37
7.21
0.58
-6.50
-13.00
-18.30
-22.38
-25.81
-29.59
-34.73
-41.96
-51.32
-61.92
-71.92
-78.90
-80.51
-75.34
-63.45
-46.48
-27.11
-8.17
8.13
20.67
29.29
34.40
36.55
36.26
34.03
30.37
25.92
21.36
17.30
14.16
12.20
11.45
11.75
12.74
14.01
15.18
16.08
16.68
17.03
17.04
16.31
14.29
10.56
5.06
-1.70
-8.87
-15.53
-21.15
-25.74
-29.82
-34.21
-39.68
-46.71
-55.28
-64.61
-73.26
-79.17
-80.21
-74.84
-62.70
-44.97
-24.10
-3.06
15.53
30.11
40.37
46.98
50.95
53.19
54.25
54.40
53.88
53.03
52.20
51.72
51.67
51.87
52.05
51.90
51.26
50.11
48.58
46.82
45.03
43.31
41.61
39.71
37.23
33.69
28.76
22.38
14.85
6.82
-0.94
-7.79
-13.49
-18.28
-22.80
-27.91
-34.45
-42.88
-53.11
-64.30
-74.89
-82.80
-85.94
-82.86
-73.27
-58.35
-40.47
-22.49
-6.94
4.69
12.12
16.05
17.57
17.77
17.33
16.66
16.00
15.57
15.57
16.19
17.55
19.65
22.41
25.69
29.26
32.79
35.85
38.06
39.17
39.18
38.27
36.71
34.63
31.92
28.30
23.51
17.47
10.46
3.07
-4.05
-10.38
-15.73
-20.30
-24.55
-29.10
-34.59
-41.50
-50.04
-59.89
-70.02
-78.72
-83.81
-83.21
-75.66
-61.30
-41.83
-20.06
0.81
18.17
30.60
37.96
41.12
41.31
39.67
37.04
33.96
30.92
28.45
27.02
26.94
28.08
29.96
31.87
33.21
33.75
33.68
33.46
33.40
33.45
33.09
31.49
27.98
22.32
14.87
6.49
-1.83
-9.32
-15.66
-21.11
-26.33
-32.13
-39.27
-48.13
-58.54
-69.47
-79.05
-84.87
-84.59
-76.83
-61.87
-41.67
-19.36
1.79
19.41
32.55
41.51
47.32
51.00
53.16
54.10
54.01
53.30
52.58
52.45
53.26
54.85
56.67
57.97
58.13
56.95
54.68
51.90
49.17
46.72
44.26
41.10
36.36
29.52
20.58
10.25
-0.38
-10.17
-18.46
-25.17
-30.92
-36.71
-43.59
-52.36
-63.14
-75.22
-86.87
-95.71
-99.21
-95.54
-84.24
-66.55
-45.06
-22.92
-2.94
13.08
24.64
32.11
36.36
38.32
38.77
38.33
37.56
36.96
36.90
37.63
39.16
41.38
44.03
46.86
49.63
52.19
54.45
56.37
57.85
58.67
58.54
57.11
54.26
50.10
45.07
39.78
34.77
30.32
26.35
22.51
18.40
13.78
8.72
3.54
-1.30
-5.49
-9.01
-12.22
-15.69
-20.00
-25.40
-31.69
-38.30
-44.43
-49.54
-53.51
-56.81
-60.30
-65.02
-71.79
-80.88
-91.70
-102.61
-111.09
-114.33
-110.05
-97.45
-77.59
-53.25
-28.06
-5.40
12.53
25.00
32.57
36.42
37.87
37.96
37.49
37.07
37.18
38.14
40.03
42.67
45.65
48.51
50.88
52.61
53.79
54.66
55.48
56.38
57.25
57.71
57.31
55.63
52.55
48.28
43.33
38.34
33.81
30.01
26.87
24.05
21.12
17.68
13.53
8.69
3.53
-1.42
-5.63
-8.80
-11.07
-13.04
-15.52
-19.21
-24.30
-30.40
-36.75
-42.50
-47.20
-50.92
-54.22
-57.90
-62.79
-69.47
-78.05
-87.93
-97.58
-104.68
-106.65
-101.47
-88.58
-69.21
-46.14
-22.78
-2.09
14.13
25.50
32.57
36.35
37.79
37.66
36.61
35.26
34.24
34.00
34.80
36.52
38.84
41.34
43.67
45.67
47.41
49.08
50.82
52.61
54.18
55.06
54.75
52.94
49.63
45.16
40.11
35.04
30.46
26.57
23.34
20.52
17.74
14.68
11.07
6.90
2.36
-2.18
-6.36
-9.92
-12.91
-15.62
-18.53
-22.04
-26.30
-31.17
-36.21
-40.94
-45.02
-48.34
-51.15
-53.93
-57.38
-62.17
-68.77
-77.11
-86.30
-94.52
-99.36
-98.46
-90.38
-75.27
-54.93
-32.33
-10.60
7.80
21.67
30.94
36.25
38.49
38.44
36.81
34.34
31.80
29.90
29.12
29.52
30.81
32.53
34.30
35.94
37.53
39.24
41.19
43.27
45.17
46.43
46.63
45.49
43.04
39.59
35.63
31.64
27.90
24.38
20.85
16.95
12.53
7.66
2.73
-1.84
-5.77
-9.07
-12.10
-15.32
-19.06
-23.38
-28.01
-32.50
-36.44
-39.70
-42.42
-44.98
-47.85
-51.52
-56.41
-62.73
-70.25
-78.11
-84.65
-87.71
-85.24
-76.13
-60.75
-41.02
-19.85
-0.17
15.88
27.43
34.70
38.50
39.71
38.99
36.81
33.63
30.02
26.70
24.33
23.27
23.57
24.95
27.03
29.48
32.10
34.75
37.28
39.43
40.92
41.50
41.05
39.53
37.03
33.68
29.64
25.16
20.56
16.12
12.01
8.26
4.70
1.18
-2.43
-6.13
-9.96
-13.97
-18.27
-22.93
-27.87
-32.88
-37.69
-42.09
-46.12
-50.05
-54.32
-59.41
-65.65
-72.92
-80.39
-86.48
-89.08
-86.14
-76.42
-60.09
-38.84
-15.37
7.37
26.99
42.12
52.32
57.81
59.13
56.91
51.96
45.16
37.49
29.83
22.81
16.76
11.73
7.70
4.59
2.37
1.04
0.56
0.83
1.66
2.79
3.90
4.70
5.04
4.90
4.43
3.85
3.29
2.71
1.92
0.58
-1.59
-4.70
-8.64
-13.07
-17.55
-21.73
-25.48
-29.01
-32.83
-37.56
-43.56
-50.69
-58.01
-63.95
-66.64
-64.51
-56.87
-44.25
-28.28
-11.23
4.63
17.66
27.06
32.81
35.36
35.28
33.07
29.18
24.15
18.65
13.41
9.05
5.88
3.84
2.70
2.19
2.20
2.84
4.23
6.37
8.90
11.18
12.37
11.83
9.32
5.15
0.05
-5.17
-9.82
-13.63
-16.82
-19.94
-23.71
-28.83
-35.70
-44.16
-53.34
-61.63
-66.98
-67.52
-62.17
-51.15
-35.97
-19.04
-2.81
10.81
20.91
27.49
31.09
32.35
31.79
29.69
26.28
21.92
17.19
12.83
9.50
7.62
7.15
7.60
8.29
8.58
8.17
7.09
5.64
4.08
2.35
0.08
-3.33
-8.36
-15.09
-23.04
-31.32
-38.85
-44.75
-48.58
-50.46
-51.10
-51.56
-53.02
-56.30
-61.44
-67.40
-72.13
-73.06
-68.00
-55.99
-37.72
-15.41
7.97
29.61
47.58
61.04
70.08
75.22
77.10
76.32
73.51
69.38
64.69
60.17
56.36
53.52
51.63
50.51
49.80
49.11
48.04
46.29
43.72
40.43
36.71
32.87
29.08
25.26
21.12
16.25
10.43
3.68
-3.63
-10.99
-17.96
-24.38
-30.40
-36.43
-43.00
-50.57
-59.45
-69.55
-80.25
-90.26
-97.62
-100.19
-96.22
-85.14
-67.88
-46.74
-24.69
-4.45
12.24
24.81
33.62
39.44
43.03
44.87
45.30
44.66
43.47
42.35
41.92
42.61
44.59
47.70
51.52
55.62
59.61
63.30
66.69
69.81
72.57
74.66
75.63
75.00
72.61
68.60
63.40
57.47
51.06
44.17
36.59
28.21
19.15
9.76
0.51
-8.24
-16.34
-23.83
-30.80
-37.29
-43.47
-49.72
-56.78
-65.60
-76.75
-89.84
-103.09
-113.56
-117.97
-113.99
-101.27
-81.76
-59.07
-37.23
-19.28
-6.44
1.78
6.89
10.43
13.30
15.61
16.91
16.64
14.34
9.74
2.80
-5.99
-15.14
-21.95
-22.83
-14.47
4.63
32.92
65.73
96.48
118.80
128.77
125.92
112.92
93.93
72.75
51.57
30.99
10.84
-8.90
-27.52
-43.88
-57.07
-66.95
-74.38
-80.88
-88.00
-96.74
-107.32
-119.20
-131.44
-142.95
-152.62
-159.33
-161.90
-159.33
-151.09
-137.57
-120.21
-101.31
-83.15
-67.00
-52.52
-37.96
-21.34
-2.09
17.92
34.67
43.60
41.83
29.86
11.62
-6.84
-19.66
-23.03
-16.18
-0.82
19.96
42.99
65.86
87.07
105.91
122.04
135.24
145.22
151.57
153.99
152.42
147.35
139.74
130.76
121.36
111.93
102.33
92.13
81.03
69.05
56.46
43.65
31.10
19.50
9.94
3.92
2.95
7.97
18.80
33.91
50.73
66.26
77.87
83.90
83.94
78.70
69.70
58.60
46.81
35.24
24.36
14.54
6.20
-0.13
-4.18
-6.19
-7.03
-7.93
-9.84
-12.98
-16.73
-20.08
-22.09
-22.29
-20.54
-16.83
-11.07
-3.19
6.41
16.58
25.44
30.92
31.59
27.20
18.88
8.57
-1.68
-10.55
-17.73
-23.87
-30.05
-37.25
-45.78
-55.03
-63.46
-68.99
-69.59
-63.89
-51.72
-34.22
-13.62
7.37
26.27
41.29
51.64
57.25
58.57
56.22
50.82
43.07
33.73
23.68
13.78
4.80
-2.73
-8.53
-12.56
-14.93
-15.85
-15.62
-14.57
-12.99
-11.13
-9.16
-7.18
-5.31
-3.74
-2.71
-2.48
-3.13
-4.57
-6.48
-8.51
-10.45
-12.35
-14.56
-17.55
-21.81
-27.64
-35.09
-43.78
-52.84
-60.87
-66.08
-66.82
-61.99
-51.63
-36.99
-20.18
-3.56
11.01
22.49
30.68
35.84
38.34
38.53
36.81
33.74
30.10
26.72
24.22
22.82
22.32
22.28
22.31
22.20
22.04
22.04
22.39
23.02
23.62
23.67
22.60
20.10
16.20
11.37
6.24
1.41
-2.90
-6.92
-11.25
-16.63
-23.71
-32.86
-44.04
-56.66
-69.49
-80.71
-88.14
-89.85
-84.84
-73.49
-57.55
-39.60
-22.22
-7.28
4.43
13.03
19.11
23.24
25.82
27.03
27.10
26.37
25.30
24.36
23.86
23.86
24.23
24.73
25.18
25.53
25.88
26.40
27.20
28.18
28.98
28.98
27.54
24.17
18.84
12.00
4.49
-2.75
-9.12
-14.50
-19.39
-24.63
-31.15
-39.53
-49.69
-60.74
-70.96
-78.22
-80.46
-76.43
-66.06
-50.66
-32.47
-14.04
2.46
15.73
25.39
31.77
35.54
37.42
38.02
37.86
37.38
36.91
36.71
36.84
37.25
37.83
38.46
39.12
39.91
40.95
42.24
43.63
44.74
45.13
44.41
42.42
39.26
35.21
30.60
25.70
20.61
15.30
9.67
3.63
-2.79
-9.44
-16.10
-22.46
-28.35
-33.68
-38.58
-43.49
-48.98
-55.66
-63.73
-72.74
-81.33
-87.50
-89.13
-84.77
-74.21
-58.65
-40.29
-21.64
-4.80
8.96
19.25
26.32
30.74
33.16
34.20
34.46
34.42
34.43
34.68
35.17
35.85
36.64
37.52
38.56
39.81
41.33
43.12
45.05
46.89
48.26
48.82
48.29
46.60
43.86
40.33
36.32
32.07
27.72
23.31
18.89
14.43
9.95
5.43
0.82
-3.93
-8.94
-14.20
-19.65
-25.07
-30.21
-34.84
-38.89
-42.50
-46.06
-50.07
-55.00
-61.19
-68.69
-77.05
-85.26
-91.74
-94.64
-92.34
-84.07
-70.38
-53.03
-34.48
-17.11
-2.59
8.48
16.33
21.63
25.07
27.18
28.36
29.00
29.43
29.98
30.83
32.01
33.45
35.06
36.77
38.51
40.21
41.65
42.55
42.62
41.63
39.57
36.71
33.46
30.27
27.43
25.01
22.85
20.74
18.46
15.91
13.07
10.00
6.76
3.45
0.14
-3.10
-6.28
-9.53
-12.98
-16.78
-20.98
-25.47
-30.09
-34.69
-39.24
-43.90
-49.04
-55.11
-62.42
-70.82
-79.37
-86.36
-89.69
-87.53
-79.10
-65.10
-47.56
-29.17
-12.41
1.23
11.33
18.35
23.03
25.95
27.42
27.64
26.93
25.79
24.79
24.40
24.86
26.13
28.00
30.25
32.65
35.09
37.40
39.38
40.85
41.62
41.65
40.98
39.70
37.89
35.62
32.91
29.82
26.45
22.93
19.45
16.15
13.20
10.75
8.90
7.67
6.94
6.43
5.83
4.88
3.46
1.63
-0.54
-3.12
-6.49
-11.23
-17.96
-26.94
-37.84
-49.50
-60.08
-67.40
-69.57
-65.55
-55.58
-41.16
-24.59
-8.26
5.99
17.21
25.26
30.44
33.08
33.40
31.56
27.92
23.12
18.04
13.55
10.23
8.24
7.34
7.17
7.38
7.81
8.46
9.35
10.43
11.47
12.07
11.83
10.47
7.94
4.51
0.62
-3.21
-6.67
-9.73
-12.63
-15.78
-19.52
-24.00
-29.11
-34.50
-39.69
-44.26
-47.95
-50.77
-53.15
-55.76
-59.35
-64.49
-71.16
-78.56
-85.14
-88.96
-88.26
-82.05
-70.55
-55.09
-37.84
-21.09
-6.67
4.40
11.91
16.29
18.17
18.18
16.78
14.38
11.40
8.34
5.81
4.31
4.17
5.36
7.56
10.27
13.07
15.75
18.29
20.75
23.00
24.71
25.36
24.50
21.97
18.03
13.27
8.39
3.90
-0.01
-3.49
-6.95
-10.86
-15.65
-21.52
-28.38
-35.63
-42.18
-46.54
-47.23
-43.25
-34.50
-21.93
-7.32
7.30
20.22
30.40
37.60
42.08
44.30
44.67
43.48
40.99
37.54
33.54
29.45
25.72
22.67
20.47
19.12
18.50
18.37
18.49
18.67
18.75
18.68
18.38
17.73
16.51
14.39
11.05
6.34
0.43
-6.22
-12.95
-19.18
-24.73
-29.86
-35.26
-41.68
-49.65
-59.26
-70.06
-81.03
-90.67
-97.20
-98.87
-94.45
-83.68
-67.56
-48.18
-28.17
-9.96
4.84
15.62
22.69
26.78
28.74
29.24
28.86
27.99
26.98
26.11
25.56
25.51
26.08
27.40
29.44
32.05
34.88
37.43
39.27
40.05
39.65
38.11
35.62
32.37
28.50
24.07
19.04
13.31
6.83
-0.33
-7.99
-15.81
-23.48
-30.72
-37.45
-43.75
-49.93
-56.50
-64.03
-72.89
-82.94
-93.19
-101.75
-106.30
-104.80
-96.26
-81.24
-61.72
-40.50
-20.31
-3.14
10.13
19.55
25.77
29.62
31.88
33.14
33.82
34.29
34.85
35.71
37.07
38.96
41.39
44.25
47.40
50.73
54.12
57.43
60.44
62.82
64.20
64.27
62.91
60.23
56.58
52.36
47.86
43.19
38.27
32.96
27.31
21.54
16.02
11.05
6.62
2.42
-2.06
-7.24
-13.28
-19.97
-26.81
-33.27
-38.99
-43.94
-48.40
-53.00
-58.55
-65.80
-75.20
-86.45
-98.26
-108.45
-114.37
-113.70
-105.32
-89.75
-69.08
-46.29
-24.36
-5.50
9.26
19.92
27.15
31.81
34.75
36.66
38.10
39.54
41.26
43.39
45.91
48.70
51.68
54.83
58.13
61.52
64.88
68.03
70.75
72.82
74.09
74.39
73.65
71.92
69.35
66.22
62.79
59.24
55.51
51.45
46.88
41.79
36.39
31.02
25.99
21.36
16.93
12.29
7.05
1.03
-5.68
-12.68
-19.54
-25.93
-31.77
-37.32
-43.13
-49.92
-58.33
-68.59
-80.16
-91.52
-100.33
-104.06
-100.79
-89.99
-72.82
-51.80
-29.99
-10.09
6.18
18.22
26.29
31.07
33.32
33.73
32.93
31.53
30.10
29.10
28.83
29.40
30.73
32.64
34.94
37.45
40.06
42.68
45.20
47.34
48.73
48.91
47.54
44.50
39.99
34.53
28.78
23.23
18.09
13.16
8.02
2.25
-4.23
-11.14
-17.87
-23.80
-28.66
-32.62
-36.38
-40.85
-46.87
-54.81
-64.35
-74.30
-82.74
-87.42
-86.40
-78.73
-64.82
-46.48
-26.27
-6.83
9.84
22.75
31.78
37.33
40.05
40.55
39.48
37.53
35.41
33.82
33.22
33.79
35.39
37.73
40.44
43.25
45.99
48.56
50.83
52.58
53.52
53.29
51.66
48.58
44.26
39.09
33.53
27.96
22.55
17.29
11.95
6.32
0.29
-6.02
-12.36
-18.42
-24.00
-29.14
-34.14
-39.48
-45.72
-53.29
-62.29
-72.21
-81.76
-89.03
-91.82
-88.41
-78.25
-62.31
-42.85
-22.78
-4.68
9.79
20.23
27.13
31.42
33.98
35.40
36.05
36.18
36.09
36.13
36.65
37.87
39.79
42.25
44.93
47.51
49.80
51.69
53.17
54.18
54.58
54.11
52.58
49.91
46.27
41.97
37.33
32.58
27.80
22.95
18.02
13.09
8.34
3.95
-0.02
-3.72
-7.44
-11.55
-16.26
-21.61
-27.34
-33.07
-38.41
-43.12
-47.29
-51.24
-55.58
-60.99
-68.03
-76.89
-87.05
-97.16
-105.12
-108.59
-105.66
-95.64
-79.37
-59.07
-37.64
-17.75
-1.23
11.27
19.98
25.66
29.17
31.26
32.58
33.64
34.83
36.37
38.28
40.43
42.65
44.83
46.94
49.05
51.23
53.50
55.80
57.97
59.75
60.81
60.85
59.63
57.16
53.63
49.46
45.13
41.05
37.33
33.85
30.25
26.18
21.51
16.35
11.08
6.12
1.80
-1.87
-5.13
-8.44
-12.23
-16.79
-22.14
-28.01
-33.97
-39.57
-44.50
-48.71
-52.49
-56.40
-61.18
-67.52
-75.71
-85.34
-95.14
-103.02
-106.62
-104.02
-94.50
-78.84
-59.21
-38.45
-19.15
-3.10
9.06
17.57
23.13
26.54
28.51
29.56
30.19
30.81
31.77
33.22
35.17
37.45
39.86
42.23
44.49
46.66
48.79
50.85
52.71
54.08
54.66
54.21
52.64
50.13
46.92
43.37
39.73
36.11
32.46
28.63
24.47
19.90
15.05
10.16
5.56
1.45
-2.18
-5.62
-9.30
-13.59
-18.58
-24.00
-29.38
-34.24
-38.37
-41.98
-45.60
-49.92
-55.53
-62.67
-71.04
-79.66
-86.93
-90.95
-90.00
-83.16
-70.68
-54.06
-35.59
-17.72
-2.35
9.49
17.74
22.89
25.71
26.93
27.16
26.83
26.33
25.94
25.89
26.31
27.28
28.82
30.83
33.20
35.71
38.11
40.15
41.68
42.60
42.91
42.57
41.46
39.46
36.48
32.58
28.02
23.20
18.50
14.23
10.46
7.11
4.00
0.92
-2.26
-5.66
-9.32
-13.21
-17.26
-21.32
-25.22
-28.84
-32.14
-35.28
-38.64
-42.76
-48.17
-55.08
-63.12
-71.20
-77.49
-80.01
-77.15
-68.37
-54.42
-37.23
-19.25
-2.75
10.75
20.72
27.41
31.47
33.59
34.31
34.05
33.13
31.91
30.75
29.99
29.86
30.46
31.78
33.68
35.97
38.40
40.75
42.81
44.48
45.69
46.40
46.56
46.04
44.75
42.67
39.93
36.81
33.66
30.67
27.77
24.65
20.89
16.18
10.54
4.26
-2.18
-8.33
-13.92
-18.86
-23.20
-27.06
-30.54
-33.85
-37.31
-41.36
-46.47
-52.91
-60.51
-68.46
-75.32
-79.33
-78.91
-73.21
-62.56
-48.47
-33.24
-19.24
-8.26
-1.13
2.36
3.07
2.02
0.02
-2.46
-5.31
-8.53
-12.06
-15.75
-19.37
-22.68
-25.39
-27.14
-27.49
-25.96
-22.26
-16.58
-9.58
-2.36
3.94
8.46
10.90
11.45
10.54
8.63
5.99
2.78
-0.89
-4.83
-8.77
-12.46
-15.77
-18.73
-21.53
-24.55
-28.17
-32.78
-38.50
-45.10
-51.71
-56.94
-59.12
-56.82
-49.38
-37.28
-22.07
-5.89
9.19
21.70
31.06
37.37
41.10
42.73
42.71
41.44
39.44
37.33
35.63
34.71
34.50
34.71
34.91
34.85
34.52
34.15
34.00
34.18
34.51
34.49
33.49
31.01
26.93
21.59
15.68
9.92
4.71
-0.01
-4.81
-10.45
-17.56
-26.41
-36.71
-47.55
-57.53
-64.95
-68.16
-66.02
-58.34
-46.00
-30.81
-15.01
-0.62
11.05
19.52
24.97
27.92
28.89
28.29
26.48
23.89
21.01
18.42
16.59
15.80
15.99
16.85
17.91
18.75
19.19
19.24
19.10
18.90
18.61
17.91
16.35
13.52
9.20
3.54
-3.01
-9.85
-16.42
-22.35
-27.53
-32.18
-36.75
-41.93
-48.41
-56.67
-66.51
-76.93
-86.08
-91.77
-92.12
-86.29
-74.82
-59.46
-42.54
-26.18
-11.78
0.10
9.59
17.03
22.82
27.20
30.45
32.84
34.76
36.57
38.55
40.83
43.36
45.99
48.58
50.95
53.03
54.77
56.12
57.02
57.40
57.20
56.35
54.86
52.74
50.04
46.73
42.85
38.48
33.82
29.14
24.74
20.73
17.02
13.27
9.11
4.28
-1.24
-7.16
-13.08
-18.65
-23.73
-28.47
-33.18
-38.40
-44.61
-52.30
-61.60
-72.13
-82.75
-91.53
-96.28
-95.12
-87.29
-73.46
-55.66
-36.55
-18.64
-3.61
7.92
16.13
21.71
25.35
27.71
29.28
30.54
31.91
33.73
36.19
39.27
42.77
46.37
49.75
52.70
55.19
57.30
59.14
60.83
62.37
63.78
65.05
66.19
67.11
67.61
67.35
66.00
63.31
59.25
53.95
47.65
40.63
33.22
25.81
18.84
12.65
7.35
2.68
-2.01
-7.45
-14.15
-22.13
-30.94
-39.83
-48.06
-55.18
-61.23
-66.69
-72.35
-79.11
-87.45
-97.19
-107.11
-115.13
-118.85
-116.36
-106.99
-91.73
-72.90
-53.42
-35.87
-21.79
-11.54
-4.64
-0.21
2.57
4.29
5.43
6.41
7.70
9.66
12.46
16.00
20.01
24.11
28.08
31.80
35.33
38.71
41.97
45.02
47.66
49.60
50.52
50.10
48.13
44.66
40.03
34.85
29.80
25.33
21.52
18.02
14.27
9.75
4.29
-1.87
-8.15
-13.89
-18.65
-22.38
-25.47
-28.59
-32.51
-37.85
-44.91
-53.54
-62.99
-71.93
-78.54
-80.97
-77.82
-68.71
-54.54
-37.23
-19.22
-2.75
10.65
20.39
26.61
29.89
30.92
30.37
28.83
26.80
24.77
23.11
22.16
22.16
23.23
25.34
28.25
31.56
34.77
37.48
39.45
40.64
41.09
40.75
39.47
36.99
33.16
27.98
21.76
14.99
8.19
1.77
-4.08
-9.39
-14.38
-19.36
-24.74
-30.93
-38.26
-46.73
-55.80
-64.19
-70.17
-71.91
-68.16
-58.80
-44.97
-28.76
-12.57
1.66
12.83
20.72
25.73
28.50
29.68
29.81
29.39
28.88
28.63
28.85
29.52
30.54
31.77
33.20
34.83
36.70
38.73
40.69
42.25
43.05
42.83
41.44
38.93
35.48
31.39
26.94
22.30
17.49
12.41
6.92
0.97
-5.28
-11.56
-17.51
-22.89
-27.69
-32.14
-36.76
-42.12
-48.73
-56.58
-65.01
-72.54
-77.25
-77.24
-71.40
-59.87
-44.09
-26.40
-9.31
5.22
16.17
23.46
27.65
29.58
30.02
29.62
28.88
28.24
28.04
28.53
29.80
31.79
34.32
37.17
40.16
43.07
45.82
48.29
50.36
51.89
52.69
52.55
51.30
48.92
45.59
41.68
37.62
33.81
30.40
27.28
24.14
20.63
16.56
12.00
7.36
3.16
-0.17
-2.55
-4.35
-6.18
-8.73
-12.39
-17.15
-22.59
-28.07
-33.10
-37.49
-41.47
-45.54
-50.38
-56.60
-64.45
-73.61
-83.00
-90.84
-95.04
-93.81
-86.33
-73.16
-56.09
-37.65
-20.29
-5.74
5.24
12.78
17.52
20.21
21.55
22.10
22.34
22.70
23.54
25.03
27.20
29.85
32.72
35.54
38.15
40.52
42.71
44.84
46.88
48.68
49.94
50.29
49.49
47.45
44.35
40.55
36.55
32.80
29.59
26.95
24.66
22.33
19.58
16.22
12.31
8.12
4.02
0.32
-2.90
-5.73
-8.49
-11.52
-15.11
-19.37
-24.14
-29.06
-33.68
-37.66
-40.97
-43.86
-46.95
-50.92
-56.37
-63.47
-71.79
-80.16
-86.80
-89.72
-87.34
-79.03
-65.49
-48.50
-30.47
-13.67
0.34
10.91
18.15
22.62
25.00
25.95
26.04
25.82
25.75
26.12
27.10
28.66
30.63
32.74
34.76
36.56
38.11
39.48
40.72
41.84
42.66
42.96
42.49
41.14
38.98
36.21
33.06
29.69
26.13
22.33
18.27
14.03
9.79
5.80
2.22
-0.98
-3.98
-7.13
-10.73
-14.92
-19.53
-24.21
-28.50
-32.10
-34.99
-37.49
-40.23
-43.95
-49.26
-56.34
-64.68
-72.99
-79.36
-81.83
-79.00
-70.57
-57.54
-41.88
-25.86
-11.47
0.13
8.56
14.05
17.10
18.34
18.33
17.66
16.81
16.15
15.86
15.95
16.38
17.14
18.34
20.11
22.48
25.32
28.30
31.04
33.20
34.65
35.36
35.41
34.79
33.43
31.18
28.01
24.06
19.68
15.32
11.35
7.94
5.04
2.41
-0.27
-3.27
-6.75
-10.67
-14.81
-18.87
-22.56
-25.69
-28.32
-30.68
-33.19
-36.35
-40.56
-46.09
-52.78
-59.97
-66.43
-70.55
-70.68
-65.78
-55.78
-41.71
-25.50
-9.34
4.86
15.97
23.70
28.41
30.77
31.46
31.06
29.97
28.54
27.10
25.95
25.37
25.51
26.37
27.81
29.61
31.50
33.32
34.96
36.37
37.50
38.24
38.38
37.68
35.93
33.04
29.15
24.63
19.99
15.72
12.12
9.15
6.49
3.64
0.14
-4.23
-9.37
-14.88
-20.20
-24.84
-28.54
-31.35
-33.61
-35.80
-38.47
-42.03
-46.72
-52.43
-58.62
-64.22
-67.75
-67.67
-62.86
-53.13
-39.44
-23.65
-8.00
5.60
16.03
23.04
27.04
28.70
28.64
27.30
25.07
22.31
19.44
16.84
14.84
13.59
13.20
13.72
15.11
17.24
19.86
22.60
25.00
26.71
27.47
27.26
26.18
24.42
22.22
19.67
16.85
13.69
10.11
6.07
1.59
-3.13
-7.83
-12.23
-16.19
-19.75
-23.15
-26.71
-30.85
-35.91
-42.06
-49.10
-56.27
-62.26
-65.40
-64.17
-57.78
-46.60
-32.12
-16.51
-1.93
10.05
18.76
24.29
27.11
27.78
26.77
24.49
21.36
17.93
14.73
12.17
10.45
9.52
9.22
9.36
9.85
10.74
12.11
13.97
16.10
17.98
18.89
18.14
15.30
10.51
4.37
-2.17
-8.26
-13.42
-17.73
-21.77
-26.35
-32.24
-39.77
-48.66
-57.86
-65.70
-70.19
-69.69
-63.43
-51.87
-36.61
-19.93
-4.11
9.15
19.06
25.59
29.26
30.76
30.75
29.76
28.20
26.42
24.69
23.26
22.33
22.06
22.51
23.60
25.12
26.79
28.28
29.39
29.98
30.06
29.59
28.51
26.61
23.61
19.28
13.58
6.78
-0.57
-7.75
-14.15
-19.47
-23.88
-27.92
-32.35
-37.92
-45.13
-54.06
-64.11
-73.98
-81.72
-85.26
-82.98
-74.39
-60.39
-43.04
-24.89
-8.23
5.57
16.08
23.56
28.54
31.55
33.00
33.33
33.04
32.68
32.72
33.42
34.74
36.48
38.32
40.06
41.61
43.09
44.66
46.41
48.30
50.01
51.02
50.78
48.88
45.26
40.30
34.66
29.08
24.12
19.92
16.20
12.39
7.95
2.57
-3.64
-10.23
-16.66
-22.44
-27.38
-31.63
-35.62
-39.97
-45.41
-52.49
-61.39
-71.54
-81.53
-89.25
-92.40
-89.30
-79.50
-64.07
-45.33
-26.13
-8.94
4.76
14.60
21.21
25.54
28.52
30.73
32.44
33.79
34.94
36.10
37.56
39.50
41.90
44.57
47.22
49.66
51.85
53.89
55.89
57.79
59.31
60.09
59.76
58.22
55.66
52.49
49.14
45.91
42.85
39.72
36.23
32.14
27.40
22.26
17.09
12.29
8.06
4.29
0.64
-3.36
-8.06
-13.56
-19.61
-25.77
-31.57
-36.76
-41.39
-45.89
-50.92
-57.22
-65.25
-74.87
-85.09
-94.05
-99.41
-99.07
-91.91
-78.26
-59.93
-39.61
-20.03
-3.24
9.75
18.95
25.00
28.77
31.09
32.61
33.83
35.12
36.62
38.34
40.10
41.65
42.85
43.72
44.52
45.61
47.28
49.58
52.23
54.71
56.38
56.76
55.69
53.34
50.02
46.11
41.82
37.25
32.42
27.42
22.43
17.69
13.37
9.44
5.66
1.68
-2.83
-7.93
-13.43
-19.00
-24.25
-28.95
-33.11
-36.90
-40.63
-44.70
-49.55
-55.57
-62.94
-71.36
-79.79
-86.49
-89.39
-86.77
-77.91
-63.49
-45.46
-26.35
-8.59
6.21
17.34
24.93
29.53
31.86
32.60
32.42
31.96
31.72
32.04
32.99
34.43
36.15
37.99
39.90
41.93
44.13
46.41
48.58
50.36
51.50
51.87
51.46
50.31
48.49
46.03
42.89
39.10
34.78
30.16
25.52
21.10
16.99
13.11
9.21
5.05
0.44
-4.60
-9.91
-15.21
-20.25
-24.84
-28.95
-32.70
-36.39
-40.41
-45.24
-51.27
-58.62
-66.86
-74.83
-80.76
-82.66
-79.09
-69.68
-55.42
-38.43
-21.28
-6.19
5.52
13.61
18.56
21.18
22.19
22.07
21.15
19.71
18.13
16.78
16.01
16.05
16.94
18.61
20.87
23.42
25.96
28.18
29.83
30.76
30.96
30.49
29.39
27.66
25.18
21.87
17.72
12.94
7.86
2.87
-1.72
-5.83
-9.58
-13.21
-16.98
-21.12
-25.79
-31.19
-37.44
-44.44
-51.62
-57.84
-61.57
-61.30
-56.13
-46.18
-32.66
-17.54
-2.90
9.58
19.00
25.17
28.38
29.12
27.94
25.33
21.82
18.02
14.54
11.90
10.45
10.21
10.93
12.20
13.60
14.89
16.04
17.22
18.53
19.88
20.84
20.76
19.03
15.39
10.08
3.82
-2.44
-7.93
-12.31
-15.86
-19.28
-23.45
-29.07
-36.35
-44.88
-53.56
-60.77
-64.71
-64.01
-58.07
-47.48
-33.72
-18.85
-4.82
7.01
16.01
22.24
26.07
27.97
28.32
27.44
25.67
23.36
20.95
18.88
17.52
17.09
17.63
18.91
20.56
22.16
23.44
24.30
24.80
24.98
24.77
23.89
21.99
18.84
14.41
9.00
3.14
-2.59
-7.72
-12.08
-15.83
-19.40
-23.41
-28.41
-34.78
-42.50
-51.05
-59.38
-65.97
-69.23
-67.87
-61.39
-50.31
-36.17
-21.08
-7.08
4.36
12.68
18.15
21.46
23.38
24.47
25.06
25.33
25.49
25.77
26.39
27.37
28.57
29.69
30.49
30.91
31.13
31.50
32.29
33.51
34.83
35.70
35.54
34.02
31.15
27.28
22.96
18.75
15.05
11.99
9.40
6.88
3.97
0.33
-4.11
-9.08
-14.11
-18.71
-22.62
-25.90
-28.96
-32.43
-36.94
-42.93
-50.40
-58.73
-66.60
-72.21
-73.74
-70.02
-60.98
-47.79
-32.50
-17.37
-4.21
6.07
13.37
18.14
21.06
22.76
23.74
24.41
25.09
26.00
27.25
28.82
30.58
32.41
34.17
35.76
37.16
38.36
39.44
40.51
41.61
42.67
43.46
43.62
42.79
40.85
37.93
34.42
30.83
27.58
24.86
22.57
20.39
17.96
15.02
11.55
7.76
4.02
0.65
-2.16
-4.50
-6.72
-9.23
-12.34
-16.12
-20.31
-24.50
-28.28
-31.45
-34.10
-36.64
-39.69
-43.91
-49.75
-57.17
-65.43
-73.09
-78.27
-79.23
-74.95
-65.54
-52.23
-36.97
-21.83
-8.41
2.35
10.18
15.28
18.09
19.19
19.21
18.76
18.36
18.37
18.89
19.90
21.29
22.97
24.89
26.99
29.18
31.35
33.42
35.29
36.89
38.08
38.70
38.55
37.53
35.68
33.20
30.41
27.61
24.97
22.44
19.85
17.00
13.85
10.52
7.23
4.21
1.54
-0.89
-3.31
-5.96
-8.97
-12.31
-15.82
-19.26
-22.45
-25.32
-27.93
-30.49
-33.38
-37.03
-41.86
-48.01
-55.05
-61.85
-66.77
-68.05
-64.53
-56.09
-43.79
-29.56
-15.55
-3.49
5.73
11.98
15.69
17.44
17.77
17.09
15.76
14.12
12.50
11.19
10.43
10.37
11.09
12.54
14.57
16.92
19.27
21.30
22.79
23.63
23.75
23.15
21.87
19.95
17.52
14.73
11.68
8.38
4.81
0.91
-3.23
-7.44
-11.45
-15.06
-18.21
-21.09
-24.10
-27.66
-32.16
-37.69
-43.88
-49.84
-54.26
-55.72
-53.16
-46.27
-35.74
-23.10
-10.21
1.28
10.35
16.75
20.76
22.95
23.82
23.75
23.03
21.89
20.62
19.49
18.73
18.46
18.73
19.51
20.72
22.23
23.86
25.32
26.30
26.55
25.98
24.63
22.71
20.40
17.82
14.95
11.65
7.76
3.24
-1.77
-6.97
-11.95
-16.40
-20.23
-23.58
-26.84
-30.51
-35.02
-40.57
-46.91
-53.32
-58.56
-61.18
-59.88
-54.05
-44.01
-31.07
-17.10
-3.97
6.98
15.18
20.71
24.01
25.59
25.90
25.34
24.37
23.49
23.13
23.55
24.68
26.25
27.88
29.29
30.37
31.19
31.91
32.63
33.35
33.92
34.13
33.73
32.51
30.39
27.40
23.71
19.62
15.50
11.68
8.38
5.58
3.02
0.24
-3.16
-7.37
-12.26
-17.36
-22.16
-26.21
-29.46
-32.20
-35.04
-38.67
-43.64
-50.07
-57.48
-64.77
-70.35
-72.58
-70.27
-63.12
-51.85
-38.07
-23.76
-10.68
-0.04
7.71
12.73
15.54
16.84
17.32
17.59
18.11
19.11
20.59
22.35
24.18
25.89
27.44
28.89
30.34
31.92
33.68
35.57
37.45
39.06
40.09
40.21
39.27
37.32
34.64
31.62
28.62
25.82
23.18
20.54
17.68
14.52
11.12
7.64
4.28
1.13
-1.89
-4.96
-8.28
-11.99
-16.04
-20.22
-24.26
-27.93
-31.09
-33.88
-36.60
-39.74
-43.83
-49.25
-56.00
-63.47
-70.44
-75.22
-76.12
-72.01
-62.84
-49.65
-34.36
-19.18
-5.95
4.28
11.29
15.50
17.64
18.47
18.60
18.58
18.77
19.39
20.51
21.99
23.65
25.30
26.90
28.52
30.31
32.33
34.53
36.67
38.44
39.54
39.77
39.07
37.49
35.20
32.41
29.31
26.05
22.75
19.45
16.18
12.98
9.85
6.78
3.69
0.46
-3.08
-7.01
-11.25
-15.57
-19.63
-23.13
-25.95
-28.27
-30.52
-33.30
-37.18
-42.54
-49.26
-56.71
-63.64
-68.43
-69.48
-65.74
-57.08
-44.46
-29.73
-15.06
-2.34
7.35
13.88
17.86
20.18
21.67
22.76
23.58
24.06
24.17
24.06
23.99
24.28
25.13
26.57
28.47
30.62
32.79
34.81
36.53
37.82
38.59
38.75
38.25
37.11
35.35
33.07
30.40
27.49
24.46
21.42
18.43
15.48
12.50
9.41
6.10
2.52
-1.35
-5.44
-9.60
-13.65
-17.39
-20.72
-23.70
-26.53
-29.58
-33.30
-38.14
-44.29
-51.51
-58.95
-65.22
-68.64
-67.83
-62.14
-51.99
-38.79
-24.49
-10.99
0.33
8.81
14.44
17.64
18.96
18.96
18.16
16.95
15.69
14.60
13.83
13.45
13.52
14.03
14.98
16.26
17.77
19.31
20.72
21.85
22.55
22.76
22.37
21.30
19.45
16.77
13.29
9.15
4.68
0.20
-3.95
-7.62
-10.76
-13.54
-16.23
-19.13
-22.58
-26.83
-31.98
-37.79
-43.53
-47.99
-49.78
-47.76
-41.55
-31.71
-19.65
-7.18
4.09
13.11
19.56
23.61
25.70
26.21
25.42
23.56
20.94
17.98
15.21
13.07
11.85
11.54
11.90
12.57
13.30
13.98
14.67
15.50
16.40
17.12
17.21
16.25
13.98
10.49
6.15
1.47
-3.08
-7.19
-10.81
-14.16
-17.61
-21.67
-26.79
-33.17
-40.49
-47.76
-53.53
-56.17
-54.45
-48.03
-37.60
-24.73
-11.36
0.81
10.65
17.76
22.32
24.83
25.83
25.79
25.05
23.83
22.33
20.75
19.35
18.39
18.11
18.54
19.54
20.77
21.87
22.56
22.78
22.65
22.35
22.00
21.51
20.62
18.95
16.22
12.30
7.38
1.84
-3.80
-9.09
-13.81
-17.94
-21.72
-25.45
-29.50
-34.22
-39.85
-46.37
-53.34
-59.75
-64.13
-65.01
-61.33
-52.99
-40.93
-26.88
-12.82
-0.43
9.27
16.04
20.23
22.50
23.53
23.88
23.93
23.87
23.85
23.97
24.38
25.20
26.45
28.03
29.71
31.26
32.54
33.52
34.33
35.05
35.64
35.91
35.54
34.27
32.00
28.87
25.19
21.38
17.77
14.48
11.40
8.29
4.80
0.70
-4.06
-9.28
-14.58
-19.53
-23.86
-27.52
-30.74
-33.99
-37.85
-42.79
-49.01
-56.17
-63.37
-69.14
-71.82
-70.08
-63.39
-52.39
-38.64
-24.17
-10.79
0.34
8.82
14.86
18.91
21.40
22.72
23.23
23.36
23.52
24.02
25.00
26.35
27.88
29.41
30.83
32.12
33.33
34.47
35.49
36.32
36.84
36.92
36.42
35.22
33.23
30.47
27.12
23.46
19.84
16.53
13.60
10.91
8.20
5.19
1.72
-2.16
-6.32
-10.50
-14.48
-18.06
-21.19
-23.96
-26.63
-29.63
-33.48
-38.61
-45.13
-52.66
-60.19
-66.29
-69.34
-68.08
-62.05
-51.77
-38.70
-24.74
-11.75
-1.07
6.76
11.94
15.10
16.98
18.22
19.24
20.26
21.40
22.74
24.34
26.19
28.24
30.33
32.32
34.08
35.57
36.86
38.05
39.18
40.18
40.85
40.88
40.01
38.09
35.21
31.65
27.80
24.04
20.60
17.57
14.85
12.30
9.74
7.02
4.01
0.60
-3.25
-7.49
-11.89
-16.16
-20.00
-23.33
-26.29
-29.35
-33.11
-38.09
-44.44
-51.72
-58.86
-64.28
-66.38
-64.02
-56.98
-46.07
-32.93
-19.51
-7.49
2.10
8.95
13.34
15.79
16.86
17.02
16.64
16.08
15.64
15.61
16.16
17.32
18.93
20.76
22.59
24.28
25.80
27.23
28.58
29.75
30.48
30.42
29.35
27.28
24.52
21.50
18.61
15.98
13.36
10.27
6.29
1.24
-4.63
-10.74
-16.46
-21.35
-25.25
-28.38
-31.14
-34.00
-37.40
-41.53
-46.22
-50.76
-53.98
-54.51
-51.29
-44.04
-33.48
-21.11
-8.75
2.07
10.53
16.46
20.17
22.07
22.53
21.83
20.29
18.36
16.54
15.29
14.93
15.51
16.89
18.76
20.75
22.50
23.78
24.49
24.68
24.42
23.73
22.52
20.60
17.77
14.01
9.55
4.81
0.26
-3.74
-7.08
-9.89
-12.53
-15.41
-19.00
-23.69
-29.67
-36.70
-43.97
-50.16
-53.70
-53.28
-48.34
-39.29
-27.40
-14.35
-1.73
9.32
18.25
24.92
29.45
32.03
32.89
32.38
30.95
29.17
27.55
26.45
26.02
26.14
26.65
27.37
28.20
29.15
30.22
31.35
32.32
32.86
32.64
31.53
29.55
26.94
24.00
20.93
17.73
14.21
10.11
5.22
-0.38
-6.38
-12.32
-17.77
-22.53
-26.60
-30.26
-33.89
-37.93
-42.75
-48.51
-55.00
-61.50
-66.78
-69.32
-67.85
-61.80
-51.65
-38.82
-25.22
-12.67
-2.36
5.29
10.55
14.03
16.39
18.15
19.64
21.05
22.51
24.08
25.77
27.59
29.50
31.45
33.39
35.28
37.07
38.73
40.25
41.60
42.71
43.42
43.52
42.81
41.21
38.83
35.94
32.90
30.04
27.48
25.14
22.81
20.22
17.26
13.95
10.53
7.32
4.60
2.53
1.03
-0.21
-1.68
-3.80
-6.84
-10.72
-15.10
-19.48
-23.44
-26.78
-29.68
-32.54
-35.91
-40.27
-45.89
-52.58
-59.64
-65.79
-69.42
-69.08
-63.95
-54.27
-41.38
-27.28
-14.06
-3.24
4.55
9.50
12.28
13.64
14.17
14.23
14.06
13.85
13.81
14.11
14.82
15.87
17.08
18.26
19.32
20.27
21.28
22.48
23.87
25.24
26.17
26.24
25.16
22.99
20.12
17.08
14.35
12.13
10.28
8.39
6.01
2.88
-0.97
-5.21
-9.43
-13.22
-16.43
-19.14
-21.66
-24.38
-27.65
-31.72
-36.66
-42.28
-47.96
-52.71
-55.23
-54.27
-49.13
-40.03
-28.17
-15.38
-3.52
6.06
12.80
16.85
18.75
19.07
18.27
16.71
14.78
12.90
11.47
10.78
10.88
11.71
13.05
14.73
16.60
18.50
20.28
21.71
22.56
22.58
21.60
19.57
16.54
12.69
8.31
3.73
-0.78
-5.05
-9.12
-13.21
-17.70
-23.03
-29.56
-37.38
-46.14
-54.91
-62.23
-66.48
-66.27
-61.03
-51.24
-38.47
-24.85
-12.48
-2.77
3.82
7.71
9.85
11.19
12.39
13.71
15.16
16.72
18.45
20.40
22.53
24.52
25.89
26.17
25.28
23.56
21.78
20.72
20.85
22.01
23.48
24.35
23.87
21.76
18.30
14.12
9.84
5.85
2.21
-1.28
-4.87
-8.80
-13.22
-18.25
-23.95
-30.15
-36.28
-41.22
-43.53
-41.93
-35.92
-26.14
-14.25
-2.35
7.83
15.50
20.82
24.56
27.43
29.74
31.38
32.02
31.59
30.33
28.81
27.54
26.84
26.72
26.98
27.37
27.72
28.00
28.31
28.70
29.14
29.40
29.18
28.12
26.07
23.12
19.57
15.90
12.43
9.25
6.14
2.72
-1.36
-6.19
-11.52
-16.91
-21.90
-26.21
-29.81
-32.88
-35.61
-38.12
-40.30
-42.02
-43.16
-43.85
-44.50
-45.73
-48.22
-52.48
-58.53
-65.76
-72.91
-78.26
-80.10
-77.25
-69.51
-57.79
-43.83
-29.73
-17.27
-7.53
-0.77
3.49
6.12
8.11
10.31
13.31
17.35
22.32
27.82
33.36
38.47
42.84
46.36
49.01
50.85
51.98
52.60
52.93
53.19
53.47
53.67
53.53
52.70
50.96
48.28
44.94
41.33
37.88
34.84
32.22
29.75
27.11
24.02
20.44
16.56
12.80
9.55
7.02
5.11
3.42
1.44
-1.32
-5.12
-9.92
-15.41
-21.09
-26.45
-31.16
-35.21
-38.90
-42.77
-47.45
-53.33
-60.35
-67.89
-74.73
-79.27
-80.01
-75.98
-67.13
-54.44
-39.60
-24.54
-10.87
0.45
9.12
15.33
19.46
21.98
23.37
24.12
24.74
25.61
26.88
28.43
30.00
31.30
32.22
32.82
33.30
33.87
34.60
35.42
36.13
36.45
36.11
34.93
32.90
30.16
26.89
23.33
19.65
16.01
12.58
9.57
7.22
5.68
4.88
4.48
3.99
2.85
0.74
-2.35
-6.10
-10.06
-13.82
-17.15
-20.07
-22.69
-25.24
-27.98
-31.23
-35.32
-40.46
-46.48
-52.60
-57.47
-59.46
-57.26
-50.37
-39.37
-25.76
-11.42
1.96
13.23
21.95
28.20
32.31
34.66
35.57
35.32
34.25
32.75
31.30
30.41
30.50
31.80
34.26
37.58
41.24
44.72
47.63
49.75
51.02
51.34
50.57
48.45
44.84
39.86
34.07
28.40
23.90
21.40
21.10
22.55
24.80
26.77
27.73
27.57
26.75
26.06
26.13
27.08
28.38
29.05
27.95
24.36
18.32
10.83
3.55
-1.66
-3.52
-1.90
1.98
5.93
7.54
5.15
-1.41
-10.61
-19.55
-24.98
-24.54
-17.82
-6.87
4.25
10.75
8.94
-2.23
-20.53
-40.99
-57.60
-65.25
-61.35
-46.41
-23.69
2.07
25.97
44.27
55.25
59.37
58.85
56.61
55.16
55.60
57.44
59.19
59.33
57.18
53.06
47.86
42.26
36.20
28.99
19.89
8.79
-3.59
-15.90
-26.76
-35.31
-41.40
-45.40
-47.97
-49.80
-51.50
-53.53
-56.14
-59.27
-62.48
-65.06
-66.20
-65.18
-61.52
-55.03
-45.92
-34.81
-22.91
-11.82
-3.37
0.99
0.61
-4.08
-11.71
-20.40
-28.13
-33.21
-34.47
-31.34
-24.02
-13.39
-0.97
11.46
22.28
30.39
35.34
37.26
36.53
33.67
29.22
23.84
18.27
13.29
9.47
6.98
5.50
4.32
2.60
-0.28
-4.53
-9.85
-15.52
-20.68
-24.57
-26.84
-27.59
-27.28
-26.56
-26.00
-25.98
-26.61
-27.81
-29.39
-31.10
-32.71
-34.02
-34.94
-35.51
-35.87
-36.18
-36.55
-36.94
-37.25
-37.39
-37.40
-37.41
-37.57
-37.98
-38.59
-39.16
-39.32
-38.68
-36.92
-33.88
-29.64
-24.53
-19.09
-13.90
-9.43
-5.86
-3.05
-0.65
1.65
3.97
6.15
7.87
8.88
9.18
9.03
8.81
8.85
9.24
9.89
10.64
11.40
12.17
12.98
13.78
14.42
14.71
14.61
14.25
13.96
14.05
14.56
15.23
15.61
15.28
14.13
12.42
10.63
9.22
8.36
7.88
7.43
6.73
5.70
4.53
3.49
2.81
2.50
2.41
2.29
1.97
1.41
0.74
0.11
-0.33
-0.51
-0.48
-0.36
-0.27
-0.31
-0.49
-0.74
-1.00
-1.21
-1.35
-1.45
-1.59
-1.76
-1.98
-2.23
-2.50
-2.76
-2.95
-2.99
-2.75
-2.19
-1.32
-0.34
0.49
0.93
0.84
0.28
-0.54
-1.34
-1.86
-1.98
-1.69
-1.15
-0.54
-0.05
0.23
0.32
0.33
0.42
0.68
1.08
1.49
1.73
1.66
1.25
0.53
-0.31
-1.08
-1.62
-1.82
-1.72
-1.47
-1.33
-1.57
-2.39
-3.79
-5.54
-7.19
-8.29
-8.56
-7.96
-6.74
-5.23
-3.74
-2.46
-1.44
-0.72
-0.31
-0.30
-0.65
-1.29
-2.02
-2.60
-2.86
-2.78
-2.49
-2.21
-2.14
-2.41
-2.99
-3.71
-4.39
-4.82
-4.95
-4.85
-4.71
-4.77
-5.17
-5.96
-7.10
-8.53
-10.17
-11.91
-13.52
-14.58
-14.53
-12.88
-9.47
-4.73
0.45
4.87
7.55
8.08
6.76
4.45
2.13
0.56
-0.02
0.17
0.68
1.10
1.33
1.54
2.05
3.04
4.43
5.81
6.64
6.50
5.29
3.35
1.30
-0.25
-0.92
-0.70
0.10
1.10
1.94
2.44
2.58
2.40
1.97
1.36
0.70
0.15
-0.12
0.03
0.60
1.44
2.30
2.95
3.28
3.35
3.38
3.64
4.32
5.46
6.91
8.36
9.48
10.03
9.95
9.37
8.49
7.48
6.37
5.04
3.28
0.99
-1.77
-4.74
-7.46
-9.50
-10.48
-10.27
-8.95
-6.81
-4.28
-1.80
0.26
1.71
2.49
2.71
2.53
2.14
1.70
1.30
0.95
0.63
0.26
-0.21
-0.73
-1.25
-1.60
-1.65
-1.33
-0.61
0.43
1.66
2.90
3.97
4.64
4.82
4.43
3.56
2.40
1.21
0.30
-0.07
0.23
1.09
2.22
3.18
3.59
3.23
2.17
0.66
-0.96
-2.42
-3.54
-4.23
-4.45
-4.22
-3.62
-2.81
-2.01
-1.42
-1.13
-1.08
-1.11
-1.06
-0.90
-0.71
-0.64
-0.80
-1.19
-1.62
-1.92
-1.94
-1.71
-1.39
-1.18
-1.20
-1.41
-1.66
-1.76
-1.62
-1.30
-0.92
-0.66
-0.59
-0.66
-0.75
-0.78
-0.73
-0.75
-1.06
-1.86
-3.25
-5.09
-7.09
-8.91
-10.30
-11.25
-11.96
-12.72
-13.69
-14.89
-16.06
-16.85
-16.92
-16.14
-14.67
-12.92
-11.45
-10.82
-11.35
-13.06
-15.69
-18.81
-21.83
-24.15
-25.11
-24.10
-20.70
-14.95
-7.38
0.91
8.65
14.70
18.43
19.87
19.54
18.16
16.36
14.47
12.61
10.70
8.73
6.73
4.85
3.24
2.02
1.21
0.76
0.62
0.78
1.29
2.11
3.11
3.92
4.14
3.44
1.80
-0.44
-2.75
-4.59
-5.66
-5.91
-5.56
-4.88
-4.04
-3.15
-2.20
-1.26
-0.39
0.30
0.81
1.24
1.66
2.13
2.53
2.70
2.46
1.77
0.73
-0.40
-1.39
-2.01
-2.14
-1.71
-0.82
0.38
1.65
2.71
3.31
3.38
2.98
2.30
1.59
1.00
0.57
0.28
0.04
-0.17
-0.33
-0.36
-0.17
0.23
0.73
1.11
1.20
0.88
0.19
-0.65
-1.41
-1.92
-2.14
-2.17
-2.08
-1.90
-1.52
-0.86
0.10
1.18
2.12
2.61
2.52
1.90
1.01
0.12
-0.50
-0.67
-0.38
0.27
1.09
1.81
2.18
2.03
1.34
0.25
-0.97
-1.98
-2.50
-2.33
-1.45
0.03
1.87
3.69
5.16
6.07
6.39
6.28
5.99
5.72
5.57
5.46
5.33
5.19
5.15
5.31
5.69
6.12
6.36
6.17
5.53
4.66
3.91
3.52
3.54
3.74
3.79
3.45
2.69
1.70
0.79
0.20
0.00
0.14
0.45
0.83
1.20
1.55
1.85
2.06
2.11
1.97
1.69
1.31
0.93
0.58
0.26
-0.03
-0.25
-0.37
-0.32
-0.06
0.42
1.04
1.72
2.33
2.76
2.94
2.89
2.66
2.35
2.09
1.91
1.84
1.79
1.71
1.58
1.44
1.40
1.55
1.89
2.33
2.73
2.94
2.87
2.54
2.01
1.37
0.73
0.13
-0.38
-0.75
-0.90
-0.82
-0.53
-0.23
-0.15
-0.50
-1.37
-2.71
-4.29
-5.84
-7.09
-7.90
-8.20
-8.04
-7.50
-6.69
-5.74
-4.72
-3.74
-2.83
-2.00
-1.28
-0.69
-0.20
0.27
0.80
1.52
2.42
3.41
4.34
5.01
5.36
5.42
5.25
4.95
4.58
4.21
3.92
3.82
4.00
4.42
4.94
5.34
5.44
5.26
4.92
4.66
4.61
4.74
4.88
4.83
4.50
3.88
3.13
2.35
1.61
0.89
0.19
-0.45
-0.91
-1.05
-0.78
-0.13
0.72
1.53
2.02
2.08
1.78
1.34
1.00
0.98
1.26
1.69
2.06
2.20
2.14
2.03
2.05
2.32
2.85
3.48
4.04
4.39
4.48
4.32
3.98
3.50
2.93
2.29
1.60
0.92
0.39
0.13
0.21
0.60
1.20
1.84
2.35
2.62
2.60
2.27
1.67
0.88
0.02
-0.73
-1.21
-1.32
-1.05
-0.49
0.18
0.80
1.27
1.52
1.61
1.58
1.50
1.40
1.33
1.33
1.48
1.88
2.62
3.69
5.08
6.71
8.54
10.55
12.60
14.42
15.54
15.48
14.02
11.35
8.14
5.30
3.66
3.61
5.07
7.51
10.24
12.53
13.83
13.82
12.48
10.05
7.02
3.87
0.83
-2.20
-5.69
-10.19
-16.06
-23.13
-30.74
-37.84
-43.31
-46.24
-46.14
-42.97
-37.18
-29.63
-21.40
-13.74
-7.77
-4.35
-3.97
-6.63
-11.88
-18.75
-25.93
-31.90
-35.36
-35.64
-32.97
-28.43
-23.52
-19.60
-17.34
-16.62
-16.84
-17.36
-17.92
-18.68
-20.02
-22.06
-24.53
-26.70
-27.73
-26.98
-24.35
-20.19
-15.20
-10.09
-5.30
-0.96
3.06
6.93
10.60
13.80
16.09
17.18
17.10
16.33
15.53
15.28
15.76
16.72
17.67
18.11
17.84
17.00
15.99
15.22
14.91
15.04
15.39
15.68
15.74
15.51
15.06
14.46
13.74
12.89
11.89
10.72
9.51
8.42
7.62
7.16
7.05
7.14
7.26
7.23
6.94
6.35
5.53
4.67
3.97
3.66
3.80
4.38
5.26
6.22
7.06
7.61
7.77
7.59
7.17
6.72
6.41
6.36
6.55
6.89
7.24
7.52
7.68
7.72
7.63
7.37
6.95
6.52
6.37
6.81
8.02
9.81
11.59
12.52
11.76
8.91
4.21
-1.48
-6.93
-10.99
-12.97
-12.80
-10.97
-8.28
-5.56
-3.36
-1.96
-1.29
-1.17
-1.36
-1.69
-2.08
-2.46
-2.79
-2.95
-2.86
-2.45
-1.79
-1.04
-0.37
0.10
0.39
0.65
1.01
1.50
2.01
2.33
2.27
1.84
1.17
0.55
0.22
0.31
0.79
1.52
2.26
2.82
3.06
2.95
2.55
1.99
1.45
1.07
0.92
0.98
1.16
1.36
1.47
1.45
1.33
1.15
0.96
0.80
0.67
0.53
0.33
-0.03
-0.62
-1.45
-2.45
-3.47
-4.26
-4.59
-4.33
-3.50
-2.34
-1.20
-0.40
-0.09
-0.19
-0.42
-0.51
-0.34
0.03
0.36
0.46
0.33
0.10
-0.00
0.17
0.63
1.24
1.85
2.33
2.67
2.89
3.03
3.12
3.13
3.03
2.82
2.50
2.11
1.72
1.41
1.26
1.27
1.41
1.56
1.60
1.44
1.09
0.59
0.01
-0.54
-0.98
-1.26
-1.37
-1.29
-1.07
-0.73
-0.28
0.26
0.80
1.29
1.55
1.45
0.87
-0.15
-1.43
-2.72
-3.69
-4.20
-4.20
-3.86
-3.35
-2.83
-2.36
-1.90
-1.46
-0.99
-0.57
-0.25
-0.09
-0.05
-0.07
-0.08
-0.04
-0.02
-0.10
-0.36
-0.77
-1.23
-1.53
-1.52
-1.10
-0.32
0.68
1.72
2.57
3.09
3.18
2.86
2.23
1.43
0.65
0.02
-0.40
-0.66
-0.87
-1.10
-1.36
-1.53
-1.50
-1.17
-0.56
0.19
0.80
1.03
0.75
-0.04
-1.11
-2.17
-2.92
-3.13
-2.76
-1.96
-0.98
-0.06
0.66
1.15
1.49
1.80
2.14
2.49
2.76
2.86
2.79
2.60
2.43
2.43
2.72
3.33
4.17
5.04
5.70
5.95
5.70
5.02
4.11
3.20
2.45
1.87
1.47
1.24
1.22
1.46
1.90
2.37
2.57
2.29
1.54
0.53
-0.40
-1.02
-1.28
-1.33
-1.36
-1.47
-1.62
-1.69
-1.62
-1.49
-1.46
-1.74
-2.43
-3.40
-4.41
-5.21
-5.60
-5.61
-5.38
-5.07
-4.80
-4.58
-4.30
-3.86
-3.24
-2.52
-1.83
-1.25
-0.78
-0.36
0.08
0.54
0.99
1.32
1.43
1.30
0.96
0.46
-0.09
-0.60
-0.97
-1.12
-1.03
-0.76
-0.40
-0.09
0.06
0.01
-0.25
-0.60
-0.90
-0.97
-0.71
-0.12
0.65
1.39
1.89
2.09
2.05
1.99
2.01
2.10
2.09
1.76
1.01
-0.03
-1.05
-1.70
-1.77
-1.34
-0.72
-0.27
-0.26
-0.73
-1.47
-2.23
-2.81
-3.12
-3.23
-3.21
-3.09
-2.79
-2.31
-1.69
-1.11
-0.75
-0.70
-0.82
-0.85
-0.52
0.25
1.28
2.17
2.57
2.30
1.52
0.64
0.13
0.28
1.06
2.08
2.76
2.51
0.86
-2.32
-6.75
-11.70
-16.14
-18.90
-19.12
-16.50
-11.54
-5.36
0.71
5.56
8.66
10.00
9.92
8.76
6.80
4.28
1.53
-1.00
-2.83
-3.68
-3.64
-3.09
-2.52
-2.30
-2.50
-2.95
-3.34
-3.43
-3.15
-2.55
-1.75
-0.86
0.07
1.02
2.02
3.06
4.09
5.04
5.85
6.49
6.96
7.32
7.55
7.62
7.44
6.98
6.32
5.66
5.21
5.08
5.18
5.27
5.10
4.55
3.70
2.82
2.15
1.87
1.97
2.31
2.74
3.11
3.40
3.60
3.76
3.89
4.05
4.23
4.44
4.64
4.73
4.66
4.37
3.97
3.57
3.32
3.24
3.24
3.10
2.70
1.99
1.17
0.46
0.07
0.04
0.22
0.40
0.43
0.28
0.08
-0.05
-0.04
0.05
0.10
0.04
-0.09
-0.18
-0.06
0.35
0.97
1.58
1.96
1.92
1.51
0.93
0.48
0.42
0.81
1.51
2.26
2.81
2.98
2.81
2.41
1.98
1.62
1.40
1.24
1.08
0.87
0.55
0.14
-0.29
-0.70
-1.06
-1.33
-1.46
-1.49
-1.43
-1.41
-1.53
-1.93
-2.65
-3.58
-4.52
-5.22
-5.50
-5.31
-4.74
-3.90
-2.88
-1.73
-0.50
0.69
1.70
2.38
2.70
2.72
2.65
2.65
2.79
3.00
3.18
3.22
3.11
2.94
2.77
2.68
2.63
2.56
2.43
2.24
2.05
1.91
1.83
1.78
1.68
1.47
1.16
0.78
0.42
0.14
-0.05
-0.22
-0.45
-0.80
-1.27
-1.80
-2.32
-2.76
-3.06
-3.23
-3.31
-3.40
-3.58
-3.92
-4.41
-4.95
-5.38
-5.56
-5.40
-4.93
-4.27
-3.56
-2.91
-2.36
-1.92
-1.55
-1.23
-0.96
-0.77
-0.66
-0.65
-0.68
-0.69
-0.60
-0.34
0.08
0.60
1.14
1.63
2.06
2.43
2.77
3.08
3.36
3.58
3.76
3.88
3.97
4.03
4.07
4.08
4.03
3.90
3.63
3.19
2.60
1.93
1.27
0.65
0.10
-0.51
-1.25
-2.16
-3.13
-3.98
-4.61
-5.01
-5.34
-5.79
-6.46
-7.21
-7.77
-7.82
-7.20
-6.02
-4.61
-3.29
-2.30
-1.61
-1.04
-0.42
0.32
1.08
1.69
2.03
2.15
2.22
2.40
2.76
3.19
3.48
3.48
3.14
2.66
2.23
2.09
2.22
2.55
2.87
3.06
3.11
3.10
3.12
3.24
3.41
3.52
3.53
3.41
3.22
3.02
2.85
2.73
2.60
2.38
2.02
1.45
0.66
-0.29
-1.28
-2.19
-2.88
-3.30
-3.49
-3.52
-3.53
-3.62
-3.84
-4.18
-4.60
-4.99
-5.30
-5.39
-5.20
-4.66
-3.75
-2.58
-1.35
-0.39
0.01
-0.30
-1.18
-2.21
-2.81
-2.54
-1.27
0.72
2.82
4.43
5.13
4.95
4.30
3.85
4.31
6.13
9.35
13.44
17.40
19.92
19.81
16.45
10.12
1.98
-6.21
-12.74
-16.46
-17.09
-15.11
-11.44
