1540407966.00
64.000000
-0.00
-0.00
-0.00
-0.00
-0.00
-0.00
-0.00
-0.00
-0.00
-0.00
0.00
0.01
0.01
-0.00
-0.03
-0.05
-0.05
0.00
0.13
0.36
0.66
1.01
1.37
1.72
2.06
2.40
2.79
3.24
3.80
4.42
5.06
5.66
6.20
6.68
7.15
7.68
8.31
9.14
10.09
11.04
11.88
12.56
13.14
13.76
14.65
15.96
17.91
20.32
22.90
25.38
27.58
29.57
31.68
34.32
37.81
42.54
48.15
54.10
59.83
64.97
69.58
74.14
79.34
85.71
93.76
102.99
112.61
121.73
129.77
136.76
143.33
150.80
157.86
166.78
178.15
192.07
207.35
221.06
228.87
226.13
209.46
177.97
134.04
81.54
24.80
-32.94
-90.17
-146.67
-202.59
-257.69
-311.09
-361.27
-407.21
-448.15
-483.46
-512.30
-533.35
-544.93
-545.31
-533.38
-508.85
-472.81
-427.28
-374.88
-318.31
-259.95
-201.66
-144.77
-90.23
-38.76
8.91
52.08
90.12
122.51
149.04
169.81
185.37
196.59
204.54
210.26
214.53
217.64
219.42
219.36
217.03
212.39
206.05
199.04
192.61
187.59
183.91
180.48
175.52
167.23
154.54
137.61
117.54
95.92
74.24
53.02
31.75
9.29
-15.67
-44.16
-76.08
-111.00
-147.14
-180.59
-205.65
-216.15
-207.96
-181.19
-140.90
-95.56
-54.01
-22.18
-1.62
9.66
14.85
16.11
13.80
7.22
-3.53
-16.72
-29.27
-38.29
-42.71
-43.90
-44.88
-49.01
-58.04
-71.22
-85.59
-96.88
-100.81
-94.03
-74.80
-43.33
-2.35
42.78
84.70
115.85
131.09
129.87
116.39
98.05
82.15
72.93
70.62
72.58
75.63
77.91
79.38
80.73
82.16
82.68
80.71
75.11
66.10
55.23
44.83
36.88
32.13
29.99
28.91
27.13
23.58
18.23
11.99
6.24
2.11
-0.03
-0.61
-0.61
-1.02
-2.39
-4.65
-7.23
-9.44
-10.85
-11.51
-11.84
-12.37
-13.38
-14.73
-15.96
-16.58
-16.37
-15.63
-15.01
-15.25
-16.74
-19.22
-21.85
-23.56
-23.62
-22.01
-19.59
-17.74
-17.74
-20.19
-24.61
-29.62
-33.48
-34.84
-33.33
-29.78
-26.04
-24.28
-26.48
-33.38
-43.89
-54.83
-61.35
-58.00
-40.54
-8.36
34.32
78.37
112.23
125.95
114.98
81.77
34.75
-14.98
-57.10
-84.50
-94.25
-87.02
-66.25
-37.36
-7.08
17.85
32.40
35.10
28.64
18.66
11.27
10.48
16.88
28.34
41.33
52.84
61.16
66.03
67.93
67.72
66.24
64.31
63.00
63.40
65.90
69.43
71.22
67.54
55.76
36.24
13.62
-4.62
-11.83
-6.09
8.08
21.91
26.84
19.40
2.67
-15.71
-28.22
-31.39
-26.59
-17.45
-6.42
6.63
22.93
41.76
58.51
65.95
58.09
34.14
-0.37
-35.70
-62.47
-75.50
-75.34
-66.88
-56.33
-48.33
-44.57
-44.32
-45.55
-46.35
-45.47
-42.69
-38.49
-33.80
-29.58
-26.49
-24.83
-24.86
-26.86
-30.59
-34.48
-35.20
-28.60
-11.90
13.94
43.37
67.94
79.89
75.90
58.57
35.02
13.18
-1.70
-8.75
-10.45
-10.11
-9.63
-8.95
-7.02
-3.23
1.71
6.20
8.77
8.72
6.74
4.49
3.80
5.57
9.69
14.93
19.67
22.69
23.59
22.98
22.10
22.15
23.71
26.52
29.67
31.96
32.49
30.92
27.40
22.71
17.57
12.46
7.50
2.49
-2.79
-8.47
-13.97
-19.20
-23.65
-26.93
-28.85
-29.51
-29.19
-28.26
-27.26
-26.16
-25.09
-23.97
-22.75
-21.43
-20.06
-18.77
-17.67
-16.87
-16.28
-15.89
-15.48
-14.88
-14.05
-13.06
-12.18
-11.69
-11.82
-12.50
-13.54
-14.48
-14.92
-14.69
-14.00
-13.42
-13.57
-14.94
-17.46
-20.64
-23.62
-25.63
-26.33
-26.09
-25.89
-26.83
-29.68
-34.43
-40.24
-45.78
-50.01
-52.39
-53.35
-53.97
-55.40
-58.62
-64.24
-72.58
-83.43
-95.44
-105.63
-109.85
-104.27
-87.32
-61.19
-31.39
-4.74
13.23
20.61
19.23
13.12
6.10
0.30
-4.17
-7.84
-10.64
-11.70
-9.65
-3.55
6.29
18.33
30.69
41.50
50.15
57.13
63.21
69.23
75.54
81.77
87.12
90.72
91.91
90.06
86.67
82.81
79.19
76.01
72.96
69.27
65.09
59.18
51.48
42.69
33.39
24.22
15.70
8.15
1.68
-3.64
-7.97
-11.03
-12.28
-11.71
-9.33
-5.22
0.41
7.26
14.96
22.91
29.77
35.88
41.04
44.95
47.36
48.12
47.17
45.58
42.54
37.83
31.60
23.80
14.58
4.33
-6.38
-16.89
-27.23
-36.44
-43.95
-49.52
-53.34
-55.55
-56.16
-55.01
-51.89
-46.53
-39.26
-30.70
-21.65
-13.14
-5.92
-0.20
4.34
8.43
12.81
17.92
23.69
29.60
34.85
38.81
41.29
42.57
43.41
44.93
48.38
54.77
64.12
74.73
83.16
85.05
76.59
56.07
24.95
-12.14
-48.62
-77.94
-95.45
-99.67
-92.40
-77.90
-61.33
-46.89
-36.47
-29.48
-23.62
-16.28
-5.65
8.79
26.07
43.91
59.77
71.83
79.02
80.81
77.01
68.37
56.94
45.44
36.20
30.24
26.94
23.91
17.93
5.93
-13.18
-35.92
-55.39
-65.04
-62.67
-50.53
-32.89
-13.29
5.48
21.67
34.11
41.76
43.80
39.23
29.86
18.48
7.74
-1.56
-10.12
-19.68
-32.72
-52.11
-79.90
-115.73
-157.25
-194.16
-217.71
-221.77
-204.10
-167.09
-117.27
-62.61
-8.74
42.35
91.57
139.93
186.25
227.04
257.44
272.36
268.64
247.45
213.83
174.78
136.79
103.43
75.85
58.68
55.95
67.19
87.81
112.30
132.16
147.07
156.64
159.76
154.77
143.01
124.86
101.73
75.89
49.64
25.00
2.02
-20.00
-41.90
-64.88
-90.32
-118.47
-148.35
-178.53
-207.24
-234.04
-259.10
-282.85
-306.23
-330.82
-358.08
-389.19
-424.68
-463.27
-501.82
-534.75
-554.97
-556.25
-535.66
-494.39
-437.47
-372.08
-305.10
-241.62
-184.20
-133.29
-88.44
-49.13
-14.85
15.09
41.78
66.57
90.61
114.40
137.73
159.75
179.78
197.89
215.08
232.87
252.28
272.97
292.50
306.86
312.06
306.10
289.90
266.87
241.45
217.25
196.46
179.04
163.61
148.75
134.14
120.57
109.24
101.10
96.38
95.46
97.65
101.31
104.42
105.67
104.82
102.86
101.70
103.05
108.61
117.69
127.20
132.66
130.43
118.79
98.54
72.71
38.23
-2.26
-41.58
-72.68
-94.43
-113.96
-138.06
-169.34
-204.19
-236.02
-256.32
-258.80
-241.44
-208.18
-161.78
-112.11
-70.98
-44.59
-30.90
-22.58
-13.65
-0.73
13.16
23.93
29.45
31.67
35.54
46.21
65.16
92.41
127.83
168.99
211.64
249.55
276.41
287.26
279.42
253.80
206.63
145.62
85.23
38.72
10.45
-2.76
-6.22
-3.71
3.18
13.85
28.48
44.55
58.36
66.74
68.66
65.85
61.01
56.20
52.55
51.24
51.08
50.02
45.97
38.08
26.65
12.36
-4.66
-25.47
-45.85
-64.63
-81.69
-97.43
-112.21
-126.52
-141.32
-157.95
-177.25
-198.12
-218.27
-233.65
-239.81
-233.33
-213.30
-181.83
-143.63
-104.64
-70.25
-44.50
-27.83
-16.77
-4.74
15.44
48.37
93.52
144.70
192.25
226.30
241.19
237.19
219.85
197.70
179.48
172.15
179.68
202.51
236.95
276.11
311.41
335.06
342.53
333.64
311.84
281.87
247.71
211.24
173.00
133.66
95.27
60.85
32.81
11.16
-7.42
-28.28
-56.92
-96.96
-149.23
-212.10
-281.88
-352.97
-417.87
-468.15
-496.88
-502.35
-490.81
-475.85
-473.50
-494.98
-540.94
-600.80
-657.56
-695.91
-708.83
-699.19
-676.21
-649.45
-624.06
-599.99
-574.62
-546.40
-516.59
-488.79
-465.94
-447.93
-431.13
-409.66
-378.22
-334.41
-279.54
-218.09
-155.70
-96.99
-44.02
3.72
48.49
92.67
137.45
182.24
224.94
262.94
294.29
318.60
337.02
351.84
365.51
379.83
395.67
413.14
432.12
452.38
473.35
493.52
510.18
519.78
519.01
506.11
481.67
448.54
410.62
371.58
333.91
298.82
266.76
238.01
212.98
191.87
174.38
159.49
145.75
131.84
117.09
101.72
86.74
73.40
62.66
54.68
48.66
42.96
35.51
24.41
8.71
-11.01
-32.52
-52.47
-67.55
-75.59
-76.38
-71.48
-63.40
-54.37
-45.55
-37.08
-28.71
-20.56
-13.27
-7.68
-4.07
-1.89
-0.02
2.42
5.44
8.46
10.97
13.52
17.91
26.31
39.75
57.19
75.64
91.60
102.62
108.32
109.98
109.34
107.24
103.26
96.38
86.00
72.48
56.99
40.72
24.32
7.87
-8.54
-24.40
-38.75
-50.54
-59.17
-64.58
-67.04
-66.96
-64.81
-61.29
-57.48
-54.66
-53.86
-55.39
-58.48
-61.89
-64.54
-66.14
-67.20
-68.63
-71.03
-74.19
-77.10
-78.36
-76.87
-72.23
-64.99
-56.44
-48.23
-41.86
-38.19
-37.17
-37.89
-38.82
-38.41
-35.63
-30.27
-22.95
-14.90
-7.46
-1.74
1.58
2.37
1.03
-1.46
-3.64
-3.78
-0.42
7.29
19.18
34.15
50.51
66.49
80.59
91.82
99.61
103.71
104.24
101.67
96.74
90.30
82.92
74.64
65.05
53.67
40.52
26.44
12.82
0.95
-8.42
-15.45
-20.82
-25.08
-28.22
-29.69
-28.73
-25.03
-19.03
-11.73
-4.30
2.44
8.27
13.45
18.44
23.53
28.63
33.38
37.28
39.96
41.34
41.70
41.55
41.41
41.61
42.19
42.98
43.64
43.88
43.43
42.13
39.76
36.20
31.50
25.86
19.71
13.39
7.08
0.70
-6.03
-13.30
-20.96
-28.43
-34.80
-39.14
-40.80
-39.69
-36.19
-31.08
-25.22
-19.32
-13.83
-9.00
-4.97
-1.85
0.15
0.87
0.31
-1.27
-3.30
-5.16
-6.32
-6.58
-6.12
-5.31
-4.48
-3.78
-3.16
-2.54
-1.98
-1.77
-2.38
-4.14
-7.07
-10.83
-14.79
-18.32
-21.04
-23.00
-24.58
-26.34
-28.75
-31.94
-35.62
-39.03
-41.24
-41.31
-38.70
-33.40
-26.00
-17.50
-9.01
-1.46
4.59
8.97
11.86
13.53
14.28
14.40
14.12
13.66
13.23
13.00
13.06
13.46
14.13
14.93
15.67
16.11
16.00
15.19
13.61
11.34
8.52
5.36
2.04
-1.24
-4.36
-7.27
-10.07
-12.93
-16.16
-19.98
-24.39
-29.02
-33.13
-35.78
-36.13
-33.73
-28.68
-21.63
-13.70
-6.17
-0.16
3.62
5.00
4.35
2.30
-0.49
-3.59
-6.82
-10.11
-13.38
-16.35
-18.72
-20.28
-21.15
-21.77
-22.80
-24.81
-28.12
-32.62
-37.83
-43.10
-47.69
-50.98
-52.34
-51.09
-46.49
-38.02
-25.70
-10.54
5.53
20.12
31.29
38.38
42.35
45.26
49.22
55.41
63.50
71.83
78.30
81.17
79.90
75.12
68.11
60.07
51.59
42.59
32.69
22.02
11.45
2.59
-2.87
-3.98
-1.01
4.64
11.02
16.50
20.30
22.41
23.27
23.25
22.48
20.92
18.60
15.77
12.86
10.24
7.95
5.63
2.64
-1.53
-6.86
-12.66
-17.77
-20.97
-21.42
-18.92
-13.94
-7.27
0.11
7.35
13.73
18.71
21.91
23.16
22.55
20.36
17.02
12.92
8.35
3.50
-1.50
-6.55
-11.60
-16.65
-21.82
-27.15
-32.57
-37.73
-41.99
-44.61
-45.09
-43.44
-40.29
-36.64
-33.45
-31.25
-30.09
-29.62
-29.38
-29.08
-28.55
-27.61
-25.89
-22.89
-18.14
-11.59
-3.72
4.47
11.82
17.33
20.53
21.51
20.87
19.57
18.50
18.34
19.31
21.22
23.49
25.49
26.73
26.96
26.32
25.16
23.91
22.92
22.39
22.35
22.65
23.10
23.49
23.68
23.57
23.10
22.26
21.32
20.96
22.23
26.12
32.79
41.11
48.78
53.22
52.87
48.11
40.91
33.75
28.08
23.56
18.55
11.39
1.70
-9.31
-19.83
-28.94
-37.43
-47.36
-60.40
-76.18
-91.78
-102.60
-104.60
-96.23
-79.24
-57.85
-36.91
-20.11
-8.98
-3.13
-1.17
-1.75
-4.04
-7.52
-11.63
-15.65
-18.97
-21.39
-23.36
-25.75
-29.33
-34.22
-39.73
-44.55
-47.29
-46.98
-43.38
-36.94
-28.58
-19.36
-10.24
-1.97
4.90
10.17
13.85
16.14
17.37
17.89
18.12
18.45
19.34
21.11
23.96
27.81
32.40
37.31
42.22
47.00
51.71
56.41
61.14
65.80
70.34
74.66
78.44
81.07
81.69
79.35
73.39
63.77
51.19
37.05
23.02
10.53
0.28
-8.01
-15.53
-23.91
-34.79
-49.28
-67.69
-89.68
-114.44
-140.85
-167.57
-192.85
-214.80
-231.88
-243.84
-252.08
-259.23
-268.04
-279.96
-294.43
-308.87
-319.65
-323.30
-317.72
-302.51
-278.91
-249.30
-216.81
-185.03
-157.30
-135.78
-120.81
-110.91
-103.00
-93.14
-77.34
-52.51
-17.64
26.07
75.61
127.10
175.84
217.71
250.40
274.51
293.10
309.71
327.03
346.03
365.98
383.43
393.85
393.27
380.07
354.87
318.93
274.20
223.96
173.02
124.79
81.36
43.69
13.18
-8.39
-20.74
-25.18
-23.91
-20.48
-21.30
-32.46
-56.90
-91.86
-122.26
-132.90
-116.92
-91.99
-70.58
-60.61
-60.71
-69.98
-86.44
-109.00
-139.57
-181.63
-226.44
-263.36
-285.95
-294.37
-294.01
-290.29
-286.48
-283.58
-288.06
-291.92
-286.20
-265.91
-231.07
-186.48
-139.16
-95.80
-59.80
-33.90
-15.60
-0.66
15.02
34.88
61.07
94.56
133.92
173.71
204.94
219.00
209.00
174.06
121.91
66.95
24.77
5.37
7.97
20.61
27.61
15.53
-20.99
-77.31
-141.49
-200.19
-243.52
-267.93
-276.05
-272.15
-260.25
-242.53
-219.85
-192.78
-163.40
-134.26
-108.30
-88.75
-75.61
-65.69
-55.03
-40.96
-22.47
-1.17
22.37
47.17
68.64
85.75
102.07
121.46
146.43
178.46
215.20
256.30
299.43
333.52
353.84
364.82
372.51
382.22
400.03
426.99
467.30
520.04
566.15
591.81
594.75
575.73
539.60
500.07
469.76
467.14
501.99
556.41
615.30
675.33
734.70
794.30
862.94
877.18
793.50
702.88
637.16
563.75
474.63
371.02
221.19
29.43
-177.07
-354.38
-474.50
-550.32
-599.29
-627.66
-639.70
-638.33
-620.91
-590.70
-547.81
-495.48
-450.77
-421.19
-401.07
-384.57
-367.92
-345.68
-318.76
-287.38
-254.39
-231.07
-221.85
-222.30
-227.77
-234.90
-237.82
-236.06
-229.75
-220.59
-214.56
-214.44
-218.63
-224.32
-227.50
-221.88
-203.01
-168.97
-122.61
-72.33
-27.17
6.68
26.97
35.66
37.83
37.89
38.06
38.17
37.07
34.29
30.66
27.84
27.10
28.53
30.87
32.46
31.92
28.98
24.48
19.89
16.64
15.47
16.13
17.59
18.57
18.16
16.19
13.19
10.11
7.84
6.84
6.99
7.66
8.16
7.96
6.96
5.45
3.89
2.69
2.07
1.95
2.11
2.29
2.29
2.08
1.70
1.26
0.83
0.47
0.23
0.16
0.30
0.65
1.16
1.70
2.09
2.22
2.08
1.79
1.59
1.69
2.21
3.08
4.03
4.73
4.92
4.55
3.92
3.54
3.90
5.30
7.54
9.98
11.73
12.17
11.20
9.54
8.42
9.03
11.95
16.67
21.69
25.22
26.00
24.13
21.12
19.49
21.18
26.73
34.65
42.01
46.04
45.84
42.98
40.51
41.09
45.04
50.15
53.25
52.55
48.85
44.59
41.47
38.37
31.71
18.38
-0.98
-20.71
-32.79
-31.98
-20.07
-6.34
-2.74
-16.83
-46.74
-81.68
-108.16
-117.99
-112.88
-103.28
-101.24
-112.69
-133.24
-150.50
-151.33
-130.08
-92.79
-54.63
-32.32
-35.68
-62.90
-101.95
-136.71
-154.55
-151.06
-130.05
-99.68
-67.13
-35.49
-4.59
25.37
50.72
64.57
60.37
36.89
1.55
-30.96
-44.35
-28.24
16.62
78.17
138.04
179.45
193.33
181.28
153.16
121.20
94.13
74.22
58.60
43.51
28.58
18.15
18.91
35.35
65.73
101.68
131.68
145.66
139.71
116.93
85.12
52.58
24.44
1.33
-19.26
-40.45
-63.66
-87.79
-109.98
-127.34
-138.34
-143.52
-145.45
-147.33
-151.88
-160.25
-171.38
-182.25
-188.83
-187.17
-174.64
-150.76
-117.41
-78.19
-37.04
3.02
40.85
77.14
113.28
150.19
187.63
224.45
259.09
289.86
314.27
328.07
325.44
301.25
254.80
192.33
126.39
70.98
35.14
18.36
11.03
0.02
-24.17
-62.44
-107.49
-148.43
-176.90
-190.48
-192.23
-186.88
-177.32
-163.37
-143.11
-115.71
-83.07
-49.58
-20.31
1.02
13.45
18.96
21.02
23.07
27.00
32.72
38.50
42.11
42.02
37.97
31.05
23.05
15.71
10.12
6.51
4.45
3.20
2.16
1.00
-0.19
-1.07
-1.09
0.26
3.43
8.58
15.24
22.56
29.28
34.33
37.13
37.58
35.51
30.17
20.25
4.88
-14.69
-34.57
-48.95
-52.57
-43.20
-23.41
0.71
22.69
38.35
46.55
47.68
41.41
25.72
-1.82
-41.15
-87.51
-131.72
-163.44
-175.54
-166.48
-141.21
-107.88
-74.14
-44.37
-19.64
0.77
17.64
30.95
40.09
44.59
44.90
42.27
38.51
35.04
32.52
30.81
29.29
27.31
24.51
21.10
17.57
14.37
11.57
8.90
5.94
2.46
-1.34
-4.97
-7.84
-9.76
-11.08
-12.64
-15.33
-19.60
-25.09
-30.75
-35.46
-38.36
-39.44
-39.40
-39.35
-40.42
-43.57
-49.56
-58.55
-69.30
-78.58
-81.54
-73.27
-51.29
-17.42
22.22
59.28
86.58
100.90
103.68
99.42
92.94
87.12
82.37
77.60
71.88
65.39
59.35
55.12
53.27
53.37
54.30
54.67
53.62
50.97
47.13
42.96
39.44
37.30
36.96
38.36
40.93
43.79
46.05
46.88
45.91
43.35
39.93
36.94
36.05
38.85
46.19
56.94
67.40
71.98
65.12
43.71
9.13
-32.59
-72.46
-101.40
-112.96
-105.04
-80.18
-44.81
-7.67
22.31
38.27
37.41
21.77
-2.65
-28.24
-48.70
-61.00
-65.53
-64.52
-60.35
-54.46
-47.44
-39.85
-32.85
-27.90
-26.09
-27.21
-29.73
-31.52
-30.91
-27.33
-21.67
-15.72
-11.27
-9.38
-9.94
-11.86
-13.62
-14.01
-12.53
-9.60
-6.23
-3.50
-2.10
-2.12
-3.04
-4.08
-4.56
-4.14
-2.92
-1.33
0.14
1.12
1.48
1.32
0.90
0.47
0.24
0.31
0.71
1.40
2.27
3.17
3.88
4.20
4.03
3.45
2.71
2.25
2.40
3.29
4.65
5.96
6.62
6.25
4.95
3.23
2.01
2.04
3.64
6.36
9.21
11.03
10.96
8.83
5.08
0.75
-3.46
-7.33
-11.43
-16.73
-24.15
-34.18
-46.60
-61.39
-77.73
-93.80
-106.39
-111.48
-105.62
-87.86
-61.08
-30.78
-3.76
14.93
23.77
24.73
21.49
17.27
13.43
9.50
4.66
-1.27
-7.15
-11.23
-12.31
-10.45
-6.80
-2.82
0.20
2.23
4.19
7.62
13.72
22.59
33.00
42.82
49.95
52.86
51.59
47.55
43.11
40.51
40.95
44.15
48.01
51.17
52.15
50.77
48.03
45.53
44.76
46.78
50.59
55.05
59.02
61.24
60.25
54.14
41.40
22.08
-1.15
-23.28
-38.54
-43.25
-37.74
-26.04
-14.06
-5.92
-2.60
-1.72
0.21
5.32
12.87
19.66
22.20
18.89
10.88
1.21
-6.98
-11.78
-13.13
-12.50
-11.54
-11.22
-11.42
-11.24
-9.93
-7.45
-4.46
-1.92
-0.47
-0.17
-0.52
-0.80
-0.32
1.26
3.72
6.55
9.03
10.58
11.11
10.92
10.68
11.02
12.26
14.25
16.54
18.48
19.42
19.06
17.21
13.85
9.21
3.79
-1.60
-5.96
-8.46
-8.82
-7.46
-5.32
-3.46
-2.53
-2.57
-3.12
-3.54
-3.41
-2.74
-1.95
-1.72
-2.88
-6.27
-12.68
-22.71
-36.54
-53.63
-72.51
-90.82
-105.70
-114.54
-115.77
-109.42
-97.11
-81.48
-65.23
-50.32
-37.59
-27.00
-18.20
-10.91
-5.08
-0.61
2.93
6.36
10.51
15.70
21.55
27.14
31.61
34.77
37.12
39.60
42.94
47.21
51.71
55.31
56.93
56.03
52.81
47.95
42.34
36.67
31.18
25.81
20.30
14.52
8.60
2.89
-2.16
-6.22
-9.26
-11.55
-13.54
-15.70
-18.32
-21.48
-25.06
-28.80
-32.35
-35.40
-37.76
-39.47
-40.98
-43.21
-47.45
-54.87
-65.82
-79.36
-93.19
-104.20
-109.38
-106.88
-96.53
-79.78
-58.98
-36.58
-14.53
5.93
23.97
38.89
50.01
56.85
59.49
58.85
56.66
54.97
55.51
59.20
65.78
74.09
82.65
90.19
95.95
99.66
101.14
100.18
96.46
89.84
80.64
69.81
58.63
48.34
39.66
32.65
26.83
21.52
16.14
10.42
4.36
-1.84
-8.02
-14.03
-19.76
-25.08
-29.74
-33.48
-36.21
-38.22
-40.28
-43.40
-48.45
-55.66
-64.47
-73.82
-82.61
-90.17
-96.46
-101.89
-106.97
-112.14
-118.04
-125.69
-136.14
-149.57
-164.28
-176.53
-181.57
-175.67
-157.82
-130.38
-98.00
-65.71
-37.15
-13.97
3.71
16.34
24.40
28.55
30.07
31.07
33.82
39.75
48.68
58.91
68.21
74.95
78.77
80.49
81.46
82.62
84.10
85.33
85.59
84.52
82.40
79.90
77.64
75.87
74.35
72.67
70.48
67.60
63.81
58.75
52.12
44.01
35.24
27.26
21.83
20.21
22.61
27.88
34.00
38.97
41.55
41.48
39.07
34.60
28.08
19.51
9.10
-2.14
-12.43
-19.89
-23.61
-24.14
-22.89
-20.97
-18.15
-13.60
-6.63
2.80
13.91
25.48
36.73
47.91
59.96
73.92
88.67
101.66
111.22
118.37
126.42
138.78
156.20
175.00
188.55
188.33
168.71
131.13
84.32
40.00
8.09
-6.41
-3.89
12.10
34.21
53.83
64.14
61.39
43.86
11.88
-32.06
-89.49
-148.18
-192.04
-214.47
-219.90
-215.25
-205.40
-192.72
-178.65
-164.35
-150.48
-139.57
-134.66
-138.05
-147.55
-159.73
-170.53
-175.46
-169.71
-149.69
-116.73
-76.87
-37.83
-5.73
16.52
30.42
36.42
38.10
39.68
42.52
45.01
45.08
42.67
39.83
39.45
43.03
49.88
57.25
62.08
63.96
66.18
73.43
87.47
105.05
119.32
124.47
119.97
111.54
108.30
117.58
141.04
173.90
207.50
233.16
244.88
240.02
218.26
180.52
129.11
68.80
8.00
-41.81
-68.63
-64.48
-27.45
37.22
117.41
197.12
261.19
299.94
311.32
299.77
269.88
226.88
176.16
122.48
69.64
21.60
-16.68
-40.41
-46.96
-43.42
-37.90
-34.98
-36.26
-43.12
-56.71
-76.52
-100.33
-125.20
-158.12
-203.05
-256.12
-309.51
-357.97
-399.49
-433.03
-457.84
-474.11
-495.94
-533.00
-583.13
-637.17
-688.50
-735.56
-779.61
-822.36
-786.95
-644.27
-433.20
-218.59
-36.62
105.86
212.22
287.24
336.64
367.78
376.55
363.10
336.47
308.67
286.33
270.60
261.19
258.19
261.77
261.75
251.33
232.51
212.22
195.17
182.17
172.14
163.78
156.31
143.75
123.73
99.35
76.75
59.68
48.61
42.50
40.18
40.90
41.13
38.44
32.96
26.44
20.25
15.46
13.27
14.74
20.20
27.75
35.01
40.34
43.30
43.81
42.22
39.02
34.52
28.71
21.27
11.86
0.24
-11.70
-21.87
-28.30
-29.79
-26.35
-19.23
-10.57
-2.67
2.81
5.26
4.88
2.60
-0.40
-3.07
-4.95
-6.61
-9.85
-17.74
-33.77
-60.49
-97.44
-140.10
-180.41
-209.11
-219.04
-207.70
-178.08
-137.33
-94.04
-55.27
-24.70
-2.50
13.55
26.33
38.06
49.69
61.10
71.82
81.60
90.62
99.28
107.74
115.39
120.88
122.58
119.30
110.89
98.17
82.63
65.79
48.75
32.05
15.81
-0.09
-15.86
-31.78
-48.34
-66.20
-85.95
-107.51
-129.34
-148.05
-159.01
-158.07
-143.66
-118.16
-87.47
-58.88
-37.90
-26.24
-21.76
-20.41
-19.10
-17.35
-17.03
-20.49
-28.52
-39.72
-51.19
-59.90
-63.56
-60.49
-49.18
-28.86
-1.06
29.05
53.00
62.02
51.58
24.62
-8.76
-35.42
-45.41
-36.50
-14.53
10.26
28.83
37.21
37.29
33.93
31.38
30.81
30.32
26.89
18.49
5.44
-9.71
-23.49
-33.21
-37.86
-38.06
-35.07
-29.69
-21.79
-10.64
4.19
21.96
40.51
57.18
70.08
79.10
85.96
93.07
101.89
111.83
120.39
124.33
121.46
111.72
97.07
80.72
65.73
53.94
45.60
39.76
35.04
30.35
25.06
18.95
11.97
4.07
-4.73
-14.05
-22.97
-30.05
-33.83
-33.54
-29.59
-23.57
-17.62
-13.38
-11.14
-9.70
-6.97
-1.34
7.41
17.69
26.85
32.31
32.78
28.71
22.13
15.79
12.25
13.21
19.25
29.80
43.30
57.31
68.76
74.50
72.26
61.52
44.08
23.58
4.32
-10.28
-18.78
-21.99
-22.19
-22.04
-23.54
-27.59
-34.02
-41.92
-49.88
-56.26
-59.42
-58.17
-52.24
-42.41
-30.26
-17.48
-5.28
5.86
15.89
24.86
32.47
38.26
41.90
43.62
44.21
44.77
46.24
49.01
52.93
57.52
62.26
66.58
69.91
71.68
71.60
70.16
69.03
70.91
78.61
93.56
114.44
136.74
153.88
159.38
149.21
122.99
83.58
35.55
-16.44
-68.29
-115.96
-154.82
-179.70
-186.26
-173.12
-143.25
-103.69
-63.27
-29.46
-6.03
7.46
14.20
17.93
21.15
24.54
27.56
29.53
30.45
31.15
32.85
36.54
42.47
50.00
57.98
65.15
70.84
75.14
78.84
83.05
88.62
95.88
104.33
112.99
120.69
126.52
130.12
131.77
132.25
132.60
133.73
136.08
139.20
141.67
141.12
134.90
120.71
97.52
66.05
28.93
-9.88
-45.97
-75.53
-96.14
-107.09
-109.10
-103.72
-92.77
-78.02
-61.14
-43.87
-27.94
-14.89
-5.49
0.56
4.83
9.53
16.66
26.86
38.76
49.18
53.90
49.07
32.43
4.15
-32.73
-72.79
-109.24
-135.44
-146.57
-140.99
-120.65
-90.47
-56.79
-25.55
-0.82
15.60
23.72
24.52
19.22
9.15
-4.36
-18.60
-31.16
-40.08
-44.67
-45.67
-44.84
-44.20
-45.05
-48.07
-52.26
-56.71
-60.81
-64.43
-67.81
-71.29
-75.23
-79.28
-84.10
-88.02
-90.50
-91.19
-90.07
-87.56
-84.58
-82.35
-81.55
-85.49
-90.86
-97.18
-103.81
-110.14
-115.58
-119.59
-122.10
-122.18
-125.65
-126.26
-124.53
-121.12
-116.72
-112.28
-108.88
-108.56
-110.04
-121.96
-132.41
-139.91
-143.97
-145.65
-147.35
-151.72
-162.85
-177.79
-207.20
-235.10
-259.44
-279.24
-295.33
-310.25
-327.42
-353.76
-309.85
-294.17
-289.53
-292.34
-297.84
-300.25
-293.33
-271.73
-237.38
-184.93
-131.49
-70.63
-9.00
49.99
106.61
162.92
249.98
320.19
375.04
397.97
395.04
367.78
324.25
276.25
235.08
207.89
191.12
187.66
186.03
188.05
191.00
194.10
197.25
200.00
201.27
196.18
189.00
177.04
164.73
153.41
143.83
135.51
126.78
115.49
97.70
76.58
53.22
32.57
18.55
13.54
17.30
27.04
38.56
46.89
51.37
51.90
49.88
47.10
44.72
42.96
41.33
39.15
35.57
31.09
26.03
20.93
16.35
12.75
10.40
9.20
8.78
8.50
7.74
6.04
3.30
-0.28
-4.34
-8.50
-12.53
-16.33
-19.85
-23.14
-26.25
-29.31
-32.59
-36.44
-41.05
-46.24
-51.22
-54.75
-55.49
-52.64
-46.23
-37.20
-27.03
-17.15
-8.48
-1.19
5.03
10.66
16.04
21.22
26.06
30.47
34.50
38.34
42.23
46.30
50.50
54.63
58.40
61.52
63.82
65.17
65.48
64.74
62.99
60.40
57.29
54.04
51.04
48.52
46.39
44.26
41.49
37.30
31.06
22.51
12.05
0.69
-10.05
-18.63
-24.00
-25.91
-24.96
-22.27
-19.03
-16.10
-13.82
-12.16
-10.98
-10.19
-9.88
-10.14
-10.88
-11.88
-12.79
-13.32
-13.41
-13.26
-13.16
-13.32
-13.78
-14.35
-14.88
-15.32
-15.86
-16.76
-18.17
-20.01
-21.97
-23.74
-25.24
-26.67
-28.41
-30.79
-33.85
-37.31
-40.70
-43.56
-45.48
-46.09
-45.07
-42.14
-37.30
-31.05
-24.18
-17.61
-11.89
-6.96
-2.29
2.60
7.72
12.42
15.72
17.02
16.59
15.66
15.88
18.53
23.87
31.04
38.48
44.67
48.75
50.69
51.11
50.84
50.44
50.13
49.78
49.22
48.42
47.52
46.69
46.00
45.31
44.31
42.82
40.94
39.26
38.68
40.10
44.00
50.20
57.96
66.20
74.04
80.96
86.83
91.74
95.72
98.60
100.10
100.09
98.67
96.22
93.13
89.52
85.16
79.46
71.69
61.28
47.88
31.49
12.44
-8.55
-30.43
-51.81
-71.26
-87.62
-100.43
-110.05
-117.49
-123.99
-130.50
-137.47
-144.88
-152.54
-160.34
-168.30
-176.30
-183.73
-189.33
-191.44
-188.58
-180.18
-166.86
-150.26
-132.44
-115.12
-99.17
-84.52
-70.46
-56.17
-41.19
-25.58
-9.82
5.49
19.84
32.98
44.89
55.60
65.23
73.74
80.90
86.25
89.18
89.10
85.61
78.58
68.19
54.93
39.40
22.34
4.57
-13.07
-29.77
-44.88
-57.90
-68.47
-76.14
-80.31
-80.38
-76.06
-67.79
-56.85
-45.12
-34.49
-26.27
-20.89
-18.04
-17.15
-17.76
-19.79
-23.35
-28.34
-34.20
-39.88
-44.24
-46.50
-46.67
-45.48
-44.10
-43.57
-44.36
-46.28
-48.68
-50.88
-52.41
-53.27
-53.75
-54.29
-55.20
-56.51
-58.01
-59.21
-59.47
-58.18
-54.86
-49.32
-41.71
-32.55
-22.54
-12.39
-2.63
6.38
14.45
21.48
27.37
31.98
35.15
36.79
36.88
35.53
32.93
29.43
25.60
22.27
20.48
21.08
24.52
30.47
37.82
44.94
50.27
52.72
52.05
48.69
43.41
36.90
29.51
21.29
12.24
2.59
-7.09
-15.95
-23.09
-27.76
-29.50
-28.17
-24.00
-17.60
-9.99
-2.63
2.74
4.65
2.37
-3.47
-10.71
-16.16
-16.43
-8.84
7.84
33.28
65.56
101.38
136.31
165.33
183.77
188.39
178.43
155.86
124.80
90.16
56.14
25.44
-0.87
-22.61
-39.78
-52.14
-59.28
-60.97
-57.54
-49.93
-39.41
-27.20
-14.17
-0.69
13.12
27.03
40.42
52.37
61.83
68.07
71.01
71.15
69.45
66.84
63.92
60.90
57.54
53.32
47.65
40.05
30.46
19.44
8.05
-2.38
-10.72
-16.39
-19.54
-20.90
-21.42
-21.93
-22.92
-24.58
-26.85
-29.51
-32.14
-34.14
-34.76
-33.34
-29.54
-23.52
-15.92
-7.62
0.69
8.74
16.75
25.10
33.96
42.95
51.20
57.55
61.03
61.38
59.06
55.09
50.62
46.41
42.65
39.05
35.17
30.70
25.74
20.68
15.98
11.97
8.70
5.90
3.13
-0.01
-3.80
-8.29
-13.24
-18.09
-22.05
-24.22
-23.85
-20.58
-14.52
-6.35
2.92
12.24
20.78
28.13
34.23
39.27
43.44
46.74
49.02
50.06
49.87
48.75
47.43
46.76
47.51
49.96
53.79
58.12
61.91
64.40
65.46
65.74
66.31
68.19
71.83
76.85
82.26
86.90
90.03
91.51
91.92
92.29
94.09
99.13
109.30
126.12
149.81
178.67
208.68
234.28
249.69
250.53
234.87
203.32
158.23
102.54
39.10
-29.36
-99.48
-166.64
-225.04
-268.71
-293.42
-298.33
-286.86
-265.81
-243.13
-225.20
-214.88
-211.19
-210.80
-210.19
-207.68
-204.07
-201.71
-202.76
-207.65
-214.53
-220.05
-220.74
-214.36
-200.49
-180.08
-154.69
-125.79
-94.56
-62.18
-30.21
-0.76
23.97
42.30
53.86
59.82
62.59
64.99
69.33
76.62
86.39
97.04
106.61
113.55
117.16
117.60
115.49
111.51
105.99
98.86
89.90
78.99
66.37
52.51
38.03
23.38
8.78
-5.78
-20.22
-34.06
-46.39
-55.99
-61.78
-63.24
-60.59
-54.65
-46.49
-37.11
-27.31
-17.81
-9.33
-2.58
1.89
3.94
3.97
2.78
1.35
0.32
-0.09
-0.20
-0.62
-2.03
-4.81
-8.97
-14.13
-19.73
-25.15
-29.95
-33.83
-36.59
-38.15
-38.46
-37.71
-36.32
-34.88
-33.90
-33.59
-33.58
-33.05
-31.08
-27.07
-21.07
-13.75
-6.18
0.59
5.90
9.51
11.57
12.50
12.80
12.98
13.40
14.21
15.15
15.80
15.80
15.34
15.32
17.27
22.76
32.85
47.67
66.25
86.86
107.38
125.80
140.45
150.28
154.80
154.12
148.82
139.69
127.51
113.02
96.96
80.27
64.07
49.51
37.42
27.96
20.63
14.53
8.82
3.12
-2.48
-7.60
-11.91
-15.50
-18.84
-22.63
-27.36
-33.18
-39.63
-45.93
-51.19
-54.76
-56.52
-56.92
-56.74
-56.77
-57.52
-59.03
-60.99
-62.97
-64.74
-66.34
-67.93
-69.66
-71.42
-72.96
-74.02
-74.53
-74.56
-74.14
-73.01
-70.51
-65.86
-58.51
-48.57
-36.87
-24.80
-13.76
-4.72
1.93
6.35
8.92
9.99
9.82
8.59
6.58
4.27
2.30
1.20
1.28
2.45
4.32
6.36
8.16
9.58
10.89
12.65
15.44
19.58
24.87
30.70
36.30
41.20
45.45
49.55
54.07
59.14
64.30
68.52
70.73
70.17
66.38
58.95
47.29
30.79
9.64
-14.46
-38.07
-56.88
-67.42
-68.29
-60.94
-48.87
-36.14
-25.98
-20.32
-19.99
-25.22
-35.76
-50.38
-66.54
-80.57
-88.69
-88.34
-79.28
-63.74
-45.67
-29.57
-19.18
-16.58
-21.73
-32.66
-46.17
-59.02
-68.99
-75.55
-79.60
-82.50
-84.99
-86.57
-85.73
-81.26
-72.92
-62.00
-50.59
-40.71
-33.35
-28.37
-24.93
-22.17
-19.78
-18.01
-17.28
-17.70
-18.77
-19.55
-19.12
-17.14
-14.07
-11.15
-9.96
-11.91
-17.89
-28.06
-41.91
-58.46
-76.42
-94.38
-110.98
-124.99
-135.38
-141.37
-142.52
-138.63
-129.88
-116.88
-100.65
-82.46
-63.64
-45.37
-28.43
-13.15
0.59
13.22
25.19
36.76
47.79
57.64
65.29
69.65
69.90
66.02
59.21
51.94
47.58
49.40
59.43
77.43
100.71
124.73
144.55
156.31
158.36
151.35
137.57
119.88
100.78
82.08
64.85
49.82
37.50
28.17
21.68
17.36
14.10
10.71
6.47
1.47
-3.33
-6.39
-6.26
-2.20
5.42
15.21
25.14
33.36
38.79
41.46
42.31
42.57
43.16
44.34
45.71
46.66
46.85
46.46
46.14
46.59
48.18
50.76
53.79
56.68
59.18
61.45
63.87
66.75
70.03
73.30
75.93
77.34
77.03
74.60
69.61
61.77
51.10
38.42
25.31
13.74
5.48
1.36
1.10
3.66
7.76
12.50
17.44
22.53
27.62
32.38
36.30
38.96
40.04
39.44
37.10
33.09
27.54
20.81
13.58
6.78
1.26
-2.43
-4.25
-4.70
-4.57
-4.65
-5.50
-7.27
-9.86
-12.98
-16.36
-19.73
-22.89
-25.54
-27.38
-28.24
-28.21
-27.77
-27.65
-28.55
-30.81
-34.29
-38.32
-41.78
-43.49
-42.41
-38.05
-30.59
-21.02
-10.80
-1.63
5.18
8.92
9.70
8.19
5.27
1.74
-1.99
-5.74
-9.46
-12.96
-15.88
-17.84
-18.59
-18.22
-17.12
-15.79
-14.62
-13.78
-13.14
-12.54
-11.92
-11.40
-11.27
-11.79
-13.02
-14.78
-16.77
-18.61
-20.07
-21.11
-21.91
-22.83
-24.26
-26.51
-29.62
-33.22
-36.52
-38.50
-38.15
-34.89
-28.80
-20.60
-11.54
-2.90
4.28
9.46
12.58
13.92
13.89
12.88
11.25
9.33
7.40
5.64
4.20
3.07
2.23
1.66
1.43
1.61
2.23
3.19
4.19
4.79
4.62
3.44
1.29
-1.59
-4.82
-8.09
-11.10
-13.72
-15.94
-17.82
-19.55
-21.43
-23.67
-26.34
-29.07
-31.08
-31.37
-29.09
-23.89
-16.12
-6.83
2.70
11.19
17.80
22.21
24.44
24.78
23.59
21.31
18.40
15.38
12.66
10.46
8.70
6.95
4.67
1.44
-2.85
-7.92
-13.18
-17.90
-21.54
-23.81
-24.78
-24.68
-23.88
-22.67
-21.32
-20.02
-18.93
-18.17
-17.85
-18.10
-19.03
-20.76
-23.33
-26.59
-30.11
-33.18
-34.84
-34.15
-30.51
-23.85
-14.73
-4.21
6.47
16.21
24.23
30.12
33.77
35.24
34.72
32.55
29.27
25.56
22.06
19.27
17.41
16.40
15.97
15.84
15.75
15.55
15.13
14.51
13.63
12.49
11.04
9.28
7.18
4.75
2.02
-0.91
-3.82
-6.54
-8.96
-11.13
-13.30
-15.84
-19.02
-22.76
-26.53
-29.33
-30.07
-27.86
-22.44
-14.25
-4.40
5.73
14.92
22.31
27.62
30.93
32.56
32.80
31.86
29.92
27.27
24.36
21.68
19.69
18.62
18.34
18.44
18.41
17.86
16.68
15.03
13.19
11.44
9.85
8.27
6.38
3.89
0.77
-2.76
-6.24
-9.18
-11.26
-12.43
-13.01
-13.45
-14.27
-15.85
-18.38
-21.78
-25.67
-29.32
-31.78
-31.98
-29.16
-23.07
-14.15
-3.51
7.37
17.03
24.43
29.05
30.96
30.70
28.94
26.35
23.46
20.64
18.13
16.13
14.81
14.24
14.38
14.97
15.61
15.88
15.49
14.37
12.71
10.85
9.05
7.37
5.58
3.31
0.30
-3.40
-7.29
-10.61
-12.64
-13.09
-12.25
-10.95
-10.14
-10.54
-12.36
-15.23
-18.41
-21.08
-22.58
-22.59
-20.94
-17.49
-11.95
-3.98
6.54
19.12
32.53
45.07
55.08
61.53
64.30
63.99
61.51
57.79
53.67
50.25
48.95
51.21
57.82
68.10
79.74
89.39
94.03
92.01
83.80
71.52
57.89
45.05
33.90
24.09
14.67
4.90
-5.35
-15.51
-24.76
-32.53
-38.79
-43.96
-48.66
-53.21
-57.50
-61.17
-63.92
-65.80
-67.25
-68.74
-70.32
-71.51
-71.43
-69.27
-64.86
-58.73
-51.95
-45.71
-40.81
-37.47
-35.45
-34.23
-33.28
-32.28
-31.12
-29.96
-29.23
-29.45
-30.98
-33.88
-37.77
-41.87
-45.23
-46.95
-46.55
-44.17
-40.66
-37.46
-36.12
-37.77
-42.67
-50.03
-58.35
-66.06
-72.17
-76.39
-78.93
-79.95
-79.29
-76.54
-71.39
-64.03
-55.04
-45.19
-34.81
-23.70
-11.35
2.55
17.57
32.55
45.89
56.16
62.58
65.20
64.71
62.08
58.35
54.38
50.85
48.23
46.79
46.50
47.14
48.33
49.66
50.73
51.26
51.00
49.77
47.42
43.90
39.29
33.91
28.17
22.49
17.18
12.42
8.27
4.65
1.42
-1.72
-5.09
-9.00
-13.49
-18.15
-22.18
-24.49
-24.07
-20.32
-13.36
-4.04
6.24
15.96
24.01
29.94
34.09
37.30
40.48
44.07
47.96
51.56
54.27
55.78
56.19
55.78
54.75
53.03
50.34
46.48
41.56
36.00
30.30
24.71
19.13
13.33
7.10
0.48
-6.22
-12.78
-19.27
-26.00
-33.37
-41.52
-50.15
-58.60
-66.15
-72.41
-77.47
-81.92
-86.42
-91.53
-97.40
-103.67
-109.60
-114.14
-116.28
-115.37
-111.49
-105.55
-99.19
-94.25
-92.04
-92.65
-94.58
-94.96
-90.44
-78.34
-57.56
-28.96
5.14
41.72
77.91
111.43
140.72
164.86
183.71
198.00
209.25
219.05
228.06
235.11
237.40
231.74
216.59
193.36
166.40
141.50
123.53
114.91
115.25
122.37
133.59
146.57
159.45
170.39
177.76
180.49
178.87
174.71
170.54
168.28
167.97
167.59
163.82
153.73
135.95
111.17
81.67
50.31
19.67
-8.51
-33.65
-56.44
-78.72
-103.05
-131.96
-166.85
-207.32
-250.98
-294.17
-333.05
-364.75
-387.97
-402.94
-411.06
-414.16
-414.25
-413.12
-411.99
-411.25
-409.85
-405.12
-393.22
-370.10
-332.83
-280.92
-216.84
-145.56
-73.31
-5.67
53.71
103.58
144.61
178.49
207.01
231.48
252.61
270.53
285.24
296.60
304.26
307.68
306.35
299.97
288.51
272.14
250.70
224.26
193.06
157.36
117.73
75.44
32.44
-9.03
-46.99
-81.05
-111.15
-137.77
-162.06
-185.38
-208.41
-230.89
-251.63
-268.85
-281.76
-288.55
-287.39
-278.09
-262.76
-245.09
-229.27
-218.34
-212.49
-210.12
-205.59
-192.15
-165.61
-126.38
-78.62
-28.33
18.90
67.81
112.42
144.11
159.25
160.28
151.52
136.79
119.13
100.88
84.42
69.65
57.08
47.27
40.49
35.81
32.39
29.74
27.56
26.86
27.01
28.01
30.15
33.88
39.87
49.65
65.44
84.75
107.14
129.89
149.25
161.23
163.38
155.86
141.56
124.56
109.08
100.63
101.28
109.18
119.49
126.83
127.42
119.98
105.37
87.24
73.86
72.10
84.66
109.62
142.76
179.79
217.37
252.66
265.23
243.39
191.48
126.60
64.53
12.61
-28.26
-56.56
-78.69
-98.57
-115.03
-126.22
-131.83
-133.47
-132.58
-129.84
-125.94
-122.68
-120.98
-119.41
-116.86
-113.85
-112.31
-113.59
-117.41
-121.88
-125.02
-124.38
-117.50
-103.88
-85.51
-65.95
-48.29
-34.04
-23.18
-15.18
-8.98
-3.35
2.11
7.00
10.54
12.49
13.19
13.38
13.40
13.45
13.65
13.98
14.50
15.22
16.16
17.08
17.53
16.91
14.99
12.03
8.66
5.75
3.87
3.11
3.02
2.85
1.78
-0.88
-5.53
-12.39
-21.23
-31.33
-41.36
-49.50
-53.94
-53.42
-47.72
-37.67
-24.92
-11.33
1.59
12.88
22.14
29.25
34.21
37.11
38.19
37.98
37.13
36.28
35.77
35.58
35.35
34.66
33.27
31.21
28.76
26.30
24.13
22.28
20.66
19.05
17.23
15.08
12.57
9.79
6.89
4.05
1.34
-1.30
-4.14
-7.54
-11.92
-17.46
-23.98
-30.78
-36.69
-40.33
-40.45
-36.42
-28.43
-17.49
-5.16
6.92
17.49
25.86
31.94
35.96
38.28
39.19
38.92
37.67
35.71
33.42
31.29
29.78
29.19
29.57
30.69
32.11
33.41
34.30
34.71
34.69
34.30
33.48
32.05
29.77
26.53
22.41
17.60
12.36
6.86
1.22
-4.41
-9.85
-14.94
-19.48
-23.44
-26.94
-30.31
-33.93
-38.28
-43.74
-50.38
-57.84
-65.08
-70.61
-72.84
-70.60
-63.58
-52.53
-38.96
-24.74
-11.47
-0.23
8.58
15.04
19.45
22.21
23.71
24.23
24.11
23.63
23.11
22.78
22.75
22.99
23.31
23.44
23.06
22.04
20.31
18.00
15.30
12.39
9.42
6.40
3.29
-0.00
-3.59
-7.53
-11.76
-16.09
-20.34
-24.33
-28.00
-31.34
-34.34
-36.90
-38.89
-40.27
-41.14
-41.84
-42.71
-43.90
-45.01
-45.06
-42.80
-37.06
-27.32
-13.80
2.49
20.19
37.78
53.93
67.49
77.60
83.78
85.96
84.62
80.55
74.72
67.87
60.60
53.22
46.09
39.63
34.35
30.62
28.51
27.76
27.79
27.94
27.67
26.60
24.57
21.55
17.59
12.82
7.44
1.64
-4.35
-10.33
-16.10
-21.48
-26.35
-30.61
-34.17
-37.00
-39.16
-40.79
-42.18
-43.69
-45.64
-48.25
-51.44
-54.69
-57.11
-57.60
-55.08
-49.00
-39.50
-27.51
-14.44
-1.84
9.09
17.71
23.93
28.02
30.41
31.44
31.43
30.70
29.56
28.34
27.31
26.61
26.31
26.40
26.79
27.36
27.91
28.21
28.02
27.18
25.68
23.65
21.28
18.70
15.97
12.97
9.58
5.74
1.56
-2.71
-6.78
-10.43
-13.56
-16.23
-18.56
-20.78
-23.15
-25.90
-29.15
-32.76
-36.25
-38.74
-39.23
-36.84
-31.10
-22.19
-10.88
1.64
14.11
25.43
34.94
42.38
47.90
51.88
54.67
56.52
57.42
57.28
55.95
53.41
49.82
45.42
40.54
35.36
29.97
24.34
18.48
12.53
6.70
1.21
-3.77
-8.34
-12.73
-17.20
-21.90
-26.75
-31.44
-35.60
-39.03
-41.80
-44.25
-46.85
-49.89
-53.45
-57.29
-60.86
-63.41
-64.07
-62.05
-56.82
-48.36
-37.25
-24.60
-11.86
-0.38
8.83
15.29
19.04
20.46
20.18
18.84
17.06
15.38
14.10
13.32
12.97
12.90
12.92
12.91
12.77
12.40
11.70
10.49
8.49
5.50
1.39
-3.71
-9.47
-15.40
-21.01
-25.90
-29.89
-33.10
-35.82
-38.44
-41.27
-44.43
-47.74
-50.71
-52.49
-52.10
-48.69
-41.76
-31.54
-18.96
-5.50
7.27
18.01
25.94
30.92
33.17
33.18
31.38
28.19
24.09
19.70
15.79
13.10
12.23
13.35
16.20
20.12
24.21
27.64
29.81
30.49
29.82
28.20
26.13
24.05
22.22
20.70
19.37
17.93
16.11
13.71
10.86
7.98
5.85
5.47
7.68
12.91
20.88
30.65
40.80
49.83
56.44
59.79
59.54
55.88
49.54
41.69
33.81
27.31
23.22
21.88
22.98
25.82
29.67
34.05
38.87
44.28
50.41
57.26
64.62
72.10
79.20
85.37
90.15
93.29
94.92
95.60
96.25
97.83
100.98
105.65
110.92
114.98
115.52
110.12
97.13
76.22
48.74
17.66
-13.10
-39.72
-59.49
-71.53
-76.81
-77.46
-75.85
-73.82
-72.26
-71.30
-70.87
-71.04
-72.24
-74.89
-79.10
-84.36
-89.65
-93.80
-95.92
-95.78
-93.72
-90.48
-86.78
-83.18
-80.04
-77.69
-76.42
-76.62
-78.44
-81.72
-85.89
-90.16
-93.79
-96.35
-97.82
-98.60
-99.23
-100.25
-101.87
-103.97
-105.96
-106.90
-105.72
-101.51
-93.92
-83.42
-71.23
-59.01
-48.47
-40.81
-36.40
-34.79
-34.87
-35.24
-34.64
-32.33
-28.24
-23.00
-17.62
-13.18
-10.49
-9.86
-11.18
-14.06
-18.13
-23.23
-29.45
-37.07
-46.34
-57.32
-69.66
-82.67
-95.45
-107.15
-117.28
-125.75
-132.84
-138.92
-144.18
-148.47
-151.27
-151.64
-148.28
-139.54
-123.81
-99.95
-68.07
-29.85
11.44
51.67
86.86
114.24
132.94
143.85
149.04
150.77
150.72
149.55
147.09
142.74
136.18
127.69
118.17
108.88
100.93
94.89
90.80
88.45
87.59
88.08
89.70
91.84
93.44
93.10
89.58
82.21
71.16
57.35
42.30
27.77
15.64
7.84
6.17
12.00
25.99
47.73
75.75
107.75
141.19
173.75
203.78
230.28
252.72
270.67
283.65
291.03
292.18
286.72
274.53
255.86
231.28
201.69
168.41
133.28
98.52
66.26
38.12
14.65
-4.76
-21.46
-36.97
-52.37
-67.98
-83.51
-98.42
-112.19
-124.54
-135.36
-144.62
-152.35
-158.61
-163.65
-167.85
-171.67
-175.43
-179.18
-182.49
-184.62
-184.73
-182.26
-177.27
-170.56
-163.45
-157.34
-153.31
-151.78
-152.44
-154.52
-156.92
-158.61
-158.86
-157.52
-155.18
-153.05
-152.66
-155.08
-160.26
-166.83
-172.54
-175.35
-174.47
-170.81
-166.45
-163.63
-163.71
-166.83
-172.01
-177.36
-180.45
-178.54
-169.25
-151.17
-124.74
-92.36
-57.80
-24.61
5.53
33.60
62.80
96.79
137.76
185.05
234.93
281.92
320.74
348.34
364.87
373.05
376.40
377.09
374.77
367.14
351.92
328.67
299.54
268.17
237.89
210.22
184.76
160.29
136.38
114.06
95.14
80.93
71.18
63.95
56.64
47.19
34.93
20.74
6.39
-6.34
-16.33
-23.37
-28.15
-31.79
-35.37
-39.53
-44.17
-48.66
-52.18
-54.16
-54.59
-54.06
-53.40
-53.27
-53.90
-55.03
-56.13
-56.82
-56.93
-56.66
-56.30
-56.07
-55.93
-55.63
-54.77
-53.07
-50.44
-47.07
-43.43
-40.14
-37.80
-36.78
-37.22
-38.92
-41.54
-44.75
-48.34
-52.24
-56.49
-61.03
-65.71
-70.30
-74.66
-78.77
-82.71
-86.36
-89.17
-90.17
-88.13
-82.14
-72.06
-58.77
-43.92
-29.38
-16.67
-6.54
1.05
6.63
10.78
13.90
16.05
17.21
17.40
16.83
15.87
14.87
14.03
13.40
12.84
12.23
11.49
10.60
9.57
8.36
6.87
4.94
2.46
-0.60
-4.10
-7.78
-11.35
-14.56
-17.30
-19.66
-21.87
-24.20
-26.78
-29.37
-31.40
-31.97
-30.25
-25.73
-18.60
-9.72
-0.40
8.02
14.57
18.89
21.14
21.80
21.33
20.08
18.26
16.12
13.92
11.98
10.59
9.86
9.69
9.76
9.78
9.45
8.65
7.37
5.63
3.47
0.91
-2.03
-5.29
-8.75
-12.28
-15.66
-18.79
-21.68
-24.46
-27.38
-30.67
-34.46
-38.72
-43.21
-47.45
-50.74
-52.29
-51.39
-47.69
-41.33
-33.06
-24.12
-15.97
-10.02
-7.22
-7.97
-11.98
-18.37
-25.83
-32.93
-38.58
-42.27
-44.12
-44.86
-45.38
-46.43
-48.31
-50.72
-52.55
-51.71
-45.51
-31.48
-8.57
21.93
56.42
90.10
118.69
140.09
154.71
164.81
172.86
180.25
186.79
191.22
192.37
189.86
184.34
177.03
169.13
161.43
154.31
148.03
142.82
138.86
136.05
133.70
130.39
124.24
113.47
97.19
75.66
50.32
23.23
-3.51
-28.20
-49.66
-67.15
-80.26
-88.80
-93.02
-93.69
-92.00
-89.36
-87.01
-85.67
-85.56
-86.36
-87.47
-88.21
-88.01
-86.56
-83.86
-80.21
-76.18
-72.41
-69.35
-67.29
-66.31
-66.31
-67.05
-68.03
-68.42
-67.08
-62.81
-54.87
-43.44
-29.67
-15.43
-2.64
7.29
13.83
17.20
18.06
17.06
14.67
11.20
6.95
2.34
-2.06
-5.67
-8.06
-9.06
-8.93
-8.13
-7.24
-6.71
-6.76
-7.35
-8.29
-9.38
-10.48
-11.60
-12.76
-13.90
-14.91
-15.70
-16.25
-16.84
-17.97
-20.25
-24.10
-29.52
-35.75
-41.49
-45.13
-45.36
-41.65
-34.42
-24.91
-14.74
-5.32
2.33
7.69
10.49
10.56
7.81
2.30
-5.45
-14.49
-23.51
-31.25
-36.74
-39.57
-39.85
-38.01
-34.58
-30.02
-24.69
-18.90
-13.05
-7.57
-2.86
0.80
3.30
4.77
5.48
5.70
5.68
5.56
5.36
5.10
4.76
4.32
3.77
3.09
2.20
1.07
-0.31
-1.83
-3.30
-4.41
-4.83
-4.37
-2.97
-0.84
1.59
3.81
5.42
6.29
6.52
6.41
6.24
6.13
6.00
5.67
5.08
4.35
3.82
3.90
4.76
6.27
8.06
9.66
10.74
11.27
11.40
11.36
11.20
10.81
9.92
8.36
6.13
3.44
0.63
-2.07
-4.59
-6.95
-9.16
-11.07
-12.30
-12.42
-11.04
-8.12
-3.97
0.83
5.56
9.61
12.63
14.61
15.69
16.13
16.06
15.55
14.62
13.36
11.96
10.64
9.56
8.69
7.81
6.62
4.88
2.60
0.05
-2.42
-4.48
-5.97
-6.98
-7.70
-8.35
-9.14
-10.14
-11.35
-12.66
-13.89
-14.78
-14.97
-14.11
-11.89
-8.25
-3.34
2.39
8.26
13.58
17.75
20.42
21.51
21.25
19.98
18.04
15.65
12.95
10.00
6.97
4.09
1.71
0.14
-0.36
0.23
1.73
3.74
5.75
7.34
8.16
8.04
6.96
5.04
2.42
-0.70
-4.13
-7.69
-11.19
-14.52
-17.60
-20.42
-22.88
-24.69
-25.12
-23.29
-18.46
-10.33
0.55
12.84
24.81
34.81
41.75
45.39
46.20
45.03
42.71
39.80
36.54
32.96
29.05
24.93
20.76
16.74
12.91
9.25
5.66
2.19
-1.01
-3.68
-5.64
-6.90
-7.63
-8.12
-8.64
-9.33
-10.21
-11.24
-12.35
-13.53
-14.82
-16.29
-18.01
-19.96
-21.84
-23.07
-22.83
-20.38
-15.38
-8.20
0.13
8.20
14.73
18.95
20.83
20.87
19.75
17.99
15.83
13.30
10.43
7.42
4.63
2.50
1.30
1.07
1.56
2.32
2.92
3.04
2.51
1.35
-0.32
-2.35
-4.55
-6.80
-8.97
-11.06
-13.14
-15.36
-17.95
-21.10
-24.88
-29.06
-32.97
-35.60
-35.73
-32.36
-25.09
-14.38
-1.54
11.62
23.29
32.14
37.64
39.95
39.79
37.98
35.20
31.88
28.25
24.48
20.87
17.80
15.64
14.58
14.50
14.98
15.53
15.63
14.97
13.39
10.93
7.75
4.04
0.06
-4.00
-7.99
-11.86
-15.66
-19.50
-23.52
-27.83
-32.47
-37.27
-41.71
-44.79
-45.27
-42.03
-34.58
-23.35
-9.76
4.23
16.71
26.34
32.70
36.06
37.17
36.79
35.47
33.56
31.23
28.69
26.20
24.06
22.49
21.55
21.12
20.93
20.63
19.88
18.42
16.05
12.65
8.25
3.06
-2.58
-8.17
-13.21
-17.36
-20.49
-22.79
-24.72
-26.93
-29.97
-34.11
-39.02
-43.60
-46.27
-45.26
-39.40
-28.62
-14.20
1.70
16.59
28.58
36.80
41.38
43.11
42.85
41.19
38.45
34.86
30.83
26.99
24.02
22.36
21.96
22.34
22.74
22.50
21.32
19.39
17.19
15.24
13.73
12.40
10.66
7.84
3.59
-1.95
-8.16
-14.19
-19.33
-23.30
-26.29
-28.86
-31.61
-35.00
-39.20
-44.06
-49.06
-53.21
-55.20
-53.56
-47.19
-35.81
-20.42
-3.10
13.51
27.08
36.36
41.31
42.86
42.27
40.50
38.02
34.94
31.38
27.67
24.45
22.36
21.76
22.47
23.92
25.24
25.69
24.89
22.90
20.10
16.99
13.87
10.79
7.51
3.67
-1.01
-6.52
-12.47
-18.21
-23.10
-26.68
-28.93
-30.22
-31.19
-32.49
-34.64
-37.84
-41.92
-46.31
-49.99
-51.70
-50.09
-44.18
-33.77
-19.69
-3.66
12.17
25.80
35.91
42.08
44.63
44.28
41.85
38.05
33.49
28.78
24.55
21.37
19.64
19.40
20.37
21.91
23.30
23.87
23.24
21.38
18.63
15.50
12.42
9.57
6.83
3.84
0.21
-4.17
-9.10
-14.04
-18.36
-21.62
-23.70
-24.88
-25.72
-26.89
-28.97
-32.22
-36.53
-41.35
-45.69
-48.20
-47.52
-42.62
-33.25
-20.19
-5.10
9.84
22.62
31.93
37.45
39.64
39.33
37.39
34.44
30.87
27.06
23.46
20.53
18.70
18.04
18.27
18.84
19.16
18.78
17.52
15.54
13.12
10.58
8.15
5.92
3.75
1.43
-1.24
-4.39
-7.95
-11.62
-14.99
-17.66
-19.43
-20.47
-21.23
-22.35
-24.39
-27.61
-31.88
-36.56
-40.59
-42.70
-41.64
-36.63
-27.61
-15.39
-1.55
12.02
23.61
32.08
37.06
38.80
37.90
35.01
30.71
25.55
20.13
15.15
11.29
9.02
8.42
9.08
10.35
11.46
11.96
11.72
10.97
10.08
9.30
8.65
7.92
6.70
4.68
1.75
-1.91
-5.86
-9.61
-12.77
-15.27
-17.28
-19.14
-21.22
-23.79
-27.02
-30.87
-35.06
-38.86
-41.25
-41.01
-37.20
-29.55
-18.72
-6.18
6.21
16.79
24.51
29.14
31.05
30.89
29.25
26.58
23.17
19.30
15.42
12.14
10.07
9.49
10.24
11.63
12.79
12.94
11.79
9.62
7.06
4.82
3.15
1.89
0.48
-1.59
-4.56
-8.17
-11.90
-15.13
-17.48
-18.95
-19.78
-20.38
-21.19
-22.51
-24.60
-27.58
-31.34
-35.39
-38.81
-40.33
-38.77
-33.34
-24.15
-12.24
0.71
12.84
22.67
29.43
33.08
34.04
32.83
30.00
26.02
21.40
16.77
12.88
10.33
9.40
9.95
11.40
13.03
14.12
14.23
13.31
11.61
9.53
7.41
5.36
3.25
0.82
-2.15
-5.68
-9.55
-13.34
-16.58
-18.92
-20.31
-20.98
-21.42
-22.24
-23.96
-26.80
-30.60
-34.76
-38.24
-39.82
-38.41
-33.33
-24.62
-13.07
-0.12
12.58
23.55
31.79
36.87
38.86
38.13
35.20
30.67
25.25
19.71
14.86
11.37
9.55
9.31
10.15
11.39
12.38
12.71
12.26
11.15
9.61
7.75
5.58
2.93
-0.40
-4.44
-9.04
-13.81
-18.22
-21.83
-24.34
-25.83
-26.64
-27.37
-28.61
-30.83
-34.17
-38.22
-42.08
-44.40
-43.81
-39.34
-30.86
-19.19
-5.96
6.94
17.86
25.86
30.76
32.93
32.96
31.38
28.63
25.15
21.46
18.22
15.95
15.00
15.29
16.34
17.51
18.19
18.09
17.25
16.02
14.68
13.37
11.84
9.64
6.34
1.80
-3.64
-9.24
-14.10
-17.57
-19.45
-20.07
-20.17
-20.62
-22.17
-25.22
-29.58
-34.45
-38.55
-40.31
-38.36
-31.97
-21.41
-7.92
6.54
19.88
30.42
37.30
40.51
40.68
38.68
35.34
31.27
26.89
22.61
18.86
16.05
14.46
14.10
14.62
15.45
15.97
15.74
14.70
13.05
11.15
9.26
7.37
5.20
2.40
-1.27
-5.68
-10.32
-14.39
-17.30
-18.80
-19.20
-19.22
-19.73
-21.42
-24.54
-28.74
-33.14
-36.42
-37.10
-34.01
-26.63
-15.40
-1.72
12.49
25.26
35.27
41.98
45.65
46.85
46.19
44.14
41.05
37.27
33.23
29.37
25.93
22.89
19.87
16.19
11.03
3.53
-6.87
-20.27
-36.05
-52.80
-68.56
-81.31
-89.50
-92.46
-90.60
-85.12
-77.64
-69.68
-62.36
-56.19
-50.99
-46.08
-40.49
-33.39
-24.29
-13.23
-0.50
13.58
28.86
45.36
63.07
81.71
100.76
119.54
137.35
153.55
167.55
178.75
186.60
190.84
191.59
189.22
184.13
176.24
164.95
149.30
128.50
102.64
73.03
42.13
13.09
-11.08
-28.33
-38.15
-41.73
-41.42
-39.80
-38.65
-38.34
-38.01
-36.42
-33.05
-28.64
-24.94
-23.90
-26.74
-33.50
-43.04
-53.42
-62.34
-67.40
-66.55
-58.86
-45.30
-29.11
-15.19
-8.28
-10.99
-22.50
-39.03
-55.66
-68.49
-75.94
-78.52
-77.65
-74.26
-68.61
-60.82
-51.74
-43.10
-36.91
-34.15
-34.05
-34.36
-32.61
-27.48
-19.59
-11.14
-4.76
-2.35
-4.35
-9.83
-17.15
-24.61
-30.95
-35.56
-38.32
-39.55
-39.84
-39.78
-39.69
-39.30
-37.81
-34.19
-27.65
-18.12
-6.40
6.01
17.51
26.80
33.19
36.64
37.55
36.44
33.90
30.40
26.35
22.19
18.41
15.47
13.80
13.57
14.66
16.71
19.28
21.96
24.50
26.76
28.74
30.39
31.63
32.32
32.35
31.68
30.41
28.73
26.81
24.73
22.39
19.55
15.93
11.40
5.99
-0.13
-6.70
-13.55
-20.44
-26.93
-32.22
-35.26
-35.06
-31.28
-24.59
-16.60
-9.35
-4.51
-2.68
-3.32
-5.13
-6.89
-8.01
-8.66
-9.47
-10.97
-13.14
-15.48
-17.28
-18.16
-18.23
-17.91
-17.70
-17.72
-17.75
-17.37
-16.23
-14.31
-11.90
-9.53
-7.68
-6.72
-6.75
-7.67
-9.25
-11.15
-13.14
-15.06
-17.01
-19.13
-21.50
-24.06
-26.51
-28.48
-29.77
-30.52
-31.06
-31.66
-32.22
-32.18
-30.71
-27.10
-21.23
-13.57
-5.08
3.27
10.71
16.77
21.20
23.80
24.40
23.08
20.25
16.72
13.40
11.06
10.11
10.52
11.97
14.14
16.72
19.47
22.00
23.85
24.46
23.43
20.79
17.02
12.91
9.31
6.79
5.43
4.83
4.48
4.02
3.51
3.30
3.73
4.77
5.83
6.00
4.50
1.15
-3.53
-8.53
-12.99
-16.55
-19.52
-22.52
-26.06
-30.19
-34.49
-38.21
-40.57
-40.92
-38.86
-34.15
-26.81
-17.07
-5.46
7.17
19.71
30.98
40.03
46.25
49.51
50.10
48.56
45.53
41.63
37.40
33.31
29.84
27.32
25.90
25.41
25.36
25.28
24.77
23.82
22.64
21.53
20.57
19.51
17.77
14.82
10.39
4.70
-1.54
-7.43
-12.24
-15.73
-18.16
-20.19
-22.48
-25.41
-28.94
-32.77
-36.53
-39.90
-42.83
-45.28
-47.28
-48.84
-50.04
-51.12
-52.37
-53.95
-55.65
-56.88
-56.77
-54.55
-49.86
-42.86
-34.18
-24.70
-15.40
-7.20
-0.80
3.40
5.43
5.77
5.25
4.74
4.92
5.98
7.68
9.54
11.06
12.00
12.36
12.36
12.30
12.40
12.71
13.05
13.08
12.38
10.65
7.74
3.77
-0.94
-5.95
-10.77
-14.96
-18.13
-20.13
-21.06
-21.29
-21.41
-22.16
-24.07
-27.32
-31.65
-36.42
-40.86
-44.17
-45.66
-44.84
-41.33
-35.05
-26.20
-15.41
-3.61
8.17
19.10
28.67
36.74
43.29
48.25
51.43
52.58
51.68
48.99
45.22
41.21
37.81
35.51
34.35
33.89
33.39
32.07
29.42
25.31
20.09
14.37
8.73
3.48
-1.47
-6.43
-11.65
-17.07
-22.33
-26.90
-30.49
-33.16
-35.40
-37.86
-41.10
-45.40
-50.65
-56.31
-61.49
-64.99
-65.57
-62.23
-54.52
-42.81
-28.13
-11.99
4.10
18.82
31.25
40.80
47.17
50.39
50.76
48.95
45.85
42.40
39.37
37.16
35.85
35.21
34.91
34.65
34.24
33.65
32.88
31.96
30.82
29.29
27.07
23.85
19.44
13.81
7.28
0.42
-6.04
-11.43
-15.38
-18.02
-19.95
-22.07
-25.24
-29.89
-35.75
-41.80
-46.53
-48.27
-45.74
-38.48
-27.03
-12.83
2.16
15.98
27.12
34.92
39.40
41.12
40.76
38.92
36.03
32.46
28.67
25.24
22.75
21.43
21.14
21.27
21.11
20.15
18.35
16.05
13.72
11.61
9.52
6.93
3.34
-1.50
-7.33
-13.52
-19.26
-23.95
-27.37
-29.80
-31.90
-34.46
-38.16
-43.24
-49.33
-55.31
-59.52
-60.27
-56.30
-47.37
-34.35
-19.03
-3.53
10.17
20.86
28.11
32.23
33.86
33.72
32.42
30.36
27.93
25.42
23.15
21.34
20.13
19.56
19.49
19.73
19.94
19.82
19.03
17.32
14.58
10.90
6.56
1.97
-2.51
-6.62
-10.33
-13.78
-17.27
-21.14
-25.73
-31.29
-37.84
-44.92
-51.59
-56.46
-58.04
-55.28
-48.02
-37.18
-24.54
-12.07
-1.34
6.86
12.54
16.22
18.41
19.46
19.45
18.44
16.60
14.34
12.15
10.45
9.43
9.02
8.99
9.06
9.01
8.71
8.13
7.24
6.06
4.60
2.80
0.58
-2.24
-5.74
-9.93
-14.63
-19.60
-24.77
-30.33
-36.72
-44.20
-52.38
-60.05
-65.36
-66.43
-62.21
-52.88
-39.84
-25.14
-10.75
2.06
12.79
21.41
28.11
32.95
35.94
37.23
37.23
36.56
35.86
35.56
35.73
36.10
36.36
36.26
35.79
35.07
34.22
33.25
32.08
30.56
28.57
26.04
22.99
19.41
15.25
10.35
4.43
-2.78
-11.46
-21.36
-31.68
-41.03
-47.62
-49.88
-46.91
-38.95
-27.32
-14.05
-1.14
9.97
18.69
25.13
29.79
33.11
35.34
36.48
36.54
35.63
34.06
32.27
30.61
29.31
28.41
27.84
27.39
26.83
25.94
24.58
22.71
20.32
17.43
13.95
9.82
4.96
-0.57
-6.57
-12.85
-19.21
-25.61
-31.90
-37.74
-42.29
-44.46
-43.23
-38.07
-29.25
-17.85
-5.39
6.65
17.16
25.62
31.96
36.28
38.75
39.49
38.78
37.07
34.98
33.26
32.49
32.87
34.19
35.89
37.24
37.69
36.96
35.14
32.53
29.42
26.05
22.45
18.62
14.51
10.03
5.15
-0.25
-6.27
-13.00
-20.31
-27.73
-34.36
-39.09
-40.76
-38.62
-32.56
-23.23
-11.92
-0.07
11.03
20.63
28.47
34.64
39.28
42.34
43.68
43.21
41.13
38.02
34.77
32.24
30.87
30.58
30.79
30.72
29.78
27.81
25.05
21.98
18.98
16.06
12.92
9.08
4.15
-1.85
-8.53
-15.29
-21.49
-26.71
-30.90
-34.23
-37.06
-39.88
-43.17
-47.33
-52.51
-58.35
-63.96
-67.93
-68.76
-65.37
-57.56
-45.95
-31.97
-17.26
-3.23
9.14
19.39
27.40
33.18
36.75
38.25
37.86
36.06
33.52
31.03
29.35
28.92
29.76
31.40
33.13
34.19
34.11
32.87
30.83
28.50
26.30
24.31
22.26
19.69
16.17
11.54
5.98
-0.15
-6.36
-12.27
-17.69
-22.59
-27.18
-31.81
-36.93
-42.89
-49.76
-57.01
-63.55
-67.92
-68.68
-64.94
-56.63
-44.51
-29.92
-14.39
0.72
14.34
25.80
34.68
40.81
44.23
45.28
44.56
42.81
40.77
39.07
38.01
37.64
37.65
37.63
37.17
35.98
34.02
31.43
28.45
25.23
21.75
17.81
13.23
7.91
1.98
-4.17
-10.10
-15.38
-19.81
-23.47
-26.69
-29.97
-33.85
-38.76
-44.69
-51.08
-56.81
-60.38
-60.36
-55.84
-46.81
-34.24
-19.79
-5.25
7.88
18.76
27.10
33.02
36.77
38.58
38.69
37.48
35.50
33.34
31.58
30.53
30.21
30.34
30.46
30.12
29.04
27.18
24.70
21.92
19.12
16.36
13.49
10.21
6.27
1.65
-3.37
-8.32
-12.80
-16.64
-20.02
-23.42
-27.38
-32.34
-38.44
-45.40
-52.40
-58.21
-61.40
-60.73
-55.53
-45.99
-33.19
-18.70
-4.18
9.04
20.24
29.12
35.75
40.29
42.84
43.53
42.66
40.67
38.15
35.74
33.91
32.88
32.55
32.60
32.65
32.38
31.66
30.49
28.98
27.24
25.23
22.79
19.64
15.52
10.36
4.32
-2.14
-8.44
-14.07
-18.84
-22.92
-26.74
-30.85
-35.66
-41.38
-47.90
-54.73
-61.02
-65.64
-67.36
-65.21
-58.79
-48.51
-35.57
-21.56
-8.06
3.74
13.23
20.35
25.31
28.42
29.94
30.11
29.24
27.76
26.16
24.95
24.47
24.73
25.42
26.09
26.31
25.93
25.06
24.02
23.03
22.04
20.69
18.47
15.03
10.34
4.74
-1.14
-6.68
-11.46
-15.40
-18.79
-22.12
-25.93
-30.63
-36.42
-43.18
-50.39
-57.16
-62.32
-64.58
-62.93
-56.89
-46.80
-33.76
-19.28
-4.98
7.84
18.36
26.25
31.47
34.20
34.72
33.46
31.02
28.08
25.27
23.07
21.68
21.01
20.84
20.92
21.08
21.27
21.43
21.47
21.22
20.41
18.71
15.96
12.15
7.53
2.60
-2.14
-6.32
-9.89
-13.20
-16.86
-21.49
-27.43
-34.46
-41.71
-47.88
-51.52
-51.44
-47.12
-38.81
-27.48
-14.55
-1.55
10.21
19.84
26.96
31.55
33.83
34.15
32.91
30.51
27.34
23.80
20.30
17.24
14.92
13.56
13.18
13.61
14.53
15.47
15.87
15.25
13.34
10.11
5.80
0.78
-4.50
-9.73
-14.76
-19.66
-24.71
-30.27
-36.64
-43.83
-51.43
-58.46
-63.51
-65.07
-62.03
-54.10
-42.02
-27.38
-12.15
1.91
13.61
22.49
28.59
32.27
33.85
33.65
32.00
29.45
26.66
24.30
22.84
22.33
22.46
22.74
22.73
22.21
21.24
20.00
18.63
17.10
15.13
12.37
8.46
3.30
-2.92
-9.66
-16.27
-22.12
-26.86
-30.62
-33.95
-37.63
-42.37
-48.52
-55.75
-62.94
-68.44
-70.33
-67.18
-58.51
-45.08
-28.67
-11.53
4.33
17.62
27.88
35.31
40.27
43.12
44.07
43.35
41.36
38.73
36.10
33.98
32.53
31.61
30.91
30.04
28.81
27.27
25.64
24.16
22.95
21.82
20.31
17.83
13.94
8.60
2.19
-4.54
-10.75
-15.83
-19.59
-22.30
-24.64
-27.43
-31.44
-37.12
-44.29
-52.01
-58.60
-62.08
-60.75
-53.81
-41.73
-26.14
-9.33
6.52
19.89
30.13
37.31
41.83
44.04
44.18
42.50
39.43
35.70
32.17
29.54
28.05
27.46
27.18
26.61
25.43
23.76
22.00
20.54
19.53
18.67
17.36
14.98
11.21
6.12
0.21
-5.77
-11.16
-15.52
-18.83
-21.50
-24.15
-27.49
-32.11
-38.31
-45.84
-53.90
-60.98
-65.32
-65.32
-60.09
-49.83
-35.84
-20.09
-4.66
8.77
19.26
26.55
30.85
32.54
32.02
29.76
26.38
22.62
19.36
17.28
16.72
17.42
18.79
19.99
20.41
19.83
18.44
16.63
14.72
12.77
10.52
7.67
4.00
-0.40
-5.13
-9.71
-13.75
-17.15
-20.14
-23.25
-27.05
-32.07
-38.44
-45.74
-52.85
-58.17
-59.97
-56.92
-48.66
-36.04
-20.89
-5.44
8.32
19.13
26.69
31.34
33.64
34.10
33.02
30.59
27.11
23.10
19.21
16.17
14.47
14.23
15.18
16.77
18.36
19.37
19.42
18.32
16.10
12.91
8.99
4.62
0.11
-4.36
-8.71
-13.08
-17.76
-23.15
-29.48
-36.52
-43.42
-48.75
-50.88
-48.53
-41.33
-29.98
-16.13
-1.84
11.05
21.36
28.64
33.06
34.98
34.76
32.68
29.10
24.48
19.55
15.13
11.96
10.47
10.65
12.06
13.91
15.36
15.71
14.60
12.05
8.40
4.12
-0.34
-4.74
-9.01
-13.22
-17.57
-22.29
-27.73
-34.18
-41.71
-49.91
-57.60
-63.00
-64.21
-59.89
-49.89
-35.52
-19.05
-3.06
10.47
20.54
27.20
31.05
32.88
33.24
32.41
30.57
27.96
24.95
21.97
19.48
17.77
16.92
16.88
17.33
17.89
18.05
17.39
15.66
12.83
9.12
4.88
0.52
-3.71
-7.70
-11.57
-15.59
-20.06
-25.29
-31.39
-38.14
-44.75
-49.94
-52.10
-49.80
-42.45
-30.53
-15.69
-0.19
13.79
24.80
32.32
36.72
38.70
38.96
37.95
35.89
33.02
29.66
26.31
23.45
21.39
20.24
19.84
19.89
20.09
20.20
20.08
19.53
18.28
15.99
12.41
7.52
1.65
-4.61
-10.60
-15.82
-20.08
-23.67
-27.18
-31.39
-36.87
-43.71
-51.13
-57.58
-61.00
-59.57
-52.40
-40.01
-24.18
-7.44
7.88
20.29
29.37
35.53
39.46
41.73
42.59
42.11
40.49
38.17
35.80
34.01
33.15
33.15
33.51
33.62
32.96
31.39
29.14
26.67
24.36
22.41
20.66
18.71
16.09
12.46
7.73
2.14
-3.83
-9.66
-14.94
-19.49
-23.51
-27.35
-31.48
-36.31
-42.17
-49.15
-56.99
-64.86
-71.34
-74.58
-72.89
-65.38
-52.41
-35.68
-17.66
-0.82
13.14
23.62
30.97
36.00
39.44
41.70
42.82
42.79
41.81
40.35
39.02
38.37
38.58
39.39
40.18
40.35
39.54
37.76
35.38
32.83
30.37
27.97
25.34
22.10
17.99
12.99
7.38
1.58
-3.96
-8.88
-13.03
-16.45
-19.37
-22.08
-24.91
-28.24
-32.48
-38.02
-44.93
-52.73
-60.13
-65.23
-66.07
-61.40
-51.29
-37.18
-21.40
-6.30
6.49
16.32
23.34
28.03
30.85
32.08
31.93
30.72
28.95
27.20
25.91
25.27
25.23
25.49
25.75
25.74
25.36
24.66
23.75
22.69
21.40
19.66
17.23
13.89
9.60
4.43
-1.56
-8.25
-15.51
-23.15
-30.89
-38.43
-45.59
-52.38
-59.08
-66.14
-74.02
-83.13
-93.72
-105.75
-118.60
-131.08
-141.45
-147.93
-149.33
-145.61
-138.02
-128.71
-120.11
-114.01
-111.33
-112.03
-115.56
-121.14
-127.94
-135.07
-141.42
-145.98
-148.15
-147.97
-145.98
-142.61
-137.53
-129.39
-116.16
-95.93
-67.84
-32.43
8.47
52.38
96.60
138.41
175.19
204.46
224.46
234.69
236.41
232.26
225.26
217.57
209.65
200.59
188.91
173.82
155.59
135.36
114.37
93.23
72.12
51.31
32.00
16.27
6.40
3.60
7.29
15.23
24.76
34.13
43.09
52.62
63.71
76.27
88.87
99.26
105.45
106.55
103.04
96.34
88.09
79.54
71.27
63.29
55.30
46.88
37.73
27.71
16.92
5.54
-6.18
-18.02
-29.62
-40.37
-49.32
-55.28
-57.26
-54.84
-48.36
-38.93
-28.04
-17.07
-7.02
1.72
9.23
15.89
22.24
29.04
37.31
48.32
63.28
82.66
105.58
129.51
150.52
164.22
167.06
157.52
136.81
108.36
76.50
44.72
14.41
-15.40
-46.94
-82.12
-121.23
-162.58
-203.25
-240.39
-272.32
-298.73
-320.15
-336.94
-348.63
-354.00
-351.69
-341.00
-322.39
-297.50
-268.67
-238.45
-208.95
-181.63
-157.27
-136.21
-118.54
-104.13
-92.49
-82.44
-72.07
-59.08
-41.43
-18.23
9.79
40.39
70.55
97.51
119.62
136.57
149.05
158.14
164.63
168.78
170.58
170.06
167.66
164.23
160.79
158.03
156.14
154.74
153.23
151.11
148.19
144.54
140.31
135.43
129.59
122.35
113.37
102.57
90.20
76.78
62.89
49.04
35.48
22.22
9.04
-4.42
-18.45
-33.09
-47.98
-62.15
-74.16
-82.35
-85.31
-82.29
-73.58
-60.41
-44.62
-28.19
-12.73
0.67
11.45
19.36
24.37
26.53
26.12
23.68
19.99
15.95
12.31
9.55
7.76
6.79
6.38
6.33
6.63
7.39
8.72
10.50
12.38
13.81
14.17
13.16
10.79
7.51
3.91
0.58
-2.10
-4.06
-5.55
-7.05
-9.14
-12.36
-16.87
-22.22
-27.22
-30.14
-29.20
-23.27
-12.33
2.37
18.79
34.74
48.48
59.06
66.27
70.30
71.46
70.04
66.33
60.70
53.71
46.05
38.42
31.51
25.76
21.41
18.40
16.44
15.08
13.82
12.20
9.91
6.80
2.87
-1.82
-7.19
-13.09
-19.41
-26.03
-32.93
-40.23
-48.19
-57.07
-66.79
-76.62
-85.11
-90.30
-90.38
-84.29
-72.28
-55.81
-37.13
-18.62
-2.07
11.58
22.08
29.62
34.51
37.02
37.42
36.05
33.43
30.16
26.92
24.20
22.34
21.38
21.13
21.21
21.17
20.59
19.18
16.84
13.60
9.58
4.89
-0.40
-6.22
-12.47
-19.15
-26.23
-33.86
-42.13
-50.94
-59.61
-66.82
-70.80
-69.89
-63.16
-50.88
-34.46
-16.03
2.23
18.69
32.37
42.95
50.45
55.04
56.93
56.48
54.21
50.76
46.74
42.60
38.60
34.87
31.47
28.48
25.97
23.93
22.20
20.39
18.00
14.53
9.68
3.48
-3.75
-11.43
-19.01
-26.10
-32.58
-38.62
-44.64
-51.10
-58.49
-66.93
-76.08
-84.88
-91.66
-94.50
-91.88
-83.28
-69.53
-52.55
-34.73
-18.20
-4.31
6.50
14.40
19.79
23.03
24.40
24.24
23.07
21.63
20.68
20.83
22.38
25.19
28.82
32.70
36.21
38.94
40.59
40.96
39.88
37.17
32.68
26.45
18.73
10.06
1.13
-7.42
-15.21
-22.18
-28.63
-35.11
-42.20
-50.23
-59.00
-67.56
-74.29
-77.25
-74.74
-65.96
-51.37
-32.54
-11.75
8.77
27.28
42.82
55.12
64.28
70.49
73.92
74.79
73.41
70.28
66.01
61.22
56.45
52.02
48.11
44.70
41.71
38.97
36.27
33.40
30.17
26.48
22.38
18.00
13.47
8.79
3.88
-1.48
-7.50
-14.41
-22.41
-31.54
-41.50
-51.42
-59.79
-64.78
-64.74
-58.90
-47.70
-32.80
-16.53
-1.09
11.94
21.97
29.07
33.62
35.97
36.31
34.72
31.46
27.03
22.15
17.68
14.27
12.22
11.39
11.29
11.19
10.52
8.94
6.50
3.45
0.13
-3.30
-6.86
-10.79
-15.39
-20.78
-26.99
-33.96
-41.55
-49.49
-57.19
-63.48
-66.74
-65.20
-57.62
-43.82
-24.92
-3.08
19.13
39.47
56.52
69.71
79.09
84.97
87.71
87.62
85.12
80.80
75.42
69.71
64.27
59.41
55.22
51.61
48.44
45.58
42.84
39.92
36.45
32.03
26.41
19.54
11.66
3.23
-5.28
-13.51
-21.44
-29.32
-37.71
-47.16
-58.02
-69.98
-81.92
-91.92
-97.77
-97.54
-90.29
-76.44
-57.62
-36.18
-14.50
5.61
23.12
37.64
49.21
57.99
64.20
68.10
70.04
70.42
69.64
68.00
65.67
62.71
59.20
55.29
51.22
47.22
43.34
39.38
34.88
29.25
22.06
13.28
3.32
-7.01
-16.93
-25.92
-33.96
-41.43
-49.00
-57.28
-66.54
-76.56
-86.44
-94.67
-99.39
-98.85
-91.94
-78.71
-60.43
-39.29
-17.78
1.97
18.62
31.70
41.34
47.90
51.79
53.37
53.06
51.44
49.18
46.91
44.99
43.52
42.29
40.97
39.30
37.18
34.72
32.10
29.44
26.62
23.33
19.12
13.63
6.79
-1.09
-9.42
-17.46
-24.64
-30.82
-36.31
-41.85
-48.35
-56.51
-66.48
-77.52
-88.00
-95.63
-98.16
-93.99
-82.91
-66.14
-45.97
-25.06
-5.61
11.03
24.39
34.49
41.51
45.55
46.72
45.44
42.44
38.82
35.58
33.42
32.40
32.13
31.98
31.47
30.50
29.29
28.24
27.57
27.18
26.55
24.95
21.73
16.53
9.49
1.15
-7.69
-16.25
-24.01
-30.77
-36.73
-42.34
-48.22
-55.02
-63.13
-72.42
-81.93
-89.86
-93.95
-92.13
-83.35
-68.12
-48.33
-26.73
-5.98
12.07
26.66
37.80
45.84
51.08
53.59
53.43
50.88
46.66
41.85
37.54
34.53
33.04
32.71
32.86
32.79
32.12
30.84
29.21
27.50
25.76
23.72
20.90
16.83
11.24
4.20
-3.84
-12.22
-20.29
-27.55
-33.81
-39.22
-44.19
-49.22
-54.77
-61.26
-68.86
-77.37
-85.93
-92.93
-96.29
-93.97
-84.81
-69.02
-48.29
-25.34
-2.98
16.52
32.05
43.44
51.11
55.59
57.30
56.57
53.82
49.66
44.92
40.46
36.99
34.83
33.93
33.83
33.98
33.90
33.36
32.37
31.07
29.50
27.55
24.89
21.17
16.16
9.88
2.62
-5.19
-13.09
-20.67
-27.72
-34.09
-39.77
-44.80
-49.39
-53.94
-59.05
-65.35
-73.19
-82.24
-91.24
-98.08
-100.34
-96.08
-84.63
-66.95
-45.30
-22.55
-1.28
16.80
31.00
41.34
48.14
51.77
52.51
50.75
47.09
42.30
37.29
32.85
29.57
27.82
27.71
29.12
31.67
34.79
37.80
40.16
41.63
42.33
42.72
43.29
44.25
45.33
45.79
44.79
41.84
37.15
31.82
27.47
25.66
27.15
31.50
37.12
41.94
44.23
43.50
40.85
38.62
39.69
46.42
59.96
79.85
104.23
130.28
154.76
174.72
188.53
196.91
203.41
213.65
232.96
263.50
302.13
340.65
368.56
377.21
363.30
329.89
284.59
235.98
190.38
150.58
116.55
87.32
62.51
42.53
27.75
17.43
9.37
0.36
-12.47
-30.65
-53.72
-79.72
-106.13
-131.08
-154.02
-175.80
-198.07
-222.31
-249.26
-278.80
-310.46
-343.92
-379.07
-415.53
-451.86
-485.18
-511.67
-527.85
-532.01
-525.01
-510.00
-491.24
-472.63
-456.78
-444.66
-435.90
-429.20
-422.62
-413.77
-400.15
-379.67
-351.49
-316.60
-277.77
-238.74
-202.92
-172.07
-145.54
-120.70
-94.05
-62.93
-26.78
12.56
51.60
86.61
114.83
135.13
147.76
153.70
154.25
151.01
146.18
142.60
143.43
151.25
167.03
189.61
216.02
242.54
265.77
283.59
295.17
300.54
299.96
293.53
281.50
264.47
243.84
221.54
199.55
179.25
161.05
144.54
128.99
113.93
99.37
85.74
73.58
63.34
55.59
51.21
51.65
58.47
72.90
94.96
123.03
153.91
183.27
206.50
219.53
219.68
205.98
179.36
142.34
98.45
51.57
5.14
-37.98
-75.64
-106.09
-127.99
-140.77
-144.99
-142.62
-136.61
-130.03
-124.88
-121.69
-119.85
-118.64
-117.95
-118.15
-119.33
-120.30
-118.69
-112.02
-99.44
-82.77
-66.08
-53.94
-49.24
-52.13
-60.38
-70.93
-81.48
-91.17
-100.03
-108.14
-115.00
-119.79
-122.24
-123.13
-124.16
-127.23
-133.15
-140.99
-148.09
-151.02
-146.81
-134.04
-113.36
-87.29
-59.38
-33.32
-11.90
3.77
14.63
23.53
34.38
50.73
74.42
104.71
138.50
171.45
199.60
220.67
234.48
242.45
246.65
248.69
249.28
248.35
245.51
240.66
234.26
227.24
220.69
215.22
210.55
205.25
196.99
183.19
161.68
131.14
91.36
43.09
-11.94
-70.92
-129.87
-184.08
-228.96
-261.43
-280.88
-289.31
-290.35
-287.58
-282.99
-276.33
-265.55
-248.02
-221.83
-186.69
-144.17
-97.31
-50.00
-6.10
31.30
60.40
80.86
93.51
99.70
100.69
97.38
90.41
80.60
69.24
58.15
49.16
43.55
41.53
42.15
43.62
43.87
41.23
34.81
24.60
11.51
-2.81
-16.16
-26.07
-30.43
-28.02
-19.09
-5.39
10.30
25.04
36.67
44.34
48.40
49.76
49.15
46.86
42.83
37.23
30.97
25.78
23.71
26.31
33.77
44.59
55.92
64.48
67.71
64.82
56.95
46.74
37.17
30.43
27.11
26.30
26.14
24.61
20.17
11.93
0.03
-13.83
-25.88
-30.48
-21.76
3.37
42.44
86.95
125.15
147.10
149.20
135.60
115.71
99.36
92.45
95.52
105.43
118.22
131.08
142.22
149.56
150.18
141.45
123.07
98.51
74.42
57.88
53.39
60.96
76.28
92.75
103.99
105.88
97.41
80.35
58.00
33.92
10.78
-10.16
-29.09
-47.19
-65.93
-86.53
-109.63
-135.27
-162.93
-191.49
-219.51
-245.48
-268.46
-288.59
-307.04
-325.45
-344.96
-365.48
-385.47
-402.67
-415.07
-421.71
-422.74
-418.70
-409.65
-394.70
-372.25
-341.08
-301.33
-254.85
-204.64
-153.70
-104.13
-57.04
-13.22
25.98
58.19
80.59
91.02
89.03
76.36
56.40
33.24
10.80
-7.51
-18.78
-20.48
-10.93
10.07
40.63
76.82
113.44
145.38
168.80
181.90
184.92
179.55
168.22
153.58
138.12
123.97
112.66
104.96
100.76
99.22
99.13
99.34
99.13
98.24
96.64
94.24
90.69
85.51
78.37
69.43
59.48
49.76
41.55
35.79
32.75
31.95
32.19
31.88
29.42
23.72
14.67
3.31
-8.29
-17.49
-21.92
-20.19
-12.25
0.51
15.67
30.52
42.74
51.12
55.76
57.80
58.71
59.56
60.48
60.66
59.01
54.96
48.94
42.34
36.82
33.54
32.74
33.66
35.18
36.35
36.74
36.38
35.33
33.44
30.20
25.10
18.02
9.54
0.80
-6.98
-13.00
-17.28
-20.63
-24.33
-29.68
-37.52
-47.78
-59.42
-70.55
-78.77
-81.79
-78.15
-67.76
-52.09
-33.83
-16.02
-1.24
9.00
14.45
15.62
13.28
8.05
0.35
-9.30
-20.12
-31.00
-40.89
-49.08
-55.50
-60.69
-65.44
-70.47
-76.12
-82.35
-88.83
-95.25
-101.40
-107.38
-113.37
-119.44
-125.25
-130.03
-132.75
-132.66
-129.71
-124.72
-119.11
-114.30
-111.18
-109.88
-109.58
-108.75
-105.38
-97.36
-82.98
-61.50
-33.51
-0.82
33.92
68.12
99.84
128.09
152.53
173.02
189.24
200.49
206.10
205.68
199.52
188.68
174.92
160.34
146.75
134.83
123.58
110.35
91.72
64.84
28.53
-16.01
-65.29
-114.13
-156.40
-185.92
-197.33
-187.24
-155.45
-105.65
-45.03
17.30
72.66
115.03
141.98
154.44
155.44
148.83
138.61
128.61
122.39
122.76
131.16
147.09
168.33
191.52
213.37
231.70
245.71
255.61
261.86
264.57
263.27
257.26
246.10
230.12
210.54
189.25
168.33
149.71
134.80
124.49
119.23
119.07
123.68
132.42
144.25
157.74
171.14
182.52
189.86
191.44
186.25
174.21
156.26
133.89
108.54
81.08
51.51
19.24
-16.34
-55.10
-95.61
-135.04
-169.62
-195.60
-210.30
-213.18
-206.24
-193.38
-179.09
-166.91
-158.34
-152.78
-148.47
-143.83
-138.35
-132.72
-128.03
-124.80
-122.45
-119.52
-114.52
-106.82
-97.03
-86.73
-77.73
-71.21
-67.34
-65.38
-64.15
-62.58
-60.19
-57.02
-53.50
-50.10
-46.97
-43.95
-40.73
-37.06
-33.05
-29.29
-26.45
-24.88
-24.38
-24.21
-23.44
-21.41
-17.99
-13.67
-9.42
-6.05
-3.93
-2.97
-2.85
-3.24
-4.06
-5.43
-7.62
-11.24
-16.67
-24.07
-33.30
-44.04
-55.82
-68.12
-80.49
-92.73
-105.74
-120.42
-137.53
-157.62
-181.03
-207.44
-235.67
-263.56
-288.62
-310.05
-327.03
-338.93
-345.88
-349.12
-350.55
-352.14
-354.71
-357.78
-361.67
-364.28
-361.75
-350.57
-329.61
-300.38
-266.28
-230.60
-195.63
-164.95
-138.93
-115.28
-91.22
-65.61
-38.99
-13.22
10.36
47.30
97.97
150.70
191.58
214.74
221.67
220.27
215.67
211.37
210.00
208.69
206.75
205.56
207.29
213.29
224.14
239.51
259.06
281.71
303.00
319.07
327.40
326.89
317.47
300.45
278.20
254.18
231.81
212.17
196.14
184.27
176.35
170.79
164.95
155.65
140.56
118.84
90.80
58.81
26.39
-3.07
-27.59
-46.84
-61.76
-73.52
-82.87
-90.12
-95.06
-97.32
-96.94
-94.60
-91.39
-88.57
-87.27
-88.43
-92.67
-100.21
-110.74
-123.34
-136.59
-148.92
-158.99
-165.89
-169.02
-167.77
-161.25
-148.28
-127.95
-100.20
-66.22
-28.34
10.82
49.45
87.34
125.82
166.80
211.32
258.37
304.77
346.11
378.33
399.02
407.99
406.89
398.34
385.24
370.34
356.03
344.10
335.31
329.03
323.31
315.52
303.49
286.24
264.40
239.56
213.55
187.80
163.08
139.79
118.16
98.28
79.99
62.55
44.69
24.93
2.12
-24.06
-52.83
-82.61
-111.44
-137.50
-159.52
-176.80
-189.05
-196.25
-198.63
-196.66
-191.19
-183.33
-174.42
-166.02
-159.89
-157.89
-161.66
-172.13
-188.87
-209.86
-231.61
-250.02
-261.59
-264.26
-258.02
-244.55
-226.48
-206.35
-185.94
-166.06
-146.70
-127.72
-109.31
-92.33
-78.03
-67.47
-60.76
-56.90
-54.04
-50.19
-44.13
-35.78
-26.11
-16.51
-8.14
-1.55
3.44
7.45
11.21
15.30
19.90
24.76
29.13
32.13
33.00
31.62
28.81
26.21
25.88
29.64
38.42
51.72
67.62
83.16
95.25
101.79
102.65
99.88
97.07
97.80
103.97
114.76
126.84
135.65
137.28
129.75
113.41
90.30
62.97
33.58
3.56
-26.23
-55.10
-82.47
-107.98
-131.79
-154.64
-177.53
-201.09
-224.97
-247.74
-267.26
-281.48
-289.30
-290.84
-287.35
-280.56
-272.00
-262.37
-251.31
-237.48
-218.93
-193.72
-160.51
-119.18
-71.05
-18.74
34.34
84.73
129.64
167.35
197.34
220.04
236.50
247.98
255.75
260.90
264.29
266.50
267.67
267.30
264.14
256.31
241.72
218.68
186.41
145.38
97.16
44.15
-11.01
-65.89
-118.56
-167.66
-212.15
-251.09
-283.26
-307.17
-321.28
-324.61
-317.25
-300.72
-277.67
-251.12
-223.44
-195.60
-167.19
-137.10
-104.48
-69.61
-34.06
-0.17
29.80
54.44
73.47
87.49
97.37
103.78
106.97
107.07
104.37
99.62
93.89
88.28
83.57
79.98
77.21
74.67
71.87
68.56
64.75
60.63
56.37
52.03
47.56
42.88
37.92
32.72
27.49
22.43
17.76
13.53
9.55
5.45
0.80
-4.62
-10.60
-16.39
-20.78
-22.48
-20.51
-14.63
-5.46
5.70
17.22
27.53
35.50
40.60
42.82
42.57
40.35
36.67
31.97
26.63
21.13
15.96
11.70
8.78
7.35
7.17
7.74
8.37
8.48
7.77
6.21
3.97
1.34
-1.47
-4.38
-7.38
-10.46
-13.67
-17.00
-20.52
-24.28
-28.28
-32.27
-35.61
-37.35
-36.43
-32.06
-24.18
-13.57
-1.64
9.90
19.60
26.66
30.89
32.57
32.16
30.09
26.67
22.18
17.07
11.91
7.40
4.15
2.45
2.15
2.72
3.38
3.40
2.42
0.44
-2.16
-4.93
-7.55
-9.96
-12.30
-14.77
-17.60
-20.89
-24.70
-29.00
-33.55
-37.80
-40.82
-41.41
-38.54
-31.76
-21.48
-8.98
3.97
15.57
24.60
30.53
33.49
33.99
32.58
29.64
25.43
20.28
14.69
9.37
5.13
2.56
1.83
2.63
4.25
5.87
6.84
6.83
5.90
4.29
2.28
0.07
-2.25
-4.82
-7.83
-11.49
-15.91
-21.00
-26.37
-31.24
-34.55
-35.20
-32.44
-26.08
-16.72
-5.53
6.04
16.67
25.38
31.69
35.40
36.57
35.43
32.30
27.69
22.34
17.02
12.43
9.04
6.95
5.94
5.52
5.10
4.22
2.63
0.37
-2.26
-4.88
-7.22
-9.20
-11.07
-13.21
-16.08
-19.99
-24.97
-30.63
-36.17
-40.54
-42.55
-41.27
-36.28
-27.81
-16.84
-4.81
6.74
16.56
23.90
28.53
30.62
30.49
28.52
25.09
20.67
15.81
11.16
7.33
4.75
3.52
3.38
3.80
4.15
3.91
2.80
0.86
-1.63
-4.33
-6.98
-9.56
-12.21
-15.25
-18.94
-23.39
-28.49
-33.80
-38.60
-41.96
-42.88
-40.52
-34.54
-25.21
-13.50
-0.86
11.11
21.05
28.15
32.21
33.53
32.63
30.15
26.62
22.54
18.33
14.44
11.29
9.19
8.27
8.35
8.98
9.57
9.56
8.63
6.72
4.07
1.00
-2.18
-5.30
-8.32
-11.33
-14.45
-17.81
-21.59
-25.93
-30.84
-35.99
-40.55
-43.33
-43.01
-38.61
-29.88
-17.60
-3.38
10.71
22.79
31.55
36.60
38.28
37.40
34.90
31.50
27.71
23.82
20.09
16.76
14.11
12.35
11.51
11.40
11.65
11.82
11.49
10.40
8.47
5.80
2.58
-0.96
-4.59
-8.21
-11.76
-15.38
-19.31
-23.85
-29.16
-35.08
-40.98
-45.75
-48.11
-46.80
-41.16
-31.32
-18.34
-3.96
9.87
21.45
29.83
34.85
37.00
37.05
35.67
33.29
30.14
26.45
22.59
19.09
16.45
14.97
14.60
14.94
15.40
15.38
14.52
12.69
10.09
7.01
3.79
0.67
-2.35
-5.35
-8.54
-12.14
-16.33
-21.16
-26.56
-32.21
-37.40
-41.13
-42.16
-39.46
-32.50
-21.66
-8.20
6.07
19.24
29.85
37.14
41.12
42.26
41.26
38.76
35.28
31.28
27.19
23.46
20.48
18.40
17.18
16.52
16.06
15.46
14.58
13.38
11.85
9.92
7.44
4.26
0.30
-4.29
-9.21
-14.02
-18.34
-21.98
-25.01
-27.79
-30.82
-34.59
-39.30
-44.65
-49.59
-52.56
-51.83
-46.16
-35.34
-20.50
-3.80
12.22
25.47
34.92
40.67
43.60
44.71
44.66
43.63
41.55
38.44
34.66
30.91
27.90
26.08
25.39
25.40
25.52
25.28
24.47
23.14
21.45
19.55
17.47
15.17
12.51
9.38
5.66
1.33
-3.48
-8.49
-13.34
-17.62
-21.07
-23.65
-25.62
-27.42
-29.54
-32.45
-36.47
-41.61
-47.40
-52.80
-56.34
-56.31
-51.45
-41.41
-27.04
-10.28
6.43
20.95
31.99
39.31
43.51
45.45
45.88
45.19
43.56
41.18
38.41
35.74
33.62
32.22
31.43
30.88
30.25
29.34
28.18
26.89
25.55
24.08
22.32
20.03
17.12
13.69
10.00
6.39
3.08
0.14
-2.65
-5.57
-8.87
-12.55
-16.34
-19.87
-22.81
-25.12
-27.07
-29.17
-32.02
-36.04
-41.32
-47.41
-53.31
-57.54
-58.42
-54.58
-45.47
-31.73
-15.08
2.12
17.60
29.82
38.26
43.30
45.84
46.79
46.76
46.03
44.67
42.80
40.63
38.49
36.67
35.24
34.05
32.77
31.09
28.93
26.46
24.04
21.95
20.19
18.48
16.32
13.36
9.56
5.31
1.22
-2.10
-4.38
-5.78
-6.83
-8.17
-10.25
-13.16
-16.66
-20.24
-23.41
-25.89
-27.73
-29.31
-31.21
-34.09
-38.27
-43.71
-49.78
-55.34
-58.87
-58.91
-54.37
-45.01
-31.60
-15.76
0.39
14.87
26.26
34.06
38.53
40.43
40.62
39.72
38.13
36.05
33.70
31.37
29.39
27.99
27.20
26.77
26.37
25.66
24.49
22.93
21.21
19.49
17.78
15.93
13.67
10.81
7.40
3.69
0.13
-2.87
-5.09
-6.62
-7.82
-9.18
-11.02
-13.41
-16.10
-18.67
-20.70
-22.06
-22.92
-23.79
-25.32
-28.11
-32.48
-38.29
-44.79
-50.71
-54.41
-54.34
-49.51
-39.90
-26.58
-11.43
3.38
16.07
25.57
31.71
35.00
36.22
36.11
35.14
33.56
31.56
29.38
27.34
25.78
24.89
24.62
24.72
24.80
24.54
23.83
22.78
21.56
20.27
18.83
17.02
14.54
11.29
7.38
3.16
-0.89
-4.39
-7.13
-9.19
-10.84
-12.49
-14.44
-16.85
-19.61
-22.43
-24.94
-26.88
-28.19
-29.15
-30.27
-32.15
-35.32
-39.90
-45.51
-51.18
-55.49
-56.92
-54.24
-46.97
-35.55
-21.34
-6.23
7.90
19.59
28.15
33.60
36.53
37.68
37.69
36.95
35.65
33.89
31.83
29.73
27.89
26.51
25.58
24.88
24.09
22.96
21.49
19.85
18.31
17.03
15.90
14.64
12.87
10.37
7.19
3.66
0.23
-2.72
-5.00
-6.76
-8.29
-9.98
-12.08
-14.68
-17.65
-20.70
-23.51
-25.81
-27.48
-28.61
-29.55
-30.79
-32.90
-36.27
-40.96
-46.49
-51.86
-55.70
-56.62
-53.61
-46.35
-35.38
-21.95
-7.72
5.62
16.78
25.08
30.45
33.38
34.58
34.73
34.31
33.54
32.50
31.29
30.06
29.07
28.47
28.22
28.08
27.66
26.71
25.20
23.33
21.40
19.67
18.14
16.56
14.60
11.98
8.68
4.96
1.33
-1.73
-3.97
-5.48
-6.69
-8.18
-10.37
-13.35
-16.84
-20.32
-23.26
-25.42
-26.86
-27.99
-29.30
-31.27
-34.20
-38.13
-42.84
-47.78
-52.07
-54.60
-54.17
-49.90
-41.56
-29.80
-16.03
-2.11
10.21
19.77
26.24
29.94
31.62
32.04
31.78
31.11
30.16
29.08
28.02
27.22
26.82
26.80
26.96
26.97
26.61
25.81
24.73
23.58
22.50
21.43
20.10
18.20
15.55
12.20
8.44
4.72
1.40
-1.37
-3.69
-5.84
-8.14
-10.85
-13.99
-17.40
-20.80
-23.85
-26.32
-28.17
-29.61
-31.03
-32.92
-35.74
-39.60
-44.24
-48.81
-52.07
-52.65
-49.54
-42.37
-31.66
-18.75
-5.38
6.74
16.40
23.10
27.00
28.73
29.04
28.54
27.61
26.40
24.99
23.44
21.94
20.62
19.58
18.83
18.27
17.73
17.14
16.42
15.55
14.54
13.31
11.82
10.00
7.85
5.42
2.79
0.02
-2.80
-5.60
-8.32
-10.89
-13.25
-15.37
-17.26
-18.96
-20.57
-22.27
-24.32
-27.01
-30.57
-34.89
-39.45
-43.20
-44.82
-43.13
-37.60
-28.64
-17.50
-5.91
4.53
12.76
18.44
21.79
23.33
23.56
22.87
21.49
19.69
17.71
15.82
14.27
13.20
12.60
12.40
12.40
12.43
12.35
12.08
11.54
10.66
9.28
7.28
4.59
1.36
-2.14
-5.54
-8.58
-11.20
-13.64
-16.29
-19.62
-23.89
-28.91
-34.03
-38.09
-39.75
-37.91
-32.13
-22.86
-11.37
0.63
11.52
20.18
26.21
29.75
31.26
31.20
29.97
27.82
25.06
22.02
19.07
16.58
14.81
13.88
13.72
14.15
14.83
15.35
15.30
14.40
12.60
10.05
7.08
4.08
1.26
-1.41
-4.13
-7.17
-10.68
-14.62
-18.87
-23.28
-27.79
-32.25
-36.38
-39.50
-40.61
-38.65
-32.97
-23.65
-11.73
0.96
12.24
20.03
22.78
19.47
9.54
-7.33
-31.10
-61.00
-95.12
-130.32
-162.78
-189.19
-207.79
-218.99
-224.90
-228.18
-230.73
-232.95
-234.05
-232.86
-228.73
-221.84
-212.74
-201.76
-188.55
-172.36
-152.66
-129.77
-104.99
-80.20
-57.07
-36.39
-17.90
-0.64
16.27
32.96
48.59
61.57
70.24
73.51
71.33
64.71
55.44
45.47
36.41
29.17
23.86
20.01
16.92
14.13
11.70
10.23
10.62
13.65
19.59
28.08
38.19
48.87
59.18
68.62
77.03
84.46
90.96
96.45
100.79
103.82
105.51
105.85
104.88
102.55
98.71
93.10
85.50
75.73
63.75
49.75
34.37
18.76
4.59
-6.23
-12.06
-12.04
-6.38
3.63
16.13
29.25
41.68
52.82
62.70
71.48
79.17
85.41
89.71
91.74
91.63
89.98
87.61
85.20
83.05
81.01
78.76
76.08
73.07
70.10
67.61
65.83
64.66
63.71
62.47
60.55
57.86
54.63
51.32
48.49
46.61
45.87
46.12
46.82
47.25
46.68
44.72
41.57
38.15
36.06
37.17
43.14
54.94
72.45
94.60
119.61
145.67
171.37
196.09
219.92
243.35
266.68
289.66
311.20
329.52
342.49
348.26
345.69
334.65
316.04
291.60
263.47
233.77
204.21
175.83
148.85
122.79
96.64
69.32
39.95
8.26
-25.29
-59.45
-92.26
-121.48
-145.00
-161.54
-171.17
-175.65
-178.06
-182.03
-190.64
-205.49
-226.17
-250.37
-274.52
-294.69
-307.57
-311.22
-305.62
-292.64
-275.42
-257.44
-241.11
-226.84
-212.91
-196.30
-174.18
-145.44
-111.37
-75.29
-41.42
-13.35
6.97
19.53
25.96
28.71
30.31
32.68
36.79
42.45
48.63
54.04
57.89
60.32
62.30
64.98
68.90
73.60
77.96
80.88
81.98
81.52
79.91
76.88
71.15
61.02
45.39
24.79
1.54
-20.83
-38.88
-50.35
-54.79
-53.29
-47.83
-40.52
-33.04
-26.54
-21.65
-18.71
-17.80
-18.89
-21.75
-25.97
-31.03
-36.36
-41.51
-46.20
-50.31
-53.83
-56.77
-59.09
-60.80
-61.99
-62.89
-63.82
-65.02
-66.53
-68.12
-69.33
-69.65
-68.64
-66.10
-62.04
-56.75
-50.74
-44.73
-39.46
-35.43
-32.58
-30.03
-26.23
-19.35
-7.96
8.33
28.69
51.15
73.24
92.71
108.05
118.79
125.33
128.63
129.73
129.48
128.38
126.71
124.55
121.92
118.85
115.33
111.28
106.61
101.25
95.24
88.67
81.63
74.00
65.53
55.79
44.37
31.08
16.09
-0.13
-16.93
-33.63
-49.63
-64.50
-77.93
-89.82
-100.17
-108.94
-115.89
-120.43
-121.60
-118.39
-110.16
-97.09
-80.34
-61.82
-43.68
-27.68
-14.70
-4.73
2.80
8.51
12.73
15.40
16.38
15.69
13.77
11.39
9.32
8.00
7.40
7.10
6.61
5.61
4.11
2.37
0.56
-1.33
-3.61
-6.62
-10.59
-15.40
-20.63
-25.73
-30.26
-34.05
-37.24
-40.15
-43.21
-46.74
-50.90
-55.58
-60.25
-63.96
-65.43
-63.38
-56.98
-46.28
-32.36
-17.01
-2.26
10.33
19.95
26.64
30.98
33.61
34.89
34.89
33.51
30.82
27.19
23.27
19.77
17.26
15.86
15.30
14.96
14.21
12.64
10.17
7.06
3.68
0.32
-2.96
-6.38
-10.23
-14.73
-19.82
-25.12
-30.02
-34.02
-36.82
-38.51
-39.60
-40.74
-42.59
-45.60
-49.88
-55.06
-60.28
-64.29
-65.65
-63.12
-56.06
-44.70
-30.20
-14.28
1.16
14.59
25.15
32.61
37.22
39.38
39.49
37.89
34.99
31.37
27.71
24.66
22.64
21.64
21.29
21.05
20.51
19.56
18.40
17.31
16.46
15.72
14.70
12.98
10.28
6.59
2.13
-2.78
-7.87
-12.94
-17.92
-22.81
-27.69
-32.74
-38.10
-43.67
-48.94
-52.86
-54.05
-51.31
-44.21
-33.41
-20.49
-7.45
3.98
12.87
19.07
22.98
25.07
25.65
24.87
22.89
20.08
17.02
14.35
12.55
11.78
11.82
12.24
12.51
12.22
11.18
9.42
7.16
4.67
2.07
-0.65
-3.65
-7.02
-10.70
-14.38
-17.59
-19.96
-21.40
-22.23
-23.10
-24.77
-27.85
-32.48
-38.16
-43.71
-47.55
-48.03
-44.08
-35.56
-23.49
-9.73
3.58
14.74
22.89
28.12
31.08
32.51
32.90
32.32
30.75
28.20
24.99
21.67
18.82
16.84
15.80
15.46
15.37
15.11
14.36
13.03
11.12
8.78
6.16
3.41
0.60
-2.26
-5.15
-8.09
-11.06
-14.02
-16.90
-19.58
-21.99
-24.00
-25.60
-26.89
-28.14
-29.77
-32.26
-35.94
-40.79
-46.28
-51.26
-54.23
-53.73
-48.79
-39.37
-26.50
-11.99
2.08
13.94
22.69
28.28
31.38
32.89
33.58
33.86
33.88
33.62
33.08
32.35
31.57
30.83
30.23
29.76
29.35
28.91
28.37
27.62
26.57
25.11
23.20
20.90
18.38
15.88
13.58
11.54
9.60
7.54
5.12
2.34
-0.65
-3.61
-6.37
-8.93
-11.45
-14.18
-17.30
-20.96
-25.17
-29.87
-34.78
-39.28
-42.41
-42.99
-40.05
-33.26
-23.27
-11.53
0.08
9.91
17.01
21.31
23.39
24.10
24.12
23.81
23.20
22.24
20.94
19.50
18.19
17.25
16.75
16.54
16.35
15.92
15.14
14.10
12.98
11.87
10.71
9.21
7.06
4.12
0.59
-3.07
-6.27
-8.59
-9.98
-10.79
-11.58
-12.91
-14.96
-17.52
-20.11
-22.20
-23.51
-24.14
-24.56
-25.35
-27.02
-29.74
-33.29
-37.07
-40.13
-41.39
-39.82
-34.79
-26.25
-14.93
-2.25
10.05
20.38
27.72
31.90
33.46
33.35
32.41
31.11
29.48
27.36
24.69
21.69
18.83
16.62
15.35
14.84
14.66
14.28
13.42
12.14
10.75
9.51
8.50
7.49
6.09
4.02
1.29
-1.80
-4.75
-7.07
-8.52
-9.20
-9.51
-9.95
-10.95
-12.67
-14.92
-17.24
-19.10
-20.24
-20.68
-20.82
-21.25
-22.46
-24.75
-28.13
-32.29
-36.62
-40.30
-42.25
-41.38
-36.92
-28.78
-17.71
-5.22
6.88
17.06
24.40
28.79
30.69
30.77
29.65
27.77
25.40
22.76
20.17
17.90
16.24
15.28
14.90
14.85
14.74
14.32
13.43
12.11
10.55
8.98
7.58
6.36
5.21
3.91
2.27
0.30
-1.86
-3.97
-5.84
-7.45
-8.93
-10.53
-12.40
-14.54
-16.75
-18.73
-20.34
-21.65
-22.96
-24.73
-27.27
-30.51
-33.78
-35.96
-35.81
-32.39
-25.51
-15.84
-4.71
6.27
15.73
22.82
27.39
29.75
30.40
29.79
28.20
25.83
22.85
19.61
16.56
14.16
12.68
12.17
12.36
12.80
13.04
12.78
11.93
10.63
9.12
7.65
6.34
5.16
3.86
2.14
-0.25
-3.27
-6.67
-10.00
-12.85
-15.01
-16.55
-17.77
-19.07
-20.73
-22.93
-25.66
-28.78
-31.95
-34.61
-35.98
-35.23
-31.68
-25.19
-16.29
-6.07
4.08
12.89
19.57
23.84
25.93
26.27
25.31
23.39
20.81
17.80
14.73
12.02
10.00
8.88
8.59
8.78
8.97
8.79
8.00
6.67
5.05
3.32
1.58
-0.28
-2.48
-5.14
-8.21
-11.44
-14.44
-16.86
-18.57
-19.71
-20.64
-21.84
-23.74
-26.61
-30.36
-34.53
-38.26
-40.48
-40.13
-36.53
-29.70
-20.37
-9.83
0.42
9.09
15.46
19.37
21.20
21.48
20.72
19.30
17.49
15.56
13.89
12.89
12.77
13.50
14.66
15.65
15.92
15.21
13.68
11.75
9.93
8.48
7.36
6.22
4.58
2.14
-1.18
-5.09
-9.03
-12.40
-14.75
-15.96
-16.30
-16.35
-16.85
-18.44
-21.46
-25.70
-30.34
-34.10
-35.55
-33.51
-27.60
-18.35
-7.10
4.42
14.66
22.74
28.47
32.17
34.30
35.15
34.79
33.25
30.70
27.65
24.77
22.72
21.74
21.61
21.71
21.37
20.21
18.28
16.02
13.91
12.24
10.87
9.39
7.29
4.34
0.68
-3.30
-7.07
-10.27
-12.83
-14.90
-16.84
-19.01
-21.78
-25.38
-29.92
-35.19
-40.54
-44.89
-46.90
-45.45
-39.98
-30.85
-19.30
-7.12
3.99
12.84
19.03
22.86
24.96
25.98
26.35
26.24
25.75
25.00
24.22
23.64
23.42
23.51
23.65
23.52
22.87
21.67
20.17
18.73
17.62
16.83
15.98
14.44
11.66
7.44
2.16
-3.41
-8.33
-11.98
-14.28
-15.70
-16.99
-18.90
-21.93
-26.18
-31.35
-36.77
-41.40
-44.03
-43.52
-39.22
-31.28
-20.68
-8.96
2.23
11.69
18.90
23.93
27.14
28.89
29.41
28.85
27.48
25.72
24.13
23.12
22.78
22.85
22.81
22.23
20.91
19.03
17.01
15.28
14.00
13.04
11.98
10.37
7.91
4.59
0.71
-3.25
-6.83
-9.74
-12.07
-14.15
-16.50
-19.68
-24.01
-29.42
-35.37
-40.88
-44.62
-45.34
-42.19
-35.04
-24.60
-12.26
0.24
11.41
20.21
26.33
29.96
31.59
31.82
31.07
29.70
27.99
26.23
24.62
23.32
22.35
21.59
20.86
19.98
18.94
17.77
16.61
15.50
14.39
13.08
11.28
8.76
5.47
1.65
-2.29
-5.84
-8.65
-10.65
-12.15
-13.73
-16.01
-19.47
-24.14
-29.61
-34.92
-38.84
-40.16
-37.99
-32.18
-23.30
-12.57
-1.49
8.58
16.74
22.63
26.33
28.12
28.34
27.35
25.54
23.40
21.44
20.08
19.44
19.34
19.40
19.27
18.77
17.94
16.96
15.89
14.62
12.88
10.37
7.00
2.96
-1.36
-5.52
-9.14
-12.11
-14.49
-16.54
-18.56
-20.92
-23.93
-27.72
-32.07
-36.28
-39.28
-39.79
-36.83
-30.15
-20.37
-8.91
2.48
12.27
19.54
24.12
26.41
27.12
26.89
26.17
25.18
24.07
23.02
22.28
22.03
22.34
23.00
23.56
23.54
22.64
20.87
18.53
16.09
13.81
11.66
9.32
6.41
2.74
-1.50
-5.83
-9.71
-12.78
-15.13
-17.18
-19.53
-22.75
-27.09
-32.40
-38.02
-42.94
-45.82
-45.50
-41.33
-33.49
-23.01
-11.51
-0.67
8.36
15.08
19.68
22.61
24.31
24.99
24.71
23.57
21.88
20.15
18.87
18.36
18.59
19.21
19.67
19.50
18.49
16.77
14.68
12.57
10.61
8.66
6.36
3.38
-0.38
-4.71
-9.06
-12.89
-15.81
-17.80
-19.15
-20.44
-22.20
-24.92
-28.74
-33.39
-38.12
-41.77
-43.03
-40.85
-34.84
-25.51
-14.13
-2.41
8.08
16.33
21.99
25.33
26.87
27.17
26.63
25.53
24.11
22.60
21.24
20.20
19.51
19.05
18.58
17.90
16.92
15.66
14.31
12.99
11.79
10.59
9.13
7.09
4.28
0.74
-3.22
-7.12
-10.43
-12.84
-14.35
-15.30
-16.26
-17.83
-20.50
-24.45
-29.43
-34.67
-38.94
-40.80
-39.07
-33.22
-23.76
-12.10
-0.12
10.43
18.52
23.95
27.20
28.93
29.71
29.72
29.00
27.60
25.81
24.10
22.93
22.62
23.11
24.02
24.84
25.09
24.57
23.35
21.68
19.78
17.78
15.54
12.86
9.56
5.65
1.39
-2.87
-6.71
-9.90
-12.38
-14.31
-15.95
-17.60
-19.59
-22.21
-25.62
-29.79
-34.28
-38.23
-40.46
-39.79
-35.53
-27.79
-17.57
-6.47
3.85
12.19
18.05
21.60
23.34
23.75
23.13
21.63
19.46
16.97
14.70
13.13
12.48
12.61
13.04
13.21
12.75
11.68
10.27
8.88
7.65
6.36
4.58
1.90
-1.74
-6.00
-10.22
-13.72
-16.14
-17.56
-18.46
-19.49
-21.26
-24.16
-28.19
-32.91
-37.40
-40.43
-40.71
-37.38
-30.31
-20.35
-9.03
1.86
10.84
17.16
20.79
22.27
22.23
21.23
19.59
17.50
15.21
12.99
11.13
9.85
9.16
8.89
8.81
8.66
8.30
7.62
6.56
5.00
2.87
0.13
-3.11
-6.57
-9.89
-12.72
-14.88
-16.41
-17.57
-18.80
-20.61
-23.41
-27.26
-31.72
-35.77
-38.01
-37.10
-32.32
-24.00
-13.43
-2.47
7.10
14.20
18.68
21.05
22.04
22.14
21.52
20.10
18.02
15.66
13.67
12.57
12.52
13.15
13.77
13.73
12.72
10.93
8.82
6.88
5.30
3.90
2.28
-0.01
-3.14
-7.02
-11.21
-15.18
-18.41
-20.61
-21.78
-22.23
-22.56
-23.43
-25.48
-29.00
-33.78
-38.99
-43.24
-45.01
-43.06
-36.97
-27.36
-15.68
-3.75
6.86
15.19
21.09
24.87
27.02
27.84
27.46
25.92
23.44
20.49
17.76
15.93
15.35
15.89
16.96
17.86
18.04
17.37
16.16
14.93
14.08
13.68
13.40
12.69
11.12
8.57
5.26
1.74
-1.44
-3.91
-5.56
-6.67
-7.64
-9.00
-11.19
-14.54
-19.08
-24.41
-29.61
-33.36
-34.27
-31.41
-24.73
-15.20
-4.47
5.71
14.07
20.11
24.00
26.18
27.04
26.75
25.36
23.07
20.32
17.68
15.67
14.51
14.05
13.88
13.58
12.85
11.72
10.42
9.24
8.34
7.59
6.70
5.24
2.91
-0.28
-4.02
-7.78
-11.04
-13.46
-15.09
-16.29
-17.59
-19.58
-22.64
-26.90
-32.06
-37.39
-41.78
-43.90
-42.64
-37.49
-28.81
-17.77
-6.08
4.59
13.10
19.00
22.52
24.23
24.73
24.43
23.54
22.21
20.64
19.12
17.94
17.21
16.86
16.64
16.22
15.43
14.30
12.98
11.62
10.21
8.52
6.25
3.20
-0.56
-4.73
-8.82
-12.38
-15.11
-17.03
-18.42
-19.81
-21.83
-24.89
-28.98
-33.39
-36.81
-37.68
-34.77
-27.74
-17.39
-5.45
6.07
15.53
22.13
25.96
27.66
27.90
27.20
25.81
23.92
21.81
19.87
18.44
17.66
17.49
17.75
18.26
18.94
19.76
20.63
21.27
21.31
20.40
18.39
15.42
11.91
8.40
5.33
2.92
1.07
-0.55
-2.40
-4.89
-8.31
-12.56
-17.07
-20.78
-22.26
-20.15
-13.60
-2.76
11.02
25.48
38.08
46.81
50.83
50.62
47.69
43.86
40.63
38.86
38.66
39.75
41.69
44.00
46.14
47.53
47.46
45.45
41.57
36.52
31.63
28.41
27.99
30.72
36.10
43.06
50.36
56.94
61.89
64.38
63.55
58.75
50.00
38.40
26.24
16.66
12.82
16.94
29.50
48.80
71.18
91.75
105.68
109.46
101.92
84.62
61.36
37.05
16.32
2.36
-3.57
-2.08
4.84
14.40
23.54
29.41
29.72
23.19
9.47
-10.93
-36.94
-67.16
-99.95
-133.55
-166.08
-195.73
-220.78
-239.65
-250.91
-253.42
-246.62
-231.03
-208.55
-182.47
-156.73
-134.89
-119.09
-109.66
-105.32
-104.08
-103.90
-103.14
-100.57
-95.17
-86.16
-73.24
-56.95
-38.75
-20.75
-4.98
7.30
15.98
21.88
26.23
29.96
33.38
36.21
37.97
38.46
37.95
37.12
36.78
37.48
39.27
41.75
44.27
46.16
47.00
46.69
45.40
43.38
40.82
37.77
34.31
30.56
26.73
23.07
19.73
16.70
13.76
10.50
6.48
1.42
-4.73
-11.53
-18.12
-23.30
-25.82
-24.84
-20.12
-12.26
-2.48
7.72
17.05
24.67
30.23
33.85
35.74
36.18
35.32
33.37
30.62
27.59
24.91
23.16
22.73
23.62
25.47
27.65
29.49
30.46
30.35
29.17
27.15
24.60
21.78
18.87
15.94
13.00
9.98
6.76
3.22
-0.81
-5.42
-10.65
-16.45
-22.49
-28.09
-32.19
-33.55
-31.14
-24.65
-14.78
-3.11
8.35
17.85
24.45
28.13
29.55
29.50
28.56
26.88
24.33
20.80
16.37
11.37
6.30
1.68
-2.05
-4.64
-5.98
-6.16
-5.46
-4.30
-3.33
-3.18
-4.37
-7.10
-11.18
-16.03
-20.92
-25.17
-28.31
-30.23
-31.15
-31.58
-32.19
-33.63
-36.27
-39.93
-43.76
-46.38
-46.28
-42.46
-34.84
-24.38
-12.77
-1.83
7.09
13.36
17.10
18.82
19.08
18.29
16.62
14.25
11.45
8.65
6.38
5.00
4.52
4.67
4.92
4.80
4.07
2.86
1.56
0.52
-0.10
-0.58
-1.46
-3.34
-6.63
-11.25
-16.74
-22.35
-27.35
-31.28
-34.08
-36.06
-37.70
-39.51
-41.82
-44.67
-47.75
-50.37
-51.56
-50.32
-45.95
-38.30
-27.91
-15.96
-3.89
6.95
15.64
21.90
25.93
28.24
29.34
29.54
28.94
27.57
25.53
23.15
20.94
19.34
18.57
18.47
18.59
18.36
17.46
15.83
13.74
11.54
9.44
7.52
5.60
3.49
1.01
-1.86
-5.06
-8.43
-11.79
-15.01
-18.05
-20.93
-23.69
-26.38
-29.01
-31.60
-34.21
-36.90
-39.64
-42.11
-43.64
-43.31
-40.18
-33.76
-24.21
-12.46
0.07
11.91
21.92
29.49
34.54
37.37
38.41
38.07
36.65
34.45
31.78
29.06
26.74
25.14
24.41
24.37
24.64
24.77
24.50
23.80
22.83
21.86
20.96
20.06
18.93
17.29
15.06
12.26
9.08
5.74
2.41
-0.80
-3.83
-6.62
-9.10
-11.20
-12.97
-14.63
-16.52
-19.03
-22.34
-26.23
-30.01
-32.62
-32.92
-30.13
-24.08
-15.39
-5.20
5.10
14.31
21.64
26.84
30.01
31.44
31.41
30.18
27.99
25.21
22.21
19.44
17.27
15.86
15.14
14.87
14.78
14.58
14.13
13.39
12.38
11.17
9.80
8.27
6.57
4.63
2.32
-0.48
-3.82
-7.56
-11.37
-14.72
-17.12
-18.25
-18.19
-17.41
-16.68
-16.84
-18.47
-21.67
-25.96
-30.37
-33.64
-34.63
-32.57
-27.37
-19.63
-10.51
-1.40
6.42
12.09
15.27
16.11
15.00
12.42
8.82
4.63
0.32
-3.64
-6.76
-8.76
-9.61
-9.67
-9.47
-9.51
-10.06
-11.13
-12.54
-14.16
-16.05
-18.50
-21.72
-25.65
-29.76
-33.11
-34.68
-33.73
-30.12
-24.35
-17.39
-10.37
-4.36
-0.16
1.64
0.78
-2.54
-7.51
-12.71
-16.40
-16.98
-13.60
-6.48
3.23
13.84
23.77
31.91
37.83
41.56
43.33
43.38
41.91
39.21
35.68
31.89
28.41
25.67
23.83
22.78
22.25
21.90
21.51
20.96
20.23
19.31
18.15
16.57
14.32
11.22
7.23
2.58
-2.34
-7.00
-10.98
-14.11
-16.55
-18.73
-21.28
-24.78
-29.54
-35.46
-41.85
-47.49
-50.88
-50.64
-46.00
-37.05
-24.84
-11.06
2.51
14.41
23.90
30.85
35.54
38.41
39.81
39.92
38.90
36.96
34.49
32.01
29.96
28.59
27.81
27.24
26.47
25.22
23.54
21.72
20.10
18.81
17.63
16.11
13.74
10.20
5.58
0.29
-5.05
-9.82
-13.63
-16.42
-18.39
-20.00
-21.80
-24.29
-27.87
-32.58
-38.01
-43.25
-47.00
-47.91
-45.03
-38.24
-28.31
-16.70
-5.07
5.22
13.49
19.65
23.98
26.81
28.30
28.47
27.37
25.27
22.72
20.37
18.84
18.42
18.92
19.81
20.42
20.23
19.14
17.37
15.38
13.48
11.70
9.72
7.13
3.67
-0.55
-5.10
-9.37
-12.87
-15.44
-17.22
-18.54
-19.81
-21.32
-23.36
-26.09
-29.64
-33.93
-38.47
-42.28
-44.04
-42.52
-37.04
-27.90
-16.30
-4.04
7.19
16.29
22.91
27.31
29.94
31.11
30.93
29.46
26.94
23.89
21.01
18.89
17.81
17.64
17.97
18.35
18.54
18.53
18.44
18.35
18.07
17.27
15.53
12.61
8.60
3.87
-1.01
-5.58
-9.55
-12.87
-15.67
-18.20
-20.76
-23.70
-27.30
-31.57
-36.08
-39.84
-41.54
-39.90
-34.22
-24.76
-12.72
0.15
12.06
21.72
28.58
32.72
34.63
34.86
33.86
31.99
29.52
26.78
24.11
21.87
20.30
19.44
19.10
18.97
18.75
18.21
17.36
16.20
14.72
12.76
10.07
6.48
1.99
-3.08
-8.28
-13.08
-17.16
-20.51
-23.41
-26.36
-29.86
-34.18
-39.11
-43.92
-47.40
-48.14
-45.09
-37.90
-27.20
-14.43
-1.39
10.39
19.96
27.05
31.86
34.71
35.83
35.33
33.42
30.48
27.12
24.04
21.78
20.57
20.25
20.41
20.55
20.32
19.52
18.20
16.55
14.75
12.89
10.89
8.54
5.60
1.90
-2.47
-7.23
-11.93
-16.12
-19.56
-22.27
-24.52
-26.77
-29.44
-32.93
-37.43
-42.88
-48.79
-54.17
-57.58
-57.58
-53.10
-44.04
-31.36
-16.81
-2.39
10.29
20.43
28.00
33.46
37.35
40.00
41.51
41.83
41.10
39.60
37.84
36.33
35.44
35.24
35.51
35.87
35.86
35.17
33.69
31.53
28.90
26.03
23.06
19.99
16.68
12.94
8.65
3.84
-1.26
-6.31
-10.92
-14.79
-17.87
-20.38
-22.72
-25.43
-29.00
-33.71
-39.44
-45.59
-51.06
-54.40
-54.21
-49.58
-40.47
-27.80
-13.20
1.41
14.41
24.83
32.36
37.26
40.03
41.20
41.19
40.37
39.04
37.54
36.16
35.14
34.61
34.55
34.80
35.05
34.99
34.35
33.03
31.14
28.83
26.34
23.69
20.83
17.58
13.76
9.37
4.62
-0.13
-4.44
-7.94
-10.55
-12.43
-13.96
-15.67
-18.03
-21.33
-25.53
-30.19
-34.47
-37.24
-37.38
-34.11
-27.30
-17.61
-6.35
4.84
14.51
21.70
26.11
28.00
27.96
26.54
24.22
21.33
18.06
14.73
11.61
8.98
6.98
5.51
4.26
2.92
1.25
-0.78
-2.96
-4.99
-6.68
-8.02
-9.21
-10.59
-12.39
-14.68
-17.32
-19.99
-22.43
-24.49
-26.26
-27.99
-30.06
-32.73
-36.14
-40.12
-44.19
-47.54
-49.18
-48.12
-43.71
-35.89
-25.29
-13.15
-1.01
9.76
18.22
23.99
27.21
28.27
27.61
25.66
22.81
19.49
16.17
13.28
11.10
9.71
8.98
8.60
8.23
7.65
6.73
5.44
3.74
1.55
-1.21
-4.61
-8.58
-12.91
-17.26
-21.24
-24.61
-27.31
-29.55
-31.78
-34.52
-38.32
-43.51
-50.10
-57.55
-64.78
-70.31
-72.70
-71.00
-65.20
-56.32
-46.10
-36.42
-28.74
-23.75
-21.52
-21.81
-24.34
-28.95
-35.43
-43.32
-51.89
-60.26
-67.80
-74.38
-80.65
-87.72
-96.76
-108.37
-122.14
-136.52
-148.93
-156.39
-156.17
-146.48
-126.85
-98.21
-62.53
-22.21
20.29
62.77
103.23
139.75
170.27
192.73
205.23
206.43
195.94
174.60
144.63
109.45
73.27
40.33
14.06
-3.70
-12.87
-14.91
-12.06
-6.52
0.26
7.79
16.43
26.98
40.35
57.28
78.27
103.45
132.51
164.64
198.33
231.44
261.44
285.79
302.47
310.22
308.60
297.79
278.22
250.37
214.88
172.71
125.43
75.30
25.17
-21.97
-63.40
-97.10
-121.99
-138.01
-146.03
-147.66
-145.01
-140.26
-135.31
-131.29
-128.30
-125.44
-121.23
-114.27
-103.93
-90.67
-75.86
-61.26
-48.32
-37.81
-29.75
-23.70
-19.29
-16.30
-14.72
-14.44
-15.02
-15.73
-15.66
-14.16
-11.12
-7.05
-2.90
0.35
2.08
2.27
1.40
0.12
-1.14
-2.32
-3.72
-5.71
-8.47
-11.83
-15.37
-18.63
-21.36
-23.51
-25.31
-27.08
-29.10
-31.63
-34.85
-38.77
-43.17
-47.43
-50.55
-51.26
-48.54
-41.90
-31.80
-19.52
-6.87
4.44
13.27
19.24
22.65
24.08
24.10
23.09
21.29
18.94
16.43
14.30
13.03
12.82
13.48
14.46
15.10
14.93
13.85
12.12
10.21
8.47
7.01
5.56
3.70
1.10
-2.30
-6.25
-10.31
-13.97
-16.97
-19.29
-21.19
-23.04
-25.26
-28.18
-31.95
-36.48
-41.29
-45.55
-48.09
-47.70
-43.56
-35.57
-24.52
-11.89
0.56
11.34
19.56
25.07
28.18
29.38
29.09
27.62
25.26
22.35
19.39
16.86
15.11
14.17
13.79
13.51
12.93
11.85
10.38
8.84
7.53
6.56
5.69
4.44
2.23
-1.19
-5.67
-10.60
-15.19
-18.79
-21.17
-22.59
-23.63
-25.00
-27.19
-30.35
-34.24
-38.14
-41.01
-41.67
-39.09
-32.78
-23.08
-11.09
1.54
13.11
22.32
28.50
31.60
31.99
30.31
27.25
23.53
19.84
16.72
14.47
13.12
12.48
12.26
12.26
12.42
12.75
13.26
13.81
14.11
13.80
12.54
10.19
6.83
2.72
-1.79
-6.31
-10.55
-14.35
-17.67
-20.70
-23.76
-27.25
-31.46
-36.33
-41.23
-45.01
-46.27
-43.84
-37.32
-27.32
-15.38
-3.47
6.69
14.10
18.66
20.93
21.71
21.59
20.86
19.62
17.97
16.18
14.68
13.88
13.92
14.61
15.44
15.94
15.84
15.15
14.09
12.87
11.41
9.46
6.62
2.65
-2.33
-7.83
-13.15
-17.68
-21.13
-23.63
-25.64
-27.80
-30.70
-34.73
-39.86
-45.52
-50.56
-53.54
-53.06
-48.29
-39.34
-27.33
-14.03
-1.31
9.41
17.50
22.98
26.25
27.73
27.76
26.57
24.52
22.10
19.90
18.42
17.84
17.94
18.20
18.04
17.04
15.11
12.47
9.48
6.45
3.45
0.31
-3.34
-7.86
-13.43
-19.94
-27.00
-34.05
-40.61
-46.47
-51.75
-56.85
-62.28
-68.49
-75.62
-83.32
-90.70
-96.36
-98.71
-96.40
-88.73
-76.01
-59.53
-41.21
-23.12
-6.88
6.56
17.01
24.72
30.26
34.21
37.12
39.44
41.51
43.48
45.34
46.86
47.74
47.65
46.38
43.90
40.41
36.26
31.93
27.84
24.30
21.33
18.66
15.89
12.64
8.77
4.51
0.42
-2.79
-4.61
-4.96
-4.26
-3.41
-3.49
-5.47
-9.89
-16.68
-25.02
-33.44
-40.07
-43.15
-41.53
-35.05
-24.64
-12.06
0.66
11.82
20.48
26.49
30.29
32.52
33.71
34.17
34.02
33.40
32.49
31.55
30.79
30.28
29.89
29.42
28.73
27.83
26.93
26.31
26.15
26.38
26.65
26.37
24.94
21.96
17.40
11.63
5.28
-1.00
-6.77
-11.94
-16.75
-21.70
-27.33
-34.12
-42.30
-51.75
-61.75
-71.03
-77.98
-81.10
-79.56
-73.58
-64.39
-53.84
-43.73
-35.28
-28.95
-24.59
-21.79
-20.26
-19.96
-21.01
-23.47
-27.05
-30.93
-33.89
-34.44
-31.20
-23.18
-10.01
8.04
30.20
55.32
82.22
109.72
136.85
162.80
187.06
209.36
229.68
247.95
263.87
276.69
285.27
288.34
285.04
275.19
259.40
238.83
214.77
188.41
160.80
132.94
105.91
80.76
58.13
37.97
19.42
1.15
-18.07
-38.78
-60.69
-82.72
-103.49
-121.79
-136.83
-148.32
-156.31
-160.94
-162.29
-160.36
-155.12
-146.73
-135.62
-122.54
-108.47
-94.52
-81.66
-70.69
-62.08
-56.02
-52.47
-51.19
-51.71
-53.37
-55.37
-56.96
-57.66
-57.50
-56.97
-56.93
-58.25
-61.35
-65.96
-71.11
-75.26
-76.85
-74.80
-68.73
-59.03
-46.62
-32.51
-17.60
-2.61
11.81
25.04
36.48
45.75
52.83
58.16
62.52
66.76
71.57
77.27
83.87
91.06
98.40
105.40
111.57
116.53
119.92
121.43
120.76
117.61
111.82
103.40
92.65
80.14
66.49
52.26
37.81
23.25
8.49
-6.66
-22.42
-38.93
-56.08
-73.32
-89.41
-102.56
-110.73
-112.40
-107.21
-96.27
-81.83
-66.53
-52.50
-40.79
-31.41
-23.91
-18.04
-14.12
-12.79
-14.57
-19.21
-25.53
-31.72
-35.95
-36.96
-34.37
-28.67
-20.82
-11.86
-2.73
5.80
12.89
17.59
18.94
16.25
9.47
-0.62
-12.51
-24.34
-34.41
-41.64
-45.77
-47.33
-47.38
-47.26
-48.13
-50.77
-55.14
-60.33
-64.64
-65.99
-62.65
-53.79
-39.91
-22.65
-4.34
12.71
26.83
37.24
43.96
47.50
48.37
46.95
43.50
38.28
31.94
25.38
19.68
15.68
13.73
13.53
14.34
15.30
15.72
15.24
13.79
11.41
8.15
4.09
-0.66
-5.83
-11.10
-16.18
-20.94
-25.50
-30.16
-35.26
-40.97
-47.21
-53.64
-59.70
-64.72
-67.91
-68.47
-65.67
-58.98
-48.31
-34.04
-17.03
1.61
20.62
38.75
54.84
67.66
76.17
79.75
78.59
74.00
68.29
64.19
63.98
68.62
77.25
87.51
96.16
100.25
98.04
89.49
76.18
60.66
45.70
33.54
25.44
21.61
21.44
23.78
27.26
30.46
31.98
30.48
24.91
14.66
-0.01
-17.83
-36.48
-53.00
-64.59
-69.36
-67.04
-58.99
-47.70
-35.88
-25.59
-17.76
-12.11
-7.49
-2.44
4.42
13.90
25.98
39.59
52.62
62.44
66.69
64.22
55.53
42.56
27.92
13.91
1.82
-8.04
-16.02
-22.57
-28.01
-32.56
-36.58
-40.57
-44.99
-49.87
-54.55
-57.80
-58.33
-55.31
-48.91
-40.29
-31.24
-23.44
-17.75
-13.74
-9.70
-3.29
7.63
24.19
46.01
71.33
97.58
122.05
142.60
157.72
166.49
168.46
163.48
151.71
133.80
110.91
84.78
57.47
31.10
7.38
-12.67
-28.86
-41.72
-52.11
-60.89
-68.64
-75.67
-82.20
-88.50
-94.92
-101.69
-108.72
-115.52
-121.31
-125.39
-127.40
-127.42
-125.72
-122.49
-117.59
-110.67
-101.48
-90.26
-77.86
-65.59
-54.77
-46.36
-40.59
-37.10
-35.24
-34.39
-34.15
-34.42
-35.10
-36.04
-36.89
-37.16
-36.33
-34.05
-30.35
-25.68
-20.88
-16.95
-14.70
-14.49
-16.06
-18.66
-21.40
-23.60
-25.05
-26.02
-27.07
-28.67
-31.03
-33.95
-36.83
-38.78
-38.77
-35.78
-29.21
-19.06
-6.13
8.13
22.01
34.06
43.54
50.41
55.10
58.08
59.45
59.10
56.86
52.89
47.77
42.41
37.67
34.09
31.76
30.29
29.20
27.95
26.28
24.14
21.60
18.78
15.76
12.50
8.88
4.76
-0.03
-5.58
-11.85
-18.68
-25.60
-31.86
-36.34
-37.85
-35.44
-28.82
-18.56
-5.96
7.28
19.60
29.92
37.70
42.81
45.20
44.81
41.57
35.79
28.22
20.10
12.77
7.25
3.92
2.51
2.28
2.50
2.74
2.84
2.92
3.01
2.96
2.42
0.99
-1.60
-5.42
-10.31
-16.08
-22.52
-29.30
-35.91
-41.47
-44.79
-44.64
-40.24
-31.63
-19.84
-6.56
6.38
17.58
26.40
32.80
37.13
39.62
40.32
39.14
36.16
31.70
26.43
21.11
16.33
12.38
9.26
6.74
4.54
2.41
0.16
-2.34
-5.13
-8.18
-11.38
-14.60
-17.74
-20.87
-24.17
-27.96
-32.48
-37.77
-43.42
-48.52
-51.82
-51.93
-47.81
-39.22
-26.88
-12.41
2.15
14.89
24.55
30.70
33.58
33.84
32.11
28.90
24.60
19.51
13.92
8.14
2.40
-3.19
-8.66
-14.12
-19.76
-25.66
-31.84
-37.99
-43.59
-47.91
-50.24
-50.08
-47.45
-42.74
-36.75
-30.34
-24.27
-19.12
-15.21
-12.53
-10.62
-8.38
-4.18
3.75
16.64
34.46
55.66
77.55
97.20
112.45
122.56
128.13
130.43
130.52
128.78
124.87
118.33
109.22
98.36
87.19
77.29
69.76
64.95
62.56
61.86
62.13
62.81
63.57
64.15
64.34
63.99
63.09
61.86
60.68
59.95
59.92
60.46
61.11
61.14
59.72
56.06
49.53
39.77
26.95
11.80
-4.54
-20.95
-36.82
-52.47
-68.94
-87.47
-108.73
-132.40
-157.11
-180.90
-201.66
-217.53
-227.03
-229.02
-222.81
-208.34
-186.33
-158.36
-126.72
-94.06
-62.96
-35.55
-13.14
3.85
15.84
23.84
28.92
31.85
32.97
32.38
30.19
26.79
22.71
18.36
13.74
8.33
1.35
-7.76
-18.83
-30.72
-41.39
-48.38
-49.59
-43.97
-31.95
-15.52
2.42
18.85
31.53
39.49
43.05
43.29
41.49
38.58
34.95
30.64
25.64
20.23
14.93
10.39
7.03
4.85
3.41
2.09
0.31
-2.24
-5.55
-9.39
-13.46
-17.52
-21.41
-25.07
-28.47
-31.57
-34.33
-36.71
-38.72
-40.42
-41.99
-43.69
-45.69
-47.86
-49.56
-49.65
-46.74
-39.72
-28.26
-13.02
4.37
21.82
37.30
49.36
57.31
61.12
61.17
57.96
52.01
43.90
34.37
24.44
15.26
7.90
3.07
0.89
0.93
2.36
4.21
5.66
6.14
5.40
3.49
0.66
-2.71
-6.16
-9.28
-11.80
-13.72
-15.30
-17.07
-19.68
-23.70
-29.47
-36.81
-45.07
-53.01
-59.16
-62.08
-60.82
-55.29
-46.28
-35.30
-24.10
-14.15
-6.34
-0.93
2.17
3.05
1.60
-2.38
-8.94
-17.70
-27.74
-37.81
-46.72
-53.77
-58.99
-63.01
-66.76
-71.02
-76.04
-81.44
-86.45
-90.20
-92.14
-91.93
-89.35
-83.99
-75.37
-63.25
-48.14
-31.65
-16.08
-3.77
3.94
7.32
8.33
9.98
15.30
26.41
43.86
66.57
92.23
117.85
140.56
158.22
169.89
175.87
177.40
176.16
173.79
171.50
169.99
169.31
169.02
168.23
165.80
160.69
152.24
140.48
126.10
110.30
94.42
79.54
66.18
54.28
43.42
33.07
22.90
12.91
3.35
-5.46
-13.27
-20.11
-26.29
-32.31
-38.73
-45.98
-54.15
-62.79
-70.89
-76.91
-79.23
-76.64
-68.86
-56.82
-42.44
-28.08
-15.79
-6.78
-1.31
1.09
1.20
-0.20
-2.51
-5.17
-7.65
-9.35
-9.84
-8.91
-6.79
-4.01
-1.28
0.80
1.92
2.05
1.42
0.32
-1.07
-2.77
-4.97
-7.79
-11.26
-15.14
-19.05
-22.52
-25.25
-27.17
-28.55
-29.90
-31.88
-34.97
-39.19
-43.94
-47.99
-49.77
-47.88
-41.64
-31.30
-18.01
-3.41
10.88
23.62
34.03
41.73
46.55
48.44
47.55
44.30
39.41
33.86
28.58
24.22
21.08
19.08
17.92
17.23
16.70
16.09
15.25
14.02
12.35
10.22
7.65
4.65
1.16
-2.81
-7.17
-11.64
-15.80
-19.22
-21.72
-23.52
-25.16
-27.39
-30.75
-35.36
-40.76
-45.97
-49.63
-50.39
-47.26
-39.93
-28.94
-15.62
-1.72
11.11
21.70
29.52
34.62
37.25
37.74
36.30
33.21
28.94
24.26
20.11
17.24
16.03
16.24
17.23
18.20
18.56
18.14
17.17
16.06
15.06
14.07
12.72
10.48
7.02
2.40
-2.95
-8.38
-13.33
-17.49
-20.88
-23.77
-26.53
-29.57
-33.22
-37.72
-43.01
-48.51
-53.12
-55.31
-53.60
-47.14
-36.13
-21.85
-6.27
8.52
20.96
30.25
36.31
39.47
40.19
38.89
35.96
31.92
27.46
23.38
20.35
18.70
18.34
18.74
19.30
19.58
19.50
19.24
19.06
19.01
18.82
17.96
15.89
12.37
7.56
1.99
-3.59
-8.54
-12.48
-15.43
-17.74
-19.92
-22.49
-25.85
-30.21
-35.36
-40.71
-45.17
-47.33
-45.84
-39.80
-29.25
-15.25
0.34
15.45
28.33
37.99
44.25
47.55
48.66
48.38
47.41
46.32
45.52
45.19
45.32
45.74
46.27
46.87
47.74
49.26
51.76
55.29
59.47
63.53
66.53
67.70
66.81
64.29
61.14
58.72
58.31
60.61
65.31
70.89
74.79
73.97
65.82
48.98
23.86
-7.44
-41.80
-76.08
-108.04
-136.59
-161.52
-182.75
-199.64
-210.78
-214.33
-208.95
-194.40
-172.09
-144.68
-115.55
-87.86
-64.01
-45.30
-31.99
-23.51
-18.68
-16.06
-14.24
-12.02
-8.66
-3.90
2.01
8.42
14.42
19.08
21.62
21.66
19.34
15.31
10.59
6.22
2.93
0.90
-0.25
-1.40
-3.54
-7.47
-13.48
-21.02
-28.83
-35.06
-37.85
-35.87
-28.82
-17.53
-3.76
10.40
23.17
33.45
40.91
45.71
48.15
48.52
47.00
43.93
39.85
35.54
31.76
29.01
27.36
26.46
25.83
25.06
24.03
22.95
22.13
21.71
21.52
21.01
19.54
16.59
12.00
6.17
-0.18
-6.19
-11.22
-15.01
-17.78
-20.13
-22.84
-26.66
-32.05
-38.96
-46.65
-53.61
-57.93
-57.82
-52.30
-41.63
-27.36
-11.80
2.72
14.63
23.43
29.52
33.71
36.65
38.60
39.44
38.99
37.29
34.72
31.91
29.47
27.80
26.89
26.41
25.89
24.93
23.42
21.51
19.47
17.53
15.72
13.80
11.37
8.08
3.83
-1.16
-6.46
-11.51
-15.89
-19.42
-22.19
-24.51
-26.76
-29.39
-32.80
-37.30
-42.85
-48.90
-54.26
-57.30
-56.43
-50.68
-40.18
-26.17
-10.66
4.32
17.25
27.50
35.11
40.45
43.89
45.57
45.56
44.13
41.90
39.70
38.33
38.25
39.35
41.02
42.47
43.11
42.78
41.72
40.44
39.31
38.36
37.23
35.36
32.28
27.88
22.51
16.88
11.80
7.83
5.12
3.41
2.09
0.47
-2.02
-5.68
-10.46
-15.89
-21.08
-24.77
-25.73
-23.17
-17.17
-8.83
-0.03
7.25
11.58
12.57
10.82
7.48
3.70
0.25
-2.63
-4.98
-6.94
-8.48
-9.47
-9.81
-9.53
-8.90
-8.31
-8.07
-8.26
-8.64
-8.75
-8.28
-7.31
-6.42
-6.50
-8.39
-12.45
-18.36
-25.27
-32.12
-38.01
-42.52
-45.74
-48.10
-50.30
-53.07
-56.94
-62.02
-67.71
-72.65
-74.84
-72.29
-63.72
-49.10
-29.87
-8.56
12.05
29.69
43.15
52.27
57.61
59.94
59.89
57.93
54.52
50.29
45.98
42.25
39.44
37.40
35.66
33.68
31.21
28.33
25.42
22.80
20.53
18.38
15.86
12.50
8.09
2.65
-3.56
-10.15
-16.77
-23.17
-29.16
-34.69
-39.83
-44.79
-49.87
-55.41
-61.62
-68.46
-75.55
-82.10
-87.02
-89.18
-87.56
-81.64
-71.41
-57.62
-41.74
-25.80
-12.04
-2.27
2.75
3.64
2.19
0.74
1.29
4.90
11.58
20.53
30.79
41.49
52.02
61.85
70.39
77.16
81.94
85.06
87.30
89.67
92.99
97.61
103.24
109.15
114.48
118.43
120.59
120.92
119.81
117.89
115.85
114.31
113.67
113.94
114.81
115.68
115.77
114.40
111.35
107.11
103.03
101.10
103.26
110.56
122.48
136.90
150.76
161.17
166.59
167.43
165.73
164.23
164.89
167.95
171.40
171.67
164.84
148.17
121.04
85.08
43.44
-0.61
-44.64
-87.68
-129.98
-172.52
-216.34
-262.03
-309.26
-356.33
-400.11
-436.30
-460.45
-469.29
-461.80
-439.46
-405.60
-364.25
-319.06
-272.97
-228.35
-187.36
-152.04
-123.86
-103.23
-89.21
-79.80
-72.74
-66.20
-59.27
-51.88
-44.31
-36.61
-28.44
-19.24
-8.61
3.24
15.48
26.90
36.47
43.71
48.84
52.58
55.70
58.80
62.14
65.78
69.75
74.15
79.04
84.36
89.77
94.69
98.35
100.07
99.44
96.45
91.52
85.29
78.42
71.34
64.16
56.74
48.92
40.75
32.60
25.08
18.75
13.87
10.23
7.22
4.00
-0.28
-6.33
-14.54
-24.86
-36.56
-48.13
-57.47
-62.38
-61.27
-53.79
-40.94
-24.79
-7.78
7.99
21.18
31.14
37.69
40.85
40.75
37.80
32.86
27.24
22.46
19.81
19.92
22.50
26.45
30.21
32.38
32.14
29.52
25.28
20.47
15.88
11.80
8.00
4.04
-0.32
-4.93
-9.27
-12.86
-15.59
-17.87
-20.47
-24.22
-29.59
-36.58
-44.66
-52.90
-60.11
-64.90
-65.90
-61.96
-52.59
-38.27
-20.52
-1.63
15.95
30.23
40.17
45.72
47.64
47.01
44.95
42.32
39.73
37.58
36.14
35.53
35.72
36.48
37.50
38.43
38.98
38.90
37.96
35.99
32.85
28.55
23.31
17.47
11.33
5.06
-1.36
-8.00
-14.86
-21.80
-28.65
-35.40
-42.27
-49.48
-56.82
-63.27
-67.05
-66.05
-58.78
-45.11
-26.58
-6.06
13.19
28.48
38.41
42.98
43.22
40.57
36.31
31.33
26.19
21.30
17.08
13.95
12.16
11.67
12.04
12.66
12.99
12.83
12.39
12.13
12.32
12.78
12.75
11.20
7.32
0.95
-7.21
-15.87
-23.69
-29.77
-33.99
-36.83
-39.19
-41.88
-45.40
-49.81
-54.68
-59.05
-61.56
-60.69
-55.16
-44.46
-29.21
-11.07
7.60
24.51
38.02
47.50
53.20
55.88
56.41
55.44
53.44
50.70
47.53
44.24
41.12
38.30
35.73
33.20
30.48
27.44
24.09
20.62
17.26
14.15
11.27
8.33
4.89
0.54
-4.73
-10.52
-15.87
-19.74
-21.42
-21.00
-19.48
-18.49
-19.69
-23.93
-30.84
-38.69
-44.85
-46.72
-42.47
-31.75
-15.64
3.70
23.86
42.84
59.43
73.28
84.52
93.41
100.11
104.58
106.70
106.50
104.35
101.00
97.43
94.58
92.90
91.93
90.14
85.29
75.23
58.97
37.46
13.75
-7.90
-23.29
-29.67
-26.43
-14.98
2.02
21.37
39.74
53.77
60.20
56.31
40.72
13.97
-21.42
-61.81
-103.64
-144.30
-182.18
-216.06
-244.39
-265.10
-276.37
-277.66
-270.52
-258.19
-244.52
-232.45
-222.90
-214.82
-206.02
-194.35
-178.57
-158.53
-134.83
-108.27
-79.58
-49.53
-19.26
9.48
34.62
54.27
67.35
74.01
75.53
73.86
70.98
68.36
66.60
65.50
64.30
62.11
58.39
53.23
47.36
41.89
37.64
34.70
32.26
28.86
23.05
14.05
2.14
-11.36
-24.31
-34.26
-38.90
-36.48
-26.28
-8.88
13.80
38.66
62.06
80.67
92.27
96.22
93.51
86.24
76.92
67.76
60.19
54.73
51.26
49.33
48.48
48.29
48.34
48.04
46.66
43.44
37.87
29.96
20.25
9.74
-0.51
-9.59
-17.00
-22.62
-26.63
-29.27
-30.80
-31.50
-31.85
-32.51
-34.13
-37.00
-40.51
-43.19
-42.99
-38.13
-27.88
-13.03
4.23
21.09
34.94
44.14
48.20
47.62
43.50
37.02
29.21
20.87
12.55
4.64
-2.48
-8.48
-13.08
-16.11
-17.67
-18.16
-18.19
-18.46
-19.49
-21.43
-24.07
-26.95
-29.65
-32.02
-34.29
-37.02
-40.81
-46.14
-53.35
-62.56
-73.72
-86.38
-99.47
-111.14
-119.07
-121.04
-115.82
-103.72
-86.63
-67.36
-48.73
-32.70
-20.05
-10.65
-4.02
0.20
2.00
1.21
-2.15
-7.69
-14.61
-21.91
-28.65
-34.12
-37.85
-39.64
-39.38
-37.06
-32.78
-26.67
-18.75
-8.86
3.35
18.20
35.65
54.86
74.23
91.54
104.63
111.91
112.83
107.97
99.00
88.25
78.29
71.47
69.31
72.33
79.99
90.96
103.66
116.66
128.91
139.70
148.50
154.85
158.48
159.41
158.02
155.03
151.12
146.74
141.96
136.66
130.66
123.94
116.59
108.72
100.37
91.48
81.94
71.75
61.02
49.89
38.46
26.64
14.22
1.19
-12.12
-24.93
-36.25
-45.25
-51.54
-55.12
-56.12
-54.51
-49.98
-42.18
-31.13
-17.67
-3.46
9.47
19.46
25.79
28.98
30.54
32.39
36.23
43.13
53.34
66.33
80.72
94.34
104.34
107.61
101.49
84.45
56.45
18.75
-26.53
-76.92
-129.83
-182.42
-231.51
-273.74
-306.09
-326.77
-335.81
-335.16
-327.97
-317.53
-306.12
-294.61
-282.54
-268.79
-252.28
-232.40
-209.11
-182.72
-153.59
-122.06
-88.38
-52.88
-15.94
21.98
60.23
97.69
132.57
162.29
184.07
195.67
196.37
187.38
171.52
152.39
133.35
116.94
104.64
96.99
93.68
93.59
94.83
95.08
92.16
84.85
73.36
59.25
44.86
32.43
23.29
17.61
14.52
12.47
9.85
5.44
-1.17
-9.27
-17.09
-22.25
-22.54
-16.78
-5.34
9.94
26.44
41.57
53.60
61.87
66.60
68.38
67.80
65.20
60.78
54.80
47.67
39.99
32.43
25.49
19.35
13.76
8.19
2.10
-4.99
-13.24
-22.55
-32.63
-43.09
-53.47
-63.30
-72.10
-79.40
-84.86
-88.38
-90.27
-91.46
-93.46
-97.88
-105.72
-116.56
-128.19
-136.93
-138.67
-130.16
-109.99
-78.87
-39.24
5.43
51.33
94.70
132.09
160.67
178.76
186.15
184.25
175.71
163.58
150.44
137.82
126.12
114.85
103.32
91.07
78.04
64.50
50.84
37.58
25.57
16.07
10.74
11.24
18.52
32.19
50.53
70.87
90.50
107.54
121.35
132.35
141.54
149.94
158.23
166.58
174.63
181.50
185.79
185.93
180.84
170.67
157.37
144.43
135.86
134.52
140.68
151.52
161.77
165.71
159.10
140.57
111.79
76.37
38.21
0.29
-35.93
-70.21
-102.93
-134.69
-166.32
-199.09
-234.46
-273.27
-314.48
-354.57
-388.13
-409.51
-415.07
-404.63
-381.36
-350.39
-316.80
-284.20
-254.34
-227.70
-204.34
-184.44
-168.22
-155.61
-146.05
-138.64
-132.46
-126.88
-121.66
-116.93
-113.07
-110.44
-109.13
-108.65
-107.73
-104.43
-96.59
-82.57
-61.91
-35.56
-5.79
24.50
52.50
76.13
94.34
107.19
115.42
120.03
121.90
121.56
119.17
114.69
108.15
99.89
90.51
80.79
71.44
62.87
55.22
48.45
42.53
37.53
33.57
30.75
28.96
27.87
26.97
25.73
23.78
21.03
17.67
14.09
10.66
7.64
5.07
2.75
0.40
-2.19
-5.20
-8.76
-13.13
-18.64
-25.43
-33.06
-40.31
-45.24
-45.78
-40.58
-29.60
-14.27
2.96
19.51
33.45
43.92
51.07
55.63
58.36
59.80
60.19
59.61
58.19
56.24
54.15
52.33
51.00
50.04
49.16
47.93
46.10
43.66
40.85
37.91
34.93
31.72
27.85
22.94
16.77
9.50
1.59
-6.33
-13.68
-20.10
-25.45
-29.91
-33.73
-37.26
-40.74
-44.40
-48.45
-53.01
-57.95
-62.67
-66.00
-66.41
-62.48
-53.54
-40.08
-23.71
-6.66
8.95
21.82
31.54
38.51
43.32
46.39
47.79
47.32
44.91
40.75
35.51
30.06
25.26
21.65
19.34
18.01
17.14
16.24
14.96
13.18
10.90
8.17
5.01
1.38
-2.82
-7.63
-13.04
-18.87
-24.76
-30.18
-34.63
-37.78
-39.67
-40.77
-41.83
-43.66
-46.88
-51.61
-57.35
-62.94
-66.71
-66.87
-62.01
-51.60
-36.32
-17.90
1.33
19.11
33.81
44.78
52.19
56.60
58.51
58.11
55.29
49.96
42.34
33.12
23.41
14.40
6.95
1.39
-2.47
-5.18
-7.27
-9.05
-10.60
-11.80
-12.64
-13.27
-14.05
-15.35
-17.39
-20.04
-22.81
-25.06
-26.22
-26.16
-25.18
-24.00
-23.47
-24.41
-27.30
-32.27
-38.95
-46.42
-53.21
-57.51
-57.53
-52.06
-40.94
-25.23
-6.94
11.45
27.72
40.33
48.66
52.79
53.35
51.09
46.87
41.45
35.54
29.79
24.69
20.60
17.65
15.78
14.79
14.44
14.52
14.84
15.33
15.85
16.18
15.99
14.93
12.75
9.40
5.13
0.37
-4.34
-8.54
-12.01
-14.81
-17.30
-20.03
-23.51
-28.00
-33.16
-37.95
-40.81
-40.09
-34.69
-24.61
-10.98
4.29
19.18
32.11
42.28
49.48
53.88
55.76
55.36
52.98
49.03
44.02
38.44
32.80
27.50
22.90
19.25
16.69
15.14
14.38
14.10
13.96
13.70
13.02
11.65
9.27
5.72
1.10
-4.22
-9.67
-14.75
-19.26
-23.38
-27.63
-32.52
-38.23
-44.37
-49.94
-53.58
-53.93
-50.04
-41.79
-29.89
-15.82
-1.50
11.18
20.80
26.66
28.83
28.01
25.13
21.10
16.53
11.74
6.88
2.14
-2.15
-5.56
-7.66
-8.28
-7.58
-6.10
-4.58
-3.74
-4.10
-5.81
-8.75
-12.56
-16.84
-21.32
-25.90
-30.63
-35.67
-41.24
-47.57
-54.78
-62.73
-70.86
-77.99
-82.53
-82.72
-77.26
-65.77
-49.03
-28.86
-7.55
12.73
30.48
45.00
56.22
64.38
69.75
72.50
72.85
71.13
67.91
63.88
59.72
55.86
52.43
49.28
46.07
42.47
38.32
33.65
28.61
23.41
18.17
12.92
7.60
2.10
-3.61
-9.50
-15.57
-21.81
-28.23
-34.69
-40.68
-45.22
-47.05
-44.91
-38.01
-26.43
-11.16
6.12
23.42
39.01
51.65
60.76
66.29
68.54
68.06
65.53
61.80
57.83
54.52
52.47
51.69
51.55
50.88
48.44
43.35
35.50
25.45
14.23
2.84
-8.00
-17.91
-26.76
-34.47
-40.93
-46.11
-50.18
-53.55
-56.77
-60.35
-64.59
-69.63
-75.38
-81.54
-87.55
-92.40
-94.74
-93.09
-86.39
-74.49
-58.43
-40.15
-21.99
-5.90
7.10
16.97
24.26
29.61
33.29
35.15
34.93
32.58
28.55
23.79
19.36
16.07
14.14
13.15
12.32
10.96
8.77
5.94
2.99
0.42
-1.58
-3.22
-4.90
-6.99
-9.48
-12.05
-14.20
-15.58
-16.21
-16.49
-17.04
-18.48
-21.28
-25.65
-31.60
-38.84
-46.68
-53.94
-59.02
-60.24
-56.39
-47.21
-33.58
-17.40
-0.91
13.89
25.74
34.27
39.73
42.61
43.38
42.36
39.84
36.23
32.21
28.60
26.13
25.27
25.97
27.73
29.82
31.54
32.48
32.56
31.93
30.84
29.39
27.48
24.85
21.25
16.62
11.19
5.43
-0.08
-4.88
-8.81
-12.04
-15.04
-18.29
-22.15
-26.76
-31.98
-37.32
-42.00
-44.87
-44.66
-40.25
-31.19
-17.91
-1.83
15.04
30.71
43.74
53.60
60.60
65.53
69.19
72.09
74.33
75.77
76.29
76.08
75.79
76.41
79.03
84.47
92.88
103.65
115.55
127.11
137.12
145.05
151.19
156.46
162.04
168.79
176.85
185.46
192.96
197.06
195.36
185.97
167.92
141.44
107.97
69.56
28.38
-13.97
-56.89
-100.86
-146.93
-195.59
-245.43
-292.51
-330.91
-354.50
-359.39
-345.67
-317.56
-281.72
-244.80
-211.19
-182.40
-158.04
-137.34
-120.31
-107.68
-99.87
-95.96
-93.46
-89.14
-80.42
-66.61
-49.08
-30.68
-14.44
-2.25
5.71
10.77
14.77
19.09
23.87
28.09
30.26
29.23
24.94
18.48
11.53
5.65
1.61
-0.81
-2.50
-4.61
-7.98
-12.93
-19.29
-26.50
-33.69
-39.77
-43.39
-43.29
-38.60
-29.21
-15.90
-0.27
15.79
30.54
42.80
51.97
58.06
61.28
62.04
60.84
58.33
55.30
52.57
50.82
50.41
51.32
53.24
55.76
58.60
61.68
65.05
68.76
72.63
76.27
79.17
81.05
82.11
83.15
85.32
89.55
96.05
104.02
111.84
117.80
120.78
120.68
118.37
115.06
112.01
110.35
111.26
115.83
124.65
136.83
149.40
157.64
156.42
142.13
114.06
74.41
26.75
-25.87
-82.02
-141.12
-201.42
-258.48
-305.16
-333.98
-340.22
-324.35
-291.96
-251.63
-211.49
-176.83
-149.46
-128.74
-113.38
-102.54
-95.85
-92.70
-91.68
-90.66
-87.67
-81.77
-73.38
-64.00
-55.48
-49.21
-45.72
-44.78
-45.74
-47.93
-50.83
-53.91
-56.44
-57.36
-55.35
-49.24
-38.56
-23.76
-6.17
12.28
29.70
44.67
56.44
64.87
70.13
72.53
72.33
69.98
66.10
61.57
57.34
54.08
52.06
50.98
50.21
49.06
47.14
44.49
41.49
38.60
36.05
33.76
31.36
28.42
24.65
20.12
15.14
10.13
5.38
0.88
-3.69
-8.79
-14.88
-22.06
-29.91
-37.43
-43.21
-45.72
-43.81
-37.09
-26.22
-12.74
1.36
14.15
24.31
31.25
35.17
36.66
36.41
35.00
32.74
29.81
26.36
22.65
19.12
16.29
14.68
14.57
15.89
18.19
20.73
22.70
23.48
22.78
20.74
17.76
14.34
10.90
7.54
4.16
0.40
-4.10
-9.59
-16.11
-23.29
-30.31
-35.92
-38.61
-37.04
-30.49
-19.28
-4.81
10.83
25.41
37.22
45.46
50.23
52.22
52.33
51.35
49.76
47.76
45.38
42.61
39.56
36.44
33.57
31.23
29.54
28.35
27.32
25.98
23.94
20.97
17.06
12.28
6.67
0.26
-6.96
-14.88
-23.29
-31.86
-40.26
-48.16
-55.08
-60.19
-62.30
-60.02
-52.33
-39.17
-21.74
-2.26
16.62
32.75
44.92
52.94
57.22
58.29
56.50
52.16
45.82
38.51
31.64
26.49
23.72
23.04
23.43
23.52
22.26
19.22
14.59
8.94
2.84
-3.33
-9.43
-15.38
-21.08
-26.32
-30.90
-34.77
-38.09
-41.37
-45.25
-50.40
-56.99
-64.40
-70.98
-74.34
-72.05
-62.55
-45.86
-23.66
1.23
25.80
47.72
65.68
79.30
88.69
94.20
96.28
95.56
92.78
88.70
83.78
78.05
71.27
63.20
53.99
44.28
34.98
26.84
20.15
14.60
9.54
4.29
-1.57
-8.00
-14.58
-20.75
-25.99
-30.02
-32.82
-34.69
-36.09
-37.55
-39.63
-42.68
-46.64
-50.89
-54.19
-54.98
-51.82
-44.03
-31.94
-16.98
-1.21
13.30
24.99
33.19
38.00
40.07
40.19
39.12
37.42
35.49
33.58
31.78
30.08
28.43
26.75
25.04
23.34
21.71
20.24
18.96
17.82
16.67
15.24
13.19
10.17
6.00
0.79
-5.04
-10.84
-15.98
-20.07
-23.17
-25.81
-28.72
-32.61
-37.70
-43.53
-48.92
-52.31
-52.18
-47.66
-38.83
-26.76
-13.13
0.28
12.15
21.77
29.05
34.28
37.78
39.79
40.40
39.76
38.09
35.83
33.44
31.35
29.84
28.98
28.65
28.68
28.89
29.19
29.60
30.15
30.90
31.77
32.61
33.16
33.19
32.58
31.39
29.91
28.56
27.69
27.53
27.96
28.67
29.27
29.39
28.96
28.16
27.43
27.22
27.84
29.21
30.94
32.44
33.13
32.68
31.09
28.54
25.27
21.30
16.46
10.41
2.96
-5.74
-15.17
-24.42
-32.52
-38.67
-42.41
-43.78
-43.18
-41.24
-38.62
-35.91
-33.52
-31.72
-30.63
-30.19
-30.20
-30.32
-30.21
-29.61
-28.46
-26.94
-25.46
-24.52
-24.55
-25.76
-27.92
-30.35
-31.95
-31.47
-27.90
-20.87
-10.93
0.55
11.71
20.80
26.63
28.86
27.89
24.60
19.98
14.81
9.64
4.78
0.45
-3.22
-6.14
-8.30
-9.79
-10.78
-11.42
-11.82
-12.04
-12.12
-12.13
-12.23
-12.67
-13.67
-15.33
-17.55
-20.06
-22.47
-24.49
-26.01
-27.25
-28.74
-31.12
-34.91
-40.12
-46.06
-51.40
-54.56
-54.17
-49.70
-41.61
-31.26
-20.41
-10.69
-3.14
1.90
4.58
5.32
4.60
2.81
0.39
-2.27
-4.71
-6.53
-7.52
-7.66
-7.15
-6.29
-5.42
-4.74
-4.31
-4.06
-3.81
-3.41
-2.75
-1.86
-0.88
0.00
0.59
0.71
0.24
-0.91
-2.77
-5.20
-7.83
-10.04
-11.09
-10.35
-7.55
-2.94
2.78
8.63
13.70
17.31
19.16
19.26
17.84
15.23
11.79
7.88
3.83
-0.05
-3.51
-6.36
-8.51
-9.97
-10.86
-11.37
-11.72
-12.06
-12.47
-12.94
-13.46
-14.05
-14.77
-15.74
-17.01
-18.55
-20.21
-21.80
-23.14
-24.21
-25.15
-26.24
-27.75
-29.86
-32.36
-34.67
-35.89
-35.04
-31.38
-24.82
-15.92
-5.90
3.84
12.10
18.21
22.13
24.32
25.40
25.91
26.21
26.51
27.05
28.01
29.40
31.00
32.27
32.56
31.44
28.96
25.69
22.54
20.30
19.36
19.61
20.61
21.79
22.73
23.03
22.32
20.06
15.63
8.51
-1.49
-14.21
-29.12
-45.45
-62.21
-78.07
-91.31
-100.01
-102.49
-97.94
-86.89
-71.14
-53.26
-35.77
-20.43
-7.95
1.74
9.04
14.22
17.33
18.39
17.66
15.80
13.77
12.53
12.82
14.88
18.47
22.97
27.55
31.44
34.03
35.04
34.48
32.58
29.76
26.45
22.95
19.41
15.76
11.90
7.79
3.56
-0.49
-3.99
-6.73
-8.63
-9.79
-10.18
-9.46
-7.02
-2.18
5.36
15.23
26.45
37.68
47.77
56.09
62.67
67.88
72.00
74.78
75.35
72.38
64.55
50.99
31.54
6.73
-22.45
-54.86
-89.27
-124.23
-157.66
-186.60
-207.49
-216.91
-212.83
-195.60
-168.17
-135.38
-102.54
-73.91
-51.82
-36.60
-27.29
-22.55
-21.36
-23.21
-27.65
-33.97
-40.85
-46.55
-49.33
-47.96
-42.10
-32.38
-20.11
-6.84
6.08
17.79
27.92
36.39
43.14
48.00
50.66
50.95
49.00
45.39
41.03
36.93
33.82
32.03
31.38
31.35
31.35
30.92
29.90
28.33
26.38
24.11
21.48
18.26
14.22
9.23
3.38
-2.95
-9.23
-14.89
-19.54
-23.19
-26.27
-29.51
-33.59
-38.77
-44.59
-49.79
-52.65
-51.53
-45.49
-34.66
-20.22
-4.09
11.66
25.34
35.94
43.26
47.86
50.94
54.14
59.19
67.50
79.52
94.31
109.50
121.78
128.05
126.50
117.38
102.87
86.16
70.13
56.38
44.89
34.50
23.84
12.12
-0.44
-12.82
-23.70
-31.96
-37.08
-39.16
-38.71
-36.41
-32.94
-28.88
-24.62
-20.31
-15.71
-10.16
-2.56
8.30
23.30
42.55
65.05
88.84
111.44
130.63
145.02
154.43
159.68
162.12
163.04
163.37
163.78
164.63
166.02
167.33
166.86
161.86
149.17
126.61
94.25
54.99
13.69
-24.60
-56.73
-82.58
-104.70
-126.61
-150.75
-177.11
-203.09
-224.73
-238.43
-242.35
-237.01
-224.95
-209.78
-195.04
-183.35
-175.83
-172.03
-170.09
-167.39
-161.35
-150.17
-133.41
-111.97
-87.70
-62.79
-39.19
-18.39
-1.34
11.49
20.08
24.91
27.01
27.77
28.58
30.41
33.45
37.17
40.62
42.92
43.67
43.14
42.00
41.01
40.61
40.64
40.51
39.44
36.91
32.82
27.64
22.08
16.80
12.11
7.84
3.41
-1.83
-8.37
-16.24
-24.97
-33.67
-41.17
-46.30
-48.05
-45.86
-39.69
-30.17
-18.42
-5.89
5.97
15.97
23.32
27.77
29.46
28.93
26.86
24.08
21.35
19.30
18.33
18.60
20.04
22.43
25.33
28.18
30.32
31.14
30.20
27.42
23.12
17.90
12.53
7.67
3.72
0.74
-1.49
-3.33
-5.22
-7.50
-10.51
-14.34
-18.87
-23.49
-27.15
-28.47
-26.23
-19.79
-9.52
3.18
16.35
28.09
37.12
43.08
46.32
47.59
47.53
46.52
44.76
42.42
39.81
37.36
35.54
34.62
34.62
35.31
36.39
37.62
38.87
40.06
41.06
41.64
41.51
40.49
38.62
36.16
33.53
31.01
28.54
25.61
21.38
14.98
5.84
-5.95
-19.54
-33.34
-45.39
-53.84
-57.49
-56.10
-50.37
-41.70
-31.68
-21.69
-12.65
-5.04
1.03
5.66
9.14
11.87
14.32
16.92
19.90
23.24
26.76
30.26
33.74
37.39
41.48
46.07
50.94
55.59
59.40
61.98
63.27
63.59
63.34
62.94
62.66
62.82
63.78
65.57
67.49
67.60
62.92
50.29
27.55
-5.40
-46.41
-91.83
-137.63
-180.40
-217.65
-247.41
-267.71
-276.47
-271.97
-253.88
-223.80
-185.43
-143.60
-103.16
-67.82
-39.49
-18.36
-3.38
6.99
14.20
19.31
22.98
25.71
28.00
30.33
33.01
36.10
39.26
41.89
43.45
43.66
42.66
40.79
38.43
35.74
32.72
29.30
25.52
21.59
17.75
14.15
10.68
7.06
2.99
-1.72
-6.98
-12.47
-17.62
-21.76
-24.12
-23.92
-20.60
-13.98
-4.43
7.11
19.37
31.10
41.37
49.74
56.06
60.25
62.11
61.30
57.76
51.99
45.12
38.71
34.15
32.14
32.40
33.87
35.11
34.94
32.77
28.64
23.03
16.61
9.97
3.56
-2.27
-7.27
-11.28
-14.22
-16.19
-17.45
-18.43
-19.64
-21.60
-24.73
-29.31
-35.27
-42.15
-48.99
-54.44
-57.10
-55.94
-50.76
-42.29
-32.00
-21.58
-12.42
-5.26
-0.15
3.23
5.29
6.24
6.12
4.89
2.65
-0.31
-3.50
-6.38
-8.46
-9.36
-8.84
-6.74
-3.09
1.91
7.89
14.24
20.24
25.13
28.32
29.53
28.91
26.93
24.28
21.66
19.52
17.96
16.79
15.59
13.84
10.94
6.40
-0.01
-7.99
-16.49
-23.82
-28.05
-27.67
-22.18
-12.29
0.33
13.65
25.88
35.80
42.81
46.64
47.28
44.86
39.88
33.28
26.38
20.52
16.70
15.25
15.74
17.23
18.63
19.13
18.37
16.45
13.74
10.62
7.38
4.12
0.91
-2.18
-4.98
-7.35
-9.20
-10.65
-12.00
-13.66
-16.02
-19.35
-23.68
-28.80
-34.14
-38.85
-41.78
-41.71
-37.71
-29.53
-17.79
-3.98
9.95
22.19
31.50
37.48
40.43
40.99
39.81
37.43
34.34
31.05
28.17
26.25
25.54
25.84
26.60
27.14
27.01
26.18
24.96
23.81
22.94
22.21
21.05
18.87
15.36
10.66
5.43
0.55
-3.20
-5.40
-6.17
-6.07
-5.97
-6.79
-9.12
-12.96
-17.49
-21.21
-22.35
-19.55
-12.40
-1.74
10.70
22.93
33.50
41.82
48.19
53.27
57.55
61.10
63.60
64.61
63.94
61.76
58.59
55.07
51.72
48.74
45.93
42.83
38.89
33.83
27.77
21.15
14.38
7.54
0.20
-8.53
-19.62
-33.81
-51.18
-71.15
-92.55
-113.95
-133.90
-151.26
-165.28
-175.72
-182.70
-186.40
-186.84
-183.66
-176.15
-163.49
-145.20
-121.58
-93.84
-64.06
-34.65
-7.85
14.87
32.98
46.79
57.04
64.47
69.55
72.63
74.04
74.37
74.38
74.72
75.75
77.35
79.08
80.48
81.30
81.70
82.04
82.70
83.76
84.93
85.63
85.29
83.65
80.83
77.33
73.59
69.77
65.55
60.32
53.56
45.16
35.57
25.57
15.97
7.44
0.45
-4.58
-7.21
-7.14
-4.52
-0.04
5.17
10.01
13.75
16.14
17.21
16.93
15.01
11.11
5.18
-2.25
-10.16
-17.36
-22.98
-26.71
-28.70
-29.24
-28.56
-26.89
-24.59
-22.28
-20.73
-20.35
-20.87
-21.17
-19.69
-15.01
-6.58
4.95
17.71
29.06
36.31
37.34
31.12
18.03
-0.14
-20.22
-38.28
-50.29
-53.29
-46.41
-31.65
-13.74
0.78
5.38
-4.59
-30.45
-69.87
-117.71
-167.83
-214.70
-254.47
-284.89
-304.71
-312.95
-308.72
-291.74
-263.05
-225.38
-182.86
-139.98
-100.56
-66.96
-39.97
-19.32
-4.23
6.16
12.69
16.29
17.98
18.81
19.55
20.46
21.10
20.48
17.58
12.04
4.76
-1.98
-5.07
-1.68
9.56
27.79
50.18
72.84
92.18
105.85
113.10
114.48
111.17
104.53
96.04
87.39
80.55
77.40
79.16
85.70
95.29
105.01
111.71
113.08
108.36
98.41
85.13
70.67
56.70
44.09
33.03
23.33
14.75
7.14
0.37
-5.81
-11.83
-18.08
-24.44
-29.88
-32.48
-30.06
-21.22
-6.13
13.17
33.53
51.84
66.13
75.98
82.09
85.34
86.07
83.91
78.26
69.02
56.96
43.54
30.39
18.58
8.42
-0.42
-8.43
-15.84
-22.36
-27.20
-29.44
-28.38
-23.97
-17.10
-9.54
-3.80
-2.27
-6.60
-17.02
-32.30
-50.28
-68.62
-85.46
-99.46
-109.50
-114.21
-112.08
-102.02
-84.26
-60.81
-35.17
-11.20
8.09
21.31
28.78
31.85
32.07
30.57
27.93
24.41
20.26
15.84
11.60
7.97
5.16
3.23
2.15
1.88
2.56
4.40
7.64
12.23
17.66
22.91
26.68
27.78
25.60
20.37
13.09
5.13
-2.21
-8.00
-11.96
-14.40
-15.95
-17.36
-18.99
-20.55
-20.95
-18.50
-11.50
0.98
18.61
39.67
61.46
81.29
97.14
108.15
114.45
116.67
115.37
110.88
103.53
94.02
83.75
74.54
68.02
64.93
64.76
65.99
66.83
66.05
63.34
59.20
54.36
49.28
43.98
38.17
31.69
24.78
18.02
12.04
7.30
3.88
1.51
-0.24
-1.88
-3.82
-6.38
-9.73
-13.78
-18.00
-21.35
-22.34
-19.48
-11.80
0.73
17.13
35.95
55.79
75.66
94.63
111.21
122.83
126.08
117.69
95.75
60.44
13.90
-40.34
-97.93
-153.87
-202.61
-238.61
-257.55
-257.81
-241.43
-213.61
-180.94
-149.12
-121.45
-98.77
-80.54
-66.14
-55.48
-48.75
-45.71
-45.26
-45.69
-45.41
-43.71
-41.00
-38.44
-37.28
-38.27
-41.21
-45.09
-48.30
-49.10
-46.10
-38.66
-27.02
-12.32
3.84
19.79
34.23
46.49
56.49
64.54
71.08
76.52
81.14
85.11
88.54
91.49
94.00
96.05
97.67
98.91
99.94
101.01
102.50
104.79
108.25
113.03
118.96
125.37
131.12
134.80
135.15
131.50
124.21
114.59
104.50
95.63
88.81
83.63
78.78
72.77
64.86
55.58
46.39
38.73
32.79
26.90
17.72
1.37
-25.08
-62.32
-108.37
-159.04
-208.96
-252.82
-286.24
-306.30
-311.73
-302.95
-282.02
-252.46
-218.67
-185.15
-155.54
-131.92
-114.52
-102.03
-92.26
-83.08
-73.15
-62.20
-50.92
-40.48
-31.96
-25.91
-22.26
-20.40
-19.56
-19.22
-19.17
-19.51
-20.44
-22.13
-24.72
-28.28
-32.65
-37.09
-40.04
-39.19
-32.25
-17.94
3.15
28.50
54.42
77.42
95.23
107.18
113.76
115.90
114.36
109.78
102.99
95.23
88.08
82.83
79.95
78.93
78.58
77.71
75.75
72.86
69.78
67.25
65.59
64.58
63.64
62.14
59.64
55.95
51.04
44.94
37.67
29.34
20.18
10.50
0.61
-9.18
-18.46
-26.61
-32.59
-35.25
-33.67
-27.69
-18.12
-6.59
4.97
15.05
22.95
28.80
33.23
36.81
39.72
41.64
42.02
40.44
36.96
32.18
27.09
22.75
19.86
18.53
18.37
18.68
18.87
18.66
18.16
17.63
17.26
17.08
17.00
16.97
17.08
17.47
18.11
18.44
17.37
13.48
5.62
-6.47
-21.74
-38.02
-52.74
-63.76
-70.14
-72.20
-71.13
-68.25
-64.30
-59.36
-53.13
-45.58
-37.23
-29.18
-22.63
-18.37
-16.58
-16.89
-18.74
-21.67
-25.40
-29.67
-34.11
-38.22
-41.45
-43.56
-44.71
-45.43
-46.37
-48.18
-51.23
-55.64
-61.25
-67.70
-74.47
-81.00
-86.85
-91.92
-96.51
-101.12
-106.14
-111.24
-115.19
-115.90
-111.16
-99.53
-81.12
-57.82
-32.72
-9.27
9.87
23.40
31.45
35.11
35.81
34.78
32.92
30.77
28.71
27.05
26.10
26.07
27.07
29.00
31.59
34.40
36.99
38.92
39.87
39.60
37.91
34.67
29.83
23.55
16.28
8.79
1.90
-3.71
-7.74
-10.45
-12.44
-14.40
-16.72
-19.13
-20.63
-19.79
-15.21
-6.25
6.67
22.07
37.89
52.18
63.68
71.97
77.25
79.78
79.61
76.57
70.57
62.10
52.28
42.76
35.10
30.28
28.47
29.08
31.26
34.17
37.10
39.43
40.47
39.43
35.70
29.20
20.53
10.83
1.33
-7.11
-14.30
-20.65
-26.77
-33.18
-40.05
-47.27
-54.49
-61.13
-66.35
-69.03
-67.97
-62.29
-51.89
-37.67
-21.43
-5.25
9.00
20.23
28.15
33.07
35.54
36.10
35.13
32.95
29.95
26.59
23.46
21.05
19.71
19.54
20.41
22.04
24.15
26.53
28.95
31.09
32.47
32.53
30.81
27.24
22.22
16.54
11.13
6.66
3.32
0.79
-1.66
-4.85
-9.40
-15.52
-22.85
-30.37
-36.50
-39.48
-37.81
-30.86
-19.10
-4.05
12.20
27.62
40.71
50.59
56.87
59.32
57.78
52.32
43.49
32.49
21.03
10.87
3.29
-1.29
-3.28
-3.62
-3.24
-2.77
-2.35
-1.88
-1.25
-0.65
-0.52
-1.44
-3.80
-7.59
-12.37
-17.42
-22.12
-26.14
-29.59
-32.88
-36.52
-40.90
-46.20
-52.41
-59.20
-65.88
-71.29
-73.86
-72.07
-64.90
-52.45
-35.99
-17.68
0.15
15.62
27.73
36.25
41.45
43.71
43.38
40.88
36.80
32.00
27.44
23.96
22.03
21.65
22.42
23.68
24.87
25.59
25.79
25.62
25.26
24.69
23.60
21.48
17.88
12.74
6.47
-0.12
-6.17
-11.11
-14.92
-18.12
-21.48
-25.75
-31.34
-38.17
-45.54
-52.14
-56.27
-56.21
-50.82
-40.10
-25.27
-8.51
7.75
21.60
32.07
39.12
43.27
45.03
44.75
42.63
39.02
34.54
30.06
26.42
24.12
23.21
23.29
23.81
24.30
24.51
24.40
24.07
23.50
22.54
20.92
18.25
14.28
8.96
2.54
-4.50
-11.48
-17.77
-22.97
-26.99
-30.17
-33.11
-36.53
-40.99
-46.56
-52.59
-57.71
-60.15
-58.23
-51.10
-39.11
-23.81
-7.48
7.59
19.75
28.27
33.24
35.16
34.63
32.18
28.27
23.50
18.63
14.51
11.77
10.66
11.00
12.27
13.86
15.30
16.39
17.22
18.00
18.84
19.66
20.08
19.60
17.81
14.65
10.43
5.83
1.62
-1.60
-3.59
-4.60
-5.22
-6.23
-8.25
-11.36
-14.88
-17.24
-16.40
-10.50
1.40
18.76
39.58
61.00
80.04
94.35
102.63
104.62
100.93
92.75
81.67
69.38
57.38
46.78
38.12
31.48
26.75
23.90
23.04
24.26
27.29
31.44
35.58
38.59
39.78
39.13
37.28
35.25
34.08
34.50
36.75
40.42
44.36
46.61
44.79
36.77
21.82
1.32
-21.04
-40.24
-51.58
-52.35
-42.80
-26.01
-6.77
9.79
19.51
19.79
9.70
-10.35
-38.94
-74.00
-112.98
-152.90
-190.55
-222.70
-246.60
-260.58
-264.39
-259.19
-246.94
-229.53
-208.09
-182.84
-153.52
-120.19
-83.70
-45.93
-9.44
22.96
48.57
65.12
71.18
66.46
52.06
30.33
4.41
-22.40
-47.18
-67.58
-81.78
-88.45
-86.90
-77.41
-61.58
-42.22
-22.74
-6.16
5.79
13.12
17.26
20.23
23.76
28.56
34.23
39.79
44.38
47.90
51.12
55.26
61.21
68.94
77.35
84.84
89.92
91.90
91.02
88.12
84.13
79.56
74.45
68.54
61.72
54.21
46.68
39.94
34.70
31.26
29.47
28.80
28.63
28.58
28.62
29.10
30.45
32.92
36.33
40.02
43.09
44.85
45.06
44.08
42.60
41.24
40.21
39.31
38.30
37.36
37.33
39.28
43.73
49.68
54.23
53.18
42.47
19.83
-14.18
-56.31
-101.79
-145.91
-185.12
-217.37
-241.61
-257.13
-263.29
-259.84
-247.40
-227.82
-203.96
-178.93
-155.33
-134.75
-117.82
-104.44
-94.18
-86.21
-79.07
-70.70
-58.83
-41.91
-19.97
4.90
29.19
49.15
62.29
68.21
68.45
65.52
61.67
58.12
54.98
51.83
48.49
45.34
43.31
43.26
45.56
49.80
54.91
59.60
62.81
64.06
63.40
61.28
58.14
54.24
49.54
43.80
36.86
28.89
20.44
12.29
5.20
-0.36
-4.40
-7.36
-9.94
-12.81
-16.44
-21.04
-26.61
-32.81
-38.91
-43.71
-45.63
-43.19
-35.56
-23.10
-7.38
9.22
24.32
36.26
44.41
49.07
50.94
50.69
48.76
45.54
41.58
37.71
34.90
33.91
34.98
37.69
41.09
44.13
46.02
46.50
45.94
45.04
44.47
44.50
44.79
44.53
42.81
39.13
33.68
27.32
21.16
16.04
12.13
8.91
5.50
