1555959747.00
64.000000
-0.00
-0.00
-0.00
-0.00
-0.00
-0.00
-0.00
-0.00
-0.00
-0.00
0.00
0.01
0.01
-0.00
-0.03
-0.05
-0.05
0.00
0.13
0.36
0.66
1.01
1.37
1.72
2.06
2.40
2.79
3.24
3.81
4.44
5.09
5.71
6.28
6.82
7.40
8.11
8.99
10.12
11.39
12.64
13.75
14.64
15.42
16.30
17.51
19.23
21.66
24.54
27.58
30.45
33.04
35.45
38.09
41.42
45.77
51.44
58.01
64.86
71.39
77.30
82.78
88.49
95.24
103.58
113.93
125.55
137.45
148.65
158.70
167.94
177.36
188.57
200.29
214.44
231.12
249.95
269.55
287.19
299.10
301.31
290.90
266.97
231.37
187.16
137.98
86.87
35.69
-14.52
-63.20
-109.76
-153.62
-194.06
-231.22
-265.56
-297.96
-329.69
-362.10
-395.75
-429.30
-459.03
-479.32
-484.96
-473.41
-445.97
-407.66
-365.00
-323.15
-284.40
-248.47
-214.33
-182.25
-154.03
-131.81
-116.34
-105.91
-97.03
-86.46
-73.14
-58.62
-45.76
-36.54
-30.19
-23.13
-10.66
10.31
39.07
70.66
97.51
112.28
110.67
92.79
62.51
25.60
-12.34
-47.50
-78.03
-103.25
-122.61
-135.26
-140.07
-136.25
-123.85
-103.95
-78.29
-48.61
-16.09
18.79
56.05
95.61
136.89
178.57
218.65
254.87
285.27
308.62
324.61
333.72
336.94
335.26
329.66
320.63
308.17
291.99
271.82
247.81
220.65
191.50
161.87
133.14
105.92
79.93
53.98
26.56
-3.35
-35.77
-69.32
-101.52
-129.35
-150.48
-163.92
-170.44
-172.50
-173.94
-178.65
-190.73
-212.78
-244.31
-281.11
-316.04
-341.75
-353.92
-351.80
-340.14
-326.60
-317.98
-317.47
-324.10
-334.23
-344.56
-353.88
-362.83
-372.60
-382.83
-390.56
-391.02
-380.21
-354.28
-310.52
-247.84
-166.98
-71.40
32.35
135.29
228.02
302.90
356.80
391.47
412.06
424.37
432.20
436.61
436.92
432.38
423.25
410.89
396.37
379.59
359.29
333.99
303.36
268.83
233.22
199.80
170.96
147.20
127.22
108.64
89.36
68.47
46.75
26.14
8.80
-3.96
-12.37
-18.09
-23.43
-30.19
-38.86
-48.47
-57.14
-63.18
-65.79
-65.52
-63.88
-62.59
-62.89
-65.45
-70.52
-77.84
-85.99
-91.63
-90.09
-76.56
-48.67
-8.25
38.74
84.32
121.77
147.91
163.11
169.36
168.46
159.43
140.42
110.86
73.14
32.56
-4.49
-33.02
-51.17
-60.23
-63.47
-64.20
-64.43
-64.62
-64.15
-62.20
-58.58
-53.97
-49.68
-47.09
-46.85
-48.35
-50.45
-51.75
-51.28
-49.02
-45.79
-42.86
-41.43
-41.92
-43.96
-46.61
-48.74
-49.59
-49.20
-48.13
-47.12
-46.96
-47.78
-49.44
-52.00
-55.79
-60.91
-66.44
-70.16
-69.26
-61.61
-46.98
-27.29
-5.73
14.82
32.83
48.16
61.19
71.79
79.04
81.87
80.06
74.78
68.22
62.57
58.98
57.26
56.38
55.26
53.40
50.66
47.41
44.35
41.91
40.37
39.68
39.57
39.49
39.01
37.91
36.31
34.66
33.51
33.33
34.08
35.30
36.31
36.56
35.77
33.66
29.71
23.07
13.15
0.22
-14.24
-27.84
-38.55
-45.67
-50.24
-54.20
-58.92
-64.05
-67.62
-67.27
-61.79
-52.05
-40.47
-29.68
-21.07
-14.54
-8.98
-3.30
2.62
7.95
11.44
12.34
10.72
7.51
3.83
0.49
-2.19
-4.15
-5.20
-4.73
-1.99
3.37
10.72
18.30
23.70
24.88
21.22
14.16
6.76
2.61
4.13
11.40
21.68
30.61
34.06
29.95
19.28
5.48
-7.21
-15.85
-19.86
-20.78
-20.78
-21.11
-21.50
-20.68
-17.62
-12.43
-6.37
-0.89
3.34
6.71
10.20
14.14
17.66
19.04
16.81
10.67
1.85
-7.53
-15.41
-20.38
-22.02
-20.35
-15.74
-9.01
-1.59
4.63
7.86
7.16
3.11
-2.53
-7.59
-10.74
-12.13
-13.21
-15.60
-19.93
-25.22
-29.35
-30.35
-27.53
-21.94
-15.80
-11.21
-9.07
-8.76
-8.84
-8.12
-6.46
-4.83
-4.43
-6.07
-9.69
-14.40
-19.01
-22.46
-24.13
-23.97
-22.39
-19.84
-16.97
-14.37
-12.42
-11.16
-10.30
-9.38
-7.93
-5.52
-1.37
5.08
14.03
25.00
36.87
48.13
57.45
64.37
67.14
65.83
61.58
55.97
50.52
46.17
43.13
41.06
39.39
37.81
36.98
38.06
42.51
51.51
65.30
82.76
101.36
117.76
128.78
132.76
129.96
122.51
113.54
105.96
101.42
99.99
100.46
101.10
100.64
98.34
93.88
86.99
77.30
64.38
48.19
29.29
8.90
-11.42
-30.49
-47.83
-63.64
-78.27
-91.43
-101.81
-107.29
-105.79
-96.34
-79.94
-59.41
-38.44
-20.30
-6.80
1.93
6.94
9.64
11.03
11.39
10.40
7.45
1.94
-6.38
-17.16
-29.37
-41.57
-52.28
-60.63
-66.58
-70.73
-73.78
-75.94
-76.77
-75.60
-72.12
-66.91
-61.31
-56.92
-54.88
-55.43
-58.06
-61.90
-66.15
-70.23
-73.62
-75.69
-75.65
-72.80
-66.73
-57.68
-46.43
-34.06
-21.48
-9.11
3.11
15.58
28.51
41.72
54.49
65.88
75.15
82.08
87.05
90.87
94.46
98.44
103.07
108.08
112.81
116.25
117.23
114.82
108.66
99.38
88.58
78.46
71.19
68.15
69.48
74.01
79.75
84.52
86.47
84.50
78.37
68.62
56.32
42.72
28.83
15.28
2.25
-10.26
-22.12
-32.89
-41.97
-48.92
-53.82
-57.35
-60.43
-63.72
-67.05
-69.40
-69.30
-65.58
-58.10
-47.94
-37.05
-27.43
-20.35
-15.89
-13.06
-10.54
-7.47
-3.95
-0.95
0.21
-1.31
-5.61
-11.93
-19.07
-25.93
-31.80
-36.50
-40.44
-44.46
-49.72
-57.39
-68.44
-83.17
-100.95
-119.96
-137.55
-150.88
-157.67
-157.00
-149.66
-138.08
-125.60
-115.50
-109.81
-108.66
-110.30
-111.82
-110.39
-104.34
-93.74
-80.17
-65.83
-52.55
-41.14
-31.40
-22.69
-14.75
-8.02
-3.39
-1.64
-2.68
-5.50
-8.54
-10.48
-10.92
-10.40
-9.85
-9.74
-9.79
-9.03
-6.58
-2.32
2.89
7.60
10.46
10.90
9.18
6.20
2.93
0.12
-1.82
-2.81
-3.04
-2.82
-2.47
-2.18
-1.96
-1.66
-1.24
-0.73
-0.22
0.26
0.88
1.88
3.42
5.35
7.23
8.55
9.04
8.88
8.53
8.59
9.51
11.52
14.67
18.78
23.41
27.76
30.91
32.09
31.05
28.36
25.21
23.08
23.19
26.06
31.22
37.36
42.57
44.97
43.18
36.74
26.14
12.62
-2.21
-16.80
-29.84
-40.48
-48.23
-52.96
-54.84
-54.28
-51.92
-48.39
-44.24
-39.71
-34.86
-29.59
-23.87
-17.82
-11.75
-6.11
-1.36
2.08
3.93
4.15
3.05
1.11
-1.08
-3.07
-4.75
-6.37
-8.45
-11.45
-15.53
-20.42
-25.63
-30.64
-35.23
-39.48
-43.59
-47.68
-51.60
-54.99
-57.50
-58.96
-59.37
-58.85
-57.39
-54.92
-51.44
-47.23
-42.85
-39.02
-36.14
-33.99
-31.78
-28.49
-23.43
-16.55
-8.42
0.12
8.40
16.21
23.73
31.22
38.65
45.57
51.18
54.64
55.41
53.54
49.67
44.80
39.98
35.93
32.88
30.62
28.79
27.12
25.56
24.19
23.10
22.23
21.45
20.70
20.04
19.68
19.84
20.54
21.69
23.09
24.54
25.87
27.01
27.79
28.00
27.45
26.11
24.26
22.41
21.13
20.80
21.43
22.70
24.12
25.28
25.97
26.27
26.42
26.73
27.50
28.88
30.86
33.29
35.87
38.09
39.36
39.04
36.66
32.15
25.84
18.51
11.13
4.54
-0.83
-4.99
-8.30
-11.08
-13.41
-15.04
-15.45
-14.18
-11.21
-7.14
-3.11
-0.57
-0.73
-4.03
-9.88
-16.66
-22.19
-24.43
-22.18
-15.60
-6.26
3.36
10.60
13.53
11.53
5.52
-2.30
-9.35
-13.54
-14.06
-11.43
-7.05
-2.37
1.78
5.21
8.15
10.57
11.98
11.68
9.41
5.81
2.54
1.60
4.35
10.83
19.57
28.10
33.70
34.05
27.58
13.74
-6.83
-31.93
-57.78
-79.49
-92.26
-93.05
-81.70
-61.13
-36.28
-12.34
6.92
19.91
26.85
28.88
27.00
21.61
12.82
0.89
-13.26
-28.06
-41.80
-53.46
-63.15
-72.16
-82.65
-96.98
-117.21
-144.55
-178.88
-218.07
-257.79
-291.92
-314.09
-319.83
-308.36
-283.13
-250.53
-217.25
-187.67
-162.52
-139.58
-115.63
-88.71
-59.10
-28.94
-0.83
23.51
43.76
60.64
74.94
86.78
95.36
99.55
98.66
93.18
84.79
75.87
68.46
63.52
60.63
58.35
55.22
50.47
44.55
38.86
35.02
34.18
36.58
41.66
48.50
56.26
64.44
72.76
80.95
88.56
94.97
99.60
102.04
102.26
100.52
97.28
93.08
88.41
83.60
78.80
73.87
68.55
62.56
55.82
48.55
41.20
34.24
27.94
22.28
16.84
11.05
4.30
-3.81
-13.25
-23.52
-33.54
-41.78
-46.49
-46.19
-40.02
-28.11
-11.59
7.77
27.98
47.37
64.74
79.70
92.14
102.14
110.03
116.58
122.81
129.58
137.37
146.15
155.64
165.10
173.31
178.66
179.47
174.39
162.73
145.10
123.40
101.05
81.22
65.81
55.34
49.59
48.16
50.83
57.55
68.03
82.76
100.36
117.20
129.23
134.13
132.08
125.16
116.23
107.53
103.03
103.33
105.01
103.50
96.70
85.47
72.33
60.33
51.73
52.58
64.82
84.43
104.93
122.35
135.99
146.94
157.14
167.95
186.32
214.44
247.34
276.91
298.20
309.75
311.73
304.98
251.15
145.26
20.86
-81.34
-145.83
-178.09
-190.75
-196.60
-201.23
-206.82
-208.22
-205.32
-201.59
-204.99
-219.91
-246.05
-280.24
-318.43
-357.65
-391.35
-416.50
-434.36
-447.30
-454.41
-452.96
-441.56
-421.25
-395.03
-362.29
-322.08
-275.01
-223.90
-172.76
-126.88
-91.75
-70.06
-59.78
-52.75
-39.83
-15.63
19.31
60.09
99.74
132.01
153.57
164.31
166.76
163.63
156.45
145.41
130.83
113.79
96.05
79.43
64.79
51.69
38.71
24.73
10.06
-3.17
-11.84
-13.38
-7.26
4.68
18.95
32.04
41.77
47.89
51.74
55.12
59.47
65.36
72.60
80.42
87.79
93.52
96.43
95.77
91.53
84.67
76.95
70.27
65.96
64.31
64.48
65.10
64.76
62.51
57.92
51.00
42.01
31.43
20.05
9.06
-0.22
-6.76
-10.31
-11.48
-11.38
-10.93
-10.26
-8.63
-4.96
1.40
10.05
19.56
27.87
33.11
34.04
30.27
22.03
10.00
-4.86
-21.37
-38.20
-54.16
-68.54
-81.22
-92.55
-102.98
-112.74
-121.71
-129.52
-135.88
-140.85
-144.85
-148.46
-152.04
-155.49
-158.02
-158.32
-154.81
-146.23
-132.07
-112.81
-89.63
-63.85
-36.13
-6.04
27.84
67.22
113.35
166.25
224.38
284.48
341.60
389.73
422.87
436.72
430.03
405.34
368.21
325.30
282.28
242.22
205.62
171.48
138.61
106.46
75.18
45.19
16.77
-9.93
-34.80
-57.80
-79.40
-100.70
-122.94
-146.61
-170.30
-190.63
-203.31
-205.10
-195.60
-177.71
-156.47
-137.05
-122.57
-113.03
-106.81
-102.19
-98.13
-94.54
-91.70
-89.46
-86.98
-82.80
-75.16
-63.56
-48.96
-33.27
-18.58
-6.47
2.41
7.45
8.83
7.91
5.17
0.34
-6.67
-15.47
-25.11
-34.38
-44.21
-54.94
-64.02
-70.58
-75.12
-77.74
-78.57
-78.02
-76.89
-80.11
-90.19
-102.02
-112.73
-121.92
-128.34
-130.94
-128.98
-122.44
-118.92
-122.87
-127.59
-131.22
-136.83
-145.47
-156.50
-166.77
-171.48
-176.05
-182.15
-178.41
-162.12
-139.72
-116.87
-98.95
-88.95
-44.57
38.43
86.88
90.01
72.78
45.83
17.54
-8.99
-33.16
-56.45
-94.52
-154.43
-221.31
-282.47
-333.07
-369.23
-392.96
-408.15
-380.05
-309.42
-224.98
-149.51
-90.08
-51.41
-13.56
32.50
87.59
148.72
201.09
233.52
250.16
258.24
262.37
267.88
274.98
282.89
290.82
292.03
284.45
274.41
268.24
267.93
275.25
287.80
303.96
324.07
346.05
369.33
394.57
419.15
435.36
437.13
418.71
379.71
326.34
267.73
214.13
173.51
149.00
137.05
133.84
132.37
125.85
109.94
83.05
46.90
5.49
-35.92
-87.30
-142.14
-187.36
-216.50
-234.60
-251.11
-269.00
-285.88
-292.19
-281.06
-246.91
-192.14
-125.55
-58.66
-3.64
27.03
31.98
31.78
37.64
55.41
80.22
108.14
136.41
163.82
189.46
198.77
179.75
130.86
63.35
-8.62
-72.35
-119.06
-145.11
-152.04
-145.73
-137.90
-131.51
-127.24
-125.77
-126.48
-128.35
-130.90
-133.67
-125.40
-104.99
-75.24
-41.37
-9.49
16.41
34.92
45.75
49.08
46.48
38.85
28.41
15.20
-2.09
-23.15
-45.40
-67.28
-78.34
-76.71
-67.41
-63.20
-69.17
-88.76
-123.64
-166.25
-211.03
-253.83
-293.10
-327.19
-332.91
-295.96
-220.77
-126.40
-33.13
43.34
94.32
118.13
120.90
114.03
106.01
102.82
101.83
100.60
97.36
91.69
84.28
76.71
70.40
63.65
54.34
42.66
27.56
12.52
1.08
-4.90
-5.36
-1.69
2.88
5.71
5.95
5.13
5.62
8.53
13.74
20.44
27.62
33.80
37.87
39.35
38.85
37.76
37.23
38.34
41.83
47.72
54.75
60.97
64.51
64.56
61.90
57.88
53.96
50.99
48.92
47.06
44.73
42.00
40.00
40.64
45.51
55.07
68.15
82.23
94.33
102.09
104.42
101.64
94.88
85.24
73.36
59.55
44.14
27.62
10.51
-7.10
-25.52
-45.01
-64.88
-83.21
-97.13
-104.10
-103.08
-95.11
-82.78
-69.10
-56.52
-46.57
-40.17
-38.20
-41.71
-51.42
-67.15
-87.33
-109.14
-129.13
-144.01
-151.30
-149.85
-140.02
-123.47
-102.47
-79.12
-54.70
-29.77
-4.62
19.94
42.34
60.65
73.38
80.36
82.94
83.68
85.36
90.06
98.56
110.30
123.70
136.59
146.81
152.65
153.35
149.09
140.98
130.52
119.34
108.99
100.46
93.85
87.96
80.50
68.76
50.92
27.08
-0.38
-27.47
-50.09
-65.39
-72.76
-73.87
-71.95
-70.74
-73.33
-81.23
-93.94
-109.22
-123.67
-134.10
-138.77
-138.21
-134.88
-132.26
-133.45
-139.88
-150.63
-162.14
-169.15
-166.32
-150.13
-120.03
-78.51
-30.08
20.03
66.75
106.55
137.65
159.86
173.86
181.12
183.95
185.29
188.06
193.72
203.39
217.88
237.37
260.27
284.03
306.20
324.98
339.15
345.90
343.74
332.69
313.83
286.78
250.93
207.17
158.48
108.76
58.86
10.81
-31.97
-65.82
-91.60
-113.92
-137.34
-163.99
-194.10
-230.11
-270.24
-308.01
-334.10
-343.86
-338.83
-322.52
-298.41
-250.07
-184.61
-126.36
-103.42
-109.35
-136.74
-179.44
-232.68
-288.99
-340.48
-385.38
-421.04
-442.06
-440.46
-384.81
-271.46
-129.54
0.67
93.72
141.32
153.59
145.93
131.33
117.06
103.67
92.95
90.17
102.77
132.50
176.71
228.86
280.24
319.64
333.99
317.02
272.82
213.58
152.81
102.20
68.43
52.64
50.73
54.58
58.56
62.13
68.01
77.89
90.72
102.48
107.64
100.97
78.52
40.65
-7.18
-55.91
-96.07
-120.35
-125.56
-113.17
-88.21
-57.63
-27.13
0.56
25.46
48.39
68.77
83.84
89.39
82.32
62.96
36.04
9.35
-9.38
-15.49
-8.99
6.42
25.77
45.46
64.47
83.60
103.77
124.11
141.61
152.10
152.22
141.05
120.79
95.90
71.62
52.39
40.77
37.22
40.37
47.94
57.28
66.20
73.20
77.55
79.03
77.53
72.92
64.92
53.39
38.34
20.07
-1.13
-25.04
-51.33
-79.27
-107.29
-133.89
-157.52
-177.46
-194.27
-210.37
-227.56
-244.82
-257.34
-257.49
-237.83
-193.15
-122.69
-30.97
71.30
170.08
251.37
304.22
322.96
306.83
261.89
200.22
137.09
84.28
48.51
30.18
23.73
19.96
5.82
-26.25
-74.11
-126.88
-176.46
-216.80
-245.21
-262.38
-271.84
-285.28
-308.96
-338.50
-360.81
-373.57
-377.78
-374.95
-366.22
-353.50
-351.64
-369.23
-400.08
-425.02
-441.07
-448.85
-449.31
-443.38
-434.98
-445.39
-487.07
-551.20
-610.68
-659.55
-697.17
-722.46
-731.83
-624.25
-372.97
-51.06
193.10
370.80
506.04
618.99
710.19
778.60
824.25
835.60
796.97
718.98
640.63
580.25
539.95
510.51
483.67
446.79
384.70
296.43
199.32
119.82
64.02
28.63
19.06
35.80
68.80
98.29
113.56
114.61
118.79
126.24
129.53
120.32
95.25
53.90
-0.74
-59.06
-105.51
-123.78
-111.35
-75.16
-27.36
18.26
51.02
66.04
64.63
51.56
31.51
3.28
-36.24
-88.87
-154.12
-228.83
-307.01
-381.66
-445.93
-493.55
-520.27
-523.78
-504.42
-465.95
-413.90
-353.09
-286.43
-215.23
-140.38
-63.56
12.91
86.59
155.33
218.54
277.50
334.48
391.34
447.88
501.69
548.17
580.96
592.45
576.84
532.62
463.81
378.77
286.67
195.28
109.42
31.42
-38.17
-97.97
-145.57
-178.01
-190.13
-183.12
-163.93
-140.95
-113.26
-77.03
-27.82
36.07
111.92
194.34
276.85
354.24
422.74
478.72
516.88
532.20
522.21
488.94
438.65
378.81
316.13
254.78
196.36
140.25
86.18
35.21
-10.71
-50.13
-83.65
-113.55
-142.97
-174.65
-210.50
-250.44
-292.15
-331.18
-361.91
-379.23
-380.02
-364.61
-337.12
-304.92
-276.32
-258.12
-253.87
-263.39
-283.54
-309.51
-336.07
-358.42
-372.85
-376.88
-369.58
-351.78
-325.96
-295.78
-265.16
-236.99
-212.18
-189.02
-163.93
-132.75
-92.48
-43.13
10.92
61.09
96.91
109.95
97.83
65.51
23.40
-17.00
-47.74
-67.17
-79.46
-90.91
-106.09
-124.73
-143.03
-156.25
-161.19
-157.24
-146.38
-132.24
-118.68
-108.87
-102.66
-98.82
-96.09
-93.30
-89.26
-83.61
-77.47
-71.97
-67.23
-57.12
-34.53
4.86
61.53
132.99
213.91
295.92
370.23
428.21
468.71
490.75
490.96
467.07
423.05
369.81
320.41
286.52
271.76
278.24
299.26
320.70
330.17
325.22
312.97
302.21
299.65
257.76
156.43
18.71
-114.86
-220.31
-293.95
-335.75
-361.31
-379.28
-393.42
-395.69
-374.00
-329.74
-272.73
-213.80
-159.03
-111.22
-68.76
-29.17
16.52
81.57
166.64
259.38
343.67
407.85
445.28
456.07
445.24
426.16
422.46
445.78
491.03
544.24
591.71
621.61
625.51
598.49
484.14
285.31
61.38
-125.92
-254.85
-333.26
-376.98
-398.51
-405.58
-402.35
-382.45
-347.90
-310.60
-282.93
-268.88
-268.27
-273.38
-277.36
-276.05
-260.02
-228.34
-188.95
-152.17
-124.18
-102.06
-86.77
-77.03
-71.24
-57.39
-29.42
10.95
57.54
103.74
143.78
172.85
188.72
186.85
168.97
136.56
92.38
41.37
-9.39
-52.84
-84.49
-103.07
-111.14
-112.21
-112.99
-117.92
-127.43
-138.27
-146.11
-148.18
-144.09
-136.23
-127.67
-123.21
-123.55
-125.83
-125.49
-119.26
-106.15
-87.12
-64.03
-26.00
24.77
75.31
111.26
126.24
120.72
98.73
65.92
29.18
-4.14
-33.80
-56.33
-68.78
-69.52
-59.21
-40.23
-16.99
5.00
20.33
22.97
13.33
-7.33
-35.11
-64.73
-85.06
-87.71
-72.20
-46.26
-20.68
-1.47
10.42
17.68
23.41
29.26
34.70
38.00
37.76
33.32
25.54
15.38
3.56
-9.53
-22.97
-34.60
-41.30
-40.13
-30.29
-13.82
5.18
22.21
33.99
39.62
40.99
40.64
40.49
41.57
44.86
52.63
67.07
88.62
108.67
117.98
107.95
74.31
19.51
-47.06
-110.92
-158.72
-182.85
-182.02
-157.97
-113.79
-52.52
18.25
80.66
117.10
120.38
93.75
45.85
-11.87
-68.44
-116.04
-149.92
-172.69
-184.80
-186.30
-178.71
-164.99
-148.34
-131.57
-116.03
-105.83
-100.47
-95.62
-86.48
-70.21
-46.01
-14.16
23.67
63.20
96.68
114.76
109.92
79.55
28.48
-31.27
-84.21
-117.83
-127.60
-118.21
-99.45
-80.71
-67.14
-58.81
-52.75
-46.23
-39.02
-33.14
-30.94
-32.42
-34.74
-33.43
-24.75
-7.52
16.41
42.93
67.59
87.45
102.29
114.31
126.91
143.28
165.44
193.85
227.40
263.58
298.53
327.52
345.75
349.70
338.28
313.23
278.47
238.64
197.67
158.06
121.08
87.46
57.88
32.95
12.69
-3.90
-18.64
-33.35
-48.95
-65.13
-80.63
-94.02
-104.42
-111.87
-116.91
-120.08
-121.36
-120.07
-115.29
-106.38
-93.62
-78.44
-63.16
-50.38
-41.91
-37.99
-36.94
-35.81
-31.66
-23.18
-11.49
0.07
7.39
7.57
0.15
-12.35
-25.14
-32.61
-29.67
-12.67
20.12
67.97
127.10
191.82
255.89
314.27
364.92
409.85
454.02
502.41
556.26
610.65
655.96
681.81
681.35
653.86
604.73
542.62
475.78
409.26
343.70
278.77
215.75
157.65
107.62
67.34
36.01
10.65
-12.46
-39.00
-70.63
-103.65
-132.14
-152.40
-164.31
-170.62
-175.49
-182.79
-200.82
-231.61
-268.50
-301.73
-325.48
-339.31
-346.21
-350.52
-356.17
-375.15
-411.22
-455.92
-496.56
-526.14
-544.64
-555.64
-563.59
-572.65
-598.99
-650.01
-717.85
-787.62
-847.81
-891.68
-914.63
-914.12
-811.62
-596.13
-337.75
-119.95
25.38
109.19
154.37
179.55
195.06
204.53
195.96
165.77
124.77
88.93
67.39
60.16
62.70
69.47
76.29
71.58
52.40
28.83
10.48
3.48
7.81
20.76
39.40
61.33
78.02
84.21
80.80
71.37
58.83
44.94
32.19
23.67
21.79
24.22
28.72
35.56
46.37
62.58
84.17
110.07
138.46
167.11
193.02
214.73
233.02
249.63
266.32
283.91
302.53
322.02
342.53
365.02
391.07
421.78
456.17
490.04
516.00
525.38
511.18
470.53
405.33
321.18
225.64
126.99
34.07
-43.46
-95.35
-112.84
-91.73
-35.37
44.52
130.51
204.34
252.12
267.50
252.30
214.84
167.21
122.78
94.15
91.31
119.47
177.05
254.80
337.26
406.74
448.62
455.88
430.56
381.93
322.25
262.49
209.61
166.19
131.68
104.08
81.08
60.44
39.88
17.01
-10.23
-43.10
-81.66
-124.95
-171.40
-219.36
-267.59
-315.28
-361.90
-407.01
-450.07
-490.61
-528.46
-564.08
-598.82
-634.65
-673.53
-716.26
-761.32
-804.32
-838.63
-857.17
-854.70
-829.78
-785.12
-726.51
-660.53
-592.43
-525.14
-459.63
-396.19
-335.52
-279.08
-228.48
-184.37
-145.86
-110.50
-75.09
-36.88
5.36
50.67
95.72
135.47
164.36
178.01
174.64
155.92
126.79
94.63
67.68
52.91
54.00
70.04
95.66
123.05
145.10
158.18
163.25
164.62
167.15
173.74
184.19
196.21
207.54
217.43
226.75
236.73
247.46
257.33
263.75
264.62
259.29
248.46
233.39
214.99
193.42
168.75
141.77
114.69
90.73
73.11
63.57
61.46
63.74
66.36
65.91
61.21
53.56
45.70
40.28
38.25
38.24
36.88
30.11
15.17
-7.81
-35.09
-60.30
-76.62
-79.38
-67.81
-44.98
-16.00
14.52
44.18
73.35
103.34
134.21
162.96
183.32
187.53
169.14
125.84
61.08
-15.89
-91.95
-153.63
-190.72
-198.97
-180.50
-142.17
-92.79
-40.35
9.78
54.68
93.08
124.18
146.89
160.19
164.03
160.42
153.70
149.77
154.20
170.07
196.32
227.29
254.37
268.75
264.03
237.79
191.57
129.68
58.34
-14.68
-80.33
-129.19
-153.44
-149.45
-119.64
-72.35
-19.61
26.39
56.55
66.49
56.80
31.89
-1.21
-33.96
-57.98
-67.22
-60.17
-41.02
-18.72
-3.83
-4.88
-25.74
-65.35
-119.40
-182.29
-248.18
-310.88
-363.43
-398.54
-410.36
-396.96
-361.37
-310.63
-252.96
-194.49
-137.31
-79.65
-18.14
49.28
121.06
191.81
253.60
298.74
322.30
323.64
306.30
276.41
240.32
202.85
166.70
133.09
102.88
77.40
58.26
46.62
42.24
43.19
46.38
48.59
47.47
42.13
33.21
22.27
11.15
1.48
-5.49
-8.89
-8.14
-3.04
6.18
18.79
33.70
49.58
65.13
79.16
90.76
99.41
105.07
108.27
110.01
111.38
112.82
113.64
111.93
105.14
91.35
70.37
44.30
16.93
-7.59
-26.37
-38.63
-45.57
-49.36
-52.02
-54.80
-58.24
-62.75
-69.03
-77.97
-90.31
-106.10
-124.73
-145.43
-168.15
-194.09
-225.22
-262.65
-304.90
-347.10
-382.20
-403.76
-408.93
-400.10
-383.70
-367.00
-354.70
-347.25
-341.63
-334.15
-322.72
-307.67
-290.48
-271.85
-250.76
-225.07
-193.37
-156.37
-117.03
-79.29
-46.27
-18.95
3.97
25.27
48.05
74.65
105.89
140.63
175.80
207.12
230.31
242.69
244.15
237.17
225.70
213.50
202.82
194.03
186.29
178.65
170.84
163.33
156.73
151.25
146.44
141.59
136.31
130.90
126.14
122.92
121.62
121.85
122.61
122.72
121.31
118.20
113.81
108.78
103.61
98.35
92.71
86.34
79.17
71.51
63.98
57.28
51.99
48.45
46.74
46.70
47.93
49.83
51.66
52.66
52.22
50.17
46.65
42.01
36.58
30.65
24.48
18.58
13.85
11.45
12.43
17.28
25.58
36.09
47.00
56.42
62.92
65.78
65.09
61.72
56.95
52.08
48.03
45.08
42.74
40.03
36.00
30.14
22.73
14.80
7.89
3.65
3.31
7.13
14.08
22.13
29.17
34.10
37.57
41.97
50.59
66.09
88.89
116.27
142.58
160.56
163.44
147.44
113.54
67.83
19.71
-21.99
-52.82
-74.02
-91.18
-110.82
-136.90
-168.84
-201.76
-228.39
-242.47
-240.67
-222.34
-188.77
-143.07
-90.58
-38.80
4.52
34.38
49.27
51.13
44.52
34.41
23.39
10.65
-6.57
-29.08
-52.60
-69.81
-73.60
-59.81
-28.67
15.26
65.26
112.19
144.11
157.62
159.62
157.63
152.02
137.91
111.02
71.76
26.11
-17.59
-51.13
-70.41
-76.45
-74.15
-69.18
-65.94
-67.03
-73.78
-87.25
-100.99
-113.72
-126.72
-142.26
-161.92
-185.91
-212.98
-240.39
-264.01
-278.57
-280.92
-270.48
-249.59
-222.60
-194.09
-167.30
-142.92
-118.99
-92.09
-60.47
-24.72
12.08
45.70
72.33
89.60
97.00
95.50
87.01
72.98
54.83
33.76
11.00
-11.89
-33.04
-50.62
-63.38
-71.25
-75.96
-80.15
-85.91
-93.24
-99.40
-99.87
-90.47
-69.19
-36.87
3.71
49.51
97.95
146.40
190.98
226.19
246.13
247.10
230.05
201.43
171.41
150.74
147.02
162.33
192.57
229.05
261.43
280.85
282.70
267.77
241.22
209.70
178.21
147.89
116.24
79.29
34.61
-16.52
-69.27
-117.51
-156.55
-185.25
-206.29
-224.67
-245.50
-272.16
-305.61
-344.55
-386.06
-426.19
-460.36
-483.55
-491.35
-480.95
-452.16
-407.60
-351.89
-289.88
-225.20
-160.10
-96.76
-38.82
7.98
37.40
45.74
34.62
11.45
-13.04
-29.25
-32.47
-24.18
-10.56
1.07
5.42
0.63
-12.09
-29.95
-49.86
-69.04
-85.34
-97.33
-104.64
-107.99
-108.60
-107.72
-106.07
-103.93
-101.54
-99.60
-99.23
-101.51
-106.68
-113.78
-120.67
-124.85
-124.41
-118.70
-108.50
-95.59
-81.65
-67.51
-52.80
-36.17
-16.25
7.54
34.89
65.14
97.87
133.00
169.81
205.86
236.64
256.86
262.84
254.84
237.74
219.56
208.47
209.95
225.40
252.61
287.11
323.66
356.99
382.13
395.21
394.60
382.11
363.45
347.16
342.15
354.79
386.53
432.92
484.51
529.35
556.23
557.72
531.91
482.33
416.04
340.91
263.06
185.86
110.19
35.69
-38.00
-110.55
-180.87
-247.36
-308.01
-360.65
-403.15
-433.82
-451.81
-457.37
-451.68
-436.39
-413.10
-383.04
-347.01
-305.65
-259.76
-210.62
-160.01
-110.14
-63.37
-21.65
14.21
44.35
69.72
91.89
112.70
133.98
157.14
183.08
212.28
244.86
279.72
314.18
344.27
365.62
374.45
368.42
347.00
311.49
265.29
211.78
153.24
90.83
25.27
-42.59
-111.11
-177.45
-237.50
-284.31
-313.28
-324.58
-322.51
-313.00
-301.13
-289.29
-276.39
-258.41
-226.03
-174.99
-109.44
-39.15
26.58
82.23
126.19
159.19
182.60
204.98
230.02
255.39
278.02
299.98
327.24
364.32
409.83
456.46
504.43
549.35
581.91
593.69
583.21
555.19
516.02
470.40
360.61
177.03
-38.24
-227.48
-361.94
-443.58
-486.01
-502.12
-501.67
-492.31
-467.05
-423.40
-368.66
-314.27
-267.48
-230.57
-203.71
-188.19
-189.98
-202.85
-221.87
-246.65
-277.69
-311.92
-345.36
-369.46
-378.37
-373.57
-354.79
-322.00
-281.96
-233.00
-173.21
-104.45
-30.80
39.51
98.16
144.75
181.89
211.70
218.03
195.58
152.59
103.83
58.34
19.18
-11.46
-32.76
-45.55
-51.69
-48.71
-38.71
-25.48
-14.03
-6.06
1.16
12.47
31.63
59.85
99.22
139.98
169.73
177.30
159.84
123.61
80.46
42.73
19.71
20.37
46.70
94.08
153.21
214.62
268.15
303.45
311.71
270.12
180.92
73.56
-17.29
-75.52
-103.40
-112.59
-114.42
-115.13
-116.12
-112.06
-99.99
-82.41
-68.98
-61.94
-60.78
-62.53
-62.97
-59.50
-48.84
-31.73
-13.44
-0.69
2.81
-4.14
-20.93
-40.15
-58.30
-72.49
-82.83
-92.43
-105.28
-123.30
-146.87
-174.61
-203.59
-230.54
-250.01
-256.70
-247.30
-221.49
-181.61
-132.92
-81.79
-33.83
6.60
37.95
59.99
72.78
76.35
71.56
60.41
46.36
33.69
25.57
23.63
27.52
35.59
45.93
57.37
69.60
82.77
96.99
111.55
125.39
137.18
145.52
148.92
145.94
135.45
117.29
92.90
65.31
38.53
16.19
0.11
-10.38
-18.13
-26.84
-39.50
-57.11
-78.41
-100.44
-119.90
-134.48
-143.66
-148.67
-151.64
-154.52
-158.12
-161.92
-164.67
-165.48
-164.67
-163.87
-165.28
-170.46
-179.37
-190.20
-200.13
-206.66
-208.77
-207.39
-204.89
-203.98
-206.48
-212.57
-220.72
-228.33
-232.57
-230.98
-221.71
-203.43
-175.39
-137.75
-92.34
-43.19
3.63
41.47
65.42
74.53
72.52
66.63
64.81
72.62
91.55
119.35
151.88
185.32
217.29
246.53
271.86
291.28
302.16
302.38
291.62
271.82
246.66
220.17
195.49
174.09
156.00
140.39
126.44
113.79
102.60
93.45
86.86
83.00
81.46
81.18
80.79
78.95
74.82
68.20
59.56
49.44
38.18
25.77
11.97
-3.38
-20.03
-37.39
-54.69
-71.24
-86.66
-100.94
-114.41
-127.74
-141.81
-157.41
-174.87
-193.58
-211.80
-226.87
-235.69
-235.70
-225.55
-205.69
-178.31
-146.86
-114.93
-85.10
-58.21
-33.36
-8.80
16.89
43.85
70.68
95.09
114.86
128.83
137.05
140.67
141.37
141.03
141.51
144.39
150.54
159.66
170.13
179.31
184.41
183.57
176.65
165.34
152.66
141.92
135.71
135.25
140.22
149.22
160.28
171.47
181.10
187.81
190.43
187.97
179.72
165.48
145.81
122.09
96.45
71.46
49.70
33.45
24.24
22.88
29.47
43.68
64.85
91.94
123.31
156.35
187.51
212.80
228.73
233.45
227.40
213.22
194.71
175.36
157.15
140.17
123.20
104.74
84.03
61.55
38.66
17.05
-1.88
-17.35
-29.20
-37.77
-43.80
-48.52
-53.67
-61.32
-73.34
-90.74
-113.08
-138.39
-163.72
-186.01
-203.11
-214.34
-220.66
-224.08
-226.93
-231.18
-237.91
-247.26
-258.50
-270.41
-281.39
-289.65
-293.36
-290.92
-281.25
-264.12
-240.25
-211.25
-179.22
-146.28
-114.22
-84.36
-57.49
-34.09
-14.35
1.84
14.94
25.69
34.94
43.35
51.18
58.39
64.79
70.36
75.25
79.69
83.69
86.89
88.71
88.62
86.57
83.00
78.60
73.75
68.20
61.00
51.02
37.53
20.72
1.74
-17.77
-36.30
-53.00
-67.93
-81.82
-95.76
-110.67
-126.95
-144.35
-162.00
-178.72
-193.33
-205.11
-213.90
-220.23
-224.93
-228.65
-231.28
-231.52
-227.07
-215.27
-194.32
-164.30
-127.66
-88.79
-52.66
-23.15
-1.73
12.88
24.12
36.15
52.50
74.92
102.79
133.19
161.51
182.60
192.38
189.27
174.79
152.95
128.58
105.40
84.85
66.16
47.77
28.87
10.41
-5.20
-15.54
-19.67
-18.86
-15.97
-14.13
-15.09
-18.52
-22.43
-24.50
-23.47
-19.97
-16.03
-13.80
-13.99
-15.06
-13.92
-7.47
5.57
23.87
43.98
62.09
75.83
85.23
92.30
99.55
108.35
118.23
127.47
134.57
139.42
143.27
148.21
156.12
167.41
180.79
194.24
206.22
216.41
225.28
232.52
236.70
235.46
226.64
209.16
183.85
153.23
120.79
90.05
63.38
43.57
34.85
42.38
70.27
119.61
187.14
265.38
344.07
410.24
454.55
474.49
473.66
457.98
432.67
401.02
364.44
323.29
272.74
210.97
142.18
74.08
12.16
-42.64
-92.65
-141.12
-190.53
-250.34
-324.78
-408.41
-489.28
-557.36
-608.52
-643.89
-667.73
-685.69
-714.00
-762.31
-826.70
-893.62
-951.19
-994.59
-1025.14
-1046.87
-993.50
-837.10
-610.36
-379.72
-189.74
-49.76
48.71
116.86
163.77
195.74
205.98
190.71
156.06
115.82
82.28
63.16
60.72
74.74
101.63
126.36
136.04
127.24
105.41
77.96
51.05
28.07
10.47
-1.86
-14.78
-31.32
-47.83
-55.51
-52.51
-38.63
-16.67
9.55
36.48
59.27
75.63
86.82
96.04
105.38
115.50
125.19
132.84
137.31
137.63
134.34
129.52
125.84
124.94
127.61
133.25
140.81
149.58
159.77
172.43
188.87
209.81
234.71
262.26
290.47
317.67
343.20
367.46
391.44
416.18
442.65
471.75
504.47
540.93
579.40
615.63
643.43
656.51
650.80
626.20
586.37
537.13
483.85
429.61
375.02
319.17
261.27
201.62
141.57
82.88
26.86
-26.02
-76.13
-124.05
-170.19
-214.44
-256.18
-294.75
-329.93
-362.27
-392.70
-421.85
-449.27
-473.62
-493.54
-509.26
-523.46
-540.48
-564.06
-594.95
-629.82
-662.35
-685.96
-696.28
-692.30
-675.53
-648.12
-611.50
-566.14
-512.60
-452.40
-388.29
-323.32
-259.79
-198.60
-139.45
-81.61
-24.68
31.12
85.30
137.55
188.05
237.82
288.39
341.11
395.88
450.40
500.09
539.36
563.70
571.68
565.49
550.06
530.97
512.57
497.10
485.14
476.56
471.14
468.40
466.93
463.91
455.66
438.87
412.05
376.20
334.40
290.45
247.56
207.37
169.93
134.36
99.68
65.55
32.50
1.73
-25.55
-48.73
-68.19
-85.24
-101.65
-118.97
-137.93
-158.23
-178.89
-198.93
-217.89
-236.20
-254.89
-275.18
-298.06
-324.37
-354.86
-390.07
-429.36
-469.89
-506.20
-531.15
-538.11
-523.61
-488.69
-438.51
-380.17
-320.17
-262.90
-210.67
-164.70
-126.16
-96.24
-75.42
-62.55
-54.67
-47.86
-38.90
-26.74
-13.15
-2.34
0.58
-8.22
-29.55
-60.57
-95.74
-128.91
-155.54
-173.75
-184.07
-187.75
-185.30
-176.09
-159.28
-135.25
-106.62
-77.85
-53.71
-37.57
-30.17
-29.76
-33.24
-37.49
-40.45
-41.53
-41.40
-41.34
-42.58
-45.58
-49.78
-53.70
-55.40
-53.24
-46.59
-35.98
-23.01
-9.67
2.44
12.68
21.49
29.99
39.28
49.75
61.06
72.65
84.46
97.79
115.19
139.73
173.91
218.86
273.97
337.10
404.63
471.51
531.50
577.97
605.49
611.65
598.01
569.70
533.35
494.50
455.78
416.79
375.41
329.74
279.19
224.59
167.18
107.75
46.27
-17.47
-83.09
-149.06
-212.65
-270.58
-320.07
-359.86
-390.64
-414.89
-435.99
-457.00
-479.57
-503.37
-526.45
-546.24
-560.97
-570.79
-578.03
-586.36
-599.06
-617.31
-639.15
-659.79
-673.15
-674.10
-660.14
-632.04
-593.15
-547.79
-499.60
-450.75
-402.04
-353.75
-306.33
-260.80
-218.30
-179.59
-144.54
-112.31
-81.67
-51.67
-22.01
7.05
34.87
60.91
84.98
107.33
128.42
148.68
168.27
187.01
204.61
220.94
236.34
251.59
267.55
284.45
301.35
315.98
325.24
326.33
317.91
300.93
278.54
255.33
235.92
223.71
220.15
224.57
234.81
247.99
261.23
272.31
279.83
283.38
283.37
280.92
277.48
274.47
272.78
272.36
272.10
270.20
264.87
254.96
240.43
222.22
201.76
180.28
158.45
136.33
113.70
90.40
66.46
42.10
17.47
-7.27
-31.72
-54.96
-75.61
-92.23
-104.04
-111.31
-115.30
-117.43
-118.52
-118.45
-116.61
-112.75
-107.37
-101.59
-96.22
-90.94
-84.20
-73.96
-58.68
-37.92
-12.19
17.55
50.26
84.48
117.87
146.88
167.37
175.83
170.62
152.38
123.57
87.61
48.12
8.68
-27.21
-56.46
-77.10
-88.94
-93.71
-94.36
-93.64
-92.89
-91.68
-88.46
-81.81
-71.47
-58.71
-45.81
-35.04
-27.84
-24.43
-24.04
-25.31
-26.77
-27.11
-25.40
-21.00
-13.68
-3.66
8.42
21.64
35.04
47.92
59.96
71.18
81.68
91.46
100.29
107.91
114.18
119.27
123.59
127.55
131.35
134.82
137.58
139.25
139.69
138.98
137.31
134.74
131.19
126.43
120.28
112.70
103.90
94.26
84.28
74.50
65.41
57.26
49.97
43.06
35.82
27.60
18.20
8.14
-1.42
-8.92
-12.94
-12.69
-8.23
-0.49
9.09
19.00
28.03
35.47
41.14
45.23
48.09
50.01
51.12
51.45
50.93
49.55
47.35
44.50
41.19
37.62
33.94
30.25
26.59
22.96
19.38
15.84
12.35
8.87
5.30
1.48
-2.80
-7.72
-13.42
-19.86
-26.80
-33.85
-40.53
-46.47
-51.46
-55.56
-59.03
-62.29
-65.84
-70.09
-75.17
-80.77
-86.06
-89.71
-90.30
-86.68
-78.45
-66.12
-50.91
-34.42
-18.20
-3.41
9.24
19.43
27.07
32.25
35.24
36.45
36.44
35.78
34.91
34.07
33.26
32.39
31.37
30.21
29.01
27.81
26.60
25.23
23.53
21.43
19.01
16.49
14.05
11.66
8.99
5.63
1.25
-4.12
-10.03
-15.82
-20.89
-25.01
-28.33
-31.26
-34.25
-37.56
-41.24
-45.20
-49.27
-53.16
-56.37
-58.13
-57.46
-53.49
-45.80
-34.74
-21.41
-7.43
5.57
16.32
24.11
28.81
30.74
30.47
28.69
26.08
23.24
20.59
18.37
16.58
15.07
13.72
12.50
11.47
10.72
10.20
9.74
9.07
7.88
5.98
3.33
0.13
-3.21
-6.12
-7.98
-8.30
-6.87
-3.89
0.13
4.40
8.16
10.68
11.47
10.23
6.95
1.94
-4.09
-10.07
-14.77
-17.03
-16.01
-11.39
-3.43
7.11
19.08
31.09
41.67
49.33
52.82
51.47
45.62
36.98
28.55
23.83
25.63
34.75
49.52
66.27
80.78
89.93
92.75
90.36
85.01
78.75
72.63
66.64
60.20
52.96
45.15
37.52
30.92
25.89
22.40
19.85
17.32
13.78
8.34
0.48
-9.86
-22.22
-35.55
-48.35
-58.85
-65.50
-67.41
-64.78
-58.98
-52.29
-47.34
-46.42
-50.86
-60.75
-75.07
-91.97
-109.32
-125.16
-137.98
-146.92
-151.70
-152.53
-150.00
-144.90
-138.04
-130.15
-121.72
-112.96
-103.82
-94.11
-83.79
-73.07
-62.57
-53.12
-45.58
-40.50
-37.94
-37.41
-38.05
-38.92
-39.35
-39.10
-38.33
-37.47
-36.91
-36.87
-37.45
-38.69
-40.61
-43.13
-45.75
-47.43
-46.67
-41.98
-32.47
-18.36
-1.08
17.22
34.35
48.71
59.62
67.11
71.58
73.44
72.92
70.25
65.85
60.45
55.01
50.46
47.35
45.76
45.28
45.23
44.97
44.11
42.65
40.86
39.13
37.66
36.33
34.68
32.08
28.03
22.36
15.39
7.86
0.65
-5.48
-10.23
-13.83
-16.97
-20.47
-24.93
-30.49
-36.64
-42.35
-46.31
-47.22
-44.12
-36.59
-24.91
-10.03
6.57
23.09
37.79
49.37
57.07
60.79
60.93
58.15
53.25
46.98
40.06
33.15
26.91
21.87
18.34
16.30
15.42
15.16
14.98
14.45
13.39
11.80
9.74
7.26
4.36
1.05
-2.63
-6.57
-10.61
-14.71
-18.84
-23.11
-27.55
-32.16
-36.98
-42.02
-47.41
-53.22
-59.30
-65.06
-69.46
-71.21
-69.13
-62.57
-51.70
-37.52
-21.60
-5.78
8.37
19.78
28.05
33.27
35.81
36.06
34.25
30.56
25.32
19.21
13.30
8.84
6.88
7.76
11.10
15.87
20.94
25.49
29.24
32.39
35.21
37.77
39.68
40.27
38.87
35.20
29.49
22.54
15.50
9.66
6.31
6.57
11.23
20.43
33.46
48.72
64.01
77.28
87.30
94.11
98.87
103.29
108.77
115.76
123.74
131.54
138.09
142.77
145.55
146.67
146.30
144.41
140.88
135.92
130.19
124.84
121.08
119.70
120.71
123.26
125.94
127.34
126.56
123.52
119.09
114.66
111.66
110.78
111.63
112.72
112.08
108.06
100.05
88.67
75.38
61.66
48.30
35.17
21.49
6.57
-9.65
-26.21
-41.23
-52.34
-57.26
-54.50
-43.98
-27.53
-8.84
7.10
15.34
12.42
-2.32
-26.35
-54.60
-81.12
-100.93
-111.47
-113.05
-108.20
-100.54
-93.57
-89.89
-90.92
-96.97
-107.41
-120.81
-135.13
-148.08
-157.80
-163.43
-165.64
-166.44
-168.46
-173.90
-183.59
-196.56
-210.34
-221.90
-228.72
-229.74
-225.56
-218.15
-209.89
-202.68
-197.32
-193.28
-188.75
-180.96
-166.65
-143.03
-108.89
-65.76
-18.21
26.93
62.50
83.28
87.86
78.82
61.36
41.11
22.25
6.86
-4.47
-11.57
-13.95
-11.06
-3.06
8.36
20.11
28.66
31.45
27.96
19.85
10.13
1.74
-3.47
-5.18
-4.24
-1.84
1.01
3.74
6.15
8.07
9.19
9.07
7.30
3.76
-1.25
-7.04
-12.78
-17.78
-21.86
-25.28
-28.68
-32.68
-37.58
-43.01
-48.04
-51.35
-51.69
-48.40
-41.75
-32.91
-23.61
-15.55
-9.79
-6.47
-4.87
-3.86
-2.41
0.01
3.42
7.47
11.74
15.88
19.58
22.58
24.57
25.27
24.60
22.68
19.82
16.35
12.39
7.75
2.04
-5.19
-14.15
-24.51
-35.38
-45.46
-53.58
-59.15
-62.47
-64.48
-66.32
-68.68
-71.52
-74.14
-75.53
-74.71
-70.80
-63.09
-50.88
-33.78
-12.05
13.01
39.24
64.52
87.95
110.71
135.85
166.94
206.01
251.86
299.61
341.96
371.35
382.31
372.74
343.87
299.30
243.91
183.20
123.07
69.61
28.23
2.31
-8.00
-6.22
1.58
8.77
10.29
4.01
-9.35
-27.30
-46.88
-65.70
-82.28
-95.87
-106.36
-114.08
-119.78
-124.48
-129.28
-135.01
-142.02
-150.19
-158.96
-167.66
-175.68
-182.61
-188.30
-192.72
-195.79
-197.17
-196.32
-192.72
-186.17
-177.20
-167.02
-157.34
-149.88
-145.78
-145.33
-147.92
-152.23
-156.72
-160.22
-162.31
-163.58
-165.42
-169.49
-177.01
-188.34
-202.93
-219.71
-237.70
-256.33
-275.62
-295.85
-317.41
-340.75
-366.26
-394.12
-423.77
-453.27
-478.99
-496.15
-500.17
-488.23
-460.42
-419.77
-371.14
-319.53
-268.64
-220.36
-175.09
-132.53
-92.42
-54.81
-19.84
12.58
42.86
71.54
99.03
125.37
150.36
173.83
195.95
217.27
238.34
259.20
279.10
296.55
309.98
318.36
321.62
320.70
316.99
311.88
306.38
301.12
296.53
292.97
290.76
289.95
290.23
291.00
291.86
293.00
295.51
301.17
311.88
328.98
352.70
382.08
415.28
450.12
484.51
516.50
544.09
565.02
576.98
578.22
568.33
548.52
521.35
489.69
455.57
419.64
381.28
339.47
293.74
244.67
193.72
142.43
91.68
41.40
-9.18
-60.64
-112.61
-163.45
-210.67
-251.77
-285.33
-311.48
-331.72
-348.01
-361.83
-373.66
-383.13
-389.66
-393.15
-394.27
-394.15
-393.86
-393.89
-393.91
-392.96
-389.77
-383.09
-372.06
-356.75
-338.38
-319.20
-301.66
-287.38
-276.36
-267.06
-257.35
-245.89
-233.00
-220.19
-208.97
-199.32
-189.12
-174.80
-152.93
-121.80
-81.92
-35.57
14.14
64.24
112.03
154.91
190.47
216.72
232.81
239.46
238.96
234.43
228.87
224.26
221.26
219.48
218.02
216.02
213.08
209.31
205.15
201.13
197.56
194.34
190.95
186.68
180.73
172.39
161.10
146.50
128.56
107.67
84.78
61.40
39.15
19.46
3.14
-9.84
-20.28
-29.52
-39.01
-49.85
-62.26
-75.26
-86.68
-93.68
-93.67
-85.32
-69.14
-47.47
-23.71
-1.17
17.88
32.59
43.37
51.19
56.93
61.13
63.93
65.39
65.70
65.23
64.54
64.13
64.25
64.95
66.02
67.14
68.03
68.45
68.18
67.07
64.94
61.63
57.09
51.44
44.97
38.12
31.30
24.77
18.48
12.21
5.65
-1.29
-8.39
-15.22
-21.35
-26.56
-31.17
-35.82
-41.46
-48.92
-58.50
-69.70
-80.87
-89.47
-92.65
-88.15
-75.23
-55.16
-30.86
-5.99
16.22
33.85
46.53
54.95
60.24
63.32
64.76
64.93
64.25
63.18
62.22
61.62
61.33
60.99
60.13
58.39
55.73
52.50
49.29
46.73
45.09
44.09
42.93
40.59
36.34
30.09
22.48
14.62
7.63
2.12
-2.11
-5.85
-10.12
-15.63
-22.37
-29.67
-36.49
-41.96
-45.76
-48.29
-50.47
-53.40
-58.04
-65.00
-74.40
-85.69
-97.47
-107.44
-112.72
-110.68
-99.96
-81.22
-57.16
-31.56
-8.03
11.18
25.49
35.64
42.77
47.72
50.76
51.90
51.23
49.28
46.86
44.76
43.47
43.03
43.12
43.31
43.26
42.85
42.22
41.55
40.88
39.93
38.13
34.85
29.76
23.13
15.76
8.72
2.84
-1.70
-5.40
-9.20
-13.94
-19.95
-26.95
-34.16
-40.70
-45.98
-49.98
-53.17
-56.40
-60.67
-66.77
-74.95
-84.65
-94.29
-101.47
-103.47
-98.21
-85.06
-65.16
-41.23
-16.63
5.64
23.70
36.96
45.81
51.04
53.44
53.66
52.36
50.28
48.22
46.82
46.40
46.86
47.77
48.51
48.59
47.70
45.89
43.51
41.05
38.94
37.33
35.90
34.01
30.89
26.06
19.61
12.20
4.86
-1.44
-6.19
-9.61
-12.43
-15.64
-19.94
-25.49
-31.86
-38.28
-43.98
-48.49
-51.77
-54.17
-56.35
-59.19
-63.66
-70.53
-79.95
-90.88
-100.93
-106.79
-105.24
-94.51
-75.12
-49.90
-22.93
1.87
21.96
36.65
46.62
53.05
56.88
58.50
58.04
55.78
52.38
48.81
46.05
44.66
44.54
45.03
45.23
44.41
42.39
39.58
36.83
35.01
34.47
34.88
35.24
34.40
31.45
26.19
19.15
11.25
3.45
-3.49
-9.02
-12.64
-13.87
-12.45
-8.65
-3.59
1.04
3.54
3.01
-0.33
-5.25
-10.34
-14.73
-18.54
-22.64
-27.89
-34.51
-41.67
-47.66
-50.41
-48.24
-40.27
-26.83
-9.42
9.68
27.93
43.14
53.95
59.87
61.01
57.68
50.18
39.02
25.20
10.54
-2.61
-11.93
-15.86
-14.18
-7.92
1.08
10.69
19.08
24.89
27.22
25.48
19.58
9.85
-2.76
-16.98
-31.41
-44.89
-56.91
-67.53
-77.19
-86.18
-94.29
-100.73
-104.44
-104.68
-101.53
-95.95
-89.54
-83.92
-80.32
-79.42
-81.46
-86.54
-94.58
-105.04
-116.43
-126.20
-131.19
-128.65
-117.40
-98.21
-73.51
-46.36
-19.25
6.57
31.08
54.99
78.97
103.17
126.71
147.47
162.41
168.39
163.42
147.88
124.99
99.89
77.87
62.23
53.41
49.54
48.16
47.87
48.90
52.31
58.54
66.65
74.48
79.87
81.97
81.63
80.73
80.81
81.89
82.12
78.64
69.03
52.68
31.11
7.49
-14.47
-31.70
-42.58
-47.21
-47.21
-45.16
-43.88
-45.48
-50.73
-58.61
-66.94
-73.29
-76.21
-75.83
-73.75
-72.19
-72.90
-76.32
-81.10
-84.09
-80.62
-65.43
-34.39
13.41
74.11
139.37
198.75
243.65
270.72
283.07
288.47
295.41
309.17
329.82
352.91
372.06
381.81
379.39
364.61
338.74
303.22
259.28
208.31
152.69
96.08
42.97
-2.61
-38.55
-65.50
-86.70
-106.53
-128.69
-154.59
-182.94
-210.55
-233.94
-250.93
-261.44
-267.28
-271.02
-274.80
-279.42
-284.26
-287.72
-288.10
-284.44
-276.72
-265.92
-253.46
-240.65
-228.24
-216.25
-204.22
-191.49
-177.64
-162.72
-147.25
-132.13
-118.33
-106.76
-98.07
-92.55
-89.99
-89.76
-90.74
-91.62
-91.20
-88.63
-83.71
-76.82
-68.77
-60.35
-52.18
-44.46
-37.18
-30.26
-23.75
-17.87
-12.90
-8.99
-5.99
-3.57
-1.40
0.66
2.38
3.34
3.06
1.28
-1.88
-6.07
-10.80
-15.62
-20.17
-24.20
-27.53
-29.99
-31.35
-31.30
-29.55
-25.84
-20.20
-13.11
-5.62
0.85
4.87
5.69
3.70
0.48
-1.64
-0.38
5.52
15.72
28.18
39.59
46.29
45.34
35.36
17.02
-7.13
-33.37
-57.63
-76.38
-87.04
-88.24
-79.72
-62.35
-38.05
-9.65
19.66
46.96
70.33
89.19
104.12
116.13
125.99
133.78
138.90
140.61
138.47
132.60
123.69
112.81
101.17
90.07
80.72
74.03
70.32
69.10
69.14
68.89
67.15
63.56
58.71
53.80
49.87
47.35
45.82
44.24
41.38
36.17
28.09
17.49
5.82
-4.35
-9.76
-7.50
3.95
23.79
49.00
75.35
98.84
116.94
129.01
135.83
138.70
138.71
136.56
132.74
127.88
122.86
118.56
115.55
113.87
112.99
112.01
109.94
105.93
99.52
90.71
79.95
68.06
55.88
43.93
32.22
20.28
7.44
-6.70
-21.98
-37.59
-52.32
-65.15
-75.66
-84.41
-92.69
-101.96
-113.10
-125.91
-139.05
-150.56
-158.68
-162.56
-162.66
-160.55
-158.33
-157.87
-160.23
-165.30
-171.75
-177.42
-179.85
-177.10
-168.40
-154.51
-137.51
-120.08
-104.63
-92.47
-83.75
-77.67
-73.24
-69.82
-67.26
-65.70
-65.07
-64.89
-64.27
-62.32
-58.62
-53.49
-47.80
-42.43
-37.71
-33.19
-27.78
-20.39
-10.44
1.93
16.14
31.48
47.29
62.86
77.28
89.19
97.25
100.44
98.63
92.54
83.27
71.92
59.17
45.52
31.70
18.89
8.52
1.68
-1.35
-1.31
0.48
2.72
4.65
6.06
7.01
7.41
6.91
5.03
1.47
-3.69
-10.03
-16.68
-22.32
-25.03
-22.54
-12.81
5.02
29.78
58.31
86.30
109.95
127.31
138.76
146.39
152.37
157.75
162.13
164.28
163.31
159.56
154.59
150.31
147.96
147.37
146.94
144.27
137.21
124.55
106.35
83.71
58.18
31.17
3.68
-23.77
-50.96
-77.56
-103.06
-126.73
-147.80
-165.83
-180.83
-193.22
-203.48
-211.83
-218.09
-221.77
-222.53
-220.33
-215.54
-208.80
-200.82
-192.33
-183.91
-175.95
-168.56
-161.50
-154.24
-146.31
-137.59
-128.32
-118.76
-108.60
-96.68
-81.31
-61.12
-35.97
-7.42
21.86
49.12
72.55
91.74
107.19
119.64
129.32
136.07
139.69
140.44
139.38
137.94
137.55
138.92
142.03
146.06
149.88
152.46
153.30
152.49
150.42
147.46
143.55
138.24
130.99
121.61
110.60
99.01
88.09
78.69
71.09
65.04
60.10
56.15
53.38
52.12
52.45
53.90
55.34
55.47
53.27
48.44
41.51
33.57
25.77
18.75
12.44
6.01
-1.81
-12.32
-26.40
-44.14
-64.54
-85.31
-103.15
-114.41
-116.11
-106.97
-87.95
-62.05
-33.42
-6.19
16.59
33.36
44.09
49.81
52.06
52.24
51.27
49.48
46.64
42.45
36.75
29.77
21.98
13.91
5.90
-1.92
-9.41
-16.06
-20.91
-22.60
-19.77
-11.58
1.87
19.29
38.30
55.94
69.55
77.51
79.78
77.88
74.24
71.22
70.26
71.53
74.03
76.25
76.89
75.24
71.27
65.37
58.01
49.50
40.06
29.97
19.71
10.06
1.88
-4.23
-8.24
-10.72
-12.59
-14.85
-18.30
-23.58
-31.15
-41.10
-52.74
-64.12
-72.22
-73.63
-66.08
-49.55
-26.71
-2.11
19.59
35.37
44.64
48.85
50.10
49.81
48.11
44.13
37.02
26.73
14.23
1.20
-10.89
-21.30
-30.22
-38.33
-46.25
-54.23
-62.00
-69.33
-76.36
-83.83
-92.78
-104.09
-118.08
-134.40
-152.27
-170.80
-189.38
-207.60
-225.20
-241.87
-257.19
-270.72
-282.02
-290.77
-296.62
-299.17
-297.91
-292.39
-282.51
-268.71
-252.11
-234.29
-216.98
-201.46
-188.45
-177.89
-169.16
-161.28
-152.81
-142.00
-126.74
-105.17
-76.37
-41.15
-2.10
36.95
72.09
100.59
121.38
134.88
142.14
143.95
140.37
131.08
116.14
96.64
74.94
54.03
36.67
24.50
17.79
15.93
18.23
24.70
36.07
53.16
75.80
102.11
128.56
151.00
166.04
172.22
170.54
164.09
157.08
153.57
156.51
167.19
185.40
209.88
238.84
270.32
302.14
331.87
356.86
374.66
383.51
382.99
374.20
359.39
341.22
321.77
301.73
280.19
254.99
223.92
186.30
144.31
103.35
70.78
53.72
56.59
79.75
119.49
169.27
221.33
268.04
302.80
320.53
318.33
296.04
256.45
204.71
146.97
88.79
33.81
-16.57
-62.63
-105.43
-146.01
-184.91
-221.96
-256.20
-286.01
-309.48
-325.21
-333.00
-334.48
-332.92
-332.45
-337.06
-349.66
-371.47
-401.45
-435.91
-468.61
-491.57
-497.06
-480.16
-440.78
-383.96
-318.08
-251.68
-190.54
-136.60
-88.95
-46.04
-7.43
25.90
52.59
72.19
85.73
95.21
102.48
108.54
113.53
117.10
118.78
118.14
114.77
108.28
98.64
86.50
73.16
60.04
47.98
36.65
24.70
10.36
-7.74
-30.20
-57.02
-87.93
-122.60
-160.31
-199.33
-236.79
-269.34
-294.33
-311.03
-320.97
-327.03
-332.07
-337.68
-343.91
-349.95
-355.00
-358.55
-359.87
-357.35
-348.21
-329.38
-298.86
-257.02
-206.79
-152.57
-98.78
-48.52
-3.36
36.31
70.46
99.11
122.29
140.29
153.73
163.27
169.28
171.71
170.28
164.95
156.29
145.61
134.54
124.39
115.74
108.23
100.84
92.27
81.38
67.57
51.18
33.72
17.88
7.08
4.48
11.81
28.63
52.20
78.46
103.27
123.69
138.51
148.05
153.47
156.07
156.86
156.52
155.52
154.28
153.15
152.36
151.91
151.52
150.73
149.16
146.63
143.30
139.67
136.32
133.67
131.73
130.05
127.89
124.52
119.51
112.90
105.18
97.11
89.43
82.64
76.87
71.81
66.97
61.85
56.19
50.07
43.85
38.02
32.92
28.60
24.73
20.69
15.84
9.75
2.44
-5.61
-13.66
-20.98
-27.19
-32.44
-37.33
-42.73
-49.55
-58.36
-69.25
-81.40
-92.97
-101.23
-103.07
-96.06
-79.43
-54.68
-25.33
4.14
29.79
49.30
62.35
70.11
74.25
76.11
76.34
75.18
72.88
70.00
67.35
65.69
65.33
66.05
67.24
68.20
68.42
67.74
66.29
64.31
62.00
59.42
56.46
52.94
48.72
43.80
38.37
32.63
26.69
20.54
14.09
7.45
0.96
-4.86
-9.52
-12.95
-15.53
-18.04
-21.20
-25.38
-30.39
-35.62
-40.41
-44.39
-47.61
-50.52
-53.77
-58.05
-63.94
-71.77
-81.22
-91.06
-99.00
-102.15
-97.90
-85.02
-64.40
-38.85
-12.24
11.86
31.30
45.52
55.17
61.19
64.29
64.83
63.17
60.02
56.43
53.44
51.73
51.41
52.09
53.24
54.41
55.39
56.10
56.44
56.24
55.29
53.49
50.84
47.45
43.42
38.76
33.42
27.38
20.78
13.93
7.27
1.22
-4.05
-8.60
-12.74
-16.90
-21.39
-26.33
-31.61
-36.88
-41.77
-45.96
-49.37
-52.15
-54.76
-57.75
-61.74
-67.31
-74.84
-84.27
-94.70
-104.20
-109.98
-109.08
-99.50
-81.11
-56.02
-27.97
-1.09
21.35
37.78
48.35
54.24
56.88
57.43
56.60
54.93
52.92
51.04
49.69
49.00
48.84
48.90
48.94
48.77
48.43
48.02
47.55
46.92
45.90
44.22
41.73
38.46
34.55
30.19
25.43
20.28
14.75
8.94
3.17
-2.18
-6.74
-10.38
-13.26
-15.80
-18.58
-22.14
-26.74
-32.27
-38.21
-43.86
-48.63
-52.26
-55.02
-57.55
-60.66
-65.11
-71.41
-79.63
-89.03
-97.94
-103.80
-103.84
-95.93
-79.62
-56.53
-29.98
-3.90
18.40
35.09
45.93
51.82
54.06
53.84
52.06
49.35
46.33
43.57
41.63
40.93
41.58
43.37
45.78
48.23
50.18
51.43
52.10
52.50
52.98
53.71
54.56
55.18
55.13
53.99
51.60
48.19
44.32
40.97
39.14
39.58
42.49
47.37
53.19
58.76
63.24
66.50
69.15
72.17
76.44
82.05
88.16
93.01
94.45
90.48
79.78
62.11
38.54
11.47
-15.56
-38.48
-53.64
-58.91
-54.35
-42.27
-26.47
-10.97
1.19
8.61
11.42
10.66
7.60
3.31
-1.43
-6.01
-9.95
-12.94
-15.08
-16.80
-18.73
-21.32
-24.53
-27.80
-30.31
-31.44
-31.13
-29.87
-28.50
-27.72
-27.81
-28.43
-28.80
-27.91
-24.81
-18.86
-9.86
1.86
15.49
29.77
43.39
55.22
64.58
71.26
75.43
77.44
77.61
76.23
73.47
69.52
64.61
58.87
52.43
45.28
37.30
28.23
17.73
5.55
-8.25
-23.06
-37.52
-49.69
-57.51
-59.52
-55.53
-46.90
-36.17
-26.30
-19.70
-17.50
-19.45
-24.41
-31.00
-38.21
-45.62
-53.17
-60.84
-68.35
-75.16
-80.60
-84.31
-86.26
-86.77
-86.35
-85.44
-84.39
-83.45
-82.81
-82.65
-83.10
-84.08
-85.38
-86.75
-88.01
-89.27
-90.74
-92.61
-94.74
-96.70
-97.78
-97.46
-95.65
-92.80
-89.70
-87.20
-85.82
-85.66
-86.39
-87.50
-88.55
-89.31
-89.85
-90.52
-91.95
-94.86
-99.87
-107.16
-116.06
-124.88
-131.02
-131.59
-124.34
-108.67
-86.08
-59.92
-34.43
-13.40
0.87
7.91
8.68
4.69
-2.74
-12.84
-25.18
-39.18
-53.84
-67.85
-80.01
-89.86
-97.86
-105.27
-113.49
-123.36
-134.60
-145.88
-155.22
-160.79
-161.62
-157.95
-151.15
-143.07
-135.24
-128.04
-120.31
-109.61
-92.95
-67.90
-33.62
8.68
55.73
103.00
145.79
180.50
205.58
221.91
232.50
241.43
252.51
267.89
287.39
308.42
326.84
338.14
338.56
325.94
300.17
263.26
219.12
172.98
130.41
95.98
72.18
58.88
53.65
52.65
51.69
47.02
35.86
16.68
-10.45
-43.72
-79.73
-114.13
-142.85
-163.19
-174.50
-178.19
-176.81
-173.08
-168.99
-165.36
-162.07
-158.52
-154.15
-148.71
-142.29
-134.91
-126.27
-115.50
-101.56
-83.70
-62.11
-38.05
-13.61
8.91
27.74
41.91
51.30
56.28
57.43
55.37
50.66
43.75
34.94
24.42
12.42
-0.54
-13.51
-25.15
-34.04
-39.10
-39.99
-37.24
-32.11
-26.25
-21.37
-18.88
-19.50
-22.96
-27.81
-31.49
-30.90
-23.41
-7.89
14.57
40.82
66.66
88.21
103.14
111.12
113.51
112.41
109.77
106.82
104.04
101.52
99.27
97.33
95.76
94.33
92.59
90.05
86.53
82.41
78.52
75.74
74.57
74.82
75.61
75.82
74.50
71.26
66.25
60.01
53.07
45.86
38.56
31.36
24.55
18.51
13.52
9.55
6.28
3.07
-0.64
-5.24
-10.76
-16.95
-23.48
-30.08
-36.63
-43.15
-49.65
-56.22
-63.16
-70.92
-80.02
-90.60
-101.98
-112.32
-118.94
-119.02
-110.56
-93.22
-68.60
-39.72
-10.07
17.46
41.21
60.75
76.47
88.89
98.32
104.85
108.59
109.99
109.98
109.65
109.84
110.73
111.75
111.90
110.34
106.79
101.67
95.66
89.29
82.48
74.55
64.68
52.44
38.17
22.92
8.03
-5.28
-16.30
-24.74
-30.53
-33.64
-34.03
-31.86
-27.62
-22.16
-16.67
-12.43
-10.81
-13.21
-21.09
-35.85
-58.35
-88.12
-122.55
-156.69
-184.04
-198.26
-195.36
-175.34
-142.50
-104.08
-67.78
-39.19
-20.25
-9.32
-2.68
3.43
11.23
20.94
31.48
41.53
50.50
58.66
66.67
74.87
82.75
89.14
92.79
93.23
91.05
87.71
84.77
83.04
82.13
80.69
77.14
70.52
60.93
49.55
38.01
27.67
19.00
11.53
4.22
-3.90
-13.22
-23.27
-33.10
-41.70
-48.58
-54.00
-58.90
-64.62
-72.31
-82.56
-95.02
-108.20
-119.61
-126.16
-125.00
-114.41
-94.56
-67.65
-37.39
-7.83
17.70
37.46
51.31
60.28
65.82
69.18
71.14
72.11
72.25
71.81
71.02
70.19
69.52
69.08
68.73
68.23
67.41
66.21
64.72
62.95
60.76
57.74
53.35
47.25
39.49
30.52
21.04
11.68
2.72
-5.88
-14.38
-22.91
-31.38
-39.49
-46.91
-53.47
-59.21
-64.43
-69.56
-75.21
-82.02
-90.46
-100.54
-111.35
-120.96
-126.67
-125.71
-116.23
-98.17
-73.42
-45.36
-17.85
5.93
24.30
37.11
45.32
50.28
53.09
54.36
54.34
53.20
51.31
49.16
47.36
46.30
46.11
46.57
47.25
47.65
47.41
46.35
44.53
42.09
39.19
35.84
31.91
27.26
21.73
15.29
7.96
-0.12
-8.75
-17.58
-26.18
-34.04
-40.79
-46.38
-51.22
-56.17
-62.28
-70.43
-80.89
-92.87
-104.42
-112.78
-115.00
-108.91
-93.96
-71.52
-44.64
-17.07
7.75
27.62
41.84
51.01
56.43
59.43
61.10
62.09
62.74
63.17
63.38
63.35
63.04
62.41
61.42
60.10
58.56
56.92
55.31
53.72
51.90
49.48
46.02
41.20
35.03
27.91
20.47
13.36
6.93
1.09
-4.61
-10.74
-17.61
-25.09
-32.69
-39.76
-45.88
-51.09
-55.90
-61.17
-67.80
-76.34
-86.57
-97.18
-105.89
-109.88
-106.62
-94.91
-75.47
-50.87
-24.75
-0.60
19.18
33.80
43.83
50.47
54.90
57.91
59.91
61.16
61.91
62.50
63.16
63.94
64.61
64.80
64.16
62.56
60.18
57.45
54.90
52.91
51.52
50.36
48.75
45.94
41.45
35.23
27.78
19.94
12.63
6.46
1.54
-2.51
-6.31
-10.41
-15.07
-20.21
-25.57
-30.95
-36.24
-41.37
-46.28
-50.85
-55.00
-58.99
-63.52
-69.57
-78.00
-88.80
-100.57
-110.61
-115.54
-112.58
-100.63
-80.87
-56.29
-30.70
-7.40
11.68
26.15
36.69
44.30
49.83
53.70
56.14
57.38
57.84
58.00
58.26
58.85
59.69
60.51
60.97
60.85
60.14
59.12
58.19
57.63
57.44
57.18
56.18
53.88
50.11
45.23
40.03
35.36
31.76
29.31
27.64
26.13
24.24
21.76
18.90
16.22
14.38
13.83
14.58
16.09
17.45
17.65
15.82
11.50
4.67
-4.23
-14.19
-23.78
-31.32
-35.42
-35.55
-32.48
-28.22
-25.35
-26.05
-31.18
-40.00
-50.62
-60.97
-69.62
-76.29
-81.64
-86.64
-91.96
-97.58
-102.85
-106.85
-108.78
-108.36
-105.77
-101.53
-96.23
-90.34
-84.12
-77.68
-71.15
-64.69
-58.54
-53.03
-48.45
-45.01
-42.74
-41.38
-40.33
-38.71
-35.57
-30.36
-23.26
-15.33
-8.20
-3.43
-1.80
-3.04
-6.06
-9.53
-12.58
-15.18
-18.11
-22.50
-29.37
-39.19
-51.72
-66.01
-80.55
-93.59
-103.50
-109.07
-109.82
-106.00
-98.37
-87.87
-75.15
-60.37
-43.21
-23.12
0.15
26.06
53.11
79.06
101.53
118.61
129.37
133.97
133.36
128.81
121.65
113.03
104.07
95.74
88.85
83.76
80.32
77.98
76.04
74.00
71.70
69.28
67.01
65.09
63.55
62.26
61.02
59.59
57.89
55.92
53.83
51.86
50.13
48.61
46.96
44.74
41.56
37.28
32.07
26.23
19.92
13.00
5.10
-4.16
-14.88
-26.79
-39.25
-51.56
-62.97
-72.71
-79.80
-83.01
-81.13
-73.42
-60.17
-42.91
-24.24
-7.10
6.08
14.06
17.06
16.32
13.46
9.82
6.06
2.29
-1.56
-5.29
-8.28
-9.71
-8.97
-5.97
-1.21
4.45
10.23
15.72
20.97
26.18
31.48
36.68
41.34
44.95
47.20
48.09
47.97
47.45
47.22
47.95
50.05
53.59
58.20
63.15
67.51
70.39
71.13
69.44
65.33
59.09
51.21
42.43
33.67
26.09
20.90
19.15
21.48
28.00
38.21
51.02
65.02
78.68
90.71
100.32
107.35
112.11
114.96
115.88
114.21
108.90
99.07
84.75
67.30
49.16
33.11
21.39
15.05
13.83
16.48
21.36
26.88
31.67
34.78
35.64
34.16
30.65
25.66
19.67
12.94
5.48
-2.65
-11.11
-19.13
-25.82
-30.52
-33.09
-33.94
-33.70
-32.88
-31.60
-29.68
-26.90
-23.33
-19.44
-16.06
-14.06
-14.06
-16.02
-19.03
-21.32
-20.49
-14.21
-0.87
19.80
46.61
77.22
108.94
139.39
167.03
191.16
211.73
228.90
242.86
253.78
261.95
267.92
272.47
276.56
281.08
286.67
293.56
301.59
310.15
318.17
324.09
326.00
321.95
310.47
291.04
264.34
232.10
196.63
160.18
124.51
90.71
59.36
30.69
4.74
-18.58
-39.51
-58.39
-75.49
-90.83
-104.17
-115.12
-123.41
-129.10
-132.73
-135.09
-137.11
-139.47
-142.61
-146.63
-151.50
-157.22
-163.95
-172.06
-182.21
-195.23
-211.84
-232.18
-255.28
-278.79
-299.33
-313.34
-318.29
-313.50
-300.39
-281.73
-260.71
-239.90
-220.93
-204.55
-191.09
-180.74
-173.50
-169.03
-166.46
-164.59
-162.23
-158.65
-153.82
-148.29
-143.03
-138.81
-136.00
-134.41
-133.39
-132.13
-129.96
-126.54
-121.95
-116.45
-110.40
-104.14
-98.00
-92.36
-87.65
-84.15
-81.94
-80.74
-80.03
-79.25
-78.14
-76.91
-76.13
-76.44
-78.16
-81.09
-84.59
-87.93
-90.68
-92.88
-95.05
-97.77
-101.39
-105.78
-110.49
-115.02
-119.13
-122.95
-126.85
-131.24
-136.43
-142.52
-149.43
-156.94
-164.69
-172.15
-178.76
-183.97
-187.45
-189.15
-189.35
-188.47
-186.98
-185.15
-183.14
-180.97
-178.60
-175.95
-172.94
-169.51
-165.73
-161.79
-158.07
-155.01
-153.05
-152.41
-153.10
-154.94
-157.63
-160.95
-164.79
-169.16
-174.10
-179.57
-185.38
-191.06
-196.04
-199.69
-201.66
-202.01
-201.28
-200.21
-199.31
-198.35
-196.14
-190.74
-180.08
-162.79
-138.60
-108.54
-74.42
-38.39
-2.50
31.43
61.77
87.28
107.30
122.19
133.15
141.64
148.76
154.73
158.80
159.98
158.03
154.18
151.33
152.87
161.31
177.25
199.23
224.30
249.01
270.43
286.71
297.50
303.15
304.32
301.90
297.12
291.47
286.33
282.76
281.15
282.26
285.57
289.26
290.97
288.97
282.82
273.49
263.20
254.56
251.35
254.28
260.07
263.34
259.86
248.57
231.81
214.31
200.86
197.25
204.24
217.00
228.60
234.42
233.93
229.43
224.33
220.79
222.73
229.56
236.02
235.81
225.33
204.47
174.75
138.45
74.25
-17.67
-115.05
-190.84
-233.46
-248.66
-248.78
-247.35
-251.49
-262.68
-274.33
-280.70
-281.41
-278.25
-273.67
-269.50
-267.10
-266.43
-266.20
-260.77
-245.79
-220.20
-185.62
-144.83
-101.22
-58.99
-22.18
6.28
27.57
43.83
56.71
67.09
75.39
81.85
86.38
88.86
89.07
87.49
83.82
77.02
66.81
55.00
45.75
43.92
52.74
71.79
97.08
122.10
140.54
148.98
147.96
141.02
132.52
125.52
121.01
118.37
116.39
113.83
109.28
100.72
85.69
62.15
29.72
-9.66
-52.22
-93.67
-130.73
-161.79
-186.62
-205.39
-217.74
-222.51
-218.12
-203.35
-177.94
-143.01
-100.99
-55.27
-9.65
32.19
67.34
94.04
111.79
121.28
124.00
122.00
117.57
112.97
109.92
109.26
110.85
113.84
117.23
120.34
122.92
124.96
126.38
126.92
126.26
124.26
121.05
117.05
112.68
108.27
103.92
99.62
95.34
91.12
87.09
83.48
80.65
79.11
79.33
81.63
85.79
91.12
96.51
100.89
103.48
103.90
102.07
97.97
91.43
82.12
69.66
53.79
34.50
12.09
-12.79
-39.13
-65.75
-91.33
-114.70
-135.07
-152.24
-166.54
-178.73
-189.76
-200.49
-211.47
-222.72
-233.56
-242.53
-247.62
-246.64
-237.95
-221.06
-197.03
-168.41
-138.52
-110.73
-87.49
-69.91
-57.72
-49.75
-44.53
-40.81
-37.68
-34.54
-30.78
-25.77
-18.95
-10.11
0.44
11.89
23.22
33.58
42.53
50.04
56.23
61.18
64.76
66.65
66.57
64.47
60.71
55.98
51.20
47.20
44.47
43.01
42.35
41.84
40.80
38.87
36.02
32.55
28.87
25.34
22.09
18.85
15.09
10.17
3.65
-4.49
-13.65
-22.91
-31.28
-38.11
-43.35
-47.41
-51.07
-55.12
-60.32
-67.23
-76.04
-86.23
-96.27
-103.67
-105.48
-99.32
-84.41
-62.08
-35.44
-8.38
15.81
35.21
49.43
59.11
65.04
67.81
67.71
65.16
60.99
56.40
52.72
50.86
51.00
52.64
54.83
56.59
57.29
56.83
55.56
54.03
52.72
51.77
50.94
49.73
47.68
44.57
40.60
36.26
32.23
29.02
26.86
25.53
24.47
22.95
20.40
16.51
11.44
5.68
-0.12
-5.37
-9.81
-13.50
-16.79
-20.17
-24.05
-28.65
-33.95
-39.68
-45.44
-50.91
-55.96
-60.74
-65.61
-71.13
-77.85
-86.15
-95.94
-106.30
-115.34
-120.41
-118.80
-108.68
-90.03
-64.82
-36.46
-8.75
15.30
34.19
47.80
56.96
62.68
65.79
66.95
66.70
65.66
64.47
63.62
63.29
63.35
63.48
63.37
62.93
62.26
61.68
61.50
61.83
62.43
62.74
62.05
59.77
55.72
50.21
43.92
37.58
31.70
26.43
21.67
17.20
12.99
9.09
5.66
2.70
-0.00
-2.85
-6.21
-10.31
-15.09
-20.32
-25.73
-31.20
-36.75
-42.52
-48.56
-54.83
-61.17
-67.40
-73.47
-79.41
-85.43
-91.64
-98.14
-104.99
-112.33
-120.47
-129.54
-139.29
-148.58
-155.39
-157.13
-151.36
-136.51
-112.56
-81.14
-45.19
-8.29
26.07
55.03
76.65
89.84
94.35
90.60
79.84
64.14
46.22
29.10
15.47
7.10
4.57
7.31
14.01
22.94
32.46
41.12
47.95
52.53
55.06
56.19
56.74
57.33
58.17
59.10
59.86
60.47
61.31
62.93
65.70
69.38
73.12
75.70
76.03
73.57
68.47
61.35
52.90
43.47
32.99
21.10
7.48
-7.88
-24.70
-42.55
-61.02
-79.79
-98.48
-116.61
-133.62
-149.11
-163.10
-176.00
-188.25
-199.79
-209.66
-215.92
-216.36
-209.26
-194.17
-172.22
-145.77
-117.57
-90.19
-65.40
-44.25
-27.09
-13.81
-3.87
3.62
9.73
15.40
21.22
27.22
33.08
38.46
43.30
47.91
52.79
58.44
65.20
73.29
82.90
94.09
106.65
119.72
131.82
141.20
146.35
146.65
142.62
135.58
127.03
118.27
110.51
105.30
104.59
110.12
122.38
139.63
158.02
172.89
180.76
180.93
175.76
169.28
165.02
164.17
164.89
163.27
155.02
137.25
109.22
72.32
29.50
-15.28
-57.52
-92.75
-117.21
-128.65
-127.21
-115.70
-99.01
-82.66
-71.14
-66.57
-68.40
-74.18
-80.87
-86.08
-88.67
-88.62
-86.45
-82.69
-77.58
-71.26
-63.89
-55.95
-48.28
-41.93
-37.83
-36.55
-38.23
-42.58
-48.99
-56.58
-64.29
-71.16
-76.51
-80.15
-82.43
-84.06
-85.76
-87.98
-90.88
-94.32
-97.96
-101.14
-102.81
-101.64
-96.32
-86.29
-72.32
-56.69
-42.74
-33.88
-32.50
-39.18
-52.28
-68.23
-82.24
-89.40
-86.04
-70.77
-45.05
-12.61
21.76
53.85
81.07
102.54
118.74
130.65
139.28
145.30
149.15
151.14
151.51
150.27
147.24
142.35
136.01
129.18
123.13
119.12
118.16
121.13
128.31
139.14
152.01
164.24
172.39
173.05
164.22
146.42
123.42
100.30
81.29
68.63
62.18
59.84
58.67
56.15
51.16
44.90
38.21
30.34
19.79
6.17
-9.35
-24.69
-38.09
-49.50
-59.31
-70.39
-87.14
-111.53
-140.26
-166.02
-180.99
-180.01
-161.57
-124.91
-72.71
-11.51
50.21
104.39
143.74
162.55
158.44
119.61
52.29
-19.45
-72.11
-98.99
-106.53
-104.41
-99.35
-93.96
-88.22
-79.22
-66.41
-52.66
-41.86
-35.31
-32.21
-30.81
-29.82
-28.50
-24.90
-18.70
-11.94
-7.99
-7.79
-11.19
-17.67
-26.80
-38.07
-49.66
-60.29
-68.17
-74.74
-80.56
-85.73
-90.26
-94.30
-98.26
-102.24
-106.63
-111.70
-116.53
-117.71
-110.86
-92.91
-64.20
-29.00
6.10
34.61
52.69
60.16
60.28
57.19
53.75
50.75
47.57
43.55
38.97
35.00
32.71
32.53
33.78
35.12
35.13
33.12
29.39
25.01
21.26
19.06
18.70
19.75
21.30
22.33
22.13
20.57
18.04
15.29
13.19
12.42
13.22
15.27
17.86
19.97
20.77
19.93
17.82
15.44
14.07
14.69
17.50
21.73
25.90
28.49
28.73
26.83
24.06
22.07
22.05
24.29
28.38
33.65
39.45
44.80
47.81
45.58
35.02
14.48
-14.79
-48.48
-80.61
-106.12
-123.14
-133.25
-139.72
-144.52
-146.44
-141.50
-125.60
-97.69
-61.37
-23.77
7.49
27.73
36.64
37.58
35.27
33.17
32.35
31.99
30.88
28.69
26.22
24.72
24.86
26.22
27.68
28.13
27.17
25.38
23.90
23.69
24.94
27.09
29.03
29.83
29.35
28.29
28.03
30.32
36.75
47.95
62.92
78.40
89.43
90.81
79.39
55.97
25.53
-4.50
-27.18
-38.67
-39.90
-34.85
-27.89
-21.47
-15.59
-9.00
-1.26
6.18
10.39
8.51
-0.28
-14.25
-29.95
-43.81
-53.61
-59.66
-64.34
-70.21
-79.97
-94.61
-113.29
-133.58
-151.85
-163.64
-164.78
-153.13
-128.70
-95.18
-58.70
-25.57
0.05
17.45
29.23
38.92
49.15
60.86
73.60
86.58
98.74
108.73
114.53
115.77
113.80
111.46
111.33
113.01
112.77
105.05
86.43
57.94
25.88
-1.46
-18.13
-23.54
-22.11
-19.94
-21.03
-25.38
-30.08
-31.77
-29.31
-24.03
-18.75
-16.23
-17.56
-22.07
-27.68
-32.25
-34.25
-33.40
-30.57
-27.34
-25.30
-25.43
-27.84
-31.77
-36.06
-39.47
-41.19
-41.22
-40.12
-38.85
-38.24
-38.68
-40.14
-42.65
-46.57
-52.29
-59.31
-65.34
-66.37
-57.99
-37.76
-7.08
28.62
61.77
85.82
97.85
99.31
94.58
88.51
84.13
81.94
80.78
79.15
76.36
72.76
69.50
67.43
67.00
67.91
69.01
69.17
67.93
65.95
64.75
65.48
67.27
67.22
61.11
45.75
20.92
-9.97
-41.80
-69.96
-91.92
-107.17
-114.98
-113.11
-98.49
-69.57
-29.70
11.91
42.94
53.17
38.89
5.26
-36.36
-73.05
-94.87
-97.76
-83.24
-56.48
-23.63
9.49
38.65
61.26
76.70
86.19
91.60
94.20
92.92
86.74
72.81
50.76
23.29
-4.30
-26.32
-38.70
-41.56
-38.13
-32.52
-27.50
-23.12
-17.77
-10.06
-0.26
9.59
16.73
19.48
18.32
15.27
13.04
13.68
17.37
22.40
26.49
27.39
24.01
16.90
7.63
-1.74
-9.69
-15.27
-19.26
-22.66
-26.45
-30.91
-35.52
-39.36
-41.45
-41.36
-39.48
-36.77
-34.32
-32.96
-32.88
-33.57
-34.17
-33.87
-32.37
-30.03
-27.99
-26.91
-27.34
-29.17
-31.70
-34.04
-35.34
-35.27
-34.04
-32.35
-31.04
-31.38
-34.60
-41.09
-49.83
-57.66
-59.99
-52.61
-33.61
-4.57
29.82
63.32
90.04
105.56
107.29
94.38
67.76
30.65
-11.58
-52.01
-84.15
-104.20
-112.07
-111.13
-106.30
-101.88
-100.23
-102.43
-108.66
-118.52
-130.48
-141.07
-145.46
-138.21
-116.61
-82.10
-40.59
-0.01
33.02
55.59
69.03
77.24
84.19
91.13
97.98
103.12
105.28
104.58
102.24
99.64
97.32
95.04
92.06
87.58
81.84
75.16
68.61
63.21
59.51
57.31
55.86
54.27
51.88
48.55
44.63
40.87
37.95
36.18
35.35
35.02
34.66
33.80
32.38
30.52
28.56
26.73
25.27
23.63
21.28
17.81
12.82
6.35
-1.28
-9.54
-17.86
-25.80
-32.98
-39.40
-44.06
-47.07
-48.34
-47.87
-45.84
-42.56
-38.51
-34.22
-30.02
-26.01
-22.27
-18.60
-14.80
-10.92
-7.04
-3.54
-0.82
0.83
1.31
0.64
-0.69
-1.97
-2.82
-2.94
-2.82
-2.81
-3.15
-3.75
-4.28
-3.97
-1.75
2.56
8.48
13.88
17.01
16.88
13.54
6.59
-1.38
-5.76
-5.42
-0.52
5.96
11.79
15.98
18.90
22.04
27.25
36.88
51.41
70.16
89.79
108.93
127.68
146.39
164.15
168.76
153.32
116.89
72.13
22.79
-27.97
-77.89
-126.58
-173.51
-217.04
-252.52
-273.89
-268.25
-231.37
-169.86
-100.18
-39.62
1.70
23.36
32.56
37.76
44.25
50.28
52.13
47.15
36.04
22.70
12.54
11.06
19.16
34.58
51.01
62.72
66.11
60.45
45.33
23.80
0.10
-21.45
-36.55
-42.68
-38.78
-26.11
-8.32
9.39
22.36
27.93
26.27
19.98
11.93
4.37
-1.66
-5.72
-7.67
-7.18
-4.43
-0.31
3.85
6.43
6.42
3.80
-0.38
-4.77
-8.20
-10.24
-11.12
-11.40
-11.64
-12.21
-13.20
-14.16
-14.22
-12.22
-7.50
-0.35
7.90
15.30
20.16
21.54
19.83
16.32
12.63
9.83
8.11
6.82
5.32
3.33
1.07
-0.82
-1.97
-2.74
-4.19
-7.60
-13.58
-21.64
-30.32
-37.72
-41.85
-41.16
-34.63
-22.35
-5.87
11.65
25.91
33.03
31.14
21.59
8.44
-3.32
-9.94
-10.42
-6.30
-0.40
4.80
8.18
9.93
10.58
10.51
9.66
7.75
4.88
1.60
-1.15
-2.33
-1.23
2.36
8.05
15.13
22.26
28.27
31.95
31.97
26.90
15.73
-1.40
-22.60
-44.36
-62.47
-73.20
-74.62
-67.10
-52.72
-34.27
-14.17
5.88
24.63
40.68
52.19
57.22
54.69
45.33
31.73
17.43
5.41
-3.11
-8.74
-12.86
-16.31
-18.64
-18.35
-14.04
-5.53
5.66
16.63
23.79
23.63
13.34
-8.42
-40.40
-78.02
-113.52
-137.78
-143.43
-127.70
-93.58
-48.60
-1.80
39.51
71.54
93.87
107.80
114.45
113.92
105.62
89.50
67.05
41.51
16.95
-3.14
-17.08
-25.24
-29.25
-30.77
-30.42
-27.54
-20.85
-9.60
5.61
22.66
38.49
49.99
55.05
52.95
44.70
32.87
20.94
12.24
8.75
10.20
14.16
17.25
16.67
11.55
3.32
-5.24
-11.47
-13.95
-12.91
-9.52
-4.78
0.66
6.56
12.92
19.30
24.80
28.24
28.18
23.77
15.48
4.85
-5.79
-13.51
-16.39
-13.87
-7.34
0.17
4.27
4.33
1.43
-2.58
-5.63
-7.23
-7.82
-9.11
-13.62
-23.53
-39.81
-59.58
-80.66
-101.39
-121.28
-138.49
-149.85
-151.55
-140.71
-117.14
-84.84
-51.71
-21.40
-0.68
9.19
13.90
19.80
27.61
32.47
28.57
14.61
-3.38
-15.70
-13.34
6.03
36.54
67.55
90.41
103.00
108.27
111.70
116.79
123.66
128.98
128.60
119.78
103.32
83.12
64.26
50.99
44.58
43.85
45.76
46.80
42.99
31.47
11.55
-14.67
-42.97
-69.09
-89.78
-103.20
-108.69
-107.41
-101.40
-92.98
-84.78
-80.73
-86.52
-106.97
-142.29
-178.36
-195.35
-180.14
-137.64
-86.43
-45.48
-24.04
-18.42
-16.26
-4.90
19.78
51.60
79.04
93.50
94.19
87.18
80.84
80.15
84.11
86.23
79.33
60.16
32.03
2.89
-19.95
-32.11
-33.68
-28.35
-21.54
-17.68
-18.39
-22.17
-26.27
-28.91
-30.26
-32.05
-36.16
-43.48
-53.27
-63.31
-70.96
-74.35
-73.03
-67.55
-58.62
-46.31
-30.43
-11.23
10.12
31.28
49.20
61.16
65.98
64.40
58.74
51.84
45.90
41.93
39.75
38.54
37.58
36.59
35.72
35.23
35.21
35.44
35.48
34.98
33.86
32.37
31.04
30.32
30.35
30.82
31.11
30.57
28.80
25.91
22.42
19.04
16.40
14.71
13.77
13.15
12.37
11.15
9.49
7.64
5.87
4.39
3.18
2.05
0.80
-0.71
-2.44
-4.27
-6.05
-7.73
-9.45
-11.41
-13.76
-16.53
-19.54
-22.52
-25.24
-27.54
-29.41
-30.95
-32.37
-33.94
-35.93
-38.51
-41.55
-44.47
-46.31
-45.95
-42.51
-35.74
-26.13
-14.78
-3.04
7.85
17.01
23.96
28.58
30.97
31.48
30.60
29.00
27.30
26.02
25.42
25.47
25.96
26.61
27.24
27.79
28.32
28.88
29.46
29.95
30.17
29.96
29.20
27.83
25.85
23.34
20.46
17.39
14.38
11.63
9.28
7.34
5.72
4.28
2.84
1.24
-0.70
-3.09
-5.96
-9.19
-12.49
-15.46
-17.78
-19.31
-20.23
-20.96
-22.04
-23.94
-26.83
-30.62
-34.88
-39.03
-42.36
-44.20
-43.99
-41.53
-36.95
-30.79
-23.80
-16.76
-10.15
-4.08
1.71
7.64
14.04
20.89
27.79
34.11
39.14
42.38
43.67
43.26
41.72
39.80
38.14
37.17
36.97
37.31
37.75
37.78
36.99
35.13
32.19
28.37
23.93
19.21
14.58
10.36
6.82
4.11
2.27
1.14
0.42
-0.27
-1.23
-2.60
-4.29
-6.07
-7.74
-9.21
-10.58
-12.07
-13.91
-16.22
-18.94
-21.87
-24.72
-27.18
-29.01
-30.18
-30.84
-31.34
-32.13
-33.59
-35.89
-38.85
-41.93
-44.30
-45.07
-43.48
-39.17
-32.27
-23.39
-13.50
-3.71
5.04
12.09
17.21
20.55
22.51
23.58
24.22
24.74
25.32
25.95
26.54
26.96
27.10
26.90
26.40
25.71
24.96
24.26
23.68
23.19
22.67
21.98
21.01
19.69
17.99
15.95
13.60
11.04
8.41
5.88
3.59
1.65
0.04
-1.28
-2.40
-3.43
-4.48
-5.66
-7.07
-8.78
-10.71
-12.73
-14.64
-16.35
-17.88
-19.39
-21.09
-23.20
-25.82
-28.92
-32.37
-35.84
-38.87
-40.87
-41.25
-39.65
-36.13
-31.18
-25.62
-20.22
-15.52
-11.64
-8.33
-5.19
-1.87
1.82
5.93
10.40
15.11
19.93
24.69
29.15
33.01
35.99
37.91
38.78
38.74
38.05
36.97
35.66
34.10
32.18
29.76
26.83
23.56
20.23
17.13
14.42
12.10
10.03
8.02
5.95
3.79
1.59
-0.57
-2.64
-4.56
-6.31
-7.91
-9.44
-10.98
-12.67
-14.56
-16.62
-18.73
-20.75
-22.59
-24.25
-25.91
-27.78
-30.03
-32.63
-35.29
-37.41
-38.22
-37.01
-33.38
-27.37
-19.52
-10.77
-2.14
5.46
11.47
15.75
18.47
20.05
20.97
21.61
22.21
22.85
23.43
23.82
23.93
23.74
23.25
22.51
21.58
20.55
19.54
18.65
17.94
17.35
16.76
15.96
14.78
13.16
11.17
9.01
6.86
4.82
2.92
1.07
-0.77
-2.61
-4.39
-6.04
-7.55
-8.98
-10.37
-11.80
-13.24
-14.61
-15.85
-16.94
-17.98
-19.20
-20.84
-23.11
-26.08
-29.62
-33.30
-36.47
-38.33
-38.12
-35.37
-30.06
-22.72
-14.27
-5.80
1.79
7.96
12.60
15.92
18.27
20.00
21.31
22.26
22.88
23.17
23.20
23.05
22.80
22.47
22.04
21.48
20.80
20.09
19.45
18.93
18.50
18.06
17.43
16.49
15.21
13.67
11.96
10.17
8.33
6.43
4.52
2.70
1.17
0.08
-0.52
-0.79
-1.00
-1.46
-2.33
-3.61
-5.16
-6.79
-8.39
-9.89
-11.26
-12.49
-13.56
-14.51
-15.44
-16.54
-17.92
-19.63
-21.49
-23.29
-24.75
-25.78
-26.45
-27.04
-27.92
-29.42
-31.61
-34.15
-36.32
-37.14
-35.73
-31.65
-25.10
-16.86
-8.08
0.11
6.90
11.92
15.21
17.08
17.96
18.26
18.32
18.33
18.40
18.53
18.69
18.89
19.13
19.42
19.74
20.01
20.19
20.20
20.01
19.60
18.94
18.02
16.86
15.54
14.15
12.75
11.32
9.81
8.16
6.36
4.45
2.54
0.69
-1.04
-2.65
-4.13
-5.49
-6.78
-8.05
-9.41
-10.92
-12.59
-14.37
-16.16
-17.88
-19.53
-21.20
-23.08
-25.30
-27.94
-30.87
-33.79
-36.19
-37.52
-37.37
-35.59
-32.38
-28.20
-23.58
-19.02
-14.79
-10.94
-7.31
-3.63
0.32
4.68
9.40
14.30
19.13
23.61
27.52
30.76
33.27
35.03
36.08
36.42
36.11
35.27
34.02
32.48
30.73
28.83
26.76
24.50
22.02
19.33
16.56
13.87
11.42
9.28
7.41
5.68
3.94
2.08
0.11
-1.87
-3.68
-5.16
-6.28
-7.11
-7.90
-8.95
-10.52
-12.69
-15.34
-18.15
-20.75
-22.85
-24.35
-25.41
-26.38
-27.62
-29.40
-31.74
-34.37
-36.70
-37.97
-37.39
-34.47
-29.16
-21.88
-13.46
-4.87
3.03
9.60
14.49
17.69
19.43
20.19
20.53
20.95
21.72
22.82
23.99
24.86
25.15
24.79
23.90
22.77
21.67
20.83
20.36
20.26
20.40
20.55
20.43
19.81
18.58
16.78
14.57
12.23
10.00
8.05
6.47
5.25
4.31
3.53
2.80
2.00
1.09
0.03
-1.14
-2.38
-3.62
-4.84
-6.03
-7.18
-8.32
-9.44
-10.58
-11.75
-13.03
-14.50
-16.22
-18.18
-20.30
-22.40
-24.30
-25.86
-27.08
-28.06
-28.99
-30.07
-31.48
-33.24
-35.12
-36.68
-37.28
-36.29
-33.25
-28.06
-21.05
-12.91
-4.51
3.33
9.96
15.01
18.41
20.37
21.26
21.55
21.66
21.85
22.16
22.51
22.77
22.90
22.90
22.84
22.75
22.59
22.28
21.76
21.03
20.18
19.28
18.35
17.35
16.18
14.78
13.18
11.49
9.86
8.39
7.12
6.00
4.95
3.92
2.91
1.97
1.14
0.42
-0.23
-0.90
-1.65
-2.45
-3.25
-3.99
-4.69
-5.40
-6.23
-7.24
-8.40
-9.66
-10.98
-12.37
-13.88
-15.51
-17.18
-18.75
-20.11
-21.22
-22.23
-23.31
-24.60
-26.15
-27.93
-29.84
-31.80
-33.69
-35.25
-36.05
-35.50
-33.07
-28.46
-21.85
-13.84
-5.36
2.61
9.30
14.31
17.61
19.48
20.29
20.41
20.12
19.57
18.87
18.15
17.55
17.22
17.25
17.62
18.21
18.85
19.42
19.88
20.24
20.49
20.60
20.42
19.80
18.60
16.84
14.63
12.20
9.77
7.49
5.38
3.42
1.57
-0.16
-1.73
-3.05
-4.10
-4.95
-5.77
-6.76
-8.06
-9.69
-11.54
-13.41
-15.13
-16.62
-17.92
-19.17
-20.55
-22.22
-24.26
-26.63
-29.10
-31.25
-32.48
-32.14
-29.74
-25.10
-18.52
-10.65
-2.42
5.28
11.76
16.64
19.87
21.64
22.25
22.06
21.43
20.63
19.87
19.25
18.79
18.42
18.11
17.83
17.65
17.65
17.88
18.29
18.71
18.90
18.66
17.92
16.76
15.31
13.71
11.99
10.15
8.16
6.07
3.99
2.06
0.42
-0.90
-1.95
-2.84
-3.71
-4.70
-5.86
-7.16
-8.49
-9.70
-10.68
-11.49
-12.31
-13.41
-14.98
-16.97
-19.12
-21.07
-22.57
-23.55
-24.23
-24.95
-26.06
-27.78
-30.14
-32.94
-35.75
-37.99
-38.96
-38.03
-34.79
-29.17
-21.56
-12.69
-3.52
4.98
12.06
17.29
20.63
22.36
22.97
22.95
22.72
22.48
22.28
22.11
21.94
21.78
21.68
21.66
21.72
21.80
21.82
21.72
21.48
21.11
20.61
19.96
19.08
17.87
16.25
14.24
11.96
9.63
7.49
5.78
4.55
3.77
3.25
2.76
2.08
1.11
-0.15
-1.58
-3.05
-4.44
-5.70
-6.81
-7.77
-8.58
-9.29
-10.03
-10.98
-12.30
-14.06
-16.17
-18.40
-20.46
-22.11
-23.26
-23.96
-24.46
-25.07
-26.14
-27.89
-30.28
-32.93
-35.13
-36.03
-34.86
-31.26
-25.42
-17.99
-9.85
-1.89
5.21
11.06
15.48
18.49
20.20
20.81
20.63
20.00
19.29
18.79
18.64
18.78
19.08
19.36
19.46
19.35
19.03
18.58
18.05
17.50
16.90
16.20
15.27
13.99
12.29
10.19
7.82
5.38
3.09
1.05
-0.77
-2.56
-4.61
-7.19
-10.39
-14.14
-18.24
-22.42
-26.40
-30.01
-33.13
-35.67
-37.49
-38.40
-38.19
-36.73
-34.08
-30.55
-26.59
-22.68
-19.17
-16.19
-13.65
-11.45
-9.52
-7.80
-6.18
-4.33
-1.78
1.86
6.65
12.27
18.16
23.76
28.77
33.19
37.16
40.79
43.90
46.09
46.90
45.99
43.38
39.38
34.56
29.54
24.84
20.72
17.25
14.33
11.91
10.04
8.88
8.52
8.88
9.67
10.47
10.93
10.91
10.49
9.88
9.32
8.97
8.85
8.95
9.14
9.29
9.24
8.85
8.06
6.89
5.45
3.81
2.00
-0.07
-2.59
-5.72
-9.55
-13.99
-18.81
-23.69
-28.25
-32.20
-35.33
-37.63
-39.20
-40.33
-41.36
-42.58
-44.10
-45.68
-46.76
-46.60
-44.45
-39.93
-33.12
-24.66
-15.54
-6.79
0.69
6.43
10.38
12.78
14.07
14.70
15.07
15.44
16.01
16.82
17.85
18.98
20.04
20.89
21.46
21.80
22.01
22.23
22.49
22.74
22.84
22.62
21.97
20.84
19.29
17.40
15.31
13.20
11.26
9.65
8.42
7.53
6.80
6.07
5.21
4.21
3.21
2.36
1.75
1.37
1.06
0.62
-0.14
-1.27
-2.67
-4.17
-5.57
-6.81
-7.93
-9.11
-10.46
-12.04
-13.79
-15.60
-17.36
-19.02
-20.55
-21.90
-23.04
-24.01
-24.96
-26.12
-27.64
-29.42
-30.95
-31.47
-30.17
-26.61
-20.91
-13.74
-6.08
1.11
7.18
11.89
15.26
17.51
18.83
19.40
19.35
18.83
18.04
17.20
16.55
16.27
16.43
16.92
17.49
17.84
17.72
17.09
16.10
15.02
14.09
13.36
12.65
11.62
9.92
7.40
4.22
0.81
-2.30
-4.65
-6.12
-6.95
-7.62
-8.70
-10.56
-13.20
-16.28
-19.19
-21.38
-22.59
-22.97
-23.04
-23.51
-25.03
-27.96
-32.28
-37.48
-42.58
-46.20
-46.83
-43.30
-35.35
-24.01
-11.37
0.12
8.65
13.83
16.67
19.02
22.43
27.48
33.51
39.15
43.03
44.37
43.13
39.73
34.84
29.24
23.90
19.91
18.31
19.71
24.00
30.36
37.51
44.15
49.22
51.95
51.87
48.81
43.02
35.38
27.29
20.37
15.84
14.03
14.24
15.06
15.08
13.57
10.57
6.74
2.88
-0.36
-2.69
-4.20
-5.22
-6.06
-6.84
-7.55
-8.11
-8.41
-8.29
-7.57
-6.26
-4.61
-3.05
-2.11
-2.16
-3.32
-5.23
-6.89
-6.97
-4.45
0.91
8.45
16.79
24.37
29.81
31.01
26.54
16.30
1.66
-15.49
-33.57
-51.24
-67.01
-79.23
-86.59
-88.40
-85.00
-77.78
-68.87
-60.40
-54.12
-51.11
-51.66
-55.02
-59.13
-61.02
-57.64
-47.27
-30.15
-8.73
13.08
30.95
41.39
42.91
36.41
24.90
12.51
3.26
-0.32
2.11
8.66
16.29
22.26
25.26
25.69
24.95
24.30
24.01
23.40
21.39
17.57
12.64
8.21
6.02
7.08
11.32
17.21
22.64
25.66
25.17
21.40
15.69
9.95
5.70
3.37
2.17
0.68
-2.23
-6.72
-11.79
-15.80
-17.41
-16.31
-13.34
-10.03
-7.61
-6.60
-6.58
-6.65
-6.00
-4.31
-1.83
0.99
3.74
6.30
8.72
11.10
13.36
15.21
16.19
15.88
14.23
11.61
8.76
6.48
5.39
5.64
6.94
8.67
10.13
10.81
10.51
9.34
7.57
5.53
3.18
0.78
-1.38
-3.08
-4.20
-4.85
-5.41
-6.45
-8.54
-11.89
-16.09
-20.10
-22.62
-22.49
-19.21
-13.24
-5.73
1.87
8.36
13.20
16.41
18.35
19.37
19.65
19.13
17.76
15.68
13.25
11.06
9.64
9.31
10.02
11.36
12.73
13.54
13.39
12.24
10.31
7.97
5.51
3.09
0.64
-2.02
-5.13
-8.89
-13.35
-18.30
-23.18
-27.03
-28.67
-26.94
-21.13
-11.26
1.81
16.56
31.14
43.82
53.35
59.17
61.44
60.85
58.41
55.05
51.46
47.97
44.62
41.26
37.57
33.25
27.94
21.44
13.91
6.02
-1.07
-6.04
-7.94
-6.67
-3.14
1.03
4.17
5.19
3.94
1.13
-2.18
-5.08
-7.12
-8.41
-9.39
-10.55
-12.18
-14.28
-16.56
-18.59
-19.99
-20.57
-20.37
-19.60
-18.56
-17.46
-16.43
-15.58
-15.06
-15.12
-15.96
-17.64
-19.94
-22.41
-24.52
-25.97
-26.74
-27.14
-27.58
-28.34
-29.43
-30.53
-31.21
-31.11
-30.14
-28.55
-26.84
-25.55
-25.14
-25.86
-27.71
-30.48
-33.67
-36.48
-37.89
-36.87
-32.74
-25.49
-15.94
-5.50
4.19
11.82
16.81
19.27
19.86
19.36
18.43
17.40
16.36
15.24
13.97
12.55
10.99
9.39
7.76
6.09
4.35
2.58
0.92
-0.35
-0.95
-0.76
0.15
1.53
3.11
4.68
6.19
7.66
9.04
10.19
10.86
10.86
10.17
8.95
7.49
6.08
4.81
3.60
2.25
0.55
-1.55
-3.96
-6.44
-8.69
-10.48
-11.69
-12.34
-12.63
-12.84
-13.23
-13.95
-14.91
-15.75
-15.82
-14.28
-10.25
-3.16
7.05
19.80
33.92
48.03
60.87
71.72
80.48
87.55
93.53
98.92
103.87
108.34
112.23
115.78
119.61
124.42
130.37
136.45
140.15
137.97
126.31
102.62
66.27
18.61
-37.27
-97.19
-156.40
-210.07
-253.73
-283.78
-298.04
-296.17
-279.81
-252.20
-217.63
-180.61
-145.18
-114.32
-89.63
-71.23
-58.11
-48.60
-41.15
-34.84
-29.51
-25.49
-23.18
-22.66
-23.57
-25.20
-26.82
-27.90
-28.34
-28.40
-28.54
-29.24
-30.84
-33.53
-37.25
-41.61
-45.70
-48.02
-46.76
-40.34
-28.15
-11.06
8.66
27.99
44.17
55.52
61.84
64.09
63.66
61.85
59.43
56.76
54.02
51.46
49.35
47.91
47.17
46.87
46.63
46.05
44.95
43.37
41.53
39.68
37.89
36.02
33.76
30.81
27.06
22.66
17.94
13.31
9.04
5.20
1.67
-1.73
-5.13
-8.51
-11.78
-14.77
-17.45
-19.83
-22.17
-24.80
-28.12
-32.26
-36.95
-41.29
-43.87
-43.16
-38.06
-28.45
-15.37
-0.83
12.93
24.10
31.85
36.35
38.41
38.95
38.61
37.70
36.32
34.63
32.93
31.62
30.97
30.93
31.21
31.38
31.11
30.36
29.31
28.27
27.45
26.82
26.14
25.05
23.23
20.54
17.06
13.06
8.97
5.19
2.00
-0.58
-2.75
-4.92
-7.46
-10.54
-14.06
-17.67
-20.95
-23.60
-25.56
-27.04
-28.45
-30.26
-32.92
-36.74
-41.69
-47.18
-52.02
-54.52
-53.03
-46.55
-35.21
-20.41
-4.43
10.34
22.11
30.12
34.63
36.52
36.77
36.15
35.10
33.81
32.44
31.17
30.20
29.71
29.70
30.04
30.50
30.87
31.04
31.04
30.96
30.85
30.68
30.27
29.35
27.67
25.10
21.73
17.81
13.73
9.84
6.40
3.49
1.05
-1.06
-3.02
-5.03
-7.28
-9.89
-12.90
-16.14
-19.34
-22.20
-24.51
-26.32
-27.88
-29.55
-31.72
-34.67
-38.49
-43.03
-47.75
-51.64
-53.34
-51.42
-44.95
-34.00
-19.75
-4.25
10.21
21.84
29.79
34.19
35.78
35.46
33.94
31.71
29.09
26.45
24.16
22.60
21.91
22.04
22.66
23.40
23.94
24.13
24.00
23.63
23.07
22.25
21.03
19.22
16.74
13.71
10.40
7.12
4.15
1.53
-0.86
-3.21
-5.74
-8.48
-11.35
-14.12
-16.59
-18.68
-20.49
-22.29
-24.48
-27.39
-31.13
-35.38
-39.38
-41.98
-41.91
-38.19
-30.55
-19.66
-6.99
5.55
16.21
23.87
28.26
29.88
29.59
28.21
26.28
24.02
21.52
18.89
16.37
14.28
12.92
12.43
12.74
13.59
14.64
15.52
15.93
15.69
14.78
13.31
11.42
9.25
6.83
4.12
1.08
-2.26
-5.77
-9.26
-12.59
-15.69
-18.51
-21.05
-23.26
-25.15
-26.82
-28.56
-30.76
-33.76
-37.61
-41.85
-45.46
-47.01
-45.16
-39.10
-28.97
-15.96
-2.00
10.81
20.82
27.31
30.54
31.45
31.14
30.47
29.78
29.09
28.26
27.27
26.27
25.49
25.09
25.02
25.07
25.00
24.66
24.06
23.33
22.53
21.64
20.48
18.87
16.73
14.11
11.19
8.16
5.14
2.13
-0.97
-4.28
-7.80
-11.39
-14.83
-17.85
-20.29
-22.18
-23.74
-25.37
-27.54
-30.63
-34.65
-39.16
-43.17
-45.35
-44.43
-39.59
-30.88
-19.30
-6.45
5.84
16.10
23.52
28.05
30.17
30.64
30.16
29.24
28.14
27.00
25.89
24.93
24.29
24.03
24.14
24.44
24.70
24.76
24.56
24.17
23.70
23.17
22.46
21.36
19.60
17.01
13.62
9.63
5.49
1.70
-1.34
-3.49
-4.95
-6.24
-7.94
-10.39
-13.55
-16.99
-20.11
-22.46
-23.99
-25.04
-26.22
-28.13
-31.10
-35.13
-39.74
-44.03
-46.84
-46.95
-43.42
-36.01
-25.26
-12.58
0.22
11.38
19.67
24.70
26.80
26.77
25.44
23.50
21.37
19.34
17.62
16.38
15.72
15.64
15.97
16.50
17.02
17.43
17.71
17.86
17.82
17.43
16.49
14.84
12.48
9.57
6.37
3.14
0.04
-2.87
-5.61
-8.21
-10.61
-12.73
-14.48
-15.87
-17.03
-18.19
-19.62
-21.52
-24.02
-27.14
-30.79
-34.63
-37.98
-39.86
-39.17
-35.11
-27.58
-17.33
-5.85
5.15
14.24
20.68
24.48
26.17
26.42
25.81
24.63
23.03
21.15
19.20
17.49
16.35
15.95
16.26
17.00
17.80
18.37
18.57
18.40
17.86
16.89
15.31
12.95
9.84
6.26
2.68
-0.45
-2.92
-4.88
-6.72
-8.85
-11.46
-14.41
-17.38
-20.01
-22.11
-23.68
-24.91
-26.10
-27.60
-29.77
-32.90
-36.98
-41.53
-45.48
-47.35
-45.66
-39.56
-29.24
-16.06
-2.12
10.43
20.13
26.48
29.96
31.50
32.02
32.07
31.82
31.25
30.35
29.26
28.23
27.48
27.05
26.85
26.68
26.38
25.88
25.21
24.40
23.50
22.46
21.21
19.64
17.67
15.23
12.35
9.18
5.97
3.04
0.63
-1.17
-2.50
-3.69
-5.11
-7.03
-9.47
-12.22
-14.93
-17.30
-19.17
-20.59
-21.77
-22.93
-24.31
-26.10
-28.51
-31.76
-35.91
-40.57
-44.78
-47.07
-45.90
-40.22
-30.09
-16.75
-2.36
10.72
20.76
27.16
30.51
32.12
33.35
35.08
37.38
39.78
41.63
42.63
43.04
43.62
45.27
48.54
53.41
59.20
64.86
69.41
72.30
73.73
74.56
76.00
79.07
84.17
90.77
97.60
103.20
106.54
107.60
107.42
107.74
110.28
116.10
125.29
136.79
148.56
157.74
161.17
155.93
140.10
113.45
77.40
34.54
-12.51
-62.14
-114.44
-170.42
-230.47
-292.39
-350.38
-395.77
-419.43
-415.10
-382.07
-326.00
-257.31
-188.00
-128.02
-82.94
-53.55
-37.31
-30.47
-29.81
-33.31
-39.73
-47.89
-56.16
-62.61
-65.66
-64.82
-61.03
-56.25
-52.55
-50.99
-51.23
-51.62
-50.07
-45.06
-36.38
-25.19
-13.45
-3.05
5.01
10.85
15.58
20.55
26.69
34.06
41.83
48.74
53.59
55.78
55.48
53.43
50.57
47.54
44.52
41.19
36.92
31.11
23.44
13.95
3.05
-8.56
-20.07
-30.69
-39.84
-47.29
-53.22
-58.20
-62.84
-67.33
-71.04
-72.59
-70.21
-62.63
-49.74
-32.84
-14.21
3.66
18.89
30.61
38.78
43.75
45.99
45.82
43.62
39.81
34.96
29.57
24.08
18.85
14.35
11.20
10.13
11.72
16.19
23.28
32.29
42.33
52.43
61.75
69.53
75.18
78.36
79.07
77.71
75.03
71.93
69.22
67.41
66.62
66.59
66.89
67.02
66.54
65.07
62.09
57.02
49.21
38.16
23.69
6.07
-14.05
-35.68
-57.58
-78.30
-96.15
-109.35
-116.31
-116.00
-108.33
-94.25
-75.67
-55.05
-34.84
-17.01
-2.67
7.91
15.14
19.66
21.95
22.10
19.85
14.89
7.24
-2.51
-13.34
-24.03
-33.70
-42.04
-49.31
-55.92
-61.95
-66.54
-67.70
-62.87
-50.01
-29.10
-3.06
22.60
41.36
48.24
41.81
24.88
3.20
-17.00
-31.34
-38.44
-39.43
-36.36
-30.89
-23.63
-14.78
-4.91
4.49
11.36
14.00
11.96
6.26
-1.02
-7.70
-12.46
-15.16
-16.53
-17.51
-18.43
-18.66
-16.77
-11.22
-1.15
13.01
29.51
45.74
59.16
68.12
72.26
72.43
70.12
66.78
63.33
60.13
57.15
54.36
51.93
50.17
49.36
49.53
50.39
51.43
52.15
52.19
51.51
50.22
48.57
46.71
44.75
42.63
40.27
37.63
34.75
31.83
29.15
26.96
25.37
24.25
23.30
22.15
20.53
18.32
15.64
12.67
9.64
6.69
3.88
1.16
-1.63
-4.69
-8.33
-12.88
-18.63
-25.52
-33.00
-39.86
-44.41
-45.02
-40.63
-31.36
-18.50
-4.22
9.15
19.86
27.14
31.22
32.93
33.23
32.86
32.23
31.48
30.68
29.91
29.26
28.79
28.47
28.18
27.71
26.94
25.83
24.54
23.32
22.39
21.84
21.53
21.14
20.26
18.62
16.19
13.22
10.16
7.45
5.37
3.89
2.77
1.65
0.26
-1.51
-3.55
-5.64
-7.59
-9.29
-10.81
-12.32
-14.05
-16.16
-18.73
-21.71
-24.94
-28.19
-31.22
-33.86
-36.01
-37.73
-39.29
-41.15
-43.82
-47.60
-52.28
-56.97
-60.14
-60.11
-55.64
-46.50
-33.69
-19.14
-5.06
6.73
15.28
20.57
23.18
23.92
23.49
22.38
20.94
19.51
18.42
17.92
18.07
18.71
19.51
20.14
20.38
20.27
19.95
19.64
19.46
19.37
19.20
18.69
17.63
15.86
13.36
10.21
6.70
3.22
0.17
-2.18
-3.88
-5.28
-6.90
-9.22
-12.38
-16.16
-20.05
-23.49
-26.09
-27.80
-28.87
-29.81
-31.18
-33.53
-37.16
-41.92
-47.10
-51.36
-53.07
-50.81
-43.92
-32.87
-19.17
-4.93
7.82
17.71
24.26
27.78
29.04
28.87
27.93
26.65
25.25
23.89
22.64
21.60
20.81
20.28
19.94
19.68
19.44
19.22
19.09
19.11
19.28
19.42
19.17
18.19
16.35
13.78
10.89
8.15
5.83
3.93
2.24
0.44
-1.62
-3.88
-6.13
-8.13
-9.72
-10.94
-11.99
-13.18
-14.80
-17.02
-19.82
-22.95
-26.03
-28.70
-30.81
-32.48
-34.08
-36.08
-38.90
-42.70
-47.20
-51.65
-54.91
-55.64
-52.67
-45.44
-34.30
-20.55
-6.16
6.79
16.79
23.15
26.15
26.66
25.71
24.16
22.51
20.98
19.68
18.70
18.12
18.00
18.27
18.74
19.18
19.42
19.43
19.37
19.41
19.66
20.00
20.12
19.62
18.20
15.86
12.89
9.82
7.15
5.17
3.84
2.88
1.87
0.45
-1.51
-3.92
-6.49
-8.85
-10.75
-12.14
-13.25
-14.46
-16.14
-18.47
-21.37
-24.53
-27.58
-30.20
-32.28
-33.87
-35.24
-36.79
-39.04
-42.38
-46.86
-51.89
-56.19
-57.98
-55.67
-48.45
-36.73
-22.16
-7.06
6.33
16.53
23.07
26.36
27.29
26.73
25.33
23.50
21.52
19.67
18.21
17.33
17.06
17.27
17.75
18.31
18.92
19.56
20.29
21.04
21.68
21.95
21.64
20.58
18.68
15.97
12.60
8.86
5.14
1.84
-0.79
-2.76
-4.37
-6.05
-8.22
-11.04
-14.36
-17.78
-20.84
-23.19
-24.79
-25.89
-26.97
-28.57
-31.16
-34.94
-39.84
-45.30
-50.35
-53.64
-53.74
-49.61
-40.92
-28.43
-13.78
0.90
13.61
23.07
28.88
31.48
31.75
30.67
29.01
27.24
25.58
24.08
22.78
21.76
21.18
21.14
21.67
22.57
23.47
23.99
23.91
23.19
22.02
20.68
19.37
18.16
17.00
15.79
14.35
12.55
10.27
7.54
4.58
1.77
-0.38
-1.50
-1.49
-0.65
0.32
0.61
-0.43
-2.74
-5.22
-5.72
-1.64
9.15
27.28
51.34
78.17
103.69
124.06
136.60
140.21
135.41
124.11
109.24
94.23
82.30
75.55
74.37
77.36
82.05
86.03
87.97
87.98
87.18
86.96
88.15
90.92
94.97
99.99
105.81
112.26
118.79
124.25
127.10
125.92
120.14
110.29
97.57
83.09
66.98
48.23
25.24
-2.96
-35.74
-70.63
-104.21
-133.56
-157.51
-176.96
-194.27
-212.03
-231.99
-254.73
-279.85
-306.26
-332.17
-354.88
-370.82
-376.28
-368.80
-348.52
-318.72
-284.92
-252.83
-226.27
-205.89
-189.48
-173.48
-154.98
-132.96
-108.57
-84.27
-62.67
-45.53
-33.27
-25.01
-18.88
-12.53
-3.74
8.99
26.10
46.74
69.00
90.53
109.10
123.23
132.33
136.59
136.79
133.97
129.34
124.12
119.40
115.94
113.98
113.34
113.53
114.06
114.46
114.66
114.89
115.49
116.55
117.85
119.07
119.89
120.24
120.10
119.67
119.31
119.14
119.00
118.44
117.06
114.76
111.80
108.22
104.36
100.85
98.36
97.40
98.24
100.98
105.59
111.75
117.50
121.46
123.47
124.26
124.51
124.28
122.89
119.06
111.15
94.85
67.79
30.56
-14.44
-64.95
-119.50
-176.70
-234.38
-289.28
-342.00
-391.18
-433.34
-465.19
-486.32
-499.03
-505.98
-508.07
-503.72
-495.25
-481.80
-459.67
-425.82
-381.93
-334.52
-291.98
-261.45
-210.61
-129.14
-30.51
61.35
132.83
183.37
217.80
241.44
258.67
272.63
279.61
277.85
269.32
258.16
247.47
238.25
231.02
226.62
225.83
224.58
220.39
213.74
206.95
201.74
198.09
195.34
193.73
193.24
190.71
184.07
173.40
160.37
146.82
133.37
120.91
110.61
103.37
98.29
94.61
92.23
91.65
93.51
97.06
101.85
107.38
112.62
115.49
113.57
104.31
84.67
59.70
31.34
1.44
-28.31
-56.93
-84.20
-110.51
-136.62
-163.41
-191.42
-221.77
-253.91
-285.41
-312.13
-329.15
-332.39
-320.32
-294.63
-259.63
-221.49
-185.26
-153.85
-128.14
-107.76
-92.02
-80.46
-72.58
-67.40
-63.95
-60.79
-56.62
-50.90
-43.96
-36.91
-31.18
-27.91
-27.50
-29.69
-33.29
-36.78
-38.88
-39.19
-38.41
-37.98
-39.35
-43.17
-48.91
-54.66
-57.70
-55.49
-46.58
-31.21
-11.25
10.39
30.76
47.66
60.24
68.74
74.05
77.05
78.36
78.23
76.85
74.60
72.00
69.66
68.04
67.26
67.17
67.55
68.20
69.06
70.11
71.16
71.68
70.92
68.14
62.99
55.78
47.40
39.00
31.54
25.35
20.11
15.21
9.99
4.07
-2.64
-10.02
-17.94
-26.27
-34.71
-42.84
-50.01
-55.70
-59.78
-62.73
-65.46
-68.96
-73.84
-79.88
-85.91
-90.00
-90.01
-84.21
-71.88
-53.68
-31.59
-8.36
13.19
30.92
43.96
52.62
58.13
62.00
65.45
69.21
73.38
77.60
81.21
83.53
83.98
82.32
78.90
74.61
70.71
68.41
68.33
70.18
72.90
75.09
75.68
74.36
71.62
68.50
65.91
64.19
63.04
61.70
59.45
55.95
51.42
46.36
41.30
36.52
31.99
27.49
22.76
17.67
12.22
6.54
0.81
-4.82
-10.24
-15.45
-20.58
-25.81
-31.31
-37.20
-43.51
-50.26
-57.39
-64.67
-71.46
-76.72
-79.09
-77.27
-70.55
-59.24
-44.55
-28.31
-12.47
1.50
12.88
21.61
28.15
33.13
37.15
40.59
43.66
46.40
48.74
50.62
51.98
52.77
52.96
52.53
51.56
50.18
48.62
47.12
45.87
44.89
44.04
43.08
41.72
39.71
36.90
33.31
29.16
24.73
20.34
16.19
12.40
8.89
5.55
2.17
-1.42
-5.40
-9.86
-14.83
-20.11
-25.38
-30.29
-34.50
-37.95
-40.83
-43.61
-46.90
-51.14
-56.28
-61.62
-65.86
-67.38
-64.99
-58.29
-47.98
-35.60
-22.88
-11.20
-1.28
6.72
12.96
17.53
20.47
21.87
22.06
21.61
21.10
20.86
20.90
21.01
20.98
20.75
20.52
20.51
20.87
21.54
22.30
22.88
22.94
22.27
20.78
18.51
15.55
12.06
8.17
4.06
-0.14
-4.25
-8.11
-11.64
-14.87
-18.00
-21.30
-25.01
-29.21
-33.73
-38.20
-42.19
-45.47
-48.18
-50.84
-54.15
-58.63
-64.22
-70.08
-74.73
-76.47
-74.01
-66.89
-55.58
-41.37
-25.87
-10.65
3.09
14.62
23.77
30.81
36.35
41.08
45.46
49.61
53.24
55.84
56.96
56.45
54.61
52.04
49.51
47.58
46.43
45.78
45.08
43.78
41.64
38.80
35.68
32.60
29.55
26.20
22.14
17.24
11.92
6.99
3.19
0.73
-0.86
-2.59
-5.38
-9.63
-15.03
-20.71
-25.83
-29.96
-33.21
-36.07
-39.09
-42.63
-46.83
-51.68
-57.09
-62.82
-68.22
-72.27
-73.63
-71.13
-64.17
-53.10
-39.16
-24.06
-9.45
3.57
14.51
23.39
30.38
35.61
39.15
41.07
41.59
41.06
39.94
38.63
37.41
36.46
35.94
35.92
36.38
37.13
37.83
38.20
37.94
36.83
34.78
32.03
28.98
26.00
23.24
20.52
17.54
13.99
9.66
4.66
-0.36
-4.77
-8.36
-11.47
-14.80
-18.67
-22.94
-27.29
-31.37
-34.44
-36.23
-37.32
-38.80
-41.87
-46.36
-51.73
-57.69
-64.20
-69.80
-72.87
-72.40
-68.15
-61.06
-50.70
-37.46
-22.96
-9.37
3.55
16.73
30.35
43.51
53.77
61.67
67.71
72.12
75.88
83.82
101.37
131.51
173.50
222.31
275.49
330.59
385.48
418.56
413.77
371.61
305.90
242.29
177.02
107.35
33.34
-44.37
-121.18
-190.83
-249.49
-296.62
-332.80
-358.43
-367.93
-355.90
-320.66
-265.89
-198.65
-129.75
-71.47
-33.74
-21.37
-29.17
-47.83
-67.69
-82.05
-87.62
-86.00
-81.40
-77.66
-76.91
-77.14
-77.15
-76.96
-77.50
-79.17
-82.36
-86.09
-87.59
-83.61
-70.70
-49.38
-22.57
5.82
32.13
52.07
62.61
63.08
54.72
40.38
20.93
-2.28
-26.30
-36.88
-23.58
12.19
57.44
92.28
113.02
118.07
107.08
82.62
48.84
10.74
-24.81
-49.17
-54.14
-35.01
4.14
52.53
96.16
122.12
121.68
93.70
44.44
-15.94
-77.76
-136.36
-190.03
-237.16
-274.84
-299.89
-310.36
-307.27
-295.08
-279.85
-267.38
-259.38
-252.70
-241.67
-221.84
-192.33
-155.75
-116.34
-77.41
-40.62
-5.71
28.02
60.08
88.02
108.33
118.04
116.40
105.49
89.49
73.48
61.95
57.50
60.36
68.74
79.77
90.69
99.71
106.39
111.36
115.65
119.98
124.43
128.48
131.50
133.17
133.57
133.00
131.74
129.75
126.74
122.37
116.57
109.61
102.18
95.07
88.95
84.01
79.92
75.95
71.21
64.95
56.87
47.14
36.41
25.63
15.85
7.92
2.28
-1.23
-3.31
-5.02
-7.37
-10.89
-15.45
-20.37
-24.77
-28.05
-30.21
-31.84
-33.93
-37.48
-43.13
-50.80
-59.51
-67.47
-72.43
-72.28
-65.78
-53.04
-35.53
-15.72
3.74
20.74
34.23
44.18
51.17
55.95
59.10
60.99
61.91
62.14
62.02
61.83
61.78
61.99
62.54
63.52
64.97
66.74
68.48
69.68
69.83
68.65
66.19
62.69
58.44
53.57
48.14
42.20
35.94
29.69
23.85
18.64
14.02
9.69
5.22
0.20
-5.54
-11.86
-18.32
-24.33
-29.42
-33.48
-36.82
-40.13
-44.15
-49.45
-56.21
-64.23
-72.86
-81.05
-87.40
-90.14
-87.64
-78.86
-63.93
-44.30
-22.49
-1.35
16.82
30.71
40.26
46.29
49.94
52.24
53.80
54.82
55.30
55.27
54.90
54.49
54.34
54.52
54.91
55.14
54.88
53.96
52.45
50.60
48.71
46.86
44.93
42.67
39.80
36.24
32.14
27.81
23.55
19.47
15.43
11.16
6.51
1.50
-3.58
-8.36
-12.66
-16.57
-20.40
-24.53
-29.12
-34.05
-38.96
-43.41
-47.18
-50.30
-53.19
-56.49
-60.95
-67.07
-74.77
-83.10
-90.26
-93.97
-92.21
-83.95
-69.71
-51.40
-31.73
-13.31
2.08
13.76
21.98
27.40
30.72
32.45
33.03
32.91
32.63
32.60
33.08
34.05
35.32
36.68
38.06
39.49
41.00
42.52
43.86
44.68
44.63
43.44
40.95
37.22
32.48
27.06
21.32
15.61
10.20
5.30
1.02
-2.63
-5.78
-8.70
-11.74
-15.20
-19.16
-23.40
-27.47
-30.90
-33.47
-35.38
-37.19
-39.63
-43.36
-48.74
-55.63
-63.26
-70.21
-74.66
-74.81
-69.48
-58.61
-43.34
-25.77
-8.32
6.94
18.78
26.88
31.62
33.73
34.01
33.15
31.75
30.34
29.35
29.08
29.61
30.82
32.47
34.23
35.81
37.08
37.97
38.46
38.50
37.96
36.80
35.01
32.69
29.90
26.64
22.78
18.22
13.02
7.50
2.19
-2.43
-6.11
-9.02
-11.71
-14.82
-18.78
-23.55
-28.63
-33.31
-37.02
-39.61
-41.43
-43.24
-45.88
-49.95
-55.66
-62.70
-70.22
-76.91
-81.17
-81.36
-76.26
-65.56
-50.15
-32.01
-13.71
2.37
14.70
22.85
27.41
29.46
30.13
30.23
30.19
30.27
30.63
31.39
32.55
33.91
35.15
36.00
36.45
36.69
37.06
37.67
38.33
38.53
37.74
35.73
32.62
28.83
24.83
20.90
17.09
13.32
9.57
5.96
2.68
-0.14
-2.55
-4.78
-7.18
-10.05
-13.55
-17.65
-22.10
-26.58
-30.82
-34.65
-38.11
-41.35
-44.60
-48.07
-51.96
-56.55
-61.98
-68.09
-74.11
-78.61
-79.81
-76.20
-67.23
-53.62
-37.22
-20.37
-5.14
7.21
16.32
22.48
26.28
28.34
29.30
29.76
30.35
31.54
33.51
36.09
38.88
41.35
43.00
43.62
43.19
41.95
40.23
38.39
36.72
35.30
34.07
32.75
30.97
28.29
24.50
19.64
14.10
8.49
3.34
-1.08
-4.89
-8.44
-12.15
-16.22
-20.59
-25.05
-29.32
-33.24
-36.74
-39.88
-42.84
-46.00
-49.89
-55.11
-61.99
-70.21
-78.58
-85.21
-88.01
-85.47
-77.27
-64.55
-49.43
-34.35
-21.15
-10.55
-2.21
4.85
11.59
18.53
25.59
32.33
38.12
42.41
44.76
44.97
43.22
40.23
37.28
35.94
37.59
42.90
51.50
62.06
72.61
81.15
86.20
87.04
83.82
77.30
68.60
58.77
48.68
38.74
29.05
19.40
9.54
-0.65
-11.01
-21.10
-30.34
-38.21
-44.52
-49.49
-53.72
-58.02
-63.11
-69.33
-76.36
-83.20
-88.27
-89.77
-86.23
-77.09
-62.95
-45.62
-27.57
-11.31
1.37
9.78
14.29
15.99
16.09
15.56
14.87
14.05
12.93
11.45
9.82
8.53
8.16
9.13
11.36
14.25
16.83
18.04
17.16
14.03
9.10
3.22
-2.67
-7.81
-11.86
-14.91
-17.40
-20.00
-23.39
-28.05
-33.91
-40.12
-44.77
-45.18
-38.54
-23.03
1.17
31.26
62.14
87.62
101.96
101.46
85.23
55.25
15.59
-28.55
-71.82
-109.32
-136.85
-151.09
-149.87
-132.76
-101.68
-61.19
-17.92
20.91
49.33
64.41
66.89
60.47
50.21
40.65
34.67
33.26
36.21
42.82
52.45
64.43
77.92
91.79
104.76
115.79
124.34
130.48
134.58
137.07
138.11
137.59
135.17
130.52
123.38
113.69
101.55
87.24
71.12
53.62
35.13
15.99
-3.45
-22.78
-41.46
-58.80
-74.15
-87.11
-97.80
-107.00
-115.98
-125.85
-136.76
-147.25
-154.20
-153.62
-142.08
-118.26
-83.60
-41.99
1.74
43.49
81.16
114.72
145.23
173.54
199.34
221.09
236.90
245.56
247.16
243.07
235.15
224.94
213.16
199.75
184.37
166.90
147.59
127.08
106.29
86.35
68.49
53.61
41.65
30.96
18.31
-0.18
-27.31
-63.25
-104.91
-146.86
-183.35
-210.44
-227.15
-235.22
-237.58
-236.79
-234.05
-229.32
-222.19
-212.81
-202.40
-192.90
-186.24
-183.61
-184.95
-189.11
-194.08
-197.44
-196.66
-189.54
-174.61
-151.65
-121.98
-88.36
-54.31
-23.30
2.09
20.54
31.92
36.87
36.46
31.97
24.82
16.62
9.00
3.31
0.30
-0.10
1.40
3.73
5.95
7.55
8.48
8.99
9.25
9.09
8.00
5.37
0.83
-5.42
-12.61
-19.73
-25.91
-30.76
-34.51
-37.82
-41.42
-45.80
-51.03
-56.71
-62.09
-66.26
-68.53
-68.71
-67.35
-65.73
-65.41
-67.55
-72.05
-77.22
-80.06
-77.27
-66.49
-47.36
-21.74
6.92
34.73
58.55
76.64
88.75
95.64
98.50
98.51
96.59
93.49
89.89
86.44
83.74
82.23
82.02
82.87
84.22
85.39
85.82
85.25
83.78
81.70
79.35
76.88
74.10
70.60
65.82
59.46
51.56
42.69
33.78
25.85
19.60
15.18
12.02
9.07
5.22
-0.29
-7.52
-15.87
-24.34
-31.89
-37.88
-42.24
-45.56
-48.93
-53.75
-61.21
-71.84
-84.88
-98.04
-107.74
-110.07
-102.18
-83.53
-56.33
-24.95
5.63
31.45
50.56
63.06
70.26
73.63
74.17
72.41
68.72
63.79
58.55
53.98
50.64
48.52
47.19
46.17
45.18
44.27
43.64
43.48
43.76
44.18
44.29
43.56
41.53
37.86
32.49
25.78
18.68
12.72
9.58
10.45
15.47
23.49
32.41
40.06
44.97
46.82
46.31
44.42
41.71
37.91
32.13
23.45
11.58
-2.76
-17.97
-32.11
-43.57
-51.47
-55.91
-57.74
-58.29
-58.94
-60.79
-64.36
-69.14
-73.50
-74.83
-70.19
-57.33
-35.66
-6.73
25.99
58.09
85.54
105.82
118.64
125.63
129.52
132.76
136.40
139.65
140.44
136.39
125.82
108.27
84.33
55.20
22.48
-11.64
-44.27
-71.99
-91.83
-102.44
-104.93
-102.54
-99.26
-98.14
-100.07
-103.92
-107.61
-109.49
-109.23
-107.69
-106.15
-105.48
-105.62
-105.81
-105.21
-103.46
-100.81
-97.84
-94.87
-91.70
-87.52
-81.46
-73.20
-63.35
-53.37
-45.23
-40.78
-41.29
-47.25
-58.18
-72.43
-87.05
-98.01
-100.98
-92.61
-71.76
-40.14
-2.04
37.00
71.74
98.64
116.34
125.47
127.81
125.49
120.34
113.66
106.20
98.30
90.09
81.61
73.02
64.64
56.92
50.38
45.50
42.55
41.46
41.71
42.34
42.17
40.14
35.66
28.79
20.20
10.81
1.48
-7.33
-15.50
-23.07
-30.14
-36.58
-42.14
-46.53
-49.63
-51.60
-52.92
-54.20
-55.91
-58.20
-60.73
-62.89
-64.11
-64.14
-63.34
-62.60
-63.02
-65.63
-70.98
-78.78
-87.74
-95.53
-99.12
-95.46
-82.50
-60.03
-30.07
3.53
36.16
63.75
83.83
95.97
101.45
102.43
101.16
99.34
98.02
97.75
98.88
101.62
106.05
111.90
118.44
124.49
128.84
130.65
129.73
126.61
122.19
117.28
112.20
106.68
100.06
91.83
82.10
71.88
62.75
56.27
53.09
52.63
53.29
53.18
50.74
45.04
35.59
21.99
4.03
-17.98
-42.61
-67.23
-88.75
-104.86
-115.18
-121.43
-126.54
-133.16
-142.40
-153.49
-164.42
-173.19
-178.60
-180.70
-180.41
-179.12
-178.14
-178.52
-180.93
-185.55
-191.62
-196.94
-198.03
-190.84
-172.33
-141.82
-101.84
-57.42
-14.47
22.30
50.74
71.32
86.10
97.19
105.82
112.15
115.87
116.91
115.88
113.79
111.62
109.81
108.28
106.58
104.36
101.55
98.46
95.47
92.86
90.54
88.10
84.93
80.49
74.52
67.13
58.65
49.48
39.96
30.29
20.63
11.27
2.52
-5.30
-12.14
-18.29
-24.34
-30.80
-37.85
-45.21
-52.23
-58.41
-63.65
-68.43
-73.57
-79.93
-88.15
-98.48
-110.60
-123.44
-134.87
-141.63
-139.92
-126.54
-100.37
-63.32
-20.22
22.56
59.06
85.54
101.12
107.43
107.28
103.46
97.95
91.85
85.79
80.29
75.89
73.09
72.14
72.84
74.63
76.72
78.34
79.03
78.71
77.65
76.17
74.27
71.49
66.96
59.89
50.00
37.86
24.89
12.82
3.08
-3.82
-8.48
-12.32
-16.91
-23.35
-31.80
-41.44
-50.90
-58.80
-64.26
-67.16
-68.06
-67.93
-67.85
-68.77
-71.30
-75.46
-80.32
-83.79
-82.82
-74.26
-56.20
-29.10
3.72
36.96
64.97
83.73
91.99
91.28
84.80
75.80
66.50
57.81
49.88
42.78
36.99
33.23
32.01
33.13
35.68
38.44
40.46
41.35
41.34
40.84
40.07
38.88
36.95
34.15
30.89
27.88
25.94
25.42
26.06
26.97
26.82
24.26
18.35
8.94
-3.12
-16.14
-28.14
-37.57
-43.95
-48.00
-51.31
-55.47
-61.43
-69.09
-77.49
-85.27
-91.30
-94.95
-96.28
-96.04
-95.47
-96.09
-99.11
-104.82
-112.08
-118.23
-119.65
-112.97
-96.42
-70.75
-39.36
-7.25
20.53
40.51
51.69
55.44
54.43
51.36
47.98
44.84
41.72
38.28
34.61
31.22
28.74
27.49
27.25
27.32
26.94
25.64
23.41
20.61
17.59
14.45
10.93
6.60
1.23
-4.93
-11.18
-16.60
-20.60
-23.20
-25.09
-27.31
-30.70
-35.48
-41.16
-46.77
-51.33
-54.34
-56.02
-57.20
-59.02
-62.36
-67.47
-73.75
-79.95
-84.58
-86.49
-85.32
-81.72
-77.36
-74.41
-74.81
-79.21
-86.21
-92.12
-91.71
-79.82
-53.28
-12.34
39.02
94.15
145.75
187.95
217.63
234.56
240.67
238.86
231.94
222.09
210.56
197.84
183.76
168.02
150.58
132.12
113.99
97.88
85.20
76.40
70.75
66.73
62.76
57.89
52.15
46.14
40.35
34.48
27.39
17.49
3.60
-14.57
-36.35
-60.51
-85.55
-110.02
-132.39
-151.10
-164.87
-173.25
-177.05
-178.23
-179.20
-181.65
-185.77
-190.25
-193.20
-193.40
-191.22
-188.59
-188.17
-191.86
-199.72
-209.45
-216.75
-216.40
-203.82
-176.53
-135.26
-84.05
-29.30
21.95
64.01
93.95
111.85
120.04
121.76
119.94
116.63
113.20
110.66
110.02
112.11
117.03
123.86
130.60
134.81
134.48
128.79
118.41
105.13
91.15
78.33
67.73
59.59
53.62
49.31
46.20
43.85
41.79
39.50
36.51
32.48
27.31
21.02
13.70
5.47
-3.54
-13.03
-22.45
-31.16
-38.61
-44.66
-49.70
-54.54
-60.10
-67.07
-75.62
-85.28
-95.11
-104.01
-111.15
-116.32
-120.16
-124.06
-129.81
-138.91
-151.66
-166.50
-179.79
-186.48
-181.43
-161.20
-125.41
-77.25
-22.72
31.03
77.64
113.09
136.23
148.41
152.39
151.25
147.48
142.75
137.96
133.54
129.84
127.16
125.76
125.69
126.67
128.09
129.20
129.38
128.30
125.96
122.55
118.15
112.60
105.48
96.31
84.92
71.76
57.91
44.95
34.35
27.08
23.29
22.36
23.14
24.41
25.24
25.16
24.14
22.41
20.19
17.56
14.30
9.96
3.99
-4.06
-14.22
-25.92
-38.01
-49.13
-58.23
-65.08
-70.37
-75.57
-82.30
-91.61
-103.45
-116.32
-127.43
-133.21
-130.24
-116.42
-92.01
-60.02
-25.74
4.68
26.16
36.26
35.76
28.06
17.53
7.91
1.23
-2.14
-2.73
-1.00
3.14
10.20
20.41
33.13
46.74
59.13
68.67
74.83
78.36
80.72
83.35
86.96
91.49
96.39
101.12
105.24
108.19
108.99
106.15
98.12
84.11
64.65
41.79
18.54
-2.03
-17.69
-27.55
-31.95
-32.12
-29.70
-26.22
-22.86
-20.32
-18.93
-18.61
-18.81
-18.40
-15.85
-9.79
0.09
12.22
23.22
28.96
26.28
14.46
-4.30
-25.88
-46.05
-61.98
-72.96
-79.82
-83.88
-85.89
-85.92
-83.67
-79.14
-72.89
-65.92
-59.35
-53.95
-49.97
-47.12
-44.79
-42.29
-39.21
-35.43
-31.18
-26.80
-22.55
-18.53
-14.69
-11.03
-7.63
-4.74
-2.55
-1.18
-0.48
-0.16
0.14
0.68
1.52
2.53
3.46
4.02
4.03
3.43
2.35
1.05
-0.17
-1.20
-2.14
-3.39
-5.47
-8.70
-12.93
-17.48
-21.40
-23.97
-25.16
-25.78
-27.10
-30.27
-35.63
-42.49
-49.40
-54.87
-58.03
-59.04
-59.04
-59.63
-62.34
-68.08
-76.87
-87.60
-97.90
-104.11
-102.04
-88.20
-61.38
-23.69
19.52
61.11
94.53
115.88
124.94
124.50
118.72
111.17
103.81
97.00
90.34
83.66
77.38
72.40
69.34
68.17
68.11
67.97
66.71
63.87
59.60
54.37
48.57
42.32
35.50
28.00
19.88
11.49
3.26
-4.37
-11.12
-16.90
-21.74
-25.72
-28.93
-31.45
-33.42
-34.99
-36.45
-38.12
-40.37
-43.40
-47.12
-51.12
-54.80
-57.63
-59.36
-60.20
-60.81
-62.06
-64.94
-70.19
-78.00
-87.32
-95.64
-99.11
-93.61
-76.39
-47.55
-10.60
28.39
62.87
88.01
102.08
106.45
104.30
98.92
92.49
85.77
78.69
71.22
63.88
57.69
53.71
52.43
53.39
55.40
56.95
56.91
54.85
51.08
46.31
41.26
36.36
31.56
26.59
21.02
14.57
7.26
-0.51
-7.98
-14.24
-18.51
-20.54
-20.78
-20.33
-20.52
-22.38
-26.20
-31.39
-36.90
-41.66
-45.09
-47.25
-48.65
-50.01
-52.08
-55.71
-61.81
-70.93
-82.36
-93.29
-98.74
-92.82
-71.02
-32.58
18.47
74.21
125.45
164.84
188.89
198.29
196.75
189.05
179.50
171.05
165.09
161.49
158.90
154.95
146.76
131.70
108.15
76.26
38.16
-2.38
-40.83
-73.14
-96.88
-111.79
-119.57
-123.09
-125.11
-127.39
-130.21
-132.70
-133.63
-132.15
-128.25
-122.62
-116.30
-110.17
-104.57
-99.30
-93.92
-88.11
-82.14
-76.85
-73.33
-72.59
-75.01
-80.20
-87.15
-94.57
-101.27
-106.52
-110.22
-112.95
-115.86
-120.55
-128.44
-140.12
-154.56
-168.66
-177.61
-175.95
-159.41
-126.55
-79.77
-24.88
30.44
78.93
115.78
139.50
151.59
155.27
153.80
149.50
143.51
136.31
128.52
121.19
115.72
113.18
113.58
115.65
117.19
115.89
110.19
99.74
85.40
68.71
51.21
34.01
17.79
3.01
-9.80
-19.90
-26.53
-29.08
-27.28
-21.27
-11.72
0.10
12.19
21.98
26.79
24.62
14.91
-1.03
-20.48
-40.16
-57.33
-70.54
-79.74
-85.86
-90.16
-93.77
-97.56
-102.44
-109.35
-119.15
-131.81
-145.66
-157.01
-160.66
-151.54
-126.66
-86.84
-36.94
15.38
62.08
97.25
118.50
126.86
125.43
117.62
105.85
91.45
75.29
58.70
43.83
33.15
28.44
29.78
35.36
42.15
47.31
49.36
48.63
46.81
45.73
46.38
48.35
50.20
50.36
47.95
43.26
37.57
32.62
29.83
29.75
31.93
35.18
38.15
39.81
39.73
38.02
35.06
31.07
26.10
20.01
12.74
4.41
-4.83
-15.16
-27.27
-42.20
-60.67
-82.07
-103.74
-121.13
-128.83
-122.47
-100.34
-64.40
-19.76
26.82
68.98
102.48
125.94
140.52
148.89
153.85
157.42
160.66
164.03
167.92
172.88
179.25
186.40
192.42
194.55
190.31
178.72
160.78
138.66
114.17
87.48
57.01
20.72
-21.97
-68.92
-115.49
-156.20
-186.79
-205.61
-213.76
-213.95
-209.08
-201.24
-191.48
-180.06
-167.13
-152.94
-137.91
-122.57
-107.39
-92.91
-79.74
-68.62
-60.26
-55.18
-53.48
-54.89
-58.97
-65.41
-74.35
-86.40
-102.34
-122.28
-144.83
-166.58
-182.33
-186.39
-174.39
-145.16
-101.57
-49.82
2.34
48.00
82.84
105.75
118.22
123.07
123.20
120.74
116.98
112.56
107.85
103.28
99.39
96.80
95.93
96.72
98.49
100.15
100.56
99.09
95.90
91.80
87.68
84.06
80.75
77.07
72.45
66.87
60.98
55.68
51.41
47.79
43.65
37.81
29.85
20.56
11.74
5.36
2.65
3.44
6.26
9.06
10.14
8.94
6.16
3.26
1.70
2.19
4.39
7.16
9.09
9.05
6.54
1.73
-4.64
-11.13
-15.59
-15.31
-7.68
8.79
33.38
62.81
91.67
113.83
124.33
120.97
104.90
79.98
51.27
23.31
-0.98
-20.60
-35.88
-47.59
-56.21
-61.80
-64.24
-63.75
-61.04
-57.26
-53.50
-50.39
-48.08
-46.37
-45.06
-44.18
-43.93
-44.61
-46.35
-49.04
-52.29
-55.58
-58.45
-60.67
-62.26
-63.46
-64.51
-65.51
-66.36
-67.02
-67.68
-68.89
-71.45
-76.04
-82.82
-91.33
-100.51
-109.14
-116.37
-122.09
-127.11
-132.98
-141.60
-154.30
-170.95
-189.31
-204.93
-212.07
-205.30
-181.40
-140.72
-87.60
-29.37
25.57
70.03
99.69
113.83
114.64
105.95
91.85
75.82
60.63
48.58
41.62
41.21
47.72
60.00
75.42
90.80
103.50
112.48
118.46
123.16
128.25
134.38
140.95
146.45
149.36
148.83
145.05
139.19
132.98
128.18
126.04
127.05
130.89
136.53
142.66
148.00
151.58
152.85
151.74
148.67
144.43
139.73
134.66
128.07
117.31
98.79
69.27
27.52
-24.50
-81.69
-137.28
-185.10
-221.69
-247.22
-264.78
-278.69
-292.21
-306.11
-318.29
-324.77
-321.19
-304.50
-273.94
-231.18
-179.75
-124.18
-69.21
-19.09
22.90
54.99
76.98
90.22
97.15
100.45
102.40
104.40
106.97
110.12
113.63
117.15
120.17
121.99
121.98
119.82
115.80
110.70
105.47
100.69
96.23
91.44
85.54
78.20
69.87
61.68
55.00
50.81
49.31
49.82
51.04
51.56
50.20
46.43
40.30
32.35
23.40
14.18
5.14
-3.81
-13.23
-24.00
-36.79
-51.70
-68.00
-84.26
-98.87
-110.72
-119.65
-126.44
-132.51
-139.35
-148.14
-159.32
-172.30
-185.12
-194.33
-195.53
-184.62
-159.61
-121.89
-76.39
-30.16
10.14
40.39
60.03
71.32
77.53
81.18
83.22
83.50
81.75
78.43
74.76
72.08
71.09
71.47
72.18
72.13
70.86
68.70
66.50
65.04
64.58
64.77
64.93
64.50
63.38
61.98
60.93
60.79
61.72
63.36
64.90
65.28
63.56
59.17
52.19
43.23
33.16
22.65
11.77
-0.03
-13.58
-29.43
-47.31
-66.05
-83.97
-99.49
-111.74
-120.86
-127.71
-133.54
-139.44
-145.92
-152.50
-157.54
-158.35
-151.66
-134.60
-105.87
-66.56
-20.23
27.89
72.40
109.18
136.44
154.78
166.49
174.52
181.38
188.43
195.63
201.91
205.65
205.56
201.34
193.91
185.11
176.88
170.62
166.72
164.65
163.13
160.35
154.05
141.68
121.07
91.24
53.31
10.65
-31.85
-69.21
-98.01
-117.18
-127.84
-132.37
-133.17
-132.10
-130.37
-128.80
-128.02
-128.36
-129.50
-130.48
-129.86
-126.47
-120.13
-111.91
-103.92
-98.58
-97.67
-101.69
-109.82
-120.22
-130.70
-139.44
-145.55
-149.23
-151.76
-155.15
-161.44
-171.81
-185.58
-199.71
-209.10
-207.95
-191.70
-159.06
-112.82
-59.34
-6.53
38.65
72.17
93.54
104.95
109.67
110.54
109.23
106.45
102.67
98.59
95.16
93.16
92.72
93.12
93.14
91.66
88.27
83.47
78.34
74.03
71.04
69.02
66.90
63.46
58.03
50.82
42.98
36.11
31.55
29.80
30.29
31.60
32.15
30.81
27.36
22.49
17.39
13.13
10.16
8.20
6.41
3.89
0.10
-4.94
-10.78
-16.84
-22.60
-27.83
-32.54
-37.04
-41.96
-48.13
-56.23
-66.05
-75.75
-81.76
-79.70
-66.06
-40.11
-4.93
33.34
67.48
91.92
104.51
106.74
102.42
95.55
88.81
83.02
77.80
72.61
67.49
63.04
60.04
58.80
59.04
60.23
61.94
64.15
67.22
71.54
77.12
83.45
89.60
94.64
98.17
100.37
101.76
102.36
101.20
96.11
84.62
65.13
38.04
5.90
-27.49
-58.56
-85.29
-107.52
-126.14
-141.85
-154.31
-162.37
-165.13
-163.01
-158.12
-153.62
-152.56
-156.75
-166.20
-179.19
-192.56
-202.24
-203.76
-193.33
-168.99
-131.75
-85.76
-37.42
6.49
40.93
63.86
76.29
81.14
81.63
80.11
77.77
74.94
71.78
68.76
66.57
65.90
66.94
69.31
72.05
74.11
74.72
73.66
71.18
67.70
63.37
57.96
50.96
41.93
30.95
18.75
6.57
-4.27
-12.82
-18.88
-22.95
-26.05
-29.21
-33.07
-37.56
-42.01
-45.46
-47.24
-47.42
-46.84
-46.89
-48.82
-53.24
-59.76
-67.21
-74.11
-79.23
-82.15
-83.28
-83.76
-85.03
-88.41
-94.55
-102.94
-111.73
-117.81
-117.51
-107.69
-86.96
-56.50
-19.99
17.32
50.14
74.63
89.34
95.12
94.43
90.14
84.57
79.19
74.68
71.40
69.74
70.09
72.64
77.10
82.66
88.30
93.19
96.93
99.66
101.63
102.87
102.87
100.69
95.35
86.34
73.92
59.01
42.90
26.81
11.56
-2.41
-14.90
-25.76
-34.84
-42.14
-48.06
-53.46
-59.46
-66.90
-75.79
-85.20
-93.59
-99.63
-102.83
-103.95
-104.72
-107.33
-113.61
-124.48
-139.60
-157.03
-173.20
-183.26
-182.19
-166.39
-135.27
-92.06
-43.16
3.73
42.20
69.03
84.65
92.04
94.98
96.22
96.90
96.97
96.14
94.66
93.34
93.06
94.07
95.79
97.05
96.79
94.59
90.89
86.65
82.80
79.65
76.81
73.29
68.05
60.49
50.82
40.04
29.61
20.99
15.00
11.68
10.21
9.35
7.95
5.36
1.63
-2.69
-6.96
-10.79
-14.35
-18.22
-23.10
-29.50
-37.43
-46.44
-55.87
-65.07
-73.76
-82.04
-90.34
-99.44
-110.28
-123.71
-139.97
-158.08
-175.39
-187.77
-190.63
-180.37
-155.85
-119.04
-74.63
-28.62
13.27
47.00
70.79
84.89
90.96
91.27
88.09
83.40
78.55
74.30
70.87
68.13
65.79
63.61
61.48
59.49
57.98
57.52
58.72
61.89
66.70
72.08
76.42
78.10
76.24
71.17
64.21
57.08
51.01
46.14
41.48
35.63
27.48
17.02
5.54
-4.81
-11.69
-13.39
-9.33
-0.28
12.00
25.19
37.15
46.36
52.27
55.14
55.67
54.29
50.79
44.25
33.45
17.65
-2.73
-25.72
-47.88
-64.98
-72.98
-69.03
-52.40
-25.18
7.79
39.62
62.86
71.59
63.18
39.20
4.83
-32.88
-67.40
-94.51
-112.89
-123.55
-128.29
-128.35
-123.74
-113.60
-97.13
-74.57
-47.66
-19.31
7.34
29.89
47.27
59.61
67.52
71.33
70.81
65.52
55.66
42.61
28.93
17.39
9.86
6.46
5.64
5.07
2.82
-1.79
-8.06
-14.56
-19.84
-23.19
-24.86
-25.88
-27.71
-31.75
-38.93
-49.32
-61.99
-75.19
-86.84
-95.30
-100.01
-101.70
-102.21
-103.89
-108.83
-118.03
-130.68
-143.86
-152.81
-151.88
-136.33
-104.21
-57.60
-2.47
52.98
100.92
136.26
157.82
167.79
170.18
168.95
166.88
165.32
164.68
165.03
166.32
168.38
170.75
172.73
173.55
172.79
170.60
167.83
165.83
165.96
168.76
173.29
176.97
176.36
168.54
152.36
128.95
100.82
70.37
38.26
3.27
-36.60
-82.09
-131.21
-179.18
-220.05
-249.11
-264.73
-268.72
-265.02
-257.84
-250.05
-242.67
-235.41
-227.66
-219.38
-211.38
-205.00
-201.57
-202.08
-206.96
-215.95
-227.81
-240.00
-248.84
-249.94
-239.32
-214.68
-176.29
-127.18
-72.40
-17.81
31.37
71.59
101.52
121.80
134.36
141.49
145.08
146.21
145.25
142.35
137.82
132.39
126.96
122.22
118.41
115.36
112.62
109.80
106.60
102.81
98.25
92.77
86.34
79.21
71.83
64.69
58.11
52.06
46.42
41.15
36.52
33.03
31.22
31.27
32.83
35.03
36.73
36.85
34.72
30.29
24.19
17.57
11.72
7.61
5.53
4.81
3.96
0.98
-6.01
-17.82
-33.27
-48.79
-58.70
-56.62
-37.71
-0.71
50.54
107.69
160.08
198.02
215.56
211.75
189.72
154.78
112.46
67.35
23.17
-16.74
-49.22
-71.76
-83.27
-84.67
-78.69
-68.85
-58.19
-48.44
-39.94
-32.34
-25.43
-19.52
-15.43
-14.09
-15.94
-20.68
-27.29
-34.37
-40.72
-45.65
-49.11
-51.54
-53.51
-55.42
-57.35
-59.25
-61.17
-63.51
-66.90
-71.95
-78.89
-87.28
-96.09
-104.10
-110.39
-114.82
-118.10
-121.53
-126.64
-134.60
-145.69
-158.98
-171.95
-180.68
-180.51
-167.33
-139.17
-97.48
-47.24
4.18
49.16
82.07
100.66
106.03
101.58
91.47
79.41
68.21
59.81
55.45
55.73
60.54
68.96
79.40
90.07
99.39
106.49
111.28
114.34
116.59
118.89
121.61
124.43
126.35
126.02
122.40
115.34
105.98
96.40
88.79
84.44
83.09
83.04
82.04
78.48
72.20
64.63
58.00
54.21
53.80
55.75
57.86
57.68
53.15
43.07
27.33
7.04
-15.06
-34.80
-47.39
-49.23
-39.84
-22.84
-5.20
5.34
3.40
-11.88
-36.71
-64.71
-89.77
-108.26
-119.48
-124.58
-124.89
-120.85
-111.98
-97.78
-78.65
-56.39
-33.74
-13.49
2.36
13.12
19.34
22.17
22.71
21.54
18.78
14.37
8.55
2.04
-4.12
-9.12
-12.89
-16.32
-20.82
-27.67
-37.27
-48.84
-60.70
-71.01
-78.53
-83.15
-85.90
-88.62
-93.30
-101.51
-113.57
-128.05
-141.45
-148.91
-145.57
-128.54
-98.28
-58.96
-17.15
20.38
48.87
66.69
74.99
76.35
73.34
67.59
59.86
50.61
40.63
31.19
23.66
19.00
17.37
18.14
20.22
22.58
24.66
26.33
27.68
28.76
29.40
29.34
28.54
27.35
26.42
26.41
27.51
29.33
31.04
31.84
31.40
30.06
28.67
28.22
29.43
32.41
36.65
41.19
44.96
47.21
48.01
48.69
51.87
60.75
77.78
103.01
133.12
161.49
180.04
181.96
164.18
128.56
81.24
30.46
-16.00
-52.74
-77.44
-90.37
-93.42
-89.11
-80.05
-68.66
-57.06
-46.94
-39.32
-34.35
-31.36
-29.20
-26.75
-23.53
-19.93
-17.13
-16.60
-19.43
-25.71
-34.53
-44.44
-54.16
-63.04
-71.28
-79.41
-87.87
-96.57
-104.95
-112.29
-118.20
-122.85
-127.04
-132.03
-139.09
-149.03
-161.44
-174.32
-183.91
-185.44
-174.49
-148.66
-108.79
-59.13
-6.12
43.45
84.38
114.04
132.47
141.42
143.28
140.29
134.23
126.54
118.57
111.51
106.21
102.99
101.58
101.22
101.09
100.56
99.44
97.86
96.17
94.61
93.10
91.13
87.84
82.32
74.03
63.16
50.81
38.68
28.40
20.82
15.57
11.23
6.02
-1.31
-10.98
-22.17
-33.52
-43.84
-52.62
-60.18
-67.60
-76.43
-88.39
-104.80
-125.81
-149.64
-172.26
-188.05
-191.43
-178.97
-150.96
-111.61
-67.63
-25.88
8.79
34.60
52.35
64.10
71.83
76.75
79.52
80.84
81.86
84.13
89.00
97.11
108.11
120.90
134.11
146.58
157.56
166.73
173.88
178.78
181.13
180.69
177.52
172.09
165.20
157.55
149.21
139.51
127.22
111.18
90.81
66.49
39.38
11.07
-16.77
-42.69
-65.58
-84.82
-100.45
-113.27
-124.63
-135.85
-147.55
-159.26
-169.60
-176.96
-180.44
-180.46
-178.72
-177.72
-180.05
-187.54
-200.47
-216.90
-232.64
-241.85
-238.54
-218.42
-180.73
-128.83
-69.37
-10.53
40.49
79.16
104.32
117.62
122.28
121.67
118.40
114.08
109.46
104.99
101.11
98.36
97.18
97.68
99.55
102.20
104.92
107.14
108.44
108.55
107.29
104.55
100.29
94.65
87.89
80.40
72.68
65.30
58.77
53.49
49.62
47.03
45.51
44.64
44.06
43.31
41.71
38.51
33.13
25.76
17.37
9.62
3.93
0.66
-1.56
-5.71
-15.78
-35.79
-68.59
-114.66
-171.17
-231.63
-286.67
-326.00
-341.23
-328.58
-290.28
-234.05
-170.52
-110.05
-59.81
-22.63
2.50
18.68
29.38
37.15
43.40
48.90
54.22
60.02
66.86
74.77
82.96
90.05
94.67
96.19
95.04
92.50
90.10
88.80
88.59
88.46
86.92
82.76
75.61
66.27
56.39
47.77
41.64
38.07
36.01
33.84
30.18
24.47
17.20
9.47
2.49
-3.04
-7.22
-10.70
-14.52
-19.59
-26.41
-34.98
-44.70
-54.64
-63.81
-71.47
-77.52
-82.61
-88.02
-95.40
-106.14
-120.69
-137.89
-154.62
-166.26
-167.85
-155.79
-129.42
-91.55
-47.82
-4.86
31.74
58.88
76.21
85.36
88.65
88.17
85.43
81.44
77.14
73.42
71.01
70.22
70.86
72.29
73.76
74.71
74.98
74.79
74.58
74.67
74.98
74.94
73.66
70.25
64.37
56.41
47.42
38.73
31.41
25.85
21.70
18.11
14.19
9.33
3.54
-2.73
-8.76
-14.02
-18.38
-22.27
-26.48
-31.89
-38.98
-47.65
-57.09
-66.12
-73.71
-79.37
-83.49
-87.25
-92.33
-100.26
-111.84
-126.43
-141.64
-153.53
-157.51
-149.79
-128.81
-96.07
-55.94
-14.34
23.08
52.39
72.12
83.03
87.07
86.49
83.16
78.43
73.37
68.89
65.85
64.82
65.95
68.82
72.63
76.53
80.06
83.35
87.01
91.71
97.70
104.43
110.53
114.19
113.73
108.07
97.02
81.10
61.25
38.45
13.56
-12.63
-39.01
-63.87
-85.06
-100.41
-108.64
-109.86
-105.69
-98.62
-91.10
-84.80
-80.46
-78.26
-78.28
-80.83
-86.26
-94.69
-105.91
-119.53
-135.26
-152.83
-171.34
-188.45
-200.10
-201.10
-186.87
-155.57
-109.32
-54.12
1.92
51.10
88.40
112.36
124.69
128.77
128.06
125.16
121.44
117.61
114.06
111.33
110.06
110.94
114.34
120.03
127.10
134.20
140.11
144.18
146.55
147.67
147.61
145.43
139.27
127.35
109.19
86.45
62.53
41.08
24.32
12.13
2.43
-7.37
-18.73
-31.38
-43.82
-54.44
-62.62
-68.87
-74.41
-80.15
-86.16
-91.70
-95.90
-98.47
-100.02
-101.84
-105.26
-111.13
-119.38
-129.09
-138.91
-147.58
-154.46
-159.64
-163.93
-168.61
-175.12
-184.66
-197.62
-213.10
-228.49
-239.64
-241.72
-230.68
-204.76
-165.39
-117.06
-65.96
-18.29
21.55
51.68
72.55
86.05
94.39
99.37
102.13
103.43
103.97
104.52
105.86
108.47
112.24
116.40
119.85
121.68
121.56
119.84
117.37
114.95
112.89
110.83
107.90
103.17
96.19
87.23
77.27
67.61
59.39
53.13
48.66
45.20
41.79
37.67
32.52
26.50
20.10
13.78
7.86
2.30
-3.15
-8.89
-15.26
-22.41
-30.15
-38.04
-45.44
-51.76
-56.68
-60.36
-63.48
-67.11
-72.36
-79.92
-89.52
-99.60
-107.49
-109.97
-104.35
-89.50
-66.49
-38.38
-9.38
16.46
36.38
49.38
56.02
57.67
55.87
51.80
46.33
40.25
34.40
29.78
27.26
27.37
30.07
34.80
40.68
46.81
52.49
57.33
61.23
64.28
66.54
67.95
68.24
67.07
64.25
59.88
54.56
49.21
44.80
41.97
40.72
40.43
40.10
38.78
35.98
31.83
26.93
22.02
17.57
13.59
9.69
5.37
0.23
-5.82
-12.68
-20.16
-28.09
-36.14
-43.54
-48.98
-50.76
-47.38
-38.25
-24.10
-6.92
10.63
26.11
37.88
45.49
49.31
50.21
49.06
46.59
43.39
40.06
37.24
35.49
35.12
36.01
37.70
39.52
40.94
41.82
42.36
43.04
44.17
45.71
47.17
47.84
47.09
44.74
41.05
36.61
32.06
27.78
23.82
19.99
16.03
11.81
7.35
2.81
-1.64
-5.84
-9.80
-13.61
-17.52
-21.86
-26.87
-32.60
-38.83
-45.08
-50.80
-55.58
-59.46
-62.91
-66.80
-72.06
-79.36
-88.65
-98.99
-108.53
-114.83
-115.43
-108.59
-93.93
-72.64
-47.30
-21.19
2.57
21.75
35.46
44.01
48.56
50.52
51.18
51.47
51.89
52.72
54.01
55.73
57.70
59.74
61.67
63.40
65.03
66.81
69.02
71.83
75.06
78.21
80.57
81.54
80.91
78.97
76.32
73.58
71.10
68.86
66.53
63.67
59.86
54.84
48.53
40.95
32.30
22.82
12.80
2.44
-8.18
-18.93
-29.58
-39.64
-48.51
-55.72
-61.32
-65.98
-70.88
-77.29
-85.91
-96.25
-106.46
-113.48
-113.86
-104.86
-85.47
-57.03
-23.11
11.42
41.58
63.47
74.99
75.90
67.45
51.87
31.80
9.99
-11.00
-29.06
-42.65
-50.85
-53.41
-50.76
-43.94
-34.49
-24.28
-15.09
-8.25
-4.30
-2.97
-3.55
-5.33
-8.05
-11.94
-17.47
-24.89
-33.79
-43.00
-50.94
-56.20
-58.16
-57.28
-55.00
-53.10
-53.06
-55.43
-59.81
-65.11
-70.20
-74.50
-78.18
-82.08
-87.28
-94.69
-104.69
-116.96
-130.25
-142.45
-150.72
-152.11
-144.33
-126.58
-100.09
-67.92
-34.19
-2.93
22.99
42.41
55.74
64.36
69.84
73.43
75.91
77.68
79.09
80.48
82.23
84.58
87.46
90.53
93.34
95.57
97.11
98.16
99.00
99.86
100.81
101.66
102.07
101.63
100.01
97.11
93.05
88.17
82.80
77.04
70.61
62.89
53.20
41.23
27.28
12.30
-2.38
-15.47
-26.13
-34.16
-39.98
-44.40
-48.37
-52.91
-58.96
-67.23
-77.79
-89.60
-100.30
-106.61
-105.30
-94.56
-75.05
-49.86
-23.62
-0.75
15.92
25.81
30.23
31.37
31.26
31.24
32.00
33.77
36.64
40.56
45.23
49.96
53.86
56.07
56.07
53.95
50.25
45.82
41.46
37.66
34.43
31.39
27.88
23.25
17.06
9.20
-0.05
-10.04
-19.90
-28.73
-35.93
-41.41
-45.55
-49.03
-52.38
-55.67
-58.39
-59.63
-58.54
-54.76
-48.66
-41.33
-34.19
-28.74
-26.23
-27.48
-32.70
-41.24
-51.47
-60.79
-66.25
-65.29
-56.73
-41.25
-21.21
0.14
19.75
35.59
46.98
54.26
58.22
59.59
58.86
56.41
52.78
48.74
45.14
42.60
41.14
40.24
39.04
36.91
33.82
30.35
27.40
25.66
25.24
25.76
26.62
27.49
28.52
30.23
33.17
37.53
43.10
49.19
54.70
58.04
57.18
49.93
34.63
10.90
-19.72
-53.96
-87.73
-117.50
-141.50
-160.19
-175.59
-189.82
-203.39
-214.34
-218.63
-211.95
-191.78
-158.99
-117.89
-74.86
-36.03
-5.30
16.42
30.52
39.27
44.51
47.07
47.17
45.21
42.20
39.64
38.92
40.61
44.22
48.45
51.83
53.46
53.36
52.34
51.47
51.49
52.34
53.25
53.08
50.91
46.46
40.29
33.43
27.00
21.74
17.74
14.52
11.34
7.51
2.77
-2.63
-8.08
-12.88
-16.68
-19.65
-22.47
-26.06
-31.07
-37.61
-45.12
-52.62
-59.18
-64.32
-68.20
-71.53
-75.35
-80.69
-88.22
-97.97
-109.02
-119.36
-126.15
-126.37
-117.85
-100.18
-75.19
-46.41
-18.03
6.47
25.28
38.36
46.92
52.59
56.67
59.86
62.38
64.24
65.56
66.58
67.60
68.84
70.35
72.02
73.62
74.97
76.00
76.73
77.23
77.43
77.03
75.54
72.41
67.36
60.62
52.95
45.47
39.15
34.47
31.16
28.42
25.31
21.25
16.28
10.94
5.96
1.83
-1.42
-4.13
-6.87
-10.09
-14.05
-18.79
-24.20
-29.96
-35.73
-41.12
-45.91
-50.13
-54.17
-58.71
-64.47
-71.94
-80.92
-90.27
-97.92
-101.24
-97.82
-86.41
-67.61
-43.80
-18.56
4.50
22.86
35.67
43.56
47.99
50.48
52.03
53.18
54.18
55.22
56.57
58.48
61.01
63.99
67.00
69.63
71.58
72.80
73.45
73.80
74.03
74.09
73.71
72.48
70.08
66.42
61.76
56.60
51.54
46.97
42.99
39.45
36.11
32.82
29.54
26.22
22.63
18.37
12.89
5.79
-2.93
-12.75
-22.78
-32.05
-39.81
-45.85
-50.53
-54.68
-59.40
-65.78
-74.48
-85.31
-96.98
-106.99
-112.29
-110.09
-98.90
-79.16
-53.21
-24.59
2.98
26.54
44.44
56.37
62.98
65.50
65.34
63.84
62.07
60.72
60.00
59.78
59.77
59.73
59.55
59.32
59.20
59.41
60.18
61.78
64.40
68.05
72.45
77.07
81.25
84.54
86.84
88.47
89.87
91.35
92.78
93.48
92.33
88.02
79.39
65.71
46.88
23.65
-2.50
-29.57
-55.43
-78.41
-97.58
-112.98
-125.35
-135.72
-144.98
-153.53
-161.26
-167.87
-173.03
-176.77
-179.49
-181.92
-184.98
-189.60
-196.55
-205.92
-216.62
-225.84
-229.38
-222.71
-202.67
-169.16
-125.64
-78.19
-33.47
3.55
30.83
49.13
60.80
68.28
73.21
76.31
77.97
78.75
79.46
80.90
83.43
86.76
90.12
92.58
93.55
93.01
91.49
89.83
88.75
88.51
88.70
88.48
86.88
83.34
77.83
70.93
63.50
56.40
50.20
45.07
40.86
37.12
33.37
29.14
24.18
18.59
12.75
7.27
2.72
-0.66
-3.09
-5.30
-8.21
-12.60
-18.79
-26.51
-35.01
-43.31
-50.62
-56.50
-61.02
-64.67
-68.23
-72.66
-78.83
-87.21
-97.44
-107.98
-116.11
-118.52
-112.34
-96.34
-71.63
-41.56
-10.75
16.40
36.97
50.12
56.76
58.78
58.09
56.11
53.64
51.09
48.79
47.02
46.07
46.03
46.76
47.91
49.09
50.00
50.55
50.82
50.89
50.71
50.04
48.46
45.61
41.30
35.68
29.13
22.19
15.39
9.10
3.61
-0.96
-4.60
-7.45
-9.89
-12.46
-15.71
-19.98
-25.25
-31.10
-36.91
-42.11
-46.44
-50.07
-53.53
-57.50
-62.72
-69.77
-78.89
-89.76
-101.09
-110.63
-115.40
-112.54
-100.38
-79.32
-51.97
-22.52
4.70
26.44
41.41
50.08
54.12
55.40
55.37
54.91
54.43
54.10
54.05
54.36
54.98
55.73
56.40
56.80
56.90
56.79
56.62
56.51
56.47
56.36
55.94
54.91
52.99
50.00
45.94
41.01
35.58
30.13
25.12
20.87
17.43
14.62
12.07
9.31
5.98
1.96
-2.60
-7.28
-11.64
-15.33
-18.36
-21.09
-24.17
-28.20
-33.50
-39.86
-46.70
-53.31
-59.16
-64.11
-68.41
-72.55
-77.16
-82.84
-90.14
-99.20
-109.41
-119.06
-125.42
-125.33
-116.30
-97.61
-70.82
-39.55
-8.32
18.76
39.16
52.29
59.20
61.87
62.33
62.09
61.95
62.13
62.58
63.28
64.33
65.88
67.96
70.31
72.51
74.19
75.25
75.94
76.63
77.50
78.31
78.38
76.97
73.57
68.31
61.91
55.41
49.69
45.17
41.55
38.08
33.83
28.14
20.98
12.85
4.66
-2.82
-9.32
-15.20
-21.29
-28.43
-37.10
-47.09
-57.66
-67.86
-76.89
-84.42
-90.61
-95.99
-101.36
-107.66
-115.79
-126.24
-138.54
-150.74
-159.50
-160.87
-151.60
-130.60
-99.63
-62.96
-26.03
6.30
31.06
47.64
57.24
61.82
63.25
62.81
61.22
59.07
56.99
55.72
55.89
57.76
61.06
65.09
69.08
72.44
74.94
76.74
78.09
79.10
79.63
79.29
77.73
74.73
70.35
64.88
58.75
52.45
46.47
41.25
37.11
34.13
32.00
30.06
27.40
23.21
17.05
9.02
-0.26
-9.92
-19.17
-27.56
-35.07
-41.97
-48.75
-55.93
-63.96
-72.90
-81.99
-89.37
-92.14
-87.04
-71.65
-45.56
-10.99
27.66
65.17
97.11
120.96
136.35
144.36
146.55
144.36
139.03
131.93
124.82
119.66
118.01
120.45
126.28
133.67
140.49
144.99
146.35
144.62
140.35
133.96
125.38
114.20
100.01
82.92
63.69
43.56
23.85
5.41
-11.64
-28.05
-45.23
-64.82
-88.05
-115.20
-145.11
-175.17
-201.94
-222.07
-233.54
-236.34
-232.53
-225.34
-218.11
-213.13
-211.13
-211.57
-213.18
-214.73
-215.51
-215.55
-215.51
-216.34
-219.00
-223.84
-230.03
-235.11
-235.06
-225.28
-202.17
-164.78
-115.75
-60.85
-7.28
38.64
73.25
96.07
109.06
115.21
117.15
116.61
114.43
111.11
107.17
103.29
100.03
97.68
96.00
94.42
92.27
89.14
85.04
80.42
75.88
71.82
68.11
64.04
58.56
50.88
40.92
29.52
18.12
8.15
0.30
-5.81
-11.38
-17.88
-26.22
-36.34
-47.18
-57.26
-65.33
-70.96
-74.67
-77.72
-81.55
-87.20
-94.85
-103.62
-111.74
-116.99
-117.35
-111.67
-100.18
-84.49
-67.32
-51.64
-39.84
-33.00
-30.51
-30.12
-28.60
-22.62
-9.80
10.50
36.98
66.67
95.89
121.25
140.49
152.70
158.21
158.14
153.88
146.92
138.71
130.51
123.34
117.78
113.96
111.76
111.03
111.67
113.69
116.93
120.94
125.02
128.44
130.70
131.57
131.03
128.93
124.94
118.65
109.79
98.56
85.75
72.48
59.86
48.82
40.09
34.23
31.51
31.54
32.78
32.45
27.10
13.81
-8.60
-38.81
-73.26
-107.38
-137.23
-160.67
-177.79
-190.34
-200.72
-210.94
-221.90
-232.86
-241.38
-243.71
-235.85
-215.12
-181.67
-138.96
-93.07
-50.81
-17.35
5.18
17.82
23.53
25.47
25.75
25.23
24.15
22.87
22.23
23.33
26.78
32.33
38.87
44.84
49.07
51.26
52.04
52.63
54.10
56.79
60.10
62.86
63.87
62.61
59.45
55.49
52.03
49.91
49.30
49.63
49.90
49.10
46.59
42.24
36.53
30.40
24.89
20.82
18.39
17.07
15.74
13.14
8.44
1.63
-6.47
-14.66
-21.89
-27.95
-33.55
-40.15
-49.41
-62.56
-79.98
-100.73
-122.50
-141.63
-153.68
-154.43
-141.32
-114.53
-77.41
-35.74
3.93
36.32
58.79
71.64
77.27
78.74
78.54
78.03
77.62
77.37
77.46
78.34
80.51
84.19
89.08
94.42
99.36
103.35
106.50
109.54
113.55
119.42
127.25
136.04
143.92
148.73
148.64
142.56
130.13
111.50
87.12
57.82
24.92
-9.56
-43.10
-73.16
-97.71
-115.55
-126.51
-131.30
-131.39
-128.79
-125.76
-124.39
-125.99
-130.60
-136.99
-143.28
-147.71
-149.40
-148.65
-146.70
-145.33
-146.31
-150.91
-159.33
-170.13
-179.87
-183.50
-175.73
-153.01
-115.42
-67.23
-15.84
30.67
66.33
88.90
99.84
102.81
101.60
98.72
95.09
90.75
85.80
80.88
77.05
75.15
75.22
76.39
77.18
76.28
73.14
68.18
62.62
57.67
53.92
50.83
46.93
40.54
30.64
17.44
2.45
-12.12
-24.38
-33.45
-39.84
-45.09
-51.02
-58.86
-68.79
-79.96
-90.88
-100.17
-107.05
-111.70
-115.13
-118.99
-124.99
-134.52
-148.11
-164.85
-182.13
-195.80
-201.02
-193.58
-171.44
-135.66
-90.31
-41.39
4.89
43.77
72.83
91.99
102.81
107.60
108.57
107.53
105.72
103.98
102.79
102.43
102.98
104.40
106.49
108.93
111.31
113.25
114.54
115.20
115.39
115.29
114.86
113.78
111.59
107.82
102.25
95.02
86.53
77.25
67.55
57.61
47.52
37.32
27.16
17.17
7.37
-2.39
-12.34
-22.55
-32.73
-42.28
-50.55
-57.24
-62.79
-68.26
-75.08
-84.47
-97.01
-112.37
-129.09
-144.64
-155.56
-158.17
-149.54
-128.69
-97.29
-59.52
-20.97
13.14
39.46
57.12
67.43
72.69
75.14
76.19
76.50
76.15
75.23
73.98
72.89
72.53
73.38
75.67
79.28
83.84
88.76
93.40
97.18
99.54
100.00
98.20
94.02
87.68
79.92
71.78
64.37
58.43
53.99
50.43
46.71
42.01
36.09
29.45
23.09
17.93
14.24
11.47
8.52
4.25
-1.87
-9.54
-17.79
-25.52
-32.01
-37.22
-41.77
-46.64
-52.82
-61.08
-71.59
-83.66
-95.42
-103.73
-104.69
-94.63
-71.56
-36.27
7.40
53.47
95.64
129.30
152.68
166.73
173.72
175.69
173.36
166.24
153.42
134.64
110.71
83.16
53.72
23.62
-6.46
-36.09
-64.68
-91.10
-113.74
-130.87
-141.18
-144.31
-141.14
-133.69
-124.71
-116.86
-111.95
-110.45
-111.53
-113.66
-115.30
-115.55
-114.34
-112.32
-110.43
-109.42
-109.67
-110.90
-112.39
-113.31
-113.25
-112.50
-112.09
-113.52
-118.27
-127.42
-141.19
-158.53
-176.82
-191.82
-198.24
-191.07
-167.44
-128.06
-77.57
-23.38
26.70
66.90
94.84
111.50
119.80
122.94
123.19
121.71
118.97
115.36
111.45
107.94
105.27
103.50
102.35
101.43
100.54
99.72
99.13
98.85
98.68
98.07
96.25
92.45
86.26
77.78
67.66
56.86
46.36
36.79
28.24
20.44
13.00
5.71
-1.32
-7.87
-13.85
-19.57
-25.65
-32.78
-41.22
-50.62
-60.07
-68.53
-75.37
-80.66
-85.25
-90.42
-97.60
-107.86
-121.54
-137.80
-154.23
-167.03
-171.62
-163.99
-142.21
-107.49
-64.16
-18.45
23.37
56.77
79.89
93.41
99.65
101.29
100.58
98.96
97.14
95.42
93.94
92.81
92.13
91.85
91.81
91.72
91.35
90.62
89.64
88.66
87.83
86.98
85.53
82.68
77.74
70.58
61.71
52.24
43.29
35.57
29.09
23.27
17.37
11.00
4.31
-2.09
-7.59
-11.98
-15.69
-19.61
-24.73
-31.60
-40.10
-49.52
-58.81
-67.07
-73.95
-79.78
-85.50
-92.46
-102.03
-115.02
-131.10
-148.30
-162.84
-169.91
-165.01
-145.63
-112.55
-69.90
-24.12
18.11
51.76
74.61
87.19
91.77
91.21
87.97
83.75
79.58
76.05
73.46
71.90
71.35
71.63
72.47
73.49
74.32
74.62
74.24
73.29
72.10
70.92
69.65
67.62
63.71
56.88
46.71
33.79
19.69
6.32
-4.82
-13.32
-19.94
-26.18
-33.60
-43.14
-54.79
-67.71
-80.64
-92.46
-102.49
-110.70
-117.50
-123.45
-128.98
-134.21
-138.82
-141.96
-142.09
-137.07
-124.40
-102.01
-69.23
-27.64
18.88
65.00
105.52
137.11
159.34
174.32
185.50
195.97
207.20
218.70
228.47
233.72
231.69
220.32
198.73
167.77
129.94
89.14
49.72
15.47
-11.22
-29.60
-40.30
-44.65
-44.29
-40.93
-36.35
-32.27
-30.02
-30.16
-32.26
-35.18
-37.69
-39.08
-39.49
-39.73
-40.82
-43.50
-47.85
-53.20
-58.50
-62.72
-65.40
-66.87
-68.20
-70.77
-75.63
-82.94
-91.89
-100.99
-108.69
-114.05
-117.15
-119.06
-121.55
-126.50
-135.27
-148.00
-163.03
-176.67
-183.70
-178.72
-158.05
-121.36
-72.29
-17.59
34.95
78.90
110.77
130.34
139.77
142.12
140.19
135.97
130.73
125.33
120.51
116.77
114.23
112.60
111.24
109.52
107.08
103.97
100.54
97.21
94.20
91.26
87.79
83.03
76.43
67.92
58.03
47.64
37.65
28.59
20.44
12.71
4.77
-3.78
-12.83
-21.84
-30.12
-37.24
-43.30
-48.95
-55.08
-62.43
-71.19
-80.92
-90.79
-99.84
-107.53
-113.87
-119.51
-125.66
-133.65
-144.55
-158.43
-173.63
-186.59
-192.26
-185.66
-163.73
-126.97
-79.74
-29.15
17.33
54.17
79.19
93.37
99.55
100.81
99.33
96.29
92.27
87.92
84.09
81.68
81.15
82.30
84.36
86.29
87.24
86.81
85.09
82.58
79.87
77.38
75.12
72.62
69.08
63.69
55.98
46.07
34.71
23.01
12.15
2.90
-4.47
-10.24
-15.10
-19.91
-25.45
-32.17
-40.01
-48.39
-56.35
-63.08
-68.28
-72.45
-76.77
-82.63
-91.20
-102.97
-117.46
-133.06
-147.08
-155.95
-156.00
-144.41
-120.34
-85.58
-44.29
-1.95
36.23
66.64
87.93
100.75
106.88
108.33
106.75
103.30
98.83
94.09
89.78
86.44
84.32
83.13
82.15
80.44
77.26
72.45
66.74
61.51
58.31
58.22
61.31
66.66
72.83
78.56
83.40
87.71
92.29
97.58
103.16
107.74
109.74
108.04
102.61
94.52
85.48
77.08
70.25
65.04
60.72
56.07
49.69
40.43
27.87
12.31
-5.50
-25.00
-46.46
-70.99
-100.05
-134.46
-173.45
-214.16
-251.93
-281.07
-296.05
-292.76
-269.75
-229.04
-176.07
-118.78
-65.57
-23.13
5.43
20.73
26.11
25.70
22.85
19.53
16.66
14.79
14.56
16.66
21.41
28.38
36.34
43.69
49.00
51.52
51.30
49.06
45.69
41.80
37.51
32.46
26.08
18.01
8.29
-2.42
-13.03
-22.22
-28.80
-32.03
-31.91
-29.22
-25.36
-22.00
-20.61
-22.03
-26.26
