1540580734.00
64.000000
-0.00
-0.00
-0.00
-0.00
-0.00
-0.00
-0.00
-0.00
-0.00
-0.00
0.00
0.01
0.01
-0.00
-0.03
-0.05
-0.05
0.00
0.13
0.36
0.66
1.01
1.37
1.72
2.06
2.40
2.79
3.24
3.80
4.42
5.06
5.66
6.20
6.68
7.15
7.68
8.31
9.14
10.09
11.04
11.88
12.56
13.14
13.76
14.65
15.96
17.91
20.32
22.90
25.38
27.58
29.57
31.68
34.32
37.81
42.54
48.15
54.10
59.83
64.97
69.58
74.14
79.34
85.71
93.76
103.00
112.62
121.73
129.77
136.75
143.30
150.75
157.77
166.64
177.95
191.79
206.97
220.57
228.25
225.36
208.53
176.87
132.76
80.05
23.07
-34.94
-92.44
-149.16
-205.23
-260.37
-313.74
-363.87
-409.83
-450.91
-486.50
-515.74
-537.23
-549.22
-549.96
-538.37
-514.21
-478.67
-433.88
-382.45
-327.02
-269.84
-212.63
-156.66
-102.95
-52.37
-5.90
35.58
71.43
101.35
125.50
144.38
158.69
169.15
176.37
180.75
182.57
182.07
179.51
175.23
169.65
163.18
156.15
148.81
141.30
133.69
126.02
118.33
110.69
103.16
95.80
88.68
81.83
75.25
68.95
62.95
57.25
51.86
46.78
42.03
37.59
33.45
29.61
26.07
22.81
19.83
17.11
14.67
12.48
10.54
8.83
7.35
6.07
4.97
4.05
3.27
2.62
2.09
1.65
1.30
1.01
0.79
0.61
0.47
0.37
0.28
0.22
0.18
0.15
0.13
0.12
0.12
0.13
0.15
0.17
0.20
0.23
0.27
0.31
0.36
0.40
0.45
0.50
0.55
0.60
0.65
0.71
0.77
0.83
0.90
0.98
1.06
1.16
1.26
1.38
1.51
1.66
1.82
2.01
2.22
2.45
2.70
2.98
3.29
3.63
4.00
4.41
4.85
5.33
5.84
6.39
6.98
7.62
8.30
9.04
9.83
10.66
11.50
12.35
13.21
14.10
15.05
16.09
17.23
18.47
19.74
21.00
22.15
23.11
23.78
24.07
23.90
23.16
21.76
19.59
16.60
12.83
8.35
3.41
-1.70
-6.66
-11.21
-15.20
-18.59
-21.46
-23.88
-25.87
-27.36
-28.22
-28.31
-27.63
-26.39
-24.95
-23.74
-23.08
-23.07
-23.47
-23.86
-23.82
-23.14
-21.98
-20.81
-20.22
-20.67
-22.17
-24.29
-26.29
-27.51
-27.68
-27.02
-26.14
-25.77
-26.42
-28.31
-31.42
-35.47
-39.82
-43.22
-43.92
-40.22
-31.22
-17.64
-1.71
13.55
25.64
33.58
37.99
40.37
42.00
43.24
43.51
42.13
39.10
35.36
32.45
31.54
32.71
34.77
35.49
32.37
23.37
7.55
-14.44
-40.40
-66.83
-89.72
-105.30
-110.77
-104.76
-87.37
-60.04
-25.21
14.03
54.36
92.62
126.27
153.65
174.12
187.96
196.13
199.95
200.80
199.91
198.21
196.40
195.06
194.94
197.10
202.99
214.20
231.88
256.02
284.83
314.75
341.09
359.29
366.15
360.74
344.37
319.88
290.60
259.34
227.98
197.64
168.95
142.52
118.83
98.19
80.38
64.73
50.33
36.38
22.59
9.24
-2.94
-13.30
-21.69
-28.61
-35.22
-42.83
-52.47
-64.45
-78.28
-92.97
-107.53
-121.43
-134.95
-148.97
-164.58
-182.54
-202.83
-224.67
-246.74
-267.64
-286.37
-302.50
-316.35
-329.08
-342.76
-360.03
-383.05
-411.77
-442.59
-468.07
-478.71
-465.91
-425.16
-357.66
-269.70
-170.41
-69.13
26.15
109.07
174.34
217.63
236.20
230.07
202.74
160.59
111.20
61.08
14.39
-27.50
-65.35
-101.00
-136.42
-173.53
-214.19
-260.05
-311.82
-368.31
-425.52
-476.89
-514.73
-532.56
-527.32
-500.42
-456.95
-403.65
-346.59
-289.62
-234.11
-179.83
-126.09
-72.65
-20.14
30.10
76.30
116.71
149.96
175.50
193.73
205.76
213.15
217.40
219.68
220.88
221.66
222.50
223.55
224.31
223.67
220.18
212.68
200.87
185.53
168.07
149.66
130.30
108.42
81.14
45.50
-0.21
-55.25
-116.16
-177.36
-232.40
-275.36
-301.93
-309.93
-299.33
-272.26
-232.69
-186.35
-140.07
-100.61
-73.18
-60.09
-60.24
-69.57
-82.58
-94.09
-100.72
-101.73
-98.91
-95.67
-95.67
-101.26
-112.30
-125.95
-137.61
-142.55
-137.83
-123.37
-101.75
-76.90
-52.40
-30.34
-11.02
6.39
23.01
39.87
57.90
78.33
102.58
131.58
164.60
198.72
229.21
251.28
262.13
262.41
256.02
248.39
244.06
244.84
249.39
254.43
256.58
253.97
246.73
236.38
224.69
212.71
200.48
187.39
172.82
156.54
138.86
120.09
100.08
78.13
53.31
25.34
-4.86
-35.12
-62.78
-85.70
-103.12
-115.73
-125.14
-132.95
-140.08
-146.60
-151.96
-155.31
-155.71
-152.14
-143.46
-128.55
-106.75
-78.35
-44.90
-8.95
26.52
59.00
87.09
110.60
130.17
146.55
159.99
170.06
175.93
176.97
173.18
165.32
154.70
142.69
130.35
118.20
106.28
94.31
82.05
69.36
56.41
43.53
31.18
19.84
9.81
1.20
-6.12
-12.56
-18.71
-25.13
-32.02
-39.03
-45.03
-48.33
-47.18
-40.41
-28.03
-11.37
7.15
24.78
39.13
48.82
53.61
54.16
51.57
46.96
41.30
35.33
29.67
24.81
21.04
18.40
16.58
15.05
13.21
10.67
7.38
3.63
-0.10
-3.31
-5.72
-7.29
-8.27
-9.03
-9.93
-11.25
-13.13
-15.74
-19.24
-23.83
-29.44
-35.55
-40.98
-44.09
-43.25
-37.37
-26.43
-11.40
5.99
23.80
40.37
54.59
65.76
73.50
77.64
78.24
75.63
70.50
63.78
56.39
49.08
42.24
35.98
30.18
24.66
19.30
14.04
8.98
4.21
-0.13
-3.99
-7.45
-10.69
-13.94
-17.38
-21.11
-25.05
-29.13
-33.33
-37.79
-42.79
-48.55
-54.95
-61.27
-66.16
-67.97
-65.23
-57.25
-44.33
-27.65
-8.78
10.72
29.51
46.34
59.92
68.87
72.12
69.47
61.86
51.33
40.30
30.90
24.35
20.91
20.27
21.85
24.96
28.62
31.35
31.38
27.21
18.32
5.65
-8.70
-22.17
-32.78
-39.71
-43.35
-44.81
-45.30
-45.68
-46.54
-48.35
-51.51
-56.14
-61.71
-66.87
-69.67
-68.16
-61.21
-48.89
-32.50
-14.09
4.19
20.64
34.29
44.77
52.11
56.52
58.24
57.64
55.23
51.66
47.68
43.89
40.72
38.24
36.37
34.89
33.70
32.71
31.86
30.96
29.62
27.38
23.88
19.06
13.25
7.08
1.23
-3.83
-8.01
-11.70
-15.58
-20.53
-27.23
-35.93
-46.11
-56.50
-65.20
-70.21
-70.01
-64.03
-52.89
-38.15
-21.85
-5.93
8.22
19.83
28.66
34.74
38.26
39.40
38.50
35.99
32.50
28.70
25.19
22.41
20.48
19.29
18.51
17.76
16.68
15.04
12.74
9.72
6.05
1.79
-2.93
-7.96
-13.06
-18.04
-22.79
-27.41
-32.25
-37.74
-44.14
-51.18
-57.84
-62.53
-63.47
-59.35
-49.82
-35.73
-18.82
-1.21
15.18
29.02
39.66
46.88
50.78
51.59
49.63
45.45
39.77
33.46
27.38
22.15
18.13
15.25
13.23
11.61
9.99
8.11
5.92
3.53
1.05
-1.49
-4.18
-7.22
-10.82
-15.08
-20.01
-25.52
-31.56
-38.19
-45.49
-53.39
-61.34
-68.27
-72.64
-72.92
-68.10
-58.15
-44.12
-27.82
-11.30
3.77
16.34
26.11
33.17
37.77
40.14
40.41
38.80
35.70
31.75
27.72
24.32
21.97
20.70
20.18
19.83
19.07
17.43
14.71
11.02
6.67
2.08
-2.37
-6.38
-9.87
-12.90
-15.65
-18.37
-21.42
-25.21
-30.06
-35.97
-42.39
-48.11
-51.50
-51.08
-46.10
-36.95
-25.11
-12.57
-1.13
8.16
15.18
20.45
24.51
27.60
29.51
29.78
28.11
24.70
20.23
15.68
11.84
9.02
7.00
5.16
2.83
-0.40
-4.59
-9.51
-14.81
-20.19
-25.46
-30.45
-34.97
-38.81
-41.77
-43.82
-45.19
-46.40
-48.03
-50.47
-53.56
-56.44
-57.73
-55.85
-49.66
-38.85
-24.18
-7.21
10.15
26.16
39.64
50.03
57.24
61.41
62.75
61.55
58.17
53.14
47.14
40.89
35.01
29.97
26.00
23.18
21.39
20.41
19.91
19.44
18.55
16.87
14.26
10.83
6.94
2.97
-0.76
-4.15
-7.37
-10.70
-14.53
-19.19
-24.89
-31.53
-38.54
-44.82
-48.92
-49.37
-45.24
-36.40
-23.69
-8.69
6.81
21.13
33.06
41.88
47.35
49.58
48.96
46.12
41.86
37.04
32.44
28.61
25.76
23.83
22.54
21.57
20.75
20.09
19.75
19.91
20.52
21.24
21.47
20.53
17.94
13.59
7.77
1.10
-5.77
-12.39
-18.67
-24.89
-31.42
-38.35
-45.16
-50.66
-53.26
-51.48
-44.60
-32.96
-17.95
-1.57
14.23
27.96
38.81
46.47
50.87
52.04
50.11
45.39
38.55
30.49
22.17
14.35
7.47
1.60
-3.35
-7.51
-10.97
-13.80
-16.12
-18.19
-20.37
-23.04
-26.46
-30.70
-35.57
-40.65
-45.45
-49.53
-52.66
-55.02
-57.13
-59.73
-63.39
-68.11
-73.00
-76.46
-76.63
-72.10
-62.44
-48.42
-31.69
-14.22
2.25
16.57
28.17
36.87
42.66
45.55
45.66
43.34
39.25
34.25
29.29
25.15
22.29
20.80
20.45
20.82
21.45
21.91
21.86
21.07
19.38
16.77
13.35
9.37
5.13
0.81
-3.53
-8.13
-13.43
-19.93
-27.86
-36.90
-46.02
-53.58
-57.73
-56.97
-50.67
-39.34
-24.44
-7.99
8.08
22.30
33.86
42.42
47.95
50.58
50.53
48.24
44.31
39.49
34.48
29.82
25.75
22.33
19.46
16.94
14.63
12.35
9.96
7.34
4.36
0.90
-3.15
-7.85
-13.09
-18.67
-24.31
-29.85
-35.43
-41.40
-48.16
-55.69
-63.27
-69.38
-72.17
-70.06
-62.39
-49.75
-33.72
-16.33
0.54
15.64
28.28
38.23
45.38
49.67
51.15
50.12
47.16
43.13
38.88
34.98
31.67
28.84
26.28
23.81
21.43
19.22
17.22
15.29
13.10
10.32
6.74
2.44
-2.30
-7.11
-11.76
-16.26
-20.84
-25.94
-31.97
-39.20
-47.51
-56.25
-64.07
-69.20
-69.84
-64.81
-54.01
-38.56
-20.53
-2.24
14.36
28.12
38.63
45.99
50.44
52.23
51.65
49.17
45.46
41.37
37.56
34.46
32.04
30.09
28.32
26.64
25.11
23.85
22.85
21.85
20.44
18.12
14.59
9.84
4.14
-2.04
-8.17
-13.86
-18.96
-23.62
-28.32
-33.75
-40.43
-48.41
-56.96
-64.57
-69.31
-69.42
-63.94
-53.07
-38.06
-20.81
-3.31
12.89
26.77
37.81
45.74
50.48
52.10
50.95
47.70
43.27
38.62
34.47
31.14
28.58
26.50
24.62
22.84
21.22
19.92
18.92
18.02
16.78
14.75
11.61
7.34
2.19
-3.38
-8.92
-14.11
-18.82
-23.16
-27.44
-32.04
-37.40
-43.75
-51.00
-58.53
-65.14
-69.27
-69.39
-64.46
-54.34
-39.83
-22.53
-4.35
12.94
28.00
39.99
48.54
53.55
55.20
53.91
50.44
45.78
40.96
36.74
33.51
31.22
29.57
28.26
27.13
26.15
25.31
24.45
23.28
21.42
18.59
14.73
10.00
4.74
-0.63
-5.76
-10.42
-14.56
-18.38
-22.27
-26.76
-32.26
-38.78
-45.75
-51.99
-55.97
-56.23
-51.87
-42.85
-30.03
-14.88
0.91
15.86
28.91
39.44
47.11
51.78
53.46
52.41
49.17
44.53
39.40
34.56
30.50
27.33
24.91
22.94
21.18
19.50
17.86
16.15
14.24
11.88
8.83
4.96
0.27
-5.05
-10.66
-16.22
-21.46
-26.27
-30.78
-35.30
-40.33
-46.31
-53.41
-61.20
-68.58
-73.86
-75.25
-71.45
-62.13
-48.13
-31.15
-13.18
4.03
19.36
32.30
42.71
50.53
55.65
58.08
57.95
55.71
52.04
47.67
43.23
39.08
35.42
32.35
29.99
28.48
27.84
27.83
27.88
27.17
24.85
20.41
13.83
5.60
-3.44
-12.45
-20.80
-28.18
-34.57
-40.18
-45.38
-50.66
-56.52
-63.19
-70.35
-76.95
-81.39
-81.94
-77.41
-67.56
-53.36
-36.51
-19.00
-2.49
11.96
23.87
33.11
39.63
43.44
44.63
43.56
40.89
37.43
33.95
30.94
28.49
26.42
24.49
22.54
20.70
19.18
18.15
17.56
17.11
16.29
14.56
11.59
7.32
2.07
-3.69
-9.43
-14.75
-19.52
-23.86
-28.15
-32.87
-38.46
-45.14
-52.67
-60.21
-66.41
-69.69
-68.71
-62.82
-52.27
-38.23
-22.37
-6.35
8.47
21.22
31.41
38.82
43.37
45.11
44.32
41.57
37.63
33.35
29.45
26.39
24.25
22.88
21.97
21.26
20.61
19.99
19.35
18.58
17.38
15.42
12.41
8.26
3.16
-2.44
-8.01
-13.12
-17.56
-21.42
-25.05
-28.95
-33.59
-39.23
-45.74
-52.49
-58.37
-61.99
-62.01
-57.58
-48.61
-35.91
-20.92
-5.33
9.33
21.98
31.99
39.15
43.49
45.20
44.63
42.34
38.97
35.16
31.45
28.15
25.42
23.36
22.00
21.37
21.36
21.70
21.89
21.40
19.78
16.85
12.74
7.84
2.60
-2.60
-7.51
-12.05
-16.24
-20.19
-24.17
-28.58
-33.78
-39.87
-46.38
-52.18
-55.70
-55.39
-50.32
-40.54
-27.11
-11.74
3.73
17.81
29.55
38.48
44.47
47.57
48.00
46.10
42.45
37.78
32.83
28.25
24.43
21.43
19.08
17.14
15.36
13.70
12.23
11.04
10.06
9.03
7.49
5.00
1.31
-3.50
-9.02
-14.68
-20.01
-24.76
-29.10
-33.45
-38.40
-44.41
-51.57
-59.35
-66.60
-71.71
-73.07
-69.53
-60.82
-47.68
-31.59
-14.39
2.25
17.09
29.45
38.99
45.64
49.45
50.61
49.49
46.65
42.80
38.63
34.68
31.20
28.18
25.44
22.76
20.04
17.32
14.79
12.62
10.88
9.39
7.76
5.48
2.18
-2.22
-7.46
-13.00
-18.23
-22.75
-26.52
-29.86
-33.38
-37.74
-43.40
-50.38
-58.19
-65.72
-71.50
-73.97
-71.90
-64.82
-53.18
-38.25
-21.80
-5.67
8.64
20.22
28.72
34.23
37.10
37.81
36.84
34.70
31.86
28.78
25.80
23.16
20.97
19.21
17.83
16.78
16.02
15.52
15.17
14.75
13.90
12.22
9.41
5.42
0.50
-4.81
-9.88
-14.23
-17.68
-20.46
-23.08
-26.17
-30.18
-35.21
-40.78
-45.90
-49.21
-49.36
-45.41
-37.17
-25.32
-11.21
3.49
17.22
28.83
37.65
43.45
46.31
46.52
44.51
40.85
36.24
31.39
26.95
23.36
20.85
19.37
18.71
18.59
18.71
18.85
18.79
18.36
17.41
15.86
13.73
11.14
8.30
5.39
2.51
-0.36
-3.38
-6.84
-11.05
-16.24
-22.36
-28.89
-34.81
-38.82
-39.66
-36.62
-29.84
-20.23
-9.24
1.73
11.66
20.03
26.69
31.60
34.68
35.86
35.23
33.17
30.36
27.56
25.43
24.29
24.18
24.85
25.91
26.88
27.19
26.24
23.54
18.89
12.49
4.97
-2.79
-9.92
-15.86
-20.51
-24.17
-27.43
-30.82
-34.56
-38.38
-41.47
-42.71
-40.98
-35.53
-26.34
-14.05
0.12
14.82
28.86
41.48
52.35
61.40
68.70
74.33
78.34
80.72
81.44
80.38
77.40
72.45
65.73
57.71
49.10
40.71
33.18
26.89
21.84
17.79
14.43
11.40
8.42
5.19
1.46
-2.93
-7.89
-13.15
-18.21
-22.67
-26.32
-29.30
-32.11
-35.44
-39.95
-46.10
-54.01
-63.26
-72.88
-81.41
-87.12
-88.47
-84.58
-75.55
-62.41
-46.87
-30.65
-15.10
-0.96
11.57
22.54
31.95
39.66
45.44
49.07
50.56
50.15
48.27
45.49
42.35
39.31
36.71
34.74
33.45
32.77
32.59
32.75
33.07
33.22
32.71
30.92
27.24
21.33
13.36
3.96
-5.91
-15.35
-23.88
-31.51
-38.60
-45.62
-52.93
-60.69
-68.84
-77.17
-85.12
-91.78
-95.82
-95.84
-90.86
-80.75
-66.44
-49.64
-32.31
-16.03
-1.71
10.37
20.24
27.93
33.37
36.54
37.67
37.32
36.26
35.19
34.44
33.94
33.29
32.11
30.26
27.89
25.34
22.92
20.69
18.49
15.98
12.81
8.78
3.88
-1.72
-7.72
-13.77
-19.57
-24.86
-29.47
-33.29
-36.36
-38.83
-41.07
-43.59
-46.95
-51.48
-56.94
-62.40
-66.34
-67.07
-63.34
-54.81
-42.28
-27.32
-11.81
2.65
15.07
25.04
32.59
37.84
40.91
41.93
41.18
39.15
36.46
33.78
31.57
30.02
29.01
28.20
27.25
26.00
24.52
23.05
21.82
20.93
20.20
19.28
17.73
15.27
11.88
7.81
3.51
-0.56
-4.07
-6.95
-9.36
-11.60
-14.07
-17.06
-20.78
-25.33
-30.60
-36.28
-41.74
-46.01
-48.05
-46.97
-42.41
-34.74
-25.00
-14.52
-4.57
4.02
10.90
16.02
19.38
20.90
20.45
18.03
13.98
8.99
3.99
-0.10
-2.63
-3.48
-3.00
-1.90
-0.96
-0.73
-1.39
-2.66
-4.11
-5.42
-6.57
-7.92
-10.03
-13.32
-17.81
-22.97
-27.83
-31.40
-33.00
-32.65
-31.02
-29.26
-28.59
-29.91
-33.58
-39.27
-46.10
-52.78
-57.83
-59.92
-58.06
-51.91
-41.76
-28.55
-13.61
1.57
15.57
27.28
36.05
41.69
44.43
44.72
42.94
39.40
34.43
28.78
23.77
21.10
22.20
27.45
35.79
44.97
52.57
56.86
57.38
54.70
49.73
43.16
35.34
26.62
17.81
10.19
5.16
3.64
5.72
10.73
17.67
25.68
34.14
42.67
51.05
59.41
68.39
79.19
92.91
109.90
129.21
148.76
166.20
179.92
189.60
195.96
199.95
201.54
200.15
195.49
188.21
179.92
172.89
168.69
168.00
170.38
174.16
177.52
179.47
179.94
179.32
178.13
176.30
173.54
169.54
162.80
152.36
138.59
122.99
107.25
92.98
80.29
68.88
58.42
45.06
25.94
1.25
-25.98
-52.45
-74.72
-93.21
-108.85
-122.26
-141.01
-170.64
-210.28
-253.41
-292.81
-321.13
-338.90
-347.92
-349.59
-356.48
-378.43
-415.27
-457.84
-496.02
-519.43
-530.18
-532.36
-529.41
-539.12
-575.99
-641.03
-723.14
-809.26
-885.34
-952.90
-1015.55
-980.51
-799.50
-497.75
-156.21
151.09
351.90
477.27
555.75
604.71
631.71
637.70
614.75
564.49
499.42
434.07
384.37
350.53
329.90
319.46
304.32
270.48
214.62
143.30
65.26
-8.77
-77.99
-140.26
-189.78
-226.19
-250.66
-263.06
-264.54
-260.56
-257.04
-263.23
-282.12
-309.07
-338.51
-365.09
-383.65
-390.85
-386.29
-370.49
-346.96
-318.30
-286.00
-252.53
-221.05
-194.01
-172.51
-156.20
-142.72
-129.42
-113.43
-92.96
-68.21
-41.57
-16.12
5.63
22.76
35.97
46.73
56.35
65.03
71.76
74.76
72.44
64.32
51.49
36.45
22.40
12.37
8.19
10.29
17.72
28.75
41.60
54.97
68.21
81.07
93.37
104.46
113.21
118.23
118.41
113.59
104.94
94.91
86.71
83.46
87.29
98.90
117.51
141.43
168.56
197.15
225.89
253.89
280.70
306.36
331.21
355.34
377.46
394.08
399.47
387.48
354.37
301.66
237.15
173.37
123.70
98.34
101.77
132.65
185.27
251.21
320.41
381.63
423.41
436.00
413.91
357.60
273.42
171.64
63.82
-39.13
-127.94
-194.93
-234.09
-241.95
-218.37
-166.97
-94.50
-9.48
79.07
162.51
233.23
285.51
316.81
328.87
327.89
323.23
324.74
339.52
369.61
411.35
456.75
496.21
521.69
528.99
518.40
493.71
460.11
422.26
383.19
344.46
306.97
271.52
238.71
207.99
177.17
142.34
99.15
44.16
-24.12
-104.71
-194.38
-287.81
-378.34
-458.67
-522.47
-565.53
-586.55
-586.76
-568.48
-533.39
-481.42
-411.61
-324.36
-223.90
-119.40
-23.39
52.07
99.54
118.54
115.18
99.30
80.92
67.51
62.82
67.24
79.07
95.72
114.16
131.39
144.79
152.51
153.80
148.91
138.59
123.43
103.78
79.67
51.09
18.28
-18.46
-58.70
-102.01
-147.99
-196.15
-246.22
-298.40
-353.70
-413.75
-479.81
-551.00
-622.92
-687.52
-734.86
-756.33
-747.87
-711.35
-653.44
-582.76
-506.55
-428.95
-351.24
-273.36
-195.28
-117.52
-40.98
33.02
101.89
161.12
204.17
224.01
215.92
179.47
118.84
41.09
-46.20
-136.40
-223.34
-300.02
-358.00
-388.87
-387.23
-353.72
-295.60
-224.49
-152.00
-85.68
-27.37
25.58
76.92
128.09
176.89
218.86
250.08
269.39
278.61
280.82
278.29
271.66
260.70
246.56
232.92
225.57
230.01
248.72
280.07
319.37
361.37
402.38
440.59
474.77
502.71
520.70
524.88
512.98
485.69
446.85
402.51
359.43
323.28
297.32
281.62
273.15
266.82
257.27
240.85
216.81
187.18
155.55
125.33
98.53
75.59
56.19
39.95
26.78
16.65
8.89
2.07
-5.65
-15.89
-29.27
-45.31
-62.79
-80.24
-96.73
-112.26
-127.82
-145.12
-165.78
-190.43
-217.98
-245.47
-268.77
-283.93
-288.51
-282.36
-267.40
-246.78
-223.73
-201.09
-181.12
-165.91
-157.44
-157.33
-166.21
-183.08
-205.30
-229.06
-250.40
-266.24
-275.09
-277.20
-274.29
-268.75
-262.99
-258.67
-256.43
-255.95
-256.40
-257.02
-257.60
-258.46
-260.11
-262.53
-264.67
-264.16
-257.86
-242.70
-216.83
-180.14
-134.37
-82.42
-27.39
28.22
82.82
135.56
185.95
233.54
278.14
320.34
361.94
405.49
452.87
503.31
552.04
590.72
609.89
602.53
566.85
507.03
431.37
348.87
266.24
186.42
109.21
33.07
-43.31
-120.78
-200.30
-283.59
-372.61
-467.61
-565.13
-657.30
-733.50
-783.87
-803.18
-792.92
-760.54
-716.01
-667.74
-619.67
-571.03
-518.23
-457.76
-388.22
-310.69
-227.63
-141.60
-54.17
34.01
122.66
211.34
299.27
385.62
469.83
551.22
628.34
698.26
756.68
798.86
821.41
823.64
807.82
778.49
740.55
697.72
651.78
602.91
551.11
497.64
445.26
397.56
357.40
325.56
300.64
280.05
261.60
244.57
229.48
216.25
202.41
182.40
148.94
95.75
20.24
-75.23
-184.13
-297.73
-407.06
-504.07
-581.97
-635.90
-663.43
-665.19
-644.77
-607.33
-557.40
-497.14
-425.95
-342.80
-249.38
-152.15
-62.11
8.42
50.13
60.18
43.13
9.37
-28.11
-57.01
-68.23
-57.31
-24.84
23.84
79.97
133.56
176.04
202.38
211.86
207.27
192.99
173.30
151.78
131.36
114.62
103.66
99.21
99.92
102.37
101.94
94.49
77.94
52.76
21.23
-13.88
-50.95
-90.37
-134.23
-185.41
-246.47
-318.81
-402.23
-494.31
-589.98
-681.49
-759.51
-815.35
-843.55
-843.67
-820.15
-780.23
-730.90
-676.53
-618.40
-555.97
-488.86
-418.00
-345.50
-273.22
-201.75
-130.01
-56.34
20.07
98.24
175.38
247.73
311.97
366.49
411.77
450.24
485.64
522.30
564.13
613.40
669.47
728.05
781.67
821.75
841.43
838.29
815.23
779.27
738.60
699.56
664.83
633.48
602.57
568.66
529.04
482.05
427.22
365.55
300.26
237.26
184.30
148.73
134.24
138.24
151.40
160.08
150.64
114.04
48.42
-40.90
-143.89
-249.07
-346.23
-427.97
-489.91
-530.55
-550.95
-554.63
-547.03
-534.37
-521.87
-512.05
-504.04
-494.16
-477.68
-451.18
-414.23
-369.58
-321.71
-274.26
-227.86
-180.09
-127.65
-69.59
-9.80
43.46
80.57
94.68
84.58
54.86
13.78
-29.17
-64.67
-83.92
-78.87
-43.84
21.76
111.17
210.79
303.89
376.28
421.07
439.85
440.11
430.78
418.46
405.95
393.15
378.86
361.92
341.19
315.07
281.42
238.18
184.55
121.73
52.84
-18.17
-87.79
-154.20
-217.80
-281.02
-347.36
-419.92
-499.42
-582.80
-662.94
-730.20
-775.53
-793.72
-785.40
-756.59
-716.10
-671.98
-629.01
-588.31
-548.83
-509.53
-470.74
-433.91
-400.20
-369.10
-338.13
-303.80
-263.30
-215.93
-163.53
-109.59
-57.71
-9.99
33.75
75.56
118.27
164.12
213.80
266.09
317.92
364.95
402.32
425.89
433.52
425.96
406.69
380.55
351.44
320.48
285.52
242.26
186.72
117.58
37.69
-46.06
-124.34
-187.80
-229.46
-246.29
-239.59
-213.99
-175.82
-131.08
-84.64
-40.02
-0.38
31.00
50.78
56.80
49.48
32.74
13.34
-1.04
-4.35
5.65
26.39
50.91
69.76
73.80
57.30
20.34
-30.54
-83.97
-127.30
-150.79
-150.66
-129.52
-94.42
-53.26
-11.75
27.77
65.78
103.90
143.45
184.60
225.94
264.25
294.42
310.33
306.76
281.95
239.19
186.45
133.62
89.08
57.20
38.19
29.89
29.96
37.06
50.25
67.82
86.57
102.40
111.99
114.12
110.01
102.21
93.03
83.17
71.42
55.26
32.23
1.11
-37.30
-80.14
-123.00
-160.82
-189.00
-204.19
-204.88
-191.57
-166.52
-133.34
-96.25
-59.32
-25.88
1.80
22.44
35.56
41.27
40.23
33.71
23.67
12.60
3.07
-2.85
-4.13
-1.07
4.84
11.41
16.42
18.36
16.75
12.16
5.90
-0.62
-6.46
-11.37
-15.88
-20.87
-27.31
-35.93
-47.03
-60.25
-74.32
-87.08
-95.59
-96.91
-89.02
-71.66
-46.53
-16.90
13.46
41.32
64.64
82.65
95.43
103.41
107.00
106.59
102.71
96.17
88.13
79.89
72.65
67.27
64.13
63.04
63.44
64.53
65.45
65.55
64.38
61.83
58.01
53.19
47.68
41.69
35.25
28.18
20.04
10.19
-1.95
-16.61
-33.13
-49.77
-63.72
-71.84
-71.58
-61.91
-43.78
-19.83
6.52
32.04
54.50
72.80
86.73
96.52
102.49
105.00
104.49
101.63
97.27
92.28
87.50
83.44
80.41
78.37
77.08
76.13
75.04
73.34
70.71
67.02
62.31
56.80
50.70
44.19
37.34
30.09
22.27
13.54
3.49
-8.29
-21.79
-36.30
-50.08
-60.59
-65.13
-61.76
-50.11
-31.58
-9.04
14.26
35.48
52.91
65.99
74.88
80.12
82.20
81.57
78.72
74.40
69.44
64.72
60.88
58.11
56.21
54.71
53.10
51.07
48.53
45.53
42.17
38.36
33.95
28.78
22.85
16.42
9.83
3.35
-3.06
-9.81
-17.62
-27.17
-38.64
-51.30
-63.33
-72.12
-75.04
-70.30
-57.75
-38.99
-16.94
5.23
24.92
40.71
52.32
60.11
64.61
66.19
65.12
61.80
56.89
51.31
45.96
41.54
38.36
36.33
35.12
34.34
33.58
32.48
30.78
28.24
24.82
20.58
15.73
10.45
4.92
-0.83
-6.90
-13.49
-20.90
-29.43
-39.28
-50.19
-61.21
-70.60
-76.09
-75.57
-67.94
-53.66
-34.75
-14.22
5.00
20.86
32.64
40.67
45.82
48.86
50.14
49.66
47.42
43.71
39.21
34.81
31.32
29.13
28.20
28.10
28.27
28.27
27.84
26.83
25.15
22.70
19.34
15.00
9.79
3.90
-2.41
-8.99
-15.95
-23.60
-32.34
-42.25
-52.78
-62.53
-69.42
-71.29
-66.61
-55.23
-38.44
-18.67
1.24
18.95
33.02
43.09
49.45
52.69
53.35
51.83
48.51
43.92
38.72
33.67
29.42
26.37
24.59
23.82
23.60
23.38
22.63
20.95
18.14
14.24
9.53
4.39
-0.82
-5.88
-10.83
-15.93
-21.60
-28.33
-36.52
-46.27
-57.09
-67.71
-76.12
-80.02
-77.52
-67.90
-52.06
-32.32
-11.73
6.90
21.75
32.26
38.90
42.53
43.99
43.73
41.98
38.95
35.08
30.97
27.32
24.69
23.26
22.86
22.98
23.02
22.49
21.09
18.80
15.76
12.22
8.39
4.34
0.04
-4.63
-9.77
-15.50
-22.02
-29.62
-38.52
-48.50
-58.64
-67.22
-72.01
-71.04
-63.34
-49.45
-31.29
-11.59
7.02
22.67
34.53
42.57
47.18
48.77
47.67
44.24
39.02
32.83
26.67
21.50
17.96
16.19
15.83
16.19
16.44
15.94
14.38
11.74
8.28
4.36
0.26
-3.83
-7.93
-12.16
-16.71
-21.89
-28.01
-35.35
-43.83
-52.78
-60.80
-65.97
-66.40
-60.89
-49.55
-33.77
-15.84
1.76
17.12
29.20
37.80
43.22
45.85
45.92
43.61
39.20
33.28
26.78
20.81
16.32
13.80
13.11
13.51
13.98
13.60
11.91
9.00
5.32
1.46
-2.26
-5.81
-9.48
-13.67
-18.70
-24.82
-32.09
-40.49
-49.64
-58.74
-66.40
-70.80
-70.30
-63.92
-51.94
-35.89
-18.17
-1.24
13.06
23.85
31.12
35.34
36.98
36.39
33.80
29.57
24.36
19.05
14.53
11.49
10.07
9.97
10.48
10.84
10.42
8.94
6.47
3.30
-0.23
-3.90
-7.67
-11.71
-16.22
-21.34
-27.20
-33.88
-41.51
-50.04
-59.02
-67.30
-73.11
-74.48
-69.98
-59.40
-43.96
-26.02
-8.21
7.33
19.53
28.30
34.04
37.16
37.86
36.18
32.34
26.97
21.06
15.72
11.80
9.61
8.88
8.96
9.11
8.72
7.41
5.00
1.50
-2.99
-8.24
-13.91
-19.59
-24.98
-29.94
-34.59
-39.25
-44.38
-50.31
-56.99
-63.80
-69.56
-72.74
-71.95
-66.39
-56.25
-42.69
-27.49
-12.54
0.65
11.18
18.73
23.32
25.13
24.44
21.68
17.56
13.10
9.48
7.74
8.57
11.96
17.23
23.14
28.31
31.64
32.66
31.61
29.30
26.58
24.08
21.93
19.82
17.28
13.89
9.44
3.81
-3.08
-11.31
-20.76
-30.80
-40.13
-46.95
-49.47
-46.60
-38.42
-26.21
-12.01
2.09
14.54
24.61
32.21
37.56
40.84
42.08
41.32
38.80
35.08
31.00
27.46
25.14
24.26
24.57
25.46
26.14
25.95
24.53
21.90
18.35
14.37
10.35
6.51
2.83
-0.84
-4.70
-8.82
-13.27
-18.11
-23.48
-29.45
-35.82
-41.94
-46.65
-48.57
-46.52
-40.12
-29.97
-17.59
-4.89
6.37
15.13
21.16
24.88
26.97
28.02
28.29
27.81
26.48
24.46
22.25
20.70
20.84
23.47
28.76
36.15
44.34
51.72
56.75
58.36
56.15
50.37
41.82
31.80
21.88
13.71
8.56
6.80
7.50
8.59
7.65
2.99
-5.29
-15.14
-23.30
-26.71
-23.94
-15.77
-4.91
5.33
12.25
14.69
13.02
8.50
2.53
-3.99
-10.64
-17.21
-23.40
-28.68
-32.44
-34.29
-34.19
-32.53
-29.88
-26.77
-23.60
-20.58
-17.85
-15.61
-14.22
-14.09
-15.68
-19.21
-24.52
-30.89
-37.07
-41.43
-42.39
-38.89
-30.77
-18.90
-4.78
10.07
24.77
39.36
54.66
71.53
90.22
110.02
129.50
147.20
162.34
174.98
185.65
194.65
201.48
205.00
204.12
198.69
189.94
180.14
171.80
166.69
165.52
168.19
174.40
184.06
197.02
212.46
228.39
241.78
249.66
250.51
245.03
235.96
226.65
219.35
214.21
209.39
202.29
190.90
174.57
153.66
128.97
101.32
71.95
43.06
17.79
-0.93
-12.04
-17.57
-22.38
-32.21
-51.19
-80.03
-116.03
-154.65
-191.62
-224.57
-253.22
-278.69
-302.43
-325.62
-349.22
-373.98
-400.49
-428.71
-457.76
-485.86
-510.59
-529.37
-540.11
-541.56
-533.56
-517.09
-493.93
-466.18
-435.72
-403.84
-371.44
-339.43
-309.21
-282.68
-261.44
-245.63
-233.09
-219.52
-199.94
-170.79
-131.51
-84.90
-36.00
9.90
48.96
79.63
102.23
118.06
128.27
133.53
134.12
130.56
123.94
116.05
108.78
103.59
100.91
100.10
99.74
98.33
94.91
89.44
82.61
75.43
68.73
62.73
57.10
51.19
44.47
36.73
28.16
19.06
9.56
-0.43
-11.03
-21.84
-31.54
-37.99
-38.83
-32.57
-19.40
-1.35
18.37
36.52
50.91
60.83
66.78
69.75
70.55
69.58
66.99
63.06
58.36
53.65
49.61
46.54
44.38
42.78
41.35
39.79
37.92
35.67
33.08
30.22
27.28
24.44
21.85
19.49
17.21
14.75
11.86
8.29
3.77
-1.98
-8.98
-16.67
-23.60
-27.53
-25.99
-17.16
-0.67
22.10
48.41
74.96
98.98
118.87
134.27
145.59
153.36
157.66
157.95
153.39
143.35
127.84
107.75
84.60
60.21
36.22
13.84
-6.16
-23.27
-37.23
-48.07
-56.24
-62.65
-68.44
-74.62
-81.63
-89.17
-96.40
-102.47
-107.03
-110.62
-114.65
-120.79
-130.22
-142.76
-156.57
-168.40
-174.61
-172.38
-160.68
-140.64
-114.97
-87.07
-59.95
-35.64
-15.25
0.64
11.63
17.53
18.63
16.14
12.12
9.01
8.91
12.89
20.77
31.42
43.35
55.32
66.61
77.02
86.63
95.57
103.90
111.61
118.73
125.39
131.84
138.38
145.22
152.18
158.66
163.60
165.95
165.19
161.82
157.52
154.76
156.05
163.09
176.10
193.60
212.76
230.08
242.27
246.96
243.05
230.67
210.74
184.60
153.76
120.06
85.97
54.76
30.23
15.90
14.02
24.74
46.05
74.31
105.28
134.95
160.08
178.22
187.76
187.92
178.88
162.02
139.66
114.57
89.23
65.11
42.38
20.13
-2.97
-27.82
-54.34
-81.20
-106.39
-127.92
-144.76
-157.23
-167.04
-176.53
-187.94
-202.74
-221.34
-243.27
-267.48
-292.62
-317.24
-339.86
-359.14
-373.92
-383.30
-386.52
-382.87
-371.66
-352.40
-325.12
-290.60
-250.53
-207.31
-163.74
-122.67
-86.68
-57.89
-37.65
-26.31
-23.06
-25.95
-32.13
-38.40
-41.93
-41.01
-35.48
-26.81
-17.46
-9.99
-6.03
-5.77
-8.07
-11.16
-13.52
-14.45
-14.14
-13.23
-12.27
-11.39
-10.36
-8.96
-7.19
-5.34
-3.85
-3.02
-2.82
-2.95
-2.95
-2.51
-1.55
-0.29
0.91
1.72
1.97
1.75
1.33
1.03
1.07
1.50
2.18
2.87
3.37
3.57
3.52
3.39
3.32
3.45
3.78
4.24
4.70
5.04
5.23
5.26
5.20
5.13
5.11
5.15
5.24
5.34
5.42
5.46
5.47
5.46
5.43
5.41
5.40
5.38
5.37
5.35
5.34
5.32
5.30
5.27
5.25
5.24
5.21
5.20
5.18
5.16
5.14
5.12
5.10
5.08
5.06
5.04
5.02
5.00
4.98
4.97
4.95
4.93
4.91
4.89
4.87
4.85
4.84
4.82
4.80
4.78
4.77
4.75
4.73
4.71
4.69
4.68
4.66
4.64
4.63
4.61
4.59
4.58
4.56
4.54
4.53
4.51
4.49
4.47
4.46
4.44
4.42
4.41
4.39
4.38
4.36
4.34
4.33
4.31
4.30
4.28
4.26
4.25
4.23
4.22
4.20
4.19
4.17
4.15
4.14
4.12
4.11
4.09
4.08
4.06
4.05
4.03
4.02
4.00
3.99
3.97
3.96
3.95
3.93
3.92
3.90
3.89
3.87
3.86
3.84
3.83
3.82
3.80
3.79
3.77
3.76
3.75
3.73
3.72
3.70
3.69
3.68
3.67
3.65
3.64
3.62
3.61
3.60
3.58
3.57
3.56
3.54
3.53
3.52
3.51
3.49
3.48
3.47
3.46
3.44
3.43
3.42
3.40
3.39
3.38
3.37
3.36
3.35
3.34
3.31
3.27
3.22
3.18
3.16
3.17
3.21
3.28
3.34
3.35
3.30
3.16
2.93
2.62
2.25
1.86
1.50
1.21
1.01
0.90
0.86
0.85
0.85
0.85
0.86
0.89
0.94
0.98
0.97
0.87
0.71
0.53
0.41
0.38
0.44
0.48
0.37
-0.04
-0.85
-2.04
-3.50
-5.07
-6.54
-7.77
-8.73
-9.54
-10.39
-11.55
-13.19
-15.37
-17.95
-20.63
-23.04
-24.90
-26.07
-26.72
-27.29
-28.36
-30.32
-33.19
-36.22
-37.99
-37.07
-33.01
-27.00
-21.80
-20.68
-25.92
-37.69
-53.59
-69.22
-79.38
-79.08
-64.18
-31.76
19.19
86.40
163.08
237.91
297.32
329.52
328.60
296.68
242.72
178.47
114.13
55.46
3.46
-43.99
-89.88
-136.80
-187.02
-242.72
-305.19
-373.06
-440.88
-499.44
-538.50
-550.74
-534.59
-494.63
-439.09
-376.17
-311.11
-245.63
-179.46
-112.36
-45.64
18.28
77.32
131.12
181.66
232.43
287.02
347.35
412.10
475.94
530.04
564.34
570.69
545.84
492.90
420.71
341.35
266.66
205.29
161.05
133.00
116.82
106.96
98.78
90.08
81.65
76.27
76.78
83.86
95.00
105.21
109.70
106.48
97.65
88.27
83.48
85.41
91.67
96.17
91.74
72.96
38.19
-10.45
-68.27
-129.59
-188.75
-240.46
-280.04
-304.02
-311.26
-303.97
-287.79
-270.29
-258.27
-255.06
-259.27
-265.39
-266.14
-255.25
-229.54
-189.64
-139.34
-84.26
-30.50
16.50
52.59
75.48
85.11
83.73
75.24
64.22
54.59
48.58
46.34
46.34
46.31
44.25
39.27
31.74
23.01
14.66
7.80
2.59
-1.73
-6.51
-13.14
-22.40
-33.98
-46.04
-55.41
-58.42
-52.36
-36.93
-14.97
8.25
27.03
37.53
39.27
34.97
28.80
24.29
22.77
23.40
24.39
24.41
23.36
22.07
21.37
21.32
21.13
19.61
15.95
10.00
2.27
-6.51
-15.75
-25.09
-34.19
-42.57
-49.62
-54.90
-58.39
-60.49
-61.66
-61.92
-60.54
-56.36
-48.46
-36.97
-23.22
-9.31
2.79
12.05
18.55
23.01
25.91
27.00
25.40
20.34
11.92
1.46
-8.83
-16.81
-21.29
-22.50
-21.83
-21.11
-21.78
-24.38
-28.49
-33.15
-37.39
-40.71
-43.28
-45.91
-49.72
-55.89
-65.13
-77.29
-91.05
-103.78
-111.88
-111.47
-99.47
-74.63
-38.31
5.60
51.53
93.59
127.07
149.33
160.03
160.61
153.49
141.30
126.49
111.12
96.82
84.67
74.99
67.39
60.91
54.52
47.58
40.10
32.59
25.64
19.54
14.01
8.26
1.14
-8.33
-20.48
-34.53
-48.25
-58.32
-61.18
-54.34
-37.50
-12.94
15.20
42.34
64.95
81.38
91.70
96.76
97.33
93.74
86.17
75.32
62.72
50.47
40.53
33.88
30.23
28.20
26.14
22.86
18.12
12.56
7.18
2.80
-0.48
-3.29
-6.76
-12.11
-20.27
-31.57
-45.43
-60.28
-73.49
-81.85
-82.42
-73.53
-55.58
-31.10
-4.00
21.72
43.16
59.12
69.76
75.87
78.08
76.58
71.47
63.24
53.20
43.21
35.12
30.01
27.78
27.24
26.74
24.88
21.10
15.78
9.96
4.69
0.57
-2.58
-5.56
-9.47
-15.25
-23.48
-34.17
-46.73
-59.78
-71.24
-78.49
-79.09
-71.52
-55.91
-34.22
-9.73
13.99
34.11
49.17
59.00
64.15
65.29
62.80
56.98
48.29
37.72
26.71
16.84
9.36
4.75
2.58
1.77
0.98
-0.77
-3.90
-8.15
-12.92
-17.63
-22.08
-26.53
-31.52
-37.63
-45.29
-54.72
-65.91
-78.49
-91.49
-103.19
-111.14
-112.74
-106.03
-90.55
-67.62
-40.11
-11.51
15.07
37.59
55.26
68.05
76.24
80.09
79.86
76.14
70.23
63.97
59.37
57.82
59.60
63.78
68.68
72.70
74.97
75.57
75.24
74.69
74.08
72.78
69.72
63.86
54.60
41.88
25.98
7.30
-13.54
-35.33
-55.94
-72.30
-81.10
-79.87
-67.97
-46.98
-20.24
8.28
35.20
58.41
76.96
90.58
99.01
101.83
98.82
90.45
78.25
64.69
52.45
43.62
39.09
38.44
40.32
43.17
45.85
47.82
48.94
49.02
47.43
43.08
34.74
21.53
3.23
-19.60
-45.79
-73.68
-101.06
-125.08
-142.39
-149.82
-145.39
-129.30
-104.22
-74.62
-45.38
-20.26
-1.11
12.09
20.29
24.49
25.20
22.68
17.44
10.68
4.18
-0.22
-1.41
0.57
4.54
8.73
11.48
11.90
10.20
7.42
4.95
3.88
4.56
6.46
8.45
9.25
7.87
3.86
-2.39
-9.68
-15.98
-18.76
-15.66
-5.30
11.98
33.84
56.50
75.82
88.57
93.26
90.27
81.11
67.59
51.13
32.66
13.01
-6.64
-24.56
-38.74
-47.56
-50.45
-48.19
-42.69
-36.35
-31.15
-28.02
-26.71
-26.11
-24.91
-22.16
-17.65
-11.96
-6.23
-2.02
-1.00
-4.67
-13.78
-27.67
-43.93
-58.57
-67.12
-66.03
-54.02
-32.53
-5.10
23.99
51.18
74.47
93.33
108.18
119.59
128.04
134.00
138.24
141.92
146.37
152.66
161.16
171.51
182.79
193.90
203.90
212.07
217.85
220.78
220.44
216.53
209.01
198.13
184.44
168.72
151.91
135.01
118.97
104.48
91.96
81.59
73.55
68.33
66.83
70.22
79.34
94.04
112.78
132.76
150.77
164.13
171.56
173.37
170.93
165.86
159.24
151.32
141.75
130.11
116.42
101.29
85.77
70.82
56.91
43.85
30.78
16.62
0.47
-17.96
-38.20
-59.19
-79.79
-99.23
-117.47
-135.15
-153.22
-172.55
-193.73
-217.25
-243.44
-272.10
-301.73
-328.94
-348.86
-356.54
-349.13
-327.35
-295.37
-259.11
-223.68
-191.64
-162.88
-136.03
-110.26
-86.25
-65.61
-49.52
-37.49
-27.25
-15.88
-1.42
16.11
34.72
51.34
63.21
68.95
68.84
64.48
57.85
50.44
42.60
33.48
21.56
5.38
-15.66
-40.93
-68.69
-96.58
-122.14
-143.32
-158.60
-167.18
-168.96
-164.64
-155.65
-143.90
-131.44
-120.01
-110.80
-104.52
-101.53
-102.03
-105.93
-112.66
-121.13
-129.89
-137.68
-143.96
-149.28
-155.10
-163.45
-176.16
-194.33
-217.98
-246.12
-276.94
-308.33
-338.27
-365.21
-388.29
-407.39
-422.99
-435.69
-445.68
-452.21
-453.42
-446.85
-430.36
-403.20
-366.55
-323.36
-277.28
-231.50
-187.76
-146.27
-106.27
-66.76
-27.13
12.79
52.79
92.35
130.50
165.79
196.43
220.87
238.37
249.21
254.56
255.76
253.76
248.82
240.85
229.86
216.32
201.12
185.16
168.87
152.04
133.94
113.63
90.33
63.87
35.04
6.00
-19.65
-37.48
-43.31
-34.71
-12.17
20.67
58.06
93.81
123.19
143.85
155.78
160.27
158.82
152.46
141.78
127.56
111.18
94.77
80.62
70.50
64.95
63.07
62.94
62.32
59.41
53.42
44.66
34.34
24.06
15.22
8.63
4.21
1.18
-1.73
-5.86
-12.42
-22.25
-35.57
-51.54
-67.83
-80.61
-85.22
-77.59
-56.01
-22.22
18.62
59.36
93.27
116.03
126.71
127.27
121.09
111.41
100.45
89.41
79.01
69.97
63.10
58.99
57.63
58.29
59.83
61.17
61.67
61.11
59.48
56.73
52.58
46.77
39.24
30.26
20.40
10.28
0.29
-9.52
-19.50
-30.26
-42.59
-57.20
-74.23
-92.61
-109.54
-120.75
-121.47
-108.26
-80.54
-41.23
4.05
48.86
88.07
119.05
141.57
156.80
166.01
170.01
169.39
165.29
159.84
155.90
156.02
161.38
171.30
183.59
195.58
205.41
212.67
218.35
224.06
231.13
239.94
249.70
258.61
264.33
264.41
256.66
239.68
213.15
177.96
136.04
89.66
40.58
-10.64
-64.49
-121.41
-180.21
-236.99
-285.34
-318.28
-330.87
-322.41
-296.80
-260.94
-221.97
-184.88
-151.49
-121.24
-92.71
-64.95
-37.58
-10.22
18.23
49.51
85.23
125.66
169.22
212.91
253.29
287.81
315.32
335.89
349.97
357.57
357.93
349.97
333.17
308.25
277.41
243.63
209.70
177.19
146.02
114.61
80.57
41.75
-2.61
-50.68
-97.51
-135.57
-156.87
-155.96
-132.77
-93.60
-49.49
-12.51
8.53
10.58
-3.72
-28.59
-58.37
-89.71
-121.96
-156.13
-193.38
-234.04
-277.40
-321.86
-365.11
-404.43
-436.87
-459.74
-471.19
-470.54
-458.43
-436.43
-406.72
-371.79
-334.28
-296.79
-261.53
-229.99
-202.67
-179.32
-159.50
-143.16
-130.73
-122.53
-117.76
-113.87
-106.46
-90.35
-61.35
-17.99
37.40
99.01
159.17
210.59
248.44
271.31
280.91
280.62
274.08
264.10
252.46
240.34
228.60
217.89
208.32
199.30
189.68
178.42
165.25
150.84
136.37
122.70
109.87
97.05
83.19
67.71
50.79
33.22
15.73
-1.44
-18.62
-36.33
-54.80
-73.60
-91.51
-106.56
-116.14
-117.41
-107.90
-86.45
-54.14
-14.52
27.01
64.67
94.23
114.10
125.35
130.43
131.45
128.97
121.83
108.14
86.58
57.36
22.34
-15.48
-52.82
-86.76
-115.11
-136.28
-149.31
-153.84
-150.43
-140.60
-126.92
-112.44
-99.98
-91.32
-86.74
-85.12
-84.58
-83.47
-81.12
-78.12
-76.03
-76.71
-81.34
-89.58
-98.95
-105.04
-102.39
-86.36
-55.04
-10.52
41.44
93.17
137.77
171.38
193.79
207.58
216.18
222.21
226.85
230.28
232.65
234.70
237.70
242.80
250.41
259.93
270.00
279.04
285.71
289.04
288.35
283.04
272.55
256.49
234.88
208.34
178.20
146.26
114.49
84.74
58.36
36.06
17.91
3.45
-8.07
-17.30
-24.57
-29.84
-32.96
-34.05
-33.76
-33.35
-34.55
-39.15
-48.83
-65.03
-88.88
-120.85
-160.22
-204.64
-250.29
-292.86
-328.91
-356.93
-377.40
-391.79
-401.14
-405.23
-402.88
-393.30
-377.36
-357.95
-338.97
-323.55
-312.66
-305.03
-298.29
-290.70
-282.30
-274.65
-269.74
-268.39
-269.62
-271.07
-270.40
-266.63
-260.65
-254.35
-248.93
-243.59
-235.25
-219.68
-193.45
-155.33
-106.63
-50.23
10.68
73.32
134.97
192.39
241.43
277.76
298.44
303.28
295.27
279.41
260.88
243.28
227.92
214.35
201.65
189.31
177.56
166.85
157.11
147.35
135.87
121.01
101.91
79.08
54.33
30.08
8.49
-9.26
-23.19
-34.38
-44.31
-54.42
-65.64
-78.21
-91.44
-103.57
-111.75
-112.47
-102.62
-80.71
-47.87
-7.94
33.53
70.96
100.29
119.74
129.54
131.07
125.94
115.67
101.82
86.32
71.40
59.25
51.25
47.57
47.06
47.86
48.12
46.71
43.48
39.04
34.16
29.12
23.28
15.22
3.45
-12.76
-32.66
-54.07
-74.06
-90.09
-101.01
-107.48
-111.46
-115.32
-120.71
-127.74
-134.80
-138.92
-136.47
-124.12
-99.66
-62.39
-13.30
45.03
108.53
171.73
228.17
271.34
296.11
300.31
285.59
256.91
220.89
183.44
147.88
114.43
80.85
43.90
0.36
-52.10
-114.49
-185.65
-261.54
-335.02
-396.79
-437.98
-453.09
-442.05
-410.45
-367.48
-322.74
-283.40
-252.95
-231.68
-218.30
-211.31
-209.51
-211.39
-214.41
-214.72
-207.99
-190.82
-161.91
-122.54
-75.60
-24.25
29.16
83.05
135.73
184.48
225.33
254.08
268.03
267.33
255.09
236.27
215.84
197.30
182.15
170.27
160.86
153.05
146.18
139.61
132.47
123.62
111.98
96.95
78.75
58.56
38.17
19.44
3.61
-9.22
-20.12
-31.10
-44.40
-61.73
-83.41
-107.79
-131.17
-148.31
-153.65
-142.92
-114.70
-71.27
-18.26
36.79
86.63
126.09
153.06
168.19
173.74
172.36
166.26
157.19
146.67
136.42
128.26
123.72
123.51
127.21
133.33
139.96
145.39
148.55
149.28
148.01
145.57
142.61
139.54
136.43
133.18
129.64
125.76
121.41
116.12
108.81
97.78
81.10
57.41
26.78
-8.82
-45.72
-79.48
-106.10
-123.22
-130.62
-129.93
-123.90
-115.43
-106.89
-99.75
-94.60
-91.30
-89.29
-87.92
-86.65
-85.11
-82.95
-79.56
-74.05
-65.38
-52.82
-36.53
-17.70
1.52
18.65
31.51
38.83
40.52
37.75
32.82
28.90
29.48
37.45
54.02
77.80
104.57
128.05
141.52
140.01
122.23
91.39
54.44
19.82
-5.58
-18.93
-22.30
-21.56
-23.67
-33.66
-52.83
-78.84
-107.30
-134.02
-156.63
-174.69
-188.94
-199.96
-207.46
-210.29
-207.13
-197.35
-181.44
-161.00
-138.25
-115.43
-94.33
-76.11
-61.31
-49.97
-41.88
-36.69
-34.02
-33.40
-34.35
-36.37
-39.15
-42.73
-47.36
-53.23
-59.70
-64.80
-65.09
-56.45
-35.47
-0.97
45.14
98.09
151.59
199.69
238.27
265.65
282.14
289.14
288.14
280.25
266.16
246.52
222.12
194.15
164.19
134.15
106.08
81.98
63.39
51.04
44.57
42.64
43.25
44.37
44.53
43.15
40.41
37.07
33.98
31.88
31.14
31.69
33.02
34.34
34.96
34.81
34.85
36.90
42.93
54.05
69.62
87.04
102.39
111.72
112.27
103.15
85.19
60.41
31.16
-0.27
-31.99
-62.43
-90.52
-115.83
-138.74
-160.68
-184.26
-213.04
-250.72
-299.54
-358.34
-421.46
-479.54
-522.16
-541.62
-535.90
-509.21
-469.92
-426.93
-386.52
-351.19
-320.61
-293.56
-269.43
-248.20
-229.57
-212.01
-192.76
-169.03
-139.20
-103.66
-64.36
-23.93
15.90
54.90
94.26
135.41
178.54
221.52
259.99
288.68
303.42
303.03
289.89
269.03
246.12
225.43
208.69
195.16
182.75
169.26
153.24
134.14
112.10
87.54
61.14
33.84
6.90
-18.27
-40.55
-59.70
-76.67
-93.33
-111.49
-131.66
-152.04
-168.59
-176.14
-170.14
-148.45
-112.19
-65.49
-14.28
35.28
78.19
111.35
133.66
145.65
148.98
145.86
138.68
129.67
120.86
114.02
110.50
111.03
115.30
121.84
128.15
131.37
129.15
120.42
105.74
87.06
66.94
47.63
30.40
15.20
1.07
-13.41
-29.54
-48.24
-69.74
-93.26
-116.60
-136.03
-146.72
-143.92
-124.80
-89.89
-43.64
6.66
53.08
89.47
113.02
124.25
125.79
120.51
110.48
96.71
79.82
60.95
41.97
25.19
12.49
4.66
1.12
0.40
0.80
1.00
0.22
-1.83
-5.28
-10.24
-16.88
-25.25
-35.14
-46.04
-57.18
-67.94
-78.16
-88.47
-100.18
-114.59
-131.98
-150.72
-167.01
-175.73
-171.93
-152.64
-118.10
-71.96
-20.37
29.74
72.40
103.90
123.07
130.87
129.51
121.52
109.18
94.39
78.82
63.96
51.16
41.26
34.29
29.34
24.91
19.49
12.10
2.47
-9.07
-21.93
-35.60
-49.75
-64.09
-78.25
-91.58
-103.34
-112.92
-120.15
-125.70
-130.97
-137.60
-146.63
-157.59
-168.13
-174.48
-172.63
-159.82
-135.33
-100.65
-58.75
-13.25
32.29
74.59
110.68
138.08
155.18
161.86
159.67
151.57
141.03
131.08
123.57
119.02
116.88
116.07
115.50
114.42
112.35
109.01
104.06
97.05
87.51
75.23
60.50
44.10
27.15
10.69
-4.69
-18.98
-32.81
-47.30
-63.77
-83.29
-105.93
-130.12
-152.55
-168.67
-174.01
-165.50
-142.61
-107.40
-64.01
-17.61
26.70
64.61
93.07
110.49
116.85
113.62
103.45
89.60
75.28
63.10
54.73
50.91
51.51
55.62
61.82
68.47
74.02
77.28
77.59
74.72
68.85
60.40
49.95
38.14
25.55
12.62
-0.47
-13.83
-27.95
-43.70
-61.95
-82.96
-105.63
-127.12
-143.18
-149.28
-142.03
-120.33
-85.75
-42.09
5.62
52.32
93.68
126.57
149.24
161.30
163.65
158.20
147.49
134.14
120.44
108.06
98.01
90.62
85.70
82.63
80.58
78.72
76.27
72.58
67.05
59.21
48.91
36.40
22.43
8.06
-5.71
-18.24
-29.45
-39.90
-50.73
-63.38
-79.08
-98.10
-119.02
-138.47
-151.64
-153.61
-141.03
-113.47
-73.78
-27.19
20.21
63.19
98.32
124.15
140.68
148.67
149.27
143.88
134.29
122.60
110.95
101.04
93.81
89.19
86.37
84.25
81.91
78.79
74.65
69.38
62.74
54.40
44.13
32.04
18.76
5.27
-7.47
-18.90
-29.07
-38.77
-49.23
-61.90
-77.76
-96.73
-117.08
-135.22
-146.33
-145.64
-130.15
-99.97
-58.70
-12.41
32.19
69.77
97.52
115.24
124.32
126.62
123.70
116.76
106.96
95.81
85.06
76.31
70.50
67.59
66.74
66.79
66.74
66.11
64.77
62.64
59.42
54.52
47.33
37.55
25.54
12.28
-0.94
-13.00
-23.43
-32.59
-41.63
-52.16
-65.68
-82.84
-102.68
-122.26
-136.97
-141.70
-132.64
-108.81
-72.78
-30.06
12.73
49.89
78.08
96.67
106.84
110.41
108.85
103.08
93.83
82.23
70.02
59.26
51.76
48.39
48.90
52.02
56.04
59.34
60.78
59.78
56.24
50.36
42.52
33.17
22.88
12.24
1.76
-8.23
-17.76
-27.37
-37.96
-50.42
-64.84
-79.81
-92.17
-97.67
-92.26
-73.76
-42.89
-3.22
39.99
81.52
117.62
146.50
167.97
182.59
191.12
194.34
193.42
190.16
186.85
185.61
187.68
193.02
200.63
209.28
218.25
227.53
237.24
246.75
254.08
256.14
249.76
233.10
206.61
172.98
136.00
99.23
64.66
32.31
0.60
-32.85
-70.72
-115.59
-169.34
-232.05
-300.54
-367.51
-422.41
-454.29
-455.89
-426.88
-374.59
-311.57
-250.95
-202.04
-168.17
-147.28
-134.61
-125.55
-117.01
-107.38
-95.60
-80.65
-61.99
-40.46
-18.91
-1.62
6.82
3.54
-11.36
-34.68
-61.23
-85.58
-103.93
-115.08
-120.29
-122.33
-124.10
-127.69
-133.93
-142.35
-151.28
-157.96
-158.76
-149.76
-127.94
-92.42
-45.29
8.55
62.71
111.14
149.79
177.28
194.44
203.25
205.77
203.70
198.58
192.25
186.91
184.54
185.75
188.97
190.30
184.74
168.23
139.62
101.39
59.03
18.96
-13.74
-36.83
-51.24
-60.03
-66.94
-75.01
-85.98
-100.35
-117.88
-138.06
-160.08
-182.29
-201.64
-213.43
-212.25
-193.77
-156.80
-104.50
-43.99
15.60
65.96
101.91
122.27
129.06
125.89
116.25
102.63
86.63
69.50
52.79
38.42
28.24
23.39
23.56
26.81
30.04
29.88
23.77
10.71
-8.56
-32.10
-57.52
-82.70
-106.17
-126.98
-144.49
-158.16
-167.73
-173.43
-176.14
-176.97
-176.43
-173.48
-165.18
-147.31
-116.03
-69.98
-11.68
52.42
113.73
164.10
198.34
215.49
218.30
211.61
200.16
187.19
174.03
160.74
146.95
132.48
117.39
101.63
84.70
65.79
44.25
20.20
-5.33
-30.73
-54.54
-76.14
-95.87
-114.66
-133.21
-151.47
-168.54
-183.23
-194.85
-203.81
-211.46
-219.29
-227.58
-234.47
-235.90
-226.83
-203.41
-164.87
-114.46
-58.61
-4.83
40.84
75.53
99.54
115.23
125.18
131.00
133.20
131.88
127.67
122.17
117.66
116.23
118.92
125.21
133.23
140.43
144.39
143.45
137.05
125.60
110.19
92.18
72.93
53.54
34.77
16.92
-0.20
-17.29
-35.49
-56.14
-80.08
-106.90
-134.16
-157.33
-170.74
-169.42
-151.17
-117.76
-74.68
-29.40
11.10
42.36
63.16
74.77
79.49
79.39
75.77
69.45
61.39
52.92
45.54
40.36
37.63
36.82
36.98
37.20
36.93
35.75
33.15
28.28
20.21
8.35
-7.02
-24.63
-42.59
-58.95
-72.54
-83.17
-91.68
-99.63
-108.80
-120.66
-135.66
-152.47
-167.61
-175.91
-172.05
-152.63
-117.96
-72.51
-23.62
20.90
55.36
77.56
88.46
90.73
86.96
78.69
66.56
51.15
33.85
16.95
3.04
-5.93
-9.45
-8.61
-5.64
-3.00
-2.63
-5.35
-10.90
-18.25
-26.15
-33.57
-40.00
-45.40
-50.07
-54.32
-58.35
-62.41
-66.98
-72.76
-80.31
-89.08
-96.70
-98.92
-90.68
-68.08
-30.41
19.07
73.89
126.56
170.94
203.55
223.47
231.09
227.00
211.60
185.85
152.15
114.71
78.73
48.82
27.56
14.98
9.03
6.91
6.25
5.52
3.91
0.75
-4.80
-13.68
-26.39
-42.59
-60.99
-79.66
-96.65
-110.74
-121.76
-130.68
-139.30
-149.57
-162.57
-177.61
-191.70
-199.82
-196.34
-176.90
-140.41
-89.79
-31.44
26.71
77.68
117.21
144.23
159.89
165.99
163.59
152.64
132.67
103.74
67.40
26.64
-14.68
-52.71
-84.29
-107.19
-120.07
-122.55
-115.49
-101.11
-82.77
-64.22
-48.61
-37.68
-31.70
-29.93
-31.50
-35.82
-42.71
-51.87
-62.66
-74.05
-84.91
-94.13
-100.39
-101.84
-95.93
-80.10
-52.99
-15.64
28.05
72.18
110.66
139.27
156.76
164.71
166.23
164.37
161.03
156.88
151.96
146.53
141.42
137.81
136.57
137.71
140.20
142.17
141.55
136.68
126.67
111.50
91.81
68.69
43.40
17.31
-8.19
-31.73
-52.08
-68.47
-80.77
-89.64
-96.59
-103.73
-113.27
-126.66
-143.62
-161.40
-174.94
-178.08
-165.80
-136.38
-92.66
-41.43
8.68
50.16
78.74
94.09
98.81
96.47
89.98
80.97
70.10
57.97
45.71
35.03
27.72
25.06
27.28
33.64
42.72
52.84
62.37
69.89
74.13
74.07
69.02
58.83
44.07
26.08
6.63
-12.46
-29.90
-45.33
-59.51
-73.89
-89.72
-106.84
-122.82
-133.07
-132.18
-116.08
-84.16
-40.02
9.49
56.60
95.19
122.45
138.79
146.66
148.76
146.98
142.20
134.75
125.08
113.98
102.45
91.39
81.42
72.81
65.58
59.57
54.35
49.27
43.53
36.47
27.88
18.04
7.67
-2.48
-11.91
-20.56
-28.69
-36.71
-45.17
-54.78
-66.39
-80.56
-96.65
-112.10
-122.45
-122.54
-108.56
-80.07
-40.64
3.06
43.59
75.13
94.84
102.77
100.68
90.79
75.04
55.24
33.32
11.49
-8.20
-24.39
-36.85
-46.33
-53.96
-60.69
-66.91
-72.58
-77.59
-82.21
-87.15
-93.34
-101.50
-111.74
-123.42
-135.29
-146.09
-154.89
-161.56
-166.76
-171.87
-178.48
-187.77
-199.64
-212.06
-220.94
-220.92
-207.14
-177.17
-132.50
-78.62
-23.47
25.09
61.61
84.31
94.56
95.44
90.00
80.40
67.97
53.93
40.04
28.52
21.41
19.87
23.66
31.36
41.02
50.79
59.25
65.40
68.42
67.57
62.39
52.93
40.05
25.41
11.08
-1.08
-9.99
-15.77
-19.86
-24.58
-32.27
-44.10
-58.85
-72.53
-78.97
-71.69
-46.31
-2.63
54.63
116.86
174.08
217.69
242.61
247.78
235.43
209.54
174.59
134.85
94.23
56.26
24.07
0.04
-14.48
-19.19
-14.85
-2.92
14.69
35.80
58.12
79.50
98.15
113.00
123.85
131.18
135.74
137.87
136.98
131.56
119.51
98.99
69.09
30.24
-15.71
-65.98
-117.29
-166.42
-210.35
-246.39
-272.32
-286.60
-288.59
-278.64
-257.95
-228.37
-192.22
-152.29
-111.80
-74.13
-42.31
-18.23
-2.16
7.44
13.37
18.80
26.28
37.00
50.57
65.35
79.02
89.29
94.48
93.88
87.83
77.44
64.25
49.79
35.25
21.33
8.11
-5.02
-19.32
-36.31
-56.90
-80.21
-102.97
-119.75
-124.63
-113.45
-85.94
-46.35
-2.33
37.57
66.74
82.29
85.13
78.75
67.21
53.74
40.20
27.40
15.76
5.79
-1.82
-6.54
-8.32
-7.69
-5.60
-3.10
-1.01
0.24
0.54
0.05
-0.92
-2.01
-2.97
-3.68
-4.28
-5.11
-6.65
-9.45
-14.07
-21.03
-30.55
-42.06
-53.71
-62.34
-63.93
-54.96
-34.00
-2.97
32.91
66.44
90.77
101.67
98.77
85.14
65.74
45.43
27.53
13.41
3.02
-4.36
-9.43
-12.79
-15.11
-17.22
-20.06
-24.26
-29.93
-36.57
-43.43
-49.89
-55.84
-61.65
-67.86
-74.83
-82.39
-89.83
-96.11
-100.41
-102.66
-103.90
-106.26
-112.11
-122.85
-137.61
-152.61
-161.82
-158.60
-138.12
-99.30
-45.58
15.80
75.82
126.18
161.18
178.58
179.32
166.47
144.01
115.97
85.98
57.20
32.32
13.42
1.66
-3.01
-1.92
2.61
7.92
11.71
12.58
10.25
5.45
-0.46
-6.17
-10.78
-14.20
-17.05
-20.33
-25.09
-32.23
-42.34
-55.66
-71.61
-88.30
-102.13
-108.12
-101.31
-78.65
-40.71
7.90
59.70
106.75
143.15
166.41
177.26
178.22
171.85
159.71
142.39
120.24
94.26
66.40
39.13
14.75
-5.34
-20.86
-32.36
-40.70
-46.71
-50.94
-53.87
-56.17
-58.71
-62.46
-68.11
-75.76
-84.78
-94.10
-102.63
-109.89
-116.34
-123.36
-132.50
-144.44
-157.92
-169.42
-173.78
-165.68
-141.56
-101.05
-47.50
12.81
72.35
124.35
164.32
190.72
204.57
208.45
205.36
197.81
187.56
175.65
162.77
149.57
136.77
125.11
115.04
106.63
99.53
93.03
86.13
77.79
67.16
53.83
37.97
20.34
2.01
-15.90
-32.62
-47.87
-61.86
-75.22
-88.87
-103.70
-119.99
-136.71
-150.94
-158.02
-152.70
-131.13
-92.89
-41.92
14.16
66.41
107.45
133.61
145.29
145.73
138.95
128.13
115.01
100.48
85.46
71.50
60.53
54.18
53.06
56.42
62.50
69.19
74.70
77.87
78.33
76.17
71.70
65.32
57.38
48.27
38.52
28.79
19.81
12.27
6.49
2.05
-2.28
-8.12
-16.56
-26.78
-35.47
-37.15
-26.01
1.65
45.43
100.52
159.20
213.65
258.26
290.69
311.10
320.53
319.57
308.18
286.39
255.25
217.10
174.87
131.08
87.25
44.25
3.20
-33.98
-64.85
-87.65
-102.50
-111.62
-118.36
-125.46
-133.68
-141.55
-146.42
-146.10
-140.12
-129.93
-118.14
-107.39
-99.42
-94.76
-92.76
-91.90
-90.08
-84.99
-74.86
-59.13
-38.77
-16.05
6.28
26.16
42.94
57.37
70.80
83.88
95.68
103.68
104.59
95.72
76.06
46.51
9.18
-33.71
-80.72
-131.18
-184.53
-239.45
-293.45
-343.26
-385.79
-419.05
-442.44
-456.38
-461.54
-458.20
-446.31
-425.91
-397.98
-364.95
-330.73
-299.72
-275.51
-259.38
-249.53
-241.41
-229.16
-207.52
-173.46
-126.97
-70.82
-9.79
50.38
103.96
146.08
173.54
185.51
183.79
172.29
155.93
139.19
125.10
114.88
108.47
105.19
104.32
105.18
106.94
108.36
107.92
104.12
96.11
84.03
69.10
53.16
37.97
24.54
12.81
1.87
-9.56
-22.70
-38.37
-56.87
-77.69
-99.15
-118.10
-130.04
-130.08
-114.61
-83.05
-38.75
11.56
59.64
98.34
123.52
134.70
134.16
125.33
111.36
94.54
76.53
58.94
43.60
32.24
25.96
24.62
27.01
31.32
36.05
40.41
44.28
47.73
50.49
51.77
50.46
45.78
37.72
27.24
15.98
5.65
-2.60
-8.62
-13.45
-19.15
-28.20
-42.60
-62.69
-86.20
-108.15
-121.95
-121.67
-104.37
-71.57
-28.94
15.82
55.65
86.38
107.17
119.61
125.88
127.53
125.28
119.65
111.77
103.61
97.36
94.57
95.50
99.19
104.10
108.80
112.23
113.50
111.50
104.80
92.00
72.55
47.28
18.41
-10.96
-37.92
-60.48
-77.97
-90.87
-100.59
-109.10
-118.59
-130.65
-145.33
-160.31
-170.92
-171.35
-156.85
-125.79
-80.60
-26.91
28.64
80.66
126.03
163.48
192.06
210.04
215.17
206.07
183.98
153.37
120.86
92.77
72.71
60.33
52.00
42.85
29.15
9.59
-14.70
-41.27
-67.68
-92.34
-114.41
-133.38
-148.47
-158.59
-162.88
-161.45
-155.86
-149.07
-144.60
-145.19
-151.46
-161.12
-169.21
-169.46
-156.19
-126.36
-80.94
-24.87
34.12
87.69
129.08
154.63
163.98
159.34
144.07
121.62
94.89
66.37
38.50
13.82
-5.14
-16.50
-19.58
-15.21
-5.53
6.59
18.28
27.22
32.03
32.35
28.78
22.55
15.05
7.45
0.37
-6.27
-13.07
-20.85
-30.60
-43.36
-59.98
-80.57
-103.71
-125.88
-141.67
-145.03
-131.36
-99.59
-53.11
0.99
54.10
98.79
130.79
149.44
156.70
155.54
148.59
137.70
124.23
109.59
95.52
83.77
75.61
71.34
70.22
70.99
72.35
73.45
73.84
73.29
71.55
68.24
63.12
56.33
48.58
40.95
34.61
30.10
27.05
23.99
18.69
8.66
-8.03
-31.82
-60.82
-90.39
-113.77
-123.71
-114.89
-86.09
-41.00
12.74
66.08
111.59
145.34
167.16
179.27
184.35
184.22
179.78
171.83
162.00
152.91
147.36
147.15
152.02
159.58
166.13
168.07
163.21
151.44
134.57
115.43
96.86
80.87
68.43
59.71
54.63
53.07
54.67
58.42
62.27
63.24
58.19
44.69
21.61
-10.94
-51.97
-99.77
-151.61
-203.32
-249.31
-283.76
-302.42
-304.35
-292.37
-272.06
-249.52
-229.49
-214.44
-204.97
-200.69
-200.83
-204.11
-208.37
-210.57
-207.50
-197.05
-179.28
-156.54
-132.57
-111.18
-94.97
-84.71
-79.54
-77.71
-77.41
-77.34
-76.94
-76.23
-75.47
-75.03
-75.40
-77.37
-81.85
-89.32
-98.93
-107.86
-111.45
-104.54
-83.35
-47.36
0.06
52.44
102.24
143.13
171.51
186.73
190.22
184.25
171.08
152.64
130.84
107.88
86.20
68.09
55.03
47.29
43.84
42.85
42.40
41.01
37.92
32.96
26.21
17.83
8.04
-2.62
-13.03
-21.69
-27.23
-29.17
-28.59
-28.02
-30.58
-38.38
-50.91
-64.38
-72.43
-67.92
-45.23
-2.09
59.38
132.78
208.56
275.97
325.40
350.64
350.22
327.25
287.98
239.24
186.00
130.11
70.81
6.81
-61.08
-128.63
-188.78
-234.09
-259.78
-265.69
-256.19
-238.23
-218.56
-201.41
-187.99
-177.60
-169.32
-163.09
-159.64
-159.55
-162.31
-166.33
-169.89
-172.37
-174.71
-178.54
-184.78
-192.16
-196.91
-193.78
-177.91
-146.74
-101.10
-45.14
14.70
71.31
118.50
152.21
171.04
176.16
170.62
158.26
142.67
126.58
111.68
98.98
89.19
82.89
80.28
80.93
83.58
86.38
87.32
84.91
78.51
68.59
56.36
43.36
30.86
19.46
9.00
-1.33
-12.65
-26.16
-42.85
-63.07
-85.99
-108.96
-127.55
-136.33
-130.59
-108.28
-71.30
-25.27
22.14
63.72
94.80
114.11
123.05
124.22
119.86
111.23
98.89
83.46
66.32
49.63
35.79
26.66
22.89
23.74
27.47
31.98
35.42
36.63
35.14
31.06
24.75
16.66
7.21
-3.15
-14.00
-25.03
-36.19
-48.00
-61.46
-77.60
-96.60
-116.76
-134.16
-143.27
-138.63
-117.02
-79.10
-29.78
23.15
71.39
108.67
132.15
142.49
142.59
135.93
125.33
112.53
98.55
84.30
70.99
60.04
52.64
49.19
49.01
50.57
51.99
51.65
48.64
42.91
35.03
25.84
16.06
6.08
-4.04
-14.43
-25.22
-36.51
-48.57
-62.01
-77.71
-96.25
-116.90
-136.77
-150.99
-153.87
-141.09
-111.76
-69.26
-20.39
26.86
65.89
93.20
108.63
114.25
112.83
106.67
97.32
85.93
73.75
62.32
53.21
47.45
45.22
45.74
47.72
49.81
50.99
50.68
48.60
44.63
38.70
30.88
21.51
11.19
0.70
-9.28
-18.43
-26.94
-35.62
-45.75
-58.70
-75.13
-94.10
-112.51
-125.45
-127.49
-114.69
-86.48
-46.28
-0.60
43.07
78.66
103.02
116.12
119.95
117.15
109.88
99.51
87.05
73.58
60.52
49.40
41.43
37.10
36.00
37.11
39.07
40.69
41.05
39.57
35.95
30.14
22.31
12.87
2.46
-8.14
-18.24
-27.45
-35.83
-44.08
-53.45
-65.41
-80.81
-98.89
-116.67
-129.17
-130.84
-117.65
-89.00
-48.44
-2.70
40.49
74.99
97.83
109.32
111.84
108.20
100.49
89.79
76.80
62.48
48.46
36.75
29.01
26.00
27.12
30.71
34.56
36.73
36.02
32.21
25.95
18.34
10.35
2.56
-5.00
-12.68
-21.02
-30.42
-41.22
-53.81
-68.55
-85.28
-102.60
-117.36
-125.02
-121.03
-102.77
-71.08
-30.49
12.12
49.90
78.19
95.58
103.37
104.05
99.78
91.71
80.22
65.83
49.88
34.55
22.29
14.86
12.65
14.52
18.23
21.32
21.90
19.18
13.49
5.90
-2.38
-10.53
-18.27
-25.83
-33.63
-42.07
-51.51
-62.42
-75.51
-91.23
-108.94
-126.13
-138.36
-140.39
-128.14
-100.73
-61.36
-16.45
26.57
61.68
85.96
99.62
104.73
103.71
98.17
88.88
76.40
61.75
46.70
33.43
23.86
18.92
18.31
20.53
23.53
25.33
24.62
21.05
15.15
7.92
0.34
-7.02
-14.14
-21.40
-29.33
-38.35
-48.82
-61.16
-75.78
-92.65
-110.46
-126.14
-135.12
-132.62
-115.64
-84.56
-43.56
0.56
40.66
71.54
91.18
100.50
102.01
98.29
91.03
81.03
68.88
55.54
42.67
32.11
25.29
22.63
23.31
25.66
27.82
28.34
26.57
22.59
16.99
10.44
3.43
-3.81
-11.28
-19.04
-27.14
-35.66
-44.88
-55.39
-67.97
-82.92
-99.20
-113.91
-122.55
-120.40
-104.43
-74.95
-35.96
6.03
44.18
73.56
92.29
101.22
102.69
99.00
91.66
81.49
69.18
55.89
43.28
33.07
26.45
23.67
23.95
25.91
28.06
29.21
28.61
26.00
21.39
15.04
7.33
-1.28
-10.25
-19.09
-27.49
-35.45
-43.34
-52.02
-62.63
-76.01
-91.88
-108.15
-120.83
-124.97
-116.44
-93.81
-59.29
-18.26
22.44
56.86
81.53
95.93
101.61
100.75
95.11
85.66
73.05
58.32
43.21
29.95
20.56
16.14
16.40
19.76
23.96
26.83
26.97
24.04
18.67
12.01
5.09
-1.48
-7.69
-13.97
-20.89
-28.93
-38.46
-49.87
-63.50
-79.22
-95.71
-110.04
-117.97
-115.19
-99.15
-70.47
-33.23
6.25
41.59
68.31
84.83
92.11
92.32
87.57
79.21
67.95
54.51
40.15
26.62
15.82
9.06
6.68
7.88
11.06
14.34
16.14
15.49
12.15
6.48
-0.83
-9.00
-17.37
-25.50
-33.21
-40.58
-47.98
-56.10
-65.94
-78.46
-93.91
-110.87
-125.86
-133.84
-129.80
-110.88
-77.95
-35.82
8.26
47.08
75.80
93.00
100.19
100.22
95.71
88.25
78.46
66.74
53.93
41.40
30.78
23.34
19.50
18.76
19.80
21.10
21.30
19.58
15.73
10.03
2.98
-4.92
-13.29
-21.88
-30.51
-39.01
-47.34
-55.71
-64.84
-75.77
-89.33
-105.12
-120.81
-132.05
-133.61
-121.37
-94.30
-55.37
-10.85
31.81
66.46
89.99
102.51
106.28
104.05
97.82
88.64
77.01
63.75
50.18
38.06
28.91
23.49
21.53
21.88
23.01
23.49
22.38
19.32
14.45
8.16
0.96
-6.80
-14.83
-22.96
-31.13
-39.36
-47.87
-57.24
-68.29
-81.68
-97.06
-112.36
-123.71
-126.35
-116.41
-92.72
-57.74
-17.05
22.50
55.15
77.77
90.26
94.50
92.85
87.03
77.86
65.82
51.80
37.50
25.11
16.66
13.11
14.03
17.67
21.70
23.98
23.31
19.58
13.56
6.41
-0.92
-7.94
-14.67
-21.45
-28.67
-36.69
-45.89
-56.76
-69.60
-83.98
-98.12
-108.69
-111.54
-103.07
-81.97
-50.13
-12.41
24.93
56.31
78.44
90.85
95.10
93.47
87.77
78.96
67.53
54.19
40.34
27.92
18.82
14.15
13.71
16.07
19.05
20.56
19.24
14.80
7.92
-0.20
-8.39
-15.96
-22.82
-29.36
-36.17
-43.87
-53.04
-64.31
-78.10
-94.19
-110.93
-124.97
-131.72
-126.79
-107.88
-76.06
-35.90
5.97
43.06
71.01
88.46
96.52
97.52
93.65
86.35
76.44
64.67
52.14
40.38
30.91
24.83
22.37
22.81
24.69
26.34
26.39
24.07
19.40
12.96
5.57
-2.12
-9.79
-17.44
-25.22
-33.32
-41.92
-51.36
-62.27
-75.24
-90.26
-105.83
-118.67
-124.22
-118.19
-98.42
-66.12
-25.93
15.58
52.10
79.40
96.18
103.57
103.82
99.16
91.17
80.89
69.30
57.58
47.04
38.80
33.41
30.71
29.95
30.10
30.19
29.54
27.68
24.39
19.56
13.19
5.49
-3.18
-12.22
-21.07
-29.37
-37.12
-44.76
-53.19
-63.51
-76.53
-92.00
-107.98
-120.78
-125.68
-118.60
-97.80
-64.96
-24.97
15.63
50.81
76.80
92.65
99.64
99.94
95.47
87.50
76.90
64.70
52.29
41.25
32.87
27.67
25.34
24.97
25.49
26.04
26.04
25.12
22.98
19.28
13.78
6.50
-2.17
-11.51
-20.65
-28.99
-36.30
-42.98
-49.98
-58.58
-69.91
-84.21
-100.09
-114.28
-122.13
-119.12
-102.52
-72.87
-34.15
7.36
45.11
74.28
92.90
101.61
102.55
98.06
89.86
79.05
66.50
53.39
41.20
31.39
24.88
21.76
21.28
22.21
23.37
23.86
23.20
21.13
17.45
12.04
4.91
-3.66
-13.09
-22.62
-31.58
-39.66
-46.98
-54.25
-62.60
-73.25
-86.83
-102.53
-117.55
-127.41
-127.16
-113.30
-85.49
-47.16
-4.55
35.38
67.18
88.35
99.25
101.97
98.88
91.72
81.56
69.34
56.31
44.12
34.31
27.76
24.35
23.19
23.06
23.03
22.72
22.13
21.28
19.80
16.99
12.06
4.64
-4.92
-15.61
-26.18
-35.57
-43.39
-50.03
-56.57
-64.50
-75.22
-89.32
-105.78
-121.59
-132.03
-132.00
-117.96
-89.58
-50.33
-6.55
34.66
67.73
90.00
101.71
104.89
101.99
94.85
84.73
72.71
60.15
48.68
39.76
34.11
31.42
30.60
30.31
29.66
28.44
26.99
25.66
24.32
22.23
18.33
11.81
2.61
-8.42
-19.88
-30.34
-39.03
-46.01
-52.22
-59.17
-68.51
-81.32
-97.36
-114.47
-128.49
-134.25
-127.25
-105.58
-71.03
-28.89
13.83
50.63
77.49
93.41
99.80
99.08
93.44
84.41
73.10
60.66
48.49
38.10
30.52
26.02
24.06
23.61
23.65
23.61
23.33
22.85
21.98
20.19
16.70
10.83
2.46
-7.83
-18.87
-29.37
-38.43
-45.93
-52.56
-59.70
-69.03
-81.82
-98.07
-115.83
-131.04
-138.41
-133.13
-112.89
-79.08
-36.75
7.02
45.44
74.03
91.43
98.88
98.84
93.71
85.17
74.33
62.15
49.85
38.81
30.23
24.71
22.14
21.80
22.63
23.71
24.30
24.00
22.49
19.53
14.90
8.52
0.56
-8.44
-17.76
-26.68
-34.81
-42.26
-49.83
-58.80
-70.45
-85.18
-101.59
-116.16
-123.87
-119.84
-101.37
-69.43
-28.74
13.71
51.03
78.57
94.96
101.55
101.02
95.77
87.21
75.86
62.14
47.07
32.45
20.45
12.75
9.95
11.17
14.48
17.54
18.51
16.54
11.84
5.38
-1.73
-8.73
-15.45
-22.12
-29.17
-36.95
-45.62
-55.44
-66.88
-80.43
-95.93
-111.72
-124.24
-128.68
-120.67
-98.24
-63.23
-21.01
21.21
56.88
82.09
96.26
101.23
99.73
93.93
84.94
73.21
59.37
44.70
31.13
20.56
14.18
12.02
12.97
15.23
17.05
17.20
15.20
11.18
5.66
-0.81
-7.87
-15.29
-23.01
-30.97
-39.18
-47.80
-57.36
-68.73
-82.62
-98.77
-115.12
-127.68
-131.39
-122.00
-98.01
-61.76
-18.98
23.14
58.32
82.99
96.78
101.55
99.96
94.14
85.31
74.17
61.46
48.48
36.91
28.32
23.57
22.50
23.93
26.19
27.63
27.15
24.35
19.44
13.03
5.78
-1.77
-9.31
-16.70
-24.01
-31.41
-39.28
-48.27
-59.23
-72.77
-88.56
-104.56
-116.95
-120.95
-112.48
-90.03
-55.68
-14.78
25.83
60.00
84.13
97.69
102.37
100.72
94.82
85.89
74.55
61.48
47.90
35.48
25.89
20.17
18.34
19.31
21.37
22.75
22.24
19.42
14.63
8.62
2.08
-4.62
-11.43
-18.54
-26.14
-34.29
-43.10
-52.92
-64.43
-78.17
-93.72
-108.91
-119.74
-121.39
-110.06
-84.82
-48.51
-7.01
32.72
65.01
87.05
99.00
102.89
101.00
94.82
84.95
71.77
56.33
40.63
27.24
18.38
15.06
16.60
20.93
25.41
27.81
26.93
22.84
16.53
9.25
1.99
-4.85
-11.37
-18.06
-25.40
-33.90
-44.09
-56.48
-71.23
-87.48
-102.82
-113.30
-114.45
-102.92
-78.20
-43.27
-3.86
33.47
63.50
83.73
94.37
97.24
94.37
87.10
76.12
62.09
46.31
30.84
18.07
9.87
6.84
8.10
11.59
14.83
15.83
13.65
8.49
1.44
-6.23
-13.59
-20.33
-26.77
-33.50
-41.12
-50.13
-61.00
-74.18
-89.64
-106.24
-121.21
-130.29
-128.92
-114.01
-85.56
-47.12
-4.82
34.73
66.50
88.24
100.29
104.44
102.61
96.19
86.06
73.16
58.90
45.12
33.65
25.74
21.66
20.75
21.66
22.89
23.15
21.55
17.76
11.87
4.35
-4.19
-13.16
-22.12
-30.83
-39.31
-47.74
-56.59
-66.65
-78.83
-93.57
-110.03
-125.47
-135.49
-135.21
-121.19
-93.09
-54.25
-10.73
30.67
64.60
88.45
102.30
107.95
107.57
102.86
94.93
84.68
73.19
61.87
52.18
45.15
41.15
39.71
39.76
39.98
39.22
36.71
32.20
25.89
18.27
9.92
1.36
-7.11
-15.39
-23.60
-31.94
-40.79
-50.68
-62.37
-76.37
-92.31
-108.19
-120.33
-124.15
-115.81
-93.94
-60.60
-20.80
19.09
53.49
79.06
95.12
102.81
103.95
100.13
92.42
81.75
69.26
56.51
45.12
36.39
30.92
28.46
28.13
28.75
29.21
28.66
26.57
22.70
17.03
9.78
1.33
-7.80
-17.03
-25.90
-34.18
-42.00
-49.96
-59.08
-70.53
-84.94
-101.49
-117.40
-128.15
-128.80
-115.86
-88.93
-51.29
-8.90
31.58
65.02
88.96
103.53
110.33
111.11
107.00
98.59
86.55
72.18
57.56
44.97
36.19
31.93
31.56
33.43
35.57
36.27
34.56
30.33
24.09
16.63
8.62
0.45
-7.79
-16.17
-24.79
-33.78
-43.52
-54.69
-68.00
-83.53
-99.89
-113.86
-120.89
-116.65
-98.85
-68.57
-30.24
9.79
45.42
72.57
89.92
98.39
99.90
96.28
88.70
77.94
64.91
51.03
38.07
27.75
21.17
18.45
18.67
20.30
21.63
21.27
18.45
13.09
5.67
-3.02
-12.23
-21.37
-30.16
-38.60
-46.85
-55.26
-64.40
-75.10
-88.08
-103.32
-119.21
-132.27
-137.70
-131.04
-110.09
-76.18
-34.13
9.33
47.83
77.24
96.42
106.50
109.56
107.43
101.20
91.54
79.28
65.77
52.79
42.07
34.75
31.01
30.13
30.73
31.33
30.69
28.10
23.42
16.93
9.20
0.80
-7.80
-16.33
-24.71
-33.02
-41.48
-50.55
-61.02
-73.75
-89.04
-105.79
-120.99
-130.05
-128.13
-112.18
-82.46
-42.94
-0.06
39.42
70.57
91.40
102.52
105.94
103.76
97.46
87.99
76.21
63.31
50.83
40.28
32.68
28.34
26.78
26.96
27.69
27.86
26.69
23.73
18.87
12.26
4.21
-4.83
-14.33
-23.74
-32.67
-40.91
-48.66
-56.62
-65.98
-77.88
-92.68
-108.92
-123.03
-129.89
-124.59
-104.48
-70.72
-28.28
15.64
54.07
82.48
99.59
106.81
106.72
101.65
93.09
81.94
69.10
55.86
43.83
34.48
28.65
26.38
26.90
29.03
31.54
33.36
33.79
32.44
29.17
24.02
17.04
8.30
-2.06
-13.71
-26.18
-38.94
-51.67
-64.64
-78.66
-94.52
-111.91
-128.55
-140.06
-141.24
-128.17
-100.22
-60.91
-16.94
24.15
56.55
77.78
88.53
91.31
88.65
81.99
71.80
58.39
42.84
27.31
14.52
6.74
4.86
8.00
13.79
19.27
22.00
20.76
15.80
8.44
0.26
-7.57
-14.72
-21.58
-28.84
-37.05
-46.53
-57.51
-70.38
-85.45
-102.15
-118.29
-129.78
-131.65
-119.91
-93.64
-55.86
-12.86
28.01
60.90
83.07
94.90
98.66
96.76
90.71
81.09
68.32
53.46
38.46
25.68
17.05
13.35
13.88
16.82
19.93
21.32
20.00
15.94
9.83
2.64
-4.89
-12.42
-20.01
-27.86
-36.19
-45.11
-54.90
-66.22
-79.96
-96.46
-114.57
-130.94
-140.44
-137.81
-119.86
-87.28
-44.85
0.09
40.22
70.58
89.64
98.72
100.43
97.19
90.42
80.81
69.05
56.35
44.48
35.23
29.76
28.20
29.57
32.24
34.47
34.95
33.06
28.78
22.58
15.05
6.74
-1.95
-10.78
-19.64
-28.51
-37.50
-47.06
-58.00
-71.27
-87.18
-104.52
-120.04
-128.86
-126.04
-108.65
-77.38
-36.74
6.37
45.00
74.44
93.18
102.42
104.62
102.03
95.97
87.03
75.76
63.23
50.99
40.72
33.60
29.96
29.21
30.16
31.50
32.09
31.17
28.41
23.74
17.38
9.65
0.96
-8.25
-17.59
-26.75
-35.70
-44.80
-54.95
-67.39
-82.98
-101.25
-119.55
-133.20
-136.72
-125.94
-99.97
-61.97
-18.33
23.61
58.00
81.99
95.82
101.54
101.45
97.04
88.95
77.59
63.95
49.84
37.57
29.12
25.43
26.06
29.33
33.00
35.03
34.20
30.31
24.04
16.49
8.62
0.96
-6.45
-13.96
-21.96
-30.81
-40.91
-52.78
-66.87
-83.00
-99.54
-113.11
-119.07
-113.19
-93.47
-61.50
-22.25
17.60
51.93
77.09
92.40
99.32
99.91
95.63
87.05
74.47
58.80
42.01
26.89
16.07
11.07
11.59
15.60
20.12
22.41
20.95
15.83
8.43
0.54
-6.53
-12.50
-18.08
-24.44
-32.68
-43.45
-57.10
-73.64
-92.56
-112.19
-129.28
-139.25
-137.43
-120.98
-90.47
-50.26
-7.16
31.84
61.92
81.51
91.81
95.23
93.78
88.33
78.97
65.98
50.72
35.65
23.59
16.66
15.34
18.25
22.74
26.00
26.07
22.43
15.92
8.06
0.19
-7.01
-13.73
-20.67
-28.62
-38.17
-49.73
-63.63
-79.95
-98.06
-115.85
-129.58
-134.60
-126.85
-104.73
-70.22
-28.56
13.42
49.61
76.31
92.84
100.65
101.99
98.62
91.53
81.31
68.83
55.61
43.64
34.77
30.02
29.24
31.09
33.59
34.79
33.35
28.85
21.79
13.16
4.05
-4.77
-13.08
-21.06
-29.12
-37.66
-47.05
-57.78
-70.45
-85.38
-101.89
-117.59
-128.36
-129.42
-117.11
-90.74
-53.41
-11.19
28.88
61.15
82.86
94.24
97.42
94.92
88.63
79.71
69.00
57.59
46.93
38.42
32.94
30.48
30.21
30.86
31.29
30.75
28.94
25.85
21.55
16.05
9.39
1.59
-7.16
-16.55
-26.17
-35.66
-44.83
-54.00
-63.97
-75.86
-90.23
-106.20
-120.87
-129.64
-127.74
-112.14
-83.16
-44.62
-2.72
36.17
67.46
89.25
102.00
107.31
106.80
101.58
92.46
80.49
67.25
54.75
44.80
38.50
35.87
35.91
37.06
37.83
37.09
34.38
29.78
23.66
16.53
8.74
0.60
-7.74
-16.11
-24.38
-32.55
-40.90
-50.13
-61.14
-74.40
-89.20
-103.09
-112.14
-112.02
-99.73
-74.96
-40.56
-1.68
35.91
67.64
91.08
105.94
113.18
114.04
109.50
100.38
87.74
73.24
59.00
47.12
39.03
35.01
34.04
34.31
33.83
31.13
25.70
17.94
8.84
-0.58
-9.70
-18.48
-27.30
-36.64
-46.85
-58.11
-70.64
-84.79
-100.77
-118.05
-134.62
-146.89
-150.45
-141.66
-119.29
-85.36
-44.71
-3.37
33.36
62.25
82.40
94.57
100.02
99.90
95.09
86.53
75.58
63.95
53.40
45.19
39.83
36.99
35.76
35.14
34.20
32.36
29.25
24.68
18.57
10.91
1.91
-8.02
-18.28
-28.26
-37.54
-46.12
-54.57
-63.98
-75.52
-89.77
-105.89
-121.15
-131.34
-131.92
-119.69
-94.19
-58.13
-16.67
24.23
59.57
86.43
104.15
113.68
116.63
114.53
108.66
100.13
90.09
79.74
70.20
62.23
56.04
51.40
47.73
44.47
41.17
37.53
33.31
28.24
22.02
14.41
5.40
-4.71
-15.36
-25.87
-35.77
-44.87
-53.48
-62.37
-72.63
-85.17
-100.12
-116.10
-130.02
-137.63
-134.80
-119.09
-90.94
-53.76
-12.91
25.94
58.45
82.41
97.64
105.19
106.47
102.73
95.07
84.67
72.96
61.50
51.67
44.30
39.50
36.67
34.92
33.35
31.34
28.52
24.68
19.61
13.10
5.05
-4.40
-14.75
-25.26
-35.18
-44.02
-51.77
-58.98
-66.74
-76.28
-88.37
-102.62
-116.93
-127.65
-130.45
-121.84
-100.54
-68.28
-29.44
10.31
45.74
73.38
91.98
102.19
105.50
103.49
97.42
88.27
77.13
65.32
54.34
45.47
39.41
36.03
34.53
33.78
32.69
30.54
26.90
21.69
14.95
6.90
-2.09
-11.50
-20.79
-29.55
-37.65
-45.34
-53.25
-62.29
-73.34
-86.76
-101.67
-115.65
-124.94
-125.41
-114.05
-90.29
-56.53
-17.50
21.21
54.80
80.41
97.29
106.14
108.29
105.08
97.69
87.32
75.42
63.53
53.04
44.87
39.20
35.58
33.24
31.38
29.43
27.01
23.84
19.61
13.99
6.74
-2.05
-11.91
-22.05
-31.62
-40.04
-47.19
-53.60
-60.30
-68.66
-79.82
-94.00
-109.84
-124.16
-132.56
-130.69
-115.96
-88.63
-52.07
-11.69
26.77
58.91
82.53
97.48
104.85
105.98
102.08
94.18
83.49
71.60
60.22
50.81
44.03
39.69
36.87
34.54
32.00
29.16
26.31
23.66
21.02
17.64
12.57
5.18
-4.44
-15.44
-26.56
-36.65
-45.19
-52.36
-59.09
-66.66
-76.33
-88.79
-103.54
-118.43
-129.80
-133.32
-125.41
-104.81
-73.30
-35.38
3.22
37.38
63.86
81.70
91.56
94.74
92.48
85.78
75.79
64.04
52.39
42.58
35.63
31.56
29.53
28.31
26.97
25.16
23.10
21.20
19.56
17.75
14.88
10.02
2.66
-6.91
-17.68
-28.28
-37.51
-44.84
-50.53
-55.59
-61.50
-69.70
-81.03
-95.16
-110.15
-122.44
-127.63
-121.87
-103.32
-73.16
-35.50
3.94
39.60
67.64
86.59
96.93
100.14
97.78
91.09
81.20
69.35
57.07
45.97
37.24
31.39
28.17
26.85
26.55
26.58
26.42
25.69
24.04
21.11
16.65
10.65
3.40
-4.59
-12.73
-20.54
-27.81
-34.65
-41.61
-49.63
-59.72
-72.31
-86.48
-99.48
-107.16
-105.22
-91.00
-64.89
-30.47
6.50
40.11
66.14
82.86
90.88
91.94
87.89
80.09
69.42
56.74
43.22
30.31
19.45
11.61
7.10
5.49
5.82
6.94
7.71
7.23
4.95
0.77
-5.06
-11.98
-19.38
-26.75
-33.85
-40.74
-47.66
-55.10
-63.70
-74.21
-87.09
-101.77
-116.08
-126.16
-127.43
-116.28
-91.84
-56.77
-16.69
21.70
52.91
74.13
85.44
88.78
86.56
80.59
71.85
60.91
48.54
35.92
24.52
15.61
9.81
6.95
6.20
6.40
6.45
5.59
3.39
-0.19
-4.99
-10.69
-16.94
-23.33
-29.51
-35.21
-40.33
-45.10
-50.18
-56.67
-65.71
-77.68
-91.47
-104.00
-110.75
-107.23
-90.77
-61.94
-24.57
15.36
51.86
80.66
100.08
110.66
114.02
111.82
105.22
95.04
82.26
68.24
54.67
43.11
34.54
29.19
26.49
25.42
24.84
23.80
21.62
18.01
12.98
6.82
-0.08
-7.35
-14.74
-22.15
-29.60
-37.25
-45.46
-54.89
-66.36
-80.24
-95.66
-109.95
-118.85
-117.82
-103.86
-77.02
-40.87
-1.42
35.01
63.79
83.04
93.34
96.47
94.09
87.14
76.05
61.47
44.93
28.80
15.66
7.39
4.44
5.65
8.80
11.48
11.94
9.63
5.11
-0.40
-5.76
-10.37
-14.39
-18.49
-23.50
-30.19
-39.09
-50.54
-64.51
-80.17
-95.37
-106.65
-109.90
-101.85
-81.54
-51.13
-15.45
19.63
49.15
70.42
83.21
88.80
88.75
84.06
75.12
62.37
46.99
31.09
17.24
7.60
3.06
2.96
5.29
7.62
7.96
5.52
0.70
-5.36
-11.50
-17.15
-22.53
-28.33
-35.34
-44.06
-54.74
-67.46
-82.12
-98.01
-113.28
-124.69
-128.26
-120.55
-100.24
-69.08
-31.58
6.47
39.90
65.65
83.03
93.01
96.98
95.88
90.10
80.06
66.81
52.35
39.15
29.39
24.13
22.92
23.99
25.05
24.19
20.52
14.35
6.84
-0.71
-7.42
-13.16
-18.46
-24.13
-30.96
-39.59
-50.47
-63.75
-78.84
-94.02
-106.21
-111.54
-106.56
-89.71
-62.24
-28.01
7.67
39.84
65.24
82.76
92.90
96.80
95.46
89.54
79.76
67.30
54.01
42.01
33.09
28.08
26.53
26.95
27.38
26.14
22.35
16.13
8.35
0.07
-7.92
-15.33
-22.36
-29.45
-37.09
-45.69
-55.73
-67.63
-81.50
-96.51
-110.47
-119.93
-121.03
-110.87
-88.85
-57.12
-20.06
17.11
49.94
75.72
93.64
104.19
108.27
106.72
100.24
89.76
76.75
63.21
51.24
42.47
37.57
35.96
36.20
36.44
35.17
31.57
25.70
18.22
10.02
1.87
-5.81
-13.02
-19.98
-27.14
-35.06
-44.44
-55.96
-69.87
-85.35
-100.16
-110.70
-112.95
-103.84
-82.60
-51.37
-14.67
22.05
54.09
78.66
95.11
104.15
106.95
104.37
96.97
85.48
71.34
56.74
44.16
35.55
31.54
31.21
32.50
33.07
31.17
26.22
18.76
9.94
0.96
-7.43
-15.09
-22.30
-29.59
-37.48
-46.55
-57.42
-70.45
-85.25
-100.14
-112.03
-116.96
-111.38
-93.66
-64.95
-29.07
8.64
43.07
70.72
90.30
102.22
107.73
107.97
103.69
95.36
83.68
69.88
55.68
42.87
32.80
25.93
21.74
19.02
16.35
12.63
7.38
0.76
-6.67
-14.28
-21.65
-28.63
-35.35
-42.02
-48.97
-56.68
-65.92
-77.53
-91.87
-107.99
-123.12
-132.92
-132.68
-119.12
-91.90
-54.20
-11.79
28.89
62.77
87.53
103.54
112.87
117.81
119.84
119.42
116.42
110.87
103.42
95.34
88.17
83.18
81.04
81.74
84.59
88.24
90.53
88.68
79.70
61.32
32.96
-3.72
-45.01
-86.28
-123.27
-153.37
-176.06
-192.63
-205.32
-216.09
-225.60
-232.65
-234.36
-227.06
-207.84
-175.95
-133.48
-85.10
-36.57
6.92
42.08
67.77
84.56
93.71
96.54
94.36
88.61
81.10
73.79
68.28
65.36
64.75
65.42
66.10
65.95
64.78
62.95
60.93
58.79
56.03
51.69
44.87
35.23
23.28
10.21
-2.47
-13.68
-23.10
-31.34
-39.75
-49.85
-62.74
-78.44
-95.38
-110.39
-119.28
-118.05
-104.36
-78.69
-44.45
-7.03
27.93
56.27
76.15
87.91
93.07
93.29
89.75
83.31
74.96
66.11
58.47
53.47
51.67
52.51
54.60
56.44
57.08
56.39
54.87
53.13
51.29
48.82
44.75
38.25
29.11
17.99
6.19
-4.90
-14.41
-22.28
-29.27
-36.75
-46.18
-58.62
-74.17
-91.55
-107.92
-119.30
-121.60
-111.97
-90.07
-58.48
-22.07
13.53
43.62
65.63
79.20
85.51
86.25
82.83
76.33
67.73
58.24
49.37
42.50
38.46
37.22
38.03
39.76
41.45
42.51
42.69
41.93
40.04
36.64
31.32
23.89
14.58
4.05
-6.72
-16.81
-25.68
-33.41
-40.77
-49.10
-59.78
-73.47
-89.42
-105.02
-116.16
-118.41
-108.63
-86.34
-54.17
-17.07
19.21
50.00
72.71
86.91
93.67
94.51
90.78
83.63
74.21
63.94
54.41
46.93
42.12
39.67
38.56
37.60
36.00
33.63
30.89
28.25
25.78
22.86
18.43
11.49
1.66
-10.53
-23.72
-36.29
-47.03
-55.60
-62.61
-69.45
-77.79
-88.97
-103.39
-119.92
-135.75
-146.73
-148.42
-137.65
-113.80
-79.35
-39.23
0.72
35.65
62.75
81.49
92.82
98.08
98.35
94.36
86.97
77.53
67.87
59.83
54.56
52.15
51.64
51.55
50.63
48.40
45.17
41.71
38.62
35.84
32.53
27.42
19.44
8.35
-5.05
-19.12
-32.01
-42.41
-50.03
-55.70
-61.00
-67.72
-77.28
-90.19
-105.68
-121.39
-133.65
-138.20
-131.40
-111.64
-80.20
-41.13
-0.05
37.61
68.16
90.37
104.95
113.52
117.43
117.38
113.62
106.60
97.46
88.07
80.46
76.15
75.48
77.56
80.77
83.48
84.76
84.67
84.00
83.63
83.93
84.51
84.58
83.52
81.28
78.31
74.77
69.80
61.17
45.81
21.21
-13.31
-56.02
-103.28
-150.79
-194.73
-231.93
-259.39
-273.70
-271.43
-250.46
-211.84
-160.51
-104.47
-52.32
-10.52
18.37
35.40
43.57
45.78
43.66
37.75
28.46
17.00
5.45
-3.91
-9.57
-11.35
-10.32
-8.10
-6.03
-4.63
-3.67
-2.61
-1.20
0.17
0.50
-1.32
-5.94
-13.12
-21.76
-30.39
-37.72
-43.28
-47.52
-51.72
-57.52
-66.40
-78.99
-94.57
-110.69
-123.45
-128.37
-121.82
-102.41
-71.69
-33.88
5.51
41.32
70.05
90.31
102.34
107.19
106.02
99.83
89.65
76.75
62.80
49.58
38.60
30.70
25.96
23.70
22.86
22.37
21.34
19.27
15.89
11.18
5.29
-1.49
-8.69
-15.79
-22.32
-28.11
-33.40
-38.96
-45.86
-55.31
-67.96
-83.31
-99.16
-111.68
-116.27
-109.01
-88.30
-55.72
-15.90
24.98
61.04
88.38
105.73
113.98
115.10
111.03
103.16
92.41
79.64
65.97
52.84
41.60
33.18
27.77
24.88
23.55
22.70
21.44
19.09
15.31
9.97
3.24
-4.55
-12.95
-21.50
-29.88
-37.98
-45.86
-53.87
-62.61
-72.92
-85.49
-100.22
-115.50
-128.04
-133.42
-127.54
-108.33
-76.85
-37.31
4.26
41.94
71.62
91.77
103.01
107.14
105.98
100.95
93.00
83.08
72.33
62.11
53.60
47.52
43.88
42.00
40.94
39.78
37.89
34.98
30.92
25.62
18.96
10.91
1.58
-8.60
-19.01
-29.01
-38.22
-46.78
-55.42
-65.39
-77.90
-93.29
-110.27
-125.65
-134.89
-133.51
-118.84
-91.20
-54.17
-13.44
24.95
56.44
78.84
92.26
98.22
98.59
94.91
88.28
79.54
69.63
59.67
50.77
43.77
38.98
36.10
34.46
33.32
31.97
30.01
27.14
23.18
17.98
11.50
3.85
-4.68
-13.64
-22.65
-31.51
-40.33
-49.66
-60.36
-73.25
-88.50
-104.93
-119.68
-128.71
-127.85
-114.45
-88.56
-53.21
-13.61
24.56
56.73
80.51
95.64
103.27
104.95
101.96
95.18
85.37
73.53
61.02
49.38
39.97
33.54
30.01
28.51
27.74
26.29
23.17
17.99
11.05
3.13
-4.92
-12.44
-19.24
-25.56
-31.93
-38.96
-47.25
-57.40
-69.78
-84.23
-99.48
-112.89
-120.68
-119.07
-105.66
-80.62
-46.95
-9.64
25.90
55.54
77.18
90.72
97.25
98.02
93.95
85.65
73.91
60.07
46.04
33.93
25.32
20.72
19.38
19.66
19.66
17.93
13.85
7.73
0.37
-7.37
-14.96
-22.34
-29.81
-37.82
-46.70
-56.76
-68.30
-81.67
-96.81
-112.73
-127.01
-135.94
-135.46
-122.67
-97.24
-61.91
-21.77
17.38
50.79
75.95
92.55
101.72
104.94
103.27
97.34
87.73
75.47
62.14
49.65
39.66
33.05
29.66
28.39
27.68
26.10
22.70
17.28
10.18
2.09
-6.34
-14.70
-22.87
-30.98
-39.30
-48.21
-58.23
-70.02
-84.17
-100.52
-117.55
-132.08
-139.76
-136.43
-119.73
-90.32
-51.96
-10.43
28.43
60.31
83.32
97.69
104.86
106.41
103.55
97.11
87.85
76.87
65.54
55.34
47.40
42.16
39.29
37.84
36.64
34.62
31.16
26.03
19.41
11.68
3.23
-5.55
-14.41
-23.21
-31.90
-40.59
-49.62
-59.67
-71.54
-85.65
-101.33
-116.22
-126.51
-127.82
-116.88
-92.98
-58.60
-18.80
20.44
54.07
79.29
95.66
104.42
107.33
105.86
100.92
93.23
83.65
73.37
63.74
55.83
50.13
46.36
43.71
41.21
38.05
33.79
28.30
21.64
13.95
5.32
-4.08
-13.99
-24.04
-33.83
-43.10
-51.89
-60.75
-70.66
-82.65
-97.10
-112.96
-127.41
-136.27
-135.26
-121.60
-95.36
-59.66
-19.80
18.50
50.77
74.74
90.28
98.49
100.75
98.17
91.60
82.03
70.89
59.99
51.04
45.13
42.37
41.91
42.39
42.44
41.08
37.90
32.91
26.44
18.91
10.74
2.32
-6.03
-14.07
-21.76
-29.31
-37.29
-46.56
-58.01
-71.89
-87.23
-101.45
-110.70
-110.91
-99.25
-75.42
-42.06
-4.09
32.83
63.99
86.80
100.96
107.75
108.97
106.10
100.07
91.51
81.26
70.62
61.19
54.41
51.02
50.76
52.48
54.60
55.61
54.52
51.01
45.44
38.63
31.50
24.87
19.24
14.74
11.20
8.18
4.76
-0.57
-9.66
-23.94
-43.18
-64.67
-83.36
-93.29
-89.96
-72.21
-42.84
-7.43
27.97
58.94
83.65
102.25
115.46
123.30
124.89
119.18
106.04
86.97
64.88
43.24
25.00
11.75
3.46
-1.09
-3.72
-6.25
-10.06
-15.96
-24.20
-34.60
-46.73
-59.96
-73.61
-87.06
-99.86
-111.82
-123.21
-134.84
-147.87
-163.18
-180.35
-196.80
-207.73
-207.32
-190.97
-157.56
-110.53
-57.09
-5.77
36.51
66.44
84.59
94.00
98.22
99.78
99.82
98.60
96.27
93.21
89.83
86.21
81.89
76.14
68.39
58.73
47.97
37.25
27.52
18.97
10.96
2.38
-7.76
-19.77
-33.08
-46.45
-58.50
-68.32
-75.71
-81.37
-86.62
-93.05
-101.90
-113.22
-125.24
-134.30
-135.69
-125.36
-101.73
-66.80
-25.70
14.97
49.47
74.55
89.88
97.09
98.27
94.97
87.96
77.85
65.71
53.30
42.57
34.95
30.82
29.46
29.59
30.05
30.25
30.22
30.18
30.05
29.15
26.39
20.79
12.05
0.81
-11.52
-23.34
-33.48
-41.64
-48.48
-55.35
-63.89
-75.48
-90.50
-107.70
-123.91
-134.50
-134.68
-121.35
-94.48
-57.55
-16.49
22.31
53.99
76.23
89.17
94.31
93.37
87.65
78.12
65.84
52.30
39.31
28.56
21.16
17.36
16.61
17.85
19.95
21.90
22.99
22.78
21.03
17.69
12.85
6.79
-0.10
-7.42
-14.81
-22.11
-29.34
-36.78
-45.09
-55.14
-67.63
-82.34
-97.46
-109.50
-114.10
-107.62
-88.76
-59.49
-24.49
10.35
39.98
61.54
74.58
80.34
80.51
76.47
69.09
59.10
47.55
35.90
25.78
18.42
14.37
13.31
14.27
16.03
17.46
17.73
16.38
13.25
8.40
2.11
-5.26
-13.27
-21.44
-29.43
-37.09
-44.57
-52.43
-61.60
-73.07
-87.30
-103.48
-119.03
-129.86
-131.46
-120.56
-96.55
-62.03
-22.01
17.63
52.03
78.45
96.32
106.55
110.53
109.45
104.26
95.87
85.49
74.62
64.74
56.94
51.64
48.53
46.83
45.61
44.07
41.65
37.98
32.86
26.17
17.95
8.41
-2.03
-12.79
-23.30
-33.18
-42.44
-51.63
-61.83
-74.30
-89.76
-107.49
-124.90
-137.75
-141.33
-132.17
-109.47
-75.66
-35.72
4.50
40.00
67.84
87.19
98.77
103.84
103.64
99.25
91.76
82.47
72.84
64.20
57.40
52.62
49.46
47.23
45.25
43.05
40.33
36.83
32.21
26.09
18.23
8.70
-2.01
-13.07
-23.65
-33.17
-41.62
-49.58
-58.18
-68.75
-82.22
-98.46
-115.63
-130.30
-138.07
-135.01
-119.07
-91.10
-54.78
-15.47
21.43
51.93
74.20
88.27
95.30
96.75
93.91
87.87
79.77
70.85
62.42
55.54
50.76
48.04
46.83
46.35
45.89
44.92
43.10
40.15
35.77
29.68
21.75
12.13
1.34
-9.85
-20.66
-30.62
-39.70
-48.52
-58.23
-70.07
-84.76
-101.69
-118.51
-131.31
-135.62
-127.96
-107.23
-75.46
-37.27
1.49
35.60
61.78
79.08
88.36
91.31
89.53
84.18
76.12
66.31
55.99
46.60
39.45
35.29
34.07
35.03
37.00
38.74
39.26
37.95
34.57
29.20
22.14
13.84
4.80
-4.51
-13.76
-22.88
-32.06
-41.88
-53.12
-66.42
-81.67
-97.45
-110.75
-117.60
-114.22
-98.63
-71.70
-37.18
-0.60
32.59
58.62
76.16
85.92
89.56
88.62
83.97
76.09
65.56
53.58
41.97
32.64
26.93
25.10
26.23
28.62
30.44
30.30
27.62
22.62
15.99
8.54
0.80
-6.97
-14.81
-22.84
-31.21
-40.21
-50.35
-62.33
-76.58
-92.51
-107.94
-119.13
-121.74
-112.50
-90.70
-58.83
-21.94
14.08
44.46
66.69
80.72
87.96
90.17
88.60
83.91
76.57
67.35
57.50
48.52
41.72
37.71
36.35
36.75
37.72
38.09
37.03
34.12
29.41
23.19
15.89
7.94
-0.31
-8.69
-17.13
-25.73
-34.72
-44.62
-56.10
-69.77
-85.47
-101.68
-115.23
-121.92
-117.88
-101.26
-73.27
-38.05
-1.36
31.38
56.63
73.33
82.35
85.38
83.99
79.28
72.04
63.20
53.95
45.57
39.06
34.83
32.67
31.99
32.05
32.27
32.21
31.51
29.81
26.72
22.00
15.68
8.13
-0.02
-8.15
-15.83
-23.05
-30.19
-37.98
-47.34
-58.97
-72.88
-87.75
-100.73
-107.92
-105.54
-91.49
-66.42
-33.86
0.87
32.43
57.10
73.49
82.30
85.24
84.11
80.21
74.38
67.34
59.97
53.32
48.31
45.52
45.06
46.58
49.42
52.88
56.27
58.98
60.52
60.49
58.77
55.57
51.43
47.12
43.33
40.47
38.50
36.92
34.98
31.83
26.81
19.82
11.82
5.05
2.89
8.82
24.92
50.43
81.30
111.12
133.27
143.23
139.96
125.64
103.99
78.33
50.37
20.41
-11.58
-44.64
-76.43
-103.74
-123.72
-134.90
-137.71
-134.01
-126.32
-117.03
-108.00
-100.55
-95.56
-93.61
-94.91
-99.09
-105.24
-111.88
-117.39
-120.46
-120.49
-117.96
-114.48
-112.19
-112.88
-116.85
-122.22
-125.13
-121.06
-106.66
-81.35
-47.83
-11.15
23.11
50.73
69.86
80.87
85.37
84.97
80.73
73.13
62.69
50.38
37.76
26.60
18.28
13.40
11.56
11.60
12.05
11.66
9.65
5.81
0.40
-6.16
-13.42
-21.07
-28.91
-36.88
-44.90
-53.03
-61.48
-70.75
-81.49
-94.01
-107.61
-120.00
-127.45
-125.77
-111.93
-85.58
-49.62
-9.48
28.64
59.77
81.49
93.98
99.07
98.92
95.14
88.55
79.64
69.13
58.20
48.34
40.89
36.50
34.93
35.21
36.02
36.10
34.56
31.06
25.70
18.86
11.07
2.82
-5.53
-13.78
-21.88
-29.96
-38.34
-47.61
-58.55
-71.73
-86.86
-102.19
-114.33
-119.00
-112.49
-93.36
-63.39
-27.24
9.06
40.14
62.91
76.90
83.58
84.98
82.75
77.79
70.62
61.90
52.72
44.42
38.12
34.35
32.87
32.92
33.60
34.10
33.92
32.78
30.48
26.82
21.65
14.95
6.93
-1.93
-11.04
-19.86
-28.13
-35.98
-44.11
-53.58
-65.36
-79.60
-94.89
-108.02
-114.65
-110.82
-94.64
-67.36
-33.22
2.02
33.03
56.52
71.72
79.78
82.48
81.27
77.02
70.27
61.75
52.62
44.21
37.62
33.36
31.20
30.47
30.40
30.39
30.11
29.35
27.87
25.25
21.05
14.97
7.15
-1.87
-11.21
-20.05
-27.92
-34.92
-41.76
-49.56
-59.56
-72.49
-87.86
-103.50
-115.63
-119.82
-112.52
-92.63
-62.29
-26.32
9.37
39.73
61.96
75.74
82.40
83.76
81.17
75.40
67.00
56.78
46.09
36.51
29.39
25.43
24.48
25.70
27.90
29.92
30.89
30.27
27.85
23.71
18.12
11.47
4.20
-3.26
-10.67
-18.02
-25.56
-33.81
-43.54
-55.40
-69.47
-84.64
-98.29
-106.63
-105.76
-93.27
-69.39
-37.37
-2.44
29.82
55.33
72.43
81.64
84.72
83.40
78.80
71.45
61.80
50.73
39.63
30.04
23.16
19.45
18.54
19.44
20.91
21.84
21.35
18.97
14.60
8.45
0.99
-7.19
-15.52
-23.62
-31.38
-38.98
-46.96
-56.15
-67.51
-81.54
-97.64
-113.46
-125.09
-128.00
-118.78
-96.66
-64.17
-26.50
10.29
41.24
63.76
77.75
84.69
86.45
84.49
79.65
72.51
63.85
54.75
46.43
39.85
35.44
33.07
32.18
32.08
32.10
31.65
30.22
27.37
22.81
16.51
8.79
0.23
-8.50
-16.88
-24.77
-32.40
-40.47
-49.92
-61.71
-76.28
-92.84
-108.99
-120.85
-124.03
-115.24
-93.73
-61.98
-25.05
11.05
41.33
63.10
76.22
82.23
83.16
80.61
75.57
68.61
60.41
51.91
44.25
38.33
34.65
33.04
32.95
33.63
34.41
34.78
34.36
32.77
29.67
24.76
17.99
9.64
0.34
-9.15
-18.18
-26.51
-34.43
-42.78
-52.70
-65.18
-80.33
-96.74
-111.34
-119.84
-118.18
-104.08
-78.23
-44.34
-8.02
25.09
51.05
68.41
77.85
81.16
80.07
75.76
68.89
60.12
50.40
40.97
33.09
27.62
24.78
24.17
25.04
26.48
27.66
27.92
26.80
24.05
19.65
13.79
6.83
-0.75
-8.52
-16.17
-23.61
-31.08
-39.19
-48.84
-60.83
-75.24
-90.75
-104.39
-112.01
-109.65
-95.16
-69.35
-36.03
-0.83
30.78
55.09
70.96
79.30
81.91
80.38
75.53
67.72
57.47
45.91
34.78
25.94
20.66
19.23
20.75
23.57
25.84
26.16
23.93
19.46
13.63
7.38
1.32
-4.48
-10.40
-16.96
-24.54
-33.44
-43.91
-56.29
-70.73
-86.52
-101.61
-112.47
-115.01
-106.08
-84.99
-54.20
-18.68
15.73
44.28
64.56
76.64
82.05
82.65
79.64
73.57
64.78
54.00
42.61
32.37
24.83
20.85
20.22
21.88
24.29
25.92
25.71
23.20
18.59
12.50
5.60
-1.54
-8.72
-16.04
-23.75
-32.15
-41.55
-52.41
-65.16
-80.00
-96.11
-111.18
-121.49
-122.81
-112.05
-88.77
-55.76
-18.32
17.52
47.02
67.91
80.41
86.19
87.10
84.40
78.67
70.37
60.32
49.87
40.58
33.73
29.92
28.85
29.58
30.84
31.40
30.40
27.45
22.68
16.52
9.55
2.23
-5.20
-12.74
-20.57
-28.87
-37.92
-48.16
-60.18
-74.37
-90.29
-106.03
-118.10
-122.21
-114.82
-94.74
-64.00
-27.41
8.96
39.85
62.30
75.93
82.22
83.26
80.70
75.48
68.08
59.13
49.57
40.72
33.77
29.46
27.80
28.17
29.54
30.84
31.21
30.12
27.44
23.28
17.91
11.63
4.74
-2.59
-10.22
-18.12
-26.39
-35.33
-45.47
-57.36
-71.06
-85.46
-97.96
-104.80
-102.12
-87.53
-61.31
-26.72
10.99
46.20
74.66
94.45
105.83
110.44
110.20
106.72
101.19
94.72
88.52
83.84
81.52
81.49
82.63
82.93
80.22
72.86
60.36
43.45
23.70
3.05
-16.75
-34.38
-49.06
-60.44
-68.56
-73.87
-77.18
-79.66
-82.70
-87.58
-94.97
-104.23
-112.97
-116.99
-111.34
-91.85
-57.01
-8.93
47.09
104.19
156.21
199.33
232.48
256.45
272.57
281.81
284.81
282.54
276.96
270.98
267.79
269.80
277.80
290.77
306.15
320.57
330.50
332.92
325.83
308.59
282.04
248.25
210.01
170.13
130.89
93.57
58.45
25.02
-7.70
-40.67
-74.53
-109.29
-144.51
-179.45
-213.47
-246.35
-278.34
-310.07
-342.49
-376.91
-414.85
-457.38
-503.79
-550.47
-590.71
-616.14
-619.46
-597.26
-551.36
-487.97
-414.99
-339.00
-263.63
-190.02
-118.69
-51.29
9.21
60.06
100.64
133.30
162.02
189.85
216.58
238.38
249.69
246.31
227.96
198.77
165.57
135.08
111.72
96.86
89.23
85.93
83.26
77.38
65.08
44.77
17.05
-15.42
-49.13
-81.38
-111.04
-138.10
-162.02
-180.32
-188.46
-181.24
-155.10
-109.90
-49.62
18.43
85.06
140.84
177.62
189.97
176.25
139.08
84.72
21.32
-43.30
-103.46
-156.26
-200.99
-237.84
-266.75
-286.94
-296.97
-295.20
-280.34
-251.93
-210.87
-159.84
-103.28
-46.68
4.56
46.49
77.33
97.51
108.74
112.81
110.72
102.32
86.63
62.63
30.16
-9.42
-52.81
-95.02
-130.31
-153.54
-161.86
-155.87
-139.72
-119.88
-103.03
-93.94
-94.20
-102.35
-115.05
-128.78
-141.07
-150.99
-158.66
-164.41
-167.85
-167.67
-161.96
-148.96
-127.75
-98.52
-62.40
-21.05
23.61
69.54
114.45
155.64
190.26
215.72
230.40
234.14
228.36
215.71
199.46
182.81
168.35
157.78
151.63
149.37
149.65
150.76
151.26
150.39
148.28
145.72
143.84
143.43
144.48
145.85
145.40
140.42
128.33
107.55
78.12
42.12
3.56
-32.40
-60.57
-77.16
-80.80
-72.80
-56.58
-36.34
-15.82
2.57
17.76
29.39
37.24
40.84
39.81
34.38
25.73
15.92
7.18
1.15
-1.63
-1.87
-1.07
-0.85
-2.33
-5.88
-11.10
-17.20
-23.41
-29.28
-34.74
-40.09
-45.79
-52.49
-60.94
-71.78
-85.14
-100.07
-114.15
-123.77
-125.18
-115.80
-95.48
-66.77
-34.07
-2.21
25.12
46.07
60.50
69.10
72.68
71.71
66.59
58.10
47.65
37.11
28.30
22.32
19.17
17.81
16.68
14.43
10.44
5.12
-0.44
-4.95
-7.61
-8.43
-8.28
-8.49
-10.45
-15.24
-23.45
-35.03
-49.09
-63.63
-75.63
-81.50
-78.21
-64.39
-41.15
-11.82
19.03
47.17
69.89
86.36
97.12
103.18
105.20
103.32
97.56
88.34
76.76
64.59
53.66
45.32
39.98
37.09
35.42
33.60
30.66
26.21
20.44
13.75
6.39
-1.68
-10.77
-21.22
-33.21
-46.75
-61.84
-78.50
-96.61
-115.30
-132.42
-144.58
-147.98
-139.80
-119.58
-89.78
-55.04
-20.63
9.26
32.53
49.09
59.93
66.06
67.94
65.65
59.49
50.47
40.44
31.57
25.67
23.59
24.95
28.44
32.32
35.02
35.63
34.06
30.90
26.94
22.85
18.80
14.51
9.46
3.16
-4.71
-14.36
-25.89
-39.17
-53.42
-66.78
-76.36
-78.83
-71.72
-54.48
-29.08
0.53
29.77
54.89
73.91
86.64
93.92
96.80
95.91
91.60
84.25
74.73
64.47
55.03
47.68
43.00
40.69
39.80
39.20
37.96
35.61
32.12
27.75
22.76
17.33
11.43
4.97
-2.10
-9.75
-17.95
-26.81
-36.70
-48.01
-60.70
-73.65
-84.49
-89.97
-87.06
-74.23
-52.26
-24.26
5.38
32.42
54.04
69.27
78.60
83.16
83.91
81.47
76.30
69.04
60.74
52.66
45.93
41.24
38.65
37.69
37.60
37.59
37.00
35.41
32.59
28.55
23.46
17.59
11.18
4.48
-2.38
-9.38
-16.61
-24.41
-33.35
-43.97
-56.32
-69.42
-80.94
-87.64
-86.32
-75.16
-54.59
-27.36
2.30
30.14
53.07
69.85
80.73
86.74
88.90
87.82
83.80
77.16
68.55
58.92
49.41
40.98
34.22
29.15
25.31
22.07
18.77
15.02
10.74
6.09
1.33
-3.40
-8.08
-12.86
-17.92
-23.38
-29.32
-35.98
-43.85
-53.53
-65.16
-77.82
-89.16
-95.77
-94.28
-82.80
-61.89
-34.60
-5.43
21.25
42.55
57.51
66.71
71.26
72.02
69.32
63.32
54.50
43.98
33.43
24.60
18.72
16.17
16.34
17.99
19.74
20.54
19.91
17.94
15.03
11.57
7.76
3.54
-1.29
-6.91
-13.44
-21.03
-29.94
-40.47
-52.56
-65.33
-76.73
-83.82
-83.62
-74.32
-56.22
-31.81
-5.04
20.05
40.55
55.23
64.28
68.59
68.93
65.69
59.06
49.52
38.13
26.53
16.47
9.27
5.35
4.15
4.38
4.59
3.63
1.09
-2.73
-7.10
-11.32
-15.10
-18.74
-22.91
-28.34
-35.59
-44.92
-56.36
-69.60
-83.70
-96.84
-106.25
-108.89
-102.42
-86.45
-62.93
-35.73
-9.28
12.89
29.14
39.66
45.62
48.20
47.89
44.65
38.39
29.49
19.10
8.89
0.52
-4.90
-7.14
-6.85
-5.20
-3.35
-2.10
-1.61
-1.59
-1.58
-1.37
-1.23
-1.80
-3.88
-8.17
-15.04
-24.56
-36.37
-49.53
-62.39
-72.55
-77.31
-74.43
-63.09
-44.39
-21.16
2.88
24.33
41.02
52.37
58.89
61.51
60.92
57.49
51.48
43.54
34.91
27.15
21.69
19.19
19.25
20.61
21.67
21.14
18.58
14.40
9.55
5.02
1.35
-1.53
-4.18
-7.37
-11.77
-17.87
-25.92
-35.89
-47.17
-58.43
-67.50
-71.74
-68.94
-58.17
-40.39
-18.25
4.77
25.53
42.07
53.85
61.30
65.09
65.63
63.06
57.58
49.83
41.06
32.87
26.68
23.18
22.17
22.60
23.07
22.36
19.91
15.89
11.06
6.27
2.07
-1.54
-5.04
-9.09
-14.29
-20.98
-29.33
-39.28
-50.51
-62.01
-71.99
-77.94
-77.37
-68.80
-52.48
-30.60
-6.57
16.11
34.89
48.67
57.60
62.32
63.41
61.12
55.70
47.74
38.47
29.58
22.68
18.74
17.75
18.74
20.23
20.83
19.75
17.01
13.23
9.19
5.46
2.09
-1.32
-5.38
-10.70
-17.71
-26.57
-37.16
-48.84
-60.29
-69.47
-73.91
-71.55
-61.51
-44.63
-23.35
-0.91
19.67
36.38
48.51
56.22
59.98
60.15
56.89
50.55
41.94
32.44
23.70
17.15
13.53
12.61
13.35
14.34
14.35
12.69
9.44
5.22
0.78
-3.32
-6.98
-10.59
-14.77
-20.23
-27.50
-36.78
-47.75
-59.40
-69.93
-76.94
-78.04
-71.63
-57.62
-37.67
-14.78
7.71
27.07
41.84
51.83
57.64
60.00
59.41
56.10
50.39
42.93
34.84
27.44
21.87
18.73
17.83
18.34
19.10
19.01
17.43
14.29
10.00
5.21
0.45
-4.09
-8.55
-13.28
-18.67
-25.04
-32.65
-41.71
-52.15
-63.29
-73.57
-80.54
-81.51
-74.56
-59.49
-38.13
-13.88
9.54
29.21
43.78
53.33
58.71
60.75
59.93
56.47
50.71
43.44
35.87
29.30
24.72
22.48
22.21
23.03
23.88
23.85
22.40
19.48
15.47
10.90
6.31
1.94
-2.24
-6.52
-11.28
-16.88
-23.64
-31.81
-41.46
-52.20
-62.88
-71.47
-75.44
-72.53
-61.66
-43.61
-20.94
2.76
24.08
40.75
52.02
58.40
60.98
60.73
58.22
53.81
47.85
41.03
34.27
28.53
24.48
22.27
21.52
21.50
21.36
20.46
18.46
15.34
11.29
6.57
1.42
-4.06
-9.75
-15.58
-21.40
-27.16
-32.99
-39.36
-46.88
-55.89
-65.90
-75.26
-81.32
-81.32
-73.40
-57.61
-36.02
-12.09
10.50
28.98
42.12
50.08
53.78
54.21
52.11
47.99
42.35
35.94
29.66
24.42
20.77
18.83
18.28
18.53
18.96
19.04
18.39
16.80
14.20
10.61
6.14
1.01
-4.50
-10.10
-15.49
-20.54
-25.29
-30.10
-35.62
-42.51
-51.06
-60.64
-69.53
-75.11
-74.72
-66.70
-51.18
-30.25
-7.25
14.32
31.90
44.34
51.80
55.12
55.17
52.60
47.93
41.77
34.97
28.54
23.31
19.75
17.80
17.02
16.88
16.89
16.71
16.10
14.88
12.84
9.83
5.80
0.90
-4.55
-10.16
-15.58
-20.65
-25.46
-30.41
-36.09
-43.14
-51.82
-61.58
-70.86
-77.22
-78.00
-71.31
-56.89
-36.38
-12.97
9.68
28.56
42.05
50.07
53.52
53.61
51.27
47.05
41.32
34.58
27.59
21.27
16.45
13.53
12.45
12.69
13.56
14.37
14.64
14.05
12.39
9.56
5.55
0.52
-5.19
-11.10
-16.72
-21.76
-26.26
-30.65
-35.75
-42.39
-51.01
-61.07
-70.83
-77.56
-78.39
-71.35
-56.36
-35.37
-11.86
10.44
28.65
41.47
49.04
52.32
52.37
49.88
45.23
38.79
31.20
23.42
16.56
11.47
8.57
7.70
8.18
9.11
9.59
8.98
7.07
4.00
0.18
-3.98
-8.24
-12.56
-17.02
-21.77
-26.91
-32.62
-39.22
-47.09
-56.38
-66.45
-75.59
-81.20
-80.53
-71.84
-55.20
-32.78
-8.14
14.93
33.60
46.59
54.07
57.02
56.53
53.42
48.21
41.40
33.75
26.27
19.97
15.55
13.20
12.55
12.89
13.45
13.61
12.95
11.31
8.68
5.18
0.99
-3.66
-8.56
-13.55
-18.59
-23.76
-29.34
-35.79
-43.62
-53.13
-63.92
-74.52
-82.43
-84.68
-78.93
-64.52
-42.97
-17.63
7.44
28.77
44.44
54.19
58.89
59.79
57.81
53.55
47.39
39.96
32.18
25.13
19.70
16.31
14.78
14.50
14.72
14.82
14.40
13.26
11.30
8.39
4.43
-0.57
-6.41
-12.72
-19.07
-25.17
-30.96
-36.75
-43.16
-50.91
-60.42
-71.33
-82.10
-90.07
-92.10
-85.73
-70.27
-47.36
-20.54
5.87
28.26
44.72
55.12
60.51
62.19
61.06
57.49
51.75
44.34
36.20
28.49
22.21
17.89
15.51
14.62
14.59
14.80
14.70
13.86
11.97
8.83
4.44
-1.06
-7.32
-13.90
-20.41
-26.52
-32.17
-37.61
-43.46
-50.56
-59.51
-70.07
-80.68
-88.55
-90.36
-83.55
-67.40
-43.62
-15.87
11.50
34.84
52.15
63.16
68.76
70.21
68.46
64.17
57.85
50.21
42.16
34.71
28.64
24.37
21.83
20.65
20.30
20.20
19.85
18.85
16.88
13.77
9.54
4.34
-1.47
-7.53
-13.51
-19.25
-24.88
-30.81
-37.78
-46.55
-57.51
-69.97
-81.89
-90.06
-91.03
-82.35
-63.79
-37.60
-7.93
20.60
44.41
61.76
72.73
78.46
80.21
78.84
74.78
68.43
60.53
52.22
44.84
39.48
36.66
36.16
37.05
38.05
37.82
35.33
30.10
22.23
12.29
1.16
-10.34
-21.49
-31.84
-41.17
-49.54
-57.33
-65.30
-74.38
-85.20
-97.35
-108.89
-116.58
-116.74
-106.79
-86.49
-58.35
-26.83
3.18
27.92
45.71
56.75
62.29
63.64
61.59
56.50
48.75
39.18
29.09
20.06
13.36
9.61
8.55
9.21
10.28
10.57
9.41
6.65
2.64
-2.09
-7.14
-12.33
-17.73
-23.59
-30.14
-37.61
-46.31
-56.61
-68.67
-81.95
-94.74
-104.11
-106.63
-99.59
-82.21
-56.30
-25.76
4.67
30.97
50.90
64.10
71.48
74.30
73.49
69.56
62.92
54.26
44.74
35.78
28.68
24.20
22.35
22.40
23.23
23.70
22.98
20.73
17.04
12.31
6.93
1.18
-4.86
-11.29
-18.24
-25.87
-34.41
-44.22
-55.62
-68.58
-82.11
-93.99
-101.01
-99.93
-88.78
-67.92
-40.17
-9.93
18.28
41.23
57.63
67.82
72.92
74.01
71.78
66.66
59.24
50.45
41.54
33.75
27.92
24.40
22.94
22.88
23.37
23.56
22.77
20.62
17.08
12.39
6.92
1.03
-5.09
-11.38
-17.96
-25.02
-32.88
-42.00
-52.79
-65.22
-78.24
-89.56
-95.96
-94.24
-82.55
-61.32
-33.41
-3.25
24.62
46.93
62.31
71.08
74.56
74.12
70.83
65.38
58.39
50.59
42.92
36.31
31.52
28.88
28.20
28.87
30.05
30.82
30.43
28.47
24.89
19.92
13.98
7.45
0.61
-6.43
-13.61
-20.94
-28.47
-36.49
-45.56
-56.28
-68.74
-81.79
-92.88
-98.41
-95.07
-81.17
-57.72
-28.20
2.55
30.03
51.39
65.85
74.16
77.63
77.37
74.05
68.19
60.60
52.47
45.19
39.88
37.05
36.42
37.21
38.45
39.43
39.77
39.38
38.23
36.21
33.12
28.76
23.10
16.41
9.20
2.09
-4.46
-10.29
-15.74
-21.54
-28.56
-37.33
-47.49
-57.54
-65.10
-67.65
-63.58
-52.98
-37.72
-20.80
-5.29
6.73
14.56
18.56
19.61
18.37
15.14
10.03
3.37
-4.06
-11.00
-16.13
-18.44
-17.63
-14.18
-9.25
-4.29
-0.61
0.96
0.25
-2.28
-5.87
-9.80
-13.64
-17.37
-21.26
-25.69
-31.02
-37.62
-45.85
-55.88
-67.25
-78.46
-86.86
-89.22
-82.88
-66.95
-42.92
-14.37
14.21
38.93
57.56
69.68
76.17
78.29
77.05
72.99
66.54
58.31
49.33
40.87
34.10
29.74
27.85
27.87
28.78
29.47
28.99
26.80
22.88
17.60
11.60
5.47
-0.42
-6.06
-11.74
-17.91
-25.11
-33.88
-44.66
-57.48
-71.52
-84.80
-94.31
-96.69
-89.47
-72.16
-46.76
-17.26
11.65
36.06
53.86
64.85
70.14
71.23
69.29
65.05
58.97
51.60
43.83
36.72
31.20
27.77
26.34
26.27
26.66
26.63
25.56
23.20
19.57
14.92
9.54
3.69
-2.45
-8.80
-15.31
-22.01
-29.04
-36.75
-45.71
-56.37
-68.53
-80.86
-90.79
-95.01
-90.65
-76.51
-53.76
-25.80
2.91
28.27
47.72
60.56
67.52
69.92
68.96
65.38
59.69
52.44
44.44
36.77
30.45
26.17
24.07
23.76
24.47
25.36
25.70
25.01
23.03
19.69
15.09
9.40
2.89
-4.06
-11.13
-18.07
-24.87
-31.82
-39.54
-48.75
-59.86
-72.37
-84.45
-93.13
-95.10
-87.87
-70.97
-46.36
-17.87
10.03
33.65
51.00
61.85
67.13
68.11
65.87
61.14
54.60
47.11
39.68
33.31
28.66
25.89
24.69
24.47
24.65
24.78
24.53
23.63
21.82
18.82
14.47
8.80
2.07
-5.28
-12.74
-19.88
-26.51
-32.78
-39.30
-46.98
-56.61
-68.19
-80.30
-90.09
-93.95
-88.89
-73.85
-50.42
-22.43
5.43
29.16
46.63
57.66
63.31
64.94
63.43
59.14
52.32
43.63
34.26
25.80
19.62
16.45
16.12
17.69
19.82
21.26
21.18
19.26
15.67
10.83
5.26
-0.67
-6.73
-12.87
-19.13
-25.63
-32.57
-40.32
-49.37
-59.94
-71.54
-82.54
-90.22
-91.47
-83.93
-67.15
-42.97
-15.15
11.91
34.58
50.91
60.76
65.15
65.41
62.58
57.30
50.09
41.62
32.91
25.14
19.32
15.95
14.84
15.25
16.11
16.41
15.45
12.99
9.20
4.50
-0.68
-6.02
-11.40
-16.90
-22.69
-29.02
-36.14
-44.42
-54.24
-65.68
-78.03
-89.45
-97.07
-97.68
-89.02
-70.76
-45.03
-15.80
12.40
35.92
52.90
63.29
68.20
68.99
66.67
61.77
54.70
46.05
36.78
28.07
21.00
16.25
13.88
13.36
13.75
14.00
13.25
11.05
7.38
2.60
-2.78
-8.36
-13.92
-19.51
-25.35
-31.71
-38.94
-47.43
-57.53
-69.23
-81.71
-92.98
-100.08
-99.83
-90.12
-70.87
-44.37
-14.66
13.84
37.67
55.12
66.25
72.12
73.99
72.80
69.09
63.29
56.03
48.25
41.04
35.33
31.61
29.75
29.12
28.82
28.00
26.08
22.87
18.50
13.28
7.55
1.56
-4.59
-10.91
-17.49
-24.50
-32.19
-40.97
-51.25
-63.13
-75.86
-87.57
-95.40
-96.27
-88.02
-70.46
-45.72
-17.67
9.34
31.94
48.48
59.02
64.61
66.37
65.01
60.83
54.16
45.80
37.08
29.56
24.58
22.67
23.47
25.85
28.38
29.79
29.35
26.98
23.08
18.20
12.79
7.04
0.94
-5.60
-12.65
-20.34
-28.92
-38.83
-50.28
-62.77
-74.58
-82.91
-84.62
-77.45
-61.14
-37.77
-11.13
14.59
36.18
52.10
62.34
67.72
69.00
66.58
60.64
51.64
40.66
29.42
19.81
13.31
10.42
10.57
12.35
14.11
14.51
12.98
9.73
5.45
0.89
-3.55
-7.91
-12.58
-18.05
-24.74
-32.95
-42.97
-54.94
-68.57
-82.64
-94.82
-101.92
-100.93
-90.23
-70.45
-44.54
-16.77
8.73
29.18
43.67
52.75
57.47
58.63
56.51
51.19
43.14
33.54
24.24
17.19
13.80
14.44
18.30
23.78
29.03
32.58
33.69
32.42
29.39
25.33
20.80
15.97
10.71
4.75
-2.20
-10.39
-20.11
-31.60
-44.72
-58.53
-70.94
-78.98
-79.59
-70.83
-52.88
-28.25
-1.02
24.49
45.12
59.54
68.09
71.99
72.45
70.23
65.64
58.98
50.86
42.30
34.54
28.58
24.89
23.24
22.78
22.45
21.28
18.75
14.81
9.84
4.37
-1.23
-6.83
-12.58
-18.79
-25.72
-33.57
-42.53
-52.83
-64.48
-76.96
-88.74
-97.25
-99.43
-92.82
-76.72
-52.69
-24.26
4.21
29.01
47.98
60.73
68.06
71.10
70.69
67.27
61.23
53.23
44.40
36.20
29.91
26.24
25.08
25.57
26.44
26.49
24.91
21.49
16.57
10.77
4.69
-1.28
-7.04
-12.78
-18.75
-25.15
-32.24
-40.29
-49.62
-60.22
-71.35
-81.19
-87.00
-85.94
-76.13
-57.64
-32.74
-5.25
20.69
41.96
57.03
66.01
69.86
69.71
66.39
60.45
52.50
43.42
34.46
26.99
22.04
19.97
20.30
21.93
23.46
23.73
22.14
18.70
13.91
8.40
2.63
-3.21
-9.25
-15.73
-22.84
-30.65
-39.24
-48.79
-59.58
-71.63
-84.20
-95.35
-102.16
-101.52
-91.38
-71.85
-45.44
-16.31
11.13
33.66
49.94
60.31
65.90
67.86
66.85
63.24
57.54
50.62
43.72
37.98
34.13
32.23
31.77
32.02
32.34
32.30
31.67
30.23
27.71
23.79
18.28
11.26
3.18
-5.29
-13.42
-20.73
-27.13
-33.04
-39.27
-46.84
-56.56
-68.49
-81.39
-92.67
-98.86
-96.77
-84.76
-63.58
-36.28
-7.19
19.50
40.98
56.29
65.83
70.66
71.70
69.61
64.94
58.50
51.43
44.95
39.93
36.65
34.75
33.54
32.39
31.06
29.63
28.37
27.31
26.11
24.05
20.32
14.48
6.69
-2.27
-11.23
-19.19
-25.62
-30.66
-35.09
-40.00
-46.53
-55.42
-66.59
-78.75
-89.38
-95.19
-93.13
-81.60
-61.20
-34.77
-6.47
19.65
40.85
56.12
65.88
71.10
72.57
70.73
65.90
58.78
50.62
42.99
37.26
34.04
33.03
33.24
33.52
33.08
31.81
30.16
28.71
27.69
26.74
24.95
21.38
15.48
7.53
-1.47
-10.23
-17.70
-23.52
-28.13
-32.51
-37.83
-45.03
-54.62
-66.34
-78.92
-90.08
-96.77
-96.04
-86.04
-66.98
-41.26
-12.77
14.32
36.87
53.41
63.96
69.34
70.43
67.85
62.11
53.98
44.73
35.94
29.01
24.72
22.98
23.00
23.73
24.35
24.52
24.30
23.90
23.33
22.22
19.92
15.84
9.80
2.22
-6.01
-13.84
-20.47
-25.69
-29.92
-34.07
-39.25
-46.39
-55.88
-67.18
-78.59
-87.42
-90.54
-85.44
-71.19
-49.03
-22.12
5.42
29.82
48.66
61.24
68.13
70.38
68.90
64.28
57.04
48.04
38.63
30.28
24.14
20.54
18.88
18.05
17.03
15.46
13.63
12.15
11.34
10.86
9.71
6.75
1.35
-6.29
-15.14
-23.82
-31.25
-37.04
-41.60
-45.90
-51.12
-58.26
-67.79
-79.29
-91.19
-100.77
-104.73
-100.17
-85.75
-62.42
-33.37
-2.97
24.58
46.46
61.66
70.59
74.21
73.43
68.85
61.09
51.20
40.76
31.54
24.91
21.31
20.15
20.13
20.01
19.11
17.57
16.04
15.12
14.84
14.51
12.92
9.04
2.54
-5.96
-15.19
-23.73
-30.63
-35.76
-39.74
-43.66
-48.71
-55.82
-65.49
-77.37
-90.10
-101.05
-106.86
-104.30
-91.56
-69.17
-40.10
-8.83
20.14
43.66
60.53
71.16
76.64
77.91
75.41
69.44
60.62
50.27
40.18
32.05
26.86
24.56
24.20
24.41
24.14
23.02
21.43
20.06
19.37
19.15
18.49
16.18
11.30
3.75
-5.58
-15.21
-23.71
-30.33
-35.28
-39.59
-44.55
-51.35
-60.63
-72.40
-85.81
-99.04
-109.28
-113.25
-108.11
-92.59
-67.79
-37.09
-5.15
23.69
46.61
62.80
72.91
78.15
79.36
76.88
70.90
62.07
51.83
42.06
34.54
30.21
28.87
29.36
30.17
30.16
28.95
26.97
24.96
23.50
22.56
21.46
19.13
14.63
7.61
-1.50
-11.59
-21.30
-29.54
-35.85
-40.57
-44.59
-49.11
-55.23
-63.74
-74.84
-87.84
-100.85
-110.80
-114.04
-107.53
-90.05
-63.05
-30.42
2.76
31.89
54.19
69.05
77.47
80.89
80.37
76.40
69.27
59.73
49.24
39.67
32.66
28.98
28.19
28.94
29.60
29.08
27.17
24.55
22.21
20.80
20.21
19.48
17.27
12.52
4.98
-4.62
-14.84
-24.17
-31.64
-37.12
-41.38
-45.62
-51.08
-58.65
-68.72
-80.92
-93.99
-105.65
-112.79
-112.22
-101.72
-81.04
-52.39
-19.83
11.94
39.07
59.45
72.82
80.01
82.13
79.97
74.09
65.22
54.59
43.90
34.86
28.57
25.21
23.99
23.72
23.32
22.41
21.26
20.49
20.49
21.03
21.12
19.48
15.09
7.78
-1.63
-11.64
-20.69
-27.84
-33.13
-37.45
-42.17
-48.63
-57.70
-69.50
-83.16
-96.67
-106.99
-110.64
-104.75
-88.21
-62.32
-30.67
1.99
31.20
54.03
69.49
78.05
80.83
78.86
72.94
63.90
52.95
41.69
31.74
24.26
19.56
17.23
16.40
16.33
16.62
17.23
18.12
18.96
18.99
17.25
12.99
6.12
-2.68
-12.19
-21.09
-28.56
-34.49
-39.52
-44.78
-51.60
-60.99
-73.29
-87.62
-101.65
-111.85
-114.32
-106.16
-86.67
-58.00
-24.47
8.72
37.22
58.58
72.42
79.73
81.91
80.06
74.94
67.23
57.87
48.13
39.29
32.27
27.34
24.13
21.95
20.18
18.51
17.01
15.87
15.07
14.16
12.31
8.64
2.70
-5.33
-14.58
-23.85
-32.17
-39.11
-45.05
-51.00
-58.40
-68.47
-81.58
-96.52
-110.38
-119.01
-118.32
-105.87
-82.01
-49.99
-14.93
17.95
44.88
64.27
76.36
82.35
83.44
80.53
74.39
65.98
56.62
47.74
40.47
35.28
31.98
29.91
28.38
27.02
25.77
24.78
24.07
23.30
21.73
18.49
12.88
4.80
-5.13
-15.76
-25.75
-34.11
-40.53
-45.55
-50.44
-56.77
-65.90
-78.17
-92.35
-105.55
-113.79
-113.28
-101.85
-79.95
-50.67
-18.69
11.26
35.81
53.55
64.76
70.58
72.17
70.40
65.95
59.62
52.48
45.75
40.39
36.87
35.06
34.46
34.50
34.83
35.34
36.03
36.70
36.86
35.74
32.64
27.25
19.88
11.40
2.84
-4.97
-11.77
-17.93
-24.41
-32.42
-43.02
-56.52
-71.94
-86.68
-96.99
-98.98
-90.09
-70.33
-42.53
-11.53
17.54
40.82
56.71
65.62
69.08
68.64
65.18
59.10
50.75
40.87
30.75
21.89
15.49
12.12
11.57
13.01
15.35
17.58
18.93
18.96
17.54
14.71
10.69
5.72
0.11
-5.88
-12.13
-18.61
-25.53
-33.35
-42.67
-53.96
-66.89
-79.99
-90.46
-94.84
-90.20
-75.44
-51.97
-23.50
5.20
29.90
48.04
59.17
64.32
65.05
62.57
57.48
49.99
40.43
29.64
19.01
10.16
4.42
2.48
4.07
8.18
13.36
18.16
21.54
22.98
22.51
20.46
17.20
12.97
7.79
1.53
-6.01
-15.03
-25.74
-38.22
-52.22
-66.67
-79.45
-87.60
-88.05
-78.82
-59.91
-33.65
-4.08
24.37
48.18
65.52
76.26
81.33
81.90
78.96
73.17
65.19
55.87
46.32
37.73
31.06
26.79
24.83
24.59
25.18
25.63
25.12
23.17
19.65
14.75
8.87
2.39
-4.36
-11.25
-18.29
-25.62
-33.46
-42.20
-52.32
-64.15
-77.34
-90.46
-100.83
-105.14
-100.53
-85.83
-62.27
-33.24
-3.22
23.68
44.86
59.51
68.24
72.19
72.45
69.79
64.81
58.33
51.45
45.40
41.25
39.57
40.28
42.81
46.34
50.08
53.41
55.81
56.80
55.92
52.84
47.56
40.58
32.79
25.25
18.70
13.21
8.04
1.74
-7.38
-20.71
-38.54
-59.52
-80.53
-97.21
-105.19
-101.51
-85.83
-60.66
-30.58
-0.68
24.90
44.00
56.31
62.74
64.54
62.73
58.13
51.57
44.17
37.18
31.62
27.98
26.00
24.95
24.03
22.76
21.15
19.53
18.17
16.96
15.34
12.51
7.81
1.13
-7.04
-15.72
-23.92
-30.99
-36.91
-42.26
-48.06
-55.44
-65.20
-77.27
-90.28
-101.50
-107.42
-104.80
-91.94
-69.53
-40.61
-9.61
19.08
42.36
58.94
69.03
73.63
73.77
70.35
64.16
56.27
47.97
40.59
35.09
31.84
30.53
30.45
30.84
31.18
31.22
30.89
30.05
28.36
25.40
20.81
14.57
7.06
-1.02
-8.95
-16.19
-22.61
-28.50
-34.51
-41.50
-50.33
-61.36
-73.94
-86.05
-94.55
-95.96
-87.86
-69.95
-44.44
-15.41
12.55
35.83
52.63
62.95
67.86
68.64
66.25
61.27
54.23
45.91
37.38
29.82
24.12
20.65
19.15
18.94
19.25
19.44
19.15
18.17
16.27
13.19
8.70
2.77
-4.29
-11.90
-19.40
-26.30
-32.50
-38.35
-44.58
-52.15
-61.86
-73.82
-86.93
-98.71
-105.68
-104.43
-92.99
-71.75
-43.58
-12.89
15.89
39.56
56.78
67.74
73.38
74.69
72.37
67.06
59.66
51.43
43.80
37.91
34.18
32.27
31.30
30.38
29.04
27.36
25.77
24.62
23.73
22.34
19.39
14.06
6.24
-3.33
-13.39
-22.68
-30.46
-36.76
-42.32
-48.28
-55.79
-65.70
-78.05
-91.76
-104.41
-112.62
-112.93
-103.06
-82.99
-55.19
-23.91
6.23
31.71
50.87
63.76
71.37
74.72
74.43
70.91
64.77
57.15
49.61
43.59
39.91
38.44
38.25
38.16
37.29
35.48
33.24
31.29
30.07
29.33
28.22
25.59
20.61
13.17
3.99
-5.68
-14.55
-21.88
-27.67
-32.69
-38.12
-45.23
-54.91
-67.21
-81.12
-94.32
-103.57
-105.47
-97.65
-79.75
-53.83
-23.81
5.80
31.35
50.91
64.35
72.58
76.69
77.28
74.57
68.87
61.02
52.49
44.99
39.81
37.33
36.93
37.34
37.34
36.20
34.00
31.41
29.20
27.81
26.99
25.89
23.41
18.69
11.48
2.30
-7.73
-17.34
-25.58
-32.13
-37.42
-42.36
-48.07
-55.56
-65.38
-77.30
-90.05
-101.23
-107.70
-106.37
-95.37
-74.90
-47.41
-16.92
12.27
36.86
55.23
67.34
74.02
76.24
74.67
69.87
62.52
53.85
45.35
38.47
34.02
31.94
31.40
31.29
30.78
29.69
28.42
27.53
27.20
26.93
25.63
22.09
15.66
6.57
-4.03
-14.53
-23.56
-30.48
-35.61
-40.05
-45.17
-52.23
-61.92
-74.04
-87.28
-99.20
-106.58
-106.26
-96.23
-76.55
-49.56
-19.28
9.90
34.52
52.87
64.84
71.30
73.24
71.37
66.17
58.35
49.07
39.88
32.28
27.19
24.60
23.74
23.42
22.73
21.39
19.78
18.54
18.06
18.02
17.39
14.90
9.63
1.57
-8.30
-18.46
-27.47
-34.62
-40.16
-45.10
-50.75
-58.34
-68.64
-81.67
-96.44
-110.68
-121.08
-123.91
-116.34
-97.58
-69.55
-36.40
-3.15
25.91
48.38
63.87
73.24
77.65
77.84
74.19
67.18
57.86
47.94
39.33
33.46
30.70
30.35
31.00
31.25
30.35
28.43
26.28
24.71
23.97
23.48
21.98
18.18
11.40
1.99
-8.79
-19.28
-28.12
-34.81
-39.78
-44.15
-49.29
-56.35
-66.01
-78.23
-91.96
-104.99
-114.11
-115.85
-107.61
-88.82
-61.40
-29.29
2.79
30.93
52.92
68.39
78.05
82.87
83.49
80.27
73.77
65.05
55.72
47.46
41.44
37.95
36.36
35.60
34.68
33.19
31.34
29.72
28.80
28.44
27.86
25.83
21.31
13.93
4.27
-6.37
-16.50
-25.05
-31.77
-37.26
-42.68
-49.29
-58.15
-69.80
-83.88
-98.86
-111.93
-119.43
-117.85
-105.12
-81.65
-50.45
-16.26
15.96
42.53
61.74
73.70
79.43
80.11
76.67
69.92
60.85
50.85
41.47
34.00
29.08
26.55
25.67
25.58
25.63
25.61
25.55
25.50
25.18
23.93
20.94
15.66
8.15
-0.83
-10.10
-18.51
-25.43
-31.03
-36.16
-42.11
-50.17
-61.13
-74.77
-89.46
-102.21
-109.23
-107.09
-93.97
-70.59
-40.17
-7.40
23.02
47.75
65.40
76.19
81.21
81.64
78.36
72.10
63.68
54.18
44.84
36.77
30.64
26.66
24.55
23.80
23.87
24.22
24.34
23.70
21.79
18.16
12.62
5.35
-3.14
-12.10
-20.81
-28.79
-36.02
-42.97
-50.59
-60.02
-72.17
-86.92
-102.53
-115.65
-121.98
-117.75
-101.29
-73.95
-39.84
-4.48
27.03
51.48
67.95
77.28
81.06
80.70
77.16
71.14
63.43
55.08
47.24
40.83
36.30
33.53
32.06
31.32
30.90
30.52
29.94
28.79
26.55
22.67
16.78
8.98
-0.19
-9.83
-19.08
-27.47
-35.08
-42.64
-51.27
-62.18
-76.00
-92.15
-108.40
-121.06
-125.86
-119.46
-100.83
-71.87
-36.99
-1.63
29.49
53.59
70.04
79.76
84.18
84.49
81.48
75.83
68.32
60.05
52.11
45.34
40.15
36.47
34.00
32.35
31.23
30.34
29.28
27.54
24.51
19.69
12.89
4.29
-5.53
-15.82
-25.86
-35.23
-43.92
-52.50
-62.00
-73.63
-88.07
-104.75
-121.26
-133.66
-137.58
-129.85
-109.92
-80.39
-46.17
-12.78
15.42
36.25
49.73
57.10
59.81
58.91
55.03
48.78
41.09
33.21
26.42
21.60
19.04
18.37
18.93
19.91
20.73
20.88
20.03
17.91
14.35
9.34
3.14
-3.82
-11.03
-18.11
-24.98
-31.88
-39.41
-48.36
-59.43
-72.70
-87.09
-100.09
-108.13
-107.66
-96.45
-74.71
-45.30
-12.82
17.90
43.31
61.90
73.97
80.75
83.45
82.78
79.00
72.45
63.93
54.78
46.59
40.71
37.72
37.33
38.51
39.90
40.31
39.09
36.15
31.87
26.71
21.01
14.86
8.17
0.84
-7.17
-15.95
-25.75
-37.02
-50.07
-64.46
-78.45
-89.01
-92.56
-86.22
-69.17
-43.18
-12.17
19.10
46.49
67.49
81.46
89.00
91.17
88.92
82.94
73.97
63.00
51.42
40.81
32.50
27.27
25.10
25.22
26.41
27.41
27.25
25.41
21.82
16.69
10.30
2.93
-5.19
-13.86
-22.86
-32.06
-41.56
-51.81
-63.63
-77.64
-93.55
-109.51
-122.09
-127.12
-121.23
-103.37
-75.47
-41.93
-8.07
21.63
44.77
61.00
71.32
77.00
78.90
77.48
73.19
66.80
59.52
52.61
47.02
43.12
40.78
39.53
38.85
38.33
37.57
36.22
33.83
30.06
24.77
18.09
10.43
2.30
-5.85
-13.79
-21.57
-29.56
-38.45
-49.03
-61.82
-76.38
-90.86
-102.05
-106.16
-100.13
-83.01
-56.55
-24.77
7.39
35.66
57.55
72.52
81.38
85.34
85.42
82.30
76.64
69.35
61.64
54.75
49.48
46.03
44.03
42.79
41.72
40.52
39.11
37.41
35.22
32.08
27.57
21.43
13.78
5.12
-3.90
-12.70
-21.00
-28.92
-37.05
-46.30
-57.59
-71.29
-86.51
-100.84
-110.62
-112.06
-102.65
-82.38
-53.97
-22.01
8.54
33.96
52.56
64.45
70.82
72.91
71.57
67.28
60.54
52.22
43.60
36.05
30.68
27.96
27.64
28.91
30.71
31.99
31.97
30.22
26.67
21.53
15.20
8.17
0.90
-6.30
-13.26
-20.07
-27.07
-34.88
-44.22
-55.62
-68.85
-82.47
-93.69
-99.04
-95.44
-81.57
-58.56
-29.87
-0.12
26.41
47.00
60.88
68.71
71.78
71.18
67.57
61.40
53.32
44.41
36.01
29.39
25.31
23.75
24.05
25.10
25.82
25.39
23.39
19.74
14.58
8.21
0.97
-6.78
-14.67
-22.43
-29.97
-37.49
-45.52
-54.83
-66.14
-79.58
-94.15
-107.43
-115.88
-115.84
-104.95
-83.25
-53.45
-20.19
11.52
37.81
56.89
68.90
75.08
76.88
75.36
71.20
65.06
57.79
50.51
44.18
39.39
36.19
34.22
32.98
32.11
31.41
30.69
29.58
27.51
23.87
18.27
10.80
2.05
-7.12
-15.94
-24.06
-31.62
-39.23
-47.81
-58.23
-70.94
-85.45
-99.92
-111.25
-115.78
-110.47
-94.31
-68.85
-38.00
-6.60
21.05
42.46
57.17
66.06
70.43
71.29
69.23
64.72
58.55
51.83
45.70
40.96
37.76
35.69
34.11
32.55
30.90
29.35
28.03
26.81
25.15
22.24
17.41
10.49
1.90
-7.44
-16.47
-24.42
-31.11
-37.04
-43.21
-50.79
-60.70
-72.96
-86.29
-97.95
-104.34
-102.03
-89.11
-66.11
-35.99
-3.29
27.42
52.81
71.47
83.53
89.93
91.63
89.34
83.63
75.37
65.87
56.63
48.93
43.39
39.88
37.74
36.19
34.71
33.12
31.46
29.63
27.23
23.64
18.20
10.70
1.47
-8.61
-18.47
-27.32
-34.89
-41.54
-48.10
-55.63
-65.09
-76.90
-90.47
-103.88
-113.90
-116.80
-109.58
-91.27
-63.65
-30.83
2.04
30.44
51.73
65.48
72.74
75.08
73.69
69.20
62.05
52.91
42.94
33.57
26.04
20.99
18.32
17.43
17.50
17.78
17.71
16.82
14.72
11.05
5.67
-1.21
-9.07
-17.16
-24.88
-31.90
-38.38
-44.83
-52.09
-61.13
-72.56
-86.10
-100.07
-111.28
-115.76
-110.06
-92.77
-65.31
-31.72
2.67
33.02
56.33
71.80
80.31
83.39
82.40
78.30
71.85
63.94
55.67
48.16
42.15
37.85
34.93
32.85
31.12
29.51
27.96
26.37
24.43
21.61
17.32
11.27
3.59
-5.14
-14.12
-22.66
-30.43
-37.59
-44.74
-52.87
-63.03
-75.82
-90.73
-105.66
-116.99
-120.53
-113.00
-93.51
-64.17
-29.49
5.11
35.08
57.87
73.04
81.55
84.70
83.60
79.03
71.84
63.12
54.27
46.55
40.68
36.73
34.18
32.32
30.69
29.21
28.04
27.33
26.81
25.80
23.36
18.74
11.75
2.85
-6.97
-16.63
-25.36
-33.04
-40.14
-47.67
-56.81
-68.47
-82.74
-98.31
-112.34
-120.86
-119.97
-107.29
-83.11
-50.54
-14.62
19.34
47.40
67.72
80.46
86.80
88.04
85.16
78.87
70.02
59.81
49.70
40.97
34.40
30.03
27.39
25.79
24.70
23.87
23.20
22.51
21.34
19.00
14.84
8.52
0.27
-9.12
-18.57
-27.17
-34.50
-40.84
-47.12
-54.71
-64.93
-78.38
-94.20
-109.72
-120.74
-122.73
-112.49
-89.61
-56.98
-19.94
15.52
44.70
65.38
77.74
83.38
84.07
80.93
74.44
64.96
53.29
40.87
29.43
20.47
14.78
12.28
12.17
13.35
14.70
15.34
14.73
12.65
9.10
4.26
-1.57
-8.08
-14.94
-21.91
-28.92
-36.14
-44.08
-53.53
-65.20
-79.11
-93.89
-106.52
-112.87
-109.05
-93.05
-65.86
-31.42
4.64
36.87
61.66
77.84
86.30
88.81
86.98
81.81
73.84
63.62
52.03
40.34
29.88
21.67
16.18
13.25
12.25
12.25
12.32
11.63
9.64
6.08
1.04
-5.17
-12.13
-19.38
-26.65
-33.80
-40.94
-48.43
-56.97
-67.42
-80.32
-95.23
-110.04
-121.04
-123.76
-114.65
-92.68
-60.16
-22.20
15.02
46.29
68.83
82.45
88.69
89.56
86.54
80.40
71.65
61.02
49.76
39.35
31.03
25.41
22.30
20.92
20.33
19.76
18.67
16.79
13.94
9.98
4.86
-1.34
-8.35
-15.80
-23.34
-30.77
-38.18
-46.04
-55.11
-66.19
-79.55
-94.23
-107.66
-115.97
-115.08
-102.32
-77.74
-44.47
-7.79
26.59
54.36
73.57
84.50
88.73
88.02
83.69
76.57
67.36
57.02
46.75
37.77
30.94
26.51
24.16
23.17
22.80
22.41
21.59
20.01
17.36
13.37
7.89
1.01
-6.87
-15.18
-23.30
-30.88
-37.95
-45.04
-53.04
-62.94
-75.19
-89.06
-102.21
-110.93
-111.16
-100.07
-77.38
-45.87
-10.61
22.73
49.70
68.25
78.63
82.48
81.65
77.38
70.31
60.87
49.87
38.65
28.78
21.60
17.71
16.80
17.83
19.47
20.52
20.23
18.34
14.98
10.49
5.18
-0.68
-6.97
-13.56
-20.37
-27.29
-34.41
-42.14
-51.17
-62.09
-74.69
-87.39
-97.06
-99.86
-92.62
-74.31
-46.86
-14.65
16.92
43.35
62.24
73.50
78.52
78.95
75.88
69.78
60.88
49.90
38.21
27.62
19.77
15.52
14.71
16.22
18.46
19.92
19.57
17.08
12.72
7.08
0.79
-5.72
-12.26
-18.88
-25.69
-32.92
-40.91
-50.20
-61.30
-74.25
-88.00
-100.04
-106.77
-104.57
-91.25
-67.24
-35.76
-1.83
29.34
53.98
70.56
79.55
82.54
81.23
76.83
70.08
61.60
52.18
42.88
34.81
28.80
25.17
23.73
23.84
24.64
25.25
24.89
22.99
19.26
13.75
6.82
-1.00
-9.12
-17.16
-24.94
-32.61
-40.56
-49.42
-59.93
-72.58
-87.02
-101.45
-112.63
-116.47
-109.55
-90.60
-61.32
-26.11
9.40
40.23
63.38
78.24
85.89
88.04
86.12
81.06
73.51
64.26
54.40
45.18
37.60
32.18
28.83
27.00
25.96
25.12
24.08
22.58
20.37
17.11
12.44
6.16
-1.57
-10.17
-18.87
-26.97
-34.19
-40.81
-47.61
-55.74
-66.22
-79.30
-93.92
-107.41
-115.91
-115.48
-103.60
-80.33
-48.64
-13.47
19.89
47.41
67.25
79.55
85.58
86.75
84.08
78.35
70.45
61.61
53.32
46.83
42.69
40.65
39.79
39.12
38.04
36.52
34.88
33.38
31.84
29.54
25.52
19.12
10.37
0.08
-10.50
-20.14
-28.23
-34.88
-40.89
-47.47
-55.88
-66.99
-80.76
-95.73
-108.90
-116.24
-113.91
-99.81
-74.65
-42.00
-7.19
24.50
49.44
66.36
75.94
79.76
79.30
75.47
68.85
60.18
50.60
41.58
34.39
29.77
27.66
27.39
28.03
28.81
29.20
28.94
27.83
25.57
21.82
16.33
9.19
0.83
-7.98
-16.42
-23.96
-30.55
-36.72
-43.47
-51.91
-62.76
-75.64
-88.71
-98.71
-101.86
-95.11
-77.53
-50.86
-19.21
12.36
39.42
59.35
71.69
77.47
78.26
75.37
69.61
61.55
51.91
41.78
32.45
25.04
20.18
17.81
17.34
17.89
18.58
18.69
17.70
15.26
11.22
5.62
-1.30
-9.12
-17.32
-25.43
-33.14
-40.42
-47.63
-55.48
-64.91
-76.50
-89.83
-102.93
-112.33
-114.02
-104.91
-84.31
-54.47
-20.04
13.57
41.91
62.67
75.72
82.30
83.98
81.93
76.87
69.39
60.39
51.14
42.95
36.78
32.91
30.95
30.09
29.52
28.69
27.36
25.42
22.69
18.86
13.60
6.79
-1.31
-10.05
-18.66
-26.52
-33.47
-39.92
-46.78
-55.18
-65.99
-79.30
-93.75
-106.51
-113.69
-111.62
-98.21
-74.05
-42.42
-8.28
23.34
48.85
66.81
77.60
82.58
83.17
80.44
75.13
68.00
60.01
52.24
45.62
40.65
37.35
35.35
34.12
33.23
32.37
31.30
29.73
27.24
23.37
17.88
10.82
2.64
-6.00
-14.45
-22.32
-29.62
-36.77
-44.52
-53.85
-65.46
-79.26
-93.74
-105.87
-111.66
-107.50
-91.67
-65.34
-32.42
1.69
31.93
55.03
70.04
77.89
80.28
78.78
74.39
67.79
59.67
51.05
43.11
36.83
32.64
30.35
29.27
28.66
28.04
27.21
26.10
24.55
22.14
18.31
12.67
5.25
-3.40
-12.40
-20.87
-28.32
-34.80
-40.99
-47.97
-56.95
-68.70
-82.91
-97.69
-109.59
-114.38
-108.51
-90.60
-62.34
-28.13
6.35
36.00
57.85
71.39
77.92
79.36
77.23
72.33
65.04
55.89
45.83
36.21
28.30
22.98
20.39
20.02
20.96
22.18
22.73
21.99
19.60
15.56
10.13
3.71
-3.25
-10.39
-17.49
-24.47
-31.44
-38.72
-46.93
-56.87
-69.03
-82.91
-96.44
-106.08
-107.75
-98.39
-77.43
-47.37
-13.09
19.85
46.98
66.10
77.29
82.01
81.99
78.49
72.23
63.73
53.79
43.56
34.34
27.20
22.63
20.44
19.89
19.97
19.80
18.75
16.54
13.12
8.55
2.94
-3.64
-11.04
-18.98
-27.11
-35.13
-42.91
-50.79
-59.55
-70.15
-83.05
-97.43
-110.72
-118.96
-117.97
-105.06
-80.33
-47.01
-10.47
23.64
51.14
70.26
81.47
86.43
86.88
84.03
78.60
71.21
62.73
54.27
46.91
41.29
37.54
35.29
33.98
33.05
32.09
30.73
28.56
25.16
20.17
13.53
5.54
-3.19
-11.95
-20.23
-27.81
-34.90
-42.08
-50.21
-60.19
-72.53
-86.71
-100.71
-111.05
-113.63
-105.22
-84.91
-54.83
-19.59
15.22
44.90
66.89
80.92
88.25
90.52
88.99
84.41
77.41
68.88
60.03
52.11
45.96
41.77
39.16
37.45
36.11
34.91
33.80
32.72
31.26
28.73
24.35
17.72
9.02
-0.94
-11.03
-20.30
-28.34
-35.44
-42.45
-50.55
-60.85
-73.96
-89.45
-105.36
-118.16
-123.53
-117.70
-99.08
-69.25
-32.75
4.40
36.71
60.80
75.99
83.54
85.44
83.32
78.14
70.47
61.03
50.99
41.69
34.24
29.10
26.04
24.36
23.36
22.57
21.77
20.86
19.54
17.28
13.47
7.72
0.14
-8.63
-17.65
-26.09
-33.54
-40.16
-46.65
-54.07
-63.47
-75.42
-89.32
-102.98
-112.78
-114.52
-105.03
-83.63
-52.74
-17.34
16.75
44.77
64.34
75.54
80.05
79.80
76.17
69.75
60.87
50.18
38.89
28.63
20.89
16.51
15.41
16.67
18.90
20.74
21.16
19.67
16.30
11.40
5.46
-1.10
-7.94
-14.91
-21.95
-29.12
-36.67
-45.08
-55.04
-67.04
-80.78
-94.52
-105.02
-108.31
-101.03
-82.01
-53.05
-18.57
15.86
45.31
66.93
80.15
86.12
86.53
82.79
75.81
66.28
55.10
43.59
33.25
25.29
20.29
18.04
17.75
18.41
19.09
19.15
18.11
15.65
11.59
5.88
-1.21
-9.20
-17.43
-25.35
-32.72
-39.68
-46.89
-55.30
-65.89
-79.04
-93.86
-107.78
-116.88
-116.91
-105.02
-81.06
-48.03
-11.26
23.41
51.45
70.76
81.62
85.71
84.98
80.88
74.30
65.91
56.55
47.28
39.22
33.12
29.23
27.22
26.51
26.41
26.34
25.81
24.38
21.66
17.42
11.60
4.46
-3.51
-11.75
-19.80
-27.50
-35.03
-42.96
-52.15
-63.40
-76.90
-91.54
-104.64
-112.32
-110.67
-97.29
-72.51
-39.63
-3.89
29.22
55.65
73.72
83.82
87.52
86.53
82.09
75.04
66.16
56.44
47.13
39.31
33.63
30.06
28.11
27.04
26.27
25.46
24.43
22.99
20.75
17.22
11.99
5.03
-3.24
-12.04
-20.56
-28.28
-35.20
-41.88
-49.30
-58.60
-70.62
-85.16
-100.47
-113.13
-118.79
-113.60
-95.87
-67.00
-31.38
5.14
37.10
61.16
76.45
84.11
85.95
83.53
77.80
69.36
59.00
47.94
37.67
29.54
24.30
21.92
21.75
22.79
24.06
24.73
24.21
22.15
18.42
13.13
6.62
-0.62
-8.13
-15.61
-22.98
-30.35
-37.97
-46.30
-55.84
-67.01
-79.50
-91.78
-100.92
-103.19
-95.36
-76.21
-47.40
-13.29
20.52
49.10
69.56
81.56
86.47
86.23
82.31
75.50
66.22
55.13
43.42
32.63
24.24
19.04
17.00
17.29
18.67
19.89
19.96
18.35
14.94
9.95
3.73
-3.24
-10.60
-18.06
-25.42
-32.62
-39.74
-47.14
-55.50
-65.72
-78.37
-92.91
-107.12
-117.16
-118.64
-108.21
-85.26
-52.43
-14.98
21.05
50.77
71.77
84.10
89.36
89.43
85.74
79.10
70.19
59.99
49.86
41.17
34.87
31.14
29.49
29.06
29.06
29.01
28.66
27.80
26.00
22.70
17.40
10.02
1.05
-8.53
-17.65
-25.53
-32.07
-37.86
-44.06
-52.08
-63.07
-77.31
-93.56
-108.82
-118.76
-118.98
-106.71
-82.09
-48.46
-11.35
23.45
51.65
71.43
83.16
88.38
88.70
85.23
78.76
70.15
60.61
51.53
44.00
38.50
34.76
32.04
29.62
27.18
24.85
22.97
21.67
20.66
19.11
16.00
10.60
2.83
-6.58
-16.43
-25.47
-32.93
-38.85
-44.04
-49.86
-57.76
-68.67
-82.42
-97.21
-109.70
-115.70
-111.53
-95.48
-68.72
-35.12
-0.01
31.57
56.29
73.05
82.50
86.01
84.86
79.92
71.97
62.08
51.72
42.47
35.48
31.11
28.89
27.93
27.38
26.79
26.16
25.63
25.12
24.14
21.88
17.64
11.16
2.87
-6.28
-15.14
-22.88
-29.20
-34.48
-39.58
-45.70
-54.00
-65.17
-78.86
-93.13
-104.56
-108.96
-102.84
-84.84
-56.63
-22.57
11.72
41.22
62.92
76.25
82.35
83.01
79.69
73.25
64.30
53.65
42.57
32.58
25.00
20.45
18.80
19.23
20.71
22.29
23.28
23.23
21.82
18.88
14.38
8.54
1.79
-5.34
-12.41
-19.19
-25.79
-32.53
-39.97
-48.79
-59.50
-71.97
-84.87
-95.44
-100.02
-95.20
-79.36
-53.60
-21.75
10.90
39.39
60.58
73.63
79.55
80.00
76.42
69.72
60.53
49.68
38.41
28.17
20.18
15.04
12.62
12.26
13.04
14.08
14.64
14.12
12.03
8.12
2.40
-4.75
-12.68
-20.70
-28.26
-35.16
-41.55
-47.97
-55.21
-64.26
-75.80
-89.64
-104.06
-115.66
-120.11
-113.60
-94.57
-64.69
-28.55
7.80
38.97
61.81
75.82
82.46
83.81
81.49
76.40
68.98
59.84
50.00
40.79
33.37
28.37
25.71
24.80
24.81
25.01
24.83
23.86
21.77
18.28
13.25
6.81
-0.63
-8.50
-16.22
-23.46
-30.18
-36.77
-43.97
-52.70
-63.71
-76.87
-90.60
-101.76
-106.28
-100.56
-82.99
-54.94
-20.52
14.70
45.61
69.03
84.11
91.85
93.94
91.93
86.88
79.62
71.04
62.32
54.70
49.03
45.46
43.38
41.66
39.15
35.03
29.02
21.32
12.39
2.70
-7.37
-17.52
-27.50
-37.05
-45.90
-53.90
-61.09
-67.79
-74.61
-82.41
-92.08
-103.97
-117.24
-129.41
-136.62
-134.70
-120.84
-94.91
-59.98
-21.39
14.99
44.68
65.64
78.17
83.91
84.69
81.83
76.11
68.29
59.42
50.89
43.95
39.27
36.76
35.62
34.83
33.59
31.51
28.55
24.75
20.06
14.34
7.47
-0.40
-8.82
-17.14
-24.78
-31.49
-37.47
-43.39
-50.23
-58.95
-70.04
-82.90
-95.46
-104.35
-105.79
-96.91
-77.15
-48.74
-16.12
15.49
41.85
60.79
72.24
77.47
77.99
74.84
68.52
59.50
48.68
37.56
27.91
21.21
18.14
18.37
20.75
23.73
25.86
26.16
24.31
20.51
15.33
9.38
3.12
-3.24
-9.75
-16.56
-23.87
-31.96
-41.21
-51.99
-64.33
-77.39
-89.06
-96.22
-95.51
-84.75
-63.93
-35.66
-4.37
25.08
48.95
65.48
74.79
78.14
77.00
72.43
65.11
55.69
45.12
34.71
25.88
19.68
16.53
16.04
17.21
18.81
19.64
18.84
15.96
11.03
4.43
-3.18
-11.16
-18.99
-26.48
-33.73
-41.03
-48.84
-57.75
-68.36
-80.93
-94.82
-108.01
-117.09
-118.18
-108.35
-87.03
-56.63
-21.90
11.66
39.62
59.78
72.20
78.33
79.90
78.10
73.60
66.91
58.78
50.32
42.77
37.02
33.39
31.58
30.89
30.63
30.31
29.67
28.52
26.60
23.52
18.89
12.55
4.74
-3.94
-12.71
-20.95
-28.44
-35.54
-43.15
-52.39
-64.08
-78.03
-92.51
-104.35
-109.59
-104.89
-88.88
-62.91
-30.79
2.42
32.07
55.20
70.94
80.01
83.80
83.58
80.20
74.38
66.98
59.17
52.14
46.78
43.33
41.39
40.26
39.28
38.17
36.95
35.66
34.14
31.87
28.16
22.50
14.86
5.83
-3.63
-12.54
-20.27
-26.83
-32.77
-39.10
-46.93
-57.10
-69.64
-83.35
-95.64
-102.96
-101.87
-90.30
-68.59
-39.63
-7.96
21.73
45.99
63.28
73.82
78.67
79.00
75.69
69.46
61.24
52.37
44.33
38.29
34.69
33.15
32.75
32.56
32.08
31.31
30.56
29.97
29.27
27.68
24.31
18.62
10.76
1.56
-7.78
-16.20
-23.19
-28.90
-34.14
-40.00
-47.64
-57.77
-70.20
-83.36
-94.34
-99.45
-95.44
-80.83
-56.76
-26.80
4.16
31.55
52.52
66.28
73.66
76.07
74.66
70.08
62.74
53.37
43.25
34.03
27.16
23.41
22.69
24.10
26.41
28.45
29.40
28.81
26.54
22.60
17.13
10.41
2.83
-5.08
-12.80
-19.99
-26.57
-32.88
-39.65
-47.84
-58.17
-70.53
-83.49
-94.19
-99.05
-94.95
-80.54
-56.98
-27.72
2.62
29.77
50.92
65.15
72.93
75.35
73.48
68.18
60.30
50.93
41.39
32.98
26.57
22.42
20.16
19.10
18.58
18.21
17.82
17.25
16.15
13.95
10.03
4.14
-3.47
-12.05
-20.60
-28.32
-34.93
-40.74
-46.50
-53.24
-61.90
-72.96
-85.97
-99.13
-109.30
-112.74
-106.31
-88.87
-62.00
-29.73
2.83
31.15
52.59
66.61
74.18
76.75
75.49
71.23
64.69
56.82
48.88
42.05
37.07
34.02
32.40
31.52
30.83
30.12
29.43
28.77
27.93
26.37
23.41
18.49
11.55
2.99
-6.28
-15.26
-23.20
-29.90
-35.82
-41.98
-49.63
-59.75
-72.44
-86.35
-98.67
-105.67
-103.91
-91.51
-69.13
-39.88
-8.37
20.82
44.45
61.20
71.35
76.04
76.46
73.54
68.05
60.88
53.16
46.06
40.49
36.76
34.61
33.40
32.48
31.39
29.95
28.10
25.71
22.53
18.23
12.54
5.51
-2.46
-10.71
-18.49
-25.26
-30.89
-35.70
-40.52
-46.44
-54.41
-64.76
-76.64
-87.76
-94.85
-94.59
-84.94
-66.12
-40.76
-13.12
12.40
32.57
46.14
53.52
56.05
55.05
51.40
45.57
38.01
29.50
21.19
14.31
9.80
8.01
8.66
10.95
13.91
16.61
18.35
18.75
17.64
15.05
11.12
6.09
0.28
-5.93
-12.14
-18.10
-23.85
-29.80
-36.76
-45.55
-56.47
-68.66
-79.80
-86.53
-85.49
-74.60
-54.16
-26.87
2.96
30.86
53.52
69.45
78.78
82.48
81.73
77.47
70.51
61.78
52.39
43.55
36.19
30.81
27.34
25.43
24.58
24.41
24.58
24.76
24.43
22.95
19.74
14.43
7.17
-1.46
-10.58
-19.32
-27.17
-34.10
-40.64
-47.69
-56.31
-67.25
-80.45
-94.53
-106.62
-112.97
-110.01
-95.86
-71.27
-39.66
-6.02
24.67
49.02
65.81
75.60
79.78
79.60
75.89
69.28
60.66
51.43
43.15
37.06
33.54
32.06
31.50
30.75
29.31
27.33
25.37
23.89
22.76
21.20
18.09
12.55
4.44
-5.50
-15.94
-25.49
-33.27
-39.25
-44.20
-49.43
-56.30
-65.84
-78.14
-92.01
-104.77
-112.72
-112.16
-100.79
-78.70
-48.70
-15.44
16.15
42.30
61.35
73.47
79.85
81.72
79.84
74.67
66.84
57.51
48.27
40.65
35.58
32.97
31.97
31.38
30.32
28.63
26.77
25.41
24.84
24.63
23.68
20.73
14.92
6.36
-3.95
-14.49
-23.84
-31.28
-37.03
-42.08
-47.79
-55.38
-65.57
-78.17
-91.90
-104.26
-111.92
-111.55
-100.97
-80.15
-51.49
-19.23
11.90
38.14
57.54
69.99
76.42
77.97
75.47
69.51
60.89
50.90
41.28
33.72
29.16
27.54
27.85
28.72
29.05
28.48
27.36
26.33
25.75
25.30
24.07
20.96
15.27
7.13
-2.49
-12.16
-20.57
-27.05
-31.84
-35.87
-40.46
-46.90
-55.99
-67.71
-80.87
-93.03
-100.84
-100.91
-91.03
-71.12
-43.58
-12.63
17.04
41.71
59.45
70.12
74.66
74.26
69.92
62.49
52.93
42.64
33.20
25.94
21.52
19.71
19.58
19.95
19.96
19.34
18.38
17.52
16.90
16.10
14.19
10.13
3.40
-5.68
-15.98
-25.93
-34.24
-40.40
-44.90
-49.02
-54.34
-62.18
-73.12
-86.48
-100.20
-110.99
-115.08
-109.40
-92.77
-66.58
-34.52
-1.41
28.31
51.80
68.17
77.97
82.28
82.09
78.07
70.95
61.85
52.32
43.98
37.93
34.44
32.91
32.33
31.74
30.74
29.52
28.55
28.10
27.88
27.04
24.42
19.22
11.35
1.60
-8.66
-18.06
-25.73
-31.60
-36.41
-41.36
-47.83
-56.94
-69.01
-83.08
-96.69
-106.18
-107.67
-98.42
-78.11
-49.18
-16.12
16.01
43.22
63.45
76.63
83.79
86.15
84.51
79.38
71.38
61.61
51.68
43.15
37.03
33.38
31.46
30.19
28.74
26.92
25.06
23.62
22.68
21.66
19.52
15.25
8.49
-0.29
-9.90
-18.92
-26.34
-31.92
-36.25
-40.53
-46.24
-54.66
-66.43
-81.00
-96.20
-108.44
-113.44
-107.74
-90.05
-62.09
-28.16
6.23
36.19
58.75
73.22
80.50
82.13
79.45
73.36
64.65
54.32
43.71
34.26
27.04
22.48
20.27
19.67
19.85
20.22
20.49
20.60
20.37
19.39
17.02
12.70
6.23
-2.00
-11.09
-20.00
-27.95
-34.75
-40.89
-47.39
-55.44
-65.82
-78.31
-91.19
-101.39
-105.13
-99.20
-82.34
-55.96
-23.93
8.65
37.09
58.38
71.68
77.77
78.20
74.39
67.40
58.06
47.31
36.34
26.43
18.61
13.44
10.90
10.47
11.42
12.97
14.43
15.20
14.75
12.62
8.56
2.61
-4.85
-13.14
-21.51
-29.35
-36.42
-42.89
-49.40
-56.91
-66.46
-78.60
-92.70
-106.48
-116.25
-117.84
-108.21
-86.80
-56.12
-21.00
13.00
41.39
61.89
74.37
80.04
80.48
76.91
70.24
61.38
51.53
42.10
34.33
28.93
25.90
24.67
24.41
24.48
24.52
24.40
24.01
23.03
20.87
16.92
10.82
2.78
-6.48
-15.85
-24.41
-31.68
-37.87
-43.81
-50.69
-59.70
-71.50
-85.62
-100.06
-111.39
-115.50
-109.00
-90.72
-62.38
-28.33
5.98
35.75
58.19
72.82
80.71
83.44
82.24
77.89
71.06
62.71
54.12
46.63
41.12
37.78
36.13
35.38
34.83
34.16
33.39
32.61
31.76
30.41
27.84
23.37
16.75
8.30
-1.10
-10.37
-18.68
-25.76
-32.04
-38.50
-46.36
-56.61
-69.45
-83.79
-97.02
-105.44
-105.30
-94.17
-72.08
-41.88
-8.37
23.20
48.82
66.61
76.73
80.59
79.77
75.45
68.39
59.34
49.34
39.68
31.62
25.95
22.78
21.63
21.77
22.50
23.35
23.99
24.07
23.13
20.67
16.35
10.20
2.68
-5.43
-13.31
-20.40
-26.55
-32.07
-37.72
-44.52
-53.48
-64.94
-78.03
-90.32
-98.11
-97.54
-86.10
-63.92
-34.00
-1.38
28.63
52.16
67.68
75.80
78.24
76.66
71.99
64.60
54.78
43.35
31.78
21.84
15.03
12.09
12.67
15.55
19.06
21.61
22.15
20.29
16.30
10.79
4.43
-2.27
-9.05
-15.79
-22.47
-29.14
-36.01
-43.64
-52.84
-64.26
-77.66
-91.22
-101.59
-104.65
-97.15
-78.14
-49.73
-16.54
15.88
42.90
62.07
73.27
77.89
77.76
74.27
68.27
60.33
51.17
41.79
33.36
26.83
22.68
20.83
20.72
21.53
22.40
22.57
21.48
18.78
14.29
8.08
0.34
-8.59
-18.25
-28.15
-37.89
-47.24
-56.38
-65.92
-76.78
-89.63
-104.11
-118.20
-128.27
-130.06
-120.27
-98.13
-66.06
-29.02
7.16
37.67
60.01
74.08
81.28
83.41
81.79
77.20
70.21
61.61
52.58
44.37
37.93
33.62
31.20
30.03
29.43
28.91
28.17
27.04
25.21
22.28
17.81
11.60
3.89
-4.72
-13.40
-21.50
-28.78
-35.56
-42.62
-51.07
-61.91
-75.45
-90.66
-104.88
-114.15
-114.37
-102.85
-79.62
-47.78
-12.49
20.72
47.79
66.96
78.63
84.24
85.25
82.66
77.11
69.40
60.77
52.64
46.21
41.93
39.49
38.09
36.94
35.66
34.32
33.17
32.21
30.96
28.60
24.27
17.55
8.73
-1.25
-11.19
-20.10
-27.59
-34.00
-40.27
-47.70
-57.46
-70.12
-85.02
-99.93
-111.21
-114.68
-107.08
-87.54
-58.17
-23.63
10.44
39.27
60.29
73.32
79.73
81.27
79.14
73.90
65.92
