1537823645.00
64.000000
-0.00
-0.00
-0.00
-0.00
-0.00
-0.00
-0.00
-0.00
-0.00
-0.00
0.00
0.01
0.01
-0.00
-0.03
-0.05
-0.05
0.00
0.13
0.36
0.66
1.01
1.37
1.72
2.06
2.40
2.79
3.24
3.80
4.42
5.06
5.66
6.20
6.68
7.15
7.68
8.31
9.14
10.09
11.04
11.88
12.56
13.14
13.76
14.65
15.96
17.91
20.32
22.90
25.38
27.58
29.57
31.68
34.32
37.81
42.54
48.15
54.10
59.83
64.97
69.58
74.14
79.34
85.71
93.76
103.00
112.62
121.73
129.77
136.75
143.30
150.75
157.77
166.64
177.95
191.79
206.97
220.57
228.25
225.36
208.53
176.87
132.76
80.05
23.07
-34.94
-92.44
-149.16
-205.23
-260.37
-313.74
-363.87
-409.83
-450.91
-486.50
-515.74
-537.23
-549.22
-549.96
-538.37
-514.21
-478.67
-433.88
-382.45
-327.02
-269.84
-212.63
-156.66
-102.95
-52.37
-5.90
35.58
71.43
101.35
125.50
144.38
158.69
169.15
176.37
180.75
182.57
182.07
179.51
175.23
169.65
163.18
156.15
148.81
141.30
133.69
126.02
118.33
110.69
103.16
95.80
88.68
81.83
75.25
68.95
62.95
57.25
51.86
46.78
42.03
37.59
33.45
29.61
26.07
22.81
19.83
17.11
14.67
12.48
10.54
8.83
7.35
6.07
4.97
4.05
3.27
2.62
2.09
1.65
1.30
1.03
0.81
0.65
0.53
0.44
0.39
0.36
0.34
0.35
0.36
0.39
0.42
0.45
0.49
0.54
0.58
0.64
0.69
0.74
0.80
0.87
0.95
1.03
1.12
1.22
1.33
1.45
1.59
1.75
1.93
2.12
2.34
2.58
2.85
3.15
3.47
3.83
4.21
4.64
5.10
5.60
6.13
6.71
7.33
7.99
8.70
9.45
10.25
11.09
11.98
12.92
13.91
14.95
16.06
17.25
18.49
19.78
21.09
22.38
23.57
24.58
25.28
25.55
25.27
24.35
22.71
20.34
17.27
13.57
9.40
4.92
0.35
-4.10
-8.21
-11.82
-14.79
-17.04
-18.53
-19.27
-19.35
-18.87
-17.93
-16.64
-15.12
-13.43
-11.64
-9.80
-7.92
-6.08
-4.34
-2.72
-1.23
0.18
1.53
2.92
4.41
6.12
7.97
9.92
11.95
14.05
16.26
18.65
21.27
24.25
27.68
31.34
35.09
38.82
42.48
46.12
49.84
53.78
58.09
62.91
67.81
72.45
76.56
80.04
82.92
85.42
87.80
90.31
93.11
95.51
96.85
96.50
93.99
89.00
81.29
70.39
55.12
38.22
20.11
0.69
-20.29
-42.91
-66.96
-91.85
-116.77
-140.89
-163.54
-185.11
-206.31
-228.31
-252.46
-279.76
-310.06
-341.48
-370.33
-391.50
-400.26
-392.83
-367.57
-325.53
-270.28
-207.05
-141.71
-79.80
-25.81
16.79
46.07
61.55
64.10
55.76
39.50
18.86
-2.49
-21.20
-34.89
-42.22
-42.88
-37.46
-27.16
-13.38
2.52
19.32
36.06
51.81
65.72
76.99
85.03
89.62
90.99
89.84
87.05
83.51
79.87
76.53
73.58
70.99
68.58
66.19
63.67
60.95
58.11
55.31
52.73
50.46
48.38
46.14
43.28
39.38
34.28
28.19
21.52
14.75
8.24
2.04
-4.03
-10.37
-17.47
-25.79
-35.60
-46.84
-58.80
-70.16
-79.04
-83.53
-82.26
-74.88
-62.18
-45.84
-27.85
-9.89
6.92
22.06
35.29
46.47
55.45
62.14
66.68
69.44
70.92
71.60
71.75
71.52
70.90
69.96
68.81
67.66
66.65
65.87
65.29
64.75
64.07
62.98
61.18
58.42
54.55
49.60
43.79
37.50
31.10
24.84
18.75
12.72
6.55
-0.01
-7.25
-15.44
-24.74
-35.02
-45.56
-55.02
-61.64
-63.71
-60.23
-51.24
-37.92
-22.15
-5.93
9.15
22.22
33.02
41.68
48.43
53.45
56.89
58.87
59.65
59.53
58.90
58.07
57.27
56.68
56.41
56.52
57.05
57.99
59.19
60.37
61.17
61.22
60.20
58.00
54.65
50.33
45.26
39.61
33.52
27.03
20.18
13.08
5.89
-1.20
-8.04
-14.63
-21.13
-27.85
-35.24
-43.67
-53.36
-64.09
-75.11
-85.08
-92.31
-95.16
-92.53
-84.22
-71.00
-54.43
-36.37
-18.61
-2.50
11.09
21.75
29.40
34.21
36.56
36.97
36.01
34.20
32.01
29.80
27.82
26.29
25.38
25.19
25.78
27.11
29.00
31.09
32.91
33.86
33.45
31.36
27.63
22.59
16.74
10.56
4.28
-2.13
-8.93
-16.42
-24.73
-33.67
-42.58
-50.45
-55.97
-57.91
-55.43
-48.33
-37.21
-23.32
-8.22
6.57
19.82
30.73
38.89
44.19
46.74
46.89
45.10
41.92
37.85
33.21
28.19
22.98
17.82
13.09
9.22
6.47
4.77
3.79
2.96
1.75
-0.16
-2.81
-6.02
-9.56
-13.29
-17.24
-21.57
-26.58
-32.53
-39.77
-48.51
-58.81
-70.26
-81.86
-91.98
-98.67
-100.21
-95.65
-85.12
-69.81
-51.56
-32.36
-13.92
2.55
16.30
26.96
34.48
39.04
41.07
41.13
39.86
37.83
35.53
33.32
31.46
30.13
29.52
29.79
31.08
33.36
36.39
39.62
42.30
43.63
42.98
40.07
35.01
28.27
20.49
12.33
4.26
-3.57
-11.34
-19.58
-28.96
-39.96
-52.48
-65.60
-77.59
-86.26
-89.60
-86.40
-76.65
-61.54
-43.08
-23.51
-4.85
11.51
24.78
34.75
41.62
45.81
47.90
48.47
48.04
46.92
45.31
43.25
40.82
38.15
35.53
33.28
31.70
30.91
30.79
30.95
30.87
29.99
27.95
24.65
20.21
14.96
9.20
3.15
-3.20
-10.07
-17.86
-26.91
-37.35
-48.76
-60.04
-69.57
-75.51
-76.36
-71.45
-61.21
-47.06
-30.98
-14.99
-0.72
10.89
19.55
25.43
28.97
30.63
30.81
29.76
27.75
25.05
22.02
19.07
16.60
14.84
13.84
13.50
13.58
13.83
14.05
14.05
13.67
12.76
11.19
8.88
5.78
1.84
-3.02
-8.97
-16.20
-24.74
-34.25
-43.87
-52.23
-57.71
-58.87
-54.86
-45.73
-32.45
-16.64
-0.17
15.23
28.32
38.41
45.35
49.38
50.88
50.30
48.08
44.65
40.49
36.12
32.05
28.68
26.21
24.54
23.40
22.37
21.07
19.24
16.75
13.61
9.90
5.76
1.30
-3.43
-8.51
-14.15
-20.68
-28.49
-37.88
-48.87
-60.95
-73.02
-83.38
-90.14
-91.62
-86.95
-76.34
-61.12
-43.38
-25.31
-8.74
5.29
16.47
25.04
31.43
36.07
39.29
41.34
42.48
42.93
42.85
42.36
41.51
40.33
38.96
37.63
36.61
36.16
36.23
36.54
36.53
35.48
32.81
28.27
22.05
14.67
6.81
-1.01
-8.62
-16.35
-24.84
-34.79
-46.60
-59.96
-73.72
-85.94
-94.38
-97.06
-92.96
-82.34
-66.68
-48.22
-29.25
-11.47
4.28
17.89
29.68
39.91
48.60
55.51
60.40
63.20
64.14
63.70
62.43
60.72
58.79
56.65
54.29
51.76
49.20
46.84
44.82
43.11
41.43
39.32
36.24
31.78
25.82
18.60
10.61
2.43
-5.45
-12.77
-19.56
-26.04
-32.59
-39.69
-47.90
-57.61
-68.85
-80.93
-92.36
-101.02
-104.82
-102.32
-93.33
-78.90
-61.00
-41.77
-23.01
-5.79
9.43
22.57
33.60
42.44
49.01
53.39
55.89
57.01
57.37
57.46
57.56
57.69
57.64
57.23
56.35
55.09
53.67
52.34
51.23
50.24
49.11
47.53
45.24
42.07
37.96
32.86
26.73
19.57
11.50
2.88
-5.77
-13.88
-21.07
-27.31
-33.03
-39.01
-46.07
-54.70
-64.73
-75.21
-84.52
-90.85
-92.60
-88.90
-79.87
-66.49
-50.38
-33.34
-16.94
-2.27
10.10
19.96
27.36
32.40
35.30
36.36
36.01
34.80
33.20
31.60
30.18
29.03
28.19
27.77
27.91
28.68
29.99
31.50
32.71
33.02
31.97
29.26
24.92
19.22
12.64
5.77
-0.90
-7.12
-12.98
-18.97
-25.80
-34.08
-43.91
-54.68
-64.99
-72.95
-76.71
-75.05
-67.74
-55.70
-40.65
-24.58
-9.19
4.44
15.94
25.38
32.97
38.79
42.78
44.85
45.13
43.95
41.93
39.69
37.69
36.11
34.93
34.07
33.49
33.22
33.31
33.65
33.96
33.82
32.82
30.67
27.34
22.98
17.85
12.20
6.22
0.06
-6.16
-12.31
-18.26
-23.89
-29.22
-34.34
-39.51
-45.08
-51.53
-59.27
-68.50
-78.85
-89.26
-98.05
-103.20
-103.00
-96.58
-84.25
-67.44
-48.27
-28.95
-11.29
3.60
15.36
24.16
30.49
34.90
37.92
39.96
41.28
42.06
42.38
42.30
41.84
41.12
40.29
39.58
39.20
39.26
39.74
40.45
41.04
41.20
40.63
39.16
36.77
33.54
29.67
25.39
20.91
16.31
11.52
6.41
0.82
-5.30
-11.79
-18.38
-24.75
-30.72
-36.34
-41.95
-48.03
-55.10
-63.34
-72.42
-81.27
-88.27
-91.58
-89.70
-81.99
-68.89
-51.86
-32.96
-14.29
2.45
16.18
26.51
33.56
37.75
39.69
39.96
39.16
37.78
36.28
35.00
34.07
33.49
33.10
32.75
32.41
32.21
32.38
33.11
34.35
35.75
36.75
36.76
35.47
32.87
29.28
25.17
20.96
16.88
12.97
9.14
5.26
1.26
-2.84
-6.92
-10.85
-14.52
-17.93
-21.21
-24.67
-28.72
-33.73
-39.79
-46.47
-52.77
-57.18
-58.19
-54.72
-46.48
-34.20
-19.33
-3.66
11.15
23.87
33.79
40.65
44.48
45.58
44.42
41.70
38.14
34.41
30.92
27.80
24.94
22.15
19.32
16.50
13.88
11.67
9.98
8.86
8.23
7.98
7.96
7.91
7.48
6.26
3.88
0.20
-4.59
-10.06
-15.66
-20.92
-25.59
-29.75
-33.67
-37.79
-42.60
-48.53
-55.83
-64.38
-73.57
-82.20
-88.68
-91.40
-89.24
-81.93
-70.19
-55.56
-39.91
-24.94
-11.88
-1.33
6.55
11.90
14.92
15.86
15.01
12.77
9.62
6.08
2.58
-0.47
-2.80
-4.19
-4.48
-3.56
-1.49
1.51
5.04
8.62
11.78
14.21
15.78
16.49
16.40
15.46
13.58
10.60
6.42
1.13
-4.93
-11.30
-17.49
-23.18
-28.33
-33.23
-38.34
-44.28
-51.53
-60.24
-69.99
-79.70
-87.74
-92.23
-91.63
-85.15
-73.09
-56.75
-38.10
-19.25
-1.97
12.58
23.90
32.05
37.45
40.66
42.23
42.56
41.92
40.43
38.27
35.64
32.87
30.32
28.34
27.09
26.57
26.62
27.00
27.44
27.76
27.82
27.54
26.79
25.42
23.24
20.12
16.05
11.16
5.71
-0.07
-6.03
-12.15
-18.49
-25.10
-32.05
-39.37
-47.17
-55.55
-64.47
-73.45
-81.47
-87.03
-88.49
-84.65
-75.18
-60.83
-43.19
-24.26
-5.87
10.59
24.41
35.31
43.34
48.67
51.55
52.33
51.44
49.41
46.78
44.00
41.38
39.06
37.00
35.03
32.96
30.62
27.99
25.16
22.35
19.82
17.75
16.13
14.73
13.19
11.14
8.37
4.83
0.67
-3.90
-8.66
-13.50
-18.39
-23.43
-28.80
-34.80
-41.76
-49.79
-58.58
-67.18
-74.00
-77.21
-75.30
-67.60
-54.61
-37.91
-19.67
-2.07
13.27
25.45
34.30
40.06
43.15
43.96
42.88
40.36
36.94
33.29
30.08
27.89
27.02
27.42
28.72
30.38
31.88
32.93
33.51
33.85
34.21
34.75
35.41
35.88
35.80
34.87
32.97
30.17
26.70
22.79
18.63
14.27
9.58
4.32
-1.87
-9.33
-18.28
-28.57
-39.57
-50.15
-58.83
-64.10
-64.84
-60.70
-52.21
-40.63
-27.59
-14.70
-3.31
5.71
11.82
14.82
14.80
12.19
7.68
2.12
-3.63
-8.92
-13.37
-16.83
-19.28
-20.68
-20.93
-19.88
-17.49
-13.84
-9.29
-4.39
0.22
3.98
6.54
7.84
8.11
7.76
7.20
6.66
6.13
5.23
3.44
0.21
-4.61
-10.64
-16.74
-21.28
-22.57
-19.39
-11.45
0.56
15.15
30.58
45.30
58.22
68.77
76.72
81.95
84.36
83.97
81.04
76.16
70.18
64.03
58.39
53.56
49.46
45.76
42.18
38.65
35.34
32.47
30.14
28.20
26.16
23.40
19.39
13.87
7.02
-0.61
-8.26
-15.24
-21.17
-26.16
-30.74
-35.75
-41.96
-49.88
-59.43
-69.87
-79.80
-87.40
-90.79
-88.56
-80.14
-66.04
-47.73
-27.28
-6.84
11.78
27.33
39.19
47.23
51.69
53.13
52.37
50.45
48.36
46.83
45.97
45.15
43.14
38.59
30.61
19.43
6.49
-5.90
-15.44
-20.74
-21.77
-19.78
-16.50
-13.47
-11.49
-10.81
-11.46
-13.70
-18.00
-24.82
-34.30
-46.23
-60.35
-76.46
-94.45
-113.73
-132.83
-149.33
-160.43
-163.98
-159.30
-147.46
-130.63
-111.11
-90.48
-69.38
-47.92
-26.40
-5.82
12.24
26.08
34.52
37.31
35.09
28.99
20.22
9.73
-1.69
-13.27
-24.09
-33.07
-39.17
-41.79
-41.01
-37.63
-32.98
-28.51
-25.31
-23.87
-24.05
-25.26
-26.86
-28.43
-29.95
-31.77
-34.40
-38.33
-43.85
-51.00
-59.46
-68.53
-77.05
-83.50
-86.28
-84.03
-76.00
-62.30
-43.76
-21.72
2.29
26.74
50.27
71.73
90.16
104.91
115.66
122.54
125.93
126.40
124.57
121.03
116.33
110.99
105.47
100.19
95.49
91.57
88.38
85.65
82.87
79.40
74.69
68.38
60.51
51.44
41.67
31.63
21.55
11.26
0.36
-11.73
-25.41
-40.62
-56.53
-71.48
-83.23
-89.41
-88.33
-79.46
-63.71
-43.11
-20.24
2.45
23.12
40.64
54.52
64.64
71.15
74.41
75.01
73.72
71.36
68.64
66.04
63.72
61.64
59.69
57.80
56.01
54.44
53.15
52.08
50.98
49.43
46.97
43.21
37.95
31.23
23.32
14.69
5.89
-2.70
-10.95
-19.16
-27.96
-38.08
-49.88
-63.08
-76.52
-88.33
-96.43
-99.06
-95.25
-85.04
-69.43
-50.05
-28.80
-7.46
12.52
30.15
44.88
56.56
65.30
71.38
75.15
77.01
77.33
76.49
74.89
72.91
70.85
68.88
67.00
65.10
63.02
60.71
58.27
55.90
53.78
51.87
49.84
47.13
43.21
37.78
30.95
23.14
14.88
6.60
-1.55
-9.70
-18.17
-27.33
-37.49
-48.81
-61.17
-74.07
-86.56
-97.26
-104.56
-106.95
-103.43
-93.77
-78.63
-59.43
-37.99
-16.24
4.16
22.04
36.76
48.15
56.45
62.07
65.52
67.26
67.71
67.21
66.12
64.82
63.66
62.93
62.75
63.00
63.34
63.28
62.32
60.12
56.56
51.78
46.06
39.73
33.13
26.48
20.04
14.00
8.53
3.64
-0.83
-5.21
-9.97
-15.58
-22.39
-30.63
-40.39
-51.68
-64.28
-77.64
-90.69
-101.93
-109.58
-112.13
-108.72
-99.44
-85.34
-68.10
-49.57
-31.42
-14.89
-0.73
10.81
19.86
26.88
32.50
37.45
42.25
47.16
52.06
56.55
60.11
62.24
62.64
61.32
58.54
54.83
50.82
47.17
44.37
42.63
41.80
41.42
40.87
39.50
36.78
32.40
26.31
18.59
9.51
-0.63
-11.41
-22.45
-33.42
-44.16
-54.59
-64.54
-73.61
-80.99
-85.59
-86.41
-82.89
-75.23
-64.34
-51.57
-38.26
-25.39
-13.52
-2.83
6.65
14.88
21.82
27.43
31.75
34.86
36.87
37.87
37.94
37.16
35.67
33.64
31.32
29.05
27.12
25.77
25.11
25.06
25.39
25.73
25.71
24.98
23.28
20.47
16.48
11.35
5.12
-2.19
-10.62
-20.28
-31.23
-43.28
-55.81
-67.62
-77.08
-82.55
-82.85
-77.71
-67.83
-54.71
-40.10
-25.58
-12.18
-0.47
9.31
16.99
22.40
25.41
26.09
24.81
22.22
19.11
16.19
13.98
12.76
12.59
13.39
15.02
17.21
19.62
21.85
23.45
24.13
23.69
22.19
19.77
16.65
12.97
8.77
4.05
-1.18
-6.80
-12.64
-18.48
-24.25
-30.09
-36.33
-43.44
-51.83
-61.70
-72.75
-84.16
-94.55
-102.26
-105.72
-103.90
-96.59
-84.46
-68.86
-51.45
-33.85
-17.36
-2.85
9.24
18.83
26.12
31.43
35.06
37.16
37.69
36.49
33.51
28.93
23.17
16.79
10.38
4.43
-0.67
-4.59
-6.98
-7.62
-6.42
-3.59
0.38
4.83
9.04
12.49
14.88
16.14
16.34
15.65
14.20
12.11
9.47
6.27
2.40
-2.37
-8.39
-15.86
-24.69
-34.23
-43.23
-50.07
-53.17
-51.49
-44.86
-34.04
-20.39
-5.40
9.64
23.87
36.70
47.63
56.19
61.93
64.69
64.70
62.56
59.03
54.77
50.12
45.16
39.86
34.29
28.69
23.47
18.95
15.26
12.32
9.96
8.04
6.54
5.49
4.86
4.41
3.82
2.79
1.22
-0.77
-2.96
-5.19
-7.55
-10.35
-14.06
-19.17
-26.04
-34.73
-44.93
-55.77
-65.88
-73.57
-77.24
-75.85
-69.30
-58.36
-44.43
-29.10
-13.68
0.87
13.99
25.31
34.61
41.76
46.74
49.63
50.62
49.94
47.87
44.75
40.92
36.69
32.28
27.81
23.36
19.05
15.10
11.74
9.10
7.11
5.43
3.64
1.35
-1.56
-4.97
-8.52
-11.86
-14.74
-17.19
-19.51
-22.22
-25.92
-31.09
-37.99
-46.40
-55.60
-64.38
-71.26
-74.82
-74.09
-68.80
-59.46
-47.19
-33.41
-19.52
-6.63
4.49
13.37
19.81
23.81
25.60
25.59
24.30
22.33
20.18
18.26
16.77
15.74
15.11
14.78
14.72
14.94
15.44
16.12
16.68
16.69
15.72
13.52
10.17
6.04
1.61
-2.72
-6.82
-10.87
-15.28
-20.51
-26.88
-34.34
-42.34
-49.83
-55.36
-57.53
-55.36
-48.65
-38.02
-24.77
-10.45
3.55
16.20
26.89
35.32
41.34
44.91
46.12
45.26
42.84
39.51
35.91
32.52
29.53
26.94
24.53
22.11
19.58
16.99
14.58
12.58
11.16
10.23
9.47
8.38
6.48
3.44
-0.71
-5.67
-10.95
-16.11
-20.94
-25.57
-30.43
-36.14
-43.26
-52.09
-62.32
-72.93
-82.32
-88.60
-90.14
-86.14
-76.80
-63.31
-47.39
-30.82
-15.03
-0.91
11.09
20.77
28.09
33.09
35.99
37.22
37.38
37.09
36.84
36.83
37.00
37.13
36.99
36.54
35.89
35.29
34.91
34.79
34.76
34.49
33.60
31.77
28.85
24.81
19.81
14.08
7.91
1.55
-4.83
-11.18
-17.58
-24.25
-31.47
-39.55
-48.58
-58.25
-67.69
-75.51
-80.08
-80.01
-74.61
-64.17
-49.86
-33.46
-16.80
-1.43
11.72
22.25
30.22
35.96
39.87
42.36
43.72
44.20
43.97
43.27
42.37
41.53
40.98
40.83
41.07
41.59
42.27
42.98
43.60
44.01
44.03
43.41
41.93
39.45
35.97
31.69
26.88
21.83
16.65
11.29
5.55
-0.73
-7.52
-14.57
-21.48
-27.91
-33.74
-39.12
-44.47
-50.32
-57.11
-64.95
-73.44
-81.61
-88.00
-91.03
-89.40
-82.53
-70.80
-55.43
-38.22
-21.04
-5.39
7.77
18.11
25.75
31.09
34.62
36.79
38.00
38.52
38.57
38.31
37.89
37.39
36.93
36.60
36.54
36.85
37.61
38.76
40.14
41.40
42.17
42.12
41.08
39.07
36.35
33.20
29.85
26.36
22.60
18.31
13.28
7.43
0.89
-5.95
-12.66
-18.82
-24.24
-29.06
-33.73
-38.91
-45.19
-52.74
-61.11
-69.14
-75.19
-77.60
-75.19
-67.69
-55.78
-40.87
-24.68
-8.79
5.61
17.84
27.57
34.72
39.37
41.72
42.08
40.90
38.65
35.83
32.89
30.17
27.92
26.26
25.20
24.68
24.58
24.82
25.28
25.82
26.24
26.24
25.48
23.64
20.56
16.32
11.23
5.73
0.25
-4.98
-10.01
-15.15
-20.92
-27.83
-36.15
-45.60
-55.27
-63.63
-68.90
-69.58
-64.89
-55.09
-41.37
-25.47
-9.17
6.12
19.49
30.46
38.81
44.46
47.41
47.84
46.15
42.97
39.01
35.02
31.56
28.97
27.32
26.42
26.01
25.90
26.02
26.43
27.20
28.28
29.41
30.23
30.37
29.58
27.83
25.24
22.04
18.40
14.48
10.40
6.34
2.49
-0.99
-4.00
-6.72
-9.52
-12.96
-17.49
-23.10
-29.02
-33.73
-35.26
-31.76
-22.18
-6.59
13.75
36.83
60.41
82.56
101.91
117.78
130.07
139.09
145.34
149.41
151.71
152.45
151.58
148.85
143.99
136.83
127.43
116.13
103.49
90.16
76.62
62.92
48.67
33.23
16.18
-2.28
-21.11
-38.75
-53.74
-65.40
-74.10
-81.10
-87.86
-95.40
-103.87
-112.66
-120.97
-128.27
-134.64
-140.69
-147.24
-155.04
-164.55
-175.90
-188.77
-202.37
-215.09
-224.49
-227.53
-221.36
-204.30
-176.61
-140.67
-100.39
-60.02
-23.01
8.71
34.80
55.96
73.22
87.51
99.35
109.00
116.62
122.33
126.17
128.00
127.47
124.02
117.02
106.05
91.09
72.71
52.09
30.77
10.33
-8.00
-23.58
-36.40
-46.95
-55.80
-63.46
-70.17
-75.95
-80.73
-84.47
-87.22
-89.16
-90.47
-91.28
-91.75
-92.09
-92.71
-94.21
-97.18
-101.78
-107.38
-112.42
-114.71
-112.09
-103.21
-88.05
-67.89
-44.91
-21.49
0.38
19.40
35.00
47.07
55.82
61.64
65.00
66.40
66.28
65.00
62.83
60.01
56.82
53.63
50.83
48.72
47.45
46.93
46.91
47.05
47.00
46.52
45.45
43.67
41.08
37.55
32.90
27.03
19.93
11.82
3.09
-5.72
-14.13
-21.82
-28.77
-35.29
-41.91
-49.24
-57.68
-67.14
-76.91
-85.57
-91.31
-92.32
-87.44
-76.45
-60.28
-40.63
-19.57
1.03
19.75
35.73
48.53
57.94
63.96
66.75
66.74
64.61
61.20
57.43
53.99
51.34
49.58
48.61
48.21
48.25
48.72
49.70
51.13
52.68
53.70
53.33
50.82
45.77
38.31
29.04
18.77
8.23
-2.14
-12.29
-22.51
-33.31
-45.13
-58.24
-72.45
-86.92
-100.20
-110.29
-115.12
-113.09
-103.58
-87.22
-65.78
-41.71
-17.50
4.76
23.71
38.72
49.69
56.90
60.79
61.89
60.78
58.02
54.16
49.76
45.29
41.19
37.76
35.19
33.52
32.70
32.57
32.89
33.30
33.33
32.49
30.42
27.05
22.56
17.29
11.51
5.25
-1.64
-9.46
-18.26
-27.85
-37.73
-47.37
-56.38
-64.71
-72.71
-81.00
-90.30
-101.22
-113.92
-127.72
-140.99
-151.27
-155.81
-152.43
-140.14
-119.65
-93.16
-63.74
-34.59
-8.33
13.35
29.82
41.27
48.52
52.68
54.89
56.09
56.95
57.78
58.64
59.43
60.01
60.29
60.29
60.20
60.30
60.86
61.94
63.36
64.63
65.15
64.37
62.00
58.10
52.94
46.91
40.29
33.15
25.38
16.82
7.40
-2.75
-13.25
-23.60
-33.34
-42.25
-50.43
-58.36
-66.76
-76.40
-87.77
-100.65
-113.88
-125.36
-132.48
-132.85
-125.05
-109.12
-86.58
-59.94
-31.97
-5.04
19.24
40.05
57.15
70.67
80.97
88.51
93.90
97.70
100.42
102.38
103.78
104.71
105.26
105.60
106.03
106.90
108.51
110.98
114.13
117.41
120.05
121.32
120.76
118.39
114.73
110.51
106.40
102.66
99.08
95.03
89.73
82.50
72.87
60.74
46.34
30.12
12.50
-6.30
-26.34
-47.92
-71.13
-95.53
-119.76
-141.60
-158.34
-167.49
-167.44
-157.83
-139.66
-114.93
-86.18
-56.09
-27.10
-1.22
20.07
35.88
45.97
50.71
50.97
48.00
43.15
37.63
32.42
28.26
25.73
25.21
26.82
30.21
34.62
39.00
42.38
44.25
44.67
44.14
43.37
43.03
43.63
45.68
49.75
56.47
66.09
78.19
91.52
104.25
114.67
121.75
125.39
126.14
124.56
120.73
114.23
104.42
91.11
75.10
58.19
42.86
31.65
26.43
27.96
35.86
48.75
64.63
81.12
95.73
106.03
109.86
105.57
92.44
70.82
42.24
9.14
-25.54
-58.89
-88.47
-112.65
-131.01
-144.46
-155.26
-166.45
-180.93
-200.25
-223.82
-248.89
-271.42
-287.56
-295.01
-293.56
-284.90
-271.60
-256.08
-239.92
-223.82
-208.02
-192.71
-178.36
-165.55
-154.70
-145.94
-139.06
-133.88
-130.36
-128.64
-128.66
-129.71
-130.15
-127.55
-119.40
-103.86
-80.57
-50.79
-17.11
17.33
49.62
77.62
100.21
117.09
128.63
135.57
138.81
139.34
138.08
135.89
133.50
131.59
130.68
131.16
133.14
136.50
140.89
145.97
151.41
157.06
162.81
168.49
173.72
177.96
180.67
181.43
180.13
176.86
171.71
164.55
154.93
142.22
125.88
105.79
82.47
56.98
30.70
4.97
-19.33
-41.95
-63.32
-84.27
-105.74
-128.30
-151.84
-175.39
-197.05
-214.20
-223.91
-223.46
-211.22
-187.23
-153.56
-114.01
-73.25
-35.65
-4.29
19.37
35.20
43.62
45.07
39.88
28.65
12.74
-5.61
-23.66
-38.98
-50.17
-57.24
-61.30
-64.05
-66.97
-70.93
-75.91
-81.32
-86.31
-90.13
-92.47
-93.49
-93.74
-93.87
-94.41
-95.49
-96.82
-97.88
-98.05
-96.85
-94.06
-89.84
-84.65
-79.11
-73.59
-67.98
-61.62
-53.61
-43.41
-31.25
-18.28
-6.29
2.96
8.45
10.28
9.92
9.81
12.70
20.68
34.48
52.95
73.38
92.37
107.04
116.09
120.17
121.34
121.81
122.79
123.89
123.41
119.28
110.26
96.67
80.50
64.80
52.75
46.73
47.76
55.44
68.26
84.13
100.91
116.83
130.68
141.89
150.35
156.39
160.66
163.95
166.98
169.99
172.48
173.07
169.82
160.91
145.34
123.48
97.11
68.93
41.68
17.29
-3.56
-21.44
-37.55
-52.87
-67.39
-79.88
-88.31
-90.73
-86.26
-75.60
-60.86
-44.78
-29.94
-18.11
-10.19
-6.37
-6.49
-10.05
-16.30
-24.19
-32.49
-40.11
-46.43
-51.32
-55.14
-58.34
-61.25
-63.73
-65.33
-65.44
-63.65
-60.09
-55.43
-50.76
-47.18
-45.36
-45.40
-46.92
-49.36
-52.38
-56.03
-60.67
-66.75
-74.64
-84.45
-96.02
-108.83
-121.84
-133.39
-141.27
-143.23
-137.57
-123.86
-103.13
-77.69
-50.41
-24.02
-0.51
18.95
33.90
44.23
50.09
51.75
49.75
44.91
38.32
31.14
24.32
18.55
14.12
11.07
9.32
8.79
9.35
10.83
12.84
14.79
15.95
15.68
13.65
9.94
5.01
-0.51
-6.06
-11.50
-17.17
-23.90
-32.70
-44.35
-58.91
-75.30
-91.27
-103.81
-109.88
-107.32
-95.54
-75.74
-50.53
-23.17
3.30
26.65
45.71
60.23
70.52
77.15
80.67
81.55
80.20
77.00
72.40
66.91
61.11
55.53
50.59
46.46
43.12
40.36
37.87
35.34
32.47
29.04
24.80
19.62
13.34
5.92
-2.71
-12.64
-24.10
-37.34
-52.35
-68.52
-84.30
-97.29
-104.76
-104.47
-95.52
-78.74
-56.44
-31.67
-7.25
14.85
33.68
49.06
61.03
69.54
74.47
75.79
73.80
69.25
63.24
56.86
50.91
45.74
41.24
37.07
32.85
28.43
23.87
19.40
15.16
11.08
6.85
1.91
-4.34
-12.52
-23.08
-36.21
-51.50
-67.83
-83.23
-95.17
-101.14
-99.34
-89.20
-71.50
-48.16
-21.64
5.58
31.31
53.82
71.88
84.72
92.10
94.30
92.00
86.25
78.23
69.15
60.14
52.08
45.50
40.52
36.84
33.90
31.08
27.95
24.35
20.37
16.15
11.69
6.72
0.64
-7.37
-18.04
-31.62
-47.59
-64.36
-79.50
-90.10
-93.48
-87.87
-72.94
-50.00
-21.66
8.66
37.61
62.45
81.53
94.26
100.92
102.27
99.25
92.86
84.11
74.15
64.21
55.38
48.42
43.56
40.43
38.32
36.38
33.95
30.72
26.75
22.28
17.56
12.60
7.15
0.69
-7.41
-17.69
-30.36
-45.09
-60.81
-75.67
-87.25
-93.03
-91.00
-80.33
-61.63
-36.96
-9.28
18.19
42.68
62.29
76.04
83.78
85.91
83.15
76.50
67.18
56.57
46.08
37.00
30.17
25.91
23.93
23.50
23.61
23.35
22.06
19.52
15.87
11.47
6.64
1.45
-4.33
-11.20
-19.80
-30.61
-43.71
-58.60
-74.07
-88.18
-98.51
-102.55
-98.36
-85.14
-63.64
-36.11
-5.85
23.62
49.28
69.19
82.59
89.67
91.24
88.41
82.44
74.60
66.19
58.29
51.68
46.62
42.91
40.10
37.72
35.50
33.38
31.41
29.50
27.26
24.10
19.35
12.62
3.93
-6.17
-16.81
-27.11
-36.48
-44.87
-52.79
-61.23
-71.27
-83.66
-98.27
-113.81
-127.76
-136.86
-137.92
-128.84
-109.40
-81.51
-48.70
-15.19
15.30
40.31
58.96
71.58
79.20
82.93
83.72
82.31
79.35
75.57
71.65
68.21
65.57
63.73
62.45
61.43
60.42
59.39
58.40
57.52
56.68
55.55
53.62
50.32
45.31
38.62
30.73
22.41
14.45
7.32
1.00
-4.98
-11.30
-18.47
-26.59
-35.29
-43.86
-51.62
-58.17
-63.64
-68.68
-74.30
-81.62
-91.37
-103.50
-116.88
-129.29
-137.81
-139.57
-132.60
-116.47
-92.57
-63.70
-33.36
-4.84
19.47
38.38
51.79
60.35
65.00
66.67
66.20
64.31
61.68
58.97
56.72
55.28
54.68
54.68
54.88
54.91
54.57
53.87
53.01
52.13
51.20
49.92
47.82
44.53
39.89
34.14
27.81
21.49
15.64
10.38
5.52
0.71
-4.41
-10.01
-16.00
-22.22
-28.43
-34.47
-40.31
-45.97
-51.54
-57.08
-62.78
-68.90
-75.87
-84.00
-93.26
-102.96
-111.60
-117.16
-117.59
-111.48
-98.56
-79.84
-57.33
-33.58
-11.02
8.52
24.00
35.20
42.44
46.35
47.63
46.97
44.98
42.26
39.39
36.88
35.05
34.01
33.70
33.90
34.44
35.19
36.00
36.72
37.05
36.63
35.20
32.63
29.02
24.63
19.74
14.49
8.95
3.14
-2.88
-8.89
-14.68
-20.07
-25.06
-29.84
-34.69
-39.95
-45.89
-52.71
-60.50
-69.01
-77.53
-84.81
-89.20
-89.08
-83.39
-72.05
-56.09
-37.34
-18.01
-0.06
15.13
26.91
35.20
40.29
42.57
42.45
40.35
36.77
32.31
27.66
23.50
20.36
18.54
18.04
18.61
19.79
21.08
22.02
22.27
21.76
20.52
18.69
16.33
13.41
9.80
5.35
0.11
-5.76
-11.90
-17.96
-23.70
-29.07
-34.20
-39.35
-44.91
-51.24
-58.64
-67.12
-76.25
-84.95
-91.67
-94.73
-92.79
-85.35
-72.95
-57.02
-39.41
-21.93
-5.92
7.86
19.14
27.93
34.41
38.80
41.37
42.49
42.56
42.01
41.18
40.34
39.67
39.28
39.23
39.45
39.86
40.30
40.62
40.71
40.45
39.73
38.39
36.28
33.30
29.41
24.68
19.29
13.44
7.38
1.28
-4.78
-10.79
-16.79
-22.82
-28.88
-34.92
-40.81
-46.51
-52.07
-57.70
-63.81
-70.91
-79.34
-89.05
-99.32
-108.73
-115.31
-117.05
-112.51
-101.33
-84.39
-63.59
-41.24
-19.53
-0.03
16.35
29.31
38.87
45.30
48.94
50.35
50.19
49.16
47.92
46.89
46.23
45.92
45.85
45.92
46.12
46.54
47.24
48.22
49.36
50.45
51.24
51.45
50.86
49.27
46.56
42.72
37.87
32.30
26.42
20.59
15.08
9.91
4.92
-0.23
-5.80
-11.89
-18.35
-24.81
-30.80
-36.07
-40.64
-44.91
-49.56
-55.33
-62.73
-71.76
-81.76
-91.36
-98.72
-101.91
-99.38
-90.45
-75.58
-56.27
-34.76
-13.44
5.72
21.45
33.33
41.52
46.58
49.14
49.84
49.27
47.99
46.47
45.13
44.15
43.57
43.24
43.02
42.85
42.80
43.03
43.67
44.68
45.82
46.69
46.82
45.79
43.40
39.72
35.03
29.81
24.57
19.65
15.23
11.17
7.18
2.88
-2.01
-7.58
-13.68
-20.02
-26.25
-32.14
-37.58
-42.70
-47.80
-53.37
-59.95
-67.89
-77.11
-86.79
-95.40
-100.98
-101.69
-96.40
-85.11
-69.01
-50.02
-30.29
-11.61
4.85
18.58
29.49
37.65
43.15
46.13
46.80
45.56
43.01
39.85
36.73
34.12
32.25
31.17
30.83
31.15
32.05
33.34
34.78
36.00
36.66
36.52
35.47
33.52
30.66
26.83
22.01
16.29
9.92
3.36
-2.99
-8.92
-14.52
-20.07
-25.91
-32.33
-39.52
-47.53
-56.21
-65.06
-73.05
-78.70
-80.31
-76.56
-66.97
-52.25
-34.14
-14.97
3.04
18.25
29.86
37.82
42.56
44.65
44.60
42.79
39.58
35.32
30.53
25.81
21.76
18.81
17.16
16.70
17.16
18.19
19.50
20.92
22.41
23.95
25.39
26.43
26.56
25.26
22.12
17.06
10.34
2.48
-5.95
-14.50
-22.96
-31.35
-39.79
-48.54
-57.87
-68.05
-79.19
-91.05
-102.74
-112.80
-119.38
-120.75
-115.87
-104.71
-88.24
-68.13
-46.30
-24.51
-4.23
13.47
27.87
38.67
45.92
50.11
51.93
52.12
51.28
49.83
48.05
46.22
44.67
43.76
43.76
44.68
46.33
48.33
50.22
51.61
52.23
51.94
50.66
48.37
45.02
40.55
34.94
28.21
20.57
12.39
4.11
-3.81
-11.10
-17.80
-24.27
-31.10
-38.95
-48.25
-58.92
-70.21
-80.65
-88.30
-91.13
-87.62
-77.22
-60.64
-39.69
-16.83
5.44
25.21
41.47
53.99
63.07
69.12
72.42
73.19
71.70
68.42
64.04
59.27
54.67
50.50
46.81
43.57
40.82
38.69
37.27
36.54
36.24
35.99
35.47
34.47
32.93
30.89
28.33
25.10
21.01
15.89
9.69
2.65
-4.86
-12.38
-19.60
-26.46
-33.19
-40.26
-48.14
-57.15
-67.15
-77.42
-86.54
-92.68
-93.96
-88.98
-77.38
-60.06
-39.01
-16.84
3.92
21.40
34.65
43.60
48.77
50.88
50.65
48.68
45.56
41.85
38.18
35.09
32.96
31.92
31.86
32.48
33.47
34.57
35.66
36.66
37.44
37.82
37.50
36.19
33.71
30.02
25.25
19.65
13.51
7.12
0.78
-5.28
-10.87
-15.97
-20.74
-25.60
-31.09
-37.76
-45.88
-55.15
-64.55
-72.42
-76.76
-75.85
-68.76
-55.69
-38.00
-17.84
2.44
20.85
36.07
47.51
55.16
59.36
60.58
59.34
56.17
51.71
46.65
41.76
37.71
34.93
33.49
33.11
33.25
33.38
33.12
32.34
31.07
29.39
27.21
24.25
20.11
14.47
7.30
-1.07
-10.05
-18.91
-27.10
-34.44
-41.09
-47.61
-54.71
-63.07
-73.06
-84.45
-96.28
-106.77
-113.70
-114.80
-108.57
-94.73
-74.46
-50.11
-24.58
-0.53
20.15
36.52
48.45
56.26
60.50
61.75
60.64
57.87
54.21
50.38
46.93
44.22
42.36
41.34
41.13
41.68
42.94
44.71
46.61
48.10
48.56
47.46
44.58
40.11
34.58
28.66
22.86
17.37
11.95
6.16
-0.36
-7.69
-15.56
-23.41
-30.75
-37.29
-43.14
-48.78
-54.94
-62.41
-71.67
-82.54
-93.95
-103.89
-109.84
-109.42
-101.26
-85.52
-63.93
-39.38
-14.99
6.69
24.12
36.89
45.38
50.41
52.84
53.41
52.75
51.30
49.44
47.41
45.40
43.46
41.57
39.77
38.13
36.77
35.85
35.38
35.18
34.83
33.81
31.56
27.82
22.65
16.41
9.66
2.85
-3.72
-10.11
-16.54
-23.37
-30.78
-38.80
-47.19
-55.54
-63.43
-70.52
-76.67
-82.05
-87.03
-92.06
-97.38
-102.65
-106.77
-107.94
-104.11
-93.67
-76.09
-52.17
-23.91
6.02
34.93
60.66
81.67
97.04
106.35
109.66
107.62
101.50
93.07
84.15
76.17
69.80
65.01
61.31
58.10
55.07
52.21
49.76
47.92
46.69
45.84
44.94
43.56
41.37
38.22
34.13
29.27
23.89
18.22
12.43
6.58
0.58
-5.70
-12.38
-19.39
-26.47
-33.22
-39.20
-44.21
-48.35
-52.10
-56.20
-61.45
-68.45
-77.35
-87.61
-97.92
-106.29
-110.46
-108.49
-99.42
-83.66
-62.96
-39.94
-17.30
2.80
19.21
31.64
40.46
46.21
49.42
50.48
49.75
47.65
44.76
41.69
39.04
37.20
36.27
36.19
36.69
37.50
38.36
39.11
39.59
39.67
39.15
37.75
35.15
31.10
25.48
18.47
10.50
2.19
-5.82
-13.09
-19.53
-25.42
-31.31
-37.84
-45.59
-54.80
-65.13
-75.55
-84.36
-89.49
-89.05
-82.00
-68.52
-50.08
-29.02
-7.82
11.53
27.86
40.82
50.49
57.07
60.66
61.35
59.31
55.08
49.53
43.75
38.79
35.39
33.77
33.66
34.46
35.56
36.44
36.88
36.77
36.08
34.69
32.42
29.07
24.46
18.53
11.35
3.10
-5.84
-15.04
-24.02
-32.45
-40.22
-47.52
-54.81
-62.66
-71.66
-82.15
-94.02
-106.51
-118.08
-126.52
-129.53
-125.31
-113.28
-94.37
-70.77
-45.36
-20.81
0.97
19.09
33.50
44.57
52.75
58.37
61.71
63.06
62.84
61.61
59.94
58.34
57.09
56.32
55.94
55.83
55.81
55.74
55.49
54.88
53.75
51.83
48.92
44.80
39.39
32.77
25.16
16.92
8.45
0.08
-7.96
-15.63
-23.02
-30.36
-38.03
-46.48
-56.17
-67.40
-80.01
-93.19
-105.35
-114.33
-117.90
-114.37
-103.22
-85.28
-62.58
-37.73
-13.24
9.01
27.96
43.27
55.00
63.38
68.64
71.12
71.28
69.72
67.12
64.16
61.39
59.17
57.73
57.15
57.36
58.19
59.30
60.26
60.61
59.94
58.02
54.86
50.59
45.43
39.52
32.89
25.46
17.19
8.22
-1.10
-10.25
-18.75
-26.36
-33.24
-39.92
-47.24
-55.98
-66.57
-78.76
-91.43
-102.62
-109.93
-111.11
-104.81
-91.02
-71.15
-47.59
-23.07
0.05
20.23
36.75
49.54
58.80
64.83
67.95
68.56
67.18
64.47
61.18
57.98
55.45
53.92
53.46
53.90
54.92
56.02
56.77
56.78
55.84
53.89
50.98
47.18
42.52
36.94
30.37
22.81
14.46
5.71
-2.96
-11.11
-18.51
-25.25
-31.64
-38.19
-45.46
-53.89
-63.66
-74.44
-85.22
-94.27
-99.41
-98.64
-90.77
-75.96
-55.75
-32.69
-9.59
11.10
27.84
40.01
47.68
51.36
51.65
49.29
44.99
39.53
33.68
28.11
23.37
19.75
17.33
15.96
15.40
15.34
15.51
15.69
15.61
14.92
13.13
9.77
4.47
-2.84
-11.81
-21.85
-32.25
-42.45
-52.21
-61.71
-71.42
-81.99
-93.96
-107.55
-122.27
-136.87
-149.34
-157.34
-158.89
-152.96
-139.98
-121.75
-100.92
-80.20
-61.72
-46.59
-35.06
-26.85
-21.51
-18.67
-18.00
-19.09
-21.29
-23.81
-25.74
-26.39
-25.32
-22.50
-18.11
-12.39
-5.47
2.57
11.62
21.43
31.57
41.54
51.01
59.83
67.90
74.92
80.16
82.44
80.50
73.42
61.23
45.09
27.23
10.42
-2.82
-11.06
-14.41
-14.43
-13.47
-13.51
-15.23
-17.65
-18.60
-15.77
-7.81
5.11
21.43
39.01
55.85
70.57
82.46
91.24
96.86
99.35
98.90
95.87
90.77
84.29
77.25
70.78
66.20
64.85
67.64
74.64
84.80
96.14
106.28
113.14
115.40
112.64
105.17
93.72
79.24
62.88
45.94
29.80
15.64
4.17
-4.55
-10.97
-15.86
-19.95
-23.74
-27.48
-31.26
-35.15
-39.26
-43.85
-49.27
-55.94
-64.09
-73.51
-83.24
-91.51
-96.10
-94.90
-86.72
-71.70
-51.42
-28.39
-5.36
15.32
32.15
44.52
52.57
56.86
58.16
57.29
55.03
52.11
49.12
46.46
44.31
42.60
41.11
39.63
38.04
36.41
34.98
33.98
33.47
33.22
32.72
31.27
28.30
23.54
17.16
9.76
2.11
-5.08
-11.49
-17.18
-22.49
-27.83
-33.41
-39.18
-44.86
-50.04
-54.42
-57.84
-60.40
-62.51
-64.83
-68.12
-72.93
-79.28
-86.31
-92.34
-95.25
-93.16
-85.05
-71.23
-53.14
-32.94
-12.86
5.30
20.43
31.97
39.83
44.11
45.09
43.16
38.90
32.99
26.22
19.38
13.14
8.03
4.30
2.02
1.09
1.39
2.74
4.95
7.66
10.38
12.42
13.16
12.15
9.30
4.90
-0.46
-6.11
-11.39
-15.87
-19.45
-22.31
-24.96
-28.04
-32.22
-37.98
-45.37
-53.82
-62.05
-68.22
-70.35
-66.90
-57.37
-42.51
-24.20
-4.88
13.10
28.04
39.13
46.27
49.84
50.40
48.55
44.90
40.14
34.89
29.76
25.18
21.43
18.65
16.86
16.05
16.14
16.96
18.24
19.64
20.76
21.30
21.08
20.09
18.40
16.09
13.13
9.44
4.92
-0.43
-6.46
-12.92
-19.45
-25.79
-31.78
-37.44
-43.04
-49.04
-55.97
-64.17
-73.52
-83.16
-91.50
-96.50
-96.18
-89.32
-75.88
-57.15
-35.38
-13.25
6.91
23.52
35.99
44.52
49.78
52.56
53.47
52.90
51.10
48.26
44.71
40.85
37.22
34.37
32.71
32.48
33.65
35.92
38.67
41.07
42.23
41.57
39.11
35.62
32.45
30.95
31.84
34.73
38.14
40.02
38.59
32.95
23.35
10.88
-3.19
-17.86
-32.70
-47.70
-62.98
-78.50
-93.90
-108.37
-120.75
-129.65
-133.62
-131.48
-122.62
-107.28
-86.66
-62.70
-37.80
-14.27
6.07
22.14
33.73
41.30
45.82
48.39
50.00
51.29
52.50
53.57
54.31
54.58
54.39
53.95
53.61
53.69
54.40
55.71
57.32
58.78
59.55
59.20
57.53
54.58
50.62
46.03
41.16
36.24
31.27
26.11
20.60
14.60
8.16
1.52
-4.99
-11.07
-16.57
-21.67
-26.83
-32.70
-39.87
-48.52
-58.09
-67.20
-73.82
-75.78
-71.48
-60.47
-43.70
-23.28
-1.83
18.28
35.42
48.93
58.81
65.34
68.80
69.32
67.06
62.45
56.27
49.55
43.32
38.29
34.67
32.26
30.66
29.50
28.65
28.16
28.11
28.45
28.86
28.78
27.64
25.05
20.95
15.62
9.55
3.24
-2.88
-8.55
-13.61
-18.09
-22.23
-26.51
-31.59
-38.09
-46.19
-55.36
-64.29
-71.05
-73.68
-70.73
-61.76
-47.42
-29.30
-9.55
9.70
26.69
40.32
50.19
56.36
59.20
59.15
56.65
52.21
46.47
40.25
34.54
30.28
28.10
28.11
29.79
32.20
34.18
34.85
33.71
30.81
26.52
21.38
15.85
10.25
4.70
-0.86
-6.67
-13.24
-21.22
-31.15
-43.09
-56.23
-68.90
-78.98
-84.60
-84.89
-80.30
-72.54
-63.96
-56.71
-52.09
-50.24
-50.28
-50.78
-50.39
-48.34
-44.51
-39.39
-33.67
-27.88
-22.28
-16.90
-11.76
-7.08
-3.23
-0.58
0.85
1.51
2.29
4.11
7.51
12.37
17.88
22.94
26.64
28.57
28.96
28.38
27.45
26.49
25.41
23.87
21.46
17.95
13.32
7.79
1.73
-4.45
-10.34
-15.71
-20.54
-25.07
-29.81
-35.38
-42.37
-51.01
-60.92
-70.97
-79.30
-83.83
-82.74
-75.15
-61.38
-42.92
-22.02
-1.06
17.93
33.56
45.19
52.80
56.82
58.03
57.35
55.60
53.49
51.35
49.31
47.35
45.48
43.75
42.31
41.27
40.65
40.31
40.03
39.56
38.68
37.19
34.94
31.85
27.91
23.18
17.82
12.00
5.86
-0.50
-6.97
-13.40
-19.63
-25.48
-30.86
-35.88
-40.80
-46.08
-52.19
-59.52
-68.06
-77.25
-85.79
-91.88
-93.55
-89.32
-78.65
-62.27
-41.99
-20.19
0.76
19.06
33.66
44.27
51.15
54.84
56.01
55.28
53.26
50.43
47.20
43.90
40.82
38.23
36.36
35.45
35.58
36.63
38.27
39.98
41.25
41.62
40.91
39.18
36.62
33.45
29.86
25.93
21.80
17.58
13.41
9.42
5.61
1.93
-1.73
-5.44
-9.25
-13.21
-17.49
-22.41
-28.34
-35.49
-43.60
-51.73
-58.36
-61.69
-60.22
-53.25
-41.22
-25.57
-8.39
8.13
22.09
32.16
37.63
38.41
34.98
28.34
19.89
11.11
3.22
-3.06
-7.67
-10.98
-13.50
-15.60
-17.37
-18.68
-19.36
-19.31
-18.54
-17.15
-15.27
-13.14
-11.04
-9.43
-8.72
-9.31
-11.27
-14.38
-18.15
-22.00
-25.51
-28.58
-31.55
-35.11
-40.00
-46.61
-54.70
-63.20
-70.36
-74.15
-72.91
-65.87
-53.34
-36.75
-18.08
0.56
17.49
31.62
42.44
49.84
53.96
55.09
53.67
50.35
45.91
41.16
36.78
33.23
30.67
29.04
28.17
27.83
27.81
27.88
27.81
27.39
26.49
25.10
23.22
20.86
17.90
14.22
9.73
4.47
-1.28
-7.15
-12.83
-18.16
-23.23
-28.27
-33.52
-39.24
-45.71
-53.22
-61.91
-71.53
-81.13
-89.03
-93.12
-91.50
-83.23
-68.69
-49.54
-28.24
-7.34
11.20
26.22
37.37
44.82
49.01
50.46
49.81
47.73
44.91
41.97
39.29
37.04
35.18
33.60
32.23
31.12
30.40
30.17
30.36
30.72
30.79
30.08
28.19
24.89
20.20
14.33
7.66
0.64
-6.17
-12.23
-17.04
-20.22
-21.64
-21.43
-19.93
-17.71
-15.49
-14.15
-14.58
-17.48
-23.08
-30.79
-39.16
-46.07
-49.33
-47.31
-39.52
-26.77
-10.87
5.98
21.74
34.95
44.83
51.20
54.32
54.66
52.84
49.59
45.57
41.37
37.42
33.97
31.08
28.74
26.83
25.25
23.96
22.93
22.23
21.77
21.37
20.69
19.32
17.00
13.72
9.80
5.67
1.75
-1.81
-5.18
-8.72
-12.78
-17.56
-22.99
-28.74
-34.42
-39.57
-43.98
-47.70
-51.16
-55.07
-60.15
-66.77
-74.47
-81.95
-87.19
-88.13
-83.37
-72.67
-57.04
-38.46
-19.24
-1.53
13.13
23.92
30.69
33.84
34.04
32.12
28.87
24.99
21.05
17.43
14.48
12.42
11.39
11.37
12.24
13.77
15.74
17.95
20.25
22.48
24.38
25.68
26.06
25.27
23.22
19.98
15.78
10.91
5.66
0.27
-5.04
-10.15
-15.05
-19.84
-24.87
-30.62
-37.50
-45.58
-54.30
-62.38
-68.04
-69.49
-65.50
-55.92
-41.79
-25.02
-7.81
7.93
21.04
31.13
38.39
43.21
45.92
46.68
45.61
42.96
39.22
35.15
31.64
29.43
28.96
30.17
32.65
35.72
38.76
41.39
43.48
45.11
46.32
47.04
46.98
45.71
42.80
38.04
31.48
23.49
14.64
5.50
-3.53
-12.29
-20.87
-29.49
-38.42
-47.88
-57.91
-68.30
-78.43
-87.16
-92.95
-94.19
-89.68
-79.18
-63.57
-44.72
-24.91
-6.30
9.56
21.82
30.25
35.04
36.65
35.74
33.13
29.71
26.30
23.48
21.57
20.62
20.51
20.96
21.58
21.93
21.69
20.90
20.06
20.04
21.69
25.33
30.31
35.20
38.22
37.97
33.99
26.77
17.31
6.59
-4.84
-16.83
-29.26
-41.74
-53.57
-64.03
-72.79
-80.17
-87.02
-94.15
-101.80
-109.19
-114.63
-116.01
-111.60
-100.68
-83.89
-63.06
-40.61
-18.89
0.35
16.19
28.46
37.43
43.54
47.26
49.03
49.34
48.69
47.61
46.53
45.75
45.40
45.51
46.01
46.80
47.74
48.70
49.53
50.07
50.11
49.41
47.77
45.09
41.45
37.09
32.34
27.45
22.56
17.53
12.18
6.29
-0.12
-6.83
-13.46
-19.60
-25.01
-29.76
-34.28
-39.26
-45.40
-53.12
-62.15
-71.31
-78.70
-82.07
-79.56
-70.39
-55.11
-35.53
-14.07
6.89
25.60
41.08
52.93
61.08
65.50
66.25
63.61
58.24
51.13
43.47
36.29
30.31
25.82
22.76
20.85
19.75
19.18
18.90
18.79
18.77
18.75
18.56
17.95
16.60
14.21
10.58
5.80
0.18
-5.83
-11.75
-17.26
-22.30
-27.05
-31.85
-37.09
-43.17
-50.29
-58.30
-66.51
-73.67
-78.14
-78.25
-72.88
-61.80
-45.84
-26.69
-6.48
12.74
29.33
42.29
51.27
56.45
58.36
57.79
55.57
52.45
48.98
45.51
42.21
39.18
36.50
34.27
32.56
31.44
30.79
30.45
30.23
29.89
29.19
27.63
24.63
19.64
12.57
4.15
-4.19
-10.81
-14.77
-16.47
-17.60
-20.45
-26.82
-37.22
-50.77
-65.91
-81.20
-95.85
-109.47
-121.42
-130.27
-133.89
-130.20
-118.16
-98.48
-73.61
-46.94
-21.79
-0.41
16.33
28.74
37.76
44.30
48.91
51.78
52.93
52.48
50.90
48.91
47.32
46.77
47.53
49.48
52.20
55.17
57.86
59.89
61.01
61.07
60.09
58.16
55.38
51.81
47.35
41.79
34.95
26.79
17.56
7.80
-1.83
-10.79
-18.86
-26.16
-33.15
-40.45
-48.70
-58.42
-69.77
-82.34
-94.94
-105.57
-111.82
-111.45
-103.18
-87.17
-65.10
-39.70
-14.02
9.35
28.72
43.36
53.33
59.17
61.63
61.59
59.95
57.57
55.15
53.15
51.76
50.92
50.46
50.21
50.02
49.82
49.53
49.02
48.08
46.50
44.06
40.72
36.56
31.84
26.89
22.06
17.50
13.12
8.60
3.51
-2.50
-9.52
-17.23
-25.07
-32.45
-38.92
-44.49
-49.56
-54.93
-61.51
-69.94
-80.17
-91.14
-100.91
-106.98
-107.09
-99.94
-85.68
-65.89
-43.05
-19.82
1.57
19.69
33.91
44.15
50.64
53.77
54.00
51.89
48.14
43.57
39.04
35.41
33.24
32.72
33.65
35.44
37.39
38.89
39.64
39.61
38.99
37.95
36.45
34.22
30.78
25.76
19.02
10.87
1.97
-6.88
-15.09
-22.47
-29.24
-35.95
-43.21
-51.51
-61.04
-71.47
-81.88
-90.69
-95.97
-95.84
-89.12
-75.71
-56.75
-34.27
-10.66
11.87
31.65
47.57
59.08
66.03
68.73
67.88
64.55
60.03
55.58
52.25
50.70
51.08
53.11
56.12
59.25
61.79
63.40
64.33
65.25
66.95
69.74
73.12
75.76
75.95
72.39
64.62
53.31
39.74
25.22
10.52
-4.28
-19.45
-35.11
-50.89
-65.89
-79.13
-90.00
-98.64
-105.88
-113.00
-121.09
-130.58
-140.83
-150.11
-155.90
-155.63
-147.41
-130.74
-106.77
-78.03
-47.73
-18.95
6.05
26.08
40.96
51.15
57.39
60.52
61.38
60.80
59.56
58.32
57.50
57.29
57.68
58.54
59.79
61.36
63.19
65.16
67.04
68.48
69.13
68.65
66.81
63.54
58.85
52.92
45.95
38.18
29.81
21.00
11.85
2.44
-7.07
-16.47
-25.48
-33.91
-41.75
-49.34
-57.32
-66.43
-77.14
-89.18
-101.28
-111.21
-116.31
-114.24
-103.82
-85.41
-60.97
-33.42
-5.90
18.95
39.40
54.72
64.98
70.85
73.29
73.38
72.15
70.47
68.98
68.01
67.68
67.84
68.25
68.65
68.92
69.10
69.34
69.71
69.97
69.48
67.32
62.61
54.90
44.38
31.79
18.12
4.31
-9.05
-21.71
-33.62
-44.66
-54.59
-63.03
-69.71
-74.54
-77.89
-80.48
-83.36
-87.59
-93.87
-102.09
-111.06
-118.62
-122.09
-119.09
-108.32
-90.14
-66.44
-40.03
-13.87
9.75
29.46
44.79
55.76
62.61
65.63
65.28
62.33
57.78
52.87
48.65
45.81
44.52
44.45
45.10
46.01
46.97
48.03
49.32
50.81
52.17
52.71
51.66
48.51
43.24
36.47
29.21
22.46
16.84
12.36
8.49
4.40
-0.72
-7.51
-16.24
-26.63
-37.74
-47.89
-54.85
-56.36
-50.90
-38.28
-19.85
1.84
23.87
43.72
59.78
71.38
78.38
80.89
79.06
73.15
63.79
52.03
39.27
26.94
16.22
7.74
1.61
-2.52
-5.17
-6.80
-7.75
-8.19
-8.23
-7.98
-7.49
-6.78
-5.76
-4.31
-2.47
-0.59
0.49
-0.36
-4.36
-12.39
-24.74
-41.13
-60.69
-82.19
-104.00
-124.05
-139.79
-148.62
-148.43
-138.37
-119.31
-93.72
-65.04
-36.73
-11.45
9.36
25.37
36.94
44.68
49.18
50.96
50.58
48.72
46.13
43.59
41.72
40.90
41.24
42.62
44.75
47.26
49.84
52.17
53.96
54.90
54.62
52.87
49.53
44.76
38.95
32.61
26.11
19.60
12.93
5.79
-2.10
-10.83
-20.21
-29.87
-39.38
-48.41
-56.89
-65.10
-73.70
-83.55
-95.31
-108.86
-122.92
-134.99
-141.98
-141.12
-131.03
-112.33
-87.40
-59.70
-32.69
-8.97
10.05
24.14
33.73
39.61
42.61
43.52
43.12
42.13
41.17
40.66
40.82
41.61
42.89
44.49
46.31
48.32
50.47
52.62
54.50
55.73
55.91
54.76
52.19
48.28
43.18
37.08
30.11
22.34
13.84
4.76
-4.65
-14.02
-22.92
-31.00
-38.09
-44.34
-50.25
-56.60
-64.24
-73.69
-84.71
-96.08
-105.59
-110.55
-108.53
-98.22
-79.92
-55.62
-28.39
-1.62
21.92
40.49
53.57
61.57
65.42
66.20
64.88
62.29
59.08
55.74
52.64
49.99
47.85
46.22
45.03
44.28
44.02
44.35
45.28
46.62
47.92
48.49
47.66
44.97
40.43
34.46
27.75
20.91
14.32
7.91
1.35
-5.69
-13.34
-21.38
-29.31
-36.49
-42.47
-47.13
-50.83
-54.40
-58.92
-65.29
-73.82
-83.78
-93.31
-99.79
-100.52
-93.68
-78.92
-57.61
-32.34
-6.18
18.11
38.62
54.43
65.36
71.74
74.10
73.12
69.61
64.52
58.84
53.51
49.16
46.05
44.00
42.61
41.38
39.99
38.36
36.54
34.58
32.26
29.18
24.78
18.64
10.73
1.46
-8.38
-17.89
-26.34
-33.45
-39.45
-45.00
-51.02
-58.32
-67.18
-77.08
-86.56
-93.42
-95.34
-90.61
-78.67
-60.50
-38.24
-14.70
7.50
26.47
41.28
51.77
58.27
61.30
61.40
59.15
55.24
50.44
45.55
41.28
38.13
36.30
35.77
36.40
38.01
40.45
43.48
46.68
49.37
50.68
49.88
46.59
41.08
34.15
26.80
19.86
13.65
7.90
2.07
-4.27
-11.15
-18.18
-24.73
-30.26
-34.51
-37.52
-39.66
-41.65
-44.60
-49.96
-59.02
-72.15
-88.14
-104.02
-115.71
-119.46
-113.22
-97.52
-75.22
-50.33
-26.59
-6.42
9.34
20.97
29.17
34.56
37.55
38.54
38.10
36.98
35.95
35.64
36.32
37.92
40.16
42.70
45.27
47.74
50.03
52.04
53.50
54.02
53.11
50.40
45.86
39.83
32.95
25.87
18.96
12.21
5.33
-2.01
-9.91
-18.07
-26.04
-33.38
-39.94
-45.96
-52.07
-59.08
-67.73
-78.30
-90.25
-102.01
-111.14
-114.85
-110.90
-98.37
-78.18
-52.84
-25.78
-0.38
20.90
36.88
47.57
53.78
56.56
56.87
55.47
52.93
49.75
46.45
43.49
41.24
39.83
39.19
39.21
39.82
41.03
42.85
45.15
47.54
49.44
50.31
49.77
47.91
45.11
41.94
38.81
35.83
32.75
29.13
24.62
19.13
12.86
6.14
-0.89
-8.44
-17.17
-27.87
-41.20
-57.44
-76.37
-97.19
-118.57
-138.58
-154.71
-164.21
-164.62
-154.60
-134.60
-106.94
-75.35
-43.94
-16.06
6.38
22.99
34.40
41.62
45.53
46.73
45.70
43.02
39.49
36.04
33.52
32.40
32.71
34.06
35.89
37.75
39.41
40.90
42.28
43.40
43.82
42.83
39.77
34.37
26.92
18.27
9.49
1.47
-5.40
-11.39
-17.25
-23.94
-32.21
-42.27
-53.48
-64.30
-72.53
-75.76
-72.19
-61.23
-43.81
-22.18
0.81
22.46
40.84
55.02
64.88
70.75
73.07
72.28
68.87
63.54
57.14
50.62
44.77
40.13
36.88
35.02
34.45
35.07
36.74
39.24
42.17
44.94
46.88
47.38
46.04
42.81
37.94
31.91
25.26
18.41
11.54
4.60
-2.58
-10.11
-17.93
-25.81
-33.42
-40.49
-47.01
-53.20
-59.54
-66.63
-75.01
-84.86
-95.63
-105.90
-113.50
-115.90
-111.07
-98.24
-78.28
-53.52
-27.15
-2.22
19.02
35.44
46.89
53.83
56.98
57.15
55.16
51.91
48.29
45.06
42.66
41.20
40.48
40.13
39.87
39.57
39.30
39.23
39.42
39.83
40.14
39.97
38.86
36.62
33.31
29.39
25.64
22.86
21.62
21.88
22.90
23.28
21.40
15.92
6.25
-7.28
-23.61
-41.39
-59.56
-77.61
-95.59
-113.65
-131.37
-147.42
-159.48
-164.86
-161.43
-148.47
-127.11
-100.07
-70.81
-42.54
-17.52
3.22
19.55
31.87
40.59
46.08
48.73
49.10
48.00
46.33
44.89
44.18
44.27
44.92
45.81
46.72
47.68
48.92
50.61
52.69
54.70
55.91
55.50
52.92
48.10
41.45
33.78
25.90
18.39
11.36
4.49
-2.77
-10.90
-20.07
-30.03
-40.15
-49.76
-58.35
-65.78
-72.36
-78.73
-85.71
-94.04
-104.02
-115.15
-125.95
-134.06
-136.81
-132.08
-119.09
-98.83
-73.79
-47.24
-22.21
-0.82
15.94
28.01
35.79
39.83
40.79
39.49
37.06
34.76
33.71
34.60
37.45
41.67
46.28
50.34
53.18
54.64
54.95
54.62
54.15
53.79
53.48
52.88
51.45
48.67
44.21
38.10
30.69
22.62
14.56
7.06
0.31
-5.88
-12.06
-19.03
-27.54
-37.93
-49.72
-61.44
-70.79
-75.27
-72.98
-63.37
-47.48
-27.57
-6.34
13.85
31.54
46.11
57.47
65.73
70.94
73.19
72.61
69.40
63.87
56.54
48.43
41.17
36.82
37.20
43.03
53.26
65.11
74.91
79.45
77.06
68.04
54.14
37.52
19.91
2.22
-15.11
-31.60
-46.34
-58.16
-66.15
-70.22
-71.38
-71.44
-72.41
-75.85
-82.27
-91.07
-100.66
-108.81
-113.15
-111.73
-103.47
-88.45
-67.95
-44.04
-19.10
4.78
26.05
43.84
57.73
67.66
73.74
76.28
75.87
73.29
69.42
65.08
60.87
57.15
54.03
51.52
49.62
48.41
47.99
48.41
49.51
50.88
51.87
51.78
50.03
46.41
41.11
34.66
27.70
20.84
14.41
8.41
2.52
-3.71
-10.64
-18.36
-26.60
-34.81
-42.41
-49.01
-54.61
-59.61
-64.69
-70.71
-78.36
-87.95
-99.06
-110.28
-119.35
-123.51
-120.39
-108.81
-89.27
-63.98
-36.13
-8.99
14.95
34.36
49.03
59.40
66.16
69.99
71.44
71.04
69.32
66.81
64.01
61.26
58.77
56.68
55.04
53.89
53.29
53.29
53.84
54.75
55.63
55.89
54.98
52.44
48.16
42.42
35.75
28.76
21.85
15.16
8.57
1.92
-4.86
-11.66
-18.22
-24.33
-29.94
-35.29
-40.84
-47.22
-54.96
-64.38
-75.18
-86.32
-95.96
-101.71
-101.34
-93.45
-78.11
-56.92
-32.57
-8.03
14.22
32.67
46.78
56.65
62.71
65.41
65.20
62.62
58.31
53.02
47.45
42.24
37.85
34.53
32.34
31.13
30.59
30.39
30.22
29.94
29.54
29.06
28.44
27.50
25.99
23.66
20.49
16.66
12.57
8.63
5.12
2.04
-0.84
-3.93
-7.66
-12.37
-18.24
-25.28
-33.25
-41.65
-49.66
-56.24
-60.28
-60.90
-57.68
-50.83
-41.23
-30.14
-18.96
-8.90
-0.84
4.80
7.95
8.78
7.67
5.13
1.80
-1.57
-4.20
-5.45
-4.97
-2.84
0.51
4.41
8.22
11.57
14.36
16.66
18.49
19.60
19.46
17.51
13.39
7.23
-0.36
-8.43
-16.11
-22.88
-28.77
-34.29
-40.29
-47.66
-57.01
-68.31
-80.65
-92.18
-100.44
-102.95
-97.98
-85.21
-65.88
-42.46
-17.86
5.32
25.27
41.17
52.85
60.58
64.75
65.84
64.44
61.29
57.24
53.11
49.57
47.00
45.52
44.99
45.20
45.91
47.00
48.44
50.14
51.86
53.09
53.19
51.56
47.90
42.40
35.63
28.43
21.54
15.37
9.87
4.62
-0.95
-7.26
-14.43
-22.19
-29.98
-37.33
-44.01
-50.25
-56.65
-64.01
-73.05
-84.11
-96.92
-110.36
-122.47
-130.73
-132.64
-126.50
-111.99
-90.47
-64.64
-37.72
-12.62
8.68
25.28
37.14
44.71
48.64
49.67
48.67
46.53
44.13
42.14
40.94
40.57
40.91
41.79
43.06
44.67
46.60
48.80
51.13
53.30
54.90
55.49
54.79
52.78
49.78
46.28
42.77
39.44
36.04
31.92
26.23
18.42
8.33
-3.60
-16.49
-29.38
-41.47
-52.33
-62.03
-71.01
-79.98
-89.63
-100.21
-111.25
-121.30
-128.16
-129.42
-123.27
-109.17
-88.17
-62.69
-35.74
-10.19
11.96
29.71
42.96
52.16
57.96
61.05
62.11
61.78
60.65
59.23
57.88
56.83
56.19
55.99
56.22
56.85
57.76
58.72
59.47
59.69
59.12
57.57
54.99
51.47
47.17
42.28
36.93
31.11
24.69
17.54
9.65
1.20
-7.39
-15.61
-23.08
-29.71
-35.81
-42.07
-49.33
-58.22
-68.76
-80.08
-90.34
-97.08
-97.92
-91.34
-77.31
-57.34
-34.09
-10.55
10.81
28.47
41.94
51.40
57.32
60.11
60.10
57.63
53.24
47.74
42.13
37.35
34.06
32.44
32.19
32.74
33.53
34.26
34.90
35.60
36.42
37.19
37.42
36.54
34.03
29.70
23.72
16.58
8.89
1.21
-6.11
-12.94
-19.33
-25.45
-31.56
-37.96
-44.99
-52.75
-60.83
-68.11
-72.86
-73.19
-67.79
-56.51
-40.44
-21.63
-2.35
15.53
30.82
42.92
51.52
56.46
57.74
55.76
51.35
45.72
40.09
35.44
32.22
30.42
29.67
29.40
29.08
28.29
26.87
24.92
22.78
20.80
19.19
17.89
16.61
15.02
12.95
10.55
8.22
6.38
5.27
4.67
3.94
2.17
-1.55
-7.90
-17.03
-28.66
-42.19
-56.97
-72.64
-89.07
-106.13
-123.16
-138.67
-150.31
-155.44
-152.02
-139.45
-118.98
-93.33
-65.90
-39.74
-16.92
1.73
16.25
27.16
34.97
40.07
42.76
43.38
42.43
40.57
38.53
36.96
36.24
36.46
37.38
38.56
39.58
40.13
40.14
39.66
38.80
37.58
35.90
33.53
30.22
25.78
20.17
13.49
6.05
-1.69
-9.27
-16.28
-22.57
-28.26
-33.76
-39.59
-46.29
-54.23
-63.48
-73.57
-83.39
-91.16
-94.78
-92.38
-82.94
-66.86
-45.87
-22.67
-0.08
19.64
35.27
46.53
53.90
58.09
59.86
59.85
58.58
56.46
53.88
51.11
48.41
46.01
44.15
43.05
42.82
43.45
44.70
46.21
47.50
48.15
47.86
46.49
44.09
40.83
36.86
32.30
27.16
21.31
14.57
6.84
-1.82
-11.16
-20.70
-29.99
-38.75
-47.07
-55.39
-64.45
-74.82
-86.52
-98.60
-109.15
-115.65
-115.77
-108.13
-92.92
-71.87
-47.77
-23.62
-1.90
15.88
29.18
38.14
43.25
45.08
44.25
41.46
37.50
33.22
29.42
26.65
25.17
24.90
25.54
26.77
28.32
30.08
32.05
34.15
36.12
37.43
37.48
35.67
31.76
25.90
18.62
10.60
2.45
-5.52
-13.30
-21.05
-29.06
-37.54
-46.59
-56.15
-65.78
-74.51
-80.84
-82.93
-79.13
-68.55
-51.49
-29.49
-4.94
19.45
41.18
58.23
69.11
72.94
69.46
59.21
43.57
24.58
4.69
-13.85
-29.30
-40.65
-47.60
-50.33
-49.35
-45.36
-39.27
-32.04
-24.78
-18.50
-14.00
-11.79
-11.98
-14.37
-18.41
-23.41
-28.61
-33.36
-37.30
-40.43
-43.15
-46.15
-50.18
-55.61
-62.10
-68.45
-72.70
-72.69
-66.66
-53.99
-35.39
-12.81
11.12
33.84
53.36
68.66
79.52
86.28
89.48
89.61
87.05
82.18
75.46
67.54
59.29
51.68
45.53
41.36
39.25
38.85
39.50
40.45
41.13
41.24
40.75
39.76
38.30
36.22
33.23
29.02
23.42
16.57
8.82
0.64
-7.52
-15.41
-22.89
-30.02
-36.99
-44.19
-52.25
-61.91
-73.73
-87.60
-102.36
-115.73
-124.80
-126.83
-120.21
-105.00
-82.97
-56.98
-30.19
-5.22
16.20
33.37
46.38
55.84
62.61
67.56
71.38
74.56
77.33
79.82
82.09
84.09
85.56
86.03
84.85
81.45
75.66
67.76
58.50
48.77
39.34
30.69
22.98
16.21
10.35
5.32
0.99
-2.90
-6.73
-10.90
-15.73
-21.31
-27.46
-33.79
-39.87
-45.45
-50.61
-55.86
-62.04
-69.95
-79.84
-90.94
-101.30
-108.19
-108.93
-101.78
-86.67
-65.23
-40.25
-14.84
8.49
28.20
43.74
55.26
63.22
68.16
70.62
71.17
70.41
68.94
67.32
65.98
65.18
64.96
65.20
65.73
66.43
67.35
68.58
70.17
71.83
72.97
72.80
70.73
66.59
60.81
54.18
47.43
40.97
34.65
27.97
20.39
11.72
2.18
-7.62
-16.94
-25.29
-32.52
-38.98
-45.35
-52.51
-61.21
-71.84
-84.07
-96.68
-107.67
-114.52
-114.90
-107.27
-91.49
-68.94
-42.15
-14.11
12.54
36.03
55.56
70.86
81.66
87.42
87.37
81.11
69.05
52.70
34.33
16.32
0.54
-12.03
-21.16
-26.96
-29.56
-29.03
-25.57
-19.78
-12.74
-5.86
-0.53
2.34
2.44
0.12
-3.76
-8.19
-12.31
-15.71
-18.49
-21.35
-25.28
-31.26
-39.72
-50.29
-61.65
-71.79
-78.50
-79.90
-75.05
-64.12
-48.28
-29.40
-9.53
9.48
26.22
39.87
50.04
56.71
60.11
60.61
58.76
55.18
50.58
45.58
40.75
36.49
33.09
30.75
29.65
29.83
31.18
33.36
35.83
37.94
39.14
39.06
37.62
34.96
31.28
26.84
21.82
16.33
10.44
4.12
-2.68
-10.07
-18.08
-26.55
-35.19
-43.59
-51.43
-58.70
-65.88
-73.77
-83.18
-94.38
-106.63
-118.07
-126.06
-128.00
-122.08
-107.97
-86.91
-61.42
-34.48
-8.84
13.52
31.62
45.29
54.97
61.27
64.86
66.30
66.03
64.42
61.84
58.74
55.63
52.98
51.09
50.12
50.03
50.68
51.89
53.46
55.10
56.36
56.64
55.38
52.29
47.53
41.67
35.48
29.52
23.89
18.15
11.62
3.81
-5.33
-15.28
-25.20
-34.30
-42.20
-49.03
-55.43
-62.34
-70.76
-81.36
-94.09
-107.80
-120.27
-128.49
-129.62
-121.89
-105.36
-81.97
-54.95
-27.75
-3.18
17.18
32.89
44.21
51.75
56.08
57.74
57.30
55.47
53.04
50.77
49.18
48.41
48.33
48.66
49.25
50.29
52.21
55.48
60.29
66.28
72.60
78.06
81.53
82.16
79.49
73.49
64.40
52.70
38.95
23.71
7.49
-9.24
-26.01
-42.24
-57.19
-70.01
-80.03
-86.96
-91.19
-93.76
-96.17
-99.94
-106.06
-114.55
-124.14
-132.45
-136.54
-133.74
-122.61
-103.40
-78.06
-49.58
-21.13
4.73
26.47
43.55
56.09
64.46
69.14
70.62
69.53
66.63
62.82
58.89
55.52
53.14
51.94
51.99
53.26
55.71
59.21
63.57
68.39
73.12
77.11
79.80
80.79
79.96
77.43
73.51
68.59
63.07
57.32
51.57
45.98
40.61
35.47
30.53
25.69
20.77
15.44
9.39
2.48
-4.91
-11.81
-16.77
-18.36
-15.81
-9.35
-0.30
9.31
17.51
22.91
25.02
24.17
21.04
16.30
10.37
3.49
-4.08
-11.90
-19.37
-25.90
-31.16
-35.18
-38.20
-40.41
-41.72
-41.66
-39.62
-35.20
-28.59
-20.69
-12.96
-7.01
-4.13
-4.86
-8.94
-15.55
-23.62
-32.24
-40.80
-48.94
-56.45
-63.26
-69.60
-75.91
-82.72
-90.02
-96.82
-100.92
-99.53
-90.26
-72.32
-47.01
-17.51
12.32
39.06
60.63
76.36
86.56
91.95
93.24
91.07
86.12
79.18
71.18
62.99
55.34
48.73
43.42
39.48
36.80
35.09
33.87
32.58
30.70
27.90
24.11
19.50
14.32
8.79
2.86
-3.70
-11.34
-20.41
-30.95
-42.61
-54.67
-66.25
-76.62
-85.49
-93.08
-100.13
-107.60
-116.38
-126.82
-138.35
-149.31
-157.15
-159.01
-152.58
-136.98
-113.13
-83.58
-51.81
-21.21
5.70
27.59
44.21
56.00
63.67
67.91
69.36
68.65
66.50
63.65
60.79
58.42
56.73
55.65
54.88
54.15
53.34
52.54
51.97
51.73
51.64
51.15
49.46
45.80
39.76
31.41
21.40
10.69
0.23
-9.36
-17.97
-25.98
-34.20
-43.55
-54.80
-68.16
-82.96
-97.44
-108.99
-114.64
-112.05
-100.25
-80.12
-54.17
-25.81
1.59
25.54
44.68
58.78
68.28
73.85
76.17
75.81
73.27
69.09
63.87
58.35
53.22
49.08
46.24
44.68
44.00
43.69
43.31
42.61
41.61
40.46
39.15
37.39
34.64
30.33
24.08
15.95
6.45
-3.64
-13.59
-22.88
-31.38
-39.29
-46.99
-54.93
-63.60
-73.49
-84.90
-97.70
-110.87
-122.42
-129.57
-129.56
-120.53
-102.35
-76.76
-46.93
-16.56
11.17
34.15
51.47
63.15
69.68
71.75
70.15
65.78
59.69
52.99
46.71
41.59
37.97
35.76
34.61
34.10
34.01
34.35
35.21
36.51
37.77
38.13
36.58
32.42
25.57
16.63
6.67
-3.22
-12.28
-20.37
-27.90
-35.72
-44.77
-55.79
-68.76
-82.66
-95.38
-104.02
-105.77
-98.77
-82.86
-59.73
-32.41
-4.41
21.23
42.50
58.51
69.18
74.90
76.19
73.66
68.05
60.34
51.75
43.50
36.64
31.80
29.08
28.11
28.29
28.99
29.72
30.21
30.33
29.99
29.01
27.05
23.69
18.49
11.20
1.90
-8.90
-20.43
-31.80
-42.36
-51.82
-60.39
-68.62
-77.30
-87.29
-99.26
-113.37
-128.80
-143.51
-154.30
-157.64
-150.66
-132.34
-103.96
-68.86
-31.49
3.94
34.36
58.27
75.59
87.07
93.82
96.91
97.21
95.45
92.26
88.23
83.95
80.00
76.84
74.73
73.72
73.61
74.00
74.42
74.39
73.52
71.55
68.29
63.73
57.88
50.79
42.54
33.14
22.67
11.28
-0.72
-12.89
-24.70
-35.69
-45.59
-54.45
-62.73
-71.17
-80.76
-92.32
-106.13
-121.37
-135.91
-146.56
-149.81
-142.98
-125.18
-97.76
-64.00
-28.15
5.80
34.95
57.87
74.38
85.09
90.96
93.00
92.24
89.66
86.19
82.56
79.26
76.51
74.26
72.38
70.73
69.29
68.24
67.81
68.13
68.99
69.81
69.59
67.37
62.49
55.02
45.70
35.74
26.26
17.82
10.26
2.80
-5.42
-14.97
-25.72
-36.97
-47.76
-57.27
-65.16
-71.69
-77.70
-84.29
-92.66
-103.59
-117.07
-131.91
-145.56
-154.54
-155.33
-145.44
-124.37
-93.95
-57.83
-20.48
14.04
42.90
64.80
79.72
88.42
91.97
91.51
88.15
83.00
77.07
71.25
66.15
62.08
59.12
57.24
56.36
56.45
57.40
58.90
60.44
61.30
60.78
58.38
54.02
48.01
40.97
33.54
26.13
18.76
11.13
2.79
-6.52
-16.70
-27.21
-37.32
-46.35
-54.07
-60.77
-67.23
-74.49
-83.49
-94.65
-107.41
-120.03
-129.70
-133.22
-127.87
-112.51
-88.02
-57.25
-24.16
7.31
34.20
54.96
69.31
77.79
81.18
80.27
75.77
68.47
59.38
49.79
41.04
34.25
30.02
28.27
28.34
29.26
30.23
30.86
31.23
31.62
32.17
32.58
32.16
30.00
25.45
18.35
9.21
-1.01
-11.19
-20.48
-28.54
-35.62
-42.40
-49.78
-58.60
-69.42
-82.29
-96.42
-110.06
-120.62
-125.10
-120.95
-106.94
-83.73
-53.85
-20.99
10.97
38.94
61.09
76.79
86.30
90.31
89.70
85.41
78.55
70.25
61.66
53.77
47.29
42.57
39.69
38.50
38.74
40.01
41.87
43.76
45.09
45.32
44.03
41.06
36.48
30.53
23.51
15.66
7.10
-2.11
-11.88
-22.00
-32.20
-42.13
-51.51
-60.25
-68.50
-76.66
-85.40
-95.55
-107.79
-122.15
-137.50
-151.37
-160.25
-160.56
-149.82
-127.64
-96.04
-58.90
-20.85
13.96
42.77
64.37
78.88
87.21
90.57
90.17
87.11
82.39
76.90
71.37
66.39
62.31
59.29
57.36
56.47
56.54
57.41
58.86
60.47
61.72
61.97
60.67
57.47
52.40
45.78
38.10
29.82
21.16
12.07
2.32
-8.21
-19.42
-30.85
-41.86
-51.90
-60.72
-68.57
-76.10
-84.29
-94.14
-106.26
-120.34
-134.83
-146.89
-153.02
-150.00
-136.10
-111.78
-79.72
-43.99
-8.90
22.10
46.99
65.15
76.94
83.23
85.05
83.49
79.65
74.61
69.30
64.39
60.28
57.09
54.81
53.40
52.86
53.22
54.40
56.17
58.08
59.47
59.63
58.00
54.37
48.91
42.10
34.51
26.56
18.40
9.91
0.86
-8.82
-18.96
-29.15
-38.90
-47.83
-55.86
-63.29
-70.77
-79.19
-89.42
-101.86
-115.98
-130.02
-141.04
-145.59
-140.70
-125.04
-99.43
-66.76
-31.18
3.12
32.85
56.11
72.42
82.21
86.42
86.11
82.37
76.27
68.89
61.23
54.18
48.41
44.34
42.14
41.77
43.03
45.62
49.16
53.20
57.18
60.47
62.44
62.63
60.88
57.33
52.33
46.32
39.56
32.16
24.10
15.45
6.45
-2.41
-10.55
-17.49
-23.17
-27.96
-32.66
-38.25
-45.47
-54.47
-64.40
-73.41
-79.10
-79.20
-72.51
-59.44
-42.12
-23.89
-8.22
2.23
6.33
4.59
-1.33
-9.37
-17.79
-25.64
-32.68
-38.97
-44.50
-48.88
-51.40
-51.34
-48.37
-42.68
-34.98
-26.18
-17.12
-8.32
-0.12
7.26
13.46
17.86
19.75
18.58
14.25
7.32
-1.02
-9.36
-16.50
-21.92
-25.95
-29.59
-34.08
-40.52
-49.59
-61.30
-74.83
-88.46
-99.68
-105.50
-103.32
-91.68
-70.98
-43.43
-12.55
17.89
44.81
66.37
81.96
91.79
96.53
96.91
93.74
87.90
80.35
72.14
64.19
57.30
51.98
48.52
46.99
47.24
48.92
51.47
54.11
56.06
56.59
55.23
51.87
46.78
40.43
33.33
25.76
17.76
9.14
-0.32
-10.67
-21.70
-32.89
-43.66
-53.57
-62.50
-70.71
-78.85
-87.83
-98.53
-111.48
-126.32
-141.44
-153.89
-160.01
-156.48
-141.47
-115.49
-81.39
-43.57
-6.61
25.81
51.69
70.58
83.13
90.44
93.61
93.65
91.41
87.74
83.37
78.97
75.02
71.81
69.48
68.05
67.44
67.50
68.01
68.64
68.96
68.53
66.94
63.93
59.43
53.52
46.36
38.06
28.69
18.32
7.16
-4.40
-15.81
-26.58
-36.42
-45.43
-54.05
-63.00
-73.08
-84.93
-98.71
-113.73
-128.20
-139.33
-143.89
-139.17
-123.92
-99.02
-67.30
-32.75
0.59
29.63
52.71
69.49
80.51
86.67
88.87
88.00
84.89
80.50
75.74
71.43
68.07
65.82
64.53
63.93
63.77
63.95
64.45
65.25
66.08
66.39
65.47
62.62
57.50
50.29
41.63
32.40
23.30
14.57
5.94
-3.16
-13.23
-24.32
-35.97
-47.34
-57.59
-66.22
-73.33
-79.61
-86.25
-94.55
-105.45
-118.93
-133.62
-146.70
-154.46
-153.38
-141.27
-118.20
-86.53
-50.30
-13.94
18.79
45.54
65.44
78.73
86.29
89.19
88.55
85.41
80.85
75.84
71.20
67.48
64.88
63.30
62.45
62.11
62.14
62.64
63.66
65.08
66.38
66.73
65.17
61.07
54.36
45.64
35.96
26.43
17.78
10.11
2.97
-4.42
-12.70
-22.06
-32.18
-42.29
-51.59
-59.55
-66.13
-71.82
-77.53
-84.31
-93.07
-104.24
-117.27
-130.50
-141.14
-145.84
-141.72
-127.30
-103.20
-72.07
-37.80
-4.42
24.93
48.46
65.68
76.90
82.75
83.94
81.26
75.67
68.35
60.63
53.73
48.52
45.39
44.21
44.47
45.53
46.83
48.02
49.01
49.75
50.06
49.46
47.26
42.73
35.53
25.90
14.66
2.98
-8.06
-17.83
-26.36
-34.23
-42.37
-51.81
-63.29
-76.95
-91.96
-106.40
-117.39
-121.82
-117.21
-102.67
-79.26
-49.77
-17.92
12.67
39.28
60.43
75.64
85.11
89.25
88.58
83.75
75.69
65.73
55.40
46.23
39.35
35.25
33.72
34.04
35.30
36.67
37.69
38.16
38.08
37.43
36.03
33.53
29.44
23.35
15.08
4.88
-6.67
-18.73
-30.44
-41.21
-50.80
-59.44
-67.67
-76.31
-86.23
-98.18
-112.26
-127.58
-141.89
-151.94
-154.12
-145.74
-126.04
-96.57
-60.87
-23.37
11.85
41.93
65.54
82.49
93.32
98.77
99.70
97.06
91.97
85.64
79.13
73.22
68.33
64.60
62.02
60.57
60.17
60.61
61.51
62.27
62.27
60.95
58.05
53.55
47.65
40.65
32.74
24.01
14.48
4.16
-6.80
-18.08
-29.22
-39.76
-49.38
-58.06
-66.07
-74.04
-82.75
-93.03
-105.35
-119.44
-133.89
-146.13
-152.81
-150.72
-137.92
-114.51
-82.79
-46.62
-10.31
22.48
49.42
69.63
83.31
91.31
94.69
94.58
92.04
88.02
83.33
78.61
74.29
70.60
67.68
65.61
64.40
64.00
64.23
64.76
65.10
64.69
62.94
59.48
54.21
47.38
39.45
30.92
22.09
12.99
3.43
-6.76
-17.58
-28.71
-39.58
-49.61
-58.48
-66.34
-73.84
-81.96
-91.75
-103.83
-117.88
-132.36
-144.51
-150.91
-148.52
-135.64
-112.67
-82.12
-47.81
-13.76
16.79
41.96
61.13
74.46
82.45
85.69
84.84
80.79
74.72
67.97
61.77
57.00
54.00
52.58
52.23
52.29
52.29
51.98
51.36
50.54
49.51
48.01
45.48
41.23
34.70
25.76
14.82
2.79
-9.26
-20.39
-30.13
-38.58
-46.31
-54.21
-63.23
-74.07
-86.89
-100.97
-114.48
-124.72
-128.63
-123.69
-108.88
-85.12
-55.17
-22.80
8.23
35.03
56.04
70.86
79.82
83.56
82.76
78.17
70.73
61.67
52.40
44.30
38.39
35.07
34.05
34.51
35.49
36.20
36.26
35.77
34.98
34.04
32.66
30.18
25.80
18.93
9.58
-1.59
-13.47
-24.88
-35.03
-43.69
-51.22
-58.35
-66.04
-75.22
-86.68
-100.63
-116.34
-131.85
-144.00
-149.17
-144.36
-128.29
-102.03
-68.73
-32.60
2.24
32.80
57.48
75.86
88.27
95.29
97.72
96.49
92.76
87.71
82.45
77.72
73.91
71.02
68.89
67.30
66.10
65.31
64.99
65.19
65.73
66.11
65.55
63.21
58.52
51.42
42.52
32.83
23.40
14.87
7.28
0.03
-7.68
-16.56
-26.80
-38.02
-49.47
-60.29
-69.92
-78.21
-85.58
-92.92
-101.35
-111.93
-125.11
-140.20
-155.08
-166.40
-170.36
-163.89
-145.77
-117.13
-81.21
-42.33
-4.71
28.46
55.35
75.39
88.83
96.40
99.08
98.08
94.72
90.25
85.62
81.43
77.87
74.92
72.51
70.62
69.31
68.62
68.45
68.50
68.25
67.14
64.66
60.62
55.09
48.35
40.65
32.12
22.74
12.43
1.28
-10.32
-21.76
-32.39
-41.82
-50.02
-57.40
-64.64
-72.53
-81.87
-93.09
-106.01
-119.50
-131.32
-138.48
-138.03
-127.99
-108.13
-80.21
-47.46
-13.67
17.71
44.23
64.62
78.59
86.57
89.42
88.30
84.49
79.27
73.68
68.50
64.15
60.76
58.30
56.64
55.71
55.50
56.00
57.09
58.47
59.54
59.52
57.73
53.77
47.73
40.16
31.85
23.51
15.52
7.80
-0.03
-8.46
-17.76
-27.84
-38.23
-48.27
-57.33
-65.03
-71.44
-77.11
-83.04
-90.41
-100.09
-112.09
-125.09
-136.46
-142.78
-140.86
-128.88
-107.10
-77.94
-45.17
-12.87
15.73
38.78
55.78
67.17
73.68
76.00
74.64
70.14
63.35
55.43
47.78
41.66
37.84
36.39
36.76
38.04
39.40
40.32
40.71
40.73
40.46
39.74
38.04
34.69
29.15
21.34
11.71
1.11
-9.46
-19.26
-27.97
-35.73
-43.05
-50.58
-58.97
-68.81
-80.37
-93.38
-106.76
-118.46
-125.73
-125.75
-116.58
-97.89
-71.34
-40.09
-7.97
21.59
46.23
64.94
77.75
85.19
88.00
86.88
82.58
76.00
68.23
60.41
53.60
48.52
45.46
44.33
44.73
46.17
48.09
49.97
51.25
51.41
49.95
46.61
41.48
34.95
27.60
19.90
12.03
3.81
-5.10
-14.92
-25.55
-36.49
-47.13
-56.96
-65.83
-73.99
-82.09
-91.02
-101.63
-114.41
-129.04
-144.00
-156.57
-163.33
-161.12
-148.10
-124.48
-92.66
-56.47
-20.11
12.85
40.18
60.97
75.39
84.22
88.45
89.14
87.28
83.81
79.59
75.31
71.49
68.43
66.22
64.83
64.21
64.32
65.10
66.36
67.69
68.44
67.84
65.29
60.56
53.90
45.91
37.24
28.30
19.14
9.52
-0.84
-12.02
-23.74
-35.46
-46.54
-56.52
-65.30
-73.19
-80.90
-89.44
-99.77
-112.39
-126.83
-141.27
-152.73
-157.66
-153.08
-137.58
-111.97
-79.06
-42.85
-7.35
24.30
50.27
69.92
83.45
91.50
94.89
94.60
91.71
87.29
82.34
77.58
73.44
70.10
67.55
65.76
64.71
64.40
64.78
65.63
66.51
66.83
65.89
63.18
58.46
51.91
43.98
35.29
26.34
17.42
8.45
-0.78
-10.53
-20.85
-31.46
-41.86
-51.49
-59.97
-67.32
-74.09
-81.23
-89.89
-100.93
-114.35
-128.89
-141.93
-150.02
-149.80
-139.18
-118.13
-88.80
-54.86
-20.42
11.03
37.31
57.50
71.65
80.28
84.07
83.76
80.23
74.50
67.67
60.85
54.97
50.65
48.15
47.34
47.84
49.12
50.66
52.07
53.06
53.40
52.86
51.18
48.11
43.47
37.21
29.40
20.28
10.20
-0.39
-10.96
-20.98
-30.06
-38.00
-44.93
-51.34
-57.94
-65.58
-74.94
-86.13
-98.34
-109.61
-117.17
-118.10
-110.30
-93.32
-68.68
-39.46
-9.39
18.18
41.01
58.15
69.60
75.80
77.32
74.66
68.53
59.97
50.44
41.52
34.55
30.20
28.32
28.20
28.88
29.69
30.40
31.14
32.06
33.03
33.41
32.26
28.64
22.09
12.85
1.79
-9.81
-20.76
-30.37
-38.58
-46.02
-53.72
-62.81
-74.10
-87.71
-102.72
-117.12
-128.03
-132.34
-127.52
-112.55
-88.30
-57.39
-23.53
9.52
38.79
62.53
80.17
91.96
98.52
100.59
98.92
94.36
87.87
80.47
73.18
66.78
61.76
58.30
56.35
55.73
56.16
57.32
58.75
59.81
59.78
58.01
54.12
48.16
40.52
31.82
22.58
13.09
3.33
-6.94
-17.89
-29.49
-41.34
-52.87
-63.51
-72.88
-81.07
-88.62
-96.43
-105.56
-116.78
-130.08
-144.29
-156.93
-164.67
-164.15
-153.08
-131.10
-100.03
-63.42
-25.54
9.73
39.66
62.99
79.65
90.37
96.25
98.46
98.11
96.14
93.29
90.07
86.81
83.71
80.90
78.52
76.71
75.55
75.03
74.98
75.02
74.55
72.90
69.48
64.01
56.62
47.82
38.29
28.62
19.07
9.56
-0.21
-10.42
-21.05
-31.70
-41.81
-50.89
-58.80
-65.89
-72.96
-81.11
-91.36
-104.16
-118.91
-133.69
-145.44
-150.63
-146.26
-130.99
-105.71
-73.34
-38.07
-4.09
25.44
48.84
65.85
77.09
83.50
86.03
85.51
82.81
78.82
74.47
70.51
67.40
65.19
63.67
62.56
61.71
61.23
61.32
62.08
63.25
64.15
63.82
61.41
56.56
49.54
41.18
32.44
24.05
16.15
8.38
0.15
-9.02
-19.14
-29.77
-40.15
-49.53
-57.48
-64.06
-69.83
-75.74
-82.85
-91.99
-103.34
-115.99
-127.90
-136.12
-137.51
-129.81
-112.41
-86.74
-55.89
-23.72
6.19
31.30
50.39
63.32
70.60
73.05
71.57
67.19
61.02
54.19
47.71
42.26
38.15
35.32
33.52
32.52
32.22
32.66
33.87
35.66
37.49
38.43
37.47
33.80
27.20
18.18
7.77
-2.78
-12.43
-20.75
-27.97
-34.88
-42.56
-51.97
-63.50
-76.66
-89.87
-100.65
-106.17
-104.02
-93.02
-73.68
-48.16
-19.70
8.27
32.94
52.60
66.73
75.59
79.80
80.08
77.03
71.32
63.76
55.37
47.30
40.62
36.02
33.72
33.41
34.38
35.79
36.90
37.19
36.55
35.05
32.89
30.05
26.25
20.98
13.75
4.40
-6.67
-18.59
-30.22
-40.63
-49.40
-56.72
-63.36
-70.33
-78.67
-89.16
-102.07
-116.79
-131.69
-144.06
-150.66
-148.49
-135.83
-112.93
-82.14
-47.24
-12.43
18.81
44.36
63.56
76.77
84.86
88.77
89.35
87.44
83.89
79.61
75.43
71.92
69.31
67.54
66.37
65.56
65.06
65.02
65.61
66.88
68.51
69.84
69.93
67.89
63.20
55.90
46.63
36.45
26.50
17.54
9.79
2.78
-4.33
-12.45
-22.02
-32.85
-44.10
-54.62
-63.44
-70.17
-75.18
-79.54
-84.61
-91.74
-101.80
-114.71
-129.17
-142.66
-151.78
-153.15
-144.40
-125.13
-97.07
-63.67
-29.04
3.16
30.43
51.72
67.01
76.87
82.11
83.61
82.31
79.26
75.53
72.02
69.28
67.45
66.28
65.42
64.59
63.80
63.26
63.28
63.99
65.19
66.31
66.52
65.02
61.28
55.31
47.60
39.00
30.43
22.52
15.41
8.73
1.79
-6.01
-14.93
-24.73
-34.74
-44.17
-52.43
-59.32
-65.13
-70.57
-76.61
-84.25
-94.19
-106.44
-119.94
-132.42
-140.71
-141.63
-132.98
-114.39
-87.62
-56.06
-23.68
6.02
30.74
49.59
62.69
70.67
74.28
74.28
71.48
66.86
61.54
56.58
52.78
50.47
49.53
49.56
50.12
50.94
52.02
53.51
55.49
57.72
59.59
60.22
58.77
54.81
48.50
40.59
32.11
24.03
16.83
10.41
4.17
-2.64
-10.54
-19.54
-29.11
-38.43
-46.70
-53.49
-58.97
-63.83
-69.09
-75.83
-84.80
-96.00
-108.50
-120.34
-128.75
-130.85
-124.49
-109.03
-85.66
-57.13
-26.97
1.49
25.83
44.80
58.16
66.24
69.63
69.02
65.26
59.38
52.58
46.07
40.75
37.06
34.94
33.94
33.59
33.55
33.82
34.57
35.91
37.69
39.29
39.86
38.51
34.74
28.54
20.47
11.40
2.26
-6.32
-14.02
-21.00
-27.79
-35.20
-44.00
-54.62
-66.69
-78.77
-88.52
-93.27
-90.84
-80.40
-62.82
-40.37
-16.03
7.42
27.97
44.58
56.90
64.90
68.61
68.19
64.08
57.15
48.67
40.09
32.69
27.23
23.87
22.22
21.62
21.45
21.39
21.44
21.74
22.31
22.82
22.57
20.70
16.60
10.15
1.83
-7.42
-16.65
-25.19
-32.87
-39.98
-47.17
-55.24
-64.96
-76.80
-90.62
-105.28
-118.54
-127.42
-128.95
-121.18
-103.89
-78.83
-49.15
-18.54
9.83
33.85
52.57
65.90
74.25
78.22
78.55
76.12
71.90
66.91
61.99
57.72
54.42
52.18
51.01
50.90
51.80
53.53
55.73
57.83
59.15
59.05
57.18
53.50
48.32
42.10
35.28
28.16
20.75
12.89
4.35
-4.99
-15.04
-25.47
-35.75
-45.40
-54.12
-62.02
-69.62
-77.80
-87.59
-99.66
-113.77
-128.41
-140.80
-147.51
-145.47
-133.03
-110.68
-80.98
-47.87
-15.43
13.06
35.78
52.34
63.32
69.76
72.73
73.12
71.69
69.07
65.86
62.65
59.95
58.17
57.47
57.76
58.73
59.93
60.88
61.17
60.55
58.86
56.07
52.26
47.55
42.11
36.05
29.45
22.26
14.44
5.97
-3.04
-12.36
-21.68
-30.75
-39.42
-47.74
-55.99
-64.69
-74.47
-85.77
-98.44
-111.27
-122.01
-127.67
-125.51
-113.99
-93.51
-66.45
-36.38
-7.08
18.53
38.85
53.54
63.11
68.35
70.12
69.17
66.29
62.29
57.99
54.06
50.95
48.86
47.76
47.55
48.09
49.23
50.76
52.34
53.50
53.75
52.66
50.05
45.99
40.81
34.87
28.44
21.62
14.30
6.35
-2.25
-11.29
-20.36
-28.98
-36.82
-43.87
-50.44
-57.19
-64.92
-74.34
-85.72
-98.47
-110.94
-120.57
-124.44
-120.21
-106.97
-85.66
-58.90
-30.16
-2.76
20.93
39.74
53.53
62.68
67.69
68.99
67.12
62.80
57.10
51.22
46.21
42.62
40.42
39.12
38.15
37.21
36.42
36.14
36.67
37.89
39.11
39.36
37.68
33.59
27.23
19.31
10.75
2.39
-5.31
-12.31
-18.98
-25.94
-33.93
-43.59
-55.20
-68.26
-81.29
-91.94
-97.50
-95.78
-85.82
-68.34
-45.49
-20.23
4.53
26.48
44.19
57.03
64.92
68.14
67.22
62.87
55.99
47.68
39.03
31.07
24.55
19.85
16.97
15.58
15.30
15.76
16.74
18.05
19.36
20.12
19.59
17.06
12.16
5.06
-3.56
-12.69
-21.42
-29.19
-36.10
-42.87
-50.60
-60.35
-72.63
-86.86
-101.21
-112.81
-118.44
-115.54
-103.03
-81.79
-54.40
-24.41
4.67
30.19
50.72
65.93
76.16
82.00
84.05
82.91
79.27
74.01
68.13
62.60
58.14
55.11
53.48
53.06
53.54
54.62
55.99
57.24
57.86
57.26
55.02
50.96
45.29
38.46
30.95
23.06
14.80
5.97
-3.68
-14.19
-25.31
-36.55
-47.37
-57.36
-66.38
-74.68
-82.80
-91.54
-101.72
-113.88
-127.74
-141.86
-153.56
-159.51
-156.68
-143.49
-120.49
-90.27
-56.74
-23.90
5.13
28.64
46.22
58.29
65.64
69.17
69.85
68.69
66.76
64.97
63.97
63.98
64.88
66.29
67.85
69.26
70.34
70.98
71.12
70.71
69.65
67.84
65.11
61.20
55.80
48.66
39.72
29.23
17.73
5.93
-5.46
-15.93
-25.29
-33.74
-41.83
-50.39
-60.37
-72.48
-86.74
-102.12
-116.37
-126.39
-129.10
-122.42
-106.09
-81.84
-52.90
-23.01
4.57
27.72
45.58
58.29
66.53
71.06
72.60
71.70
68.92
64.85
60.21
55.74
52.13
49.79
48.78
48.76
49.21
49.59
49.59
49.16
48.38
47.32
45.83
43.56
40.00
34.73
27.56
18.71
8.73
-1.58
-11.46
-20.36
-28.13
-35.00
-41.48
-48.34
-56.32
-66.02
-77.62
-90.55
-103.26
-113.33
-117.93
-114.64
-102.35
-81.76
-55.26
-26.30
1.60
25.79
44.79
58.30
66.69
70.59
70.67
67.61
62.19
55.35
48.10
41.30
35.53
31.00
27.63
25.26
23.79
23.23
23.59
24.61
25.70
25.94
24.34
20.27
13.70
5.27
-3.94
-12.91
-21.02
-28.33
-35.51
-43.55
-53.34
-65.17
-78.44
-91.44
-101.63
-106.15
-102.72
-90.39
-70.05
-44.24
-16.40
10.07
32.73
50.43
63.10
71.25
75.40
75.92
73.16
67.67
60.38
52.55
45.48
40.16
36.95
35.63
35.51
35.72
35.59
34.84
33.55
32.01
30.41
28.62
26.07
22.03
15.91
7.59
-2.43
-13.20
-23.72
-33.26
-41.65
-49.27
-56.91
-65.46
-75.78
-88.41
-103.30
-119.42
-134.65
-145.91
-149.88
-144.02
-127.52
-101.78
-70.06
-36.50
-4.92
22.10
43.45
59.21
70.09
76.91
80.34
80.99
79.51
76.67
73.25
69.96
67.27
65.33
63.97
62.88
61.75
60.43
58.93
57.45
56.15
55.03
53.77
51.75
48.24
42.57
34.47
24.20
12.51
0.42
-11.06
-21.32
-30.27
-38.31
-46.21
-54.89
-65.21
-77.71
-92.35
-108.13
-122.92
-133.74
-137.33
-131.30
-114.98
-89.83
-59.12
-26.87
3.26
28.81
48.77
63.27
73.00
78.77
81.31
81.29
79.41
76.36
72.75
69.08
65.61
62.51
59.86
57.78
56.35
55.62
55.48
55.62
55.56
54.76
52.78
49.43
44.77
39.05
32.55
25.42
17.63
9.11
-0.13
-9.91
-19.82
-29.37
-38.15
-45.98
-52.96
-59.55
-66.49
-74.70
-84.92
-97.22
-110.50
-122.41
-129.69
-129.17
-118.91
-99.01
-71.68
-40.60
-9.73
17.70
39.80
55.97
66.53
72.17
73.71
71.96
67.79
62.18
56.08
50.36
45.60
42.00
39.50
37.81
36.68
35.92
35.50
35.38
35.41
35.20
34.10
31.39
26.51
19.34
10.35
0.46
-9.29
-18.10
-25.70
-32.54
-39.58
-47.95
-58.52
-71.41
-85.63
-99.10
-108.92
-112.11
-106.53
-91.67
-68.93
-41.24
-12.21
14.87
37.81
55.69
68.50
76.66
80.59
80.68
77.38
71.43
63.91
56.09
49.14
43.89
40.67
39.33
39.41
40.33
41.55
42.60
43.14
42.93
41.79
39.60
36.30
31.82
26.16
19.28
11.17
1.92
-8.28
-19.07
-29.97
-40.47
-50.21
-59.08
-67.27
-75.33
-84.02
-94.24
-106.66
-121.22
-136.72
-150.56
-159.23
-159.21
-148.29
-126.49
-96.24
-61.64
-27.20
3.51
28.51
47.39
60.75
69.49
74.48
76.39
75.88
73.72
70.69
67.56
64.86
62.88
61.63
61.00
60.81
60.88
61.08
61.27
61.29
60.91
59.86
57.84
54.68
50.24
44.51
37.49
29.18
19.69
9.20
-1.90
-13.08
-23.82
-33.74
-42.79
-51.28
-59.89
-69.49
-80.89
-94.43
-109.55
-124.47
-136.28
-141.61
-137.61
-123.09
-99.03
-68.38
-35.16
-3.20
24.70
47.17
63.92
75.29
81.82
84.17
83.18
79.92
75.55
71.07
67.11
63.83
61.08
58.64
56.49
54.84
54.04
54.32
55.51
57.07
58.06
57.59
55.11
50.62
44.61
37.84
30.91
24.05
17.01
9.32
0.58
-9.23
-19.73
-30.25
-40.12
-48.95
-56.75
-63.92
-71.24
-79.62
-89.94
-102.58
-116.92
-131.04
-141.88
-145.90
-140.28
-123.97
-98.20
-66.19
-32.15
0.01
27.50
49.04
64.60
74.80
80.41
82.14
80.58
76.35
70.25
63.28
56.49
50.79
46.70
44.25
43.03
42.43
41.90
41.22
40.43
39.74
39.25
38.72
37.56
34.99
30.33
23.28
14.17
3.82
-6.63
-16.23
-24.55
-31.73
-38.49
-45.75
-54.37
-64.91
-77.42
-91.22
-104.79
-115.82
-121.56
-119.57
-108.49
-88.63
-62.06
-32.07
-2.19
24.60
46.46
62.67
73.28
78.72
79.57
76.50
70.39
62.41
53.92
46.14
39.94
35.59
32.84
31.13
29.95
29.07
28.55
28.55
29.02
29.54
29.30
27.36
22.97
15.95
6.79
-3.52
-13.79
-23.14
-31.20
-38.23
-45.03
-52.63
-62.02
-73.77
-87.66
-102.39
-115.52
-123.85
-124.33
-115.00
-95.87
-69.06
-38.17
-7.22
20.53
43.18
60.21
71.95
78.98
81.70
80.39
75.45
67.64
58.23
48.76
40.72
35.10
32.17
31.48
32.14
33.17
33.91
34.17
34.10
33.94
33.71
33.02
31.15
27.32
21.04
12.38
1.97
-9.15
-19.97
-29.85
-38.70
-46.92
-55.26
-64.52
-75.42
-88.47
-103.59
-119.88
-135.23
-146.49
-150.15
-143.45
-125.51
-97.86
-64.07
-28.65
4.30
32.05
53.51
68.81
78.67
83.93
85.42
83.99
80.57
76.14
71.50
67.23
63.61
60.78
58.84
57.88
57.91
58.78
60.12
61.38
61.96
61.37
59.30
55.62
50.42
43.89
36.27
27.83
18.69
8.95
-1.32
-12.02
-22.89
-33.56
-43.64
-52.91
-61.49
-69.89
-78.97
-89.74
-102.83
-118.06
-133.88
-147.43
-155.07
-153.44
-140.72
-117.38
-86.22
-51.46
-17.47
12.42
36.44
54.29
66.51
73.95
77.41
77.64
75.43
71.70
67.40
63.34
60.16
58.18
57.42
57.67
58.54
59.55
60.28
60.50
60.18
59.38
58.09
56.10
52.97
48.15
41.24
32.20
21.45
9.84
-1.71
-12.44
-22.01
-30.58
-38.68
-46.96
-56.11
-66.72
-79.19
-93.53
-108.95
-123.63
-134.72
-138.99
-133.81
-118.21
-93.44
-62.72
-30.25
0.07
25.56
45.19
59.18
68.38
73.66
75.61
74.63
71.20
65.99
59.97
54.21
49.65
46.82
45.77
46.17
47.44
48.98
50.32
51.18
51.36
50.69
49.00
46.10
41.90
36.44
29.88
22.44
14.32
5.65
-3.47
-12.91
-22.43
-31.68
-40.36
-48.39
-56.04
-63.99
-73.13
-84.22
-97.26
-111.20
-123.71
-131.70
-132.13
-123.06
-104.40
-78.05
-47.37
-16.18
12.24
35.78
53.57
65.65
72.47
74.67
72.94
68.13
61.34
53.80
46.63
40.61
36.04
32.84
30.71
29.43
28.97
29.40
30.67
32.38
33.70
33.63
31.28
26.34
19.09
10.41
1.34
-7.30
-15.18
-22.59
-30.29
-39.28
-50.36
-63.73
-78.53
-92.69
-103.25
-107.06
-101.80
-86.91
-63.83
-35.67
-6.22
21.15
44.19
61.95
74.42
82.00
85.14
84.22
79.70
72.36
63.28
53.81
45.29
38.80
34.89
33.54
34.12
35.70
37.29
38.16
38.00
36.90
35.07
32.63
29.34
24.75
18.39
10.04
-0.02
-11.07
-22.19
-32.64
-42.05
-50.58
-58.73
-67.21
-76.80
-88.25
-102.10
-118.19
-135.32
-150.89
-161.29
-162.77
-152.75
-130.86
-99.23
-61.93
-23.62
11.62
41.22
64.10
80.41
90.80
96.11
97.20
94.93
90.31
84.39
78.19
72.53
67.95
64.63
62.44
61.10
60.25
59.69
59.27
58.98
58.67
58.04
56.58
53.73
48.95
41.99
32.91
22.15
10.38
-1.62
-13.14
-23.71
-33.20
-41.83
-50.17
-59.06
-69.42
-82.02
-96.93
-113.15
-128.36
-139.26
-142.38
-135.16
-116.97
-89.43
-55.95
-20.73
12.35
40.56
62.58
78.29
88.26
93.39
94.63
92.90
89.09
84.02
78.39
72.76
67.61
63.31
60.11
58.21
57.65
58.26
59.64
61.17
62.11
61.77
59.65
55.67
50.08
43.33
35.83
27.74
18.94
9.19
-1.60
-13.18
-24.99
-36.31
-46.59
-55.69
-63.94
-72.08
-81.04
-91.74
-104.65
-119.42
-134.52
-147.21
-154.02
-151.70
-138.41
-114.43
-82.28
-46.01
-9.97
22.24
48.44
67.85
80.71
87.83
90.20
88.87
84.91
79.42
73.39
67.66
62.80
59.08
56.55
55.13
54.72
55.24
56.55
58.37
60.14
61.16
60.63
58.03
53.30
46.80
39.17
31.01
22.65
14.08
5.10
-4.45
-14.56
-24.93
-35.11
-44.68
-53.42
-61.38
-68.98
-76.91
-85.99
-96.83
-109.46
-122.86
-134.82
-142.26
-142.01
-131.92
-111.71
-83.23
-49.98
-16.09
14.86
40.55
60.02
73.29
80.88
83.38
81.50
76.12
68.46
59.95
51.93
45.35
40.56
37.40
35.45
34.30
33.81
34.03
34.97
36.41
37.69
37.86
35.98
31.48
24.45
15.60
6.00
-3.36
-11.92
-19.75
-27.50
-36.18
-46.80
-59.85
-74.92
-90.37
-103.47
-110.94
-109.91
-98.95
-78.59
-51.34
-20.86
9.10
35.59
56.94
72.65
82.89
88.12
88.87
85.78
79.72
71.82
63.33
55.37
48.73
43.80
40.58
38.88
38.46
39.04
40.34
41.91
43.19
43.51
42.27
39.14
34.17
27.74
20.40
12.67
4.83
-3.10
-11.38
-20.26
-29.92
-40.24
-50.83
-61.13
-70.61
-79.04
-86.62
-94.09
-102.55
-113.09
-126.20
-141.16
-155.73
-166.40
-169.31
-161.46
-141.86
-112.00
-75.49
-36.97
-0.81
29.90
53.75
70.73
81.68
87.72
89.91
89.23
86.56
82.83
78.83
75.21
72.32
70.20
68.73
67.80
67.40
67.61
68.48
69.81
71.08
71.52
70.32
66.94
61.32
53.90
45.42
36.64
28.05
19.67
11.16
2.05
-7.97
-18.81
-29.97
-40.72
-50.42
-58.84
-66.24
-73.37
-81.33
-91.16
-103.48
-117.93
-132.83
-145.23
-151.50
-148.44
-134.38
-109.93
-77.93
-42.55
-8.09
22.14
46.34
64.08
75.80
82.32
84.55
83.45
80.10
75.72
71.43
68.03
65.86
64.76
64.30
63.99
63.56
63.08
62.79
62.89
63.27
63.45
62.57
59.85
54.81
47.61
38.94
29.79
20.95
12.76
4.97
-3.02
-11.77
-21.48
-31.85
-42.23
-51.91
-60.48
-68.01
-75.00
-82.25
-90.68
-101.07
-113.74
-128.18
-142.66
-154.28
-159.51
-155.18
-139.67
-113.62
-79.98
-43.11
-7.50
23.39
47.78
65.45
77.12
83.81
86.44
85.77
82.53
77.55
71.74
65.98
60.88
56.74
53.55
51.26
49.78
49.15
49.39
50.35
51.66
52.74
52.96
51.82
49.09
44.79
39.15
32.45
24.89
16.60
7.62
-1.97
-11.94
-21.89
-31.37
-39.91
-47.26
-53.57
-59.38
-65.60
-73.25
-83.09
-95.11
-108.15
-119.82
-126.93
-126.31
-115.91
-95.66
-67.65
-35.59
-3.77
24.10
45.65
60.01
67.54
69.27
66.53
60.70
53.20
45.36
38.39
33.16
29.98
28.66
28.62
29.19
29.88
30.51
31.16
31.96
32.83
33.40
33.09
31.31
27.76
22.54
16.10
9.02
1.78
-5.47
-12.97
-21.31
-31.22
-43.25
-57.34
-72.40
-86.25
-95.97
-98.68
-92.61
-77.67
-55.68
-29.73
-3.22
20.99
41.10
56.35
66.58
71.95
72.77
69.60
63.34
55.25
46.73
38.94
32.56
27.71
24.12
21.44
19.45
18.21
17.81
18.19
18.91
19.09
17.68
13.82
7.21
-1.79
-12.24
-22.99
-33.10
-42.20
-50.55
-59.05
-68.92
-81.38
-97.10
-115.63
-134.99
-151.81
-161.96
-161.79
-149.43
-125.54
-93.20
-56.98
-21.51
9.69
34.80
53.45
66.14
73.63
76.61
75.75
71.95
66.36
60.31
54.92
50.90
48.29
46.65
45.33
43.90
42.32
40.92
40.19
40.31
40.94
41.09
39.50
35.04
27.27
16.59
4.18
-8.45
-20.09
-30.17
-38.97
-47.41
-56.77
-68.31
-82.80
-100.05
-118.59
-135.57
-147.24
-149.89
-141.12
-120.74
-91.01
-55.95
-20.05
12.96
40.83
62.81
79.02
89.92
95.91
97.43
95.11
90.03
83.56
77.12
71.74
67.90
65.39
63.64
62.00
60.12
58.06
56.19
54.83
53.94
52.93
50.78
46.46
39.37
29.60
17.99
5.71
-6.19
-17.24
-27.66
-38.33
-50.35
-64.70
-81.72
-100.70
-119.70
-135.69
-145.16
-145.06
-133.77
-111.72
-81.42
-46.70
-11.67
20.23
46.86
67.34
81.70
90.39
94.07
93.48
89.62
83.68
76.97
70.64
65.40
61.39
58.28
55.60
53.04
50.62
48.69
47.57
47.33
47.54
47.28
45.45
41.13
33.93
24.14
12.68
0.78
-10.44
-20.38
-29.16
-37.63
-47.08
-58.81
-73.61
-91.11
-109.56
-125.82
-136.06
-136.79
-125.99
-103.94
-73.20
-37.97
-2.77
28.61
53.94
72.42
84.34
90.46
91.59
88.63
82.51
74.38
65.47
56.91
49.48
43.58
39.26
36.42
34.97
34.82
35.79
37.40
38.86
39.18
37.41
32.97
25.85
16.60
6.15
-4.57
-14.91
-24.73
-34.46
-44.97
-57.30
-72.07
-88.97
-106.32
-121.08
-129.57
-128.52
-116.22
-93.31
-62.59
-28.20
5.63
35.64
59.91
77.79
89.29
94.77
94.77
90.08
81.96
72.02
61.91
52.95
45.89
40.74
37.09
34.42
32.29
30.64
29.52
29.01
28.82
28.29
26.40
22.14
14.92
4.88
-7.14
-19.81
-31.82
-42.41
-51.60
-60.22
-69.64
-81.30
-96.19
-114.18
-133.66
-151.49
-163.50
-165.63
-155.21
-131.94
-98.17
-58.28
-17.38
20.04
51.11
74.73
91.21
101.59
106.95
108.27
106.33
101.93
95.99
89.50
83.42
78.47
74.97
72.79
71.49
70.48
69.24
67.49
65.15
62.27
58.89
54.96
50.26
44.46
37.18
28.17
17.41
5.27
-7.59
-20.35
-32.25
-42.91
-52.40
-61.22
-70.24
-80.45
-92.74
-107.58
-124.56
-141.99
-156.84
-165.19
-163.33
-149.01
-122.45
-86.46
-45.69
-5.15
31.04
60.44
82.30
97.04
105.66
109.35
109.34
106.87
103.08
98.87
94.75
90.89
87.20
83.63
80.26
77.39
75.33
74.30
74.19
74.58
74.71
73.73
70.84
65.55
57.89
48.40
37.95
27.47
17.55
8.29
-0.68
-9.98
-20.04
-30.89
-42.06
-52.79
-62.39
-70.57
-77.67
-84.60
-92.60
-102.86
-116.00
-131.51
-147.46
-160.54
-166.72
-162.41
-145.67
-117.08
-79.74
-38.39
1.83
36.83
64.31
83.76
95.98
102.26
103.93
102.10
97.82
92.17
86.27
81.07
77.11
74.38
72.49
70.95
69.54
68.40
67.90
68.28
69.35
70.38
70.32
68.20
63.53
56.46
47.71
38.24
28.91
20.13
11.81
3.43
-5.62
-15.74
-26.85
-38.36
-49.40
-59.16
-67.24
-73.85
-79.81
-86.30
-94.58
-105.51
-119.01
-133.75
-147.02
-155.24
-154.88
-143.61
-121.23
-89.89
-53.54
-16.74
16.53
43.67
63.63
76.56
83.25
84.66
81.83
75.91
68.21
60.11
52.77
46.91
42.62
39.53
37.11
35.00
33.21
32.03
31.77
32.41
33.44
33.87
32.60
28.77
22.10
13.03
2.60
-7.93
-17.56
-25.83
-33.07
-40.20
-48.46
-58.94
-72.01
-86.96
-101.85
-113.75
-119.43
-116.30
-103.27
-81.28
-53.10
-22.53
6.68
31.74
51.19
64.73
72.70
75.61
73.95
68.33
59.70
49.43
39.12
30.22
23.61
19.42
17.15
16.00
15.34
14.89
14.72
15.02
15.76
16.45
16.19
13.91
8.87
0.96
-9.17
-20.29
-31.10
-40.63
-48.61
-55.45
-62.11
-69.80
-79.62
-92.20
-107.24
-123.15
-137.03
-145.15
-143.95
-131.30
-107.35
-74.72
-37.78
-1.32
30.72
56.04
74.01
85.20
90.67
91.58
88.94
83.73
76.94
69.58
62.55
56.52
51.85
48.62
46.68
45.81
45.74
46.21
46.91
47.49
47.49
46.50
44.09
40.11
34.65
28.04
20.66
12.82
4.55
-4.30
-13.98
-24.52
-35.62
-46.65
-56.92
-65.92
-73.66
-80.79
-88.44
-97.96
-110.27
-125.30
-141.46
-155.64
-163.83
-162.23
-148.63
-123.25
-88.91
-50.14
-11.87
21.94
49.00
68.71
81.62
88.80
91.37
90.37
86.76
81.50
75.48
69.41
63.84
59.13
55.47
52.99
51.66
51.28
51.49
51.85
51.92
51.38
50.01
47.70
44.31
39.71
33.76
26.42
17.75
7.96
-2.55
-13.36
-23.99
-34.10
-43.49
-52.29
-60.92
-70.13
-80.80
-93.62
-108.57
-124.49
-138.90
-148.41
-149.58
-140.11
-119.67
-90.19
-55.31
-19.36
13.80
41.54
62.68
77.26
85.97
89.75
89.57
86.29
80.77
73.89
66.55
59.62
53.83
49.67
47.28
46.46
46.73
47.56
48.44
49.02
49.06
48.37
46.76
44.00
39.82
33.99
26.42
17.17
6.56
-4.87
-16.50
-27.71
-38.10
-47.56
-56.36
-65.03
-74.31
-84.98
-97.57
-111.99
-127.13
-140.76
-149.76
-150.83
-141.61
-121.55
-92.27
-57.24
-20.79
13.05
41.40
62.87
77.35
85.53
88.38
86.97
82.36
75.68
68.08
60.62
54.13
48.96
45.06
42.08
39.68
37.74
36.41
35.98
36.49
37.57
38.26
37.37
33.88
27.37
18.26
7.62
-3.22
-13.24
-22.03
-29.92
-37.79
-46.77
-57.87
-71.54
-87.28
-103.37
-116.96
-124.59
-123.23
-111.26
-89.21
-59.79
-27.07
4.67
32.09
53.35
68.06
76.74
80.22
79.33
74.79
67.43
58.25
48.37
38.83
30.38
23.37
17.85
13.86
11.56
11.24
13.11
16.96
21.93
26.67
29.65
29.71
26.47
20.39
12.48
3.84
-4.83
-13.47
-22.59
-33.07
-45.73
-60.91
-78.10
-95.61
-110.68
-119.90
-120.17
-109.64
-88.58
-59.43
-26.11
7.04
36.45
60.02
77.09
88.00
93.45
94.10
90.58
83.73
74.72
65.05
56.20
49.24
44.52
41.64
39.79
38.17
36.38
34.51
32.96
32.04
31.55
30.69
28.28
23.23
15.08
4.28
-7.94
-20.05
-30.84
-39.92
-47.80
-55.74
-65.28
-77.66
-93.39
-111.77
-130.72
-146.95
-156.60
-156.27
-144.09
-120.52
-88.26
-51.52
-14.80
18.25
45.51
66.34
81.08
90.46
95.19
95.92
93.43
88.71
83.01
77.49
72.98
69.71
67.31
65.16
62.74
59.99
57.32
55.33
54.36
54.15
53.76
51.88
47.32
39.52
28.78
16.15
3.05
-9.29
-20.17
-29.66
-38.49
-47.88
-59.16
-73.35
-90.59
-109.71
-128.04
-141.76
-146.87
-140.43
-121.65
-92.36
-56.57
-19.23
15.21
43.79
65.46
80.59
90.29
95.70
97.63
96.65
93.26
88.14
82.13
76.15
71.01
67.19
64.80
63.58
63.06
62.74
62.19
61.21
59.70
57.66
54.96
51.35
46.43
39.79
31.25
20.94
9.32
-2.91
-15.01
-26.42
-36.84
-46.32
-55.19
-63.97
-73.37
-84.13
-96.83
-111.51
-127.16
-141.49
-151.11
-152.42
-142.75
-121.53
-90.64
-54.05
-16.56
17.58
45.61
66.56
80.81
89.42
93.51
94.01
91.72
87.47
82.14
76.63
71.67
67.68
64.74
62.71
61.40
60.68
60.51
60.77
61.22
61.35
60.59
58.42
54.67
49.52
43.36
36.63
29.54
21.99
13.70
4.42
-5.86
-16.77
-27.62
-37.76
-46.78
-54.78
-62.34
-70.44
-80.13
-92.14
-106.37
-121.52
-135.09
-143.72
-144.09
-134.10
-113.56
-84.52
-50.66
-16.21
15.17
41.16
60.81
74.22
82.00
84.88
83.67
79.28
72.86
65.69
58.92
53.37
49.34
46.63
44.76
43.28
41.96
40.93
40.44
40.63
41.22
41.45
40.29
36.82
30.62
21.99
11.84
1.37
-8.37
-16.89
-24.31
-31.30
-38.84
-47.93
-59.25
-72.73
-87.37
-101.03
-110.79
-113.65
-107.47
-91.82
-68.20
-39.73
-10.16
17.14
39.90
57.14
68.79
75.19
76.71
73.74
66.91
57.38
46.72
36.67
28.59
23.04
19.77
17.95
16.73
15.67
14.90
14.86
15.84
17.53
18.96
18.79
15.88
9.85
1.24
-8.66
-18.39
-26.92
-34.01
-40.25
-46.80
-54.96
-65.73
-79.43
-95.26
-111.20
-124.01
-129.99
-125.99
-110.63
-85.06
-52.76
-18.65
12.39
36.83
53.09
61.46
63.43
60.92
55.71
49.15
42.22
35.62
29.82
25.19
21.98
20.36
20.38
21.92
24.72
28.35
32.29
35.95
38.80
40.41
40.51
39.03
36.13
32.07
27.21
21.74
15.73
9.05
1.54
-6.92
-16.26
-26.19
-36.27
-46.08
-55.35
-64.13
-72.85
-82.33
-93.48
-106.82
-121.98
-137.19
-149.30
-154.58
-149.77
-133.35
-106.27
-71.79
-34.48
1.08
31.50
55.10
71.79
82.46
88.34
90.56
90.05
87.56
83.78
79.41
75.10
71.38
68.56
66.75
65.88
65.74
66.15
66.88
67.64
68.05
67.64
65.91
62.57
57.56
51.09
43.52
35.15
26.17
16.63
6.61
-3.75
-14.13
-24.20
-33.73
-42.72
-51.42
-60.34
-70.15
-81.54
-94.85
-109.68
-124.51
-136.69
-142.94
-140.28
-127.08
-103.82
-73.07
-38.78
-5.18
24.35
47.83
64.77
75.70
81.67
83.74
82.82
79.69
75.08
69.76
64.52
60.03
56.71
54.72
53.93
54.11
54.99
56.35
57.93
59.35
60.10
59.65
57.63
53.94
48.79
42.51
35.42
27.63
19.10
9.71
-0.59
-11.66
-23.09
-34.35
-44.90
-54.40
-62.90
-70.90
-79.35
-89.32
-101.44
-115.33
-129.20
-140.02
-144.22
-138.95
-123.06
-97.68
-65.88
-31.74
0.89
29.24
51.90
68.63
79.74
85.73
87.14
84.70
79.43
72.73
66.08
60.73
57.40
56.05
55.96
56.13
55.61
53.88
51.00
47.36
43.29
38.77
33.27
25.94
16.14
3.79
-10.39
-25.16
-39.10
-51.15
-60.85
-68.43
-74.59
-80.33
-86.73
-94.68
-104.54
-115.73
-126.49
-134.07
-135.39
-128.07
-111.33
-86.37
-56.08
-24.13
6.02
31.86
52.08
66.27
74.64
77.66
76.08
70.88
63.36
54.93
46.83
39.93
34.57
30.64
27.79
25.74
24.42
23.92
24.35
25.53
26.92
27.63
26.65
23.31
17.44
9.49
0.32
-9.09
-18.03
-26.22
-33.97
-42.09
-51.64
-63.60
-78.27
-94.72
-110.68
-122.75
-127.34
-121.78
-105.37
-79.67
-48.06
-14.74
16.51
43.05
63.65
78.20
87.20
91.29
91.13
87.37
80.82
72.48
63.50
55.06
48.15
43.36
40.84
40.25
40.98
42.28
43.42
43.85
43.22
41.37
38.32
34.17
29.01
22.90
15.80
7.67
-1.49
-11.52
-22.17
-33.07
-43.88
-54.30
-64.22
-73.72
-83.16
-93.24
-104.86
-118.76
-134.85
-151.68
-166.29
-174.70
-173.18
-159.52
-133.98
-99.36
-60.08
-20.84
14.55
43.88
66.37
82.27
92.30
97.27
98.06
95.58
90.88
85.03
79.06
73.79
69.80
67.31
66.20
66.05
66.35
66.58
66.49
66.02
65.19
63.96
62.01
58.78
53.65
46.22
36.52
25.05
12.70
0.33
-11.38
-22.20
-32.33
-42.28
-52.76
-64.55
-78.28
-94.18
-111.66
-128.90
-142.91
-150.08
-147.24
-132.79
-107.45
-74.20
-37.43
-1.65
29.65
54.60
72.83
84.96
91.93
94.63
93.85
90.37
85.09
79.02
73.10
68.06
64.33
61.93
60.64
60.12
60.01
60.02
59.95
59.62
58.87
57.45
55.00
51.09
45.28
37.35
27.41
15.99
3.93
-7.88
-18.79
-28.59
-37.53
-46.24
-55.57
-66.33
-79.18
-94.20
-110.58
-126.39
-138.62
-143.84
-139.23
-123.55
-97.75
-64.82
-28.89
5.87
36.26
60.45
77.86
88.77
93.87
94.05
90.34
83.91
76.07
68.05
60.87
55.12
50.84
47.72
45.28
43.17
41.37
40.15
39.79
40.24
40.84
40.49
37.97
32.50
24.11
13.67
2.51
-8.13
-17.59
-25.97
-34.04
-42.89
-53.50
-66.44
-81.46
-97.34
-111.77
-121.71
-124.07
-116.65
-99.03
-72.84
-41.46
-9.02
20.66
45.00
62.87
74.31
79.99
80.72
77.32
70.66
61.80
52.00
42.51
34.29
27.84
23.25
20.36
19.01
19.04
20.32
22.50
24.89
26.49
26.27
23.46
17.80
9.68
-0.12
-10.58
-20.84
-30.44
-39.44
-48.46
-58.52
-70.65
-85.33
-101.87
-118.08
-130.46
-135.08
-128.87
-110.85
-82.66
-48.18
-12.26
20.67
47.74
67.94
81.66
89.93
93.73
93.74
90.43
84.44
76.70
68.49
61.15
55.74
52.79
52.10
52.97
54.41
55.54
55.77
54.94
53.17
50.63
47.35
43.11
37.52
30.23
21.09
10.25
-1.82
-14.50
-27.09
-39.03
-49.98
-59.92
-69.17
-78.32
-88.20
-99.72
-113.53
-129.60
-146.72
-162.32
-172.75
-174.21
-164.01
-141.62
-109.11
-70.60
-31.03
5.23
35.46
58.73
75.57
87.08
94.40
98.35
99.50
98.39
95.64
92.01
88.23
84.88
82.28
80.44
79.16
78.17
77.21
76.09
74.67
72.82
70.32
66.89
62.18
55.85
47.69
37.70
26.13
13.48
0.46
-12.23
-24.06
-34.79
-44.54
-53.75
-63.08
-73.31
-85.20
-99.19
-115.01
-131.32
-145.52
-154.23
-154.11
-142.99
-120.77
-89.60
-53.36
-16.47
17.24
45.29
66.71
81.65
90.86
95.30
95.95
93.84
90.09
85.76
81.73
78.52
76.19
74.48
73.11
71.98
71.20
71.00
71.44
72.21
72.57
71.60
68.50
62.99
55.36
46.40
37.01
27.85
19.04
10.20
0.76
-9.75
-21.34
-33.51
-45.41
-56.23
-65.52
-73.44
-80.67
-88.29
-97.43
-108.93
-122.85
-138.12
-152.32
-162.02
-163.55
-154.20
-133.29
-102.60
-65.96
-28.15
6.48
35.05
56.43
70.88
79.38
83.05
82.85
79.70
74.56
68.55
62.75
57.96
54.55
52.37
50.95
49.80
48.65
47.56
46.83
46.71
47.11
47.45
46.76
43.98
38.34
29.78
18.94
7.05
-4.57
-14.91
-23.63
-31.20
-38.68
-47.39
-58.41
-72.15
-87.89
-103.66
-116.44
-122.84
-120.06
-106.81
-83.93
-54.21
-21.65
9.65
36.50
57.16
71.28
79.41
82.46
81.37
76.96
70.11
61.83
53.24
45.44
39.28
35.20
33.22
33.01
34.08
35.89
37.90
39.62
40.53
40.18
38.33
34.93
30.17
24.34
17.66
10.12
1.64
-7.87
-18.33
-29.35
-40.38
-50.85
-60.42
-69.10
-77.28
-85.67
-95.20
-106.68
-120.48
-135.98
-151.26
-163.11
-167.78
-162.01
-144.27
-115.44
-78.76
-38.89
-0.58
32.50
58.39
76.81
88.57
94.91
97.04
95.93
92.37
87.08
80.81
74.32
68.38
63.60
60.38
58.82
58.78
59.86
61.52
63.07
63.81
63.14
60.67
56.31
50.30
43.06
35.05
26.53
17.49
7.75
-2.85
-14.24
-26.05
-37.66
-48.46
-58.11
-66.67
-74.72
-83.17
-93.12
-105.42
-120.21
-136.41
-151.51
-161.90
-163.72
-154.20
-132.69
-101.10
-63.43
-24.59
11.01
40.45
62.60
77.77
87.03
91.67
92.76
91.18
87.67
82.94
77.65
72.44
67.82
64.11
61.49
59.96
59.47
59.83
60.81
61.99
62.81
62.58
60.66
56.68
50.66
42.99
34.28
25.10
15.77
6.29
-3.52
-13.82
-24.53
-35.31
-45.60
-54.97
-63.29
-70.94
-78.81
-88.08
-99.74
-114.04
-129.98
-145.09
-155.81
-158.38
-150.06
-130.18
-100.49
-64.74
-27.55
6.90
35.79
57.90
73.31
82.77
87.15
87.23
83.76
77.63
69.97
62.07
55.10
49.81
46.37
44.44
43.38
42.61
41.90
41.39
41.33
41.84
42.57
42.68
41.07
36.80
29.52
19.68
8.34
-3.15
-13.64
-22.60
-30.22
-37.31
-44.94
-54.17
-65.65
-79.38
-94.49
-109.10
-120.53
-125.73
-122.16
-108.59
-85.74
-56.15
-23.59
8.01
35.51
57.10
72.21
81.11
84.48
83.01
77.54
69.08
58.94
48.54
39.17
31.67
26.29
22.72
20.46
19.06
18.34
18.35
19.17
20.67
22.20
22.73
21.16
16.67
9.20
-0.53
-11.25
-21.58
-30.60
-38.16
-44.85
-51.84
-60.44
-71.68
-85.76
-101.70
-117.18
-128.79
-132.95
-126.85
-109.60
-82.66
-49.44
-14.35
18.51
46.25
67.54
82.29
91.10
94.72
93.91
89.43
82.23
73.46
64.34
55.96
49.13
44.25
41.37
40.26
40.53
41.64
43.01
44.05
44.26
43.27
40.93
37.34
32.73
27.40
21.49
14.96
7.53
-1.08
-10.99
-22.00
-33.51
-44.79
-55.21
-64.52
-72.92
-81.11
-90.08
-100.78
-113.78
-128.70
-143.86
-156.28
-162.20
-158.17
-142.25
-114.87
-78.90
-38.85
0.42
34.94
62.38
82.13
94.78
101.56
103.80
102.64
99.02
93.73
87.46
80.88
74.68
69.47
65.66
63.33
62.27
61.99
61.96
61.77
61.26
60.42
59.26
57.60
55.09
51.23
45.66
38.36
29.71
20.44
11.36
3.04
-4.26
-10.78
-17.01
-23.59
-31.16
-40.35
-51.74
-65.50
-81.12
-96.98
-110.44
-118.42
-118.36
-109.17
-91.68
-68.47
-42.92
-18.32
2.97
19.72
31.60
38.83
41.92
41.52
38.45
33.77
28.65
24.22
21.34
20.46
21.58
24.33
28.13
32.41
36.76
40.91
44.65
47.74
49.80
50.42
49.24
46.20
41.54
35.69
29.08
21.91
14.20
5.79
-3.36
-13.12
-23.09
-32.78
-41.77
-49.97
-57.68
-65.60
-74.69
-85.78
-99.12
-113.88
-127.90
-137.98
-140.67
-133.37
-115.34
-88.11
-55.03
-20.39
11.90
39.11
60.07
74.87
84.31
89.33
90.76
89.29
85.61
80.48
74.85
69.57
65.28
62.27
60.49
59.71
59.64
60.15
61.11
62.29
63.25
63.28
61.71
58.09
52.48
45.38
37.54
29.60
21.80
13.99
5.76
-3.20
-12.92
-23.07
-33.11
-42.53
-51.04
-58.66
-65.81
-73.16
-81.58
-91.78
-103.86
-116.87
-128.63
-136.08
-136.13
-126.73
-107.70
-80.86
-49.53
-17.51
11.90
36.50
55.32
68.22
75.59
77.99
76.18
71.12
64.05
56.36
49.30
43.73
39.93
37.68
36.47
35.86
35.65
35.87
36.61
37.71
38.66
38.65
36.83
32.66
26.11
17.67
8.20
-1.31
-10.10
-17.82
-24.61
-31.13
-38.36
-47.31
-58.59
-71.89
-85.73
-97.53
-104.18
-102.95
-92.50
-73.40
-48.05
-19.94
7.39
31.26
50.23
63.95
72.73
76.97
77.03
73.30
66.49
57.73
48.51
40.29
34.08
30.18
28.14
27.15
26.45
25.70
25.00
24.72
25.02
25.58
25.53
23.74
19.35
12.11
2.61
-8.06
-18.64
-28.24
-36.64
-44.28
-52.06
-61.05
-72.14
-85.65
-101.09
-116.81
-130.15
-137.83
-136.87
-125.51
-104.01
-74.64
-41.16
-7.71
22.27
46.66
64.80
77.07
84.29
87.29
86.80
83.49
78.19
71.91
65.77
60.69
57.19
55.25
54.47
54.37
54.62
55.16
56.07
57.27
58.33
58.47
56.78
52.70
46.22
38.02
29.16
20.67
13.11
6.37
-0.25
-7.69
-16.67
-27.29
-38.98
-50.64
-61.14
-69.77
-76.62
-82.56
-89.05
-97.62
-109.39
-124.36
-141.18
-157.08
-168.34
-171.27
-163.23
-143.63
-114.17
-78.47
-40.96
-5.73
24.37
48.03
65.26
76.82
83.72
86.98
87.51
86.21
83.95
81.52
79.50
78.17
77.50
77.25
77.14
77.02
76.95
77.09
77.59
78.36
78.97
78.66
76.60
72.17
65.25
56.33
46.35
36.37
27.20
19.06
11.57
3.94
-4.61
-14.47
-25.47
-36.89
-47.78
-57.30
-65.08
-71.36
-76.95
-83.10
-91.14
-102.06
-115.99
-131.74
-146.67
-157.13
-159.37
-150.73
-130.65
-100.89
-65.10
-27.71
7.33
37.34
61.19
78.95
91.36
99.31
103.56
104.80
103.68
100.94
97.45
94.06
91.46
90.06
89.89
90.76
92.35
94.32
96.32
97.92
98.50
97.31
93.60
86.90
77.18
64.94
51.04
36.53
22.30
8.98
-3.24
-14.54
-25.33
-36.06
-47.02
-58.26
-69.52
-80.29
-89.98
-98.01
-104.07
-108.29
-111.29
-114.25
-118.70
-126.00
-136.75
-150.10
-163.56
-173.39
-175.57
-167.10
-146.97
-116.63
-79.50
-39.98
-2.26
30.59
56.94
76.49
89.72
97.52
100.82
100.58
97.77
93.42
88.56
84.14
80.81
78.85
78.17
78.43
79.18
80.09
80.99
81.84
82.60
83.08
82.84
81.33
78.00
72.54
65.05
56.00
46.15
36.29
27.05
18.64
10.94
3.56
-4.02
-12.19
-21.07
-30.47
-39.95
-48.97
-57.05
-63.94
-69.76
-75.04
-80.66
-87.69
-97.09
-109.17
-123.13
-136.81
-146.96
-150.03
-143.31
-125.90
-99.12
-66.19
-31.21
1.94
30.49
52.99
69.15
79.35
84.24
84.61
81.36
75.58
68.44
61.17
54.79
49.99
47.06
45.87
46.00
46.84
47.86
48.70
49.19
49.37
49.24
48.63
47.12
44.09
39.00
31.60
22.16
11.48
0.62
-9.44
-18.13
-25.50
-32.14
-38.99
-47.05
-57.09
-69.30
-83.10
-96.89
-108.21
-114.13
-112.04
-100.51
-79.94
-52.59
-22.02
7.95
34.24
55.06
69.91
79.13
83.37
83.19
79.15
71.95
62.71
52.91
44.06
37.38
33.45
32.11
32.65
34.17
35.88
37.28
38.19
38.65
38.73
38.37
37.27
34.86
30.49
23.61
14.13
2.50
-10.25
-22.92
-34.45
-44.38
-52.99
-61.20
-70.19
-81.05
-94.18
-109.03
-123.80
-135.67
-141.30
-137.74
-123.37
-98.66
-66.26
-30.39
4.20
33.46
54.85
67.62
72.49
71.08
65.33
56.95
47.34
37.48
28.06
19.67
12.82
8.01
5.59
5.66
8.01
12.13
17.27
22.63
27.50
31.25
33.42
33.73
32.12
28.78
24.12
18.60
12.59
6.10
-1.08
-9.26
-18.56
-28.73
-39.19
-49.23
-58.37
-66.51
-74.11
-82.08
-91.48
-103.20
-117.39
-133.01
-147.63
-157.74
-159.61
-150.55
-129.92
-99.48
-62.97
-24.94
10.50
40.59
64.07
80.90
91.73
97.46
99.14
97.86
94.74
90.80
86.76
83.00
79.60
76.54
73.86
71.73
70.41
70.04
70.54
71.46
72.09
71.60
69.33
65.00
58.77
51.18
42.84
34.21
25.45
16.41
6.79
-3.58
-14.66
-26.09
-37.33
-47.79
-57.13
-65.43
-73.17
-81.30
-90.90
-102.86
-117.29
-133.04
-147.61
-157.50
-159.14
-149.97
-129.48
-99.43
-63.47
-26.03
8.79
38.20
60.90
76.89
86.91
91.99
93.18
91.51
87.99
83.59
79.13
75.19
72.01
69.59
67.77
66.48
65.77
65.76
66.53
67.91
69.36
70.03
69.02
65.66
59.82
51.95
42.88
33.55
24.56
16.02
7.54
-1.45
-11.39
-22.28
-33.63
-44.66
-54.62
-63.16
-70.46
-77.31
-84.86
-94.25
-106.06
-119.80
-133.62
-144.46
-148.81
-143.77
-128.10
-102.81
-70.91
-36.47
-3.43
25.25
48.11
64.82
75.79
81.64
83.05
80.79
75.80
69.24
62.32
56.14
51.42
48.44
47.09
46.96
47.51
48.24
48.82
49.12
49.13
48.82
48.00
46.26
42.97
37.57
29.75
19.78
8.41
-3.24
-14.12
-23.59
-31.62
-38.81
-46.10
-54.60
-65.16
-78.08
-92.79
-107.62
-119.86
-126.31
-124.17
-112.03
-90.43
-61.93
-30.32
0.49
27.50
49.08
64.92
75.40
81.09
82.44
79.82
73.87
65.61
56.50
48.05
41.44
37.17
35.02
34.28
34.14
34.05
33.86
33.71
33.76
33.87
33.53
31.88
28.11
21.68
12.70
1.86
-9.74
-21.01
-31.19
-40.09
-48.13
-56.11
-65.07
-75.95
-89.40
-105.27
-122.37
-138.22
-149.42
-152.47
-144.83
-125.98
-97.71
-63.66
-28.23
4.66
32.43
54.06
69.67
80.01
85.86
87.92
86.80
83.17
77.88
71.84
65.96
60.92
57.08
54.44
52.76
51.69
50.99
50.50
50.20
49.89
49.09
47.09
43.25
37.38
29.98
22.23
15.56
11.00
8.69
7.76
6.69
3.97
-1.32
-9.23
-19.06
-29.77
-40.43
-50.44
-59.65
-68.25
-76.67
-85.61
-95.92
-108.43
-123.59
-140.74
-157.79
-171.20
-176.88
-171.48
-153.66
-124.77
-88.47
-49.52
-12.39
19.87
45.97
65.96
80.61
90.76
97.14
100.36
101.14
100.30
98.60
96.62
94.63
92.70
90.78
88.93
87.37
86.35
86.03
86.19
86.31
85.56
83.21
78.78
72.32
64.31
55.47
46.45
37.67
29.09
20.39
11.11
0.96
-10.02
-21.38
-32.48
-42.70
-51.76
-59.89
-67.82
-76.66
-87.48
-100.83
-116.21
-131.80
-144.57
-151.00
-148.12
-134.50
-110.92
-80.13
-46.08
-12.72
16.91
41.15
59.61
72.64
80.96
85.31
86.44
85.08
82.06
78.14
73.99
70.12
66.82
64.24
62.38
61.21
60.57
60.26
60.06
59.70
58.93
57.43
54.90
51.03
45.60
38.47
29.77
19.79
9.05
-1.83
-12.27
-21.85
-30.46
-38.29
-45.85
-53.85
-63.05
-74.04
-86.91
-100.94
-114.37
-124.54
-128.45
-123.70
-109.37
-86.50
-57.88
-27.23
1.92
27.12
47.24
62.24
72.58
78.76
81.08
79.87
75.70
69.55
62.77
56.76
52.59
50.65
50.68
51.87
53.30
54.26
54.48
54.11
53.47
52.77
51.84
50.19
47.13
42.12
35.05
26.30
16.75
7.45
-0.68
-7.11
-11.85
-15.48
-19.14
-24.35
-32.75
-45.45
-62.45
-82.08
-101.17
-115.79
-122.55
-119.81
-108.26
-90.53
-70.20
-50.49
-33.47
-19.85
-9.44
-1.72
3.72
7.08
8.51
8.34
7.19
5.88
5.23
5.80
7.78
10.94
14.85
18.95
22.81
26.19
28.97
31.11
32.52
33.04
32.43
30.41
26.71
21.16
13.77
4.80
-5.26
-15.78
-26.08
-35.68
-44.43
-52.57
-60.70
-69.69
-80.42
-93.45
-108.59
-124.53
-138.72
-147.77
-148.37
-138.41
-117.82
-88.77
-55.04
-20.79
10.50
36.83
57.55
72.96
83.65
90.27
93.40
93.74
92.10
89.29
85.99
82.60
79.36
76.42
73.98
72.25
71.32
71.06
71.08
70.83
69.76
67.49
63.86
58.90
52.78
45.63
37.57
28.58
18.64
7.87
-3.44
-14.80
-25.66
-35.59
-44.53
-52.75
-60.95
-70.00
-80.76
-93.74
-108.70
-124.35
-138.23
-147.17
-148.02
-138.73
-119.12
-91.09
-58.09
-24.14
7.23
33.67
54.15
68.76
78.17
83.40
85.43
85.18
83.42
80.74
77.60
74.30
71.12
68.29
66.07
64.64
64.01
64.03
64.34
64.45
63.84
62.12
59.05
54.62
48.98
42.32
34.78
26.46
17.45
7.84
-2.16
-12.30
-22.29
-31.92
-41.08
-49.80
-58.27
-66.84
-76.03
-86.45
-98.52
-111.99
-125.61
-136.95
-142.89
-140.53
-128.13
-105.90
-76.01
-41.98
-7.70
23.54
49.60
69.54
83.47
92.07
96.34
97.38
96.25
93.95
91.31
88.90
86.93
85.16
83.04
79.91
75.42
69.74
63.59
57.86
53.11
49.27
45.57
40.99
34.76
26.72
17.30
7.21
-2.97
-12.99
-22.81
-32.42
-41.56
-49.82
-56.74
-62.22
-66.57
-70.62
-75.41
-81.92
-90.76
-101.92
-114.52
-126.72
-135.88
-139.05
-133.86
-119.29
-96.20
-67.22
-35.99
-6.10
19.84
40.56
55.95
66.49
72.75
75.12
73.95
69.79
63.58
56.55
49.93
44.66
41.08
38.99
37.91
37.30
36.90
36.74
36.95
37.55
38.23
38.32
36.99
33.55
27.74
19.88
10.75
1.32
-7.54
-15.42
-22.39
-29.00
-36.06
-44.41
-54.73
-67.25
-81.41
-95.70
-107.67
-114.38
-113.23
-102.80
-83.56
-57.78
-28.98
-0.80
23.90
43.60
58.08
67.80
73.47
75.61
74.57
70.74
64.82
57.75
50.69
44.70
40.46
38.23
37.73
38.38
39.41
40.17
40.18
39.27
37.51
35.07
32.06
28.39
23.79
17.91
10.55
1.85
-7.72
-17.47
-26.76
-35.27
-43.09
-50.68
-58.75
-68.08
-79.28
-92.71
-108.09
-124.26
-139.01
-149.33
-152.06
-144.87
-127.15
-100.38
-67.86
-33.68
-1.59
25.84
47.52
63.52
74.53
81.37
84.73
85.28
83.79
81.13
78.11
75.33
73.02
71.11
69.40
67.83
66.56
65.89
66.00
66.78
67.70
67.90
66.50
62.93
57.11
49.54
41.02
32.38
24.11
16.23
8.30
-0.30
-9.98
-20.68
-31.83
-42.58
-52.13
-60.14
-66.85
-73.10
-80.08
-88.98
-100.60
-114.87
-130.48
-144.86
-154.60
-156.31
-147.69
-128.41
-100.33
-67.01
-32.63
-0.87
25.90
46.75
61.88
72.06
78.23
81.23
81.85
80.78
78.66
75.98
73.10
70.23
67.58
65.38
63.90
63.30
63.57
64.40
65.22
65.38
64.30
61.67
57.50
52.11
45.92
39.27
32.30
24.89
16.76
7.68
-2.32
-12.94
-23.62
-33.77
-43.00
-51.27
-58.92
-66.61
-75.26
-85.70
-98.37
-112.78
-127.21
-138.77
-144.08
-140.23
-125.95
-102.14
-71.72
-38.71
-7.03
20.50
42.50
58.91
70.30
77.42
80.85
81.07
78.63
74.29
68.99
63.75
59.41
56.46
54.96
54.58
54.78
55.02
54.90
54.27
53.18
51.73
49.91
47.51
44.11
39.21
32.47
23.83
13.68
2.69
-8.30
-18.61
-27.90
-36.22
-44.00
-51.88
-60.57
-70.70
-82.59
-95.90
-109.42
-120.98
-127.80
-127.25
-117.71
-99.29
-73.89
-44.70
-15.26
11.47
33.63
50.55
62.33
69.43
72.35
71.62
67.90
62.15
55.55
49.31
44.38
41.19
39.57
38.94
38.67
38.37
38.04
37.96
38.33
39.02
39.36
38.41
35.23
29.38
21.15
11.45
1.52
-7.61
-15.50
-22.43
-29.26
-37.04
-46.72
-58.75
-72.86
-87.85
-101.60
-111.33
-114.35
-108.81
-94.37
-72.50
-46.04
-18.34
7.59
29.72
47.04
59.31
66.65
69.35
67.90
63.12
56.18
48.47
41.23
35.32
31.01
28.06
26.03
24.51
23.37
22.68
22.57
22.97
23.49
23.40
21.87
18.27
12.38
4.56
-4.44
-13.67
-22.35
-30.12
-37.14
-44.15
-52.20
-62.41
-75.43
-90.96
-107.44
-122.04
-131.25
-131.90
-122.20
-102.44
-75.05
-43.78
-12.64
15.18
37.91
55.11
67.23
75.04
79.26
80.46
79.18
76.04
71.78
67.15
62.83
59.26
56.69
55.18
54.66
54.95
55.81
56.87
57.66
57.64
56.33
53.38
48.73
42.58
35.31
27.35
19.01
10.38
1.37
-8.16
-18.25
-28.69
-39.06
-48.90
-58.01
-66.56
-75.20
-84.91
-96.64
-110.81
-126.79
-142.68
-155.39
-161.41
-157.78
-143.17
-118.44
-86.47
-51.36
-17.18
12.97
37.47
56.05
69.28
78.02
83.09
85.20
85.06
83.42
81.02
78.47
76.09
73.98
72.06
70.34
68.97
68.22
68.23
68.86
69.59
69.59
68.09
64.61
59.23
52.47
45.03
37.45
29.90
22.14
13.77
4.48
-5.66
-16.24
-26.63
-36.35
-45.21
-53.49
-61.79
-70.91
-81.63
-94.43
-109.10
-124.36
-137.77
-146.03
-145.91
-135.35
-114.39
-85.28
-51.90
-18.51
11.39
35.84
54.35
67.44
75.99
80.82
82.62
82.00
79.68
76.45
73.08
70.15
67.90
66.34
65.27
64.53
64.08
64.04
64.55
65.55
66.69
67.25
66.36
63.36
58.00
50.67
42.23
33.71
25.87
18.92
12.44
5.63
-2.30
-11.70
-22.29
-33.27
-43.64
-52.66
-60.10
-66.41
-72.53
-79.64
-88.82
-100.66
-114.84
-129.82
-142.90
-150.63
-149.84
-138.65
-117.23
-87.90
-54.45
-21.01
9.05
33.72
52.39
65.39
73.47
77.41
77.98
75.91
72.03
67.22
62.27
57.87
54.48
52.31
51.39
51.53
52.42
53.62
54.74
55.42
55.42
54.60
52.88
50.13
46.20
40.93
34.23
26.20
17.14
7.56
-1.97
-10.99
-19.27
-26.91
-34.30
-42.01
-50.70
-60.89
-72.86
-86.30
-100.10
-112.20
-119.93
-120.64
-112.59
-95.65
-71.53
-43.32
-14.57
11.67
33.52
50.24
61.90
68.94
71.77
70.83
66.73
60.36
52.94
45.73
39.74
35.55
33.17
32.18
32.00
32.08
32.15
32.16
32.24
32.46
32.69
32.44
31.06
27.87
22.46
14.95
5.94
-3.66
-13.00
-21.53
-29.21
-36.44
-43.93
-52.45
-62.68
-74.88
-88.63
-102.61
-114.53
-121.52
-120.88
-111.03
-92.23
-66.63
-37.67
-9.07
16.19
36.47
51.39
61.32
66.92
68.72
67.20
62.94
56.78
49.82
43.19
37.74
33.93
31.73
30.78
30.64
30.93
31.38
31.80
32.05
31.94
31.25
29.76
27.25
23.52
18.38
11.71
3.53
-5.88
-16.01
-26.21
-35.90
-44.80
-53.00
-60.99
-69.53
-79.51
-91.61
-105.95
-121.63
-136.58
-147.64
-151.43
-145.34
-128.56
-102.50
-70.39
-36.39
-4.32
23.16
44.80
60.56
71.04
77.12
79.72
79.69
77.85
74.91
71.44
67.87
64.55
61.74
59.67
58.44
58.04
58.24
58.67
58.92
58.62
57.53
55.49
52.41
48.21
42.76
35.96
27.78
18.35
8.00
-2.78
-13.41
-23.42
-32.63
-41.17
-49.55
-58.52
-68.96
-81.48
-96.23
-112.36
-127.94
-140.08
-145.54
-141.72
-127.52
-103.87
-73.53
-40.28
-7.91
20.74
44.10
61.79
74.16
81.91
85.82
86.70
85.40
82.80
79.68
76.61
73.94
71.74
70.02
68.78
68.03
67.83
68.17
68.91
69.75
70.22
69.77
67.90
64.35
59.14
52.59
45.19
37.43
29.58
21.77
13.96
6.11
-1.86
-10.11
-19.01
-29.14
-41.16
-55.52
-72.40
-91.57
-112.43
-133.93
-154.41
-171.51
-182.42
-184.39
-175.66
-156.25
-128.20
-95.09
-61.06
-29.63
-2.99
18.12
34.00
45.41
53.04
57.44
59.07
58.51
56.59
54.23
52.27
51.26
51.31
52.22
53.70
55.57
57.81
60.43
63.26
65.80
67.28
66.86
64.06
58.90
52.00
44.26
36.49
29.06
21.85
14.38
6.18
-2.93
-12.72
-22.60
-31.95
-40.40
-47.99
-55.26
-63.13
-72.58
-84.36
-98.50
-113.97
-128.58
-139.21
-142.64
-136.51
-120.17
-95.01
-64.11
-31.29
-0.13
26.86
48.40
64.29
74.91
80.87
82.85
81.62
78.10
73.32
68.29
63.76
60.19
57.66
56.09
55.32
55.30
56.02
57.44
59.34
61.24
62.43
62.18
59.95
55.63
49.56
42.41
34.94
27.69
20.77
13.89
6.53
-1.76
-11.00
-20.79
-30.38
-39.07
-46.49
-52.85
-58.87
-65.61
-74.11
-84.94
-97.81
-111.25
-122.74
-129.15
-127.68
-116.79
-96.90
-70.28
-40.42
-11.01
15.13
36.46
52.68
64.10
71.23
74.40
73.86
70.01
63.67
56.03
48.46
42.13
37.66
35.04
33.77
33.19
32.86
32.71
32.98
33.86
35.20
36.34
36.29
34.07
29.11
21.56
12.14
1.95
-7.96
-16.97
-24.96
-32.25
-39.45
-47.28
-56.39
-67.27
-79.91
-93.51
-106.26
-115.55
-118.55
-113.10
-98.57
-76.20
-48.86
-20.08
6.91
29.95
48.21
61.75
71.06
76.52
78.32
76.59
71.73
64.60
56.52
48.92
43.03
39.48
38.22
38.62
39.79
40.91
41.43
41.18
40.23
38.73
36.74
34.09
30.38
25.16
18.10
9.23
-1.03
-11.96
-22.82
-33.14
-42.88
-52.40
-62.25
-73.08
-85.43
-99.71
-115.86
-133.05
-149.34
-161.67
-166.60
-161.21
-144.34
-117.12
-82.79
-45.72
-10.16
20.78
45.56
63.95
76.51
84.09
87.55
87.75
85.64
82.17
78.23
74.47
71.23
68.64
66.71
65.50
65.17
65.85
67.47
69.69
71.85
73.14
72.83
70.47
66.04
59.86
52.42
44.17
35.31
25.83
15.53
4.34
-7.57
-19.74
-31.52
-42.36
-52.01
-60.65
-68.99
-78.03
-88.85
-102.20
-117.98
-134.80
-149.95
-159.82
-160.89
-150.93
-129.89
-100.00
-65.17
-29.74
2.71
30.05
51.57
67.57
78.75
85.82
89.38
90.13
88.85
86.48
83.93
81.78
80.20
78.90
77.42
75.29
72.35
68.73
64.84
61.06
57.53
53.98
49.83
44.37
37.07
27.82
17.05
5.62
-5.50
-15.49
-24.03
-31.35
-38.20
-45.65
-54.83
-66.59
-81.07
-97.35
-113.24
-125.54
-130.79
-126.31
-111.20
-86.70
-55.94
-22.91
8.60
35.82
57.34
72.80
82.49
87.03
87.18
83.94
78.51
72.18
66.06
60.84
56.70
53.36
50.41
47.53
44.73
42.27
40.48
39.39
38.59
37.28
34.53
29.67
22.62
13.94
4.60
-4.36
-12.29
-19.09
-25.34
-32.05
-40.39
-51.26
-64.83
-80.27
-95.57
-107.85
-113.94
-111.33
-98.94
-77.63
-50.01
-19.81
9.16
33.87
52.55
64.73
70.85
71.80
68.59
62.18
53.52
43.62
33.54
24.28
16.63
11.03
7.53
5.85
5.53
6.02
6.77
7.23
6.82
4.99
1.36
-4.15
-11.26
-19.39
-27.86
-36.23
-44.42
-52.92
-62.59
-74.40
-88.81
-105.30
-121.98
-135.70
-142.77
-140.04
-126.06
-101.67
-69.87
-34.85
-0.84
29.03
53.13
71.15
83.49
90.81
93.70
92.82
88.98
83.26
76.82
70.63
65.19
60.51
56.29
52.20
48.17
44.52
41.71
40.07
39.37
38.77
36.99
32.79
25.44
15.11
2.76
-10.20
-22.51
-33.53
-43.46
-53.27
-64.35
-78.04
-95.06
-114.95
-135.71
-153.89
-165.27
-166.07
-154.27
-130.37
-97.38
-59.87
-22.57
10.91
38.63
60.22
76.22
87.44
94.57
98.21
99.00
97.73
95.25
92.27
89.14
85.73
81.59
76.31
69.88
62.82
56.12
50.78
47.31
45.34
43.73
40.93
35.64
27.33
16.38
3.88
-8.88
-20.88
-31.75
-41.83
-52.06
-63.72
-78.00
-95.47
-115.50
-135.94
-153.22
-163.12
-162.00
-148.10
-122.24
-87.61
-48.84
-10.51
23.92
52.65
75.34
92.48
104.79
112.98
117.63
119.36
118.84
116.69
113.40
109.21
104.25
98.67
92.79
87.10
82.10
78.09
74.94
72.18
69.16
65.33
60.41
54.43
47.53
39.83
31.27
21.65
10.85
-1.02
-13.62
-26.39
-38.84
-50.73
-62.12
-73.37
-85.11
-98.10
-113.09
-130.44
-149.58
-168.61
-184.19
-192.25
-189.08
-172.75
-143.84
-105.52
-62.48
-19.62
19.14
51.50
76.69
94.95
107.07
114.03
116.89
116.72
114.44
110.77
106.06
100.51
94.22
87.39
80.45
73.94
68.37
64.07
61.04
58.98
57.31
55.42
52.75
48.96
43.97
37.90
30.86
22.96
14.20
4.54
-5.93
-16.95
-28.12
-38.96
-49.15
-58.60
-67.56
-76.65
-86.83
-99.09
-114.02
-131.12
-148.31
-162.03
-167.95
-162.39
-143.60
-112.60
-72.90
-29.48
12.77
50.18
80.85
104.43
121.59
133.41
141.03
145.40
147.07
146.08
141.89
133.67
120.82
103.47
82.79
60.74
39.57
21.04
6.01
-5.70
-15.02
-23.13
-31.06
-39.38
-48.22
-57.32
-66.20
-74.38
-81.54
-87.78
-93.65
-100.17
-108.44
-119.10
-131.72
-144.40
-153.89
-156.34
-148.60
-129.32
-99.74
-63.30
-24.65
11.82
43.03
67.69
85.93
98.54
106.30
109.69
109.06
104.87
98.00
89.61
80.97
73.08
66.56
61.55
57.87
55.17
53.02
51.04
48.91
46.39
43.31
39.60
35.09
29.62
22.88
14.63
4.76
-6.52
-18.72
-31.18
-43.26
-54.52
-64.87
-74.56
-84.13
-94.40
-106.30
-120.66
-137.73
-156.66
-175.10
-189.33
-195.05
-188.69
-168.70
-136.29
-95.20
-50.54
-7.34
30.69
61.66
85.28
102.17
113.28
119.51
121.70
120.72
117.50
112.88
107.57
101.99
96.38
90.90
85.74
81.10
77.11
73.76
70.79
67.83
64.47
60.44
55.60
49.92
43.37
35.88
27.28
17.46
6.47
-5.38
-17.52
-29.36
-40.43
-50.63
-60.29
-70.14
-81.13
-94.20
-109.94
-128.03
-146.87
-163.53
-174.09
-174.70
-162.86
-138.39
-103.66
-62.98
-21.33
16.97
49.11
73.92
91.52
102.72
108.56
110.13
108.56
104.97
100.34
95.36
90.31
85.13
79.65
73.88
68.18
63.20
59.61
57.71
57.23
57.32
56.87
54.91
50.97
45.20
38.16
30.49
22.62
14.56
6.01
-3.40
-13.86
-25.20
-36.92
-48.35
-58.89
-68.34
-76.88
-85.24
-94.44
-105.69
-119.78
-136.63
-154.69
-170.80
-180.76
-180.46
-167.27
-141.12
-104.73
-62.75
-20.43
17.79
49.22
72.89
89.19
99.12
103.77
104.23
101.52
96.73
90.84
84.69
78.79
73.28
68.15
63.40
59.22
56.01
54.16
53.79
54.54
55.54
55.74
54.24
50.65
45.17
38.48
31.33
24.20
17.15
9.79
1.53
-8.02
-18.91
-30.73
-42.76
-54.26
-64.72
-74.06
-82.73
-91.65
-102.00
-114.74
-130.03
-146.63
-161.78
-171.58
-172.16
-160.95
-137.70
-104.71
-66.10
-26.63
9.63
39.97
63.20
79.22
88.62
92.26
91.26
86.85
80.35
72.97
65.57
58.64
52.31
46.51
41.25
36.68
33.15
31.04
30.50
31.29
32.63
33.43
32.55
29.29
23.57
15.92
7.32
-1.35
-9.60
-17.50
-25.66
-34.99
-46.37
-60.26
-76.33
-93.18
-108.29
-118.48
-120.70
-112.94
-95.10
-69.06
-38.22
-6.53
22.57
46.73
64.91
77.01
83.48
84.99
82.36
76.51
68.50
59.48
50.43
42.09
34.80
28.63
23.48
19.27
16.07
13.96
12.96
12.75
12.63
11.61
8.69
3.30
-4.48
-13.91
-23.87
-33.35
-41.84
-49.62
-57.67
-67.39
-80.07
-96.26
-115.12
-134.22
-149.69
-157.22
-153.32
-136.58
-108.31
-72.19
-33.17
4.01
35.96
61.12
79.50
91.92
99.36
102.62
102.28
98.95
93.42
86.66
79.69
73.38
68.24
64.46
61.95
60.47
59.78
59.65
59.82
59.98
59.76
58.74
56.58
53.04
47.99
41.46
33.57
24.55
14.66
4.21
-6.54
-17.38
-28.14
-38.71
-49.04
-59.18
-69.40
-80.22
-92.38
-106.36
-121.85
-137.29
-149.93
-156.53
-154.41
-142.50
-121.80
-94.98
-65.53
-36.79
-11.32
9.26
24.14
33.17
36.88
36.48
33.71
30.48
28.29
27.95
29.51
32.50
36.36
40.66
45.21
49.95
54.78
59.46
63.53
66.49
67.87
67.40
65.11
61.31
56.42
50.83
44.65
37.69
29.54
19.86
8.63
-3.77
-16.61
-29.08
-40.60
-51.04
-60.80
-70.72
-81.92
-95.49
-112.03
-131.11
-150.84
-167.87
-177.99
-177.33
-163.68
-137.43
-101.53
-60.67
-19.80
17.13
47.89
71.90
89.70
102.19
110.27
114.68
116.07
115.11
112.49
108.85
104.67
100.31
96.01
92.02
88.65
86.21
84.86
84.51
84.68
84.68
83.68
81.05
76.52
70.22
62.57
54.04
44.97
35.41
25.20
14.10
2.05
-10.70
-23.60
-35.99
-47.36
-57.60
-67.09
-76.77
-87.81
-101.30
-117.63
-135.94
-153.80
-167.55
-173.15
-167.44
-149.34
-120.30
-83.92
-44.86
-7.48
25.13
51.55
71.72
86.34
96.34
102.49
105.42
105.61
103.62
100.05
95.58
90.85
86.39
82.54
79.44
77.15
75.62
74.73
74.23
73.68
72.54
70.23
66.38
60.95
54.20
46.52
38.25
29.50
20.15
10.05
-0.84
-12.24
-23.64
-34.45
-44.20
-52.82
-60.71
-68.77
-78.15
-89.87
-104.30
-120.61
-136.52
-148.60
-153.15
-147.35
-130.37
-103.74
-70.95
-36.32
-3.75
24.11
46.14
62.32
73.15
79.17
80.93
79.02
74.35
68.10
61.49
55.48
50.53
46.65
43.61
41.22
39.53
38.71
38.89
39.73
40.47
39.95
37.19
31.69
23.73
14.19
4.26
-5.15
-13.64
-21.52
-29.61
-39.01
-50.71
-65.13
-81.69
-98.59
-112.84
-120.95
-119.92
-108.31
-86.78
-58.08
-26.06
5.38
33.27
56.01
73.22
85.21
92.55
95.81
95.51
92.32
87.06
80.66
74.06
67.99
62.90
58.99
56.27
54.68
54.11
54.31
54.84
55.02
54.06
51.29
46.40
39.58
31.43
22.73
14.06
5.60
-2.96
-12.15
-22.45
-33.96
-46.29
-58.64
-70.13
-80.18
-88.74
-96.43
-104.40
-114.04
-126.49
-142.02
-159.51
-176.27
-188.42
-191.88
-183.68
-163.07
-131.78
-93.54
-52.81
-13.51
21.78
51.86
76.49
95.80
110.02
119.43
124.70
126.90
127.47
127.87
129.12
131.63
134.96
138.02
139.38
137.74
132.39
123.45
111.93
99.31
86.88
75.24
64.03
52.20
38.64
22.86
5.39
-12.41
-28.92
-42.93
-54.14
-63.08
-70.61
-77.40
-83.58
-88.79
-92.61
-95.07
-96.90
-99.43
-104.27
-112.70
-125.25
-141.18
-158.41
-173.61
-182.88
-182.70
-171.02
-147.97
-115.90
-78.64
-40.33
-4.34
27.28
53.75
75.09
91.51
103.30
110.80
114.55
115.40
114.34
112.25
109.67
106.83
103.72
100.27
96.55
92.81
89.44
86.86
85.31
84.67
84.42
83.64
81.31
76.68
69.55
60.42
50.30
40.26
31.03
22.66
14.61
6.04
-3.77
-15.02
-27.32
-39.86
-51.72
-62.22
-71.15
-78.84
-86.12
-94.15
-104.18
-117.08
-132.85
-150.04
-165.72
-175.96
-176.93
-166.20
-143.72
-111.91
-74.92
-37.29
-2.78
26.41
49.61
67.14
79.72
88.04
92.64
94.03
92.83
89.79
85.72
81.36
77.25
73.60
70.39
67.49
64.71
62.00
59.46
57.25
55.42
53.87
52.17
49.70
45.79
39.88
31.81
21.88
10.82
-0.45
-11.13
-20.79
-29.53
-37.91
-46.75
-56.84
-68.80
-82.78
-98.33
-114.10
-127.83
-136.62
-137.59
-128.84
-110.22
-83.58
-52.27
-20.16
9.41
34.31
53.68
67.63
76.57
81.01
81.38
78.28
72.57
65.37
57.91
51.19
45.84
41.96
39.30
37.43
35.97
34.76
33.87
33.41
33.39
33.45
32.87
30.75
26.25
19.03
9.38
-1.82
-13.32
-24.01
-33.24
-41.06
-48.17
-55.68
-64.83
-76.60
-91.30
-108.15
-125.07
-138.90
-146.04
-143.50
-129.96
-106.28
-75.29
-41.00
-7.37
22.54
47.01
65.57
78.51
86.51
90.34
90.76
88.56
84.53
79.42
73.87
68.42
63.45
59.19
55.81
53.43
52.02
51.44
51.33
51.09
50.05
47.68
43.70
38.23
31.68
24.48
16.90
8.89
0.20
-9.42
-19.98
-31.19
-42.51
-53.40
-63.54
-72.94
-82.00
-91.46
-102.22
-115.09
-130.29
-146.95
-162.79
-174.38
-177.91
-170.49
-151.17
-121.51
-85.13
-46.60
-10.09
21.49
46.87
65.98
79.49
88.24
93.12
94.97
94.68
93.10
90.90
88.51
86.04
83.42
80.57
77.52
74.54
72.05
70.48
69.95
70.21
70.52
69.89
67.40
62.56
55.54
47.06
38.13
29.55
21.63
14.02
5.93
-3.43
-14.49
-27.03
-40.28
-53.16
-64.82
-74.88
-83.67
-92.14
-101.59
-113.25
-127.68
-144.24
-160.80
-173.91
-179.64
-174.75
-157.85
-129.97
-94.35
-55.38
-17.37
16.47
44.46
66.17
81.95
92.50
98.56
100.98
100.69
98.68
95.87
92.89
90.02
87.23
84.27
81.03
77.55
74.16
71.34
69.51
68.82
68.93
69.11
68.35
65.72
60.70
53.39
44.45
34.89
25.67
17.26
9.56
1.90
-6.54
-16.35
-27.57
-39.66
-51.68
-62.72
-72.24
-80.30
-87.60
-95.24
-104.49
-116.32
-130.96
-147.44
-163.40
-175.34
-179.43
-172.67
-153.94
-124.52
-87.83
-48.39
-10.57
22.45
49.05
68.97
82.80
91.37
95.54
96.11
93.95
90.10
85.55
81.12
77.27
74.01
71.15
68.49
66.08
64.24
63.41
63.87
65.46
67.53
69.06
69.04
66.75
62.00
55.13
46.88
38.16
29.71
21.92
14.64
7.33
-0.75
-10.13
-20.87
-32.46
-44.03
-54.68
-63.85
-71.56
-78.41
-85.49
-94.05
-105.20
-119.33
-135.66
-151.98
-164.88
-170.51
-165.79
-149.49
-122.70
-88.59
-51.44
-15.36
16.51
42.50
62.15
75.79
84.08
87.74
87.55
84.35
79.08
72.79
66.47
60.91
56.55
53.41
51.26
49.78
48.73
48.04
47.74
47.84
48.13
48.14
47.25
44.78
40.28
33.62
25.04
15.14
4.67
-5.64
-15.29
-24.11
-32.35
-40.58
-49.64
-60.37
-73.42
-88.71
-105.15
-120.47
-131.58
-135.33
-129.53
-113.75
-89.55
-60.02
-28.85
0.67
26.27
46.84
62.09
72.14
77.27
77.87
74.64
68.60
61.10
53.46
46.75
41.42
37.39
34.21
31.43
28.92
26.93
25.89
26.04
27.08
28.08
27.69
24.75
18.67
9.80
-0.79
-11.74
-21.94
-31.00
-39.27
-47.68
-57.40
-69.45
-84.26
-101.37
-119.08
-134.54
-144.22
-144.79
-134.23
-112.63
-82.38
-47.46
-12.31
19.42
45.55
65.48
79.70
89.12
94.55
96.57
95.59
92.14
86.91
80.82
74.80
69.68
65.94
63.70
62.77
62.71
63.01
63.18
62.78
61.56
59.38
56.23
52.19
47.30
41.53
34.72
26.68
17.30
6.70
-4.78
-16.56
-28.01
-38.60
-48.13
-56.82
-65.48
-75.30
-87.49
-102.56
-119.62
-135.98
-147.48
-149.61
-138.99
-114.72
-78.94
-36.36
6.97
45.22
74.16
91.88
98.81
97.22
90.24
80.94
71.61
63.34
56.06
49.12
41.70
33.41
24.35
15.09
6.31
-1.32
-7.30
-11.22
-12.79
-11.86
-8.58
-3.51
2.24
7.21
9.89
9.11
4.48
-3.54
-13.76
-24.73
-35.21
-44.54
-52.80
-60.64
-69.13
-79.37
-92.29
-108.16
-126.13
-144.08
-158.58
-165.76
-162.35
-146.94
-120.57
-86.41
-48.82
-11.94
21.32
49.54
72.51
90.60
104.21
113.71
119.45
121.99
122.01
120.31
117.57
114.28
110.81
107.43
104.41
101.95
100.16
98.96
98.08
97.05
95.29
92.30
87.71
81.45
73.67
64.60
54.48
43.38
31.34
18.45
4.98
-8.62
-21.81
-34.20
-45.73
-56.73
-67.93
-80.25
-94.54
-111.08
-129.08
-146.37
-159.61
-165.12
-160.03
-143.36
-116.50
-82.83
-46.60
-11.78
18.91
44.10
63.58
77.63
86.71
91.32
92.11
89.96
86.02
81.41
77.05
73.36
70.30
67.56
64.81
61.98
59.34
57.31
56.10
55.53
54.86
53.07
49.19
42.74
33.87
23.37
12.25
1.44
-8.53
-17.73
-26.75
-36.49
-47.98
-61.95
-78.43
-96.34
-113.37
-126.30
-131.74
-127.28
-112.30
-88.32
-58.53
-26.81
3.40
29.83
51.45
68.20
80.34
88.19
91.93
91.88
88.66
83.21
76.64
70.05
64.28
59.79
56.71
54.97
54.36
54.57
55.21
55.75
55.54
53.95
50.56
45.33
38.63
31.01
23.01
14.88
6.48
-2.59
-12.68
-23.85
-35.80
-47.86
-59.36
-69.80
-79.17
-87.93
-97.03
-107.70
-120.99
-137.18
-155.16
-172.17
-184.20
-187.13
-178.10
-156.65
-125.00
-87.24
-48.04
-11.24
20.81
47.28
68.26
84.23
95.62
102.91
106.69
107.78
107.10
105.47
103.42
101.16
98.68
95.94
93.02
90.20
87.87
86.30
85.52
85.18
84.58
82.83
79.15
73.17
65.03
55.44
45.30
35.47
26.29
17.56
8.66
-1.12
-12.22
-24.55
-37.51
-50.23
-61.89
-72.05
-80.82
-88.84
-97.25
-107.37
-120.27
-136.13
-153.70
-170.13
-181.47
-183.78
-174.40
-153.00
-121.71
-84.43
-45.61
-9.07
22.79
48.98
69.54
85.02
96.05
103.24
107.18
108.46
107.76
105.71
102.87
99.63
96.19
92.61
88.94
85.30
81.94
79.24
77.49
76.69
76.46
76.01
74.34
70.63
64.48
56.06
46.14
35.76
25.89
17.09
9.33
2.05
-5.58
-14.29
-24.37
-35.57
-47.21
-58.46
-68.62
-77.42
-85.10
-92.32
-100.06
-109.40
-121.21
-135.71
-152.04
-167.98
-180.14
-184.71
-178.60
-160.58
-131.81
-95.56
-56.29
-18.31
15.18
42.53
63.45
78.47
88.40
94.11
96.41
96.11
94.02
90.86
87.17
83.26
79.33
75.51
72.00
69.06
66.93
65.68
65.12
64.82
64.14
62.50
59.49
55.00
49.19
42.35
34.75
26.54
17.68
8.06
-2.35
-13.41
-24.80
-36.06
-46.78
-56.73
-65.96
-74.87
-84.20
-94.80
-107.29
-121.46
-135.87
-147.84
-153.91
-150.97
-137.37
-113.61
-82.33
-47.47
-13.11
17.55
42.65
61.64
74.81
82.86
86.61
86.86
84.47
80.22
74.90
69.15
63.54
58.53
54.47
51.61
49.98
49.44
49.65
50.16
50.50
50.25
49.10
46.87
43.50
38.96
33.26
26.39
18.36
9.23
-0.79
-11.33
-21.97
-32.28
-42.01
-51.11
-59.81
-68.61
-78.22
-89.43
-102.72
-117.78
-133.08
-145.78
-152.36
-149.57
-135.75
-111.42
-79.35
-43.64
-8.55
22.59
47.89
66.84
79.78
87.41
90.48
89.71
85.88
79.84
72.50
64.77
57.42
51.07
46.12
42.72
40.84
40.22
40.49
41.09
41.47
41.08
39.56
36.69
32.47
27.00
20.39
12.71
4.00
-5.66
-16.05
-26.82
-37.49
-47.61
-56.94
-65.58
-73.96
-82.77
-92.90
-105.14
-119.78
-136.20
-152.54
-165.72
-172.08
-168.44
-153.17
-126.99
-92.83
-54.99
-17.94
14.87
41.60
61.86
76.24
85.65
90.98
92.96
92.29
89.70
86.01
81.95
78.10
74.77
72.02
69.77
67.95
66.57
65.71
65.52
66.00
66.95
67.88
68.14
66.94
63.69
58.16
50.58
41.66
32.33
23.43
15.35
7.90
0.39
-8.01
-17.92
-29.39
-41.87
-54.42
-66.07
-76.17
-84.66
-92.11
-99.57
-108.37
-119.75
-134.37
-151.76
-170.01
-185.76
-194.91
-193.72
-180.03
-154.06
-118.48
-77.54
-35.94
2.40
35.02
60.96
80.39
94.08
103.03
108.28
110.82
111.60
111.38
110.73
109.99
109.29
108.71
108.34
108.31
108.77
109.82
111.46
113.56
115.82
117.78
118.86
118.38
115.75
110.67
103.28
94.23
84.64
75.61
67.85
61.15
54.35
45.60
32.93
14.96
-8.62
-36.93
-68.14
-99.92
-130.04
-156.77
-179.13
-197.04
-211.23
-223.14
-234.50
-246.76
-260.34
-273.95
-284.52
-287.76
-279.54
-257.35
-221.46
-175.07
-123.39
-72.04
-25.55
13.53
44.61
68.35
85.88
98.22
106.12
110.27
111.49
110.71
108.90
106.83
104.92
103.25
101.70
100.17
98.76
97.76
97.55
98.30
99.81
101.36
101.89
100.32
95.95
88.73
79.29
68.71
58.06
47.99
38.52
29.11
18.97
7.51
-5.35
-19.13
-32.94
-45.85
-57.23
-66.91
-75.27
-83.14
-91.61
-101.81
-114.59
-130.00
-146.86
-162.62
-173.62
-176.08
-167.25
-146.46
-115.49
-78.06
-38.67
-1.33
31.34
58.24
79.41
95.28
106.23
112.51
114.35
112.37
107.59
101.27
94.67
88.70
83.83
80.03
77.10
74.73
72.78
71.22
70.15
69.56
69.22
68.60
66.95
63.49
57.67
49.43
39.20
27.80
16.10
4.76
-5.95
-16.20
-26.46
-37.42
-49.75
-64.00
-80.22
-97.68
-114.57
-128.15
-135.23
-133.14
-120.64
-98.43
-69.05
-36.11
-3.31
26.38
51.14
70.13
83.20
90.55
92.59
90.03
83.94
75.72
66.85
58.64
51.92
46.94
43.46
41.01
39.12
37.57
36.39
35.65
35.33
34.96
33.73
30.62
24.81
16.04
4.82
-7.74
-20.32
-31.90
-42.15
-51.53
-61.10
-72.19
-85.86
-102.47
-121.22
-139.94
-155.28
-163.35
-160.86
-146.21
-120.19
-85.84
-47.55
-9.83
23.88
51.68
73.13
88.62
98.90
104.65
106.47
104.98
100.92
95.19
88.73
82.42
76.90
72.54
69.31
66.98
65.14
63.45
61.69
59.77
57.65
55.18
52.02
47.61
41.38
32.90
22.08
9.37
-4.43
-18.29
-31.32
-43.01
-53.43
-63.20
-73.34
-85.04
-99.24
-116.27
-135.38
-154.45
-170.13
-178.46
-176.01
-160.99
-134.00
-98.03
-57.59
-17.46
18.53
48.18
70.90
87.23
98.17
104.78
107.94
108.43
106.95
104.17
100.58
96.49
92.08
87.46
82.84
78.59
75.13
72.75
71.40
70.71
69.97
68.49
65.72
61.40
55.56
48.34
39.95
30.54
20.22
9.15
-2.48
-14.41
-26.34
-38.00
-49.28
-60.26
-71.31
-83.06
-96.25
-111.50
-128.79
-147.06
-163.99
-176.20
-180.04
-172.63
-152.94
-122.32
-84.21
-43.22
-3.85
30.60
58.44
79.48
94.43
104.31
110.07
112.47
112.23
110.07
106.72
102.86
98.94
95.16
91.52
87.96
84.50
81.29
78.61
76.69
75.56
74.83
73.73
71.30
66.75
59.78
50.80
40.75
30.78
21.69
13.63
5.97
-2.27
-11.96
-23.33
-35.83
-48.34
-59.69
-69.17
-76.79
-83.37
-90.15
-98.53
-109.54
-123.45
-139.30
-154.75
-166.28
-170.02
-162.88
-143.71
-113.84
-76.77
-37.19
0.42
32.80
58.37
76.93
89.18
96.13
98.81
98.17
95.13
90.55
85.24
79.83
74.77
70.32
66.58
63.62
61.46
60.13
59.62
59.79
60.23
60.32
59.32
56.62
51.95
45.52
37.97
30.02
22.26
14.85
7.51
-0.27
-8.92
-18.53
-28.75
-38.92
-48.36
-56.63
-63.81
-70.52
-77.84
-87.00
-98.89
-113.43
-129.16
-143.17
-151.69
-151.21
-139.68
-117.36
-86.78
-51.93
-17.01
14.70
41.30
62.16
77.31
87.01
91.49
91.14
86.64
79.16
70.17
61.21
53.48
47.66
43.83
41.61
40.42
39.75
39.32
39.08
39.02
39.00
38.56
37.01
33.54
27.63
19.18
8.70
-2.89
-14.52
-25.31
-34.83
-43.21
-51.05
-59.27
-68.87
-80.63
-94.78
-110.61
-126.19
-138.53
-144.18
-140.27
-125.50
-100.77
-69.07
-34.53
-1.28
27.60
50.51
67.23
78.30
84.56
86.76
85.59
81.77
76.13
69.59
63.02
57.12
52.31
48.76
46.48
45.35
45.20
45.73
46.51
46.97
46.51
44.61
41.07
36.02
29.81
22.82
15.27
7.10
-1.88
-11.83
-22.68
-34.02
-45.27
-55.87
-65.53
-74.40
-83.10
-92.55
-103.82
-117.71
-134.15
-151.81
-167.86
-178.47
-179.78
-169.25
-146.65
-114.27
-76.25
-37.27
-1.32
29.09
53.00
70.60
82.60
89.95
93.61
94.58
93.83
92.20
90.23
88.08
85.68
82.83
79.49
75.88
72.53
70.00
68.76
68.77
69.47
69.84
68.75
65.45
59.75
52.15
43.51
34.70
26.15
17.76
9.00
-0.74
-11.76
-23.88
-36.50
-48.83
-60.23
-70.41
-79.53
-88.22
-97.48
-108.43
-121.95
-138.00
-155.10
-170.23
-179.30
-178.43
-165.23
-139.90
-105.23
-65.72
-26.22
9.41
38.96
61.80
78.33
89.37
95.80
98.47
98.27
96.19
93.20
90.05
87.15
84.55
81.99
79.19
76.07
72.84
70.01
68.09
67.34
67.51
67.79
67.07
64.37
59.24
51.95
43.38
34.58
26.35
18.87
11.69
3.95
-5.13
-15.89
-27.96
-40.43
-52.18
-62.37
-70.79
-77.96
-85.01
-93.32
-104.11
-117.93
-134.20
-151.02
-165.22
-173.01
-171.01
-157.35
-132.40
-98.84
-60.91
-23.15
10.71
38.50
59.56
74.33
83.70
88.59
89.78
88.01
84.04
78.70
72.84
67.20
62.32
58.42
55.52
53.41
51.81
50.54
49.50
48.73
48.23
47.85
47.16
45.50
42.13
36.47
28.45
18.50
7.49
-3.63
-14.11
-23.62
-32.34
-40.75
-49.57
-59.52
-71.30
-85.30
-101.25
-117.85
-132.63
-142.30
-143.56
-134.28
-114.27
-85.62
-51.98
-17.56
14.05
40.55
61.05
75.59
84.63
88.67
88.22
83.96
76.86
68.22
59.44
51.71
45.69
41.45
38.56
36.41
34.52
32.83
31.53
30.92
30.97
31.13
30.37
27.50
21.66
12.78
1.56
-10.69
-22.61
-33.37
-42.85
-51.67
-60.92
-71.78
-85.18
-101.45
-119.91
-138.62
-154.39
-163.39
-162.15
-148.73
-123.61
-89.63
-51.22
-13.11
20.99
48.96
70.33
85.63
95.78
101.58
103.61
102.39
98.50
92.73
86.03
79.37
73.52
68.90
65.57
63.27
61.59
60.16
58.71
57.07
55.17
52.88
49.97
46.05
40.67
33.46
24.25
13.22
0.95
-11.80
-24.25
-35.87
-46.53
-56.51
-66.43
-77.16
-89.61
-104.50
-121.92
-140.83
-158.82
-172.28
-177.26
-170.69
-151.45
-121.05
-83.07
-42.29
-3.24
30.75
58.00
78.26
92.20
100.87
105.33
106.56
105.35
102.44
98.44
93.91
89.31
85.02
81.30
78.19
75.64
73.49
71.59
69.82
68.11
66.29
64.05
60.96
56.49
50.19
41.82
31.48
19.60
6.87
-5.97
-18.30
-29.77
-40.38
-50.46
-60.51
-71.18
-83.14
-97.01
-112.97
-130.35
-147.21
-160.39
-166.11
-161.21
-144.29
-116.44
-81.00
-42.55
-5.52
26.89
53.09
72.87
86.74
95.42
99.57
99.81
96.94
91.92
85.84
79.70
74.25
69.86
66.49
63.87
61.65
59.58
57.64
55.98
54.80
54.13
53.60
52.49
49.85
44.79
36.90
26.40
14.17
1.42
-10.74
-21.66
-31.34
-40.33
-49.53
-59.88
-72.10
-86.59
-103.06
-120.25
-135.82
-146.53
-148.98
-140.75
-121.25
-92.25
-57.43
-21.28
12.15
40.12
61.47
76.26
85.11
88.83
88.19
84.03
77.37
69.44
61.42
54.25
48.44
44.00
40.68
38.18
36.35
35.28
35.16
35.99
37.39
38.48
38.10
35.14
29.10
20.20
9.44
-1.83
-12.42
-21.76
-30.15
-38.56
-48.34
-60.69
-76.11
-93.94
-112.13
-127.49
-136.33
-135.47
-123.32
-100.47
-69.61
-34.74
-0.03
31.18
56.92
76.52
90.21
98.58
102.33
102.19
98.95
93.53
86.93
80.07
73.65
68.07
63.46
59.79
57.02
55.18
54.33
54.43
55.13
55.77
55.42
53.22
48.72
42.07
33.92
25.22
16.70
8.60
0.60
-8.01
-17.88
-29.17
-41.47
-53.89
-65.45
-75.53
-84.13
-91.92
-100.10
-110.04
-122.77
-138.52
-156.16
-173.06
-185.42
-189.14
-181.14
-160.42
-128.61
-89.55
-48.15
-9.01
24.68
51.46
71.34
85.20
94.14
99.23
101.39
101.43
100.14
98.15
95.88
93.51
90.96
88.11
85.00
81.86
79.14
77.26
76.37
76.12
75.73
74.23
70.90
65.53
58.51
50.48
42.03
33.33
24.15
14.08
2.92
-9.17
-21.63
-33.75
-44.97
-55.11
-64.36
-73.27
-82.69
-93.56
-106.72
-122.29
-139.22
-154.96
-165.84
-167.99
-158.64
-137.27
-105.95
-68.76
-30.52
4.51
33.66
56.00
71.94
82.56
89.04
92.27
92.91
91.47
88.43
84.33
