1540573909.00
64.000000
-0.00
-0.00
-0.00
-0.00
-0.00
-0.00
-0.00
-0.00
-0.00
-0.00
0.00
0.01
0.01
-0.00
-0.03
-0.05
-0.05
0.00
0.13
0.36
0.66
1.01
1.37
1.72
2.06
2.40
2.79
3.24
3.80
4.42
5.06
5.66
6.20
6.68
7.15
7.68
8.31
9.14
10.09
11.04
11.88
12.56
13.14
13.76
14.65
15.96
17.91
20.32
22.90
25.38
27.57
29.57
31.67
34.31
37.81
42.55
48.17
54.16
59.93
65.12
69.81
74.47
79.79
86.29
94.51
103.92
113.74
123.09
131.39
138.67
145.53
153.25
160.48
169.48
180.85
194.75
210.04
223.84
231.84
229.34
212.89
181.53
137.63
85.07
28.26
-29.42
-86.37
-142.30
-197.41
-251.53
-303.97
-353.29
-398.50
-438.73
-473.13
-500.70
-520.02
-529.53
-527.82
-514.17
-488.48
-451.80
-405.81
-352.58
-294.37
-233.41
-171.85
-111.76
-54.95
-2.56
44.72
86.92
124.48
157.83
187.07
211.70
230.71
242.99
248.12
246.45
239.19
227.90
213.46
196.10
175.14
149.41
117.91
80.57
37.91
-9.08
-58.08
-105.79
-147.40
-177.30
-191.00
-188.42
-173.10
-151.86
-132.02
-118.14
-110.10
-103.54
-92.71
-73.24
-45.10
-11.59
22.66
54.29
82.14
106.53
127.85
145.50
158.06
164.27
163.90
158.22
149.66
140.82
133.56
128.44
124.78
121.20
116.29
109.42
100.89
91.68
82.86
74.99
67.88
60.52
51.64
40.14
25.62
8.25
-11.13
-31.34
-51.17
-69.57
-85.80
-99.14
-108.91
-114.44
-115.11
-110.52
-100.70
-86.21
-67.72
-46.94
-25.68
-5.49
12.42
27.35
39.02
47.52
53.17
56.46
57.85
57.92
57.20
56.14
55.03
53.98
53.02
52.06
50.94
49.49
47.46
44.62
40.82
35.98
30.12
23.31
15.71
7.56
-0.91
-9.45
-17.85
-25.87
-33.42
-40.49
-47.15
-53.49
-59.55
-65.30
-70.55
-74.98
-78.09
-79.30
-78.14
-74.29
-67.65
-58.39
-46.90
-33.56
-19.46
-5.61
7.13
18.14
27.05
33.73
38.29
40.95
42.07
42.05
41.30
40.17
38.90
37.69
36.62
35.71
34.95
34.33
33.78
33.41
33.19
33.11
33.16
33.38
33.71
34.16
34.70
35.30
35.99
36.77
37.69
38.74
39.93
41.22
42.53
43.71
44.59
44.93
44.42
42.71
39.44
34.35
27.21
17.92
6.45
-6.94
-21.86
-37.73
-53.87
-69.53
-83.99
-96.59
-106.81
-114.37
-119.13
-121.15
-120.63
-117.97
-113.56
-107.84
-101.27
-94.13
-86.63
-78.69
-70.11
-60.66
-50.14
-38.48
-25.82
-12.46
1.39
14.67
26.63
36.80
45.00
51.30
55.88
59.02
60.87
61.57
61.09
59.60
57.42
54.97
52.79
51.34
50.78
50.86
51.05
50.61
49.14
46.69
43.85
41.50
40.44
41.05
42.95
45.31
46.87
46.74
44.82
41.76
38.63
36.18
34.64
33.29
30.83
25.84
17.18
4.18
-13.40
-34.97
-58.69
-80.93
-96.90
-102.14
-93.99
-74.80
-50.17
-27.12
-11.14
-4.14
-4.15
-7.21
-9.87
-10.69
-10.55
-10.98
-12.95
-15.99
-18.59
-19.29
-17.49
-13.92
-10.01
-7.68
-7.93
-10.82
-15.33
-19.87
-22.78
-23.05
-20.77
-17.09
-13.84
-12.52
-13.81
-16.92
-19.97
-20.76
-17.38
-9.20
3.28
18.93
36.78
55.60
73.17
85.91
89.92
83.00
66.58
46.02
28.59
19.99
21.41
29.09
36.66
38.47
32.89
22.36
11.31
3.04
-1.84
-5.02
-8.50
-13.01
-17.52
-20.14
-19.65
-16.28
-11.39
-7.13
-5.14
-5.89
-8.62
-11.74
-13.61
-13.34
-11.07
-7.80
-4.96
-3.56
-3.91
-5.52
-7.41
-8.63
-8.66
-7.58
-6.00
-4.67
-4.16
-4.61
-5.79
-7.21
-8.44
-9.25
-9.70
-10.06
-10.69
-11.83
-13.55
-15.75
-18.26
-20.85
-23.47
-26.10
-28.87
-31.93
-35.39
-39.33
-43.71
-48.47
-53.46
-58.59
-63.87
-69.36
-75.24
-81.66
-88.74
-96.48
-104.73
-113.07
-121.16
-128.69
-135.35
-140.81
-144.68
-146.40
-145.16
-139.99
-129.69
-113.73
-92.06
-65.38
-35.13
-3.32
28.10
57.72
84.94
110.06
133.48
155.30
175.09
191.85
204.33
211.69
214.01
211.11
205.12
199.60
195.46
191.80
186.39
176.88
161.74
141.33
118.00
95.55
77.80
67.80
67.19
75.71
90.96
108.24
121.30
123.97
112.66
86.45
50.66
13.80
-16.20
-35.23
-44.34
-48.56
-54.18
-65.46
-82.58
-101.90
-117.69
-124.60
-119.88
-104.64
-83.38
-62.08
-46.58
-39.69
-40.67
-46.62
-54.55
-62.84
-71.39
-80.54
-89.86
-97.75
-102.05
-101.43
-96.39
-89.08
-82.06
-77.15
-74.42
-72.32
-68.59
-61.33
-50.09
-35.51
-19.24
-3.07
11.78
24.95
36.80
48.15
60.04
73.27
87.89
102.53
114.35
119.64
115.26
100.18
76.31
47.93
20.05
-3.51
-21.21
-33.41
-40.97
-43.90
-41.20
-32.07
-17.53
-1.17
11.74
16.50
11.23
-2.07
-18.50
-32.47
-39.75
-39.18
-32.45
-22.67
-12.59
-3.65
3.97
10.60
16.23
20.25
21.70
19.98
15.27
8.65
1.70
-4.11
-7.89
-9.52
-9.49
-8.59
-7.44
-6.27
-4.87
-2.89
-0.11
3.33
6.99
10.22
12.46
13.40
13.16
12.13
10.82
9.60
8.67
7.99
7.40
6.76
5.96
5.03
4.07
3.25
2.58
2.08
1.70
1.43
1.26
1.16
1.09
1.01
0.82
0.46
-0.06
-0.61
-1.03
-1.15
-0.90
-0.38
0.16
0.41
0.15
-0.61
-1.59
-2.36
-2.48
-1.76
-0.42
0.98
1.77
1.47
0.09
-1.80
-3.31
-3.57
-2.25
0.32
3.11
4.90
4.84
2.94
0.08
-2.28
-2.98
-1.44
1.94
5.93
9.14
10.41
8.92
4.10
-3.96
-14.00
-23.19
-27.45
-23.25
-9.29
12.18
35.72
54.83
64.69
64.08
55.06
42.31
29.74
19.05
9.87
1.23
-6.99
-13.58
-16.69
-15.30
-10.04
-3.30
2.04
3.75
1.51
-3.05
-7.12
-8.01
-4.50
2.69
10.97
17.17
19.11
16.43
10.94
5.60
3.30
5.67
12.65
22.67
33.12
40.79
42.34
35.05
17.96
-7.10
-35.43
-60.81
-77.72
-83.75
-80.48
-72.46
-64.56
-59.28
-55.59
-50.10
-39.62
-23.66
-5.30
9.92
16.34
10.29
-8.36
-36.06
-66.35
-91.67
-105.19
-103.00
-85.43
-57.02
-24.45
4.14
23.50
32.47
33.13
28.71
21.57
12.47
1.25
-11.93
-25.47
-36.53
-42.55
-42.69
-38.35
-32.54
-28.35
-27.69
-30.13
-33.22
-33.38
-27.69
-15.06
3.12
23.52
42.19
55.93
63.33
65.04
63.24
60.47
58.86
59.78
63.98
71.47
80.94
89.50
92.97
87.26
70.30
43.67
12.66
-15.76
-34.91
-41.93
-38.42
-28.88
-17.99
-8.52
-0.97
5.40
11.08
15.57
17.59
16.31
12.11
6.61
1.98
-0.06
0.89
3.86
7.02
8.55
7.57
4.40
0.44
-2.52
-3.17
-1.28
2.18
5.57
7.31
6.66
4.03
0.79
-1.35
-1.22
1.34
5.35
9.14
11.15
10.68
8.17
5.05
3.07
3.32
6.00
10.28
14.60
17.44
17.66
14.45
7.59
-2.00
-11.64
-16.77
-12.99
1.59
24.16
47.41
62.33
62.24
45.72
16.87
-16.66
-47.25
-69.49
-80.80
-80.66
-69.84
-50.33
-25.34
-0.59
18.41
28.07
28.00
20.92
10.78
1.07
-6.18
-10.50
-12.22
-11.69
-9.37
-6.01
-2.66
-0.39
0.22
-0.85
-2.87
-4.80
-5.69
-5.12
-3.33
-1.05
0.85
1.73
1.40
0.15
-1.43
-2.64
-3.03
-2.51
-1.33
-0.01
0.92
1.09
0.37
-1.04
-2.71
-4.11
-4.83
-4.67
-3.83
-2.82
-2.30
-2.83
-4.65
-7.44
-10.49
-12.90
-14.03
-13.79
-12.75
-11.97
-12.55
-15.12
-19.42
-24.45
-28.80
-31.35
-31.80
-30.92
-30.23
-31.22
-34.82
-40.77
-47.77
-53.98
-57.42
-56.30
-49.24
-35.76
-17.00
3.64
21.05
29.81
26.53
11.85
-9.18
-28.94
-40.34
-39.80
-28.48
-10.91
7.67
23.74
36.25
45.90
53.42
58.63
60.68
58.92
53.74
46.70
39.87
35.12
33.09
33.20
33.96
33.75
31.56
27.45
22.35
17.61
14.35
12.97
13.06
13.66
13.75
12.70
10.50
7.69
5.03
3.15
2.30
2.28
2.59
2.73
2.36
1.47
0.29
-0.85
-1.66
-2.04
-2.06
-1.89
-1.74
-1.72
-1.86
-2.10
-2.37
-2.58
-2.71
-2.75
-2.73
-2.68
-2.63
-2.55
-2.48
-2.39
-2.31
-2.23
-2.15
-2.08
-2.00
-1.94
-1.88
-1.82
-1.76
-1.70
-1.65
-1.60
-1.55
-1.50
-1.45
-1.41
-1.37
-1.33
-1.29
-1.25
-1.22
-1.18
-1.15
-1.12
-1.08
-1.06
-1.03
-0.99
-0.97
-0.95
-0.92
-0.91
-0.88
-0.85
-0.81
-0.77
-0.74
-0.74
-0.78
-0.85
-0.93
-0.98
-1.01
-1.02
-1.03
-1.07
-1.18
-1.32
-1.46
-1.58
-1.64
-1.63
-1.59
-1.56
-1.59
-1.72
-1.95
-2.24
-2.51
-2.69
-2.71
-2.64
-2.57
-2.64
-2.99
-3.62
-4.39
-5.07
-5.45
-5.44
-5.15
-4.86
-4.96
-5.70
-7.05
-8.70
-10.15
-11.01
-11.16
-10.87
-10.72
-11.36
-13.13
-15.86
-18.91
-21.42
-22.78
-22.86
-22.38
-22.25
-23.21
-25.46
-28.55
-31.63
-34.33
-36.93
-39.68
-41.98
-42.23
-38.75
-31.02
-20.37
-9.17
0.79
9.68
19.54
32.58
49.15
66.67
80.82
88.05
87.93
83.46
79.21
78.50
81.62
86.02
88.34
86.65
81.49
75.26
70.78
69.88
72.50
77.05
81.52
83.96
82.59
75.26
60.31
36.79
5.55
-30.53
-67.04
-99.41
-124.73
-142.55
-155.36
-165.86
-174.76
-179.59
-175.79
-159.42
-130.34
-91.96
-51.45
-16.25
9.14
24.62
33.64
40.74
48.71
57.39
64.47
67.33
65.07
59.07
52.22
47.05
44.46
43.43
41.87
37.96
30.83
21.77
12.32
3.48
-4.83
-13.64
-23.98
-35.63
-46.72
-54.76
-57.61
-54.84
-47.41
-36.82
-24.02
-9.40
6.65
23.09
37.49
47.62
52.42
53.11
52.73
54.51
60.41
68.65
75.52
76.44
68.53
51.68
28.92
5.19
-14.49
-26.86
-31.66
-31.30
-29.82
-30.58
-34.98
-41.92
-48.56
-51.83
-49.61
-41.75
-29.57
-17.31
-9.78
-11.58
-25.25
-50.00
-81.22
-111.31
-133.18
-141.25
-134.40
-115.89
-92.18
-70.15
-54.71
-47.53
-46.61
-48.12
-47.72
-42.20
-30.06
-11.90
10.02
32.54
52.47
67.87
77.50
81.17
79.52
73.96
66.41
59.18
54.41
53.36
56.67
63.01
69.93
74.84
76.35
74.82
72.42
72.63
73.16
74.30
75.68
76.31
75.01
71.15
65.15
58.63
54.17
54.41
62.11
77.89
100.22
125.86
151.03
172.68
189.30
200.88
208.18
212.62
214.80
214.79
212.70
209.35
206.51
206.43
210.92
220.15
232.58
244.51
251.24
248.82
235.37
211.63
180.45
145.46
109.62
74.70
41.05
8.44
-23.21
-53.53
-82.10
-108.82
-134.19
-158.95
-183.40
-207.06
-229.00
-248.32
-265.17
-281.44
-300.49
-325.49
-357.62
-394.83
-432.19
-463.39
-482.53
-485.21
-468.68
-432.42
-378.32
-311.55
-241.07
-178.66
-135.88
-120.26
-132.51
-166.48
-213.29
-264.38
-314.19
-359.76
-398.81
-427.99
-443.06
-440.83
-420.10
-385.22
-342.20
-296.61
-251.41
-207.02
-162.54
-117.84
-74.26
-31.48
7.41
42.51
76.57
114.64
161.71
219.87
285.92
351.17
407.58
439.87
438.16
400.31
333.67
252.61
173.80
111.13
72.76
66.54
85.48
121.40
166.55
216.71
270.84
329.56
392.68
436.27
484.73
527.55
555.21
560.92
544.16
509.80
465.47
417.81
348.56
267.19
189.51
129.71
90.12
67.80
59.51
62.04
69.12
75.84
84.77
91.49
93.54
90.24
82.93
72.09
62.01
52.39
41.37
31.07
18.25
0.68
-21.96
-47.43
-72.52
-94.77
-114.25
-132.30
-148.62
-166.00
-186.55
-210.57
-236.05
-260.10
-280.33
-296.50
-309.85
-321.60
-334.75
-352.19
-375.90
-406.43
-442.27
-479.38
-511.38
-530.93
-532.22
-514.22
-481.34
-442.26
-406.90
-382.53
-371.06
-368.29
-366.75
-359.32
-341.60
-312.27
-272.58
-225.63
-174.90
-123.48
-72.75
-23.84
21.69
62.40
97.90
128.92
156.19
180.19
200.76
218.63
233.68
244.81
245.73
230.44
201.19
166.39
138.04
116.95
103.33
97.94
97.73
101.45
108.93
120.50
135.74
153.38
171.57
190.02
208.64
227.11
245.73
265.51
287.86
313.36
341.35
369.72
396.50
419.14
434.91
442.14
440.55
431.13
415.27
394.35
369.59
342.88
316.05
290.41
266.83
245.43
225.53
205.65
184.09
159.54
132.03
102.48
72.29
42.88
14.99
-11.63
-38.15
-66.00
-96.02
-127.72
-159.50
-189.18
-214.98
-236.34
-254.29
-271.28
-290.77
-316.29
-350.28
-392.67
-439.77
-484.13
-515.96
-525.95
-508.58
-464.59
-401.39
-330.85
-265.55
-214.93
-183.16
-169.35
-169.51
-179.06
-194.24
-212.16
-230.11
-244.97
-253.41
-252.99
-243.06
-225.23
-202.81
-179.30
-157.00
-136.17
-115.30
-92.16
-65.28
-34.90
-2.99
27.68
55.07
79.18
102.40
128.82
162.75
207.02
261.85
324.41
389.52
451.09
503.76
544.17
571.49
587.10
593.75
594.31
590.74
583.36
570.92
551.12
521.59
481.04
430.30
372.83
314.18
260.35
215.67
181.15
154.08
129.38
102.13
69.55
31.82
-8.72
-49.24
-87.97
-124.97
-161.92
-201.20
-245.22
-295.88
-354.14
-419.14
-487.38
-552.44
-606.02
-640.18
-650.02
-635.33
-600.45
-552.22
-497.08
-439.00
-378.86
-315.37
-246.60
-171.59
-91.32
-9.04
70.28
141.02
198.62
241.07
269.65
288.30
301.82
313.90
325.80
336.53
344.07
346.96
345.15
339.70
331.75
321.51
307.95
289.37
264.42
233.07
196.94
158.95
122.07
88.20
57.49
28.44
-1.12
-33.03
-68.00
-105.42
-143.64
-180.47
-213.41
-239.85
-257.17
-263.07
-256.12
-236.30
-205.44
-167.06
-125.76
-86.36
-52.90
-27.89
-11.87
-3.43
0.23
2.32
5.39
10.57
17.39
24.29
29.53
32.04
31.62
28.84
24.41
18.76
11.92
3.73
-5.82
-16.50
-28.00
-40.17
-53.21
-67.38
-82.62
-98.29
-113.09
-125.47
-134.18
-138.62
-139.07
-136.39
-131.59
-125.42
-118.08
-109.32
-98.69
-86.02
-71.62
-56.32
-41.28
-27.57
-15.90
-6.42
1.00
6.63
10.62
12.98
13.66
12.79
10.85
8.71
7.56
8.72
13.38
22.17
34.92
50.25
65.67
78.00
84.10
81.78
70.33
50.71
25.32
-2.45
-29.00
-51.00
-66.08
-73.27
-73.28
-68.44
-62.26
-58.69
-60.94
-70.81
-88.11
-110.97
-136.58
-162.13
-185.63
-206.08
-223.12
-236.26
-244.58
-246.91
-242.96
-234.31
-224.66
-218.61
-219.57
-227.72
-239.38
-248.25
-247.92
-234.58
-208.29
-172.54
-132.36
-92.14
-54.29
-19.10
14.34
47.16
80.17
114.18
150.72
192.05
240.17
294.82
351.74
402.45
436.43
444.98
425.02
380.71
322.01
260.93
207.26
166.13
137.92
120.17
109.74
103.95
100.39
96.29
88.40
74.04
52.45
26.46
2.41
-12.05
-11.34
5.82
35.93
72.18
107.03
134.25
150.81
156.82
154.11
144.66
129.90
111.09
89.76
67.95
47.04
28.73
15.41
9.61
13.20
27.04
51.05
84.06
123.94
165.19
203.30
236.68
265.30
288.25
303.70
310.24
308.02
299.02
280.80
253.40
221.69
191.81
166.41
144.65
124.65
105.07
85.40
56.74
14.18
-37.66
-89.66
-136.12
-176.06
-210.77
-242.09
-271.69
-312.59
-372.46
-446.27
-522.75
-594.94
-661.88
-725.56
-788.32
-777.76
-664.95
-492.21
-325.93
-198.00
-107.88
-44.53
2.12
38.69
69.11
84.16
79.21
61.80
44.93
36.47
37.39
45.15
56.68
69.44
72.75
60.40
36.47
11.05
-7.37
-13.49
-4.41
20.14
56.77
93.19
118.32
128.73
127.81
120.80
112.40
105.68
101.63
99.34
94.60
85.17
72.90
61.85
54.62
51.30
50.24
49.41
47.19
42.19
34.57
26.11
19.02
14.42
12.08
10.88
9.52
7.07
3.34
-1.17
-5.68
-9.43
-12.09
-13.83
-15.17
-16.71
-18.90
-21.84
-25.24
-28.70
-31.77
-34.12
-35.54
-35.90
-35.11
-33.10
-29.81
-25.27
-19.58
-12.88
-5.37
2.79
11.46
20.32
28.94
36.68
42.84
46.84
48.50
48.22
47.09
46.50
47.60
50.87
55.92
61.59
66.32
68.85
68.82
66.81
64.08
61.65
59.75
57.61
53.55
46.00
34.11
18.68
1.49
-13.83
-24.18
-27.37
-22.58
-10.70
5.60
21.73
32.56
33.98
24.69
6.86
-14.27
-32.54
-42.37
-41.90
-33.23
-20.69
-8.43
1.22
7.98
12.74
16.17
17.90
16.29
9.11
-5.23
-26.14
-50.11
-70.98
-81.87
-77.85
-58.41
-28.11
5.09
32.53
48.31
50.54
42.10
29.23
19.31
17.24
24.51
38.01
50.39
53.44
41.77
15.66
-17.54
-46.05
-59.14
-52.12
-26.60
7.99
39.86
61.77
69.38
61.87
40.56
8.42
-29.78
-67.19
-96.31
-111.05
-107.52
-91.57
-73.51
-63.63
-68.17
-87.08
-115.05
-144.68
-170.90
-189.72
-200.53
-204.74
-204.70
-203.03
-202.40
-205.42
-213.88
-226.76
-239.52
-245.19
-236.83
-210.70
-168.82
-118.04
-67.66
-25.81
3.52
21.02
31.24
39.33
48.93
61.44
76.84
94.67
115.08
139.48
162.58
181.40
192.96
194.30
183.65
162.12
133.37
102.98
76.87
59.53
53.99
60.21
76.01
98.52
126.38
158.32
191.69
221.52
241.04
245.12
232.50
207.89
181.09
164.57
165.29
180.56
198.95
206.56
195.45
167.68
134.34
109.42
104.66
121.92
153.25
186.14
210.52
223.41
228.04
230.07
218.29
185.35
129.94
58.28
-19.19
-91.98
-152.07
-194.72
-218.78
-226.77
-221.30
-205.98
-184.90
-161.89
-139.94
-121.51
-108.81
-103.28
-104.71
-108.61
-109.16
-101.89
-85.98
-64.82
-44.98
-33.26
-33.81
-46.64
-67.82
-91.00
-110.54
-123.45
-127.99
-123.98
-112.60
-95.92
-76.13
-54.50
-32.44
-11.91
5.10
17.21
24.08
26.80
27.26
27.50
29.11
32.48
37.11
41.97
46.11
48.89
50.14
50.17
49.52
48.76
48.08
47.64
47.31
46.69
45.04
41.47
35.33
26.44
14.96
1.45
-12.92
-27.30
-41.23
-54.86
-68.58
-82.58
-96.74
-108.95
-120.36
-131.90
-143.49
-153.12
-156.62
-149.14
-127.54
-92.61
-49.74
-7.49
26.33
47.26
55.47
54.89
50.51
46.14
43.27
41.64
40.41
39.98
41.79
46.78
53.58
57.89
54.19
38.85
13.32
-15.76
-39.25
-50.51
-48.85
-39.57
-30.28
-26.06
-26.54
-26.88
-21.72
-9.13
7.90
23.39
31.92
32.01
25.93
18.11
12.33
10.24
11.27
13.90
17.17
21.15
26.14
31.48
35.00
33.50
24.33
7.23
-14.96
-37.06
-53.55
-61.00
-59.03
-49.92
-37.50
-25.49
-16.94
-14.13
-18.54
-30.68
-50.18
-75.32
-103.06
-129.30
-149.26
-157.95
-151.45
-128.23
-90.06
-42.40
7.47
52.53
88.61
115.44
135.56
151.79
163.47
168.29
159.98
133.20
87.57
29.94
-27.19
-69.87
-88.19
-80.15
-51.74
-13.62
24.50
57.32
83.65
103.06
112.41
105.29
75.40
22.05
-46.89
-115.25
-164.32
-181.03
-163.74
-123.15
-77.52
-45.35
-38.47
-59.98
-105.02
-164.61
-229.24
-290.77
-342.53
-379.01
-396.19
-389.97
-361.16
-315.26
-260.81
-206.60
-158.84
-119.57
-87.34
-59.01
-31.67
-4.22
23.22
49.92
75.43
100.03
124.93
152.03
183.01
217.99
253.99
285.13
303.81
303.20
280.04
236.37
179.34
119.04
65.28
24.57
-1.03
-13.49
-17.24
-17.22
-17.45
-20.33
-26.43
-34.72
-43.04
-48.49
-48.22
-40.21
-24.11
-1.73
23.41
47.26
66.97
82.12
94.68
107.85
124.01
143.21
163.03
179.72
190.14
193.19
190.05
183.11
174.46
164.93
154.06
141.08
126.02
110.18
95.76
84.96
79.02
77.73
79.72
83.22
86.80
89.83
92.50
95.38
99.18
104.45
111.69
121.35
133.52
147.54
161.62
172.84
177.86
173.84
159.18
133.80
98.75
55.90
7.82
-42.12
-89.61
-129.89
-158.95
-174.81
-178.40
-173.24
-164.08
-155.03
-148.19
-143.38
-138.94
-132.89
-123.90
-111.54
-96.03
-77.87
-57.60
-35.93
-13.78
7.80
27.88
46.04
62.64
78.72
95.40
113.29
132.11
150.73
167.74
182.19
194.04
204.15
213.86
224.33
236.11
248.83
261.43
272.32
279.71
281.92
277.70
266.50
248.67
225.34
198.06
168.34
137.22
105.06
71.70
36.86
0.81
-35.18
-68.98
-98.41
-122.14
-140.29
-153.96
-164.38
-171.82
-175.41
-174.03
-167.54
-157.63
-147.46
-140.40
-138.49
-141.68
-148.23
-155.79
-162.48
-167.28
-169.95
-170.69
-170.22
-169.93
-171.79
-177.72
-188.28
-201.53
-212.80
-216.01
-206.16
-182.06
-147.55
-110.57
-79.95
-61.57
-55.75
-57.54
-59.59
-56.07
-45.33
-29.90
-14.13
-1.33
7.72
14.03
18.37
19.81
15.99
5.01
-12.56
-32.99
-50.84
-61.46
-63.26
-58.12
-50.15
-43.44
-40.29
-40.70
-43.06
-45.38
-46.32
-45.51
-43.33
-40.45
-37.54
-35.15
-33.63
-33.22
-33.96
-35.71
-38.13
-40.63
-42.41
-42.66
-40.69
-36.19
-29.36
-20.87
-11.70
-2.91
4.69
10.61
14.71
17.18
18.32
18.48
18.02
17.25
16.38
15.56
14.85
14.34
14.09
14.17
14.55
15.13
15.72
16.12
16.16
15.73
14.86
13.61
12.11
10.49
8.84
7.18
5.50
3.79
2.05
0.31
-1.40
-3.08
-4.78
-6.55
-8.43
-10.42
-12.41
-14.28
-15.91
-17.19
-18.12
-18.77
-19.34
-20.12
-21.47
-23.66
-26.69
-30.17
-33.37
-35.36
-35.39
-33.03
-28.37
-21.94
-14.56
-7.04
-0.10
5.80
10.44
13.76
15.81
16.69
16.51
15.45
13.78
11.86
10.11
8.89
8.44
8.76
9.69
10.95
12.27
13.35
14.02
14.14
13.72
12.83
11.60
10.09
8.21
5.81
2.74
-0.94
-4.85
-8.35
-10.75
-11.61
-10.92
-9.19
-7.25
-6.01
-6.15
-7.89
-11.02
-14.97
-18.96
-22.32
-24.62
-25.74
-25.87
-25.46
-25.05
-25.24
-26.53
-29.12
-32.79
-36.78
-39.91
-40.98
-39.15
-34.28
-26.99
-18.40
-9.68
-1.72
5.02
10.44
14.58
17.54
19.46
20.65
21.53
22.59
24.13
26.18
28.44
30.48
31.92
32.67
32.84
32.72
32.54
32.40
32.24
31.88
31.12
29.81
27.90
25.46
22.72
20.03
17.78
16.32
15.70
15.71
15.84
15.47
14.06
11.37
7.51
2.87
-2.12
-7.04
-11.57
-15.54
-18.90
-21.76
-24.39
-27.16
-30.48
-34.69
-39.84
-45.59
-51.14
-55.31
-56.83
-54.81
-49.13
-40.60
-30.74
-21.26
-13.47
-7.84
-4.04
-1.26
1.27
4.01
7.06
10.34
13.77
17.35
21.07
24.79
28.16
30.78
32.40
33.09
33.23
33.34
33.83
34.78
35.94
36.86
37.10
36.49
35.18
33.57
32.14
31.23
30.94
31.09
31.30
31.07
29.93
27.53
23.71
18.69
12.95
7.20
2.15
-1.76
-4.46
-6.24
-7.61
-8.97
-10.51
-12.22
-14.07
-16.16
-18.86
-22.65
-27.89
-34.55
-42.12
-49.69
-56.28
-61.09
-63.62
-63.69
-61.34
-56.71
-50.12
-42.12
-33.51
-25.35
-18.66
-14.21
-12.23
-12.45
-14.20
-16.70
-19.29
-21.59
-23.56
-25.39
-27.41
-29.85
-32.83
-36.27
-40.04
-44.14
-48.77
-54.21
-60.62
-67.82
-75.17
-81.99
-87.88
-92.98
-97.76
-102.49
-106.92
-110.18
-111.18
-109.11
-103.76
-95.32
-83.82
-68.56
-47.97
-19.99
16.89
62.44
114.14
167.26
215.86
254.03
277.10
282.27
268.69
237.44
191.55
136.11
78.17
25.86
-13.38
-34.99
-38.76
-28.81
-11.85
5.39
18.48
26.09
29.29
30.02
29.77
28.95
27.27
24.53
21.15
18.33
17.47
19.47
24.35
31.14
38.44
45.21
51.28
57.27
64.09
72.22
81.42
90.88
99.61
106.82
111.85
113.89
111.95
105.18
93.59
78.59
62.85
49.34
40.10
35.33
33.41
31.84
28.45
22.38
14.21
5.46
-2.25
-7.94
-11.56
-13.96
-16.43
-20.14
-25.82
-33.59
-42.96
-52.85
-61.37
-65.59
-61.74
-46.18
-17.01
24.22
72.14
118.56
155.13
176.16
180.39
170.77
152.36
129.55
104.42
77.26
48.52
20.81
-0.77
-10.63
-5.76
11.95
35.91
57.40
69.48
69.66
60.39
46.90
34.14
24.49
17.44
10.88
3.00
-6.67
-17.39
-28.11
-38.32
-48.26
-58.45
-68.91
-78.73
-86.29
-90.06
-89.47
-85.56
-80.82
-78.48
-81.33
-90.61
-105.54
-123.61
-141.46
-156.13
-165.97
-170.91
-172.05
-170.78
-167.99
-163.74
-157.63
-149.32
-139.20
-128.41
-118.53
-110.89
-106.07
-103.66
-102.55
-101.34
-98.86
-94.43
-87.89
-79.41
-69.24
-57.69
-45.02
-31.69
-18.38
-5.96
4.69
12.99
18.86
22.73
25.36
27.54
29.77
32.19
34.64
36.87
38.72
40.27
41.75
43.44
45.43
47.62
49.70
51.29
52.10
52.03
51.18
49.75
47.95
45.89
43.63
41.16
38.52
35.79
33.09
30.53
28.15
25.94
23.84
21.84
19.90
18.01
16.10
14.07
11.75
9.03
5.87
2.36
-1.30
-4.92
-8.38
-11.76
-15.28
-19.21
-23.80
-29.06
-34.71
-40.16
-44.66
-47.45
-47.94
-45.89
-41.37
-34.80
-26.74
-17.90
-8.95
-0.50
7.02
13.38
18.50
22.47
25.41
27.44
28.72
29.39
29.66
29.83
30.15
30.80
31.82
33.09
34.45
35.71
36.73
37.42
37.73
37.66
37.23
36.46
35.38
34.02
32.42
30.65
28.81
27.02
25.35
23.77
22.17
20.37
18.24
15.81
13.24
10.75
8.51
6.51
4.55
2.38
-0.21
-3.26
-6.62
-10.07
-13.38
-16.42
-19.24
-22.02
-25.09
-28.80
-33.44
-39.06
-45.35
-51.63
-56.94
-60.29
-60.92
-58.40
-52.82
-44.62
-34.54
-23.54
-12.58
-2.46
6.26
13.40
19.06
23.50
27.01
29.75
31.85
33.42
34.65
35.79
37.04
38.51
40.11
41.67
43.00
43.99
44.66
45.04
45.20
45.12
44.76
44.05
42.98
41.55
39.84
37.90
35.78
33.53
31.15
28.68
26.14
23.59
21.12
18.85
16.89
15.30
14.01
12.87
11.67
10.19
8.34
6.13
3.68
1.12
-1.46
-3.99
-6.51
-9.04
-11.62
-14.27
-17.06
-20.07
-23.47
-27.45
-32.14
-37.60
-43.60
-49.65
-54.92
-58.46
-59.35
-57.01
-51.37
-42.87
-32.41
-21.04
-9.83
0.36
8.98
15.77
20.74
24.10
26.11
27.05
27.18
26.71
25.90
25.04
24.46
24.45
25.14
26.43
28.04
29.60
30.81
31.53
31.82
31.76
31.42
30.79
29.80
28.44
26.74
24.84
22.86
20.91
18.97
16.97
14.84
12.52
10.03
7.44
4.88
2.49
0.42
-1.26
-2.62
-3.86
-5.24
-6.95
-9.06
-11.43
-13.87
-16.15
-18.19
-20.11
-22.14
-24.55
-27.58
-31.23
-35.30
-39.24
-42.33
-43.77
-42.88
-39.34
-33.29
-25.30
-16.23
-6.99
1.67
9.21
15.33
19.93
22.99
24.62
25.04
24.58
23.59
22.40
21.27
20.33
19.66
19.30
19.29
19.66
20.33
21.14
21.89
22.38
22.49
22.19
21.51
20.48
19.13
17.48
15.58
13.47
11.23
8.94
6.64
4.31
1.97
-0.40
-2.79
-5.24
-7.79
-10.53
-13.51
-16.72
-20.05
-23.35
-26.51
-29.51
-32.47
-35.63
-39.27
-43.54
-48.30
-53.09
-57.05
-59.19
-58.66
-54.99
-48.32
-39.31
-28.95
-18.28
-8.12
1.00
8.80
15.16
20.10
23.68
26.08
27.54
28.32
28.66
28.70
28.54
28.26
27.96
27.77
27.77
28.00
28.42
28.91
29.35
29.60
29.57
29.16
28.28
26.89
25.06
22.98
20.87
18.96
17.34
15.94
14.55
12.93
10.92
8.55
6.02
3.58
1.36
-0.66
-2.65
-4.82
-7.27
-9.98
-12.79
-15.55
-18.15
-20.61
-23.01
-25.51
-28.29
-31.57
-35.51
-40.10
-45.06
-49.72
-53.14
-54.35
-52.65
-47.85
-40.26
-30.69
-20.14
-9.62
0.03
8.26
14.79
19.60
22.85
24.78
25.68
25.84
25.53
25.03
24.56
24.25
24.12
24.12
24.22
24.41
24.76
25.35
26.21
27.22
28.12
28.65
28.60
27.87
26.53
24.72
22.65
20.53
18.49
16.57
14.72
12.79
10.67
8.34
5.87
3.42
1.19
-0.73
-2.37
-3.82
-5.22
-6.65
-8.21
-9.94
-11.87
-14.03
-16.40
-18.93
-21.56
-24.27
-27.16
-30.40
-34.21
-38.72
-43.76
-48.86
-53.23
-55.94
-56.18
-53.45
-47.74
-39.57
-29.83
-19.59
-9.81
-1.16
6.02
11.70
15.98
18.98
20.82
21.56
21.36
20.50
19.34
18.30
17.70
17.69
18.21
19.08
20.09
21.08
21.96
22.68
23.22
23.50
23.46
23.04
22.24
21.09
19.65
17.95
16.00
13.81
11.40
8.86
6.24
3.60
0.93
-1.80
-4.65
-7.63
-10.70
-13.79
-16.79
-19.59
-22.13
-24.39
-26.48
-28.65
-31.26
-34.61
-38.87
-43.84
-48.89
-53.06
-55.26
-54.60
-50.69
-43.75
-34.55
-24.17
-13.67
-3.88
4.67
11.72
17.17
21.04
23.43
24.57
24.83
24.65
24.48
24.58
25.04
25.80
26.69
27.57
28.36
29.06
29.65
30.08
30.24
29.98
29.18
27.81
25.93
23.72
21.36
19.02
16.77
14.57
12.38
10.16
7.94
5.77
3.70
1.69
-0.38
-2.61
-5.08
-7.75
-10.50
-13.22
-15.82
-18.29
-20.67
-22.97
-25.25
-27.59
-30.21
-33.41
-37.51
-42.60
-48.41
-54.26
-59.09
-61.75
-61.29
-57.29
-49.97
-40.15
-28.99
-17.73
-7.35
1.53
8.68
14.20
18.30
21.27
23.40
24.94
26.07
26.93
27.61
28.17
28.70
29.25
29.89
30.62
31.39
32.11
32.71
33.11
33.21
32.92
32.11
30.72
28.82
26.64
24.46
22.52
20.92
19.51
18.11
16.51
14.66
12.67
10.64
8.66
6.71
4.72
2.62
0.43
-1.81
-4.03
-6.24
-8.52
-10.97
-13.68
-16.59
-19.59
-22.47
-25.17
-27.66
-30.12
-32.82
-35.99
-39.81
-44.27
-49.09
-53.74
-57.48
-59.47
-59.00
-55.69
-49.52
-40.95
-30.78
-19.98
-9.47
-0.01
7.94
14.18
18.77
21.87
23.73
24.64
24.86
24.68
24.34
24.06
23.94
24.04
24.36
24.82
25.45
26.24
27.21
28.29
29.34
30.13
30.42
30.04
28.97
27.37
25.45
23.42
21.40
19.37
17.27
15.02
12.66
10.27
8.01
5.90
3.92
1.89
-0.40
-3.12
-6.33
-9.90
-13.61
-17.23
-20.57
-23.58
-26.36
-29.11
-32.09
-35.55
-39.64
-44.33
-49.33
-54.08
-57.70
-59.27
-57.98
-53.44
-45.85
-35.95
-24.86
-13.74
-3.55
5.17
12.21
17.68
21.75
24.59
26.33
27.11
27.17
26.84
26.46
26.29
26.45
26.86
27.35
27.77
28.05
28.25
28.47
28.79
29.14
29.33
29.10
28.25
26.76
24.80
22.68
20.66
18.86
17.22
15.56
13.73
11.67
9.48
7.28
5.18
3.20
1.29
-0.58
-2.39
-4.12
-5.81
-7.59
-9.69
-12.30
-15.43
-18.92
-22.49
-25.86
-28.90
-31.71
-34.61
-37.95
-42.05
-46.98
-52.40
-57.60
-61.55
-63.14
-61.55
-56.44
-48.18
-37.67
-26.15
-14.80
-4.50
4.30
11.50
17.23
21.70
25.04
27.38
28.82
29.51
29.64
29.48
29.24
29.08
29.07
29.21
29.48
29.85
30.33
30.88
31.45
31.91
32.10
31.87
31.08
29.74
27.93
25.83
23.61
21.40
19.27
17.20
15.15
13.09
11.06
9.07
7.15
5.30
3.51
1.74
-0.06
-1.95
-3.99
-6.18
-8.49
-10.86
-13.20
-15.50
-17.74
-19.98
-22.27
-24.60
-26.93
-29.20
-31.45
-33.86
-36.78
-40.47
-44.99
-49.95
-54.51
-57.57
-58.06
-55.33
-49.28
-40.46
-29.81
-18.48
-7.53
2.25
10.35
16.59
21.03
23.88
25.41
25.91
25.66
25.00
24.24
23.70
23.58
23.90
24.56
25.36
26.15
26.91
27.69
28.51
29.30
29.84
29.85
29.10
27.54
25.32
22.75
20.13
17.67
15.37
13.14
10.87
8.47
6.05
3.74
1.69
-0.06
-1.60
-3.10
-4.78
-6.79
-9.15
-11.77
-14.47
-17.04
-19.36
-21.39
-23.27
-25.29
-27.79
-31.14
-35.53
-40.89
-46.79
-52.44
-56.80
-58.83
-57.71
-53.13
-45.36
-35.22
-23.83
-12.34
-1.66
7.60
15.19
21.12
25.52
28.57
30.46
31.38
31.59
31.34
30.94
30.62
30.53
30.68
30.99
31.37
31.77
32.24
32.83
33.54
34.24
34.67
34.55
33.70
32.08
29.83
27.16
24.32
21.50
18.85
16.45
14.33
12.48
10.78
9.10
7.23
5.03
2.44
-0.42
-3.34
-6.06
-8.41
-10.43
-12.34
-14.41
-16.84
-19.66
-22.69
-25.74
-28.64
-31.44
-34.31
-37.49
-41.18
-45.46
-50.30
-55.46
-60.45
-64.51
-66.66
-65.98
-61.93
-54.60
-44.71
-33.39
-21.86
-11.05
-1.50
6.58
13.18
18.29
21.92
24.13
25.11
25.20
24.83
24.35
23.98
23.75
23.59
23.45
23.35
23.39
23.75
24.52
25.64
26.88
27.88
28.33
28.08
27.17
25.78
24.17
22.52
20.94
19.45
18.01
16.55
15.01
13.26
11.23
8.90
6.41
3.97
1.87
0.21
-1.07
-2.26
-3.69
-5.57
-7.93
-10.59
-13.27
-15.74
-17.92
-19.93
-21.99
-24.38
-27.36
-31.07
-35.53
-40.50
-45.50
-49.70
-52.12
-51.82
-48.19
-41.24
-31.62
-20.51
-9.30
0.80
9.03
15.19
19.50
22.36
24.12
25.00
25.10
24.52
23.46
22.25
21.25
20.77
20.88
21.47
22.32
23.18
23.96
24.64
25.29
25.83
26.07
25.75
24.65
22.82
20.49
18.09
16.00
14.42
13.32
12.45
11.49
10.18
8.41
6.23
3.81
1.34
-0.98
-3.04
-4.85
-6.52
-8.24
-10.20
-12.48
-15.09
-17.95
-20.89
-23.83
-26.70
-29.57
-32.59
-35.96
-39.84
-44.23
-48.87
-53.13
-56.11
-56.82
-54.47
-48.78
-40.13
-29.45
-17.99
-6.94
2.84
10.97
17.40
22.27
25.71
27.82
28.71
28.60
27.81
26.77
25.83
25.19
24.86
24.77
24.82
25.04
25.51
26.30
27.38
28.57
29.58
30.15
30.09
29.35
27.99
26.17
24.08
21.90
19.76
17.70
15.68
13.59
11.31
8.81
6.13
3.45
0.99
-1.09
-2.72
-3.96
-5.06
-6.32
-8.03
-10.38
-13.35
-16.75
-20.31
-23.70
-26.71
-29.26
-31.48
-33.64
-36.16
-39.44
-43.75
-48.98
-54.58
-59.58
-62.83
-63.31
-60.46
-54.32
-45.52
-35.06
-24.00
-13.29
-3.62
4.57
11.07
15.88
19.18
21.29
22.58
23.39
23.98
24.45
24.92
25.47
26.32
27.69
29.78
32.69
36.34
40.53
44.92
49.25
53.27
56.86
60.02
62.87
65.63
68.54
71.88
75.76
80.11
84.53
88.40
91.01
91.92
91.30
90.02
89.60
91.56
96.87
105.39
115.90
126.46
135.07
140.23
141.11
137.38
128.88
115.57
97.65
75.90
51.79
27.29
4.44
-15.27
-31.16
-43.31
-52.23
-58.47
-62.40
-64.30
-64.49
-63.48
-61.82
-60.02
-58.29
-56.58
-54.69
-52.45
-49.79
-46.78
-43.43
-39.76
-35.77
-31.60
-27.61
-24.28
-22.00
-20.84
-20.47
-20.30
-19.79
-18.72
-17.24
-15.72
-14.47
-13.57
-12.83
-11.99
-10.85
-9.53
-8.29
-7.48
-7.31
-7.81
-8.82
-10.15
-11.66
-13.26
-14.85
-16.32
-17.53
-18.39
-18.96
-19.50
-20.34
-21.70
-23.51
-25.38
-26.86
-27.72
-28.13
-28.66
-29.93
-32.28
-35.49
-38.90
-41.68
-43.17
-43.14
-41.77
-39.51
-36.90
-34.47
-32.72
-32.07
-32.89
-35.29
-39.10
-43.78
-48.56
-52.59
-55.19
-56.08
-55.43
-53.85
-52.18
-51.20
-51.34
-52.50
-54.15
-55.55
-56.09
-55.51
-53.92
-51.72
-49.33
-46.94
-44.45
-41.49
-37.68
-32.68
-26.36
-18.76
-10.09
-0.67
8.98
18.20
26.20
32.24
35.85
37.02
36.15
33.98
31.26
28.51
25.95
23.53
21.11
18.61
16.10
13.74
11.67
9.93
8.38
6.80
4.95
2.74
0.22
-2.42
-5.05
-7.58
-10.09
-12.70
-15.48
-18.37
-21.16
-23.52
-25.14
-25.81
-25.43
-24.08
-21.90
-19.12
-16.01
-12.82
-9.75
-6.91
-4.30
-1.86
0.47
2.69
4.68
6.26
7.26
7.64
7.58
7.40
7.49
8.13
9.42
11.23
13.34
15.54
17.71
19.70
21.32
22.26
22.12
20.57
17.49
13.03
7.50
1.28
-5.36
-12.22
-19.17
-26.01
-32.55
-38.65
-44.31
-49.67
-54.90
-60.05
-64.91
-69.08
-72.12
-73.77
-74.06
-73.31
-71.93
-70.24
-68.37
-66.28
-63.81
-60.84
-57.35
-53.40
-49.17
-44.87
-40.71
-36.82
-33.19
-29.69
-26.03
-21.90
-17.07
-11.44
-5.10
1.68
8.57
15.20
21.23
26.40
30.59
33.79
36.06
37.53
38.36
38.63
38.46
37.94
37.25
36.55
35.98
35.65
35.58
35.70
35.86
35.92
35.74
35.26
34.49
33.51
32.42
31.24
29.93
28.39
26.55
24.44
22.18
19.93
17.84
15.94
14.18
12.46
10.74
9.01
7.30
5.63
4.02
2.45
0.93
-0.53
-1.88
-3.12
-4.31
-5.51
-6.84
-8.34
-10.06
-11.97
-14.07
-16.33
-18.73
-21.24
-23.88
-26.69
-29.77
-33.15
-36.70
-40.04
-42.55
-43.50
-42.33
-38.80
-33.15
-26.05
-18.33
-10.78
-3.96
1.88
6.71
10.58
13.54
15.61
16.82
17.31
17.28
17.06
16.91
17.01
17.39
17.97
18.69
19.47
20.31
21.23
22.26
23.36
24.46
25.41
26.06
26.31
26.12
25.55
24.70
23.69
22.58
21.38
20.03
18.49
16.77
14.95
13.13
11.41
9.78
8.17
6.53
4.80
3.02
1.23
-0.49
-2.17
-3.85
-5.65
-7.66
-9.94
-12.42
-14.98
-17.42
-19.60
-21.51
-23.32
-25.34
-27.95
-31.35
-35.47
-39.87
-43.85
-46.60
-47.39
-45.80
-41.74
-35.51
-27.63
-18.79
-9.65
-0.83
7.21
14.13
19.71
23.81
26.42
27.62
27.65
26.84
25.62
24.39
23.48
23.08
23.22
23.84
24.81
25.97
27.16
28.21
28.97
29.34
29.30
28.88
28.13
27.09
25.78
24.19
22.34
20.36
18.42
16.69
15.25
14.03
12.89
11.64
10.19
8.56
6.86
5.16
3.50
1.81
-0.03
-2.07
-4.35
-6.82
-9.48
-12.36
-15.55
-19.08
-22.93
-26.96
-31.04
-35.12
-39.34
-43.95
-49.19
-55.07
-61.27
-67.10
-71.66
-74.11
-73.76
-70.26
-63.62
-54.15
-42.52
-29.59
-16.44
-4.08
6.67
15.34
21.88
26.54
29.68
31.66
32.78
33.22
33.22
33.05
32.97
33.25
34.01
35.24
36.80
38.55
40.29
41.89
43.19
44.06
44.34
43.93
42.80
40.94
38.48
35.61
32.58
29.65
27.01
24.70
22.67
20.76
18.80
16.70
14.38
11.87
9.17
6.31
3.34
0.36
-2.47
-5.03
-7.27
-9.31
-11.33
-13.57
-16.13
-18.98
-22.01
-25.07
-28.13
-31.23
-34.55
-38.24
-42.47
-47.26
-52.45
-57.63
-62.06
-64.74
-64.66
-61.06
-53.74
-43.20
-30.57
-17.26
-4.55
6.69
16.05
23.47
29.00
32.66
34.48
34.55
33.20
30.99
28.59
26.59
25.39
25.12
25.70
26.96
28.70
30.68
32.65
34.31
35.41
35.82
35.51
34.60
33.21
31.47
29.39
27.01
24.36
21.54
18.70
15.99
13.49
11.22
9.15
7.21
5.36
3.53
1.63
-0.44
-2.80
-5.56
-8.77
-12.38
-16.22
-20.09
-23.76
-27.12
-30.22
-33.30
-36.75
-40.95
-46.13
-52.22
-58.70
-64.62
-68.70
-69.71
-66.72
-59.49
-48.57
-35.16
-20.76
-6.80
5.69
16.14
24.35
30.37
34.32
36.42
36.97
36.38
35.16
33.77
32.57
31.76
31.42
31.56
32.14
33.15
34.50
36.06
37.62
38.93
39.76
39.96
39.47
38.33
36.64
34.52
32.11
29.53
26.88
24.29
21.78
19.34
16.85
14.17
11.20
7.92
4.46
1.00
-2.28
-5.30
-8.11
-10.90
-13.84
-17.06
-20.52
-24.07
-27.50
-30.66
-33.52
-36.26
-39.23
-42.88
-47.53
-53.26
-59.71
-66.06
-71.10
-73.49
-72.08
-66.27
-56.22
-42.90
-27.76
-12.43
1.69
13.66
23.10
30.00
34.65
37.38
38.56
38.52
37.64
36.31
34.90
33.76
33.11
33.03
33.47
34.29
35.31
36.44
37.60
38.72
39.71
40.38
40.54
40.03
38.86
37.13
35.06
32.80
30.47
28.05
25.51
22.84
20.12
17.46
14.95
12.58
10.29
7.90
5.34
2.59
-0.25
-3.04
-5.70
-8.32
-11.09
-14.21
-17.78
-21.71
-25.74
-29.58
-33.06
-36.18
-39.18
-42.42
-46.27
-50.95
-56.45
-62.38
-67.91
-71.89
-73.06
-70.43
-63.58
-52.92
-39.54
-25.00
-10.84
1.74
12.10
20.06
25.77
29.51
31.53
32.11
31.59
30.38
29.01
27.96
27.57
27.95
29.00
30.46
32.09
33.69
35.16
36.44
37.45
38.06
38.12
37.50
36.11
33.99
31.29
28.24
25.13
22.17
19.48
16.94
14.34
11.41
8.05
4.40
0.79
-2.37
-4.84
-6.69
-8.31
-10.19
-12.72
-15.97
-19.72
-23.53
-27.03
-30.09
-32.87
-35.76
-39.20
-43.53
-48.89
-55.11
-61.66
-67.66
-71.90
-73.09
-70.21
-62.84
-51.44
-37.22
-21.86
-6.97
6.22
17.07
25.40
31.37
35.24
37.34
38.02
37.66
36.68
35.49
34.42
33.74
33.64
34.20
35.38
36.99
38.73
40.32
41.57
42.38
42.73
42.55
41.78
40.34
38.25
35.66
32.80
29.95
27.20
24.59
22.07
19.60
17.23
15.05
13.11
11.33
9.54
7.57
5.35
2.95
0.54
-1.70
-3.76
-5.75
-7.91
-10.47
-13.55
-17.10
-20.96
-24.90
-28.71
-32.27
-35.57
-38.76
-42.09
-45.92
-50.59
-56.25
-62.68
-69.07
-74.16
-76.43
-74.59
-68.00
-56.92
-42.49
-26.40
-10.43
3.94
15.78
24.74
30.96
34.83
36.86
37.54
37.29
36.47
35.43
34.46
33.85
33.76
34.17
34.93
35.78
36.48
36.97
37.30
37.64
38.04
38.40
38.48
37.98
36.76
34.88
32.61
30.27
28.12
26.21
24.46
22.67
20.69
18.53
16.25
14.02
11.95
10.08
8.32
6.57
4.71
2.70
0.55
-1.72
-4.06
-6.49
-9.03
-11.74
-14.67
-17.79
-21.04
-24.30
-27.42
-30.32
-32.96
-35.48
-38.10
-41.18
-45.04
-49.85
-55.46
-61.32
-66.43
-69.54
-69.46
-65.40
-57.29
-45.79
-32.16
-17.90
-4.36
7.49
17.14
24.45
29.55
32.67
34.11
34.19
33.31
31.84
30.18
28.68
27.60
27.08
27.16
27.73
28.64
29.69
30.71
31.61
32.35
32.91
33.24
33.22
32.72
31.63
29.95
27.81
25.42
22.99
20.61
18.28
15.95
13.55
11.10
8.59
6.06
3.54
1.05
-1.33
-3.55
-5.58
-7.56
-9.70
-12.23
-15.28
-18.79
-22.51
-26.12
-29.40
-32.32
-35.09
-38.12
-41.77
-46.35
-51.88
-58.02
-64.04
-68.86
-71.24
-70.12
-64.92
-55.74
-43.45
-29.42
-15.20
-2.12
8.91
17.57
23.93
28.28
30.98
32.32
32.58
32.02
31.01
29.90
29.04
28.62
28.68
29.12
29.75
30.45
31.17
31.89
32.63
33.33
33.86
34.05
33.74
32.81
31.26
29.16
26.65
23.91
21.14
18.52
16.15
14.04
12.10
10.20
8.24
6.16
4.00
1.83
-0.29
-2.34
-4.37
-6.48
-8.82
-11.50
-14.59
-18.07
-21.79
-25.50
-29.00
-32.14
-34.96
-37.68
-40.64
-44.21
-48.66
-53.95
-59.69
-65.08
-68.99
-70.25
-67.96
-61.79
-52.16
-40.10
-26.98
-14.15
-2.59
7.19
15.06
21.10
25.44
28.24
29.68
30.07
29.85
29.49
29.36
29.65
30.32
31.19
32.06
32.82
33.48
34.14
34.85
35.54
36.05
36.13
35.55
34.24
32.27
29.84
27.19
24.54
21.98
19.51
17.10
14.74
12.49
10.47
8.71
7.18
5.73
4.17
2.40
0.43
-1.61
-3.57
-5.40
-7.21
-9.19
-11.52
-14.20
-17.08
-19.95
-22.63
-25.15
-27.64
-30.36
-33.50
-37.23
-41.59
-46.55
-51.94
-57.26
-61.68
-64.09
-63.36
-58.77
-50.35
-38.90
-25.83
-12.70
-0.78
9.15
16.85
22.40
25.97
27.78
28.06
27.11
25.41
23.49
21.84
20.81
20.48
20.74
21.40
22.29
23.36
24.61
26.10
27.72
29.27
30.44
30.94
30.66
29.65
28.12
26.30
24.33
22.25
20.01
17.57
14.89
12.04
9.08
6.10
3.19
0.44
-2.12
-4.56
-7.03
-9.76
-12.92
-16.57
-20.59
-24.71
-28.65
-32.24
-35.48
-38.54
-41.74
-45.37
-49.68
-54.69
-60.11
-65.29
-69.26
-70.88
-69.17
-63.60
-54.31
-42.18
-28.50
-14.73
-2.07
8.73
17.40
23.95
28.54
31.35
32.62
32.67
31.91
30.84
29.93
29.45
29.53
30.08
30.94
31.98
33.09
34.20
35.26
36.19
36.85
37.07
36.70
35.68
34.00
31.80
29.26
26.60
23.98
21.49
19.16
16.93
14.74
12.49
10.10
7.54
4.77
1.86
-1.12
-4.00
-6.64
-8.98
-11.08
-13.12
-15.36
-17.98
-21.09
-24.61
-28.35
-32.14
-35.79
-39.28
-42.71
-46.35
-50.54
-55.60
-61.56
-68.03
-74.09
-78.41
-79.57
-76.46
-68.71
-56.79
-41.99
-25.99
-10.46
3.29
14.57
23.20
29.39
33.55
36.09
37.40
37.82
37.73
37.41
37.11
36.95
36.90
36.90
36.91
36.93
37.00
37.19
37.46
37.69
37.67
37.17
36.06
34.35
32.16
29.62
26.87
23.98
21.02
18.11
15.45
13.21
11.47
10.08
8.70
6.98
4.66
1.74
-1.53
-4.77
-7.69
-10.18
-12.42
-14.75
-17.54
-21.08
-25.36
-30.18
-35.12
-39.79
-43.93
-47.53
-50.88
-54.48
-58.88
-64.58
-71.79
-80.26
-89.11
-96.85
-101.64
-101.83
-96.56
-86.18
-72.22
-56.85
-42.15
-29.42
-18.98
-10.31
-2.57
4.98
12.79
21.16
30.52
41.59
55.38
72.96
94.99
121.27
150.53
180.41
207.96
230.36
245.67
253.30
253.94
249.17
240.69
229.77
216.91
201.76
183.27
160.00
130.62
94.61
52.88
8.03
-36.00
-74.87
-105.14
-125.22
-135.64
-138.53
-136.56
-132.12
-126.76
-121.34
-116.32
-112.10
-109.06
-107.32
-106.63
-106.33
-105.63
-103.97
-101.27
-98.00
-94.95
-92.87
-92.11
-92.55
-93.69
-94.99
-96.14
-97.12
-98.05
-98.90
-99.19
-97.99
-94.24
-87.12
-76.57
-63.29
-48.54
-33.72
-19.95
-7.78
2.69
11.58
19.02
25.01
29.45
32.30
33.66
33.90
33.65
33.69
34.78
37.47
41.87
47.66
54.11
60.30
65.38
68.79
70.31
69.98
68.05
64.81
60.62
55.77
50.56
45.19
39.84
34.57
29.47
24.66
20.26
16.41
13.21
10.60
8.45
6.54
4.67
2.68
0.48
-1.93
-4.50
-7.14
-9.80
-12.49
-15.26
-18.16
-21.24
-24.44
-27.66
-30.78
-33.74
-36.64
-39.70
-43.24
-47.52
-52.63
-58.44
-64.49
-69.99
-73.91
-75.13
-72.71
-66.25
-56.05
-43.12
-28.91
-14.92
-2.34
8.18
16.49
22.72
27.10
29.89
31.36
31.83
31.76
31.60
31.68
32.17
33.03
34.10
35.23
36.37
37.53
38.78
40.10
41.35
42.31
42.73
42.42
41.33
39.55
37.29
34.83
32.39
30.11
28.05
26.18
24.41
22.60
20.65
18.51
16.18
13.77
11.41
9.27
7.46
5.98
4.76
3.58
2.21
0.43
-1.85
-4.60
-7.68
-10.80
-13.73
-16.29
-18.46
-20.38
-22.36
-24.80
-28.09
-32.43
-37.60
-42.89
-47.03
-48.56
-46.22
-39.45
-28.56
-14.72
0.51
15.66
29.72
42.22
53.06
62.22
69.54
74.77
77.67
78.19
76.49
72.87
67.77
61.70
55.32
49.52
45.27
43.49
44.70
48.79
54.94
61.92
68.37
73.21
75.85
76.17
74.44
71.10
66.71
61.78
56.79
52.11
47.97
44.49
41.56
38.99
36.45
33.58
30.04
25.60
20.15
13.80
6.82
-0.50
-7.89
-15.23
-22.54
-29.83
-37.06
-44.06
-50.62
-56.62
-62.11
-67.37
-72.74
-78.56
-85.02
-92.13
-99.76
-107.54
-114.92
-121.11
-125.14
-126.09
-123.33
-116.87
-107.41
-96.15
-84.54
-73.73
-64.42
-56.79
-50.74
-46.12
-42.94
-41.33
-41.39
-43.00
-45.72
-48.92
-51.90
-54.11
-55.16
-54.86
-53.12
-49.97
-45.51
-40.01
-33.83
-27.41
-21.19
-15.51
-10.63
-6.64
-3.50
-1.02
1.09
3.12
5.28
7.59
9.87
11.85
13.27
13.96
13.93
13.33
12.40
11.47
10.84
10.68
10.92
11.25
11.23
10.39
8.50
5.60
2.02
-1.77
-5.35
-8.52
-11.31
-13.98
-16.93
-20.57
-25.19
-30.77
-36.83
-42.40
-46.14
-46.66
-42.98
-34.83
-22.80
-8.17
7.51
22.79
36.69
48.72
58.76
66.87
73.14
77.63
80.52
82.15
83.04
83.84
85.12
87.21
90.08
93.42
96.76
99.64
101.74
103.02
103.64
103.90
103.99
103.84
102.95
100.38
94.97
85.73
72.28
55.16
35.77
16.10
-1.91
-16.76
-27.65
-34.45
-37.42
-37.02
-33.77
-28.33
-21.42
-13.81
-6.04
1.56
8.89
15.75
21.61
25.55
26.52
23.90
17.89
9.68
1.11
-5.83
-9.62
-9.25
-4.14
6.18
21.99
42.89
67.18
91.51
111.34
122.06
120.54
106.17
81.01
49.01
14.62
-18.40
-47.61
-71.83
-90.67
-104.08
-112.23
-115.59
-115.08
-111.94
-107.51
-102.78
-98.20
-93.66
-88.78
-83.29
-77.35
-71.52
-66.53
-62.88
-60.49
-58.65
-56.24
-52.24
-46.23
-38.54
-30.20
-22.50
-16.51
-12.69
-10.89
-10.59
-11.31
-12.87
-15.51
-19.73
-25.96
-34.38
-44.67
-56.04
-67.33
-77.18
-84.35
-87.87
-87.28
-82.72
-74.86
-64.79
-53.79
-43.10
-33.75
-26.43
-21.41
-18.67
-17.86
-18.47
-19.93
-21.53
-22.38
-21.39
-17.43
-9.64
2.17
17.30
34.22
51.13
66.43
79.20
89.28
96.97
102.64
106.42
108.14
107.57
104.70
99.93
94.05
88.07
82.80
78.65
75.46
72.59
69.19
64.42
57.75
49.00
38.34
26.20
13.24
0.32
-11.52
-21.19
-27.84
-31.14
-31.47
-29.85
-27.64
-26.05
-25.76
-26.77
-28.51
-30.19
-31.19
-31.33
-30.88
-30.45
-30.69
-32.06
-34.66
-38.20
-42.10
-45.59
-47.98
-48.68
-47.50
-44.58
-40.41
-35.74
-31.37
-27.99
-26.04
-25.68
-26.75
-28.89
-31.66
-34.60
-37.35
-39.72
-41.75
-43.69
-45.91
-48.78
-52.49
-56.92
-61.52
-65.40
-67.51
-66.83
-62.69
-54.95
-44.10
-31.15
-17.44
-4.32
7.13
16.29
23.05
27.59
30.30
31.52
31.52
30.55
28.85
26.69
24.41
22.30
20.55
19.21
18.30
17.75
17.46
17.26
16.86
15.83
13.72
10.23
5.36
-0.46
-6.48
-11.84
-15.86
-18.28
-19.31
-19.60
-20.03
-21.45
-24.49
-29.26
-35.28
-41.43
-46.15
-47.83
-45.21
-37.85
-26.33
-12.05
3.14
17.47
29.72
39.34
46.30
50.84
53.23
53.68
52.46
49.93
46.62
43.13
39.92
37.24
35.11
33.40
31.96
30.69
29.45
27.99
25.91
22.82
18.43
12.75
6.13
-0.86
-7.60
-13.64
-18.76
-22.98
-26.56
-29.87
-33.31
-37.13
-41.32
-45.46
-48.78
-50.24
-48.83
-43.83
-35.04
-22.79
-7.87
8.62
25.47
41.43
55.29
65.91
72.40
74.33
72.25
68.01
64.77
66.33
75.91
94.70
121.04
150.64
177.96
198.27
209.28
211.80
209.03
204.92
202.52
203.03
205.82
209.25
211.66
212.12
210.73
208.47
207.03
208.54
215.22
228.79
249.75
276.60
305.58
331.31
348.19
352.09
341.64
318.45
286.26
249.53
212.06
176.31
143.47
113.87
87.41
63.73
42.10
21.39
0.32
-22.08
-45.93
-70.27
-93.35
-113.36
-129.20
-140.95
-149.77
-157.26
-164.63
-172.20
-179.34
-184.94
-188.07
-188.42
-186.40
-182.93
-179.06
-175.78
-173.93
-174.07
-176.28
-180.01
-183.95
-186.51
-186.39
-183.21
-177.75
-171.33
-164.98
-158.48
-150.27
-138.16
-120.57
-97.58
-71.17
-44.42
-20.37
-0.97
13.14
22.23
26.79
27.11
23.33
15.80
5.33
-6.87
-19.54
-31.88
-43.75
-55.46
-67.27
-78.79
-88.69
-94.85
-95.15
-88.39
-75.14
-57.83
-40.24
-26.24
-18.68
-18.59
-25.19
-36.45
-49.94
-63.47
-75.39
-84.60
-90.51
-93.00
-92.47
-89.84
-86.44
-83.60
-82.39
-83.24
-85.86
-89.38
-92.63
-94.64
-94.99
-94.05
-92.85
-92.62
-94.34
-98.24
-103.81
-109.93
-115.42
-119.39
-121.46
-121.72
-120.48
-118.05
-114.67
-110.56
-106.06
-101.81
-98.60
-97.29
-98.42
-101.85
-106.64
-111.15
-113.43
-111.91
-105.91
-95.94
-83.43
-70.24
-57.92
-47.25
-38.24
-30.44
-23.29
-16.56
-10.32
-4.86
-0.41
3.03
5.71
8.05
10.42
13.06
15.92
18.77
21.26
23.11
24.17
24.44
24.03
23.01
21.43
19.30
16.65
13.59
10.29
6.87
3.29
-0.69
-5.38
-10.98
-17.32
-23.75
-29.19
-32.37
-32.22
-28.19
-20.44
-9.89
2.10
14.05
24.77
33.53
40.14
44.73
47.62
49.09
49.38
48.72
47.35
45.58
43.69
41.86
40.19
38.70
37.40
36.39
35.72
35.38
35.16
34.70
33.58
31.43
28.15
23.90
19.05
14.06
9.28
4.86
0.64
-3.74
-8.75
-14.83
-22.05
-30.08
-38.04
-44.64
-48.51
-48.53
-44.25
-36.08
-25.23
-13.30
-1.77
8.41
17.02
24.43
31.16
37.51
43.42
48.47
52.26
54.66
55.90
56.50
56.97
57.60
58.40
59.16
59.65
59.79
59.66
59.46
59.33
59.24
58.90
57.90
55.85
52.64
48.48
43.85
39.28
35.18
31.70
28.67
25.81
22.82
19.48
15.73
11.63
7.30
2.88
-1.44
-5.55
-9.39
-13.03
-16.64
-20.48
-24.82
-29.91
-35.88
-42.54
-49.26
-54.92
-58.08
-57.42
-52.22
-42.69
-29.92
-15.58
-1.32
11.63
22.65
31.63
38.70
44.00
47.59
49.59
50.23
49.94
49.28
48.78
48.80
49.42
50.49
51.72
52.77
53.41
53.57
53.34
52.87
52.26
51.53
50.51
48.98
46.77
43.85
40.37
36.61
32.83
29.17
25.57
21.85
17.80
13.36
8.61
3.81
-0.75
-4.80
-8.20
-11.00
-13.34
-15.49
-17.74
-20.37
-23.60
-27.46
-31.82
-36.23
-40.03
-42.40
-42.54
-39.94
-34.50
-26.66
-17.27
-7.39
2.01
10.23
16.98
22.29
26.32
29.28
31.26
32.32
32.54
32.06
31.15
30.12
29.26
28.78
28.73
29.09
29.72
30.44
31.06
31.40
31.35
30.87
29.98
28.74
27.25
25.57
23.78
21.92
20.05
18.19
16.30
14.26
11.89
9.07
5.77
2.12
-1.67
-5.27
-8.47
-11.13
-13.30
-15.21
-17.22
-19.70
-22.97
-27.10
-31.83
-36.51
-40.21
-41.93
-40.92
-36.88
-30.05
-21.15
-11.16
-1.12
8.12
15.92
21.94
26.04
28.29
28.90
28.26
26.78
24.90
22.95
21.16
19.64
18.45
17.65
17.33
17.48
18.06
18.83
19.51
19.83
19.64
18.93
17.84
16.47
14.91
13.11
11.06
8.76
6.25
3.62
0.89
-1.97
-5.02
-8.27
-11.64
-14.99
-18.18
-21.14
-23.97
-26.84
-29.94
-33.33
-36.91
-40.28
-42.78
-43.64
-42.16
-38.03
-31.41
-22.99
-13.78
-4.79
3.23
9.90
15.16
19.12
21.88
23.53
24.16
23.90
23.02
21.82
20.61
19.63
19.01
18.83
19.08
19.66
20.44
21.27
21.98
22.43
22.54
22.21
21.42
20.19
18.58
16.75
14.85
13.01
11.28
9.60
7.83
5.80
3.43
0.82
-1.85
-4.31
-6.40
-8.14
-9.74
-11.56
-13.93
-16.98
-20.54
-24.08
-26.77
-27.66
-25.94
-21.17
-13.45
-3.42
8.00
19.81
31.26
41.92
51.65
60.45
68.33
75.28
81.28
86.42
90.91
95.10
99.38
104.17
109.80
116.50
124.25
132.70
141.13
148.57
154.08
157.05
157.47
155.83
152.85
149.06
144.42
138.41
130.30
119.62
106.48
91.58
75.93
60.51
46.00
32.78
21.03
10.79
1.89
-6.15
-14.09
-22.61
-31.84
-41.01
-48.50
-52.43
-51.55
-45.96
-37.18
-27.68
-19.88
-15.24
-13.92
-15.01
-17.25
-19.64
-21.83
-23.90
-26.14
-28.73
-31.69
-34.98
-38.68
-43.03
-48.29
-54.52
-61.46
-68.49
-74.84
-79.77
-82.84
-84.00
-83.56
-82.06
-80.02
-77.78
-75.40
-72.66
-69.27
-65.09
-60.20
-54.91
-49.69
-44.93
-40.87
-37.49
-34.66
-32.14
-29.74
-27.35
-24.93
-22.53
-20.18
-17.92
-15.80
-13.86
-12.28
-11.29
-11.21
-12.28
-14.50
-17.52
-20.68
-23.24
-24.68
-24.96
-24.59
-24.39
-25.14
-27.24
-30.55
-34.51
-38.39
-41.64
-43.99
-45.43
-46.20
-46.68
-47.44
-49.11
-52.04
-55.92
-59.59
-61.20
-58.90
-51.64
-39.74
-24.86
-9.35
4.64
15.82
23.92
29.40
32.95
35.14
36.44
37.23
37.82
38.35
38.62
37.99
35.65
30.93
23.68
14.41
4.10
-6.17
-15.75
-24.66
-33.55
-43.37
-54.79
-67.80
-81.54
-94.50
-104.90
-111.15
-112.32
-108.52
-101.00
-92.04
-84.34
-80.09
-80.17
-83.73
-88.61
-92.33
-93.21
-91.01
-86.82
-82.30
-78.79
-76.71
-75.69
-74.96
-74.04
-72.95
-72.12
-71.98
-72.59
-73.36
-73.25
-71.15
-66.40
-58.93
-49.11
-37.25
-23.27
-6.73
12.58
34.06
55.91
75.59
90.77
100.33
104.80
106.04
106.21
106.93
108.64
110.73
112.07
111.53
108.32
102.22
93.54
83.22
72.68
63.62
57.69
56.02
58.90
65.76
75.38
86.29
97.19
107.25
116.15
124.06
131.44
138.78
146.44
154.54
162.93
171.30
179.36
187.06
194.74
203.09
212.88
224.67
238.44
253.45
268.35
281.56
291.55
297.04
297.04
290.72
277.37
256.66
228.87
195.10
157.09
116.63
74.92
32.23
-11.73
-56.86
-101.83
-143.89
-179.64
-206.39
-223.26
-231.36
-233.06
-230.72
-225.75
-218.62
-209.39
-198.55
-187.31
-177.18
-169.16
-163.11
-157.84
-151.75
-143.84
-134.27
-124.35
-115.97
-110.74
-109.27
-111.03
-114.82
-119.51
-124.87
-131.76
-141.60
-155.28
-172.17
-189.81
-204.71
-213.86
-216.12
-212.85
-207.23
-202.70
-201.36
-203.24
-206.63
-209.30
-209.77
-207.83
-204.34
-200.41
-196.74
-193.44
-190.34
-187.42
-184.96
-183.30
-182.40
-181.51
-179.30
-174.23
-165.28
-152.29
-136.02
-117.88
-99.40
-81.84
-65.90
-51.77
-39.25
-27.94
-17.48
-7.57
1.94
11.12
19.96
28.41
36.42
44.01
51.16
57.94
64.37
70.47
76.20
81.45
86.07
89.88
92.81
94.90
96.38
97.61
98.98
100.89
103.53
106.85
110.45
113.69
115.83
116.28
114.75
111.24
106.00
99.30
91.38
82.42
72.58
62.03
50.91
39.27
27.15
14.75
2.64
-8.11
-16.18
-20.39
-20.31
-16.43
-10.12
-3.06
3.36
8.38
11.93
14.16
15.03
13.98
10.04
2.30
-9.49
-24.52
-40.89
-56.06
-67.67
-74.19
-75.35
-72.12
-66.20
-59.40
-53.01
-47.46
-42.21
-35.83
-26.13
-10.28
14.61
50.62
97.94
154.06
213.84
270.72
318.51
353.21
373.72
381.43
378.83
368.23
351.18
328.77
302.44
274.38
247.31
223.46
203.79
187.62
173.13
158.44
142.46
125.34
108.18
92.26
78.38
66.45
55.71
45.33
34.90
24.78
15.80
8.77
3.93
0.77
-1.87
-5.18
-9.94
-16.17
-23.31
-30.49
-36.92
-42.06
-45.66
-47.71
-48.33
-47.82
-46.62
-45.33
-44.53
-44.53
-45.29
-46.30
-46.81
-46.06
-43.68
-39.78
-35.03
-30.47
-27.23
-26.29
-28.20
-33.10
-40.65
-50.14
-60.68
-71.22
-80.70
-88.14
-92.76
-94.16
-92.36
-87.90
-81.72
-74.88
-68.22
-62.13
-56.43
-50.61
-44.15
-36.93
-29.35
-22.19
-16.23
-11.81
-8.62
-5.83
-2.39
2.51
9.22
17.52
26.85
36.46
45.67
54.01
61.23
67.22
71.75
74.34
74.27
70.80
63.70
53.57
41.88
30.47
20.80
13.36
7.56
2.29
-3.32
-9.37
-15.23
-20.03
-23.21
-24.82
-25.26
-24.90
-23.81
-21.78
-18.70
-14.92
-11.23
-8.60
-7.69
-8.60
-10.84
-13.68
-16.51
-19.12
-21.63
-24.31
-27.25
-30.34
-33.18
-35.40
-36.79
-37.42
-37.60
-37.79
-38.40
-39.71
-41.73
-44.17
-46.47
-47.99
-48.25
-47.18
-45.15
-42.73
-40.42
-38.34
-36.25
-33.71
-30.36
-26.16
-21.42
-16.66
-12.37
-8.93
-6.55
-5.32
-5.23
-6.17
-7.85
-9.75
-11.20
-11.45
-9.91
-6.41
-1.31
4.45
9.60
12.98
13.93
12.59
9.77
6.59
4.03
2.51
1.78
1.20
0.08
-1.93
-4.65
-7.52
-9.93
-11.51
-12.29
-12.65
-13.04
-13.73
-14.63
-15.40
-15.68
-15.36
-14.71
-14.30
-14.73
-16.29
-18.79
-21.56
-23.76
-24.62
-23.88
-21.81
-19.06
-16.38
-14.25
-12.78
-11.82
-11.09
-10.47
-9.92
-9.51
-9.14
-8.53
-7.25
-4.94
-1.51
2.79
7.31
11.29
14.10
15.43
15.33
14.19
12.52
10.79
9.35
8.35
7.81
7.60
7.52
7.35
6.94
6.25
5.39
4.59
4.09
4.03
4.37
4.88
5.25
5.22
4.71
3.81
2.87
2.20
2.05
2.42
3.10
3.79
4.18
4.20
3.94
3.60
3.39
3.36
3.47
3.58
3.62
3.57
3.56
3.68
3.98
4.40
4.77
4.93
4.80
4.33
3.57
2.63
1.66
0.92
0.87
2.12
5.34
10.94
18.78
28.02
37.15
44.44
48.43
48.40
44.54
37.79
29.45
20.78
12.76
6.02
0.92
-2.46
-4.28
-4.98
-5.21
-5.54
-6.28
-7.29
-8.16
-8.43
-7.87
-6.63
-5.07
-3.60
-2.45
-1.68
-1.29
-1.36
-1.97
-3.15
-4.68
-6.11
-6.88
-6.54
-4.99
-2.43
0.68
3.82
6.54
8.52
9.53
9.48
8.45
6.65
4.46
2.24
0.19
-1.75
-3.86
-6.41
-9.54
-13.14
-16.90
-20.45
-23.47
-25.77
-27.22
-27.77
-27.39
-26.22
-24.54
-22.80
-21.44
-20.71
-20.62
-20.86
-21.07
-20.94
-20.35
-19.37
-18.17
-16.88
-15.57
-14.19
-12.74
-11.29
-9.95
-8.83
-7.94
-7.16
-6.31
-5.19
-3.77
-2.14
-0.48
1.03
2.34
3.48
4.57
5.72
6.93
8.08
9.04
9.72
10.11
10.30
10.40
10.46
10.49
10.46
10.31
10.00
9.51
8.80
7.80
6.46
4.75
2.77
0.84
-0.48
-0.54
1.17
4.64
9.15
13.36
15.76
15.23
11.48
5.09
-2.83
-11.16
-19.10
-26.22
-32.33
-37.30
-41.04
-43.63
-45.35
-46.69
-48.10
-49.73
-51.31
-52.26
-51.95
-50.02
-46.63
-42.40
-38.27
-35.15
-33.68
-33.89
-35.27
-36.99
-38.24
-38.53
-37.84
-36.56
-35.29
-34.62
-34.97
-36.46
-38.81
-41.44
-43.62
-44.64
-44.12
-41.97
-38.42
-33.83
-28.54
-22.90
-17.31
-12.18
-7.92
-4.76
-2.58
-0.94
0.76
3.04
6.26
10.57
16.03
22.59
29.92
37.35
43.87
48.37
50.11
48.97
45.52
40.75
35.68
31.00
27.06
23.99
21.83
20.72
20.73
21.64
22.92
23.69
22.99
20.20
15.20
8.62
1.67
-4.06
-7.00
-6.07
-0.95
7.67
18.28
28.88
37.49
42.74
44.10
42.00
37.49
31.89
26.42
21.89
18.68
16.77
15.83
15.35
14.72
13.27
10.47
6.05
0.20
-6.34
-12.30
-16.23
-16.90
-13.78
-7.41
0.76
8.69
14.55
17.25
16.79
14.05
10.32
6.81
4.20
2.64
1.87
1.37
0.54
-1.22
-4.30
-8.59
-13.29
-16.96
-17.84
-14.48
-6.24
6.31
21.49
36.88
49.95
58.58
61.57
58.86
51.56
41.63
31.31
22.50
16.24
12.56
10.87
10.33
10.36
10.71
11.31
11.96
12.14
11.18
8.51
4.04
-1.72
-7.87
-13.42
-17.78
-20.92
-23.29
-25.44
-27.75
-30.20
-32.43
-33.93
-34.34
-33.55
-31.78
-29.37
-26.69
-23.98
-21.36
-18.76
-16.09
-13.22
-10.16
-7.08
-4.30
-2.12
-0.71
0.05
0.51
1.11
2.17
3.75
5.65
7.57
9.18
10.28
10.73
10.47
9.60
8.42
7.56
7.77
9.73
13.67
19.26
25.66
31.88
37.08
40.97
43.77
46.02
48.27
50.73
53.20
55.07
55.67
54.42
51.12
45.94
39.32
31.79
23.80
15.62
7.41
-0.71
-8.57
-15.85
-22.20
-27.31
-31.06
-33.59
-35.20
-36.29
-37.11
-37.72
-38.08
-38.05
-37.64
-36.91
-36.03
-35.13
-34.31
-33.62
-33.12
-32.90
-32.94
-33.05
-32.77
-31.57
-29.03
-25.12
-20.29
-15.40
-11.39
-9.05
-8.67
-10.08
-12.74
-15.97
-19.20
-22.00
-24.17
-25.61
-26.25
-26.03
-24.84
-22.66
-19.59
-15.91
-12.05
-8.41
-5.25
-2.60
-0.35
1.67
3.51
5.09
6.30
7.20
7.95
8.74
9.53
9.85
8.93
6.05
0.90
-6.18
-14.26
-21.92
-27.36
-28.56
-23.72
-12.00
5.64
26.10
44.73
56.90
59.67
52.88
38.99
21.83
4.99
-9.21
-19.87
-27.01
-30.92
-31.93
-30.51
-27.60
-24.49
-22.51
-22.58
-24.85
-28.72
-33.10
-36.79
-38.83
-38.75
-36.73
-33.44
-29.89
-26.98
-25.28
-24.88
-25.44
-26.48
-27.59
-28.59
-29.54
-30.54
-31.51
-32.12
-31.80
-30.00
-26.41
-21.24
-15.07
-8.74
-2.93
1.95
5.87
9.01
11.57
13.71
15.48
16.97
18.26
19.45
20.62
21.80
22.99
24.19
25.44
26.80
28.27
29.78
31.17
32.25
32.83
32.83
32.26
31.23
29.89
28.36
26.77
25.21
23.70
22.23
20.67
18.84
16.58
13.88
10.91
8.05
5.73
4.27
3.77
4.02
4.54
4.78
4.28
2.77
0.40
-2.39
-4.89
-6.46
-6.78
-6.09
-5.10
-4.72
-5.66
-8.13
-11.82
-16.12
-20.40
-24.27
-27.52
-29.89
-30.99
-30.22
-27.13
-21.65
-14.34
-6.21
1.62
8.36
13.78
18.13
21.82
25.10
27.88
29.85
30.63
30.05
28.31
25.80
23.07
20.62
18.79
17.72
17.38
17.50
17.70
17.56
16.71
15.08
12.88
10.60
8.82
7.97
8.13
9.03
10.14
10.96
11.24
11.05
10.70
10.60
10.97
11.85
13.10
14.44
15.71
16.83
17.88
18.94
20.13
21.43
22.87
24.47
26.22
28.12
29.97
31.31
31.58
30.30
27.33
23.04
18.13
13.31
8.95
4.89
0.52
-4.71
-11.04
-18.13
-25.33
-32.01
-37.86
-42.95
-47.43
-51.27
-54.08
-55.30
-54.45
-51.55
-47.18
-42.21
-37.43
-33.26
-29.59
-26.07
-22.38
-18.47
-14.52
-10.81
-7.41
-4.16
-0.74
3.10
7.35
11.75
15.83
19.17
21.57
23.09
24.08
25.13
26.86
29.78
34.08
39.54
45.39
50.56
53.81
54.13
50.96
44.33
34.80
23.22
10.51
-2.51
-15.15
-26.80
-36.84
-44.69
-49.94
-52.52
-52.88
-51.80
-50.12
-48.42
-46.78
-44.92
-42.54
-39.61
-36.59
-34.24
-33.28
-34.00
-35.99
-38.31
-39.80
-39.39
-36.48
-31.02
-23.48
-14.60
-5.21
3.88
12.05
18.83
24.02
27.66
30.02
31.60
32.91
34.41
36.32
38.61
41.10
43.55
45.82
47.96
50.16
52.69
55.67
59.07
62.64
66.03
68.94
71.20
72.93
74.43
76.10
78.27
81.08
84.38
87.76
90.63
92.31
92.14
89.60
84.34
76.35
65.93
53.63
40.11
25.97
11.64
-2.70
-17.03
-31.28
-45.16
-58.06
-69.11
-77.52
-82.85
-85.29
-85.68
-85.15
-84.68
-84.73
-85.20
-85.70
-86.01
-86.37
-87.31
-89.23
-91.87
-94.23
-94.94
-92.93
-88.04
-81.04
-73.05
-64.87
-56.49
-47.30
-36.70
-24.62
-11.71
1.03
12.74
22.94
31.35
37.45
40.32
38.79
32.19
21.07
7.28
-6.53
-17.97
-25.78
-30.15
-32.28
-33.59
-35.00
-36.68
-38.25
-39.23
-39.43
-38.91
-37.88
-36.37
-34.19
-31.05
-26.92
-22.05
-17.01
-12.45
-8.83
-6.24
-4.47
-3.18
-2.07
-1.02
-0.11
0.55
0.77
0.48
-0.35
-1.61
-3.16
-4.78
-6.22
-7.33
-8.16
-8.99
-10.32
-12.65
-16.20
-20.67
-25.17
-28.45
-29.27
-26.89
-21.32
-13.26
-3.84
5.76
14.66
22.44
29.11
34.93
40.28
45.40
50.29
54.65
58.05
60.08
60.69
60.24
59.40
58.85
58.93
59.55
60.30
60.77
60.86
60.78
60.89
61.36
61.95
62.09
61.20
59.02
55.83
52.32
49.29
47.22
46.13
45.61
45.08
44.12
42.59
40.63
38.53
36.49
34.58
32.72
30.82
28.77
26.53
24.01
21.06
17.47
13.07
7.82
1.90
-4.22
-9.96
-14.73
-18.17
-20.28
-21.41
-22.03
-22.65
-23.56
-24.83
-26.36
-27.99
-29.48
-30.57
-30.89
-29.98
-27.50
-23.31
-17.70
-11.27
-4.80
1.11
6.20
10.55
14.42
17.87
20.62
22.08
21.70
19.15
14.71
9.01
2.83
-3.20
-8.80
-13.92
-18.57
-22.63
-25.91
-28.22
-29.60
-30.33
-30.78
-31.23
-31.69
-31.92
-31.58
-30.41
-28.43
-25.93
-23.32
-21.04
-19.34
-18.30
-17.78
-17.54
-17.28
-16.75
-15.83
-14.49
-12.77
-10.71
-8.29
-5.52
-2.46
0.75
3.86
6.79
9.57
12.34
15.08
17.32
18.08
16.10
10.41
0.83
-11.70
-25.33
-37.87
-47.44
-52.95
-54.20
-51.76
-46.60
-39.90
-32.80
-26.37
-21.36
-18.10
-16.39
-15.62
-15.02
-14.02
-12.37
-10.20
-7.85
-5.57
-3.42
-1.32
0.94
3.50
6.35
9.43
12.55
15.62
18.50
21.05
23.12
24.56
25.27
25.33
24.94
24.37
23.94
23.86
24.22
24.97
25.89
26.78
27.47
27.91
28.16
28.34
28.54
28.79
29.07
29.30
29.45
29.52
29.64
29.93
30.59
31.73
33.36
35.15
36.47
36.44
34.22
29.45
22.44
14.08
5.46
-2.49
-9.34
-14.99
-19.38
-22.26
-23.22
-21.98
-18.78
-14.51
-10.45
-7.77
-7.10
-8.47
-11.49
-15.65
-20.50
-25.43
-29.60
-31.94
-31.47
-27.88
-21.87
-14.96
-8.92
-5.04
-3.64
-4.16
-5.60
-7.12
-8.40
-9.56
-10.93
-12.62
-14.47
-16.13
-17.27
-17.76
-17.75
-17.55
-17.44
-17.51
-17.66
-17.63
-17.15
-16.14
-14.70
-13.16
-11.86
-11.06
-10.76
-10.82
-10.97
-11.05
-11.00
-10.87
-10.73
-10.52
-10.05
-9.04
-7.27
-4.81
-2.03
0.35
1.58
1.16
-0.90
-3.98
-7.08
-9.08
-9.10
-6.74
-2.11
4.26
11.56
18.99
25.85
31.71
36.46
40.14
42.84
44.51
44.88
43.54
40.19
34.92
28.25
21.15
14.68
9.66
6.42
4.74
4.01
3.55
3.00
2.35
1.95
2.17
3.14
4.55
5.81
6.24
5.44
3.33
0.20
-3.43
-6.94
-9.62
-10.83
-10.14
-7.53
-3.57
0.72
4.19
6.01
6.09
5.16
4.52
5.42
8.58
13.77
19.83
24.95
27.26
25.36
18.78
8.03
-5.60
-20.49
-35.02
-47.84
-57.82
-64.15
-66.33
-64.36
-58.83
-50.87
-41.84
-32.99
-25.12
-18.51
-13.10
-8.65
-5.00
-2.12
-0.03
1.31
2.06
2.49
2.97
3.85
5.36
7.52
10.09
12.63
14.61
15.63
15.51
14.39
12.64
10.69
8.97
7.77
7.18
7.14
7.49
7.99
8.43
8.63
8.47
7.89
6.86
5.44
3.75
1.95
0.23
-1.24
-2.38
-3.16
-3.64
-3.94
-4.22
-4.62
-5.22
-5.98
-6.81
-7.59
-8.28
-8.93
-9.66
-10.69
-12.16
-14.19
-16.71
-19.51
-22.21
-24.24
-24.98
-23.91
-20.86
-16.04
-10.02
-3.49
2.90
8.77
13.91
18.19
21.51
23.76
24.93
25.20
24.92
24.53
24.38
24.57
24.97
25.34
25.48
25.37
25.08
24.79
24.56
24.37
24.12
23.78
23.40
23.13
23.04
23.04
22.88
22.28
21.11
19.51
17.85
16.46
15.50
14.83
14.13
13.05
11.45
9.41
7.19
5.07
3.19
1.49
-0.26
-2.32
-4.87
-7.86
-11.02
-13.88
-15.84
-16.34
-14.94
-11.49
-6.35
-0.46
4.80
7.80
7.31
2.88
-4.89
-14.47
-23.91
-31.45
-35.98
-37.20
-35.46
-31.50
-26.19
-20.36
-14.79
-10.16
-6.90
-5.13
-4.60
-4.72
-4.78
-4.22
-2.81
-0.71
1.65
3.79
5.33
6.17
6.39
6.22
5.91
5.71
5.81
6.30
7.19
8.35
9.53
10.42
10.77
10.48
9.59
8.26
6.65
4.96
3.35
1.99
0.98
0.36
0.08
0.00
-0.01
-0.07
-0.18
-0.34
-0.60
-1.03
-1.74
-2.70
-3.76
-4.66
-5.21
-5.47
-5.70
-6.38
-7.94
-10.64
-14.44
-18.99
-23.74
-28.04
-31.23
-32.83
-32.64
-30.86
-28.09
-25.17
-22.94
-21.92
-22.09
-22.95
-23.75
-23.89
-23.13
-21.61
-19.74
-17.81
-15.92
-13.86
-11.36
-8.25
-4.64
-0.84
2.75
5.88
8.53
10.81
12.95
15.10
17.31
19.51
21.59
23.46
25.13
26.65
28.10
29.55
30.96
32.29
33.49
34.59
35.72
37.09
38.92
41.39
44.64
48.74
53.69
59.30
65.08
70.23
73.79
74.97
73.44
69.54
63.94
57.32
49.81
41.01
30.31
17.39
2.67
-12.71
-27.34
-40.07
-50.27
-57.80
-62.66
-64.78
-64.13
-60.95
-55.97
-50.40
-45.47
-41.98
-40.01
-39.04
-38.24
-36.95
-34.80
-31.74
-27.91
-23.50
-18.71
-13.79
-9.03
-4.69
-1.01
1.90
4.02
5.41
6.20
6.56
6.67
6.74
6.89
7.22
7.70
8.27
8.85
9.43
10.02
10.64
11.26
11.78
12.10
12.14
11.94
11.58
11.25
11.04
11.01
11.08
11.14
11.06
10.74
10.12
9.22
8.14
7.02
5.99
5.13
4.45
3.92
3.51
3.24
3.13
3.14
3.03
2.39
0.74
-2.21
-6.41
-11.41
-16.45
-20.69
-23.42
-24.26
-23.13
-20.27
-16.09
-11.08
-5.78
-0.68
3.79
7.32
9.71
10.99
11.39
11.33
11.30
11.61
12.29
13.03
13.33
12.77
11.26
9.10
6.87
5.11
4.04
3.56
3.35
3.14
2.91
2.77
2.75
2.59
1.68
-0.65
-4.73
-10.24
-16.22
-21.42
-24.82
-26.11
-25.71
-24.53
-23.50
-23.21
-23.77
-24.94
-26.32
-27.60
-28.63
-29.31
-29.59
-29.34
-28.43
-26.90
-24.98
-23.13
-21.91
-21.77
-22.94
-25.29
-28.40
-31.48
-33.60
-33.83
-31.48
-26.35
-18.87
-9.98
-0.87
7.44
14.41
20.05
24.72
28.84
32.56
35.77
38.29
39.99
41.02
41.69
42.38
43.35
44.71
46.43
48.39
50.42
52.31
53.92
55.18
56.19
57.20
58.38
59.67
60.57
60.22
57.73
52.56
44.83
35.33
25.22
15.51
6.79
-0.81
-7.38
-12.97
-17.41
-20.52
-22.25
-22.96
-23.22
-23.69
-24.74
-26.34
-28.20
-29.93
-31.34
-32.41
-33.26
-33.97
-34.54
-34.89
-34.96
-34.81
-34.56
-34.42
-34.56
-35.06
-35.80
-36.48
-36.62
-35.59
-32.92
-28.35
-22.04
-14.53
-6.54
1.18
8.09
13.85
18.37
21.58
23.47
24.09
23.61
22.33
20.64
18.80
16.89
14.77
12.16
8.97
5.37
1.88
-0.82
-2.10
-1.61
0.73
4.72
9.93
15.72
21.21
25.28
26.89
25.44
21.03
14.56
7.36
0.68
-4.68
-8.56
-11.23
-13.03
-14.24
-14.98
-15.44
-15.94
-16.88
-18.54
-20.88
-23.56
-26.11
-28.15
-29.54
-30.29
-30.45
-30.04
-29.01
-27.38
-25.35
-23.24
-21.44
-20.30
-20.02
-20.60
-21.88
-23.52
-25.03
-25.74
-24.92
-22.01
-16.82
-9.64
-1.25
7.36
15.24
21.72
26.58
29.93
32.12
33.46
34.15
34.28
33.94
33.28
32.62
32.30
32.57
33.45
34.74
36.17
37.53
38.80
40.13
41.63
43.33
45.05
46.45
47.15
46.91
45.71
43.77
41.45
39.09
36.84
34.59
32.03
28.74
24.49
19.30
13.56
7.91
2.99
-0.85
-3.61
-5.69
-7.69
-10.13
-13.22
-16.78
-20.26
-23.01
-24.51
-24.62
-23.65
-22.24
-21.07
-20.63
-21.07
-22.22
-23.65
-24.91
-25.58
-25.38
-24.20
-22.11
-19.36
-16.34
-13.53
-11.41
-10.27
-10.19
-10.94
-12.11
-13.17
-13.60
-13.06
-11.31
-8.36
-4.36
0.35
5.31
10.02
14.07
17.31
19.91
22.35
25.01
27.85
30.20
30.88
28.74
23.28
15.03
5.43
-3.70
-11.03
-16.07
-19.28
-21.56
-23.78
-26.29
-28.91
-31.15
-32.46
-32.57
-31.38
-29.08
-25.91
-22.24
-18.41
-14.80
-11.76
-9.55
-8.28
-7.89
-8.12
-8.59
-8.90
-8.82
-8.42
-8.07
-8.27
-9.39
-11.36
-13.63
-15.27
-15.27
-12.78
-7.37
0.93
11.70
24.15
37.32
50.16
61.86
71.96
80.48
87.76
94.27
100.44
106.54
112.72
118.89
124.43
127.93
127.28
120.27
105.61
83.79
57.33
30.09
5.83
-13.03
-26.07
-34.44
-39.90
-43.80
-46.82
-49.24
-51.43
-53.97
-57.36
-61.42
-65.07
-66.72
-65.07
-59.93
-52.58
-45.16
-39.79
-37.57
-38.13
-40.06
-41.77
-42.38
-42.21
-42.48
-44.56
-49.01
-55.15
-61.20
-65.03
-65.21
-61.67
-55.81
-49.95
-46.46
-46.91
-51.68
-59.84
-69.21
-76.76
-79.01
-73.02
-57.43
-33.48
-5.05
22.27
42.97
53.52
53.44
45.00
32.02
18.24
6.27
-2.73
-8.57
-11.51
-11.90
-10.18
-7.12
-3.71
-1.02
0.23
-0.09
-1.52
-3.27
-4.63
-5.27
-5.40
-5.51
-6.14
-7.48
-9.34
-11.17
-12.36
-12.57
-11.82
-10.47
-9.07
-8.04
-7.56
-7.45
-7.36
-6.90
-5.83
-4.14
-2.01
0.23
2.33
4.11
5.57
6.86
8.15
9.57
11.13
12.67
13.90
14.68
15.09
15.60
17.02
20.30
26.37
35.74
48.31
63.16
78.65
92.71
103.30
109.04
109.50
105.18
97.18
86.67
74.52
61.20
47.06
32.56
18.38
5.28
-6.24
-16.16
-24.91
-33.06
-40.87
-48.11
-54.12
-58.03
-59.21
-57.36
-52.66
-45.53
-36.52
-26.24
-15.35
-4.59
5.21
13.22
18.88
22.07
23.15
22.79
21.75
20.56
19.46
18.44
17.36
16.05
14.29
11.71
7.89
2.53
-4.21
-11.55
-18.14
-22.52
-23.63
-21.19
-15.81
-8.69
-1.22
5.42
10.36
13.14
13.66
12.28
9.73
7.02
5.09
4.45
4.95
5.82
5.92
4.05
-0.77
-9.01
-20.47
-33.91
-47.04
-56.74
-59.91
-54.65
-41.28
-22.59
-3.07
12.66
21.50
22.74
17.84
9.33
-0.49
-10.28
-19.58
-28.28
-35.91
-41.58
-44.25
-43.45
-39.62
-34.04
-28.30
-23.61
-20.38
-18.19
-16.11
-13.31
-9.41
-4.60
0.50
5.15
8.81
11.28
12.76
13.75
14.75
16.15
18.03
20.25
22.52
24.63
26.55
28.40
30.25
31.99
33.34
33.94
33.58
32.40
30.86
29.55
28.85
28.84
29.13
29.16
28.37
26.45
23.34
19.17
14.13
8.45
2.37
-3.82
-9.75
-15.05
-19.40
-22.63
-24.67
-25.62
-25.60
-24.73
-23.10
-20.81
-18.07
-15.18
-12.59
-10.75
-9.95
-10.16
-11.05
-12.07
-12.75
-12.78
-12.18
-11.10
-9.76
-8.26
-6.71
-5.23
-4.03
-3.36
-3.37
-3.98
-4.81
-5.36
-5.18
-4.11
-2.36
-0.37
1.35
2.43
2.74
2.41
1.69
0.86
0.07
-0.74
-1.80
-3.42
-5.90
-9.28
-13.20
-16.90
-19.45
-20.02
-18.31
-14.85
-10.80
-7.57
-6.15
-6.70
-8.53
-10.47
-11.45
-10.82
-8.46
-4.44
1.22
8.51
17.13
26.16
34.13
39.38
40.84
38.49
33.39
27.17
21.31
16.63
13.16
10.45
8.05
5.76
3.68
1.96
0.63
-0.53
-1.81
-3.36
-5.04
-6.38
-6.80
-5.93
-3.85
-1.13
1.31
2.71
2.72
1.68
0.40
-0.08
0.97
3.74
7.82
12.35
16.35
19.09
20.15
19.56
17.55
14.49
10.72
6.63
2.58
-1.02
-3.88
-5.92
-7.33
-8.47
-9.65
-10.95
-12.19
-13.03
-13.20
-12.63
-11.49
-9.99
-8.39
-6.88
-5.64
-4.84
-4.59
-4.89
-5.46
-5.86
-5.67
-4.57
-2.53
0.28
3.56
6.98
10.21
12.88
14.61
15.12
14.38
12.75
10.83
9.26
8.48
8.52
9.06
9.58
9.65
9.11
8.05
6.74
5.41
4.19
3.06
1.92
0.67
-0.85
-2.69
-4.93
-7.57
-10.50
-13.55
-16.49
-19.05
-21.01
-22.25
-22.73
-22.42
-21.35
-19.62
-17.45
-15.14
-13.16
-11.90
-11.66
-12.44
-13.98
-15.79
-17.25
-17.85
-17.33
-15.79
-13.66
-11.59
-10.19
-9.92
-10.99
-13.35
-16.59
-19.93
-22.17
-21.86
-17.80
-9.54
2.18
15.41
27.53
36.11
39.69
38.14
32.52
24.42
15.41
6.64
-1.18
-7.60
-12.28
-15.01
-15.80
-14.98
-13.21
-11.27
-9.81
-9.15
-9.13
-9.27
-8.94
-7.67
-5.39
-2.50
0.27
2.08
2.36
1.04
-1.33
-3.80
-5.36
-5.31
-3.62
-0.79
2.35
5.09
7.13
8.59
9.86
11.29
12.97
14.74
16.24
17.16
17.33
16.74
15.51
13.80
11.85
9.96
8.48
7.63
7.44
7.69
7.92
7.71
6.76
5.04
2.70
-0.12
-3.34
-6.95
-10.91
-15.00
-18.82
-21.92
-24.01
-25.02
-25.22
-25.01
-24.77
-24.78
-25.14
-25.75
-26.39
-26.80
-26.80
-26.38
-25.69
-24.99
-24.49
-24.17
-23.77
-22.89
-21.26
-18.83
-15.76
-12.38
-8.90
-5.42
-1.94
1.54
4.91
8.06
10.95
13.67
16.32
18.88
21.08
22.46
22.66
21.64
19.81
17.90
16.58
16.22
16.74
17.66
18.36
18.30
17.21
15.13
12.38
9.40
6.67
4.57
3.31
2.86
3.03
3.59
4.39
5.45
6.92
8.96
11.63
14.69
17.67
19.89
20.74
19.95
17.74
14.82
12.16
10.63
10.63
12.05
14.20
16.20
17.08
16.15
13.08
8.38
3.66
1.58
4.98
15.48
32.24
51.70
68.65
78.25
77.85
67.85
51.16
31.72
12.95
-2.96
-15.04
-23.01
-26.88
-26.97
-23.99
-19.18
-13.93
-9.47
-6.46
-4.99
-4.73
-5.07
-5.28
-4.74
-3.13
-0.53
2.51
5.25
7.00
7.44
6.74
5.44
4.21
3.57
3.74
4.64
5.95
7.26
8.22
8.55
8.16
7.01
5.21
2.94
0.42
-2.12
-4.47
-6.51
-8.16
-9.45
-10.38
-10.95
-11.12
-10.87
-10.23
-9.25
-7.99
-6.48
-4.77
-3.01
-1.44
-0.39
-0.11
-0.60
-1.55
-2.45
-2.83
-2.49
-1.65
-0.79
-0.47
-1.04
-2.55
-4.86
-7.70
-10.84
-14.04
-17.05
-19.49
-21.03
-21.40
-20.58
-18.88
-16.88
-15.20
-14.31
-14.33
-15.01
-15.88
-16.50
-16.69
-16.53
-16.32
-16.30
-16.52
-16.75
-16.56
-15.62
-13.80
-11.36
-8.71
-6.24
-4.07
-2.02
0.26
3.01
6.20
9.47
12.28
14.18
14.92
14.49
13.03
10.80
8.23
5.91
4.54
4.67
6.41
9.42
13.02
16.63
20.09
23.67
27.76
32.46
37.16
40.70
41.77
39.42
33.55
24.87
14.71
4.57
-4.27
-11.02
-15.43
-17.70
-18.34
-17.91
-16.96
-15.92
-15.12
-14.71
-14.62
-14.54
-13.96
-12.32
-9.38
-5.31
-0.77
3.35
6.28
7.66
7.77
7.38
7.56
9.27
12.95
18.19
23.75
27.80
28.68
25.42
18.13
7.99
-3.24
-13.80
-22.41
-28.48
-31.98
-33.28
-32.90
-31.42
-29.33
-26.95
-24.43
-21.75
-18.88
-15.95
-13.27
-11.25
-10.16
-10.01
-10.56
-11.42
-12.22
-12.82
-13.19
-13.37
-13.35
-13.04
-12.26
-10.93
-9.09
-6.97
-4.88
-3.16
-2.04
-1.54
-1.51
-1.72
-1.89
-1.84
-1.49
-0.88
-0.15
0.50
0.84
0.66
-0.09
-1.32
-2.79
-4.18
-5.25
-5.83
-5.89
-5.47
-4.56
-3.14
-1.18
1.31
4.22
7.32
10.34
13.01
15.15
16.63
17.38
17.34
16.44
14.60
11.77
8.09
3.94
-0.06
-3.24
-5.15
-5.78
-5.57
-5.20
-5.18
-5.56
-5.83
-5.26
-3.24
0.35
5.07
10.17
14.90
18.75
21.49
22.95
22.91
21.09
17.33
11.93
5.80
0.35
-2.99
-3.33
-0.76
3.66
8.36
11.87
13.33
12.77
10.89
8.64
6.71
5.35
4.27
2.98
1.02
-1.84
-5.55
-9.80
-14.08
-17.86
-20.60
-21.86
-21.42
-19.21
-15.36
-10.15
-4.03
2.29
7.86
11.64
12.76
10.95
6.66
1.08
-4.27
-8.10
-9.79
-9.44
-7.62
-5.03
-2.18
0.51
2.55
3.32
2.36
-0.27
-3.68
-6.26
-6.41
-3.27
2.73
10.01
16.50
20.53
21.45
19.65
16.16
12.06
8.08
4.50
1.35
-1.38
-3.65
-5.29
-6.21
-6.39
-6.00
-5.40
-4.96
-5.02
-5.63
-6.51
-7.12
-6.85
-5.35
-2.69
0.61
3.84
6.36
7.87
8.40
8.19
7.43
6.18
4.40
2.16
-0.30
-2.53
-4.05
-4.50
-3.80
-2.14
0.17
2.80
5.55
8.36
11.24
14.22
17.21
20.00
22.29
23.75
24.18
23.65
22.43
20.95
19.59
18.51
17.61
16.59
15.18
13.33
11.32
9.64
8.77
8.90
9.84
10.98
11.57
10.90
8.60
4.80
0.08
-4.63
-8.38
-10.48
-10.78
-9.62
-7.78
-6.17
-5.60
-6.59
-9.29
-13.57
-19.07
-25.24
-31.47
-37.20
-42.15
-46.28
-49.65
-52.03
-52.64
-50.27
-43.82
-33.12
-19.33
-4.91
7.19
14.60
16.39
13.21
6.87
-0.59
-7.59
-13.25
-17.29
-19.55
-19.86
-18.05
-14.19
-8.86
-3.11
1.87
5.12
6.35
5.94
4.72
3.54
2.83
2.43
1.89
0.70
-1.19
-3.39
-5.17
-5.90
-5.37
-3.91
-2.28
-1.23
-1.28
-2.50
-4.55
-6.83
-8.68
-9.55
-9.17
-7.66
-5.51
-3.47
-2.29
-2.38
-3.62
-5.39
-6.86
-7.37
-6.74
-5.33
-3.79
-2.74
-2.46
-2.94
-3.95
-5.27
-6.86
-8.73
-10.89
-13.23
-15.53
-17.59
-19.31
-20.73
-21.90
-22.72
-22.81
-21.57
-18.39
-13.04
-5.79
2.54
10.86
18.16
23.81
27.71
30.12
31.46
32.05
32.08
31.68
31.01
30.31
29.83
29.64
29.56
29.19
28.06
25.87
22.76
19.28
16.26
14.43
14.08
14.86
15.91
16.24
15.22
12.79
9.49
6.09
3.19
0.96
-0.77
-2.28
-3.73
-5.00
-5.87
-6.24
-6.19
-6.01
-5.97
-6.17
-6.56
-7.02
-7.50
-8.14
-9.14
-10.69
-12.78
-15.15
-17.34
-18.94
-19.71
-19.72
-19.37
-19.19
-19.56
-20.55
-21.87
-23.01
-23.48
-23.02
-21.62
-19.45
-16.77
-13.77
-10.57
-7.30
-4.12
-1.28
0.89
2.15
2.39
1.81
0.82
0.02
-0.10
0.76
2.52
4.83
7.25
9.46
11.36
13.01
14.48
15.68
16.43
16.52
15.87
14.70
13.38
12.26
11.46
10.81
9.90
8.39
6.16
3.36
0.41
-2.27
-4.41
-5.99
-7.16
-8.10
-8.95
-9.79
-10.61
-11.43
-12.28
-13.26
-14.44
-15.87
-17.56
-19.51
-21.67
-23.99
-26.30
-28.33
-29.62
-29.65
-27.96
-24.41
-19.25
-13.10
-6.75
-0.82
4.31
8.55
11.98
14.62
16.41
17.25
17.20
16.55
15.83
15.53
15.92
16.93
18.17
19.18
19.65
19.54
19.00
18.29
17.51
16.63
15.45
13.82
11.71
9.29
6.86
4.71
3.06
1.94
1.23
0.72
0.14
-0.75
-2.21
-4.38
-7.33
-10.91
-14.85
-18.74
-22.19
-24.90
-26.83
-28.23
-29.55
-31.28
-33.77
-36.99
-40.43
-43.29
-44.63
-43.75
-40.39
-34.77
-27.54
-19.52
-11.52
-4.16
2.17
7.36
11.45
14.61
17.03
18.90
20.40
21.76
23.20
24.87
26.84
29.01
31.17
33.10
34.68
35.91
36.86
37.57
38.02
38.16
37.93
37.27
36.22
34.76
32.93
30.74
28.30
25.79
23.37
21.12
19.04
17.01
14.91
12.68
10.34
7.91
5.37
2.69
-0.13
-3.04
-5.94
-8.80
-11.69
-14.82
-18.41
-22.56
-27.10
-31.58
-35.30
-37.45
-37.31
-34.34
-28.42
-19.84
-9.38
1.82
12.57
21.90
29.26
34.62
38.26
40.54
41.79
42.20
41.97
41.33
40.64
40.19
40.20
40.64
41.35
42.11
42.79
43.36
43.88
44.37
44.75
44.84
44.49
43.68
42.60
41.57
40.94
40.92
41.53
42.56
43.64
44.40
44.49
43.81
42.44
40.67
38.86
37.27
35.96
34.77
33.36
31.44
28.92
25.98
23.01
20.36
18.15
16.19
14.10
11.51
8.21
4.28
-0.09
-4.62
-9.14
-13.52
-17.62
-21.28
-24.32
-26.68
-28.54
-30.31
-32.44
-35.33
-39.08
-43.50
-48.25
-52.87
-56.94
-60.01
-61.66
-61.48
-59.23
-54.98
-49.24
-42.83
-36.66
-31.47
-27.54
-24.76
-22.67
-20.69
-18.42
-15.61
-12.26
-8.51
-4.56
-0.67
2.88
5.78
7.72
8.50
8.13
6.86
5.15
3.51
2.28
1.51
0.95
0.11
-1.37
-3.64
-6.49
-9.47
-12.10
-14.02
-15.15
-15.69
-16.00
-16.57
-17.77
-19.77
-22.43
-25.22
-27.43
-28.25
-27.21
-24.26
-19.84
-14.73
-9.70
-5.34
-1.97
0.33
1.54
1.72
1.02
-0.22
-1.54
-2.39
-2.49
-1.83
-0.71
0.50
1.52
2.30
2.97
3.69
4.57
5.56
6.60
7.57
8.41
9.03
9.39
9.43
9.17
8.75
8.36
8.23
8.48
9.11
9.97
10.80
11.38
11.56
11.29
10.61
9.60
8.35
6.88
5.25
3.48
1.68
-0.04
-1.57
-2.86
-4.02
-5.24
-6.79
-8.80
-11.20
-13.65
-15.54
-16.26
-15.37
-12.81
-8.95
-4.49
-0.20
3.26
5.49
6.39
6.10
4.89
3.10
1.07
-0.88
-2.55
-3.86
-4.85
-5.60
-6.19
-6.66
-6.93
-6.94
-6.61
-5.97
-5.18
-4.52
-4.29
-4.70
-5.74
-7.19
-8.73
-10.09
-11.13
-11.84
-12.34
-12.70
-12.98
-13.13
-13.11
-12.90
-12.45
-11.71
-10.52
-8.76
-6.37
-3.43
-0.22
2.89
5.55
7.47
8.55
8.84
8.51
7.70
6.47
4.78
2.48
-0.49
-3.92
-7.40
-10.36
-12.26
-12.78
-11.94
-10.00
-7.35
-4.39
-1.51
0.95
2.71
3.53
3.42
2.59
1.45
0.47
-0.07
-0.08
0.31
0.86
1.39
1.83
2.15
2.37
2.47
2.43
2.28
2.14
2.18
2.48
3.03
3.64
4.04
4.01
3.44
2.39
0.97
-0.63
-2.20
-3.56
-4.57
-5.19
-5.44
-5.48
-5.52
-5.75
-6.31
-7.23
-8.47
-9.86
-11.18
-12.16
-12.56
-12.29
-11.46
-10.43
-9.67
-9.55
-10.13
-11.14
-11.97
-11.98
-10.73
-8.23
-4.89
-1.39
1.58
3.61
4.63
4.80
4.44
3.74
2.79
1.58
0.12
-1.45
-2.92
-4.03
-4.59
-4.59
-4.04
-3.04
-1.64
0.07
2.01
4.02
5.98
7.81
9.52
11.15
12.69
14.02
14.86
15.00
14.33
13.04
11.49
10.09
9.09
8.50
8.07
7.44
6.29
4.46
2.03
-0.71
-3.41
-5.75
-7.56
-8.82
-9.62
-10.10
-10.38
-10.54
-10.76
-11.19
-11.97
-13.04
-14.11
-14.63
-14.02
-11.90
-8.26
-3.49
1.71
6.59
10.53
13.18
14.48
14.59
13.86
12.61
11.11
9.50
7.88
6.32
4.96
4.01
3.58
3.65
3.98
4.24
4.14
3.66
2.97
2.44
2.41
3.08
4.44
6.36
8.60
10.89
12.95
14.43
15.04
14.59
13.11
10.86
8.23
5.63
3.36
1.50
-0.01
-1.37
-2.76
-4.24
-5.77
-7.20
-8.40
-9.35
-10.14
-10.99
-12.18
-13.90
-16.23
-18.96
-21.65
-23.69
-24.43
-23.47
-20.72
-16.48
-11.33
-5.93
-0.86
3.49
6.85
9.06
10.00
9.70
8.41
6.56
4.81
3.69
3.50
4.17
5.32
6.52
7.39
7.82
7.88
7.79
7.76
7.85
8.03
8.15
7.99
7.42
6.42
5.10
3.73
2.54
1.76
1.45
1.50
1.71
1.83
1.66
1.14
0.32
-0.70
-1.77
-2.83
-3.88
-4.95
-6.07
-7.25
-8.49
-9.72
-10.88
-11.82
-12.34
-12.14
-10.97
-8.73
-5.62
-2.04
1.46
4.36
6.42
7.65
8.25
8.47
8.43
8.06
7.23
5.84
4.04
2.17
0.66
-0.15
-0.25
0.08
0.36
0.21
-0.49
-1.52
-2.50
-3.10
-3.23
-3.10
-3.06
-3.38
-4.14
-5.13
-6.01
-6.52
-6.59
-6.38
-6.18
-6.26
-6.71
-7.46
-8.38
-9.35
-10.35
-11.49
-12.91
-14.76
-17.04
-19.71
-22.65
-25.70
-28.68
-31.21
-32.67
-32.25
-29.21
-23.25
-14.79
-5.01
4.55
12.47
18.01
21.24
22.83
23.55
23.87
23.83
23.27
22.11
20.55
19.11
18.27
18.29
19.00
19.94
20.55
20.52
19.86
18.86
17.94
17.41
17.26
17.26
16.99
16.12
14.50
12.25
9.61
6.90
4.32
1.96
-0.18
-2.10
-3.78
-5.26
-6.57
-7.83
-9.15
-10.61
-12.25
-14.01
-15.87
-17.80
-19.84
-22.09
-24.64
-27.52
-30.60
-33.44
-35.37
-35.66
-33.77
-29.58
-23.49
-16.32
-9.05
-2.41
3.15
7.58
11.00
13.61
15.49
16.73
17.40
17.66
17.73
17.85
18.17
18.73
19.46
20.19
20.74
21.05
21.11
21.04
20.90
20.68
20.23
19.38
17.99
16.06
13.75
11.29
8.96
7.00
5.63
5.00
5.17
5.94
6.92
7.53
7.32
6.10
4.12
1.96
0.24
-0.68
-0.78
-0.41
-0.01
0.02
-0.58
-2.00
-4.38
-7.81
-12.18
-16.95
-21.21
-23.85
-23.96
-21.24
-16.17
-9.77
-3.26
2.36
6.59
9.40
11.07
11.91
12.14
11.81
10.99
9.86
8.74
8.07
8.12
8.90
10.02
10.89
10.96
9.99
8.19
6.13
4.44
3.45
3.03
2.72
1.96
0.44
-1.76
-4.19
-6.25
-7.37
-7.31
-6.11
-4.11
-1.81
0.30
1.80
2.51
2.40
1.59
0.21
-1.63
-3.95
-6.78
-10.13
-13.93
-17.95
-21.84
-25.08
-27.05
-27.14
-24.96
-20.49
-14.19
-6.88
0.49
7.02
12.16
15.70
17.75
18.60
18.57
17.96
16.94
15.68
14.30
12.96
11.79
10.90
10.25
9.68
8.92
7.70
5.87
3.47
0.76
-1.93
-4.30
-6.22
-7.70
-8.86
-9.80
-10.63
-11.43
-12.30
-13.36
-14.74
-16.43
-18.34
-20.22
-21.82
-23.00
-23.89
-24.83
-26.25
-28.47
-31.55
-35.30
-39.26
-42.87
-45.53
-46.68
-45.99
-43.31
-38.84
-33.01
-26.47
-19.85
-13.65
-8.08
-3.11
1.40
5.53
9.20
12.26
14.53
15.96
16.72
17.09
17.37
17.64
17.77
17.45
16.29
14.05
10.76
6.74
2.48
-1.52
-4.96
-7.85
-10.44
-13.07
-15.89
-18.80
-21.45
-23.42
-24.51
-24.75
-24.36
-23.48
-22.06
-19.77
-16.26
-11.33
-5.22
1.52
8.14
13.99
18.69
22.12
24.41
25.90
27.01
28.31
30.34
33.51
37.90
43.24
48.91
54.26
58.80
62.36
65.05
67.05
68.43
69.10
68.81
67.33
64.61
60.93
56.78
52.74
49.31
46.66
44.66
42.96
41.16
39.05
36.60
33.89
31.02
27.89
24.28
19.97
14.84
9.02
2.85
-3.24
-8.86
-13.74
-17.77
-20.97
-23.48
-25.58
-27.59
-29.79
-32.37
-35.28
-38.38
-41.38
-44.08
-46.38
-48.36
-50.16
-51.98
-53.96
-56.14
-58.44
-60.51
-61.71
-61.16
-57.97
-51.64
-42.38
-31.23
-19.83
-9.92
-2.72
1.31
2.57
1.90
0.14
-2.14
-4.71
-7.52
-10.50
-13.45
-16.00
-17.73
-18.31
-17.56
-15.49
-12.31
-8.36
-4.09
-0.00
3.34
5.40
5.80
4.37
1.27
-2.98
-7.66
-12.05
-15.70
-18.56
-21.02
-23.72
-27.23
-31.81
-37.29
-43.14
-48.72
-53.58
-57.65
-61.28
-65.08
-69.68
-75.46
-82.30
-89.49
-95.81
-99.74
-99.86
-95.16
-85.42
-71.33
-54.27
-35.95
-18.03
-1.71
12.31
23.77
32.70
39.27
43.77
46.58
48.21
49.19
49.98
50.89
52.05
53.44
54.92
56.29
57.31
57.67
57.20
55.82
53.72
51.21
48.56
45.89
43.00
39.48
34.90
29.08
22.21
14.84
7.73
1.54
-3.35
-6.97
-9.68
-12.12
-15.16
-19.75
-26.66
-36.09
-47.35
-58.74
-67.88
-72.39
-70.66
-62.41
-48.82
-32.01
-14.39
2.03
15.95
26.87
34.88
40.42
44.06
46.37
47.87
48.86
49.51
49.78
49.64
49.04
48.08
46.96
45.95
45.24
44.85
44.67
44.45
43.92
42.89
41.20
38.80
35.67
31.93
27.75
23.42
19.20
15.23
11.49
7.81
4.05
0.18
-3.62
-7.14
-10.31
-13.38
-16.85
-21.36
-27.30
-34.60
-42.65
-50.19
-55.60
-57.23
-53.89
-45.21
-31.94
-15.73
1.31
17.23
30.72
41.28
49.03
54.31
57.42
58.55
57.90
55.94
53.32
50.76
48.81
47.68
47.23
47.16
47.16
46.95
46.34
45.14
43.23
40.51
37.00
32.86
28.32
23.69
19.29
15.48
12.49
10.47
9.38
8.94
8.72
8.25
7.15
5.24
2.62
-0.49
-3.77
-6.98
-10.04
-13.03
-16.09
-19.48
-23.43
-28.22
-34.11
-41.20
-49.24
-57.37
-64.17
-67.90
-67.03
-60.88
-49.82
-35.24
-19.04
-3.03
11.49
23.87
33.88
41.49
46.76
49.76
50.75
50.11
48.38
45.98
43.27
40.44
37.61
34.86
32.35
30.21
28.54
27.30
26.36
25.50
24.45
23.01
21.02
18.44
15.32
11.78
8.02
4.24
0.57
-2.94
-6.37
-9.92
-13.84
-18.27
-23.05
-27.78
-31.90
-34.97
-36.99
-38.38
-39.92
-42.47
-46.59
-52.37
-59.38
-66.79
-73.50
-78.29
-80.03
-77.88
-71.51
-61.27
-48.19
-33.69
-19.31
-6.27
4.72
13.42
19.96
24.60
27.59
29.10
29.35
28.59
27.22
25.64
24.26
23.28
22.72
22.43
22.16
21.74
21.05
20.04
18.66
16.80
14.37
11.37
7.94
4.32
0.77
-2.57
-5.72
-8.78
-11.89
-15.12
-18.44
-21.79
-25.11
-28.30
-31.33
-34.17
-36.95
-39.93
-43.42
-47.58
-52.09
-56.10
-58.28
-57.24
-52.07
-42.72
-30.05
-15.53
-0.73
13.18
25.54
36.18
45.13
52.43
58.11
62.20
64.89
66.49
67.33
67.70
67.74
67.51
67.07
66.51
65.89
65.12
63.94
62.00
58.96
54.76
49.59
43.85
37.95
32.20
26.72
21.45
16.34
11.35
6.47
1.69
-3.06
-7.91
-12.95
-18.26
-23.83
-29.64
-35.75
-42.24
-49.08
-56.01
-62.33
-66.99
-68.84
-66.99
-61.13
-51.72
-39.81
-26.83
-14.11
-2.70
6.78
14.08
19.30
22.72
24.77
25.91
26.60
27.15
27.72
28.37
29.03
29.61
30.07
30.39
30.60
30.75
30.89
30.97
30.95
30.69
30.03
28.88
27.21
25.08
22.65
20.03
17.33
14.53
11.51
8.07
4.06
-0.56
-5.65
-10.96
-16.17
-21.12
-25.85
-30.67
-36.03
-42.31
-49.56
-57.32
-64.60
-70.12
-72.61
-71.21
-65.71
-56.62
-44.97
-32.06
-19.04
-6.79
4.14
13.47
21.00
26.61
30.20
31.83
31.77
30.52
28.73
27.04
25.91
25.49
25.66
26.11
26.56
26.82
26.89
26.84
26.71
26.52
26.17
25.54
24.49
22.98
21.04
18.76
16.30
13.77
11.25
8.71
6.08
3.20
-0.03
-3.61
-7.47
-11.50
-15.56
-19.59
-23.54
-27.38
-31.13
-34.85
-38.70
-42.83
-47.41
-52.35
-57.28
-61.49
-64.03
-63.97
-60.63
-53.84
-43.98
-31.99
-19.11
-6.67
4.29
13.14
19.71
24.22
27.05
28.59
29.20
29.15
28.69
28.06
27.47
27.09
26.96
27.09
27.45
28.05
28.90
29.96
31.17
32.36
33.25
33.58
33.10
31.68
29.34
26.31
22.90
19.45
16.16
13.06
10.00
6.77
3.22
-0.65
-4.74
-8.83
-12.68
-16.18
-19.25
-21.97
-24.49
-26.95
-29.53
-32.35
-35.40
-38.46
-41.13
-42.82
-42.96
-41.14
-37.27
-31.61
-24.65
-16.92
-8.88
-0.88
6.76
13.69
19.51
23.89
26.62
27.77
27.61
26.57
25.04
23.39
21.87
20.68
19.96
19.76
20.06
20.72
21.50
22.19
22.51
22.27
21.37
19.84
17.90
15.90
14.21
13.11
12.66
12.71
12.92
12.94
12.49
11.53
10.17
8.70
7.43
6.63
6.49
7.01
8.08
9.49
11.02
12.41
13.48
14.08
14.12
13.62
12.69
11.48
10.17
8.84
7.52
6.12
4.55
2.68
0.45
-2.14
-5.05
-8.17
-11.30
-14.25
-16.81
-18.80
-20.10
-20.67
-20.57
-19.90
-18.75
-17.21
-15.27
-12.84
-9.83
-6.24
-2.26
1.74
5.38
8.32
10.43
11.72
12.27
12.18
11.54
10.51
9.38
8.49
8.16
8.46
9.22
10.03
10.48
10.35
9.76
9.06
8.68
8.89
9.74
11.05
12.54
13.96
15.17
16.19
17.15
18.28
19.86
22.11
25.11
28.62
32.16
35.05
36.62
36.48
34.61
31.31
27.05
22.29
17.31
12.32
7.40
2.67
-1.78
-5.86
-9.59
-13.03
-16.23
-19.24
-21.92
-24.10
-25.58
-26.26
-26.22
-25.68
-24.98
-24.46
-24.37
-24.81
-25.71
-26.86
-27.92
-28.56
-28.50
-27.67
-26.19
-24.42
-22.77
-21.56
-20.93
-20.83
-21.10
-21.61
-22.41
-23.63
-25.49
-28.07
-31.31
-34.94
-38.46
-41.32
-42.97
-42.99
-41.19
-37.70
-32.95
-27.57
-22.32
-17.81
-14.51
-12.58
-11.89
-12.12
-12.86
-13.72
-14.49
-15.07
-15.44
-15.57
-15.39
-14.80
-13.81
-12.61
-11.49
-10.76
-10.59
-10.88
-11.39
-11.87
-12.21
-12.55
-13.13
-14.20
-15.83
-17.87
-20.09
-22.19
-23.95
-25.31
-26.32
-27.22
-28.24
-29.67
-31.68
-34.27
-37.29
-40.40
-43.11
-44.83
-45.02
-43.24
-39.36
-33.64
-26.72
-19.42
-12.52
-6.50
-1.53
2.49
5.72
8.18
9.75
10.25
9.67
8.25
6.42
4.66
3.22
2.11
1.11
0.00
-1.29
-2.64
-3.76
-4.37
-4.42
-4.05
-3.58
-3.38
-3.66
-4.48
-5.76
-7.28
-8.86
-10.28
-11.31
-11.73
-11.39
-10.22
-8.39
-6.22
-4.07
-2.19
-0.62
0.81
2.38
4.35
6.82
9.78
13.08
16.53
19.91
23.03
25.75
28.00
29.82
31.33
32.68
33.98
35.27
36.59
38.02
39.68
41.72
44.23
47.20
50.44
53.65
56.51
58.65
59.75
59.48
57.54
53.70
47.93
40.49
31.93
23.02
14.53
7.10
1.03
-3.70
-7.41
-10.49
-13.24
-15.76
-17.92
-19.49
-20.25
-20.19
-19.53
-18.72
-18.25
-18.47
-19.40
-20.61
-21.35
-20.71
-17.97
-12.90
-5.91
2.02
9.64
15.83
19.97
21.97
22.32
21.66
20.59
19.46
18.38
17.36
16.40
15.62
15.12
14.93
14.94
14.99
14.96
14.83
14.69
14.53
14.26
13.59
12.22
10.01
7.12
3.95
0.95
-1.61
-3.79
-5.91
-8.40
-11.54
-15.38
-19.70
-24.14
-28.27
-31.80
-34.59
-36.71
-38.45
-40.22
-42.45
-45.46
-49.30
-53.75
-58.23
-62.02
-64.37
-64.71
-62.81
-58.82
-53.18
-46.55
-39.65
-33.09
-27.35
-22.65
-19.03
-16.35
-14.37
-12.82
-11.48
-10.21
-8.94
-7.65
-6.34
-4.99
-3.51
-1.85
0.06
2.26
4.75
7.46
10.24
12.82
14.92
16.32
16.95
16.98
16.72
16.50
16.50
16.61
16.52
15.77
14.00
11.13
7.39
3.26
-0.76
-4.27
-7.15
-9.56
-11.86
-14.51
-17.88
-22.15
-27.13
-32.33
-37.01
-40.42
-42.07
-41.93
-40.49
-38.58
-36.97
-35.99
-35.26
-33.81
-30.50
-24.44
-15.42
-3.97
8.78
21.52
33.09
42.74
50.19
55.61
59.44
62.22
64.40
66.35
68.31
70.39
72.60
74.78
76.60
77.57
77.18
75.11
71.34
66.18
60.11
53.59
46.93
40.22
33.46
26.57
19.48
12.20
4.87
-2.23
-8.65
-13.88
-17.48
-19.33
-19.60
-18.75
-17.33
-15.82
-14.46
-13.35
-12.50
-11.96
-11.79
-11.98
-12.33
-12.38
-11.55
-9.36
-5.64
-0.72
4.64
9.41
12.69
13.94
13.15
10.79
7.61
4.35
1.51
-0.68
-2.26
-3.37
-4.16
-4.70
-5.05
-5.26
-5.50
-6.00
-6.99
-8.54
-10.48
-12.49
-14.21
-15.39
-16.05
-16.46
-17.01
-18.03
-19.73
-22.07
-24.86
-27.87
-30.84
-33.62
-36.11
-38.36
-40.54
-42.93
-45.85
-49.62
-54.52
-60.57
-67.50
-74.59
-80.73
-84.69
-85.58
-83.23
-78.27
-71.86
-65.15
-58.82
-52.83
-46.62
-39.59
-31.50
-22.59
-13.48
-4.78
3.09
9.97
15.86
20.80
24.81
27.96
30.42
32.42
34.22
35.98
37.74
39.40
40.78
41.68
41.95
41.56
40.57
39.13
37.40
35.54
33.59
31.49
29.13
26.36
23.10
19.37
15.29
10.99
6.57
1.98
-2.86
-8.05
-13.58
-19.25
-24.67
-29.43
-33.28
-36.30
-38.91
-41.76
-45.45
-50.34
-56.33
-62.87
-69.10
-73.99
-76.51
-75.88
-71.64
-63.83
-52.99
-40.12
-26.51
-13.41
-1.77
7.95
15.76
21.98
26.98
31.02
34.20
36.49
37.94
38.74
39.17
39.60
40.33
41.47
43.00
44.76
46.59
48.34
49.96
51.43
52.74
53.81
54.52
54.75
54.43
53.59
52.32
50.71
48.81
46.59
43.98
40.98
37.60
33.93
30.01
25.82
21.30
16.46
11.37
6.27
1.43
-2.94
-6.81
-10.38
-14.04
-18.24
-23.34
-29.45
-36.29
-43.14
-49.00
-52.72
-53.28
-50.10
-43.18
-33.16
-21.15
-8.48
3.58
14.10
22.58
28.89
33.16
35.63
36.52
36.03
34.42
32.05
29.48
27.36
26.30
26.74
28.69
31.81
35.47
38.93
41.60
43.17
43.61
43.08
41.77
39.80
37.15
33.79
29.70
24.97
19.78
14.35
8.87
3.49
-1.76
-6.88
-11.95
-17.05
-22.30
-27.70
-33.18
-38.52
-43.44
-47.70
-51.29
-54.46
-57.75
-61.74
-66.94
-73.44
-80.81
-88.09
-93.92
-96.80
-95.48
-89.23
-78.10
-62.96
-45.38
-27.26
-10.38
4.02
15.42
24.00
30.38
35.22
39.01
42.04
44.45
46.48
48.50
50.94
54.12
58.05
62.37
66.54
70.09
72.78
74.63
75.82
76.43
76.37
75.39
73.24
69.90
65.61
60.80
55.91
51.21
46.76
42.47
38.25
34.01
29.74
25.40
20.94
16.21
11.11
5.56
-0.43
-6.73
-13.17
-19.51
-25.52
-31.07
-36.27
-41.44
-47.11
-53.79
-61.68
-70.48
-79.31
-86.88
-91.67
-92.37
-88.16
-78.96
-65.53
-49.33
-32.14
-15.64
-1.02
11.16
20.87
28.46
34.30
38.71
41.92
44.21
45.88
47.29
48.71
50.26
51.85
53.30
54.42
55.08
55.27
55.06
54.55
53.79
52.75
51.33
49.42
46.95
43.97
40.63
37.17
33.76
30.52
27.41
24.31
21.10
17.76
14.37
11.09
8.07
5.33
2.75
0.09
-2.87
-6.29
-10.13
-14.24
-18.38
-22.38
-26.16
-29.81
-33.55
-37.67
-42.45
-48.02
-54.34
-61.03
-67.47
-72.83
-76.21
-76.80
-74.12
-68.07
-59.03
-47.77
-35.34
-22.89
-11.42
-1.65
6.06
11.74
15.67
18.23
19.79
20.65
21.01
21.07
21.06
21.20
21.78
22.94
24.69
26.88
29.23
31.45
33.33
34.76
35.75
36.34
36.52
36.23
35.39
33.92
31.82
29.15
26.04
22.70
19.33
16.12
13.12
10.29
7.42
4.27
0.68
-3.31
-7.47
-11.48
-15.07
-18.26
-21.30
-24.66
-28.81
-34.10
-40.59
-48.02
-55.83
-63.23
-69.31
-73.24
-74.33
-72.18
-66.72
-58.30
-47.59
-35.53
-23.18
-11.53
-1.34
6.98
13.38
18.03
21.20
23.11
23.89
23.65
22.56
20.90
19.02
17.23
15.72
14.53
13.48
12.32
10.76
8.58
5.67
2.02
-2.26
-6.96
-11.81
-16.45
-20.48
-23.59
-25.59
-26.50
-26.56
-26.16
-25.71
-25.55
-25.85
-26.55
-27.45
-28.26
-28.81
-29.07
-29.16
-29.29
-29.62
-30.24
-31.15
-32.37
-33.96
-36.09
-39.02
-42.98
-48.03
-54.00
-60.40
-66.51
-71.45
-74.28
-74.22
-70.77
-63.87
-53.88
-41.53
-27.81
-13.71
-0.16
12.14
22.74
31.41
38.16
43.20
46.90
49.73
52.22
54.79
57.71
61.09
64.82
68.71
72.41
75.58
77.92
79.28
79.65
79.22
78.26
77.03
75.75
74.54
73.44
72.41
71.44
70.42
69.26
67.87
66.26
64.51
62.73
60.96
59.16
57.17
54.83
52.09
48.98
45.57
41.98
38.29
34.58
30.93
27.39
23.85
20.08
15.67
10.31
3.87
-3.33
-10.66
-17.26
-22.32
-25.29
-25.99
-24.58
-21.52
-17.36
-12.67
-7.94
-3.52
0.36
3.59
6.11
7.88
8.87
9.07
8.55
7.45
6.00
4.48
3.14
2.18
1.68
1.62
1.89
2.36
2.91
3.46
3.97
4.37
4.57
4.40
3.69
2.32
0.26
-2.33
-5.23
-8.15
-10.93
-13.48
-15.88
-18.27
-20.79
-23.48
-26.30
-29.06
-31.59
-33.74
-35.49
-36.93
-38.30
-39.85
-41.87
-44.53
-47.82
-51.44
-54.79
-57.11
-57.73
-56.33
-53.05
-48.45
-43.22
-38.00
-33.12
-28.70
-24.77
-21.40
-18.72
-16.85
-15.81
-15.39
-15.32
-15.35
-15.31
-15.20
-14.98
-14.56
-13.82
-12.67
-11.16
-9.47
-7.87
-6.56
-5.55
-4.58
-3.28
-1.20
1.94
6.18
11.25
16.64
21.71
25.81
28.43
29.29
28.37
25.89
22.19
17.66
12.65
7.38
1.89
-3.86
-10.05
-16.85
-24.27
-32.09
-39.82
-46.80
-52.33
-55.82
-56.93
-55.57
-51.90
-46.33
-39.43
-31.86
-24.26
-17.19
-11.01
-5.85
-1.72
1.50
3.95
5.81
7.29
8.58
9.91
11.43
13.23
15.35
17.76
20.43
23.28
26.20
29.04
31.66
33.91
35.70
37.00
37.85
38.34
38.56
38.61
38.53
38.33
38.01
37.57
37.06
36.57
36.22
36.14
36.40
37.05
38.08
39.40
40.84
42.10
42.80
42.55
41.12
38.52
35.14
31.65
28.85
27.45
27.76
29.66
32.58
35.76
38.47
40.20
40.72
40.06
38.38
35.89
32.84
29.47
26.01
22.73
19.86
17.61
16.11
15.41
15.44
15.97
16.69
17.24
17.38
16.94
15.90
14.24
11.98
9.09
5.57
1.61
-2.49
-6.25
-9.26
-11.27
-12.34
-12.82
-13.21
-13.98
-15.39
-17.42
-19.86
-22.45
-24.96
-27.27
-29.38
-31.38
-33.41
-35.58
-37.96
-40.42
-42.58
-43.86
-43.59
-41.21
-36.55
-29.97
-22.23
-14.34
-7.22
-1.48
2.67
5.40
7.03
7.91
8.24
8.14
7.66
6.85
5.92
5.12
4.75
5.03
6.02
7.64
9.69
11.94
14.17
16.20
17.86
19.01
19.51
19.28
18.33
16.80
14.84
12.58
10.05
7.15
3.77
-0.14
-4.49
-9.02
-13.43
-17.50
-21.18
-24.59
-27.93
-31.32
-34.77
-38.13
-41.20
-43.78
-45.63
-46.41
-45.71
-43.10
-38.35
-31.68
-23.83
-15.86
-8.88
-3.62
-0.30
1.36
1.85
1.61
0.91
-0.14
-1.47
-2.88
-4.08
-4.73
-4.64
-3.80
-2.44
-0.92
0.42
1.42
2.09
2.59
3.09
3.62
4.09
4.26
3.94
3.02
1.61
-0.04
-1.64
-2.95
-3.90
-4.57
-5.20
-5.99
-7.13
-8.66
-10.54
-12.58
-14.57
-16.33
-17.78
-18.93
-19.92
-20.93
-22.20
-23.98
-26.50
-29.76
-33.50
-37.02
-39.36
-39.55
-37.02
-31.83
-24.73
-16.89
-9.46
-3.22
1.62
5.34
8.38
11.10
13.63
15.87
17.68
19.01
20.00
20.86
21.87
23.15
24.69
26.36
28.00
29.52
30.89
32.13
33.17
33.80
33.73
32.66
30.48
27.32
23.61
19.92
16.81
14.62
13.31
12.57
11.84
10.65
8.74
6.18
3.27
0.41
-2.10
-4.19
-6.02
-7.87
-10.05
-12.66
-15.64
-18.77
-21.77
-24.40
-26.54
-28.19
-29.46
-30.55
-31.73
-33.29
-35.50
-38.42
-41.83
-45.08
-47.19
-47.13
-44.26
-38.57
-30.83
-22.27
-14.22
-7.63
-2.87
0.23
2.14
3.39
4.33
5.14
5.86
6.52
7.10
7.62
8.08
8.54
9.02
9.57
10.22
10.97
11.80
12.67
13.52
14.27
14.82
14.97
14.60
13.59
12.06
10.21
8.39
6.85
5.72
4.89
4.11
3.15
1.88
0.37
-1.20
-2.63
-3.83
-4.85
-5.86
-7.06
-8.58
-10.40
-12.40
-14.31
-15.90
-16.97
-17.51
-17.63
-17.58
-17.69
-18.32
-19.79
-22.29
-25.75
-29.72
-33.39
-35.74
-35.85
-33.30
-28.34
-21.81
-14.83
-8.36
-2.91
1.41
4.78
7.35
9.21
10.34
10.83
10.86
10.73
10.69
10.86
11.18
11.56
11.91
12.21
12.52
12.90
13.37
13.88
14.35
14.63
14.65
14.31
13.62
12.66
11.56
10.46
9.43
8.49
7.65
6.94
6.37
5.96
5.61
5.15
4.43
3.40
2.15
0.91
-0.06
-0.69
-1.03
-1.34
-1.86
-2.73
-3.93
-5.33
-6.77
-8.18
-9.60
-11.10
-12.73
-14.51
-16.43
-18.56
-21.02
-23.99
-27.49
-31.23
-34.60
-36.68
-36.64
-33.96
-28.72
-21.61
-13.67
-5.98
0.67
5.91
9.75
12.46
14.31
15.47
16.01
16.02
15.62
15.05
14.60
14.49
14.85
15.61
16.62
17.67
18.56
19.16
19.41
19.30
18.84
18.11
17.16
16.12
15.08
14.04
12.92
11.61
10.00
8.13
6.13
4.22
2.60
1.35
0.40
-0.36
-1.06
-1.71
-2.21
-2.43
-2.28
-1.73
-0.90
0.02
0.85
1.37
1.49
1.14
0.36
-0.79
-2.19
-3.75
-5.40
-7.14
-9.08
-11.36
-14.15
-17.48
-21.16
-24.72
-27.42
-28.51
-27.42
-24.02
-18.78
-12.52
-6.31
-1.02
2.86
5.27
6.45
6.74
6.47
5.86
5.09
4.33
3.72
3.37
3.34
3.64
4.18
4.90
5.71
6.57
7.45
8.31
9.12
9.80
10.22
10.24
9.71
8.59
6.99
5.18
3.53
2.31
1.59
1.20
0.81
0.14
-0.93
-2.29
-3.70
-4.87
-5.66
-6.08
-6.28
-6.45
-6.76
-7.29
-7.99
-8.75
-9.40
-9.83
-10.08
-10.32
-10.86
-11.96
-13.73
-15.98
-18.21
-19.77
-20.01
-18.48
-15.08
-10.13
-4.24
1.81
7.23
11.51
14.40
15.95
16.36
15.89
14.75
13.12
11.20
9.24
7.47
6.13
5.26
4.81
4.61
4.50
4.40
4.29
4.23
4.31
4.55
4.93
5.30
5.47
5.22
4.45
3.16
1.53
-0.15
-1.65
-2.84
-3.76
-4.53
-5.26
-5.99
-6.63
-7.12
-7.52
-7.94
-8.56
-9.48
-10.69
-12.02
-13.22
-14.14
-14.77
-15.25
-15.83
-16.74
-18.15
-20.01
-22.05
-23.76
-24.44
-23.44
-20.37
-15.25
-8.54
-1.05
6.30
12.76
17.77
21.14
22.89
23.26
22.58
21.19
19.43
17.54
15.63
13.79
12.09
10.63
9.57
8.99
8.89
9.13
9.52
9.88
10.07
10.03
9.74
9.18
8.30
7.12
5.72
4.25
2.86
1.68
0.73
-0.04
-0.74
-1.43
-2.13
-2.79
-3.28
-3.53
-3.56
-3.48
-3.47
-3.74
-4.35
-5.26
-6.34
-7.40
-8.26
-8.86
-9.29
-9.70
-10.33
-11.38
-12.94
-14.87
-16.75
-17.92
-17.68
-15.53
-11.38
-5.70
0.64
6.57
11.26
14.20
15.45
15.33
14.36
12.92
11.29
9.60
7.93
6.37
5.04
4.00
3.30
2.94
2.88
3.12
3.65
4.40
5.24
5.95
6.31
6.21
5.62
4.65
3.39
1.90
0.20
-1.71
-3.72
-5.63
-7.21
-8.30
-8.93
-9.31
-9.78
-10.59
-11.88
-13.62
-15.64
-17.71
-19.54
-20.77
-21.03
-20.04
-17.63
-14.03
-9.76
-5.56
-2.11
0.28
1.79
3.09
5.08
8.56
13.85
20.72
28.37
35.74
41.77
45.72
47.29
46.60
44.05
40.12
35.22
29.60
23.34
16.38
8.58
-0.20
-10.05
-20.88
-32.38
-44.11
-55.71
-67.02
-78.29
-90.03
-102.82
-116.91
-132.06
-147.55
-162.45
-176.06
-188.18
-199.32
-210.50
-222.89
-237.37
-254.08
-272.20
-289.98
-305.15
-315.51
-319.70
-317.55
-310.09
-299.02
-285.87
-271.32
-254.98
-235.47
-210.99
-180.01
-141.91
-97.58
-49.59
-1.81
41.57
77.30
104.34
124.19
140.19
155.99
173.94
194.36
215.88
236.51
254.78
270.05
282.15
290.55
293.86
289.93
276.68
252.89
218.87
176.61
129.39
81.17
35.85
-3.45
-34.88
-58.14
-74.13
-84.47
-90.73
-94.07
-94.98
-93.52
-89.42
-82.42
-72.40
-59.59
-44.76
-29.28
-14.95
-3.48
4.08
7.90
9.36
10.57
13.63
19.93
29.86
42.94
58.24
74.66
91.21
107.05
121.48
133.98
144.24
152.11
157.47
160.06
159.41
155.02
146.69
135.01
121.45
108.04
96.81
88.94
84.35
81.71
78.99
74.17
65.80
53.28
36.87
17.45
-3.73
-25.33
-46.07
-64.78
-80.45
-92.22
-99.43
-101.71
-99.09
-92.02
-81.28
-67.87
-52.85
-37.21
-21.89
-7.58
5.58
18.21
31.72
47.77
67.22
89.29
111.45
130.38
143.70
151.37
156.09
162.08
173.00
190.13
211.79
234.28
253.74
267.79
276.09
279.78
280.19
277.82
272.03
261.59
245.66
224.56
199.94
174.28
149.88
128.10
108.93
91.32
74.02
56.36
38.73
22.29
8.18
-3.37
-13.27
-23.26
-34.86
-48.58
-63.57
-78.13
-90.50
-99.74
-105.99
-110.12
-113.10
-115.45
-117.12
-117.76
-117.04
-115.06
-112.22
-109.09
-105.95
-102.68
-98.87
-94.20
-88.75
-83.07
-77.92
-73.84
-70.76
-67.95
-64.33
-59.01
-51.71
-42.87
-33.46
-24.54
-16.90
-10.88
-6.37
-3.07
-0.63
1.28
2.95
4.65
6.62
9.07
12.07
15.53
19.13
22.44
24.99
26.42
26.55
25.50
23.56
21.13
18.54
16.05
13.68
11.37
9.02
6.60
4.21
2.01
0.12
-1.47
-2.94
-4.56
-6.53
-8.92
-11.58
-14.22
-16.51
-18.34
-19.77
-21.13
-22.84
-25.29
-28.65
-32.69
-36.76
-39.96
-41.39
-40.52
-37.35
-32.54
-27.10
-22.04
-18.09
-15.50
-14.14
-13.76
-14.15
-15.20
-16.78
-18.67
-20.44
-21.64
-21.96
-21.40
-20.24
-18.95
-17.90
-17.24
-16.91
-16.68
-16.37
-15.93
-15.46
-15.10
-14.94
-14.98
-15.09
-15.19
-15.21
-15.15
-15.07
-15.02
-15.03
-15.05
-15.04
-14.91
-14.64
-14.24
-13.78
-13.34
-12.96
-12.71
-12.57
-12.53
-12.61
-12.83
-13.24
-13.86
-14.63
-15.41
-16.02
-16.35
-16.43
-16.41
-16.52
-16.94
-17.77
-18.90
-20.02
-20.71
-20.48
-18.96
-15.96
-11.65
-6.51
-1.22
3.47
7.06
9.27
10.18
10.01
9.06
7.63
5.96
4.30
2.84
1.74
1.03
0.73
0.83
1.22
1.83
2.57
3.31
3.97
4.50
4.91
5.25
5.47
5.48
5.15
4.35
3.08
1.45
-0.33
-2.10
-3.73
-5.27
-6.77
-8.28
-9.76
-11.05
-12.05
-12.66
-12.96
-13.08
-13.21
-13.49
-13.97
-14.67
-15.57
-16.64
-17.80
-18.90
-19.81
-20.44
-20.85
-21.21
-21.71
-22.50
-23.54
-24.63
-25.46
-25.69
-25.01
-23.17
-20.05
-15.75
-10.57
-5.08
0.07
4.26
7.11
8.57
8.84
8.33
7.51
6.83
6.63
7.10
8.20
9.72
11.34
12.80
13.95
14.78
15.41
15.92
16.36
16.73
16.96
17.03
16.93
16.64
16.10
15.21
13.83
11.95
9.65
7.18
4.88
3.06
1.92
1.41
1.27
1.14
0.69
-0.17
-1.26
-2.21
-2.70
-2.64
-2.22
-1.85
-1.98
-2.86
-4.48
-6.63
-8.97
-11.25
-13.32
-15.16
-16.78
-18.20
-19.44
-20.60
-21.84
-23.35
-25.25
-27.39
-29.30
-30.32
-29.78
-27.36
-23.19
-17.86
-12.13
-6.62
-1.71
2.56
6.27
9.51
12.25
14.43
15.96
16.88
17.25
17.19
16.75
15.96
14.86
13.55
12.20
11.00
10.12
9.64
9.54
9.71
9.94
10.00
9.69
8.90
7.64
6.07
4.37
2.80
1.51
0.56
-0.14
-0.77
-1.52
-2.56
-3.86
-5.27
-6.55
-7.52
-8.09
-8.30
-8.26
-8.11
-8.00
-8.04
-8.34
-8.94
-9.81
-10.84
-11.88
-12.76
-13.41
-13.87
-14.26
-14.72
-15.45
-16.57
-18.16
-20.24
-22.67
-25.13
-27.13
-28.08
-27.44
-24.94
-20.60
-14.88
-8.50
-2.26
3.19
7.54
10.81
13.32
15.39
17.23
18.82
19.99
20.56
20.52
20.02
19.34
18.72
18.23
17.82
17.33
16.67
15.86
14.98
14.10
13.16
12.05
10.62
8.84
6.80
4.76
2.97
1.57
0.52
-0.35
-1.28
-2.40
-3.68
-4.98
-6.11
-7.04
-7.87
-8.84
-10.18
-11.92
-13.90
-15.82
-17.39
-18.51
-19.26
-19.87
-20.56
-21.55
-22.94
-24.81
-27.18
-29.89
-32.59
-34.70
-35.52
-34.46
-31.31
-26.27
-19.91
-12.95
-6.06
0.27
5.76
10.23
13.59
15.82
17.04
17.42
17.28
16.92
16.59
16.46
16.56
16.83
17.17
17.50
17.80
18.07
18.37
18.69
18.96
19.04
18.78
18.11
17.08
15.83
14.54
13.38
12.39
11.51
10.61
9.54
8.16
6.47
4.60
2.73
1.12
-0.17
-1.19
-2.20
-3.44
-5.06
-6.98
-8.99
-10.83
-12.43
-13.84
-15.27
-16.95
-18.99
-21.41
-24.16
-27.10
-29.99
-32.45
-33.92
-33.81
-31.68
-27.47
-21.48
-14.37
-6.88
0.37
6.95
12.64
17.31
20.88
23.34
24.79
25.39
25.37
24.97
24.32
23.56
22.80
22.15
21.75
21.64
21.81
22.16
22.53
22.81
22.88
22.65
22.00
20.86
19.23
17.21
15.03
12.93
11.08
9.52
8.14
6.80
5.38
3.86
2.33
0.91
-0.28
-1.19
-1.87
-2.42
-3.05
-3.91
-5.09
-6.59
-8.32
-10.15
-12.00
-13.85
-15.77
-17.81
-20.02
-22.38
-24.86
-27.41
-29.99
-32.50
-34.72
-36.28
-36.68
-35.48
-32.45
-27.76
-21.95
-15.80
-10.07
-5.31
-1.72
0.77
2.39
3.31
3.64
3.41
2.66
1.57
0.41
-0.46
-0.75
-0.28
0.97
2.92
5.38
8.18
11.12
14.01
16.68
18.95
20.69
21.77
22.17
21.92
21.11
19.84
18.25
16.45
14.59
12.82
11.30
10.11
9.19
8.33
7.28
5.83
3.95
1.77
-0.44
-2.51
-4.47
-6.44
-8.65
-11.21
-14.13
-17.29
-20.65
-24.29
-28.38
-33.02
-38.04
-42.89
-46.72
-48.69
-48.20
-45.20
-40.12
-33.73
-26.87
-20.24
-14.34
-9.51
-6.03
-4.14
-3.96
-5.53
-8.68
-13.18
-18.67
-24.71
-30.79
-36.34
-40.76
-43.53
-44.27
-42.86
-39.38
-34.08
-27.40
-19.80
-11.81
-3.93
3.41
9.88
15.19
19.09
21.35
21.75
20.24
17.08
12.80
8.09
3.54
-0.59
-4.42
-8.28
-12.43
-16.88
-21.25
-25.01
-27.78
-29.52
-30.65
-31.87
-33.92
-37.33
-42.21
-48.16
-54.30
-59.24
-61.33
-59.02
-51.23
-37.79
-19.58
1.52
23.09
42.63
58.10
68.28
72.81
72.08
67.10
59.18
49.83
40.54
32.63
27.11
24.53
24.90
27.76
32.25
37.32
42.00
45.52
47.56
48.18
47.79
46.89
45.85
44.73
43.33
41.27
38.23
34.07
28.87
22.85
16.28
9.40
2.43
-4.43
-10.97
-17.09
-22.80
-28.15
-33.16
-37.74
-41.81
-45.28
-48.27
-51.17
-54.53
-58.93
-64.76
-71.98
-80.10
-88.06
-94.39
-97.33
-95.16
-86.69
-71.74
-51.35
-27.68
-3.47
18.74
37.22
51.30
61.28
67.91
71.98
74.05
74.52
73.80
72.54
71.51
71.45
72.73
75.27
78.51
81.72
84.25
85.71
85.97
85.09
83.12
80.05
75.85
70.57
64.44
57.85
51.30
45.15
39.55
34.37
29.27
23.92
18.19
12.23
6.46
1.33
-2.85
-6.07
-8.64
-11.04
-13.74
-17.00
-20.83
-24.97
-29.09
-32.90
-36.32
-39.55
-43.06
-47.44
-53.16
-60.32
-68.37
-76.07
-81.71
-83.53
-80.23
-71.42
-57.77
-40.80
-22.47
-4.72
10.96
23.67
33.05
39.16
42.31
42.98
41.72
39.18
36.05
32.98
30.48
28.78
27.82
27.36
27.08
26.77
26.38
25.96
25.48
24.80
23.61
21.63
18.73
15.04
10.94
6.90
3.24
0.08
-2.67
-5.20
-7.70
-10.21
-12.75
-15.30
-17.86
-20.45
-23.11
-25.92
-28.96
-32.39
-36.34
-40.88
-45.93
-51.24
-56.48
-61.39
-65.84
-69.97
-74.10
-78.67
-84.12
-90.71
-98.33
-106.33
-113.36
-117.60
-117.13
-110.51
-97.31
-78.39
-55.67
-31.64
-8.63
11.71
28.53
41.70
51.37
57.82
61.35
62.43
61.87
60.77
60.31
61.38
64.30
68.77
74.08
79.51
84.61
89.29
93.76
98.14
102.30
105.81
108.08
108.64
107.42
104.74
101.27
97.64
94.27
91.24
88.29
85.06
81.22
76.50
70.80
64.06
56.30
47.55
37.89
27.39
16.15
4.26
-8.14
-20.81
-33.39
-45.43
-56.54
-66.50
-75.41
-83.66
-91.90
-100.77
-110.69
-121.56
-132.54
-142.07
-148.13
-148.69
-142.42
-129.17
-110.12
-87.48
-63.85
-41.54
-22.05
-6.00
6.65
16.15
22.75
26.63
28.06
27.63
26.20
24.79
24.25
24.99
27.01
29.97
33.41
36.94
40.32
43.41
46.14
48.47
50.38
51.82
52.77
53.21
53.13
52.66
52.02
51.53
51.51
52.16
53.50
55.40
57.61
59.83
61.82
63.44
64.60
65.29
65.38
64.59
62.41
58.19
51.33
41.55
29.03
14.51
-0.90
-16.05
-30.06
-42.48
-53.38
-63.21
-72.61
-82.29
-92.82
-104.47
-116.96
-129.18
-139.21
-144.56
-142.89
-132.74
-114.24
-89.11
-60.22
-30.66
-2.95
21.38
41.77
58.21
70.79
79.51
84.35
85.46
83.37
78.95
73.28
67.35
61.92
57.28
53.42
50.15
47.25
44.64
42.34
40.39
38.71
37.07
35.05
32.29
28.59
24.07
19.12
14.32
10.17
6.92
4.46
2.41
0.24
-2.45
-5.78
-9.48
-13.02
-15.91
-17.88
-19.03
-19.87
-21.01
-22.97
-25.95
-29.82
-34.18
-38.66
-42.98
-47.17
-51.52
-56.46
-62.46
-69.87
-78.71
-88.53
-98.28
-106.32
-110.68
-109.48
-101.56
-86.91
-66.81
-43.57
-19.88
1.90
20.22
34.47
44.75
51.44
54.93
55.51
53.60
49.86
45.30
41.09
38.25
37.37
38.43
40.90
43.98
46.89
49.04
50.15
50.18
49.23
47.41
44.90
41.85
38.39
34.61
30.54
26.14
21.33
16.11
10.53
4.80
-0.82
-6.11
-10.96
-15.41
-19.70
-24.14
-28.96
-34.23
-39.82
-45.47
-50.93
-56.09
-61.04
-66.17
-72.06
-79.35
-88.45
-99.24
-110.75
-121.10
-127.80
-128.36
-121.16
-106.02
-84.44
-59.08
-33.00
-8.78
11.98
28.71
41.55
50.91
57.18
60.71
61.93
61.49
60.21
58.93
58.28
58.51
59.51
60.95
62.50
63.93
65.20
66.32
67.24
67.78
67.63
66.40
63.79
59.74
54.49
48.55
42.54
37.03
32.24
28.03
24.03
19.76
14.99
9.79
4.51
-0.39
-4.67
-8.41
-12.08
-16.26
-21.48
-27.94
-35.42
-43.40
-51.22
-58.29
-64.43
-69.84
-75.20
-81.40
-89.31
-99.34
-111.12
-123.21
-133.32
-138.67
-136.88
-126.63
-108.25
-83.63
-55.73
-27.73
-2.25
19.17
36.06
48.71
57.70
63.59
66.76
67.63
66.76
64.98
63.24
62.32
62.62
64.00
65.95
67.83
69.23
70.02
70.40
70.58
70.63
70.35
69.36
67.22
63.74
59.05
53.57
47.91
42.60
37.95
34.00
30.52
27.15
23.56
19.53
15.04
10.25
5.44
0.90
-3.17
-6.79
-10.23
-13.90
-18.22
-23.42
-29.49
-36.07
-42.70
-48.93
-54.51
-59.49
-64.29
-69.54
-76.01
-84.27
-94.42
-105.76
-116.60
-124.53
-126.91
-121.69
-108.17
-87.31
-61.52
-34.01
-7.77
15.04
33.42
47.33
57.26
63.76
67.29
68.24
67.11
64.59
61.53
58.76
56.87
56.10
56.34
57.24
58.38
59.38
60.04
60.31
60.24
59.86
59.11
57.73
55.43
51.98
47.41
42.03
36.41
31.12
26.52
22.64
19.12
15.43
11.12
6.03
0.36
-5.38
-10.60
-14.94
-18.40
-21.43
-24.62
-28.50
-33.23
-38.56
-43.96
-48.93
-53.20
-56.85
-60.34
-64.32
-69.50
-76.48
-85.53
-96.35
-107.80
-117.93
-124.17
-124.08
-116.10
-100.18
-77.92
-52.12
-25.90
-1.87
18.43
34.52
46.61
55.14
60.50
63.00
63.07
61.48
59.27
57.51
56.98
57.89
59.94
62.52
65.03
67.13
68.84
70.33
71.74
72.96
73.65
73.31
71.58
68.36
63.95
58.89
53.84
49.27
45.34
41.86
38.42
34.59
30.16
25.20
20.06
15.16
10.82
7.05
3.50
-0.39
-5.20
-11.18
-18.19
-25.69
-32.98
-39.56
-45.38
-50.79
-56.50
-63.23
-71.54
-81.60
-93.12
-105.14
-116.05
-123.69
-125.77
-120.54
-107.44
-87.48
-63.02
-37.12
-12.63
8.45
25.27
37.84
46.62
52.18
55.07
55.84
55.16
53.78
52.44
51.63
51.60
52.31
53.61
55.29
57.20
59.16
61.03
62.63
63.76
64.20
63.73
62.16
59.34
55.32
50.30
44.73
39.11
33.91
29.40
25.56
22.08
18.54
14.56
9.99
5.01
0.03
-4.47
-8.16
-11.01
-13.34
-15.66
-18.52
-22.30
-27.06
-32.59
-38.48
-44.28
-49.68
-54.58
-59.19
-63.93
-69.41
-76.18
-84.58
-94.51
-105.22
-115.15
-122.17
-123.99
-118.80
-105.97
-86.34
-62.12
-36.22
-11.45
10.18
27.73
41.20
51.01
57.68
61.57
62.97
62.39
60.56
58.46
57.04
56.89
58.17
60.49
63.25
65.77
67.68
68.89
69.53
69.79
69.73
69.26
68.19
66.36
63.72
60.34
56.40
52.09
47.58
43.04
38.55
34.17
29.89
25.58
21.12
16.43
11.55
6.68
2.06
-2.10
-5.75
-9.07
-12.39
-16.07
-20.40
-25.42
-30.95
-36.66
-42.16
-47.24
-51.95
-56.60
-61.72
-67.85
-75.40
-84.42
-94.44
-104.38
-112.59
-117.05
-115.89
-107.94
-93.22
-73.10
-49.91
-26.39
-4.86
13.22
27.35
37.67
44.63
48.64
50.06
49.31
47.04
44.14
41.52
39.94
39.78
40.99
43.26
46.08
49.01
51.71
53.93
55.49
56.23
55.98
54.64
52.18
48.68
44.29
39.26
33.85
28.40
23.21
18.51
14.41
10.84
7.53
4.13
0.34
-3.95
-8.58
-13.14
-17.21
-20.52
-23.15
-25.53
-28.25
-31.82
-36.52
-42.23
-48.53
-54.91
-60.84
-66.04
-70.54
-74.72
-79.28
-85.05
-92.68
-102.17
-112.58
-121.95
-127.75
-127.56
-119.90
-104.71
-83.46
-58.61
-32.98
-8.99
11.69
28.22
40.44
48.66
53.39
55.36
55.37
54.32
53.04
52.16
52.03
52.65
53.82
55.23
56.64
57.97
59.28
60.69
62.16
63.49
64.27
64.04
62.47
59.55
55.56
51.00
46.35
41.94
37.93
34.33
31.09
28.15
25.39
22.60
19.45
15.67
11.18
6.16
1.01
-3.82
-8.05
-11.66
-14.95
-18.33
-22.19
-26.73
-31.87
-37.34
-42.76
-47.84
-52.47
-56.83
-61.32
-66.49
-72.86
-80.74
-89.99
-99.81
-108.67
-114.50
-115.12
-108.93
-95.46
-75.73
-52.01
-27.19
-4.01
15.61
30.83
41.72
48.91
53.16
55.17
55.51
54.76
53.48
52.30
51.70
51.97
53.08
54.74
56.54
58.15
59.40
60.24
60.73
60.86
60.46
59.38
57.46
54.71
51.32
47.56
43.68
39.82
36.04
32.35
28.75
25.23
21.81
18.38
14.87
11.21
7.47
3.84
0.55
-2.26
-4.68
-7.02
-9.73
-13.20
-17.60
-22.82
-28.46
-34.07
-39.27
-43.89
-48.05
-52.07
-56.41
-61.58
-68.03
-76.01
-85.30
-95.06
-103.76
-109.34
-109.75
-103.56
-90.53
-71.81
-49.66
-26.83
-5.79
11.84
25.40
35.07
41.37
44.85
45.95
45.04
42.60
39.38
36.31
34.26
33.81
35.07
37.63
40.89
44.22
47.23
49.82
52.05
53.94
55.30
55.80
55.05
52.81
49.18
44.60
39.64
34.87
30.66
27.06
23.86
20.70
17.24
13.24
8.74
3.97
-0.71
-5.00
-8.79
-12.19
-15.56
-19.32
-23.76
-28.94
-34.65
-40.52
-46.21
-51.48
-56.36
-61.09
-66.06
-71.81
-78.89
-87.62
-97.81
-108.48
-117.83
-123.45
-123.03
-115.11
-99.70
-78.33
-53.59
-28.39
-5.13
14.62
30.27
41.83
49.65
54.21
56.07
55.92
54.55
52.80
51.44
50.95
51.46
52.83
54.66
56.53
58.12
59.29
60.08
60.58
60.83
60.75
60.15
58.83
56.62
53.50
49.61
45.16
40.42
35.72
31.34
27.44
24.04
20.95
17.88
14.54
10.74
6.54
2.19
-1.96
-5.72
-9.09
-12.35
-15.90
-20.08
-25.01
-30.52
-36.29
-41.93
-47.15
-51.88
-56.22
-60.50
-65.16
-70.74
-77.73
-86.43
-96.59
-107.22
-116.53
-122.23
-122.12
-114.81
-100.22
-79.68
-55.60
-30.74
-7.55
12.32
28.13
39.85
47.86
52.68
54.88
55.09
54.04
52.54
51.34
50.98
51.68
53.30
55.46
57.73
59.76
61.42
62.77
63.90
64.86
65.49
65.50
64.54
62.35
58.91
54.48
49.51
44.51
39.86
35.68
31.89
28.25
24.52
20.53
16.22
11.67
7.04
2.58
-1.50
-5.12
-8.44
-11.81
-15.71
-20.48
-26.20
-32.56
-39.05
-45.08
-50.31
-54.75
-58.81
-63.18
-68.59
-75.64
-84.47
-94.53
-104.49
-112.31
-115.70
-112.80
-102.79
-86.29
-65.19
-42.12
-19.66
0.25
16.61
29.19
38.19
43.91
46.66
46.81
44.99
42.04
38.99
36.73
35.82
36.40
38.22
40.85
43.86
46.86
49.56
51.74
53.21
53.77
53.27
51.67
49.04
45.58
41.58
37.39
33.30
29.54
26.07
22.72
19.15
15.06
10.40
5.41
0.55
-3.71
-7.07
-9.65
-11.92
-14.53
-18.09
-22.88
-28.73
-35.11
-41.32
-46.79
-51.30
-55.16
-59.10
-64.04
-70.84
-79.86
-90.69
-102.01
-111.67
-117.22
-116.45
-108.16
-92.57
-71.33
-47.05
-22.55
-0.14
18.81
33.86
45.17
53.17
58.27
60.90
61.60
61.07
60.06
59.31
59.26
60.05
61.54
63.43
65.36
67.12
68.55
69.61
70.31
70.58
70.31
69.28
67.21
63.94
59.47
54.07
48.21
42.47
37.28
32.82
28.95
25.31
21.46
17.08
12.11
6.76
1.46
-3.39
-7.50
-10.91
-13.96
-17.21
-21.22
-26.29
-32.38
-39.09
-45.83
-52.03
-57.45
-62.25
-66.93
-72.21
-78.81
-87.15
-97.11
-107.83
-117.64
-124.26
-125.34
-119.14
-105.17
-84.47
-59.43
-33.04
-8.15
13.27
30.28
42.85
51.42
56.56
58.90
59.06
57.80
55.94
54.23
53.19
53.06
53.76
55.05
56.64
58.30
59.85
61.20
62.31
63.14
63.59
63.48
62.58
60.64
57.51
53.23
48.04
42.37
36.72
31.48
26.86
22.78
18.94
14.93
10.46
5.47
0.14
-5.11
-9.91
-14.00
-17.46
-20.64
-24.03
-28.06
-32.92
-38.48
-44.40
-50.18
-55.46
-60.05
-64.11
-68.02
-72.44
-78.06
-85.42
-94.53
-104.67
-114.23
-121.02
-122.72
-117.58
-105.04
-85.92
-62.28
-36.80
-12.15
9.66
27.46
40.96
50.38
56.24
59.07
59.46
58.09
55.76
53.36
51.64
51.09
51.76
53.34
55.40
57.51
59.41
61.02
62.33
63.31
63.85
63.69
62.54
60.09
56.21
51.08
45.14
39.06
33.41
28.48
24.09
19.76
14.96
9.43
3.33
-2.82
-8.38
-12.99
-16.69
-19.96
-23.47
-27.77
-33.10
-39.24
-45.71
-51.93
-57.49
-62.35
-66.81
-71.47
-77.07
-84.28
-93.40
-104.24
-115.77
-126.17
-133.04
-133.99
-127.36
-112.79
-91.51
-65.99
-39.23
-14.01
7.77
25.29
38.56
48.04
54.30
57.86
59.27
59.15
58.27
57.41
57.20
57.93
59.51
61.56
63.60
65.27
66.41
67.06
67.34
67.33
67.00
66.13
64.44
61.64
57.67
52.66
47.03
41.33
36.07
31.57
27.86
24.67
21.52
18.00
13.89
9.27
4.50
0.02
-3.84
-7.04
-9.89
-12.90
-16.61
-21.35
-27.04
-33.27
-39.42
-44.97
-49.64
-53.60
-57.39
-61.83
-67.71
-75.53
-85.21
-95.92
-106.06
-113.45
-115.87
-111.53
-99.76
-81.23
-57.92
-32.60
-8.10
13.32
30.45
43.01
51.45
56.47
58.77
58.94
57.60
55.43
53.20
51.62
51.17
51.94
53.68
55.91
58.20
60.20
61.83
63.08
63.95
64.37
64.09
62.83
60.31
56.41
51.27
45.33
39.20
33.53
28.73
24.85
21.54
18.27
14.56
10.25
5.53
0.84
-3.37
-6.95
-10.02
-13.05
-16.54
-20.87
-26.10
-31.99
-38.04
-43.70
-48.55
-52.50
-55.88
-59.34
-63.75
-69.92
-78.25
-88.49
-99.55
-109.58
-116.31
-117.61
-112.07
-99.44
-80.77
-58.15
-34.16
-11.28
8.64
24.55
36.19
43.87
48.14
49.64
49.03
46.97
44.18
41.39
39.26
38.26
38.57
40.03
42.24
44.70
46.96
48.69
49.70
49.90
49.17
47.40
44.56
40.73
36.16
31.25
26.39
21.80
17.51
13.32
8.95
4.25
-0.70
-5.56
-9.95
-13.58
-16.45
-18.93
-21.59
-24.98
-29.43
-34.92
-41.10
-47.45
-53.53
-59.08
-64.23
-69.49
-75.63
-83.43
-93.37
-105.22
-117.77
-128.86
-135.85
-136.33
-128.93
-113.80
-92.57
-67.90
-42.69
-19.33
0.67
16.71
28.80
37.27
42.51
45.00
45.34
44.33
42.86
41.79
41.74
42.90
45.15
48.10
51.39
54.76
58.12
61.45
64.62
67.35
69.22
69.85
69.03
66.85
63.67
59.96
56.12
52.35
48.65
44.89
40.93
36.68
32.13
27.37
22.52
17.75
13.21
9.00
5.11
1.37
-2.51
-6.84
-11.81
-17.41
-23.40
-29.46
-35.24
-40.58
-45.63
-50.84
-56.91
-64.59
-74.35
-85.99
-98.36
-109.36
-116.38
-117.04
-109.96
-95.31
-74.78
-51.01
-26.81
-4.46
14.65
30.01
41.60
49.69
54.58
56.69
56.63
55.22
53.42
52.08
51.78
52.65
54.48
56.84
59.30
61.55
63.48
65.13
66.50
67.54
68.02
67.59
65.91
62.82
58.44
53.20
47.70
42.56
38.17
34.56
31.41
28.20
24.47
20.05
15.07
9.93
5.11
0.93
-2.63
-5.89
-9.35
-13.49
-18.55
-24.38
-30.53
-36.42
-41.62
-46.06
-50.01
-54.08
-59.01
-65.42
-73.58
-83.24
-93.33
-102.05
-107.14
-106.38
-98.38
-83.10
-62.03
-37.73
-13.14
9.34
28.25
43.10
54.05
61.49
65.75
67.19
66.33
64.00
61.22
58.91
57.61
57.28
57.43
57.42
56.79
55.45
53.64
51.74
49.94
48.07
45.70
42.34
37.73
32.00
25.63
19.26
13.48
8.60
4.60
1.23
-1.95
-5.36
-9.26
-13.66
-18.33
-22.85
-26.81
-30.04
-32.73
-35.39
-38.63
-42.89
-48.19
-54.11
-60.03
-65.34
-69.84
-73.76
-77.79
-82.79
-89.53
-98.33
-108.79
-119.62
-128.77
-133.74
-132.28
-123.10
-106.32
-83.61
-57.75
-31.81
-8.33
11.20
26.38
37.65
45.70
51.15
54.46
56.04
56.43
56.35
56.55
57.55
59.53
62.25
65.25
68.10
70.57
72.62
74.37
75.90
77.09
77.65
77.16
75.32
72.08
67.75
62.83
57.88
53.24
48.92
44.66
40.10
34.96
29.20
23.04
16.90
11.16
6.08
1.64
-2.47
-6.75
-11.64
-17.44
-24.06
-31.10
-37.95
-44.09
-49.29
-53.69
-57.77
-62.25
-67.86
-75.20
-84.46
-95.17
-106.05
-115.06
-119.73
-117.91
-108.45
-91.69
-69.50
-44.72
-20.37
1.16
18.54
31.52
40.53
46.30
49.47
50.60
50.19
48.83
47.22
46.02
45.75
46.55
48.19
50.21
52.12
53.60
54.61
55.30
55.86
56.27
56.28
55.44
53.34
49.78
44.92
39.29
33.55
28.33
23.94
20.29
16.97
13.43
9.29
4.47
-0.72
-5.77
-10.20
-13.85
-16.98
-20.15
-23.98
-28.90
-34.88
-41.50
-48.17
-54.33
-59.76
-64.60
-69.35
-74.66
-81.14
-89.09
-98.34
-108.04
-116.59
-121.98
-122.11
-115.49
-101.72
-81.76
-57.70
-32.25
-7.99
13.18
30.25
43.03
51.88
57.31
59.94
60.38
59.34
57.63
56.09
55.39
55.83
57.31
59.33
61.30
62.74
63.56
63.96
64.31
64.86
65.53
65.87
65.24
63.14
59.48
54.61
49.27
44.19
39.77
36.00
32.50
28.84
24.78
20.39
15.97
11.93
8.44
5.41
2.45
-0.95
-5.20
-10.46
-16.52
-22.91
-29.06
-34.60
-39.51
-44.25
-49.59
-56.42
-65.42
-76.76
-89.87
-103.25
-114.65
-121.47
-121.47
-113.50
-97.94
-76.69
-52.57
-28.53
-6.87
11.17
25.28
35.79
43.17
47.90
50.39
51.19
50.97
50.49
50.43
51.20
52.86
55.18
57.84
60.50
62.97
65.14
66.96
68.33
69.10
69.11
68.25
66.46
63.79
60.34
56.29
51.85
47.27
42.79
38.61
34.82
31.39
28.16
24.87
21.34
17.51
13.48
9.49
5.76
2.36
-0.84
-4.18
-8.09
-12.89
-18.66
-25.17
-32.00
-38.71
-44.96
-50.70
-56.13
-61.76
-68.15
-75.80
-84.91
-95.24
-105.88
-115.28
-121.43
-122.32
-116.47
-103.51
-84.41
-61.32
-36.99
-14.06
5.55
20.91
32.05
39.53
44.14
46.61
47.55
47.54
47.16
46.95
47.33
48.51
50.44
52.90
55.57
58.14
60.39
62.16
63.35
63.88
63.73
62.88
61.28
58.91
55.75
51.92
47.68
43.37
39.34
35.75
32.55
29.42
25.98
21.93
17.23
12.10
6.94
2.22
-1.76
-4.97
-7.68
-10.35
-13.53
-17.53
-22.37
-27.71
-33.00
-37.75
-41.74
-45.17
-48.55
-52.55
-57.78
-64.59
-72.88
-82.02
-90.76
-97.37
-99.87
-96.62
-86.82
-70.95
-50.74
-28.76
-7.69
10.41
24.48
34.44
40.82
44.37
45.67
45.16
43.24
40.44
37.46
35.05
33.83
34.04
35.52
37.80
40.31
42.52
44.16
45.13
45.45
45.10
44.03
42.12
39.34
35.79
31.71
27.40
23.12
18.95
14.79
10.44
5.76
0.77
-4.36
-9.37
-14.11
-18.56
-22.92
-27.44
-32.29
-37.47
-42.79
-47.94
-52.68
-56.96
-61.00
-65.30
-70.59
-77.54
-86.45
-96.89
-107.48
-116.06
-120.15
-117.73
-107.92
-91.35
-70.01
-46.69
-24.17
-4.59
10.87
21.99
29.14
32.98
34.19
33.45
31.42
28.78
26.18
24.18
23.08
22.95
23.65
25.02
26.95
29.41
32.40
35.82
39.36
42.57
44.84
45.70
44.92
42.61
39.19
35.29
31.49
28.16
25.35
22.81
20.19
17.14
13.60
9.72
5.83
2.17
-1.24
-4.63
-8.43
-12.99
-18.37
-24.29
-30.17
-35.42
-39.67
-42.96
-45.78
-48.99
-53.50
-60.06
-68.91
-79.54
-90.52
-99.69
-104.62
-103.25
-94.62
-79.23
-58.93
-36.41
-14.38
5.08
20.87
32.80
41.25
46.81
50.02
51.36
51.24
50.22
48.86
47.77
47.38
47.86
49.10
50.82
52.70
54.52
56.24
57.91
59.56
61.08
62.13
62.25
61.07
58.46
54.61
50.06
45.35
40.87
36.63
32.38
27.78
22.65
17.13
11.59
6.45
1.91
-2.14
-6.09
-10.42
-15.56
-21.66
-28.63
-36.17
-43.86
-51.31
-58.28
-64.79
-71.16
-77.91
-85.70
-94.99
-105.79
-117.38
-128.30
-136.55
-140.14
-137.74
-129.12
-115.31
-98.29
-80.39
-63.68
-49.48
-38.24
-29.68
-23.07
-17.39
-11.55
-4.47
4.77
16.75
31.59
48.83
67.57
86.63
104.83
121.14
134.87
145.72
153.69
159.04
162.06
163.06
162.18
159.45
154.81
148.22
139.77
129.70
118.41
106.45
94.36
82.72
71.98
62.50
54.47
47.85
42.35
37.43
32.52
27.14
21.15
14.75
8.43
2.62
-2.51
-7.28
-12.34
-18.41
-25.96
-34.93
-44.79
-54.68
-63.72
-71.27
-77.02
-81.00
-83.42
-84.52
-84.45
-83.22
-80.77
-77.07
-72.26
-66.62
-60.53
-54.32
-48.22
-42.30
-36.64
-31.34
-26.60
-22.63
-19.50
-17.11
-15.19
-13.42
-11.52
-9.30
-6.56
-3.06
1.47
7.26
14.31
22.32
30.68
38.64
45.52
50.91
54.65
56.84
57.67
57.40
56.31
54.79
53.34
52.54
52.87
54.46
56.87
58.97
59.20
55.97
48.25
36.00
20.31
3.09
-13.47
-27.56
-38.11
-44.97
-48.67
-50.06
-50.05
-49.37
-48.54
-47.87
-47.50
-47.44
-47.56
-47.60
-47.23
-46.18
-44.32
-41.77
-38.89
-36.12
-33.85
-32.23
-31.11
-30.15
-28.95
-27.25
-24.97
-22.26
-19.33
-16.45
-13.78
-11.41
-9.39
-7.75
-6.50
-5.57
-4.83
-4.14
-3.41
-2.66
-2.00
-1.51
-1.25
-1.15
-1.13
-1.12
-1.12
-1.18
-1.36
-1.68
-2.09
-2.52
-2.97
-3.50
-4.21
-5.21
-6.52
-8.01
-9.47
-10.65
-11.39
-11.72
-11.84
-12.10
-12.87
-14.41
-16.74
-19.60
-22.43
-24.49
-25.03
-23.49
-19.69
-13.95
-7.03
0.07
6.44
11.46
14.93
16.98
17.86
17.83
17.04
15.57
13.57
11.23
8.83
6.62
4.81
3.55
2.82
2.60
2.73
3.02
3.28
3.36
3.21
2.88
2.45
1.96
1.43
0.85
0.19
-0.56
-1.33
-2.05
-2.64
-3.06
-3.34
-3.56
-3.89
-4.58
-5.81
-7.69
-10.06
-12.59
-14.80
-16.36
-17.16
-17.37
-17.43
-17.75
-18.65
-20.21
-22.34
-24.71
-26.82
-28.05
-27.72
-25.29
-20.55
-13.84
-5.93
2.14
9.36
15.10
19.14
21.69
23.14
23.90
24.20
24.15
23.72
22.94
21.95
20.95
20.18
19.78
19.77
20.04
20.41
20.78
21.05
21.21
21.26
21.19
20.90
20.34
19.43
18.14
16.46
14.47
12.26
9.94
7.68
5.60
3.82
2.35
1.15
0.11
-0.93
-2.11
-3.54
-5.24
-7.13
-9.03
-10.76
-12.20
-13.32
-14.24
-15.15
-16.29
-17.91
-20.17
-23.01
-26.06
-28.62
-29.76
-28.63
-24.81
-18.50
-10.56
-2.18
5.45
11.56
15.84
18.46
19.74
20.01
19.50
18.41
16.91
15.27
13.76
12.63
11.99
11.82
12.00
12.34
12.71
13.01
13.23
13.44
13.71
14.11
14.58
14.98
15.08
14.70
13.72
12.19
10.29
8.25
6.28
4.48
2.83
1.28
-0.24
-1.73
-3.10
-4.34
-5.39
-6.30
-7.17
-8.11
-9.19
-10.44
-11.78
-13.03
-14.05
-14.72
-15.10
-15.36
-15.74
-16.51
-17.84
-19.82
-22.40
-25.32
-28.08
-29.92
-30.00
-27.67
-22.79
-15.81
-7.69
0.38
7.43
12.90
16.70
19.07
20.28
20.52
19.88
18.44
16.40
14.14
12.10
10.62
9.83
9.58
9.54
9.41
9.03
8.46
7.93
7.67
7.81
8.31
8.96
9.51
9.77
9.66
9.23
8.63
7.99
7.39
6.75
5.90
4.67
3.00
1.02
-1.01
-2.83
-4.30
-5.47
-6.58
-7.91
-9.64
-11.82
-14.30
-16.86
-19.22
-21.18
-22.65
-23.69
-24.50
-25.43
-26.84
-28.91
-31.46
-33.92
-35.38
-34.87
-31.77
-26.03
-18.21
-9.30
-0.46
7.38
13.64
18.15
21.05
22.56
23.00
22.68
21.96
21.21
20.74
20.78
21.39
22.51
24.03
25.85
27.91
30.12
32.36
34.30
35.55
35.76
34.71
32.48
29.36
25.79
22.17
18.75
15.71
13.09
10.94
9.30
8.19
7.62
7.54
7.80
8.23
8.61
8.70
8.23
7.00
4.87
1.89
-1.74
-5.64
-9.39
-12.67
-15.34
-17.50
-19.41
-21.40
-23.62
-25.95
-27.98
-29.07
-28.57
-26.11
-21.69
-15.80
-9.23
-2.84
2.74
7.25
10.82
13.84
16.76
19.91
23.41
27.22
31.22
35.35
39.64
44.16
48.88
53.58
57.82
61.14
63.15
63.83
63.48
62.61
61.68
60.93
60.29
59.54
58.46
56.96
55.08
52.87
50.32
47.31
43.66
39.32
34.37
29.07
23.73
18.59
13.67
8.74
3.44
-2.60
-9.60
-17.45
-25.79
-34.09
-41.89
-48.88
-55.07
-60.63
-65.88
-71.10
-76.43
-81.78
-86.86
-91.17
-94.01
-94.62
-92.34
-86.77
-78.02
-66.74
-53.99
-41.00
-28.84
-18.19
-9.26
-1.97
3.87
8.40
11.63
13.53
14.16
13.73
12.65
11.41
10.44
10.02
10.25
11.04
12.22
13.57
14.87
15.92
16.50
16.40
15.45
13.55
10.72
7.14
3.14
-0.89
-4.55
-7.60
-9.98
-11.80
-13.31
-14.76
-16.35
-18.18
-20.32
-22.71
-25.25
-27.78
-30.15
-32.34
-34.47
-36.88
-40.00
-44.19
-49.58
-56.03
-63.05
-69.78
-75.11
-77.75
-76.53
-70.77
-60.54
-46.80
-31.17
-15.44
-1.11
10.91
20.35
27.35
32.18
35.07
36.24
35.95
34.62
32.80
31.11
30.04
29.87
30.58
31.96
33.64
35.24
36.47
37.16
37.22
36.66
35.56
33.97
31.95
29.54
26.69
23.38
19.57
15.30
10.73
6.09
1.62
-2.53
-6.37
-10.04
-13.76
-17.71
-21.94
-26.36
-30.81
-35.13
-39.22
-43.14
-47.09
-51.36
-56.33
-62.31
-69.44
-77.58
-86.07
-93.81
-99.31
-101.08
-98.02
-89.76
-76.88
-60.75
-43.23
-26.15
-10.95
1.56
11.17
18.08
22.67
25.30
26.34
26.17
25.33
24.41
23.99
24.41
25.68
27.54
29.61
31.61
33.39
34.98
36.42
37.68
38.54
38.71
37.88
35.92
32.93
29.27
25.40
21.77
18.65
16.03
13.69
11.42
9.09
6.79
4.73
3.04
1.61
0.09
-1.94
-4.77
-8.37
-12.36
-16.22
-19.59
-22.41
-25.10
-28.28
-32.64
-38.57
-46.06
-54.59
-63.16
-70.41
-74.79
-74.86
-69.59
-58.73
-42.98
-23.91
-3.63
15.70
32.42
45.59
55.02
61.06
64.24
65.16
64.33
62.26
59.47
56.52
53.93
52.06
51.08
50.90
51.29
51.91
52.50
52.81
52.67
51.95
50.54
48.37
45.47
41.95
38.05
34.04
30.15
26.48
22.94
19.37
15.59
11.56
7.39
3.31
-0.50
-4.01
-7.35
-10.82
-14.64
-18.90
-23.44
-27.92
-32.02
-35.63
-38.95
-42.48
-46.82
-52.53
-59.89
-68.87
-78.93
-89.03
-97.60
-102.74
-102.66
-96.19
-83.37
-65.53
-45.05
-24.71
-6.91
6.90
16.40
22.11
24.94
25.72
25.04
23.28
20.85
18.33
16.39
15.65
16.37
18.41
21.27
24.34
27.11
29.27
30.74
31.47
31.44
30.54
28.73
26.02
22.50
18.26
13.43
8.06
2.24
-3.81
-9.73
-15.13
-19.59
-22.95
-25.27
-26.90
-28.28
-29.83
-31.77
-34.09
-36.55
-38.83
-40.73
-42.27
-43.77
-45.84
-49.27
-54.78
-62.82
-73.13
-84.67
-95.53
-103.20
-105.27
-100.11
-87.45
-68.53
-45.82
-22.24
-0.48
17.65
31.36
40.73
46.33
48.90
49.20
47.95
45.85
43.65
42.02
41.50
42.31
44.36
47.24
50.39
53.26
55.51
57.01
57.83
58.11
57.94
57.31
56.09
54.14
51.34
47.72
43.40
38.54
33.39
28.09
22.80
17.59
12.51
7.53
2.57
-2.48
-7.71
-13.16
-18.79
-24.46
-30.06
-35.50
-40.85
-46.32
-52.37
-59.55
-68.39
-79.06
-91.05
-102.95
-112.54
-117.28
-115.09
-105.01
-87.67
-65.06
-40.02
-15.36
6.70
24.87
38.70
48.26
53.97
56.33
56.04
53.95
51.06
48.32
46.49
45.94
46.59
48.06
49.79
51.28
52.21
52.50
52.11
51.06
49.23
46.40
42.38
37.14
30.94
24.23
17.55
11.25
5.36
-0.39
-6.39
-12.89
-19.83
-26.80
-33.27
-38.81
-43.40
-47.46
-51.76
-57.23
-64.61
-74.23
-85.72
-97.93
-108.95
-116.42
-118.13
-112.61
-99.70
-80.64
-57.82
-34.01
-11.72
7.41
22.68
34.10
42.08
47.04
49.39
49.53
48.00
45.54
43.00
41.20
40.74
41.91
44.67
48.68
53.50
58.55
63.27
67.18
69.89
71.11
70.73
68.74
65.24
60.43
54.58
47.99
40.95
33.68
26.35
19.03
11.84
4.90
-1.67
-7.83
-13.74
-19.84
-26.80
-35.19
-45.15
-55.99
-66.07
-73.07
-74.69
-69.36
-56.85
-38.40
-16.36
6.56
27.96
46.23
60.59
70.85
77.15
79.83
79.39
76.63
72.59
68.37
64.95
62.87
62.22
62.66
63.67
64.77
65.56
65.83
65.39
64.11
61.78
58.22
53.38
47.40
40.69
33.79
27.21
21.23
15.77
10.46
4.76
-1.71
-9.02
-16.84
-24.60
-31.75
-37.99
-43.51
-48.89
-55.07
-62.95
-73.14
-85.52
-99.10
-111.96
-121.57
-125.41
-121.69
-109.97
-91.35
-68.19
-43.44
-19.78
0.95
17.86
30.87
40.29
46.50
49.89
50.91
50.22
48.72
47.34
46.86
47.64
49.59
52.23
55.01
57.46
59.35
60.70
61.57
61.93
61.58
60.14
57.26
52.85
47.20
40.93
34.79
29.31
24.63
20.44
16.20
11.43
6.03
0.29
-5.26
-10.18
-14.35
-18.09
-22.01
-26.75
-32.68
-39.76
-47.58
-55.54
-63.04
-69.72
-75.61
-81.20
-87.30
-94.84
-104.52
-116.40
-129.50
-141.82
-150.56
-152.89
-146.75
-131.61
-108.67
-80.66
-51.02
-22.94
1.29
20.71
35.44
46.23
53.92
59.22
62.61
64.57
65.73
66.81
68.49
71.04
74.31
77.74
80.72
82.86
84.17
85.03
85.88
86.98
88.24
89.22
89.31
87.99
85.01
80.54
75.10
69.38
63.93
58.98
54.30
49.37
43.66
36.93
29.39
21.64
14.37
8.00
2.51
-2.65
-8.21
-14.80
-22.59
-31.22
-39.94
-47.94
-54.74
-60.31
-65.12
-69.91
-75.52
-82.69
-91.82
-102.75
-114.53
-125.26
-132.37
-133.18
-125.81
-109.86
-86.80
-59.51
-31.49
-5.81
15.56
31.93
43.57
51.18
55.51
57.19
56.93
55.51
53.88
52.92
53.20
54.82
57.43
60.45
63.31
65.70
67.56
68.99
70.05
70.64
70.43
69.05
66.15
61.65
55.84
49.29
42.69
36.59
31.19
26.32
21.59
16.63
11.32
5.88
0.73
-3.80
-7.71
-11.39
-15.44
-20.43
-26.54
-33.51
-40.72
-47.48
-53.35
-58.32
-62.85
-67.68
-73.61
-81.30
-90.91
-101.95
-113.09
-122.19
-126.77
-124.63
-114.64
-97.15
-74.05
-48.25
-22.77
-0.07
18.53
32.72
42.93
49.87
54.20
56.45
57.10
56.67
55.78
55.07
55.12
56.14
58.02
60.27
62.27
63.53
63.88
63.51
62.77
61.93
61.01
59.65
57.34
53.70
48.73
42.87
36.88
31.51
27.17
23.84
21.06
18.20
14.72
10.44
5.49
0.35
-4.49
-8.71
-12.36
-15.76
-19.47
-23.95
-29.40
-35.66
-42.28
-48.73
-54.60
-59.80
-64.61
-69.54
-75.28
-82.44
-91.40
-101.96
-113.23
-123.48
-130.41
-131.65
-125.53
-111.67
-91.22
-66.59
-40.75
-16.46
4.40
20.98
33.31
41.89
47.44
50.61
52.02
52.34
52.25
52.42
53.38
55.37
58.29
61.77
65.31
68.50
71.10
73.08
74.49
75.35
75.57
74.95
73.32
70.63
66.98
62.65
57.92
53.12
48.42
43.97
39.78
35.79
31.84
27.70
23.18
18.19
12.86
7.47
2.36
-2.26
-6.47
-10.59
-15.10
-20.34
-26.39
-32.97
-39.62
-45.87
-51.46
-56.43
-61.07
-65.86
-71.36
-78.08
-86.37
-96.10
-106.45
-115.78
-121.82
-122.29
-115.58
-101.47
-81.22
-57.32
-32.71
-10.01
9.05
23.77
34.24
40.99
44.68
45.93
45.36
43.67
41.59
39.84
38.92
39.03
40.06
41.70
43.56
45.34
46.88
48.18
49.26
50.08
50.44
50.02
48.46
45.50
41.16
35.78
29.96
24.34
19.35
15.10
11.28
7.45
3.20
-1.59
-6.70
-11.68
-16.04
-19.51
-22.13
-24.29
-26.53
-29.32
-32.93
-37.27
-42.01
-46.69
-50.93
-54.54
-57.59
-60.47
-63.80
-68.29
-74.56
-82.67
-91.95
-100.78
-106.91
-107.98
-102.28
-89.36
-70.22
-47.06
-22.65
0.44
20.35
36.19
47.87
55.79
60.52
62.59
62.52
60.80
58.09
55.10
52.56
50.98
50.54
51.09
52.26
53.71
55.22
56.76
58.33
59.85
61.10
61.75
61.56
60.47
58.67
56.51
54.39
52.62
51.32
50.39
49.62
48.67
47.28
45.36
42.99
40.39
37.69
34.74
31.03
25.81
18.40
8.48
-3.65
-17.19
-31.01
-44.04
-55.48
-65.01
-72.81
-79.43
-85.62
-92.09
-99.16
-106.51
-113.02
-116.99
-116.57
-110.45
-98.33
-81.15
-60.78
-39.45
-19.17
-1.29
13.54
25.19
33.80
39.52
42.60
43.40
42.52
40.64
38.49
36.58
35.24
34.51
34.38
34.74
35.52
36.60
37.78
38.81
39.40
39.31
38.44
36.76
34.34
31.31
27.79
23.92
19.86
15.72
11.53
7.22
2.67
-2.18
-7.23
-12.24
-16.92
-21.10
-24.77
-28.17
-31.63
-35.42
-39.71
-44.44
-49.47
-54.59
-59.60
-64.39
-69.00
-73.65
-78.71
-84.61
-91.57
-99.33
-106.97
-112.91
-115.31
-112.55
-103.84
-89.48
-70.84
-49.96
-29.00
-9.74
6.70
19.82
29.57
36.09
39.65
40.66
39.78
37.85
35.84
34.58
34.54
35.76
37.89
40.43
42.94
45.18
47.16
48.93
50.52
51.74
52.29
51.82
50.14
47.28
43.44
38.93
34.07
29.07
24.09
19.24
14.58
10.15
5.93
1.78
-2.44
-6.89
-11.62
-16.55
-21.51
-26.30
-30.78
-34.97
-39.06
-43.40
-48.40
-54.40
-61.48
-69.18
-76.36
-81.38
-82.43
-78.07
-67.83
-52.45
-33.72
-13.94
4.68
20.60
33.09
42.08
47.86
50.85
51.41
50.04
47.36
44.13
41.14
38.99
38.00
38.11
39.07
40.57
42.36
44.34
46.42
48.53
50.50
52.10
53.10
53.30
52.57
50.88
48.24
44.76
40.61
36.02
31.25
26.52
22.00
17.74
13.67
9.66
5.48
0.96
-4.05
-9.56
-15.44
-21.43
-27.23
-32.63
-37.56
-42.23
-47.06
-52.63
-59.45
-67.74
-77.18
-86.69
-94.59
-98.86
-97.73
-90.29
-76.83
-58.86
-38.67
-18.61
-0.55
14.51
26.34
35.18
41.38
45.24
47.06
47.27
46.49
45.46
44.89
45.29
46.79
49.20
52.10
55.00
57.46
59.17
60.02
60.02
59.27
57.87
55.81
53.07
49.57
45.32
40.43
35.09
29.51
23.89
18.34
12.95
7.77
2.80
-2.02
-6.81
-11.71
-16.76
-21.91
-26.97
-31.71
-36.01
-39.92
-43.69
-47.65
-52.20
-57.70
-64.43
-72.42
-81.28
-89.99
-96.92
-100.12
-97.92
-89.46
-75.19
-56.74
-36.47
-16.75
0.66
14.85
25.69
33.44
38.42
40.86
40.99
39.17
36.09
32.65
29.82
28.34
28.50
30.16
32.75
35.58
38.00
39.61
40.27
40.02
38.94
37.09
34.43
30.89
26.37
20.92
14.63
7.70
0.39
-7.06
-14.50
-21.86
-29.17
-36.55
-44.17
-52.18
-60.59
-69.32
-78.22
-87.12
-95.91
-104.60
-113.30
-122.24
-131.76
-142.25
-153.98
-166.89
-180.34
-192.87
-202.39
-206.51
-203.17
-191.25
-170.97
-143.80
-112.09
-78.40
-44.94
-13.34
15.33
40.41
61.46
78.29
90.99
100.12
106.52
111.19
114.97
118.32
121.31
123.73
125.39
126.21
126.29
125.77
124.66
122.77
119.78
115.35
109.37
102.03
93.82
85.33
77.04
69.15
61.61
54.24
46.98
39.96
33.53
28.06
23.70
20.32
17.53
14.89
12.08
9.06
5.95
2.99
0.30
-2.22
-4.85
-8.01
-12.14
-17.63
-24.78
-33.64
-43.89
-54.51
-63.85
-69.74
-70.07
-63.45
-49.74
-30.28
-7.55
15.49
36.25
53.07
65.41
73.59
78.34
80.44
80.49
78.95
76.33
73.22
70.30
68.16
67.18
67.33
68.31
69.59
70.69
71.32
71.35
70.83
69.77
68.14
65.80
62.59
58.46
53.56
48.15
42.57
37.10
31.89
26.98
22.34
17.91
13.59
9.21
4.53
-0.66
-6.43
-12.59
-18.74
-24.43
-29.33
-33.46
-37.14
-40.94
-45.56
-51.53
-59.12
-68.04
-77.37
-85.58
-90.74
-91.05
-85.41
-73.86
-57.63
-38.82
-19.76
-2.44
11.89
22.78
30.34
34.92
36.98
36.96
35.42
33.01
30.40
28.23
26.88
26.50
26.98
28.12
29.60
31.10
32.24
32.70
32.26
30.85
28.59
25.77
22.63
19.33
15.83
12.05
7.93
3.59
-0.69
-4.61
-8.01
-10.97
-13.79
-16.90
-20.63
-25.11
-30.21
-35.66
-41.12
-46.34
-51.19
-55.66
-59.93
-64.28
-69.13
-74.94
-82.09
-90.58
-99.81
-108.39
-114.38
-115.69
-110.76
-99.11
-81.66
-60.47
-38.20
-17.30
0.53
14.65
25.18
32.64
37.54
40.22
40.95
40.12
38.37
36.51
35.24
34.96
35.59
36.73
37.92
38.83
39.43
39.81
40.09
40.22
39.99
39.08
37.22
34.33
30.62
26.47
22.34
18.65
15.53
12.81
10.06
6.79
2.71
-2.08
-7.10
-11.67
-15.27
-17.78
-19.58
-21.37
-23.84
-27.39
-31.90
-36.91
-41.80
-46.20
-50.11
-53.96
-58.42
-64.22
-71.89
-81.64
-93.04
-104.97
-115.60
-122.70
-124.21
-118.89
-106.83
-89.44
-69.05
-48.25
-29.12
-12.98
-0.30
8.98
15.25
19.02
20.98
21.93
22.86
24.69
28.13
33.53
40.79
49.42
58.69
67.80
76.07
83.02
88.42
92.26
94.59
95.46
94.88
92.89
89.64
85.43
80.74
76.04
71.65
67.62
63.75
59.67
55.09
49.91
44.26
38.42
32.72
27.36
22.37
17.61
12.83
7.77
2.26
-3.69
-9.88
-16.02
-21.75
-26.93
-31.63
-36.27
-41.44
-47.79
-55.77
-65.41
-76.08
-86.48
-94.72
-98.77
-96.99
-88.72
-74.59
-56.35
-36.37
-16.98
0.12
14.02
24.55
31.91
36.40
38.27
37.85
35.65
32.49
29.39
27.40
27.33
29.51
33.71
39.32
45.47
51.35
56.35
60.12
62.46
63.21
62.19
59.24
54.36
47.78
40.03
31.78
23.62
15.99
9.05
2.81
-2.84
-8.02
-12.83
-17.37
-21.74
-26.05
-30.37
-34.73
-39.10
-43.39
-47.52
-51.44
-55.23
-59.15
-63.65
-69.36
-76.75
-85.89
-96.03
-105.52
-112.08
-113.41
-107.92
-95.34
-76.86
-54.81
-31.88
-10.45
7.95
22.69
33.79
41.60
46.46
48.74
48.85
47.43
45.25
43.12
41.66
41.17
41.60
42.67
44.09
45.63
47.20
48.77
50.30
51.62
52.47
52.49
51.39
48.94
45.15
40.14
34.25
27.91
21.63
15.84
10.84
6.63
2.91
-0.84
-5.16
-10.37
