1541603100.00
64.000000
-0.00
-0.00
-0.00
-0.00
-0.00
-0.00
-0.00
-0.00
-0.00
-0.00
0.00
0.01
0.01
-0.00
-0.03
-0.05
-0.05
0.00
0.13
0.36
0.66
1.01
1.37
1.72
2.06
2.40
2.79
3.24
3.80
4.42
5.06
5.66
6.20
6.68
7.15
7.68
8.31
9.14
10.09
11.04
11.88
12.56
13.14
13.76
14.65
15.96
17.91
20.32
22.90
25.38
27.58
29.57
31.68
34.32
37.81
42.54
48.15
54.10
59.83
64.97
69.58
74.14
79.34
85.71
93.76
103.00
112.62
121.73
129.77
136.75
143.30
150.75
157.77
166.64
177.95
191.79
206.97
220.57
228.25
225.36
208.53
176.87
132.76
80.05
23.07
-34.94
-92.44
-149.16
-205.23
-260.37
-313.74
-363.87
-409.83
-450.91
-486.50
-515.74
-537.23
-549.22
-549.96
-538.37
-514.21
-478.67
-433.88
-382.45
-327.02
-269.84
-212.63
-156.66
-102.95
-52.37
-5.90
35.58
71.43
101.35
125.50
144.38
158.69
169.15
176.37
180.75
182.57
182.07
179.51
175.23
169.65
163.18
156.15
148.81
141.30
133.69
126.02
118.33
110.69
103.16
95.80
88.68
81.83
75.25
68.95
62.95
57.25
51.86
46.78
42.03
37.59
33.45
29.61
26.07
22.81
19.83
17.11
14.67
12.48
10.54
8.83
7.35
6.07
4.97
4.05
3.27
2.62
2.09
1.65
1.30
1.01
0.79
0.61
0.47
0.37
0.29
0.23
0.19
0.16
0.14
0.14
0.15
0.16
0.18
0.21
0.24
0.28
0.32
0.36
0.40
0.45
0.50
0.54
0.59
0.65
0.70
0.76
0.83
0.90
0.97
1.06
1.15
1.26
1.37
1.51
1.66
1.82
2.01
2.22
2.44
2.70
2.97
3.28
3.62
3.99
4.39
4.84
5.31
5.83
6.38
6.97
7.60
8.28
9.00
9.77
10.58
11.44
12.34
13.28
14.29
15.35
16.48
17.67
18.91
20.19
21.46
22.65
23.68
24.46
24.85
24.73
24.00
22.58
20.42
17.56
14.06
10.00
5.60
1.04
-3.46
-7.67
-11.41
-14.51
-16.89
-18.51
-19.40
-19.64
-19.34
-18.61
-17.56
-16.26
-14.79
-13.21
-11.60
-10.01
-8.44
-6.96
-5.56
-4.18
-2.78
-1.28
0.30
1.96
3.65
5.39
7.03
8.58
10.12
11.77
13.61
15.67
17.86
20.07
22.27
24.19
25.83
27.40
29.17
31.35
33.96
36.79
39.53
42.00
43.68
44.57
45.04
45.56
46.52
47.92
49.42
50.42
50.51
48.92
45.56
40.77
35.00
28.38
20.40
9.69
-6.05
-24.81
-46.73
-72.08
-100.83
-132.16
-163.97
-192.84
-214.75
-226.31
-225.91
-215.15
-197.40
-176.63
-155.92
-136.76
-119.08
-102.24
-85.86
-70.21
-56.47
-45.37
-36.81
-29.95
-23.77
-17.65
-11.71
-6.63
-3.11
-1.73
-2.25
-3.75
-5.08
-5.33
-4.18
-1.87
0.92
3.53
5.49
6.81
7.91
9.32
11.40
14.18
17.45
20.95
24.69
28.84
33.76
39.69
46.48
53.58
60.11
65.29
68.60
69.98
69.68
68.13
65.74
62.82
59.63
56.31
52.97
49.55
45.91
41.92
37.52
32.89
28.35
24.27
20.83
17.88
15.08
12.02
8.54
4.73
0.94
-2.46
-5.26
-7.46
-9.18
-10.45
-11.20
-11.14
-10.06
-7.95
-5.08
-1.95
0.88
2.99
4.25
4.80
4.99
5.16
5.63
6.49
7.68
9.02
10.30
11.36
12.01
12.14
11.57
10.18
7.97
5.23
2.59
0.77
0.42
1.81
4.76
8.72
13.08
17.34
21.22
24.63
27.48
29.65
30.95
31.24
30.55
29.15
27.47
25.97
25.03
24.78
25.16
25.89
26.61
27.01
26.96
26.50
25.72
24.65
23.24
21.36
19.01
16.34
13.66
11.22
9.11
7.09
4.80
1.98
-1.35
-4.88
-8.18
-10.98
-13.40
-15.82
-18.70
-22.20
-26.10
-29.80
-32.58
-33.89
-33.45
-31.42
-28.10
-23.94
-19.32
-14.58
-10.02
-5.93
-2.63
-0.37
0.77
0.95
0.51
-0.11
-0.52
-0.47
0.09
1.12
2.54
4.23
6.06
7.89
9.52
10.86
11.80
12.33
12.43
12.12
11.33
10.04
8.27
6.15
3.93
1.84
-0.02
-1.78
-3.73
-6.22
-9.48
-13.46
-17.90
-22.35
-26.31
-29.30
-30.92
-30.88
-29.09
-25.69
-21.07
-15.89
-10.84
-6.51
-3.15
-0.78
0.78
1.73
2.20
2.23
1.88
1.34
0.88
0.81
1.29
2.35
3.84
5.50
7.11
8.42
9.34
9.79
9.79
9.37
8.58
7.45
5.95
4.07
1.80
-0.75
-3.35
-5.76
-7.76
-9.35
-10.69
-12.19
-14.28
-17.29
-21.26
-25.89
-30.61
-34.68
-37.41
-38.32
-37.23
-34.18
-29.47
-23.49
-16.80
-9.97
-3.57
1.96
6.38
9.67
12.01
13.60
14.59
15.06
15.08
14.78
14.35
14.05
14.03
14.39
15.05
15.85
16.59
17.09
17.17
16.74
15.81
14.49
12.96
11.37
9.82
8.28
6.69
5.01
3.23
1.43
-0.30
-1.89
-3.31
-4.58
-5.79
-7.12
-8.78
-11.05
-14.06
-17.70
-21.56
-24.90
-26.92
-26.97
-24.75
-20.42
-14.48
-7.61
-0.48
6.40
12.66
18.06
22.46
25.76
27.98
29.23
29.70
29.62
29.15
28.41
27.45
26.34
25.20
24.16
23.33
22.68
22.09
21.31
20.18
18.56
16.47
13.97
11.20
8.30
5.40
2.61
-0.03
-2.53
-4.93
-7.26
-9.42
-11.35
-12.96
-14.35
-15.80
-17.65
-20.18
-23.37
-26.88
-30.08
-32.33
-33.12
-32.28
-29.91
-26.28
-21.70
-16.46
-10.83
-5.15
0.13
4.56
7.76
9.60
10.29
10.23
9.89
9.64
9.64
9.83
10.10
10.35
10.53
10.73
10.99
11.39
11.90
12.52
13.11
13.48
13.35
12.45
10.62
7.93
4.75
1.55
-1.25
-3.50
-5.29
-6.94
-8.75
-10.92
-13.49
-16.36
-19.38
-22.28
-24.72
-26.19
-26.21
-24.44
-20.89
-15.90
-10.09
-4.09
1.47
6.12
9.58
11.79
12.91
13.29
13.31
13.27
13.33
13.47
13.64
13.80
14.06
14.42
14.91
15.40
15.74
15.87
15.82
15.63
15.21
14.42
12.97
10.69
7.61
4.01
0.30
-3.11
-5.93
-8.15
-9.97
-11.83
-14.14
-17.16
-20.81
-24.69
-28.09
-30.27
-30.73
-29.29
-26.12
-21.63
-16.32
-10.65
-5.02
0.14
4.48
7.73
9.77
10.76
11.06
11.16
11.41
12.01
12.84
13.69
14.35
14.73
14.93
15.07
15.24
15.40
15.48
15.39
15.08
14.55
13.78
12.67
11.10
9.01
6.42
3.50
0.47
-2.48
-5.20
-7.65
-9.83
-11.84
-13.86
-16.07
-18.57
-21.27
-23.88
-25.91
-26.84
-26.25
-24.02
-20.31
-15.57
-10.33
-5.09
-0.28
3.87
7.22
9.76
11.48
12.41
12.59
12.18
11.49
10.91
10.83
11.46
12.75
14.34
15.78
16.68
16.92
16.66
16.20
15.83
15.58
15.31
14.74
13.69
12.16
10.33
8.43
6.62
4.94
3.24
1.39
-0.67
-2.86
-5.00
-6.97
-8.77
-10.65
-12.93
-15.88
-19.48
-23.39
-26.91
-29.23
-29.72
-28.12
-24.64
-19.82
-14.36
-8.89
-3.90
0.31
3.56
5.82
7.15
7.73
7.84
7.79
7.84
8.13
8.68
9.44
10.30
11.25
12.23
13.26
14.26
15.14
15.76
16.02
15.83
15.15
14.01
12.52
10.80
9.02
7.30
5.72
4.19
2.60
0.77
-1.36
-3.67
-5.95
-7.95
-9.52
-10.67
-11.63
-12.70
-14.17
-16.24
-18.94
-22.06
-25.21
-27.87
-29.47
-29.59
-28.07
-25.07
-20.99
-16.32
-11.51
-6.86
-2.66
0.88
3.53
5.20
5.99
6.16
6.11
6.20
6.65
7.48
8.54
9.63
10.61
11.44
12.22
13.10
14.11
15.18
16.05
16.42
16.05
14.93
13.25
11.32
9.42
7.62
5.88
4.08
2.16
0.20
-1.67
-3.33
-4.76
-6.11
-7.58
-9.38
-11.62
-14.31
-17.33
-20.41
-23.22
-25.35
-26.44
-26.22
-24.56
-21.51
-17.33
-12.38
-7.17
-2.22
2.02
5.28
7.54
8.90
9.56
9.66
9.32
8.63
7.79
7.03
6.64
6.84
7.68
9.01
10.56
12.04
13.22
13.96
14.23
14.05
13.51
12.69
11.65
10.37
8.83
7.00
4.97
2.84
0.79
-1.07
-2.72
-4.26
-5.90
-7.89
-10.50
-13.82
-17.75
-21.88
-25.58
-28.17
-29.08
-28.05
-25.20
-20.94
-15.81
-10.38
-5.17
-0.58
3.06
5.66
7.27
8.19
8.76
9.34
10.10
11.04
12.08
13.01
13.74
14.22
14.50
14.71
14.95
15.34
15.84
16.34
16.66
16.61
16.08
15.09
13.74
12.17
10.44
8.57
6.53
4.35
2.08
-0.14
-2.17
-3.94
-5.49
-7.00
-8.73
-10.91
-13.65
-16.85
-20.30
-23.68
-26.68
-29.03
-30.47
-30.75
-29.65
-27.07
-23.14
-18.26
-12.96
-7.81
-3.22
0.61
3.70
6.14
8.08
9.60
10.82
11.73
12.33
12.57
12.52
12.28
12.08
12.14
12.58
13.37
14.32
15.21
15.84
16.13
16.03
15.60
14.87
13.88
12.70
11.45
10.21
9.01
7.85
6.61
5.16
3.39
1.21
-1.36
-4.24
-7.31
-10.44
-13.58
-16.75
-20.02
-23.38
-26.67
-29.53
-31.52
-32.21
-31.34
-28.92
-25.16
-20.50
-15.42
-10.38
-5.71
-1.62
1.87
4.77
7.12
8.92
10.08
10.60
10.58
10.30
10.12
10.38
11.20
12.42
13.74
14.79
15.37
15.49
15.29
14.93
14.44
13.77
12.77
11.40
9.74
7.99
6.40
5.13
4.18
3.39
2.49
1.24
-0.50
-2.67
-5.04
-7.33
-9.35
-11.07
-12.70
-14.56
-16.92
-19.84
-23.13
-26.39
-29.13
-30.88
-31.28
-30.12
-27.37
-23.19
-17.94
-12.17
-6.49
-1.47
2.50
5.27
6.87
7.56
7.66
7.47
7.22
7.02
6.90
6.80
6.68
6.58
6.54
6.70
7.14
7.89
8.91
10.12
11.36
12.43
13.11
13.19
12.58
11.32
9.63
7.79
6.02
4.37
2.76
1.05
-0.82
-2.80
-4.78
-6.68
-8.62
-10.78
-13.35
-16.35
-19.56
-22.55
-24.86
-26.16
-26.33
-25.42
-23.64
-21.15
-18.10
-14.59
-10.73
-6.63
-2.49
1.44
4.84
7.39
8.86
9.23
8.72
7.73
6.71
5.98
5.66
5.72
6.04
6.56
7.26
8.20
9.34
10.55
11.61
12.26
12.25
11.50
10.08
8.15
5.98
3.83
1.90
0.24
-1.21
-2.64
-4.27
-6.26
-8.71
-11.58
-14.73
-17.83
-20.48
-22.19
-22.54
-21.32
-18.53
-14.57
-9.96
-5.37
-1.29
2.00
4.50
6.38
7.81
8.93
9.71
10.11
10.11
9.84
9.55
9.51
9.91
10.69
11.65
12.45
12.89
12.98
12.90
12.94
13.15
13.42
13.33
12.48
10.70
8.12
5.16
2.35
0.07
-1.68
-3.14
-4.79
-7.02
-10.01
-13.68
-17.72
-21.74
-25.30
-28.07
-29.77
-30.23
-29.34
-27.08
-23.53
-18.92
-13.65
-8.21
-3.15
1.10
4.29
6.41
7.72
8.64
9.59
10.82
12.39
14.09
15.66
16.90
17.77
18.35
18.80
19.23
19.59
19.83
19.93
19.93
19.91
19.89
19.72
19.11
17.74
15.50
12.45
8.94
5.35
2.03
-0.85
-3.26
-5.35
-7.31
-9.35
-11.67
-14.42
-17.71
-21.39
-25.19
-28.58
-30.99
-31.93
-31.10
-28.51
-24.39
-19.20
-13.39
-7.46
-1.85
3.03
6.92
9.69
11.45
12.57
13.42
14.36
15.49
16.71
17.84
18.76
19.45
19.93
20.24
20.32
20.12
19.67
19.09
18.58
18.29
18.26
18.33
18.28
17.88
16.94
15.43
13.36
10.85
8.03
5.11
2.24
-0.47
-2.95
-5.24
-7.33
-9.26
-11.09
-12.97
-15.16
-18.00
-21.61
-25.86
-30.17
-33.72
-35.67
-35.43
-32.90
-28.46
-22.83
-16.82
-11.10
-6.07
-1.85
1.58
4.31
6.36
7.79
8.61
8.95
9.04
9.15
9.49
10.14
11.06
12.07
13.01
13.83
14.60
15.45
16.45
17.54
18.48
18.98
18.77
17.80
16.20
14.26
12.27
10.40
8.61
6.75
4.66
2.30
-0.20
-2.55
-4.49
-5.91
-6.91
-7.76
-8.81
-10.38
-12.63
-15.59
-19.07
-22.72
-26.05
-28.53
-29.66
-29.15
-26.93
-23.19
-18.37
-12.96
-7.51
-2.43
2.00
5.64
8.43
10.37
11.50
11.89
11.74
11.34
11.08
11.23
11.90
12.94
14.09
15.11
15.87
16.39
16.75
16.95
16.91
16.54
15.81
14.81
13.68
12.52
11.25
9.70
7.75
5.46
3.06
0.87
-0.96
-2.43
-3.80
-5.34
-7.17
-9.28
-11.48
-13.67
-15.81
-18.01
-20.25
-22.34
-23.80
-24.07
-22.71
-19.63
-15.16
-9.92
-4.63
0.20
4.27
7.53
10.05
11.86
13.03
13.62
13.77
13.62
13.35
13.10
12.98
13.06
13.40
14.08
15.04
16.17
17.22
17.95
18.14
17.70
16.72
15.33
13.66
11.79
9.77
7.67
5.57
3.57
1.77
0.17
-1.27
-2.61
-3.91
-5.17
-6.43
-7.75
-9.28
-11.17
-13.55
-16.49
-19.86
-23.41
-26.71
-29.25
-30.50
-30.08
-27.90
-24.20
-19.49
-14.38
-9.34
-4.70
-0.52
3.15
6.26
8.68
10.29
11.07
11.21
11.05
11.00
11.38
12.28
13.55
14.87
15.96
16.67
17.09
17.42
17.84
18.39
18.83
18.87
18.26
16.98
15.23
13.33
11.52
9.87
8.25
6.47
4.45
2.25
0.06
-1.94
-3.66
-5.14
-6.54
-7.98
-9.63
-11.57
-13.85
-16.53
-19.59
-22.91
-26.21
-29.12
-31.18
-31.98
-31.26
-28.95
-25.19
-20.36
-15.02
-9.78
-5.16
-1.42
1.44
3.66
5.50
7.14
8.57
9.67
10.39
10.80
11.13
11.67
12.55
13.73
14.98
16.11
17.00
17.67
18.17
18.49
18.50
18.01
16.91
15.26
13.24
11.14
9.17
7.44
5.95
4.63
3.41
2.18
0.85
-0.67
-2.48
-4.56
-6.80
-9.04
-11.14
-13.13
-15.16
-17.47
-20.24
-23.42
-26.68
-29.44
-31.11
-31.24
-29.66
-26.53
-22.27
-17.38
-12.34
-7.59
-3.38
0.04
2.64
4.40
5.49
6.15
6.64
7.11
7.63
8.18
8.66
9.03
9.27
9.43
9.61
9.92
10.48
11.32
12.38
13.38
13.94
13.63
12.23
9.88
7.01
4.23
2.02
0.53
-0.52
-1.56
-3.02
-5.02
-7.35
-9.69
-11.79
-13.65
-15.54
-17.78
-20.60
-24.05
-27.98
-32.22
-36.55
-40.74
-44.49
-47.44
-49.25
-49.67
-48.72
-46.68
-44.01
-41.25
-38.91
-37.32
-36.70
-37.12
-38.58
-40.99
-44.22
-48.16
-52.73
-57.76
-63.08
-68.42
-73.53
-78.28
-82.68
-86.84
-90.79
-94.32
-96.86
-97.63
-95.76
-90.60
-81.86
-69.65
-54.38
-36.61
-16.97
3.82
24.97
45.55
64.59
81.19
94.61
104.35
110.20
112.22
110.81
106.60
100.42
93.18
85.74
78.77
72.78
68.02
64.59
62.43
61.39
61.19
61.41
61.57
61.14
59.69
56.94
52.97
48.14
43.05
38.26
34.15
30.78
28.00
25.58
23.42
21.54
19.97
18.65
17.37
15.84
13.88
11.51
8.98
6.59
4.54
2.80
1.21
-0.49
-2.43
-4.67
-7.13
-9.73
-12.34
-14.87
-17.16
-19.05
-20.31
-20.69
-19.96
-18.00
-14.78
-10.49
-5.56
-0.59
3.78
7.11
9.22
10.31
10.76
10.89
10.84
10.55
9.88
8.84
7.62
6.60
6.13
6.33
6.99
7.70
8.03
7.76
6.91
5.69
4.33
2.99
1.67
0.25
-1.40
-3.40
-5.76
-8.42
-11.28
-14.15
-16.85
-19.18
-20.89
-21.75
-21.53
-20.10
-17.45
-13.76
-9.48
-5.17
-1.38
1.55
3.56
4.87
5.76
6.45
6.98
7.22
7.05
6.46
5.58
4.69
4.07
3.87
4.06
4.46
4.73
4.64
4.01
2.87
1.35
-0.33
-2.02
-3.71
-5.48
-7.54
-10.07
-13.13
-16.59
-20.12
-23.19
-25.25
-25.87
-24.83
-22.24
-18.39
-13.69
-8.53
-3.27
1.82
6.42
10.20
12.88
14.37
14.81
14.50
13.82
13.05
12.34
11.69
11.13
10.68
10.37
10.20
10.11
9.93
9.52
8.79
7.73
6.40
4.89
3.24
1.41
-0.71
-3.26
-6.39
-10.14
-14.37
-18.80
-23.00
-26.45
-28.71
-29.37
-28.30
-25.60
-21.62
-16.93
-12.08
-7.52
-3.45
0.13
3.30
6.10
8.48
10.33
11.61
12.46
13.12
13.88
14.85
16.02
17.20
18.19
18.82
19.06
19.00
18.80
18.59
18.45
18.34
18.04
17.29
15.86
13.66
10.80
7.56
4.28
1.21
-1.53
-4.00
-6.38
-8.96
-12.05
-15.84
-20.36
-25.28
-29.94
-33.44
-34.96
-33.96
-30.41
-24.86
-18.13
-11.18
-4.75
0.76
5.34
9.18
12.57
15.68
18.51
20.96
22.88
24.32
25.45
26.54
27.79
29.19
30.57
31.65
32.27
32.43
32.25
31.90
31.41
30.71
29.64
28.04
25.85
23.17
20.25
17.37
14.83
12.76
11.10
9.60
7.92
5.77
3.11
0.10
-2.95
-5.75
-8.21
-10.45
-12.72
-15.33
-18.52
-22.44
-26.99
-31.87
-36.48
-40.07
-41.83
-41.26
-38.22
-33.05
-26.48
-19.34
-12.34
-5.98
-0.53
3.94
7.45
10.14
12.21
13.95
15.62
17.42
19.38
21.34
23.10
24.47
25.40
26.02
26.59
27.33
28.36
29.56
30.62
31.22
31.14
30.41
29.25
27.92
26.56
25.10
23.34
21.11
18.52
15.85
13.48
11.70
10.46
9.53
8.51
7.11
5.28
3.14
0.81
-1.62
-4.19
-7.02
-10.09
-13.32
-16.54
-19.70
-22.93
-26.47
-30.55
-35.11
-39.76
-43.74
-46.18
-46.39
-44.06
-39.37
-32.88
-25.44
-17.91
-11.02
-5.21
-0.50
3.33
6.69
9.87
12.94
15.78
18.17
19.97
21.29
22.39
23.60
25.07
26.74
28.32
29.50
30.09
30.13
29.81
29.39
28.95
28.43
27.59
26.17
24.07
21.43
18.58
15.88
13.59
11.69
10.02
8.37
6.62
4.81
3.04
1.38
-0.20
-1.84
-3.75
-6.07
-8.85
-11.97
-15.18
-18.23
-21.00
-23.58
-26.29
-29.43
-33.02
-36.68
-39.58
-40.80
-39.72
-36.26
-30.97
-24.66
-18.17
-12.01
-6.39
-1.37
3.01
6.62
9.29
10.93
11.70
11.92
12.07
12.58
13.63
15.15
16.73
17.91
18.44
18.42
18.29
18.57
19.52
20.96
22.34
22.99
22.51
20.94
18.70
16.36
14.32
12.69
11.30
9.87
8.18
6.17
3.95
1.67
-0.48
-2.40
-4.03
-5.43
-6.66
-7.81
-9.00
-10.34
-11.98
-14.05
-16.73
-20.04
-23.84
-27.75
-31.16
-33.41
-33.91
-32.40
-28.98
-24.15
-18.61
-13.08
-8.05
-3.73
-0.08
3.04
5.62
7.51
8.50
8.46
7.60
6.40
5.46
5.25
5.84
7.00
8.35
9.63
10.81
12.03
13.41
14.89
16.16
16.84
16.65
15.54
13.76
11.71
9.77
8.17
6.93
5.88
4.77
3.42
1.75
-0.16
-2.12
-3.92
-5.48
-6.81
-8.12
-9.66
-11.68
-14.31
-17.54
-21.19
-24.89
-28.19
-30.60
-31.73
-31.36
-29.45
-26.19
-21.90
-17.02
-12.04
-7.41
-3.47
-0.39
1.87
3.49
4.71
5.67
6.40
6.81
6.82
6.47
5.92
5.38
5.07
5.02
5.20
5.49
5.86
6.27
6.72
7.17
7.46
7.45
6.97
5.97
4.52
2.77
0.98
-0.62
-1.79
-2.47
-2.72
-2.82
-3.12
-3.94
-5.45
-7.66
-10.43
-13.50
-16.62
-19.47
-21.72
-23.00
-23.01
-21.62
-18.94
-15.36
-11.37
-7.45
-3.88
-0.80
1.89
4.21
6.14
7.55
8.26
8.21
7.47
6.37
5.31
4.64
4.56
5.09
6.05
7.19
8.24
8.91
9.00
8.46
7.42
6.15
4.98
4.16
3.71
3.44
3.06
2.30
1.03
-0.67
-2.61
-4.62
-6.60
-8.64
-10.86
-13.42
-16.29
-19.26
-21.90
-23.71
-24.27
-23.43
-21.36
-18.46
-15.14
-11.75
-8.53
-5.63
-3.16
-1.25
0.01
0.59
0.58
0.17
-0.40
-0.88
-1.07
-0.84
-0.18
0.78
1.85
2.76
3.33
3.54
3.48
3.29
3.07
2.77
2.28
1.49
0.35
-1.08
-2.75
-4.54
-6.39
-8.22
-9.97
-11.63
-13.25
-14.99
-17.02
-19.51
-22.46
-25.68
-28.84
-31.53
-33.41
-34.19
-33.76
-32.13
-29.46
-25.95
-21.94
-17.79
-13.85
-10.41
-7.64
-5.54
-3.92
-2.48
-0.86
1.18
3.77
6.81
10.06
13.28
16.23
18.82
20.99
22.84
24.59
26.50
28.88
31.76
34.82
37.33
38.36
37.16
33.49
27.87
21.40
15.31
10.48
7.14
4.86
2.90
0.64
-2.14
-5.20
-8.05
-10.21
-11.40
-11.51
-10.63
-8.95
-6.77
-4.52
-2.67
-1.65
-1.67
-2.63
-4.23
-6.11
-8.07
-10.01
-11.93
-13.68
-15.04
-15.71
-15.54
-14.62
-13.19
-11.56
-9.90
-8.23
-6.50
-4.70
-2.93
-1.40
-0.30
0.29
0.42
0.25
-0.13
-0.67
-1.43
-2.49
-3.89
-5.56
-7.31
-8.93
-10.23
-11.21
-12.00
-12.85
-13.97
-15.29
-16.50
-17.06
-16.45
-14.39
-11.00
-6.71
-2.12
2.31
6.34
9.95
13.22
16.12
18.52
20.20
21.04
21.05
20.42
19.46
18.46
17.64
17.07
16.68
16.30
15.76
14.95
13.96
12.98
12.20
11.67
11.15
10.26
8.68
6.35
3.55
0.85
-1.23
-2.48
-3.10
-3.60
-4.55
-6.25
-8.63
-11.23
-13.48
-14.83
-14.96
-13.78
-11.44
-8.24
-4.52
-0.67
2.99
6.18
8.73
10.55
11.68
12.25
12.40
12.28
11.96
11.53
10.98
10.37
9.68
8.96
8.27
7.72
7.38
7.22
7.14
6.85
6.09
4.68
2.65
0.24
-2.25
-4.63
-6.96
-9.47
-12.46
-16.04
-20.15
-24.53
-28.87
-32.91
-36.41
-39.10
-40.67
-40.80
-39.23
-35.98
-31.36
-25.87
-20.13
-14.67
-9.82
-5.74
-2.45
0.05
1.79
2.81
3.24
3.21
2.94
2.65
2.56
2.85
3.59
4.76
6.16
7.55
8.62
9.15
9.01
8.21
6.82
4.99
2.89
0.64
-1.61
-3.80
-5.91
-8.01
-10.27
-12.88
-15.96
-19.49
-23.32
-27.13
-30.49
-32.95
-34.05
-33.48
-31.17
-27.35
-22.56
-17.43
-12.52
-8.17
-4.43
-1.21
1.60
4.00
5.93
7.28
8.09
8.57
8.98
9.56
10.42
11.49
12.59
13.55
14.26
14.72
15.00
15.14
15.08
14.63
13.55
11.62
8.79
5.26
1.46
-2.12
-5.08
-7.34
-9.09
-10.81
-13.01
-16.04
-19.93
-24.30
-28.48
-31.70
-33.30
-32.89
-30.47
-26.35
-21.02
-15.05
-8.97
-3.25
1.74
5.75
8.71
10.71
11.98
12.79
13.37
13.87
14.34
14.83
15.36
16.01
16.78
17.64
18.54
19.38
20.14
20.78
21.28
21.50
21.20
20.12
18.08
15.13
11.58
7.86
4.38
1.34
-1.34
-3.88
-6.55
-9.51
-12.83
-16.55
-20.67
-25.19
-29.95
-34.55
-38.31
-40.46
-40.35
-37.74
-32.92
-26.55
-19.51
-12.53
-6.13
-0.58
4.03
7.65
10.30
11.98
12.86
13.21
13.38
13.74
14.53
15.85
17.57
19.50
21.39
23.05
24.36
25.26
25.77
25.90
25.67
25.02
23.83
21.95
19.35
16.10
12.44
8.71
5.22
2.16
-0.48
-2.81
-4.98
-7.11
-9.31
-11.75
-14.68
-18.33
-22.69
-27.38
-31.53
-34.10
-34.18
-31.41
-26.08
-19.04
-11.35
-3.91
2.67
8.12
12.33
15.24
16.90
17.46
17.30
16.87
16.65
16.95
17.86
19.28
21.04
22.98
24.89
26.59
27.84
28.47
28.44
27.85
26.95
25.90
24.73
23.27
21.21
18.28
14.40
9.73
4.63
-0.39
-4.92
-8.71
-11.81
-14.48
-17.13
-20.21
-24.00
-28.56
-33.58
-38.42
-42.24
-44.20
-43.67
-40.37
-34.52
-26.67
-17.68
-8.49
0.00
7.16
12.62
16.37
18.68
19.97
20.68
21.14
21.60
22.17
22.95
23.99
25.27
26.77
28.39
30.01
31.46
32.58
33.16
33.04
32.13
30.49
28.28
25.67
22.81
19.77
16.57
13.28
9.97
6.79
3.82
1.09
-1.58
-4.39
-7.59
-11.38
-15.87
-21.06
-26.76
-32.64
-38.19
-42.74
-45.55
-45.98
-43.62
-38.48
-31.00
-21.96
-12.42
-3.34
4.52
10.76
15.40
18.68
21.00
22.73
24.11
25.26
26.25
27.15
28.10
29.26
30.73
32.49
34.32
35.85
36.71
36.70
35.84
34.40
32.72
30.95
29.02
26.62
23.46
19.44
14.84
10.19
6.05
2.80
0.38
-1.61
-3.77
-6.55
-10.23
-14.76
-19.92
-25.38
-30.79
-35.74
-39.75
-42.23
-42.66
-40.70
-36.35
-30.07
-22.67
-15.13
-8.30
-2.68
1.62
4.77
7.03
8.53
9.21
8.99
8.00
6.76
6.13
6.99
9.82
14.38
19.81
24.98
28.90
31.20
32.01
31.82
30.99
29.66
27.69
24.87
21.18
16.83
12.24
7.84
3.95
0.70
-1.96
-4.31
-6.72
-9.61
-13.34
-18.06
-23.56
-29.26
-34.29
-37.75
-38.91
-37.47
-33.54
-27.61
-20.34
-12.46
-4.63
2.57
8.67
13.31
16.36
17.90
18.25
17.88
17.25
16.70
16.40
16.37
16.60
17.07
17.83
18.89
20.21
21.66
23.00
24.00
24.36
23.81
22.11
19.26
15.38
10.83
6.10
1.61
-2.36
-5.81
-8.91
-11.96
-15.24
-18.96
-23.17
-27.66
-32.01
-35.52
-37.41
-36.98
-33.89
-28.30
-20.85
-12.52
-4.30
3.06
9.14
13.83
17.13
19.11
19.79
19.30
17.95
16.26
14.88
14.36
14.99
16.64
18.85
21.03
22.72
23.68
23.93
23.62
22.85
21.65
19.93
17.59
14.61
11.12
7.36
3.60
0.05
-3.24
-6.45
-9.82
-13.58
-17.84
-22.55
-27.52
-32.50
-37.19
-41.22
-44.07
-45.17
-43.98
-40.24
-34.12
-26.23
-17.53
-8.97
-1.29
5.11
10.15
13.88
16.36
17.63
17.83
17.27
16.49
16.07
16.47
17.80
19.74
21.78
23.43
24.47
24.99
25.27
25.50
25.64
25.47
24.71
23.18
20.90
18.04
14.78
11.27
7.53
3.67
-0.21
-3.97
-7.57
-11.11
-14.86
-19.14
-24.05
-29.44
-34.77
-39.25
-42.07
-42.52
-40.26
-35.37
-28.39
-20.15
-11.63
-3.72
3.00
8.23
12.00
14.51
16.04
16.77
16.93
16.70
16.30
15.99
15.99
16.45
17.32
18.43
19.50
20.28
20.62
20.54
20.14
19.54
18.75
17.64
15.97
13.53
10.24
6.31
2.16
-1.70
-4.93
-7.43
-9.43
-11.30
-13.42
-15.96
-18.94
-22.26
-25.81
-29.46
-32.97
-35.94
-37.71
-37.61
-35.19
-30.43
-23.87
-16.38
-8.92
-2.22
3.34
7.71
10.93
13.06
14.08
14.01
13.04
11.56
10.12
9.17
8.96
9.45
10.40
11.51
12.60
13.56
14.34
14.89
15.08
14.71
13.64
11.83
9.39
6.56
3.64
0.92
-1.40
-3.27
-4.84
-6.40
-8.36
-11.06
-14.69
-19.08
-23.72
-27.80
-30.44
-30.92
-28.97
-24.87
-19.28
-13.07
-6.97
-1.40
3.44
7.46
10.59
12.69
13.67
13.65
13.00
12.20
11.74
11.83
12.39
13.11
13.68
13.96
14.02
14.13
14.47
15.10
15.80
16.17
15.76
14.24
11.49
7.72
3.33
-1.21
-5.45
-9.13
-12.16
-14.66
-16.88
-19.15
-21.85
-25.27
-29.52
-34.32
-38.94
-42.32
-43.39
-41.41
-36.32
-28.84
-20.18
-11.66
-4.23
1.67
6.14
9.53
12.14
14.19
15.68
16.64
17.14
17.35
17.50
17.75
18.13
18.56
18.94
19.19
19.29
19.29
19.20
19.01
18.64
17.98
16.83
15.05
12.48
9.13
5.16
0.93
-3.09
-6.49
-9.05
-10.83
-12.20
-13.65
-15.69
-18.63
-22.51
-27.05
-31.67
-35.58
-38.01
-38.28
-36.09
-31.52
-25.04
-17.38
-9.35
-1.74
4.85
10.04
13.67
15.80
16.62
16.52
15.93
15.31
15.01
15.24
16.01
17.17
18.53
19.91
21.21
22.32
23.06
23.14
22.32
20.52
17.95
15.12
12.50
10.38
8.66
6.98
4.92
2.29
-0.78
-3.95
-6.81
-9.11
-10.87
-12.39
-14.11
-16.50
-19.89
-24.29
-29.33
-34.30
-38.35
-40.75
-41.05
-39.18
-35.32
-29.81
-23.09
-15.72
-8.36
-1.75
3.48
7.00
8.88
9.57
9.64
9.59
9.68
9.92
10.22
10.54
10.91
11.48
12.35
13.46
14.65
15.59
16.02
15.78
14.92
13.64
12.20
10.79
9.42
7.96
6.19
4.05
1.60
-0.95
-3.34
-5.42
-7.23
-8.97
-10.85
-13.12
-15.90
-19.24
-23.03
-26.94
-30.45
-32.89
-33.62
-32.24
-28.75
-23.53
-17.22
-10.50
-3.96
1.92
6.81
10.42
12.61
13.36
12.95
11.86
10.70
10.01
10.08
10.99
12.52
14.36
16.18
17.68
18.70
19.10
18.91
18.16
16.95
15.33
13.32
10.91
8.14
5.15
2.17
-0.60
-3.03
-5.17
-7.19
-9.27
-11.61
-14.35
-17.52
-21.09
-24.85
-28.44
-31.30
-32.79
-32.36
-29.81
-25.41
-19.75
-13.63
-7.74
-2.47
2.10
6.08
9.56
12.52
14.76
16.11
16.52
16.26
15.82
15.80
16.57
18.12
20.10
21.91
23.07
23.35
22.86
21.84
20.58
19.22
17.72
16.00
13.92
11.49
8.73
5.82
2.90
0.11
-2.50
-4.94
-7.30
-9.69
-12.19
-14.90
-17.90
-21.29
-25.14
-29.33
-33.53
-37.14
-39.49
-39.96
-38.27
-34.50
-29.03
-22.45
-15.40
-8.51
-2.31
2.82
6.73
9.49
11.37
12.74
13.85
14.85
15.78
16.63
17.44
18.33
19.39
20.66
22.06
23.32
24.19
24.42
23.98
22.98
21.64
20.21
18.81
17.40
15.82
13.90
11.55
8.82
5.86
2.91
0.14
-2.37
-4.60
-6.63
-8.51
-10.31
-12.16
-14.20
-16.67
-19.80
-23.73
-28.33
-33.13
-37.38
-40.22
-40.92
-39.13
-34.95
-28.92
-21.86
-14.59
-7.78
-1.92
2.85
6.49
9.14
10.92
12.02
12.56
12.74
12.75
12.83
13.20
13.97
15.09
16.41
17.72
18.87
19.76
20.40
20.73
20.70
20.12
18.90
16.97
14.57
12.00
9.63
7.67
6.07
4.60
2.90
0.82
-1.61
-4.11
-6.39
-8.29
-9.91
-11.57
-13.67
-16.52
-20.25
-24.72
-29.53
-34.02
-37.42
-39.02
-38.34
-35.35
-30.43
-24.26
-17.54
-10.87
-4.62
0.90
5.49
8.87
10.89
11.57
11.13
10.05
8.82
7.90
7.49
7.64
8.24
9.13
10.19
11.36
12.60
13.84
14.95
15.73
15.98
15.53
14.35
12.53
10.23
7.70
5.15
2.81
0.80
-0.85
-2.20
-3.47
-4.91
-6.87
-9.62
-13.31
-17.86
-22.91
-27.84
-31.81
-34.00
-33.87
-31.31
-26.71
-20.78
-14.33
-8.01
-2.23
2.83
7.07
10.43
12.79
14.12
14.47
14.05
13.22
12.36
11.83
11.86
12.56
13.81
15.40
17.01
18.37
19.34
19.84
19.88
19.45
18.52
16.99
14.81
12.07
8.91
5.59
2.35
-0.67
-3.47
-6.20
-9.06
-12.25
-15.85
-19.85
-24.01
-27.97
-31.28
-33.51
-34.34
-33.55
-31.07
-26.98
-21.57
-15.29
-8.81
-2.81
2.06
5.48
7.50
8.49
8.98
9.37
9.86
10.39
10.83
11.17
11.55
12.20
13.28
14.76
16.38
17.81
18.72
18.96
18.52
17.51
16.03
14.15
11.93
9.42
6.62
3.62
0.50
-2.65
-5.78
-8.88
-12.14
-15.75
-19.92
-24.67
-29.74
-34.62
-38.55
-40.83
-40.94
-38.83
-34.73
-29.15
-22.68
-15.84
-9.07
-2.66
3.08
7.97
11.77
14.39
15.86
16.39
16.38
16.23
16.32
16.79
17.61
18.59
19.53
20.30
20.92
21.48
22.00
22.34
22.23
21.40
19.76
17.46
14.87
12.33
10.04
7.90
5.64
3.03
-0.02
-3.32
-6.54
-9.40
-11.82
-14.03
-16.46
-19.55
-23.54
-28.29
-33.24
-37.51
-40.13
-40.33
-37.72
-32.55
-25.51
-17.60
-9.84
-2.97
2.65
7.02
10.35
12.85
14.67
15.87
16.52
16.73
16.75
16.84
17.20
17.86
18.77
19.81
20.87
21.93
22.95
23.84
24.44
24.57
24.04
22.86
21.15
19.12
17.00
14.86
12.70
10.41
7.91
5.16
2.27
-0.60
-3.33
-5.82
-8.16
-10.50
-13.09
-16.18
-20.00
-24.60
-29.77
-34.93
-39.24
-41.78
-41.83
-39.14
-34.01
-27.19
-19.58
-11.97
-4.95
1.19
6.27
10.17
12.84
14.35
14.97
15.08
15.12
15.41
16.11
17.18
18.51
19.94
21.36
22.66
23.75
24.59
25.14
25.40
25.34
24.92
24.06
22.71
20.89
18.75
16.54
14.48
12.71
11.16
9.60
7.76
5.43
2.61
-0.57
-3.88
-7.15
-10.29
-13.36
-16.45
-19.66
-23.04
-26.58
-30.30
-34.09
-37.70
-40.64
-42.28
-41.89
-39.00
-33.67
-26.48
-18.40
-10.46
-3.43
2.31
6.77
10.11
12.46
13.92
14.55
14.55
14.29
14.20
14.60
15.56
16.89
18.22
19.22
19.76
19.96
20.09
20.35
20.81
21.28
21.42
20.89
19.48
17.27
14.51
11.60
8.85
6.40
4.19
2.06
-0.16
-2.51
-4.86
-7.03
-8.85
-10.33
-11.66
-13.13
-15.04
-17.64
-20.96
-24.83
-28.82
-32.36
-34.78
-35.45
-34.00
-30.41
-25.01
-18.42
-11.36
-4.45
1.80
7.09
11.19
13.98
15.42
15.67
15.11
14.25
13.63
13.56
14.08
15.03
16.18
17.43
18.78
20.33
22.06
23.78
25.10
25.67
25.28
23.94
21.92
19.49
16.94
14.38
11.86
9.30
6.63
3.80
0.80
-2.31
-5.35
-8.06
-10.27
-11.92
-13.23
-14.61
-16.54
-19.33
-23.05
-27.41
-31.89
-35.82
-38.57
-39.59
-38.52
-35.27
-30.02
-23.25
-15.69
-8.20
-1.56
3.67
7.37
9.71
11.15
12.12
12.95
13.77
14.52
15.19
15.78
16.46
17.39
18.70
20.32
22.05
23.63
24.84
25.58
25.81
25.57
24.83
23.61
21.88
19.67
17.07
14.23
11.35
8.55
5.92
3.37
0.83
-1.85
-4.69
-7.64
-10.58
-13.38
-16.01
-18.54
-21.19
-24.20
-27.77
-31.90
-36.30
-40.38
-43.22
-43.94
-41.94
-37.22
-30.42
-22.60
-14.85
-7.90
-1.98
3.08
7.41
10.99
13.52
14.73
14.61
13.64
12.60
12.22
12.89
14.49
16.52
18.39
19.77
20.63
21.20
21.74
22.35
22.86
22.92
22.26
20.77
18.56
15.91
13.07
10.24
7.49
4.90
2.51
0.34
-1.64
-3.51
-5.40
-7.42
-9.57
-11.85
-14.27
-16.95
-20.10
-23.84
-28.06
-32.38
-36.14
-38.66
-39.45
-38.21
-34.94
-29.84
-23.32
-15.95
-8.44
-1.51
4.27
8.60
11.46
13.05
13.65
13.61
13.24
12.84
12.67
12.93
13.69
14.86
16.25
17.68
19.05
20.29
21.41
22.28
22.74
22.58
21.69
20.12
18.03
15.72
13.37
11.08
8.79
6.40
3.82
1.07
-1.73
-4.42
-6.87
-9.04
-11.02
-12.95
-14.96
-17.19
-19.72
-22.63
-25.98
-29.70
-33.53
-36.92
-39.17
-39.58
-37.69
-33.52
-27.60
-20.86
-14.25
-8.48
-3.87
-0.28
2.58
4.98
7.00
8.54
9.45
9.70
9.54
9.32
9.46
10.16
11.37
12.83
14.25
15.40
16.23
16.81
17.19
17.41
17.32
16.75
15.57
13.75
11.44
8.88
6.35
4.02
2.02
0.22
-1.48
-3.21
-5.03
-6.94
-8.92
-11.00
-13.37
-16.21
-19.65
-23.56
-27.55
-30.99
-33.19
-33.60
-31.96
-28.41
-23.35
-17.45
-11.36
-5.61
-0.56
3.65
6.95
9.30
10.64
10.99
10.46
9.38
8.18
7.26
6.92
7.17
7.92
9.00
10.26
11.63
13.06
14.45
15.62
16.39
16.54
15.96
14.62
12.54
9.81
6.57
3.05
-0.51
-3.87
-6.89
-9.51
-11.79
-13.85
-15.87
-18.04
-20.50
-23.31
-26.26
-28.92
-30.66
-30.80
-28.93
-24.97
-19.35
-12.78
-6.11
-0.04
5.02
8.96
11.85
13.85
15.17
15.90
16.14
15.98
15.58
15.19
15.06
15.38
16.18
17.38
18.74
20.04
21.08
21.73
21.95
21.74
21.08
19.92
18.21
15.83
12.82
9.28
5.44
1.61
-1.96
-5.11
-7.81
-10.19
-12.39
-14.55
-16.87
-19.58
-22.88
-26.87
-31.37
-35.88
-39.62
-41.80
-41.83
-39.48
-34.96
-28.71
-21.41
-13.71
-6.31
0.23
5.48
9.28
11.77
13.27
14.17
14.74
15.10
15.24
15.19
15.09
15.20
15.80
17.00
18.64
20.31
21.60
22.19
22.05
21.36
20.39
19.28
18.07
16.64
14.84
12.67
10.25
7.75
5.36
3.10
0.94
-1.20
-3.35
-5.58
-7.95
-10.56
-13.58
-17.10
-21.12
-25.46
-29.75
-33.48
-36.10
-37.10
-36.08
-32.94
-27.82
-21.25
-13.98
-6.84
-0.55
4.46
8.05
10.36
11.65
12.25
12.35
12.13
11.71
11.30
11.15
11.52
12.55
14.17
16.12
18.07
19.78
21.16
22.27
23.14
23.67
23.62
22.73
20.93
18.49
15.90
13.60
11.74
10.11
8.29
5.95
3.05
-0.11
-3.15
-5.76
-7.90
-9.79
-11.78
-14.20
-17.23
-20.94
-25.19
-29.65
-33.83
-37.07
-38.71
-38.28
-35.70
-31.24
-25.48
-19.10
-12.63
-6.47
-0.81
4.12
8.08
10.77
12.05
12.03
11.17
10.11
9.42
9.36
9.85
10.58
11.33
12.10
13.10
14.50
16.22
17.86
18.87
18.87
17.85
16.18
14.36
12.74
11.29
9.73
7.74
5.15
2.15
-0.89
-3.57
-5.71
-7.34
-8.76
-10.31
-12.29
-14.88
-18.06
-21.67
-25.33
-28.59
-30.86
-31.66
-30.65
-27.74
-23.16
-17.34
-10.91
-4.51
1.24
5.91
9.28
11.43
12.68
13.40
13.94
14.46
14.96
15.34
15.54
15.68
15.98
16.68
17.83
19.22
20.45
21.11
20.94
19.97
18.44
16.66
14.88
13.14
11.36
9.39
7.07
4.42
1.55
-1.29
-3.89
-6.11
-8.00
-9.77
-11.73
-14.21
-17.40
-21.33
-25.77
-30.30
-34.30
-37.18
-38.35
-37.44
-34.38
-29.37
-22.93
-15.74
-8.56
-2.06
3.28
7.27
9.99
11.71
12.81
13.53
14.01
14.24
14.26
14.20
14.31
14.86
15.99
17.65
19.47
21.04
21.98
22.15
21.67
20.81
19.87
18.99
18.15
17.15
15.76
13.83
11.35
8.47
5.39
2.36
-0.50
-3.12
-5.51
-7.70
-9.72
-11.67
-13.67
-15.98
-18.89
-22.65
-27.26
-32.36
-37.17
-40.71
-42.07
-40.65
-36.50
-30.20
-22.71
-15.10
-8.20
-2.47
2.03
5.48
8.17
10.32
12.01
13.30
14.27
15.07
15.90
16.97
18.30
19.72
20.95
21.69
21.86
21.59
21.22
21.11
21.42
21.92
22.15
21.53
19.72
16.78
13.18
9.67
6.88
5.13
4.32
4.03
3.69
2.86
1.35
-0.70
-2.86
-4.61
-5.49
-5.37
-4.41
-3.02
-1.52
0.15
2.59
6.96
14.66
27.06
45.12
69.11
98.41
131.19
164.49
194.54
217.55
230.73
233.27
226.68
214.46
201.05
190.30
184.40
183.20
184.63
185.54
182.82
174.29
159.12
137.73
111.40
81.93
51.33
21.67
-5.07
-27.46
-45.12
-59.12
-71.88
-86.43
-105.07
-128.38
-154.67
-180.37
-201.30
-213.73
-215.34
-205.62
-185.87
-159.16
-130.02
-103.84
-85.68
-78.82
-83.57
-97.04
-114.12
-129.41
-139.10
-141.98
-139.10
-132.58
-124.33
-115.36
-105.87
-95.87
-85.70
-76.04
-67.55
-60.40
-54.00
-47.29
-39.34
-30.03
-20.22
-11.47
-5.31
-2.62
-3.28
-6.37
-10.73
-15.39
-19.90
-24.23
-28.51
-32.85
-37.17
-41.22
-44.57
-46.76
-47.28
-45.75
-41.93
-35.88
-27.99
-18.93
-9.58
-0.93
6.01
10.37
11.70
10.18
6.69
2.69
-0.22
-0.84
1.36
6.08
12.49
19.53
26.33
32.30
37.03
40.17
41.26
39.96
36.15
30.30
23.39
16.67
11.16
7.36
5.03
3.50
2.16
0.73
-0.55
-1.16
-0.64
1.10
3.69
6.46
8.72
10.02
10.29
9.73
8.70
7.34
5.55
2.95
-0.86
-6.01
-12.10
-18.23
-23.23
-26.04
-26.06
-23.27
-18.22
-11.77
-4.87
1.58
6.82
10.21
11.32
9.77
5.36
-2.02
-12.38
-25.45
-40.82
-57.76
-75.36
-92.43
-107.63
-119.44
-126.42
-127.43
-121.96
-110.37
-93.87
-74.36
-54.06
-35.19
-19.50
-7.85
0.05
5.68
11.31
19.27
30.97
46.11
62.41
76.39
84.63
85.08
77.89
65.23
50.54
37.26
28.03
24.10
25.41
30.63
37.56
43.68
46.79
45.70
40.57
32.65
23.53
14.25
4.76
-5.88
-18.54
-33.15
-48.23
-61.40
-70.41
-74.15
-73.10
-68.93
-63.61
-58.57
-54.36
-50.92
-48.14
-46.38
-46.52
-49.54
-55.91
-65.13
-75.67
-85.56
-93.08
-97.41
-98.93
-98.90
-98.91
-100.08
-102.54
-105.33
-106.77
-105.11
-99.17
-88.89
-75.32
-60.37
-46.20
-34.59
-26.42
-21.43
-18.36
-15.49
-11.29
-5.02
3.02
11.79
20.05
27.07
32.92
38.32
44.09
50.58
57.43
63.74
68.59
71.59
73.02
73.58
73.94
74.29
74.34
73.49
71.29
67.74
63.26
58.48
53.93
49.70
45.63
41.59
37.86
35.32
35.22
38.63
45.83
56.06
67.66
78.72
87.81
94.40
98.83
101.83
104.00
105.50
106.10
105.48
103.56
100.60
97.16
93.83
91.05
88.92
87.26
85.61
83.59
80.93
77.61
73.73
69.41
64.58
58.92
52.08
43.81
34.17
23.54
12.47
1.56
-8.65
-17.59
-24.64
-29.16
-30.63
-28.85
-24.04
-16.86
-8.23
0.94
9.82
17.80
24.42
29.35
32.43
33.64
33.17
31.40
28.76
25.77
22.89
20.50
18.78
17.73
17.14
16.67
15.93
14.62
12.63
9.99
6.88
3.46
-0.22
-4.20
-8.68
-13.86
-19.88
-26.70
-33.95
-40.94
-46.76
-50.44
-51.33
-49.17
-44.23
-37.13
-28.65
-19.53
-10.41
-1.82
5.73
11.73
15.78
17.75
17.81
16.51
14.55
12.70
11.48
11.18
11.76
12.97
14.43
15.77
16.71
17.03
16.64
15.50
13.63
11.10
8.06
4.64
0.99
-2.81
-6.87
-11.37
-16.57
-22.53
-29.00
-35.19
-40.02
-42.29
-41.22
-36.75
-29.59
-20.95
-12.10
-3.96
3.07
8.99
13.92
17.90
20.86
22.77
23.80
24.34
24.83
25.58
26.60
27.61
28.26
28.36
27.99
27.45
27.11
27.13
27.35
27.37
26.69
24.98
22.23
18.66
14.67
10.60
6.64
2.76
-1.18
-5.42
-10.19
-15.67
-21.94
-28.80
-35.72
-41.83
-46.13
-47.74
-46.19
-41.57
-34.47
-25.85
-16.74
-8.06
-0.40
5.91
10.90
14.78
17.89
20.48
22.70
24.52
25.83
26.55
26.71
26.51
26.28
26.26
26.58
27.16
27.75
28.03
27.80
26.97
25.62
23.90
21.94
19.79
17.39
14.67
11.61
8.31
4.92
1.59
-1.57
-4.59
-7.52
-10.49
-13.68
-17.31
-21.64
-26.81
-32.75
-39.04
-44.93
-49.49
-51.85
-51.39
-47.91
-41.67
-33.30
-23.77
-14.14
-5.37
1.91
7.54
11.79
15.14
17.97
20.42
22.35
23.53
23.82
23.36
22.49
21.59
20.97
20.73
20.85
21.22
21.75
22.40
23.09
23.70
24.04
23.90
23.05
21.40
18.96
15.95
12.67
9.41
6.32
3.45
0.73
-1.91
-4.45
-6.82
-8.99
-11.01
-13.10
-15.62
-18.90
-23.10
-28.13
-33.59
-38.77
-42.89
-45.15
-45.01
-42.25
-37.11
-30.17
-22.31
-14.39
-7.20
-1.21
3.41
6.76
9.08
10.58
11.43
11.74
11.72
11.71
12.10
13.21
15.04
17.30
19.40
20.84
21.35
21.03
20.25
19.38
18.62
17.89
16.96
15.57
13.67
11.43
9.14
7.12
5.48
4.07
2.48
0.29
-2.71
-6.41
-10.37
-14.03
-16.98
-19.17
-20.90
-22.69
-25.02
-28.13
-31.98
-36.26
-40.46
-43.97
-46.20
-46.60
-44.86
-40.92
-35.01
-27.68
-19.70
-11.94
-5.19
0.04
3.58
5.68
6.82
7.56
8.29
9.19
10.20
11.18
12.01
12.67
13.23
13.78
14.45
15.25
16.20
17.17
18.01
18.48
18.38
17.57
16.08
14.05
11.67
9.09
6.40
3.65
0.89
-1.81
-4.32
-6.58
-8.59
-10.41
-12.16
-13.90
-15.69
-17.54
-19.50
-21.65
-24.13
-26.97
-30.11
-33.23
-35.83
-37.26
-36.91
-34.43
-29.83
-23.57
-16.41
-9.24
-2.82
2.41
6.31
9.01
10.74
11.75
12.21
12.26
12.08
11.86
11.89
12.33
13.27
14.55
15.90
16.99
17.65
17.90
17.93
17.94
17.99
17.95
17.56
16.57
14.92
12.78
10.39
8.00
5.74
3.62
1.57
-0.54
-2.80
-5.37
-8.42
-12.04
-16.31
-21.09
-26.07
-30.74
-34.43
-36.48
-36.36
-33.88
-29.25
-23.05
-16.14
-9.43
-3.63
0.87
4.05
6.17
7.60
8.67
9.51
10.10
10.25
9.87
8.96
7.71
6.50
5.65
5.35
5.57
6.12
6.79
7.40
7.93
8.42
8.89
9.22
9.18
8.50
7.01
4.72
1.87
-1.17
-4.13
-6.84
-9.37
-11.85
-14.43
-17.17
-20.08
-23.16
-26.49
-30.13
-34.03
-37.84
-40.95
-42.56
-42.06
-39.20
-34.30
-28.09
-21.44
-15.11
-9.51
-4.74
-0.73
2.58
5.19
7.02
8.00
8.16
7.71
6.97
6.39
6.31
6.89
8.07
9.51
10.77
11.49
11.54
11.06
10.38
9.79
9.36
8.87
7.93
6.20
3.58
0.29
-3.30
-6.77
-9.88
-12.58
-14.97
-17.21
-19.43
-21.74
-24.24
-27.04
-30.26
-33.88
-37.69
-41.23
-43.81
-44.72
-43.43
-39.84
-34.30
-27.56
-20.55
-14.08
-8.62
-4.26
-0.88
1.77
3.83
5.26
5.95
5.78
4.81
3.34
1.88
0.93
0.91
1.89
3.61
5.59
7.30
8.41
8.88
8.85
8.55
8.11
7.43
6.33
4.64
2.36
-0.24
-2.78
-4.91
-6.52
-7.72
-8.89
-10.37
-12.36
-14.87
-17.77
-20.88
-24.05
-27.14
-29.89
-31.82
-32.31
-30.77
-26.98
-21.15
-14.04
-6.62
0.20
5.81
10.09
13.24
15.58
17.33
18.50
19.01
18.77
17.90
16.69
15.55
14.86
14.81
15.33
16.17
16.98
17.43
17.36
16.74
15.60
14.00
11.92
9.32
6.22
2.79
-0.66
-3.74
-6.19
-8.02
-9.55
-11.30
-13.73
-16.96
-20.61
-23.90
-25.82
-25.46
-22.29
-16.33
-8.14
1.27
10.72
19.09
25.55
29.77
31.75
31.90
30.68
28.56
26.03
23.48
21.25
19.53
18.31
17.39
16.46
15.30
13.91
12.46
11.13
9.90
8.51
6.62
4.02
0.81
-2.60
-5.73
-8.29
-10.38
-12.30
-14.51
-17.26
-20.64
-24.55
-28.87
-33.44
-38.05
-42.33
-45.66
-47.37
-46.88
-43.93
-38.74
-31.86
-24.13
-16.43
-9.62
-4.24
-0.57
1.48
2.31
2.40
2.22
1.96
1.62
1.10
0.39
-0.32
-0.69
-0.34
0.87
2.82
5.06
7.03
8.21
8.25
7.10
4.96
2.17
-0.87
-3.85
-6.68
-9.44
-12.35
-15.71
-19.69
-24.31
-29.37
-34.47
-38.98
-42.14
-43.17
-41.50
-36.97
-29.96
-21.39
-12.44
-4.24
2.44
7.33
10.60
12.64
13.82
14.42
14.59
14.42
14.02
13.46
12.91
12.50
12.37
12.61
13.25
14.14
15.02
15.58
15.58
14.96
13.77
12.07
9.83
6.92
3.23
-1.29
-6.43
-11.90
-17.39
-22.73
-27.85
-32.64
-36.73
-39.52
-40.25
-38.29
-33.53
-26.39
-17.84
-9.12
-1.32
4.80
9.04
11.62
13.04
13.71
13.93
13.76
13.25
12.52
11.90
11.81
12.58
14.23
16.41
18.49
19.83
20.03
19.11
17.38
15.29
13.14
10.95
8.45
5.27
1.12
-4.10
-10.19
-16.87
-23.68
-30.18
-35.75
-39.66
-41.13
-39.53
-34.65
-26.87
-17.26
-7.17
2.00
9.26
14.21
16.95
17.96
17.77
16.86
15.55
14.12
12.81
11.89
11.62
12.11
13.29
14.88
16.48
17.68
18.21
18.08
17.48
16.75
16.11
15.53
14.69
13.11
10.31
6.08
0.53
-5.90
-12.50
-18.57
-23.39
-26.33
-26.96
-25.00
-20.49
-13.77
-5.49
3.56
12.50
20.57
27.16
31.96
34.91
36.18
36.17
35.27
33.90
32.35
30.88
29.66
28.86
28.63
29.02
29.91
31.01
31.92
32.21
31.59
29.91
27.21
23.64
19.46
14.97
10.39
5.88
1.43
-3.12
-7.99
-13.40
-19.37
-25.79
-32.23
-38.02
-42.27
-44.04
-42.56
-37.48
-29.17
-18.63
-7.36
3.21
12.00
18.61
23.22
26.30
28.35
29.69
30.44
30.67
30.48
30.08
29.76
29.78
30.32
31.40
32.88
34.49
35.91
36.84
37.06
36.50
35.20
33.24
30.76
27.76
24.28
20.36
16.09
11.67
7.31
3.23
-0.51
-3.99
-7.42
-11.04
-15.06
-19.61
-24.71
-30.36
-36.42
-42.61
-48.30
-52.58
-54.42
-52.98
-47.95
-39.79
-29.61
-18.95
-9.27
-1.58
3.78
7.13
9.26
11.09
13.28
16.09
19.30
22.48
25.26
27.52
29.46
31.39
33.49
35.69
37.74
39.32
40.33
40.76
40.72
40.16
38.89
36.66
33.37
29.27
24.82
20.59
16.94
13.83
10.94
7.86
4.29
0.23
-4.06
-8.30
-12.28
-16.01
-19.66
-23.56
-28.01
-33.22
-39.15
-45.46
-51.44
-56.07
-58.30
-57.26
-52.62
-44.66
-34.29
-22.73
-11.25
-0.94
7.54
13.89
18.23
20.90
22.42
23.27
23.85
24.42
25.10
25.95
26.95
28.08
29.32
30.68
32.16
33.70
35.21
36.45
37.14
37.02
35.93
33.92
31.22
28.18
25.10
22.21
19.50
16.92
14.34
11.73
9.09
6.49
3.96
1.48
-1.03
-3.69
-6.67
-10.14
-14.30
-19.23
-24.89
-30.88
-36.49
-40.71
-42.47
-40.96
-35.92
-27.76
-17.47
-6.41
4.09
13.01
19.87
24.60
27.48
28.85
28.99
28.17
26.65
24.84
23.21
22.22
22.11
22.85
24.19
25.71
27.11
28.21
29.00
29.52
29.73
29.53
28.70
27.09
24.66
21.60
18.21
14.87
11.84
9.18
6.77
4.32
1.61
-1.47
-4.82
-8.24
-11.52
-14.59
-17.58
-20.80
-24.63
-29.34
-34.96
-41.17
-47.28
-52.40
-55.53
-55.91
-53.14
-47.31
-38.99
-29.10
-18.74
-8.91
-0.36
6.52
11.68
15.35
17.87
19.60
20.82
21.69
22.26
22.55
22.61
22.57
22.61
22.93
23.67
24.82
26.22
27.64
28.78
29.42
29.41
28.69
27.32
25.37
22.96
20.17
17.09
13.85
10.59
7.48
4.65
2.17
-0.06
-2.24
-4.65
-7.42
-10.55
-13.84
-17.01
-19.84
-22.33
-24.76
-27.63
-31.40
-36.28
-41.95
-47.57
-51.93
-53.86
-52.59
-48.02
-40.72
-31.69
-22.05
-12.81
-4.64
2.10
7.30
11.02
13.37
14.54
14.78
14.45
13.98
13.81
14.23
15.30
16.85
18.56
20.13
21.44
22.52
23.48
24.32
24.92
25.07
24.59
23.48
21.84
19.89
17.75
15.51
13.18
10.78
8.39
6.06
3.86
1.72
-0.51
-3.03
-6.02
-9.55
-13.57
-17.84
-22.05
-25.88
-29.18
-32.07
-34.94
-38.31
-42.56
-47.69
-53.23
-58.28
-61.82
-63.00
-61.42
-57.13
-50.54
-42.30
-33.15
-23.87
-15.22
-7.91
-2.44
1.00
2.64
2.98
2.72
2.41
2.39
2.72
3.32
4.13
5.17
6.62
8.66
11.40
14.72
18.30
21.72
24.56
26.57
27.68
28.02
27.75
27.01
25.81
24.11
21.84
18.97
15.62
11.94
8.16
4.42
0.79
-2.74
-6.26
-9.85
-13.67
-17.83
-22.44
-27.43
-32.52
-37.19
-40.70
-42.35
-41.68
-38.55
-33.27
-26.45
-18.85
-11.22
-4.19
1.76
6.35
9.45
11.11
11.54
11.01
9.86
8.39
6.93
5.74
5.01
4.84
5.20
5.96
6.90
7.83
8.60
9.11
9.25
9.00
8.31
7.10
5.38
3.13
0.49
-2.37
-5.23
-7.86
-10.24
-12.48
-14.89
-17.82
-21.50
-25.88
-30.54
-34.76
-37.70
-38.63
-37.19
-33.49
-28.06
-21.64
-15.01
-8.72
-3.10
1.71
5.62
8.48
10.21
10.84
10.60
9.85
9.05
8.52
8.40
8.66
9.19
9.85
10.61
11.42
12.22
12.93
13.38
13.45
13.03
12.10
10.65
8.73
6.39
3.66
0.64
-2.59
-5.96
-9.48
-13.22
-17.20
-21.21
-24.74
-26.95
-26.99
-24.33
-19.04
-11.82
-3.86
3.72
10.13
15.03
18.46
20.60
21.61
21.63
20.88
19.66
18.34
17.21
16.34
15.64
15.01
14.45
14.11
14.17
14.66
15.32
15.66
15.16
13.54
10.86
7.49
3.90
0.42
-2.87
-6.11
-9.55
-13.41
-17.71
-22.36
-27.10
-31.55
-35.20
-37.51
-37.96
-36.22
-32.29
-26.46
-19.37
-11.74
-4.31
2.34
7.79
11.79
14.28
15.35
15.32
14.60
13.63
12.77
12.21
12.00
12.11
12.49
13.11
13.94
14.92
15.89
16.68
17.12
17.09
16.48
15.20
13.16
10.31
6.71
2.58
-1.78
-5.98
-9.73
-12.98
-15.89
-18.85
-22.32
-26.61
-31.72
-37.19
-42.15
-45.61
-46.69
-44.99
-40.61
-34.14
-26.45
-18.41
-10.78
-4.07
1.49
5.91
9.42
12.33
14.82
16.94
18.56
19.55
19.88
19.76
19.54
19.52
19.85
20.44
21.11
21.67
22.05
22.25
22.26
22.01
21.39
20.29
18.71
16.75
14.52
12.14
9.69
7.17
4.58
1.87
-1.00
-4.02
-7.11
-10.11
-12.85
-15.28
-17.53
-19.92
-22.87
-26.70
-31.55
-37.15
-42.91
-47.94
-51.26
-52.05
-49.84
-44.71
-37.23
-28.39
-19.25
-10.75
-3.48
2.32
6.74
10.05
12.55
14.53
16.17
17.55
18.69
19.62
20.41
21.22
22.27
23.72
25.59
27.67
29.61
31.05
31.71
31.63
30.96
29.95
28.77
27.39
25.69
23.53
20.96
18.20
15.57
13.30
11.43
9.76
8.00
5.88
3.27
0.23
-3.04
-6.31
-9.37
-12.13
-14.64
-17.07
-19.72
-22.94
-26.99
-31.94
-37.56
-43.35
-48.55
-52.37
-54.05
-53.02
-49.12
-42.56
-34.02
-24.49
-15.10
-6.82
-0.20
4.67
8.12
10.60
12.50
13.95
14.97
15.56
15.89
16.28
17.01
18.24
19.85
21.59
23.16
24.40
25.30
25.96
26.47
26.80
26.79
26.22
24.97
23.08
20.80
18.52
16.55
15.07
13.99
13.02
11.83
10.20
8.14
5.82
3.50
1.33
-0.67
-2.64
-4.78
-7.25
-10.09
-13.20
-16.41
-19.60
-22.85
-26.40
-30.56
-35.49
-40.94
-46.23
-50.34
-52.31
-51.51
-47.94
-42.07
-34.69
-26.61
-18.40
-10.48
-3.13
3.40
8.85
13.00
15.81
17.45
18.27
18.74
19.25
20.09
21.32
22.86
24.54
26.24
27.87
29.48
31.16
32.90
34.60
36.00
36.77
36.67
35.62
33.78
31.46
29.04
26.77
24.79
23.10
21.58
20.17
18.85
17.61
16.42
15.22
13.88
12.30
10.44
8.26
5.75
2.78
-0.79
-5.08
-10.05
-15.32
-20.14
-23.47
-24.31
-21.94
-16.26
-7.82
2.33
12.97
23.10
32.22
40.31
47.68
54.62
61.15
66.94
71.51
74.55
76.18
77.05
78.08
80.13
83.56
88.18
93.29
98.03
101.80
104.56
106.99
110.26
115.69
124.21
135.70
148.72
160.46
167.41
166.41
155.78
135.83
108.79
77.83
45.78
14.22
-16.92
-49.13
-84.64
-125.62
-173.21
-226.45
-281.70
-332.67
-371.79
-392.41
-391.02
-368.67
-330.54
-284.02
-236.11
-191.51
-151.99
-117.31
-86.53
-59.25
-35.77
-16.65
-2.02
8.79
16.99
23.89
30.38
36.57
42.02
46.10
48.48
49.25
48.82
47.65
45.96
43.64
40.59
37.07
33.93
32.48
33.90
38.55
45.60
53.07
58.55
60.08
56.95
49.91
40.87
32.06
25.16
20.58
17.30
13.26
6.16
-5.62
-22.26
-42.07
-61.94
-78.37
-88.94
-93.36
-93.58
-93.01
-95.11
-102.13
-114.53
-131.25
-150.44
-170.15
-188.90
-205.72
-219.98
-231.20
-238.99
-243.29
-244.70
-244.37
-243.78
-244.26
-246.65
-250.85
-255.54
-258.29
-255.69
-244.02
-220.05
-181.71
-128.47
-61.51
16.09
99.31
181.79
257.18
321.00
372.28
414.10
452.35
493.09
539.50
590.10
639.07
678.81
702.93
708.57
696.67
670.54
634.00
589.94
540.12
485.61
427.40
366.52
304.08
241.20
178.71
117.29
57.46
-0.39
-55.84
-108.24
-156.41
-198.55
-232.72
-257.51
-272.82
-280.22
-282.45
-282.42
-282.07
-281.80
-280.77
-277.83
-272.48
-265.27
-257.50
-250.51
-244.95
-240.48
-236.07
-230.53
-223.11
-213.80
-203.29
-192.65
-182.95
-174.93
-168.91
-164.69
-161.67
-159.03
-155.93
-151.76
-146.22
-139.39
-131.59
-123.26
-114.81
-106.52
-98.54
-90.86
-83.43
-76.12
-68.94
-62.01
-55.66
-50.30
-46.23
-43.47
-41.72
-40.50
-39.49
-38.85
-39.29
-41.82
-47.21
-55.43
-65.53
-75.86
-84.90
-92.01
-98.07
-105.31
-116.64
-134.46
-159.38
-189.46
-220.35
-246.42
-262.68
-266.61
-259.06
-243.71
-225.29
-207.34
-190.67
-173.16
-150.96
-120.19
-78.37
-25.36
36.15
100.52
159.79
205.34
230.80
234.90
222.95
205.68
195.55
201.86
227.23
267.11
312.21
352.86
382.90
401.52
412.47
421.26
432.15
446.16
461.00
472.53
476.78
471.61
456.87
433.63
402.89
365.11
320.54
270.24
216.75
163.92
115.97
76.07
45.43
22.98
5.94
-9.02
-24.50
-41.34
-58.12
-71.98
-80.23
-82.02
-79.20
-75.75
-75.89
-82.05
-93.74
-107.98
-120.84
-129.14
-131.35
-127.58
-119.06
-107.66
-95.71
-85.83
-80.46
-81.01
-87.13
-96.43
-104.95
-108.43
-103.65
-89.50
-67.18
-39.79
-11.30
14.49
34.76
48.12
54.55
55.09
51.29
44.76
36.92
28.94
21.64
15.45
10.29
5.48
0.05
-6.89
-15.66
-25.82
-36.26
-45.64
-52.94
-57.82
-60.79
-62.81
-64.95
-67.93
-71.88
-76.40
-80.68
-83.85
-85.23
-84.53
-81.92
-77.95
-73.30
-68.53
-63.83
-58.92
-53.22
-46.13
-37.40
-27.31
-16.61
-6.26
2.85
10.12
15.35
18.61
20.21
20.60
20.39
20.19
20.50
21.51
23.00
24.41
25.11
24.66
23.03
20.47
17.37
13.95
10.27
6.23
1.81
-2.81
-7.25
-11.07
-13.90
-15.40
-15.27
-13.21
-8.93
-2.38
6.17
16.18
27.09
38.65
51.11
65.18
81.76
101.49
124.44
149.96
176.77
203.12
226.99
246.36
259.39
264.59
261.12
248.75
227.95
199.78
165.80
127.98
88.59
50.05
14.63
-15.93
-40.83
-60.38
-75.93
-89.23
-101.74
-113.98
-125.52
-135.35
-142.50
-146.58
-147.79
-146.63
-143.47
-138.32
-130.93
-121.08
-108.90
-94.84
-79.63
-64.05
-48.74
-34.29
-21.10
-9.34
1.30
11.62
22.75
35.65
50.34
65.44
78.16
85.25
84.07
73.96
56.71
36.10
16.62
1.94
-6.17
-8.05
-5.77
-2.37
-0.94
-3.87
-12.13
-25.02
-40.27
-54.80
-65.87
-71.95
-73.20
-70.99
-66.97
-62.43
-58.04
-54.25
-51.81
-51.78
-55.09
-61.78
-70.61
-79.37
-85.75
-88.24
-86.73
-82.28
-76.51
-70.73
-65.51
-60.66
-55.63
-50.08
-44.07
-38.13
-32.85
-28.55
-25.00
-21.52
-17.31
-11.78
-4.89
2.98
11.18
19.02
25.91
31.22
34.27
34.25
30.55
23.03
12.31
-0.28
-13.07
-24.50
-33.58
-39.91
-43.68
-45.34
-45.53
-44.92
-44.16
-43.85
-44.50
-46.42
-49.68
-54.03
-58.72
-62.61
-64.27
-62.40
-56.22
-45.80
-32.08
-16.68
-1.37
12.31
23.37
31.42
36.63
39.40
40.26
39.57
37.55
34.27
29.85
24.60
19.01
13.64
8.92
5.17
2.57
1.37
1.97
4.79
10.03
17.36
25.90
34.32
41.28
45.87
47.72
47.04
44.43
40.68
36.55
32.75
29.77
27.92
27.17
27.28
27.87
28.59
29.26
29.91
30.68
31.64
32.70
33.58
33.83
32.96
30.52
26.20
20.04
12.46
4.35
-3.10
-8.62
-11.29
-10.87
-7.86
-3.43
1.09
4.57
6.54
7.17
7.15
7.16
7.69
8.78
10.24
11.77
13.12
14.13
14.49
13.76
11.42
7.20
1.34
-5.30
-11.44
-15.91
-18.07
-18.07
-16.65
-14.86
-13.51
-12.98
-13.12
-13.53
-13.81
-13.81
-13.63
-13.57
-13.86
-14.61
-15.68
-16.85
-17.93
-18.83
-19.55
-19.99
-19.84
-18.61
-15.85
-11.42
-5.70
0.47
6.15
10.62
13.64
15.49
16.67
17.59
18.37
18.83
18.67
17.75
16.17
14.22
12.19
10.20
8.05
5.45
2.10
-2.06
-6.76
-11.53
-15.89
-19.51
-22.31
-24.36
-25.74
-26.48
-26.57
-26.03
-25.03
-23.89
-23.00
-22.62
-22.80
-23.31
-23.73
-23.64
-22.65
-20.62
-17.57
-13.81
-9.68
-5.61
-1.92
1.18
3.56
5.23
6.08
6.00
4.88
2.70
-0.31
-3.75
-7.10
-9.90
-11.88
-12.98
-13.29
-12.92
-11.99
-10.58
-8.87
-7.09
-5.59
-4.68
-4.59
-5.42
-7.16
-9.68
-12.84
-16.48
-20.41
-24.51
-28.70
-32.96
-37.30
-41.63
-45.78
-49.31
-51.70
-52.32
-50.61
-46.16
-38.88
-29.05
-17.36
-4.93
6.92
16.90
24.14
28.38
30.01
29.88
28.94
28.02
27.61
27.98
29.15
30.99
33.29
35.65
37.59
38.57
38.17
36.21
32.75
28.16
22.92
17.59
12.57
8.10
4.16
0.57
-2.91
-6.41
-9.91
-13.17
-15.90
-17.77
-18.51
-17.96
-16.02
-12.67
-7.99
-2.18
4.40
11.26
17.81
23.51
27.97
31.05
32.85
33.71
34.06
34.23
34.44
34.75
35.10
35.39
35.55
35.52
35.20
34.46
33.24
31.54
29.50
27.31
25.17
23.10
20.99
18.63
15.83
12.55
8.94
5.26
1.72
-1.61
-4.85
-8.22
-11.85
-15.68
-19.30
-22.09
-23.44
-23.06
-21.04
-17.83
-14.07
-10.19
-6.37
-2.59
1.21
4.83
7.84
9.70
10.09
9.09
7.24
5.20
3.55
2.50
1.92
1.49
0.99
0.36
-0.31
-0.88
-1.26
-1.47
-1.60
-1.75
-2.08
-2.68
-3.65
-5.04
-6.76
-8.63
-10.44
-12.09
-13.65
-15.32
-17.27
-19.53
-21.98
-24.37
-26.51
-28.28
-29.63
-30.47
-30.54
-29.48
-27.00
-23.08
-18.06
-12.53
-7.09
-2.13
2.26
6.17
9.64
12.56
14.60
15.49
15.21
14.05
12.67
11.72
11.64
12.49
13.98
15.63
16.95
17.70
17.82
17.44
16.70
15.68
14.29
12.47
10.19
7.62
5.04
2.73
0.82
-0.79
-2.35
-4.17
-6.45
-9.19
-12.22
-15.28
-18.19
-20.79
-22.99
-24.66
-25.65
-25.81
-25.02
-23.22
-20.31
-16.24
-10.96
-4.57
2.56
9.81
16.31
21.18
23.78
23.87
21.67
17.88
13.54
9.85
7.95
8.59
11.92
17.30
23.58
29.35
33.63
36.08
37.08
37.45
37.94
39.00
40.58
42.47
44.43
46.50
48.90
51.78
55.03
58.14
60.47
61.59
61.71
61.80
63.39
68.00
76.62
89.29
105.00
121.96
137.94
150.55
157.59
157.43
149.47
134.60
115.40
95.73
79.82
70.86
69.87
75.28
83.43
89.98
91.29
85.48
72.33
52.76
27.94
-1.13
-33.45
-67.62
-101.55
-132.63
-158.48
-177.61
-189.88
-196.20
-197.91
-196.01
-190.98
-182.80
-171.37
-156.87
-139.91
-121.53
-102.95
-85.44
-70.02
-57.21
-46.98
-38.85
-32.14
-26.30
-21.14
-16.76
-13.38
-11.06
-9.61
-8.65
-7.63
-6.10
-3.61
0.13
5.13
10.94
16.74
21.60
24.98
27.12
28.92
31.50
35.54
40.90
46.67
51.77
55.54
58.02
59.80
61.48
63.27
64.85
65.65
65.34
64.04
62.20
60.13
57.70
54.24
49.09
42.27
34.89
28.80
25.42
24.63
24.06
19.69
7.25
-16.07
-50.73
-94.94
-145.70
-199.88
-254.65
-307.35
-355.17
-395.23
-425.24
-444.40
-453.88
-456.22
-454.14
-449.04
-440.16
-424.78
-399.37
-361.36
-310.62
-250.04
-184.83
-120.80
-62.34
-11.03
34.38
76.86
119.04
161.80
203.81
242.19
273.92
296.98
310.85
316.08
313.73
304.72
289.82
269.87
246.03
219.89
193.25
167.81
144.65
124.14
105.90
89.15
73.17
57.65
42.87
29.46
17.94
8.46
0.77
-5.69
-11.26
-15.75
-18.50
-18.66
-15.75
-9.96
-2.15
6.55
15.25
23.70
32.25
41.38
51.30
61.68
71.74
80.58
87.51
92.06
93.85
92.52
87.88
80.41
71.51
63.44
58.59
58.43
62.64
69.01
74.15
74.70
68.52
55.26
36.18
13.39
-10.94
-35.16
-58.23
-79.60
-98.87
-115.49
-128.89
-138.63
-144.70
-147.67
-148.52
-148.29
-147.63
-146.45
-144.05
-139.44
-131.82
-120.99
-107.47
-92.23
-76.35
-60.77
-46.16
-33.04
-21.93
-13.40
-7.99
-5.83
-6.43
-8.67
-11.14
-12.74
-13.09
-12.77
-12.90
-14.59
-18.42
-24.17
-30.96
-37.81
-44.00
-49.45
-54.54
-59.89
-65.90
-72.50
-79.14
-84.88
-88.81
-90.37
-89.60
-87.20
-84.29
-82.10
-81.39
-81.90
-82.08
-79.37
-70.94
-54.91
-31.15
-1.57
30.47
61.13
87.01
105.73
115.90
116.96
109.01
92.76
69.61
41.70
11.82
-16.71
-40.12
-54.53
-56.23
-42.32
-11.39
35.66
94.99
159.67
220.42
267.39
292.40
291.13
264.28
216.78
155.70
87.45
16.21
-56.08
-128.11
-197.46
-259.85
-310.14
-344.25
-360.70
-361.14
-349.34
-329.74
-306.18
-281.34
-256.95
-234.07
-213.27
-194.54
-177.27
-160.34
-142.61
-123.27
-102.01
-78.84
-53.73
-26.44
3.61
37.38
76.19
121.62
174.71
234.78
297.98
356.96
402.17
424.93
420.93
392.20
346.57
294.41
244.64
201.49
164.12
128.69
91.82
53.10
15.60
-15.88
-37.34
-47.52
-47.98
-41.86
-32.10
-20.47
-7.76
5.06
16.01
22.25
21.35
12.84
-1.04
-15.98
-27.56
-33.05
-32.50
-28.12
-22.88
-19.10
-17.72
-18.61
-21.26
-25.49
-31.41
-39.08
-47.85
-56.18
-61.86
-62.78
-57.72
-46.81
-31.49
-14.08
2.96
17.34
27.37
32.06
31.30
25.66
16.22
4.12
-9.94
-25.76
-43.23
-61.54
-78.62
-91.12
-95.51
-89.73
-74.61
-54.02
-33.41
-17.67
-9.05
-6.24
-5.07
-0.25
12.78
36.69
71.86
116.53
166.83
216.56
257.33
279.73
275.97
243.13
185.76
115.76
49.30
1.24
-19.92
-14.22
11.26
46.63
83.56
117.61
147.53
173.03
192.97
205.13
207.74
201.02
187.75
171.87
156.47
142.20
127.60
110.63
90.76
69.94
51.71
39.11
32.54
28.77
21.99
6.61
-19.62
-53.88
-88.81
-115.35
-126.01
-117.52
-91.72
-54.63
-14.59
19.76
41.27
45.62
32.23
4.44
-31.36
-67.60
-97.76
-118.20
-128.65
-131.46
-129.93
-126.91
-123.88
-120.99
-117.53
-112.54
-105.35
-95.81
-84.42
-72.02
-59.67
-48.23
-38.34
-30.39
-24.55
-20.73
-18.31
-15.97
-11.69
-3.29
10.83
31.15
56.82
86.03
116.43
145.69
171.53
191.79
204.51
208.31
202.92
189.51
170.60
149.36
128.73
110.70
96.05
84.61
75.80
69.08
64.05
60.34
57.38
54.40
50.63
45.70
39.90
34.19
29.83
27.95
29.15
33.37
40.11
48.84
59.36
72.05
87.66
106.87
129.74
155.21
180.94
203.65
219.79
226.58
222.92
209.94
190.94
170.51
152.98
140.83
133.65
128.24
119.97
104.74
80.70
48.76
11.84
-26.68
-64.33
-100.06
-133.63
-164.72
-192.23
-214.57
-230.43
-239.72
-243.97
-245.51
-246.46
-247.49
-247.51
-244.21
-235.35
-219.89
-198.60
-173.72
-147.99
-123.32
-100.13
-77.04
-51.82
-22.64
10.69
46.02
79.22
105.34
120.21
121.76
110.88
91.36
69.09
50.85
42.99
50.30
74.97
115.81
168.00
223.69
273.38
308.18
321.93
312.50
281.97
235.45
179.42
120.02
62.17
9.32
-36.25
-73.15
-101.14
-121.59
-137.66
-153.70
-173.80
-200.09
-231.67
-264.87
-294.78
-317.59
-332.24
-340.72
-346.43
-351.72
-355.88
-354.73
-342.02
-312.00
-262.06
-194.35
-115.88
-36.78
32.32
83.06
111.50
118.67
109.67
91.61
71.47
54.33
42.80
37.21
36.35
38.25
40.60
41.17
38.20
30.98
20.16
7.81
-3.23
-10.24
-11.47
-6.73
2.53
13.68
23.74
30.36
32.42
30.40
25.90
21.02
17.43
15.88
16.10
17.08
17.55
16.41
13.08
7.52
0.22
-8.05
-16.38
-23.97
-30.15
-34.50
-36.91
-37.47
-36.57
-34.72
-32.46
-30.24
-28.25
-26.42
-24.55
-22.45
-20.11
-17.73
-15.65
-14.17
-13.45
-13.36
-13.64
-14.00
-14.26
-14.38
-14.45
-14.54
-14.58
-14.41
-13.80
-12.56
-10.73
-8.52
-6.33
-4.60
-3.75
-4.00
-5.42
-7.81
-10.84
-14.04
-16.85
-18.78
-19.46
-18.72
-16.57
-13.27
-9.17
-4.73
-0.38
3.49
6.54
8.56
9.50
9.43
8.53
7.08
5.29
3.33
1.35
-0.57
-2.31
-3.77
-4.89
-5.65
-6.13
-6.43
-6.72
-7.12
-7.75
-8.68
-9.86
-11.23
-12.62
-13.89
-14.89
-15.62
-16.12
-16.54
-17.00
-17.62
-18.45
-19.43
-20.40
-21.06
-21.08
-20.15
-18.12
-15.05
-11.21
-7.05
-2.99
0.59
3.44
5.49
6.80
7.53
7.88
8.07
8.21
8.34
8.39
8.26
7.96
7.61
7.38
7.47
7.92
8.63
9.35
9.81
9.87
9.51
8.80
7.82
6.59
5.11
3.38
1.41
-0.67
-2.75
-4.81
-6.95
-9.29
-11.96
-14.90
-17.88
-20.48
-22.26
-22.88
-22.20
-20.32
-17.52
-14.22
-10.82
-7.67
-4.97
-2.84
-1.31
-0.40
-0.11
-0.37
-0.99
-1.67
-2.01
-1.71
-0.64
1.07
3.08
4.97
6.42
7.27
7.58
7.62
7.61
7.78
8.15
8.56
8.78
8.58
7.88
6.75
5.40
4.02
2.73
1.56
0.46
-0.61
-1.66
-2.66
-3.62
-4.63
-5.84
-7.35
-9.10
-10.83
-12.16
-12.66
-12.06
-10.33
-7.66
-4.39
-0.88
2.60
5.85
8.76
11.18
12.97
13.99
14.20
13.66
12.61
11.40
10.39
9.88
9.94
10.41
11.05
11.58
11.85
11.87
11.70
11.39
10.91
10.18
9.13
7.84
6.47
5.30
4.48
4.03
3.75
3.32
2.44
1.00
-0.87
-2.84
-4.54
-5.80
-6.73
-7.66
-8.93
-10.70
-12.75
-14.57
-15.66
-15.65
-14.58
-12.74
-10.52
-8.20
-5.94
-3.74
-1.59
0.40
2.05
3.20
3.83
4.09
4.27
4.68
5.41
6.35
7.22
7.73
7.81
7.64
7.59
7.98
8.92
10.23
11.52
12.43
12.79
12.64
12.16
11.49
10.63
9.50
8.02
6.21
4.31
2.58
1.19
0.11
-0.87
-2.04
-3.58
-5.47
-7.50
-9.39
-10.90
-11.94
-12.58
-12.89
-12.95
-12.74
-12.19
-11.25
-9.91
-8.29
-6.57
-5.00
-3.75
-2.87
-2.31
-1.92
-1.55
-1.11
-0.60
-0.03
0.52
1.04
1.48
1.80
2.03
2.19
2.38
2.68
3.11
3.57
3.82
3.61
2.79
1.46
-0.14
-1.72
-3.06
-4.13
-4.97
-5.69
-6.33
-6.95
-7.64
-8.63
-10.13
-12.27
-14.93
-17.65
-19.88
-21.09
-21.08
-19.96
-18.10
-15.88
-13.53
-11.12
-8.58
-5.98
-3.51
-1.52
-0.31
0.04
-0.26
-0.76
-1.02
-0.74
0.02
0.99
1.81
2.25
2.29
2.09
1.88
1.82
1.92
2.08
2.22
2.28
2.25
2.14
1.97
1.71
1.33
0.82
0.15
-0.64
-1.47
-2.32
-3.18
-4.14
-5.31
-6.81
-8.64
-10.64
-12.47
-13.72
-14.08
-13.40
-11.91
-9.99
-8.06
-6.36
-4.90
-3.51
-2.03
-0.44
1.11
2.37
3.14
3.41
3.38
3.30
3.41
3.76
4.27
4.75
5.06
5.15
5.10
5.02
5.06
5.26
5.58
5.87
5.99
5.85
5.54
5.24
5.13
5.24
5.36
5.17
4.38
2.94
1.07
-0.93
-2.84
-4.70
-6.72
-9.04
-11.55
-13.81
-15.28
-15.62
-14.83
-13.25
-11.36
-9.51
-7.81
-6.17
-4.47
-2.65
-0.79
0.98
2.55
3.89
5.05
6.10
7.05
7.92
8.65
9.25
9.71
10.12
10.54
11.01
11.47
11.85
12.11
12.26
12.37
12.47
12.50
12.33
11.87
11.12
10.19
9.24
8.31
7.29
6.00
4.40
2.56
0.68
-1.06
-2.67
-4.32
-6.22
-8.43
-10.77
-12.91
-14.47
-15.21
-15.12
-14.30
-12.93
-11.20
-9.25
-7.24
-5.31
-3.54
-1.99
-0.61
0.72
2.08
3.60
5.30
7.10
8.84
10.29
11.29
11.78
11.93
12.00
12.24
12.76
13.49
14.10
14.25
13.67
12.29
10.35
8.20
6.27
4.79
3.77
2.99
2.12
0.94
-0.63
-2.52
-4.60
-6.84
-9.27
-11.94
-14.72
-17.30
-19.19
-20.01
-19.62
-18.18
-16.09
-13.74
-11.47
-9.37
-7.48
-5.74
-4.10
-2.60
-1.32
-0.34
0.26
0.54
0.62
0.73
1.02
1.54
2.18
2.74
3.06
3.11
3.03
2.98
3.06
3.17
3.08
2.56
1.53
0.08
-1.53
-3.04
-4.27
-5.19
-5.91
-6.63
-7.60
-9.04
-11.05
-13.60
-16.50
-19.42
-22.06
-24.16
-25.57
-26.22
-26.09
-25.09
-23.19
-20.49
-17.20
-13.66
-10.24
-7.15
-4.45
-2.09
-0.07
1.55
2.66
3.27
3.57
3.90
4.58
5.76
7.37
9.10
10.68
11.92
12.80
13.39
13.78
13.97
13.88
13.41
12.40
10.80
8.58
5.88
2.89
-0.07
-2.75
-5.07
-7.20
-9.48
-12.25
-15.63
-19.43
-23.15
-26.27
-28.34
-29.23
-28.96
-27.65
-25.38
-22.18
-18.15
-13.48
-8.62
-4.01
-0.05
3.08
5.40
7.06
8.32
9.34
10.31
11.31
12.35
13.41
14.46
15.44
16.32
17.09
17.74
18.25
18.62
18.85
19.00
19.11
19.18
19.12
18.74
17.88
16.39
14.33
11.89
9.34
6.88
4.63
2.53
0.41
-1.95
-4.70
-7.84
-11.24
-14.66
-17.85
-20.53
-22.44
-23.30
-22.87
-21.01
-17.69
-13.11
-7.66
-1.90
3.65
8.55
12.54
15.55
17.63
18.95
19.74
20.30
20.96
22.01
23.62
25.73
28.12
30.41
32.28
33.53
34.17
34.32
34.13
33.69
32.98
31.93
30.47
28.57
26.27
23.60
20.65
17.50
14.34
11.31
8.57
6.11
3.78
1.32
-1.55
-5.00
-9.12
-13.82
-18.92
-24.01
-28.54
-31.82
-33.21
-32.33
-29.23
-24.41
-18.65
-12.83
-7.56
-3.15
0.36
3.05
5.02
6.39
7.22
7.74
8.23
8.98
10.21
11.98
14.15
16.44
18.54
20.16
21.13
21.45
21.22
20.63
19.85
18.88
17.61
15.86
13.54
10.71
7.60
4.45
1.40
-1.62
-4.73
-8.09
-11.75
-15.65
-19.72
-23.89
-28.18
-32.51
-36.68
-40.30
-42.89
-43.98
-43.29
-40.78
-36.65
-31.37
-25.52
-19.72
-14.46
-10.00
-6.36
-3.40
-0.93
1.15
2.83
4.12
5.11
6.05
7.25
8.96
11.24
13.88
16.56
18.93
20.84
22.31
23.45
24.36
24.99
25.16
24.69
23.50
21.73
19.67
17.67
15.93
14.46
13.09
11.56
9.69
7.43
4.88
2.16
-0.70
-3.83
-7.49
-11.94
-17.31
-23.40
-29.65
-35.15
-38.92
-40.14
-38.47
-34.24
-28.32
-21.94
-16.25
-12.04
-9.51
-8.42
-8.29
-8.69
-9.50
-10.77
-12.66
-15.19
-18.18
-21.29
-24.17
-26.61
-28.60
-30.24
-31.70
-33.05
-34.29
-35.32
-35.97
-35.96
-34.92
-32.50
-28.46
-22.84
-16.08
-8.89
-2.10
3.59
7.77
10.42
11.81
12.40
12.63
12.77
12.82
12.55
11.57
9.59
6.54
2.75
-1.19
-4.59
-6.83
-7.45
-6.18
-2.84
2.55
9.75
18.15
26.85
34.86
41.43
46.36
49.96
52.88
55.75
58.84
62.01
64.84
66.86
67.88
68.06
67.79
67.50
67.36
67.19
66.62
65.22
62.85
59.58
55.74
51.70
47.68
43.77
39.94
36.17
32.48
29.01
25.81
22.89
20.08
17.14
13.77
9.66
4.62
-1.34
-7.96
-14.68
-20.85
-25.81
-29.15
-30.73
-30.64
-29.12
-26.46
-23.00
-19.11
-15.23
-11.78
-9.06
-7.19
-6.11
-5.68
-5.70
-6.03
-6.55
-7.16
-7.76
-8.25
-8.56
-8.61
-8.42
-7.99
-7.45
-6.93
-6.62
-6.62
-6.89
-7.28
-7.53
-7.48
-7.18
-6.88
-7.02
-8.05
-10.25
-13.64
-18.02
-22.98
-28.01
-32.59
-36.21
-38.42
-38.79
-37.08
-33.23
-27.60
-20.80
-13.63
-6.84
-0.98
3.68
7.13
9.40
10.48
10.40
9.33
7.70
6.22
5.60
6.26
8.16
10.73
13.20
14.88
15.46
15.01
13.89
12.43
10.80
8.94
6.68
3.90
0.61
-3.09
-7.09
-11.29
-15.58
-19.73
-23.37
-25.94
-26.84
-25.63
-22.20
-16.88
-10.38
-3.52
2.93
8.50
13.01
16.47
18.98
20.57
21.33
21.36
20.89
20.19
19.49
18.95
18.58
18.33
18.08
17.73
17.13
16.17
14.79
12.96
10.74
8.25
5.60
2.87
0.11
-2.77
-5.93
-9.64
-14.18
-19.58
-25.55
-31.37
-36.12
-38.86
-39.06
-36.68
-32.16
-26.23
-19.62
-12.96
-6.67
-0.98
3.99
8.24
11.80
14.66
16.70
17.75
17.67
16.52
14.64
12.56
10.78
9.61
8.96
8.48
7.74
6.41
4.46
2.01
-0.78
-3.86
-7.31
-11.25
-15.72
-20.57
-25.57
-30.54
-35.47
-40.54
-45.85
-51.29
-56.32
-60.07
-61.61
-60.39
-56.35
-50.03
-42.31
-34.06
-25.96
-18.35
-11.34
-4.98
0.68
5.52
9.44
12.45
14.69
16.41
17.86
19.21
20.46
21.47
22.06
22.15
21.78
21.09
20.25
19.30
18.15
16.63
14.63
12.14
9.33
6.51
3.94
1.74
-0.28
-2.46
-5.21
-8.64
-12.47
-16.02
-18.46
-19.16
-17.87
-14.79
-10.42
-5.27
0.29
6.07
11.92
17.71
23.20
28.09
32.11
35.12
37.10
38.18
38.56
38.43
37.98
37.29
36.44
35.55
34.74
34.19
33.91
33.78
33.52
32.82
31.50
29.57
27.20
24.54
21.65
18.47
14.92
11.01
6.93
2.98
-0.54
-3.44
-5.78
-7.82
-10.03
-12.82
-16.50
-21.06
-26.10
-30.91
-34.57
-36.29
-35.55
-32.35
-27.06
-20.30
-12.78
-5.12
2.17
8.71
14.15
18.28
21.01
22.50
23.13
23.37
23.66
24.18
24.92
25.69
26.34
26.83
27.22
27.58
27.88
27.99
27.72
27.01
25.89
24.52
23.01
21.32
19.29
16.69
13.48
9.79
5.94
2.22
-1.24
-4.58
-8.13
-12.19
-16.91
-22.13
-27.41
-32.11
-35.57
-37.21
-36.74
-34.15
-29.78
-24.17
-17.86
-11.35
-4.95
1.07
6.43
10.74
13.68
15.08
15.12
14.34
13.47
13.06
13.36
14.18
15.14
15.87
16.23
16.23
15.95
15.41
14.51
13.14
11.30
9.11
6.77
4.40
2.00
-0.51
-3.23
-6.22
-9.35
-12.45
-15.37
-18.07
-20.66
-23.39
-26.57
-30.37
-34.67
-38.92
-42.23
-43.62
-42.43
-38.62
-32.76
-25.92
-19.15
-13.18
-8.18
-3.91
-0.03
3.63
6.95
9.57
11.18
11.77
11.66
11.41
11.62
12.59
14.23
16.10
17.64
18.42
18.35
17.63
16.58
15.46
14.28
12.84
10.94
8.48
5.56
2.51
-0.37
-2.86
-4.92
-6.73
-8.51
-10.47
-12.71
-15.22
-18.00
-21.10
-24.65
-28.71
-33.15
-37.51
-40.99
-42.69
-41.98
-38.80
-33.67
-27.50
-21.21
-15.40
-10.21
-5.47
-1.01
3.20
6.94
9.91
11.95
13.15
13.81
14.30
14.84
15.42
15.89
16.10
16.04
15.92
16.01
16.55
17.50
18.61
19.37
19.35
18.25
15.99
12.78
8.99
5.13
1.82
-0.29
-0.60
1.32
5.51
11.54
18.57
25.41
30.81
33.63
33.05
28.78
21.13
11.11
0.29
-9.56
-16.88
-20.72
-20.94
-18.16
-13.43
-7.87
-2.39
2.48
6.52
9.72
12.17
14.06
15.53
16.72
17.70
18.47
19.01
19.33
19.44
19.40
19.33
19.29
19.34
19.43
19.51
19.51
19.43
19.34
19.28
19.27
19.13
18.57
17.28
15.04
11.91
8.18
4.29
0.63
-2.55
-5.23
-7.54
-9.69
-11.89
-14.32
-17.06
-20.16
-23.51
-26.92
-30.07
-32.59
-34.03
-34.02
-32.34
-28.99
-24.26
-18.74
-13.11
-7.99
-3.75
-0.40
2.22
4.31
5.89
6.85
7.04
6.51
5.60
4.83
4.67
5.28
6.45
7.74
8.71
9.15
9.16
9.01
8.93
8.91
8.70
7.97
6.46
4.12
1.17
-2.04
-5.14
-7.92
-10.34
-12.57
-14.82
-17.31
-20.16
-23.36
-26.77
-30.14
-33.18
-35.55
-36.90
-36.86
-35.11
-31.51
-26.23
-19.78
-13.02
-6.88
-2.06
1.13
2.85
3.59
3.87
4.09
4.35
4.64
4.87
5.02
5.14
5.30
5.49
5.66
5.74
5.66
5.42
5.09
4.70
4.32
3.90
3.35
2.52
1.22
-0.65
-3.11
-5.99
-9.04
-11.98
-14.65
-17.07
-19.50
-22.24
-25.52
-29.34
-33.38
-37.16
-40.01
-41.40
-40.94
-38.60
-34.66
-29.59
-23.97
-18.29
-12.93
-8.08
-3.91
-0.61
1.75
3.21
3.99
4.51
5.18
6.26
7.77
9.55
11.37
12.99
14.29
15.17
15.59
15.57
15.22
14.75
14.34
14.10
13.94
13.59
12.77
11.29
9.11
6.40
3.41
0.43
-2.32
-4.72
-6.87
-9.02
-11.53
-14.73
-18.71
-23.22
-27.73
-31.52
-33.92
-34.47
-33.06
-29.85
-25.25
-19.75
-13.78
-7.72
-1.89
3.42
7.94
11.51
14.08
15.80
16.96
17.91
18.92
20.10
21.43
22.81
24.12
25.25
26.11
26.61
26.68
26.30
25.52
24.47
23.31
22.09
20.80
19.30
17.42
15.00
11.97
8.45
4.68
0.97
-2.47
-5.52
-8.28
-11.01
-14.04
-17.58
-21.59
-25.79
-29.67
-32.64
-34.23
-34.15
-32.42
-29.24
-24.97
-20.04
-14.84
-9.76
-5.12
-1.13
2.10
4.59
6.51
8.03
9.32
10.38
11.16
11.63
11.84
12.01
12.40
13.20
14.39
15.68
16.63
16.84
16.11
14.49
12.23
9.62
6.86
4.05
1.23
-1.54
-4.18
-6.61
-8.91
-11.26
-14.04
-17.56
-21.83
-26.53
-30.91
-34.12
-35.43
-34.53
-31.51
-26.83
-21.17
-15.17
-9.36
-4.07
0.48
4.15
6.83
8.45
9.08
8.94
8.45
8.10
8.31
9.25
10.78
12.45
13.76
14.35
14.19
13.55
12.79
12.17
11.70
11.19
10.39
9.16
7.55
5.69
3.70
1.58
-0.71
-3.23
-5.90
-8.54
-10.95
-13.09
-15.18
-17.60
-20.81
-24.97
-29.88
-34.92
-39.18
-41.83
-42.27
-40.39
-36.50
-31.19
-25.14
-18.91
-12.89
-7.25
-2.12
2.51
6.62
10.20
13.27
15.82
17.90
19.57
20.87
21.78
22.25
22.21
21.67
20.81
19.89
19.23
18.95
18.99
19.09
18.93
18.27
17.07
15.40
13.37
11.02
8.35
5.40
2.34
-0.53
-2.92
-4.70
-5.99
-7.20
-8.83
-11.27
-14.69
-18.92
-23.54
-27.95
-31.61
-34.04
-34.91
-34.09
-31.56
-27.46
-22.05
-15.80
-9.22
-2.90
2.65
7.14
10.55
13.09
15.15
17.11
19.14
21.25
23.23
24.90
26.20
27.22
28.14
29.10
30.11
31.00
31.52
31.47
30.78
29.60
28.18
26.78
25.51
24.31
22.96
21.26
19.06
16.33
13.25
9.99
6.78
3.71
0.79
-2.08
-5.07
-8.37
-12.12
-16.35
-20.87
-25.23
-28.81
-30.96
-31.19
-29.36
-25.69
-20.78
-15.25
-9.70
-4.46
0.35
4.77
8.82
12.46
15.53
17.89
19.56
20.72
21.70
22.84
24.34
26.20
28.24
30.23
31.98
33.45
34.81
36.27
38.05
40.21
42.54
44.64
46.05
46.50
46.07
45.16
44.42
44.44
45.48
47.39
49.73
51.87
53.28
53.66
53.07
51.98
51.18
51.70
54.50
60.02
67.82
76.30
82.96
85.04
80.42
68.40
50.07
28.06
5.71
-13.93
-28.88
-38.59
-43.81
-46.02
-46.91
-47.95
-50.15
-54.03
-59.68
-66.79
-74.84
-83.13
-91.02
-98.03
-104.01
-109.16
-113.92
-118.79
-124.08
-129.63
-134.87
-138.79
-140.37
-138.85
-134.07
-126.51
-117.17
-107.23
-97.69
-89.14
-81.72
-75.29
-69.57
-64.28
-59.17
-54.00
-48.48
-42.30
-35.32
-27.59
-19.48
-11.49
-4.09
2.50
8.32
13.55
18.36
22.70
26.43
29.35
31.44
32.90
34.05
35.25
36.70
38.35
39.95
41.24
41.95
42.03
41.57
40.74
39.75
38.64
37.41
35.87
33.89
31.42
28.55
25.48
22.44
19.56
16.82
14.11
11.24
8.16
4.86
1.41
-2.13
-5.80
-9.70
-13.86
-18.13
-22.04
-24.92
-26.10
-25.19
-22.26
-17.79
-12.42
-6.75
-1.10
4.44
9.86
15.06
19.79
23.76
26.76
28.81
30.13
31.08
31.92
32.76
33.58
34.22
34.65
34.91
35.14
35.48
35.97
36.46
36.66
36.27
35.10
33.09
30.39
27.20
23.70
20.06
16.39
12.79
9.32
6.01
2.74
-0.74
-4.68
-9.27
-14.47
-19.90
-24.94
-28.81
-30.80
-30.50
-27.92
-23.51
-17.94
-11.95
-6.07
-0.58
4.41
8.85
12.61
15.53
17.50
18.56
19.00
19.22
19.57
20.21
21.08
21.93
22.50
22.62
22.28
21.61
20.80
20.00
19.19
18.21
16.79
14.70
11.88
8.46
4.77
1.09
-2.35
-5.54
-8.59
-11.63
-14.74
-17.96
-21.36
-25.06
-29.18
-33.58
-37.75
-40.67
-41.13
-38.17
-31.46
-21.51
-9.42
3.49
16.12
27.78
38.13
46.89
53.66
57.88
59.10
57.23
52.77
46.76
40.49
35.06
31.06
28.36
26.24
23.71
19.90
14.33
7.03
-1.56
-10.82
-20.11
-28.91
-36.78
-43.40
-48.52
-52.01
-53.84
-54.13
-53.13
-51.23
-48.89
-46.57
-44.68
-43.48
-43.16
-43.76
-45.28
-47.62
-50.54
-53.60
-56.08
-57.16
-56.09
-52.48
-46.49
-38.70
-30.00
-21.19
-12.88
-5.40
1.16
6.76
11.34
14.85
17.29
18.78
19.59
20.14
20.76
21.70
22.98
24.49
26.01
27.38
28.52
29.49
30.38
31.21
31.89
32.21
31.97
31.06
29.57
27.69
25.66
23.56
21.34
18.90
16.10
13.02
9.85
6.82
4.05
1.38
-1.55
-5.13
-9.62
-14.91
-20.53
-25.80
-30.01
-32.57
-33.12
-31.61
-28.18
-23.20
-17.17
-10.63
-4.13
1.91
7.30
12.00
16.13
19.79
22.95
25.48
27.25
28.21
28.59
28.77
29.19
30.13
31.56
33.18
34.61
35.51
35.76
35.46
34.77
33.82
32.62
31.04
28.93
26.20
22.87
19.08
15.02
10.94
7.00
3.32
-0.13
-3.46
-6.85
-10.50
-14.59
-19.20
-24.23
-29.35
-33.94
-37.28
-38.74
-37.95
-34.99
-30.32
-24.60
-18.49
-12.41
-6.60
-1.16
3.76
7.88
10.87
12.51
12.88
12.38
11.66
11.36
11.81
12.97
14.44
15.73
16.51
16.70
16.53
16.28
16.05
15.73
15.00
13.60
11.40
8.51
5.18
1.68
-1.81
-5.24
-8.61
-11.96
-15.30
-18.68
-22.15
-25.82
-29.75
-34.00
-38.43
-42.74
-46.45
-48.96
-49.70
-48.24
-44.54
-38.91
-32.01
-24.63
-17.43
-10.81
-4.90
0.25
4.52
7.69
9.56
10.12
9.74
9.03
8.66
9.06
10.26
11.92
13.60
14.98
15.94
16.55
16.91
17.01
16.75
15.95
14.46
12.30
9.64
6.71
3.82
1.14
-1.29
-3.59
-5.95
-8.53
-11.37
-14.40
-17.57
-20.94
-24.69
-29.01
-33.85
-38.71
-42.73
-44.91
-44.47
-41.16
-35.39
-28.01
-20.07
-12.50
-5.87
-0.40
4.02
7.60
10.60
13.15
15.31
17.08
18.48
19.59
20.50
21.38
22.29
23.25
24.20
25.07
25.84
26.49
27.04
27.43
27.57
27.28
26.38
24.79
22.57
19.89
17.03
14.22
11.53
8.86
6.03
2.89
-0.57
-4.22
-7.86
-11.41
-15.00
-18.86
-23.16
-27.78
-32.22
-35.71
-37.48
-37.02
-34.27
-29.60
-23.65
-17.09
-10.45
-4.07
1.88
7.28
11.99
15.88
18.86
20.93
22.27
23.15
23.88
24.69
25.65
26.65
27.55
28.29
28.95
29.63
30.41
31.17
31.63
31.45
30.46
28.70
26.41
23.84
21.15
18.33
15.31
12.07
8.69
5.30
2.06
-1.09
-4.31
-7.90
-12.04
-16.76
-21.81
-26.64
-30.57
-32.94
-33.32
-31.65
-28.24
-23.63
-18.43
-13.12
-8.02
-3.35
0.71
3.98
6.34
7.74
8.33
8.39
8.25
8.20
8.45
9.04
9.98
11.25
12.78
14.44
15.99
17.11
17.50
17.01
15.72
13.91
11.87
9.82
7.78
5.57
3.03
0.04
-3.30
-6.81
-10.24
-13.46
-16.40
-19.17
-21.98
-25.13
-28.87
-33.28
-38.14
-42.87
-46.68
-48.77
-48.57
-45.96
-41.19
-34.85
-27.63
-20.23
-13.22
-7.01
-1.84
2.23
5.32
7.67
9.56
11.19
12.61
13.78
14.61
15.09
15.34
15.56
15.99
16.71
17.72
18.85
19.87
20.59
20.88
20.73
20.14
19.15
17.74
15.89
13.65
11.11
8.38
5.53
2.58
-0.51
-3.78
-7.15
-10.50
-13.73
-16.89
-20.25
-24.21
-29.02
-34.62
-40.45
-45.55
-48.89
-49.68
-47.65
-43.03
-36.53
-28.97
-21.15
-13.62
-6.75
-0.74
4.31
8.37
11.53
13.98
16.02
17.90
19.85
21.90
23.97
25.86
27.37
28.37
28.90
29.18
29.50
30.11
31.01
31.94
32.51
32.32
31.23
29.37
27.08
24.65
22.20
19.70
17.04
14.25
11.55
9.20
7.38
5.99
4.68
3.05
0.86
-1.85
-4.86
-8.02
-11.33
-15.03
-19.35
-24.27
-29.31
-33.69
-36.53
-37.19
-35.55
-31.96
-27.03
-21.47
-15.78
-10.33
-5.30
-0.75
3.28
6.78
9.74
12.14
14.02
15.55
17.00
18.66
20.72
23.09
25.50
27.54
28.94
29.67
29.97
30.15
30.37
30.54
30.34
29.44
27.73
25.38
22.75
20.19
17.83
15.51
12.95
9.92
6.44
2.79
-0.67
-3.67
-6.23
-8.61
-11.18
-14.22
-17.86
-22.02
-26.56
-31.34
-36.11
-40.50
-43.95
-45.77
-45.36
-42.40
-37.09
-30.08
-22.37
-14.98
-8.72
-3.96
-0.63
1.62
3.24
4.55
5.66
6.53
7.12
7.49
7.83
8.38
9.22
10.30
11.41
12.35
12.98
13.31
13.37
13.22
12.87
12.29
11.48
10.42
9.12
7.57
5.77
3.73
1.46
-0.94
-3.38
-5.80
-8.21
-10.70
-13.37
-16.38
-19.79
-23.64
-27.93
-32.58
-37.38
-41.97
-45.82
-48.30
-48.91
-47.41
-43.92
-38.92
-32.99
-26.63
-20.16
-13.81
-7.73
-2.20
2.50
6.17
8.81
10.65
12.04
13.29
14.53
15.78
16.91
17.86
18.61
19.18
19.63
19.99
20.33
20.65
20.93
21.03
20.75
19.96
18.58
16.72
14.51
12.08
9.45
6.60
3.46
0.07
-3.50
-7.13
-10.71
-14.24
-17.73
-21.25
-24.92
-28.81
-32.93
-37.05
-40.73
-43.28
-44.02
-42.49
-38.63
-32.82
-25.73
-18.16
-10.76
-4.03
1.76
6.50
10.20
12.99
15.01
16.44
17.43
18.17
18.87
19.76
21.00
22.59
24.38
26.13
27.68
29.01
30.23
31.44
32.55
33.33
33.44
32.69
31.14
29.06
26.78
24.52
22.32
20.04
17.52
14.70
11.67
8.60
5.62
2.78
-0.05
-3.17
-6.91
-11.47
-16.78
-22.39
-27.58
-31.48
-33.38
-32.93
-30.24
-25.79
-20.25
-14.31
-8.50
-3.14
1.53
5.43
8.51
10.80
12.43
13.60
14.59
15.60
16.77
18.04
19.30
20.42
21.33
22.08
22.72
23.29
23.72
23.86
23.53
22.64
21.16
19.13
16.65
13.80
10.67
7.30
3.79
0.28
-3.10
-6.27
-9.25
-12.25
-15.62
-19.68
-24.55
-30.01
-35.43
-39.92
-42.61
-42.94
-40.84
-36.69
-31.20
-25.08
-18.94
-13.22
-8.16
-3.97
-0.71
1.67
3.31
4.52
5.60
6.74
7.99
9.23
10.31
11.13
11.73
12.26
12.89
13.71
14.66
15.52
15.97
15.76
14.78
13.09
10.85
8.25
5.42
2.42
-0.73
-3.89
-6.91
-9.60
-11.94
-14.10
-16.42
-19.32
-23.11
-27.83
-33.18
-38.60
-43.35
-46.76
-48.31
-47.79
-45.27
-40.99
-35.34
-28.71
-21.50
-14.13
-7.02
-0.55
4.98
9.45
12.93
15.58
17.60
19.09
20.13
20.79
21.26
21.77
22.50
23.49
24.62
25.66
26.39
26.76
26.82
26.68
26.37
25.80
24.78
23.17
20.96
18.30
15.45
12.66
10.05
7.63
5.26
2.76
0.00
-3.05
-6.37
-9.89
-13.53
-17.32
-21.30
-25.56
-30.07
-34.59
-38.58
-41.33
-42.18
-40.67
-36.83
-31.14
-24.37
-17.31
-10.59
-4.50
0.91
5.75
10.06
13.84
17.00
19.52
21.45
22.97
24.29
25.52
26.64
27.53
28.19
28.85
29.97
32.02
35.15
39.03
42.84
45.70
46.98
46.61
44.97
42.61
39.95
37.15
34.15
30.92
27.55
24.27
21.27
18.55
15.92
13.05
9.67
5.72
1.41
-2.87
-6.75
-10.13
-13.26
-16.61
-20.67
-25.62
-31.11
-36.37
-40.39
-42.38
-41.96
-39.25
-34.72
-28.96
-22.57
-16.04
-9.84
-4.33
0.22
3.74
6.34
8.31
9.95
11.47
12.98
14.49
15.98
17.43
18.80
20.04
21.11
21.98
22.73
23.46
24.14
24.64
24.69
23.96
22.33
19.90
17.00
14.05
11.31
8.83
6.46
3.96
1.21
-1.76
-4.76
-7.58
-10.17
-12.61
-15.17
-18.12
-21.64
-25.76
-30.37
-35.23
-39.95
-44.07
-47.01
-48.22
-47.27
-44.06
-38.91
-32.55
-25.95
-19.91
-14.83
-10.66
-6.99
-3.40
0.26
3.80
6.91
9.30
11.03
12.33
13.53
14.83
16.10
17.12
17.67
17.77
17.65
17.61
17.87
18.34
18.72
18.53
17.42
15.33
12.58
9.74
7.40
5.84
4.91
4.07
2.70
0.45
-2.66
-6.26
-9.83
-13.04
-15.85
-18.48
-21.19
-24.19
-27.54
-31.17
-35.00
-38.83
-42.34
-45.08
-46.39
-45.69
-42.64
-37.29
-30.14
-22.00
-13.73
-6.14
0.33
5.54
9.66
12.99
15.83
18.37
20.65
22.69
24.50
26.18
27.83
29.52
31.23
32.82
34.17
35.17
35.87
36.38
36.78
37.11
37.24
36.97
36.09
34.45
32.01
28.80
25.01
20.90
16.80
12.95
9.54
6.55
3.91
1.51
-0.72
-2.76
-4.58
-6.24
-7.93
-9.97
-12.70
-16.31
-20.74
-25.60
-30.24
-33.94
-36.04
-36.20
-34.32
-30.65
-25.62
-19.76
-13.60
-7.66
-2.35
2.05
5.40
7.79
9.44
10.63
11.69
12.82
14.13
15.62
17.19
18.71
20.04
21.09
21.81
22.24
22.47
22.54
22.45
22.11
21.42
20.26
18.60
16.46
13.93
11.07
7.94
4.62
1.23
-1.99
-4.82
-7.13
-9.07
-11.03
-13.55
-17.08
-21.72
-27.17
-32.79
-37.88
-41.80
-44.18
-44.80
-43.60
-40.58
-35.94
-30.07
-23.64
-17.37
-11.83
-7.32
-3.75
-0.85
1.57
3.54
4.96
5.71
5.90
5.88
6.06
6.75
8.02
9.62
11.23
12.55
13.46
13.92
13.93
13.45
12.39
10.74
8.60
6.17
3.68
1.28
-1.06
-3.44
-5.99
-8.73
-11.59
-14.46
-17.22
-19.88
-22.53
-25.35
-28.60
-32.44
-36.85
-41.56
-46.00
-49.40
-51.03
-50.39
-47.38
-42.33
-35.84
-28.59
-21.18
-14.12
-7.69
-2.10
2.54
6.22
8.95
10.82
11.96
12.60
13.01
13.50
14.29
15.47
16.97
18.55
19.98
21.12
21.92
22.46
22.73
22.65
22.05
20.78
18.85
16.45
13.92
11.50
9.28
7.11
4.74
2.02
-0.99
-4.02
-6.72
-8.85
-10.43
-11.73
-13.12
-14.96
-17.47
-20.66
-24.39
-28.30
-31.92
-34.62
-35.72
-34.68
-31.30
-25.82
-18.93
-11.59
-4.69
1.19
5.91
9.74
13.09
16.36
19.70
23.09
26.37
29.36
31.96
34.12
35.88
37.28
38.37
39.18
39.76
40.10
40.17
39.93
39.29
38.18
36.60
34.59
32.28
29.75
27.11
24.39
21.55
18.56
15.33
11.87
8.25
4.65
1.28
-1.70
-4.26
-6.64
-9.18
-12.30
-16.25
-20.96
-26.04
-30.77
-34.41
-36.30
-36.13
-33.90
-29.98
-24.90
-19.28
-13.60
-8.24
-3.43
0.64
3.86
6.15
7.53
8.17
8.31
8.26
8.29
8.56
9.16
10.12
11.38
12.87
14.37
15.63
16.37
16.39
15.66
14.34
12.66
10.85
8.98
6.98
4.69
2.05
-0.86
-3.79
-6.52
-8.90
-11.06
-13.24
-15.75
-18.74
-22.20
-25.98
-29.94
-33.98
-37.93
-41.58
-44.47
-46.08
-45.90
-43.74
-39.82
-34.67
-29.01
-23.43
-18.26
-13.55
-9.18
-5.01
-0.98
2.80
6.15
8.86
10.83
12.14
13.01
13.74
14.58
15.66
16.93
18.26
19.44
20.36
20.97
21.24
21.15
20.58
19.47
17.76
15.56
13.10
10.66
8.47
6.61
4.97
3.32
1.37
-1.04
-3.92
-7.10
-10.31
-13.31
-16.08
-18.74
-21.60
-24.94
-28.93
-33.49
-38.24
-42.65
-46.04
-47.81
-47.53
-45.06
-40.58
-34.61
-27.85
-20.95
-14.42
-8.53
-3.34
1.18
5.08
8.35
10.97
12.98
14.54
15.91
17.35
19.07
21.00
23.00
24.87
26.54
28.08
29.68
31.42
33.24
34.87
36.03
36.59
36.52
35.93
34.93
33.54
31.80
29.79
27.70
25.69
23.89
22.21
20.44
18.34
15.87
13.15
10.34
7.55
4.67
1.43
-2.49
-7.22
-12.69
-18.55
-24.28
-29.35
-33.27
-35.73
-36.51
-35.52
-32.78
-28.41
-22.76
-16.30
-9.64
-3.32
2.29
7.05
11.08
14.61
17.80
20.67
23.09
24.85
25.85
26.17
26.14
26.25
26.90
28.30
30.30
32.43
34.11
34.86
34.52
33.18
31.17
28.76
26.11
23.19
19.95
16.40
12.72
9.18
5.96
3.15
0.59
-1.96
-4.70
-7.72
-10.99
-14.47
-18.13
-22.09
-26.46
-31.26
-36.18
-40.62
-43.77
-44.86
-43.51
-39.90
-34.71
-28.85
-23.11
-17.91
-13.24
-8.91
-4.72
-0.75
2.70
5.31
6.90
7.61
7.81
8.03
8.65
9.88
11.63
13.65
15.63
17.28
18.44
19.01
18.95
18.20
16.71
14.52
11.75
8.67
5.46
2.24
-1.08
-4.72
-8.86
-13.51
-18.39
-22.97
-26.80
-29.65
-31.65
-33.21
-34.82
-36.88
-39.57
-42.79
-46.26
-49.47
-51.75
-52.41
-50.91
-47.08
-41.17
-33.86
-25.98
-18.33
-11.41
-5.45
-0.42
3.80
7.34
10.31
12.78
14.81
16.44
17.74
18.81
19.71
20.55
21.39
22.28
23.25
24.27
25.27
26.11
26.57
26.45
25.63
24.12
22.10
19.84
17.64
15.69
14.07
12.72
11.45
10.03
8.26
6.08
3.60
1.10
-1.11
-2.88
-4.26
-5.59
-7.29
-9.70
-12.81
-16.28
-19.47
-21.64
-22.19
-20.79
-17.52
-12.75
-7.06
-1.03
4.83
10.22
14.97
18.97
22.17
24.54
26.08
26.94
27.37
27.71
28.20
28.89
29.61
30.06
29.97
29.33
28.42
27.69
27.51
27.91
28.48
28.63
27.82
25.88
22.98
19.56
16.01
12.59
9.29
6.03
2.80
-0.32
-3.16
-5.66
-7.90
-10.18
-12.84
-16.17
-20.32
-25.25
-30.65
-36.08
-40.94
-44.63
-46.61
-46.56
-44.43
-40.42
-34.96
-28.64
-22.09
-15.96
-10.73
-6.77
-4.18
-2.83
-2.38
-2.39
-2.45
-2.23
-1.55
-0.33
1.40
3.59
6.10
8.68
11.06
12.94
14.10
14.47
14.12
13.15
11.70
9.85
7.69
5.29
2.78
0.30
-2.11
-4.45
-6.82
-9.30
-11.93
-14.74
-17.76
-21.04
-24.69
-28.74
-33.15
-37.71
-42.03
-45.58
-47.79
-48.16
-46.34
-42.27
-36.22
-28.81
-20.83
-13.10
-6.30
-0.77
3.45
6.58
8.97
10.95
12.71
14.34
15.80
17.07
18.20
19.30
20.51
21.92
23.48
25.04
26.38
27.27
27.53
27.12
26.07
24.50
22.54
20.33
17.99
15.57
13.05
10.35
7.36
4.02
0.39
-3.39
-7.13
-10.70
-14.03
-17.16
-20.25
-23.45
-26.95
-30.88
-35.26
-39.91
-44.39
-47.98
-49.83
-49.22
-45.82
-39.85
-32.00
-23.24
-14.41
-6.10
1.50
8.41
14.69
20.31
25.15
29.13
32.37
35.15
37.80
40.44
42.92
44.99
46.41
47.22
47.76
48.45
49.49
50.75
51.76
52.00
51.18
49.37
46.91
44.25
41.68
39.21
36.69
33.91
30.72
27.14
23.31
19.35
15.37
11.42
7.50
3.64
-0.13
-3.82
-7.56
-11.61
-16.26
-21.65
-27.64
-33.68
-38.97
-42.65
-44.07
-42.96
-39.47
-34.12
-27.55
-20.42
-13.31
-6.67
-0.93
3.66
6.95
8.95
9.88
10.11
10.08
10.19
10.69
11.60
12.76
13.90
14.82
15.41
15.76
16.03
16.37
16.81
17.18
17.22
16.63
15.20
12.87
9.77
6.09
2.11
-1.94
-5.88
-9.58
-13.00
-16.20
-19.36
-22.71
-26.50
-30.85
-35.66
-40.58
-44.97
-48.06
-49.17
-47.88
-44.18
-38.54
-31.72
-24.58
-17.79
-11.76
-6.63
-2.35
1.15
3.84
5.69
6.72
7.12
7.21
7.39
7.91
8.78
9.81
10.69
11.21
11.36
11.27
11.15
11.09
11.01
10.71
9.99
8.74
6.98
4.80
2.31
-0.51
-3.65
-7.09
-10.64
-13.94
-16.67
-18.67
-20.08
-21.37
-23.10
-25.75
-29.47
-34.03
-38.89
-43.33
-46.66
-48.31
-47.91
-45.29
-40.51
-33.91
-26.02
-17.57
-9.29
-1.82
4.42
9.24
12.68
14.95
16.32
17.13
17.71
18.35
19.25
20.50
22.02
23.68
25.30
26.78
28.08
29.25
30.35
31.38
32.27
32.87
33.01
32.58
31.58
30.09
28.32
26.47
24.74
23.17
21.70
20.23
18.60
16.77
14.71
12.41
9.86
7.01
3.75
-0.07
-4.59
-9.90
-15.93
-22.29
-28.32
-33.10
-35.76
-35.71
-32.87
-27.76
-21.22
-14.16
-7.27
-0.85
5.05
10.50
15.52
19.96
23.64
26.45
28.39
29.66
30.49
31.15
31.74
32.32
32.85
33.33
33.77
34.20
34.60
34.81
34.60
33.71
32.04
29.63
26.72
23.62
20.54
17.49
14.34
10.88
7.02
2.92
-1.11
-4.73
-7.80
-10.51
-13.29
-16.68
-21.08
-26.50
-32.57
-38.53
-43.55
-46.89
-48.08
-47.02
-43.88
-39.07
-33.09
-26.48
-19.76
-13.37
-7.65
-2.82
1.01
3.83
5.67
6.66
6.99
6.90
6.64
6.43
6.40
6.59
7.02
7.67
8.52
9.45
10.26
10.65
10.39
9.42
7.94
6.31
4.82
3.59
2.42
0.98
-0.98
-3.49
-6.35
-9.22
-11.87
-14.28
-16.61
-19.16
-22.15
-25.65
-29.62
-33.98
-38.60
-43.36
-47.98
-51.98
-54.61
-55.06
-52.71
-47.50
-40.00
-31.30
-22.63
-14.89
-8.41
-3.01
1.68
6.00
9.97
13.39
16.03
17.80
18.83
19.44
19.98
20.68
21.65
22.79
23.96
24.97
25.74
26.22
26.44
26.42
26.11
25.41
24.19
22.42
20.19
17.70
15.22
12.89
10.72
8.48
5.97
3.04
-0.24
-3.58
-6.68
-9.33
-11.65
-13.98
-16.79
-20.41
-24.86
-29.82
-34.68
-38.72
-41.29
-41.88
-40.20
-36.25
-30.28
-22.79
-14.48
-6.03
1.91
8.93
14.77
19.36
22.82
25.37
27.37
29.14
30.95
32.88
34.89
36.82
38.58
40.20
41.72
43.14
44.32
44.99
44.92
44.01
42.42
40.45
38.38
36.24
33.87
30.97
27.36
23.10
18.56
14.22
10.42
7.28
4.63
2.15
-0.41
-3.20
-6.25
-9.57
-13.33
-17.74
-22.92
-28.69
-34.47
-39.33
-42.36
-42.93
-40.96
-36.88
-31.43
-25.38
-19.30
-13.53
-8.24
-3.58
0.32
3.28
5.24
6.32
6.80
7.04
7.33
7.85
8.56
9.36
10.16
10.88
11.51
12.01
12.32
12.30
11.83
10.82
9.24
7.14
4.58
1.68
-1.40
-4.47
-7.38
-10.00
-12.35
-14.53
-16.67
-18.93
-21.48
-24.46
-28.03
-32.32
-37.30
-42.63
-47.61
-51.34
-52.97
-51.96
-48.35
-42.70
-35.86
-28.68
-21.81
-15.60
-10.16
-5.53
-1.66
1.46
3.98
6.06
7.87
9.51
10.98
12.23
13.21
13.96
14.66
15.49
16.55
17.76
18.85
19.43
19.16
17.91
15.84
13.30
10.73
8.43
6.48
4.72
2.85
0.69
-1.82
-4.50
-7.11
-9.52
-11.70
-13.87
-16.31
-19.34
-23.12
-27.67
-32.81
-38.18
-43.29
-47.45
-49.96
-50.15
-47.67
-42.56
-35.32
-26.77
-17.84
-9.34
-1.79
4.58
9.76
13.93
17.31
20.14
22.59
24.77
26.68
28.33
29.79
31.21
32.78
34.63
36.74
38.91
40.86
42.32
43.15
43.32
42.91
42.00
40.60
38.71
36.34
33.55
30.47
27.26
24.05
20.83
17.54
14.03
10.23
6.20
2.13
-1.75
-5.34
-8.77
-12.42
-16.71
-21.84
-27.56
-33.14
-37.61
-39.97
-39.71
-36.80
-31.70
-25.14
-17.90
-10.60
-3.72
2.41
7.61
11.78
14.97
17.29
18.92
20.07
20.91
21.65
22.39
23.22
24.11
24.97
25.66
26.09
26.26
26.26
26.18
26.00
25.64
24.91
23.63
21.72
19.19
16.19
12.88
9.44
6.00
2.63
-0.65
-3.87
-7.05
-10.22
-13.44
-16.81
-20.51
-24.69
-29.36
-34.28
-38.92
-42.57
-44.60
-44.58
-42.49
-38.58
-33.24
-26.94
-20.16
-13.40
-7.20
-2.06
1.70
4.02
5.17
5.57
5.66
5.79
6.11
6.63
7.30
8.09
8.95
9.85
10.71
11.40
11.78
11.68
11.04
9.92
8.45
6.83
5.15
3.41
1.48
-0.79
-3.52
-6.71
-10.24
-13.92
-17.58
-21.07
-24.40
-27.73
-31.31
-35.40
-40.04
-45.02
-49.86
-53.86
-56.41
-57.00
-55.36
-51.43
-45.34
-37.49
-28.54
-19.36
-10.84
-3.65
1.94
6.11
9.26
11.83
14.03
15.87
17.24
18.10
18.58
18.94
19.50
20.46
21.83
23.41
24.96
26.18
26.86
26.92
26.29
25.04
23.22
20.97
18.51
16.06
13.81
11.84
10.01
8.11
5.97
3.55
1.01
-1.45
-3.64
-5.55
-7.33
-9.20
-11.51
-14.51
-18.35
-22.95
-27.90
-32.44
-35.62
-36.56
-34.71
-30.09
-23.23
-14.98
-6.21
2.39
10.37
17.49
23.56
28.50
32.28
35.00
36.90
38.25
39.33
40.29
41.22
42.15
43.05
43.92
44.73
45.45
46.00
46.33
46.31
45.82
44.76
43.05
40.71
37.86
34.71
31.40
28.02
24.56
20.92
17.06
12.99
8.83
4.73
0.83
-2.78
-6.10
-9.20
-12.27
-15.53
-19.20
-23.50
-28.44
-33.79
-39.01
-43.38
-46.13
-46.69
-44.80
-40.68
-34.91
-28.26
-21.51
-15.24
-9.83
-5.37
-1.87
0.78
2.68
3.98
4.80
5.34
5.77
6.28
7.07
8.26
9.86
11.75
13.71
15.46
16.72
17.28
17.06
16.12
14.53
12.42
9.90
7.02
3.86
0.48
-3.00
-6.49
-9.89
-13.13
-16.18
-19.05
-21.81
-24.62
-27.69
-31.24
-35.46
-40.29
-45.42
-50.28
-54.11
-56.21
-56.11
-53.67
-49.04
-42.66
-35.04
-26.75
-18.39
-10.50
-3.59
1.99
6.10
8.85
10.56
11.66
12.52
13.43
14.53
15.83
17.34
18.96
20.63
22.23
23.64
24.72
25.36
25.45
24.93
23.80
22.14
20.12
17.92
15.64
13.30
10.82
8.07
4.98
1.61
-1.85
-5.16
-8.14
-10.75
-13.19
-15.78
-18.89
-22.74
-27.32
-32.37
-37.42
-41.82
-44.99
-46.38
-45.61
-42.54
-37.24
-30.08
-21.64
-12.65
-3.85
4.17
11.10
16.86
21.55
25.27
28.09
30.07
31.34
32.18
33.00
34.18
35.97
38.30
40.88
43.33
45.33
46.74
47.59
47.91
47.70
46.88
45.34
43.11
40.31
37.25
34.25
31.51
29.09
26.78
24.25
21.18
17.33
12.74
7.64
2.47
-2.33
-6.52
-10.15
-13.64
-17.59
-22.54
-28.62
-35.40
-41.92
-47.07
-49.82
-49.63
-46.53
-40.98
-33.74
-25.61
-17.41
-9.86
-3.57
1.07
3.99
5.48
6.10
6.51
7.26
8.58
10.45
12.65
14.90
16.96
18.70
20.09
21.08
21.63
21.68
21.21
20.28
18.96
17.28
15.19
12.58
9.23
5.10
0.35
-4.60
-9.25
-13.17
-16.26
-18.77
-21.22
-24.19
-28.07
-32.91
-38.38
-43.78
-48.28
-51.03
-51.48
-49.38
-44.95
-38.69
-31.32
-23.60
-16.16
-9.55
-4.15
-0.15
2.42
3.84
4.55
5.04
5.67
6.52
7.42
8.07
8.34
8.38
8.58
9.28
10.57
12.09
13.19
13.23
11.91
9.53
6.75
4.34
2.69
1.67
0.62
-1.22
-4.29
-8.40
-12.85
-16.79
-19.53
-20.83
-20.63
-18.72
-14.53
-7.24
3.81
18.60
36.21
55.10
73.74
91.07
106.41
118.89
126.68
126.76
115.71
91.17
53.37
5.60
-46.63
-97.62
-143.69
-184.16
-220.73
-255.35
-288.03
-315.89
-333.93
-337.34
-323.68
-293.91
-251.62
-201.17
-146.10
-88.70
-30.77
25.09
75.24
115.92
145.09
163.96
176.84
189.47
206.46
229.22
255.53
280.68
299.64
308.88
307.47
296.68
279.02
257.08
232.72
206.91
179.91
151.99
123.75
96.35
71.25
49.64
31.97
17.83
6.22
-3.85
-12.82
-20.34
-25.48
-27.19
-24.79
-18.16
-7.77
5.68
21.58
39.49
59.12
79.99
101.07
120.70
136.62
146.46
148.23
140.83
124.37
100.13
70.40
37.98
5.79
-23.69
-48.81
-68.94
-84.46
-96.31
-105.50
-112.69
-117.96
-121.06
-121.65
-119.64
-115.25
-108.89
-101.00
-91.85
-81.65
-70.64
-59.24
-48.06
-37.86
-29.28
-22.66
-17.94
-14.68
-12.21
-9.96
-7.66
-5.54
-4.20
-4.28
-6.06
-9.25
-13.00
-16.35
-18.71
-20.12
-21.25
-22.94
-25.74
-29.66
-34.12
-38.40
-41.89
-44.41
-46.17
-47.55
-48.97
-50.70
-52.82
-55.31
-57.98
-60.58
-62.86
-64.54
-65.32
-64.89
-62.96
-59.35
-54.03
-47.32
-39.79
-32.21
-25.38
-19.87
-15.96
-13.59
-12.42
-11.96
-11.76
-11.44
-10.77
-9.61
-7.90
-5.68
-3.09
-0.42
1.92
3.52
4.06
3.49
2.03
0.13
-1.84
-3.66
-5.37
-7.20
-9.41
-12.13
-15.38
-19.08
-23.17
-27.56
-32.00
-36.03
-38.98
-40.18
-39.21
-36.09
-31.30
-25.53
-19.46
-13.52
-7.95
-2.87
1.58
5.18
7.81
9.51
10.58
11.46
12.52
13.88
15.35
16.57
17.18
17.05
16.30
15.28
14.42
13.96
13.90
13.95
13.64
12.57
10.61
7.95
5.01
2.27
-0.01
-1.89
-3.71
-5.91
-8.90
-12.85
-17.68
-23.05
-28.38
-33.03
-36.35
-37.91
-37.52
-35.30
-31.53
-26.58
-20.86
-14.79
-8.84
-3.47
0.98
4.44
7.11
9.38
11.56
13.75
15.79
17.41
18.39
18.78
18.81
18.86
19.19
19.86
20.71
21.52
22.01
22.06
21.52
20.30
18.26
15.35
11.65
7.48
3.31
-0.36
-3.33
-5.75
-8.14
-11.15
-15.27
-20.57
-26.57
-32.43
-37.12
-39.73
-39.72
-37.06
-32.21
-25.91
-18.99
-12.10
-5.65
0.22
5.46
9.93
13.39
15.67
16.74
16.88
16.61
16.44
16.72
17.46
18.44
19.35
20.03
20.53
21.00
21.62
22.38
23.12
23.57
23.51
22.84
21.54
19.68
17.26
14.36
11.04
7.49
3.98
0.73
-2.12
-4.74
-7.51
-10.90
-15.30
-20.76
-26.90
-32.91
-37.84
-40.82
-41.39
-39.56
-35.72
-30.49
-24.48
-18.24
-12.10
-6.32
-1.06
3.55
7.48
10.74
13.39
15.50
17.15
18.42
19.47
20.50
21.70
23.15
24.79
26.41
27.76
28.63
28.96
28.79
28.22
27.39
26.37
25.17
23.74
21.99
19.80
17.17
14.17
10.96
7.75
4.64
1.66
-1.31
-4.40
-7.72
-11.27
-15.08
-19.19
-23.72
-28.76
-34.19
-39.56
-44.06
-46.70
-46.71
-43.80
-38.33
-31.23
-23.62
-16.40
-10.07
-4.65
0.07
4.26
7.96
11.02
13.39
15.14
16.54
17.99
19.70
21.72
23.80
25.65
27.08
28.13
29.06
30.09
31.30
32.46
33.09
32.78
31.37
29.04
26.30
23.70
21.56
19.87
18.33
16.60
14.42
11.77
8.77
5.56
2.28
-1.09
-4.57
-8.25
-12.20
-16.50
-21.30
-26.62
-32.37
-38.13
-43.21
-46.72
-47.89
-46.28
-42.00
-35.66
-28.21
-20.61
-13.59
-7.50
-2.32
2.11
5.97
9.34
12.17
14.42
16.07
17.25
18.12
18.83
19.44
19.95
20.39
20.80
21.26
21.81
22.39
22.79
22.74
22.04
20.61
18.57
16.11
13.48
10.86
8.39
6.15
4.17
2.37
0.58
-1.47
-4.01
-7.08
-10.50
-13.88
-16.84
-19.27
-21.41
-23.79
-26.96
-31.14
-35.96
-40.57
-43.83
-44.80
-43.03
-38.77
-32.73
-25.84
-18.90
-12.40
-6.51
-1.23
3.50
7.64
11.08
13.72
15.54
16.61
17.15
17.40
17.59
17.91
18.49
19.39
20.58
21.92
23.18
24.04
24.24
23.63
22.28
20.43
18.38
16.48
14.86
13.54
12.34
10.95
9.02
6.26
2.65
-1.55
-5.85
-9.71
-12.84
-15.25
-17.33
-19.63
-22.65
-26.63
-31.46
-36.64
-41.41
-44.94
-46.44
-45.42
-41.81
-36.05
-28.96
-21.51
-14.49
-8.30
-2.94
1.88
6.41
10.71
14.58
17.69
19.82
20.99
21.53
21.90
22.54
23.63
25.04
26.39
27.29
27.48
27.01
26.23
25.48
24.99
24.64
24.07
22.87
20.85
18.18
15.33
12.80
10.82
9.24
7.60
5.40
2.42
-1.21
-4.97
-8.29
-10.83
-12.71
-14.38
-16.44
-19.32
-23.19
-27.89
-33.08
-38.31
-43.07
-46.79
-48.82
-48.63
-45.92
-40.85
-34.01
-26.23
-18.39
-11.09
-4.65
0.99
6.01
10.57
14.75
18.37
21.21
23.06
23.84
23.82
23.43
23.19
23.41
24.18
25.25
26.23
26.88
27.16
27.24
27.29
27.32
27.07
26.12
24.14
21.12
17.42
13.64
10.33
7.76
5.80
4.05
2.13
-0.18
-2.81
-5.53
-8.17
-10.69
-13.20
-15.83
-18.62
-21.57
-24.66
-28.00
-31.75
-36.08
-40.82
-45.45
-49.04
-50.62
-49.49
-45.55
-39.34
-31.86
-24.17
-17.09
-10.99
-5.82
-1.29
2.86
6.75
10.25
13.13
15.20
16.50
17.25
17.82
18.52
19.42
20.40
21.17
21.49
21.27
20.64
19.79
18.89
17.97
16.94
15.67
14.14
12.39
10.50
8.45
6.08
3.18
-0.29
-4.14
-7.95
-11.28
-13.87
-15.83
-17.59
-19.77
-22.83
-26.97
-31.98
-37.24
-41.93
-45.16
-46.18
-44.64
-40.65
-34.74
-27.74
-20.52
-13.77
-7.90
-3.01
1.07
4.55
7.66
10.51
13.12
15.44
17.39
18.93
20.05
20.76
21.13
21.21
21.16
21.12
21.20
21.41
21.66
21.74
21.52
20.91
19.96
18.69
17.04
14.82
11.81
7.97
3.55
-0.90
-4.74
-7.55
-9.34
-10.61
-12.13
-14.62
-18.48
-23.69
-29.78
-36.04
-41.73
-46.10
-48.56
-48.67
-46.24
-41.45
-34.81
-27.19
-19.50
-12.48
-6.52
-1.57
2.68
6.59
10.29
13.71
16.55
18.58
19.76
20.30
20.60
21.00
21.69
22.59
23.49
24.19
24.59
24.77
24.84
24.87
24.75
24.30
23.28
21.55
19.15
16.31
13.28
10.24
7.22
4.10
0.75
-2.87
-6.67
-10.49
-14.19
-17.77
-21.45
-25.47
-30.08
-35.20
-40.40
-44.92
-47.78
-48.18
-45.74
-40.68
-33.75
-25.95
-18.12
-10.78
-4.08
2.02
7.50
12.19
15.86
18.41
19.98
20.92
21.63
22.35
23.12
23.84
24.34
24.55
24.54
24.42
24.30
24.22
24.12
23.84
23.21
22.11
20.50
18.44
16.07
13.48
10.71
7.77
4.64
1.44
-1.67
-4.57
-7.34
-10.31
-13.93
-18.57
-24.29
-30.66
-36.86
-41.95
-45.02
-45.54
-43.39
-38.89
-32.66
-25.44
-17.96
-10.82
-4.49
0.84
5.03
8.17
10.42
11.99
13.10
13.93
14.58
15.08
15.48
15.81
16.14
16.52
16.93
17.27
17.38
17.09
16.27
14.89
13.06
10.89
8.51
6.02
3.43
0.76
-1.99
-4.80
-7.77
-11.07
-14.97
-19.66
-25.08
-30.72
-35.68
-38.87
-39.37
-36.81
-31.49
-24.33
-16.48
-8.95
-2.33
3.24
7.94
12.01
15.55
18.48
20.60
21.77
22.02
21.57
20.82
20.12
19.72
19.60
19.64
19.62
19.48
19.29
19.22
19.31
19.38
19.07
17.94
15.73
12.56
8.84
5.07
1.66
-1.32
-4.03
-6.79
-9.94
-13.67
-18.03
-22.96
-28.20
-33.34
-37.74
-40.64
-41.38
-39.59
-35.38
-29.31
-22.29
-15.22
-8.76
-3.20
1.52
5.68
9.54
13.17
16.52
19.34
21.45
22.84
23.68
24.34
25.12
26.18
27.40
28.47
29.05
29.01
28.44
27.61
26.82
26.16
25.49
24.46
22.77
20.23
16.90
13.02
8.91
4.88
1.07
-2.54
-6.10
-9.88
-14.13
-19.04
-24.59
-30.55
-36.39
-41.41
-44.75
-45.69
-43.82
-39.21
-32.48
-24.61
-16.69
-9.51
-3.40
1.78
6.43
10.88
15.20
19.19
22.48
24.85
26.36
27.32
28.19
29.31
30.73
32.26
33.59
34.49
34.92
35.04
35.10
35.18
35.25
35.01
34.16
32.56
30.30
27.67
25.04
22.61
20.26
17.72
14.61
10.77
6.28
1.42
-3.45
-8.17
-12.79
-17.55
-22.71
-28.39
-34.44
-40.37
-45.53
-49.15
-50.60
-49.54
-46.06
-40.62
-33.90
-26.66
-19.47
-12.74
-6.65
-1.26
3.40
7.36
10.70
13.55
16.06
18.32
20.36
22.15
23.71
25.12
26.53
28.00
29.53
30.97
32.09
32.69
32.64
31.98
30.79
29.20
27.24
24.90
22.11
18.87
15.28
11.54
7.88
4.42
1.17
-2.12
-5.70
-9.76
-14.31
-19.22
-24.31
-29.47
-34.63
-39.56
-43.78
-46.57
-47.15
-45.00
-40.19
-33.39
-25.66
-18.07
-11.33
-5.65
-0.79
3.63
7.87
11.89
15.47
18.29
20.25
21.50
22.41
23.42
24.78
26.44
28.14
29.49
30.28
30.46
30.23
29.81
29.36
28.85
28.10
26.87
25.02
22.51
19.46
16.01
12.31
8.46
4.50
0.48
-3.50
-7.32
-10.89
-14.25
-17.63
-21.41
-25.91
-31.18
-36.80
-41.90
-45.38
-46.36
-44.47
-40.02
-33.81
-26.78
-19.72
-13.03
-6.85
-1.12
4.16
8.94
13.15
16.75
19.80
22.40
24.64
26.54
28.10
29.31
30.20
30.82
31.27
31.65
31.99
32.37
32.71
32.89
32.67
31.83
30.31
28.21
25.81
23.41
21.16
18.97
16.58
13.72
10.22
6.19
1.87
-2.39
-6.37
-10.01
-13.46
-17.02
-21.02
-25.78
-31.40
-37.68
-44.03
-49.60
-53.40
-54.65
-52.94
-48.41
-41.72
-33.79
-25.58
-17.81
-10.83
-4.62
1.03
6.28
11.13
15.38
18.83
21.35
23.08
24.31
25.40
26.60
27.91
29.21
30.36
31.32
32.21
33.17
34.22
35.17
35.68
35.42
34.28
32.40
30.11
27.79
25.55
23.32
20.83
17.79
14.10
9.85
5.34
0.84
-3.40
-7.30
-10.93
-14.44
-18.05
-22.00
-26.48
-31.57
-37.18
-42.96
-48.37
-52.76
-55.39
-55.70
-53.35
-48.48
-41.64
-33.75
-25.80
-18.57
-12.38
-7.09
-2.34
2.19
6.49
10.26
13.07
14.71
15.38
15.60
15.99
16.88
18.25
19.77
21.07
21.93
22.35
22.49
22.48
22.29
21.81
20.90
19.57
17.97
16.32
14.75
13.18
11.32
8.87
5.64
1.76
-2.42
-6.43
-9.94
-12.94
-15.78
-19.01
-23.08
-28.13
-33.75
-39.11
-43.20
-45.19
-44.69
-41.84
-37.21
-31.50
-25.33
-19.08
-12.89
-6.89
-1.22
3.86
8.18
11.66
14.44
16.71
18.65
20.35
21.74
22.82
23.62
24.33
25.18
26.29
27.62
28.90
29.79
29.95
29.21
27.59
25.27
22.51
19.55
16.57
13.67
10.89
8.21
5.54
2.77
-0.24
-3.53
-7.01
-10.44
-13.61
-16.47
-19.20
-22.24
-26.00
-30.71
-36.23
-41.93
-46.95
-50.40
-51.58
-50.15
-46.27
-40.49
-33.60
-26.42
-19.55
-13.27
-7.58
-2.34
2.54
7.01
10.93
14.15
16.70
18.75
20.56
22.29
23.96
25.46
26.59
27.31
27.71
27.98
28.36
28.86
29.39
29.62
29.30
28.26
26.61
24.57
22.42
20.29
18.16
15.84
13.16
10.04
6.56
2.91
-0.68
-4.06
-7.20
-10.21
-13.27
-16.57
-20.26
-24.46
-29.21
-34.39
-39.68
-44.50
-48.06
-49.55
-48.45
-44.74
-38.94
-31.99
-24.90
-18.38
-12.70
-7.76
-3.29
0.93
4.93
8.52
11.50
13.68
15.09
15.89
16.39
16.87
17.56
18.57
19.82
21.16
22.39
23.33
23.89
24.00
23.63
22.76
21.39
19.52
17.22
14.55
11.64
8.55
5.33
1.99
-1.45
-4.91
-8.30
-11.51
-14.55
-17.56
-20.84
-24.69
-29.26
-34.40
-39.50
-43.77
-46.36
-46.74
-44.80
-40.92
-35.66
-29.65
-23.35
-17.05
-10.94
-5.19
-0.01
4.40
7.94
10.63
12.64
14.14
15.35
16.39
17.38
18.40
19.51
20.65
21.69
22.41
22.64
22.36
21.69
20.86
20.03
19.20
18.22
16.81
14.78
12.08
8.90
5.50
2.18
-0.86
-3.60
-6.20
-8.97
-12.26
-16.32
-21.21
-26.70
-32.28
-37.26
-40.97
-42.87
-42.71
-40.52
-36.58
-31.36
-25.38
-19.19
-13.23
-7.85
-3.26
0.51
3.59
6.25
8.76
11.27
13.71
15.88
17.53
18.57
19.21
19.79
20.68
21.94
23.38
24.56
25.08
24.84
24.02
22.98
22.00
21.16
20.25
18.99
17.18
14.76
11.93
8.92
5.91
2.91
-0.19
-3.60
-7.46
-11.81
-16.55
-21.51
-26.57
-31.59
-36.42
-40.74
-44.03
-45.61
-44.88
-41.56
-35.93
-28.84
-21.41
-14.63
-9.03
-4.58
-0.81
2.81
6.53
10.27
13.65
16.30
18.06
19.10
19.85
20.71
21.89
23.24
24.39
24.99
24.86
24.16
23.28
22.62
22.34
22.27
22.04
21.25
19.70
17.49
14.93
12.35
9.92
7.65
5.36
2.81
-0.13
-3.52
-7.32
-11.51
-16.22
-21.60
-27.74
-34.44
-40.96
-46.18
-48.91
-48.37
-44.56
-38.33
-30.98
-23.76
-17.41
-12.04
-7.43
-3.27
0.47
3.67
6.19
8.05
9.54
10.99
12.63
14.44
16.17
17.49
18.15
18.15
17.65
16.98
16.39
16.07
15.97
15.91
15.70
15.17
14.24
12.90
11.14
8.98
6.45
3.68
0.89
-1.74
-4.17
-6.55
-9.20
-12.52
-16.73
-21.79
-27.31
-32.63
-36.90
-39.39
-39.63
-37.58
-33.58
-28.27
-22.32
-16.28
-10.46
-4.99
0.05
4.57
8.45
11.57
13.99
15.83
17.33
18.60
19.73
20.74
21.67
22.56
23.51
24.59
25.71
26.74
27.44
27.64
27.23
26.25
24.89
23.31
21.74
20.29
18.97
17.58
15.88
13.61
10.65
7.08
3.20
-0.67
-4.33
-7.77
-11.24
-15.06
-19.55
-24.91
-31.01
-37.47
-43.56
-48.40
-51.08
-51.00
-48.08
-42.78
-36.05
-28.95
-22.35
-16.62
-11.63
-6.96
-2.17
2.80
7.78
12.32
16.10
18.96
21.01
22.53
23.76
24.81
25.67
26.38
27.03
27.80
28.83
30.16
31.56
32.62
32.98
32.41
30.97
28.91
26.62
24.43
22.57
21.07
19.81
18.54
16.96
14.86
12.14
8.88
5.29
1.60
-1.99
-5.40
-8.73
-12.19
-16.08
-20.64
-26.00
-32.05
-38.44
-44.50
-49.37
-52.25
-52.59
-50.30
-45.76
-39.68
-32.84
-25.89
-19.24
-13.07
-7.38
-2.18
2.52
6.65
10.15
13.04
15.43
17.48
19.39
21.26
23.14
24.94
26.55
27.91
29.08
30.13
31.14
31.96
32.28
31.77
30.25
27.84
24.97
22.15
19.76
17.80
15.97
13.84
11.10
7.70
3.88
-0.02
-3.72
-7.07
-10.11
-12.97
-15.84
-18.93
-22.48
-26.73
-31.72
-37.25
-42.72
-47.19
-49.69
-49.49
-46.46
-41.11
-34.49
-27.73
-21.67
-16.56
-12.12
-7.84
-3.35
1.27
5.55
8.89
10.88
11.64
11.73
11.94
12.79
14.40
16.43
18.34
19.78
20.73
21.44
22.20
23.10
23.91
24.22
23.61
21.85
19.05
15.55
11.88
8.49
5.65
3.31
1.25
-0.91
-3.49
-6.69
-10.60
-15.22
-20.53
-26.37
-32.39
-37.93
-42.10
-44.06
-43.30
-39.94
-34.66
-28.47
-22.32
-16.74
-11.74
-7.05
-2.34
2.49
7.21
11.42
14.81
17.30
19.12
20.62
22.11
23.65
25.11
26.25
26.91
27.12
27.09
27.06
27.11
27.13
26.85
25.98
24.39
22.24
19.80
17.43
15.27
13.21
10.95
8.16
4.70
0.70
-3.47
-7.47
-11.16
-14.65
-18.31
-22.52
-27.51
-33.28
-39.49
-45.59
-50.83
-54.44
-55.76
-54.36
-50.26
-43.88
-36.07
-27.78
-19.91
-12.96
-7.00
-1.75
3.21
8.21
13.35
18.41
23.05
26.88
29.70
31.52
32.57
33.19
33.70
34.28
34.95
35.59
36.05
36.22
36.09
35.63
34.80
33.44
31.43
28.69
25.34
21.68
18.05
14.67
11.52
8.44
5.19
1.65
-2.13
-6.02
-9.88
-13.75
-17.81
-22.37
-27.66
-33.80
-40.62
-47.66
-54.23
-59.49
-62.74
-63.51
-61.78
-57.88
-52.41
-46.05
-39.42
-33.02
-27.21
-22.27
-18.26
-15.14
-12.77
-10.98
-9.69
-8.83
-8.42
-8.36
-8.51
-8.65
-8.66
-8.64
-8.83
-9.49
-10.75
-12.53
-14.54
-16.51
-18.25
-19.72
-20.99
-22.12
-23.09
-23.83
-24.29
-24.52
-24.67
-25.01
-25.79
-27.30
-29.68
-33.03
-37.17
-41.72
-46.01
-49.25
-50.70
-49.78
-46.37
-40.65
-33.09
-24.28
-14.76
-4.98
4.77
14.25
23.32
31.87
39.80
46.99
53.27
58.50
62.57
65.56
67.72
69.48
71.24
73.33
75.87
78.68
81.40
83.52
84.53
83.97
81.67
77.79
72.77
67.29
61.96
57.20
53.08
49.39
45.85
42.16
38.09
33.52
28.39
22.87
17.34
12.47
9.06
7.74
8.74
11.86
16.43
21.57
26.52
30.78
34.15
36.62
38.30
39.25
39.51
39.14
38.22
36.91
35.41
33.96
32.67
31.52
30.31
28.73
26.44
23.19
18.87
13.53
7.30
0.35
-7.12
-14.86
-22.57
-29.95
-36.80
-43.08
-49.00
-54.85
-60.85
-66.90
-72.47
-76.75
-78.85
-78.16
-74.55
-68.39
-60.40
-51.47
-42.44
-33.96
-26.44
-20.08
-14.90
-10.79
-7.68
-5.41
-3.83
-2.74
-1.84
-0.82
0.63
2.74
5.46
8.53
11.48
13.83
15.20
15.48
14.82
13.57
12.06
10.43
8.54
6.09
2.77
-1.58
-6.79
-12.42
-17.90
-22.65
-26.23
-28.32
-28.77
-27.55
-24.79
-20.72
-15.72
-10.22
-4.63
0.64
5.30
9.12
11.96
13.79
14.70
14.94
14.80
14.56
14.42
14.48
14.78
15.37
16.25
17.33
18.45
19.31
19.62
19.21
18.11
16.51
14.58
12.35
9.68
6.39
2.41
-2.11
-6.84
-11.48
-15.90
-20.32
-25.10
-30.55
-36.68
-43.09
-48.96
-53.34
-55.39
-54.66
-51.19
-45.42
-38.08
-29.91
-21.50
-13.24
-5.37
1.96
8.64
14.60
19.77
24.16
27.77
30.63
32.77
34.24
35.16
35.75
36.25
36.86
37.62
38.43
39.08
39.36
39.08
38.19
36.70
34.62
31.97
28.73
24.95
20.72
16.22
11.68
7.29
3.18
-0.61
-4.16
-7.69
-11.51
-15.98
-21.42
-27.94
-35.30
-42.86
-49.69
-54.72
-57.07
-56.31
-52.50
-46.21
-38.27
-29.60
-20.97
-12.88
-5.52
1.12
7.23
12.94
18.30
23.17
27.28
30.38
32.35
33.33
33.69
33.91
34.32
35.07
36.00
36.80
37.17
36.93
36.12
34.85
33.29
31.49
29.40
26.94
24.15
21.20
18.36
15.85
13.71
11.70
9.46
6.66
3.24
-0.65
-4.66
-8.52
-12.17
-15.75
-19.55
-23.81
-28.66
-34.10
-39.98
-45.96
-51.49
-55.80
-58.07
-57.65
-54.31
-48.40
-40.69
-32.20
-23.79
-16.02
-9.02
-2.69
3.17
8.69
13.77
18.21
21.79
24.41
26.18
27.40
28.42
29.43
30.45
31.27
31.70
31.64
31.25
30.83
30.66
30.80
31.06
31.07
30.52
29.26
27.44
25.29
23.09
20.95
18.88
16.77
14.48
11.88
8.92
5.55
1.77
-2.31
-6.56
-10.78
-14.72
-18.22
-21.30
-24.21
-27.40
-31.29
-36.02
-41.27
-46.21
-49.71
-50.76
-48.79
-43.93
-36.84
-28.50
-19.82
-11.42
-3.58
3.63
10.14
15.79
20.35
23.60
25.51
26.29
26.39
26.28
26.34
26.66
27.10
27.43
27.49
27.34
27.20
27.37
27.95
28.84
29.68
30.06
29.67
28.43
26.48
24.14
21.72
19.47
17.47
15.65
13.89
12.05
9.97
7.52
4.58
1.10
-2.87
-7.12
-11.27
-14.96
-18.00
-20.55
-23.09
-26.29
-30.56
-35.85
-41.55
-46.67
-50.21
-51.48
-50.27
-46.84
-41.69
-35.37
-28.37
-21.08
-13.85
-7.01
-0.91
4.18
8.12
10.94
12.88
14.21
15.19
15.92
16.36
16.52
16.47
16.52
17.02
18.20
20.01
22.03
23.77
24.79
24.98
24.55
23.78
22.86
21.73
20.23
18.22
15.83
13.39
11.36
9.96
9.11
8.37
7.13
4.88
1.46
-2.87
-7.57
-11.96
-15.62
-18.47
-20.79
-23.12
-25.97
-29.66
-34.18
-39.17
-43.95
-47.72
-49.73
-49.47
-46.79
-41.92
-35.38
-27.84
-19.95
-12.30
-5.33
0.67
5.59
9.45
12.44
14.77
16.59
17.94
18.75
19.00
18.80
18.40
18.12
18.23
18.74
19.48
20.21
20.70
20.85
20.71
20.34
19.77
18.94
17.75
16.18
14.31
12.29
10.28
8.35
6.41
4.33
2.00
-0.60
-3.33
-6.01
-8.46
-10.62
-12.51
-14.27
-16.05
-18.06
-20.52
-23.56
-27.30
-31.59
-36.04
-39.96
-42.56
-43.15
-41.36
-37.32
-31.58
-24.97
-18.28
-12.13
-6.77
-2.21
1.70
5.11
8.04
10.43
12.17
13.32
14.08
14.75
15.59
16.69
18.03
19.50
21.01
22.54
24.12
25.65
26.89
27.55
27.39
26.37
24.71
22.82
21.16
20.01
19.51
19.49
19.65
19.64
19.21
18.30
17.06
15.79
14.76
14.12
13.74
13.24
11.95
9.11
3.94
-4.14
-15.31
-29.27
-45.03
-61.09
-75.64
-86.98
-93.91
-96.05
-93.89
-88.54
-81.34
-73.43
-65.54
-57.85
-50.23
-42.55
-34.76
-27.11
-19.90
-13.38
-7.66
-2.60
1.94
6.16
10.04
13.54
16.60
19.27
21.69
24.05
26.36
28.41
29.82
30.14
29.17
27.07
24.32
21.56
19.28
17.61
16.27
14.75
12.59
9.62
6.10
2.53
-0.61
-3.09
-5.05
-6.93
-9.11
-11.84
-15.11
-18.72
-22.49
-26.25
-29.81
-32.85
-34.81
-35.06
-33.14
-29.01
-23.15
-16.43
-9.77
-3.84
1.05
4.88
7.77
9.84
11.08
11.49
11.21
10.47
9.64
9.07
9.03
9.61
10.75
12.23
13.73
14.94
15.64
15.77
15.43
14.79
14.00
13.13
12.10
10.81
9.25
7.46
5.57
3.64
1.62
-0.62
-3.24
-6.29
-9.65
-13.08
-16.37
-19.42
-22.40
-25.58
-29.16
-33.04
-36.72
-39.38
-40.20
-38.65
-34.74
-28.98
-22.19
-15.21
-8.70
-3.01
1.66
5.26
7.82
9.51
10.58
11.37
12.16
13.06
14.03
14.90
15.61
16.23
16.95
17.94
19.15
20.41
21.36
21.78
21.60
20.94
20.05
19.06
18.06
16.97
15.76
14.47
13.17
11.93
10.75
9.51
8.08
6.39
4.44
2.35
0.20
-1.94
-4.13
-6.52
-9.27
-12.42
-15.75
-18.76
-20.77
-21.05
-19.09
-14.68
-8.03
0.38
9.89
19.86
29.72
38.94
47.08
53.76
58.82
62.38
64.88
66.97
69.26
72.07
75.22
78.10
79.75
79.14
75.40
67.96
56.74
42.06
24.62
5.26
-15.30
-36.68
-58.76
-81.56
-104.79
-127.74
-149.22
-167.94
-182.85
-193.32
-199.10
-200.19
-196.62
-188.69
-177.14
-163.55
-150.19
-139.58
-133.59
-132.66
-135.54
-139.54
-141.39
-138.26
-128.46
-111.61
-88.53
-60.69
-29.76
2.63
35.17
66.87
97.16
125.83
152.66
177.04
197.41
211.43
216.64
211.83
198.08
179.10
160.20
146.46
140.79
142.88
149.72
157.04
161.26
160.58
155.14
146.20
134.98
122.17
107.94
92.41
76.16
60.20
45.60
32.84
21.56
10.63
-1.18
-14.53
-29.06
-43.57
-56.61
-67.31
-75.83
-83.28
-91.05
-100.20
-110.79
-122.01
-132.56
-141.21
-147.13
-150.03
-149.94
-147.09
-141.88
-134.83
-126.70
-118.21
-109.80
-101.37
-92.34
-82.03
-70.08
-56.65
-42.33
-27.54
-12.24
4.25
22.78
43.65
66.16
88.57
108.50
123.79
133.06
135.94
132.92
125.01
113.36
99.17
83.72
68.36
54.47
43.11
34.81
29.35
25.72
22.58
18.70
13.39
6.76
-0.46
-7.34
-13.27
-18.21
-22.71
-27.56
-33.25
-39.65
-45.92
-50.87
-53.42
-53.08
-50.15
-45.57
-40.52
-36.03
-32.56
-30.09
-28.21
-26.43
-24.46
-22.22
-19.80
-17.34
-14.90
-12.43
-9.83
-7.03
-3.87
-0.22
4.07
9.10
14.71
20.45
25.59
29.28
30.86
30.09
27.25
23.01
18.20
13.46
9.07
5.00
1.01
-3.08
-7.24
-11.23
-14.73
-17.50
-19.53
-21.07
-22.49
-24.21
-26.57
-29.67
-33.30
-37.03
-40.13
-41.85
-41.53
-38.82
-33.84
-27.03
-19.19
-11.15
-3.69
2.66
7.63
11.24
13.68
15.24
16.23
16.92
17.49
18.06
18.66
19.33
20.07
20.93
21.87
22.86
23.73
24.32
24.45
24.06
23.17
21.78
19.84
17.14
13.53
8.98
3.78
-1.53
-6.40
-10.54
-14.15
-17.82
-22.18
-27.48
-33.29
-38.54
-41.89
-42.27
-39.37
-33.64
-26.17
-18.16
-10.52
-3.60
2.59
8.26
13.39
17.73
20.93
22.76
23.37
23.28
23.24
23.85
25.36
27.57
29.96
32.00
33.32
33.92
33.96
33.69
33.20
32.40
31.07
29.05
26.31
23.00
19.38
15.60
11.78
7.91
4.04
0.21
-3.58
-7.44
-11.70
-16.71
-22.67
-29.40
-36.22
-42.04
-45.78
-46.59
-44.21
-38.95
-31.56
-22.98
-14.09
-5.61
1.94
8.25
13.16
16.66
18.89
20.17
20.92
21.56
22.38
23.50
24.81
26.11
27.18
27.95
28.46
28.90
29.36
29.85
30.22
30.28
29.88
28.99
27.66
25.92
23.75
21.00
17.63
13.72
9.58
5.59
2.05
-1.02
-3.96
-7.25
-11.41
-16.73
-23.20
-30.51
-38.07
-45.09
-50.67
-53.95
-54.25
-51.28
-45.23
-36.70
-26.66
-16.13
-6.01
3.08
10.87
17.35
22.65
26.92
30.34
32.99
34.95
36.32
37.22
37.81
38.21
38.58
39.06
39.75
40.65
41.69
42.70
43.49
43.87
43.67
42.73
40.89
38.03
34.13
29.45
24.48
19.82
15.98
13.02
10.61
8.13
5.03
1.16
-3.20
-7.54
-11.40
-14.68
-17.64
-20.82
-24.70
-29.55
-35.26
-41.34
-47.02
-51.39
-53.63
-53.21
-49.93
-44.02
-36.12
-27.01
-17.58
-8.63
-0.76
5.72
10.77
14.55
17.33
19.32
20.72
21.62
22.17
22.60
23.18
24.14
25.56
27.35
29.21
30.85
32.01
32.50
32.26
31.28
29.67
27.56
25.20
22.83
20.61
18.59
16.61
14.46
11.92
8.84
5.27
1.39
-2.59
-6.48
-10.17
-13.77
-17.51
-21.77
-26.83
-32.68
-38.88
-44.51
-48.38
-49.47
-47.28
-41.95
-34.27
-25.32
-16.07
-7.30
0.54
7.19
12.49
16.42
19.06
20.70
21.71
22.50
23.34
24.35
25.48
26.60
27.57
28.29
28.81
29.19
29.54
29.92
30.27
30.43
30.13
29.14
27.38
24.88
21.86
18.62
15.37
12.26
9.29
6.39
3.46
0.41
-2.76
-6.03
-9.33
-12.59
-15.86
-19.22
-22.95
-27.29
-32.45
-38.32
-44.44
-50.01
-54.02
-55.61
-54.29
-50.19
-43.89
-36.22
-28.01
-19.87
-12.15
-5.05
1.28
6.67
10.97
14.15
16.43
18.17
19.80
21.59
23.59
25.64
27.52
29.10
30.41
31.60
32.81
34.10
35.29
36.16
36.48
36.11
35.06
33.48
31.54
29.39
27.11
24.66
21.98
18.98
15.63
11.98
8.12
4.20
0.23
-3.82
-7.97
-12.17
-16.22
-19.92
-23.12
-25.95
-28.81
-32.26
-36.74
-42.29
-48.34
-53.84
-57.58
-58.56
-56.41
-51.37
-44.23
-35.95
-27.37
-19.03
-11.23
-4.22
1.81
6.58
9.99
12.17
13.53
14.60
15.79
17.27
18.91
20.44
21.63
22.43
23.04
23.65
24.40
25.20
25.83
26.03
25.68
24.78
23.44
21.78
19.82
17.61
15.26
12.95
10.95
9.47
8.48
7.72
6.80
5.34
3.14
0.30
-2.90
-6.09
-8.99
-11.52
-13.88
-16.45
-19.74
-24.11
-29.61
-35.91
-42.19
-47.47
-50.78
-51.49
-49.48
-45.08
-38.90
-31.62
-23.95
-16.42
-9.55
-3.68
0.97
4.43
7.00
9.00
10.76
12.36
13.69
14.55
14.89
14.88
14.91
15.37
16.47
18.15
20.08
21.81
22.94
23.21
22.54
20.99
18.77
16.14
13.41
10.81
8.50
6.44
4.44
2.28
-0.30
-3.40
-6.97
-10.78
-14.52
-17.91
-20.85
-23.45
-26.06
-29.08
-32.79
-37.10
-41.48
-45.07
-46.90
-46.22
-42.81
-37.03
-29.71
-21.87
-14.38
-7.81
-2.31
2.15
5.71
8.41
10.31
11.49
12.18
12.72
13.35
14.23
15.26
16.32
17.32
18.34
19.51
20.86
22.28
23.42
23.93
23.60
22.47
20.78
18.79
16.68
14.45
12.06
9.51
6.88
4.29
1.88
-0.34
-2.41
-4.40
-6.38
-8.32
-10.15
-11.87
-13.57
-15.52
-18.09
-21.66
-26.35
-31.97
-37.96
-43.47
-47.58
-49.52
-48.89
-45.75
-40.51
-33.83
-26.44
-18.96
-11.87
-5.47
0.07
4.61
8.16
10.78
12.71
14.28
15.76
17.28
18.67
19.73
20.33
20.63
21.03
21.94
23.60
25.84
28.19
30.08
31.11
31.16
30.37
28.95
27.11
24.96
22.60
20.15
17.81
15.68
13.81
11.97
9.83
7.07
3.53
-0.69
-5.17
-9.37
-12.93
-15.77
-18.32
-21.27
-25.27
-30.62
-36.96
-43.34
-48.48
-51.19
-50.80
-47.28
-41.28
-33.78
-25.79
-18.09
-11.21
-5.37
-0.64
3.05
5.89
8.11
10.02
11.85
13.68
15.35
16.63
17.31
17.43
17.25
17.18
17.57
18.46
19.59
20.52
20.88
20.46
19.43
18.05
16.53
14.91
13.00
10.58
7.56
4.12
0.57
-2.77
-5.75
-8.44
-11.10
-14.03
-17.34
-21.03
-24.98
-28.98
-32.82
-36.29
-39.10
-40.87
-41.15
-39.54
-35.90
-30.48
-23.92
-17.04
-10.57
-4.96
-0.33
3.47
6.59
9.10
10.91
11.93
12.18
11.86
11.37
11.09
11.33
12.12
13.30
14.54
15.51
15.98
15.98
15.71
15.33
14.95
14.37
13.24
11.22
8.21
4.48
0.51
-3.18
-6.36
-9.17
-12.02
-15.36
-19.50
-24.46
-29.96
-35.48
-40.36
-43.89
-45.37
-44.38
-40.87
-35.18
-28.08
-20.49
-13.24
-6.88
-1.54
2.89
6.69
10.02
12.88
15.15
16.70
17.49
17.67
17.58
17.55
17.87
18.57
19.52
20.44
21.09
21.34
21.19
20.77
20.11
19.17
17.81
15.93
13.46
10.57
7.49
4.49
1.75
-0.76
-3.19
-5.73
-8.56
-11.72
-15.26
-19.24
-23.78
-28.98
-34.75
-40.67
-45.89
-49.41
-50.27
-48.02
-42.87
-35.69
-27.64
-19.80
-12.79
-6.75
-1.47
3.35
7.81
11.78
15.03
17.44
19.10
20.32
21.53
23.00
24.75
26.57
28.21
29.44
30.31
30.96
31.58
32.21
32.66
32.65
31.93
30.44
28.38
26.06
23.70
21.33
18.72
15.60
11.81
7.49
3.03
-1.11
-4.65
-7.66
-10.55
-13.92
-18.25
-23.77
-30.22
-37.01
-43.33
-48.27
-51.08
-51.24
-48.66
-43.64
-36.88
-29.19
-21.48
-14.45
-8.58
-4.06
-0.81
1.54
3.52
5.70
8.44
11.76
15.34
18.72
21.57
23.87
25.88
27.98
30.31
32.77
34.96
36.57
37.42
37.59
37.26
36.48
35.20
33.22
30.49
27.11
23.39
19.61
15.96
12.43
8.87
5.21
1.51
-1.99
-5.08
-7.73
-10.16
-12.84
-16.29
-20.90
-26.72
-33.34
-39.92
-45.31
-48.35
-48.26
-44.85
-38.62
-30.68
-22.29
-14.51
-7.96
-2.68
1.59
5.15
8.16
10.62
12.44
13.64
14.39
14.94
15.52
16.28
17.25
18.42
19.79
21.36
23.01
24.56
25.76
26.40
26.38
25.75
24.64
23.11
21.14
18.69
15.77
12.54
9.24
6.14
3.32
0.67
-2.10
-5.33
-9.25
-13.94
-19.30
-25.15
-31.24
-37.29
-42.90
-47.48
-50.30
-50.69
-48.32
-43.38
-36.61
-29.02
-21.54
-14.73
-8.76
-3.54
1.04
4.91
7.99
10.21
11.76
12.97
14.27
15.92
17.95
20.16
22.24
23.96
25.24
26.23
27.17
28.28
29.67
31.13
32.28
32.61
31.74
29.69
26.81
23.76
21.12
19.13
17.61
16.06
13.95
11.06
7.52
3.71
0.02
-3.43
-6.82
-10.51
-14.74
-19.66
-25.20
-31.23
-37.58
-43.94
-49.70
-53.95
-55.68
-54.09
-49.08
-41.35
-32.18
-23.02
-14.92
-8.22
-2.62
2.46
7.48
12.54
17.27
21.22
24.12
26.10
27.64
29.33
31.47
33.94
36.31
38.16
39.32
40.01
40.65
41.57
42.74
43.79
44.19
43.51
41.68
38.93
35.73
32.47
29.38
26.42
23.40
20.10
16.42
12.38
8.16
3.96
-0.11
-3.98
-7.73
-11.40
-15.01
-18.54
-22.01
-25.57
-29.53
-34.22
-39.74
-45.78
-51.56
-55.95
-57.89
-56.72
-52.43
-45.68
-37.47
-28.83
-20.52
-12.95
-6.25
-0.43
4.54
8.67
11.99
14.62
16.69
18.36
19.76
21.07
22.45
24.05
25.94
28.06
30.26
32.30
34.04
35.46
36.55
37.32
37.63
37.29
36.16
34.24
31.75
29.00
26.24
23.54
20.78
17.79
14.49
10.86
7.04
3.09
-0.96
-5.08
-9.25
-13.34
-17.22
-20.81
-24.20
-27.62
-31.39
-35.74
-40.69
-45.98
-51.04
-55.14
-57.53
-57.60
-54.99
-49.79
-42.46
-33.85
-24.97
-16.75
-9.87
-4.56
-0.61
2.49
5.30
8.10
10.90
13.35
15.17
16.22
16.75
17.21
18.01
19.29
20.88
22.43
23.68
24.62
25.35
26.00
26.49
26.50
25.69
23.94
21.46
18.68
16.09
13.92
12.08
10.23
7.96
5.03
1.39
-2.72
-7.03
-11.23
-15.15
-18.88
-22.65
-26.84
-31.72
-37.29
-43.15
-48.48
-52.31
-53.79
-52.51
-48.64
-42.79
-35.76
-28.24
-20.71
-13.40
-6.50
-0.23
5.13
9.39
12.59
15.01
17.09
19.11
21.22
23.23
24.90
26.08
26.83
27.40
28.08
29.01
30.11
31.10
31.62
31.36
30.22
28.23
25.62
22.67
19.71
17.02
14.78
13.04
11.61
10.17
8.27
5.61
2.12
-1.96
-6.16
-10.04
-13.28
-15.98
-18.57
-21.72
-26.08
-32.02
-39.32
-47.27
-54.66
-60.17
-62.71
-61.75
-57.37
-50.27
-41.46
-31.98
-22.71
-14.31
-7.09
-1.08
3.89
8.14
11.97
15.50
18.64
21.20
23.05
24.27
25.15
26.14
27.55
29.43
31.58
33.64
35.28
36.36
36.87
36.91
36.56
35.82
34.64
32.99
30.89
28.43
25.77
23.02
20.19
17.23
14.04
10.54
6.75
2.83
-1.02
-4.63
-7.98
-11.18
-14.39
-17.78
-21.41
-25.35
-29.69
-34.60
-40.20
-46.39
-52.65
-58.05
-61.45
-61.82
-58.73
-52.42
-43.85
-34.28
-24.92
-16.56
-9.54
-3.76
1.05
5.14
8.63
11.51
13.74
15.39
16.69
18.02
19.66
21.77
24.15
26.44
28.31
29.59
30.46
31.18
31.99
32.86
33.53
33.57
32.76
31.03
28.63
25.85
22.92
19.88
16.62
13.15
9.53
6.03
2.88
0.10
-2.54
-5.43
-8.85
-12.79
-16.91
-20.73
-24.02
-26.95
-30.15
-34.30
-39.69
-45.98
-52.14
-56.86
-58.95
-57.87
-53.74
-47.28
-39.45
-31.22
-23.23
-15.83
-9.14
-3.16
2.05
6.41
9.72
11.94
13.27
14.10
14.99
16.33
18.24
20.49
22.73
24.65
26.20
27.52
28.76
29.92
30.72
30.76
29.80
27.90
25.39
22.75
20.33
18.16
16.00
13.45
10.27
6.48
2.32
-1.80
-5.56
-8.86
-11.82
-14.70
-17.70
-21.08
-25.00
-29.65
-35.13
-41.29
-47.61
-53.16
-56.85
-57.75
-55.45
-50.14
-42.62
-33.90
-24.99
-16.62
-9.15
-2.68
2.85
7.57
11.56
14.92
17.73
20.10
22.18
24.11
25.96
27.72
29.26
30.44
31.28
31.91
32.58
33.45
34.50
35.45
35.96
35.72
34.67
32.93
30.74
28.33
25.82
23.22
20.54
17.75
14.84
11.74
8.37
4.64
0.50
-3.96
-8.51
-12.92
-16.98
-20.66
-24.22
-28.07
-32.68
-38.40
-45.10
-52.18
-58.58
-63.09
-64.76
-63.16
-58.54
-51.58
-43.18
-34.14
-25.10
-16.46
-8.55
-1.61
4.24
9.02
12.91
16.12
18.93
21.44
23.70
25.67
27.30
28.68
29.95
31.40
33.19
35.38
37.76
39.98
41.59
42.28
41.99
40.85
39.17
37.13
34.82
32.25
29.43
26.50
23.67
21.17
19.02
17.10
15.12
12.77
9.84
6.31
2.32
-1.87
-5.95
-9.72
-13.14
-16.29
-19.39
-22.70
-26.51
-31.06
-36.60
-43.12
-50.24
-57.19
-62.83
-66.01
-65.93
-62.45
-56.08
-47.82
-38.72
-29.67
-21.21
-13.62
-6.98
-1.27
3.65
7.95
11.84
15.46
18.85
21.95
24.63
26.81
28.49
29.79
30.91
32.06
33.45
35.10
36.87
38.45
39.49
39.71
39.01
37.44
35.19
32.41
29.28
25.91
22.47
19.12
16.07
13.45
11.24
9.23
7.13
4.64
1.59
-1.96
-5.81
-9.70
-13.41
-16.93
-20.32
-23.76
-27.38
-31.32
-35.73
-40.74
-46.37
-52.29
-57.77
-61.65
-62.79
-60.47
-54.66
-46.15
-36.21
-26.20
-17.12
-9.47
-3.22
1.91
6.29
10.12
13.46
16.25
18.47
20.23
21.74
23.27
24.96
26.67
28.20
29.34
30.15
30.87
31.88
33.33
34.96
36.20
36.40
35.18
32.64
29.27
25.76
22.63
20.04
17.78
15.51
12.90
9.84
6.41
2.81
-0.74
-4.09
-7.17
-9.98
-12.54
-14.94
-17.30
-19.88
-23.03
-27.15
-32.56
-39.30
-46.99
-54.79
-61.50
-65.87
-66.91
-64.24
-58.21
-49.76
-40.17
-30.57
-21.74
-13.91
-7.00
-0.73
5.06
10.37
15.07
19.05
22.29
24.89
27.05
28.92
30.64
32.31
34.03
35.92
37.97
40.09
41.97
43.25
43.74
43.44
42.58
41.44
40.22
38.85
37.12
34.81
31.76
28.07
23.99
19.85
15.90
12.28
8.93
5.64
2.23
-1.47
-5.43
-9.53
-13.57
-17.45
-21.17
-24.88
-28.84
-33.28
-38.40
-44.20
-50.51
-56.75
-62.06
-65.35
-65.64
-62.40
-55.82
-46.76
-36.49
-26.24
-16.93
-8.97
-2.36
3.08
7.59
11.30
14.28
16.58
18.36
19.86
21.40
23.28
25.57
28.11
30.51
32.41
33.61
34.25
34.64
35.07
35.58
35.93
35.69
34.54
32.49
29.80
26.94
24.28
21.98
19.97
18.00
15.83
13.27
10.26
6.84
3.14
-0.68
-4.47
-8.14
-11.68
-15.17
-18.84
-22.90
-27.59
-33.10
-39.46
-46.46
-53.51
-59.75
-64.12
-65.66
-63.84
-58.72
-50.89
-41.36
-31.24
-21.44
-12.59
-4.97
1.33
6.39
10.32
13.29
15.47
17.15
18.55
19.81
20.90
21.75
22.28
22.64
23.18
24.31
26.24
28.81
31.51
33.60
34.52
34.03
32.32
29.80
26.93
24.00
21.08
18.11
14.94
11.50
7.75
3.76
-0.32
-4.29
-8.01
-11.43
-14.65
-17.93
-21.62
-26.09
-31.58
-38.07
-45.20
-52.20
-58.04
-61.61
-62.13
-59.30
-53.50
-45.58
-36.59
-27.50
-18.92
-11.14
-4.20
1.93
7.27
11.70
15.13
17.55
19.11
20.15
21.11
22.40
24.23
26.55
29.10
31.56
33.69
35.37
36.63
37.48
37.84
37.62
36.67
34.97
32.61
29.80
26.74
23.60
20.39
17.14
13.76
10.20
6.43
2.44
-1.68
-5.84
-9.86
-13.65
-17.21
-20.69
-24.41
-28.78
-34.19
-40.75
-48.14
-55.53
-61.67
-65.27
-65.39
-61.82
-55.04
-46.10
-36.14
-26.18
-16.92
-8.75
-1.85
3.79
8.32
12.05
15.34
18.48
21.59
24.59
27.29
29.51
31.19
32.42
33.46
34.54
35.84
37.35
38.83
39.91
40.21
39.50
37.81
35.35
32.46
29.43
26.43
23.57
20.81
18.14
15.48
12.71
9.65
6.16
2.14
-2.30
-6.94
-11.45
-15.51
-19.03
-22.15
-25.30
-29.02
-33.77
-39.66
-46.23
-52.55
-57.40
-59.72
-58.98
-55.27
-49.23
-41.74
-33.62
-25.50
-17.78
-10.72
-4.53
0.69
4.94
8.38
11.20
13.57
15.53
17.04
18.11
18.84
19.52
20.53
22.16
24.51
27.43
30.51
33.21
34.99
35.50
34.66
32.68
29.94
26.82
23.50
19.94
15.97
11.48
6.63
1.81
-2.47
-5.90
-8.57
-10.99
-13.79
-17.54
-22.41
-28.26
-34.74
-41.35
-47.57
-52.70
-55.93
-56.40
-53.60
-47.56
-38.98
-29.05
-19.03
-9.84
-1.88
4.90
10.72
15.73
19.89
23.02
25.01
25.92
26.03
25.80
25.75
26.20
27.27
28.83
30.58
32.25
33.63
34.65
35.30
35.47
35.00
33.72
31.61
28.86
25.91
23.14
20.67
18.24
15.34
11.50
6.56
0.80
-5.20
-10.82
-15.73
-19.99
-24.00
-28.36
-33.58
-39.95
-47.31
-55.11
-62.40
-68.06
-71.00
-70.44
-66.15
-58.50
-48.41
-37.14
-25.95
-15.81
-7.22
-0.12
5.84
11.11
15.94
20.35
24.22
27.38
29.90
31.99
33.92
35.90
37.91
39.83
41.49
42.76
43.67
44.31
44.72
44.82
44.40
43.24
41.18
38.23
34.63
30.75
27.01
23.67
20.76
18.05
15.13
11.61
7.33
2.38
-2.85
-7.94
-12.60
-16.83
-20.93
-25.38
-30.61
-36.83
-43.92
-51.38
-58.47
-64.29
-67.96
-68.73
-66.21
-60.37
-51.70
-41.15
-29.87
-18.98
-9.28
-0.99
6.10
12.46
18.39
23.85
28.50
31.96
34.09
35.23
35.99
36.93
38.35
40.10
41.77
43.07
43.93
44.60
45.42
46.51
47.64
48.33
48.05
46.50
43.76
40.21
36.34
32.59
29.18
26.07
23.05
19.89
16.43
12.67
8.67
4.59
0.42
-3.85
-8.29
-12.90
-17.57
-22.19
-26.74
-31.44
-36.71
-42.96
-50.26
-58.07
-65.31
-70.56
-72.58
-70.74
-65.27
-57.15
-47.67
-37.99
-28.80
-20.32
-12.47
-5.18
1.44
7.10
11.62
15.03
17.69
20.06
22.43
24.78
26.81
28.19
28.86
29.13
29.55
30.58
32.29
34.30
35.91
36.50
35.76
33.85
31.22
28.35
25.53
22.81
20.11
17.32
14.38
11.26
7.90
4.23
0.20
-4.11
-8.49
-12.68
-16.57
-20.29
-24.28
-29.07
-34.96
-41.81
-48.97
-55.28
-59.50
-60.67
-58.38
-52.92
-45.08
-35.84
-26.11
-16.56
-7.55
0.67
7.88
13.85
18.34
21.34
23.08
24.01
24.64
25.35
26.27
27.36
28.46
29.59
30.83
32.35
34.16
36.03
37.44
37.83
36.88
34.65
31.65
28.49
25.68
23.28
21.01
18.36
14.94
10.67
5.79
0.65
-4.39
-9.15
-13.60
-17.79
-21.80
-25.73
-29.83
-34.45
-39.90
-46.16
-52.73
-58.54
-62.31
-62.99
-60.11
-54.04
-45.73
-36.37
-26.99
-18.22
-10.28
-3.22
3.02
8.44
13.04
16.90
20.17
23.04
25.60
27.90
29.82
31.29
32.30
32.98
33.58
34.33
35.37
36.65
37.88
38.68
38.67
37.63
35.61
32.91
29.90
26.85
23.87
20.80
17.44
13.64
9.50
5.31
1.40
-2.01
-5.02
-7.99
-11.47
-15.86
-21.35
-27.73
-34.71
-41.90
-48.98
-55.57
-61.05
-64.56
-65.12
-62.07
-55.38
-45.86
-34.92
-24.05
-14.33
-6.10
0.85
7.01
12.61
17.57
21.53
24.19
25.63
26.28
26.79
27.63
28.90
30.34
31.59
32.47
33.06
33.69
34.59
35.76
36.85
37.33
36.76
35.02
32.33
29.13
25.84
22.71
19.71
16.73
13.62
10.32
6.85
3.29
-0.34
-4.06
-7.88
-11.73
-15.48
-19.07
-22.56
-26.31
-30.76
-36.25
-42.63
-49.15
-54.60
-57.65
-57.43
-53.81
-47.46
-39.52
-31.12
-23.04
-15.61
-8.89
-2.85
2.39
6.74
10.13
12.69
14.65
16.23
17.55
18.56
19.22
19.58
19.84
20.32
21.28
22.77
24.56
26.24
27.33
27.52
26.71
25.04
22.85
20.52
18.27
16.10
13.78
11.02
7.58
3.49
-0.98
-5.44
-9.61
-13.41
-17.00
-20.70
-24.81
-29.44
-34.51
-39.84
-45.08
-49.84
-53.55
-55.51
-55.08
-51.82
-45.79
-37.55
-28.12
-18.60
-9.92
-2.57
3.43
8.28
12.30
15.65
18.31
20.24
21.41
21.95
22.12
22.21
22.47
23.07
24.02
25.23
26.56
27.84
28.92
29.59
29.70
29.09
27.70
25.58
22.92
19.99
17.08
14.34
11.75
9.13
6.25
2.95
-0.76
-4.73
-8.76
-12.70
-16.46
-20.11
-23.80
-27.79
-32.31
-37.54
-43.47
-49.75
-55.72
-60.47
-63.04
-62.68
-59.08
-52.52
-43.75
-33.88
-24.04
-15.13
-7.55
-1.27
4.10
8.99
13.62
17.88
21.43
23.95
25.37
25.97
26.29
26.86
28.01
29.65
31.45
33.01
34.08
34.60
34.68
34.43
33.80
32.63
30.83
28.40
25.60
22.74
20.09
17.72
15.51
13.31
11.01
8.68
6.44
4.40
2.51
0.59
-1.63
-4.39
-7.74
-11.59
-15.67
-19.67
-23.35
-26.70
-29.90
-33.40
-37.69
-43.08
-49.44
-56.13
-62.13
-66.27
-67.67
-65.94
-61.24
-54.18
-45.54
-36.18
-26.78
-17.94
-10.07
-3.42
1.99
6.35
10.02
13.40
16.69
19.88
22.76
25.11
26.82
28.00
28.95
30.02
31.45
33.24
35.20
36.97
38.22
38.75
38.49
37.54
36.08
34.32
32.40
30.47
28.58
26.70
24.72
22.40
19.58
16.18
12.34
8.47
4.97
2.14
-0.11
-2.13
-4.42
-7.30
-10.73
-14.36
-17.76
-20.74
-23.49
-26.57
-30.64
-36.09
-42.80
-50.12
-57.06
-62.54
-65.70
-66.10
-63.67
-58.71
-51.75
-43.45
-34.55
-25.82
-17.87
-11.09
-5.50
-0.85
3.22
7.00
10.48
13.49
15.80
17.40
18.51
19.55
20.89
22.67
24.77
26.91
28.80
30.28
31.33
31.99
32.29
32.25
31.76
30.72
29.05
26.78
24.02
20.97
17.89
14.87
11.89
8.79
5.34
1.46
-2.74
-6.96
-10.84
-14.12
-16.78
-19.01
-21.15
-23.54
-26.54
-30.40
-35.26
-41.05
-47.34
-53.33
-57.96
-60.11
-59.05
-54.63
-47.43
-38.46
-28.91
-19.73
-11.51
-4.43
1.60
6.63
10.77
13.97
16.28
17.82
18.92
19.94
21.19
22.79
24.57
26.20
27.43
28.22
28.74
29.35
30.29
31.56
32.86
33.70
33.67
32.54
30.37
27.45
24.16
20.85
17.78
15.04
12.56
10.18
7.67
4.79
1.40
-2.57
-7.07
-11.95
-16.97
-21.86
-26.37
-30.42
-34.18
-38.09
-42.73
-48.47
-55.23
-62.28
-68.38
-72.15
-72.55
-69.26
-62.72
-53.95
-44.09
-34.14
-24.78
-16.31
-8.92
-2.66
2.47
6.57
9.85
12.58
15.02
17.30
19.44
21.33
22.94
24.24
25.41
26.67
28.17
29.95
31.86
33.60
34.90
35.51
35.36
34.52
33.06
31.07
28.62
25.85
22.97
20.23
17.84
15.78
13.75
11.33
8.21
4.33
-0.04
-4.44
-8.48
-12.02
-15.28
-18.68
-22.71
-27.69
-33.65
-40.44
-47.65
-54.73
-60.97
-65.57
-67.69
-66.76
-62.58
-55.53
-46.48
-36.50
-26.66
-17.71
-9.93
-3.19
2.79
8.27
13.28
17.69
21.28
23.99
25.95
27.50
29.06
30.89
33.00
35.21
37.24
38.87
40.01
40.74
41.14
41.24
40.99
40.29
39.08
37.32
35.07
32.45
29.61
26.73
23.93
21.29
18.75
16.16
13.27
9.91
6.03
1.84
-2.36
-6.21
-9.57
-12.46
-15.16
-18.04
-21.47
-25.79
-31.24
-37.93
-45.56
-53.43
-60.41
-65.23
-66.87
-64.98
-59.88
-52.44
-43.68
-34.45
-25.28
-16.55
-8.57
-1.63
4.02
8.40
11.78
14.65
17.41
20.27
23.09
25.60
27.52
28.78
29.60
30.40
31.60
33.35
35.50
37.60
39.11
39.66
39.16
37.82
35.95
33.77
31.35
28.63
25.56
22.19
18.67
15.17
11.78
8.41
4.94
1.27
-2.50
-6.12
-9.39
-12.24
-14.86
-17.68
-21.23
-25.90
-31.89
-38.98
-46.59
-53.77
-59.44
-62.58
-62.55
-59.21
-53.01
-44.78
-35.52
-26.08
-17.11
-8.90
-1.62
4.73
10.16
14.72
18.49
21.55
24.01
26.00
27.69
29.29
30.99
32.90
35.00
37.19
39.28
41.14
42.68
43.89
44.82
45.47
45.77
45.57
44.65
42.81
39.96
36.20
31.82
27.27
22.99
19.30
16.28
13.76
11.44
8.98
6.16
2.87
-0.95
-5.24
-9.87
-14.67
-19.40
-23.89
-28.12
-32.38
-37.15
-42.95
-50.03
-58.09
-66.21
-72.97
-76.94
-77.11
-73.25
-65.91
-56.25
-45.53
-34.82
-24.78
-15.64
-7.42
-0.10
6.39
12.08
17.02
21.32
25.07
28.33
31.15
33.58
35.73
37.74
39.77
41.90
44.14
46.34
48.26
49.69
50.45
50.49
49.85
48.68
47.10
45.19
42.88
40.08
36.70
32.79
28.63
24.51
20.74
17.41
14.41
11.41
8.09
4.22
-0.19
-4.95
-9.77
-14.37
-18.62
-22.50
-26.17
-29.93
-34.11
-39.06
-44.96
-51.75
-58.97
-65.72
-70.80
-73.00
-71.49
-66.10
-57.47
-46.80
-35.53
-24.86
-15.46
-7.49
-0.74
5.05
10.09
14.40
18.07
21.17
23.87
26.33
28.63
30.73
32.49
33.90
35.04
36.20
37.63
39.44
41.47
43.29
44.42
44.56
43.69
42.02
39.87
37.45
34.83
32.00
28.97
25.84
22.67
19.48
16.13
12.48
8.47
4.17
-0.15
-4.22
-7.85
-11.07
-14.09
-17.21
-20.72
-24.78
-29.50
-34.94
-41.08
-47.79
-54.70
-61.15
-66.28
-69.11
-68.84
-65.13
-58.21
-48.87
-38.28
-27.62
-17.87
-9.55
-2.77
2.74
7.35
11.40
15.03
18.13
20.54
22.18
23.22
24.12
25.37
27.30
29.86
32.68
35.27
37.25
38.60
39.53
40.32
41.03
41.42
41.09
39.67
37.12
33.76
30.12
26.74
23.87
21.40
18.98
16.23
12.92
9.10
4.97
0.74
-3.51
-7.84
-12.41
-17.25
-22.32
-27.54
-32.86
-38.41
-44.46
-51.19
-58.49
-65.75
-71.93
-75.81
-76.37
-73.21
-66.61
-57.46
-46.95
-36.17
-25.91
-16.59
-8.28
-0.93
5.56
11.18
15.96
19.96
23.26
26.04
28.42
30.47
32.22
33.65
34.80
35.80
36.87
38.19
39.82
41.56
43.08
43.99
44.08
43.40
42.12
40.45
38.44
36.03
33.09
29.65
25.91
22.14
18.63
15.43
12.51
9.67
6.76
3.63
0.22
-3.52
-7.61
-12.02
-16.75
-21.67
-26.76
-32.10
-37.80
-44.03
-50.81
-57.89
-64.64
-70.17
-73.50
-73.83
-70.76
-64.46
-55.63
-45.31
-34.60
-24.41
-15.20
-7.03
0.28
6.96
13.08
18.51
23.10
26.77
29.63
32.00
34.17
36.32
38.37
40.13
41.48
42.47
43.31
44.23
45.23
46.04
46.32
45.73
44.31
42.36
40.30
38.47
36.90
35.34
33.45
30.99
27.94
24.50
20.91
17.39
13.97
10.58
7.09
3.45
-0.32
-4.13
-7.90
-11.56
-15.18
-18.86
-22.81
-27.25
-32.41
-38.43
-45.30
-52.76
-60.21
-66.80
-71.54
-73.53
-72.24
-67.62
-60.12
-50.64
-40.26
-30.05
-20.87
-13.19
-7.09
-2.30
1.63
5.12
8.42
11.56
14.42
16.89
18.98
20.85
22.68
24.64
26.72
28.80
30.73
32.40
33.74
34.67
35.03
34.58
33.15
30.74
27.60
24.25
21.19
18.70
16.68
14.64
12.02
8.43
3.92
-1.03
-5.70
-9.50
-12.19
-14.08
-15.84
-18.31
-22.20
-27.79
-34.86
-42.69
-50.20
-56.16
-59.53
-59.56
-56.11
-49.57
-40.77
-30.84
-20.84
-11.69
-3.91
2.39
7.39
11.44
14.86
17.82
20.35
22.41
24.00
25.29
26.55
27.99
29.64
31.37
32.97
34.29
35.38
36.35
37.32
38.18
38.56
38.03
36.30
33.36
29.55
25.36
21.22
17.29
13.41
9.34
4.84
-0.04
-4.98
-9.52
-13.29
-16.23
-18.61
-20.90
-23.59
-27.05
-31.41
-36.68
-42.74
-49.36
-56.05
-61.99
-66.15
-67.53
-65.56
-60.26
-52.36
-42.94
-33.15
-23.83
-15.38
-7.82
-0.98
5.26
10.90
15.73
19.56
22.33
24.21
25.57
26.83
28.40
30.40
32.77
35.25
37.58
39.53
40.97
41.86
42.15
41.88
41.02
39.62
37.72
35.41
32.85
30.17
27.54
25.05
22.71
20.41
18.02
15.40
12.47
9.20
5.59
1.66
-2.57
-7.01
-11.52
-15.92
-20.10
-24.14
-28.35
-33.27
-39.36
-46.73
-54.91
-62.81
-69.06
-72.41
-72.15
-68.31
-61.56
-52.89
-43.27
-33.48
-24.04
-15.35
-7.65
-1.07
4.44
9.13
13.29
17.16
20.78
24.02
26.61
28.45
29.61
30.46
31.45
32.91
34.91
37.14
39.11
40.34
40.61
40.03
38.94
37.69
36.43
35.08
33.34
30.97
27.95
24.53
21.10
17.98
15.26
12.65
9.73
6.17
1.93
-2.61
-6.91
-10.52
-13.38
-15.86
-18.62
-22.20
-26.90
-32.65
-39.13
-45.93
-52.59
-58.56
-63.08
-65.26
-64.29
-59.86
-52.32
-42.69
-32.32
-22.47
-13.92
-6.91
-1.21
3.60
7.88
11.79
15.33
18.37
20.83
22.72
24.16
25.35
26.47
27.62
28.81
30.01
31.15
32.24
33.25
34.15
34.84
35.08
34.67
33.42
31.31
28.48
25.23
21.89
18.74
15.91
13.34
10.82
8.11
5.04
1.51
-2.39
-6.48
-10.56
-14.42
-17.96
-21.22
-24.46
-28.07
-32.48
-37.97
-44.55
-51.77
-58.74
-64.31
-67.27
-66.80
-62.65
-55.34
-45.95
-35.82
-26.11
-17.53
-10.20
-3.87
1.87
7.24
12.26
16.75
20.56
23.66
26.14
28.12
29.70
30.91
31.82
32.60
33.57
35.01
37.06
39.49
41.79
43.30
43.57
42.53
40.55
38.25
36.10
34.28
32.60
30.68
28.26
25.32
22.12
18.94
15.94
13.01
9.88
6.32
2.35
-1.81
-5.85
-9.62
-13.22
-16.97
-21.15
-25.77
-30.62
-35.38
-39.92
-44.47
-49.44
-55.17
-61.44
-67.39
-71.64
-72.75
-69.92
-63.25
-53.79
-43.07
-32.58
-23.25
-15.34
-8.61
-2.61
2.94
8.08
12.66
16.57
19.87
22.84
25.79
28.90
32.09
35.10
37.62
39.56
41.04
42.36
43.79
45.34
46.74
47.54
47.35
46.11
44.06
41.64
39.27
37.12
35.11
33.02
30.65
27.93
24.94
21.90
18.96
16.16
13.44
10.71
7.94
5.16
2.44
-0.22
-2.94
-5.90
-9.25
-13.00
-17.01
-21.06
-24.98
-28.78
-32.70
-37.15
-42.53
-48.98
-56.26
-63.63
-70.00
-74.19
-75.25
-72.76
-66.94
-58.58
-48.74
-38.45
-28.51
-19.41
-11.34
-4.32
1.72
6.92
11.34
15.09
18.18
20.65
22.49
23.79
24.65
25.26
25.89
26.79
28.17
30.08
32.35
34.62
36.45
37.47
37.55
36.80
35.50
33.92
32.10
29.97
27.36
24.23
20.70
17.04
13.56
10.40
7.53
4.70
1.67
-1.71
-5.38
-9.15
-12.71
-15.82
-18.41
-20.54
-22.46
-24.52
-27.10
-30.57
-35.21
-41.05
-47.74
-54.52
-60.31
-63.93
-64.50
-61.69
-55.79
-47.62
-38.19
-28.43
-19.07
-10.51
-3.03
3.23
8.23
12.05
14.90
17.08
18.93
20.69
22.47
24.21
25.75
26.98
27.87
28.55
29.23
30.15
31.36
32.75
34.03
34.89
35.11
34.60
33.37
31.44
28.85
25.64
22.00
18.25
14.73
11.69
9.07
6.56
3.66
0.06
-4.33
-9.24
-14.23
-18.88
-22.96
-26.58
-30.00
-33.63
-37.76
-42.61
-48.20
-54.40
-60.84
-66.88
-71.64
-74.13
-73.54
-69.47
-62.17
-52.48
-41.59
-30.75
-20.83
-12.23
-4.89
1.53
7.34
12.68
17.44
21.42
24.39
26.32
27.34
27.77
28.00
28.37
29.14
30.37
32.04
34.03
36.15
38.21
39.98
41.26
41.84
41.54
40.27
38.06
35.12
31.72
28.20
24.76
21.47
18.30
15.21
12.16
9.19
6.29
3.36
0.19
-3.43
-7.64
-12.34
-17.20
-21.76
-25.67
-28.92
-31.93
-35.36
-39.93
-45.95
-53.22
-60.84
-67.54
-72.03
-73.35
-71.13
-65.57
-57.43
-47.68
-37.28
-27.12
-17.81
-9.71
-2.91
2.72
7.45
11.60
15.35
18.82
21.99
24.80
27.26
29.48
31.59
33.71
35.87
37.98
39.93
41.56
42.77
43.45
43.56
43.03
41.82
40.01
37.70
35.11
32.43
29.79
27.24
24.72
22.14
19.35
16.23
12.73
8.89
4.84
0.76
-3.14
-6.81
-10.22
-13.50
-16.74
-20.02
-23.42
-27.04
-31.15
-36.01
-41.84
-48.52
-55.39
-61.36
-65.14
-65.71
-62.65
