1555356730.00
64.000000
-0.00
-0.00
-0.00
-0.00
-0.00
-0.00
-0.00
-0.00
-0.00
-0.00
0.00
0.01
0.01
-0.00
-0.03
-0.05
-0.05
0.00
0.13
0.36
0.66
1.01
1.37
1.72
2.06
2.40
2.79
3.24
3.80
4.42
5.06
5.66
6.20
6.68
7.15
7.68
8.31
9.14
10.09
11.04
11.88
12.56
13.14
13.76
14.65
15.96
17.91
20.32
22.90
25.38
27.58
29.57
31.68
34.32
37.81
42.54
48.15
54.10
59.83
64.97
69.58
74.14
79.34
85.71
93.76
103.00
112.62
121.73
129.77
136.75
143.30
150.74
157.77
166.64
177.94
191.79
206.97
220.58
228.27
225.41
208.61
177.00
132.95
80.31
23.42
-34.49
-91.86
-148.46
-204.39
-259.39
-312.62
-362.61
-408.43
-449.38
-484.86
-513.99
-535.39
-547.30
-547.97
-536.30
-512.06
-476.44
-431.53
-379.96
-324.35
-266.95
-209.47
-153.17
-99.09
-48.08
-1.12
40.91
77.37
107.97
132.86
152.55
167.74
179.14
187.36
192.80
195.75
196.44
195.12
192.13
187.88
182.77
177.14
171.22
165.16
159.03
152.89
146.79
140.78
134.91
129.24
123.75
118.34
112.88
107.15
100.83
93.58
84.98
74.68
62.38
47.85
30.96
11.85
-9.13
-31.47
-54.51
-77.46
-99.42
-119.42
-136.47
-149.68
-158.13
-161.09
-158.11
-149.18
-134.69
-115.49
-92.82
-67.55
-41.55
-16.56
6.01
25.18
40.42
51.64
59.09
63.34
65.06
64.85
63.35
61.06
58.31
55.27
52.07
48.81
45.61
42.60
39.85
37.35
35.02
32.74
30.33
27.74
25.03
22.41
20.11
18.29
16.91
15.77
14.48
12.68
10.23
7.35
4.58
2.54
1.64
1.82
2.48
2.72
1.68
-0.93
-4.66
-8.37
-10.77
-11.00
-9.13
-6.22
-3.97
-3.93
-6.73
-11.63
-16.81
-20.21
-20.44
-17.46
-12.65
-8.15
-5.87
-7.05
-11.98
-19.97
-29.33
-36.86
-38.14
-28.70
-6.20
27.16
64.51
96.47
114.91
116.32
103.10
82.02
60.82
44.90
35.54
30.46
25.94
18.96
8.58
-4.07
-16.70
-27.11
-34.06
-37.81
-39.72
-41.25
-43.14
-44.84
-44.81
-41.85
-36.04
-29.00
-23.22
-20.83
-22.74
-28.34
-35.70
-42.64
-47.50
-49.83
-50.29
-50.23
-51.01
-53.28
-56.88
-61.17
-65.69
-70.25
-74.38
-76.56
-73.96
-63.29
-42.59
-12.90
21.41
53.97
78.97
93.55
98.49
97.18
93.42
89.63
86.30
82.84
78.71
74.29
70.62
68.50
67.80
67.50
66.05
62.08
55.33
46.00
35.30
24.62
15.14
7.46
1.66
-2.63
-5.85
-8.22
-9.70
-9.96
-8.62
-5.46
-0.52
5.84
12.78
19.20
23.99
26.18
25.45
22.06
17.00
11.26
6.71
4.30
4.02
5.02
5.89
5.71
4.06
1.63
-0.32
-0.53
1.69
6.50
13.65
22.40
31.33
37.69
37.93
28.90
9.61
-17.68
-47.66
-73.85
-91.57
-98.67
-96.33
-87.50
-75.22
-61.52
-47.27
-33.13
-19.83
-9.28
-2.90
-1.60
-5.52
-13.78
-24.85
-35.98
-43.39
-43.11
-32.64
-11.84
14.68
41.03
62.10
76.00
84.15
88.85
90.50
86.28
72.20
46.48
12.50
-22.01
-48.57
-62.49
-65.44
-63.75
-64.58
-71.59
-83.36
-94.83
-101.15
-100.46
-94.42
-86.88
-80.12
-74.41
-68.13
-59.30
-46.82
-31.49
-15.41
-0.72
10.22
17.05
20.72
23.03
25.69
29.57
34.19
38.08
39.61
37.77
32.98
26.79
21.31
18.15
17.94
19.94
22.54
24.13
23.47
20.03
13.68
4.82
-5.19
-13.61
-16.71
-11.15
4.20
26.92
51.57
71.58
81.97
81.33
71.96
58.14
43.54
30.76
19.96
10.37
1.61
-5.71
-10.49
-12.08
-10.91
-8.43
-6.28
-5.82
-7.26
-9.81
-12.15
-13.16
-12.33
-10.06
-7.32
-5.15
-4.32
-4.90
-6.30
-7.66
-8.25
-7.73
-6.34
-4.63
-3.21
-2.53
-2.61
-3.17
-3.76
-4.00
-3.73
-3.06
-2.23
-1.51
-1.10
-1.01
-1.14
-1.31
-1.38
-1.29
-1.06
-0.78
-0.49
-0.26
-0.11
-0.01
0.05
0.10
0.15
0.19
0.22
0.24
0.26
0.28
0.29
0.29
0.27
0.25
0.24
0.27
0.36
0.51
0.72
0.95
1.16
1.31
1.42
1.50
1.60
1.76
2.00
2.27
2.53
2.73
2.83
2.84
2.83
2.87
3.05
3.37
3.79
4.23
4.55
4.70
4.70
4.69
4.88
5.43
6.41
7.69
9.01
10.06
10.65
10.85
10.98
11.47
12.70
14.77
17.42
20.10
22.25
23.52
24.00
24.23
24.93
26.69
29.64
33.38
37.13
40.17
42.08
42.97
43.32
43.72
44.65
46.52
49.83
55.02
61.97
69.18
73.52
70.98
58.24
34.48
2.27
-33.24
-66.45
-93.62
-114.14
-129.91
-143.52
-156.29
-167.61
-175.66
-178.93
-177.44
-172.26
-164.45
-154.01
-139.81
-120.52
-96.11
-68.74
-42.29
-20.78
-6.45
1.17
4.99
8.83
15.65
26.25
39.20
51.65
60.84
65.23
65.02
61.74
57.43
53.68
51.14
49.59
48.44
47.35
46.40
45.85
45.73
45.62
44.76
42.58
39.13
35.27
32.24
31.16
32.36
35.15
38.16
39.87
39.26
36.18
31.32
25.81
20.69
16.45
12.92
9.45
5.32
0.16
-5.79
-11.72
-16.54
-19.30
-19.66
-18.01
-15.33
-12.83
-11.42
-11.39
-12.45
-13.98
-15.31
-16.08
-16.24
-15.91
-15.29
-14.66
-14.44
-15.26
-17.77
-22.36
-28.80
-36.04
-42.41
-46.05
-45.60
-40.61
-31.87
-21.16
-10.77
-2.83
1.26
1.14
-2.48
-8.09
-13.83
-17.94
-19.13
-16.81
-11.12
-2.70
7.44
18.07
27.94
35.85
40.98
43.04
42.49
40.34
37.77
35.68
34.32
33.53
33.07
33.14
34.39
37.63
43.08
49.91
56.21
59.53
57.88
50.46
38.14
23.13
8.36
-3.40
-10.28
-11.79
-8.78
-2.99
3.67
9.78
14.67
18.11
19.82
19.14
15.29
8.04
-1.57
-11.26
-18.46
-21.75
-21.93
-21.80
-24.66
-32.24
-43.45
-54.73
-61.93
-62.61
-57.37
-49.32
-42.16
-37.87
-35.72
-33.07
-27.44
-18.68
-9.65
-5.11
-9.09
-22.46
-41.96
-61.34
-74.07
-76.30
-68.41
-54.56
-40.35
-29.97
-24.34
-21.18
-16.86
-8.86
2.61
14.79
24.10
28.37
28.07
25.86
24.73
26.04
28.65
29.79
27.04
20.23
11.91
6.01
5.63
11.12
19.69
26.78
28.51
23.70
14.45
4.82
-1.42
-2.91
-1.20
0.36
-1.14
-6.40
-13.48
-19.02
-20.26
-16.69
-10.33
-4.53
-1.96
-3.09
-5.97
-7.39
-4.72
2.69
13.17
23.69
31.43
35.04
35.04
33.24
31.62
31.39
32.65
34.71
36.75
38.33
39.46
40.35
41.02
41.38
41.51
42.08
44.62
50.97
62.69
80.01
101.18
122.47
138.99
145.83
139.63
119.96
90.30
57.45
29.75
14.18
13.39
24.63
40.75
52.98
54.28
41.69
17.01
-14.45
-45.97
-71.75
-88.42
-95.54
-95.27
-91.34
-87.66
-87.03
-90.22
-95.81
-100.98
-103.07
-100.65
-93.84
-83.75
-71.50
-57.95
-43.85
-30.71
-21.19
-18.30
-23.90
-37.10
-53.61
-67.36
-73.27
-70.00
-61.06
-53.44
-54.53
-68.67
-95.26
-128.96
-161.84
-186.22
-197.02
-192.90
-176.02
-150.49
-120.56
-89.07
-56.86
-23.42
11.87
48.30
83.31
113.21
134.70
146.30
149.25
146.86
143.00
140.54
140.47
142.20
144.88
148.76
155.50
167.25
184.93
206.74
228.27
243.98
249.67
244.31
230.51
213.02
196.53
183.53
173.44
163.19
148.50
125.10
89.59
39.94
-23.62
-97.55
-174.52
-244.16
-295.40
-319.82
-314.40
-282.60
-232.98
-176.22
-121.82
-76.01
-41.31
-17.45
-2.63
5.43
9.02
10.31
11.15
12.84
15.98
20.47
25.65
30.25
32.68
31.20
24.37
11.53
-6.87
-29.20
-53.07
-76.01
-96.13
-112.20
-123.47
-129.24
-128.65
-120.87
-105.62
-83.71
-57.20
-29.10
-2.56
19.82
36.56
47.46
53.34
55.56
55.51
54.12
51.65
47.73
41.67
32.95
21.55
8.22
-5.79
-19.06
-30.31
-38.72
-43.83
-45.44
-43.52
-38.26
-30.17
-20.12
-9.29
1.15
10.33
17.80
23.55
27.73
30.38
31.36
30.40
27.37
22.46
16.18
9.28
2.45
-3.81
-9.25
-13.79
-17.43
-20.12
-21.82
-22.52
-22.25
-21.05
-18.97
-15.97
-12.07
-7.45
-2.52
2.08
5.64
7.70
8.14
7.22
5.40
3.08
0.50
-2.25
-5.08
-7.89
-10.52
-12.80
-14.62
-15.79
-16.07
-15.14
-12.82
-9.21
-4.84
-0.49
3.05
5.22
5.93
5.36
3.93
1.94
-0.44
-3.14
-6.11
-9.27
-12.47
-15.64
-18.82
-22.08
-25.37
-28.37
-30.45
-30.92
-29.32
-25.81
-21.22
-16.81
-13.82
-12.95
-14.17
-16.81
-20.03
-23.14
-25.97
-28.87
-32.51
-37.44
-43.77
-51.04
-58.55
-65.79
-72.73
-79.78
-87.30
-94.93
-101.31
-104.47
-102.74
-95.78
-84.93
-72.37
-59.79
-47.39
-33.79
-17.01
4.12
29.19
56.51
83.73
109.14
132.13
152.33
168.27
176.72
173.75
157.69
131.00
100.39
74.45
59.92
58.45
65.84
74.12
74.92
62.78
36.89
0.55
-41.03
-83.04
-122.56
-158.39
-189.86
-215.79
-234.46
-243.93
-242.97
-232.13
-212.82
-186.51
-153.63
-112.92
-62.33
-1.15
67.98
138.27
200.13
244.54
266.60
266.83
251.84
231.50
214.59
206.09
206.05
210.60
214.24
211.64
198.42
171.31
129.69
74.66
10.95
-52.43
-103.75
-132.35
-133.50
-111.13
-77.10
-46.23
-30.15
-32.13
-46.52
-61.90
-67.08
-56.61
-32.88
-4.32
19.23
30.97
29.73
19.33
6.16
-3.96
-8.08
-6.42
-1.68
1.97
-0.43
-13.27
-39.03
-76.75
-120.77
-161.09
-185.66
-184.56
-154.04
-98.92
-31.21
34.36
85.45
115.96
126.93
124.40
115.40
106.04
99.88
98.19
100.95
107.68
117.51
128.91
139.32
145.35
144.13
134.51
117.81
97.47
77.77
62.27
52.47
47.53
45.01
42.16
37.09
29.46
20.39
11.80
5.37
1.80
0.59
0.34
-0.42
-2.66
-6.44
-10.89
-14.72
-16.72
-16.30
-13.63
-9.56
-5.19
-1.52
0.68
1.22
0.27
-1.75
-4.47
-7.62
-11.09
-14.88
-19.01
-23.44
-27.99
-32.29
-35.82
-38.19
-39.12
-38.57
-36.82
-34.40
-31.93
-29.80
-28.06
-26.33
-24.23
-21.39
-17.78
-13.91
-10.73
-9.28
-10.29
-13.77
-18.93
-24.75
-30.16
-34.62
-38.58
-43.54
-51.70
-65.21
-85.49
-110.55
-137.57
-162.61
-181.05
-188.59
-182.30
-161.88
-130.28
-93.31
-58.09
-30.94
-15.03
-9.62
-11.04
-14.68
-17.00
-16.62
-13.96
-9.96
-5.23
0.45
7.48
15.64
23.67
29.80
32.58
31.82
28.78
25.57
24.30
26.07
30.40
35.32
38.09
36.30
28.97
17.00
2.75
-10.82
-21.11
-26.43
-26.08
-19.83
-8.07
7.64
23.72
34.90
36.23
25.97
7.60
-11.08
-21.58
-19.52
-6.99
8.67
18.88
18.43
7.61
-8.84
-25.15
-37.43
-44.81
-47.84
-46.46
-39.06
-23.43
1.58
34.84
72.82
111.08
145.10
171.52
189.08
198.49
201.48
199.03
190.01
171.61
143.70
107.48
67.73
31.94
7.28
-2.56
0.93
13.10
26.10
32.62
28.91
16.20
-0.99
-17.94
-31.99
-42.84
-51.28
-57.96
-62.35
-63.49
-60.72
-54.54
-46.57
-39.06
-33.72
-31.09
-30.56
-30.59
-29.69
-26.92
-22.41
-17.19
-12.70
-9.99
-9.34
-10.30
-11.90
-13.17
-13.57
-13.15
-12.51
-12.45
-13.56
-15.95
-19.45
-23.61
-28.00
-32.39
-36.83
-41.59
-47.06
-53.48
-60.92
-69.36
-78.67
-88.72
-99.43
-110.74
-122.58
-134.85
-147.26
-159.30
-170.40
-179.89
-187.07
-191.23
-191.71
-188.02
-179.87
-167.73
-151.85
-132.69
-110.98
-87.68
-63.87
-40.62
-18.91
0.50
17.07
30.59
41.02
48.44
53.10
55.38
55.74
54.65
52.60
49.97
47.13
44.26
41.47
38.75
36.13
33.68
31.51
29.77
28.57
27.96
27.82
27.90
27.88
27.47
26.53
25.09
23.31
21.39
19.45
17.41
15.02
12.00
8.25
4.00
-0.12
-3.30
-4.83
-4.32
-2.02
1.31
4.71
7.49
9.56
11.50
14.31
18.92
25.72
34.26
43.51
52.34
60.13
67.19
74.65
84.10
96.55
112.80
133.20
157.48
184.44
211.59
235.02
250.05
252.67
241.20
217.45
186.38
154.41
127.05
107.03
93.89
85.07
77.77
70.51
63.44
57.41
52.74
48.40
42.34
32.71
19.17
3.44
-11.30
-21.96
-27.12
-27.72
-26.49
-26.30
-28.64
-32.82
-36.67
-37.97
-36.09
-32.60
-30.56
-32.84
-40.21
-50.57
-59.38
-61.55
-53.65
-35.51
-10.53
15.65
37.22
50.32
54.05
50.15
41.64
31.21
20.20
8.66
-3.61
-16.21
-27.66
-36.16
-40.69
-42.00
-42.50
-45.05
-51.32
-60.61
-69.96
-75.47
-74.17
-65.35
-50.62
-32.89
-14.79
2.29
18.30
33.73
48.49
61.43
70.62
74.38
72.39
66.04
57.92
50.52
44.92
40.29
34.33
24.61
9.94
-8.94
-29.65
-49.28
-65.53
-77.49
-85.35
-89.80
-91.31
-89.82
-84.99
-76.66
-65.25
-51.85
-37.91
-24.79
-13.39
-4.00
3.55
9.58
14.35
17.83
19.78
19.97
18.34
15.16
11.00
6.53
2.35
-1.23
-4.18
-6.69
-9.01
-11.30
-13.57
-15.67
-17.40
-18.61
-19.28
-19.51
-19.44
-19.26
-19.07
-18.90
-18.71
-18.43
-18.04
-17.52
-16.89
-16.22
-15.53
-14.88
-14.26
-13.66
-13.08
-12.51
-11.94
-11.38
-10.82
-10.27
-9.73
-9.20
-8.69
-8.20
-7.71
-7.24
-6.78
-6.33
-5.89
-5.46
-5.03
-4.62
-4.24
-3.88
-3.55
-3.25
-2.97
-2.71
-2.48
-2.28
-2.09
-1.93
-1.78
-1.64
-1.52
-1.41
-1.31
-1.22
-1.14
-1.06
-1.00
-0.94
-0.88
-0.83
-0.78
-0.74
-0.70
-0.66
-0.63
-0.60
-0.57
-0.54
-0.52
-0.50
-0.48
-0.46
-0.44
-0.42
-0.40
-0.39
-0.38
-0.36
-0.35
-0.34
-0.33
-0.31
-0.30
-0.29
-0.28
-0.28
-0.27
-0.26
-0.25
-0.25
-0.24
-0.23
-0.22
-0.22
-0.21
-0.21
-0.20
-0.20
-0.19
-0.19
-0.18
-0.18
-0.17
-0.16
-0.16
-0.16
-0.16
-0.15
-0.15
-0.14
-0.14
-0.13
-0.13
-0.13
-0.13
-0.12
-0.12
-0.12
-0.12
-0.11
-0.11
-0.11
-0.11
-0.10
-0.10
-0.10
-0.09
-0.09
-0.09
-0.09
-0.10
-0.10
-0.09
-0.07
-0.04
0.00
-0.01
-0.08
-0.22
-0.40
-0.55
-0.61
-0.53
-0.35
-0.12
0.05
0.11
0.05
-0.09
-0.19
-0.21
-0.12
0.06
0.22
0.28
0.16
-0.09
-0.42
-0.66
-0.69
-0.44
0.02
0.48
0.67
0.39
-0.38
-1.39
-2.20
-2.40
-1.79
-0.55
0.78
1.52
1.18
-0.20
-2.09
-3.61
-3.98
-2.90
-0.74
1.52
2.83
2.50
0.67
-1.80
-3.69
-4.02
-2.70
-0.30
2.07
3.62
4.10
3.78
2.78
0.58
-3.38
-8.43
-11.50
-7.85
6.45
31.37
61.11
85.96
96.28
87.60
62.91
30.71
0.18
-23.28
-39.76
-52.17
-62.13
-67.61
-64.42
-50.56
-29.62
-10.21
-1.84
-8.39
-25.74
-43.74
-52.29
-46.66
-30.00
-10.58
3.47
8.37
5.81
0.68
-2.57
-2.38
0.01
2.16
2.16
-0.14
-3.68
-7.01
-8.82
-8.62
-6.88
-4.41
-2.26
-1.29
-1.88
-3.77
-6.10
-7.61
-7.18
-4.22
1.12
7.79
14.13
18.47
19.94
18.78
16.31
14.33
14.16
16.48
21.20
27.74
35.15
41.49
43.44
36.49
16.87
-15.74
-56.10
-94.22
-118.72
-122.60
-106.36
-77.58
-47.13
-23.66
-10.24
-3.87
1.02
8.80
20.52
34.11
46.63
56.10
62.56
67.42
71.89
77.32
83.46
89.35
92.30
90.47
83.08
71.17
57.16
44.28
35.10
30.01
27.47
25.02
21.65
18.21
16.82
18.51
21.44
21.09
12.84
-3.98
-24.81
-41.34
-46.41
-38.56
-23.50
-10.86
-8.35
-17.34
-31.95
-43.36
-45.17
-37.14
-24.40
-14.15
-10.87
-13.53
-18.11
-19.04
-13.59
-3.15
8.06
15.90
18.50
16.79
13.92
12.85
15.08
19.85
24.91
27.61
26.60
22.17
15.42
8.35
2.73
-0.40
-1.19
-0.57
0.27
0.60
0.46
-0.22
-0.84
-0.70
0.67
3.26
6.58
9.97
12.89
15.09
15.39
13.03
7.49
-1.19
-12.17
-23.92
-34.79
-44.27
-46.25
-39.66
-25.81
-7.62
11.70
29.72
45.31
58.43
69.54
79.10
86.07
89.41
88.27
82.46
72.75
60.93
49.52
41.14
37.71
38.99
43.63
49.52
54.59
57.41
57.47
54.83
49.85
43.08
34.83
26.09
18.31
13.01
11.14
12.84
17.47
24.04
31.74
40.01
48.98
59.15
70.96
84.19
97.70
109.47
117.06
118.30
111.96
98.04
77.69
52.62
24.60
-4.80
-34.16
-62.04
-87.07
-108.33
-125.84
-140.63
-154.35
-168.53
-183.73
-199.34
-213.85
-225.60
-233.36
-236.75
-236.04
-231.88
-224.82
-215.11
-202.77
-187.75
-170.24
-150.79
-130.44
-110.36
-91.67
-75.09
-60.84
-48.78
-38.56
-29.90
-22.57
-16.22
-10.01
-2.58
7.40
20.52
36.13
52.52
67.72
80.56
91.19
100.78
110.53
120.90
131.25
140.32
146.89
150.33
150.68
148.45
144.30
139.02
133.76
129.98
129.20
132.52
140.31
152.28
167.63
185.15
202.99
218.45
228.13
228.65
217.47
193.77
158.75
115.65
69.07
24.18
-14.61
-44.91
-67.12
-84.44
-101.56
-122.62
-149.16
-179.09
-207.38
-228.07
-236.75
-232.28
-217.08
-195.78
-173.30
-153.08
-136.13
-121.41
-106.97
-91.39
-74.78
-58.74
-45.52
-36.94
-33.38
-33.65
-35.38
-35.82
-32.50
-23.73
-8.77
11.99
36.77
62.43
84.89
100.04
105.17
99.84
86.22
68.27
50.23
34.99
23.34
13.98
4.40
-7.69
-23.63
-43.37
-65.77
-89.06
-111.49
-131.60
-148.23
-160.36
-167.00
-167.40
-161.42
-149.83
-134.30
-116.83
-98.90
-80.75
-61.20
-38.21
-10.06
23.43
60.47
97.84
132.16
161.15
184.27
202.16
215.69
224.85
228.46
224.66
211.78
189.31
158.18
120.29
77.84
33.01
-11.94
-54.43
-91.54
-120.89
-141.85
-156.23
-168.02
-181.76
-200.42
-223.97
-249.36
-272.05
-287.98
-295.00
-292.94
-282.85
-265.88
-243.00
-215.19
-183.80
-150.34
-115.94
-80.68
-43.52
-2.95
42.00
90.82
141.26
189.55
231.07
261.00
275.01
270.19
246.09
205.37
153.71
98.58
47.19
4.86
-25.72
-44.13
-51.45
-49.98
-43.40
-37.06
-37.52
-51.06
-81.85
-130.25
-192.49
-261.45
-328.16
-383.68
-420.61
-434.25
-423.29
-390.43
-341.57
-284.24
-225.72
-171.38
-123.77
-82.77
-46.86
-14.50
14.68
39.94
60.20
74.72
83.56
87.51
88.08
86.87
85.14
82.91
79.56
74.71
68.49
61.63
55.48
52.02
53.35
61.05
74.02
89.98
107.22
124.91
142.87
161.68
182.92
208.80
240.98
276.86
312.67
346.02
375.64
399.19
413.17
414.40
401.68
376.97
340.50
295.24
248.34
207.30
174.46
146.74
118.98
87.46
51.61
6.88
-49.41
-114.90
-184.55
-255.82
-329.25
-406.05
-485.96
-525.94
-497.30
-410.25
-299.63
-191.93
-99.36
-26.70
25.19
59.30
81.88
93.54
94.41
87.58
77.84
68.15
59.83
54.39
53.91
59.97
67.49
70.67
67.71
60.60
52.05
44.08
38.49
36.82
39.81
43.91
45.24
42.60
37.33
31.20
25.48
21.18
19.11
19.59
20.77
20.68
18.67
15.38
11.65
8.07
5.07
2.94
1.87
1.18
0.18
-1.38
-3.35
-5.50
-7.68
-9.77
-11.69
-13.37
-14.82
-16.14
-17.45
-18.87
-20.44
-22.16
-23.97
-25.85
-27.79
-29.85
-32.00
-34.18
-36.32
-38.28
-39.87
-40.86
-41.00
-40.09
-37.97
-34.62
-30.02
-24.29
-17.67
-10.48
-3.11
4.05
10.62
16.28
20.85
24.26
26.62
28.13
29.11
29.87
30.76
31.98
33.62
35.59
37.66
39.55
40.92
41.46
40.87
38.95
35.60
30.83
24.73
17.46
9.42
1.03
-7.31
-15.19
-22.29
-28.43
-33.60
-37.95
-41.80
-45.16
-48.14
-50.73
-52.90
-54.59
-55.80
-56.68
-57.56
-58.93
-60.72
-62.87
-65.15
-67.16
-68.53
-69.02
-68.74
-68.11
-67.83
-67.83
-67.96
-67.67
-66.08
-62.11
-54.82
-43.33
-26.67
-8.11
11.11
30.35
49.56
69.03
89.26
110.86
134.53
160.61
188.58
217.17
243.38
263.23
273.02
270.83
257.25
235.16
208.49
180.70
154.38
130.52
109.26
90.67
74.96
62.31
52.32
43.86
35.26
25.37
13.79
1.25
-10.77
-20.62
-27.36
-31.14
-33.18
-35.16
-38.39
-43.30
-49.19
-54.65
-58.38
-59.80
-59.07
-56.91
-53.95
-50.54
-46.42
-41.01
-33.93
-25.65
-17.58
-11.51
-8.92
-10.34
-15.47
-22.73
-29.58
-33.37
-32.86
-28.69
-22.93
-18.22
-16.76
-20.14
-28.18
-38.80
-48.93
-56.03
-58.85
-57.14
-51.80
-45.26
-42.46
-48.86
-67.76
-98.30
-135.05
-169.26
-191.14
-193.77
-171.46
-128.44
-79.09
-39.77
-18.73
-13.97
-18.74
-26.90
-36.03
-46.03
-57.97
-70.99
-81.28
-84.81
-79.47
-66.33
-48.27
-28.90
-10.66
5.39
20.65
38.75
64.05
99.79
142.56
187.24
227.17
255.89
268.59
264.08
245.17
217.37
186.49
156.55
129.82
106.59
86.46
69.07
54.81
44.59
38.93
37.22
37.51
37.69
36.10
32.23
27.01
22.48
20.88
23.64
30.71
40.42
50.52
58.93
64.57
67.80
70.08
73.29
78.91
87.44
98.10
109.17
118.12
122.19
118.96
106.96
86.21
58.49
27.12
-3.77
-30.23
-49.58
-60.88
-64.89
-63.35
-58.27
-51.29
-43.56
-35.99
-29.50
-25.19
-24.07
-26.67
-32.62
-40.67
-48.96
-55.67
-59.58
-60.47
-59.11
-56.92
-55.39
-55.54
-57.58
-60.93
-64.60
-67.73
-69.99
-71.70
-73.57
-76.14
-79.45
-82.90
-85.56
-86.80
-86.69
-86.09
-86.27
-88.17
-91.94
-96.74
-101.15
-103.70
-103.45
-100.21
-94.41
-86.75
-77.77
-67.74
-56.75
-45.07
-33.42
-22.95
-14.91
-10.08
-8.37
-8.65
-9.11
-7.90
-3.82
3.16
11.97
20.82
27.95
32.22
33.30
31.56
27.69
22.35
16.00
8.97
1.57
-5.82
-12.84
-19.19
-24.83
-29.73
-33.77
-36.65
-38.09
-38.21
-37.83
-38.33
-41.13
-46.94
-55.18
-64.07
-71.30
-74.99
-74.48
-70.59
-65.14
-60.21
-57.38
-57.34
-59.78
-63.62
-67.29
-69.13
-67.74
-62.37
-53.20
-41.29
-28.27
-15.81
-5.19
2.98
8.70
12.42
14.76
16.39
17.89
19.72
22.10
24.97
27.96
30.60
32.49
33.45
33.56
33.11
32.41
31.73
31.17
30.72
30.23
29.54
28.49
26.98
25.01
22.62
19.94
17.04
14.04
10.99
8.01
5.29
3.11
1.78
1.57
2.55
4.58
7.29
10.24
13.04
15.50
17.58
19.38
20.93
22.19
22.99
23.17
22.65
21.53
20.08
18.63
17.46
16.70
16.30
16.03
15.64
14.92
13.82
12.40
10.83
9.29
7.85
6.42
4.84
2.91
0.47
-2.48
-5.85
-9.40
-12.83
-15.81
-18.05
-19.26
-19.26
-18.04
-15.73
-12.63
-9.13
-5.57
-2.19
0.94
3.86
6.59
9.09
11.15
12.57
13.19
13.07
12.43
11.62
10.94
10.53
10.37
10.36
10.39
10.40
10.44
10.58
10.87
11.32
11.85
12.38
12.80
13.00
12.85
12.27
11.25
9.94
8.66
7.85
7.99
9.39
12.10
15.87
20.18
24.46
28.24
31.30
33.68
35.56
37.13
38.41
39.27
39.50
38.96
37.70
35.96
34.07
32.29
30.75
29.34
27.88
26.15
24.04
21.53
18.71
15.66
12.48
9.20
5.86
2.53
-0.75
-3.98
-7.17
-10.38
-13.62
-16.79
-19.63
-21.72
-22.64
-22.08
-19.98
-16.54
-12.12
-7.19
-2.17
2.59
6.83
10.43
13.32
15.51
17.08
18.14
18.80
19.18
19.32
19.31
19.20
19.05
18.86
18.62
18.24
17.66
16.82
15.68
14.29
12.73
11.11
9.52
7.98
6.47
4.86
3.01
0.77
-1.92
-5.09
-8.57
-12.10
-15.27
-17.67
-19.00
-19.11
-18.06
-16.08
-13.43
-10.35
-7.00
-3.54
-0.13
2.99
5.59
7.43
8.47
8.78
8.60
8.20
7.82
7.57
7.48
7.53
7.66
7.83
7.95
7.94
7.68
7.06
6.02
4.60
2.95
1.26
-0.31
-1.66
-2.81
-3.92
-5.16
-6.72
-8.69
-10.96
-13.24
-15.12
-16.19
-16.16
-14.96
-12.77
-9.90
-6.71
-3.49
-0.39
2.54
5.26
7.72
9.76
11.22
11.97
12.03
11.58
10.87
10.19
9.71
9.48
9.40
9.34
9.16
8.76
8.10
7.20
6.08
4.80
3.41
1.99
0.58
-0.80
-2.19
-3.69
-5.37
-7.28
-9.39
-11.57
-13.63
-15.33
-16.37
-16.49
-15.53
-13.49
-10.61
-7.30
-4.01
-1.11
1.24
3.07
4.52
5.70
6.65
7.34
7.71
7.77
7.58
7.23
6.80
6.33
5.84
5.36
4.90
4.40
3.78
2.90
1.72
0.35
-1.02
-2.18
-3.06
-3.72
-4.34
-5.08
-6.03
-7.15
-8.41
-9.84
-11.52
-13.45
-15.44
-17.10
-17.93
-17.59
-16.04
-13.51
-10.42
-7.17
-4.00
-1.06
1.57
3.84
5.66
7.04
8.04
8.84
9.58
10.35
11.11
11.72
12.04
11.94
11.43
10.57
9.47
8.30
7.20
6.25
5.47
4.79
4.10
3.30
2.33
1.19
0.00
-1.15
-2.18
-3.10
-3.97
-4.92
-6.06
-7.50
-9.30
-11.40
-13.59
-15.54
-16.83
-17.06
-16.02
-13.78
-10.68
-7.22
-3.85
-0.81
1.88
4.33
6.64
8.71
10.36
11.36
11.66
11.39
10.88
10.45
10.28
10.33
10.42
10.30
9.83
9.02
7.99
6.89
5.89
5.09
4.53
4.17
3.90
3.62
3.24
2.74
2.18
1.59
0.98
0.27
-0.70
-2.04
-3.78
-5.90
-8.28
-10.76
-13.18
-15.31
-16.90
-17.65
-17.32
-15.81
-13.26
-10.02
-6.56
-3.32
-0.58
1.53
3.09
4.21
5.01
5.50
5.64
5.40
4.83
4.08
3.39
2.97
2.89
3.08
3.37
3.61
3.73
3.81
4.00
4.40
4.97
5.53
5.85
5.71
5.01
3.82
2.32
0.79
-0.56
-1.61
-2.39
-3.08
-3.95
-5.23
-7.00
-9.19
-11.58
-13.86
-15.74
-17.02
-17.54
-17.20
-16.04
-14.17
-11.84
-9.34
-7.00
-5.05
-3.59
-2.62
-2.04
-1.79
-1.81
-2.11
-2.68
-3.50
-4.52
-5.61
-6.62
-7.36
-7.75
-7.79
-7.64
-7.55
-7.76
-8.41
-9.50
-10.88
-12.36
-13.73
-14.91
-15.93
-16.92
-18.06
-19.47
-21.18
-23.15
-25.21
-27.22
-29.02
-30.41
-31.19
-31.08
-29.86
-27.40
-23.79
-19.27
-14.26
-9.11
-4.10
0.62
4.99
8.98
12.60
15.83
18.69
21.21
23.35
25.04
26.18
26.62
26.35
25.47
24.13
22.57
20.96
19.42
17.96
16.53
15.07
13.50
11.80
9.93
7.90
5.75
3.59
1.57
-0.15
-1.50
-2.53
-3.46
-4.54
-5.96
-7.74
-9.69
-11.46
-12.64
-12.92
-12.17
-10.40
-7.82
-4.72
-1.44
1.71
4.50
6.86
8.83
10.54
12.08
13.51
14.75
15.65
16.09
16.00
15.42
14.49
13.34
12.01
10.46
8.59
6.41
4.03
1.74
-0.19
-1.58
-2.46
-3.02
-3.45
-3.87
-4.38
-5.00
-5.87
-7.11
-8.82
-11.00
-13.48
-15.98
-18.19
-19.82
-20.58
-20.30
-18.87
-16.38
-13.12
-9.52
-6.00
-2.85
-0.20
1.98
3.74
5.08
6.01
6.57
6.90
7.18
7.55
8.05
8.56
8.89
8.90
8.51
7.73
6.67
5.40
4.09
2.81
1.68
0.71
-0.17
-1.09
-2.18
-3.48
-5.03
-6.77
-8.67
-10.71
-12.87
-15.05
-17.02
-18.50
-19.18
-18.88
-17.60
-15.53
-12.96
-10.20
-7.45
-4.83
-2.38
-0.14
1.82
3.39
4.40
4.80
4.61
4.01
3.26
2.60
2.20
2.12
2.28
2.50
2.64
2.61
2.38
1.98
1.41
0.70
-0.16
-1.13
-2.17
-3.19
-4.15
-5.04
-5.85
-6.62
-7.37
-8.13
-8.92
-9.76
-10.57
-11.24
-11.58
-11.37
-10.50
-8.93
-6.79
-4.27
-1.58
1.08
3.58
5.89
8.01
9.92
11.60
12.98
14.00
14.62
14.88
14.86
14.62
14.21
13.59
12.73
11.69
10.66
9.81
9.31
9.11
8.98
8.61
7.79
6.49
4.94
3.44
2.22
1.33
0.63
-0.15
-1.15
-2.40
-3.75
-5.00
-5.95
-6.47
-6.48
-6.01
-5.12
-3.98
-2.79
-1.73
-0.92
-0.37
0.04
0.40
0.76
1.06
1.21
1.12
0.81
0.37
-0.08
-0.46
-0.80
-1.14
-1.51
-1.86
-2.07
-2.03
-1.71
-1.22
-0.77
-0.56
-0.67
-1.09
-1.69
-2.34
-2.95
-3.55
-4.27
-5.24
-6.59
-8.28
-10.14
-11.85
-13.02
-13.34
-12.66
-11.06
-8.83
-6.37
-4.07
-2.18
-0.76
0.27
1.04
1.63
2.05
2.25
2.21
1.92
1.43
0.80
0.16
-0.41
-0.82
-1.01
-1.01
-0.94
-0.91
-1.08
-1.49
-2.10
-2.80
-3.44
-4.00
-4.52
-5.10
-5.85
-6.84
-8.08
-9.55
-11.15
-12.74
-14.10
-14.98
-15.08
-14.20
-12.25
-9.40
-5.97
-2.43
0.78
3.35
5.17
6.32
6.99
7.35
7.47
7.35
6.95
6.26
5.35
4.33
3.35
2.49
1.79
1.24
0.84
0.57
0.43
0.37
0.31
0.14
-0.19
-0.74
-1.44
-2.31
-3.34
-4.63
-6.24
-8.22
-10.46
-12.72
-14.64
-15.86
-16.11
-15.28
-13.48
-11.04
-8.40
-5.93
-3.85
-2.18
-0.74
0.68
2.21
3.86
5.45
6.79
7.70
8.14
8.12
7.75
7.20
6.56
5.96
5.40
4.87
4.28
3.58
2.73
1.80
0.83
-0.10
-0.97
-1.81
-2.66
-3.62
-4.80
-6.28
-8.12
-10.24
-12.39
-14.20
-15.33
-15.47
-14.52
-12.58
-9.90
-6.76
-3.44
-0.19
2.77
5.27
7.18
8.46
9.18
9.48
9.51
9.41
9.22
8.94
8.49
7.81
6.91
5.87
4.85
4.00
3.38
2.98
2.66
2.25
1.60
0.65
-0.60
-2.09
-3.79
-5.71
-7.87
-10.20
-12.49
-14.38
-15.45
-15.37
-13.97
-11.36
-7.88
-3.98
-0.16
3.21
5.96
8.07
9.65
10.90
11.93
12.77
13.40
13.71
13.64
13.16
12.34
11.28
10.16
9.15
8.35
7.79
7.39
6.97
6.38
5.51
4.37
3.05
1.65
0.18
-1.46
-3.44
-5.87
-8.69
-11.69
-14.48
-16.62
-17.74
-17.60
-16.21
-13.75
-10.53
-6.93
-3.31
0.04
2.90
5.16
6.77
7.76
8.23
8.36
8.36
8.47
8.80
9.33
9.94
10.43
10.62
10.47
10.02
9.37
8.62
7.79
6.87
5.85
4.75
3.62
2.53
1.48
0.37
-0.86
-2.26
-3.82
-5.46
-7.11
-8.73
-10.27
-11.64
-12.58
-12.77
-11.90
-9.87
-6.87
-3.33
0.26
3.56
6.45
9.00
11.34
13.51
15.48
17.17
18.55
19.66
20.54
21.21
21.67
21.90
21.94
21.86
21.75
21.65
21.50
21.23
20.78
20.13
19.26
18.15
16.78
15.12
13.24
11.29
9.46
7.95
6.81
5.98
5.27
4.43
3.25
1.67
-0.12
-1.73
-2.60
-2.19
-0.20
3.33
8.00
13.27
18.64
23.84
28.84
33.78
38.81
43.97
49.18
54.24
58.94
63.15
66.90
70.41
74.07
78.35
83.65
90.10
97.38
104.54
110.25
113.03
111.81
106.21
96.64
84.12
69.81
54.71
39.43
24.28
9.46
-4.75
-18.00
-29.96
-40.45
-49.49
-57.23
-63.90
-69.69
-74.79
-79.31
-83.36
-86.94
-90.03
-92.60
-94.64
-96.24
-97.50
-98.56
-99.52
-100.47
-101.49
-102.71
-104.28
-106.25
-108.52
-110.57
-111.67
-110.89
-107.44
-100.90
-91.44
-79.74
-66.86
-53.93
-41.86
-31.17
-22.02
-14.31
-7.88
-2.64
1.47
4.53
6.77
8.51
10.15
11.96
14.01
16.16
18.15
19.69
20.61
20.91
20.67
20.03
19.10
17.99
16.78
15.57
14.45
13.46
12.59
11.80
11.00
10.17
9.35
8.62
8.11
7.93
8.14
8.71
9.51
10.37
11.08
11.52
11.67
11.62
11.48
11.33
11.16
10.93
10.61
10.24
9.92
9.70
9.55
9.36
9.02
8.51
7.92
7.45
7.23
7.20
7.17
6.85
6.08
4.89
3.55
2.37
1.54
1.02
0.63
0.11
-0.64
-1.59
-2.50
-3.16
-3.46
-3.46
-3.42
-3.57
-4.04
-4.80
-5.65
-6.31
-6.56
-6.29
-5.54
-4.44
-3.18
-1.92
-0.69
0.50
1.68
2.83
3.86
4.64
5.02
4.94
4.43
3.68
2.90
2.31
2.06
2.18
2.58
3.10
3.56
3.81
3.78
3.52
3.18
2.86
2.66
2.52
2.32
1.97
1.46
0.84
0.17
-0.49
-1.15
-1.81
-2.47
-3.08
-3.63
-4.12
-4.60
-5.19
-5.92
-6.74
-7.48
-7.92
-7.85
-7.14
-5.83
-4.08
-2.17
-0.40
0.98
1.90
2.40
2.66
2.84
3.00
3.13
3.12
2.91
2.49
1.94
1.41
1.04
0.92
1.09
1.56
2.26
3.13
4.00
4.68
5.00
4.84
4.21
3.23
2.06
0.79
-0.48
-1.66
-2.65
-3.36
-3.76
-3.91
-3.98
-4.15
-4.51
-5.06
-5.74
-6.50
-7.33
-8.23
-9.17
-10.00
-10.47
-10.37
-9.59
-8.20
-6.46
-4.61
-2.83
-1.15
0.45
2.02
3.49
4.73
5.60
6.04
6.13
6.05
5.96
5.97
6.07
6.18
6.24
6.25
6.27
6.34
6.49
6.64
6.72
6.63
6.33
5.83
5.15
4.34
3.51
2.70
1.95
1.27
0.60
-0.13
-0.99
-1.99
-3.06
-4.06
-4.87
-5.39
-5.61
-5.63
-5.63
-5.82
-6.39
-7.41
-8.78
-10.26
-11.52
-12.27
-12.31
-11.62
-10.24
-8.34
-6.11
-3.74
-1.42
0.67
2.39
3.69
4.55
5.02
5.17
5.11
4.98
4.91
5.02
5.38
5.91
6.52
7.05
7.45
7.72
7.93
8.10
8.16
8.02
7.61
6.97
6.27
5.65
5.20
4.90
4.64
4.33
3.91
3.42
2.86
2.24
1.48
0.53
-0.65
-1.99
-3.36
-4.61
-5.64
-6.44
-7.09
-7.73
-8.50
-9.47
-10.58
-11.66
-12.47
-12.78
-12.50
-11.66
-10.45
-9.04
-7.57
-6.08
-4.54
-2.91
-1.22
0.43
1.92
3.17
4.13
4.89
5.49
5.98
6.35
6.55
6.56
6.42
6.27
6.24
6.45
6.88
7.40
7.81
7.95
7.78
7.36
6.82
6.26
5.70
5.12
4.48
3.83
3.23
2.72
2.27
1.75
1.05
0.13
-0.88
-1.81
-2.50
-2.97
-3.43
-4.13
-5.21
-6.66
-8.24
-9.63
-10.58
-10.90
-10.56
-9.60
-8.11
-6.28
-4.33
-2.49
-0.93
0.37
1.51
2.66
3.91
5.15
6.20
6.88
7.16
7.19
7.16
7.23
7.41
7.59
7.69
7.68
7.66
7.70
7.77
7.69
7.28
6.50
5.49
4.57
4.03
4.01
4.37
4.78
4.87
4.42
3.45
2.09
0.62
-0.78
-1.96
-2.89
-3.59
-4.15
-4.69
-5.40
-6.39
-7.71
-9.19
-10.57
-11.51
-11.80
-11.36
-10.27
-8.68
-6.72
-4.47
-1.99
0.61
3.10
5.18
6.57
7.20
7.18
6.80
6.37
6.13
6.13
6.29
6.44
6.51
6.49
6.48
6.57
6.81
7.11
7.36
7.45
7.32
7.01
6.59
6.11
5.64
5.18
4.74
4.37
4.04
3.71
3.24
2.47
1.34
-0.04
-1.46
-2.62
-3.38
-3.80
-4.16
-4.80
-5.99
-7.76
-9.88
-11.96
-13.59
-14.49
-14.53
-13.77
-12.38
-10.56
-8.50
-6.37
-4.26
-2.22
-0.32
1.38
2.80
3.83
4.44
4.68
4.68
4.62
4.69
4.99
5.51
6.15
6.78
7.29
7.68
8.00
8.29
8.57
8.76
8.74
8.41
7.69
6.68
5.56
4.56
3.89
3.60
3.60
3.68
3.59
3.14
2.26
0.99
-0.52
-2.09
-3.58
-4.95
-6.20
-7.37
-8.51
-9.64
-10.71
-11.60
-12.15
-12.21
-11.69
-10.57
-8.91
-6.84
-4.53
-2.11
0.24
2.32
3.93
4.91
5.23
5.00
4.45
3.88
3.51
3.43
3.60
3.88
4.15
4.38
4.60
4.87
5.24
5.66
6.04
6.29
6.31
6.12
5.80
5.42
5.02
4.53
3.88
3.02
2.02
1.01
0.16
-0.49
-1.01
-1.57
-2.36
-3.40
-4.62
-5.88
-7.05
-8.12
-9.15
-10.14
-11.00
-11.53
-11.52
-10.91
-9.81
-8.43
-6.97
-5.51
-4.02
-2.42
-0.69
1.06
2.60
3.74
4.38
4.60
4.60
4.61
4.78
5.10
5.49
5.84
6.11
6.32
6.56
6.84
7.09
7.17
6.97
6.45
5.72
4.90
4.14
3.46
2.79
2.02
1.09
0.01
-1.15
-2.24
-3.20
-4.06
-4.97
-6.07
-7.44
-8.98
-10.39
-11.33
-11.53
-10.92
-9.65
-8.00
-6.26
-4.59
-3.05
-1.65
-0.36
0.77
1.72
2.47
3.07
3.59
4.10
4.61
5.07
5.38
5.46
5.26
4.80
4.15
3.45
2.85
2.49
2.44
2.68
3.08
3.43
3.52
3.25
2.70
2.01
1.37
0.83
0.29
-0.42
-1.44
-2.83
-4.53
-6.42
-8.37
-10.30
-12.07
-13.54
-14.49
-14.68
-13.97
-12.35
-9.96
-7.11
-4.17
-1.51
0.60
2.07
2.99
3.59
4.03
4.48
4.92
5.28
5.55
5.69
5.80
5.94
6.10
6.24
6.28
6.17
5.93
5.65
5.41
5.21
4.99
4.61
3.97
3.02
1.85
0.59
-0.63
-1.75
-2.83
-4.00
-5.40
-7.04
-8.75
-10.29
-11.34
-11.65
-11.09
-9.67
-7.54
-4.97
-2.26
0.28
2.39
3.96
4.99
5.60
5.97
6.23
6.41
6.51
6.47
6.25
5.91
5.55
5.27
5.11
5.10
5.23
5.50
5.94
6.50
7.09
7.52
7.59
7.19
6.34
5.17
3.90
2.66
1.48
0.31
-1.00
-2.51
-4.25
-6.19
-8.11
-9.81
-10.97
-11.35
-10.84
-9.53
-7.73
-5.81
-4.08
-2.65
-1.48
-0.39
0.73
1.91
3.02
3.93
4.54
4.83
4.88
4.78
4.61
4.43
4.29
4.23
4.26
4.37
4.47
4.46
4.22
3.70
2.93
1.93
0.78
-0.47
-1.76
-2.98
-4.07
-4.96
-5.73
-6.50
-7.44
-8.59
-9.82
-10.86
-11.38
-11.20
-10.28
-8.77
-6.86
-4.73
-2.52
-0.34
1.72
3.55
5.06
6.15
6.76
6.92
6.72
6.31
5.92
5.72
5.77
6.00
6.23
6.32
6.21
5.91
5.45
4.83
4.01
2.98
1.79
0.62
-0.30
-0.78
-0.71
-0.12
0.86
2.09
3.42
4.73
5.91
6.86
7.55
7.95
8.12
8.08
7.84
7.43
6.87
6.27
5.78
5.51
5.48
5.55
5.57
5.40
5.02
4.54
4.11
3.81
3.60
3.33
2.85
2.11
1.17
0.13
-0.93
-2.02
-3.18
-4.50
-5.99
-7.62
-9.26
-10.80
-12.16
-13.38
-14.59
-15.95
-17.62
-19.63
-21.83
-23.98
-25.72
-26.75
-26.89
-26.12
-24.59
-22.50
-20.05
-17.31
-14.35
-11.19
-7.94
-4.75
-1.81
0.74
2.89
4.71
6.34
7.84
9.22
10.44
11.42
12.13
12.59
12.83
12.90
12.85
12.69
12.41
11.97
11.29
10.32
9.04
7.54
5.93
4.35
2.85
1.39
-0.13
-1.83
-3.82
-6.12
-8.66
-11.41
-14.26
-17.09
-19.72
-21.96
-23.62
-24.56
-24.72
-24.07
-22.63
-20.43
-17.53
-14.02
-10.05
-5.75
-1.32
3.05
7.13
10.74
13.72
15.98
17.55
18.56
19.24
19.78
20.31
20.85
21.30
21.57
21.50
21.01
20.10
18.85
17.43
16.02
14.71
13.52
12.38
11.13
9.65
7.86
5.75
3.37
0.82
-1.76
-4.26
-6.55
-8.62
-10.53
-12.41
-14.41
-16.69
-19.31
-22.25
-25.38
-28.43
-31.01
-32.65
-32.95
-31.69
-28.91
-24.91
-20.19
-15.22
-10.30
-5.56
-0.96
3.52
7.79
11.64
14.87
17.34
19.12
20.42
21.49
22.49
23.44
24.25
24.86
25.26
25.49
25.62
25.67
25.58
25.26
24.66
23.76
22.63
21.38
20.10
18.86
17.63
16.30
14.70
12.69
10.16
7.16
3.81
0.31
-3.12
-6.31
-9.16
-11.67
-13.91
-16.05
-18.26
-20.70
-23.47
-26.46
-29.37
-31.76
-33.11
-32.97
-31.15
-27.74
-23.11
-17.76
-12.18
-6.71
-1.52
3.38
7.96
12.14
15.82
18.86
21.22
22.92
24.05
24.70
24.96
24.91
24.65
24.31
24.04
23.91
23.97
24.13
24.21
24.01
23.32
22.04
20.23
18.11
15.91
13.87
12.05
10.36
8.62
6.65
4.42
2.03
-0.38
-2.69
-4.89
-7.10
-9.45
-12.05
-14.92
-18.01
-21.22
-24.36
-27.17
-29.26
-30.19
-29.56
-27.20
-23.25
-18.13
-12.45
-6.82
-1.68
2.76
6.51
9.66
12.34
14.63
16.53
18.06
19.24
20.12
20.73
21.08
21.17
20.97
20.55
20.05
19.62
19.40
19.35
19.29
18.94
18.06
16.63
14.80
12.84
11.02
9.44
8.03
6.68
5.26
3.69
2.00
0.23
-1.60
-3.45
-5.28
-7.12
-9.00
-11.05
-13.41
-16.18
-19.25
-22.29
-24.78
-26.15
-26.00
-24.20
-20.93
-16.64
-11.85
-7.11
-2.80
0.88
3.92
6.44
8.61
10.53
12.18
13.53
14.51
15.16
15.55
15.73
15.68
15.37
14.76
13.93
13.12
12.54
12.32
12.41
12.57
12.49
11.95
10.89
9.43
7.82
6.27
4.87
3.59
2.34
1.02
-0.43
-1.98
-3.59
-5.22
-6.87
-8.57
-10.32
-12.14
-13.99
-15.89
-17.87
-19.98
-22.16
-24.20
-25.65
-26.00
-24.89
-22.21
-18.28
-13.68
-9.05
-4.90
-1.45
1.34
3.60
5.50
7.06
8.29
9.16
9.71
10.02
10.25
10.49
10.79
11.14
11.50
11.82
12.04
12.14
12.10
11.91
11.55
11.04
10.38
9.57
8.61
7.49
6.19
4.72
3.12
1.48
-0.09
-1.48
-2.68
-3.73
-4.75
-5.83
-6.99
-8.18
-9.31
-10.37
-11.46
-12.73
-14.33
-16.29
-18.44
-20.48
-22.01
-22.66
-22.14
-20.40
-17.54
-13.90
-9.88
-5.91
-2.32
0.73
3.21
5.14
6.58
7.55
8.04
8.16
8.04
7.87
7.82
7.99
8.36
8.85
9.37
9.82
10.10
10.15
9.92
9.42
8.66
7.74
6.74
5.77
4.88
4.09
3.38
2.69
1.97
1.19
0.30
-0.72
-1.86
-3.09
-4.35
-5.57
-6.75
-7.85
-8.95
-10.13
-11.52
-13.22
-15.17
-17.16
-18.84
-19.82
-19.85
-18.84
-16.93
-14.37
-11.42
-8.31
-5.21
-2.26
0.40
2.65
4.43
5.81
6.87
7.75
8.49
9.10
9.50
9.65
9.56
9.32
9.06
8.86
8.69
8.47
8.07
7.43
6.56
5.57
4.66
3.96
3.52
3.23
2.89
2.34
1.49
0.37
-0.90
-2.16
-3.31
-4.33
-5.25
-6.17
-7.17
-8.32
-9.61
-11.00
-12.43
-13.84
-15.18
-16.42
-17.41
-17.93
-17.72
-16.53
-14.33
-11.34
-7.98
-4.69
-1.78
0.65
2.66
4.36
5.75
6.74
7.22
7.18
6.79
6.36
6.22
6.55
7.33
8.38
9.38
10.07
10.24
9.85
9.02
7.95
6.90
6.03
5.35
4.78
4.19
3.45
2.55
1.54
0.48
-0.61
-1.76
-2.99
-4.26
-5.49
-6.64
-7.70
-8.77
-10.00
-11.47
-13.13
-14.81
-16.25
-17.15
-17.29
-16.55
-14.91
-12.52
-9.68
-6.75
-4.06
-1.80
-0.01
1.45
2.75
3.96
5.06
5.93
6.48
6.74
6.88
7.07
7.42
7.91
8.37
8.61
8.51
8.04
7.32
6.51
5.75
5.06
4.40
3.66
2.74
1.63
0.35
-1.05
-2.52
-4.03
-5.56
-7.01
-8.32
-9.34
-10.05
-10.51
-10.90
-11.41
-12.18
-13.20
-14.34
-15.46
-16.40
-17.01
-17.14
-16.60
-15.20
-12.88
-9.75
-6.16
-2.55
0.66
3.24
5.20
6.68
7.83
8.70
9.29
9.54
9.49
9.25
8.98
8.79
8.72
8.72
8.74
8.74
8.70
8.55
8.20
7.55
6.60
5.46
4.29
3.26
2.44
1.74
0.97
0.01
-1.22
-2.63
-4.11
-5.55
-6.89
-8.14
-9.37
-10.65
-12.08
-13.75
-15.66
-17.67
-19.51
-20.78
-21.10
-20.21
-18.15
-15.16
-11.69
-8.18
-4.95
-2.17
0.19
2.25
4.11
5.85
7.46
8.84
9.91
10.59
10.86
10.79
10.52
10.20
9.97
9.87
9.87
9.88
9.78
9.48
8.94
8.18
7.26
6.27
5.27
4.36
3.57
2.89
2.30
1.71
1.03
0.16
-0.99
-2.44
-4.14
-5.94
-7.72
-9.35
-10.85
-12.36
-14.02
-15.87
-17.74
-19.21
-19.80
-19.11
-17.10
-14.06
-10.52
-6.97
-3.74
-0.91
1.60
3.86
5.92
7.75
9.28
10.49
11.37
11.91
12.13
12.10
11.90
11.66
11.44
11.27
11.05
10.67
10.08
9.33
8.57
7.92
7.45
7.07
6.63
5.96
5.00
3.76
2.41
1.10
-0.08
-1.13
-2.14
-3.25
-4.55
-6.05
-7.72
-9.51
-11.36
-13.27
-15.15
-16.86
-18.16
-18.79
-18.53
-17.31
-15.26
-12.64
-9.74
-6.77
-3.86
-1.00
1.81
4.51
6.98
9.01
10.48
11.37
11.81
12.00
12.12
12.27
12.44
12.63
12.83
13.08
13.38
13.70
13.92
13.91
13.61
13.01
12.21
11.29
10.30
9.21
7.97
6.63
5.25
3.97
2.83
1.81
0.77
-0.41
-1.75
-3.22
-4.68
-6.04
-7.32
-8.65
-10.16
-11.89
-13.73
-15.38
-16.51
-16.82
-16.15
-14.50
-12.04
-9.05
-5.82
-2.64
0.31
2.93
5.18
7.02
8.39
9.24
9.57
9.51
9.27
9.09
9.13
9.40
9.76
10.01
10.02
9.73
9.20
8.55
7.86
7.17
6.45
5.65
4.74
3.77
2.82
1.97
1.30
0.76
0.24
-0.41
-1.26
-2.36
-3.62
-4.98
-6.42
-7.93
-9.54
-11.25
-13.05
-14.93
-16.87
-18.91
-21.02
-23.08
-24.81
-25.85
-25.83
-24.55
-22.05
-18.59
-14.60
-10.53
-6.74
-3.35
-0.31
2.51
5.25
7.87
10.18
11.91
12.91
13.22
13.14
13.08
13.36
14.06
15.00
15.82
16.26
16.20
15.80
15.31
14.93
14.70
14.45
13.94
12.99
11.60
9.93
8.24
6.71
5.43
4.32
3.27
2.22
1.20
0.33
-0.31
-0.73
-1.09
-1.59
-2.45
-3.77
-5.54
-7.65
-9.88
-12.00
-13.73
-14.82
-15.12
-14.58
-13.30
-11.45
-9.28
-6.99
-4.75
-2.69
-0.92
0.50
1.52
2.18
2.64
3.04
3.53
4.15
4.85
5.48
5.90
6.01
5.80
5.37
4.87
4.44
4.14
3.95
3.82
3.66
3.48
3.30
3.14
2.94
2.58
1.87
0.69
-0.95
-2.87
-4.84
-6.67
-8.25
-9.62
-10.83
-11.93
-12.92
-13.82
-14.65
-15.44
-16.16
-16.62
-16.53
-15.60
-13.69
-10.90
-7.62
-4.36
-1.54
0.61
2.14
3.25
4.17
5.00
5.76
6.38
6.85
7.18
7.44
7.72
8.00
8.24
8.32
8.15
7.69
7.01
6.25
5.50
4.80
4.06
3.14
1.87
0.25
-1.62
-3.54
-5.29
-6.81
-8.10
-9.34
-10.71
-12.33
-14.22
-16.26
-18.21
-19.82
-20.80
-20.98
-20.27
-18.70
-16.40
-13.55
-10.28
-6.77
-3.13
0.49
3.90
6.92
9.38
11.17
12.27
12.76
12.81
12.61
12.32
11.99
11.59
11.06
10.37
9.58
8.83
8.24
7.92
7.88
7.96
7.96
7.66
6.89
5.59
3.81
1.69
-0.56
-2.76
-4.80
-6.68
-8.54
-10.58
-12.93
-15.63
-18.58
-21.53
-24.15
-26.16
-27.27
-27.38
-26.45
-24.55
-21.77
-18.26
-14.20
-9.83
-5.43
-1.28
2.42
5.56
8.16
10.31
12.16
13.85
15.45
16.96
18.34
19.46
20.16
20.31
19.86
18.91
17.68
16.40
15.22
14.15
13.01
11.59
9.78
7.54
4.99
2.29
-0.42
-3.05
-5.57
-7.95
-10.19
-12.31
-14.41
-16.65
-19.18
-22.08
-25.23
-28.29
-30.80
-32.23
-32.16
-30.42
-27.18
-22.85
-17.93
-12.88
-7.96
-3.31
1.03
5.01
8.49
11.41
13.75
15.66
17.32
18.89
20.39
21.71
22.74
23.39
23.65
23.59
23.24
22.62
21.70
20.49
19.01
17.31
15.35
13.09
10.48
7.56
4.47
1.46
-1.28
-3.67
-5.79
-7.86
-10.18
-12.98
-16.35
-20.21
-24.28
-28.16
-31.33
-33.29
-33.67
-32.34
-29.49
-25.50
-20.88
-16.03
-11.19
-6.42
-1.72
2.86
7.13
10.79
13.59
15.40
16.41
16.97
17.49
18.30
19.37
20.55
21.52
22.09
22.17
21.85
21.24
20.38
19.17
17.46
15.16
12.27
9.00
5.59
2.30
-0.74
-3.57
-6.33
-9.19
-12.29
-15.66
-19.28
-23.01
-26.67
-29.99
-32.54
-33.85
-33.47
-31.21
-27.22
-21.96
-16.07
-10.15
-4.63
0.31
4.62
8.34
11.43
13.87
15.67
16.97
17.95
18.81
19.64
20.40
20.99
21.34
21.46
21.47
21.49
21.58
21.58
21.24
20.22
18.30
15.50
12.00
8.13
4.20
0.40
-3.24
-6.80
-10.45
-14.31
-18.41
-22.66
-26.80
-30.41
-32.93
-33.81
-32.64
-29.36
-24.27
-17.95
-11.12
-4.37
1.88
7.47
12.36
16.57
20.08
22.90
25.08
26.76
28.13
29.34
30.48
31.50
32.32
32.85
33.02
32.82
32.31
31.52
30.46
29.08
27.27
24.89
21.85
18.16
14.00
9.65
5.38
1.42
-2.16
-5.45
-8.68
-12.08
-15.91
-20.29
-25.16
-30.17
-34.77
-38.23
-39.91
-39.35
-36.49
-31.64
-25.37
-18.38
-11.27
-4.43
1.93
7.72
12.89
17.40
21.20
24.34
26.90
29.04
30.87
32.38
33.44
33.88
33.58
32.54
30.94
29.01
26.97
24.97
23.03
21.03
18.82
16.21
13.09
9.46
5.44
1.25
-2.91
-6.88
-10.60
-14.14
-17.65
-21.28
-25.17
-29.38
-33.81
-38.11
-41.70
-43.86
-43.95
-41.63
-37.03
-30.66
-23.32
-15.73
-8.37
-1.44
5.03
10.98
16.27
20.65
23.98
26.27
27.71
28.64
29.29
29.71
29.82
29.48
28.64
27.40
26.02
24.71
23.56
22.38
20.88
18.72
15.76
12.10
8.06
4.04
0.35
-2.93
-5.91
-8.84
-11.95
-15.36
-19.02
-22.74
-26.23
-29.12
-31.03
-31.64
-30.71
-28.21
-24.26
-19.21
-13.47
-7.48
-1.56
4.09
9.38
14.23
18.48
21.93
24.34
25.59
25.74
25.07
23.88
22.49
21.10
19.74
18.44
17.16
15.90
14.65
13.36
11.90
10.09
7.81
5.04
1.95
-1.20
-4.18
-6.82
-9.19
-11.49
-13.98
-16.82
-19.95
-22.97
-25.36
-26.51
-26.02
-23.77
-20.03
-15.30
-10.19
-5.17
-0.53
3.70
7.60
11.21
14.47
17.20
19.22
20.44
20.97
21.00
20.74
20.32
19.77
19.01
18.05
16.95
15.83
14.83
13.99
13.18
12.21
10.88
9.06
6.81
4.30
1.80
-0.48
-2.44
-4.10
-5.60
-7.16
-8.95
-11.10
-13.61
-16.35
-19.01
-21.23
-22.62
-22.92
-22.02
-19.99
-17.05
-13.49
-9.60
-5.61
-1.72
1.93
5.15
7.80
9.75
10.98
11.54
11.59
11.35
10.99
10.62
10.27
9.92
9.52
9.06
8.53
8.00
7.52
7.11
6.77
6.45
6.09
5.55
4.77
3.71
2.43
1.03
-0.36
-1.66
-2.87
-4.06
-5.40
-7.02
-8.99
-11.24
-13.54
-15.57
-16.99
-17.51
-17.00
-15.53
-13.31
-10.63
-7.79
-4.99
-2.39
-0.05
1.98
3.63
4.86
5.68
6.16
6.40
6.49
6.44
6.23
5.89
5.48
5.16
5.07
5.21
5.46
5.60
5.42
4.80
3.73
2.32
0.71
-0.94
-2.50
-3.87
-5.01
-5.92
-6.71
-7.61
-8.80
-10.42
-12.42
-14.57
-16.52
-17.91
-18.44
-17.99
-16.63
-14.54
-12.02
-9.32
-6.65
-4.12
-1.75
0.41
2.27
3.69
4.53
4.78
4.54
4.06
3.65
3.50
3.65
3.98
4.33
4.56
4.62
4.57
4.44
4.25
3.92
3.34
2.43
1.23
-0.16
-1.56
-2.83
-3.89
-4.82
-5.79
-6.99
-8.57
-10.56
-12.85
-15.27
-17.61
-19.69
-21.28
-22.13
-21.98
-20.62
-18.03
-14.37
-9.98
-5.28
-0.61
3.85
8.01
11.82
15.13
17.61
18.89
18.64
16.76
13.52
9.46
5.33
1.76
-0.90
-2.63
-3.81
-4.95
-6.45
-8.52
-11.10
-13.90
-16.61
-18.96
-20.80
-22.14
-23.07
-23.76
-24.38
-25.11
-26.08
-27.31
-28.79
-30.43
-32.15
-33.92
-35.82
-37.98
-40.50
-43.35
-46.24
-48.62
-49.78
-49.01
-45.82
-40.08
-32.13
-22.70
-12.68
-2.96
5.77
13.23
19.35
24.26
28.10
31.00
33.01
34.26
34.98
35.49
36.16
37.20
38.59
40.08
41.33
42.03
42.04
41.45
40.47
39.35
38.17
36.84
35.19
33.01
30.20
26.83
23.04
19.10
15.26
11.74
8.69
6.12
3.92
1.81
-0.55
-3.50
-7.19
-11.48
-15.91
-19.69
-21.90
-21.77
-18.89
-13.36
-5.78
3.01
12.17
21.15
29.64
37.54
44.84
51.59
57.93
64.21
70.97
78.77
88.01
98.79
110.87
123.76
136.85
149.38
160.44
169.07
174.44
176.16
174.41
169.97
163.93
157.33
150.85
144.72
138.87
133.03
126.97
120.41
113.07
104.53
94.43
82.58
69.13
54.64
39.89
25.77
12.94
1.72
-7.96
-16.41
-24.00
-30.95
-37.26
-42.77
-47.26
-50.72
-53.32
-55.45
-57.62
-60.30
-63.83
-68.39
-74.03
-80.67
-88.14
-96.08
-103.90
-110.89
-116.36
-119.80
-121.09
-120.52
-118.68
-116.22
-113.66
-111.26
-109.11
-107.22
-105.59
-104.35
-103.57
-103.30
-103.50
-104.05
-104.76
-105.48
-106.04
-106.22
-105.79
-104.56
-102.47
-99.73
-96.79
-94.27
-92.68
-92.28
-92.90
-93.99
-94.83
-94.75
-93.38
-90.72
-87.08
-82.90
-78.64
-74.67
-71.21
-68.35
-66.03
-64.06
-62.12
-59.81
-56.72
-52.61
-47.41
-41.32
-34.70
-27.99
-21.56
-15.67
-10.44
-5.90
-2.00
1.37
4.27
6.77
8.92
10.71
12.12
13.16
13.85
14.22
14.38
14.42
14.42
14.40
14.33
14.14
13.77
13.21
12.46
11.59
10.61
9.53
8.31
6.87
5.15
3.15
1.01
-1.02
-2.60
-3.38
-3.15
-1.91
0.07
2.40
4.69
6.65
8.24
9.57
10.81
12.04
13.19
14.13
14.75
15.06
15.21
15.41
15.86
16.63
17.64
18.71
19.65
20.29
20.56
20.50
20.21
19.80
19.35
18.86
18.24
17.39
16.23
14.82
13.31
11.91
10.72
9.68
8.60
7.19
5.29
2.90
0.23
-2.43
-4.84
-6.86
-8.47
-9.69
-10.46
-10.65
-10.12
-8.79
-6.73
-4.16
-1.35
1.41
3.94
6.14
7.97
9.39
10.39
10.98
11.30
11.51
11.79
12.23
12.80
13.33
13.65
13.67
13.43
13.07
12.80
12.75
12.90
13.10
13.09
12.66
11.70
10.31
8.71
7.15
5.78
4.58
3.40
2.07
0.51
-1.25
-3.11
-4.99
-6.84
-8.56
-9.93
-10.63
-10.29
-8.81
-6.34
-3.37
-0.43
2.13
4.27
6.19
8.11
10.08
11.94
13.50
14.58
15.25
15.71
16.19
16.79
17.46
18.07
18.46
18.61
18.52
18.26
17.87
17.35
16.65
15.71
14.53
13.08
11.48
9.80
8.14
6.58
5.11
3.67
2.17
0.55
-1.25
-3.26
-5.52
-8.06
-10.85
-13.77
-16.51
-18.67
-19.81
-19.68
-18.23
-15.66
-12.36
-8.76
-5.20
-1.88
1.09
3.65
5.74
7.31
8.43
9.19
9.76
10.30
10.88
11.45
11.92
12.14
12.06
11.73
11.26
10.84
10.60
10.57
10.65
10.69
10.48
9.84
8.68
6.98
4.85
2.47
0.09
-2.14
-4.12
-5.90
-7.63
-9.51
-11.65
-14.09
-16.70
-19.27
-21.52
-23.14
-23.85
-23.42
-21.76
-19.00
-15.46
-11.57
-7.72
-4.16
-0.95
1.98
4.71
7.26
9.58
11.56
13.09
14.14
14.77
15.10
15.28
15.41
15.47
15.41
15.15
14.70
14.18
13.78
13.57
13.50
13.31
12.73
11.60
9.96
8.08
6.26
4.73
3.51
2.42
1.18
-0.50
-2.78
-5.70
-9.12
-12.73
-16.07
-18.64
-19.98
-19.78
-18.04
-14.99
-11.07
-6.86
-2.82
0.75
3.76
6.34
8.64
10.75
12.60
14.02
14.86
15.13
15.04
14.93
15.05
15.49
16.04
16.38
16.24
15.52
14.37
13.05
11.82
10.81
9.99
9.29
8.51
7.53
6.23
4.58
2.56
0.22
-2.40
-5.24
-8.14
-10.89
-13.19
-14.69
-15.08
-14.20
-12.09
-9.01
-5.40
-1.68
1.77
4.74
7.11
8.91
10.19
11.05
11.56
11.81
11.86
11.80
11.74
11.81
12.10
12.65
13.39
14.17
14.74
14.87
14.42
13.34
11.74
9.77
7.66
5.64
3.87
2.46
1.37
0.43
-0.56
-1.88
-3.72
-6.17
-9.10
-12.20
-15.01
-17.02
-17.78
-17.09
-15.06
-12.07
-8.66
-5.30
-2.26
0.39
2.71
4.76
6.52
7.88
8.75
9.18
9.37
9.57
9.97
10.65
11.50
12.35
13.05
13.55
13.86
14.01
13.98
13.71
13.08
11.99
10.42
8.46
6.29
4.12
2.15
0.44
-1.08
-2.64
-4.47
-6.81
-9.69
-12.93
-16.19
-18.97
-20.79
-21.32
-20.46
-18.33
-15.27
-11.68
-7.95
-4.34
-0.96
2.15
4.98
7.47
9.55
11.13
12.23
12.95
13.48
14.02
14.66
15.38
15.97
16.21
15.93
15.17
14.11
13.03
12.11
11.30
10.42
9.20
7.49
5.38
3.13
1.00
-0.84
-2.50
-4.17
-6.08
-8.35
-11.03
-14.10
-17.49
-21.07
-24.54
-27.46
-29.28
-29.59
-28.27
-25.54
-21.88
-17.79
-13.67
-9.67
-5.84
-2.17
1.28
4.39
6.98
8.92
10.15
10.76
10.94
10.90
10.89
11.04
11.34
11.69
11.89
11.82
11.45
10.90
10.28
9.64
8.93
8.00
6.73
5.15
3.46
1.94
0.79
0.01
-0.67
-1.65
-3.29
-5.69
-8.66
-11.73
-14.34
-16.05
-16.58
-15.91
-14.17
-11.60
-8.42
-4.89
-1.25
2.23
5.34
7.91
9.86
11.23
12.19
12.94
13.71
14.64
15.76
16.93
17.98
18.71
18.96
18.72
18.08
17.20
16.22
15.25
14.24
13.09
11.68
9.97
8.06
6.13
4.36
2.80
1.33
-0.24
-2.11
-4.36
-6.94
-9.79
-12.85
-16.00
-19.05
-21.59
-23.10
-23.11
-21.46
-18.38
-14.48
-10.46
-6.83
-3.78
-1.17
1.25
3.67
6.05
8.20
9.89
11.00
11.61
11.87
11.96
11.93
11.76
11.35
10.65
9.76
8.91
8.39
8.36
8.79
9.39
9.79
9.59
8.61
6.90
4.73
2.43
0.33
-1.43
-2.86
-4.10
-5.36
-6.87
-8.80
-11.21
-14.06
-17.18
-20.21
-22.70
-24.18
-24.29
-22.88
-20.10
-16.38
-12.27
-8.30
-4.73
-1.59
1.27
4.01
6.66
9.10
11.07
12.37
13.00
13.14
13.10
13.13
13.34
13.66
13.93
13.98
13.77
13.37
12.92
12.50
12.12
11.63
10.86
9.67
8.02
5.99
3.75
1.49
-0.65
-2.56
-4.26
-5.85
-7.53
-9.50
-11.91
-14.71
-17.66
-20.30
-22.07
-22.52
-21.44
-18.98
-15.58
-11.82
-8.22
-5.02
-2.18
0.48
3.10
5.59
7.65
8.98
9.48
9.40
9.17
9.28
9.91
10.92
11.93
12.53
12.54
12.04
11.32
10.66
10.19
9.83
9.40
8.69
7.64
6.28
4.74
3.13
1.50
-0.15
-1.87
-3.66
-5.45
-7.23
-8.99
-10.85
-12.91
-15.23
-17.60
-19.61
-20.74
-20.62
-19.13
-16.53
-13.24
-9.73
-6.32
-3.07
0.06
3.11
5.98
8.46
10.28
11.31
11.62
11.45
11.14
10.93
10.96
11.18
11.42
11.59
11.64
11.59
11.49
11.34
11.05
10.50
9.61
8.30
6.59
4.57
2.36
0.04
-2.23
-4.36
-6.28
-7.96
-9.50
-11.02
-12.69
-14.65
-16.93
-19.42
-21.82
-23.66
-24.44
-23.77
-21.54
-18.02
-13.70
-9.22
-5.08
-1.55
1.31
3.64
5.59
7.25
8.67
9.88
10.90
11.76
12.47
12.99
13.28
13.30
13.05
12.57
11.94
11.22
10.42
9.52
8.48
7.30
5.97
4.53
3.04
1.51
-0.01
-1.55
-3.11
-4.74
-6.50
-8.54
-10.91
-13.55
-16.26
-18.69
-20.38
-20.94
-20.17
-18.08
-14.99
-11.36
-7.71
-4.44
-1.70
0.52
2.40
4.08
5.59
6.82
7.63
7.94
7.82
7.43
6.93
6.46
6.03
5.65
5.32
5.09
4.98
4.95
4.87
4.55
3.82
2.60
0.94
-1.05
-3.24
-5.52
-7.86
-10.31
-12.94
-15.82
-18.86
-21.88
-24.50
-26.27
-26.82
-26.00
-23.93
-21.00
-17.67
-14.32
-11.17
-8.22
-5.38
-2.56
0.20
2.84
5.20
7.19
8.75
9.91
10.74
11.34
11.79
12.16
12.52
12.87
13.16
13.29
13.12
12.53
11.43
9.82
7.75
5.37
2.82
0.32
-2.02
-4.11
-5.99
-7.79
-9.70
-11.91
-14.54
-17.52
-20.60
-23.34
-25.25
-25.86
-24.90
-22.40
-18.68
-14.28
-9.80
-5.72
-2.25
0.66
3.24
5.70
8.09
10.32
12.16
13.39
13.95
13.97
13.70
13.43
13.35
13.48
13.74
13.93
13.93
13.59
12.90
11.84
10.48
8.87
7.08
5.15
3.10
0.96
-1.28
-3.60
-6.04
-8.69
-11.68
-15.06
-18.73
-22.27
-25.12
-26.65
-26.48
-24.55
-21.13
-16.73
-11.84
-6.89
-2.12
2.29
6.20
9.51
12.16
14.20
15.77
17.04
18.12
19.01
19.64
19.94
19.93
19.73
19.55
19.56
19.77
20.03
20.06
19.54
18.31
16.37
13.89
11.15
8.42
5.84
3.42
1.12
-1.15
-3.48
-5.97
-8.73
-11.82
-15.23
-18.77
-22.06
-24.53
-25.68
-25.16
-22.92
-19.30
-14.80
-10.02
-5.44
-1.38
2.12
5.08
7.63
9.83
11.66
13.09
14.10
14.81
15.37
15.91
16.47
16.98
17.33
17.43
17.31
17.06
16.80
16.49
16.05
15.30
14.10
12.42
10.31
7.92
5.39
2.82
0.25
-2.36
-5.08
-8.00
-11.17
-14.58
-18.05
-21.29
-23.89
-25.42
-25.52
-24.06
-21.20
-17.35
-13.03
-8.72
-4.70
-1.09
2.14
5.00
7.42
9.32
10.65
11.48
11.99
12.32
12.54
12.58
12.36
11.81
11.01
10.09
9.24
8.52
7.92
7.29
6.47
5.30
3.71
1.73
-0.51
-2.90
-5.36
-7.89
-10.60
-13.62
-17.00
-20.58
-24.05
-26.95
-28.83
-29.39
-28.52
-26.36
-23.23
-19.65
-16.14
-13.21
-11.16
-10.09
-9.80
-10.05
-10.59
-11.32
-12.34
-13.83
-15.98
-18.90
-22.54
-26.75
-31.32
-36.07
-40.96
-46.14
-51.84
-58.32
-65.69
-73.76
-82.10
-90.08
-97.02
-102.26
-105.22
-105.58
-103.36
-99.16
-94.17
-89.86
-87.52
-87.71
-89.94
-92.82
-94.47
-93.23
-88.13
-79.03
-66.44
-51.24
-34.35
-16.61
1.22
18.36
34.09
47.77
58.96
67.56
73.82
78.20
81.27
83.49
85.09
86.15
86.66
86.63
86.13
85.24
83.90
81.85
78.69
73.97
67.40
58.97
48.97
37.93
26.46
15.12
4.31
-5.81
-15.38
-24.76
-34.42
-44.75
-55.69
-66.63
-76.32
-83.11
-85.50
-82.62
-74.51
-62.12
-46.93
-30.41
-13.65
2.74
18.53
33.56
47.56
60.13
70.94
79.84
87.02
92.87
97.83
102.23
106.21
109.75
112.76
115.25
117.31
119.13
120.85
122.56
124.18
125.50
126.16
125.82
124.21
121.22
116.91
111.47
105.12
97.97
90.05
81.30
71.68
61.34
50.64
40.13
30.45
22.08
15.31
10.17
6.54
4.20
2.95
2.62
3.05
4.05
5.37
6.75
7.92
8.73
9.13
9.24
9.20
9.21
9.35
9.58
9.79
9.91
9.87
9.68
9.34
8.76
7.83
6.40
4.43
1.95
-0.91
-3.97
-7.07
-10.11
-13.02
-15.79
-18.41
-20.92
-23.36
-25.82
-28.42
-31.23
-34.20
-37.14
-39.67
-41.25
-41.48
-40.14
-37.33
-33.43
-28.97
-24.41
-20.07
-16.06
-12.39
-9.07
-6.17
-3.84
-2.16
-1.12
-0.56
-0.20
0.24
0.89
1.74
2.59
3.21
3.47
3.41
3.19
2.99
2.83
2.62
2.15
1.22
-0.22
-2.08
-4.18
-6.36
-8.57
-10.88
-13.46
-16.42
-19.68
-22.99
-25.94
-28.11
-29.19
-29.04
-27.75
-25.55
-22.71
-19.51
-16.17
-12.88
-9.76
-6.93
-4.44
-2.34
-0.64
0.61
1.39
1.70
1.62
1.35
1.14
1.18
1.52
2.07
2.60
2.88
2.78
2.29
1.52
0.57
-0.51
-1.75
-3.14
-4.63
-6.13
-7.53
-8.87
-10.31
-12.11
-14.45
-17.25
-20.19
-22.72
-24.36
-24.75
-23.84
-21.78
-18.84
-15.32
-11.43
-7.41
-3.47
0.11
3.10
5.34
6.82
7.63
7.98
8.05
8.00
7.94
7.91
7.90
7.90
7.87
7.77
7.60
7.33
6.95
6.38
5.54
4.30
2.61
0.54
-1.71
-3.84
-5.62
-6.93
-7.94
-8.92
-10.24
-12.16
-14.74
-17.78
-20.86
-23.45
-25.05
-25.34
-24.21
-21.80
-18.45
-14.56
-10.48
-6.53
-2.92
0.19
2.67
4.48
5.64
6.29
6.61
6.81
7.03
7.31
7.65
7.96
8.19
8.31
8.32
8.24
8.06
7.77
7.26
6.45
5.25
3.61
1.61
-0.57
-2.66
-4.40
-5.64
-6.47
-7.19
-8.28
-10.16
-13.00
-16.52
-20.06
-22.74
-23.82
-22.94
-20.27
-16.35
-11.89
-7.51
-3.56
-0.21
2.48
4.45
5.65
6.07
5.86
5.30
4.71
4.37
4.36
4.57
4.82
4.94
4.88
4.63
4.26
3.77
3.10
2.19
1.04
-0.27
-1.60
-2.85
-4.02
-5.22
-6.63
-8.39
-10.51
-12.86
-15.27
-17.53
-19.46
-20.90
-21.62
-21.35
-19.94
-17.35
-13.79
-9.66
-5.42
-1.48
1.95
4.80
7.04
8.63
9.51
9.65
9.19
8.40
7.61
7.07
6.83
6.80
6.77
6.59
6.21
5.66
4.98
4.18
3.20
1.95
0.45
-1.21
-2.86
-4.32
-5.55
-6.63
-7.77
-9.19
-11.10
-13.54
-16.38
-19.33
-21.98
-23.90
-24.72
-24.19
-22.31
-19.28
-15.45
-11.26
-7.07
-3.21
0.13
2.88
5.06
6.75
8.05
9.11
10.01
10.82
11.54
12.12
12.52
12.72
12.69
12.47
12.11
11.68
11.21
10.67
9.98
9.01
7.67
6.01
4.18
2.39
0.76
-0.72
-2.23
-3.99
-6.22
-9.00
-12.31
-16.00
-19.86
-23.57
-26.75
-28.97
-29.84
-29.15
-26.99
-23.68
-19.77
-15.72
-11.87
-8.36
-5.14
-2.16
0.58
2.96
4.85
6.20
7.13
7.84
8.56
9.38
10.30
11.16
11.84
12.29
12.56
12.74
12.84
12.80
12.46
11.70
10.51
8.93
7.10
5.14
3.14
1.19
-0.67
-2.37
-3.98
-5.63
-7.55
-9.91
-12.79
-15.98
-19.06
-21.50
-22.77
-22.59
-20.91
-17.99
-14.25
-10.21
-6.23
-2.53
0.82
3.86
6.53
8.72
10.24
10.96
10.93
10.41
9.75
9.21
8.93
8.81
8.68
8.33
7.68
6.78
5.74
4.74
3.89
3.26
2.78
2.33
1.75
0.87
-0.39
-2.02
-3.96
-6.10
-8.36
-10.72
-13.17
-15.72
-18.38
-21.18
-24.08
-26.97
-29.62
-31.66
-32.66
-32.21
-30.12
-26.47
-21.65
-16.26
-10.87
-5.93
-1.62
2.02
5.06
7.60
9.71
11.46
12.90
14.11
15.17
16.13
16.94
17.54
17.83
17.75
17.32
16.62
15.77
14.83
13.85
12.77
11.48
9.86
7.79
5.22
2.17
-1.28
-4.97
-8.75
-12.47
-16.07
-19.53
-22.94
-26.36
-29.74
-32.92
-35.53
-37.15
-37.41
-36.11
-33.28
-29.23
-24.37
-19.18
-14.06
-9.27
-4.93
-1.06
2.37
5.33
7.79
9.70
11.08
12.08
12.90
13.77
14.82
16.02
17.24
18.32
19.14
19.69
20.01
20.12
19.99
19.49
18.51
16.96
14.90
12.48
9.89
7.22
4.51
1.64
-1.55
-5.20
-9.23
-13.39
-17.27
-20.43
-22.54
-23.45
-23.13
-21.67
-19.17
-15.78
-11.70
-7.24
-2.75
1.43
5.05
8.00
10.26
11.87
12.87
13.31
13.33
13.18
13.21
13.76
14.98
16.79
18.88
20.83
22.25
22.93
22.88
22.22
21.07
19.55
17.68
15.51
13.12
10.66
8.23
5.90
3.68
1.47
-0.81
-3.20
-5.58
-7.70
-9.17
-9.61
-8.74
-6.54
-3.27
0.57
4.45
8.00
11.11
13.87
16.38
18.63
20.42
21.48
21.69
21.17
20.24
19.25
18.41
17.73
17.06
16.28
15.32
14.22
13.01
11.68
10.16
8.40
6.41
4.27
2.05
-0.20
-2.51
-4.92
-7.44
-10.08
-12.86
-15.83
-19.03
-22.33
-25.34
-27.49
-28.19
-27.08
-24.19
-19.98
-15.14
-10.32
-5.93
-2.08
1.24
4.11
6.50
8.31
9.49
10.08
10.28
10.29
10.32
10.44
10.63
10.85
11.05
11.26
11.46
11.62
11.62
11.29
10.50
9.17
7.32
5.10
2.67
0.20
-2.15
-4.35
-6.39
-8.34
-10.29
-12.38
-14.70
-17.25
-19.89
-22.31
-24.05
-24.60
-23.57
-20.93
-16.97
-12.31
-7.68
-3.63
-0.41
2.07
4.06
5.79
7.37
8.71
9.72
10.36
10.69
10.89
11.08
11.29
11.45
11.45
11.24
10.87
10.46
10.13
9.92
9.65
9.11
8.08
6.47
4.41
2.15
-0.01
-1.89
-3.44
-4.82
-6.25
-7.95
-10.09
-12.72
-15.74
-18.91
-21.90
-24.24
-25.54
-25.52
-24.12
-21.50
-17.99
-13.94
-9.71
-5.48
-1.43
2.37
5.81
8.79
11.24
13.16
14.57
15.58
16.32
16.94
17.60
18.32
19.04
19.59
19.74
19.36
18.44
17.16
15.77
14.48
13.33
12.22
10.97
9.42
7.57
5.48
3.24
0.97
-1.29
-3.49
-5.61
-7.68
-9.82
-12.18
-14.91
-18.01
-21.20
-24.00
-25.85
-26.31
-25.22
-22.75
-19.25
-15.17
-10.88
-6.67
-2.71
0.89
4.03
6.66
8.75
10.37
11.58
12.55
13.35
14.03
14.59
14.95
15.05
14.90
14.60
14.26
13.99
13.83
13.71
13.49
13.06
12.29
11.15
9.67
7.87
5.86
3.72
1.63
-0.29
-1.94
-3.41
-4.87
-6.59
-8.82
-11.67
-15.03
-18.57
-21.84
-24.37
-25.79
-25.93
-24.80
-22.57
-19.48
-15.83
-11.96
-8.14
-4.62
-1.55
1.04
3.19
5.01
6.58
7.90
8.91
9.57
9.87
9.94
9.94
10.05
10.35
10.78
11.21
11.47
11.41
10.98
10.19
9.09
7.70
6.03
4.10
2.01
-0.08
-1.97
-3.54
-4.80
-5.96
-7.35
-9.22
-11.66
-14.45
-17.16
-19.22
-20.16
-19.68
-17.81
-14.85
-11.25
-7.49
-3.91
-0.69
2.13
4.57
6.65
8.32
9.54
10.29
10.66
10.74
10.66
10.44
10.07
9.55
8.90
8.22
7.62
7.15
6.79
6.42
5.91
5.15
4.12
2.81
1.24
-0.55
-2.50
-4.50
-6.44
-8.27
-10.01
-11.78
-13.72
-15.95
-18.42
-20.88
-22.91
-24.04
-23.90
-22.36
-19.57
-15.95
-12.00
-8.13
-4.53
-1.22
1.89
4.83
7.49
9.70
11.33
12.39
13.02
13.40
13.62
13.66
13.44
12.90
12.11
11.27
10.60
10.22
10.11
10.15
10.12
9.88
9.23
8.09
6.39
4.18
1.61
-1.09
-3.64
-5.83
-7.60
-9.11
-10.64
-12.47
-14.78
-17.46
-20.17
-22.39
-23.59
-23.40
-21.75
-18.84
-15.13
-11.13
-7.23
-3.68
-0.51
2.35
4.94
7.24
9.18
10.67
11.68
12.28
12.63
12.89
13.21
13.60
14.01
14.29
14.28
13.91
13.23
12.40
11.57
10.87
10.27
9.61
8.72
7.46
5.86
4.08
2.31
0.72
-0.67
-1.95
-3.31
-4.94
-6.98
-9.45
-12.29
-15.36
-18.49
-21.42
-23.81
-25.30
-25.52
-24.25
-21.50
-17.61
-13.10
-8.57
-4.40
-0.75
2.43
5.29
7.91
10.17
11.91
12.98
13.42
13.47
13.49
13.78
14.43
15.32
16.14
16.58
16.45
15.74
14.59
13.24
11.89
10.65
9.50
8.34
7.07
5.57
3.82
1.83
-0.30
-2.48
-4.62
-6.67
-8.69
-10.75
-13.01
-15.54
-18.33
-21.20
-23.82
-25.72
-26.49
-25.87
-23.83
-20.61
-16.63
-12.35
-8.14
-4.24
-0.74
2.37
5.10
7.48
9.47
11.07
12.24
12.97
13.32
13.37
13.29
13.29
13.52
13.99
14.57
14.99
15.03
14.55
13.57
12.22
10.62
8.85
6.90
4.75
2.45
0.17
-1.85
-3.39
-4.40
-5.00
-5.46
-6.14
-7.33
-9.20
-11.70
-14.66
-17.80
-20.80
-23.39
-25.23
-26.00
-25.37
-23.14
-19.38
-14.49
-9.14
-4.06
0.18
3.37
5.63
7.27
8.54
9.52
10.14
10.33
10.13
9.76
9.55
9.68
10.11
10.60
10.85
10.65
10.02
9.17
8.36
7.83
7.58
7.49
7.35
6.95
6.23
5.19
3.88
2.35
0.64
-1.16
-2.95
-4.60
-6.05
-7.39
-8.81
-10.60
-12.91
-15.64
-18.40
-20.58
-21.60
-21.14
-19.25
-16.26
-12.66
-8.88
-5.25
-1.91
1.08
3.72
5.96
7.71
8.89
9.50
9.61
9.40
9.10
8.89
8.84
8.94
9.12
9.37
9.68
10.05
10.47
10.85
11.07
10.98
10.52
9.67
8.47
6.98
5.22
3.26
1.16
-1.02
-3.19
-5.26
-7.17
-8.89
-10.47
-12.06
-13.83
-15.90
-18.19
-20.40
-22.03
-22.58
-21.73
-19.50
-16.19
-12.25
-8.13
-4.14
-0.45
2.87
5.69
7.87
9.33
10.05
10.15
9.84
9.34
8.85
8.51
8.40
8.51
8.76
8.99
9.07
8.88
8.47
8.00
7.62
7.41
7.25
6.88
6.06
4.67
2.82
0.76
-1.23
-2.96
-4.44
-5.79
-7.21
-8.86
-10.80
-12.98
-15.24
-17.31
-18.94
-19.88
-19.94
-19.03
-17.12
-14.31
-10.80
-6.93
-3.11
0.29
3.01
5.01
6.40
7.33
7.98
8.39
8.62
8.74
8.86
9.11
9.54
10.10
10.60
10.86
10.77
10.39
9.85
9.31
8.79
8.23
7.51
6.50
5.19
3.63
1.93
0.20
-1.52
-3.23
-4.98
-6.81
-8.79
-10.92
-13.19
-15.52
-17.76
-19.69
-20.98
-21.31
-20.42
-18.23
-14.92
-10.88
-6.64
-2.65
0.72
3.34
5.25
6.54
7.36
7.86
8.14
8.34
8.56
8.81
9.03
9.12
8.98
8.61
8.12
7.69
7.46
7.45
7.49
7.31
6.63
5.28
3.28
0.86
-1.63
-3.90
-5.77
-7.25
-8.54
-9.90
-11.55
-13.56
-15.77
-17.90
-19.52
-20.21
-19.68
-17.84
-14.86
-11.09
-6.99
-3.03
0.45
3.23
5.27
6.63
7.41
7.76
7.82
7.76
7.71
7.74
7.87
8.00
8.04
7.91
7.62
7.22
6.85
6.60
6.50
6.44
6.26
5.72
4.66
3.06
1.08
-1.03
-3.04
-4.82
-6.50
-8.36
-10.67
-13.54
-16.80
-20.03
-22.69
-24.30
-24.58
-23.53
-21.38
-18.41
-14.94
-11.19
-7.32
-3.49
0.14
3.40
6.12
8.21
9.69
10.69
11.39
11.92
12.33
12.60
12.71
12.65
12.49
12.28
12.07
11.84
11.54
11.13
10.62
10.00
9.28
8.41
7.34
5.99
4.37
2.55
0.63
-1.28
-3.16
-5.04
-7.05
-9.38
-12.16
-15.36
-18.72
-21.80
-24.03
-24.96
-24.38
-22.37
-19.27
-15.53
-11.58
-7.75
-4.19
-0.99
1.85
4.35
6.48
8.25
9.61
10.59
11.21
11.64
12.04
12.58
13.30
14.14
14.96
15.62
16.00
16.10
15.96
15.61
15.03
14.15
12.91
11.29
9.32
7.14
4.92
2.84
1.02
-0.54
-1.94
-3.39
-5.11
-7.22
-9.78
-12.72
-15.86
-18.97
-21.70
-23.71
-24.65
-24.30
-22.63
-19.78
-16.08
-11.90
-7.57
-3.37
0.49
3.86
6.57
8.59
9.94
10.77
11.31
11.75
12.20
12.67
13.19
13.74
14.39
15.14
15.98
16.77
17.35
17.56
17.34
16.72
15.82
14.71
13.44
11.92
10.10
7.95
5.55
3.09
0.81
-1.12
-2.64
-3.81
-4.83
-5.94
-7.39
-9.31
-11.74
-14.54
-17.41
-19.92
-21.59
-22.01
-21.03
-18.76
-15.60
-12.05
-8.48
-5.13
-1.99
0.98
3.76
6.22
8.19
9.59
10.50
11.12
11.71
12.43
13.28
14.13
14.80
15.17
15.23
15.03
14.69
14.30
13.93
13.55
13.13
12.59
11.89
10.96
9.77
8.30
6.53
4.51
2.34
0.14
-1.96
-3.91
-5.72
-7.46
-9.23
-11.14
-13.31
-15.76
-18.42
-21.01
-23.10
-24.19
-23.89
-22.14
-19.19
-15.54
-11.73
-8.11
-4.78
-1.62
1.46
4.49
7.30
9.65
11.35
12.40
12.96
13.31
13.70
14.20
14.78
15.25
15.45
15.31
14.90
14.36
13.80
13.27
12.69
11.96
10.96
9.65
8.11
6.45
4.80
3.22
1.73
0.28
-1.15
-2.58
-4.09
-5.72
-7.61
-9.87
-12.56
-15.55
-18.50
-20.96
-22.48
-22.78
-21.75
-19.57
-16.51
-12.93
-9.14
-5.35
-1.75
1.54
4.41
6.80
8.64
9.92
10.73
11.18
11.49
11.81
12.23
12.66
12.94
12.92
12.59
12.13
11.75
11.64
11.75
11.85
11.56
10.59
8.87
6.59
4.11
1.73
-0.30
-1.96
-3.28
-4.42
-5.48
-6.64
-8.09
-10.00
-12.50
-15.50
-18.74
-21.73
-23.89
-24.79
-24.23
-22.27
-19.23
-15.49
-11.43
-7.34
-3.40
0.23
3.38
5.91
7.69
8.79
9.36
9.72
10.16
10.84
11.81
12.94
14.05
14.95
15.53
15.75
15.65
15.31
14.79
14.18
13.46
12.58
11.46
10.01
8.21
6.14
3.95
1.84
-0.05
-1.65
-3.01
-4.26
-5.61
-7.27
-9.38
-12.01
-15.13
-18.54
-21.88
-24.66
-26.35
-26.55
-25.16
-22.39
-18.75
-14.77
-10.89
-7.33
-4.14
-1.26
1.30
3.49
5.22
6.46
7.27
7.78
8.19
8.63
9.18
9.86
10.60
11.30
11.90
12.39
12.81
13.25
13.72
14.10
14.15
13.60
12.27
10.23
7.76
5.24
2.96
1.07
-0.48
-1.82
-3.11
-4.49
-6.08
-8.03
-10.46
-13.37
-16.58
-19.67
-22.09
-23.34
-23.11
-21.36
-18.34
-14.47
-10.21
-5.99
-2.11
1.21
3.91
5.98
7.52
8.65
9.52
10.27
10.97
11.62
12.14
12.46
12.52
12.35
12.03
11.66
11.32
11.02
10.75
10.45
10.06
9.48
8.58
7.26
5.46
3.25
0.87
-1.39
-3.33
-4.90
-6.23
-7.55
-9.07
-10.92
-13.10
-15.49
-17.82
-19.76
-20.91
-20.95
-19.72
-17.32
-14.06
-10.38
-6.58
-2.89
0.66
4.04
7.11
9.70
11.64
12.87
13.56
13.92
14.18
14.41
14.53
14.37
13.90
13.19
12.46
11.96
11.81
11.96
12.18
12.21
11.86
11.03
9.78
8.17
6.30
4.19
1.84
-0.70
-3.38
-6.07
-8.65
-11.07
-13.35
-15.57
-17.76
-19.85
-21.61
-22.72
-22.87
-21.87
-19.77
-16.84
-13.43
-9.95
-6.65
-3.63
-0.91
1.59
3.84
5.76
7.22
8.16
8.70
9.06
9.51
10.22
11.19
12.25
13.18
13.85
14.23
14.42
14.45
14.32
13.90
13.07
11.78
10.11
8.22
6.34
4.61
3.08
1.66
0.16
-1.64
-3.94
-6.78
-10.02
-13.34
-16.28
-18.36
-19.23
-18.74
-17.01
-14.34
-11.15
-7.90
-4.92
-2.43
-0.49
0.97
2.07
3.00
3.84
4.63
5.34
5.91
6.29
6.50
6.63
6.79
7.04
7.36
7.67
7.86
7.81
7.47
6.71
5.47
3.70
1.50
-0.90
-3.20
-5.17
-6.81
-8.37
-10.29
-12.95
-16.55
-20.93
-25.62
-29.93
-33.20
-34.87
-34.63
-32.50
-28.73
-23.82
-18.33
-12.83
-7.77
-3.39
0.19
3.01
5.15
6.72
7.83
8.63
9.23
9.82
10.51
11.39
12.47
13.60
14.57
15.10
15.04
14.33
13.09
11.54
9.92
8.42
7.05
5.70
4.24
2.53
0.57
-1.59
-3.92
-6.41
-9.13
-12.08
-15.13
-17.90
-19.89
-20.57
-19.66
-17.20
-13.56
-9.21
-4.57
0.08
4.55
8.65
12.17
14.87
16.59
17.37
17.37
16.90
16.23
15.56
14.98
14.56
14.35
14.34
14.48
14.69
14.79
14.67
14.21
13.36
12.12
10.55
8.76
6.87
4.96
3.06
1.09
-1.06
-3.51
-6.31
-9.34
-12.35
-14.95
-16.75
-17.46
-16.95
-15.33
-12.87
-9.90
-6.72
-3.57
-0.62
2.05
4.35
6.24
7.69
8.73
9.43
9.91
10.25
10.51
10.70
10.78
10.69
10.41
9.99
9.48
9.02
8.66
8.38
8.02
7.39
6.34
4.85
3.04
1.07
-0.90
-2.83
-4.77
-6.85
-9.18
-11.84
-14.78
-17.83
-20.66
-22.82
-23.86
-23.46
-21.54
-18.31
-14.21
-9.82
-5.65
-2.03
0.90
3.19
5.02
6.51
7.76
8.75
9.43
9.74
9.70
9.42
9.06
8.75
8.60
8.59
8.63
8.62
8.48
8.19
7.77
7.17
6.31
5.06
3.35
1.24
-1.08
-3.36
-5.32
-6.83
-7.96
-8.95
-10.11
-11.71
-13.78
-16.10
-18.21
-19.53
-19.60
-18.19
-15.41
-11.72
-7.69
-3.85
-0.58
1.97
3.88
5.29
6.41
7.40
8.33
9.24
10.07
10.78
11.33
11.72
11.96
12.06
12.00
11.74
11.29
10.65
9.92
9.14
8.36
7.51
6.49
5.24
3.73
2.09
0.46
-0.98
-2.17
-3.20
-4.26
-5.62
-7.43
-9.71
-12.24
-14.63
-16.44
-17.28
-16.95
-15.42
-12.92
-9.78
-6.43
-3.22
-0.38
2.01
4.00
5.68
7.16
8.43
9.45
10.14
10.44
10.38
10.06
9.62
9.16
8.77
8.45
8.20
7.96
7.63
7.16
6.47
5.58
4.55
3.47
2.36
1.20
-0.10
-1.69
-3.63
-5.96
-8.62
-11.56
-14.62
-17.59
-20.19
-22.02
-22.70
-21.97
-19.82
-16.52
-12.57
-8.56
-4.93
-1.92
0.58
2.80
4.98
7.14
9.08
10.48
11.04
10.75
9.89
8.93
8.27
8.10
8.32
8.67
8.87
8.72
8.22
7.41
6.39
5.15
3.67
1.93
-0.05
-2.19
-4.40
-6.67
-9.03
-11.59
-14.37
-17.23
-19.87
-21.83
-22.66
-22.04
-19.88
-16.37
-11.96
-7.17
-2.52
1.65
5.15
7.94
10.08
11.67
12.75
13.39
13.65
13.67
13.62
13.66
13.87
14.22
14.55
14.72
14.68
14.42
13.98
13.39
12.58
11.46
9.94
8.02
5.81
3.45
1.09
-1.22
-3.49
-5.79
-8.15
-10.61
-13.13
-15.63
-17.91
-19.71
-20.62
-20.32
-18.63
-15.65
-11.75
-7.46
-3.26
0.51
3.70
6.32
8.42
10.04
11.23
12.07
12.64
13.08
13.48
13.85
14.21
14.52
14.76
14.88
14.83
14.57
14.05
13.32
12.42
11.38
10.21
8.85
7.20
5.24
3.04
0.75
-1.48
-3.57
-5.61
-7.79
-10.32
-13.35
-16.86
-20.57
-24.01
-26.58
-27.76
-27.27
-25.15
-21.84
-17.94
-14.03
-10.54
-7.60
-5.14
-3.05
-1.23
0.28
1.44
2.24
2.72
2.96
3.09
3.24
3.46
3.79
4.25
4.77
5.26
5.65
5.84
5.76
5.38
4.66
3.59
2.26
0.81
-0.57
-1.72
-2.60
-3.35
-4.24
-5.61
-7.66
-10.40
-13.57
-16.71
-19.28
-20.77
-20.86
-19.50
-16.92
-13.55
-9.91
-6.45
-3.44
-0.94
1.10
2.76
4.09
5.06
5.66
5.88
5.77
5.46
5.11
4.89
4.90
5.15
5.51
5.83
5.91
5.60
4.86
3.78
2.45
0.94
-0.71
-2.54
-4.57
-6.79
-9.19
-11.77
-14.60
-17.79
-21.38
-25.17
-28.77
-31.63
-33.22
-33.23
-31.64
-28.68
-24.74
-20.23
-15.50
-10.86
-6.56
-2.80
0.32
2.79
4.69
6.16
7.35
8.36
9.32
10.32
11.42
12.57
13.69
14.68
15.47
16.03
16.39
16.52
16.40
15.97
15.18
14.11
12.84
11.47
10.01
8.40
6.52
4.27
1.59
-1.48
-4.82
-8.23
-11.35
-13.74
-14.94
-14.63
-12.80
-9.69
-5.78
-1.57
2.56
6.42
9.94
13.14
16.02
18.54
20.62
22.20
23.24
23.75
23.84
23.66
23.40
23.15
22.87
22.44
21.68
20.53
19.05
17.41
15.71
14.00
12.18
10.18
7.95
5.53
2.99
0.36
-2.41
-5.37
-8.54
-11.84
-15.13
-18.26
-21.04
-23.28
-24.74
-25.21
-24.56
-22.81
-20.11
-16.74
-12.92
-8.85
-4.66
-0.47
3.51
7.06
9.99
12.22
13.86
15.07
16.09
17.09
18.14
19.22
20.24
21.06
21.56
21.68
21.39
20.75
19.80
18.56
17.05
15.28
13.30
11.22
9.14
7.14
5.20
3.27
1.22
-1.02
-3.52
-6.27
-9.29
-12.53
-15.82
-18.83
-21.14
-22.29
-21.98
-20.22
-17.24
-13.53
-9.61
-5.87
-2.52
0.45
3.17
5.72
8.10
10.18
11.80
12.82
13.30
13.40
13.36
13.36
13.47
13.60
13.69
13.63
13.42
13.11
12.68
12.10
11.22
9.98
8.35
6.38
4.24
2.07
0.02
-1.81
-3.39
-4.76
-6.07
-7.51
-9.33
-11.73
-14.67
-17.90
-20.92
-23.11
-23.94
-23.14
-20.78
-17.26
-13.13
-8.98
-5.19
-1.98
0.66
2.81
4.56
5.94
6.97
7.65
8.02
8.19
8.27
8.37
8.55
8.79
9.01
9.13
9.06
8.84
8.50
8.12
7.68
7.08
6.16
4.80
3.01
0.95
-1.17
-3.14
-4.89
-6.50
-8.19
-10.21
-12.73
-15.75
-19.07
-22.25
-24.75
-26.04
-25.81
-24.02
-20.92
-16.98
-12.66
-8.39
-4.44
-1.00
1.83
4.03
5.67
6.88
7.83
8.66
9.47
10.31
11.15
12.01
12.84
13.64
14.39
15.05
15.58
15.98
16.23
16.30
16.15
15.66
14.69
13.17
11.11
8.64
5.97
3.29
0.68
-1.86
-4.43
-7.10
-9.94
-12.96
-16.13
-19.35
-22.40
-24.95
-26.52
-26.73
-25.38
-22.59
-18.83
-14.66
-10.58
-6.92
-3.78
-1.16
0.93
2.49
3.54
4.20
4.68
5.21
5.91
6.74
7.54
8.12
8.41
8.46
8.45
8.53
8.73
8.95
8.98
8.65
7.79
6.41
4.60
2.50
0.37
-1.61
-3.32
-4.77
-6.08
-7.46
-9.13
-11.25
-13.88
-16.91
-20.07
-22.94
-25.02
-25.87
-25.23
-23.13
-19.90
-16.00
-11.94
-8.08
-4.58
-1.48
1.25
3.62
5.56
6.98
7.79
7.98
7.58
6.75
5.67
4.52
3.45
2.50
1.67
0.89
0.14
-0.56
-1.22
-1.90
-2.78
-4.11
-6.09
-8.80
-12.07
-15.55
-18.86
-21.67
-23.89
-25.69
-27.39
-29.37
-31.97
-35.30
-39.19
-43.14
-46.38
-47.98
-47.10
-43.20
-36.28
-26.85
-15.90
-4.56
6.11
15.35
22.80
28.46
32.55
35.41
37.36
38.61
39.31
39.55
39.41
39.00
38.47
37.92
37.41
36.91
36.39
35.80
35.18
34.47
33.62
32.35
30.35
27.30
23.13
18.06
12.63
7.56
3.44
0.58
-1.15
-2.26
-3.47
-5.39
-8.33
-12.16
-16.34
-20.12
-22.70
-23.47
-22.10
-18.64
-13.39
-6.95
-0.02
6.71
12.68
17.58
21.34
24.04
25.85
26.90
27.26
26.98
26.10
24.67
22.85
20.86
18.92
17.25
15.96
14.92
13.87
12.42
10.30
7.38
3.81
-0.12
-4.06
-7.82
-11.35
-14.72
-18.04
-21.46
-25.06
-28.98
-33.25
-37.76
-42.19
-46.02
-48.65
-49.61
-48.72
-46.18
-42.46
-38.08
-33.49
-28.95
-24.60
-20.50
-16.84
-13.77
-11.44
-9.85
-8.80
-7.96
-7.04
-5.81
-4.29
-2.60
-0.87
0.82
2.52
4.28
6.08
7.75
9.08
9.82
9.86
9.22
8.04
6.49
4.66
2.60
0.27
-2.33
-5.29
-8.65
-12.47
-16.67
-20.97
-24.76
-27.18
-27.36
-24.68
-19.06
-10.97
-1.38
8.57
17.89
25.99
32.63
37.88
41.92
44.88
46.85
47.86
48.00
47.41
46.27
44.79
43.14
41.49
39.92
38.48
37.15
35.77
34.14
32.06
29.39
26.15
22.51
18.70
14.93
11.33
7.89
4.53
1.11
-2.48
-6.28
-10.26
-14.23
-17.87
-20.72
-22.33
-22.39
-20.85
-18.00
-14.36
-10.51
-6.84
-3.52
-0.48
2.39
5.08
7.46
9.28
10.45
11.05
11.34
11.64
12.13
12.74
13.24
13.45
13.32
12.99
12.62
12.27
11.83
11.11
9.94
8.35
6.51
4.63
2.78
0.88
-1.27
-3.83
-6.79
-10.00
-13.18
-16.09
-18.55
-20.46
-21.69
-22.11
-21.54
-19.93
-17.43
-14.34
-11.07
-7.98
-5.28
-2.96
-0.93
0.93
2.59
3.94
4.81
5.14
4.97
4.51
4.04
3.79
3.89
4.27
4.77
5.21
5.44
5.40
5.09
4.52
3.71
2.63
1.25
-0.44
-2.44
-4.74
-7.29
-10.06
-12.96
-15.80
-18.31
-20.10
-20.81
-20.22
-18.36
-15.56
-12.29
-8.99
-5.98
-3.30
-0.90
1.36
3.52
5.50
7.17
8.42
9.21
9.61
9.78
9.84
9.92
10.00
10.03
9.87
9.37
8.40
6.95
5.16
3.24
1.44
-0.12
-1.49
-2.82
-4.35
-6.23
-8.53
-11.23
-14.27
-17.53
-20.81
-23.81
-26.10
-27.23
-26.90
-25.03
-21.87
-17.80
-13.26
-8.57
-4.00
0.26
4.04
7.15
9.52
11.15
12.20
12.90
13.44
13.93
14.39
14.73
14.89
14.86
14.69
14.48
14.28
14.07
13.72
13.05
11.91
10.24
8.13
5.70
3.14
0.51
-2.17
-4.95
-7.84
-10.86
-13.97
-17.05
-19.91
-22.25
-23.68
-23.90
-22.80
-20.48
-17.27
-13.60
-9.76
-5.91
-2.08
1.67
5.16
8.09
10.14
11.20
11.41
11.13
10.79
10.66
10.80
11.12
11.45
11.69
11.78
11.78
11.68
11.44
10.93
10.01
8.52
6.40
3.71
0.66
-2.51
-5.55
-8.34
-10.98
-13.70
-16.78
-20.35
-24.31
-28.28
-31.79
-34.38
-35.73
-35.67
-34.19
-31.34
-27.32
-22.37
-16.83
-11.06
-5.40
-0.09
4.75
9.03
12.72
15.77
18.15
19.86
21.04
21.88
22.59
23.32
24.10
24.85
25.42
25.64
25.42
24.73
23.65
22.30
20.75
19.03
17.11
14.94
12.57
10.13
7.83
5.80
4.01
2.24
0.13
-2.64
-6.24
-10.54
-15.18
-19.69
-23.54
-26.34
-27.81
-27.81
-26.36
-23.63
-19.92
-15.63
-11.18
-6.86
-2.87
0.75
3.97
6.76
9.04
10.72
11.83
12.52
13.05
13.68
14.52
15.49
16.43
17.15
17.59
17.83
17.94
17.98
17.90
17.59
16.93
15.87
14.44
12.66
10.56
8.15
5.47
2.65
-0.09
-2.58
-4.72
-6.64
-8.60
-10.87
-13.67
-16.98
-20.60
-24.21
-27.39
-29.73
-30.87
-30.57
-28.76
-25.57
-21.31
-16.40
-11.30
-6.37
-1.86
2.04
5.25
7.78
9.70
11.20
12.47
13.69
14.89
15.99
16.90
17.58
18.03
18.32
18.46
18.38
18.00
17.31
16.33
15.23
14.12
13.05
11.91
10.52
8.70
6.40
3.68
0.75
-2.16
-4.83
-7.16
-9.21
-11.16
-13.28
-15.76
-18.63
-21.78
-24.87
-27.52
-29.35
-30.08
-29.57
-27.83
-25.02
-21.39
-17.24
-12.84
-8.47
-4.32
-0.59
2.57
5.12
7.08
8.58
9.83
10.94
11.92
12.70
13.20
13.40
13.45
13.54
13.86
14.40
15.02
15.43
15.39
14.75
13.54
11.88
9.91
7.73
5.40
2.93
0.39
-2.09
-4.43
-6.62
-8.78
-11.13
-13.81
-16.72
-19.50
-21.65
-22.69
-22.40
-20.82
-18.25
-15.10
-11.70
-8.23
-4.77
-1.31
2.09
5.28
8.07
10.26
11.77
12.66
13.15
13.50
13.92
14.46
15.03
15.49
15.71
15.67
15.42
15.03
14.52
13.86
13.00
11.90
10.52
8.86
6.94
4.76
2.39
-0.08
-2.46
-4.64
-6.49
-8.06
-9.49
-11.07
-13.07
-15.66
-18.80
-22.17
-25.19
-27.21
-27.70
-26.45
-23.65
-19.81
-15.53
-11.36
-7.57
-4.27
-1.37
1.22
3.48
5.41
6.93
8.09
8.96
9.69
10.40
11.10
11.78
12.35
12.78
13.06
13.25
13.43
13.62
13.77
13.79
13.53
12.85
11.69
9.99
7.80
5.25
2.53
-0.08
-2.37
-4.25
-5.83
-7.37
-9.18
-11.52
-14.48
-17.90
-21.49
-24.77
-27.25
-28.47
-28.17
-26.33
-23.17
-19.14
-14.76
-10.49
-6.55
-2.98
0.33
3.45
6.35
8.91
10.95
12.40
13.32
13.94
14.53
15.30
16.24
17.18
17.89
18.16
17.95
17.36
16.54
15.61
14.57
13.36
11.88
10.13
8.21
6.23
4.32
2.45
0.56
-1.46
-3.64
-5.94
-8.23
-10.46
-12.68
-15.06
-17.71
-20.58
-23.38
-25.65
-26.93
-26.90
-25.51
-22.99
-19.70
-16.03
-12.29
-8.65
-5.24
-2.11
0.70
3.15
5.23
6.98
8.41
9.56
10.50
11.29
12.00
12.71
13.39
14.02
14.50
14.75
14.74
14.54
14.24
13.95
13.68
13.33
12.76
11.84
10.48
8.70
6.63
4.41
2.16
0.01
-2.03
-3.98
-5.96
-8.11
-10.57
-13.39
-16.49
-19.57
-22.22
-24.00
-24.54
-23.70
-21.60
-18.54
-15.02
-11.48
-8.25
-5.45
-2.99
-0.75
1.37
3.31
4.89
5.95
6.43
6.51
6.46
6.55
6.90
7.41
7.90
8.23
8.47
8.79
9.31
9.98
10.46
10.30
9.11
6.79
3.55
-0.18
-3.92
-7.32
-10.25
-12.76
-15.01
-17.19
-19.48
-21.98
-24.68
-27.49
-30.20
-32.52
-34.18
-34.89
-34.48
-32.87
-30.16
-26.56
-22.43
-18.13
-13.94
-10.05
-6.55
-3.47
-0.85
1.19
2.60
3.41
3.81
4.13
4.68
5.68
7.10
8.75
10.34
11.59
12.41
12.73
12.59
11.97
10.85
9.18
7.01
4.51
1.94
-0.38
-2.27
-3.70
-4.84
-5.99
-7.54
-9.75
-12.63
-15.89
-18.94
-21.10
-21.75
-20.63
-17.82
-13.71
-8.81
-3.60
1.58
6.51
10.98
14.78
17.73
19.70
20.77
21.12
21.06
20.84
20.69
20.71
20.92
21.30
21.76
22.25
22.63
22.78
22.55
21.84
20.55
18.69
16.33
13.62
10.75
7.93
5.30
2.90
0.66
-1.59
-4.06
-6.91
-10.11
-13.45
-16.54
-18.89
-20.05
-19.74
-17.95
-14.89
-10.93
-6.47
-1.83
2.79
7.24
11.40
15.15
18.35
20.86
22.66
23.79
24.36
24.49
24.25
23.66
22.74
21.51
20.12
18.79
17.71
17.00
16.55
16.08
15.27
13.89
11.96
9.64
7.22
4.85
2.51
0.06
-2.71
-5.90
-9.46
-13.25
-17.05
-20.62
-23.74
-26.13
-27.53
-27.76
-26.73
-24.55
-21.47
-17.80
-13.88
-9.98
-6.28
-2.92
0.00
2.44
4.37
5.82
6.89
7.70
8.42
9.20
10.10
11.10
12.06
12.76
13.04
12.85
12.35
11.80
11.41
11.26
11.19
10.90
10.07
8.52
6.34
3.80
1.35
-0.70
-2.18
-3.23
-4.22
-5.63
-7.81
-10.86
-14.51
-18.24
-21.44
-23.61
-24.43
-23.82
-21.90
-18.90
-15.12
-10.95
-6.78
-2.94
0.33
3.00
5.18
6.98
8.51
9.77
10.75
11.45
11.95
12.35
12.73
13.05
13.21
13.12
12.77
12.28
11.84
11.58
11.48
11.35
10.88
9.88
8.31
6.34
4.26
2.30
0.50
-1.25
-3.15
-5.38
-7.99
-10.89
-13.96
-17.08
-20.11
-22.88
-25.06
-26.31
-26.33
-25.00
-22.46
-19.07
-15.23
-11.27
-7.36
-3.54
0.15
3.63
6.74
9.31
11.18
12.35
12.93
13.16
13.29
13.53
13.96
14.55
15.18
15.67
15.92
15.87
15.59
15.13
14.52
13.75
12.76
11.47
9.83
7.88
5.68
3.35
1.04
-1.15
-3.16
-5.02
-6.83
-8.77
-10.97
-13.52
-16.37
-19.32
-22.02
-24.05
-25.01
-24.59
-22.70
-19.49
-15.27
-10.48
-5.64
-1.16
2.62
5.58
7.70
9.17
10.19
10.93
11.51
11.98
12.35
12.64
12.86
13.02
13.04
12.83
12.31
11.53
10.66
9.93
9.46
9.18
8.81
7.99
6.54
4.52
2.24
0.12
-1.60
-2.92
-4.07
-5.41
-7.21
-9.56
-12.34
-15.22
-17.85
-19.95
-21.22
-21.50
-20.67
-18.74
-15.85
-12.28
-8.36
-4.46
-0.88
2.18
4.59
6.31
7.36
7.82
7.85
7.68
7.55
7.62
7.94
8.44
8.96
9.40
9.69
9.82
9.79
9.59
9.15
8.40
7.30
5.85
4.17
2.42
0.72
-0.84
-2.35
-3.98
-5.93
-8.40
-11.36
-14.60
-17.71
-20.21
-21.62
-21.65
-20.22
-17.50
-13.85
-9.71
-5.51
-1.57
1.89
4.75
6.97
8.55
9.55
10.07
10.27
10.32
10.34
10.37
10.44
10.50
10.56
10.62
10.68
10.70
10.61
10.27
9.58
8.47
6.98
5.19
3.22
1.15
-0.94
-2.98
-4.96
-6.87
-8.77
-10.80
-13.09
-15.73
-18.61
-21.41
-23.64
-24.83
-24.67
-23.11
-20.38
-16.86
-12.92
-8.89
-5.00
-1.43
1.68
4.23
6.21
7.67
8.79
9.74
10.66
11.58
12.47
13.19
13.63
13.69
13.40
12.88
12.28
11.80
11.52
11.41
11.29
10.94
10.11
8.67
6.66
4.24
1.67
-0.78
-2.96
-4.84
-6.56
-8.37
-10.53
-13.22
-16.41
-19.86
-23.07
-25.47
-26.52
-25.91
-23.65
-20.14
-16.00
-11.86
-8.17
-5.03
-2.32
0.26
2.90
5.60
8.16
10.31
11.81
12.61
12.86
12.78
12.60
12.47
12.40
12.32
12.11
11.72
11.15
10.48
9.79
9.12
8.39
7.47
6.26
4.69
2.84
0.82
-1.25
-3.33
-5.43
-7.60
-9.88
-12.24
-14.64
-17.08
-19.63
-22.37
-25.34
-28.35
-31.03
-32.87
-33.34
-32.13
-29.22
-24.91
-19.75
-14.30
-9.03
-4.20
0.13
3.95
7.24
9.90
11.84
13.02
13.63
13.98
14.46
15.38
16.84
18.74
20.80
22.71
24.22
25.19
25.55
25.31
24.49
23.12
21.21
18.83
16.08
13.10
10.08
7.17
4.47
1.99
-0.35
-2.65
-5.05
-7.68
-10.61
-13.82
-17.14
-20.25
-22.73
-24.14
-24.18
-22.71
-19.91
-16.12
-11.82
-7.45
-3.34
0.35
3.59
6.41
8.78
10.64
11.94
12.65
12.91
12.90
12.86
12.95
13.24
13.68
14.17
14.58
14.80
14.78
14.47
13.92
13.14
12.18
11.04
9.73
8.31
6.83
5.37
3.95
2.45
0.69
-1.53
-4.35
-7.71
-11.36
-14.87
-17.72
-19.46
-19.76
-18.55
-16.00
-12.51
-8.57
-4.68
-1.19
1.76
4.16
6.09
7.64
8.85
9.73
10.30
10.62
10.84
11.14
11.59
12.17
12.73
13.10
13.16
12.90
12.41
11.78
11.06
10.17
9.04
7.60
5.87
3.95
1.94
-0.08
-2.12
-4.25
-6.54
-9.05
-11.80
-14.75
-17.70
-20.35
-22.30
-23.14
-22.57
-20.58
-17.46
-13.67
-9.74
-6.03
-2.72
0.21
2.81
5.06
6.84
8.03
8.58
8.59
8.32
8.04
7.94
8.08
8.37
8.68
8.92
9.04
8.98
8.69
8.08
7.10
5.77
4.18
2.49
0.79
-0.87
-2.57
-4.47
-6.71
-9.38
-12.47
-15.83
-19.12
-21.83
-23.41
-23.39
-21.55
-18.09
-13.54
-8.64
-4.06
-0.21
2.84
5.22
7.13
8.65
9.73
10.28
10.28
9.87
9.31
8.86
8.64
8.59
8.55
8.32
7.83
7.15
6.44
5.80
5.24
4.63
3.83
2.71
1.23
-0.58
-2.64
-4.93
-7.47
-10.27
-13.26
-16.24
-18.90
-20.87
-21.88
-21.74
-20.51
-18.37
-15.60
-12.47
-9.20
-5.96
-2.85
0.04
2.57
4.64
6.12
6.97
7.23
7.06
6.74
6.53
6.64
7.07
7.71
8.34
8.71
8.66
8.16
7.28
6.16
4.95
3.69
2.38
0.95
-0.75
-2.88
-5.55
-8.75
-12.39
-16.17
-19.74
-22.60
-24.33
-24.57
-23.19
-20.30
-16.28
-11.59
-6.80
-2.38
1.35
4.19
6.15
7.31
7.87
8.02
7.97
7.87
7.84
8.00
8.36
8.91
9.51
9.97
10.11
9.84
9.15
8.19
7.14
6.10
5.06
3.92
2.50
0.66
-1.65
-4.39
-7.46
-10.69
-13.92
-16.94
-19.55
-21.53
-22.66
-22.80
-21.87
-19.91
-17.04
-13.51
-9.60
-5.58
-1.71
1.82
4.85
7.31
9.15
10.42
11.18
11.55
11.64
11.58
11.44
11.27
11.11
10.93
10.72
10.47
10.13
9.67
9.03
8.16
7.02
5.59
3.91
2.01
-0.08
-2.33
-4.76
-7.40
-10.31
-13.48
-16.78
-19.96
-22.62
-24.31
-24.70
-23.66
-21.34
-18.08
-14.24
-10.12
-5.90
-1.66
2.41
6.07
9.01
11.04
12.20
12.78
13.14
13.56
14.09
14.59
14.86
14.79
14.46
14.05
13.68
13.37
12.97
12.26
11.08
9.42
7.43
5.29
3.16
1.07
-1.03
-3.22
-5.58
-8.14
-10.89
-13.86
-17.01
-20.31
-23.54
-26.37
-28.34
-28.97
-27.94
-25.22
-21.08
-16.00
-10.57
-5.24
-0.25
4.30
8.40
11.96
14.85
16.97
18.30
19.02
19.43
19.85
20.50
21.42
22.45
23.41
24.14
24.54
24.69
24.67
24.54
24.27
23.70
22.62
20.91
18.61
15.92
13.16
10.64
8.53
6.80
5.31
3.81
2.07
-0.07
-2.77
-6.07
-9.83
-13.72
-17.18
-19.61
-20.56
-19.92
-17.95
-15.20
-12.25
-9.52
-7.17
-5.11
-3.15
-1.18
0.83
2.78
4.54
6.04
7.27
8.28
9.10
9.74
10.16
10.30
10.12
9.62
8.88
7.99
7.09
6.27
5.57
4.95
4.31
3.52
2.46
1.07
-0.65
-2.66
-4.85
-7.17
-9.54
-11.93
-14.36
-16.88
-19.58
-22.42
-25.23
-27.67
-29.30
-29.74
-28.80
-26.55
-23.29
-19.41
-15.27
-11.12
-7.17
-3.56
-0.42
2.20
4.28
5.94
7.30
8.47
9.53
10.49
11.38
12.28
13.26
14.37
15.55
16.67
17.52
17.91
17.73
17.01
15.83
14.34
12.60
10.63
8.40
5.91
3.25
0.54
-2.09
-4.58
-7.01
-9.53
-12.32
-15.44
-18.87
-22.45
-25.97
-29.12
-31.57
-32.99
-33.09
-31.73
-28.99
-25.12
-20.48
-15.46
-10.35
-5.40
-0.81
3.24
6.59
9.18
11.06
12.36
13.29
14.06
14.81
15.62
16.60
17.73
19.01
20.34
21.58
22.55
23.12
23.17
22.64
21.53
19.85
17.67
15.13
12.42
9.76
7.28
4.99
2.70
0.13
-2.94
-6.53
-10.39
-14.02
-16.80
-18.20
-17.96
-16.13
-13.08
-9.35
-5.44
-1.72
1.63
4.56
7.11
9.26
11.02
12.36
13.27
13.79
14.02
14.13
14.25
14.43
14.64
14.77
14.73
14.47
14.04
13.50
12.92
12.20
11.17
9.60
7.40
4.64
1.59
-1.43
-4.25
-6.85
-9.31
-11.82
-14.47
-17.30
-20.29
-23.33
-26.25
-28.76
-30.50
-31.07
-30.19
-27.83
-24.21
-19.79
-15.05
-10.41
-6.11
-2.25
1.13
3.99
6.27
7.96
9.12
9.93
10.61
11.38
12.32
13.42
14.60
15.71
16.67
17.38
17.80
17.89
17.62
16.98
16.00
14.69
13.04
11.07
8.79
6.32
3.74
1.19
-1.32
-3.87
-6.61
-9.65
-13.03
-16.61
-20.15
-23.33
-25.78
-27.19
-27.25
-25.81
-22.94
-18.93
-14.27
-9.51
-5.06
-1.14
2.24
5.23
7.96
10.51
12.86
14.97
16.84
18.49
19.96
21.26
22.35
23.19
23.72
23.89
23.69
23.09
22.09
20.76
19.16
17.36
15.43
13.36
11.11
8.65
5.99
3.26
0.63
-1.72
-3.77
-5.64
-7.59
-9.92
-12.78
-16.03
-19.28
-21.92
-23.44
-23.54
-22.26
-19.90
-16.84
-13.39
-9.78
-6.14
-2.58
0.75
3.72
6.23
8.30
9.94
11.22
12.13
12.65
12.84
12.79
12.63
12.49
12.43
12.43
12.44
12.41
12.27
11.99
11.47
10.62
9.38
7.74
5.80
3.76
1.78
-0.03
-1.65
-3.13
-4.61
-6.20
-8.05
-10.28
-12.98
-16.12
-19.50
-22.70
-25.15
-26.30
-25.78
-23.58
-20.07
-15.84
-11.54
-7.59
-4.16
-1.16
1.58
4.15
6.51
8.52
10.03
11.05
11.68
12.09
12.36
12.49
12.45
12.21
11.84
11.46
11.14
10.92
10.73
10.49
10.13
9.62
8.84
7.65
5.93
3.68
1.13
-1.37
-3.50
-5.19
-6.69
-8.44
-10.83
-13.96
-17.57
-21.11
-24.03
-25.99
-26.90
-26.82
-25.89
-24.16
-21.64
-18.39
-14.60
-10.59
-6.73
-3.35
-0.57
1.63
3.39
4.85
6.08
7.08
7.83
8.35
8.74
9.15
9.69
10.38
11.13
11.77
12.12
12.09
11.74
11.18
10.47
9.63
8.54
7.09
5.28
3.24
1.18
-0.68
-2.32
-3.93
-5.80
-8.19
-11.17
-14.56
-17.95
-20.89
-22.98
-23.96
-23.75
-22.42
-20.12
-17.05
-13.43
-9.53
-5.61
-1.92
1.31
3.98
6.09
7.72
8.97
9.98
10.78
11.43
11.97
12.48
13.04
13.68
14.34
14.86
15.06
14.79
14.06
12.94
11.60
10.17
8.70
7.16
5.47
3.62
1.65
-0.30
-2.16
-3.99
-6.01
-8.49
-11.54
-15.05
-18.52
-21.30
-22.78
-22.61
-20.85
-17.83
-14.07
-10.01
-5.99
-2.20
1.23
4.24
6.70
8.55
9.75
10.35
10.51
10.37
10.12
9.85
9.64
9.49
9.42
9.43
9.51
9.61
9.65
9.49
9.03
8.22
7.04
5.61
4.00
2.32
0.66
-0.96
-2.55
-4.13
-5.77
-7.57
-9.66
-12.09
-14.87
-17.76
-20.37
-22.22
-22.89
-22.19
-20.18
-17.16
-13.51
-9.61
-5.76
-2.19
0.96
3.60
5.72
7.34
8.55
9.43
10.04
10.43
10.65
10.77
10.85
10.95
11.07
11.19
11.30
11.38
11.46
11.51
11.39
10.91
9.87
8.17
5.94
3.47
1.12
-0.85
-2.42
-3.80
-5.32
-7.32
-9.93
-13.07
-16.41
-19.53
-21.98
-23.47
-23.81
-22.99
-21.11
-18.38
-15.06
-11.37
-7.56
-3.82
-0.32
2.78
5.35
7.26
8.45
8.96
8.93
8.65
8.48
8.67
9.36
10.45
11.71
12.82
13.52
13.67
13.30
12.55
11.55
10.37
8.98
7.30
5.32
3.16
1.04
-0.84
-2.34
-3.54
-4.66
-6.03
-7.99
-10.72
-14.21
-18.19
-22.19
-25.60
-27.80
-28.34
-27.10
-24.26
-20.24
-15.55
-10.69
-6.02
-1.76
1.94
5.06
7.60
9.66
11.34
12.76
14.02
15.15
16.16
17.02
17.74
18.36
18.97
19.63
20.33
21.00
21.50
21.73
21.65
21.29
20.70
19.90
18.77
17.19
15.07
12.47
9.70
7.11
4.97
3.30
1.86
0.27
-1.83
-4.53
-7.75
-11.18
-14.50
-17.40
-19.67
-21.15
-21.67
-21.12
-19.49
-16.94
-13.77
-10.37
-7.07
-4.12
-1.61
0.47
2.16
3.51
4.55
5.37
6.05
6.71
7.48
8.39
9.42
10.48
11.39
12.01
12.23
12.05
11.53
10.77
9.86
8.80
7.57
6.11
4.45
2.71
1.05
-0.38
-1.60
-2.71
-3.90
-5.34
-7.10
-9.16
-11.40
-13.73
-16.09
-18.48
-20.97
-23.63
-26.36
-28.89
-30.78
-31.51
-30.71
-28.30
-24.57
-20.05
-15.29
-10.71
-6.47
-2.58
0.97
4.09
6.63
8.48
9.62
10.24
10.60
10.92
11.35
11.91
12.53
13.17
13.85
14.53
15.20
15.73
15.95
15.72
15.03
13.96
12.68
11.32
9.95
8.57
7.15
5.70
4.23
2.70
1.06
-0.79
-2.92
-5.34
-7.94
-10.60
-13.20
-15.73
-18.22
-20.70
-23.00
-24.80
-25.65
-25.13
-23.10
-19.75
-15.56
-11.12
-6.91
-3.14
0.18
3.10
5.59
7.52
8.72
9.12
8.93
8.51
8.28
8.53
9.34
10.58
11.99
13.32
14.33
14.97
15.21
15.07
14.60
13.79
12.67
11.23
9.54
7.70
5.88
4.15
2.49
0.78
-1.17
-3.43
-6.02
-8.81
-11.69
-14.54
-17.27
-19.72
-21.56
-22.43
-22.01
-20.21
-17.19
-13.41
-9.35
-5.48
-2.00
1.03
3.67
5.94
7.80
9.13
9.88
10.08
9.93
9.71
9.69
10.03
10.72
11.56
12.33
12.88
13.11
13.04
12.66
11.93
10.75
9.05
6.82
4.23
1.50
-1.09
-3.39
-5.39
-7.23
-9.09
-11.11
-13.35
-15.75
-18.19
-20.43
-22.19
-23.16
-23.04
-21.71
-19.21
-15.81
-11.89
-7.85
-3.98
-0.42
2.74
5.43
7.55
9.05
9.92
10.31
10.48
10.69
11.11
11.71
12.35
12.80
12.96
12.85
12.59
12.28
11.88
11.27
10.30
8.90
7.17
5.32
3.55
1.95
0.41
-1.27
-3.26
-5.61
-8.25
-11.06
-13.97
-16.96
-19.98
-22.84
-25.17
-26.51
-26.47
-24.91
-22.08
-18.43
-14.51
-10.72
-7.20
-3.94
-0.80
2.26
5.17
7.77
9.93
11.57
12.79
13.73
14.50
15.18
15.72
16.05
16.12
15.97
15.70
15.42
15.15
14.82
14.24
13.24
11.68
9.60
7.12
4.45
1.82
-0.58
-2.68
-4.55
-6.33
-8.24
-10.49
-13.23
-16.43
-19.92
-23.32
-26.17
-28.01
-28.50
-27.49
-25.05
-21.44
-17.02
-12.22
-7.40
-2.90
1.09
4.45
7.18
9.38
11.14
12.58
13.79
14.81
15.67
16.40
17.02
17.52
17.89
18.13
18.21
18.16
18.01
17.78
17.49
17.08
16.40
15.31
13.66
11.43
8.78
5.96
3.29
1.01
-0.82
-2.30
-3.67
-5.21
-7.14
-9.62
-12.64
-16.11
-19.79
-23.34
-26.31
-28.28
-28.92
-28.08
-25.86
-22.50
-18.38
-13.84
-9.19
-4.64
-0.37
3.45
6.64
9.09
10.78
11.86
12.58
13.24
14.05
15.07
16.18
17.21
18.00
18.52
18.84
19.08
19.24
19.25
18.95
18.19
16.93
15.27
13.32
11.23
9.04
6.73
4.33
1.89
-0.48
-2.66
-4.60
-6.36
-8.08
-9.97
-12.20
-14.83
-17.82
-20.96
-23.89
-26.19
-27.43
-27.34
-25.86
-23.15
-19.53
-15.39
-11.06
-6.82
-2.87
0.64
3.58
5.88
7.55
8.70
9.50
10.09
10.61
11.12
11.63
12.11
12.58
13.06
13.56
14.05
14.49
14.78
14.89
14.79
14.46
13.90
13.07
11.87
10.22
8.15
5.76
3.28
0.99
-0.94
-2.45
-3.68
-4.90
-6.39
-8.34
-10.79
-13.64
-16.71
-19.72
-22.36
-24.26
-25.05
-24.44
-22.33
-18.92
-14.64
-10.05
-5.60
-1.58
1.91
4.88
7.30
9.09
10.15
10.50
10.38
10.17
10.24
10.79
11.72
12.75
13.54
13.89
13.78
13.41
12.97
12.60
12.26
11.81
11.05
9.90
8.39
6.62
4.76
2.85
0.91
-1.09
-3.18
-5.32
-7.52
-9.79
-12.19
-14.75
-17.45
-20.01
-22.00
-22.95
-22.56
-20.85
-18.12
-14.83
-11.37
-7.96
-4.61
-1.28
1.94
4.84
7.09
8.45
8.91
8.73
8.29
7.93
7.83
7.98
8.25
8.55
8.88
9.28
9.82
10.39
10.79
10.73
10.01
8.59
6.67
4.49
2.30
0.23
-1.72
-3.61
-5.55
-7.64
-9.94
-12.52
-15.33
-18.20
-20.82
-22.82
-23.87
-23.83
-22.72
-20.70
-17.95
-14.67
-10.98
-7.08
-3.20
0.40
3.54
6.13
8.18
9.76
10.93
11.76
12.33
12.75
13.16
13.63
14.20
14.75
15.16
15.31
15.17
14.77
14.22
13.58
12.84
11.91
10.63
8.87
6.63
4.01
1.28
-1.30
-3.55
-5.47
-7.24
-9.14
-11.45
-14.29
-17.58
-21.04
-24.21
-26.59
-27.78
-27.54
-25.88
-23.01
-19.32
-15.25
-11.18
-7.33
-3.79
-0.56
2.41
5.11
7.49
9.47
11.03
12.20
13.10
13.91
14.76
15.64
16.45
17.03
17.25
17.10
16.65
15.98
15.16
14.21
13.11
11.85
10.45
8.85
7.05
5.01
2.73
0.27
-2.20
-4.54
-6.64
-8.55
-10.48
-12.64
-15.18
-18.04
-20.98
-23.58
-25.37
-25.95
-25.14
-23.02
-19.86
-16.08
-12.06
-8.08
-4.26
-0.65
2.73
5.83
8.52
10.71
12.33
13.41
14.07
14.49
14.87
15.33
15.91
16.53
17.12
17.59
17.95
18.22
18.43
18.50
18.30
17.69
16.56
14.96
12.98
10.81
8.59
6.40
4.32
2.38
0.56
-1.23
-3.15
-5.41
-8.15
-11.41
-15.07
-18.89
-22.53
-25.59
-27.64
-28.30
-27.38
-24.88
-21.14
-16.64
-11.96
-7.53
-3.59
-0.20
2.68
5.06
6.94
8.32
9.30
10.03
10.74
11.60
12.65
13.75
14.70
15.29
15.41
15.14
14.71
14.33
14.11
14.00
13.82
13.32
12.33
10.86
9.03
7.07
5.14
3.32
1.58
-0.18
-2.04
-4.08
-6.30
-8.72
-11.31
-14.05
-16.89
-19.63
-22.03
-23.73
-24.41
-23.87
-22.07
-19.18
-15.50
-11.33
-6.98
-2.72
1.22
4.57
7.10
8.65
9.28
9.23
8.91
8.74
8.92
9.44
10.07
10.55
10.71
10.57
10.30
10.09
10.01
9.98
9.82
9.38
8.56
7.38
5.91
4.24
2.40
0.42
-1.65
-3.75
-5.86
-8.01
-10.26
-12.69
-15.29
-17.89
-20.15
-21.62
-21.86
-20.68
-18.14
-14.57
-10.46
-6.25
-2.27
1.31
4.37
6.86
8.66
9.72
10.04
9.82
9.35
8.96
8.87
9.11
9.55
9.96
10.13
9.97
9.52
8.92
8.29
7.68
7.04
6.23
5.16
3.83
2.30
0.70
-0.91
-2.54
-4.28
-6.23
-8.52
-11.17
-14.14
-17.29
-20.36
-22.99
-24.76
-25.34
-24.51
-22.31
-18.99
-14.95
-10.67
-6.58
-2.95
0.10
2.57
4.61
6.33
7.82
9.08
10.07
10.76
11.19
11.49
11.82
12.31
12.97
13.70
14.32
14.66
14.61
14.15
13.33
12.23
10.88
9.22
7.14
4.63
1.79
-1.10
-3.72
-5.89
-7.66
-9.40
-11.56
-14.50
-18.23
-22.41
-26.37
-29.36
-30.80
-30.41
-28.25
-24.71
-20.26
-15.44
-10.65
-6.18
-2.24
1.10
3.80
5.93
7.58
8.95
10.21
11.50
12.83
14.12
15.17
15.89
16.22
16.23
16.03
15.77
15.51
15.21
14.77
14.07
13.03
11.63
9.95
8.05
6.04
3.98
1.89
-0.23
-2.47
-4.95
-7.81
-11.16
-14.88
-18.66
-21.93
-24.07
-24.57
-23.25
-20.34
-16.34
-11.89
-7.56
-3.67
-0.33
2.54
5.06
7.27
9.16
10.68
11.77
12.45
12.76
12.86
12.95
13.18
13.58
14.07
14.43
14.45
14.02
13.18
12.08
10.83
9.44
7.79
5.71
3.19
0.39
-2.37
-4.82
-6.87
-8.72
-10.74
-13.19
-16.10
-19.11
-21.63
-23.04
-22.97
-21.35
-18.43
-14.70
-10.64
-6.65
-2.99
0.26
3.07
5.48
7.48
9.07
10.23
10.99
11.44
11.65
11.71
11.70
11.67
11.68
11.77
11.96
12.21
12.44
12.49
12.26
11.66
10.68
9.31
7.56
5.48
3.17
0.75
-1.70
-4.15
-6.66
-9.36
-12.33
-15.46
-18.48
-20.93
-22.38
-22.51
-21.23
-18.65
-15.08
-10.91
-6.57
-2.44
1.21
4.26
6.77
8.88
10.69
12.22
13.41
14.17
14.48
14.42
14.16
13.87
13.63
13.44
13.29
13.16
13.06
12.99
12.87
12.53
11.74
10.33
8.26
5.68
2.89
0.22
-2.17
-4.25
-6.24
-8.47
-11.20
-14.50
-18.13
-21.61
-24.30
-25.64
-25.33
-23.38
-20.14
-16.08
-11.68
-7.30
-3.15
0.64
3.97
6.78
8.99
10.58
11.59
12.11
12.23
12.09
11.88
11.72
11.72
11.91
12.21
12.48
12.59
12.41
11.89
11.01
9.74
8.07
6.04
3.72
1.30
-1.07
-3.27
-5.33
-7.38
-9.67
-12.32
-15.33
-18.48
-21.37
-23.53
-24.48
-23.96
-21.90
-18.50
-14.18
-9.49
-4.93
-0.89
2.45
5.10
7.16
8.70
9.77
10.40
10.65
10.69
10.72
10.95
11.42
11.99
12.43
12.50
12.08
11.18
9.97
8.62
7.26
5.88
4.39
2.68
0.67
-1.62
-4.10
-6.70
-9.43
-12.33
-15.45
-18.65
-21.60
-23.83
-24.86
-24.39
-22.38
-19.12
-15.04
-10.62
-6.28
-2.32
1.12
3.96
6.22
7.94
9.19
10.07
10.67
11.09
11.42
11.75
12.08
12.38
12.54
12.47
12.11
11.48
10.60
9.51
8.20
6.67
4.88
2.84
0.61
-1.71
-4.05
-6.41
-8.86
-11.57
-14.63
-18.00
-21.44
-24.51
-26.68
-27.50
-26.69
-24.31
-20.68
-16.31
-11.75
-7.43
-3.60
-0.33
2.46
4.92
7.13
9.08
10.75
12.07
13.08
13.85
14.47
14.98
15.35
15.54
15.54
15.35
15.04
14.63
14.09
13.33
12.23
10.72
8.77
6.45
3.90
1.23
-1.43
-4.06
-6.69
-9.44
-12.38
-15.53
-18.78
-21.87
-24.49
-26.26
-26.86
-26.10
-23.96
-20.60
-16.37
-11.70
-7.02
-2.65
1.23
4.59
7.47
9.94
12.02
13.70
14.97
15.87
16.43
16.73
16.79
16.63
16.30
15.82
15.28
14.74
14.23
13.72
13.10
12.23
10.95
9.19
6.97
4.45
1.90
-0.42
-2.40
-4.11
-5.83
-7.87
-10.49
-13.72
-17.36
-21.03
-24.25
-26.55
-27.53
-26.99
-24.89
-21.45
-17.07
-12.23
-7.38
-2.83
1.29
4.95
8.21
11.04
13.40
15.20
16.44
17.17
17.59
17.90
18.26
18.72
19.15
19.38
19.31
18.97
18.50
18.01
17.52
16.86
15.80
14.17
11.99
9.45
6.87
4.49
2.36
0.41
-1.53
-3.60
-5.88
-8.42
-11.26
-14.48
-18.11
-22.01
-25.80
-28.88
-30.63
-30.58
-28.66
-25.17
-20.65
-15.73
-10.87
-6.30
-2.05
1.86
5.38
8.40
10.75
12.42
13.51
14.27
14.97
15.79
16.68
17.49
17.98
18.04
17.68
17.06
16.40
15.80
15.25
14.56
13.57
12.16
10.32
8.21
5.99
3.78
1.66
-0.41
-2.48
-4.67
-7.08
-9.78
-12.83
-16.23
-19.86
-23.42
-26.46
-28.38
-28.71
-27.15
-23.83
-19.21
-14.00
-8.87
-4.30
-0.48
2.67
5.33
7.61
9.52
10.97
11.89
12.29
12.30
12.15
12.08
12.21
12.57
13.04
13.51
13.88
14.10
14.10
13.77
12.99
11.67
9.80
7.51
5.01
2.50
0.10
-2.20
-4.54
-7.07
-9.94
-13.20
-16.75
-20.31
-23.50
-25.77
-26.69
-25.98
-23.70
-20.15
-15.79
-11.08
-6.32
-1.75
2.48
6.12
8.95
10.78
11.60
11.64
11.24
10.81
10.54
10.46
10.46
10.40
10.30
10.26
10.37
10.60
10.79
10.69
10.10
8.94
7.27
5.24
3.04
0.80
-1.40
-3.51
-5.56
-7.65
-9.96
-12.67
-15.86
-19.44
-23.08
-26.25
-28.37
-28.97
-27.85
-25.07
-21.01
-16.18
-11.17
-6.48
-2.39
1.02
3.83
6.18
8.19
9.89
11.21
12.08
12.55
12.77
13.01
13.45
14.13
14.86
15.39
15.55
15.31
14.83
14.24
13.56
12.63
11.22
9.16
6.52
3.53
0.51
-2.29
-4.77
-7.01
-9.13
-11.31
-13.72
-16.47
-19.57
-22.89
-26.09
-28.71
-30.23
-30.28
-28.77
-25.85
-21.86
-17.23
-12.32
-7.41
-2.71
1.59
5.33
8.41
10.80
12.59
13.92
14.92
15.69
16.29
16.75
17.12
17.42
17.64
17.76
17.70
17.42
16.93
16.34
15.73
15.10
14.28
13.08
11.28
8.87
6.01
3.03
0.23
-2.20
-4.29
-6.23
-8.28
-10.73
-13.75
-17.38
-21.42
-25.47
-28.90
-31.05
-31.38
-29.65
-25.97
-20.82
-14.85
-8.74
-3.03
1.96
6.13
9.53
12.25
14.40
16.04
17.19
17.89
18.20
18.27
18.28
18.43
18.82
19.44
20.15
20.75
21.07
20.99
20.47
19.52
18.14
16.38
14.26
11.88
9.31
6.67
4.04
1.45
-1.09
-3.56
-5.92
-8.13
-10.24
-12.44
-14.98
-18.11
-21.90
-26.13
-30.28
-33.67
-35.67
-35.82
-34.00
-30.41
-25.50
-19.83
-13.91
-8.19
-2.95
1.61
5.42
8.47
10.82
12.57
13.87
14.88
15.75
16.57
17.35
18.09
18.71
19.16
19.38
19.35
19.06
18.57
17.92
17.15
16.25
15.18
13.80
12.01
9.77
7.11
4.17
1.15
-1.74
-4.36
-6.68
-8.78
-10.80
-12.93
-15.34
-18.12
-21.19
-24.33
-27.10
-28.99
-29.51
-28.34
-25.48
-21.19
-15.96
-10.33
-4.76
0.44
5.09
9.05
12.23
14.50
15.84
16.31
16.15
15.65
15.20
15.07
15.43
16.25
17.35
18.45
19.24
19.53
19.26
18.54
17.52
16.36
15.09
13.60
11.77
9.56
7.07
4.47
1.97
-0.34
-2.53
-4.72
-7.03
-9.51
-12.09
-14.77
-17.58
-20.66
-24.07
-27.65
-30.95
-33.29
-34.03
-32.78
-29.58
-24.86
-19.24
-13.35
-7.65
-2.43
2.14
5.92
8.84
10.89
12.20
13.02
13.65
14.32
15.09
15.87
16.46
16.70
16.51
15.96
15.21
14.43
13.70
13.02
12.30
11.46
10.38
8.97
7.20
5.09
2.73
0.24
-2.20
-4.45
-6.45
-8.17
-9.75
-11.35
-13.23
-15.57
-18.45
-21.70
-24.87
-27.34
-28.50
-27.89
-25.45
-21.42
-16.30
-10.66
-5.03
0.17
4.63
8.10
10.43
11.62
11.83
11.40
10.77
10.38
10.48
11.12
12.14
13.27
14.21
14.73
14.77
14.33
13.52
12.41
11.05
9.43
7.57
5.54
3.48
1.52
-0.31
-2.06
-3.98
-6.32
-9.29
-12.89
-16.88
-20.83
-24.25
-26.66
-27.74
-27.32
-25.37
-22.00
-17.44
-12.06
-6.33
-0.81
4.00
7.71
10.21
11.59
12.15
12.22
12.06
11.84
11.58
11.30
11.02
10.82
10.78
10.94
11.18
11.31
11.05
10.23
8.79
6.83
4.55
2.16
-0.20
-2.51
-4.82
-7.25
-9.90
-12.83
-16.07
-19.62
-23.36
-27.06
-30.34
-32.65
-33.43
-32.28
-29.12
-24.26
-18.37
-12.23
-6.51
-1.57
2.53
5.94
8.83
11.24
13.12
14.43
15.13
15.34
15.26
15.09
14.99
15.03
15.19
15.39
15.53
15.48
15.12
14.33
13.02
11.15
8.77
5.97
2.91
-0.21
-3.24
-6.13
-8.92
-11.81
-15.04
-18.82
-23.16
-27.84
-32.37
-36.08
-38.29
-38.49
-36.56
-32.76
-27.68
-22.00
-16.32
-10.98
-6.09
-1.64
2.42
6.08
9.29
12.02
14.32
16.31
18.08
19.69
21.07
22.09
22.62
22.65
22.24
21.58
20.88
20.25
19.67
18.96
17.86
16.15
13.72
10.68
7.23
3.69
0.29
-2.85
-5.76
-8.65
-11.76
-15.37
-19.54
-24.18
-28.87
-33.03
-35.97
-37.15
-36.29
-33.46
-29.04
-23.55
-17.56
-11.54
-5.79
-0.48
4.35
8.68
12.57
15.99
18.96
21.46
23.55
25.25
26.65
27.76
28.57
29.00
28.98
28.52
27.68
26.65
25.60
24.57
23.52
22.27
20.60
18.35
15.48
12.11
8.43
4.72
1.21
-1.99
-4.88
-7.63
-10.45
-13.60
-17.31
-21.67
-26.58
-31.65
-36.28
-39.67
-41.08
-40.03
-36.47
-30.88
-24.08
-17.00
-10.33
-4.43
0.72
5.25
9.30
12.85
15.79
18.05
19.67
20.87
21.96
23.18
24.64
26.22
27.71
28.84
29.47
29.55
29.19
28.51
27.62
26.51
25.10
23.29
21.00
18.28
15.23
12.04
8.86
5.77
2.77
-0.17
-3.07
-5.93
-8.77
-11.66
-14.77
-18.30
-22.39
-26.96
-31.60
-35.62
-38.19
-38.64
-36.66
-32.48
-26.77
-20.37
-14.02
-8.16
-2.88
1.89
6.26
10.19
13.51
16.03
17.70
18.70
19.35
20.03
20.94
22.09
23.27
24.23
24.76
24.80
24.40
23.68
22.76
21.72
20.56
19.22
17.60
15.58
13.05
10.01
6.62
3.16
-0.04
-2.78
-5.06
-7.07
-9.12
-11.50
-14.42
-17.97
-22.12
-26.64
-31.13
-34.96
-37.39
-37.80
-35.91
-31.84
-26.15
-19.60
-12.88
-6.49
-0.68
4.49
8.99
12.81
15.88
18.19
19.74
20.69
21.23
21.64
22.15
22.90
23.90
25.00
25.96
26.55
26.59
26.00
24.84
23.25
21.40
19.38
17.21
14.82
12.16
9.21
6.04
2.84
-0.21
-2.99
-5.50
-7.90
-10.38
-13.13
-16.24
-19.78
-23.80
-28.27
-32.99
-37.54
-41.23
-43.28
-43.03
-40.26
-35.25
-28.73
-21.61
-14.65
-8.30
-2.64
2.44
7.07
11.25
14.86
17.74
19.78
21.04
21.73
22.15
22.58
23.19
23.97
24.83
25.62
26.20
26.45
26.30
25.71
24.67
23.20
21.36
19.23
16.87
14.36
11.69
8.85
5.84
2.68
-0.58
-3.91
-7.27
-10.65
-14.05
-17.49
-21.01
-24.68
-28.53
-32.50
-36.31
-39.45
-41.32
-41.31
-39.11
-34.77
-28.78
-21.85
-14.75
-8.10
-2.23
2.75
6.93
10.37
13.11
15.15
16.50
17.28
17.73
18.14
18.78
19.75
20.89
21.94
22.64
22.83
22.57
22.03
21.34
20.47
19.27
17.47
14.95
11.75
8.14
4.45
1.01
-2.04
-4.70
-7.13
-9.54
-12.13
-15.08
-18.49
-22.39
-26.61
-30.81
-34.44
-36.83
-37.40
-35.81
-32.08
-26.64
-20.14
-13.27
-6.60
-0.49
4.91
9.51
13.28
16.17
18.18
19.39
20.00
20.28
20.50
20.83
21.26
21.73
22.10
22.28
22.24
22.02
21.65
21.17
20.54
19.66
18.39
16.61
14.24
11.29
7.88
4.20
0.48
-3.11
-6.46
-9.60
-12.68
-15.93
-19.56
-23.74
-28.42
-33.35
-38.03
-41.77
-43.83
-43.66
-41.02
-36.09
-29.44
-21.91
-14.36
-7.44
-1.56
3.16
6.79
9.45
11.26
12.33
12.80
12.83
12.63
12.42
12.38
12.60
13.11
13.79
14.51
15.13
15.54
15.65
15.39
14.65
13.32
11.29
8.55
5.24
1.64
-1.91
-5.17
-8.16
-11.11
-14.37
-18.22
-22.65
-27.24
-31.29
-34.02
-34.80
-33.39
-29.96
-24.99
-19.11
-12.89
-6.83
-1.25
3.63
7.66
10.77
12.98
14.40
15.18
15.56
15.74
15.89
16.10
16.40
16.76
17.12
17.36
17.38
17.06
16.29
14.99
13.18
10.91
8.30
5.49
2.59
-0.30
-3.14
-5.93
-8.75
-11.75
-15.15
-19.14
-23.75
-28.77
-33.61
-37.48
-39.53
-39.18
-36.29
-31.23
-24.76
-17.73
-10.90
-4.78
0.43
4.72
8.19
10.95
13.14
14.85
16.18
17.20
17.96
18.51
18.90
19.15
19.29
19.28
19.05
18.53
17.67
16.44
14.85
12.93
10.69
8.18
5.43
2.49
-0.60
-3.78
-7.08
-10.56
-14.36
-18.54
-23.05
-27.62
-31.72
-34.69
-35.86
-34.78
-31.44
-26.23
-19.83
-13.00
-6.36
-0.28
5.10
9.70
13.49
16.40
18.41
19.56
20.01
20.02
19.85
19.68
19.57
19.52
19.48
19.46
19.44
19.37
19.10
18.36
16.91
14.59
11.47
7.82
4.03
0.45
-2.73
-5.50
-8.08
-10.82
-14.08
-18.09
-22.75
-27.58
-31.79
-34.48
-34.92
-32.84
-28.46
-22.39
-15.42
-8.28
-1.48
4.63
9.83
14.00
17.09
19.17
20.44
21.08
21.34
21.39
21.34
21.26
21.16
21.01
20.76
20.39
19.87
19.21
18.43
17.49
16.30
14.71
12.58
9.87
6.66
3.17
-0.32
-3.61
-6.60
-9.42
-12.33
-15.68
-19.66
-24.26
-29.13
-33.67
-37.09
-38.70
-37.99
-34.90
-29.77
-23.26
-16.20
-9.34
-3.20
2.03
6.37
9.99
13.01
15.48
17.37
18.63
19.31
19.53
19.49
19.39
19.39
19.50
19.63
19.63
19.31
18.54
17.21
15.32
12.90
10.10
7.08
4.09
1.31
-1.17
-3.41
-5.63
-8.15
-11.26
-15.12
-19.67
-24.60
-29.29
-32.93
-34.72
-34.05
-30.79
-25.33
-18.52
-11.36
-4.69
0.93
5.38
8.75
11.27
13.10
14.36
15.10
15.39
15.32
15.06
14.80
14.74
15.04
15.70
16.53
17.21
17.38
16.82
15.46
13.42
10.89
8.01
4.82
1.35
-2.34
-6.15
-9.95
-13.69
-17.45
-21.35
-25.37
-29.24
-32.35
-33.96
-33.41
-30.44
-25.28
-18.60
-11.33
-4.33
1.82
6.90
10.96
14.13
16.52
18.10
18.83
18.69
17.84
16.57
15.21
14.08
13.29
12.82
12.50
12.17
11.72
11.09
10.21
8.99
7.34
5.14
2.41
-0.73
-4.11
-7.59
-11.17
-14.98
-19.22
-23.98
-29.06
-33.90
-37.70
-39.65
-39.22
-36.31
-31.24
-24.64
-17.28
-9.88
-3.00
2.98
7.87
11.69
14.56
16.65
18.12
19.08
19.58
19.73
19.65
19.52
19.50
19.63
19.82
19.91
19.71
19.05
17.85
16.03
13.59
10.54
6.96
3.06
-0.90
-4.65
-8.06
-11.22
-14.38
-17.92
-22.15
-27.09
-32.45
-37.54
-41.49
-43.45
-42.83
-39.51
-33.91
-26.81
-19.09
-11.56
-4.66
1.42
6.76
11.42
15.40
18.62
20.97
22.50
23.38
23.94
24.46
25.10
25.82
26.45
26.79
26.73
26.26
25.39
24.14
22.45
20.24
17.48
14.24
10.64
6.89
3.17
-0.39
-3.75
-6.94
-10.13
-13.56
-17.51
-22.11
-27.27
-32.56
-37.30
-40.71
-42.13
-41.23
-38.06
-33.04
-26.72
-19.74
-12.57
-5.57
1.05
7.15
12.59
17.21
20.82
23.32
24.80
25.53
25.91
26.32
26.95
27.73
28.48
28.94
29.01
28.71
28.11
27.21
25.97
24.26
21.99
19.20
16.01
12.58
9.07
5.58
2.18
-1.11
-4.32
-7.60
-11.20
-15.37
-20.26
-25.75
-31.40
-36.51
-40.32
-42.19
-41.76
-39.02
-34.31
-28.15
-21.18
-13.99
-7.04
-0.64
5.00
9.79
13.69
16.68
18.83
20.27
21.17
21.76
22.23
22.71
23.26
23.81
24.29
24.63
24.76
24.64
24.22
23.42
22.16
20.39
18.03
15.03
11.46
7.51
3.47
-0.35
-3.74
-6.70
-9.39
-12.14
-15.29
-19.04
-23.40
-28.09
-32.58
-36.19
-38.22
-38.10
-35.62
-31.02
-24.91
-18.13
-11.42
-5.29
0.09
4.77
8.78
12.09
14.56
16.05
16.60
16.46
16.05
15.78
15.92
16.46
17.22
17.92
18.33
18.34
17.95
17.16
15.95
14.21
11.88
8.97
5.64
2.18
-1.15
-4.20
-7.05
-9.95
-13.20
-16.99
-21.23
-25.57
-29.44
-32.17
-33.20
-32.16
-29.05
-24.14
-17.99
-11.21
-4.45
1.78
7.11
11.35
14.43
16.42
17.49
17.81
17.58
16.99
16.23
15.49
14.93
14.62
14.55
14.60
14.56
14.24
13.48
12.24
10.56
8.50
6.11
3.46
0.60
-2.40
-5.46
-8.50
-11.59
-14.85
-18.51
-22.74
-27.52
-32.52
-37.08
-40.35
-41.53
-40.16
-36.23
-30.26
-23.10
-15.67
-8.73
-2.72
2.22
6.16
9.27
11.71
13.63
15.12
16.29
17.22
17.98
18.56
18.93
19.05
18.90
18.52
17.96
17.24
16.34
15.13
13.47
11.26
8.49
5.27
1.72
-1.99
-5.76
-9.56
-13.44
-17.52
-21.89
-26.61
-31.55
-36.42
-40.73
-43.85
-45.21
-44.41
-41.35
-36.27
-29.69
-22.29
-14.72
-7.56
-1.16
4.29
8.78
12.40
15.24
17.41
19.05
20.31
21.33
22.23
23.07
23.82
24.41
24.78
24.89
24.73
24.28
23.49
22.26
20.51
18.20
15.40
12.25
8.90
5.45
1.89
-1.80
-5.72
-9.94
-14.54
-19.54
-24.85
-30.15
-34.89
-38.35
-39.85
-38.93
-35.59
-30.24
-23.61
-16.51
-9.61
-3.36
2.04
6.57
10.24
13.08
15.10
16.32
16.87
16.93
16.75
16.58
16.54
16.64
16.77
16.84
16.83
16.77
16.68
16.48
15.97
14.88
12.99
10.31
7.04
3.54
0.05
-3.32
-6.70
-10.35
-14.52
-19.34
-24.79
-30.61
-36.35
-41.35
-44.81
-45.94
-44.19
-39.47
-32.16
-23.02
-13.00
-2.96
6.43
14.76
21.76
27.25
31.17
33.55
34.64
34.83
34.58
34.28
34.14
34.13
34.04
33.61
32.68
31.25
29.48
27.54
25.56
23.47
21.06
18.09
14.39
10.03
5.26
0.45
-4.07
-8.13
-11.78
-15.27
-18.97
-23.24
-28.17
-33.49
-38.51
-42.29
-43.85
-42.48
-37.98
-30.70
-21.44
-11.23
-1.06
8.31
16.37
22.90
27.87
31.37
33.53
34.49
34.45
33.66
32.45
31.13
29.95
28.99
28.16
27.35
26.43
25.37
24.18
22.85
21.29
19.33
16.78
13.56
9.75
5.55
1.28
-2.86
-6.75
-10.46
-14.15
-18.04
-22.32
-26.92
-31.60
-35.83
-38.93
-40.27
-39.42
-36.29
-31.21
-24.76
-17.66
-10.59
-4.05
1.67
6.43
10.19
12.93
14.67
15.45
15.43
14.86
14.08
13.40
13.07
13.13
13.47
13.86
14.06
13.92
13.39
12.52
11.34
9.88
8.11
5.99
3.56
0.89
-1.90
-4.73
-7.60
-10.66
-14.14
-18.18
-22.74
-27.39
-31.48
-34.19
-34.80
-32.94
-28.68
-22.54
-15.22
-7.52
-0.03
6.82
12.79
17.67
21.33
23.64
24.60
24.43
23.52
22.37
21.39
20.87
20.86
21.25
21.81
22.33
22.66
22.67
22.31
21.52
20.29
18.59
16.44
13.87
10.98
7.94
4.95
2.13
-0.49
-3.10
-6.04
-9.67
-14.14
-19.29
-24.55
-29.07
-31.95
-32.53
-30.56
-26.31
-20.45
-13.82
-7.28
-1.46
3.31
6.93
9.50
11.18
12.17
12.64
12.73
12.53
12.10
11.48
10.71
9.90
9.19
8.76
8.70
9.00
9.54
10.11
10.49
10.49
10.01
9.03
7.61
5.86
3.90
1.80
-0.43
-2.93
-5.87
-9.42
-13.59
-18.20
-22.77
-26.64
-29.07
-29.47
-27.57
-23.52
-17.88
-11.44
-5.01
0.79
5.60
9.30
11.93
13.57
14.31
14.19
13.33
11.88
10.14
8.40
6.94
5.91
5.30
4.94
4.69
4.41
4.11
3.78
3.39
2.75
1.64
-0.11
-2.45
-5.09
-7.64
-9.84
-11.72
-13.59
-15.93
-19.04
-22.87
-26.88
-30.22
-31.97
-31.52
-28.72
-23.98
-18.07
-11.84
-6.00
-0.96
3.14
6.30
8.51
9.75
10.05
9.50
8.32
6.85
5.43
4.32
3.69
3.57
3.90
4.50
5.12
5.46
5.25
4.36
2.82
0.84
-1.36
-3.59
-5.78
-8.00
-10.40
-13.11
-16.24
-19.75
-23.42
-26.87
-29.53
-30.77
-30.15
-27.52
-23.14
-17.66
-11.92
-6.60
-2.15
1.34
4.04
6.16
7.85
9.11
9.90
10.26
10.30
10.24
10.30
10.54
10.86
11.10
11.04
10.55
9.57
8.13
6.29
4.17
1.87
-0.49
-2.86
-5.19
-7.52
-9.90
-12.48
-15.40
-18.76
-22.51
-26.40
-29.87
-32.25
-32.87
-31.37
-27.78
-22.64
-16.70
-10.73
-5.28
-0.60
3.30
6.54
9.21
11.35
12.94
13.97
14.48
14.60
14.47
14.30
14.23
14.35
14.65
15.00
15.18
14.95
14.13
12.68
10.69
8.40
6.01
3.65
1.34
-1.03
-3.60
-6.51
-9.84
-13.67
-17.99
-22.65
-27.27
-31.25
-33.88
-34.53
-32.89
-29.04
-23.50
-17.01
-10.35
-4.09
1.47
6.22
10.20
13.44
15.97
17.74
18.81
19.28
19.33
19.20
19.04
18.92
18.82
18.70
18.53
18.31
18.00
17.47
16.56
15.06
12.89
10.11
6.96
3.74
0.76
-1.87
-4.17
-6.36
-8.75
-11.65
-15.24
-19.46
-24.03
-28.41
-31.92
-33.88
-33.82
-31.55
-27.25
-21.43
-14.80
-8.06
-1.80
3.66
8.21
11.91
14.86
17.15
18.80
19.84
20.35
20.49
20.44
20.34
20.20
19.98
19.63
19.11
18.52
17.95
17.45
16.93
16.15
14.83
12.83
10.19
7.12
3.94
0.89
-1.91
-4.46
-6.89
-9.35
-11.97
-14.85
-18.03
-21.52
-25.17
-28.69
-31.56
-33.21
-33.12
-31.00
-26.92
-21.33
-14.89
-8.30
-2.15
3.25
7.77
11.43
14.27
16.31
17.58
18.19
18.37
18.45
18.73
19.36
20.26
21.15
21.67
21.61
20.94
19.85
18.62
17.45
16.37
15.23
13.78
11.80
9.25
6.30
3.21
0.27
-2.36
-4.72
-6.98
-9.43
-12.28
-15.68
-19.56
-23.73
-27.81
-31.36
-33.85
-34.77
-33.80
-30.87
-26.24
-20.41
-14.02
-7.71
-1.95
2.97
7.02
10.23
12.70
14.52
15.72
16.34
16.50
16.37
16.21
16.23
16.53
17.08
17.74
18.33
18.71
18.78
18.49
17.74
16.46
14.61
12.25
9.58
6.84
4.22
1.79
-0.55
-2.98
-5.69
-8.81
-12.42
-16.48
-20.88
-25.33
-29.34
-32.26
-33.43
-32.40
-29.14
-24.04
-17.88
-11.45
-5.40
-0.03
4.62
8.55
11.73
13.99
15.22
15.47
15.01
14.26
13.63
13.34
13.37
13.56
13.73
13.81
13.85
13.93
14.04
14.04
13.68
12.69
10.97
8.55
5.64
2.55
-0.49
-3.31
-5.94
-8.55
-11.38
-14.65
-18.41
-22.48
-26.34
-29.31
-30.65
-29.85
-26.80
-21.89
-15.82
-9.43
-3.41
1.83
6.16
9.61
12.28
14.20
15.44
16.10
16.34
16.35
16.27
16.15
15.96
15.72
15.46
15.25
15.14
15.04
14.75
14.02
12.68
10.70
8.21
5.48
2.74
0.17
-2.16
-4.30
-6.40
-8.58
-11.02
-13.79
-16.92
-20.30
-23.66
-26.56
-28.47
-28.92
-27.61
-24.51
-19.90
-14.29
-8.25
-2.36
2.93
7.34
10.73
13.13
14.67
15.56
15.96
16.02
15.84
15.50
15.17
15.00
15.10
15.46
15.93
16.28
16.35
16.08
15.49
14.63
13.44
11.81
9.63
6.93
3.89
0.79
-2.12
-4.72
-7.03
-9.19
-11.37
-13.73
-16.41
-19.49
-22.93
-26.51
-29.74
-31.99
-32.67
-31.38
-28.14
-23.34
-17.59
-11.52
-5.66
-0.36
4.19
7.83
10.48
12.14
12.94
13.14
13.08
13.06
13.25
13.66
14.17
14.61
14.90
15.02
15.06
15.08
15.02
14.75
14.06
12.72
10.68
8.04
5.05
2.00
-0.85
-3.40
-5.67
-7.76
-9.86
-12.12
-14.69
-17.66
-20.99
-24.42
-27.45
-29.42
-29.68
-27.89
-24.07
-18.71
-12.58
-6.51
-1.17
3.11
6.24
8.36
9.63
10.24
10.39
10.27
10.10
10.06
10.23
10.58
10.96
11.18
11.12
10.78
10.21
9.49
8.63
7.62
6.46
5.15
3.75
2.30
0.76
-0.92
-2.88
-5.20
-7.94
-11.09
-14.61
-18.32
-21.92
-24.93
-26.74
-26.84
-24.97
-21.32
-16.40
-10.91
-5.49
-0.56
3.70
7.23
10.00
11.93
12.92
12.96
12.23
11.04
9.79
8.79
8.20
8.04
8.24
8.63
9.03
9.23
9.05
8.38
7.23
5.74
4.08
2.37
0.63
-1.24
-3.38
-5.89
-8.77
-11.98
-15.47
-19.18
-22.95
-26.43
-29.08
-30.27
-29.53
-26.77
-22.29
-16.72
-10.76
-4.98
0.28
4.83
8.64
11.64
13.77
15.02
15.46
15.25
14.62
13.82
13.02
12.35
11.85
11.50
11.24
11.00
10.69
10.24
9.59
8.71
7.54
6.03
4.16
1.92
-0.65
-3.44
-6.39
-9.45
-12.65
-16.03
-19.61
-23.25
-26.68
-29.45
-31.06
-31.11
-29.41
-26.04
-21.36
-15.87
-10.12
-4.52
0.63
5.21
9.09
12.20
14.44
15.82
16.43
16.51
16.33
16.10
15.93
15.77
15.53
15.20
14.86
14.61
14.47
14.34
13.97
13.15
11.77
9.88
7.64
5.27
2.86
0.43
-2.11
-4.86
-7.93
-11.40
-15.32
-19.60
-23.97
-28.01
-31.13
-32.75
-32.48
-30.21
-26.13
-20.73
-14.58
-8.31
-2.39
2.90
7.45
11.27
14.41
16.94
18.88
20.28
21.20
21.69
21.87
21.82
21.61
21.31
21.00
20.74
20.54
20.28
19.82
18.94
17.53
15.58
13.21
10.59
7.85
5.15
2.55
0.11
-2.22
-4.56
-7.13
-10.19
-13.90
-18.17
-22.62
-26.60
-29.39
-30.41
-29.43
-26.57
-22.26
-17.05
-11.46
-5.90
-0.62
4.23
8.55
12.25
15.22
17.36
18.65
19.16
19.13
18.84
18.57
18.50
18.62
18.79
18.85
18.74
18.48
18.20
17.95
17.62
17.00
15.82
13.94
11.41
8.47
5.43
2.55
0.00
-2.25
-4.37
-6.63
-9.33
-12.64
-16.51
-20.62
-24.38
-27.11
-28.24
-27.50
-24.98
-21.06
-16.28
-11.17
-6.12
-1.41
2.80
6.40
9.29
11.44
12.91
13.86
14.54
15.18
15.90
16.64
17.23
17.48
17.33
16.88
16.34
15.93
15.72
15.60
15.32
14.60
13.25
11.26
8.74
5.91
3.00
0.17
-2.52
-5.06
-7.53
-10.05
-12.79
-15.87
-19.33
-23.09
-26.86
-30.16
-32.42
-33.16
-32.09
-29.21
-24.83
-19.43
-13.53
-7.61
-2.00
3.07
7.49
11.18
14.07
16.12
17.38
17.96
18.12
18.12
18.21
18.47
18.83
19.15
19.28
19.21
19.01
18.74
18.39
17.81
16.74
14.99
12.51
9.42
6.02
2.61
-0.55
-3.34
-5.79
-8.05
-10.36
-12.98
-16.06
-19.60
-23.35
-26.87
-29.56
-30.84
-30.26
-27.66
-23.26
-17.53
-11.17
-4.91
0.70
5.29
8.77
11.22
12.82
13.79
14.32
14.62
14.90
15.36
16.08
17.00
17.93
18.57
18.73
18.36
17.57
16.50
15.24
13.72
11.82
9.47
6.72
3.80
0.99
-1.47
-3.52
-5.30
-7.12
-9.26
-11.93
-15.19
-18.89
-22.69
-26.13
-28.67
-29.81
-29.21
-26.74
-22.58
-17.20
-11.21
-5.26
0.11
4.53
7.84
10.04
11.27
11.75
11.77
11.64
11.60
11.76
12.11
12.54
12.96
13.34
13.68
13.96
14.07
13.80
12.99
11.53
9.53
7.18
4.75
2.36
0.02
-2.35
-4.87
-7.62
-10.70
-14.14
-17.91
-21.82
-25.50
-28.35
-29.75
-29.25
-26.72
-22.42
-16.90
-10.89
-5.03
0.21
4.57
8.02
10.62
12.48
13.66
14.19
14.09
13.47
12.55
11.63
10.96
10.70
10.80
11.05
11.23
11.15
10.77
10.11
9.16
7.90
6.21
4.10
1.61
-1.09
-3.81
-6.43
-8.97
-11.64
-14.69
-18.27
-22.27
-26.26
-29.57
-31.49
-31.54
-29.56
-25.81
-20.77
-15.07
-9.28
-3.88
0.80
4.56
7.37
9.32
10.66
11.58
12.23
12.68
12.94
13.04
13.10
13.20
13.42
13.70
13.88
13.77
13.23
12.21
10.75
8.93
6.90
4.77
2.63
0.56
-1.50
-3.65
-6.05
-8.90
-12.32
-16.36
-20.85
-25.44
-29.56
-32.58
-33.90
-33.18
-30.43
-26.06
-20.67
-14.91
-9.30
-4.14
0.45
4.44
7.79
10.42
12.35
13.69
14.62
15.38
16.10
16.76
17.26
17.52
17.52
17.36
17.19
17.05
16.91
16.55
15.78
14.45
12.57
10.25
7.66
4.94
2.19
-0.52
-3.20
-5.88
-8.70
-11.86
-15.54
-19.81
-24.46
-28.96
-32.55
-34.47
-34.24
-31.80
-27.55
-22.15
-16.29
-10.51
-5.12
-0.20
4.20
8.04
11.24
13.70
15.42
16.52
17.25
17.84
18.50
19.27
20.06
20.65
20.85
20.55
19.83
18.92
18.09
17.49
17.06
16.53
15.50
13.62
10.79
7.17
3.19
-0.68
-4.04
-6.72
-8.84
-10.76
-12.95
-15.83
-19.58
-24.05
-28.71
-32.76
-35.39
-36.00
-34.38
-30.69
-25.49
-19.38
-12.98
-6.72
-0.87
4.42
9.05
12.96
16.04
18.29
19.74
20.61
21.17
21.70
22.37
23.12
23.73
23.87
23.35
22.22
20.81
19.58
18.79
18.42
18.11
17.33
15.70
13.14
9.91
6.47
3.22
0.37
-2.08
-4.29
-6.41
-8.59
-10.98
-13.76
-17.12
-21.08
-25.40
-29.48
-32.49
-33.66
-32.50
-29.06
-23.83
-17.56
-11.02
-4.81
0.76
5.54
9.48
12.57
14.76
16.07
16.61
16.60
16.37
16.29
16.57
17.25
18.12
18.85
19.16
18.95
18.33
17.51
16.72
15.97
15.11
13.87
12.04
9.57
6.61
3.49
0.49
-2.19
-4.56
-6.83
-9.33
-12.37
-16.12
-20.46
-24.98
-29.08
-32.07
-33.38
-32.75
-30.23
-26.16
-21.00
-15.23
-9.30
-3.57
1.63
6.09
9.65
12.33
14.23
15.51
16.32
16.70
16.69
16.30
15.65
14.93
14.38
14.18
14.33
14.66
14.87
14.65
13.74
12.13
9.92
7.39
4.81
2.38
0.20
-1.77
-3.64
-5.58
-7.76
-10.34
-13.42
-16.96
-20.76
-24.41
-27.32
-28.88
-28.62
-26.38
-22.36
-17.13
-11.40
-5.84
-0.91
3.20
6.51
9.18
11.30
12.92
14.04
14.64
14.80
14.62
14.29
14.00
13.88
14.00
14.31
14.64
14.75
14.38
13.34
11.61
9.34
6.76
4.16
1.69
-0.59
-2.76
-4.92
-7.14
-9.48
-12.04
-14.97
-18.37
-22.21
-26.20
-29.80
-32.32
-33.12
-31.86
-28.62
-23.88
-18.34
-12.66
-7.31
-2.44
1.94
5.92
9.42
12.27
14.29
15.39
15.74
15.65
15.49
15.54
15.81
16.16
16.33
16.19
15.71
14.96
14.08
13.13
12.05
10.76
9.19
7.24
4.94
2.33
-0.52
-3.50
-6.57
-9.72
-13.03
-16.65
-20.71
-25.16
-29.66
-33.58
-36.14
-36.62
-34.71
-30.57
-24.89
-18.57
-12.45
-6.99
-2.26
1.97
5.95
9.74
13.16
15.90
17.70
18.54
18.64
18.41
18.21
18.28
18.63
19.10
19.48
19.59
19.38
18.83
17.96
16.71
14.96
12.61
9.64
6.26
2.81
-0.35
-3.00
-5.20
-7.24
-9.52
-12.35
-15.82
-19.85
-24.14
-28.25
-31.64
-33.71
-33.93
-32.04
-28.13
-22.68
-16.43
-10.11
-4.26
0.87
5.27
9.01
12.17
14.72
16.66
18.02
18.94
19.62
20.26
20.98
21.75
22.41
22.74
22.59
21.90
20.85
19.66
18.58
17.66
16.78
15.64
13.95
11.52
8.44
4.95
1.43
-1.85
-4.75
-7.36
-9.92
-12.67
-15.78
-19.30
-23.12
-27.00
-30.56
-33.32
-34.75
-34.39
-32.03
-27.79
-22.19
-15.95
-9.77
-4.13
0.80
5.10
8.90
12.24
14.98
16.97
18.13
18.58
18.66
18.71
18.99
19.50
20.07
20.43
20.40
19.99
19.35
18.71
18.19
17.72
17.09
15.99
14.26
11.87
8.99
5.90
2.87
0.11
-2.32
-4.48
-6.62
-9.04
-12.04
-15.77
-20.11
-24.65
-28.75
-31.70
-32.90
-32.07
-29.27
-24.85
-19.38
-13.50
-7.74
-2.47
2.12
6.00
9.20
11.70
13.49
14.59
15.08
15.18
15.14
15.23
15.55
16.01
16.45
16.69
16.68
16.52
16.33
16.16
15.88
15.21
13.89
11.78
9.01
5.93
2.94
0.33
-1.87
-3.83
-5.85
-8.16
-10.92
-14.11
-17.71
-21.54
-25.30
-28.53
-30.62
-31.03
-29.44
-25.92
-20.94
-15.14
-9.19
-3.58
1.38
5.54
8.80
11.14
12.59
13.27
13.37
13.15
12.78
12.41
12.11
11.95
11.97
12.21
12.66
13.20
13.60
13.57
12.84
11.30
9.00
6.20
3.18
0.21
-2.56
-5.13
-7.59
-10.11
-12.84
-15.91
-19.35
-22.96
-26.32
-28.82
-29.85
-28.99
-26.22
-21.90
-16.63
-11.01
-5.47
-0.27
4.46
8.59
11.92
14.26
15.50
15.76
15.35
14.66
14.06
13.75
13.74
13.94
14.19
14.39
14.45
14.31
13.85
13.00
11.67
9.86
7.65
5.17
2.57
-0.05
-2.61
-5.13
-7.72
-10.56
-13.88
-17.83
-22.38
-27.19
-31.65
-35.06
-36.79
-36.44
-33.98
-29.66
-24.02
-17.68
-11.29
-5.37
-0.21
4.09
7.62
10.52
12.87
14.74
16.12
17.04
17.64
18.07
18.48
18.91
19.27
19.44
19.37
19.11
18.76
18.39
17.94
17.17
15.81
13.66
10.74
7.26
3.59
0.05
-3.19
-6.08
-8.80
-11.56
-14.62
-18.17
-22.24
-26.62
-30.82
-34.15
-35.89
-35.56
-33.02
-28.62
-22.96
-16.74
-10.52
-4.65
0.77
5.64
9.90
13.42
16.08
17.87
18.97
19.64
20.18
20.79
21.51
22.21
22.76
23.02
22.94
22.58
22.02
21.33
20.54
19.58
18.28
16.45
13.93
10.74
7.10
3.40
0.08
-2.60
-4.68
-6.54
-8.67
-11.51
-15.24
-19.68
-24.44
-28.97
-32.74
-35.24
-36.07
-35.01
-32.02
-27.38
-21.63
-15.44
-9.45
-4.03
0.72
4.93
8.74
12.19
15.16
17.47
19.09
20.11
20.83
21.48
22.16
22.78
23.15
23.15
22.79
22.24
21.70
21.27
20.87
20.26
19.18
17.52
15.30
12.72
10.02
7.40
4.96
2.62
0.28
-2.23
-4.98
-7.99
-11.25
-14.78
-18.61
-22.80
-27.27
-31.69
-35.47
-37.91
-38.36
-36.51
-32.46
-26.75
-20.11
-13.29
-6.87
-1.14
3.79
7.96
11.43
14.24
16.36
17.81
18.67
19.10
19.37
19.73
20.32
21.14
22.01
22.73
23.14
23.17
22.85
22.20
21.22
19.86
18.04
15.80
13.21
10.47
7.74
5.13
2.67
0.31
-1.97
-4.20
-6.40
-8.64
-11.05
-13.82
-17.12
-21.03
-25.36
-29.70
-33.46
-35.99
-36.75
-35.52
-32.39
-27.79
-22.27
-16.35
-10.45
-4.83
0.36
4.98
8.95
12.14
14.52
16.10
17.02
17.48
17.71
17.93
18.28
18.79
19.37
19.87
20.12
20.07
19.76
19.35
18.97
18.65
18.30
17.72
16.69
15.09
12.89
10.22
7.25
4.21
1.23
-1.59
-4.25
-6.78
-9.26
-11.78
-14.46
-17.43
-20.73
-24.28
-27.78
-30.71
-32.43
-32.42
-30.49
-26.87
-22.10
-16.88
-11.76
-7.07
-2.85
0.95
4.34
7.19
9.33
10.66
11.29
11.47
11.56
11.78
12.23
12.75
13.16
13.31
13.21
12.96
12.72
12.52
12.26
11.77
10.84
9.40
7.50
5.31
3.00
0.73
-1.43
-3.46
-5.41
-7.40
-9.59
-12.16
-15.24
-18.81
-22.58
-26.06
-28.61
-29.64
-28.81
-26.12
-21.90
-16.70
-11.11
-5.59
-0.40
4.32
8.46
11.91
14.42
15.84
16.10
15.41
14.18
12.92
12.03
11.68
11.78
12.11
12.44
12.62
12.65
12.60
12.44
12.07
11.28
9.89
7.91
5.48
2.92
0.51
-1.58
-3.39
-5.10
-6.92
-9.06
-11.63
-14.66
-18.04
-21.55
-24.79
-27.26
-28.41
-27.83
-25.38
-21.27
-16.03
-10.31
-4.75
0.18
4.19
7.18
9.17
10.22
10.50
10.25
9.73
9.24
8.98
9.01
9.27
9.56
9.72
9.68
9.47
9.22
9.04
8.93
8.84
8.61
8.13
7.33
6.20
4.78
3.12
1.29
-0.63
-2.59
-4.56
-6.60
-8.85
-11.50
-14.68
-18.38
-22.35
-26.11
-29.06
-30.62
-30.38
-28.29
-24.56
-19.67
-14.16
-8.56
-3.29
1.39
5.28
8.34
10.56
11.97
12.70
12.94
12.95
13.02
13.31
13.85
14.53
15.10
15.33
15.12
14.52
13.71
12.92
12.28
11.75
11.13
10.17
8.69
6.68
4.27
1.71
-0.76
-3.02
-5.08
-7.03
-9.04
-11.27
-13.81
-16.73
-19.95
-23.20
-26.04
-27.91
-28.24
-26.70
-23.32
-18.50
-12.93
-7.37
-2.37
1.76
4.98
7.41
9.15
10.29
10.84
10.88
10.61
10.31
10.23
10.53
11.15
11.83
12.31
12.37
12.00
11.33
10.52
9.63
8.61
7.31
5.56
3.38
0.93
-1.51
-3.68
-5.51
-7.20
-9.08
-11.51
-14.62
-18.24
-21.87
-24.84
-26.52
-26.48
-24.61
-21.14
-16.56
-11.46
-6.36
-1.66
2.41
5.75
8.30
10.06
11.02
11.28
11.04
10.54
10.01
9.60
9.34
9.16
8.99
8.82
8.68
8.61
8.61
8.54
8.22
7.50
6.31
4.68
2.75
0.64
-1.54
-3.78
-6.07
-8.47
-11.06
-13.93
-17.18
-20.79
-24.56
-28.03
-30.57
-31.54
-30.52
-27.50
-22.80
-17.04
-10.93
-5.10
-0.00
4.12
7.20
9.31
10.64
11.41
11.82
12.00
12.06
12.05
12.03
12.04
12.11
12.20
12.22
12.07
11.69
11.05
10.17
9.08
7.75
6.16
4.30
2.19
-0.06
-2.34
-4.56
-6.75
-9.04
-11.60
-14.59
-18.03
-21.76
-25.41
-28.44
-30.31
-30.59
-29.07
-25.86
-21.36
-16.09
-10.61
-5.35
-0.60
3.52
6.96
9.75
11.96
13.66
14.93
15.83
16.38
16.61
16.58
16.35
16.05
15.77
15.58
15.45
15.32
15.06
14.52
13.53
11.99
9.87
7.24
4.29
1.26
-1.66
-4.38
-6.95
-9.54
-12.37
-15.66
-19.51
-23.81
-28.19
-32.02
-34.53
-35.06
-33.32
-29.50
-24.19
-18.21
-12.24
-6.73
-1.78
2.69
6.77
10.46
13.64
16.17
17.96
19.06
19.60
19.81
19.92
20.08
20.33
20.63
20.86
20.87
20.57
19.95
19.06
17.94
16.57
14.86
12.76
10.22
7.35
4.34
1.39
-1.35
-3.88
-6.34
-8.93
-11.84
-15.17
-18.92
-22.86
-26.67
-29.81
-31.75
-32.00
-30.31
-26.76
-21.75
-15.93
-9.97
-4.40
0.51
4.72
8.30
11.37
13.95
16.04
17.67
18.95
20.05
21.16
22.39
23.62
24.65
25.21
25.15
24.55
23.63
22.66
21.81
20.97
19.87
18.22
15.89
12.98
9.83
6.79
4.10
1.78
-0.33
-2.47
-4.84
-7.58
-10.74
-14.33
-18.29
-22.46
-26.50
-29.91
-32.15
-32.70
-31.32
-28.07
-23.30
-17.60
-11.55
-5.60
-0.04
4.99
9.35
12.90
15.47
16.95
17.44
17.26
16.86
16.69
17.00
17.81
18.87
19.86
20.49
20.67
20.45
19.97
19.32
18.49
17.37
15.79
13.66
10.99
7.95
4.75
1.61
-1.35
-4.12
-6.77
-9.40
-12.12
-15.06
-18.29
-21.79
-25.39
-28.68
-31.11
-32.12
-31.37
-28.82
-24.73
-19.59
-13.92
-8.13
-2.55
2.59
7.03
10.55
12.97
14.29
14.68
14.48
14.06
13.69
13.51
13.52
13.65
13.82
13.99
14.11
14.13
13.96
13.51
12.70
11.45
9.78
7.74
5.40
2.91
0.38
-2.06
-4.40
-6.68
-9.06
-11.73
-14.83
-18.30
-21.84
-24.87
-26.75
-26.93
-25.19
-21.71
-17.01
-11.74
-6.43
-1.42
3.12
7.08
10.33
12.73
14.16
14.65
14.42
13.80
13.19
12.89
13.03
13.54
14.15
14.53
14.41
13.68
12.44
10.93
9.38
7.89
6.40
4.77
2.88
0.71
-1.61
-3.95
-6.27
-8.67
-11.35
-14.56
-18.42
-22.84
-27.40
-31.43
-34.10
-34.72
-32.99
-29.12
-23.74
-17.70
-11.73
-6.25
-1.42
2.79
6.42
9.41
11.68
13.24
14.19
14.73
15.09
15.42
15.76
16.07
16.28
16.34
16.24
16.03
15.71
15.26
14.61
13.61
12.13
10.10
7.57
4.73
1.76
-1.16
-3.99
-6.84
-9.86
-13.23
-17.01
-21.06
-25.02
-28.34
-30.41
-30.74
-29.08
-25.54
-20.58
-14.82
-8.93
-3.41
1.49
5.70
9.32
12.41
14.99
16.99
18.31
18.89
18.79
18.22
17.51
16.94
16.71
16.86
17.18
17.40
17.20
16.34
14.76
12.51
9.80
6.90
4.07
1.48
-0.86
-3.05
-5.31
-7.82
-10.74
-14.11
-17.87
-21.80
-25.50
-28.43
-29.97
-29.56
-26.95
-22.30
-16.23
-9.60
-3.27
2.21
6.67
10.26
13.21
15.69
17.69
19.11
19.87
20.05
19.84
19.49
19.19
18.99
18.88
18.73
18.42
17.81
16.81
15.34
13.39
11.04
8.42
5.66
2.85
-0.03
-3.03
-6.20
-9.57
-13.13
-16.85
-20.70
-24.51
-27.95
-30.50
-31.56
-30.66
-27.68
-22.91
-17.02
-10.78
-4.85
0.38
4.80
8.47
11.48
13.90
15.74
17.06
17.92
18.40
18.62
18.67
18.57
18.31
17.89
17.39
16.84
16.29
15.72
15.02
14.06
12.70
10.86
8.58
5.99
3.28
0.57
-2.14
-4.93
-8.00
-11.50
-15.51
-19.96
-24.60
-28.92
-32.28
-34.01
-33.55
-30.75
-25.82
-19.41
-12.39
-5.61
0.35
5.23
9.06
12.03
14.36
16.18
17.52
18.36
18.73
18.69
18.41
18.07
17.84
17.75
17.73
17.64
17.38
16.88
16.15
15.17
13.84
12.05
9.68
6.77
3.54
0.29
-2.71
-5.38
-7.87
-10.50
-13.60
-17.34
-21.64
-26.10
-30.08
-32.87
-33.83
-32.57
-29.14
-23.97
-17.76
-11.31
-5.23
0.10
4.53
8.11
10.91
12.98
14.37
15.11
15.33
15.21
14.97
14.78
14.76
14.94
15.25
15.60
15.85
15.84
15.42
14.53
13.16
11.39
9.33
7.09
4.76
2.35
-0.13
-2.72
-5.42
-8.30
-11.44
-14.96
-18.88
-23.06
-27.05
-30.15
-31.56
-30.68
-27.39
-22.10
-15.70
-9.14
-3.23
1.67
5.56
8.67
11.20
13.20
14.58
15.26
15.29
14.87
14.31
13.89
13.73
13.78
13.91
13.94
13.78
13.38
12.73
11.79
10.51
8.85
6.81
4.46
1.91
-0.71
-3.30
-5.90
-8.64
-11.72
-15.35
-19.55
-24.03
-28.18
-31.21
-32.34
-31.20
-27.83
-22.73
-16.64
-10.28
-4.16
1.40
6.22
10.17
13.09
14.95
15.81
15.86
15.37
14.61
13.79
13.04
12.46
12.14
12.12
12.28
12.44
12.33
11.74
10.57
8.90
6.86
4.60
2.25
-0.18
-2.68
-5.25
-7.91
-10.75
-13.90
-17.52
-21.61
-25.87
-29.66
-32.13
-32.49
-30.32
-25.81
-19.64
-12.81
-6.23
-0.48
4.31
8.24
11.48
14.05
15.80
16.60
16.45
15.62
14.55
13.69
13.31
13.38
13.66
13.88
13.84
13.54
13.02
12.34
11.45
10.21
8.50
6.29
3.66
0.75
-2.28
-5.35
-8.53
-11.94
-15.71
-19.86
-24.14
-28.07
-31.02
-32.35
-31.66
-28.89
-24.36
-18.62
-12.32
-6.08
-0.37
4.49
8.35
11.17
13.06
14.19
14.71
14.75
14.44
13.92
13.39
13.08
13.14
13.56
14.22
14.82
15.13
14.97
14.26
13.03
11.33
9.27
6.92
4.42
1.83
-0.79
-3.47
-6.30
-9.36
-12.75
-16.50
-20.56
-24.69
-28.46
-31.24
-32.36
-31.31
-27.96
-22.67
-16.21
-9.47
-3.23
2.06
6.30
9.55
11.97
13.65
14.64
15.00
14.86
14.45
14.00
13.69
13.59
13.61
13.64
13.54
13.21
12.58
11.65
10.42
8.85
6.97
4.80
2.43
-0.03
-2.43
-4.72
-6.88
-9.08
-11.55
-14.58
-18.30
-22.57
-26.88
-30.38
-32.11
-31.40
-28.04
-22.49
-15.63
-8.52
-1.98
3.52
7.93
11.34
13.86
15.50
16.21
16.04
15.21
14.10
13.15
12.66
12.70
13.12
13.60
13.90
13.85
13.43
12.69
11.66
10.32
8.64
6.61
4.28
1.75
-0.88
-3.56
-6.38
-9.47
-13.02
-17.11
-21.71
-26.57
-31.20
-34.95
-37.09
-37.02
-34.50
-29.75
-23.41
-16.39
-9.51
-3.36
1.84
6.10
9.54
12.22
14.12
15.23
15.60
15.45
15.08
14.76
14.66
14.84
15.20
15.63
16.01
16.20
16.10
15.56
14.51
12.86
10.64
7.95
4.94
1.81
-1.33
-4.39
-7.41
-10.49
-13.79
-17.44
-21.46
-25.59
-29.31
-31.93
-32.74
-31.33
-27.68
-22.23
-15.76
-9.07
-2.83
2.59
7.04
10.54
13.13
14.87
15.88
16.31
16.39
16.33
16.26
16.25
16.28
16.30
16.30
16.21
15.99
15.55
14.80
13.69
12.21
10.39
8.28
5.97
3.49
0.88
-1.85
-4.73
-7.79
-11.10
-14.72
-18.66
-22.71
-26.49
-29.40
-30.83
-30.32
-27.74
-23.35
-17.74
-11.56
-5.44
0.20
5.15
9.34
12.73
15.30
17.04
17.97
18.19
17.92
17.39
16.86
16.47
16.28
16.22
16.19
16.08
15.79
15.25
14.41
13.26
11.76
9.90
7.68
5.10
2.25
-0.80
-3.95
-7.17
-10.52
-14.14
-18.15
-22.51
-26.86
-30.56
-32.78
-32.85
-30.46
-25.87
-19.74
-12.99
-6.43
-0.59
4.33
8.35
11.53
13.92
15.52
16.36
16.58
16.39
16.06
15.84
15.85
16.11
16.51
16.87
17.02
16.81
16.15
15.00
13.38
11.34
9.00
6.50
3.96
1.46
-1.01
-3.57
-6.44
-9.81
-13.79
-18.23
-22.71
-26.54
-28.98
-29.40
-27.54
-23.57
-18.05
-11.78
-5.51
0.21
5.10
9.11
12.28
14.61
16.06
16.60
16.27
15.31
14.10
13.09
12.61
12.79
13.44
14.19
14.64
14.51
13.70
12.32
10.57
8.64
6.58
4.41
2.04
-0.54
-3.35
-6.40
-9.72
-13.39
-17.44
-21.71
-25.78
-29.02
-30.69
-30.27
-27.58
-22.96
-17.09
-10.78
-4.69
0.76
5.43
9.30
12.36
14.55
15.87
16.39
16.32
15.96
15.56
15.25
15.04
14.90
14.78
14.63
14.36
13.84
12.88
11.37
9.33
6.87
4.20
1.47
-1.28
-4.16
-7.35
-11.05
-15.27
-19.85
-24.38
-28.27
-30.85
-31.59
-30.23
-26.87
-21.95
-16.05
-9.77
-3.58
2.16
7.22
11.41
14.58
16.68
17.76
17.99
17.63
16.98
16.37
16.06
16.19
16.69
17.32
17.73
17.62
16.83
15.36
13.37
11.05
8.53
5.83
2.92
-0.26
-3.72
-7.46
-11.50
-15.84
-20.47
-25.27
-29.86
-33.67
-35.94
-36.03
-33.59
-28.84
-22.43
-15.30
-8.34
-2.10
3.24
7.82
11.83
15.32
18.21
20.30
21.52
21.94
21.85
21.57
21.30
21.14
20.98
20.67
20.06
19.07
17.69
15.93
13.81
11.35
8.58
5.58
2.43
-0.76
-3.98
-7.30
-10.83
-14.80
-19.38
-24.53
-29.97
-35.05
-38.96
-40.87
-40.26
-37.05
-31.61
-24.68
-17.04
-9.43
-2.33
3.95
9.29
13.67
17.14
19.81
21.82
23.34
24.48
25.31
25.85
26.09
26.09
25.90
25.60
25.20
24.65
23.86
22.69
21.04
18.84
16.10
12.88
9.26
5.42
1.53
-2.25
-5.87
-9.44
-13.18
-17.38
-22.22
-27.59
-33.01
-37.72
-40.81
-41.50
-39.43
-34.80
-28.31
-20.92
-13.54
-6.76
-0.77
4.49
9.15
13.23
16.65
19.25
21.00
22.05
22.64
23.05
23.46
23.94
24.37
24.59
24.48
24.03
23.35
22.56
21.75
20.84
19.57
17.68
15.02
11.68
7.95
4.20
0.72
-2.45
-5.46
-8.59
-12.07
-16.07
-20.59
-25.51
-30.45
-34.81
-37.81
-38.75
-37.20
-33.23
-27.36
-20.36
-13.02
-5.87
0.79
6.83
12.09
16.33
19.36
21.15
21.91
22.06
22.06
22.20
22.56
23.02
23.35
23.41
23.19
22.80
22.32
21.74
20.95
19.76
18.05
15.79
13.08
10.04
6.81
3.48
0.13
-3.13
-6.19
-9.06
-11.84
-14.84
-18.43
-22.80
-27.79
-32.83
-37.04
-39.49
-39.53
-37.03
-32.29
-26.03
-19.02
-11.91
-5.18
0.96
6.30
10.71
14.06
16.30
17.50
17.89
17.79
17.50
17.19
16.94
16.74
16.61
16.56
16.61
16.70
16.70
16.39
15.57
14.16
12.19
9.81
7.18
4.41
1.54
-1.43
-4.57
-7.92
-11.56
-15.57
-19.96
-24.66
-29.33
-33.44
-36.27
-37.17
-35.70
-31.86
-26.10
-19.20
-12.05
-5.33
0.57
5.59
9.81
13.26
15.84
17.35
17.75
17.16
16.02
14.85
14.09
13.90
14.20
14.69
15.10
15.23
14.95
14.19
12.89
11.00
8.59
5.79
2.79
-0.25
-3.28
-6.42
-9.85
-13.75
-18.24
-23.25
-28.54
-33.63
-37.86
-40.49
-40.86
-38.60
-33.78
-26.93
-18.86
-10.52
-2.72
4.00
9.41
13.52
16.48
18.47
19.64
20.08
19.90
19.18
18.13
16.99
15.99
15.34
15.08
15.13
15.28
15.29
14.91
13.99
12.45
10.29
7.64
4.63
1.42
-1.85
-5.14
-8.53
-12.14
-16.20
-20.86
-26.11
-31.69
-37.01
-41.27
-43.59
-43.32
-40.21
-34.52
-26.95
-18.45
-9.96
-2.23
4.32
9.53
13.49
16.38
18.43
19.79
20.59
20.91
20.85
20.53
20.12
19.76
19.57
19.58
19.77
20.03
20.21
20.11
19.49
18.08
15.72
12.38
8.27
3.79
-0.64
-4.71
-8.35
-11.73
-15.21
-19.18
-23.86
-29.19
-34.71
-39.61
-42.89
-43.63
-41.35
-36.16
-28.80
-20.37
-11.95
-4.30
2.27
7.78
12.37
16.11
18.97
20.92
22.06
22.62
22.87
23.01
23.07
22.98
22.66
22.14
21.55
21.01
20.53
20.00
19.24
18.06
16.31
13.97
11.07
7.72
4.11
0.41
-3.20
-6.67
-10.12
-13.84
-18.17
-23.29
-29.04
-34.82
-39.72
-42.70
-42.97
-40.21
-34.71
-27.26
-18.95
-10.80
-3.51
2.65
7.78
12.12
15.84
18.96
21.35
22.89
23.60
23.70
23.48
23.21
22.93
22.56
21.95
21.06
20.00
19.04
18.36
17.98
17.66
16.98
15.48
12.91
9.30
4.99
0.49
-3.71
-7.36
-10.53
-13.57
-17.02
-21.32
-26.63
-32.63
-38.58
-43.45
-46.27
-46.37
-43.59
-38.29
-31.20
-23.21
-15.15
-7.64
-1.03
4.56
9.12
12.72
15.39
17.20
18.23
18.60
18.55
18.37
18.32
18.57
19.13
19.88
20.60
21.09
21.22
20.92
20.20
19.04
17.35
15.07
12.13
8.59
4.66
0.66
-3.13
-6.61
-9.90
-13.39
-17.41
-22.18
-27.46
-32.65
-36.82
-39.10
-38.91
-36.12
-31.08
-24.42
-16.85
-9.05
-1.56
5.11
10.53
14.39
16.62
17.39
17.15
16.45
15.79
15.44
15.44
15.69
16.06
16.45
16.82
17.11
17.22
16.94
16.14
14.74
12.79
10.48
8.04
5.61
3.24
0.86
-1.67
-4.51
-7.79
-11.68
-16.29
-21.59
-27.23
-32.48
-36.29
-37.62
-35.79
-30.81
-23.43
-14.82
-6.21
1.52
7.91
12.97
16.83
19.63
21.42
22.21
22.08
21.27
20.12
19.06
18.41
18.33
18.78
19.54
20.34
20.92
21.19
21.10
20.70
19.96
18.76
16.95
14.40
11.14
7.32
3.20
-1.03
-5.32
-9.78
-14.61
-19.92
-25.51
-30.85
-35.14
-37.49
-37.30
-34.39
-29.07
-22.04
-14.15
-6.22
1.17
7.63
12.96
17.12
20.08
21.87
22.56
22.23
21.08
19.35
17.38
15.48
13.90
12.75
11.97
11.34
10.61
9.55
8.07
6.21
4.13
1.98
-0.12
-2.15
-4.18
-6.29
-8.57
-11.13
-14.11
-17.70
-22.01
-26.94
-32.03
-36.43
-39.11
-39.19
-36.34
-30.86
-23.60
-15.68
-8.06
-1.36
4.24
8.81
12.49
15.35
17.36
18.42
18.51
17.73
16.35
14.74
13.31
12.37
11.99
12.03
12.16
12.01
11.31
9.96
8.11
5.96
3.76
1.63
-0.40
-2.46
-4.70
-7.28
-10.34
-13.97
-18.16
-22.71
-27.16
-30.79
-32.78
-32.46
-29.60
-24.50
-17.90
-10.78
-3.99
1.94
6.80
10.58
13.26
14.81
15.16
14.40
12.86
11.03
9.47
8.59
8.56
9.22
10.23
11.13
11.57
11.32
10.36
8.80
6.79
4.46
1.90
-0.85
-3.77
-6.85
-10.07
-13.47
-17.12
-21.09
-25.27
-29.24
-32.33
-33.70
-32.78
-29.38
-23.90
-17.14
-10.09
-3.53
2.09
6.68
10.36
13.23
15.34
16.62
17.04
16.68
15.76
14.67
13.76
13.33
13.46
14.02
14.65
14.90
14.44
13.09
10.99
8.44
5.77
3.19
0.69
-1.89
-4.79
-8.16
-12.05
-16.45
-21.23
-26.18
-30.98
-35.13
-37.98
-38.88
-37.37
-33.42
-27.43
-20.17
-12.55
-5.32
1.08
6.54
11.14
15.03
18.21
20.59
22.04
22.53
22.21
21.38
20.38
19.47
18.77
18.21
17.71
17.17
16.51
15.67
14.59
13.15
11.26
8.87
6.01
2.76
-0.76
-4.48
-8.38
-12.47
-16.80
-21.40
-26.29
-31.28
-35.98
-39.70
-41.61
-40.98
-37.51
-31.50
-23.78
-15.46
-7.51
-0.53
5.33
10.21
14.29
17.65
20.24
22.00
22.94
23.22
23.15
23.03
23.07
23.32
23.66
23.89
23.81
23.37
22.55
21.41
19.93
18.04
15.61
12.60
9.09
5.30
1.51
-2.07
-5.41
-8.63
-12.00
-15.85
-20.37
-25.52
-30.87
-35.61
-38.72
-39.23
-36.64
-31.05
-23.21
-14.24
-5.26
2.94
10.03
16.05
21.17
25.45
28.83
31.19
32.49
32.92
32.82
32.60
32.51
32.60
32.71
32.61
32.16
31.40
30.49
29.59
28.75
27.82
26.53
24.55
21.76
18.21
14.19
10.18
6.61
3.74
1.54
-0.32
-2.37
-5.10
-8.83
-13.43
-18.37
-22.75
-25.54
-25.88
-23.37
-18.13
-10.80
-2.29
6.47
14.76
22.16
28.55
34.02
38.73
42.90
46.66
50.09
52.98
54.89
55.21
53.35
49.09
42.68
34.85
26.61
18.84
12.10
6.57
2.06
-1.69
-4.93
-7.85
-10.59
-13.31
-16.14
-19.18
-22.38
-25.59
-28.62
-31.32
-33.72
-36.01
-38.52
-41.48
-44.92
-48.52
-51.62
-53.35
-52.94
-49.98
-44.56
-37.28
-29.06
-20.82
-13.25
-6.71
-1.26
3.17
6.66
9.28
11.04
12.03
12.41
12.34
11.95
11.24
10.15
8.64
6.78
4.83
3.07
1.71
0.74
-0.05
-1.01
-2.41
-4.35
-6.72
-9.29
-11.82
-14.24
-16.60
-19.06
-21.87
-25.18
-29.03
-33.18
-37.16
-40.22
-41.64
-40.93
-38.05
-33.48
-28.05
-22.63
-17.85
-14.01
-11.08
-8.95
-7.45
-6.51
-6.06
-5.92
-5.84
-5.54
-4.83
-3.67
-2.20
-0.64
0.78
1.84
2.42
2.39
1.74
0.51
-1.14
-3.01
-4.95
-6.93
-9.04
-11.43
-14.22
-17.45
-21.13
-25.22
-29.72
-34.52
-39.38
-43.80
-47.06
-48.42
-47.35
-43.78
-38.08
-31.01
-23.40
