1542042189.00
64.000000
-0.00
-0.00
-0.00
-0.00
-0.00
-0.00
-0.00
-0.00
-0.00
-0.00
0.00
0.01
0.01
-0.00
-0.03
-0.05
-0.05
0.00
0.13
0.36
0.66
1.01
1.37
1.72
2.06
2.40
2.79
3.24
3.80
4.42
5.06
5.66
6.20
6.68
7.15
7.68
8.31
9.14
10.09
11.04
11.88
12.56
13.14
13.76
14.65
15.96
17.91
20.32
22.90
25.38
27.58
29.57
31.68
34.32
37.81
42.54
48.15
54.10
59.83
64.97
69.58
74.14
79.34
85.71
93.76
103.00
112.62
121.73
129.77
136.75
143.30
150.75
157.77
166.64
177.95
191.79
206.97
220.57
228.25
225.36
208.53
176.87
132.76
80.05
23.07
-34.94
-92.44
-149.16
-205.23
-260.37
-313.74
-363.87
-409.83
-450.91
-486.50
-515.74
-537.23
-549.22
-549.96
-538.37
-514.21
-478.67
-433.88
-382.45
-327.02
-269.84
-212.63
-156.66
-102.95
-52.37
-5.90
35.58
71.43
101.35
125.50
144.38
158.69
169.15
176.37
180.75
182.57
182.07
179.51
175.23
169.65
163.18
156.15
148.81
141.30
133.69
126.02
118.33
110.69
103.16
95.80
88.68
81.83
75.25
68.95
62.95
57.25
51.86
46.78
42.03
37.59
33.45
29.61
26.07
22.81
19.83
17.11
14.67
12.48
10.54
8.83
7.35
6.07
4.97
4.05
3.27
2.62
2.09
1.65
1.30
1.01
0.79
0.61
0.47
0.37
0.28
0.22
0.18
0.15
0.13
0.12
0.12
0.13
0.14
0.16
0.19
0.23
0.26
0.30
0.34
0.39
0.43
0.48
0.52
0.58
0.63
0.68
0.74
0.80
0.87
0.95
1.03
1.12
1.22
1.34
1.46
1.61
1.77
1.95
2.15
2.37
2.61
2.88
3.18
3.51
3.87
4.27
4.70
5.16
5.66
6.20
6.78
7.40
8.06
8.77
9.52
10.32
11.16
12.05
12.97
13.96
15.00
16.11
17.28
18.50
19.77
21.03
22.24
23.31
24.16
24.64
24.65
24.07
22.83
20.88
18.21
14.90
11.02
6.75
2.29
-2.17
-6.39
-10.19
-13.40
-15.92
-17.71
-18.80
-19.23
-19.13
-18.60
-17.73
-16.58
-15.21
-13.67
-12.02
-10.30
-8.56
-6.87
-5.25
-3.68
-2.11
-0.51
1.16
2.85
4.55
6.25
7.81
9.26
10.67
12.16
13.87
15.85
18.05
20.37
22.75
24.85
26.63
28.25
30.02
32.20
34.90
37.96
41.10
44.07
46.25
47.55
48.27
48.95
50.07
51.78
53.82
55.65
56.76
56.21
53.76
49.68
44.41
38.18
30.66
20.65
5.93
-11.39
-31.47
-54.70
-81.40
-111.21
-142.42
-171.78
-194.92
-207.61
-207.33
-195.10
-174.51
-150.63
-128.06
-109.49
-95.23
-84.00
-74.16
-64.84
-56.55
-49.79
-44.22
-38.42
-30.61
-19.77
-6.46
7.33
19.28
27.71
32.79
36.05
39.20
43.04
47.10
50.30
51.97
52.43
52.66
53.69
55.82
58.37
60.19
60.33
58.48
54.98
50.51
45.65
40.88
36.53
32.89
30.09
28.08
26.58
25.19
23.54
21.48
19.05
16.47
13.98
11.69
9.51
7.23
4.59
1.43
-2.14
-5.87
-9.54
-13.15
-17.02
-21.58
-26.99
-32.91
-38.43
-42.46
-44.18
-43.42
-40.71
-36.93
-32.92
-29.06
-25.34
-21.47
-17.23
-12.65
-8.05
-3.94
-0.80
1.05
1.67
1.52
1.35
1.90
3.53
5.99
8.54
10.28
10.75
10.23
9.60
9.90
11.57
14.18
16.59
17.59
16.66
14.24
11.52
9.70
9.34
10.09
10.93
10.86
9.40
6.73
3.43
0.02
-3.25
-6.46
-9.73
-13.06
-16.20
-18.88
-21.02
-22.82
-24.65
-26.78
-29.15
-31.33
-32.70
-32.68
-30.97
-27.61
-22.94
-17.44
-11.66
-6.15
-1.45
2.02
4.00
4.53
3.95
2.91
2.13
2.15
3.24
5.23
7.72
10.26
12.58
14.69
16.75
18.90
21.03
22.78
23.63
23.20
21.48
18.86
16.07
13.76
12.34
11.73
11.49
11.03
9.87
7.85
5.14
2.14
-0.72
-3.12
-4.95
-6.32
-7.55
-9.09
-11.38
-14.59
-18.44
-22.26
-25.17
-26.45
-25.88
-23.74
-20.59
-16.97
-13.15
-9.11
-4.85
-0.50
3.48
6.51
8.15
8.37
7.58
6.47
5.76
5.99
7.45
10.04
13.41
16.97
20.02
21.97
22.49
21.69
20.09
18.37
17.09
16.41
16.02
15.34
13.86
11.33
7.94
4.20
0.69
-2.14
-4.10
-5.26
-5.88
-6.27
-6.78
-7.72
-9.35
-11.78
-14.95
-18.59
-22.27
-25.52
-27.90
-29.09
-28.94
-27.40
-24.59
-20.68
-15.90
-10.56
-5.03
0.32
5.14
9.21
12.41
14.64
15.89
16.19
15.70
14.72
13.66
12.86
12.51
12.52
12.61
12.54
12.22
11.75
11.35
11.14
10.95
10.44
9.33
7.64
5.70
4.03
2.99
2.56
2.36
1.91
0.81
-1.00
-3.22
-5.36
-6.99
-7.83
-7.92
-7.54
-7.08
-6.81
-6.70
-6.30
-4.74
-1.06
5.36
14.40
25.13
36.19
46.39
55.20
62.91
70.30
78.04
86.21
94.06
100.28
103.39
102.18
95.85
84.08
67.21
46.42
23.94
3.11
-12.22
-18.94
-16.11
-5.74
7.66
18.69
23.10
18.95
6.54
-12.77
-37.70
-67.28
-100.19
-133.84
-164.42
-187.84
-201.38
-204.73
-199.83
-189.61
-176.62
-162.36
-147.75
-133.80
-121.77
-112.56
-105.86
-99.99
-92.68
-82.34
-69.05
-54.42
-40.52
-28.60
-18.65
-9.84
-1.54
5.97
11.54
14.05
13.45
11.08
9.15
9.53
12.82
18.16
23.94
28.84
32.53
35.66
39.14
43.48
48.43
53.16
56.83
59.02
59.84
59.67
58.84
57.51
55.63
53.08
49.69
45.16
39.03
30.95
21.04
10.21
0.01
-7.99
-12.90
-15.04
-15.69
-16.48
-18.57
-22.34
-27.46
-33.46
-39.96
-46.65
-52.90
-57.48
-58.73
-55.18
-46.26
-32.77
-16.81
-1.16
11.61
19.90
23.55
23.78
22.78
22.79
25.14
29.74
35.08
38.96
39.38
35.27
26.67
14.50
0.16
-14.62
-28.01
-38.28
-44.35
-46.23
-45.09
-42.61
-39.88
-36.56
-30.98
-21.16
-6.33
12.00
30.23
44.01
49.83
46.53
35.60
20.54
5.81
-4.51
-7.86
-3.92
5.18
15.59
23.27
25.62
22.52
16.18
9.89
6.32
6.50
9.81
14.95
21.17
28.64
38.04
49.62
62.37
74.17
82.67
86.27
84.82
79.46
71.99
64.12
57.12
51.62
47.79
45.59
44.66
44.43
44.05
42.69
39.83
35.49
30.28
25.08
20.75
17.72
15.89
14.66
13.16
10.54
6.16
-0.20
-8.36
-17.73
-27.41
-36.26
-43.14
-47.13
-47.82
-45.49
-41.18
-36.40
-32.74
-31.30
-32.38
-35.31
-38.74
-41.01
-40.67
-36.88
-29.73
-20.07
-9.24
1.42
10.97
19.01
25.57
30.78
34.62
36.93
37.69
37.29
36.54
36.41
37.57
39.99
42.92
45.24
46.00
44.81
41.99
38.36
34.78
31.85
29.65
27.82
25.75
22.94
19.27
15.07
10.88
7.19
4.12
1.35
-1.55
-4.85
-8.45
-12.08
-15.63
-19.44
-24.10
-30.12
-37.35
-44.89
-51.35
-55.40
-56.37
-54.37
-50.05
-44.17
-37.32
-29.82
-21.96
-14.09
-6.74
-0.38
4.67
8.39
11.04
13.05
14.86
16.80
18.97
21.28
23.54
25.57
27.31
28.80
30.09
31.19
31.97
32.32
32.17
31.59
30.71
29.64
28.35
26.73
24.68
22.16
19.23
15.92
12.18
7.93
3.15
-2.01
-7.23
-12.10
-16.24
-19.48
-21.98
-24.28
-27.11
-31.11
-36.51
-42.87
-49.10
-53.73
-55.44
-53.52
-48.12
-40.21
-31.07
-21.89
-13.38
-5.76
1.03
7.11
12.46
16.97
20.53
23.13
24.97
26.34
27.57
28.84
30.18
31.54
32.81
33.93
34.85
35.57
36.06
36.22
35.95
35.17
33.80
31.81
29.21
26.12
22.74
19.32
16.05
12.94
9.78
6.27
2.22
-2.27
-6.84
-11.05
-14.70
-17.99
-21.44
-25.61
-30.73
-36.54
-42.46
-47.80
-52.12
-55.23
-57.14
-57.79
-56.96
-54.28
-49.38
-42.17
-33.01
-22.66
-12.15
-2.51
5.49
11.50
15.62
18.21
19.72
20.60
21.34
22.56
24.92
28.92
34.61
41.56
49.03
56.44
63.58
70.49
76.93
81.86
83.42
79.58
69.26
53.17
33.84
14.81
-0.83
-11.52
-17.52
-20.34
-21.64
-22.48
-23.13
-23.38
-23.17
-22.79
-22.81
-23.73
-25.69
-28.48
-31.66
-34.76
-37.40
-39.24
-40.00
-39.45
-37.51
-34.24
-29.79
-24.39
-18.28
-11.76
-5.21
0.98
6.40
10.78
13.96
16.01
17.11
17.67
18.22
19.38
21.54
24.69
28.34
31.75
34.24
35.44
35.43
34.48
32.87
30.77
28.26
25.50
22.65
19.85
17.06
14.05
10.54
6.38
1.65
-3.36
-8.30
-12.89
-16.98
-20.58
-23.78
-26.82
-30.05
-33.78
-38.21
-43.13
-48.02
-51.88
-53.75
-52.92
-49.20
-42.98
-35.09
-26.55
-18.20
-10.68
-4.19
1.28
5.95
10.10
13.93
17.54
20.83
23.58
25.49
26.30
25.87
24.26
21.78
18.86
15.98
13.47
11.51
10.12
9.32
9.06
9.20
9.56
9.66
9.05
7.35
4.46
0.68
-3.47
-7.36
-10.54
-12.85
-14.53
-16.06
-18.07
-21.12
-25.47
-30.93
-36.75
-41.83
-45.10
-45.92
-44.22
-40.55
-35.59
-29.92
-23.72
-16.91
-9.47
-1.66
5.80
11.95
16.06
17.91
17.94
17.03
16.06
15.56
15.59
15.96
16.51
17.19
18.10
19.26
20.45
21.29
21.39
20.55
18.83
16.48
13.69
10.58
7.13
3.29
-0.94
-5.48
-10.20
-14.94
-19.57
-24.02
-28.36
-32.74
-37.44
-42.62
-48.17
-53.60
-58.12
-60.84
-61.08
-58.51
-53.24
-45.70
-36.50
-26.23
-15.41
-4.45
6.31
16.54
25.78
33.48
39.21
42.77
44.42
44.84
44.83
44.96
45.39
45.90
46.16
46.07
45.81
45.67
45.79
45.90
45.41
43.75
40.67
36.43
31.62
26.80
22.23
17.78
13.03
7.66
1.63
-4.76
-10.99
-16.60
-21.38
-25.44
-29.11
-32.88
-37.13
-42.02
-47.39
-52.71
-57.13
-59.68
-59.53
-56.27
-50.04
-41.45
-31.33
-20.44
-9.34
1.63
12.20
21.93
30.22
36.43
40.13
41.37
40.73
39.19
37.78
37.19
37.61
38.69
39.83
40.53
40.59
40.13
39.33
38.23
36.64
34.28
31.06
27.29
23.60
20.62
18.63
17.34
15.99
13.75
10.19
5.45
0.20
-4.72
-8.66
-11.46
-13.45
-15.32
-17.86
-21.74
-27.30
-34.43
-42.58
-50.82
-58.01
-63.01
-64.92
-63.16
-57.69
-48.92
-37.74
-25.33
-12.97
-1.65
8.01
15.85
22.01
26.69
29.96
31.76
32.14
31.39
30.14
29.21
29.24
30.47
32.63
35.10
37.19
38.49
38.92
38.64
37.86
36.64
34.85
32.30
28.95
24.95
20.58
16.18
11.92
7.80
3.70
-0.47
-4.67
-8.72
-12.35
-15.41
-17.92
-20.18
-22.69
-26.03
-30.64
-36.69
-43.84
-51.35
-58.11
-62.93
-64.78
-63.04
-57.63
-49.04
-38.17
-26.14
-13.96
-2.39
8.14
17.34
24.99
30.79
34.50
36.11
36.00
34.91
33.69
32.96
32.97
33.57
34.44
35.40
36.38
37.39
38.29
38.62
37.84
35.52
31.65
26.73
21.56
16.90
13.17
10.33
7.98
5.65
3.01
0.00
-3.24
-6.57
-9.89
-13.19
-16.55
-20.05
-23.83
-28.11
-33.15
-39.08
-45.60
-51.89
-56.70
-58.72
-57.10
-51.77
-43.47
-33.42
-22.86
-12.70
-3.43
4.84
12.10
18.36
23.51
27.36
29.80
30.86
30.85
30.26
29.59
29.16
28.96
28.74
28.25
27.46
26.66
26.21
26.26
26.58
26.62
25.73
23.55
20.15
15.98
11.66
7.68
4.23
1.20
-1.71
-4.78
-8.05
-11.34
-14.33
-16.81
-18.80
-20.61
-22.69
-25.57
-29.62
-34.99
-41.52
-48.59
-55.20
-60.14
-62.31
-61.10
-56.62
-49.54
-40.78
-31.15
-21.21
-11.29
-1.69
7.22
15.01
21.34
26.06
29.26
31.23
32.36
33.03
33.48
33.74
33.69
33.18
32.29
31.36
30.95
31.56
33.36
36.06
38.97
41.20
41.99
40.87
37.78
33.09
27.49
21.85
16.90
13.04
10.24
8.12
6.19
4.06
1.54
-1.44
-4.91
-8.88
-13.32
-18.14
-23.21
-28.48
-34.03
-39.97
-46.20
-52.29
-57.47
-60.79
-61.42
-58.92
-53.31
-45.13
-35.23
-24.64
-14.28
-4.84
3.26
9.85
14.87
18.37
20.46
21.45
21.84
22.15
22.79
23.78
24.88
25.67
25.82
25.23
24.03
22.43
20.63
18.81
17.13
15.68
14.37
12.89
10.81
7.82
4.03
-0.03
-3.59
-6.10
-7.54
-8.50
-9.89
-12.48
-16.67
-22.37
-28.97
-35.35
-39.92
-40.86
-36.71
-27.12
-13.42
1.52
14.23
21.97
23.94
21.43
17.14
13.79
12.96
14.67
17.97
21.70
25.30
28.99
33.48
39.47
47.27
56.68
66.98
77.10
85.82
92.07
95.26
95.43
93.18
89.30
84.32
78.31
71.19
63.03
54.41
46.19
39.08
33.20
28.11
23.27
18.62
14.76
12.39
11.45
10.62
7.69
0.81
-10.29
-23.94
-37.33
-48.04
-55.19
-59.72
-63.31
-67.19
-71.32
-74.48
-75.13
-72.33
-66.39
-58.62
-50.69
-43.67
-37.34
-29.85
-18.28
0.06
25.78
56.20
85.33
105.65
110.91
98.24
68.64
25.64
-26.65
-84.40
-143.27
-196.97
-236.81
-253.81
-242.56
-204.77
-149.68
-90.68
-39.75
-3.05
19.83
33.11
40.48
42.57
37.46
23.62
2.77
-19.70
-37.20
-45.48
-45.02
-40.65
-38.53
-42.31
-51.09
-60.32
-64.93
-63.01
-57.59
-55.33
-62.59
-81.06
-105.39
-124.90
-128.71
-111.49
-76.84
-36.00
-2.72
13.26
10.24
-5.48
-23.79
-36.21
-39.52
-35.69
-28.83
-21.63
-13.75
-3.33
9.82
21.92
25.81
14.66
-13.53
-53.34
-93.29
-120.64
-126.95
-111.52
-80.86
-44.79
-11.68
14.71
35.34
53.68
72.75
93.39
114.34
133.64
150.02
163.60
175.31
185.95
195.53
203.20
207.80
208.47
205.19
199.05
192.10
186.99
185.96
189.82
197.13
204.23
206.25
198.90
179.88
149.10
107.69
57.00
-1.16
-63.09
-121.64
-166.65
-187.98
-180.04
-145.44
-95.24
-45.22
-10.18
0.88
-13.54
-48.97
-97.99
-152.93
-206.94
-253.88
-288.31
-306.05
-305.14
-286.57
-253.85
-211.55
-163.90
-113.98
-64.07
-16.56
25.32
57.64
76.88
81.24
71.60
51.57
26.56
2.14
-17.70
-31.68
-40.99
-48.07
-54.82
-61.49
-66.62
-68.26
-65.64
-59.95
-53.86
-49.69
-47.50
-44.32
-35.54
-17.61
9.23
40.10
66.93
81.65
79.54
61.23
32.56
2.47
-20.05
-28.87
-22.38
-3.53
21.65
46.24
64.79
75.03
78.16
77.92
78.48
82.35
89.00
95.08
96.13
88.86
72.69
49.96
24.65
0.45
-20.60
-38.07
-52.28
-63.12
-69.93
-72.30
-71.28
-69.54
-70.28
-75.14
-82.62
-88.08
-85.47
-70.35
-42.23
-5.33
32.73
63.59
80.97
82.56
70.47
50.26
28.99
13.09
6.61
10.38
22.32
38.67
55.40
69.41
78.99
83.64
83.60
79.40
71.68
61.42
50.06
39.37
30.85
25.05
21.19
17.63
12.85
6.58
0.03
-4.75
-6.28
-4.78
-2.41
-2.26
-6.75
-16.25
-28.71
-40.43
-47.45
-46.93
-37.96
-21.58
-0.28
22.53
44.17
62.76
77.90
90.53
102.24
114.27
126.98
139.83
151.69
162.21
171.34
179.36
186.54
192.88
198.41
203.49
209.13
216.04
225.73
238.01
251.50
264.02
273.31
277.49
275.26
265.76
247.07
221.16
189.22
153.53
117.06
82.53
51.40
23.28
-3.81
-35.49
-69.97
-107.48
-146.54
-184.80
-220.07
-251.42
-279.57
-306.50
-339.69
-375.69
-416.35
-462.59
-513.94
-567.66
-618.39
-658.55
-680.44
-685.24
-664.79
-623.41
-568.35
-506.51
-441.58
-373.67
-301.48
-185.34
-84.71
-0.44
57.51
82.58
74.41
38.96
-13.98
-73.98
-132.50
-190.36
-236.76
-269.70
-287.70
-289.83
-276.25
-248.72
-210.66
-166.79
-127.25
-90.93
-60.88
-37.59
-19.04
-1.58
18.36
42.75
70.98
97.30
121.95
142.24
157.40
168.82
179.73
194.07
215.77
247.49
287.95
335.66
383.43
421.12
437.90
425.63
381.86
311.50
225.82
138.74
64.39
11.78
-16.04
-21.34
-9.42
13.82
43.64
77.08
112.68
149.64
186.96
222.80
254.58
279.82
297.12
307.14
312.64
317.63
325.61
337.68
351.68
362.84
365.76
356.84
335.83
305.66
270.65
234.54
199.16
164.97
132.27
102.25
76.68
56.60
40.97
26.78
10.61
-8.88
-29.45
-45.62
-51.07
-41.71
-17.71
16.39
53.44
86.17
109.21
120.01
118.75
107.70
90.36
70.66
52.04
36.75
25.55
17.51
10.58
2.02
-11.08
-31.28
-60.23
-97.71
-140.61
-182.94
-217.13
-236.50
-237.97
-223.52
-199.54
-174.42
-155.53
-147.08
-149.86
-162.48
-183.38
-212.07
-249.17
-295.19
-348.97
-406.54
-461.08
-504.33
-528.71
-529.57
-506.76
-464.57
-409.98
-350.28
-290.79
-234.08
-180.49
-129.26
-79.51
-30.65
17.85
66.67
116.08
165.22
211.51
250.86
278.52
290.59
285.35
264.15
231.33
193.09
155.85
124.39
100.63
83.47
69.93
56.80
42.21
26.12
9.76
-5.56
-19.35
-32.01
-44.14
-55.73
-65.77
-72.58
-74.52
-70.49
-60.11
-43.70
-22.25
2.58
28.46
52.61
72.44
86.28
93.90
96.50
96.21
95.28
95.40
97.47
101.66
107.57
114.27
120.24
123.60
122.71
117.14
108.47
100.03
95.66
97.49
104.18
110.70
110.20
97.35
71.26
36.28
0.07
-30.04
-50.25
-61.30
-66.86
-70.66
-73.87
-74.48
-68.74
-53.73
-29.33
1.40
33.79
63.95
90.77
116.07
142.86
172.73
203.74
230.34
245.41
243.38
222.80
186.98
142.23
95.07
49.98
8.83
-28.12
-60.68
-87.85
-107.96
-119.55
-122.32
-117.71
-108.74
-99.58
-94.79
-98.46
-113.31
-140.52
-179.81
-229.78
-288.01
-350.58
-411.61
-463.41
-497.97
-509.51
-496.74
-463.83
-418.93
-371.06
-326.98
-289.47
-257.75
-229.31
-201.89
-174.61
-147.78
-122.00
-97.26
-72.74
-47.09
-18.99
12.23
46.53
83.50
122.85
164.38
207.68
251.42
292.94
328.62
354.84
369.31
372.03
365.36
353.13
339.20
326.00
313.77
300.89
284.63
262.49
232.97
195.77
151.09
98.98
39.23
-27.63
-98.74
-167.99
-226.62
-265.88
-280.30
-269.87
-239.84
-198.02
-151.54
-104.68
-58.97
-14.74
27.04
64.21
94.40
116.45
131.20
141.03
148.37
154.25
157.83
156.87
148.98
132.90
109.21
80.43
50.38
23.30
2.84
-8.69
-10.90
-5.37
4.66
15.05
21.73
21.94
15.13
3.17
-10.38
-21.79
-28.66
-30.69
-29.40
-26.90
-24.65
-22.87
-20.84
-17.75
-13.34
-8.10
-2.78
2.08
6.39
10.36
14.16
17.61
20.23
21.53
21.41
20.39
19.41
19.37
20.58
22.36
23.08
20.84
14.36
3.77
-9.25
-22.03
-31.99
-37.55
-38.56
-36.02
-31.31
-25.53
-19.25
-12.58
-5.57
1.57
8.47
14.78
20.29
25.03
29.08
32.36
34.61
35.45
34.62
32.17
28.48
24.09
19.61
15.49
12.07
9.56
8.06
7.51
7.59
7.75
7.31
5.73
2.88
-0.93
-5.05
-8.77
-11.61
-13.47
-14.60
-15.46
-16.51
-18.14
-20.58
-23.86
-27.81
-31.93
-35.58
-38.01
-38.68
-37.41
-34.39
-30.16
-25.31
-20.38
-15.64
-11.15
-6.79
-2.49
1.71
5.50
8.44
10.16
10.57
10.07
9.53
10.04
12.46
16.95
22.68
27.89
30.42
28.54
21.74
11.04
-1.22
-12.17
-19.41
-21.72
-19.27
-13.27
-5.39
2.85
10.27
16.07
19.69
20.75
19.24
15.56
10.57
5.20
0.21
-4.09
-7.88
-11.48
-15.04
-18.31
-20.76
-21.85
-21.53
-20.22
-18.66
-17.45
-16.66
-15.82
-14.19
-11.29
-7.18
-2.48
2.01
5.68
8.33
10.20
11.64
12.89
13.97
14.78
15.29
15.64
16.12
17.02
18.45
20.20
21.76
22.55
22.23
20.77
18.58
16.28
14.37
13.05
12.05
10.88
9.11
6.63
3.64
0.53
-2.35
-4.88
-7.19
-9.53
-12.14
-15.16
-18.53
-22.09
-25.52
-28.36
-30.11
-30.27
-28.56
-25.02
-20.01
-14.11
-7.93
-1.97
3.45
8.24
12.40
16.02
19.14
21.75
23.78
25.14
25.73
25.60
24.97
24.19
23.68
23.84
24.89
26.83
29.36
31.93
33.94
34.86
34.55
33.27
31.72
30.80
31.21
33.15
36.10
39.04
40.87
40.92
39.34
37.13
35.66
36.17
39.22
44.51
50.91
56.85
60.80
61.83
60.07
56.89
54.51
55.21
60.24
69.09
79.58
88.68
93.83
94.00
89.98
83.67
76.86
70.18
63.02
53.99
41.87
26.07
6.70
-15.65
-39.96
-64.64
-87.45
-105.96
-118.62
-125.70
-129.51
-133.37
-139.95
-149.91
-161.53
-171.60
-176.77
-174.71
-164.57
-146.91
-123.41
-96.64
-69.80
-46.39
-29.85
-23.22
-28.68
-47.03
-76.91
-113.96
-150.66
-177.65
-186.85
-174.86
-145.16
-107.07
-72.19
-49.65
-42.99
-49.74
-63.78
-78.64
-89.94
-96.12
-97.30
-93.77
-84.97
-69.89
-48.35
-22.32
3.78
24.33
34.85
34.12
24.98
13.37
5.68
6.01
14.56
27.96
41.31
50.41
53.28
50.24
42.93
33.24
22.61
11.99
2.09
-6.45
-13.02
-17.33
-19.46
-19.93
-19.51
-18.90
-18.34
-17.38
-14.88
-9.53
-0.45
12.23
27.12
41.95
54.44
63.25
68.54
71.80
75.07
79.98
87.10
95.88
105.08
113.20
118.86
120.93
118.58
111.51
100.16
85.89
70.83
57.33
47.19
41.07
38.34
37.55
37.08
35.74
32.86
28.10
21.25
12.21
1.31
-10.32
-20.93
-28.59
-32.00
-30.84
-25.73
-17.53
-6.92
5.76
19.73
33.05
42.66
45.41
39.74
26.80
10.23
-5.70
-18.23
-27.40
-35.51
-45.39
-58.55
-74.39
-90.96
-106.10
-118.18
-125.78
-126.96
-119.13
-99.96
-69.13
-29.40
13.55
52.75
82.00
97.48
98.20
85.69
63.10
34.46
4.14
-23.56
-44.74
-56.12
-55.13
-40.34
-12.23
25.65
66.24
100.07
118.22
116.12
95.80
65.42
35.42
13.79
2.90
-0.54
-2.30
-6.83
-14.82
-23.80
-30.90
-35.64
-40.70
-50.07
-65.91
-86.34
-105.82
-117.81
-118.33
-108.20
-92.62
-78.28
-69.77
-67.18
-66.28
-60.97
-46.79
-23.43
4.94
31.65
50.63
58.96
57.79
51.56
45.76
44.69
49.91
59.92
71.16
79.67
82.57
79.04
70.39
59.26
48.61
40.62
36.14
34.79
35.50
37.24
39.45
41.95
44.48
46.43
46.77
44.38
38.54
29.22
17.00
2.80
-12.54
-28.38
-44.07
-58.70
-70.98
-79.45
-83.14
-81.96
-76.94
-69.73
-61.95
-54.56
-47.70
-40.95
-33.90
-26.52
-19.26
-12.78
-7.46
-3.25
0.25
3.41
6.40
9.19
11.92
15.11
19.71
26.56
35.79
46.39
56.48
64.05
67.95
68.43
66.97
65.41
64.98
65.75
66.93
67.66
67.73
67.65
68.11
69.21
70.18
69.87
67.50
63.21
57.79
51.98
45.80
38.56
29.74
19.99
11.28
6.27
6.73
12.34
20.35
26.69
27.59
20.98
6.94
-12.93
-36.25
-60.55
-83.37
-102.32
-115.40
-121.75
-122.32
-119.68
-117.16
-117.20
-120.17
-124.22
-126.19
-123.20
-113.85
-98.60
-79.10
-57.09
-33.66
-9.36
15.16
38.47
58.10
71.11
75.11
69.45
55.79
38.08
21.47
10.79
8.92
15.76
28.30
41.56
50.11
49.50
37.43
14.29
-16.85
-50.51
-79.82
-98.09
-100.69
-86.51
-58.46
-22.74
12.73
40.05
52.81
47.28
23.39
-14.61
-58.39
-97.36
-121.68
-125.79
-110.44
-82.04
-49.75
-21.41
-0.78
12.79
22.48
31.36
40.70
49.83
57.16
61.28
61.41
57.51
49.79
38.68
25.00
10.22
-3.54
-13.82
-18.54
-16.69
-8.89
2.63
14.47
23.12
26.07
22.60
14.10
3.39
-6.36
-12.75
-14.83
-13.00
-8.44
-2.39
4.22
10.79
16.87
22.02
25.92
28.55
30.29
31.78
33.56
35.71
37.76
39.04
39.04
37.82
35.86
33.79
31.91
30.11
28.19
26.21
24.71
24.34
25.35
27.22
28.80
28.96
27.25
24.13
20.55
17.34
14.66
12.11
9.18
5.81
2.49
-0.07
-1.45
-1.82
-1.80
-2.19
-3.59
-6.29
-10.23
-15.02
-19.93
-23.98
-26.22
-26.09
-23.76
-19.96
-15.62
-11.26
-6.81
-1.71
4.45
11.57
18.89
25.44
30.55
34.26
37.26
40.53
44.78
50.16
56.19
61.99
66.65
69.57
70.67
70.42
69.75
69.79
71.60
75.91
82.76
91.06
98.37
101.32
96.74
83.03
61.02
33.71
4.88
-22.43
-46.91
-68.60
-87.77
-103.86
-115.30
-120.50
-119.10
-112.44
-102.91
-92.54
-82.16
-71.73
-61.75
-53.97
-50.95
-54.37
-63.47
-75.01
-84.87
-90.30
-91.37
-90.64
-91.22
-94.73
-100.35
-105.39
-106.97
-103.55
-95.49
-84.44
-72.22
-59.70
-46.31
-30.47
-10.63
13.21
38.52
60.53
73.97
75.65
66.57
51.81
38.31
31.59
32.95
39.32
45.29
46.33
41.10
31.72
22.11
15.70
13.85
15.76
19.46
23.00
25.25
25.92
25.13
22.91
19.07
13.34
5.60
-3.91
-14.57
-25.53
-35.88
-45.01
-52.95
-60.38
-68.56
-78.73
-91.42
-105.93
-120.26
-131.61
-137.20
-134.96
-123.86
-103.63
-74.42
-36.66
8.58
58.97
110.47
157.53
194.27
216.07
221.22
211.61
192.21
169.42
148.90
133.95
124.90
119.87
116.27
112.44
108.19
104.46
102.09
100.73
98.69
93.74
84.63
72.14
58.84
47.85
41.07
38.13
36.80
34.48
29.72
22.65
14.10
4.04
-9.16
-28.04
-54.07
-85.74
-117.99
-143.69
-156.44
-153.22
-135.59
-108.76
-79.34
-52.97
-32.88
-19.79
-12.89
-10.82
-12.32
-16.16
-20.73
-23.92
-23.38
-17.66
-7.16
5.36
15.54
19.06
13.49
-0.68
-20.22
-40.54
-57.42
-68.35
-72.80
-71.75
-66.76
-59.29
-50.50
-41.35
-32.79
-25.68
-20.70
-18.00
-17.18
-17.32
-17.41
-16.72
-15.17
-13.39
-12.47
-13.38
-16.50
-21.39
-26.88
-31.31
-33.11
-31.31
-25.88
-17.92
-9.32
-2.03
2.69
5.01
6.32
8.63
13.28
20.23
27.98
34.38
37.87
38.13
36.22
33.70
31.72
30.49
29.40
27.65
24.81
21.04
16.86
12.74
8.80
4.88
0.78
-3.45
-7.41
-10.48
-12.08
-11.97
-10.46
-8.30
-6.37
-5.31
-5.23
-5.64
-5.77
-5.02
-3.31
-1.22
0.26
0.05
-2.46
-7.30
-13.72
-20.45
-25.92
-28.74
-28.13
-24.27
-18.24
-11.77
-6.52
-3.55
-2.94
-3.83
-4.82
-4.54
-2.23
1.90
6.75
10.75
12.68
12.25
10.43
8.96
9.40
12.28
16.69
20.84
23.12
23.14
21.88
21.02
21.72
23.84
26.00
26.65
25.13
22.30
19.94
19.53
21.20
23.59
24.67
23.01
18.54
12.36
5.91
0.08
-4.98
-9.41
-13.08
-15.48
-16.20
-15.62
-15.09
-16.19
-19.71
-24.86
-29.43
-30.76
-27.09
-18.43
-6.59
5.57
15.32
21.14
23.15
23.06
23.19
25.41
30.11
35.99
40.69
42.16
39.83
34.90
29.71
26.56
26.72
30.09
35.50
40.92
43.68
40.59
28.73
6.80
-23.53
-57.21
-86.98
-105.84
-109.81
-99.32
-78.65
-53.87
-30.38
-11.51
1.59
9.02
11.21
8.58
1.87
-7.43
-17.09
-24.76
-28.92
-29.62
-28.45
-27.84
-29.76
-34.64
-41.00
-45.98
-46.58
-41.10
-30.00
-15.81
-2.03
8.28
13.74
14.96
13.86
12.57
12.30
13.05
14.03
14.40
13.96
13.19
12.83
13.22
14.09
14.72
14.58
13.77
13.04
13.23
14.57
16.37
17.23
15.87
11.77
5.54
-1.44
-7.68
-12.15
-14.47
-14.68
-13.01
-9.80
-5.68
-1.73
0.73
0.64
-2.19
-6.94
-12.14
-16.38
-18.94
-19.91
-19.80
-19.03
-17.67
-15.63
-12.95
-10.10
-7.68
-5.99
-4.65
-2.69
0.77
5.88
11.71
16.58
19.08
18.79
16.61
14.15
12.87
13.15
14.27
14.86
13.82
10.86
6.66
2.41
-0.65
-1.74
-0.71
1.91
5.10
7.53
8.06
6.10
1.82
-3.87
-9.65
-14.24
-16.70
-16.66
-14.43
-10.93
-7.68
-6.39
-8.39
-13.96
-21.95
-30.09
-35.92
-37.85
-35.69
-30.50
-23.83
-17.01
-10.85
-5.83
-2.26
-0.31
0.21
0.05
0.21
1.38
3.40
5.27
5.80
4.57
2.37
1.00
2.12
6.18
12.05
17.43
20.18
19.40
15.80
11.28
7.86
6.71
7.71
9.85
11.90
13.13
13.51
13.45
13.25
12.72
11.26
8.25
3.63
-2.10
-8.07
-13.56
-18.20
-22.01
-24.98
-27.05
-28.09
-28.23
-28.02
-28.17
-29.18
-30.82
-32.10
-31.79
-29.12
-24.34
-18.69
-13.72
-10.46
-8.88
-7.71
-5.12
0.41
9.20
19.98
30.13
36.75
37.84
33.32
25.04
16.05
9.25
6.37
7.53
11.67
17.29
23.16
28.44
32.52
34.83
34.81
32.33
28.07
23.39
19.86
18.49
19.13
20.58
21.16
19.69
16.01
11.11
6.53
3.65
2.99
4.10
5.77
6.64
5.61
2.21
-3.45
-10.71
-18.43
-25.17
-29.42
-29.91
-26.05
-18.28
-8.07
2.32
10.51
14.81
14.83
11.55
6.86
2.72
0.40
0.18
1.68
4.30
7.65
11.48
15.36
18.48
19.91
19.08
16.34
12.89
10.23
9.34
10.22
12.12
14.06
15.36
15.68
14.71
11.98
6.93
-0.46
-9.20
-17.29
-22.45
-23.16
-19.44
-12.81
-5.52
0.49
4.35
6.27
6.98
6.98
6.01
3.20
-2.38
-10.86
-21.19
-31.19
-38.22
-40.30
-36.85
-29.08
-19.47
-10.93
-5.72
-4.78
-7.53
-12.26
-16.93
-19.84
-20.32
-18.63
-15.70
-12.37
-8.98
-5.14
-0.12
6.51
14.38
22.22
28.32
31.26
30.61
27.02
21.83
16.47
11.90
8.57
6.64
6.34
7.81
10.87
14.61
17.41
17.64
14.39
8.11
0.54
-6.14
-10.38
-11.97
-11.94
-11.87
-13.10
-16.13
-20.74
-26.36
-32.33
-37.91
-42.01
-43.22
-40.17
-32.24
-20.18
-6.25
6.46
15.10
18.18
15.98
10.28
3.57
-1.89
-4.60
-3.99
-0.23
6.01
13.64
21.26
27.31
30.41
29.87
26.05
20.40
15.14
12.45
13.68
18.77
26.17
33.49
38.31
39.23
36.28
30.84
24.87
20.03
16.97
15.21
13.60
10.99
6.97
2.00
-2.86
-6.52
-8.52
-9.21
-9.68
-11.14
-14.34
-19.23
-24.96
-30.34
-34.49
-37.18
-38.80
-39.96
-40.98
-41.56
-40.80
-37.87
-32.42
-25.06
-17.21
-10.55
-6.36
-4.98
-5.71
-7.16
-7.93
-7.21
-5.04
-2.06
0.96
3.68
6.42
10.04
15.33
22.63
31.53
41.09
50.12
57.60
62.76
65.04
63.99
59.33
51.14
40.13
27.70
15.75
6.10
0.00
-2.38
-1.96
-0.44
0.34
-1.05
-5.13
-11.49
-19.01
-26.35
-32.37
-36.45
-38.53
-38.94
-38.23
-36.94
-35.51
-34.22
-33.12
-32.13
-30.91
-29.02
-25.93
-21.21
-14.71
-6.58
2.67
12.31
21.47
29.37
35.42
39.30
41.03
40.89
39.39
37.13
34.73
32.70
31.44
31.08
31.47
32.13
32.30
31.22
28.30
23.45
17.14
10.25
3.82
-1.29
-4.49
-5.63
-4.72
-2.01
2.06
6.72
10.78
12.96
12.20
8.26
1.85
-5.48
-11.98
-16.44
-18.64
-19.42
-20.23
-22.46
-26.70
-32.53
-38.64
-43.38
-45.41
-44.10
-39.73
-33.16
-25.51
-17.73
-10.45
-3.95
1.64
6.21
9.71
12.17
13.86
15.21
16.71
18.71
21.29
24.27
27.30
29.99
31.97
32.95
32.80
31.62
29.78
27.87
26.46
25.77
25.51
24.89
23.11
19.69
14.90
9.59
4.85
1.44
-0.46
-1.33
-2.02
-3.27
-5.50
-8.61
-12.18
-15.74
-19.03
-22.18
-25.52
-29.43
-33.93
-38.57
-42.43
-44.47
-43.98
-40.91
-35.87
-29.93
-24.04
-18.73
-13.90
-9.13
-4.03
1.44
6.88
11.62
15.11
17.07
17.63
17.18
16.17
15.05
14.13
13.66
13.82
14.64
16.02
17.70
19.41
20.90
22.03
22.68
22.72
21.97
20.30
17.68
14.25
10.34
6.35
2.67
-0.44
-2.93
-4.90
-6.52
-8.07
-9.82
-12.05
-15.05
-18.97
-23.79
-29.13
-34.22
-38.12
-39.98
-39.37
-36.53
-32.22
-27.37
-22.64
-18.19
-13.70
-8.76
-3.23
2.54
7.78
11.71
13.88
14.47
14.17
13.83
14.11
15.14
16.62
18.04
18.96
19.28
19.29
19.47
20.20
21.62
23.49
25.31
26.58
26.91
26.15
24.31
21.46
17.69
13.11
7.98
2.73
-2.07
-5.92
-8.64
-10.49
-12.16
-14.52
-18.29
-23.80
-30.85
-38.75
-46.48
-52.85
-56.72
-57.25
-54.09
-47.60
-38.80
-29.14
-20.00
-12.35
-6.46
-1.98
1.68
5.01
8.12
10.81
12.80
14.05
14.85
15.75
17.22
19.39
21.92
24.14
25.37
25.23
23.80
21.61
19.36
17.71
17.04
17.33
18.23
19.21
19.67
19.20
17.67
15.18
12.04
8.49
4.60
0.31
-4.37
-9.20
-13.58
-16.88
-18.79
-19.62
-20.31
-22.01
-25.46
-30.54
-36.22
-41.02
-43.66
-43.61
-41.17
-37.13
-32.24
-26.86
-20.89
-14.11
-6.55
1.24
8.31
13.66
16.69
17.44
16.64
15.38
14.72
15.35
17.39
20.48
23.88
26.83
28.74
29.41
29.05
28.13
27.22
26.71
26.77
27.27
27.93
28.53
28.88
28.93
28.55
27.46
25.26
21.56
16.24
9.61
2.43
-4.43
-10.16
-14.43
-17.28
-19.07
-20.24
-21.19
-22.26
-23.81
-26.21
-29.61
-33.85
-38.27
-41.87
-43.62
-42.80
-39.29
-33.49
-26.16
-18.12
-10.00
-2.20
5.07
11.70
17.55
22.39
25.87
27.70
27.73
26.09
23.27
20.01
17.12
15.37
15.18
16.66
19.39
22.64
25.40
26.70
25.88
22.80
17.95
12.25
6.86
2.72
0.35
-0.32
0.18
0.98
1.19
0.18
-2.31
-5.97
-10.18
-14.11
-17.23
-19.53
-21.57
-24.21
-28.16
-33.48
-39.41
-44.59
-47.53
-47.20
-43.41
-36.80
-28.56
-19.91
-11.82
-4.77
1.07
5.64
8.91
10.74
11.06
9.96
7.80
5.28
3.29
2.74
4.26
8.05
13.75
20.60
27.61
33.87
38.77
42.02
43.59
43.64
42.39
40.10
37.02
33.34
29.05
23.99
17.89
10.63
2.51
-5.68
-12.88
-18.10
-20.88
-21.52
-21.06
-20.87
-22.23
-25.82
-31.57
-38.66
-45.76
-51.33
-54.06
-53.09
-48.31
-40.31
-30.29
-19.73
-10.01
-2.13
3.48
7.00
8.96
10.10
11.04
12.21
13.78
15.79
18.27
21.27
24.76
28.47
31.82
34.00
34.27
32.28
28.36
23.45
18.77
15.37
13.74
13.72
14.73
16.02
16.99
17.26
16.66
15.05
12.34
8.46
3.52
-2.15
-7.99
-13.36
-17.79
-21.19
-23.91
-26.60
-29.80
-33.69
-37.83
-41.36
-43.31
-43.04
-40.46
-36.03
-30.48
-24.47
-18.34
-12.14
-5.83
0.51
6.52
11.64
15.36
17.39
17.87
17.30
16.39
15.76
15.82
16.72
18.41
20.75
23.57
26.70
29.87
32.76
35.04
36.46
36.95
36.63
35.70
34.33
32.55
30.21
27.10
23.04
18.02
12.22
5.93
-0.46
-6.64
-12.26
-17.12
-21.14
-24.50
-27.61
-31.03
-35.22
-40.28
-45.79
-50.88
-54.44
-55.53
-53.64
-48.80
-41.55
-32.68
-23.01
-13.33
-4.24
3.77
10.47
15.82
20.08
23.63
26.92
30.29
33.86
37.57
41.21
44.61
47.77
50.82
53.97
57.37
61.02
64.65
67.89
70.38
71.95
72.80
73.49
74.77
77.33
81.42
86.68
92.10
96.45
98.73
98.87
97.88
97.70
100.41
107.17
117.40
128.73
137.66
140.82
136.28
124.19
106.57
86.70
68.14
53.83
45.48
43.04
44.62
46.89
46.02
38.69
22.98
-1.40
-33.34
-71.09
-112.90
-157.27
-202.78
-247.54
-288.68
-322.29
-343.79
-348.66
-333.63
-298.08
-245.47
-183.75
-123.70
-75.30
-43.87
-27.87
-20.18
-12.21
1.25
19.52
37.32
48.82
51.91
49.51
47.22
48.97
53.84
56.41
50.69
34.82
13.08
-6.15
-15.44
-12.78
-2.76
6.52
8.62
2.51
-7.42
-14.87
-16.10
-12.01
-6.99
-5.35
-8.24
-13.12
-15.74
-13.20
-5.74
3.37
9.54
8.49
-2.76
-25.51
-58.96
-99.86
-142.42
-179.45
-204.46
-213.79
-207.88
-190.48
-166.53
-139.83
-111.87
-82.18
-49.71
-14.49
21.81
55.70
82.45
96.98
94.94
73.77
33.62
-22.45
-88.63
-156.96
-218.87
-266.73
-295.24
-302.41
-289.51
-260.32
-220.45
-176.06
-132.43
-93.20
-60.02
-32.66
-9.63
11.13
32.11
54.42
77.19
98.16
114.53
124.01
125.09
116.57
99.62
79.73
62.56
50.71
43.30
38.28
32.71
25.58
18.01
12.62
15.06
29.54
54.63
85.97
118.05
146.92
171.59
193.41
215.12
243.35
283.48
337.19
402.25
473.13
542.91
604.22
649.90
651.88
595.56
488.74
359.65
239.56
146.14
81.69
39.56
11.28
-9.10
-20.59
-21.30
-13.00
-0.93
7.95
9.26
2.50
-9.97
-24.78
-36.71
-43.51
-47.92
-51.98
-60.15
-74.99
-96.05
-120.87
-146.44
-168.83
-186.05
-198.84
-210.06
-223.89
-243.24
-269.19
-300.82
-335.11
-366.39
-388.18
-395.42
-386.14
-362.79
-330.56
-295.53
-262.50
-233.62
-208.16
-184.31
-160.96
-138.51
-118.59
-102.10
-88.18
-74.47
-58.29
-38.34
-15.49
7.65
28.00
43.39
53.63
60.21
65.35
70.80
77.17
83.91
89.83
93.80
95.20
94.12
91.26
87.61
84.08
81.23
79.17
77.70
76.48
75.28
73.99
72.51
70.68
68.24
65.03
61.28
57.55
54.58
52.85
52.27
52.08
51.32
49.35
46.22
42.66
39.53
37.34
35.99
34.99
34.03
33.37
33.90
36.68
42.31
50.58
60.46
70.64
80.06
88.35
95.82
103.13
110.87
119.30
128.32
137.66
147.01
156.26
165.44
174.71
184.19
193.84
203.39
212.32
219.76
224.57
225.45
221.18
211.03
195.16
174.68
151.45
127.41
103.80
80.71
57.14
31.68
3.37
-27.68
-60.36
-93.29
-125.52
-157.22
-189.52
-224.02
-262.18
-305.22
-354.04
-408.94
-468.72
-529.55
-584.84
-626.76
-648.97
-649.38
-631.06
-600.65
-565.20
-529.02
-492.65
-454.14
-411.61
-365.33
-317.84
-272.41
-231.02
-193.26
-156.79
-118.88
-77.98
-34.66
8.63
48.52
81.95
107.02
123.37
131.79
133.75
131.09
125.98
121.02
119.29
124.09
138.26
163.14
197.73
238.28
278.89
312.82
334.36
340.57
332.15
313.06
289.04
265.19
244.22
225.99
208.47
189.63
168.96
147.75
128.25
112.38
100.79
93.00
88.36
86.90
89.28
95.61
103.88
109.80
108.40
96.77
76.44
53.40
35.29
27.33
29.44
36.41
41.15
38.88
29.51
16.87
5.71
-1.47
-5.35
-8.35
-12.13
-16.07
-17.90
-15.64
-9.14
-0.25
8.29
14.45
17.63
18.25
17.00
14.38
11.04
8.05
6.68
7.65
10.51
13.86
16.32
17.77
19.51
23.18
29.08
35.36
38.87
37.35
31.42
25.02
23.63
31.19
47.42
67.31
82.96
87.12
76.54
53.44
24.47
-2.00
-19.32
-24.72
-19.75
-8.97
2.04
8.47
7.12
-3.43
-22.80
-48.85
-77.81
-105.01
-126.22
-138.93
-142.88
-139.55
-130.99
-118.71
-103.52
-86.00
-67.24
-49.00
-33.21
-21.12
-12.80
-7.12
-2.46
2.53
8.41
14.71
20.20
23.31
22.82
18.42
11.08
2.72
-4.52
-9.18
-11.06
-10.99
-10.04
-8.67
-6.38
-2.19
4.58
13.48
22.77
29.84
31.95
27.15
14.92
-3.65
-26.09
-49.23
-70.04
-86.29
-96.90
-101.80
-101.60
-97.27
-89.93
-80.87
-71.63
-63.83
-58.77
-56.97
-57.93
-60.10
-61.42
-59.78
-53.68
-42.61
-27.28
-9.65
7.38
20.72
27.96
28.31
23.05
15.15
8.29
5.48
8.01
15.07
24.31
32.86
38.46
40.22
38.71
35.51
32.50
31.08
31.77
34.26
37.74
41.52
45.30
49.20
53.36
57.67
61.57
64.27
65.08
63.59
59.53
52.58
42.27
28.16
10.58
-9.00
-27.83
-42.49
-49.99
-48.77
-39.24
-23.58
-5.09
12.77
27.21
36.77
41.52
42.90
43.11
44.24
47.39
52.25
57.34
60.76
61.09
57.97
51.98
44.13
35.27
25.97
16.68
8.25
1.84
-1.54
-1.72
0.26
2.36
2.35
-1.24
-8.76
-19.50
-32.14
-45.28
-57.61
-68.09
-76.07
-81.60
-85.51
-89.22
-93.85
-99.43
-104.37
-106.01
-101.88
-91.01
-74.63
-55.59
-37.17
-21.63
-9.58
-0.30
7.22
13.24
17.06
17.58
14.41
8.67
3.13
1.12
5.14
15.81
31.78
50.37
68.83
85.04
97.52
104.95
105.76
98.44
82.47
59.23
32.30
6.54
-13.44
-24.86
-27.44
-22.96
-14.23
-4.05
5.20
11.52
13.24
9.36
0.21
-12.14
-24.12
-31.82
-32.60
-26.21
-14.83
-1.92
9.28
17.00
21.29
23.33
24.44
25.28
25.80
25.64
24.58
22.80
20.73
18.72
16.73
14.38
11.18
6.76
1.09
-5.60
-13.06
-21.18
-30.03
-39.73
-50.07
-60.36
-69.51
-76.54
-81.06
-83.37
-84.25
-84.15
-82.80
-79.19
-72.39
-62.26
-49.77
-36.37
-22.79
-8.43
8.35
28.66
51.54
73.45
89.60
96.29
93.15
83.50
72.70
65.43
63.40
65.03
66.72
65.23
59.28
49.89
39.45
30.29
23.78
20.10
18.64
18.43
18.51
18.12
16.82
14.72
12.45
10.87
10.45
10.68
9.93
6.03
-2.74
-16.45
-33.02
-48.60
-59.00
-61.40
-55.50
-43.68
-29.99
-18.47
-11.60
-9.40
-9.79
-9.73
-6.68
0.28
10.33
21.34
30.70
36.06
35.66
28.56
14.97
-3.31
-22.81
-38.86
-47.03
-44.96
-33.54
-17.05
-1.46
8.16
10.04
6.49
2.92
5.21
17.11
38.71
66.83
96.86
124.94
149.20
169.62
186.67
200.02
208.20
209.36
202.52
188.52
169.85
149.37
129.17
109.86
90.64
70.18
47.34
21.49
-7.44
-39.02
-72.30
-105.67
-137.01
-164.13
-185.46
-200.27
-208.76
-211.56
-209.45
-203.33
-194.29
-183.58
-172.33
-161.07
-149.45
-136.59
-121.74
-105.21
-88.56
-74.07
-63.60
-57.55
-54.68
-52.92
-50.62
-47.32
-43.78
-41.09
-39.54
-38.08
-34.64
-27.04
-14.12
3.66
24.57
46.40
67.26
85.98
101.77
113.63
119.97
119.05
109.83
93.07
71.78
50.47
33.67
24.09
21.66
23.73
26.61
27.28
24.69
19.76
14.47
10.58
8.77
8.67
9.46
10.59
12.03
13.97
16.32
18.53
19.76
19.45
17.63
14.90
11.98
9.25
6.50
3.22
-1.02
-6.15
-11.64
-16.64
-20.36
-22.21
-22.00
-19.95
-16.75
-13.51
-11.43
-11.47
-13.84
-17.83
-22.10
-25.17
-26.05
-24.59
-21.35
-17.16
-12.60
-7.83
-2.70
2.83
8.28
12.60
14.50
13.10
8.48
1.86
-4.74
-9.36
-10.93
-9.70
-7.10
-4.96
-4.63
-6.37
-9.36
-12.36
-14.51
-15.81
-17.04
-19.16
-22.54
-26.72
-30.54
-32.86
-33.12
-31.71
-29.65
-28.19
-28.33
-30.49
-34.42
-39.15
-43.03
-44.08
-40.70
-32.47
-20.82
-8.85
-0.26
2.23
-1.92
-10.77
-20.91
-29.10
-33.59
-34.66
-34.00
-33.51
-34.30
-36.19
-37.94
-37.84
-34.41
-26.76
-14.82
0.79
18.88
37.83
55.91
71.59
84.04
93.29
100.18
105.83
111.10
116.16
120.59
123.87
125.82
126.74
127.16
127.21
126.21
122.75
115.27
102.80
85.54
64.79
42.48
20.51
0.18
-18.00
-34.14
-48.63
-61.75
-73.27
-82.49
-88.46
-90.56
-88.98
-84.91
-80.13
-76.32
-74.36
-74.01
-74.26
-73.91
-72.25
-69.27
-65.36
-60.70
-54.87
-46.88
-35.71
-21.10
-4.04
13.35
28.40
38.82
43.28
41.61
34.58
23.42
9.50
-5.74
-20.87
-34.48
-45.46
-53.49
-59.10
-63.27
-66.64
-68.83
-68.46
-64.05
-55.40
-44.40
-34.63
-29.83
-31.87
-39.94
-51.08
-62.16
-71.90
-81.49
-93.27
-108.48
-125.37
-139.22
-144.40
-137.17
-117.79
-90.42
-60.94
-34.09
-11.31
9.22
30.75
55.32
82.03
107.03
125.20
132.63
128.48
115.47
98.68
83.60
74.12
71.40
73.89
78.46
81.95
82.37
79.46
74.30
68.41
62.71
57.25
51.31
44.20
35.88
27.01
18.53
10.96
4.08
-2.91
-10.67
-19.10
-27.11
-33.16
-36.13
-36.02
-34.03
-32.06
-31.71
-33.56
-36.91
-40.24
-41.93
-40.95
-37.20
-31.28
-24.02
-16.09
-7.73
1.01
9.93
18.53
25.92
31.20
33.86
34.09
32.77
31.12
30.09
30.03
30.53
30.79
30.09
28.18
25.47
22.80
21.02
20.54
21.15
22.11
22.51
21.70
19.65
16.83
14.06
12.02
10.96
10.53
10.00
8.66
6.21
2.93
-0.44
-3.11
-4.69
-5.38
-5.91
-7.01
-9.00
-11.53
-13.76
-14.79
-14.19
-12.12
-9.31
-6.60
-4.63
-3.57
-3.24
-3.29
-3.43
-3.55
-3.78
-4.37
-5.47
-6.96
-8.34
-8.81
-7.67
-4.73
-0.57
3.67
6.72
7.79
6.93
4.87
2.55
0.64
-0.73
-1.82
-2.91
-4.06
-5.05
-5.54
-5.44
-4.92
-4.46
-4.49
-5.22
-6.44
-7.68
-8.43
-8.43
-7.92
-7.49
-7.86
-9.42
-12.05
-15.07
-17.53
-18.63
-18.02
-15.92
-12.93
-9.86
-7.36
-5.84
-5.41
-5.96
-7.28
-9.18
-11.60
-14.53
-18.02
-21.96
-26.02
-29.64
-32.17
-33.09
-32.33
-30.25
-27.61
-25.33
-24.19
-24.62
-26.67
-30.05
-34.36
-39.16
-44.23
-49.53
-55.29
-61.79
-69.23
-77.49
-86.23
-94.96
-103.27
-111.03
-118.31
-125.40
-132.56
-139.87
-146.99
-152.98
-156.32
-155.24
-148.39
-135.43
-117.34
-96.09
-73.92
-52.59
-33.04
-15.46
0.40
15.00
29.05
43.47
59.28
76.99
95.97
114.14
128.64
137.10
138.88
135.60
130.35
126.23
124.89
125.88
127.19
126.57
122.86
116.55
109.46
103.53
99.85
98.26
97.82
98.07
99.78
104.87
115.27
131.38
151.15
170.41
184.55
190.62
188.74
181.89
174.32
169.20
167.06
165.59
161.13
150.82
134.26
113.78
93.15
75.60
62.32
52.15
42.76
32.28
20.69
9.84
2.27
-0.52
0.92
4.13
6.05
4.67
0.07
-5.89
-10.71
-12.67
-11.67
-8.88
-5.93
-3.86
-2.64
-1.56
0.20
2.98
6.80
11.75
18.32
27.33
39.38
54.14
70.00
84.15
93.18
93.75
83.27
60.61
26.74
-14.83
-58.17
-96.09
-122.00
-132.10
-126.60
-109.65
-87.61
-66.82
-51.61
-43.44
-41.43
-43.31
-46.58
-49.21
-49.83
-47.75
-42.91
-35.97
-28.26
-21.54
-17.52
-17.28
-20.84
-27.09
-34.08
-39.67
-42.25
-41.21
-37.22
-32.00
-27.59
-25.66
-26.83
-30.51
-35.25
-39.56
-42.46
-43.83
-44.20
-44.26
-44.41
-44.57
-44.36
-43.43
-41.69
-39.30
-36.54
-33.70
-30.94
-28.43
-26.37
-24.94
-24.19
-24.02
-24.22
-24.75
-25.92
-28.20
-31.96
-37.09
-42.96
-48.75
-53.81
-57.73
-60.12
-60.40
-57.89
-52.30
-44.21
-34.99
-26.02
-17.76
-9.43
0.37
12.27
25.13
36.15
42.44
42.78
38.50
32.73
28.55
27.25
27.97
28.81
28.47
27.36
27.32
30.26
36.86
45.84
54.41
59.49
58.84
51.84
39.58
24.40
9.08
-3.86
-12.89
-17.74
-19.42
-19.80
-21.08
-25.34
-34.17
-48.43
-68.11
-92.29
-119.26
-146.60
-171.47
-191.10
-203.21
-206.63
-201.77
-190.61
-176.12
-161.29
-148.35
-137.86
-128.60
-118.18
-104.27
-85.25
-60.43
-29.57
7.70
51.57
101.86
157.10
213.73
265.96
307.12
331.94
338.81
330.80
313.73
294.56
278.94
269.60
266.16
266.49
268.49
270.94
273.42
272.89
265.95
250.40
226.57
196.91
164.98
134.51
108.31
88.35
70.42
50.34
26.91
2.66
-18.73
-34.79
-44.63
-48.79
-47.36
-48.29
-58.16
-78.19
-103.95
-129.74
-152.09
-170.16
-185.42
-198.33
-219.83
-258.73
-316.66
-387.85
-464.79
-542.83
-620.50
-699.16
-724.96
-665.74
-528.16
-354.18
-186.34
-45.65
65.32
152.26
209.29
248.38
268.05
265.69
243.79
210.51
173.75
135.83
103.69
76.84
55.40
30.92
-2.44
-44.33
-88.62
-128.55
-160.69
-185.05
-205.12
-223.23
-247.57
-284.56
-335.36
-394.77
-453.30
-500.10
-525.49
-524.61
-496.77
-449.89
-394.80
-340.67
-292.23
-250.06
-212.56
-177.94
-146.11
-117.29
-93.08
-73.96
-58.64
-44.65
-29.89
-13.72
3.06
18.44
30.91
39.81
45.64
49.79
53.77
58.56
64.28
70.31
75.71
79.90
83.00
85.78
89.27
94.36
101.40
110.12
119.85
129.93
139.94
149.84
159.86
170.26
181.19
192.62
204.58
217.06
230.04
243.38
256.76
269.86
282.79
296.69
313.31
333.93
357.82
381.57
399.65
406.40
398.41
376.15
343.74
307.29
272.60
243.45
221.42
206.55
198.19
194.87
193.67
189.97
178.22
153.97
116.07
68.01
16.88
-29.40
-65.54
-91.44
-112.22
-135.48
-167.13
-208.06
-253.41
-294.80
-324.17
-337.25
-334.68
-320.72
-300.37
-276.84
-250.79
-221.42
-188.36
-152.80
-117.13
-83.38
-51.79
-20.63
12.10
46.52
79.48
105.36
119.10
119.45
110.63
101.02
99.27
110.34
133.43
163.03
192.14
215.55
231.35
240.09
242.72
239.32
229.50
214.11
196.65
182.92
178.64
186.50
204.49
226.64
245.94
257.73
261.43
259.73
255.82
250.59
241.59
224.77
197.55
161.33
121.52
85.13
57.47
39.85
29.70
22.47
14.38
4.18
-6.84
-16.50
-23.79
-29.95
-38.01
-50.88
-69.43
-91.49
-112.69
-128.41
-135.83
-134.86
-127.58
-116.69
-104.04
-90.20
-75.05
-58.60
-41.49
-24.68
-8.98
5.02
16.82
25.95
32.44
37.40
43.47
53.93
71.19
95.06
122.25
147.42
165.68
174.75
175.81
172.50
168.73
166.87
167.17
168.45
169.48
169.66
168.80
166.38
161.04
150.97
135.05
114.09
91.02
69.94
54.13
44.56
39.48
35.61
29.83
20.73
9.12
-2.61
-11.72
-16.06
-14.89
-8.96
-0.37
7.82
11.97
8.61
-4.61
-27.65
-57.44
-88.24
-113.41
-128.06
-131.25
-126.51
-120.38
-119.60
-128.59
-148.29
-176.82
-211.29
-249.07
-288.06
-326.09
-360.37
-387.83
-406.14
-414.47
-413.39
-403.94
-386.70
-361.78
-329.36
-290.75
-248.73
-207.12
-169.88
-140.19
-120.24
-110.96
-111.68
-119.49
-128.94
-132.92
-124.88
-101.42
-63.96
-18.66
25.50
59.52
77.17
76.79
61.22
36.28
8.29
-18.18
-41.18
-60.87
-78.23
-94.09
-109.14
-124.58
-142.60
-165.89
-195.98
-231.56
-267.72
-297.38
-314.32
-316.14
-305.45
-288.45
-271.82
-259.74
-252.52
-247.28
-240.19
-228.65
-212.50
-193.75
-175.17
-158.73
-144.83
-132.53
-120.63
-108.71
-97.43
-87.91
-80.82
-75.80
-71.49
-66.15
-58.52
-48.37
-36.63
-24.78
-14.14
-5.12
2.99
11.75
22.79
37.09
54.38
73.33
92.09
109.17
124.19
138.04
152.49
169.39
189.82
213.51
239.13
264.87
289.30
311.99
333.69
356.00
380.97
410.72
446.78
489.37
536.47
583.46
623.65
650.04
657.36
643.86
611.62
565.45
510.88
452.42
392.53
331.82
269.96
206.83
143.52
82.66
28.34
-14.78
-42.81
-53.85
-48.85
-31.44
-6.80
19.52
42.55
58.13
62.93
54.82
33.64
2.09
-34.02
-67.16
-90.30
-99.42
-94.78
-80.58
-63.33
-49.71
-44.83
-51.24
-68.73
-94.45
-123.64
-150.82
-171.52
-183.71
-188.25
-188.07
-186.21
-184.39
-182.77
-181.00
-179.60
-180.22
-184.50
-192.27
-200.78
-205.85
-204.72
-198.44
-192.25
-192.97
-205.01
-227.41
-253.85
-275.59
-285.50
-280.84
-263.53
-238.51
-211.37
-186.67
-167.25
-154.12
-146.60
-142.37
-137.97
-129.73
-114.91
-92.53
-63.12
-27.96
11.59
54.02
96.79
135.85
166.39
184.63
189.77
184.61
174.47
164.95
159.79
160.11
164.78
171.79
179.38
186.54
192.80
198.03
202.45
206.96
213.38
223.97
240.47
263.05
289.72
316.79
339.86
355.48
362.34
361.74
356.86
351.05
346.05
340.97
332.71
317.64
293.67
261.29
223.24
183.07
143.54
105.92
70.61
38.35
11.00
-8.82
-19.22
-20.48
-15.48
-8.72
-4.49
-5.54
-12.77
-25.97
-44.62
-68.19
-95.58
-124.34
-150.84
-171.52
-184.58
-191.19
-194.95
-200.02
-208.78
-220.56
-232.24
-240.19
-242.11
-237.88
-228.94
-217.16
-203.92
-190.27
-177.04
-164.77
-153.14
-140.55
-124.51
-102.87
-75.19
-43.25
-10.28
20.55
47.29
69.22
86.07
97.23
101.70
99.03
90.17
77.56
64.48
53.71
46.71
43.57
43.55
45.57
48.33
50.27
49.40
43.79
32.10
14.24
-8.44
-33.50
-58.06
-79.47
-95.93
-106.80
-112.64
-115.06
-116.30
-118.77
-124.62
-135.33
-151.21
-171.09
-192.53
-212.45
-228.64
-241.00
-251.87
-264.92
-282.86
-305.33
-328.34
-345.89
-353.03
-348.56
-335.75
-320.50
-308.11
-300.56
-295.90
-289.83
-278.40
-259.99
-235.64
-207.95
-179.32
-150.86
-122.42
-93.30
-63.27
-32.98
-3.68
23.41
47.90
70.61
93.44
118.51
146.88
177.72
208.20
234.57
253.66
264.17
267.02
264.42
258.56
250.64
240.75
228.72
215.02
201.11
189.02
180.29
175.14
172.28
169.55
165.04
158.09
149.69
142.10
138.00
139.22
145.80
155.87
166.18
173.27
174.60
169.37
158.82
145.94
134.76
129.14
131.64
142.51
159.45
178.40
195.03
206.51
212.52
215.07
217.23
221.34
227.57
233.65
235.79
230.46
216.02
193.61
166.79
140.14
117.57
100.76
88.71
78.33
65.89
48.73
26.46
0.96
-24.58
-47.23
-65.80
-81.17
-95.60
-111.24
-128.51
-145.46
-158.36
-163.30
-157.94
-142.59
-120.17
-95.19
-72.22
-54.42
-42.42
-34.48
-27.50
-18.80
-7.80
3.52
11.70
13.89
9.74
2.04
-4.41
-4.87
3.17
18.96
38.95
58.25
72.50
79.17
78.13
71.34
61.68
51.55
41.83
31.68
19.31
3.22
-16.77
-39.43
-62.81
-85.29
-106.10
-125.12
-142.53
-158.50
-173.22
-187.56
-203.37
-223.37
-250.08
-284.23
-323.75
-363.82
-398.25
-421.62
-431.38
-428.77
-418.08
-404.41
-391.27
-379.16
-365.83
-348.00
-323.40
-291.77
-254.51
-213.57
-170.49
-126.46
-82.92
-42.16
-7.26
18.73
33.66
37.00
29.61
13.24
-9.86
-37.08
-65.34
-91.36
-112.50
-127.63
-137.53
-144.27
-149.81
-154.77
-158.05
-157.73
-152.55
-142.92
-130.94
-119.48
-110.71
-105.30
-102.32
-100.13
-97.36
-93.55
-89.15
-84.93
-81.24
-77.69
-73.25
-66.75
-57.44
-45.36
-31.34
-16.70
-2.72
9.70
20.33
29.44
37.52
44.89
51.37
56.38
59.03
58.66
55.14
49.11
41.83
34.81
29.31
25.97
24.66
24.72
25.41
26.49
28.52
32.79
40.84
53.72
71.47
92.90
116.00
138.67
159.53
178.39
196.25
214.76
235.61
259.90
287.77
318.10
348.33
374.76
393.13
399.90
393.48
375.25
349.46
321.99
298.26
281.32
270.92
264.13
257.15
247.17
233.70
218.37
203.71
191.47
181.52
171.87
159.77
143.32
122.61
99.80
78.09
60.15
47.06
37.97
30.91
24.13
17.20
11.25
8.21
9.57
15.17
23.02
29.94
32.96
30.66
23.86
15.22
7.98
4.44
4.82
7.20
8.37
5.30
-3.49
-17.33
-33.62
-48.79
-59.54
-63.75
-60.90
-52.00
-39.20
-25.26
-13.11
-5.41
-4.04
-9.38
-19.77
-31.43
-39.36
-39.02
-28.31
-8.88
14.07
33.63
43.94
42.52
31.14
14.86
-0.28
-9.58
-11.22
-6.24
2.42
11.40
17.97
20.59
18.82
13.06
4.31
-6.01
-16.16
-24.32
-29.13
-30.12
-28.09
-24.85
-22.49
-22.60
-25.54
-30.52
-36.09
-40.92
-44.10
-45.17
-43.79
-39.57
-32.03
-20.99
-6.87
9.32
26.32
43.20
59.69
76.11
92.75
109.08
123.41
133.24
136.14
130.86
117.89
99.26
77.66
55.68
35.26
17.83
4.61
-3.27
-5.26
-2.22
3.33
7.75
7.74
1.68
-9.54
-23.07
-35.46
-44.19
-48.45
-49.04
-47.50
-45.20
-42.94
-40.95
-39.42
-38.73
-39.47
-41.99
-46.01
-50.50
-53.99
-55.18
-53.53
-49.41
-43.94
-38.44
-33.93
-30.78
-28.78
-27.36
-25.99
-24.37
-22.44
-20.23
-17.69
-14.69
-11.06
-6.91
-2.63
1.16
3.86
5.22
5.38
4.91
4.41
4.27
4.55
4.92
4.98
4.42
3.23
1.61
-0.10
-1.66
-2.99
-4.16
-5.34
-6.59
-7.91
-9.19
-10.32
-11.23
-11.88
-12.18
-12.01
-11.20
-9.73
-7.78
-5.69
-3.82
-2.38
-1.38
-0.78
-0.70
-1.44
-3.29
-6.34
-10.25
-14.48
-18.63
-22.71
-27.05
-31.91
-37.07
-41.63
-44.46
-44.76
-42.54
-38.53
-33.71
-28.64
-23.26
-17.16
-10.24
-3.11
3.03
6.89
7.84
6.19
3.10
0.00
-2.00
-2.36
-1.08
1.54
5.19
9.60
14.51
19.57
24.43
28.72
32.21
34.75
36.25
36.59
35.59
33.13
29.17
23.81
17.36
10.24
2.91
-4.24
-10.86
-16.63
-21.23
-24.32
-25.64
-25.15
-23.11
-20.07
-16.77
-13.79
-11.53
-10.11
-9.48
-9.63
-10.51
-12.03
-13.89
-15.65
-16.78
-16.93
-16.08
-14.57
-12.81
-11.15
-9.73
-8.53
-7.51
-6.66
-6.02
-5.56
-5.22
-4.87
-4.48
-4.11
-3.87
-3.81
-3.83
-3.70
-3.19
-2.21
-0.87
0.60
1.88
2.80
3.27
3.40
3.37
3.42
3.76
4.48
5.53
6.59
7.25
7.14
6.11
4.39
2.49
1.04
0.46
0.82
1.81
2.92
3.68
3.80
3.26
2.21
0.85
-0.66
-2.19
-3.70
-5.15
-6.52
-7.83
-9.07
-10.22
-11.22
-11.99
-12.56
-12.98
-13.34
-13.67
-13.91
-13.87
-13.42
-12.56
-11.45
-10.37
-9.53
-9.01
-8.69
-8.37
-7.88
-7.17
-6.28
-5.35
-4.52
-3.93
-3.70
-3.93
-4.66
-5.81
-7.23
-8.71
-10.01
-11.01
-11.68
-12.08
-12.37
-12.69
-13.19
-13.93
-14.84
-15.72
-16.30
-16.33
-15.62
-14.12
-11.91
-9.15
-6.07
-2.95
-0.06
2.33
3.97
4.75
4.69
3.94
2.81
1.64
0.79
0.57
1.13
2.42
4.17
5.94
7.27
7.82
7.49
6.47
5.15
3.96
3.20
2.91
2.88
2.75
2.17
0.94
-0.88
-3.04
-5.14
-6.82
-7.89
-8.46
-8.86
-9.45
-10.44
-11.73
-12.89
-13.44
-13.09
-11.87
-10.18
-8.50
-7.20
-6.28
-5.56
-4.72
-3.63
-2.34
-1.06
-0.03
0.63
0.96
1.12
1.24
1.47
1.88
2.52
3.37
4.35
5.34
6.20
6.84
7.24
7.45
7.56
7.59
7.51
7.21
6.60
5.67
4.52
3.32
2.25
1.38
0.66
-0.04
-0.85
-1.91
-3.27
-4.97
-7.03
-9.35
-11.78
-14.00
-15.68
-16.50
-16.30
-15.19
-13.45
-11.47
-9.53
-7.77
-6.17
-4.62
-3.08
-1.56
-0.19
0.90
1.59
1.83
1.65
1.14
0.50
-0.02
-0.14
0.33
1.40
2.86
4.38
5.60
6.32
6.57
6.50
6.36
6.23
6.06
5.66
4.85
3.60
2.11
0.72
-0.22
-0.53
-0.38
-0.14
-0.24
-0.92
-2.15
-3.64
-5.01
-6.02
-6.53
-6.58
-6.21
-5.44
-4.30
-2.88
-1.37
-0.00
1.03
1.73
2.22
2.66
3.17
3.72
4.18
4.37
4.20
3.70
3.04
2.47
2.18
2.21
2.45
2.66
2.60
2.14
1.31
0.25
-0.82
-1.71
-2.25
-2.38
-2.15
-1.73
-1.40
-1.38
-1.78
-2.44
-3.01
-3.09
-2.43
-1.01
0.90
2.94
4.74
5.97
6.39
5.83
4.20
1.61
-1.59
-4.88
-7.70
-9.64
-10.56
-10.56
-9.89
-8.83
-7.56
-6.20
-4.78
-3.35
-1.96
-0.71
0.29
0.98
1.33
1.41
1.37
1.38
1.58
1.97
2.46
2.86
3.01
2.91
2.62
2.31
2.14
2.20
2.47
2.83
3.09
3.03
2.53
1.62
0.47
-0.61
-1.40
-1.81
-2.00
-2.24
-2.76
-3.60
-4.55
-5.34
-5.81
-6.04
-6.32
-7.01
-8.31
-10.15
-12.22
-14.07
-15.34
-15.80
-15.39
-14.20
-12.44
-10.40
-8.40
-6.71
-5.48
-4.65
-4.03
-3.37
-2.51
-1.44
-0.24
0.96
2.06
3.05
3.90
4.61
5.12
5.39
5.42
5.31
5.21
5.29
5.61
6.12
6.66
6.99
6.95
6.52
5.80
5.00
4.30
3.74
3.19
2.47
1.46
0.21
-1.05
-2.03
-2.57
-2.69
-2.67
-2.88
-3.64
-5.05
-6.99
-9.10
-11.01
-12.44
-13.30
-13.58
-13.35
-12.65
-11.50
-9.94
-8.14
-6.35
-4.88
-3.90
-3.40
-3.17
-2.89
-2.30
-1.34
-0.13
1.11
2.17
2.99
3.59
4.08
4.54
5.00
5.45
5.86
6.20
6.47
6.66
6.74
6.67
6.41
5.96
5.36
4.70
4.02
3.33
2.60
1.82
1.02
0.24
-0.48
-1.17
-1.87
-2.65
-3.50
-4.36
-5.10
-5.67
-6.14
-6.65
-7.36
-8.31
-9.33
-10.13
-10.33
-9.73
-8.33
-6.39
-4.31
-2.46
-1.09
-0.19
0.37
0.79
1.19
1.55
1.73
1.63
1.23
0.72
0.38
0.46
1.01
1.83
2.58
2.97
2.96
2.73
2.61
2.83
3.33
3.81
3.88
3.25
1.98
0.35
-1.22
-2.40
-3.08
-3.35
-3.40
-3.37
-3.36
-3.41
-3.53
-3.73
-3.92
-3.94
-3.60
-2.78
-1.54
-0.13
1.08
1.83
2.07
2.10
2.39
3.38
5.22
7.65
10.07
11.80
12.40
11.92
10.93
10.33
10.94
13.14
16.61
20.39
23.18
23.85
22.02
18.56
15.74
16.76
24.78
41.65
66.88
97.37
128.09
153.45
168.92
172.11
163.28
144.92
120.87
95.27
71.61
52.10
37.44
26.86
18.63
10.81
2.01
-8.09
-18.74
-28.58
-36.29
-41.13
-43.14
-43.05
-41.86
-40.41
-39.05
-37.67
-35.92
-33.49
-30.43
-27.13
-24.25
-22.44
-22.19
-23.69
-26.82
-31.12
-35.95
-40.47
-43.83
-45.21
-44.00
-40.00
-33.54
-25.56
-17.46
-10.75
-6.59
-5.40
-6.71
-9.34
-11.88
-13.32
-13.37
-12.47
-11.40
-10.86
-11.13
-12.05
-13.19
-14.15
-14.72
-14.92
-14.89
-14.77
-14.56
-14.14
-13.27
-11.71
-9.35
-6.33
-2.96
0.35
3.33
5.88
8.09
10.07
11.81
13.12
13.76
13.63
12.87
11.88
11.19
11.19
11.99
13.39
14.83
15.57
14.93
12.58
8.86
4.84
1.97
1.38
3.30
6.85
10.25
11.45
8.66
0.70
-12.89
-31.76
-54.72
-79.66
-103.71
-123.59
-136.27
-139.66
-133.10
-117.61
-95.71
-70.85
-46.74
-26.44
-11.70
-2.61
2.08
4.24
5.37
6.07
6.12
4.96
2.35
-1.32
-5.16
-8.27
-10.12
-10.75
-10.59
-10.15
-9.68
-9.19
-8.47
-7.42
-6.16
-5.13
-4.78
-5.38
-6.82
-8.60
-10.09
-10.85
-10.84
-10.43
-10.20
-10.62
-11.79
-13.32
-14.61
-15.08
-14.41
-12.67
-10.16
-7.30
-4.54
-2.32
-1.03
-1.02
-2.33
-4.69
-7.43
-9.69
-10.67
-9.96
-7.59
-4.04
-0.01
3.71
6.50
8.02
8.39
8.25
8.65
10.73
15.34
22.49
31.18
39.51
45.29
46.84
43.65
36.60
27.62
18.85
11.90
7.42
5.12
4.23
4.02
4.01
4.02
3.97
3.72
3.06
1.82
0.00
-2.24
-4.70
-7.12
-9.24
-10.72
-11.17
-10.28
-8.04
-4.88
-1.56
1.12
2.64
2.96
2.44
1.43
0.10
-1.71
-4.26
-7.52
-11.01
-13.83
-15.08
-14.36
-12.06
-9.22
-7.09
-6.52
-7.47
-9.03
-9.87
-8.83
-5.51
-0.52
4.73
8.43
8.88
4.90
-3.82
-16.55
-31.43
-45.76
-56.46
-60.99
-58.15
-48.71
-35.22
-21.26
-10.15
-3.87
-2.57
-4.80
-8.38
-11.25
-12.11
-10.50
-6.66
-1.20
5.16
11.62
17.38
21.71
24.12
24.50
23.17
20.72
17.71
14.60
11.65
9.02
6.90
5.45
4.74
4.63
4.78
4.78
4.31
3.25
1.76
0.14
-1.17
-1.82
-1.55
-0.35
1.55
3.68
5.53
6.79
7.50
8.17
9.55
12.28
16.56
21.90
27.27
31.32
32.95
31.59
27.34
20.91
13.28
5.63
-0.78
-4.55
-4.33
0.70
10.22
22.40
34.01
41.28
41.23
32.71
16.91
-3.22
-23.99
-42.04
-54.83
-60.56
-57.93
-46.21
-25.79
1.17
30.59
57.35
76.79
86.42
86.72
80.77
72.92
66.96
64.98
66.86
70.74
73.75
72.90
65.88
51.53
30.25
3.87
-24.66
-52.11
-75.47
-92.53
-102.00
-103.65
-98.36
-88.17
-76.05
-65.17
-57.93
-55.17
-55.87
-57.79
-58.50
-56.47
-51.63
-45.18
-38.80
-33.86
-30.86
-29.38
-28.50
-27.39
-25.78
-24.06
-23.08
-23.62
-25.88
-29.26
-32.62
-34.83
-35.32
-34.30
-32.55
-30.85
-29.61
-28.66
-27.54
-25.95
-24.02
-22.35
-21.61
-22.21
-24.02
-26.41
-28.59
-29.80
-29.57
-27.74
-24.40
-19.75
-14.08
-7.72
-1.12
5.18
10.61
14.68
17.27
18.64
19.46
20.48
22.15
24.37
26.51
27.71
27.42
25.72
23.37
21.52
21.22
22.83
25.96
29.43
31.81
31.88
29.12
23.88
17.17
10.20
3.92
-1.28
-5.51
-9.04
-11.99
-14.13
-15.12
-14.81
-13.41
-11.54
-9.94
-9.06
-8.94
-9.23
-9.41
-9.15
-8.32
-7.01
-5.31
-3.24
-0.77
2.04
4.88
7.28
8.76
9.14
8.64
7.88
7.52
8.03
9.47
11.55
13.90
16.25
18.54
20.87
23.33
25.87
28.25
30.01
30.47
28.85
24.38
16.53
5.36
-8.37
-23.22
-37.49
-49.60
-58.54
-63.97
-66.06
-65.31
-62.36
-57.87
-52.57
-47.12
-41.97
-37.26
-32.78
-28.11
-22.94
-17.31
-11.55
-6.18
-1.55
2.31
5.67
8.95
12.52
16.48
20.77
25.13
29.23
32.67
35.00
35.85
35.05
32.83
29.81
26.96
25.18
25.02
26.31
28.28
29.82
29.94
28.30
25.20
21.51
18.21
15.93
14.75
14.29
13.96
13.31
12.24
10.97
9.97
9.65
10.36
12.23
15.13
18.65
22.12
24.78
26.09
26.15
25.90
27.00
31.16
39.24
50.40
61.95
70.26
72.29
67.28
57.38
46.68
38.94
35.43
33.93
29.73
17.94
-4.35
-37.00
-77.18
-120.39
-161.36
-194.60
-214.83
-218.04
-202.97
-172.44
-133.32
-94.68
-64.72
-47.86
-43.58
-47.36
-53.23
-56.35
-54.54
-48.15
-38.77
-27.77
-15.50
-1.38
15.07
33.44
51.92
67.61
77.32
78.46
69.83
52.08
27.75
0.93
-23.66
-41.87
-51.22
-51.48
-44.44
-32.87
-19.32
-5.39
8.32
21.64
34.34
45.96
56.19
65.12
73.44
81.95
91.06
100.40
108.79
114.66
116.57
113.79
106.55
96.07
84.13
72.62
63.05
56.17
51.87
49.28
47.13
44.14
39.47
32.94
25.11
17.00
9.72
3.99
-0.11
-3.08
-5.66
-8.36
-11.25
-13.97
-16.06
-17.37
-18.27
-19.42
-21.49
-24.73
-28.78
-32.76
-35.55
-36.22
-34.27
-29.81
-23.55
-16.54
-9.96
-4.78
-1.47
0.00
0.15
-0.27
-0.48
0.23
2.41
6.38
12.10
18.94
25.64
30.54
32.02
29.01
21.30
9.45
-5.47
-22.22
-39.56
-56.12
-70.27
-80.13
-83.79
-79.76
-67.59
-48.19
-23.87
2.06
26.01
44.97
57.22
62.62
62.30
58.07
51.61
44.00
35.77
27.32
19.35
13.01
9.51
9.48
12.48
17.05
21.29
23.74
24.05
23.13
22.51
23.53
26.45
30.38
33.61
34.56
32.48
27.80
21.85
16.16
11.84
9.19
7.77
6.82
5.62
3.89
1.74
-0.43
-2.16
-3.13
-3.26
-2.82
-2.38
-2.72
-4.62
-8.57
-14.57
-22.09
-30.17
-37.78
-44.07
-48.66
-51.69
-53.80
-55.96
-59.18
-64.12
-70.80
-78.41
-85.51
-90.38
-91.66
-88.68
-81.67
-71.58
-59.74
-47.43
-35.65
-24.99
-15.65
-7.54
-0.41
5.92
11.58
16.50
20.55
23.66
25.93
27.67
29.28
31.15
33.57
36.67
40.44
44.78
49.39
53.74
57.06
58.47
57.38
53.74
48.16
41.72
35.51
30.20
25.82
21.91
17.96
13.75
9.51
5.79
3.07
1.56
1.19
1.77
3.27
5.94
10.12
16.04
23.55
32.13
40.94
49.09
55.82
60.64
63.52
64.96
65.82
67.09
69.46
72.99
77.26
81.76
86.31
91.18
96.58
101.85
105.04
103.17
93.21
73.36
43.59
5.13
-40.71
-93.41
-152.66
-216.78
-281.05
-337.55
-377.19
-393.10
-383.56
-352.65
-308.22
-258.23
-207.53
-157.09
-105.58
-52.28
0.86
49.17
87.15
110.90
119.81
116.36
104.78
89.30
73.03
57.65
44.14
33.44
26.78
25.45
29.97
39.57
51.96
63.95
72.41
75.35
72.60
65.70
57.11
49.19
43.37
39.91
38.19
37.30
36.48
35.38
33.88
31.98
29.72
27.22
24.79
22.92
22.07
22.46
23.86
25.58
26.73
26.38
23.93
19.17
12.36
4.11
-4.73
-13.31
-20.96
-27.37
-32.56
-36.83
-40.44
-43.38
-45.24
-45.28
-42.81
-37.60
-30.21
-21.88
-14.19
-8.39
-4.98
-3.53
-2.96
-2.12
-0.32
2.37
5.30
7.66
8.92
9.15
8.90
8.91
9.74
11.51
13.93
16.46
18.56
19.90
20.43
20.32
19.77
18.99
18.07
17.04
15.96
14.94
14.10
13.44
12.80
11.81
10.09
7.44
4.01
0.28
-3.08
-5.54
-6.87
-7.23
-7.06
-6.90
-7.15
-7.95
-9.17
-10.45
-11.32
-11.31
-10.09
-7.55
-3.83
0.68
5.42
9.84
13.48
16.13
17.73
18.38
18.12
16.95
14.85
11.90
8.41
4.90
1.96
0.09
-0.45
0.30
2.05
4.38
6.74
8.57
9.38
8.85
6.84
3.54
-0.66
-5.27
-9.72
-13.55
-16.44
-18.33
-19.48
-20.42
-21.76
-24.00
-27.33
-31.54
-36.16
-40.52
-43.91
-45.68
-45.32
-42.62
-37.70
-31.07
-23.55
-16.03
-9.22
-3.48
1.19
4.99
8.20
11.01
13.53
15.76
17.66
19.17
20.29
21.05
21.62
22.28
23.34
25.07
27.50
30.32
32.88
34.34
33.91
31.08
25.85
18.68
10.46
2.24
-5.07
-10.96
-15.49
-19.19
-22.84
-27.12
-32.35
-38.40
-44.71
-50.53
-55.00
-57.39
-57.14
-53.99
-48.08
-40.05
-30.94
-22.00
-14.26
-8.27
-3.95
-0.69
2.33
5.79
9.96
14.64
19.32
23.44
26.78
29.57
32.46
36.23
41.38
47.79
54.77
61.33
66.76
71.01
74.74
78.86
83.88
89.28
93.53
94.45
90.01
79.06
61.64
39.00
13.42
-11.83
-32.62
-44.60
-44.31
-30.72
-6.21
23.65
51.79
72.21
82.11
82.48
76.91
69.35
62.07
55.10
47.13
37.12
25.50
14.25
5.80
1.74
1.99
5.03
8.64
10.78
10.12
5.97
-1.91
-13.44
-28.08
-44.70
-61.75
-77.63
-91.19
-101.94
-109.73
-114.15
-114.23
-108.77
-97.20
-80.57
-61.70
-44.41
-31.99
-25.82
-24.94
-26.62
-27.90
-26.87
-23.39
-18.70
-14.44
-11.67
-10.43
-9.94
-9.30
-8.12
-6.80
-6.30
-7.58
-10.98
-15.90
-20.91
-24.22
-24.35
-20.62
-13.36
-3.73
6.77
16.66
24.87
30.79
34.12
34.82
33.06
29.40
24.83
20.71
18.39
18.75
21.76
26.52
31.58
35.49
37.16
35.99
31.77
24.58
14.97
4.26
-5.14
-10.11
-7.69
3.46
22.11
44.40
65.02
79.10
84.01
80.09
70.15
58.01
46.78
37.98
31.39
25.78
19.81
12.65
4.21
-5.05
-14.47
-23.38
-31.16
-37.28
-41.30
-42.84
-41.74
-38.07
-32.19
-24.68
-16.24
-7.45
1.26
9.58
17.15
23.25
26.75
26.44
21.47
11.98
-0.68
-14.24
-26.24
-34.76
-38.99
-39.13
-36.07
-30.96
-24.88
-18.89
-13.95
-10.94
-10.38
-12.22
-15.79
-20.09
-24.18
-27.50
-29.96
-31.81
-33.35
-34.73
-35.98
-37.14
-38.37
-39.93
-42.02
-44.60
-47.25
-49.31
-50.07
-49.02
-46.05
-41.43
-35.67
-29.40
-23.05
-16.84
-10.72
-4.54
1.88
8.51
15.20
21.75
27.95
33.73
39.07
43.94
48.40
52.64
57.02
61.89
67.22
72.15
75.12
74.26
68.43
58.03
45.15
32.91
24.20
20.53
21.70
26.29
32.73
40.15
48.55
58.33
69.57
81.71
93.83
105.27
116.14
127.20
139.27
152.52
166.23
179.10
190.01
198.66
205.67
212.14
218.76
225.14
229.63
229.85
223.69
210.25
190.37
166.41
141.36
117.65
96.18
76.10
55.35
31.81
4.38
-26.52
-59.38
-92.43
-124.73
-156.61
-189.47
-225.25
-265.90
-313.12
-367.98
-430.11
-496.53
-560.96
-614.44
-647.87
-655.33
-636.78
-598.45
-550.51
-503.09
-462.65
-430.52
-404.02
-379.12
-352.92
-324.65
-295.18
-265.66
-236.58
-207.74
-178.83
-150.01
-122.01
-95.97
-72.56
-51.57
-31.86
-11.65
10.69
35.99
64.06
93.79
123.80
153.22
182.30
212.44
245.43
282.16
321.41
359.48
391.00
410.73
415.56
405.64
384.14
355.90
325.63
296.67
270.58
247.61
227.44
209.63
193.77
179.35
165.71
152.16
138.28
124.09
109.98
96.54
84.24
73.23
63.36
54.19
45.32
36.46
27.64
19.09
11.18
4.23
-1.60
-6.33
-10.26
-13.82
-17.51
-21.71
-26.41
-31.13
-34.99
-37.02
-36.55
-33.55
-28.59
-22.66
-16.78
-11.59
-7.32
-3.84
-0.96
1.35
2.96
3.62
3.20
1.76
-0.36
-2.72
-4.82
-6.26
-6.76
-6.21
-4.61
-2.19
0.63
3.28
5.24
6.30
6.71
7.17
8.45
10.90
14.09
16.74
17.19
13.99
6.59
-4.47
-17.70
-31.06
-42.33
-49.54
-51.13
-46.30
-35.38
-20.04
-3.24
11.43
20.74
22.83
17.89
8.09
-3.27
-12.73
-17.75
-17.29
-11.85
-3.09
6.78
15.55
21.56
23.97
22.95
19.64
15.94
13.98
15.49
21.15
30.18
40.57
49.61
54.84
54.76
49.15
38.97
25.77
11.18
-3.41
-16.85
-28.08
-36.03
-39.72
-38.66
-33.18
-24.57
-14.75
-5.79
0.70
3.87
3.62
0.33
-5.36
-12.71
-20.84
-28.74
-35.37
-39.91
-42.11
-42.34
-41.47
-40.44
-39.91
-39.93
-40.14
-39.91
-38.70
-36.17
-32.22
-26.97
-20.70
-13.89
-7.13
-1.00
4.05
7.85
10.37
11.61
11.43
9.63
6.10
1.10
-4.74
-10.53
-15.36
-18.63
-20.10
-19.82
-18.01
-14.96
-11.04
-6.73
-2.52
1.23
4.41
7.14
9.60
11.79
13.47
14.30
14.06
12.89
11.30
9.90
9.11
8.95
9.00
8.59
7.21
4.64
1.16
-2.61
-5.87
-7.83
-7.93
-5.97
-2.14
2.93
8.32
13.01
16.10
17.12
16.16
13.75
10.71
7.79
5.41
3.52
1.78
-0.24
-2.72
-5.43
-7.74
-8.77
-7.79
-4.56
0.56
6.58
12.24
16.43
18.53
18.47
16.71
13.89
10.61
7.27
4.05
1.07
-1.59
-3.84
-5.64
-7.01
-8.13
-9.22
-10.48
-12.02
-13.82
-15.77
-17.66
-19.40
-21.06
-22.79
-24.74
-26.89
-28.85
-30.06
-29.93
-28.18
-24.93
-20.68
-16.07
-11.60
-7.54
-3.90
-0.62
2.28
4.60
6.06
6.48
5.91
4.72
3.50
2.81
3.01
4.12
5.90
7.98
10.10
12.14
14.04
15.75
17.06
17.65
17.27
15.87
13.65
11.05
8.54
6.43
4.78
3.39
2.03
0.52
-1.14
-2.86
-4.59
-6.45
-8.66
-11.41
-14.61
-17.83
-20.32
-21.35
-20.46
-17.67
-13.44
-8.45
-3.31
1.63
6.33
10.89
15.45
19.93
24.06
27.37
29.50
30.28
29.99
29.22
28.71
28.96
30.07
31.64
32.96
33.32
32.37
30.32
27.92
26.32
26.63
29.55
35.00
41.92
48.38
52.00
50.59
42.95
29.34
11.48
-7.87
-25.76
-39.85
-48.98
-53.24
-53.67
-51.84
-49.24
-47.06
-45.98
-46.21
-47.57
-49.56
-51.52
-52.80
-52.95
-51.72
-49.11
-45.30
-40.59
-35.33
-29.93
-24.77
-20.16
-16.23
-12.88
-9.84
-6.71
-3.16
0.97
5.54
10.18
14.37
17.60
19.65
20.67
21.31
22.48
25.01
29.20
34.60
40.11
44.47
46.89
47.48
47.33
48.03
50.88
56.24
63.22
70.02
74.57
75.36
71.98
65.28
57.06
49.40
43.90
41.02
39.88
38.64
35.29
28.79
20.05
12.13
9.40
16.04
34.07
62.15
95.49
127.07
149.83
158.92
153.01
134.30
107.10
75.68
42.55
7.76
-30.52
-74.74
-126.35
-184.66
-246.12
-304.58
-352.12
-380.86
-385.47
-365.77
-327.90
-282.81
-242.20
-213.64
-197.80
-189.72
-183.14
-175.43
-169.44
-171.02
-183.74
-204.81
-224.77
-231.87
-217.96
-182.65
-133.31
-80.93
-34.75
1.25
28.51
51.43
74.15
98.32
122.55
143.52
157.84
163.68
161.78
155.22
148.36
145.29
148.13
156.39
167.22
176.72
181.51
179.96
172.52
161.30
148.93
137.43
127.66
119.30
111.45
103.18
93.84
83.03
70.57
56.63
42.16
29.21
20.64
19.15
25.68
38.31
52.12
60.74
58.71
43.77
17.80
-13.87
-44.41
-67.83
-80.54
-81.98
-74.05
-60.21
-44.37
-30.05
-19.69
-14.26
-13.00
-13.75
-13.72
-10.62
-3.61
6.41
17.22
26.25
31.70
33.04
30.91
26.66
21.61
16.76
12.72
9.92
8.66
9.00
10.57
12.59
14.04
14.12
12.54
9.71
6.50
3.87
2.47
2.42
3.38
4.72
5.83
6.33
6.17
5.55
4.82
4.31
4.17
4.39
4.77
5.15
5.40
5.53
5.63
5.79
6.04
6.29
6.46
6.38
5.98
5.13
3.75
1.81
-0.64
-3.23
-5.34
-6.13
-4.81
-0.95
5.33
13.31
21.96
30.34
37.84
44.30
49.77
54.29
57.70
59.81
60.54
60.16
59.24
58.44
58.18
58.51
59.17
59.74
59.87
59.31
57.92
55.59
52.30
48.18
43.63
39.30
35.89
33.75
32.47
30.65
26.18
16.85
1.29
-20.26
-45.75
-71.81
-94.84
-112.01
-121.92
-124.63
-121.24
-113.36
-102.78
-91.33
-80.80
-72.72
-67.99
-66.59
-67.59
-69.43
-70.41
-69.23
-65.33
-58.90
-50.80
-42.22
-34.39
-28.10
-23.60
-20.48
-17.92
-15.17
-11.83
-8.04
-4.38
-1.54
0.06
0.42
-0.03
-0.70
-1.00
-0.59
0.65
2.63
5.16
8.00
10.84
13.34
15.14
15.95
15.67
14.41
12.50
10.38
8.49
7.14
6.46
6.46
6.97
7.69
8.22
8.11
7.00
4.79
1.65
-1.97
-5.55
-8.69
-11.24
-13.26
-14.93
-16.34
-17.39
-17.82
-17.30
-15.59
-12.63
-8.48
-3.32
2.66
9.19
15.90
22.24
27.57
31.32
33.21
33.30
32.06
30.19
28.44
27.43
27.53
28.83
31.10
33.84
36.37
38.05
38.59
38.23
37.67
37.75
38.96
41.07
43.10
43.74
41.98
37.57
31.25
24.39
18.49
14.65
13.36
14.58
18.08
23.60
30.75
38.66
45.71
49.63
48.13
39.83
24.96
5.53
-15.33
-34.42
-49.46
-59.57
-64.98
-66.49
-64.83
-60.53
-54.12
-46.43
-38.74
-32.48
-28.76
-27.99
-29.69
-32.80
-36.08
-38.57
-39.85
-39.99
-39.36
-38.28
-36.85
-34.94
-32.37
-29.10
-25.39
-21.73
-18.66
-16.50
-15.20
-14.43
-13.75
-12.87
-11.81
-10.79
-10.16
-10.17
-10.92
-12.32
-14.21
-16.44
-18.88
-21.40
-23.83
-25.90
-27.28
-27.61
-26.56
-23.94
-19.74
-14.18
-7.69
-0.90
5.49
10.78
14.51
16.52
17.04
16.53
15.59
14.72
14.27
14.43
15.25
16.70
18.59
20.55
22.10
22.83
22.56
21.51
20.22
19.28
19.02
19.34
19.78
19.80
19.08
17.67
15.94
14.33
13.15
12.42
11.98
11.59
11.12
10.50
9.70
8.72
7.59
6.42
5.43
4.75
4.27
3.54
1.89
-1.25
-5.89
-11.37
-16.39
-19.52
-19.67
-16.52
-10.52
-2.73
5.53
13.08
19.11
23.30
25.76
26.88
27.13
26.90
26.46
25.92
25.37
24.83
24.29
23.64
22.73
21.43
19.71
17.59
15.17
12.55
9.78
7.01
4.43
2.28
0.69
-0.53
-1.95
-4.32
-8.04
-12.70
-16.97
-18.97
-17.12
-11.07
-2.12
7.09
13.53
15.05
11.05
2.64
-8.08
-18.90
-28.20
-35.13
-39.38
-40.80
-39.36
-35.28
-29.20
-22.30
-15.95
-11.25
-8.56
-7.44
-6.93
-6.06
-4.35
-2.00
0.29
1.71
1.79
0.60
-1.33
-3.25
-4.54
-4.92
-4.41
-3.31
-1.99
-0.79
-0.02
0.08
-0.65
-2.20
-4.31
-6.50
-8.28
-9.30
-9.58
-9.44
-9.31
-9.52
-10.13
-10.95
-11.72
-12.24
-12.51
-12.65
-12.90
-13.42
-14.29
-15.45
-16.70
-17.72
-18.12
-17.41
-15.14
-10.99
-4.91
2.75
11.29
19.74
27.14
32.78
36.35
38.05
38.30
37.62
36.26
34.10
30.62
25.12
16.97
6.09
-6.85
-20.21
-31.62
-38.36
-38.03
-29.23
-12.07
11.51
38.02
63.15
82.79
94.15
96.41
90.75
79.74
66.45
53.47
42.53
34.41
29.10
25.95
23.72
20.74
15.22
5.84
-7.62
-24.01
-41.11
-56.35
-67.67
-74.08
-75.70
-73.38
-68.11
-60.77
-52.04
-42.58
-33.14
-24.55
-17.46
-12.24
-8.87
-7.08
-6.43
-6.54
-7.07
-7.75
-8.32
-8.55
-8.31
-7.56
-6.35
-4.76
-2.89
-0.83
1.31
3.36
5.14
6.50
7.41
7.99
8.42
8.86
9.29
9.52
9.29
8.41
6.92
5.20
3.81
3.37
4.19
6.13
8.60
10.76
11.87
11.70
10.63
9.63
9.87
12.24
17.04
23.89
32.04
40.80
49.88
59.45
69.89
81.32
93.39
105.41
116.65
126.85
136.36
145.90
156.16
167.34
179.13
190.92
202.09
212.10
220.33
225.97
228.22
226.80
222.42
216.71
211.38
207.08
202.52
194.86
180.91
158.83
129.16
94.74
59.37
26.12
-3.89
-31.72
-59.83
-90.83
-126.08
-164.89
-204.43
-240.60
-269.30
-287.95
-296.61
-298.12
-297.34
-299.82
-310.55
-332.82
-367.28
-411.47
-460.12
-506.14
-542.43
-563.64
-567.34
-554.03
-526.23
-487.32
-440.70
-389.65
-337.43
-286.99
-240.37
-197.78
-157.41
-115.95
-70.31
-19.30
35.09
87.60
130.89
157.48
162.16
144.20
108.09
62.42
17.18
-19.54
-43.92
-56.64
-61.06
-60.53
-56.34
-47.49
-32.05
-9.00
20.61
53.88
87.44
118.64
146.11
169.31
187.83
201.02
208.36
210.04
207.26
201.63
194.12
184.27
170.19
149.76
122.30
89.95
57.77
32.51
20.48
25.49
47.58
82.99
125.17
166.52
200.31
222.14
230.59
226.92
214.11
195.57
174.23
152.23
131.06
111.96
95.99
83.78
75.18
69.13
64.03
58.39
51.45
43.41
35.16
27.75
21.81
17.34
13.79
10.31
6.21
1.17
-4.62
-10.60
-16.10
-20.62
-24.03
-26.55
-28.54
-30.23
-31.58
-32.24
-31.79
-29.99
-26.94
-23.15
-19.27
-15.84
-13.12
-11.04
-9.28
-7.54
-5.73
-3.97
-2.53
-1.59
-1.07
-0.67
0.02
1.24
2.90
4.66
6.05
6.76
6.75
6.23
5.53
4.93
4.55
4.33
4.09
3.66
2.90
1.78
0.37
-1.21
-2.77
-4.21
-5.51
-6.77
-8.12
-9.71
-11.59
-13.72
-15.99
-18.28
-20.47
-22.46
-24.14
-25.34
-25.83
-25.38
-23.83
-21.20
-17.71
-13.77
-9.83
-6.30
-3.43
-1.26
0.34
1.56
2.58
3.44
4.09
4.46
4.53
4.38
4.20
4.25
4.73
5.69
7.07
8.62
10.05
11.08
11.52
11.31
10.55
9.40
8.10
6.79
5.58
4.47
3.43
2.38
1.20
-0.17
-1.78
-3.57
-5.40
-7.09
-8.53
-9.74
-10.89
-12.24
-14.00
-16.26
-18.88
-21.53
-23.78
-25.19
-25.45
-24.44
-22.28
-19.27
-15.83
-12.36
-9.15
-6.38
-4.10
-2.30
-0.90
0.16
0.98
1.62
2.14
2.54
2.83
3.03
3.19
3.36
3.60
3.94
4.40
4.94
5.47
5.88
6.02
5.75
5.04
3.95
2.61
1.17
-0.22
-1.43
-2.34
-2.83
-2.84
-2.43
-1.84
-1.44
-1.56
-2.44
-4.03
-6.13
-8.41
-10.59
-12.45
-13.81
-14.54
-14.49
-13.57
-11.78
-9.33
-6.57
-3.91
-1.72
-0.23
0.54
0.75
0.69
0.68
0.96
1.61
2.54
3.55
4.38
4.86
4.98
4.86
4.69
4.63
4.74
5.01
5.37
5.77
6.17
6.50
6.63
6.45
5.82
4.75
3.33
1.71
0.02
-1.67
-3.38
-5.18
-7.14
-9.29
-11.66
-14.23
-16.87
-19.36
-21.32
-22.33
-22.08
-20.43
-17.51
-13.66
-9.37
-5.11
-1.28
1.87
4.17
5.61
6.26
6.30
5.94
5.41
4.91
4.58
4.51
4.74
5.26
5.96
6.72
7.40
7.95
8.41
8.88
9.49
10.27
11.18
12.03
12.52
12.33
11.18
8.94
5.77
2.16
-1.14
-3.35
-4.00
-3.12
-1.29
0.57
1.55
1.09
-0.90
-4.10
-8.03
-12.24
-16.34
-20.04
-23.06
-25.10
-25.94
-25.50
-23.87
-21.30
-18.09
-14.62
-11.17
-8.07
-5.56
-3.81
-2.84
-2.47
-2.39
-2.24
-1.76
-0.90
0.23
1.47
2.67
3.74
4.72
5.62
6.43
7.07
7.44
7.46
7.12
6.48
5.67
4.86
4.17
3.67
3.34
3.06
2.69
2.04
1.01
-0.45
-2.28
-4.35
-6.55
-8.76
-10.91
-13.02
-15.13
-17.28
-19.47
-21.51
-23.08
-23.75
-23.12
-20.98
-17.38
-12.64
-7.28
-1.86
3.16
7.47
10.90
13.45
15.21
16.32
16.97
17.34
17.60
17.82
18.03
18.20
18.33
18.37
18.31
18.04
17.50
16.61
15.40
13.93
12.23
10.31
8.10
5.60
2.90
0.28
-1.90
-3.41
-4.28
-4.81
-5.41
-6.43
-7.90
-9.64
-11.35
-12.83
-14.10
-15.34
-16.75
-18.43
-20.31
-22.25
-24.12
-25.82
-27.22
-28.10
-28.15
-27.08
-24.77
-21.35
-17.25
-12.96
-8.88
-5.18
-1.84
1.21
4.02
6.50
8.48
9.83
10.54
10.74
10.67
10.60
10.75
11.28
12.22
13.48
14.90
16.25
17.31
17.95
18.09
17.77
17.09
16.17
15.08
13.87
12.54
11.06
9.44
7.71
5.91
4.12
2.38
0.78
-0.61
-1.76
-2.72
-3.70
-4.93
-6.63
-8.84
-11.36
-13.75
-15.48
-16.05
-15.19
-12.85
-9.24
-4.71
0.30
5.33
9.95
13.76
16.50
18.09
18.65
18.49
18.02
17.57
17.29
17.14
16.92
16.43
15.53
14.23
12.65
11.09
9.89
9.47
10.12
11.85
14.30
16.73
18.24
18.10
15.99
12.16
7.30
2.23
-2.37
-6.16
-9.19
-11.72
-13.99
-16.14
-18.15
-19.93
-21.48
-22.95
-24.59
-26.64
-29.13
-31.84
-34.23
-35.68
-35.62
-33.82
-30.41
-25.92
-21.02
-16.37
-12.34
-9.06
-6.35
-4.00
-1.85
0.11
1.76
3.02
3.85
4.32
4.55
4.66
4.70
4.70
4.70
4.69
4.70
4.74
4.89
5.22
5.77
6.52
7.31
7.89
8.02
7.51
6.33
4.65
2.73
0.86
-0.78
-2.19
-3.52
-5.01
-6.84
-9.00
-11.32
-13.52
-15.40
-16.98
-18.53
-20.34
-22.52
-24.85
-26.82
-27.83
-27.50
-25.80
-23.04
-19.67
-16.05
-12.38
-8.62
-4.70
-0.66
3.36
7.10
10.32
12.91
14.90
16.41
17.60
18.57
19.39
20.11
20.76
21.40
22.08
22.75
23.34
23.70
23.71
23.34
22.65
21.80
20.97
20.25
19.62
18.96
18.08
16.85
15.23
13.29
11.21
9.23
7.51
6.10
4.84
3.40
1.44
-1.28
-4.76
-8.75
-12.87
-16.63
-19.64
-21.60
-22.35
-21.83
-20.08
-17.32
-13.89
-10.21
-6.69
-3.60
-0.98
1.29
3.44
5.63
7.87
10.05
11.94
13.31
14.07
14.27
14.10
13.81
13.62
13.69
14.00
14.49
14.98
15.38
15.61
15.71
15.69
15.53
15.09
14.22
12.78
10.79
8.44
6.00
3.74
1.81
0.17
-1.27
-2.66
-4.06
-5.55
-7.21
-9.13
-11.41
-14.07
-16.96
-19.79
-22.18
-23.78
-24.33
-23.71
-21.98
-19.30
-15.92
-12.12
-8.21
-4.41
-0.87
2.31
5.07
7.36
9.09
10.20
10.72
10.80
10.73
10.78
11.12
11.78
12.56
13.23
13.59
13.55
13.15
12.47
11.63
10.71
9.77
8.89
8.10
7.40
6.67
5.77
4.53
2.88
0.87
-1.33
-3.52
-5.50
-7.20
-8.64
-9.92
-11.23
-12.70
-14.38
-16.13
-17.70
-18.70
-18.80
-17.77
-15.60
-12.44
-8.56
-4.32
-0.09
3.79
7.04
9.48
11.06
11.87
12.13
12.05
11.89
11.83
11.94
12.21
12.56
12.88
13.10
13.23
13.37
13.63
14.03
14.52
14.90
14.99
14.66
13.87
12.71
11.28
9.69
7.98
6.20
4.38
2.56
0.80
-0.88
-2.53
-4.25
-6.15
-8.31
-10.73
-13.35
-16.06
-18.66
-20.94
-22.61
-23.36
-22.91
-21.14
-18.15
-14.27
-9.99
-5.83
-2.26
0.48
2.38
3.62
4.52
5.32
6.21
7.19
8.17
9.06
9.80
10.37
10.75
10.94
10.91
10.71
10.47
10.41
10.72
11.45
12.41
13.25
13.61
13.26
12.21
10.67
8.94
7.28
5.85
4.66
3.67
2.75
1.78
0.63
-0.79
-2.47
-4.37
-6.37
-8.37
-10.31
-12.21
-14.13
-16.03
-17.78
-19.12
-19.73
-19.40
-18.09
-15.96
-13.31
-10.41
-7.49
-4.68
-2.06
0.25
2.16
3.62
4.69
5.50
6.20
6.90
7.55
8.06
8.36
8.41
8.31
8.14
7.99
7.89
7.85
7.84
7.87
7.90
7.90
7.82
7.59
7.21
6.66
6.00
5.25
4.42
3.51
2.54
1.58
0.70
-0.10
-0.89
-1.88
-3.26
-5.24
-7.85
-10.94
-14.21
-17.26
-19.74
-21.38
-22.04
-21.65
-20.22
-17.87
-14.86
-11.55
-8.35
-5.59
-3.43
-1.81
-0.52
0.62
1.70
2.64
3.33
3.68
3.74
3.69
3.73
4.02
4.55
5.18
5.69
5.91
5.80
5.43
4.95
4.50
4.17
3.95
3.77
3.51
3.11
2.53
1.82
1.04
0.24
-0.59
-1.51
-2.58
-3.81
-5.11
-6.38
-7.53
-8.58
-9.61
-10.65
-11.60
-12.20
-12.12
-11.16
-9.38
-7.06
-4.59
-2.32
-0.37
1.25
2.61
3.74
4.56
4.96
4.82
4.19
3.24
2.27
1.60
1.44
1.85
2.68
3.63
4.39
4.75
4.71
4.36
3.86
3.31
2.71
2.02
1.26
0.46
-0.28
-0.90
-1.48
-2.15
-3.08
-4.41
-6.13
-8.13
-10.18
-12.06
-13.56
-14.49
-14.73
-14.23
-13.04
-11.31
-9.25
-7.08
-4.99
-3.07
-1.36
0.19
1.58
2.78
3.69
4.21
4.28
3.93
3.26
2.46
1.71
1.14
0.83
0.83
1.12
1.63
2.23
2.76
3.03
2.94
2.51
1.91
1.31
0.83
0.44
-0.00
-0.69
-1.74
-3.16
-4.87
-6.81
-8.95
-11.22
-13.46
-15.28
-16.23
-15.91
-14.19
-11.31
-7.79
-4.24
-1.13
1.34
3.23
4.63
5.64
6.23
6.34
5.98
5.28
4.47
3.78
3.34
3.14
3.11
3.15
3.20
3.30
3.49
3.81
4.17
4.48
4.55
4.24
3.48
2.26
0.73
-0.99
-2.72
-4.38
-6.02
-7.74
-9.69
-11.86
-14.13
-16.19
-17.68
-18.27
-17.82
-16.32
-13.94
-10.99
-7.79
-4.64
-1.78
0.64
2.58
4.09
5.26
6.17
6.82
7.18
7.23
7.03
6.71
6.46
6.41
6.59
6.86
7.05
6.99
6.67
6.19
5.74
5.42
5.20
4.88
4.22
3.05
1.44
-0.42
-2.23
-3.78
-5.03
-6.10
-7.18
-8.46
-10.00
-11.72
-13.41
-14.77
-15.50
-15.37
-14.27
-12.29
-9.70
-6.82
-3.96
-1.28
1.14
3.28
5.10
6.53
7.49
8.00
8.17
8.18
8.24
8.39
8.60
8.75
8.70
8.42
8.01
7.62
7.40
7.42
7.59
7.76
7.75
7.41
6.69
5.66
4.45
3.16
1.84
0.47
-0.97
-2.47
-3.97
-5.38
-6.68
-7.98
-9.44
-11.23
-13.38
-15.72
-17.91
-19.54
-20.25
-19.89
-18.47
-16.17
-13.28
-10.12
-6.98
-4.10
-1.62
0.40
2.03
3.40
4.66
5.86
7.03
8.06
8.83
9.28
9.46
9.50
9.58
9.76
9.99
10.12
9.98
9.48
8.71
7.85
7.11
6.60
6.32
6.18
6.04
5.79
5.34
4.61
3.53
2.08
0.32
-1.55
-3.25
-4.58
-5.53
-6.26
-7.07
-8.27
-9.99
-12.12
-14.41
-16.51
-18.12
-19.01
-19.07
-18.29
-16.76
-14.62
-12.03
-9.16
-6.17
-3.18
-0.28
2.40
4.78
6.75
8.28
9.33
9.96
10.21
10.21
10.10
9.98
9.93
9.99
10.13
10.33
10.58
10.85
11.13
11.36
11.44
11.25
10.74
9.91
8.84
7.67
6.52
5.42
4.36
3.27
2.08
0.80
-0.47
-1.56
-2.37
-2.94
-3.46
-4.22
-5.47
-7.27
-9.48
-11.82
-13.97
-15.71
-16.92
-17.56
-17.56
-16.88
-15.49
-13.47
-11.04
-8.48
-6.08
-3.97
-2.12
-0.43
1.19
2.73
4.07
5.00
5.47
5.55
5.51
5.66
6.23
7.25
8.49
9.64
10.45
10.87
11.01
11.05
11.07
10.98
10.59
9.76
8.54
7.19
6.00
5.15
4.58
4.09
3.42
2.43
1.21
-0.08
-1.27
-2.33
-3.40
-4.69
-6.39
-8.53
-10.94
-13.30
-15.17
-16.19
-16.13
-15.01
-13.06
-10.62
-8.07
-5.65
-3.44
-1.42
0.48
2.26
3.84
5.13
6.06
6.70
7.16
7.59
8.03
8.46
8.75
8.81
8.63
8.29
7.93
7.67
7.55
7.52
7.47
7.30
6.95
6.41
5.69
4.82
3.85
2.82
1.80
0.82
-0.10
-0.97
-1.83
-2.76
-3.88
-5.28
-7.03
-9.13
-11.45
-13.70
-15.49
-16.44
-16.32
-15.10
-13.02
-10.45
-7.72
-5.08
-2.58
-0.23
2.00
4.03
5.73
6.96
7.67
7.89
7.77
7.44
7.05
6.71
6.55
6.70
7.19
7.94
8.80
9.56
10.03
10.14
9.96
9.58
9.11
8.59
8.00
7.27
6.38
5.32
4.11
2.80
1.46
0.11
-1.21
-2.54
-3.98
-5.67
-7.72
-10.12
-12.69
-15.14
-17.12
-18.40
-18.92
-18.71
-17.88
-16.49
-14.56
-12.16
-9.41
-6.51
-3.73
-1.28
0.76
2.40
3.73
4.81
5.66
6.26
6.58
6.68
6.65
6.63
6.78
7.14
7.69
8.30
8.80
9.06
9.05
8.90
8.72
8.62
8.55
8.32
7.74
6.63
5.07
3.28
1.55
0.13
-0.94
-1.79
-2.65
-3.69
-4.93
-6.24
-7.49
-8.61
-9.72
-10.95
-12.46
-14.19
-15.84
-16.97
-17.06
-15.84
-13.34
-9.96
-6.30
-2.93
-0.24
1.73
3.16
4.32
5.34
6.23
6.85
7.10
7.05
6.89
6.85
7.08
7.53
8.08
8.59
9.02
9.43
9.89
10.34
10.63
10.50
9.82
8.62
7.16
5.79
4.80
4.25
3.97
3.66
3.04
2.01
0.70
-0.67
-1.87
-2.82
-3.62
-4.49
-5.67
-7.24
-9.18
-11.30
-13.34
-15.04
-16.19
-16.60
-16.19
-14.90
-12.83
-10.18
-7.22
-4.33
-1.81
0.14
1.51
2.42
3.07
3.66
4.31
4.99
5.63
6.16
6.53
6.79
7.03
7.30
7.60
7.87
8.04
8.12
8.13
8.14
8.17
8.14
7.89
7.26
6.15
4.65
2.96
1.37
0.04
-1.00
-1.93
-2.99
-4.33
-5.94
-7.67
-9.31
-10.72
-11.87
-12.75
-13.39
-13.70
-13.55
-12.85
-11.58
-9.86
-7.85
-5.71
-3.55
-1.45
0.51
2.25
3.66
4.71
5.42
5.82
5.99
5.98
5.83
5.66
5.59
5.76
6.23
6.92
7.61
8.06
8.12
7.76
7.06
6.16
5.17
4.12
3.00
1.84
0.68
-0.40
-1.37
-2.25
-3.22
-4.47
-6.22
-8.52
-11.26
-14.13
-16.70
-18.57
-19.44
-19.25
-18.11
-16.26
-13.92
-11.25
-8.34
-5.27
-2.16
0.77
3.28
5.20
6.48
7.19
7.49
7.53
7.43
7.30
7.22
7.28
7.52
7.92
8.35
8.63
8.66
8.44
8.09
7.79
7.72
7.84
8.04
8.06
7.69
6.80
5.41
3.63
1.68
-0.25
-2.08
-3.77
-5.43
-7.17
-9.12
-11.31
-13.73
-16.22
-18.54
-20.38
-21.40
-21.31
-20.01
-17.59
-14.32
-10.59
-6.81
-3.29
-0.23
2.30
4.30
5.76
6.69
7.07
6.98
6.57
6.08
5.79
5.87
6.34
7.09
7.92
8.66
9.22
9.65
9.99
10.24
10.35
10.22
9.78
9.03
8.02
6.83
5.50
4.09
2.64
1.18
-0.26
-1.73
-3.30
-5.09
-7.19
-9.61
-12.28
-15.08
-17.84
-20.36
-22.38
-23.53
-23.48
-22.00
-19.13
-15.24
-10.93
-6.82
-3.34
-0.57
1.64
3.56
5.34
6.93
8.14
8.85
9.09
9.09
9.17
9.51
10.15
10.94
11.68
12.21
12.51
12.68
12.84
13.06
13.32
13.52
13.49
13.10
12.28
11.09
9.62
8.00
6.29
4.51
2.63
0.68
-1.25
-3.11
-4.86
-6.61
-8.56
-10.89
-13.67
-16.74
-19.78
-22.34
-23.97
-24.42
-23.60
-21.66
-18.85
-15.53
-11.97
-8.37
-4.83
-1.38
1.92
4.95
7.57
9.62
11.04
11.87
12.26
12.41
12.54
12.80
13.29
13.98
14.79
15.53
16.00
16.04
15.63
14.88
14.02
13.26
12.71
12.33
11.91
11.19
9.96
8.15
5.88
3.38
0.91
-1.35
-3.32
-5.08
-6.80
-8.69
-10.94
-13.67
-16.87
-20.32
-23.65
-26.29
-27.71
-27.50
-25.60
-22.28
-18.07
-13.57
-9.25
-5.36
-1.94
1.11
3.84
6.25
8.20
9.62
10.46
10.86
11.05
11.25
11.65
12.26
12.99
13.67
14.21
14.58
14.86
15.09
15.28
15.34
15.08
14.35
13.06
11.26
9.07
6.66
4.21
1.79
-0.53
-2.74
-4.86
-6.94
-9.05
-11.23
-13.56
-16.05
-18.69
-21.34
-23.78
-25.67
-26.60
-26.21
-24.33
-21.08
-16.82
-12.09
-7.40
-3.13
0.56
3.63
6.13
8.08
9.50
10.41
10.93
11.25
11.57
12.05
12.77
13.73
14.88
16.10
17.32
18.44
19.40
20.13
20.59
20.71
20.48
19.92
19.08
18.06
16.98
15.88
14.70
13.27
11.38
8.92
5.95
2.75
-0.30
-2.88
-4.83
-6.27
-7.52
-9.02
-11.13
-14.02
-17.61
-21.53
-25.25
-28.12
-29.65
-29.51
-27.68
-24.39
-20.00
-14.97
-9.75
-4.73
-0.21
3.64
6.77
9.23
11.17
12.66
13.79
14.56
15.02
15.27
15.47
15.81
16.40
17.24
18.22
19.15
19.87
20.27
20.33
20.11
19.70
19.18
18.53
17.73
16.71
15.45
14.01
12.50
10.97
9.43
7.77
5.86
3.62
1.07
-1.66
-4.40
-7.04
-9.53
-11.95
-14.41
-17.02
-19.84
-22.83
-25.83
-28.54
-30.53
-31.38
-30.73
-28.48
-24.83
-20.22
-15.24
-10.43
-6.12
-2.39
0.88
3.85
6.58
8.98
10.93
12.37
13.37
14.11
14.75
15.39
15.98
16.50
16.94
17.43
18.08
18.96
19.89
20.58
20.71
20.10
18.81
17.08
15.21
13.42
11.80
10.31
8.82
7.24
5.54
3.73
1.83
-0.11
-2.13
-4.23
-6.38
-8.50
-10.49
-12.34
-14.14
-16.10
-18.44
-21.22
-24.21
-26.89
-28.64
-28.90
-27.49
-24.54
-20.52
-16.00
-11.45
-7.22
-3.41
-0.05
2.86
5.29
7.21
8.60
9.51
10.08
10.50
10.98
11.60
12.35
13.11
13.79
14.35
14.88
15.45
16.12
16.78
17.23
17.27
16.83
15.96
14.83
13.62
12.40
11.14
9.75
8.13
6.21
4.02
1.61
-0.96
-3.56
-6.05
-8.36
-10.47
-12.50
-14.64
-17.09
-19.84
-22.63
-24.97
-26.29
-26.18
-24.46
-21.33
-17.20
-12.59
-7.95
-3.56
0.42
3.92
6.87
9.14
10.65
11.40
11.53
11.28
10.96
10.76
10.78
11.07
11.61
12.33
13.21
14.13
14.93
15.47
15.63
15.40
14.83
13.96
12.83
11.45
9.83
8.06
6.28
4.57
2.91
1.15
-0.88
-3.26
-5.88
-8.49
-10.83
-12.83
-14.67
-16.68
-19.18
-22.26
-25.69
-28.94
-31.40
-32.50
-31.96
-29.78
-26.22
-21.69
-16.63
-11.44
-6.44
-1.86
2.15
5.49
8.12
10.04
11.30
12.00
12.29
12.34
12.33
12.41
12.68
13.18
13.84
14.56
15.22
15.76
16.17
16.48
16.65
16.63
16.28
15.50
14.28
12.72
10.97
9.16
7.33
5.43
3.41
1.25
-0.95
-3.00
-4.80
-6.31
-7.69
-9.24
-11.25
-13.93
-17.28
-21.09
-24.95
-28.27
-30.43
-30.92
-29.48
-26.21
-21.60
-16.38
-11.26
-6.78
-3.11
-0.13
2.41
4.70
6.81
8.68
10.22
11.40
12.26
12.88
13.33
13.63
13.83
13.99
14.19
14.57
15.20
16.09
17.13
18.16
18.91
19.19
18.87
18.03
16.86
15.65
14.59
13.71
12.88
11.88
10.54
8.80
6.77
4.60
2.42
0.28
-1.86
-4.07
-6.41
-8.93
-11.57
-14.14
-16.33
-17.71
-17.81
-16.27
-12.91
-7.82
-1.40
5.68
12.55
18.24
21.90
22.99
21.49
17.98
13.42
8.95
5.51
3.63
3.40
4.53
6.54
8.94
11.35
13.53
15.40
16.94
18.14
18.97
19.39
19.42
19.17
18.90
18.95
19.60
20.92
22.60
23.94
23.97
21.67
16.36
7.90
-3.15
-15.65
-28.16
-39.23
-47.73
-52.98
-54.73
-53.13
-48.65
-42.08
-34.35
-26.41
-19.05
-12.73
-7.53
-3.23
0.52
4.05
7.55
11.04
14.35
17.17
19.09
19.77
19.08
17.23
14.80
12.60
11.31
11.25
12.22
13.62
14.80
15.27
14.90
13.88
12.52
11.04
9.55
8.02
6.41
4.75
3.10
1.45
-0.29
-2.31
-4.76
-7.69
-11.00
-14.47
-17.91
-21.20
-24.38
-27.49
-30.52
-33.27
-35.42
-36.54
-36.30
-34.56
-31.42
-27.20
-22.34
-17.34
-12.59
-8.36
-4.74
-1.76
0.64
2.44
3.66
4.30
4.42
4.20
3.88
3.71
3.83
4.29
4.99
5.80
6.56
7.19
7.68
8.07
8.37
8.59
8.67
8.46
7.83
6.68
4.97
2.77
0.21
-2.59
-5.49
-8.37
-11.18
-13.87
-16.44
-18.97
-21.52
-24.14
-26.81
-29.38
-31.56
-32.98
-33.24
-32.01
-29.21
-25.05
-19.94
-14.44
-9.05
-4.11
0.22
3.89
6.87
9.10
10.58
11.39
11.74
11.92
12.22
12.83
13.74
14.86
16.02
17.11
18.07
18.86
19.47
19.86
19.98
19.76
19.13
18.02
16.37
14.18
11.52
8.54
5.46
2.46
-0.35
-2.96
-5.47
-7.93
-10.43
-13.01
-15.74
-18.72
-22.01
-25.54
-29.04
-32.03
-33.93
-34.28
-32.90
-29.97
-25.94
-21.36
-16.72
-12.26
-8.08
-4.15
-0.45
2.91
5.74
7.84
9.07
9.52
9.43
9.16
9.08
9.36
9.99
10.74
11.38
11.78
11.98
12.16
12.46
12.90
13.28
13.35
12.83
11.61
9.77
7.52
5.14
2.81
0.61
-1.51
-3.69
-6.08
-8.76
-11.77
-15.09
-18.67
-22.38
-26.00
-29.16
-31.33
-32.03
-30.91
-27.97
-23.53
-18.17
-12.55
-7.19
-2.39
1.73
5.17
7.95
10.07
11.53
12.38
12.72
12.72
12.47
12.08
11.61
11.13
10.74
10.51
10.50
10.65
10.86
11.02
11.09
11.03
10.81
10.31
9.29
7.57
5.12
2.15
-0.98
-3.82
-6.17
-8.06
-9.82
-11.87
-14.61
-18.21
-22.59
-27.30
-31.71
-35.07
-36.76
-36.45
-34.17
-30.30
-25.39
-19.99
-14.48
-9.15
-4.16
0.29
4.03
6.96
9.11
10.65
11.82
12.86
13.89
14.96
16.04
17.06
17.97
18.78
19.48
20.12
20.72
21.28
21.73
21.98
21.89
21.34
20.30
18.75
16.72
14.28
11.50
8.53
5.49
2.53
-0.26
-2.87
-5.32
-7.70
-10.09
-12.64
-15.49
-18.76
-22.38
-26.10
-29.37
-31.52
-31.96
-30.40
-26.93
-22.05
-16.44
-10.72
-5.33
-0.49
3.80
7.53
10.70
13.25
15.18
16.52
17.39
17.98
18.47
19.02
19.68
20.40
21.09
21.65
22.01
22.23
22.39
22.55
22.70
22.68
22.33
21.54
20.32
18.80
17.13
15.38
13.50
11.42
9.12
6.64
4.10
1.63
-0.73
-2.96
-5.09
-7.15
-9.23
-11.46
-14.02
-17.09
-20.74
-24.81
-28.91
-32.45
-34.83
-35.53
-34.31
-31.22
-26.58
-20.89
-14.68
-8.47
-2.70
2.28
6.26
9.11
10.89
11.82
12.22
12.43
12.70
13.17
13.90
14.88
16.04
17.33
18.61
19.75
20.61
21.13
21.33
21.29
21.05
20.56
19.72
18.42
16.61
14.42
12.06
9.76
7.66
5.69
3.74
1.64
-0.63
-2.99
-5.27
-7.35
-9.25
-11.18
-13.46
-16.34
-19.89
-23.89
-27.77
-30.83
-32.39
-31.98
-29.53
-25.36
-20.02
-14.18
-8.39
-3.04
1.70
5.74
9.05
11.55
13.22
14.10
14.35
14.26
14.09
14.07
14.27
14.64
15.07
15.49
15.88
16.24
16.58
16.86
16.94
16.68
16.01
14.91
13.47
11.81
10.01
8.08
5.98
3.70
1.23
-1.33
-3.80
-6.01
-7.85
-9.31
-10.59
-12.00
-13.88
-16.50
-19.94
-24.07
-28.51
-32.73
-36.07
-37.89
-37.69
-35.28
-30.84
-24.95
-18.39
-11.92
-6.06
-1.01
3.29
7.01
10.25
12.98
15.12
16.58
17.43
17.81
17.95
18.01
18.06
18.13
18.23
18.41
18.79
19.44
20.29
21.18
21.82
21.94
21.40
20.20
18.50
16.53
14.52
12.60
10.75
8.84
6.68
4.18
1.39
-1.53
-4.35
-6.91
-9.23
-11.50
-13.92
-16.68
-19.81
-23.24
-26.79
-30.22
-33.16
-35.16
-35.74
-34.54
-31.48
-26.87
-21.32
-15.54
-10.11
-5.33
-1.20
2.36
5.46
8.10
10.18
11.62
12.43
12.72
12.70
12.61
12.63
12.86
13.35
14.12
15.14
16.35
17.66
18.93
19.95
20.56
20.65
20.19
19.25
17.96
16.47
14.90
13.27
11.54
9.61
7.39
4.83
1.98
-0.96
-3.81
-6.39
-8.68
-10.83
-13.10
-15.75
-18.90
-22.42
-25.95
-28.97
-30.91
-31.33
-30.01
-27.04
-22.76
-17.69
-12.34
-7.15
-2.42
1.72
5.25
8.23
10.71
12.70
14.18
15.11
15.49
15.41
15.08
14.77
14.73
15.06
15.70
16.45
17.10
17.54
17.76
17.87
17.97
18.11
18.25
18.29
18.12
17.64
16.78
15.55
13.98
12.09
9.95
7.63
5.22
2.80
0.41
-2.00
-4.55
-7.42
-10.70
-14.31
-17.89
-20.93
-22.86
-23.26
-22.00
-19.23
-15.31
-10.67
-5.75
-0.94
3.46
7.21
10.20
12.42
13.98
15.05
15.80
16.36
16.77
17.06
17.24
17.34
17.40
17.44
17.42
17.26
16.91
16.35
15.59
14.71
13.77
12.82
11.90
11.01
10.13
9.18
8.08
6.69
4.87
2.57
-0.22
-3.40
-6.78
-10.22
-13.54
-16.68
-19.65
-22.55
-25.54
-28.74
-32.16
-35.62
-38.72
-40.89
-41.61
-40.60
-37.93
-34.07
-29.68
-25.44
-21.76
-18.71
-16.11
-13.65
-11.15
-8.60
-6.19
-4.09
-2.45
-1.25
-0.40
0.24
0.80
1.42
2.27
3.52
5.28
7.52
10.02
12.44
14.40
15.64
16.10
15.91
15.22
14.16
12.76
11.00
8.89
6.56
4.21
2.03
0.15
-1.47
-2.93
-4.41
-6.08
-8.09
-10.52
-13.43
-16.69
-20.06
-23.14
-25.43
-26.50
-26.07
-24.15
-21.00
-17.05
-12.79
-8.61
-4.76
-1.36
1.57
4.02
5.94
7.27
8.01
8.25
8.22
8.16
8.30
8.76
9.50
10.37
11.19
11.84
12.27
12.52
12.66
12.81
13.01
13.23
13.39
13.32
12.89
11.96
10.52
8.63
6.43
4.10
1.78
-0.46
-2.66
-4.91
-7.36
-10.14
-13.30
-16.75
-20.29
-23.59
-26.26
-27.88
-28.12
-26.75
-23.86
-19.76
-15.02
-10.24
-5.93
-2.34
0.52
2.81
4.69
6.27
7.55
8.50
9.10
9.40
9.48
9.44
9.36
9.31
9.34
9.44
9.60
9.82
10.07
10.35
10.60
10.73
10.54
9.88
8.61
6.75
4.45
1.98
-0.46
-2.71
-4.77
-6.75
-8.80
-11.09
-13.75
-16.84
-20.25
-23.70
-26.65
-28.52
-28.75
-27.08
-23.61
-18.80
-13.36
-7.93
-3.02
1.13
4.47
7.07
9.03
10.43
11.34
11.81
11.92
11.75
11.41
11.04
10.78
10.78
11.05
11.50
11.96
12.25
12.24
11.93
11.39
10.75
10.11
9.48
8.78
7.86
6.55
4.77
2.54
0.04
-2.50
-4.85
-6.92
-8.83
-10.85
-13.31
-16.40
-20.09
-24.00
-27.58
-30.17
-31.24
-30.51
-28.01
-24.09
-19.25
-14.05
-8.93
-4.20
0.04
3.73
6.87
9.44
11.40
12.71
13.42
13.68
13.68
13.67
13.81
14.19
14.80
15.55
16.34
17.03
17.51
17.65
17.40
16.70
15.64
14.35
12.95
11.51
9.99
8.27
6.25
3.92
1.36
-1.25
-3.78
-6.19
-8.55
-10.97
-13.62
-16.59
-19.92
-23.53
-27.16
-30.43
-32.82
-33.86
-33.21
-30.75
-26.63
-21.24
-15.07
-8.70
-2.69
2.50
6.61
9.55
11.46
12.62
13.29
13.70
13.99
14.23
14.53
14.99
15.73
16.76
18.00
19.29
20.49
21.50
22.30
22.88
23.23
23.25
22.83
21.87
20.36
18.45
16.29
14.04
11.79
9.52
7.24
4.96
2.75
0.71
-1.14
-2.91
-4.82
-7.17
-10.19
-13.98
-18.40
-23.08
-27.47
-30.93
-32.86
-32.87
-30.84
-27.03
-21.94
-16.24
-10.58
-5.41
-0.97
2.72
5.74
8.22
10.20
11.75
12.87
13.61
14.04
14.24
14.29
14.26
14.23
14.27
14.46
14.80
15.26
15.79
16.28
16.61
16.68
16.41
15.76
14.74
13.40
11.82
10.04
8.09
5.99
3.78
1.55
-0.62
-2.68
-4.64
-6.57
-8.53
-10.56
-12.64
-14.78
-17.00
-19.37
-21.83
-24.16
-25.88
-26.40
-25.28
-22.41
-18.11
-13.08
-8.07
-3.63
0.01
2.97
5.46
7.61
9.38
10.59
11.06
10.78
9.95
8.93
8.11
7.77
8.04
8.87
10.14
11.66
13.26
14.79
16.08
17.04
17.61
17.76
17.52
16.92
16.03
14.84
13.36
11.58
9.57
7.42
5.26
3.19
1.23
-0.71
-2.75
-5.06
-7.64
-10.45
-13.31
-15.98
-18.18
-19.60
-19.93
-18.98
-16.71
-13.33
-9.28
-5.09
-1.19
2.21
5.14
7.70
9.93
11.68
12.72
12.91
12.32
11.23
10.05
9.07
8.39
7.95
7.64
7.48
7.57
8.04
8.87
9.84
10.59
10.85
10.51
9.70
8.66
7.62
6.63
5.62
4.47
3.07
1.45
-0.32
-2.17
-4.05
-5.93
-7.76
-9.50
-11.15
-12.78
-14.55
-16.60
-18.94
-21.39
-23.57
-24.99
-25.20
-23.94
-21.22
-17.34
-12.77
-8.08
-3.77
-0.15
2.68
4.85
6.57
8.03
9.29
10.30
11.01
11.41
11.60
11.73
11.89
12.11
12.34
12.57
12.84
13.23
13.80
14.50
15.09
15.30
14.88
13.77
12.13
10.20
8.25
6.43
4.75
3.15
1.53
-0.20
-2.02
-3.91
-5.81
-7.67
-9.49
-11.30
-13.23
-15.42
-17.94
-20.73
-23.52
-25.90
-27.38
-27.54
-26.17
-23.33
-19.34
-14.70
-9.99
-5.74
-2.27
0.34
2.22
3.65
4.90
6.10
7.25
8.23
8.91
9.27
9.41
9.48
9.64
9.96
10.40
10.84
11.22
11.52
11.75
11.92
11.98
11.83
11.35
10.51
9.37
8.06
6.75
5.52
4.38
3.22
1.88
0.29
-1.58
-3.62
-5.67
-7.54
-9.16
-10.57
-11.95
-13.53
-15.52
-17.96
-20.66
-23.18
-24.93
-25.38
-24.19
-21.44
-17.53
-13.10
-8.74
-4.87
-1.62
1.01
3.08
4.65
5.71
6.30
6.51
6.55
6.61
6.85
7.29
7.90
8.55
9.13
9.62
10.07
10.57
11.23
12.02
12.81
13.37
13.43
12.83
11.61
9.97
8.16
6.39
4.73
3.18
1.66
0.11
-1.49
-3.17
-4.88
-6.61
-8.32
-10.00
-11.65
-13.31
-15.08
-17.08
-19.37
-21.86
-24.21
-25.91
-26.41
-25.36
-22.76
-19.02
-14.76
-10.60
-6.93
-3.81
-1.12
1.28
3.38
5.03
6.08
6.49
6.42
6.13
5.84
5.67
5.63
5.70
5.90
6.27
6.83
7.51
8.18
8.69
8.92
8.86
8.56
8.07
7.43
6.64
5.65
4.47
3.11
1.64
0.13
-1.37
-2.85
-4.31
-5.81
-7.41
-9.21
-11.22
-13.44
-15.79
-18.09
-20.14
-21.67
-22.37
-21.95
-20.24
-17.23
-13.23
-8.73
-4.34
-0.57
2.26
4.12
5.23
5.88
6.37
6.86
7.35
7.76
8.02
8.08
8.01
7.90
7.81
7.75
7.72
7.73
7.82
8.08
8.54
9.15
9.67
9.80
9.24
7.87
5.76
3.19
0.54
-1.89
-3.92
-5.56
-6.94
-8.24
-9.58
-11.06
-12.69
-14.46
-16.37
-18.35
-20.28
-21.92
-22.97
-23.14
-22.24
-20.26
-17.38
-13.90
-10.17
-6.50
-3.12
-0.13
2.45
4.68
6.62
8.25
9.51
10.32
10.63
10.52
10.18
9.87
9.74
9.85
10.15
10.51
10.85
11.14
11.44
11.75
11.96
11.89
11.33
10.18
8.49
6.50
4.50
2.77
1.38
0.29
-0.71
-1.81
-3.13
-4.67
-6.33
-8.05
-9.78
-11.61
-13.57
-15.60
-17.51
-19.00
-19.76
-19.57
-18.36
-16.22
-13.35
-10.00
-6.40
-2.75
0.81
4.13
7.05
9.44
11.16
12.14
12.43
12.18
11.66
11.15
10.85
10.84
11.06
11.41
11.79
12.17
12.55
12.90
13.13
13.03
12.43
11.28
9.68
7.91
6.24
4.79
3.49
2.08
0.27
-2.06
-4.78
-7.60
-10.17
-12.24
-13.82
-15.14
-16.53
-18.29
-20.62
-23.50
-26.75
-30.01
-32.82
-34.68
-35.13
-33.91
-30.98
-26.64
-21.43
-15.94
-10.66
-5.85
-1.59
2.19
5.50
8.26
10.31
11.57
12.07
12.07
11.90
11.87
12.12
12.56
13.03
13.39
13.64
13.90
14.26
14.72
15.10
15.16
14.78
13.98
12.94
11.87
10.84
9.75
8.43
6.78
4.80
2.62
0.41
-1.74
-3.77
-5.68
-7.41
-8.94
-10.27
-11.54
-12.98
-14.85
-17.25
-20.10
-23.10
-25.83
-27.89
-28.91
-28.69
-27.11
-24.25
-20.37
-15.88
-11.27
-6.96
-3.23
-0.16
2.29
4.23
5.70
6.71
7.24
7.36
7.21
7.03
7.06
7.42
8.14
9.09
10.12
11.07
11.87
12.49
12.90
13.11
13.11
12.92
12.59
12.19
11.74
11.21
10.51
9.51
8.13
6.33
4.17
1.76
-0.71
-3.00
-4.96
-6.54
-7.90
-9.36
-11.29
-13.88
-17.03
-20.32
-23.09
-24.73
-24.78
-23.11
-19.92
-15.63
-10.74
-5.75
-1.02
3.22
6.89
9.99
12.56
14.62
16.18
17.24
17.82
18.00
17.92
17.78
17.78
18.09
18.79
19.83
21.04
22.15
22.95
23.29
23.20
22.76
22.07
21.12
19.77
17.89
15.34
12.15
8.53
4.73
1.03
-2.43
-5.67
-8.79
-11.91
-15.06
-18.22
-21.30
-24.30
-27.24
-30.06
-32.56
-34.30
-34.70
-33.31
-30.02
-25.19
-19.56
-14.02
-9.22
-5.44
-2.52
-0.11
2.13
4.34
6.45
8.24
9.55
10.35
10.75
10.97
11.24
11.78
12.65
13.86
15.30
16.82
18.22
19.29
19.89
19.94
19.41
18.30
16.65
14.54
12.11
9.56
7.11
4.87
2.89
1.07
-0.67
-2.38
-4.01
-5.54
-7.07
-8.85
-11.27
-14.65
-19.09
-24.37
-29.96
-35.13
-39.13
-41.35
-41.46
-39.44
-35.60
-30.47
-24.63
-18.65
-12.96
-7.86
-3.53
-0.04
2.64
4.64
6.14
7.37
8.44
9.38
10.12
10.60
10.82
10.93
11.15
11.68
12.60
13.82
15.12
16.21
16.84
16.87
16.30
15.19
13.72
12.08
10.43
8.90
7.51
6.14
4.65
2.88
0.75
-1.68
-4.33
-7.08
-9.82
-12.51
-15.17
-17.80
-20.46
-23.18
-25.97
-28.64
-30.88
-32.17
-32.02
-30.15
-26.64
-21.97
-16.73
-11.53
-6.70
-2.35
1.55
5.02
7.99
10.29
11.80
12.55
12.75
12.75
12.89
13.38
14.21
15.18
16.07
16.72
17.14
17.45
17.80
18.25
18.72
19.01
18.96
18.45
17.47
16.16
14.67
13.13
11.57
9.96
8.18
6.13
3.74
1.10
-1.60
-4.16
-6.41
-8.36
-10.14
-11.98
-14.09
-16.58
-19.44
-22.56
-25.79
-28.88
-31.53
-33.32
-33.80
-32.58
-29.53
-24.88
-19.20
-13.22
-7.60
-2.73
1.35
4.78
7.74
10.27
12.28
13.65
14.35
14.53
14.47
14.48
14.77
15.43
16.41
17.57
18.77
19.90
20.88
21.65
22.18
22.41
22.29
21.78
20.84
19.55
18.00
16.32
14.62
12.93
11.20
9.39
7.44
5.36
3.21
1.09
-0.93
-2.80
-4.59
-6.43
-8.53
-11.06
-14.13
-17.65
-21.28
-24.51
-26.75
-27.50
-26.47
-23.69
-19.45
-14.30
-8.84
-3.61
1.08
5.14
8.63
11.67
14.25
16.29
17.57
17.99
17.54
16.44
15.03
13.71
12.88
12.89
13.94
16.04
18.91
22.00
24.62
26.14
26.19
24.74
22.10
18.67
14.84
10.87
6.91
3.04
-0.67
-4.14
-7.34
-10.29
-13.04
-15.65
-18.10
-20.44
-22.70
-25.05
-27.70
-30.76
-34.20
-37.64
-40.50
-42.11
-41.93
-39.77
-35.82
-30.55
-24.58
-18.41
-12.44
-6.86
-1.85
2.44
5.89
8.43
10.15
11.27
12.09
12.85
13.63
14.37
14.99
15.49
15.95
16.56
17.38
18.36
19.26
19.80
19.78
19.18
18.15
16.92
15.66
14.41
13.07
11.46
9.45
6.99
4.18
1.22
-1.68
-4.37
-6.85
-9.22
-11.63
-14.29
-17.39
-21.03
-25.18
-29.58
-33.71
-36.87
-38.35
-37.67
-34.79
-30.10
-24.31
-18.21
-12.42
-7.25
-2.74
1.22
4.78
8.00
10.83
13.19
14.95
16.09
16.67
16.86
16.91
17.04
17.42
18.12
19.09
20.19
21.27
22.17
22.75
22.90
22.58
21.77
20.56
19.06
17.35
15.46
13.37
10.97
8.24
5.24
2.11
-0.95
-3.79
-6.36
-8.75
-11.14
-13.77
-16.81
-20.35
-24.24
-28.10
-31.33
-33.26
-33.35
-31.36
-27.44
-22.13
-16.13
-10.13
-4.62
0.16
4.18
7.51
10.24
12.38
13.91
14.78
15.04
14.83
14.42
14.15
14.32
15.04
16.22
17.61
18.89
19.85
20.39
20.54
20.36
19.87
19.00
17.69
15.93
13.83
11.55
9.26
7.00
4.75
2.49
0.19
-2.10
-4.33
-6.48
-8.68
-11.14
-14.10
-17.72
-21.92
-26.33
-30.32
-33.17
-34.24
-33.19
-30.09
-25.38
-19.72
-13.80
-8.17
-3.12
1.22
4.87
7.85
10.13
11.70
12.59
12.97
13.09
13.23
13.63
14.34
15.26
16.18
16.93
17.44
17.77
18.03
18.24
18.30
18.03
17.20
15.73
13.67
11.22
8.64
6.16
3.89
1.82
-0.20
-2.37
-4.86
-7.76
-11.06
-14.71
-18.58
-22.50
-26.17
-29.10
-30.69
-30.41
-28.01
-23.68
-18.07
-12.06
-6.44
-1.64
2.34
5.77
8.97
12.07
14.90
17.11
18.39
18.68
18.20
17.37
16.63
16.22
16.17
16.30
16.42
16.44
16.40
16.41
16.50
16.61
16.53
16.00
14.85
12.99
10.50
7.53
4.31
1.02
-2.22
-5.34
-8.40
-11.52
-14.88
-18.65
-22.89
-27.45
-31.93
-35.67
-37.93
-38.10
-35.95
-31.71
-26.03
-19.72
-13.56
-8.02
-3.28
0.71
4.09
6.92
9.17
10.76
11.66
11.96
11.88
11.77
11.96
12.66
13.89
15.48
17.12
18.46
19.28
19.54
19.33
18.83
18.19
17.41
16.38
14.96
13.05
10.69
8.02
5.20
2.33
-0.55
-3.51
-6.59
-9.85
-13.28
-16.90
-20.73
-24.83
-29.13
-33.42
-37.22
-39.95
-41.02
-40.04
-36.98
-32.16
-26.19
-19.77
-13.49
-7.71
-2.56
1.99
6.05
9.64
12.74
15.29
17.27
18.72
19.78
20.63
21.39
22.13
22.88
23.62
24.39
25.18
25.93
26.53
26.77
26.47
25.56
24.08
22.21
20.14
18.00
15.80
13.48
10.95
8.19
5.28
2.34
-0.49
-3.14
-5.63
-8.10
-10.75
-13.81
-17.43
-21.60
-26.18
-30.78
-34.83
-37.70
-38.82
-37.84
-34.72
-29.80
-23.67
-17.01
-10.43
-4.34
1.10
5.86
9.96
13.42
16.17
18.15
19.39
20.08
20.48
20.87
21.46
22.27
23.26
24.31
25.35
26.37
27.33
28.16
28.65
28.62
27.91
26.59
24.84
22.94
21.04
19.14
17.07
14.61
11.68
8.39
4.97
1.68
-1.31
-3.96
-6.35
-8.59
-10.80
-13.10
-15.66
-18.70
-22.35
-26.55
-30.92
-34.79
-37.35
-37.94
-36.26
-32.49
-27.18
-21.03
-14.65
-8.41
-2.49
3.04
8.05
12.33
15.66
17.91
19.12
19.54
19.52
19.40
19.46
19.82
20.51
21.47
22.57
23.68
24.62
25.25
25.42
25.03
24.05
22.56
20.72
18.73
16.78
14.92
13.09
11.11
8.83
6.19
3.31
0.43
-2.22
-4.51
-6.45
-8.22
-10.06
-12.21
-14.84
-18.01
-21.62
-25.38
-28.78
-31.19
-31.97
-30.69
-27.28
-22.10
-15.79
-9.11
-2.71
2.97
7.76
11.60
14.54
16.63
17.91
18.43
18.31
17.74
16.96
16.25
15.83
15.86
16.37
17.26
18.37
19.44
20.23
20.52
20.23
19.40
18.18
16.79
15.41
14.09
12.75
11.20
9.23
6.71
3.71
0.43
-2.83
-5.82
-8.43
-10.71
-12.85
-15.15
-17.84
-21.11
-24.95
-29.11
-33.08
-36.14
-37.53
-36.67
-33.42
-28.14
-21.56
-14.61
-8.02
-2.23
2.66
6.75
10.11
12.72
14.53
15.51
15.77
15.60
15.29
15.12
15.22
15.62
16.29
17.19
18.27
19.49
20.73
21.84
22.65
22.96
22.60
21.50
19.73
17.48
15.05
12.70
10.53
8.43
6.19
3.65
0.79
-2.21
-5.08
-7.57
-9.64
-11.38
-13.04
-14.86
-17.06
-19.78
-23.07
-26.80
-30.60
-33.89
-35.96
-36.20
-34.28
-30.29
-24.70
-18.22
-11.56
-5.26
0.39
5.28
9.42
12.83
15.48
17.37
18.53
19.07
19.23
19.25
19.37
19.70
20.19
20.75
21.27
21.75
22.31
23.08
24.09
25.13
25.84
25.82
24.86
22.99
20.60
18.15
16.05
14.45
13.24
12.11
10.74
8.95
6.72
4.22
1.68
-0.71
-2.88
-4.85
-6.71
-8.58
-10.58
-12.89
-15.64
-18.99
-22.88
-26.98
-30.62
-32.96
-33.25
-31.10
-26.68
-20.52
-13.28
-5.52
2.36
9.99
16.87
22.34
25.74
26.68
25.34
22.36
18.69
15.10
11.96
9.24
6.67
4.10
1.66
-0.32
-1.50
-1.79
-1.44
-0.93
-0.76
-1.17
-2.13
-3.34
-4.46
-5.27
-5.74
-6.01
-6.29
-6.78
-7.57
-8.66
-9.99
-11.49
-13.03
-14.53
-15.88
-17.03
-18.01
-18.94
-20.05
-21.59
-23.72
-26.37
-29.21
-31.64
-33.02
-32.84
-30.88
-27.30
-22.50
-17.02
-11.36
-5.90
-0.91
3.44
7.02
9.78
11.69
12.83
13.36
13.42
13.20
12.80
12.36
11.98
11.77
11.83
12.18
12.78
13.51
14.20
14.69
14.88
14.71
14.15
13.20
11.91
10.36
8.63
6.81
4.97
3.09
1.11
-1.03
-3.30
-5.64
-7.96
-10.16
-12.25
-14.29
-16.40
-18.69
-21.17
-23.78
-26.30
-28.43
-29.78
-30.03
-28.95
-26.49
-22.77
-18.12
-12.96
-7.73
-2.82
1.48
5.00
7.69
9.59
10.77
11.32
11.31
10.88
10.18
9.44
8.88
8.67
8.84
9.30
9.89
10.46
10.93
11.29
11.55
11.63
11.41
10.70
9.43
7.64
5.53
3.32
1.17
-0.90
-2.98
-5.14
-7.37
-9.58
-11.63
-13.52
-15.35
-17.37
-19.80
-22.71
-25.88
-28.85
-30.98
-31.72
-30.70
-27.92
-23.72
-18.63
-13.24
-8.05
-3.34
0.77
4.29
7.23
9.58
11.28
12.31
12.71
12.64
12.33
12.01
11.85
11.89
12.13
12.53
13.06
13.74
14.51
15.26
15.79
15.92
15.52
14.66
13.50
12.24
10.99
9.73
8.36
6.81
5.06
3.16
1.19
-0.82
-2.87
-5.00
-7.21
-9.46
-11.75
-14.14
-16.73
-19.65
-22.87
-26.10
-28.84
-30.51
-30.64
-29.05
-25.84
-21.27
-15.67
-9.29
-2.39
4.69
11.52
17.57
22.30
25.34
26.60
26.19
24.43
21.71
18.44
15.01
11.78
9.02
6.93
5.58
4.88
4.68
4.74
4.85
4.84
4.58
4.01
3.10
1.92
0.60
-0.73
-1.99
-3.17
-4.37
-5.75
-7.43
-9.46
-11.76
-14.14
-16.35
-18.21
-19.69
-20.89
-22.06
-23.48
-25.36
-27.72
-30.38
-32.88
-34.65
-35.10
-33.84
-30.76
-26.12
-20.46
-14.43
-8.60
-3.28
1.44
5.58
9.17
12.09
14.25
15.58
16.23
16.46
16.57
16.74
16.96
17.13
17.18
17.14
17.18
17.42
17.91
18.52
19.08
19.42
19.44
19.12
18.45
17.44
16.10
14.50
12.73
10.85
8.78
6.38
3.47
-0.01
-3.90
-7.84
-11.38
-14.10
-15.81
-16.60
-16.81
-16.96
-17.59
-19.11
-21.57
-24.65
-27.68
-29.90
-30.69
-29.82
-27.47
-24.15
-20.41
-16.65
-13.09
-9.76
-6.70
-3.97
-1.74
-0.16
0.78
1.28
1.68
2.31
3.32
4.64
6.01
7.16
7.97
8.51
8.97
9.55
10.28
11.03
11.57
11.69
11.30
10.43
9.21
7.74
6.08
4.21
2.11
-0.20
-2.62
-5.04
-7.33
-9.41
-11.28
-13.01
-14.69
-16.47
-18.51
-20.94
-23.81
-27.00
-30.13
-32.60
-33.76
-33.03
-30.22
-25.55
-19.65
-13.31
-7.25
-1.94
2.48
6.08
9.02
11.33
12.98
13.86
13.95
13.39
12.53
11.76
11.42
11.66
12.38
13.36
14.29
14.97
15.35
15.42
15.24
14.89
14.40
13.78
13.01
11.99
10.60
8.70
6.25
3.32
0.15
-2.99
-5.91
-8.51
-10.89
-13.22
-15.72
-18.56
-21.85
-25.50
-29.30
-32.77
-35.30
-36.30
-35.30
-32.23
-27.40
-21.45
-15.10
-8.98
-3.45
1.39
5.62
9.32
12.55
15.26
17.39
18.88
19.75
20.10
20.12
19.99
19.93
20.09
20.60
21.47
22.61
23.84
24.94
25.71
26.00
25.74
24.95
23.70
22.01
19.93
17.43
14.49
11.11
7.34
3.32
-0.75
-4.60
-8.00
-10.80
-12.97
-14.67
-16.27
-18.19
-20.84
-24.39
-28.65
-33.05
-36.78
-39.08
-39.42
-37.73
-34.29
-29.60
-24.20
-18.48
-12.70
-7.06
-1.81
2.83
6.65
9.58
11.71
13.30
14.65
16.02
17.53
19.18
20.87
22.51
24.05
25.52
26.96
28.45
29.95
31.38
32.60
33.46
33.82
33.58
32.65
31.04
28.78
26.00
22.85
19.51
16.15
12.92
9.99
7.53
5.61
4.21
3.07
1.80
-0.09
-2.95
-6.91
-11.79
-17.06
-22.02
-25.89
-28.02
-28.02
-25.93
-22.14
-17.34
-12.26
-7.49
-3.33
0.21
3.24
5.91
8.27
10.28
11.87
12.98
13.61
13.87
13.95
14.03
14.32
14.84
15.53
16.19
16.62
16.71
16.45
15.96
15.37
14.77
14.09
13.24
12.10
10.63
8.90
7.00
5.00
2.86
0.51
-2.11
-4.98
-7.97
-10.90
-13.64
-16.24
-18.92
-21.92
-25.40
-29.25
-33.05
-36.19
-38.03
-38.13
-36.38
-32.98
-28.43
-23.31
-18.17
-13.39
-9.17
-5.59
-2.67
-0.42
1.10
1.89
2.00
1.61
0.99
0.46
0.33
0.79
1.85
3.37
5.10
6.74
8.08
9.06
9.74
10.24
10.62
10.80
10.56
9.64
7.95
5.61
2.95
0.40
-1.75
-3.43
-4.81
-6.17
-7.83
-9.95
-12.57
-15.59
-18.80
-21.85
-24.27
-25.54
-25.20
-23.08
-19.35
-14.55
-9.39
-4.52
-0.38
3.00
5.90
8.76
11.89
15.37
18.94
22.10
24.27
25.08
24.42
22.53
19.88
17.01
14.36
12.23
10.75
9.94
9.68
9.78
9.91
9.71
8.89
7.32
5.12
2.54
-0.08
-2.49
-4.57
-6.38
-8.10
-9.88
-11.84
-14.01
-16.33
-18.70
-21.09
-23.56
-26.28
-29.35
-32.74
-36.09
-38.79
-40.16
-39.68
-37.18
-32.88
-27.33
-21.13
-14.85
-8.92
-3.65
0.76
4.21
6.65
8.20
9.07
9.52
9.79
10.05
10.38
10.85
11.50
12.36
13.44
14.67
15.92
16.99
17.73
18.03
17.89
17.37
16.56
15.52
14.24
12.69
10.85
8.73
6.40
3.93
1.45
-0.99
-3.36
-5.67
-7.96
-10.29
-12.71
-15.29
-18.12
-21.24
-24.63
-28.06
-31.16
-33.36
-34.12
-33.05
-30.07
-25.48
-19.86
-13.90
-8.22
-3.18
1.15
4.87
8.16
11.10
13.66
15.70
17.12
17.89
18.18
18.25
18.37
18.77
19.54
20.65
21.97
23.26
24.30
24.92
25.04
24.69
23.99
23.11
22.15
21.14
20.01
18.65
16.98
14.96
12.62
10.05
7.34
4.60
1.93
-0.63
-3.06
-5.48
-8.05
-10.93
-14.22
-17.81
-21.42
-24.57
-26.77
-27.62
-26.93
-24.76
-21.38
-17.20
-12.66
-8.15
-3.95
-0.22
2.98
5.62
7.65
8.99
9.62
9.72
9.70
10.10
11.44
13.86
17.09
20.48
23.24
24.84
25.15
24.39
23.00
21.36
19.69
18.04
16.38
14.65
12.80
10.76
8.42
5.70
2.56
-0.91
-4.58
-8.24
-11.75
-14.98
-17.91
-20.62
-23.28
-26.13
-29.33
-32.78
-36.05
-38.44
-39.23
-37.93
-34.54
-29.49
-23.49
-17.26
-11.33
-5.99
-1.37
2.47
5.49
7.68
9.13
9.99
10.48
10.83
11.22
11.78
12.58
13.60
14.77
15.99
17.13
18.11
18.85
19.31
19.46
19.26
18.66
17.62
16.12
14.20
11.93
9.37
6.57
3.60
0.57
-2.44
-5.30
-7.98
-10.50
-12.98
-15.60
-18.57
-22.00
-25.86
-29.82
-33.33
-35.67
-36.23
-34.61
-30.84
-25.34
-18.77
-11.80
-4.99
1.30
6.90
11.71
15.66
18.69
20.79
22.05
22.64
22.81
22.80
22.81
22.94
23.20
23.58
24.01
24.43
24.78
24.96
24.85
24.33
23.34
21.85
19.90
17.61
15.13
12.58
10.03
7.41
4.63
1.55
-1.87
-5.50
-9.12
-12.48
-15.41
-17.94
-20.26
-22.69
-25.56
-29.05
-33.15
-37.59
-41.86
-45.23
-46.93
-46.26
-42.90
-37.01
-29.27
-20.71
-12.45
-5.37
0.03
3.71
5.95
7.18
7.77
8.01
8.08
8.12
8.31
8.80
9.70
10.98
12.51
14.11
15.63
17.06
18.42
19.75
21.00
22.00
22.54
22.47
21.83
20.79
19.56
18.32
17.09
15.76
14.14
12.10
9.59
6.69
3.52
0.26
-2.91
-5.79
-8.29
-10.45
-12.54
-14.99
-18.25
-22.47
-27.39
-32.26
-36.09
-37.96
-37.33
-34.21
-29.02
-22.47
-15.25
-7.96
-0.98
5.39
10.97
15.61
19.21
21.74
23.27
23.96
24.10
23.96
23.82
23.84
24.14
24.71
25.53
26.55
27.69
28.84
29.88
30.64
30.95
30.69
29.83
28.39
26.49
24.26
21.82
19.25
16.55
13.69
10.64
7.41
4.09
0.74
-2.68
-6.31
-10.36
-15.05
-20.42
-26.26
-32.16
-37.57
-41.92
-44.74
-45.72
-44.77
-41.94
-37.49
-31.83
-25.51
-19.11
-13.12
-7.90
-3.55
-0.03
2.81
5.03
6.67
7.70
8.16
8.24
8.31
8.80
10.06
12.15
14.83
17.64
20.12
22.00
23.28
24.13
24.73
25.13
25.17
24.60
23.27
21.22
18.66
15.92
13.20
10.53
7.75
4.64
1.04
-3.09
-7.69
-12.68
-17.95
-23.36
-28.66
-33.31
-36.59
-37.70
-36.15
-31.92
-25.63
-18.38
-11.37
-5.55
-1.40
1.12
2.35
2.73
2.59
2.11
1.36
0.47
-0.41
-1.03
-1.17
-0.68
0.47
2.16
4.17
6.17
7.87
9.04
9.60
9.62
9.30
8.86
8.43
7.97
7.31
6.22
4.51
2.11
-0.84
-4.15
-7.58
-10.96
-14.23
-17.38
-20.42
-23.41
-26.47
-29.80
-33.58
-37.80
-42.12
-45.80
-47.94
-47.72
-44.73
-39.17
-31.76
-23.49
-15.29
-7.86
-1.52
3.68
7.86
11.19
13.80
15.83
17.36
18.47
19.22
19.72
20.06
20.39
20.84
21.49
22.37
23.40
24.44
25.28
25.79
25.87
25.45
24.53
23.13
21.23
18.85
16.01
12.75
9.15
5.31
1.40
-2.36
-5.79
-8.76
-11.31
-13.71
-16.33
-19.59
-23.70
-28.58
-33.80
-38.64
-42.27
-43.94
-43.16
-39.86
-34.35
-27.29
-19.46
-11.66
-4.44
1.88
7.25
11.75
15.47
18.43
20.62
22.06
22.86
23.30
23.66
24.15
24.86
25.71
26.60
27.46
28.32
29.19
30.01
30.61
30.74
30.22
29.02
27.36
25.50
23.67
21.88
19.91
17.44
14.20
10.17
5.61
0.95
-3.39
-7.16
-10.39
-13.32
-16.26
-19.50
-23.26
-27.64
-32.61
-37.94
-43.11
-47.30
-49.58
-49.18
-45.79
-39.71
-31.77
-23.05
-14.51
-6.77
-0.08
5.55
10.16
13.76
16.30
17.78
18.38
18.46
18.46
18.80
19.69
21.09
22.78
24.47
25.91
26.99
27.68
27.97
27.86
27.32
26.31
24.88
23.11
21.16
19.14
17.10
14.97
12.56
9.73
6.43
2.78
-0.96
-4.57
-7.92
-11.12
-14.44
-18.19
-22.62
-27.71
-33.18
-38.46
-42.75
-45.21
-45.16
-42.30
-36.83
-29.47
-21.23
-13.11
-5.87
0.14
4.92
8.68
11.60
13.80
15.32
16.21
16.63
16.79
17.03
17.62
18.77
20.48
22.61
24.86
26.87
28.36
29.20
29.40
29.16
28.62
27.85
26.76
25.15
22.78
19.56
15.56
11.03
6.32
1.78
-2.35
-6.01
-9.36
-12.79
-16.77
-21.76
-27.98
-35.26
-42.98
-50.15
-55.56
-58.11
-57.09
-52.43
-44.71
-35.05
-24.77
-15.06
-6.67
0.11
5.41
9.53
12.70
15.06
16.61
17.39
17.52
17.25
16.89
16.70
16.84
17.35
18.19
19.26
20.45
21.62
22.58
23.18
23.23
22.63
21.36
19.47
17.05
14.21
10.99
7.46
3.67
-0.32
-4.45
-8.61
-12.73
-16.72
-20.50
-24.07
-27.52
-31.11
-35.15
-39.82
-45.02
-50.16
-54.23
-56.15
-55.09
-50.78
-43.57
-34.30
-23.99
-13.55
-3.69
5.15
12.70
18.85
23.62
27.19
29.80
31.75
33.27
34.52
35.61
36.61
37.61
38.72
40.03
41.60
43.37
45.20
46.86
48.08
48.64
48.47
47.59
46.12
44.14
41.67
38.62
34.89
30.43
25.30
19.73
14.02
8.48
3.34
-1.27
-5.37
-9.07
-12.64
-16.50
-21.12
-26.91
-33.96
-41.84
-49.57
-55.76
-59.09
-58.76
-54.87
-48.35
-40.63
-32.99
-26.24
-20.50
-15.53
-11.03
-6.96
-3.58
-1.19
0.14
0.67
0.96
1.62
3.03
5.23
7.97
10.89
13.65
16.09
18.13
19.73
20.81
21.24
20.89
19.70
17.74
15.14
12.10
8.74
5.12
1.23
-2.92
-7.28
-11.73
-16.11
-20.29
-24.25
-28.04
-31.85
-35.93
-40.51
-45.74
-51.43
-57.03
-61.61
-64.03
-63.34
-59.09
-51.56
-41.69
-30.72
-19.85
-9.84
-1.01
6.64
13.17
18.54
22.58
25.19
26.44
26.70
26.46
26.24
26.36
26.93
27.90
29.16
30.59
32.12
33.66
35.08
36.17
36.75
36.67
35.92
34.58
32.81
30.75
28.46
25.83
22.74
19.09
14.96
10.58
6.29
2.30
-1.38
-5.00
-8.95
-13.63
-19.25
-25.85
-33.16
-40.75
-47.88
-53.67
-57.13
-57.51
-54.51
-48.49
-40.36
-31.35
-22.55
-14.64
-7.79
-1.85
3.44
8.17
12.24
15.45
17.67
18.93
19.50
19.76
20.05
20.56
21.35
22.38
23.60
25.01
26.61
28.30
29.87
30.96
31.19
30.31
28.29
25.38
22.00
18.56
15.31
12.25
9.20
5.92
2.23
-1.86
-6.21
-10.52
-14.52
-18.03
-21.06
-23.82
-26.68
-30.07
-34.30
-39.36
-44.83
-49.88
-53.47
-54.55
-52.41
-46.88
-38.41
-27.98
-16.86
-6.26
2.92
10.33
16.07
20.52
24.09
27.02
29.37
31.07
32.12
32.62
32.80
32.91
33.17
33.66
34.41
35.37
36.44
37.51
38.47
39.20
39.60
39.63
39.27
38.48
37.28
35.67
33.72
31.53
29.15
26.55
23.62
20.22
16.29
11.88
7.19
2.43
-2.25
-6.86
-11.59
-16.69
-22.42
-28.81
-35.59
-42.10
-47.40
-50.52
-50.76
-47.97
-42.65
-35.74
-28.33
-21.28
-15.05
-9.72
-5.18
-1.38
1.58
3.48
4.23
4.00
3.26
2.62
2.61
3.47
5.09
7.14
9.20
10.98
12.36
13.33
13.98
14.37
14.50
14.26
13.52
12.10
9.90
6.96
3.44
-0.34
-4.11
-7.66
-11.01
-14.25
-17.57
-21.13
-25.05
-29.38
-34.06
-38.89
-43.37
-46.74
-48.09
-46.67
-42.18
-34.97
-25.95
-16.30
-7.16
0.76
7.17
12.15
15.92
18.67
20.51
21.49
21.68
21.23
20.41
19.56
19.01
19.04
19.74
21.06
22.72
24.36
25.60
26.20
26.07
25.26
23.90
22.11
19.97
17.48
14.63
11.38
7.77
3.83
-0.31
-4.54
-8.73
-12.82
-16.82
-20.84
-25.06
-29.67
-34.80
-40.38
-46.05
-51.18
-54.87
-56.23
-54.59
-49.77
-42.14
-32.58
-22.23
-12.18
-3.23
4.20
10.07
14.57
17.94
20.37
21.98
22.89
23.20
23.09
22.80
22.61
22.72
23.23
24.15
25.35
26.68
27.99
29.09
29.82
29.98
29.45
28.15
26.15
23.59
20.65
17.44
13.95
10.14
5.94
1.39
-3.36
-8.05
-12.44
-16.33
-19.74
-22.84
-26.00
-29.64
-34.05
-39.12
-44.28
-48.47
-50.47
-49.25
-44.45
-36.53
-26.62
-16.14
-6.39
1.88
8.42
13.40
17.13
19.89
21.87
23.19
24.00
24.48
24.75
24.84
24.67
24.15
23.28
22.24
21.31
20.79
20.77
21.09
21.37
21.17
20.24
18.55
16.33
13.88
11.45
9.05
6.56
3.76
0.52
-3.14
-7.03
-10.89
-14.46
-17.59
-20.33
-22.88
-25.61
-28.94
-33.20
-38.44
-44.36
-50.19
-54.85
-57.23
-56.44
-52.15
-44.67
-34.93
-24.16
-13.61
-4.20
3.58
9.71
14.41
17.99
20.65
22.42
23.29
23.34
22.81
22.14
21.75
21.96
22.79
24.07
25.43
26.54
27.20
27.39
27.16
26.60
25.72
24.45
22.70
20.40
17.56
14.25
10.59
6.70
2.69
-1.34
-5.28
-9.02
-12.51
-15.78
-19.04
-22.60
-26.80
-31.81
-37.48
-43.28
-48.27
-51.33
-51.51
-48.28
-41.78
-32.79
-22.46
-11.99
-2.33
6.00
12.92
18.53
22.99
26.34
28.48
29.35
29.01
27.75
26.04
24.46
23.49
23.34
23.93
24.96
25.98
26.65
26.78
26.41
25.67
24.71
23.55
22.11
20.21
17.71
14.62
11.06
7.28
3.54
0.01
-3.30
-6.50
-9.80
-13.39
-17.40
-21.82
-26.56
-31.40
-35.94
-39.54
-41.40
-40.78
-37.25
-30.95
-22.60
-13.29
-4.03
4.51
12.15
18.98
25.03
30.06
33.58
35.11
34.48
32.01
28.44
24.62
21.26
18.69
16.93
15.81
15.15
14.83
14.75
14.79
14.71
14.20
12.98
10.96
8.27
5.17
1.97
-1.20
-4.35
-7.67
-11.28
-15.17
-19.16
-23.01
-26.57
-29.86
-33.07
-36.49
-40.43
-45.11
-50.55
-56.45
-62.13
-66.58
-68.61
-67.22
-62.03
-53.43
-42.57
-30.94
-19.91
-10.34
-2.50
3.82
8.95
13.14
16.45
18.83
20.25
20.78
20.64
20.08
19.42
18.90
18.76
19.10
19.93
21.08
22.29
23.20
23.50
22.96
21.49
19.14
16.03
12.38
8.39
4.24
0.01
-4.28
-8.65
-13.12
-17.66
-22.18
-26.56
-30.68
-34.51
-38.13
-41.75
-45.67
-50.23
-55.59
-61.59
-67.61
-72.58
-75.23
-74.45
-69.67
-61.06
-49.50
-36.26
-22.62
-9.59
2.21
12.48
21.13
28.11
33.45
37.25
39.82
41.57
42.93
44.25
45.73
47.34
48.94
50.40
51.61
52.59
53.42
54.13
54.67
54.86
54.44
53.19
51.02
48.00
44.34
40.34
36.26
32.25
28.34
24.43
20.33
15.82
10.83
5.49
0.11
-4.90
-9.26
-12.99
-16.47
-20.36
-25.29
-31.56
-38.92
-46.55
-53.17
-57.43
-58.24
-55.11
-48.27
-38.56
-27.22
-15.49
-4.38
5.49
13.81
20.48
25.47
28.78
30.55
31.07
30.75
30.09
29.52
29.30
29.53
30.19
31.18
32.37
33.64
34.80
35.67
36.03
35.71
34.60
32.65
29.92
26.59
22.87
19.04
15.28
11.64
8.05
4.44
0.75
-2.94
-6.51
-9.88
-13.10
-16.38
-20.08
-24.52
-29.84
-35.90
-42.16
-47.73
-51.50
-52.46
-49.99
-44.11
-35.50
-25.31
-14.83
-5.08
3.31
10.12
15.37
19.12
21.42
22.33
22.03
20.89
19.42
18.14
17.43
17.40
17.90
18.61
19.20
19.43
19.24
18.71
17.97
17.08
15.99
14.51
12.41
9.48
5.70
1.25
-3.53
-8.21
-12.43
-16.05
-19.14
-21.95
-24.84
-28.17
-32.17
-36.92
-42.23
-47.54
-51.98
-54.50
-54.16
-50.50
-43.69
-34.53
-24.13
-13.62
-3.84
4.75
12.03
18.02
22.75
26.22
28.41
29.41
29.43
28.77
27.85
27.05
26.63
26.68
27.08
27.60
28.00
28.12
27.97
27.64
27.17
26.51
25.44
23.67
20.96
17.24
12.64
7.46
2.08
-3.14
-7.91
-12.10
-15.74
-18.97
-22.10
-25.51
-29.56
-34.50
-40.22
-46.25
-51.69
-55.39
-56.31
-53.83
-47.97
-39.44
-29.38
-19.02
-9.30
-0.69
6.77
13.26
18.89
23.65
27.36
29.82
31.02
31.15
30.61
29.87
29.35
29.26
29.63
30.36
31.28
32.23
33.01
33.44
33.33
32.52
30.98
28.83
26.32
23.66
20.94
18.08
14.84
11.00
6.55
1.71
-3.10
-7.48
-11.20
-14.31
-17.17
-20.32
-24.22
-29.12
-34.82
-40.68
-45.71
-48.81
-49.14
-46.29
-40.48
-32.44
-23.16
-13.66
-4.73
3.13
9.71
14.95
18.91
21.72
23.53
24.51
24.85
24.72
24.29
23.73
23.23
22.96
23.04
23.53
24.33
25.22
25.92
26.19
25.88
25.01
23.73
22.19
20.49
18.65
16.54
14.04
11.06
7.64
3.86
-0.10
-4.11
-8.04
-11.78
-15.30
-18.65
-22.00
-25.65
-29.90
-34.91
-40.45
-45.84
-50.01
-51.81
-50.47
-45.83
-38.49
-29.57
-20.29
-11.60
-4.01
2.43
7.88
12.48
16.18
18.86
20.36
20.74
20.24
19.28
18.30
17.67
17.55
17.94
18.69
19.63
20.60
21.48
22.21
22.69
22.78
22.29
21.01
18.84
15.81
12.12
8.07
3.98
0.04
-3.69
-7.23
-10.70
-14.16
-17.70
-21.41
-25.42
-29.80
-34.45
-38.91
-42.42
-44.01
-42.86
-38.64
-31.71
-22.98
-13.69
-4.96
2.51
8.52
13.23
16.91
19.73
21.65
22.58
22.50
21.60
20.26
18.96
18.08
17.80
18.06
18.65
19.32
19.91
20.34
20.58
20.57
20.16
19.16
17.41
14.80
11.39
7.35
3.01
-1.31
-5.32
-8.89
-12.07
-15.09
-18.31
-22.08
-26.64
-31.92
-37.57
-42.86
-46.82
-48.49
-47.18
-42.73
-35.60
-26.76
-17.35
-8.42
-0.62
5.84
11.05
15.23
18.50
20.90
22.37
22.92
22.65
21.91
21.10
20.60
20.63
21.15
21.94
22.72
23.30
23.64
23.84
24.01
24.09
23.87
23.05
21.39
18.83
15.54
11.79
7.94
4.21
0.78
-2.32
-5.18
-7.94
-10.85
-14.16
-18.05
-22.62
-27.68
-32.77
-37.10
-39.71
-39.74
-36.70
-30.69
-22.41
-13.01
-3.66
4.71
11.66
17.19
21.53
24.89
27.36
28.90
29.52
29.35
28.75
28.15
27.91
28.23
29.06
30.14
31.13
31.74
31.79
31.34
30.55
29.65
28.73
27.74
26.45
24.56
21.83
18.20
13.82
9.04
4.30
-0.00
-3.58
-6.39
-8.60
-10.68
-13.17
-16.64
-21.46
-27.62
-34.67
-41.78
-47.84
-51.77
-52.77
-50.55
-45.42
-38.19
-29.94
-21.69
-14.23
-7.92
-2.84
1.16
4.21
6.43
7.82
8.41
8.30
7.72
7.01
6.52
6.55
7.17
8.28
9.60
10.82
11.72
12.21
12.33
12.17
11.73
10.88
9.48
7.40
4.70
1.59
-1.59
-4.56
-7.14
-9.37
-11.42
-13.57
-16.02
-18.93
-22.39
-26.41
-30.91
-35.70
-40.33
-44.16
-46.35
-46.13
-43.05
-37.17
-29.11
-19.95
-10.82
-2.65
4.08
9.31
13.22
16.02
17.82
18.61
18.41
17.42
16.01
14.65
13.73
13.40
13.60
14.07
14.51
14.72
14.64
14.34
13.92
13.46
12.96
12.26
11.14
9.39
6.89
3.71
0.09
-3.65
-7.21
-10.46
-13.44
-16.35
-19.42
-22.84
-26.69
-30.87
-35.11
-38.90
-41.56
-42.40
-40.86
-36.76
-30.38
-22.42
-13.84
-5.57
1.70
7.57
11.95
14.90
16.56
17.07
16.64
15.50
13.96
12.37
11.07
10.26
10.03
10.28
10.82
11.42
11.90
12.19
12.28
12.19
11.84
11.12
9.83
7.82
5.07
1.74
-1.88
-5.47
-8.78
-11.79
-14.69
-17.87
-21.72
-26.44
-31.77
-36.94
-40.78
-42.10
-40.13
-34.81
-26.80
-17.29
-7.54
1.50
9.30
15.71
20.74
24.36
26.55
27.31
26.85
25.60
24.11
22.91
22.32
22.42
23.07
24.01
24.98
25.81
26.38
26.65
26.54
25.96
24.75
22.80
20.07
16.61
12.63
8.37
4.05
-0.17
-4.22
-8.15
-12.08
-16.22
-20.83
-26.08
-31.93
-38.02
-43.66
-47.94
-50.02
-49.40
-46.11
-40.71
-34.02
-26.90
-19.95
-13.45
-7.48
-2.05
2.70
6.52
9.16
10.52
10.73
10.20
9.42
8.87
8.82
9.33
10.30
11.53
12.81
13.94
14.79
15.27
15.31
14.89
13.97
12.50
10.44
7.72
4.37
0.52
-3.60
-7.71
-11.59
-15.16
-18.53
-21.94
-25.67
-29.93
-34.79
-40.06
-45.24
-49.58
-52.15
-52.12
-49.02
-42.97
-34.61
-24.98
-15.14
-5.92
2.27
9.33
15.32
20.29
24.21
27.04
28.78
29.58
29.68
29.36
28.84
28.31
27.89
27.67
27.68
27.92
28.27
28.53
28.49
27.96
26.82
25.12
22.93
20.34
17.41
14.12
10.49
6.58
2.59
-1.24
-4.66
-7.56
-10.06
-12.42
-14.97
-17.99
-21.63
-25.94
-30.90
-36.37
-42.01
-47.12
-50.74
-51.84
-49.64
-44.00
-35.46
-25.13
-14.31
-4.13
4.69
11.87
17.46
21.62
24.57
26.48
27.51
27.81
27.59
27.05
26.44
25.93
25.65
25.60
25.76
26.02
26.29
26.46
26.43
26.10
25.35
24.13
22.41
20.21
17.54
14.43
10.90
6.99
2.83
-1.38
-5.37
-8.93
-11.98
-14.61
-17.04
-19.57
-22.47
-25.96
-30.13
-34.93
-40.02
-44.78
-48.31
-49.65
-48.07
-43.36
-35.93
-26.76
-16.98
-7.63
0.64
7.59
13.20
17.55
20.67
22.55
23.24
22.92
21.96
20.81
19.93
19.59
19.82
20.39
20.98
21.30
21.23
20.89
20.49
20.18
19.90
19.38
18.26
16.24
13.25
9.50
5.36
1.31
-2.31
-5.34
-7.83
-10.03
-12.24
-14.78
-17.93
-21.85
-26.50
-31.53
-36.26
-39.77
-41.08
-39.48
-34.78
-27.43
-18.37
-8.77
0.35
8.31
14.85
19.97
23.80
26.40
27.83
28.14
27.54
26.40
25.18
24.35
24.17
24.64
25.50
26.40
27.06
27.35
27.29
26.95
26.38
25.51
24.27
22.57
20.43
17.87
14.93
11.62
7.98
4.11
0.24
-3.41
-6.72
-9.78
-12.91
-16.55
-21.05
-26.54
-32.69
-38.78
-43.69
-46.21
-45.39
-40.91
-33.35
-24.07
-14.74
-6.89
-1.30
2.03
3.72
4.58
5.27
6.08
6.99
7.89
8.65
9.25
9.72
10.06
10.34
10.58
10.87
11.32
12.02
12.98
14.13
15.28
16.18
16.56
16.26
15.21
13.53
11.42
9.05
6.53
3.88
1.04
-2.03
-5.33
-8.77
-12.28
-15.78
-19.28
-22.80
-26.42
-30.24
-34.37
-38.88
-43.73
-48.60
-52.84
-55.51
-55.61
-52.49
-46.14
-37.26
-27.07
-16.90
-7.70
0.14
6.76
12.49
17.58
22.01
25.51
27.86
28.99
29.15
28.80
28.38
28.17
28.22
28.42
28.60
28.71
28.78
28.90
29.10
29.22
28.98
28.07
26.27
23.61
20.36
16.88
13.52
10.42
7.51
4.56
1.38
-2.09
-5.76
-9.34
-12.62
-15.47
-17.99
-20.46
-23.28
-26.81
-31.20
-36.24
-41.29
-45.42
-47.61
-47.07
-43.49
-37.16
-28.88
-19.66
-10.50
-2.09
5.20
11.26
16.12
19.84
22.49
24.13
24.91
25.03
24.76
24.37
24.03
23.84
23.80
23.86
23.98
24.16
24.43
24.80
25.23
25.58
25.64
25.18
24.03
22.13
19.56
16.57
13.46
10.46
7.69
5.05
2.32
-0.73
-4.14
-7.75
-11.22
-14.23
-16.69
-18.80
-21.02
-23.85
-27.61
-32.26
-37.31
-41.92
-45.09
-45.90
-43.80
-38.80
-31.48
-22.82
-13.91
-5.63
1.50
7.37
12.06
15.70
18.33
19.93
20.53
20.27
19.45
18.45
17.63
17.20
17.23
17.69
18.41
19.22
19.90
20.26
20.19
19.64
18.64
17.28
15.62
13.68
11.41
8.77
5.75
2.45
-0.91
-4.10
-6.96
-9.48
-11.83
-14.21
-16.87
-19.95
-23.52
-27.44
-31.42
-34.95
-37.35
-37.99
-36.39
-32.46
-26.54
-19.30
-11.56
-4.05
2.72
8.49
13.13
16.61
18.86
19.85
19.64
18.45
16.69
14.89
13.50
12.82
12.85
13.35
13.99
14.46
14.63
14.53
14.25
13.81
13.09
11.88
9.97
7.31
4.04
0.45
-3.14
-6.54
-9.68
-12.69
-15.75
-19.06
-22.78
-26.96
-31.50
-36.05
-40.05
-42.71
-43.25
-41.14
-36.35
-29.40
-21.19
-12.74
-4.86
1.98
7.63
12.20
15.79
18.51
20.43
21.60
22.11
22.10
21.70
21.06
20.30
19.55
18.93
18.48
18.22
18.10
18.04
17.93
17.70
17.28
16.61
15.66
14.31
12.42
9.87
6.57
2.63
-1.67
-5.93
-9.78
-13.06
-15.86
-18.53
-21.55
-25.29
-29.88
-35.03
-40.06
-44.00
-45.85
-44.90
-40.93
-34.36
-26.07
-17.11
-8.43
-0.59
6.19
11.98
16.91
21.05
24.36
26.74
28.11
28.46
27.92
26.75
25.41
24.46
24.49
25.83
28.40
31.63
34.57
36.26
36.01
33.69
29.62
24.34
18.33
11.88
5.10
-1.82
-8.51
-14.49
-19.35
-22.99
-25.70
-28.04
-30.58
-33.71
-37.50
-41.83
-46.48
-51.14
-55.34
-58.46
-59.70
-58.34
-53.99
-46.78
-37.41
-26.98
-16.61
-7.23
0.67
7.00
11.98
15.92
19.04
21.46
23.18
24.18
24.55
24.48
24.25
24.09
24.09
24.15
24.13
23.90
23.48
22.94
22.37
21.72
20.85
19.56
17.75
15.42
12.63
9.47
5.95
2.13
-1.96
-6.18
-10.35
-14.31
-17.99
-21.40
-24.68
-28.02
-31.62
-35.63
-40.06
-44.58
-48.50
-50.84
-50.62
-47.21
-40.61
-31.55
-21.26
-11.09
-2.10
5.19
10.82
15.13
18.50
21.15
23.02
23.99
24.00
23.26
22.20
21.34
21.02
21.28
21.88
22.43
22.62
22.37
21.77
21.01
20.25
19.46
18.53
17.23
15.39
12.94
9.97
6.67
3.28
0.05
-2.90
-5.61
-8.24
-11.03
-14.26
-18.12
-22.69
-27.86
-33.28
-38.28
-42.00
-43.54
-42.23
-37.90
-30.94
-22.29
-13.09
-4.37
3.19
9.37
14.26
18.04
20.80
22.46
22.93
22.22
20.57
18.47
16.52
15.24
14.84
15.24
16.15
17.16
17.99
18.44
18.51
18.23
17.63
16.66
15.19
13.08
10.28
6.88
3.19
-0.46
-3.78
-6.67
-9.27
-11.94
-15.02
-18.81
-23.35
-28.44
-33.58
-38.15
-41.36
-42.51
-41.08
-36.95
-30.46
-22.39
-13.70
-5.34
2.04
8.20
13.17
17.07
19.95
21.74
22.31
21.68
20.09
18.04
16.15
14.90
14.48
14.82
15.58
16.41
17.04
17.33
17.27
16.89
16.21
15.14
13.56
11.32
8.39
4.85
0.92
-3.13
-7.04
-10.64
-13.92
-17.02
-20.14
-23.54
-27.44
-31.94
-36.96
-42.17
-46.91
-50.33
-51.49
-49.71
-44.79
-37.13
-27.66
-17.55
-7.85
0.75
8.00
13.96
18.77
22.49
25.11
26.58
27.01
26.70
26.05
25.43
25.10
25.12
25.46
26.02
26.70
27.35
27.79
27.80
27.23
26.03
24.28
22.13
19.70
17.00
13.98
10.57
6.77
2.70
-1.49
-5.67
-9.77
-13.85
-17.97
-22.15
-26.41
-30.75
-35.22
-39.91
-44.79
-49.49
-53.31
-55.28
-54.50
-50.52
-43.52
-34.31
-24.06
-13.91
-4.65
3.38
10.18
15.90
20.60
24.25
26.77
28.12
28.45
28.06
27.37
26.80
26.65
27.00
27.73
28.61
29.41
29.98
30.26
30.24
29.89
29.09
27.70
25.63
22.96
19.91
16.79
13.81
10.99
8.09
4.81
0.97
-3.36
-7.87
-12.16
-15.94
-19.23
-22.31
-25.63
-29.63
-34.52
-40.24
-46.35
-52.05
-56.34
-58.16
-56.71
-51.74
-43.67
-33.47
-22.44
-11.78
-2.33
5.56
11.89
16.87
20.72
23.61
25.63
26.85
27.43
27.58
27.59
27.70
28.06
28.68
29.48
30.32
31.11
31.77
32.27
32.48
32.25
31.36
29.69
27.28
24.30
21.08
17.86
14.80
11.86
8.87
5.64
2.04
-1.88
-5.94
-9.90
-13.57
-16.91
-20.03
-23.15
-26.58
-30.55
-35.19
-40.39
-45.74
-50.41
-53.39
-53.70
-50.74
-44.61
-36.02
-26.15
-16.17
-6.93
1.12
7.93
13.57
18.11
21.57
23.93
25.23
25.65
25.48
25.06
24.72
24.70
25.12
25.94
27.00
28.11
29.12
29.88
30.31
30.27
29.63
28.29
26.21
23.51
20.42
17.20
14.02
10.93
7.87
4.72
1.38
-2.17
-5.85
-9.53
-13.08
-16.49
-19.84
-23.34
-27.27
-31.79
-36.86
-42.05
-46.59
-49.48
-49.77
-46.89
-40.87
-32.35
-22.41
-12.29
-3.01
4.82
11.00
15.67
19.08
21.44
22.90
23.58
23.61
23.21
22.63
22.16
22.04
22.40
23.25
24.47
25.83
27.05
27.86
28.07
27.64
26.63
25.15
23.34
21.26
18.91
16.25
13.28
10.02
6.56
2.97
-0.68
-4.30
-7.84
-11.25
-14.53
-17.80
-21.27
-25.18
-29.71
-34.74
-39.77
-43.98
-46.33
-45.99
-42.55
-36.27
-27.92
-18.61
-9.40
-1.07
6.02
11.79
16.30
19.59
21.68
22.67
22.77
22.35
21.85
21.54
21.56
21.85
22.24
22.66
23.09
23.60
24.19
24.75
25.04
24.80
23.89
22.35
20.35
18.14
15.81
13.30
10.42
7.01
3.04
-1.25
-5.57
-9.57
-13.08
-16.12
-18.84
-21.47
-24.23
-27.38
-31.12
-35.58
-40.59
-45.62
-49.72
-51.79
-50.94
-46.82
-39.79
-30.84
-21.21
-11.99
-3.86
2.94
8.52
13.07
16.75
19.57
21.50
22.52
22.73
22.36
21.71
21.11
20.85
21.12
21.98
23.33
24.94
26.47
27.61
28.09
27.77
26.60
24.67
22.09
19.06
15.79
12.48
9.30
6.28
3.39
0.49
-2.52
-5.66
-8.85
-11.97
-14.93
-17.78
-20.70
-23.94
-27.71
-32.08
-36.78
-41.27
-44.72
-46.23
-45.06
-40.86
-33.87
-24.83
-14.79
-4.83
4.22
11.86
17.95
22.54
25.84
28.05
29.35
29.89
29.80
29.23
28.45
27.82
27.77
28.62
30.43
32.92
35.48
37.43
38.17
37.37
35.00
31.26
26.47
21.03
15.36
9.85
4.80
0.37
-3.50
-6.98
-10.34
-13.78
-17.34
-20.92
-24.33
-27.39
-30.01
-32.23
-34.30
-36.55
-39.39
-43.13
-47.79
-52.94
-57.64
-60.70
-60.93
-57.64
-50.88
-41.45
-30.66
-19.82
-9.96
-1.56
5.29
10.70
14.81
17.71
19.48
20.34
20.61
20.66
20.79
21.12
21.64
22.26
22.91
23.62
24.45
25.38
26.28
26.91
27.04
26.50
25.27
23.45
21.21
18.72
16.09
13.36
10.51
7.44
4.09
0.43
-3.43
-7.29
-10.90
-14.10
-16.95
-19.65
-22.58
-26.10
-30.43
-35.50
-40.94
-46.03
-49.81
-51.31
-49.81
-45.13
-37.67
-28.38
-18.39
-8.72
-0.05
7.33
13.34
17.98
21.26
23.21
23.97
23.84
23.24
22.59
22.19
22.19
22.61
23.37
24.33
25.37
26.29
26.92
27.11
26.83
26.11
25.06
23.70
22.02
19.93
17.29
14.05
10.26
6.11
1.86
-2.23
-5.99
-9.41
-12.61
-15.81
-19.26
-23.20
-27.71
-32.67
-37.64
-41.90
-44.58
-44.88
-42.33
-36.97
-29.34
-20.37
-11.06
-2.27
5.44
11.80
16.73
20.23
22.35
23.16
22.81
21.58
19.82
17.96
16.45
15.66
15.74
16.61
17.94
19.29
20.27
20.66
20.49
19.93
19.14
18.19
16.96
15.21
12.73
9.46
5.54
1.25
-3.08
-7.22
-11.09
-14.76
-18.44
-22.37
-26.77
-31.70
-37.02
-42.31
-46.87
-49.83
-50.38
-47.97
-42.50
-34.43
-24.68
-14.35
-4.54
3.99
10.76
15.69
18.95
20.85
21.71
21.86
21.61
21.19
20.83
20.68
20.81
21.17
21.65
22.10
22.42
22.58
22.58
22.48
22.25
21.81
21.00
19.64
17.62
14.94
11.66
7.93
3.92
-0.20
-4.26
-8.14
-11.81
-15.37
-19.00
-22.96
-27.45
-32.57
-38.23
-44.09
-49.59
-53.96
-56.29
-55.81
-52.09
-45.27
-36.07
-25.65
-15.26
-5.87
1.99
8.30
13.32
17.37
20.61
23.05
24.58
25.16
24.93
24.19
23.39
22.90
22.95
23.53
24.44
25.40
26.11
26.40
26.19
25.50
24.41
22.99
21.25
19.16
16.68
13.76
10.40
6.64
2.58
-1.71
-6.11
-10.50
-14.77
-18.82
-22.60
-26.24
-30.04
-34.40
-39.63
-45.66
-51.84
-57.03
-59.85
-59.21
-54.67
-46.68
-36.36
-25.19
-14.43
-4.91
3.13
9.79
15.30
19.80
23.26
25.63
26.90
27.28
27.11
26.80
26.68
26.91
27.51
28.37
29.35
30.32
31.12
31.64
31.70
31.20
30.04
28.23
25.82
22.95
19.77
16.40
12.88
9.21
5.36
1.31
-2.89
-7.12
-11.26
-15.25
-19.08
-22.93
-27.03
-31.67
-37.02
-42.99
-49.05
-54.24
-57.39
-57.51
-54.05
-47.21
-37.86
-27.21
-16.44
-6.42
2.41
9.90
16.04
20.86
24.35
26.56
27.62
27.78
27.33
26.61
25.95
25.60
25.71
26.29
27.25
28.38
29.42
30.16
30.43
30.16
29.30
27.86
25.85
23.34
20.38
17.07
13.50
9.76
5.92
2.03
-1.89
-5.83
-9.77
-13.71
-17.69
-21.76
-26.06
-30.73
-35.87
-41.36
-46.73
-51.18
-53.66
-53.25
-49.45
-42.46
-33.13
-22.68
-12.32
-2.95
5.01
11.55
16.76
20.74
23.46
24.89
25.13
24.51
23.54
22.73
22.44
22.75
23.51
24.49
25.47
26.35
27.11
27.73
28.12
28.18
27.77
26.84
25.33
23.18
20.32
16.67
12.30
7.44
2.50
-2.07
-5.96
-9.18
-12.04
-15.04
-18.72
-23.38
-28.98
-35.04
-40.73
-45.05
-47.00
-45.90
-41.53
-34.28
-24.98
-14.75
-4.72
4.26
11.75
17.66
22.18
25.55
27.97
29.54
30.33
30.43
30.02
29.43
28.96
28.89
29.31
30.14
31.20
32.25
33.09
33.58
33.61
33.13
32.09
30.51
28.41
25.88
23.04
20.00
16.86
13.66
10.41
7.11
3.75
0.36
-2.99
-6.28
-9.54
-12.88
-16.53
-20.67
-25.36
-30.41
-35.27
-39.12
-41.10
-40.55
-37.25
-31.49
-23.99
-15.61
-7.08
1.15
8.78
15.61
21.34
25.60
28.05
28.56
27.30
24.67
21.21
17.40
13.60
10.10
7.15
5.01
3.86
3.78
4.61
6.01
7.47
8.50
8.76
8.14
6.80
5.06
3.25
1.61
0.19
-1.15
-2.65
-4.57
-7.07
-10.13
-13.58
-17.13
-20.51
-23.55
-26.30
-29.01
-32.00
-35.60
-39.95
-44.86
-49.78
-53.86
-56.11
-55.71
-52.23
-45.80
-37.07
-27.01
-16.68
-6.90
1.83
9.34
15.66
20.83
24.87
27.71
29.38
30.01
29.91
29.47
29.07
28.94
29.11
29.47
29.86
30.18
30.43
30.64
30.80
30.75
30.25
29.05
27.03
24.26
21.01
17.61
14.37
11.41
8.67
5.95
3.02
-0.20
-3.65
-7.14
-10.45
-13.44
-16.13
-18.69
-21.40
-24.50
-28.23
-32.63
-37.56
-42.61
-47.07
-50.01
-50.54
-48.03
-42.40
-34.20
-24.45
-14.33
-4.83
3.49
10.42
16.03
20.42
23.63
25.64
26.48
26.34
25.58
24.63
23.83
23.42
23.46
23.88
24.60
25.51
26.48
27.39
28.12
28.51
28.43
27.83
26.70
25.16
23.38
21.49
19.56
17.53
15.27
12.66
9.66
6.36
3.00
-0.13
-2.82
-4.98
-6.70
-8.28
-10.09
-12.47
-15.58
-19.23
-22.90
-25.81
-27.10
-26.12
-22.59
-16.67
-8.88
0.04
9.35
18.44
26.84
34.24
40.38
44.90
47.40
47.50
45.01
40.14
33.58
26.39
19.76
14.67
11.63
10.56
10.93
11.98
12.98
13.38
12.89
11.40
8.95
5.65
1.66
-2.81
-7.55
-12.37
-17.10
-21.68
-26.02
-30.06
-33.74
-36.99
-39.78
-42.20
-44.45
-46.83
-49.67
-53.20
-57.41
-61.91
-65.94
-68.47
-68.46
-65.22
-58.71
-49.61
-39.14
-28.72
-19.46
-11.92
-6.08
-1.55
2.07
5.00
7.17
8.45
8.83
8.54
8.02
7.73
7.99
8.81
9.94
11.08
11.98
12.58
13.01
13.42
13.90
14.32
14.43
13.93
12.62
10.52
7.81
4.77
1.70
-1.22
-3.90
-6.37
-8.73
-11.17
-13.92
-17.18
-21.07
-25.51
-30.17
-34.46
-37.64
-38.98
-37.92
-34.30
-28.36
-20.78
-12.44
-4.24
3.12
9.28
14.17
17.89
20.58
22.32
23.14
23.16
22.59
21.74
20.96
20.46
20.31
20.40
20.56
20.66
20.64
20.53
20.34
20.06
19.64
18.98
18.00
16.60
14.74
12.40
9.61
6.44
3.04
-0.43
-3.84
-7.09
-10.19
-13.16
-16.11
-19.16
-22.48
-26.22
-30.46
-35.04
-39.48
-42.98
-44.61
-43.60
-39.59
-32.87
-24.30
-15.04
-6.23
1.32
7.28
11.73
14.95
17.22
18.76
19.68
20.12
20.23
20.20
20.20
20.29
20.47
20.66
20.84
21.02
21.26
21.56
21.83
21.85
21.42
20.42
18.91
17.05
15.03
12.91
10.59
7.88
4.62
0.82
-3.31
-7.45
-11.30
-14.69
-17.68
-20.52
-23.56
-27.13
-31.41
-36.33
-41.49
-46.14
-49.36
-50.26
-48.33
-43.57
-36.53
-28.14
-19.43
-11.28
-4.25
1.44
5.83
9.10
11.49
13.13
14.08
14.24
13.52
11.97
10.00
8.43
8.28
10.26
14.27
19.17
23.00
23.75
20.14
12.00
-0.03
-15.32
-33.92
-56.55
-84.07
-116.61
-153.14
-191.75
-230.46
-267.95
-303.57
-336.58
-365.19
-386.23
-395.92
-391.34
-371.93
-339.98
-299.79
-255.97
-211.84
-168.70
-126.33
-84.21
-42.71
-3.62
30.49
57.40
76.41
88.67
96.66
103.00
109.38
116.08
122.25
126.82
129.32
130.31
131.03
132.73
135.92
140.16
144.27
147.00
147.61
146.21
143.56
140.69
138.42
137.06
136.46
136.19
135.75
134.73
132.73
129.38
124.42
117.82
109.91
101.24
92.46
84.06
76.34
69.56
64.15
60.67
59.48
60.32
61.98
62.40
59.44
51.77
39.60
24.78
10.17
-1.48
-8.57
-11.05
-10.18
-7.73
-5.15
-3.13
-1.69
-0.55
0.49
1.40
2.17
3.00
4.39
6.83
10.40
14.53
18.12
19.98
19.37
16.36
11.69
6.48
1.69
-2.22
-5.42
-8.48
-12.14
-16.88
-22.71
-29.06
-34.96
-39.28
-41.05
-39.68
-35.11
-27.73
-18.24
-7.56
3.35
13.52
22.20
28.93
33.58
36.41
37.82
38.25
38.05
37.49
36.82
36.42
36.70
38.01
40.38
43.49
46.72
49.40
51.01
51.31
50.35
48.31
45.40
41.80
37.69
33.29
28.89
24.72
20.90
17.30
13.57
9.26
4.01
-2.20
-8.92
-15.24
-20.03
-22.28
-21.46
-17.74
-11.96
-5.43
0.44
4.50
6.09
5.16
2.23
-1.81
-5.90
-9.01
-10.42
-9.79
-7.31
-3.65
0.24
3.40
5.22
5.63
5.08
4.34
4.08
4.62
