1555704233.00
64.000000
-0.00
-0.00
-0.00
-0.00
-0.00
-0.00
-0.00
-0.00
-0.00
-0.00
0.00
0.01
0.01
-0.00
-0.03
-0.05
-0.05
0.00
0.13
0.36
0.66
1.01
1.37
1.72
2.06
2.40
2.79
3.24
3.80
4.42
5.06
5.66
6.20
6.68
7.15
7.68
8.31
9.14
10.09
11.04
11.88
12.56
13.14
13.76
14.65
15.96
17.91
20.32
22.90
25.38
27.58
29.57
31.68
34.32
37.81
42.54
48.15
54.10
59.83
64.97
69.58
74.14
79.34
85.71
93.76
103.00
112.62
121.73
129.77
136.75
143.30
150.75
157.77
166.64
177.95
191.79
206.97
220.57
228.25
225.36
208.53
176.87
132.76
80.05
23.07
-34.94
-92.44
-149.16
-205.23
-260.37
-313.74
-363.87
-409.83
-450.91
-486.50
-515.74
-537.23
-549.22
-549.96
-538.37
-514.21
-478.67
-433.88
-382.45
-327.02
-269.84
-212.63
-156.66
-102.95
-52.37
-5.90
35.58
71.43
101.35
125.50
144.38
158.69
169.15
176.37
180.75
182.57
182.07
179.51
175.23
169.65
163.18
156.15
148.81
141.30
133.69
126.02
118.33
110.69
103.16
95.80
88.68
81.83
75.25
68.95
62.95
57.25
51.86
46.78
42.03
37.59
33.45
29.61
26.07
22.81
19.83
17.11
14.67
12.48
10.54
8.83
7.35
6.07
4.97
4.05
3.27
2.62
2.09
1.65
1.30
1.01
0.79
0.61
0.47
0.37
0.28
0.22
0.18
0.14
0.12
0.11
0.10
0.10
0.11
0.13
0.15
0.17
0.20
0.23
0.26
0.30
0.34
0.38
0.42
0.47
0.51
0.55
0.60
0.67
0.75
0.84
0.93
0.99
1.02
1.01
0.99
0.97
0.98
1.06
1.19
1.35
1.53
1.70
1.86
2.02
2.20
2.45
2.77
3.16
3.60
4.02
4.38
4.68
4.95
5.27
5.70
6.31
7.06
7.85
8.55
9.04
9.30
9.43
9.61
10.05
10.85
11.94
13.09
13.95
14.22
13.74
12.59
10.99
9.21
7.40
5.45
3.04
-0.22
-4.65
-10.22
-16.52
-22.92
-28.81
-33.73
-37.58
-40.50
-42.83
-44.98
-47.52
-51.18
-56.45
-63.09
-69.53
-73.13
-70.99
-61.38
-44.72
-23.49
-1.31
18.46
33.70
43.81
49.13
50.37
48.27
43.63
37.55
31.36
26.27
22.88
20.93
19.45
17.38
14.13
9.77
5.02
0.89
-1.77
-2.55
-1.69
0.05
1.65
2.32
1.66
-0.04
-2.07
-3.46
-3.35
-1.30
2.59
7.57
12.53
16.28
18.10
17.87
16.04
13.33
10.40
7.74
5.57
4.03
3.27
3.13
3.66
4.81
6.34
7.92
9.20
9.95
10.13
9.83
9.16
8.25
7.05
5.48
3.51
1.24
-1.09
-3.33
-5.61
-8.23
-11.52
-15.56
-20.02
-24.31
-27.81
-30.18
-31.50
-32.09
-32.31
-32.38
-32.38
-32.41
-32.65
-33.37
-34.78
-36.91
-39.47
-41.94
-43.79
-44.68
-44.48
-43.32
-41.42
-39.08
-36.60
-34.14
-31.59
-28.56
-24.20
-17.58
-8.15
3.74
16.52
27.71
34.76
35.98
31.25
21.99
10.44
-1.25
-11.60
-19.98
-26.27
-30.42
-32.17
-31.14
-27.07
-20.10
-10.85
-0.34
10.32
20.14
28.44
35.04
40.14
44.14
47.38
49.93
51.63
52.25
51.72
50.33
48.56
46.78
44.95
42.59
38.90
33.26
25.58
16.50
7.22
-0.96
-7.03
-10.54
-11.74
-11.36
-10.40
-9.86
-10.42
-12.13
-14.20
-15.21
-13.60
-8.33
0.68
12.61
26.30
40.81
55.64
70.56
85.14
98.56
109.92
118.74
125.14
129.50
131.69
130.48
123.82
109.84
88.12
60.42
30.24
1.45
-23.19
-43.00
-59.11
-73.37
-87.16
-100.59
-112.56
-121.56
-126.53
-127.49
-125.49
-122.07
-118.41
-114.99
-111.46
-107.37
-102.85
-98.97
-97.44
-99.75
-106.15
-115.15
-123.96
-129.50
-129.75
-124.40
-114.76
-102.84
-90.27
-77.67
-64.89
-51.63
-38.14
-25.41
-14.73
-6.94
-1.97
1.08
3.45
6.05
9.17
12.59
15.90
18.67
20.68
21.71
21.68
20.73
19.30
18.07
17.68
18.36
19.63
20.49
19.83
16.81
11.17
3.25
-6.16
-15.87
-24.17
-29.13
-28.85
-22.26
-9.78
6.48
23.37
37.81
47.97
53.79
56.64
58.45
60.58
63.37
66.25
68.46
69.68
70.28
71.06
72.63
74.97
77.42
79.07
79.32
78.25
76.53
75.02
74.29
74.30
74.48
73.98
72.10
68.64
63.91
58.61
53.60
49.61
46.95
45.51
44.72
43.76
41.81
38.36
33.39
27.36
21.09
15.50
11.40
9.24
9.14
10.89
14.03
18.07
22.47
26.74
30.53
33.58
35.73
36.91
37.13
36.47
35.16
33.45
31.68
30.13
28.90
27.88
26.79
25.28
23.11
20.29
17.11
14.01
11.38
9.35
7.64
5.77
3.31
0.15
-3.33
-6.51
-8.85
-10.24
-11.04
-11.84
-13.13
-14.98
-17.12
-19.20
-21.14
-23.20
-25.76
-29.02
-32.74
-36.32
-38.97
-40.02
-39.11
-36.25
-31.76
-26.21
-20.38
-15.02
-10.66
-7.36
-4.69
-1.94
1.46
5.65
10.20
14.40
17.63
19.66
20.68
21.10
21.36
21.64
21.99
22.29
22.44
22.31
21.79
20.70
18.88
16.29
12.97
9.10
5.00
1.08
-2.26
-4.78
-6.47
-7.58
-8.46
-9.34
-10.17
-10.70
-10.67
-10.11
-9.45
-9.36
-10.50
-13.07
-16.86
-21.27
-25.67
-29.57
-32.65
-34.69
-35.46
-34.70
-32.29
-28.30
-23.15
-17.47
-12.04
-7.48
-4.11
-1.89
-0.47
0.56
1.54
2.59
3.66
4.53
5.04
5.12
4.88
4.63
4.84
5.95
8.20
11.44
15.07
18.16
19.84
19.60
17.54
14.32
10.77
7.54
4.85
2.60
0.52
-1.46
-3.23
-4.61
-5.54
-6.20
-6.94
-8.05
-9.56
-11.30
-13.11
-14.96
-17.07
-19.65
-22.67
-25.71
-28.06
-29.04
-28.30
-25.95
-22.46
-18.39
-14.20
-10.24
-6.67
-3.65
-1.34
0.18
0.98
1.31
1.61
2.33
3.76
5.83
8.11
9.89
10.61
10.06
8.58
6.88
5.77
5.72
6.66
8.06
9.30
9.94
9.96
9.62
9.21
8.80
8.17
7.11
5.49
3.56
1.69
0.17
-0.97
-2.01
-3.27
-4.94
-6.96
-9.12
-11.31
-13.60
-16.03
-18.33
-19.84
-19.61
-17.01
-12.06
-5.64
0.89
6.24
9.62
10.77
9.76
6.85
2.33
-3.28
-9.08
-13.93
-16.79
-17.06
-14.82
-10.80
-5.94
-1.17
2.89
6.01
8.17
9.42
9.80
9.48
8.60
7.43
6.17
4.86
3.39
1.46
-1.22
-4.80
-9.09
-13.74
-18.32
-22.54
-26.28
-29.48
-31.99
-33.44
-33.41
-31.66
-28.32
-23.85
-18.86
-13.92
-9.30
-5.03
-1.03
2.76
6.32
9.50
12.09
13.88
14.75
14.71
14.01
12.98
11.96
11.11
10.32
9.37
8.09
6.60
5.25
4.44
4.34
4.72
5.02
4.62
3.23
0.95
-1.73
-4.18
-5.89
-6.71
-6.84
-6.75
-6.96
-7.78
-9.27
-11.20
-13.19
-14.92
-16.19
-16.93
-17.04
-16.33
-14.55
-11.58
-7.63
-3.24
0.86
3.97
5.77
6.32
5.97
5.19
4.36
3.67
3.20
2.87
2.62
2.46
2.48
2.69
3.05
3.34
3.29
2.76
1.84
0.95
0.52
0.82
1.65
2.43
2.55
1.64
-0.22
-2.63
-5.14
-7.50
-9.73
-12.02
-14.43
-16.77
-18.57
-19.26
-18.40
-15.92
-12.23
-8.01
-3.97
-0.53
2.28
4.64
6.77
8.54
9.55
9.37
7.91
5.59
3.25
1.65
1.16
1.65
2.61
3.53
4.10
4.25
3.99
3.42
2.59
1.62
0.67
-0.08
-0.56
-0.79
-0.87
-0.85
-0.68
-0.32
0.25
0.89
1.43
1.78
1.97
2.05
1.98
1.52
0.35
-1.77
-4.74
-8.16
-11.39
-13.87
-15.21
-15.32
-14.18
-11.86
-8.27
-3.40
2.62
9.43
16.46
23.15
29.10
34.21
38.62
42.59
46.31
49.81
53.01
55.78
58.13
60.20
62.33
64.81
67.75
71.02
74.19
76.81
78.64
79.92
81.40
84.23
89.51
97.87
109.19
122.61
136.99
151.29
164.95
178.09
191.49
206.46
224.58
247.17
274.58
305.50
336.67
363.46
381.15
386.55
379.13
361.08
336.33
308.90
281.65
255.84
231.54
208.58
187.07
167.48
150.21
135.20
121.67
108.50
94.71
79.95
64.63
49.73
36.37
25.23
16.33
8.85
1.52
-6.94
-17.29
-29.42
-42.34
-54.57
-64.76
-72.29
-77.73
-82.68
-89.25
-99.10
-112.74
-129.15
-146.14
-161.33
-173.23
-182.22
-190.46
-201.17
-217.10
-239.19
-265.89
-293.62
-318.39
-337.38
-350.36
-359.58
-368.91
-382.16
-401.90
-429.09
-462.59
-499.05
-532.39
-554.47
-557.33
-536.93
-496.38
-446.59
-403.08
-379.82
-383.10
-408.70
-444.08
-474.21
-488.01
-481.85
-458.82
-424.99
-385.38
-342.13
-295.26
-244.95
-193.20
-143.80
-100.73
-65.91
-38.06
-12.79
15.49
51.46
97.31
151.73
210.53
267.25
314.60
346.14
357.77
348.93
322.72
284.84
241.66
198.16
157.08
119.18
84.67
54.36
30.02
13.50
5.46
4.53
7.69
11.49
13.46
12.90
10.73
8.50
7.36
7.44
7.79
6.95
3.69
-2.48
-10.95
-20.23
-28.42
-33.81
-35.50
-33.61
-29.35
-24.50
-20.85
-19.56
-20.88
-24.13
-28.10
-31.47
-33.33
-33.46
-32.34
-30.94
-30.09
-30.19
-30.82
-31.08
-29.93
-26.73
-21.46
-14.71
-7.18
0.72
9.04
18.18
28.32
39.04
49.24
57.56
63.02
65.43
65.49
64.36
63.09
62.25
61.84
61.59
61.29
60.94
60.65
60.45
60.13
59.29
57.54
54.65
50.74
46.21
41.68
37.69
34.53
32.14
30.13
28.16
26.08
24.25
23.32
23.98
26.54
30.74
35.81
40.74
44.73
47.38
48.67
48.82
48.05
46.49
44.27
41.62
38.96
36.80
35.50
35.16
35.47
35.90
35.90
35.06
33.28
30.73
27.74
24.59
21.47
18.33
14.91
10.88
5.99
0.21
-6.21
-12.89
-19.47
-25.55
-30.72
-34.29
-35.46
-33.52
-28.33
-20.56
-11.55
-2.86
4.35
9.60
13.12
15.40
16.82
17.45
17.14
15.84
13.88
11.85
10.40
9.89
10.23
10.99
11.66
11.95
11.93
11.88
12.03
12.27
12.14
11.04
8.53
4.67
-0.08
-5.08
-9.73
-13.74
-16.91
-19.01
-19.64
-18.32
-14.73
-8.93
-1.60
6.20
13.27
18.67
22.06
23.64
24.02
23.92
23.78
23.68
23.49
22.99
22.04
20.72
19.26
17.88
16.77
15.96
15.42
15.05
14.68
14.12
13.23
11.98
10.45
8.68
6.62
4.06
0.79
-3.17
-7.47
-11.42
-14.19
-15.10
-13.89
-10.73
-6.07
-0.57
5.15
10.60
15.49
19.71
23.28
26.28
28.61
30.10
30.54
29.88
28.37
26.54
24.97
24.09
24.02
24.51
25.13
25.46
25.24
24.39
23.10
21.60
20.22
19.12
18.21
17.13
15.33
12.40
8.31
3.53
-1.03
-4.43
-6.04
-5.72
-3.77
-0.64
3.23
7.49
11.75
15.53
18.30
19.72
19.80
18.94
17.73
16.67
15.97
15.59
15.39
15.29
15.36
15.71
16.39
17.25
18.10
18.66
18.77
18.38
17.52
16.27
14.67
12.74
10.32
7.25
3.43
-1.02
-5.80
-10.46
-14.62
-18.08
-20.73
-22.44
-22.88
-21.60
-18.17
-12.57
-5.28
2.82
10.65
17.32
22.33
25.54
27.11
27.33
26.57
25.14
23.40
21.66
20.21
19.33
19.18
19.80
21.12
22.89
24.74
26.27
27.13
27.15
26.39
25.07
23.50
21.95
20.51
19.10
17.49
15.42
12.74
9.47
5.75
1.83
-2.07
-5.67
-8.66
-10.71
-11.48
-10.74
-8.37
-4.48
0.65
6.55
12.54
17.82
21.67
23.67
23.95
23.04
21.76
20.75
20.27
20.15
20.07
19.81
19.38
19.04
19.04
19.47
20.16
20.76
20.84
20.07
18.32
15.73
12.64
9.50
6.67
4.33
2.36
0.50
-1.46
-3.64
-6.05
-8.66
-11.47
-14.34
-16.87
-18.38
-18.12
-15.59
-10.87
-4.69
1.81
7.56
11.99
15.08
17.26
18.95
20.30
21.08
20.93
19.62
17.37
14.78
12.60
11.41
11.29
11.87
12.52
12.75
12.38
11.54
10.49
9.36
8.09
6.58
4.75
2.67
0.53
-1.53
-3.48
-5.41
-7.46
-9.65
-11.84
-13.79
-15.19
-15.86
-15.70
-14.72
-12.93
-10.36
-7.05
-3.10
1.24
5.60
9.54
12.57
14.36
14.80
14.07
12.55
10.76
9.08
7.70
6.64
5.80
5.17
4.80
4.85
5.36
6.18
6.93
7.16
6.49
4.82
2.35
-0.50
-3.22
-5.39
-6.79
-7.57
-8.15
-9.16
-11.18
-14.43
-18.63
-22.98
-26.39
-27.90
-27.01
-23.77
-18.81
-13.05
-7.43
-2.64
1.00
3.55
5.17
5.97
5.96
5.07
3.45
1.46
-0.31
-1.33
-1.36
-0.49
0.92
2.53
4.19
5.97
8.00
10.30
12.66
14.65
15.80
15.77
14.38
11.79
8.35
4.58
0.98
-2.11
-4.65
-6.83
-8.97
-11.31
-13.82
-16.14
-17.68
-17.79
-15.98
-12.23
-6.99
-1.13
4.39
8.83
11.90
13.76
14.78
15.28
15.32
14.82
13.69
12.10
10.42
9.09
8.41
8.36
8.67
8.99
9.10
8.96
8.66
8.22
7.60
6.58
4.98
2.75
0.06
-2.73
-5.31
-7.50
-9.41
-11.22
-13.10
-14.98
-16.52
-17.26
-16.84
-15.18
-12.48
-9.16
-5.66
-2.26
0.91
3.82
6.41
8.45
9.63
9.64
8.38
6.10
3.39
1.03
-0.30
-0.31
0.76
2.22
3.32
3.54
2.87
1.73
0.64
-0.01
-0.28
-0.53
-1.15
-2.37
-4.12
-6.16
-8.29
-10.46
-12.66
-14.77
-16.44
-17.18
-16.55
-14.49
-11.31
-7.60
-3.88
-0.40
2.83
5.77
8.24
9.81
10.05
8.80
6.44
3.70
1.42
0.08
-0.36
-0.39
-0.60
-1.30
-2.47
-3.75
-4.77
-5.29
-5.32
-5.00
-4.55
-4.08
-3.74
-3.66
-4.03
-4.99
-6.56
-8.55
-10.61
-12.32
-13.35
-13.44
-12.43
-10.21
-6.76
-2.25
2.80
7.55
11.14
12.94
12.89
11.47
9.47
7.59
6.16
5.15
4.32
3.53
2.83
2.46
2.58
3.14
3.80
4.04
3.40
1.72
-0.82
-3.72
-6.32
-8.12
-8.97
-9.20
-9.53
-10.73
-13.30
-17.16
-21.61
-25.61
-28.09
-28.39
-26.33
-22.27
-16.87
-10.87
-4.97
0.21
4.14
6.42
6.99
6.11
4.42
2.67
1.41
0.80
0.67
0.63
0.41
0.04
-0.30
-0.40
-0.18
0.19
0.49
0.54
0.35
-0.02
-0.50
-1.14
-2.01
-3.16
-4.59
-6.18
-7.83
-9.44
-10.98
-12.32
-13.32
-13.69
-13.14
-11.48
-8.69
-4.99
-0.80
3.34
6.98
9.79
11.75
13.02
13.78
14.19
14.32
14.15
13.80
13.57
13.76
14.59
15.96
17.42
18.40
18.53
17.83
16.63
15.43
14.60
14.25
14.29
14.62
15.24
16.30
17.89
19.84
21.60
22.31
21.01
17.01
10.14
0.91
-9.61
-20.00
-28.87
-35.17
-38.47
-38.92
-37.12
-33.88
-29.99
-26.09
-22.68
-20.11
-18.61
-18.29
-19.00
-20.33
-21.67
-22.31
-21.81
-20.07
-17.44
-14.55
-12.04
-10.26
-9.22
-8.65
-8.26
-7.93
-7.81
-8.13
-9.06
-10.42
-11.80
-12.69
-12.76
-12.05
-11.01
-10.25
-10.20
-11.09
-12.85
-15.26
-18.05
-20.81
-22.94
-23.68
-22.28
-18.35
-12.23
-4.88
2.29
8.05
11.76
13.54
14.00
13.82
13.43
12.93
12.23
11.36
10.52
9.99
9.97
10.42
11.09
11.70
12.02
12.00
11.75
11.42
11.12
10.84
10.43
9.60
8.08
5.71
2.62
-0.80
-3.98
-6.36
-7.59
-7.73
-7.20
-6.64
-6.66
-7.68
-9.72
-12.46
-15.27
-17.37
-18.07
-16.95
-13.97
-9.57
-4.45
0.61
4.99
8.34
10.61
11.90
12.31
11.91
10.76
9.05
7.15
5.50
4.53
4.43
5.15
6.39
7.75
8.83
9.42
9.42
8.92
8.04
7.01
5.98
5.08
4.32
3.64
2.92
2.08
1.05
-0.17
-1.62
-3.33
-5.34
-7.67
-10.31
-13.21
-16.20
-19.00
-21.31
-22.73
-22.98
-21.89
-19.45
-15.78
-11.17
-5.99
-0.77
3.88
7.41
9.46
10.04
9.48
8.41
7.44
6.95
7.05
7.57
8.25
8.82
9.15
9.22
9.13
8.99
8.89
8.92
9.04
9.18
9.12
8.60
7.44
5.62
3.31
0.96
-0.98
-2.23
-2.81
-3.02
-3.33
-4.06
-5.35
-7.04
-8.84
-10.53
-11.96
-13.03
-13.64
-13.64
-12.89
-11.26
-8.75
-5.46
-1.62
2.43
6.27
9.37
11.28
11.83
11.18
9.90
8.69
8.08
8.23
8.92
9.63
9.89
9.48
8.53
7.38
6.47
6.00
5.92
5.90
5.59
4.80
3.62
2.26
0.94
-0.29
-1.59
-3.18
-5.22
-7.69
-10.39
-13.02
-15.27
-16.85
-17.48
-16.91
-15.02
-11.89
-7.86
-3.46
0.75
4.37
7.21
9.19
10.29
10.43
9.61
7.91
5.63
3.21
1.09
-0.45
-1.29
-1.45
-0.97
0.08
1.64
3.46
5.20
6.44
6.90
6.51
5.46
4.05
2.57
1.10
-0.42
-2.20
-4.48
-7.38
-10.87
-14.69
-18.49
-21.86
-24.38
-25.71
-25.53
-23.64
-19.96
-14.75
-8.58
-2.30
3.26
7.50
10.30
11.96
13.01
13.88
14.79
15.63
16.20
16.37
16.20
15.88
15.69
15.82
16.37
17.32
18.59
20.11
21.79
23.44
24.76
25.33
24.77
22.86
19.67
15.53
10.97
6.45
2.29
-1.48
-4.92
-8.11
-11.00
-13.35
-14.85
-15.23
-14.37
-12.33
-9.32
-5.63
-1.61
2.33
5.72
7.92
8.38
6.75
3.11
-1.97
-7.55
-12.67
-16.65
-19.26
-20.58
-20.82
-20.12
-18.52
-16.15
-13.32
-10.60
-8.66
-7.98
-8.74
-10.71
-13.35
-16.07
-18.37
-19.94
-20.65
-20.54
-19.74
-18.51
-17.19
-16.11
-15.44
-15.16
-15.04
-14.67
-13.65
-11.65
-8.54
-4.37
0.73
6.59
12.91
19.33
25.34
30.41
34.14
36.40
37.51
38.16
39.17
41.17
44.37
48.43
52.61
56.24
58.96
60.98
63.01
66.08
71.25
79.33
90.53
104.52
120.40
137.17
153.92
170.02
185.02
198.45
209.47
216.95
219.67
216.92
208.91
196.86
182.68
168.39
155.56
144.93
136.45
129.43
122.57
114.18
102.47
85.98
64.15
37.73
8.71
-20.06
-45.39
-64.26
-74.24
-73.90
-63.26
-44.08
-19.77
5.30
26.88
41.94
49.03
48.10
39.80
24.80
3.63
-23.05
-54.12
-88.18
-124.18
-161.97
-202.04
-244.60
-288.25
-329.32
-362.54
-382.65
-386.20
-372.68
-344.36
-305.30
-260.15
-213.31
-168.63
-129.39
-98.07
-76.12
-63.47
-58.59
-58.91
-61.62
-64.44
-66.02
-65.99
-64.64
-62.56
-60.26
-57.91
-55.33
-52.06
-47.67
-41.99
-35.32
-28.27
-21.54
-15.62
-10.68
-6.68
-3.51
-1.08
0.73
2.03
2.99
3.70
4.19
4.40
4.21
3.66
2.84
1.95
1.02
-0.07
-1.54
-3.55
-5.92
-8.11
-9.34
-8.88
-6.41
-2.10
3.48
9.46
14.94
19.24
21.89
22.75
21.81
19.24
15.48
11.15
7.06
3.97
2.31
1.99
2.34
2.52
1.94
0.58
-1.09
-2.39
-2.83
-2.39
-1.44
-0.65
-0.66
-1.91
-4.50
-7.98
-11.46
-13.77
-13.90
-11.53
-7.14
-1.93
2.82
6.37
8.83
10.97
13.64
17.30
21.73
26.31
30.29
33.21
34.89
35.42
34.87
33.21
30.31
25.98
20.24
13.40
6.01
-1.13
-7.27
-11.95
-15.06
-16.87
-17.91
-18.76
-19.96
-21.82
-24.40
-27.46
-30.68
-33.80
-36.73
-39.53
-42.20
-44.60
-46.39
-47.24
-47.06
-46.07
-44.62
-42.91
-40.72
-37.37
-32.16
-24.77
-15.51
-5.25
4.87
13.94
21.52
27.54
32.21
35.79
38.41
40.13
40.85
40.50
39.09
36.96
34.71
33.16
32.84
33.84
35.65
37.38
38.20
37.75
36.23
34.24
32.37
30.92
29.80
28.70
27.32
25.51
23.22
20.41
16.93
12.72
7.89
2.94
-1.25
-3.67
-3.63
-1.04
3.35
8.32
12.68
15.79
17.68
18.93
20.05
21.21
22.13
22.44
22.02
21.33
21.07
21.96
24.16
27.28
30.45
32.82
33.80
33.15
30.90
27.34
22.83
17.90
13.14
9.10
6.02
3.82
2.05
0.24
-1.86
-4.19
-6.32
-7.85
-8.57
-8.56
-8.09
-7.43
-6.64
-5.54
-3.85
-1.37
1.84
5.46
9.02
12.10
14.41
15.88
16.44
16.07
14.77
12.68
10.16
7.79
6.12
5.45
5.64
6.24
6.64
6.46
5.55
3.96
1.77
-1.07
-4.64
-8.93
-13.67
-18.41
-22.71
-26.36
-29.54
-32.70
-36.28
-40.47
-45.17
-50.01
-54.51
-58.27
-61.03
-62.65
-62.95
-61.71
-58.75
-54.05
-47.86
-40.76
-33.43
-26.36
-19.83
-13.81
-8.27
-3.37
0.50
2.88
3.55
2.71
1.01
-0.72
-1.67
-1.31
0.46
3.38
6.87
10.19
12.72
14.17
14.75
14.94
15.17
15.54
15.67
14.98
13.05
9.98
6.34
2.88
0.26
-1.27
-1.81
-1.68
-1.31
-1.12
-1.50
-2.73
-4.78
-7.27
-9.45
-10.47
-9.62
-6.52
-1.28
5.61
13.29
20.78
27.27
32.26
35.59
37.40
37.88
37.15
35.35
32.71
29.72
27.09
25.44
25.04
25.57
26.25
26.16
24.72
21.91
18.21
14.41
11.20
8.94
7.62
6.84
6.15
5.19
3.85
2.26
0.62
-1.02
-2.67
-4.43
-6.35
-8.34
-10.29
-12.19
-14.24
-16.67
-19.69
-23.09
-26.24
-28.20
-28.05
-25.16
-19.52
-11.70
-2.68
6.43
14.70
21.49
26.45
29.46
30.52
29.84
27.90
25.48
23.44
22.56
23.17
25.01
27.43
29.61
31.03
31.54
31.39
30.86
30.12
29.08
27.50
25.19
22.19
18.79
15.41
12.41
9.87
7.60
5.21
2.23
-1.64
-6.41
-11.75
-17.04
-21.55
-24.55
-25.59
-24.54
-21.62
-17.29
-12.11
-6.63
-1.40
3.01
6.07
7.48
7.22
5.73
3.70
1.85
0.61
-0.00
-0.24
-0.38
-0.53
-0.57
-0.32
0.31
1.15
1.83
2.00
1.38
-0.06
-2.21
-4.85
-7.68
-10.40
-12.64
-14.15
-14.90
-15.23
-15.81
-17.39
-20.40
-24.67
-29.38
-33.30
-35.23
-34.49
-31.05
-25.46
-18.60
-11.33
-4.39
1.70
6.60
10.10
12.16
12.88
12.55
11.55
10.34
9.29
8.64
8.53
8.85
9.33
9.67
9.58
8.98
8.02
7.01
6.26
5.88
5.75
5.57
5.09
4.12
2.60
0.56
-1.98
-4.97
-8.25
-11.62
-14.84
-17.80
-20.52
-23.12
-25.63
-27.72
-28.81
-28.15
-25.35
-20.58
-14.57
-8.37
-2.81
1.72
5.33
8.35
10.99
13.24
14.78
15.29
14.65
13.05
11.01
9.17
8.08
8.05
8.99
10.44
11.86
12.72
12.81
12.26
11.36
10.36
9.31
8.03
6.22
3.66
0.46
-2.98
-6.11
-8.55
-10.16
-11.25
-12.30
-13.80
-16.03
-18.94
-22.22
-25.38
-27.86
-29.15
-28.76
-26.46
-22.31
-16.77
-10.58
-4.48
1.07
6.00
10.50
14.62
18.11
20.47
21.19
20.23
17.98
15.23
12.73
11.01
10.23
10.27
10.87
11.69
12.32
12.35
11.53
9.94
7.96
6.09
4.69
3.75
3.02
2.15
0.95
-0.49
-1.95
-3.29
-4.61
-6.19
-8.43
-11.62
-15.73
-20.43
-25.11
-29.04
-31.66
-32.61
-31.92
-29.90
-26.97
-23.48
-19.66
-15.63
-11.54
-7.58
-4.05
-1.29
0.36
0.76
-0.08
-1.94
-4.39
-6.99
-9.30
-11.06
-12.18
-12.77
-12.98
-12.97
-12.87
-12.72
-12.67
-12.84
-13.41
-14.48
-15.88
-17.23
-17.98
-17.54
-15.58
-12.26
-8.20
-4.34
-1.54
-0.34
-0.72
-2.26
-4.33
-6.38
-8.09
-9.30
-9.90
-9.64
-8.16
-5.12
-0.44
5.65
12.61
19.71
26.27
31.82
36.16
39.28
41.34
42.55
43.10
43.11
42.75
42.14
41.45
40.91
40.65
40.76
41.25
42.03
42.94
43.78
44.29
44.18
43.22
41.27
38.46
35.17
31.83
28.81
26.23
23.89
21.29
17.90
13.28
7.36
0.45
-6.70
-13.10
-17.81
-20.31
-20.63
-19.37
-17.36
-15.29
-13.53
-12.14
-11.04
-10.35
-10.34
-11.47
-13.92
-17.54
-21.68
-25.38
-27.69
-28.01
-26.34
-23.22
-19.47
-15.78
-12.52
-9.63
-6.85
-4.05
-1.49
0.37
1.14
0.85
0.00
-0.75
-0.99
-0.85
-0.94
-2.03
-4.58
-8.49
-13.11
-17.48
-20.69
-22.17
-21.70
-19.39
-15.54
-10.52
-4.82
1.04
6.54
11.22
14.83
17.34
18.83
19.40
18.99
17.52
14.99
11.69
8.17
5.17
3.19
2.39
2.61
3.39
4.35
5.13
5.50
5.28
4.32
2.63
0.41
-1.94
-4.05
-5.62
-6.77
-7.86
-9.47
-12.11
-16.00
-20.91
-26.07
-30.45
-32.94
-32.74
-29.57
-23.77
-16.17
-7.79
0.31
7.37
12.82
16.43
18.20
18.35
17.32
15.63
13.81
12.17
10.89
9.88
9.07
8.39
7.91
7.71
7.77
7.96
7.99
7.65
6.80
5.49
3.86
2.10
0.37
-1.23
-2.61
-3.79
-4.89
-6.22
-8.15
-11.10
-15.23
-20.30
-25.72
-30.50
-33.63
-34.30
-32.13
-27.34
-20.71
-13.38
-6.38
-0.52
3.95
7.12
9.24
10.44
10.69
9.94
8.33
6.36
4.71
3.99
4.39
5.55
6.76
7.39
7.17
6.30
5.23
4.21
3.21
1.88
-0.04
-2.53
-5.21
-7.63
-9.62
-11.35
-13.32
-15.93
-19.26
-22.96
-26.53
-29.64
-32.31
-34.93
-37.86
-41.19
-44.46
-46.80
-47.22
-45.02
-40.12
-33.03
-24.73
-16.29
-8.58
-2.09
3.03
6.81
9.35
10.70
11.03
10.63
9.98
9.66
10.26
12.13
15.31
19.44
23.79
27.54
29.95
30.76
30.29
29.31
28.70
28.99
30.18
31.70
32.90
33.34
33.05
32.41
31.82
31.35
30.76
29.69
27.89
25.44
22.70
20.10
17.95
16.44
15.69
15.86
17.10
19.44
22.61
26.07
29.05
30.91
31.31
30.31
28.25
25.61
22.71
19.68
16.43
12.97
9.47
6.24
3.70
2.05
1.24
0.98
0.91
0.74
0.35
-0.25
-1.02
-1.92
-2.93
-4.09
-5.48
-7.19
-9.36
-12.02
-15.01
-17.99
-20.49
-22.22
-23.27
-24.17
-25.44
-27.31
-29.32
-30.51
-29.87
-26.85
-21.70
-15.29
-8.71
-2.76
2.28
6.53
10.18
13.27
15.57
16.86
17.08
16.46
15.42
14.41
13.72
13.43
13.47
13.63
13.67
13.37
12.60
11.30
9.51
7.26
4.59
1.48
-2.02
-5.74
-9.36
-12.50
-14.98
-16.98
-18.98
-21.59
-25.26
-29.94
-35.07
-39.73
-43.00
-44.18
-43.03
-39.73
-34.82
-28.97
-22.89
-17.18
-12.26
-8.33
-5.43
-3.52
-2.61
-2.80
-4.19
-6.60
-9.62
-12.54
-14.67
-15.68
-15.65
-15.07
-14.46
-14.13
-14.07
-14.12
-14.17
-14.21
-14.36
-14.66
-14.95
-14.89
-14.13
-12.47
-10.17
-7.77
-6.08
-5.74
-6.92
-9.12
-11.29
-12.16
-10.71
-6.56
-0.01
8.10
16.86
25.46
33.35
40.14
45.36
48.60
49.54
48.18
44.85
40.20
34.97
29.87
25.45
21.96
19.46
17.79
16.62
15.53
14.12
12.08
9.18
5.34
0.63
-4.81
-10.62
-16.38
-21.57
-25.75
-28.58
-30.04
-30.35
-30.03
-29.54
-29.09
-28.52
-27.30
-24.78
-20.47
-14.36
-6.95
0.91
8.27
14.37
18.89
21.83
23.53
24.32
24.50
24.28
23.81
23.20
22.60
22.11
21.79
21.67
21.64
21.60
21.45
21.02
20.17
18.73
16.64
14.05
11.34
8.99
7.38
6.62
6.40
6.12
5.10
2.84
-0.79
-5.50
-10.54
-14.92
-17.59
-17.83
-15.36
-10.56
-4.28
2.44
8.66
13.81
17.69
20.34
21.95
22.74
22.99
23.07
23.39
24.17
25.37
26.58
27.30
27.17
26.19
24.72
23.22
21.92
20.62
18.89
16.33
12.91
8.96
5.08
1.79
-0.69
-2.40
-3.59
-4.55
-5.59
-6.98
-9.03
-11.98
-15.82
-20.22
-24.47
-27.66
-28.99
-28.02
-24.84
-20.10
-14.77
-9.82
-5.99
-3.48
-2.15
-1.59
-1.44
-1.43
-1.45
-1.43
-1.33
-1.15
-0.92
-0.79
-0.77
-0.79
-0.69
-0.30
0.35
1.03
1.37
1.18
0.56
-0.07
-0.22
0.33
1.39
2.40
2.67
1.72
-0.61
-4.21
-8.88
-14.35
-20.30
-26.18
-31.18
-34.36
-34.96
-32.74
-28.21
-22.41
-16.58
-11.62
-7.89
-5.15
-2.93
-0.77
1.48
3.72
5.68
7.13
7.96
8.24
8.16
8.04
8.31
9.20
10.77
12.76
14.68
16.01
16.51
16.24
15.60
15.03
14.77
14.74
14.68
14.35
13.65
12.68
11.53
10.27
8.94
7.58
6.40
5.70
5.75
6.81
8.97
12.24
16.51
21.51
26.73
31.53
35.24
37.39
37.93
37.11
35.35
33.02
30.35
27.40
24.23
20.92
17.57
14.30
11.19
8.36
5.86
3.80
2.15
0.82
-0.34
-1.50
-2.71
-4.09
-5.76
-7.94
-10.69
-13.88
-17.13
-19.84
-21.62
-22.46
-22.85
-23.56
-25.21
-27.99
-31.58
-35.21
-38.00
-39.18
-38.16
-34.76
-29.15
-21.97
-14.23
-7.08
-1.41
2.40
4.59
5.80
6.66
7.44
8.07
8.23
7.78
6.85
5.94
5.50
5.84
6.84
8.12
9.32
10.18
10.69
10.87
10.70
9.93
8.28
5.55
1.88
-2.18
-5.90
-8.58
-10.01
-10.44
-10.54
-11.09
-12.61
-15.21
-18.55
-21.97
-24.65
-25.82
-24.91
-21.72
-16.52
-9.97
-2.98
3.49
8.67
12.15
13.93
14.24
13.57
12.35
11.03
9.86
9.07
8.61
8.40
8.29
8.13
7.93
7.70
7.54
7.49
7.53
7.52
7.23
6.40
4.83
2.54
-0.28
-3.21
-5.82
-7.74
-8.86
-9.32
-9.52
-10.00
-11.24
-13.49
-16.55
-19.80
-22.38
-23.40
-22.29
-18.95
-13.87
-7.84
-1.80
3.50
7.61
10.37
11.85
12.18
11.54
10.12
8.26
6.32
4.67
3.55
2.99
2.92
3.18
3.70
4.47
5.50
6.60
7.47
7.73
7.12
5.64
3.59
1.44
-0.45
-1.84
-2.80
-3.52
-4.37
-5.65
-7.56
-10.14
-13.29
-16.65
-19.77
-22.05
-22.89
-21.81
-18.58
-13.40
-6.91
-0.14
5.86
10.24
12.68
13.38
12.77
11.36
9.51
7.44
5.32
3.38
1.86
0.84
0.36
0.31
0.59
1.17
1.97
2.80
3.27
3.03
1.85
-0.07
-2.28
-4.28
-5.74
-6.78
-7.71
-8.93
-10.70
-13.10
-16.05
-19.41
-22.89
-25.89
-27.63
-27.30
-24.51
-19.41
-12.80
-5.73
0.81
6.27
10.54
13.83
16.46
18.59
20.23
21.24
21.55
21.23
20.52
19.77
19.21
18.95
18.88
18.84
18.79
18.89
19.30
19.97
20.50
20.21
18.59
15.63
11.99
8.69
6.63
6.09
6.73
7.88
8.85
9.27
8.95
7.74
5.48
2.10
-2.07
-6.27
-9.48
-10.97
-10.59
-8.96
-7.07
-5.88
-5.79
-6.69
-8.02
-9.25
-10.15
-10.81
-11.59
-12.79
-14.44
-16.25
-17.63
-17.95
-16.83
-14.45
-11.53
-9.23
-8.71
-10.64
-15.00
-20.98
-27.36
-32.92
-36.90
-39.22
-40.20
-40.37
-40.08
-39.45
-38.52
-37.37
-36.26
-35.40
-34.65
-33.45
-30.86
-26.07
-18.77
-9.40
1.00
11.17
20.00
26.93
31.83
34.94
36.60
37.19
37.02
36.29
35.11
33.47
31.36
28.89
26.23
23.71
21.69
20.28
19.40
18.68
17.72
16.22
14.05
11.25
8.00
4.52
1.06
-2.10
-4.66
-6.48
-7.55
-8.23
-9.13
-10.84
-13.70
-17.58
-21.78
-25.30
-27.11
-26.54
-23.50
-18.37
-11.91
-4.99
1.58
7.27
11.77
14.88
16.41
16.27
14.53
11.52
7.87
4.37
1.81
0.63
0.87
2.17
4.00
5.92
7.69
9.25
10.52
11.33
11.40
10.54
8.84
6.76
4.91
3.72
3.16
2.73
1.62
-0.82
-4.77
-9.84
-15.31
-20.41
-24.66
-27.75
-29.50
-29.66
-27.97
-24.34
-19.04
-12.76
-6.37
-0.71
3.73
6.95
9.11
10.43
10.97
10.79
9.92
8.61
7.13
5.78
4.72
3.96
3.52
3.42
3.74
4.50
5.64
6.92
8.02
8.60
8.33
7.11
4.92
1.96
-1.47
-4.96
-8.26
-11.45
-14.85
-18.86
-23.58
-28.63
-33.11
-35.98
-36.40
-34.05
-29.24
-22.69
-15.30
-7.89
-1.13
4.55
8.82
11.56
12.82
12.83
12.04
10.96
10.04
9.49
9.33
9.40
9.52
9.69
10.06
10.87
12.21
13.92
15.58
16.58
16.39
14.76
11.84
8.09
4.21
0.78
-1.87
-3.79
-5.30
-6.88
-8.98
-11.80
-15.22
-18.75
-21.76
-23.56
-23.63
-21.80
-18.18
-13.22
-7.48
-1.57
3.98
8.80
12.54
15.03
16.16
16.03
14.90
13.19
11.31
9.62
8.37
7.72
7.76
8.42
9.47
10.57
11.32
11.43
10.89
9.94
8.89
8.01
7.29
6.59
5.76
4.79
3.86
3.20
2.76
2.22
1.11
-1.01
-4.13
-7.75
-11.02
-13.07
-13.21
-11.25
-7.53
-2.67
2.53
7.34
11.21
13.83
15.10
15.12
14.13
12.49
10.66
9.04
7.90
7.35
7.35
7.75
8.49
9.52
10.77
11.99
12.76
12.59
11.11
8.30
4.52
0.44
-3.31
-6.30
-8.39
-9.75
-10.62
-11.29
-12.03
-13.04
-14.47
-16.34
-18.42
-20.18
-20.98
-20.19
-17.49
-13.00
-7.27
-1.03
4.92
9.97
13.74
16.05
16.92
16.62
15.61
14.54
14.06
14.62
16.33
18.96
22.06
25.15
27.91
30.16
31.80
32.74
32.92
32.40
31.36
30.18
29.22
28.70
28.65
28.93
29.33
29.64
29.53
28.54
26.18
22.17
16.79
11.02
6.24
3.71
3.92
6.41
9.95
13.09
14.58
13.75
10.27
4.09
-4.72
-15.91
-28.95
-43.00
-57.04
-69.96
-80.72
-88.45
-92.64
-93.33
-91.28
-87.83
-84.49
-82.35
-81.46
-80.88
-79.10
-74.76
-67.33
-57.28
-45.84
-34.47
-24.24
-15.58
-8.49
-2.82
1.33
3.69
3.90
2.07
-1.08
-4.30
-6.23
-5.95
-3.30
1.12
6.32
11.32
15.57
18.86
21.28
22.87
23.55
23.14
21.64
19.27
16.52
14.01
12.22
11.29
10.98
10.86
10.52
9.87
9.13
8.68
8.69
9.06
9.36
9.18
8.31
6.81
4.91
2.85
0.68
-1.70
-4.37
-7.34
-10.50
-13.67
-16.65
-19.23
-21.07
-21.64
-20.51
-17.41
-12.55
-6.50
0.04
6.57
12.93
19.20
25.21
30.40
33.83
34.55
32.21
27.38
21.43
16.03
12.44
11.13
11.65
13.03
14.27
14.83
14.70
14.21
13.72
13.30
12.75
11.78
10.24
8.20
5.95
3.77
1.74
-0.17
-2.07
-4.00
-6.01
-8.11
-10.47
-13.21
-16.22
-19.06
-20.87
-20.77
-18.22
-13.36
-7.00
-0.25
5.82
10.58
13.83
15.79
16.74
16.89
16.38
15.21
13.50
11.44
9.30
7.28
5.44
3.63
1.62
-0.81
-3.70
-6.82
-9.87
-12.48
-14.40
-15.57
-16.10
-16.16
-15.97
-15.72
-15.63
-15.85
-16.40
-17.18
-17.90
-18.27
-18.10
-17.52
-16.84
-16.36
-16.05
-15.39
-13.57
-9.91
-4.33
2.58
9.72
16.09
21.13
24.89
27.78
30.05
31.72
32.51
32.23
30.99
29.28
27.66
26.52
25.89
25.38
24.48
22.81
20.39
17.57
14.88
12.79
11.44
10.61
9.76
8.40
6.19
3.25
0.00
-2.99
-5.38
-7.20
-8.81
-10.71
-13.31
-16.76
-20.82
-24.92
-28.32
-30.23
-30.07
-27.55
-22.81
-16.31
-8.81
-1.19
5.69
11.17
14.80
16.50
16.48
15.25
13.54
12.01
11.25
11.41
12.21
13.06
13.31
12.61
11.02
9.10
7.54
6.94
7.40
8.58
9.84
10.51
10.16
8.71
6.47
3.88
1.45
-0.52
-1.96
-3.07
-4.22
-5.79
-8.11
-11.25
-14.97
-18.69
-21.66
-23.13
-22.60
-20.04
-15.79
-10.54
-4.96
0.45
5.43
9.87
13.57
16.17
17.23
16.52
14.30
11.28
8.40
6.49
5.93
6.51
7.71
8.94
9.87
10.49
10.95
11.39
11.76
11.90
11.61
10.88
9.76
8.41
7.02
5.75
4.76
4.20
4.13
4.32
4.30
3.44
1.26
-2.27
-6.52
-10.42
-12.88
-13.24
-11.42
-7.81
-3.05
2.39
8.27
14.35
20.24
25.27
28.74
30.11
29.30
26.53
22.18
16.41
9.26
0.93
-7.83
-15.72
-21.15
-22.95
-20.95
-16.12
-10.10
-4.39
0.21
3.80
6.88
9.78
12.26
13.53
12.85
10.00
5.59
0.85
-3.00
-5.39
-6.59
-7.42
-8.58
-10.01
-10.85
-9.84
-6.10
0.31
8.29
16.14
22.32
25.93
26.93
25.73
22.91
18.91
14.09
8.91
3.93
-0.22
-3.14
-4.71
-5.16
-4.94
-4.56
-4.49
-4.99
-6.06
-7.39
-8.57
-9.18
-9.19
-8.99
-9.30
-10.83
-13.87
-18.10
-22.78
-27.11
-30.66
-33.53
-36.17
-38.89
-41.59
-43.63
-44.17
-42.65
-39.03
-33.91
-28.17
-22.62
-17.73
-13.70
-10.56
-8.33
-7.02
-6.43
-6.08
-5.21
-3.25
0.03
4.35
9.14
13.90
18.42
22.82
27.25
31.52
35.10
37.26
37.51
35.94
33.22
30.19
27.46
25.05
22.61
19.69
16.23
12.52
9.04
5.98
2.96
-0.74
-5.73
-12.00
-18.63
-24.14
-27.12
-26.88
-23.71
-18.67
-13.05
-7.85
-3.64
-0.60
1.22
1.80
1.18
-0.45
-2.67
-4.98
-6.97
-8.52
-9.80
-11.01
-12.25
-13.39
-14.23
-14.53
-14.27
-13.57
-12.56
-11.37
-10.05
-8.71
-7.60
-7.13
-7.68
-9.42
-12.21
-15.61
-19.05
-22.02
-24.25
-25.60
-26.03
-25.46
-23.78
-20.86
-16.63
-11.13
-4.52
2.90
10.71
18.37
25.23
30.58
33.81
34.68
33.31
30.29
26.35
22.25
18.59
15.67
13.58
12.14
11.14
10.31
9.45
8.49
7.50
6.53
5.64
4.82
3.96
2.96
1.77
0.44
-1.06
-2.78
-4.99
-8.02
-12.02
-16.84
-21.82
-26.00
-28.34
-28.14
-25.22
-20.07
-13.54
-6.56
0.09
5.98
10.79
14.28
16.18
16.32
14.87
12.46
10.01
8.33
7.80
8.20
8.93
9.37
9.24
8.65
7.93
7.34
6.90
6.47
5.89
5.15
4.31
3.47
2.56
1.45
0.00
-1.87
-4.10
-6.71
-9.69
-13.14
-17.05
-21.09
-24.67
-26.92
-27.04
-24.65
-19.95
-13.60
-6.57
0.20
6.04
10.52
13.52
15.08
15.36
14.58
13.01
10.90
8.53
6.22
4.36
3.27
3.17
4.03
5.46
6.86
7.61
7.37
6.16
4.20
1.88
-0.57
-3.05
-5.60
-8.30
-11.25
-14.55
-18.27
-22.41
-26.76
-30.90
-34.36
-36.59
-37.20
-35.95
-32.72
-27.62
-21.03
-13.60
-6.18
0.43
5.78
9.89
13.10
15.81
18.22
20.22
21.49
21.79
21.19
20.11
19.10
18.61
18.78
19.42
20.16
20.65
20.69
20.19
19.16
17.60
15.49
12.78
9.49
5.73
1.69
-2.46
-6.63
-10.63
-14.19
-16.74
-17.53
-15.91
-11.68
-5.33
2.00
8.88
14.15
17.38
18.85
19.34
19.57
19.88
20.07
19.61
18.06
15.38
12.05
8.74
6.20
4.82
4.63
5.38
6.85
8.88
11.39
14.06
16.24
17.14
16.07
13.03
8.76
4.54
1.52
0.19
0.26
1.00
1.87
2.97
4.96
8.70
14.50
22.02
30.31
38.36
45.50
51.58
56.77
61.23
64.99
67.85
69.74
70.94
72.20
74.53
78.85
85.61
94.58
104.99
115.87
126.52
136.74
146.92
157.89
170.53
185.32
202.17
220.41
239.03
256.89
272.91
286.12
295.69
301.06
302.03
298.85
292.26
283.22
272.70
261.25
248.97
235.56
220.65
204.02
185.76
166.26
145.95
125.25
104.45
83.83
63.60
43.94
25.00
6.74
-11.00
-28.66
-46.66
-65.29
-84.54
-104.05
-123.27
-141.71
-159.25
-176.18
-193.21
-211.05
-230.24
-250.82
-272.51
-294.75
-317.06
-339.26
-361.48
-384.27
-408.57
-435.67
-466.98
-503.28
-543.91
-586.11
-625.27
-655.92
-673.30
-674.63
-659.64
-630.09
-588.86
-538.95
-483.00
-423.32
-361.97
-300.75
-241.03
-183.53
-128.38
-75.33
-24.01
26.17
76.25
127.64
181.38
237.25
293.02
344.43
386.36
414.15
424.67
416.90
391.87
352.45
303.32
250.78
201.99
163.60
139.89
131.35
134.45
143.12
151.06
154.07
151.03
143.49
134.06
124.74
115.65
105.06
90.28
69.18
41.49
9.35
-23.42
-52.87
-76.77
-95.69
-112.64
-131.83
-156.88
-189.77
-230.76
-278.85
-332.12
-387.38
-439.67
-482.22
-507.70
-510.51
-489.03
-446.31
-389.05
-324.86
-259.91
-197.82
-140.29
-88.64
-44.84
-11.31
10.29
20.27
21.11
16.58
10.32
4.82
1.22
-0.18
0.84
4.65
11.54
21.31
32.90
44.63
54.82
62.33
66.91
69.09
69.83
70.02
70.31
71.00
72.08
73.17
73.66
72.74
69.64
63.91
55.65
45.70
35.37
26.26
19.75
16.72
17.39
21.37
27.91
36.02
44.69
52.93
59.97
65.29
68.72
70.43
70.90
70.67
70.15
69.48
68.56
67.16
65.16
62.61
59.84
57.29
55.35
54.19
53.68
53.46
53.01
52.03
50.40
48.32
46.14
44.18
42.54
41.04
39.25
36.61
32.67
27.22
20.46
13.06
6.14
1.02
-1.12
0.27
4.80
11.33
18.33
24.52
29.17
32.22
34.00
34.92
35.26
35.15
34.64
33.86
32.94
32.00
31.11
30.35
29.79
29.65
30.20
31.54
33.49
35.52
36.82
36.57
34.41
30.69
26.53
23.53
23.01
25.38
29.86
34.76
38.13
38.35
34.57
26.79
15.78
3.06
-9.29
-18.83
-23.34
-21.68
-14.50
-4.44
4.48
8.13
4.05
-7.49
-23.26
-38.04
-46.36
-44.49
-31.74
-10.42
15.16
40.44
62.18
79.07
91.41
100.15
106.06
109.56
110.81
110.10
108.03
105.23
102.12
98.60
94.20
88.44
81.04
72.30
62.93
53.85
45.84
39.28
34.03
29.48
24.96
20.17
15.49
11.89
10.51
12.08
16.44
22.69
29.47
35.60
40.38
43.61
45.41
45.91
45.17
43.26
40.40
37.08
33.91
31.46
30.09
29.77
30.25
31.20
32.26
33.15
33.64
33.52
32.58
30.65
27.71
23.97
19.82
15.78
12.31
9.63
7.53
5.52
2.90
-0.81
-5.64
-11.11
-16.38
-20.55
-22.94
-23.28
-21.60
-18.13
-13.13
-6.95
-0.09
6.72
12.66
17.04
19.59
20.50
20.35
19.82
19.42
19.37
19.59
19.89
20.11
20.18
20.09
19.81
19.27
18.42
17.27
15.97
14.73
13.72
12.99
12.27
11.12
9.09
6.01
2.07
-2.22
-6.27
-9.72
-12.62
-15.34
-18.25
-21.40
-24.44
-26.65
-27.22
-25.63
-21.86
-16.39
-9.98
-3.44
2.70
8.08
12.59
16.05
18.27
19.04
18.28
16.29
13.64
11.04
9.10
8.12
8.06
8.66
9.60
10.64
11.59
12.22
12.37
11.90
10.90
9.47
7.75
5.71
3.22
0.22
-3.12
-6.36
-9.00
-10.83
-12.03
-13.25
-15.11
-17.99
-21.67
-25.43
-28.27
-29.26
-27.86
-24.09
-18.45
-11.80
-5.06
1.00
5.92
9.54
11.93
13.23
13.58
13.15
12.09
10.65
9.15
7.95
7.39
7.62
8.54
9.84
11.03
11.68
11.50
10.52
9.06
7.49
6.14
5.08
4.18
3.13
1.70
-0.26
-2.67
-5.35
-8.13
-10.93
-13.80
-16.88
-20.21
-23.55
-26.33
-27.79
-27.30
-24.63
-20.17
-14.75
-9.25
-4.31
-0.05
3.78
7.50
11.15
14.36
16.47
16.90
15.50
12.70
9.42
6.63
5.01
4.72
5.50
6.86
8.31
9.57
10.49
10.98
10.91
10.13
8.56
6.29
3.62
0.94
-1.36
-3.15
-4.54
-5.89
-7.65
-10.13
-13.31
-16.91
-20.48
-23.63
-26.05
-27.50
-27.73
-26.46
-23.52
-19.06
-13.54
-7.71
-2.30
2.14
5.46
7.70
8.98
9.38
8.92
7.74
6.16
4.58
3.40
2.89
3.04
3.67
4.52
5.38
6.09
6.63
6.94
6.97
6.59
5.62
4.05
1.98
-0.34
-2.57
-4.50
-6.09
-7.50
-8.97
-10.68
-12.65
-14.80
-17.05
-19.32
-21.54
-23.53
-24.90
-25.09
-23.64
-20.37
-15.60
-10.02
-4.46
0.42
4.28
7.09
8.97
9.97
10.09
9.25
7.59
5.42
3.27
1.67
0.95
1.17
2.07
3.29
4.51
5.47
6.07
6.21
5.88
5.05
3.67
1.74
-0.64
-3.30
-6.01
-8.54
-10.72
-12.55
-14.20
-15.98
-18.17
-20.90
-23.89
-26.55
-28.07
-27.77
-25.34
-21.06
-15.58
-9.75
-4.33
0.19
3.62
6.00
7.45
8.12
8.09
7.43
6.26
4.77
3.31
2.22
1.81
2.17
3.15
4.36
5.36
5.76
5.48
4.64
3.52
2.35
1.19
-0.08
-1.64
-3.65
-6.11
-8.89
-11.75
-14.56
-17.22
-19.79
-22.27
-24.56
-26.30
-26.92
-25.92
-23.10
-18.71
-13.37
-7.90
-2.90
1.35
4.83
7.67
9.89
11.36
11.88
11.47
10.23
8.54
6.76
5.16
3.89
3.01
2.57
2.58
2.89
3.19
3.06
2.17
0.43
-1.78
-3.93
-5.39
-5.97
-5.85
-5.64
-6.04
-7.61
-10.46
-14.28
-18.48
-22.33
-25.21
-26.65
-26.38
-24.27
-20.42
-15.22
-9.18
-3.02
2.65
7.28
10.51
12.16
12.19
10.79
8.37
5.56
3.03
1.32
0.71
1.07
2.04
3.15
4.06
4.55
4.57
4.15
3.41
2.55
1.83
1.40
1.24
1.07
0.40
-1.17
-3.87
-7.53
-11.69
-15.70
-18.90
-20.85
-21.35
-20.45
-18.34
-15.28
-11.53
-7.42
-3.28
0.52
3.63
5.82
6.98
7.20
6.65
5.56
4.16
2.62
1.15
0.01
-0.53
-0.34
0.48
1.58
2.50
2.91
2.72
2.03
1.07
0.00
-1.17
-2.60
-4.41
-6.63
-9.19
-11.93
-14.75
-17.64
-20.53
-23.15
-24.97
-25.33
-23.74
-20.16
-15.10
-9.50
-4.32
-0.25
2.51
4.11
4.88
5.16
5.17
5.06
4.92
4.80
4.62
4.23
3.60
2.82
2.20
2.00
2.33
2.93
3.40
3.36
2.74
1.75
0.70
-0.32
-1.51
-3.21
-5.63
-8.60
-11.65
-14.31
-16.46
-18.36
-20.49
-23.04
-25.67
-27.52
-27.62
-25.30
-20.66
-14.40
-7.58
-1.10
4.44
8.82
11.97
13.86
14.49
14.03
12.82
11.36
10.12
9.31
8.94
8.89
9.01
9.20
9.36
9.40
9.16
8.52
7.50
6.24
4.88
3.45
1.84
-0.11
-2.45
-5.00
-7.45
-9.58
-11.47
-13.47
-16.00
-19.22
-22.85
-26.20
-28.38
-28.68
-26.74
-22.67
-16.94
-10.24
-3.39
2.88
8.05
11.84
14.25
15.52
15.92
15.76
15.29
14.74
14.27
14.02
13.99
14.07
14.23
14.46
14.93
15.74
16.86
17.92
18.40
17.76
15.82
12.81
9.30
5.98
3.29
1.37
0.03
-1.08
-2.29
-3.82
-5.79
-8.28
-11.38
-15.15
-19.51
-24.14
-28.30
-31.04
-31.42
-28.94
-23.79
-16.91
-9.66
-3.31
1.47
4.75
7.11
9.18
11.26
13.12
14.31
14.55
13.95
13.06
12.50
12.63
13.30
14.01
14.24
13.85
13.09
12.51
12.50
13.06
13.79
14.05
13.43
11.78
9.33
6.42
3.35
0.28
-2.73
-5.61
-8.21
-10.37
-12.09
-13.52
-14.99
-16.79
-19.01
-21.38
-23.36
-24.28
-23.57
-20.97
-16.60
-10.97
-4.90
0.77
5.46
8.95
11.37
13.04
14.15
14.73
14.67
13.94
12.77
11.64
11.08
11.38
12.48
13.91
15.08
15.52
15.12
14.07
12.70
11.28
9.92
8.52
6.90
4.94
2.74
0.57
-1.21
-2.40
-3.09
-3.69
-4.73
-6.66
-9.58
-13.19
-16.98
-20.30
-22.62
-23.58
-23.11
-21.30
-18.38
-14.60
-10.20
-5.39
-0.33
4.70
9.36
13.23
15.88
17.08
16.92
15.83
14.38
13.11
12.26
11.77
11.38
10.92
10.40
10.09
10.31
11.24
12.69
14.17
15.04
14.84
13.51
11.37
8.98
6.85
5.19
3.94
2.79
1.41
-0.46
-2.91
-5.80
-8.97
-12.15
-15.05
-17.43
-18.98
-19.43
-18.55
-16.24
-12.59
-7.93
-2.78
2.27
6.75
10.26
12.68
14.09
14.62
14.38
13.40
11.71
9.51
7.20
5.34
4.40
4.54
5.47
6.65
7.48
7.70
7.33
6.64
5.81
4.84
3.57
1.82
-0.41
-2.90
-5.36
-7.60
-9.57
-11.34
-13.07
-14.90
-16.96
-19.22
-21.52
-23.39
-24.20
-23.34
-20.49
-15.85
-10.10
-4.16
1.14
5.23
8.05
9.75
10.62
10.94
10.85
10.42
9.74
8.95
8.22
7.73
7.63
7.95
8.54
9.21
9.72
9.89
9.64
8.94
7.75
6.03
3.73
0.89
-2.27
-5.45
-8.26
-10.32
-11.57
-12.20
-12.71
-13.67
-15.47
-18.06
-20.96
-23.39
-24.52
-23.85
-21.35
-17.41
-12.70
-7.80
-3.14
1.07
4.77
7.88
10.26
11.80
12.43
12.23
11.45
10.38
9.31
8.44
7.86
7.59
7.69
8.10
8.68
9.21
9.28
8.63
7.14
4.97
2.44
-0.00
-2.07
-3.62
-4.70
-5.54
-6.42
-7.61
-9.27
-11.41
-13.79
-15.99
-17.41
-17.49
-15.88
-12.49
-7.69
-2.08
3.59
8.55
12.29
14.51
15.28
14.89
13.79
12.38
10.98
9.73
8.68
7.80
7.05
6.48
6.08
5.88
5.83
5.79
5.56
4.98
3.91
2.37
0.55
-1.27
-2.81
-3.97
-4.88
-5.89
-7.39
-9.63
-12.56
-15.71
-18.37
-19.80
-19.44
-17.18
-13.33
-8.46
-3.20
1.94
6.63
10.60
13.55
15.09
14.96
13.23
10.44
7.48
5.26
4.33
4.59
5.47
6.19
6.20
5.41
4.16
2.99
2.29
2.08
2.07
1.87
1.23
0.21
-0.94
-2.01
-3.04
-4.35
-6.31
-9.06
-12.25
-15.19
-17.11
-17.53
-16.46
-14.30
-11.55
-8.54
-5.36
-1.92
1.77
5.52
8.93
11.56
13.14
13.60
13.10
11.93
10.37
8.66
6.95
5.40
4.22
3.65
3.77
4.43
5.21
5.64
5.41
4.52
3.27
2.02
1.02
0.23
-0.54
-1.56
-2.97
-4.80
-6.94
-9.17
-11.26
-12.86
-13.65
-13.34
-11.87
-9.41
-6.31
-2.95
0.42
3.72
6.90
9.81
12.15
13.59
13.92
13.25
11.91
10.31
8.79
7.49
6.41
5.56
5.02
4.90
5.22
5.79
6.24
6.17
5.35
3.85
1.91
-0.22
-2.44
-4.77
-7.21
-9.65
-11.92
-13.84
-15.39
-16.67
-17.75
-18.52
-18.59
-17.46
-14.79
-10.64
-5.55
-0.36
4.08
7.21
8.89
9.34
8.97
8.22
7.39
6.64
5.98
5.37
4.79
4.28
3.96
3.99
4.46
5.31
6.25
6.87
6.81
6.00
4.60
2.96
1.26
-0.53
-2.64
-5.33
-8.57
-11.98
-14.81
-16.30
-15.99
-13.92
-10.57
-6.67
-2.84
0.61
3.66
6.38
8.75
10.55
11.38
10.92
9.12
6.35
3.27
0.66
-0.97
-1.50
-1.25
-0.74
-0.42
-0.50
-0.91
-1.42
-1.85
-2.17
-2.46
-2.87
-3.53
-4.49
-5.82
-7.67
-10.18
-13.43
-17.20
-20.89
-23.65
-24.67
-23.51
-20.35
-15.82
-10.76
-5.94
-1.76
1.57
4.10
5.80
6.67
6.68
6.03
5.10
4.38
4.25
4.69
5.24
5.25
4.28
2.34
0.03
-1.80
-2.51
-2.03
-0.95
-0.25
-0.71
-2.55
-5.42
-8.63
-11.66
-14.37
-16.89
-19.33
-21.43
-22.59
-22.16
-19.76
-15.59
-10.30
-4.76
0.31
4.51
7.76
10.09
11.59
12.27
12.24
11.63
10.58
9.22
7.71
6.18
4.89
4.07
3.82
4.03
4.34
4.29
3.59
2.26
0.63
-0.93
-2.19
-3.32
-4.68
-6.69
-9.46
-12.83
-16.38
-19.66
-22.32
-24.06
-24.63
-23.75
-21.20
-16.97
-11.43
-5.33
0.38
4.90
7.85
9.34
9.88
10.03
10.14
10.19
9.88
8.98
7.51
5.80
4.41
3.76
3.94
4.65
5.40
5.80
5.69
5.20
4.45
3.44
2.04
0.11
-2.25
-4.69
-6.79
-8.33
-9.51
-10.90
-13.08
-16.25
-19.98
-23.35
-25.23
-24.86
-22.02
-17.12
-10.95
-4.41
1.68
6.74
10.35
12.36
12.87
12.22
10.98
9.73
8.91
8.70
9.02
9.62
10.26
10.81
11.23
11.54
11.71
11.78
11.73
11.56
11.20
10.51
9.36
7.65
5.51
3.14
0.90
-1.00
-2.47
-3.64
-4.76
-5.99
-7.39
-8.88
-10.43
-12.15
-14.21
-16.70
-19.36
-21.55
-22.41
-21.23
-17.76
-12.37
-5.93
0.53
6.18
10.55
13.54
15.28
15.99
15.96
15.51
14.96
14.50
14.17
13.90
13.59
13.23
12.91
12.71
12.59
12.38
11.86
10.99
9.92
8.96
8.36
8.14
8.01
7.57
6.50
4.82
2.77
0.73
-1.06
-2.58
-3.96
-5.40
-7.03
-8.84
-10.76
-12.78
-14.92
-17.24
-19.59
-21.68
-22.98
-23.00
-21.40
-18.21
-13.70
-8.38
-2.82
2.49
7.10
10.80
13.47
15.17
16.00
16.08
15.54
14.53
13.26
11.96
10.88
10.20
10.00
10.30
11.08
12.22
13.49
14.51
14.84
14.20
12.60
10.38
8.08
6.10
4.57
3.29
1.95
0.27
-1.82
-4.24
-6.76
-9.17
-11.25
-12.78
-13.69
-14.10
-14.41
-15.12
-16.63
-18.88
-21.31
-22.97
-22.97
-20.84
-16.69
-11.25
-5.38
0.06
4.60
8.12
10.69
12.42
13.30
13.31
12.48
11.01
9.35
8.03
7.49
7.90
9.11
10.67
12.17
13.31
14.09
14.61
14.99
15.18
14.94
14.05
12.39
10.11
7.53
5.06
2.95
1.31
0.08
-0.92
-1.83
-2.85
-4.06
-5.55
-7.36
-9.45
-11.72
-13.94
-15.86
-17.23
-17.87
-17.63
-16.45
-14.24
-11.03
-6.90
-2.19
2.58
6.79
9.84
11.47
11.82
11.37
10.61
9.96
9.50
9.11
8.68
8.24
7.97
8.11
8.75
9.74
10.69
11.18
10.96
10.01
8.61
7.07
5.64
4.42
3.30
2.11
0.69
-1.06
-3.11
-5.30
-7.39
-9.12
-10.31
-10.98
-11.38
-11.91
-13.00
-14.88
-17.39
-19.99
-22.00
-22.78
-21.98
-19.61
-16.00
-11.63
-7.03
-2.58
1.46
4.96
7.86
10.08
11.51
12.09
11.75
10.66
9.11
7.59
6.57
6.43
7.21
8.62
10.09
11.11
11.31
10.70
9.55
8.24
7.11
6.29
5.68
5.02
4.01
2.44
0.38
-1.93
-4.17
-6.05
-7.54
-8.85
-10.28
-12.04
-14.09
-16.18
-18.01
-19.31
-20.07
-20.34
-20.07
-19.01
-16.86
-13.51
-9.26
-4.73
-0.65
2.59
4.97
6.86
8.62
10.37
11.87
12.69
12.50
11.33
9.64
8.09
7.26
7.44
8.43
9.80
11.09
12.00
12.45
12.55
12.30
11.65
10.45
8.68
6.54
4.39
2.58
1.29
0.39
-0.47
-1.61
-3.16
-4.97
-6.72
-8.23
-9.58
-11.18
-13.50
-16.74
-20.54
-24.02
-26.09
-25.90
-23.28
-18.84
-13.65
-8.72
-4.61
-1.26
1.66
4.46
7.07
9.12
10.09
9.78
8.42
6.64
5.24
4.85
5.64
7.31
9.31
11.09
12.31
12.84
12.74
12.13
11.17
9.97
8.63
7.23
5.80
4.40
3.10
2.03
1.25
0.77
0.40
-0.20
-1.34
-3.19
-5.59
-8.26
-10.92
-13.43
-15.80
-17.97
-19.58
-20.06
-18.87
-15.79
-11.16
-5.78
-0.58
3.68
6.68
8.49
9.43
9.84
9.95
9.83
9.58
9.27
9.01
8.95
9.09
9.38
9.57
9.44
8.85
7.82
6.60
5.45
4.67
4.29
4.14
3.83
2.94
1.25
-1.18
-3.94
-6.50
-8.45
-9.74
-10.73
-12.02
-14.10
-17.09
-20.51
-23.51
-25.22
-25.01
-22.83
-19.01
-14.08
-8.54
-2.87
2.46
6.99
10.14
11.63
11.41
9.91
7.76
5.67
4.16
3.45
3.52
4.13
4.97
5.78
6.39
6.79
7.07
7.29
7.46
7.45
7.13
6.44
5.40
4.25
3.15
2.19
1.38
0.55
-0.49
-1.84
-3.57
-5.74
-8.35
-11.37
-14.64
-17.75
-20.07
-20.86
-19.55
-15.98
-10.57
-4.26
1.83
6.78
10.22
12.24
13.18
13.34
12.86
11.73
10.10
8.30
6.87
6.24
6.55
7.57
8.85
9.94
10.59
10.78
10.63
10.19
9.41
8.18
6.43
4.23
1.84
-0.45
-2.40
-4.03
-5.57
-7.28
-9.31
-11.54
-13.66
-15.38
-16.65
-17.57
-18.32
-18.89
-19.02
-18.25
-16.26
-13.02
-8.94
-4.74
-1.06
1.71
3.66
5.11
6.37
7.51
8.35
8.59
8.08
6.98
5.67
4.58
3.97
3.87
4.10
4.46
4.91
5.52
6.30
7.05
7.35
6.78
5.09
2.54
-0.31
-2.82
-4.64
-5.79
-6.68
-7.78
-9.33
-11.34
-13.54
-15.60
-17.31
-18.54
-19.15
-18.95
-17.75
-15.44
-12.16
-8.24
-4.14
-0.29
2.99
5.46
6.95
7.38
6.83
5.67
4.38
3.38
2.91
2.96
3.37
4.00
4.77
5.70
6.64
7.31
7.33
6.44
4.73
2.56
0.42
-1.27
-2.36
-2.99
-3.41
-3.84
-4.47
-5.38
-6.65
-8.36
-10.57
-13.12
-15.65
-17.57
-18.16
-16.88
-13.60
-8.67
-2.82
3.02
8.03
11.72
13.88
14.55
13.93
12.29
9.99
7.49
5.26
3.63
2.74
2.48
2.61
2.84
2.93
2.72
2.15
1.23
0.14
-0.89
-1.67
-2.14
-2.51
-3.08
-4.15
-5.80
-7.91
-10.32
-12.95
-15.84
-18.96
-22.12
-24.74
-26.10
-25.53
-22.68
-17.65
-10.83
-2.85
5.57
13.63
20.59
25.88
29.25
30.91
31.28
30.88
30.10
29.19
28.26
27.45
26.87
26.55
26.44
26.40
26.44
26.66
27.30
28.46
30.08
31.82
33.12
33.45
32.37
29.57
24.81
18.04
9.43
-0.48
-10.85
-20.73
-29.19
-35.61
-39.73
-41.64
-41.73
-40.58
-38.78
-36.85
-35.08
-33.52
-32.09
-30.60
-28.97
-27.25
-25.60
-24.24
-23.21
-22.43
-21.64
-20.60
-19.14
-17.31
-15.35
-13.66
-12.55
-11.98
-11.46
-10.11
-7.11
-1.97
5.13
13.46
22.12
30.28
37.27
42.54
45.35
44.70
39.54
29.03
13.20
-6.84
-28.95
-50.36
-68.28
-80.56
-86.21
-85.49
-79.66
-70.31
-58.85
-46.16
-32.72
-18.93
-5.53
6.45
16.07
22.87
27.23
30.12
32.60
35.35
38.29
40.81
42.12
41.84
40.03
37.26
34.16
31.16
28.29
25.25
21.77
17.72
13.36
9.16
5.64
3.15
1.77
1.29
1.13
0.63
-0.94
-4.03
-8.64
-14.19
-19.68
-24.03
-26.41
-26.70
-25.38
-23.35
-21.34
-19.62
-17.86
-15.41
-11.69
-6.58
-0.54
5.54
10.77
14.62
17.09
18.65
19.94
21.38
22.91
24.14
24.55
23.94
22.53
20.98
19.92
19.65
19.80
19.54
18.02
14.90
10.56
6.00
2.25
-0.13
-1.31
-2.02
-3.18
-5.40
-8.85
-13.25
-18.01
-22.41
-25.79
-27.53
-27.25
-24.88
-20.74
-15.50
-9.94
-4.69
-0.07
3.86
7.20
10.03
12.27
13.85
14.66
14.74
14.24
13.47
12.69
12.20
12.17
12.67
13.61
14.78
15.88
16.61
16.77
16.22
14.91
12.82
9.98
6.57
2.89
-0.53
-3.11
-4.33
-3.99
-2.29
0.16
2.55
4.14
4.40
3.21
0.84
-2.12
-4.90
-6.74
-7.16
-5.95
-3.27
0.42
4.61
8.80
12.65
15.95
18.66
20.69
21.99
22.43
21.93
20.53
18.43
16.00
13.67
11.81
10.48
9.51
8.49
7.11
5.32
3.33
1.52
0.07
-1.07
-2.29
-4.00
-6.33
-9.04
-11.60
-13.48
-14.47
-14.78
-14.98
-15.69
-17.33
-19.97
-23.24
-26.54
-29.21
-30.64
-30.45
-28.59
-25.30
-20.99
-16.16
-11.14
-6.02
-0.85
4.30
9.07
12.91
15.28
15.96
15.18
13.60
12.02
11.03
10.78
10.99
11.21
11.09
10.51
9.69
8.87
8.19
7.60
6.88
5.74
3.97
1.55
-1.39
-4.50
-7.34
-9.53
-10.83
-11.28
-11.26
-11.35
-12.11
-13.89
-16.53
-19.50
-21.97
-23.26
-23.00
-21.30
-18.50
-15.00
-11.03
-6.68
-1.96
3.03
8.16
13.22
17.98
22.27
25.89
28.67
30.60
31.94
33.25
35.16
38.07
41.86
45.96
49.55
52.05
53.27
53.45
52.89
51.73
49.89
47.15
43.37
38.68
33.42
27.92
22.42
17.02
11.71
6.43
1.04
-4.64
-10.81
-17.62
-25.02
-32.69
-40.12
-46.70
-51.72
-54.46
-54.21
-50.42
-42.99
-32.45
-20.09
-7.59
3.38
11.75
17.36
20.81
23.02
24.74
26.29
27.55
28.29
28.43
28.25
28.18
28.57
29.47
30.60
31.49
31.77
31.42
30.65
29.79
29.05
28.33
27.34
25.66
23.08
19.67
15.91
12.42
9.73
8.06
7.15
6.37
4.97
2.32
-1.79
-7.07
-12.83
-18.12
-22.03
-23.95
-23.66
-21.51
-18.17
-14.61
-11.61
-9.71
-8.99
-9.20
-10.09
-11.40
-13.14
-15.35
-18.02
-20.99
-23.95
-26.61
-28.76
-30.35
-31.26
-31.37
-30.51
-28.64
-25.99
-22.99
-20.20
-18.01
-16.57
-15.84
-15.64
-15.83
-16.28
-16.85
-17.32
-17.53
-17.46
-17.49
-18.16
-19.88
-22.62
-25.65
-27.84
-28.01
-25.57
-20.65
-14.10
-7.24
-1.31
2.81
4.77
4.67
2.91
-0.07
-3.84
-7.97
-12.04
-15.51
-17.90
-18.82
-18.21
-16.56
-14.69
-13.42
-13.27
-14.23
-15.87
-17.65
-19.15
-20.38
-21.58
-23.13
-25.26
-28.00
-31.23
-34.74
-38.49
-42.51
-46.79
-51.15
-54.98
-57.33
-57.05
-53.19
-45.31
-33.79
-19.69
-4.53
10.15
23.21
34.20
43.34
51.32
58.94
66.82
75.18
83.75
91.85
98.50
102.63
103.49
100.89
95.40
88.24
80.86
74.48
69.66
66.27
63.72
61.38
58.87
56.16
53.35
50.51
47.50
44.15
40.17
35.11
28.31
18.97
6.48
-9.21
-27.23
-45.88
-63.01
-76.72
-85.83
-90.06
-89.95
-86.47
-80.63
-73.43
-65.78
-58.52
-52.40
-47.80
-44.72
-42.70
-40.97
-38.79
-35.72
-31.79
-27.52
-23.58
-20.47
-18.30
-16.83
-15.64
-14.42
-13.09
-11.87
-10.99
-10.57
-10.48
-10.44
-10.22
-9.73
-9.27
-9.29
-10.22
-12.22
-15.07
-18.08
-20.34
-21.04
-19.66
-16.28
-11.44
-5.92
-0.39
4.73
9.31
13.23
16.27
18.03
18.12
16.50
13.64
10.35
7.58
5.98
5.77
6.70
8.31
10.08
11.68
12.88
13.52
13.46
12.64
11.15
9.18
7.11
5.25
3.77
2.68
1.85
1.13
0.31
-0.80
-2.52
-5.11
-8.71
-13.02
-17.31
-20.56
-21.81
-20.60
-17.06
-11.90
-6.09
-0.46
4.45
8.37
11.12
12.55
12.59
11.39
9.47
7.53
6.27
5.95
6.52
7.54
8.61
9.52
10.36
11.30
12.38
13.46
14.17
14.17
13.22
11.30
8.54
5.20
1.64
-1.74
-4.61
-6.97
-9.24
-12.14
-16.25
-21.55
-27.13
-31.39
-32.82
-30.61
-25.12
-17.67
-9.87
-2.90
2.74
7.14
10.48
12.73
13.59
12.81
10.51
7.31
4.14
1.77
0.60
0.48
0.98
1.68
2.37
3.06
3.76
4.37
4.57
3.98
2.32
-0.35
-3.56
-6.66
-9.07
-10.53
-11.23
-11.77
-12.71
-14.39
-16.73
-19.33
-21.71
-23.41
-24.15
-23.70
-21.92
-18.65
-13.95
-8.09
-1.66
4.56
9.87
13.77
16.07
16.88
16.45
15.16
13.44
11.75
10.43
9.68
9.39
9.32
9.25
9.10
8.92
8.74
8.45
7.77
6.42
4.37
1.90
-0.50
-2.48
-4.01
-5.43
-7.29
-9.96
-13.47
-17.49
-21.45
-24.80
-26.97
-27.48
-25.94
-22.21
-16.59
-9.82
-2.97
3.03
7.64
10.83
12.95
14.42
15.46
16.04
16.05
15.44
14.37
13.17
12.20
11.71
11.74
12.15
12.70
13.14
13.28
13.02
12.28
11.07
9.42
7.40
5.19
2.96
0.95
-0.88
-2.68
-4.74
-7.25
-10.19
-13.34
-16.40
-19.22
-21.82
-24.17
-25.98
-26.57
-25.21
-21.51
-15.76
-8.93
-2.16
3.66
8.24
11.74
14.42
16.25
17.03
16.57
15.07
13.17
11.72
11.27
11.82
12.88
13.77
14.09
13.94
13.72
13.82
14.29
14.74
14.64
13.60
11.58
8.89
6.00
3.28
0.92
-1.08
-2.83
-4.47
-6.09
-7.80
-9.78
-12.19
-15.10
-18.28
-21.17
-22.98
-22.98
-20.72
-16.30
-10.31
-3.66
2.71
8.11
12.22
15.03
16.66
17.22
16.78
15.45
13.40
10.99
8.73
7.19
6.78
7.55
9.16
10.91
12.12
12.39
11.77
10.69
9.63
8.75
7.80
6.32
3.99
0.94
-2.27
-4.94
-6.66
-7.59
-8.34
-9.70
-12.09
-15.45
-19.21
-22.52
-24.60
-24.92
-23.34
-19.99
-15.22
-9.45
-3.12
3.29
9.30
14.34
17.86
19.42
18.92
16.69
13.54
10.41
8.13
7.12
7.28
8.27
9.65
11.11
12.49
13.65
14.36
14.35
13.36
11.32
8.53
5.47
2.69
0.48
-1.20
-2.70
-4.51
-6.96
-10.11
-13.74
-17.53
-21.08
-24.11
-26.27
-27.20
-26.54
-24.07
-19.99
-14.82
-9.41
-4.47
-0.36
3.02
6.09
9.23
12.50
15.50
17.62
18.32
17.52
15.69
13.61
12.11
11.56
11.94
12.75
13.46
13.75
13.64
13.36
13.10
12.84
12.21
10.82
8.38
5.05
1.29
-2.23
-5.11
-7.37
-9.36
-11.68
-14.65
-18.19
-21.75
-24.68
-26.41
-26.63
-25.27
-22.35
-17.95
-12.30
-5.89
0.58
6.37
10.90
14.05
16.01
17.13
17.62
17.51
16.79
15.55
14.08
12.81
12.15
12.25
12.98
13.93
14.66
14.74
13.97
12.35
10.13
7.71
5.48
3.75
2.58
1.79
1.06
0.08
-1.36
-3.36
-5.97
-9.25
-13.18
-17.56
-21.89
-25.44
-27.35
-26.97
-24.18
-19.33
-13.23
-6.81
-0.82
4.26
8.29
11.27
13.30
14.45
14.88
14.71
14.10
13.21
12.14
10.98
9.80
8.71
7.89
7.56
7.83
8.67
9.84
10.95
11.55
11.28
9.97
7.73
4.91
1.95
-0.82
-3.21
-5.28
-7.22
-9.25
-11.52
-14.06
-16.76
-19.29
-21.19
-21.91
-20.95
-18.07
-13.46
-7.75
-1.76
3.68
8.15
11.63
14.26
16.11
17.06
16.89
15.52
13.25
10.69
8.52
7.29
7.11
7.73
8.68
9.50
9.87
9.66
8.89
7.69
6.23
4.67
3.14
1.58
-0.17
-2.34
-5.08
-8.36
-11.98
-15.71
-19.26
-22.32
-24.55
-25.51
-24.72
-21.92
-17.12
-10.81
-3.77
3.05
8.85
13.04
15.39
16.01
15.23
13.57
11.58
9.68
8.10
6.79
5.62
4.50
3.51
2.82
2.55
2.56
2.55
2.19
1.37
0.25
-0.78
-1.42
-1.61
-1.65
-2.09
-3.39
-5.81
-9.22
-13.26
-17.42
-21.13
-23.86
-25.05
-24.23
-21.12
-15.84
-9.08
-1.87
4.62
9.49
12.47
13.82
14.13
13.93
13.45
12.62
11.23
9.23
6.87
4.72
3.38
3.23
4.24
5.82
7.12
7.38
6.34
4.38
2.30
0.90
0.45
0.56
0.49
-0.44
-2.40
-5.12
-8.14
-11.12
-14.03
-16.89
-19.51
-21.26
-21.26
-18.81
-13.73
-6.63
1.33
8.78
14.57
17.99
18.96
17.90
15.57
12.84
10.45
8.79
7.77
7.12
6.41
5.44
4.23
2.96
1.89
1.09
0.48
-0.21
-1.17
-2.53
-4.23
-6.15
-8.21
-10.47
-13.26
-16.91
-21.50
-26.64
-31.35
-34.34
-34.48
-31.35
-25.39
-17.78
-9.94
-2.91
2.81
7.32
10.97
14.02
16.39
17.86
18.08
16.92
14.57
11.47
8.26
5.62
4.05
3.82
4.76
6.36
7.89
8.60
8.09
6.41
4.03
1.60
-0.42
-1.98
-3.42
-5.25
-7.80
-11.17
-15.09
-19.15
-22.94
-26.03
-27.99
-28.39
-26.85
-23.26
-17.87
-11.31
-4.34
2.25
7.91
12.31
15.32
16.94
17.25
16.49
15.01
13.25
11.63
10.42
9.73
9.46
9.49
9.64
9.75
9.68
9.23
8.34
7.03
5.51
4.03
2.81
1.86
0.87
-0.61
-3.02
-6.51
-10.93
-15.84
-20.75
-25.07
-28.28
-29.86
-29.35
-26.56
-21.63
-15.17
-8.01
-1.02
5.15
10.24
14.16
16.98
18.67
19.20
18.62
17.21
15.48
13.98
13.16
13.10
13.65
14.43
15.06
15.26
15.01
14.41
13.62
12.73
11.61
10.10
8.03
5.44
2.60
-0.12
-2.36
-4.02
-5.24
-6.45
-8.06
-10.42
-13.62
-17.46
-21.51
-25.15
-27.73
-28.60
-27.41
-24.11
-19.01
-12.76
-6.13
0.21
5.80
10.41
13.97
16.36
17.49
17.36
16.26
14.75
13.49
13.04
13.53
14.67
15.89
16.68
16.77
16.26
15.44
14.60
13.89
13.19
12.29
10.96
9.09
6.68
3.88
0.95
-1.84
-4.27
-6.32
-8.06
-9.70
-11.46
-13.54
-16.08
-19.10
-22.41
-25.50
-27.57
-27.78
-25.53
-20.83
-14.27
-6.91
0.12
5.97
10.31
13.29
15.26
16.42
16.79
16.28
14.93
13.16
11.60
10.87
11.20
12.28
13.43
13.99
13.71
12.88
12.11
11.82
11.92
11.80
10.70
8.17
4.38
0.04
-3.96
-7.00
-8.93
-10.03
-10.74
-11.44
-12.34
-13.62
-15.48
-18.19
-21.84
-26.12
-30.25
-33.09
-33.59
-31.18
-25.98
-18.76
-10.65
-2.72
4.27
9.97
14.33
17.32
18.97
19.29
18.47
16.94
15.32
14.19
13.88
14.30
14.98
15.41
15.24
14.61
13.87
13.47
13.58
14.04
14.39
14.18
13.15
11.29
8.92
6.41
4.13
2.26
0.72
-0.76
-2.56
-4.99
-8.19
-11.92
-15.85
-19.57
-22.71
-25.16
-26.80
-27.52
-26.97
-24.75
-20.46
-14.05
-5.89
3.12
11.78
19.00
24.11
27.16
28.85
30.28
32.43
35.72
39.89
44.03
47.29
49.20
50.12
51.02
53.07
57.00
62.70
69.28
75.34
79.80
82.23
83.04
83.20
83.85
86.00
90.31
97.21
106.74
118.17
129.49
137.43
138.14
128.71
108.58
80.42
49.46
21.74
2.05
-7.52
-7.64
-0.63
10.87
25.06
41.13
58.86
77.95
97.79
117.38
135.75
152.08
165.90
177.10
185.84
192.35
196.81
199.31
199.90
198.57
195.26
189.78
181.68
170.30
154.85
134.75
109.98
81.19
49.94
18.36
-11.18
-36.79
-57.65
-74.31
-88.45
-102.16
-116.98
-133.02
-148.81
-161.80
-169.47
-170.16
-163.59
-150.65
-132.84
-111.59
-88.05
-63.16
-37.97
-13.85
7.49
24.15
34.52
37.59
33.23
22.12
5.68
-14.25
-35.57
-56.29
-74.58
-89.09
-99.02
-104.32
-105.55
-103.72
-100.00
-95.35
-90.46
-85.61
-80.87
-76.23
-71.86
-68.04
-65.20
-63.79
-64.20
-66.67
-71.17
-77.34
-84.59
-92.19
-99.51
-106.01
-111.44
-115.61
-118.43
-119.90
-120.25
-120.09
-120.30
-121.80
-124.96
-129.41
-133.95
-137.04
-137.39
-134.38
-128.18
-119.44
-108.88
-97.05
-84.33
-71.04
-57.67
-44.86
-33.23
-23.16
-14.58
-7.14
-0.34
6.22
12.68
18.97
24.72
29.52
32.91
34.52
34.07
31.40
26.45
19.23
9.88
-1.28
-13.75
-26.89
-40.05
-52.72
-64.66
-75.88
-86.29
-95.55
-103.02
-107.90
-109.83
-108.98
-106.10
-102.12
-97.64
-92.80
-87.30
-80.76
-72.98
-64.13
-54.59
-44.73
-34.73
-24.83
-15.34
-6.72
0.56
6.37
11.16
15.80
21.29
28.33
37.05
46.93
56.99
66.24
74.08
80.40
85.64
90.48
95.53
101.05
106.98
113.01
118.75
123.87
128.09
131.18
133.06
133.99
134.79
136.68
140.68
146.79
153.25
156.64
152.92
139.05
114.36
80.96
42.80
4.20
-31.68
-63.42
-90.89
-114.31
-133.58
-148.32
-158.20
-163.80
-166.49
-168.04
-169.75
-171.90
-173.69
-173.77
-170.95
-164.80
-155.77
-144.97
-133.69
-123.07
-113.88
-106.46
-100.82
-96.65
-93.47
-90.58
-87.27
-83.08
-78.07
-73.03
-69.21
-67.90
-69.87
-74.90
-81.85
-88.91
-94.27
-96.48
-94.70
-88.69
-78.69
-65.31
-49.47
-32.42
-15.52
-0.13
12.83
22.98
30.54
36.23
40.85
45.11
49.09
52.44
54.49
54.83
53.74
52.22
51.88
53.98
58.98
66.09
73.66
79.74
83.04
83.11
80.32
75.49
69.42
62.73
55.89
49.32
43.23
37.56
31.92
25.71
18.74
11.44
4.93
0.65
-0.31
2.28
7.79
14.95
22.35
28.80
33.50
36.01
36.25
34.40
30.96
26.71
22.60
19.50
17.98
18.11
19.48
21.41
23.13
23.99
23.68
22.18
19.80
17.00
14.14
11.39
8.80
6.26
3.68
0.96
-2.01
-5.29
-8.72
-12.08
-14.97
-17.25
-19.12
-21.03
-23.46
-26.50
-29.45
-31.12
-30.21
-25.99
-18.65
-9.15
1.26
11.56
21.08
29.44
36.28
41.11
43.65
44.06
42.96
41.36
40.15
39.79
40.19
40.91
41.45
41.59
41.41
41.06
40.65
40.18
39.63
38.90
37.92
36.49
34.29
30.86
25.85
19.17
11.29
3.04
-4.62
-10.95
-15.82
-19.66
-23.27
-27.50
-32.71
-38.65
-44.40
-48.67
-50.32
-48.72
-43.91
-36.54
-27.55
-17.78
-8.03
1.01
8.64
14.28
17.71
19.20
19.51
19.57
19.94
20.65
21.33
21.68
21.84
22.50
24.40
27.87
32.49
37.35
41.48
44.33
46.00
46.97
47.69
48.43
49.07
49.39
49.22
48.63
47.95
47.65
48.08
49.44
51.62
54.21
56.48
57.71
57.45
55.94
54.35
54.55
58.45
67.19
80.48
96.70
113.45
128.68
141.44
152.11
161.88
171.89
182.70
194.18
205.89
217.40
228.31
238.23
246.69
253.58
259.71
266.97
277.64
293.12
312.59
332.77
348.90
356.79
354.51
343.08
325.68
305.98
286.68
268.90
252.70
237.94
224.95
214.56
207.50
203.75
202.34
201.73
200.54
198.11
194.81
191.61
189.44
188.48
187.81
185.57
179.47
167.58
148.82
123.15
91.26
54.04
12.05
-34.63
-86.23
-142.80
-203.63
-267.01
-330.47
-391.32
-447.34
-497.30
-541.11
-579.52
-613.83
-645.61
-676.49
-707.69
-739.46
-770.38
-797.38
-816.39
-823.72
-817.48
-798.24
-768.59
-732.01
-691.48
-648.85
-605.14
-561.22
-518.56
-478.91
-443.71
-413.23
-386.11
-359.92
-332.14
-301.36
-267.70
-232.95
-199.59
-169.95
-145.33
-125.79
-110.12
-96.33
-82.24
-66.25
-47.85
-27.71
-7.53
10.87
26.24
38.61
49.18
59.62
71.22
83.91
96.33
106.29
111.86
112.29
108.19
101.49
94.51
89.07
85.88
84.69
84.67
84.96
84.66
82.40
76.27
64.32
45.86
22.53
-1.46
-20.65
-30.48
-29.44
-19.76
-6.26
5.73
12.56
12.99
7.77
-1.74
-14.57
-30.26
-48.59
-68.92
-90.03
-110.40
-128.40
-142.86
-153.13
-158.96
-160.35
-157.45
-150.53
-140.07
-126.75
-111.49
-95.36
-79.46
-64.69
-51.69
-40.68
-31.48
-23.52
-16.08
-8.52
-0.57
7.67
15.74
23.11
29.42
34.68
39.20
43.52
48.07
53.03
58.20
63.19
67.50
70.86
73.30
75.14
76.90
79.00
81.63
84.70
87.95
91.12
94.19
97.46
101.47
106.79
113.77
122.35
132.14
142.57
153.18
163.79
174.62
186.08
198.68
212.89
229.10
247.49
267.78
288.92
309.00
325.51
335.96
338.73
333.63
321.84
305.25
285.49
263.38
238.92
211.97
183.05
153.72
126.22
102.65
84.06
70.05
59.25
50.09
41.72
34.35
28.96
26.50
27.22
30.46
34.95
39.34
42.56
43.99
43.33
40.42
35.33
28.55
21.05
14.25
9.60
8.10
10.06
14.95
21.68
28.89
35.33
40.13
43.03
44.30
44.50
44.16
43.48
42.18
39.77
35.73
29.75
21.75
11.89
0.65
-11.01
-21.66
-29.53
-33.04
-31.41
-24.96
-15.03
-3.37
8.54
19.83
30.24
39.73
48.31
55.88
62.50
68.53
74.69
81.86
90.81
101.93
115.10
129.69
144.69
158.84
170.93
179.95
185.41
187.43
186.73
184.53
182.16
180.78
181.16
183.60
187.99
193.90
200.68
207.55
213.83
219.06
223.36
227.37
231.96
237.62
243.85
249.04
250.93
247.60
238.32
223.66
204.86
182.69
156.63
125.13
86.74
41.61
-7.75
-56.76
-100.36
-134.75
-158.55
-172.80
-179.96
-182.70
-183.10
-182.40
-181.33
-180.44
-180.25
-181.11
-182.93
-185.12
-186.76
-186.86
-184.73
-180.05
-172.89
-163.63
-152.80
-141.06
-129.09
-117.57
-107.07
-97.95
-90.25
-83.66
-77.48
-70.62
-61.62
-48.92
-31.19
-7.84
20.40
51.22
80.72
104.04
116.38
114.12
95.77
62.28
16.76
-36.31
-92.11
-146.37
-196.02
-239.32
-275.80
-305.73
-329.58
-347.44
-358.88
-363.08
-359.48
-348.39
-331.32
-310.81
-289.58
-269.65
-251.74
-235.34
-219.33
-202.69
-184.83
-165.44
-144.26
-121.01
-95.88
-70.06
-45.95
-26.55
-14.32
-10.10
-12.70
-19.44
-27.12
-33.06
-35.42
-33.10
-25.37
-11.89
6.86
29.25
52.47
73.35
89.45
99.93
105.66
108.52
110.29
111.84
113.03
113.25
112.22
110.47
109.06
108.96
110.39
112.58
114.18
113.95
111.27
106.33
99.76
92.23
84.08
75.34
66.00
56.34
47.08
39.30
34.15
32.43
34.29
39.08
45.47
51.77
56.43
58.50
57.94
55.57
52.71
50.70
50.49
52.44
56.37
61.81
68.29
75.45
83.07
90.98
98.92
106.64
113.96
120.88
127.53
133.92
139.80
144.69
148.09
149.83
150.22
149.97
149.78
149.84
149.63
148.07
144.07
137.08
127.45
116.30
105.00
94.54
85.00
75.51
64.75
51.74
36.58
20.69
6.34
-4.21
-9.55
-9.57
-5.37
1.28
8.50
14.76
19.28
22.08
23.76
25.05
26.05
25.83
22.41
13.56
-2.05
-23.99
-50.06
-77.27
-103.16
-126.82
-148.81
-170.19
-191.28
-210.98
-226.86
-236.04
-236.31
-226.75
-207.94
-181.42
-149.17
-113.03
-74.40
-34.38
6.15
46.39
85.48
122.31
155.09
181.16
196.99
199.06
185.05
155.04
112.02
61.38
9.26
-39.26
-81.51
-117.36
-148.17
-175.19
-198.44
-216.48
-227.41
-230.29
-226.04
-217.31
-207.26
-197.98
-189.56
-180.21
-167.55
-150.19
-128.63
-105.19
-82.79
-63.71
-48.78
-37.42
-28.36
-20.53
-13.46
-7.32
-2.47
0.93
3.20
5.08
7.42
10.76
14.95
19.18
22.33
23.51
22.55
20.04
16.97
14.13
11.63
8.83
4.75
-1.37
-9.68
-19.69
-30.69
-42.09
-53.56
-64.76
-74.82
-82.11
-84.41
-79.63
-66.65
-45.81
-18.90
11.41
42.37
71.76
98.13
120.68
139.10
153.44
164.28
172.81
180.73
189.81
201.43
216.00
232.80
250.11
265.70
277.46
284.01
285.12
281.58
274.76
265.93
255.63
243.43
228.13
208.40
183.44
153.38
119.27
82.86
46.12
10.84
-21.82
-51.69
-79.83
-108.29
-139.46
-174.82
-213.93
-253.91
-289.87
-316.27
-328.55
-324.49
-304.84
-273.01
-234.06
-193.54
-156.24
-125.23
-101.50
-84.07
-70.66
-58.71
-46.12
-31.84
-15.72
1.64
19.27
35.85
49.74
59.15
62.63
59.66
50.99
38.53
24.60
11.04
-1.44
-13.15
-24.78
-36.59
-47.87
-57.06
-62.31
-62.20
-56.25
-45.00
-29.75
-12.18
5.90
22.90
37.57
49.33
58.38
65.56
72.02
78.68
85.72
92.55
98.09
101.33
101.73
99.50
95.40
90.45
85.53
81.15
77.46
74.39
71.91
70.12
69.27
69.55
70.90
72.96
75.16
76.97
78.17
78.74
78.66
77.61
74.95
69.94
62.17
51.75
39.18
25.01
9.58
-7.02
-24.87
-43.95
-64.16
-85.36
-107.40
-129.95
-152.01
-171.73
-186.48
-193.71
-191.91
-181.50
-164.77
-145.12
-125.74
-108.69
-94.57
-83.00
-73.41
-65.63
-59.90
-56.30
-54.28
-52.46
-49.06
-42.71
-33.05
-20.87
-7.75
4.68
15.22
23.34
28.98
32.43
34.13
34.68
34.83
35.24
36.13
37.08
37.01
34.66
29.25
20.86
10.48
-0.43
-10.51
-18.82
-24.87
-28.48
-29.56
-28.10
-24.37
-18.95
-12.77
-6.79
-1.72
2.16
4.88
6.57
7.15
6.32
3.64
-1.21
-8.13
-16.56
-25.54
-33.95
-40.94
-46.22
-50.11
-53.40
-56.94
-61.21
-66.14
-71.18
-75.69
-79.22
-81.71
-83.42
-84.63
-85.37
-85.29
-83.75
-80.15
-74.25
-66.46
-57.83
-49.61
-42.82
-37.71
-33.55
-28.87
-21.99
-11.64
2.54
19.85
38.73
57.21
73.34
85.68
93.62
97.54
98.62
98.40
98.07
98.10
98.06
97.07
94.30
89.49
82.91
75.23
67.04
58.80
50.91
43.94
38.78
36.40
37.59
42.64
51.33
62.98
76.37
89.57
99.78
103.70
98.43
82.69
57.59
26.61
-5.51
-34.45
-57.59
-74.34
-85.40
-91.58
-92.99
-89.09
-79.27
-63.65
-43.26
-19.47
6.63
34.56
64.05
94.12
122.59
146.17
161.66
167.16
162.85
150.59
132.93
112.04
89.25
65.34
41.04
17.31
-4.91
-25.17
-43.68
-60.95
-77.16
-91.63
-103.02
-109.97
-111.82
-108.91
-102.26
-93.05
-82.10
-69.93
-56.96
-43.81
-31.37
-20.60
-12.28
-6.86
-4.39
-4.53
-6.56
-9.40
-11.71
-12.27
-10.26
-5.66
0.63
7.06
11.82
13.37
10.80
4.01
-6.45
-19.43
-33.50
-47.11
-58.83
-67.58
-72.74
-74.30
-72.70
-68.78
-63.36
-57.10
-50.35
-43.23
-35.78
-28.09
-20.41
-13.01
-6.14
0.15
5.95
11.43
16.74
21.88
26.56
30.20
31.90
30.73
26.11
18.07
7.62
-3.43
-12.84
-18.50
-19.04
-14.17
-4.69
7.71
20.88
32.78
41.89
47.53
49.97
50.16
49.44
49.07
49.92
52.30
55.95
60.24
64.27
67.15
68.05
66.47
62.43
56.41
49.36
42.28
35.90
30.38
25.33
20.08
14.13
7.47
0.69
-5.33
-9.80
-12.50
-13.96
-15.35
-18.10
-23.45
-32.01
-43.47
-56.62
-69.57
-80.21
-86.79
-88.40
-85.23
-78.48
-69.98
-61.58
-54.66
-49.85
-46.99
-45.43
-44.23
-42.42
-39.10
-33.53
-25.26
-14.30
-1.29
12.61
25.94
37.45
46.53
53.46
59.16
64.81
71.27
78.85
87.29
95.96
104.11
110.96
115.76
117.86
116.77
112.35
104.85
94.91
83.35
71.01
58.55
46.45
34.99
24.40
14.98
7.20
1.59
-1.57
-2.76
-3.51
-6.16
-13.09
-25.75
-43.89
-65.89
-89.68
-114.00
-139.05
-166.04
-196.10
-229.00
-262.70
-293.80
-318.71
-334.78
-340.80
-336.87
-323.93
-303.33
-276.65
-245.77
-212.93
-180.53
-150.74
-125.14
-104.39
-88.25
-75.84
-65.98
-57.59
-49.96
-42.80
-36.14
-30.18
-25.14
-21.21
-18.63
-17.62
-18.29
-20.42
-23.24
-25.46
-25.58
-22.40
-15.51
-5.38
6.82
19.75
32.41
44.31
55.35
65.42
74.10
80.60
84.06
83.96
80.51
74.63
67.81
61.58
57.13
55.07
55.35
57.50
60.76
64.39
67.66
70.03
71.17
70.92
69.33
66.56
62.78
58.18
52.99
47.52
42.18
37.33
33.17
29.64
26.37
22.89
18.75
13.73
7.94
1.85
-3.72
-7.75
-9.20
-7.35
-2.01
6.34
16.65
27.69
38.37
47.94
56.05
62.56
67.41
70.59
72.28
72.89
73.20
74.07
76.23
79.95
84.92
90.40
95.53
99.66
102.55
104.36
105.45
106.10
106.37
106.07
104.95
102.77
99.49
95.15
89.84
83.59
76.49
68.71
60.55
52.39
44.59
37.37
30.90
25.39
21.34
19.49
20.67
25.41
33.60
44.43
56.58
68.67
79.71
89.30
97.75
105.81
114.23
123.42
133.03
141.87
148.09
149.53
144.34
131.39
110.60
82.90
50.10
14.52
-21.39
-55.38
-85.64
-111.00
-130.92
-145.46
-155.03
-160.26
-161.75
-160.03
-155.46
-148.24
-138.55
-126.60
-112.81
-97.70
-81.71
-64.94
-46.91
-26.80
-3.90
21.77
49.19
76.52
101.72
123.30
140.67
154.17
164.55
172.48
178.38
182.55
185.56
188.42
192.37
198.30
206.03
214.02
219.71
220.51
214.97
203.50
188.27
172.28
158.02
146.59
137.41
128.85
119.06
106.53
90.20
69.28
43.18
11.76
-24.16
-62.57
-100.40
-134.26
-161.30
-179.79
-189.17
-189.62
-181.61
-165.70
-143.01
-115.82
-88.01
-64.70
-51.05
-50.66
-64.28
-89.61
-122.28
-157.67
-192.30
-224.60
-254.29
-281.27
-304.63
-322.47
-332.53
-333.08
-323.56
-304.69
-278.17
-246.33
-211.94
-178.07
-147.86
-124.07
-108.44
-101.33
-101.71
-107.58
-116.65
-126.85
-136.60
-144.80
-150.75
-154.11
-154.85
-153.27
-149.74
-144.41
-136.95
-126.58
-112.37
-93.86
-71.43
-46.50
-21.14
2.51
23.04
39.99
53.88
65.72
76.50
86.84
96.93
106.72
116.14
125.15
133.80
142.03
149.69
156.53
162.35
167.07
170.73
173.46
175.41
176.81
177.99
179.43
181.67
185.13
189.90
195.73
202.13
208.59
214.81
220.83
226.96
233.69
241.44
250.41
260.29
270.23
278.96
285.00
286.99
283.86
274.77
259.11
236.38
206.54
170.21
128.94
85.00
40.89
-1.38
-40.68
-76.64
-109.14
-137.75
-161.59
-179.55
-190.84
-195.30
-193.50
-186.36
-174.81
-159.55
-141.09
-119.90
-96.73
-72.70
-49.19
-27.65
-9.12
6.06
18.41
29.14
39.42
49.64
58.92
65.16
65.82
58.93
44.06
22.56
-2.85
-28.92
-52.88
-72.96
-88.50
-99.79
-107.48
-112.21
-114.24
-113.27
-108.36
-98.11
-81.05
-56.49
-25.50
8.47
39.69
61.31
67.35
54.56
23.58
-21.42
-74.20
-128.51
-179.60
-224.88
-263.50
-295.52
-321.23
-340.89
-354.80
-363.31
-366.74
-365.24
-358.73
-347.02
-330.12
-308.48
-283.29
-256.23
-229.27
-204.24
-182.42
-164.29
-149.42
-136.45
-123.42
-108.22
-89.19
-65.62
-38.14
-8.51
20.87
47.71
70.53
89.02
103.91
116.51
128.11
139.60
151.31
163.20
175.10
186.84
198.40
209.71
220.74
231.50
242.09
252.79
263.94
275.68
287.69
299.08
308.47
314.49
316.28
313.84
308.19
300.95
293.75
287.71
282.92
278.35
272.04
261.62
244.85
220.20
187.22
146.82
101.25
53.80
8.10
-32.70
-66.74
-93.78
-115.03
-132.44
-147.84
-162.26
-175.68
-187.19
-195.43
-199.07
-197.29
-190.10
-178.52
-164.34
-149.78
-136.85
-126.82
-120.07
-116.32
-115.11
-116.09
-119.14
-124.10
-130.39
-137.03
-142.79
-146.66
-148.21
-147.72
-145.97
-143.85
-142.10
-141.01
-140.48
-140.05
-139.19
-137.43
-134.49
-130.24
-124.57
-117.18
-107.60
-95.42
-80.64
-64.08
-47.27
-32.15
-20.32
-12.50
-8.24
-6.26
-5.06
-3.46
-0.89
2.85
7.97
14.92
24.41
37.08
53.15
72.23
93.33
115.02
135.77
154.18
169.37
181.12
189.97
197.07
203.79
211.25
219.88
229.31
238.46
245.82
249.82
249.28
243.82
234.24
222.60
211.60
203.48
198.69
195.16
188.67
174.32
148.40
110.02
61.45
7.31
-47.03
-97.01
-139.75
-174.24
-200.84
-220.74
-235.52
-246.70
-255.59
-262.95
-268.95
-273.20
-275.09
-274.12
-270.11
-263.32
-254.36
-243.91
-232.54
-220.55
-208.02
-194.87
-181.06
-166.62
-151.70
-136.40
-120.77
-104.77
-88.43
-71.91
-55.51
-39.51
-24.07
-9.26
4.86
18.05
29.91
40.09
48.69
56.62
65.54
77.43
93.76
114.84
139.51
165.41
189.62
209.41
222.96
229.62
229.88
225.08
216.79
206.42
194.84
182.48
169.44
155.79
141.59
126.87
111.53
95.42
78.49
61.14
44.25
28.98
16.33
6.71
-0.16
-5.06
-8.81
-11.89
-14.21
-15.28
-14.38
-10.84
-4.30
5.20
17.17
30.77
44.87
58.27
69.82
78.75
85.02
89.64
94.63
102.28
113.89
128.51
142.45
150.20
146.25
127.25
93.16
47.06
-6.31
-62.20
-116.85
-167.56
-212.08
-248.22
-274.01
-288.25
-291.21
-284.56
-270.87
-252.75
-232.23
-210.62
-188.80
-167.47
-147.41
-129.38
-113.99
-101.61
-92.36
-86.27
-83.26
-83.20
-85.59
-89.53
-93.61
-96.08
-95.22
-89.65
-78.67
-62.48
-42.20
-19.70
2.83
23.31
40.28
53.12
62.10
68.02
71.84
74.40
76.17
77.46
78.53
79.73
81.59
84.57
88.90
94.46
100.76
107.10
112.77
117.24
120.12
121.20
120.36
117.54
112.93
107.06
100.81
95.22
91.09
88.54
86.89
84.91
81.40
75.72
68.01
58.95
49.30
39.74
30.95
24.01
20.47
21.85
28.63
39.37
50.52
57.43
55.97
44.06
22.30
-6.54
-38.84
-71.51
-102.72
-131.89
-159.16
-184.76
-208.54
-229.78
-247.37
-260.02
-266.65
-266.75
-260.69
-249.74
-235.75
-220.71
-206.20
-193.10
-181.46
-170.76
-160.24
-149.25
-137.54
-125.32
-113.16
-101.81
-91.84
-83.45
-76.33
-69.74
-62.81
-54.69
-44.79
-32.89
-19.14
-4.12
11.07
24.89
35.66
42.00
43.37
40.33
34.44
27.75
22.10
18.60
17.44
18.08
19.73
21.67
23.49
25.06
26.37
27.46
28.32
28.88
29.07
28.85
28.21
27.21
25.97
24.62
23.24
21.77
20.02
17.75
14.73
10.86
6.15
0.78
-4.86
-10.21
-14.47
-16.73
-16.14
-12.19
-4.96
4.83
16.05
27.45
38.03
47.23
54.83
60.88
65.44
68.56
70.35
70.99
70.88
70.56
70.58
71.33
72.95
75.24
77.72
79.85
81.13
81.23
80.07
77.78
74.55
70.64
66.26
61.66
57.10
52.82
48.98
45.48
41.97
37.92
32.91
26.92
20.56
15.01
11.61
11.46
14.95
21.65
30.61
40.65
50.83
60.62
69.90
78.78
87.43
95.87
103.81
110.60
115.27
116.81
114.52
108.35
98.97
87.62
75.58
63.81
52.70
42.18
32.07
22.31
13.01
4.37
-3.59
-11.08
-18.38
-25.63
-32.63
-38.83
-43.63
-46.65
-47.94
-47.88
-46.91
-45.19
-42.36
-37.68
-30.36
-19.91
-6.50
9.11
25.79
42.43
58.32
73.16
86.85
99.15
109.42
116.84
120.82
121.58
120.42
119.46
120.92
126.30
135.86
148.59
162.73
176.51
188.67
198.74
206.86
213.49
219.11
224.02
228.14
230.88
230.95
226.50
215.57
196.55
168.94
133.49
92.05
46.88
-0.09
-47.97
-97.02
-148.22
-202.19
-258.05
-312.88
-362.10
-400.78
-425.36
-434.79
-430.73
-416.55
-395.95
-371.64
-345.14
-317.16
-288.48
-260.28
-234.08
-210.99
-191.26
-174.17
-158.38
-142.69
-126.45
-109.74
-93.27
-77.98
-64.74
-54.01
-45.78
-39.58
-34.72
-30.48
-26.36
-22.09
-17.67
-13.27
-9.14
-5.55
-2.74
-0.92
-0.25
-0.81
-2.53
-5.10
-7.83
-9.70
-9.49
-6.18
0.63
10.54
22.38
34.59
45.76
54.98
62.04
67.22
70.98
73.64
75.35
76.10
75.96
75.16
74.13
73.37
73.29
74.05
75.55
77.45
79.32
80.82
81.78
82.28
82.54
82.80
83.19
83.62
83.81
83.50
82.61
81.32
80.07
79.26
79.10
79.42
79.76
79.62
78.69
77.06
75.10
73.34
72.21
71.97
72.81
74.98
78.90
85.00
93.40
103.57
114.34
124.16
131.75
136.62
139.22
140.67
142.13
144.17
146.64
148.86
150.17
150.38
149.86
149.22
148.85
148.56
147.61
145.17
140.87
135.21
129.38
124.67
121.62
119.36
115.70
107.78
93.26
71.16
42.14
7.89
-29.87
-70.14
-112.65
-157.19
-202.70
-246.78
-286.15
-317.61
-339.16
-350.62
-353.39
-349.70
-341.66
-330.79
-317.99
-303.74
-288.52
-272.88
-257.39
-242.35
-227.70
-212.92
-197.30
-180.22
-161.51
-141.80
-122.35
-104.68
-90.00
-78.72
-70.24
-63.29
-56.40
-48.50
-39.12
-28.42
-16.87
-5.03
6.61
17.68
27.87
36.93
44.67
51.02
56.02
59.81
62.57
64.48
65.66
66.23
66.27
65.83
64.98
63.77
62.21
60.25
57.70
54.28
49.73
44.05
37.71
31.65
27.11
25.21
26.59
31.15
38.21
46.69
55.56
63.96
71.29
77.12
81.16
83.23
83.42
82.11
80.02
78.07
77.08
77.55
79.47
82.36
85.51
88.25
90.29
91.79
93.31
95.44
98.60
102.81
107.80
113.15
118.51
123.73
128.70
133.26
137.02
139.41
139.78
137.71
133.10
126.21
117.51
107.46
96.50
85.17
74.29
64.98
58.42
55.32
55.55
58.01
61.03
63.16
63.90
63.81
63.99
65.14
66.72
66.93
63.30
53.75
37.26
13.93
-15.47
-49.97
-88.54
-129.78
-171.48
-210.62
-243.95
-269.13
-285.64
-294.94
-299.75
-302.82
-305.81
-308.75
-310.43
-309.18
-303.84
-294.31
-281.50
-266.87
-251.81
-237.14
-222.88
-208.34
-192.49
-174.27
-152.94
-128.22
-100.29
-69.71
-37.29
-3.93
29.40
61.68
91.95
119.36
143.46
164.25
182.22
198.08
212.45
225.57
237.38
247.63
256.12
262.65
266.89
268.26
266.06
259.95
250.37
238.62
226.35
214.57
202.95
189.71
172.45
149.27
119.62
84.48
45.69
5.16
-35.67
-75.81
-114.30
-149.82
-180.78
-205.75
-223.96
-235.54
-241.09
-240.95
-234.65
-220.91
-198.49
-167.14
-128.31
-85.07
-41.23
-0.13
36.25
67.51
94.48
118.63
141.58
164.56
187.87
210.37
229.16
240.16
239.30
224.12
194.81
154.14
106.18
54.56
1.44
-52.52
-107.03
-161.05
-212.21
-257.47
-294.21
-321.28
-339.12
-349.01
-352.02
-348.35
-337.36
-318.36
-291.59
-258.77
-222.88
-187.48
-155.65
-129.32
-109.04
-94.15
-83.33
-75.02
-67.86
-60.86
-53.54
-45.79
-37.74
-29.54
-21.17
-12.47
-3.19
6.79
17.24
27.63
37.19
45.19
51.18
55.10
57.16
57.73
57.12
55.42
52.58
48.46
42.96
36.06
27.98
19.05
9.81
0.84
-7.37
-14.39
-19.89
-23.55
-25.05
-24.10
-20.62
-14.92
-7.77
-0.20
6.81
12.67
17.27
20.85
23.73
26.12
28.04
29.50
30.64
31.77
33.28
35.42
38.21
41.36
44.37
46.68
47.86
47.70
46.26
43.80
40.78
37.66
34.76
32.25
30.05
27.93
25.54
22.45
18.20
12.45
5.28
-2.70
-10.23
-15.80
-18.12
-16.70
-12.07
-5.54
1.40
7.73
13.21
18.22
23.34
28.90
34.74
40.24
44.63
47.15
47.36
45.16
40.92
35.43
29.74
24.84
21.30
19.12
17.76
16.51
14.85
12.65
10.18
7.80
5.69
3.73
1.71
-0.56
-2.95
-5.18
-6.87
-7.80
-7.94
-7.28
-5.69
-2.76
2.15
9.61
19.90
32.76
47.43
62.80
77.70
91.18
102.65
111.97
119.46
125.74
131.58
137.69
144.45
151.92
159.79
167.63
175.05
181.90
188.22
194.27
200.28
206.34
212.12
216.84
219.36
218.44
213.13
202.98
188.12
169.02
146.31
120.49
92.02
61.36
29.07
-4.26
-38.12
-72.09
-105.73
-138.25
-168.35
-194.32
-214.37
-227.17
-232.04
-229.05
-218.76
-202.06
-180.11
-154.42
-126.80
-99.11
-72.86
-48.83
-27.01
-6.91
11.94
29.56
45.42
58.73
68.82
75.48
78.97
79.92
79.06
77.08
74.48
71.48
68.03
63.84
58.49
51.64
43.27
33.61
23.05
11.88
0.08
-12.63
-26.54
-41.68
-57.47
-72.66
-85.53
-94.28
-97.56
-94.96
-87.27
-76.31
-64.48
-54.02
-46.46
-42.45
-41.81
-44.00
-48.35
-54.27
-61.14
-68.26
-74.91
-80.54
-84.88
-88.07
-90.48
-92.54
-94.59
-96.77
-99.11
-101.55
-104.09
-106.81
-109.87
-113.55
-118.13
-123.84
-130.72
-138.47
-146.41
-153.51
-158.59
-160.46
-158.25
-151.49
-140.16
-124.56
-105.17
-82.50
-56.97
-28.88
1.65
34.66
70.15
107.65
145.46
180.32
207.54
222.18
220.57
201.69
167.53
122.31
70.93
17.54
-35.13
-85.50
-132.30
-174.01
-208.82
-235.15
-252.30
-260.66
-261.39
-255.86
-245.09
-229.71
-210.17
-187.15
-161.85
-135.92
-111.13
-88.96
-70.21
-54.88
-42.34
-31.63
-21.88
-12.56
-3.59
4.72
12.02
18.22
23.79
29.82
37.65
48.32
62.05
77.91
94.10
108.61
119.91
127.45
131.68
133.57
134.12
133.87
132.90
131.00
127.92
123.57
117.95
111.18
103.37
94.68
85.36
75.78
66.32
57.35
49.19
42.05
35.95
30.60
25.37
19.45
12.15
3.37
-6.26
-15.46
-22.81
-27.37
-29.05
-28.59
-27.10
-25.57
-24.42
-23.45
-22.02
-19.46
-15.35
-9.68
-2.82
4.61
12.03
19.06
25.68
32.14
38.77
45.73
52.83
59.48
65.01
68.90
71.01
71.65
71.47
71.17
71.39
72.66
75.38
79.89
86.31
94.26
102.68
109.91
114.16
114.04
109.07
99.61
86.60
71.06
53.85
35.63
17.10
-0.86
-17.24
-31.18
-42.20
-50.30
-55.76
-58.77
-59.32
-57.09
-51.77
-43.28
-31.94
-18.52
-4.09
10.17
23.15
34.02
42.41
48.41
52.53
55.41
57.46
58.70
58.75
57.22
53.98
49.46
44.48
39.86
36.12
33.21
30.68
27.98
24.71
20.68
15.81
10.01
3.15
-4.79
-13.76
-23.71
-34.77
-47.35
-62.03
-79.15
-98.50
-119.04
-138.99
-156.25
-168.82
-175.33
-175.35
-169.41
-158.88
-145.57
-131.40
-118.01
-106.58
-97.76
-91.78
-88.50
-87.42
-87.67
-88.12
-87.63
-85.36
-81.02
-74.83
-67.23
-58.51
-48.58
-37.13
-23.89
-9.05
6.67
22.10
35.97
47.16
54.94
59.07
59.78
57.78
54.03
49.57
45.16
41.09
37.16
33.04
28.70
24.77
22.52
23.44
28.64
38.23
51.12
65.29
78.47
88.85
95.73
99.50
101.35
102.57
104.06
106.18
108.89
112.13
116.11
121.25
127.96
136.26
145.68
155.30
164.21
171.75
177.80
182.59
186.45
189.47
191.29
191.28
188.78
183.53
175.85
166.59
156.71
146.86
137.19
127.41
117.25
106.69
96.18
86.35
77.71
70.34
63.83
57.33
49.76
39.92
26.65
8.90
-14.07
-42.41
-75.54
-112.04
-149.88
-186.74
-220.45
-249.38
-272.59
-289.75
-300.98
-306.51
-306.55
-301.34
-291.40
-277.68
-261.64
-244.98
-229.26
-215.58
-204.34
-195.44
-188.42
-182.66
-177.57
-172.61
-167.39
-161.80
-156.08
-150.75
-146.40
-143.35
-141.34
-139.44
-136.19
-129.98
-119.55
-104.37
-84.89
-62.52
-39.34
-17.69
0.26
13.05
20.13
22.01
20.02
15.96
11.71
8.80
8.31
10.61
15.39
21.59
27.63
31.77
32.72
30.20
25.20
19.83
16.64
17.80
24.34
35.87
50.75
66.65
81.21
92.67
100.28
104.48
106.69
108.87
112.90
119.95
130.21
142.89
156.71
170.40
183.13
194.70
205.38
215.45
224.84
232.82
238.03
238.78
233.46
221.05
201.52
175.93
146.43
115.77
86.71
61.33
40.48
23.73
9.75
-2.98
-15.53
-28.16
-40.24
-50.57
-57.51
-59.01
-52.76
-36.80
-10.66
23.24
59.12
88.75
103.72
98.19
70.93
25.54
-31.06
-91.06
-147.91
-197.44
-237.67
-268.06
-288.83
-300.73
-305.16
-304.31
-300.83
-297.16
-294.89
-294.29
-294.36
-293.36
-289.57
-281.96
-270.21
-254.44
-234.52
-209.80
-179.39
-142.89
-101.29
-57.20
-14.42
23.24
53.14
74.37
87.59
94.19
95.48
92.32
85.36
75.59
64.70
54.90
48.31
46.25
48.87
55.08
62.94
70.06
73.98
72.41
63.34
45.18
17.17
-20.27
-65.16
-114.08
-162.67
-206.64
-242.59
-268.60
-284.26
-290.20
-287.56
-277.58
-261.39
-240.13
-214.86
-186.41
-155.07
-120.65
-82.88
-42.45
-1.62
35.60
64.56
81.62
85.75
79.04
65.91
51.32
38.82
29.59
22.75
16.72
10.67
5.30
2.40
3.82
10.37
21.41
35.24
49.83
63.60
75.67
85.72
93.66
99.27
102.27
102.41
99.80
95.04
89.14
83.31
78.63
75.72
74.62
74.83
75.57
76.08
75.93
75.05
73.64
71.96
70.06
67.84
65.06
61.59
57.48
53.00
48.53
44.36
40.60
37.03
33.21
28.65
23.00
16.35
9.28
2.85
-1.67
-3.18
-1.10
4.40
12.52
22.08
31.86
40.95
48.72
54.81
59.07
61.46
62.14
61.47
59.99
58.28
56.81
55.81
55.32
55.20
55.25
55.29
55.14
54.64
53.63
52.02
49.74
46.82
43.36
39.55
35.58
31.65
27.87
24.23
20.54
16.46
11.67
5.99
-0.35
-6.75
-12.23
-15.74
-16.40
-13.83
-8.21
-0.31
8.75
17.79
25.78
32.18
36.84
39.95
41.80
42.62
42.55
41.66
40.17
38.47
37.14
36.76
37.70
39.94
43.09
46.54
49.66
52.00
53.33
53.64
52.93
51.23
48.52
44.74
39.94
34.24
27.88
21.17
14.38
7.82
1.82
-3.16
-6.49
-7.45
-5.47
-0.32
7.64
17.53
28.07
37.97
46.20
52.18
55.81
57.33
57.13
55.62
53.19
50.24
47.14
44.23
41.76
39.79
38.16
36.64
34.99
33.10
30.95
28.66
26.31
23.93
21.48
18.82
15.78
12.17
7.86
2.84
-2.71
-8.29
-13.15
-16.46
-17.53
-16.08
-12.35
-6.98
-0.83
5.35
11.08
16.10
20.33
23.67
25.95
26.99
26.75
25.42
23.47
21.47
19.95
19.17
19.01
19.09
18.89
18.04
16.47
14.44
12.35
10.55
9.15
7.92
6.48
4.44
1.64
-1.87
-5.83
-9.92
-13.76
-16.91
-18.85
-19.02
-17.05
-12.90
-7.02
-0.18
6.71
12.91
18.00
21.85
24.48
25.90
26.14
25.27
23.51
21.29
19.09
17.38
16.40
16.13
16.34
16.63
16.69
16.29
15.43
14.22
12.82
11.32
9.69
7.84
5.66
3.11
0.21
-2.98
-6.39
-9.89
-13.22
-15.93
-17.47
-17.28
-15.07
-10.96
-5.48
0.59
6.46
11.53
15.50
18.29
19.98
20.68
20.53
19.66
18.28
16.65
15.09
13.89
13.22
13.08
13.28
13.50
13.43
12.88
11.86
10.55
9.16
7.82
6.48
4.98
3.14
0.88
-1.74
-4.58
-7.50
-10.44
-13.39
-16.21
-18.59
-20.06
-20.11
-18.44
-15.08
-10.42
-5.04
0.40
5.37
9.52
12.61
14.55
15.32
15.04
13.97
12.46
10.93
9.72
9.02
8.85
9.08
9.47
9.75
9.70
9.18
8.20
6.88
5.41
3.95
2.61
1.38
0.15
-1.20
-2.80
-4.76
-7.12
-9.86
-12.85
-15.79
-18.21
-19.56
-19.35
-17.36
-13.74
-8.99
-3.83
1.06
5.15
8.19
10.14
11.10
11.18
10.53
9.32
7.77
6.14
4.68
3.60
3.02
2.93
3.21
3.67
4.08
4.23
3.97
3.25
2.13
0.74
-0.79
-2.41
-4.11
-5.92
-7.90
-10.09
-12.51
-15.19
-18.09
-21.04
-23.67
-25.49
-26.00
-24.83
-21.98
-17.76
-12.76
-7.64
-2.96
0.95
3.96
6.10
7.48
8.18
8.29
7.87
7.07
6.12
5.30
4.86
4.93
5.40
6.01
6.42
6.39
5.89
4.98
3.84
2.58
1.23
-0.23
-1.79
-3.43
-5.12
-6.89
-8.86
-11.21
-14.04
-17.26
-20.54
-23.32
-25.01
-25.15
-23.55
-20.31
-15.81
-10.61
-5.27
-0.32
3.82
6.91
8.87
9.79
9.84
9.29
8.37
7.31
6.25
5.32
4.59
4.13
3.97
4.06
4.28
4.46
4.38
3.88
2.86
1.38
-0.42
-2.35
-4.25
-6.03
-7.72
-9.40
-11.21
-13.25
-15.61
-18.33
-21.35
-24.45
-27.26
-29.26
-29.96
-29.05
-26.51
-22.67
-18.07
-13.31
-8.90
-5.20
-2.43
-0.69
-0.03
-0.37
-1.52
-3.19
-5.02
-6.69
-7.98
-8.80
-9.17
-9.20
-9.12
-9.26
-9.97
-11.49
-13.88
-16.89
-20.03
-22.69
-24.37
-24.79
-23.95
-22.04
-19.32
-16.01
-12.24
-8.12
-3.77
0.61
4.80
8.64
12.17
15.66
19.52
24.12
29.58
35.71
42.18
48.92
56.40
65.71
78.06
94.10
113.28
133.73
152.82
168.21
178.82
185.11
188.75
191.77
195.71
201.27
208.49
217.06
226.56
236.46
245.97
254.13
260.04
263.45
265.00
266.19
268.72
273.76
281.35
290.26
298.40
303.46
303.64
297.97
286.48
269.99
249.80
227.42
204.31
181.69
160.42
140.96
123.35
107.33
92.48
78.36
64.71
51.45
38.70
26.66
15.49
5.13
-4.68
-14.41
-24.51
-35.24
-46.62
-58.32
-69.94
-81.14
-91.89
-102.45
-113.30
-124.88
-137.37
-150.63
-164.18
-177.55
-190.43
-202.88
-215.35
-228.53
-243.19
-259.93
-279.01
-300.13
-322.27
-343.75
-362.50
-376.69
-385.39
-389.05
-389.32
-388.51
-388.61
-390.66
-394.57
-399.55
-404.75
-409.74
-414.57
-419.47
-424.50
-429.32
-433.29
-435.63
-435.67
-432.90
-426.86
-416.99
-402.47
-382.20
-355.02
-319.96
-276.53
-225.14
-167.45
-106.49
-46.40
8.43
54.46
90.09
116.15
135.46
151.69
167.91
185.51
204.21
222.73
240.00
255.84
271.07
286.86
303.92
322.11
340.55
357.98
372.90
383.64
388.33
385.21
373.43
353.77
328.84
302.29
277.48
256.15
237.98
221.10
203.23
182.72
158.87
131.65
101.02
66.71
28.50
-13.18
-56.80
-99.72
-138.64
-170.07
-190.70
-197.60
-188.73
-163.93
-125.95
-80.84
-37.06
-3.16
14.93
15.89
2.96
-18.00
-41.26
-63.25
-82.95
-100.66
-116.34
-128.95
-137.05
-140.24
-140.23
-140.56
-145.07
-155.95
-172.42
-190.92
-206.57
-215.28
-215.52
-208.77
-198.77
-189.79
-184.92
-184.97
-188.37
-192.08
-192.66
-187.23
-173.99
-152.08
-121.29
-81.76
-33.95
21.26
82.15
145.81
207.95
262.96
304.74
327.83
328.92
307.94
268.48
216.98
161.08
107.74
61.70
24.94
-2.82
-23.12
-37.68
-47.86
-54.79
-59.74
-64.46
-71.09
-81.55
-96.87
-116.84
-140.17
-165.07
-190.01
-214.20
-237.50
-260.09
-281.86
-302.07
-319.25
-331.48
-336.79
-333.49
-320.48
-297.45
-265.16
-225.62
-182.12
-138.87
-100.15
-69.37
-48.05
-35.49
-29.02
-24.94
-19.64
-10.59
3.31
21.82
43.91
68.30
93.72
119.07
143.31
165.51
185.00
201.56
215.59
228.08
240.28
253.34
268.02
284.55
302.73
322.03
341.60
360.04
375.15
384.04
383.63
371.77
348.26
315.45
277.71
240.14
206.78
179.35
157.00
137.13
116.79
93.89
67.66
38.35
6.57
-27.03
-61.67
-95.95
-127.57
-153.56
-171.09
-178.47
-175.78
-164.87
-148.67
-130.27
-111.96
-94.80
-78.68
-62.60
-45.28
-25.58
-2.74
23.56
53.11
84.88
116.60
144.61
164.48
172.35
166.59
148.87
123.76
96.95
72.92
53.25
36.59
20.04
1.23
-20.32
-43.09
-64.56
-82.44
-95.57
-103.92
-108.14
-109.13
-107.82
-105.07
-101.63
-97.93
-93.93
-89.13
-82.84
-74.65
-64.78
-54.19
-44.25
-36.29
-31.10
-28.69
-28.33
-28.96
-29.64
-29.85
-29.51
-28.71
-27.45
-25.37
-21.98
-16.89
-10.23
-2.75
4.37
10.03
13.71
15.62
16.50
17.06
17.54
17.79
17.81
18.34
20.97
27.41
38.33
52.35
66.05
74.98
75.17
64.43
42.62
11.18
-27.80
-72.16
-119.73
-168.02
-214.13
-255.02
-288.29
-312.56
-327.74
-334.44
-333.47
-325.34
-310.41
-289.16
-262.57
-232.23
-200.03
-167.70
-136.50
-106.97
-79.10
-52.48
-26.63
-1.25
23.61
47.46
69.45
88.63
104.30
116.25
124.84
130.79
134.75
136.90
136.80
133.62
126.54
115.20
99.84
81.28
60.66
39.30
18.52
-0.33
-15.99
-27.43
-34.08
-36.04
-33.99
-28.89
-21.66
-12.93
-3.09
7.44
17.93
27.33
34.55
39.00
40.86
40.99
40.50
40.13
39.89
39.25
37.64
34.92
31.63
28.65
26.72
26.03
26.26
26.83
27.35
27.69
27.91
28.02
27.95
27.76
27.89
29.21
32.63
38.53
46.31
54.39
60.84
64.25
64.33
62.12
59.40
57.87
58.29
60.35
62.85
64.42
63.99
61.19
56.24
49.72
42.30
34.68
27.70
22.20
18.99
18.50
20.58
24.48
29.01
33.07
35.87
37.12
36.87
35.29
32.45
28.29
22.70
15.82
8.41
2.06
-0.90
2.14
13.12
32.46
58.46
87.66
115.92
139.84
157.70
169.69
177.13
181.43
183.27
182.54
178.93
172.64
164.60
156.20
148.53
141.88
135.71
129.10
121.22
111.55
99.60
84.62
65.53
41.25
11.36
-23.53
-61.76
-101.10
-139.34
-174.72
-206.02
-232.33
-252.92
-267.21
-275.04
-276.84
-273.70
-266.97
-257.77
-246.40
-232.16
-213.64
-189.57
-159.54
-124.51
-86.59
-48.31
-11.77
21.87
52.19
78.83
100.77
116.27
123.56
121.83
112.16
97.32
81.05
66.68
56.25
50.40
48.67
50.31
54.42
59.88
64.99
67.44
64.87
55.80
40.22
19.65
-3.70
-27.91
-52.14
-76.61
-102.05
-128.81
-156.48
-183.98
-210.06
-233.76
-254.49
-271.54
-283.51
-288.08
-282.46
-264.58
-234.22
-193.69
-147.38
-100.53
-57.64
-21.35
7.81
30.78
48.91
63.17
73.92
81.28
85.59
87.76
89.15
91.29
95.45
102.46
112.67
125.93
141.70
159.13
177.00
193.97
208.82
220.89
230.32
237.98
245.05
252.59
261.01
269.80
277.44
281.60
279.47
268.34
246.29
212.78
168.92
117.22
60.79
2.34
-56.75
-116.60
-177.89
-240.58
-302.65
-359.94
-407.23
-440.01
-456.04
-455.92
-442.37
-418.80
-388.16
-352.47
-313.39
-272.99
-234.09
-199.72
-172.02
-151.18
-135.26
-120.91
-104.78
-84.76
-60.66
-34.11
-7.68
16.13
35.70
50.70
61.78
70.13
76.85
82.65
87.83
92.42
96.42
99.69
101.90
102.38
100.26
94.88
86.23
75.41
64.55
56.24
52.54
54.14
60.03
67.84
74.93
79.38
80.70
79.62
77.49
75.37
73.60
71.83
69.59
66.74
63.66
61.04
59.40
58.80
58.75
58.56
57.59
55.65
53.00
50.32
48.40
47.86
48.88
51.06
53.48
54.91
54.19
50.58
44.02
35.17
25.21
15.41
6.56
-1.31
-9.03
-17.89
-29.03
-42.78
-58.30
-73.74
-86.81
-95.50
-98.65
-96.18
-88.92
-78.25
-65.78
-53.06
-41.47
-32.11
-25.64
-22.17
-21.19
-21.78
-22.89
-23.72
-23.97
-23.82
-23.64
-23.77
-24.19
-24.64
-24.68
-24.01
-22.55
-20.41
-17.87
-15.19
-12.69
-10.69
-9.53
-9.46
-10.60
-12.88
-16.17
-20.30
-25.17
-30.55
-35.86
-40.07
-41.72
-39.27
-31.63
-18.62
-1.18
18.87
39.28
58.00
73.62
85.50
93.73
98.80
101.49
102.62
103.03
103.39
104.10
105.12
105.94
105.81
104.03
100.32
94.97
88.79
82.83
78.00
74.79
73.17
72.70
72.74
72.76
72.44
71.73
70.73
69.54
68.19
66.58
64.56
61.99
58.90
55.48
52.09
49.22
47.32
46.71
47.40
49.13
51.28
53.21
54.30
54.25
53.03
50.84
47.95
44.61
41.05
37.50
34.22
31.45
29.35
27.90
26.86
25.80
24.30
21.98
18.72
14.64
10.13
5.66
1.73
-1.29
-3.18
-3.94
-3.73
-2.86
-1.75
-0.93
-0.86
-1.80
-3.63
-5.79
-7.39
-7.49
-5.47
-1.29
4.47
10.71
16.22
20.01
21.51
20.67
17.77
13.32
7.80
1.73
-4.29
-9.54
-13.21
-14.70
-13.77
-10.85
-6.85
-2.84
0.42
2.77
4.62
6.68
9.57
13.54
18.39
23.49
27.81
30.22
29.79
26.25
20.28
13.52
8.15
6.18
8.84
16.36
28.22
43.70
62.37
84.27
109.59
138.24
169.19
200.16
227.68
247.61
256.15
250.96
231.95
201.32
162.66
119.60
74.55
28.31
-19.37
-68.61
-118.42
-166.31
-208.84
-242.65
-265.48
-276.72
-277.32
-269.27
-254.93
-236.53
-216.03
-195.13
-175.49
-158.75
-146.34
-139.21
-137.62
-141.09
-148.53
-158.61
-169.95
-181.15
-190.81
-197.41
-199.47
-195.85
-186.11
-170.72
-150.97
-128.61
-105.41
-82.74
-61.46
-41.92
-24.18
-8.18
6.23
19.32
31.47
43.15
54.71
66.23
77.36
87.34
95.32
100.65
103.17
103.28
101.64
98.97
95.69
91.97
87.81
83.21
78.25
73.10
67.91
62.78
57.72
52.73
47.77
42.73
37.52
32.17
27.07
23.02
21.04
21.81
25.20
30.10
34.78
37.64
37.89
35.77
32.18
28.09
24.04
19.98
15.64
10.95
6.25
2.17
-0.75
-2.36
-2.97
-3.14
-3.28
-3.50
-3.58
-3.25
-2.38
-1.19
-0.15
0.26
-0.25
-1.66
-3.60
-5.60
-7.24
-8.29
-8.73
-8.75
-8.72
-9.06
-10.16
-12.20
-15.07
-18.34
-21.34
-23.36
-23.78
-22.21
-18.57
-13.17
-6.72
-0.23
5.24
8.89
10.43
10.06
8.28
5.61
2.36
-1.28
-5.03
-8.32
-10.34
-10.38
-8.10
-3.84
1.62
7.31
12.46
16.65
19.78
21.94
23.37
24.38
25.31
26.41
27.67
28.82
29.45
29.29
28.52
27.75
27.91
29.85
34.05
40.63
49.31
59.70
71.33
83.72
96.47
109.49
123.07
137.79
153.82
170.19
184.28
192.22
190.05
175.05
146.89
107.57
60.86
11.11
-37.66
-82.31
-120.82
-152.29
-176.91
-195.73
-210.23
-221.72
-230.89
-237.68
-241.50
-241.74
-238.07
-230.55
-219.60
-205.98
-190.72
-175.17
-160.69
-148.16
-137.67
-128.45
-119.26
-109.00
-97.06
-83.35
-68.05
-51.22
-32.83
-13.02
7.66
28.14
47.11
63.57
77.19
88.36
97.80
106.15
113.50
119.52
123.61
125.32
124.51
121.40
116.49
110.40
103.79
97.22
91.04
85.34
80.03
75.02
70.35
66.36
63.53
62.26
62.58
64.14
66.37
68.68
70.62
71.80
71.72
69.62
64.59
55.86
43.21
27.08
8.57
-10.97
-30.08
-47.42
-61.72
-71.83
-77.01
-77.23
-73.43
-67.34
-60.95
-55.94
-53.24
-53.05
-55.07
-58.82
-63.85
-69.63
-75.43
-80.41
-83.85
-85.45
-85.65
-85.28
-85.17
-85.45
-85.26
-82.97
-76.87
-66.16
-51.56
-35.43
-20.97
-11.19
-7.84
-10.99
-19.26
-30.62
-43.19
-55.72
-67.65
-78.76
-88.82
-97.31
-103.31
-105.57
-102.74
-93.79
-78.39
-57.40
-32.82
-7.57
15.24
32.97
43.97
47.72
44.70
36.13
23.78
9.66
-4.16
-15.94
-24.51
-29.49
-31.25
-30.63
-28.63
-26.05
-23.36
-20.56
-17.36
-13.42
-8.64
-3.50
0.95
3.37
2.61
-1.73
-9.09
-18.15
-27.36
-35.58
-42.49
-48.59
-54.82
-62.12
-70.94
-81.00
-91.28
-100.25
-106.23
-107.71
-103.75
-94.11
-79.37
-60.74
-39.77
-18.10
2.77
21.60
37.40
49.56
57.90
62.70
64.71
64.95
64.37
63.61
62.92
62.17
61.19
59.93
58.48
57.02
55.68
54.52
53.75
53.82
55.47
59.48
66.13
74.84
84.13
92.15
97.36
99.16
97.99
94.97
91.32
88.00
85.63
84.63
85.24
87.41
90.65
94.02
96.45
97.28
96.47
94.57
92.26
89.83
87.10
83.62
79.24
74.33
69.74
66.28
64.33
63.61
63.54
63.67
64.14
65.61
68.95
74.70
82.73
92.28
102.23
111.68
120.29
128.41
136.82
146.22
156.81
168.03
178.83
188.09
195.03
199.22
200.29
197.49
189.52
174.86
152.40
122.11
85.09
43.10
-2.22
-49.71
-98.36
-146.51
-191.26
-228.73
-255.25
-268.83
-270.03
-261.67
-247.42
-230.27
-211.73
-191.93
-170.64
-148.21
-126.03
-106.28
-91.24
-82.70
-81.66
-88.27
-101.81
-120.71
-142.58
-164.46
-183.37
-197.03
-204.48
-206.33
-204.49
-201.47
-199.56
-200.13
-203.21
-207.50
-210.67
-210.08
-203.51
-189.89
-169.63
-144.55
-117.35
-90.80
-67.06
-47.27
-31.67
-19.82
-11.08
-4.83
-0.55
2.27
4.16
5.65
7.21
9.11
11.38
13.82
16.09
17.82
18.74
18.79
18.06
16.79
15.27
13.71
12.27
11.02
10.03
9.25
8.44
7.13
4.82
1.31
-3.01
-7.03
-9.28
-8.48
-4.09
3.50
13.09
23.24
32.73
40.84
47.30
52.10
55.29
56.92
57.21
56.60
55.66
54.89
54.55
54.55
54.57
54.24
53.33
51.85
50.02
48.14
46.41
44.79
43.03
40.71
37.44
33.03
27.57
21.45
15.17
9.07
3.25
-2.48
-8.26
-13.90
-18.75
-21.80
-22.10
-19.20
-13.43
-5.81
2.35
9.86
15.92
20.25
22.87
23.87
23.30
21.16
17.60
13.06
8.40
4.74
3.16
4.33
8.28
14.34
21.37
28.12
33.63
37.45
39.64
40.54
40.55
39.91
38.66
36.70
33.86
30.04
25.20
19.38
12.77
5.73
-1.10
-6.80
-10.31
-10.64
-7.22
-0.13
9.86
21.50
33.37
44.25
53.35
60.38
65.40
68.72
70.69
71.59
71.66
71.07
70.05
68.88
67.92
67.49
67.80
68.84
70.34
71.87
72.93
73.13
72.32
70.62
68.34
65.86
63.47
61.29
59.22
57.01
54.30
50.75
46.22
40.89
35.37
30.62
27.67
27.38
30.07
35.35
42.07
48.58
53.15
54.42
51.90
46.18
38.74
31.53
26.26
23.87
24.32
26.84
30.50
34.69
39.42
45.06
51.87
59.57
67.18
73.21
76.11
74.76
68.78
58.69
45.79
31.83
18.72
8.07
1.01
-2.05
-1.37
1.98
6.42
10.13
11.60
10.15
6.29
1.50
-2.35
-3.73
-2.08
2.10
7.76
13.91
20.06
26.17
32.04
36.81
38.75
35.79
26.46
10.72
-9.78
-32.08
-52.92
-69.69
-81.04
-86.83
-87.70
-84.39
-77.45
-67.20
-54.08
-38.95
-23.13
-8.17
4.67
14.84
22.59
28.71
34.02
38.84
42.86
45.35
45.72
43.83
40.08
35.09
29.28
22.67
14.99
5.96
-4.50
-16.25
-29.21
-43.42
-59.19
-76.75
-95.95
-116.00
-135.40
-152.02
-163.19
-165.87
-157.07
-134.60
-98.04
-49.53
6.13
62.46
112.87
152.47
179.16
193.58
198.09
195.46
187.90
176.73
162.70
146.36
128.22
108.49
86.88
62.60
34.70
2.52
-33.90
-73.79
-115.93
-158.90
-201.25
-241.41
-277.54
-307.47
-328.95
-340.05
-339.54
-327.29
-304.34
-272.86
-235.86
-196.75
-158.71
-124.14
-94.33
-69.41
-48.81
-31.75
-17.65
-6.38
1.95
7.21
9.47
9.14
6.86
3.42
-0.33
-3.54
-5.42
-5.42
-3.48
-0.22
3.06
4.75
3.45
-1.42
-9.36
-18.83
-27.75
-34.07
-36.35
-34.01
-27.35
-17.33
-5.40
6.77
17.52
25.44
29.76
30.48
28.34
24.43
19.77
14.90
9.97
4.99
0.18
-3.80
-6.02
-5.64
-2.31
3.68
11.55
20.36
29.30
37.83
45.63
52.41
57.85
61.62
63.39
62.95
60.06
54.61
46.60
36.40
25.02
14.15
6.03
2.90
6.34
16.63
32.43
50.96
68.69
82.41
90.23
92.08
89.46
84.48
78.79
72.94
66.47
58.73
49.80
40.90
34.00
30.75
31.56
35.10
38.78
39.69
35.64
25.76
10.42
-9.29
-32.04
-56.65
-81.96
-106.73
-129.51
-148.85
-163.63
-173.45
-178.64
-179.97
-178.27
-173.96
-167.04
-157.28
-144.57
-129.12
-111.44
-92.23
-72.19
-51.94
-32.07
-13.21
4.15
19.72
33.54
45.93
57.36
68.28
79.00
89.67
100.37
111.18
122.10
132.96
143.40
152.96
161.31
168.51
175.09
181.92
189.89
199.48
210.61
222.55
234.01
243.34
248.91
249.49
244.72
235.35
223.07
210.01
197.87
187.35
177.95
168.50
157.92
145.92
133.19
121.19
111.44
104.93
101.71
100.87
100.73
99.25
94.57
85.42
71.35
52.74
30.41
5.27
-22.13
-51.66
-83.59
-118.39
-156.38
-197.36
-240.30
-283.30
-323.76
-359.01
-386.94
-406.62
-418.49
-424.15
-425.88
-425.92
-425.78
-425.63
-423.99
-417.84
-403.34
-377.18
-337.95
-287.08
-228.78
-168.92
-113.39
-66.58
-30.66
-5.73
9.58
17.27
19.52
18.46
16.04
13.78
12.55
12.36
12.46
11.79
9.49
5.43
0.32
-4.56
-7.85
-8.70
-6.99
-3.34
1.24
5.84
9.80
12.87
15.03
16.34
16.87
16.72
16.11
15.31
14.62
14.23
14.28
14.94
16.67
20.32
27.04
37.85
53.10
72.11
93.12
113.70
131.48
144.81
153.22
157.45
158.87
158.91
158.49
157.86
156.95
155.74
154.44
153.25
151.81
148.96
142.87
132.02
116.13
96.66
76.32
57.78
42.37
29.57
17.69
5.19
-8.00
-20.23
-28.99
-32.23
-29.60
-22.74
-14.55
-8.09
-5.53
-7.73
-14.56
-25.47
-39.98
-57.66
-77.76
-98.81
-118.61
-134.69
-145.07
-149.05
-147.42
-142.06
-135.14
-128.27
-122.00
-115.99
-109.44
-101.68
-92.44
-81.89
-70.52
-58.88
-47.50
-36.80
-26.99
-18.14
-10.02
-2.25
5.70
14.37
24.10
34.89
46.25
57.25
66.66
73.31
76.50
76.26
73.41
69.20
64.84
61.08
57.99
55.11
51.72
47.25
41.43
34.34
26.33
17.93
9.84
2.98
-1.59
-2.75
0.39
8.29
20.74
36.90
55.44
74.81
93.65
111.00
126.46
140.16
152.58
164.45
176.56
189.61
204.01
219.62
235.57
250.30
261.90
268.80
270.55
268.16
263.74
259.34
255.61
250.99
242.01
224.76
196.75
158.11
111.67
61.64
11.81
-35.80
-81.26
-126.25
-172.99
-223.23
-277.49
-334.53
-391.15
-442.38
-482.16
-504.69
-505.96
-485.07
-444.53
-389.78
-327.72
-265.13
-207.43
-157.92
-117.87
-86.80
-63.21
-45.05
-30.28
-17.19
-4.71
7.53
19.18
29.33
37.07
41.95
44.40
45.74
47.77
52.00
58.98
67.84
76.53
82.48
83.65
79.32
70.34
58.82
47.24
37.47
30.11
24.43
18.95
12.26
3.67
-6.39
-16.60
-25.23
-30.60
-31.58
-27.71
-19.35
-7.60
5.93
19.45
31.46
41.12
48.40
53.89
58.35
62.28
65.63
67.99
68.89
68.14
65.97
62.80
58.92
54.23
48.46
41.47
33.67
26.05
19.95
16.38
15.63
17.06
19.49
21.72
23.04
23.40
23.26
23.25
23.83
25.10
26.79
28.43
29.52
29.90
29.95
30.70
33.73
40.63
52.36
68.76
88.38
109.03
128.48
145.23
158.80
169.52
178.16
185.45
191.71
196.55
198.75
196.29
186.80
168.29
139.90
102.42
58.01
9.25
-42.02
-95.37
-151.52
-210.94
-272.41
-332.19
-384.57
-423.57
-444.98
-447.82
-434.45
-409.58
-378.48
-345.52
-313.44
-283.58
-256.63
-233.17
-213.73
-198.29
-185.71
-173.63
-159.02
-139.24
-113.05
-81.19
-46.12
-11.07
21.01
48.24
69.92
86.24
97.75
105.10
109.10
110.81
111.51
112.44
114.41
117.57
121.38
124.97
127.51
128.56
128.04
126.08
122.83
118.34
112.65
105.85
98.27
90.39
82.77
75.80
69.64
64.14
58.84
53.25
46.96
40.00
32.97
26.97
23.44
23.76
28.74
38.29
51.40
66.42
81.58
95.45
107.28
116.92
124.57
130.44
134.49
136.39
135.71
132.33
126.67
119.84
113.47
109.16
108.00
110.25
115.32
122.06
129.07
134.88
137.91
136.71
130.29
118.78
103.89
88.63
76.29
68.89
65.94
64.41
59.77
47.92
26.83
-2.76
-37.95
-74.95
-110.54
-142.80
-171.08
-195.44
-215.98
-232.46
-244.46
-251.73
-254.54
-253.71
-250.41
-245.68
-240.08
-233.44
-225.11
-214.29
-200.55
-184.08
-165.75
-146.83
-128.57
-111.91
-97.24
-84.54
-73.41
-63.37
-53.90
-44.51
-34.70
-23.95
-11.94
1.21
14.73
27.23
36.99
42.46
42.80
38.31
30.44
21.42
13.62
8.73
7.41
9.23
13.10
17.80
22.42
26.47
29.70
31.96
33.05
32.87
31.56
29.58
27.63
26.44
26.46
27.79
30.20
33.25
36.47
39.47
42.06
44.26
46.19
47.99
49.66
51.00
51.71
51.52
50.44
48.80
47.29
46.59
47.19
49.14
52.08
55.50
59.02
62.50
66.05
69.77
73.70
77.72
81.70
85.57
89.34
92.88
95.86
97.76
98.12
96.86
94.47
91.87
89.95
89.16
89.22
89.34
88.64
86.84
84.55
83.28
84.85
90.41
99.58
109.96
117.51
117.57
106.35
82.10
45.64
0.12
-49.88
-99.41
-144.22
-181.28
-209.21
-228.14
-239.45
-245.03
-246.44
-244.27
-237.89
-226.10
-208.06
-184.20
-156.53
-128.03
-101.62
-79.23
-61.42
-47.76
-37.50
-30.13
-25.51
-23.47
-23.43
-24.25
-24.48
-23.00
-19.35
-13.98
-7.95
-2.55
1.17
2.76
2.51
1.40
0.72
1.65
4.74
9.68
15.34
20.22
23.12
23.56
21.97
19.42
17.09
15.84
16.13
18.17
22.13
28.30
36.91
47.91
60.85
75.07
89.98
105.39
121.45
138.23
155.19
170.95
183.57
191.23
193.07
189.58
182.50
174.08
166.18
159.73
154.57
149.95
145.09
139.64
133.73
127.60
121.32
114.57
106.96
98.39
89.31
80.49
72.60
65.49
58.07
48.70
36.01
19.60
0.18
-20.87
-42.33
-63.77
-85.39
-107.57
-130.11
-151.99
-171.58
-187.25
-198.04
-203.77
-204.97
-202.38
-196.71
-188.54
-178.47
-167.20
-155.57
-144.30
-133.77
-123.96
-114.49
-104.88
-94.77
-84.12
-73.11
-61.99
-50.89
-39.74
-28.45
-17.20
-6.69
1.94
7.42
8.97
6.73
1.82
-3.95
-8.82
-11.66
-12.36
-11.60
-10.54
-10.30
-11.62
-14.84
-19.82
-25.91
-31.86
-35.91
-36.13
-31.05
-20.32
-4.91
13.12
31.44
48.33
63.13
76.10
87.78
98.38
107.52
114.57
119.23
121.88
123.51
125.17
127.48
130.33
133.06
134.94
135.60
135.05
133.49
130.98
127.28
121.92
114.47
104.74
92.88
79.21
64.17
48.12
31.33
14.02
-3.53
-20.96
-37.84
-53.88
-69.18
-84.33
-100.36
-118.33
-138.76
-161.15
-183.93
-204.83
-221.63
-232.97
-238.57
-239.05
-235.37
-228.41
-218.87
-207.51
-195.29
-183.43
-173.04
-164.88
-159.15
-155.74
-154.55
-155.73
-159.50
-165.65
-173.13
-179.84
-183.18
-180.86
-171.79
-156.42
-136.52
-114.51
-92.60
-72.27
-54.09
-37.88
-23.06
-8.96
4.89
18.72
32.36
45.37
57.03
66.55
73.24
76.68
76.90
74.52
70.85
67.65
66.78
69.51
76.06
85.38
95.63
104.98
112.45
118.20
123.12
128.14
133.46
138.47
142.09
143.47
142.48
139.71
135.94
131.56
126.26
119.23
109.61
97.21
82.67
67.38
52.76
39.72
28.28
17.76
7.21
-4.04
-16.13
-28.73
-41.41
-53.92
-66.32
-78.88
-91.88
-105.53
-119.92
-135.05
-150.64
-165.88
-179.26
-188.71
-192.15
-188.28
-177.16
-160.31
-140.21
-119.49
-100.11
-82.99
-68.12
-55.00
-43.18
-32.37
-22.43
-13.10
-3.87
5.96
16.89
29.00
41.83
54.56
66.47
77.28
87.24
96.92
106.80
116.86
126.53
134.99
141.65
146.56
150.48
154.55
159.66
165.97
172.70
178.35
181.18
179.73
173.24
161.84
146.59
129.32
112.29
97.64
86.71
79.65
75.28
71.56
66.38
58.37
47.26
33.82
19.36
5.32
-7.05
-16.71
-22.78
-24.61
-22.07
-15.76
-7.03
2.40
10.98
17.91
23.39
28.28
33.52
39.45
45.46
50.26
52.46
51.21
46.51
39.06
29.89
20.00
10.25
1.41
-5.80
-11.09
-15.00
-19.20
-26.06
-37.75
-55.05
-76.77
-99.93
-120.89
-136.75
-146.23
-149.83
-149.15
-145.92
-141.35
-135.96
-129.93
-123.43
-116.76
-110.17
-103.45
-95.82
-86.12
-73.56
-58.48
-42.70
-29.18
-20.91
-19.65
-25.20
-35.63
-48.16
-60.47
-71.50
-81.57
-91.72
-102.94
-115.60
-129.37
-143.59
-157.56
-170.79
-182.88
-193.39
-201.85
-207.87
-211.36
-212.54
-211.78
-209.23
-204.55
-196.88
-185.31
-169.29
-149.12
-125.81
-100.76
-75.17
-49.81
-25.14
-1.58
20.20
39.37
55.32
68.10
78.59
88.11
97.83
108.14
118.48
127.73
134.83
139.32
141.53
142.35
142.66
143.03
143.63
144.41
145.20
145.61
144.72
140.97
132.45
117.71
96.75
71.43
44.92
20.47
0.15
-15.78
-28.41
-39.04
-48.03
-54.44
-56.65
-53.52
-45.27
-33.60
-20.93
-9.31
0.33
8.23
15.14
21.48
26.84
30.20
30.70
28.37
24.42
20.82
19.46
21.23
25.71
31.52
37.00
40.94
42.90
43.15
42.20
40.59
38.68
36.77
35.12
33.93
33.10
32.11
30.11
26.14
19.62
10.69
0.29
-9.98
-18.28
-23.01
-23.19
-18.65
-10.06
1.32
13.93
26.24
37.15
46.12
53.20
58.80
63.35
67.02
69.67
71.00
70.88
69.62
67.98
66.90
67.15
68.93
71.85
75.15
77.98
79.67
79.83
78.28
75.00
70.15
64.16
57.68
51.40
45.85
41.05
36.54
31.63
25.77
18.91
11.49
4.24
-2.21
-7.52
-11.68
-14.78
-16.80
-17.57
-16.83
-14.48
-10.74
-6.14
-1.37
2.95
6.46
9.12
11.09
12.58
13.71
14.43
14.61
14.13
13.05
11.69
10.44
9.64
9.35
9.28
8.92
7.74
5.44
2.07
-1.97
-6.10
-9.78
-12.67
-14.70
-16.12
-17.33
-18.75
-20.62
-22.83
-24.86
-25.80
-24.59
-20.25
-12.28
-0.75
13.56
29.27
44.66
58.03
68.06
74.14
76.59
76.49
75.35
74.58
75.03
76.77
79.20
81.47
83.01
83.77
84.31
85.33
87.35
90.33
93.80
96.95
98.94
99.03
96.64
91.36
83.00
71.56
57.16
40.02
20.27
-2.04
-26.83
-53.74
-81.95
-110.12
-136.56
-159.53
-177.57
-189.62
-195.17
-194.16
-186.96
-174.37
-157.64
-138.34
-118.28
-99.27
-82.79
-69.68
-59.99
-53.02
-47.68
-42.85
-37.84
-32.45
-26.88
-21.49
-16.53
-12.00
-7.73
-3.42
1.10
5.87
10.74
15.43
19.68
23.37
26.54
29.39
32.14
34.91
37.66
40.22
42.35
43.85
44.61
44.66
44.18
43.54
43.37
44.51
47.77
53.74
62.44
73.25
85.05
96.53
106.54
114.40
119.99
123.64
125.90
127.34
128.44
129.47
130.52
131.57
132.53
133.37
134.14
135.06
136.46
138.74
142.16
146.56
151.23
154.89
156.06
153.68
147.53
138.42
127.80
117.12
107.20
97.90
88.39
77.53
64.51
49.13
31.96
14.17
-2.64
-16.82
-27.11
-33.04
-35.21
-35.18
-35.13
-37.18
-42.88
-52.79
-66.53
-82.96
-100.58
-117.94
-133.90
-147.77
-159.26
-168.34
-174.97
-179.00
-180.10
-177.91
-172.23
-163.16
-151.22
-137.28
-122.47
-107.88
-94.44
-82.81
-73.37
-66.34
-61.81
-59.73
-59.94
-62.10
-65.70
-70.14
-74.89
-79.58
-84.01
-88.03
-91.48
-94.11
-95.62
-95.80
-94.56
-92.01
-88.29
-83.52
-77.72
-70.92
-63.19
-54.79
-46.13
-37.73
-30.01
-23.25
-17.46
-12.45
-7.92
-3.56
0.85
5.36
9.82
13.98
17.52
20.17
21.79
22.37
22.05
20.98
19.43
17.69
16.10
14.96
14.42
14.41
14.69
14.90
14.71
13.84
12.22
9.94
7.27
4.75
3.01
2.66
4.11
7.36
12.02
17.42
22.83
27.72
31.80
35.04
37.51
39.34
40.61
41.32
41.46
40.97
39.87
38.31
36.57
35.02
34.01
33.69
33.95
34.45
34.75
34.50
33.51
31.76
29.30
26.19
22.51
18.34
13.90
9.48
5.41
1.90
-1.04
-3.64
-6.31
-9.46
-13.34
-18.00
-23.26
-28.78
-34.11
-38.76
-42.29
-44.33
-44.72
-43.47
-40.82
-37.13
-32.80
-28.21
-23.71
-19.64
-16.34
-14.14
-13.18
-13.32
-14.14
-14.98
-15.16
-14.15
-11.77
-8.17
-3.82
0.67
4.71
7.90
10.14
11.62
12.69
13.76
15.11
16.76
18.59
20.34
21.77
22.77
23.33
23.50
23.35
22.90
22.10
20.85
19.01
16.49
13.34
9.78
6.25
3.35
1.69
1.68
3.40
6.53
10.43
14.38
17.70
19.93
20.81
20.23
18.22
14.94
10.79
6.36
2.39
-0.47
-1.85
-1.77
-0.62
1.03
2.67
3.96
4.85
5.43
5.82
6.06
6.02
5.49
4.29
2.38
-0.07
-2.77
-5.38
-7.70
-9.69
-11.53
-13.52
-16.00
-19.18
-23.09
-27.52
-31.95
-35.67
-37.92
-38.06
-35.81
-31.32
-25.19
-18.26
-11.44
-5.40
-0.50
3.23
5.92
7.74
8.79
9.08
8.64
7.58
6.11
4.55
3.24
2.41
2.10
2.25
2.69
3.29
3.93
4.55
5.05
5.26
5.03
4.22
2.85
1.09
-0.79
-2.47
-3.77
-4.67
-5.32
-6.00
-6.98
-8.40
-10.25
-12.29
-14.13
-15.26
-15.16
-13.45
-9.89
-4.47
2.52
10.55
18.85
26.54
32.80
37.10
39.35
39.94
39.57
39.01
38.85
39.32
40.30
41.46
42.42
42.83
42.48
41.28
39.29
36.73
33.99
31.56
29.77
28.72
28.11
27.43
26.19
24.11
21.33
18.34
15.78
14.20
13.83
14.60
16.18
18.19
20.38
22.73
25.54
29.30
34.58
41.91
51.59
63.68
77.95
93.91
110.86
127.98
144.51
159.95
174.13
187.25
199.69
211.78
223.65
235.04
245.24
253.03
256.72
254.42
244.54
226.31
200.22
168.05
132.29
95.27
58.45
22.15
-14.08
-50.72
-87.62
-123.78
-157.67
-187.70
-212.78
-232.41
-246.71
-256.24
-261.91
-264.97
-266.86
-268.93
-271.74
-274.58
-275.30
-270.95
-258.93
-238.21
-210.07
-177.67
-145.02
-115.49
-90.86
-71.18
-55.44
-42.47
-31.53
-22.42
-15.13
-9.54
-5.37
-2.35
-0.46
0.11
-0.74
-2.63
-4.60
-5.37
-3.91
0.01
5.56
11.17
15.05
15.88
13.05
6.82
-2.06
-12.61
-23.99
-35.71
-47.57
-59.72
-72.39
-85.64
-99.07
-111.69
-122.09
-128.83
-131.06
-128.81
-123.09
-115.36
-106.98
-98.76
-90.81
-82.86
-74.70
-66.47
-58.63
-51.74
-46.04
-41.34
-37.07
-32.66
-27.79
-22.52
-17.15
-11.96
-6.98
-1.89
3.85
10.77
19.17
29.02
39.93
51.31
62.52
73.02
82.38
90.35
96.84
101.87
105.59
108.24
110.05
111.22
111.84
112.04
112.01
112.19
113.34
116.46
122.67
132.77
146.77
163.41
179.97
192.58
197.01
189.81
169.19
135.43
90.54
37.46
-20.51
-80.11
-138.01
-190.78
-235.26
-269.17
-291.77
-304.04
-308.04
-305.84
-298.52
-285.91
-267.15
-241.76
-210.57
-175.85
-140.71
-108.17
-80.31
-58.04
-41.33
-29.76
-23.02
-20.98
-23.48
-29.86
-38.66
-47.59
-53.98
-55.50
-50.85
-40.16
-24.91
-7.41
9.98
25.42
37.91
47.14
53.16
56.19
56.46
54.36
50.59
46.03
41.68
38.36
36.50
36.08
36.75
38.01
39.39
40.58
41.48
42.07
42.35
42.32
41.89
40.94
39.35
37.04
34.02
30.36
26.21
21.72
17.02
12.22
7.45
2.95
-0.84
-3.37
-4.08
-2.71
0.60
5.28
10.51
15.52
19.82
23.29
26.01
28.10
29.55
30.27
30.14
29.22
27.76
26.13
24.66
23.54
22.77
22.24
21.83
21.45
21.11
20.85
20.67
20.51
20.20
19.59
18.56
17.15
15.48
13.71
11.89
9.95
7.66
4.90
1.71
-1.52
-4.20
-5.70
-5.57
-3.68
-0.23
4.33
9.49
14.71
19.47
23.26
25.61
26.23
25.12
22.64
19.45
16.26
13.69
12.01
11.19
10.95
10.96
10.99
10.90
10.64
10.21
9.56
8.65
7.49
6.12
4.56
2.80
0.72
-1.82
-4.95
-8.58
-12.38
-15.80
-18.20
-19.04
-18.04
-15.26
-11.06
-6.02
-0.71
4.32
8.65
11.96
14.04
14.82
14.39
13.01
11.10
9.09
7.39
6.25
5.78
5.87
6.35
6.95
7.39
7.46
7.08
6.28
5.20
4.02
2.81
1.50
-0.08
-2.16
-4.81
-7.96
-11.21
-14.01
-15.71
-15.82
-14.14
-10.86
-6.51
-1.77
2.71
6.51
9.47
11.63
13.16
14.15
14.62
14.59
14.11
13.34
12.52
11.88
11.56
11.58
11.85
12.22
12.53
12.63
12.44
11.88
10.98
9.76
8.33
6.72
4.95
2.93
0.51
-2.45
-5.96
-9.80
-13.49
-16.39
-17.82
-17.31
-14.75
-10.42
-4.88
1.18
7.09
12.37
16.72
20.03
22.32
23.73
24.45
24.67
24.57
24.31
23.98
23.70
23.55
23.55
23.65
23.70
23.46
22.79
21.70
20.37
19.06
17.96
17.07
16.19
15.02
13.28
10.87
7.87
4.52
1.07
-2.22
-5.08
-7.21
-8.28
-8.06
-6.53
-4.03
-1.18
1.32
2.99
3.79
4.09
4.45
5.31
6.80
8.67
10.55
12.15
13.46
14.66
15.98
17.47
18.94
20.09
20.61
20.44
19.70
18.65
17.52
16.35
15.00
13.23
10.86
7.87
4.45
0.91
-2.43
-5.39
-7.98
-10.41
-12.93
-15.73
-18.82
-21.90
-24.47
-25.93
-25.79
-23.84
-20.26
-15.49
-10.15
-4.77
0.27
4.78
8.69
11.93
14.43
16.16
17.17
17.67
17.95
18.32
19.01
20.04
21.28
22.45
23.19
23.25
22.46
20.88
18.69
16.20
13.71
11.48
9.67
8.30
7.21
6.16
4.88
3.13
0.82
-2.03
-5.31
-8.89
-12.65
-16.39
-19.81
-22.45
-23.82
-23.54
-21.55
-18.15
-13.91
-9.49
-5.38
-1.83
1.13
3.57
5.56
7.12
8.25
9.00
9.47
9.77
10.01
10.23
10.39
10.45
10.43
10.38
10.40
10.54
10.77
10.99
11.02
10.66
9.79
8.34
6.40
4.11
1.73
-0.56
-2.67
-4.66
-6.76
-9.20
-12.10
-15.30
-18.38
-20.73
-21.77
-21.13
-18.79
-15.11
-10.68
-6.15
-2.03
1.33
3.86
5.62
6.78
7.55
8.11
8.61
9.20
9.94
10.88
11.99
13.17
14.31
15.27
15.99
16.40
16.48
16.19
15.48
14.25
12.45
10.11
7.39
4.56
1.94
-0.26
-2.03
-3.58
-5.32
-7.64
-10.71
-14.36
-18.06
-21.04
-22.61
-22.38
-20.39
-17.04
-12.95
-8.67
-4.57
-0.79
2.65
5.74
8.39
10.44
11.74
12.25
12.08
11.49
10.79
10.26
10.08
10.27
10.76
11.43
12.15
12.87
13.56
14.19
14.72
15.09
15.30
15.40
15.55
15.91
16.59
17.54
18.60
19.57
20.31
20.89
21.61
22.91
25.30
29.09
34.36
40.86
48.15
55.74
63.24
70.54
77.75
85.14
92.93
101.20
109.71
117.96
125.12
130.26
132.39
130.72
124.66
113.88
98.23
77.70
52.50
23.22
-8.96
-42.26
-74.58
-103.98
-129.22
-150.06
-167.26
-182.08
-195.77
-209.07
-222.05
-234.05
-243.91
-250.31
-252.01
-248.22
-238.81
-224.42
-206.22
-185.65
-164.05
-142.42
-121.40
-101.40
-82.67
-65.39
-49.59
-35.18
-21.91
-9.63
1.61
11.59
19.97
26.54
31.41
34.97
37.79
40.45
43.31
46.51
49.93
53.30
56.32
58.71
60.36
61.22
61.40
61.02
60.20
59.02
57.51
55.74
53.77
51.66
49.41
46.88
43.79
39.78
34.61
28.33
21.38
14.44
8.31
3.59
0.62
-0.63
-0.37
1.13
3.65
7.01
11.01
15.42
19.92
24.21
28.08
31.43
34.28
36.73
38.85
40.65
42.10
43.13
43.72
43.91
43.84
43.67
43.54
43.53
43.56
43.47
43.11
42.41
41.44
40.38
39.50
38.98
38.91
39.26
39.95
40.84
41.83
42.81
43.75
44.69
45.82
47.47
49.98
53.58
58.23
63.62
69.25
74.54
78.97
82.13
83.68
83.34
81.02
76.76
70.88
63.84
56.16
48.22
40.24
32.24
24.14
15.94
7.78
-0.06
-7.18
-13.23
-17.99
-21.45
-23.82
-25.45
-26.75
-28.07
-29.71
-31.86
-34.63
-37.97
-41.74
-45.72
-49.74
-53.75
-57.83
-61.99
-65.98
-69.19
-70.85
-70.38
-67.74
-63.55
-58.85
-54.70
-51.75
-50.06
-49.31
-49.06
-49.03
-49.15
-49.43
-49.77
-49.88
-49.47
-48.42
-46.85
-45.11
-43.60
-42.58
-42.09
-42.05
-42.32
-42.79
-43.38
-44.02
-44.60
-44.98
-45.04
-44.78
-44.39
-44.17
-44.47
-45.46
-47.00
-48.59
-49.49
-48.94
-46.49
-42.18
-36.57
-30.54
-24.91
-20.20
-16.50
-13.63
-11.38
-9.73
-8.78
-8.62
-9.10
-9.73
-9.89
-9.05
-7.02
-4.01
-0.43
3.26
6.72
9.69
12.00
13.52
14.18
14.13
13.69
13.24
13.11
13.38
13.96
14.60
15.06
15.17
14.89
14.29
13.61
13.18
13.34
14.29
15.96
17.98
19.83
21.04
21.36
20.73
19.29
17.20
14.70
12.01
9.48
7.47
6.20
5.74
5.86
6.25
6.58
6.71
6.59
6.23
5.56
4.38
2.42
-0.43
-4.15
-8.50
-13.12
-17.69
-21.99
-25.94
-29.60
-33.12
-36.81
-41.06
-46.26
-52.49
-59.36
-65.95
-71.05
-73.57
-72.91
-69.20
-63.13
-55.69
-47.77
-40.03
-32.90
-26.68
-21.70
-18.22
-16.37
-15.97
-16.52
-17.35
-17.79
-17.32
-15.73
-13.03
-9.32
-4.76
0.56
6.46
12.70
18.91
24.70
29.77
33.98
37.36
40.00
41.97
43.17
43.44
42.63
40.78
38.23
35.54
33.42
32.48
32.99
34.88
37.70
40.80
43.50
45.24
45.64
44.51
41.81
37.65
32.26
26.04
19.46
13.05
7.28
2.53
-0.98
-3.21
-4.28
-4.42
-4.00
-3.37
-2.81
-2.52
-2.59
-3.07
-3.94
-5.13
-6.51
-7.87
-9.03
-9.92
-10.59
-11.24
-12.14
-13.45
-15.13
-16.85
-18.13
-18.49
-17.66
-15.68
-12.80
-9.42
-5.90
-2.47
0.74
3.61
5.96
7.56
8.18
7.71
6.28
4.17
1.83
-0.30
-1.89
-2.81
-3.14
-3.13
-3.11
-3.40
-4.19
-5.57
-7.46
-9.74
-12.24
-14.83
-17.47
-20.32
-23.68
-27.87
-33.00
-38.67
-43.87
-47.18
-47.21
-43.07
-34.73
-22.91
-8.66
7.14
24.18
42.65
62.92
84.90
107.84
130.45
151.56
170.84
189.02
207.48
227.34
248.87
271.47
294.31
317.04
339.79
362.49
383.78
400.57
408.81
405.12
388.38
360.43
325.29
287.41
250.07
214.72
181.37
149.46
118.63
88.80
59.77
30.88
1.05
-30.66
-64.30
-98.59
-131.19
-159.53
-182.02
-198.99
-212.84
-227.30
-246.10
-271.57
-303.84
-340.77
-378.68
-413.45
-441.55
-460.73
-470.40
-471.55
-466.45
-458.05
-449.29
-442.40
-438.53
-437.71
-439.08
-441.36
-443.20
-443.27
-440.25
-432.65
-418.98
-398.01
-369.14
-332.64
-289.48
-241.00
-188.57
-133.54
-77.54
-22.78
27.94
71.76
106.56
131.60
147.74
156.96
161.56
163.35
163.38
161.98
159.17
155.00
149.71
143.75
137.69
132.04
127.15
123.08
119.58
116.29
112.92
109.51
106.42
104.15
103.00
102.89
103.33
103.73
103.72
103.33
102.92
102.87
103.27
103.78
103.75
102.49
99.56
94.90
88.81
81.84
74.59
67.62
61.38
56.11
51.71
47.74
43.54
38.54
32.54
25.91
19.45
13.92
9.60
5.94
1.86
-3.79
-11.54
-20.91
-30.67
-39.24
-45.35
-48.35
-48.31
-45.66
-41.00
-34.90
-27.94
-20.78
-14.13
-8.74
-5.10
-3.37
-3.33
-4.42
-5.95
-7.23
-7.83
-7.64
-6.96
-6.34
-6.37
-7.36
-9.17
-11.19
-12.59
-12.64
-11.03
-7.92
-3.90
0.35
4.34
7.82
10.79
13.33
15.37
16.74
17.24
16.78
15.51
13.86
12.37
11.48
11.42
12.08
13.11
14.12
14.84
15.22
15.33
15.32
15.22
14.95
14.36
13.36
11.96
10.25
8.33
6.21
3.81
1.02
-2.16
-5.49
-8.49
-10.56
-11.15
-9.95
-6.97
-2.58
2.66
8.16
13.41
18.07
21.95
24.96
27.09
28.38
28.91
28.82
28.28
27.45
26.47
25.45
24.50
23.69
23.06
22.59
22.16
21.67
20.94
19.90
18.51
16.81
14.90
12.88
10.82
8.76
6.69
4.53
2.18
-0.46
-3.32
-6.16
-8.45
-9.57
-8.91
-6.15
-1.36
5.00
12.28
19.79
27.00
33.58
39.49
44.88
50.01
55.20
60.61
66.19
71.66
76.64
80.91
84.70
88.72
94.08
101.79
112.40
125.57
140.18
154.65
167.45
177.72
185.43
191.43
197.08
203.83
212.74
224.26
238.11
253.29
268.22
281.06
290.17
294.71
295.05
292.83
290.28
289.32
290.52
292.70
293.43
289.99
280.64
265.26
245.23
222.67
199.54
177.07
155.77
135.78
117.23
100.31
85.09
71.30
58.26
45.11
31.20
16.34
0.86
-14.65
-29.72
-44.26
-58.66
-73.56
-89.54
-106.84
-125.31
-144.46
-163.73
-182.76
-201.54
-220.52
-240.56
-262.65
-287.44
-314.73
-343.00
-369.51
-390.80
-403.57
-405.66
-396.63
-377.91
-352.26
-322.94
-292.80
-263.75
-236.70
-211.89
-189.39
-169.35
-151.85
-136.48
-122.04
-106.74
-88.88
-67.90
-45.01
-22.98
-5.00
6.69
11.74
11.55
8.28
3.57
-2.02
-8.91
-17.72
-28.77
-42.13
-58.29
-78.68
-105.52
-140.62
-184.07
-233.38
-283.87
-330.09
-367.29
-392.40
-403.83
-400.92
-383.54
-352.36
-309.43
-258.52
-204.65
-152.84
-106.77
-67.96
-35.93
-9.04
14.66
36.92
59.32
83.37
110.22
140.10
171.68
202.06
227.50
244.77
252.46
251.38
244.06
233.58
222.40
211.77
201.96
192.97
184.95
178.35
173.47
170.19
167.92
165.99
163.96
161.83
159.89
158.51
157.99
158.45
159.83
161.89
164.27
166.69
169.30
172.66
177.40
183.73
190.69
196.04
196.78
190.17
174.77
151.09
121.37
88.89
56.96
28.13
3.60
-16.88
-34.86
-52.66
-72.51
-95.78
-122.36
-150.38
-176.65
-197.47
-209.65
-211.51
-203.47
-188.04
-169.11
-150.79
-136.24
-126.96
-122.66
-121.78
-122.44
-123.11
-122.95
-121.73
-119.48
-116.39
-112.77
-109.29
-107.00
-107.11
-110.50
-117.21
-126.26
-135.81
-143.88
-149.10
-151.15
-150.72
-148.96
-146.83
-144.75
-142.58
-140.08
-137.25
-134.39
-131.90
-129.84
-127.75
-124.81
-120.31
-114.10
-106.78
-99.49
-93.49
-89.63
-87.89
-87.22
-85.56
-80.34
-69.15
-50.54
-24.60
7.01
41.55
76.08
108.19
136.33
159.75
178.07
191.15
199.06
202.40
202.32
200.34
197.88
195.72
193.89
191.86
189.09
185.41
181.10
176.60
172.03
166.77
159.58
149.09
134.55
116.38
96.18
76.03
57.66
41.76
28.01
15.50
3.37
-8.73
-20.69
-32.25
-43.29
-54.00
-64.59
-75.13
-85.32
-94.48
-101.72
-106.12
-106.93
-103.76
-96.68
-86.28
-73.42
-59.04
-43.76
-27.91
-11.69
4.41
19.29
31.30
38.65
40.23
36.08
27.41
16.02
3.24
-10.73
-26.78
-46.18
-69.41
-95.42
-121.77
-145.56
-164.69
-178.66
-188.48
-195.70
-201.15
-204.27
-203.15
-195.54
-180.10
-157.33
-129.57
-100.27
-72.70
-48.79
-28.65
-11.04
5.62
22.28
38.70
53.74
66.18
75.49
82.14
87.28
92.01
96.77
101.24
104.68
106.47
106.52
105.33
103.67
102.24
101.48
101.52
102.30
103.52
104.75
105.30
104.30
100.83
94.12
83.66
69.40
51.79
31.89
11.39
-7.70
-23.49
-34.82
-41.69
-45.28
-47.39
-49.75
-53.31
-58.01
-63.00
-67.16
-69.63
-70.10
-68.77
-65.95
-61.87
-56.47
-49.55
-40.97
-31.00
-20.24
-9.49
0.62
9.93
18.71
27.43
36.33
45.13
53.06
59.16
62.63
62.92
59.80
53.14
43.04
30.02
15.38
1.21
-10.00
-16.11
-16.06
-10.19
0.04
12.75
26.24
39.40
51.48
61.85
69.78
74.51
75.59
73.15
67.97
61.19
53.97
47.13
41.08
35.81
31.17
26.93
22.88
18.87
14.70
10.22
5.28
-0.12
-5.90
-11.78
-17.36
-22.14
-25.59
-27.41
-27.67
-26.86
-25.88
-25.71
-27.11
-30.29
-34.78
-39.41
-42.54
-42.46
-37.77
-27.84
-13.03
5.30
25.04
43.90
60.03
72.42
81.11
86.76
90.22
92.06
92.42
91.33
89.06
86.47
84.78
85.14
87.92
92.41
97.03
99.98
100.08
97.09
91.67
84.70
76.63
67.25
55.96
42.47
27.42
12.47
-0.22
-8.94
-13.41
-15.20
-17.43
-23.76
-37.19
-59.22
-89.49
-126.14
-166.31
-206.72
-243.96
-274.73
-296.12
-306.03
-303.68
-289.80
-266.51
-236.65
-203.00
-167.66
-131.88
-96.28
-61.38
-28.00
2.43
28.02
46.78
57.26
59.06
53.15
41.70
27.56
13.54
1.71
-6.95
-12.58
-16.08
-18.66
-21.40
-25.03
-29.72
-35.15
-40.50
-44.65
-46.47
-45.30
-41.29
-35.47
-29.44
-24.53
-21.19
-18.57
-14.81
-7.93
3.30
18.76
37.09
56.27
74.36
90.00
102.56
112.02
118.96
124.48
129.99
136.76
145.20
154.42
162.21
165.89
163.46
154.57
140.74
124.60
108.83
95.02
83.42
73.31
63.78
54.38
45.25
36.84
29.45
23.06
17.40
12.32
8.06
5.22
4.61
6.78
11.67
18.29
24.89
29.23
29.38
24.41
14.97
3.33
-7.31
-13.85
-14.45
-9.09
0.63
12.24
23.45
32.72
39.52
43.93
46.26
46.72
45.41
42.50
38.45
34.11
30.43
28.12
27.22
27.07
26.61
24.94
21.80
17.64
13.33
9.51
6.17
2.58
-2.26
-9.01
-17.60
-27.24
-36.76
-45.15
-51.81
-56.67
-60.01
-62.22
-63.56
-64.02
-63.27
-60.76
-55.90
-48.36
-38.28
-26.27
-13.22
0.01
12.78
24.74
35.67
45.29
53.23
59.05
62.41
63.15
61.39
57.39
51.64
44.64
36.87
28.59
19.65
9.48
-2.72
-17.62
-35.28
-55.00
-75.44
-94.95
-112.09
-125.81
-135.51
-140.93
-142.01
-138.99
-132.38
-123.13
-112.44
-101.55
-91.39
-82.30
-73.86
-64.98
-54.31
-40.65
-23.55
-3.49
18.16
39.67
59.37
76.20
89.72
99.96
107.16
111.46
112.99
111.97
108.85
104.32
99.08
93.69
88.44
83.43
78.66
74.16
69.95
65.88
61.60
56.53
50.19
42.48
33.89
25.40
18.14
12.90
9.86
8.51
7.89
6.91
4.50
-0.22
-8.01
-19.38
-34.33
-52.07
-70.78
-87.74
-99.78
-104.06
-98.84
-84.03
-61.18
-33.00
-2.60
27.15
53.95
76.10
92.39
102.17
105.60
103.70
98.27
91.27
84.25
77.86
71.94
65.93
59.50
53.00
47.40
43.79
42.57
42.80
42.08
37.14
25.00
4.21
-24.36
-57.67
-91.64
-122.73
-149.08
-170.87
-189.58
-206.79
-223.13
-238.14
-250.57
-258.94
-261.89
-258.11
-246.38
-225.69
-195.83
-157.91
-114.65
-70.03
-28.29
7.17
34.66
54.34
67.60
76.24
81.70
84.70
85.47
84.00
80.44
75.17
68.72
61.62
54.32
47.25
40.95
36.13
33.57
33.80
36.72
41.30
45.59
47.21
44.23
36.06
23.86
10.15
-2.19
-11.29
-16.98
-20.65
-24.24
-29.06
-35.02
-40.73
-44.28
-44.16
-39.80
-31.57
-20.35
-7.11
7.34
22.27
36.89
50.28
61.52
69.84
74.76
76.13
74.13
69.21
62.16
54.06
46.10
39.27
34.09
30.34
27.24
23.82
19.46
14.28
9.11
5.09
3.13
3.45
5.58
8.54
11.25
12.86
12.85
10.92
6.96
1.05
-6.30
-14.10
-20.91
-25.28
-26.44
-24.74
-21.53
-18.50
-16.73
-16.05
-15.14
-12.43
-7.23
-0.27
6.40
10.41
10.25
5.93
-1.20
-9.20
-16.51
-22.62
-27.91
-33.18
-38.95
-45.14
-51.03
-55.68
-58.30
-58.62
-56.91
-53.80
-49.96
-45.89
-41.85
-37.98
-34.51
-31.83
-30.57
-31.35
-34.62
-40.46
-48.55
-58.17
-68.30
-77.77
-85.31
-89.82
-90.48
-87.03
-79.92
-70.26
-59.53
-49.25
-40.56
-34.02
-29.64
-27.02
-25.63
-24.91
-24.43
-23.81
-22.73
-20.93
-18.21
-14.50
-9.91
-4.78
0.43
5.22
9.25
12.42
14.89
16.94
18.77
20.36
21.48
21.75
20.85
18.59
14.91
9.85
3.62
-3.34
-10.24
-15.98
-19.28
-19.06
-14.81
-6.78
4.06
16.26
28.31
38.94
47.40
53.45
57.33
59.61
60.95
61.99
63.17
64.66
66.32
67.85
68.89
69.19
68.71
67.60
66.15
64.70
63.50
62.62
61.99
61.35
60.40
58.83
56.47
53.35
49.72
45.97
42.35
38.90
35.36
31.36
26.67
21.38
15.97
11.18
7.88
6.74
8.07
11.57
16.26
20.57
22.68
21.03
14.74
4.02
-10.07
-25.88
-41.63
-55.81
-67.22
-75.04
-78.71
-78.13
-73.64
-66.10
-56.68
-46.59
-36.78
-27.77
-19.80
-12.96
-7.33
-3.00
0.05
2.04
3.45
4.84
6.64
8.94
11.39
13.34
14.07
13.22
10.95
8.05
5.67
4.94
6.60
10.75
17.00
24.65
33.02
41.53
49.71
57.04
62.97
67.03
69.06
69.41
68.88
68.43
68.86
70.56
73.49
77.39
81.95
86.96
92.32
97.91
103.49
108.72
113.34
117.23
120.52
123.44
126.19
128.79
131.18
133.46
135.96
139.02
142.56
145.68
146.60
143.19
133.89
118.54
98.59
76.54
54.94
35.45
18.47
3.46
-10.44
-23.81
-36.70
-48.78
-59.52
-68.23
-74.05
-75.92
-72.90
-64.62
-51.67
-35.67
-18.87
-3.43
9.41
19.50
27.57
34.54
40.98
46.83
51.68
55.21
57.49
59.01
60.34
61.79
63.24
64.20
64.10
62.50
59.27
54.43
48.11
40.37
31.34
21.26
10.57
-0.06
-9.82
-17.87
-23.60
-26.85
-28.00
-27.94
-27.76
-28.36
-30.14
-32.96
-36.54
-40.94
-46.95
-55.91
-69.19
-87.30
-109.40
-133.32
-156.23
-175.63
-190.04
-199.30
-204.20
-205.88
-205.29
-202.99
-199.25
-194.36
-188.76
-183.07
-177.88
-173.55
-170.17
-167.63
-165.78
-164.55
-163.72
-162.64
-160.03
-154.07
-142.94
-125.61
-102.43
-75.18
-46.66
-19.78
3.18
21.06
33.71
41.83
46.46
48.78
49.91
50.73
51.75
53.03
54.21
54.81
54.52
53.40
51.90
50.59
49.82
49.54
49.35
48.79
47.57
45.80
43.92
42.43
41.69
41.72
42.23
42.72
42.66
41.58
39.15
35.34
30.53
25.70
22.24
21.73
25.27
33.06
44.06
56.24
67.10
74.54
77.40
75.71
70.41
62.78
53.96
44.57
34.78
24.58
14.15
4.06
-4.72
-11.11
-14.32
-14.15
-11.07
-6.12
-0.56
4.47
8.24
10.46
11.22
10.90
9.94
8.72
7.27
5.15
1.52
-4.59
-13.87
-26.29
-40.95
-56.31
-70.59
-82.28
-90.48
-94.86
-95.58
-93.07
-87.96
-81.04
-73.20
-65.24
-57.69
-50.66
-43.86
-36.81
-29.19
-21.01
-12.63
-4.61
2.66
9.02
14.63
19.79
24.69
29.39
33.84
38.09
42.31
46.64
50.88
54.32
55.81
54.25
49.22
41.25
31.80
22.67
15.29
10.29
7.39
5.80
4.61
3.21
1.39
-0.85
-3.48
-6.50
-9.91
-13.52
-16.87
-19.23
-19.86
-18.25
-14.32
-8.42
-1.15
6.86
15.17
23.52
31.76
39.55
46.37
51.56
54.58
55.31
54.10
51.71
48.87
45.98
42.87
38.87
33.27
25.68
16.33
5.99
-4.39
-14.04
-22.69
-30.44
-37.60
-44.33
-50.50
-55.72
-59.54
-61.56
-61.64
-59.98
-56.99
-53.33
-49.70
-46.78
-44.92
-44.10
-43.81
-43.22
-41.36
-37.47
-31.18
-22.64
-12.45
-1.47
9.44
19.56
28.47
35.91
41.71
45.65
47.42
46.81
43.84
38.98
33.13
27.49
23.26
21.28
21.77
24.38
28.29
32.49
36.11
38.53
39.54
39.33
38.37
37.25
36.47
36.16
36.05
35.46
33.55
29.51
22.81
13.30
1.22
-12.79
-27.70
-42.02
-53.96
-61.77
-64.19
-60.99
-53.15
-42.66
-31.88
-22.85
-16.69
-13.46
-12.43
-12.55
-12.91
-12.98
-12.52
-11.38
-9.46
-6.65
-3.01
1.16
5.35
9.09
12.17
14.79
17.37
20.28
23.48
26.45
28.45
28.89
27.73
25.51
23.15
21.52
21.09
21.78
23.11
24.45
25.31
25.46
24.86
23.61
21.99
20.49
19.90
21.16
25.11
32.12
41.90
53.55
65.89
77.89
89.04
99.36
109.19
118.98
129.03
139.52
150.54
162.13
174.22
186.62
199.00
211.06
222.66
233.81
244.52
254.45
262.69
267.84
268.41
263.42
252.83
237.55
219.15
199.32
179.48
160.54
142.91
126.51
110.78
94.70
76.91
55.91
30.47
-0.11
-35.54
-74.30
-113.61
-149.76
-178.96
-198.33
-206.89
-205.72
-197.55
-185.73
-173.15
-161.66
-152.02
-144.39
-138.73
-135.00
-133.02
-132.22
-131.51
-129.58
-125.30
-118.25
-108.92
-98.80
-89.90
-84.09
-82.51
-85.27
-91.60
-100.38
-110.69
-121.99
-133.89
-145.75
-156.48
-164.70
-169.20
-169.48
-166.01
-160.11
-153.55
-148.15
-145.28
-145.55
-148.48
-152.56
-155.50
-154.99
-149.54
-138.99
-124.52
-107.99
-91.18
-75.25
-60.80
-48.28
-38.32
-31.65
-28.65
-28.92
-31.18
-33.69
-34.86
-33.71
-29.85
-23.15
-13.53
-0.93
14.26
30.92
47.34
61.74
73.00
81.02
86.55
90.60
93.89
96.65
98.90
100.90
103.53
108.16
115.96
126.96
139.32
149.14
151.34
141.21
116.17
76.98
27.73
-25.53
-76.74
-121.69
-158.59
-187.73
-210.15
-226.68
-237.64
-243.28
-244.43
-242.67
-239.93
-237.64
-236.20
-234.84
-232.16
-226.95
-218.67
-207.61
-194.59
-180.48
-165.93
-151.28
-136.73
-122.58
-109.19
-96.97
-86.09
-76.43
-67.60
-59.04
-50.46
-41.82
-33.55
-26.33
-20.88
-17.61
-16.29
-16.04
-15.29
-12.22
-5.25
6.42
22.52
41.74
62.21
82.08
100.00
115.31
127.94
138.13
146.22
152.53
157.43
161.35
164.75
168.02
171.49
175.39
179.94
185.42
192.04
199.75
208.04
215.88
221.95
224.98
224.10
218.96
209.88
197.65
183.37
168.07
152.28
135.71
117.42
96.28
71.75
44.40
15.98
-11.01
-34.07
-51.25
-61.45
-64.42
-60.62
-51.14
-37.60
-21.97
-6.15
8.42
21.03
31.48
39.75
45.78
49.56
51.36
51.95
52.40
53.58
55.77
58.51
60.94
62.41
62.86
62.77
62.80
63.37
64.35
65.27
65.57
65.00
63.70
62.11
60.65
59.47
58.44
57.19
55.41
52.91
49.46
44.74
38.19
29.11
16.83
0.86
-19.03
-42.88
-70.46
-101.10
-133.52
-165.69
-195.10
-219.33
-236.67
-246.56
-249.61
-247.17
-240.85
-232.12
-222.21
-212.07
-202.43
-193.69
-185.85
-178.60
-171.38
-163.65
-155.04
-145.33
-134.51
-122.74
-110.33
-97.74
-85.52
-74.14
-63.93
-54.87
-46.77
-39.38
-32.52
-26.21
-20.57
-15.77
-11.84
-8.76
-6.44
-4.85
-3.93
-3.47
-3.00
-1.63
1.66
7.75
17.11
29.49
44.09
59.67
74.87
88.36
99.04
106.18
109.61
109.95
108.48
106.86
106.50
108.02
111.07
114.54
117.15
118.07
117.20
114.98
112.02
108.72
105.12
100.99
96.00
89.82
82.10
72.61
61.30
48.52
35.03
21.75
9.34
-2.11
-13.08
-24.14
-35.31
-45.67
-53.35
-56.13
-52.22
-40.93
-22.90
-0.01
25.02
49.17
69.58
84.11
91.77
92.96
89.27
82.90
75.80
68.91
61.88
53.37
41.79
26.16
6.47
-16.23
-40.26
-63.78
-85.12
-102.98
-116.37
-124.77
-128.14
-127.00
-122.41
-115.61
-107.82
-99.95
-92.53
-85.83
-79.99
-75.12
-71.37
-68.75
-67.07
-65.94
-64.75
-62.78
-59.33
-53.82
-45.90
-35.59
-23.28
-9.79
3.81
16.43
27.26
36.08
43.28
49.78
56.63
64.57
73.80
83.81
93.70
102.48
109.48
114.47
117.73
119.79
121.34
122.97
125.18
128.24
132.22
136.85
141.57
145.68
148.53
149.76
149.45
147.84
144.98
140.34
132.71
120.48
102.33
78.00
48.68
16.87
-14.27
-41.94
-64.39
-81.17
-92.83
-100.37
-104.71
-106.45
-106.08
-104.11
-101.29
-98.37
-95.87
-93.73
-91.33
-87.76
-82.28
-74.76
-65.81
-56.55
-48.15
-41.26
-35.75
-30.69
-24.77
-16.80
-6.29
6.34
19.81
32.57
43.36
51.76
58.32
64.24
70.76
78.57
87.50
96.58
104.52
110.38
113.93
115.88
117.61
120.74
126.57
135.64
147.48
160.75
173.67
184.61
192.66
197.86
201.17
204.00
207.59
212.35
217.34
220.38
218.45
208.71
189.30
159.97
121.98
77.36
28.14
-24.17
-78.46
-133.40
-186.91
-236.23
-278.68
-312.69
-338.45
-357.74
-372.79
-385.07
-394.43
-399.25
-397.25
-386.83
-367.84
-341.79
-311.37
-279.50
-248.60
-220.14
-194.59
-171.61
-150.40
-130.03
-109.59
-88.36
-65.95
-42.28
-17.63
7.44
32.14
55.52
76.62
94.66
109.23
120.40
128.73
135.07
140.31
145.20
150.27
155.88
162.10
168.63
174.65
178.83
179.76
176.51
169.12
158.61
146.60
134.53
123.23
112.81
103.08
93.96
85.61
78.13
70.98
62.84
51.93
36.85
17.50
-4.57
-26.57
-45.38
-58.52
-64.74
-64.08
-57.53
-46.64
-33.13
-18.70
-4.89
7.06
16.25
22.16
24.47
23.08
18.08
9.89
-0.74
-12.86
-25.53
-38.10
-50.32
-62.12
-73.36
-83.69
-92.45
-98.97
-102.71
-103.38
-100.90
-95.44
-87.31
-77.14
-65.78
-54.24
-43.46
-34.08
-26.42
-20.45
-15.95
-12.56
-9.91
-7.56
-5.16
-2.47
0.58
4.08
8.32
13.94
21.93
33.16
47.96
65.79
85.34
105.04
123.65
140.71
156.40
171.26
185.74
200.09
214.42
228.79
243.07
256.57
267.73
274.32
274.17
266.20
251.26
231.96
211.88
194.14
180.40
170.61
163.51
157.65
151.99
146.21
140.43
134.87
129.64
124.70
119.85
114.63
108.35
100.14
89.24
75.28
58.57
40.12
21.52
4.59
-9.21
-19.30
-26.39
-32.35
-39.63
-50.30
-65.12
-83.38
-103.28
-122.98
-141.35
-158.21
-173.83
-188.29
-201.15
-211.75
-219.84
-226.01
-231.47
-237.41
-244.17
-250.97
-256.16
-257.91
-254.90
-246.72
-233.83
-217.32
-198.55
-178.91
-159.66
-141.74
-125.63
-111.24
-97.97
-85.03
-71.85
-58.46
-45.63
-34.53
-26.26
-21.29
-19.31
-19.49
-20.99
-23.44
-27.08
-32.62
-40.88
-52.58
-68.12
-87.65
-110.86
-136.95
-164.55
-191.85
-216.87
-237.90
-253.76
-263.90
-268.26
-267.11
-260.97
-250.58
-236.89
-220.88
-203.42
-185.14
-166.39
-147.49
-128.76
-110.65
-93.65
-78.16
-64.42
-52.46
-42.19
-33.52
-26.52
-21.32
-17.93
-16.00
-14.63
-12.53
-8.34
-1.18
9.03
21.48
34.78
47.50
58.58
67.53
74.28
78.92
81.57
82.36
81.55
79.62
77.16
74.68
72.48
70.57
68.80
67.05
