1553537139.00
64.000000
-0.00
-0.00
-0.00
-0.00
-0.00
-0.00
-0.00
-0.00
-0.00
-0.00
0.00
0.01
0.01
-0.00
-0.03
-0.05
-0.05
0.00
0.13
0.36
0.66
1.01
1.37
1.72
2.06
2.40
2.79
3.24
3.80
4.42
5.06
5.66
6.20
6.68
7.15
7.68
8.31
9.14
10.09
11.04
11.88
12.56
13.14
13.76
14.65
15.96
17.91
20.32
22.90
25.38
27.58
29.57
31.68
34.32
37.81
42.54
48.15
54.10
59.83
64.97
69.58
74.14
79.34
85.71
93.76
103.00
112.62
121.73
129.77
136.75
143.30
150.75
157.77
166.64
177.95
191.79
206.97
220.57
228.25
225.36
208.53
176.87
132.76
80.05
23.07
-34.94
-92.44
-149.16
-205.23
-260.37
-313.74
-363.87
-409.83
-450.91
-486.50
-515.74
-537.23
-549.22
-549.96
-538.37
-514.21
-478.67
-433.88
-382.45
-327.02
-269.84
-212.63
-156.66
-102.95
-52.37
-5.90
35.58
71.43
101.35
125.50
144.38
158.69
169.15
176.37
180.75
182.57
182.07
179.51
175.23
169.65
163.17
156.14
148.81
141.30
133.71
126.05
118.38
110.76
103.26
95.94
88.87
82.06
75.53
69.30
63.36
57.73
52.40
47.40
42.72
38.36
34.30
30.55
27.09
23.93
21.05
18.44
16.12
14.06
12.27
10.73
9.42
8.34
7.47
6.79
6.29
5.95
5.76
5.73
5.82
6.01
6.29
6.60
6.96
7.37
7.86
8.46
9.18
10.03
10.98
11.99
13.04
14.12
15.25
16.44
17.73
19.14
20.67
22.30
23.97
25.65
27.29
28.91
30.51
32.10
33.59
34.80
35.44
35.22
33.85
31.20
27.31
22.36
16.64
10.41
3.82
-3.06
-10.24
-17.61
-24.96
-31.88
-37.86
-42.45
-45.47
-47.08
-47.73
-47.99
-48.35
-49.03
-49.92
-50.60
-50.73
-50.10
-48.78
-47.02
-45.08
-43.22
-41.80
-41.44
-42.75
-45.77
-49.38
-51.03
-47.37
-35.87
-16.36
8.40
33.61
54.53
68.31
74.30
73.67
68.08
58.88
47.24
34.75
23.59
15.98
13.02
13.47
14.56
13.44
8.65
0.64
-8.69
-17.49
-25.01
-31.92
-40.47
-53.35
-73.04
-101.07
-137.21
-178.56
-219.64
-253.72
-271.08
-266.29
-239.17
-194.61
-140.35
-84.26
-32.28
11.97
46.65
70.75
83.77
86.60
82.02
74.37
68.19
66.55
69.84
76.14
82.44
86.36
87.15
85.56
82.93
80.20
77.61
74.57
70.32
64.63
58.64
53.93
51.56
51.29
52.05
53.01
54.42
57.97
66.24
82.66
109.25
145.47
187.70
230.33
267.47
294.47
309.22
305.76
283.26
246.49
204.42
165.72
135.35
113.89
99.48
90.25
85.12
84.41
87.98
94.45
100.89
104.83
105.40
102.45
97.00
90.21
83.65
78.10
73.50
68.50
62.13
54.21
45.31
36.30
27.52
18.67
8.02
-2.39
-12.83
-23.70
-34.94
-46.06
-56.32
-65.40
-73.32
-80.66
-88.24
-97.38
-108.70
-121.96
-136.35
-150.84
-164.76
-177.90
-190.63
-203.68
-218.60
-236.66
-258.36
-282.96
-308.11
-330.05
-344.55
-348.18
-339.53
-320.20
-293.88
-265.09
-237.67
-213.73
-193.44
-175.68
-159.01
-142.40
-125.75
-109.51
-94.31
-80.67
-68.79
-58.53
-49.51
-41.40
-34.00
-27.31
-21.24
-15.49
-9.52
-2.78
4.88
12.97
20.53
26.56
30.63
33.15
35.17
37.83
41.71
46.60
51.69
56.08
59.22
61.06
62.00
62.61
63.26
64.07
64.85
65.28
65.12
64.36
63.31
62.40
62.02
62.18
62.57
62.62
61.92
60.38
58.29
56.15
54.38
53.18
52.53
52.26
52.16
52.05
51.69
50.83
49.22
46.61
42.83
37.87
31.88
25.11
17.92
10.71
3.96
-1.84
-6.21
-8.82
-9.64
-8.94
-7.29
-5.32
-3.53
-2.15
-1.19
-0.60
-0.41
-0.82
-2.11
-4.48
-7.98
-12.42
-17.43
-22.54
-27.23
-30.93
-33.11
-33.40
-31.71
-28.42
-24.34
-20.54
-17.95
-17.21
-18.52
-21.67
-26.32
-32.13
-38.93
-46.79
-55.87
-66.26
-77.79
-89.96
-101.84
-112.23
-119.89
-123.86
-123.72
-119.48
-111.40
-99.95
-86.12
-71.65
-59.01
-50.80
-48.93
-53.83
-64.15
-77.15
-89.42
-97.80
-100.02
-95.22
-83.96
-67.81
-49.06
-30.01
-12.68
1.90
13.59
23.28
32.57
43.17
56.18
71.20
85.71
95.25
94.74
81.03
55.22
23.32
-5.37
-22.00
-21.93
-6.65
17.20
41.31
59.57
70.31
75.85
80.01
85.36
91.75
97.09
99.32
98.12
95.48
94.51
97.90
106.25
118.43
132.03
144.55
153.77
157.74
154.53
142.30
119.90
87.65
48.00
5.43
-34.38
-65.92
-85.30
-91.15
-84.72
-69.17
-48.39
-25.96
-4.49
14.39
29.65
40.51
46.34
46.90
42.73
35.27
26.60
18.68
12.69
8.90
6.82
5.84
5.67
6.53
8.88
13.02
18.70
25.11
31.05
35.42
37.56
37.42
35.47
32.43
29.02
25.83
23.16
21.15
19.75
18.80
18.21
18.00
18.39
19.59
21.64
24.21
26.65
28.17
28.17
26.41
23.04
18.43
13.05
7.42
2.13
-2.07
-4.40
-4.19
-1.23
4.19
11.32
19.08
26.38
32.27
36.17
37.89
37.67
36.08
33.84
31.57
29.57
27.75
25.81
23.42
20.46
17.10
13.76
10.87
8.76
7.53
7.05
7.03
7.10
6.87
5.99
4.22
1.53
-1.79
-5.20
-8.00
-9.58
-9.70
-8.53
-6.61
-4.58
-2.96
-1.93
-1.42
-1.18
-1.03
-0.92
-0.94
-1.24
-1.91
-2.92
-4.13
-5.32
-6.29
-6.89
-7.14
-7.10
-6.94
-6.83
-6.89
-7.25
-7.99
-9.11
-10.61
-12.36
-14.20
-15.88
-17.17
-17.81
-17.67
-16.62
-14.73
-12.21
-9.40
-6.65
-4.24
-2.25
-0.57
1.01
2.60
4.16
5.46
6.24
6.33
5.75
4.66
3.21
1.40
-0.90
-3.78
-7.11
-10.39
-12.86
-13.80
-12.76
-9.83
-5.60
-0.98
3.06
5.66
6.30
4.79
1.37
-3.36
-8.50
-13.04
-16.13
-17.31
-16.55
-14.20
-10.69
-6.43
-1.76
3.00
7.41
10.93
13.02
13.41
12.27
10.18
7.94
6.24
5.38
5.20
5.24
5.05
4.48
3.67
2.96
2.57
2.52
2.47
2.08
1.07
-0.53
-2.46
-4.41
-6.08
-7.39
-8.39
-9.15
-9.69
-9.92
-9.70
-8.96
-7.65
-5.77
-3.26
-0.01
4.00
8.65
13.43
17.47
19.74
19.41
16.26
10.91
4.68
-0.85
-4.43
-5.61
-4.86
-3.23
-1.80
-1.22
-1.49
-2.20
-2.84
-3.19
-3.35
-3.61
-4.21
-5.19
-6.42
-7.79
-9.27
-10.97
-12.93
-14.97
-16.65
-17.42
-16.86
-14.96
-12.11
-8.99
-6.22
-4.20
-2.92
-2.11
-1.48
-0.82
-0.17
0.31
0.37
-0.10
-1.10
-2.41
-3.65
-4.37
-4.14
-2.74
-0.29
2.74
5.60
7.48
7.73
6.05
2.62
-1.95
-6.85
-11.25
-14.54
-16.41
-16.94
-16.51
-15.62
-14.77
-14.31
-14.33
-14.65
-14.91
-14.70
-13.79
-12.24
-10.42
-8.82
-7.80
-7.43
-7.42
-7.31
-6.70
-5.43
-3.65
-1.63
0.38
2.26
4.03
5.72
7.25
8.42
8.99
8.78
7.78
6.13
4.10
2.00
0.09
-1.40
-2.32
-2.58
-2.17
-1.19
0.13
1.47
2.47
2.81
2.33
1.05
-0.83
-2.97
-5.05
-6.77
-7.98
-8.63
-8.78
-8.52
-7.98
-7.26
-6.41
-5.40
-4.13
-2.47
-0.34
2.22
5.01
7.64
9.71
10.92
11.22
10.80
10.06
9.41
9.13
9.29
9.76
10.30
10.68
10.72
10.38
9.64
8.60
7.38
6.14
5.01
4.02
3.04
1.86
0.28
-1.67
-3.68
-5.19
-5.66
-4.75
-2.55
0.45
3.54
6.09
7.72
8.46
8.58
8.47
8.35
8.24
7.95
7.20
5.81
3.80
1.44
-0.82
-2.53
-3.39
-3.34
-2.58
-1.38
0.01
1.44
2.86
4.21
5.29
5.76
5.33
3.85
1.49
-1.32
-4.05
-6.35
-8.07
-9.32
-10.25
-10.92
-11.25
-11.08
-10.31
-9.03
-7.49
-6.01
-4.87
-4.16
-3.82
-3.67
-3.51
-3.12
-2.38
-1.23
0.33
2.19
4.16
6.03
7.56
8.60
9.08
9.06
8.67
8.06
7.39
6.72
6.07
5.36
4.48
3.38
2.01
0.47
-1.11
-2.48
-3.41
-3.63
-2.94
-1.20
1.51
4.90
8.38
11.22
12.72
12.47
10.53
7.44
4.00
0.98
-1.17
-2.42
-3.11
-3.63
-4.25
-5.02
-5.77
-6.30
-6.51
-6.43
-6.18
-5.90
-5.67
-5.55
-5.56
-5.77
-6.28
-7.16
-8.44
-9.97
-11.48
-12.62
-13.02
-12.46
-10.91
-8.55
-5.72
-2.84
-0.24
1.82
3.21
3.84
3.75
2.99
1.68
0.06
-1.63
-3.13
-4.31
-5.12
-5.66
-6.04
-6.37
-6.68
-6.95
-7.19
-7.44
-7.78
-8.24
-8.76
-9.18
-9.33
-9.17
-8.80
-8.51
-8.55
-9.04
-9.84
-10.59
-10.83
-10.22
-8.57
-5.91
-2.49
1.27
4.86
7.74
9.47
9.87
9.09
7.56
5.87
4.54
3.80
3.61
3.68
3.63
3.15
2.12
0.57
-1.33
-3.31
-5.07
-6.32
-6.91
-6.81
-6.23
-5.51
-5.00
-4.99
-5.55
-6.60
-7.90
-9.15
-10.09
-10.49
-10.22
-9.24
-7.56
-5.31
-2.69
-0.02
2.34
4.09
5.09
5.45
5.47
5.54
5.94
6.72
7.71
8.60
9.13
9.18
8.83
8.21
7.50
6.76
6.07
5.44
4.95
4.58
4.26
3.80
3.00
1.72
-0.02
-2.09
-4.28
-6.36
-8.16
-9.53
-10.37
-10.64
-10.33
-9.53
-8.35
-6.90
-5.26
-3.52
-1.76
-0.14
1.14
1.85
1.85
1.09
-0.29
-1.94
-3.42
-4.24
-4.08
-2.90
-1.01
1.08
2.87
4.10
4.85
5.39
5.98
6.68
7.30
7.58
7.31
6.49
5.36
4.24
3.42
3.09
3.30
4.05
5.23
6.65
8.04
9.10
9.53
9.19
8.11
6.44
4.45
2.37
0.38
-1.41
-2.98
-4.30
-5.39
-6.29
-7.07
-7.82
-8.63
-9.61
-10.78
-12.11
-13.50
-14.74
-15.67
-16.13
-16.14
-15.87
-15.59
-15.53
-15.73
-15.99
-15.87
-14.93
-12.90
-9.80
-6.00
-2.04
1.52
4.28
6.08
7.00
7.27
7.16
6.89
6.55
6.09
5.43
4.56
3.54
2.60
1.91
1.55
1.46
1.42
1.24
0.84
0.31
-0.15
-0.32
-0.09
0.45
0.99
1.11
0.31
-1.75
-5.10
-9.36
-13.74
-17.39
-19.60
-20.13
-19.26
-17.58
-15.70
-14.04
-12.69
-11.50
-10.26
-8.81
-7.11
-5.18
-3.10
-0.96
1.06
2.80
4.15
5.16
6.05
7.13
8.65
10.66
12.95
15.12
16.75
17.59
17.64
17.07
16.15
15.16
14.29
13.65
13.23
12.94
12.65
12.21
11.62
10.94
10.36
10.00
9.90
9.94
9.86
9.49
8.75
7.78
6.75
5.84
5.05
4.23
3.21
1.90
0.40
-1.05
-2.15
-2.71
-2.75
-2.48
-2.18
-2.07
-2.19
-2.43
-2.64
-2.69
-2.58
-2.36
-2.11
-1.89
-1.72
-1.64
-1.69
-1.96
-2.59
-3.66
-5.25
-7.33
-9.73
-12.11
-14.03
-15.02
-14.76
-13.17
-10.52
-7.31
-4.11
-1.35
0.73
2.16
3.14
3.90
4.62
5.34
5.96
6.36
6.36
5.92
5.06
3.91
2.65
1.45
0.44
-0.26
-0.64
-0.71
-0.59
-0.45
-0.51
-0.87
-1.58
-2.49
-3.37
-4.02
-4.34
-4.35
-4.23
-4.18
-4.37
-4.89
-5.71
-6.72
-7.71
-8.47
-8.78
-8.50
-7.56
-5.98
-3.88
-1.49
0.88
2.90
4.33
5.02
5.03
4.58
3.92
3.26
2.67
2.16
1.67
1.19
0.70
0.25
-0.19
-0.62
-1.06
-1.46
-1.72
-1.73
-1.43
-0.93
-0.45
-0.25
-0.50
-1.20
-2.18
-3.23
-4.20
-5.08
-5.97
-6.98
-8.19
-9.52
-10.82
-11.88
-12.52
-12.57
-11.92
-10.50
-8.37
-5.74
-2.95
-0.34
1.83
3.47
4.67
5.51
6.07
6.35
6.27
5.80
5.03
4.15
3.39
2.93
2.82
2.97
3.21
3.37
3.32
3.01
2.46
1.71
0.85
-0.08
-0.97
-1.73
-2.28
-2.56
-2.61
-2.60
-2.73
-3.21
-4.14
-5.47
-6.99
-8.40
-9.34
-9.52
-8.82
-7.32
-5.32
-3.18
-1.22
0.36
1.54
2.45
3.19
3.81
4.25
4.42
4.29
3.91
3.39
2.83
2.23
1.58
0.83
0.05
-0.65
-1.14
-1.38
-1.47
-1.61
-1.98
-2.65
-3.51
-4.39
-5.11
-5.61
-5.96
-6.27
-6.64
-7.11
-7.71
-8.45
-9.33
-10.32
-11.20
-11.61
-11.13
-9.45
-6.63
-3.04
0.68
3.92
6.27
7.63
8.09
7.85
7.09
5.98
4.65
3.23
1.90
0.81
0.06
-0.30
-0.23
0.20
0.88
1.58
2.01
1.90
1.12
-0.23
-1.87
-3.45
-4.68
-5.46
-5.89
-6.15
-6.44
-6.89
-7.53
-8.32
-9.11
-9.66
-9.68
-8.90
-7.24
-4.83
-2.03
0.68
2.91
4.46
5.33
5.66
5.57
5.09
4.21
2.95
1.44
-0.09
-1.36
-2.16
-2.46
-2.41
-2.24
-2.21
-2.46
-2.97
-3.65
-4.36
-4.98
-5.46
-5.80
-6.05
-6.31
-6.70
-7.32
-8.19
-9.17
-9.99
-10.28
-9.77
-8.37
-6.19
-3.54
-0.77
1.78
3.85
5.30
6.10
6.26
5.93
5.21
4.26
3.19
2.09
1.05
0.22
-0.33
-0.55
-0.52
-0.42
-0.47
-0.75
-1.26
-1.86
-2.41
-2.84
-3.23
-3.81
-4.81
-6.43
-8.62
-11.08
-13.29
-14.63
-14.63
-13.13
-10.35
-6.78
-3.05
0.37
3.20
5.38
6.95
7.92
8.24
7.82
6.69
5.02
3.17
1.50
0.29
-0.45
-0.92
-1.47
-2.35
-3.63
-5.11
-6.49
-7.51
-8.06
-8.30
-8.58
-9.25
-10.56
-12.52
-14.88
-17.19
-18.94
-19.72
-19.32
-17.80
-15.40
-12.42
-9.18
-5.91
-2.78
0.00
2.23
3.72
4.35
4.20
3.48
2.53
1.56
0.71
-0.09
-0.96
-1.93
-2.92
-3.79
-4.44
-4.86
-5.19
-5.62
-6.30
-7.32
-8.78
-10.80
-13.50
-16.85
-20.53
-23.95
-26.41
-27.36
-26.65
-24.52
-21.40
-17.59
-13.19
-8.15
-2.48
3.59
9.55
14.77
18.75
21.24
22.26
22.09
21.09
19.61
17.94
16.30
14.81
13.52
12.37
11.30
10.23
9.13
7.90
6.46
4.73
2.67
0.31
-2.30
-5.11
-8.14
-11.41
-14.91
-18.43
-21.57
-23.79
-24.54
-23.48
-20.62
-16.31
-11.14
-5.72
-0.48
4.34
8.66
12.42
15.53
17.80
19.14
19.54
19.23
18.56
17.88
17.42
17.21
17.10
16.93
16.56
16.01
15.36
14.68
13.93
12.99
11.71
9.97
7.82
5.38
2.79
0.10
-2.79
-6.06
-9.80
-13.89
-17.89
-21.12
-22.92
-22.83
-20.78
-17.08
-12.28
-6.99
-1.69
3.27
7.73
11.59
14.77
17.20
18.89
19.90
20.40
20.63
20.80
21.01
21.29
21.56
21.75
21.83
21.82
21.75
21.61
21.27
20.64
19.64
18.36
16.94
15.50
13.97
12.10
9.59
6.28
2.30
-2.01
-6.26
-10.19
-13.71
-16.79
-19.26
-20.69
-20.55
-18.43
-14.30
-8.66
-2.35
3.70
8.86
12.86
15.83
18.03
19.77
21.14
22.13
22.67
22.71
22.36
21.83
21.35
21.07
21.04
21.16
21.29
21.32
21.18
20.94
20.63
20.25
19.70
18.79
17.37
15.36
12.90
10.24
7.69
5.46
3.51
1.62
-0.56
-3.32
-6.75
-10.65
-14.52
-17.71
-19.55
-19.58
-17.69
-14.13
-9.42
-4.23
0.91
5.62
9.70
13.10
15.77
17.66
18.80
19.27
19.27
19.03
18.79
18.59
18.43
18.16
17.70
17.02
16.21
15.43
14.79
14.35
14.06
13.75
13.20
12.21
10.67
8.66
6.38
4.15
2.22
0.63
-0.74
-2.20
-4.02
-6.38
-9.20
-12.21
-14.98
-17.09
-18.19
-18.02
-16.52
-13.76
-9.99
-5.60
-1.05
3.17
6.71
9.34
11.12
12.23
12.93
13.37
13.60
13.53
13.11
12.39
11.55
10.85
10.47
10.43
10.56
10.66
10.54
10.13
9.50
8.74
7.87
6.89
5.75
4.43
2.96
1.40
-0.22
-1.95
-3.92
-6.23
-8.93
-11.80
-14.44
-16.28
-16.79
-15.69
-13.08
-9.41
-5.33
-1.47
1.75
4.21
6.02
7.36
8.43
9.28
9.88
10.22
10.23
9.98
9.56
9.09
8.69
8.45
8.37
8.39
8.41
8.31
8.02
7.50
6.75
5.78
4.56
3.11
1.45
-0.33
-2.14
-3.87
-5.54
-7.23
-9.11
-11.31
-13.79
-16.29
-18.30
-19.30
-18.87
-16.90
-13.64
-9.64
-5.49
-1.74
1.33
3.63
5.20
6.16
6.60
6.65
6.41
6.05
5.70
5.41
5.17
4.88
4.48
4.01
3.60
3.52
4.01
5.15
6.83
8.74
10.44
11.53
11.79
11.20
9.90
8.12
6.10
4.00
1.94
-0.04
-1.95
-3.93
-6.16
-8.86
-12.06
-15.57
-18.89
-21.40
-22.53
-22.00
-19.94
-16.75
-13.01
-9.27
-5.91
-3.18
-1.15
0.17
0.90
1.19
1.23
1.21
1.24
1.41
1.71
2.09
2.50
2.87
3.16
3.29
3.28
3.14
2.96
2.83
2.81
2.85
2.84
2.56
1.84
0.59
-1.12
-3.08
-5.02
-6.74
-8.16
-9.39
-10.67
-12.23
-14.21
-16.58
-19.13
-21.48
-23.18
-23.86
-23.24
-21.25
-18.06
-14.06
-9.71
-5.48
-1.74
1.37
3.81
5.65
6.97
7.81
8.21
8.25
8.05
7.78
7.61
7.68
8.12
8.92
10.01
11.23
12.36
13.18
13.60
13.60
13.28
12.75
12.04
11.15
10.00
8.58
6.93
5.12
3.26
1.33
-0.69
-2.89
-5.32
-7.98
-10.79
-13.60
-16.15
-18.10
-19.05
-18.68
-16.90
-13.92
-10.24
-6.52
-3.27
-0.79
0.97
2.23
3.25
4.14
4.83
5.19
5.09
4.59
3.86
3.16
2.73
2.63
2.82
3.17
3.52
3.76
3.81
3.64
3.22
2.53
1.58
0.40
-0.91
-2.29
-3.70
-5.12
-6.59
-8.16
-9.87
-11.76
-13.83
-15.96
-17.91
-19.27
-19.59
-18.54
-16.04
-12.38
-8.07
-3.71
0.22
3.45
5.93
7.76
9.05
9.89
10.39
10.62
10.67
10.56
10.31
9.91
9.38
8.84
8.41
8.22
8.28
8.45
8.48
8.04
6.93
5.06
2.62
-0.08
-2.59
-4.55
-5.78
-6.39
-6.70
-7.17
-8.19
-9.96
-12.42
-15.24
-17.96
-20.09
-21.23
-21.11
-19.69
-17.08
-13.58
-9.58
-5.48
-1.63
1.69
4.33
6.23
7.46
8.21
8.69
9.08
9.48
9.87
10.17
10.28
10.18
9.89
9.44
8.92
8.35
7.77
7.25
6.81
6.45
6.10
5.67
5.04
4.15
3.00
1.66
0.17
-1.41
-3.08
-4.88
-6.85
-9.03
-11.46
-14.10
-16.79
-19.24
-21.06
-21.78
-21.11
-18.97
-15.57
-11.39
-6.98
-2.82
0.82
3.84
6.33
8.36
9.95
11.03
11.54
11.45
10.92
10.18
9.54
9.20
9.22
9.52
9.87
10.11
10.08
9.81
9.36
8.88
8.41
7.94
7.34
6.46
5.19
3.54
1.68
-0.20
-1.92
-3.40
-4.74
-6.16
-7.89
-10.11
-12.79
-15.73
-18.54
-20.73
-21.77
-21.26
-19.05
-15.25
-10.31
-4.92
0.24
4.58
7.77
9.79
10.86
11.32
11.52
11.73
12.07
12.55
13.06
13.46
13.63
13.52
13.10
12.44
11.59
10.64
9.67
8.74
7.89
7.10
6.27
5.29
4.03
2.50
0.81
-0.84
-2.29
-3.52
-4.65
-5.85
-7.36
-9.27
-11.56
-14.07
-16.50
-18.49
-19.60
-19.49
-17.94
-15.03
-11.06
-6.57
-2.10
1.89
5.13
7.56
9.22
10.22
10.67
10.71
10.48
10.14
9.85
9.65
9.53
9.43
9.26
9.03
8.81
8.68
8.67
8.68
8.55
8.09
7.22
5.96
4.48
2.96
1.51
0.15
-1.20
-2.68
-4.39
-6.41
-8.65
-10.89
-12.80
-13.99
-14.11
-12.97
-10.65
-7.42
-3.76
-0.13
3.06
5.62
7.49
8.73
9.44
9.68
9.50
8.95
8.12
7.17
6.32
5.73
5.50
5.54
5.72
5.85
5.80
5.49
4.88
3.99
2.85
1.54
0.20
-1.10
-2.34
-3.62
-5.13
-7.04
-9.45
-12.25
-15.13
-17.69
-19.48
-20.16
-19.57
-17.72
-14.80
-11.15
-7.18
-3.25
0.29
3.25
5.56
7.25
8.44
9.20
9.56
9.53
9.06
8.22
7.13
5.98
4.99
4.30
3.97
3.93
4.00
3.96
3.65
2.94
1.84
0.46
-1.06
-2.57
-4.04
-5.53
-7.16
-9.08
-11.36
-13.97
-16.70
-19.22
-21.05
-21.72
-20.93
-18.63
-15.09
-10.83
-6.44
-2.43
0.90
3.44
5.22
6.39
7.08
7.42
7.50
7.38
7.10
6.64
6.04
5.33
4.59
3.91
3.34
2.87
2.43
1.95
1.32
0.55
-0.38
-1.38
-2.37
-3.32
-4.23
-5.24
-6.53
-8.30
-10.69
-13.67
-16.99
-20.20
-22.72
-24.02
-23.71
-21.68
-18.10
-13.38
-8.10
-2.84
1.89
5.79
8.75
10.81
12.11
12.86
13.27
13.52
13.75
13.96
14.05
13.86
13.24
12.18
10.82
9.37
8.00
6.72
5.37
3.79
1.94
-0.04
-1.89
-3.40
-4.55
-5.51
-6.60
-8.05
-9.94
-12.20
-14.63
-16.97
-18.99
-20.38
-20.85
-20.14
-18.11
-14.88
-10.81
-6.43
-2.29
1.24
4.01
6.11
7.77
9.28
10.83
12.54
14.34
16.06
17.43
18.25
18.39
17.89
16.94
15.69
14.19
12.30
9.78
6.49
2.51
-1.84
-6.11
-9.87
-12.90
-15.11
-16.48
-16.99
-16.65
-15.59
-14.16
-12.95
-12.61
-13.58
-15.84
-18.91
-21.90
-23.82
-23.89
-21.70
-17.32
-11.16
-3.96
3.45
10.24
15.69
19.39
21.33
21.92
21.76
21.46
21.35
21.43
21.46
21.16
20.47
19.55
18.70
18.16
17.97
17.97
17.94
17.70
17.20
16.45
15.44
14.10
12.31
10.02
7.25
4.10
0.71
-2.72
-5.99
-8.78
-10.69
-11.31
-10.34
-7.80
-4.01
0.43
4.86
8.72
11.67
13.59
14.51
14.53
13.78
12.44
10.75
9.01
7.47
6.28
5.47
4.93
4.47
3.94
3.27
2.49
1.73
1.16
0.89
0.90
1.01
0.89
0.17
-1.41
-3.99
-7.43
-11.37
-15.38
-18.90
-21.47
-22.70
-22.40
-20.63
-17.66
-13.96
-10.05
-6.39
-3.28
-0.80
1.06
2.39
3.24
3.64
3.55
3.04
2.22
1.35
0.66
0.29
0.20
0.21
0.10
-0.30
-0.95
-1.67
-2.21
-2.41
-2.29
-2.05
-1.97
-2.26
-2.96
-3.98
-5.16
-6.45
-7.90
-9.63
-11.62
-13.65
-15.30
-16.10
-15.79
-14.46
-12.48
-10.29
-8.20
-6.23
-4.18
-1.78
1.08
4.29
7.46
10.18
12.08
13.05
13.23
12.93
12.53
12.24
12.07
11.82
11.28
10.30
8.92
7.29
5.53
3.66
1.62
-0.69
-3.29
-6.01
-8.73
-11.31
-13.76
-16.06
-18.10
-19.56
-20.02
-19.16
-16.92
-13.57
-9.57
-5.37
-1.26
2.61
6.18
9.32
11.81
13.36
13.84
13.31
12.07
10.59
9.29
8.46
8.16
8.30
8.69
9.05
9.20
8.97
8.29
7.20
5.80
4.28
2.76
1.26
-0.36
-2.31
-4.76
-7.72
-10.89
-13.87
-16.16
-17.36
-17.27
-15.91
-13.50
-10.36
-6.91
-3.48
-0.33
2.47
4.90
6.96
8.60
9.68
10.10
9.87
9.14
8.16
7.20
6.44
5.95
5.69
5.57
5.47
5.27
4.87
4.18
3.21
2.02
0.70
-0.71
-2.18
-3.81
-5.70
-7.87
-10.28
-12.76
-15.02
-16.71
-17.47
-17.04
-15.32
-12.41
-8.64
-4.46
-0.34
3.40
6.55
9.09
11.00
12.27
12.85
12.73
12.03
10.98
9.87
8.94
8.31
7.91
7.59
7.17
6.57
5.77
4.85
3.85
2.84
1.83
0.77
-0.44
-1.91
-3.75
-5.99
-8.61
-11.44
-14.19
-16.49
-17.94
-18.23
-17.18
-14.87
-11.58
-7.71
-3.69
0.16
3.63
6.58
8.96
10.67
11.62
11.74
11.11
9.90
8.39
6.88
5.60
4.71
4.20
3.94
3.76
3.51
3.13
2.67
2.20
1.78
1.39
0.91
0.17
-0.99
-2.66
-4.88
-7.50
-10.34
-13.06
-15.32
-16.76
-17.10
-16.24
-14.19
-11.17
-7.49
-3.49
0.44
4.00
6.93
9.08
10.42
11.02
10.99
10.50
9.65
8.60
7.47
6.42
5.60
5.04
4.74
4.55
4.35
4.01
3.52
2.92
2.27
1.65
1.05
0.39
-0.46
-1.69
-3.46
-5.86
-8.84
-12.12
-15.22
-17.59
-18.71
-18.32
-16.46
-13.49
-9.93
-6.31
-3.05
-0.37
1.72
3.34
4.64
5.77
6.78
7.63
8.25
8.58
8.61
8.37
7.99
7.55
7.19
6.95
6.88
6.92
6.99
6.94
6.64
6.02
5.07
3.89
2.60
1.30
0.02
-1.30
-2.74
-4.44
-6.44
-8.74
-11.16
-13.41
-15.06
-15.64
-14.83
-12.56
-9.09
-4.97
-0.86
2.71
5.42
7.25
8.35
8.97
9.33
9.55
9.70
9.83
9.93
9.99
9.96
9.76
9.36
8.75
8.02
7.27
6.63
6.17
5.83
5.48
4.93
4.03
2.75
1.18
-0.48
-2.04
-3.36
-4.51
-5.67
-7.09
-8.95
-11.23
-13.67
-15.82
-17.12
-17.12
-15.62
-12.75
-8.98
-4.86
-0.98
2.30
4.84
6.66
7.85
8.51
8.69
8.46
7.95
7.29
6.64
6.09
5.63
5.23
4.80
4.37
4.01
3.84
3.94
4.28
4.74
5.14
5.28
5.04
4.39
3.38
2.10
0.69
-0.74
-2.11
-3.42
-4.76
-6.27
-8.05
-10.08
-12.18
-13.97
-15.06
-15.10
-13.93
-11.65
-8.53
-4.95
-1.33
2.00
4.78
6.87
8.17
8.71
8.62
8.14
7.49
6.85
6.31
5.83
5.33
4.74
4.01
3.16
2.20
1.19
0.27
-0.42
-0.70
-0.53
0.00
0.61
0.94
0.75
0.00
-1.15
-2.40
-3.53
-4.44
-5.21
-6.02
-7.05
-8.36
-9.87
-11.30
-12.27
-12.38
-11.34
-9.11
-5.97
-2.36
1.20
4.25
6.58
8.13
8.96
9.06
8.38
6.85
4.54
1.77
-0.94
-2.97
-3.84
-3.38
-1.83
0.31
2.44
4.08
4.98
5.16
4.82
4.15
3.32
2.41
1.42
0.32
-0.92
-2.33
-3.95
-5.81
-7.92
-10.24
-12.59
-14.67
-16.10
-16.50
-15.62
-13.44
-10.25
-6.55
-2.98
-0.04
2.00
3.13
3.53
3.48
3.18
2.71
2.13
1.51
0.98
0.73
0.87
1.38
2.03
2.51
2.52
1.92
0.76
-0.71
-2.17
-3.37
-4.23
-4.86
-5.45
-6.25
-7.40
-8.94
-10.77
-12.75
-14.65
-16.24
-17.26
-17.44
-16.60
-14.68
-11.85
-8.42
-4.85
-1.56
1.14
3.04
4.14
4.48
4.17
3.33
2.05
0.45
-1.33
-3.12
-4.70
-5.89
-6.59
-6.82
-6.79
-6.73
-6.85
-7.22
-7.74
-8.22
-8.57
-8.85
-9.26
-10.01
-11.21
-12.81
-14.61
-16.35
-17.80
-18.78
-19.09
-18.54
-16.99
-14.47
-11.19
-7.63
-4.31
-1.62
0.29
1.54
2.39
3.07
3.70
4.28
4.76
5.16
5.62
6.29
7.23
8.44
9.75
10.92
11.76
12.16
12.12
11.73
11.11
10.34
9.40
8.19
6.55
4.34
1.57
-1.63
-5.01
-8.24
-11.01
-13.01
-14.05
-13.98
-12.81
-10.64
-7.74
-4.43
-1.05
2.12
4.84
6.94
8.36
9.08
9.18
8.79
8.06
7.11
6.02
4.84
3.65
2.56
1.69
1.06
0.61
0.20
-0.35
-1.13
-2.16
-3.34
-4.55
-5.73
-6.92
-8.28
-10.03
-12.32
-15.06
-17.92
-20.36
-21.84
-21.94
-20.56
-17.88
-14.29
-10.29
-6.29
-2.59
0.66
3.35
5.47
6.94
7.71
7.76
7.14
6.03
4.72
3.57
2.88
2.80
3.23
3.87
4.37
4.45
4.03
3.25
2.30
1.39
0.61
-0.09
-0.84
-1.78
-3.00
-4.52
-6.31
-8.28
-10.19
-11.67
-12.26
-11.53
-9.31
-5.74
-1.28
3.51
8.08
12.12
15.50
18.22
20.25
21.52
21.89
21.35
20.04
18.24
16.35
14.69
13.48
12.73
12.30
11.95
11.41
10.50
9.14
7.37
5.33
3.22
1.18
-0.70
-2.45
-4.21
-6.14
-8.35
-10.86
-13.50
-15.94
-17.74
-18.46
-17.84
-15.80
-12.56
-8.51
-4.15
0.06
3.81
6.88
9.26
10.98
12.13
12.80
13.03
12.87
12.34
11.51
10.51
9.52
8.73
8.26
8.15
8.28
8.46
8.43
7.95
6.94
5.45
3.65
1.80
0.09
-1.39
-2.76
-4.24
-6.12
-8.50
-11.23
-13.85
-15.76
-16.38
-15.42
-12.95
-9.37
-5.25
-1.09
2.76
6.18
9.13
11.58
13.42
14.51
14.78
14.29
13.25
11.98
10.82
9.98
9.55
9.43
9.50
9.58
9.54
9.30
8.81
8.04
6.98
5.62
4.01
2.15
0.09
-2.16
-4.55
-6.98
-9.24
-11.04
-12.06
-12.01
-10.74
-8.33
-5.06
-1.33
2.42
5.87
8.79
11.09
12.72
13.60
13.69
12.99
11.61
9.80
7.92
6.28
5.05
4.21
3.56
2.84
1.83
0.49
-1.06
-2.61
-3.92
-4.85
-5.36
-5.52
-5.46
-5.30
-5.22
-5.38
-5.95
-6.98
-8.34
-9.73
-10.70
-10.79
-9.70
-7.38
-4.03
-0.09
3.92
7.49
10.23
11.94
12.65
12.58
12.07
11.42
10.76
10.07
9.20
8.00
6.42
4.55
2.53
0.58
-1.16
-2.55
-3.53
-4.06
-4.13
-3.83
-3.35
-2.97
-3.04
-3.82
-5.39
-7.62
-10.12
-12.36
-13.71
-13.71
-12.19
-9.31
-5.54
-1.47
2.41
5.79
8.57
10.75
12.36
13.40
13.83
13.71
13.20
12.52
11.88
11.37
10.96
10.46
9.71
8.58
7.07
5.32
3.56
2.04
0.93
0.24
-0.21
-0.75
-1.72
-3.32
-5.55
-8.14
-10.66
-12.62
-13.62
-13.46
-12.16
-9.91
-7.02
-3.84
-0.68
2.23
4.68
6.60
7.99
8.88
9.33
9.42
9.19
8.65
7.87
6.95
6.05
5.29
4.73
4.34
3.97
3.50
2.87
2.14
1.37
0.66
-0.03
-0.84
-1.94
-3.51
-5.65
-8.37
-11.55
-14.93
-18.07
-20.45
-21.53
-20.98
-18.74
-15.08
-10.51
-5.63
-0.93
3.25
6.76
9.57
11.67
13.04
13.70
13.64
12.99
11.97
10.87
9.96
9.44
9.29
9.38
9.45
9.30
8.86
8.15
7.34
6.51
5.69
4.85
3.85
2.63
1.14
-0.61
-2.57
-4.75
-7.16
-9.78
-12.47
-14.90
-16.57
-17.00
-15.89
-13.31
-9.63
-5.46
-1.42
2.08
4.81
6.76
7.98
8.55
8.58
8.20
7.55
6.79
6.01
5.24
4.58
4.08
3.89
4.05
4.52
5.10
5.49
5.46
4.86
3.79
2.41
0.98
-0.32
-1.39
-2.25
-2.99
-3.79
-4.84
-6.29
-8.22
-10.52
-12.91
-14.94
-16.16
-16.18
-14.85
-12.27
-8.88
-5.28
-2.09
0.23
1.49
1.85
1.67
1.40
1.35
1.65
2.20
2.81
3.31
3.64
3.92
4.29
4.80
5.40
5.92
6.20
6.19
6.03
5.93
6.04
6.39
6.79
7.00
6.81
6.14
5.02
3.49
1.55
-0.79
-3.45
-6.18
-8.59
-10.24
-10.74
-9.98
-8.06
-5.34
-2.24
0.83
3.63
6.08
8.19
9.99
11.42
12.34
12.57
12.04
10.86
9.31
7.76
6.50
5.63
5.05
4.56
4.01
3.36
2.69
2.12
1.71
1.44
1.25
1.07
0.88
0.64
0.29
-0.29
-1.23
-2.59
-4.32
-6.24
-8.11
-9.65
-10.65
-10.94
-10.45
-9.16
-7.14
-4.53
-1.57
1.47
4.30
6.68
8.42
9.43
9.70
9.34
8.56
7.66
6.88
6.41
6.25
6.25
6.21
5.97
5.50
4.87
4.22
3.71
3.38
3.17
2.90
2.36
1.34
-0.28
-2.49
-5.17
-8.08
-10.93
-13.39
-15.19
-16.10
-16.01
-14.90
-12.88
-10.18
-7.08
-3.92
-0.99
1.54
3.53
4.96
5.82
6.16
6.07
5.70
5.26
4.94
4.85
4.97
5.12
5.13
4.81
4.19
3.43
2.74
2.29
2.05
1.90
1.61
1.02
0.02
-1.37
-3.11
-5.11
-7.17
-8.99
-10.23
-10.55
-9.83
-8.17
-5.93
-3.57
-1.44
0.31
1.71
2.85
3.79
4.44
4.66
4.33
3.50
2.40
1.40
0.78
0.67
0.98
1.41
1.66
1.49
0.87
-0.09
-1.17
-2.20
-3.11
-3.98
-5.01
-6.38
-8.23
-10.42
-12.65
-14.37
-15.05
-14.28
-11.97
-8.39
-4.07
0.40
4.54
8.05
10.80
12.72
13.74
13.83
12.99
11.38
9.26
6.93
4.62
2.40
0.25
-1.93
-4.17
-6.43
-8.52
-10.24
-11.40
-11.86
-11.66
-10.97
-10.12
-9.51
-9.49
-10.17
-11.45
-12.92
-14.05
-14.36
-13.53
-11.53
-8.56
-4.98
-1.24
2.22
4.99
6.85
7.71
7.73
7.21
6.50
5.79
5.15
4.45
3.55
2.34
0.87
-0.73
-2.28
-3.62
-4.58
-5.04
-4.91
-4.19
-3.02
-1.75
-0.81
-0.62
-1.49
-3.45
-6.24
-9.34
-12.07
-13.78
-14.03
-12.71
-10.10
-6.77
-3.37
-0.48
1.56
2.65
2.93
2.56
1.75
0.66
-0.56
-1.74
-2.75
-3.52
-4.08
-4.54
-5.06
-5.73
-6.60
-7.69
-9.06
-10.86
-13.18
-16.09
-19.45
-23.06
-26.67
-30.16
-33.53
-36.88
-40.28
-43.73
-47.18
-50.58
-53.79
-56.56
-58.29
-58.22
-55.64
-50.41
-43.23
-35.58
-29.18
-25.36
-24.45
-25.80
-28.18
-30.40
-31.85
-32.63
-33.26
-34.31
-36.01
-38.15
-40.16
-41.32
-41.02
-38.84
-34.63
-28.47
-20.63
-11.53
-1.79
7.88
16.72
24.11
29.78
33.84
36.75
39.17
41.57
44.14
46.68
48.75
49.78
49.29
46.92
42.55
36.31
28.56
19.89
11.00
2.47
-5.40
-12.57
-19.23
-25.61
-31.87
-38.08
-44.25
-50.38
-56.39
-62.10
-67.13
-71.13
-73.95
-75.80
-77.33
-79.22
-81.87
-85.03
-87.89
-89.39
-88.68
-85.45
-80.02
-73.08
-65.33
-57.27
-49.06
-40.64
-31.87
-22.61
-12.67
-1.73
10.67
24.99
41.41
59.58
78.50
96.67
112.52
124.85
133.22
138.00
140.15
140.83
140.93
140.84
140.44
139.21
136.59
132.23
126.23
119.12
111.69
104.69
98.50
93.06
87.93
82.62
76.97
71.24
66.08
62.19
60.04
59.67
60.73
62.70
65.06
67.45
69.73
71.91
74.11
76.47
79.11
81.99
84.96
87.67
89.84
91.41
92.75
94.52
97.42
101.73
107.01
112.10
115.37
115.16
110.22
99.95
84.63
65.27
43.60
21.66
1.39
-15.86
-29.68
-40.54
-49.46
-57.38
-64.78
-71.56
-77.28
-81.52
-84.14
-85.22
-84.82
-82.87
-79.18
-73.70
-66.76
-59.14
-51.92
-46.12
-42.28
-40.34
-39.74
-39.67
-39.34
-38.24
-36.08
-32.93
-29.20
-25.74
-23.62
-23.71
-26.14
-30.02
-33.74
-35.70
-35.16
-32.67
-29.73
-27.86
-27.81
-29.20
-30.96
-32.07
-32.21
-31.81
-31.59
-32.03
-33.09
-34.34
-35.38
-36.03
-36.36
-36.49
-36.38
-35.85
-34.68
-32.73
-30.08
-26.89
-23.34
-19.53
-15.46
-11.12
-6.65
-2.30
1.57
4.63
6.68
7.71
7.87
7.35
6.34
4.97
3.30
1.45
-0.38
-1.90
-2.70
-2.44
-0.95
1.63
4.84
7.92
10.08
10.71
9.61
6.97
3.27
-0.96
-5.30
-9.50
-13.45
-17.09
-20.37
-23.22
-25.65
-27.71
-29.50
-31.04
-32.21
-32.76
-32.43
-31.08
-28.80
-25.89
-22.77
-19.80
-17.15
-14.81
-12.69
-10.64
-8.62
-6.61
-4.59
-2.50
-0.33
1.85
3.92
5.68
7.00
7.87
8.49
9.21
10.39
12.21
14.55
16.98
18.93
19.87
19.57
18.20
16.17
14.00
12.01
10.28
8.62
6.84
4.76
2.40
-0.14
-2.63
-4.85
-6.56
-7.53
-7.60
-6.73
-5.03
-2.67
0.10
3.04
5.88
8.35
10.17
11.10
11.09
10.29
9.02
7.66
6.46
5.54
4.82
4.17
3.51
2.86
2.28
1.84
1.54
1.30
0.99
0.48
-0.27
-1.26
-2.38
-3.52
-4.65
-5.77
-7.03
-8.59
-10.55
-12.87
-15.34
-17.65
-19.42
-20.34
-20.19
-18.91
-16.56
-13.36
-9.61
-5.70
-2.00
1.19
3.67
5.37
6.29
6.51
6.13
5.32
4.30
3.29
2.50
2.00
1.80
1.77
1.82
1.86
1.88
1.89
1.88
1.75
1.40
0.75
-0.19
-1.35
-2.60
-3.87
-5.22
-6.73
-8.55
-10.74
-13.29
-16.10
-18.92
-21.45
-23.28
-24.01
-23.33
-21.16
-17.69
-13.40
-8.86
-4.59
-0.90
2.11
4.53
6.47
7.97
8.99
9.47
9.37
8.81
7.97
7.08
6.32
5.77
5.44
5.29
5.27
5.34
5.44
5.46
5.28
4.74
3.74
2.28
0.47
-1.49
-3.40
-5.15
-6.80
-8.58
-10.78
-13.65
-17.16
-20.99
-24.56
-27.14
-28.12
-27.21
-24.47
-20.32
-15.39
-10.30
-5.54
-1.46
1.83
4.30
6.03
7.18
7.93
8.47
8.96
9.43
9.79
9.89
9.59
8.88
7.90
6.86
6.00
5.46
5.23
5.20
5.20
5.07
4.70
4.06
3.15
2.03
0.79
-0.52
-1.93
-3.55
-5.56
-8.16
-11.41
-15.14
-18.92
-22.12
-24.09
-24.34
-22.71
-19.38
-14.85
-9.70
-4.50
0.29
4.38
7.61
9.89
11.24
11.82
11.86
11.70
11.60
11.72
11.97
12.19
12.16
11.82
11.27
10.79
10.61
10.84
11.36
11.90
12.13
11.84
10.96
9.62
8.03
6.42
4.92
3.57
2.24
0.70
-1.25
-3.77
-6.87
-10.37
-14.00
-17.32
-19.89
-21.25
-21.00
-18.95
-15.11
-9.83
-3.72
2.44
7.94
12.29
15.34
17.23
18.27
18.72
18.74
18.35
17.56
16.45
15.22
14.16
13.47
13.26
13.39
13.67
13.91
13.99
13.86
13.53
12.94
12.00
10.65
8.93
6.96
4.95
3.05
1.24
-0.61
-2.73
-5.28
-8.32
-11.66
-14.96
-17.71
-19.41
-19.62
-18.16
-15.12
-10.92
-6.14
-1.35
3.02
6.78
9.88
12.33
14.13
15.22
15.55
15.22
14.40
13.36
12.35
11.56
11.03
10.68
10.39
10.06
9.64
9.15
8.61
8.04
7.36
6.51
5.43
4.11
2.59
0.89
-1.00
-3.20
-5.83
-8.98
-12.59
-16.43
-19.99
-22.64
-23.71
-22.76
-19.74
-15.05
-9.45
-3.76
1.35
5.56
8.83
11.30
13.03
14.05
14.36
14.09
13.50
12.92
12.56
12.44
12.39
12.17
11.66
10.98
10.33
10.00
10.08
10.47
10.85
10.87
10.25
8.94
7.04
4.78
2.36
-0.09
-2.55
-5.05
-7.71
-10.65
-13.93
-17.50
-21.07
-24.09
-25.92
-26.00
-24.07
-20.29
-15.25
-9.65
-4.13
0.91
5.30
8.95
11.79
13.69
14.61
14.62
14.03
13.23
12.58
12.29
12.33
12.51
12.65
12.61
12.40
12.09
11.75
11.36
10.89
10.25
9.42
8.34
6.98
5.27
3.22
0.90
-1.53
-3.86
-5.97
-7.97
-10.12
-12.75
-15.99
-19.64
-23.19
-25.93
-27.27
-26.88
-24.78
-21.22
-16.64
-11.48
-6.19
-1.13
3.41
7.26
10.33
12.65
14.30
15.35
15.88
15.97
15.76
15.37
14.94
14.52
14.11
13.67
13.16
12.59
12.04
11.57
11.21
10.88
10.41
9.66
8.47
6.83
4.82
2.58
0.29
-1.90
-3.96
-6.00
-8.21
-10.83
-13.98
-17.61
-21.41
-24.87
-27.44
-28.59
-28.05
-25.74
-21.92
-17.00
-11.51
-5.97
-0.79
3.77
7.60
10.67
12.97
14.52
15.29
15.36
14.88
14.10
13.30
12.70
12.40
12.38
12.55
12.79
13.06
13.32
13.58
13.79
13.83
13.56
12.86
11.71
10.17
8.41
6.62
4.93
3.39
1.93
0.40
-1.42
-3.79
-6.91
-10.77
-15.12
-19.41
-22.90
-24.93
-25.09
-23.33
-19.99
-15.58
-10.65
-5.68
-1.04
2.98
6.19
8.53
10.12
11.20
12.03
12.77
13.42
13.88
14.01
13.81
13.37
12.88
12.54
12.40
12.44
12.56
12.62
12.51
12.17
11.54
10.62
9.39
7.87
6.11
4.12
2.00
-0.18
-2.36
-4.55
-6.89
-9.57
-12.77
-16.50
-20.47
-24.11
-26.73
-27.62
-26.42
-23.17
-18.33
-12.65
-6.92
-1.78
2.41
5.60
7.90
9.49
10.57
11.25
11.64
11.78
11.73
11.52
11.17
10.67
10.07
9.42
8.82
8.36
8.10
8.01
7.99
7.85
7.41
6.57
5.31
3.69
1.81
-0.23
-2.40
-4.76
-7.40
-10.41
-13.83
-17.51
-21.12
-24.17
-26.09
-26.42
-24.93
-21.71
-17.15
-11.80
-6.28
-1.08
3.46
7.17
9.99
11.94
13.12
13.63
13.64
13.30
12.76
12.10
11.40
10.75
10.20
9.78
9.47
9.17
8.74
8.02
6.93
5.52
3.88
2.14
0.40
-1.33
-3.12
-5.08
-7.31
-9.94
-13.03
-16.58
-20.47
-24.43
-27.95
-30.45
-31.35
-30.29
-27.24
-22.53
-16.78
-10.73
-5.01
-0.05
3.94
6.98
9.21
10.79
11.86
12.51
12.80
12.79
12.53
12.06
11.41
10.64
9.83
9.07
8.45
8.00
7.67
7.33
6.82
6.03
4.91
3.51
1.88
0.13
-1.70
-3.61
-5.64
-7.91
-10.57
-13.78
-17.63
-21.96
-26.34
-30.07
-32.40
-32.67
-30.65
-26.54
-20.92
-14.59
-8.26
-2.44
2.65
6.98
10.57
13.46
15.59
16.87
17.31
16.99
16.17
15.13
14.18
13.46
12.99
12.67
12.34
11.94
11.48
11.08
10.84
10.73
10.57
10.11
9.13
7.53
5.36
2.81
0.08
-2.72
-5.60
-8.69
-12.11
-15.90
-19.94
-23.87
-27.18
-29.32
-29.82
-28.46
-25.35
-20.84
-15.45
-9.67
-3.88
1.63
6.62
10.87
14.19
16.47
17.73
18.15
18.00
17.55
17.02
16.50
16.00
15.53
15.10
14.77
14.62
14.70
15.00
15.37
15.62
15.52
14.88
13.64
11.88
9.78
7.57
5.43
3.40
1.44
-0.60
-2.90
-5.60
-8.83
-12.57
-16.65
-20.73
-24.29
-26.75
-27.60
-26.56
-23.62
-19.14
-13.65
-7.76
-2.04
3.10
7.41
10.77
13.19
14.73
15.54
15.79
15.69
15.43
15.15
14.93
14.76
14.62
14.48
14.38
14.37
14.46
14.57
14.51
14.05
13.02
11.38
9.25
6.87
4.49
2.31
0.41
-1.29
-3.00
-5.01
-7.61
-10.94
-14.87
-19.00
-22.71
-25.32
-26.28
-25.30
-22.48
-18.19
-13.00
-7.53
-2.35
2.17
5.83
8.61
10.59
11.91
12.68
12.95
12.78
12.21
11.38
10.43
9.50
8.70
8.08
7.66
7.45
7.38
7.35
7.23
6.85
6.13
5.02
3.61
2.00
0.33
-1.35
-3.10
-5.08
-7.48
-10.44
-13.98
-17.86
-21.59
-24.54
-26.03
-25.59
-23.12
-18.85
-13.40
-7.49
-1.78
3.23
7.34
10.50
12.81
14.36
15.21
15.44
15.13
14.46
13.61
12.75
11.95
11.18
10.39
9.56
8.73
8.03
7.57
7.35
7.22
6.91
6.13
4.72
2.71
0.28
-2.32
-4.88
-7.36
-9.82
-12.51
-15.61
-19.25
-23.29
-27.30
-30.65
-32.62
-32.66
-30.52
-26.40
-20.78
-14.35
-7.73
-1.46
4.14
8.83
12.50
15.12
16.76
17.57
17.75
17.55
17.11
16.55
15.92
15.24
14.57
13.96
13.48
13.13
12.88
12.58
12.08
11.25
10.01
8.37
6.39
4.12
1.60
-1.11
-3.90
-6.70
-9.49
-12.37
-15.52
-19.11
-23.13
-27.23
-30.83
-33.26
-33.99
-32.78
-29.72
-25.10
-19.37
-13.00
-6.47
-0.26
5.25
9.79
13.27
15.76
17.39
18.31
18.63
18.47
18.01
17.43
16.89
16.45
16.05
15.61
15.11
14.69
14.50
14.59
14.87
15.01
14.68
13.64
11.84
9.44
6.73
3.96
1.31
-1.15
-3.49
-5.85
-8.47
-11.54
-15.21
-19.40
-23.79
-27.85
-30.90
-32.34
-31.75
-29.03
-24.41
-18.43
-11.72
-4.96
1.31
6.72
11.10
14.42
16.74
18.19
18.88
18.95
18.57
17.94
17.27
16.74
16.40
16.20
15.99
15.64
15.17
14.68
14.37
14.31
14.40
14.38
13.86
12.60
10.56
7.91
4.99
2.12
-0.52
-2.94
-5.28
-7.80
-10.76
-14.32
-18.49
-23.06
-27.56
-31.35
-33.68
-33.93
-31.81
-27.43
-21.34
-14.37
-7.35
-0.93
4.56
9.02
12.56
15.24
17.09
18.12
18.38
18.03
17.30
16.40
15.47
14.48
13.39
12.22
11.12
10.32
10.00
10.16
10.53
10.70
10.28
9.09
7.20
4.85
2.28
-0.35
-3.06
-5.92
-9.00
-12.35
-15.94
-19.72
-23.51
-27.03
-29.80
-31.22
-30.77
-28.19
-23.60
-17.54
-10.77
-4.08
1.90
6.83
10.60
13.27
14.92
15.65
15.56
14.76
13.49
12.02
10.67
9.73
9.30
9.32
9.56
9.75
9.68
9.25
8.48
7.48
6.36
5.20
3.98
2.63
1.02
-0.96
-3.37
-6.25
-9.64
-13.57
-18.02
-22.78
-27.32
-30.83
-32.44
-31.54
-28.13
-22.81
-16.56
-10.35
-4.75
0.11
4.35
8.08
11.20
13.48
14.75
15.03
14.60
13.88
13.21
12.77
12.56
12.51
12.48
12.39
12.16
11.74
11.07
10.12
8.87
7.33
5.48
3.37
1.06
-1.35
-3.74
-6.04
-8.31
-10.72
-13.56
-17.09
-21.42
-26.34
-31.21
-35.14
-37.19
-36.75
-33.75
-28.67
-22.32
-15.56
-9.00
-2.97
2.42
7.08
10.86
13.61
15.26
15.96
16.06
15.95
15.94
16.12
16.45
16.76
16.96
17.01
16.97
16.87
16.72
16.47
16.01
15.26
14.12
12.52
10.41
7.79
4.78
1.58
-1.59
-4.61
-7.56
-10.72
-14.37
-18.67
-23.45
-28.17
-32.08
-34.36
-34.44
-32.12
-27.65
-21.64
-14.90
-8.15
-1.96
3.37
7.73
11.16
13.74
15.54
16.63
17.11
17.11
16.77
16.22
15.56
14.85
14.07
13.21
12.30
11.40
10.60
9.99
9.59
9.30
8.90
8.20
7.01
5.33
3.27
1.01
-1.30
-3.63
-6.09
-8.83
-12.03
-15.78
-20.00
-24.41
-28.54
-31.73
-33.32
-32.78
-29.96
-25.11
-18.85
-11.98
-5.23
0.89
6.18
10.55
14.01
16.50
17.99
18.53
18.34
17.75
17.09
16.59
16.23
15.85
15.25
14.36
13.27
12.20
11.33
10.70
10.20
9.61
8.72
7.47
5.90
4.16
2.35
0.51
-1.40
-3.49
-5.89
-8.75
-12.16
-16.09
-20.28
-24.25
-27.26
-28.59
-27.76
-24.73
-19.93
-14.12
-8.08
-2.44
2.50
6.65
10.05
12.73
14.69
15.91
16.42
16.36
15.86
15.08
14.18
13.25
12.40
11.71
11.25
11.02
10.96
10.93
10.78
10.36
9.61
8.49
7.04
5.30
3.27
0.97
-1.61
-4.49
-7.75
-11.42
-15.44
-19.55
-23.24
-25.77
-26.43
-24.78
-20.87
-15.29
-8.95
-2.78
2.57
6.86
10.22
12.86
14.88
16.22
16.74
16.33
15.14
13.51
11.88
10.58
9.73
9.16
8.61
7.89
6.93
5.87
4.88
4.09
3.50
2.98
2.32
1.29
-0.25
-2.40
-5.17
-8.48
-12.11
-15.76
-18.97
-21.24
-22.15
-21.43
-19.10
-15.45
-10.94
-6.11
-1.41
2.82
6.42
9.25
11.25
12.32
12.41
11.57
10.03
8.15
6.32
4.86
3.91
3.35
2.92
2.32
1.40
0.24
-0.96
-1.95
-2.66
-3.22
-3.93
-5.15
-7.14
-9.95
-13.39
-17.03
-20.24
-22.40
-22.97
-21.70
-18.68
-14.27
-8.98
-3.35
2.19
7.27
11.59
14.89
16.95
17.68
17.16
15.65
13.54
11.21
9.00
7.16
5.76
4.78
4.09
3.53
2.96
2.33
1.69
1.10
0.60
0.07
-0.74
-2.15
-4.44
-7.68
-11.66
-15.84
-19.52
-21.97
-22.63
-21.29
-18.11
-13.56
-8.27
-2.87
2.23
6.79
10.70
13.92
16.29
17.65
17.88
17.04
15.42
13.42
11.45
9.75
8.38
7.25
6.23
5.30
4.52
3.95
3.54
3.14
2.53
1.48
-0.07
-2.12
-4.57
-7.32
-10.25
-13.10
-15.49
-16.85
-16.65
-14.65
-11.00
-6.29
-1.31
3.28
7.12
10.19
12.54
14.21
15.03
14.83
13.60
11.64
9.48
7.67
6.51
5.91
5.51
4.87
3.76
2.22
0.52
-1.02
-2.22
-3.12
-3.95
-5.03
-6.63
-8.86
-11.63
-14.65
-17.46
-19.54
-20.37
-19.57
-17.05
-13.06
-8.15
-3.01
1.72
5.64
8.62
10.76
12.19
12.98
13.18
12.86
12.12
11.19
10.25
9.39
8.54
7.54
6.25
4.65
2.88
1.17
-0.31
-1.49
-2.47
-3.42
-4.57
-6.09
-8.10
-10.66
-13.69
-16.91
-19.79
-21.65
-21.82
-19.91
-15.99
-10.55
-4.38
1.77
7.35
12.05
15.78
18.48
20.07
20.58
20.11
18.95
17.46
16.00
14.77
13.82
13.10
12.50
11.96
11.43
10.85
10.17
9.33
8.30
7.09
5.75
4.35
2.92
1.47
-0.05
-1.70
-3.59
-5.87
-8.57
-11.61
-14.70
-17.34
-19.00
-19.20
-17.78
-14.89
-10.94
-6.48
-2.01
2.10
5.66
8.54
10.71
12.18
13.01
13.32
13.26
12.94
12.44
11.78
10.98
10.08
9.15
8.30
7.56
6.96
6.46
5.97
5.44
4.84
4.18
3.49
2.82
2.14
1.42
0.61
-0.34
-1.40
-2.56
-3.83
-5.35
-7.25
-9.58
-12.14
-14.50
-16.04
-16.28
-15.01
-12.44
-9.08
-5.55
-2.34
0.31
2.37
3.95
5.17
6.09
6.70
6.97
6.93
6.65
6.26
5.88
5.53
5.19
4.75
4.16
3.44
2.68
2.00
1.47
1.07
0.71
0.34
-0.08
-0.56
-1.07
-1.65
-2.40
-3.42
-4.80
-6.52
-8.50
-10.64
-12.83
-14.94
-16.79
-18.10
-18.56
-17.91
-16.12
-13.39
-10.18
-7.04
-4.40
-2.48
-1.27
-0.60
-0.24
-0.01
0.18
0.33
0.44
0.43
0.24
-0.17
-0.80
-1.57
-2.39
-3.15
-3.75
-4.17
-4.41
-4.47
-4.41
-4.29
-4.16
-4.07
-4.07
-4.19
-4.39
-4.67
-5.03
-5.50
-6.17
-7.14
-8.47
-10.11
-11.93
-13.69
-15.08
-15.82
-15.70
-14.63
-12.69
-10.10
-7.19
-4.32
-1.83
0.10
1.43
2.22
2.63
2.75
2.71
2.53
2.31
2.11
2.02
2.05
2.17
2.27
2.26
2.08
1.75
1.33
0.90
0.46
0.03
-0.41
-0.85
-1.28
-1.71
-2.14
-2.60
-3.09
-3.62
-4.15
-4.71
-5.37
-6.18
-7.18
-8.27
-9.20
-9.63
-9.29
-8.03
-5.95
-3.36
-0.66
1.76
3.64
4.90
5.62
5.92
5.90
5.60
5.03
4.21
3.20
2.13
1.16
0.42
-0.03
-0.20
-0.16
-0.03
0.07
0.06
-0.12
-0.45
-0.90
-1.46
-2.11
-2.84
-3.65
-4.50
-5.32
-6.05
-6.70
-7.32
-8.00
-8.82
-9.72
-10.58
-11.16
-11.26
-10.72
-9.54
-7.84
-5.80
-3.68
-1.73
-0.18
0.84
1.32
1.38
1.25
1.16
1.24
1.46
1.65
1.59
1.17
0.42
-0.46
-1.26
-1.83
-2.18
-2.38
-2.55
-2.70
-2.80
-2.81
-2.75
-2.76
-2.97
-3.49
-4.30
-5.24
-6.16
-6.98
-7.72
-8.50
-9.40
-10.36
-11.16
-11.48
-11.10
-9.94
-8.16
-6.02
-3.79
-1.69
0.17
1.73
2.92
3.61
3.72
3.24
2.28
1.07
-0.11
-1.06
-1.70
-2.08
-2.31
-2.47
-2.59
-2.62
-2.47
-2.14
-1.69
-1.27
-1.04
-1.11
-1.52
-2.23
-3.20
-4.35
-5.63
-6.96
-8.23
-9.32
-10.04
-10.25
-9.81
-8.71
-7.03
-5.01
-2.94
-1.10
0.37
1.46
2.22
2.72
2.91
2.71
2.06
1.02
-0.20
-1.35
-2.21
-2.72
-2.97
-3.12
-3.32
-3.67
-4.17
-4.80
-5.47
-6.09
-6.59
-6.96
-7.27
-7.70
-8.48
-9.76
-11.54
-13.59
-15.50
-16.80
-17.12
-16.28
-14.32
-11.50
-8.22
-4.92
-1.96
0.41
2.10
3.19
3.73
3.82
3.49
2.78
1.78
0.68
-0.28
-0.90
-1.10
-0.96
-0.68
-0.47
-0.44
-0.61
-0.92
-1.30
-1.72
-2.20
-2.81
-3.59
-4.59
-5.82
-7.31
-9.04
-10.90
-12.65
-13.94
-14.43
-13.89
-12.33
-9.93
-7.03
-3.97
-1.04
1.54
3.61
5.12
6.03
6.42
6.39
6.03
5.45
4.70
3.84
3.00
2.28
1.83
1.70
1.90
2.33
2.86
3.33
3.55
3.39
2.78
1.72
0.35
-1.16
-2.65
-4.02
-5.35
-6.73
-8.25
-9.85
-11.33
-12.34
-12.58
-11.85
-10.19
-7.86
-5.23
-2.68
-0.49
1.20
2.39
3.15
3.55
3.72
3.72
3.70
3.75
3.91
4.20
4.54
4.87
5.14
5.32
5.42
5.42
5.32
5.08
4.71
4.23
3.68
3.04
2.27
1.31
0.16
-1.20
-2.73
-4.44
-6.39
-8.56
-10.87
-13.00
-14.51
-14.90
-13.85
-11.29
-7.49
-2.94
1.83
6.31
10.17
13.26
15.55
17.12
18.06
18.45
18.36
17.89
17.15
16.31
15.50
14.85
14.42
14.20
14.12
14.13
14.14
14.06
13.79
13.24
12.37
11.23
9.93
8.60
7.28
5.89
4.28
2.33
0.01
-2.58
-5.27
-7.87
-10.15
-11.90
-12.86
-12.74
-11.32
-8.59
-4.77
-0.34
4.08
7.93
10.82
12.63
13.47
13.55
13.10
12.32
11.36
10.38
9.55
9.05
8.98
9.31
9.86
10.35
10.49
10.15
9.39
8.42
7.45
6.57
5.70
4.62
3.15
1.21
-1.10
-3.57
-6.01
-8.27
-10.26
-11.89
-12.93
-13.09
-12.08
-9.80
-6.48
-2.61
1.19
4.44
6.91
8.68
10.00
11.08
11.98
12.56
12.65
12.15
11.18
10.01
9.00
8.40
8.30
8.56
8.92
9.12
9.00
8.56
7.88
7.08
6.27
5.47
4.63
3.65
2.42
0.79
-1.32
-3.90
-6.75
-9.53
-11.71
-12.81
-12.52
-10.78
-7.85
-4.18
-0.29
3.41
6.59
9.08
10.81
11.78
12.10
11.95
11.55
11.07
10.60
10.15
9.70
9.29
8.98
8.86
8.87
8.87
8.61
7.93
6.83
5.47
4.06
2.76
1.54
0.26
-1.26
-3.15
-5.46
-8.12
-10.98
-13.77
-16.13
-17.63
-17.89
-16.72
-14.20
-10.68
-6.67
-2.72
0.79
3.66
5.84
7.44
8.56
9.29
9.71
9.82
9.63
9.14
8.35
7.30
6.09
4.87
3.80
3.01
2.52
2.27
2.09
1.80
1.28
0.50
-0.45
-1.46
-2.47
-3.47
-4.57
-5.88
-7.53
-9.52
-11.76
-13.97
-15.76
-16.70
-16.49
-15.00
-12.40
-9.03
-5.27
-1.51
2.03
5.19
7.88
10.03
11.59
12.58
13.08
13.18
12.96
12.45
11.70
10.83
10.03
9.46
9.23
9.22
9.22
8.96
8.25
7.10
5.64
4.08
2.59
1.27
0.09
-0.98
-2.07
-3.30
-4.84
-6.78
-9.15
-11.77
-14.33
-16.39
-17.53
-17.46
-16.07
-13.49
-10.07
-6.26
-2.53
0.73
3.27
5.05
6.19
6.90
7.37
7.72
7.90
7.84
7.49
6.84
6.06
5.36
4.93
4.96
5.45
6.31
7.33
8.28
8.91
9.10
8.82
8.17
7.27
6.23
5.04
3.63
1.86
-0.35
-3.00
-5.96
-8.97
-11.69
-13.73
-14.76
-14.54
-13.04
-10.47
-7.20
-3.71
-0.46
2.28
4.39
5.92
6.98
7.68
8.06
8.19
8.10
7.87
7.59
7.30
7.01
6.67
6.24
5.73
5.21
4.75
4.44
4.25
4.08
3.80
3.31
2.60
1.71
0.73
-0.33
-1.51
-2.89
-4.57
-6.51
-8.51
-10.21
-11.19
-11.09
-9.75
-7.27
-4.00
-0.41
3.03
5.97
8.23
9.78
10.71
11.12
11.09
10.68
9.93
8.92
7.74
6.57
5.61
5.02
4.90
5.18
5.67
6.09
6.16
5.78
5.00
4.02
3.07
2.28
1.62
0.97
0.12
-1.09
-2.72
-4.76
-7.07
-9.44
-11.57
-13.12
-13.78
-13.35
-11.84
-9.44
-6.50
-3.45
-0.64
1.64
3.27
4.25
4.67
4.69
4.48
4.19
3.93
3.70
3.50
3.32
3.15
3.02
2.96
2.95
2.96
2.91
2.76
2.47
2.05
1.50
0.81
-0.03
-1.07
-2.33
-3.85
-5.67
-7.78
-10.15
-12.57
-14.74
-16.24
-16.68
-15.87
-13.87
-11.02
-7.84
-4.80
-2.22
-0.18
1.39
2.65
3.66
4.40
4.78
4.76
4.38
3.80
3.24
2.92
2.96
3.39
4.07
4.82
5.41
5.61
5.30
4.49
3.33
2.08
0.95
0.02
-0.83
-1.87
-3.38
-5.54
-8.26
-11.28
-14.17
-16.48
-17.83
-17.95
-16.78
-14.43
-11.22
-7.59
-3.97
-0.71
2.05
4.30
6.13
7.62
8.78
9.60
10.05
10.20
10.12
9.94
9.68
9.31
8.78
8.08
7.23
6.38
5.63
5.06
4.64
4.29
3.92
3.46
2.84
1.99
0.76
-0.99
-3.37
-6.36
-9.74
-13.16
-16.18
-18.36
-19.38
-19.07
-17.43
-14.67
-11.16
-7.38
-3.79
-0.68
1.85
3.89
5.57
6.92
7.86
8.24
7.97
7.11
5.89
4.65
3.64
2.99
2.69
2.66
2.75
2.90
3.04
3.13
3.12
2.95
2.56
1.91
0.95
-0.37
-2.08
-4.19
-6.68
-9.38
-12.08
-14.45
-16.17
-16.91
-16.49
-14.85
-12.14
-8.67
-4.85
-1.06
2.42
5.43
7.88
9.75
11.03
11.70
11.82
11.47
10.82
10.01
9.13
8.24
7.34
6.47
5.67
5.02
4.54
4.23
4.08
4.06
4.14
4.22
4.17
3.78
2.86
1.35
-0.68
-3.00
-5.28
-7.14
-8.29
-8.48
-7.61
-5.75
-3.12
-0.09
2.93
5.52
7.39
8.43
8.69
8.32
7.53
6.50
5.38
4.30
3.38
2.72
2.37
2.28
2.37
2.50
2.55
2.50
2.35
2.15
1.93
1.66
1.28
0.68
-0.26
-1.66
-3.51
-5.65
-7.76
-9.33
-9.85
-9.00
-6.75
-3.44
0.33
3.93
6.86
8.95
10.23
10.81
10.86
10.44
9.59
8.43
7.18
6.10
5.39
5.09
5.06
5.02
4.74
4.12
3.25
2.32
1.49
0.79
0.15
-0.63
-1.73
-3.24
-5.15
-7.31
-9.42
-11.10
-11.97
-11.75
-10.37
-7.98
-4.93
-1.69
1.32
3.80
5.60
6.69
7.10
6.91
6.23
5.26
4.18
3.18
2.32
1.60
0.93
0.19
-0.64
-1.49
-2.21
-2.64
-2.75
-2.66
-2.64
-3.00
-3.96
-5.57
-7.65
-9.88
-11.85
-13.21
-13.69
-13.17
-11.68
-9.39
-6.60
-3.62
-0.72
1.92
4.21
6.13
7.65
8.73
9.30
9.37
9.00
8.29
7.42
6.52
5.71
5.04
4.48
3.94
3.36
2.68
1.89
1.05
0.20
-0.70
-1.80
-3.25
-5.18
-7.49
-9.83
-11.70
-12.56
-12.11
-10.32
-7.55
-4.28
-1.07
1.69
3.88
5.55
6.86
7.90
8.66
9.05
8.98
8.45
7.58
6.57
5.61
4.82
4.22
3.73
3.23
2.64
1.95
1.18
0.42
-0.31
-1.03
-1.92
-3.20
-5.03
-7.36
-9.85
-11.95
-13.03
-12.72
-10.96
-8.10
-4.68
-1.30
1.60
3.88
5.59
6.87
7.82
8.45
8.69
8.47
7.85
7.00
6.14
5.51
5.17
5.04
4.95
4.70
4.20
3.50
2.74
2.07
1.53
1.08
0.57
-0.15
-1.21
-2.60
-4.22
-5.87
-7.40
-8.66
-9.60
-10.12
-10.08
-9.34
-7.74
-5.28
-2.19
1.13
4.19
6.61
8.23
9.09
9.36
9.22
8.80
8.17
7.42
6.70
6.16
5.89
5.87
5.91
5.76
5.17
4.06
2.62
1.16
0.03
-0.58
-0.75
-0.83
-1.23
-2.28
-4.09
-6.41
-8.83
-10.82
-11.94
-11.91
-10.69
-8.47
-5.63
-2.64
0.07
2.25
3.83
4.94
5.75
6.41
6.94
7.30
7.41
7.28
6.98
6.60
6.23
5.87
5.52
5.18
4.90
4.73
4.69
4.75
4.78
4.60
4.08
3.22
2.09
0.90
-0.21
-1.16
-2.04
-3.03
-4.29
-5.87
-7.59
-9.14
-10.15
-10.32
-9.54
-7.90
-5.66
-3.13
-0.65
1.55
3.28
4.47
5.08
5.17
4.83
4.23
3.55
2.92
2.39
1.95
1.52
1.07
0.62
0.28
0.16
0.34
0.74
1.19
1.52
1.60
1.45
1.14
0.80
0.45
0.03
-0.55
-1.37
-2.44
-3.66
-4.82
-5.69
-5.99
-5.58
-4.39
-2.59
-0.44
1.65
3.38
4.60
5.34
5.70
5.82
5.72
5.34
4.65
3.69
2.66
1.83
1.38
1.35
1.60
1.94
2.15
2.16
2.00
1.74
1.52
1.41
1.43
1.50
1.50
1.28
0.69
-0.34
-1.75
-3.38
-5.00
-6.28
-6.93
-6.73
-5.68
-3.94
-1.87
0.15
1.78
2.90
3.58
3.95
4.14
4.18
3.99
3.51
2.79
1.97
1.25
0.80
0.62
0.62
0.63
0.47
0.07
-0.55
-1.31
-2.08
-2.79
-3.39
-3.89
-4.35
-4.85
-5.48
-6.30
-7.31
-8.40
-9.36
-9.89
-9.77
-8.87
-7.32
-5.39
-3.46
-1.83
-0.64
0.17
0.76
1.29
1.76
2.07
2.04
1.62
0.88
0.05
-0.64
-1.07
-1.25
-1.32
-1.43
-1.64
-1.94
-2.26
-2.53
-2.78
-3.04
-3.35
-3.71
-4.10
-4.51
-4.97
-5.54
-6.30
-7.29
-8.41
-9.45
-10.09
-10.05
-9.16
-7.51
-5.36
-3.12
-1.14
0.38
1.40
1.98
2.20
2.05
1.51
0.58
-0.60
-1.82
-2.78
-3.28
-3.22
-2.68
-1.85
-0.99
-0.26
0.26
0.60
0.84
1.01
1.13
1.12
0.92
0.46
-0.32
-1.41
-2.75
-4.24
-5.73
-7.01
-7.95
-8.40
-8.33
-7.69
-6.50
-4.79
-2.66
-0.35
1.81
3.48
4.46
4.71
4.42
3.84
3.19
2.58
2.00
1.42
0.84
0.34
0.05
0.02
0.27
0.66
1.05
1.30
1.39
1.32
1.20
1.11
1.10
1.12
1.07
0.79
0.10
-1.10
-2.78
-4.78
-6.75
-8.32
-9.14
-9.09
-8.21
-6.74
-4.99
-3.26
-1.72
-0.45
0.53
1.21
1.59
1.69
1.56
1.32
1.08
0.93
0.87
0.78
0.59
0.26
-0.12
-0.37
-0.33
0.03
0.58
1.09
1.32
1.22
0.90
0.55
0.36
0.31
0.24
-0.17
-1.13
-2.72
-4.75
-6.88
-8.77
-10.13
-10.88
-11.00
-10.53
-9.49
-7.87
-5.73
-3.25
-0.73
1.48
3.10
4.02
4.31
4.19
3.84
3.40
2.91
2.38
1.87
1.49
1.36
1.54
1.97
2.45
2.74
2.65
2.17
1.44
0.70
0.16
-0.08
-0.09
-0.02
-0.05
-0.36
-1.03
-2.03
-3.23
-4.40
-5.23
-5.44
-4.82
-3.42
-1.44
0.76
2.83
4.53
5.77
6.57
6.94
6.87
6.34
5.38
4.11
2.78
1.68
0.99
0.78
0.91
1.17
1.34
1.31
1.07
0.77
0.54
0.46
0.49
0.55
0.49
0.20
-0.37
-1.22
-2.32
-3.56
-4.83
-5.91
-6.55
-6.51
-5.67
-4.07
-1.97
0.27
2.26
3.77
4.74
5.21
5.32
5.16
4.81
4.24
3.53
2.74
2.00
1.41
1.00
0.72
0.46
0.14
-0.27
-0.74
-1.20
-1.61
-1.97
-2.35
-2.81
-3.44
-4.28
-5.34
-6.56
-7.82
-8.91
-9.57
-9.58
-8.80
-7.27
-5.23
-3.01
-0.94
0.78
2.07
2.97
3.54
3.77
3.61
3.04
2.10
1.00
-0.02
-0.71
-0.98
-0.91
-0.68
-0.49
-0.47
-0.61
-0.83
-1.03
-1.22
-1.49
-2.01
-2.87
-4.11
-5.66
-7.36
-9.07
-10.63
-11.88
-12.65
-12.73
-11.95
-10.27
-7.82
-4.98
-2.20
0.09
1.67
2.55
2.95
3.17
3.37
3.59
3.70
3.54
3.01
2.15
1.11
0.07
-0.84
-1.53
-1.97
-2.19
-2.20
-2.06
-1.85
-1.73
-1.90
-2.57
-3.87
-5.79
-8.14
-10.56
-12.60
-13.85
-14.05
-13.15
-11.36
-9.04
-6.58
-4.27
-2.26
-0.53
0.95
2.24
3.31
4.08
4.47
4.42
3.96
3.20
2.29
1.46
0.86
0.65
0.83
1.31
1.89
2.40
2.70
2.73
2.55
2.21
1.74
1.13
0.33
-0.75
-2.13
-3.80
-5.71
-7.71
-9.58
-11.06
-11.80
-11.55
-10.19
-7.82
-4.79
-1.58
1.36
3.71
5.41
6.57
7.40
8.04
8.48
8.63
8.41
7.80
6.95
6.09
5.41
5.05
4.98
5.09
5.24
5.32
5.26
5.05
4.67
4.14
3.43
2.55
1.53
0.37
-0.90
-2.32
-3.88
-5.56
-7.23
-8.66
-9.54
-9.60
-8.73
-6.96
-4.54
-1.76
1.10
3.78
6.12
7.95
9.14
9.64
9.47
8.80
7.84
6.87
6.07
5.57
5.39
5.51
5.80
6.12
6.32
6.34
6.17
5.92
5.72
5.64
5.66
5.60
5.21
4.29
2.74
0.65
-1.77
-4.20
-6.28
-7.71
-8.28
-7.92
-6.68
-4.73
-2.27
0.50
3.42
6.27
8.79
10.74
11.85
12.02
11.33
10.07
8.62
7.33
6.41
5.88
5.60
5.37
5.06
4.62
4.08
3.52
2.98
2.50
2.07
1.65
1.26
0.85
0.31
-0.53
-1.86
-3.73
-5.97
-8.12
-9.55
-9.68
-8.25
-5.51
-2.07
1.25
3.83
5.41
6.10
6.24
6.14
5.97
5.73
5.37
4.90
4.37
3.93
3.64
3.46
3.27
2.94
2.41
1.77
1.17
0.78
0.69
0.80
0.90
0.71
0.03
-1.24
-2.96
-4.93
-6.87
-8.54
-9.77
-10.45
-10.51
-9.92
-8.67
-6.81
-4.47
-1.87
0.72
3.05
4.93
6.23
6.93
7.08
6.77
6.13
5.31
4.51
3.89
3.59
3.63
3.92
4.24
4.41
4.29
3.91
3.39
2.89
2.50
2.20
1.88
1.39
0.60
-0.56
-2.10
-3.97
-6.05
-8.13
-10.00
-11.34
-11.91
-11.56
-10.30
-8.35
-6.03
-3.63
-1.38
0.65
2.44
4.00
5.28
6.19
6.65
6.68
6.39
5.95
5.55
5.28
5.13
5.02
4.86
4.57
4.13
3.56
2.95
2.34
1.80
1.32
0.84
0.30
-0.37
-1.19
-2.16
-3.28
-4.55
-5.98
-7.46
-8.73
-9.47
-9.35
-8.23
-6.20
-3.59
-0.83
1.69
3.78
5.39
6.61
7.56
8.28
8.72
8.84
8.63
8.13
7.49
6.84
6.32
5.96
5.75
5.67
5.66
5.69
5.68
5.56
5.22
4.61
3.75
2.67
1.48
0.25
-0.99
-2.25
-3.56
-4.96
-6.50
-8.15
-9.84
-11.36
-12.42
-12.71
-11.99
-10.18
-7.49
-4.32
-1.16
1.54
3.59
5.03
6.07
6.92
7.65
8.16
8.28
7.89
7.08
6.14
5.39
5.02
4.99
5.07
4.95
4.47
3.70
2.86
2.20
1.83
1.68
1.50
1.05
0.14
-1.20
-2.85
-4.62
-6.32
-7.76
-8.79
-9.22
-8.92
-7.82
-5.96
-3.54
-0.88
1.74
4.01
5.81
7.06
7.78
8.00
7.75
7.09
6.12
5.02
3.98
3.15
2.61
2.31
2.16
2.04
1.89
1.72
1.59
1.55
1.60
1.66
1.59
1.22
0.45
-0.76
-2.37
-4.25
-6.23
-8.09
-9.60
-10.53
-10.68
-9.96
-8.42
-6.20
-3.61
-0.97
1.44
3.42
4.89
5.82
6.26
6.28
5.97
5.45
4.84
4.28
3.79
3.37
2.97
2.56
2.16
1.81
1.57
1.43
1.34
1.19
0.84
0.18
-0.88
-2.38
-4.29
-6.45
-8.56
-10.26
-11.26
-11.43
-10.89
-9.94
-8.93
-8.09
-7.45
-6.80
-5.89
-4.50
-2.60
-0.36
1.94
3.97
5.46
6.24
6.29
5.71
4.73
3.63
2.73
2.29
2.43
3.08
3.96
4.64
4.78
4.16
2.81
1.02
-0.87
-2.57
-3.96
-5.07
-6.07
-7.09
-8.23
-9.48
-10.76
-11.89
-12.63
-12.71
-11.92
-10.19
-7.67
-4.70
-1.72
0.87
2.85
4.17
4.95
5.35
5.51
5.52
5.43
5.26
5.05
4.85
4.70
4.63
4.59
4.50
4.29
3.91
3.34
2.68
2.05
1.51
1.09
0.69
0.17
-0.64
-1.87
-3.56
-5.59
-7.72
-9.60
-10.82
-11.09
-10.28
-8.50
-6.02
-3.27
-0.62
1.66
3.47
4.84
5.87
6.64
7.16
7.47
7.57
7.50
7.28
6.92
6.42
5.84
5.26
4.86
4.78
5.06
5.56
5.99
6.01
5.41
4.20
2.66
1.19
0.14
-0.35
-0.39
-0.29
-0.49
-1.31
-2.88
-5.00
-7.25
-9.04
-9.85
-9.43
-7.84
-5.39
-2.57
0.20
2.64
4.59
6.03
6.90
7.19
6.91
6.17
5.21
4.30
3.67
3.41
3.49
3.71
3.91
3.93
3.75
3.40
3.00
2.63
2.36
2.18
2.04
1.86
1.54
1.03
0.29
-0.68
-1.88
-3.31
-4.92
-6.58
-8.09
-9.13
-9.37
-8.58
-6.71
-3.96
-0.76
2.40
5.07
7.02
8.24
8.89
9.17
9.22
9.07
8.68
7.99
6.98
5.77
4.57
3.61
3.07
3.04
3.39
3.85
4.12
3.97
3.36
2.44
1.52
0.86
0.54
0.42
0.21
-0.41
-1.63
-3.40
-5.47
-7.48
-9.01
-9.75
-9.53
-8.34
-6.37
-3.91
-1.29
1.16
3.26
4.90
6.08
6.83
7.16
7.08
6.63
5.89
5.02
4.21
3.62
3.32
3.24
3.25
3.22
3.06
2.81
2.53
2.25
1.96
1.60
1.11
0.47
-0.33
-1.28
-2.47
-3.94
-5.70
-7.65
-9.54
-11.07
-11.95
-12.01
-11.18
-9.54
-7.25
-4.53
-1.70
0.92
3.01
4.40
5.07
5.15
4.82
4.29
3.68
3.08
2.56
2.21
2.07
2.16
2.40
2.68
2.87
2.88
2.68
2.31
1.84
1.33
0.82
0.35
-0.15
-0.76
-1.62
-2.82
-4.35
-6.09
-7.81
-9.26
-10.28
-10.75
-10.66
-10.01
-8.83
-7.10
-4.89
-2.34
0.31
2.76
4.72
6.00
6.59
6.65
6.41
6.11
5.90
5.82
5.84
5.88
5.88
5.81
5.66
5.46
5.22
4.95
4.64
4.22
3.60
2.68
1.41
-0.22
-2.12
-4.14
-6.14
-7.99
-9.65
-11.17
-12.72
-14.46
-16.51
-18.82
-21.21
-23.29
-24.68
-25.05
-24.30
-22.63
-20.43
-18.22
-16.41
-15.17
-14.38
-13.69
-12.76
-11.39
-9.68
-7.90
-6.44
-5.59
-5.47
-6.07
-7.29
-9.08
-11.34
-13.91
-16.53
-18.92
-20.92
-22.58
-24.26
-26.35
-29.07
-32.18
-34.97
-36.43
-35.63
-32.00
-25.61
-17.07
-7.34
2.51
11.65
19.53
25.97
31.12
35.25
38.76
41.95
45.06
48.15
51.21
54.18
56.96
59.45
61.51
63.00
63.72
63.58
62.52
60.66
58.20
55.39
52.46
49.55
46.74
44.04
41.50
39.19
37.18
35.53
34.13
32.74
30.93
28.26
24.36
19.18
12.93
6.16
-0.56
-6.76
-12.26
-17.16
-21.70
-26.01
-29.99
-33.25
-35.28
-35.73
-34.50
-31.82
-28.16
-24.10
-20.19
-16.87
-14.40
-12.83
-12.06
-11.88
-12.03
-12.39
-12.88
-13.52
-14.28
-15.04
-15.61
-15.85
-15.73
-15.37
-14.95
-14.58
-14.24
-13.82
-13.16
-12.25
-11.18
-10.11
-9.25
-8.73
-8.59
-8.79
-9.31
-10.14
-11.21
-12.36
-13.31
-13.69
-13.16
-11.54
-8.88
-5.46
-1.69
2.00
5.32
8.09
10.25
11.72
12.46
12.42
11.63
10.24
8.49
6.66
4.98
3.57
2.37
1.29
0.19
-0.92
-1.99
-2.88
-3.53
-4.00
-4.42
-4.94
-5.66
-6.60
-7.67
-8.79
-9.90
-10.99
-12.00
-12.83
-13.34
-13.37
-12.85
-11.82
-10.42
-8.81
-7.12
-5.38
-3.61
-1.87
-0.31
0.85
1.43
1.39
0.85
0.10
-0.60
-1.07
-1.29
-1.34
-1.32
-1.31
-1.31
-1.34
-1.40
-1.49
-1.62
-1.81
-2.07
-2.50
-3.25
-4.47
-6.25
-8.50
-10.99
-13.37
-15.29
-16.48
-16.84
-16.35
-15.07
-13.16
-10.78
-8.20
-5.67
-3.43
-1.65
-0.41
0.29
0.57
0.54
0.37
0.21
0.18
0.34
0.69
1.14
1.61
1.98
2.21
2.32
2.39
2.50
2.72
3.02
3.29
3.35
3.08
2.41
1.32
-0.14
-1.93
-3.99
-6.19
-8.29
-9.91
-10.65
-10.23
-8.63
-6.11
-3.08
0.12
3.24
6.25
9.17
11.94
14.33
16.01
16.74
16.50
15.58
14.47
13.69
13.50
13.82
14.32
14.50
14.04
12.83
11.06
9.00
6.95
5.05
3.26
1.52
-0.24
-2.09
-4.07
-6.29
-8.85
-11.76
-14.84
-17.66
-19.66
-20.32
-19.36
-16.89
-13.30
-9.16
-4.93
-0.96
2.59
5.63
8.05
9.71
10.51
10.52
9.98
9.24
8.67
8.45
8.57
8.81
8.93
8.78
8.39
7.89
7.45
7.10
6.81
6.39
5.71
4.69
3.34
1.76
0.07
-1.64
-3.29
-4.74
-5.79
-6.20
-5.75
-4.36
-2.15
0.56
3.34
5.81
7.75
9.08
9.89
10.25
10.24
9.88
9.20
8.24
7.15
6.06
5.15
4.51
4.12
3.90
3.66
3.22
2.51
1.55
0.48
-0.56
-1.50
-2.49
-3.76
-5.51
-7.73
-10.12
-12.16
-13.28
-13.17
-11.81
-9.55
-6.84
-4.07
-1.45
0.99
3.28
5.41
7.24
8.57
9.27
9.33
8.88
8.16
7.39
6.69
6.07
5.46
4.83
4.17
3.53
2.97
2.52
2.19
1.94
1.71
1.43
1.02
0.30
-0.95
-2.83
-5.31
-8.05
-10.52
-12.15
-12.49
-11.46
-9.30
-6.45
-3.42
-0.64
1.69
3.49
4.78
5.61
6.03
6.13
5.99
5.75
5.55
5.47
5.51
5.57
5.54
5.31
4.88
4.30
3.67
3.06
2.47
1.83
1.07
0.13
-1.01
-2.32
-3.82
-5.50
-7.31
-9.10
-10.63
-11.56
-11.60
-10.58
-8.56
-5.81
-2.72
0.31
3.03
5.33
7.25
8.80
9.93
10.52
10.44
9.67
8.36
6.82
5.37
4.27
3.61
3.33
3.29
3.33
3.32
3.16
2.79
2.16
1.31
0.32
-0.69
-1.62
-2.46
-3.31
-4.31
-5.55
-6.99
-8.39
-9.40
-9.67
-8.94
-7.18
-4.55
-1.41
1.81
4.70
6.97
8.49
9.30
9.56
9.45
9.08
8.50
7.72
6.79
5.89
5.20
4.86
4.82
4.93
4.92
4.64
4.07
3.33
2.60
1.98
1.44
0.81
-0.08
-1.35
-3.00
-4.93
-6.92
-8.75
-10.19
-11.03
-11.07
-10.25
-8.58
-6.25
-3.58
-0.91
1.43
3.28
4.63
5.58
6.26
6.70
6.87
6.69
6.17
5.40
4.55
3.83
3.36
3.15
3.12
3.13
3.06
2.85
2.42
1.79
1.01
0.12
-0.78
-1.65
-2.44
-3.21
-4.00
-4.91
-5.99
-7.23
-8.53
-9.67
-10.42
-10.56
-10.04
-8.89
-7.28
-5.39
-3.38
-1.37
0.58
2.33
3.68
4.42
4.43
3.75
2.63
1.44
0.53
0.16
0.37
1.03
1.90
2.72
3.28
3.51
3.42
3.11
2.68
2.22
1.72
1.14
0.36
-0.73
-2.17
-3.91
-5.78
-7.53
-8.89
-9.60
-9.51
-8.63
-7.09
-5.10
-2.91
-0.74
1.28
3.10
4.70
6.03
7.01
7.52
7.45
6.82
5.76
4.56
3.49
2.74
2.29
1.99
1.61
1.03
0.28
-0.52
-1.23
-1.75
-2.17
-2.63
-3.27
-4.16
-5.25
-6.45
-7.66
-8.82
-9.87
-10.75
-11.33
-11.43
-10.87
-9.58
-7.63
-5.25
-2.71
-0.29
1.81
3.51
4.77
5.57
5.88
5.66
4.98
3.99
2.92
2.01
1.45
1.27
1.36
1.54
1.67
1.66
1.50
1.24
0.95
0.67
0.40
0.10
-0.32
-0.98
-1.96
-3.30
-4.93
-6.63
-8.11
-9.09
-9.34
-8.79
-7.54
-5.77
-3.74
-1.66
0.30
2.02
3.44
4.51
5.16
5.33
5.05
4.40
3.55
2.73
2.13
1.85
1.86
2.02
2.16
2.17
2.04
1.89
1.87
2.05
2.36
2.56
2.35
1.46
-0.17
-2.43
-5.00
-7.44
-9.34
-10.38
-10.40
-9.43
-7.66
-5.38
-2.95
-0.61
1.46
3.23
4.69
5.79
6.41
6.41
5.73
4.53
3.16
2.01
1.36
1.22
1.37
1.48
1.29
0.75
0.03
-0.60
-0.98
-1.09
-1.10
-1.29
-1.92
-3.13
-4.85
-6.85
-8.76
-10.18
-10.82
-10.58
-9.54
-7.93
-6.00
-3.94
-1.87
0.13
1.99
3.61
4.86
5.63
5.92
5.79
5.39
4.83
4.23
3.64
3.15
2.81
2.69
2.78
2.99
3.17
3.13
2.77
2.05
1.03
-0.25
-1.75
-3.46
-5.34
-7.21
-8.78
-9.71
-9.75
-8.81
-7.05
-4.74
-2.22
0.27
2.55
4.52
6.13
7.27
7.82
7.71
6.99
5.82
4.50
3.35
2.59
2.26
2.22
2.18
1.88
1.20
0.23
-0.79
-1.62
-2.19
-2.61
-3.10
-3.89
-5.05
-6.47
-7.85
-8.89
-9.27
-8.82
-7.49
-5.40
-2.82
-0.10
2.42
4.48
5.94
6.81
7.12
6.95
6.37
5.51
4.52
3.60
2.89
2.42
2.14
1.89
1.54
1.03
0.34
-0.48
-1.37
-2.34
-3.42
-4.70
-6.26
-8.10
-10.12
-12.05
-13.51
-14.18
-13.89
-12.69
-10.77
-8.41
-5.84
-3.24
-0.74
1.48
3.26
4.45
5.05
5.15
4.94
4.61
4.23
3.81
3.30
2.65
1.90
1.08
0.27
-0.45
-1.00
-1.33
-1.45
-1.44
-1.47
-1.75
-2.41
-3.56
-5.14
-7.03
-9.03
-10.88
-12.27
-12.83
-12.29
-10.54
-7.73
-4.28
-0.75
2.33
4.69
6.30
7.33
8.01
8.46
8.68
8.60
8.18
7.50
6.74
6.09
5.64
5.37
5.11
4.74
4.19
3.52
2.88
2.41
2.12
1.86
1.37
0.39
-1.26
-3.57
-6.34
-9.26
-11.94
-14.01
-15.18
-15.26
-14.21
-12.13
-9.26
-5.92
-2.48
0.76
3.63
6.08
8.21
10.08
11.67
12.82
13.33
13.11
12.27
11.17
10.20
9.62
9.43
9.42
9.29
8.87
8.15
7.28
6.35
5.39
4.37
3.28
2.18
1.18
0.36
-0.37
-1.19
-2.30
-3.80
-5.60
-7.44
-9.04
-10.11
-10.49
-10.08
-8.88
-6.95
-4.42
-1.53
1.45
4.18
6.39
7.91
8.73
8.98
8.84
8.52
8.13
7.71
7.22
6.63
6.01
5.50
5.23
5.27
5.54
5.88
6.08
5.99
5.59
4.97
4.24
3.50
2.78
2.08
1.37
0.61
-0.28
-1.43
-2.99
-5.01
-7.37
-9.71
-11.53
-12.33
-11.76
-9.82
-6.87
-3.42
-0.09
2.72
4.80
6.23
7.17
7.80
8.22
8.39
8.23
7.71
6.92
6.07
5.37
4.97
4.87
4.93
5.02
5.01
4.89
4.71
4.50
4.24
3.84
3.21
2.31
1.19
-0.07
-1.45
-2.99
-4.80
-6.93
-9.25
-11.44
-13.03
-13.52
-12.65
-10.41
-7.16
-3.42
0.24
3.40
5.88
7.68
8.92
9.72
10.12
10.14
9.75
9.01
8.04
7.04
6.21
5.68
5.46
5.40
5.28
4.89
4.09
2.87
1.39
-0.15
-1.56
-2.72
-3.65
-4.43
-5.22
-6.16
-7.34
-8.71
-10.18
-11.51
-12.44
-12.75
-12.25
-10.91
-8.80
-6.07
-2.92
0.41
3.60
6.35
8.38
9.51
9.75
9.30
8.47
7.57
6.83
6.31
5.98
5.73
5.50
5.23
4.89
4.44
3.84
3.12
2.30
1.44
0.58
-0.27
-1.15
-2.07
-3.07
-4.16
-5.38
-6.86
-8.69
-10.87
-13.22
-15.29
-16.55
-16.54
-15.10
-12.40
-8.91
-5.19
-1.73
1.19
3.51
5.27
6.57
7.49
8.12
8.47
8.59
8.47
8.10
7.50
6.75
6.00
5.40
5.08
5.06
5.22
5.38
5.36
5.09
4.56
3.86
3.11
2.38
1.65
0.85
-0.13
-1.39
-2.96
-4.86
-7.02
-9.32
-11.57
-13.46
-14.66
-14.90
-14.02
-12.06
-9.29
-6.04
-2.71
0.43
3.23
5.59
7.46
8.81
9.59
9.78
9.45
8.70
7.68
6.54
5.50
4.74
4.41
4.55
5.06
5.72
6.34
6.74
6.89
6.80
6.55
6.14
5.59
4.88
4.03
3.05
1.94
0.66
-0.88
-2.74
-4.93
-7.32
-9.71
-11.80
-13.31
-13.95
-13.56
-12.09
-9.64
-6.54
-3.19
-0.02
2.69
4.80
6.36
7.46
8.14
8.37
8.10
7.33
6.24
5.12
4.28
3.92
4.03
4.46
4.98
5.39
5.63
5.69
5.56
5.22
4.65
3.85
2.87
1.85
0.84
-0.11
-1.08
-2.12
-3.32
-4.70
-6.23
-7.82
-9.37
-10.70
-11.56
-11.72
-10.98
-9.30
-6.77
-3.69
-0.42
2.64
5.20
7.09
8.31
8.94
9.10
8.92
8.45
7.76
6.89
5.97
5.11
4.46
4.07
3.93
3.97
4.09
4.20
4.22
4.10
3.79
3.27
2.49
1.47
0.21
-1.28
-2.96
-4.80
-6.75
-8.75
-10.66
-12.35
-13.60
-14.19
-13.95
-12.84
-10.96
-8.55
-5.91
-3.28
-0.80
1.47
3.56
5.45
7.11
8.36
9.08
9.14
8.57
7.57
6.47
5.58
5.09
4.95
4.89
4.63
3.98
2.97
1.81
0.77
-0.01
-0.59
-1.12
-1.77
-2.64
-3.72
-4.98
-6.45
-8.14
-10.04
-11.98
-13.63
-14.61
-14.55
-13.32
-11.06
-8.12
-4.99
-2.05
0.47
2.51
4.18
5.57
6.69
7.46
7.77
7.53
6.79
5.73
4.58
3.54
2.72
2.12
1.72
1.44
1.25
1.11
0.95
0.70
0.31
-0.28
-1.05
-1.96
-2.96
-4.02
-5.17
-6.45
-7.92
-9.54
-11.19
-12.66
-13.63
-13.85
-13.15
-11.50
-9.03
-6.03
-2.81
0.30
3.04
5.22
6.74
7.59
7.80
7.47
6.74
5.78
4.74
3.78
2.98
2.40
2.00
1.73
1.49
1.22
0.87
0.42
-0.07
-0.59
-1.07
-1.50
-1.91
-2.36
-2.94
-3.71
-4.71
-5.94
-7.39
-9.03
-10.76
-12.41
-13.68
-14.28
-13.93
-12.54
-10.22
-7.26
-4.07
-1.05
1.51
3.47
4.83
5.68
6.16
6.34
6.24
5.87
5.27
4.55
3.90
3.50
3.50
3.81
4.25
4.50
4.29
3.48
2.14
0.51
-1.14
-2.55
-3.65
-4.48
-5.19
-5.97
-6.95
-8.22
-9.78
-11.58
-13.43
-15.04
-15.99
-15.91
-14.50
-11.79
-8.04
-3.83
0.25
3.64
6.09
7.61
8.45
8.95
9.30
9.58
9.67
9.38
8.62
7.45
6.07
4.74
3.75
3.20
3.12
3.36
3.73
4.03
4.08
3.81
3.23
2.44
1.51
0.49
-0.65
-2.00
-3.60
-5.41
-7.33
-9.24
-11.02
-12.61
-13.95
-14.91
-15.27
-14.80
-13.33
-10.95
-7.93
-4.68
-1.60
1.07
3.29
5.13
6.69
7.98
8.94
9.49
9.55
9.13
8.32
7.29
6.25
5.42
5.00
5.05
5.53
6.17
6.67
6.74
6.25
5.29
4.09
2.90
1.91
1.16
0.57
0.01
-0.68
-1.58
-2.79
-4.32
-6.16
-8.17
-10.12
-11.65
-12.42
-12.18
-10.82
-8.47
-5.41
-2.06
1.21
4.06
6.33
7.94
8.94
9.42
9.52
9.36
9.06
8.71
8.36
7.98
7.54
6.99
6.39
5.88
5.67
5.90
6.58
7.51
8.36
8.81
8.64
7.83
6.46
4.73
2.80
0.85
-0.99
-2.59
-3.94
-5.06
-6.10
-7.18
-8.41
-9.69
-10.77
-11.25
-10.74
-9.00
-6.08
-2.34
1.61
5.12
7.65
9.00
9.26
8.79
7.95
7.02
6.10
5.15
4.14
3.07
2.05
1.20
0.58
0.16
-0.17
-0.57
-1.14
-1.91
-2.84
-3.82
-4.75
-5.57
-6.28
-6.96
-7.68
-8.53
-9.55
-10.71
-11.96
-13.16
-14.07
-14.40
-13.89
-12.40
-9.99
-6.94
-3.63
-0.41
2.53
5.19
7.66
9.99
12.11
13.86
15.04
15.54
15.30
14.43
13.03
11.29
9.40
7.56
5.97
4.76
4.00
3.61
3.43
3.26
2.91
2.31
1.43
0.33
-0.94
-2.33
-3.82
-5.39
-7.03
-8.73
-10.52
-12.43
-14.41
-16.29
-17.77
-18.47
-18.03
-16.26
-13.26
-9.33
-4.97
-0.65
3.24
6.44
8.82
10.33
11.03
11.01
10.46
9.58
8.59
7.67
6.91
6.36
5.98
5.73
5.56
5.43
5.27
5.06
4.76
4.36
3.85
3.21
2.43
1.49
0.34
-1.04
-2.66
-4.48
-6.42
-8.39
-10.21
-11.73
-12.73
-13.01
-12.46
-11.03
-8.82
-6.05
-3.03
-0.09
2.53
4.63
6.18
7.19
7.78
8.05
8.07
7.88
7.47
6.84
6.01
5.11
4.29
3.72
3.47
3.46
3.52
3.42
3.03
2.34
1.49
0.68
0.04
-0.47
-1.02
-1.84
-3.10
-4.84
-6.91
-9.06
-10.97
-12.35
-12.96
-12.64
-11.39
-9.33
-6.72
-3.92
-1.27
0.98
2.75
4.05
4.93
5.41
5.52
5.27
4.74
4.11
3.58
3.32
3.32
3.48
3.61
3.56
3.27
2.76
2.19
1.68
1.35
1.21
1.16
1.11
0.93
0.55
-0.05
-0.88
-1.92
-3.15
-4.44
-5.59
-6.26
-6.14
-5.03
-2.98
-0.28
2.64
5.36
7.64
9.40
10.66
11.46
11.79
11.59
10.81
9.42
7.51
5.28
2.98
0.90
-0.71
-1.76
-2.33
-2.67
-3.11
-3.93
-5.18
-6.69
-8.11
-9.18
-9.73
-9.85
-9.75
-9.66
-9.79
-10.23
-10.94
-11.83
-12.70
-13.27
-13.26
-12.44
-10.73
-8.26
-5.28
-2.12
0.97
3.82
6.36
8.60
10.53
12.13
13.36
14.14
14.42
14.20
13.53
12.61
11.70
11.02
10.77
10.98
11.54
12.27
12.97
13.47
13.63
13.37
12.62
11.41
9.79
7.86
5.69
3.32
0.73
-2.11
-5.12
-8.07
-10.63
-12.49
-13.42
-13.41
-12.57
-11.11
-9.26
-7.22
-5.20
-3.35
-1.88
-0.94
-0.61
-0.90
-1.67
-2.74
-3.87
-4.84
-5.48
-5.72
-5.59
-5.23
-4.83
-4.55
-4.45
-4.48
-4.47
-4.19
-3.46
-2.29
-0.88
0.41
1.16
1.03
-0.07
-2.00
-4.40
-6.77
-8.62
-9.58
-9.47
-8.26
-6.08
-3.16
0.19
3.62
6.73
9.19
10.77
11.44
11.33
10.68
9.75
8.76
7.84
7.01
6.30
5.66
5.02
4.35
3.62
2.86
2.16
1.59
1.21
0.96
0.78
0.56
0.22
-0.30
-1.05
-2.09
-3.40
-4.88
-6.30
-7.35
-7.68
-7.09
-5.58
-3.40
-1.00
1.16
2.70
3.41
3.28
2.46
1.17
-0.38
-1.94
-3.28
-4.24
-4.82
-5.18
-5.65
-6.55
-7.96
-9.67
-11.10
-11.62
-10.82
-8.72
-5.86
-3.13
-1.42
-1.36
-3.09
-6.20
-9.95
-13.39
-15.74
-16.49
-15.56
-13.19
-9.83
-5.96
-2.03
1.67
4.92
7.59
9.64
11.08
12.01
12.56
12.89
13.07
13.13
13.00
12.66
12.04
11.18
10.13
8.96
7.76
6.55
5.34
4.13
2.92
1.69
0.41
-0.98
-2.54
-4.28
-6.11
-7.81
-9.10
-9.74
-9.60
-8.66
-7.07
-5.05
-2.85
-0.70
1.22
2.80
3.96
4.68
4.90
4.64
3.92
2.89
1.78
0.86
0.31
0.15
0.25
0.39
0.39
0.20
-0.16
-0.60
-1.12
-1.78
-2.70
-3.98
-5.71
-7.88
-10.39
-12.99
-15.33
-17.01
-17.72
-17.32
-15.86
-13.59
-10.81
-7.77
-4.62
-1.47
1.57
4.34
6.66
8.38
9.43
9.86
9.79
9.40
8.85
8.24
7.66
7.19
6.85
6.68
6.65
6.67
6.60
6.29
5.64
4.69
3.54
2.30
1.05
-0.24
-1.65
-3.32
-5.29
-7.53
-9.85
-11.98
-13.57
-14.35
-14.09
-12.77
-10.54
-7.69
-4.62
-1.67
0.95
3.16
5.01
6.58
7.90
8.96
9.72
10.13
10.21
10.06
9.83
9.62
9.50
9.45
9.40
9.29
9.09
8.80
8.41
7.93
7.31
6.56
5.73
4.90
4.14
3.42
2.64
1.58
0.05
-2.05
-4.67
-7.61
-10.54
-13.07
-14.83
-15.48
-14.88
-13.10
-10.43
-7.29
-4.11
-1.20
1.33
3.49
5.37
7.04
8.43
9.44
10.00
10.11
9.90
9.56
9.24
8.98
8.76
8.51
8.19
7.88
7.70
7.70
7.87
8.06
8.13
7.94
7.48
6.81
6.00
5.06
3.97
2.67
1.14
-0.60
-2.52
-4.59
-6.76
-8.95
-11.01
-12.67
-13.62
-13.58
-12.44
-10.28
-7.37
-4.08
-0.80
2.17
4.62
6.43
7.61
8.21
8.37
8.24
7.98
7.74
7.60
7.63
7.85
8.26
8.80
9.36
9.76
9.88
9.63
9.07
8.34
7.59
6.93
6.39
5.89
5.37
4.78
4.09
3.27
2.27
0.97
-0.73
-2.87
-5.37
-7.99
-10.41
-12.26
-13.22
-13.09
-11.85
-9.68
-6.88
-3.83
-0.90
1.64
3.62
5.01
5.83
6.17
6.16
5.95
5.69
5.55
5.61
5.89
6.25
6.54
6.61
6.36
5.83
5.13
4.43
3.87
3.50
3.31
3.21
3.08
2.84
2.43
1.86
1.16
0.35
-0.55
-1.52
-2.59
-3.71
-4.84
-5.82
-6.47
-6.55
-5.84
-4.20
-1.70
1.41
4.76
7.90
10.51
12.38
13.53
14.06
14.16
13.99
13.68
13.26
12.76
12.15
11.41
10.60
9.80
9.12
8.62
8.27
7.94
7.50
6.83
5.96
5.00
4.09
3.28
2.50
1.53
0.23
-1.46
-3.39
-5.33
-7.07
-8.52
-9.67
-10.51
-10.95
-10.80
-9.89
-8.19
-5.90
-3.36
-0.99
0.93
2.33
3.23
3.75
3.94
3.81
3.37
2.72
2.00
1.42
1.14
1.21
1.50
1.77
1.76
1.28
0.30
-1.05
-2.56
-4.02
-5.32
-6.47
-7.54
-8.62
-9.76
-10.97
-12.30
-13.82
-15.57
-17.44
-19.18
-20.38
-20.65
-19.74
-17.69
-14.79
-11.46
-8.13
-5.06
-2.33
0.06
2.14
3.89
5.18
5.89
5.99
5.57
4.82
4.00
3.30
2.76
2.31
1.81
1.14
0.31
-0.50
-1.11
-1.37
-1.27
-0.98
-0.75
-0.85
-1.43
-2.51
-4.02
-5.83
-7.81
-9.77
-11.52
-12.75
-13.16
-12.53
-10.85
-8.28
-5.20
-2.01
0.93
3.42
5.37
6.76
7.60
7.94
7.86
7.49
6.98
6.47
6.03
5.68
5.38
5.06
4.70
4.29
3.83
3.36
2.91
2.49
2.09
1.69
1.22
0.68
0.03
-0.77
-1.74
-2.94
-4.43
-6.22
-8.27
-10.51
-12.82
-15.03
-16.97
-18.35
-18.87
-18.28
-16.49
-13.66
-10.21
-6.65
-3.43
-0.79
1.29
2.90
4.19
5.17
5.81
6.11
6.09
5.92
5.78
5.78
5.93
6.15
6.37
6.57
6.78
7.03
7.33
7.59
7.70
7.54
7.06
6.32
5.46
4.60
3.79
2.98
2.01
0.67
-1.15
-3.40
-5.86
-8.14
-9.79
-10.48
-10.05
-8.63
-6.53
-4.16
-1.87
0.14
1.80
3.19
4.37
5.36
6.08
6.42
6.35
5.94
5.41
4.98
4.82
4.95
5.28
5.66
5.98
6.15
6.13
5.87
5.35
4.57
3.57
2.48
1.39
0.31
-0.82
-2.12
-3.66
-5.40
-7.18
-8.74
-9.84
-10.32
-10.10
-9.22
-7.77
-5.91
-3.81
-1.62
0.57
2.65
4.49
5.93
6.86
7.21
7.03
6.48
5.75
5.00
4.33
3.75
3.25
2.81
2.41
2.07
1.78
1.54
1.30
1.00
0.60
0.06
-0.65
-1.53
-2.54
-3.68
-4.93
-6.25
-7.66
-9.17
-10.78
-12.44
-13.95
-15.04
-15.38
-14.76
-13.14
-10.72
-7.86
-4.95
-2.23
0.20
2.34
4.21
5.78
7.00
7.79
8.15
8.10
7.75
7.20
6.55
5.89
5.34
4.97
4.84
4.87
4.93
4.87
4.55
3.95
3.17
2.32
1.54
0.84
0.17
-0.59
-1.53
-2.68
-4.03
-5.53
-7.20
-9.06
-11.13
-13.26
-15.17
-16.45
-16.76
-15.89
-13.95
-11.27
-8.29
-5.39
-2.79
-0.55
1.37
3.01
4.34
5.30
5.82
5.92
5.68
5.30
4.92
4.67
4.58
4.61
4.66
4.68
4.64
4.55
4.41
4.17
3.77
3.14
2.27
1.27
0.32
-0.45
-0.97
-1.28
-1.51
-1.82
-2.35
-3.21
-4.42
-5.98
-7.79
-9.65
-11.34
-12.65
-13.42
-13.56
-13.12
-12.13
-10.68
-8.87
-6.80
-4.58
-2.35
-0.21
1.71
3.34
4.55
5.27
5.47
5.21
4.64
4.02
3.64
3.69
4.24
5.15
6.13
6.89
7.23
7.14
6.79
6.46
6.32
6.42
6.59
6.58
6.18
5.33
4.17
2.93
1.83
0.93
0.11
-0.85
-2.16
-3.90
-5.97
-8.11
-10.11
-11.77
-13.08
-14.01
-14.53
-14.53
-13.87
-12.50
-10.53
-8.20
-5.79
-3.51
-1.44
0.48
2.29
3.94
5.28
6.13
6.44
6.31
5.99
5.77
5.84
6.23
6.83
7.46
7.95
8.21
8.30
8.30
8.33
8.47
8.69
8.91
8.99
8.80
8.32
7.59
6.72
5.82
4.97
4.15
3.30
2.33
1.14
-0.34
-2.11
-4.13
-6.26
-8.29
-9.94
-10.93
-11.04
-10.18
-8.47
-6.16
-3.59
-1.13
0.98
2.60
3.68
4.26
4.42
4.27
3.96
3.59
3.26
3.00
2.74
2.43
2.03
1.57
1.14
0.80
0.58
0.43
0.31
0.20
0.15
0.17
0.24
0.21
-0.06
-0.68
-1.62
-2.78
-4.05
-5.36
-6.73
-8.18
-9.62
-10.86
-11.60
-11.56
-10.63
-8.94
-6.77
-4.44
-2.19
-0.11
1.80
3.57
5.18
6.50
7.39
7.75
7.63
7.16
6.54
5.94
5.42
5.01
4.65
4.30
3.90
3.40
2.78
2.06
1.32
0.62
0.02
-0.54
-1.18
-2.03
-3.15
-4.56
-6.21
-8.05
-10.04
-12.11
-14.10
-15.75
-16.74
-16.80
-15.82
-13.87
-11.22
-8.23
-5.24
-2.52
-0.20
1.69
3.20
4.43
5.46
6.30
6.90
7.15
6.97
6.37
5.46
4.46
3.59
3.00
2.76
2.80
2.99
3.13
3.05
2.60
1.70
0.38
-1.24
-2.96
-4.56
-5.91
-6.99
-7.94
-8.98
-10.29
-11.89
-13.61
-15.16
-16.17
-16.35
-15.59
-13.94
-11.61
-8.87
-6.04
-3.37
-1.08
0.70
1.96
2.71
3.09
3.28
3.44
3.73
4.19
4.81
5.48
6.07
6.50
6.71
6.73
6.62
6.43
6.21
5.95
5.65
5.27
4.78
4.11
3.18
1.93
0.36
-1.43
-3.35
-5.33
-7.34
-9.41
-11.57
-13.75
-15.73
-17.20
-17.81
-17.32
-15.70
-13.14
-9.97
-6.59
-3.27
-0.21
2.53
4.90
6.83
8.25
9.11
9.51
9.60
9.59
9.61
9.62
9.52
9.18
8.57
7.82
7.16
6.79
6.78
6.97
7.08
6.81
5.98
4.62
2.93
1.20
-0.34
-1.63
-2.74
-3.87
-5.25
-7.04
-9.26
-11.77
-14.29
-16.41
-17.73
-17.97
-17.01
-14.99
-12.20
-9.01
-5.76
-2.66
0.12
2.52
4.42
5.77
6.57
6.90
6.99
7.01
7.13
7.34
7.51
7.51
7.23
6.74
6.22
5.86
5.79
5.94
6.14
6.14
5.78
5.01
3.90
2.58
1.15
-0.35
-1.95
-3.70
-5.62
-7.69
-9.81
-11.80
-13.40
-14.35
-14.40
-13.41
-11.43
-8.69
-5.53
-2.33
0.64
3.24
5.39
7.05
8.19
8.73
8.68
8.13
7.29
6.44
5.83
5.56
5.57
5.68
5.70
5.52
5.12
4.58
3.96
3.31
2.60
1.84
1.03
0.19
-0.69
-1.73
-3.07
-4.90
-7.28
-10.11
-13.06
-15.67
-17.44
-17.98
-17.11
-14.92
-11.72
-7.98
-4.15
-0.63
2.38
4.79
6.61
7.88
8.62
8.83
8.60
8.03
7.26
6.44
5.70
5.11
4.73
4.54
4.49
4.46
4.33
4.01
3.46
2.70
1.77
0.72
-0.49
-1.93
-3.70
-5.87
-8.49
-11.47
-14.65
-17.70
-20.23
-21.82
-22.15
-21.05
-18.60
-15.07
-10.87
-6.45
-2.18
1.63
4.80
7.27
9.05
10.24
10.94
11.26
11.28
11.08
10.75
10.37
9.99
9.66
9.36
9.05
8.68
8.22
7.64
6.92
6.01
4.87
3.48
1.85
0.05
-1.90
-4.03
-6.45
-9.33
-12.69
-16.38
-20.07
-23.25
-25.40
-26.09
-25.12
-22.49
-18.44
-13.39
-7.85
-2.36
2.62
6.76
9.94
12.22
13.72
14.62
15.04
15.06
14.77
14.29
13.77
13.32
13.01
12.83
12.70
12.57
12.37
12.09
11.67
10.99
9.88
8.26
6.17
3.79
1.40
-0.84
-2.97
-5.23
-7.97
-11.43
-15.54
-19.89
-23.77
-26.38
-27.08
-25.59
-22.01
-16.83
-10.74
-4.47
1.37
6.36
10.32
13.23
15.18
16.34
16.85
16.86
16.46
15.76
14.91
14.03
13.32
12.88
12.72
12.75
12.77
12.60
12.12
11.36
10.39
9.25
7.91
6.24
4.16
1.67
-1.08
-3.95
-6.86
-9.90
-13.17
-16.64
-19.98
-22.51
-23.41
-22.07
-18.36
-12.74
-6.11
0.52
6.32
10.89
14.24
16.64
18.41
19.75
20.67
21.07
20.83
19.97
18.63
17.05
15.51
14.19
13.20
12.55
12.15
11.93
11.72
11.36
10.69
9.57
7.92
5.74
3.12
0.18
-2.91
-6.02
-9.09
-12.19
-15.45
-19.00
-22.74
-26.29
-28.96
-29.96
-28.70
-25.03
-19.31
-12.31
-4.95
1.98
7.98
12.84
16.56
19.21
20.91
21.77
21.89
21.45
20.62
19.64
18.69
17.91
17.35
16.94
16.59
16.14
15.52
14.72
13.79
12.76
11.60
10.24
8.55
6.49
4.11
1.54
-1.05
-3.58
-6.14
-8.93
-12.19
-16.04
-20.36
-24.69
-28.34
-30.49
-30.52
-28.16
-23.59
-17.45
-10.60
-3.88
2.11
7.10
11.13
14.32
16.83
18.67
19.81
20.26
20.12
19.61
18.98
18.38
17.88
17.41
16.90
16.36
15.82
15.40
15.11
14.90
14.59
13.96
12.82
11.08
8.78
6.06
3.15
0.24
-2.58
-5.35
-8.24
-11.49
-15.32
-19.75
-24.57
-29.32
-33.35
-35.94
-36.52
-34.79
-30.80
-24.99
-17.98
-10.54
-3.26
3.41
9.23
14.05
17.80
20.44
22.01
22.66
22.63
22.21
21.62
21.02
20.40
19.70
18.90
18.01
17.16
16.45
15.91
15.46
14.92
14.09
12.80
10.99
8.65
5.90
2.89
-0.15
-3.04
-5.65
-8.03
-10.41
-13.14
-16.53
-20.69
-25.35
-29.88
-33.42
-35.10
-34.32
-30.91
-25.19
-17.90
-9.98
-2.38
4.25
9.54
13.50
16.33
18.29
19.54
20.16
20.16
19.62
18.69
17.56
16.48
15.60
15.01
14.72
14.70
14.89
15.23
15.57
15.75
15.55
14.81
13.46
11.54
9.17
6.54
3.80
1.07
-1.59
-4.22
-6.89
-9.80
-13.10
-16.94
-21.24
-25.59
-29.30
-31.51
-31.47
-28.83
-23.81
-17.12
-9.75
-2.65
3.52
8.45
12.12
14.64
16.18
16.84
16.76
16.08
14.99
13.69
12.39
11.23
10.30
9.59
9.07
8.71
8.44
8.20
7.87
7.35
6.54
5.42
4.04
2.50
0.92
-0.67
-2.28
-3.99
-5.91
-8.16
-10.86
-14.09
-17.81
-21.73
-25.24
-27.51
-27.76
-25.54
-20.99
-14.80
-8.01
-1.61
3.76
7.90
10.91
13.02
14.34
14.83
14.44
13.22
11.42
9.46
7.75
6.57
5.96
5.73
5.62
5.39
4.92
4.21
3.35
2.43
1.52
0.65
-0.25
-1.29
-2.63
-4.45
-6.89
-10.00
-13.71
-17.77
-21.75
-25.05
-26.99
-26.97
-24.70
-20.29
-14.30
-7.57
-1.01
4.68
9.11
12.20
14.10
15.01
15.09
14.46
13.22
11.57
9.76
8.11
6.86
6.12
5.75
5.46
4.93
3.98
2.61
1.02
-0.56
-1.95
-3.18
-4.43
-5.94
-7.90
-10.45
-13.60
-17.30
-21.40
-25.55
-29.20
-31.62
-32.12
-30.26
-26.10
-20.13
-13.23
-6.26
0.08
5.41
9.65
12.86
15.11
16.39
16.70
16.11
14.84
13.20
11.56
10.21
9.25
8.60
8.07
7.46
6.67
5.70
4.63
3.54
2.46
1.36
0.16
-1.23
-2.93
-5.04
-7.73
-11.08
-15.08
-19.46
-23.72
-27.16
-29.04
-28.82
-26.32
-21.83
-16.00
-9.62
-3.46
2.00
6.51
10.10
12.86
14.86
16.07
16.43
15.90
14.60
12.80
10.89
9.27
8.19
7.70
7.66
7.77
7.76
7.45
6.77
5.76
4.50
2.99
1.23
-0.79
-3.07
-5.55
-8.26
-11.24
-14.63
-18.47
-22.53
-26.31
-28.99
-29.75
-28.06
-23.93
-17.89
-10.81
-3.55
3.20
9.09
13.96
17.72
20.31
21.69
21.97
21.37
20.29
19.10
18.09
17.34
16.78
16.24
15.61
14.81
13.88
12.89
11.89
10.92
9.95
8.96
7.86
6.60
5.09
3.22
0.90
-1.96
-5.37
-9.34
-13.80
-18.56
-23.23
-27.22
-29.77
-30.20
-28.17
-23.82
-17.79
-11.04
-4.47
1.29
6.04
9.85
12.88
15.19
16.74
17.41
17.21
16.31
15.00
13.61
12.37
11.39
10.65
10.09
9.63
9.22
8.81
8.30
7.60
6.64
5.38
3.87
2.18
0.37
-1.55
-3.63
-5.99
-8.78
-12.08
-15.80
-19.65
-23.04
-25.27
-25.69
-23.97
-20.23
-15.00
-9.03
-3.03
2.53
7.40
11.46
14.65
16.88
18.07
18.31
17.81
16.90
15.90
14.96
14.10
13.27
12.38
11.43
10.47
9.51
8.57
7.59
6.54
5.36
4.05
2.58
0.85
-1.27
-3.95
-7.31
-11.32
-15.70
-19.98
-23.52
-25.70
-26.03
-24.30
-20.67
-15.55
-9.57
-3.38
2.45
7.51
11.55
14.44
16.12
16.60
15.97
14.46
12.39
10.18
8.22
6.80
5.98
5.62
5.48
5.29
4.86
4.19
3.35
2.44
1.49
0.42
-0.96
-2.87
-5.46
-8.81
-12.83
-17.25
-21.59
-25.21
-27.42
-27.67
-25.72
-21.77
-16.39
-10.36
-4.40
0.94
5.47
9.12
11.95
13.96
15.09
15.32
14.73
13.52
12.02
10.53
9.32
8.50
8.06
7.86
7.71
7.41
6.83
5.93
4.78
3.50
2.21
0.94
-0.39
-1.95
-3.96
-6.57
-9.86
-13.70
-17.79
-21.61
-24.53
-25.91
-25.28
-22.53
-17.95
-12.16
-5.96
-0.10
4.90
8.83
11.70
13.71
15.03
15.78
16.00
15.68
14.89
13.72
12.40
11.18
10.24
9.63
9.24
8.87
8.32
7.50
6.42
5.22
4.02
2.88
1.78
0.63
-0.70
-2.31
-4.29
-6.76
-9.84
-13.55
-17.72
-21.87
-25.25
-27.05
-26.62
-23.79
-18.87
-12.63
-5.99
0.24
5.52
9.67
12.70
14.74
15.95
16.46
16.41
15.99
15.37
14.67
13.97
13.28
12.59
11.96
11.48
11.23
11.16
11.17
11.06
10.66
9.88
8.73
7.28
5.53
3.48
1.12
-1.52
-4.31
-7.12
-9.89
-12.69
-15.65
-18.85
-22.17
-25.17
-27.21
-27.64
-26.08
-22.54
-17.43
-11.47
-5.43
0.04
4.50
7.79
9.93
11.10
11.62
11.75
11.72
11.64
11.49
11.24
10.86
10.40
10.00
9.75
9.67
9.66
9.53
9.11
8.31
7.17
5.83
4.43
3.06
1.68
0.15
-1.63
-3.72
-6.11
-8.76
-11.66
-14.77
-17.96
-20.90
-23.07
-23.79
-22.57
-19.27
-14.20
-8.10
-1.87
3.67
8.03
11.10
13.03
14.11
14.60
14.65
14.26
13.43
12.19
10.73
9.33
8.28
7.77
7.74
7.96
8.06
7.75
6.91
5.66
4.19
2.72
1.31
-0.10
-1.61
-3.31
-5.22
-7.33
-9.66
-12.29
-15.25
-18.39
-21.31
-23.39
-23.99
-22.70
-19.54
-14.91
-9.53
-4.12
0.71
4.65
7.61
9.69
11.04
11.82
12.12
12.01
11.50
10.61
9.43
8.10
6.85
5.89
5.39
5.37
5.69
6.10
6.34
6.19
5.54
4.42
2.95
1.28
-0.48
-2.30
-4.25
-6.48
-9.12
-12.21
-15.69
-19.39
-23.04
-26.26
-28.59
-29.53
-28.61
-25.63
-20.79
-14.71
-8.29
-2.43
2.27
5.65
7.87
9.27
10.12
10.54
10.54
10.10
9.28
8.28
7.29
6.50
6.01
5.84
5.96
6.32
6.80
7.28
7.63
7.70
7.39
6.64
5.44
3.84
1.92
-0.22
-2.53
-4.97
-7.56
-10.40
-13.60
-17.19
-21.06
-24.83
-27.84
-29.31
-28.60
-25.48
-20.26
-13.70
-6.82
-0.53
4.59
8.38
10.94
12.55
13.45
13.82
13.79
13.42
12.80
12.04
11.23
10.42
9.66
8.94
8.26
7.66
7.19
6.88
6.73
6.61
6.36
5.79
4.80
3.39
1.69
-0.14
-1.96
-3.75
-5.59
-7.66
-10.16
-13.26
-16.94
-20.93
-24.72
-27.62
-28.97
-28.31
-25.56
-21.02
-15.35
-9.31
-3.64
1.17
4.91
7.61
9.44
10.62
11.33
11.66
11.69
11.53
11.25
10.96
10.71
10.46
10.22
9.94
9.67
9.44
9.20
8.83
8.10
6.85
5.03
2.79
0.44
-1.73
-3.55
-5.04
-6.40
-7.89
-9.74
-12.12
-15.04
-18.33
-21.63
-24.44
-26.11
-26.13
-24.18
-20.38
-15.24
-9.52
-4.00
0.70
4.32
6.87
8.55
9.60
10.21
10.53
10.63
10.57
10.39
10.08
9.67
9.18
8.71
8.39
8.28
8.43
8.72
8.93
8.84
8.25
7.09
5.40
3.33
1.05
-1.27
-3.49
-5.59
-7.59
-9.64
-11.93
-14.61
-17.69
-20.93
-23.81
-25.67
-25.89
-24.07
-20.28
-14.99
-8.95
-2.97
2.34
6.68
9.96
12.28
13.73
14.43
14.43
13.85
12.81
11.55
10.29
9.22
8.49
8.13
8.05
8.08
8.03
7.76
7.23
6.49
5.58
4.54
3.32
1.86
0.17
-1.73
-3.76
-5.86
-8.07
-10.52
-13.36
-16.64
-20.16
-23.48
-25.94
-26.83
-25.64
-22.24
-16.96
-10.49
-3.72
2.54
7.73
11.59
14.17
15.69
16.39
16.47
15.99
15.01
13.56
11.78
9.89
8.18
6.88
6.08
5.71
5.59
5.52
5.41
5.23
4.99
4.70
4.27
3.58
2.61
1.35
-0.09
-1.70
-3.54
-5.80
-8.66
-12.13
-15.92
-19.42
-21.87
-22.55
-21.10
-17.52
-12.32
-6.22
-0.05
5.46
9.86
12.97
14.87
15.75
15.84
15.32
14.29
12.85
11.11
9.28
7.61
6.33
5.59
5.32
5.35
5.44
5.40
5.13
4.65
4.03
3.29
2.45
1.43
0.17
-1.39
-3.28
-5.54
-8.20
-11.27
-14.66
-18.08
-21.06
-22.98
-23.28
-21.60
-17.95
-12.73
-6.64
-0.50
5.02
9.48
12.80
15.11
16.59
17.39
17.51
16.89
15.54
13.62
11.45
9.41
7.77
6.65
5.97
5.54
5.14
4.60
3.83
2.87
1.79
0.69
-0.36
-1.37
-2.39
-3.55
-4.99
-6.80
-9.07
-11.80
-14.88
-18.05
-20.81
-22.54
-22.63
-20.74
-16.92
-11.66
-5.73
0.08
5.18
9.31
12.43
14.64
15.94
16.30
15.69
14.19
12.13
9.96
8.15
7.00
6.54
6.53
6.62
6.50
6.01
5.19
4.18
3.15
2.17
1.28
0.37
-0.67
-2.01
-3.83
-6.24
-9.25
-12.66
-16.00
-18.61
-19.83
-19.15
-16.47
-12.11
-6.74
-1.15
3.99
8.27
11.55
13.86
15.28
15.85
15.59
14.55
12.96
11.14
9.46
8.20
7.42
6.96
6.56
5.97
5.11
4.08
3.07
2.23
1.54
0.82
-0.21
-1.84
-4.23
-7.38
-11.12
-15.12
-18.89
-21.86
-23.46
-23.32
-21.34
-17.73
-12.96
-7.63
-2.29
2.59
6.67
9.68
11.45
11.96
11.37
9.99
8.27
6.63
5.38
4.59
4.12
3.74
3.21
2.41
1.38
0.28
-0.72
-1.54
-2.28
-3.12
-4.27
-5.93
-8.20
-11.09
-14.53
-18.30
-22.00
-25.05
-26.79
-26.71
-24.66
-20.85
-15.89
-10.47
-5.22
-0.52
3.44
6.65
9.08
10.70
11.44
11.34
10.54
9.29
7.95
6.79
6.01
5.66
5.61
5.66
5.59
5.23
4.58
3.78
2.97
2.18
1.29
-0.04
-2.17
-5.28
-9.32
-13.90
-18.49
-22.43
-25.17
-26.23
-25.38
-22.60
-18.22
-12.83
-7.20
-2.07
2.12
5.23
7.39
8.82
9.68
10.06
10.03
9.77
9.50
9.49
9.84
10.53
11.37
12.15
12.73
13.05
13.09
12.84
12.26
11.31
9.99
8.34
6.39
4.18
1.71
-1.05
-4.08
-7.36
-10.81
-14.31
-17.63
-20.40
-22.15
-22.39
-20.82
-17.42
-12.60
-6.98
-1.26
3.98
8.38
11.85
14.43
16.21
17.27
17.62
17.29
16.35
14.97
13.41
11.99
11.00
10.62
10.82
11.44
12.20
12.85
13.20
13.15
12.67
11.74
10.43
8.82
7.05
5.24
3.45
1.62
-0.42
-2.90
-5.99
-9.76
-14.03
-18.35
-22.03
-24.28
-24.42
-22.14
-17.65
-11.65
-5.16
0.87
5.77
9.32
11.69
13.26
14.43
15.43
16.32
16.97
17.22
16.95
16.21
15.15
14.04
13.08
12.37
11.85
11.38
10.85
10.25
9.66
9.19
8.79
8.30
7.47
6.12
4.21
1.86
-0.73
-3.47
-6.33
-9.36
-12.46
-15.31
-17.39
-18.16
-17.24
-14.64
-10.76
-6.23
-1.69
2.34
5.63
8.11
9.85
10.91
11.38
11.33
10.91
10.25
9.50
8.75
8.07
7.50
7.11
6.97
7.06
7.25
7.31
7.02
6.23
4.99
3.50
1.97
0.55
-0.80
-2.20
-3.84
-5.87
-8.36
-11.33
-14.67
-18.14
-21.35
-23.77
-24.87
-24.31
-22.04
-18.36
-13.81
-8.99
-4.42
-0.47
2.69
5.01
6.48
7.21
7.34
7.09
6.73
6.50
6.61
7.12
8.02
9.20
10.48
11.69
12.67
13.32
13.60
13.48
12.95
11.98
10.57
8.72
6.53
4.14
1.74
-0.53
-2.65
-4.71
-6.90
-9.41
-12.31
-15.50
-18.66
-21.26
-22.76
-22.68
-20.85
-17.39
-12.76
-7.52
-2.32
2.36
6.16
8.95
10.72
11.65
11.96
11.93
11.77
11.59
11.36
11.05
10.61
10.06
9.51
9.10
8.87
8.87
9.02
9.22
9.37
9.38
9.19
8.79
8.21
7.44
6.49
5.24
3.60
1.47
-1.11
-3.99
-6.98
-9.93
-12.76
-15.46
-17.89
-19.78
-20.66
-20.14
-18.05
-14.68
-10.65
-6.73
-3.51
-1.25
0.16
0.98
1.43
1.53
1.23
0.57
-0.23
-0.80
-0.75
0.07
1.48
3.00
4.20
4.91
5.34
5.99
7.38
9.73
12.79
15.93
18.32
19.27
18.47
16.02
12.46
8.54
5.07
2.69
1.74
2.05
3.02
3.73
3.21
0.80
-3.58
-9.36
-15.48
-20.68
-23.94
-24.76
-23.25
-19.99
-15.78
-11.38
-7.29
-3.72
-0.66
1.93
4.08
5.77
6.96
7.72
8.23
8.71
9.29
9.95
10.50
10.71
10.47
9.85
9.12
8.62
8.57
8.95
9.47
9.71
9.24
7.87
5.70
3.11
0.50
-1.81
-3.77
-5.61
-7.67
-10.21
-13.29
-16.69
-19.95
-22.50
-23.80
-23.52
-21.63
-18.40
-14.34
-10.08
-6.15
-2.90
-0.44
1.28
2.39
3.00
3.27
3.34
3.41
3.63
4.06
4.65
5.20
5.54
5.64
5.68
5.87
6.40
7.26
8.19
8.88
9.06
8.65
7.77
6.63
5.40
4.21
3.07
1.98
0.88
-0.28
-1.67
-3.46
-5.76
-8.46
-11.18
-13.38
-14.48
-14.11
-12.21
-9.00
-4.92
-0.42
4.10
8.34
12.08
15.10
17.28
18.55
18.99
18.83
18.40
17.99
17.77
17.72
17.64
17.28
16.40
14.91
12.90
10.59
8.26
6.15
4.36
2.85
1.42
-0.15
-2.07
-4.42
-7.19
-10.32
-13.70
-17.18
-20.48
-23.16
-24.72
-24.73
-23.01
-19.78
-15.53
-10.90
-6.49
-2.69
0.32
2.51
3.92
4.64
4.77
4.44
3.79
2.95
2.01
1.00
-0.07
-1.22
-2.42
-3.60
-4.66
-5.46
-5.91
-6.03
-5.92
-5.75
-5.76
-6.16
-7.13
-8.82
-11.26
-14.33
-17.74
-21.02
-23.61
-25.03
-24.95
-23.32
-20.33
-16.33
-11.76
-7.02
-2.45
1.69
5.21
8.01
10.04
11.27
11.67
11.28
10.17
8.54
6.68
4.89
3.43
2.36
1.57
0.83
-0.09
-1.27
-2.66
-4.10
-5.46
-6.71
-7.91
-9.18
-10.62
-12.27
-14.19
-16.42
-18.98
-21.74
-24.36
-26.21
-26.64
-25.18
-21.83
-17.05
-11.60
-6.28
-1.62
2.20
5.27
7.78
9.85
11.50
12.62
13.14
13.05
12.47
11.57
10.57
9.62
8.84
8.21
7.67
7.07
6.33
5.43
4.39
3.30
2.18
0.99
-0.43
-2.26
-4.65
-7.66
-11.24
-15.16
-19.06
-22.47
-24.88
-25.82
-25.00
-22.38
-18.21
-12.99
-7.36
-1.90
2.97
7.04
10.33
12.92
14.90
16.29
17.09
17.29
16.94
16.19
15.22
14.20
13.23
12.34
11.44
10.46
9.34
8.11
6.83
5.57
4.33
3.06
1.63
-0.07
-2.12
-4.59
-7.48
-10.78
-14.43
-18.24
-21.85
-24.74
-26.30
-26.10
-23.96
-20.13
-15.14
-9.63
-4.14
0.95
5.51
9.44
12.67
15.09
16.60
17.20
16.98
16.16
14.99
13.66
12.35
11.16
10.14
9.33
8.73
8.27
7.89
7.52
7.10
6.58
5.85
4.81
3.36
1.43
-0.88
-3.38
-5.95
-8.54
-11.25
-14.14
-17.11
-19.76
-21.45
-21.56
-19.73
-16.05
-11.01
-5.31
0.40
5.68
10.30
14.17
17.25
19.49
20.83
21.26
20.88
19.80
18.25
16.46
14.70
13.18
12.00
11.17
10.59
10.07
9.42
8.53
7.39
6.04
4.59
3.08
1.51
-0.18
-2.11
-4.38
-7.09
-10.27
-13.79
-17.35
-20.44
-22.43
-22.79
-21.16
-17.63
-12.65
-6.93
-1.16
4.12
8.62
12.26
15.00
16.84
17.75
17.76
17.04
15.88
14.55
13.30
12.20
11.20
10.21
9.11
7.87
6.53
5.20
3.98
2.90
1.93
0.91
-0.39
-2.17
-4.52
-7.42
-10.72
-14.20
-17.54
-20.39
-22.36
-23.06
-22.18
-19.68
-15.76
-10.84
-5.48
-0.17
4.70
8.89
12.23
14.56
15.80
15.92
15.06
13.51
11.68
9.96
8.64
7.79
7.28
6.83
6.13
5.00
3.44
1.69
0.06
-1.24
-2.18
-2.98
-4.00
-5.57
-7.89
-11.00
-14.74
-18.79
-22.72
-25.97
-27.91
-28.00
-26.00
-22.03
-16.63
-10.57
-4.62
0.69
5.09
8.59
11.25
13.15
14.32
14.75
14.46
13.56
12.24
10.74
9.31
8.15
7.34
6.84
6.48
6.05
5.35
4.32
3.00
1.53
0.03
-1.47
-3.01
-4.77
-6.93
-9.67
-13.02
-16.83
-20.70
-24.01
-26.06
-26.24
-24.26
-20.24
-14.69
-8.39
-2.10
3.54
8.20
11.72
14.13
15.50
15.94
15.62
14.78
13.68
12.55
11.50
10.56
9.65
8.69
7.62
6.42
5.10
3.73
2.39
1.11
-0.10
-1.30
-2.62
-4.22
-6.27
-8.91
-12.20
-16.07
-20.20
-24.07
-26.98
-28.23
-27.33
-24.19
-19.20
-13.04
-6.48
-0.19
5.43
10.15
13.90
16.61
18.28
18.96
18.79
17.99
16.81
15.44
14.04
12.72
11.58
10.64
9.92
9.30
8.68
7.94
7.06
6.05
4.98
3.82
2.46
0.78
-1.39
-4.13
-7.42
-11.17
-15.16
-19.00
-22.21
-24.22
-24.48
-22.71
-18.99
-13.79
-7.79
-1.71
3.92
8.83
12.91
16.12
18.38
19.57
19.66
18.81
17.38
15.82
14.58
13.87
13.60
13.50
13.19
12.44
11.21
9.71
8.25
7.07
6.22
5.54
4.76
3.62
1.96
-0.26
-3.03
-6.34
-10.16
-14.25
-18.13
-21.11
-22.45
-21.61
-18.52
-13.59
-7.61
-1.44
4.20
8.88
12.47
15.04
16.64
17.32
17.07
15.92
14.07
11.87
9.73
8.00
6.80
6.03
5.44
4.79
3.98
3.03
2.05
1.10
0.18
-0.81
-2.05
-3.72
-5.94
-8.76
-12.04
-15.47
-18.57
-20.81
-21.73
-21.06
-18.83
-15.26
-10.70
-5.52
-0.12
5.14
9.88
13.72
16.37
17.68
17.73
16.76
15.13
13.19
11.26
9.54
8.12
7.02
6.14
5.32
4.37
3.18
1.73
0.15
-1.42
-2.89
-4.34
-6.01
-8.21
-11.16
-14.88
-19.10
-23.27
-26.67
-28.57
-28.44
-26.08
-21.70
-15.89
-9.45
-3.12
2.51
7.18
10.86
13.64
15.61
16.73
16.92
16.14
14.53
12.44
10.29
8.44
7.07
6.06
5.18
4.19
3.02
1.75
0.51
-0.60
-1.63
-2.79
-4.30
-6.40
-9.24
-12.84
-17.06
-21.51
-25.60
-28.55
-29.66
-28.50
-25.09
-19.90
-13.70
-7.31
-1.30
4.03
8.60
12.39
15.30
17.16
17.83
17.35
15.99
14.17
12.37
10.94
10.02
9.54
9.29
9.05
8.62
7.90
6.93
5.79
4.56
3.31
2.01
0.57
-1.21
-3.53
-6.57
-10.35
-14.60
-18.78
-22.11
-23.87
-23.63
-21.40
-17.61
-12.90
-7.87
-2.93
1.70
5.89
9.53
12.41
14.33
15.20
15.06
14.16
12.84
11.44
10.23
9.35
8.78
8.43
8.10
7.67
7.08
6.36
5.57
4.77
3.92
2.99
1.86
0.41
-1.45
-3.86
-6.91
-10.61
-14.87
-19.34
-23.47
-26.56
-27.88
-26.92
-23.51
-17.97
-11.00
-3.51
3.62
9.76
14.57
18.02
20.22
21.33
21.48
20.79
19.44
17.70
15.88
14.29
13.14
12.45
12.09
11.80
11.31
10.50
9.39
8.11
6.84
5.67
4.55
3.31
1.72
-0.37
-3.06
-6.36
-10.20
-14.44
-18.79
-22.78
-25.78
-27.09
-26.24
-23.12
-18.08
-11.77
-4.99
1.61
7.57
12.66
16.73
19.73
21.60
22.30
21.95
20.75
19.01
17.07
15.23
13.74
12.74
12.23
12.10
12.18
12.23
12.06
11.58
10.79
9.71
8.37
6.75
4.84
2.65
0.20
-2.49
-5.48
-8.86
-12.64
-16.61
-20.31
-22.99
-23.90
-22.54
-18.83
-13.20
-6.44
0.54
6.99
12.40
16.59
19.55
21.35
22.06
21.76
20.55
18.64
16.33
14.02
12.02
10.52
9.50
8.80
8.19
7.50
6.70
5.83
4.97
4.11
3.15
1.95
0.37
-1.68
-4.22
-7.24
-10.68
-14.41
-18.11
-21.27
-23.29
-23.58
-21.81
-18.08
-12.86
-6.89
-0.95
4.40
8.85
12.33
14.86
16.43
16.97
16.41
14.83
12.50
9.91
7.60
5.92
4.96
4.52
4.23
3.81
3.18
2.46
1.85
1.43
1.13
0.61
-0.47
-2.39
-5.20
-8.77
-12.77
-16.81
-20.40
-23.05
-24.25
-23.65
-21.10
-16.81
-11.29
-5.24
0.68
5.98
10.42
13.96
16.58
18.25
18.86
18.39
17.01
15.08
13.08
11.40
10.24
9.46
8.80
7.93
6.70
5.17
3.53
1.99
0.61
-0.71
-2.15
-3.92
-6.14
-8.84
-12.00
-15.59
-19.46
-23.35
-26.76
-29.07
-29.67
-28.21
-24.78
-19.87
-14.20
-8.42
-2.99
1.89
6.15
9.76
12.60
14.51
15.37
15.24
14.34
13.08
11.83
10.88
10.29
9.92
9.57
9.03
8.20
7.11
5.86
4.56
3.22
1.82
0.26
-1.56
-3.73
-6.30
-9.35
-12.93
-16.96
-21.16
-24.97
-27.67
-28.53
-27.11
-23.46
-18.09
-11.85
-5.60
0.05
4.85
8.83
12.11
14.75
16.72
17.91
18.30
17.99
17.19
16.15
15.09
14.12
13.30
12.63
12.04
11.45
10.74
9.80
8.53
6.95
5.09
3.03
0.87
-1.37
-3.71
-6.22
-9.03
-12.25
-15.89
-19.78
-23.56
-26.64
-28.38
-28.20
-25.84
-21.38
-15.35
-8.46
-1.54
4.69
9.78
13.53
16.00
17.39
17.98
18.03
17.73
17.21
16.55
15.78
14.92
14.03
13.17
12.42
11.82
11.38
11.00
10.48
9.65
8.36
6.58
4.42
2.05
-0.37
-2.72
-4.96
-7.12
-9.31
-11.69
-14.42
-17.59
-21.04
-24.28
-26.58
-27.18
-25.56
-21.64
-15.89
-9.17
-2.42
3.57
8.38
11.92
14.34
15.87
16.71
16.94
16.63
15.84
14.71
13.48
12.37
11.55
11.03
10.68
10.33
9.87
9.28
8.62
7.95
7.21
6.27
4.97
3.27
1.20
-1.07
-3.44
-5.89
-8.54
-11.52
-14.86
-18.32
-21.40
-23.48
-23.96
-22.49
-19.11
-14.18
-8.35
-2.33
3.28
8.09
11.91
14.69
16.43
17.12
16.81
15.59
13.73
11.60
9.64
8.16
7.34
7.09
7.19
7.35
7.33
6.96
6.19
5.04
3.59
1.94
0.20
-1.55
-3.32
-5.24
-7.56
-10.51
-14.12
-18.11
-21.89
-24.69
-25.82
-24.93
-22.07
-17.66
-12.29
-6.56
-0.96
4.12
8.40
11.63
13.70
14.63
14.59
13.85
12.68
11.30
9.87
8.52
7.33
6.37
5.64
5.05
4.47
3.77
2.86
1.71
0.33
-1.26
-3.01
-4.93
-7.01
-9.30
-11.90
-14.91
-18.39
-22.21
-25.96
-29.01
-30.65
-30.30
-27.75
-23.21
-17.24
-10.60
-4.02
1.95
6.98
10.91
13.70
15.35
15.92
15.53
14.39
12.80
11.09
9.53
8.30
7.48
6.97
6.65
6.31
5.82
5.07
4.07
2.85
1.49
0.06
-1.44
-3.05
-4.85
-6.99
-9.63
-12.87
-16.67
-20.75
-24.57
-27.41
-28.57
-27.61
-24.53
-19.77
-14.05
-8.15
-2.63
2.27
6.47
9.98
12.73
14.55
15.34
15.11
14.09
12.61
11.05
9.68
8.64
7.96
7.56
7.33
7.13
6.85
6.40
5.77
4.96
3.99
2.83
1.42
-0.30
-2.32
-4.60
-7.06
-9.77
-12.82
-16.26
-19.92
-23.29
-25.58
-25.98
-23.96
-19.53
-13.29
-6.21
0.67
6.53
11.02
14.15
16.21
17.47
18.09
18.10
17.49
16.32
14.82
13.31
12.07
11.23
10.68
10.18
9.53
8.64
7.58
6.50
5.49
4.51
3.44
2.19
0.71
-0.99
-2.90
-5.10
-7.72
-10.92
-14.68
-18.74
-22.56
-25.41
-26.59
-25.63
-22.47
-17.47
-11.34
-4.90
1.09
6.14
10.03
12.83
14.68
15.76
16.15
15.91
15.12
13.95
12.66
11.51
10.65
10.09
9.73
9.37
8.85
8.11
7.13
6.01
4.85
3.74
2.69
1.60
0.26
-1.60
-4.22
-7.68
-11.74
-15.93
-19.52
-21.81
-22.27
-20.72
-17.38
-12.76
-7.52
-2.23
2.68
6.99
10.54
13.22
14.89
15.49
15.05
13.78
12.02
10.18
8.55
7.27
6.30
5.43
4.48
3.34
2.06
0.84
-0.13
-0.70
-0.97
-1.20
-1.74
-2.94
-5.02
-8.01
-11.79
-16.05
-20.31
-23.92
-26.14
-26.38
-24.40
-20.37
-14.93
-8.89
-2.99
2.30
6.80
10.53
13.44
15.43
16.34
16.12
14.91
13.07
11.07
9.31
8.01
7.15
6.53
5.90
5.07
3.98
2.66
1.26
-0.09
-1.30
-2.36
-3.36
-4.49
-6.02
-8.21
-11.26
-15.13
-19.42
-23.42
-26.26
-27.13
-25.65
-21.97
-16.71
-10.70
-4.75
0.63
5.22
8.98
11.95
14.12
15.45
15.92
15.63
14.77
13.61
12.43
11.44
10.68
10.07
9.44
8.60
7.51
6.22
4.91
3.76
2.81
1.95
0.92
-0.55
-2.69
-5.58
-9.16
-13.20
-17.30
-20.96
-23.55
-24.53
-23.57
-20.70
-16.29
-10.95
-5.32
0.05
4.79
8.72
11.76
13.85
14.96
15.11
14.40
13.02
11.28
9.52
8.03
6.95
6.26
5.78
5.27
4.56
3.57
2.40
1.18
0.08
-0.88
-1.83
-3.04
-4.81
-7.38
-10.74
-14.59
-18.27
-21.01
-22.09
-21.13
-18.18
-13.66
-8.27
-2.65
2.70
7.48
11.50
14.62
16.65
17.46
17.06
15.67
13.72
11.69
9.96
8.67
7.76
7.01
6.22
5.30
4.29
3.32
2.50
1.87
1.30
0.60
-0.52
-2.31
-4.87
-8.10
-11.59
-14.74
-16.86
-17.33
-15.90
-12.66
-8.11
-2.87
2.44
7.37
11.65
15.08
17.49
18.68
18.59
17.37
15.39
13.18
11.18
9.65
8.54
7.66
6.80
5.86
4.92
4.13
3.54
3.10
2.57
1.68
0.21
-1.98
-4.85
-8.28
-11.96
-15.41
-18.01
-19.12
-18.23
-15.27
-10.62
-5.06
0.53
5.39
9.15
11.76
13.40
14.25
14.45
14.04
13.07
11.63
9.90
8.08
6.32
4.69
3.18
1.82
0.62
-0.37
-1.10
-1.64
-2.14
-2.91
-4.28
-6.53
-9.75
-13.73
-17.95
-21.70
-24.18
-24.78
-23.20
-19.58
-14.47
-8.66
-2.95
2.07
6.10
9.06
11.02
12.02
12.08
11.24
9.68
7.69
5.70
4.02
2.78
1.91
1.18
0.46
-0.28
-0.95
-1.43
-1.72
-1.95
-2.42
-3.46
-5.35
-8.19
-11.86
-15.95
-19.81
-22.70
-23.98
-23.24
-20.54
-16.26
-11.07
-5.65
-0.55
3.90
7.54
10.32
12.19
13.15
13.23
12.54
11.32
9.84
8.32
6.94
5.77
4.79
3.99
3.32
2.75
2.28
1.85
1.39
0.76
-0.16
-1.53
-3.50
-6.17
-9.53
-13.41
-17.41
-20.95
-23.35
-24.02
-22.61
-19.16
-14.08
-8.07
-1.88
3.84
8.68
12.46
15.18
16.88
17.62
17.48
16.57
15.08
13.32
11.58
10.17
9.21
8.72
8.53
8.42
8.15
7.61
6.81
5.83
4.83
3.86
2.90
1.77
0.20
-2.09
-5.25
-9.20
-13.55
-17.63
-20.68
-22.01
-21.28
-18.52
-14.19
-8.94
-3.45
1.69
6.13
9.69
12.29
13.92
14.61
14.43
13.52
12.17
10.68
9.36
8.44
7.92
7.68
7.50
7.20
6.74
6.21
5.76
5.47
5.28
4.97
4.30
3.10
1.35
-0.86
-3.40
-6.15
-8.94
-11.57
-13.67
-14.85
-14.74
-13.14
-10.16
-6.13
-1.54
3.09
7.38
11.02
13.84
15.72
16.58
16.42
15.36
13.65
11.63
9.67
8.08
7.00
6.41
6.12
5.87
5.44
4.79
3.99
3.20
2.57
2.11
1.65
0.94
-0.30
-2.23
-4.87
-8.13
-11.77
-15.40
-18.53
-20.57
-20.96
-19.43
-16.05
-11.30
-5.88
-0.51
4.29
8.24
11.24
13.29
14.36
14.44
13.60
12.03
10.06
8.11
6.52
5.50
5.03
4.87
4.67
4.14
3.17
1.86
0.44
-0.85
-1.94
-2.94
-4.09
-5.60
-7.58
-10.03
-12.90
-16.06
-19.35
-22.46
-24.89
-26.07
-25.46
-22.83
-18.40
-12.78
-6.76
-1.06
3.82
7.70
10.60
12.58
13.71
14.02
13.60
12.58
11.24
9.90
8.83
8.19
7.95
7.94
7.92
7.72
7.21
6.39
5.33
4.10
2.79
1.40
-0.11
-1.81
-3.81
-6.25
-9.22
-12.74
-16.64
-20.56
-23.89
-26.00
-26.34
-24.68
-21.13
-16.19
-10.49
-4.69
0.69
5.31
9.00
11.72
13.46
14.25
14.19
13.44
12.23
10.84
9.55
8.58
8.07
7.97
8.19
8.52
8.78
8.79
8.44
7.67
6.48
4.95
3.20
1.38
-0.41
-2.14
-3.92
-5.86
-8.16
-10.92
-14.09
-17.46
-20.52
-22.67
-23.28
-21.98
-18.76
-14.03
-8.47
-2.81
2.35
6.70
10.13
12.67
14.36
15.22
15.31
14.76
13.80
12.66
11.60
10.77
10.22
9.93
9.84
9.86
9.93
9.97
9.91
9.66
9.13
8.25
7.00
5.42
3.61
1.73
-0.08
-1.78
-3.45
-5.32
-7.65
-10.58
-14.03
-17.57
-20.56
-22.31
-22.32
-20.41
-16.79
-11.98
-6.58
-1.21
3.67
7.74
10.86
13.02
14.28
14.73
14.45
13.50
12.03
10.22
8.36
6.76
5.66
5.10
4.97
5.03
5.05
4.87
4.46
3.85
3.14
2.38
1.60
0.78
-0.15
-1.29
-2.79
-4.73
-7.18
-10.07
-13.19
-16.16
-18.49
-19.65
-19.21
-17.01
-13.20
-8.26
-2.87
2.30
6.72
10.15
12.53
13.98
14.62
14.51
13.72
12.32
10.46
8.42
6.50
4.97
3.97
3.48
3.30
3.19
2.93
2.41
1.61
0.62
-0.45
-1.55
-2.66
-3.82
-5.15
-6.79
-8.89
-11.59
-14.88
-18.54
-22.11
-24.98
-26.52
-26.31
-24.27
-20.63
-15.88
-10.58
-5.27
-0.35
3.91
7.30
9.74
11.22
11.77
11.51
10.62
9.29
7.76
6.26
4.97
4.00
3.34
2.93
2.66
2.47
2.34
2.23
2.06
1.70
1.03
-0.04
-1.47
-3.11
-4.83
-6.60
-8.52
-10.83
-13.71
-17.13
-20.75
-23.93
-25.94
-26.19
-24.46
-20.95
-16.23
-11.00
-5.86
-1.22
2.78
6.11
8.83
10.95
12.45
13.33
13.60
13.35
12.72
11.84
10.87
9.94
9.14
8.51
8.01
7.56
7.06
6.43
5.66
4.74
3.65
2.38
0.90
-0.79
-2.63
-4.59
-6.65
-8.92
-11.56
-14.68
-18.18
-21.67
-24.49
-25.93
-25.46
-22.95
-18.71
-13.36
-7.64
-2.17
2.66
6.63
9.67
11.78
13.01
13.47
13.35
12.88
12.26
11.63
11.01
10.41
9.80
9.18
8.61
8.15
7.83
7.62
7.44
7.12
6.50
5.49
4.13
2.56
0.95
-0.59
-2.05
-3.59
-5.46
-7.88
-10.97
-14.59
-18.38
-21.71
-23.91
-24.39
-22.89
-19.52
-14.76
-9.28
-3.76
1.25
5.44
8.71
11.12
12.80
13.86
14.35
14.30
13.72
12.71
11.47
10.30
9.48
9.21
9.52
10.21
10.97
11.51
11.59
11.18
10.31
9.11
7.70
6.16
4.55
2.94
1.35
-0.28
-2.12
-4.44
-7.48
-11.27
-15.50
-19.51
-22.42
-23.52
-22.38
-19.11
-14.20
-8.43
-2.57
2.76
7.12
10.34
12.43
13.51
13.81
13.55
12.92
12.08
11.17
10.28
9.54
9.01
8.70
8.57
8.52
8.48
8.36
8.14
7.74
7.04
5.99
4.56
2.84
0.99
-0.87
-2.77
-4.91
-7.55
-10.89
-14.82
-18.86
-22.27
-24.26
-24.28
-22.14
-18.14
-12.85
-7.01
-1.27
3.85
8.04
11.15
13.16
14.10
14.09
13.30
11.95
10.29
8.63
7.22
6.25
5.78
5.68
5.69
5.51
4.93
3.91
2.58
1.16
-0.20
-1.44
-2.65
-4.01
-5.63
-7.62
-10.01
-12.83
-16.09
-19.76
-23.61
-27.19
-29.80
-30.74
-29.46
-25.85
-20.27
-13.53
-6.59
-0.36
4.62
8.21
10.62
12.20
13.23
13.83
13.91
13.41
12.35
10.94
9.54
8.48
7.93
7.85
8.03
8.20
8.13
7.75
7.06
6.13
4.96
3.54
1.82
-0.21
-2.54
-5.12
-7.92
-11.00
-14.51
-18.51
-22.87
-27.12
-30.51
-32.24
-31.69
-28.74
-23.78
-17.55
-10.89
-4.49
1.24
6.11
10.07
13.07
15.09
16.14
16.37
16.01
15.30
14.48
13.65
12.85
12.09
11.41
10.89
10.60
10.52
10.51
10.38
9.93
9.03
7.69
6.01
4.16
2.29
0.47
-1.30
-3.16
-5.30
-7.96
-11.28
-15.17
-19.28
-23.00
-25.56
-26.29
-24.84
-21.27
-16.07
-9.97
-3.74
1.99
6.85
10.67
13.49
15.37
16.44
16.82
16.67
16.18
15.56
14.98
14.55
14.30
14.16
14.09
14.03
13.99
13.96
13.89
13.65
13.06
11.99
10.43
8.49
6.39
4.31
2.31
0.28
-1.96
-4.62
-7.84
-11.61
-15.76
-19.91
-23.44
-25.63
-25.82
-23.66
-19.31
-13.35
-6.71
-0.22
5.49
10.18
13.83
16.57
18.44
19.45
19.60
18.97
17.71
16.06
14.29
12.63
11.27
10.28
9.65
9.24
8.93
8.56
8.04
7.36
6.50
5.49
4.26
2.80
1.08
-0.86
-3.01
-5.39
-8.11
-11.34
-15.11
-19.23
-23.15
-26.11
-27.28
-26.14
-22.62
-17.16
-10.55
-3.68
2.66
8.05
12.32
15.51
17.76
19.12
19.65
19.36
18.38
16.91
15.23
13.60
12.17
10.98
9.99
9.12
8.36
7.71
7.12
6.50
5.64
4.36
2.58
0.38
-2.05
-4.48
-6.81
-9.11
-11.60
-14.60
-18.31
-22.70
-27.37
-31.57
-34.36
-34.91
-32.79
-28.15
-21.69
-14.41
-7.33
-1.15
3.79
7.46
10.03
11.68
12.60
12.96
12.93
12.67
12.29
11.83
11.31
10.74
10.15
9.57
9.07
8.64
8.28
7.93
7.54
7.01
6.24
5.13
3.64
1.85
-0.14
-2.19
-4.27
-6.45
-8.95
-12.01
-15.71
-19.90
-24.06
-27.44
-29.22
-28.78
-25.89
-20.76
-14.05
-6.63
0.63
7.07
12.29
16.19
18.87
20.52
21.40
21.67
21.49
20.91
19.95
18.65
17.10
15.49
14.04
12.95
12.30
11.99
11.82
11.53
10.96
10.05
8.89
7.57
6.14
4.54
2.67
0.47
-2.12
-5.08
-8.38
-12.03
-15.95
-19.91
-23.43
-25.83
-26.44
-24.81
-20.93
-15.27
-8.62
-1.85
4.38
9.66
13.86
16.97
19.02
20.02
20.02
19.18
17.76
16.11
14.58
13.43
12.72
12.37
12.15
11.83
11.22
10.28
9.07
7.75
6.41
5.12
3.85
2.53
1.06
-0.64
-2.69
-5.22
-8.31
-11.94
-15.90
-19.74
-22.84
-24.56
-24.48
-22.49
-18.81
-13.95
-8.50
-3.01
2.07
6.41
9.77
11.97
12.98
12.89
11.96
10.55
9.08
7.89
7.17
6.91
6.95
7.03
6.92
6.50
5.78
4.88
3.94
3.06
2.24
1.39
0.33
-1.16
-3.31
-6.27
-10.05
-14.40
-18.83
-22.63
-25.07
-25.61
-24.03
-20.59
-15.82
-10.42
-4.96
0.12
4.63
8.44
11.46
13.58
14.73
14.88
14.19
12.91
11.34
9.80
8.51
7.56
6.95
6.52
6.12
5.61
4.92
4.05
3.05
1.91
0.53
-1.18
-3.31
-5.82
-8.63
-11.69
-14.99
-18.52
-22.18
-25.63
-28.23
-29.28
-28.24
-25.01
-19.97
-13.90
-7.60
-1.74
3.36
7.64
11.17
14.00
16.05
17.24
17.51
16.95
15.79
14.33
12.89
11.67
10.73
10.00
9.37
8.72
8.01
7.28
6.52
5.72
4.78
3.55
1.92
-0.12
-2.52
-5.16
-7.97
-11.02
-14.40
-18.17
-22.16
-25.86
-28.58
-29.62
-28.55
-25.35
-20.43
-14.47
-8.20
-2.21
3.13
7.64
11.29
14.12
16.15
17.47
18.12
18.21
17.84
17.14
16.25
15.33
14.50
13.86
13.41
13.13
12.91
12.65
12.21
11.49
10.40
8.91
7.08
5.05
2.97
0.95
-1.04
-3.16
-5.67
-8.77
-12.54
-16.78
-21.04
-24.68
-27.00
-27.46
-25.80
-22.13
-16.92
-10.81
-4.49
1.52
6.84
11.28
14.73
17.15
18.56
19.08
18.98
18.55
18.08
17.74
17.51
17.33
17.10
16.83
16.60
16.53
16.68
16.99
17.27
17.28
16.79
15.69
14.02
11.92
9.60
7.21
4.81
2.29
-0.55
-3.97
-8.09
-12.79
-17.67
-22.07
-25.24
-26.53
-25.65
-22.70
-18.18
-12.79
-7.25
-2.10
2.30
5.84
8.51
10.34
11.32
11.46
10.83
9.55
7.86
6.05
4.37
3.01
2.02
1.40
1.12
1.12
1.34
1.66
1.88
1.83
1.38
0.53
-0.63
-1.92
-3.27
-4.72
-6.51
-8.88
-11.98
-15.63
-19.34
-22.35
-23.92
-23.53
-21.08
-16.89
-11.60
-5.89
-0.33
4.71
9.01
12.43
14.86
16.20
16.41
15.64
14.21
12.49
10.84
9.46
8.37
7.44
6.49
5.40
4.15
2.79
1.39
0.02
-1.32
-2.63
-3.95
-5.33
-6.87
-8.72
-11.09
-14.12
-17.78
-21.72
-25.35
-27.93
-28.80
-27.65
-24.54
-19.92
-14.42
-8.64
-3.02
2.19
6.82
10.72
13.67
15.47
16.06
15.55
14.26
12.60
11.01
9.79
9.02
8.66
8.49
8.30
7.90
7.18
6.15
4.87
3.43
1.89
0.27
-1.52
-3.56
-5.99
-8.94
-12.44
-16.40
-20.52
-24.28
-26.99
-28.05
-27.08
-24.10
-19.54
-14.05
-8.30
-2.77
2.25
6.67
10.43
13.46
15.67
16.96
17.28
16.71
15.45
13.80
12.12
10.76
9.89
9.47
9.30
9.05
8.46
7.42
6.02
4.42
2.79
1.17
-0.51
-2.35
-4.45
-6.87
-9.68
-12.92
-16.56
-20.40
-23.96
-26.59
-27.57
-26.42
-23.08
-17.99
-11.90
-5.67
0.02
4.75
8.37
10.93
12.52
13.24
13.20
12.59
11.61
10.52
9.53
8.77
8.28
7.97
7.76
7.51
7.17
6.71
6.14
5.49
4.77
3.99
3.10
2.05
0.79
-0.75
-2.69
-5.18
-8.32
-12.10
-16.21
-20.08
-22.92
-23.99
-22.84
-19.51
-14.48
-8.51
-2.32
3.53
8.73
13.14
16.67
19.21
20.68
21.04
20.41
19.07
17.40
15.78
14.45
13.50
12.78
12.07
11.19
10.11
8.94
7.84
6.90
6.07
5.13
3.82
1.97
-0.47
-3.42
-6.78
-10.45
-14.32
-18.15
-21.49
-23.77
-24.41
-23.11
-19.97
-15.43
-10.17
-4.80
0.23
4.67
8.41
11.32
13.26
14.14
14.00
13.06
11.68
10.23
8.99
8.08
7.45
6.95
6.43
5.78
4.96
3.98
2.90
1.78
0.65
-0.51
-1.75
-3.20
-5.02
-7.40
-10.44
-14.04
-17.84
-21.23
-23.51
-24.11
-22.81
-19.74
-15.34
-10.17
-4.71
0.69
5.81
10.40
14.19
16.90
18.38
18.63
17.85
16.41
14.67
12.96
11.45
10.21
9.18
8.26
7.34
6.36
5.35
4.36
3.48
2.75
2.10
1.35
0.24
-1.48
-4.02
-7.41
-11.49
-15.87
-19.96
-23.09
-24.59
-24.04
-21.39
-17.01
-11.62
-6.03
-0.94
3.30
6.63
9.19
11.11
12.39
12.91
12.53
11.29
9.47
7.54
5.95
4.97
4.63
4.73
5.00
5.22
5.29
5.18
4.85
4.25
3.30
1.99
0.36
-1.45
-3.32
-5.22
-7.23
-9.49
-12.06
-14.80
-17.31
-19.04
-19.44
-18.13
-15.07
-10.57
-5.20
0.35
5.46
9.71
12.86
14.89
15.89
16.00
15.33
14.02
12.24
10.24
8.26
6.51
5.11
4.01
3.09
2.25
1.42
0.69
0.14
-0.16
-0.23
-0.15
-0.05
-0.03
-0.16
-0.58
-1.47
-3.03
-5.36
-8.36
-11.63
-14.58
-16.54
-17.00
-15.77
-12.99
-9.05
-4.54
-0.01
4.11
7.58
10.32
12.37
13.82
14.73
15.09
14.90
14.14
12.94
11.50
10.11
9.02
8.30
7.89
7.55
7.05
6.29
5.26
4.12
3.02
2.06
1.16
0.15
-1.20
-3.07
-5.56
-8.59
-11.96
-15.34
-18.31
-20.46
-21.37
-20.81
-18.73
-15.34
-11.06
-6.38
-1.78
2.38
5.88
8.59
10.47
11.49
11.68
11.09
9.94
8.46
6.93
5.59
4.58
3.92
3.50
3.14
2.69
2.05
1.29
0.57
0.04
-0.26
-0.49
-0.94
-1.94
-3.65
-6.08
-9.00
-12.06
-14.85
-16.91
-17.85
-17.37
-15.40
-12.13
-8.09
-3.89
-0.12
2.89
5.10
6.62
7.61
8.11
8.10
7.55
6.59
5.47
4.50
3.89
3.67
3.70
3.71
3.47
2.90
2.03
1.03
0.07
-0.80
-1.63
-2.60
-3.94
-5.80
-8.23
-11.10
-14.07
-16.69
-18.43
-18.84
-17.70
-15.07
-11.34
-7.06
-2.79
1.06
4.25
6.70
8.43
9.39
9.59
9.04
7.87
6.29
4.59
3.04
1.80
0.92
0.34
-0.05
-0.33
-0.57
-0.77
-0.88
-0.96
-1.08
-1.41
-2.14
-3.45
-5.37
-7.76
-10.30
-12.57
-14.15
-14.67
-13.97
-12.04
-9.06
-5.34
-1.31
2.62
6.09
8.84
10.74
11.74
11.90
11.34
10.20
8.71
7.16
5.80
4.84
4.30
4.03
3.84
3.54
3.09
2.53
1.96
1.43
0.89
0.25
-0.60
-1.73
-3.18
-4.98
-7.11
-9.38
-11.44
-12.76
-12.82
-11.27
-8.20
-4.04
0.56
4.95
8.72
11.66
13.78
15.12
15.70
15.57
14.82
13.69
12.44
11.34
10.52
9.95
9.46
8.83
7.91
6.73
5.47
4.39
3.68
3.36
3.19
2.77
1.75
-0.07
-2.56
-5.33
-7.84
-9.61
-10.32
-9.87
-8.40
-6.12
-3.28
-0.18
2.93
5.79
8.12
9.75
10.57
10.66
10.19
9.42
8.56
7.76
7.02
6.28
5.47
4.56
3.56
2.56
1.59
0.71
-0.09
-0.87
-1.76
-2.90
-4.50
-6.67
-9.39
-12.47
-15.52
-18.06
-19.64
-19.95
-18.93
-16.72
-13.64
-10.08
-6.43
-3.01
-0.06
2.28
3.93
4.85
5.07
4.68
3.86
2.81
1.70
0.66
-0.33
-1.30
-2.28
-3.21
-3.97
-4.45
-4.66
-4.73
-4.93
-5.52
-6.71
-8.53
-10.91
-13.65
-16.48
-19.08
-21.03
-21.92
-21.47
-19.61
-16.52
-12.64
-8.50
-4.56
-1.12
1.66
3.78
5.21
5.93
5.92
5.22
4.00
2.57
1.30
0.46
0.17
0.28
0.49
0.47
0.04
-0.79
-1.79
-2.70
-3.35
-3.79
-4.25
-5.07
-6.57
-8.86
-11.79
-14.96
-17.81
-19.73
-20.23
-19.15
-16.64
-13.15
-9.24
-5.39
-1.91
1.13
3.72
5.84
7.39
8.19
8.22
7.58
6.59
5.62
4.93
4.56
4.42
4.27
3.97
3.48
2.90
2.35
1.91
1.52
1.05
0.31
-0.83
-2.45
-4.54
-7.02
-9.79
-12.71
-15.54
-17.94
-19.45
-19.65
-18.30
-15.47
-11.58
-7.25
-3.09
0.47
3.36
5.72
7.76
9.55
10.97
11.82
11.95
11.46
10.62
9.84
9.42
9.43
9.73
10.04
10.11
9.81
9.21
8.47
7.75
7.13
6.53
5.80
4.77
3.34
1.51
-0.67
-3.13
-5.80
-8.61
-11.40
-13.84
-15.53
-16.09
-15.27
-13.16
-10.09
-6.57
-3.04
0.22
3.16
5.78
8.07
9.94
11.23
11.87
11.88
11.46
10.86
10.27
9.84
9.64
9.68
9.93
10.35
10.81
11.12
11.09
10.63
9.73
8.54
7.20
5.83
4.49
3.08
1.47
-0.52
-3.05
-6.16
-9.77
-13.59
-17.14
-19.87
-21.22
-20.85
-18.72
-15.09
-10.52
-5.61
-0.90
3.26
6.80
9.76
12.18
14.05
15.29
15.82
15.71
15.19
14.55
14.08
13.91
13.99
14.19
14.38
14.50
14.51
14.43
14.24
13.87
13.27
12.39
11.24
9.87
8.33
6.67
4.87
2.86
0.53
-2.22
-5.31
-8.47
-11.19
-12.89
-13.13
-11.72
-8.86
-5.01
-0.70
3.54
7.32
10.39
12.61
13.99
14.59
14.58
14.14
13.45
12.55
11.46
10.21
8.87
7.59
6.53
5.76
5.24
4.84
4.46
4.03
3.55
3.01
2.34
1.41
0.06
-1.79
-4.15
-6.98
-10.12
-13.41
-16.55
-19.14
-20.76
-20.99
-19.66
-16.86
-12.97
-8.51
-4.01
0.11
3.64
6.47
8.60
10.03
10.80
10.90
10.41
9.44
8.18
6.84
5.61
4.59
3.78
3.12
2.52
1.95
1.42
0.92
0.42
-0.20
-1.11
-2.49
-4.40
-6.80
-9.55
-12.50
-15.52
-18.55
-21.50
-24.14
-26.15
-27.03
-26.42
-24.14
-20.41
-15.73
-10.71
-5.92
-1.67
1.97
5.05
7.61
9.61
10.92
11.45
11.22
10.37
9.15
7.80
6.55
5.55
4.84
4.38
4.06
3.73
3.27
2.61
1.76
0.72
-0.47
-1.81
-3.31
-4.98
-6.83
-8.89
-11.22
-13.93
-17.03
-20.35
-23.53
-26.00
-27.14
-26.55
-24.10
-20.05
-14.93
-9.40
-4.03
0.75
4.76
7.97
10.46
12.33
13.65
14.45
14.76
14.65
14.20
13.52
12.76
12.03
11.41
10.95
10.66
10.44
10.16
9.68
8.87
7.69
6.17
4.39
2.41
0.28
-1.97
-4.36
-6.93
-9.74
-12.83
-16.13
-19.45
-22.34
-24.30
-24.81
-23.57
-20.59
-16.17
-10.80
-5.05
0.57
5.65
9.91
13.19
15.43
16.71
17.18
17.08
16.69
16.23
15.87
15.68
15.62
15.59
15.51
15.29
14.92
14.37
13.62
12.65
11.38
9.77
7.80
5.50
2.97
0.36
-2.21
-4.69
-7.12
-9.66
-12.52
-15.84
-19.51
-23.15
-26.14
-27.80
-27.61
-25.46
-21.59
-16.56
-10.96
-5.29
0.12
5.05
9.33
12.75
15.17
16.55
17.02
16.88
16.46
16.01
15.67
15.42
15.22
15.06
14.93
14.86
14.83
14.79
14.64
14.30
13.71
12.90
11.90
10.75
9.46
8.03
6.43
4.59
2.45
-0.11
-3.14
-6.57
-10.18
-13.49
-15.91
-16.90
-16.16
-13.70
-9.90
-5.32
-0.53
4.05
8.18
11.78
14.78
17.07
18.47
18.83
18.11
16.51
14.40
12.23
10.37
8.99
8.08
7.51
7.12
6.80
6.51
6.17
5.75
5.19
4.41
3.41
2.20
0.76
-0.94
-2.97
-5.41
-8.27
-11.52
-14.94
-18.18
-20.79
-22.28
-22.26
-20.54
-17.27
-12.83
-7.79
-2.74
1.87
5.77
8.82
11.00
12.33
12.80
12.49
11.51
10.10
8.54
7.13
6.09
5.50
5.27
5.18
4.98
4.47
3.56
2.27
0.72
-0.93
-2.62
-4.32
-6.09
-8.04
-10.31
-13.03
-16.26
-19.93
-23.77
-27.31
-29.92
-31.01
-30.20
-27.44
-23.07
-17.71
-12.06
-6.75
-2.16
1.55
4.42
6.60
8.19
9.25
9.74
9.68
9.13
8.27
7.36
6.63
6.22
6.06
5.95
5.63
4.95
3.91
2.66
1.41
0.25
-0.84
-1.97
-3.32
-4.97
-6.97
-9.29
-11.96
-15.00
-18.34
-21.79
-24.87
-26.98
-27.53
-26.20
-23.03
-18.44
-13.08
-7.60
-2.47
2.03
5.82
8.91
11.29
12.95
13.87
14.07
13.68
12.87
11.90
10.98
10.29
9.89
9.73
9.70
9.63
9.37
8.80
7.93
6.81
5.51
4.11
2.62
0.97
-0.88
-3.04
-5.58
-8.59
-12.11
-16.03
-20.06
-23.63
-26.09
-26.85
-25.59
-22.42
-17.78
-12.34
-6.73
-1.42
3.33
7.47
10.98
13.88
16.11
17.62
18.37
18.36
17.69
16.56
15.26
14.07
13.20
12.74
12.63
12.73
12.83
12.74
12.30
11.45
10.19
8.63
6.90
5.11
3.29
1.38
-0.75
-3.23
-6.15
-9.51
-13.25
-17.17
-20.94
-24.05
-25.94
-26.09
-24.19
-20.35
-15.02
-8.95
-2.89
2.56
7.09
10.64
13.29
15.17
16.40
17.07
17.30
17.16
16.75
16.18
15.53
14.89
14.34
13.89
13.54
13.26
13.00
12.68
12.22
11.57
10.65
9.46
7.99
6.32
4.53
2.67
0.75
-1.29
-3.56
-6.16
-9.14
-12.41
-15.63
-18.37
-20.06
-20.25
-18.72
-15.55
-11.09
-5.87
-0.44
4.76
9.43
13.37
16.45
18.54
19.55
19.53
18.67
17.27
15.71
14.29
13.20
12.48
12.04
11.75
11.50
11.18
10.75
10.14
9.30
8.19
6.85
5.36
3.82
2.29
0.76
-0.86
-2.74
-5.08
-7.99
-11.47
-15.29
-18.96
-21.86
-23.34
-22.92
-20.46
-16.28
-11.01
-5.45
-0.32
3.99
7.34
9.85
11.66
12.82
13.31
13.06
12.10
10.59
8.84
7.18
5.85
4.99
4.55
4.36
4.24
4.05
3.67
3.08
2.24
1.16
-0.15
-1.70
-3.43
-5.31
-7.30
-9.47
-11.95
-14.92
-18.49
-22.50
-26.51
-29.83
-31.72
-31.66
-29.48
-25.47
-20.21
-14.42
-8.75
-3.63
0.74
4.31
7.17
9.35
10.88
11.77
12.01
11.62
10.71
9.50
8.24
7.19
6.53
6.32
6.48
6.79
7.01
6.93
6.41
5.43
4.01
2.28
0.31
-1.77
-3.91
-6.07
-8.35
-10.87
-13.86
-17.40
-21.40
-25.42
-28.79
-30.76
-30.76
-28.58
-24.43
-18.94
-12.85
-6.90
-1.60
2.80
6.26
8.86
10.71
11.86
12.38
12.35
11.91
11.26
10.64
10.22
10.08
10.19
10.40
10.60
10.65
10.49
10.08
9.43
8.54
7.40
5.99
4.29
2.29
0.01
-2.55
-5.40
-8.61
-12.26
-16.33
-20.53
-24.33
-27.02
-27.92
-26.66
-23.31
-18.34
-12.47
-6.40
-0.65
4.55
9.08
12.91
15.92
17.98
19.02
19.09
18.42
17.32
16.10
14.96
13.98
13.08
12.24
11.47
10.85
10.49
10.38
10.36
10.22
9.78
8.94
7.76
6.36
4.81
3.11
1.14
-1.23
-4.08
-7.42
-11.14
-15.03
-18.74
-21.85
-23.83
-24.22
-22.75
-19.48
-14.79
-9.33
-3.78
1.34
5.77
9.46
12.45
14.82
16.52
17.53
17.84
17.57
16.94
16.19
15.52
15.00
14.61
14.33
14.17
14.11
14.11
14.06
13.76
13.03
11.79
10.11
8.15
6.09
4.03
1.89
-0.51
-3.40
-6.89
-10.87
-14.97
-18.55
-20.93
-21.56
-20.20
-17.05
-12.63
-7.63
-2.65
1.92
5.91
9.30
12.14
14.38
15.93
16.68
16.58
15.70
14.26
12.57
10.98
9.79
9.09
8.80
8.61
8.22
7.38
6.03
4.29
2.39
0.52
-1.22
-2.92
-4.76
-6.97
-9.75
-13.16
-17.09
-21.26
-25.22
-28.38
-30.16
-30.13
-28.16
-24.46
-19.57
-14.15
-8.80
-3.89
0.40
4.09
7.18
9.61
11.27
12.02
11.89
11.03
9.77
8.41
7.19
6.23
5.51
4.97
4.51
4.05
3.53
2.87
1.98
0.83
-0.63
-2.35
-4.29
-6.37
-8.61
-11.09
-13.97
-17.41
-21.40
-25.69
-29.75
-32.84
-34.22
-33.41
-30.34
-25.44
-19.41
-13.03
-6.91
-1.42
3.34
7.35
10.63
13.12
14.77
15.60
15.70
15.25
14.47
13.57
12.75
12.12
11.73
11.52
11.40
11.22
10.88
10.29
9.51
8.55
7.41
6.02
4.25
2.03
-0.66
-3.78
-7.26
-11.05
-15.10
-19.22
-23.04
-25.97
-27.36
-26.71
-23.94
-19.37
-13.66
-7.54
-1.59
3.84
8.63
12.77
16.22
18.93
20.79
21.72
21.76
21.04
19.80
18.33
16.94
15.82
15.09
14.72
14.57
14.46
14.18
13.60
12.67
11.44
10.02
8.53
7.05
5.60
4.10
2.45
0.46
-2.08
-5.32
-9.27
-13.62
-17.76
-20.89
-22.26
-21.43
-18.44
-13.81
-8.28
-2.58
2.77
7.49
11.45
14.57
16.79
18.05
18.41
18.02
17.13
15.99
14.84
13.79
12.95
12.30
11.82
11.41
10.96
10.33
9.47
8.37
7.10
5.75
4.38
3.00
1.50
-0.25
-2.46
-5.29
-8.84
-13.00
-17.42
-21.45
-24.35
-25.46
-24.42
-21.32
-16.67
-11.17
-5.54
-0.29
4.29
8.08
11.03
13.09
14.20
14.36
13.72
12.53
11.11
9.76
8.68
7.92
7.38
6.88
6.21
5.27
4.06
2.68
1.28
-0.04
-1.31
-2.63
-4.20
-6.20
-8.76
-11.91
-15.56
-19.51
-23.38
-26.71
-28.94
-29.59
-28.43
-25.53
-21.25
-16.15
-10.75
-5.46
-0.53
3.82
7.42
10.04
11.55
11.98
11.53
10.53
9.34
8.23
7.35
6.74
6.33
6.03
5.71
5.21
4.46
3.41
2.12
0.68
-0.81
-2.31
-3.85
-5.56
-7.62
-10.21
-13.45
-17.30
-21.51
-25.56
-28.75
-30.38
-30.00
-27.60
-23.55
-18.53
-13.20
-8.02
-3.22
1.21
5.24
8.78
11.64
13.65
14.77
15.14
15.03
14.70
14.32
13.89
13.35
12.62
11.71
10.68
9.61
8.55
7.46
6.26
4.89
3.35
1.66
-0.16
-2.14
-4.36
-6.96
-10.08
-13.77
-17.92
-22.21
-26.10
-28.96
-30.19
-29.46
-26.78
-22.48
-17.12
-11.27
-5.44
0.01
4.85
8.83
11.81
13.69
14.48
14.34
13.50
12.23
10.80
9.44
8.38
7.74
7.60
7.86
8.33
8.78
9.00
8.90
8.50
7.83
6.94
5.79
4.40
2.78
1.04
-0.76
-2.63
-4.70
-7.14
-9.95
-12.84
-15.19
-16.26
-15.47
-12.61
-7.97
-2.19
3.99
9.97
15.37
20.05
23.94
26.99
29.12
30.28
30.57
30.17
29.38
28.48
27.73
27.27
27.11
27.16
27.29
27.31
27.09
26.47
25.36
23.66
21.35
18.49
15.20
11.65
7.97
4.23
0.35
-3.78
-8.18
-12.71
-17.00
-20.52
-22.78
-23.48
-22.58
-20.32
-17.04
-13.11
-8.83
-4.44
-0.14
3.76
6.90
8.93
9.56
8.75
6.72
3.90
0.79
-2.12
-4.52
-6.25
-7.34
-7.86
-7.91
-7.54
-6.83
-5.83
-4.66
-3.49
-2.56
-2.09
-2.30
-3.30
-5.10
-7.63
-10.69
-14.01
-17.23
-19.89
-21.47
-21.57
-19.95
-16.71
-12.26
-7.25
-2.30
2.13
5.85
8.85
11.16
12.74
13.49
13.31
12.29
10.67
8.87
7.25
6.01
5.14
4.46
3.73
2.79
1.63
0.34
-0.94
-2.17
-3.35
-4.57
-5.97
-7.65
-9.71
-12.22
-15.22
-18.69
-22.44
-26.10
-29.12
-30.94
-31.09
-29.40
-26.04
-21.43
-16.12
-10.65
-5.42
-0.67
3.43
6.78
9.34
11.08
12.02
12.25
11.89
11.13
10.16
9.13
8.16
7.25
6.38
5.51
4.63
3.75
2.88
1.98
0.96
-0.24
-1.70
-3.46
-5.52
-7.93
-10.75
-14.03
-17.73
-21.60
-25.18
-27.84
-29.01
-28.30
-25.71
-21.55
-16.42
-10.90
-5.48
-0.45
4.04
7.90
11.04
13.36
14.79
15.36
15.15
14.34
13.16
11.82
10.55
9.55
8.89
8.55
8.37
8.15
7.69
6.89
5.75
4.35
2.77
1.07
-0.72
-2.64
-4.75
-7.15
-9.92
-13.11
-16.65
-20.37
-23.88
-26.67
-28.17
-27.91
-25.68
-21.64
-16.28
-10.28
-4.32
1.08
5.65
9.26
11.91
13.63
14.52
14.68
14.36
13.79
13.19
12.67
12.21
11.75
11.23
10.65
10.10
9.70
9.49
9.49
9.59
9.65
9.54
9.09
8.22
6.88
5.12
2.98
0.52
-2.27
-5.45
-9.00
-12.74
-16.26
-18.95
-20.22
-19.68
-17.30
-13.47
-8.81
-3.91
0.79
5.08
8.92
12.27
15.06
17.17
18.54
19.18
19.22
18.87
18.32
17.75
17.26
16.91
16.67
16.49
16.27
15.94
15.45
14.80
14.01
13.09
12.05
10.86
9.54
8.12
6.62
5.01
3.17
0.87
-2.13
-5.93
-10.31
-14.78
-18.59
-20.98
-21.41
-19.78
-16.43
-12.00
-7.19
-2.57
1.61
5.29
8.55
11.41
13.75
15.37
16.09
15.85
14.82
13.31
11.72
10.37
9.34
8.56
7.82
6.96
5.93
4.79
3.65
2.59
1.63
0.69
-0.31
-1.46
-2.86
-4.57
-6.67
-9.24
-12.26
-15.59
-18.89
-21.69
-23.42
-23.64
-22.14
-19.09
-14.89
-10.12
-5.29
-0.75
3.34
6.89
9.85
12.08
13.43
13.85
13.41
12.34
10.95
9.51
8.21
7.13
6.25
5.49
4.76
3.97
3.07
2.05
0.94
-0.18
-1.29
-2.42
-3.70
-5.31
-7.42
-10.13
-13.49
-17.37
-21.58
-25.72
-29.23
-31.52
-32.03
-30.54
-27.20
-22.51
-17.17
-11.81
-6.80
-2.31
1.66
5.07
7.82
9.78
10.87
11.19
10.97
10.48
9.97
9.54
9.21
8.91
8.57
8.09
7.43
6.56
5.50
4.33
3.11
1.84
0.47
-1.12
-3.06
-5.41
-8.17
-11.31
-14.82
-18.66
-22.70
-26.58
-29.76
-31.56
-31.49
-29.38
-25.49
-20.37
-14.70
-9.00
-3.59
1.37
5.75
9.40
12.11
13.76
14.39
14.17
13.43
12.48
11.57
10.81
10.25
9.87
9.61
9.40
9.12
8.70
8.05
7.21
6.22
5.18
4.09
2.87
1.40
-0.44
-2.71
-5.37
-8.40
-11.76
-15.42
-19.30
-23.07
-26.21
-28.07
-28.09
-26.03
-22.11
-16.88
-11.05
-5.27
0.06
4.73
8.68
11.87
14.21
15.62
16.08
15.70
14.73
13.49
12.29
11.32
10.65
10.21
9.88
9.57
9.23
8.88
8.53
8.14
7.62
6.84
5.69
4.20
2.49
0.69
-1.10
-2.92
-5.00
-7.60
-10.92
-14.93
-19.25
-23.24
-26.15
-27.34
-26.47
-23.60
-19.14
-13.74
-8.03
-2.51
2.54
7.03
10.97
14.34
17.05
19.00
20.07
20.28
19.77
18.79
17.62
16.54
15.76
15.39
15.44
15.84
16.42
16.97
17.22
16.96
16.08
14.60
12.66
10.50
8.36
6.33
4.34
2.14
-0.56
-3.99
-8.13
-12.67
-16.99
-20.41
-22.31
-22.35
-20.49
-17.01
-12.37
-7.10
-1.72
3.38
7.92
11.69
14.57
16.45
17.29
17.12
16.11
14.56
12.81
11.19
9.91
9.04
8.52
8.18
7.89
7.54
7.08
6.47
5.70
4.70
3.43
1.86
-0.01
-2.17
-4.57
-7.20
-10.10
-13.33
-16.91
-20.66
-24.17
-26.83
-27.97
-27.12
-24.19
-19.56
-13.89
-7.98
-2.42
2.46
6.57
9.93
12.55
14.36
15.30
15.36
14.70
13.57
12.26
10.99
9.84
8.79
7.76
6.72
5.70
4.76
3.95
3.22
2.45
1.48
0.20
-1.43
-3.40
-5.68
-8.32
-11.43
-15.16
-19.54
-24.34
-29.02
-32.80
-34.87
-34.66
-32.12
-27.66
-22.06
-16.09
-10.32
-4.98
-0.07
4.39
8.28
11.30
13.20
13.90
13.60
12.74
11.74
10.94
10.41
10.09
9.83
9.51
9.09
8.55
7.90
7.09
6.04
4.67
2.97
0.94
-1.34
-3.82
-6.54
-9.61
-13.25
-17.62
-22.65
-27.97
-32.85
-36.39
-37.80
-36.67
-33.09
-27.64
-21.16
-14.42
-8.01
-2.16
3.08
7.73
11.73
14.94
17.19
18.38
18.61
18.07
17.05
15.82
14.60
13.51
12.61
11.94
11.49
11.23
11.04
10.73
10.14
9.11
7.61
5.67
3.41
0.96
-1.61
-4.30
-7.20
-10.51
-14.40
-18.91
-23.79
-28.46
-32.07
-33.79
-33.03
-29.75
-24.38
-17.73
-10.63
-3.76
2.49
7.90
12.38
15.88
18.38
19.96
20.76
20.95
20.71
20.14
19.32
18.35
17.41
16.68
16.33
16.35
16.59
16.74
16.50
15.68
14.23
12.31
10.16
8.01
5.98
4.07
2.09
-0.22
-3.13
-6.85
-11.37
-16.48
-21.64
-26.13
-29.16
-30.06
-28.52
-24.66
-18.97
-12.21
-5.11
1.68
7.75
12.89
17.02
20.16
22.34
23.64
24.14
23.93
23.16
22.02
20.76
19.62
18.75
18.22
17.96
17.81
17.60
17.17
16.45
15.46
14.26
12.89
11.35
9.58
7.47
4.97
2.10
-1.09
-4.54
-8.26
-12.31
-16.65
-20.94
-24.57
-26.71
-26.63
-24.07
-19.37
-13.31
-6.85
-0.74
4.62
9.19
13.05
16.18
18.48
19.74
19.91
19.13
17.73
16.17
14.82
13.86
13.30
12.97
12.66
12.18
11.45
10.44
9.24
7.96
6.66
5.33
3.92
2.27
0.27
-2.14
-4.99
-8.30
-12.12
-16.40
-20.97
-25.34
-28.80
-30.52
-29.92
-26.86
-21.75
-15.42
-8.80
-2.65
2.66
7.07
10.76
13.86
16.39
18.23
19.23
19.28
18.42
16.87
14.96
13.06
11.49
10.39
9.74
9.35
8.97
8.36
7.40
6.06
4.40
2.46
0.24
-2.25
-4.99
-7.90
-10.90
-13.97
-17.24
-20.94
-25.15
-29.68
-33.92
-36.95
-37.88
-36.18
-31.93
-25.79
-18.71
-11.66
-5.29
0.16
4.68
8.41
11.44
13.77
15.33
16.09
16.08
15.46
14.45
13.24
12.00
10.79
9.67
8.69
7.93
7.45
7.28
7.32
7.34
7.06
6.19
4.64
2.46
-0.10
-2.82
-5.55
-8.36
-11.49
-15.18
-19.52
-24.20
-28.61
-31.87
-33.23
-32.22
-28.91
-23.78
-17.53
-10.83
-4.22
1.99
7.58
12.34
16.07
18.61
19.95
20.26
19.83
19.00
18.01
17.02
16.03
15.06
14.14
13.36
12.83
12.60
12.61
12.63
12.40
11.65
10.31
8.43
6.23
3.91
1.59
-0.77
-3.33
-6.29
-9.81
-13.94
-18.55
-23.26
-27.50
-30.59
-31.91
-31.10
-28.16
-23.44
-17.49
-10.92
-4.21
2.23
8.15
13.27
17.35
20.22
21.86
22.37
21.99
21.02
19.73
18.35
17.02
15.85
14.91
14.24
13.87
13.76
13.79
13.79
13.54
12.87
11.71
10.15
8.34
6.46
4.58
2.67
0.62
-1.71
-4.46
-7.70
-11.41
-15.38
-19.20
-22.26
-23.92
-23.68
-21.39
-17.28
-11.94
-6.08
-0.36
4.78
9.16
12.72
15.53
17.60
18.90
19.40
19.10
18.14
16.72
15.15
13.68
12.51
11.67
11.10
10.65
10.19
9.63
8.89
7.99
6.95
5.75
4.38
2.79
0.94
-1.18
-3.57
-6.21
-9.12
-12.37
-15.98
-19.84
-23.58
-26.65
-28.37
-28.19
-25.89
-21.66
-16.07
-9.84
-3.69
1.88
6.58
10.29
13.03
14.77
15.55
15.42
14.55
13.19
11.64
10.17
8.94
8.00
7.28
6.69
6.17
5.67
5.17
4.61
3.86
2.86
1.55
-0.06
-1.89
-3.89
-6.03
-8.33
-10.92
-13.96
-17.58
-21.83
-26.43
-30.84
-34.25
-35.88
-35.22
-32.23
-27.33
-21.25
-14.74
-8.36
-2.51
2.59
6.77
9.94
12.08
13.31
13.87
13.98
13.80
13.38
12.70
11.74
10.60
9.45
8.47
7.78
7.34
7.02
6.58
5.85
4.72
3.17
1.27
-0.85
-3.11
-5.45
-7.92
-10.63
-13.74
-17.42
-21.69
-26.35
-30.90
-34.59
-36.65
-36.53
-34.09
-29.67
-23.90
-17.54
-11.18
-5.22
0.15
4.83
8.74
11.81
14.04
15.48
16.28
16.59
16.52
16.14
15.53
14.78
14.04
13.43
13.05
12.90
12.90
12.91
12.74
12.22
11.20
9.60
7.44
4.80
1.88
-1.16
-4.16
-7.11
-10.09
-13.29
-16.89
-20.93
-25.21
-29.24
-32.36
-33.91
-33.40
-30.73
-26.14
-20.14
-13.36
-6.38
0.28
6.23
11.17
14.92
17.41
18.73
19.09
18.80
18.14
17.37
16.64
16.00
15.45
14.96
14.53
14.20
13.97
13.82
13.62
13.19
12.38
11.17
9.62
7.87
6.02
4.08
1.96
-0.46
-3.27
-6.51
-10.17
-14.21
-18.50
-22.75
-26.45
-28.98
-29.74
-28.37
-24.90
-19.74
-13.56
-7.03
-0.68
5.16
10.33
14.75
18.30
20.89
22.41
22.91
22.55
21.62
20.45
19.31
18.35
17.59
17.02
16.58
16.30
16.21
16.29
16.40
16.32
15.79
14.70
13.07
11.09
8.96
6.80
4.58
2.17
-0.62
-3.92
-7.77
-12.07
-16.59
-20.91
-24.47
-26.68
-27.05
-25.35
-21.73
-16.65
-10.74
-4.64
1.17
6.33
10.65
13.99
16.24
17.43
17.60
16.94
15.69
14.12
12.49
10.98
9.75
8.83
8.20
7.77
7.43
7.05
6.57
5.94
5.14
4.18
3.01
1.58
-0.17
-2.35
-5.00
-8.15
-11.76
-15.73
-19.81
-23.59
-26.53
-28.06
-27.77
-25.53
-21.59
-16.50
-10.91
-5.39
-0.31
4.19
8.06
11.28
13.74
15.30
15.86
15.46
14.26
12.54
10.58
8.64
6.92
5.57
4.66
4.14
3.86
3.61
3.13
2.31
1.09
-0.44
-2.21
-4.19
-6.41
-8.98
-12.01
-15.59
-19.80
-24.56
-29.62
-34.40
-38.16
-40.07
-39.58
-36.58
-31.45
-24.95
-17.88
-10.93
-4.53
1.12
5.90
9.75
12.61
14.43
15.24
15.13
14.28
12.91
11.31
9.80
8.66
8.01
7.80
7.78
7.67
7.19
6.24
4.85
3.22
1.53
-0.10
-1.70
-3.39
-5.37
-7.83
-10.93
-14.76
-19.28
-24.28
-29.30
-33.63
-36.47
-37.13
-35.27
-31.01
-24.91
-17.77
-10.38
-3.33
3.04
8.53
13.05
16.49
18.81
20.07
20.44
20.15
19.44
18.46
17.34
16.15
15.02
14.08
13.38
12.85
12.30
11.49
10.25
8.59
6.66
4.70
2.85
1.14
-0.58
-2.49
-4.80
-7.70
-11.32
-15.70
-20.67
-25.80
-30.37
-33.49
-34.38
-32.57
-28.15
-21.68
-14.06
-6.20
1.14
7.51
12.73
16.82
19.89
22.06
23.46
24.19
24.33
23.94
23.15
22.10
20.98
19.99
19.27
18.81
18.49
18.06
17.32
16.17
14.64
12.86
10.94
8.93
6.78
4.41
1.74
-1.25
-4.56
-8.21
-12.25
-16.68
-21.43
-26.11
-30.10
-32.63
-32.95
-30.73
-26.04
-19.47
-11.84
-4.01
3.39
9.95
15.52
20.00
23.37
25.62
26.82
27.14
26.81
26.10
25.23
24.33
23.46
22.65
21.90
21.19
20.48
19.72
18.87
17.90
16.82
15.59
14.16
12.49
10.53
8.34
5.98
3.51
0.88
-2.09
-5.66
-10.05
-15.19
-20.64
-25.56
-28.98
-30.09
-28.52
-24.43
-18.46
-11.46
-4.23
2.64
8.77
13.96
18.07
20.96
22.57
22.94
22.25
20.81
18.98
17.10
15.40
13.99
12.87
11.94
11.09
10.24
9.33
8.34
7.26
6.02
4.54
2.78
0.72
-1.56
-4.00
-6.58
-9.39
-12.59
-16.29
-20.39
-24.47
-27.87
-29.83
-29.80
-27.62
-23.58
-18.25
-12.28
-6.16
-0.18
5.50
10.70
15.17
18.56
20.60
21.23
20.67
19.32
17.66
16.01
14.53
13.23
12.03
10.90
9.87
9.00
8.26
7.60
6.84
5.82
4.46
2.75
0.78
-1.35
-3.62
-6.20
-9.30
-13.14
-17.71
-22.66
-27.28
-30.69
-32.14
-31.26
-28.22
-23.61
-18.19
-12.63
-7.32
-2.45
1.90
5.59
8.42
10.16
10.70
10.16
8.86
7.21
5.57
4.16
3.04
2.16
1.45
0.84
0.28
-0.29
-0.98
-1.90
-3.13
-4.70
-6.53
-8.49
-10.46
-12.37
-14.29
-16.46
-19.20
-22.79
-27.26
-32.28
-37.09
-40.71
-42.24
-41.17
-37.50
-31.77
-24.74
-17.17
-9.63
-2.46
4.11
9.85
14.51
17.90
19.95
20.79
20.69
19.96
18.85
17.56
16.25
15.05
14.06
13.29
12.70
12.15
11.50
10.71
9.75
8.66
7.40
5.90
4.04
1.71
-1.18
-4.61
-8.56
-12.96
-17.64
-22.27
-26.31
-29.10
-30.05
-28.83
-25.50
-20.48
-14.38
-7.81
-1.19
5.20
11.16
16.45
20.73
23.69
25.10
25.00
23.69
21.66
19.43
17.44
15.92
14.89
14.22
13.67
13.07
12.32
11.41
10.35
9.15
7.79
6.19
4.34
2.23
-0.16
-2.89
-6.08
-9.91
-14.39
-19.28
-23.96
-27.57
-29.28
-28.58
-25.42
-20.30
-13.95
-7.11
-0.37
5.96
11.69
16.65
20.60
23.27
24.51
24.37
23.14
21.27
19.24
17.42
15.99
14.91
14.00
12.99
11.69
10.06
8.21
6.38
4.78
3.51
2.48
1.47
0.20
-1.55
-3.92
-6.97
-10.66
-14.85
-19.16
-23.04
-25.75
-26.60
-25.17
-21.46
-15.87
-9.16
-2.10
4.67
10.74
15.89
20.03
23.03
24.76
25.15
24.27
22.43
20.12
17.87
16.07
14.84
13.98
13.16
12.06
10.62
9.05
7.71
6.92
6.69
6.76
6.58
5.62
3.54
0.24
-4.08
-9.03
-14.12
-18.82
-22.56
-24.84
-25.25
-23.67
-20.23
-15.36
-9.66
-3.73
1.92
6.92
10.98
13.91
15.58
16.00
15.30
13.76
11.78
9.69
7.74
6.00
4.35
2.63
0.71
-1.37
-3.43
-5.20
-6.46
-7.16
-7.47
-7.77
-8.51
-10.10
-12.79
-16.57
-21.11
-25.78
-29.72
-32.02
-32.01
-29.43
-24.54
-18.03
-10.74
-3.44
3.33
9.34
14.46
18.57
21.48
22.96
22.91
21.45
19.01
16.13
13.36
11.07
9.37
8.16
7.19
6.28
5.36
4.41
3.51
2.62
1.68
0.53
-0.96
-2.90
-5.32
-8.25
-11.67
-15.51
-19.51
-23.16
-25.81
-26.77
-25.63
-22.36
-17.32
-11.12
-4.44
2.19
8.39
13.91
18.51
21.96
24.06
24.74
24.13
22.59
20.59
18.60
16.97
15.83
15.11
14.56
13.93
13.03
11.87
10.55
9.22
8.00
6.86
5.65
4.16
2.20
-0.37
-3.59
-7.34
-11.38
-15.24
-18.35
-20.08
-19.97
-17.83
-13.87
-8.61
-2.68
3.35
9.06
14.22
18.65
22.19
24.65
25.88
25.85
24.72
22.82
20.58
18.40
16.56
15.10
13.90
12.81
11.66
10.40
9.07
7.73
6.40
5.05
3.61
1.95
-0.00
-2.34
-5.16
-8.53
-12.45
-16.68
-20.76
-24.02
-25.80
-25.70
-23.68
-20.11
-15.53
-10.53
-5.50
-0.66
3.87
7.91
11.22
13.45
14.42
14.16
12.99
11.38
9.78
8.48
7.51
6.75
6.01
5.20
4.29
3.33
2.36
1.38
0.33
-0.88
-2.28
-3.93
-5.82
-7.98
-10.50
-13.46
-16.88
-20.53
-23.95
-26.42
-27.25
-26.02
-22.72
-17.85
-12.16
-6.35
-0.90
3.98
8.29
12.00
14.93
16.80
17.40
16.71
15.01
12.81
10.63
8.91
7.77
7.10
6.63
6.06
5.28
4.27
3.13
1.95
0.74
-0.57
-2.07
-3.80
-5.74
-7.88
-10.23
-12.90
-16.01
-19.54
-23.25
-26.60
-28.88
-29.47
-28.02
-24.64
-19.83
-14.32
-8.82
-3.86
0.33
3.73
6.44
8.54
10.05
10.91
11.12
10.71
9.81
8.68
7.60
6.78
6.25
5.89
5.49
4.85
3.90
2.72
1.48
0.30
-0.77
-1.84
-3.09
-4.67
-6.68
-9.15
-12.04
-15.28
-18.76
-22.26
-25.43
-27.80
-28.90
-28.36
-26.08
-22.22
-17.23
-11.69
-6.19
-1.22
2.96
6.33
8.99
11.15
12.90
14.19
14.88
14.83
14.04
12.76
11.37
10.26
9.61
9.38
9.27
8.96
8.27
7.18
5.87
4.52
3.24
1.99
0.65
-0.88
-2.65
-4.64
-6.81
-9.25
-12.06
-15.30
-18.84
-22.22
-24.77
-25.79
-24.81
-21.77
-17.11
-11.49
-5.64
-0.10
4.83
9.05
12.54
15.30
17.30
18.54
19.04
18.86
18.10
16.89
15.43
13.98
12.76
11.92
11.48
11.32
11.28
11.19
10.95
10.52
9.85
8.85
7.46
5.66
3.51
1.19
-1.17
-3.53
-6.04
-8.94
-12.42
-16.39
-20.40
-23.76
-25.69
-25.71
-23.72
-20.07
-15.35
-10.17
-5.04
-0.29
3.87
7.32
9.95
11.73
12.71
13.01
12.77
12.11
11.11
9.82
8.34
6.79
5.33
4.09
3.14
2.46
1.94
1.49
0.96
0.22
-0.79
-2.12
-3.74
-5.58
-7.56
-9.66
-11.94
-14.48
-17.35
-20.47
-23.54
-26.07
-27.45
-27.20
-25.10
-21.31
-16.34
-10.82
-5.35
-0.32
4.14
7.98
11.17
13.59
15.09
15.59
15.19
14.17
12.87
11.60
10.54
9.70
9.04
8.47
7.91
7.31
6.60
5.74
4.69
3.46
2.05
0.46
-1.35
-3.42
-5.75
-8.35
-11.24
-14.51
-18.23
-22.35
-26.53
-30.17
-32.49
-32.83
-30.96
-27.16
-22.11
-16.61
-11.31
-6.52
-2.25
1.64
5.21
8.35
10.86
12.53
13.32
13.38
12.99
12.43
11.87
11.35
10.80
10.15
9.45
8.78
8.22
7.73
7.16
6.29
4.98
3.21
1.16
-0.98
-3.10
-5.28
-7.75
-10.85
-14.81
-19.61
-24.89
-29.98
-34.02
-36.23
-36.09
-33.55
-29.00
-23.15
-16.75
-10.43
-4.54
0.76
5.42
9.35
12.43
14.57
15.71
15.91
15.35
14.24
12.84
11.39
10.09
9.06
8.33
7.87
7.55
7.26
6.86
6.28
5.46
4.37
3.00
1.33
-0.61
-2.79
-5.18
-7.84
-10.91
-14.57
-18.91
-23.79
-28.66
-32.73
-35.09
-35.11
-32.64
-28.09
-22.23
-15.84
-9.49
-3.42
2.27
7.50
12.06
15.68
18.20
19.64
20.26
20.40
20.28
19.99
19.47
18.65
17.57
16.41
15.38
14.61
14.12
13.76
13.32
12.59
11.48
9.95
8.04
5.79
3.22
0.34
-2.87
-6.47
-10.51
-15.04
-19.95
-24.91
-29.36
-32.59
-33.93
-32.99
-29.74
-24.57
-18.10
-11.05
-4.01
2.56
8.39
13.28
17.14
19.91
21.60
22.32
22.26
21.65
20.75
19.80
18.97
18.35
17.94
17.67
17.43
17.11
16.67
16.07
15.31
14.38
13.23
11.81
10.05
7.91
5.40
2.53
-0.66
-4.15
-7.96
-12.11
-16.54
-21.01
-25.06
-28.01
-29.16
-28.01
-24.45
-18.83
-11.89
-4.48
2.64
8.98
14.34
18.71
22.14
24.70
26.41
27.28
27.32
26.60
25.24
23.48
21.58
19.80
18.34
17.29
16.63
16.26
16.03
15.77
15.34
14.59
13.47
11.93
10.02
7.84
5.49
3.07
0.53
-2.26
-5.53
-9.45
-13.96
-18.65
-22.77
-25.46
-25.98
-24.08
-19.98
-14.36
-8.03
-1.70
4.22
9.48
13.99
17.60
20.13
21.43
21.48
20.45
18.69
16.57
14.46
12.59
11.04
9.79
8.76
7.82
6.92
6.04
5.21
4.41
3.60
2.68
1.50
-0.02
-1.90
-4.10
-6.58
-9.40
-12.67
-16.44
-20.57
-24.59
-27.77
-29.33
-28.71
-25.79
-20.91
-14.74
-8.08
-1.54
4.43
9.61
13.88
17.17
19.41
20.57
20.71
19.98
18.62
16.93
15.20
13.65
12.35
11.25
10.21
9.06
7.71
6.19
4.61
3.08
1.64
0.23
-1.31
-3.12
-5.29
-7.85
-10.83
-14.30
-18.36
-23.02
-27.99
-32.63
-36.11
-37.62
-36.72
-33.48
-28.42
-22.27
-15.76
-9.40
-3.46
1.89
6.49
10.17
12.77
14.23
14.66
14.32
13.53
12.61
11.75
11.01
10.33
9.65
8.94
8.24
7.59
7.05
6.50
5.81
4.79
3.35
1.52
-0.59
-2.85
-5.21
-7.70
-10.52
-13.83
-17.76
-22.20
-26.79
-30.88
-33.70
-34.61
-33.25
-29.76
-24.64
-18.62
-12.41
-6.48
-1.10
3.66
7.72
11.02
13.44
14.95
15.60
15.53
14.99
14.15
13.20
12.24
11.39
10.74
10.40
10.40
10.59
10.74
10.55
9.80
8.47
6.70
4.71
2.69
0.68
-1.40
-3.70
-6.45
-9.79
-13.83
-18.52
-23.56
-28.36
-32.14
-34.09
-33.67
-30.79
-25.84
-19.57
-12.76
-6.05
0.17
5.72
10.54
14.55
17.69
19.93
21.34
22.03
22.20
21.99
21.51
20.77
19.80
18.66
17.54
16.66
16.19
16.14
16.27
16.23
15.67
14.47
12.68
10.51
8.14
5.64
2.95
0.02
-3.20
-6.70
-10.47
-14.53
-18.79
-23.02
-26.72
-29.22
-29.87
-28.27
-24.43
-18.80
-12.07
-4.98
1.88
8.11
13.55
18.08
21.66
24.22
25.72
26.16
25.66
24.46
22.88
21.25
19.81
18.69
17.88
17.29
16.80
16.29
15.71
15.00
14.11
12.99
11.59
9.89
7.89
5.65
3.24
0.71
-2.02
-5.16
-8.94
-13.48
-18.59
-23.64
-27.75
-30.01
-29.84
-27.26
-22.81
-17.33
-11.60
-6.09
-0.95
3.86
8.29
12.10
14.95
16.55
16.85
16.07
14.65
13.03
11.50
10.21
9.17
8.29
7.52
6.81
6.09
5.37
4.57
3.65
2.54
1.20
-0.38
-2.19
-4.16
-6.32
-8.78
-11.77
-15.47
-19.81
-24.38
-28.39
-30.94
-31.33
-29.32
-25.20
-19.62
-13.35
-7.02
-0.99
4.57
9.56
13.80
17.08
19.15
19.92
19.49
18.18
16.42
14.63
13.08
11.80
10.70
9.57
8.32
6.93
5.50
4.13
2.90
1.75
0.55
-0.87
-2.69
-5.00
-7.86
-11.28
-15.25
-19.77
-24.72
-29.83
-34.58
-38.28
-40.19
-39.79
-36.96
-32.07
-25.82
-19.03
-12.36
-6.17
-0.57
4.41
8.72
12.19
14.60
15.79
15.79
14.88
13.48
12.07
11.03
10.50
10.44
10.58
10.64
10.36
9.62
8.47
7.04
5.47
3.85
2.20
0.45
-1.48
-3.69
-6.26
-9.31
-12.99
-17.39
-22.41
-27.62
-32.29
-35.45
-36.28
-34.35
-29.82
-23.36
-15.94
-8.46
-1.51
4.68
10.12
14.86
18.89
22.08
24.30
25.52
25.82
25.40
24.48
23.31
22.08
20.93
19.94
19.10
18.34
17.58
16.72
15.68
14.42
12.88
11.01
8.80
6.27
3.53
0.66
-2.34
-5.59
-9.32
-13.67
-18.49
-23.25
-27.15
-29.35
-29.24
-26.75
-22.26
-16.49
-10.24
-4.09
1.61
6.71
11.12
14.73
17.38
18.94
19.43
19.01
18.01
16.82
15.77
14.98
14.45
14.04
13.59
13.03
12.32
11.48
10.52
9.47
8.29
6.99
5.60
4.16
2.66
1.05
-0.86
-3.32
-6.54
-10.62
-15.39
-20.31
-24.59
-27.30
-27.73
-25.59
-21.13
-15.08
-8.34
-1.66
4.51
10.02
14.84
18.91
22.05
24.07
24.85
24.49
23.28
21.59
19.78
18.07
16.55
15.23
14.09
13.07
12.10
11.11
9.99
8.67
7.07
5.17
2.94
0.38
-2.57
-5.96
-9.81
-14.04
-18.37
-22.32
-25.28
-26.65
-26.08
-23.56
-19.44
-14.23
-8.51
-2.72
2.88
8.07
12.66
16.37
18.92
20.09
19.88
18.46
16.25
13.75
11.37
9.34
7.69
6.22
4.71
3.05
1.26
-0.49
-2.00
-3.23
-4.27
-5.42
-7.03
-9.39
-12.63
-16.69
-21.25
-25.79
-29.66
-32.21
-32.93
-31.62
-28.39
