1555617820.00
64.000000
-0.00
-0.00
-0.00
-0.00
-0.00
-0.00
-0.00
-0.00
-0.00
-0.00
0.00
0.01
0.01
-0.00
-0.03
-0.05
-0.05
0.00
0.13
0.36
0.66
1.01
1.37
1.72
2.06
2.40
2.79
3.24
3.80
4.42
5.06
5.66
6.20
6.68
7.15
7.68
8.31
9.14
10.09
11.04
11.88
12.56
13.14
13.76
14.65
15.96
17.91
20.32
22.90
25.38
27.58
29.57
31.68
34.32
37.81
42.54
48.15
54.10
59.83
64.97
69.58
74.14
79.34
85.71
93.76
103.00
112.62
121.73
129.77
136.75
143.30
150.75
157.77
166.64
177.95
191.79
206.97
220.57
228.25
225.36
208.53
176.87
132.76
80.05
23.07
-34.94
-92.44
-149.16
-205.23
-260.37
-313.74
-363.87
-409.83
-450.92
-486.52
-515.76
-537.22
-549.17
-549.87
-538.27
-514.18
-478.80
-434.22
-383.00
-327.70
-270.55
-213.26
-157.16
-103.37
-52.83
-6.53
34.69
70.25
99.97
124.05
142.99
157.43
167.94
175.02
179.01
180.27
179.19
176.26
171.98
166.73
160.70
153.88
146.20
137.69
128.64
119.56
111.02
103.40
96.69
90.40
83.79
76.20
67.46
58.05
48.93
41.16
35.35
31.36
28.25
24.66
19.46
12.31
3.95
-4.15
-10.46
-14.26
-15.79
-16.27
-17.06
-19.11
-22.69
-27.79
-34.62
-43.28
-52.60
-59.13
-57.62
-43.87
-17.93
14.52
44.45
63.65
68.66
62.00
50.12
39.60
34.16
34.22
38.53
46.22
57.30
71.62
87.52
101.60
110.27
111.65
107.11
99.36
91.70
86.34
83.69
82.54
80.70
75.72
65.41
48.66
25.61
-2.10
-31.37
-58.44
-79.70
-92.79
-97.37
-94.97
-88.37
-80.29
-72.26
-64.36
-56.13
-47.57
-39.66
-33.65
-29.74
-26.01
-18.75
-4.44
17.84
44.96
70.51
87.16
89.80
77.65
54.07
25.17
-2.46
-23.36
-34.36
-34.63
-25.87
-12.03
1.73
10.91
13.77
12.20
10.06
10.34
12.51
12.45
5.28
-10.41
-30.24
-45.41
-47.29
-32.99
-7.61
17.76
31.80
28.73
10.96
-12.86
-32.73
-42.12
-40.56
-32.35
-23.29
-16.91
-12.83
-7.71
1.68
15.63
30.58
40.41
39.80
27.00
4.83
-20.64
-43.08
-58.51
-66.43
-67.71
-63.87
-55.82
-44.87
-33.98
-27.36
-28.25
-36.01
-45.17
-47.68
-38.68
-18.57
6.09
25.39
31.16
21.08
-0.44
-24.74
-43.16
-50.45
-44.65
-27.15
-1.23
29.13
59.51
85.02
100.68
102.63
88.99
62.05
27.73
-6.41
-33.94
-51.71
-60.35
-62.95
-63.17
-63.47
-64.27
-64.81
-63.89
-60.85
-56.01
-50.61
-46.30
-44.92
-47.93
-55.54
-65.97
-74.94
-76.26
-64.01
-35.28
7.64
57.56
104.82
141.41
163.83
173.68
175.77
175.15
174.94
175.50
175.09
170.95
160.34
141.34
113.52
78.50
39.82
2.14
-30.49
-55.58
-72.52
-81.81
-84.13
-80.05
-70.46
-57.58
-44.85
-36.16
-34.25
-39.58
-50.11
-61.76
-69.14
-66.49
-49.65
-18.18
23.03
64.23
93.85
103.45
91.33
63.56
31.07
4.42
-10.81
-15.46
-14.55
-13.32
-14.11
-15.80
-15.76
-12.50
-7.07
-2.33
-1.02
-4.14
-10.19
-16.46
-20.46
-21.25
-19.65
-17.58
-16.90
-18.30
-21.00
-23.24
-23.11
-19.60
-12.89
-4.35
4.44
11.32
15.26
16.35
15.52
13.58
11.18
8.09
3.45
-3.70
-13.74
-25.98
-38.87
-50.78
-59.74
-65.86
-69.91
-73.04
-76.44
-81.22
-88.12
-97.22
-107.24
-115.09
-116.48
-107.31
-85.92
-54.63
-19.44
12.29
34.77
46.08
48.30
45.72
42.24
39.59
37.33
34.07
29.21
23.63
19.28
17.98
20.28
25.38
31.57
36.98
40.71
43.08
45.36
49.08
55.29
64.00
74.31
84.88
94.35
101.57
105.36
104.54
98.09
85.71
68.43
48.67
29.58
13.86
2.57
-5.18
-11.34
-17.61
-24.30
-30.15
-33.15
-31.84
-26.26
-17.91
-9.06
-1.28
5.03
10.35
15.35
20.14
23.85
25.29
23.30
17.10
6.86
-6.77
-22.93
-40.71
-58.97
-76.12
-90.08
-99.14
-102.80
-101.63
-97.13
-91.14
-84.97
-79.24
-74.03
-69.18
-63.60
-58.62
-55.67
-55.35
-57.23
-59.90
-62.19
-64.66
-68.07
-74.40
-86.24
-105.26
-131.45
-162.32
-192.68
-215.66
-224.60
-215.12
-187.66
-147.69
-103.34
-62.24
-28.71
-2.64
19.56
39.94
60.12
80.05
98.54
114.83
129.56
144.76
162.91
185.82
214.12
247.77
285.50
324.81
361.84
391.54
408.75
409.85
394.25
364.69
326.44
284.96
244.22
206.20
171.66
141.27
115.97
96.67
83.18
73.93
66.04
56.39
42.68
23.82
-0.39
-29.67
-63.59
-101.31
-141.13
-180.44
-216.20
-245.66
-266.84
-278.71
-281.04
-274.25
-259.23
-237.31
-210.10
-179.17
-145.75
-110.65
-74.63
-38.79
-4.83
25.29
49.95
68.70
82.45
93.05
102.43
111.78
121.18
129.84
136.46
139.62
137.92
130.19
115.71
94.74
68.66
40.03
12.09
-12.11
-30.38
-41.73
-46.38
-45.29
-39.74
-31.12
-20.79
-10.25
-1.21
4.57
5.67
1.43
-7.56
-19.46
-31.83
-42.31
-49.59
-53.82
-56.36
-59.02
-63.12
-68.87
-75.22
-80.41
-82.78
-81.71
-78.23
-74.84
-74.69
-80.09
-91.16
-105.14
-117.10
-121.73
-115.41
-97.59
-70.75
-39.21
-7.44
21.11
44.36
61.22
71.18
73.99
69.96
60.15
46.39
31.00
16.31
4.14
-4.43
-9.19
-10.67
-9.88
-7.90
-5.47
-2.71
0.75
5.40
11.35
18.10
24.72
30.27
34.45
37.84
41.86
48.15
57.84
70.87
85.81
100.27
111.68
118.32
119.86
117.55
113.48
109.73
107.42
106.06
103.57
96.78
82.00
55.75
15.57
-38.92
-105.02
-176.56
-244.62
-299.52
-333.41
-342.50
-327.92
-295.02
-251.34
-204.49
-160.48
-123.29
-94.86
-75.55
-64.33
-58.87
-55.86
-51.51
-42.46
-26.76
-4.38
22.77
51.29
77.44
98.21
112.20
119.82
122.81
123.28
122.90
122.52
122.42
122.83
124.42
128.29
135.48
146.28
159.77
173.73
185.03
190.26
186.39
171.21
143.48
103.04
51.03
-9.65
-74.38
-137.17
-191.97
-234.17
-261.83
-276.04
-280.18
-278.40
-274.24
-269.72
-265.37
-260.65
-254.33
-244.84
-230.70
-210.86
-185.37
-155.84
-125.32
-97.40
-75.04
-59.68
-51.02
-47.76
-48.55
-52.78
-60.48
-71.71
-85.76
-100.91
-114.73
-124.81
-129.62
-128.80
-123.19
-114.29
-103.65
-92.33
-80.57
-67.72
-52.33
-32.32
-5.23
31.09
77.70
133.86
196.44
260.26
319.14
367.54
402.11
422.63
431.68
433.48
432.31
431.18
431.11
431.14
428.58
419.54
399.72
365.31
313.94
245.59
163.26
72.96
-17.03
-97.93
-162.96
-209.71
-241.25
-265.07
-289.56
-319.69
-353.96
-384.53
-400.71
-394.11
-362.80
-312.33
-253.03
-195.45
-146.32
-107.10
-75.32
-47.34
-20.63
5.51
30.70
54.89
78.92
104.09
131.03
158.76
184.61
205.15
217.57
220.92
216.62
207.88
198.49
191.46
188.03
187.29
186.69
183.29
175.08
161.79
144.74
125.97
107.13
88.72
70.12
50.05
27.31
1.33
-27.51
-57.79
-87.18
-112.77
-131.85
-142.75
-145.55
-142.01
-134.72
-125.99
-116.96
-107.63
-97.53
-86.54
-75.26
-64.75
-55.82
-48.48
-41.95
-35.15
-27.48
-19.19
-11.34
-5.24
-1.66
-0.43
-0.49
-0.57
-0.01
0.81
0.63
-1.96
-7.69
-16.20
-26.22
-36.27
-45.30
-52.94
-59.18
-63.90
-66.58
-66.48
-63.15
-56.87
-48.67
-39.93
-31.82
-24.84
-18.87
-13.48
-8.38
-3.80
-0.28
1.59
1.69
0.52
-0.95
-1.74
-1.35
0.08
1.85
3.28
3.99
4.17
4.33
4.90
5.84
6.63
6.49
4.82
1.40
-3.49
-9.31
-15.47
-21.53
-27.25
-32.60
-37.74
-42.98
-48.72
-55.31
-62.92
-71.48
-80.54
-89.45
-97.45
-103.95
-108.83
-112.57
-116.25
-121.25
-128.63
-138.53
-149.90
-160.70
-168.59
-171.89
-170.24
-164.58
-156.48
-147.32
-137.71
-127.42
-115.53
-100.71
-81.50
-56.57
-25.41
11.02
49.86
86.77
117.41
139.31
153.08
162.18
171.31
184.10
201.57
222.06
242.46
259.96
273.17
282.15
287.71
290.61
291.25
289.79
286.65
282.69
278.87
275.62
272.42
267.82
259.82
246.62
227.25
201.94
172.02
139.51
106.54
74.90
45.91
20.28
-1.76
-20.31
-35.63
-47.91
-57.32
-64.12
-68.91
-72.58
-76.52
-82.06
-89.53
-97.71
-103.91
-105.08
-99.19
-86.23
-67.69
-46.46
-25.51
-6.70
9.75
25.06
41.08
59.35
80.39
104.02
127.96
148.00
159.14
157.53
142.18
115.74
83.98
54.20
34.03
27.51
33.79
47.65
61.93
70.47
70.11
61.19
40.01
8.44
-27.78
-61.43
-87.63
-105.07
-114.31
-116.23
-111.76
-102.39
-89.36
-75.15
-62.25
-52.37
-45.80
-41.50
-38.00
-34.33
-30.54
-27.17
-25.66
-27.31
-32.96
-42.52
-54.97
-68.87
-82.99
-96.81
-106.15
-111.19
-113.04
-112.91
-111.59
-109.34
-106.07
-101.59
-96.02
-89.33
-82.38
-75.67
-69.73
-64.95
-61.45
-59.17
-57.55
-56.18
-54.40
-52.40
-50.25
-48.32
-47.26
-47.66
-49.77
-53.04
-56.71
-59.54
-61.08
-60.92
-59.32
-57.09
-55.20
-55.68
-57.41
-59.19
-59.67
-58.78
-56.91
-55.36
-56.00
-60.63
-70.65
-86.62
-108.68
-133.70
-159.42
-181.18
-193.07
-190.13
-170.67
-137.49
-96.82
-57.11
-22.44
5.48
28.26
48.94
69.88
91.63
113.00
132.49
147.71
159.16
167.52
173.52
177.10
177.51
173.84
165.87
154.43
141.21
128.54
117.67
109.13
102.42
96.45
90.01
82.40
73.67
64.52
56.24
49.43
44.31
40.46
37.18
33.71
29.65
25.00
20.21
16.04
12.87
10.73
9.35
8.26
7.02
5.82
4.44
3.16
2.43
2.49
3.29
4.49
5.65
6.39
6.66
6.66
6.95
8.13
10.48
13.80
17.46
20.66
22.77
23.73
23.97
24.40
25.92
28.96
33.18
37.63
41.19
43.07
43.11
42.14
40.88
40.30
41.24
44.32
49.85
57.32
64.76
68.68
64.88
50.10
24.04
-9.79
-44.81
-73.79
-91.78
-98.15
-96.41
-92.04
-89.77
-91.53
-96.03
-100.04
-100.29
-95.18
-85.42
-73.20
-61.04
-50.63
-42.61
-36.85
-33.33
-32.33
-33.77
-36.26
-35.86
-27.02
-5.12
30.02
73.22
115.55
148.36
167.32
173.08
170.89
167.12
165.80
166.26
165.15
159.20
147.50
131.91
113.65
94.10
74.69
57.19
42.69
32.27
26.78
26.41
30.36
33.63
31.14
19.30
1.55
-19.87
-42.99
-66.44
-89.39
-111.61
-137.41
-170.22
-210.37
-255.10
-301.41
-346.94
-390.72
-432.96
-449.25
-427.57
-372.81
-302.71
-234.01
-175.38
-127.82
-89.15
-56.96
-29.62
-10.45
-2.27
-5.24
-16.27
-30.62
-42.29
-44.81
-32.58
-3.11
37.98
81.29
117.40
140.56
149.83
148.76
143.20
138.50
137.26
136.87
133.54
125.39
113.56
101.18
91.52
86.45
86.24
90.25
96.77
104.71
113.32
121.51
126.66
125.19
114.29
94.14
68.53
43.23
23.61
12.18
7.75
6.59
4.64
-0.66
-9.54
-20.82
-33.25
-46.73
-62.24
-80.75
-102.07
-124.49
-145.74
-163.58
-176.68
-184.88
-189.23
-191.48
-193.33
-195.98
-200.20
-206.71
-215.17
-223.28
-226.06
-217.08
-190.63
-143.79
-77.18
7.30
102.38
196.82
276.68
332.02
360.45
366.53
357.45
339.52
317.14
293.27
270.95
252.99
240.80
232.45
222.38
203.33
170.26
123.44
68.68
15.51
-26.85
-52.95
-62.89
-61.26
-54.08
-45.94
-38.69
-32.52
-27.25
-23.19
-20.81
-20.25
-20.76
-21.05
-20.26
-18.01
-15.27
-13.85
-15.39
-20.32
-27.55
-34.84
-39.81
-41.79
-41.10
-39.29
-38.31
-39.33
-42.33
-46.41
-50.36
-52.95
-53.80
-51.53
-44.60
-32.44
-16.55
-0.72
10.06
11.98
4.19
-12.12
-32.93
-54.34
-74.82
-95.65
-119.58
-148.17
-179.85
-201.25
-204.39
-185.61
-147.80
-99.78
-52.74
-16.10
6.21
16.26
19.69
20.82
21.95
22.63
21.16
17.13
12.17
9.57
12.34
21.46
34.79
48.96
60.51
67.59
70.93
73.00
76.86
84.66
96.60
110.46
123.22
132.25
136.35
136.59
135.34
135.68
140.38
151.10
167.55
187.65
207.92
221.10
221.31
204.72
170.94
123.37
68.28
12.65
-37.74
-79.64
-112.38
-136.46
-152.88
-162.31
-165.20
-162.21
-154.69
-144.76
-134.89
-127.18
-122.54
-120.77
-120.81
-121.26
-120.95
-119.31
-116.41
-112.60
-108.27
-103.30
-97.39
-90.26
-81.87
-72.51
-62.65
-52.87
-43.61
-35.28
-28.17
-22.63
-19.01
-17.40
-17.55
-18.77
-20.13
-20.76
-20.28
-18.98
-17.81
-18.09
-20.85
-26.34
-33.68
-41.03
-46.30
-48.04
-46.18
-42.29
-39.16
-39.58
-45.18
-55.38
-67.27
-76.40
-78.52
-71.17
-54.61
-31.80
-7.65
12.10
22.27
19.72
4.79
-17.73
-39.04
-48.45
-36.88
-0.50
57.21
126.18
193.22
246.66
279.90
292.44
288.10
272.23
249.49
223.20
195.89
170.02
147.92
131.17
119.71
111.63
103.76
93.12
78.34
60.33
41.85
25.91
14.08
5.49
-2.77
-14.05
-30.18
-50.26
-70.85
-87.92
-98.99
-104.32
-106.29
-107.17
-106.90
-102.15
-87.85
-60.15
-19.37
29.00
75.66
110.42
125.41
117.16
87.14
40.54
-15.62
-74.22
-129.19
-176.00
-211.65
-234.30
-243.10
-238.10
-220.45
-192.81
-159.57
-126.52
-99.64
-83.59
-80.00
-87.13
-100.50
-114.54
-124.31
-126.65
-120.33
-105.42
-82.98
-54.99
-24.67
3.64
25.68
39.36
46.28
51.36
60.57
78.00
104.06
135.64
168.04
197.01
219.89
235.56
243.67
244.32
238.32
227.70
215.46
204.66
197.24
193.53
192.88
194.66
198.96
205.88
214.53
222.42
226.25
224.03
216.49
207.42
201.98
204.14
214.33
228.71
240.55
242.78
230.49
202.36
160.44
108.92
52.80
-2.95
-53.72
-95.48
-125.76
-144.89
-156.88
-168.41
-186.14
-213.29
-247.77
-283.18
-312.43
-331.75
-342.59
-350.40
-361.00
-377.12
-396.92
-415.22
-426.32
-426.41
-414.53
-392.05
-361.77
-327.19
-292.19
-260.72
-235.75
-217.96
-204.94
-191.80
-173.13
-145.54
-109.28
-68.36
-28.93
3.43
26.05
40.11
49.81
60.13
74.24
92.15
110.88
126.36
135.70
138.83
138.28
137.60
139.26
143.19
146.95
147.17
141.46
129.78
114.51
99.26
87.32
80.53
78.90
81.26
86.10
92.21
98.66
104.30
107.23
105.21
96.88
83.33
68.73
59.06
59.02
68.74
82.65
91.34
86.36
65.14
33.08
1.17
-19.69
-24.41
-15.95
-2.52
7.49
10.17
7.36
4.17
4.74
9.21
13.85
14.12
8.99
1.46
-3.40
-2.12
4.86
13.55
18.84
17.40
8.79
-4.08
-18.16
-32.12
-46.43
-61.32
-74.85
-82.48
-79.15
-61.96
-30.29
12.96
62.75
113.78
162.19
205.82
243.98
276.20
291.80
282.93
248.24
194.92
134.55
76.99
27.27
-13.04
-43.99
-66.27
-79.65
-85.17
-85.82
-86.02
-89.94
-100.33
-116.78
-136.90
-157.86
-175.97
-187.70
-189.73
-179.26
-151.99
-109.84
-59.73
-11.88
24.21
44.36
50.66
49.29
46.53
45.14
43.03
36.54
23.93
8.10
-4.03
-4.50
11.37
42.92
84.55
127.81
164.77
189.91
200.45
195.70
176.46
144.31
102.43
55.57
8.93
-32.66
-66.45
-92.63
-114.11
-132.23
-149.70
-169.28
-193.18
-222.63
-257.03
-293.37
-326.37
-349.60
-357.29
-346.06
-315.52
-268.16
-208.58
-142.50
-76.01
-14.84
36.17
73.76
96.38
104.71
101.43
90.35
75.66
61.26
50.32
44.75
44.50
47.30
49.66
48.85
44.91
41.58
44.97
60.44
89.16
126.46
163.14
189.34
198.93
191.69
172.55
148.47
124.98
104.39
86.55
71.00
58.66
52.10
54.00
65.24
83.73
104.74
122.83
133.88
136.60
132.61
125.19
117.44
110.73
104.25
95.71
82.96
65.67
45.93
27.63
14.63
8.87
9.46
13.36
17.16
19.11
19.93
22.13
28.23
38.97
52.63
65.89
75.52
79.94
79.68
76.67
72.81
68.72
63.44
55.05
41.95
23.88
2.38
-19.53
-38.28
-50.85
-55.64
-52.89
-44.67
-34.35
-25.83
-22.65
-27.31
-40.82
-62.68
-90.83
-121.90
-151.57
-175.19
-188.86
-190.34
-179.83
-159.96
-134.88
-109.04
-85.94
-67.57
-54.62
-46.98
-44.21
-45.37
-48.69
-51.36
-50.14
-42.62
-28.59
-10.51
7.14
19.69
24.41
21.72
15.04
9.43
9.67
18.77
37.27
63.25
92.90
121.40
143.87
156.62
158.05
149.00
132.20
110.89
87.24
61.32
31.31
-4.91
-47.68
-93.97
-137.48
-170.37
-185.97
-181.12
-157.58
-121.47
-81.35
-45.43
-19.08
-3.61
3.39
6.54
10.64
18.89
32.05
48.43
64.55
76.17
79.41
71.87
53.42
26.46
-4.55
-34.30
-58.30
-74.26
-82.38
-84.58
-82.96
-78.62
-71.38
-60.60
-46.20
-29.47
-12.75
1.49
11.74
17.81
20.61
21.14
19.86
16.40
10.03
0.41
-11.89
-25.37
-38.14
-48.74
-56.79
-63.03
-68.85
-75.58
-83.85
-93.35
-103.14
-112.15
-119.66
-125.46
-129.80
-133.19
-136.24
-139.46
-143.16
-147.42
-152.06
-156.81
-161.52
-166.30
-171.47
-177.26
-183.40
-188.98
-192.63
-193.13
-189.88
-183.16
-173.81
-162.60
-149.76
-134.99
-117.76
-97.89
-75.84
-52.53
-29.02
-6.14
15.51
35.39
52.75
66.68
76.42
81.75
83.13
81.48
77.78
72.68
66.53
59.42
51.48
42.81
33.24
22.21
8.94
-6.96
-25.01
-43.79
-61.47
-76.72
-89.39
-100.46
-111.00
-121.19
-129.60
-133.31
-129.00
-114.14
-87.50
-49.27
-1.14
53.12
107.11
152.39
180.86
188.26
176.95
156.07
138.24
134.36
149.00
179.13
216.39
251.36
277.03
290.17
290.42
278.85
257.04
227.03
191.71
154.47
118.25
84.58
53.78
25.68
0.91
-18.10
-27.52
-23.81
-5.98
22.89
55.95
84.67
102.17
106.03
99.30
89.01
82.89
86.27
100.53
123.99
153.81
187.65
223.81
260.13
292.96
317.28
328.32
323.67
304.73
276.25
244.57
215.31
191.37
172.53
156.07
137.93
114.07
81.71
40.27
-7.94
-57.77
-102.40
-135.27
-152.22
-152.89
-140.76
-121.80
-102.42
-87.55
-79.54
-77.76
-79.36
-80.24
-76.38
-65.11
-46.07
-21.60
3.88
25.34
39.00
43.81
41.70
36.53
32.28
31.20
33.14
36.05
37.33
35.24
29.29
19.88
7.28
-8.79
-28.73
-51.94
-76.01
-97.06
-111.31
-116.93
-114.90
-108.53
-101.74
-97.21
-95.84
-97.00
-99.48
-101.96
-103.26
-102.17
-97.67
-89.46
-78.48
-66.96
-57.81
-53.66
-55.78
-63.45
-73.94
-83.24
-87.38
-83.92
-73.16
-58.18
-43.85
-35.05
-34.83
-43.54
-59.21
-78.71
-98.98
-117.66
-132.88
-142.94
-146.37
-142.33
-131.34
-115.44
-97.88
-82.16
-71.12
-66.32
-67.97
-75.26
-86.83
-101.28
-117.29
-133.49
-148.13
-159.06
-164.05
-161.61
-151.67
-135.98
-117.67
-100.28
-86.47
-77.25
-71.94
-68.86
-66.38
-63.58
-60.39
-57.27
-54.68
-52.79
-51.58
-50.98
-51.05
-51.85
-53.03
-53.53
-51.64
-45.78
-35.51
-22.17
-8.71
1.64
6.98
7.57
5.15
1.23
-4.47
-14.07
-29.92
-52.16
-77.06
-97.62
-106.05
-96.94
-69.01
-24.80
31.01
93.37
157.36
217.65
267.88
301.35
313.04
301.98
272.51
233.11
193.44
160.77
137.73
122.02
108.29
91.11
67.13
35.89
-0.92
-40.64
-80.85
-119.35
-153.76
-181.02
-197.32
-198.87
-183.03
-149.40
-100.38
-41.23
20.86
78.08
123.74
153.82
167.71
167.90
158.90
145.95
133.91
127.03
128.98
142.76
170.15
210.39
259.17
308.62
349.00
371.40
370.66
346.65
303.92
249.37
189.41
127.90
65.72
2.42
-61.49
-121.72
-170.96
-201.13
-207.11
-190.12
-158.47
-125.14
-102.97
-100.70
-119.42
-154.89
-199.70
-245.87
-286.25
-314.87
-327.19
-320.91
-298.11
-263.93
-227.96
-200.38
-188.00
-191.33
-204.58
-218.22
-222.97
-214.08
-189.81
-153.48
-109.79
-62.19
-11.35
44.65
108.26
184.67
261.48
331.29
383.63
409.99
407.45
380.11
337.92
293.34
257.18
234.46
226.11
226.81
228.50
222.97
203.69
167.18
113.71
47.76
-22.87
-86.39
-132.09
-152.63
-146.38
-118.06
-77.10
-34.48
0.47
21.91
29.24
24.83
13.16
-0.65
-11.89
-17.22
-15.49
-8.12
1.06
7.60
7.27
-2.18
-20.16
-43.44
-67.23
-86.67
-98.16
-100.25
-93.58
-80.61
-64.58
-48.75
-35.84
-27.72
-25.38
-28.90
-37.34
-48.87
-60.98
-71.15
-77.38
-78.73
-75.31
-68.19
-58.88
-49.03
-40.18
-33.52
-29.66
-28.41
-28.61
-28.42
-25.89
-19.83
-10.31
1.33
13.09
23.09
30.06
33.53
33.54
30.40
24.64
17.13
9.14
2.10
-2.91
-5.62
-6.72
-7.51
-9.25
-12.63
-17.56
-23.37
-29.19
-34.28
-38.06
-40.06
-39.90
-37.40
-32.70
-26.31
-18.97
-11.43
-4.19
2.61
9.00
15.01
20.47
25.03
28.44
30.76
32.60
35.09
39.49
46.74
57.07
69.76
83.34
96.11
106.70
114.56
120.11
124.39
128.64
133.94
140.92
149.71
159.79
169.95
178.31
182.70
181.29
173.33
159.52
141.70
121.94
101.41
79.68
54.85
24.44
-13.34
-58.64
-109.63
-162.87
-214.31
-260.35
-298.75
-329.00
-352.15
-370.15
-384.90
-397.43
-407.48
-413.61
-413.92
-406.86
-391.93
-369.79
-341.99
-310.35
-276.45
-241.44
-206.06
-170.97
-136.72
-103.82
-72.45
-42.34
-12.73
17.36
48.62
81.16
114.39
147.31
178.75
207.57
232.58
252.38
265.47
270.67
267.82
258.11
243.89
227.76
211.57
195.78
179.65
162.29
143.47
124.15
106.13
91.25
80.81
75.58
76.14
83.00
95.95
113.10
130.06
140.50
137.92
118.42
82.49
35.06
-16.14
-63.31
-100.89
-126.66
-141.16
-146.52
-145.00
-138.62
-129.28
-118.98
-109.95
-104.29
-103.51
-108.05
-117.15
-128.35
-138.14
-142.71
-138.78
-124.47
-99.76
-66.71
-28.46
11.78
52.69
93.96
135.49
176.65
216.10
252.28
283.42
308.40
325.86
335.93
337.85
329.82
310.08
278.72
238.89
195.70
156.07
125.13
107.94
105.13
112.15
120.69
121.95
110.59
85.91
54.86
27.87
19.42
39.20
88.02
157.80
235.48
308.79
368.33
412.20
413.72
358.15
248.29
105.47
-42.14
-173.18
-266.87
-328.53
-365.14
-382.99
-383.12
-366.52
-337.81
-301.93
-263.66
-225.69
-189.94
-154.44
-117.45
-75.46
-27.73
22.44
68.57
103.19
121.01
119.32
101.03
71.51
39.02
10.94
-7.93
-15.72
-13.09
-2.03
13.95
31.86
47.99
59.33
63.20
57.78
42.88
20.20
-6.96
-35.32
-62.14
-86.42
-108.10
-127.10
-142.22
-151.03
-150.95
-140.80
-121.93
-97.90
-73.26
-51.92
-35.84
-24.95
-17.96
-13.55
-11.10
-10.71
-12.69
-17.10
-23.41
-30.71
-37.91
-44.04
-48.41
-50.54
-50.06
-46.68
-40.36
-31.46
-21.02
-10.66
-2.22
2.84
4.05
2.12
-1.36
-4.52
-5.93
-5.03
-2.16
1.80
5.75
8.80
10.38
10.34
8.99
7.01
5.42
5.39
7.93
13.48
21.60
30.92
39.45
45.14
46.65
43.79
37.68
30.35
24.11
20.83
21.54
26.30
34.47
44.94
56.49
67.79
77.48
84.26
86.98
84.96
78.08
66.60
50.87
30.86
6.29
-22.80
-55.28
-88.45
-118.49
-141.65
-155.72
-160.84
-159.11
-153.48
-146.27
-138.19
-128.34
-114.97
-96.54
-72.53
-43.88
-12.83
17.59
44.22
64.49
77.04
81.93
80.49
74.82
67.18
59.67
53.92
51.03
51.39
54.55
59.22
63.44
65.14
62.59
54.95
42.39
26.03
7.67
-10.65
-27.12
-40.47
-50.18
-56.42
-59.76
-60.84
-60.15
-57.90
-54.14
-48.99
-42.79
-36.21
-30.07
-25.18
-22.06
-20.73
-20.80
-21.54
-22.20
-22.17
-21.14
-19.09
-16.20
-12.76
-9.06
-5.33
-1.78
1.42
4.13
6.28
7.89
9.03
9.83
10.37
10.69
10.75
10.53
10.01
9.25
8.32
7.39
6.58
6.03
5.79
5.79
5.77
5.32
4.01
1.60
-1.85
-5.91
-9.87
-13.03
-14.90
-15.36
-14.58
-12.97
-10.93
-8.77
-6.69
-4.78
-3.05
-1.48
-0.03
1.35
2.66
3.87
4.88
5.57
5.84
5.67
5.08
4.18
3.08
1.90
0.76
-0.24
-1.01
-1.52
-1.77
-1.85
-1.85
-1.93
-2.14
-2.49
-2.88
-3.18
-3.30
-3.19
-2.91
-2.48
-1.89
-1.04
0.17
1.78
3.62
5.33
6.50
6.86
6.38
5.29
3.94
2.68
1.66
0.93
0.46
0.29
0.48
1.10
2.15
3.46
4.81
5.99
6.92
7.63
8.24
8.85
9.46
10.01
10.40
10.58
10.63
10.74
11.18
12.15
13.74
15.78
17.92
19.70
20.65
20.42
18.85
15.94
11.85
6.86
1.35
-4.22
-9.37
-13.66
-16.80
-18.71
-19.46
-19.20
-18.09
-16.28
-13.90
-11.13
-8.22
-5.48
-3.18
-1.52
-0.56
-0.23
-0.39
-0.89
-1.63
-2.55
-3.67
-5.03
-6.64
-8.54
-10.72
-13.20
-15.97
-18.88
-21.71
-24.05
-25.51
-25.82
-25.04
-23.52
-21.80
-20.38
-19.57
-19.33
-19.40
-19.42
-19.11
-18.34
-17.11
-15.55
-13.82
-12.07
-10.41
-8.90
-7.55
-6.33
-5.25
-4.35
-3.71
-3.40
-3.41
-3.64
-3.92
-4.07
-4.02
-3.78
-3.44
-3.12
-2.90
-2.79
-2.78
-2.81
-2.91
-3.12
-3.55
-4.27
-5.29
-6.48
-7.65
-8.65
-9.43
-10.13
-10.92
-11.98
-13.35
-14.89
-16.38
-17.55
-18.18
-18.15
-17.42
-16.01
-14.02
-11.61
-8.94
-6.18
-3.44
-0.78
1.72
3.95
5.79
7.21
8.29
9.23
10.27
11.60
13.24
15.04
16.73
18.07
18.89
19.18
18.99
18.42
17.58
16.57
15.52
14.58
13.84
13.34
12.95
12.48
11.73
10.58
9.10
7.45
5.84
4.33
2.84
1.16
-0.87
-3.29
-5.94
-8.51
-10.59
-11.86
-12.15
-11.45
-9.88
-7.66
-5.04
-2.25
0.52
3.16
5.62
7.81
9.70
11.22
12.37
13.15
13.63
13.87
13.91
13.79
13.50
13.01
12.33
11.52
10.69
9.96
9.39
8.98
8.65
8.30
7.88
7.45
7.13
7.03
7.21
7.61
8.08
8.45
8.64
8.64
8.48
8.23
7.85
7.29
6.45
5.28
3.78
1.98
-0.06
-2.27
-4.55
-6.80
-8.87
-10.64
-12.03
-13.07
-13.80
-14.32
-14.63
-14.71
-14.44
-13.79
-12.73
-11.36
-9.80
-8.19
-6.67
-5.31
-4.18
-3.28
-2.57
-2.00
-1.42
-0.71
0.24
1.54
3.18
5.12
7.21
9.25
11.03
12.43
13.49
14.37
15.27
16.38
17.73
19.25
20.79
22.25
23.61
24.98
26.49
28.27
30.47
33.15
36.32
39.88
43.51
46.81
49.40
51.18
52.41
53.65
55.52
58.40
62.30
66.94
71.97
77.25
82.77
88.52
94.24
99.16
102.05
101.39
95.74
84.11
66.23
42.86
15.74
-12.55
-39.16
-61.60
-78.35
-89.13
-94.83
-96.93
-96.97
-96.06
-94.77
-93.22
-91.39
-89.25
-86.88
-84.37
-81.65
-78.54
-74.78
-70.23
-64.98
-59.37
-53.88
-48.94
-44.78
-41.32
-38.22
-35.06
-31.54
-27.59
-23.41
-19.35
-15.70
-12.63
-10.10
-7.99
-6.22
-4.79
-3.79
-3.24
-3.00
-2.79
-2.27
-1.22
0.37
2.30
4.34
6.30
8.13
9.83
11.39
12.72
13.66
14.09
13.99
13.52
12.97
12.62
12.67
13.16
13.97
14.95
15.99
17.02
18.07
19.14
20.17
21.02
21.51
21.48
20.87
19.78
18.35
16.84
15.49
14.43
13.68
13.05
12.29
11.11
9.33
6.97
4.22
1.37
-1.33
-3.68
-5.57
-6.96
-7.81
-8.13
-7.98
-7.50
-6.88
-6.26
-5.70
-5.16
-4.55
-3.76
-2.80
-1.71
-0.59
0.49
1.44
2.23
2.82
3.18
3.29
3.22
3.07
3.01
3.18
3.64
4.33
5.08
5.67
5.99
6.00
5.79
5.53
5.34
5.32
5.49
5.90
6.66
7.92
9.94
12.91
16.88
21.62
26.64
31.28
34.86
36.93
37.37
36.46
34.68
32.57
30.51
28.60
26.65
24.36
21.39
17.54
12.76
7.22
1.25
-4.68
-9.98
-14.11
-16.66
-17.50
-16.87
-15.31
-13.53
-12.21
-11.85
-12.69
-14.75
-17.87
-21.74
-25.98
-30.15
-33.90
-37.00
-39.42
-41.29
-42.72
-43.73
-44.23
-44.11
-43.36
-42.15
-40.73
-39.26
-37.73
-35.92
-33.57
-30.55
-27.00
-23.28
-19.78
-16.77
-14.34
-12.37
-10.72
-9.30
-8.08
-7.05
-6.17
-5.35
-4.53
-3.71
-2.99
-2.53
-2.47
-2.84
-3.47
-4.09
-4.42
-4.27
-3.59
-2.49
-1.15
0.31
1.79
3.24
4.62
5.87
6.91
7.69
8.23
8.61
8.92
9.26
9.63
10.03
10.45
10.89
11.34
11.76
12.04
12.07
11.77
11.18
10.44
9.70
9.06
8.48
7.83
6.94
5.75
4.36
3.00
1.93
1.28
0.95
0.67
0.12
-0.86
-2.17
-3.53
-4.60
-5.14
-5.15
-4.77
-4.17
-3.40
-2.38
-0.97
0.87
3.02
5.20
7.11
8.53
9.43
9.90
10.08
10.11
10.04
9.88
9.59
9.13
8.46
7.54
6.33
4.82
3.04
1.09
-0.84
-2.50
-3.66
-4.23
-4.24
-3.95
-3.64
-3.55
-3.75
-4.19
-4.72
-5.28
-5.95
-6.89
-8.25
-10.07
-12.21
-14.40
-16.28
-17.65
-18.45
-18.78
-18.82
-18.70
-18.46
-17.92
-16.90
-15.22
-12.93
-10.20
-7.33
-4.59
-2.12
0.01
1.87
3.44
4.71
5.59
6.04
6.04
5.67
5.02
4.24
3.44
2.75
2.28
2.04
2.00
2.03
1.96
1.70
1.22
0.56
-0.14
-0.78
-1.26
-1.53
-1.58
-1.45
-1.19
-0.92
-0.76
-0.84
-1.24
-1.98
-2.96
-4.03
-5.01
-5.71
-5.97
-5.75
-5.06
-4.04
-2.85
-1.62
-0.41
0.82
2.23
3.96
6.07
8.53
11.14
13.64
15.77
17.43
18.64
19.58
20.44
21.37
22.45
23.69
25.08
26.62
28.28
29.96
31.45
32.45
32.72
32.19
30.97
29.28
27.34
25.23
22.91
20.38
17.68
14.96
12.29
9.63
6.78
3.50
-0.30
-4.51
-8.80
-12.84
-16.43
-19.66
-22.76
-26.05
-29.75
-33.95
-38.58
-43.42
-48.09
-52.08
-54.83
-55.86
-54.94
-52.14
-47.81
-42.35
-36.20
-29.59
-22.66
-15.52
-8.28
-1.19
5.51
11.61
16.92
21.26
24.32
25.72
25.03
22.06
16.97
10.35
3.11
-3.72
-9.22
-12.79
-14.18
-13.52
-11.19
-7.74
-3.73
0.33
4.14
7.49
10.30
12.47
13.94
14.66
14.70
14.23
13.50
12.78
12.24
12.00
12.09
12.55
13.37
14.54
16.01
17.73
19.65
21.75
24.04
26.54
29.24
32.13
35.25
38.62
42.37
46.59
51.27
56.32
61.54
66.76
71.94
77.30
83.29
90.35
98.70
108.18
118.28
128.28
137.57
145.83
153.17
159.97
166.66
173.40
179.86
185.29
188.83
189.82
188.12
184.01
177.84
169.65
158.94
144.79
126.33
103.25
76.14
46.36
15.62
-14.71
-44.07
-72.81
-101.99
-132.69
-165.52
-200.20
-235.67
-270.37
-302.61
-330.75
-353.01
-367.27
-371.27
-363.39
-343.63
-314.19
-278.96
-241.95
-205.51
-169.28
-130.86
-87.45
-37.90
16.34
71.83
124.77
172.62
214.69
251.61
284.04
311.58
332.65
345.30
348.42
342.64
330.41
315.10
299.61
285.12
270.67
253.87
232.35
205.20
173.69
140.76
109.64
82.51
59.69
40.08
22.18
5.19
-10.66
-24.55
-36.07
-45.87
-55.81
-68.23
-84.91
-106.16
-130.66
-155.90
-179.14
-198.10
-211.28
-217.73
-216.94
-209.01
-195.14
-177.88
-160.40
-144.93
-131.10
-115.56
-93.59
-62.23
-23.04
17.08
48.12
60.89
50.78
19.23
-27.47
-81.07
-134.14
-181.54
-220.21
-248.50
-265.84
-273.16
-273.38
-270.95
-270.50
-274.85
-283.68
-293.54
-299.21
-295.77
-280.31
-252.71
-215.43
-172.66
-129.15
-89.20
-55.89
-30.65
-13.21
-1.96
5.36
10.89
16.01
21.23
26.45
31.26
35.24
38.14
39.89
40.59
40.51
40.04
39.54
39.30
39.39
39.68
39.92
39.82
39.15
37.78
35.67
32.92
29.71
26.33
23.01
19.89
16.96
14.17
11.53
9.15
7.30
6.21
5.93
6.28
6.90
7.37
7.45
7.10
6.50
5.87
5.37
5.03
4.80
4.63
4.51
4.49
4.59
4.82
5.16
5.57
6.07
6.65
7.32
8.04
8.75
9.38
9.87
10.23
10.51
10.79
11.08
11.36
11.47
11.32
10.86
10.14
9.35
8.69
8.33
8.31
8.50
8.69
8.69
8.40
7.85
7.20
6.62
6.25
6.07
6.01
5.91
5.62
5.06
4.21
3.17
2.04
0.99
0.14
-0.34
-0.35
0.19
1.27
2.80
4.59
6.42
8.10
9.50
10.58
11.35
11.87
12.19
12.36
12.45
12.53
12.65
12.80
12.93
12.92
12.70
12.22
11.54
10.81
10.20
9.82
9.71
9.80
9.97
10.12
10.29
10.55
10.98
11.56
12.14
12.51
12.50
12.12
11.49
10.83
10.26
9.75
9.17
8.38
7.33
6.12
4.90
3.80
2.87
2.09
1.35
0.55
-0.39
-1.54
-2.87
-4.28
-5.57
-6.49
-6.83
-6.48
-5.46
-3.94
-2.17
-0.36
1.29
2.68
3.78
4.62
5.26
5.74
6.09
6.29
6.31
6.18
5.99
5.85
5.87
6.07
6.34
6.57
6.62
6.48
6.24
6.02
5.90
5.91
5.99
6.06
6.09
6.09
6.08
6.05
5.95
5.67
5.18
4.51
3.77
3.12
2.67
2.45
2.43
2.58
2.91
3.47
4.28
5.28
6.29
7.02
7.19
6.65
5.34
3.39
1.05
-1.41
-3.68
-5.55
-6.94
-7.87
-8.46
-8.84
-9.10
-9.23
-9.13
-8.70
-7.81
-6.47
-4.74
-2.76
-0.67
1.38
3.26
4.89
6.12
6.80
6.69
5.64
3.64
0.92
-2.01
-4.55
-6.20
-6.72
-6.17
-4.88
-3.25
-1.62
-0.20
0.84
1.40
1.39
0.76
-0.39
-1.89
-3.46
-4.89
-6.02
-6.82
-7.33
-7.64
-7.80
-7.83
-7.77
-7.63
-7.39
-7.02
-6.45
-5.69
-4.86
-4.17
-3.88
-4.14
-4.92
-5.97
-6.92
-7.40
-7.12
-6.00
-4.09
-1.63
1.06
3.63
5.78
7.29
8.09
8.25
7.90
7.17
6.21
5.10
3.99
3.03
2.36
2.12
2.27
2.73
3.31
3.86
4.29
4.61
4.88
5.19
5.61
6.15
6.79
7.47
8.13
8.75
9.36
10.00
10.70
11.45
12.20
12.84
13.27
13.41
13.26
12.93
12.57
12.32
12.25
12.33
12.42
12.34
11.95
11.20
10.13
8.84
7.39
5.81
4.07
2.23
0.41
-1.15
-2.18
-2.49
-2.01
-0.83
0.87
2.83
4.81
6.62
8.14
9.37
10.35
11.17
11.84
12.33
12.56
12.46
12.00
11.23
10.23
9.10
7.96
6.86
5.85
4.96
4.16
3.40
2.62
1.80
1.02
0.40
0.07
0.09
0.43
0.99
1.68
2.44
3.26
4.11
4.95
5.63
6.04
6.04
5.61
4.78
3.60
2.13
0.39
-1.60
-3.81
-6.10
-8.30
-10.23
-11.73
-12.70
-13.11
-12.94
-12.21
-11.05
-9.61
-8.13
-6.79
-5.75
-5.00
-4.45
-3.98
-3.49
-2.99
-2.52
-2.14
-1.83
-1.50
-0.97
-0.06
1.35
3.26
5.56
8.05
10.42
12.47
14.05
15.19
16.10
17.08
18.46
20.38
22.76
25.20
27.13
28.01
27.57
25.89
23.41
20.76
18.46
16.85
16.00
15.76
15.95
16.36
16.76
16.88
16.39
14.95
12.34
8.53
3.77
-1.50
-6.83
-11.81
-16.15
-19.67
-22.29
-23.96
-24.71
-24.70
-24.21
-23.59
-23.14
-23.04
-23.27
-23.68
-24.06
-24.29
-24.30
-24.11
-23.72
-23.14
-22.28
-21.08
-19.48
-17.44
-15.03
-12.37
-9.58
-6.75
-3.95
-1.24
1.30
3.53
5.35
6.71
7.71
8.46
9.14
9.82
10.43
10.84
10.88
10.52
9.77
8.79
7.72
6.69
5.77
4.98
4.36
3.89
3.57
3.34
3.06
2.53
1.57
-0.01
-2.25
-5.03
-8.06
-10.96
-13.42
-15.21
-16.22
-16.47
-16.01
-14.88
-13.13
-10.88
-8.28
-5.54
-2.81
-0.26
2.06
4.12
5.94
7.55
9.00
10.35
11.60
12.75
13.75
14.53
15.08
15.46
15.74
15.96
16.15
16.30
16.39
16.42
16.39
16.30
16.11
15.75
15.13
14.23
13.15
12.03
11.00
10.13
9.38
8.55
7.51
6.19
4.66
3.10
1.73
0.70
-0.04
-0.63
-1.26
-2.05
-3.03
-4.10
-5.12
-5.93
-6.41
-6.45
-5.95
-4.90
-3.29
-1.25
1.05
3.42
5.71
7.81
9.67
11.26
12.50
13.33
13.70
13.61
13.11
12.25
11.13
9.79
8.29
6.67
5.00
3.38
1.89
0.60
-0.50
-1.43
-2.22
-2.92
-3.54
-4.06
-4.49
-4.88
-5.31
-5.94
-6.97
-8.59
-10.97
-14.17
-18.10
-22.58
-27.34
-32.17
-37.04
-42.09
-47.66
-54.09
-61.57
-70.11
-79.50
-89.48
-99.84
-110.56
-121.71
-133.39
-145.61
-158.25
-171.07
-183.73
-195.86
-207.04
-216.79
-224.70
-230.64
-234.82
-237.82
-240.37
-243.07
-246.25
-249.95
-254.04
-258.40
-262.75
-266.48
-268.48
-267.25
-261.37
-250.04
-233.61
-213.49
-191.74
-170.40
-150.93
-133.99
-119.52
-107.01
-95.61
-84.41
-72.44
-58.94
-43.54
-26.39
-8.17
10.19
27.89
44.60
60.52
76.19
92.04
107.96
123.19
136.54
146.80
153.30
156.18
156.40
155.60
155.92
159.67
168.68
183.26
201.26
218.09
227.72
225.00
207.86
178.35
142.07
105.94
75.78
54.60
42.28
36.51
34.06
31.87
27.47
19.11
5.62
-13.48
-37.75
-65.72
-94.99
-122.46
-144.65
-158.57
-162.19
-154.94
-137.61
-111.72
-78.65
-39.22
5.97
55.69
107.31
156.97
200.57
235.05
259.29
273.99
280.65
280.47
273.77
260.31
240.31
215.27
188.08
162.27
140.87
125.65
117.05
114.71
118.05
126.27
138.02
151.04
162.26
168.71
168.83
163.42
155.50
148.91
146.21
147.15
148.54
145.89
135.92
118.42
96.50
74.91
57.63
45.77
37.32
28.40
15.57
-2.44
-24.16
-46.30
-65.45
-79.40
-87.74
-91.38
-91.59
-89.23
-84.43
-76.89
-66.56
-53.97
-40.20
-26.41
-13.06
0.75
17.03
37.99
64.61
95.81
128.50
158.43
181.26
193.11
190.79
172.15
137.02
88.41
33.14
-19.21
-58.92
-79.37
-79.31
-62.91
-37.62
-11.14
11.01
26.30
34.55
36.73
34.18
28.31
20.59
12.37
4.78
-1.54
-6.33
-9.50
-11.09
-11.23
-10.34
-9.07
-8.19
-8.13
-8.88
-9.83
-10.17
-9.22
-6.77
-3.11
1.11
5.31
9.20
12.93
16.78
20.85
24.83
27.97
29.52
29.13
27.19
24.76
23.22
23.65
26.41
31.01
36.32
41.10
44.45
45.99
45.88
44.56
42.51
40.13
37.67
35.24
32.88
30.55
28.08
25.29
22.05
18.35
14.36
10.41
6.82
3.81
1.36
-0.79
-2.95
-5.43
-8.31
-11.44
-14.50
-17.09
-18.87
-19.62
-19.34
-18.13
-16.19
-13.74
-11.02
-8.22
-5.58
-3.25
-1.32
0.22
1.50
2.71
4.00
5.46
7.05
8.60
9.87
10.67
10.89
10.62
10.03
9.40
8.96
8.81
8.95
9.23
9.47
9.48
9.15
8.47
7.51
6.44
5.43
4.62
4.13
4.03
4.29
4.82
5.46
5.99
6.14
5.71
4.62
2.93
0.82
-1.51
-3.92
-6.39
-8.97
-11.71
-14.58
-17.41
-19.93
-21.92
-23.17
-23.61
-23.23
-22.09
-20.28
-17.91
-15.19
-12.32
-9.49
-6.80
-4.23
-1.69
0.91
3.58
6.25
8.84
11.29
13.60
15.83
18.02
20.13
22.05
23.54
24.39
24.41
23.57
21.95
19.79
17.37
14.97
12.80
10.91
9.25
7.65
6.00
4.23
2.38
0.57
-1.03
-2.26
-3.04
-3.34
-3.25
-2.95
-2.65
-2.66
-3.30
-4.85
-7.48
-11.12
-15.43
-19.90
-24.01
-27.39
-29.97
-31.93
-33.52
-34.91
-36.10
-36.92
-37.21
-36.86
-35.90
-34.42
-32.49
-30.08
-27.11
-23.55
-19.48
-15.16
-10.94
-7.22
-4.31
-2.34
-1.16
-0.34
0.76
2.77
6.10
10.74
16.27
21.99
27.13
31.06
33.40
34.04
33.10
30.85
27.72
24.18
20.77
17.88
15.72
14.23
13.13
12.09
10.87
9.50
8.26
7.61
8.02
9.74
12.69
16.44
20.35
23.79
26.35
27.92
28.64
28.68
28.16
27.04
25.21
22.64
19.38
15.64
11.75
8.09
5.02
2.87
1.80
1.78
2.47
3.28
3.60
2.93
1.14
-1.54
-4.60
-7.54
-9.94
-11.65
-12.67
-13.16
-13.30
-13.33
-13.45
-13.84
-14.54
-15.44
-16.30
-16.83
-16.74
-15.98
-14.64
-13.00
-11.32
-9.79
-8.42
-7.06
-5.55
-3.80
-1.88
0.00
1.58
2.65
3.13
3.05
2.52
1.64
0.45
-0.99
-2.60
-4.25
-5.79
-7.04
-7.95
-8.55
-9.01
-9.52
-10.28
-11.40
-12.86
-14.50
-16.08
-17.30
-17.90
-17.68
-16.60
-14.75
-12.38
-9.78
-7.23
-4.93
-3.05
-1.65
-0.71
-0.15
0.23
0.65
1.28
2.20
3.30
4.34
5.09
5.43
5.35
5.03
4.69
4.50
4.54
4.82
5.26
5.76
6.21
6.47
6.45
6.07
5.28
4.11
2.62
0.96
-0.66
-1.97
-2.74
-2.85
-2.34
-1.42
-0.40
0.43
0.84
0.74
0.14
-0.88
-2.17
-3.54
-4.79
-5.70
-6.20
-6.37
-6.50
-6.98
-8.22
-10.42
-13.56
-17.38
-21.43
-25.23
-28.32
-30.33
-31.07
-30.51
-28.86
-26.55
-24.16
-22.25
-21.25
-21.28
-22.16
-23.50
-24.82
-25.67
-25.75
-24.90
-23.11
-20.53
-17.40
-14.09
-11.01
-8.49
-6.74
-5.80
-5.43
-5.22
-4.53
-2.62
1.19
7.26
15.46
25.10
35.02
43.87
50.52
54.29
55.02
53.07
49.07
43.82
38.16
32.82
28.32
24.78
21.87
18.92
15.21
10.33
4.44
-1.77
-7.40
-11.66
-14.28
-15.47
-15.80
-15.88
-16.13
-16.68
-17.47
-18.33
-19.10
-19.66
-19.91
-19.71
-18.92
-17.43
-15.15
-12.15
-8.62
-4.88
-1.32
1.77
4.24
6.17
7.80
9.36
10.91
12.33
13.35
13.75
13.47
12.66
11.61
10.56
9.66
8.88
8.08
7.17
6.07
4.83
3.56
2.38
1.45
0.89
0.80
1.22
2.04
3.09
4.12
4.91
5.33
5.33
4.95
4.27
3.39
2.40
1.36
0.33
-0.64
-1.56
-2.47
-3.43
-4.49
-5.66
-6.87
-8.01
-8.96
-9.68
-10.24
-10.80
-11.56
-12.61
-13.89
-15.15
-16.09
-16.38
-15.84
-14.45
-12.37
-9.88
-7.27
-4.86
-2.84
-1.35
-0.38
0.21
0.66
1.23
2.13
3.39
4.85
6.18
6.96
6.91
5.96
4.37
2.62
1.31
0.89
1.51
2.99
4.85
6.54
7.60
7.80
7.15
5.92
4.47
3.13
2.07
1.23
0.44
-0.54
-1.76
-3.14
-4.43
-5.36
-5.83
-5.90
-5.80
-5.79
-6.02
-6.47
-6.98
-7.38
-7.52
-7.38
-7.04
-6.66
-6.43
-6.51
-6.99
-7.90
-9.17
-10.69
-12.27
-13.65
-14.54
-14.66
-13.87
-12.25
-10.13
-7.96
-6.19
-5.09
-4.61
-4.50
-4.38
-4.00
-3.26
-2.30
-1.33
-0.51
0.09
0.50
0.78
0.93
0.90
0.67
0.29
-0.09
-0.28
-0.16
0.27
0.82
1.28
1.45
1.30
0.92
0.48
0.14
-0.01
0.04
0.26
0.57
0.90
1.24
1.56
1.87
2.18
2.40
2.40
1.96
0.90
-0.88
-3.35
-6.34
-9.50
-12.39
-14.51
-15.36
-14.63
-12.33
-8.87
-5.04
-1.78
0.13
0.33
-1.06
-3.51
-6.35
-9.00
-11.13
-12.61
-13.48
-13.83
-13.76
-13.37
-12.75
-12.04
-11.35
-10.71
-10.12
-9.44
-8.52
-7.14
-5.15
-2.56
0.43
3.41
5.87
7.42
7.93
7.57
6.71
5.75
4.89
4.12
3.27
2.18
0.79
-0.82
-2.54
-4.23
-5.75
-6.95
-7.58
-7.37
-6.06
-3.64
-0.31
3.48
7.25
10.71
13.74
16.38
18.67
20.49
21.59
21.71
20.79
19.06
16.96
14.94
13.24
11.81
10.40
8.75
6.75
4.44
1.94
-0.68
-3.37
-6.06
-8.58
-10.63
-11.88
-12.19
-11.68
-10.74
-9.79
-9.06
-8.47
-7.72
-6.54
-4.96
-3.33
-2.17
-1.86
-2.40
-3.43
-4.36
-4.73
-4.34
-3.31
-1.96
-0.54
0.81
2.04
3.08
3.81
4.00
3.53
2.48
1.17
0.09
-0.36
-0.07
0.79
1.82
2.66
3.15
3.30
3.27
3.14
2.93
2.59
2.16
1.81
1.82
2.37
3.39
4.49
5.09
4.70
3.17
0.77
-1.94
-4.32
-5.90
-6.48
-6.24
-5.59
-5.07
-5.22
-6.39
-8.61
-11.50
-14.42
-16.61
-17.56
-17.11
-15.54
-13.41
-11.27
-9.48
-8.11
-7.07
-6.21
-5.45
-4.80
-4.27
-3.83
-3.38
-2.80
-2.00
-1.02
-0.05
0.70
1.03
0.89
0.48
0.14
0.22
0.98
2.45
4.42
6.51
8.28
9.40
9.70
9.23
8.24
7.04
5.86
4.77
3.67
2.37
0.75
-1.16
-3.13
-4.86
-6.15
-6.95
-7.43
-7.80
-8.28
-8.96
-9.88
-11.03
-12.48
-14.29
-16.48
-18.86
-21.05
-22.54
-22.90
-22.00
-20.07
-17.57
-15.07
-13.04
-11.76
-11.30
-11.59
-12.43
-13.54
-14.57
-15.15
-15.13
-14.61
-13.96
-13.72
-14.29
-15.75
-17.81
-19.85
-21.24
-21.61
-21.07
-20.12
-19.40
-19.32
-19.85
-20.55
-20.67
-19.49
-16.52
-11.58
-4.86
3.07
11.26
18.43
23.24
24.60
22.11
16.12
7.57
-2.40
-12.96
-23.73
-34.55
-45.14
-54.74
-62.25
-66.64
-67.49
-65.32
-61.43
-57.40
-54.47
-53.16
-53.14
-53.39
-52.31
-48.05
-38.94
-24.04
-3.73
20.02
44.08
65.32
81.99
94.50
105.02
116.10
128.95
142.67
154.57
161.62
162.07
156.31
146.84
137.41
131.89
133.32
143.27
161.49
185.83
212.45
236.58
253.64
260.47
256.03
241.36
218.76
190.81
159.39
125.37
88.84
49.83
9.14
-31.24
-68.31
-98.91
-120.88
-133.82
-139.07
-138.92
-135.46
-129.81
-122.19
-112.54
-101.43
-90.27
-80.90
-74.66
-71.67
-70.76
-70.13
-68.28
-64.67
-59.78
-54.75
-50.70
-48.27
-47.48
-47.85
-48.75
-49.65
-50.29
-50.66
-50.91
-51.19
-51.52
-51.76
-51.66
-50.92
-49.31
-46.81
-43.62
-40.12
-36.76
-33.96
-31.94
-30.68
-29.97
-29.46
-28.81
-27.80
-26.39
-24.67
-22.88
-21.25
-19.98
-19.19
-18.82
-18.71
-18.59
-18.17
-17.30
-15.98
-14.46
-13.12
-12.33
-12.32
-13.04
-14.18
-15.36
-16.27
-16.78
-16.98
-17.00
-17.00
-17.06
-17.27
-17.76
-18.66
-20.03
-21.76
-23.48
-24.69
-24.97
-24.19
-22.59
-20.63
-18.83
-17.55
-16.85
-16.56
-16.39
-16.08
-15.46
-14.56
-13.55
-12.78
-12.56
-13.10
-14.37
-16.08
-17.76
-18.96
-19.45
-19.33
-19.06
-19.32
-20.74
-23.71
-28.16
-33.63
-39.28
-44.23
-47.70
-49.22
-48.75
-46.70
-43.85
-41.19
-39.61
-39.44
-40.24
-40.70
-39.10
-34.03
-25.10
-13.26
-0.56
10.57
18.21
21.51
20.83
17.41
12.87
8.78
6.33
6.18
8.19
11.37
13.84
13.24
7.48
-4.31
-21.10
-39.98
-56.97
-68.27
-71.35
-65.52
-51.86
-32.70
-11.06
9.95
27.76
40.83
49.14
54.07
57.85
62.55
69.19
77.35
85.52
91.91
95.26
95.08
91.57
85.23
76.56
66.22
55.03
43.93
33.73
24.81
17.00
9.82
2.78
-4.32
-11.25
-17.59
-22.87
-26.83
-29.49
-31.07
-31.89
-32.25
-32.39
-32.45
-32.47
-32.41
-32.22
-31.86
-31.39
-31.03
-31.05
-31.65
-32.91
-34.72
-36.83
-39.05
-41.25
-43.43
-45.64
-47.84
-49.92
-51.68
-52.94
-53.65
-53.91
-53.91
-53.82
-53.65
-53.22
-52.15
-50.02
-46.55
-41.71
-35.65
-28.63
-20.79
-12.19
-2.88
7.02
17.21
27.37
37.35
47.28
57.43
67.78
77.75
86.14
91.64
93.49
91.95
88.26
84.00
80.36
77.55
74.93
71.53
66.79
60.86
54.51
48.64
43.71
39.55
35.52
30.92
25.47
19.46
13.62
8.83
5.63
4.03
3.53
3.34
2.77
1.48
-0.42
-2.53
-4.33
-5.49
-6.00
-6.09
-6.18
-6.63
-7.61
-9.08
-10.76
-12.37
-13.71
-14.78
-15.77
-16.92
-18.44
-20.29
-22.14
-23.39
-23.35
-21.41
-17.31
-11.26
-3.85
4.11
11.87
18.93
25.07
30.24
34.46
37.68
39.88
41.15
41.76
42.09
42.56
43.33
44.29
44.94
44.64
42.76
38.98
33.31
26.19
18.34
10.53
3.41
-2.72
-7.90
-12.47
-16.88
-21.51
-26.43
-31.42
-36.08
-40.02
-43.10
-45.49
-47.62
-49.95
-52.72
-55.88
-59.09
-61.94
-64.13
-65.52
-66.11
-65.91
-64.96
-63.29
-60.98
-58.19
-54.89
-50.65
-44.61
-35.66
-22.82
-5.84
14.35
35.60
54.94
69.38
76.74
76.34
69.19
57.79
45.54
35.98
31.72
33.69
40.79
50.03
57.53
59.88
55.41
44.88
31.20
18.48
10.76
10.87
19.63
35.83
56.39
77.01
93.15
101.11
99.11
87.85
70.28
50.70
33.45
21.62
16.28
16.59
20.22
24.34
26.39
24.62
18.39
8.37
-3.88
-16.24
-26.50
-32.94
-34.73
-32.09
-26.20
-18.90
-12.15
-7.64
-6.38
-8.45
-13.13
-19.07
-24.79
-29.03
-31.15
-31.13
-29.52
-27.07
-24.50
-22.33
-20.86
-20.27
-20.61
-21.73
-23.36
-25.12
-26.68
-27.88
-28.75
-29.40
-29.87
-30.06
-29.76
-28.80
-27.27
-25.57
-24.24
-23.75
-24.17
-25.18
-26.18
-26.54
-25.95
-24.48
-22.55
-20.64
-19.10
-18.03
-17.37
-16.99
-16.83
-16.98
-17.53
-18.53
-19.86
-21.20
-22.17
-22.44
-21.87
-20.68
-19.38
-18.62
-18.87
-20.24
-22.41
-24.78
-26.72
-27.81
-27.84
-26.68
-24.23
-20.41
-15.36
-9.69
-4.38
-0.37
1.98
3.22
4.62
7.55
12.73
19.84
27.67
34.81
40.27
43.74
45.46
45.76
44.76
42.32
38.23
32.53
25.61
18.20
11.11
4.97
0.09
-3.66
-6.76
-9.94
-13.85
-18.85
-24.85
-31.35
-37.70
-43.33
-47.92
-51.38
-53.64
-54.52
-53.86
-51.64
-48.27
-44.52
-41.28
-39.13
-38.14
-37.82
-37.52
-36.78
-35.55
-34.19
-33.14
-32.58
-32.37
-32.19
-31.74
-30.82
-29.19
-26.46
-22.08
-15.67
-7.41
1.82
10.69
17.94
22.97
26.08
28.28
30.74
34.26
38.98
44.47
49.99
54.85
58.63
61.16
62.49
62.81
62.34
61.31
59.88
58.26
56.66
55.29
54.28
53.62
53.18
52.77
52.29
51.72
51.20
50.94
51.05
51.53
52.23
52.89
53.26
53.28
53.16
53.29
54.06
55.52
57.24
58.48
58.58
57.45
55.67
54.15
53.55
53.83
54.33
54.32
53.56
52.43
51.48
50.74
49.41
46.18
40.05
30.93
19.68
7.45
-5.18
-18.54
-33.57
-50.93
-70.23
-89.81
-107.25
-120.29
-127.56
-128.91
-125.16
-117.62
-107.60
-96.11
-83.98
-71.98
-61.04
-52.09
-45.75
-42.01
-40.05
-38.41
-35.63
-30.80
-23.91
-15.81
-7.64
-0.32
5.95
11.54
16.91
21.96
25.85
27.38
25.90
22.10
18.02
16.27
18.58
24.66
32.04
37.10
36.67
29.46
16.51
0.56
-15.16
-28.04
-36.66
-40.62
-40.26
-36.29
-29.55
-20.95
-11.44
-1.99
6.50
13.30
18.06
20.99
22.93
25.09
28.75
34.70
42.95
52.73
62.76
71.76
78.91
84.03
87.52
90.02
92.03
93.69
94.73
94.69
93.26
90.60
87.36
84.47
82.77
82.69
84.20
86.97
90.58
94.64
98.80
102.69
105.94
108.33
109.92
111.19
112.93
116.13
121.83
130.93
143.99
160.95
180.78
201.42
219.80
232.92
238.92
237.83
231.55
222.91
214.36
206.77
198.89
187.68
169.67
142.49
105.94
62.10
14.40
-33.68
-79.77
-123.09
-164.58
-205.56
-246.89
-288.66
-330.33
-370.70
-407.46
-436.49
-452.20
-450.45
-429.57
-391.68
-342.21
-287.80
-233.50
-180.79
-127.66
-70.95
-12.18
43.67
89.63
119.68
130.88
123.43
99.80
63.47
18.06
-37.44
-103.72
-179.19
-258.85
-335.66
-403.41
-458.48
-500.18
-530.07
-556.64
-588.04
-628.84
-678.01
-730.16
-779.40
-821.55
-854.91
-843.26
-763.08
-610.52
-406.94
-188.06
14.50
183.04
313.47
409.73
478.71
522.01
540.36
535.84
513.45
479.90
440.97
400.23
359.46
319.59
277.03
228.15
171.22
107.49
45.13
-10.57
-57.39
-95.88
-133.38
-173.57
-216.50
-258.18
-291.28
-308.06
-304.99
-283.79
-250.64
-209.75
-168.84
-134.13
-107.96
-89.05
-74.51
-62.53
-52.36
-43.77
-36.13
-28.65
-20.43
-10.90
-0.22
10.77
20.40
27.47
31.73
34.00
35.69
38.23
42.47
48.38
55.14
61.44
66.33
69.72
72.37
75.54
80.54
88.12
98.21
109.84
121.56
132.13
141.02
148.67
156.18
164.94
175.92
189.20
203.90
218.61
232.03
243.75
254.39
265.43
278.65
295.30
315.60
338.87
363.83
388.90
412.18
431.30
443.80
447.99
443.90
433.82
421.71
411.78
406.69
406.85
410.77
416.81
424.73
436.14
453.41
477.49
506.19
533.91
553.14
556.66
540.27
504.09
452.23
390.98
326.41
262.75
201.97
144.55
89.78
37.34
-12.36
-58.43
-100.31
-138.37
-173.78
-207.84
-241.05
-274.19
-307.19
-339.32
-369.46
-396.61
-420.52
-441.74
-461.09
-479.12
-497.43
-517.03
-537.98
-559.15
-578.74
-595.12
-607.32
-615.07
-608.17
-578.68
-523.78
-448.51
-363.54
-279.74
-204.27
-140.05
-87.02
-43.56
-9.18
16.60
34.64
46.73
55.27
62.46
69.79
77.85
86.67
94.78
100.73
103.62
103.75
102.34
100.78
100.02
100.36
101.63
102.59
101.99
98.69
92.47
83.84
73.38
61.74
49.41
36.87
24.39
12.43
1.33
-7.97
-14.31
-16.82
-15.01
-9.19
-0.15
10.82
22.26
32.18
39.10
41.96
39.87
32.49
19.56
1.25
-21.75
-44.73
-65.80
-83.69
-97.79
-108.29
-115.51
-120.43
-123.93
-126.39
-127.59
-127.76
-126.75
-124.62
-122.17
-120.04
-119.37
-120.75
-123.77
-126.79
-128.53
-127.54
-122.84
-116.77
-108.31
-97.56
-84.98
-71.15
-56.38
-41.41
-25.47
-4.73
23.27
61.11
108.20
159.96
208.58
247.27
270.24
275.74
266.11
245.81
219.84
191.16
161.05
128.76
96.80
67.32
42.43
23.30
9.54
-0.00
-7.22
-13.64
-19.77
-24.91
-28.44
-29.77
-28.82
-26.36
-23.39
-21.10
-20.20
-20.67
-21.63
-22.39
-22.31
-21.13
-19.14
-16.83
-14.85
-13.60
-13.08
-12.87
-12.61
-11.97
-10.82
-9.26
-7.58
-6.10
-5.02
-4.33
-3.86
-3.43
-2.89
-2.17
-1.28
-0.35
0.46
0.80
0.71
0.22
-0.58
-1.54
-2.48
-3.29
-4.00
-4.76
-5.85
-7.45
-9.65
-12.28
-15.00
-17.50
-19.57
-21.37
-23.31
-25.90
-29.46
-33.97
-38.91
-43.60
-47.48
-50.43
-52.99
-56.13
-60.81
-67.51
-75.83
-84.33
-91.41
-95.96
-97.75
-97.47
-95.95
-92.94
-86.47
-74.18
-54.19
-27.30
3.13
32.97
59.36
81.28
98.47
109.72
112.50
104.85
87.89
67.15
50.68
44.65
49.28
58.02
60.78
49.51
23.01
-12.69
-47.59
-72.37
-81.75
-74.92
-54.45
-25.31
6.41
34.41
53.55
61.72
60.30
54.23
49.41
49.76
55.63
64.55
73.46
80.64
86.41
92.10
98.49
104.63
108.27
107.19
100.95
91.24
81.26
74.47
72.61
75.37
80.21
83.89
83.21
76.39
62.97
43.61
19.18
-8.74
-37.26
-62.16
-78.86
-84.22
-77.83
-63.64
-48.11
-37.39
-34.79
-39.82
-49.33
-59.84
-69.17
-76.97
-84.08
-91.00
-97.25
-101.66
-103.32
-102.48
-100.59
-99.60
-101.06
-105.34
-111.36
-117.06
-120.13
-118.81
-112.27
-100.62
-84.65
-64.87
-41.59
-14.91
14.93
46.99
79.46
109.54
134.03
150.00
155.50
150.00
134.48
111.04
81.97
50.16
18.07
-12.27
-39.16
-60.88
-75.90
-82.75
-80.61
-69.91
-52.62
-32.13
-12.54
2.41
10.22
10.06
2.65
-10.59
-27.95
-47.93
-69.64
-92.15
-114.09
-133.07
-145.91
-149.02
-139.30
-114.70
-74.59
-20.19
45.01
114.63
179.29
228.66
254.53
253.83
230.08
192.23
151.06
115.26
88.76
70.89
58.57
48.99
41.04
35.04
31.41
29.51
27.62
23.88
17.44
9.03
0.69
-5.52
-8.43
-8.26
-6.41
-4.77
-4.88
-7.24
-11.20
-15.38
-18.33
-19.22
-18.12
-15.90
-13.73
-12.58
-12.82
-14.11
-15.68
-16.74
-16.81
-15.88
-14.36
-12.83
-11.80
-11.47
-11.71
-12.19
-12.51
-12.42
-11.84
-10.91
-9.85
-8.91
-8.24
-7.87
-7.71
-7.64
-7.50
-7.22
-6.80
-6.32
-5.92
-5.71
-5.79
-6.08
-6.47
-6.73
-6.70
-6.32
-5.74
-5.27
-5.24
-5.85
-7.05
-8.47
-9.61
-10.04
-9.63
-8.71
-7.95
-8.08
-9.51
-12.08
-15.06
-17.41
-18.32
-17.59
-15.85
-14.36
-14.38
-16.60
-20.68
-25.35
-28.92
-30.27
-29.14
-26.46
-23.84
-22.73
-23.93
-27.53
-33.23
-40.29
-47.28
-51.58
-49.69
-38.34
-16.21
14.50
48.52
79.30
101.64
114.01
118.73
119.95
120.72
121.02
117.97
108.32
91.03
68.73
46.52
29.47
20.15
17.71
18.89
19.62
17.23
10.97
1.76
-8.77
-19.15
-28.29
-35.60
-40.74
-43.77
-44.98
-44.96
-44.15
-42.65
-40.58
-38.04
-35.32
-32.89
-31.16
-30.21
-29.81
-29.65
-29.42
-29.00
-28.31
-27.42
-26.21
-24.52
-22.21
-19.27
-16.09
-13.70
-13.57
-16.62
-22.17
-27.11
-26.60
-15.96
7.01
40.60
79.57
116.75
145.40
160.86
161.32
147.56
122.59
91.06
58.56
30.67
11.42
2.34
2.08
7.37
14.56
21.01
25.50
27.59
27.26
24.41
19.09
11.83
3.61
-4.50
-11.79
-18.06
-23.76
-29.08
-34.57
-40.20
-45.39
-49.36
-51.47
-51.51
-49.73
-46.85
-43.91
-41.32
-39.33
-37.81
-36.45
-34.93
-33.07
-30.83
-28.46
-26.22
-24.29
-22.77
-21.55
-20.55
-19.67
-18.88
-18.19
-17.66
-17.25
-16.87
-16.46
-15.93
-15.45
-15.29
-15.74
-16.99
-18.95
-21.22
-23.25
-24.59
-25.06
-25.10
-25.47
-27.00
-30.14
-34.73
-39.90
-44.47
-47.55
-48.80
-49.02
-49.53
-51.62
-55.93
-62.00
-68.24
-72.60
-73.96
-71.55
-66.32
-60.08
-54.58
-50.81
-49.27
-49.81
-51.96
-54.48
-54.70
-48.98
-33.73
-7.89
25.40
59.14
85.14
97.73
96.56
86.45
74.31
65.43
61.01
58.45
54.02
45.71
34.44
23.20
14.81
10.15
7.79
5.31
0.75
-6.00
-13.45
-19.61
-23.14
-23.87
-22.93
-22.11
-23.01
-26.38
-31.79
-38.05
-43.89
-48.56
-52.26
-55.68
-59.86
-65.67
-73.41
-82.69
-92.66
-102.40
-111.32
-119.40
-126.57
-133.06
-139.03
-144.39
-148.68
-151.15
-150.86
-146.55
-140.07
-132.15
-123.43
-114.45
-105.64
-97.28
-89.61
-82.85
-77.20
-72.94
-69.82
-67.64
-66.18
-65.21
-64.46
-63.72
-62.82
-61.68
-60.34
-58.55
-56.23
-53.38
-50.07
-46.40
-42.50
-38.51
-34.59
-30.90
-27.41
-24.14
-21.09
-18.29
-15.81
-13.66
-11.92
-10.65
-9.95
-9.76
-10.06
-10.80
-11.92
-13.37
-15.04
-16.92
-18.92
-21.04
-23.22
-25.45
-27.75
-30.10
-32.53
-34.98
-37.41
-39.73
-41.84
-43.65
-45.08
-46.08
-46.58
-46.55
-45.91
-44.58
-42.45
-39.45
-35.55
-30.78
-25.23
-19.00
-12.23
-5.01
2.55
10.31
18.07
25.55
32.38
38.21
42.76
45.94
47.96
49.27
50.45
52.08
54.48
57.69
61.48
65.48
69.42
73.25
77.15
81.45
86.28
91.48
96.50
100.62
103.17
104.08
103.95
104.05
105.87
110.66
118.91
130.18
143.50
157.67
171.92
186.12
200.77
216.76
235.20
257.17
283.52
314.11
347.12
378.70
403.57
416.57
414.62
398.09
370.68
337.97
305.14
275.31
248.99
225.01
201.93
179.23
157.50
138.04
121.98
109.79
101.18
95.47
91.87
89.87
89.19
89.50
90.05
89.55
86.36
79.02
66.97
50.89
32.52
14.14
-2.54
-16.86
-29.51
-41.78
-54.87
-69.04
-83.64
-97.28
-108.56
-116.40
-120.30
-120.23
-116.46
-109.49
-100.08
-89.44
-78.86
-69.51
-61.92
-55.87
-50.59
-45.27
-39.54
-33.44
-27.39
-21.63
-16.13
-10.62
-4.91
0.92
6.46
11.15
14.53
16.47
17.37
18.06
19.67
23.31
29.59
38.29
48.23
57.72
65.08
69.44
70.91
70.53
69.69
69.54
70.67
73.14
76.73
81.17
86.18
91.33
95.95
99.10
99.88
97.88
93.52
87.96
82.60
78.15
73.98
68.09
57.73
40.55
15.55
-16.56
-53.54
-92.30
-129.40
-161.68
-186.46
-202.18
-208.62
-207.10
-200.07
-190.19
-179.42
-168.37
-156.49
-142.61
-125.83
-105.87
-83.13
-58.32
-32.30
-5.94
19.86
44.18
66.18
85.24
101.16
114.01
124.18
132.19
138.71
144.46
149.98
155.49
160.61
164.38
165.26
161.53
151.65
134.56
109.97
78.32
40.88
-0.38
-42.93
-83.94
-120.61
-150.57
-172.29
-185.19
-189.80
-187.48
-180.14
-169.77
-158.15
-146.53
-135.64
-125.82
-117.01
-108.99
-101.41
-93.94
-86.37
-78.77
-71.35
-64.45
-58.36
-53.08
-48.26
-43.36
-37.78
-31.13
-23.34
-14.69
-5.68
3.05
10.93
17.55
22.62
26.04
27.80
27.83
25.89
21.31
13.11
0.34
-17.32
-39.20
-63.52
-87.72
-109.24
-126.13
-137.53
-143.53
-144.91
-142.60
-137.45
-129.95
-120.25
-108.29
-93.95
-77.30
-58.70
-38.88
-18.85
0.18
17.01
30.59
40.19
45.82
48.49
50.17
53.19
59.46
69.66
82.90
97.28
110.64
121.57
129.75
135.53
139.17
140.44
138.58
132.78
122.85
109.41
93.79
77.40
61.18
45.41
29.97
14.85
0.45
-12.29
-22.24
-28.59
-31.13
-30.27
-26.83
-21.73
-15.76
-9.76
-4.42
-0.40
1.81
2.02
0.34
-2.85
-7.04
-11.63
-15.96
-19.32
-21.13
-21.21
-19.91
-18.03
-16.47
-15.76
-15.82
-16.01
-15.69
-14.56
-13.09
-12.20
-12.78
-15.29
-19.47
-24.47
-29.31
-33.31
-36.34
-38.87
-41.49
-44.55
-47.73
-49.86
-49.35
-44.72
-35.25
-21.20
-3.89
14.87
33.14
49.25
61.98
70.78
76.13
79.88
84.90
93.74
106.86
121.26
130.84
128.45
109.09
72.55
24.09
-27.21
-71.68
-102.23
-116.09
-114.55
-101.73
-82.67
-62.12
-43.89
-30.57
-23.41
-22.18
-25.49
-31.03
-36.18
-38.69
-37.15
-31.46
-22.81
-13.29
-5.29
-0.69
-0.25
-3.44
-8.72
-14.18
-18.26
-20.14
-19.98
-18.61
-17.09
-16.19
-16.13
-16.49
-16.49
-15.45
-13.11
-9.77
-6.13
-2.98
-0.86
0.10
0.22
0.07
0.14
0.72
1.79
3.04
4.08
4.56
4.35
3.60
2.58
1.55
0.72
0.13
-0.30
-0.67
-1.08
-1.58
-2.16
-2.95
-4.08
-5.65
-7.64
-9.83
-11.97
-13.79
-15.28
-16.51
-17.69
-18.98
-20.37
-21.79
-23.00
-23.80
-24.00
-23.59
-22.65
-21.32
-19.85
-18.44
-17.27
-16.42
-15.83
-15.38
-14.99
-14.51
-13.86
-12.92
-11.60
-9.92
-7.94
-5.86
-3.86
-2.13
-0.74
0.27
0.87
1.14
1.15
1.07
1.05
1.17
1.43
1.75
1.96
1.90
1.57
0.98
0.22
-0.63
-1.48
-2.27
-2.94
-3.54
-4.10
-4.67
-5.29
-5.94
-6.63
-7.36
-8.15
-9.01
-9.93
-10.86
-11.69
-12.41
-13.00
-13.49
-13.90
-14.14
-14.14
-13.70
-12.75
-11.29
-9.46
-7.41
-5.31
-3.27
-1.38
0.35
1.91
3.31
4.55
5.67
6.68
7.62
8.42
9.02
9.29
9.20
8.80
8.24
7.69
7.26
6.98
6.76
6.50
6.09
5.50
4.80
4.10
3.44
2.86
2.40
2.07
1.87
1.77
1.67
1.43
0.97
0.27
-0.63
-1.62
-2.63
-3.70
-4.87
-6.16
-7.50
-8.70
-9.55
-9.94
-9.91
-9.69
-9.53
-9.60
-9.89
-10.28
-10.54
-10.47
-9.92
-8.90
-7.45
-5.73
-3.82
-1.91
-0.15
1.34
2.51
3.39
4.11
4.85
5.71
6.70
7.66
8.37
8.66
8.45
7.84
6.99
6.13
5.39
4.83
4.42
4.08
3.82
3.59
3.43
3.32
3.30
3.31
3.30
3.22
2.97
2.57
1.96
1.12
0.06
-1.20
-2.65
-4.28
-6.03
-7.77
-9.30
-10.48
-11.21
-11.43
-11.24
-10.74
-10.09
-9.39
-8.75
-8.21
-7.77
-7.45
-7.13
-6.76
-6.24
-5.54
-4.70
-3.85
-3.12
-2.61
-2.36
-2.22
-2.05
-1.66
-0.94
0.05
1.13
2.13
2.93
3.56
4.14
4.81
5.64
6.59
7.48
8.06
8.14
7.64
6.64
5.33
3.92
2.57
1.36
0.18
-1.04
-2.34
-3.63
-4.81
-5.77
-6.57
-7.28
-7.99
-8.75
-9.48
-10.12
-10.59
-10.88
-11.09
-11.32
-11.57
-11.79
-11.89
-11.77
-11.35
-10.59
-9.58
-8.34
-6.96
-5.54
-4.19
-3.01
-2.06
-1.33
-0.77
-0.33
0.07
0.50
1.02
1.61
2.25
2.89
3.49
4.00
4.48
4.95
5.44
5.97
6.47
6.87
7.05
6.94
6.50
5.78
4.84
3.71
2.47
1.23
0.15
-0.69
-1.26
-1.68
-2.11
-2.72
-3.61
-4.69
-5.81
-6.77
-7.55
-8.30
-9.23
-10.61
-12.42
-14.50
-16.51
-18.17
-19.20
-19.49
-19.00
-17.70
-15.62
-12.80
-9.42
-5.75
-2.21
0.88
3.35
5.17
6.50
7.47
8.30
9.03
9.71
10.24
10.57
10.63
10.36
9.90
9.37
8.95
8.72
8.68
8.64
8.42
7.79
6.66
5.06
3.14
1.05
-1.01
-2.92
-4.49
-5.66
-6.41
-6.90
-7.36
-8.04
-9.14
-10.63
-12.38
-14.16
-15.73
-16.87
-17.42
-17.20
-16.10
-14.14
-11.45
-8.36
-5.28
-2.53
-0.29
1.52
3.11
4.74
6.51
8.37
10.19
11.76
13.02
13.96
14.67
15.18
15.45
15.45
15.13
14.61
14.02
13.56
13.28
13.12
12.87
12.33
11.31
9.85
8.12
6.37
4.80
3.45
2.20
0.86
-0.75
-2.70
-4.95
-7.30
-9.63
-11.82
-13.83
-15.70
-17.46
-19.13
-20.71
-22.25
-23.68
-24.93
-25.87
-26.19
-25.59
-23.82
-20.77
-16.62
-11.73
-6.59
-1.65
2.83
6.77
10.16
13.02
15.36
17.09
18.17
18.63
18.56
18.14
17.57
16.97
16.44
16.00
15.69
15.55
15.58
15.76
16.00
16.20
16.23
16.01
15.53
14.79
13.87
12.90
11.94
11.07
10.28
9.48
8.56
7.48
6.20
4.79
3.31
1.78
0.20
-1.45
-3.17
-4.92
-6.61
-8.17
-9.57
-10.92
-12.34
-13.89
-15.60
-17.47
-19.49
-21.68
-24.04
-26.52
-28.88
-30.75
-31.62
-31.07
-28.92
-25.28
-20.55
-15.34
-10.26
-5.70
-1.85
1.34
4.01
6.37
8.60
10.79
12.88
14.75
16.28
17.35
17.97
18.18
18.14
17.96
17.72
17.38
16.91
16.35
15.76
15.27
14.96
14.80
14.74
14.66
14.51
14.26
13.91
13.41
12.71
11.81
10.69
9.49
8.36
7.43
6.71
6.16
5.63
5.04
4.34
3.53
2.68
1.80
0.93
-0.01
-1.10
-2.47
-4.13
-6.04
-8.06
-9.99
-11.71
-13.16
-14.36
-15.39
-16.31
-17.19
-18.00
-18.70
-19.27
-19.62
-19.65
-19.24
-18.29
-16.70
-14.44
-11.59
-8.33
-4.93
-1.67
1.21
3.61
5.48
6.95
8.18
9.33
10.47
11.61
12.65
13.52
14.10
14.30
14.14
13.71
13.11
12.46
11.85
11.29
10.84
10.52
10.41
10.63
11.23
12.23
13.38
14.39
14.88
14.60
13.51
11.78
9.70
7.54
5.47
3.53
1.68
-0.10
-1.70
-2.95
-3.65
-3.77
-3.46
-3.01
-2.70
-2.75
-3.17
-3.79
-4.40
-4.87
-5.17
-5.49
-6.03
-6.94
-8.29
-10.00
-11.88
-13.65
-15.11
-16.02
-16.29
-15.78
-14.44
-12.29
-9.48
-6.33
-3.21
-0.51
1.55
2.88
3.67
4.13
4.48
4.74
4.87
4.74
4.32
3.71
3.09
2.67
2.51
2.58
2.77
2.96
3.05
3.03
2.96
2.87
2.79
2.75
2.69
2.60
2.46
2.27
2.01
1.76
1.52
1.30
1.08
0.81
0.48
0.15
-0.20
-0.65
-1.32
-2.39
-3.89
-5.73
-7.64
-9.30
-10.47
-11.04
-11.19
-11.19
-11.37
-11.96
-12.97
-14.26
-15.50
-16.30
-16.29
-15.32
-13.49
-11.12
-8.55
-6.10
-3.91
-2.04
-0.42
0.97
2.11
2.91
3.27
3.18
2.74
2.10
1.45
0.93
0.61
0.56
0.75
1.14
1.68
2.27
2.75
2.99
2.89
2.45
1.75
0.88
-0.13
-1.21
-2.35
-3.48
-4.49
-5.30
-5.96
-6.62
-7.44
-8.53
-9.82
-11.23
-12.51
-13.54
-14.32
-14.93
-15.49
-16.12
-16.85
-17.62
-18.36
-18.88
-18.96
-18.40
-17.13
-15.17
-12.73
-10.09
-7.53
-5.25
-3.30
-1.62
-0.11
1.38
2.98
4.78
6.80
9.05
11.42
13.83
16.12
18.21
20.02
21.53
22.74
23.66
24.38
24.94
25.45
25.96
26.43
26.79
26.93
26.75
26.26
25.50
24.49
23.27
21.81
20.09
18.06
15.71
12.94
9.73
6.13
2.23
-1.67
-5.24
-8.18
-10.40
-12.04
-13.47
-14.98
-16.68
-18.40
-19.77
-20.38
-20.03
-18.67
-16.56
-14.09
-11.64
-9.49
-7.82
-6.64
-5.95
-5.68
-5.65
-5.72
-5.80
-5.88
-5.95
-6.14
-6.50
-7.08
-7.80
-8.50
-9.06
-9.38
-9.51
-9.43
-9.20
-8.73
-8.03
-7.07
-5.95
-4.85
-3.92
-3.30
-2.99
-2.94
-3.09
-3.43
-4.00
-4.79
-5.74
-6.71
-7.54
-8.23
-8.79
-9.28
-9.73
-10.10
-10.28
-10.25
-10.05
-9.88
-9.96
-10.47
-11.43
-12.68
-13.98
-14.97
-15.32
-14.74
-13.11
-10.51
-7.18
-3.55
0.04
3.27
5.97
8.13
9.82
11.16
12.30
13.39
14.53
15.74
17.02
18.27
19.40
20.39
21.19
21.70
21.87
21.60
20.89
19.85
18.62
17.36
16.06
14.64
12.98
11.15
9.31
7.70
6.50
5.69
5.10
4.42
3.42
2.03
0.33
-1.50
-3.32
-5.09
-6.91
-8.89
-11.24
-14.02
-17.29
-21.02
-25.10
-29.17
-32.56
-34.57
-34.42
-31.76
-26.70
-19.90
-12.36
-4.93
1.82
7.74
12.75
16.85
19.78
21.28
21.16
19.48
16.52
12.66
8.17
3.05
-2.71
-9.10
-15.79
-22.21
-27.68
-31.56
-33.49
-33.33
-31.10
-26.79
-20.49
-12.25
-2.24
9.14
21.46
34.23
47.23
60.42
73.94
87.79
101.60
114.41
124.55
130.04
128.96
120.13
103.61
80.96
54.85
28.54
4.96
-14.06
-27.96
-37.30
-43.24
-46.92
-48.99
-49.63
-48.70
-45.86
-40.99
-34.10
-25.42
-15.51
-5.17
4.60
12.72
18.48
21.73
22.93
23.06
23.19
24.17
26.40
29.85
34.13
38.74
43.26
47.31
50.61
52.99
54.20
54.07
52.39
48.89
43.31
35.47
25.25
12.81
-1.31
-16.40
-31.50
-45.67
-58.07
-68.01
-74.98
-78.76
-79.34
-77.13
-72.94
-67.85
-62.94
-59.00
-56.25
-54.37
-52.83
-51.16
-49.13
-46.82
-44.31
-41.53
-38.13
-33.55
-27.40
-19.69
-10.86
-1.52
7.71
16.50
24.72
32.36
39.35
45.49
50.40
53.65
54.87
53.82
50.49
45.06
38.00
29.93
21.51
13.28
5.54
-1.72
-8.72
-15.60
-22.35
-28.65
-34.07
-38.25
-41.09
-42.73
-43.55
-44.01
-44.39
-44.88
-45.49
-46.20
-47.06
-48.08
-49.33
-50.78
-52.31
-53.66
-54.55
-54.84
-54.57
-54.05
-53.67
-53.76
-54.32
-54.95
-55.01
-53.89
-51.28
-47.25
-42.27
-36.86
-31.60
-26.93
-23.08
-20.26
-18.56
-17.85
-17.85
-18.21
-18.46
-18.31
-17.68
-16.59
-15.16
-13.49
-11.47
-8.97
-5.98
-2.63
0.59
2.92
3.66
2.33
-1.03
-5.73
-10.78
-15.14
-18.17
-19.99
-21.34
-23.33
-27.00
-32.88
-40.78
-49.97
-59.44
-68.35
-76.30
-83.30
-89.55
-95.34
-100.64
-105.05
-107.78
-107.63
-102.94
-91.92
-72.97
-45.25
-9.21
33.27
79.33
125.81
170.26
211.60
250.02
286.30
320.63
351.68
376.38
390.66
390.90
375.43
345.30
303.95
255.90
205.30
154.84
105.82
58.84
14.78
-24.86
-58.38
-84.82
-104.54
-119.10
-130.69
-140.83
-149.97
-157.42
-161.97
-162.63
-159.27
-152.54
-143.62
-133.85
-124.21
-115.23
-106.88
-98.74
-90.03
-80.05
-68.49
-55.67
-42.45
-29.86
-18.60
-8.74
0.16
8.64
16.82
24.24
30.11
33.83
35.57
36.22
36.99
38.74
41.46
44.40
46.74
48.21
49.45
51.67
55.76
61.44
66.84
68.88
64.14
50.05
25.35
-9.81
-54.38
-106.62
-164.29
-224.34
-282.90
-335.78
-379.16
-410.25
-427.55
-430.29
-417.71
-388.74
-342.40
-278.97
-201.00
-113.65
-23.95
60.73
134.33
193.12
235.77
262.95
276.38
278.33
271.28
257.81
240.35
221.29
202.60
185.65
171.12
158.94
148.54
139.12
130.00
120.88
111.89
103.41
95.77
89.08
83.14
77.51
71.73
65.52
58.95
52.39
46.41
41.50
37.92
35.46
33.57
31.58
28.96
25.59
21.69
17.76
14.20
11.22
8.68
6.21
3.52
0.49
-2.76
-6.02
-9.03
-11.73
-14.21
-16.63
-19.15
-21.72
-24.10
-25.95
-26.92
-26.87
-25.89
-24.36
-22.75
-21.44
-20.59
-20.25
-20.38
-21.04
-22.45
-24.96
-28.72
-33.60
-39.01
-43.93
-47.32
-48.14
-45.65
-39.45
-29.43
-15.53
2.33
24.35
50.73
81.32
115.48
151.94
188.83
223.81
254.21
277.25
290.15
290.74
277.89
252.30
216.69
175.39
133.46
95.41
64.16
40.56
23.90
12.40
4.20
-2.39
-8.75
-15.98
-24.95
-36.22
-49.79
-64.88
-80.22
-94.22
-105.53
-113.39
-117.69
-118.96
-118.07
-115.96
-113.27
-110.31
-106.93
-102.80
-97.65
-91.44
-84.54
-77.47
-70.74
-64.61
-59.09
-53.94
-48.95
-43.98
-39.08
-34.43
-30.17
-26.28
-22.60
-18.99
-15.35
-11.85
-8.77
-6.37
-4.81
-4.04
-3.82
-3.86
-3.98
-4.10
-4.25
-4.47
-4.71
-4.94
-5.11
-5.26
-5.48
-5.96
-6.80
-8.01
-9.52
-11.06
-12.49
-13.64
-14.50
-15.10
-15.57
-16.03
-16.54
-17.04
-17.31
-17.05
-15.88
-13.66
-10.45
-6.67
-2.88
0.36
2.68
4.00
4.51
4.51
4.32
4.09
3.93
3.85
3.83
3.79
3.68
3.48
3.18
2.81
2.27
1.48
0.38
-0.97
-2.37
-3.50
-4.03
-3.86
-3.18
-2.31
-1.67
-1.45
-1.62
-1.95
-2.20
-2.24
-2.11
-2.09
-2.36
-3.06
-4.21
-5.65
-7.21
-8.74
-10.12
-11.25
-12.04
-12.34
-12.11
-11.45
-10.59
-9.82
-9.36
-9.21
-9.10
-8.71
-7.67
-5.94
-3.73
-1.38
0.68
2.24
3.21
3.75
4.00
4.12
4.13
3.99
3.68
3.23
2.78
2.54
2.67
3.15
3.83
4.42
4.69
4.61
4.29
3.97
3.89
4.03
4.19
4.08
3.45
2.24
0.66
-1.00
-2.42
-3.35
-3.84
-4.05
-4.27
-4.73
-5.52
-6.51
-7.55
-8.46
-9.07
-9.41
-9.53
-9.54
-9.52
-9.51
-9.58
-9.83
-10.34
-11.00
-11.61
-11.78
-11.15
-9.56
-7.14
-4.25
-1.34
1.27
3.39
4.99
6.16
7.02
7.63
8.11
8.56
9.07
9.65
10.16
10.32
9.93
8.88
7.22
5.25
3.31
1.76
0.78
0.40
0.51
0.92
1.48
1.98
2.35
2.49
2.36
1.89
1.09
-0.01
-1.37
-2.96
-4.78
-6.72
-8.63
-10.27
-11.40
-11.87
-11.65
-10.94
-10.02
-9.14
-8.45
-7.99
-7.62
-7.24
-6.68
-5.81
-4.52
-2.78
-0.65
1.65
3.86
5.77
7.25
8.22
8.69
8.67
8.30
7.68
7.00
6.40
5.95
5.63
5.33
4.93
4.38
3.75
3.10
2.50
1.90
1.22
0.36
-0.64
-1.66
-2.62
-3.36
-3.94
-4.36
-4.74
-5.11
-5.51
-5.88
-6.25
-6.66
-7.08
-7.45
-7.64
-7.55
-7.22
-6.77
-6.45
-6.49
-7.04
-8.07
-9.46
-10.91
-12.12
-12.77
-12.52
-11.28
-9.03
-6.10
-2.85
0.20
2.70
4.48
5.57
6.15
6.39
6.47
6.44
6.42
6.42
6.50
6.69
6.94
7.15
7.14
6.84
6.19
5.33
4.44
3.75
3.39
3.30
3.33
3.20
2.78
2.07
1.30
0.72
0.49
0.65
0.92
1.03
0.75
0.01
-1.16
-2.58
-4.09
-5.58
-6.97
-8.26
-9.43
-10.47
-11.41
-12.26
-13.11
-14.01
-15.03
-16.08
-16.99
-17.45
-17.09
-15.69
-13.22
-9.96
-6.40
-3.13
-0.54
1.15
2.08
2.61
3.07
3.74
4.64
5.61
6.45
7.08
7.46
7.73
8.02
8.41
8.86
9.33
9.73
10.05
10.30
10.46
10.51
10.36
9.93
9.16
8.08
6.73
5.23
3.69
2.23
0.97
0.01
-0.55
-0.65
-0.35
0.21
0.83
1.24
1.26
0.77
-0.27
-1.72
-3.31
-4.85
-6.13
-7.09
-7.75
-8.19
-8.48
-8.73
-9.05
-9.46
-10.02
-10.62
-11.02
-10.87
-9.80
-7.66
-4.59
-1.06
2.35
5.07
6.81
7.59
7.75
7.72
7.90
8.46
9.34
10.33
11.10
11.42
11.16
10.32
9.04
7.53
6.00
4.78
4.06
3.95
4.40
5.17
5.92
6.35
6.36
6.03
5.63
5.40
5.44
5.63
5.85
5.94
5.96
6.11
6.61
7.52
8.66
9.67
10.11
9.75
8.61
7.03
5.53
4.51
4.06
3.92
3.54
2.50
0.68
-1.67
-3.94
-5.40
-5.50
-3.96
-0.86
3.55
8.85
14.66
20.52
25.89
30.24
33.15
34.51
34.58
33.90
32.88
31.45
28.94
24.40
17.23
7.83
-2.29
-10.91
-16.13
-17.17
-14.71
-10.47
-6.34
-3.59
-2.57
-2.88
-3.93
-5.35
-7.17
-9.53
-12.51
-15.90
-19.27
-22.30
-24.77
-26.73
-28.32
-29.63
-30.55
-30.91
-30.49
-29.18
-27.14
-24.76
-22.57
-21.06
-20.52
-20.92
-21.95
-23.12
-23.94
-24.14
-23.69
-22.87
-22.07
-21.63
-21.61
-21.78
-21.64
-20.63
-18.42
-14.99
-10.77
-6.48
-2.84
-0.35
0.90
1.19
0.96
0.70
0.76
1.33
2.36
3.76
5.33
6.85
8.07
8.76
8.84
8.33
7.44
6.46
5.69
5.30
5.29
5.51
5.74
5.70
5.21
4.17
2.62
0.77
-1.16
-2.91
-4.37
-5.46
-6.22
-6.68
-6.91
-7.00
-7.12
-7.43
-8.09
-9.08
-10.25
-11.29
-11.88
-11.88
-11.36
-10.63
-10.04
-9.80
-9.90
-10.13
-10.08
-9.30
-7.50
-4.63
-0.96
2.97
6.60
9.43
11.23
12.09
12.34
12.34
12.36
12.53
12.74
12.88
12.83
12.51
11.90
11.03
10.00
8.96
8.09
7.46
7.09
6.89
6.75
6.59
6.42
6.28
6.21
6.15
5.96
5.47
4.59
3.38
2.04
0.76
-0.32
-1.25
-2.19
-3.33
-4.78
-6.56
-8.46
-10.17
-11.42
-12.10
-12.30
-12.30
-12.44
-12.95
-13.82
-14.77
-15.33
-15.02
-13.47
-10.57
-6.53
-1.86
2.80
6.87
9.91
11.75
12.50
12.42
11.90
11.23
10.59
10.06
9.69
9.42
9.21
8.99
8.71
8.33
7.82
7.17
6.35
5.33
4.04
2.55
0.91
-0.76
-2.32
-3.79
-5.20
-6.59
-8.00
-9.31
-10.31
-10.80
-10.74
-10.22
-9.50
-8.81
-8.30
-8.06
-7.98
-7.97
-7.91
-7.78
-7.53
-7.20
-6.75
-6.23
-5.63
-4.98
-4.38
-3.98
-3.97
-4.43
-5.45
-6.85
-8.31
-9.32
-9.29
-7.86
-5.04
-1.24
2.81
6.32
8.72
9.89
10.10
9.86
9.64
9.69
10.01
10.42
10.73
10.85
10.76
10.50
10.15
9.79
9.51
9.36
9.39
9.55
9.81
10.08
10.24
10.19
9.89
9.27
8.31
7.05
5.57
4.03
2.52
1.09
-0.30
-1.71
-3.16
-4.65
-6.09
-7.45
-8.64
-9.61
-10.32
-10.74
-10.92
-10.99
-11.12
-11.50
-12.14
-12.84
-13.18
-12.74
-11.19
-8.62
-5.44
-2.26
0.39
2.19
3.21
3.73
4.07
4.54
5.28
6.37
7.83
9.59
11.49
13.25
14.58
15.23
15.15
14.43
13.37
12.25
11.21
10.27
9.32
8.19
6.77
5.07
3.21
1.41
-0.11
-1.28
-2.13
-2.84
-3.63
-4.64
-5.81
-7.04
-8.17
-9.13
-9.94
-10.60
-11.11
-11.58
-12.09
-12.72
-13.53
-14.37
-14.91
-14.67
-13.16
-10.19
-6.06
-1.43
2.85
6.06
7.81
8.21
7.67
6.78
6.01
5.64
5.69
5.99
6.39
6.79
7.16
7.55
7.94
8.30
8.54
8.59
8.43
8.12
7.87
7.76
7.82
7.90
7.80
7.29
6.35
5.13
3.82
2.63
1.61
0.63
-0.52
-1.94
-3.62
-5.37
-6.93
-8.17
-8.99
-9.42
-9.54
-9.51
-9.46
-9.57
-10.07
-11.13
-12.72
-14.50
-15.88
-16.20
-14.97
-12.11
-8.04
-3.52
0.66
4.03
6.51
8.34
9.90
11.43
13.00
14.47
15.67
16.47
16.77
16.60
15.95
14.86
13.36
11.58
9.71
8.06
6.84
6.14
5.87
5.82
5.78
5.49
4.80
3.70
2.35
0.94
-0.29
-1.11
-1.46
-1.38
-1.08
-0.77
-0.55
-0.38
-0.18
0.03
0.19
0.09
-0.43
-1.36
-2.60
-3.87
-4.94
-5.68
-6.23
-6.78
-7.59
-8.86
-10.64
-12.79
-14.95
-16.66
-17.37
-16.75
-14.65
-11.36
-7.41
-3.51
-0.22
2.11
3.50
4.25
4.73
5.32
6.18
7.32
8.69
10.13
11.45
12.54
13.27
13.56
13.39
12.76
11.80
10.70
9.61
8.59
7.71
6.96
6.22
5.46
4.53
3.41
2.10
0.70
-0.66
-1.76
-2.45
-2.72
-2.60
-2.30
-2.03
-1.99
-2.27
-2.89
-3.74
-4.69
-5.66
-6.59
-7.49
-8.38
-9.24
-10.05
-10.79
-11.53
-12.35
-13.29
-14.23
-14.93
-14.97
-13.98
-11.86
-8.80
-5.28
-1.88
0.93
2.94
4.18
4.90
5.46
6.10
6.95
7.98
9.10
10.10
10.75
10.90
10.55
9.85
9.07
8.49
8.27
8.40
8.69
8.93
8.94
8.69
8.19
7.53
6.86
6.20
5.51
4.72
3.80
2.74
1.72
0.86
0.33
0.26
0.53
0.89
1.02
0.65
-0.32
-1.76
-3.46
-5.13
-6.60
-7.83
-8.87
-9.83
-10.82
-11.84
-12.87
-13.91
-14.92
-15.82
-16.41
-16.41
-15.47
-13.47
-10.49
-6.86
-3.08
0.35
3.14
5.19
6.60
7.57
8.33
9.04
9.82
10.71
11.67
12.61
13.38
13.85
14.05
14.18
14.50
15.29
16.68
18.50
20.34
21.62
21.82
20.62
18.02
14.29
9.93
5.45
1.13
-3.01
-7.22
-11.82
-17.02
-22.81
-28.92
-34.88
-40.27
-44.76
-48.21
-50.61
-51.98
-52.22
-51.32
-49.19
-45.82
-41.32
-35.90
-29.68
-22.79
-15.27
-7.13
1.42
10.03
18.24
25.66
32.20
38.14
43.97
50.09
56.53
62.83
68.22
71.98
73.57
72.79
69.67
64.37
57.08
48.16
38.23
28.21
19.13
11.79
6.55
3.29
1.49
0.50
-0.17
-0.90
-1.86
-3.15
-4.86
-7.01
-9.55
-12.18
-14.48
-15.93
-16.13
-14.99
-12.77
-9.93
-6.96
-4.17
-1.49
1.41
4.79
8.64
12.49
15.49
16.86
15.96
12.57
6.87
-0.65
-9.45
-18.83
-28.06
-36.41
-43.35
-48.73
-52.84
-56.14
-58.99
-61.32
-62.59
-62.04
-59.13
-53.79
-46.53
-38.20
-29.64
-21.46
-13.94
-7.18
-1.26
3.58
7.15
9.30
10.07
9.69
8.43
6.57
4.28
1.63
-1.46
-5.05
-9.23
-14.03
-19.20
-24.23
-28.32
-30.56
-30.21
-26.95
-20.93
-12.77
-3.26
6.88
17.02
26.71
35.59
43.30
49.53
54.11
57.00
58.38
58.57
57.82
56.36
54.37
51.88
48.88
45.35
41.26
36.60
31.50
26.12
20.70
15.49
10.61
6.07
1.74
-2.48
-6.58
-10.32
-13.31
-15.12
-15.53
-14.59
-12.64
-10.21
-7.84
-5.88
-4.50
-3.63
-3.13
-2.85
-2.71
-2.68
-2.75
-2.98
-3.31
-3.69
-4.06
-4.40
-4.74
-5.09
-5.41
-5.50
-5.10
-3.98
-2.03
0.70
3.97
7.41
10.66
13.32
15.14
15.99
15.85
14.86
13.28
11.43
9.61
8.01
6.58
5.16
3.56
1.67
-0.54
-2.96
-5.45
-7.93
-10.31
-12.64
-14.91
-17.06
-18.99
-20.66
-22.06
-23.18
-23.96
-24.17
-23.56
-21.90
-19.18
-15.68
-11.89
-8.31
-5.42
-3.31
-1.91
-0.97
-0.25
0.42
1.11
1.85
2.63
3.40
4.11
4.68
5.07
5.29
5.35
5.31
5.21
5.10
5.02
5.04
5.19
5.48
5.80
6.02
5.97
5.55
4.80
3.81
2.75
1.67
0.59
-0.51
-1.66
-2.79
-3.82
-4.69
-5.41
-5.98
-6.49
-6.92
-7.26
-7.52
-7.72
-7.93
-8.27
-8.79
-9.46
-10.31
-11.38
-12.74
-14.48
-16.42
-18.16
-19.13
-18.80
-16.93
-13.75
-9.78
-5.71
-2.10
0.83
3.07
4.81
6.19
7.34
8.28
9.12
9.96
10.81
11.63
12.22
12.39
11.98
11.02
9.66
8.23
7.02
6.21
5.92
6.07
6.52
7.06
7.49
7.60
7.32
6.70
5.83
4.90
3.96
3.04
2.10
1.15
0.23
-0.52
-1.01
-1.28
-1.43
-1.76
-2.44
-3.56
-5.05
-6.73
-8.44
-10.05
-11.48
-12.61
-13.38
-13.76
-13.78
-13.69
-13.78
-14.35
-15.42
-16.70
-17.60
-17.49
-15.99
-13.04
-9.08
-4.73
-0.69
2.65
5.13
6.91
8.23
9.32
10.36
11.38
12.40
13.31
13.98
14.22
13.92
13.04
11.67
10.09
8.53
7.28
6.52
6.32
6.66
7.44
8.46
9.41
10.02
10.08
9.57
8.64
7.52
6.52
5.71
5.08
4.34
3.22
1.52
-0.66
-3.05
-5.23
-6.82
-7.76
-8.20
-8.44
-8.78
-9.37
-10.09
-10.70
-11.10
-11.22
-11.23
-11.35
-11.69
-12.25
-12.94
-13.70
-14.52
-15.49
-16.56
-17.48
-17.76
-16.83
-14.38
-10.42
-5.51
-0.42
4.08
7.52
9.76
10.95
11.36
11.17
10.62
9.91
9.23
8.78
8.69
8.90
9.24
9.54
9.66
9.62
9.55
9.51
9.58
9.77
10.01
10.26
10.47
10.56
10.42
9.99
9.21
8.14
6.97
5.84
4.94
4.30
3.88
3.47
2.95
2.20
1.21
0.12
-1.00
-2.03
-2.95
-3.78
-4.58
-5.30
-5.95
-6.49
-6.95
-7.46
-8.15
-9.14
-10.53
-12.29
-14.32
-16.54
-18.81
-20.94
-22.64
-23.47
-23.02
-20.98
-17.33
-12.45
-7.04
-1.85
2.49
5.66
7.70
8.83
9.39
9.75
10.14
10.70
11.44
12.24
12.90
13.28
13.25
12.84
12.13
11.22
10.15
8.95
7.65
6.33
5.21
4.45
4.13
4.15
4.31
4.44
4.46
4.44
4.40
4.44
4.46
4.36
4.08
3.68
3.33
3.18
3.27
3.44
3.49
3.15
2.31
0.93
-0.89
-3.02
-5.31
-7.59
-9.72
-11.48
-12.77
-13.60
-14.10
-14.49
-14.99
-15.71
-16.52
-17.09
-16.98
-15.79
-13.40
-9.97
-5.98
-2.11
1.04
3.09
3.98
3.97
3.55
3.20
3.36
4.21
5.65
7.36
8.95
10.05
10.52
10.38
9.78
9.01
8.27
7.67
7.30
7.17
7.23
7.41
7.63
7.73
7.64
7.27
6.64
5.87
5.13
4.54
4.16
3.88
3.50
2.83
1.78
0.46
-0.90
-2.15
-3.28
-4.40
-5.67
-7.14
-8.68
-10.03
-11.01
-11.56
-11.87
-12.29
-13.14
-14.57
-16.46
-18.47
-20.08
-20.74
-20.02
-17.76
-14.14
-9.65
-4.98
-0.75
2.57
4.81
6.11
6.71
6.95
7.05
7.15
7.32
7.55
7.81
8.00
8.13
8.14
8.06
7.92
7.73
7.52
7.27
7.01
6.75
6.58
6.47
6.39
6.24
5.91
5.28
4.36
3.19
1.88
0.54
-0.70
-1.68
-2.29
-2.48
-2.35
-2.13
-2.07
-2.40
-3.21
-4.42
-5.86
-7.37
-8.93
-10.61
-12.53
-14.74
-17.20
-19.78
-22.29
-24.44
-25.90
-26.33
-25.37
-22.86
-18.90
-13.84
-8.26
-2.79
2.11
6.27
9.67
12.49
14.81
16.66
17.91
18.46
18.18
17.12
15.37
13.09
10.50
7.75
4.94
2.20
-0.33
-2.46
-3.99
-4.81
-4.81
-4.06
-2.71
-0.99
0.97
3.01
5.02
6.89
8.42
9.41
9.75
9.34
8.29
6.83
5.13
3.34
1.45
-0.60
-2.81
-5.11
-7.41
-9.56
-11.49
-13.16
-14.57
-15.81
-16.95
-18.08
-19.32
-20.80
-22.48
-24.12
-25.24
-25.36
-24.10
-21.48
-17.79
-13.64
-9.69
-6.36
-3.77
-1.76
0.06
1.98
4.19
6.72
9.49
12.35
15.13
17.55
19.30
20.22
20.24
19.53
18.44
17.42
16.87
16.97
17.65
18.68
19.73
20.51
20.79
20.43
19.45
18.04
16.37
14.64
12.98
11.39
9.80
8.14
6.35
4.42
2.45
0.50
-1.37
-3.19
-4.97
-6.76
-8.52
-10.17
-11.63
-12.87
-13.94
-14.87
-15.77
-16.70
-17.73
-18.97
-20.62
-22.71
-25.16
-27.56
-29.29
-29.76
-28.60
-25.82
-21.84
-17.34
-12.92
-9.05
-5.86
-3.23
-0.97
1.18
3.37
5.59
7.78
9.74
11.27
12.18
12.45
12.21
11.74
11.43
11.59
12.40
13.82
15.57
17.33
18.86
19.94
20.56
20.68
20.25
19.27
17.77
15.87
13.85
12.00
10.47
9.32
8.32
7.19
5.72
3.81
1.56
-0.84
-3.20
-5.36
-7.21
-8.68
-9.77
-10.58
-11.17
-11.73
-12.47
-13.55
-15.01
-16.60
-17.84
-18.10
-16.88
-13.96
-9.59
-4.42
0.72
5.05
8.26
10.31
11.54
12.34
13.05
13.90
14.94
16.20
17.50
18.64
19.31
19.33
18.61
17.31
15.76
14.27
13.20
12.64
12.65
13.09
13.81
14.56
15.09
15.21
14.79
13.97
12.91
11.88
11.03
10.33
9.60
8.61
7.24
5.47
3.52
1.62
0.02
-1.18
-2.07
-2.88
-3.89
-5.25
-6.96
-8.84
-10.69
-12.37
-13.91
-15.44
-17.16
-19.24
-21.77
-24.72
-27.95
-31.16
-33.89
-35.52
-35.40
-33.03
-28.39
-21.98
-14.71
-7.58
-1.40
3.51
7.23
10.08
12.45
14.55
16.42
18.01
19.24
20.03
20.35
20.20
19.63
18.82
17.92
17.15
16.71
16.69
17.09
17.83
18.71
19.46
19.80
19.49
18.44
16.70
14.49
12.08
9.74
7.62
5.75
4.16
2.85
1.77
0.89
0.07
-0.80
-1.85
-3.15
-4.75
-6.60
-8.59
-10.66
-12.65
-14.48
-16.06
-17.37
-18.51
-19.57
-20.69
-21.92
-23.31
-24.83
-26.29
-27.41
-27.69
-26.68
-24.07
-19.86
-14.46
-8.60
-3.08
1.48
4.83
7.11
8.69
10.00
11.39
12.91
14.44
15.75
16.68
17.15
17.26
17.12
16.85
16.50
16.06
15.49
14.84
14.20
13.61
13.09
12.60
12.04
11.35
10.50
9.58
8.67
7.81
6.96
6.05
5.02
3.79
2.36
0.76
-0.95
-2.71
-4.57
-6.57
-8.74
-10.99
-13.27
-15.46
-17.50
-19.40
-21.27
-23.20
-25.25
-27.45
-29.79
-32.26
-34.79
-37.09
-38.78
-39.33
-38.31
-35.52
-31.17
-25.71
-19.70
-13.66
-7.89
-2.63
2.08
6.29
10.02
13.39
16.51
19.46
22.20
24.68
26.74
28.27
29.27
29.74
29.75
29.46
28.99
28.50
28.21
28.18
28.39
28.73
28.93
28.75
28.04
26.73
24.95
22.83
20.53
18.22
15.97
13.85
11.85
9.95
8.05
6.10
4.05
1.87
-0.35
-2.57
-4.81
-7.12
-9.54
-12.09
-14.57
-16.75
-18.39
-19.33
-19.73
-19.96
-20.48
-21.57
-23.26
-25.13
-26.53
-26.82
-25.58
-22.78
-18.76
-14.07
-9.35
-5.11
-1.62
1.09
3.14
4.89
6.67
8.75
11.23
13.98
16.65
18.86
20.26
20.65
20.14
18.96
17.47
16.01
14.82
14.01
13.60
13.54
13.68
13.90
14.03
13.96
13.58
12.81
11.57
9.85
7.73
5.33
2.84
0.44
-1.70
-3.49
-5.03
-6.45
-7.87
-9.31
-10.78
-12.22
-13.58
-14.88
-16.09
-17.22
-18.22
-19.09
-19.85
-20.63
-21.58
-22.82
-24.26
-25.53
-26.03
-25.11
-22.42
-18.00
-12.36
-6.42
-1.04
3.12
5.87
7.45
8.34
9.01
9.81
10.83
12.01
13.28
14.54
15.77
16.93
17.97
18.74
19.14
19.11
18.75
18.23
17.73
17.32
16.99
16.59
15.91
14.87
13.33
11.35
8.99
6.38
3.70
1.18
-0.93
-2.51
-3.51
-4.13
-4.62
-5.27
-6.26
-7.60
-9.13
-10.65
-12.01
-13.07
-13.93
-14.72
-15.70
-17.11
-19.05
-21.43
-23.99
-26.28
-27.71
-27.84
-26.34
-23.17
-18.66
-13.22
-7.50
-2.09
2.55
6.18
8.73
10.35
11.30
11.81
12.16
12.53
13.00
13.60
14.24
14.74
15.02
15.03
14.85
14.68
14.70
14.99
15.47
15.87
15.88
15.30
14.09
12.43
10.61
8.92
7.57
6.62
5.98
5.52
5.14
4.77
4.38
3.97
3.44
2.70
1.62
0.11
-1.83
-4.14
-6.62
-9.07
-11.28
-13.15
-14.63
-15.83
-16.88
-17.94
-19.14
-20.55
-22.17
-23.87
-25.42
-26.37
-26.26
-24.68
-21.57
-17.21
-12.18
-7.26
-3.08
0.05
2.16
3.61
4.83
6.20
7.90
9.92
12.03
13.88
15.20
15.73
15.43
14.47
13.12
11.73
10.59
9.77
9.22
8.90
8.73
8.71
8.82
8.98
9.01
8.68
7.85
6.53
4.97
3.48
2.31
1.53
0.96
0.32
-0.73
-2.29
-4.30
-6.43
-8.41
-10.02
-11.24
-12.27
-13.32
-14.55
-16.01
-17.65
-19.43
-21.30
-23.14
-24.67
-25.45
-24.97
-22.83
-19.08
-14.12
-8.69
-3.53
0.82
4.15
6.52
8.11
9.12
9.66
9.85
9.78
9.59
9.35
9.06
8.65
8.02
7.18
6.19
5.27
4.65
4.45
4.72
5.31
5.98
6.44
6.41
5.68
4.17
1.92
-0.96
-4.15
-7.29
-10.04
-12.13
-13.48
-14.10
-14.11
-13.66
-12.86
-11.75
-10.38
-8.84
-7.38
-6.46
-6.58
-8.22
-11.56
-16.51
-22.61
-29.21
-35.42
-40.25
-42.71
-41.92
-37.37
-29.18
-18.15
-5.68
6.59
17.30
25.55
31.06
33.90
34.43
32.99
30.02
25.84
20.65
14.54
7.29
-1.44
-12.06
-24.71
-39.25
-55.13
-71.62
-88.03
-103.69
-118.02
-130.38
-140.03
-145.98
-147.14
-142.38
-130.93
-112.72
-88.51
-59.98
-29.34
1.09
29.44
54.64
76.47
95.35
111.94
126.88
140.68
153.75
166.44
179.01
191.60
203.96
215.50
225.20
231.97
234.68
232.56
225.13
212.23
194.04
171.04
144.14
114.58
83.91
53.68
25.38
0.21
-20.97
-37.54
-49.22
-56.04
-58.58
-57.81
-54.94
-51.14
-47.03
-42.73
-37.80
-31.62
-23.68
-14.04
-3.20
7.98
18.61
28.08
36.11
42.86
48.72
54.25
59.99
66.35
73.37
80.32
85.52
86.49
80.78
67.02
45.70
19.33
-8.43
-34.07
-55.37
-71.81
-84.20
-93.73
-101.11
-106.24
-108.49
-107.24
-102.41
-94.66
-85.12
-75.04
-65.51
-57.26
-50.76
-46.28
-44.12
-44.61
-48.04
-54.29
-62.71
-72.15
-81.23
-88.68
-93.70
-96.09
-96.16
-94.46
-91.51
-87.61
-82.81
-76.97
-69.91
-61.64
-52.42
-42.84
-33.73
-25.91
-20.04
-16.33
-14.60
-14.27
-14.54
-14.61
-13.84
-11.87
-8.65
-4.39
0.49
5.59
10.52
14.99
18.78
21.77
23.91
25.34
26.23
26.83
27.41
28.13
29.05
30.17
31.47
32.95
34.61
36.40
38.23
39.91
41.20
41.81
41.46
39.88
36.87
32.32
26.34
19.30
11.67
4.01
-3.15
-9.41
-14.53
-18.39
-21.06
-22.60
-23.13
-22.81
-21.86
-20.55
-19.15
-17.94
-17.11
-16.73
-16.78
-17.14
-17.64
-18.13
-18.48
-18.62
-18.58
-18.46
-18.48
-18.86
-19.65
-20.67
-21.49
-21.57
-20.53
-18.21
-14.90
-11.22
-7.80
-5.09
-3.19
-1.82
-0.55
0.93
2.73
4.74
6.71
8.47
9.96
11.24
12.37
13.36
14.09
14.39
14.23
13.70
13.04
12.46
12.08
11.93
11.88
11.78
11.50
11.05
10.48
9.89
9.32
8.79
8.28
7.74
7.06
6.07
4.66
2.72
0.32
-2.35
-5.04
-7.48
-9.47
-10.96
-12.03
-12.78
-13.35
-13.80
-14.07
-14.04
-13.52
-12.35
-10.45
-7.83
-4.65
-1.21
2.06
4.73
6.47
7.27
7.32
7.14
7.23
7.95
9.37
11.30
13.52
15.75
17.99
20.24
22.44
24.41
25.96
26.85
27.06
26.72
26.02
25.09
23.91
22.28
19.93
16.76
12.81
8.39
3.86
-0.43
-4.35
-7.87
-11.05
-13.92
-16.50
-18.66
-20.23
-21.04
-21.05
-20.35
-19.13
-17.62
-15.93
-14.11
-12.04
-9.67
-6.96
-4.11
-1.32
1.20
3.29
4.96
6.18
6.88
6.82
5.75
3.51
0.18
-3.84
-7.94
-11.45
-13.81
-14.70
-14.14
-12.34
-9.71
-6.70
-3.71
-0.96
1.44
3.50
5.21
6.49
7.23
7.25
6.48
5.02
3.12
1.02
-1.04
-2.92
-4.53
-5.77
-6.61
-7.07
-7.20
-7.08
-6.85
-6.61
-6.51
-6.58
-6.86
-7.31
-7.81
-8.12
-7.99
-7.17
-5.52
-3.12
-0.25
2.67
5.18
7.02
8.13
8.67
8.87
8.92
8.83
8.50
7.91
7.08
6.18
5.38
4.75
4.25
3.78
3.26
2.63
2.07
1.70
1.55
1.69
2.01
2.39
2.67
2.73
2.42
1.71
0.63
-0.76
-2.25
-3.69
-4.93
-5.90
-6.53
-6.81
-6.76
-6.48
-6.09
-5.65
-5.26
-4.88
-4.42
-3.77
-2.84
-1.53
0.17
2.16
4.33
6.35
7.92
8.81
8.86
8.17
7.00
5.74
4.62
3.80
3.23
2.81
2.53
2.40
2.48
2.81
3.34
3.88
4.19
4.10
3.56
2.68
1.60
0.41
-0.85
-2.22
-3.72
-5.28
-6.73
-7.90
-8.62
-8.86
-8.71
-8.34
-7.92
-7.55
-7.22
-6.90
-6.61
-6.31
-6.03
-5.74
-5.38
-4.83
-4.03
-2.93
-1.58
-0.18
1.12
2.13
2.77
3.09
3.15
3.09
3.01
2.99
3.03
3.09
3.13
3.09
2.97
2.80
2.67
2.67
2.79
2.97
3.06
2.93
2.57
2.01
1.39
0.78
0.15
-0.62
-1.60
-2.76
-3.93
-4.82
-5.28
-5.35
-5.28
-5.36
-5.81
-6.55
-7.37
-7.93
-7.96
-7.30
-6.04
-4.33
-2.42
-0.54
1.19
2.72
4.04
5.27
6.49
7.64
8.61
9.23
9.37
9.12
8.64
8.15
7.79
7.52
7.18
6.63
5.82
4.81
3.78
2.78
1.85
0.90
-0.14
-1.25
-2.31
-3.20
-3.91
-4.46
-4.97
-5.47
-5.87
-6.14
-6.24
-6.23
-6.27
-6.44
-6.60
-6.55
-5.97
-4.72
-2.95
-0.97
0.88
2.37
3.46
4.24
4.86
5.43
6.01
6.55
7.00
7.35
7.56
7.62
7.48
7.13
6.66
6.18
5.75
5.42
5.15
4.86
4.44
3.84
3.01
2.02
0.88
-0.37
-1.70
-3.02
-4.18
-5.07
-5.65
-5.96
-6.15
-6.41
-6.88
-7.61
-8.51
-9.42
-10.11
-10.38
-10.11
-9.26
-7.93
-6.28
-4.56
-3.00
-1.74
-0.76
0.04
0.82
1.61
2.38
3.01
3.33
3.30
3.07
2.90
3.01
3.46
4.06
4.48
4.48
3.95
3.08
2.15
1.45
1.07
0.92
0.72
0.23
-0.65
-1.86
-3.10
-4.19
-4.99
-5.47
-5.83
-6.21
-6.76
-7.52
-8.53
-9.68
-10.93
-12.11
-12.96
-13.27
-12.73
-11.25
-8.82
-5.76
-2.41
0.80
3.52
5.62
7.02
7.91
8.41
8.75
9.02
9.23
9.36
9.29
8.96
8.23
7.19
5.88
4.50
3.20
2.10
1.26
0.69
0.39
0.30
0.43
0.63
0.81
0.90
0.84
0.70
0.58
0.51
0.45
0.31
-0.07
-0.70
-1.52
-2.40
-3.26
-4.11
-5.00
-5.89
-6.75
-7.50
-8.07
-8.48
-8.87
-9.31
-9.86
-10.32
-10.35
-9.65
-8.01
-5.44
-2.20
1.27
4.57
7.35
9.42
10.82
11.69
12.20
12.52
12.75
12.94
13.13
13.34
13.52
13.58
13.38
12.82
11.83
10.39
8.63
6.66
4.64
2.68
0.84
-0.79
-2.16
-3.19
-3.85
-4.06
-3.86
-3.32
-2.53
-1.74
-1.06
-0.61
-0.38
-0.34
-0.43
-0.73
-1.34
-2.30
-3.60
-5.00
-6.21
-6.96
-7.17
-6.99
-6.70
-6.60
-6.89
-7.69
-8.92
-10.44
-11.89
-12.81
-12.79
-11.54
-9.06
-5.65
-1.92
1.54
4.18
5.78
6.49
6.58
6.39
6.17
6.06
6.00
5.98
5.92
5.84
5.76
5.74
5.77
5.80
5.83
5.84
5.91
6.01
6.17
6.33
6.44
6.44
6.28
5.94
5.47
4.99
4.52
4.15
3.88
3.66
3.47
3.21
2.79
2.17
1.39
0.43
-0.70
-1.98
-3.42
-4.92
-6.41
-7.75
-8.81
-9.53
-9.91
-10.06
-10.09
-10.19
-10.31
-10.42
-10.33
-9.90
-8.98
-7.50
-5.50
-3.07
-0.47
2.11
4.39
6.11
7.12
7.42
7.22
6.82
6.54
6.55
6.85
7.27
7.62
7.76
7.73
7.61
7.52
7.46
7.33
7.08
6.71
6.34
6.14
6.20
6.42
6.58
6.46
5.90
4.95
3.79
2.59
1.53
0.61
-0.13
-0.68
-0.96
-0.90
-0.46
0.24
0.95
1.40
1.32
0.62
-0.70
-2.42
-4.31
-6.10
-7.62
-8.87
-9.90
-10.80
-11.58
-12.08
-12.08
-11.32
-9.70
-7.35
-4.65
-2.07
0.01
1.40
2.18
2.57
2.93
3.44
4.26
5.33
6.58
7.83
8.92
9.74
10.22
10.39
10.33
10.14
9.89
9.58
9.18
8.58
7.71
6.48
4.93
3.13
1.24
-0.63
-2.37
-3.90
-5.09
-5.86
-6.19
-6.14
-5.89
-5.59
-5.38
-5.34
-5.37
-5.33
-5.11
-4.71
-4.25
-3.92
-3.82
-4.01
-4.53
-5.38
-6.53
-7.88
-9.27
-10.37
-10.86
-10.47
-9.08
-6.88
-4.23
-1.58
0.66
2.27
3.26
3.78
4.10
4.42
4.82
5.29
5.66
5.83
5.72
5.43
5.12
4.90
4.85
4.88
4.90
4.81
4.74
4.81
5.17
5.74
6.29
6.59
6.42
5.79
4.82
3.81
2.91
2.12
1.38
0.58
-0.30
-1.26
-2.30
-3.40
-4.53
-5.65
-6.66
-7.47
-8.02
-8.35
-8.54
-8.67
-8.80
-8.95
-9.14
-9.31
-9.44
-9.37
-8.92
-7.87
-6.09
-3.67
-0.92
1.67
3.72
5.00
5.56
5.63
5.46
5.27
5.16
5.15
5.21
5.33
5.46
5.61
5.69
5.55
5.09
4.26
3.18
2.04
1.09
0.48
0.28
0.38
0.62
0.91
1.25
1.69
2.32
3.12
3.93
4.56
4.79
4.54
3.83
2.81
1.58
0.26
-1.03
-2.27
-3.38
-4.25
-4.83
-5.09
-5.11
-4.98
-4.86
-4.88
-5.16
-5.75
-6.62
-7.78
-9.13
-10.64
-12.10
-13.30
-13.98
-13.92
-13.02
-11.35
-9.13
-6.60
-4.01
-1.44
1.13
3.75
6.35
8.76
10.80
12.28
13.26
13.87
14.29
14.70
15.17
15.66
16.05
16.32
16.43
16.43
16.32
16.00
15.33
14.18
12.47
10.22
7.56
4.68
1.82
-0.77
-2.92
-4.48
-5.39
-5.66
-5.50
-5.17
-4.91
-4.89
-5.09
-5.43
-5.78
-6.01
-6.13
-6.15
-6.09
-5.96
-5.76
-5.54
-5.47
-5.76
-6.53
-7.71
-8.91
-9.59
-9.33
-7.97
-5.69
-2.96
-0.34
1.74
3.09
3.78
4.04
4.12
4.15
4.18
4.13
3.87
3.36
2.68
2.02
1.65
1.64
1.95
2.37
2.68
2.77
2.69
2.57
2.52
2.56
2.50
2.16
1.41
0.32
-0.92
-2.03
-2.81
-3.22
-3.27
-3.08
-2.73
-2.21
-1.51
-0.72
-0.06
0.27
0.05
-0.70
-1.86
-3.19
-4.46
-5.57
-6.49
-7.31
-7.98
-8.51
-8.83
-9.05
-9.30
-9.67
-10.11
-10.29
-9.85
-8.49
-6.23
-3.39
-0.49
1.94
3.66
4.66
5.17
5.46
5.68
5.85
5.93
5.96
5.92
5.91
5.89
5.86
5.77
5.61
5.36
5.01
4.57
4.00
3.34
2.64
2.06
1.67
1.51
1.46
1.42
1.30
1.09
0.86
0.66
0.53
0.41
0.26
-0.04
-0.54
-1.27
-2.22
-3.31
-4.39
-5.26
-5.86
-6.15
-6.26
-6.42
-6.84
-7.65
-8.87
-10.33
-11.79
-12.89
-13.23
-12.53
-10.69
-7.90
-4.58
-1.26
1.60
3.69
4.98
5.62
5.85
5.89
5.93
6.03
6.29
6.74
7.33
8.05
8.78
9.40
9.82
10.10
10.26
10.39
10.55
10.73
10.83
10.75
10.41
9.74
8.78
7.52
6.03
4.32
2.52
0.67
-1.15
-2.84
-4.41
-5.90
-7.32
-8.67
-9.92
-10.97
-11.78
-12.30
-12.53
-12.51
-12.30
-11.95
-11.59
-11.43
-11.60
-12.18
-13.02
-13.80
-14.11
-13.57
-11.98
-9.44
-6.30
-2.99
0.11
2.80
5.00
6.70
7.89
8.63
8.94
8.98
8.91
8.90
9.00
9.12
9.08
8.75
8.09
7.25
6.44
5.83
5.47
5.34
5.31
5.19
4.89
4.33
3.57
2.79
2.21
1.91
1.92
2.07
2.08
1.81
1.27
0.61
0.05
-0.31
-0.58
-0.96
-1.69
-2.81
-4.20
-5.60
-6.84
-7.75
-8.37
-8.81
-9.23
-9.76
-10.43
-11.26
-12.23
-13.35
-14.51
-15.56
-16.23
-16.17
-15.06
-12.79
-9.58
-5.94
-2.48
0.35
2.36
3.65
4.53
5.28
6.03
6.74
7.30
7.61
7.71
7.72
7.79
8.04
8.46
8.94
9.38
9.65
9.73
9.63
9.38
9.08
8.78
8.49
8.16
7.75
7.19
6.41
5.43
4.29
3.12
2.08
1.29
0.77
0.39
-0.03
-0.71
-1.75
-3.15
-4.77
-6.44
-8.03
-9.46
-10.70
-11.69
-12.38
-12.67
-12.59
-12.29
-12.06
-12.18
-12.81
-13.79
-14.75
-15.18
-14.62
-12.89
-10.15
-6.87
-3.66
-0.96
1.06
2.50
3.65
4.80
6.17
7.77
9.54
11.29
12.87
14.13
14.96
15.27
15.04
14.39
13.47
12.53
11.70
11.01
10.43
9.80
9.04
8.10
6.95
5.63
4.22
2.74
1.19
-0.34
-1.75
-2.89
-3.63
-3.96
-4.02
-4.03
-4.23
-4.73
-5.50
-6.30
-6.93
-7.30
-7.47
-7.67
-8.11
-8.94
-10.13
-11.60
-13.25
-15.03
-16.83
-18.44
-19.53
-19.70
-18.64
-16.20
-12.58
-8.22
-3.73
0.27
3.38
5.49
6.72
7.42
8.00
8.79
9.89
11.20
12.49
13.52
14.12
14.26
13.97
13.36
12.58
11.77
11.03
10.45
10.10
9.93
9.89
9.86
9.67
9.17
8.32
7.15
5.84
4.63
3.75
3.31
3.27
3.43
3.52
3.30
2.72
1.82
0.77
-0.31
-1.42
-2.64
-4.13
-5.89
-7.89
-9.90
-11.74
-13.29
-14.57
-15.63
-16.59
-17.55
-18.55
-19.61
-20.70
-21.70
-22.37
-22.34
-21.22
-18.81
-15.24
-11.03
-6.84
-3.29
-0.75
0.89
2.04
3.18
4.71
6.71
9.04
11.35
13.31
14.72
15.55
15.87
15.80
15.43
14.85
14.15
13.53
13.17
13.24
13.78
14.58
15.34
15.65
15.26
14.06
12.23
10.01
7.71
5.57
3.75
2.26
1.08
0.16
-0.57
-1.15
-1.62
-2.07
-2.56
-3.14
-3.88
-4.75
-5.75
-6.83
-7.94
-8.97
-9.91
-10.65
-11.31
-12.08
-13.21
-14.96
-17.39
-20.30
-23.16
-25.30
-25.95
-24.64
-21.35
-16.47
-10.85
-5.36
-0.68
2.85
5.29
6.95
8.10
8.96
9.64
10.11
10.49
10.92
11.58
12.50
13.54
14.40
14.89
14.95
14.72
14.49
14.43
14.63
14.98
15.30
15.36
15.07
14.44
13.55
12.55
11.55
10.59
9.69
8.75
7.63
6.25
4.58
2.60
0.50
-1.52
-3.30
-4.67
-5.66
-6.30
-6.74
-7.08
-7.50
-8.02
-8.65
-9.43
-10.37
-11.53
-12.88
-14.45
-16.19
-18.15
-20.36
-22.84
-25.41
-27.70
-29.18
-29.25
-27.47
-23.81
-18.69
-12.84
-7.14
-2.24
1.58
4.35
6.32
7.86
9.24
10.54
11.78
12.92
13.91
14.80
15.57
16.23
16.78
17.25
17.64
17.91
18.04
18.02
17.86
17.60
17.26
16.81
16.24
15.51
14.60
13.52
12.31
11.08
9.90
8.84
7.83
6.87
5.90
4.89
3.82
2.69
1.51
0.35
-0.74
-1.75
-2.76
-3.92
-5.40
-7.29
-9.52
-11.90
-14.08
-15.78
-16.87
-17.42
-17.67
-17.98
-18.62
-19.77
-21.45
-23.50
-25.63
-27.43
-28.41
-28.05
-26.02
-22.25
-17.10
-11.24
-5.49
-0.53
3.30
6.02
7.96
9.53
11.08
12.79
14.62
16.44
18.10
19.40
20.26
20.71
20.83
20.75
20.57
20.26
19.85
19.33
18.73
18.17
17.70
17.27
16.73
15.85
14.48
12.61
10.41
8.18
6.21
4.63
3.45
2.50
1.57
0.57
-0.49
-1.52
-2.37
-2.92
-3.19
-3.25
-3.23
-3.27
-3.52
-4.09
-5.14
-6.72
-8.78
-11.15
-13.54
-15.67
-17.42
-18.86
-20.29
-22.04
-24.26
-26.83
-29.30
-31.02
-31.35
-29.94
-26.67
-21.89
-16.15
-10.15
-4.57
0.11
3.72
6.37
8.40
10.18
11.97
13.81
15.60
17.17
18.35
19.04
19.26
19.07
18.52
17.68
16.61
15.51
14.53
13.82
13.46
13.47
13.69
13.98
14.17
14.19
14.01
13.62
13.01
12.14
10.96
9.44
7.55
5.34
2.91
0.33
-2.17
-4.36
-5.95
-6.82
-7.05
-6.93
-6.86
-7.22
-8.23
-9.88
-11.94
-14.15
-16.32
-18.37
-20.32
-22.24
-24.21
-26.29
-28.47
-30.60
-32.40
-33.42
-33.18
-31.26
-27.58
-22.37
-16.28
-10.10
-4.57
-0.17
3.05
5.39
7.36
9.42
11.91
14.80
17.90
20.84
23.26
24.95
25.83
25.92
25.29
24.05
22.32
20.33
18.42
16.91
16.06
15.89
16.19
16.56
16.62
16.09
14.96
13.41
11.69
10.08
8.78
7.87
7.31
6.93
6.48
5.72
4.51
2.82
0.83
-1.21
-3.01
-4.44
-5.54
-6.53
-7.67
-9.16
-11.00
-13.04
-15.06
-16.84
-18.21
-19.20
-19.94
-20.65
-21.61
-22.99
-24.88
-27.16
-29.59
-31.63
-32.72
-32.29
-30.00
-25.88
-20.36
-14.18
-8.16
-2.97
1.06
4.01
6.27
8.26
10.32
12.58
14.95
17.24
19.24
20.71
21.50
21.57
20.95
19.82
18.53
17.49
16.99
17.21
17.95
18.86
19.51
19.59
18.91
17.59
15.85
13.91
12.03
10.25
8.66
7.30
6.27
5.53
4.99
4.42
3.57
2.30
0.65
-1.14
-2.72
-3.87
-4.60
-5.23
-6.13
-7.59
-9.51
-11.62
-13.53
-14.97
-15.97
-16.74
-17.65
-18.95
-20.80
-23.16
-25.87
-28.66
-31.11
-32.66
-32.71
-30.86
-27.04
-21.72
-15.67
-9.76
-4.73
-0.87
1.92
3.97
5.73
7.54
9.56
11.79
14.12
16.37
18.35
19.85
20.74
20.99
20.70
20.02
19.22
18.49
17.90
17.41
16.91
16.32
15.61
14.90
14.21
13.58
12.95
12.19
11.25
10.22
9.25
8.54
8.15
7.85
7.31
6.19
4.39
2.09
-0.32
-2.52
-4.33
-5.91
-7.57
-9.54
-11.84
-14.25
-16.41
-18.09
-19.25
-20.05
-20.81
-21.83
-23.32
-25.41
-28.13
-31.27
-34.42
-36.88
-37.82
-36.57
-32.88
-27.09
-20.02
-12.78
-6.28
-1.09
2.74
5.53
7.70
9.67
11.70
13.86
16.09
18.18
19.98
21.35
22.26
22.74
22.94
23.01
23.07
23.26
23.64
24.21
24.88
25.47
25.75
25.56
24.75
23.35
21.53
19.50
17.49
15.67
14.08
12.69
11.44
10.20
8.92
7.58
6.12
4.50
2.70
0.73
-1.32
-3.29
-5.01
-6.39
-7.37
-8.11
-8.80
-9.61
-10.72
-12.12
-13.76
-15.51
-17.29
-19.01
-20.70
-22.37
-24.09
-26.01
-28.24
-30.81
-33.60
-36.21
-37.99
-38.21
-36.26
-32.02
-25.92
-18.87
-11.88
-5.76
-0.89
2.88
5.93
8.71
11.53
14.46
17.37
20.06
22.34
24.03
25.10
25.49
25.24
24.43
23.17
21.63
20.08
18.78
17.93
17.64
17.77
18.10
18.31
18.15
17.49
16.38
15.03
13.57
12.17
10.83
9.44
7.86
6.00
3.93
1.76
-0.22
-1.83
-2.93
-3.57
-3.91
-4.18
-4.67
-5.57
-7.02
-8.91
-11.09
-13.33
-15.52
-17.62
-19.71
-21.96
-24.52
-27.53
-30.84
-34.13
-36.85
-38.23
-37.60
-34.56
-29.30
-22.54
-15.37
-8.77
-3.38
0.70
3.81
6.40
8.87
11.42
14.05
16.66
19.15
21.41
23.32
24.76
25.54
25.63
25.14
24.33
23.56
23.09
23.03
23.32
23.76
24.08
24.11
23.71
22.82
21.42
19.53
17.25
14.82
12.51
10.56
9.12
8.14
7.45
6.86
6.17
5.29
4.23
3.01
1.73
0.46
-0.72
-1.85
-2.93
-4.10
-5.49
-7.24
-9.46
-12.15
-15.17
-18.34
-21.40
-24.05
-26.17
-27.73
-28.87
-29.93
-31.24
-33.02
-35.30
-37.74
-39.65
-40.24
-38.80
-35.02
-29.18
-22.05
-14.74
-8.24
-3.14
0.51
3.10
5.22
7.44
10.07
13.17
16.53
19.84
22.82
25.20
26.80
27.54
27.48
26.70
25.45
24.05
22.83
22.07
21.87
22.08
22.42
22.56
22.19
21.24
19.89
18.45
17.20
16.27
15.58
14.89
13.96
12.63
10.91
9.00
7.07
5.23
3.47
1.75
0.04
-1.64
-3.20
-4.54
-5.60
-6.46
-7.25
-8.16
-9.30
-10.72
-12.39
-14.22
-16.14
-18.04
-19.95
-21.87
-23.87
-26.05
-28.55
-31.43
-34.62
-37.92
-40.81
-42.66
-42.81
-40.82
-36.65
-30.68
-23.63
-16.32
-9.45
-3.42
1.69
6.11
10.10
13.90
17.66
21.29
24.58
27.25
29.00
29.66
29.25
27.92
25.99
23.86
21.88
20.37
19.52
19.37
19.77
20.47
21.14
21.49
21.34
20.65
19.55
18.22
16.88
15.70
14.81
14.15
13.62
13.02
12.21
11.14
9.89
8.57
7.28
6.07
4.79
3.34
1.64
-0.30
-2.35
-4.39
-6.37
-8.30
-10.17
-11.99
-13.71
-15.31
-16.80
-18.19
-19.53
-20.79
-22.02
-23.14
-24.20
-25.24
-26.38
-27.81
-29.64
-31.83
-34.06
-35.83
-36.31
-34.82
-30.99
-25.01
-17.69
-10.17
-3.52
1.55
4.85
6.79
7.92
8.91
10.16
11.77
13.62
15.49
17.12
18.32
19.03
19.20
18.85
18.11
17.10
16.00
15.07
14.53
14.46
14.83
15.41
15.86
15.95
15.48
14.53
13.29
12.03
10.89
10.00
9.22
8.42
7.49
6.34
5.03
3.63
2.24
0.86
-0.47
-1.77
-3.10
-4.51
-6.14
-8.03
-10.22
-12.55
-14.84
-16.79
-18.27
-19.25
-19.90
-20.54
-21.48
-23.03
-25.32
-28.31
-31.66
-34.84
-37.10
-37.67
-36.05
-32.16
-26.45
-19.72
-12.92
-6.76
-1.67
2.37
5.65
8.52
11.24
13.94
16.59
19.06
21.19
22.82
23.80
24.07
23.63
22.59
21.10
19.46
17.94
16.86
16.38
16.47
17.00
17.70
18.35
18.68
18.63
18.14
17.31
16.28
15.12
13.96
12.79
11.62
10.33
8.87
7.16
5.23
3.22
1.24
-0.58
-2.17
-3.56
-4.95
-6.57
-8.69
-11.40
-14.59
-17.97
-21.22
-24.08
-26.46
-28.47
-30.32
-32.26
-34.45
-36.84
-39.24
-41.22
-42.24
-41.76
-39.23
-34.51
-27.86
-20.05
-12.09
-5.05
0.43
4.19
6.54
8.06
9.33
10.72
12.34
14.18
16.15
18.14
20.03
21.65
22.82
23.45
23.54
23.28
22.93
22.75
22.90
23.40
24.10
24.75
25.18
25.18
24.72
23.79
22.45
20.80
18.93
16.89
14.71
12.46
10.18
7.94
5.84
3.90
2.13
0.52
-0.94
-2.21
-3.18
-3.74
-3.93
-3.89
-3.88
-4.13
-4.82
-6.06
-7.84
-10.13
-12.82
-15.81
-18.86
-21.82
-24.46
-26.71
-28.57
-30.19
-31.82
-33.65
-35.76
-37.90
-39.73
-40.63
-40.02
-37.48
-33.03
-27.06
-20.34
-13.76
-7.99
-3.40
0.10
2.90
5.46
8.11
11.00
14.08
17.17
20.05
22.46
24.26
25.35
25.68
25.37
24.65
23.79
23.05
22.63
22.57
22.81
23.20
23.48
23.45
22.94
21.94
20.52
18.88
17.26
15.82
14.63
13.61
12.67
11.64
10.49
9.19
7.81
6.36
4.86
3.24
1.41
-0.59
-2.72
-4.78
-6.61
-8.10
-9.35
-10.57
-11.98
-13.66
-15.56
-17.53
-19.36
-20.89
-22.08
-23.00
-23.84
-24.80
-26.11
-27.96
-30.36
-33.03
-35.37
-36.61
-36.03
-33.26
-28.47
-22.33
-15.77
-9.71
-4.72
-0.96
1.79
3.97
6.03
8.28
10.86
13.70
16.61
19.28
21.44
22.89
23.63
23.82
23.61
23.20
22.71
22.20
21.71
21.29
20.92
20.59
20.24
19.78
19.12
18.30
17.44
16.71
16.26
16.06
15.97
15.76
15.24
14.28
12.89
11.16
9.19
7.04
4.76
2.36
-0.10
-2.50
-4.71
-6.61
-8.25
-9.73
-11.25
-13.02
-15.15
-17.66
-20.41
-23.15
-25.68
-27.84
-29.55
-30.91
-32.14
-33.54
-35.43
-37.93
-40.77
-43.37
-44.80
-44.27
-41.27
-35.95
-28.97
-21.28
-13.83
-7.19
-1.59
3.11
7.11
10.66
13.87
16.89
19.77
22.53
25.10
27.25
28.77
29.38
29.03
27.90
26.40
24.97
23.95
23.50
23.54
23.89
24.31
24.57
24.48
23.90
22.78
21.15
19.22
17.27
15.64
14.46
13.68
13.08
12.41
11.58
10.67
9.87
9.33
9.08
8.86
8.40
7.41
5.85
3.83
1.62
-0.51
-2.39
-4.04
-5.61
-7.30
-9.29
-11.63
-14.25
-17.01
-19.75
-22.35
-24.76
-27.00
-29.11
-31.17
-33.34
-35.75
-38.44
-41.26
-43.79
-45.36
-45.25
-42.92
-38.25
-31.67
-24.02
-16.32
-9.46
-4.00
0.08
3.16
5.83
8.58
11.68
15.15
18.72
22.10
24.95
27.04
28.24
28.51
27.92
26.66
25.03
23.37
22.02
21.19
20.85
20.85
20.94
20.92
20.71
20.30
19.76
19.18
18.58
17.95
17.28
16.51
15.62
14.55
13.17
11.45
9.39
7.08
4.67
2.33
0.17
-1.80
-3.61
-5.31
-6.88
-8.21
-9.23
-9.93
-10.44
-10.99
-11.86
-13.21
-15.06
-17.31
-19.80
-22.43
-25.21
-28.21
-31.46
-34.90
-38.29
-41.15
-42.93
-43.04
-41.09
-36.94
-30.91
-23.66
-16.11
-9.15
-3.46
0.70
3.55
5.61
7.53
9.76
12.53
15.69
18.96
21.94
24.27
25.82
26.60
26.76
26.51
26.11
25.71
25.47
25.40
25.42
25.47
25.35
24.89
23.99
22.65
20.93
19.01
17.09
15.33
13.84
12.61
11.57
10.64
9.69
8.72
7.79
6.98
6.28
5.61
4.76
3.51
1.78
-0.39
-2.77
-5.09
-7.16
-9.00
-10.78
-12.65
-14.71
-16.93
-19.16
-21.28
-23.23
-25.09
-26.98
-29.08
-31.48
-34.16
-37.02
-39.83
-42.12
-43.37
-42.97
-40.43
-35.65
-29.03
-21.39
-13.66
-6.76
-1.16
3.03
6.05
8.37
10.44
12.55
14.86
17.42
20.11
22.70
24.84
26.27
26.80
26.41
25.32
23.84
22.39
21.28
20.70
20.59
20.83
21.14
21.29
21.21
20.89
20.51
20.21
20.07
19.99
19.73
19.01
17.61
15.60
13.16
10.58
8.12
5.94
4.04
2.30
0.58
-1.22
-3.03
-4.80
-6.40
-7.82
-9.06
-10.22
-11.48
-12.98
-14.87
-17.11
-19.58
-22.04
-24.31
-26.21
-27.71
-28.99
-30.31
-31.98
-34.10
-36.55
-38.86
-40.34
-40.24
-38.01
-33.58
-27.35
-20.23
-13.20
-7.17
-2.67
0.26
2.00
3.18
4.40
6.16
8.60
11.58
14.74
17.71
20.19
22.03
23.26
23.97
24.26
24.20
23.85
23.30
22.68
22.13
21.69
21.20
20.48
19.36
17.80
15.98
14.22
12.84
12.00
11.68
11.63
11.51
11.05
10.05
8.46
6.30
3.73
0.90
-1.87
-4.34
-6.28
-7.64
-8.57
-9.38
-10.41
-11.90
-13.93
-16.29
-18.71
-20.96
-22.98
-25.01
-27.24
-29.86
-32.98
-36.42
-39.80
-42.62
-44.20
-43.92
-41.39
-36.60
-30.00
-22.47
-14.99
-8.35
-2.97
1.22
4.65
7.77
10.88
14.06
17.22
20.19
22.78
24.87
26.41
27.40
27.80
27.61
26.85
25.68
24.38
23.26
22.56
22.44
22.79
23.38
23.89
24.09
23.85
23.23
22.35
21.27
20.06
18.73
17.27
15.70
14.00
12.17
10.15
7.94
5.55
3.07
0.61
-1.67
-3.67
-5.32
-6.55
-7.38
-7.86
-8.12
-8.45
-9.20
-10.67
-12.96
-15.89
-19.07
-22.05
-24.45
-26.16
-27.32
-28.30
-29.46
-31.12
-33.31
-35.85
-38.25
-39.77
-39.62
-37.25
-32.58
-26.07
-18.67
-11.45
-5.28
-0.63
2.60
4.79
6.39
7.82
9.35
11.13
13.18
15.45
17.72
19.70
21.03
21.56
21.34
20.64
19.86
19.35
19.31
19.73
20.47
21.22
21.72
21.86
21.58
20.96
20.11
19.17
18.22
17.34
16.51
15.69
14.90
14.12
13.31
12.47
11.49
10.32
8.84
7.01
4.87
2.60
0.43
-1.43
-2.90
-4.08
-5.19
-6.55
-8.44
-10.98
-14.01
-17.22
-20.22
-22.67
-24.46
-25.72
-26.76
-27.96
-29.62
-31.83
-34.43
-36.97
-38.75
-39.05
-37.30
-33.34
-27.52
-20.68
-13.83
-7.82
-3.12
0.35
2.94
5.12
7.25
9.55
12.09
14.83
17.69
20.43
22.78
24.44
25.18
25.04
24.25
23.10
21.94
20.98
20.28
19.84
19.55
19.28
18.99
18.57
17.94
17.09
16.03
14.76
13.41
12.07
10.80
9.64
8.51
7.37
6.19
4.93
3.57
2.14
0.62
-0.99
-2.60
-4.15
-5.53
-6.74
-7.95
-9.38
-11.22
-13.53
-16.15
-18.72
-20.93
-22.64
-23.97
-25.27
-26.92
-29.11
-31.88
-34.98
-37.99
-40.35
-41.46
-40.77
-37.98
-33.11
-26.65
-19.43
-12.38
-6.26
-1.40
2.28
5.13
7.54
9.81
12.11
14.48
16.94
19.49
22.01
24.24
25.89
26.71
26.66
25.89
24.81
23.80
23.15
22.93
22.97
23.11
23.14
22.96
22.55
21.95
21.19
20.24
19.13
17.88
16.60
15.36
14.17
12.99
11.74
10.37
8.90
7.38
5.85
4.38
2.95
1.51
0.03
-1.52
-3.14
-4.77
-6.36
-7.94
-9.48
-11.07
-12.75
-14.53
-16.37
-18.18
-19.86
-21.31
-22.51
-23.54
-24.59
-25.90
-27.76
-30.31
-33.40
-36.57
-39.04
-39.91
-38.48
-34.58
-28.64
-21.60
-14.61
-8.58
-3.90
-0.47
2.19
4.57
6.99
9.50
12.05
14.47
16.77
18.93
20.85
22.45
23.43
23.68
23.19
22.22
21.18
20.50
20.38
20.73
21.23
21.50
21.27
20.46
19.17
17.62
15.98
14.33
12.74
11.26
9.97
9.01
8.42
8.20
8.24
8.33
8.24
7.81
6.97
5.70
4.11
2.25
0.16
-2.17
-4.75
-7.51
-10.34
-13.07
-15.55
-17.66
-19.36
-20.68
-21.70
-22.58
-23.42
-24.38
-25.62
-27.26
-29.32
-31.61
-33.70
-34.92
-34.59
-32.19
-27.68
-21.57
-14.78
-8.31
-2.96
0.94
3.57
5.37
6.88
8.44
10.21
12.13
14.04
15.74
17.07
17.95
18.38
18.43
18.23
17.90
17.55
17.24
17.01
16.91
16.99
17.23
17.55
17.77
17.65
16.99
15.70
13.89
11.82
9.83
8.10
6.71
5.54
4.41
3.17
1.86
0.64
-0.32
-0.94
-1.37
-1.84
-2.62
-3.83
-5.45
-7.33
-9.33
-11.38
-13.44
-15.47
-17.33
-18.97
-20.27
-21.26
-22.12
-23.12
-24.60
-26.73
-29.52
-32.62
-35.43
-37.12
-36.88
-34.30
-29.48
-23.14
-16.24
-9.82
-4.56
-0.67
2.12
4.23
6.08
7.97
9.95
12.04
14.14
16.20
18.16
19.95
21.42
22.43
23.01
23.18
23.09
22.99
22.99
23.16
23.41
23.58
23.42
22.90
22.01
20.87
19.67
18.50
17.43
16.40
15.35
14.20
13.00
11.75
10.57
9.48
8.43
7.37
6.24
5.03
3.80
2.61
1.52
0.56
-0.30
-1.16
-2.03
-2.93
-3.83
-4.76
-5.81
-7.14
-8.92
-11.28
-14.23
-17.62
-21.19
-24.62
-27.61
-30.02
-31.89
-33.49
-35.07
-36.83
-38.61
-39.85
-39.79
-37.74
-33.44
-27.26
-20.08
-12.93
-6.78
-2.08
1.18
3.37
5.07
6.74
8.69
11.01
13.63
16.30
18.76
20.79
22.29
23.26
23.74
23.79
23.38
22.56
21.44
20.20
19.05
18.18
17.64
17.34
17.08
16.71
16.15
15.44
14.68
13.98
13.33
12.76
12.14
11.39
10.47
9.38
8.17
6.94
5.76
4.56
3.37
2.11
0.80
-0.61
-2.11
-3.72
-5.45
-7.25
-9.14
-11.00
-12.78
-14.39
-15.79
-17.00
-18.07
-19.04
-20.03
-21.14
-22.47
-24.15
-26.09
-28.03
-29.54
-30.04
-29.04
-26.30
-21.97
-16.54
-10.83
-5.57
-1.28
1.86
4.04
5.68
7.22
8.96
11.01
13.24
15.43
17.40
19.02
20.28
21.12
21.55
21.55
21.18
20.59
20.01
19.63
19.48
19.40
19.08
18.26
16.86
15.01
12.95
10.91
8.96
7.03
5.05
2.94
0.73
-1.46
-3.46
-5.13
-6.43
-7.36
-8.04
-8.60
-9.23
-10.00
-10.94
-11.99
-13.05
-14.07
-15.04
-16.03
-17.14
-18.53
-20.31
-22.56
-25.19
-27.88
-30.05
-31.04
-30.25
-27.38
-22.69
-16.85
-10.78
-5.38
-1.19
1.76
3.75
5.34
7.04
9.15
11.78
14.73
17.65
20.09
21.63
22.08
21.43
19.99
18.19
16.45
15.06
14.12
13.57
13.30
13.21
13.27
13.41
13.54
13.53
13.29
12.80
12.15
11.41
10.71
10.08
9.45
8.71
7.83
6.78
5.61
4.45
3.33
2.28
1.25
0.10
-1.32
-3.13
-5.36
-7.91
-10.61
-13.36
-16.13
-18.93
-21.87
-24.95
-28.11
-31.20
-33.85
-35.62
-36.00
-34.61
-31.35
-26.57
-20.92
-15.24
-10.29
-6.33
-3.23
-0.54
2.21
5.20
8.35
11.40
14.06
16.11
17.53
18.34
18.61
18.43
17.92
17.27
16.73
16.48
16.62
17.13
17.95
18.96
20.07
21.08
21.74
21.77
20.94
19.28
17.07
14.72
12.65
11.07
9.88
8.83
7.61
6.01
4.06
1.89
-0.31
-2.46
-4.52
-6.61
-8.75
-11.00
-13.31
-15.55
-17.57
-19.28
-20.67
-21.79
-22.86
-24.01
-25.40
-27.17
-29.34
-31.78
-34.20
-36.11
-36.90
-35.97
-32.98
-27.97
-21.56
-14.55
-7.86
-2.13
2.33
5.62
8.05
9.90
11.43
12.71
13.85
14.93
16.01
17.10
18.12
18.85
19.07
18.70
17.87
16.88
16.08
15.65
15.50
15.38
14.88
13.78
12.14
10.28
8.56
7.32
6.59
6.21
5.93
5.51
4.90
4.19
3.48
2.78
1.98
0.87
-0.76
-3.01
-5.83
-9.02
-12.23
-15.15
-17.54
-19.23
-20.21
-20.61
-20.61
-20.47
-20.47
-20.75
-21.31
-21.94
-22.19
-21.60
-19.80
-16.73
-12.67
-8.25
-4.08
-0.56
2.20
4.41
6.45
8.59
10.90
13.26
15.41
17.14
18.38
19.09
19.33
19.10
18.41
17.32
15.99
14.68
13.69
13.22
13.26
13.60
13.94
13.94
13.40
12.25
10.63
8.73
6.80
5.00
3.45
2.12
0.85
-0.53
-2.20
-4.25
-6.67
-9.33
-12.07
-14.67
-16.96
-18.85
-20.28
-21.35
-22.18
-22.97
-23.77
-24.46
-24.72
-24.13
-22.30
-19.10
-14.75
-9.77
-4.87
-0.60
2.78
5.28
7.20
8.91
10.66
12.55
14.58
16.54
18.24
19.50
20.21
20.31
19.87
19.01
17.89
16.79
15.88
15.32
15.08
15.06
15.02
14.72
13.90
12.46
10.48
8.08
5.47
2.81
0.12
-2.61
-5.49
-8.58
-11.79
-14.94
-17.85
-20.33
-22.31
-23.88
-25.18
-26.44
-27.88
-29.52
-31.11
-32.16
-31.96
-29.93
-25.85
-20.04
-13.29
-6.56
-0.68
3.96
7.32
9.70
11.42
12.69
13.65
14.32
14.78
15.05
15.16
15.06
14.68
13.98
13.03
12.01
11.10
10.46
10.12
10.06
10.20
10.48
10.75
10.80
10.42
9.42
7.74
5.47
2.93
0.47
-1.60
-3.20
-4.49
-5.73
-7.20
-8.98
-11.02
-13.08
-14.87
-16.19
-16.98
-17.42
-17.81
-18.43
-19.54
-21.29
-23.69
-26.60
-29.63
-32.14
-33.42
-32.82
-30.03
-25.20
-18.99
-12.34
-6.20
-1.18
2.58
5.25
7.27
9.08
10.94
12.98
15.18
17.39
19.41
21.06
22.12
22.51
22.24
21.46
20.52
19.83
19.77
20.42
21.69
23.17
24.41
25.00
24.74
23.64
21.85
19.68
17.34
15.06
12.99
11.20
9.67
8.30
7.00
5.66
4.33
3.05
1.97
1.15
0.58
0.11
-0.51
-1.51
-3.03
-5.13
-7.70
-10.52
-13.36
-16.00
-18.32
-20.33
-22.18
-24.14
-26.42
-29.18
-32.32
-35.41
-37.80
-38.71
-37.54
-34.13
-28.87
-22.52
-16.04
-10.23
-5.51
-1.91
0.88
3.28
5.67
8.32
11.33
14.71
18.33
21.90
25.07
27.51
28.97
29.42
28.98
27.87
26.38
24.76
23.18
21.73
20.46
19.42
18.64
18.09
17.72
17.45
17.22
17.03
16.88
16.76
16.57
16.18
15.40
14.12
12.37
10.27
8.05
5.86
3.73
1.67
-0.29
-2.12
-3.69
-4.94
-6.01
-7.07
-8.42
-10.23
-12.50
-15.06
-17.63
-19.98
-21.98
-23.71
-25.28
-26.87
-28.65
-30.69
-32.98
-35.28
-37.21
-38.10
-37.35
-34.47
-29.43
-22.75
-15.37
-8.37
-2.54
1.79
4.78
6.90
8.73
10.62
12.71
14.95
17.12
19.05
20.58
21.59
22.06
22.06
21.71
21.19
20.67
20.27
20.05
19.96
19.97
19.96
19.91
19.73
19.38
18.83
18.05
17.08
15.93
14.62
13.19
11.64
9.97
8.23
6.41
4.51
2.61
0.77
-0.85
-2.12
-2.96
-3.42
-3.61
-3.75
-4.04
-4.61
-5.59
-7.02
-8.95
-11.29
-13.89
-16.44
-18.71
-20.54
-21.93
-23.07
-24.15
-25.36
-26.75
-28.19
-29.38
-29.93
-29.35
-27.27
-23.59
-18.49
-12.63
-6.78
-1.77
1.90
4.11
5.12
5.41
5.48
5.78
6.56
7.93
9.79
11.86
13.84
15.42
16.38
16.68
16.44
15.81
15.02
14.28
13.74
13.54
13.62
13.86
14.04
14.00
13.66
13.06
12.30
11.46
10.61
9.66
8.63
7.53
6.39
5.25
4.10
2.89
1.59
0.20
-1.28
-2.84
-4.45
-6.15
-8.01
-10.04
-12.18
-14.36
-16.44
-18.33
-20.11
-21.88
-23.86
-26.13
-28.53
-30.67
-32.00
-31.87
-29.85
-25.97
-20.61
-14.61
-8.79
-3.86
-0.19
2.15
3.41
3.96
4.20
4.47
5.03
6.01
7.32
8.83
10.26
11.42
12.21
12.62
12.78
12.80
12.81
12.89
13.06
13.35
13.68
13.90
13.77
13.09
11.72
9.71
7.31
4.79
2.47
0.49
-1.14
-2.52
-3.78
-5.06
-6.48
-8.05
-9.72
-11.42
-13.02
-14.49
-15.84
-17.17
-18.72
-20.69
-23.18
-26.04
-28.88
-31.12
-32.08
-31.19
-28.20
-23.29
-17.00
-10.19
-3.66
1.90
6.19
9.20
11.18
12.43
13.38
14.32
15.49
16.94
18.57
20.14
21.37
22.05
22.09
21.59
20.72
19.65
18.50
17.43
16.48
15.68
15.02
14.36
13.58
12.55
11.22
9.68
8.15
6.78
5.71
4.90
4.19
3.43
2.48
1.29
-0.04
-1.46
-2.96
-4.52
-6.18
-7.93
-9.70
-11.42
-13.03
-14.46
-15.80
-17.20
-18.89
-20.99
-23.63
-26.70
-29.96
-32.92
-34.95
-35.36
-33.65
-29.68
-23.82
-16.91
-9.91
-3.73
1.16
4.73
7.31
9.40
11.37
13.42
15.46
17.34
18.85
19.86
20.35
20.36
20.03
19.44
18.67
17.81
16.97
16.32
15.97
16.03
16.42
17.02
17.60
17.99
18.08
17.85
17.34
16.62
15.82
14.95
13.99
12.88
11.51
9.80
7.64
5.10
2.35
-0.32
-2.57
-4.19
-5.16
-5.79
-6.41
-7.44
-9.03
-11.09
-13.29
-15.29
-16.91
-18.16
-19.38
-20.90
-23.04
-25.92
-29.34
-32.82
-35.61
-36.91
-36.04
-32.75
-27.30
-20.43
-13.23
-6.60
-1.24
2.64
5.24
6.95
8.17
9.25
10.39
11.66
13.14
14.74
16.33
17.79
18.95
19.68
19.92
19.75
19.29
18.72
18.14
17.63
17.15
16.56
15.76
14.73
13.57
12.39
11.29
10.26
9.28
8.28
7.14
5.92
4.66
3.38
2.12
0.86
-0.44
-1.84
-3.37
-5.17
-7.25
-9.52
-11.84
-13.95
-15.62
-16.77
-17.49
-17.99
-18.60
-19.65
-21.38
-23.99
-27.36
-31.12
-34.50
-36.58
-36.51
-33.83
-28.70
-21.94
-14.69
-8.03
-2.73
1.05
3.65
5.62
7.51
9.69
12.22
14.96
17.67
20.03
21.83
22.94
23.34
23.17
22.64
22.03
21.54
21.29
21.26
21.38
21.58
21.76
21.83
21.61
20.94
19.77
18.12
16.20
14.28
12.60
11.18
9.89
8.45
6.70
4.58
2.22
-0.14
-2.30
-4.13
-5.69
-7.06
-8.40
-9.81
-11.37
-13.10
-14.98
-16.96
-18.97
-20.95
-22.79
-24.53
-26.28
-28.19
-30.41
-32.92
-35.43
-37.38
-38.03
-36.73
-33.18
-27.66
-20.81
-13.62
-6.98
-1.51
2.56
5.36
7.26
8.69
10.06
11.69
13.66
15.90
18.12
19.99
21.23
21.75
21.61
21.04
20.34
19.72
19.33
19.19
19.21
19.26
19.22
18.93
18.32
17.35
16.00
14.38
12.62
10.87
9.32
8.14
7.34
6.79
6.26
5.49
4.31
2.71
0.83
-1.13
-2.93
-4.50
-5.82
-7.03
-8.32
-9.80
-11.59
-13.66
-15.94
-18.25
-20.43
-22.35
-23.91
-25.27
-26.60
-28.20
-30.25
-32.63
-34.85
-36.20
-35.83
-33.27
-28.59
-22.38
-15.61
-9.22
-3.90
0.17
3.09
5.22
6.91
8.37
9.86
11.49
13.32
15.24
17.07
18.56
19.57
20.15
20.39
20.50
20.53
20.51
20.42
20.28
20.17
20.18
20.32
20.42
20.31
19.81
18.92
17.77
16.52
15.31
14.14
13.00
11.75
10.39
8.96
7.54
6.18
4.89
3.60
2.23
0.75
-0.86
-2.52
-4.22
-5.96
-7.80
-9.80
-12.00
-14.35
-16.76
-19.09
-21.23
-23.18
-25.03
-26.94
-29.09
-31.61
-34.40
-37.09
-39.09
-39.70
-38.42
-35.10
-30.00
-23.74
-17.16
-11.04
-5.91
-1.95
0.98
3.26
5.37
7.73
10.57
13.83
17.29
20.62
23.47
25.63
26.99
27.58
27.55
27.04
26.28
25.43
24.62
23.86
23.08
22.14
20.95
19.56
18.04
16.58
15.34
14.46
13.99
13.88
14.03
14.24
14.27
13.94
13.19
12.12
10.84
9.50
8.20
6.96
5.77
4.57
3.34
2.08
0.80
-0.54
-1.98
-3.48
-5.02
-6.63
-8.35
-10.24
-12.35
-14.64
-17.09
-19.57
-21.94
-24.14
-26.21
-28.24
-30.40
-32.86
-35.66
-38.72
-41.61
-43.64
-44.02
-42.09
-37.61
-31.06
-23.46
-16.01
-9.73
-5.04
-1.67
0.97
3.62
6.73
10.34
14.21
17.99
21.35
24.01
25.84
26.73
26.72
25.96
24.74
23.40
22.31
21.74
21.76
22.29
23.02
23.64
23.88
23.56
22.68
21.41
19.99
18.62
17.46
16.52
15.80
15.27
14.85
14.42
13.80
12.83
11.40
9.62
7.64
5.72
4.05
2.60
1.20
-0.35
-2.16
-4.14
-5.97
-7.38
-8.20
-8.53
-8.73
-9.16
-10.07
-11.50
-13.28
-15.12
-16.86
-18.49
-20.16
-22.08
-24.38
-27.14
-30.31
-33.79
-37.29
-40.34
-42.25
-42.26
-39.77
-34.65
-27.41
-19.11
-10.91
-3.79
1.80
5.98
9.15
11.71
13.92
15.88
17.53
18.91
20.05
20.93
21.50
21.66
21.34
20.65
19.83
19.11
18.65
18.53
18.68
19.00
19.41
19.78
20.01
19.99
19.53
18.55
17.07
15.27
13.46
11.85
10.53
9.46
8.49
7.52
6.57
5.72
5.09
4.67
4.33
3.84
3.03
1.89
0.53
-0.80
-2.06
-3.25
-4.55
-6.18
-8.26
-10.81
-13.70
-16.76
-19.74
-22.42
-24.65
-26.31
-27.46
-28.34
-29.30
-30.67
-32.59
-34.84
-36.77
-37.58
-36.56
-33.41
-28.39
-22.22
-15.81
-10.04
-5.34
-1.77
0.95
3.23
5.48
8.00
10.89
14.15
17.58
20.90
23.76
25.82
26.86
26.87
26.04
24.76
23.42
22.29
21.57
21.23
21.17
21.23
21.28
21.14
20.79
20.26
19.61
18.98
18.42
17.92
17.41
16.77
15.88
14.71
13.26
11.59
9.80
7.93
6.02
4.16
2.38
0.68
-0.99
-2.69
-4.46
-6.29
-8.06
-9.58
-10.72
-11.46
-11.93
-12.38
-13.04
-14.05
-15.37
-16.83
-18.16
-19.24
-20.05
-20.76
-21.65
-23.01
-24.99
-27.61
-30.65
-33.66
-36.05
-37.12
-36.27
-33.23
-28.19
-21.87
-15.21
-9.13
-4.19
-0.58
1.97
3.86
5.47
7.07
8.80
10.76
12.97
15.49
18.13
20.72
22.94
24.47
25.18
25.08
24.40
23.44
22.52
21.78
21.24
20.78
20.24
19.56
18.74
17.89
17.03
16.19
15.31
14.39
13.41
12.41
11.46
10.58
9.71
8.73
7.58
6.19
4.62
2.91
1.11
-0.70
-2.46
-4.11
-5.60
-6.94
-8.13
-9.29
-10.50
-11.83
-13.27
-14.81
-16.34
-17.75
-18.90
-19.73
-20.34
-20.90
-21.80
-23.34
-25.76
-28.94
-32.41
-35.44
-37.18
-36.97
-34.44
-29.76
-23.47
-16.41
-9.41
-3.21
1.74
5.25
7.43
8.65
9.32
9.86
10.64
11.81
13.38
15.20
17.10
18.90
20.50
21.85
22.89
23.60
23.93
23.84
23.31
22.40
21.18
19.75
18.19
16.57
15.00
13.53
12.26
11.23
10.47
9.91
9.41
8.83
8.06
7.07
5.78
4.28
2.60
0.81
-1.01
-2.75
-4.31
-5.59
-6.55
-7.32
-8.05
-9.03
-10.46
-12.42
-14.75
-17.14
-19.30
-21.01
-22.30
-23.31
-24.33
-25.65
-27.43
-29.68
-32.24
-34.77
-36.72
-37.48
-36.50
-33.47
-28.58
-22.39
-15.78
-9.61
-4.41
-0.27
3.02
5.88
8.60
11.31
14.00
16.49
18.67
20.42
21.65
22.29
22.31
21.82
21.01
20.25
19.75
19.70
20.03
20.58
21.10
21.38
21.38
21.03
20.42
19.69
18.99
18.34
17.78
17.20
16.44
15.37
13.89
12.09
10.13
8.23
6.55
5.16
4.00
2.89
1.68
0.21
-1.47
-3.27
-5.00
-6.58
-8.06
-9.54
-11.25
-13.19
-15.34
-17.52
-19.54
-21.27
-22.78
-24.22
-25.74
-27.49
-29.48
-31.70
-34.02
-36.31
-38.29
-39.54
-39.51
-37.66
-33.78
-28.04
-21.10
-13.90
-7.42
-2.30
1.29
3.64
5.33
6.92
8.80
11.13
13.86
16.72
19.39
21.56
23.04
23.81
23.98
23.77
23.39
22.96
22.54
22.10
21.65
21.20
20.81
20.43
20.03
19.46
18.69
17.75
16.78
15.89
15.04
14.20
13.19
11.93
10.43
8.83
7.28
5.96
4.87
3.87
2.85
1.65
0.23
-1.33
-2.93
-4.40
-5.63
-6.64
-7.55
-8.57
-9.91
-11.70
-13.92
-16.50
-19.25
-21.96
-24.53
-26.95
-29.29
-31.64
-34.03
-36.34
-38.25
-39.29
-38.92
-36.72
-32.61
-26.91
-20.32
-13.67
-7.62
-2.52
1.66
5.11
8.03
10.57
12.74
14.56
16.10
17.42
18.54
19.36
19.69
19.36
18.50
17.40
16.43
15.92
16.01
16.62
17.56
18.61
19.56
20.29
20.68
20.61
19.98
18.77
17.02
14.95
12.83
10.93
9.36
8.14
7.17
6.31
5.42
4.40
3.20
1.83
0.32
-1.24
-2.78
-4.25
-5.64
-7.06
-8.68
-10.57
-12.79
-15.24
-17.71
-19.99
-21.93
-23.55
-25.01
-26.55
-28.41
-30.82
-33.79
-36.99
-39.82
-41.44
-41.08
-38.29
-33.16
-26.34
-18.85
-11.73
-5.73
-1.06
2.46
5.26
7.73
10.12
12.45
14.71
16.81
18.70
20.33
21.66
22.56
22.98
22.93
22.48
21.87
21.37
21.21
21.50
22.19
23.03
23.68
23.84
23.35
22.29
20.89
19.42
18.06
16.85
15.70
14.50
13.13
11.60
9.93
8.24
6.53
4.89
3.36
1.93
0.67
-0.38
-1.21
-1.77
-2.11
-2.35
-2.64
-3.19
-4.20
-5.78
-7.89
-10.44
-13.24
-16.15
-19.07
-21.93
-24.69
-27.33
-29.78
-32.04
-34.21
-36.38
-38.64
-40.84
-42.51
-42.91
-41.32
-37.42
-31.50
-24.49
-17.52
-11.56
-7.06
-3.87
-1.44
0.88
3.56
6.82
10.64
14.82
19.08
22.96
26.01
27.82
28.21
27.31
25.48
23.32
21.38
20.12
19.71
20.08
20.94
21.91
22.64
22.84
22.42
21.38
19.85
18.01
16.08
14.25
12.64
11.35
10.34
9.54
8.80
8.04
7.15
6.10
4.85
3.32
1.52
-0.52
-2.71
-4.93
-7.16
-9.47
-11.94
-14.59
-17.27
-19.73
-21.59
-22.66
-22.96
-22.80
-22.65
-23.01
-24.22
-26.34
-29.17
-32.19
-34.73
-36.04
-35.52
-32.85
-28.19
-22.15
-15.59
-9.33
-3.92
0.44
3.96
6.95
9.77
12.57
15.36
18.01
20.35
22.13
23.13
23.32
22.78
21.83
20.87
20.28
20.21
20.62
21.36
22.17
22.90
23.41
23.54
23.18
22.25
20.78
18.91
16.90
14.97
13.20
11.57
10.01
8.57
7.36
6.50
6.02
5.77
5.47
4.83
3.67
1.99
0.00
-2.09
-4.07
-5.88
-7.57
-9.30
-11.25
-13.51
-16.08
-18.78
-21.39
-23.69
-25.55
-27.04
-28.39
-29.90
-31.85
-34.33
-37.25
-40.20
-42.52
-43.38
-42.10
-38.36
-32.49
-25.35
-18.13
-11.88
-7.22
-4.07
-1.82
0.29
2.96
6.41
10.54
15.03
19.54
23.72
27.33
30.17
32.03
32.87
32.70
31.75
30.41
29.04
27.91
27.11
26.51
25.90
25.13
24.11
22.91
21.72
20.72
19.98
19.47
19.04
18.50
17.77
16.81
15.63
14.35
13.01
11.64
10.27
8.95
7.67
6.48
5.37
4.30
3.21
2.04
0.77
-0.54
-1.86
-3.13
-4.29
-5.41
-6.53
-7.84
-9.44
-11.49
-13.99
-16.86
-19.91
-22.81
-25.32
-27.31
-28.87
-30.24
-31.86
-34.10
-37.17
-40.88
-44.57
-47.26
-47.95
-45.96
-41.19
-34.22
-26.10
-18.00
-10.88
-5.16
-0.81
2.54
5.36
8.07
10.95
14.05
17.31
20.54
23.53
25.98
27.64
28.38
28.15
27.13
25.64
24.14
23.05
22.66
22.97
23.78
24.74
25.45
25.61
25.13
24.06
22.60
21.01
19.42
17.89
16.33
14.69
12.93
11.10
9.33
7.73
6.35
5.12
3.89
2.52
0.95
-0.73
-2.37
-3.94
-5.45
-7.04
-8.82
-10.81
-13.00
-15.21
-17.24
-18.94
-20.23
-21.23
-22.17
-23.35
-25.07
-27.52
-30.66
-34.11
-37.20
-39.09
-39.02
-36.59
-31.85
-25.40
-18.08
-10.89
-4.52
0.70
4.85
8.20
11.02
13.48
15.62
17.45
18.97
20.21
21.18
21.88
22.25
22.21
21.77
21.01
20.15
19.44
19.05
19.01
19.24
19.51
19.67
19.56
19.09
18.24
17.07
15.66
14.11
12.48
10.86
9.32
7.91
6.61
5.38
4.15
2.78
1.27
-0.35
-2.01
-3.56
-4.94
-6.24
-7.58
-9.11
-10.94
-13.00
-15.18
-17.40
-19.58
-21.78
-24.00
-26.21
-28.40
-30.61
-33.00
-35.72
-38.75
-41.71
-43.90
-44.45
-42.66
-38.34
-31.90
-24.26
-16.48
-9.52
-3.83
0.54
3.94
6.86
9.64
12.52
15.51
18.48
21.27
23.73
25.72
27.10
27.79
27.74
27.06
26.07
25.16
24.71
24.91
25.65
26.59
27.24
27.28
26.58
25.21
23.42
21.40
19.30
17.15
14.94
12.69
10.53
8.64
7.27
6.56
6.50
6.93
7.50
7.85
7.72
6.97
5.62
3.73
1.43
-1.18
-4.01
-7.02
-10.12
-13.24
-16.36
-19.47
-22.51
-25.38
-28.01
-30.29
-32.25
-33.95
-35.49
-37.06
-38.76
-40.58
-42.24
-43.29
-43.05
-40.96
-36.78
-30.70
-23.50
-16.10
-9.48
-4.21
-0.44
2.20
4.24
6.25
8.60
11.41
14.62
18.01
21.31
24.27
26.69
28.34
29.16
29.14
28.48
27.48
26.45
25.64
25.17
25.00
24.92
24.69
24.10
23.11
21.82
20.47
19.28
18.36
17.62
16.83
15.73
14.20
12.27
10.15
8.11
6.32
4.86
3.65
2.57
1.54
0.55
-0.41
-1.40
-2.50
-3.74
-5.13
-6.68
-8.35
-10.19
-12.25
-14.49
-16.84
-19.12
-21.15
-22.83
-24.21
-25.45
-26.88
-28.79
-31.27
-34.19
-37.10
-39.34
-40.18
-39.00
-35.50
-29.92
-22.95
-15.50
-8.52
-2.64
1.91
5.27
7.85
10.09
12.35
14.78
17.39
19.94
22.16
23.80
24.59
24.50
23.59
22.16
20.48
18.93
17.74
17.07
16.98
17.33
17.90
18.36
18.40
17.81
16.66
15.14
13.55
12.22
11.22
10.47
9.78
8.88
7.62
5.93
3.91
1.70
-0.50
-2.58
-4.55
-6.51
-8.60
-10.89
-13.30
-15.59
-17.55
-19.09
-20.36
-21.69
-23.46
-25.85
-28.85
-32.17
-35.38
-37.97
-39.40
-39.17
-36.95
-32.68
-26.77
-19.90
-13.00
-6.96
-2.31
0.89
2.94
4.34
5.63
7.16
9.17
11.74
14.73
17.89
20.87
23.30
24.86
25.46
25.25
24.51
23.66
23.00
22.66
22.62
22.73
22.77
22.53
21.92
20.83
19.36
17.55
15.56
13.56
11.70
10.11
8.76
7.54
6.25
4.79
3.12
1.37
-0.31
-1.82
-3.24
-4.80
-6.79
-9.41
-12.57
-16.03
-19.33
-22.08
-24.04
-25.23
-25.85
-26.34
-27.09
-28.39
-30.30
-32.59
-34.76
-36.19
-36.22
-34.40
-30.71
-25.53
-19.62
-13.83
-8.83
-4.93
-2.00
0.40
2.80
5.58
8.87
12.54
16.30
19.81
22.78
24.95
26.13
26.27
25.48
24.10
22.52
21.15
20.23
19.78
19.62
19.50
19.22
18.68
17.96
17.16
16.32
15.40
14.38
13.24
12.04
10.85
9.70
8.58
7.43
6.19
4.83
3.44
2.08
0.79
-0.50
-1.92
-3.62
-5.66
-7.99
-10.49
-12.98
-15.30
-17.32
-18.93
-20.07
-20.88
-21.61
-22.62
-24.23
-26.68
-29.83
-33.20
-36.01
-37.45
-36.91
-34.17
-29.53
-23.66
-17.47
-11.80
-7.19
-3.78
-1.37
0.53
2.41
4.67
7.46
10.64
13.87
16.74
18.94
20.33
20.95
20.91
20.40
19.57
18.56
17.49
16.49
15.66
15.02
14.58
14.29
14.14
14.12
14.18
14.26
14.26
14.08
13.61
12.82
11.67
10.16
8.29
6.14
3.82
1.42
-0.98
-3.37
-5.81
-8.39
-11.10
-13.81
-16.27
-18.22
-19.56
-20.32
-20.69
-20.97
-21.52
-22.51
-24.04
-25.91
-27.78
-29.13
-29.45
-28.39
-25.90
-22.30
-18.11
-13.88
-10.02
-6.72
-3.92
-1.44
0.95
3.44
6.15
9.10
12.26
15.43
18.38
20.85
22.64
23.72
24.18
24.26
24.15
24.01
23.91
23.88
23.83
23.72
23.37
22.71
21.72
20.39
18.81
17.19
15.63
14.26
13.07
12.02
11.07
10.19
9.39
8.62
7.85
6.92
5.71
4.08
1.99
-0.44
-3.04
-5.51
-7.77
-9.76
-11.68
-13.62
-15.67
-17.78
-19.79
-21.55
-23.00
-24.24
-25.47
-26.87
-28.49
-30.31
-32.23
-34.04
-35.49
-36.21
-35.81
-33.97
-30.65
-26.12
-20.90
-15.66
-10.91
-6.92
-3.57
-0.62
2.23
5.17
8.23
11.36
14.45
17.35
19.83
21.71
22.85
23.30
23.23
22.94
22.73
22.82
23.22
23.80
24.37
24.69
24.61
24.05
23.05
21.69
20.15
18.65
17.30
16.18
15.20
14.29
13.41
12.56
11.80
11.13
10.44
9.63
8.59
7.33
6.05
4.88
3.90
3.06
2.18
1.04
-0.39
-2.03
-3.69
-5.14
-6.34
-7.38
-8.46
-9.80
-11.54
-13.60
-15.77
-17.81
-19.55
-21.00
-22.36
-23.86
-25.75
-28.08
-30.76
-33.56
-36.13
-38.01
-38.77
-37.99
-35.44
-31.27
-25.92
-20.10
-14.63
-10.08
-6.69
-4.32
-2.50
-0.71
1.43
4.12
7.37
10.93
14.50
17.81
20.56
22.53
23.68
24.04
23.85
23.41
22.99
22.74
22.72
22.78
22.70
22.29
21.39
20.05
18.46
16.80
15.32
14.20
13.46
13.03
12.84
12.75
12.71
12.74
12.78
12.79
12.66
12.20
11.26
9.73
7.54
4.86
1.98
-0.80
-3.16
-4.99
-6.39
-7.57
-8.73
-10.05
-11.53
-13.06
-14.55
-15.92
-17.19
-18.48
-19.89
-21.47
-23.24
-25.21
-27.38
-29.76
-32.13
-34.08
-35.04
-34.48
-32.09
-28.00
-22.72
-16.99
-11.58
-6.89
-2.95
0.51
3.90
7.46
11.17
14.82
18.02
20.42
21.85
22.39
22.31
21.95
21.56
21.17
20.77
20.32
19.88
19.63
19.70
20.19
20.99
21.81
22.31
22.24
21.58
20.42
18.94
17.26
15.44
13.49
11.47
9.43
7.48
5.75
4.32
3.21
2.31
1.52
0.75
-0.02
-0.83
-1.69
-2.67
-3.87
-5.35
-7.15
-9.22
-11.47
-13.84
-16.25
-18.55
-20.59
-22.18
-23.16
-23.61
-23.81
-24.13
-24.99
-26.58
-28.83
-31.38
-33.60
-34.81
-34.42
-32.14
-28.03
-22.63
-16.73
-11.09
-6.33
-2.63
0.22
2.62
4.97
7.55
10.36
13.25
15.97
18.29
20.03
21.20
21.83
22.11
22.20
22.20
22.17
22.10
21.91
21.59
21.12
20.51
19.77
18.86
17.68
16.19
14.42
12.50
10.68
9.23
8.26
7.78
7.66
7.78
8.07
8.48
8.98
9.46
9.77
9.71
9.16
8.14
6.75
5.15
3.45
1.74
0.14
-1.22
-2.28
-3.03
-3.69
-4.53
-5.88
-7.92
-10.67
-13.96
-17.52
-21.02
-24.23
-27.03
-29.43
-31.55
-33.49
-35.34
-36.97
-38.10
-38.16
-36.67
-33.29
-28.16
-21.82
-15.12
-8.90
-3.69
0.31
3.33
5.73
7.86
9.94
11.93
13.73
15.23
16.39
17.22
17.77
18.06
18.10
17.88
17.44
16.95
16.59
16.55
16.87
17.48
18.15
18.62
18.72
18.34
17.56
16.48
15.28
14.09
13.01
12.06
11.19
10.30
9.29
8.17
6.96
5.81
4.87
4.19
3.72
3.25
2.59
1.54
0.07
-1.78
-3.89
-6.14
-8.47
-10.83
-13.11
-15.13
-16.70
-17.64
-17.96
-17.82
-17.52
-17.49
-18.00
-19.18
-20.95
-23.10
-25.27
-27.07
-27.96
-27.47
-25.34
-21.58
-16.57
-10.94
-5.48
-0.78
2.77
5.15
6.57
7.36
7.92
8.57
9.49
10.73
12.14
13.45
14.42
14.92
14.97
14.72
14.43
14.30
14.43
14.79
15.27
15.64
15.74
15.48
14.92
14.16
13.30
12.43
11.52
10.54
9.47
8.42
7.45
6.57
5.65
4.48
2.90
0.93
-1.24
-3.27
-4.83
-5.85
-6.44
-6.94
-7.72
-8.96
-10.67
-12.73
-14.97
-17.16
-19.21
-21.03
-22.63
-24.05
-25.34
-26.62
-27.96
-29.34
-30.56
-31.23
-30.89
-29.13
-25.77
-20.95
-15.17
-9.13
-3.53
1.03
4.28
6.30
7.40
8.03
8.67
9.61
10.97
12.70
14.53
16.18
17.42
18.20
18.57
18.73
18.86
19.07
19.37
19.63
19.69
19.43
18.81
17.86
16.74
15.64
14.65
13.82
13.00
12.11
11.00
9.69
8.30
6.93
5.62
4.29
2.83
1.11
-0.82
-2.84
-4.74
-6.29
-7.40
-8.14
-8.71
-9.28
-10.01
-10.96
-12.08
-13.28
-14.45
-15.53
-16.58
-17.71
-19.06
-20.73
-22.86
-25.41
-28.26
-31.16
-33.64
-35.14
-35.12
-33.16
-29.25
-23.76
-17.39
-10.99
-5.30
-0.70
2.73
5.22
7.18
8.91
10.68
12.58
14.60
16.57
18.33
19.71
20.56
20.87
20.69
20.21
19.65
19.16
18.75
18.35
17.87
17.22
16.39
15.43
14.48
13.59
12.82
12.19
11.67
11.24
10.92
10.69
10.49
10.27
9.95
9.41
8.61
7.47
6.02
4.26
2.31
0.25
-1.87
-3.94
-5.94
-7.84
-9.70
-11.54
-13.39
-15.20
-16.94
-18.56
-20.00
-21.22
-22.30
-23.40
-24.64
-26.18
-28.06
-30.24
-32.51
-34.41
-35.37
-34.79
-32.35
-28.03
-22.29
-15.94
-9.80
-4.62
-0.74
1.92
3.75
5.21
6.62
8.11
9.64
11.16
12.56
13.87
15.06
16.13
17.01
17.60
17.80
17.62
17.18
16.66
16.23
15.92
15.80
15.76
15.75
15.63
15.29
14.66
13.71
12.46
10.99
9.47
7.99
6.60
5.31
4.02
2.73
1.43
0.19
-0.90
-1.74
-2.38
-2.97
-3.68
-4.74
-6.15
-7.88
-9.69
-11.44
-12.98
-14.31
-15.52
-16.79
-18.36
-20.33
-22.78
-25.46
-27.95
-29.57
-29.70
-27.91
-24.22
-19.04
-13.00
-6.89
-1.22
3.66
7.73
11.13
13.97
16.36
18.26
19.68
20.54
20.91
20.89
20.54
19.99
19.16
18.08
16.72
15.23
13.82
12.81
12.39
12.55
13.17
13.87
14.39
14.51
14.17
13.51
12.76
12.10
11.65
11.40
11.24
11.02
10.60
9.90
8.94
7.83
6.72
5.72
4.89
4.15
3.39
2.47
1.30
-0.13
-1.75
-3.43
-5.08
-6.67
-8.25
-9.87
-11.62
-13.53
-15.59
-17.75
-19.89
-21.86
-23.52
-24.82
-25.77
-26.55
-27.31
-28.25
-29.50
-31.08
-32.79
-34.22
-34.81
-33.96
-31.32
-26.91
-21.22
-15.05
-9.25
-4.42
-0.77
1.84
3.85
5.71
7.82
10.35
13.32
16.53
19.71
22.48
24.57
25.87
26.40
26.44
26.20
25.91
25.68
25.49
25.21
24.77
24.10
23.17
22.08
20.85
19.57
18.33
17.16
16.03
14.96
13.92
12.88
11.86
10.87
9.85
8.79
7.64
6.39
5.14
3.99
2.98
2.15
1.39
0.49
-0.67
-2.18
-3.90
-5.60
-7.14
-8.50
-9.82
-11.38
-13.36
-15.74
-18.33
-20.74
-22.67
-23.98
-24.78
-25.32
-26.03
-27.22
-29.07
-31.54
-34.25
-36.63
-37.98
-37.69
-35.38
-31.19
-25.64
-19.59
-13.92
-9.17
-5.46
-2.57
-0.05
2.55
5.42
8.55
11.76
14.81
17.51
19.71
21.41
22.55
23.21
23.41
23.22
22.74
22.13
21.61
21.30
21.25
21.35
21.35
20.94
19.94
18.28
16.15
13.88
11.80
10.16
9.01
8.18
7.43
6.59
5.50
4.11
2.44
0.51
-1.54
-3.50
-5.20
-6.53
-7.47
-8.22
-9.07
-10.30
-12.06
-14.23
-16.53
-18.67
-20.42
-21.80
-22.99
-24.29
-25.98
-28.21
-30.80
-33.39
-35.41
-36.30
-35.66
-33.28
-29.26
-23.91
-17.79
-11.52
-5.73
-0.85
2.90
5.58
7.49
9.09
10.78
12.77
15.03
17.35
19.53
21.37
22.81
23.83
24.45
24.74
24.67
24.32
23.81
23.25
22.71
22.16
21.57
20.92
20.27
19.66
19.10
18.56
17.91
17.04
15.91
14.55
13.07
11.58
10.09
8.60
7.08
5.52
3.97
2.52
1.21
0.00
-1.12
-2.27
-3.57
-5.04
-6.76
-8.67
-10.73
-12.93
-15.18
-17.42
-19.61
-21.73
-23.80
-25.92
-28.15
-30.64
-33.44
-36.48
-39.48
-41.86
-42.95
-42.10
-38.95
-33.57
-26.63
-19.06
-11.89
-5.80
-1.08
2.43
5.10
7.29
9.36
11.49
13.78
16.25
18.79
21.14
23.00
24.13
24.46
24.09
23.30
22.47
21.86
21.62
21.79
22.24
22.79
23.17
23.11
22.44
21.10
19.22
17.03
14.90
13.17
12.05
11.52
11.42
11.47
11.35
10.81
9.80
8.40
6.76
5.00
3.12
1.03
-1.40
-4.22
-7.39
-10.71
-13.93
-16.86
-19.36
-21.43
-23.13
-24.51
-25.65
-26.62
-27.57
-28.75
-30.39
-32.64
-35.38
-38.18
-40.31
-40.98
-39.54
-35.86
-30.32
-23.76
-17.12
-11.21
-6.46
-2.87
-0.15
2.15
4.39
6.79
9.37
12.15
15.03
17.86
20.47
22.62
24.13
24.86
24.76
23.90
22.55
21.10
19.86
19.07
18.73
18.68
18.62
18.30
17.63
16.70
15.71
14.81
14.06
13.38
12.66
11.76
10.57
8.97
6.96
4.57
1.94
-0.69
-3.19
-5.56
-7.90
-10.46
-13.37
-16.62
-19.96
-23.05
-25.58
-27.50
-29.04
-30.44
-32.03
-34.06
-36.64
-39.71
-42.98
-45.89
-47.70
-47.74
-45.55
-41.20
-35.30
-28.71
-22.39
-16.89
-12.32
-8.39
-4.63
-0.57
4.04
9.27
14.93
20.69
26.11
30.72
34.16
36.22
36.98
36.73
35.89
34.91
34.06
33.49
33.19
33.03
32.85
32.52
31.92
31.00
29.85
28.55
27.21
25.91
24.62
23.26
21.76
20.06
18.22
16.37
14.63
13.09
11.74
10.50
9.23
7.82
6.11
4.06
1.67
-0.96
-3.64
-6.16
-8.28
-9.97
-11.35
-12.66
-14.23
-16.26
-18.86
-21.97
-25.34
-28.74
-31.93
-34.82
-37.44
-40.00
-42.70
-45.78
-49.24
-52.83
-56.01
-57.97
-57.94
-55.41
-50.42
-43.49
-35.57
-27.59
-20.33
-14.09
-8.81
-4.17
0.16
4.50
8.95
13.53
18.16
22.65
26.77
30.31
33.09
35.04
36.23
36.78
36.92
36.88
36.89
37.06
37.43
37.88
38.14
38.03
37.40
36.30
34.97
33.68
32.68
32.03
31.51
30.80
29.62
27.82
25.50
22.92
20.34
18.03
16.05
14.37
12.94
11.76
10.82
10.08
9.43
8.60
7.34
5.48
3.04
0.27
-2.51
-5.13
-7.55
-9.92
-12.50
-15.39
-18.55
-21.81
-24.93
-27.78
-30.39
-32.90
-35.48
-38.35
-41.65
-45.43
-49.58
-53.74
-57.28
-59.34
-59.14
-56.18
-50.60
-43.05
-34.58
-26.25
-18.78
-12.41
-6.89
-1.79
3.25
8.44
13.72
18.94
23.87
28.25
31.80
34.33
35.70
35.98
35.47
34.65
33.99
33.79
34.11
34.77
35.49
36.01
36.18
35.93
35.23
34.12
32.62
30.82
28.84
26.89
25.13
23.62
22.31
20.99
19.47
17.63
15.52
13.25
10.98
8.79
6.66
4.48
2.14
-0.34
-2.89
-5.36
-7.65
-9.78
-11.86
-14.06
-16.45
-19.05
-21.74
-24.40
-26.90
-29.18
-31.32
-33.44
-35.77
-38.45
-41.57
-44.92
-48.07
-50.28
-50.79
-49.04
-44.84
-38.63
-31.24
-23.72
-16.89
-11.18
-6.47
-2.41
1.40
5.30
9.38
13.64
18.01
22.36
26.47
30.05
32.75
34.34
34.90
34.71
34.27
34.00
34.13
34.62
35.30
35.89
36.16
35.97
35.29
34.17
32.69
30.97
29.14
27.40
25.88
24.64
23.68
22.79
21.77
20.39
18.49
16.18
13.73
11.45
9.63
8.36
7.42
6.48
5.17
3.27
0.80
-2.03
-4.93
-7.62
-9.99
-12.11
-14.10
-16.09
-18.18
-20.33
-22.41
-24.29
-25.94
-27.38
-28.75
-30.21
-31.89
-33.91
-36.40
-39.36
-42.68
-45.96
-48.50
-49.47
-48.12
-44.13
-37.83
-30.13
-22.26
-15.27
-9.71
-5.53
-2.23
0.85
4.20
8.01
12.19
16.54
20.76
24.61
27.83
30.20
31.60
32.09
31.87
31.24
30.59
30.14
30.05
30.28
30.69
31.05
31.07
30.48
29.11
27.01
24.44
21.83
19.60
17.96
16.88
16.10
15.34
14.34
13.11
11.79
10.64
9.84
9.36
9.06
8.64
7.84
6.48
4.55
2.21
-0.33
-2.84
-5.14
-7.11
-8.79
-10.23
-11.64
-13.14
-14.87
-16.84
-18.93
-20.99
-22.82
-24.46
-25.99
-27.67
-29.73
-32.33
-35.34
-38.36
-40.81
-41.94
-41.18
-38.25
-33.32
-27.07
-20.39
-14.17
-9.01
-5.11
-2.24
0.02
2.15
4.46
7.06
9.93
12.95
15.94
18.70
21.02
22.65
23.48
23.53
23.00
22.29
21.77
21.73
22.16
22.84
23.41
23.59
23.30
22.61
21.66
20.55
19.30
17.83
16.13
14.23
12.26
10.41
8.79
7.43
6.18
4.84
3.25
1.37
-0.71
-2.82
-4.73
-6.30
-7.43
-8.18
-8.73
-9.31
-10.10
-11.21
-12.64
-14.27
-16.05
-17.89
-19.78
-21.79
-23.95
-26.28
-28.75
-31.32
-33.89
-36.26
-38.04
-38.70
-37.75
-34.91
-30.31
-24.48
-18.23
-12.40
-7.67
-4.28
-2.05
-0.48
1.05
3.07
5.79
9.21
13.07
16.95
20.48
23.34
25.31
26.27
26.22
25.27
23.77
22.12
20.75
19.92
19.66
19.77
19.97
19.99
19.73
19.17
18.39
17.46
16.38
15.17
13.83
12.37
10.84
9.24
7.58
5.90
4.30
2.89
1.73
0.87
0.21
-0.38
-1.04
-1.88
-2.91
-4.08
-5.31
-6.54
-7.77
-9.08
-10.49
-12.02
-13.62
-15.22
-16.69
-17.93
-18.94
-19.81
-20.78
-22.12
-24.02
-26.56
-29.58
-32.67
-35.20
-36.47
-35.89
-33.17
-28.52
-22.54
-16.13
-10.08
-4.89
-0.65
2.83
5.82
8.50
10.84
12.78
14.26
15.38
16.22
16.86
17.21
17.20
16.71
15.83
14.79
13.88
13.35
13.28
13.56
13.98
14.35
14.51
14.37
13.97
13.31
12.39
11.29
10.10
8.94
7.96
7.28
6.86
6.69
6.64
6.54
6.28
5.78
4.98
3.87
2.51
0.97
-0.63
-2.21
-3.66
-5.02
-6.31
-7.60
-8.89
-10.22
-11.63
-13.14
-14.80
-16.67
-18.73
-20.94
-23.28
-25.69
-28.08
-30.36
-32.21
-33.19
-32.85
-30.85
-27.22
-22.32
-16.80
-11.34
-6.55
-2.67
0.32
2.68
4.71
6.60
8.38
9.92
11.10
11.82
12.09
12.03
11.81
11.57
11.39
11.28
11.26
11.38
11.74
12.42
13.37
14.50
15.61
16.51
17.02
17.03
16.45
15.27
13.57
11.41
8.97
6.50
4.27
2.45
1.17
0.41
0.06
-0.04
-0.03
-0.07
-0.23
-0.56
-1.12
-1.88
-2.86
-4.09
-5.61
-7.37
-9.33
-11.39
-13.51
-15.63
-17.76
-19.92
-22.13
-24.40
-26.77
-29.24
-31.71
-33.94
-35.42
-35.61
-34.04
-30.61
-25.67
-19.90
-14.08
-8.75
-4.14
-0.15
3.44
6.79
9.87
12.55
14.68
16.26
17.39
18.15
18.62
18.74
18.44
17.68
16.55
15.25
14.01
13.09
12.62
12.62
13.03
13.74
14.60
15.42
16.13
16.66
17.11
17.58
18.14
18.75
19.19
19.21
18.55
17.11
14.94
12.30
9.44
6.61
3.96
1.50
-0.77
-2.97
-5.27
-7.82
-10.67
-13.80
-16.97
-19.88
-22.24
-23.79
-24.54
-24.71
-24.73
-25.02
-25.90
-27.35
-28.99
-30.21
-30.32
-28.90
-25.88
-21.59
-16.68
-11.79
-7.47
-3.94
-1.21
0.86
2.45
3.75
4.96
6.20
7.55
9.00
10.45
11.74
12.73
13.35
13.60
13.59
13.39
13.08
12.73
12.35
12.01
11.81
11.79
11.81
11.73
11.34
10.57
9.53
8.38
7.37
6.62
6.10
5.61
4.97
4.06
2.83
1.29
-0.59
-2.81
-5.36
-8.14
-10.97
-13.70
-16.20
-18.51
-20.71
-23.04
-25.53
-28.12
-30.52
-32.24
-32.77
-31.66
-28.72
-24.07
-18.35
-12.31
-6.76
-2.27
1.03
3.27
4.83
6.09
7.37
8.78
10.34
11.98
13.58
14.96
15.84
16.06
15.60
14.66
13.56
12.67
12.22
12.21
12.49
12.78
12.85
12.47
11.61
10.28
8.62
6.82
5.08
3.61
2.49
1.66
0.94
0.09
-1.07
-2.59
-4.42
-6.44
-8.45
-10.37
-12.22
-14.10
-16.14
-18.39
-20.77
-23.04
-24.82
-25.60
-24.97
-22.74
-19.09
-14.52
-9.74
-5.40
-1.82
1.01
3.44
5.77
8.14
10.50
12.64
14.41
15.73
16.61
17.03
16.96
16.31
15.06
13.36
11.48
9.76
8.56
8.10
8.43
9.44
10.84
12.22
13.26
13.72
13.48
12.63
11.37
9.85
8.14
6.29
4.20
1.91
-0.61
-3.25
-5.97
-8.64
-11.09
-13.14
-14.59
-15.45
-15.78
-15.91
-16.24
-17.06
-18.55
-20.56
-22.78
-24.68
-25.71
-25.36
-23.32
-19.63
-14.61
-9.01
-3.59
1.02
4.49
6.90
8.62
9.99
11.29
12.58
13.70
14.52
14.92
14.96
14.76
14.48
14.20
14.09
14.19
14.51
15.03
15.65
16.29
16.83
17.18
17.23
16.94
16.22
15.00
13.25
11.06
8.62
6.18
3.99
2.18
0.81
-0.20
-0.97
-1.65
-2.42
-3.40
-4.71
-6.39
-8.43
-10.75
-13.19
-15.59
-17.79
-19.76
-21.61
-23.54
-25.72
-28.21
-30.84
-33.08
-34.19
-33.42
-30.44
-25.40
-19.02
-12.26
-6.13
-1.33
1.95
3.94
5.14
6.05
7.00
8.04
9.12
10.11
10.95
11.65
12.28
12.89
13.51
14.11
14.70
15.33
16.05
16.91
17.91
18.89
19.64
19.90
