1540239717.00
64.000000
-0.00
-0.00
-0.00
-0.00
-0.00
-0.00
-0.00
-0.00
-0.00
-0.00
0.00
0.01
0.01
-0.00
-0.03
-0.05
-0.05
0.00
0.13
0.36
0.66
1.01
1.37
1.72
2.06
2.40
2.79
3.24
3.80
4.42
5.06
5.67
6.21
6.70
7.19
7.75
8.43
9.34
10.39
11.49
12.52
13.41
14.24
15.14
16.33
17.97
20.27
23.04
26.02
28.91
31.54
33.99
36.58
39.72
43.75
49.06
55.31
61.98
68.48
74.47
80.01
85.58
91.87
99.44
108.85
119.63
131.00
142.07
152.27
161.62
170.74
180.93
190.95
203.12
218.07
235.94
255.54
273.94
286.77
289.35
278.28
252.71
215.12
169.41
119.96
70.01
21.08
-26.63
-73.29
-118.71
-162.00
-201.66
-236.75
-266.66
-291.06
-309.48
-321.15
-325.06
-320.93
-309.03
-290.18
-266.13
-238.97
-210.73
-182.96
-156.56
-131.81
-108.65
-86.87
-66.30
-47.14
-29.74
-14.50
-1.73
8.43
16.48
22.80
27.76
31.61
34.47
36.40
37.49
37.87
37.69
37.06
35.89
34.08
31.51
28.17
24.25
20.09
16.09
12.49
9.27
5.98
2.04
-3.04
-9.39
-16.65
-24.08
-30.86
-36.53
-41.25
-45.84
-51.44
-58.90
-68.42
-79.26
-90.15
-99.83
-107.74
-114.33
-120.89
-128.87
-139.22
-152.05
-166.86
-182.93
-199.56
-215.86
-230.25
-240.31
-243.29
-237.41
-223.00
-202.83
-181.07
-161.39
-145.26
-131.60
-117.95
-102.35
-84.95
-68.15
-55.12
-47.69
-44.83
-42.87
-37.28
-25.22
-7.35
12.27
28.15
36.38
36.67
32.58
29.37
30.98
37.59
45.70
50.39
48.58
41.27
33.10
29.66
34.01
44.58
55.77
61.02
56.51
43.43
27.43
15.45
11.92
16.50
24.45
29.66
28.11
19.96
9.00
0.08
-4.00
-3.99
-3.49
-6.50
-14.73
-26.43
-37.42
-43.49
-42.81
-37.00
-30.12
-26.31
-27.56
-32.56
-37.46
-38.24
-32.89
-22.74
-11.69
-3.92
-1.54
-3.45
-6.24
-6.39
-2.57
3.56
8.42
8.69
3.63
-4.46
-11.44
-13.76
-10.56
-4.22
1.10
1.93
-2.52
-9.84
-15.89
-17.21
-12.94
-5.25
1.99
5.64
5.10
2.59
1.62
4.68
11.58
19.62
25.29
26.46
23.91
20.90
21.39
27.77
39.50
53.24
64.78
71.19
72.36
71.06
71.24
75.86
85.19
96.69
106.37
111.19
110.75
107.63
105.96
108.87
116.54
125.90
132.36
132.36
125.69
115.58
106.98
103.72
106.28
111.55
114.79
112.34
103.86
92.43
82.74
78.15
78.78
81.40
81.38
75.65
64.50
51.56
41.66
37.96
40.15
44.64
46.71
43.20
34.38
23.57
15.24
12.18
14.00
17.34
18.19
14.30
6.68
-1.06
-5.02
-3.49
1.84
6.76
7.17
1.60
-7.82
-16.43
-19.84
-16.46
-8.40
-0.31
3.34
0.75
-6.32
-13.65
-16.98
-14.51
-7.81
-0.85
2.36
0.12
-5.95
-11.98
-14.07
-10.75
-3.93
2.20
3.68
-0.82
-9.01
-16.16
-17.90
-12.71
-3.05
5.91
9.22
5.01
-4.53
-14.20
-18.85
-16.23
-8.23
0.33
4.49
2.16
-4.78
-11.71
-14.11
-10.38
-2.82
3.85
5.35
0.43
-8.22
-15.60
-17.27
-11.96
-2.43
6.14
9.24
5.44
-2.71
-10.30
-13.00
-9.51
-2.26
4.13
5.72
1.60
-5.62
-11.32
-11.75
-6.28
2.18
8.86
9.93
4.71
-3.97
-11.50
-14.10
-11.00
-4.76
0.38
1.01
-3.41
-10.22
-15.13
-14.69
-8.40
0.88
8.50
10.59
6.36
-1.42
-8.02
-9.51
-5.10
2.29
7.82
7.67
1.44
-7.45
-13.77
-13.68
-7.01
2.52
9.53
10.23
4.62
-3.61
-9.36
-9.26
-3.69
3.50
7.42
5.10
-2.63
-11.64
-16.92
-15.51
-8.18
1.04
7.29
7.56
2.42
-4.56
-8.95
-8.14
-2.79
3.69
7.28
5.75
-0.03
-6.66
-10.33
-9.02
-3.67
2.34
5.32
3.44
-2.24
-8.30
-11.00
-8.48
-1.83
5.46
9.49
8.17
2.46
-4.19
-7.82
-6.22
-0.30
6.39
9.83
7.82
1.34
-5.99
-10.08
-8.72
-2.90
3.80
7.40
5.86
0.38
-5.40
-7.62
-4.55
2.25
8.79
11.00
7.21
-0.75
-8.49
-11.67
-8.57
-1.18
5.89
8.10
3.72
-5.10
-13.56
-17.07
-13.99
-6.61
0.34
2.49
-1.42
-8.89
-15.04
-15.74
-9.99
-0.58
7.61
10.40
6.72
-0.91
-7.98
-10.54
-7.52
-1.21
4.32
5.66
2.21
-3.49
-7.23
-5.77
1.03
9.94
16.09
15.83
9.02
-0.87
-8.66
-10.43
-5.81
1.97
8.20
9.54
5.96
0.54
-2.66
-1.18
4.36
10.63
13.58
10.82
2.92
-6.99
-14.89
-17.65
-14.40
-6.65
2.51
9.89
13.47
13.27
10.95
8.68
7.83
8.18
8.33
6.90
3.93
1.09
0.65
3.78
9.15
13.36
12.70
5.49
-6.72
-19.51
-27.78
-28.13
-20.27
-7.23
6.01
14.65
15.96
10.43
1.46
-6.40
-9.72
-7.86
-3.12
1.02
2.11
0.25
-2.30
-3.02
-0.99
2.50
5.07
5.16
3.23
1.42
1.99
5.56
10.48
13.85
13.12
7.74
-0.58
-8.69
-13.63
-14.10
-10.96
-6.76
-4.30
-5.13
-8.67
-12.69
-14.60
-13.21
-9.52
-5.92
-4.71
-6.40
-9.43
-11.19
-9.85
-5.79
-1.64
-0.78
-5.31
-14.55
-24.97
-31.89
-31.61
-23.58
-10.79
1.72
9.40
10.61
7.40
4.13
4.62
9.70
16.46
20.10
17.11
7.84
-3.36
-10.63
-10.03
-2.12
8.32
15.21
14.61
7.07
-2.92
-9.72
-9.77
-3.45
5.31
11.58
12.18
7.47
0.85
-3.38
-2.44
3.25
10.37
14.86
14.26
9.19
2.91
-0.73
0.25
4.80
9.31
9.92
4.79
-4.46
-13.58
-17.96
-15.13
-6.30
4.27
11.77
13.31
9.49
3.73
0.08
0.82
5.08
9.55
10.60
6.48
-1.41
-9.38
-13.63
-12.34
-6.75
-0.39
3.06
1.77
-3.14
-8.43
-10.54
-7.84
-1.62
4.61
7.18
4.38
-2.31
-9.08
-11.99
-9.15
-1.89
5.99
10.53
9.92
5.56
1.17
0.56
5.19
13.09
19.97
21.66
16.69
7.37
-1.27
-4.35
0.05
9.62
19.00
22.81
18.82
9.23
-0.66
-5.41
-2.66
5.62
14.42
18.69
16.24
8.88
1.19
-2.34
0.07
6.68
13.46
16.71
15.29
11.23
8.08
8.43
12.03
15.48
14.23
5.35
-10.56
-29.49
-46.15
-56.79
-60.91
-60.84
-59.81
-59.67
-59.81
-57.95
-51.97
-41.74
-29.66
-19.82
-16.31
-21.58
-35.39
-54.64
-73.91
-86.83
-88.39
-76.95
-55.48
-30.80
-10.63
-0.00
0.90
-3.93
-9.23
-11.98
-12.93
-15.14
-20.97
-29.68
-37.59
-40.68
-37.91
-32.39
-29.63
-33.96
-45.42
-59.29
-68.46
-67.41
-55.35
-36.72
-18.58
-6.83
-3.10
-4.47
-5.87
-3.36
4.00
14.54
26.24
38.78
53.72
72.76
95.39
118.03
135.43
144.00
143.78
138.49
133.41
132.35
135.97
142.15
147.69
150.26
149.99
148.95
150.43
157.80
173.45
197.90
229.55
265.25
298.13
322.65
335.21
334.34
320.30
294.09
257.05
211.08
158.99
104.50
52.20
5.93
-32.29
-62.49
-86.26
-105.54
-121.45
-134.01
-142.39
-145.40
-142.76
-135.47
-125.58
-115.73
-107.81
-102.29
-98.32
-94.63
-90.04
-84.46
-79.08
-75.81
-76.75
-84.01
-98.91
-121.55
-150.23
-180.84
-207.17
-222.43
-220.04
-199.15
-164.52
-124.65
-88.41
-61.63
-45.53
-37.48
-33.42
-30.31
-27.42
-25.33
-24.51
-24.43
-23.66
-20.84
-15.62
-9.00
-2.68
1.38
2.30
0.60
-2.26
-4.55
-5.14
-3.93
-1.77
-0.01
0.06
-2.06
-5.97
-10.69
-15.15
-18.80
-21.75
-24.69
-28.44
-33.59
-40.11
-47.47
-55.20
-62.83
-70.43
-78.55
-87.95
-99.14
-112.08
-126.11
-140.28
-153.90
-166.89
-179.86
-193.79
-209.31
-226.05
-242.34
-255.47
-262.31
-260.21
-247.79
-224.80
-191.60
-148.94
-97.38
-37.42
30.11
103.73
181.26
259.90
336.44
407.03
466.35
507.54
523.39
508.97
464.46
396.42
316.84
238.52
171.26
119.47
82.37
56.29
37.43
23.57
13.88
7.87
4.30
1.33
-2.69
-8.28
-14.59
-20.01
-22.94
-22.87
-20.51
-17.52
-15.41
-14.89
-15.57
-16.27
-15.71
-13.20
-9.07
-4.37
-0.48
1.85
2.71
2.75
2.82
3.33
4.02
3.95
1.72
-4.50
-16.59
-35.73
-61.30
-89.89
-115.45
-130.96
-131.14
-114.51
-85.72
-53.34
-26.31
-10.45
-6.66
-11.53
-19.73
-26.85
-30.89
-32.22
-32.40
-32.85
-34.08
-35.88
-37.69
-38.96
-39.26
-38.16
-34.81
-27.55
-14.49
5.16
29.92
55.29
74.66
82.06
74.83
55.46
30.68
8.48
-5.61
-10.75
-10.67
-11.25
-17.29
-30.10
-46.72
-61.56
-68.92
-65.31
-50.65
-27.82
-0.83
27.06
54.13
79.09
99.36
110.41
107.35
88.23
56.86
22.69
-2.75
-11.19
-1.73
18.85
39.74
51.22
48.77
34.08
12.47
-10.77
-32.83
-53.64
-74.31
-95.39
-116.23
-135.37
-151.43
-164.11
-174.39
-184.00
-194.49
-206.44
-219.07
-230.40
-237.95
-239.60
-234.54
-222.91
-205.60
-183.85
-158.67
-130.63
-99.90
-66.62
-31.23
5.19
41.01
74.35
103.53
127.55
146.36
160.81
172.27
182.16
191.38
200.10
207.72
213.22
215.66
214.60
210.23
203.31
194.85
185.92
177.58
170.82
166.39
164.42
163.98
162.97
158.54
148.05
130.22
105.76
77.17
47.74
20.28
-3.68
-23.81
-40.28
-52.97
-61.08
-63.63
-60.24
-51.84
-40.69
-29.57
-20.75
-14.96
-11.20
-7.41
-1.69
6.57
16.23
24.90
30.03
30.05
24.92
15.83
4.24
-8.97
-23.73
-40.38
-58.82
-77.89
-95.39
-108.77
-116.12
-116.89
-111.88
-102.75
-91.23
-78.58
-65.44
-52.04
-38.58
-25.41
-13.13
-2.38
6.36
12.94
17.51
20.47
22.28
23.28
23.63
23.33
22.32
20.62
18.36
15.80
13.22
10.83
8.72
6.89
5.22
3.62
2.06
0.56
-0.81
-1.97
-2.88
-3.57
-4.11
-4.55
-4.95
-5.33
-5.67
-5.93
-6.11
-6.20
-6.22
-6.21
-6.19
-6.16
-6.15
-6.12
-6.07
-5.99
-5.89
-5.77
-5.63
-5.46
-5.28
-5.08
-4.87
-4.65
-4.42
-4.17
-3.91
-3.65
-3.40
-3.15
-2.92
-2.70
-2.49
-2.30
-2.12
-1.95
-1.81
-1.67
-1.54
-1.43
-1.33
-1.23
-1.14
-1.06
-0.99
-0.93
-0.87
-0.82
-0.77
-0.72
-0.68
-0.64
-0.61
-0.57
-0.55
-0.52
-0.49
-0.47
-0.45
-0.43
-0.41
-0.39
-0.37
-0.36
-0.35
-0.34
-0.32
-0.31
-0.30
-0.29
-0.28
-0.27
-0.26
-0.25
-0.24
-0.24
-0.23
-0.22
-0.21
-0.21
-0.20
-0.20
-0.19
-0.18
-0.18
-0.17
-0.17
-0.17
-0.16
-0.15
-0.15
-0.15
-0.15
-0.15
-0.15
-0.14
-0.12
-0.08
-0.06
-0.07
-0.14
-0.27
-0.41
-0.51
-0.52
-0.43
-0.27
-0.12
-0.03
-0.06
-0.19
-0.36
-0.49
-0.51
-0.39
-0.17
0.04
0.12
0.02
-0.28
-0.65
-0.93
-0.97
-0.70
-0.22
0.22
0.34
-0.01
-0.81
-1.76
-2.43
-2.45
-1.70
-0.43
0.76
1.21
0.57
-1.08
-3.09
-4.56
-4.73
-3.38
-1.01
1.32
2.43
1.68
-0.73
-3.78
-6.01
-6.29
-4.46
-1.25
2.03
4.09
4.38
2.99
0.33
-3.35
-7.52
-10.63
-9.85
-2.18
13.64
35.31
56.91
71.14
72.85
61.76
42.66
22.97
8.94
3.00
3.50
6.72
9.52
10.84
11.37
12.05
12.80
12.53
10.12
5.74
1.00
-1.33
1.29
9.72
22.29
35.24
43.98
45.10
37.76
24.14
8.31
-5.41
-14.07
-16.93
-15.33
-11.52
-7.69
-5.20
-4.47
-5.36
-7.64
-10.86
-14.59
-18.41
-22.04
-25.50
-29.19
-33.81
-39.08
-45.73
-53.21
-60.32
-65.96
-69.28
-70.34
-69.83
-68.85
-68.48
-69.85
-73.63
-79.89
-87.30
-92.87
-92.42
-82.31
-61.29
-31.84
0.35
28.73
48.47
58.23
60.12
57.84
54.56
51.54
48.39
44.39
39.75
35.81
34.16
35.43
38.70
41.92
43.03
40.86
35.97
30.35
26.35
25.59
28.18
32.67
36.76
38.48
36.97
32.92
28.06
24.42
23.46
25.87
31.39
38.75
45.56
48.39
43.80
29.73
6.86
-20.71
-46.57
-63.91
-68.32
-59.39
-41.02
-19.82
-2.77
5.01
1.62
-11.60
-31.02
-52.20
-71.01
-84.49
-90.90
-89.79
-81.99
-69.49
-55.76
-45.13
-41.55
-46.78
-59.09
-73.56
-83.38
-83.33
-72.06
-52.73
-31.35
-13.66
-2.44
3.52
8.14
15.93
29.32
47.79
68.17
86.05
97.50
100.25
94.20
81.43
65.83
51.94
43.75
43.19
49.20
58.09
64.98
65.82
59.02
45.73
28.98
12.37
-1.29
-10.51
-14.94
-14.85
-10.86
-3.94
4.23
11.29
14.85
13.32
6.58
-3.87
-15.79
-27.20
-37.12
-45.89
-54.63
-64.14
-74.27
-83.57
-89.95
-91.72
-88.37
-80.89
-71.56
-63.09
-57.50
-55.23
-54.69
-52.48
-44.39
-26.79
2.03
40.77
84.16
124.60
154.83
170.54
171.53
161.04
143.56
122.72
100.25
76.75
53.23
32.03
16.38
8.89
9.96
17.28
26.70
33.99
36.59
34.35
29.04
23.33
19.35
18.18
19.66
22.86
26.64
30.16
33.13
35.78
38.42
41.03
43.05
43.49
41.25
35.66
26.66
15.03
2.24
-9.73
-18.63
-22.22
-18.77
-7.64
10.17
31.98
53.96
72.08
83.02
84.68
76.29
58.17
31.69
-0.71
-35.56
-68.64
-95.67
-113.43
-120.60
-118.29
-109.81
-99.78
-92.91
-92.70
-100.40
-114.85
-133.15
-152.08
-169.36
-184.12
-196.10
-204.28
-206.00
-197.46
-175.60
-140.19
-94.90
-46.33
-1.74
33.31
56.16
66.78
66.75
58.51
45.40
31.75
22.40
21.10
28.58
41.62
54.11
59.60
54.23
38.05
14.29
-12.82
-39.93
-65.06
-86.96
-104.13
-114.77
-117.59
-112.65
-101.47
-85.89
-66.81
-43.92
-16.95
12.31
39.07
56.82
60.49
49.75
30.11
11.01
1.16
4.27
16.69
29.16
31.43
17.44
-11.43
-46.60
-76.12
-89.94
-84.01
-61.57
-31.07
-2.42
16.52
21.90
13.63
-5.86
-32.75
-62.11
-88.04
-104.09
-104.86
-88.49
-58.46
-23.70
4.15
15.09
5.05
-22.24
-56.44
-84.31
-94.80
-82.20
-47.68
1.93
56.54
105.77
141.37
159.09
159.75
148.07
130.93
114.89
104.38
100.80
102.84
108.12
114.59
122.34
131.74
141.92
150.18
153.69
151.74
146.84
143.33
144.24
150.56
158.95
163.87
161.64
153.97
147.34
148.34
158.30
170.74
177.22
171.15
152.30
126.89
103.57
87.78
78.03
67.45
35.64
-26.12
-110.82
-198.88
-271.08
-319.59
-348.62
-367.46
-381.55
-392.70
-395.96
-386.03
-361.02
-323.65
-279.04
-231.19
-183.77
-137.34
-90.80
-40.27
17.01
81.21
149.02
214.51
270.95
312.54
336.31
342.48
335.59
321.75
306.18
291.34
276.87
260.79
241.17
217.69
191.39
164.93
140.68
119.84
102.28
87.24
74.31
63.70
56.14
51.87
50.26
49.52
47.23
41.47
31.74
19.46
7.25
-2.08
-6.83
-6.90
-3.54
1.48
6.74
11.66
16.36
21.31
26.87
33.10
39.92
47.26
55.31
64.50
75.20
87.48
100.79
113.86
124.85
131.73
132.88
127.52
116.05
99.93
81.30
62.32
44.71
29.42
16.74
6.54
-1.50
-7.78
-12.91
-17.70
-23.10
-29.74
-37.59
-45.78
-52.97
-57.98
-60.58
-61.81
-63.65
-68.22
-76.81
-89.26
-104.09
-119.18
-132.60
-143.35
-151.49
-157.86
-163.60
-169.74
-176.96
-185.58
-195.54
-206.52
-218.11
-229.83
-241.20
-251.68
-260.65
-267.61
-272.44
-275.86
-279.42
-285.07
-294.34
-307.59
-323.81
-341.30
-358.77
-376.04
-393.67
-411.83
-428.91
-441.16
-443.81
-432.98
-407.57
-369.85
-324.67
-277.51
-232.73
-192.48
-156.82
-124.62
-94.58
-65.80
-37.75
-9.88
18.93
50.34
85.84
125.53
166.90
205.01
234.02
249.54
250.39
238.92
219.50
196.50
172.93
150.46
130.85
117.36
115.05
129.24
162.84
213.96
275.32
336.09
385.24
415.14
423.48
413.25
390.85
363.45
336.80
314.48
298.35
289.39
288.09
293.89
304.34
315.24
321.49
318.93
306.09
284.64
258.64
232.93
211.38
195.83
185.94
179.67
174.29
167.16
156.16
139.90
117.70
89.54
56.17
19.20
-19.16
-56.60
-91.34
-122.80
-151.56
-178.93
-205.97
-232.64
-257.45
-278.01
-292.17
-299.29
-301.06
-301.37
-305.58
-318.77
-343.89
-380.01
-421.73
-460.21
-485.61
-490.44
-471.89
-432.55
-378.76
-317.73
-254.82
-192.27
-129.98
-67.63
-6.75
48.57
92.66
120.81
131.53
127.67
115.64
103.14
96.49
98.55
108.14
121.00
131.67
135.41
129.65
114.55
92.82
69.00
48.34
35.55
33.52
42.51
60.16
81.85
101.64
113.34
111.70
93.88
60.83
17.99
-25.37
-58.43
-72.32
-63.16
-33.52
8.70
53.22
90.83
115.80
126.61
125.17
115.45
102.06
89.21
79.95
75.74
76.31
80.15
85.32
90.27
94.27
97.41
100.18
102.90
105.49
107.28
107.23
103.88
95.57
80.85
59.01
30.67
-1.96
-35.23
-64.81
-86.73
-98.66
-100.75
-95.84
-88.32
-82.13
-78.59
-75.38
-67.38
-49.25
-18.39
23.45
70.72
116.75
156.70
189.05
215.04
236.37
253.02
262.67
261.85
248.09
221.53
185.07
143.10
99.86
58.15
19.25
-16.39
-48.15
-74.70
-94.00
-104.04
-103.59
-92.67
-72.79
-46.76
-18.31
8.49
29.96
43.55
48.30
44.90
35.40
22.36
8.13
-5.76
-18.98
-32.26
-46.99
-64.41
-84.93
-107.50
-129.70
-148.23
-159.94
-162.78
-156.47
-142.39
-123.08
-101.59
-80.89
-63.60
-51.64
-45.75
-45.02
-46.69
-46.62
-40.53
-25.82
-2.84
24.68
50.54
68.04
71.98
59.97
32.51
-7.61
-56.03
-107.10
-154.17
-190.45
-210.65
-213.03
-200.33
-179.02
-156.63
-138.75
-127.24
-120.56
-115.80
-110.69
-104.61
-97.82
-90.32
-81.14
-68.90
-52.99
-34.59
-16.31
-0.95
9.71
15.82
18.92
21.13
24.08
28.60
34.46
40.08
42.43
37.30
20.73
-9.03
-49.74
-94.79
-135.14
-162.40
-171.93
-164.06
-143.17
-115.32
-85.90
-58.46
-34.93
-16.51
-3.96
2.57
4.16
3.16
2.52
4.69
10.69
20.01
31.03
41.94
51.26
58.25
62.77
65.20
66.15
66.23
65.78
64.76
62.87
59.74
55.11
49.03
41.72
33.41
24.30
14.63
4.89
-3.94
-10.44
-13.03
-10.53
-2.69
9.50
23.85
37.52
47.81
52.91
52.38
47.07
38.79
29.82
22.68
20.01
24.55
38.52
62.73
95.80
134.00
172.45
207.16
236.89
263.58
290.95
321.76
355.38
387.25
410.52
418.88
409.28
382.75
343.36
296.22
245.75
195.03
146.42
102.22
64.73
35.37
13.51
-4.31
-24.04
-52.07
-92.43
-144.03
-199.56
-247.08
-274.33
-274.04
-247.63
-205.29
-161.98
-131.36
-120.62
-128.96
-149.86
-175.65
-201.49
-226.42
-251.73
-277.94
-302.92
-322.20
-331.26
-328.01
-313.92
-293.31
-270.96
-249.83
-229.66
-207.55
-179.46
-142.45
-96.06
-42.28
15.18
72.42
125.79
172.23
209.09
234.40
247.75
251.42
250.75
253.22
265.96
292.73
332.01
377.23
419.24
450.01
465.49
466.56
457.51
443.51
428.07
412.21
395.03
375.22
352.19
326.38
298.61
269.23
237.80
203.42
165.51
124.41
81.40
38.45
-2.62
-40.75
-75.98
-109.20
-141.57
-173.57
-204.62
-233.10
-257.22
-276.07
-290.32
-302.02
-313.45
-325.71
-337.63
-345.99
-346.82
-337.14
-316.45
-286.91
-252.50
-217.56
-185.46
-157.89
-135.11
-116.50
-101.25
-88.81
-78.93
-71.50
-66.33
-63.00
-60.89
-59.34
-57.90
-56.37
-54.90
-53.74
-53.15
-53.13
-53.54
-54.08
-54.51
-54.70
-54.60
-54.21
-53.46
-52.32
-50.77
-48.98
-47.36
-46.47
-46.81
-48.43
-50.69
-52.26
-51.42
-46.68
-37.28
-23.63
-7.13
10.07
25.79
38.23
46.36
49.96
49.43
45.58
39.30
31.44
22.71
13.74
5.06
-2.72
-9.10
-13.67
-16.28
-17.08
-16.50
-15.12
-13.56
-12.29
-11.51
-11.15
-10.94
-10.51
-9.59
-8.21
-6.76
-5.90
-6.43
-8.98
-13.77
-20.37
-27.62
-33.86
-37.27
-36.44
-30.81
-20.89
-8.16
5.34
17.58
26.95
32.54
34.18
32.30
27.75
21.56
14.80
8.41
3.10
-0.72
-2.98
-3.81
-3.52
-2.38
-0.69
1.25
3.08
4.34
4.63
3.66
1.40
-1.84
-5.57
-9.26
-12.51
-15.19
-17.40
-19.43
-21.67
-24.55
-28.41
-33.33
-38.88
-44.03
-47.20
-46.71
-41.41
-31.14
-17.00
-0.95
14.73
28.14
38.21
44.65
47.74
47.95
45.70
41.37
35.49
28.79
22.23
16.74
12.98
11.14
10.93
11.76
13.02
14.27
15.26
15.80
15.72
14.74
12.60
9.21
4.75
-0.28
-5.23
-9.54
-12.92
-15.41
-17.38
-19.36
-21.90
-25.40
-29.98
-35.26
-40.29
-43.66
-43.77
-39.32
-29.87
-16.07
0.39
17.23
32.17
43.55
50.56
53.22
52.06
47.86
41.43
33.57
25.09
16.86
9.71
4.34
1.14
0.10
0.74
2.35
4.11
5.42
5.97
5.82
5.18
4.22
2.82
0.66
-2.68
-7.34
-12.99
-18.89
-24.10
-27.93
-30.23
-31.41
-32.28
-33.71
-36.31
-40.25
-45.13
-50.03
-53.62
-54.38
-51.00
-42.83
-30.21
-14.49
2.21
17.68
30.05
38.20
41.73
40.82
36.07
28.36
18.91
9.28
1.18
-3.78
-4.58
-1.06
6.02
15.16
24.61
32.76
38.53
41.45
41.54
39.13
34.63
28.52
21.32
13.68
6.32
-0.06
-5.02
-8.56
-11.12
-13.54
-16.76
-21.48
-27.97
-35.80
-43.93
-50.87
-54.99
-54.95
-50.03
-40.39
-27.05
-11.70
3.71
17.33
27.75
34.16
36.38
34.78
30.16
23.61
16.31
9.32
3.42
-0.94
-3.61
-4.63
-4.19
-2.55
-0.06
2.86
5.70
7.95
9.10
8.74
6.66
2.98
-1.88
-7.25
-12.36
-16.60
-19.67
-21.68
-23.08
-24.49
-26.53
-29.65
-33.98
-39.21
-44.45
-48.29
-49.06
-45.28
-36.27
-22.48
-5.59
12.01
27.80
39.87
47.28
50.05
48.95
44.96
39.06
32.09
24.74
17.70
11.63
6.98
4.00
2.52
2.11
2.23
2.47
2.60
2.61
2.56
2.39
1.82
0.46
-2.07
-5.87
-10.74
-16.15
-21.47
-26.15
-29.87
-32.66
-34.90
-37.20
-40.37
-45.03
-51.36
-58.74
-65.71
-70.22
-70.32
-64.92
-54.33
-40.33
-25.59
-12.78
-3.85
0.44
0.30
-3.45
-10.00
-18.80
-29.50
-41.82
-55.26
-69.05
-82.27
-94.16
-104.37
-113.13
-121.15
-129.34
-138.45
-148.80
-160.25
-172.29
-184.26
-195.57
-205.84
-214.77
-222.13
-227.33
-229.46
-227.22
-219.24
-204.63
-183.24
-155.84
-123.81
-88.94
-53.18
-18.65
12.52
38.74
59.58
76.36
91.95
109.74
131.95
158.38
186.18
211.11
229.44
239.41
241.62
238.07
230.66
220.31
206.99
190.48
171.28
150.72
130.38
111.50
94.53
79.43
66.45
56.58
51.38
52.14
58.84
69.77
81.81
91.46
95.97
94.11
86.30
74.15
59.88
45.67
33.17
23.19
15.61
9.61
4.01
-2.10
-8.89
-15.61
-20.79
-22.73
-20.16
-12.73
-1.15
12.95
27.59
40.96
51.88
59.93
65.30
68.49
69.98
70.13
69.18
67.39
65.10
62.66
60.21
57.65
54.64
50.81
46.05
40.64
35.23
30.52
26.94
24.42
22.45
20.28
17.32
13.39
8.79
4.13
0.04
-3.13
-5.49
-7.52
-9.90
-13.18
-17.49
-22.46
-27.27
-30.80
-31.99
-30.08
-24.86
-16.78
-6.84
3.61
13.25
21.03
26.40
29.30
30.03
29.09
27.04
24.40
21.66
19.25
17.43
16.29
15.73
15.48
15.28
14.88
14.15
13.07
11.71
10.17
8.58
7.02
5.48
3.90
2.16
0.14
-2.23
-4.99
-8.17
-11.85
-16.07
-20.76
-25.65
-30.21
-33.74
-35.49
-34.87
-31.61
-25.88
-18.27
-9.68
-1.12
6.48
12.50
16.65
18.96
19.72
19.29
18.08
16.49
14.89
13.53
12.56
11.91
11.37
10.74
9.89
8.92
8.03
7.39
7.02
6.73
6.20
5.18
3.55
1.43
-0.91
-3.22
-5.36
-7.33
-9.27
-11.29
-13.48
-15.76
-17.92
-19.66
-20.63
-20.46
-18.83
-15.50
-10.37
-3.52
4.73
13.79
22.94
31.40
38.55
44.02
47.80
50.17
51.58
52.57
53.62
55.15
57.45
60.73
64.97
70.00
75.46
81.01
86.49
91.98
97.80
104.30
111.68
119.84
128.42
137.00
145.37
153.72
162.58
172.55
183.96
196.53
209.32
220.79
229.12
232.60
230.10
221.34
207.03
188.63
167.98
146.80
126.29
106.99
88.93
71.96
56.00
41.20
27.84
16.09
5.88
-3.04
-10.99
-18.07
-23.98
-28.17
-29.91
-28.79
-24.95
-19.30
-13.33
-8.77
-7.03
-8.79
-13.80
-21.18
-29.86
-39.25
-49.61
-62.01
-77.89
-98.29
-123.23
-151.46
-181.00
-209.66
-236.04
-259.94
-282.33
-304.99
-330.14
-360.15
-396.94
-441.04
-490.29
-539.25
-579.85
-603.61
-604.76
-582.50
-541.36
-489.26
-434.23
-381.81
-334.02
-290.45
-250.01
-212.38
-178.08
-147.57
-120.24
-94.18
-66.88
-36.25
-1.43
37.12
77.66
117.79
154.85
186.31
210.22
225.55
232.44
232.17
226.81
218.54
209.09
199.46
189.99
180.70
171.53
162.39
152.83
141.90
128.23
110.69
89.22
65.50
42.75
24.79
14.50
12.54
17.00
24.20
30.34
32.97
31.73
27.96
23.68
20.47
18.86
18.47
18.60
18.77
18.95
19.46
20.53
22.11
23.78
24.92
25.08
24.17
22.49
20.64
19.23
18.63
18.74
19.10
19.07
18.19
16.41
14.09
11.85
10.22
9.39
9.10
8.79
7.86
5.95
3.16
-0.05
-2.92
-4.72
-4.94
-3.46
-0.58
3.14
6.98
10.36
12.90
14.53
15.39
15.71
15.71
15.50
15.10
14.52
13.78
12.95
12.20
11.63
11.30
11.12
10.99
10.73
10.32
9.81
9.32
8.96
8.70
8.44
8.01
7.33
6.44
5.45
4.52
3.64
2.73
1.67
0.41
-1.00
-2.41
-3.72
-5.00
-6.40
-8.09
-9.98
-11.74
-12.76
-12.49
-10.68
-7.46
-3.41
0.73
4.26
6.77
8.13
8.52
8.22
7.51
6.58
5.51
4.34
3.16
2.14
1.43
1.12
1.16
1.35
1.38
0.99
0.05
-1.32
-2.86
-4.21
-5.00
-4.93
-3.84
-1.69
1.36
4.94
8.53
11.60
13.73
14.74
14.71
13.83
12.32
10.30
7.82
4.97
1.97
-0.77
-2.73
-3.51
-2.94
-1.17
1.43
4.40
7.34
9.95
12.08
13.63
14.55
14.83
14.50
13.63
12.37
10.89
9.37
7.99
6.91
6.15
5.68
5.38
5.10
4.76
4.33
3.86
3.38
2.89
2.34
1.63
0.74
-0.31
-1.46
-2.62
-3.76
-4.85
-5.87
-6.82
-7.71
-8.64
-9.79
-11.29
-13.15
-15.14
-16.74
-17.36
-16.60
-14.44
-11.30
-7.89
-4.97
-3.01
-2.13
-2.07
-2.52
-3.26
-4.29
-5.75
-7.77
-10.32
-13.23
-16.18
-18.81
-20.94
-22.57
-23.92
-25.26
-26.80
-28.69
-31.09
-33.99
-37.29
-40.96
-45.08
-49.80
-55.18
-61.17
-67.78
-75.20
-83.64
-92.84
-102.28
-110.95
-117.36
-119.84
-117.39
-110.47
-101.32
-93.06
-87.99
-87.04
-89.12
-91.06
-88.46
-77.25
-54.63
-19.59
27.79
86.85
154.82
226.05
292.54
346.06
380.56
394.44
391.10
373.74
349.41
325.97
308.49
297.19
289.19
281.22
272.61
261.55
246.34
226.23
200.78
169.91
133.77
94.38
53.76
13.04
-28.06
-70.59
-115.50
-163.68
-214.84
-266.29
-312.37
-346.03
-361.55
-357.64
-338.46
-312.27
-288.66
-274.72
-272.38
-278.15
-285.80
-289.32
-285.22
-272.76
-252.81
-226.94
-196.86
-164.54
-132.54
-104.16
-82.75
-70.83
-69.03
-75.88
-88.34
-102.78
-115.94
-125.37
-130.13
-130.51
-127.82
-123.73
-119.93
-117.83
-118.40
-122.18
-128.88
-137.67
-147.32
-156.48
-163.82
-168.21
-168.75
-164.79
-155.90
-141.45
-121.33
-96.28
-67.97
-38.77
-11.01
13.60
34.49
52.33
69.92
89.86
113.30
139.49
166.46
192.06
214.80
234.07
250.11
266.45
286.23
311.15
340.86
373.49
406.30
435.76
457.75
468.56
470.61
468.06
465.30
465.40
469.96
479.49
493.40
509.66
525.11
541.44
559.03
575.71
587.18
589.67
582.68
569.14
553.41
505.54
410.90
274.44
120.57
-22.13
-135.93
-216.63
-268.65
-300.03
-318.50
-324.36
-317.21
-298.76
-273.35
-246.49
-222.35
-203.00
-190.23
-184.94
-182.42
-179.13
-173.73
-167.01
-160.64
-155.57
-151.66
-150.26
-152.80
-157.49
-161.97
-165.01
-166.08
-165.18
-162.41
-158.13
-156.18
-161.76
-179.21
-205.30
-239.17
-280.91
-331.29
-390.48
-440.55
-464.94
-452.38
-401.68
-321.60
-227.17
-133.86
-53.92
6.46
47.69
72.52
85.32
90.05
89.64
85.46
79.12
72.73
68.83
69.45
73.27
77.51
79.35
77.22
71.07
62.60
54.18
48.10
45.80
46.23
47.34
47.04
44.18
38.69
31.61
24.46
18.64
15.04
13.16
11.92
10.12
7.05
2.61
-2.73
-8.23
-13.19
-17.21
-20.47
-23.43
-26.63
-30.48
-35.03
-40.10
-45.41
-50.65
-55.63
-60.20
-64.27
-67.75
-70.56
-72.54
-73.46
-73.07
-71.15
-67.66
-62.81
-56.76
-49.59
-41.53
-32.94
-24.23
-15.73
-7.78
-0.70
5.27
10.07
13.53
15.80
17.13
17.80
18.30
18.82
19.46
20.28
21.35
22.54
24.01
26.03
28.86
33.06
38.90
46.50
55.89
66.95
79.05
91.73
104.42
114.59
121.67
125.14
124.47
119.28
111.27
99.56
83.74
64.02
40.91
15.49
-11.30
-38.46
-64.92
-89.63
-111.95
-131.06
-146.05
-156.50
-162.19
-163.56
-161.46
-157.03
-151.55
-146.53
-143.03
-141.33
-141.49
-143.13
-145.76
-148.65
-150.95
-151.77
-150.55
-146.80
-139.87
-129.60
-116.26
-100.38
-82.49
-62.86
-41.14
-16.36
8.84
33.34
56.30
77.09
95.29
110.78
123.78
134.80
144.42
153.05
161.39
169.56
177.32
184.36
190.48
195.74
200.55
205.33
210.42
216.62
224.60
235.14
248.77
265.16
282.70
298.66
309.78
313.22
307.82
293.87
273.28
248.55
221.92
194.95
169.12
145.77
125.91
109.88
96.25
83.07
68.35
51.07
31.78
13.31
-0.73
-7.75
-7.63
-3.83
-0.18
0.57
-1.75
-4.44
-2.00
11.10
38.26
79.46
130.43
185.74
239.15
283.83
307.32
300.09
259.11
190.57
113.61
40.63
-21.75
-72.19
-112.47
-144.80
-169.95
-187.56
-196.96
-198.54
-195.25
-189.90
-184.44
-179.46
-174.38
-167.65
-158.00
-145.42
-131.45
-119.26
-110.86
-106.86
-106.55
-108.55
-111.11
-112.95
-113.91
-115.28
-119.89
-130.08
-146.54
-167.41
-188.37
-203.73
-208.50
-200.38
-180.47
-152.79
-122.01
-91.92
-64.93
-42.36
-25.11
-13.87
-8.99
-9.89
-15.06
-22.26
-29.47
-35.64
-40.85
-45.87
-51.52
-58.35
-66.34
-74.93
-83.15
-89.84
-94.01
-95.16
-93.37
-89.04
-82.60
-74.24
-64.26
-53.37
-42.98
-34.83
-30.16
-29.01
-30.02
-31.01
-30.05
-26.30
-20.23
-13.06
-5.99
0.35
5.83
10.41
13.63
14.60
12.39
6.65
-2.16
-12.85
-24.06
-34.89
-45.19
-55.30
-65.59
-75.89
-85.39
-92.87
-97.27
-98.08
-95.39
-89.66
-81.27
-70.41
-57.18
-41.93
-25.61
-9.87
3.31
12.12
15.48
13.45
7.15
-1.60
-10.83
-18.89
-24.61
-27.28
-26.42
-21.89
-14.08
-4.06
6.56
16.19
23.85
29.46
33.64
37.16
40.40
43.24
45.31
46.29
45.89
43.80
39.71
33.65
26.57
20.61
18.48
22.17
31.76
45.11
58.80
69.76
76.60
79.76
80.72
80.90
81.16
81.97
84.09
88.69
96.94
109.12
124.27
140.61
156.51
171.20
184.84
197.61
208.74
216.29
217.87
212.02
199.58
183.98
170.36
163.73
166.81
178.83
195.43
210.09
216.47
210.58
192.13
164.47
133.14
103.75
80.06
63.02
51.11
41.58
31.86
20.51
7.33
-7.14
-22.27
-37.60
-52.73
-66.84
-78.13
-83.81
-80.81
-67.07
-42.85
-11.30
22.16
51.62
72.76
84.38
88.45
88.58
88.01
87.73
86.16
80.13
66.71
44.89
16.04
-16.66
-49.83
-81.33
-111.03
-140.67
-173.18
-211.75
-258.62
-313.87
-374.56
-434.50
-485.46
-519.23
-530.29
-517.55
-484.48
-437.61
-384.08
-329.69
-278.15
-231.50
-191.08
-158.10
-132.99
-114.58
-99.37
-81.83
-56.05
-18.23
31.02
86.09
137.65
176.12
195.42
195.50
182.40
165.62
154.30
153.95
164.87
182.88
201.46
214.41
217.69
210.43
194.65
173.97
151.90
130.32
108.95
85.84
58.97
28.29
-3.43
-30.90
-47.49
-47.05
-25.62
17.15
77.33
146.87
214.91
270.34
304.89
315.26
303.50
275.41
237.88
196.37
153.92
111.48
68.84
25.60
-18.28
-62.19
-105.17
-146.03
-183.53
-216.62
-244.35
-265.69
-278.97
-282.11
-273.43
-252.88
-222.93
-187.99
-152.73
-120.09
-90.31
-61.73
-32.69
-3.30
24.20
46.55
61.10
66.72
63.45
51.64
31.47
3.54
-29.89
-64.01
-92.02
-107.14
-105.04
-85.49
-52.35
-12.07
28.54
64.11
91.56
109.88
119.25
120.10
112.68
97.16
74.04
44.59
10.92
-24.46
-59.19
-91.60
-120.91
-146.78
-168.61
-185.10
-194.27
-194.18
-183.90
-164.30
-138.15
-109.21
-81.12
-56.13
-34.94
-17.24
-2.86
7.52
12.45
10.68
2.41
-10.11
-23.08
-32.53
-35.97
-33.21
-26.09
-17.34
-9.31
-3.15
1.15
4.20
6.64
8.81
10.81
12.66
14.44
16.25
18.20
20.43
23.13
26.83
32.24
40.12
51.19
65.94
84.75
107.98
135.94
168.45
204.51
242.30
279.76
315.37
348.44
378.68
405.25
426.08
438.08
438.48
426.39
403.79
374.96
344.71
316.62
291.87
269.69
248.62
227.75
207.09
187.12
167.98
148.93
128.74
106.26
81.05
53.76
25.79
-1.31
-26.48
-49.54
-71.16
-92.49
-114.81
-139.21
-166.36
-196.14
-227.41
-257.75
-283.86
-302.41
-311.13
-309.81
-300.38
-286.23
-270.83
-256.55
-244.04
-232.60
-220.96
-208.26
-194.32
-179.65
-164.86
-150.32
-136.11
-122.32
-109.41
-98.41
-90.69
-87.18
-87.63
-90.55
-94.01
-97.01
-100.38
-106.55
-118.13
-135.99
-158.11
-179.86
-195.85
-201.93
-196.68
-181.31
-158.61
-131.74
-103.62
-76.95
-54.45
-38.79
-31.83
-33.84
-43.14
-56.56
-70.36
-81.26
-87.10
-87.14
-81.66
-71.64
-58.37
-43.16
-27.14
-11.19
4.08
18.31
31.19
42.42
51.59
58.32
62.30
63.48
62.07
58.48
53.21
46.79
39.72
32.51
25.64
19.45
14.14
9.59
5.47
1.31
-3.34
-8.65
-14.52
-20.47
-25.85
-29.87
-31.81
-31.22
-27.99
-22.47
-15.36
-7.59
-0.08
6.49
11.71
15.45
17.78
18.86
18.86
17.97
16.42
14.52
12.58
10.94
9.86
9.47
9.77
10.57
11.68
12.84
13.86
14.57
14.83
14.54
13.59
12.01
9.95
7.65
5.41
3.47
1.92
0.67
-0.55
-2.05
-4.11
-6.82
-9.94
-12.94
-15.11
-15.73
-14.39
-11.16
-6.56
-1.36
3.71
8.11
11.66
14.28
15.95
16.54
15.97
14.30
11.84
9.07
6.55
4.66
3.55
3.17
3.36
3.99
4.95
6.18
7.51
8.75
9.68
10.13
10.01
9.41
8.48
7.35
6.13
4.75
3.11
0.98
-1.79
-5.23
-9.16
-13.16
-16.62
-18.84
-19.24
-17.51
-13.81
-8.64
-2.79
3.01
8.20
12.52
15.87
18.19
19.39
19.34
18.10
15.92
13.27
10.71
8.68
7.34
6.65
6.43
6.53
6.86
7.44
8.19
8.97
9.57
9.73
9.32
8.36
7.03
5.60
4.26
3.11
2.06
0.95
-0.43
-2.30
-4.72
-7.65
-10.85
-13.86
-16.09
-16.91
-15.84
-12.72
-7.83
-1.75
4.71
10.81
15.99
19.97
22.66
24.14
24.49
23.89
22.53
20.65
18.55
16.49
14.67
13.23
12.18
11.54
11.29
11.46
12.06
13.03
14.20
15.28
15.90
15.72
14.52
12.31
9.28
5.77
2.14
-1.30
-4.35
-7.00
-9.36
-11.63
-13.98
-16.40
-18.73
-20.55
-21.31
-20.55
-17.99
-13.76
-8.30
-2.30
3.53
8.61
12.57
15.28
16.75
17.05
16.33
14.79
12.73
10.50
8.44
6.82
5.76
5.26
5.19
5.44
5.86
6.36
6.86
7.27
7.56
7.64
7.45
6.91
5.96
4.68
3.24
1.89
0.79
-0.08
-0.99
-2.32
-4.42
-7.34
-10.81
-14.33
-17.29
-19.18
-19.65
-18.47
-15.58
-11.06
-5.24
1.34
7.96
13.91
18.61
21.78
23.41
23.67
22.88
21.37
19.50
17.62
16.06
15.07
14.74
15.01
15.66
16.47
17.31
18.19
19.23
20.53
22.09
23.74
25.20
26.27
26.88
27.23
27.59
28.21
29.17
30.32
31.43
32.31
32.98
33.62
34.51
35.87
37.82
40.43
43.84
48.33
54.37
62.46
72.86
85.46
99.69
114.68
129.44
143.17
155.29
165.55
173.84
180.16
184.56
187.18
188.27
188.15
187.02
184.77
180.86
174.53
165.15
152.58
137.32
120.43
103.05
86.14
70.24
55.57
42.25
30.44
20.33
12.01
5.42
0.30
-3.89
-8.16
-14.09
-23.68
-38.70
-59.83
-86.04
-114.49
-141.45
-163.54
-178.85
-187.46
-190.92
-191.35
-190.47
-189.13
-187.45
-185.21
-182.23
-178.59
-174.65
-170.99
-168.26
-166.92
-167.00
-167.92
-168.64
-167.96
-165.08
-159.77
-152.51
-144.23
-136.18
-129.78
-126.62
-128.19
-135.19
-146.62
-159.37
-168.95
-171.34
-165.30
-153.77
-143.43
-142.31
-156.39
-186.98
-230.05
-277.91
-322.35
-357.62
-381.89
-396.74
-405.42
-410.70
-413.77
-414.23
-410.97
-403.10
-390.42
-373.25
-351.91
-326.24
-295.74
-260.15
-220.17
-177.57
-134.88
-94.61
-58.42
-26.68
1.38
27.12
51.77
75.97
99.67
122.39
143.68
163.41
182.08
200.78
220.98
243.85
269.57
296.62
321.86
341.21
351.05
349.62
337.59
317.65
293.33
267.56
242.01
217.17
193.19
170.72
151.14
136.06
126.47
122.08
121.23
121.59
121.13
118.81
114.85
110.33
106.33
103.28
100.68
97.40
92.30
84.89
75.57
65.52
56.20
48.80
43.87
41.24
40.27
40.18
40.32
40.30
39.93
39.16
37.86
35.94
33.34
30.11
26.45
22.57
18.59
14.44
9.86
4.57
-1.62
-8.58
-15.81
-22.54
-27.88
-31.04
-31.54
-29.20
-24.21
-16.97
-8.10
1.63
11.36
20.26
27.72
33.48
37.60
40.36
42.10
43.03
43.19
42.51
40.86
38.21
34.49
29.71
23.90
17.33
10.68
5.01
1.50
1.04
3.76
8.92
15.15
20.91
25.00
26.84
26.42
24.10
20.38
15.76
10.69
5.59
0.82
-3.43
-7.11
-10.17
-12.49
-13.82
-13.85
-12.30
-9.00
-3.93
2.74
10.66
19.26
27.83
35.57
41.86
46.33
48.90
49.73
49.04
47.06
44.09
40.52
36.88
33.67
31.22
29.60
28.58
27.81
26.93
25.73
24.10
22.08
19.69
17.03
14.20
11.33
8.53
5.81
3.07
0.07
-3.44
-7.69
-12.68
-18.16
-23.54
-28.00
-30.61
-30.63
-27.68
-21.92
-14.05
-5.10
3.84
11.89
18.50
23.48
26.85
28.75
29.41
29.10
28.19
27.02
25.92
25.06
24.49
24.14
23.95
23.86
23.88
24.01
24.16
24.15
23.77
22.85
21.30
19.19
16.65
13.83
10.90
7.92
4.87
1.62
-2.02
-6.22
-10.99
-16.04
-20.76
-24.27
-25.72
-24.54
-20.65
-14.55
-7.06
0.88
8.50
15.33
21.11
25.73
29.10
31.15
31.90
31.50
30.27
28.59
26.82
25.19
23.85
22.86
22.26
22.03
22.07
22.17
22.05
21.46
20.31
18.67
16.72
14.63
12.45
10.14
7.59
4.69
1.42
-2.21
-6.17
-10.49
-15.18
-20.12
-24.99
-29.15
-31.83
-32.28
-30.08
-25.33
-18.55
-10.51
-1.96
6.62
14.92
22.77
29.89
35.80
40.03
42.22
42.36
40.84
38.29
35.38
32.60
30.18
28.10
26.27
24.60
23.08
21.78
20.69
19.75
18.75
17.45
15.70
13.44
10.80
8.00
5.21
2.57
0.04
-2.52
-5.38
-8.81
-12.98
-17.80
-22.84
-27.35
-30.43
-31.28
-29.48
-25.13
-18.81
-11.37
-3.66
3.60
9.93
15.07
18.91
21.44
22.75
23.00
22.40
21.20
19.65
18.01
16.52
15.37
14.69
14.49
14.69
15.12
15.61
15.96
15.99
15.55
14.55
12.96
10.86
8.40
5.76
3.12
0.56
-1.94
-4.47
-7.21
-10.31
-13.91
-17.97
-22.21
-26.06
-28.75
-29.49
-27.75
-23.43
-17.00
-9.32
-1.44
5.69
11.43
15.49
17.92
18.97
18.97
18.23
17.05
15.70
14.42
13.42
12.79
12.52
12.50
12.55
12.47
12.12
11.40
10.32
8.96
7.44
5.86
4.30
2.71
1.02
-0.86
-3.01
-5.44
-8.15
-11.13
-14.36
-17.70
-20.85
-23.31
-24.44
-23.68
-20.75
-15.85
-9.60
-2.91
3.34
8.49
12.31
14.85
16.32
16.97
16.89
16.13
14.78
13.01
11.14
9.50
8.34
7.74
7.64
7.84
8.10
8.24
8.12
7.66
6.80
5.56
3.95
2.01
-0.24
-2.79
-5.65
-8.82
-12.32
-16.15
-20.25
-24.48
-28.53
-31.91
-34.02
-34.28
-32.33
-28.19
-22.26
-15.24
-7.95
-1.11
4.81
9.57
13.13
15.53
16.84
17.14
16.61
15.45
13.94
12.39
11.01
9.92
9.11
8.54
8.14
7.86
7.68
7.56
7.41
7.09
6.41
5.28
3.67
1.74
-0.33
-2.40
-4.46
-6.70
-9.40
-12.81
-16.96
-21.54
-25.95
-29.36
-31.00
-30.37
-27.38
-22.41
-16.15
-9.39
-2.85
2.99
7.85
11.63
14.33
15.97
16.67
16.60
15.99
15.09
14.12
13.26
12.58
12.07
11.68
11.35
11.01
10.66
10.32
10.00
9.60
8.98
7.94
6.35
4.22
1.70
-0.96
-3.59
-6.17
-8.83
-11.81
-15.28
-19.14
-23.05
-26.38
-28.44
-28.66
-26.77
-22.96
-17.74
-11.82
-5.87
-0.40
4.33
8.21
11.17
13.15
14.10
14.08
13.33
12.24
11.21
10.54
10.27
10.26
10.32
10.31
10.27
10.30
10.50
10.84
11.11
11.06
10.48
9.33
7.76
5.99
4.25
2.54
0.74
-1.42
-4.19
-7.69
-11.82
-16.25
-20.51
-24.03
-26.25
-26.71
-25.20
-21.75
-16.71
-10.68
-4.32
1.71
6.92
11.07
14.11
16.14
17.33
17.81
17.72
17.17
16.27
15.17
14.03
12.99
12.20
11.71
11.45
11.30
11.09
10.67
9.92
8.82
7.40
5.73
3.91
2.02
0.11
-1.84
-3.88
-6.12
-8.68
-11.67
-15.09
-18.82
-22.53
-25.72
-27.78
-28.17
-26.53
-22.89
-17.61
-11.39
-4.99
0.91
5.81
9.53
12.05
13.50
13.97
13.61
12.52
10.91
9.04
7.29
6.00
5.37
5.43
5.95
6.62
7.13
7.31
7.13
6.67
6.00
5.14
4.04
2.67
1.08
-0.62
-2.33
-4.05
-5.91
-8.15
-10.98
-14.43
-18.23
-21.84
-24.54
-25.67
-24.77
-21.78
-17.06
-11.27
-5.18
0.49
5.26
8.90
11.37
12.77
13.27
13.03
12.25
11.09
9.75
8.40
7.20
6.26
5.61
5.19
4.88
4.55
4.11
3.51
2.76
1.84
0.71
-0.62
-2.17
-3.89
-5.68
-7.53
-9.50
-11.75
-14.47
-17.73
-21.36
-24.91
-27.74
-29.17
-28.70
-26.18
-21.79
-16.08
-9.76
-3.54
1.99
6.47
9.77
11.94
13.14
13.59
13.48
12.99
12.29
11.48
10.67
9.93
9.28
8.75
8.35
8.12
8.04
8.05
8.02
7.73
7.05
5.92
4.39
2.62
0.79
-1.05
-2.92
-4.97
-7.39
-10.29
-13.70
-17.49
-21.34
-24.77
-27.18
-27.95
-26.66
-23.23
-18.01
-11.68
-5.09
0.96
5.92
9.57
11.97
13.36
14.03
14.21
14.09
13.79
13.40
13.00
12.61
12.23
11.83
11.38
10.91
10.53
10.36
10.46
10.72
10.88
10.64
9.75
8.16
6.07
3.78
1.56
-0.50
-2.52
-4.73
-7.38
-10.58
-14.22
-18.05
-21.66
-24.59
-26.34
-26.48
-24.75
-21.13
-15.94
-9.78
-3.44
2.34
7.01
10.39
12.56
13.75
14.21
14.09
13.53
12.65
11.65
10.77
10.20
9.98
10.02
10.15
10.23
10.18
10.04
9.87
9.68
9.34
8.66
7.45
5.63
3.29
0.66
-1.97
-4.36
-6.50
-8.59
-10.98
-13.97
-17.59
-21.57
-25.29
-28.03
-29.16
-28.29
-25.37
-20.64
-14.59
-7.89
-1.25
4.65
9.35
12.66
14.66
15.59
15.71
15.15
13.97
12.22
10.07
7.86
5.99
4.82
4.47
4.80
5.51
6.24
6.70
6.72
6.23
5.24
3.83
2.09
0.16
-1.85
-3.87
-5.89
-7.99
-10.31
-12.98
-16.09
-19.51
-22.94
-25.87
-27.66
-27.72
-25.72
-21.66
-15.97
-9.39
-2.77
3.16
7.91
11.33
13.51
14.70
15.10
14.91
14.22
13.13
11.79
10.37
9.08
8.08
7.47
7.23
7.23
7.25
7.06
6.43
5.28
3.64
1.65
-0.49
-2.63
-4.72
-6.77
-8.86
-11.06
-13.47
-16.19
-19.28
-22.68
-26.10
-29.00
-30.66
-30.47
-28.11
-23.75
-17.98
-11.63
-5.47
0.02
4.62
8.36
11.29
13.41
14.67
15.08
14.78
14.02
13.12
12.31
11.69
11.21
10.74
10.24
9.68
9.13
8.60
8.03
7.31
6.33
5.01
3.34
1.41
-0.67
-2.74
-4.74
-6.67
-8.69
-11.09
-14.08
-17.71
-21.70
-25.40
-28.01
-28.81
-27.43
-24.04
-19.19
-13.62
-7.99
-2.71
2.03
6.13
9.46
11.89
13.33
13.82
13.61
13.00
12.28
11.62
11.04
10.51
10.01
9.55
9.13
8.73
8.28
7.74
7.12
6.45
5.79
5.13
4.39
3.46
2.26
0.72
-1.24
-3.68
-6.69
-10.26
-14.20
-18.11
-21.42
-23.49
-23.82
-22.18
-18.68
-13.76
-8.06
-2.33
2.78
6.83
9.69
11.43
12.27
12.45
12.16
11.51
10.65
9.75
9.00
8.58
8.57
8.97
9.62
10.29
10.76
10.87
10.52
9.72
8.58
7.18
5.62
3.91
2.04
-0.03
-2.33
-4.88
-7.66
-10.65
-13.74
-16.67
-19.03
-20.33
-20.09
-18.07
-14.37
-9.47
-4.07
1.12
5.59
9.08
11.63
13.38
14.41
14.73
14.28
13.07
11.31
9.36
7.64
6.42
5.69
5.18
4.57
3.66
2.50
1.35
0.45
-0.12
-0.56
-1.18
-2.24
-3.83
-5.83
-8.10
-10.62
-13.47
-16.71
-20.16
-23.34
-25.55
-26.12
-24.67
-21.27
-16.38
-10.67
-4.80
0.72
5.60
9.67
12.87
15.14
16.45
16.86
16.47
15.51
14.27
13.09
12.20
11.66
11.39
11.16
10.75
10.06
9.18
8.29
7.62
7.30
7.22
7.12
6.69
5.69
4.13
2.22
0.27
-1.45
-2.89
-4.14
-5.32
-6.36
-6.85
-6.11
-3.35
1.98
9.86
19.70
30.35
40.47
48.82
54.56
57.45
58.07
57.89
59.14
64.24
74.99
91.80
113.39
137.12
159.79
178.42
190.69
194.99
190.20
175.78
151.98
120.29
83.43
44.96
8.44
-23.42
-49.12
-68.37
-81.77
-90.69
-97.09
-103.35
-111.65
-122.95
-136.11
-147.56
-151.98
-144.05
-120.46
-81.53
-31.60
22.12
71.70
110.88
136.63
149.24
151.16
145.33
134.08
119.25
103.12
89.35
82.80
87.90
106.27
134.94
166.54
191.47
201.26
191.42
162.35
118.24
64.95
8.00
-48.13
-99.61
-142.84
-174.45
-192.28
-196.82
-191.82
-183.43
-178.04
-179.77
-188.70
-201.27
-211.99
-215.90
-210.88
-197.95
-180.24
-161.11
-142.59
-124.45
-105.49
-84.46
-60.93
-36.27
-12.74
7.42
22.70
32.72
38.64
41.17
40.50
36.48
27.94
13.94
-5.59
-29.71
-56.72
-83.70
-108.88
-130.83
-147.61
-158.10
-161.79
-159.24
-152.46
-144.44
-136.66
-130.72
-126.88
-115.31
-87.68
-39.46
27.76
106.21
177.01
233.74
275.97
305.60
324.41
334.36
335.16
326.59
309.61
286.84
263.21
242.09
225.12
212.56
202.63
192.80
181.20
167.12
151.17
135.69
121.78
109.36
97.56
84.69
69.10
50.17
28.45
5.48
-16.29
-35.65
-52.54
-67.68
-82.22
-97.02
-112.15
-126.78
-139.81
-150.20
-158.20
-165.33
-173.99
-186.77
-205.60
-230.80
-260.68
-291.77
-319.59
-339.89
-349.28
-345.45
-327.32
-295.31
-251.60
-200.01
-145.34
-92.12
-43.57
-1.17
34.68
63.67
84.97
97.51
101.57
100.21
99.50
106.80
127.43
161.79
204.38
245.61
275.37
286.90
278.85
254.97
221.74
185.48
150.06
116.61
84.53
53.24
23.12
-4.74
-29.86
-53.57
-79.00
-109.37
-145.37
-183.34
-215.74
-234.13
-233.37
-214.62
-185.24
-155.54
-134.07
-123.98
-122.45
-123.13
-119.63
-108.11
-87.47
-58.03
-20.12
26.29
80.45
139.20
196.37
243.78
273.40
280.00
262.85
225.85
176.09
121.49
68.54
20.92
-20.71
-57.83
-92.74
-127.44
-163.37
-201.30
-241.46
-283.05
-323.70
-359.38
-385.34
-397.82
-395.63
-380.65
-356.76
-327.81
-295.77
-260.16
-219.03
-170.88
-116.40
-59.13
-4.57
41.55
75.15
94.96
102.46
100.90
93.85
84.00
72.67
60.13
46.53
32.60
19.77
9.69
3.38
0.76
0.87
2.65
5.55
9.88
16.38
25.59
37.25
50.16
62.53
72.67
79.57
83.11
83.88
82.79
80.56
77.52
73.60
68.54
62.07
54.10
44.81
34.65
24.39
15.00
7.55
2.91
1.46
2.98
6.62
11.22
15.63
19.04
21.07
21.71
21.07
19.16
15.90
11.16
5.04
-2.10
-9.57
-16.54
-22.33
-26.59
-29.44
-31.58
-34.07
-38.25
-45.68
-57.70
-74.82
-95.98
-118.21
-137.28
-149.17
-151.75
-145.69
-134.04
-120.70
-108.70
-99.13
-91.27
-83.59
-74.76
-63.98
-50.66
-34.02
-13.10
12.52
41.87
72.24
99.79
120.90
133.44
137.39
134.55
127.79
119.89
112.80
107.47
103.93
101.61
99.72
97.51
94.48
90.60
86.29
82.33
79.50
78.21
78.24
78.75
78.67
77.08
73.52
68.02
60.94
52.71
43.76
34.52
25.47
17.19
10.21
4.88
1.17
-1.35
-3.40
-5.82
-9.25
-13.87
-19.36
-24.90
-29.48
-32.16
-32.39
-30.10
-25.64
-19.64
-12.74
-5.54
1.49
7.97
13.51
17.70
20.18
20.80
19.71
17.43
14.75
12.48
11.16
10.97
11.63
12.66
13.59
14.13
14.22
13.99
13.55
12.90
11.97
10.62
8.81
6.61
4.24
1.96
-0.10
-1.98
-3.98
-6.54
-9.97
-14.23
-18.84
-22.97
-25.63
-26.11
-24.07
-19.76
-13.77
-6.86
0.27
7.11
13.30
18.63
22.89
25.92
27.63
28.03
27.30
25.72
23.69
21.58
19.70
18.21
17.09
16.24
15.49
14.69
13.74
12.59
11.19
9.55
7.67
5.56
3.23
0.72
-1.88
-4.46
-6.96
-9.41
-12.00
-15.04
-18.75
-23.07
-27.53
-31.31
-33.40
-32.99
-29.66
-23.48
-15.00
-5.08
5.23
14.89
23.01
29.05
32.86
34.68
34.97
34.22
32.85
31.13
29.27
27.48
25.90
24.65
23.70
22.93
22.17
21.31
20.27
19.03
17.58
15.94
14.09
12.04
9.78
7.29
4.56
1.58
-1.64
-5.09
-8.78
-12.70
-16.78
-20.75
-24.16
-26.38
-26.83
-25.16
-21.42
-16.05
-9.70
-3.05
3.34
9.11
13.95
17.66
20.03
20.92
20.32
18.39
15.48
12.07
8.70
5.90
4.01
3.16
3.17
3.72
4.39
4.90
5.12
5.07
4.79
4.26
3.42
2.19
0.54
-1.47
-3.81
-6.52
-9.73
-13.52
-17.82
-22.22
-26.04
-28.43
-28.65
-26.30
-21.43
-14.58
-6.62
1.49
8.91
15.03
19.57
22.41
23.62
23.33
21.74
19.16
15.99
12.68
9.61
7.13
5.40
4.44
4.15
4.34
4.76
5.20
5.57
5.82
5.95
5.92
5.59
4.75
3.15
0.66
-2.79
-7.16
-12.29
-17.95
-23.68
-28.76
-32.32
-33.55
-31.99
-27.76
-21.51
-14.24
-6.96
-0.43
4.94
9.03
11.89
13.66
14.46
14.45
13.89
13.04
12.11
11.24
10.44
9.69
8.95
8.26
7.68
7.32
7.20
7.21
7.19
6.87
6.05
4.62
2.65
0.31
-2.18
-4.69
-7.22
-10.00
-13.29
-17.29
-21.91
-26.54
-30.23
-31.79
-30.14
-24.71
-15.64
-3.78
9.50
22.67
34.36
43.71
50.39
54.63
57.01
58.32
59.33
60.66
62.64
65.26
68.23
71.03
73.10
73.93
73.25
70.98
67.25
62.24
56.14
49.01
40.82
31.50
21.03
9.60
-2.19
-13.47
-23.16
-30.40
-34.73
-36.40
-36.15
-35.03
-33.96
-33.38
-33.24
-33.04
-32.20
-30.28
-27.19
-23.21
-18.86
-14.62
-10.84
-7.62
-4.94
-2.78
-1.22
-0.42
-0.55
-1.60
-3.35
-5.45
-7.53
-9.34
-10.76
-11.81
-12.57
-13.12
-13.54
-14.00
-14.68
-15.75
-17.37
-19.53
-22.12
-24.97
-27.80
-30.38
-32.49
-34.00
-34.87
-35.17
-35.08
-34.78
-34.37
-33.74
-32.60
-30.50
-27.04
-22.04
-15.72
-8.64
-1.58
4.69
9.65
13.16
15.35
16.56
17.13
17.27
17.04
16.41
15.34
13.87
12.17
10.46
9.00
7.98
7.49
7.51
7.95
8.59
9.16
9.35
8.92
7.77
5.97
3.73
1.30
-1.19
-3.74
-6.49
-9.56
-12.98
-16.60
-20.16
-23.36
-25.91
-27.47
-27.74
-26.46
-23.51
-19.05
-13.47
-7.38
-1.40
4.02
8.64
12.39
15.25
17.14
17.93
17.57
16.14
13.96
11.50
9.23
7.45
6.31
5.77
5.67
5.84
6.04
6.06
5.70
4.87
3.62
2.17
0.79
-0.36
-1.30
-2.26
-3.59
-5.65
-8.62
-12.45
-16.89
-21.48
-25.61
-28.61
-29.83
-28.82
-25.47
-20.06
-13.30
-6.08
0.69
6.37
10.64
13.54
15.31
16.24
16.52
16.24
15.41
14.09
12.42
10.69
9.22
8.26
7.92
8.08
8.54
9.04
9.37
9.38
9.03
8.31
7.23
5.81
4.03
1.91
-0.59
-3.48
-6.74
-10.36
-14.32
-18.59
-23.01
-27.29
-30.86
-32.99
-32.97
-30.39
-25.38
-18.62
-11.16
-4.04
2.03
6.81
10.45
13.25
15.42
16.94
17.64
17.41
16.30
14.58
12.65
10.88
9.46
8.43
7.68
7.16
6.86
6.83
7.08
7.47
7.71
7.46
6.43
4.54
1.94
-1.02
-4.01
-6.79
-9.37
-11.96
-14.91
-18.47
-22.69
-27.27
-31.61
-34.94
-36.50
-35.79
-32.68
-27.46
-20.67
-13.03
-5.26
2.04
8.36
13.39
16.94
19.07
19.98
20.10
19.84
19.61
19.62
19.86
20.17
20.30
20.08
19.40
18.32
16.97
15.52
14.14
12.99
12.19
11.83
11.83
11.99
11.93
11.22
9.62
7.08
3.81
0.03
-4.13
-8.78
-14.06
-19.88
-25.81
-30.95
-34.25
-34.85
-32.38
-27.10
-19.78
-11.47
-3.14
4.45
10.79
15.58
18.73
20.24
20.25
19.05
16.98
14.45
11.86
9.52
7.65
6.37
5.74
5.76
6.39
7.52
8.95
10.39
11.50
11.98
11.58
10.26
8.12
5.39
2.46
-0.37
-2.92
-5.23
-7.57
-10.30
-13.68
-17.71
-22.04
-26.01
-28.83
-29.79
-28.53
-25.05
-19.83
-13.59
-7.14
-1.20
3.71
7.31
9.55
10.51
10.35
9.29
7.61
5.63
3.66
2.00
0.82
0.21
0.18
0.66
1.64
3.05
4.75
6.50
7.93
8.64
8.39
7.13
5.05
2.52
-0.03
-2.32
-4.21
-5.87
-7.61
-9.84
-12.90
-16.86
-21.37
-25.68
-28.79
-29.74
-27.95
-23.43
-16.80
-9.02
-1.17
5.88
11.61
15.84
18.63
20.21
20.82
20.75
20.22
19.44
18.56
17.62
16.64
15.62
14.52
13.41
12.43
11.74
11.49
11.64
11.97
12.13
11.72
10.51
8.51
6.00
3.36
0.96
-1.11
-2.95
-4.90
-7.32
-10.51
-14.53
-19.15
-23.86
-27.95
-30.61
-31.16
-29.26
-24.98
-18.85
-11.73
-4.51
2.09
7.66
12.03
15.23
17.25
18.04
17.62
16.11
13.91
11.50
9.38
7.84
6.92
6.41
6.09
5.87
5.77
5.92
6.34
6.92
7.36
7.27
6.39
4.65
2.20
-0.62
-3.42
-5.87
-7.83
-9.38
-10.82
-12.61
-15.13
-18.58
-22.76
-27.09
-30.69
-32.65
-32.28
-29.31
-23.98
-16.89
-8.84
-0.64
7.05
13.72
19.01
22.72
24.76
25.22
24.39
22.75
20.83
19.08
17.78
16.98
16.56
16.34
16.15
15.91
15.64
15.36
15.11
14.82
14.36
13.53
12.18
10.25
7.85
5.21
2.58
0.14
-2.08
-4.24
-6.63
-9.59
-13.33
-17.77
-22.52
-26.88
-30.02
-31.22
-30.13
-26.85
-21.92
-16.05
-9.97
-4.19
0.99
5.42
8.99
11.57
13.06
13.40
12.69
11.19
9.25
7.30
5.69
4.64
4.25
4.46
5.08
5.89
6.68
7.26
7.53
7.44
6.97
6.08
4.79
3.13
1.20
-0.83
-2.80
-4.61
-6.30
-8.13
-10.42
-13.39
-16.98
-20.71
-23.80
-25.47
-25.12
-22.65
-18.38
-12.91
-6.89
-0.87
4.74
9.62
13.44
15.91
16.80
16.11
14.10
11.29
8.32
5.79
4.09
3.30
3.23
3.57
4.03
4.42
4.71
4.95
5.12
5.13
4.76
3.85
2.38
0.48
-1.59
-3.64
-5.62
-7.71
-10.23
-13.45
-17.42
-21.84
-26.09
-29.33
-30.81
-30.03
-26.95
-21.90
-15.50
-8.47
-1.50
4.88
10.26
14.39
17.12
18.45
18.48
17.49
15.82
13.87
12.00
10.45
9.30
8.51
7.92
7.42
6.89
6.32
5.77
5.25
4.73
4.04
2.92
1.11
-1.50
-4.80
-8.40
-11.83
-14.71
-17.01
-19.13
-21.79
-25.72
-31.21
-37.85
-44.47
-49.46
-51.30
-49.18
-43.40
-35.30
-26.82
-19.76
-15.13
-12.80
-11.69
-10.25
-7.02
-1.08
7.76
18.80
30.40
39.90
44.11
40.30
27.65
8.26
-12.90
-29.50
-36.29
-31.16
-16.02
4.33
24.32
39.72
48.73
51.63
49.70
44.12
35.74
25.28
13.83
2.85
-6.20
-12.52
-16.29
-18.48
-20.21
-22.03
-23.57
-23.75
-21.30
-15.52
-6.69
3.83
13.97
21.60
25.10
23.82
18.16
9.32
-1.00
-11.07
-19.43
-25.05
-27.42
-26.48
-22.53
-16.18
-8.24
0.38
8.77
16.18
22.11
26.36
28.97
30.11
29.95
28.57
25.92
21.89
16.38
9.49
1.46
-7.27
-16.08
-24.23
-30.88
-35.20
-36.44
-34.12
-28.23
-19.34
-8.53
2.74
13.00
21.11
26.59
29.58
30.74
30.84
30.52
30.05
29.37
28.30
26.61
24.29
21.45
18.36
15.33
12.70
10.78
9.80
9.79
10.58
11.73
12.73
13.04
12.27
10.30
7.18
3.19
-1.36
-6.14
-11.02
-15.99
-21.16
-26.54
-31.94
-36.82
-40.41
-41.88
-40.69
-36.78
-30.59
-22.93
-14.67
-6.48
1.22
8.28
14.53
19.76
23.60
25.76
26.11
24.86
22.53
19.76
17.17
15.13
13.76
13.03
12.80
12.91
13.15
13.22
12.73
11.33
8.85
5.38
1.32
-2.71
-6.17
-8.75
-10.59
-12.20
-14.27
-17.40
-21.78
-27.02
-32.15
-35.93
-37.12
-34.98
-29.48
-21.28
-11.57
-1.60
7.62
15.48
21.82
26.64
30.00
31.89
32.31
31.41
29.58
27.32
25.15
23.35
21.94
20.81
19.80
18.90
18.21
17.82
17.69
17.57
17.03
15.66
13.25
9.90
5.96
1.92
-1.84
-5.20
-8.29
-11.50
-15.29
-19.97
-25.54
-31.60
-37.38
-41.83
-43.89
-42.80
-38.24
-30.54
-20.53
-9.39
1.62
11.42
19.26
24.76
27.84
28.69
27.65
25.24
22.02
18.58
15.36
12.68
10.63
9.24
8.43
8.17
8.36
8.84
9.40
9.79
9.80
9.33
8.36
6.93
5.07
2.83
0.30
-2.37
-5.03
-7.58
-10.11
-12.91
-16.38
-20.78
-26.08
-31.76
-36.90
-40.39
-41.19
-38.75
-33.05
-24.71
-14.77
-4.40
5.39
13.87
20.66
25.53
28.36
29.10
27.88
25.09
21.43
17.70
14.60
12.53
11.49
11.21
11.34
11.65
12.02
12.45
12.88
13.12
12.91
11.93
10.07
7.33
3.96
0.29
-3.31
-6.56
-9.36
-11.83
-14.34
-17.36
-21.31
-26.28
-31.90
-37.35
-41.52
-43.33
-42.08
-37.64
-30.45
-21.36
-11.36
-1.37
7.86
15.78
22.00
26.23
28.29
28.24
26.42
23.44
20.07
16.98
14.63
13.09
12.19
11.64
11.24
10.96
10.87
10.98
11.21
11.23
10.69
9.29
6.95
3.84
0.31
-3.19
-6.34
-8.96
-11.16
-13.26
-15.73
-19.00
-23.35
-28.70
-34.55
-40.04
-44.05
-45.48
-43.57
-38.09
-29.47
-18.74
-7.26
3.60
12.84
19.88
24.64
27.30
28.16
27.48
25.57
22.83
19.81
17.03
14.94
13.68
13.12
12.95
12.84
12.67
12.45
12.28
12.21
12.14
11.86
11.03
9.45
6.98
3.72
-0.07
-3.98
-7.57
-10.52
-12.71
-14.34
-15.85
-17.80
-20.70
-24.80
-29.89
-35.25
-39.80
-42.30
-41.77
-37.73
-30.42
-20.68
-9.71
1.29
11.31
19.64
25.91
29.94
31.74
31.45
29.50
26.48
23.11
20.07
17.83
16.56
16.11
16.21
16.50
16.79
17.04
17.31
17.66
18.04
18.27
18.05
17.10
15.24
12.50
9.05
5.19
1.24
-2.56
-6.07
-9.23
-12.14
-14.99
-18.05
-21.63
-25.95
-30.97
-36.31
-41.21
-44.69
-45.82
-44.00
-39.13
-31.70
-22.59
-12.82
-3.35
5.10
12.06
17.30
20.70
22.22
21.98
20.33
17.80
15.02
12.57
10.82
9.83
9.48
9.46
9.49
9.35
8.93
8.19
7.17
5.94
4.58
3.16
1.70
0.23
-1.13
-2.11
-2.27
-1.15
1.55
5.87
11.48
17.76
23.85
28.81
31.81
32.33
30.49
27.19
24.07
23.23
26.68
35.83
51.11
72.00
97.27
125.29
154.21
182.10
206.83
226.30
238.65
242.76
238.62
227.40
211.27
192.79
174.20
156.82
140.94
125.96
111.01
95.44
79.12
62.41
45.77
29.22
12.06
-7.06
-29.66
-56.72
-88.28
-123.54
-161.32
-200.20
-238.31
-272.75
-299.49
-314.43
-315.23
-303.09
-282.96
-261.79
-245.41
-235.75
-230.11
-222.83
-208.50
-184.71
-153.04
-117.81
-83.76
-54.21
-30.41
-12.11
1.40
10.68
16.07
17.99
17.33
15.44
13.83
13.68
15.49
18.88
22.84
26.19
28.00
28.05
26.82
25.19
24.06
23.88
24.47
25.08
24.74
22.69
18.55
12.49
5.04
-3.18
-11.61
-19.88
-27.60
-34.25
-39.06
-41.12
-39.61
-34.20
-25.27
-13.90
-1.70
9.71
19.04
25.57
29.16
30.12
28.93
26.16
22.35
18.04
13.77
9.99
7.07
5.19
4.37
4.47
5.22
6.31
7.39
8.12
8.20
7.47
5.90
3.58
0.74
-2.38
-5.54
-8.58
-11.49
-14.33
-17.29
-20.56
-24.37
-28.81
-33.72
-38.52
-42.17
-43.37
-40.89
-34.09
-23.30
-9.86
4.23
16.87
26.55
32.66
35.45
35.69
34.25
31.80
28.77
25.43
22.02
18.88
16.36
14.68
13.92
13.87
14.21
14.58
14.72
14.54
14.05
13.24
12.08
10.43
8.22
5.48
2.41
-0.73
-3.78
-6.73
-9.83
-13.53
-18.21
-24.01
-30.54
-36.87
-41.61
-43.29
-40.81
-33.86
-23.12
-10.05
3.42
15.55
25.12
31.61
35.08
35.92
34.65
31.75
27.78
23.31
18.95
15.22
12.46
10.72
9.83
9.51
9.50
9.69
10.07
10.68
11.40
11.94
11.84
10.72
8.42
5.18
1.50
-1.99
-4.84
-6.97
-8.70
-10.66
-13.56
-17.89
-23.60
-30.02
-35.85
-39.52
-39.55
-35.12
-26.36
-14.40
-1.01
11.91
22.76
30.61
35.19
36.77
35.86
33.08
29.04
24.30
19.45
15.04
11.57
9.34
8.46
8.86
10.25
12.24
14.34
16.07
16.99
16.80
15.34
12.69
9.10
4.93
0.52
-3.87
-8.20
-12.56
-17.11
-22.06
-27.46
-33.09
-38.37
-42.37
-43.91
-41.99
-36.07
-26.43
-14.20
-1.05
11.21
21.10
27.79
31.08
31.37
29.25
25.48
20.76
15.70
10.86
6.70
3.55
1.63
0.97
1.43
2.67
4.25
5.65
6.42
6.23
4.99
2.80
-0.08
-3.33
-6.68
-9.95
-13.09
-16.23
-19.58
-23.42
-27.92
-33.01
-38.28
-42.86
-45.54
-45.09
-40.61
-31.90
-19.67
-5.41
8.96
21.65
31.34
37.50
40.25
40.18
38.05
34.57
30.31
25.76
21.34
17.46
14.45
12.54
11.76
11.97
12.83
13.92
14.78
15.02
14.42
12.90
10.51
7.44
3.90
0.11
-3.77
-7.68
-11.69
-16.05
-21.03
-26.86
-33.42
-40.11
-45.84
-49.20
-48.87
-44.03
-34.77
-22.12
-7.86
6.00
17.68
26.09
30.95
32.67
32.07
30.00
27.11
23.81
20.33
16.86
13.65
11.03
9.23
8.36
8.31
8.83
9.59
10.30
10.70
10.58
9.72
7.97
5.33
1.98
-1.76
-5.48
-8.85
-11.77
-14.40
-17.13
-20.47
-24.81
-30.12
-35.84
-40.86
-43.68
-42.90
-37.68
-28.07
-15.16
-0.78
12.96
24.27
32.05
36.09
36.86
35.21
32.02
27.97
23.54
19.03
14.75
11.10
8.41
6.91
6.62
7.31
8.57
9.95
11.04
11.51
11.12
9.73
7.33
4.04
0.16
-3.95
-7.88
-11.36
-14.35
-17.06
-19.93
-23.47
-28.00
-33.42
-39.04
-43.62
-45.65
-43.80
-37.42
-26.83
-13.32
1.18
14.65
25.54
33.02
36.99
37.85
36.26
32.86
28.22
22.94
17.59
12.79
9.09
6.85
6.15
6.86
8.57
10.78
12.89
14.37
14.83
14.08
12.18
9.39
6.10
2.70
-0.50
-3.38
-6.01
-8.67
-11.75
-15.68
-20.73
-26.88
-33.57
-39.69
-43.69
-44.00
-39.54
-30.16
-16.90
-1.73
12.96
25.08
33.36
37.52
38.08
35.95
32.06
27.10
21.60
16.05
11.00
7.06
4.66
3.96
4.67
6.20
7.81
8.91
9.17
8.51
7.08
5.03
2.51
-0.38
-3.54
-6.84
-10.13
-13.31
-16.41
-19.64
-23.33
-27.80
-33.14
-38.94
-44.22
-47.53
-47.41
-42.93
-34.11
-22.05
-8.58
4.32
15.09
22.94
27.77
29.89
29.70
27.59
23.96
19.30
14.32
9.80
6.46
4.73
4.60
5.70
7.43
9.21
10.68
11.75
12.44
12.71
12.36
11.02
8.34
4.32
-0.67
-5.88
-10.54
-14.17
-16.83
-19.00
-21.46
-24.95
-29.85
-36.05
-42.77
-48.66
-52.10
-51.61
-46.32
-36.29
-22.54
-6.85
8.79
22.56
33.27
40.42
44.12
44.89
43.44
40.50
36.67
32.50
28.47
24.97
22.31
20.63
19.84
19.66
19.72
19.71
19.50
19.09
18.58
17.92
16.90
15.06
11.98
7.47
1.76
-4.45
-10.27
-14.94
-18.16
-20.24
-21.93
-24.15
-27.58
-32.49
-38.60
-45.09
-50.74
-54.10
-53.79
-48.91
-39.33
-25.92
-10.38
5.25
19.07
29.85
37.11
41.03
42.12
40.95
38.00
33.74
28.75
23.77
19.53
16.63
15.23
15.07
15.56
16.05
16.12
15.71
15.04
14.40
13.89
13.29
12.18
10.13
6.90
2.63
-2.22
-7.02
-11.20
-14.43
-16.75
-18.56
-20.47
-23.17
-27.19
-32.70
-39.32
-46.17
-51.85
-54.82
-53.72
-47.87
-37.50
-23.78
-8.54
6.25
18.95
28.61
34.93
38.08
38.43
36.39
32.44
27.17
21.38
15.94
11.61
8.89
7.81
8.06
9.09
10.32
11.28
11.70
11.47
10.62
9.22
7.29
4.81
1.72
-2.02
-6.30
-10.87
-15.42
-19.58
-23.17
-26.21
-28.97
-31.95
-35.73
-40.74
-47.01
-53.94
-60.29
-64.45
-64.89
-60.67
-51.75
-39.08
-24.25
-9.09
4.75
16.14
24.49
29.68
31.98
31.90
30.09
27.31
24.33
21.89
20.71
21.31
24.04
28.95
35.78
44.07
53.25
62.77
72.23
81.39
90.12
98.42
106.36
114.17
122.28
131.24
141.56
153.56
167.19
182.07
197.63
213.32
228.71
243.61
257.89
271.27
283.05
291.91
296.03
293.44
282.64
263.16
235.79
202.41
165.37
126.85
88.30
50.39
13.28
-23.05
-58.51
-92.98
-126.52
-159.60
-193.23
-228.69
-267.00
-308.28
-351.32
-393.60
-431.94
-463.57
-487.04
-502.65
-512.10
-517.54
-520.57
-521.51
-519.36
-512.40
-499.17
-479.26
-453.66
-424.59
-394.67
-365.97
-339.32
-313.96
-288.03
-259.41
-226.61
-189.05
-146.96
-101.24
-53.56
-6.74
35.10
67.41
86.77
92.68
88.38
79.94
73.89
74.70
83.26
97.36
113.66
129.88
145.79
162.66
181.59
202.07
221.72
237.43
247.09
250.78
250.81
250.52
252.41
256.78
261.58
263.37
258.99
246.88
227.45
202.48
173.91
142.88
109.32
72.38
31.39
-13.34
-59.88
-104.77
-143.59
-171.97
-186.53
-185.87
-170.85
-144.45
-111.04
-75.33
-41.34
-11.76
12.10
29.98
42.20
49.20
51.59
50.23
46.36
41.51
37.18
34.37
33.32
33.61
34.47
35.30
35.92
36.58
37.68
39.48
41.94
44.72
47.29
49.06
49.47
48.08
44.68
39.43
32.86
25.79
19.01
12.87
7.24
1.59
-4.36
-9.98
-13.43
-11.89
-2.58
15.97
43.06
75.64
109.23
139.20
162.08
176.12
181.26
178.48
169.23
155.05
137.41
117.56
96.46
74.51
51.65
27.79
3.57
-19.05
-36.66
-45.43
-42.52
-27.56
-3.12
26.06
54.83
79.30
97.85
110.81
119.33
124.25
125.63
123.22
117.19
108.67
99.38
90.90
83.82
77.67
71.49
64.60
57.18
50.10
44.39
40.56
38.38
37.03
35.63
33.56
30.57
26.56
21.38
14.87
7.03
-1.64
-10.01
-16.60
-20.07
-19.68
-15.51
-8.24
1.40
13.23
27.80
46.20
69.26
96.78
127.09
157.18
183.50
203.01
214.03
216.64
212.33
203.23
191.24
177.44
162.04
144.75
125.21
103.42
79.70
54.53
28.20
0.66
-28.55
-60.03
-94.18
-130.68
-168.31
-205.02
-238.49
-266.79
-289.10
-305.78
-318.05
-327.30
-334.49
-340.06
-344.28
-347.71
-351.38
-356.39
-363.21
-371.05
-377.86
-380.96
-377.92
-367.52
-349.88
-326.26
-298.46
-268.09
-236.18
-203.12
-168.95
-133.95
-99.20
-66.69
-38.78
-17.35
-2.77
6.47
13.35
21.24
32.53
47.74
65.54
83.35
98.52
109.26
114.99
116.16
113.75
108.80
102.27
95.05
88.10
82.45
79.11
78.65
80.98
85.17
89.70
92.91
93.58
91.32
86.56
80.25
73.36
66.50
59.71
52.62
44.83
36.19
27.11
18.59
12.01
8.69
9.51
14.55
22.99
33.27
43.53
52.13
58.01
60.88
61.01
58.93
55.16
50.05
43.95
37.37
31.07
25.97
22.87
22.09
23.30
25.56
27.57
28.12
26.47
22.50
16.81
10.37
4.24
-0.84
-4.69
-7.69
-10.52
-13.86
-18.11
-23.15
-28.41
-33.00
-35.90
-36.27
-33.62
-27.95
-19.77
-9.96
0.50
10.78
20.38
29.04
36.64
43.00
47.84
50.82
51.76
50.67
47.77
43.35
37.72
31.06
23.47
15.04
5.90
-3.74
-13.43
-22.53
-30.20
-35.51
-37.74
-36.61
-32.46
-26.25
-19.34
-13.06
-8.31
-5.26
-3.32
-1.37
1.74
6.68
13.36
20.95
28.31
34.56
39.60
44.31
50.30
59.45
73.37
92.89
117.94
147.43
179.47
211.65
241.37
266.33
284.88
296.16
300.08
297.10
287.95
273.54
254.90
233.23
209.79
185.75
161.83
138.14
114.04
88.45
60.05
27.58
-9.69
-51.56
-96.32
-140.55
-179.50
-208.23
-223.32
-224.34
-214.44
-199.51
-186.25
-179.87
-182.47
-192.85
-207.55
-222.65
-235.34
-244.56
-250.67
-254.61
-257.08
-258.24
-257.90
-255.91
-252.52
-248.31
-243.82
-239.25
-234.42
-228.99
-222.91
-216.71
-211.50
-208.66
-209.29
-213.76
-221.32
-230.09
-237.31
-240.05
-235.99
-224.24
-205.66
-182.67
-158.42
-135.70
-116.12
-99.71
-85.24
-70.90
-54.86
-35.61
-11.93
16.95
51.03
88.83
127.02
160.92
185.74
198.35
198.39
188.35
172.36
154.57
137.71
122.82
109.79
98.13
87.56
77.96
69.00
59.93
49.81
38.15
25.38
13.03
3.40
-1.05
1.54
11.80
28.77
49.85
71.44
89.88
102.69
109.24
110.73
109.36
107.13
105.20
103.81
102.98
103.13
105.27
110.38
118.53
128.34
137.21
142.34
141.79
135.22
123.75
109.24
93.44
77.26
60.78
43.39
24.46
3.77
-18.18
-39.97
-59.47
-74.11
-81.30
-78.93
-65.85
-42.23
-9.60
29.35
71.30
113.04
152.07
187.00
217.68
244.94
270.14
294.63
319.14
343.47
366.34
385.68
399.10
404.60
401.18
389.09
369.76
345.32
317.88
288.96
259.18
228.33
195.80
161.12
124.35
86.15
47.64
9.92
-26.29
-60.79
-94.01
-126.83
-160.52
-196.35
-234.93
-275.47
-315.37
-350.43
-375.96
-388.19
-385.58
-369.15
-342.00
-308.13
-271.35
-234.56
-199.57
-167.16
-137.38
-109.83
-84.25
-61.07
-41.87
-29.20
-25.73
-33.07
-50.92
-77.24
-109.16
-144.07
-180.05
-215.20
-246.69
-270.63
-283.12
-282.20
-269.26
-248.64
-225.63
-203.58
-182.33
-158.70
-129.02
-91.89
-49.57
-7.01
30.62
60.36
82.44
99.39
114.24
129.06
144.57
160.61
176.83
193.03
208.93
223.73
235.74
242.79
242.88
235.08
219.98
199.55
176.46
153.16
131.02
110.08
89.36
67.63
44.24
19.67
-4.42
-25.68
-41.78
-51.12
-53.22
-48.77
-39.36
-27.17
-14.50
-3.42
4.59
8.77
9.04
5.86
0.03
-7.53
-15.83
-23.88
-30.77
-35.72
-38.28
-38.41
-36.53
-33.34
-29.63
-26.05
-22.94
-20.34
-18.05
-15.81
-13.41
-10.80
-8.20
-6.00
-4.79
-5.18
-7.65
-12.30
-18.73
-26.03
-32.93
-38.12
-40.63
-40.07
-36.68
-31.20
-24.61
-17.93
-12.01
-7.46
-4.58
-3.46
-3.91
-5.56
-7.95
-10.60
-13.03
-14.83
-15.65
-15.34
-13.99
-11.94
-9.76
-8.05
-7.24
-7.47
-8.53
-10.00
-11.42
-12.53
-13.36
-14.20
-15.47
-17.57
-20.68
-24.63
-28.85
-32.43
-34.33
-33.60
-29.69
-22.65
-13.21
-2.63
7.56
16.03
21.91
24.98
25.57
24.26
21.58
17.86
13.31
8.17
2.90
-1.80
-5.15
-6.60
-6.09
-4.11
-1.53
0.81
2.34
2.95
2.90
2.52
2.00
1.25
-0.01
-2.03
-4.95
-8.67
-13.05
-17.98
-23.31
-28.79
-33.84
-37.53
-38.80
-36.83
-31.45
-23.30
-13.67
-4.10
4.05
9.92
13.22
14.15
13.18
10.91
7.99
5.07
2.76
1.55
1.77
3.49
6.48
10.33
14.64
19.17
23.94
29.19
35.21
42.15
49.85
57.93
66.01
74.00
82.39
92.26
105.04
122.03
143.85
169.93
198.32
225.81
248.43
262.22
264.12
252.60
227.97
192.21
148.51
100.59
52.09
6.22
-34.53
-68.41
-94.48
-112.77
-124.32
-131.02
-135.27
-139.36
-144.81
-152.02
-160.29
-168.22
-174.48
-178.35
-180.16
-181.26
-183.48
-188.51
-197.30
-209.68
-224.47
-239.74
-253.20
-262.71
-266.56
-263.77
-254.16
-238.28
-217.24
-192.28
-164.47
-134.27
-101.51
-65.57
-26.07
16.38
59.80
101.30
138.31
169.88
197.38
223.65
251.32
280.74
309.20
331.89
344.19
344.06
333.04
315.35
295.66
276.82
258.98
240.12
217.71
190.12
157.15
119.78
79.30
36.82
-6.83
-50.86
-94.25
-135.83
-174.75
-210.76
-244.53
-277.31
-310.35
-344.16
-377.89
-409.17
-434.52
-450.23
-453.45
-443.19
-420.68
-389.09
-352.55
-314.76
-278.05
-242.89
-208.13
-171.82
-131.88
-86.40
-33.70
27.45
96.87
171.54
244.82
307.19
348.87
363.41
350.33
315.38
268.04
217.67
170.38
128.18
90.51
56.72
27.75
5.87
-6.84
-10.12
-5.98
2.34
12.04
21.91
32.40
44.69
59.34
75.33
90.05
100.10
102.61
96.29
81.91
61.97
39.67
17.77
-2.31
-20.52
-37.67
-54.56
-71.21
-86.64
-99.28
-107.61
-110.84
-109.09
-103.24
-94.38
-83.46
-70.95
-56.85
-40.92
-22.83
-2.47
19.90
43.48
66.93
88.53
106.59
119.83
127.84
131.22
131.62
131.30
132.51
136.79
144.42
154.26
164.07
171.18
173.20
168.46
156.22
136.61
110.46
79.33
45.47
11.62
-19.44
-45.64
-66.30
-82.43
-96.22
-110.11
-125.57
-142.48
-159.18
-173.26
-182.55
-185.85
-182.96
-174.29
-160.23
-140.83
-115.83
-84.89
-47.72
-4.00
46.68
104.41
168.03
234.06
296.49
347.81
381.25
393.28
384.87
360.98
328.32
292.70
257.05
221.21
183.18
141.33
96.14
50.78
10.20
-20.74
-39.22
-45.63
-43.38
-37.42
-32.27
-30.40
-31.83
-34.91
-37.85
-39.77
-41.04
-42.65
-45.44
-49.66
-55.27
-62.36
-71.43
-82.97
-96.83
-111.74
-125.58
-136.12
-142.00
-143.16
-140.58
-135.55
-129.04
-121.38
-112.25
-101.02
-86.86
-68.97
-46.81
-20.40
9.31
40.59
71.19
98.96
122.26
140.11
152.01
157.89
158.12
153.52
145.33
134.76
122.50
108.38
91.55
71.03
46.27
17.46
-14.59
-48.69
-83.48
-117.39
-148.63
-175.43
-196.46
-211.43
-221.19
-227.43
-231.81
-235.05
-236.50
-234.31
-226.23
-210.67
-187.41
-157.76
-124.25
-89.89
-57.42
-28.78
-4.87
14.36
29.62
41.87
52.00
60.62
67.85
73.42
76.69
76.75
72.81
64.50
52.50
38.79
26.53
19.27
19.82
29.18
45.92
66.46
85.98
99.79
104.45
98.47
82.30
57.88
27.84
-5.17
-39.08
-72.47
-104.57
-134.85
-162.91
-188.40
-211.17
-231.47
-249.84
-266.83
-282.41
-295.64
-304.56
-306.68
-299.75
-282.60
-255.49
-219.95
-178.07
-131.86
-83.06
-33.38
14.98
59.14
95.98
123.14
139.93
147.82
150.02
150.26
151.57
155.28
160.87
166.46
169.64
168.28
161.08
147.57
127.99
102.94
73.27
40.00
4.33
-32.28
-68.26
-101.90
-131.42
-154.80
-169.85
-174.41
-166.89
-146.93
-115.95
-77.22
-35.32
4.61
37.75
60.46
70.81
69.05
57.74
41.47
26.05
17.31
19.63
34.73
61.21
94.95
130.32
161.84
185.73
200.52
206.87
206.50
200.87
190.45
174.78
153.48
127.43
99.42
73.50
53.53
41.38
36.27
35.28
34.96
32.65
26.94
16.85
1.09
-21.74
-51.68
-85.54
-116.28
-134.85
-133.62
-109.88
-67.19
-13.98
39.90
86.68
122.53
147.43
163.45
172.85
176.95
176.05
170.06
159.17
144.29
126.99
109.21
92.49
77.63
64.51
52.52
41.21
30.93
22.78
18.13
17.72
21.11
26.74
32.47
36.44
37.71
36.43
33.45
29.59
25.19
20.09
14.12
7.66
1.87
-1.86
-2.74
-1.28
0.86
1.85
0.76
-1.78
-4.23
-5.27
-4.91
-4.60
-6.65
-13.07
-24.86
-41.79
-62.54
-84.94
-106.06
-122.62
-131.55
-131.23
-122.18
-107.43
-91.46
-78.75
-72.24
-72.82
-79.83
-91.87
-107.23
-123.60
-137.39
-143.52
-136.54
-112.86
-73.12
-23.13
27.56
68.90
94.26
102.61
98.46
89.40
82.77
83.15
91.54
106.16
124.08
142.47
159.00
171.61
178.12
176.13
163.59
139.46
104.51
61.56
15.36
-28.39
-64.46
-89.46
-102.71
-106.05
-102.82
-96.36
-88.81
-80.67
-71.40
-60.38
-47.81
-34.89
-23.17
-13.81
-7.08
-2.57
0.01
0.20
-3.37
-12.27
-27.19
-47.09
-69.08
-89.17
-103.48
-109.51
-106.78
-96.72
-82.00
-65.58
-49.89
-36.62
-26.69
-20.60
-18.76
-21.53
-29.15
-41.39
-57.25
-74.94
-92.06
-106.16
-115.29
-118.63
-116.86
-112.15
-107.89
-108.00
-115.69
-132.22
-155.92
-182.24
-204.92
-218.12
-218.38
-205.64
-182.63
-153.07
-119.36
-81.50
-37.76
13.04
69.13
124.82
171.85
202.62
213.42
206.02
186.62
163.18
142.27
127.30
118.41
113.55
109.68
103.27
90.67
68.72
36.20
-4.47
-47.03
-82.78
-104.02
-107.45
-95.55
-75.07
-53.16
-33.79
-16.41
2.32
25.10
51.31
76.96
96.97
108.10
110.61
107.55
102.76
99.18
98.71
103.44
116.56
141.78
181.06
232.23
288.26
339.09
375.34
391.69
388.22
369.37
341.33
309.47
277.21
246.27
217.56
191.87
169.75
151.09
134.62
118.17
99.52
77.38
51.87
24.48
-2.71
-28.02
-50.89
-72.21
-94.12
-119.44
-150.85
-189.91
-236.02
-285.99
-334.46
-375.30
-403.45
-416.52
-415.12
-402.13
-381.25
-355.95
-329.19
-303.71
-282.17
-266.62
-257.65
-253.61
-250.92
-245.29
-233.47
-214.23
-188.24
-157.20
-123.01
-87.54
-52.82
-21.15
5.57
26.81
44.17
60.78
79.59
101.42
124.01
142.79
152.89
151.52
139.21
119.42
96.98
76.08
59.13
46.56
37.37
29.79
21.44
9.39
-9.43
-37.15
-73.30
-113.82
-151.52
-178.33
-188.39
-180.27
-157.20
-125.17
-90.03
-55.44
-22.70
7.94
35.62
58.28
73.61
80.50
80.02
74.96
68.31
61.83
55.49
47.96
37.84
24.69
9.33
-6.50
-20.82
-31.96
-38.74
-40.38
-36.33
-26.26
-10.16
11.26
36.35
62.52
86.67
105.95
118.49
124.04
123.97
120.79
117.24
115.31
115.62
117.36
118.74
117.86
113.45
105.30
94.12
81.11
67.35
53.48
39.77
26.25
13.00
0.11
-12.46
-24.87
-37.36
-49.89
-61.88
-72.16
-79.45
-82.75
-81.97
-78.03
-72.53
-67.18
-63.08
-60.28
-57.77
-53.95
-47.42
-37.79
-25.91
-13.61
-2.82
5.34
10.83
14.45
16.87
17.89
16.33
10.54
-0.58
-16.91
-36.91
-58.19
-78.17
-94.66
-106.10
-111.56
-110.73
-103.87
-91.84
-75.98
-57.80
-38.72
-19.91
-2.31
13.28
26.18
35.98
42.61
46.46
48.27
48.88
49.06
49.36
50.16
51.62
53.77
56.39
59.05
61.26
62.60
62.83
61.90
59.89
56.89
53.10
48.89
44.89
41.76
40.04
39.86
40.98
42.86
44.89
46.48
47.01
45.80
42.21
35.95
27.29
17.09
6.58
-3.22
-11.81
-19.25
-25.79
-31.43
-35.71
-37.95
-37.82
-35.80
-33.34
-32.26
-33.97
-38.61
-44.82
-50.18
-52.30
-49.89
-43.29
-34.33
-25.37
-18.41
-14.31
-12.88
-13.42
-15.38
-18.73
-23.79
-30.78
-39.26
-48.09
-55.59
-60.14
-60.74
-57.19
-50.12
-40.74
-30.67
-21.74
-15.81
-14.52
-18.82
-28.38
-41.19
-53.76
-61.85
-61.49
-50.23
-27.86
3.47
39.64
75.47
105.87
126.99
137.10
136.98
129.45
118.51
108.05
100.87
98.24
100.10
105.43
112.83
120.63
127.05
130.41
129.46
123.84
114.26
102.26
89.57
77.46
66.46
56.60
48.00
41.25
37.34
37.12
40.60
46.64
53.31
58.79
62.33
64.43
66.43
69.38
73.13
75.96
75.14
68.09
53.58
32.33
6.79
-19.80
-44.45
-65.20
-81.23
-92.56
-99.69
-103.39
-104.68
-104.79
-104.89
-105.63
-106.75
-107.04
-104.85
-98.86
-88.78
-75.44
-60.27
-44.52
-28.77
-12.90
3.47
20.53
37.98
55.06
70.65
83.35
91.60
93.95
89.52
78.65
63.12
45.94
30.36
18.79
11.99
8.90
7.32
4.88
-0.09
-8.12
-18.62
-30.19
-40.92
-48.68
-51.55
-48.19
-38.42
-23.40
-5.57
12.10
26.99
37.70
44.28
47.86
49.80
50.86
50.81
48.71
43.63
35.33
24.61
13.04
2.35
-6.21
-12.25
-16.21
-19.04
-21.84
-25.56
-30.94
-38.39
-48.03
-59.58
-72.26
-84.62
-94.60
-99.80
-98.02
-88.04
-70.23
-46.69
-20.76
3.98
24.71
40.16
50.53
56.93
60.65
62.55
62.97
61.95
59.62
56.35
52.66
48.98
45.46
41.91
38.05
33.68
28.90
24.06
19.60
15.71
12.15
8.22
2.92
-4.48
-13.96
-24.32
-33.19
-37.67
-35.23
-24.77
-7.16
15.00
38.23
59.46
76.97
90.69
101.69
111.30
120.20
128.22
134.61
138.75
140.74
141.60
143.06
147.02
155.19
168.78
188.22
212.79
240.22
266.71
287.59
298.48
296.69
282.07
256.85
224.50
188.31
150.24
110.87
70.08
28.20
-13.41
-52.41
-86.23
-112.88
-131.54
-142.58
-147.26
-147.32
-144.71
-141.46
-139.50
-140.58
-145.90
-155.82
-169.73
-186.16
-203.15
-218.83
-231.85
-241.59
-248.13
-251.88
-253.09
-251.31
-245.05
-231.90
-209.24
-175.36
-130.56
-77.80
-22.21
30.15
73.85
105.61
124.97
133.99
136.08
134.71
132.34
130.19
128.68
127.93
128.15
129.43
131.12
131.52
127.99
117.83
99.47
73.47
42.50
10.47
-18.88
-43.28
-62.30
-76.85
-88.28
-97.56
-104.96
-110.35
-113.64
-115.30
-116.33
-117.88
-120.75
-124.89
-129.42
-132.93
-134.22
-132.80
-129.20
-124.71
-120.75
-118.20
-116.86
-115.43
-111.92
-104.52
-92.36
-76.14
-57.99
-40.87
-27.65
-20.26
-19.12
-23.25
-30.85
-39.97
-49.17
-57.71
-65.35
-72.15
-78.45
-85.01
-93.06
-103.91
-117.76
-132.55
-143.49
-144.21
-129.34
-97.36
-52.07
-1.77
43.74
76.77
94.00
96.59
88.45
74.18
57.90
43.36
34.52
35.32
48.30
72.70
103.38
131.83
149.02
148.95
131.17
100.64
65.72
34.81
13.41
2.97
1.40
4.78
9.37
12.86
14.66
15.24
15.26
14.84
13.43
10.32
5.35
-0.62
-5.77
-8.13
-6.53
-1.19
6.26
13.56
18.93
21.77
22.74
23.12
23.96
25.47
27.00
27.46
26.08
22.84
18.57
14.49
11.65
10.39
10.24
10.20
9.23
6.81
3.15
-1.04
-4.87
-7.74
-9.43
-10.01
-9.61
-8.25
-5.91
-2.75
0.78
3.94
5.99
6.55
5.71
3.97
1.92
-0.07
-1.91
-3.76
-5.70
-7.61
-9.15
-9.92
-9.72
-8.76
-7.58
-6.87
-7.08
-8.23
-9.87
-11.27
-11.74
-10.97
-9.19
-6.98
-5.11
-4.17
-4.44
-5.85
-8.26
-11.53
-15.78
-21.33
-28.57
-37.66
-48.35
-59.82
-70.77
-79.69
-85.25
-86.77
-84.49
-79.69
-74.62
-72.07
-74.85
-85.12
-103.70
-129.58
-159.93
-190.61
-217.14
-236.13
-246.40
-249.55
-249.34
-250.11
-254.85
-263.67
-273.63
-279.88
-277.63
-263.91
-238.36
-202.78
-159.89
-112.03
-60.48
-5.60
52.44
112.94
174.27
234.14
290.47
342.21
389.63
433.62
474.42
510.15
536.60
548.29
540.76
512.76
467.19
410.23
349.03
289.31
233.99
183.33
135.95
89.95
43.41
-5.57
-58.43
-115.20
-173.36
-227.21
-268.85
-290.47
-286.92
-257.45
-205.77
-138.69
-64.40
8.93
74.09
125.54
160.32
178.72
184.34
183.09
181.08
182.53
188.51
197.25
205.34
209.27
206.17
193.79
170.10
133.58
84.33
25.40
-36.48
-91.52
-129.10
-140.73
-123.09
-79.42
-19.19
44.34
97.78
130.95
138.80
121.49
83.04
29.29
-33.50
-99.36
-162.47
-217.20
-258.57
-283.19
-290.31
-282.24
-263.83
-240.94
-218.85
-200.99
-188.45
-180.29
-174.32
-168.10
-159.80
-148.75
-135.37
-120.82
-106.24
-92.31
-79.04
-66.13
-53.51
-41.68
-31.65
-24.51
-20.85
-20.23
-21.28
-22.06
-20.76
-16.34
-8.87
0.56
10.32
18.88
25.30
29.50
32.01
33.67
35.08
36.39
37.34
37.43
36.27
33.70
29.89
25.17
19.93
14.48
9.06
3.80
-1.24
-6.05
-10.77
-15.60
-20.94
-27.13
-34.30
-42.07
-49.32
-54.40
-55.48
-51.23
-41.37
-26.82
-9.58
7.92
23.52
35.89
44.66
50.26
53.48
55.05
55.42
54.77
53.20
50.94
48.43
46.30
45.12
45.16
46.27
47.94
49.47
50.25
49.91
48.39
45.90
42.78
39.39
35.92
32.33
28.39
23.82
18.49
12.54
6.42
0.67
-4.32
-8.52
-12.33
-16.38
-21.29
-27.52
-35.20
-44.12
-53.68
-62.83
-70.05
-73.53
-71.60
-63.33
-49.02
-30.30
-9.78
9.78
26.18
38.37
46.41
51.02
53.03
52.94
50.91
47.02
41.62
35.50
29.73
25.36
22.96
22.48
23.30
24.60
25.62
25.96
25.57
24.60
23.32
21.83
20.13
18.06
15.41
12.01
7.83
3.05
-2.04
-7.07
-11.80
-16.20
-20.38
-24.58
-29.00
-33.86
-39.39
-45.93
-53.76
-62.80
-72.26
-80.45
-85.07
-83.83
-75.42
-60.07
-39.67
-17.21
4.18
22.13
35.55
44.47
49.61
51.82
51.75
49.77
46.24
41.73
36.99
32.89
30.13
28.94
29.11
30.05
31.12
31.95
32.48
32.97
33.67
34.56
35.22
34.97
33.16
29.54
24.32
18.18
11.86
5.97
0.75
-3.82
-8.02
-12.12
-16.43
-21.27
-27.04
-34.20
-43.09
-53.66
-65.12
-75.87
-83.63
-86.04
-81.38
-69.23
-50.79
-28.53
-5.51
15.49
32.69
45.42
53.95
58.95
61.10
60.92
58.80
55.21
50.78
46.32
42.64
40.34
39.61
40.13
41.26
42.26
42.59
42.03
40.72
38.89
36.72
34.11
30.78
26.41
20.86
14.31
7.21
0.16
-6.26
-11.73
-16.16
-19.79
-23.00
-26.23
-29.84
-34.07
-39.01
-44.62
-50.59
-56.25
-60.54
-62.03
-59.43
-52.00
-39.99
-24.70
-8.10
7.77
21.34
31.85
39.18
43.59
45.34
44.76
42.22
38.38
34.15
30.50
28.13
27.20
27.45
28.32
29.33
30.32
31.42
32.83
34.65
36.65
38.40
39.34
38.97
36.94
33.07
27.41
20.15
11.57
2.03
-8.22
-19.09
-30.61
-42.76
-55.17
-66.85
-76.19
-81.24
-80.33
-72.65
-58.74
-40.36
-20.12
-0.62
16.10
28.97
37.85
43.17
45.53
45.50
43.50
40.03
35.65
31.00
26.67
23.00
20.08
17.78
15.89
14.32
13.10
12.26
11.67
11.03
9.85
7.65
4.18
-0.49
-5.97
-11.72
-17.30
-22.41
-27.08
-31.55
-36.28
-41.77
-48.47
-56.40
-64.89
-72.46
-77.02
-76.35
-69.01
-54.93
-35.67
-13.96
7.12
25.18
39.04
48.71
54.92
58.43
59.64
58.65
55.53
50.67
44.92
39.31
34.75
31.64
29.79
28.67
27.74
26.65
25.34
23.86
22.12
19.81
16.43
11.59
5.19
-2.42
-10.65
-18.84
-26.67
-34.14
-41.66
-49.74
-58.74
-68.66
-78.92
-88.28
-94.97
-96.98
-92.66
-81.34
-63.75
-41.99
-19.08
1.95
18.87
30.71
37.74
40.94
41.50
40.32
37.90
34.59
30.72
26.75
23.18
20.41
18.54
17.42
16.74
16.25
15.88
15.67
15.67
15.72
15.42
14.30
11.97
8.37
3.86
-0.94
-5.39
-9.21
-12.53
-15.98
-20.41
-26.57
-34.73
-44.34
-54.01
-61.68
-65.14
-62.69
-53.77
-39.19
-21.05
-2.04
15.24
28.98
38.39
43.61
45.32
44.34
41.38
37.02
31.83
26.37
21.20
16.82
13.47
11.17
9.73
8.88
8.32
7.80
7.03
5.63
3.24
-0.46
-5.60
-11.97
-19.01
-25.91
-31.87
-36.33
-39.26
-41.17
-43.06
-46.02
-50.80
-57.38
-64.73
-70.97
-73.88
-71.62
-63.35
-49.55
-31.83
-12.50
6.15
22.35
35.12
44.13
49.55
51.77
51.24
48.58
44.53
39.95
35.67
32.31
30.14
29.02
28.52
28.15
27.54
26.55
25.19
23.51
21.44
18.79
15.33
10.92
5.72
0.09
-5.43
-10.44
-14.80
-18.81
-23.13
-28.66
-36.15
-45.82
-56.98
-67.90
-76.03
-78.79
-74.39
-62.60
-44.91
-24.04
-3.08
15.51
30.36
41.21
48.44
52.58
54.03
53.08
50.12
45.84
41.23
37.36
34.99
34.36
35.03
36.11
36.63
35.95
34.03
31.39
28.75
26.62
24.94
23.08
20.23
15.83
9.90
3.07
-3.66
-9.48
-14.00
-17.47
-20.61
-24.33
-29.50
-36.65
-45.89
-56.70
-67.89
-77.57
-83.46
-83.52
-76.54
-62.79
-44.01
-22.96
-2.54
15.05
28.80
38.81
45.77
50.36
52.92
53.54
52.30
49.57
46.14
42.98
40.83
40.04
40.36
41.23
42.05
42.49
42.51
42.26
41.84
41.13
39.85
37.67
34.42
30.18
25.24
19.95
14.54
9.11
3.60
-2.00
-7.64
-13.14
-18.35
-23.18
-27.81
-32.69
-38.49
-45.85
-55.05
-65.66
-76.27
-84.63
-88.23
-85.10
-74.56
-57.60
-36.63
-14.69
5.41
21.85
33.93
41.94
46.55
48.49
48.30
46.38
43.12
39.08
34.96
31.44
29.11
28.24
28.74
30.27
32.27
34.20
35.60
36.20
35.94
34.89
33.20
30.98
28.32
25.23
21.67
17.65
13.21
8.49
3.76
-0.66
-4.37
-7.08
-8.69
-9.50
-10.18
-11.72
-15.06
-20.65
-28.15
-36.20
-42.64
-45.07
-41.55
-31.19
-14.50
6.72
29.97
52.75
73.26
90.73
105.26
117.36
127.35
135.02
139.79
141.22
139.61
136.34
133.74
134.30
139.70
150.03
163.62
177.63
189.09
195.94
197.56
194.52
187.92
178.60
166.83
152.44
135.44
116.57
97.30
79.46
64.42
52.41
42.45
32.83
21.84
8.64
-6.45
-22.13
-36.76
-48.99
-58.26
-65.07
-70.81
-77.83
-89.42
-109.47
-141.63
-187.63
-245.67
-309.62
-370.09
-417.00
-442.92
-445.50
-427.87
-396.94
-360.41
-324.26
-291.48
-262.54
-236.79
-213.64
-193.01
-174.87
-158.66
-143.04
-126.31
-107.22
-85.69
-63.02
-41.44
-23.16
-9.47
-0.28
5.69
10.15
14.44
19.01
23.44
26.85
28.49
28.11
25.97
22.59
18.42
13.49
7.51
0.16
-8.37
-17.12
-24.25
-27.56
-25.24
-16.61
-2.40
15.34
34.00
51.16
65.20
75.53
82.37
86.24
87.69
87.05
84.55
80.45
75.25
69.67
64.56
60.68
58.46
57.84
58.37
59.31
59.93
59.68
58.38
56.22
53.55
50.78
48.07
45.29
41.97
37.51
31.49
23.98
15.62
7.49
0.70
-4.10
-7.05
-9.09
-11.58
-15.77
-22.24
-30.70
-39.99
-48.44
-54.29
-56.08
-52.97
-44.82
-32.18
-16.01
2.52
22.33
42.41
61.83
79.53
94.30
105.01
110.95
112.11
109.39
104.64
100.69
101.07
109.41
128.24
157.61
194.00
230.55
258.92
272.32
268.26
249.59
222.95
195.62
172.22
153.27
136.20
117.78
96.60
73.95
52.89
36.26
25.13
18.40
13.59
8.26
0.92
-8.77
-20.46
-33.69
-48.26
-64.05
-80.86
-97.95
-113.95
-127.02
-135.30
-137.41
-133.03
-123.14
-109.89
-96.04
-84.18
-75.94
-71.73
-70.77
-71.59
-72.66
-72.81
-71.49
-68.88
-65.81
-63.47
-63.08
-65.47
-70.68
-77.94
-85.95
-93.42
-99.51
-104.10
-107.67
-111.08
-115.37
-121.65
-130.53
-141.26
-151.03
-155.07
-148.25
-127.23
-92.65
-49.46
-5.39
31.89
57.39
69.92
71.30
64.75
53.42
39.85
26.27
14.95
8.18
7.64
13.67
25.06
39.35
53.57
64.87
71.03
70.83
64.22
52.32
37.22
21.67
8.21
-1.39
-6.77
-8.91
-9.74
-11.37
-15.15
-21.23
-28.51
-35.36
-40.44
-43.39
-44.94
-46.44
-49.06
-53.12
-57.84
-61.59
-62.54
-59.33
-51.41
-39.14
-23.45
-5.38
14.38
35.69
58.81
83.80
109.96
135.29
156.69
170.61
174.01
165.41
145.23
115.71
80.25
42.65
6.32
-26.20
-53.23
-73.90
-87.82
-94.90
-95.34
-89.71
-79.19
-65.65
-51.34
-38.47
-28.67
-22.66
-20.30
-20.89
-23.66
-28.07
-33.91
-41.16
-49.77
-59.56
-70.15
-81.03
-91.64
-101.36
-109.58
-115.56
-118.39
-116.92
-109.96
-96.56
-76.63
-51.28
-22.94
5.15
29.79
48.77
61.31
68.14
70.85
71.12
70.11
68.32
65.79
62.49
58.72
55.05
52.17
50.38
49.23
47.44
43.34
35.48
23.38
7.91
-8.91
-24.71
-37.68
-47.26
-54.05
-59.06
-62.74
-64.36
-62.28
-54.90
-41.95
-25.02
-7.23
8.03
18.51
23.95
25.85
26.49
27.66
30.06
33.39
37.06
40.75
44.65
49.11
54.17
59.27
63.44
65.76
65.78
63.61
59.70
54.55
48.44
41.56
34.19
26.81
20.08
14.59
10.52
7.65
5.39
3.05
0.09
-3.71
-8.31
-13.39
-18.46
-22.92
-26.25
-28.11
-28.50
-27.72
-26.27
-24.57
-22.83
-21.00
-18.89
-16.38
-13.50
-10.46
-7.52
-4.87
-2.58
-0.72
0.68
1.45
1.41
0.39
-1.63
-4.56
-8.17
-12.26
-16.64
-21.11
-25.35
-28.86
-31.01
-31.19
-28.97
-24.38
-17.89
-10.36
-2.80
3.89
9.15
12.76
14.84
15.64
15.39
14.35
12.75
10.84
8.92
7.31
6.23
5.71
5.61
5.55
5.09
3.97
2.12
-0.18
-2.57
-4.71
-6.56
-8.41
-10.78
-14.18
-18.78
-24.31
-30.01
-34.86
-37.88
-38.34
-35.93
-30.82
-23.60
-15.15
-6.52
1.32
7.61
11.95
14.30
14.90
14.16
12.54
10.48
8.32
6.35
4.75
3.65
2.98
2.62
2.36
2.02
1.50
0.80
0.02
-0.77
-1.59
-2.56
-3.89
-5.83
-8.56
-12.17
-16.51
-21.18
-25.47
-28.48
-29.25
-27.13
-21.98
-14.40
-5.50
3.29
10.80
16.33
19.74
21.30
21.43
20.40
18.41
15.63
12.40
9.22
6.67
5.15
4.75
5.16
5.89
6.47
6.64
6.43
5.98
5.38
4.60
3.44
1.64
-1.06
-4.73
-9.29
-14.34
-19.27
-23.26
-25.45
-25.18
-22.19
-16.72
-9.55
-1.78
5.48
11.32
15.22
17.05
17.02
15.52
13.02
9.94
6.71
3.70
1.25
-0.40
-1.11
-1.00
-0.38
0.38
0.87
0.91
0.50
-0.20
-1.07
-2.09
-3.47
-5.53
-8.64
-12.93
-18.26
-24.06
-29.41
-33.18
-34.35
-32.16
-26.54
-18.04
-7.89
2.43
11.52
18.46
22.94
25.17
25.64
24.75
22.72
19.66
15.78
11.54
7.62
4.73
3.22
2.98
3.39
3.71
3.34
2.15
0.46
-1.25
-2.55
-3.37
-4.04
-5.13
-7.18
-10.47
-14.84
-19.71
-24.09
-26.91
-27.20
-24.42
-18.60
-10.37
-0.81
8.77
17.22
23.67
27.72
29.37
28.88
26.70
23.36
19.43
15.41
11.71
8.61
6.24
4.59
3.57
2.97
2.54
1.94
0.89
-0.73
-2.77
-4.86
-6.58
-7.73
-8.51
-9.49
-11.34
-14.48
-18.81
-23.65
-27.93
-30.51
-30.45
-27.32
-21.25
-12.94
-3.51
5.80
13.82
19.77
23.36
24.70
24.21
22.37
19.59
16.26
12.74
9.45
6.81
5.12
4.50
4.77
5.53
6.30
6.74
6.66
6.12
5.29
4.33
3.25
1.96
0.30
-1.87
-4.58
-7.80
-11.48
-15.58
-19.89
-24.00
-27.12
-28.26
-26.55
-21.57
-13.69
-4.05
5.84
14.49
20.95
24.86
26.39
25.97
24.04
20.90
16.86
12.30
7.81
4.10
1.81
1.31
2.44
4.61
6.92
8.56
9.01
8.24
6.62
4.65
2.73
0.97
-0.76
-2.77
-5.25
-8.35
-12.07
-16.26
-20.62
-24.59
-27.25
-27.61
-24.82
-18.64
-9.67
0.73
10.80
19.01
24.45
27.00
27.09
25.45
22.66
19.10
15.06
10.83
6.86
3.70
1.80
1.31
2.00
3.26
4.39
4.80
4.23
2.82
0.99
-0.79
-2.21
-3.24
-4.13
-5.33
-7.32
-10.45
-14.84
-20.23
-25.96
-30.96
-34.02
-33.96
-30.15
-22.74
-12.71
-1.64
8.71
16.97
22.38
24.97
25.28
24.07
22.02
19.57
16.97
14.32
11.76
9.50
7.77
6.74
6.48
6.82
7.42
7.92
7.92
7.22
5.83
3.94
1.79
-0.34
-2.37
-4.30
-6.25
-8.45
-11.12
-14.47
-18.54
-23.23
-28.06
-32.16
-34.42
-33.70
-29.29
-21.20
-10.35
1.69
13.08
22.29
28.45
31.45
31.77
30.21
27.54
24.37
21.14
18.10
15.45
13.27
11.59
10.39
9.60
9.13
8.88
8.70
8.39
7.72
6.54
4.71
2.28
-0.68
-3.94
-7.26
-10.38
-13.04
-15.10
-16.65
-18.01
-19.75
-22.42
-26.30
-31.08
-35.77
-38.89
-38.97
-35.07
-27.20
-16.37
-4.31
7.11
16.40
22.74
26.10
26.87
25.70
23.19
19.94
16.47
13.30
10.82
9.25
8.52
8.34
8.36
8.28
8.05
7.71
7.41
7.15
6.77
6.01
4.60
2.50
-0.09
-2.74
-5.02
-6.65
-7.64
-8.31
-9.23
-10.96
-13.93
-18.20
-23.35
-28.46
-32.28
-33.50
-31.11
-24.87
-15.38
-4.09
7.14
16.57
23.05
26.25
26.58
24.89
22.08
18.86
15.62
12.56
9.81
7.57
6.06
5.49
5.90
7.13
8.79
10.42
11.56
11.95
11.48
10.23
8.35
6.06
3.49
0.81
-1.89
-4.53
-7.06
-9.58
-12.31
-15.52
-19.47
-24.06
-28.76
-32.48
-33.92
-31.93
-26.06
-16.88
-5.82
5.20
14.38
20.66
23.79
24.27
22.89
20.43
17.44
14.23
11.07
8.21
5.96
4.54
4.04
4.37
5.30
6.48
7.52
8.09
7.90
6.81
4.93
2.56
0.08
-2.24
-4.28
-6.16
-8.14
-10.42
-13.14
-16.33
-20.01
-24.17
-28.65
-32.88
-35.90
-36.46
-33.51
-26.65
-16.54
-4.76
6.66
15.94
22.07
25.00
25.39
24.16
22.12
19.80
17.40
15.13
13.21
11.90
11.35
11.51
12.04
12.51
12.49
11.90
10.86
9.71
8.64
7.63
6.41
4.65
2.14
-0.97
-4.26
-7.27
-9.69
-11.52
-13.09
-14.87
-17.36
-20.89
-25.44
-30.52
-35.13
-37.95
-37.67
-33.52
-25.60
-14.98
-3.38
7.41
16.07
22.02
25.35
26.55
26.11
24.44
21.79
18.47
14.91
11.63
9.11
7.62
7.13
7.33
7.79
8.12
8.13
7.85
7.48
7.24
7.20
7.22
6.94
5.99
4.14
1.46
-1.70
-4.83
-7.48
-9.40
-10.71
-11.74
-13.01
-14.98
-18.04
-22.30
-27.58
-33.21
-38.09
-40.81
-40.11
-35.34
-26.80
-15.71
-3.92
6.74
15.02
20.43
23.21
23.89
23.03
20.99
17.96
14.23
10.22
6.58
3.92
2.66
2.76
3.76
4.93
5.56
5.26
4.03
2.26
0.52
-0.73
-1.34
-1.45
-1.42
-1.58
-2.10
-2.93
-3.85
-4.65
-5.17
-5.42
-5.58
-5.89
-6.72
-8.42
-11.30
-15.45
-20.55
-25.80
-29.86
-31.28
-28.88
-22.28
-12.11
0.10
12.39
22.92
30.56
35.00
36.62
36.13
34.17
31.17
27.45
23.40
19.62
16.81
15.50
15.74
17.10
18.75
19.92
20.20
19.66
18.75
17.86
17.10
16.18
14.64
12.11
8.61
4.59
0.69
-2.48
-4.64
-5.89
-6.74
-7.88
-10.01
-13.61
-18.75
-24.99
-31.30
-36.30
-38.57
-37.03
-31.36
-22.11
-10.62
1.36
12.13
20.54
26.05
28.78
29.28
28.19
26.12
23.50
20.64
17.84
15.43
13.71
12.80
12.59
12.77
12.95
12.84
12.42
11.82
11.22
10.64
9.83
8.37
5.85
2.14
-2.49
-7.41
-11.87
-15.30
-17.54
-18.86
-19.89
-21.37
-23.90
-27.82
-33.02
-38.85
-44.13
-47.38
-47.18
-42.66
-33.93
-22.14
-9.25
2.61
11.78
17.54
20.11
20.38
19.45
18.16
16.99
16.00
15.11
14.18
13.24
12.42
11.87
11.70
11.86
12.19
12.45
12.48
12.23
11.79
11.26
10.66
9.91
8.81
7.16
4.95
2.40
-0.13
-2.23
-3.78
-4.96
-6.24
-8.24
-11.44
-15.94
-21.37
-26.88
-31.33
-33.52
-32.50
-27.83
-19.85
-9.60
1.42
11.62
19.78
25.31
28.21
28.90
27.89
25.67
22.61
19.06
15.44
12.25
9.94
8.71
8.52
9.02
9.80
10.46
10.84
10.89
10.68
10.25
9.60
8.70
7.49
5.96
4.13
1.95
-0.71
-3.97
-7.90
-12.32
-16.81
-20.74
-23.46
-24.51
-23.66
-20.86
-16.10
-9.34
-0.59
10.06
22.26
35.41
48.87
62.07
74.53
85.73
94.81
100.45
101.17
95.85
84.43
68.13
49.18
30.09
12.77
-1.98
-14.37
-25.13
-34.82
-43.59
-51.10
-57.01
-61.25
-64.00
-65.47
-65.62
-64.11
-60.61
-55.17
-48.50
-41.74
-36.07
-32.06
-29.40
-27.07
-23.82
-18.70
-11.48
-2.57
7.24
17.07
26.16
33.82
39.31
41.76
40.36
34.57
24.40
10.68
-5.09
-21.00
-35.19
-46.28
-53.61
-57.23
-57.67
-55.55
-51.45
-45.83
-39.20
-32.21
-25.66
-20.39
-16.92
-15.32
-15.17
-15.75
-16.31
-16.40
-15.93
-15.20
-14.68
-14.88
-16.14
-18.61
-22.06
-25.96
-29.42
-31.33
-30.65
-26.59
-19.05
-8.64
3.25
14.95
24.91
32.15
36.50
38.43
38.65
37.82
36.18
33.82
30.78
27.39
24.21
21.85
20.64
20.51
20.99
21.51
21.69
21.44
20.97
20.46
19.91
19.05
17.52
15.06
11.78
8.11
4.64
1.88
-0.06
-1.48
-3.01
-5.38
-9.10
-14.29
-20.53
-27.01
-32.58
-36.05
-36.43
-33.23
-26.64
-17.57
-7.40
2.35
10.46
16.23
19.61
20.93
20.78
19.71
18.12
16.32
14.56
13.04
11.97
11.48
11.57
12.04
12.55
12.74
12.37
11.44
10.18
8.92
7.92
7.12
6.20
4.75
2.47
-0.50
-3.72
-6.64
-8.88
-10.41
-11.55
-12.80
-14.57
-17.18
-20.68
-24.91
-29.47
-33.62
-36.31
-36.38
-33.04
-26.15
-16.49
-5.53
5.02
13.78
19.98
23.57
24.94
24.58
22.94
20.35
17.17
13.85
10.94
8.88
7.89
7.86
8.42
9.15
9.70
10.01
10.21
10.49
10.87
11.16
10.95
9.82
7.56
4.40
0.88
-2.33
-4.75
-6.30
-7.39
-8.66
-10.77
-14.03
-18.33
-23.16
-27.72
-31.13
-32.53
-31.24
-26.90
-19.65
-10.15
0.35
10.36
18.52
23.91
26.34
26.28
24.57
22.09
19.45
16.95
14.69
12.67
11.01
9.81
9.16
9.01
9.19
9.50
9.74
9.81
9.64
9.17
8.26
6.81
4.80
2.33
-0.38
-3.04
-5.51
-7.79
-10.11
-12.84
-16.34
-20.79
-25.98
-31.32
-35.80
-38.27
-37.69
-33.56
-26.11
-16.30
-5.60
4.39
12.41
17.77
20.42
20.87
19.83
18.04
16.00
14.02
12.29
10.93
10.01
9.51
9.38
9.45
9.59
9.70
9.73
9.64
9.33
8.67
7.44
5.57
3.10
0.26
-2.61
-5.24
-7.47
-9.36
-11.17
-13.36
-16.46
-20.89
-26.80
-33.78
-40.78
-46.22
-48.45
-46.26
-39.38
-28.68
-15.86
-2.99
8.23
16.84
22.74
26.39
28.44
29.39
29.52
29.00
28.01
26.84
25.74
24.89
24.16
23.27
21.91
19.92
17.36
14.47
11.48
8.47
5.36
1.93
-1.97
-6.29
-10.84
-15.26
-19.17
-22.29
-24.46
-25.64
-26.01
-25.98
-26.10
-26.97
-28.96
-32.00
-35.39
-37.94
-38.25
-35.28
-28.67
-18.98
-7.58
3.83
13.68
20.98
25.46
27.42
27.52
26.35
24.39
21.95
19.27
16.64
14.38
12.81
12.07
12.11
12.71
13.51
14.19
14.58
14.68
14.57
14.29
13.74
12.71
10.89
8.10
4.42
0.22
-3.99
-7.69
-10.64
-12.88
-14.79
-16.93
-19.85
-23.81
-28.65
-33.64
-37.58
-39.12
-37.21
-31.53
-22.68
-11.97
-1.03
8.69
16.34
21.66
24.82
26.14
25.89
24.31
21.69
18.52
15.42
13.01
11.65
11.42
12.08
13.26
14.61
15.88
16.88
17.43
17.38
16.54
14.85
12.37
9.34
6.16
3.15
0.56
-1.59
-3.45
-5.38
-7.79
-11.11
-15.60
-21.20
-27.43
-33.30
-37.46
-38.59
-35.85
-29.21
-19.51
-8.28
2.80
12.33
19.58
24.45
27.24
28.42
28.34
27.20
25.17
22.53
19.71
17.21
15.51
14.81
15.08
16.00
17.14
18.13
18.78
19.07
19.09
18.84
18.18
16.81
14.42
10.97
6.77
2.52
-1.00
-3.34
-4.61
-5.62
-7.53
-11.43
-17.79
-26.28
-35.79
-44.75
-51.52
-54.75
-53.63
-48.08
-38.80
-27.13
-14.79
-3.44
5.72
12.20
16.21
18.31
19.12
19.04
18.26
16.91
15.25
13.75
12.86
12.94
13.99
15.71
17.57
19.02
19.70
19.54
18.69
17.37
15.83
14.18
12.43
10.49
8.24
5.60
2.54
-0.82
-4.22
-7.30
-9.70
-11.20
-11.88
-12.20
-12.87
-14.61
-17.94
-22.93
-29.12
-35.59
-41.13
-44.49
-44.55
-40.71
-32.99
-22.15
-9.64
2.80
13.57
21.60
26.55
28.73
28.87
27.75
26.03
24.10
22.18
20.36
18.80
17.63
17.01
17.00
17.54
18.42
19.35
20.01
20.24
19.91
19.04
17.65
15.73
13.33
10.53
7.48
4.41
1.60
-0.80
-2.82
-4.61
-6.52
-8.76
-11.40
-14.31
-17.15
-19.63
-21.62
-23.32
-25.22
-27.92
-31.87
-37.08
-42.91
-48.13
-51.16
-50.56
-45.57
-36.39
-24.28
-11.12
1.13
11.01
17.92
22.03
23.96
24.35
23.66
22.17
20.21
18.35
17.26
17.53
19.28
22.08
25.03
27.28
28.43
28.73
28.85
29.41
30.61
32.08
33.19
33.41
32.76
31.65
30.65
30.07
29.79
29.35
28.32
26.55
24.35
22.23
20.60
19.46
18.28
16.25
12.54
6.71
-1.19
-10.57
-20.42
-29.61
-36.96
-41.43
-42.36
-39.58
-33.55
-25.36
-16.47
-8.34
-2.03
2.00
3.91
4.23
3.56
2.44
1.30
0.50
0.35
1.13
2.86
5.33
8.04
10.41
12.02
12.67
12.51
11.92
11.30
10.95
11.02
11.49
12.18
12.87
13.26
13.05
11.98
9.96
7.03
3.42
-0.57
-4.72
-8.99
-13.52
-18.46
-23.78
-29.10
-33.70
-36.62
-37.07
-34.64
-29.49
-22.27
-13.96
-5.63
1.79
7.69
11.78
14.11
14.93
14.55
13.37
11.71
9.86
8.16
6.89
6.26
6.31
6.86
7.57
8.06
8.12
7.76
7.26
6.94
7.06
7.65
8.45
9.01
8.89
7.78
5.65
2.76
-0.44
-3.45
-5.91
-7.64
-8.76
-9.56
-10.46
-11.84
-13.95
-16.79
-20.12
-23.43
-26.05
-27.35
-26.80
-24.22
-19.73
-13.79
-7.06
-0.33
5.59
10.10
12.84
13.83
13.38
12.02
10.36
8.84
7.64
6.76
5.99
5.19
4.26
3.30
2.49
1.99
1.84
1.95
2.08
1.98
1.48
0.58
-0.56
-1.76
-2.87
-3.90
-4.91
-6.01
-7.17
-8.27
-9.17
-9.78
-10.17
-10.56
-11.26
-12.53
-14.49
-17.12
-20.17
-23.30
-26.12
-28.19
-29.12
-28.62
-26.53
-22.93
-18.08
-12.40
-6.52
-0.97
3.73
7.34
9.79
11.25
11.92
12.05
11.79
11.24
10.50
9.72
9.07
8.74
8.85
9.35
10.08
10.75
11.06
10.82
10.00
8.74
7.29
5.91
4.77
3.87
3.07
2.15
0.97
-0.51
-2.14
-3.71
-5.07
-6.20
-7.23
-8.48
-10.25
-12.73
-15.89
-19.41
-22.71
-25.09
-25.88
-24.61
-21.21
-15.96
-9.55
-2.88
3.13
7.65
10.17
10.54
9.04
6.24
2.82
-0.59
-3.60
-6.11
-8.20
-9.98
-11.48
-12.64
-13.41
-13.86
-14.19
-14.71
-15.60
-16.93
-18.61
-20.46
-22.41
-24.50
-26.84
-29.44
-32.19
-34.83
-37.08
-38.86
-40.34
-41.92
-43.99
-46.66
-49.65
-52.20
-53.37
-52.25
-48.29
-41.42
-32.02
-20.85
-8.86
2.94
13.66
22.66
29.58
34.45
37.51
39.14
39.73
39.61
39.07
38.40
37.96
38.12
39.11
40.95
43.35
45.75
47.56
48.28
47.72
45.94
43.20
39.77
35.87
31.69
27.36
23.12
19.23
16.02
13.65
12.10
11.07
10.03
8.39
5.63
1.45
-4.11
-10.62
-17.33
-23.27
-27.52
-29.36
-28.60
-25.61
-21.24
-16.57
-12.60
-10.03
-9.12
-9.77
-11.65
-14.49
-18.01
-22.01
-26.28
-30.51
-34.27
-37.16
-38.95
-39.64
-39.54
-39.14
-38.88
-38.91
-38.99
-38.52
-36.84
-33.47
-28.30
-21.71
-14.41
-7.14
-0.44
5.53
10.96
16.26
21.71
27.28
32.49
36.61
38.93
39.13
37.54
35.09
33.19
33.38
37.03
45.05
57.58
73.82
91.99
109.56
123.70
131.97
132.84
126.10
112.65
94.25
72.96
50.76
29.33
10.00
-6.24
-18.91
-28.02
-34.16
-38.28
-41.40
-44.16
-46.67
-48.57
-49.39
-48.94
-47.51
-45.86
-44.83
-45.05
-46.59
-49.09
-51.91
-54.53
-56.73
-58.52
-60.08
-61.46
-62.52
-62.96
-62.46
-60.89
-58.35
-55.02
-51.07
-46.45
-40.92
-34.11
-25.82
-16.18
-5.82
4.38
13.43
20.62
25.63
28.50
29.54
29.10
27.45
24.91
21.84
18.75
16.24
14.82
14.76
15.99
18.16
20.81
23.45
25.71
27.33
28.09
27.89
26.69
24.58
21.79
18.65
15.52
12.75
10.58
9.05
7.93
6.77
5.05
2.31
-1.61
-6.42
-11.52
-16.07
-19.24
-20.45
-19.51
-16.61
-12.35
-7.48
-2.77
1.19
4.07
5.74
6.22
5.50
3.67
0.81
-2.77
-6.58
-10.09
-12.88
-14.76
-15.90
-16.62
-17.26
-18.05
-19.05
-20.25
-21.57
-23.02
-24.64
-26.45
-28.37
-30.22
-31.77
-32.83
-33.38
-33.53
-33.54
-33.71
-34.32
-35.59
-37.62
-40.33
-43.42
-46.17
-47.52
-46.31
-41.63
-33.22
-21.70
-8.43
4.86
16.66
26.08
32.89
37.44
40.27
41.80
42.25
41.68
40.20
38.07
35.71
33.58
31.99
30.98
30.37
29.84
29.17
28.26
27.17
25.98
24.72
23.32
21.61
19.40
16.60
13.31
9.80
6.45
3.56
1.23
-0.75
-2.91
-5.84
-9.96
-15.24
-21.13
-26.55
-30.21
-30.99
-28.18
-21.87
-12.85
-2.49
7.66
16.28
22.60
26.46
28.18
28.32
27.37
25.71
23.58
21.15
18.67
16.43
14.71
13.74
13.54
13.96
14.70
15.47
16.04
16.29
16.24
15.97
15.55
14.97
14.12
12.91
11.26
9.24
7.03
4.90
3.04
1.49
0.09
-1.50
-3.75
-7.05
-11.66
-17.43
-23.75
-29.56
-33.43
-34.07
-30.66
-23.25
-12.77
-0.86
10.72
20.49
27.66
32.16
34.38
34.90
34.20
32.63
30.39
27.79
25.21
23.10
21.82
21.47
21.82
22.40
22.70
22.35
21.30
19.74
18.01
16.36
14.89
13.50
12.01
10.16
7.80
4.88
1.55
-1.92
-5.17
-7.92
-10.08
-11.87
-13.75
-16.23
-19.72
-24.29
-29.64
-35.11
-39.76
-42.57
-42.55
-39.14
-32.33
-22.88
-12.11
-1.62
7.23
13.68
17.65
19.58
20.03
19.45
18.03
15.87
13.15
10.20
7.50
5.46
4.28
3.86
3.88
3.95
3.77
3.26
2.50
1.67
0.86
0.05
-0.98
-2.48
-4.62
-7.41
-10.63
-13.93
-16.91
-19.31
-21.03
-22.16
-22.90
-23.56
-24.49
-26.05
-28.45
-31.61
-34.90
-37.21
-37.20
-33.75
-26.49
-16.11
-4.14
7.64
17.80
25.70
31.49
35.69
38.74
40.66
41.20
40.08
37.45
33.94
30.55
28.19
27.31
27.70
28.70
29.50
29.60
28.94
27.83
26.63
25.44
24.08
22.14
19.47
16.26
13.16
10.84
9.71
9.67
10.19
10.58
10.24
8.87
6.39
2.82
-1.68
-6.88
-12.24
-16.83
-19.49
-19.13
-15.10
-7.52
2.63
13.75
24.12
32.25
37.36
39.32
38.68
36.18
32.56
28.38
24.06
19.93
16.36
13.72
12.24
11.83
12.02
12.11
11.36
9.34
6.10
2.12
-1.93
-5.50
-8.40
-10.89
-13.44
-16.48
-20.16
-24.29
-28.46
-32.27
-35.47
-38.10
-40.40
-42.73
-45.45
-48.81
-52.83
-57.26
-61.59
-65.06
-66.93
-66.64
-63.99
-59.18
-52.81
-45.66
-38.63
-32.57
-28.09
-25.48
-24.66
-25.24
-26.72
-28.70
-30.89
-33.13
-35.17
-36.67
-37.13
-36.12
-33.50
-29.51
-24.70
-19.68
-14.92
-10.58
-6.59
-2.76
0.99
4.56
7.73
10.26
12.06
13.25
14.11
14.93
15.85
16.77
17.30
16.90
15.05
11.44
6.07
-0.76
-8.47
-16.24
-23.07
-27.82
-29.36
-26.88
-20.21
-9.95
2.53
15.46
27.24
36.79
43.77
48.42
51.25
52.68
52.89
51.91
49.77
46.65
42.99
39.37
36.32
34.12
32.73
31.79
30.81
29.41
27.50
25.23
22.92
20.82
18.93
16.99
14.60
11.43
7.44
2.87
-1.80
-6.07
-9.67
-12.59
-15.14
-17.72
-20.75
-24.54
-29.21
-34.75
-40.83
-46.77
-51.47
-53.56
-51.77
-45.42
-34.80
-21.24
-6.74
6.66
17.55
25.47
30.79
34.28
36.73
38.58
39.95
40.88
41.46
42.00
42.86
44.39
46.73
49.81
53.29
56.76
59.76
61.93
63.07
63.07
61.91
59.53
55.88
50.94
44.90
38.19
31.51
25.54
20.70
17.02
14.00
10.92
7.02
1.82
-4.69
-12.08
-19.48
-25.82
-30.04
-31.34
-29.39
-24.49
-17.49
-9.66
-2.34
3.36
6.73
7.62
6.36
3.58
-0.08
-4.10
-8.11
-11.95
-15.43
-18.31
-20.33
-21.31
-21.25
-20.38
-19.13
-17.93
-17.09
-16.71
-16.73
-16.98
-17.37
-17.95
-18.83
-20.07
-21.61
-23.15
-24.36
-25.08
-25.41
-25.82
-26.93
-29.11
-32.17
-35.34
-37.41
-37.27
-34.30
-28.61
-20.95
-12.38
-3.96
3.56
9.73
14.37
17.40
18.79
18.68
17.33
15.19
12.82
10.64
8.89
7.55
6.45
5.38
4.22
3.04
1.93
0.93
0.03
-0.94
-2.13
-3.64
-5.48
-7.58
-9.88
-12.24
-14.54
-16.57
-18.19
-19.37
-20.26
-21.31
-22.99
-25.68
-29.41
-33.63
-37.40
-39.55
-39.15
-35.79
-29.72
-21.84
-13.33
-5.39
1.15
5.89
8.81
10.13
10.13
9.04
7.11
4.64
1.96
-0.53
-2.55
-3.95
-4.83
-5.42
-6.04
-6.91
-8.10
-9.51
-10.98
-12.43
-13.87
-15.50
-17.46
-19.87
-22.63
-25.46
-28.03
-30.02
-31.25
-31.69
-31.48
-30.82
-30.04
-29.45
-29.27
-29.41
-29.34
-28.17
-24.79
-18.41
-8.89
3.02
15.80
27.64
37.03
43.15
46.00
46.19
44.58
41.90
38.67
35.18
31.69
28.47
25.80
23.86
22.64
22.00
21.66
21.37
20.97
20.42
19.79
19.18
18.75
18.61
18.78
19.05
19.05
18.30
16.46
13.52
9.80
5.90
2.42
-0.29
-2.28
-3.96
-6.03
-9.10
-13.55
-19.34
-25.85
-32.05
-36.54
-38.02
-35.61
-29.29
-19.89
-8.92
1.94
11.29
18.36
23.03
25.64
26.63
26.36
25.07
23.03
20.67
18.59
17.42
17.49
18.77
20.75
22.72
24.05
24.41
23.81
22.55
20.98
19.31
17.63
15.87
13.97
11.93
9.87
7.97
6.36
5.07
3.95
2.80
1.32
-0.75
-3.62
-7.39
-12.00
-17.12
-22.05
-25.81
-27.30
-25.62
-20.43
-12.17
-1.97
8.67
18.31
25.94
31.14
33.98
34.83
34.14
32.29
29.63
26.48
23.22
20.21
17.75
15.93
14.57
13.35
11.95
10.26
8.45
6.89
5.87
5.46
5.33
4.81
3.28
0.37
-3.75
-8.50
-13.07
-16.76
-19.24
-20.65
-21.57
-22.69
-24.58
-27.49
-31.14
-34.81
-37.56
-38.48
-36.91
-32.68
-26.12
-17.95
-9.12
-0.57
6.90
12.72
16.60
18.51
18.63
17.34
15.22
12.89
10.95
9.76
9.39
9.58
9.90
9.90
9.34
8.22
6.76
5.28
4.12
3.59
3.86
4.95
6.67
8.47
9.66
9.51
7.58
3.87
-1.10
-6.54
-11.73
-16.29
-20.30
-24.06
-27.81
-31.43
-34.36
-35.80
-35.08
-31.95
-26.81
-20.48
-13.92
-7.87
-2.62
1.81
5.48
8.33
10.06
10.35
9.15
6.77
3.94
1.54
0.22
0.19
1.14
2.43
3.44
3.82
3.51
2.71
1.73
0.78
-0.10
-1.01
-2.13
-3.66
-5.73
-8.34
-11.39
-14.60
-17.72
-20.48
-22.76
-24.64
-26.38
-28.29
-30.68
-33.59
-36.76
-39.58
-41.21
-40.76
-37.59
-31.61
-23.39
-14.01
-4.71
3.43
9.85
14.49
17.60
19.44
20.14
19.70
18.15
15.82
13.29
11.34
10.68
11.62
14.01
17.27
20.63
23.39
25.10
25.63
25.12
23.88
22.19
20.23
18.05
15.65
13.05
10.43
8.02
6.08
4.72
3.79
2.91
1.58
-0.67
-4.02
-8.34
-13.15
-17.74
-21.28
-23.04
-22.52
-19.60
-14.56
-8.11
-1.22
5.11
10.03
13.09
14.30
14.01
12.71
10.86
8.74
6.47
4.12
1.83
-0.17
-1.59
-2.24
-2.18
-1.69
-1.20
-1.03
-1.31
-1.93
-2.68
-3.44
-4.33
-5.66
-7.82
-10.93
-14.71
-18.58
-21.90
-24.27
-25.83
-27.19
-29.11
-32.15
-36.36
-41.32
-46.24
-50.22
-52.46
-52.29
-49.23
-43.09
-34.19
-23.33
-11.91
-1.40
6.92
12.42
15.17
15.79
15.11
13.79
12.27
10.81
9.65
9.06
9.32
10.58
12.69
15.25
17.67
19.45
20.30
20.25
19.52
18.35
16.87
15.06
12.84
10.19
7.23
4.27
1.57
-0.72
-2.67
-4.59
-6.91
-9.99
-14.08
-19.12
-24.61
-29.67
-33.13
-33.84
-31.09
-24.92
-16.18
-6.33
3.07
10.83
16.33
19.57
20.85
20.52
18.87
16.16
12.70
8.97
5.58
3.02
1.65
1.54
2.55
4.43
6.95
10.04
13.69
17.96
22.78
27.94
33.00
37.42
40.66
42.39
42.49
41.15
38.72
35.56
31.93
27.92
23.47
18.42
12.66
6.19
-0.71
-7.42
-13.06
-16.60
-17.16
-14.35
-8.41
-0.30
8.60
16.78
23.11
27.04
28.58
28.14
26.17
22.94
18.58
13.20
7.13
1.04
-4.18
-7.74
-9.28
-9.05
-7.81
-6.45
-5.68
-5.76
-6.47
-7.36
-8.01
-8.26
-8.33
-8.68
-9.74
-11.76
-14.63
-17.88
-20.89
-23.15
-24.52
-25.22
-25.84
-27.02
-29.26
-32.77
-37.45
-42.92
-48.54
-53.46
-56.68
-57.23
-54.52
-48.63
-40.36
-31.05
-22.18
-14.93
-9.82
-6.76
-5.19
-4.40
-3.79
-2.98
-1.82
-0.31
1.48
3.53
5.81
8.33
11.01
13.69
16.13
18.23
20.06
21.91
24.07
26.69
29.43
31.66
32.64
31.87
29.42
25.79
21.81
18.18
15.27
13.02
11.02
8.82
6.03
2.46
-1.88
-6.75
-11.71
-16.06
-18.95
-19.53
-17.23
-12.01
-4.40
4.51
13.47
21.35
27.39
31.25
32.91
32.52
30.28
26.54
21.81
16.79
12.25
8.87
7.02
6.64
7.34
8.53
9.69
10.52
10.99
11.26
11.53
11.86
12.08
11.90
11.01
9.25
6.75
3.93
1.37
-0.40
-1.13
-0.97
-0.51
-0.54
-1.85
-4.76
-9.07
-13.91
-17.98
-19.90
-18.66
-13.94
-6.18
3.49
13.60
22.76
29.96
34.75
37.15
37.46
36.13
33.61
30.37
26.88
23.62
21.00
19.22
18.21
17.73
17.39
16.87
16.01
14.78
13.21
11.34
9.15
6.55
3.41
-0.33
-4.75
-9.80
-15.40
-21.36
-27.49
-33.59
-39.57
-45.51
-51.62
-58.19
-65.36
-72.90
-80.16
-86.07
-89.48
-89.44
-85.67
-78.64
-69.44
-59.44
-49.87
-41.51
-34.59
-28.95
-24.23
-20.08
-16.23
-12.53
-8.87
-5.14
-1.27
2.75
6.75
10.46
13.60
15.98
17.65
18.79
19.75
20.68
21.51
21.90
21.38
19.65
16.76
13.13
9.41
6.22
3.89
2.42
1.46
0.53
-0.85
-3.12
-6.52
-11.10
-16.54
-22.07
-26.43
-28.17
-26.00
-19.33
-8.61
4.77
18.82
31.59
41.73
48.79
53.12
55.49
56.66
57.13
57.07
56.46
55.36
53.99
52.75
52.04
52.03
52.58
53.27
53.63
53.39
52.63
51.77
51.31
51.53
52.27
52.96
52.89
51.59
49.05
45.80
42.60
40.12
38.59
37.60
36.41
34.13
30.14
24.31
16.98
8.95
1.25
-5.00
-8.74
-9.28
-6.49
-0.90
6.34
13.78
20.03
24.11
25.72
25.09
22.80
19.55
15.88
12.20
8.69
5.37
2.22
-0.86
-3.88
-6.81
-9.60
-12.17
-14.50
-16.65
-18.65
-20.52
-22.21
-23.68
-24.98
-26.26
-27.73
-29.53
-31.60
-33.69
-35.46
-36.66
-37.22
-37.36
-37.54
-38.29
-39.93
-42.53
-45.72
-48.81
-50.94
-51.32
-49.43
-45.17
-38.80
-30.89
-22.16
-13.37
-5.25
1.60
6.78
10.08
11.59
11.58
10.49
8.84
7.15
5.86
5.26
5.46
6.33
7.56
8.75
9.61
9.93
9.67
8.91
7.71
6.19
4.47
2.74
1.26
0.21
-0.35
-0.53
-0.58
-0.78
-1.27
-2.10
-3.29
-4.90
-7.07
-9.82
-13.00
-16.14
-18.57
-19.59
-18.70
-15.79
-11.16
-5.46
0.47
5.79
9.89
12.49
13.65
13.69
12.99
11.86
10.41
8.63
6.58
4.45
2.61
1.44
1.13
1.55
2.36
3.09
3.37
3.01
2.00
0.50
-1.31
-3.17
-4.85
-6.20
-7.13
-7.70
-8.10
-8.55
-9.23
-10.23
-11.45
-12.86
-14.47
-16.43
-18.90
-21.83
-24.83
-27.21
-28.24
-27.33
-24.40
-19.88
-14.43
-8.78
-3.39
1.52
5.82
9.37
11.95
13.32
13.42
12.41
10.66
8.62
6.66
5.05
3.92
3.33
3.24
3.52
4.00
4.48
4.81
4.91
4.86
4.66
4.28
3.52
2.10
-0.18
-3.29
-6.99
-10.79
-14.18
-16.75
-18.39
-19.21
-19.56
-19.92
-20.75
-22.38
-24.85
-27.92
-31.06
-33.46
-34.34
-33.05
-29.36
-23.53
-16.27
-8.49
-1.08
5.30
10.34
14.00
16.31
17.38
17.27
16.14
14.29
12.18
10.34
9.17
8.83
9.20
9.93
10.61
10.96
10.94
10.68
10.40
10.22
10.06
9.70
8.86
7.40
5.43
3.24
1.18
-0.53
-1.92
-3.15
-4.45
-5.97
-7.76
-9.80
-12.12
-14.77
-17.82
-21.23
-24.78
-28.05
-30.45
-31.38
-30.45
-27.56
-22.98
-17.27
-11.13
-5.20
-0.01
4.10
6.93
8.40
8.56
7.60
5.85
3.74
1.75
0.24
-0.60
-0.77
-0.40
0.33
1.27
2.36
3.61
4.99
6.38
7.58
8.27
8.21
7.32
5.78
3.92
2.12
0.61
-0.64
-1.85
-3.27
-5.07
-7.16
-9.38
-11.52
-13.49
-15.29
-16.88
-18.11
-18.60
-17.81
-15.28
-10.81
-4.64
2.54
9.88
16.48
21.74
25.38
27.49
28.28
28.02
26.89
25.05
22.65
19.99
17.42
15.32
13.90
13.19
13.01
13.09
13.20
13.18
13.03
12.77
12.37
11.76
10.80
9.41
7.58
5.47
3.28
1.21
-0.68
-2.53
-4.57
-7.06
-10.18
-13.87
-17.87
-21.70
-24.81
-26.61
-26.71
-24.92
-21.42
-16.61
-11.14
-5.64
-0.68
3.39
6.39
8.26
9.03
8.80
7.77
6.22
4.56
3.23
2.53
2.57
3.23
4.17
5.02
5.47
5.37
4.73
3.69
2.42
1.03
-0.43
-1.96
-3.57
-5.20
-6.72
-7.96
-8.76
-9.05
-8.93
-8.70
-8.79
-9.64
-11.52
-14.36
-17.66
-20.66
-22.48
-22.47
-20.36
-16.38
-11.05
-5.03
1.10
6.90
12.03
16.25
19.32
21.05
21.41
20.52
18.70
16.36
14.00
12.00
10.62
9.92
9.79
9.99
10.27
10.44
10.39
10.19
9.92
9.67
9.39
8.92
8.06
6.65
4.64
2.15
-0.63
-3.45
-6.13
-8.60
-10.96
-13.36
-16.03
-19.09
-22.43
-25.69
-28.29
-29.53
-28.83
-25.98
-21.18
-15.03
-8.34
-1.86
3.84
8.45
11.91
14.27
15.62
15.98
15.44
14.09
12.21
10.18
8.47
7.41
7.11
7.38
7.85
8.10
7.95
7.45
6.86
6.45
6.34
6.32
6.04
5.19
3.61
1.46
-1.00
-3.37
-5.45
-7.19
-8.72
-10.19
-11.75
-13.53
-15.67
-18.21
-21.13
-24.16
-26.78
-28.27
-27.96
-25.38
-20.50
-13.76
-5.97
1.90
8.95
14.57
18.49
20.71
21.50
21.17
20.02
18.31
16.26
14.13
12.16
10.62
9.58
8.95
8.50
7.94
7.11
6.07
5.03
4.24
3.84
3.72
3.57
3.02
1.88
0.16
-1.87
-3.85
-5.51
-6.78
-7.84
-9.04
-10.69
-12.99
-15.89
-19.14
-22.30
-24.80
-26.05
-25.53
-22.94
-18.35
-12.23
-5.38
1.27
6.91
10.97
13.22
13.75
12.85
10.98
8.61
6.16
3.97
2.20
0.82
-0.28
-1.26
-2.22
-3.12
-3.92
-4.49
-4.73
-4.54
-3.93
-2.98
-1.96
-1.21
-1.06
-1.74
-3.31
-5.59
-8.29
-11.13
-13.90
-16.49
-18.98
-21.43
-23.73
-25.59
-26.38
-25.40
-22.07
-16.20
-8.18
1.12
10.57
19.24
26.49
32.11
36.07
38.41
39.12
38.27
36.12
33.20
30.22
27.74
26.03
24.94
24.03
22.93
21.50
19.91
18.48
17.44
16.79
16.21
15.25
13.49
10.78
7.26
3.27
-0.73
-4.35
-7.39
-9.86
-11.92
-13.90
-16.07
-18.64
-21.60
-24.66
-27.24
-28.62
-28.10
-25.24
-20.07
-13.11
-5.27
2.45
9.22
14.56
18.36
20.73
21.81
21.72
20.56
18.46
15.73
12.79
10.19
8.39
7.62
7.79
8.51
9.33
9.85
9.88
9.51
8.91
8.21
7.37
6.19
4.50
2.25
-0.33
-2.94
-5.29
-7.34
-9.27
-11.34
-13.79
-16.72
-20.06
-23.69
-27.36
-30.78
-33.46
-34.79
-34.15
-31.17
-26.00
-19.21
-11.79
-4.74
1.17
5.62
8.66
10.61
11.85
12.73
13.53
14.41
15.46
16.67
17.93
19.07
19.87
20.12
19.65
18.49
16.80
14.94
13.34
12.36
12.09
12.30
12.52
12.19
10.96
8.81
6.09
3.37
1.11
-0.47
-1.54
-2.47
-3.73
-5.61
-8.21
-11.39
-14.74
-17.72
-19.69
-19.99
-18.12
-13.88
-7.49
0.32
8.53
16.08
22.16
26.40
28.82
29.74
29.46
28.21
26.02
22.88
18.84
14.16
9.27
4.72
0.97
-1.74
-3.53
-4.82
-6.13
-7.84
-10.00
-12.24
-14.11
-15.28
-15.89
-16.34
-17.16
-18.41
-19.68
-20.23
-19.43
-17.24
-14.33
-11.78
-10.53
-10.93
-12.61
-14.78
-16.59
-17.47
-17.24
-15.94
-13.63
-10.30
-5.92
-0.52
5.60
11.95
17.91
22.85
26.29
27.95
27.88
26.34
23.81
20.89
18.14
16.01
14.77
14.43
14.80
15.54
16.21
16.44
15.97
14.75
12.85
10.44
7.68
4.66
1.42
-2.00
-5.50
-8.91
-12.05
-14.81
-17.21
-19.37
-21.51
-23.86
-26.61
-29.75
-33.11
-36.25
-38.54
-39.29
-37.94
-34.36
-28.89
-22.25
-15.33
-8.88
-3.33
1.23
4.87
7.63
9.49
10.41
10.47
9.95
9.28
8.82
8.70
8.83
8.95
8.87
8.56
8.20
8.01
8.11
8.49
8.94
9.24
9.20
8.68
7.68
6.18
4.24
2.01
-0.34
-2.58
-4.62
-6.51
-8.50
-10.91
-14.03
-17.92
-22.31
-26.66
-30.22
-32.25
-32.19
-29.78
-25.17
-18.86
-11.65
-4.42
2.08
7.34
11.23
13.84
15.44
16.22
16.34
15.90
15.07
14.14
13.47
13.35
13.94
15.07
16.35
17.31
17.61
17.17
16.19
14.98
13.85
12.88
11.94
10.77
9.12
6.85
4.01
0.75
-2.70
-6.06
-9.07
-11.51
-13.33
-14.61
-15.73
-17.17
-19.33
-22.39
-26.10
-29.84
-32.76
-34.03
-33.03
-29.57
-23.89
-16.56
-8.45
-0.47
6.56
12.10
15.91
18.02
18.70
18.34
17.33
16.03
14.73
13.57
12.61
11.80
11.09
10.42
9.75
9.17
8.76
8.52
8.43
8.38
8.23
7.89
7.29
6.36
5.06
3.38
1.28
-1.10
-3.59
-5.87
-7.71
-8.98
-9.84
-10.62
-11.73
-13.47
-15.93
-18.92
-22.06
-24.80
-26.59
-26.90
-25.35
-21.75
-16.24
-9.33
-1.82
5.42
11.58
16.20
19.12
20.47
20.53
19.65
18.07
16.09
13.93
11.86
10.16
9.02
8.55
8.65
9.12
9.68
10.12
10.30
10.27
10.09
9.79
9.26
8.33
6.83
4.79
2.41
0.03
-2.07
-3.73
-5.02
-6.20
-7.63
-9.60
-12.29
-15.62
-19.31
-22.80
-25.37
-26.34
-25.13
-21.54
-15.76
-8.40
-0.38
7.32
13.81
18.49
21.09
21.71
20.66
18.46
15.65
12.76
10.22
8.29
7.01
6.30
6.00
5.98
6.14
6.42
6.73
6.94
6.88
6.44
5.58
4.35
2.88
1.30
-0.31
-1.90
-3.48
-5.04
-6.63
-8.37
-10.41
-12.93
-16.04
-19.71
-23.72
-27.57
-30.56
-31.90
-30.89
-27.28
-21.31
-13.78
-5.80
1.53
7.45
11.66
14.29
15.69
16.15
15.84
14.77
13.04
10.84
8.54
6.52
5.04
4.15
3.70
3.45
3.18
2.85
2.50
2.26
2.16
2.04
1.63
0.64
-1.06
-3.34
-5.79
-7.95
-9.52
-10.51
-11.27
-12.26
-13.90
-16.36
-19.57
-23.29
-27.15
-30.65
-33.16
-33.89
-32.21
-27.80
-20.88
-12.30
-3.27
5.02
11.69
16.40
19.29
20.75
21.19
20.92
20.08
18.81
17.33
15.94
14.95
14.54
14.67
15.10
15.55
15.76
15.67
15.29
14.74
14.04
13.14
11.94
10.30
8.20
5.70
3.02
0.41
-1.90
-3.81
-5.45
-7.14
-9.35
-12.41
-16.37
-20.92
-25.41
-29.05
-31.08
-30.91
-28.30
-23.29
-16.28
-7.96
0.71
8.77
15.32
19.84
22.21
22.67
21.69
19.78
17.36
14.76
12.25
10.05
8.35
7.28
6.81
6.78
6.92
6.99
6.89
6.70
6.56
6.56
6.70
6.73
6.39
5.43
3.83
1.78
-0.38
-2.40
-4.18
-5.84
-7.72
-10.11
-13.28
-17.20
-21.64
-26.02
-29.59
-31.53
-31.18
-28.29
-23.08
-16.30
-8.97
-2.18
3.24
6.84
8.55
8.65
7.45
5.35
2.61
-0.56
-4.01
-7.64
-11.33
-14.95
-18.30
-21.20
-23.40
-24.77
-25.32
-25.33
-25.33
-26.02
-28.03
-31.69
-36.91
-43.15
-49.60
-55.56
-60.57
-64.71
-68.39
-72.29
-77.13
-83.38
-90.99
-98.97
-105.35
-107.37
-102.30
-88.50
-66.24
-37.94
-7.52
20.88
44.12
60.89
71.53
77.39
80.00
80.52
79.69
78.00
75.87
73.66
71.50
69.28
66.74
63.73
60.40
57.27
54.98
53.96
54.14
54.95
55.52
54.94
52.62
48.38
42.36
34.98
26.78
18.24
9.83
1.80
-5.86
-13.41
-21.29
-29.73
-38.41
-46.22
-51.46
-52.20
-47.22
-36.50
-21.45
-4.58
11.36
24.16
32.73
37.16
38.29
37.24
34.93
31.93
28.52
24.92
21.38
18.24
15.78
14.15
13.34
13.18
13.46
13.96
14.44
14.64
14.25
12.99
10.73
7.57
3.87
0.10
-3.33
-6.25
-8.77
-11.31
-14.43
-18.69
-24.44
-31.53
-39.16
-45.84
-49.72
-49.14
-43.26
-32.51
-18.48
-3.44
10.43
21.60
29.50
34.26
36.37
36.33
34.61
31.68
28.12
24.58
21.61
19.51
18.21
17.42
16.84
16.31
15.90
15.73
15.95
16.48
17.06
17.24
16.56
14.68
11.52
7.31
2.59
-1.93
-5.66
-8.33
-10.16
-11.81
-14.19
-18.13
-24.02
-31.47
-39.32
-45.84
-49.14
-47.75
-41.09
-29.72
-15.25
0.19
14.47
26.04
34.15
38.83
40.55
39.95
37.64
34.10
29.85
25.46
21.55
18.67
17.20
17.12
18.09
19.55
20.88
21.69
21.86
21.52
20.85
19.94
18.59
16.44
13.18
8.83
3.78
-1.23
-5.50
-8.64
-10.80
-12.68
-15.20
-19.18
-25.07
-32.69
-41.22
-49.24
-55.03
-56.95
-53.89
-45.63
-32.98
-17.63
-1.70
12.78
24.37
32.40
36.90
38.30
37.18
34.10
29.58
24.29
19.05
14.76
12.10
11.38
12.28
14.04
15.81
16.98
17.34
17.16
16.80
16.52
16.24
15.64
14.28
11.85
8.33
3.98
-0.64
-4.94
-8.43
-11.02
-12.99
-15.00
-17.86
-22.19
-28.21
-35.48
-42.94
-49.00
-52.00
-50.61
-44.24
-33.34
-19.27
-3.95
10.62
22.88
31.90
37.44
39.69
39.15
36.41
32.18
27.23
22.38
18.38
15.72
14.56
14.70
15.66
16.94
18.18
19.23
20.06
20.67
20.90
20.47
19.02
16.34
12.51
7.86
2.96
-1.71
-5.80
-9.31
-12.50
-15.93
-20.26
-26.03
-33.34
-41.60
-49.46
-54.97
-56.16
-51.71
-41.57
-27.07
-10.57
5.27
18.31
27.41
32.55
34.38
33.77
31.45
27.85
23.32
18.32
13.53
9.66
7.29
6.51
6.95
7.98
8.96
9.60
9.95
10.26
10.65
10.92
10.53
8.85
5.52
0.77
-4.70
-9.95
-14.23
-17.34
-19.73
-22.30
-26.08
-31.68
-39.07
-47.38
-54.94
-59.75
-59.99
-54.64
-43.83
-28.90
-12.02
4.48
18.68
29.46
36.52
40.12
40.80
39.14
35.77
31.42
26.89
22.95
20.15
18.61
18.10
18.14
18.26
18.19
17.91
17.60
17.40
17.30
17.09
16.36
14.74
11.98
8.13
3.53
-1.32
-5.83
-9.58
-12.47
-14.86
-17.47
-21.21
-26.83
-34.53
-43.59
-52.41
-58.79
-60.59
-56.45
-46.28
-31.42
-14.21
2.73
17.21
28.02
34.95
38.51
39.51
38.62
36.28
32.79
28.52
24.02
20.01
17.08
15.59
15.45
16.21
17.27
18.11
18.50
18.49
18.29
18.13
17.99
17.57
16.40
14.01
10.27
5.45
0.17
-4.82
-9.01
-12.26
-14.85
-17.32
-20.32
-24.37
-29.87
-36.85
-44.83
-52.67
-58.64
-60.80
-57.56
-48.43
-34.27
-17.14
0.28
15.53
27.05
34.36
37.90
38.51
37.05
34.12
30.13
25.50
20.86
16.95
14.47
13.66
14.26
15.50
16.55
16.85
16.35
15.51
14.92
14.93
15.38
15.69
15.08
13.03
9.51
4.97
0.23
-3.98
-7.24
-9.60
-11.47
-13.51
-16.40
-20.66
-26.51
-33.73
-41.54
-48.63
-53.32
-53.99
-49.58
-40.07
-26.53
-10.95
4.42
17.61
27.43
33.56
36.33
36.39
34.36
30.79
26.11
20.78
15.37
10.61
7.13
5.35
5.29
6.52
8.36
10.11
11.32
11.96
12.25
12.45
12.60
12.42
11.44
9.30
6.01
2.00
-2.08
-5.65
-8.55
-11.03
-13.75
-17.43
-22.56
-29.21
-36.87
-44.52
-50.70
-53.79
-52.43
-45.91
-34.58
-19.87
-3.89
11.04
23.16
31.56
36.24
37.77
36.91
34.27
30.29
25.36
19.97
14.78
10.47
7.55
6.18
6.13
6.90
7.97
8.90
9.47
9.58
9.17
8.15
6.39
3.83
0.57
-3.11
-6.81
-10.15
-12.97
-15.45
-18.12
-21.67
-26.72
-33.44
-41.24
-48.72
-53.91
-54.78
-50.03
-39.63
-24.97
-8.46
7.24
20.02
28.84
33.70
35.29
34.51
32.05
28.44
24.08
19.49
15.24
11.94
9.89
9.08
9.14
9.57
9.93
9.99
9.76
9.36
8.86
8.15
6.94
4.91
1.90
-1.90
-6.03
-9.93
-13.18
-15.74
-17.98
-20.56
-24.18
-29.35
-36.17
-44.08
-51.86
-57.70
-59.71
-56.43
-47.40
-33.50
-16.74
0.30
15.23
26.48
33.53
36.82
37.21
35.71
33.02
29.65
25.90
22.10
18.60
15.78
13.85
12.86
12.63
12.85
13.28
13.84
14.59
15.56
16.57
17.19
16.80
14.90
11.37
6.56
1.28
-3.61
-7.50
-10.30
-12.45
-14.89
-18.54
-24.07
-31.46
-39.90
-47.87
-53.45
-54.88
-51.09
-42.13
-29.11
-13.98
1.13
14.41
24.73
31.74
35.56
36.63
35.49
32.71
28.90
24.72
20.80
17.59
15.36
14.11
13.68
13.81
14.29
14.93
15.57
16.09
16.35
16.12
15.18
13.29
10.32
6.31
1.53
-3.51
-8.20
-12.01
-14.73
-16.56
-18.17
-20.54
-24.55
-30.63
-38.34
-46.30
-52.43
-54.62
-51.40
-42.57
-29.29
-13.74
1.61
14.69
24.34
30.29
32.94
32.95
30.90
27.38
22.92
18.18
13.87
10.67
8.93
8.71
9.68
11.27
12.91
14.18
14.91
15.12
14.89
14.22
12.96
10.91
7.97
4.26
0.15
-3.81
-7.17
-9.80
-11.93
-14.21
-17.40
-22.17
-28.69
-36.45
-44.14
-49.96
-51.99
-48.94
-40.51
-27.74
-12.66
2.28
14.95
24.08
29.36
31.22
30.45
27.78
23.82
19.06
14.06
9.47
5.95
3.98
3.75
5.04
7.41
10.22
12.92
15.05
16.26
16.45
15.65
14.04
11.87
9.39
6.77
4.04
1.20
-1.88
-5.35
-9.47
-14.50
-20.62
-27.69
-34.96
-41.07
-44.23
-42.82
-36.05
-24.42
-9.69
5.55
18.83
28.43
33.76
35.26
33.83
30.41
25.69
20.07
13.88
7.57
1.67
-3.28
-6.83
-8.82
-9.36
-8.75
-7.53
-6.30
-5.67
-6.09
-7.77
-10.57
-14.08
-17.78
-21.18
-23.98
-26.12
-27.79
-29.40
-31.47
-34.56
-39.06
-44.92
-51.35
-56.92
-59.80
-58.39
-51.88
-40.74
-26.55
-11.50
2.39
13.88
22.59
28.79
32.97
35.47
36.38
35.74
33.77
30.97
28.01
25.48
23.68
22.61
22.08
21.87
21.95
22.32
22.93
23.54
23.66
22.75
20.50
16.97
12.61
8.07
3.92
0.34
-2.82
-6.09
-10.10
-15.44
-22.38
-30.74
-39.62
-47.52
-52.41
-52.42
-46.43
-34.68
-18.74
-1.19
15.21
28.37
37.25
41.94
43.23
42.11
39.41
35.72
31.44
26.97
22.79
19.34
16.95
15.66
15.24
15.31
15.50
15.61
15.59
15.49
15.26
14.67
13.34
10.93
7.26
2.50
-2.83
-7.99
-12.25
-15.30
-17.29
-18.99
-21.48
-25.76
-32.28
-40.57
-49.19
-56.04
-58.90
-56.20
-47.49
-33.70
-16.87
0.45
15.93
27.98
36.02
40.23
41.27
39.85
36.58
32.00
26.68
21.36
16.79
13.58
12.01
11.87
12.69
13.85
14.91
15.63
15.99
15.98
15.53
14.41
12.46
9.61
6.11
2.38
-1.09
-4.01
-6.40
-8.67
-11.46
-15.45
-21.12
-28.48
-36.91
-45.14
-51.35
-53.66
-50.66
-41.97
-28.49
-12.18
4.46
19.15
30.33
37.37
40.51
40.41
37.87
33.64
28.37
22.68
17.21
12.56
9.25
7.55
7.43
8.53
10.28
12.06
13.29
13.62
12.95
11.30
8.84
5.75
2.21
-1.54
-5.22
-8.57
-11.38
-13.75
-16.07
-19.03
-23.39
-29.58
-37.26
-45.12
-51.14
-53.01
-49.00
-38.72
-23.36
-5.40
12.10
26.53
36.40
41.51
42.62
40.87
37.25
32.38
26.65
20.46
14.40
9.18
5.44
3.48
3.21
4.20
5.87
7.67
9.09
9.74
9.26
7.41
4.19
-0.12
-4.97
-9.77
-14.08
-17.83
-21.36
-25.21
-30.00
-36.05
-43.25
-50.88
-57.63
-61.78
-61.61
-55.89
-44.43
-28.36
-9.91
8.12
23.26
33.98
40.02
42.10
41.45
39.19
36.03
32.30
28.16
23.88
19.86
16.59
14.41
13.41
13.38
13.95
14.70
15.27
15.40
14.93
13.83
12.10
9.79
7.00
3.82
0.34
-3.33
-7.17
-11.24
-15.78
-21.19
-27.79
-35.63
-44.06
-51.65
-56.41
-56.37
-50.33
-38.44
-22.24
-4.33
12.49
26.01
35.14
39.91
41.09
39.69
36.54
32.26
27.31
22.19
17.53
13.93
11.76
11.04
11.39
12.28
13.25
14.08
14.77
15.41
15.92
15.98
15.16
13.06
9.65
5.29
0.62
-3.68
-7.21
-10.06
-12.75
-16.06
-20.73
-27.08
-34.92
-43.36
-51.02
-56.11
-56.98
-52.50
-42.56
-28.23
-11.57
4.95
19.09
29.44
35.59
38.00
37.58
35.28
31.84
27.80
23.58
19.62
16.35
14.15
13.13
13.12
13.76
14.56
15.16
15.34
15.06
14.25
12.84
10.69
7.65
3.79
-0.60
-5.08
-9.18
-12.59
-15.33
-17.75
-20.48
-24.22
-29.50
-36.32
-43.89
-50.56
-54.21
-52.92
-45.72
-33.13
-17.06
-0.24
14.73
26.10
33.27
36.66
37.11
35.44
32.18
27.63
22.17
16.36
11.02
6.94
4.65
4.22
5.29
7.22
9.36
11.20
12.45
12.97
12.70
11.64
9.78
7.27
4.26
1.02
-2.31
-5.67
-9.18
-13.14
-17.90
-23.79
-30.80
-38.45
-45.54
-50.35
-51.07
-46.40
-36.21
-21.72
-5.16
10.84
24.08
33.34
38.42
39.89
38.60
35.34
30.73
25.28
19.53
14.07
9.51
6.31
4.72
4.68
5.87
7.76
9.69
11.03
11.29
10.24
7.95
4.77
1.16
-2.50
-5.99
-9.32
-12.63
-16.18
-20.25
-25.19
-31.24
-38.36
-45.80
-52.14
-55.38
-53.63
-45.91
-32.66
-15.81
1.80
17.37
28.87
35.57
37.83
36.69
33.32
28.66
23.41
18.09
13.16
9.05
6.08
4.42
3.95
4.41
5.37
6.50
7.55
8.34
8.73
8.51
7.44
5.30
2.05
-2.07
-6.59
-10.97
-14.82
-18.06
-21.07
-24.55
-29.29
-35.72
-43.61
-51.77
-58.25
-60.83
-57.78
-48.56
-34.15
-16.75
0.85
16.16
27.67
35.04
38.81
39.90
39.11
36.91
33.55
29.38
24.97
21.10
18.54
17.56
17.93
18.87
19.56
19.52
18.73
17.65
16.77
16.19
15.59
14.34
11.84
7.93
2.97
-2.33
-7.19
-11.11
-14.03
-16.32
-18.61
-21.68
-26.19
-32.47
-40.32
-48.85
-56.44
-61.05
-60.72
-54.29
-41.95
-25.31
-7.03
10.06
23.77
33.07
38.16
39.92
39.40
37.36
34.19
30.12
25.53
21.05
17.48
15.46
15.22
16.42
18.33
20.12
21.18
21.28
20.56
19.31
17.72
15.79
13.33
10.17
6.21
1.62
-3.25
-7.96
-12.10
-15.42
-17.90
-19.79
-21.60
-24.02
-27.79
-33.37
-40.75
-49.10
-56.84
-61.91
-62.37
-57.01
-45.86
-30.22
-12.32
5.32
20.59
32.19
39.69
43.31
43.61
41.20
36.68
30.73
24.21
18.11
13.46
10.97
10.79
12.44
14.98
17.40
19.00
19.63
19.61
19.41
19.28
18.96
17.89
15.41
11.18
5.50
-0.83
-6.74
-11.38
-14.48
-16.48
-18.33
-21.13
-25.69
-32.24
-40.27
-48.61
-55.56
-59.30
-58.26
-51.58
-39.44
-23.15
-4.91
12.72
27.53
38.13
44.15
46.01
44.60
40.86
35.61
29.58
23.46
17.99
13.83
11.43
10.81
11.57
13.08
14.67
15.93
16.69
16.97
16.72
15.72
13.68
10.43
6.05
0.98
-4.15
-8.72
-12.42
-15.38
-18.07
-21.25
-25.68
-31.80
-39.47
-47.72
-54.83
-58.71
-57.53
-50.41
-37.76
-21.33
-3.59
12.96
26.43
35.84
41.08
42.60
41.10
37.31
32.05
26.11
20.35
15.52
12.11
10.31
9.95
10.62
11.85
13.21
14.41
15.27
15.71
15.59
14.73
12.84
9.71
5.32
0.00
-5.65
-10.88
-15.08
-18.09
-20.30
-22.61
-26.13
-31.74
-39.74
-49.51
-59.44
-67.21
-70.33
-67.04
-56.81
-40.83
-21.59
-2.21
14.61
27.23
35.35
39.61
40.96
40.26
37.91
34.21
29.53
24.54
20.14
17.12
15.89
16.23
17.47
18.75
19.46
19.37
18.75
17.97
17.30
16.68
15.67
13.71
10.39
5.74
0.24
-5.33
-10.20
-13.92
-16.57
-18.74
-21.30
-25.12
-30.75
-38.26
-47.01
-55.70
-62.49
-65.36
-62.69
-53.82
-39.43
-21.45
-2.60
14.44
27.78
36.71
41.63
43.52
43.36
41.81
39.12
35.44
31.06
26.63
22.96
20.79
20.45
21.77
24.07
26.44
28.06
28.47
27.62
25.84
23.58
21.26
18.99
16.58
13.71
10.08
5.65
0.73
-4.20
-8.71
-12.55
-15.75
-18.61
-21.51
-24.82
-28.86
-33.88
-40.07
-47.32
-54.96
-61.61
-65.34
-64.22
-56.99
-43.77
-26.20
-6.99
10.89
25.15
34.72
39.75
41.22
40.23
37.69
34.09
29.75
25.02
20.47
16.75
14.45
13.83
14.70
16.53
18.56
20.18
20.99
20.99
20.36
19.32
17.98
16.26
14.05
11.27
8.03
4.50
0.91
-2.60
-5.97
-9.22
-12.32
-15.19
-17.78
-20.20
-22.75
-25.93
-30.34
-36.29
-43.67
-51.60
-58.60
-62.68
-62.02
-55.57
-43.47
-27.22
-9.21
7.87
21.85
31.55
36.82
38.27
36.83
33.48
28.99
24.01
19.12
14.89
11.79
10.18
10.08
11.20
12.98
14.81
16.24
17.14
17.67
18.11
18.59
18.98
18.79
17.45
14.56
10.17
4.84
-0.58
-5.23
-8.60
-10.78
-12.41
-14.45
-17.83
-23.17
-30.39
-38.79
-46.93
-53.00
-55.12
-51.93
-42.98
-29.07
-12.14
5.25
20.62
32.24
39.38
42.31
41.82
38.89
34.38
28.94
23.17
17.68
13.09
9.90
8.39
8.44
9.61
11.29
12.86
13.93
14.40
14.36
13.97
13.20
11.81
9.38
5.63
0.60
-5.19
-10.87
-15.63
-19.01
-21.24
-23.13
-25.88
-30.49
-37.42
-46.24
-55.58
-63.35
-67.23
-65.35
-56.85
-42.32
-23.72
-3.83
14.47
29.05
38.92
44.21
45.74
44.51
41.34
36.82
31.44
25.79
20.60
16.56
14.12
13.30
13.65
14.51
15.24
15.47
15.18
14.64
14.16
13.88
13.64
13.02
11.51
8.74
4.61
-0.60
-6.31
-11.84
-16.63
-20.39
-23.31
-25.98
-29.27
-34.05
-40.88
-49.57
-59.03
-67.24
-71.78
-70.48
-62.27
-47.64
-28.56
-8.04
10.92
26.08
36.45
42.25
44.37
43.90
41.64
38.14
33.77
28.99
24.45
20.87
18.76
18.25
19.00
20.31
21.43
21.89
21.59
20.78
19.85
19.03
18.23
17.06
14.98
11.64
7.06
1.66
-3.87
-8.87
-12.98
-16.22
-18.97
-21.89
-25.60
-30.64
-37.20
-45.00
-53.19
-60.30
-64.48
-63.96
-57.65
-45.64
-29.34
-11.17
6.18
20.51
30.58
36.31
38.38
37.72
35.15
31.25
26.49
21.45
16.86
13.51
11.94
12.18
13.73
15.79
17.56
18.55
18.72
18.36
17.82
17.28
16.60
15.37
13.11
9.54
4.74
-0.79
-6.32
-11.10
-14.75
-17.39
-19.62
-22.32
-26.39
-32.37
-40.18
-49.02
-57.32
-63.06
-64.29
-59.70
-49.14
-33.82
-16.00
1.70
16.96
28.41
35.65
39.05
39.31
37.17
33.25
28.19
22.74
17.69
13.86
11.72
11.34
12.33
14.04
15.85
17.30
18.24
18.68
18.68
18.13
16.88
14.72
11.63
7.81
3.64
-0.47
-4.27
-7.78
-11.36
-15.50
-20.72
-27.34
-35.22
-43.63
-51.21
-56.12
-56.55
-51.31
-40.38
-25.06
-7.68
9.04
22.86
32.47
37.76
39.39
38.42
35.79
32.11
27.74
22.98
18.26
14.16
11.30
10.08
10.49
12.10
14.15
15.85
16.66
16.38
15.08
12.91
9.95
6.25
1.87
-2.95
-7.80
-12.23
-16.02
-19.36
-22.86
-27.35
-33.52
-41.51
-50.54
-58.93
-64.42
-64.81
-58.71
-46.21
-28.87
-9.42
9.20
24.61
35.54
41.89
44.30
43.75
41.13
37.11
32.26
27.14
22.33
18.34
15.47
13.73
12.87
12.55
12.54
12.71
13.08
13.55
13.82
13.39
11.75
8.66
4.27
-0.82
-5.88
-10.31
-13.92
-16.97
-20.02
-23.79
-28.84
-35.48
-43.47
-51.88
-59.15
-63.18
-62.10
-54.84
-41.67
-24.31
-5.46
12.01
25.93
35.30
40.28
41.73
40.70
37.99
34.16
29.64
24.91
20.62
17.36
15.49
14.92
15.20
15.68
15.89
15.66
15.18
14.79
14.67
14.65
14.19
12.68
9.77
5.56
0.69
-4.01
-7.85
-10.60
-12.57
-14.50
-17.18
-21.31
-27.21
-34.79
-43.42
-51.79
-58.02
-60.04
-56.26
-46.22
-31.01
-13.02
4.79
19.83
30.64
37.07
39.91
40.23
38.91
36.39
32.87
28.62
24.23
20.44
17.98
17.17
17.76
19.05
20.23
20.69
20.34
19.47
18.51
17.68
16.74
15.15
12.31
7.97
2.48
-3.30
-8.38
-12.02
-14.19
-15.49
-16.96
-19.66
-24.28
-30.93
-39.10
-47.75
-55.33
-60.09
-60.34
-54.93
-43.79
-28.06
-10.03
7.52
22.08
32.11
37.29
38.30
36.31
32.48
27.72
22.69
17.97
14.10
11.60
10.71
11.23
12.58
13.92
14.64
14.48
13.72
12.80
12.10
11.59
10.86
9.32
6.58
2.74
-1.60
-5.62
-8.71
-10.78
-12.32
-14.29
-17.69
-23.16
-30.63
-39.24
-47.32
-52.78
-53.68
-48.81
-38.15
-23.06
-5.85
10.85
24.79
34.70
40.31
42.17
41.13
38.03
33.51
28.08
22.28
16.75
12.10
8.84
7.18
7.04
8.09
9.84
11.82
13.53
14.54
14.46
13.09
10.44
6.78
2.56
-1.73
-5.71
-9.21
-12.29
-15.21
-18.45
-22.58
-28.11
-35.15
-43.11
-50.52
-55.30
-55.37
-49.44
-37.61
-21.49
-3.72
12.94
26.39
35.64
40.74
42.38
41.34
38.31
33.83
28.44
22.82
17.72
13.80
11.40
10.47
10.58
11.19
11.80
12.16
12.18
11.90
11.24
9.98
7.86
4.70
0.58
-4.10
-8.83
-13.18
-17.04
-20.60
-24.33
-28.82
-34.53
-41.59
-49.60
-57.47
-63.46
-65.54
-62.04
-52.28
-37.07
-18.56
0.37
17.03
29.67
37.76
41.79
42.66
41.28
38.30
34.18
29.39
24.53
20.27
17.14
15.37
14.84
15.08
15.60
15.99
16.08
15.93
15.65
15.26
14.56
13.20
10.80
7.18
2.58
-2.42
-7.13
-11.00
-13.96
-16.47
-19.35
-23.50
-29.52
-37.46
-46.54
-55.32
-61.79
-63.92
-60.19
-50.22
-35.04
-16.89
1.36
17.14
28.83
36.07
39.49
40.12
38.88
36.34
32.77
28.48
24.04
20.15
17.45
16.22
16.23
16.91
17.64
18.06
18.18
18.35
18.87
19.78
20.67
20.81
19.48
16.22
11.17
4.94
-1.52
-7.38
-12.13
-15.83
-18.99
-22.42
-26.93
-33.01
-40.62
-49.00
-56.67
-61.64
-61.98
-56.40
-44.87
-28.74
-10.53
6.89
21.14
30.93
36.19
37.74
36.70
34.03
30.33
25.96
21.35
17.07
13.79
11.98
11.71
12.53
13.67
14.45
14.56
14.16
13.65
13.34
13.13
12.48
10.77
7.71
3.54
-1.02
-5.08
-8.07
-10.01
-11.40
-13.06
-15.78
-20.08
-26.11
-33.54
-41.52
-48.58
-52.91
-52.75
-47.05
-35.96
-20.96
-4.41
11.11
23.64
32.23
36.88
38.17
36.81
33.37
28.34
22.32
16.14
10.79
7.12
5.54
5.91
7.59
9.79
11.88
13.58
14.92
16.02
16.83
17.05
16.23
14.02
10.43
5.88
1.08
-3.22
-6.64
-9.23
-11.63
-14.69
-19.26
-25.78
-34.02
-42.87
-50.53
-54.83
-53.91
-46.93
-34.38
-18.15
-0.92
14.67
26.70
34.34
37.81
37.88
35.44
31.27
26.00
20.25
14.74
10.15
7.00
5.46
5.31
6.08
7.32
8.67
9.97
11.10
11.88
12.01
11.14
9.03
5.65
1.27
-3.65
-8.57
-13.10
-17.10
-20.69
-24.29
-28.49
-33.89
-40.75
-48.70
-56.48
-62.11
-63.41
-58.76
-47.84
-31.94
-13.57
4.36
19.45
30.39
37.02
39.98
40.15
38.28
34.92
30.59
25.84
21.35
17.73
15.33
14.22
14.13
14.62
15.30
15.88
16.25
16.42
16.41
16.12
15.34
13.75
11.12
7.43
2.99
-1.65
-5.91
-9.40
-12.16
-14.73
-17.94
-22.67
-29.46
-38.19
-47.89
-56.78
-62.63
-63.38
-57.77
-45.92
-29.38
-10.73
7.15
21.94
32.42
38.45
40.76
40.31
37.98
34.33
29.75
24.70
19.80
15.81
13.38
12.80
13.81
15.71
17.65
18.97
19.48
19.42
19.24
19.23
19.30
18.92
17.44
14.46
10.03
4.76
-0.44
-4.79
-7.98
-10.22
-12.22
-14.90
-18.99
-24.98
-32.81
-41.90
-51.02
-58.40
-62.02
-60.23
-52.33
-39.01
-22.28
-4.90
10.54
22.34
29.97
33.95
35.16
34.43
32.23
28.75
24.29
19.41
14.94
11.76
10.45
11.02
12.90
15.23
17.17
18.22
18.37
17.96
17.43
17.04
16.73
16.11
14.67
12.04
8.20
3.55
-1.20
-5.32
-8.35
-10.34
-11.87
-13.84
-17.17
-22.48
-29.82
-38.59
-47.59
-55.18
-59.59
-59.30
-53.56
-42.61
-27.80
-11.21
4.89
18.55
28.62
34.75
37.27
36.85
34.30
30.37
25.80
21.25
17.33
14.51
13.08
13.03
14.08
15.70
17.26
18.27
18.48
18.02
17.20
16.33
15.55
14.66
13.25
10.97
7.65
3.53
-0.86
-4.90
-8.16
-10.68
-13.01
-16.03
-20.62
-27.21
-35.45
-44.08
-51.12
-54.45
-52.36
-44.30
-31.03
-14.55
2.50
17.71
29.34
36.75
40.14
40.20
37.70
33.38
27.88
21.92
16.28
11.68
8.61
7.16
7.07
7.82
8.92
9.99
10.88
11.58
12.03
12.11
11.58
10.19
7.78
4.36
0.24
-4.18
-8.41
-12.17
-15.49
-18.70
-22.45
-27.40
-33.94
-41.79
-49.86
-56.23
-58.72
-55.58
-46.23
-31.64
-14.14
3.33
18.19
28.91
35.19
37.71
37.49
35.37
31.87
27.24
21.87
16.33
11.37
7.66
5.47
4.61
4.57
4.81
5.05
5.31
5.75
6.39
6.96
6.89
5.56
2.75
-1.28
-5.84
-10.08
-13.45
-15.93
-18.03
-20.56
-24.37
-29.96
-37.29
-45.62
-53.54
-59.19
-60.65
-56.55
-46.53
-31.56
-13.74
4.26
19.96
31.72
38.98
42.14
42.11
39.87
36.21
31.71
26.86
22.09
17.92
14.74
12.78
11.97
12.03
12.55
13.16
13.65
13.93
13.99
13.78
13.13
11.77
9.47
6.21
2.22
-2.00
-5.88
-9.09
-11.62
-13.96
-16.87
-21.16
-27.31
-35.25
-44.14
-52.43
-58.07
-59.11
-54.25
-43.49
-28.15
-10.67
6.20
20.20
30.16
35.99
38.42
38.37
36.62
33.67
29.89
25.73
21.79
18.65
16.70
15.99
16.18
16.72
17.14
17.20
16.96
16.65
16.45
16.28
15.77
14.40
11.77
7.86
3.09
-1.78
-6.02
-9.22
-11.50
-13.47
-16.02
-20.03
-26.00
-33.87
-42.77
-51.12
-56.92
-58.25
-53.90
-43.90
-29.56
-13.14
2.85
16.40
26.47
32.90
36.15
36.81
35.39
32.27
27.90
22.86
17.89
13.75
10.99
9.78
9.99
11.14
12.68
14.12
15.18
15.72
15.75
15.24
14.05
11.98
8.92
4.97
0.51
-3.89
-7.69
-10.63
-12.84
-14.84
-17.32
-20.99
-26.28
-33.06
-40.57
-47.38
-51.64
-51.68
-46.50
-36.25
-22.23
-6.56
8.52
21.20
30.46
36.06
38.27
37.63
34.76
30.35
25.12
19.78
15.03
11.35
9.02
8.04
8.22
9.25
10.79
12.46
13.92
14.79
14.82
13.81
11.78
8.93
5.66
2.34
-0.75
-3.58
-6.34
-9.37
-13.14
-18.03
-24.25
-31.59
-39.28
-45.87
-49.53
-48.58
-42.17
-30.65
-15.69
0.25
14.69
25.88
33.06
36.53
37.00
35.33
32.15
27.86
22.80
17.40
12.29
8.09
5.37
4.35
4.85
6.33
8.11
9.53
10.13
9.72
8.28
5.99
3.05
-0.30
-3.83
-7.34
-10.74
-14.06
-17.53
-21.61
-26.74
-33.24
-40.81
-48.37
-54.06
-55.74
-51.76
-41.75
-26.94
-9.86
6.53
19.95
29.29
34.72
37.20
37.67
36.76
34.61
31.26
26.93
22.13
17.55
13.83
11.33
10.05
9.74
10.04
10.57
10.98
10.97
10.31
8.84
6.57
3.62
0.23
-3.35
-6.95
-10.61
-14.55
-19.14
-24.70
-31.44
-39.23
-47.38
-54.69
-59.50
-60.11
-55.31
-44.92
-30.02
-12.81
4.05
18.21
28.29
34.04
36.17
35.73
33.67
30.57
26.72
22.35
17.81
13.58
10.16
7.93
6.99
7.26
8.43
10.13
11.94
13.39
14.02
13.50
11.73
8.90
5.45
1.87
-1.51
-4.70
-7.96
-11.75
-16.58
-22.74
-30.25
-38.65
-46.89
-53.39
-56.37
-54.38
-46.77
-34.17
-18.30
-1.60
13.55
25.39
33.18
37.07
37.82
36.38
33.59
30.09
26.31
22.60
19.24
16.50
14.52
13.46
13.24
13.73
14.64
15.65
16.34
16.30
15.23
12.98
9.66
5.57
1.14
-3.20
-7.11
-10.48
-13.44
-16.41
-20.04
-25.03
-31.78
-39.94
-48.28
-54.74
-56.99
-53.33
-43.31
-28.09
-10.13
7.61
22.60
33.34
39.53
41.74
40.90
37.90
33.38
27.81
21.69
15.63
10.33
6.38
4.16
3.61
4.34
5.82
7.49
8.91
9.81
10.03
9.46
8.01
5.64
2.43
-1.32
-5.26
-9.02
-12.48
-15.89
-19.81
-24.85
-31.29
-38.74
-46.01
-51.29
-52.65
-48.72
-39.21
-25.11
-8.45
8.33
22.97
34.01
40.91
43.94
43.86
41.50
37.52
32.45
26.75
20.94
15.69
11.68
9.40
8.99
10.13
12.08
14.00
15.15
15.16
14.03
12.03
9.49
6.66
3.64
0.43
-3.06
-7.00
-11.56
-16.99
-23.49
-31.04
-39.12
-46.61
-51.85
-53.10
-49.12
-39.69
-25.79
-9.45
6.89
21.03
31.47
37.66
39.88
38.91
35.66
30.96
25.48
19.73
14.16
9.22
5.35
2.93
2.12
2.79
4.46
6.40
7.87
8.29
7.46
5.49
2.77
-0.25
-3.20
-5.92
-8.50
-11.19
-14.40
-18.51
-23.94
-30.83
-38.88
-47.17
-54.07
-57.60
-55.99
-48.42
-35.37
-18.76
-1.27
14.36
26.23
33.62
36.93
37.21
35.57
32.79
29.30
25.34
21.12
17.04
13.52
10.96
9.55
9.25
9.82
10.95
12.33
13.68
14.71
15.11
14.56
12.87
10.02
6.25
2.00
-2.28
-6.26
-9.99
-13.84
-18.44
-24.37
-31.82
-40.35
-48.69
-55.02
-57.36
-54.25
-45.30
-31.41
-14.55
2.74
18.12
29.97
37.63
41.32
41.77
39.89
36.48
32.18
27.57
23.18
19.47
16.78
15.19
14.54
14.46
14.62
14.79
14.90
15.00
15.05
14.89
14.15
12.44
9.56
5.63
1.12
-3.41
-7.44
-10.77
-13.69
-16.78
-20.83
-26.52
-34.07
-42.98
-51.92
-58.84
-61.49
-58.19
-48.47
-33.46
-15.56
2.29
17.59
28.86
35.87
39.27
39.95
38.65
35.85
31.91
27.38
23.06
19.78
18.13
18.20
19.53
21.31
22.81
23.68
24.02
24.24
24.59
24.97
24.88
23.68
21.01
17.12
12.84
9.19
6.94
6.19
6.39
6.55
5.72
3.32
-0.74
-6.05
-11.78
-16.83
-19.90
-19.60
-14.80
-4.92
9.70
27.88
47.90
68.03
87.05
104.32
119.45
131.58
139.10
139.86
131.99
115.01
90.46
61.77
33.11
8.10
-11.40
-25.41
-35.36
-42.96
-49.32
-54.70
-58.69
-60.89
-61.37
-60.78
-60.13
-60.24
-61.41
-63.19
-64.67
-64.94
-63.57
-60.85
-57.73
-55.41
-54.80
-56.24
-59.40
-63.51
-67.61
-70.73
-71.89
-70.17
-64.77
-55.37
-42.37
-27.01
-11.14
3.30
14.76
22.50
26.50
27.32
25.75
22.56
18.44
14.06
10.02
6.84
4.88
4.30
4.99
6.63
8.75
10.82
12.37
13.03
12.61
11.19
8.92
6.07
2.85
-0.48
-3.75
-6.79
-9.53
-12.12
-14.91
-18.40
-23.06
-28.98
-35.70
-42.15
-46.69
-47.69
-43.90
-34.97
-21.68
-5.84
10.18
24.02
33.96
39.22
40.04
37.37
32.46
26.54
20.57
15.19
10.69
7.17
4.56
2.77
1.69
1.25
1.42
2.13
3.17
4.22
4.82
4.62
3.37
1.09
-1.99
-5.53
-9.22
-12.89
-16.46
-20.11
-24.10
-28.75
-34.35
-41.00
-48.38
-55.59
-61.14
-63.23
-60.21
-51.27
-36.82
-18.64
0.61
18.12
31.68
40.27
43.99
43.80
40.95
36.60
31.67
26.80
22.47
19.06
16.70
15.32
14.63
14.27
13.96
