1537560370.00
64.000000
-0.00
-0.00
-0.00
-0.00
-0.00
-0.00
-0.00
-0.00
-0.00
-0.00
0.00
0.01
0.01
-0.00
-0.03
-0.05
-0.05
0.00
0.13
0.36
0.66
1.01
1.37
1.72
2.06
2.40
2.79
3.24
3.80
4.42
5.06
5.66
6.20
6.68
7.15
7.68
8.31
9.14
10.09
11.04
11.88
12.56
13.14
13.76
14.65
15.96
17.91
20.32
22.90
25.38
27.58
29.57
31.68
34.32
37.81
42.54
48.15
54.10
59.83
64.97
69.58
74.14
79.34
85.71
93.76
103.00
112.62
121.73
129.77
136.75
143.30
150.75
157.77
166.64
177.95
191.79
206.97
220.57
228.25
225.36
208.53
176.87
132.76
80.05
23.07
-34.94
-92.44
-149.16
-205.23
-260.37
-313.74
-363.87
-409.83
-450.91
-486.50
-515.74
-537.23
-549.22
-549.96
-538.37
-514.21
-478.67
-433.88
-382.45
-327.02
-269.84
-212.63
-156.66
-102.95
-52.37
-5.90
35.58
71.43
101.35
125.50
144.38
158.69
169.15
176.37
180.75
182.57
182.07
179.51
175.23
169.65
163.18
156.15
148.81
141.30
133.69
126.02
118.33
110.69
103.16
95.80
88.68
81.83
75.25
68.95
62.95
57.25
51.86
46.78
42.03
37.59
33.45
29.61
26.07
22.81
19.83
17.11
14.67
12.48
10.54
8.83
7.35
6.07
4.97
4.05
3.27
2.62
2.09
1.65
1.30
1.01
0.79
0.61
0.47
0.37
0.29
0.23
0.18
0.16
0.14
0.13
0.14
0.15
0.17
0.19
0.22
0.26
0.30
0.34
0.38
0.43
0.48
0.53
0.58
0.63
0.69
0.74
0.81
0.88
0.95
1.04
1.13
1.23
1.35
1.47
1.62
1.78
1.96
2.16
2.38
2.62
2.89
3.20
3.53
3.89
4.28
4.71
5.18
5.68
6.22
6.81
7.43
8.10
8.81
9.57
10.38
11.23
12.13
13.07
14.06
15.12
16.24
17.43
18.66
19.95
21.23
22.47
23.58
24.46
25.00
25.07
24.58
23.42
21.56
18.99
15.77
11.98
7.78
3.37
-1.08
-5.34
-9.23
-12.59
-15.29
-17.28
-18.54
-19.10
-19.06
-18.56
-17.71
-16.63
-15.38
-14.00
-12.51
-10.92
-9.21
-7.48
-5.78
-4.13
-2.56
-1.01
0.58
2.28
4.15
6.24
8.40
10.47
12.40
14.15
15.80
17.51
19.45
21.77
24.54
27.43
30.14
32.47
34.39
36.07
37.85
40.10
43.07
46.86
50.78
54.21
56.69
58.07
58.64
58.96
59.66
61.16
63.51
65.60
66.31
64.68
60.21
52.92
43.04
30.58
14.56
-2.15
-19.42
-37.85
-58.36
-81.89
-109.00
-139.28
-170.90
-200.51
-223.83
-237.64
-240.31
-232.64
-217.69
-199.60
-181.96
-166.56
-153.08
-139.63
-124.53
-106.66
-86.01
-63.65
-41.19
-20.28
-2.17
12.45
23.53
31.16
35.82
38.18
39.06
39.32
39.78
40.99
43.09
45.69
47.86
48.62
47.38
44.15
39.60
34.85
31.00
28.75
28.12
28.39
28.48
27.33
24.32
19.43
13.26
6.73
0.70
-4.33
-8.42
-12.13
-16.30
-21.65
-28.49
-36.33
-43.89
-49.32
-50.82
-47.28
-38.81
-26.79
-13.43
-0.96
9.11
16.37
21.37
25.06
28.26
31.36
34.26
36.74
38.64
40.03
41.06
41.82
42.23
42.05
41.08
39.29
36.87
34.21
31.73
29.70
28.19
26.99
25.72
23.98
21.43
17.92
13.59
8.80
4.04
-0.22
-3.73
-6.60
-9.24
-12.29
-16.38
-21.89
-28.77
-36.37
-43.43
-48.27
-49.30
-45.54
-37.06
-25.09
-11.64
1.13
11.69
19.43
24.70
28.30
31.03
33.33
35.22
36.54
37.13
37.04
36.45
35.59
34.61
33.56
32.38
30.99
29.44
27.80
26.27
25.00
24.02
23.22
22.33
20.99
18.88
15.86
11.99
7.58
3.07
-1.15
-4.80
-7.89
-10.65
-13.50
-16.86
-21.09
-26.40
-32.83
-40.10
-47.52
-53.88
-57.59
-57.16
-51.65
-41.29
-27.46
-12.35
1.79
13.37
21.84
27.58
31.40
34.07
35.97
37.13
37.47
36.97
35.81
34.30
32.80
31.57
30.69
30.03
29.39
28.53
27.33
25.79
24.10
22.52
21.23
20.28
19.46
18.44
16.88
14.61
11.71
8.53
5.49
2.91
0.85
-0.94
-2.85
-5.26
-8.37
-12.18
-16.59
-21.40
-26.22
-30.42
-33.02
-32.95
-29.41
-22.30
-12.45
-1.47
8.80
16.86
22.02
24.43
24.79
23.95
22.50
20.69
18.55
16.11
13.53
11.16
9.33
8.25
7.84
7.81
7.77
7.50
7.03
6.74
7.08
8.40
10.68
13.39
15.69
16.65
15.65
12.61
7.99
2.54
-2.99
-8.18
-13.02
-17.75
-22.72
-28.14
-34.00
-39.98
-45.47
-49.57
-51.39
-50.21
-45.86
-38.89
-30.52
-22.26
-15.53
-11.28
-9.87
-11.15
-14.72
-20.06
-26.62
-33.75
-40.64
-46.39
-50.18
-51.48
-50.21
-46.72
-41.65
-35.69
-29.36
-22.92
-16.46
-10.12
-4.20
0.75
4.13
5.52
4.98
3.16
1.20
0.42
2.07
6.97
15.43
27.21
41.54
57.20
72.61
85.95
95.58
100.49
100.67
97.14
91.63
85.91
81.17
77.74
75.25
73.05
70.65
68.00
65.33
62.90
60.74
58.53
55.80
52.18
47.66
42.63
37.69
33.39
30.03
27.44
25.13
22.54
19.26
15.21
10.50
5.28
-0.53
-7.21
-15.20
-24.70
-35.47
-46.71
-57.18
-65.65
-71.25
-73.84
-73.96
-72.59
-70.72
-69.03
-67.81
-66.99
-66.46
-66.25
-66.64
-68.01
-70.60
-74.29
-78.48
-82.24
-84.39
-83.90
-80.09
-72.81
-62.45
-49.88
-36.20
-22.55
-9.94
0.91
9.63
16.19
20.87
24.16
26.60
28.65
30.58
32.43
34.09
35.35
36.08
36.21
35.80
34.99
33.92
32.76
31.59
30.48
29.40
28.29
27.10
25.75
24.22
22.46
20.47
18.23
15.80
13.30
10.92
8.81
7.07
5.61
4.18
2.46
0.14
-2.94
-6.82
-11.45
-16.60
-21.94
-26.90
-30.75
-32.77
-32.47
-29.85
-25.42
-20.08
-14.71
-9.94
-5.96
-2.67
0.16
2.58
4.51
5.77
6.32
6.31
6.12
6.14
6.60
7.47
8.40
9.00
8.91
8.05
6.56
4.74
2.87
1.08
-0.68
-2.58
-4.78
-7.36
-10.25
-13.24
-16.05
-18.37
-19.99
-20.85
-21.07
-20.96
-20.92
-21.37
-22.62
-24.77
-27.71
-31.03
-33.99
-35.74
-35.47
-32.81
-27.90
-21.53
-14.78
-8.67
-3.79
-0.20
2.50
4.81
7.16
9.68
12.33
15.00
17.61
20.19
22.84
25.61
28.40
30.99
33.07
34.30
34.46
33.47
31.38
28.38
24.67
20.48
15.93
11.14
6.11
0.84
-4.66
-10.30
-15.83
-20.89
-25.11
-28.20
-30.10
-31.01
-31.30
-31.46
-31.96
-33.21
-35.46
-38.65
-42.28
-45.45
-47.05
-46.12
-42.23
-35.68
-27.36
-18.42
-9.84
-2.12
4.68
10.82
16.55
22.01
27.20
32.06
36.57
40.70
44.40
47.51
49.78
50.88
50.53
48.55
44.93
39.84
33.60
26.69
19.61
12.86
6.82
1.75
-2.25
-5.23
-7.29
-8.59
-9.26
-9.42
-9.18
-8.69
-8.11
-7.71
-7.79
-8.69
-10.67
-13.85
-18.22
-23.51
-29.23
-34.61
-38.71
-40.55
-39.34
-34.85
-27.45
-18.15
-8.30
0.84
8.37
14.00
17.88
20.47
22.23
23.49
24.35
24.85
24.99
24.84
24.52
24.13
23.70
23.12
22.26
20.99
19.34
17.41
15.40
13.47
11.71
10.10
8.63
7.24
5.85
4.37
2.66
0.60
-1.79
-4.38
-6.97
-9.40
-11.67
-13.96
-16.58
-19.77
-23.62
-27.96
-32.39
-36.27
-38.82
-39.29
-37.08
-32.02
-24.46
-15.29
-5.65
3.29
10.71
16.26
20.00
22.29
23.53
24.04
24.02
23.62
23.02
22.45
22.21
22.53
23.50
24.96
26.52
27.72
28.11
27.49
25.88
23.52
20.77
17.91
15.10
12.38
9.71
6.99
4.18
1.31
-1.58
-4.39
-7.08
-9.66
-12.22
-14.87
-17.78
-21.17
-25.28
-30.27
-36.05
-42.07
-47.33
-50.53
-50.43
-46.41
-38.72
-28.50
-17.36
-6.92
1.78
8.39
13.16
16.64
19.29
21.36
22.88
23.80
24.15
24.04
23.59
22.96
22.16
21.17
19.95
18.55
17.04
15.58
14.31
13.34
12.69
12.29
11.98
11.54
10.74
9.40
7.47
5.01
2.22
-0.62
-3.30
-5.65
-7.68
-9.49
-11.36
-13.58
-16.45
-20.19
-24.88
-30.33
-36.02
-41.06
-44.39
-45.03
-42.44
-36.81
-28.99
-20.32
-12.13
-5.38
-0.53
2.51
4.12
4.76
4.83
4.72
4.71
5.09
6.09
7.79
10.10
12.75
15.39
17.65
19.32
20.35
20.86
20.99
20.90
20.63
20.09
19.13
17.60
15.39
12.49
8.99
5.05
0.89
-3.26
-7.19
-10.74
-13.92
-16.82
-19.62
-22.54
-25.75
-29.41
-33.62
-38.55
-44.52
-51.97
-61.27
-72.52
-85.31
-98.70
-111.33
-121.58
-127.77
-128.32
-122.01
-108.20
-87.16
-60.07
-28.97
3.70
35.49
64.42
89.13
108.91
123.57
133.31
138.63
140.27
139.15
136.18
132.11
127.50
122.63
117.61
112.40
106.96
101.31
95.59
90.02
84.74
79.79
75.03
70.25
65.28
60.06
54.61
48.96
43.22
37.44
31.80
26.53
21.80
17.55
13.38
8.65
2.80
-4.32
-12.23
-19.96
-26.43
-30.88
-33.15
-33.70
-33.25
-32.49
-31.83
-31.34
-30.94
-30.56
-30.26
-30.23
-30.59
-31.35
-32.26
-32.90
-32.82
-31.72
-29.54
-26.50
-23.05
-19.64
-16.70
-14.47
-13.00
-12.26
-12.09
-12.36
-12.91
-13.64
-14.47
-15.29
-15.99
-16.46
-16.62
-16.55
-16.41
-16.45
-16.82
-17.53
-18.42
-19.24
-19.88
-20.41
-21.19
-22.67
-25.20
-28.85
-33.25
-37.59
-40.76
-41.56
-39.10
-33.13
-24.25
-13.87
-3.80
4.32
9.54
11.84
12.00
11.08
10.02
9.29
8.94
8.79
8.69
8.58
8.45
8.31
8.09
7.73
7.27
6.84
6.68
6.97
7.65
8.44
8.92
8.69
7.59
5.71
3.41
1.10
-0.86
-2.34
-3.38
-4.21
-5.00
-5.89
-6.83
-7.73
-8.55
-9.34
-10.31
-11.77
-14.03
-17.32
-21.67
-26.81
-32.13
-36.74
-39.56
-39.64
-36.47
-30.21
-21.73
-12.36
-3.50
3.83
9.20
12.77
15.07
16.65
17.86
18.78
19.33
19.45
19.18
18.68
18.14
17.67
17.25
16.71
15.91
14.82
13.59
12.46
11.66
11.23
11.04
10.78
10.24
9.36
8.34
7.52
7.20
7.42
7.95
8.32
8.07
6.98
5.12
2.77
0.29
-2.07
-4.35
-6.74
-9.57
-13.13
-17.54
-22.72
-28.29
-33.60
-37.71
-39.68
-38.77
-34.80
-28.25
-20.17
-11.81
-4.34
1.58
5.75
8.38
9.87
10.62
10.99
11.23
11.51
11.95
12.58
13.37
14.32
15.46
16.83
18.44
20.18
21.83
23.11
23.82
23.86
23.24
22.04
20.31
18.06
15.31
12.16
8.83
5.64
2.86
0.69
-0.89
-2.00
-2.88
-3.69
-4.51
-5.38
-6.27
-7.20
-8.22
-9.44
-10.97
-12.82
-14.96
-17.19
-19.17
-20.47
-20.69
-19.62
-17.34
-14.24
-10.89
-7.89
-5.68
-4.46
-4.18
-4.61
-5.43
-6.38
-7.30
-8.17
-9.13
-10.32
-11.81
-13.55
-15.38
-17.19
-18.97
-20.83
-22.84
-24.91
-26.72
-27.87
-28.07
-27.29
-25.75
-23.77
-21.57
-19.20
-16.62
-13.86
-11.17
-9.01
-7.78
-7.71
-8.71
-10.39
-12.33
-14.26
-16.25
-18.60
-21.71
-25.72
-30.38
-34.90
-38.09
-38.70
-35.83
-29.33
-19.90
-8.88
2.10
11.60
18.80
23.53
26.20
27.49
28.03
28.26
28.36
28.37
28.31
28.23
28.26
28.50
28.96
29.48
29.84
29.87
29.55
28.97
28.31
27.66
26.97
26.10
24.95
23.52
21.96
20.45
19.03
17.54
15.70
13.17
9.85
5.85
1.50
-2.87
-7.08
-11.21
-15.50
-20.27
-25.77
-32.01
-38.74
-45.44
-51.40
-55.79
-57.79
-56.78
-52.51
-45.34
-36.25
-26.68
-18.04
-11.30
-6.64
-3.47
-0.84
2.05
5.44
8.92
11.74
13.24
13.19
11.82
9.66
7.15
4.54
1.90
-0.74
-3.19
-5.16
-6.34
-6.59
-6.07
-5.14
-4.24
-3.76
-3.88
-4.60
-5.79
-7.22
-8.73
-10.22
-11.65
-13.07
-14.57
-16.24
-18.07
-20.01
-22.02
-24.15
-26.52
-29.26
-32.37
-35.61
-38.42
-40.12
-40.09
-37.95
-33.77
-27.96
-21.24
-14.29
-7.73
-1.92
3.03
7.15
10.56
13.38
15.75
17.78
19.60
21.31
22.99
24.64
26.23
27.69
28.99
30.16
31.23
32.26
33.22
34.06
34.69
34.98
34.84
34.20
33.02
31.33
29.25
26.95
24.64
22.52
20.68
19.09
17.66
16.15
14.29
11.86
8.71
4.84
0.41
-4.30
-8.95
-13.26
-16.97
-19.91
-21.79
-22.39
-21.50
-19.10
-15.42
-10.91
-6.11
-1.51
2.61
6.16
9.19
11.72
13.69
15.00
15.58
15.54
15.17
14.83
14.86
15.39
16.35
17.46
18.41
18.98
19.12
18.92
18.53
18.07
17.54
16.85
15.94
14.74
13.30
11.68
9.89
7.91
5.68
3.13
0.29
-2.72
-5.72
-8.62
-11.43
-14.29
-17.38
-20.79
-24.37
-27.72
-30.25
-31.31
-30.44
-27.47
-22.61
-16.40
-9.57
-2.86
3.20
8.33
12.49
15.83
18.46
20.43
21.74
22.40
22.49
22.25
21.95
21.78
21.79
21.85
21.81
21.52
20.97
20.23
19.38
18.50
17.56
16.56
15.49
14.42
13.40
12.47
11.54
10.50
9.18
7.50
5.46
3.20
0.88
-1.33
-3.38
-5.32
-7.31
-9.54
-12.17
-15.24
-18.63
-22.05
-25.10
-27.29
-28.22
-27.68
-25.76
-22.74
-19.10
-15.28
-11.58
-8.19
-5.14
-2.35
0.38
3.32
6.71
10.69
15.11
19.59
23.55
26.53
28.35
29.13
29.27
29.16
29.04
28.88
28.56
27.95
27.04
25.92
24.71
23.42
21.98
20.26
18.19
15.79
13.16
10.49
7.88
5.40
3.01
0.65
-1.76
-4.29
-6.97
-9.88
-13.04
-16.54
-20.41
-24.69
-29.39
-34.39
-39.35
-43.66
-46.51
-47.10
-44.98
-40.28
-33.67
-26.21
-18.97
-12.67
-7.61
-3.63
-0.42
2.29
4.70
6.87
8.87
10.78
12.71
14.70
16.65
18.35
19.60
20.29
20.50
20.52
20.72
21.39
22.56
24.04
25.44
26.36
26.56
26.02
24.95
23.74
22.73
22.13
21.95
22.00
21.95
21.53
20.56
19.01
16.95
14.51
11.75
8.68
5.26
1.43
-2.81
-7.44
-12.32
-17.21
-21.78
-25.46
-27.64
-27.78
-25.66
-21.59
-16.40
-11.20
-6.93
-4.04
-2.38
-1.36
-0.40
0.74
1.79
2.22
1.57
-0.16
-2.44
-4.44
-5.39
-4.86
-2.91
0.09
3.64
7.30
10.74
13.67
15.88
17.18
17.51
16.98
15.88
14.56
13.31
12.24
11.29
10.28
8.98
7.26
5.05
2.43
-0.48
-3.56
-6.74
-10.04
-13.59
-17.49
-21.80
-26.41
-30.99
-35.07
-38.02
-39.19
-38.07
-34.49
-28.76
-21.56
-13.87
-6.61
-0.44
4.36
7.85
10.28
11.95
13.13
14.04
14.87
15.75
16.71
17.71
18.62
19.29
19.58
19.41
18.80
17.85
16.69
15.48
14.34
13.29
12.24
11.04
9.50
7.52
5.08
2.24
-0.94
-4.40
-8.14
-12.12
-16.26
-20.43
-24.47
-28.32
-32.02
-35.74
-39.60
-43.58
-47.39
-50.43
-51.91
-51.07
-47.41
-41.01
-32.49
-22.89
-13.35
-4.74
2.46
8.27
12.94
16.75
19.88
22.37
24.21
25.41
26.05
26.24
26.11
25.78
25.33
24.87
24.44
24.04
23.59
22.93
21.94
20.51
18.66
16.51
14.20
11.93
9.82
7.96
6.35
4.86
3.24
1.19
-1.65
-5.61
-10.88
-17.49
-25.32
-34.06
-43.26
-52.22
-60.03
-65.60
-67.89
-66.19
-60.39
-51.11
-39.54
-27.16
-15.30
-4.85
3.80
10.66
15.92
19.79
22.40
23.84
24.24
23.82
22.90
21.82
20.92
20.41
20.35
20.64
21.10
21.48
21.59
21.33
20.72
19.78
18.55
16.93
14.64
11.41
7.14
2.01
-3.38
-8.23
-11.86
-14.04
-15.14
-15.95
-17.38
-20.06
-24.20
-29.63
-35.90
-42.40
-48.26
-52.38
-53.58
-50.90
-44.05
-33.70
-21.34
-8.78
2.37
11.24
17.66
22.03
24.89
26.68
27.67
28.10
28.20
28.27
28.52
28.99
29.52
29.82
29.65
28.92
27.75
26.44
25.30
24.51
23.98
23.39
22.31
20.38
17.43
13.63
9.36
5.08
1.18
-2.25
-5.39
-8.67
-12.56
-17.44
-23.46
-30.41
-37.63
-44.07
-48.37
-49.26
-45.92
-38.39
-27.68
-15.48
-3.66
6.32
13.80
18.89
22.21
24.45
26.04
27.11
27.62
27.59
27.19
26.67
26.27
26.05
25.90
25.58
24.91
23.77
22.26
20.54
18.83
17.24
15.82
14.40
12.76
10.58
7.62
3.77
-0.84
-5.94
-11.13
-16.11
-20.75
-25.19
-29.73
-34.70
-40.38
-46.85
-53.94
-61.11
-67.48
-71.86
-72.88
-69.34
-60.68
-47.24
-30.37
-12.11
5.34
20.23
31.66
39.59
44.59
47.38
48.53
48.34
46.94
44.57
41.69
38.93
36.96
36.13
36.34
37.18
38.03
38.41
38.11
37.17
35.80
34.20
32.50
30.64
28.49
25.79
22.30
17.92
12.74
7.05
1.26
-4.24
-9.26
-13.89
-18.41
-23.17
-28.41
-34.30
-40.79
-47.63
-54.13
-59.20
-61.41
-59.47
-52.77
-41.75
-27.92
-13.36
-0.01
10.86
18.91
24.51
28.26
30.66
32.01
32.48
32.37
32.09
32.06
32.53
33.45
34.44
35.01
34.78
33.64
31.75
29.43
27.01
24.70
22.58
20.60
18.72
16.87
15.00
13.03
10.83
8.32
5.45
2.31
-0.92
-4.09
-7.12
-10.11
-13.22
-16.60
-20.34
-24.42
-28.77
-33.27
-37.64
-41.36
-43.68
-43.78
-41.02
-35.28
-27.12
-17.54
-7.74
1.28
8.89
14.87
19.27
22.21
23.84
24.35
23.95
22.94
21.60
20.13
18.64
17.10
15.45
13.64
11.71
9.83
8.24
7.20
6.85
7.12
7.65
7.94
7.46
5.84
3.01
-0.79
-5.12
-9.45
-13.41
-16.89
-20.02
-23.17
-26.72
-30.92
-35.77
-40.96
-45.83
-49.44
-50.74
-48.92
-43.63
-35.27
-24.86
-13.84
-3.53
5.16
11.96
17.08
20.86
23.61
25.40
26.22
26.10
25.24
23.98
22.73
21.79
21.29
21.17
21.24
21.30
21.13
20.64
19.80
18.66
17.28
15.70
13.89
11.74
9.15
6.04
2.41
-1.60
-5.73
-9.64
-13.06
-15.90
-18.29
-20.58
-23.20
-26.51
-30.75
-35.93
-41.73
-47.56
-52.44
-55.24
-54.91
-50.86
-43.20
-32.84
-21.15
-9.59
0.73
9.27
16.01
21.23
25.29
28.44
30.83
32.53
33.63
34.19
34.34
34.17
33.77
33.16
32.34
31.28
29.97
28.44
26.77
25.08
23.44
21.85
20.21
18.38
16.21
13.63
10.65
7.40
4.01
0.61
-2.74
-6.05
-9.42
-12.95
-16.76
-20.95
-25.57
-30.66
-36.19
-41.98
-47.62
-52.43
-55.51
-55.99
-53.33
-47.58
-39.41
-29.98
-20.52
-11.96
-4.78
1.02
5.63
9.26
11.93
13.60
14.23
14.03
13.36
12.70
12.40
12.59
13.03
13.35
13.17
12.31
10.84
9.03
7.22
5.64
4.32
3.15
1.89
0.33
-1.63
-3.99
-6.60
-9.26
-11.81
-14.19
-16.48
-18.92
-21.77
-25.24
-29.42
-34.14
-38.95
-43.04
-45.37
-44.92
-40.99
-33.60
-23.54
-12.25
-1.34
7.92
14.90
19.64
22.59
24.27
25.03
25.05
24.43
23.36
22.12
21.06
20.43
20.33
20.62
21.01
21.15
20.79
19.78
18.19
16.21
14.09
12.03
10.12
8.34
6.54
4.58
2.35
-0.10
-2.63
-5.00
-6.97
-8.40
-9.36
-10.11
-11.07
-12.68
-15.32
-19.23
-24.36
-30.34
-36.34
-41.28
-43.98
-43.50
-39.55
-32.57
-23.60
-13.95
-4.73
3.37
10.05
15.33
19.26
21.93
23.43
24.01
23.99
23.74
23.51
23.37
23.23
22.97
22.47
21.71
20.66
19.31
17.71
15.99
14.41
13.29
12.81
12.87
13.11
12.98
12.02
10.07
7.30
4.10
0.93
-1.94
-4.52
-7.04
-9.87
-13.39
-17.84
-23.27
-29.38
-35.48
-40.52
-43.30
-42.85
-38.78
-31.48
-22.03
-11.83
-2.10
6.41
13.48
19.19
23.70
27.07
29.26
30.34
30.52
30.18
29.76
29.52
29.51
29.56
29.37
28.65
27.19
24.94
21.98
18.52
14.83
11.13
7.50
3.87
0.05
-4.13
-8.70
-13.47
-18.08
-22.13
-25.35
-27.79
-29.84
-32.10
-35.20
-39.51
-45.03
-51.32
-57.61
-62.90
-66.27
-66.94
-64.54
-59.08
-51.04
-41.24
-30.66
-20.32
-10.97
-3.07
3.29
8.21
11.88
14.51
16.26
17.34
18.04
18.70
19.65
21.11
23.07
25.30
27.49
29.33
30.65
31.47
31.85
31.81
31.24
29.89
27.49
23.90
19.27
14.02
8.72
3.87
-0.27
-3.77
-7.06
-10.73
-15.42
-21.47
-28.76
-36.54
-43.56
-48.28
-49.32
-45.91
-38.10
-26.80
-13.52
0.08
12.55
22.92
30.74
35.97
38.83
39.70
39.02
37.25
34.88
32.40
30.18
28.45
27.17
26.10
24.90
23.24
21.01
18.33
15.59
13.14
11.25
9.89
8.73
7.28
5.09
1.94
-2.05
-6.48
-10.88
-14.91
-18.48
-21.84
-25.44
-29.79
-35.23
-41.71
-48.72
-55.32
-60.30
-62.47
-61.08
-55.99
-47.79
-37.61
-26.74
-16.29
-7.00
0.85
7.32
12.58
16.84
20.19
22.70
24.40
25.44
26.01
26.35
26.66
26.99
27.27
27.32
26.95
26.11
24.91
23.58
22.34
21.31
20.37
19.23
17.53
14.96
11.49
7.31
2.80
-1.63
-5.65
-9.19
-12.41
-15.61
-19.20
-23.49
-28.70
-34.78
-41.37
-47.73
-52.85
-55.62
-55.20
-51.18
-43.85
-34.02
-22.85
-11.55
-1.10
7.86
15.09
20.61
24.66
27.55
29.57
30.97
31.93
32.60
33.11
33.55
34.01
34.44
34.73
34.79
34.56
34.10
33.50
32.90
32.28
31.48
30.23
28.16
25.06
20.84
15.66
9.88
3.91
-1.83
-7.03
-11.55
-15.43
-18.83
-22.03
-25.41
-29.28
-33.84
-39.03
-44.42
-49.25
-52.61
-53.67
-51.94
-47.38
-40.42
-31.74
-22.11
-12.15
-2.33
6.98
15.47
22.81
28.68
32.80
35.10
35.71
34.89
33.03
30.50
27.58
24.56
21.69
19.24
17.42
16.35
15.98
16.07
16.23
16.04
15.14
13.34
10.59
7.02
2.90
-1.43
-5.61
-9.40
-12.74
-15.79
-18.91
-22.50
-26.86
-32.04
-37.74
-43.27
-47.66
-49.85
-48.98
-44.69
-37.26
-27.59
-16.90
-6.40
3.01
10.91
17.25
22.14
25.68
27.95
29.04
29.17
28.68
27.99
27.44
27.22
27.33
27.67
28.09
28.47
28.75
28.86
28.80
28.49
27.87
26.80
25.16
22.84
19.87
16.39
12.68
9.02
5.63
2.52
-0.42
-3.48
-6.96
-11.14
-16.27
-22.44
-29.49
-36.96
-43.93
-49.23
-51.70
-50.56
-45.69
-37.76
-27.96
-17.61
-7.81
0.80
8.04
14.02
18.90
22.77
25.60
27.38
28.12
27.97
27.15
25.94
24.57
23.21
22.00
21.02
20.33
20.00
20.02
20.32
20.72
20.94
20.63
19.41
17.03
13.47
8.92
3.85
-1.26
-6.00
-10.17
-13.82
-17.15
-20.44
-23.96
-27.94
-32.53
-37.75
-43.29
-48.45
-52.20
-53.40
-51.21
-45.51
-36.96
-26.88
-16.76
-7.79
-0.55
5.00
9.32
12.89
16.02
18.76
21.05
22.88
24.36
25.77
27.34
29.18
31.22
33.24
35.07
36.63
37.91
38.94
39.66
39.92
39.48
38.14
35.80
32.48
28.33
23.55
18.38
13.04
7.75
2.59
-2.39
-7.26
-12.17
-17.29
-22.76
-28.64
-34.73
-40.48
-44.95
-47.05
-45.83
-40.93
-32.81
-22.68
-12.18
-2.74
4.76
10.18
13.92
16.50
18.29
19.32
19.53
18.88
17.64
16.24
15.14
14.64
14.68
14.94
14.98
14.49
13.43
12.01
10.61
9.52
8.81
8.24
7.35
5.62
2.73
-1.27
-5.94
-10.69
-14.92
-18.35
-21.11
-23.57
-26.29
-29.73
-34.19
-39.75
-46.17
-52.81
-58.60
-62.22
-62.44
-58.57
-50.79
-40.16
-28.27
-16.70
-6.54
1.80
8.48
13.94
18.50
22.32
25.36
27.54
28.86
29.43
29.43
29.12
28.73
28.40
28.17
27.94
27.59
26.98
26.10
24.99
23.71
22.29
20.68
18.83
16.71
14.36
11.81
9.05
6.02
2.65
-1.05
-4.98
-8.96
-12.84
-16.56
-20.20
-23.96
-28.08
-32.76
-38.13
-44.14
-50.46
-56.32
-60.58
-61.98
-59.51
-52.88
-42.67
-30.25
-17.32
-5.38
4.67
12.58
18.58
23.09
26.38
28.64
29.97
30.54
30.61
30.49
30.37
30.27
30.10
29.71
29.11
28.50
28.19
28.42
29.16
30.09
30.67
30.41
29.01
26.58
23.54
20.37
17.53
15.16
13.13
11.08
8.62
5.46
1.58
-2.83
-7.34
-11.55
-15.22
-18.40
-21.42
-24.76
-28.87
-33.96
-39.86
-45.93
-51.10
-54.16
-54.02
-50.17
-42.81
-32.90
-21.77
-10.78
-0.91
7.33
13.79
18.51
21.51
22.85
22.72
21.52
19.87
18.37
17.47
17.27
17.66
18.33
18.99
19.41
19.48
19.19
18.64
17.90
17.07
16.17
15.16
13.94
12.37
10.36
7.82
4.78
1.37
-2.16
-5.55
-8.63
-11.42
-14.13
-17.11
-20.73
-25.19
-30.46
-36.22
-41.83
-46.45
-49.13
-49.03
-45.67
-39.14
-30.12
-19.73
-9.24
0.29
8.17
14.18
18.41
21.18
22.79
23.55
23.70
23.39
22.81
22.11
21.44
20.91
20.54
20.26
19.99
19.67
19.34
19.08
18.96
18.95
18.85
18.40
17.42
15.92
14.05
12.11
10.28
8.59
6.82
4.69
1.93
-1.50
-5.43
-9.52
-13.46
-17.11
-20.62
-24.30
-28.55
-33.59
-39.35
-45.37
-50.87
-54.85
-56.26
-54.34
-48.82
-40.13
-29.37
-18.04
-7.60
0.91
7.13
11.33
14.07
15.98
17.46
18.69
19.75
20.70
21.67
22.73
23.87
24.97
25.86
26.43
26.74
26.98
27.37
27.99
28.76
29.37
29.41
28.59
26.76
24.06
20.78
17.29
13.87
10.63
7.52
4.39
1.05
-2.57
-6.45
-10.47
-14.53
-18.59
-22.74
-27.11
-31.86
-37.12
-42.81
-48.62
-53.91
-57.74
-59.10
-57.23
-51.88
-43.58
-33.39
-22.68
-12.64
-4.00
2.95
8.31
12.32
15.17
17.08
18.22
18.80
19.04
19.14
19.22
19.33
19.49
19.70
19.88
19.98
19.91
19.63
19.15
18.53
17.79
16.92
15.81
14.36
12.44
10.00
7.04
3.65
-0.03
-3.79
-7.41
-10.68
-13.54
-16.08
-18.56
-21.37
-24.87
-29.26
-34.49
-40.18
-45.55
-49.56
-51.14
-49.42
-44.15
-35.83
-25.59
-14.91
-5.08
3.09
9.41
14.12
17.64
20.25
22.07
23.08
23.25
22.71
21.74
20.68
19.86
19.47
19.48
19.70
19.84
19.62
18.93
17.85
16.62
15.47
14.53
13.64
12.50
10.76
8.20
4.85
1.02
-2.90
-6.56
-9.79
-12.70
-15.63
-18.96
-23.05
-28.10
-34.15
-40.93
-47.90
-54.16
-58.57
-59.99
-57.68
-51.64
-42.66
-32.14
-21.63
-12.34
-4.89
0.65
4.56
7.19
8.79
9.52
9.53
9.00
8.14
7.10
5.92
4.50
2.73
0.50
-2.18
-5.25
-8.63
-12.25
-16.12
-20.24
-24.62
-29.23
-34.09
-39.26
-44.89
-51.16
-58.10
-65.56
-73.17
-80.45
-86.94
-92.30
-96.22
-98.42
-98.57
-96.39
-91.98
-85.83
-78.81
-71.70
-64.81
-57.66
-49.21
-38.35
-24.51
-8.09
9.54
26.45
40.77
51.18
57.10
58.72
56.79
52.45
47.07
42.18
39.19
39.02
41.81
46.78
52.44
57.19
59.94
60.63
60.11
59.67
60.31
62.19
64.62
66.48
66.89
65.71
63.59
61.64
61.05
62.68
67.04
74.36
84.40
96.33
108.45
118.42
123.90
123.70
118.42
110.35
102.34
96.28
92.11
87.97
81.39
70.86
56.81
41.43
27.65
17.88
13.00
12.41
14.53
17.63
20.48
22.50
23.73
24.36
24.45
23.61
21.13
16.35
9.08
0.01
-9.44
-17.59
-23.09
-25.48
-25.10
-22.86
-19.72
-16.40
-13.28
-10.64
-8.85
-8.35
-9.42
-11.84
-14.80
-17.16
-18.02
-17.28
-15.68
-14.44
-14.56
-16.37
-19.65
-23.97
-29.11
-35.10
-41.98
-49.39
-56.39
-61.57
-63.59
-61.70
-56.12
-48.00
-39.17
-31.60
-26.82
-25.49
-27.21
-30.75
-34.73
-38.35
-41.78
-46.06
-52.22
-60.43
-69.42
-76.65
-79.45
-76.46
-68.61
-59.17
-52.31
-51.18
-56.29
-65.06
-72.66
-73.61
-63.55
-40.64
-6.29
35.07
77.07
113.12
138.48
151.66
154.62
151.50
146.58
142.66
140.47
139.71
140.40
143.60
150.76
162.21
176.02
187.98
193.06
187.44
169.86
141.69
106.03
66.37
25.85
-12.90
-47.69
-76.91
-100.00
-118.08
-134.18
-152.41
-176.40
-207.43
-243.23
-278.43
-306.22
-320.68
-318.64
-300.28
-268.44
-227.14
-180.17
-130.41
-79.77
-29.62
18.83
64.09
104.36
137.44
160.92
172.68
171.86
159.62
139.63
117.14
97.40
83.88
77.26
75.58
75.55
74.03
69.16
60.48
48.50
34.08
18.07
1.37
-15.08
-30.28
-43.58
-54.98
-65.23
-75.40
-86.22
-97.38
-107.48
-114.42
-116.46
-113.07
-105.34
-95.53
-86.04
-78.29
-72.19
-66.43
-59.33
-49.81
-37.89
-24.64
-11.54
0.15
9.77
17.30
23.06
27.42
30.64
32.92
34.49
35.75
37.18
39.23
42.10
45.55
48.91
51.31
51.98
50.57
47.35
43.12
38.82
35.22
32.52
30.39
28.15
25.16
21.13
16.24
11.07
6.25
2.29
-0.76
-3.26
-5.86
-9.26
-13.85
-19.51
-25.46
-30.49
-33.23
-32.62
-28.28
-20.63
-10.71
0.17
10.86
20.61
29.09
36.25
42.03
46.35
49.11
50.31
50.21
49.28
48.07
47.00
46.28
45.84
45.46
44.95
44.24
43.41
42.59
41.86
41.17
40.35
39.11
37.13
34.23
30.46
26.10
21.58
17.32
13.62
10.60
8.13
5.87
3.43
0.39
-3.57
-8.59
-14.53
-20.83
-26.84
-32.18
-37.01
-41.82
-47.01
-52.49
-57.47
-60.76
-60.86
-56.85
-48.95
-38.65
-28.08
-19.12
-12.93
-9.75
-9.07
-9.25
-8.37
-4.93
1.56
10.67
21.38
32.07
40.63
44.75
43.59
37.87
29.91
22.87
20.07
24.00
35.30
52.14
66.04
68.76
56.59
33.11
5.77
-19.03
-37.81
-49.60
-54.71
-54.09
-48.12
-37.85
-25.49
-14.72
-9.26
-11.05
-19.45
-31.63
-43.78
-51.88
-53.28
-47.17
-35.17
-20.37
-5.99
5.49
12.49
14.36
11.69
5.91
-1.18
-7.99
-13.38
-16.72
-18.02
-17.86
-17.06
-15.98
-14.50
-12.22
-8.88
-4.69
-0.18
3.79
6.40
7.03
5.59
2.50
-1.33
-4.80
-6.95
-7.24
-5.84
-3.62
-1.72
-1.13
-2.24
-4.83
-8.30
-12.08
-15.81
-19.44
-22.95
-26.31
-29.45
-32.41
-35.35
-38.37
-41.35
-43.76
-44.83
-43.85
-40.49
-34.91
-27.70
-19.58
-10.99
-2.16
6.71
15.25
22.91
29.23
33.92
37.07
39.03
40.42
41.76
43.29
44.83
46.12
47.15
48.33
50.38
53.78
58.75
64.67
70.13
73.16
72.28
67.30
59.46
51.11
44.40
41.01
41.26
44.35
48.49
52.21
54.90
57.05
59.62
59.35
53.17
39.92
21.72
1.45
-19.12
-39.65
-61.45
-84.49
-107.27
-127.18
-142.14
-148.65
-146.48
-138.79
-131.73
-130.37
-136.84
-149.75
-164.62
-175.89
-177.95
-168.89
-150.61
-128.57
-106.31
-84.59
-61.54
-34.18
0.05
43.35
94.22
147.53
194.82
230.91
254.45
267.44
272.94
263.01
233.68
187.00
141.16
100.35
66.05
36.88
14.25
-1.54
-12.00
-18.15
-21.57
-23.93
-28.26
-34.78
-42.45
-49.79
-55.91
-60.11
-60.32
-55.02
-44.07
-30.14
-15.08
-0.19
13.87
26.34
36.56
44.73
51.07
55.71
58.15
59.17
59.86
60.82
61.40
60.13
55.90
48.08
36.64
21.69
4.32
-13.88
-31.14
-45.87
-56.93
-63.67
-66.21
-65.43
-62.71
-59.30
-56.09
-53.64
-52.33
-52.34
-53.46
-55.08
-56.19
-55.83
-53.47
-49.24
-43.82
-37.99
-32.25
-26.67
-21.04
-15.08
-8.66
-1.85
5.23
12.35
19.08
24.57
27.65
27.14
22.52
14.39
4.41
-5.26
-13.08
-18.83
-23.77
-30.05
-39.72
-53.92
-72.67
-95.29
-120.92
-148.74
-177.61
-205.40
-228.70
-243.41
-245.98
-234.86
-211.15
-178.13
-139.88
-99.81
-60.02
-21.68
14.04
45.29
69.66
85.26
91.80
91.15
86.73
82.20
80.05
80.84
83.33
85.48
85.70
83.81
81.27
80.65
84.42
93.74
107.81
124.00
138.84
149.43
154.36
154.08
150.26
144.79
138.92
133.01
126.78
119.97
112.76
105.82
99.99
95.79
93.15
91.47
89.83
87.39
83.71
78.93
73.73
68.95
65.29
62.95
61.53
60.21
58.18
54.96
50.66
45.86
41.24
37.32
34.18
31.61
29.32
27.17
25.18
23.45
21.95
20.42
18.35
15.13
10.29
3.66
-4.62
-14.27
-25.13
-37.55
-52.46
-71.09
-94.31
-122.00
-152.74
-184.04
-212.86
-236.07
-250.71
-254.09
-244.09
-219.75
-182.10
-134.52
-82.31
-31.34
13.41
49.00
74.57
90.71
98.65
99.81
95.94
89.25
82.09
76.12
71.61
67.26
61.05
51.42
38.22
22.85
7.39
-6.38
-17.78
-27.08
-34.85
-41.29
-46.01
-48.27
-47.63
-44.35
-39.33
-33.68
-28.27
-23.41
-18.92
-14.43
-9.79
-5.28
-1.50
0.87
1.42
0.28
-1.98
-4.55
-6.69
-7.96
-8.33
-8.16
-7.93
-8.19
-9.39
-11.67
-14.95
-18.78
-22.67
-26.17
-29.14
-31.80
-34.58
-37.89
-41.85
-46.21
-50.47
-54.13
-56.95
-59.10
-61.01
-63.25
-66.28
-70.35
-75.45
-81.17
-86.65
-90.43
-90.77
-86.09
-75.64
-59.97
-40.86
-20.85
-2.41
12.81
24.19
31.99
36.88
39.59
40.71
40.82
40.58
40.78
42.13
44.96
49.10
53.86
58.25
61.32
62.48
61.66
59.33
56.31
53.52
51.63
50.82
50.66
50.14
47.90
42.72
33.91
21.68
7.06
-8.51
-23.72
-37.85
-50.92
-63.34
-75.36
-86.67
-96.23
-102.71
-105.01
-102.88
-97.07
-89.05
-80.46
-72.37
-64.99
-57.78
-49.96
-41.15
-31.79
-23.12
-16.76
-14.19
-16.17
-22.33
-30.76
-38.06
-39.77
-31.56
-10.74
22.47
64.57
109.60
151.08
184.14
206.76
219.93
226.41
229.19
230.05
229.05
224.90
216.14
202.32
184.88
167.09
153.09
146.22
147.37
154.46
163.02
168.02
165.82
155.29
137.75
115.79
91.87
67.42
43.00
18.84
-4.44
-25.68
-43.65
-57.67
-68.08
-75.97
-82.54
-88.53
-94.03
-98.72
-102.34
-105.15
-107.89
-111.62
-116.89
-123.06
-128.14
-129.12
-122.95
-107.72
-83.74
-54.00
-23.83
0.98
16.07
20.03
14.47
3.12
-9.74
-20.85
-28.68
-34.00
-37.98
-41.25
-43.79
-45.75
-47.92
-51.57
-57.88
-67.19
-80.29
-96.32
-112.99
-127.87
-139.81
-149.25
-157.35
-165.00
-172.23
-180.77
-190.77
-200.67
-208.24
-212.25
-213.17
-212.41
-211.90
-213.32
-220.76
-235.21
-253.45
-269.45
-277.76
-276.02
-264.90
-247.87
-208.95
-145.70
-68.76
4.77
62.97
102.82
126.81
139.88
146.78
151.60
154.26
155.00
154.90
156.61
161.53
169.53
180.94
196.45
217.25
241.90
269.29
298.79
329.89
361.53
385.90
397.98
395.48
379.22
350.95
314.36
274.24
235.04
199.34
167.29
138.15
110.02
80.87
48.90
14.33
-20.32
-51.16
-74.81
-89.71
-95.44
-93.05
-84.10
-70.47
-54.33
-38.74
-28.07
-27.44
-41.00
-69.28
-108.65
-152.06
-191.55
-221.18
-238.80
-245.89
-245.56
-240.14
-229.54
-211.76
-184.66
-147.59
-102.00
-50.38
5.27
64.17
125.71
187.61
244.43
288.12
311.03
309.42
285.71
247.87
206.20
169.37
141.62
122.55
109.02
97.72
86.89
76.47
67.04
58.67
50.50
41.06
29.08
14.13
-3.20
-21.65
-39.91
-57.13
-73.20
-88.64
-104.13
-120.27
-137.25
-154.90
-172.91
-190.94
-208.77
-226.15
-242.71
-257.89
-271.04
-281.53
-289.07
-293.88
-296.95
-299.91
-304.54
-311.85
-321.06
-329.15
-331.37
-322.75
-300.08
-263.32
-215.72
-162.46
-108.61
-57.50
-10.18
33.89
75.61
115.10
151.20
181.62
203.58
214.75
214.19
203.14
185.22
165.79
150.68
144.65
150.31
167.65
194.23
225.51
255.53
278.01
287.98
283.61
267.47
245.98
226.98
216.32
215.24
220.05
224.23
221.76
209.88
189.73
164.92
139.24
114.95
92.41
70.97
50.11
30.12
12.11
-2.65
-13.31
-19.92
-23.40
-25.21
-26.88
-29.52
-33.46
-38.31
-43.28
-47.80
-51.85
-55.99
-61.02
-67.35
-74.65
-81.87
-87.78
-91.54
-93.03
-92.84
-91.75
-90.24
-88.16
-84.74
-79.11
-70.74
-59.87
-47.48
-35.01
-23.86
-14.94
-8.55
-4.54
-2.62
-2.57
-4.35
-7.87
-12.75
-18.27
-23.36
-27.00
-28.46
-27.52
-24.52
-20.13
-15.20
-10.44
-6.28
-2.87
-0.10
2.16
3.96
5.11
5.32
4.34
2.19
-0.89
-4.48
-8.22
-11.95
-15.60
-19.12
-22.33
-24.92
-26.67
-27.46
-27.32
-26.21
-23.96
-20.27
-14.95
-8.15
-0.42
7.41
14.54
20.45
24.87
27.62
28.46
27.05
23.17
17.10
9.68
2.33
-3.40
-6.37
-6.19
-3.33
1.13
5.94
10.13
13.25
15.39
16.90
18.18
19.39
20.44
21.01
20.75
19.49
17.29
14.52
11.74
9.48
8.05
7.38
7.12
6.81
6.22
5.42
4.75
4.60
5.02
5.62
5.68
4.53
1.88
-1.93
-6.12
-9.77
-12.24
-13.46
-13.84
-14.11
-15.05
-17.27
-21.12
-26.63
-33.51
-41.08
-48.36
-54.15
-57.35
-57.29
-53.99
-48.11
-40.69
-32.81
-25.22
-18.23
-11.88
-6.14
-1.09
3.05
6.07
7.93
8.80
9.04
8.99
8.91
8.88
8.89
8.86
8.78
8.72
8.76
9.11
9.95
11.45
13.62
16.25
18.96
21.19
22.43
22.33
20.79
17.95
14.14
9.77
5.18
0.62
-3.71
-7.73
-11.46
-15.09
-18.99
-23.64
-29.39
-36.23
-43.64
-50.59
-55.82
-58.27
-57.37
-53.34
-46.99
-39.39
-31.59
-24.26
-17.75
-12.12
-7.28
-3.09
0.60
3.96
7.15
10.27
13.34
16.26
18.84
20.93
22.43
23.29
23.55
23.30
22.75
22.16
21.81
21.86
22.26
22.67
22.67
21.86
20.14
17.74
15.06
12.55
10.42
8.58
6.69
4.35
1.32
-2.37
-6.42
-10.43
-14.16
-17.78
-21.88
-27.20
-34.23
-42.82
-52.00
-60.16
-65.59
-66.99
-63.90
-56.72
-46.58
-34.85
-22.79
-11.35
-1.00
8.09
16.07
23.21
29.92
36.60
43.49
50.49
57.11
62.57
66.19
67.76
67.83
67.48
67.88
69.63
72.33
74.62
74.75
71.29
63.73
52.63
39.18
24.78
10.58
-2.54
-13.89
-22.87
-29.12
-32.70
-34.27
-34.95
-35.87
-37.75
-40.52
-43.52
-45.88
-47.05
-47.04
-46.25
-45.12
-43.80
-42.12
-39.78
-36.59
-32.64
-28.22
-23.63
-19.01
-14.27
-9.27
-3.97
1.39
6.39
10.53
13.52
15.36
16.29
16.71
17.01
17.44
18.08
18.83
19.43
19.56
18.96
17.59
15.70
13.75
12.29
11.71
12.06
13.06
14.19
14.94
14.89
13.89
11.88
8.89
4.97
0.15
-5.42
-11.51
-17.78
-23.93
-29.79
-35.39
-40.98
-46.79
-52.91
-59.13
-64.91
-69.43
-71.74
-70.94
-66.45
-58.23
-46.95
-33.92
-20.80
-9.12
0.10
6.59
10.67
12.97
14.03
14.21
13.64
12.46
10.92
9.39
8.28
7.89
8.30
9.44
11.12
13.10
15.20
17.22
19.04
20.48
21.37
21.55
20.96
19.64
17.76
15.60
13.44
11.42
9.57
7.78
5.92
3.87
1.55
-1.12
-4.20
-7.79
-11.93
-16.59
-21.55
-26.42
-30.57
-33.36
-34.20
-32.77
-29.04
-23.32
-16.17
-8.24
-0.22
7.25
13.67
18.72
22.33
24.69
26.17
27.20
28.18
29.27
30.49
31.72
32.82
33.65
34.13
34.18
33.78
32.95
31.78
30.46
29.16
27.99
26.96
25.91
24.66
23.05
21.00
18.54
15.67
12.39
8.56
4.07
-1.15
-6.97
-13.05
-18.95
-24.22
-28.54
-31.78
-33.95
-34.99
-34.78
-33.02
-29.41
-23.79
-16.34
-7.57
1.82
11.11
19.83
27.70
34.65
40.59
45.29
48.42
49.59
48.65
45.73
41.27
35.77
29.52
22.52
14.54
5.39
-4.81
-15.46
-25.68
-34.60
-41.68
-46.93
-50.83
-54.17
-57.77
-62.39
-68.49
-76.16
-84.90
-93.63
-100.77
-104.69
-104.25
-99.23
-90.43
-79.41
-68.01
-57.78
-49.65
-43.87
-40.20
-38.00
-36.42
-34.44
-31.02
-25.38
-17.23
-6.95
4.51
15.92
26.21
34.66
41.06
45.52
48.35
49.86
50.32
49.96
48.92
47.33
45.28
42.85
40.20
37.48
34.86
32.44
30.24
28.21
26.26
24.33
22.43
20.57
18.83
17.25
15.89
14.74
13.74
12.78
11.73
10.50
9.07
7.52
5.87
4.13
2.16
-0.27
-3.47
-7.67
-12.91
-18.96
-25.25
-30.98
-35.17
-37.00
-35.93
-31.96
-25.54
-17.53
-8.85
-0.32
7.52
14.31
19.89
24.14
27.06
28.77
29.55
29.79
29.85
29.97
30.23
30.54
30.83
31.05
31.23
31.43
31.65
31.79
31.66
31.11
30.04
28.48
26.55
24.33
21.86
19.10
16.00
12.60
9.03
5.47
2.05
-1.23
-4.52
-7.97
-11.70
-15.68
-19.80
-23.98
-28.21
-32.53
-36.85
-40.78
-43.65
-44.60
-42.96
-38.53
-31.73
-23.53
-15.07
-7.35
-0.92
4.14
8.05
11.13
13.64
15.69
17.30
18.47
19.27
19.81
20.26
20.77
21.45
22.30
23.27
24.14
24.75
24.93
24.67
24.06
23.31
22.57
21.88
21.14
20.18
18.83
16.99
14.65
11.92
8.90
5.72
2.47
-0.77
-3.98
-7.20
-10.55
-14.13
-18.12
-22.62
-27.59
-32.79
-37.64
-41.31
-42.85
-41.53
-37.15
-30.16
-21.60
-12.77
-4.81
1.55
6.08
8.87
10.20
10.54
10.45
10.62
11.66
13.90
17.16
20.87
24.29
26.80
28.19
28.61
28.38
27.82
27.07
26.16
25.08
23.83
22.46
20.95
19.16
16.85
13.82
10.04
5.73
1.32
-2.73
-6.15
-9.00
-11.66
-14.69
-18.66
-23.94
-30.57
-38.17
-45.87
-52.39
-56.29
-56.30
-51.79
-43.05
-31.34
-18.44
-6.19
4.16
12.09
17.77
21.73
24.49
26.38
27.49
27.82
27.42
26.47
25.31
24.33
23.90
24.22
25.23
26.70
28.27
29.62
30.52
30.86
30.61
29.76
28.32
26.26
23.68
20.67
17.35
13.82
10.07
6.10
1.98
-2.12
-5.94
-9.31
-12.26
-15.06
-18.12
-21.80
-26.36
-31.82
-37.97
-44.32
-50.02
-53.92
-54.78
-51.65
-44.32
-33.55
-20.93
-8.40
2.41
10.66
16.37
20.13
22.64
24.38
25.55
26.15
26.25
25.99
25.61
25.28
25.01
24.72
24.31
23.79
23.29
23.00
22.99
23.13
23.13
22.60
21.29
19.19
16.52
13.63
10.82
8.25
5.91
3.65
1.29
-1.30
-4.14
-7.15
-10.18
-13.12
-15.97
-18.89
-22.20
-26.23
-31.23
-37.00
-42.90
-47.80
-50.39
-49.55
-44.86
-36.72
-26.37
-15.45
-5.42
2.79
8.99
13.50
16.83
19.36
21.19
22.29
22.66
22.49
22.11
21.85
21.90
22.26
22.82
23.50
24.26
25.09
25.93
26.61
26.87
26.46
25.26
23.29
20.73
17.82
14.78
11.72
8.69
5.69
2.75
-0.15
-2.97
-5.68
-8.28
-10.81
-13.37
-16.13
-19.34
-23.25
-28.02
-33.50
-39.15
-43.96
-46.74
-46.37
-42.31
-34.77
-24.77
-13.83
-3.45
5.24
11.74
16.18
19.08
21.00
22.36
23.31
23.83
23.89
23.59
23.12
22.78
22.78
23.17
23.80
24.44
24.82
24.80
24.31
23.43
22.22
20.81
19.26
17.58
15.70
13.50
10.86
7.76
4.31
0.72
-2.78
-6.05
-9.10
-12.00
-14.93
-18.02
-21.40
-25.19
-29.56
-34.57
-40.08
-45.47
-49.75
-51.65
-50.12
-44.79
-36.13
-25.42
-14.30
-4.23
3.95
10.06
14.45
17.59
19.78
21.10
21.46
20.87
19.52
17.85
16.33
15.36
15.06
15.31
15.84
16.39
16.79
17.05
17.20
17.30
17.33
17.18
16.68
15.67
14.00
11.67
8.73
5.36
1.81
-1.69
-5.02
-8.19
-11.33
-14.59
-18.07
-21.83
-25.91
-30.38
-35.26
-40.31
-44.90
-47.92
-48.21
-44.90
-37.92
-28.08
-16.89
-5.99
3.36
10.61
15.87
19.57
22.16
23.85
24.65
24.55
23.68
22.38
21.14
20.38
20.27
20.67
21.09
20.96
19.86
17.73
14.91
12.01
9.65
8.17
7.52
7.27
6.86
5.83
3.96
1.41
-1.52
-4.44
-7.13
-9.53
-11.79
-14.15
-16.93
-20.37
-24.73
-30.21
-36.78
-44.10
-51.33
-57.18
-60.20
-59.28
-54.07
-45.20
-34.09
-22.45
-11.77
-2.87
4.11
9.52
13.81
17.35
20.25
22.47
23.93
24.67
24.80
24.52
24.03
23.50
23.02
22.66
22.48
22.48
22.61
22.73
22.63
22.10
20.99
19.35
17.31
15.09
12.81
10.48
8.00
5.27
2.27
-0.91
-4.11
-7.23
-10.26
-13.27
-16.44
-20.01
-24.16
-29.00
-34.39
-39.83
-44.39
-46.92
-46.40
-42.34
-35.08
-25.68
-15.59
-6.14
1.84
8.12
12.88
16.42
18.93
20.45
20.96
20.54
19.47
18.12
16.88
16.02
15.64
15.62
15.75
15.77
15.51
14.89
14.01
12.96
11.88
10.76
9.51
7.92
5.83
3.18
0.14
-2.99
-5.83
-8.09
-9.69
-10.73
-11.49
-12.31
-13.50
-15.38
-18.20
-22.13
-27.12
-32.74
-38.12
-42.01
-43.20
-40.95
-35.25
-26.96
-17.47
-8.20
-0.24
6.00
10.70
14.33
17.41
20.25
22.95
25.43
27.55
29.22
30.37
31.01
31.17
30.87
30.18
29.10
27.70
26.06
24.35
22.73
21.36
20.24
19.19
17.93
16.14
13.60
10.33
6.55
2.57
-1.26
-4.74
-7.86
-10.73
-13.62
-16.89
-20.90
-25.91
-31.93
-38.50
-44.72
-49.37
-51.20
-49.43
-44.02
-35.75
-25.99
-16.21
-7.53
-0.57
4.61
8.22
10.50
11.62
11.70
10.93
9.61
8.11
6.80
5.89
5.37
5.06
4.72
4.26
3.76
3.63
4.38
6.44
9.88
14.33
19.00
22.95
25.46
26.23
25.49
23.80
21.72
19.67
17.74
15.81
13.67
11.14
8.17
4.78
1.01
-3.08
-7.39
-11.62
-15.32
-17.93
-18.92
-18.01
-15.28
-11.16
-6.26
-1.26
3.31
7.13
10.05
12.11
13.40
14.06
14.23
14.05
13.67
13.22
12.89
12.85
13.16
13.79
14.52
15.05
15.17
14.82
14.13
13.36
12.73
12.24
11.75
10.97
9.70
7.90
5.69
3.34
1.05
-1.12
-3.28
-5.59
-8.21
-11.23
-14.65
-18.39
-22.31
-26.20
-29.75
-32.52
-33.98
-33.66
-31.34
-27.19
-21.79
-15.98
-10.64
-6.38
-3.43
-1.60
-0.49
0.35
1.24
2.29
3.50
4.81
6.21
7.74
9.39
11.06
12.56
13.66
14.22
14.23
13.83
13.23
12.57
11.84
10.95
9.73
8.07
6.03
3.71
1.28
-1.15
-3.57
-5.99
-8.43
-10.81
-13.10
-15.32
-17.60
-20.18
-23.23
-26.77
-30.52
-33.92
-36.31
-37.07
-35.88
-32.81
-28.25
-22.76
-16.89
-11.05
-5.44
-0.17
4.66
8.87
12.21
14.46
15.59
15.76
15.35
14.80
14.46
14.50
14.91
15.57
16.33
17.04
17.57
17.85
17.80
17.40
16.67
15.65
14.37
12.80
10.95
8.80
6.43
4.03
1.75
-0.34
-2.31
-4.37
-6.77
-9.67
-13.09
-16.93
-20.88
-24.58
-27.61
-29.50
-29.89
-28.56
-25.59
-21.29
-16.22
-10.96
-5.99
-1.60
2.15
5.31
7.90
9.90
11.22
11.83
11.82
11.46
11.13
11.15
11.69
12.69
13.93
15.11
16.01
16.54
16.77
16.80
16.73
16.55
16.17
15.44
14.23
12.49
10.27
7.70
4.98
2.26
-0.33
-2.80
-5.18
-7.59
-10.17
-13.02
-16.15
-19.46
-22.71
-25.54
-27.58
-28.50
-28.09
-26.30
-23.24
-19.16
-14.37
-9.26
-4.22
0.37
4.19
7.04
8.93
9.99
10.47
10.68
10.82
11.00
11.25
11.56
11.94
12.38
12.89
13.41
13.83
14.01
13.86
13.37
12.59
11.59
10.39
8.94
7.16
5.06
2.73
0.41
-1.69
-3.46
-4.92
-6.28
-7.77
-9.64
-12.02
-14.97
-18.44
-22.22
-25.91
-28.90
-30.49
-30.10
-27.49
-22.93
-17.15
-11.09
-5.65
-1.36
1.70
3.80
5.36
6.73
8.06
9.30
10.36
11.18
11.83
12.42
13.03
13.66
14.25
14.73
15.05
15.23
15.29
15.25
15.07
14.67
14.03
13.14
11.99
10.61
8.95
7.01
4.82
2.47
0.13
-2.06
-4.07
-6.04
-8.14
-10.61
-13.52
-16.85
-20.43
-24.05
-27.42
-30.18
-31.92
-32.16
-30.58
-27.13
-22.18
-16.43
-10.72
-5.74
-1.78
1.24
3.63
5.69
7.58
9.30
10.76
11.92
12.87
13.73
14.61
15.52
16.39
17.11
17.61
17.88
17.97
17.87
17.54
16.92
16.01
14.85
13.60
12.39
11.32
10.33
9.33
8.19
6.84
5.34
3.79
2.32
0.97
-0.37
-1.92
-3.95
-6.70
-10.20
-14.28
-18.49
-22.21
-24.81
-25.85
-25.14
-22.85
-19.37
-15.25
-11.00
-7.01
-3.46
-0.35
2.39
4.82
6.93
8.61
9.76
10.35
10.48
10.35
10.16
10.05
10.05
10.08
10.05
9.90
9.68
9.50
9.50
9.74
10.13
10.39
10.19
9.23
7.46
5.05
2.37
-0.25
-2.62
-4.77
-6.91
-9.28
-12.09
-15.38
-19.10
-23.00
-26.73
-29.85
-31.85
-32.38
-31.28
-28.68
-24.90
-20.37
-15.48
-10.54
-5.82
-1.51
2.17
5.06
7.06
8.23
8.74
8.87
8.90
9.10
9.62
10.44
11.43
12.41
13.16
13.58
13.68
13.56
13.30
12.91
12.24
11.12
9.45
7.30
4.88
2.42
0.09
-2.10
-4.28
-6.69
-9.51
-12.87
-16.79
-21.17
-25.75
-30.12
-33.74
-36.01
-36.53
-35.17
-32.15
-27.93
-23.07
-18.05
-13.15
-8.54
-4.32
-0.65
2.31
4.44
5.77
6.52
7.01
7.56
8.37
9.42
10.60
11.78
12.92
14.04
15.25
16.56
17.88
18.94
19.39
18.90
17.29
14.58
11.01
6.97
2.87
-0.97
-4.43
-7.55
-10.53
-13.62
-17.11
-21.14
-25.68
-30.43
-34.82
-38.16
-39.80
-39.32
-36.65
-32.07
-26.05
-19.14
-11.84
-4.56
2.32
8.47
13.58
17.46
20.12
21.78
22.81
23.61
24.54
25.76
27.27
28.87
30.32
31.37
31.84
31.67
30.85
29.45
27.62
25.49
23.27
21.18
19.35
17.82
16.49
15.20
13.75
11.88
9.38
5.99
1.53
-4.01
-10.47
-17.42
-24.25
-30.32
-35.06
-38.06
-39.11
-38.18
-35.47
-31.30
-26.16
-20.60
-15.15
-10.26
-6.17
-3.00
-0.70
0.89
2.01
2.88
3.64
4.28
4.67
4.69
4.27
3.53
2.78
2.39
2.61
3.52
4.88
6.31
7.35
7.63
6.99
5.52
3.47
1.22
-0.90
-2.74
-4.35
-6.01
-8.09
-10.91
-14.60
-19.08
-23.95
-28.64
-32.49
-34.90
-35.45
-33.99
-30.65
-25.87
-20.25
-14.49
-9.16
-4.66
-1.08
1.67
3.78
5.47
6.88
8.12
9.25
10.33
11.43
12.53
13.57
14.46
15.18
15.80
16.45
17.23
18.11
18.87
19.16
18.66
17.18
14.76
11.65
8.16
4.63
1.24
-1.94
-5.01
-8.19
-11.72
-15.80
-20.46
-25.43
-30.10
-33.67
-35.34
-34.60
-31.44
-26.35
-20.13
-13.58
-7.32
-1.70
3.16
7.24
10.47
12.83
14.37
15.28
15.92
16.65
17.70
19.07
20.54
21.77
22.51
22.71
22.53
22.29
22.26
22.53
22.96
23.22
22.93
21.84
19.87
17.15
13.95
10.56
7.21
3.97
0.79
-2.45
-5.92
-9.73
-13.95
-18.54
-23.37
-28.11
-32.28
-35.25
-36.43
-35.44
-32.27
-27.31
-21.22
-14.74
-8.44
-2.71
2.30
6.58
10.17
13.15
15.59
17.57
19.13
20.36
21.31
22.07
22.68
23.20
23.59
23.80
23.82
23.60
23.21
22.70
22.10
21.39
20.49
19.34
17.89
16.14
14.09
11.76
9.17
6.38
3.54
0.76
-1.85
-4.32
-6.78
-9.48
-12.60
-16.24
-20.25
-24.25
-27.66
-29.85
-30.26
-28.61
-25.02
-19.94
-14.10
-8.23
-2.88
1.72
5.61
9.00
12.03
14.76
17.07
18.87
20.12
20.99
21.75
22.68
23.89
25.29
26.61
27.54
27.91
27.75
27.28
26.72
26.23
25.72
24.97
23.66
21.64
18.94
15.81
12.64
9.71
7.12
4.74
2.33
-0.32
-3.32
-6.56
-9.86
-13.13
-16.39
-19.85
-23.73
-28.12
-32.82
-37.27
-40.72
-42.44
-41.99
-39.37
-34.98
-29.54
-23.90
-18.80
-14.76
-12.02
-10.50
-9.92
-9.96
-10.27
-10.71
-11.33
-12.29
-13.81
-15.99
-18.81
-22.11
-25.64
-29.13
-32.42
-35.59
-39.00
-43.11
-48.29
-54.63
-61.83
-69.37
-76.67
-83.36
-89.41
-95.09
-100.95
-107.66
-115.82
-125.58
-136.32
-146.21
-152.36
-151.54
-141.26
-120.87
-91.80
-57.19
-20.94
13.27
42.64
65.31
80.37
87.72
88.04
82.78
73.99
64.10
55.43
49.90
48.63
51.90
59.10
68.85
79.14
87.79
93.13
94.40
92.12
87.66
82.95
80.04
80.44
84.72
92.34
101.75
110.82
117.54
120.55
119.60
115.97
111.77
109.24
109.89
114.13
120.87
128.17
133.52
134.59
130.76
122.73
111.87
99.36
85.98
71.83
57.40
43.20
29.80
18.66
10.80
5.70
1.38
-4.42
-13.46
-25.33
-38.78
-52.54
-64.34
-72.08
-74.67
-72.06
-64.62
-53.47
-38.95
-22.10
-13.34
-20.30
-43.36
-75.28
-106.84
-127.80
-139.36
-142.96
-138.47
-124.17
-98.42
-59.99
-11.07
41.89
89.79
123.28
137.44
132.36
112.78
87.20
64.15
48.54
40.66
37.53
34.96
30.59
23.56
13.89
2.55
-9.22
-20.45
-30.30
-37.80
-42.32
-43.05
-40.09
-34.37
-26.95
-18.70
-10.50
-3.30
1.92
4.29
3.78
1.00
-2.95
-6.73
-9.25
-10.22
-10.08
-9.62
-9.57
-10.04
-10.70
-11.00
-10.57
-9.38
-7.80
-6.36
-5.52
-5.45
-5.94
-6.53
-6.69
-6.08
-4.64
-2.63
-0.50
1.21
2.04
1.68
-0.02
-2.98
-6.98
-11.62
-16.37
-20.69
-24.08
-26.25
-27.10
-26.75
-25.49
-23.63
-21.45
-19.14
-16.81
-14.56
-12.50
-10.79
-9.65
-9.20
-9.38
-9.96
-10.56
-10.86
-10.73
-10.29
-9.86
-9.69
-9.83
-10.09
-10.13
-9.74
-9.08
-8.71
-9.42
-11.86
-16.27
-22.40
-29.57
-36.95
-43.88
-49.98
-55.26
-59.98
-64.53
-69.12
-73.67
-77.66
-80.19
-80.24
-76.94
-69.87
-59.19
-45.64
-30.37
-14.69
0.19
13.30
24.00
32.02
37.45
40.61
41.96
42.04
41.39
40.49
39.74
39.39
39.56
40.18
41.15
42.33
43.67
45.24
47.11
49.22
51.19
52.34
51.84
49.03
43.66
36.09
27.18
17.97
9.45
2.23
-3.59
-8.40
-12.99
-18.34
-25.22
-33.85
-43.57
-52.90
-59.93
-62.96
-61.12
-54.72
-45.03
-33.82
-22.70
-12.80
-4.56
2.17
7.84
13.06
18.31
23.66
28.45
31.05
29.27
21.10
5.80
-15.37
-39.25
-61.67
-78.91
-88.77
-91.02
-87.00
-78.81
-68.62
-58.34
-49.49
-43.12
-39.38
-37.38
-35.23
-30.65
-22.12
-9.57
5.48
20.61
33.47
42.59
47.63
48.97
47.26
43.10
37.03
29.86
22.70
16.93
13.72
13.65
16.44
21.07
26.13
30.38
33.05
34.06
33.75
32.67
31.26
29.68
27.95
25.98
23.85
21.76
20.06
19.05
18.85
19.34
20.16
20.85
20.95
20.16
18.39
15.77
12.59
9.18
5.83
2.69
-0.27
-3.15
-6.10
-9.27
-12.81
-16.83
-21.41
-26.39
-31.38
-35.63
-38.25
-38.37
-35.55
-29.93
-22.26
-13.65
-5.22
2.19
8.18
12.75
16.06
18.25
19.41
19.64
19.11
18.16
17.17
16.43
16.04
15.88
15.70
15.37
14.96
14.76
15.08
16.00
17.26
18.22
18.17
16.58
13.41
9.20
4.83
1.27
-0.91
-1.78
-2.14
-3.21
-6.17
-11.53
-18.75
-26.28
-31.94
-33.75
-30.74
-23.29
-12.92
-1.47
9.83
21.06
33.46
48.80
68.40
92.41
119.58
147.47
172.86
192.17
201.99
199.79
185.11
160.38
130.95
103.68
84.52
76.17
77.04
82.34
86.64
86.64
82.46
76.82
72.83
71.81
72.37
71.39
65.96
55.02
39.90
23.30
7.74
-5.67
-17.47
-29.16
-42.01
-56.22
-70.82
-84.21
-95.09
-103.10
-108.87
-113.51
-117.92
-122.20
-125.64
-127.13
-125.86
-121.88
-116.23
-110.55
-106.47
-104.93
-105.88
-108.31
-110.82
-112.12
-111.53
-109.18
-105.80
-102.21
-98.86
-95.58
-91.61
-86.11
-78.71
-69.80
-60.48
-52.14
-45.87
-42.08
-40.45
-40.28
-40.93
-42.06
-43.72
-46.16
-49.49
-53.64
-58.31
-63.25
-68.30
-73.42
-78.44
-82.88
-85.81
-86.06
-82.70
-75.39
-64.68
-51.86
-38.60
-26.45
-16.49
-9.18
-4.41
-1.64
-0.15
0.79
1.85
3.42
5.67
8.54
11.81
15.25
18.68
22.10
25.74
30.17
36.12
44.34
55.28
68.75
83.84
98.96
112.28
122.10
127.30
127.43
122.84
114.49
103.76
92.24
81.38
72.30
65.54
60.98
58.01
55.71
53.32
50.41
47.18
44.36
42.93
43.75
47.24
53.15
60.72
68.85
76.52
82.90
87.44
89.74
89.51
86.65
81.35
74.23
66.17
58.02
50.23
42.75
35.20
27.24
18.96
10.93
3.98
-1.25
-4.56
-6.30
-7.20
-7.98
-9.13
-10.83
-13.00
-15.46
-18.08
-20.83
-23.72
-26.84
-30.32
-34.29
-38.82
-43.94
-49.46
-54.87
-59.09
-60.61
-57.85
-49.95
-37.40
-22.31
-7.91
2.50
6.74
4.49
-2.86
-12.97
-23.59
-33.33
-41.76
-49.15
-55.86
-61.98
-67.30
-71.41
-73.92
-74.49
-72.78
-68.41
-61.08
-50.76
-37.97
-23.84
-9.92
2.26
11.58
17.60
20.51
20.81
19.05
15.64
10.86
5.14
-0.95
-6.64
-11.31
-14.72
-17.22
-19.70
-23.34
-29.17
-37.57
-47.87
-58.27
-66.16
-68.78
-64.07
-51.27
-31.14
-5.79
21.80
48.39
71.03
87.61
97.26
100.61
99.52
96.49
93.68
92.13
91.51
90.55
87.89
82.93
76.04
68.17
60.24
52.64
45.23
37.71
30.11
22.84
16.47
11.26
7.02
3.10
-1.19
-6.20
-11.83
-17.68
-23.28
-28.39
-32.99
-37.27
-41.47
-45.89
-50.80
-56.40
-62.66
-69.23
-75.46
-80.58
-83.94
-85.22
-84.35
-81.39
-76.37
-69.28
-60.27
-49.74
-38.56
-27.76
-18.35
-10.94
-5.62
-2.00
0.54
2.59
4.56
6.51
8.39
10.06
11.52
12.88
14.34
15.98
17.64
18.93
19.32
18.40
16.03
12.44
7.99
3.10
-2.00
-7.25
-12.72
-18.49
-24.57
-30.95
-37.59
-44.31
-50.68
-55.83
-58.54
-57.44
-51.46
-40.29
-24.59
-5.90
13.80
32.57
49.06
62.62
73.30
81.52
87.74
92.34
95.61
97.86
99.62
101.64
104.56
108.86
114.56
121.30
128.37
134.79
139.33
140.58
137.28
128.90
116.30
101.84
88.91
80.76
79.23
84.02
92.99
103.21
112.03
117.84
119.89
117.90
111.47
100.15
83.73
62.76
38.79
14.16
-8.59
-27.36
-41.05
-49.60
-53.95
-55.57
-56.03
-56.66
-58.38
-61.72
-67.04
-74.59
-84.48
-96.59
-110.32
-124.70
-138.49
-150.46
-159.62
-165.44
-167.83
-167.18
-164.30
-160.23
-155.88
-151.46
-145.96
-137.29
-122.85
-100.57
-69.88
-32.11
9.91
52.51
91.84
124.09
145.77
154.07
147.80
128.34
99.94
68.73
40.69
19.40
5.02
-4.96
-13.66
-22.61
-30.90
-36.10
-36.11
-30.84
-22.52
-14.43
-9.09
-6.98
-6.51
-5.18
-1.27
5.22
12.65
18.76
21.94
21.94
19.69
16.67
13.98
12.06
10.65
9.34
7.86
6.27
4.80
3.69
3.04
2.80
2.81
2.86
2.71
2.21
1.48
1.05
1.68
3.99
7.91
12.38
15.52
15.34
10.56
1.28
-10.99
-23.95
-35.33
-43.60
-48.27
-49.80
-49.15
-47.41
-45.41
-43.63
-42.14
-40.77
-39.29
-37.65
-36.05
-34.80
-34.09
-33.76
-33.28
-31.99
-29.40
-25.46
-20.55
-15.21
-9.87
-4.65
0.57
5.83
10.77
14.54
16.14
14.93
11.14
5.98
1.24
-1.40
-0.95
2.62
8.69
16.49
25.36
34.75
43.79
50.91
54.03
51.20
41.57
26.02
7.11
-11.66
-27.04
-36.97
-40.93
-39.70
-34.70
-27.29
-18.48
-8.89
1.00
10.55
19.07
25.79
30.21
32.21
32.14
30.70
28.63
26.43
24.09
21.00
16.24
9.05
-0.68
-12.16
-23.79
-33.74
-40.54
-43.61
-43.39
-40.98
-37.64
-34.28
-31.26
-28.54
-25.96
-23.61
-21.91
-21.61
-23.34
-27.28
-32.95
-39.28
-45.00
-49.05
-50.97
-50.88
-49.33
-46.87
-43.86
-40.38
-36.28
-31.45
-25.88
-19.79
-13.58
-7.73
-2.68
1.32
4.25
6.34
7.95
9.44
11.06
12.82
14.61
16.28
17.73
19.05
20.44
22.07
24.03
26.24
28.50
30.69
32.71
34.64
36.47
38.18
39.65
40.76
41.49
41.90
42.14
42.29
42.34
42.23
41.86
41.18
40.09
38.39
35.73
31.74
26.14
19.02
10.83
2.41
-5.28
-11.46
-15.73
-18.18
-19.34
-19.99
-20.83
-22.30
-24.45
-26.94
-29.25
-30.87
-31.54
-31.29
-30.40
-29.17
-27.82
-26.34
-24.51
-22.12
-19.08
-15.60
-12.07
-8.89
-6.30
-4.31
-2.78
-1.60
-0.76
-0.35
-0.41
-0.84
-1.42
-1.93
-2.45
-3.44
-5.63
-9.76
-16.16
-24.44
-33.54
-42.02
-48.55
-52.30
-53.16
-51.64
-48.47
-44.27
-39.41
-34.03
-28.33
-22.64
-17.55
-13.67
-11.39
-10.58
-10.67
-10.76
-10.06
-8.09
-4.96
-1.16
2.56
5.58
7.54
8.43
8.49
8.18
8.05
8.70
10.59
13.89
18.24
22.74
26.05
26.87
24.36
18.40
9.59
-1.06
-12.52
-23.95
-34.70
-44.08
-51.18
-54.92
-54.41
-49.41
-40.68
-29.85
-18.93
-9.59
-2.60
2.32
6.13
9.86
14.06
18.57
22.66
25.56
26.77
26.29
24.51
21.98
19.12
16.20
13.26
10.23
7.03
3.58
-0.11
-3.89
-7.45
-10.40
-12.42
-13.49
-13.95
-14.35
-15.24
-16.80
-18.81
-20.87
-22.90
-25.39
-29.29
-35.56
-44.43
-54.97
-65.12
-72.24
-74.02
-69.17
-57.80
-41.30
-21.76
-1.32
18.29
36.16
52.21
67.17
82.41
99.74
120.76
146.07
174.41
202.30
224.72
236.50
234.23
217.61
189.52
154.63
117.57
81.16
46.03
11.51
-22.87
-56.30
-86.62
-111.26
-128.47
-138.06
-141.27
-139.82
-135.01
-127.29
-116.60
-103.15
-88.08
-73.38
-61.21
-53.02
-49.10
-48.80
-51.19
-55.64
-61.90
-69.74
-78.37
-86.16
-90.85
-90.16
-82.42
-67.16
-45.28
-19.04
8.08
31.93
48.31
53.85
46.84
27.80
-0.42
-33.16
-64.96
-90.79
-107.09
-112.40
-107.36
-94.14
-75.69
-54.89
-34.21
-15.43
0.25
12.32
20.87
26.57
30.46
33.52
36.33
38.89
40.78
41.51
40.86
39.01
36.45
33.80
31.51
29.76
28.34
26.67
24.05
19.86
13.89
6.56
-1.05
-7.43
-11.21
-11.57
-8.57
-3.05
3.73
10.60
16.85
22.26
26.98
31.20
34.98
38.26
41.01
43.36
45.59
48.09
50.99
54.15
57.07
59.23
60.31
60.46
60.23
60.32
61.26
63.10
65.41
67.41
68.16
66.79
62.58
55.15
44.58
31.56
17.37
3.58
-8.46
-18.07
-25.40
-31.14
-35.85
-39.44
-41.03
-39.37
-33.58
-23.81
-11.40
1.55
12.89
21.11
25.59
26.51
24.46
20.09
13.98
6.67
-1.18
-8.80
-15.36
-20.23
-23.09
-23.97
-23.00
-20.14
-15.17
-7.84
1.62
12.22
22.16
29.48
32.77
31.92
28.11
23.28
19.21
16.77
15.80
15.48
14.75
12.79
9.13
3.71
-2.97
-9.65
-14.34
-14.83
-9.62
1.11
15.19
29.18
39.76
45.11
45.45
42.60
38.79
35.43
32.79
30.31
27.45
24.27
21.57
20.37
21.34
24.39
28.82
33.74
38.51
42.89
46.97
50.85
54.37
57.10
58.44
57.99
55.76
52.37
48.95
46.75
46.54
48.10
50.06
50.17
46.14
36.69
22.30
5.36
-10.59
-22.21
-27.62
-27.00
-22.32
-16.35
-11.57
-9.53
-10.80
-15.34
-22.72
-32.20
-42.56
-52.05
-58.74
-61.11
-58.63
-51.94
-42.55
-32.22
-22.33
-13.61
-6.19
0.06
5.30
9.53
12.63
14.43
14.86
14.08
12.54
10.89
9.69
9.22
9.25
9.20
8.47
6.89
4.85
3.17
2.60
3.40
5.16
7.02
8.17
8.28
7.60
6.75
6.32
6.62
7.58
8.88
10.12
10.88
10.79
9.56
7.12
3.77
0.26
-2.44
-3.38
-2.08
1.35
6.23
11.56
16.34
19.74
21.27
20.67
17.93
13.28
7.07
-0.13
-7.62
-14.64
-20.47
-24.54
-26.62
-26.83
-25.65
-23.74
-21.69
-19.85
-18.26
-16.70
-14.88
-12.60
-9.82
-6.67
-3.40
-0.23
2.67
5.30
7.69
9.93
11.92
13.26
13.19
10.63
4.48
-5.98
-20.66
-38.34
-56.80
-73.24
-85.12
-90.89
-90.46
-85.13
-76.97
-68.09
-59.96
-53.11
-47.34
-42.10
-37.04
-32.13
-27.62
-23.86
-21.05
-19.14
-17.86
-16.87
-15.89
-14.83
-13.77
-12.88
-12.33
-12.14
-12.17
-12.19
-11.99
-11.51
-10.88
-10.34
-10.06
-9.97
-9.64
-8.36
-5.33
0.03
7.85
17.62
28.22
38.08
45.63
49.63
49.64
46.09
40.24
33.94
29.15
27.51
29.82
35.65
43.28
50.07
53.35
51.46
44.49
34.31
23.82
15.64
11.03
9.54
9.45
8.77
6.13
1.14
-5.83
-14.16
-23.39
-33.29
-43.75
-54.54
-65.19
-75.08
-83.49
-89.72
-93.16
-93.42
-90.48
-84.89
-77.66
-70.02
-63.00
-57.09
-52.26
-48.19
-44.68
-41.88
-40.22
-40.03
-41.22
-43.12
-44.68
-44.80
-42.69
-38.03
-30.93
-21.77
-11.03
0.65
12.51
23.59
32.91
39.65
43.45
44.43
43.16
40.29
36.37
31.64
26.16
20.04
13.59
7.39
2.07
-1.89
-4.36
-5.59
-5.96
-5.90
-5.73
-5.67
-5.90
-6.52
-7.56
-8.97
-10.58
-12.23
-13.79
-15.21
-16.46
-17.54
-18.52
-19.60
-21.18
-23.65
-27.22
-31.56
-35.72
-38.37
-38.25
-34.71
-28.05
-19.41
-10.39
-2.41
3.80
8.25
11.51
14.27
16.98
19.66
22.11
24.06
25.37
26.03
26.05
25.39
23.99
21.88
19.35
16.92
15.19
14.61
15.21
16.67
18.29
19.36
19.39
18.24
16.23
13.93
12.02
10.91
10.57
10.50
9.88
7.85
3.92
-1.94
-9.18
-16.80
-23.60
-28.37
-30.11
-28.24
-22.67
-13.83
-2.59
9.94
22.59
34.34
44.38
52.05
56.74
57.90
55.18
48.83
39.97
30.76
24.00
22.24
26.84
37.26
51.05
64.75
75.05
80.00
79.40
74.54
67.32
59.37
51.61
44.28
37.38
31.02
25.63
21.70
19.60
19.30
20.37
22.16
23.91
24.91
24.51
22.23
17.88
11.73
4.59
-2.36
-7.96
-11.40
-12.46
-11.49
-9.17
-6.28
-3.59
-1.75
-1.30
-2.57
-5.55
-9.85
-14.67
-19.10
-22.35
-24.16
-24.81
-25.08
-25.91
-28.05
-31.77
-36.78
-42.26
-47.20
-50.73
-52.39
-52.21
-50.56
-48.05
-45.18
-42.22
-39.13
-35.53
-30.90
-24.80
-17.16
-8.43
0.48
8.48
14.65
18.54
20.33
20.82
21.30
23.21
27.71
35.16
44.72
54.29
61.04
62.39
57.02
45.54
30.21
14.06
-0.27
-11.39
-19.21
-24.38
-27.53
-28.74
-27.52
-23.24
-15.84
-6.15
4.06
12.64
17.81
18.76
16.00
11.04
5.81
1.90
0.13
0.46
2.29
4.82
7.33
9.22
9.84
8.53
4.61
-2.20
-11.66
-22.87
-34.56
-45.38
-54.29
-60.74
-64.77
-66.85
-67.75
-68.37
-69.44
-71.39
-74.14
-76.98
-78.69
-77.78
-73.05
-64.06
-51.38
-36.53
-21.43
-7.72
3.75
13.01
20.65
27.13
32.48
36.16
37.55
36.50
33.58
29.92
26.66
24.37
22.78
21.03
18.18
13.72
7.78
1.07
-5.55
-11.41
-16.23
-20.27
-24.08
-28.45
-34.12
-41.58
-50.80
-61.09
-71.04
-78.75
-82.35
-80.44
-72.64
-59.66
-43.12
-25.18
-7.94
6.92
18.46
26.55
31.84
35.46
38.68
42.44
47.10
52.34
57.45
61.66
64.58
66.23
66.99
67.29
67.44
67.53
67.59
67.64
67.62
67.21
65.71
62.22
55.97
46.85
35.53
23.42
12.08
2.68
-4.39
-9.57
-13.73
-17.71
-22.06
-26.87
-31.87
-36.57
-40.35
-42.53
-42.45
-39.63
-34.01
-26.02
-16.60
-6.99
1.51
7.90
11.64
12.81
11.95
9.87
7.45
5.36
4.00
3.47
3.61
4.06
4.36
4.08
2.98
1.31
0.01
0.57
4.52
12.59
23.91
35.77
44.30
45.84
38.47
22.93
2.42
-18.62
-36.07
-47.58
-52.95
-53.81
-52.70
-52.06
-53.57
-57.75
-64.03
-70.91
-76.24
-77.49
-72.13
-58.26
-35.28
-4.48
30.74
65.42
94.22
112.94
119.83
115.95
104.51
89.61
74.73
62.01
52.16
45.11
40.55
38.28
38.05
39.42
41.66
43.99
45.91
47.37
48.70
50.15
51.45
51.69
49.68
44.49
36.00
25.03
13.02
1.45
-8.73
-17.28
-24.58
-31.24
-37.88
-44.88
-52.36
-60.19
-67.89
-74.63
-79.29
-80.69
-78.02
-71.15
-60.82
-48.51
-35.97
-24.65
-15.33
-7.95
-1.94
3.45
8.60
13.45
17.56
20.50
22.13
22.76
22.98
23.42
24.43
26.00
27.82
29.54
30.89
31.80
32.34
32.59
32.53
32.02
30.87
28.92
26.17
22.80
19.19
15.79
12.92
10.71
8.99
7.40
5.42
2.58
-1.44
-6.72
-13.03
-19.81
-26.16
-30.94
-33.03
-31.62
-26.54
-18.32
-8.08
2.83
13.29
22.68
30.89
38.17
44.87
51.16
57.01
62.18
66.31
69.00
69.95
68.95
66.09
61.74
56.54
51.29
46.76
43.50
41.82
41.72
42.95
44.98
46.98
47.81
46.19
40.89
31.12
16.79
-1.33
-21.66
-42.21
-60.98
-76.45
-87.79
-95.04
-98.97
-100.82
-101.93
-103.34
-105.52
-108.21
-110.49
-111.12
-109.03
-103.59
-94.94
-83.85
-71.53
-59.16
-47.62
-37.29
-28.12
-19.87
-12.27
-5.25
1.13
6.77
11.69
16.08
20.21
24.21
27.97
31.19
33.46
34.58
34.64
33.97
33.03
32.10
31.26
30.36
29.09
27.16
24.37
20.80
16.75
12.66
8.99
6.00
3.64
1.53
-0.92
-4.31
-9.08
-15.29
-22.47
-29.70
-35.68
-39.14
-39.14
-35.41
-28.48
-19.43
-9.63
-0.26
7.87
14.41
19.31
22.59
24.35
24.68
23.81
22.11
20.11
18.34
17.20
16.81
17.06
17.65
18.28
18.72
18.91
18.92
18.87
18.80
18.66
18.22
17.18
15.29
12.45
8.86
5.02
1.53
-1.09
-2.60
-3.07
-2.80
-2.22
-1.87
-2.42
-4.63
-9.14
-16.07
-24.72
-33.53
-40.50
-43.93
-43.07
-38.43
-31.42
-23.74
-16.60
-10.35
-4.57
1.43
8.28
16.15
24.84
34.00
43.29
52.60
61.88
71.11
80.03
88.13
94.72
99.16
100.97
99.82
95.59
88.33
78.40
66.57
54.00
42.03
31.80
23.95
18.43
14.62
11.66
8.71
5.21
0.83
-4.52
-10.77
-17.74
-25.19
-32.85
-40.50
-47.90
-54.75
-60.51
-64.41
-65.63
-63.45
-57.60
-48.34
-36.54
-23.43
-10.39
1.37
11.03
18.21
22.92
25.35
25.82
24.70
22.43
19.62
16.98
15.26
15.06
16.71
20.22
25.36
31.75
38.85
45.72
50.82
51.93
46.50
32.49
9.16
-22.35
-59.07
-97.00
-132.17
-161.57
-183.65
-198.19
-205.76
-207.24
-203.48
-195.30
-183.64
-169.57
-154.25
-138.67
-123.46
-108.78
-94.35
-79.58
-63.91
-46.98
-28.79
-9.71
9.53
27.93
44.30
57.33
65.81
68.98
66.74
59.91
50.07
39.14
28.96
20.76
15.05
11.66
10.02
9.44
9.37
9.45
9.48
9.40
9.16
8.67
7.69
5.95
3.19
-0.62
-5.24
-10.11
-14.70
-18.79
-22.68
-27.20
-33.34
-41.75
-52.30
-63.74
-73.82
-79.50
-77.72
-66.22
-44.66
-15.22
17.47
47.41
69.19
79.65
78.98
70.15
57.53
44.95
34.66
27.15
21.97
18.75
17.58
18.83
22.60
28.16
34.00
38.45
40.34
39.52
36.84
33.71
31.42
30.61
31.13
32.28
33.32
33.86
34.05
34.43
35.49
37.32
39.44
40.93
40.70
37.77
31.45
21.58
8.69
-5.92
-20.37
-32.63
-41.18
-45.50
-46.15
-44.44
-41.69
-38.71
-35.50
-31.65
-26.79
-21.04
-15.13
-9.94
-6.13
-3.80
-2.47
-1.36
0.18
2.48
5.41
8.58
11.57
14.16
16.32
18.20
19.96
21.69
23.34
24.73
25.52
25.34
23.83
20.83
16.46
11.15
5.43
-0.30
-5.91
-11.61
-17.76
-24.64
-32.26
-40.32
-48.27
-55.44
-61.10
-64.50
-64.99
-62.15
-56.05
-47.31
-37.05
-26.55
-16.92
-8.76
-2.10
3.42
8.24
12.57
16.27
18.97
20.36
20.41
19.53
18.37
17.56
17.48
18.14
19.27
20.61
22.07
23.72
25.71
28.14
31.09
34.85
40.10
47.74
58.30
71.15
84.17
93.96
97.11
91.59
77.91
59.17
39.97
24.73
16.16
14.61
18.48
25.25
32.61
39.17
44.55
49.01
52.99
56.88
60.91
65.39
70.67
77.11
84.58
92.12
97.97
100.21
97.68
90.72
81.16
71.26
62.46
54.50
45.80
34.68
20.75
5.27
-9.55
-22.01
-32.07
-41.32
-51.92
-65.08
-80.18
-95.16
-107.71
-116.52
-121.79
-124.73
-126.67
-128.23
-129.26
-129.34
-128.47
-127.44
-127.56
-129.90
-134.48
-139.92
-143.75
-143.40
-137.28
-125.38
-109.27
-91.38
-73.99
-58.51
-45.27
-33.85
-23.72
-14.75
-7.27
-1.86
1.19
2.16
1.95
1.66
2.24
4.10
7.05
10.58
14.06
17.18
20.01
23.06
27.10
32.83
40.61
50.21
60.76
70.97
79.49
85.33
88.20
88.52
87.26
85.56
84.37
84.14
84.68
85.27
84.86
82.50
77.78
71.17
64.11
58.73
57.28
61.43
71.69
86.96
104.48
120.08
129.07
127.42
113.17
87.35
53.91
18.56
-13.25
-38.02
-55.00
-65.62
-72.13
-76.27
-78.57
-78.79
-76.64
-72.46
-67.14
-61.52
-55.74
-49.12
-40.53
-29.34
-16.10
-2.73
8.04
13.69
12.91
6.22
-4.17
-15.28
-24.48
-30.59
-34.08
-36.71
-40.64
-47.44
-57.57
-70.19
-83.49
-95.16
-102.88
-104.76
-99.77
-87.99
-70.67
-49.97
-28.50
-8.61
7.94
20.38
28.73
33.63
36.07
37.11
37.71
38.56
40.00
41.98
44.23
46.45
48.47
50.26
51.91
53.47
54.91
56.15
57.16
57.97
58.65
59.13
59.19
58.44
56.58
53.56
49.74
45.80
42.46
40.24
39.20
38.99
38.94
38.22
36.08
32.02
25.92
18.27
10.07
2.65
-2.75
-5.40
-5.28
-3.07
0.24
3.74
6.98
9.93
12.84
15.84
18.80
21.30
22.85
23.27
22.87
22.54
23.51
26.97
33.61
43.30
54.82
65.96
74.03
76.74
73.02
63.56
50.60
37.11
25.81
18.38
15.37
16.41
20.73
27.39
35.27
42.88
48.40
49.87
45.64
34.91
18.04
-3.42
-26.83
-48.88
-66.34
-77.02
-80.55
-78.62
-74.25
-70.49
-69.17
-70.37
-72.77
-74.68
-75.04
-73.79
-71.45
-68.49
-64.84
-59.98
-53.34
-44.71
-34.18
-21.98
-8.40
5.88
19.33
29.40
33.08
28.16
14.40
-5.95
-28.82
-49.91
-66.17
-76.59
-81.78
-83.03
-81.38
-77.30
-71.13
-63.60
-55.98
-49.91
-46.71
-46.79
-49.57
-53.72
-57.67
-60.10
-60.20
-57.67
-52.55
-45.07
-35.62
-24.66
-12.73
-0.47
11.49
22.53
32.09
39.70
45.03
48.04
49.03
48.75
48.24
48.53
50.32
53.65
57.92
62.12
65.18
66.36
65.39
62.42
57.88
52.21
45.80
38.88
31.65
24.21
16.61
8.93
1.24
-6.22
-13.10
-18.94
-23.41
-26.49
-28.62
-30.69
-33.77
-38.71
-45.78
-54.46
-63.53
-71.34
-76.20
-76.79
-72.59
-63.96
-52.18
-39.14
-26.82
-16.81
-9.89
-5.93
-4.15
-3.59
-3.43
-3.29
-3.10
-2.87
-2.50
-1.75
-0.42
1.52
3.80
6.04
7.94
9.43
10.72
12.06
13.64
15.35
16.89
17.84
17.84
16.72
14.56
11.62
8.32
5.11
2.40
0.37
-1.08
-2.36
-4.08
-6.78
-10.65
-15.32
-19.88
-23.09
-23.84
-21.49
-16.20
-8.82
-0.71
6.81
12.75
16.69
18.76
19.45
19.29
18.70
17.91
16.99
15.97
14.94
14.05
13.56
13.66
14.36
15.49
16.65
17.49
17.76
17.48
16.84
16.03
15.10
13.82
11.88
8.97
5.04
0.25
-5.07
-10.64
-16.33
-22.15
-28.22
-34.64
-41.58
-49.22
-57.82
-67.57
-78.42
-89.89
-101.03
-110.62
-117.42
-120.52
-119.60
-115.00
-107.67
-98.92
-90.07
-82.22
-75.83
-70.69
-65.97
-60.52
-53.35
-43.95
-32.41
-19.21
-4.97
9.81
24.63
38.82
51.41
61.18
67.10
68.81
66.83
62.43
57.08
51.85
47.10
42.54
37.70
32.33
26.68
21.31
16.80
13.25
10.24
6.91
2.36
-3.95
-12.05
-21.41
-31.13
-40.00
-46.69
-49.80
-48.12
-41.01
-28.72
-12.68
4.80
21.15
34.37
43.62
49.33
52.79
55.40
58.04
60.82
63.26
64.80
65.16
64.56
63.50
62.54
61.91
61.47
60.75
59.20
56.44
52.38
47.24
41.54
35.95
31.14
27.70
25.95
25.97
27.48
29.92
32.44
34.01
33.51
30.06
23.23
13.21
0.89
-12.33
-24.80
-34.95
-41.56
-44.04
-42.40
-37.23
-29.54
-20.44
-11.02
-2.13
5.66
12.05
16.96
20.52
23.01
24.80
26.25
27.58
28.77
29.61
29.95
29.73
29.09
28.26
27.35
26.34
25.09
23.55
21.87
20.32
19.16
18.36
17.57
16.25
13.98
10.67
6.68
2.60
-1.07
-4.18
-6.99
-10.05
-13.91
-18.83
-24.57
-30.40
-35.23
-37.94
-37.70
-34.17
-27.69
-19.16
-9.73
-0.52
7.69
14.54
19.98
24.12
27.04
28.71
29.14
28.45
27.02
25.34
23.94
23.10
22.80
22.80
22.76
22.47
21.91
21.22
20.58
20.03
19.42
18.44
16.72
13.98
10.16
5.46
0.33
-4.74
-9.31
-13.19
-16.51
-19.69
-23.35
-28.07
-34.18
-41.51
-49.36
-56.52
-61.55
-63.20
-60.76
-54.37
-44.96
-33.96
-22.88
-12.82
-4.32
2.61
8.25
12.83
16.43
19.02
20.63
21.47
21.97
22.58
23.59
25.01
26.53
27.74
28.35
28.29
27.80
27.15
26.53
25.88
24.85
22.95
19.82
15.35
9.84
3.85
-1.98
-7.14
-11.40
-14.85
-17.79
-20.59
-23.68
-27.47
-32.28
-38.26
-45.13
-52.10
-57.93
-61.24
-60.94
-56.65
-48.84
-38.63
-27.47
-16.70
-7.26
0.40
6.21
10.33
12.98
14.38
14.74
14.31
13.39
12.31
11.39
10.81
10.66
10.92
11.57
12.59
13.93
15.48
16.98
18.13
18.65
18.46
17.67
16.54
15.30
14.01
12.55
10.72
8.42
5.70
2.85
0.21
-1.99
-3.83
-5.62
-7.75
-10.36
-13.05
-14.85
-14.43
-10.67
-3.04
7.96
20.95
34.08
45.63
54.49
60.48
64.20
66.80
69.62
73.94
80.73
90.12
101.05
110.94
115.85
111.50
94.65
64.73
24.58
-20.04
-62.25
-96.28
-119.25
-131.56
-135.69
-134.46
-129.54
-121.14
-108.94
-93.27
-75.92
-59.75
-47.53
-40.66
-38.64
-39.61
-41.51
-43.02
-43.89
-44.46
-44.97
-45.09
-43.94
-40.65
-34.86
-26.93
-17.70
-7.99
1.73
11.47
21.43
31.55
41.29
49.68
55.67
58.58
58.43
55.87
51.88
47.40
42.98
38.78
34.78
30.95
27.45
24.62
22.80
22.15
22.40
22.85
22.59
20.79
17.07
11.65
5.23
-1.35
-7.44
-12.80
-17.46
-21.47
-24.74
-26.94
-27.76
-27.06
-24.98
-21.75
-17.44
-11.92
-4.90
3.67
13.45
23.68
33.43
41.95
48.88
54.13
57.62
59.08
58.03
54.23
48.01
40.33
32.52
25.65
20.12
15.49
10.85
5.29
-1.68
-10.09
-19.68
-30.24
-41.81
-54.51
-68.33
-82.78
-96.80
-108.91
-117.64
-121.87
-121.18
-115.91
-107.01
-95.76
-83.58
-71.79
-61.48
-53.36
-47.46
-43.07
-38.80
-33.10
-24.85
-13.82
-0.84
12.58
24.83
34.79
42.07
46.95
50.07
52.18
53.84
55.36
56.81
58.00
58.66
58.46
57.21
54.88
51.68
47.97
44.15
40.50
37.09
33.71
30.00
25.65
20.51
14.66
8.42
2.15
-3.71
-8.76
-12.53
-14.68
-15.10
-14.09
-12.50
-11.52
-12.37
-15.83
-21.92
-29.81
-38.04
-44.89
-48.81
-48.81
-44.56
-36.49
-25.57
-13.11
-0.40
11.51
21.94
30.55
37.20
41.84
44.55
45.49
44.99
43.48
41.37
38.95
36.27
33.19
29.57
25.43
21.01
16.77
13.19
10.63
9.07
8.13
7.12
5.31
2.21
-2.28
-7.73
-13.41
-18.50
-22.46
-25.23
-27.22
-29.17
-31.91
-35.95
-41.26
-47.17
-52.40
-55.51
-55.22
-50.92
-42.77
-31.69
-19.00
-6.08
5.95
16.38
24.81
31.14
35.38
37.71
38.43
37.94
36.73
35.17
33.49
31.74
29.88
27.92
26.06
24.70
24.29
25.18
27.35
30.44
33.72
36.37
37.64
37.11
34.70
30.73
25.74
20.33
15.03
10.17
5.79
1.70
-2.49
-7.18
-12.68
-18.96
-25.55
-31.61
-36.11
-38.18
-37.36
-33.78
-28.11
-21.34
-14.50
-8.48
-3.82
-0.71
1.04
1.83
2.13
2.32
2.52
2.68
2.66
2.47
2.31
2.56
3.57
5.47
8.12
11.11
14.01
16.50
18.40
19.66
20.21
19.97
18.83
16.81
14.05
10.85
7.60
4.58
1.94
-0.46
-3.01
-6.21
-10.47
-15.87
-21.98
-27.86
-32.31
-34.25
-33.10
-28.97
-22.66
-15.38
-8.34
-2.51
1.66
4.22
5.62
6.48
7.36
8.55
10.00
11.42
12.48
12.99
13.06
12.91
12.78
12.70
12.52
11.99
10.94
9.46
7.80
6.25
5.01
4.08
3.26
2.33
1.09
-0.54
-2.55
-4.83
-7.26
-9.74
-12.27
-15.00
-18.22
-22.28
-27.33
-33.13
-39.00
-43.89
-46.72
-46.74
-43.78
-38.30
-31.19
-23.45
-15.93
-9.13
-3.30
1.48
5.14
7.61
8.80
8.75
7.66
5.87
3.79
1.78
0.09
-1.17
-1.97
-2.30
-2.15
-1.50
-0.43
0.84
1.99
2.65
2.54
1.61
0.01
-1.95
-3.94
-5.72
-7.25
-8.66
-10.14
-11.98
-14.49
-17.96
-22.54
-28.10
-34.01
-39.21
-42.42
-42.59
-39.25
-32.75
-24.11
-14.60
-5.41
2.75
9.55
14.95
18.97
21.63
22.95
23.08
22.35
21.23
20.18
19.54
19.41
19.59
19.79
19.75
19.41
18.90
18.46
18.23
18.12
17.82
16.91
15.18
12.62
9.48
6.13
2.81
-0.35
-3.41
-6.52
-9.90
-13.85
-18.69
-24.58
-31.25
-37.87
-43.10
-45.48
-43.98
-38.50
-29.87
-19.63
-9.40
-0.33
7.04
12.74
17.06
20.20
22.23
23.18
23.16
22.45
21.48
20.62
20.08
19.89
19.93
20.03
20.05
19.94
19.64
19.17
18.50
17.57
16.22
14.29
11.61
8.17
4.18
0.02
-3.88
-7.19
-9.94
-12.46
-15.38
-19.29
-24.53
-30.89
-37.63
-43.56
-47.38
-48.03
-45.10
-38.87
-30.29
-20.65
-11.18
-2.76
4.14
9.49
13.47
16.34
18.32
19.64
20.43
20.90
21.21
21.50
21.84
22.19
22.41
22.33
21.84
20.96
19.88
18.84
17.98
17.25
16.40
15.07
12.95
10.02
6.55
2.94
-0.39
-3.32
-6.02
-8.96
-12.64
-17.40
-23.17
-29.44
-35.26
-39.45
-40.97
-39.15
-34.01
-26.19
-16.86
-7.30
1.43
8.74
14.51
18.91
22.20
24.65
26.48
27.91
29.17
30.39
31.55
32.49
32.97
32.87
32.26
31.37
30.38
29.35
28.11
26.39
24.05
21.14
17.94
14.74
11.73
8.91
6.14
3.27
0.26
-2.87
-6.10
-9.42
-12.91
-16.51
-19.93
-22.63
-24.19
-24.60
-24.41
-24.60
-26.01
-28.85
-32.39
-35.21
-35.89
-33.64
-28.68
-22.05
-15.07
-8.80
-3.67
0.33
3.48
5.99
8.00
9.60
11.00
12.50
14.37
16.67
19.12
21.18
22.24
21.93
20.22
17.47
14.20
10.94
8.08
5.80
4.06
2.63
1.02
-1.43
-5.34
-11.00
-18.06
-25.38
-31.42
-34.62
-34.09
-29.91
-23.00
-14.75
-6.44
1.15
7.74
13.30
17.72
20.62
21.54
20.22
16.95
12.64
8.60
6.22
6.57
10.20
16.99
26.15
36.22
45.32
51.55
53.66
51.47
46.01
39.03
32.31
26.91
22.90
19.66
16.41
12.72
8.66
4.46
0.19
-4.52
-10.34
-17.89
-27.36
-38.27
-49.54
-59.75
-67.56
-72.05
-73.00
-70.85
-66.52
-61.02
-55.07
-49.01
-42.85
-36.54
-30.23
-24.32
-19.26
-15.32
-12.35
-9.95
-7.59
-4.96
-1.94
1.32
4.70
8.17
11.82
15.68
19.73
23.74
27.42
30.48
32.79
34.41
35.57
36.65
38.04
39.91
42.14
44.23
45.52
45.39
43.55
40.13
35.64
30.68
25.81
21.44
17.89
15.46
14.39
14.75
16.29
18.39
20.16
20.77
19.70
16.97
13.00
8.43
3.82
-0.46
-4.27
-7.55
-10.21
-12.18
-13.47
-14.28
-14.98
-16.04
-17.85
-20.55
-24.03
-27.94
-31.88
-35.51
-38.62
-41.12
-43.07
-44.59
-45.89
-47.29
-49.12
-51.69
-55.13
-59.12
-62.91
-65.32
-65.17
-61.68
-54.88
-45.68
-35.51
-25.81
-17.56
-11.08
-6.20
-2.61
-0.14
1.16
1.27
0.36
-1.04
-2.21
-2.51
-1.68
0.09
2.22
3.99
4.85
4.52
3.09
0.86
-1.72
-4.23
-6.40
-8.17
-9.74
-11.58
-14.30
-18.48
-24.42
-31.90
-40.13
-47.80
-53.47
-55.90
-54.45
-49.23
-41.05
-31.15
-20.82
-11.06
-2.47
4.72
10.54
15.03
18.15
19.86
20.13
19.13
17.23
14.96
12.80
11.13
10.13
9.76
9.85
10.22
10.72
11.28
11.88
12.44
12.85
12.94
12.57
11.62
10.01
7.67
4.43
0.01
-5.85
-13.21
-21.65
-30.12
-37.10
-40.92
-40.33
-35.02
-25.76
-14.14
-2.14
8.57
17.01
22.98
26.86
29.23
30.64
31.36
31.49
31.09
30.26
29.20
28.16
27.30
26.68
26.18
25.54
24.55
23.10
21.23
19.09
16.83
14.53
12.08
9.34
6.13
2.33
-2.13
-7.27
-13.06
-19.36
-25.74
-31.47
-35.55
-36.99
-35.14
-29.98
-22.17
-12.90
-3.47
5.09
12.26
17.94
22.32
25.55
27.65
28.56
28.32
27.17
25.57
24.08
23.11
22.76
22.87
23.10
23.09
22.65
21.76
20.53
19.07
17.45
15.66
13.61
11.16
8.12
4.28
-0.61
-6.62
-13.55
-20.75
-27.16
-31.52
-32.73
-30.29
-24.44
-16.13
-6.73
2.43
10.43
16.82
21.59
24.92
27.01
27.97
27.90
26.98
25.52
23.95
22.72
22.11
22.23
22.88
23.71
24.26
24.17
23.24
21.52
19.23
16.67
14.09
11.51
8.77
5.53
1.49
-3.52
-9.44
-15.97
-22.63
-28.74
-33.51
-36.07
-35.71
-32.14
-25.62
-16.99
-7.45
1.79
9.85
16.26
20.90
23.87
25.24
25.12
23.73
21.49
19.00
16.93
15.77
15.63
16.26
17.12
17.62
17.34
16.14
14.14
11.60
8.83
6.00
3.18
0.36
-2.58
-5.80
-9.47
-13.75
-18.55
-23.47
-27.74
-30.34
-30.34
-27.19
-21.04
-12.66
-3.24
6.05
14.25
20.85
25.68
28.76
30.25
30.30
29.15
27.14
24.76
22.55
20.95
20.19
20.18
20.53
20.62
19.92
18.08
15.11
11.30
7.08
2.87
-1.14
-4.90
-8.60
-12.50
-16.92
-22.13
-28.16
-34.69
-40.95
-45.81
-48.05
-46.81
-41.89
-33.90
-24.04
-13.75
-4.24
3.78
10.10
14.83
18.18
20.19
20.82
20.10
18.24
15.78
13.43
11.84
11.36
11.88
12.95
13.98
14.48
14.29
13.51
12.42
11.18
9.79
8.05
5.68
2.46
-1.68
-6.71
-12.55
-19.14
-26.37
-33.86
-40.84
-46.20
-48.75
-47.67
-42.85
-35.02
-25.51
-15.73
-6.83
0.59
6.41
10.81
13.97
16.02
17.05
17.16
16.59
15.64
14.64
13.88
13.56
13.72
14.33
15.17
16.00
16.49
16.40
15.58
14.01
11.77
9.02
5.89
2.48
-1.18
-5.14
-9.55
-14.52
-20.11
-26.09
-31.87
-36.56
-39.11
-38.68
-34.89
-28.11
-19.29
-9.74
-0.72
6.92
12.84
17.13
20.05
21.83
22.57
22.31
21.18
19.45
17.52
15.83
14.64
14.04
13.88
13.88
13.80
13.48
12.82
11.79
10.35
8.47
6.10
3.27
0.05
-3.44
-7.08
-10.85
-14.83
-19.24
-24.25
-29.79
-35.43
-40.36
-43.51
-43.91
-40.98
-34.78
-26.05
-16.04
-6.10
2.63
9.49
14.27
17.18
18.56
18.78
18.19
17.06
15.70
14.41
13.45
13.03
13.18
13.78
14.51
15.01
14.93
14.03
12.30
9.89
7.07
4.08
1.07
-1.96
-5.08
-8.39
-11.94
-15.78
-19.90
-24.21
-28.42
-32.00
-34.16
-34.05
-31.05
-25.09
-16.72
-6.99
2.80
11.52
18.43
23.29
26.19
27.45
27.44
26.51
25.00
23.27
21.67
20.46
19.81
19.66
19.82
19.99
19.91
19.44
18.56
17.32
15.73
13.71
11.13
7.89
4.03
-0.27
-4.77
-9.29
-13.81
-18.50
-23.59
-29.29
-35.54
-41.95
-47.73
-51.81
-53.10
-50.82
-44.85
-35.81
-24.92
-13.70
-3.46
4.99
11.39
15.95
19.03
20.93
21.86
22.02
21.67
21.18
20.95
21.20
21.93
22.89
23.70
24.07
23.93
23.45
22.95
22.69
22.71
22.75
22.36
21.06
18.60
15.03
10.80
6.53
2.76
-0.23
-2.65
-5.10
-8.31
-12.86
-18.77
-25.33
-31.22
-34.81
-34.77
-30.51
-22.42
-11.73
-0.06
11.14
21.07
29.65
37.45
45.38
54.27
64.50
75.60
86.11
93.74
95.94
90.88
78.24
59.58
37.98
17.08
-0.03
-11.56
-17.23
-17.91
-14.98
-9.86
-3.71
2.54
8.23
12.97
16.88
20.64
25.44
32.48
42.27
53.85
64.58
70.60
68.08
54.83
31.33
0.83
-31.66
-61.00
-83.37
-97.09
-102.35
-100.55
-93.52
-83.00
-70.62
-57.85
-45.96
-35.80
-27.57
-20.81
-14.74
-8.72
-2.70
2.74
6.69
8.31
7.23
3.67
-1.66
-7.92
-14.29
-20.10
-24.88
-28.31
-30.31
-31.11
-31.26
-31.47
-32.35
-34.20
-36.80
-39.61
-42.00
-43.55
-44.24
-44.44
-44.76
-45.77
-47.81
-50.92
-54.71
-58.48
-61.24
-61.96
-59.76
-54.27
-45.79
-35.31
-24.23
-13.93
-5.36
1.16
5.87
9.20
11.55
13.15
14.08
14.46
14.50
14.54
14.88
15.69
16.95
18.50
20.05
21.37
22.28
22.79
23.00
23.10
23.20
23.31
23.19
22.49
20.88
18.22
14.67
10.64
6.58
2.84
-0.58
-3.93
-7.66
-12.26
-18.01
-24.91
-32.60
-40.26
-46.76
-50.86
-51.52
-48.24
-41.31
-31.75
-21.02
-10.55
-1.40
6.01
11.73
16.15
19.58
22.25
24.23
25.56
26.35
26.84
27.27
27.85
28.62
29.50
30.30
30.87
31.08
30.93
30.46
29.74
28.78
27.52
25.81
23.49
20.44
16.67
12.36
7.81
3.44
-0.41
-3.49
-5.82
-7.65
-9.42
-11.57
-14.48
-18.29
-22.87
-27.84
-32.49
-35.96
-37.40
-36.13
-31.96
-25.19
-16.65
-7.46
1.30
8.86
14.83
19.25
22.33
24.41
25.71
26.45
26.80
26.92
27.01
27.21
27.64
28.32
29.21
30.20
31.14
31.85
32.16
31.97
31.25
30.05
28.45
26.53
24.33
21.88
19.18
16.23
13.01
9.54
5.88
2.14
-1.53
-4.95
-8.09
-11.02
-14.02
-17.44
-21.65
-26.77
-32.66
-38.76
-44.23
-48.00
-49.09
-46.89
-41.40
-33.29
-23.75
-14.10
-5.43
1.70
7.22
11.41
14.56
16.83
18.25
18.78
18.53
17.77
16.94
16.43
16.51
17.17
18.24
19.39
20.36
21.04
21.46
21.72
21.84
21.67
20.91
19.25
16.50
12.72
8.26
3.59
-0.79
-4.56
-7.66
-10.26
-12.65
-15.25
-18.44
-22.50
-27.51
-33.19
-38.87
-43.57
-46.18
-45.87
-42.28
-35.73
-27.08
-17.48
-8.05
0.38
7.36
12.78
16.73
19.35
20.79
21.17
20.66
19.60
18.37
17.43
17.08
17.43
18.27
19.25
19.96
20.18
19.88
19.26
18.53
17.83
17.13
16.18
14.70
12.45
9.33
5.50
1.24
-3.07
-7.17
-10.92
-14.40
-17.80
-21.36
-25.34
-29.90
-35.06
-40.64
-46.11
-50.64
-53.27
-53.13
-49.81
-43.54
-35.14
-25.79
-16.62
-8.42
-1.52
4.09
8.55
12.00
14.49
16.05
16.75
16.79
16.46
16.09
16.01
16.40
17.33
18.65
20.11
21.39
22.28
22.70
22.72
22.42
21.78
20.60
18.60
15.58
11.59
7.01
2.37
-1.81
-5.25
-8.00
-10.37
-12.77
-15.59
-19.13
-23.59
-28.99
-35.08
-41.23
-46.48
-49.71
-49.97
-46.85
-40.65
-32.29
-23.01
-14.01
-6.05
0.53
5.76
9.83
12.94
15.18
16.59
17.28
17.43
17.38
17.46
17.95
18.88
20.08
21.23
21.99
22.24
22.01
21.49
20.90
20.34
19.72
18.83
17.40
15.22
12.23
8.57
4.52
0.42
-3.40
-6.81
-9.85
-12.77
-15.88
-19.48
-23.77
-28.77
-34.30
-39.87
-44.76
-48.03
-48.81
-46.50
-41.09
-33.17
-23.88
-14.52
-6.22
0.38
5.16
8.40
10.53
11.98
12.92
13.46
13.61
13.49
13.33
13.45
14.07
15.25
16.83
18.52
19.97
20.97
21.47
21.51
21.13
20.29
18.85
16.62
13.51
9.66
5.36
1.03
-2.95
-6.38
-9.31
-12.03
-14.98
-18.56
-23.04
-28.30
-33.86
-38.82
-42.10
-42.75
-40.24
-34.69
-26.86
-17.87
-8.93
-0.93
5.60
10.57
14.09
16.35
17.53
17.81
17.37
16.49
15.46
14.63
14.27
14.54
15.39
16.62
17.87
18.87
19.49
19.81
20.04
20.33
20.63
20.58
19.71
17.61
14.19
9.72
4.76
-0.09
-4.41
-8.13
-11.50
-14.96
-19.03
-24.09
-30.29
-37.33
-44.50
-50.71
-54.77
-55.71
-53.08
-47.08
-38.56
-28.68
-18.65
-9.34
-1.32
5.25
10.39
14.20
16.86
18.61
19.72
20.53
21.32
22.26
23.37
24.51
25.49
26.15
26.44
26.43
26.20
25.86
25.44
24.86
24.02
22.76
20.92
18.37
15.06
11.07
6.61
1.98
-2.49
-6.57
-10.25
-13.69
-17.23
-21.26
-26.10
-31.81
-38.11
-44.24
-49.15
-51.65
-50.87
-46.48
-38.94
-29.39
-19.22
-9.75
-1.78
4.46
9.18
12.77
15.57
17.74
19.32
20.37
20.99
21.42
21.91
22.65
23.66
24.83
25.93
26.73
27.06
26.84
26.18
25.24
24.22
23.24
22.28
21.17
19.61
17.33
14.19
10.25
5.75
1.08
-3.40
-7.44
-10.95
-14.09
-17.14
-20.46
-24.36
-28.96
-34.06
-39.05
-43.00
-44.87
-43.87
-39.76
-32.93
-24.33
-15.11
-6.31
1.41
7.75
12.69
16.34
18.81
20.23
20.78
20.71
20.37
20.19
20.47
21.39
22.92
24.81
26.71
28.29
29.36
29.89
29.94
29.56
28.75
27.38
25.29
22.40
18.74
14.50
9.93
5.40
1.17
-2.60
-5.95
-9.09
-12.34
-16.09
-20.58
-25.91
-31.89
-38.04
-43.62
-47.67
-49.23
-47.61
-42.64
-34.84
-25.35
-15.56
-6.74
0.32
5.53
9.28
12.21
14.84
17.35
19.60
21.34
22.39
22.85
23.04
23.39
24.19
25.49
27.05
28.49
29.46
29.80
29.58
28.96
28.11
27.06
25.69
23.85
21.39
18.33
14.79
11.04
7.29
3.72
0.39
-2.77
-5.85
-9.00
-12.38
-16.16
-20.51
-25.57
-31.35
-37.59
-43.72
-48.83
-51.89
-52.00
-48.69
-42.14
-33.16
-22.97
-12.85
-3.78
3.73
9.61
14.12
17.55
20.13
22.03
23.36
24.34
25.19
26.17
27.37
28.73
30.05
31.16
31.97
32.56
33.07
33.57
34.03
34.22
33.82
32.61
30.53
27.75
24.54
21.21
17.94
14.82
11.76
8.62
5.28
1.70
-2.07
-5.90
-9.68
-13.34
-16.91
-20.52
-24.40
-28.78
-33.77
-39.25
-44.73
-49.35
-52.09
-52.02
-48.70
-42.31
-33.69
-24.04
-14.54
-6.07
0.92
6.38
10.50
13.56
15.87
17.67
19.18
20.51
21.70
22.73
23.55
24.19
24.73
25.24
25.81
26.42
26.98
27.38
27.49
27.20
26.46
25.22
23.52
21.46
19.16
16.72
14.17
11.46
8.51
5.27
1.79
-1.79
-5.25
-8.42
-11.22
-13.69
-15.96
-18.25
-20.82
-23.95
-27.80
-32.33
-37.15
-41.49
-44.38
-44.88
-42.45
-37.14
-29.64
-21.00
-12.37
-4.66
1.66
6.51
10.12
12.76
14.64
15.91
16.63
16.90
16.87
16.73
16.68
16.87
17.39
18.28
19.47
20.79
22.00
22.80
22.92
22.20
20.68
18.54
16.03
13.35
10.59
7.74
4.81
1.79
-1.24
-4.18
-6.99
-9.66
-12.27
-14.93
-17.77
-21.00
-24.79
-29.28
-34.37
-39.60
-44.16
-47.06
-47.40
-44.73
-39.21
-31.56
-22.87
-14.26
-6.59
-0.34
4.43
7.97
10.60
12.63
14.26
15.55
16.53
17.24
17.82
18.43
19.21
20.18
21.27
22.27
23.03
23.37
23.24
22.67
21.71
20.39
18.77
16.83
14.56
11.91
8.85
5.42
1.70
-2.16
-5.95
-9.48
-12.61
-15.31
-17.75
-20.22
-23.16
-26.98
-31.91
-37.83
-44.18
-50.02
-54.18
-55.58
-53.62
-48.36
-40.55
-31.37
-22.06
-13.63
-6.59
-1.04
3.24
6.51
9.00
10.84
12.06
12.71
12.94
12.99
13.15
13.74
14.95
16.76
18.92
21.04
22.72
23.72
23.99
23.65
22.84
21.62
19.97
17.79
15.05
11.84
8.35
4.81
1.41
-1.77
-4.74
-7.58
-10.39
-13.26
-16.32
-19.78
-23.87
-28.77
-34.41
-40.41
-45.94
-49.96
-51.44
-49.73
-44.75
-37.07
-27.69
-17.78
-8.46
-0.50
5.68
10.04
12.81
14.39
15.21
15.59
15.75
15.81
15.88
16.09
16.56
17.36
18.46
19.69
20.83
21.70
22.16
22.24
22.00
21.47
20.64
19.42
17.64
15.18
12.06
8.41
4.55
0.81
-2.53
-5.39
-7.88
-10.31
-13.07
-16.57
-21.03
-26.42
-32.31
-37.90
-42.15
-44.06
-42.98
-38.90
-32.38
-24.39
-16.00
-8.06
-1.07
4.75
9.36
12.81
15.13
16.41
16.83
16.68
16.33
16.09
16.16
16.49
16.93
17.25
17.34
17.20
16.97
16.77
16.64
16.45
15.99
15.00
13.30
10.87
7.79
4.28
0.59
-3.03
-6.36
-9.31
-11.91
-14.40
-17.13
-20.52
-24.85
-30.12
-35.92
-41.43
-45.59
-47.36
-46.07
-41.67
-34.73
-26.30
-17.55
-9.47
-2.61
2.88
7.17
10.51
13.08
14.96
16.21
16.92
17.32
17.71
18.38
19.46
20.89
22.42
23.76
24.67
25.07
25.00
24.61
23.99
23.14
21.98
20.32
18.02
15.02
11.37
7.30
3.12
-0.85
-4.41
-7.46
-10.08
-12.52
-15.15
-18.46
-22.89
-28.64
-35.48
-42.57
-48.64
-52.26
-52.37
-48.70
-41.86
-33.14
-24.04
-15.76
-8.91
-3.46
0.95
4.73
8.13
11.13
13.62
15.52
16.92
18.04
19.13
20.40
21.92
23.58
25.23
26.69
27.78
28.43
28.62
28.39
27.80
26.87
25.53
23.63
21.03
17.71
13.83
9.69
5.63
1.90
-1.44
-4.52
-7.59
-10.92
-14.79
-19.42
-24.92
-31.14
-37.60
-43.43
-47.52
-48.83
-46.76
-41.35
-33.31
-23.77
-13.90
-4.67
3.34
9.86
14.81
18.20
20.12
20.78
20.53
19.82
19.17
18.99
19.48
20.55
21.92
23.20
24.08
24.50
24.63
24.74
25.01
25.38
25.47
24.76
22.77
19.39
14.87
9.80
4.82
0.40
-3.33
-6.53
-9.59
-12.99
-17.13
-22.24
-28.27
-34.86
-41.23
-46.34
-49.07
-48.63
-44.75
-37.86
-28.94
-19.26
-10.00
-1.94
4.57
9.60
13.41
16.25
18.33
19.73
20.52
20.78
20.70
20.48
20.33
20.39
20.69
21.14
21.60
21.85
21.68
20.97
19.64
17.74
15.36
12.59
9.43
5.84
1.73
-2.91
-7.98
-13.27
-18.54
-23.61
-28.44
-33.17
-38.06
-43.43
-49.54
-56.56
-64.39
-72.58
-80.24
-86.08
-88.63
-86.72
-79.85
-68.47
-53.95
-38.12
-22.73
-8.92
2.87
12.86
21.44
28.90
35.30
40.55
44.59
47.56
49.74
51.45
52.92
54.22
55.33
56.16
56.63
56.70
56.30
55.37
53.82
51.57
48.63
45.06
40.98
36.54
31.90
27.17
22.43
17.66
12.84
7.91
2.85
-2.31
-7.51
-12.74
-18.07
-23.76
-30.10
-37.33
-45.33
-53.53
-60.81
-65.75
-67.02
-63.78
-56.02
-44.63
-31.12
-17.20
-4.31
6.68
15.54
22.50
27.93
32.17
35.36
37.55
38.84
39.46
39.78
40.19
40.97
42.15
43.57
44.91
45.82
46.08
45.61
44.46
42.74
40.65
38.32
35.85
33.31
30.68
27.87
24.75
21.15
17.03
12.48
7.75
3.18
-0.97
-4.63
-7.95
-11.26
-14.96
-19.40
-24.76
-30.98
-37.70
-44.18
-49.31
-51.86
-50.80
-45.65
-36.78
-25.38
-13.08
-1.47
8.33
15.86
21.25
24.90
27.27
28.69
29.41
29.63
29.60
29.60
29.78
30.17
30.62
30.94
31.02
30.91
30.70
30.49
30.20
29.63
28.49
26.58
23.87
20.52
16.79
12.96
9.23
5.63
2.15
-1.29
-4.80
-8.38
-11.99
-15.54
-18.92
-22.13
-25.35
-28.92
-33.25
-38.63
-45.08
-52.12
-58.81
-63.85
-65.93
-64.10
-58.07
-48.41
-36.37
-23.54
-11.43
-1.06
7.16
13.41
18.18
21.95
25.04
27.57
29.52
30.89
31.78
32.36
32.77
33.06
33.15
32.98
32.58
32.08
31.67
31.45
31.30
30.94
30.05
28.44
26.11
23.28
20.24
17.18
14.18
11.14
7.90
4.32
0.40
-3.70
-7.70
-11.30
-14.40
-17.08
-19.70
-22.76
-26.67
-31.63
-37.48
-43.65
-49.18
-52.96
-53.89
-51.23
-44.83
-35.25
-23.60
-11.28
0.42
10.64
19.01
25.59
30.67
34.48
37.13
38.60
38.86
38.01
36.30
34.18
32.12
30.50
29.47
28.95
28.72
28.52
28.16
27.48
26.41
24.85
22.78
20.23
17.31
14.23
11.20
8.36
5.72
3.19
0.62
-2.08
-4.91
-7.76
-10.49
-12.98
-15.24
-17.39
-19.70
-22.45
-25.81
-29.65
-33.51
-36.72
-38.53
-38.42
-36.20
-32.15
-26.78
-20.77
-14.72
-9.14
-4.34
-0.51
2.30
4.18
5.29
5.85
6.00
5.87
5.63
5.53
5.88
6.88
8.61
10.82
13.10
15.02
16.27
16.78
16.64
15.98
14.91
13.48
11.75
9.78
7.66
5.46
3.12
0.53
-2.40
-5.65
-9.03
-12.26
-15.13
-17.61
-19.94
-22.50
-25.70
-29.74
-34.45
-39.25
-43.30
-45.73
-45.86
-43.48
-38.84
-32.63
-25.61
-18.53
-11.92
-6.09
-1.15
2.85
5.92
8.14
9.64
10.64
11.36
11.97
12.59
13.25
13.92
14.56
15.08
15.42
15.53
15.43
15.19
14.89
14.61
14.26
13.64
12.45
10.44
7.55
3.95
-0.02
-3.94
-7.51
-10.62
-13.37
-15.94
-18.58
-21.42
-24.62
-28.27
-32.44
-37.05
-41.78
-45.96
-48.70
-49.11
-46.65
-41.31
-33.67
-24.70
-15.43
-6.71
0.95
7.33
12.39
16.14
18.69
20.22
21.00
21.33
21.49
21.63
21.80
21.98
22.09
22.14
22.13
22.10
22.05
21.95
21.75
21.36
20.70
19.67
18.18
16.13
13.46
10.16
6.35
2.21
-1.92
-5.75
-9.07
-11.88
-14.37
-16.86
-19.75
-23.31
-27.67
-32.68
-37.88
-42.52
-45.71
-46.66
-44.90
-40.52
-34.11
-26.58
-18.85
-11.70
-5.53
-0.46
3.50
6.37
8.17
8.98
8.97
8.46
7.82
7.38
7.34
7.66
8.23
8.81
9.28
9.57
9.75
9.86
9.89
9.71
9.15
7.97
6.02
3.27
-0.12
-3.84
-7.51
-10.79
-13.53
-15.78
-17.82
-20.06
-22.89
-26.57
-31.05
-35.98
-40.69
-44.28
-45.88
-44.84
-40.97
-34.63
-26.64
-18.04
-9.85
-2.77
2.86
7.00
9.86
11.66
12.68
13.11
13.16
13.05
12.99
13.16
13.56
14.08
14.45
14.46
13.93
12.88
11.42
9.71
7.81
5.68
3.15
0.02
-3.81
-8.33
-13.31
-18.46
-23.47
-28.15
-32.53
-36.82
-41.32
-46.33
-52.09
-58.74
-66.27
-74.47
-82.85
-90.67
-97.04
-101.12
-102.48
-101.22
-97.99
-93.77
-89.48
-85.63
-82.17
-78.60
-74.26
-68.74
-62.02
-54.52
-46.79
-39.31
-32.32
-25.84
-19.85
-14.35
-9.37
-4.81
-0.38
4.31
9.53
15.09
20.31
24.14
25.60
24.21
20.24
14.63
8.69
3.69
0.47
-0.79
-0.57
0.13
-0.02
-2.28
-7.56
-16.14
-27.49
-40.36
-52.91
-63.13
-69.23
-69.97
-64.85
-54.05
-38.11
-17.66
6.71
34.36
64.19
94.47
123.02
147.77
167.36
181.63
191.46
198.21
203.06
206.31
207.31
204.66
196.90
183.17
163.70
139.92
114.15
88.88
65.98
46.17
28.92
13.06
-2.46
-17.89
-32.60
-45.51
-55.71
-62.94
-67.57
-70.37
-72.07
-73.23
-74.13
-74.99
-75.98
-76.98
-77.30
-75.61
-70.27
-59.95
-44.32
-24.41
-2.57
18.22
35.27
46.97
53.27
55.48
55.71
55.94
57.41
60.25
63.72
66.77
68.53
68.64
67.23
64.65
61.25
57.20
52.74
48.19
44.01
40.60
38.02
35.96
33.69
30.37
25.32
18.35
9.75
0.24
-9.34
-18.28
-26.29
-33.56
-40.61
-48.10
-56.61
-66.40
-77.20
-88.16
-97.78
-104.19
-105.63
-101.08
-90.75
-76.23
-60.07
-45.00
-33.06
-25.06
-20.61
-18.64
-17.94
-17.61
-16.96
-15.32
-11.77
-5.14
5.52
20.57
39.40
60.61
82.50
103.66
123.19
140.50
154.85
164.97
169.23
166.30
156.00
139.90
121.10
103.40
90.01
82.54
80.64
82.45
85.43
87.37
86.85
83.46
77.47
69.59
60.64
51.42
42.65
34.90
28.45
23.26
19.05
15.38
11.88
8.38
4.83
1.21
-2.60
-6.85
-11.94
-18.23
-26.06
-35.64
-46.91
-59.45
-72.27
-83.83
-92.36
-96.35
-95.17
-89.39
-80.57
-70.73
-61.67
-54.44
-49.33
-46.13
-44.40
-43.64
-43.16
-41.98
-38.95
-33.19
-24.59
-14.08
-3.45
5.35
10.99
13.21
12.82
11.19
9.52
8.38
7.62
6.74
5.31
3.43
1.65
0.68
0.97
2.44
4.64
7.12
9.98
14.06
20.82
31.72
47.67
68.65
93.63
120.79
147.84
172.29
191.64
203.76
207.19
201.61
187.99
168.65
146.74
125.42
106.92
91.81
78.88
65.77
50.07
30.58
7.87
-15.86
-37.87
-56.05
-69.84
-80.29
-89.35
-99.01
-110.48
-123.91
-138.58
-153.40
-167.41
-180.10
-191.44
-201.57
-210.36
-217.04
-220.25
-218.49
-210.79
-197.27
-179.15
-158.35
-136.71
-115.55
-95.49
-76.78
-59.68
-44.70
-32.43
-23.20
-16.77
-12.32
-8.70
-4.80
0.04
5.90
12.39
18.77
24.29
28.30
30.49
30.83
29.64
27.51
25.10
23.04
21.73
21.20
21.17
21.22
20.98
20.29
19.20
17.91
16.60
15.33
14.06
12.68
11.09
9.20
6.99
4.49
1.77
-1.03
-3.73
-6.06
-7.69
-8.29
-7.58
-5.38
-1.75
3.02
8.44
13.94
19.01
23.37
27.00
30.04
32.64
34.92
36.84
38.30
39.25
39.69
39.76
39.61
39.44
39.34
39.26
39.08
38.58
37.58
35.99
33.84
31.25
28.38
25.34
22.16
18.81
15.28
11.57
7.76
3.95
0.25
-3.26
-6.59
-9.77
-12.95
-16.27
-19.90
-23.89
-28.11
-32.24
-35.81
-38.31
-39.37
-38.79
-36.60
-33.04
-28.47
-23.40
-18.32
-13.70
-9.89
-7.03
-5.06
-3.77
-2.88
-2.19
-1.54
-0.91
-0.26
0.43
1.25
2.23
3.37
4.61
5.82
6.90
7.82
8.63
9.41
10.17
10.82
11.18
11.05
10.37
9.17
7.63
5.95
4.28
2.68
1.15
-0.34
-1.84
-3.46
-5.37
-7.76
-10.72
-14.16
-17.73
-20.88
-23.03
-23.67
-22.60
-19.91
-15.96
-11.29
-6.52
-2.11
1.60
4.44
6.43
7.68
8.36
8.64
8.67
8.59
8.49
8.42
8.41
8.45
8.53
8.65
8.78
8.92
9.05
9.16
9.26
9.29
9.17
8.73
7.83
6.38
4.41
2.11
-0.28
-2.54
-4.60
-6.49
-8.39
-10.48
-12.96
-15.96
-19.52
-23.52
-27.59
-31.15
-33.52
-34.14
-32.75
-29.49
-24.90
-19.69
-14.51
-9.79
-5.67
-2.13
0.92
3.52
5.63
7.24
8.36
9.14
9.79
10.53
11.55
12.88
14.42
15.95
17.24
18.11
18.52
18.53
18.25
17.80
17.19
16.38
15.33
14.00
12.39
10.50
8.35
5.97
3.43
0.84
-1.68
-4.10
-6.51
-9.10
-12.17
-15.86
-20.18
-24.88
-29.53
-33.56
-36.40
-37.59
-36.89
-34.37
-30.38
-25.47
-20.21
-15.07
-10.35
-6.13
-2.39
0.92
3.83
6.35
8.41
9.97
11.04
11.74
12.22
12.68
13.27
14.06
15.05
16.10
17.07
17.79
18.11
17.94
17.35
16.44
15.33
14.08
12.62
10.79
8.48
5.72
2.74
-0.15
-2.74
-4.98
-7.08
-9.36
-12.10
-15.45
-19.35
-23.53
-27.59
-31.03
-33.36
-34.19
-33.34
-30.93
-27.31
-22.94
-18.28
-13.69
-9.36
-5.38
-1.82
1.24
3.74
5.61
6.93
7.85
8.58
9.35
10.31
11.54
13.01
14.61
16.14
17.38
18.18
18.50
18.43
18.10
17.69
17.23
16.62
15.66
14.17
12.09
9.55
6.82
4.15
1.66
-0.66
-3.00
-5.53
-8.43
-11.74
-15.45
-19.41
-23.36
-26.93
-29.66
-31.06
-30.80
-28.78
-25.20
-20.52
-15.30
-10.11
-5.36
-1.30
1.99
4.58
6.63
8.30
9.74
11.01
12.06
12.85
13.37
13.70
14.02
14.49
15.22
16.21
17.33
18.39
19.21
19.67
19.73
19.38
18.62
17.48
15.99
14.15
12.01
9.58
6.87
3.93
0.85
-2.26
-5.33
-8.41
-11.65
-15.27
-19.41
-24.04
-28.85
-33.37
-37.03
-39.31
-39.83
-38.49
-35.39
-30.88
-25.44
-19.62
-13.92
-8.68
-4.10
-0.20
3.12
5.97
8.48
10.72
12.68
14.35
15.70
16.72
17.50
18.14
18.73
19.36
20.02
20.69
21.35
21.95
22.43
22.70
22.64
22.13
21.14
19.70
17.88
15.81
13.53
11.08
8.47
5.73
2.95
0.19
-2.52
-5.30
-8.31
-11.82
-15.99
-20.79
-25.95
-30.96
-35.14
-37.83
-38.54
-37.11
-33.75
-28.94
-23.31
-17.45
-11.81
-6.64
-2.04
2.02
5.58
8.67
11.31
13.49
15.24
16.64
17.77
18.77
19.73
20.68
21.60
22.46
23.23
23.90
24.47
24.88
25.02
24.76
24.00
22.77
21.17
19.35
17.41
15.33
13.05
10.50
7.62
4.49
1.26
-1.89
-4.81
-7.43
-9.79
-12.06
-14.46
-17.28
-20.61
-24.38
-28.20
-31.47
-33.53
-33.90
-32.43
-29.30
-24.98
-20.01
-14.86
-9.87
-5.28
-1.22
2.19
4.90
6.93
8.39
9.43
10.23
10.92
11.59
12.26
12.94
13.64
14.37
15.13
15.87
16.54
17.04
17.26
17.11
16.57
15.65
14.42
12.98
11.36
9.64
7.88
6.11
4.33
2.50
0.54
-1.61
-3.97
-6.50
-9.19
-12.04
-15.16
-18.62
-22.36
-26.08
-29.22
-31.17
-31.42
-29.81
-26.54
-22.06
-16.92
-11.61
-6.51
-1.87
2.10
5.28
7.61
9.15
10.03
10.51
10.82
11.17
11.72
12.56
13.67
14.97
16.31
17.48
18.28
18.60
18.44
17.91
17.19
16.41
15.60
14.66
13.45
11.84
9.81
7.46
4.97
2.48
0.11
-2.11
-4.20
-6.27
-8.39
-10.70
-13.32
-16.39
-19.97
-23.96
-28.05
-31.75
-34.44
-35.60
-34.93
-32.43
-28.42
-23.46
-18.13
-12.95
-8.25
-4.14
-0.57
2.56
5.34
7.75
9.71
11.15
12.06
12.62
13.06
13.65
14.53
15.68
16.95
18.12
19.06
19.71
20.13
20.35
20.39
20.16
19.60
18.63
17.26
15.53
13.46
11.06
8.38
5.47
2.52
-0.31
-2.87
-5.14
-7.23
-9.36
-11.78
-14.68
-18.14
-22.09
-26.28
-30.31
-33.64
-35.70
-36.00
-34.33
-30.78
-25.77
-19.98
-14.11
-8.76
-4.23
-0.60
2.30
4.70
6.84
8.89
10.91
12.91
14.79
16.47
17.83
18.83
19.51
20.03
20.51
21.02
21.55
22.00
22.20
22.07
21.53
20.56
19.15
17.32
15.16
12.82
10.52
8.42
6.58
4.91
3.26
1.51
-0.41
-2.45
-4.61
-6.93
-9.56
-12.67
-16.35
-20.49
-24.81
-28.84
-32.10
-34.12
-34.64
-33.57
-31.07
-27.48
-23.21
-18.65
-14.09
-9.67
-5.47
-1.60
1.86
4.78
7.08
8.72
9.76
10.27
10.46
10.53
10.75
11.34
12.36
13.69
15.06
16.16
16.82
17.03
16.93
16.68
16.29
15.70
14.76
13.38
11.57
9.45
7.16
4.81
2.43
0.01
-2.48
-5.06
-7.75
-10.57
-13.56
-16.78
-20.21
-23.75
-27.10
-29.81
-31.41
-31.55
-30.09
-27.21
-23.30
-18.81
-14.14
-9.56
-5.20
-1.18
2.43
5.50
7.93
9.65
10.71
11.21
11.39
11.52
11.89
12.70
13.94
15.48
17.04
18.35
19.21
19.58
19.49
19.05
18.32
17.29
15.94
14.26
12.32
10.22
8.09
5.95
3.77
1.47
-1.02
-3.67
-6.39
-9.11
-11.85
-14.79
-18.17
-22.18
-26.72
-31.38
-35.46
-38.18
-39.02
-37.83
-34.87
-30.66
-25.80
-20.75
-15.80
-11.10
-6.73
-2.82
0.53
3.27
5.42
7.12
8.56
9.93
11.32
12.76
14.20
15.54
16.72
17.69
18.45
19.04
19.53
19.92
20.15
20.13
19.76
19.03
17.97
16.65
15.16
13.50
11.60
9.41
6.89
4.16
1.40
-1.21
-3.57
-5.74
-7.93
-10.44
-13.57
-17.47
-22.09
-27.11
-31.96
-35.97
-38.49
-39.08
-37.61
-34.29
-29.57
-24.07
-18.35
-12.89
-7.97
-3.71
-0.06
3.09
5.87
8.37
10.58
12.49
14.05
15.31
16.36
17.33
18.32
19.40
20.55
21.72
22.83
23.74
24.35
24.56
24.30
23.59
22.51
21.18
19.64
17.95
16.08
14.02
11.75
9.29
6.65
3.88
1.01
-1.94
-4.91
-7.90
-10.94
-14.14
-17.67
-21.63
-25.97
-30.41
-34.40
-37.29
-38.51
-37.70
-34.89
-30.45
-25.02
-19.27
-13.77
-8.87
-4.68
-1.17
1.80
4.34
6.53
8.43
10.06
11.45
12.66
13.75
14.79
15.81
16.78
17.66
18.41
18.97
19.36
19.55
19.54
19.24
18.52
17.30
15.59
13.52
11.32
9.18
7.21
5.35
3.43
1.26
-1.25
-4.07
-7.05
-10.06
-13.07
-16.12
-19.33
-22.64
-25.78
-28.23
-29.36
-28.74
-26.31
-22.41
-17.70
-12.84
-8.23
-4.00
-0.06
3.65
7.07
9.96
12.07
13.25
13.58
13.30
12.77
12.29
12.08
12.21
12.65
13.32
14.15
15.07
16.03
16.94
17.71
18.16
18.13
17.52
16.28
14.50
12.31
9.86
7.25
4.53
1.74
-1.06
-3.77
-6.32
-8.71
-11.08
-13.70
-16.88
-20.80
-25.38
-30.19
-34.51
-37.53
-38.64
-37.62
-34.65
-30.32
-25.24
-19.98
-14.87
-10.08
-5.68
-1.71
1.75
4.67
7.06
9.00
10.58
11.92
13.08
14.13
15.20
16.38
17.78
19.39
21.11
22.70
23.95
24.72
25.00
24.90
24.56
24.01
23.17
21.91
20.15
17.91
15.38
12.75
10.13
7.49
4.68
1.51
-2.13
-6.26
-10.79
-15.61
-20.60
-25.61
-30.37
-34.42
-37.21
-38.17
-36.99
-33.73
-28.84
-23.09
-17.26
-11.97
-7.50
-3.81
-0.64
2.27
5.06
7.71
10.11
12.09
13.60
14.72
15.60
16.43
17.33
18.32
19.28
20.07
20.58
20.81
20.78
20.56
20.18
19.58
18.62
17.17
15.13
12.55
9.64
6.71
4.00
1.66
-0.41
-2.44
-4.77
-7.63
-11.17
-15.35
-19.92
-24.52
-28.63
-31.68
-33.14
-32.64
-30.16
-26.04
-20.84
-15.27
-9.87
-5.01
-0.83
2.69
5.59
7.91
9.68
10.98
11.89
12.55
13.12
13.75
14.53
15.47
16.51
17.56
18.47
19.15
19.56
19.67
19.52
19.07
18.28
17.10
15.53
13.61
11.44
9.11
6.69
4.18
1.57
-1.13
-3.87
-6.63
-9.41
-12.34
-15.58
-19.28
-23.45
-27.82
-31.89
-35.01
-36.62
-36.34
-34.18
-30.46
-25.69
-20.43
-15.15
-10.15
-5.56
-1.45
2.18
5.30
7.89
9.93
11.48
12.64
13.63
14.64
15.80
17.09
18.42
19.62
20.61
21.36
21.91
22.30
22.50
22.42
21.94
20.97
19.49
17.58
15.31
12.80
10.13
7.39
4.61
1.81
-0.98
-3.81
-6.69
-9.63
-12.68
-15.96
-19.59
-23.67
-28.08
-32.43
-36.07
-38.26
-38.40
-36.32
-32.31
-27.03
-21.25
-15.61
-10.42
-5.78
-1.60
2.20
5.59
8.53
10.95
12.89
14.44
15.76
16.98
18.15
19.29
20.34
21.26
22.02
22.61
23.04
23.26
23.20
22.78
21.97
20.79
19.39
17.90
16.42
14.97
13.50
11.91
10.13
8.13
5.88
3.36
0.56
-2.53
-5.81
-9.17
-12.49
-15.84
-19.37
-23.27
-27.56
-31.93
-35.71
-38.10
-38.41
-36.39
-32.28
-26.75
-20.64
-14.68
-9.36
-4.79
-0.92
2.41
5.31
7.78
9.78
11.27
12.32
13.06
13.70
14.40
15.26
16.26
17.33
18.37
19.27
19.94
20.32
20.37
20.10
19.56
18.77
17.73
16.40
14.76
12.82
10.67
8.46
6.27
4.14
1.98
-0.32
-2.92
-5.94
-9.46
-13.49
-17.98
-22.79
-27.61
-32.01
-35.37
-37.10
-36.76
-34.20
-29.70
-23.88
-17.58
-11.56
-6.30
-1.93
1.72
4.91
7.82
10.49
12.81
14.64
15.94
16.77
17.30
17.72
18.16
18.70
19.32
19.98
20.57
20.97
21.08
20.78
20.08
19.02
17.73
16.32
14.85
13.30
11.59
9.63
7.36
4.79
1.98
-1.03
-4.16
-7.30
-10.38
-13.31
-16.07
-18.75
-21.54
-24.66
-28.18
-31.96
-35.56
-38.33
-39.63
-38.98
-36.30
-31.87
-26.23
-20.04
-13.90
-8.23
-3.31
0.79
4.12
6.82
9.08
11.04
12.81
14.44
15.90
17.20
18.34
19.41
20.46
21.52
22.52
23.38
24.02
24.40
24.48
24.24
23.64
22.67
21.38
19.89
18.31
16.74
15.13
13.34
11.22
8.70
5.83
2.79
-0.25
-3.17
-5.97
-8.71
-11.52
-14.48
-17.71
-21.31
-25.32
-29.62
-33.87
-37.44
-39.63
-39.83
-37.80
-33.76
-28.32
-22.24
-16.18
-10.55
-5.51
-1.07
2.81
6.09
8.71
10.63
11.89
12.64
13.11
13.55
14.12
14.95
16.02
17.22
18.41
19.41
20.11
20.43
20.35
19.91
19.15
18.15
16.96
15.65
14.23
12.71
11.05
9.23
7.24
5.08
2.82
0.50
-1.81
-4.06
-6.29
-8.58
-11.05
-13.87
-17.12
-20.78
-24.66
-28.38
-31.38
-33.11
-33.14
-31.33
-27.88
-23.27
-18.12
-12.99
-8.21
-3.93
-0.13
3.21
6.05
8.25
9.75
10.54
10.80
10.83
10.93
11.30
11.98
12.90
13.88
14.78
15.41
15.65
15.42
14.72
13.62
12.30
10.94
9.65
8.41
7.11
5.60
3.80
1.72
-0.55
-2.91
-5.33
-7.82
-10.47
-13.36
-16.56
-20.10
-23.94
-27.92
-31.67
-34.69
-36.42
-36.39
-34.41
-30.62
-25.49
-19.68
-13.84
-8.52
-4.00
-0.30
2.75
5.37
7.76
9.96
11.89
13.40
14.41
14.96
15.24
15.53
16.07
16.95
18.10
19.27
20.18
20.53
20.23
19.31
18.00
16.54
15.13
13.82
12.49
10.93
8.95
6.50
3.65
0.59
-2.50
-5.50
-8.40
-11.28
-14.30
-17.62
-21.34
-25.44
-29.71
-33.74
-37.01
-38.95
-39.14
-37.40
-33.84
-28.84
-22.92
-16.65
-10.53
-5.00
-0.30
3.47
6.40
8.67
10.48
12.03
13.39
14.56
15.50
16.19
16.70
17.15
17.67
18.31
19.03
19.66
20.04
20.04
19.69
19.09
18.37
17.55
16.60
15.40
13.82
11.87
9.60
7.14
4.58
1.96
-0.74
-3.59
-6.64
-9.93
-13.56
-17.58
-22.03
-26.75
-31.39
-35.38
-38.10
-39.00
-37.84
-34.73
-30.07
-24.48
-18.56
-12.86
-7.72
-3.28
0.46
3.58
6.18
8.32
10.04
11.36
12.40
13.34
14.41
15.73
17.22
18.67
19.78
20.37
20.44
20.20
19.86
19.54
19.18
18.59
17.60
16.15
14.34
12.32
10.23
8.06
5.75
3.20
0.39
-2.63
-5.74
-8.90
-12.08
-15.40
-18.93
-22.64
-26.33
-29.61
-31.94
-32.85
-31.98
-29.27
-24.99
-19.67
-13.92
-8.30
-3.26
1.02
4.50
7.23
9.25
10.58
11.27
11.41
11.22
11.00
11.03
11.47
12.32
13.42
14.51
15.39
15.95
16.23
16.33
16.33
16.21
15.86
15.09
13.75
11.82
9.41
6.74
4.03
1.47
-0.93
-3.24
-5.60
-8.18
-11.16
-14.66
-18.77
-23.39
-28.22
-32.74
-36.28
-38.17
-37.98
-35.64
-31.45
-26.01
-19.99
-14.01
-8.49
-3.62
0.60
4.24
7.40
10.16
12.49
14.35
15.72
16.65
17.29
17.85
18.53
19.39
20.38
21.36
22.14
22.62
22.75
22.56
22.07
21.30
20.26
18.94
17.36
15.56
13.59
11.52
9.45
7.44
5.52
3.64
1.65
-0.67
-3.54
-7.10
-11.37
-16.17
-21.12
-25.70
-29.27
-31.24
-31.17
-28.96
-24.85
-19.37
-13.26
-7.20
-1.74
2.79
6.27
8.74
10.34
11.31
11.87
12.31
12.85
13.62
14.65
15.84
16.98
17.86
18.27
18.16
17.59
16.75
15.88
15.13
14.52
13.90
13.10
11.94
10.35
8.35
6.06
3.61
1.12
-1.34
-3.71
-5.99
-8.26
-10.63
-13.30
-16.44
-20.21
-24.55
-29.17
-33.50
-36.81
-38.36
-37.71
-34.83
-30.20
-24.54
-18.63
-12.99
-7.87
-3.29
0.78
4.28
7.07
9.01
10.15
10.69
10.98
11.29
11.80
12.51
13.31
14.07
14.71
15.24
15.71
16.11
16.42
16.54
16.36
15.79
14.76
13.26
11.33
9.05
6.54
3.95
1.41
-1.03
-3.42
-5.93
-8.76
-12.09
-15.97
-20.27
-24.67
-28.66
-31.64
-33.05
-32.45
-29.71
-25.09
-19.18
-12.72
-6.42
-0.75
4.18
8.41
12.10
15.31
18.00
20.11
21.62
22.65
23.41
24.17
25.12
26.35
27.87
29.63
31.53
33.38
34.88
35.59
35.01
32.72
28.55
22.68
15.58
7.92
0.31
-6.77
-13.04
-18.37
-22.70
-26.03
-28.42
-30.08
-31.34
-32.69
-34.57
-37.26
-40.81
-44.86
-48.78
-51.70
-52.77
-51.41
-47.50
-41.44
-34.03
-26.20
-18.71
-12.03
-6.31
-1.45
2.66
6.10
8.90
11.13
12.93
14.53
16.15
17.97
19.97
22.04
23.98
25.56
26.63
27.16
27.23
26.95
26.46
25.80
24.95
23.80
22.24
20.22
17.76
14.98
12.00
8.94
5.89
2.91
0.02
-2.76
-5.43
-8.07
-10.83
-13.92
-17.53
-21.76
-26.46
-31.23
-35.40
-38.13
-38.72
-36.78
-32.44
-26.33
-19.42
-12.65
-6.69
-1.74
2.39
6.03
9.42
12.52
15.12
16.99
18.06
18.48
18.61
18.83
19.33
20.15
21.11
21.97
22.51
22.66
22.47
22.01
21.37
20.53
19.40
17.86
15.89
13.52
10.88
8.18
5.55
3.06
0.71
-1.57
-3.87
-6.26
-8.87
-11.83
-15.30
-19.29
-23.65
-27.95
-31.56
-33.78
-34.02
-32.03
-27.95
-22.29
-15.81
-9.27
-3.30
1.73
5.71
8.72
10.90
12.42
13.41
13.99
14.30
14.53
14.81
15.31
16.06
17.04
18.16
19.26
20.21
20.84
21.03
20.67
19.76
18.40
16.75
14.99
13.30
11.69
10.09
8.36
6.32
3.93
1.20
-1.74
-4.77
-7.77
-10.71
-13.62
-16.65
-19.96
-23.72
-27.95
-32.44
-36.68
-39.94
-41.46
-40.68
-37.45
-32.13
-25.40
-18.14
-11.14
-4.97
0.06
3.91
6.75
8.85
10.53
12.10
13.71
15.31
16.77
17.91
18.68
19.17
19.59
20.15
20.97
22.02
23.13
24.07
24.60
24.57
23.92
22.66
20.88
18.76
16.43
14.02
11.59
9.13
6.66
4.15
1.61
-0.97
-3.63
-6.46
-9.58
-13.06
-16.94
-21.19
-25.69
-30.22
-34.46
-37.91
-40.03
-40.32
-38.51
-34.64
-29.12
-22.62
-15.85
-9.43
-3.71
1.16
5.21
8.53
11.18
13.28
14.91
16.25
17.47
18.69
19.93
21.08
21.98
22.56
22.86
23.02
23.20
23.48
23.78
23.92
23.72
23.05
21.92
20.43
18.70
16.84
14.87
12.76
10.47
7.96
5.20
2.22
-0.87
-3.93
-6.83
-9.49
-12.02
-14.66
-17.74
-21.48
-25.88
-30.57
-34.92
-38.17
-39.70
-39.15
-36.53
-32.16
-26.56
-20.36
-14.15
-8.41
-3.43
0.73
4.16
7.02
9.49
11.62
13.42
14.84
15.89
16.62
17.11
17.43
17.60
17.68
17.76
18.00
18.50
19.20
19.88
20.20
19.86
18.82
17.27
15.60
14.10
12.82
11.58
10.04
7.93
5.24
2.18
-0.94
-3.82
-6.35
-8.56
-10.65
-12.89
-15.52
-18.68
-22.30
-26.09
-29.53
-31.98
-32.84
-31.78
-28.83
-24.36
-18.94
-13.20
-7.68
-2.75
1.36
4.62
7.08
8.89
10.20
11.12
11.70
11.98
12.03
11.98
12.00
12.21
12.68
13.37
14.17
14.91
15.42
15.55
15.16
14.22
12.80
11.12
9.43
7.93
6.66
5.50
4.23
2.63
0.62
-1.72
-4.24
-6.80
-9.37
-12.02
-14.90
-18.11
-21.68
-25.45
-29.14
-32.40
-34.81
-36.07
-35.95
-34.39
-31.39
-27.09
-21.70
-15.58
-9.23
-3.19
2.02
6.05
8.81
10.49
11.46
12.06
12.57
13.11
13.71
14.34
15.02
15.71
16.35
16.86
17.19
17.35
17.43
17.49
17.48
17.26
16.65
15.50
13.80
11.70
9.43
7.16
4.98
2.82
0.62
-1.69
-4.07
-6.50
-8.99
-11.63
-14.61
-18.10
-22.17
-26.69
-31.23
-35.21
-38.00
-39.11
-38.33
-35.76
-31.69
-26.59
-20.93
-15.17
-9.67
-4.72
-0.51
2.91
5.62
7.70
9.26
10.39
11.15
11.67
12.16
12.82
13.82
15.13
16.59
17.95
18.94
19.47
19.58
19.43
19.16
18.83
18.39
17.66
16.47
14.74
12.52
9.96
7.29
4.67
2.18
-0.21
-2.58
-4.98
-7.43
-9.96
-12.64
-15.61
-19.00
-22.82
-26.90
-30.84
-34.04
-35.94
-36.09
-34.33
-30.85
-26.08
-20.62
-15.03
-9.78
-5.09
-1.04
2.48
5.53
8.16
10.33
11.98
13.13
13.87
14.39
14.86
15.43
16.14
16.95
17.78
18.51
19.06
19.37
19.44
19.29
18.95
18.41
17.59
16.43
14.86
12.92
10.75
8.48
6.26
4.12
2.02
-0.13
-2.41
-4.86
-7.53
-10.46
-13.72
-17.34
-21.25
-25.24
-28.92
-31.79
-33.33
-33.19
-31.25
-27.72
-23.07
-17.88
-12.70
-7.89
-3.67
-0.07
2.93
5.34
7.15
8.39
9.13
9.53
9.78
10.14
10.75
11.69
12.88
14.13
15.20
15.91
16.18
16.06
15.73
15.35
14.98
14.55
13.92
12.89
11.36
9.30
6.82
4.12
1.39
-1.20
-3.61
-5.91
-8.29
-11.01
-14.30
-18.25
-22.75
-27.45
-31.79
-35.12
-36.83
-36.57
-34.34
-30.44
-25.41
-19.81
-14.12
-8.66
-3.65
0.78
4.50
7.42
9.56
11.01
11.98
12.68
13.32
14.00
14.75
15.54
16.32
17.06
17.75
18.40
18.96
19.36
19.50
19.25
18.55
17.41
15.92
14.24
12.50
10.75
8.97
7.03
4.81
2.22
-0.70
-3.84
-7.07
-10.31
-13.60
-17.05
-20.81
-25.01
-29.54
-34.11
-38.20
-41.22
-42.62
-42.06
-39.50
-35.22
-29.76
-23.73
-17.71
-12.11
-7.16
-2.93
0.64
3.61
6.10
8.22
10.11
11.93
13.80
15.81
17.90
19.98
21.90
23.58
24.97
26.10
26.98
27.61
27.95
27.91
27.45
26.61
25.44
24.04
22.45
20.67
18.64
16.28
13.57
10.55
7.34
4.12
1.05
-1.79
-4.52
-7.37
-10.67
-14.66
-19.37
-24.45
-29.31
-33.19
-35.39
-35.54
-33.65
-30.08
-25.38
-20.12
-14.77
-9.66
-4.94
-0.68
3.07
6.32
9.02
11.13
12.65
13.63
14.26
14.82
15.60
16.80
18.47
20.40
22.35
24.04
25.34
26.25
26.86
27.23
27.31
27.00
26.13
24.62
22.50
19.90
17.01
13.98
10.91
7.82
4.72
1.63
-1.37
-4.22
-6.96
-9.76
-12.89
-16.58
-20.89
-25.57
-30.07
-33.70
-35.77
-35.86
-33.94
-30.30
-25.47
-20.09
-14.67
-9.62
-5.13
-1.27
1.99
4.71
7.00
8.91
10.50
11.78
12.75
13.48
14.07
14.68
15.48
16.53
17.74
18.96
19.99
20.69
21.02
21.00
20.66
20.00
18.95
17.45
15.50
13.16
10.61
7.99
5.45
2.99
0.56
-1.96
-4.64
-7.51
-10.60
-13.89
-17.46
-21.38
-25.64
-30.06
-34.18
-37.37
-38.93
-38.39
-35.67
-31.11
-25.40
-19.28
-13.40
-8.12
-3.55
0.36
3.76
6.75
9.38
11.65
13.59
15.20
16.52
17.63
18.60
19.49
20.37
21.23
22.08
22.85
23.48
23.91
24.11
24.03
23.62
22.83
21.65
20.11
18.27
16.25
14.11
11.87
9.50
6.98
4.27
1.38
-1.63
-4.69
-7.76
-10.82
-13.92
-17.20
-20.78
-24.75
-29.04
-33.35
-37.17
-39.88
-40.91
-39.95
-37.04
-32.50
-26.90
-20.83
-14.81
-9.19
-4.16
0.26
4.14
7.59
10.67
13.36
15.57
17.24
18.39
19.16
19.78
20.46
21.34
22.37
23.41
24.31
24.94
25.22
25.11
24.57
23.55
22.08
20.30
18.44
16.71
15.21
13.89
12.57
11.00
9.00
6.51
3.63
0.55
-2.49
-5.25
-7.66
-9.79
-11.92
-14.45
-17.74
-21.93
-26.85
-31.94
-36.46
-39.59
-40.76
-39.74
-36.71
-32.13
-26.66
-20.89
-15.27
-10.03
-5.23
-0.88
3.08
6.61
9.66
12.15
14.07
15.48
16.50
17.30
18.01
18.71
19.44
20.25
21.19
22.27
23.51
24.77
25.84
26.42
26.25
25.23
23.46
21.22
18.86
16.67
14.75
13.02
11.30
9.40
7.20
4.72
2.06
-0.66
-3.33
-5.92
-8.48
-11.14
-14.06
-17.40
-21.20
-25.38
-29.65
-33.58
-36.67
-38.43
-38.53
-36.86
-33.52
-28.87
-23.39
-17.64
-12.15
-7.28
-3.20
0.12
2.82
5.06
6.90
8.39
9.48
10.23
10.77
11.31
12.06
13.14
14.55
16.17
17.80
19.28
20.48
21.32
21.74
21.73
21.25
20.30
18.88
17.01
14.72
12.07
9.15
6.08
2.96
-0.05
-2.88
-5.49
-7.90
-10.23
-12.67
-15.45
-18.76
-22.61
-26.80
-30.91
-34.34
-36.53
-37.10
-35.94
-33.21
-29.24
-24.43
-19.15
-13.71
-8.39
-3.45
0.88
4.43
7.17
9.12
10.50
11.53
12.46
13.44
14.50
15.58
16.55
17.30
17.82
18.21
18.65
19.24
19.96
20.64
20.97
20.68
19.65
17.97
15.96
13.90
12.06
10.42
8.86
7.13
5.05
2.52
-0.45
-3.72
-7.19
-10.69
-14.16
-17.60
-21.12
-24.86
-28.87
-33.01
-36.88
-39.97
-41.68
-41.63
-39.75
-36.20
-31.37
-25.75
-19.81
-13.98
-8.64
-4.02
-0.25
2.77
5.22
7.39
9.45
11.45
13.29
14.83
16.00
16.81
17.42
18.02
18.74
19.63
20.65
21.68
22.55
23.13
23.28
22.91
22.01
20.64
18.88
16.78
14.37
11.65
8.69
5.61
2.58
-0.24
-2.83
-5.27
-7.74
-10.44
-13.48
-16.95
-20.85
-25.10
-29.52
-33.71
-37.14
-39.21
-39.44
-37.64
-34.00
-29.00
-23.28
-17.47
-12.01
-7.16
-2.95
0.72
3.99
6.95
9.57
11.76
13.44
14.65
15.53
16.32
17.23
18.37
19.67
20.95
22.04
22.82
23.27
23.47
23.50
23.38
23.02
22.31
21.13
19.44
17.32
14.95
12.53
10.16
7.80
5.35
2.69
-0.20
-3.20
-6.16
-8.99
-11.81
-14.89
-18.54
-22.84
-27.54
-32.06
-35.66
-37.67
-37.72
-35.83
-32.35
-27.77
-22.57
-17.18
-11.90
-6.99
-2.64
1.01
3.91
6.14
7.83
9.16
10.27
11.23
12.07
12.83
13.60
14.48
15.57
16.85
18.23
19.49
20.45
20.94
20.91
20.44
19.63
18.59
17.37
15.95
14.26
12.26
9.92
7.27
4.42
1.50
-1.35
-4.07
-6.71
-9.43
-12.43
-15.91
-19.89
-24.21
-28.46
-32.15
-34.71
-35.67
-34.79
-32.05
-27.75
-22.37
-16.46
-10.58
-5.14
-0.38
3.61
6.88
9.50
11.53
13.05
14.10
14.78
15.24
15.65
16.14
16.80
17.64
18.57
19.52
20.38
21.08
21.55
21.72
21.53
20.94
19.95
18.58
16.87
14.84
12.49
9.86
6.99
4.02
1.08
-1.73
-4.38
-6.94
-9.57
-12.46
-15.80
-19.71
-24.22
-29.20
-34.33
-39.11
-42.91
-45.10
-45.23
-43.18
-39.20
-33.77
-27.55
-21.15
-14.99
-9.34
-4.27
0.17
4.03
7.32
10.05
12.31
14.20
15.84
17.35
18.80
20.20
21.53
22.76
23.90
24.90
25.72
26.26
26.43
26.15
25.44
24.38
23.07
21.60
20.02
18.24
16.18
13.79
11.06
8.09
5.05
2.07
-0.79
-3.53
-6.25
-9.12
-12.31
-16.02
-20.38
-25.33
-30.59
-35.59
-39.58
-41.80
-41.73
-39.28
-34.79
-28.93
-22.49
-16.19
-10.51
-5.68
-1.68
1.70
4.70
7.54
10.28
12.80
14.92
16.49
17.52
18.18
18.72
19.34
20.12
20.98
21.77
22.31
22.47
22.19
21.44
20.27
18.76
17.04
15.24
13.40
11.50
9.49
7.35
5.12
2.90
0.79
-1.21
-3.15
-5.19
-7.44
-10.03
-13.08
-16.72
-21.02
-25.87
-30.85
-35.23
-38.18
-38.97
-37.33
-33.47
-28.05
-21.87
-15.68
-9.98
-4.99
-0.74
2.85
5.89
8.48
10.66
12.47
13.89
14.98
15.89
16.78
17.83
19.12
20.59
22.06
23.32
24.20
24.60
24.53
24.00
23.11
21.89
20.38
18.56
16.39
13.75
10.61
7.06
3.32
-0.32
-3.62
-6.47
-9.01
-11.50
-14.29
-17.69
-21.86
-26.67
-31.73
-36.38
-39.88
-41.59
-41.14
-38.54
-34.12
-28.47
-22.17
-15.70
-9.42
-3.54
1.81
6.48
10.41
13.52
15.87
17.57
18.82
19.82
20.70
21.56
22.41
23.26
24.10
24.91
25.65
26.19
26.39
26.15
25.43
24.28
22.75
20.91
18.75
16.28
13.51
10.50
7.37
4.23
1.14
-1.93
-5.01
-8.15
-11.28
-14.35
-17.37
-20.47
-23.95
-28.08
-32.95
-38.24
-43.22
-46.95
-48.52
-47.45
-43.83
-38.26
-31.60
-24.68
-18.06
-12.03
-6.63
-1.82
2.45
6.20
9.42
12.14
14.44
16.38
18.05
19.48
20.68
21.65
22.41
23.01
23.53
24.06
24.64
25.15
25.36
25.01
23.91
22.05
19.65
17.01
14.37
11.80
9.17
6.27
2.93
-0.79
-4.67
-8.38
-11.68
-14.48
-16.89
-19.18
-21.66
-24.55
-27.92
-31.65
-35.39
-38.58
-40.59
-40.79
-38.81
-34.62
-28.64
-21.61
-14.38
-7.70
-1.98
2.71
6.57
9.90
12.92
15.71
18.19
20.25
21.78
22.81
23.45
23.90
24.37
25.01
25.86
26.85
27.83
28.62
29.05
29.03
28.55
27.67
26.39
24.72
22.64
20.14
17.29
14.18
10.90
7.51
4.06
0.61
-2.77
-5.98
-8.98
-11.79
-14.59
-17.64
-21.21
-25.44
-30.27
-35.35
-40.10
-43.78
-45.68
-45.26
-42.34
-37.16
-30.35
-22.74
-15.17
-8.29
-2.47
2.23
5.91
8.76
11.00
12.77
14.19
15.36
16.41
17.43
18.51
19.70
20.95
22.17
23.28
24.16
24.78
25.10
25.16
24.97
24.55
23.85
22.78
21.25
19.18
16.58
13.53
10.21
6.80
3.45
0.23
-2.84
-5.82
-8.80
-11.93
-15.40
-19.45
-24.18
-29.46
-34.86
-39.65
-43.01
-44.29
-43.11
-39.56
-34.09
-27.35
-20.10
-12.99
-6.56
-1.12
3.23
6.60
9.21
11.29
12.99
14.39
15.47
16.28
16.88
17.42
18.02
18.74
19.58
20.48
21.36
22.19
22.95
23.59
24.03
24.23
24.15
23.81
23.21
22.29
20.95
19.07
16.59
13.61
10.29
6.87
3.52
0.29
-2.90
-6.18
-9.72
-13.67
-18.13
-23.11
-28.45
-33.79
-38.55
-42.07
-43.78
-43.38
-40.89
-36.63
-31.07
-24.76
-18.18
-11.75
-5.83
-0.66
3.67
7.24
10.23
12.87
15.33
17.59
19.57
21.16
22.32
23.13
23.76
24.40
25.14
25.99
26.83
27.48
27.79
27.62
26.93
25.73
24.09
22.13
19.97
17.73
15.43
13.09
10.66
8.14
5.53
2.87
0.15
-2.66
-5.66
-8.96
-12.64
-16.75
-21.25
-26.03
-30.90
-35.57
-39.60
-42.43
-43.56
-42.64
-39.66
-34.92
-29.02
-22.59
-16.19
-10.16
-4.67
0.25
4.56
8.19
11.09
13.24
14.75
15.85
16.82
17.87
19.11
20.52
21.97
23.31
24.39
25.14
25.51
25.50
25.10
24.32
23.21
21.82
20.24
18.55
16.74
14.77
12.54
9.97
7.03
3.81
0.43
-2.90
-6.02
-8.85
-11.45
-14.02
-16.86
-20.32
-24.58
-29.60
-34.97
-39.97
-43.75
-45.54
-44.90
-41.82
-36.73
-30.29
-23.29
-16.42
-10.19
-4.84
-0.43
3.15
6.04
8.37
10.21
11.57
12.50
13.08
13.52
14.06
14.89
16.06
17.52
19.06
20.51
21.69
22.51
22.91
22.81
22.18
21.03
19.43
17.47
15.20
12.66
9.84
6.79
3.65
0.60
-2.19
-4.69
-7.05
-9.61
-12.66
-16.41
-20.90
-25.91
-31.08
-35.91
-39.86
-42.36
-42.92
-41.29
-37.53
-32.06
-25.56
-18.78
-12.35
-6.63
-1.68
2.62
6.41
9.76
12.61
14.85
16.45
17.48
18.11
18.55
18.96
19.41
19.91
20.46
21.08
21.80
22.57
23.26
23.64
23.52
22.80
21.50
19.78
17.78
15.64
13.38
11.00
8.49
5.87
3.17
0.41
-2.47
-5.54
-8.90
-12.62
-16.76
-21.43
-26.68
-32.49
-38.56
-44.31
-48.90
-51.46
-51.39
-48.59
-43.51
-36.92
-29.71
-22.56
-15.85
-9.72
-4.16
0.84
5.25
8.98
12.01
14.35
16.14
17.55
18.76
19.90
21.02
22.07
23.01
23.80
24.47
25.09
25.70
26.22
26.51
26.35
25.67
24.51
23.01
21.33
19.49
17.42
14.94
11.97
8.59
5.02
1.54
-1.67
-4.64
-7.61
-10.85
-14.59
-18.88
-23.60
-28.51
-33.34
-37.74
-41.30
-43.53
-43.93
-42.12
-37.98
-31.73
-24.01
-15.66
-7.51
-0.23
5.82
10.51
13.87
15.94
16.75
16.37
15.05
13.11
10.96
8.81
6.54
3.69
-0.36
-6.08
-13.50
-22.15
-31.29
-40.30
-48.98
-57.71
-67.19
-78.05
-90.32
-103.22
-115.23
-124.59
-129.80
-130.03
-125.04
-114.87
-99.47
-78.56
-51.97
-20.12
15.53
52.47
87.60
117.94
141.41
157.18
165.74
168.48
167.28
163.99
160.06
156.33
153.00
149.72
145.92
141.04
134.75
127.01
117.99
107.92
97.08
85.74
74.22
62.90
52.19
42.47
34.02
26.95
21.16
16.49
12.77
9.89
7.85
6.56
5.84
5.39
4.80
3.75
2.10
-0.13
-2.74
-5.53
-8.32
-11.06
-13.73
-16.41
-19.20
-22.21
-25.50
-29.08
-32.81
-36.49
-39.93
-43.05
-45.86
-48.43
-50.72
-52.51
-53.48
-53.29
-51.75
-48.89
-44.86
-39.89
-34.23
-28.08
-21.74
-15.54
-9.91
-5.22
-1.73
0.52
1.70
2.09
2.09
2.05
2.31
3.05
4.30
5.90
7.61
9.12
10.19
10.70
10.64
10.10
9.24
8.19
6.98
5.54
3.67
1.16
-2.14
-6.22
-10.86
-15.77
-20.58
-25.02
-28.93
-32.36
-35.46
-38.45
-41.48
-44.59
-47.57
-50.03
-51.51
-51.54
-49.87
-46.53
-41.77
-36.03
-29.77
-23.38
-17.15
-11.29
-5.94
-1.23
2.74
5.93
8.29
9.88
10.86
11.50
12.11
12.95
14.11
15.44
16.62
17.27
17.15
16.25
14.79
13.08
11.38
9.78
8.18
6.41
4.37
2.05
-0.42
-2.92
-5.41
-7.92
-10.57
-13.47
-16.65
-20.12
-23.85
-27.83
-32.01
-36.17
-39.88
-42.57
-43.63
-42.72
-39.84
-35.34
-29.73
-23.51
-17.07
-10.70
-4.66
0.76
5.24
8.60
10.77
11.88
12.19
12.10
12.07
12.56
13.92
16.30
19.47
22.90
25.89
27.81
28.29
27.33
25.19
22.28
18.97
15.51
12.09
8.80
5.67
2.72
-0.13
-3.03
-6.11
-9.45
-13.01
-16.67
-20.31
-23.90
-27.50
-31.13
-34.71
-38.00
-40.64
-42.24
-42.50
-41.23
-38.39
-34.02
-28.26
-21.39
-13.79
-5.94
1.73
8.93
15.59
21.67
27.07
31.51
34.60
36.09
36.06
35.00
33.61
32.55
32.17
32.37
32.78
32.96
32.61
31.67
30.24
28.44
26.28
23.67
20.48
16.67
12.41
7.97
3.67
-0.25
-3.78
-7.03
-10.21
-13.49
-17.07
-21.12
-25.82
-31.29
-37.39
-43.62
-49.15
-52.98
-54.33
-52.93
-49.07
-43.42
-36.77
-29.73
-22.62
-15.63
-8.97
-2.96
2.04
5.83
8.45
10.28
11.78
13.36
15.19
17.14
18.95
20.37
21.29
21.76
21.91
21.80
21.42
20.69
19.58
18.18
16.64
15.14
13.71
12.22
10.41
7.99
4.85
1.06
-3.15
-7.51
-11.78
-15.86
-19.72
-23.48
-27.37
-31.69
-36.74
-42.66
-49.31
-56.16
-62.37
-67.05
-69.41
-69.04
-66.00
-60.74
-53.95
-46.30
-38.17
-29.43
-19.39
-7.10
8.25
26.82
47.87
69.88
91.03
109.76
125.23
137.49
147.18
155.02
161.46
166.34
169.07
168.90
165.21
157.85
147.16
134.05
119.90
106.39
95.14
87.21
82.63
80.20
77.84
73.34
65.20
53.31
38.71
22.93
7.14
-8.48
-24.85
-43.52
-65.95
-92.49
-121.67
-150.03
-172.84
-185.47
-185.19
-172.41
-150.67
-125.44
-102.00
-83.66
-71.13
-63.14
-57.77
-53.68
-50.44
-48.03
-46.16
-43.91
-40.09
-34.02
-26.15
-18.01
-11.67
-8.63
-9.13
-11.94
-14.99
-16.30
-14.94
-11.32
-6.87
-3.31
-1.84
-2.71
-5.31
-8.58
-11.58
-13.81
-15.31
-16.43
-17.59
-19.07
-20.96
-23.33
-26.27
-29.87
-34.07
-38.42
-42.13
-44.27
-44.09
-41.35
-36.50
-30.43
-24.23
-18.75
-14.42
-11.24
-8.92
-7.06
-5.36
-3.65
-1.93
-0.31
1.12
2.35
3.55
4.99
6.93
9.49
12.57
15.88
19.10
21.98
24.33
26.07
27.08
27.23
26.48
24.98
23.11
21.32
19.93
18.95
18.02
16.69
14.54
11.45
7.51
2.98
-1.95
-7.25
-12.94
-18.98
-25.02
-30.45
-34.42
-36.17
-35.22
-31.59
-25.76
-18.59
-11.06
-4.07
1.77
6.20
9.21
11.00
11.77
11.74
11.08
10.01
8.77
7.70
7.07
7.07
7.69
8.76
10.04
11.35
12.59
13.74
14.78
15.56
15.88
15.47
14.21
12.13
9.45
6.50
3.62
1.02
-1.24
-3.27
-5.37
-7.91
-11.21
-15.44
-20.42
-25.64
-30.31
-33.56
-34.67
-33.26
-29.41
-23.60
-16.59
-9.21
-2.20
3.93
8.92
12.72
15.36
16.94
17.58
17.45
16.81
15.95
15.15
14.59
14.30
14.16
14.05
13.92
13.78
13.77
13.94
14.22
14.43
14.24
13.31
11.45
8.70
5.26
1.47
-2.35
-5.96
-9.28
-12.38
-15.44
-18.76
-22.62
-27.21
-32.40
-37.68
-42.17
-44.86
-44.96
-42.18
-36.84
-29.72
-21.84
-14.03
-6.85
-0.56
4.82
9.30
12.95
15.80
17.88
19.31
20.22
20.84
21.33
21.84
22.40
22.92
23.24
23.25
22.91
22.35
21.75
21.22
20.69
19.89
18.47
16.17
12.98
9.15
5.11
1.28
-2.10
-5.02
-7.75
-10.72
-14.35
-18.90
-24.32
-30.18
-35.68
-39.84
-41.73
-40.75
-36.86
-30.57
-22.80
-14.60
-6.81
0.09
6.00
11.10
15.58
19.50
22.76
25.20
26.69
27.30
27.26
26.93
26.58
26.37
26.28
26.22
26.12
25.96
25.81
25.68
25.52
25.17
24.35
22.81
20.42
17.23
13.46
9.47
5.62
2.15
-0.88
-3.62
-6.40
-9.62
-13.63
-18.61
-24.37
-30.37
-35.68
-39.27
-40.25
-38.23
-33.43
-26.58
-18.74
-10.87
-3.62
2.74
8.26
13.06
17.21
20.67
23.28
24.98
25.82
26.06
26.06
26.17
26.56
27.20
27.87
28.31
28.40
28.15
27.69
27.14
26.54
25.77
24.68
23.10
20.98
18.30
15.12
11.54
7.69
3.77
-0.03
-3.60
-6.92
-10.15
-13.58
-17.54
-22.24
-27.64
-33.36
-38.66
-42.59
-44.25
-43.04
-38.87
-32.19
-23.87
-14.89
-6.14
1.79
8.59
14.15
18.45
21.48
23.33
24.14
24.16
23.73
23.18
22.81
22.77
23.11
23.76
24.54
25.29
25.87
26.19
26.22
25.96
25.37
24.34
22.74
20.46
17.46
13.86
9.91
5.94
2.24
-1.03
-3.89
-6.55
-9.30
-12.47
-16.28
-20.73
-25.55
-30.12
-33.64
-35.29
-34.50
-31.15
-25.61
-18.64
-11.14
-3.90
2.55
7.95
12.20
15.28
17.17
17.91
17.66
16.68
15.34
13.98
12.86
12.08
11.65
11.50
11.59
11.93
12.52
13.30
14.10
14.64
14.58
13.65
11.77
9.10
6.01
2.91
0.14
-2.13
-4.01
-5.74
-7.69
-10.19
-13.52
-17.74
-22.66
-27.77
-32.30
-35.40
-36.37
-34.85
-30.96
-25.28
-18.61
-11.75
-5.30
0.39
5.21
9.18
12.34
14.69
16.24
17.02
17.16
16.81
16.23
15.66
15.28
15.18
15.33
15.62
15.90
16.04
15.98
15.73
15.33
14.78
14.00
12.83
11.07
8.64
5.59
2.16
-1.31
-4.52
-7.34
-9.85
-12.32
-15.10
-18.45
-22.52
-27.23
-32.22
-36.93
-40.63
-42.61
-42.34
-39.64
-34.75
-28.26
-20.97
-13.63
-6.82
-0.90
4.04
8.08
11.29
13.81
15.68
16.93
17.60
17.80
17.74
17.65
17.76
18.12
18.66
19.19
19.51
19.50
19.20
18.70
18.07
17.33
16.36
15.03
13.20
10.84
8.06
5.02
1.95
-1.01
-3.79
-6.44
-9.05
-11.82
-15.02
-18.87
-23.48
-28.69
-33.97
-38.48
-41.26
-41.59
-39.19
-34.39
-27.94
-20.76
-13.64
-7.08
-1.26
3.72
7.87
11.13
13.45
14.88
15.58
15.84
15.97
16.22
16.74
17.49
18.34
19.09
19.58
19.77
19.72
19.58
19.46
19.35
19.14
18.61
17.60
16.03
13.96
11.48
8.72
5.79
2.75
-0.31
-3.32
-6.26
-9.14
-12.12
-15.38
-19.13
-23.40
-27.97
-32.35
-35.85
-37.79
-37.64
-35.23
-30.78
-24.80
-18.05
-11.27
-5.10
0.10
4.20
7.29
9.53
11.07
12.00
12.41
12.42
12.28
12.33
12.81
13.81
15.09
16.30
17.07
17.26
17.03
16.64
16.34
16.14
15.79
14.89
13.14
10.45
7.05
3.34
-0.25
-3.43
-6.15
-8.54
-10.87
-13.40
-16.39
-19.95
-24.05
-28.44
-32.62
-35.89
-37.52
-36.95
-33.97
-28.80
-21.97
-14.15
-6.01
1.88
9.05
15.12
19.80
22.96
24.65
25.14
24.77
23.85
22.60
21.14
19.59
18.09
16.86
16.06
15.73
15.75
15.85
15.78
15.33
14.46
13.19
11.57
9.64
7.44
5.07
2.68
0.49
-1.37
-2.92
-4.37
-6.05
-8.20
-10.95
-14.32
-18.26
-22.80
-27.96
-33.57
-39.16
-43.92
-46.91
-47.39
-45.11
-40.40
-34.08
-27.10
-20.28
-14.05
-8.56
-3.70
0.63
4.46
7.73
10.36
12.34
13.77
14.84
15.78
16.76
17.90
19.16
20.49
21.75
22.79
23.47
23.69
23.40
22.63
21.50
20.12
18.60
16.96
15.19
13.23
11.05
8.63
6.00
3.23
0.41
-2.36
-5.02
-7.60
-10.30
-13.42
-17.27
-21.96
-27.27
-32.58
-37.03
-39.77
-40.20
-38.14
-33.86
-27.96
-21.14
-14.15
-7.60
-1.94
2.60
6.02
8.54
10.48
12.13
13.68
15.18
16.57
17.83
18.97
20.04
21.07
22.08
23.03
23.85
24.49
24.83
24.81
24.35
23.40
21.99
20.20
18.17
15.93
13.53
10.94
8.20
5.40
2.68
0.14
-2.21
-4.48
-6.88
-9.62
-12.87
-16.69
-20.96
-25.41
-29.54
-32.74
-34.38
-34.00
-31.48
-27.06
-21.30
-14.84
-8.23
-1.87
4.04
9.29
13.63
16.78
18.56
18.96
18.27
17.01
15.75
14.95
14.78
15.16
15.80
16.42
16.81
16.91
16.79
16.54
16.20
15.70
14.87
13.56
11.71
9.33
6.57
3.64
0.73
-2.00
-4.48
-6.72
-8.83
-10.98
-13.42
-16.36
-19.96
-24.25
-28.96
-33.63
-37.54
-40.01
-40.46
-38.64
-34.69
-29.03
-22.35
-15.35
-8.70
-2.86
1.93
5.69
8.56
10.76
12.42
13.57
14.22
14.40
14.24
13.97
13.83
13.94
14.36
14.99
15.74
16.53
17.30
17.99
18.51
18.68
18.34
17.36
15.74
13.59
11.13
8.57
6.06
3.64
1.28
-1.10
-3.57
-6.18
-9.01
-12.21
-15.95
-20.38
-25.47
-30.91
-36.10
-40.23
-42.48
-42.30
-39.56
-34.62
-28.17
-21.06
-14.06
-7.66
-2.06
2.74
6.84
10.31
13.17
15.40
17.04
18.20
19.05
19.77
20.52
21.35
22.24
23.13
23.90
24.45
24.67
24.50
23.90
22.87
21.43
19.65
17.60
15.37
13.03
10.58
8.00
5.24
2.28
-0.83
-3.92
-6.86
-9.50
-11.80
-13.85
-15.82
-17.98
-20.49
-23.43
-26.56
-29.44
-31.36
-31.59
-29.58
-25.22
-18.85
-11.23
-3.28
4.20
10.76
16.29
20.95
25.05
28.85
32.48
35.93
39.05
41.68
43.76
45.38
46.86
48.59
50.96
54.09
57.81
61.61
64.85
66.94
67.55
66.74
64.76
61.90
58.23
53.52
47.40
39.67
30.67
21.42
13.52
8.76
8.54
13.47
23.04
35.71
49.00
59.98
65.70
63.89
53.49
35.10
11.01
-15.30
-40.04
-60.15
-74.22
-82.71
-87.60
-91.34
-95.83
-101.83
-108.94
-116.17
-122.61
-127.82
-131.78
-134.52
-135.66
-134.41
-129.79
-121.21
-108.93
-94.17
-78.83
-64.95
-54.07
-46.85
-43.09
-41.94
-42.47
-44.09
-46.57
-49.79
-53.35
-56.33
-57.57
-56.31
-52.72
-48.07
-44.22
-42.86
-44.72
-49.41
-55.80
-62.82
-70.01
-77.49
-85.49
-93.67
-100.74
-104.78
-103.90
-97.02
-84.16
-66.17
-44.30
-19.70
6.58
33.33
58.92
81.39
99.00
110.80
117.02
118.88
118.06
116.05
113.80
111.71
109.83
108.11
106.49
104.86
103.07
101.01
98.74
96.57
94.94
94.16
94.23
94.79
95.25
95.13
94.24
92.82
91.45
90.68
90.79
91.44
91.71
90.14
85.12
75.27
59.96
39.63
15.99
-8.25
-29.84
-45.82
-54.29
-54.91
-48.83
-38.30
-25.92
-13.90
-3.64
4.35
10.21
14.34
17.02
18.34
18.28
16.89
14.42
11.31
8.02
4.77
1.52
-2.07
-6.27
-11.02
-15.79
-19.78
-22.26
-23.08
-22.85
-22.80
-24.38
-28.71
-36.22
-46.58
-58.82
-71.75
-84.25
-95.59
-105.48
-114.03
-121.55
-128.38
-134.79
-141.02
-147.25
-153.47
-159.27
-163.64
-164.94
-161.26
-151.09
-134.01
-111.06
-84.54
-57.31
-31.91
-9.90
8.30
23.07
35.11
44.93
52.76
58.57
62.41
64.55
65.60
66.25
67.08
68.28
69.65
70.74
71.16
70.78
69.77
68.48
67.18
65.91
64.41
62.30
59.25
55.18
50.29
45.02
39.86
35.18
31.11
27.47
23.85
19.81
14.99
9.25
2.69
-4.41
-11.55
-18.14
-23.49
-26.87
-27.70
-25.71
-21.09
-14.46
-6.74
1.15
8.54
15.06
20.65
25.38
29.29
32.34
34.48
35.68
36.13
36.13
36.08
36.28
36.89
37.81
38.83
39.65
40.07
40.02
39.52
38.73
37.75
36.61
35.27
33.59
31.44
28.76
25.66
22.33
19.04
15.89
12.84
9.67
6.09
1.87
-3.07
-8.61
-14.43
-20.05
-24.86
-28.25
-29.69
-28.87
-25.81
-20.86
-14.61
-7.74
-0.89
5.42
10.78
14.95
17.80
19.38
19.91
19.74
19.25
18.74
18.38
18.28
18.46
18.94
19.67
20.55
21.40
22.03
22.31
22.23
21.86
21.22
20.27
18.85
16.83
14.16
10.94
7.41
3.81
0.30
-3.14
-6.62
-10.37
-14.64
-19.58
-25.16
-31.09
-36.73
-41.20
-43.64
-43.41
-40.41
-35.02
-28.06
-20.43
-12.91
-5.99
0.13
5.45
9.97
13.64
16.37
18.10
18.92
19.11
19.03
19.02
19.30
19.81
20.38
20.75
20.79
20.49
19.95
19.30
18.61
17.83
16.80
15.32
13.17
10.21
6.47
2.12
-2.54
-7.19
-11.61
-15.78
-19.87
-24.17
-29.00
-34.59
-41.01
-48.14
-55.57
-62.67
-68.65
-72.80
-74.66
-74.23
-71.94
-68.52
-64.70
-61.03
-57.88
-55.43
-53.90
-53.52
-54.51
-56.93
-60.64
-65.31
-70.52
-75.92
-81.29
-86.60
-91.99
-97.83
-104.67
-113.01
-122.77
-132.70
-140.13
-141.48
-133.37
-113.90
-83.45
-44.48
-0.45
45.63
92.24
139.41
187.89
237.91
288.33
336.46
378.80
412.02
434.02
444.46
444.69
437.34
425.48
411.92
398.58
386.20
374.03
359.95
340.82
313.39
275.58
227.92
174.23
121.21
76.61
46.44
32.63
32.21
38.38
43.26
40.80
28.84
9.28
-13.29
-33.93
-49.17
-57.97
-61.30
-61.15
-59.39
-57.23
-55.26
-53.90
-53.75
-55.71
-60.59
-68.63
-79.17
-90.71
-101.51
-110.34
-116.93
-121.99
-126.73
-132.24
-138.95
-146.41
-153.70
-159.87
-164.38
-167.29
-169.05
-170.17
-170.87
-170.87
-169.57
-166.40
-161.09
-153.93
-145.63
-137.09
-129.09
-122.13
-116.36
-111.76
-108.16
-105.39
-103.31
-101.75
-100.63
-99.98
-100.00
-100.92
-102.94
-106.02
-109.77
-113.52
-116.51
-118.15
-118.23
-116.88
-114.46
-111.28
-107.38
-102.51
-96.19
-87.87
-77.17
-63.88
-48.15
-30.35
-11.09
8.83
28.48
46.88
63.04
76.16
85.83
92.10
95.59
97.16
97.70
97.66
97.03
95.50
92.82
89.16
85.11
81.39
78.45
76.25
74.32
72.17
69.60
66.87
64.49
62.88
62.09
61.75
61.31
60.28
58.43
55.79
52.50
48.74
44.58
40.02
35.08
29.79
24.23
18.55
12.88
7.37
2.19
-2.51
-6.67
-10.34
-13.69
-17.00
-20.53
-24.42
-28.64
-33.05
-37.46
-41.71
-45.73
-49.38
-52.35
-54.13
-54.05
-51.59
-46.61
-39.49
-30.99
-22.08
-13.55
-5.86
0.92
6.87
12.09
16.53
19.97
22.27
23.41
23.63
23.42
23.28
23.61
24.60
26.21
28.30
30.69
33.29
35.97
38.62
41.06
43.09
44.59
45.57
46.20
46.76
47.59
49.05
51.45
54.99
59.71
65.43
71.80
78.43
85.05
91.61
98.27
105.27
112.78
120.82
129.22
137.68
145.86
153.34
159.63
164.17
166.33
165.55
161.44
153.89
143.04
129.28
113.06
94.92
75.46
55.36
35.43
16.50
-0.69
-15.71
-28.55
-39.57
-49.43
-58.83
-68.38
-78.51
-89.42
-101.14
-113.48
-125.97
-137.97
-148.67
-157.39
-163.64
-167.31
-168.58
-167.80
-165.40
-161.85
-157.68
-153.56
-150.22
-148.30
-148.06
-149.23
-151.05
-152.47
-152.55
-150.70
-146.82
-141.20
-134.29
-126.52
-118.28
-109.83
-101.41
-93.14
-85.02
-76.82
-68.19
-58.81
-48.57
-37.64
-26.44
-15.53
-5.42
3.47
10.77
16.23
19.67
21.05
20.49
18.29
14.72
10.06
4.46
-1.95
-9.05
-16.67
-24.61
-32.68
-40.77
-48.80
-56.63
-64.12
-71.07
-77.29
-82.67
-87.15
-90.69
-93.25
-94.82
-95.36
-94.93
-93.65
-91.75
-89.53
-87.29
-85.40
-84.20
-83.99
-85.04
-87.47
-91.19
-95.85
-100.85
-105.54
-109.35
-112.06
-113.96
-115.70
-118.08
-121.79
-127.12
-133.94
-141.77
-149.97
-157.91
-165.09
-171.08
-175.54
-178.15
-178.72
-177.35
-174.47
-170.85
-167.48
-165.23
-164.53
-165.25
-166.78
-168.33
-169.15
-168.53
-165.50
-158.78
-146.93
-129.05
-105.63
-78.98
-52.87
-31.30
-16.95
-10.05
-8.27
-7.67
-4.13
5.27
21.62
44.04
70.13
96.49
119.34
135.21
141.74
138.35
126.60
110.03
93.36
81.13
76.50
80.35
91.32
106.49
122.50
136.52
147.03
153.84
157.79
160.25
162.51
165.51
169.68
174.93
180.74
186.26
190.52
192.61
191.97
188.54
182.73
175.20
166.68
157.75
148.69
139.60
130.47
121.33
112.36
103.81
95.94
88.93
82.90
77.90
73.89
70.76
68.32
66.31
64.53
62.93
61.72
61.27
61.94
63.87
66.88
70.51
74.20
77.47
80.05
81.84
82.91
83.40
83.55
83.75
84.40
85.84
88.10
90.88
93.53
95.31
95.64
94.34
91.60
87.90
83.69
79.21
74.32
68.61
61.64
53.17
43.25
32.24
20.64
8.86
-2.88
-14.52
-26.03
-37.31
-48.06
-57.79
-65.97
-72.20
-76.49
-79.34
-81.77
-85.10
-90.52
-98.69
-109.37
-121.12
-131.49
-137.44
-136.14
-125.76
-106.16
-79.01
-47.35
-14.64
16.19
43.36
66.32
85.36
101.04
113.80
123.97
131.85
137.88
142.57
146.42
149.70
152.38
154.26
155.07
154.56
152.66
149.43
144.99
139.53
133.17
126.03
118.18
109.77
101.04
92.35
84.06
76.36
69.11
61.73
53.34
43.14
30.77
16.63
1.96
-11.54
-22.17
-28.83
-31.37
-30.52
-27.58
-23.88
-20.37
-17.49
-15.24
-13.49
-12.18
-11.40
-11.26
-11.79
-12.79
-13.93
-14.80
-15.15
-14.89
-14.10
-12.98
-11.73
-10.57
-9.65
-9.18
-9.34
-10.26
-11.99
-14.42
-17.30
-20.34
-23.32
-26.16
-29.01
-32.16
-35.88
-40.26
-44.98
-49.39
-52.55
-53.57
-51.86
-47.34
-40.42
-31.88
-22.64
-13.57
-5.35
1.51
6.69
10.09
11.73
11.86
10.90
9.31
7.53
5.84
4.41
3.25
2.40
1.90
1.84
2.22
2.92
3.67
4.08
3.79
2.57
0.41
-2.51
-5.88
-9.34
-12.64
-15.65
-18.37
-20.98
-23.78
-27.13
-31.27
-36.20
-41.52
-46.45
-49.93
-51.02
-49.11
-44.21
-36.92
-28.28
-19.38
-11.13
-4.09
1.60
5.99
9.27
11.59
13.11
13.95
14.28
14.30
14.17
14.06
14.02
13.99
13.89
13.64
13.31
13.05
13.07
13.44
14.01
14.36
13.97
12.40
9.54
5.68
1.31
-2.97
-6.82
-10.17
-13.21
-16.29
-19.74
-23.83
-28.69
-34.24
-40.04
-45.38
-49.30
-50.88
-49.52
-45.21
-38.55
-30.55
-22.29
-14.63
-8.04
-2.60
1.82
5.42
8.27
10.35
11.60
12.01
11.81
11.35
11.11
11.48
12.55
14.17
15.96
17.51
18.51
18.83
18.57
17.88
16.91
15.75
14.38
12.72
10.67
8.16
5.21
1.97
-1.32
-4.48
-7.43
-10.27
-13.25
-16.67
-20.75
-25.57
-30.97
-36.60
-41.82
-45.86
-47.90
-47.36
-44.04
-38.27
-30.84
-22.76
-14.99
-8.15
-2.51
1.98
5.50
8.22
10.23
11.59
12.37
12.66
12.68
12.61
12.63
12.79
13.08
13.40
13.59
13.48
12.93
11.83
10.19
8.12
5.83
3.59
1.59
-0.10
-1.53
-2.78
-3.90
-4.82
-5.48
-5.92
-6.41
-7.38
-9.32
-12.51
-16.94
-22.29
-28.06
-33.71
-38.70
-42.47
-44.49
-44.33
-41.77
-36.93
-30.32
-22.68
-14.82
-7.37
-0.74
4.88
9.36
12.64
14.68
15.54
15.44
14.69
13.66
12.65
11.85
11.38
11.24
11.40
11.76
12.23
12.64
12.87
12.76
12.18
11.01
9.18
6.71
3.78
0.69
-2.30
-4.97
-7.30
-9.48
-11.74
-14.36
-17.56
-21.51
-26.26
-31.64
-37.19
-42.05
-45.22
-45.77
-43.21
-37.72
-30.06
-21.36
-12.69
-4.85
1.81
7.20
11.43
14.59
16.74
17.91
18.19
17.77
16.97
16.10
15.44
15.08
14.92
14.77
14.43
13.85
13.16
12.58
12.30
12.27
12.20
11.63
10.12
7.45
3.72
-0.66
-5.12
-9.13
-12.42
-15.02
-17.26
-19.66
-22.73
-26.86
-32.11
-38.18
-44.34
-49.62
-52.95
-53.49
-50.84
-45.21
-37.33
-28.29
-19.19
-10.91
-3.91
1.68
5.98
9.21
11.54
13.11
14.07
14.54
14.75
14.89
15.16
15.67
16.40
17.23
17.97
18.52
18.84
19.00
19.08
19.12
19.01
18.47
17.18
14.90
11.60
7.48
2.97
-1.48
-5.53
-9.08
-12.31
-15.56
-19.28
-23.80
-29.26
-35.44
-41.79
-47.42
-51.32
-52.58
-50.66
-45.63
-38.12
-29.20
-20.02
-11.49
-4.11
2.06
7.18
11.47
15.01
17.73
19.53
20.38
20.41
19.97
19.48
19.26
19.44
19.93
20.50
20.94
21.13
21.11
20.99
20.85
20.61
20.09
19.00
17.11
14.33
10.74
6.61
2.32
-1.78
-5.42
-8.54
-11.29
-14.02
-17.14
-21.03
-25.91
-31.62
-37.70
-43.28
-47.37
-49.01
-47.65
-43.22
-36.21
-27.54
-18.23
-9.23
-1.22
5.43
10.63
14.44
17.02
18.57
19.36
19.65
19.71
19.74
19.92
20.31
20.92
21.68
22.50
23.28
23.93
24.36
24.52
24.37
23.93
23.19
22.16
20.77
18.91
16.46
13.41
9.85
6.05
2.32
-1.10
-4.17
-7.13
-10.40
-14.44
-19.48
-25.44
-31.75
-37.57
-41.91
-43.94
-43.23
-39.77
-34.03
-26.70
-18.60
-10.47
-2.95
3.50
8.63
12.36
14.83
16.31
17.08
17.41
17.48
17.40
17.27
17.21
17.28
17.54
17.94
18.40
18.81
19.10
19.27
19.31
19.19
18.74
17.76
16.03
13.51
10.38
6.98
3.69
0.77
-1.77
-4.12
-6.61
-9.59
-13.34
-17.96
-23.32
-29.01
-34.32
-38.34
-40.22
-39.35
-35.68
-29.71
-22.33
-14.54
-7.18
-0.73
4.58
8.76
11.84
13.83
14.80
14.88
14.32
13.47
12.66
12.14
11.97
12.08
12.32
12.55
12.74
12.94
13.23
13.62
13.93
13.87
13.05
11.26
8.47
5.00
1.32
-2.13
-5.06
-7.46
-9.55
-11.70
-14.35
-17.90
-22.65
-28.59
-35.36
-42.13
-47.78
-51.08
-51.16
-47.73
-41.24
-32.74
-23.49
-14.62
-6.83
-0.42
4.69
8.68
11.73
13.93
15.36
16.13
16.41
16.50
16.67
17.15
17.92
18.85
19.67
20.19
20.40
20.47
20.68
21.15
21.76
22.11
21.64
19.96
16.96
12.93
8.40
3.96
-0.03
-3.44
-6.50
-9.59
-13.17
-17.62
-23.08
