1543946642.00
64.000000
-0.00
-0.00
-0.00
-0.00
-0.00
-0.00
-0.00
-0.00
-0.00
-0.00
0.00
0.01
0.01
-0.00
-0.03
-0.05
-0.05
0.00
0.13
0.36
0.66
1.01
1.37
1.72
2.06
2.40
2.79
3.24
3.80
4.42
5.06
5.66
6.20
6.68
7.15
7.68
8.31
9.14
10.09
11.04
11.88
12.56
13.14
13.76
14.65
15.96
17.91
20.32
22.90
25.38
27.58
29.57
31.68
34.32
37.81
42.54
48.15
54.10
59.83
64.97
69.58
74.14
79.34
85.71
93.76
103.00
112.62
121.73
129.77
136.75
143.30
150.75
157.77
166.64
177.95
191.79
206.97
220.57
228.25
225.36
208.53
176.87
132.76
80.05
23.07
-34.94
-92.44
-149.16
-205.23
-260.37
-313.74
-363.87
-409.83
-450.91
-486.50
-515.74
-537.23
-549.22
-549.96
-538.37
-514.21
-478.67
-433.88
-382.45
-327.02
-269.84
-212.63
-156.66
-102.95
-52.37
-5.90
35.58
71.43
101.35
125.50
144.38
158.69
169.15
176.37
180.75
182.57
182.07
179.51
175.23
169.65
163.18
156.15
148.81
141.30
133.69
126.02
118.33
110.69
103.16
95.80
88.68
81.83
75.25
68.95
62.95
57.25
51.86
46.78
42.02
37.58
33.45
29.62
26.09
22.84
19.88
17.20
14.79
12.65
10.76
9.12
7.70
6.50
5.47
4.62
3.91
3.33
2.86
2.48
2.19
1.96
1.79
1.67
1.61
1.58
1.60
1.65
1.74
1.87
2.02
2.21
2.43
2.68
2.95
3.25
3.58
3.94
4.32
4.74
5.20
5.72
6.28
6.90
7.58
8.33
9.14
10.01
10.93
11.91
12.94
14.02
15.15
16.32
17.53
18.77
20.04
21.35
22.72
24.15
25.64
27.14
28.60
29.94
30.95
31.44
31.14
29.83
27.26
23.30
17.87
10.99
2.88
-6.10
-15.50
-24.79
-33.44
-40.89
-46.70
-50.46
-51.87
-50.81
-47.38
-41.96
-35.15
-27.66
-20.28
-13.73
-8.69
-5.44
-4.03
-4.25
-5.75
-8.09
-10.75
-13.15
-14.71
-15.05
-13.62
-10.07
-4.43
2.73
10.38
17.18
21.73
22.74
19.28
11.48
0.12
-13.66
-28.85
-44.60
-60.36
-75.65
-90.14
-103.14
-112.98
-117.82
-116.11
-107.52
-92.88
-74.07
-53.50
-32.01
-12.60
3.25
15.41
24.43
30.43
33.01
31.27
24.13
10.11
-12.18
-42.96
-80.84
-122.13
-161.48
-192.17
-208.09
-203.28
-180.32
-147.25
-113.64
-87.26
-68.40
-54.09
-39.68
-21.54
1.02
25.26
47.21
63.56
73.39
78.81
82.55
87.09
93.51
101.35
108.92
115.28
115.65
110.25
103.89
102.71
112.56
136.87
175.97
227.64
288.75
355.87
412.61
443.43
437.44
394.18
324.29
245.10
174.30
124.61
100.31
97.79
109.36
125.36
137.27
139.20
129.19
109.25
84.28
60.23
41.53
29.96
23.22
17.84
9.59
-1.99
-13.93
-22.89
-27.13
-27.92
-27.65
-28.05
-28.42
-26.15
-18.15
-3.15
17.07
38.95
58.79
74.30
84.98
91.67
95.01
94.68
93.31
90.11
83.30
71.01
52.18
26.75
-4.53
-40.47
-79.45
-119.87
-160.80
-201.25
-240.26
-277.08
-311.54
-344.59
-378.81
-417.08
-461.33
-511.06
-561.00
-601.69
-621.91
-613.01
-572.63
-506.01
-423.73
-339.35
-266.66
-216.61
-195.22
-202.20
-230.83
-269.40
-303.82
-320.28
-310.73
-275.96
-224.41
-167.52
-114.47
-69.48
-32.39
-0.34
31.78
67.24
105.81
144.84
181.38
214.45
245.04
274.15
303.18
336.29
377.56
428.98
489.18
554.15
618.07
673.94
713.48
711.37
653.09
545.97
417.65
297.70
201.91
131.03
80.53
39.73
2.65
-30.34
-58.57
-84.92
-116.32
-158.39
-214.16
-277.04
-338.57
-390.11
-423.45
-432.98
-416.61
-376.15
-317.89
-251.39
-187.03
-134.45
-98.50
-77.17
-64.48
-54.65
-43.34
-29.48
-13.24
5.67
27.50
52.95
83.01
117.70
151.30
179.83
200.80
213.98
220.81
222.75
220.81
215.88
208.34
198.58
187.82
177.22
168.15
162.09
160.09
162.01
166.19
168.71
164.25
148.43
119.50
80.20
37.23
-1.47
-30.57
-48.79
-59.70
-67.96
-76.80
-86.87
-96.75
-104.38
-109.12
-112.83
-117.91
-126.24
-138.23
-152.87
-168.35
-182.35
-192.24
-191.74
-179.12
-154.27
-119.82
-81.04
-44.49
-15.39
3.98
14.66
19.49
20.63
19.29
15.52
9.48
2.44
-3.03
-4.55
-1.35
5.06
11.37
14.71
13.63
9.09
3.91
1.74
5.65
17.31
36.47
60.62
85.47
105.44
115.14
110.22
91.67
64.63
36.69
14.83
2.63
-0.53
1.80
5.58
8.47
10.68
13.36
17.29
21.81
25.14
25.68
23.16
18.94
15.21
14.21
16.55
21.27
26.29
29.49
29.73
27.43
24.27
22.25
22.66
24.98
27.19
26.52
20.67
9.03
-7.04
-24.63
-40.66
-52.42
-59.88
-64.59
-68.86
-74.76
-83.27
-94.14
-105.77
-115.38
-119.29
-114.09
-97.82
-71.23
-38.44
-5.01
23.39
43.32
54.64
60.13
63.60
68.05
74.42
81.32
85.91
85.10
77.23
62.47
43.27
23.45
6.66
-4.86
-11.71
-16.81
-23.77
-34.23
-46.18
-54.41
-52.83
-40.08
-20.66
-3.98
0.07
-13.60
-42.09
-75.51
-101.33
-111.54
-104.49
-86.05
-65.29
-49.73
-41.58
-37.62
-32.21
-21.42
-5.17
12.89
27.71
35.24
34.07
24.90
9.21
-11.63
-35.64
-59.00
-75.43
-77.65
-60.83
-26.45
16.32
53.45
72.27
68.16
47.34
23.91
12.38
20.26
44.82
75.69
101.59
115.89
119.79
119.81
122.77
131.44
143.90
155.76
163.70
167.09
166.92
164.35
160.16
155.08
151.01
150.79
156.62
168.08
181.29
190.02
188.95
176.81
156.54
132.97
109.53
86.30
60.60
31.27
-1.58
-36.52
-71.30
-104.76
-138.25
-175.94
-223.34
-284.64
-360.19
-445.34
-531.07
-604.99
-655.34
-675.23
-665.40
-633.56
-590.72
-546.61
-506.71
-471.96
-438.64
-401.44
-356.16
-301.12
-236.57
-163.10
-80.72
15.12
120.17
223.74
313.35
380.15
421.24
438.66
437.23
422.66
400.18
373.21
344.68
316.92
291.33
268.35
247.64
228.73
211.19
194.61
178.27
162.13
146.79
133.02
121.38
111.91
104.29
97.80
91.43
84.36
76.53
68.63
61.76
56.95
54.56
54.33
56.70
58.96
59.23
56.73
51.86
45.88
40.45
36.86
35.72
36.13
36.59
36.32
35.29
34.44
35.26
39.22
47.55
61.13
79.03
99.73
121.45
141.18
154.65
157.21
146.00
121.88
89.78
54.51
21.19
-5.94
-24.72
-35.43
-40.20
-41.61
-42.05
-39.79
-38.23
-40.73
-48.67
-60.77
-74.53
-88.10
-101.09
-114.41
-129.92
-154.46
-192.85
-245.43
-307.19
-370.60
-428.71
-476.62
-511.55
-506.37
-447.49
-341.33
-212.28
-85.38
25.28
116.00
188.03
243.53
284.19
306.60
310.64
299.18
279.13
258.22
241.43
229.97
221.48
211.43
190.68
154.65
102.17
37.87
-29.00
-87.02
-125.44
-137.99
-126.08
-101.51
-80.86
-79.66
-105.98
-158.74
-229.55
-306.37
-377.48
-433.90
-471.18
-487.41
-482.96
-459.47
-420.56
-371.84
-319.66
-269.49
-224.51
-185.72
-152.46
-123.48
-97.20
-71.97
-45.91
-17.04
15.88
53.04
93.47
135.28
176.65
217.20
258.76
305.12
360.30
425.41
497.14
567.91
627.65
667.03
680.77
669.55
639.62
600.54
559.18
519.14
480.68
442.13
401.63
358.55
314.20
270.99
231.62
193.66
154.05
111.58
67.98
26.65
-8.91
-36.32
-55.28
-66.50
-78.51
-99.03
-131.00
-171.59
-215.09
-256.16
-291.15
-319.24
-339.92
-362.37
-394.58
-438.96
-491.61
-546.38
-598.78
-647.07
-692.92
-695.50
-634.03
-516.92
-377.40
-247.62
-142.22
-60.91
3.27
45.70
76.34
93.68
94.59
78.95
50.50
13.18
-32.10
-76.16
-113.51
-135.73
-141.63
-131.13
-104.68
-62.66
-6.23
62.09
139.80
222.71
306.67
379.65
428.53
443.97
425.48
381.73
325.73
270.51
224.04
189.26
161.06
132.16
96.49
52.55
2.85
-50.33
-105.02
-159.12
-208.08
-246.73
-269.24
-272.11
-254.02
-216.11
-164.16
-105.39
-45.32
14.17
73.68
140.81
212.72
273.54
316.26
337.13
333.90
308.28
265.66
213.10
156.84
99.65
43.15
-10.46
-60.10
-104.64
-142.81
-174.55
-202.00
-229.48
-263.10
-306.97
-360.66
-420.23
-477.69
-522.51
-545.10
-540.53
-510.58
-463.46
-409.63
-357.23
-310.71
-270.06
-232.36
-194.77
-156.60
-119.45
-85.92
-57.15
-31.60
-6.23
22.25
55.94
94.91
137.06
179.41
219.33
255.80
289.77
323.35
358.82
397.97
441.84
490.93
545.13
603.13
661.43
713.88
752.57
769.99
761.85
728.90
676.80
613.98
548.61
486.26
429.11
376.87
328.31
282.45
238.98
197.81
158.76
121.36
85.19
50.01
15.77
-17.54
-50.09
-82.22
-114.22
-146.06
-177.39
-207.66
-236.46
-263.76
-290.09
-316.53
-344.61
-376.18
-412.77
-454.40
-498.19
-538.13
-566.29
-575.76
-563.57
-531.97
-487.32
-436.66
-384.41
-330.61
-272.20
-205.88
-131.24
-51.88
25.30
92.31
142.13
170.10
174.81
158.73
128.62
94.87
68.99
59.79
70.00
95.02
124.59
146.84
152.57
137.59
102.56
51.23
-11.33
-79.08
-144.26
-197.47
-229.23
-233.07
-208.53
-161.78
-103.49
-44.88
5.90
45.59
74.79
95.74
110.20
118.59
120.51
115.69
104.55
88.15
67.86
45.11
21.45
-1.42
-21.73
-38.06
-49.84
-57.37
-61.69
-64.24
-66.51
-69.72
-74.62
-81.37
-89.47
-97.93
-105.63
-111.85
-116.62
-120.60
-124.57
-128.86
-133.15
-136.71
-138.90
-139.55
-138.80
-136.69
-132.76
-126.07
-115.70
-101.36
-83.66
-64.13
-44.92
-28.50
-17.19
-12.76
-15.95
-26.28
-42.34
-62.59
-85.98
-111.96
-139.64
-166.74
-189.16
-201.80
-200.18
-182.02
-147.74
-99.84
-42.11
20.54
81.53
132.28
163.46
168.13
145.25
101.63
50.81
8.81
-11.35
-3.82
28.48
75.45
123.44
159.64
175.95
171.08
150.56
124.44
103.61
95.67
102.34
119.32
138.72
152.54
155.97
148.68
134.24
118.60
108.19
108.75
124.26
156.00
201.47
254.05
303.84
340.15
354.62
343.83
310.03
259.63
200.40
138.88
79.34
24.40
-23.52
-61.57
-86.97
-98.66
-98.94
-93.69
-91.01
-98.85
-122.92
-165.28
-223.59
-291.73
-360.63
-420.10
-461.25
-478.77
-472.34
-446.42
-408.47
-366.38
-326.41
-292.32
-265.77
-247.26
-236.68
-233.21
-234.78
-237.99
-238.84
-234.13
-222.62
-205.36
-184.89
-163.95
-144.00
-124.63
-103.90
-79.57
-50.39
-16.88
18.80
53.82
86.07
115.10
142.21
169.75
199.73
232.89
268.49
305.16
341.60
377.02
410.81
441.98
469.09
490.62
505.85
515.07
518.96
517.35
508.23
488.40
455.41
410.23
358.14
307.38
265.52
235.67
214.68
194.43
165.86
123.27
67.29
4.43
-55.50
-103.24
-133.05
-143.48
-136.50
-115.90
-86.18
-51.97
-18.02
11.13
32.14
44.04
49.05
52.20
59.59
76.19
103.84
140.45
180.69
217.64
244.85
258.38
257.81
245.97
227.50
206.62
185.39
163.06
137.18
105.45
67.49
25.12
-18.56
-60.97
-101.36
-140.81
-181.36
-224.73
-271.72
-321.88
-373.46
-423.15
-465.91
-495.52
-506.03
-493.69
-458.45
-403.98
-336.09
-260.36
-180.68
-99.52
-19.42
55.49
119.45
166.97
195.76
208.81
213.90
220.70
236.63
263.82
298.66
333.86
361.92
378.00
381.05
373.17
357.93
338.78
318.20
297.43
276.68
255.39
232.68
207.67
179.87
149.29
116.29
81.09
43.43
2.77
-41.11
-87.50
-134.82
-180.91
-224.07
-263.86
-301.19
-338.02
-376.66
-419.07
-466.43
-518.79
-574.79
-631.31
-683.56
-725.65
-751.91
-758.44
-744.40
-712.34
-667.26
-615.09
-561.02
-508.61
-459.71
-415.01
-374.65
-338.55
-306.32
-277.11
-249.65
-222.63
-195.16
-167.12
-139.31
-112.91
-89.06
-68.38
-50.77
-35.63
-22.19
-9.87
1.50
11.79
20.82
28.54
35.18
41.21
47.05
52.99
59.08
65.27
71.65
78.56
86.62
96.50
108.61
122.82
138.52
154.83
171.09
187.24
203.93
222.21
243.04
266.72
292.66
319.69
346.45
372.03
396.31
419.89
443.94
470.08
500.39
536.86
580.44
629.34
678.11
718.04
739.50
735.42
704.11
650.12
582.37
510.66
442.19
380.03
323.57
270.41
218.53
167.56
118.54
73.00
31.97
-4.40
-36.79
-66.30
-94.22
-121.53
-148.51
-175.23
-201.89
-229.33
-258.55
-289.36
-320.15
-348.30
-372.01
-391.37
-408.90
-427.66
-448.29
-466.59
-473.25
-458.58
-417.46
-352.58
-272.27
-187.05
-105.01
-29.51
40.80
111.27
186.07
266.23
348.28
428.24
500.59
558.98
596.76
609.49
599.64
572.64
535.10
490.66
443.63
396.17
348.80
300.84
252.35
208.21
171.31
141.28
112.37
81.99
49.11
14.92
-18.59
-68.01
-135.90
-213.82
-269.48
-299.05
-307.75
-308.84
-310.74
-319.68
-339.42
-367.61
-404.06
-450.43
-510.03
-572.88
-621.95
-642.10
-629.22
-598.52
-556.97
-510.92
-466.30
-429.27
-399.06
-375.00
-356.15
-342.45
-333.72
-326.08
-317.04
-305.23
-291.58
-276.10
-259.85
-244.15
-230.50
-219.00
-206.36
-189.97
-168.30
-141.82
-111.39
-79.24
-48.13
-20.75
1.39
19.18
33.68
45.98
56.64
66.15
74.34
80.81
85.13
87.33
88.29
88.75
89.26
90.25
91.72
93.14
93.83
93.30
91.64
89.45
87.46
86.10
85.60
85.76
86.09
86.21
86.19
86.65
88.50
92.60
99.25
108.54
119.75
131.70
143.32
154.32
165.43
177.87
192.92
210.92
232.61
257.37
283.28
308.02
330.06
349.46
367.32
386.36
409.62
442.84
488.97
545.84
605.80
658.16
693.20
704.68
693.69
666.46
636.94
616.32
608.51
609.94
613.38
612.71
603.75
587.01
563.74
541.15
522.97
507.92
491.27
468.95
440.75
408.71
378.85
313.42
196.17
36.43
-134.70
-284.85
-397.03
-460.21
-490.23
-499.21
-495.27
-477.39
-445.93
-407.55
-371.07
-343.97
-329.00
-326.02
-330.20
-337.25
-339.32
-332.12
-319.44
-308.37
-304.71
-309.55
-321.08
-334.21
-345.08
-348.65
-343.13
-335.77
-335.60
-348.67
-375.03
-410.87
-449.95
-487.52
-519.23
-543.34
-567.60
-599.94
-644.26
-698.53
-758.05
-818.45
-877.59
-933.15
-938.95
-865.16
-709.71
-502.19
-284.92
-91.65
60.07
166.59
234.23
274.18
291.12
288.26
269.00
238.85
205.41
175.62
154.42
144.21
145.98
153.08
158.43
157.55
150.44
141.49
135.43
135.43
143.70
160.27
180.23
198.48
211.75
219.90
227.56
240.90
261.30
291.00
329.96
375.16
423.38
472.54
510.01
527.35
519.95
487.40
433.48
361.80
277.28
187.46
101.72
28.44
-26.03
-59.40
-77.73
-86.98
-94.33
-104.09
-118.44
-139.24
-169.50
-211.75
-268.37
-340.65
-422.57
-506.62
-580.62
-631.66
-650.69
-635.66
-590.64
-523.94
-444.45
-349.90
-246.97
-145.54
-55.77
15.20
64.10
91.40
100.07
94.64
87.65
81.02
75.47
71.29
67.84
63.99
59.03
53.52
50.09
44.11
33.65
19.77
4.50
-10.62
-24.96
-38.74
-52.29
-65.62
-78.14
-89.29
-97.48
-101.21
-100.00
-94.59
-86.64
-77.81
-69.06
-60.27
-50.45
-37.84
-20.93
0.93
27.46
57.53
89.04
118.69
142.08
154.89
154.55
141.69
120.33
96.60
76.13
61.70
52.48
45.30
37.24
27.58
18.34
12.98
14.45
23.54
38.78
57.37
76.64
95.08
112.67
130.35
149.24
169.68
190.62
209.67
223.84
230.95
230.79
225.50
218.62
213.49
211.62
212.05
212.27
209.78
203.62
194.90
186.09
179.74
177.29
178.68
182.69
187.84
193.12
198.45
204.38
211.54
220.02
229.26
238.11
245.53
251.12
254.94
256.83
255.83
250.34
239.36
223.56
205.50
188.37
173.83
160.49
144.30
120.90
88.40
48.90
7.68
-29.59
-59.64
-82.77
-101.66
-119.01
-135.56
-149.95
-159.92
-164.45
-164.92
-165.11
-170.07
-184.79
-212.85
-255.73
-312.11
-377.35
-443.67
-501.32
-540.90
-556.19
-546.10
-514.79
-469.62
-418.19
-365.72
-314.01
-262.34
-209.34
-154.79
-100.16
-48.25
-2.03
36.28
65.48
85.45
96.84
101.10
100.00
95.54
89.67
84.17
80.65
80.26
83.69
90.76
100.29
110.24
118.29
122.51
122.01
117.00
108.71
98.70
88.33
78.46
69.40
61.05
53.18
45.54
37.97
30.44
23.27
17.01
12.25
9.33
8.02
7.70
7.38
6.29
4.17
1.24
-1.96
-5.09
-8.17
-11.71
-16.24
-21.85
-27.94
-33.38
-37.25
-39.41
-40.85
-43.18
-47.72
-54.61
-62.42
-68.64
-70.68
-67.03
-57.77
-44.41
-29.17
-14.24
-1.17
9.23
16.73
21.46
23.75
24.13
23.22
21.59
19.58
17.16
14.06
10.01
4.96
-0.72
-6.33
-11.13
-14.45
-16.00
-15.99
-15.06
-14.22
-14.52
-16.61
-20.53
-25.59
-30.70
-34.85
-37.62
-39.45
-41.42
-44.74
-50.20
-57.81
-66.95
-76.67
-86.18
-94.94
-102.54
-108.56
-112.35
-113.13
-110.31
-103.77
-93.79
-80.94
-65.73
-48.49
-29.48
-9.32
10.73
28.76
42.67
50.96
53.31
50.92
46.23
42.26
41.49
45.06
52.34
61.13
68.52
71.91
69.81
62.16
50.04
35.23
19.70
5.41
-5.85
-12.63
-14.19
-10.78
-3.93
3.76
9.45
11.01
7.93
1.42
-6.23
-12.83
-17.23
-19.65
-21.22
-23.08
-25.62
-28.26
-29.93
-29.66
-27.25
-23.33
-18.99
-15.27
-12.83
-11.93
-12.67
-15.32
-20.19
-27.29
-35.87
-44.12
-49.38
-48.95
-41.06
-25.66
-4.51
19.54
43.59
65.56
84.47
100.02
112.09
120.42
124.76
125.25
122.72
118.58
114.46
111.79
111.31
113.04
116.26
119.87
122.76
124.34
124.77
124.96
126.18
129.29
134.23
139.67
143.44
143.37
138.35
128.99
117.60
107.41
101.11
99.76
102.19
105.48
106.19
101.79
91.31
75.00
53.56
27.65
-1.85
-33.15
-63.49
-90.22
-112.39
-131.83
-152.09
-175.90
-202.62
-227.35
-242.96
-243.78
-228.63
-201.49
-169.34
-138.79
-113.48
-93.71
-77.86
-64.29
-52.35
-42.08
-33.51
-26.24
-19.59
-12.95
-6.05
1.31
9.48
18.78
29.19
39.90
49.39
56.09
59.18
58.94
56.54
53.25
49.74
45.87
41.11
35.32
29.22
24.19
21.50
21.63
23.93
26.88
28.85
28.68
26.15
22.07
18.08
16.04
17.18
21.38
27.00
31.50
32.74
30.16
25.17
20.34
17.87
18.30
20.27
21.54
20.51
17.11
12.38
7.43
2.45
-3.23
-10.25
-18.41
-26.54
-33.40
-38.73
-43.44
-48.85
-55.51
-62.62
-68.61
-72.45
-74.54
-76.50
-79.97
-85.36
-91.55
-96.68
-99.21
-98.66
-95.23
-89.09
-80.04
-68.01
-53.86
-39.90
-29.23
-24.37
-25.79
-31.57
-38.28
-42.79
-43.70
-41.69
-38.84
-37.00
-36.59
-36.25
-33.52
-26.20
-13.54
3.42
22.15
39.74
53.81
63.18
67.76
68.27
65.77
61.29
55.82
50.30
45.57
42.32
41.04
41.85
44.42
47.94
51.05
52.23
50.24
44.80
36.82
28.15
20.85
16.29
14.51
14.31
13.91
11.78
7.35
1.25
-5.16
-10.47
-13.86
-15.44
-16.11
-17.07
-19.27
-23.08
-28.14
-33.58
-38.40
-41.83
-43.49
-43.40
-41.77
-38.95
-35.51
-32.39
-30.96
-32.55
-37.86
-46.30
-55.91
-63.81
-67.29
-64.79
-56.49
-44.02
-29.67
-15.39
-2.25
9.71
20.92
31.70
41.86
50.67
57.23
60.91
61.75
60.39
57.93
55.34
53.15
51.32
49.50
47.44
45.25
43.46
42.56
42.80
43.83
44.89
45.23
44.49
42.85
40.93
39.39
38.44
37.74
36.47
33.80
29.33
23.33
16.67
10.35
5.13
1.16
-1.86
-4.48
-7.14
-10.02
-13.06
-16.06
-18.86
-21.28
-23.27
-24.86
-26.22
-27.74
-29.87
-32.97
-36.98
-41.40
-45.29
-47.68
-47.76
-45.19
-40.01
-32.62
-23.61
-13.74
-3.97
4.72
11.56
16.15
18.61
19.55
19.70
19.67
19.66
19.44
18.60
16.80
14.00
10.55
7.02
4.01
1.96
0.97
0.76
0.73
0.25
-1.14
-3.43
-6.26
-9.15
-11.82
-14.38
-17.28
-20.86
-25.15
-29.68
-33.77
-36.97
-39.29
-41.21
-43.29
-45.82
-48.58
-51.03
-52.57
-52.73
-51.27
-47.98
-42.66
-35.11
-25.64
-15.08
-4.86
3.47
8.94
11.71
13.08
14.76
17.86
21.98
25.23
25.11
19.73
8.96
-5.36
-20.15
-32.22
-39.38
-40.98
-37.72
-31.06
-22.66
-13.92
-5.77
1.43
7.84
13.99
20.58
28.14
36.71
45.77
54.38
61.20
64.90
64.56
59.98
51.93
42.10
32.50
24.72
19.42
16.24
14.05
11.55
7.61
1.51
-6.91
-17.28
-28.61
-39.37
-47.87
-52.86
-54.05
-52.21
-48.90
-45.62
-43.21
-41.48
-39.44
-36.00
-30.59
-23.48
-15.56
-7.80
-0.66
6.00
12.74
19.88
26.96
32.73
35.73
35.18
31.54
26.46
21.94
19.25
18.41
18.42
18.13
17.16
16.17
16.40
18.81
23.44
29.28
34.85
38.90
40.98
41.40
40.86
39.89
38.61
36.70
33.79
29.71
24.73
19.46
14.57
10.46
7.18
4.36
1.43
-2.05
-6.22
-10.89
-15.55
-19.56
-22.31
-23.34
-22.46
-19.74
-15.57
-10.51
-5.24
-0.36
3.79
7.21
10.19
13.19
16.58
20.43
24.40
27.84
30.06
30.61
29.45
26.93
23.56
19.83
16.03
12.28
8.68
5.40
2.70
0.77
-0.46
-1.27
-2.13
-3.43
-5.33
-7.68
-10.10
-12.15
-13.55
-14.28
-14.60
-14.98
-15.95
-18.01
-21.44
-26.16
-31.76
-37.51
-42.65
-46.61
-49.19
-50.47
-50.57
-49.39
-46.50
-41.43
-33.98
-24.59
-14.25
-4.25
4.28
10.77
15.23
18.13
20.07
21.53
22.76
23.76
24.45
24.73
24.64
24.22
23.59
22.69
21.42
19.64
17.37
14.88
12.57
10.89
10.25
10.97
13.21
17.02
22.15
27.98
33.67
38.33
41.52
43.44
44.88
46.80
49.82
53.98
58.81
63.76
68.66
73.87
80.01
87.57
96.41
105.79
114.77
122.72
129.80
136.99
145.65
156.94
171.32
188.13
205.55
220.85
231.11
234.34
230.19
220.17
206.77
192.25
177.40
161.26
141.83
117.17
86.28
49.04
6.16
-40.52
-86.99
-126.72
-151.83
-156.26
-139.58
-108.74
-76.39
-55.88
-55.75
-76.52
-111.75
-152.19
-190.51
-224.02
-254.05
-283.51
-314.56
-347.99
-384.11
-423.66
-467.35
-514.18
-559.98
-597.27
-617.41
-613.97
-585.66
-537.07
-476.80
-414.07
-355.65
-304.46
-260.13
-220.78
-184.63
-150.76
-118.80
-88.29
-58.34
-27.77
4.41
38.81
75.49
113.75
152.21
188.79
221.11
247.08
265.38
275.82
279.32
277.61
272.83
267.04
261.89
258.25
255.95
253.82
250.15
243.30
232.55
218.38
202.20
185.58
169.58
154.35
139.58
125.04
110.90
97.68
85.85
75.49
66.27
57.74
49.72
42.40
36.10
30.86
26.22
21.50
16.09
9.94
3.43
-2.84
-8.48
-13.50
-18.10
-22.43
-26.40
-29.73
-32.12
-33.46
-33.80
-33.18
-31.51
-28.47
-23.82
-17.60
-10.22
-2.41
4.95
11.13
15.56
18.02
18.61
17.67
15.69
13.26
10.81
8.65
6.78
5.08
3.20
0.72
-2.73
-7.22
-12.47
-17.84
-22.61
-26.28
-28.90
-31.02
-33.42
-36.71
-41.08
-46.16
-51.42
-56.39
-60.92
-65.07
-68.98
-72.68
-76.16
-79.43
-82.67
-86.16
-89.92
-93.51
-95.91
-95.78
-92.00
-84.22
-73.09
-60.12
-47.02
-34.96
-24.01
-13.32
-1.71
11.41
25.48
38.95
50.22
58.67
65.06
70.91
77.14
83.14
86.79
85.71
78.99
68.08
56.40
47.58
43.55
43.67
45.32
45.55
42.85
37.81
32.51
29.12
28.64
30.46
33.02
34.81
35.25
34.83
34.60
35.11
35.82
35.12
31.16
22.86
10.54
-4.11
-18.74
-31.10
-39.68
-43.78
-43.37
-38.93
-31.31
-21.72
-11.52
-1.85
6.62
13.71
19.60
24.50
28.44
31.38
33.40
34.90
36.39
38.13
39.84
40.75
40.07
37.45
33.40
29.08
25.76
24.23
24.51
25.98
27.83
29.44
30.58
31.32
31.84
32.29
32.66
32.91
32.99
32.86
32.42
31.44
29.58
26.50
22.14
16.94
11.72
7.50
5.02
4.39
4.93
5.44
4.66
1.77
-3.25
-9.68
-16.38
-22.23
-26.54
-29.29
-31.04
-32.61
-34.79
-37.97
-42.11
-46.75
-51.14
-54.43
-55.79
-54.49
-50.14
-42.85
-33.45
-23.27
-13.77
-5.95
-0.05
4.41
8.09
11.36
14.07
15.80
16.29
15.72
14.57
13.32
12.08
10.61
8.61
6.09
3.52
1.67
1.20
2.22
4.31
6.57
8.08
8.11
6.33
2.86
-1.75
-6.58
-10.57
-12.79
-12.84
-11.03
-8.35
-5.99
-4.96
-5.78
-8.51
-12.98
-18.94
-26.11
-33.94
-41.54
-47.73
-51.34
-51.70
-48.88
-43.66
-37.12
-30.35
-24.03
-18.49
-13.71
-9.46
-5.45
-1.39
2.78
6.83
10.21
12.34
12.91
12.06
10.29
8.11
5.76
3.08
-0.17
-4.10
-8.39
-12.40
-15.55
-17.68
-19.17
-20.73
-22.90
-25.73
-28.72
-31.11
-32.39
-32.56
-32.17
-32.01
-32.70
-34.40
-36.71
-39.00
-40.68
-41.59
-42.08
-42.80
-44.32
-46.70
-49.35
-51.29
-51.54
-49.43
-44.75
-37.61
-28.17
-16.64
-3.39
10.66
23.94
34.54
40.84
42.20
39.25
33.54
26.92
20.87
16.23
13.36
12.37
13.26
15.69
18.86
21.57
22.72
21.96
19.92
18.00
17.53
18.98
21.73
24.51
26.32
27.07
27.57
28.87
31.38
34.50
36.97
37.67
36.29
33.45
30.27
27.63
25.74
24.28
22.81
21.17
19.68
18.85
19.06
20.40
22.70
25.66
28.94
32.01
34.10
34.29
31.84
26.68
19.59
11.99
5.43
1.02
-0.99
-1.01
0.20
2.06
4.38
7.30
11.00
15.39
20.04
24.28
27.53
29.53
30.43
30.68
30.72
30.63
30.05
28.35
24.99
19.98
13.98
8.21
4.03
2.40
3.50
6.72
10.89
14.63
16.83
16.85
14.56
10.32
4.72
-1.52
-7.77
-13.53
-18.52
-22.58
-25.66
-27.76
-28.96
-29.52
-29.87
-30.48
-31.73
-33.68
-36.03
-38.22
-39.66
-39.92
-38.89
-36.69
-33.58
-29.82
-25.66
-21.22
-16.54
-11.61
-6.37
-0.88
4.64
9.79
14.05
17.00
18.49
18.76
18.35
17.81
17.49
17.37
17.11
16.27
14.60
12.12
9.15
6.11
3.38
1.17
-0.44
-1.46
-2.06
-2.53
-3.29
-4.71
-6.94
-9.72
-12.56
-14.95
-16.68
-17.82
-18.55
-18.87
-18.48
-17.16
-15.14
-13.37
-13.14
-15.38
-19.90
-25.30
-29.50
-30.75
-28.40
-23.08
-16.21
-9.18
-2.79
2.90
8.23
13.57
19.03
24.47
29.57
33.96
37.31
39.40
40.19
39.92
38.95
37.62
36.00
33.90
31.06
27.44
23.36
19.40
16.09
13.66
11.91
10.42
8.80
6.95
5.11
3.60
2.68
2.33
2.31
2.31
2.06
1.48
0.59
-0.52
-1.85
-3.41
-5.28
-7.52
-10.04
-12.67
-15.14
-17.26
-19.02
-20.65
-22.41
-24.49
-26.76
-28.82
-30.17
-30.48
-29.83
-28.63
-27.53
-26.96
-26.93
-26.96
-26.28
-24.23
-20.59
-15.71
-10.30
-5.14
-0.70
3.00
6.25
9.36
12.38
14.98
16.74
17.44
17.30
16.88
16.74
17.08
17.54
17.47
16.30
13.99
11.10
8.50
6.87
6.26
6.09
5.61
4.35
2.47
0.58
-0.69
-1.10
-0.97
-0.92
-1.42
-2.52
-3.94
-5.45
-7.25
-10.04
-14.56
-20.96
-28.45
-35.42
-40.19
-41.87
-40.80
-38.34
-36.07
-34.94
-34.72
-34.24
-32.08
-27.34
-20.08
-11.24
-2.08
6.33
13.50
19.48
24.59
29.14
33.25
36.84
39.73
41.81
43.12
43.82
44.13
44.21
44.16
43.98
43.68
43.27
42.70
41.85
40.48
38.38
35.42
31.75
27.70
23.79
20.52
18.17
16.65
15.54
14.22
12.22
9.41
6.06
2.73
-0.10
-2.25
-3.94
-5.56
-7.42
-9.52
-11.53
-13.17
-14.43
-15.63
-17.14
-18.97
-20.67
-21.47
-20.80
-18.64
-15.59
-12.49
-9.96
-8.02
-6.19
-3.85
-0.64
3.37
7.73
11.85
15.27
17.69
19.05
19.42
18.89
17.59
15.57
12.75
9.09
4.83
0.60
-2.61
-3.79
-2.40
1.30
6.37
11.64
16.22
19.84
22.61
24.70
25.92
25.80
23.96
20.43
15.84
11.08
6.76
2.88
-1.09
-5.79
-11.47
-17.66
-23.47
-27.96
-30.59
-31.42
-30.87
-29.39
-27.23
-24.41
-20.82
-16.45
-11.38
-5.66
0.68
7.60
14.93
22.22
28.80
34.16
38.13
41.07
43.74
46.89
50.95
55.78
60.83
65.38
68.82
70.92
71.76
71.75
71.39
71.17
71.15
70.66
68.08
60.99
46.93
24.16
-7.45
-46.16
-88.44
-129.77
-165.86
-193.74
-212.50
-223.25
-228.40
-230.57
-231.55
-231.72
-230.22
-225.54
-216.34
-201.94
-182.47
-158.51
-130.83
-100.36
-68.29
-36.13
-5.60
21.74
44.73
62.87
76.14
84.96
89.92
91.74
91.20
89.11
86.32
83.56
81.25
79.51
78.18
76.86
75.17
72.77
69.54
65.52
60.90
56.00
51.16
46.68
42.76
39.41
36.37
33.23
29.56
25.06
19.73
13.86
7.84
2.10
-3.17
-7.92
-12.11
-15.62
-18.27
-19.95
-20.81
-21.23
-21.64
-22.26
-23.00
-23.42
-23.06
-21.64
-19.22
-16.11
-12.64
-8.97
-5.00
-0.52
4.60
10.24
16.04
21.51
26.15
29.59
31.64
32.32
31.84
30.60
28.97
27.30
25.77
24.39
23.15
21.99
20.93
19.97
19.05
18.07
16.80
15.08
12.81
10.02
6.80
3.30
-0.31
-3.80
-7.02
-9.83
-12.22
-14.36
-16.52
-18.99
-21.90
-25.14
-28.30
-30.92
-32.56
-33.05
-32.48
-31.06
-28.99
-26.32
-22.95
-18.71
-13.58
-7.73
-1.49
4.69
10.37
15.15
18.67
20.63
21.01
20.16
18.82
17.89
18.00
19.25
21.17
22.98
23.99
23.94
22.98
21.51
19.90
18.30
16.76
15.23
13.79
12.51
11.39
10.32
9.09
7.50
5.47
3.00
0.21
-2.73
-5.60
-8.18
-10.28
-11.85
-13.01
-14.12
-15.52
-17.43
-19.70
-21.94
-23.71
-24.78
-25.30
-25.71
-26.43
-27.68
-29.39
-31.30
-33.16
-34.86
-36.38
-37.68
-38.56
-38.64
-37.53
-35.02
-31.17
-26.26
-20.67
-14.72
-8.67
-2.69
3.10
8.61
13.70
18.27
22.10
24.93
26.51
26.71
25.70
23.94
22.03
20.51
19.66
19.44
19.58
19.78
19.79
19.51
18.85
17.68
15.87
13.34
10.27
6.99
3.98
1.61
-0.05
-1.21
-2.31
-3.78
-5.81
-8.35
-11.08
-13.55
-15.44
-16.62
-17.19
-17.41
-17.61
-18.05
-18.95
-20.39
-22.24
-24.17
-25.60
-25.82
-24.23
-20.56
-15.00
-8.21
-1.02
5.86
11.99
17.28
21.84
25.82
29.33
32.45
35.17
37.46
39.17
40.08
39.93
38.62
36.35
33.62
31.04
29.07
27.87
27.23
26.78
26.27
25.59
24.77
23.78
22.52
20.75
18.36
15.48
12.48
9.78
7.62
5.94
4.48
2.94
1.18
-0.77
-2.76
-4.67
-6.50
-8.39
-10.48
-12.85
-15.46
-18.16
-20.77
-23.21
-25.42
-27.45
-29.37
-31.25
-33.10
-34.89
-36.48
-37.62
-37.98
-37.24
-35.10
-31.45
-26.48
-20.64
-14.55
-8.74
-3.54
1.03
5.06
8.67
11.84
14.39
16.11
16.91
16.88
16.29
15.44
14.57
13.79
13.13
12.52
11.95
11.37
10.74
9.98
9.04
7.86
6.42
4.75
2.87
0.85
-1.21
-3.22
-5.07
-6.73
-8.28
-9.90
-11.77
-13.93
-16.25
-18.43
-20.19
-21.47
-22.39
-23.29
-24.38
-25.67
-26.83
-27.36
-26.75
-24.70
-21.17
-16.34
-10.50
-4.08
2.51
8.74
14.20
18.57
21.77
23.96
25.36
26.18
26.50
26.26
25.48
24.32
23.02
21.87
21.00
20.31
19.61
18.72
17.61
16.39
15.20
14.08
13.00
11.85
10.60
9.29
8.00
6.72
5.34
3.69
1.72
-0.51
-2.75
-4.76
-6.39
-7.65
-8.80
-10.09
-11.73
-13.80
-16.19
-18.67
-21.03
-23.12
-24.94
-26.64
-28.39
-30.24
-32.10
-33.69
-34.69
-34.82
-33.94
-31.95
-28.85
-24.65
-19.43
-13.33
-6.56
0.50
7.49
14.04
19.85
24.68
28.37
30.86
32.21
32.71
32.69
32.50
32.33
32.16
31.83
31.14
29.99
28.47
26.79
25.14
23.57
22.00
20.25
18.21
15.87
13.34
10.81
8.46
6.38
4.57
2.92
1.24
-0.64
-2.86
-5.44
-8.30
-11.26
-14.12
-16.72
-18.96
-20.88
-22.54
-24.04
-25.43
-26.68
-27.59
-27.89
-27.21
-25.28
-21.99
-17.47
-12.11
-6.47
-1.20
3.20
6.42
8.55
9.88
10.80
11.57
12.24
12.66
12.63
12.13
11.34
10.60
10.24
10.35
10.81
11.35
11.74
11.92
11.97
11.98
11.93
11.65
10.91
9.58
7.68
5.41
3.00
0.61
-1.73
-4.10
-6.54
-9.07
-11.62
-14.08
-16.32
-18.26
-19.87
-21.22
-22.48
-23.89
-25.64
-27.75
-29.99
-31.83
-32.71
-32.13
-29.90
-26.14
-21.25
-15.69
-9.94
-4.39
0.65
4.99
8.54
11.31
13.41
14.97
16.12
16.92
17.39
17.52
17.25
16.60
15.65
14.49
13.30
12.24
11.39
10.69
9.94
8.90
7.38
5.33
2.86
0.16
-2.56
-5.13
-7.43
-9.37
-10.94
-12.18
-13.24
-14.37
-15.85
-17.92
-20.62
-23.75
-26.84
-29.31
-30.72
-30.89
-30.06
-28.58
-26.81
-24.79
-22.28
-18.95
-14.68
-9.70
-4.44
0.71
5.63
10.45
15.34
20.14
24.32
27.27
28.72
28.97
28.78
28.94
29.76
30.97
31.85
31.75
30.43
28.16
25.58
23.28
21.63
20.61
19.95
19.31
18.41
17.14
15.55
13.87
12.37
11.19
10.33
9.61
8.76
7.58
6.02
4.19
2.27
0.42
-1.28
-2.82
-4.17
-5.28
-6.15
-6.83
-7.52
-8.49
-9.97
-12.07
-14.65
-17.44
-20.08
-22.34
-24.18
-25.80
-27.49
-29.47
-31.78
-34.21
-36.37
-37.84
-38.31
-37.58
-35.59
-32.30
-27.72
-21.97
-15.35
-8.37
-1.66
4.28
9.32
13.69
17.78
21.90
25.92
29.32
31.49
32.07
31.26
29.77
28.48
27.97
28.33
29.13
29.76
29.73
28.91
27.50
25.84
24.20
22.67
21.20
19.69
18.08
16.43
14.82
13.34
12.00
10.75
9.56
8.40
7.37
6.61
6.20
6.08
5.97
5.48
4.18
1.80
-1.58
-5.61
-9.74
-13.49
-16.59
-19.07
-21.13
-22.90
-24.35
-25.27
-25.49
-25.05
-24.24
-23.45
-22.91
-22.49
-21.70
-20.00
-17.07
-12.98
-8.17
-3.13
1.79
6.45
10.89
15.05
18.66
21.23
22.31
21.72
19.70
16.83
13.83
11.28
9.40
8.05
6.90
5.58
3.95
2.14
0.46
-0.77
-1.38
-1.45
-1.30
-1.31
-1.78
-2.74
-3.97
-5.18
-6.18
-7.02
-7.89
-9.04
-10.47
-11.97
-13.25
-14.13
-14.65
-15.13
-15.82
-16.80
-17.79
-18.35
-18.00
-16.55
-14.07
-10.81
-7.09
-3.16
0.77
4.48
7.77
10.42
12.29
13.40
13.91
14.04
13.98
13.84
13.57
13.11
12.42
11.56
10.68
9.94
9.42
9.10
8.82
8.43
7.78
6.80
5.44
3.64
1.35
-1.42
-4.46
-7.44
-9.98
-11.84
-13.02
-13.83
-14.70
-15.99
-17.82
-20.08
-22.49
-24.77
-26.75
-28.41
-29.71
-30.63
-31.03
-30.69
-29.41
-27.05
-23.63
-19.25
-14.08
-8.31
-2.14
4.17
10.30
15.90
20.59
24.13
26.41
27.44
27.39
26.47
24.96
23.11
21.10
19.14
17.43
16.12
15.30
14.98
15.06
15.37
15.72
15.96
16.00
15.72
15.01
13.72
11.80
9.39
6.84
4.66
3.28
2.87
3.29
4.09
4.76
4.93
4.35
2.99
0.90
-1.82
-4.98
-8.35
-11.68
-14.74
-17.42
-19.76
-21.88
-23.85
-25.69
-27.32
-28.69
-29.83
-30.77
-31.43
-31.60
-30.92
-29.04
-25.88
-21.61
-16.60
-11.27
-5.89
-0.60
4.48
9.19
13.28
16.49
18.75
20.22
21.17
21.87
22.43
22.77
22.78
22.42
21.79
21.07
20.41
19.84
19.34
18.81
18.19
17.45
16.60
15.65
14.60
13.46
12.14
10.59
8.76
6.64
4.32
1.96
-0.28
-2.33
-4.24
-6.14
-8.18
-10.38
-12.69
-14.95
-17.05
-18.91
-20.55
-21.96
-23.05
-23.62
-23.43
-22.28
-20.10
-17.01
-13.20
-8.94
-4.49
-0.05
4.21
8.11
11.51
14.29
16.35
17.65
18.20
18.05
17.35
16.31
15.20
14.25
13.56
13.06
12.56
11.84
10.77
9.38
7.82
6.23
4.71
3.24
1.75
0.16
-1.60
-3.55
-5.63
-7.80
-9.98
-12.10
-14.14
-16.07
-17.86
-19.48
-20.96
-22.37
-23.82
-25.41
-27.13
-28.70
-29.69
-29.61
-28.10
-25.11
-20.86
-15.83
-10.51
-5.36
-0.70
3.29
6.54
9.06
10.95
12.38
13.53
14.57
15.55
16.44
17.10
17.39
17.22
16.60
15.64
14.49
13.24
11.93
10.50
8.91
7.14
5.25
3.30
1.31
-0.69
-2.71
-4.73
-6.70
-8.64
-10.64
-12.84
-15.36
-18.13
-20.97
-23.55
-25.68
-27.36
-28.77
-30.16
-31.59
-32.83
-33.42
-32.83
-30.72
-27.11
-22.33
-16.87
-11.17
-5.53
-0.09
5.04
9.72
13.80
17.19
19.89
21.99
23.54
24.52
24.83
24.38
23.29
21.82
20.34
19.12
18.22
17.51
16.81
15.99
15.05
14.04
12.97
11.77
10.31
8.58
6.73
4.92
3.24
1.63
-0.19
-2.46
-5.30
-8.55
-11.90
-15.01
-17.69
-19.98
-22.06
-24.17
-26.45
-28.87
-31.17
-32.90
-33.54
-32.64
-30.01
-25.78
-20.31
-14.13
-7.71
-1.43
4.47
9.87
14.76
19.23
23.37
27.31
31.06
34.45
37.20
39.02
39.77
39.53
38.59
37.28
35.85
34.45
33.07
31.71
30.34
28.98
27.63
26.22
24.66
22.88
20.91
18.96
17.27
16.02
15.19
14.56
13.82
12.73
11.23
9.41
7.42
5.31
2.99
0.33
-2.74
-6.13
-9.58
-12.79
-15.53
-17.76
-19.62
-21.33
-23.08
-24.95
-26.87
-28.74
-30.45
-31.98
-33.37
-34.64
-35.65
-36.07
-35.45
-33.43
-29.92
-25.11
-19.44
-13.36
-7.21
-1.17
4.69
10.22
15.17
19.21
22.01
23.41
23.42
22.25
20.28
17.97
15.75
13.98
12.81
12.22
12.01
11.95
11.83
11.50
10.88
9.92
8.63
7.06
5.25
3.24
1.05
-1.29
-3.70
-6.04
-8.21
-10.10
-11.75
-13.23
-14.65
-16.06
-17.41
-18.55
-19.42
-20.04
-20.64
-21.53
-22.95
-24.90
-27.08
-28.88
-29.62
-28.78
-26.13
-21.85
-16.34
-10.11
-3.60
2.84
8.89
14.25
18.70
22.11
24.55
26.14
27.02
27.18
26.53
25.03
22.79
20.12
17.46
15.23
13.64
12.67
12.07
11.52
10.68
9.30
7.30
4.76
1.87
-1.08
-3.89
-6.43
-8.68
-10.65
-12.36
-13.80
-15.08
-16.43
-18.09
-20.15
-22.47
-24.68
-26.38
-27.39
-27.83
-28.00
-28.16
-28.22
-27.75
-26.17
-23.00
-18.14
-11.93
-5.05
1.80
8.01
13.21
17.24
20.13
22.04
23.16
23.68
23.73
23.39
22.70
21.71
20.56
19.45
18.56
17.99
17.62
17.24
16.63
15.71
14.68
13.85
13.46
13.46
13.47
12.99
11.69
9.62
7.15
4.78
2.80
1.20
-0.27
-1.92
-3.91
-6.20
-8.73
-11.45
-14.39
-17.54
-20.75
-23.66
-25.89
-27.22
-27.76
-27.85
-27.95
-28.44
-29.39
-30.62
-31.71
-32.24
-31.82
-30.20
-27.30
-23.25
-18.45
-13.38
-8.52
-4.08
0.01
4.08
8.44
13.17
18.03
22.49
26.01
28.24
29.17
29.06
28.31
27.27
26.17
25.15
24.28
23.63
23.18
22.88
22.61
22.20
21.51
20.44
18.96
17.04
14.72
12.06
9.16
6.20
3.34
0.69
-1.75
-4.06
-6.32
-8.58
-10.82
-12.97
-14.99
-16.90
-18.74
-20.59
-22.41
-24.06
-25.32
-25.97
-25.82
-24.72
-22.56
-19.25
-14.84
-9.49
-3.58
2.47
8.25
13.49
18.06
21.95
25.18
27.73
29.63
30.87
31.49
31.54
31.11
30.26
29.06
27.57
25.88
24.09
22.25
20.45
18.70
17.02
15.39
13.83
12.35
10.98
9.71
8.47
7.15
5.58
3.66
1.40
-1.05
-3.41
-5.47
-7.16
-8.63
-10.09
-11.76
-13.68
-15.73
-17.72
-19.50
-21.00
-22.29
-23.47
-24.59
-25.62
-26.47
-27.11
-27.62
-28.12
-28.65
-29.08
-28.98
-27.83
-25.23
-21.04
-15.56
-9.32
-2.87
3.38
9.17
14.34
18.71
22.09
24.37
25.60
25.97
25.76
25.17
24.33
23.34
22.31
21.38
20.63
20.00
19.33
18.43
17.23
15.74
14.09
12.33
10.44
8.32
5.92
3.36
0.92
-1.08
-2.48
-3.32
-3.87
-4.53
-5.59
-7.16
-9.08
-11.06
-12.80
-14.18
-15.26
-16.22
-17.25
-18.36
-19.35
-19.89
-19.64
-18.37
-16.02
-12.71
-8.69
-4.30
0.10
4.19
7.74
10.62
12.82
14.39
15.34
15.67
15.32
14.34
12.90
11.30
9.86
8.78
8.05
7.43
6.61
5.38
3.72
1.85
0.00
-1.66
-3.12
-4.49
-5.88
-7.35
-8.89
-10.47
-12.13
-13.89
-15.77
-17.73
-19.64
-21.45
-23.15
-24.85
-26.68
-28.73
-30.88
-32.94
-34.62
-35.68
-36.00
-35.46
-33.97
-31.38
-27.57
-22.52
-16.40
-9.58
-2.62
3.94
9.71
14.49
18.24
20.99
22.78
23.63
23.68
23.14
22.31
21.45
20.68
19.92
19.09
18.15
17.23
16.57
16.32
16.36
16.33
15.84
14.69
13.04
11.33
9.94
9.00
8.24
7.24
5.68
3.54
1.07
-1.41
-3.73
-5.91
-8.11
-10.35
-12.55
-14.54
-16.25
-17.77
-19.32
-21.11
-23.18
-25.34
-27.29
-28.80
-29.80
-30.42
-30.89
-31.44
-32.23
-33.18
-34.06
-34.44
-33.85
-31.91
-28.44
-23.62
-17.90
-11.92
-6.19
-1.01
3.57
7.71
11.52
15.06
18.25
20.94
23.07
24.60
25.55
25.94
25.79
25.12
24.06
22.77
21.47
20.34
19.46
18.78
18.14
17.36
16.29
14.90
13.26
11.57
10.00
8.64
7.38
5.98
4.19
1.88
-0.84
-3.70
-6.38
-8.67
-10.51
-11.93
-12.97
-13.60
-13.84
-13.82
-13.85
-14.31
-15.39
-16.94
-18.40
-19.08
-18.48
-16.46
-13.28
-9.36
-5.03
-0.38
4.60
9.90
15.29
20.33
24.63
27.95
30.37
32.13
33.52
34.69
35.58
36.03
35.86
34.98
33.42
31.35
28.99
26.63
24.51
22.83
21.70
21.10
20.94
20.99
20.90
20.26
18.75
16.26
12.97
9.33
5.80
2.69
-0.04
-2.63
-5.35
-8.34
-11.50
-14.65
-17.60
-20.34
-22.98
-25.62
-28.24
-30.63
-32.54
-33.68
-33.82
-32.80
-30.58
-27.14
-22.61
-17.20
-11.28
-5.27
0.47
5.70
10.33
14.41
17.98
20.99
23.28
24.59
24.68
23.48
21.15
18.10
14.85
11.83
9.31
7.30
5.67
4.21
2.76
1.20
-0.54
-2.50
-4.65
-6.87
-8.97
-10.68
-11.86
-12.51
-12.80
-12.97
-13.21
-13.60
-14.12
-14.74
-15.41
-16.13
-16.87
-17.63
-18.42
-19.24
-20.04
-20.71
-20.97
-20.55
-19.22
-16.92
-13.75
-9.92
-5.56
-0.78
4.34
9.58
14.57
18.83
21.92
23.63
24.05
23.50
22.37
21.03
19.68
18.42
17.31
16.34
15.48
14.68
13.81
12.73
11.26
9.30
6.88
4.14
1.29
-1.43
-3.88
-6.01
-7.87
-9.56
-11.16
-12.74
-14.36
-16.07
-17.91
-19.92
-22.11
-24.42
-26.76
-29.01
-31.03
-32.71
-33.90
-34.48
-34.36
-33.42
-31.56
-28.66
-24.66
-19.63
-13.80
-7.53
-1.28
4.56
9.78
14.39
18.47
22.08
25.14
27.45
28.83
29.19
28.66
27.46
25.89
24.16
22.37
20.52
18.62
16.70
14.84
13.13
11.54
9.97
8.28
6.34
4.11
1.61
-1.09
-4.00
-7.09
-10.30
-13.51
-16.50
-19.10
-21.25
-23.03
-24.64
-26.26
-27.98
-29.77
-31.59
-33.38
-35.08
-36.46
-37.09
-36.30
-33.52
-28.49
-21.51
-13.35
-4.97
2.86
9.76
15.75
20.97
25.54
29.38
32.38
34.44
35.62
36.13
36.17
35.84
35.14
34.00
32.39
30.43
28.31
26.28
24.56
23.28
22.40
21.77
21.09
20.08
18.60
16.72
14.73
12.94
11.58
10.64
9.88
8.98
7.70
5.97
3.87
1.59
-0.72
-2.95
-5.05
-7.03
-8.90
-10.60
-12.13
-13.49
-14.70
-15.81
-16.89
-18.02
-19.21
-20.48
-21.84
-23.36
-25.23
-27.64
-30.71
-34.26
-37.77
-40.36
-41.14
-39.48
-35.25
-28.95
-21.47
-13.77
-6.57
-0.19
5.40
10.39
14.92
18.97
22.38
24.97
26.62
27.39
27.46
27.06
26.36
25.40
24.17
22.61
20.77
18.82
17.04
15.66
14.69
13.98
13.23
12.19
10.75
8.98
7.03
5.03
2.99
0.89
-1.30
-3.49
-5.59
-7.51
-9.26
-10.91
-12.57
-14.31
-16.19
-18.16
-20.15
-22.09
-23.84
-25.20
-25.93
-25.78
-24.60
-22.35
-19.09
-14.96
-10.11
-4.72
1.02
6.86
12.48
17.48
21.52
24.35
25.87
26.15
25.37
23.82
21.80
19.63
17.56
15.84
14.54
13.62
12.95
12.35
11.66
10.76
9.62
8.23
6.62
4.82
2.84
0.71
-1.55
-3.91
-6.35
-8.88
-11.48
-14.19
-16.99
-19.80
-22.52
-25.04
-27.31
-29.43
-31.51
-33.64
-35.82
-37.84
-39.28
-39.64
-38.47
-35.51
-30.81
-24.70
-17.74
-10.48
-3.38
3.29
9.36
14.69
19.14
22.65
25.26
27.14
28.51
29.53
30.24
30.55
30.35
29.67
28.65
27.46
26.23
24.97
23.67
22.32
20.97
19.66
18.39
17.08
15.62
13.98
12.20
10.35
8.52
6.71
4.88
2.96
0.91
-1.30
-3.60
-5.90
-8.00
-9.76
-11.13
-12.21
-13.31
-14.78
-16.90
-19.70
-23.02
-26.54
-29.92
-32.99
-35.68
-38.05
-40.09
-41.78
-43.01
-43.63
-43.52
-42.53
-40.53
-37.43
-33.19
-27.89
-21.72
-14.95
-7.93
-1.01
5.55
11.56
16.94
21.69
25.79
29.16
31.78
33.59
34.67
35.18
35.31
35.23
35.00
34.57
33.84
32.76
31.36
29.80
28.27
26.94
25.85
24.88
23.81
22.38
20.43
17.92
15.03
12.00
9.00
6.08
3.13
-0.02
-3.50
-7.30
-11.25
-15.07
-18.48
-21.24
-23.16
-24.13
-24.28
-24.09
-24.34
-25.87
-29.17
-34.04
-39.48
-44.06
-46.48
-46.13
-43.19
-38.48
-32.98
-27.40
-22.09
-17.17
-12.70
-8.79
-5.52
-2.82
-0.46
1.73
3.69
5.14
5.69
5.12
3.61
1.67
-0.10
-1.29
-1.88
-2.15
-2.36
-2.61
-2.80
-2.79
-2.63
-2.68
-3.40
-5.06
-7.45
-9.93
-11.67
-12.07
-11.03
-8.86
-6.14
-3.38
-0.90
1.18
2.77
3.73
3.89
3.09
1.38
-0.95
-3.43
-5.49
-6.59
-6.35
-4.61
-1.44
2.85
7.85
13.15
18.44
23.48
28.08
32.06
35.22
37.39
38.43
38.30
37.18
35.38
33.37
31.70
30.80
30.86
31.69
32.80
33.60
33.65
32.82
31.30
29.48
27.73
26.28
25.16
24.20
23.13
21.57
19.17
15.75
11.46
6.76
2.23
-1.73
-5.14
-8.33
-11.66
-15.22
-18.73
-21.75
-24.04
-25.76
-27.29
-28.96
-30.69
-32.00
-32.32
-31.40
-29.54
-27.47
-25.98
-25.44
-25.68
-26.06
-25.82
-24.35
-21.43
-17.22
-12.14
-6.70
-1.24
4.12
9.53
15.20
21.20
27.31
33.04
37.89
41.55
44.11
45.90
47.33
48.51
49.27
49.16
47.83
45.19
41.56
37.54
33.77
30.64
28.24
26.25
24.27
21.95
19.15
15.85
11.97
7.19
1.08
-6.58
-15.44
-24.43
-32.16
-37.62
-40.82
-42.82
-45.23
-49.04
-53.94
-58.25
-59.67
-56.54
-48.73
-37.84
-26.53
-17.42
-12.20
-11.18
-13.58
-18.12
-23.57
-29.07
-34.08
-38.30
-41.42
-43.15
-43.31
-41.95
-39.36
-35.97
-32.16
-28.11
-23.77
-18.89
-13.17
-6.49
0.83
8.17
14.65
19.49
22.33
23.43
23.58
23.75
24.55
26.04
27.75
29.12
29.94
30.49
31.30
32.73
34.60
36.24
36.87
36.07
33.94
31.03
27.97
25.03
22.05
18.59
14.30
9.19
3.64
-1.75
-6.45
-10.04
-12.51
-14.12
-15.30
-16.48
-17.79
-19.03
-19.66
-19.07
-16.84
-12.90
-7.48
-0.99
6.09
13.29
20.03
25.69
29.64
31.55
31.55
30.21
28.32
26.48
24.92
23.40
21.55
19.16
16.48
14.14
12.93
13.38
15.38
18.28
21.12
23.11
23.91
23.75
23.24
23.03
23.53
24.71
26.06
26.86
26.41
24.38
21.01
16.96
13.12
10.41
9.55
10.93
14.20
17.70
18.29
12.01
-4.22
-30.88
-65.13
-101.98
-136.46
-165.79
-190.04
-210.78
-228.92
-242.92
-248.82
-241.94
-219.22
-180.92
-130.71
-74.73
-19.94
27.29
62.03
81.50
85.30
75.39
56.00
33.14
13.87
5.07
11.32
32.68
63.72
94.66
114.90
117.47
101.93
74.16
43.07
16.00
-4.26
-19.27
-32.27
-44.77
-54.82
-58.16
-51.18
-33.78
-10.26
12.17
26.66
29.53
21.64
7.72
-6.13
-14.93
-16.53
-11.77
-3.30
6.26
15.49
24.58
34.57
46.28
59.37
72.40
83.24
89.99
91.52
87.63
78.75
65.56
48.84
29.68
9.84
-8.11
-21.16
-26.77
-23.95
-14.02
-0.41
12.49
21.21
24.90
25.76
27.90
35.15
48.66
65.96
81.86
91.01
90.63
81.81
68.82
56.60
48.25
43.65
40.18
34.76
25.82
14.18
2.35
-7.12
-12.94
-15.48
-16.22
-16.60
-17.33
-18.28
-18.97
-19.11
-18.93
-19.00
-19.89
-21.77
-24.20
-26.18
-26.44
-23.87
-18.04
-9.51
0.11
8.63
13.99
14.93
11.49
4.93
-2.79
-9.70
-14.49
-16.78
-17.06
-16.31
-15.51
-15.19
-15.31
-15.37
-14.81
-13.27
-10.90
-8.22
-5.96
-4.62
-4.37
-4.95
-5.87
-6.68
-7.04
-6.81
-6.05
-5.12
-4.59
-5.22
-7.70
-12.24
-18.40
-25.04
-30.58
-33.57
-33.18
-29.56
-23.80
-17.54
-12.29
-8.92
-7.39
-6.92
-6.54
-5.57
-4.00
-2.45
-1.78
-2.59
-4.84
-7.89
-10.84
-12.99
-14.09
-14.23
-13.60
-12.23
-9.97
-6.78
-2.97
0.78
3.66
5.24
5.76
6.09
7.39
10.50
15.64
22.18
28.92
34.39
37.28
36.87
33.21
27.16
20.02
13.14
7.39
3.01
-0.14
-2.24
-3.11
-2.29
0.60
5.44
11.35
17.01
21.22
23.46
24.15
24.39
25.38
27.87
31.94
37.00
42.15
46.44
49.06
49.43
47.36
43.26
38.27
34.20
32.84
35.19
40.50
46.20
48.57
44.22
31.58
11.73
-12.07
-35.72
-55.93
-71.32
-82.43
-90.66
-97.22
-102.37
-105.69
-106.82
-106.05
-104.19
-101.75
-98.19
-91.74
-80.49
-63.99
-44.34
-25.79
-12.95
-8.22
-10.11
-13.64
-12.56
-2.55
16.50
40.44
62.81
77.95
83.20
79.48
70.08
58.73
48.21
40.10
35.27
34.39
37.83
45.09
54.17
61.89
65.04
61.77
52.55
39.91
27.20
17.17
10.99
8.14
7.05
6.11
4.23
1.15
-2.75
-6.86
-10.72
-14.23
-17.70
-21.61
-26.26
-31.58
-37.18
-42.52
-47.15
-50.83
-53.47
-54.93
-54.88
-52.99
-49.16
-43.85
-38.03
-32.87
-29.22
-27.21
-26.29
-25.54
-24.15
-21.90
-19.24
-17.03
-16.17
-17.12
-19.84
-23.88
-28.72
-33.92
-39.13
-43.93
-47.73
-49.99
-50.47
-49.42
-47.67
-46.25
-45.90
-46.78
-48.48
-50.42
-52.24
-53.96
-55.70
-57.29
-57.98
-56.49
-51.40
-41.58
-26.48
-6.36
17.66
43.64
69.01
90.94
107.00
115.76
117.24
112.82
104.69
95.12
85.89
78.07
72.31
69.06
68.63
70.87
74.78
78.22
78.36
72.63
59.93
41.37
20.20
0.73
-13.05
-18.70
-15.76
-5.31
10.73
30.24
51.15
71.43
89.19
102.97
112.31
117.86
121.03
123.17
124.70
124.75
121.42
112.53
96.47
72.79
42.32
7.02
-30.49
-67.43
-101.41
-130.89
-155.35
-175.32
-191.84
-205.78
-217.35
-225.72
-229.21
-225.82
-213.83
-192.40
-162.02
-124.65
-83.79
-44.04
-10.31
13.46
25.65
27.69
23.70
18.92
17.70
21.81
30.13
39.57
46.88
50.14
49.28
45.71
41.20
37.16
34.31
32.91
33.11
34.95
38.27
42.42
46.15
47.89
46.29
40.72
31.60
20.35
8.83
-1.28
-9.05
-14.45
-18.17
-21.13
-24.01
-26.95
-29.66
-31.58
-32.25
-31.45
-29.26
-25.97
-22.02
-17.79
-13.49
-9.09
-4.39
0.78
6.43
12.23
17.71
22.34
25.77
27.97
29.10
29.34
28.80
27.42
25.14
22.03
18.47
15.00
12.23
10.49
9.73
9.46
9.01
7.81
5.66
2.84
-0.09
-2.56
-4.32
-5.49
-6.43
-7.49
-8.71
-9.84
-10.53
-10.60
-10.24
-9.94
-10.30
-11.70
-14.18
-17.42
-20.94
-24.36
-27.55
-30.60
-33.76
-37.25
-41.00
-44.66
-47.61
-49.23
-49.09
-47.19
-43.92
-39.95
-35.88
-32.00
-28.24
-24.32
-20.06
-15.63
-11.57
-8.53
-6.93
-6.64
-7.09
-7.55
-7.61
-7.39
-7.33
-7.85
-8.90
-9.92
-10.14
-9.06
-6.85
-4.17
-1.80
-0.13
0.92
1.77
2.70
3.64
4.27
4.39
4.28
4.75
6.89
11.57
19.17
29.37
41.33
53.89
65.83
75.93
83.04
86.23
85.00
79.54
70.78
60.31
49.98
41.37
35.36
31.87
30.03
28.56
26.35
22.91
18.47
13.90
10.14
7.91
7.35
8.13
9.66
11.41
13.07
14.61
16.06
17.32
18.15
18.23
17.36
15.59
13.21
10.53
7.76
4.90
1.81
-1.53
-4.98
-8.15
-10.56
-11.92
-12.26
-11.96
-11.64
-11.85
-12.85
-14.42
-16.03
-17.10
-17.32
-16.89
-16.42
-16.75
-18.59
-22.27
-27.56
-33.85
-40.31
-46.18
-50.85
-53.87
-54.81
-53.13
-48.29
-39.93
-28.33
-14.54
-0.23
12.80
23.31
30.99
36.39
40.32
43.15
44.59
44.02
41.33
37.45
34.35
34.06
37.40
43.20
48.66
50.73
47.85
40.98
33.13
27.82
27.17
30.78
36.01
39.40
38.35
32.29
22.62
11.72
1.84
-5.91
-11.66
-16.44
-21.40
-27.28
-34.15
-41.47
-48.55
-54.84
-60.19
-64.75
-68.63
-71.68
-73.41
-73.16
-70.52
-65.55
-58.82
-51.12
-43.14
-35.27
-27.60
-20.14
-13.01
-6.56
-1.17
2.89
5.73
7.79
9.78
12.37
15.91
20.26
24.68
28.12
29.57
28.49
25.08
20.24
15.18
10.99
8.21
6.72
5.99
5.39
4.47
3.15
1.67
0.23
-1.06
-2.35
-3.98
-6.29
-9.45
-13.34
-17.66
-21.98
-25.98
-29.48
-32.45
-34.89
-36.71
-37.63
-37.26
-35.36
-32.07
-27.96
-23.86
-20.46
-17.85
-15.40
-11.90
-6.18
2.35
13.39
25.80
38.03
48.55
56.20
60.40
61.14
58.99
55.11
51.03
48.23
47.60
48.92
50.81
51.29
48.67
42.59
34.45
27.03
23.29
24.97
31.65
40.85
49.07
53.33
52.40
47.11
39.66
32.37
26.67
22.73
19.88
17.22
14.31
11.11
7.82
4.52
1.04
-2.84
-7.22
-11.80
-15.98
-19.03
-20.45
-20.18
-18.77
-17.17
-16.42
-17.37
-20.32
-24.97
-30.30
-34.86
-37.06
-35.64
-30.29
-22.13
-13.90
-9.40
-12.27
-24.42
-44.92
-69.92
-93.90
-111.69
-120.13
-118.79
-109.24
-93.79
-74.43
-52.55
-29.53
-7.42
11.09
23.43
28.54
27.67
24.11
21.90
24.06
31.38
42.38
54.19
63.90
69.39
69.48
63.63
51.75
34.30
12.68
-10.56
-32.14
-48.93
-59.06
-62.50
-60.85
-56.38
-51.05
-45.85
-40.83
-35.52
-29.49
-22.70
-15.44
-8.17
-1.33
4.83
10.29
15.30
20.27
25.64
31.65
38.24
45.02
51.37
56.72
60.77
63.46
64.77
64.61
62.70
58.80
53.02
45.95
38.73
32.53
28.15
25.65
24.40
23.48
22.16
20.19
17.81
15.43
13.34
11.53
9.67
7.37
4.39
0.83
-3.04
-6.85
-10.38
-13.64
-16.82
-20.14
-23.75
-27.67
-31.78
-35.89
-39.67
-42.59
-43.99
-43.27
-40.14
-35.00
-28.80
-22.92
-18.62
-16.52
-16.40
-17.40
-18.44
-18.78
-18.21
-16.98
-15.47
-13.90
-12.19
-10.18
-7.86
-5.52
-3.76
-3.19
-3.99
-5.87
-8.00
-9.40
-9.33
-7.54
-4.26
-0.15
4.03
7.57
9.98
10.98
10.52
8.71
5.72
1.79
-2.78
-7.53
-11.85
-15.04
-16.51
-16.10
-14.22
-11.80
-9.93
-9.48
-10.69
-13.20
-16.15
-18.64
-20.03
-20.18
-19.37
-18.12
-16.98
-16.23
-15.87
-15.58
-14.97
-13.66
-11.56
-8.74
-5.38
-1.67
2.21
6.12
9.89
13.28
16.10
18.20
19.51
20.09
20.07
19.73
19.47
19.70
20.57
21.77
22.51
21.89
19.47
15.68
11.68
8.83
7.86
8.50
9.79
10.75
11.11
11.39
12.40
14.50
17.20
19.38
19.96
18.51
15.52
11.98
8.82
6.43
4.63
2.94
0.88
-1.78
-5.05
-8.78
-12.69
-16.33
-19.10
-20.32
-19.47
-16.32
-11.19
-4.79
1.96
8.25
13.76
18.60
23.25
28.13
33.25
38.10
41.81
43.59
43.13
40.82
37.50
34.04
30.91
27.96
24.73
20.74
15.93
10.77
5.97
2.16
-0.48
-2.31
-3.96
-5.93
-8.27
-10.50
-11.91
-11.92
-10.46
-8.07
-5.70
-4.32
-4.52
-6.35
-9.48
-13.40
-17.79
-22.51
-27.62
-33.11
-38.83
-44.36
-49.06
-52.17
-53.01
-51.14
-46.49
-39.47
-30.82
-21.43
-12.18
-3.64
3.85
10.23
15.46
19.59
22.70
24.98
26.72
28.23
29.71
31.07
32.02
32.14
31.14
29.04
26.17
23.18
20.67
19.06
18.41
18.47
18.84
19.11
19.05
18.58
17.75
16.61
15.22
13.64
11.95
10.34
8.96
7.89
7.04
6.12
4.78
2.80
0.22
-2.62
-5.34
-7.68
-9.68
-11.62
-13.82
-16.51
-19.66
-23.14
-26.74
-30.37
-33.97
-37.44
-40.67
-43.52
-45.92
-47.83
-49.26
-50.06
-49.93
-48.47
-45.39
-40.67
-34.66
-27.88
-20.84
-13.88
-7.02
-0.16
6.73
13.51
19.82
25.27
29.57
32.70
34.78
36.07
36.77
36.94
36.55
35.54
33.88
31.66
29.04
26.20
23.31
20.52
17.92
15.57
13.50
11.68
10.10
8.66
7.24
5.74
4.08
2.18
-0.00
-2.49
-5.31
-8.36
-11.45
-14.28
-16.54
-18.02
-18.76
-19.04
-19.25
-19.72
-20.47
-21.16
-21.27
-20.24
-17.79
-14.01
-9.32
-4.28
0.58
4.92
8.57
11.51
13.75
15.24
15.98
15.97
15.28
14.08
12.56
10.92
9.34
7.93
6.80
6.07
5.76
5.83
6.10
6.33
6.26
5.75
4.78
3.49
2.07
0.61
-0.88
-2.49
-4.38
-6.62
-9.14
-11.79
-14.37
-16.70
-18.73
-20.49
-22.04
-23.46
-24.79
-25.98
-27.00
-27.75
-28.09
-27.80
-26.57
-24.12
-20.35
-15.37
-9.52
-3.26
2.94
8.72
13.79
17.95
21.07
23.12
24.19
24.45
24.14
23.50
22.66
21.64
20.39
18.88
17.09
15.17
13.28
11.62
10.24
9.08
7.99
6.75
5.23
3.38
1.28
-0.98
-3.30
-5.62
-7.92
-10.19
-12.45
-14.73
-17.16
-19.83
-22.73
-25.74
-28.60
-31.10
-33.07
-34.40
-35.03
-34.84
-33.68
-31.45
-28.16
-23.93
-19.00
-13.58
-7.85
-1.90
4.10
9.94
15.29
19.84
23.39
25.92
27.53
28.40
28.68
28.44
27.77
26.75
25.56
24.37
23.30
22.40
21.65
20.98
20.32
19.60
18.79
17.84
16.72
15.41
13.94
12.34
10.65
8.88
6.99
4.99
2.89
0.79
-1.19
-2.97
-4.50
-5.88
-7.28
-8.85
-10.67
-12.69
-14.73
-16.56
-18.04
-19.18
-20.13
-21.12
-22.32
-23.80
-25.50
-27.32
-29.19
-31.02
-32.69
-33.92
-34.35
-33.59
-31.39
-27.72
-22.74
-16.80
-10.24
-3.43
3.34
9.78
15.67
20.83
25.11
28.48
30.92
32.43
33.09
32.96
32.20
30.95
29.44
27.84
26.36
25.07
23.97
22.96
21.89
20.68
19.28
17.75
16.16
14.55
12.87
11.03
8.98
6.72
4.34
1.98
-0.26
-2.33
-4.25
-6.07
-7.83
-9.53
-11.20
-12.86
-14.50
-16.15
-17.79
-19.39
-20.95
-22.45
-23.87
-25.15
-26.10
-26.50
-26.07
-24.65
-22.20
-18.85
-14.84
-10.42
-5.78
-1.08
3.57
7.99
11.94
15.17
17.47
18.76
19.11
18.72
17.86
16.82
15.82
15.02
14.42
13.94
13.42
12.71
11.71
10.41
8.91
7.37
5.90
4.55
3.25
1.93
0.56
-0.82
-2.14
-3.38
-4.55
-5.76
-7.08
-8.53
-10.08
-11.64
-13.14
-14.64
-16.24
-18.01
-19.87
-21.64
-23.03
-23.81
-23.84
-23.07
-21.49
-19.07
-15.74
-11.51
-6.53
-1.15
4.09
8.62
12.04
14.26
15.49
16.17
16.68
17.25
17.89
18.39
18.54
18.19
17.36
16.19
14.87
13.55
12.29
11.08
9.80
8.39
6.80
5.05
3.20
1.30
-0.61
-2.58
-4.66
-6.87
-9.16
-11.42
-13.49
-15.30
-16.84
-18.20
-19.50
-20.86
-22.35
-24.07
-26.10
-28.45
-30.95
-33.30
-34.96
-35.40
-34.23
-31.37
-27.07
-21.79
-16.01
-10.07
-4.16
1.69
7.42
12.87
17.74
21.70
24.49
26.02
26.43
25.94
24.85
23.41
21.84
20.40
19.35
18.89
19.10
19.78
20.48
20.66
19.92
18.22
15.85
13.31
11.03
9.23
7.86
6.72
5.59
4.40
3.17
1.99
0.90
-0.15
-1.28
-2.55
-4.02
-5.58
-7.10
-8.44
-9.60
-10.67
-11.81
-13.16
-14.75
-16.46
-18.09
-19.49
-20.62
-21.60
-22.54
-23.56
-24.68
-25.90
-27.25
-28.76
-30.46
-32.24
-33.77
-34.53
-33.99
-31.76
-27.76
-22.20
-15.53
-8.30
-1.01
5.93
12.31
18.05
23.17
27.68
31.53
34.60
36.70
37.74
37.75
36.90
35.53
33.93
32.35
30.88
29.54
28.31
27.20
26.24
25.47
24.84
24.21
23.41
22.28
20.79
19.03
17.17
15.40
13.82
12.41
11.01
9.46
7.63
5.53
3.27
1.02
-1.10
-3.06
-4.90
-6.78
-8.75
-10.82
-12.91
-14.93
-16.81
-18.60
-20.42
-22.35
-24.41
-26.51
-28.50
-30.19
-31.42
-32.00
-31.71
-30.35
-27.81
-24.15
-19.63
-14.67
-9.70
-5.04
-0.86
2.78
5.85
8.34
10.16
11.26
11.64
11.35
10.56
9.45
8.22
7.05
6.08
5.38
4.99
4.85
4.80
4.66
4.21
3.32
2.03
0.54
-0.87
-1.91
-2.51
-2.76
-2.96
-3.53
-4.82
-7.05
-10.19
-13.93
-17.70
-20.90
-23.01
-23.78
-23.38
-22.19
-20.70
-19.22
-17.86
-16.47
-14.79
-12.50
-9.35
-5.22
-0.19
5.48
11.39
17.10
22.31
26.84
30.56
33.32
34.85
34.88
33.38
30.69
27.47
24.44
22.12
20.58
19.52
18.46
17.10
15.43
13.68
12.16
11.08
10.41
9.96
9.48
8.74
7.58
5.92
3.69
0.92
-2.29
-5.69
-8.96
-11.81
-14.07
-15.76
-17.07
-18.23
-19.38
-20.59
-21.81
-22.97
-23.99
-24.77
-25.13
-24.79
-23.51
-21.10
-17.60
-13.26
-8.44
-3.49
1.35
5.97
10.34
14.35
17.84
20.57
22.30
22.89
22.39
21.05
19.24
17.41
15.95
15.07
14.81
15.02
15.42
15.71
15.64
15.02
13.77
11.88
9.45
6.67
3.80
1.12
-1.13
-2.79
-3.88
-4.55
-5.07
-5.73
-6.76
-8.21
-10.02
-11.97
-13.82
-15.38
-16.58
-17.55
-18.51
-19.71
-21.29
-23.17
-25.09
-26.78
-28.03
-28.90
-29.63
-30.54
-31.75
-33.05
-33.93
-33.79
-32.18
-28.99
-24.44
-18.98
-13.03
-6.87
-0.67
5.47
11.41
16.96
21.86
25.92
29.02
31.16
32.36
32.70
32.29
31.28
29.86
28.24
26.61
25.06
23.66
22.36
21.13
19.93
18.76
17.63
16.55
15.45
14.24
12.82
11.11
9.17
7.15
5.22
3.52
2.01
0.54
-1.13
-3.16
-5.56
-8.17
-10.74
-13.08
-15.17
-17.11
-19.02
-20.94
-22.73
-24.05
-24.53
-23.84
-21.85
-18.67
-14.58
-9.96
-5.13
-0.33
4.29
8.64
12.64
16.18
19.15
21.44
22.98
23.74
23.79
23.21
22.17
20.78
19.20
17.54
15.94
14.49
13.28
12.35
11.63
11.00
10.24
9.18
7.73
5.93
3.90
1.78
-0.32
-2.35
-4.33
-6.24
-8.06
-9.74
-11.30
-12.83
-14.48
-16.35
-18.45
-20.65
-22.77
-24.65
-26.20
-27.40
-28.13
-28.23
-27.39
-25.34
-21.97
-17.46
-12.22
-6.80
-1.72
2.76
6.54
9.73
12.48
14.85
16.77
18.10
18.72
18.62
17.98
17.06
16.13
15.36
14.74
14.15
13.38
12.28
10.83
9.14
7.43
5.90
4.57
3.37
2.11
0.66
-1.01
-2.78
-4.50
-6.08
-7.55
-9.08
-10.87
-13.03
-15.54
-18.28
-21.02
-23.58
-25.82
-27.69
-29.15
-30.22
-30.85
-30.93
-30.29
-28.74
-26.16
-22.57
-18.14
-13.15
-7.90
-2.66
2.35
7.03
11.30
15.15
18.55
21.46
23.73
25.21
25.74
25.30
24.07
22.39
20.67
19.25
18.28
17.72
17.39
17.11
16.75
16.21
15.45
14.44
13.17
11.67
10.06
8.46
6.97
5.58
4.19
2.67
0.94
-0.99
-3.00
-4.99
-6.88
-8.64
-10.36
-12.15
-14.11
-16.34
-18.80
-21.37
-23.84
-26.05
-27.89
-29.42
-30.81
-32.24
-33.84
-35.63
-37.51
-39.30
-40.76
-41.62
-41.55
-40.24
-37.43
-33.05
-27.24
-20.36
-12.89
-5.31
1.99
8.76
14.94
20.58
25.69
30.23
34.02
36.84
38.56
39.18
38.87
37.90
36.54
34.94
33.22
31.40
29.55
27.72
25.98
24.35
22.78
21.21
19.60
17.99
16.43
14.98
13.69
12.53
11.40
10.20
8.81
7.17
5.31
3.31
1.31
-0.52
-2.08
-3.31
-4.30
-5.20
-6.21
-7.49
-9.10
-10.99
-13.04
-15.11
-17.06
-18.87
-20.59
-22.30
-24.07
-25.88
-27.55
-28.74
-29.02
-27.97
-25.34
-21.17
-15.86
-10.00
-4.24
0.99
5.60
9.74
13.66
17.48
21.09
24.18
26.42
27.61
27.79
27.19
26.12
24.87
23.62
22.43
21.27
20.08
18.85
17.61
16.46
15.50
14.73
14.07
13.34
12.35
11.03
9.46
7.79
6.17
4.61
2.99
1.15
-0.93
-3.15
-5.27
-7.15
-8.79
-10.38
-12.15
-14.22
-16.50
-18.79
-20.87
-22.67
-24.24
-25.66
-26.85
-27.57
-27.41
-26.07
-23.43
-19.67
-15.17
-10.37
-5.64
-1.18
2.91
6.59
9.85
12.62
14.81
16.34
17.15
17.26
16.81
16.03
15.19
14.50
14.05
13.81
13.63
13.36
12.88
12.14
11.18
9.98
8.52
6.76
4.71
2.47
0.19
-1.95
-3.87
-5.62
-7.38
-9.30
-11.44
-13.72
-15.93
-17.86
-19.43
-20.73
-21.97
-23.37
-25.05
-26.95
-28.89
-30.61
-31.84
-32.33
-31.85
-30.17
-27.19
-22.95
-17.73
-11.96
-6.10
-0.53
4.55
8.99
12.78
15.79
17.93
19.15
19.50
19.21
18.56
17.87
17.32
17.00
16.81
16.63
16.37
15.98
15.52
14.99
14.43
13.79
13.04
12.09
10.97
9.73
8.45
7.20
5.96
4.65
3.18
1.51
-0.33
-2.19
-3.91
-5.41
-6.68
-7.86
-9.10
-10.57
-12.33
-14.30
-16.38
-18.40
-20.27
-21.98
-23.61
-25.21
-26.87
-28.63
-30.45
-32.25
-33.87
-35.09
-35.56
-34.91
-32.79
-29.02
-23.72
-17.31
-10.42
-3.72
2.36
7.70
12.44
16.87
21.18
25.37
29.22
32.38
34.54
35.55
35.47
34.54
33.12
31.51
29.97
28.61
27.43
26.41
25.48
24.57
23.51
22.12
20.24
17.82
15.00
12.02
9.17
6.62
4.34
2.06
-0.53
-3.66
-7.27
-11.06
-14.54
-17.28
-19.14
-20.28
-21.13
-22.14
-23.60
-25.49
-27.55
-29.41
-30.74
-31.29
-30.86
-29.30
-26.61
-23.00
-18.95
-15.03
-11.58
-8.50
-5.22
-0.96
4.76
11.76
19.08
25.38
29.48
30.84
29.80
27.38
24.77
22.89
22.03
21.91
21.94
21.57
20.59
19.19
17.82
16.91
16.56
16.55
16.44
15.85
14.62
12.88
10.89
8.84
6.75
4.42
1.66
-1.59
-5.19
-8.85
-12.31
-15.38
-18.01
-20.21
-22.03
-23.48
-24.60
-25.44
-25.99
-26.08
-25.42
-23.67
-20.59
-16.22
-10.87
-5.02
0.77
6.12
10.82
14.80
18.05
20.55
22.27
23.17
23.24
22.52
21.16
19.37
17.36
15.40
13.64
12.14
10.92
9.94
9.15
8.49
7.86
7.09
6.00
4.44
2.37
-0.10
-2.78
-5.42
-7.86
-10.02
-11.91
-13.58
-15.11
-16.58
-18.08
-19.71
-21.49
-23.36
-25.22
-26.87
-28.06
-28.55
-28.08
-26.45
-23.57
-19.54
-14.60
-9.18
-3.72
1.41
6.04
10.16
13.85
17.13
19.86
21.78
22.59
22.20
20.76
18.68
16.45
14.51
13.00
11.87
10.89
9.88
8.72
7.43
6.06
4.65
3.18
1.61
-0.11
-1.97
-3.95
-6.02
-8.12
-10.26
-12.44
-14.72
-17.19
-19.89
-22.82
-25.83
-28.70
-31.25
-33.35
-34.99
-36.15
-36.73
-36.47
-35.07
-32.26
-27.98
-22.41
-15.96
-9.09
-2.22
4.40
10.61
16.32
21.37
25.55
28.64
30.46
31.00
30.44
29.08
27.27
25.27
23.24
21.19
19.17
17.22
15.47
13.98
12.74
11.60
10.42
9.10
7.67
6.26
4.94
3.68
2.30
0.61
-1.52
-4.08
-6.90
-9.78
-12.50
-14.96
-17.12
-19.07
-20.91
-22.70
-24.44
-25.99
-27.14
-27.59
-27.12
-25.57
-22.89
-19.12
-14.32
-8.61
-2.18
4.66
11.54
18.01
23.70
28.38
31.93
34.36
35.72
36.09
35.55
34.30
32.54
30.57
28.63
26.83
25.17
23.54
21.79
19.88
17.80
15.62
13.44
11.26
9.05
6.80
4.47
2.05
-0.45
-2.99
-5.53
-7.99
-10.29
-12.40
-14.36
-16.25
-18.19
-20.27
-22.47
-24.76
-27.05
-29.24
-31.22
-32.79
-33.67
-33.51
-32.03
-29.10
-24.76
-19.30
-13.09
-6.53
0.01
6.21
11.78
16.46
20.08
22.58
24.07
24.75
24.87
24.66
24.28
23.81
23.27
22.64
21.89
20.96
19.78
18.27
16.43
14.30
11.98
9.61
7.30
5.08
2.92
0.77
-1.41
-3.60
-5.75
-7.85
-9.92
-12.03
-14.27
-16.69
-19.28
-21.98
-24.71
-27.42
-30.09
-32.68
-35.09
-37.11
-38.41
-38.62
-37.44
-34.67
-30.33
-24.68
-18.13
-11.23
-4.49
1.73
7.24
12.04
16.23
19.86
22.93
25.35
27.00
27.77
27.67
26.81
25.39
23.68
21.90
20.21
18.70
17.33
16.02
14.68
13.23
11.66
9.97
8.13
6.12
3.96
1.69
-0.60
-2.80
-4.88
-6.88
-8.91
-11.08
-13.40
-15.76
-18.05
-20.17
-22.14
-24.07
-26.08
-28.24
-30.48
-32.65
-34.43
-35.51
-35.55
-34.25
-31.44
-27.10
-21.42
-14.79
-7.72
-0.72
5.87
11.83
17.14
21.80
25.81
29.09
31.56
33.16
33.94
34.01
33.55
32.76
31.75
30.67
29.61
28.64
27.83
27.18
26.61
25.94
25.03
23.69
21.87
19.60
16.98
14.23
11.54
9.07
6.86
4.87
2.98
1.09
-0.88
-2.94
-5.11
-7.43
-9.94
-12.69
-15.64
-18.69
-21.68
-24.43
-26.85
-29.00
-31.00
-33.03
-35.22
-37.58
-40.01
-42.25
-44.04
-45.08
-45.15
-44.03
-41.57
-37.69
-32.41
-25.91
-18.50
-10.56
-2.53
5.20
12.34
18.64
23.95
28.14
31.15
32.95
33.62
33.29
32.24
30.80
29.31
28.04
27.08
26.39
25.79
25.15
24.35
23.35
22.16
20.79
19.22
17.40
15.31
12.96
10.42
7.84
5.43
3.34
1.60
0.11
-1.41
-3.24
-5.55
-8.31
-11.33
-14.32
-17.09
-19.59
-21.87
-24.04
-26.11
-27.95
-29.27
-29.75
-29.11
-27.21
-24.17
-20.25
-15.75
-10.94
-5.92
-0.72
4.65
10.05
15.19
19.75
23.42
26.11
27.84
28.75
28.96
28.57
27.68
26.47
25.21
24.14
23.41
23.01
22.79
22.56
22.23
21.78
21.29
20.81
20.28
19.54
18.44
16.82
14.70
12.21
9.57
7.01
4.69
2.65
0.78
-1.05
-2.99
-5.08
-7.25
-9.34
-11.17
-12.68
-13.92
-15.03
-16.20
-17.53
-19.09
-20.86
-22.83
-24.98
-27.22
-29.39
-31.14
-32.09
-31.91
-30.46
-27.79
-24.18
-19.92
-15.29
-10.49
-5.70
-1.19
2.73
5.79
7.86
8.97
9.30
9.11
8.63
7.97
7.20
6.36
5.46
4.52
3.57
2.63
1.70
0.80
-0.06
-0.91
-1.75
-2.58
-3.44
-4.33
-5.25
-6.22
-7.24
-8.30
-9.41
-10.56
-11.73
-12.91
-14.06
-15.17
-16.22
-17.22
-18.17
-19.03
-19.72
-20.12
-20.03
-19.21
-17.43
-14.49
-10.40
-5.34
0.24
5.80
10.75
14.74
17.67
19.71
21.09
21.99
22.41
22.28
21.62
20.57
19.44
18.56
18.13
18.10
18.25
18.33
18.15
17.72
17.15
16.56
15.90
15.00
13.60
11.58
9.00
6.11
3.23
0.56
-1.82
-4.01
-6.13
-8.27
-10.38
-12.35
-14.11
-15.66
-17.15
-18.78
-20.74
-23.08
-25.62
-27.96
-29.49
-29.63
-28.00
-24.56
-19.70
-14.00
-8.15
-2.61
2.37
6.73
10.46
13.46
15.60
16.83
17.23
17.00
16.42
15.67
14.80
13.78
12.60
11.33
10.14
9.21
8.60
8.20
7.78
7.13
6.09
4.65
2.85
0.81
-1.32
-3.36
-5.17
-6.69
-7.99
-9.26
-10.72
-12.53
-14.68
-17.01
-19.31
-21.43
-23.38
-25.18
-26.86
-28.25
-29.03
-28.76
-27.14
-24.06
-19.75
-14.64
-9.21
-3.89
1.12
5.76
10.03
13.95
17.41
20.31
22.50
23.91
24.55
24.55
24.12
23.46
22.73
21.96
21.14
20.21
19.11
17.88
16.58
15.21
13.72
12.09
10.27
8.35
6.44
4.58
2.74
0.80
-1.37
-3.83
-6.48
-9.07
-11.41
-13.40
-15.15
-16.88
-18.83
-21.12
-23.64
-26.16
-28.35
-29.87
-30.47
-30.01
-28.34
-25.44
-21.29
-16.00
-9.82
-3.17
3.49
9.73
15.25
19.94
23.80
26.91
29.31
31.03
32.09
32.55
32.54
32.17
31.53
30.62
29.39
27.87
26.17
24.47
22.94
21.65
20.49
19.27
17.81
16.03
14.02
11.89
9.77
7.70
5.65
3.54
1.31
-1.12
-3.83
-6.85
-10.13
-13.55
-16.92
-19.99
-22.56
-24.56
-26.03
-27.12
-27.89
-28.25
-28.00
-26.79
-24.41
-20.82
-16.19
-10.87
-5.25
0.35
5.68
10.53
14.68
17.87
19.93
20.84
20.80
20.18
19.35
18.56
17.83
16.99
15.87
14.37
12.66
10.99
9.62
8.68
8.02
7.35
6.38
4.94
3.08
1.03
-1.00
-2.89
-4.68
-6.52
-8.48
-10.50
-12.45
-14.15
-15.53
-16.69
-17.78
-18.97
-20.33
-21.78
-23.13
-24.13
-24.57
-24.28
-23.09
-20.92
-17.74
-13.63
-8.83
-3.68
1.44
6.23
10.47
14.03
16.83
18.78
19.81
19.91
19.17
17.77
16.01
14.20
12.61
11.45
10.71
10.27
9.90
9.37
8.54
7.41
6.09
4.74
3.50
2.34
1.14
-0.28
-2.05
-4.19
-6.62
-9.18
-11.75
-14.26
-16.67
-18.96
-21.10
-23.03
-24.72
-26.24
-27.63
-28.89
-29.82
-30.03
-29.07
-26.57
-22.50
-17.11
-10.97
-4.69
1.21
6.46
10.93
14.63
17.50
19.50
20.59
20.78
20.26
19.27
18.13
17.07
16.19
15.42
14.68
13.88
13.00
12.10
11.25
10.42
9.57
8.57
7.29
5.62
3.52
1.02
-1.77
-4.67
-7.49
-10.09
-12.43
-14.57
-16.67
-18.81
-21.01
-23.22
-25.37
-27.43
-29.36
-31.05
-32.23
-32.48
-31.35
-28.51
-23.97
-18.08
-11.44
-4.63
1.92
8.00
13.57
18.61
22.99
26.58
29.23
30.92
31.77
31.92
31.52
30.67
29.42
27.84
25.97
23.88
21.63
19.28
16.85
14.40
11.92
9.39
6.70
3.71
0.42
-3.04
-6.34
-9.08
-10.97
-12.01
-12.47
-12.76
-13.24
-14.12
-15.39
-16.95
-18.77
-20.98
-23.80
-27.33
-31.33
-35.22
-38.15
-39.35
-38.38
-35.28
-30.48
-24.56
-18.07
-11.39
-4.79
1.53
7.33
12.46
16.83
20.44
23.36
25.63
27.25
28.20
28.50
28.20
27.42
26.31
24.95
23.41
21.74
20.01
18.28
16.60
14.95
13.29
11.56
9.76
7.92
6.11
4.33
2.55
0.65
-1.43
-3.75
-6.24
-8.83
-11.43
-14.03
-16.60
-19.14
-21.65
-24.07
-26.40
-28.63
-30.74
-32.60
-33.93
-34.29
-33.23
-30.41
-25.74
-19.50
-12.19
-4.48
3.02
9.82
15.64
20.38
24.10
26.93
29.04
30.54
31.43
31.69
31.25
30.17
28.64
26.94
25.34
23.98
22.87
21.92
21.04
20.22
19.50
18.92
18.42
17.82
16.88
15.42
13.43
11.04
8.47
5.92
3.52
1.25
-0.93
-3.07
-5.17
-7.21
-9.12
-10.94
-12.74
-14.67
-16.87
-19.40
-22.19
-25.08
-27.85
-30.33
-32.50
-34.52
-36.69
-39.15
-41.82
-44.23
-45.65
-45.40
-43.10
-38.80
-33.00
-26.35
-19.45
-12.61
-5.94
0.62
7.11
13.47
19.50
24.95
29.61
33.34
36.16
38.08
39.17
39.48
39.02
37.86
36.17
34.19
32.17
30.29
28.63
27.15
25.77
24.39
22.97
21.50
19.97
18.38
16.70
14.91
12.96
10.84
8.57
6.19
3.76
1.37
-0.95
-3.18
-5.36
-7.53
-9.76
-12.12
-14.65
-17.40
-20.28
-23.14
-25.68
-27.58
-28.53
-28.35
-26.96
-24.44
-20.92
-16.61
-11.78
-6.75
-1.83
2.68
6.54
9.68
12.11
13.95
15.32
16.28
16.88
17.09
16.88
16.29
15.40
14.31
13.09
11.80
10.50
9.30
8.33
7.67
7.30
7.07
6.72
6.00
4.78
3.10
1.16
-0.85
-2.79
-4.63
-6.41
-8.18
-9.93
-11.63
-13.21
-14.70
-16.16
-17.73
-19.50
-21.48
-23.51
-25.29
-26.45
-26.61
-25.55
-23.23
-19.80
-15.52
-10.72
-5.71
-0.77
3.82
7.81
11.00
13.29
14.70
15.42
15.65
15.54
15.18
14.56
13.69
12.64
11.56
10.64
9.99
9.57
9.18
8.60
7.63
6.25
4.55
2.72
0.93
-0.75
-2.36
-3.98
-5.69
-7.49
-9.37
-11.24
-13.04
-14.73
-16.34
-17.90
-19.44
-20.98
-22.52
-24.02
-25.41
-26.57
-27.39
-27.74
-27.45
-26.41
-24.49
-21.68
-18.02
-13.62
-8.67
-3.42
1.86
6.91
11.47
15.34
18.38
20.53
21.77
22.18
21.89
21.08
19.97
18.73
17.48
16.26
15.09
13.95
12.85
11.79
10.75
9.68
8.51
7.17
5.68
4.05
2.33
0.54
-1.30
-3.24
-5.31
-7.56
-10.05
-12.73
-15.56
-18.39
-21.09
-23.60
-25.89
-28.03
-30.14
-32.22
-34.09
-35.44
-35.83
-34.91
-32.50
-28.65
-23.59
-17.70
-11.36
-4.90
1.40
7.36
12.83
17.72
21.97
25.54
28.34
30.29
31.32
31.48
30.88
29.76
28.37
26.90
25.45
24.04
22.71
21.56
20.70
20.21
19.99
19.85
19.53
18.88
17.86
16.60
15.25
13.90
12.47
10.83
8.88
6.64
4.30
2.13
0.33
-1.10
-2.29
-3.52
-5.05
-7.03
-9.42
-12.04
-14.68
-17.18
-19.49
-21.61
-23.65
-25.66
-27.67
-29.65
-31.48
-32.93
-33.72
-33.54
-32.12
-29.30
-25.12
-19.79
-13.70
-7.25
-0.87
5.10
10.43
14.99
18.72
21.60
23.65
24.91
25.51
25.62
25.44
25.16
24.85
24.48
23.95
23.14
22.01
20.59
18.95
17.12
15.09
12.78
10.19
7.41
4.65
2.10
-0.07
-1.86
-3.38
-4.83
-6.37
-8.05
-9.82
-11.62
-13.39
-15.11
-16.82
-18.58
-20.38
-22.18
-23.87
-25.32
-26.35
-26.81
-26.51
-25.30
-23.13
-19.98
-15.95
-11.21
-5.99
-0.59
4.67
9.41
13.31
16.17
18.01
18.97
19.34
19.33
19.09
18.61
17.88
16.90
15.75
14.59
13.51
12.49
11.42
10.10
8.40
6.30
3.97
1.60
-0.61
-2.59
-4.37
-6.11
-7.95
-9.98
-12.19
-14.51
-16.82
-19.03
-21.08
-22.94
-24.64
-26.22
-27.70
-29.09
-30.36
-31.46
-32.27
-32.62
-32.28
-30.95
-28.36
-24.25
-18.63
-11.70
-3.98
3.81
10.93
16.78
21.14
24.10
26.10
27.61
28.99
30.35
31.57
32.38
32.61
32.22
31.31
30.04
28.57
27.02
25.46
24.02
22.83
22.03
21.63
21.46
21.27
20.76
19.81
18.45
16.88
15.29
13.77
12.22
10.44
8.28
5.76
3.08
0.57
-1.55
-3.20
-4.58
-6.00
-7.76
-9.95
-12.45
-15.01
-17.35
-19.42
-21.29
-23.14
-25.13
-27.29
-29.54
-31.73
-33.69
-35.27
-36.23
-36.28
-35.11
-32.51
-28.48
-23.31
-17.45
-11.39
-5.53
-0.09
4.88
9.39
13.43
16.99
20.00
22.38
24.03
24.90
24.99
24.42
23.38
22.09
20.81
19.63
18.55
17.43
16.10
14.33
11.97
8.99
5.48
1.61
-2.39
-6.26
-9.82
-12.86
-15.22
-16.72
-17.29
-16.96
-16.01
-14.92
-14.22
-14.48
-16.00
-18.78
-22.50
-26.58
-30.40
-33.39
-35.17
-35.62
-34.70
-32.53
-29.26
-25.09
-20.23
-14.97
-9.60
-4.37
0.48
4.86
8.76
12.19
15.18
17.75
19.85
21.44
22.55
23.22
23.56
23.73
23.88
24.07
24.32
24.47
24.36
23.80
22.67
21.01
18.93
16.66
14.44
12.42
10.63
9.05
7.52
5.90
4.09
2.11
0.02
-2.07
-4.08
-6.05
-8.01
-10.00
-12.05
-14.07
-16.01
-17.82
-19.52
-21.16
-22.83
-24.58
-26.45
-28.40
-30.34
-32.08
-33.34
-33.75
-32.93
-30.60
-26.67
-21.27
-14.75
-7.58
-0.25
6.84
13.39
19.24
24.28
28.44
31.62
33.74
34.88
35.15
34.82
34.18
33.39
32.51
31.50
30.27
28.80
27.18
25.52
23.91
22.43
21.03
19.64
18.17
16.52
14.69
12.72
10.68
8.68
6.78
4.99
3.24
1.41
-0.56
-2.72
-5.03
-7.43
-9.83
-12.21
-14.57
-16.97
-19.44
-21.95
-24.31
-26.21
-27.28
-27.19
-25.83
-23.26
-19.74
-15.54
-10.90
-5.98
-0.96
3.92
8.34
11.98
14.64
16.28
17.01
17.02
16.51
15.68
14.69
13.75
13.00
12.51
12.27
12.16
12.04
11.83
11.51
11.07
10.53
9.83
8.93
7.74
6.19
4.28
2.03
-0.43
-2.97
-5.44
-7.74
-9.84
-11.77
-13.57
-15.33
-17.10
-18.96
-20.93
-22.98
-25.14
-27.31
-29.38
-31.16
-32.42
-32.92
-32.38
-30.65
-27.62
-23.41
-18.22
-12.42
-6.37
-0.42
5.18
10.23
14.58
18.12
20.77
22.50
23.34
23.35
22.69
21.54
20.16
18.80
17.65
16.75
15.98
15.14
13.96
12.34
10.29
7.97
5.59
3.36
1.32
-0.55
-2.36
-4.20
-6.08
-7.98
-9.89
-11.85
-13.95
-16.27
-18.82
-21.44
-23.92
-26.03
-27.70
-29.02
-30.20
-31.46
-32.76
-33.87
-34.35
-33.77
-31.79
-28.36
-23.66
-18.03
-11.85
-5.47
0.82
6.84
12.40
17.38
21.66
25.13
27.77
29.57
30.66
31.22
31.44
31.44
31.23
30.71
29.73
28.28
26.42
24.41
22.55
21.08
20.07
19.38
18.79
18.06
17.08
15.82
14.34
12.70
10.93
9.06
7.14
5.31
3.68
2.35
1.30
0.37
-0.65
-1.96
-3.66
-5.72
-8.03
-10.47
-12.99
-15.54
-18.10
-20.62
-22.99
-25.05
-26.73
-28.00
-29.01
-29.97
-31.07
-32.31
-33.46
-34.09
-33.66
-31.81
-28.35
-23.43
-17.37
-10.62
-3.65
3.14
9.46
15.09
19.90
23.84
26.96
29.36
31.16
32.44
33.21
33.40
32.92
31.74
29.97
27.86
25.73
23.86
22.35
21.13
20.03
18.86
17.51
15.98
14.24
12.31
10.19
7.94
5.60
3.29
1.10
-0.91
-2.72
-4.41
-6.11
-7.94
-10.02
-12.42
-15.09
-17.88
-20.59
-23.10
-25.34
-27.34
-29.06
-30.34
-30.88
-30.38
-28.60
-25.55
-21.42
-16.49
-11.02
-5.21
0.80
6.85
12.67
17.89
22.14
25.14
26.84
27.32
26.86
25.72
24.20
22.53
20.94
19.64
18.77
18.40
18.35
18.31
17.90
16.85
15.08
12.75
10.16
7.60
5.26
3.16
1.27
-0.49
-2.17
-3.89
-5.67
-7.55
-9.51
-11.46
-13.35
-15.11
-16.77
-18.32
-19.75
-20.94
-21.80
-22.32
-22.56
-22.61
-22.44
-21.76
-20.08
-16.88
-11.87
-5.28
2.08
8.94
13.98
16.23
15.51
12.46
8.30
4.33
1.42
-0.30
-1.39
-2.78
-5.34
-9.56
-15.30
-21.77
-27.53
-30.74
-29.78
-23.87
-13.76
-1.69
9.23
16.30
18.20
15.80
11.79
9.48
11.49
18.78
30.26
43.21
54.19
60.10
59.33
52.40
41.92
31.77
25.40
24.35
27.50
31.76
33.77
31.73
26.14
19.17
13.20
9.31
6.89
4.37
0.42
-5.30
-12.38
-20.45
-29.81
-41.14
-54.81
-69.86
-83.86
-94.01
-98.52
-97.40
-92.31
-85.50
-78.74
-72.78
-67.39
-61.67
-54.37
-44.08
-29.60
-10.45
12.46
36.63
58.42
74.26
82.07
81.88
75.50
65.47
53.77
41.25
27.92
13.71
-1.04
-15.37
-28.16
-38.66
-46.81
-53.14
-58.32
-62.57
-65.43
-65.84
-62.67
-55.41
-44.59
-31.75
-19.02
-8.41
-1.35
1.59
0.59
-3.65
-10.14
-17.84
-25.69
-32.54
-37.15
-38.30
-35.13
-27.42
-15.86
-1.91
12.50
25.49
35.63
42.19
45.15
45.03
42.66
38.99
34.95
31.08
27.41
23.50
18.79
13.16
7.17
1.92
-1.34
-1.65
1.05
5.78
10.90
14.83
16.84
17.33
17.62
19.40
24.05
31.74
41.13
49.89
56.03
58.88
59.34
59.14
59.85
62.54
67.25
73.19
79.00
83.12
83.72
78.53
65.25
41.23
7.58
-29.91
-62.77
-84.35
-92.81
-90.67
-82.17
-70.96
-59.08
-46.99
-34.81
-23.27
-13.62
-6.88
-3.16
-1.58
-0.63
1.12
4.84
10.87
18.49
26.42
33.41
38.70
42.12
43.96
44.74
45.02
45.36
45.64
45.40
44.07
41.37
37.38
32.56
27.47
22.69
18.80
15.99
14.66
15.40
18.68
24.67
32.89
42.30
51.62
59.83
66.12
70.68
74.45
78.39
83.04
88.22
92.91
95.40
96.25
95.26
92.49
88.45
83.52
78.11
72.54
67.17
61.99
56.20
47.73
34.60
16.33
-5.55
-27.19
-43.82
-51.94
-50.87
-42.73
-31.04
-18.98
-8.30
-1.16
0.59
-3.77
-12.83
-22.81
-28.72
-26.03
-13.66
5.67
23.39
31.00
24.54
6.40
-16.91
-39.02
-55.75
-68.12
-79.51
-98.00
-129.51
-174.65
-228.63
-284.48
-336.43
-378.94
-409.21
-424.11
-427.12
-424.13
-421.36
-423.70
-434.61
-456.24
-486.20
-521.58
-519.64
-451.45
-317.28
-148.08
18.49
159.69
259.55
332.29
387.03
427.12
447.28
441.62
410.29
359.49
300.74
245.31
202.76
174.57
158.18
145.69
129.68
107.95
84.39
64.96
54.05
53.84
61.00
66.06
64.75
54.43
36.26
15.46
-2.38
-13.37
-16.28
-14.43
-12.38
-14.95
-26.74
-50.77
-81.56
-115.96
-150.83
-181.89
-204.44
-213.30
-204.39
-177.49
-135.90
-84.91
-30.63
23.18
75.29
124.86
169.55
204.59
223.04
219.12
191.57
143.95
84.25
21.25
-39.14
-95.62
-150.62
-207.55
-267.26
-326.19
-377.74
-414.43
-431.32
-427.98
-408.24
-378.01
-342.81
-305.93
-268.31
-230.12
-192.06
-156.18
-125.22
-101.15
-83.75
-70.33
-56.81
-39.57
-17.17
9.24
36.65
61.79
82.79
99.89
115.13
131.13
149.90
172.31
198.46
227.59
258.03
286.39
307.55
316.00
308.15
284.81
251.67
217.27
189.18
170.55
159.47
151.35
142.67
133.43
126.82
126.11
131.42
138.85
142.48
138.01
125.45
109.00
94.34
85.40
82.26
81.35
77.74
67.88
51.19
29.94
8.12
-10.64
-24.39
-33.39
-39.79
-46.23
-54.44
-64.05
-72.47
-75.80
-70.53
-55.17
-31.13
-2.13
27.14
52.74
72.67
87.16
98.07
107.75
117.90
128.60
138.36
144.69
145.10
138.41
125.30
108.12
89.96
73.38
59.54
48.12
38.10
28.56
19.26
10.56
2.97
-3.35
-8.64
-13.30
-17.65
-21.78
-25.74
-29.73
-34.15
-39.42
-45.62
-52.19
-57.95
-61.33
-61.01
-56.62
-49.26
-41.37
-35.86
-34.73
-38.08
-43.70
-48.01
-47.54
-40.44
-27.18
-10.20
7.17
22.02
32.78
39.42
43.21
46.12
50.21
56.93
66.40
77.12
86.32
91.07
89.74
82.94
73.38
64.74
59.80
59.18
61.20
62.94
61.68
56.07
46.05
32.22
15.12
-4.77
-26.53
-48.15
-66.70
-79.56
-85.59
-85.93
-83.60
-82.04
-83.45
-87.89
-93.52
-97.78
-98.77
-95.97
-90.25
-83.24
-76.50
-70.97
-66.92
-64.26
-62.98
-63.41
-65.97
-70.79
-77.39
-84.40
-89.96
-92.29
-90.30
-84.01
-74.46
-63.02
-50.62
-37.24
-21.91
-3.68
17.38
39.75
60.80
77.96
89.99
97.54
102.54
107.00
111.64
115.71
117.43
115.15
108.02
96.35
81.40
65.19
50.24
39.06
33.44
33.79
38.76
45.66
51.45
53.76
51.49
44.82
34.54
21.72
7.56
-6.46
-18.66
-27.57
-32.76
-35.25
-37.27
-41.21
-48.42
-58.42
-69.06
-77.38
-80.89
-78.59
-71.32
-61.20
-50.70
-41.56
-34.24
-28.08
-21.86
-14.56
-5.85
3.91
14.06
23.90
33.05
41.50
49.35
56.56
62.69
66.83
67.94
65.38
59.37
51.17
42.71
35.93
32.04
31.15
32.37
34.35
35.75
35.58
33.33
28.95
22.71
15.32
7.78
1.09
-4.17
-8.08
-11.33
-14.80
-18.96
-23.70
-28.32
-32.11
-34.79
-36.73
-38.65
-41.22
-44.72
-48.97
-53.55
-57.88
-61.42
-63.50
-63.29
-59.88
-52.58
-41.28
-26.65
-10.11
6.62
21.92
34.61
44.05
50.08
52.83
52.76
50.64
47.48
44.39
42.17
40.87
39.62
36.77
30.62
20.19
5.95
-10.14
-25.23
-36.51
-42.22
-41.99
-36.84
-28.57
-19.28
-10.92
-5.10
-2.85
-4.40
-8.98
-15.00
-20.73
-25.27
-29.53
-36.33
-49.49
-71.83
-103.32
-140.07
-174.94
-199.72
-207.73
-195.93
-165.53
-121.08
-68.77
-14.87
35.18
77.01
107.32
124.03
126.88
117.83
100.98
81.48
64.19
52.09
45.82
44.18
45.18
47.17
49.24
50.82
51.04
48.86
43.70
36.38
29.25
25.26
26.29
31.76
38.62
42.72
41.00
32.95
20.76
7.93
-2.51
-9.27
-12.97
-15.41
-18.45
-23.25
-30.01
-38.07
-46.36
-53.92
-60.19
-65.29
-69.80
-74.28
-78.72
-82.38
-84.01
-82.54
-77.85
-70.87
-63.18
-56.10
-49.98
-44.13
-37.37
-29.03
-19.47
-10.31
-3.63
-1.16
-3.43
-9.59
-17.94
-26.45
-33.32
-37.33
-38.60
-38.55
-39.32
-42.65
-48.15
-52.64
-51.03
-38.32
-11.75
27.51
74.68
123.40
168.38
207.03
239.22
265.26
284.00
292.88
288.04
266.01
225.56
168.79
101.04
29.61
-37.65
-93.64
-131.49
-147.33
-141.87
-120.24
-89.60
-56.01
-22.70
9.89
42.49
76.77
111.01
139.82
156.04
155.09
138.09
111.40
84.06
64.81
63.45
86.07
132.77
196.89
266.77
329.52
374.10
394.13
370.54
299.00
193.81
82.60
-9.98
-73.86
-111.10
-128.39
-131.56
-124.81
-108.43
-84.01
-56.07
-30.56
-13.92
-8.75
-13.54
-24.20
-36.95
-46.73
-50.57
-48.38
-42.29
-36.90
-35.18
-38.03
-41.26
-42.36
-39.02
-31.09
-20.76
-11.77
-11.26
-24.37
-52.64
-93.76
-143.51
-195.99
-245.71
-288.63
-322.58
-351.43
-379.32
-408.86
-440.23
-472.90
-506.94
-543.81
-585.37
-605.65
-586.03
-519.64
-415.35
-291.14
-165.41
-52.70
37.63
102.20
143.67
164.56
169.16
162.15
147.89
129.94
110.90
93.00
78.46
69.33
63.13
56.64
47.57
35.09
21.14
8.29
-1.10
-5.41
-3.68
1.75
7.83
12.07
13.37
11.96
8.50
3.74
-1.64
-6.66
-11.63
-16.87
-22.30
-27.25
-30.62
-31.33
-28.19
-23.16
-16.61
-8.75
0.58
11.76
25.03
40.23
56.55
72.93
88.46
103.38
118.57
135.19
154.27
176.43
201.85
230.22
260.60
290.97
318.35
338.50
347.06
340.90
319.39
284.63
240.56
191.40
140.42
89.83
41.27
-3.34
-41.68
-71.70
-92.85
-106.92
-117.95
-130.98
-150.04
-176.42
-207.79
-238.61
-261.92
-271.74
-264.99
-242.38
-207.49
-165.06
-119.00
-71.29
-22.08
29.24
82.59
136.17
186.60
229.89
262.90
284.48
295.86
300.05
300.32
298.52
294.10
284.47
266.58
238.91
202.77
162.23
122.64
88.76
63.27
46.48
36.77
31.34
26.93
20.23
8.56
-9.37
-32.65
-58.29
-81.92
-99.47
-108.82
-110.59
-107.58
-103.16
-99.72
-98.09
-98.07
-99.41
-102.43
-107.85
-115.81
-125.21
-133.73
-138.81
-138.82
-133.77
-125.12
-114.87
-104.58
-94.89
-85.80
-77.04
-68.39
-59.70
-50.65
-40.68
-29.39
-17.01
-4.61
6.03
13.29
16.34
15.63
12.54
8.56
4.56
0.61
-3.53
-7.80
-11.40
-13.24
-12.74
-10.48
-8.06
-7.20
-8.55
-11.23
-13.38
-13.35
-10.87
-7.22
-4.44
-4.10
-6.48
-10.61
-15.19
-19.42
-23.38
-27.68
-32.71
-38.04
-42.48
-44.63
-43.64
-39.70
-33.96
-27.89
-22.69
-18.76
-15.79
-13.01
-9.75
-5.59
-0.57
4.92
10.31
14.97
18.45
20.58
21.63
22.19
22.95
24.18
25.39
25.37
22.66
16.41
7.04
-3.73
-13.51
-20.12
-22.24
-19.52
-12.31
-1.43
11.76
25.21
36.34
42.85
43.81
40.30
34.97
30.63
28.69
28.48
27.95
25.16
19.67
12.64
5.97
0.97
-2.33
-4.85
-7.51
-10.51
-13.30
-15.18
-15.93
-16.02
-16.14
-16.67
-17.39
-17.60
-16.45
-13.33
-7.97
-0.43
9.00
19.83
31.41
42.94
53.58
62.44
68.72
71.73
71.13
67.18
60.82
53.43
46.44
40.66
36.08
31.96
27.32
21.56
14.82
7.91
1.86
-2.56
-5.18
-6.42
-7.09
-8.01
-9.72
-12.45
-16.14
-20.52
-25.23
-29.85
-33.97
-37.42
-40.26
-42.80
-45.27
-47.55
-49.10
-49.11
-47.25
-43.88
-40.20
-37.47
-36.28
-36.11
-35.48
-32.77
-27.04
-18.48
-8.11
2.72
12.99
22.16
30.02
36.45
41.24
44.27
45.55
45.50
44.69
43.66
42.61
41.28
39.35
36.67
33.62
31.00
29.53
29.33
29.57
28.89
26.11
21.09
14.84
9.01
4.95
2.98
2.40
2.10
1.31
-0.11
-1.95
-4.05
-6.72
-10.41
-15.39
-21.37
-27.72
-33.85
-39.61
-45.10
-50.15
-53.93
-54.98
-52.00
-44.76
-34.41
-23.12
-12.92
-4.80
1.59
7.34
13.46
20.10
26.57
31.86
35.20
36.45
35.90
34.06
31.45
28.60
25.95
23.82
22.23
20.71
18.66
15.63
11.87
8.22
5.70
4.83
5.17
5.58
4.87
2.58
-0.70
-3.78
-5.63
-6.07
-5.79
-5.89
-7.12
-9.45
-12.29
-14.94
-17.08
-18.90
-20.86
-23.29
-26.16
-29.21
-32.26
-35.34
-38.80
-42.99
-48.12
-54.08
-60.35
-66.08
-70.15
-71.40
-68.92
-62.37
-52.32
-40.04
-27.22
-15.21
-4.69
4.46
12.82
20.79
28.30
34.72
39.23
41.38
41.37
39.95
38.11
36.58
35.62
35.03
34.41
33.42
31.93
30.05
27.93
25.78
23.62
21.39
19.01
16.40
13.59
10.69
7.85
5.22
2.89
0.84
-1.01
-2.79
-4.63
-6.56
-8.58
-10.68
-12.91
-15.51
-18.76
-22.92
-27.95
-33.47
-38.81
-43.29
-46.49
-48.44
-49.45
-49.89
-49.85
-49.13
-47.38
-44.30
-39.85
-34.14
-27.29
-19.32
-10.18
0.03
11.01
22.01
32.06
40.19
45.78
48.75
49.66
49.52
49.44
50.21
52.03
54.49
56.80
58.27
58.59
57.80
56.15
53.63
50.02
45.03
38.72
31.75
25.18
20.01
16.69
14.93
14.02
13.38
12.92
12.97
13.93
15.72
17.82
19.42
19.96
19.38
18.01
16.23
14.15
11.64
8.47
4.51
-0.23
-5.69
-11.83
-18.53
-25.44
-32.03
-37.62
-41.71
-44.09
-44.82
-43.99
-41.53
-37.26
-31.09
-23.36
-14.88
-6.57
0.79
6.95
12.06
16.42
20.15
23.21
25.39
26.59
26.90
26.54
25.71
24.46
22.81
20.80
18.62
16.58
14.95
13.89
13.28
12.83
12.17
10.95
8.97
6.18
2.65
-1.38
-5.61
-9.73
-13.38
-16.37
-18.64
-20.30
-21.55
-22.61
-23.72
-25.11
-27.03
-29.62
-32.81
-36.23
-39.21
-41.03
-41.16
-39.44
-36.03
-31.34
-25.71
-19.45
-12.75
-5.89
0.76
6.80
11.85
15.67
18.13
19.24
19.13
18.09
16.50
14.69
12.80
10.77
8.44
5.74
2.81
-0.17
-3.08
-5.95
-8.93
-12.05
-15.23
-18.46
-22.03
-26.57
-32.72
-40.57
-49.32
-57.54
-63.82
-67.55
-69.27
-70.18
-71.38
-73.13
-74.88
-75.78
-75.35
-73.87
-72.00
-70.19
-68.11
-64.73
-58.92
-50.19
-39.17
-27.35
-16.39
-7.32
-0.16
5.92
12.01
18.76
26.24
34.11
41.96
49.70
57.39
64.93
71.73
76.75
78.96
77.95
74.26
69.12
63.93
59.60
56.27
53.55
50.96
48.36
45.98
44.13
42.88
41.88
40.48
38.18
34.97
31.44
28.39
26.39
25.34
24.41
22.59
19.20
14.44
9.31
4.99
2.16
0.57
-0.87
-3.32
-7.24
-12.15
-16.93
-20.62
-23.05
-24.98
-27.56
-31.51
-36.71
-42.23
-46.88
-49.91
-51.22
-51.18
-50.19
-48.31
-45.18
-40.34
-33.55
-25.03
-15.46
-5.71
3.40
11.32
17.91
23.31
27.77
31.42
34.21
35.87
36.18
35.12
33.12
30.83
28.85
27.46
26.53
25.62
24.40
22.86
21.34
20.31
19.94
19.99
19.81
18.77
16.60
13.53
10.20
7.25
5.02
3.48
2.35
1.37
0.54
-0.02
-0.28
-0.52
-1.32
-3.26
-6.58
-10.98
-15.81
-20.39
-24.42
-27.97
-31.34
-34.71
-37.91
-40.60
-42.51
-43.70
-44.50
-45.18
-45.53
-44.76
-41.82
-35.92
-27.14
-16.50
-5.64
3.90
11.25
16.55
20.61
24.46
28.79
33.68
38.58
42.64
45.00
45.18
43.19
39.56
35.13
30.78
27.13
24.36
22.20
20.09
17.38
13.64
8.77
3.11
-2.79
-8.25
-12.85
-16.56
-19.88
-23.66
-28.71
-35.66
-44.69
-55.48
-67.22
-78.61
-88.25
-94.94
-98.24
-98.70
-97.78
-97.32
-98.76
-102.54
-108.06
-114.17
-120.00
-125.39
-130.69
-136.18
-141.22
-143.85
-141.14
-130.03
-108.82
-78.07
-40.84
-1.75
34.84
66.67
94.48
120.86
148.31
176.87
203.12
221.30
225.66
212.91
183.47
140.90
90.45
38.10
-9.84
-47.06
-68.40
-71.66
-58.97
-36.40
-11.51
9.88
26.03
39.16
52.96
69.54
87.85
104.43
115.47
118.99
115.48
107.20
96.66
85.48
74.46
63.87
53.95
44.94
36.83
29.31
21.78
13.43
3.74
-7.18
-18.45
-28.53
-35.61
-38.30
-36.06
-29.46
-20.01
-9.56
0.22
8.15
13.66
16.76
17.90
17.85
17.53
17.66
18.59
20.12
21.65
22.47
22.14
20.67
18.50
16.20
14.19
12.54
11.08
9.54
7.70
5.57
3.28
1.06
-0.83
-2.29
-3.35
-4.30
-5.60
-7.90
-11.77
-17.58
-25.16
-33.72
-41.84
-47.79
-49.96
-47.41
-40.28
-29.86
-18.38
-8.37
-1.89
-0.04
-2.70
-8.67
-16.17
-23.37
-28.72
-31.24
-30.56
-26.79
-20.61
-13.15
-5.84
0.07
4.02
6.43
8.48
11.33
15.34
19.66
22.54
22.30
18.24
11.23
3.39
-2.72
-5.22
-3.44
1.95
9.46
17.35
24.16
28.99
31.49
31.81
30.52
28.25
25.53
22.66
19.66
16.32
12.41
7.69
2.03
-4.51
-11.77
-19.39
-26.86
-33.59
-38.93
-42.28
-43.29
-41.97
-38.86
-34.79
-30.73
-27.45
-25.30
-24.20
-23.87
-24.09
-24.97
-26.90
-30.29
-35.08
-40.49
-45.09
-47.29
-45.99
-41.00
-33.09
-23.60
-13.80
-4.37
4.67
13.65
22.64
31.07
37.77
41.53
41.69
38.63
33.68
28.59
24.79
22.73
21.81
20.75
18.30
13.79
7.42
0.02
-7.37
-14.00
-19.44
-23.61
-26.49
-28.02
-28.16
-26.97
-24.77
-21.92
-18.34
-13.16
-4.89
7.93
25.76
47.34
69.75
89.21
102.42
107.87
106.26
100.16
92.90
87.45
85.64
88.00
93.94
101.91
109.58
114.06
112.19
101.35
80.46
50.57
15.02
-21.22
-52.88
-76.01
-89.25
-94.01
-93.63
-91.74
-90.70
-90.75
-90.23
-86.76
-78.71
-66.19
-51.03
-35.81
-22.86
-13.38
-7.43
-4.37
-3.29
-3.24
-3.22
-2.35
-0.40
1.46
0.76
-5.11
-16.93
-32.18
-45.07
-48.96
-39.85
-19.02
6.59
27.43
35.60
28.44
9.33
-14.25
-34.45
-45.94
-46.84
-37.78
-20.07
5.23
37.08
73.48
110.43
142.12
162.04
164.95
148.48
113.88
65.38
8.62
-51.22
-110.84
-168.99
-225.37
-278.81
-325.91
-361.08
-378.09
-372.67
-344.32
-297.02
-237.91
-174.83
-113.75
-57.42
-5.30
44.65
93.56
140.14
180.36
209.25
223.53
223.33
211.80
192.99
169.16
140.05
104.77
65.00
27.28
2.16
0.20
26.81
78.75
144.41
207.81
254.40
275.77
271.31
246.73
210.42
169.89
129.69
91.33
54.86
20.79
-9.05
-32.03
-46.38
-52.92
-54.99
-56.94
-61.83
-69.80
-78.35
-84.24
-85.57
-83.02
-79.38
-77.87
-80.33
-86.18
-92.77
-96.56
-94.80
-86.78
-74.06
-59.74
-46.93
-37.47
-31.42
-27.54
-24.30
-20.85
-17.34
-14.45
-12.64
-11.76
-11.09
-10.03
-8.62
-7.64
-8.09
-10.45
-14.30
-18.41
-21.40
-22.37
-21.25
-18.73
-15.92
-13.74
-12.56
-11.98
-11.14
-9.16
-5.61
-0.76
4.55
9.41
13.26
16.10
18.51
21.17
24.62
29.02
34.05
39.02
42.98
44.90
44.11
40.50
34.72
27.97
21.49
16.22
12.73
11.37
12.26
15.00
18.22
19.73
17.33
10.01
-1.22
-13.77
-24.89
-33.06
-38.41
-41.93
-44.39
-45.84
-46.05
-45.34
-44.93
-46.12
-49.00
-51.80
-51.61
-46.32
-36.40
-25.13
-17.03
-15.61
-21.59
-32.69
-45.09
-55.14
-60.73
-61.53
-58.41
-52.61
-45.07
-36.11
-25.55
-13.31
0.23
14.07
26.81
37.25
44.89
49.97
53.14
55.09
56.13
56.23
55.27
53.24
50.34
46.89
43.20
39.48
35.89
32.66
30.14
28.61
28.03
27.88
27.40
25.90
23.21
19.73
16.14
13.06
10.62
8.44
5.89
2.47
-1.85
-6.53
-10.83
-14.26
-16.88
-19.39
-22.70
-27.36
-33.07
-38.66
-42.62
-43.83
-41.94
-37.17
-30.00
-20.91
-10.61
-0.38
7.94
12.50
12.44
8.68
3.73
0.64
1.49
6.52
14.20
22.24
28.68
32.54
33.72
32.66
29.98
26.45
22.88
19.95
17.99
16.80
15.86
14.61
12.76
10.37
7.66
4.80
1.74
-1.71
-5.71
-10.28
-15.28
-20.54
-25.84
-30.99
-35.80
-40.11
-43.86
-47.06
-49.83
-52.16
-53.90
-54.79
-54.51
-52.86
-49.83
-45.61
-40.51
-34.82
-28.62
-21.87
-14.38
-6.01
3.13
12.52
21.30
28.42
33.12
35.17
35.06
33.83
32.60
32.15
32.55
33.27
33.44
32.34
29.64
25.53
20.63
15.79
11.82
9.24
8.10
7.96
8.07
7.74
6.50
4.29
1.30
-2.25
-6.25
-10.68
-15.56
-20.79
-26.10
-31.22
-35.99
-40.44
-44.83
-49.38
-54.09
-58.63
-62.25
-63.91
-62.60
-57.72
-49.37
-38.42
-26.16
-13.85
-2.34
8.06
17.38
25.67
32.85
38.74
43.27
46.57
49.01
50.95
52.44
53.25
52.90
51.11
47.97
44.02
40.09
36.95
35.03
34.32
34.44
34.78
34.82
34.21
32.79
30.62
27.87
24.88
22.07
19.88
18.62
18.35
18.81
19.50
19.85
19.42
17.95
15.35
11.70
7.30
2.70
-1.38
-4.30
-5.79
-6.18
-6.29
-7.24
-9.89
-14.53
-20.89
-28.17
-35.49
-42.04
-47.28
-50.81
-52.30
-51.38
-47.75
-41.30
-32.27
-21.36
-9.64
1.70
11.71
19.91
26.32
31.28
35.14
38.04
39.94
40.68
40.20
38.57
36.01
32.71
28.85
24.65
20.53
17.01
14.66
13.69
13.79
14.12
13.64
11.53
7.64
2.52
-2.92
-7.81
-11.77
-14.93
-17.72
-20.52
-23.47
-26.49
-29.51
-32.65
-36.09
-39.95
-43.96
-47.51
-49.82
-50.23
-48.46
-44.70
-39.36
-32.88
-25.58
-17.63
-9.22
-0.69
7.50
14.86
21.02
25.83
29.35
31.67
32.93
33.17
32.36
30.56
27.96
24.94
21.96
19.45
17.58
16.24
15.20
14.10
12.70
10.85
8.57
6.00
3.26
0.46
-2.39
-5.38
-8.66
-12.39
-16.58
-21.08
-25.56
-29.76
-33.60
-37.29
-41.24
-45.79
-50.87
-56.02
-60.44
-63.37
-64.35
-63.22
-60.05
-54.86
-47.57
-38.09
-26.66
-13.92
-0.91
11.22
21.67
30.16
36.96
42.52
47.17
50.92
53.50
54.58
54.03
52.05
49.00
45.40
41.63
37.97
34.61
31.70
29.30
27.36
25.64
23.75
21.34
18.17
14.19
9.60
4.64
-0.46
-5.50
-10.34
-14.90
-19.20
-23.39
-27.77
-32.66
-38.14
-44.01
-49.77
-54.90
-59.12
-62.37
-64.80
-66.45
-67.09
-66.27
-63.42
-58.11
-50.17
-39.71
-27.11
-12.97
1.87
16.41
29.63
40.71
49.21
55.11
58.76
60.70
61.46
61.46
60.96
60.16
59.19
58.13
57.02
55.75
54.11
51.80
48.54
44.30
39.40
34.50
30.44
27.77
26.53
26.03
25.18
22.85
18.50
12.42
5.70
-0.19
-4.15
-5.84
-5.80
-5.21
-5.24
-6.64
-9.47
-13.30
-17.53
-21.81
-26.13
-30.68
-35.71
-41.20
-46.90
-52.36
-57.14
-60.90
-63.53
-65.12
-65.95
-66.46
-67.07
-67.96
-68.92
-69.34
-68.33
-65.08
-59.12
-50.50
-39.79
-27.87
-15.67
-3.98
6.67
16.07
24.27
31.53
38.14
44.19
49.42
53.24
55.05
54.61
52.45
49.81
48.25
49.05
52.55
57.96
63.63
67.62
68.48
65.77
60.11
52.98
46.07
40.67
37.22
35.14
33.21
30.22
25.50
19.26
12.34
5.72
0.01
-4.69
-8.70
-12.45
-16.17
-19.87
-23.45
-26.82
-30.01
-33.17
-36.50
-40.18
-44.30
-48.73
-52.95
-56.22
-57.68
-56.72
-53.20
-47.44
-40.06
-31.66
-22.61
-13.12
-3.38
6.32
15.50
23.59
30.17
35.08
38.40
40.35
41.14
40.85
39.57
37.48
34.93
32.42
30.37
28.97
28.09
27.41
26.63
25.66
24.53
23.36
22.10
20.56
18.48
15.72
12.35
8.65
4.92
1.30
-2.29
-6.04
-10.18
-14.67
-19.29
-23.75
-27.75
-31.13
-33.82
-35.85
-37.41
-38.86
-40.72
-43.36
-46.69
-49.71
-50.71
-47.77
-39.75
-27.02
-11.60
3.53
15.60
23.09
26.12
26.03
24.44
22.53
20.73
18.90
16.89
14.81
13.05
12.10
12.16
13.00
14.06
14.62
14.10
12.22
9.21
5.65
2.35
-0.06
-1.38
-2.05
-2.97
-5.08
-8.82
-13.87
-19.25
-23.85
-26.97
-28.68
-29.73
-31.00
-33.06
-35.90
-39.04
-41.87
-43.98
-45.22
-45.53
-44.83
-42.87
-39.33
-33.97
-26.73
-17.82
-7.67
3.11
13.76
23.43
31.40
37.24
40.97
43.00
43.92
44.21
44.00
43.18
41.55
39.09
36.04
32.82
29.78
27.01
24.31
21.39
18.06
14.36
10.56
6.95
3.59
0.29
-3.29
-7.40
-12.01
-16.75
-21.11
-24.71
-27.47
-29.58
-31.37
-33.09
-34.79
-36.45
-38.11
-40.01
-42.39
-45.38
-48.74
-51.81
-53.71
-53.60
-50.93
-45.63
-38.10
-29.02
-19.19
-9.29
0.23
9.14
17.26
24.47
30.61
35.52
39.16
41.71
43.63
45.48
47.73
50.42
53.18
55.35
56.23
55.44
52.98
49.11
44.25
38.78
33.14
27.85
23.58
20.96
20.33
21.43
23.31
24.64
24.18
21.34
16.39
10.25
4.01
-1.52
-6.06
-9.86
-13.31
-16.68
-19.98
-23.06
-25.80
-28.26
-30.67
-33.29
-36.25
-39.48
-42.81
-46.15
-49.59
-53.30
-57.36
-61.58
-65.35
-67.81
-68.00
-65.21
-59.21
-50.40
-39.59
-27.81
-15.96
-4.64
5.88
15.55
24.38
32.37
39.41
45.33
49.89
52.89
54.26
54.07
52.65
50.42
47.86
45.31
42.93
40.64
38.28
35.74
32.94
29.93
26.77
23.55
20.34
17.20
14.13
11.04
7.75
4.03
-0.30
-5.26
-10.67
-16.17
-21.36
-25.93
-29.74
-32.79
-35.17
-36.97
-38.24
-39.08
-39.59
-39.93
-40.08
-39.75
-38.33
-35.10
-29.66
-22.25
-13.94
-6.22
-0.46
2.73
3.72
3.58
3.58
4.55
6.53
8.99
11.29
13.18
15.14
18.10
22.94
29.88
38.16
46.20
52.30
55.36
55.34
53.15
50.12
47.11
44.20
40.73
35.92
29.53
22.14
14.88
8.78
4.14
0.39
-3.57
-8.73
-15.45
-23.18
-30.94
-37.71
-42.91
-46.52
-48.98
-50.94
-52.96
-55.39
-58.23
-61.10
-63.16
-63.24
-60.09
-52.82
-41.37
-26.68
-10.56
4.83
17.64
26.92
32.84
36.51
39.41
42.66
46.56
50.53
53.46
54.39
53.15
50.34
47.14
44.60
43.09
42.08
40.53
37.41
32.39
26.02
19.41
13.71
9.55
6.83
4.90
3.07
0.99
-1.31
-3.53
-5.58
-7.74
-10.57
-14.58
-19.75
-25.48
-30.80
-34.95
-37.87
-40.24
-43.11
-47.12
-52.04
-56.62
-59.27
-58.82
-55.10
-48.91
-41.50
-33.81
-26.10
-18.10
-9.38
0.09
9.83
18.99
26.78
32.73
36.78
39.22
40.45
40.87
40.82
40.51
39.99
39.19
37.89
35.91
33.16
29.75
26.02
22.41
19.33
16.88
14.70
12.17
8.74
4.44
-0.03
-3.66
-5.78
-6.52
-6.62
-6.67
-6.52
-5.45
-3.07
-0.40
0.08
-4.36
-14.80
-29.28
-43.25
-51.66
-51.70
-44.29
-33.59
-24.73
-21.25
-23.81
-30.56
-38.77
-46.42
-52.86
-58.32
-62.98
-66.22
-66.65
-62.80
-53.93
-40.67
-24.95
-9.26
4.23
14.50
21.86
27.55
33.02
39.08
45.65
51.79
56.33
58.42
57.96
55.52
52.12
48.63
45.57
42.94
40.46
37.89
35.22
32.66
30.49
28.82
27.52
26.26
24.66
22.46
19.56
16.04
12.08
8.00
4.16
0.79
-2.06
-4.66
-7.56
-11.23
-15.84
-21.06
-26.21
-30.65
-34.11
-36.83
-39.37
-42.13
-44.98
-47.23
-47.94
-46.40
-42.47
-36.60
-29.57
-22.07
-14.44
-6.73
1.12
8.98
16.45
22.91
27.82
30.97
32.50
32.84
32.43
31.49
30.07
28.13
25.73
23.24
21.15
19.87
19.42
19.42
19.21
18.20
16.19
13.40
10.31
7.35
4.65
2.00
-0.96
-4.48
-8.49
-12.58
-16.24
-19.10
-21.05
-22.26
-23.15
-24.10
-25.46
-27.39
-29.83
-32.60
-35.34
-37.68
-39.16
-39.33
-37.76
-34.23
-28.72
-21.55
-13.34
-4.88
3.06
9.96
15.67
20.31
24.11
27.18
29.40
30.50
30.33
29.01
26.95
24.72
22.75
21.24
20.12
19.20
18.31
17.35
16.15
14.49
12.18
9.21
5.87
2.65
0.04
-1.83
-3.19
-4.54
-6.25
-8.31
-10.36
-12.00
-13.10
-13.97
-15.21
-17.36
-20.55
-24.47
-28.56
-32.27
-35.24
-37.31
-38.37
-38.25
-36.64
-33.31
-28.22
-21.58
-13.89
-5.74
2.32
9.89
16.74
22.79
27.97
32.18
35.20
36.79
36.82
35.33
32.69
29.51
26.49
24.17
22.76
22.15
21.94
21.66
20.94
19.56
17.48
14.84
11.87
8.80
5.84
3.08
0.44
-2.29
-5.31
-8.74
-12.50
-16.44
-20.39
-24.29
-28.17
-32.02
-35.72
-39.00
-41.64
-43.57
-44.96
-46.09
-47.04
-47.59
-47.19
-45.16
-41.01
-34.67
-26.47
-17.01
-6.99
2.97
12.34
20.72
27.82
33.50
37.77
40.78
42.74
43.79
44.00
43.30
41.65
39.18
36.24
33.42
31.28
30.17
29.97
30.18
30.09
29.18
27.40
25.11
22.92
21.26
20.16
19.27
18.11
16.32
13.91
11.18
8.52
6.10
3.80
1.30
-1.74
-5.39
-9.41
-13.38
-16.91
-19.87
-22.41
-24.81
-27.27
-29.81
-32.30
-34.68
-37.06
-39.73
-43.04
-47.11
-51.63
-55.99
-59.38
-61.11
-60.82
-58.49
-54.33
-48.67
-41.81
-34.02
-25.54
-16.64
-7.60
1.28
9.75
17.62
24.74
30.94
36.00
39.73
42.01
42.91
42.66
41.62
40.15
38.43
36.58
34.58
32.46
30.31
28.26
26.34
24.51
22.60
20.44
17.97
15.26
12.52
9.89
7.48
5.18
2.85
0.26
-2.69
-5.99
-9.44
-12.75
-15.67
-18.12
-20.23
-22.25
-24.43
-26.91
-29.64
-32.43
-35.02
-37.17
-38.62
-39.11
-38.33
-36.00
-31.95
-26.16
-18.78
-10.05
-0.32
9.90
19.87
28.74
35.67
40.10
41.98
41.70
39.98
37.55
34.93
32.33
29.78
27.30
25.05
23.30
22.31
22.12
22.45
22.78
22.56
21.45
19.43
16.78
13.92
11.12
8.51
6.11
3.84
1.68
-0.42
-2.59
-5.11
-8.26
-12.23
-16.88
-21.75
-26.18
-29.56
-31.60
-32.43
-32.56
-32.62
-33.13
-34.27
-35.74
-36.89
-36.96
-35.30
-31.58
-25.89
-18.66
-10.61
-2.56
4.70
10.61
14.95
17.87
19.78
21.05
21.85
22.07
21.55
20.27
18.57
17.05
16.24
16.31
16.96
17.62
17.75
17.18
16.03
14.63
13.13
11.49
9.58
7.35
4.89
2.41
-0.03
-2.56
-5.45
-8.89
-12.76
-16.64
-19.98
-22.42
-23.87
-24.67
-25.31
-26.30
-27.89
-30.08
-32.56
-34.93
-36.69
-37.37
-36.52
-33.73
-28.72
-21.51
-12.53
-2.64
7.06
15.56
22.14
26.59
29.02
29.72
28.92
26.87
23.92
20.59
17.46
14.93
13.07
11.70
10.61
9.79
9.36
9.28
9.16
8.34
6.30
3.17
-0.24
-2.83
-4.00
-4.11
-4.39
-6.20
-10.12
-15.67
-21.68
-27.03
-31.29
-34.64
-37.47
-39.90
-41.75
-42.84
-43.42
-44.13
-45.53
-47.63
-49.54
-49.86
-47.38
-41.85
-34.13
-25.86
-18.63
-13.25
-9.46
-6.27
-2.48
2.60
8.89
15.64
21.86
26.83
30.45
33.06
35.13
36.93
38.34
39.06
38.90
37.95
36.63
35.37
34.42
33.72
32.96
31.77
29.89
27.35
24.40
21.52
19.19
17.69
16.91
16.40
15.46
13.47
10.20
5.88
1.07
-3.67
-8.03
-12.11
-16.19
-20.53
-25.09
-29.49
-33.08
-35.17
-35.25
-33.12
-28.92
-23.04
-15.98
-8.22
-0.15
7.95
15.87
23.30
29.87
35.23
39.12
41.52
42.62
42.71
42.07
40.79
38.84
36.16
32.77
28.87
24.81
20.99
17.80
15.59
14.66
15.22
17.22
20.23
23.40
25.66
26.07
24.08
19.84
14.07
7.80
1.97
-2.86
-6.63
-9.60
-12.18
-14.68
-17.26
-19.82
-22.25
-24.50
-26.71
-29.06
-31.65
-34.23
-36.22
-36.87
-35.58
-32.16
-26.87
-20.35
-13.27
-6.16
0.72
7.24
13.33
18.82
23.44
26.96
29.25
30.32
30.32
29.47
27.99
26.13
24.19
22.50
21.34
20.85
20.84
20.91
20.47
19.05
16.42
12.75
8.46
4.16
0.44
-2.20
-3.49
-3.43
-2.56
-2.00
-3.30
-7.90
-16.50
-28.54
-42.23
-55.08
-64.87
-70.44
-71.91
-70.37
-67.09
-62.86
-57.72
-51.24
-43.05
-33.23
-22.43
-11.61
-1.69
6.64
13.00
17.20
19.22
19.22
17.69
15.41
13.31
12.08
11.92
12.50
13.18
13.47
13.27
12.86
12.51
12.21
11.56
10.16
7.96
5.39
3.06
1.34
0.02
-1.51
-3.76
-6.61
-9.30
-10.97
-11.33
-11.01
-11.23
-12.98
-16.26
-20.00
-22.73
-23.60
-23.02
-22.48
-23.60
-27.05
-31.90
-35.91
-36.66
-32.77
-24.65
-14.33
-4.42
3.13
7.88
10.94
14.14
18.99
25.80
33.57
40.53
45.07
46.49
45.23
42.54
39.79
37.90
37.04
36.81
36.61
36.08
35.17
34.09
33.01
31.93
30.63
28.87
26.55
23.90
21.33
19.18
17.56
16.20
14.70
12.71
10.17
7.29
4.41
1.75
-0.71
-3.14
-5.73
-8.52
-11.44
-14.39
-17.40
-20.59
-24.18
-28.27
-32.79
-37.51
-42.13
-46.36
-49.99
-52.80
-54.49
-54.71
-53.16
-49.68
-44.44
-37.81
-30.27
-22.21
-13.92
-5.53
2.80
10.83
18.22
24.61
29.72
33.41
35.69
36.67
36.57
35.66
34.30
32.87
31.69
30.92
30.49
30.10
29.31
27.75
25.29
22.04
18.38
14.76
11.52
8.77
6.41
4.18
1.86
-0.71
-3.59
-6.81
-10.40
-14.32
-18.44
-22.53
-26.30
-29.61
-32.51
-35.17
-37.65
-39.74
-40.90
-40.37
-37.53
-32.19
-24.68
-15.77
-6.47
2.31
9.92
15.98
20.48
23.60
25.70
27.12
28.07
28.57
28.50
27.78
26.44
24.69
22.77
20.82
18.83
16.71
14.50
12.47
11.00
10.38
10.56
10.99
10.92
9.74
7.31
4.03
0.56
-2.60
-5.38
-8.11
-11.30
-15.20
-19.68
-24.25
-28.42
-31.96
-34.97
-37.82
-40.80
-43.96
-47.00
-49.42
-50.65
-50.20
-47.72
-42.98
-36.02
-27.18
-17.15
-6.86
2.74
11.02
17.75
23.13
27.51
31.18
34.22
36.54
38.04
38.72
38.72
38.25
37.42
36.28
34.83
33.09
31.15
29.14
27.16
25.23
23.26
21.11
18.69
16.02
13.22
10.47
7.96
5.74
3.77
1.89
-0.09
-2.32
-4.93
-7.99
-11.60
-15.83
-20.60
-25.66
-30.56
-34.74
-37.70
-39.24
-39.55
-39.21
-38.95
-39.44
-40.96
-43.41
-46.29
-48.99
-50.92
-51.72
-51.17
-49.22
-45.90
-41.27
-35.52
-28.87
-21.64
-13.97
-5.89
2.64
11.57
20.52
28.87
35.94
41.24
44.71
46.72
47.88
48.84
50.01
51.50
53.16
54.66
55.64
55.80
55.03
53.42
51.17
48.56
45.65
42.44
38.80
34.71
30.31
25.92
21.90
18.48
15.63
13.06
10.38
7.29
3.73
-0.12
-3.97
-7.60
-10.93
-14.02
-17.03
-20.05
-23.12
-26.24
-29.46
-32.88
-36.47
-40.00
-42.94
-44.79
-45.34
-44.83
-43.80
-42.65
-41.23
-38.79
-34.43
-27.56
-18.43
-8.06
2.21
11.30
18.81
24.84
29.70
33.44
35.74
36.15
34.44
30.90
26.40
22.09
19.04
17.78
18.26
19.89
21.80
23.26
23.79
23.31
21.99
20.10
17.84
15.27
12.32
8.88
4.91
0.45
-4.33
-9.21
-13.88
-18.07
-21.65
-24.61
-27.18
-29.73
-32.61
-35.92
-39.37
-42.29
-43.85
-43.34
-40.44
-35.35
-28.64
-21.02
-13.02
-4.98
2.93
10.48
17.31
22.96
27.05
29.44
30.30
30.02
28.99
27.50
25.66
23.54
21.29
19.14
17.36
16.07
15.13
14.14
12.67
10.45
7.55
4.35
1.35
-1.07
-2.92
-4.57
-6.61
-9.53
-13.50
-18.15
-22.79
-26.60
-29.01
-29.90
-29.69
-29.13
-29.05
-30.07
-32.39
-35.81
-39.75
-43.37
-45.65
-45.56
-42.29
-35.59
-26.05
-15.08
-4.61
3.61
8.82
11.46
12.96
14.94
18.25
22.52
26.45
28.61
28.35
26.20
23.47
21.48
20.80
21.03
21.11
20.21
18.19
15.67
13.62
12.69
12.87
13.69
14.62
15.50
16.59
18.17
20.01
21.13
20.14
15.98
8.61
-0.79
-10.26
-18.00
-23.20
-26.29
-28.52
-31.12
-34.62
-38.61
-42.17
-44.37
-44.84
-43.80
-41.79
-39.17
-36.00
-31.99
-26.81
-20.29
-12.58
-4.07
4.70
13.22
21.08
27.94
33.60
37.88
40.66
41.83
41.42
39.63
36.94
34.03
31.66
30.35
30.15
30.51
30.46
29.04
25.68
20.63
14.93
9.99
6.99
6.36
7.64
9.63
11.03
10.93
9.22
6.52
3.73
1.50
-0.14
-1.83
-4.47
-8.60
-14.11
-20.07
-25.18
-28.39
-29.30
-28.38
-26.73
-25.57
-25.74
-27.45
-30.33
-33.73
-37.09
-40.08
-42.58
-44.49
-45.53
-45.25
-43.23
-39.25
-33.48
-26.45
-18.72
-10.67
-2.45
5.99
14.60
23.06
30.85
37.49
42.66
46.34
48.66
49.75
49.71
48.64
46.80
44.59
42.45
40.64
39.12
37.60
35.75
33.36
30.50
27.39
24.29
21.28
18.30
15.18
11.81
8.15
4.31
0.41
-3.40
-6.97
-10.16
-12.94
-15.38
-17.65
-19.98
-22.42
-24.81
-26.86
-28.23
-28.81
-28.76
-28.41
-28.01
-27.59
-26.91
-25.56
-23.23
-19.78
-15.30
-10.01
-4.19
1.79
7.47
12.30
15.78
17.65
18.04
17.36
16.24
15.18
14.37
13.66
12.72
11.32
9.51
7.64
6.15
5.33
5.06
4.94
4.55
3.71
2.70
2.08
2.34
3.65
5.72
7.95
9.65
10.27
9.44
6.95
2.79
-2.71
-8.86
-14.73
-19.46
-22.63
-24.47
-25.70
-27.08
-28.93
-30.87
-32.04
-31.51
-28.71
-23.77
-17.33
-10.36
-3.74
1.93
6.48
10.07
13.01
15.53
17.63
19.07
19.49
18.73
16.94
14.65
12.47
10.89
10.01
9.58
9.14
8.29
6.85
4.97
3.01
1.30
0.02
-0.96
-2.01
-3.56
-5.87
-8.87
-12.15
-15.17
-17.56
-19.34
-20.96
-23.01
-25.83
-29.32
-32.93
-35.94
-37.86
-38.65
-38.62
-38.14
-37.31
-35.80
-33.06
-28.56
-22.13
-14.05
-4.90
4.65
14.02
22.70
30.15
35.76
39.05
39.88
38.65
36.18
33.40
30.95
28.99
27.28
25.51
23.52
21.39
19.20
16.90
14.30
11.16
7.45
3.39
-0.57
-3.98
-6.57
-8.39
-9.69
-10.89
-12.40
-14.54
-17.38
-20.78
-24.31
-27.51
-30.10
-32.05
-33.66
-35.31
-37.22
-39.22
-40.87
-41.63
-41.12
-39.26
-36.14
-31.88
-26.56
-20.20
-12.94
-5.16
2.56
9.64
15.74
20.84
25.26
29.34
33.22
36.75
39.53
41.17
41.53
40.75
39.20
37.27
35.35
33.66
32.33
31.36
30.61
29.86
28.83
27.30
25.29
23.03
20.86
19.09
17.78
16.71
15.47
13.75
11.41
8.58
5.53
2.45
-0.56
-3.55
-6.54
-9.54
-12.49
-15.35
-18.22
-21.29
-24.70
-28.33
-31.87
-34.88
-37.12
-38.70
-40.08
-41.83
-44.30
-47.42
-50.67
-53.29
-54.60
-54.10
-51.60
-47.18
-41.09
-33.66
-25.33
-16.59
-7.86
0.55
8.46
15.79
22.43
28.28
33.20
37.19
40.38
43.00
45.28
47.27
48.87
49.99
50.68
51.24
52.07
53.42
55.07
56.37
56.43
54.53
50.51
44.83
38.41
32.20
26.84
22.36
18.36
14.23
9.55
4.26
-1.29
-6.61
-11.34
-15.38
-18.93
-22.29
-25.66
-29.06
-32.33
-35.26
-37.67
-39.34
-39.95
-39.07
-36.24
-31.33
-24.62
-16.86
-8.99
-1.80
4.33
9.38
13.51
16.70
18.70
19.21
18.14
15.87
13.12
10.72
9.21
8.66
8.74
9.05
9.34
9.64
10.05
10.55
10.89
10.66
9.54
7.50
4.85
2.05
-0.59
-3.00
-5.40
-8.05
-11.03
-14.13
-17.00
-19.39
-21.39
-23.42
-26.02
-29.51
-33.77
-38.20
-42.05
-44.72
-46.10
-46.40
-45.86
-44.28
-41.04
-35.40
-27.08
-16.70
-5.71
4.26
12.02
17.44
21.20
24.32
27.39
30.28
32.22
32.43
30.59
27.12
22.98
19.25
16.64
15.30
14.82
14.59
14.16
13.40
12.52
11.78
11.22
10.51
9.15
6.75
3.29
-0.73
-4.67
-8.08
-10.88
-13.33
-15.82
-18.48
-21.27
-23.99
-26.57
-29.10
-31.76
-34.62
-37.51
-40.03
-41.69
-42.08
-40.97
-38.21
-33.73
-27.53
-19.77
-10.94
-1.76
6.97
14.72
21.30
26.85
31.55
35.43
38.26
39.70
39.63
38.32
36.33
34.27
32.54
31.16
29.91
28.52
26.85
24.98
23.02
20.99
18.74
16.04
12.76
9.01
5.12
1.44
-1.76
-4.46
-6.85
-9.24
-11.86
-14.82
-18.09
-21.63
-25.42
-29.41
-33.50
-37.45
-40.96
-43.75
-45.68
-46.74
-46.98
-46.35
-44.64
-41.47
-36.42
-29.27
-20.22
-9.94
0.55
10.28
18.57
25.21
30.46
34.76
38.51
41.80
44.52
46.48
47.58
47.79
47.06
45.24
42.14
37.75
32.53
27.32
23.01
20.13
18.53
17.51
16.26
14.43
12.35
10.85
10.69
11.99
14.09
15.79
15.97
14.09
10.36
5.59
0.71
-3.68
-7.44
-10.79
-13.96
-17.02
-19.84
-22.26
-24.31
-26.22
-28.36
-30.94
-33.96
-37.17
-40.24
-42.92
-45.02
-46.40
-46.89
-46.29
-44.41
-41.14
-36.45
-30.42
-23.21
-15.07
-6.32
2.64
11.38
19.56
26.92
33.23
38.32
41.99
44.14
44.87
44.45
43.23
41.52
39.55
37.40
35.24
33.23
31.60
30.39
29.42
28.22
26.31
23.37
19.44
15.00
10.62
6.85
3.90
1.55
-0.58
-2.86
-5.43
-8.22
-11.05
-13.81
-16.45
-18.99
-21.37
-23.49
-25.23
-26.56
-27.57
-28.40
-29.10
-29.49
-29.19
-27.75
-24.82
-20.29
-14.40
-7.68
-0.79
5.56
10.84
14.78
17.38
18.80
19.26
18.99
18.17
17.03
15.78
14.60
13.57
12.66
11.79
10.94
10.25
9.84
9.77
9.93
10.04
9.83
9.13
7.88
6.12
3.94
1.43
-1.36
-4.31
-7.29
-10.19
-12.96
-15.63
-18.30
-21.05
-23.95
-27.00
-30.20
-33.47
-36.59
-39.25
-41.04
-41.58
-40.61
-38.00
-33.78
-28.13
-21.36
-13.87
-6.20
1.12
7.68
13.24
17.84
21.65
24.89
27.62
29.72
30.93
31.10
30.33
28.95
27.42
26.12
25.11
24.18
23.01
21.38
19.35
17.19
15.15
13.26
11.32
9.05
6.30
3.21
0.03
-3.03
-6.00
-9.13
-12.65
-16.61
-20.75
-24.69
-28.15
-31.09
-33.75
-36.37
-39.11
-41.85
-44.27
-45.95
-46.49
-45.60
-43.09
-38.92
-33.16
-26.02
-17.85
-9.05
-0.07
8.63
16.68
23.83
29.96
35.09
39.30
42.57
44.74
45.60
45.03
43.25
40.84
38.53
36.93
36.17
35.92
35.58
34.59
32.67
29.91
26.60
23.05
19.49
16.10
13.04
10.53
8.65
7.22
5.68
3.32
-0.43
-5.60
-11.65
-17.63
-22.67
-26.39
-28.96
-30.95
-32.87
-34.86
-36.56
-37.34
-36.70
-34.67
-31.81
-29.12
-27.62
-28.01
-30.48
-34.68
-39.82
-44.88
-48.84
-50.80
-50.25
-47.11
-41.74
-34.78
-26.87
-18.46
-9.72
-0.71
8.40
17.13
24.85
31.02
35.55
38.79
41.37
43.76
45.97
47.65
48.32
47.80
46.36
44.55
42.93
41.71
40.66
39.33
37.33
34.58
31.40
28.29
25.69
23.75
22.29
20.89
19.10
16.64
13.48
9.78
5.85
1.94
-1.75
-5.18
-8.37
-11.37
-14.28
-17.17
-20.16
-23.36
-26.89
-30.77
-34.78
-38.44
-41.08
-42.03
-40.87
-37.51
-32.23
-25.52
-17.91
-9.88
-1.88
5.66
12.29
17.64
21.52
24.02
25.43
26.08
26.21
25.87
25.05
23.80
22.36
21.11
20.36
20.22
20.41
20.43
19.76
18.19
15.88
13.26
10.76
8.59
6.67
4.72
2.47
-0.20
-3.19
-6.28
-9.23
-11.88
-14.15
-16.07
-17.76
-19.43
-21.24
-23.28
-25.48
-27.64
-29.47
-30.74
-31.30
-31.08
-29.99
-27.80
-24.26
-19.26
-12.99
-6.05
0.74
6.58
11.00
14.04
16.11
17.71
19.10
20.22
20.73
20.34
19.07
17.30
15.65
14.57
14.16
14.09
13.87
13.17
12.02
10.69
9.50
8.48
7.33
5.57
2.92
-0.58
-4.51
-8.33
-11.65
-14.38
-16.71
-18.95
-21.34
-23.95
-26.69
-29.40
-31.96
-34.29
-36.35
-38.13
-39.59
-40.58
-40.79
-39.78
-37.10
-32.50
-26.09
-18.45
-10.42
-2.83
3.83
9.48
14.43
19.04
23.40
27.29
30.23
31.82
32.00
31.12
29.69
28.11
26.45
24.42
21.59
17.76
13.06
7.94
2.91
-1.70
-5.83
-9.53
-12.75
-15.23
-16.57
-16.46
-14.90
-12.36
-9.62
-7.54
-6.80
-7.78
-10.46
-14.46
-19.13
-23.74
-27.71
-30.82
-33.24
-35.38
-37.57
-39.73
-41.33
-41.54
-39.60
-35.12
-28.34
-19.92
-10.80
-1.79
6.57
14.12
21.00
27.53
33.86
39.79
44.75
47.93
48.80
47.50
44.87
42.17
40.43
39.85
39.77
39.13
37.23
34.21
30.90
28.18
26.35
24.90
23.01
20.31
17.14
14.29
12.25
10.69
8.55
4.93
-0.16
-5.59
-9.89
-12.26
-13.18
-14.04
-16.20
-20.05
-24.81
-29.25
-32.44
-34.25
-35.22
-36.03
-37.19
-39.00
-41.69
-45.39
-49.85
-54.20
-57.13
-57.41
-54.56
-49.11
-42.18
-34.83
-27.51
-20.05
-12.07
-3.54
5.14
13.26
20.25
25.89
30.28
33.63
36.16
38.01
39.20
39.76
39.65
38.86
37.40
35.49
33.51
31.93
31.06
30.78
30.61
29.93
28.40
26.13
23.62
21.49
20.05
19.17
18.29
16.71
13.93
9.79
4.58
-1.12
-6.47
-10.70
-13.17
-13.49
-11.57
-7.70
-2.45
3.46
9.27
14.29
17.95
19.85
19.93
18.50
16.12
13.38
10.66
8.04
5.45
3.00
1.17
0.69
2.09
5.32
9.60
13.70
16.52
17.54
16.98
15.58
14.19
13.35
13.34
14.13
15.56
17.24
18.56
18.75
17.17
13.67
8.73
3.36
-1.45
-5.21
-8.20
-11.23
-15.09
-19.98
-25.32
-29.98
-32.89
-33.62
-32.69
-31.34
-31.05
-32.84
-36.88
-42.48
-48.41
-53.35
-56.42
-57.36
-56.41
-54.05
-50.64
-46.21
-40.52
-33.33
-24.65
-15.03
-5.34
3.42
10.54
15.82
19.51
22.09
23.98
25.40
26.39
26.98
27.27
27.37
27.34
27.07
26.34
24.97
22.99
20.58
17.99
15.40
12.79
10.05
7.12
4.09
1.11
-1.65
-4.25
-6.97
-10.13
-13.88
-18.07
-22.29
-26.06
-29.12
-31.48
-33.41
-35.17
-36.78
-38.00
-38.42
-37.67
-35.51
-31.96
-27.18
-21.35
-14.76
-7.71
-0.59
6.18
12.25
17.42
21.58
24.80
27.18
28.81
29.80
30.29
30.38
30.18
29.66
28.73
27.22
24.98
21.98
18.37
14.44
10.55
6.99
3.89
1.18
-1.40
-4.05
-6.92
-9.95
-13.04
-16.10
-19.15
-22.30
-25.71
-29.40
-33.24
-36.96
-40.13
-42.33
-43.20
-42.50
-40.20
-36.46
-31.51
-25.53
-18.61
-10.74
-2.02
7.25
16.48
24.93
31.87
36.84
39.72
40.70
40.21
38.74
36.75
34.66
32.83
31.52
30.83
30.62
30.51
30.04
28.80
26.61
23.57
19.95
16.07
12.10
8.08
3.92
-0.38
-4.76
-9.03
-13.01
-16.65
-20.12
-23.70
-27.60
-31.85
-36.25
-40.50
-44.42
-47.95
-51.08
-53.66
-55.24
-55.18
-52.94
-48.48
-42.30
-35.28
-28.15
-21.21
-14.21
-6.68
1.57
10.27
18.67
25.88
31.25
34.50
35.77
35.50
34.30
32.91
32.14
32.75
35.26
39.70
45.48
51.57
56.80
60.26
61.63
61.22
59.70
57.72
55.53
52.97
49.70
45.60
40.89
36.14
31.86
28.13
24.52
20.33
15.02
8.55
1.39
-5.76
-12.27
-17.87
-22.70
-27.08
-31.32
-35.58
-39.81
-43.80
-47.35
-50.34
-52.72
-54.52
-55.71
-56.12
-55.48
-53.52
-50.07
-45.10
-38.72
-31.05
-22.18
-12.21
-1.40
9.65
20.15
29.24
36.38
41.44
44.63
46.33
46.79
46.15
44.52
42.14
39.44
36.88
34.78
33.10
31.50
29.55
27.00
23.98
20.90
18.21
16.09
14.30
12.32
9.65
6.12
1.98
-2.27
-6.13
-9.33
-11.89
-13.98
-15.81
-17.50
-19.14
-20.87
-22.83
-25.13
-27.73
-30.41
-32.73
-34.21
-34.42
-33.07
-30.13
-25.76
-20.33
-14.34
-8.28
-2.54
2.61
7.03
10.63
13.31
14.98
15.63
15.36
14.34
12.75
10.78
8.64
6.57
4.88
3.84
3.57
3.89
4.38
4.51
3.92
2.59
0.74
-1.30
-3.35
-5.41
-7.63
-10.10
-12.74
-15.34
-17.68
-19.65
-21.31
-22.84
-24.40
-26.14
-28.14
-30.42
-33.01
-35.82
-38.55
-40.65
-41.44
-40.25
-36.76
-31.10
-23.86
-15.85
-7.84
-0.31
6.64
13.12
19.21
24.76
29.35
32.49
33.96
33.98
33.17
32.29
31.81
31.73
31.66
31.10
29.78
27.79
25.48
23.16
20.95
18.71
16.20
13.29
9.98
6.39
2.61
-1.23
-4.98
-8.43
-11.37
-13.75
-15.74
-17.70
-19.93
-22.57
-25.53
-28.62
-31.75
-34.91
-38.17
-41.46
-44.55
-47.09
-48.78
-49.39
-48.66
-46.30
-41.92
-35.30
-26.53
-16.23
-5.33
5.10
14.13
21.22
26.20
29.31
31.06
32.14
33.21
34.65
36.47
38.27
39.43
39.47
38.31
36.31
34.18
32.68
32.26
32.89
34.02
34.78
34.39
32.55
29.63
26.51
24.10
22.91
22.68
22.54
21.46
18.74
14.41
9.11
3.81
-0.72
-4.18
-6.80
-9.10
-11.58
-14.44
-17.54
-20.46
-22.81
-24.43
-25.48
-26.37
-27.54
-29.32
-31.78
-34.82
-38.20
-41.59
-44.58
-46.70
-47.44
-46.42
-43.51
-38.84
-32.79
-25.74
-18.00
-9.76
-1.18
7.48
15.89
23.61
30.33
35.85
40.14
43.21
45.05
45.59
44.89
43.17
40.83
38.35
36.04
33.91
31.77
29.28
26.25
22.74
18.99
15.35
12.07
9.22
6.55
3.71
0.37
-3.53
-7.69
-11.53
-14.50
-16.32
-17.19
-17.72
-18.59
-20.23
-22.64
-25.46
-28.32
-30.98
-33.44
-35.73
-37.69
-38.89
-38.72
-36.71
-32.81
-27.41
-21.21
-14.91
-8.91
-3.19
2.54
8.50
14.65
20.59
25.73
29.67
32.33
33.95
34.78
34.86
34.01
32.10
29.35
26.36
23.80
22.02
20.73
19.23
16.89
13.63
10.06
7.08
5.24
4.47
4.13
3.59
2.64
1.54
0.61
-0.20
-1.45
-3.91
-8.00
-13.40
-19.09
-23.95
-27.31
-29.33
-30.79
-32.61
-35.20
-38.21
-40.74
-41.71
-40.40
-36.63
-30.76
-23.41
-15.27
-6.89
1.31
8.94
15.64
21.06
24.99
27.38
28.43
28.53
28.14
27.71
27.53
27.63
27.81
27.72
27.02
25.57
23.51
21.15
18.75
16.37
13.84
10.94
7.65
4.29
1.34
-0.83
-2.33
-3.78
-6.08
-9.89
-15.24
-21.41
-27.31
-32.02
-35.19
-37.27
-39.13
-41.72
-45.47
-50.15
-54.95
-58.87
-61.05
-60.99
-58.56
-53.78
-46.73
-37.54
-26.55
-14.48
-2.50
8.10
16.31
21.82
25.14
27.33
29.47
32.15
35.27
38.24
40.46
41.67
42.06
42.08
42.07
42.05
41.69
40.58
38.55
35.80
32.78
29.95
27.56
25.47
23.32
20.78
17.69
14.11
10.22
6.18
2.12
-1.80
-5.34
-8.28
-10.48
-12.01
-13.17
-14.40
-16.08
-18.38
-21.25
-24.51
-28.02
-31.66
-35.29
-38.81
-42.12
-45.22
-48.23
-51.24
-54.13
-56.40
-57.33
-56.21
-52.69
-46.91
-39.42
-30.88
-21.87
-12.80
-3.97
4.41
12.20
19.36
25.92
31.91
37.18
41.41
44.30
45.78
46.15
45.95
45.62
45.30
44.76
43.74
42.16
40.30
38.53
37.09
35.85
34.42
32.36
29.47
25.92
22.08
18.31
14.87
11.80
9.06
6.63
4.44
2.39
0.31
-2.00
-4.68
-7.74
-11.12
-14.73
-18.47
-22.34
-26.35
-30.45
-34.45
-37.99
-40.60
-41.79
-41.21
-38.67
-34.20
-28.03
-20.55
-12.23
-3.61
4.81
12.54
19.21
24.53
28.43
30.91
32.16
32.40
31.92
31.03
29.96
28.81
27.62
26.32
24.84
23.20
21.48
19.79
18.26
16.90
15.53
13.90
11.73
8.91
5.56
1.97
-1.50
-4.61
-7.30
-9.65
-11.87
-14.14
-16.63
-19.47
-22.70
-26.34
-30.30
-34.47
-38.70
-42.82
-46.68
-49.98
-52.26
-52.88
-51.21
-46.87
-39.96
-31.02
-20.89
-10.46
-0.48
8.47
16.02
21.87
25.88
28.08
28.67
28.02
26.56
24.74
22.96
21.54
20.66
20.30
20.21
19.98
19.23
17.88
16.22
14.78
14.00
13.83
13.64
12.48
9.68
5.33
0.31
-4.15
-7.16
-8.81
-10.00
-11.89
-15.04
-18.96
-22.27
-23.55
-22.19
-18.85
-15.30
-13.39
-14.28
-17.87
-22.98
-27.91
-31.18
-31.91
-29.92
-25.55
-19.40
-12.28
-4.97
1.78
7.56
12.44
16.99
21.99
27.96
34.74
41.41
46.62
49.19
48.73
45.75
41.52
37.49
34.76
33.73
34.01
34.72
34.91
33.85
31.30
27.46
22.75
17.62
12.39
7.22
2.20
-2.63
-7.21
-11.48
-15.51
-19.32
-22.83
-25.66
-27.27
-27.20
-25.45
-22.70
-20.11
-18.94
-19.98
-23.12
-27.35
-31.14
-33.09
-32.53
-29.87
-26.40
-23.78
-23.21
-24.88
-27.94
-30.83
-32.06
-30.83
-27.25
-22.07
-16.27
-10.50
-5.02
0.25
5.51
10.85
16.23
21.40
26.01
29.67
31.96
32.64
31.70
29.46
26.50
23.51
21.07
19.43
18.51
17.87
17.03
15.63
13.67
11.39
9.07
6.80
4.41
1.75
-1.15
-4.07
-6.96
-10.21
-14.70
-21.09
-29.09
-37.11
-42.80
-44.34
-41.64
-36.78
-32.99
-32.95
-37.30
-44.32
-50.90
-54.19
-52.88
-47.36
-39.08
-29.42
-19.17
-8.54
2.30
12.87
22.26
29.44
33.79
35.37
34.87
33.38
31.90
31.03
30.95
31.42
32.01
32.36
32.22
31.56
30.39
28.71
26.49
23.78
20.71
17.43
14.01
10.26
5.77
0.22
-6.35
-13.33
-19.75
-24.73
-28.01
-30.13
-32.19
-35.28
-39.92
-45.78
-51.85
-56.85
-59.78
-60.22
-58.32
-54.56
-49.43
-43.20
-35.90
-27.40
-17.65
-6.85
4.53
15.79
26.11
34.83
41.53
46.02
48.40
48.92
48.02
46.19
43.95
41.76
39.88
38.36
37.03
35.63
33.91
31.78
29.28
26.59
23.84
21.15
18.50
15.81
12.96
9.74
5.96
1.45
-3.84
-9.77
-16.01
-22.16
-27.89
-33.02
-37.63
-41.93
-46.14
-50.31
-54.26
-57.59
-59.72
-60.10
-58.21
-53.83
-46.97
-38.04
-27.65
-16.60
-5.60
4.81
14.31
22.81
30.32
36.83
42.30
46.61
49.66
51.39
51.81
51.07
49.42
47.15
44.62
42.16
39.97
38.13
36.56
35.08
33.48
31.58
29.23
26.36
22.97
19.12
14.96
10.71
6.56
2.70
-0.80
-3.95
-6.85
-9.59
-12.23
-14.76
-17.12
-19.25
-21.19
-23.06
-25.04
-27.31
-29.98
-33.03
-36.36
-39.80
-43.22
-46.52
-49.57
-52.23
-54.24
-55.31
-55.10
-53.27
-49.58
-43.90
-36.28
-27.01
-16.59
-5.65
5.18
15.45
24.93
33.54
41.21
47.73
52.72
55.78
56.63
55.39
52.63
49.24
46.17
44.06
43.00
42.51
41.71
39.75
36.08
30.67
23.90
16.28
8.13
-0.51
-9.81
-19.90
-30.64
-41.73
-52.88
-64.03
-75.27
-86.59
-97.62
-107.78
-116.75
-125.00
-133.80
-144.45
-157.14
-169.90
-178.86
-179.64
-169.36
-147.95
-118.04
-83.58
-48.08
-13.66
18.90
49.00
75.45
96.26
109.42
114.04
111.02
102.93
93.23
85.08
80.54
80.25
83.52
88.76
93.99
97.34
97.42
93.55
85.77
74.77
61.76
48.40
36.31
26.68
20.02
16.12
14.35
14.18
15.36
17.88
21.61
25.89
29.57
31.28
30.08
25.85
19.41
12.15
5.44
-0.06
-4.61
-9.13
-14.66
-21.64
-29.47
-36.70
-41.54
-42.79
-40.39
-35.33
-28.99
-22.42
-15.82
-8.73
-0.70
8.20
17.11
24.81
30.28
33.18
33.79
32.71
30.48
27.52
24.23
21.21
19.28
19.11
20.89
24.03
27.32
29.50
29.78
28.15
25.21
21.82
18.60
15.78
13.31
11.16
9.47
8.48
8.30
8.71
9.22
9.23
8.31
6.32
3.44
-0.06
-3.94
-7.98
-12.03
-15.91
-19.51
-22.80
-25.88
-28.79
-31.43
-33.49
-34.70
-35.00
-34.75
-34.57
-34.76
-34.99
-34.20
-31.09
-24.95
-16.23
-6.52
2.24
8.78
13.22
16.91
21.51
27.88
35.57
42.97
48.25
50.18
48.45
43.50
35.95
26.31
14.93
2.17
-11.57
-26.12
-41.77
-59.48
-80.15
-103.58
-127.34
-146.59
-155.37
-148.90
-125.80
-89.10
-45.31
-1.96
35.29
64.20
85.77
102.42
115.92
126.25
131.98
131.64
125.24
114.65
102.80
91.99
82.85
74.21
64.02
50.50
32.79
10.68
-16.32
-49.43
-89.63
-136.01
-184.03
-225.75
-252.15
-256.69
-238.11
-200.99
-153.43
-103.41
-56.03
-13.18
24.83
57.08
81.29
94.62
94.98
82.49
59.38
29.01
-5.30
-40.73
-75.11
-106.83
-134.65
-157.71
-175.19
-186.01
-188.79
-182.15
-165.54
-140.24
-109.61
-78.43
-51.33
-31.04
-17.48
-8.23
0.23
10.91
25.02
41.63
58.43
73.10
84.80
94.95
106.45
122.38
144.46
172.59
205.35
240.79
276.72
310.73
340.37
362.56
374.38
374.16
362.51
342.39
317.98
292.83
268.63
245.87
223.81
201.76
179.84
159.33
142.40
131.13
126.55
128.11
135.03
145.85
158.91
172.45
184.41
192.40
193.78
186.36
161.68
117.09
56.83
-8.71
-67.04
-109.13
-132.33
-139.60
-136.53
-127.91
-117.28
-106.86
-98.26
-92.79
-91.52
-94.89
-102.83
-115.33
-131.83
-151.33
-173.22
-197.46
-224.29
-253.51
-283.55
-311.14
-331.93
-341.85
-338.19
-320.65
-291.72
-255.80
-217.90
-182.13
-150.64
-122.91
-95.84
-64.74
-25.51
22.75
76.51
128.34
169.64
193.90
198.83
186.35
160.39
124.91
82.82
36.62
-10.05
-51.75
-82.53
-98.74
-101.57
-97.34
-94.77
-100.41
-114.70
-131.17
-139.35
-130.04
-100.68
-57.41
-13.01
18.61
28.05
13.96
-17.31
-55.14
-88.99
-111.74
-120.48
-115.91
-100.77
-78.83
-54.28
-31.39
-14.43
-6.92
-10.82
-25.64
-48.20
-73.16
-94.39
-106.77
-107.88
-98.50
-81.90
-62.06
-41.66
-21.04
1.48
27.97
59.26
93.87
128.51
159.63
184.74
202.96
214.45
219.25
216.78
206.23
187.75
163.18
135.98
109.91
87.69
70.05
56.15
44.60
34.59
26.25
20.08
16.16
13.72
11.36
7.79
2.41
-4.44
-11.75
-18.33
-23.13
-25.24
-24.00
-19.08
-10.80
-0.49
9.40
15.84
16.30
9.98
-1.41
-14.12
-23.94
-27.94
-25.92
-20.40
-15.39
-14.65
-20.20
-31.91
-47.99
-65.98
-83.48
-98.61
-110.05
-117.07
-119.61
-118.25
-114.10
-108.48
-102.49
-96.65
-90.88
-84.78
-78.02
-70.68
-63.43
-57.34
-53.48
-52.44
-53.81
-56.16
-57.53
-56.14
-51.33
-43.87
-35.71
-29.11
-25.62
-25.48
-27.50
-29.65
-29.90
-27.05
-21.17
-13.47
-5.71
0.48
4.11
5.02
3.79
1.37
-1.19
-2.93
-3.18
-1.68
1.38
5.24
8.74
10.61
9.91
6.48
1.08
-4.69
-9.01
-10.38
-8.35
-3.51
2.63
8.34
12.31
14.16
14.45
14.38
15.32
18.45
24.65
34.40
47.65
63.55
80.37
95.67
107.10
113.19
113.91
110.61
105.28
99.63
94.45
89.53
84.17
77.83
70.60
63.11
56.25
50.70
46.65
43.82
41.62
39.42
36.70
33.10
28.44
22.58
15.46
7.08
-2.29
-12.06
-21.36
-29.24
-35.05
-38.72
-40.75
-42.06
-43.58
-45.84
-48.86
-52.16
-55.04
-56.91
-57.48
-56.73
-54.91
-52.25
-48.94
-45.00
-40.40
-35.09
-29.18
-22.90
-16.64
-10.81
-5.78
-1.76
1.22
3.28
4.73
5.96
7.32
9.07
11.20
13.54
15.65
17.04
17.37
16.45
14.45
11.73
8.80
6.14
4.05
2.62
1.69
0.90
-0.10
-1.58
-3.62
-6.12
-9.00
-12.25
-15.93
-20.12
-24.74
-29.48
-33.85
-37.24
-39.06
-38.90
-36.53
-32.00
-25.70
-18.42
-11.09
-4.60
0.57
4.49
7.63
10.52
13.45
16.29
18.61
20.06
20.49
19.98
18.81
17.37
16.17
15.77
16.57
18.58
21.19
23.30
23.81
22.10
18.43
13.86
9.73
7.10
6.33
7.09
8.56
9.78
9.96
8.61
5.74
1.83
-2.36
-6.09
-8.95
-10.94
-12.17
-12.71
-12.28
-10.38
-6.75
-1.60
4.28
9.89
14.55
18.19
21.28
24.51
28.34
32.68
36.97
40.33
41.98
41.44
38.83
34.84
30.52
26.94
24.71
23.75
23.33
22.47
20.40
16.94
12.46
7.60
2.88
-1.54
-5.77
-10.04
-14.42
-18.74
-22.72
-25.99
-28.35
-29.82
-30.63
-31.15
-31.79
-32.88
-34.40
-36.01
-37.16
-37.12
-35.47
-32.18
-27.60
-22.38
-17.17
-12.38
-8.08
-3.96
0.38
5.23
10.52
15.68
19.77
21.81
21.27
18.36
14.08
9.81
6.77
5.48
5.63
6.39
6.73
6.11
4.55
2.63
1.12
0.71
1.63
3.46
5.20
5.71
4.19
0.51
-4.50
-9.44
-12.94
-14.27
-13.61
-12.02
-10.84
-11.13
-13.22
-16.60
-20.13
-22.57
-22.94
-20.77
-16.14
-9.64
-2.13
5.42
12.04
16.94
19.73
20.24
18.94
16.77
14.76
13.83
14.25
15.46
16.51
16.35
14.41
10.88
6.67
3.09
1.38
2.13
5.12
9.28
13.15
15.34
15.07
12.37
7.91
2.68
-2.53
-7.33
-11.63
-15.49
-18.82
-21.34
-22.80
-23.37
-23.41
-23.69
-24.84
-27.01
-29.82
-32.28
-33.04
-31.08
-25.87
-17.76
-7.94
1.96
10.40
16.61
20.72
23.53
25.78
27.95
29.79
30.85
30.81
29.79
28.39
27.08
25.99
24.80
22.84
19.74
15.82
12.11
9.67
9.06
9.81
10.56
9.86
7.00
2.43
-2.62
-6.73
-9.12
-9.93
-9.92
-9.96
-10.54
-11.84
-13.84
-16.52
-19.93
-23.99
-28.10
-31.42
-33.07
-32.48
-29.69
-25.02
-19.08
-12.55
-5.92
0.33
5.86
10.54
14.48
17.76
20.48
22.75
24.51
25.78
26.59
27.07
27.43
27.83
28.39
29.02
29.53
29.64
29.03
27.48
25.02
21.86
18.48
15.40
13.00
11.39
10.31
9.25
7.68
5.31
2.23
-1.12
-4.23
-6.71
-8.50
-9.84
-11.09
-12.50
-13.99
-15.19
-15.56
-14.60
-12.06
-8.01
-2.74
3.15
8.97
14.05
17.71
19.72
20.15
19.46
18.40
17.75
18.17
19.91
22.81
26.22
29.25
31.00
30.83
28.67
25.13
21.32
18.45
17.37
18.11
19.93
21.52
21.59
19.43
15.12
9.48
3.72
-1.05
-4.23
-5.80
-6.42
-7.00
-8.45
-11.49
-16.16
-21.91
-27.59
-31.74
-33.09
-30.98
-25.62
-18.04
-9.67
-1.87
4.52
9.32
12.87
15.74
18.42
21.02
23.36
24.96
25.46
24.61
22.59
19.83
16.97
14.63
13.30
13.06
13.63
14.46
14.73
13.72
10.98
6.55
1.26
-3.62
-6.76
-7.47
-6.06
-3.90
-2.73
-3.97
-7.86
-13.54
-19.40
-23.91
-26.42
-27.04
-26.83
-26.76
-27.72
-30.39
-34.84
-40.56
-45.87
-48.27
-45.29
-35.77
-20.73
-3.50
11.65
21.46
25.00
23.95
21.38
19.91
20.39
21.96
22.83
21.72
18.74
14.97
11.90
10.39
10.44
11.28
11.93
11.71
10.40
8.47
6.34
4.48
3.03
1.71
0.21
-1.81
-4.43
-7.35
-10.07
-11.99
-12.76
-12.48
-11.62
-10.97
-11.17
-12.44
-14.43
-16.34
-17.27
-16.50
-13.71
-9.08
-3.06
3.71
10.68
17.38
23.47
28.71
32.99
36.28
38.60
40.02
40.58
40.32
39.27
37.57
35.38
32.95
30.54
28.37
26.55
25.17
24.20
23.56
23.12
22.65
21.87
20.58
18.70
16.35
13.76
11.19
8.80
6.61
4.47
2.21
-0.32
-3.19
-6.38
-9.78
-13.26
-16.67
-19.88
-22.74
-25.03
-26.43
-26.57
-25.07
-21.78
-16.88
-10.88
-4.51
1.46
6.48
10.23
12.65
13.75
13.58
12.21
9.79
6.66
3.30
0.27
-1.97
-3.26
-3.75
-3.83
-3.95
-4.36
-5.08
-5.89
-6.46
-6.53
-6.04
-5.22
-4.57
-4.76
-6.36
-9.68
-14.58
-20.55
-26.83
-32.77
-38.04
-42.68
-46.92
-50.98
-54.83
-58.10
-60.24
-60.68
-59.01
-55.07
-48.96
-40.99
-31.70
-21.79
-11.99
-2.82
5.46
12.91
19.73
26.12
31.98
36.97
40.62
42.63
43.14
42.68
42.01
41.80
42.36
43.63
45.29
46.92
48.15
48.92
49.10
48.54
47.07
44.56
41.10
37.03
32.86
29.09
26.72
26.43
28.49
32.60
38.06
43.98
49.61
54.46
58.36
62.50
67.98
75.31
84.14
93.44
101.92
108.66
113.35
116.27
120.02
127.08
139.10
156.24
177.02
199.02
219.70
237.01
249.76
260.10
270.46
282.60
296.67
311.21
324.13
333.99
340.70
329.89
292.90
227.03
137.75
37.04
-61.69
-148.42
-218.36
-271.10
-308.93
-332.86
-344.43
-345.51
-338.51
-326.30
-311.63
-296.61
-282.72
-270.94
-260.01
-248.68
-236.00
-221.74
-206.40
-190.87
-175.97
-162.31
-150.29
-139.02
-127.65
-115.60
-102.75
-89.51
-76.69
-65.01
-54.91
-46.22
-37.85
-28.83
-18.98
-9.26
-1.13
4.45
7.93
10.79
14.74
20.43
26.86
31.77
32.93
29.34
21.39
10.72
-1.78
-15.50
-30.09
-44.79
-58.11
-68.20
-73.25
-73.30
-69.59
-64.17
-58.83
-54.58
-51.56
-49.10
-46.31
-42.68
-38.11
-32.78
-27.06
-21.16
-15.41
-10.32
-6.57
-4.34
-2.64
0.88
8.92
22.85
41.22
59.56
72.42
75.77
69.09
55.39
39.37
25.04
14.21
6.67
1.46
-1.91
-3.18
-2.11
0.63
3.21
3.62
1.00
-3.60
-7.87
-9.31
-6.73
-0.84
6.15
11.32
12.40
8.46
0.18
-10.58
-21.60
-31.16
-38.05
-41.64
-41.82
-38.86
-33.41
-26.67
-20.06
-15.50
-14.55
-17.30
-22.14
-26.40
-27.74
-25.06
-19.09
-11.91
-7.14
-8.37
-17.82
-35.73
-60.65
-89.48
-117.38
-137.87
-143.91
-131.75
-102.15
-59.90
-11.73
36.27
81.18
122.26
159.41
193.20
221.03
237.35
236.53
215.82
177.08
125.96
69.86
12.99
-34.50
-64.77
-77.90
-79.18
-73.26
-61.41
-43.94
-22.01
1.22
21.83
34.94
37.21
29.66
16.79
4.49
-3.26
-5.20
-3.14
-0.47
-2.33
-13.43
-36.41
-71.83
-111.44
-145.91
-165.42
-163.02
-137.23
-93.85
-43.81
1.20
33.35
51.34
58.80
61.89
65.30
70.36
74.92
76.08
72.48
64.60
53.84
40.75
25.78
10.50
-2.43
-10.87
-15.18
-19.25
-28.66
-47.75
-75.34
-105.82
-131.07
-144.28
-143.12
-130.56
-112.79
-95.70
-81.69
-69.18
-53.97
-31.67
-0.38
38.03
77.89
111.49
131.27
132.43
114.46
81.88
43.19
8.09
-15.98
-26.09
-24.03
-14.43
-1.39
11.28
22.14
32.11
42.49
53.05
61.01
62.29
53.95
36.09
11.97
-13.00
-33.47
-46.38
-51.69
-51.86
-50.34
-49.91
-51.88
-55.94
-60.44
-63.31
-62.58
-56.49
-43.57
-23.13
3.76
33.42
59.97
77.41
82.41
76.10
63.93
53.21
49.70
55.30
67.66
81.99
93.27
97.79
93.66
80.80
60.81
37.13
14.83
-0.71
-5.53
1.41
17.83
39.31
61.11
79.69
93.38
102.02
106.36
107.83
108.38
110.18
114.97
123.15
133.22
142.27
147.48
147.61
144.04
140.31
140.60
147.68
161.46
178.57
193.29
199.38
192.20
170.05
134.51
89.46
39.49
-11.82
-62.48
-111.76
-158.95
-202.36
-239.45
-268.10
-287.89
-300.30
-307.58
-310.74
-308.28
-296.95
-273.80
-238.77
-195.68
-151.44
-113.61
-87.42
-73.79
-68.92
-66.25
-59.00
-42.73
-16.32
18.71
59.32
102.00
142.76
176.99
199.93
208.26
202.08
186.07
168.37
157.15
156.85
165.77
176.94
181.80
174.40
153.37
121.44
82.73
40.18
-5.23
-53.84
-105.63
-159.19
-211.40
-258.19
-295.38
-319.40
-327.97
-320.15
-296.71
-260.19
-214.65
-165.20
-117.06
-74.42
-39.93
-14.67
1.45
9.04
9.07
3.22
-5.76
-14.31
-18.86
-17.26
-9.48
2.38
14.94
24.89
30.03
29.99
26.14
21.36
19.12
22.20
31.35
44.49
57.11
64.11
62.22
51.81
37.00
23.75
17.04
18.49
25.94
34.87
40.55
39.70
30.97
14.57
-8.34
-35.53
-63.45
-87.46
-102.96
-107.18
-100.55
-86.70
-70.64
-56.45
-45.38
-35.77
-24.70
-10.09
7.77
26.33
42.16
52.66
57.12
56.64
53.29
49.01
45.11
42.09
39.99
38.63
37.84
37.49
37.52
38.04
39.48
42.90
49.98
62.83
83.48
113.20
151.80
197.24
245.78
292.56
332.67
362.10
378.60
382.11
374.22
357.44
334.19
306.34
275.43
243.40
213.27
188.96
174.17
170.40
175.73
184.94
191.30
189.37
177.18
156.64
132.19
108.36
87.64
69.82
52.78
34.07
12.40
-11.78
-36.64
-59.93
-80.02
-96.51
-110.10
-122.14
-134.09
-147.07
-162.12
-180.58
-203.87
-232.24
-263.03
-289.56
-302.43
-293.26
-259.34
-206.61
-148.68
-102.10
-79.81
-86.50
-117.91
-164.17
-215.13
-264.05
-308.75
-349.91
-388.57
-424.88
-458.71
-491.14
-525.11
-564.15
-609.72
-658.75
-703.35
-733.09
-739.22
-718.55
-674.97
-617.69
-557.54
-502.86
-457.42
-420.65
-389.80
-362.15
-336.29
-311.99
-289.38
-268.22
-247.82
-227.39
-206.58
-185.54
-165.01
-145.71
-127.98
-111.56
-95.75
-79.73
-62.98
-45.62
-28.33
-12.07
2.39
14.83
25.70
35.84
46.20
57.29
69.09
81.08
92.56
103.09
112.72
122.01
131.75
142.65
155.00
168.56
182.81
197.14
211.26
225.27
239.63
254.80
271.04
288.15
305.62
322.80
339.20
354.65
369.41
384.18
399.89
417.92
439.63
465.76
495.60
526.58
554.53
574.90
584.17
580.99
566.33
542.78
513.39
480.95
447.53
414.70
383.69
355.18
328.84
303.11
275.38
242.85
203.58
157.18
105.10
50.20
-3.80
-53.07
-94.46
-126.16
-148.01
-161.25
-168.15
-171.15
-172.19
-172.29
-171.47
-169.06
-164.02
-155.48
-143.18
-127.80
-111.00
-95.06
-82.03
-72.78
-66.47
-60.91
-53.57
-42.98
-29.52
-15.20
-2.65
6.21
10.95
12.52
12.47
11.99
11.52
10.91
9.99
8.95
8.30
8.44
9.28
10.18
10.18
8.53
5.03
0.07
-5.63
-11.25
-16.08
-19.59
-21.45
-21.57
-20.27
-18.36
-17.00
-17.28
-19.79
-24.28
-29.69
-34.47
-37.15
-36.83
-33.38
-27.26
-19.19
-9.85
0.24
10.54
20.39
28.84
35.01
38.48
39.77
40.17
41.05
43.01
45.17
45.36
40.92
30.16
13.42
-6.69
-25.95
-40.03
-46.02
-43.49
-34.53
-22.92
-12.83
-7.41
-7.72
-12.70
-19.84
-26.59
-31.38
-33.93
-35.02
-36.20
-39.72
-48.61
-66.01
-93.55
-129.55
-168.18
-200.57
-218.05
-215.87
-195.50
-164.17
-131.67
-106.25
-91.54
-86.08
-85.23
-83.91
-78.90
-69.61
-57.50
-44.94
-33.87
-25.08
-18.34
-12.83
-8.16
-4.64
-3.18
-4.47
-8.10
-12.28
-14.58
-13.03
-7.13
1.85
11.38
18.86
22.52
21.87
17.47
10.25
1.04
-9.46
-20.13
-28.91
-33.02
-30.08
-19.47
-3.16
14.44
28.00
33.42
29.22
16.63
-1.85
-24.10
-49.20
-76.59
-104.37
-128.21
-141.80
-139.11
-117.01
-76.78
-23.45
36.70
98.89
161.02
222.99
284.71
344.42
398.70
444.11
479.14
504.64
522.80
535.07
540.80
537.46
522.21
493.92
454.16
406.50
354.74
301.25
246.33
188.77
127.11
60.68
-9.48
-80.47
-148.05
-207.37
-254.43
-287.26
-306.48
-314.92
-316.41
-314.22
-310.12
-304.36
-296.31
-285.33
-271.18
-253.98
-233.94
-211.34
-186.69
-161.07
-136.07
-113.38
-94.32
-79.52
-69.02
-62.32
-58.55
-56.23
-53.31
-47.59
-37.33
-22.39
-4.39
13.81
29.54
41.87
52.04
62.85
76.92
95.25
116.55
137.87
155.88
168.10
173.28
171.22
162.28
147.18
127.10
103.82
79.58
56.61
36.48
19.89
6.69
-3.64
-11.68
-17.87
-22.50
-25.60
-27.12
-26.97
-25.33
-22.97
-21.34
-22.27
-27.37
-37.37
-51.85
-69.60
-89.02
-108.44
-126.14
-140.08
-147.96
-147.74
-138.52
-121.21
-98.64
-74.75
-53.35
-37.02
-26.41
-20.61
-17.78
-16.14
-14.38
-11.99
-9.04
-5.97
-3.37
-1.66
-1.12
-1.60
-2.70
-3.80
-4.23
-3.50
-1.54
1.26
4.18
6.34
7.09
6.10
3.43
-0.49
-4.98
-9.33
-12.96
-15.75
-18.17
-21.16
-25.78
-32.51
-40.89
-49.41
-56.08
-59.46
-59.45
-57.12
-53.77
-49.82
-44.36
-35.84
-23.42
-7.93
8.03
21.29
29.57
32.55
31.67
29.12
26.63
24.92
24.00
23.86
25.02
28.30
34.16
42.03
50.22
56.41
58.54
55.53
47.57
36.00
22.66
9.19
-3.30
-14.42
-24.27
-33.17
-41.49
-49.50
-57.37
-65.09
-72.45
-79.08
-84.61
-88.88
-92.02
-94.32
-95.92
-96.51
-95.25
-90.87
-82.09
-67.91
-48.03
-23.00
5.85
36.80
68.25
99.20
129.33
158.56
186.51
211.92
232.72
246.59
251.81
247.89
235.62
216.72
193.19
166.96
139.71
113.06
88.44
66.95
48.95
33.92
20.62
7.58
-6.31
-21.48
-37.55
-53.60
-68.57
-81.46
-91.63
-98.80
-103.07
-104.95
-105.21
-104.67
-104.07
-103.80
-103.85
-103.97
-103.88
-103.57
-103.39
-103.81
-105.06
-106.65
-107.30
-105.30
-99.06
-87.82
-72.19
-54.12
-36.55
-22.53
-14.24
-12.24
-15.23
-20.50
-24.94
-26.01
-22.41
-14.05
-1.55
14.44
33.54
55.47
79.46
103.87
126.38
144.65
157.23
163.98
165.77
163.72
158.28
149.03
135.12
116.26
93.45
68.97
45.77
26.37
11.96
2.24
-4.15
-8.80
-12.90
-17.08
-21.64
-26.94
-33.51
-41.75
-51.41
-61.09
-68.46
-70.91
-66.72
-56.23
-42.02
-28.23
-18.96
-16.57
-20.61
-27.92
-34.05
-35.13
-29.58
-18.65
-5.90
4.43
9.27
7.75
1.53
-6.22
-12.23
-14.42
-12.50
-7.77
-2.14
2.77
6.17
7.98
8.40
7.44
4.78
0.18
-6.16
-13.34
-19.90
-24.62
-27.16
-28.40
-30.10
-33.99
-40.83
-49.96
-59.53
-67.41
-72.13
-73.28
-71.41
-67.42
-62.04
-55.62
-48.36
-40.49
-32.36
-24.22
-15.95
-7.05
2.92
13.92
25.15
35.23
42.83
47.25
48.68
48.00
46.20
43.88
41.10
37.60
33.33
28.69
24.50
21.67
20.76
21.67
23.74
26.04
27.83
28.80
29.02
28.63
27.34
24.45
19.19
11.27
1.43
-8.67
-17.13
-22.62
-25.09
-25.69
-26.12
-27.74
-30.91
-35.06
-39.20
-42.62
-44.98
-46.16
-45.85
-43.42
-38.20
-30.04
-19.67
-8.54
1.59
9.36
14.16
16.01
15.34
12.62
8.44
3.29
-2.24
-7.64
-12.45
-16.35
-19.08
-20.39
-20.15
-18.55
-16.33
-14.71
-14.97
-17.79
-22.96
-29.42
-35.80
-41.09
-44.87
-46.99
-47.01
-43.95
-36.52
-23.85
-6.29
14.43
35.49
53.87
67.23
74.42
75.31
70.59
61.45
49.41
36.38
24.44
15.57
11.19
11.86
17.16
25.84
36.20
46.41
55.06
61.42
65.54
68.05
69.73
71.09
72.15
72.40
71.08
67.62
61.87
54.19
45.45
36.79
29.31
23.72
20.09
17.79
15.79
13.12
9.31
4.55
-0.49
-5.04
-8.69
-11.43
-13.57
-15.51
-17.57
-20.04
-23.08
-26.72
-30.76
-34.77
-38.20
-40.77
-42.63
-44.40
-46.79
-50.14
-54.09
-57.53
-59.04
-57.37
-51.96
-43.11
-31.79
-19.33
-7.00
4.28
13.96
21.74
27.30
30.26
30.25
27.19
21.63
14.78
8.33
3.83
2.13
3.01
5.34
7.65
8.79
8.24
6.17
3.07
-0.61
-4.65
-9.01
-13.69
-18.54
-23.36
-27.91
-32.01
-35.54
-38.43
-40.66
-42.31
-43.64
-45.02
-46.78
-49.06
-51.66
-54.16
-56.09
-57.07
-56.91
-55.53
-52.79
-48.42
-42.19
-34.00
-24.20
-13.48
-2.66
7.61
17.06
25.75
33.85
41.39
48.24
54.02
58.41
61.20
62.39
62.07
60.27
57.07
52.55
46.96
40.75
34.46
28.58
23.46
19.29
16.11
13.90
12.57
11.90
11.62
11.35
10.76
9.56
7.68
5.21
2.37
-0.59
-3.60
-6.76
-10.37
-14.63
-19.57
-24.87
-29.96
-34.33
-37.74
-40.33
-42.51
-44.74
-47.25
-50.06
-52.98
-55.78
-58.17
-59.75
-59.99
-58.32
-54.39
-48.21
-40.20
-30.90
-20.71
-9.76
2.02
14.60
27.41
39.40
49.24
55.83
58.69
58.11
54.98
50.48
45.70
41.38
37.88
35.16
32.97
30.99
29.00
27.00
25.14
