1544123500.00
64.000000
-0.00
-0.00
-0.00
-0.00
-0.00
-0.00
-0.00
-0.00
-0.00
-0.00
0.00
0.01
0.01
-0.00
-0.03
-0.05
-0.05
0.00
0.13
0.36
0.66
1.01
1.37
1.72
2.06
2.40
2.79
3.24
3.80
4.42
5.06
5.66
6.20
6.68
7.15
7.68
8.31
9.14
10.09
11.04
11.88
12.56
13.14
13.76
14.65
15.96
17.91
20.32
22.90
25.38
27.58
29.57
31.68
34.32
37.81
42.54
48.15
54.10
59.83
64.97
69.58
74.14
79.34
85.71
93.76
103.00
112.62
121.73
129.77
136.75
143.30
150.75
157.77
166.64
177.95
191.79
206.97
220.57
228.25
225.36
208.53
176.87
132.76
80.05
23.07
-34.94
-92.44
-149.16
-205.23
-260.37
-313.74
-363.87
-409.83
-450.91
-486.50
-515.74
-537.23
-549.22
-549.96
-538.37
-514.21
-478.67
-433.88
-382.45
-327.02
-269.84
-212.63
-156.66
-102.95
-52.37
-5.90
35.58
71.43
101.35
125.50
144.38
158.69
169.15
176.37
180.75
182.57
182.07
179.51
175.23
169.65
163.18
156.15
148.81
141.30
133.69
126.02
118.33
110.69
103.16
95.80
88.68
81.83
75.25
68.95
62.95
57.25
51.86
46.78
42.02
37.57
33.45
29.63
26.11
22.86
19.86
17.08
14.53
12.24
10.22
8.52
7.11
5.95
4.97
4.10
3.29
2.53
1.86
1.34
1.00
0.83
0.81
0.81
0.74
0.55
0.26
-0.05
-0.23
-0.16
0.17
0.67
1.11
1.25
0.96
0.32
-0.41
-0.85
-0.69
0.11
1.28
2.26
2.51
1.77
0.22
-1.51
-2.62
-2.47
-0.98
1.30
3.37
4.24
3.45
1.32
-1.12
-2.56
-2.04
0.38
3.93
7.26
9.14
9.15
7.57
5.03
2.13
-0.34
-1.04
1.96
10.36
24.22
41.07
56.24
64.88
64.25
55.35
42.32
30.20
22.31
18.89
17.79
16.46
13.79
10.51
8.11
7.20
6.53
3.53
-4.17
-17.30
-34.67
-53.33
-70.28
-83.50
-92.85
-99.75
-105.56
-112.38
-121.36
-132.64
-145.26
-157.00
-164.31
-162.92
-149.33
-123.33
-87.03
-46.23
-8.14
21.50
40.41
50.06
54.09
56.04
57.71
59.04
59.06
57.34
54.62
52.23
51.17
51.47
52.25
52.35
50.92
47.91
44.05
40.40
37.66
35.97
35.05
34.43
33.79
33.18
32.82
32.91
33.64
34.56
35.06
34.94
34.50
34.53
35.91
39.13
43.91
49.53
54.54
57.62
58.47
57.82
57.16
58.29
62.93
72.44
87.61
106.83
126.13
139.98
142.41
129.70
102.13
64.40
21.88
-15.08
-39.40
-49.82
-49.83
-44.99
-39.23
-33.73
-27.97
-21.63
-15.46
-12.08
-14.52
-23.32
-37.32
-53.45
-68.29
-79.69
-87.46
-92.74
-97.77
-104.20
-112.51
-123.11
-135.74
-149.91
-164.73
-178.43
-187.90
-189.73
-181.57
-157.74
-118.52
-67.23
-8.18
54.95
119.14
181.27
236.55
278.26
299.68
296.59
271.02
230.77
186.20
145.75
113.83
91.31
78.36
74.26
77.19
85.79
98.87
114.69
129.40
139.38
141.77
136.95
126.99
114.22
100.81
87.85
74.83
57.28
30.64
-3.02
-39.81
-74.79
-103.73
-124.20
-136.18
-142.09
-149.97
-166.67
-194.79
-232.48
-275.15
-318.42
-359.45
-397.50
-433.55
-474.38
-524.48
-583.53
-646.87
-708.14
-761.65
-802.36
-824.75
-792.24
-685.10
-510.22
-301.31
-99.96
64.04
178.78
247.01
279.66
294.90
298.07
289.91
271.89
248.49
226.29
211.54
209.07
222.19
245.23
270.32
291.61
307.25
319.40
332.00
348.31
369.92
396.21
424.90
451.72
474.71
495.38
517.23
542.68
569.98
593.22
603.66
593.44
558.80
502.88
434.49
364.01
299.51
243.99
196.44
152.83
108.39
59.70
5.41
-54.33
-119.06
-188.00
-260.63
-328.32
-377.49
-398.35
-391.16
-364.35
-327.46
-287.54
-247.99
-210.59
-175.30
-141.99
-110.87
-81.65
-53.78
-26.35
-2.66
19.74
42.26
65.79
90.03
113.70
135.61
154.39
168.47
176.78
179.45
176.39
167.57
151.96
126.80
94.79
56.84
12.06
-39.28
-94.78
-151.19
-204.89
-253.37
-295.69
-331.93
-363.44
-394.62
-428.09
-463.08
-496.50
-524.49
-544.67
-556.93
-562.83
-565.29
-570.98
-583.70
-602.40
-622.26
-637.45
-643.80
-640.14
-627.68
-580.89
-490.02
-363.66
-225.91
-102.71
-8.57
55.91
99.55
134.43
170.02
205.35
237.43
262.41
277.71
283.39
282.00
277.41
273.76
274.40
279.82
283.80
284.98
284.39
283.92
284.77
286.43
286.85
283.45
274.39
259.63
241.19
221.04
200.64
180.74
161.39
141.84
121.30
102.32
87.87
80.24
78.91
81.79
87.00
93.92
102.71
114.83
137.34
176.65
235.74
311.78
398.47
489.44
580.31
668.34
718.75
707.48
631.33
512.35
381.66
261.53
160.73
79.03
12.10
-43.27
-83.50
-105.45
-109.34
-100.21
-85.86
-73.93
-67.45
-74.23
-98.95
-138.38
-186.54
-236.70
-283.74
-324.68
-358.55
-382.12
-397.57
-409.27
-416.92
-417.39
-405.18
-375.67
-327.74
-264.83
-195.25
-128.98
-74.18
-29.49
8.50
43.64
78.49
113.43
147.08
176.52
200.91
217.84
231.68
245.44
257.92
263.19
253.16
225.92
177.80
112.93
41.48
-24.45
-77.09
-114.76
-140.95
-161.70
-176.41
-188.29
-198.23
-205.32
-207.90
-206.00
-200.90
-194.09
-186.72
-179.39
-173.75
-170.46
-170.24
-173.66
-180.43
-187.93
-190.52
-181.21
-155.12
-113.50
-62.44
-11.29
30.28
58.13
72.57
78.18
81.26
86.69
95.48
106.57
117.97
128.35
137.50
146.51
157.31
171.60
190.17
212.03
232.51
250.36
264.42
271.85
268.36
250.14
215.89
168.31
113.60
61.69
17.75
-15.53
-39.38
-57.46
-73.72
-90.34
-104.10
-112.74
-109.75
-89.59
-50.72
0.94
54.33
97.30
121.06
123.73
109.54
86.76
62.79
41.48
20.49
-5.24
-37.98
-78.03
-123.73
-173.52
-227.09
-286.28
-342.13
-386.10
-410.74
-411.23
-385.13
-332.43
-257.49
-169.77
-82.52
-8.20
44.21
73.07
83.52
83.75
81.04
79.09
78.38
77.86
77.11
75.68
73.78
71.91
70.19
68.44
65.94
62.36
57.94
53.70
50.16
47.59
45.95
44.76
43.39
41.20
37.95
33.98
30.11
26.93
24.76
23.54
22.87
22.20
21.05
19.22
16.84
14.38
12.22
10.62
9.60
9.00
8.56
7.98
7.12
5.93
4.54
3.15
1.99
1.21
0.86
0.89
1.11
1.28
1.13
0.50
-0.72
-2.22
-3.62
-4.54
-4.85
-4.71
-4.62
-5.19
-6.86
-9.64
-13.01
-16.18
-18.34
-19.15
-18.95
-18.66
-19.47
-22.22
-26.95
-32.83
-38.43
-42.46
-44.33
-44.52
-44.50
-45.84
-49.70
-56.06
-63.69
-70.58
-74.50
-73.29
-65.18
-49.16
-25.77
1.91
28.65
48.12
55.28
48.90
32.54
13.38
-0.95
-5.36
0.49
13.01
27.14
39.11
47.72
53.83
58.50
61.84
63.01
60.96
55.58
48.06
40.36
34.51
31.52
31.06
31.73
31.85
30.12
26.30
21.13
15.97
12.12
10.22
10.03
10.68
11.08
10.43
8.53
5.82
3.06
0.98
-0.05
-0.14
0.26
0.62
0.53
-0.11
-1.11
-2.16
-2.97
-3.40
-3.50
-3.41
-3.30
-3.26
-3.31
-3.40
-3.48
-3.52
-3.53
-3.56
-3.60
-3.62
-3.56
-3.40
-3.12
-2.80
-2.53
-2.42
-2.51
-2.76
-3.03
-3.14
-2.97
-2.51
-1.93
-1.50
-1.47
-1.96
-2.84
-3.78
-4.33
-4.20
-3.35
-2.17
-1.24
-1.12
-2.08
-3.88
-5.84
-7.10
-7.07
-5.71
-3.63
-1.88
-1.42
-2.70
-5.36
-8.30
-10.28
-10.48
-8.84
-6.11
-3.54
-2.32
-3.45
-7.60
-15.04
-25.13
-35.83
-43.56
-44.14
-34.56
-14.67
12.02
39.34
60.90
72.57
73.81
67.17
56.39
44.41
32.45
20.31
7.59
-5.49
-17.34
-26.34
-31.69
-33.82
-33.99
-33.63
-33.67
-34.13
-34.34
-33.38
-30.79
-26.74
-22.00
-17.76
-15.02
-14.16
-14.72
-15.73
-16.06
-14.87
-11.96
-7.73
-2.98
1.47
5.05
7.53
9.00
9.55
9.36
8.37
6.36
3.19
-1.13
-6.31
-11.80
-16.98
-21.39
-24.49
-26.36
-27.35
-27.92
-28.41
-28.98
-29.55
-29.85
-29.59
-28.24
-25.99
-23.29
-20.59
-18.07
-15.42
-11.95
-6.82
0.64
11.02
23.74
37.59
51.32
64.13
75.99
87.64
100.14
110.93
120.43
128.37
133.86
136.09
134.78
130.64
125.10
119.80
116.07
115.35
118.20
124.47
132.70
139.58
140.24
129.80
105.86
70.34
29.58
-8.39
-36.97
-53.54
-59.97
-60.79
-60.50
-61.75
-64.20
-66.43
-67.79
-68.86
-70.93
-74.95
-80.74
-87.01
-92.01
-94.32
-93.78
-91.56
-89.50
-89.26
-91.74
-94.73
-97.62
-99.32
-98.72
-95.42
-89.79
-82.70
-74.91
-66.84
-59.64
-51.51
-40.93
-27.17
-10.55
7.74
25.98
42.56
56.94
68.10
76.20
81.83
85.48
87.05
86.00
81.28
72.43
59.32
42.91
25.01
7.33
-8.95
-23.73
-37.39
-50.85
-62.66
-73.76
-84.49
-94.89
-104.86
-113.89
-120.52
-122.39
-117.78
-107.29
-95.52
-88.89
-92.35
-106.02
-123.63
-134.79
-129.70
-104.69
-63.56
-16.05
27.20
58.44
73.98
73.22
56.16
23.95
-20.18
-68.88
-111.29
-136.15
-136.06
-111.18
-69.07
-21.35
21.73
53.95
74.73
87.20
95.77
103.76
112.58
122.26
130.35
137.19
143.07
147.80
150.43
149.92
145.89
138.85
130.44
122.64
117.25
114.57
113.66
112.99
111.23
107.90
103.43
98.83
95.25
94.05
96.06
101.40
108.72
114.89
115.27
105.17
82.12
47.55
6.94
-32.54
-64.77
-87.12
-100.64
-108.53
-114.16
-119.64
-125.49
-131.32
-137.10
-143.08
-151.26
-162.64
-175.99
-187.38
-191.22
-182.18
-158.23
-122.12
-80.99
-43.58
-16.70
-2.79
0.37
-2.36
-6.10
-8.20
-8.55
-8.48
-9.07
-10.38
-11.56
-11.64
-10.18
-7.21
-2.90
2.64
9.72
18.97
30.59
44.23
59.11
74.12
88.32
101.14
112.44
121.81
130.46
139.66
150.18
161.25
169.96
171.70
162.01
139.40
105.91
67.89
33.30
8.51
-4.14
-6.68
-3.69
0.33
2.90
3.71
3.76
3.46
2.12
-1.57
-8.44
-18.19
-29.32
-39.96
-48.56
-54.58
-58.64
-61.32
-64.05
-67.51
-71.40
-74.78
-76.61
-76.34
-74.09
-70.69
-67.64
-65.60
-64.85
-65.03
-65.32
-64.78
-62.69
-58.77
-53.12
-46.53
-39.00
-30.71
-21.71
-12.09
-2.24
7.13
14.95
20.05
21.42
18.74
12.24
2.82
-8.25
-19.76
-30.91
-41.42
-51.35
-60.89
-69.75
-77.46
-83.22
-86.32
-86.50
-84.25
-80.69
-77.07
-74.31
-72.31
-70.09
-66.07
-58.85
-47.86
-33.79
-18.44
-3.58
8.09
14.55
14.35
7.02
-5.88
-20.59
-31.64
-33.53
-22.98
-0.77
28.23
56.74
78.11
89.42
91.58
88.03
82.40
76.69
70.64
62.84
52.11
38.34
23.33
8.79
-4.55
-16.96
-29.17
-41.81
-54.44
-65.65
-73.43
-74.74
-67.72
-52.00
-28.64
0.51
33.38
68.48
105.20
136.60
160.00
174.93
182.35
183.74
180.61
174.00
164.50
152.53
138.50
124.19
111.28
101.09
94.17
90.57
89.51
89.55
89.04
86.81
83.26
79.42
76.44
75.03
76.02
79.80
86.37
94.73
102.34
105.44
99.55
82.81
53.65
15.42
-25.15
-60.68
-85.95
-99.64
-103.95
-102.65
-99.41
-96.08
-92.18
-86.64
-79.25
-71.07
-63.72
-58.71
-56.01
-55.36
-55.71
-55.27
-52.93
-48.86
-44.39
-41.26
-41.11
-44.04
-50.49
-59.64
-69.63
-79.04
-88.25
-100.12
-114.10
-131.24
-151.59
-175.74
-202.28
-227.85
-248.79
-262.74
-269.41
-270.38
-267.68
-249.96
-213.82
-164.15
-110.27
-58.41
-7.71
46.74
107.99
174.48
239.76
292.88
325.73
337.04
331.44
317.00
305.24
298.25
295.91
296.47
295.12
286.98
268.40
236.97
193.07
139.82
81.70
24.09
-29.34
-78.67
-126.06
-167.69
-200.74
-223.20
-234.93
-238.62
-237.89
-236.34
-236.47
-238.35
-240.14
-240.47
-238.38
-233.50
-225.72
-213.70
-195.57
-169.55
-134.10
-87.90
-30.72
36.91
112.70
191.86
267.68
332.73
380.81
408.65
416.59
407.62
386.45
357.92
325.88
292.75
259.47
225.77
190.81
153.61
113.24
69.72
24.87
-16.79
-48.09
-60.80
-48.97
-12.62
40.63
97.63
145.07
175.42
189.86
196.42
204.18
217.57
233.89
245.53
245.10
229.87
202.66
168.78
133.01
97.75
63.46
30.49
0.81
-21.77
-33.35
-32.14
-20.27
-2.92
13.60
24.01
25.50
18.00
3.86
-13.66
-31.84
-50.52
-71.01
-94.86
-122.86
-154.73
-188.79
-221.92
-250.23
-270.24
-282.83
-290.56
-296.32
-302.64
-311.97
-325.92
-343.84
-362.40
-377.11
-389.89
-403.14
-416.40
-426.26
-429.65
-425.64
-415.01
-399.64
-382.41
-375.73
-388.51
-419.02
-455.73
-484.88
-496.95
-488.47
-461.99
-425.34
-401.32
-409.66
-456.59
-534.24
-628.68
-726.12
-814.14
-882.53
-850.66
-683.76
-417.33
-132.79
104.53
272.87
380.83
446.64
486.09
507.27
505.85
478.15
431.24
381.11
341.88
318.99
310.38
311.22
314.80
309.36
289.29
259.66
232.52
217.69
217.89
229.99
248.97
270.78
288.59
299.36
306.95
319.66
344.51
383.12
431.04
478.91
514.49
523.80
498.29
440.05
361.66
280.89
213.78
169.53
148.63
144.51
147.22
148.97
147.14
143.36
139.80
136.07
129.05
115.04
92.85
65.47
39.03
19.58
9.75
7.42
7.19
3.66
-5.39
-18.09
-29.74
-35.73
-33.98
-25.41
-12.89
0.60
12.95
23.00
29.85
32.36
29.40
20.48
6.39
-10.74
-28.19
-43.51
-55.24
-63.00
-67.33
-69.38
-70.61
-72.57
-76.53
-83.15
-92.15
-102.36
-112.12
-119.85
-124.56
-125.88
-123.82
-118.57
-110.37
-99.51
-86.69
-73.13
-60.35
-49.75
-42.09
-37.24
-34.24
-31.80
-28.73
-24.41
-18.88
-12.53
-5.68
1.64
9.69
18.70
28.39
37.87
45.83
50.99
52.70
51.24
47.78
43.90
40.75
38.50
36.05
31.65
23.84
12.42
-1.09
-13.84
-22.73
-25.73
-22.67
-15.12
-5.50
3.99
12.13
18.66
23.79
27.80
30.55
31.44
29.66
24.47
15.62
3.55
-10.38
-24.02
-34.44
-39.49
-38.68
-33.69
-27.63
-23.80
-24.26
-28.96
-36.00
-41.81
-43.77
-41.30
-35.84
-29.85
-25.87
-25.92
-31.27
-42.15
-55.63
-66.81
-69.06
-55.17
-19.62
38.44
113.25
192.70
261.84
309.87
331.79
329.31
308.99
279.24
247.18
217.14
190.51
157.50
116.77
74.84
41.44
21.57
13.45
11.72
11.52
9.20
2.84
-6.06
-16.37
-28.45
-44.41
-67.55
-101.80
-145.82
-190.34
-225.75
-244.50
-245.73
-233.82
-214.81
-193.66
-173.27
-154.24
-136.96
-122.09
-109.21
-97.95
-87.99
-79.16
-71.39
-64.44
-57.35
-50.04
-43.13
-36.82
-31.11
-25.86
-20.57
-14.73
-10.09
-4.12
3.95
13.83
24.88
36.49
48.18
59.85
71.36
82.80
94.77
106.87
118.34
128.28
136.15
141.30
143.96
144.43
143.75
143.23
143.03
142.98
142.21
139.69
132.55
122.98
112.88
104.71
100.54
100.49
103.79
108.25
111.83
110.25
101.95
88.66
74.64
63.90
57.64
55.49
54.26
50.81
38.19
13.43
-20.71
-57.97
-92.37
-121.73
-145.34
-166.25
-187.51
-217.91
-263.15
-322.89
-392.04
-462.66
-526.52
-573.56
-599.04
-560.89
-446.84
-282.85
-117.38
12.27
99.03
141.82
166.17
187.75
209.71
221.87
214.74
196.55
175.53
158.39
145.86
135.92
122.15
97.48
55.57
-1.52
-62.98
-116.48
-153.61
-173.84
-180.83
-182.22
-187.28
-202.77
-227.90
-255.17
-276.82
-289.04
-294.39
-298.35
-282.27
-237.87
-169.54
-91.83
-20.30
34.94
71.37
92.18
104.52
115.73
126.66
134.61
135.86
128.65
114.51
98.08
85.19
80.28
84.09
90.86
94.34
91.00
81.11
67.17
51.87
37.18
24.75
16.63
13.32
15.43
22.86
33.94
45.54
54.06
57.17
54.76
48.57
39.93
29.72
18.36
6.11
-6.48
-18.41
-28.71
-36.90
-43.35
-49.27
-55.93
-63.83
-72.55
-80.86
-87.16
-90.05
-88.76
-83.24
-74.02
-62.67
-49.39
-34.58
-18.46
-1.25
16.69
34.71
51.88
67.15
79.59
88.70
94.27
96.54
96.05
93.45
89.28
83.93
77.57
70.28
62.19
53.33
43.94
34.30
24.68
15.23
6.05
-2.84
-11.46
-19.80
-27.97
-35.87
-43.42
-50.64
-57.53
-64.14
-70.55
-76.85
-83.21
-89.83
-96.59
-103.40
-110.24
-117.04
-123.76
-130.30
-136.57
-142.50
-148.06
-152.73
-156.10
-157.83
-157.57
-154.97
-149.61
-140.91
-127.98
-113.07
-97.20
-81.18
-65.65
-51.15
-38.09
-26.75
-17.33
-9.94
-4.62
-0.92
1.59
3.26
4.41
5.28
6.00
6.59
6.92
6.72
6.00
4.60
2.33
-1.05
-5.68
-11.65
-18.93
-27.32
-36.58
-46.08
-55.20
-63.33
-69.95
-74.64
-77.13
-77.37
-75.46
-71.67
-66.28
-59.62
-52.05
-43.87
-35.35
-26.69
-18.04
-9.54
-1.34
6.42
13.56
19.89
25.23
29.42
32.40
34.14
34.70
34.19
32.77
30.67
28.18
25.68
23.56
22.18
21.81
22.53
24.28
26.81
29.84
33.14
36.62
40.34
44.40
48.95
54.00
59.43
64.97
70.35
75.43
80.31
85.28
90.84
97.42
105.25
114.31
124.30
134.71
145.15
155.43
165.72
176.63
189.29
205.07
225.14
249.65
277.16
304.68
328.64
346.35
357.11
362.22
363.71
362.97
359.63
351.66
336.43
311.81
276.67
230.72
174.41
109.23
38.46
-32.56
-97.21
-149.50
-186.24
-208.38
-220.30
-227.88
-235.69
-245.42
-255.72
-263.46
-265.37
-259.35
-244.79
-222.19
-192.47
-156.64
-115.73
-71.07
-24.32
22.77
68.79
113.42
157.50
202.35
248.50
294.60
337.19
371.45
392.93
399.15
390.65
370.66
343.77
314.36
285.27
257.52
230.66
203.68
175.91
147.50
119.48
93.43
70.84
52.57
38.57
28.08
20.12
13.97
9.51
6.95
6.45
7.74
10.04
12.45
14.32
15.51
16.26
16.92
17.67
18.39
18.82
18.67
17.81
16.32
14.47
12.84
12.00
12.43
13.96
15.47
14.93
9.54
-3.99
-28.99
-68.09
-121.88
-187.57
-258.29
-324.02
-374.23
-401.28
-403.10
-383.51
-350.18
-311.10
-271.67
-233.65
-196.16
-157.63
-117.18
-74.69
-30.17
16.70
66.19
117.45
167.85
213.39
250.00
274.90
287.53
289.44
283.43
272.62
259.84
247.43
237.17
230.13
226.39
225.12
224.82
223.91
221.12
215.61
206.64
193.24
174.23
148.50
115.68
76.29
32.01
-14.96
-62.46
-109.01
-154.25
-199.02
-245.20
-294.85
-349.03
-406.70
-464.14
-515.48
-554.32
-575.77
-578.02
-562.85
-534.91
-500.10
-463.97
-430.58
-401.98
-378.13
-357.29
-336.46
-312.26
-281.86
-243.73
-197.91
-145.54
-88.21
-27.35
35.44
98.03
157.40
209.79
251.53
279.86
293.45
292.27
277.07
248.78
208.55
158.39
101.82
44.27
-7.63
-47.58
-71.42
-78.40
-71.29
-55.26
-36.19
-18.92
-6.25
1.21
4.36
4.79
3.98
2.99
2.38
2.50
3.65
6.25
10.76
17.35
25.40
33.39
39.11
40.43
36.47
28.33
19.12
12.90
13.30
22.12
38.78
61.01
85.57
109.18
128.64
141.04
144.50
139.70
131.15
126.99
136.24
164.56
210.66
265.79
317.15
353.42
369.64
368.43
357.28
343.86
331.93
320.67
306.48
285.85
256.75
218.20
169.04
107.76
34.19
-48.68
-133.20
-208.64
-264.42
-294.00
-297.30
-280.11
-251.65
-221.95
-200.26
-194.42
-210.42
-250.84
-312.99
-388.11
-462.90
-523.87
-562.03
-575.96
-571.06
-555.93
-537.96
-520.26
-501.79
-479.47
-450.85
-415.52
-374.90
-330.79
-284.45
-236.42
-186.73
-135.65
-84.07
-33.48
14.61
59.28
100.80
140.60
180.60
221.96
263.66
302.23
332.60
350.25
353.14
342.73
323.12
299.23
274.98
252.41
232.17
214.50
200.03
189.51
182.99
179.24
175.84
170.27
161.03
148.44
134.31
121.29
111.78
107.60
109.46
116.89
128.09
140.05
149.14
152.00
146.55
132.75
112.72
90.06
68.68
51.67
40.46
34.86
33.43
34.11
34.49
31.93
23.85
8.30
-15.08
-44.34
-75.41
-102.99
-122.11
-129.62
-124.95
-109.99
-88.19
-63.36
-38.82
-16.94
0.72
13.16
19.59
19.50
13.07
1.69
-12.06
-25.17
-35.67
-43.77
-52.11
-64.38
-83.00
-107.13
-132.38
-152.43
-161.75
-157.73
-141.28
-115.59
-84.18
-49.42
-12.45
25.81
63.37
96.62
121.15
133.48
132.86
121.98
106.27
91.96
83.77
83.45
89.67
99.13
108.22
114.44
116.84
115.78
112.15
106.81
100.28
92.79
84.41
75.16
64.96
53.73
41.43
28.18
14.29
0.25
-13.54
-26.76
-39.23
-50.81
-61.23
-70.03
-76.62
-80.48
-81.34
-79.31
-74.79
-68.37
-60.67
-52.29
-43.82
-35.86
-29.02
-23.68
-19.95
-17.46
-15.54
-13.43
-10.55
-6.84
-2.68
1.16
3.89
4.95
4.24
2.06
-1.00
-4.29
-7.30
-9.72
-11.42
-12.48
-13.08
-13.56
-14.28
-15.57
-17.53
-19.88
-22.02
-23.16
-22.62
-20.11
-15.83
-10.40
-4.66
0.65
5.00
8.17
10.12
10.93
10.80
9.89
8.46
6.76
5.05
3.53
2.33
1.43
0.69
-0.07
-0.97
-2.00
-3.04
-3.94
-4.64
-5.21
-5.90
-7.02
-8.83
-11.48
-14.91
-18.83
-22.75
-25.99
-27.88
-27.89
-25.81
-21.87
-16.66
-10.99
-5.61
-1.07
2.37
4.69
6.04
6.62
6.62
6.20
5.47
4.52
3.50
2.57
1.86
1.45
1.30
1.29
1.26
1.13
0.91
0.67
0.47
0.24
-0.24
-1.29
-3.17
-6.01
-9.69
-13.85
-17.96
-21.43
-23.67
-24.26
-23.01
-19.96
-15.46
-10.05
-4.40
0.85
5.23
8.51
10.65
11.80
12.12
11.78
10.95
9.79
8.53
7.34
6.36
5.56
4.84
4.06
3.19
2.32
1.59
1.10
0.70
0.04
-1.31
-3.68
-7.10
-11.29
-15.67
-19.58
-22.44
-23.83
-23.51
-21.41
-17.64
-12.51
-6.52
-0.32
5.37
9.99
13.18
14.89
15.34
14.91
14.04
13.08
12.25
11.60
11.09
10.61
10.12
9.65
9.23
8.89
8.59
8.24
7.77
7.16
6.44
5.58
4.50
2.98
0.84
-1.97
-5.21
-8.35
-10.71
-11.69
-10.96
-8.54
-4.79
-0.33
4.16
8.10
11.12
13.01
13.76
13.44
12.16
10.12
7.67
5.24
3.29
2.17
1.92
2.33
2.96
3.39
3.39
2.96
2.27
1.53
0.83
0.09
-0.84
-2.14
-3.88
-5.98
-8.17
-10.08
-11.29
-11.39
-10.11
-7.37
-3.34
1.55
6.64
11.21
14.60
16.42
16.61
15.38
13.18
10.46
7.67
5.12
3.02
1.46
0.42
-0.21
-0.58
-0.86
-1.21
-1.70
-2.38
-3.33
-4.65
-6.48
-8.92
-12.03
-15.65
-19.38
-22.65
-24.78
-25.22
-23.67
-20.17
-15.15
-9.24
-3.14
2.57
7.40
11.06
13.30
14.01
13.23
11.21
8.43
5.44
2.76
0.69
-0.73
-1.68
-2.42
-3.13
-3.84
-4.46
-4.88
-5.09
-5.21
-5.50
-6.25
-7.66
-9.83
-12.60
-15.63
-18.32
-20.04
-20.16
-18.31
-14.44
-8.90
-2.32
4.53
10.98
16.52
20.89
24.07
26.10
27.11
27.22
26.58
25.41
23.95
22.43
21.03
19.76
18.52
17.15
15.53
13.63
11.55
9.41
7.32
5.26
3.16
0.85
-1.79
-4.89
-8.47
-12.39
-16.34
-19.84
-22.31
-23.20
-22.19
-19.31
-14.93
-9.65
-4.16
1.00
5.49
9.19
12.07
14.15
15.39
15.79
15.41
14.41
13.06
11.62
10.35
9.32
8.49
7.72
6.87
5.87
4.73
3.53
2.35
1.25
0.23
-0.76
-1.81
-2.95
-4.18
-5.48
-6.85
-8.36
-10.12
-12.20
-14.50
-16.69
-18.27
-18.64
-17.38
-14.37
-9.86
-4.39
1.35
6.77
11.43
15.08
17.64
19.14
19.73
19.60
18.99
18.13
17.18
16.16
14.99
13.55
11.77
9.71
7.59
5.72
4.43
3.88
4.00
4.49
4.90
4.82
4.03
2.63
0.94
-0.67
-1.94
-2.90
-3.90
-5.40
-7.81
-11.26
-15.50
-19.94
-23.80
-26.31
-26.91
-25.31
-21.60
-16.15
-9.61
-2.72
3.81
9.37
13.61
16.40
17.83
18.08
17.38
16.01
14.23
12.32
10.52
8.99
7.78
6.89
6.27
5.89
5.72
5.69
5.70
5.58
5.21
4.55
3.63
2.57
1.43
0.23
-1.13
-2.73
-4.59
-6.70
-8.98
-11.35
-13.75
-16.02
-17.91
-19.02
-18.92
-17.31
-14.16
-9.79
-4.75
0.33
4.91
8.70
11.54
13.39
14.22
14.02
12.86
10.95
8.70
6.60
5.08
4.37
4.37
4.81
5.30
5.57
5.54
5.29
4.91
4.46
3.89
3.12
2.14
0.97
-0.28
-1.56
-2.87
-4.31
-6.03
-8.10
-10.50
-13.06
-15.48
-17.36
-18.28
-17.90
-16.10
-13.03
-9.05
-4.71
-0.50
3.21
6.22
8.42
9.75
10.15
9.65
8.39
6.66
4.84
3.27
2.15
1.53
1.30
1.33
1.51
1.78
2.09
2.38
2.57
2.59
2.38
1.90
1.12
0.04
-1.29
-2.81
-4.44
-6.14
-7.92
-9.79
-11.69
-13.47
-14.81
-15.31
-14.66
-12.71
-9.64
-5.87
-1.95
1.57
4.31
6.13
7.07
7.28
6.94
6.16
5.03
3.64
2.11
0.65
-0.55
-1.37
-1.77
-1.84
-1.72
-1.56
-1.51
-1.65
-2.03
-2.64
-3.45
-4.42
-5.48
-6.53
-7.51
-8.36
-9.12
-9.86
-10.69
-11.68
-12.75
-13.61
-13.87
-13.11
-11.13
-8.04
-4.20
-0.15
3.58
6.60
8.67
9.68
9.66
8.75
7.18
5.27
3.37
1.74
0.56
-0.11
-0.35
-0.30
-0.15
-0.11
-0.36
-0.94
-1.80
-2.82
-3.84
-4.78
-5.61
-6.34
-7.02
-7.69
-8.45
-9.36
-10.46
-11.71
-12.95
-13.91
-14.27
-13.81
-12.40
-10.14
-7.22
-3.95
-0.70
2.18
4.37
5.67
5.97
5.32
3.94
2.13
0.28
-1.31
-2.42
-3.01
-3.16
-3.05
-2.88
-2.78
-2.79
-2.86
-2.88
-2.74
-2.42
-2.00
-1.62
-1.47
-1.76
-2.61
-4.03
-5.87
-7.82
-9.52
-10.62
-10.87
-10.25
-8.84
-6.83
-4.42
-1.79
0.86
3.31
5.26
6.43
6.62
5.81
4.16
1.98
-0.30
-2.26
-3.58
-4.11
-3.90
-3.20
-2.35
-1.73
-1.59
-1.97
-2.73
-3.58
-4.26
-4.61
-4.62
-4.52
-4.61
-5.22
-6.50
-8.38
-10.53
-12.44
-13.60
-13.62
-12.39
-10.08
-7.06
-3.85
-0.91
1.39
2.85
3.42
3.19
2.27
0.81
-1.02
-3.00
-4.88
-6.38
-7.29
-7.57
-7.30
-6.70
-6.02
-5.46
-5.07
-4.86
-4.75
-4.68
-4.63
-4.62
-4.71
-4.97
-5.48
-6.29
-7.36
-8.59
-9.73
-10.49
-10.51
-9.56
-7.59
-4.74
-1.38
2.05
5.11
7.48
8.96
9.44
8.91
7.44
5.21
2.51
-0.22
-2.53
-4.11
-4.88
-4.98
-4.69
-4.29
-3.96
-3.72
-3.56
-3.42
-3.33
-3.37
-3.67
-4.35
-5.49
-7.09
-9.08
-11.28
-13.39
-15.09
-16.02
-15.96
-14.77
-12.51
-9.33
-5.49
-1.32
2.88
6.77
10.10
12.64
14.26
14.93
14.78
14.06
13.17
12.50
12.35
12.75
13.49
14.17
14.41
14.02
13.09
12.03
11.32
11.38
12.32
13.94
15.75
17.21
17.86
17.51
16.36
15.01
14.40
15.68
19.82
27.15
36.90
47.14
55.18
58.56
55.98
47.87
36.16
23.37
11.59
1.86
-5.81
-11.93
-16.80
-20.29
-21.96
-21.49
-19.14
-15.80
-12.60
-10.55
-10.07
-10.93
-12.35
-13.35
-13.17
-11.55
-8.90
-6.04
-3.83
-2.71
-2.48
-2.29
-0.95
2.75
9.76
20.57
35.13
52.73
72.07
91.43
108.99
123.32
133.63
140.02
143.26
144.44
144.70
144.94
145.76
147.45
149.92
152.69
154.87
155.38
153.24
147.94
139.64
129.07
117.20
104.92
92.78
81.06
69.79
58.78
47.44
34.44
17.94
-3.70
-30.57
-60.40
-88.87
-111.40
-125.31
-131.28
-132.96
-134.80
-139.40
-146.16
-151.87
-152.98
-147.88
-137.81
-125.82
-114.82
-105.87
-97.94
-88.99
-77.54
-63.73
-49.12
-35.92
-25.81
-19.51
-16.65
-16.37
-17.71
-19.80
-21.90
-23.51
-24.63
-26.12
-29.70
-37.47
-50.93
-70.04
-92.77
-115.65
-134.95
-148.07
-154.22
-154.18
-149.35
-140.88
-129.26
-114.64
-97.52
-79.20
-61.63
-46.74
-35.80
-28.90
-25.20
-23.40
-22.39
-21.57
-21.02
-21.34
-23.45
-28.37
-36.94
-49.64
-66.36
-86.16
-107.46
-128.23
-146.38
-160.02
-167.64
-168.15
-160.92
-146.19
-125.37
-101.18
-77.20
-56.90
-42.62
-34.94
-32.77
-33.95
-36.18
-37.62
-37.18
-34.43
-29.43
-22.73
-15.29
-8.40
-3.22
-0.44
0.12
-0.49
-0.78
0.60
4.18
9.34
14.38
17.13
15.86
10.41
2.52
-4.64
-7.91
-5.57
1.89
12.09
22.01
29.28
32.83
32.60
28.99
22.41
13.52
3.74
-4.56
-8.47
-5.75
4.15
19.54
37.10
53.07
64.54
70.27
70.57
66.88
60.92
54.22
47.83
42.34
38.00
34.87
32.92
31.93
31.58
31.38
30.83
29.57
27.51
24.84
21.97
19.31
17.08
15.22
13.38
11.09
7.94
3.80
-1.06
-6.06
-10.41
-13.39
-14.59
-13.91
-11.63
-8.15
-3.96
0.51
4.86
8.69
11.61
13.32
13.71
12.96
11.49
9.85
8.51
7.71
7.40
7.38
7.38
7.20
6.79
6.27
5.76
5.36
5.04
4.64
3.90
2.54
0.34
-2.73
-6.48
-10.52
-14.30
-17.18
-18.60
-18.14
-15.63
-11.18
-5.21
1.54
8.25
14.12
18.58
21.36
22.44
22.03
20.43
18.03
15.28
12.69
10.69
9.53
9.17
9.32
9.57
9.59
9.25
8.57
7.68
6.60
5.24
3.38
0.78
-2.68
-6.96
-11.76
-16.55
-20.63
-23.26
-23.84
-22.06
-18.07
-12.38
-5.72
1.14
7.56
13.09
17.45
20.49
22.15
22.52
21.81
20.37
18.63
16.98
15.66
14.78
14.22
13.78
13.23
12.41
11.26
9.82
8.23
6.57
4.85
2.96
0.71
-2.10
-5.59
-9.66
-13.99
-17.97
-20.88
-22.00
-20.85
-17.35
-11.85
-5.08
2.10
8.88
14.73
19.36
22.73
24.92
26.05
26.26
25.71
24.67
23.49
22.54
22.09
22.27
22.93
23.75
24.35
24.41
23.79
22.52
20.77
18.70
16.43
13.95
11.11
7.78
3.83
-0.77
-5.88
-11.14
-15.99
-19.66
-21.38
-20.58
-17.15
-11.48
-4.35
3.23
10.38
16.50
21.32
24.76
26.84
27.58
27.02
25.30
22.77
19.94
17.34
15.39
14.30
14.03
14.49
15.59
17.30
19.63
22.38
25.18
27.41
28.48
27.98
25.81
22.13
17.25
11.41
4.95
-1.67
-7.69
-12.11
-13.90
-12.44
-7.78
-0.70
7.56
15.76
23.02
28.97
33.58
36.82
38.44
37.98
35.01
29.60
22.42
14.68
7.70
2.45
-0.76
-2.26
-2.74
-2.95
-3.55
-5.07
-7.89
-12.19
-17.63
-23.30
-27.87
-30.08
-29.47
-26.71
-23.48
-21.74
-22.78
-26.57
-31.65
-35.62
-35.87
-30.34
-17.90
1.44
26.35
54.16
81.09
103.00
116.48
119.97
114.33
102.53
88.45
75.50
65.57
58.85
54.38
51.01
48.07
45.52
43.61
42.38
41.44
40.16
37.99
34.86
31.25
27.92
25.50
24.07
23.15
21.90
19.60
16.01
11.48
6.82
2.87
0.25
-0.85
-0.59
0.63
2.39
4.33
6.18
7.70
8.66
8.79
7.87
5.81
2.79
-0.75
-4.21
-7.00
-8.78
-9.58
-9.76
-9.81
-10.13
-10.90
-12.00
-13.22
-14.31
-15.17
-15.82
-16.41
-17.10
-18.08
-19.49
-21.39
-23.69
-26.09
-28.07
-29.05
-28.49
-26.12
-21.98
-16.51
-10.34
-4.22
1.23
5.59
8.69
10.61
11.52
11.62
11.15
10.32
9.40
8.69
8.43
8.75
9.60
10.75
12.00
13.17
14.23
15.12
15.70
15.66
14.65
12.50
9.46
6.18
3.57
2.43
3.17
5.69
9.57
14.28
19.48
24.94
30.43
35.51
39.54
41.88
42.24
40.97
38.99
37.48
37.27
38.46
40.33
41.69
41.42
38.89
34.06
27.31
18.98
9.21
-2.08
-14.85
-28.66
-42.65
-55.68
-66.80
-75.51
-81.81
-85.93
-88.08
-88.15
-85.85
-80.93
-73.52
-64.29
-54.27
-44.63
-36.32
-29.93
-25.62
-23.23
-22.35
-22.49
-23.09
-23.69
-23.91
-23.56
-22.64
-21.30
-19.76
-18.24
-16.93
-15.93
-15.33
-15.17
-15.45
-16.17
-17.34
-18.92
-20.93
-23.28
-25.76
-27.91
-29.10
-28.64
-26.01
-21.12
-14.37
-6.62
1.11
7.89
13.13
16.57
18.27
18.49
17.60
16.01
14.15
12.38
10.93
9.85
8.99
8.11
7.02
5.63
4.01
2.36
0.82
-0.58
-2.03
-3.94
-6.71
-10.56
-15.28
-20.21
-24.36
-26.75
-26.77
-24.35
-20.04
-14.69
-9.24
-4.40
-0.59
2.02
3.48
4.01
3.93
3.51
2.72
0.97
-2.80
-9.56
-19.73
-32.80
-47.43
-62.06
-75.49
-87.24
-97.34
-105.81
-112.15
-115.23
-113.66
-106.60
-94.27
-78.10
-60.28
-43.10
-28.22
-16.37
-7.32
-0.20
6.07
12.34
18.98
25.87
32.44
37.86
41.20
41.72
39.03
33.33
25.36
16.49
8.62
3.83
3.89
9.51
19.79
32.19
43.45
51.04
54.56
56.13
59.41
67.50
80.96
97.09
111.00
117.83
115.04
103.23
85.24
64.35
42.99
22.48
3.95
-11.08
-20.95
-25.18
-25.76
-27.10
-34.25
-50.06
-73.22
-98.33
-118.21
-127.26
-123.88
-110.67
-92.83
-75.69
-62.81
-55.48
-53.05
-53.70
-54.90
-53.90
-48.29
-36.79
-19.86
0.09
19.42
34.47
42.82
43.95
39.28
31.73
24.97
22.63
27.34
39.86
58.61
79.99
99.38
112.71
117.78
114.79
105.94
94.35
82.90
73.65
67.62
64.96
64.95
65.99
65.51
60.53
48.62
29.14
3.97
-22.61
-45.21
-59.21
-62.40
-55.79
-42.98
-28.67
-16.85
-9.63
-6.99
-7.46
-9.18
-10.73
-11.54
-11.77
-11.79
-11.76
-11.44
-10.40
-8.42
-5.93
-3.98
-3.73
-5.85
-9.86
-14.06
-16.11
-13.94
-6.74
4.64
17.87
30.06
38.79
42.90
42.62
39.19
34.13
28.60
23.11
17.71
12.35
7.28
3.02
0.11
-1.25
-1.42
-1.27
-1.65
-3.06
-5.31
-7.58
-8.83
-8.17
-5.32
-0.65
4.95
10.44
14.90
17.80
18.96
18.51
16.66
13.65
9.75
5.34
1.01
-2.43
-4.08
-3.29
0.07
5.47
11.85
17.96
22.75
25.62
26.49
25.66
23.66
21.11
18.66
16.92
16.36
17.21
19.29
22.07
24.67
26.18
25.79
23.04
17.92
10.89
2.79
-5.34
-12.52
-18.08
-21.78
-23.85
-24.79
-25.15
-25.31
-25.33
-25.12
-24.57
-23.70
-22.73
-22.01
-21.79
-22.23
-23.32
-24.95
-26.93
-29.01
-30.79
-31.74
-31.32
-29.07
-24.85
-18.81
-11.39
-3.16
5.26
13.16
19.81
24.43
26.43
25.58
22.18
16.99
11.03
5.31
0.54
-2.92
-5.13
-6.41
-7.31
-8.45
-10.41
-13.61
-18.17
-23.78
-29.96
-36.24
-42.50
-49.07
-56.59
-65.53
-75.70
-85.92
-94.19
-98.14
-95.80
-86.25
-69.93
-48.52
-24.44
-0.21
22.16
41.46
57.26
69.57
78.57
84.30
86.80
86.23
83.11
78.33
72.97
67.85
63.37
59.43
55.59
51.51
47.03
42.33
37.68
33.29
29.13
24.96
20.38
15.08
9.03
2.60
-3.40
-7.94
-10.04
-9.06
-5.03
1.41
9.15
16.94
23.65
28.51
31.14
31.53
29.98
27.06
23.51
20.12
17.50
15.90
15.18
14.82
14.17
12.62
9.75
5.34
-0.62
-8.03
-16.69
-26.23
-36.24
-46.22
-55.70
-64.14
-70.96
-75.46
-76.99
-75.02
-69.39
-60.39
-48.71
-35.26
-20.94
-6.61
7.00
19.13
29.05
36.14
40.03
40.82
39.03
35.52
31.16
26.71
22.62
19.02
15.91
13.21
10.92
9.05
7.62
6.58
5.73
4.74
3.26
1.02
-2.08
-5.84
-9.79
-13.19
-15.26
-15.41
-13.41
-9.54
-4.43
1.12
6.41
10.99
14.66
17.34
18.93
19.31
18.40
16.35
13.52
10.48
7.78
5.74
4.34
3.37
2.47
1.40
0.08
-1.39
-2.94
-4.53
-6.31
-8.55
-11.53
-15.33
-19.73
-24.13
-27.66
-29.43
-28.74
-25.34
-19.53
-12.04
-3.85
4.05
10.89
16.24
19.97
22.16
22.96
22.53
21.08
18.86
16.23
13.57
11.17
9.12
7.36
5.72
4.01
2.23
0.48
-1.09
-2.39
-3.49
-4.61
-6.11
-8.25
-11.19
-14.75
-18.48
-21.71
-23.67
-23.70
-21.51
-17.19
-11.19
-4.24
2.89
9.52
15.13
19.43
22.33
23.85
24.12
23.34
21.80
19.80
17.71
15.81
14.27
13.13
12.25
11.47
10.59
9.49
8.14
6.52
4.65
2.57
0.35
-1.94
-4.22
-6.48
-8.84
-11.43
-14.37
-17.66
-21.11
-24.33
-26.82
-28.03
-27.56
-25.20
-21.01
-15.35
-8.81
-2.11
4.09
9.29
13.19
15.73
16.98
17.09
16.27
14.81
13.01
11.21
9.64
8.43
7.58
6.97
6.49
6.03
5.53
5.01
4.43
3.78
3.01
2.04
0.85
-0.58
-2.21
-3.99
-5.85
-7.75
-9.73
-11.87
-14.29
-17.01
-19.95
-22.78
-25.02
-26.08
-25.50
-23.07
-18.95
-13.59
-7.62
-1.66
3.82
8.46
12.08
14.53
15.78
15.87
15.01
13.57
11.95
10.52
9.48
8.89
8.65
8.62
8.73
8.91
9.10
9.17
8.92
8.14
6.74
4.75
2.40
0.02
-2.10
-3.83
-5.22
-6.48
-7.88
-9.65
-11.89
-14.52
-17.36
-20.06
-22.25
-23.49
-23.39
-21.67
-18.30
-13.55
-7.97
-2.27
2.89
7.03
9.94
11.66
12.34
12.20
11.40
10.15
8.62
7.07
5.70
4.63
3.89
3.44
3.17
3.05
3.01
3.01
2.95
2.73
2.24
1.45
0.40
-0.79
-2.04
-3.35
-4.77
-6.42
-8.37
-10.62
-13.08
-15.61
-17.98
-19.93
-21.13
-21.26
-20.05
-17.38
-13.39
-8.43
-3.08
2.03
6.34
9.46
11.23
11.68
11.02
9.61
7.87
6.15
4.75
3.74
3.11
2.73
2.49
2.32
2.22
2.15
2.05
1.79
1.22
0.27
-1.02
-2.49
-3.96
-5.28
-6.36
-7.22
-8.00
-8.83
-9.89
-11.29
-13.02
-14.94
-16.73
-17.97
-18.25
-17.26
-14.95
-11.49
-7.27
-2.78
1.52
5.28
8.26
10.33
11.43
11.56
10.80
9.31
7.37
5.35
3.61
2.41
1.89
1.96
2.42
2.98
3.38
3.43
3.07
2.32
1.28
0.08
-1.16
-2.36
-3.51
-4.67
-5.98
-7.59
-9.61
-12.02
-14.69
-17.30
-19.44
-20.69
-20.71
-19.31
-16.54
-12.64
-8.08
-3.40
0.89
4.40
6.93
8.44
9.01
8.79
7.91
6.56
4.95
3.37
2.13
1.47
1.44
1.90
2.54
2.99
3.02
2.55
1.73
0.75
-0.19
-1.02
-1.82
-2.72
-3.88
-5.43
-7.42
-9.85
-12.62
-15.48
-18.06
-19.89
-20.46
-19.45
-16.82
-12.84
-8.04
-3.07
1.47
5.22
7.98
9.78
10.68
10.75
10.01
8.54
6.48
4.12
1.84
-0.02
-1.23
-1.73
-1.64
-1.15
-0.54
-0.02
0.22
0.07
-0.41
-1.10
-1.85
-2.59
-3.37
-4.40
-5.91
-7.99
-10.56
-13.30
-15.79
-17.57
-18.28
-17.64
-15.59
-12.24
-7.94
-3.17
1.49
5.55
8.65
10.61
11.40
11.07
9.79
7.83
5.53
3.23
1.24
-0.26
-1.27
-1.88
-2.29
-2.67
-3.18
-3.90
-4.80
-5.81
-6.75
-7.52
-8.06
-8.47
-8.93
-9.70
-10.96
-12.72
-14.85
-17.03
-18.82
-19.74
-19.36
-17.47
-14.10
-9.58
-4.48
0.59
5.07
8.61
11.06
12.38
12.64
11.97
10.54
8.65
6.63
4.83
3.47
2.59
2.06
1.67
1.30
0.93
0.66
0.64
0.94
1.46
1.92
1.97
1.27
-0.34
-2.87
-6.13
-9.78
-13.44
-16.68
-19.05
-20.18
-19.77
-17.74
-14.27
-9.74
-4.72
0.22
4.61
8.07
10.41
11.60
11.67
10.86
9.44
7.74
6.04
4.54
3.30
2.28
1.40
0.62
-0.08
-0.70
-1.25
-1.74
-2.24
-2.84
-3.68
-4.88
-6.54
-8.70
-11.32
-14.31
-17.46
-20.44
-22.77
-23.98
-23.65
-21.64
-18.09
-13.45
-8.33
-3.29
1.24
5.01
7.89
9.74
10.48
10.13
8.88
7.09
5.18
3.49
2.23
1.37
0.81
0.43
0.14
-0.14
-0.46
-0.89
-1.45
-2.15
-2.96
-3.88
-4.99
-6.49
-8.60
-11.45
-14.96
-18.77
-22.32
-24.99
-26.28
-25.87
-23.71
-19.99
-15.05
-9.38
-3.54
1.89
6.39
9.58
11.29
11.57
10.68
9.02
6.99
4.95
3.17
1.81
0.90
0.38
0.16
0.12
0.12
0.02
-0.30
-0.94
-1.90
-3.16
-4.63
-6.29
-8.17
-10.41
-13.10
-16.24
-19.55
-22.52
-24.44
-24.70
-22.96
-19.30
-14.20
-8.35
-2.49
2.81
7.12
10.23
12.03
12.55
11.94
10.52
8.68
6.89
5.53
4.76
4.54
4.60
4.62
4.31
3.56
2.37
0.89
-0.77
-2.49
-4.27
-6.20
-8.39
-10.97
-14.04
-17.55
-21.27
-24.70
-27.16
-27.95
-26.60
-23.05
-17.67
-11.22
-4.56
1.54
6.59
10.37
12.88
14.16
14.33
13.54
12.03
10.16
8.36
7.01
6.29
6.17
6.40
6.64
6.54
5.91
4.78
3.30
1.68
0.05
-1.62
-3.55
-6.03
-9.30
-13.51
-18.51
-23.89
-28.97
-32.92
-34.92
-34.38
-31.10
-25.34
-17.77
-9.30
-0.88
6.75
13.11
18.00
21.42
23.47
24.25
23.90
22.62
20.71
18.62
16.81
15.63
15.18
15.30
15.56
15.53
14.90
13.57
11.70
9.51
7.20
4.86
2.48
-0.03
-2.76
-5.80
-9.29
-13.31
-17.86
-22.74
-27.51
-31.37
-33.49
-33.15
-29.98
-24.18
-16.39
-7.56
1.34
9.51
16.36
21.59
25.10
26.97
27.42
26.83
25.66
24.32
23.11
22.16
21.41
20.80
20.19
19.51
18.69
17.66
16.35
14.74
12.84
10.73
8.48
6.12
3.66
1.06
-1.71
-4.71
-7.98
-11.59
-15.60
-19.99
-24.54
-28.78
-31.97
-33.29
-32.11
-28.18
-21.79
-13.72
-5.00
3.34
10.55
16.24
20.33
22.91
24.15
24.18
23.17
21.41
19.27
17.21
15.59
14.63
14.29
14.35
14.48
14.41
13.98
13.11
11.83
10.20
8.29
6.16
3.88
1.47
-1.12
-3.98
-7.24
-10.98
-15.15
-19.45
-23.43
-26.39
-27.66
-26.72
-23.33
-17.68
-10.36
-2.20
5.88
13.13
19.02
23.30
25.94
27.10
27.07
26.22
24.96
23.62
22.44
21.51
20.78
20.16
19.59
19.05
18.58
18.20
17.84
17.33
16.40
14.82
12.44
9.32
5.71
2.02
-1.37
-4.25
-6.66
-8.88
-11.30
-14.32
-18.11
-22.57
-27.28
-31.61
-34.78
-36.09
-35.06
-31.55
-25.83
-18.46
-10.18
-1.75
6.16
13.01
18.47
22.40
24.82
25.96
26.16
25.77
25.14
24.48
23.90
23.40
22.90
22.31
21.58
20.71
19.78
18.88
18.04
17.23
16.31
15.13
13.55
11.52
9.09
6.39
3.61
0.86
-1.84
-4.59
-7.62
-11.21
-15.54
-20.61
-26.11
-31.37
-35.55
-37.74
-37.32
-34.04
-28.18
-20.45
-11.76
-3.03
5.01
11.91
17.43
21.53
24.27
25.77
26.22
25.85
24.93
23.71
22.45
21.36
20.58
20.17
20.04
20.02
19.91
19.58
19.00
18.23
17.30
16.16
14.68
12.72
10.26
7.44
4.51
1.73
-0.78
-3.11
-5.51
-8.29
-11.70
-15.77
-20.22
-24.49
-27.79
-29.27
-28.32
-24.75
-18.88
-11.46
-3.47
4.20
10.84
16.04
19.65
21.73
22.44
22.07
20.94
19.42
17.76
16.22
14.93
13.98
13.40
13.16
13.14
13.18
13.06
12.63
11.75
10.42
8.68
6.64
4.45
2.23
0.08
-1.97
-3.98
-6.13
-8.61
-11.61
-15.14
-18.95
-22.56
-25.28
-26.45
-25.61
-22.62
-17.76
-11.58
-4.84
1.68
7.36
11.76
14.70
16.20
16.45
15.73
14.31
12.51
10.61
8.91
7.65
7.01
6.99
7.44
8.04
8.43
8.33
7.61
6.35
4.75
3.01
1.25
-0.55
-2.51
-4.81
-7.58
-10.83
-14.43
-18.06
-21.32
-23.65
-24.50
-23.42
-20.26
-15.22
-8.90
-2.13
4.29
9.72
13.88
16.74
18.38
18.95
18.55
17.32
15.52
13.52
11.71
10.39
9.60
9.16
8.78
8.15
7.13
5.74
4.07
2.21
0.21
-1.94
-4.23
-6.59
-8.92
-11.21
-13.59
-16.27
-19.44
-23.07
-26.79
-29.95
-31.79
-31.64
-29.21
-24.59
-18.31
-11.08
-3.66
3.28
9.28
14.10
17.61
19.82
20.74
20.48
19.24
17.33
15.14
13.06
11.35
10.10
9.21
8.53
7.86
7.11
6.22
5.19
4.04
2.75
1.36
-0.13
-1.71
-3.45
-5.44
-7.85
-10.82
-14.38
-18.39
-22.46
-25.99
-28.26
-28.59
-26.54
-22.10
-15.70
-8.17
-0.45
6.63
12.51
16.96
19.97
21.64
22.12
21.60
20.36
18.75
17.10
15.70
14.61
13.74
12.93
12.05
11.04
9.93
8.76
7.52
6.16
4.60
2.81
0.83
-1.22
-3.30
-5.43
-7.75
-10.46
-13.65
-17.33
-21.31
-25.20
-28.53
-30.72
-31.24
-29.70
-25.92
-20.12
-12.88
-5.05
2.43
8.83
13.71
17.02
18.94
19.78
19.85
19.38
18.50
17.34
16.05
14.78
13.71
12.98
12.60
12.50
12.48
12.33
11.86
10.98
9.68
8.03
6.10
3.92
1.53
-1.07
-3.88
-6.90
-10.16
-13.69
-17.47
-21.34
-24.92
-27.60
-28.70
-27.66
-24.27
-18.85
-12.12
-5.00
1.65
7.26
11.62
14.71
16.66
17.53
17.37
16.27
14.41
12.16
9.96
8.23
7.18
6.81
6.85
6.94
6.72
6.00
4.81
3.27
1.57
-0.18
-1.95
-3.79
-5.80
-8.09
-10.75
-13.79
-17.14
-20.59
-23.67
-25.79
-26.29
-24.66
-20.74
-14.83
-7.59
0.06
7.21
13.17
17.55
20.23
21.31
20.99
19.47
17.03
14.02
10.89
8.08
5.97
4.70
4.13
3.91
3.61
2.92
1.74
0.16
-1.62
-3.43
-5.18
-6.90
-8.70
-10.72
-13.10
-15.92
-19.21
-22.82
-26.40
-29.35
-30.97
-30.58
-27.79
-22.65
-15.71
-7.87
-0.12
6.75
12.25
16.24
18.83
20.17
20.42
19.71
18.17
16.05
13.67
11.42
9.62
8.45
7.89
7.75
7.71
7.45
6.73
5.45
3.71
1.74
-0.26
-2.16
-4.00
-5.98
-8.37
-11.38
-15.10
-19.38
-23.83
-27.83
-30.61
-31.44
-29.79
-25.55
-19.08
-11.21
-2.96
4.70
11.10
15.94
19.25
21.21
22.04
21.90
20.95
19.35
17.34
15.20
13.19
11.54
10.34
9.54
9.01
8.51
7.81
6.78
5.38
3.75
2.02
0.31
-1.41
-3.25
-5.36
-7.89
-10.89
-14.38
-18.24
-22.25
-26.01
-28.89
-30.21
-29.40
-26.20
-20.85
-14.02
-6.61
0.51
6.65
11.43
14.64
16.24
16.31
15.09
12.96
10.45
8.15
6.47
5.63
5.53
5.86
6.24
6.39
6.14
5.49
4.56
3.46
2.29
1.06
-0.34
-2.07
-4.27
-7.10
-10.64
-14.82
-19.46
-24.13
-28.19
-30.89
-31.47
-29.45
-24.83
-18.12
-10.23
-2.21
5.11
11.21
15.94
19.31
21.32
21.97
21.26
19.36
16.64
13.68
11.03
9.11
8.06
7.70
7.72
7.71
7.34
6.41
4.92
3.00
0.90
-1.17
-3.09
-4.91
-6.83
-9.10
-11.92
-15.34
-19.24
-23.34
-27.19
-30.21
-31.72
-31.12
-28.04
-22.50
-15.00
-6.42
2.19
9.91
16.14
20.65
23.48
24.81
24.85
23.85
22.04
19.76
17.33
15.12
13.35
12.11
11.36
10.92
10.57
10.15
9.52
8.62
7.39
5.81
3.87
1.64
-0.76
-3.18
-5.54
-7.84
-10.29
-13.18
-16.75
-21.01
-25.63
-29.92
-32.99
-33.98
-32.32
-27.93
-21.24
-13.07
-4.43
3.74
10.73
16.13
19.81
21.82
22.39
21.83
20.50
18.74
16.84
15.02
13.40
12.07
11.05
10.32
9.78
9.28
8.62
7.64
6.26
4.49
2.43
0.16
-2.21
-4.67
-7.20
-9.84
-12.63
-15.65
-18.98
-22.65
-26.49
-30.10
-32.77
-33.70
-32.23
-28.11
-21.66
-13.71
-5.30
2.56
9.20
14.34
18.02
20.42
21.71
22.01
21.42
20.10
18.31
16.42
14.84
13.86
13.56
13.80
14.25
14.51
14.24
13.25
11.53
9.23
6.54
3.69
0.78
-2.13
-5.05
-8.07
-11.25
-14.68
-18.43
-22.42
-26.36
-29.68
-31.62
-31.43
-28.61
-23.17
-15.70
-7.13
1.47
9.26
15.71
20.64
24.05
26.01
26.61
25.97
24.34
22.09
19.68
17.49
15.82
14.78
14.30
14.22
14.32
14.36
14.13
13.42
12.12
10.16
7.59
4.58
1.33
-1.94
-5.10
-8.17
-11.22
-14.40
-17.79
-21.34
-24.79
-27.66
-29.29
-29.03
-26.47
-21.56
-14.76
-6.87
1.13
8.39
14.36
18.79
21.66
23.09
23.24
22.30
20.60
18.55
16.55
14.94
13.80
13.03
12.43
11.79
11.02
10.17
9.30
8.42
7.46
6.25
4.66
2.65
0.30
-2.25
-4.85
-7.46
-10.19
-13.18
-16.61
-20.48
-24.54
-28.24
-30.79
-31.43
-29.64
-25.36
-19.00
-11.38
-3.47
3.87
10.03
14.68
17.70
19.09
18.96
17.48
15.04
12.10
9.25
6.98
5.58
5.03
5.04
5.16
5.00
4.36
3.28
2.00
0.78
-0.20
-1.01
-1.85
-2.98
-4.61
-6.82
-9.56
-12.66
-15.86
-18.73
-20.73
-21.26
-19.83
-16.27
-10.84
-4.20
2.71
8.99
14.00
17.41
19.20
19.53
18.63
16.80
14.34
11.60
8.94
6.68
4.95
3.77
2.99
2.39
1.82
1.17
0.40
-0.48
-1.48
-2.66
-4.09
-5.89
-8.15
-10.93
-14.23
-17.89
-21.59
-24.85
-27.07
-27.65
-26.20
-22.64
-17.29
-10.78
-3.87
2.72
8.43
12.94
16.14
18.02
18.67
18.21
16.82
14.77
12.42
10.16
8.31
7.02
6.23
5.67
5.02
4.01
2.60
0.92
-0.77
-2.27
-3.55
-4.83
-6.47
-8.78
-11.96
-15.94
-20.37
-24.65
-28.03
-29.75
-29.20
-26.15
-20.78
-13.72
-5.89
1.79
8.54
13.88
17.64
19.87
20.72
20.43
19.30
17.62
15.70
13.81
12.12
10.76
9.72
8.93
8.28
7.62
6.80
5.75
4.47
3.03
1.54
0.06
-1.43
-3.07
-5.10
-7.75
-11.11
-15.11
-19.43
-23.55
-26.89
-28.78
-28.68
-26.23
-21.43
-14.67
-6.74
1.35
8.60
14.33
18.27
20.55
21.49
21.45
20.65
19.18
17.17
14.81
12.45
10.47
9.12
8.49
8.40
8.53
8.52
8.14
7.33
6.18
4.85
3.44
1.98
0.40
-1.39
-3.48
-5.94
-8.83
-12.21
-15.99
-19.92
-23.45
-25.92
-26.62
-25.08
-21.26
-15.57
-8.76
-1.71
4.76
10.09
14.00
16.50
17.77
18.06
17.59
16.55
15.08
13.36
11.62
10.12
9.08
8.57
8.48
8.51
8.29
7.57
6.30
4.66
2.93
1.37
-0.01
-1.34
-2.92
-5.00
-7.67
-10.91
-14.53
-18.31
-21.91
-24.89
-26.70
-26.79
-24.80
-20.70
-14.92
-8.17
-1.34
4.79
9.65
12.96
14.68
14.99
14.16
12.58
10.64
8.69
7.01
5.75
4.97
4.59
4.48
4.41
4.20
3.71
2.91
1.88
0.73
-0.50
-1.83
-3.38
-5.29
-7.68
-10.54
-13.80
-17.26
-20.61
-23.35
-24.93
-24.77
-22.56
-18.34
-12.56
-5.97
0.61
6.55
11.45
15.19
17.73
19.07
19.20
18.14
16.09
13.42
10.61
8.12
6.27
5.11
4.52
4.23
3.98
3.59
2.96
2.09
1.03
-0.19
-1.53
-3.02
-4.69
-6.61
-8.82
-11.39
-14.35
-17.67
-21.22
-24.68
-27.51
-29.05
-28.68
-26.02
-21.12
-14.50
-7.01
0.39
6.93
12.15
15.92
18.32
19.51
19.63
18.81
17.24
15.21
13.09
11.28
10.02
9.37
9.17
9.14
8.98
8.49
7.59
6.26
4.58
2.63
0.52
-1.63
-3.74
-5.73
-7.60
-9.47
-11.54
-14.03
-17.05
-20.49
-23.89
-26.54
-27.62
-26.44
-22.70
-16.67
-9.07
-0.91
6.79
13.24
18.02
21.06
22.47
22.50
21.36
19.33
16.70
13.88
11.27
9.24
7.97
7.39
7.27
7.22
6.96
6.30
5.23
3.86
2.31
0.66
-1.11
-3.02
-5.10
-7.38
-9.88
-12.68
-15.82
-19.29
-22.87
-26.04
-28.07
-28.22
-25.99
-21.35
-14.77
-7.12
0.63
7.65
13.40
17.64
20.34
21.61
21.58
20.44
18.45
15.94
13.31
10.96
9.17
8.07
7.54
7.37
7.21
6.83
6.12
5.09
3.85
2.50
1.06
-0.50
-2.31
-4.44
-6.95
-9.89
-13.24
-16.95
-20.81
-24.38
-27.03
-28.04
-26.84
-23.25
-17.56
-10.46
-2.85
4.40
10.65
15.50
18.81
20.60
21.03
20.34
18.84
16.87
14.74
12.71
10.98
9.71
9.01
8.88
9.19
9.65
9.90
9.64
8.74
7.25
5.44
3.60
1.95
0.51
-0.90
-2.63
-5.05
-8.38
-12.63
-17.50
-22.41
-26.59
-29.21
-29.58
-27.33
-22.51
-15.65
-7.64
0.49
7.76
13.52
17.49
19.69
20.42
20.00
18.76
16.96
14.83
12.59
10.50
8.82
7.74
7.29
7.37
7.67
7.82
7.57
6.76
5.49
3.97
2.41
0.91
-0.54
-2.09
-3.94
-6.20
-8.97
-12.27
-15.99
-19.93
-23.65
-26.52
-27.82
-26.97
-23.70
-18.22
-11.20
-3.57
3.76
10.08
14.98
18.33
20.13
20.44
19.42
17.31
14.55
11.70
9.31
7.75
7.12
7.23
7.69
8.06
8.06
7.52
6.48
5.07
3.50
1.91
0.39
-1.15
-2.88
-5.07
-7.89
-11.35
-15.19
-18.90
-21.85
-23.40
-23.08
-20.74
-16.50
-10.81
-4.26
2.46
8.70
13.92
17.76
20.06
20.84
20.32
18.80
16.67
14.34
12.13
10.31
8.97
8.09
7.56
7.16
6.67
5.92
4.81
3.37
1.70
-0.06
-1.80
-3.44
-5.02
-6.66
-8.52
-10.84
-13.80
-17.37
-21.31
-25.09
-28.01
-29.30
-28.41
-25.12
-19.65
-12.58
-4.76
2.91
9.67
15.03
18.77
20.95
21.78
21.54
20.51
18.90
16.87
14.61
12.40
10.51
9.18
8.47
8.24
8.17
7.91
7.20
5.99
4.43
2.71
0.98
-0.77
-2.59
-4.56
-6.66
-8.78
-10.91
-13.13
-15.67
-18.73
-22.34
-26.12
-29.32
-30.99
-30.31
-26.90
-20.97
-13.32
-5.03
2.82
9.50
14.64
18.24
20.43
21.39
21.25
20.17
18.36
16.16
13.97
12.10
10.75
9.93
9.51
9.34
9.27
9.23
9.13
8.89
8.39
7.53
6.24
4.50
2.39
0.04
-2.40
-4.75
-6.93
-8.94
-10.91
-13.09
-15.73
-18.96
-22.64
-26.27
-29.07
-30.17
-28.90
-25.02
-18.86
-11.21
-3.13
4.36
10.52
14.96
17.71
19.02
19.22
18.64
17.54
16.08
14.42
12.72
11.13
9.78
8.80
8.21
7.98
8.01
8.12
8.13
7.90
7.31
6.32
4.92
3.14
1.04
-1.25
-3.58
-5.79
-7.89
-9.98
-12.35
-15.22
-18.63
-22.27
-25.53
-27.60
-27.77
-25.66
-21.32
-15.26
-8.28
-1.31
4.86
9.69
13.00
14.84
15.44
15.06
13.91
12.24
10.26
8.29
6.66
5.65
5.37
5.72
6.43
7.14
7.50
7.29
6.48
5.18
3.62
2.02
0.47
-1.07
-2.75
-4.81
-7.44
-10.69
-14.46
-18.46
-22.23
-25.20
-26.76
-26.42
-23.92
-19.32
-13.08
-5.93
1.28
7.80
13.06
16.76
18.82
19.35
18.61
16.94
14.74
12.39
10.19
8.39
7.07
6.22
5.71
5.36
4.98
4.40
3.52
2.36
0.99
-0.51
-2.08
-3.75
-5.56
-7.60
-9.89
-12.48
-15.40
-18.67
-22.26
-25.91
-29.13
-31.18
-31.26
-28.85
-23.85
-16.79
-8.61
-0.43
6.74
12.33
16.15
18.31
19.08
18.75
17.59
15.91
13.99
12.14
10.57
9.39
8.62
8.20
8.03
7.96
7.81
7.43
6.71
5.64
4.32
2.88
1.41
-0.09
-1.71
-3.61
-5.96
-8.87
-12.35
-16.31
-20.45
-24.25
-27.06
-28.15
-27.01
-23.48
-17.89
-10.99
-3.73
2.98
8.52
12.60
15.24
16.60
16.86
16.17
14.70
12.66
10.34
8.11
6.30
5.11
4.51
4.33
4.28
4.06
3.54
2.71
1.65
0.49
-0.71
-1.97
-3.39
-5.06
-7.06
-9.41
-12.12
-15.25
-18.77
-22.56
-26.28
-29.32
-30.95
-30.51
-27.67
-22.57
-15.80
-8.25
-0.83
5.76
11.11
15.07
17.65
18.90
18.86
17.63
15.43
12.70
9.99
7.86
6.65
6.36
6.65
6.98
6.86
6.07
4.67
2.96
1.25
-0.28
-1.65
-3.04
-4.64
-6.65
-9.16
-12.21
-15.74
-19.52
-23.12
-25.88
-27.07
-26.07
-22.63
-16.97
-9.79
-2.07
5.23
11.35
15.88
18.71
19.97
19.88
18.70
16.73
14.30
11.79
9.57
7.94
7.02
6.72
6.75
6.73
6.32
5.34
3.83
1.99
0.10
-1.66
-3.28
-4.92
-6.74
-8.90
-11.42
-14.33
-17.60
-21.17
-24.80
-27.99
-30.00
-30.02
-27.53
-22.50
-15.45
-7.29
0.96
8.47
14.74
19.53
22.75
24.39
24.50
23.24
20.93
18.00
14.91
12.06
9.73
8.05
7.00
6.46
6.28
6.21
6.05
5.60
4.74
3.43
1.71
-0.33
-2.58
-4.99
-7.60
-10.50
-13.81
-17.63
-21.90
-26.34
-30.40
-33.33
-34.38
-32.93
-28.82
-22.35
-14.35
-5.85
2.06
8.57
13.30
16.24
17.65
17.85
17.14
15.72
13.81
11.65
9.57
7.87
6.79
6.32
6.31
6.42
6.33
5.87
5.03
3.94
2.77
1.61
0.43
-0.96
-2.80
-5.30
-8.61
-12.72
-17.38
-22.15
-26.35
-29.16
-29.84
-27.92
-23.33
-16.56
-8.46
-0.07
7.64
13.98
18.58
21.37
22.49
22.21
20.88
18.88
16.61
14.40
12.50
11.03
10.03
9.45
9.20
9.15
9.12
8.90
8.28
7.16
5.57
3.63
1.51
-0.66
-2.89
-5.28
-8.04
-11.35
-15.34
-19.99
-25.06
-30.05
-34.18
-36.53
-36.29
-33.01
-26.88
-18.63
-9.35
-0.20
7.95
14.59
19.54
22.84
24.59
24.95
24.14
22.47
20.32
18.10
16.16
14.70
13.81
13.45
13.44
13.56
13.57
13.25
12.51
11.34
9.82
8.04
6.07
3.91
1.48
-1.29
-4.50
-8.26
-12.68
-17.77
-23.27
-28.60
-32.82
-34.85
-33.89
-29.68
-22.75
-14.17
-5.27
2.88
9.67
14.93
18.74
21.17
22.22
21.84
20.12
17.38
14.20
11.19
8.86
7.40
6.74
6.58
6.57
6.42
5.98
5.24
4.27
3.10
1.71
0.01
-2.06
-4.53
-7.37
-10.54
-14.01
-17.79
-21.76
-25.56
-28.55
-29.89
-28.81
-24.90
-18.40
-10.08
-1.09
7.42
14.60
20.01
23.57
25.40
25.71
24.69
22.57
19.68
16.44
13.34
10.83
9.18
8.43
8.38
8.70
9.04
9.07
8.59
7.49
5.83
3.72
1.32
-1.21
-3.81
-6.47
-9.32
-12.54
-16.26
-20.55
-25.27
-30.07
-34.32
-37.17
-37.75
-35.40
-29.94
-21.82
-12.07
-2.03
7.10
14.50
19.89
23.42
25.45
26.29
26.15
25.18
23.53
21.47
19.33
17.42
15.98
15.08
14.61
14.37
14.10
13.59
12.71
11.46
9.91
8.13
6.13
3.90
1.39
-1.39
-4.41
-7.61
-11.04
-14.85
-19.20
-24.07
-29.11
-33.54
-36.36
-36.57
-33.59
-27.43
-18.76
-8.73
1.38
10.48
17.87
23.29
26.86
28.84
29.52
29.15
27.96
26.21
24.24
22.36
20.83
19.76
19.10
18.65
18.22
17.65
16.85
15.80
14.48
12.86
10.93
8.70
6.25
3.70
1.14
-1.39
-4.00
-6.90
-10.29
-14.34
-19.00
-23.97
-28.65
-32.19
-33.70
-32.44
-28.14
-21.08
-12.13
-2.43
6.78
14.59
20.50
24.42
26.53
27.14
26.54
25.03
22.93
20.61
18.42
16.65
15.44
14.79
14.56
14.63
14.86
15.16
15.38
15.32
14.75
13.50
11.58
9.17
6.54
3.96
1.55
-0.76
-3.14
-5.83
-8.98
-12.65
-16.72
-20.87
-24.54
-27.04
-27.60
-25.67
-21.11
-14.27
-5.95
2.78
10.90
17.59
22.41
25.29
26.39
26.02
24.57
22.44
20.00
17.60
15.48
13.81
12.62
11.85
11.38
11.07
10.79
10.45
9.99
9.35
8.48
7.28
5.71
3.74
1.48
-0.92
-3.29
-5.53
-7.69
-9.95
-12.54
-15.64
-19.25
-23.05
-26.47
-28.72
-29.01
-26.83
-22.18
-15.53
-7.81
-0.08
6.77
12.20
16.02
18.30
19.18
18.77
17.23
14.72
11.61
8.41
5.65
3.74
2.87
2.94
3.60
4.41
4.95
4.95
4.35
3.28
1.95
0.61
-0.63
-1.83
-3.17
-4.88
-7.18
-10.18
-13.80
-17.78
-21.70
-24.95
-26.82
-26.65
-24.05
-19.08
-12.27
-4.59
2.93
9.46
14.54
18.04
20.06
20.73
20.13
18.39
15.73
12.55
9.37
6.65
4.65
3.43
2.80
2.48
2.20
1.72
0.92
-0.16
-1.44
-2.83
-4.22
-5.63
-7.10
-8.77
-10.77
-13.26
-16.34
-19.99
-23.97
-27.79
-30.70
-31.90
-30.74
-26.99
-20.93
-13.27
-4.94
3.12
10.20
15.83
19.81
22.09
22.76
22.07
20.37
18.10
15.70
13.52
11.76
10.41
9.39
8.56
7.79
7.00
6.13
5.15
4.04
2.81
1.45
-0.02
-1.58
-3.26
-5.12
-7.25
-9.80
-12.88
-16.54
-20.68
-24.99
-28.82
-31.38
-31.81
-29.52
-24.41
-16.92
-7.97
1.30
9.80
16.75
21.73
24.66
25.72
25.23
23.55
21.12
18.35
15.57
13.05
10.92
9.24
8.02
7.21
6.72
6.39
6.05
5.51
4.64
3.40
1.84
0.04
-1.90
-3.91
-6.00
-8.22
-10.67
-13.48
-16.74
-20.45
-24.42
-28.18
-31.06
-32.28
-31.18
-27.48
-21.40
-13.71
-5.48
2.24
8.71
13.62
16.97
18.94
19.66
19.20
17.64
15.21
12.38
9.70
7.66
6.47
6.06
6.12
6.28
6.26
5.92
5.22
4.16
2.79
1.18
-0.56
-2.32
-4.07
-5.89
-7.99
-10.59
-13.83
-17.59
-21.45
-24.77
-26.81
-26.91
-24.69
-20.15
-13.73
-6.15
1.66
8.81
14.63
18.73
21.04
21.73
21.02
19.24
16.70
13.76
10.83
8.25
6.30
5.04
4.35
4.03
3.85
3.62
3.22
2.57
1.58
0.17
-1.65
-3.81
-6.17
-8.62
-11.11
-13.69
-16.47
-19.60
-23.12
-26.94
-30.76
-34.02
-36.00
-35.98
-33.48
-28.41
-21.18
-12.61
-3.69
4.64
11.70
17.06
20.55
22.23
22.35
21.30
19.54
17.56
15.68
14.08
12.83
11.91
11.32
11.02
10.95
10.96
10.81
10.28
9.22
7.62
5.60
3.37
1.10
-1.14
-3.39
-5.78
-8.52
-11.81
-15.76
-20.35
-25.29
-30.02
-33.78
-35.78
-35.41
-32.43
-27.06
-19.87
-11.66
-3.25
4.68
11.60
17.17
21.15
23.45
24.11
23.39
21.70
19.56
17.48
15.84
14.78
14.31
14.25
14.39
14.55
14.62
14.53
14.27
13.83
13.12
12.05
10.48
8.31
5.57
2.40
-0.91
-4.06
-6.83
-9.21
-11.40
-13.76
-16.68
-20.36
-24.67
-29.10
-32.86
-35.03
-34.83
-31.84
-26.16
-18.35
-9.36
-0.25
8.03
14.82
19.79
22.92
24.40
24.49
23.49
21.73
19.53
17.26
15.28
13.84
13.02
12.71
12.67
12.60
12.26
11.58
10.60
9.49
8.38
7.27
6.05
4.51
2.54
0.14
-2.49
-5.07
-7.36
-9.35
-11.23
-13.39
-16.17
-19.66
-23.60
-27.35
-30.09
-31.01
-29.58
-25.72
-19.80
-12.50
-4.72
2.72
9.18
14.23
17.72
19.69
20.25
19.61
17.99
15.72
13.14
10.66
8.62
7.24
6.54
6.37
6.48
6.58
6.47
6.01
5.19
4.04
2.64
1.09
-0.48
-2.03
-3.59
-5.30
-7.35
-9.96
-13.21
-17.02
-21.07
-24.83
-27.62
-28.75
-27.70
-24.31
-18.81
-11.81
-4.13
3.40
10.12
15.57
19.50
21.86
22.70
22.20
20.65
18.44
16.01
13.75
11.90
10.61
9.83
9.45
9.32
9.26
9.16
8.90
8.40
7.63
6.58
5.25
3.66
1.83
-0.23
-2.52
-5.00
-7.65
-10.42
-13.28
-16.27
-19.51
-23.12
-27.15
-31.39
-35.39
-38.37
-39.50
-38.03
-33.66
-26.61
-17.67
-7.94
1.41
9.49
15.78
20.19
22.88
24.10
24.14
23.27
21.79
20.03
18.33
16.95
15.98
15.35
14.88
14.42
13.88
13.27
12.62
11.90
11.00
9.67
7.74
5.11
1.94
-1.44
-4.63
-7.30
-9.39
-11.10
-12.87
-15.15
-18.20
-21.89
-25.68
-28.72
-30.13
-29.24
-25.81
-20.11
-12.79
-4.73
3.20
10.26
15.96
20.03
22.44
23.33
22.96
21.70
19.91
17.90
15.89
14.00
12.34
10.96
9.92
9.26
9.00
9.03
9.20
9.31
9.14
8.56
7.48
5.87
3.74
1.14
-1.79
-4.93
-8.13
-11.31
-14.47
-17.72
-21.16
-24.75
-28.24
-31.10
-32.65
-32.25
-29.51
-24.46
-17.62
-9.81
-1.94
5.17
11.00
15.32
18.12
19.48
19.57
18.56
16.66
14.17
11.47
8.94
6.90
5.55
4.87
4.73
4.84
4.90
4.64
3.90
2.64
0.93
-1.05
-3.16
-5.32
-7.55
-9.96
-12.71
-15.96
-19.74
-23.98
-28.47
-32.80
-36.42
-38.68
-38.98
-36.99
-32.84
-27.11
-20.72
-14.66
-9.73
-6.40
-4.80
-4.86
-6.46
-9.45
-13.66
-18.84
-24.59
-30.48
-36.12
-41.25
-45.87
-50.12
-54.30
-58.71
-63.57
-69.03
-75.17
-82.01
-89.53
-97.68
-106.28
-115.00
-123.38
-130.90
-137.07
-141.43
-143.57
-142.99
-139.06
-130.96
-117.92
-99.34
-75.13
-45.88
-12.91
21.88
56.29
88.12
115.54
137.29
152.75
161.97
165.53
164.35
159.56
152.36
143.81
134.78
125.86
117.39
109.51
102.27
95.63
89.53
83.87
78.53
73.31
68.00
62.40
56.42
50.03
43.36
36.58
29.88
23.40
17.14
10.96
4.66
-1.94
-8.83
-15.65
-21.77
-26.37
-28.62
-27.99
-24.39
-18.26
-10.42
-1.88
6.42
13.74
19.63
23.85
26.34
27.18
26.57
24.91
22.67
20.36
18.34
16.81
15.77
15.11
14.69
14.42
14.23
14.05
13.76
13.25
12.43
11.25
9.69
7.75
5.47
2.91
0.16
-2.63
-5.37
-8.06
-10.86
-14.08
-17.96
-22.57
-27.59
-32.36
-35.95
-37.46
-36.27
-32.23
-25.74
-17.62
-8.89
-0.52
6.78
12.63
16.90
19.71
21.25
21.72
21.28
20.11
18.38
16.33
14.23
12.37
10.96
10.09
9.71
9.63
9.63
9.47
8.95
7.96
6.47
4.57
2.44
0.25
-1.87
-3.92
-6.03
-8.41
-11.27
-14.75
-18.82
-23.31
-27.72
-31.38
-33.43
-33.09
-29.87
-23.86
-15.73
-6.56
2.41
10.22
16.30
20.50
22.95
23.86
23.46
22.04
19.95
17.58
15.35
13.54
12.25
11.38
10.75
10.17
9.58
8.98
8.37
7.68
6.73
5.29
3.26
0.67
-2.24
-5.18
-7.90
-10.38
-12.76
-15.38
-18.57
-22.57
-27.27
-32.26
-36.75
-39.77
-40.41
-38.10
-32.82
-25.16
-16.12
-6.86
1.61
8.62
13.92
17.48
19.45
20.02
19.46
18.09
16.31
14.56
13.22
12.51
12.41
12.71
13.15
13.48
13.61
13.58
13.43
13.17
12.66
11.69
10.07
7.72
4.77
1.47
-1.89
-5.13
-8.21
-11.32
-14.76
-18.84
-23.74
-29.35
-35.19
-40.38
-43.86
-44.63
-42.08
-36.20
-27.64
-17.50
-7.02
2.73
11.00
17.48
22.16
25.19
26.85
27.42
27.15
26.27
24.99
23.54
22.16
21.06
20.40
20.17
20.25
20.45
20.55
20.42
20.02
19.29
18.20
16.65
14.56
11.96
8.96
5.77
2.54
-0.68
-4.01
-7.61
-11.63
-16.07
-20.68
-25.01
-28.37
-30.02
-29.27
-25.77
-19.60
-11.39
-2.15
6.98
14.96
21.16
25.35
27.66
28.39
27.88
26.40
24.23
21.61
18.85
16.22
13.95
12.19
10.99
10.27
9.88
9.62
9.28
8.63
7.54
5.98
4.00
1.75
-0.63
-3.03
-5.49
-8.06
-10.91
-14.16
-17.83
-21.80
-25.75
-29.10
-31.15
-31.24
-28.92
-24.17
-17.40
-9.39
-1.11
6.54
12.88
17.48
20.22
21.13
20.42
18.44
15.61
12.42
9.36
6.81
5.02
4.02
3.69
3.78
3.95
3.90
3.48
2.64
1.49
0.13
-1.39
-3.11
-5.19
-7.77
-10.93
-14.57
-18.43
-22.07
-24.98
-26.57
-26.32
-23.89
-19.29
-12.89
-5.39
2.30
9.34
15.11
19.25
21.67
22.39
21.53
19.31
16.09
12.38
8.72
5.63
3.37
1.96
1.19
0.75
0.35
-0.21
-1.03
-2.11
-3.43
-4.96
-6.69
-8.67
-11.04
-13.97
-17.61
-22.00
-26.86
-31.53
-35.09
-36.55
-35.20
-30.85
-23.94
-15.39
-6.29
2.39
10.01
16.25
21.00
24.21
25.84
25.90
24.52
22.05
19.01
15.97
13.40
11.58
10.48
9.90
9.49
8.99
8.20
7.11
5.80
4.38
2.92
1.38
-0.39
-2.61
-5.47
-9.09
-13.43
-18.26
-23.12
-27.36
-30.20
-30.86
-28.80
-23.91
-16.59
-7.72
1.57
10.18
17.32
22.63
26.11
27.98
28.52
27.95
26.47
24.33
21.82
19.31
17.13
15.51
14.50
13.95
13.59
13.12
12.33
11.12
9.56
7.75
5.83
3.85
1.82
-0.36
-2.80
-5.66
-9.09
-13.19
-17.97
-23.18
-28.29
-32.45
-34.70
-34.19
-30.56
-24.03
-15.41
-5.87
3.44
11.60
18.08
22.67
25.40
26.40
25.88
24.07
21.32
18.03
14.68
11.71
9.44
7.98
7.24
6.91
6.64
6.13
5.23
4.00
2.61
1.24
-0.06
-1.40
-2.99
-5.07
-7.81
-11.26
-15.26
-19.49
-23.43
-26.44
-27.79
-26.89
-23.40
-17.47
-9.72
-1.19
6.98
13.82
18.79
21.83
23.18
23.18
22.11
20.09
17.28
13.94
10.51
7.50
5.30
4.03
3.50
3.27
2.91
2.15
0.94
-0.60
-2.29
-4.03
-5.80
-7.67
-9.75
-12.18
-15.04
-18.41
-22.22
-26.27
-30.08
-32.93
-34.00
-32.60
-28.38
-21.56
-12.88
-3.47
5.49
13.05
18.66
22.24
24.00
24.25
23.32
21.47
18.96
16.10
13.24
10.72
8.81
7.61
7.04
6.87
6.80
6.57
5.99
5.02
3.71
2.18
0.53
-1.25
-3.23
-5.58
-8.44
-11.93
-16.05
-20.69
-25.57
-30.20
-33.85
-35.69
-34.97
-31.27
-24.72
-16.05
-6.41
2.93
10.98
17.17
21.40
23.83
24.73
24.32
22.81
20.48
17.69
14.93
12.61
10.99
10.09
9.74
9.71
9.73
9.62
9.23
8.44
7.15
5.33
3.07
0.52
-2.12
-4.73
-7.33
-10.05
-13.11
-16.66
-20.77
-25.22
-29.59
-33.15
-35.06
-34.56
-31.19
-25.04
-16.74
-7.37
1.88
10.00
16.37
20.79
23.35
24.36
24.11
22.90
21.05
18.85
16.63
14.66
13.14
12.12
11.58
11.33
11.18
10.88
10.21
9.07
7.45
5.47
3.30
1.13
-0.95
-2.96
-5.07
-7.51
-10.47
-14.06
-18.21
-22.67
-27.00
-30.68
-33.09
-33.66
-31.96
-27.82
-21.46
-13.51
-4.87
3.46
10.64
16.12
19.68
21.37
21.44
20.19
17.99
15.26
12.44
9.94
8.06
6.96
6.60
6.77
7.15
7.40
7.25
6.54
5.25
3.53
1.54
-0.57
-2.74
-5.00
-7.44
-10.11
-13.04
-16.22
-19.63
-23.18
-26.61
-29.42
-30.89
-30.28
-27.06
-21.22
-13.35
-4.46
4.29
11.89
17.72
21.55
23.46
23.70
22.64
20.67
18.24
15.71
13.42
11.50
10.04
9.00
8.34
8.00
7.85
7.74
7.43
6.70
5.40
3.49
1.12
-1.50
-4.11
-6.58
-8.86
-11.05
-13.38
-16.09
-19.41
-23.38
-27.82
-32.22
-35.80
-37.67
-37.00
-33.40
-26.99
-18.44
-8.85
0.63
9.02
15.69
20.41
23.25
24.44
24.25
23.03
21.12
18.90
16.71
14.81
13.33
12.24
11.43
10.78
10.19
9.58
8.90
8.13
7.16
5.91
4.28
2.22
-0.24
-2.97
-5.80
-8.53
-11.05
-13.45
-15.94
-18.81
-22.23
-26.07
-29.84
-32.73
-33.82
-32.33
-27.95
-20.98
-12.20
-2.74
6.27
13.95
19.79
23.69
25.83
26.48
25.95
24.53
22.47
20.03
17.51
15.16
13.22
11.86
11.12
10.91
11.01
11.07
10.76
9.85
8.25
6.05
3.48
0.78
-1.85
-4.34
-6.69
-9.05
-11.57
-14.47
-17.86
-21.77
-25.95
-29.90
-32.83
-33.92
-32.47
-28.24
-21.50
-13.05
-4.05
4.41
11.44
16.58
19.72
21.03
20.79
19.30
16.94
14.11
11.26
8.82
7.08
6.13
5.85
5.97
6.16
6.16
5.78
4.95
3.71
2.13
0.28
-1.78
-4.00
-6.38
-8.93
-11.67
-14.63
-17.84
-21.27
-24.76
-27.98
-30.38
-31.34
-30.30
-26.96
-21.37
-14.03
-5.75
2.54
9.95
15.82
19.75
21.65
21.71
20.30
17.93
15.12
12.39
10.08
8.39
7.38
7.01
7.18
7.73
8.44
9.05
9.29
8.93
7.87
6.10
3.76
1.00
-2.07
-5.36
-8.81
-12.37
-15.95
-19.51
-23.07
-26.75
-30.67
-34.80
-38.81
-41.98
-43.39
-42.18
-37.95
-30.93
-21.97
-12.29
-3.09
4.74
10.75
14.81
16.98
17.42
16.31
13.93
10.63
6.86
3.02
-0.64
-3.99
-7.01
-9.70
-11.97
-13.69
-14.74
-15.10
-14.87
-14.34
-13.82
-13.55
-13.59
-13.78
-13.84
-13.54
-12.97
-12.53
-12.86
-14.51
-17.61
-21.67
-25.59
-27.96
-27.38
-22.75
-13.63
-0.32
15.93
33.15
48.97
61.30
69.03
72.33
72.46
71.09
69.50
67.99
66.00
62.52
56.76
48.59
38.57
27.61
16.65
6.40
-2.69
-10.36
-16.41
-20.61
-22.74
-22.74
-20.76
-17.33
-13.24
-9.24
-5.58
-1.73
3.30
10.26
18.93
27.77
34.41
36.81
34.23
27.79
19.88
13.00
8.56
6.42
5.25
3.48
0.18
-4.58
-9.87
-14.53
-17.67
-18.95
-18.51
-16.78
-14.22
-11.12
-7.58
-3.70
0.35
4.16
7.14
8.63
7.98
4.70
-1.44
-10.26
-20.91
-31.74
-40.47
-44.67
-42.68
-34.32
-21.08
-5.66
9.07
21.06
29.65
35.33
39.14
41.78
43.13
42.33
38.22
29.95
17.55
2.06
-14.61
-30.15
-42.48
-50.31
-53.51
-53.06
-50.71
-48.30
-47.33
-48.39
-50.99
-53.55
-53.64
-48.68
-36.98
-18.57
4.46
28.44
49.41
64.57
73.09
76.06
75.57
73.51
70.89
67.89
64.27
60.00
55.28
50.20
44.30
36.48
25.36
9.96
-9.65
-32.05
-54.68
-74.26
-87.47
-91.60
-85.07
-67.81
-41.42
-9.04
25.21
57.08
83.15
101.39
111.41
114.17
111.32
104.63
95.60
85.39
74.80
64.30
53.90
43.07
30.86
16.19
-1.63
-22.40
-44.93
-67.13
-86.47
-100.44
-106.89
-104.25
-91.94
-70.67
-42.69
-11.69
17.99
42.43
59.30
68.37
71.13
69.77
66.03
60.48
52.87
42.80
30.57
17.26
4.29
-7.42
-17.98
-28.36
-39.77
-52.74
-66.63
-79.50
-88.72
-91.77
-87.07
-74.63
-56.12
-34.42
-12.81
6.01
20.51
30.41
36.15
38.19
36.53
30.80
20.79
7.00
-9.15
-25.74
-40.93
-53.54
-62.99
-68.86
-70.42
-66.59
-56.42
-39.92
-18.58
4.67
26.35
43.54
54.55
59.10
57.66
50.86
39.05
22.57
2.23
-20.31
-42.70
-62.39
-77.40
-86.74
-90.45
-89.40
-84.99
-78.80
-72.40
-66.94
-62.98
-60.25
-57.82
-54.52
-49.45
-42.33
-33.52
-23.72
-13.59
-3.45
6.67
16.92
27.46
38.41
49.85
61.95
74.85
88.56
102.75
116.74
129.50
140.00
147.46
151.60
152.71
151.39
148.32
143.97
138.52
131.88
123.82
114.11
102.52
88.97
73.61
56.92
39.79
23.34
8.75
-3.10
-11.81
-17.64
-21.42
-24.48
-28.35
-34.36
-43.26
-54.72
-67.37
-79.11
-87.92
-92.68
-93.62
-92.18
-90.25
-89.30
-89.78
-91.05
-91.96
-91.39
-88.75
-84.08
-77.77
-70.25
-61.87
-52.93
-43.67
-34.29
-24.77
-14.78
-3.88
8.12
20.82
33.15
43.68
51.20
55.24
56.14
54.64
51.35
46.26
38.75
27.95
13.13
-5.86
-28.54
-53.76
-79.77
-104.38
-125.15
-139.92
-147.24
-146.79
-139.34
-126.53
-110.36
-92.89
-75.99
-61.33
-50.24
-43.52
-41.17
-42.28
-45.33
-48.67
-51.13
-52.36
-52.84
-53.48
-55.22
-58.70
-64.15
-71.46
-80.37
-90.54
-101.73
-113.65
-125.91
-137.93
-148.90
-157.95
-164.24
-167.14
-166.31
-161.66
-153.30
-141.51
-126.69
-109.42
-90.36
-70.23
-49.55
-28.55
-7.00
15.67
40.16
66.86
95.54
125.02
153.17
177.24
194.47
202.97
202.27
193.60
179.45
162.84
146.40
131.86
119.84
110.11
102.08
95.18
89.01
83.31
77.78
72.09
65.85
58.79
50.88
42.38
33.68
25.18
17.16
9.84
3.47
-1.64
-5.00
-6.28
-5.38
-2.65
1.16
5.15
8.45
10.49
11.02
10.11
8.03
5.23
2.19
-0.57
-2.64
-3.78
-4.01
-3.57
-2.78
-1.93
-1.20
-0.59
-0.00
0.67
1.47
2.34
3.17
3.81
4.17
4.24
4.07
3.66
2.96
1.83
0.12
-2.23
-5.02
-7.80
-9.93
-10.76
-9.78
-6.80
-2.00
4.17
11.03
17.91
24.21
29.48
33.52
36.22
37.64
37.89
37.15
35.63
33.62
31.45
29.46
27.92
26.92
26.37
26.05
25.62
24.80
23.48
21.67
19.53
17.28
15.05
12.84
10.58
8.15
5.46
2.49
-0.77
-4.30
-8.09
-12.08
-16.04
-19.56
-22.09
-23.02
-21.95
-18.82
-13.94
-7.94
-1.58
4.51
9.86
14.24
17.57
19.81
20.92
20.94
20.05
18.60
17.04
15.80
15.08
14.85
14.87
14.83
14.48
13.74
12.61
11.20
9.61
7.92
6.19
4.48
2.82
1.16
-0.60
-2.63
-5.08
-8.05
-11.44
-14.97
-18.12
-20.29
-20.93
-19.71
-16.63
-11.97
-6.27
-0.13
5.94
11.53
16.35
20.20
22.92
24.41
24.70
23.93
22.38
20.43
18.45
16.78
15.63
15.04
14.93
15.06
15.18
14.99
14.31
13.04
11.23
9.04
6.68
4.32
2.06
-0.12
-2.31
-4.67
-7.37
-10.55
-14.26
-18.35
-22.46
-25.96
-28.12
-28.27
-26.07
-21.60
-15.40
-8.29
-1.11
5.44
10.95
15.26
18.35
20.27
21.12
20.98
20.01
18.49
16.76
15.15
13.90
13.06
12.55
12.15
11.72
11.15
10.45
9.65
8.76
7.74
6.52
5.01
3.20
1.13
-1.13
-3.48
-5.91
-8.50
-11.38
-14.67
-18.33
-22.07
-25.35
-27.43
-27.63
-25.54
-21.14
-14.87
-7.47
0.21
7.40
13.51
18.18
21.28
22.88
23.16
22.44
21.02
19.23
17.33
15.53
13.98
12.74
11.83
11.17
10.63
10.06
9.31
8.28
6.95
5.36
3.59
1.71
-0.17
-2.04
-3.91
-5.84
-7.97
-10.40
-13.27
-16.62
-20.31
-24.02
-27.18
-29.14
-29.27
-27.19
-22.87
-16.70
-9.36
-1.65
5.64
11.91
16.78
20.11
21.91
22.35
21.71
20.32
18.56
16.79
15.24
14.06
13.26
12.75
12.43
12.20
11.95
11.59
11.02
10.15
8.95
7.46
5.77
3.99
2.14
0.20
-1.91
-4.27
-6.92
-9.91
-13.24
-16.82
-20.45
-23.70
-25.99
-26.70
-25.34
-21.80
-16.32
-9.56
-2.32
4.61
10.62
15.29
18.48
20.15
20.40
19.42
17.47
14.88
12.03
9.29
6.96
5.20
4.05
3.35
2.88
2.39
1.69
0.68
-0.63
-2.16
-3.84
-5.61
-7.49
-9.55
-11.89
-14.62
-17.85
-21.61
-25.77
-30.04
-33.95
-36.94
-38.46
-38.21
-36.10
-32.34
-27.27
-21.31
-14.81
-8.13
-1.67
4.20
9.11
12.83
15.33
16.76
17.36
17.40
17.06
16.47
15.75
15.04
14.49
14.22
14.19
14.23
14.09
13.50
12.34
10.57
8.25
5.50
2.39
-1.03
-4.84
-9.21
-14.45
-20.88
-28.63
-37.49
-46.68
-55.08
-61.56
-65.41
-66.62
-65.96
-64.71
-64.27
-65.85
-70.08
-76.89
-85.34
-93.70
-99.77
-101.39
-97.13
-86.96
-72.34
-56.02
-41.19
-30.58
-25.64
-26.32
-31.17
-38.04
-44.82
-50.04
-53.21
-54.64
-54.89
-54.28
-52.59
-49.21
-43.52
-35.41
-25.26
-13.86
-2.22
8.37
16.28
19.66
17.19
9.04
-2.51
-13.45
-19.53
-18.23
-10.02
1.89
13.24
20.88
24.20
24.97
25.96
29.23
35.16
42.60
49.88
55.87
60.46
64.24
67.83
71.29
73.96
74.84
73.20
69.08
63.40
57.61
53.07
50.53
49.83
50.15
50.37
49.61
47.50
44.18
40.09
35.75
31.57
27.90
25.09
23.56
23.76
26.02
30.34
36.29
43.07
49.72
55.38
59.49
61.86
62.58
61.88
60.03
57.25
53.75
49.76
45.56
41.41
37.49
33.84
30.45
27.24
24.24
21.52
19.17
17.21
15.53
13.89
12.02
9.77
7.14
4.23
1.16
-2.04
-5.44
-9.16
-13.17
-17.19
-20.72
-23.17
-24.03
-23.09
-20.44
-16.46
-11.66
-6.51
-1.39
3.42
7.74
11.37
14.16
15.98
16.85
16.91
16.41
15.65
14.87
14.21
13.67
13.16
12.57
11.82
10.87
9.72
8.37
6.84
5.17
3.42
1.61
-0.31
-2.50
-5.19
-8.55
-12.51
-16.77
-20.76
-23.81
-25.39
-25.24
-23.43
-20.26
-16.13
-11.44
-6.53
-1.71
2.65
6.15
8.33
8.89
7.74
5.15
1.64
-2.07
-5.36
-7.83
-9.45
-10.41
-11.03
-11.56
-12.10
-12.66
-13.22
-13.75
-14.30
-14.96
-15.79
-16.87
-18.29
-20.21
-22.79
-26.09
-29.95
-33.99
-37.58
-40.01
-40.69
-39.30
-35.93
-31.03
-25.31
-19.52
-14.25
-9.87
-6.48
-4.10
-2.68
-2.25
-2.83
-4.38
-6.71
-9.40
-11.85
-13.32
-13.08
-10.50
-5.25
2.61
12.56
23.75
35.21
46.11
55.93
64.47
71.72
77.61
81.79
83.62
82.28
77.13
68.01
55.47
40.74
25.45
11.30
-0.37
-8.78
-13.78
-15.73
-15.30
-13.24
-10.29
-7.11
-4.19
-1.93
-0.56
-0.14
-0.62
-1.79
-3.35
-4.98
-6.38
-7.37
-7.90
-8.06
-8.04
-8.03
-8.18
-8.56
-9.14
-9.84
-10.61
-11.46
-12.44
-13.67
-15.28
-17.30
-19.72
-22.43
-25.27
-28.00
-30.34
-31.87
-32.16
-30.79
-27.52
-22.41
-15.89
-8.63
-1.43
4.99
10.16
13.86
16.07
16.93
16.61
15.36
13.51
11.43
9.51
8.01
7.06
6.57
6.34
6.14
5.79
5.20
4.37
3.32
2.12
0.82
-0.57
-2.07
-3.78
-5.77
-8.14
-10.94
-14.19
-17.82
-21.68
-25.46
-28.63
-30.57
-30.61
-28.38
-23.89
-17.62
-10.37
-3.06
3.54
8.89
12.72
15.00
15.79
15.30
13.81
11.68
9.31
7.08
5.29
4.09
3.42
3.11
2.84
2.31
1.36
0.02
-1.53
-3.00
-4.21
-5.13
-5.90
-6.80
-8.08
-9.93
-12.38
-15.31
-18.39
-21.15
-23.06
-23.59
-22.38
-19.36
-14.71
-8.92
-2.62
3.57
9.11
13.61
16.93
19.05
20.07
20.12
19.35
17.92
16.01
13.90
11.90
10.32
9.31
8.86
8.72
8.55
8.09
7.19
5.90
4.35
2.69
0.98
-0.81
-2.76
-4.97
-7.55
-10.59
-14.07
-17.86
-21.60
-24.74
-26.63
-26.69
-24.64
-20.57
-14.97
-8.51
-1.95
4.09
9.16
13.00
15.54
16.84
17.06
16.47
15.35
14.00
12.65
11.48
10.59
10.01
9.68
9.49
9.22
8.69
7.74
6.33
4.55
2.56
0.53
-1.46
-3.41
-5.43
-7.70
-10.38
-13.60
-17.33
-21.35
-25.21
-28.28
-29.87
-29.41
-26.64
-21.69
-15.05
-7.51
0.10
7.03
12.75
17.00
19.74
21.16
21.52
21.09
20.13
18.78
17.17
15.39
13.55
11.81
10.31
9.17
8.37
7.83
7.35
6.73
5.84
4.58
2.99
1.10
-1.04
-3.39
-5.87
-8.41
-10.97
-13.56
-16.28
-19.22
-22.38
-25.48
-27.97
-29.16
-28.43
-25.51
-20.57
-14.18
-7.18
-0.33
5.73
10.62
14.14
16.27
17.09
16.78
15.63
13.98
12.18
10.52
9.18
8.24
7.74
7.61
7.73
7.92
7.99
7.82
7.32
6.50
5.39
4.01
2.34
0.38
-1.86
-4.32
-6.96
-9.78
-12.79
-15.95
-19.09
-21.86
-23.70
-24.10
-22.67
-19.32
-14.31
-8.16
-1.54
4.84
10.36
14.58
17.33
18.67
18.88
18.31
17.26
15.95
14.49
13.01
11.66
10.61
9.98
9.79
9.85
9.88
9.60
8.85
7.61
5.98
4.10
2.08
-0.02
-2.12
-4.17
-6.09
-7.95
-9.86
-12.06
-14.78
-18.14
-21.97
-25.81
-28.97
-30.67
-30.34
-27.74
-23.05
-16.83
-9.85
-2.88
3.42
8.65
12.64
15.35
16.87
17.32
16.88
15.75
14.23
12.65
11.31
10.44
10.10
10.19
10.49
10.69
10.56
10.00
9.03
7.77
6.36
4.85
3.23
1.48
-0.44
-2.52
-4.75
-7.16
-9.87
-13.02
-16.67
-20.64
-24.42
-27.25
-28.37
-27.24
-23.77
-18.33
-11.67
-4.60
2.16
8.10
12.93
16.48
18.70
19.61
19.31
18.04
16.12
13.88
11.64
9.69
8.14
7.04
6.31
5.80
5.32
4.74
3.96
2.99
1.89
0.75
-0.38
-1.45
-2.47
-3.47
-4.53
-5.83
-7.57
-9.95
-13.04
-16.68
-20.43
-23.60
-25.45
-25.35
-23.07
-18.78
-13.07
-6.69
-0.40
5.25
9.91
13.48
15.94
17.37
17.80
17.30
15.94
13.90
11.49
9.10
7.16
5.98
5.63
5.91
6.38
6.61
6.30
5.40
4.10
2.63
1.16
-0.23
-1.59
-3.00
-4.54
-6.29
-8.36
-10.87
-13.80
-16.85
-19.50
-21.04
-20.83
-18.55
-14.31
-8.62
-2.21
4.18
9.91
14.56
17.84
19.62
19.92
18.90
16.92
14.43
11.90
9.76
8.26
7.44
7.17
7.17
7.15
6.92
6.38
5.55
4.51
3.33
2.04
0.61
-1.02
-2.97
-5.29
-8.02
-11.10
-14.32
-17.34
-19.66
-20.82
-20.41
-18.23
-14.39
-9.23
-3.33
2.68
8.11
12.43
15.30
16.61
16.50
15.26
13.23
10.78
8.21
5.77
3.66
1.99
0.77
-0.09
-0.78
-1.43
-2.14
-2.91
-3.71
-4.55
-5.50
-6.71
-8.38
-10.68
-13.75
-17.64
-22.29
-27.41
-32.42
-36.51
-38.80
-38.57
-35.52
-29.85
-22.19
-13.43
-4.47
3.95
11.26
17.10
21.30
23.86
24.97
24.96
24.29
23.44
22.78
22.55
22.77
23.28
23.79
23.94
23.50
22.34
20.55
18.32
15.85
13.26
10.54
7.57
4.23
0.46
-3.73
-8.23
-12.86
-17.30
-21.10
-23.70
-24.55
-23.32
-20.05
-15.13
-9.21
-3.04
2.81
7.93
12.09
15.15
17.02
17.66
17.18
15.85
14.03
12.15
10.52
9.31
8.55
8.14
7.91
7.62
7.07
6.14
4.77
3.07
1.19
-0.76
-2.78
-5.04
-7.77
-11.18
-15.34
-20.09
-24.99
-29.39
-32.60
-34.03
-33.37
-30.69
-26.36
-20.92
-14.90
-8.75
-2.80
2.62
7.14
10.37
12.01
11.99
10.55
8.19
5.55
3.19
1.46
0.47
0.11
0.12
0.23
0.24
0.01
-0.47
-1.20
-2.17
-3.45
-5.10
-7.24
-9.91
-13.07
-16.60
-20.24
-23.61
-26.21
-27.54
-27.15
-24.81
-20.63
-15.02
-8.60
-2.04
4.10
9.45
13.73
16.75
18.33
18.39
17.04
14.62
11.72
8.96
6.81
5.48
4.83
4.51
4.14
3.47
2.43
1.12
-0.32
-1.80
-3.37
-5.15
-7.29
-9.92
-13.09
-16.73
-20.64
-24.51
-27.92
-30.32
-31.14
-29.92
-26.42
-20.77
-13.45
-5.27
2.86
10.13
15.94
20.04
22.44
23.31
22.90
21.49
19.41
17.03
14.74
12.88
11.61
10.90
10.51
10.10
9.39
8.26
6.75
5.05
3.28
1.49
-0.36
-2.42
-4.80
-7.55
-10.74
-14.42
-18.63
-23.29
-28.01
-32.08
-34.58
-34.64
-31.82
-26.22
-18.60
-9.99
-1.46
6.21
12.60
17.60
21.27
23.69
24.92
25.02
24.15
22.57
20.68
18.87
17.43
16.47
15.90
15.53
15.18
14.72
14.16
13.51
12.72
11.69
10.27
8.39
6.14
3.65
1.15
-1.26
-3.61
-6.04
-8.78
-12.02
-15.87
-20.24
-24.83
-29.02
-32.07
-33.19
-31.79
-27.72
-21.27
-13.18
-4.35
4.31
12.11
18.58
23.49
26.73
28.33
28.42
27.30
25.38
23.16
21.08
19.42
18.27
17.56
17.15
16.88
16.66
16.38
15.97
15.36
14.48
13.32
11.91
10.27
8.45
6.47
4.38
2.20
-0.07
-2.48
-5.10
-8.00
-11.24
-14.78
-18.48
-22.11
-25.36
-27.81
-29.06
-28.67
-26.36
-22.07
-16.05
-8.84
-1.18
6.15
12.50
17.42
20.71
22.37
22.54
21.52
19.67
17.43
15.22
13.34
11.94
11.00
10.36
9.81
9.19
8.45
7.61
6.74
5.83
4.82
3.66
2.27
0.68
-1.06
-2.88
-4.71
-6.60
-8.63
-10.99
-13.82
-17.18
-20.93
-24.60
-27.53
-28.93
-28.16
-24.97
-19.61
-12.78
-5.41
1.63
7.75
12.66
16.33
18.84
20.21
20.44
19.58
17.74
15.22
12.45
9.85
7.81
6.49
5.78
5.41
5.00
4.27
3.09
1.57
-0.07
-1.65
-3.07
-4.44
-5.94
-7.77
-10.10
-12.98
-16.42
-20.30
-24.31
-27.94
-30.56
-31.51
-30.31
-26.91
-21.64
-15.20
-8.42
-2.05
3.38
7.62
10.58
12.34
13.01
12.77
11.87
10.55
9.04
7.54
6.16
4.98
4.04
3.37
2.93
2.62
2.26
1.71
0.92
-0.05
-1.05
-1.95
-2.72
-3.48
-4.40
-5.70
-7.56
-10.08
-13.23
-16.84
-20.46
-23.41
-24.90
-24.23
-21.09
-15.69
-8.70
-1.06
6.37
12.95
18.33
22.35
25.01
26.34
26.48
25.69
24.32
22.70
21.04
19.45
17.94
16.51
15.23
14.18
13.42
12.89
12.47
11.99
11.33
10.45
9.36
8.04
6.44
4.48
2.09
-0.76
-4.04
-7.70
-11.63
-15.65
-19.43
-22.47
-24.22
-24.19
-22.18
-18.32
-13.12
-7.32
-1.66
3.26
7.10
9.76
11.34
11.97
11.80
10.91
9.40
7.41
5.17
2.96
1.05
-0.42
-1.46
-2.24
-2.97
-3.85
-5.00
-6.50
-8.35
-10.52
-12.93
-15.48
-18.06
-20.64
-23.34
-26.38
-29.92
-33.98
-38.23
-42.07
-44.72
-45.45
-43.79
-39.67
-33.43
-25.74
-17.45
-9.37
-2.16
3.76
8.22
11.22
12.91
13.50
13.25
12.52
11.61
10.84
10.36
10.20
10.21
10.19
9.93
9.34
8.53
7.72
7.22
7.23
7.70
8.34
8.71
8.35
7.01
4.70
1.71
-1.50
-4.36
-6.36
-7.09
-6.30
-3.93
-0.14
4.68
9.98
15.17
19.71
23.26
25.65
26.88
26.98
26.01
24.05
21.26
17.97
14.63
11.74
9.66
8.47
7.95
7.65
7.07
5.91
4.10
1.82
-0.65
-3.10
-5.42
-7.67
-10.03
-12.66
-15.64
-19.04
-22.79
-26.77
-30.70
-34.13
-36.43
-36.93
-35.05
-30.62
-23.94
-15.78
-7.15
0.97
7.84
13.08
16.63
18.66
19.47
19.36
18.67
17.62
16.39
15.08
13.73
12.40
11.16
10.09
9.24
8.58
8.00
7.31
6.35
5.01
3.29
1.24
-0.98
-3.29
-5.56
-7.80
-10.04
-12.38
-14.89
-17.61
-20.52
-23.51
-26.35
-28.74
-30.22
-30.28
-28.49
-24.56
-18.60
-11.07
-2.76
5.43
12.73
18.64
22.99
25.82
27.28
27.56
26.88
25.53
23.83
22.07
20.48
19.13
17.99
16.95
15.92
14.86
13.75
12.59
11.38
10.06
8.60
6.98
5.21
3.37
1.54
-0.23
-1.94
-3.72
-5.81
-8.49
-11.93
-16.04
-20.43
-24.41
-27.22
-28.22
-27.07
-23.84
-18.96
-13.07
-6.88
-0.99
4.16
8.38
11.63
13.97
15.49
16.27
16.38
15.94
15.09
14.03
12.93
11.96
11.17
10.53
10.02
9.58
9.21
8.91
8.60
8.16
7.42
6.23
4.50
2.24
-0.52
-3.74
-7.36
-11.26
-15.23
-18.91
-21.86
-23.61
-23.81
-22.28
-19.07
-14.41
-8.68
-2.37
4.00
9.89
14.82
18.44
20.62
21.38
20.96
19.69
17.94
16.02
14.16
12.45
10.92
9.52
8.23
7.07
6.07
5.28
4.65
4.01
3.15
1.84
-0.03
-2.38
-5.00
-7.61
-10.05
-12.27
-14.43
-16.79
-19.54
-22.77
-26.37
-30.03
-33.27
-35.56
-36.33
-35.11
-31.64
-25.98
-18.54
-10.08
-1.55
6.15
12.37
16.81
19.53
20.79
20.91
20.19
18.90
17.32
15.64
14.00
12.39
10.72
8.92
7.02
5.17
3.52
2.14
0.88
-0.52
-2.28
-4.47
-6.90
-9.28
-11.40
-13.31
-15.31
-17.86
-21.34
-25.86
-31.20
-36.91
-42.42
-47.28
-51.19
-54.06
-55.83
-56.42
-55.64
-53.28
-49.24
-43.57
-36.50
-28.29
-19.11
-9.12
1.34
11.43
19.96
25.86
28.85
29.92
31.06
34.32
40.76
49.75
59.31
67.08
71.59
72.80
71.82
70.08
68.46
67.06
65.54
63.77
62.15
61.43
62.11
63.89
65.73
66.15
63.96
58.79
51.14
42.16
33.14
25.13
18.82
14.54
12.38
12.16
13.31
14.93
15.89
15.27
12.65
8.26
2.85
-2.80
-8.26
-13.59
-19.28
-25.81
-33.40
-41.85
-50.61
-59.05
-66.73
-73.39
-78.98
-83.55
-87.14
-89.84
-91.76
-93.10
-94.11
-95.01
-95.85
-96.46
-96.45
-95.43
-93.15
-89.74
-85.71
-81.78
-78.58
-76.32
-74.71
-73.00
-70.30
-65.91
-59.60
-51.62
-42.52
-32.93
-23.43
-14.45
-6.29
0.79
6.60
11.08
14.33
16.67
18.50
20.18
21.91
23.65
25.22
26.41
27.17
27.61
28.00
28.60
29.51
30.61
31.59
32.08
31.77
30.61
28.76
26.52
24.22
22.06
20.08
18.12
15.97
13.45
10.44
7.00
3.32
-0.26
-3.31
-5.37
-6.05
-5.17
-2.78
0.74
4.84
8.93
12.57
15.54
17.83
19.54
20.73
21.41
21.50
20.99
19.96
18.61
17.20
15.95
14.95
14.16
13.44
12.64
11.70
10.63
9.60
8.78
8.30
8.19
8.32
8.44
8.22
7.42
5.94
3.93
1.80
0.09
-0.67
-0.13
1.81
5.04
9.30
14.39
20.21
26.72
33.89
41.57
49.49
57.27
64.58
71.18
76.99
82.13
86.84
91.63
97.13
103.94
112.21
121.07
128.42
131.32
126.90
113.58
91.94
64.70
35.81
9.15
-12.73
-29.02
-40.39
-48.19
-53.65
-57.52
-60.05
-61.30
-61.36
-60.40
-58.53
-55.74
-51.78
-46.33
-39.18
-30.44
-20.71
-10.94
-2.21
4.62
9.14
11.52
12.34
12.33
12.11
12.06
12.26
12.56
12.73
12.54
11.85
10.65
9.06
7.22
5.26
3.18
0.93
-1.57
-4.31
-7.16
-9.91
-12.41
-14.68
-16.85
-19.05
-21.16
-22.74
-23.09
-21.40
-17.13
-10.16
-0.87
9.98
21.50
32.83
43.37
52.77
60.95
68.01
74.16
79.62
84.53
88.84
92.30
94.50
94.91
93.02
88.45
81.01
70.80
58.20
43.86
28.65
13.59
-0.36
-12.39
-22.03
-29.22
-34.30
-37.98
-41.12
-44.57
-48.94
-54.60
-61.54
-69.37
-77.37
-84.45
-89.32
-90.72
-87.80
-80.46
-69.56
-56.82
-44.38
-34.26
-27.81
-25.40
-26.51
-30.02
-34.68
-39.40
-43.54
-46.80
-49.13
-50.58
-51.19
-51.02
-50.18
-48.94
-47.62
-46.61
-46.22
-46.58
-47.64
-49.16
-50.79
-52.23
-53.29
-53.92
-54.30
-54.78
-55.69
-57.26
-59.33
-61.35
-62.33
-61.04
-56.23
-47.05
-33.35
-15.91
3.60
22.94
39.71
51.99
58.64
59.54
55.43
47.61
37.58
26.70
16.05
6.30
-2.18
-9.23
-14.89
-19.26
-22.52
-24.87
-26.56
-27.80
-28.75
-29.42
-29.77
-29.76
-29.47
-29.17
-29.21
-29.94
-31.49
-33.78
-36.56
-39.54
-42.53
-45.40
-48.01
-49.98
-50.81
-49.90
-46.78
-41.37
-34.00
-25.37
-16.34
-7.73
-0.14
6.09
10.87
14.33
16.78
18.57
20.08
21.65
23.52
25.87
28.78
32.33
36.51
41.30
46.58
52.18
57.89
63.47
68.70
73.44
77.67
81.48
85.05
88.57
92.13
95.73
99.17
102.10
104.06
104.56
103.25
100.03
95.14
89.20
83.00
77.33
72.68
69.13
66.40
64.06
61.82
59.64
57.79
56.57
56.10
56.18
56.28
55.70
53.86
50.40
45.32
38.83
31.30
23.12
14.68
6.28
-1.83
-9.55
-16.96
-24.31
-31.96
-40.22
-49.27
-59.01
-69.11
-79.07
-88.33
-96.45
-103.13
-108.29
-112.08
-114.81
-116.94
-118.90
-120.88
-122.65
-123.53
-122.56
-118.81
-111.77
-101.63
-89.25
-75.88
-62.81
-50.98
-40.88
-32.54
-25.76
-20.28
-15.90
-12.44
-9.76
-7.59
-5.65
-3.67
-1.46
1.01
3.58
5.95
7.78
8.76
8.81
8.06
6.89
5.79
5.15
5.05
5.18
4.91
3.51
0.37
-4.79
-11.86
-20.34
-29.36
-37.74
-44.12
-47.14
-45.86
-40.05
-30.44
-18.55
-6.32
4.46
12.65
17.93
20.64
21.45
21.05
19.88
18.23
16.31
14.37
12.72
11.64
11.26
11.52
12.22
13.08
13.96
14.85
15.81
16.93
18.22
19.54
20.71
21.52
21.78
21.38
20.26
18.44
15.97
12.92
9.31
5.10
0.23
-5.27
-11.12
-16.76
-21.38
-24.16
-24.55
-22.42
-18.12
-12.36
-5.91
0.58
6.61
11.86
16.06
19.03
20.67
21.12
20.63
19.57
18.32
17.15
16.28
15.86
16.02
16.82
18.17
19.80
21.23
21.96
21.58
20.01
17.46
14.37
11.26
8.50
6.26
4.42
2.66
0.49
-2.56
-6.84
-12.37
-18.77
-25.28
-30.89
-34.62
-35.81
-34.30
-30.50
-25.24
-19.46
-14.04
-9.59
-6.43
-4.66
-4.24
-5.07
-7.01
-9.86
-13.25
-16.68
-19.58
-21.45
-22.08
-21.63
-20.55
-19.43
-18.75
-18.74
-19.34
-20.34
-21.55
-22.86
-24.28
-25.85
-27.62
-29.61
-31.86
-34.41
-37.29
-40.38
-43.34
-45.50
-46.07
-44.26
-39.61
-32.13
-22.41
-11.42
-0.27
10.04
18.85
25.80
30.81
33.98
35.49
35.62
34.77
33.36
31.82
30.49
29.49
28.80
28.25
27.66
26.88
25.88
24.66
23.24
21.61
19.67
17.34
14.60
11.54
8.34
5.16
2.00
-1.29
-5.00
-9.39
-14.44
-19.74
-24.48
-27.63
-28.27
-25.82
-20.31
-12.25
-2.56
7.76
17.77
26.77
34.26
39.96
43.78
45.76
46.20
45.45
43.95
42.05
40.00
37.92
35.96
34.21
32.79
31.77
31.09
30.58
30.00
29.16
27.93
26.33
24.39
22.20
19.80
17.19
14.32
11.09
7.39
3.06
-1.94
-7.57
-13.51
-19.17
-23.73
-26.25
-25.88
-22.18
-15.28
-5.93
4.68
15.22
24.60
32.20
37.90
41.97
44.79
46.66
47.72
48.02
47.61
46.66
45.51
44.59
44.30
44.89
46.41
48.67
51.35
53.98
56.05
57.11
56.85
55.34
53.12
51.13
50.46
51.77
54.84
58.30
59.97
57.58
49.63
35.96
17.82
-2.63
-22.98
-41.17
-55.80
-66.05
-71.60
-72.50
-69.27
-62.86
-54.62
-45.98
-38.15
-31.85
-27.25
-24.08
-21.86
-20.16
-18.69
-17.37
-16.27
-15.48
-15.06
-14.94
-14.90
-14.65
-13.92
-12.53
-10.56
-8.29
-6.13
-4.51
-3.65
-3.55
-3.95
-4.48
-4.80
-4.78
-4.48
-4.21
-4.33
-5.17
-6.89
-9.39
-12.29
-14.97
-16.63
-16.47
-13.85
-8.50
-0.58
9.34
20.40
31.65
42.22
51.47
59.09
65.06
69.64
73.25
76.40
79.45
82.59
85.77
88.80
91.49
93.73
95.49
96.74
97.43
97.47
96.94
96.11
95.43
95.28
95.67
96.13
95.72
93.40
88.32
80.03
68.44
53.62
35.79
15.33
-6.90
-29.50
-50.58
-68.27
-81.23
-89.09
-92.44
-92.57
-91.01
-89.06
-87.63
-87.14
-87.66
-88.97
-90.70
-92.40
-93.60
-93.97
-93.34
-91.71
-89.17
-85.89
-82.00
-77.66
-73.06
-68.42
-63.95
-59.87
-56.24
-53.04
-50.12
-47.29
-44.41
-41.52
-38.79
-36.54
-35.05
-34.44
-34.61
-35.27
-36.02
-36.38
-35.86
-33.95
-30.24
-24.57
-17.15
-8.58
0.31
8.63
15.76
21.38
25.48
28.19
29.73
30.27
29.99
29.09
27.81
26.40
25.08
24.00
23.17
22.50
21.84
21.00
19.92
18.65
17.31
16.04
14.82
13.49
11.83
9.67
7.01
4.00
0.83
-2.44
-5.86
-9.53
-13.36
-16.99
-19.76
-20.93
-19.94
-16.68
-11.48
-5.03
1.87
8.48
14.26
18.87
22.10
23.86
24.18
23.23
21.35
18.96
16.49
14.25
12.36
10.76
9.32
7.95
6.64
5.43
4.38
3.44
2.49
1.40
0.03
-1.61
-3.44
-5.29
-7.02
-8.56
-9.98
-11.42
-13.07
-15.11
-17.64
-20.60
-23.73
-26.53
-28.30
-28.31
-26.00
-21.25
-14.39
-6.19
2.43
10.59
17.68
23.39
27.65
30.48
31.95
32.20
31.45
30.00
28.22
26.40
24.63
22.90
21.05
18.98
16.68
14.30
12.09
10.23
8.78
7.57
6.29
4.61
2.32
-0.54
-3.75
-7.00
-10.00
-12.65
-15.03
-17.35
-19.89
-22.87
-26.35
-30.24
-34.21
-37.72
-40.13
-40.81
-39.28
-35.41
-29.48
-22.10
-14.11
-6.35
0.49
6.00
10.02
12.61
13.91
14.15
13.56
12.44
11.08
9.80
8.85
8.34
8.29
8.54
8.96
9.41
9.83
10.19
10.44
10.45
10.02
9.01
7.37
5.25
2.90
0.58
-1.58
-3.62
-5.72
-8.13
-11.02
-14.41
-18.08
-21.57
-24.20
-25.25
-24.13
-20.62
-15.01
-7.96
-0.41
6.78
12.97
17.82
21.23
23.24
23.96
23.57
22.32
20.51
18.45
16.40
14.55
12.98
11.73
10.75
9.96
9.26
8.52
7.66
6.64
5.45
4.10
2.59
0.92
-0.88
-2.78
-4.70
-6.58
-8.40
-10.22
-12.18
-14.42
-17.01
-19.80
-22.42
-24.22
-24.47
-22.56
-18.26
-11.86
-4.05
4.29
12.29
19.39
25.31
29.93
33.25
35.30
36.16
36.09
35.49
34.81
34.46
34.59
35.14
35.90
36.65
37.32
37.92
38.51
39.12
39.67
40.03
40.00
39.48
38.45
37.00
35.29
33.55
31.98
30.74
29.74
28.63
26.81
23.60
18.55
11.72
3.75
-4.30
-11.26
-16.24
-18.86
-19.28
-18.00
-15.63
-12.73
-9.74
-6.97
-4.66
-2.96
-1.93
-1.51
-1.55
-1.84
-2.16
-2.36
-2.35
-2.08
-1.54
-0.70
0.43
1.83
3.39
4.97
6.38
7.50
8.24
8.63
8.75
8.69
8.52
8.19
7.53
6.28
4.10
0.64
-4.31
-10.66
-17.95
-25.36
-31.82
-36.30
-38.07
-36.87
-32.92
-26.85
-19.50
-11.70
-4.17
2.59
8.32
12.99
16.69
19.66
22.13
24.31
26.30
28.05
29.42
30.14
29.96
28.71
26.38
23.19
19.52
15.79
12.28
9.05
5.96
2.77
-0.72
-4.54
-8.55
-12.56
-16.44
-20.18
-23.92
-27.89
-32.23
-36.92
-41.69
-46.00
-49.10
-50.23
-48.86
-44.85
-38.57
-30.82
-22.52
-14.54
-7.41
-1.37
3.53
7.31
10.02
11.77
12.87
13.81
15.21
17.64
21.39
26.50
32.75
39.71
46.68
52.55
55.83
54.84
48.22
35.44
17.16
-4.89
-28.35
-50.85
-70.55
-86.40
-98.07
-105.80
-110.17
-111.87
-111.63
-110.09
-107.65
-104.40
-100.15
-94.47
-87.00
-77.64
-66.76
-55.21
-44.15
-34.66
-27.44
-22.62
-19.78
-18.26
-17.48
-17.07
-16.98
-17.22
-17.79
-18.50
-19.11
-19.42
-19.42
-19.26
-19.21
-19.46
-20.06
-20.92
-21.85
-22.65
-23.18
-23.37
-23.21
-22.73
-22.03
-21.27
-20.67
-20.47
-20.85
-21.96
-23.81
-26.21
-28.75
-30.72
-31.24
-29.49
-24.94
-17.68
-8.35
1.95
12.06
21.08
28.53
34.33
38.56
41.31
42.64
42.61
41.42
39.39
36.96
34.50
32.26
30.32
28.68
27.29
26.07
24.88
23.51
21.72
19.30
16.14
12.36
8.21
3.96
-0.18
-4.14
-7.98
-11.84
-15.87
-20.11
-24.47
-28.63
-32.08
-34.20
-34.39
-32.25
-27.75
-21.23
-13.40
-5.07
2.96
10.11
16.07
20.81
24.44
27.14
29.07
30.40
31.31
31.98
32.61
33.40
34.46
35.84
37.50
39.38
41.37
43.40
45.41
47.34
49.20
50.98
52.68
54.26
55.62
56.58
56.85
56.13
54.07
50.44
45.22
38.67
31.45
24.50
18.83
15.24
14.12
15.32
18.31
22.33
26.62
30.53
33.57
35.40
35.86
35.03
33.26
31.16
29.37
28.34
28.13
28.42
28.65
28.33
27.12
24.95
21.89
18.12
13.81
9.24
4.76
0.77
-2.49
-5.05
-7.29
-9.80
-13.21
-17.93
-24.06
-31.44
-39.70
-48.27
-56.39
-63.16
-67.57
-68.84
-66.64
-61.28
-53.68
-45.08
-36.66
-29.28
-23.34
-18.88
-15.76
-13.85
-13.05
-13.26
-14.31
-15.84
-17.35
-18.36
-18.56
-17.96
-16.87
-15.80
-15.20
-15.27
-15.92
-16.85
-17.65
-18.01
-17.71
-16.69
-14.98
-12.79
-10.60
-9.12
-9.17
-11.29
-15.48
-21.05
-26.86
-31.68
-34.66
-35.52
-34.51
-32.15
-28.87
-24.89
-20.26
-15.04
-9.53
-4.34
-0.29
1.88
1.73
-0.64
-4.57
-9.06
-13.13
-16.08
-17.72
-18.23
-17.99
-17.32
-16.44
-15.42
-14.42
-13.67
-13.47
-14.06
-15.48
-17.47
-19.58
-21.36
-22.52
-23.10
-23.46
-24.11
-25.50
-27.83
-30.88
-33.99
-36.22
-36.61
-34.48
-29.74
-22.84
-14.72
-6.46
1.02
7.14
11.73
14.92
16.95
18.03
18.32
17.96
17.05
15.80
14.44
13.19
12.21
11.53
11.09
10.70
10.20
9.46
8.47
7.31
6.11
4.91
3.68
2.30
0.61
-1.55
-4.26
-7.60
-11.55
-15.98
-20.58
-24.77
-27.80
-28.96
-27.78
-24.24
-18.79
-12.26
-5.58
0.43
5.26
8.60
10.41
10.70
9.58
7.21
3.86
-0.11
-4.22
-7.93
-10.69
-12.09
-11.94
-10.35
-7.72
-4.60
-1.50
1.30
3.75
6.01
8.24
10.45
12.45
13.91
14.54
14.10
12.51
9.74
5.90
1.26
-3.58
-7.69
-9.96
-9.39
-5.42
1.81
11.46
22.18
32.54
41.32
47.81
51.79
53.47
53.26
51.65
49.15
46.20
43.25
40.67
38.77
37.79
37.79
38.69
40.24
42.04
43.52
44.00
42.83
39.53
33.94
26.31
17.20
7.42
-2.27
-11.32
-19.53
-27.02
-34.18
-41.36
-48.69
-55.80
-61.93
-66.03
-67.21
-65.06
-59.83
-52.35
-43.73
-35.04
-27.02
-20.00
-14.10
-9.31
-5.66
-3.15
-1.77
-1.35
-1.63
-2.26
-2.95
-3.56
-4.11
-4.76
-5.67
-6.95
-8.57
-10.42
-12.39
-14.37
-16.28
-18.08
-19.67
-20.96
-21.93
-22.69
-23.58
-25.16
-28.02
-32.60
-38.90
-46.35
-53.76
-59.55
-62.07
-60.01
-52.78
-40.70
-24.96
-7.37
9.96
25.08
36.56
43.71
46.64
46.05
42.95
38.38
33.27
28.34
24.13
21.00
19.04
18.03
17.53
17.07
16.42
15.79
15.75
16.96
19.86
24.41
30.13
36.33
42.42
48.09
53.30
58.25
63.25
68.59
74.38
80.30
85.36
87.94
86.18
78.59
64.72
45.47
22.88
-0.42
-22.01
-40.16
-53.97
-63.23
-68.20
-69.39
-67.57
-63.70
-58.84
-53.90
-49.43
-45.55
-42.03
-38.50
-34.72
-30.65
-26.56
-22.85
-19.98
-18.30
-17.98
-18.99
-21.07
-23.84
-26.85
-29.67
-32.04
-33.95
-35.58
-37.32
-39.54
-42.38
-45.51
-48.09
-48.91
-46.75
-40.76
-30.80
-17.41
-1.74
14.94
31.46
46.99
61.02
73.28
83.69
92.21
98.93
103.95
107.39
109.37
109.90
108.97
106.61
102.86
97.88
91.89
85.15
78.00
70.80
63.89
57.55
51.91
46.93
42.41
38.11
33.82
29.45
25.01
20.57
16.18
11.87
7.72
4.03
1.39
0.54
2.10
6.21
12.35
19.37
25.86
30.60
32.89
32.67
30.41
26.79
22.47
17.99
13.80
10.30
7.84
6.59
6.31
6.32
5.56
2.94
-2.16
-9.60
-18.44
-27.44
-35.61
-42.66
-48.91
-54.83
-60.42
-65.02
-67.56
-67.26
-64.23
-59.59
-54.99
-51.83
-50.55
-50.53
-50.49
-49.23
-46.23
-41.78
-36.78
-32.18
-28.57
-26.05
-24.34
-23.07
-22.09
-21.56
-21.86
-23.29
-25.86
-29.14
-32.44
-34.99
-36.28
-36.27
-35.39
-34.33
-33.79
-34.15
-35.36
-37.03
-38.67
-39.90
-40.68
-41.29
-42.28
-44.26
-47.75
-53.04
-60.07
-68.34
-76.92
-84.55
-89.96
-92.06
-90.33
-84.81
-76.13
-65.23
-53.12
-40.70
-28.59
-17.13
-6.47
3.32
12.13
19.78
26.02
30.66
33.68
35.34
36.11
36.55
37.13
38.06
39.29
40.54
41.47
41.89
41.79
41.32
40.65
39.78
38.51
36.48
33.33
28.95
23.46
17.23
10.76
4.58
-0.72
-4.46
-5.97
-4.78
-0.91
5.00
11.77
18.05
22.84
25.73
26.91
26.88
26.03
24.47
22.14
18.93
15.00
10.75
6.71
3.26
0.55
-1.53
-3.23
-4.85
-6.57
-8.50
-10.67
-13.07
-15.69
-18.47
-21.27
-23.90
-26.18
-27.95
-29.20
-30.10
-30.93
-31.98
-33.38
-34.90
-35.93
-35.54
-32.77
-26.94
-17.85
-5.94
7.87
22.40
36.55
49.49
60.82
70.49
78.71
85.69
91.50
96.01
98.87
99.65
97.98
93.72
86.96
78.04
67.39
55.57
43.29
31.36
20.69
12.10
6.07
2.53
0.91
0.29
-0.29
-1.59
-4.07
-7.94
-13.18
-19.55
-26.40
-32.80
-37.60
-39.80
-38.92
-35.14
-29.27
-22.35
-15.34
-8.84
-3.11
1.80
5.90
9.12
11.37
12.60
12.93
12.64
12.15
11.86
12.01
12.59
13.32
13.78
13.64
12.81
11.43
9.80
8.19
6.64
5.04
3.16
0.89
-1.75
-4.66
-7.81
-11.26
-15.05
-18.98
-22.46
-24.51
-24.00
-20.07
-12.50
-1.82
10.80
23.86
35.98
46.09
53.59
58.27
60.18
59.53
56.65
51.96
46.02
39.47
32.99
27.20
22.55
19.25
17.20
16.07
15.40
14.69
13.56
11.79
9.38
6.45
3.18
-0.27
-3.82
-7.50
-11.42
-15.71
-20.43
-25.48
-30.53
-34.93
-37.86
-38.41
-35.93
-30.18
-21.51
-10.73
1.08
12.85
23.75
33.30
41.23
47.41
51.70
53.97
54.23
52.71
49.94
46.62
43.43
40.82
38.79
36.95
34.71
31.61
27.50
22.56
17.25
11.97
6.92
1.98
-3.18
-8.89
-15.34
-22.47
-30.00
-37.46
-44.33
-50.02
-53.96
-55.66
-54.81
-51.38
-45.67
-38.28
-29.93
-21.35
-13.14
-5.67
0.81
6.10
10.06
12.57
13.61
13.35
12.12
10.33
8.44
6.82
5.74
5.38
5.73
6.68
7.91
8.99
9.54
9.28
8.21
6.50
4.43
2.19
-0.21
-2.88
-5.96
-9.51
-13.36
-17.10
-20.15
-21.76
-21.22
-17.99
-11.83
-2.93
8.08
20.35
32.94
45.02
55.85
64.72
70.90
73.66
72.57
67.66
59.62
49.67
39.19
29.37
20.95
14.14
8.86
4.89
1.99
-0.10
-1.79
-3.58
-6.12
-9.89
-15.13
-21.74
-29.23
-36.95
-44.26
-50.73
-56.28
-61.16
-65.72
-70.20
-74.43
-77.78
-79.36
-78.36
-74.40
-67.70
-59.00
-49.31
-39.52
-30.26
-21.90
-14.63
-8.60
-3.95
-0.72
1.21
2.16
2.56
2.86
3.41
4.45
6.09
8.28
10.83
13.38
15.55
17.03
17.71
17.67
17.03
15.75
13.53
9.91
4.50
-2.74
-11.37
-20.52
-29.20
-36.50
-41.86
-45.02
-45.99
-44.88
-41.92
-37.40
-31.72
-25.39
-18.94
-12.92
-7.83
-3.98
-1.51
-0.34
-0.21
-0.69
-1.42
-2.08
-2.50
-2.62
-2.48
-2.18
-1.87
-1.77
-2.10
-2.99
-4.45
-6.34
-8.44
-10.59
-12.74
-14.95
-17.38
-20.13
-23.18
-26.32
-29.17
-31.12
-31.47
-29.50
-24.66
-16.74
-6.00
6.89
20.97
35.13
48.34
59.65
68.32
73.87
76.14
75.40
72.29
67.68
62.46
57.32
52.72
48.90
45.92
43.78
42.41
41.60
41.10
40.61
39.89
38.76
37.05
34.61
31.26
26.98
21.97
16.68
11.73
7.61
4.50
2.25
0.55
-0.84
-1.94
-2.65
-2.81
-2.49
-2.04
-1.91
-2.53
-4.08
-6.53
-9.60
-12.96
-16.36
-19.62
-22.73
-25.77
-28.85
-32.06
-35.42
-38.78
-41.95
-44.74
-47.15
-49.43
-52.00
-55.33
-59.72
-65.11
-71.01
-76.59
-80.81
-82.66
-81.39
-76.70
-68.77
-58.26
-46.18
-33.61
-21.60
-10.94
-2.14
4.50
8.91
11.16
11.58
10.70
9.16
7.62
6.54
6.04
5.96
5.96
5.72
5.12
4.28
3.48
3.04
3.16
3.84
4.89
6.04
7.04
7.70
7.95
7.84
7.56
7.39
7.69
8.85
11.11
14.57
19.06
24.20
29.49
34.40
38.45
41.28
42.65
42.49
40.93
38.24
34.77
30.82
26.55
21.98
17.05
11.75
6.18
0.45
-5.34
-11.22
-17.28
-23.61
-30.15
-36.65
-42.76
-48.15
-52.62
-56.19
-58.96
-61.06
-62.58
-63.61
-64.27
-64.70
-64.92
-64.66
-63.33
-60.11
-54.32
-45.71
-34.62
-21.96
-8.88
3.51
14.46
23.56
30.79
36.34
40.58
43.90
46.72
49.36
51.93
54.40
56.62
58.53
60.30
62.29
64.99
68.78
73.72
79.38
84.70
87.97
87.14
80.21
65.90
44.20
16.62
-14.09
-44.57
-71.83
-93.81
-109.64
-119.35
-123.43
-122.38
-116.59
-106.55
-93.06
-77.34
-60.88
-45.14
-31.17
-19.44
-9.80
-1.75
5.20
11.30
16.52
20.63
23.51
25.26
26.25
27.04
28.05
29.48
31.23
33.05
34.68
36.04
37.22
38.38
39.66
41.06
42.52
43.85
44.92
45.64
45.99
45.94
45.44
44.37
42.64
40.32
37.71
35.34
33.87
33.83
35.46
38.70
43.14
48.23
53.36
57.97
61.50
63.48
63.59
61.73
58.17
53.41
48.10
42.81
37.90
33.52
29.65
26.16
22.98
20.07
17.45
15.18
13.26
11.56
9.83
7.67
4.70
0.71
-4.35
-10.37
-17.20
-24.82
-33.29
-42.56
-52.26
-61.53
-69.08
-73.58
-74.04
-70.25
-62.84
-53.26
-43.45
-35.48
-31.24
-31.97
-37.99
-48.41
-61.20
-73.59
-82.74
-86.50
-83.92
-75.43
-62.59
-47.52
-32.32
-18.64
-7.49
0.73
6.08
8.90
9.70
9.11
7.83
6.58
5.96
6.31
7.58
9.27
10.63
10.85
9.42
6.23
1.73
-3.20
-7.48
-10.04
-10.21
-7.86
-3.50
1.88
7.16
11.40
14.08
15.20
15.05
14.00
12.34
10.24
7.89
5.52
3.46
1.98
1.22
1.05
1.17
1.21
0.93
0.29
-0.55
-1.36
-1.98
-2.44
-2.86
-3.46
-4.38
-5.70
-7.44
-9.60
-12.21
-15.32
-18.77
-22.21
-24.95
-26.20
-25.26
-21.86
-16.27
-9.22
-1.69
5.43
11.57
16.56
20.43
23.27
25.05
25.71
25.25
23.91
22.14
20.53
19.54
19.35
19.82
20.60
21.32
21.72
21.71
21.35
20.71
19.84
18.72
17.32
15.66
13.79
11.76
9.51
6.95
3.95
0.49
-3.23
-6.75
-9.41
-10.50
-9.49
-6.17
-0.74
6.30
14.24
22.39
30.18
37.16
43.00
47.41
50.15
51.14
50.51
48.69
46.32
44.07
42.35
41.15
40.10
38.55
35.93
31.90
26.45
19.86
12.47
4.55
-3.75
-12.36
-21.25
-30.26
-39.12
-47.43
-54.70
-60.44
-64.16
-65.54
-64.48
-61.22
-56.25
-50.19
-43.58
-36.66
-29.36
-21.47
-12.80
-3.50
5.89
14.53
21.43
25.72
26.85
24.76
19.98
13.60
7.08
1.91
-0.83
-0.77
1.69
5.50
9.42
12.38
13.74
13.31
11.17
7.47
2.33
-4.10
-11.52
-19.39
-26.93
-33.25
-37.58
-39.40
-38.48
-34.94
-29.12
-21.53
-12.77
-3.49
5.63
13.97
20.92
26.04
29.00
29.74
28.50
25.80
22.37
18.90
15.90
13.51
11.59
9.80
7.84
5.60
3.20
0.97
-0.70
-1.48
-1.22
-0.01
1.77
3.56
4.74
4.83
3.57
1.02
-2.52
-6.56
-10.49
-13.70
-15.67
-16.02
-14.73
-12.11
-8.82
-5.64
-3.28
-2.15
-2.31
-3.57
-5.57
-7.92
-10.18
-11.84
-12.37
-11.25
-8.22
-3.41
2.56
8.74
14.13
18.05
20.33
21.24
21.33
21.06
20.56
19.63
17.80
14.58
9.62
2.79
-5.67
-15.19
-24.81
-33.27
-39.26
-41.74
-40.31
-35.32
-27.82
-19.27
-11.11
-4.52
-0.25
1.42
0.52
-2.64
-7.58
-13.71
-20.45
-27.26
-33.68
-39.36
-43.97
-47.27
-49.10
-49.46
-48.57
-46.77
-44.49
-42.10
-39.87
-37.97
-36.48
-35.44
-34.84
-34.63
-34.69
-34.93
-35.26
-35.65
-36.04
-36.20
-35.66
-33.78
-29.91
-23.67
-15.19
-5.16
5.34
15.16
23.39
29.58
33.66
35.85
36.42
35.59
33.51
30.39
26.55
22.43
18.54
15.24
12.70
10.80
9.24
7.64
5.74
3.43
0.79
-2.02
-4.81
-7.40
-9.69
-11.60
-13.12
-14.35
-15.51
-17.03
-19.40
-23.07
-28.18
-34.33
-40.58
-45.61
-48.12
-47.27
-43.01
-36.06
-27.73
-19.42
-12.21
-6.65
-2.72
-0.03
1.85
3.24
4.28
4.95
5.31
5.52
5.84
6.53
7.71
9.29
10.98
12.46
13.49
13.99
14.03
13.69
12.99
11.87
10.29
8.26
5.82
3.03
-0.16
-3.91
-8.38
-13.59
-19.20
-24.48
-28.40
-29.91
-28.33
-23.55
-16.06
-6.78
3.24
13.03
21.87
29.30
35.00
38.83
40.79
41.03
39.91
37.85
35.29
32.58
29.92
27.48
25.36
23.64
22.38
21.60
21.21
21.05
20.93
20.66
20.10
19.11
17.64
15.67
13.25
10.48
7.48
4.33
1.05
-2.44
-6.29
-10.55
-15.07
-19.39
-22.76
-24.37
-23.60
-20.30
-14.78
-7.77
-0.13
7.34
14.05
19.63
23.85
26.60
27.86
27.77
26.58
24.66
22.44
20.31
18.57
17.38
16.77
16.62
16.73
16.84
16.71
16.14
15.07
13.51
11.56
9.36
7.05
4.75
2.49
0.20
-2.28
-5.18
-8.67
-12.79
-17.29
-21.67
-25.20
-27.07
-26.61
-23.51
-17.88
-10.32
-1.72
6.93
14.76
21.16
25.85
28.76
30.06
30.05
29.10
27.63
26.04
24.56
23.29
22.20
21.17
20.11
18.94
17.60
15.99
13.93
11.30
8.05
4.37
0.57
-2.93
-5.84
-8.04
-9.69
-11.13
-12.79
-15.06
-18.18
-22.17
-26.84
-31.68
-35.97
-38.85
-39.59
-37.84
-33.76
-28.09
-21.84
-15.94
-10.96
-7.01
-3.80
-1.01
1.56
3.84
5.65
6.83
7.47
7.81
8.15
8.66
9.29
9.83
10.07
9.93
9.51
8.97
8.47
7.98
7.38
6.47
5.14
3.41
1.42
-0.66
-2.70
-4.76
-7.02
-9.72
-13.07
-17.05
-21.30
-25.13
-27.62
-27.92
-25.53
-20.51
-13.47
-5.42
2.60
9.78
15.69
20.27
23.66
25.97
27.27
27.57
26.93
25.51
23.61
21.65
19.92
18.64
17.83
17.37
17.08
16.79
16.39
15.82
15.02
13.96
12.56
10.77
8.58
6.09
3.45
0.85
-1.62
-4.05
-6.73
-9.95
-13.83
-18.09
-22.05
-24.73
-25.19
-22.91
-17.98
-11.07
-3.19
4.61
11.54
17.16
21.32
24.06
25.46
25.67
24.86
23.32
21.45
19.62
18.13
17.11
16.48
16.03
15.57
14.90
13.98
12.79
11.40
9.92
8.45
7.12
6.05
5.35
5.06
5.12
5.34
5.49
5.33
4.77
3.94
3.26
3.32
4.81
8.30
14.02
21.76
30.90
40.52
49.70
57.68
63.97
68.39
70.96
71.83
71.23
69.37
66.50
62.84
58.54
53.70
48.27
42.20
35.44
28.04
20.20
12.18
4.22
-3.52
-11.03
-18.35
-25.47
-32.31
-38.65
-44.23
-48.90
-52.70
-55.83
-58.59
-61.16
-63.49
-65.31
-66.14
-65.58
-63.46
-59.99
-55.69
-51.25
-47.25
-44.05
-41.68
-40.02
-38.95
-38.49
-38.76
-39.90
-41.88
-44.50
-47.40
-50.24
-52.85
-55.18
-57.32
-59.33
-61.22
-62.95
-64.44
-65.65
-66.51
-66.93
-66.71
-65.69
-63.78
-61.09
-57.92
-54.71
-51.87
-49.70
-48.32
-47.67
-47.50
-47.34
-46.54
-44.36
-40.09
-33.37
-24.29
-13.46
-1.81
9.66
20.15
29.24
36.84
43.07
48.10
52.14
55.34
57.95
60.20
62.35
64.62
67.14
69.95
73.03
76.34
79.86
83.57
87.37
91.02
93.99
95.54
94.70
90.52
82.42
70.32
54.85
37.16
18.65
0.67
-15.68
-29.64
-40.66
-48.41
-52.72
-53.73
-51.90
-48.07
-43.21
-38.17
-33.45
-29.14
-25.11
-21.22
-17.53
-14.29
-11.80
-10.15
-9.11
-8.18
-6.79
-4.57
-1.59
1.65
4.42
6.01
6.06
4.57
1.95
-1.24
-4.49
-7.58
-10.50
-13.43
-16.56
-19.93
-23.43
-26.79
-29.63
-31.42
-31.63
-29.76
-25.59
-19.36
-11.78
-3.97
2.98
8.34
12.03
14.63
17.03
20.07
24.11
28.95
33.99
38.52
42.00
44.23
45.23
45.09
43.81
41.31
37.53
32.58
26.80
20.65
14.52
8.59
2.83
-2.83
-8.38
-13.70
-18.60
-22.94
-26.73
-30.00
-32.66
-34.37
-34.57
-32.72
-28.62
-22.56
-15.30
-7.84
-1.11
4.31
8.22
10.71
12.00
12.26
11.64
10.28
8.46
6.61
5.24
4.75
5.27
6.60
8.29
9.82
10.81
11.17
11.07
10.83
10.70
10.82
11.12
11.45
11.59
11.35
10.50
8.84
6.20
2.63
-1.47
-5.37
-8.11
-8.84
-7.12
-3.07
2.67
9.16
15.52
21.09
25.54
28.75
30.65
31.19
30.35
28.20
25.05
21.36
17.72
14.58
12.21
10.57
9.39
8.30
6.94
5.12
2.85
0.32
-2.20
-4.48
-6.44
-8.13
-9.78
-11.67
-14.11
-17.32
-21.46
-26.47
-32.05
-37.55
-42.07
-44.70
-44.75
-42.09
-37.15
-30.78
-23.90
-17.24
-11.15
-5.72
-0.98
2.94
5.79
7.30
7.35
6.09
3.90
1.27
-1.34
-3.65
-5.62
-7.37
-9.12
-11.06
-13.25
-15.60
-17.93
-20.03
-21.88
-23.65
-25.74
-28.61
-32.51
-37.45
-43.03
-48.65
-53.57
-57.09
-58.63
-57.79
-54.40
-48.52
-40.45
-30.69
-19.84
-8.56
2.56
12.99
22.25
29.98
35.94
40.15
42.86
44.56
45.75
46.85
48.00
49.17
50.26
51.28
52.44
54.10
56.61
60.10
64.44
69.25
74.04
78.22
81.06
81.57
78.54
70.75
57.48
38.89
16.20
-8.49
-32.72
-54.24
-71.36
-83.13
-89.19
-89.65
-85.08
-76.52
-65.51
-53.90
-43.49
-35.56
-30.58
-28.06
-26.95
-25.99
-24.24
-21.29
-17.30
-12.72
-8.07
-3.65
0.54
4.67
8.98
13.58
18.32
22.88
26.80
29.73
31.54
32.38
32.56
32.37
31.96
31.24
29.98
27.98
25.11
21.36
16.85
11.73
6.24
0.80
-3.92
-7.06
-7.77
-5.45
-0.04
7.92
17.50
27.59
37.28
45.98
53.47
59.66
64.47
67.66
68.92
68.08
65.30
61.14
56.47
52.22
49.11
47.42
47.04
47.58
48.65
49.94
51.31
52.61
53.58
53.79
52.70
49.84
44.94
38.00
29.25
18.97
7.44
-5.06
-18.19
-31.40
-43.80
-54.28
-61.68
-65.13
-64.34
-59.73
-52.33
-43.45
-34.42
-26.25
-19.57
-14.66
-11.54
-10.08
-10.01
-11.01
-12.79
-15.17
-18.05
-21.37
-24.97
-28.48
-31.46
-33.49
-34.46
-34.61
-34.47
-34.56
-35.23
-36.45
-37.92
-39.23
-40.08
-40.38
-40.22
-39.86
-39.58
-39.61
-40.16
-41.22
-42.54
-43.59
-43.62
-41.89
-37.84
-31.34
-22.73
-12.79
-2.49
7.12
15.15
21.06
24.63
26.06
25.78
24.38
22.44
20.43
18.67
17.37
16.65
16.49
16.78
17.30
17.78
17.99
17.76
17.06
15.93
14.49
12.88
11.26
9.79
8.53
7.41
6.22
4.63
2.28
-1.04
-5.33
-10.29
-15.36
-19.77
-22.77
-23.76
-22.41
-18.78
-13.24
-6.39
1.05
8.35
14.93
20.35
24.39
27.05
28.53
29.18
29.44
29.74
30.42
31.65
33.37
35.25
36.71
37.07
35.73
32.49
27.62
21.84
16.07
11.11
7.35
4.73
2.89
1.38
-0.15
-1.89
-4.00
-6.68
-10.24
-14.95
-20.80
-27.36
-33.84
-39.15
-42.34
-42.78
-40.35
-35.46
-28.90
-21.64
-14.62
-8.55
-3.86
-0.70
1.01
1.44
0.80
-0.67
-2.73
-5.12
-7.59
-9.97
-12.13
-14.02
-15.60
-16.76
-17.37
-17.31
-16.62
-15.47
-14.23
-13.30
-12.96
-13.32
-14.27
-15.59
-17.07
-18.60
-20.28
-22.32
-24.94
-28.19
-31.77
-34.94
-36.76
-36.31
-33.09
-27.27
-19.67
-11.47
-3.79
2.63
7.59
11.30
14.14
16.41
18.22
19.52
20.21
20.25
19.72
18.79
17.72
16.74
16.00
15.53
15.22
14.92
14.50
13.91
13.23
12.57
11.99
11.46
10.87
10.07
8.90
7.27
5.08
2.37
-0.64
-3.42
-5.15
-4.86
-1.70
4.75
14.28
26.08
39.02
51.96
64.05
74.78
83.96
91.57
97.61
102.07
105.01
106.57
107.08
107.00
106.90
107.25
108.35
110.18
112.39
114.33
115.13
113.88
109.76
102.30
91.52
78.05
62.98
47.59
32.99
19.75
7.86
-3.08
-13.47
-23.41
-32.54
-40.21
-45.87
-49.32
-50.92
-51.51
-52.08
-53.51
-56.24
-60.21
-64.93
-69.71
-73.94
-77.36
-80.01
-82.15
-83.95
-85.36
-86.09
-85.82
-84.47
-82.27
-79.70
-77.24
-75.20
-73.61
-72.32
-71.26
-70.45
-70.01
-70.00
-70.26
-70.39
-69.99
-68.81
-66.94
-64.74
-62.68
-61.03
-59.67
-58.14
-55.71
-51.72
-45.83
-38.12
-29.11
-19.51
-10.04
-1.25
6.51
13.05
18.20
21.82
23.84
24.28
23.41
21.65
19.52
17.51
15.93
14.88
14.25
13.77
13.11
12.00
10.30
8.08
5.59
3.13
0.96
-0.80
-2.22
-3.53
-5.01
-6.99
-9.66
-13.05
-16.88
-20.55
-23.23
-24.07
-22.45
-18.21
-11.73
-3.81
4.54
12.38
19.02
23.98
27.04
28.11
27.27
24.78
21.07
16.73
12.36
8.47
5.40
3.23
1.82
0.87
0.05
-0.92
-2.13
-3.52
-4.93
-6.30
-7.69
-9.36
-11.69
-15.02
-19.50
-24.96
-30.87
-36.40
-40.58
-42.48
-41.45
-37.32
-30.47
-21.71
-12.11
-2.69
5.75
12.72
17.97
21.41
23.08
23.10
21.78
19.56
16.96
14.49
12.50
11.15
10.35
9.90
9.54
9.05
8.28
7.21
5.86
4.30
2.50
0.37
-2.30
-5.70
-9.98
-15.12
-20.87
-26.70
-31.82
-35.31
-36.29
-34.17
-28.84
-20.82
-11.07
-0.78
8.92
17.28
23.87
28.61
31.52
32.64
32.04
29.91
26.67
22.93
19.35
16.48
14.52
13.33
12.50
11.62
10.40
8.78
6.89
4.89
2.89
0.91
-1.10
-3.28
-5.76
-8.75
-12.39
-16.74
-21.49
-25.98
-29.14
-29.85
-27.25
-21.08
-11.85
-0.66
11.11
22.17
31.59
38.81
43.59
45.90
45.80
43.56
39.63
34.71
29.58
24.97
21.33
18.78
17.08
15.78
14.37
12.49
10.04
7.17
4.22
1.49
-0.90
-3.11
-5.51
-8.57
-12.59
-17.67
-23.55
-29.69
-35.32
-39.51
-41.35
-40.14
-35.58
-28.00
-18.26
-7.58
2.79
11.88
19.13
24.37
27.65
29.08
28.83
27.12
24.34
21.08
18.00
15.65
14.29
13.79
13.72
13.55
12.83
11.38
9.32
6.95
4.64
2.63
0.97
-0.48
-2.02
-3.96
-6.59
-10.06
-14.32
-19.08
-23.71
-27.36
-29.06
-27.99
-23.78
-16.61
-7.28
3.05
13.20
22.19
29.38
34.48
37.35
37.98
36.56
33.50
29.43
25.14
21.29
18.29
16.18
14.71
13.54
12.37
11.03
9.51
7.86
6.18
4.54
2.99
1.50
-0.02
-1.68
-3.61
-5.88
-8.43
-11.12
-13.62
-15.50
-16.23
-15.36
-12.55
-7.83
-1.55
5.65
12.96
19.65
25.18
29.32
32.02
33.34
33.23
31.51
28.02
22.82
16.35
9.44
3.04
-2.18
-6.09
-9.15
-12.12
-15.59
-19.74
-24.23
-28.49
-32.04
-34.68
-36.52
-37.70
-38.24
-38.10
-37.35
-36.31
-35.64
-35.88
-37.23
-39.18
-40.71
-40.70
-38.46
-34.06
-28.23
-21.91
-15.73
-9.71
-3.35
3.96
12.59
22.40
32.86
43.35
53.43
62.96
72.04
80.80
89.13
96.65
102.80
107.02
109.01
108.73
106.38
102.16
96.13
88.21
78.36
66.69
53.71
40.25
27.39
16.17
7.45
1.70
-1.01
-1.00
1.07
4.41
8.27
12.05
15.33
17.81
19.12
18.77
16.31
11.47
4.48
-3.94
-12.68
-20.66
-27.13
-31.90
-35.35
-38.13
-40.93
-44.24
-48.20
-52.66
-57.37
-62.03
-66.46
-70.56
-74.39
-78.11
-82.05
-86.65
-92.28
-99.02
-106.39
-113.26
-118.12
-119.45
-116.31
-108.60
-97.13
-83.34
-68.86
-55.08
-42.95
-32.97
-25.29
-19.79
-16.23
-14.25
-13.41
-13.24
-13.31
-13.30
-13.09
-12.67
-12.09
-11.41
-10.60
-9.59
-8.29
-6.62
-4.54
-2.09
0.61
3.37
5.86
7.62
8.29
7.72
6.16
4.27
3.01
3.31
5.76
10.43
16.80
24.04
31.20
37.58
42.78
46.66
49.14
50.14
49.51
47.19
43.38
38.56
33.46
28.74
24.87
21.92
19.70
17.84
16.01
14.01
11.77
9.32
6.76
4.19
1.67
-0.78
-3.26
-5.94
-9.04
-12.70
-16.86
-21.20
-25.09
-27.76
-28.52
-26.94
-23.04
-17.25
-10.35
-3.14
3.61
9.40
13.88
16.89
18.38
18.39
17.16
15.07
12.61
10.27
8.36
6.99
6.04
5.26
4.44
3.41
2.15
0.72
-0.80
-2.33
-3.84
-5.38
-7.10
-9.16
-11.75
-15.02
-18.99
-23.52
-28.22
-32.48
-35.53
-36.57
-34.99
-30.62
-23.83
-15.42
-6.44
2.07
9.35
14.97
18.77
20.79
21.20
20.25
18.26
15.63
12.78
10.07
7.75
5.93
4.59
3.60
2.76
1.85
0.70
-0.77
-2.53
-4.47
-6.49
-8.57
-10.75
-13.17
-15.93
-19.15
-22.86
-27.00
-31.38
-35.55
-38.82
-40.38
-39.56
-36.01
-29.95
-22.07
-13.32
-4.65
3.24
9.92
15.15
18.78
20.78
21.20
20.31
18.57
16.56
14.87
13.89
13.78
14.39
15.40
16.41
17.06
17.11
16.43
15.05
13.02
10.44
7.37
3.84
-0.16
-4.69
-9.80
-15.43
-21.38
-27.32
-32.76
-37.22
-40.24
-41.45
-40.69
-37.95
-33.46
-27.71
-21.42
-15.38
-10.32
-6.72
-4.72
-4.17
-4.71
-5.90
-7.27
-8.38
-8.85
-8.43
-7.13
-5.28
-3.42
-2.20
-2.07
-3.11
-4.99
-7.16
-9.10
-10.64
-12.07
-14.04
-17.27
-22.18
-28.69
-36.23
-43.94
-50.99
-56.73
-60.71
-62.68
-62.51
-60.21
-56.02
-50.44
-44.16
-37.96
-32.44
-27.98
-24.68
-22.54
-21.52
-21.62
-22.72
-24.45
-26.18
-27.13
-26.59
-24.22
-20.27
-15.43
-10.62
-6.68
-4.01
-2.57
-1.95
-1.65
-1.34
-0.95
-0.66
-0.87
-1.95
-4.25
-7.91
-12.79
-18.36
-23.69
-27.60
-28.85
-26.55
-20.39
-10.82
1.15
14.16
26.85
38.10
47.12
53.52
57.19
58.34
57.44
55.15
52.24
49.45
47.39
46.37
46.43
47.31
48.59
49.79
50.59
50.84
50.61
50.04
49.23
48.17
46.71
44.64
41.75
37.89
33.01
27.17
20.63
13.86
7.55
2.52
-0.51
-1.06
0.85
4.81
10.05
15.72
21.08
25.58
28.88
30.71
30.88
29.25
25.90
21.21
15.85
10.66
6.39
3.52
2.12
1.93
2.51
3.44
4.41
5.29
6.02
6.55
6.81
6.66
5.90
4.37
1.94
-1.44
-5.71
-10.54
-15.35
-19.32
-21.50
-21.13
-17.83
-11.85
-3.96
4.79
13.35
20.96
27.22
31.93
34.94
36.05
35.11
32.18
27.69
22.46
17.49
13.66
11.42
10.77
11.23
12.18
13.05
13.56
13.75
13.89
14.34
15.42
17.28
19.82
22.66
25.18
26.62
26.26
23.78
19.46
14.37
10.17
8.58
10.80
16.91
25.78
35.40
43.52
48.33
48.98
45.53
38.76
29.80
19.87
10.18
1.86
-4.20
-7.49
-8.12
-6.80
-4.62
-2.71
-1.96
-2.76
-5.08
-8.56
-12.69
-16.85
-20.40
-22.75
-23.57
-22.85
-21.00
-18.68
-16.63
-15.37
-15.10
-15.68
-16.64
-17.25
-16.74
-14.34
-9.58
-2.46
6.54
16.55
26.60
35.92
44.09
51.02
56.75
61.21
64.14
65.16
63.99
60.56
55.15
48.27
40.57
32.68
25.17
18.53
13.14
9.27
6.97
6.02
6.01
6.36
6.49
5.92
4.26
1.22
-3.48
-9.99
-18.30
-28.05
-38.47
-48.38
-56.29
-60.63
-60.10
-53.98
-42.38
-26.29
-7.38
12.36
31.15
47.66
61.21
71.62
79.07
83.92
86.64
87.79
87.94
87.62
87.13
86.48
85.51
84.04
82.07
79.87
77.83
76.19
74.86
73.38
71.04
67.17
61.40
53.69
44.22
33.17
20.52
6.00
-10.69
-29.74
-50.96
-73.72
-97.06
-119.70
-140.14
-156.75
-167.93
-172.49
-170.03
-161.33
-148.25
-133.26
-118.75
-106.38
-96.74
-89.59
-84.23
-79.97
-76.28
-72.80
-69.19
-65.09
-60.25
-54.69
-48.77
-43.11
-38.32
-34.77
-32.39
-30.73
-29.24
-27.44
-25.22
-22.84
-20.85
-19.80
-19.99
-21.30
-23.11
-24.49
-24.43
-22.08
-16.97
-9.17
0.72
11.62
22.15
30.97
37.02
39.84
39.55
36.75
32.21
26.64
20.63
14.66
9.26
4.99
2.33
1.46
2.10
3.61
5.20
6.30
6.70
6.55
6.15
5.75
5.40
4.96
4.18
2.80
0.63
-2.33
-5.86
-9.43
-12.23
-13.30
-11.84
-7.46
-0.35
8.68
18.49
27.93
36.09
42.50
47.14
50.28
52.27
53.47
54.14
54.48
54.61
54.62
54.54
54.38
54.16
54.02
54.23
55.10
56.84
59.42
62.47
65.29
67.04
66.89
64.32
59.17
51.76
42.70
32.73
22.57
12.78
3.85
-3.74
-9.41
-12.60
-12.94
-10.52
-6.02
-0.50
4.84
9.10
11.82
12.94
12.46
10.37
6.56
1.04
-5.84
-13.37
-20.71
-27.14
-32.35
-36.44
-39.74
-42.53
-44.97
-47.00
-48.59
-49.76
-50.67
-51.45
-52.11
-52.49
-52.41
-51.81
-50.83
-49.90
-49.52
-50.09
-51.70
-53.98
-56.14
-57.16
-56.12
-52.43
-46.11
-37.69
-28.12
-18.44
-9.49
-1.86
4.20
8.58
11.30
12.43
12.17
10.88
9.11
7.48
6.48
6.33
6.92
7.86
8.69
9.04
8.77
8.00
7.01
6.07
5.35
4.84
4.35
3.62
2.40
0.49
-2.17
-5.50
-9.20
-12.80
-15.62
-16.94
-16.20
-13.16
-8.02
-1.37
6.01
13.32
19.88
25.25
29.11
31.32
31.82
30.71
28.29
25.04
21.54
18.36
15.84
14.06
12.83
11.85
10.80
9.54
8.07
6.51
4.99
3.61
2.36
1.17
-0.08
-1.60
-3.62
-6.30
-9.63
-13.31
-16.72
-19.03
-19.49
-17.55
-13.15
-6.66
1.15
9.34
17.00
23.40
28.11
30.97
32.04
31.55
29.85
27.38
24.61
22.01
19.89
18.33
17.16
16.08
14.83
13.37
11.86
10.63
9.95
9.95
10.57
11.60
12.74
13.60
13.78
12.93
10.85
7.67
4.00
0.80
-0.78
0.17
4.09
10.72
19.17
28.17
36.36
42.56
46.02
46.50
44.21
39.69
33.62
26.68
19.47
12.49
6.18
0.88
-3.24
-6.27
-8.53
-10.49
-12.59
-15.05
-17.82
-20.61
-23.10
-25.06
-26.41
-27.31
-28.04
-28.99
-30.53
-32.90
-36.09
-39.64
-42.76
-44.44
-43.81
-40.43
-34.49
-26.67
-17.94
-9.18
-1.03
6.15
12.25
17.21
20.99
23.65
25.32
26.33
27.05
27.83
28.88
30.18
31.53
32.64
33.18
32.83
31.34
28.58
24.54
19.44
13.69
7.83
2.30
-2.60
-6.83
-10.58
-14.19
-18.00
-22.19
-26.75
-31.37
-35.45
-38.25
-39.01
-37.17
-32.55
-25.36
-16.08
-5.33
6.32
18.39
30.31
41.45
50.98
58.07
62.07
62.74
60.31
55.50
49.25
42.51
36.02
30.18
25.01
20.33
15.86
11.44
7.06
2.82
-1.21
-5.09
-9.00
-13.10
-17.42
-21.78
-25.89
-29.54
-32.78
-35.90
-39.25
-42.96
-46.73
-49.86
-51.46
-50.84
-47.79
-42.67
-36.26
-29.43
-22.88
-16.97
-11.72
-7.00
-2.74
1.06
4.27
6.75
8.49
9.64
10.47
11.25
12.08
12.90
13.51
13.73
13.48
12.84
11.98
11.05
10.06
8.90
7.40
5.42
2.96
0.10
-2.98
-6.12
-9.15
-11.92
-14.23
-15.80
-16.35
-15.68
-13.85
-11.21
-8.34
-5.93
-4.56
-4.56
-5.96
-8.52
-11.87
-15.62
-19.38
-22.84
-25.70
-27.75
-28.85
-28.97
-28.23
-26.87
-25.24
-23.74
-22.70
-22.37
-22.83
-23.99
-25.62
-27.40
-29.03
-30.27
-31.00
-31.25
-31.19
-31.05
-31.10
-31.55
-32.51
-33.93
-35.53
-36.83
-37.21
-36.06
-32.89
-27.52
-20.07
-11.01
-1.04
9.01
18.38
26.40
32.59
36.75
39.03
39.89
40.09
40.41
41.46
43.51
46.39
49.68
52.88
55.73
58.34
61.22
65.12
70.69
78.22
87.32
96.86
105.01
109.62
108.71
101.02
86.44
66.01
41.75
16.12
-8.60
-30.68
-49.16
-63.64
-74.09
-80.58
-83.22
-82.33
-78.52
-72.75
-66.16
-59.76
-54.08
-49.09
-44.24
-38.85
-32.51
-25.29
-17.77
-10.80
-5.19
-1.45
0.34
0.49
-0.47
-1.96
-3.51
-4.85
-5.88
-6.65
-7.21
-7.53
-7.56
-7.24
-6.66
-6.07
-5.84
-6.33
-7.72
-9.95
-12.81
-16.02
-19.32
-22.43
-25.04
-26.68
-26.78
-24.84
-20.60
-14.20
-6.23
2.45
10.88
18.14
23.56
26.74
27.58
26.33
23.46
19.66
15.59
11.81
8.61
6.02
3.84
1.84
-0.22
-2.44
-4.78
-7.12
-9.35
-11.38
-13.20
-14.92
-16.76
-18.96
-21.70
-24.97
-28.56
-32.10
-35.16
-37.42
-38.70
-38.92
-38.01
-35.92
-32.62
-28.21
-22.98
-17.35
-11.82
-6.77
-2.44
1.08
3.81
5.74
6.87
7.25
6.98
6.26
5.42
4.78
4.67
5.26
6.52
8.21
9.90
11.13
11.63
11.51
11.16
11.19
12.07
13.97
16.58
19.22
21.04
21.23
19.29
15.03
8.72
1.03
-7.01
-14.20
-19.46
-22.06
-21.87
-19.25
-14.95
-9.75
-4.31
0.81
5.13
8.19
9.62
9.26
7.39
4.65
1.97
0.22
-0.03
1.35
4.02
7.40
10.83
13.81
16.12
17.82
19.11
20.17
20.99
21.40
21.13
20.00
18.01
15.39
12.50
9.76
7.49
5.97
5.35
5.75
7.20
9.57
12.60
15.88
18.96
21.42
22.92
23.26
22.34
20.23
17.17
13.58
9.96
6.76
4.22
2.28
0.60
-1.23
-3.49
-6.19
-9.08
-11.79
-14.00
-15.58
-16.59
-17.22
-17.74
-18.42
-19.53
-21.27
-23.65
-26.35
-28.74
-29.93
-29.07
-25.67
-19.75
-11.87
-2.96
6.02
14.19
20.96
25.96
29.03
30.19
29.56
27.40
24.00
19.72
15.02
10.43
6.55
3.95
3.02
3.83
6.06
9.02
11.88
13.82
14.18
12.59
8.98
3.55
-3.28
-10.92
-18.73
-26.09
-32.52
-37.68
-41.43
-43.80
-44.97
-45.23
-44.83
-43.99
-42.82
-41.42
-39.88
-38.31
-36.77
-35.26
-33.61
-31.62
-29.14
-26.22
-23.09
-20.11
-17.56
-15.58
-14.15
-13.17
-12.61
-12.55
-13.13
-14.44
-16.42
-18.89
-21.61
-24.42
-27.20
-29.81
-31.87
-32.73
-31.60
-27.80
-21.08
-11.81
-0.90
10.51
21.34
30.88
38.83
45.16
49.99
53.39
55.46
56.27
55.98
54.81
53.01
50.82
48.40
45.81
43.03
39.99
36.66
33.11
29.48
25.94
22.58
19.33
16.01
12.35
8.21
3.61
-1.18
-5.63
-9.12
-11.03
-10.98
-8.83
-4.89
0.32
6.05
11.63
16.49
20.22
22.55
23.34
22.58
20.39
17.08
13.13
9.07
5.36
2.23
-0.30
-2.47
-4.59
-6.94
-9.61
-12.45
-15.16
-17.44
-19.14
-20.33
-21.36
-22.65
-24.54
-27.14
-30.26
-33.43
-35.98
-37.21
-36.56
-33.76
-28.94
-22.60
-15.45
-8.30
-1.76
3.75
8.05
11.08
12.77
13.06
11.93
9.44
5.89
1.79
-2.29
-5.83
-8.57
-10.63
-12.37
-14.28
-16.66
-19.51
-22.50
-25.08
-26.67
-26.93
-25.87
-23.84
-21.48
-19.50
-18.50
-18.82
-20.48
-23.18
-26.37
-29.30
-31.13
-31.02
-28.24
-22.45
-13.75
-2.82
9.29
21.39
32.47
41.90
49.41
55.02
58.85
61.10
61.97
61.74
60.73
59.24
57.46
55.45
53.16
50.55
47.64
44.51
41.21
37.65
33.56
28.65
22.72
15.88
8.49
1.07
-5.91
-12.23
-17.97
-23.35
-28.63
-33.98
-39.37
-44.57
-49.14
-52.46
-53.81
-52.48
-47.96
-40.23
-29.75
-17.54
-4.87
7.02
17.31
25.72
32.56
38.44
43.94
49.30
54.39
58.76
61.95
63.62
63.47
61.13
56.02
47.52
35.25
19.49
1.33
-17.59
-35.54
-51.20
-63.97
-73.81
-81.05
-86.01
-88.94
-90.09
-89.85
-88.84
-87.80
-87.33
-87.72
-88.70
-89.46
-88.83
-85.61
-78.98
-68.72
-55.40
-40.18
-24.49
-9.67
3.31
13.92
21.99
27.57
30.81
32.01
31.56
30.03
28.09
26.38
25.36
25.21
25.85
27.00
28.33
29.53
30.43
30.91
30.93
30.48
29.57
28.27
26.72
25.06
23.38
21.69
19.83
17.62
14.88
11.66
8.26
5.24
3.32
3.24
5.54
10.47
17.89
27.29
37.84
48.54
58.37
66.45
72.18
75.28
75.82
74.16
70.85
66.55
61.86
57.32
53.29
49.88
47.03
44.52
42.04
39.32
36.14
32.42
28.11
23.26
17.98
12.42
6.88
1.64
-3.03
-6.97
-10.21
-12.93
-15.37
-17.70
-19.99
-22.11
-23.72
-24.39
-23.62
-21.05
-16.54
-10.29
-2.79
5.24
13.06
20.06
25.89
30.39
33.56
35.41
35.93
35.08
32.92
29.72
25.88
21.94
18.32
15.23
12.57
10.08
7.42
4.36
0.88
-2.91
-6.90
-10.99
-15.19
-19.54
-24.03
-28.61
-33.12
-37.45
-41.52
-45.34
-48.97
-52.39
-55.43
-57.68
-58.55
-57.36
-53.62
-47.18
-38.36
-27.95
-17.06
-6.81
1.87
8.47
12.91
15.42
16.36
16.11
14.99
13.23
11.09
8.84
6.72
4.90
3.40
2.11
0.86
-0.49
-2.01
-3.76
-5.78
-8.10
-10.72
-13.51
-16.23
-18.59
-20.40
-21.62
-22.32
-22.77
-23.22
-23.93
-25.07
-26.59
-28.14
-28.99
-28.30
-25.40
-20.27
-13.66
-6.84
-1.11
2.74
4.69
5.28
5.23
4.98
4.55
3.72
2.34
0.45
-1.59
-3.39
-4.64
-5.26
-5.38
-5.18
-4.87
-4.59
-4.43
-4.42
-4.65
-5.19
-6.15
-7.60
-9.55
-11.88
-14.39
-16.89
-19.25
-21.53
-23.93
-26.71
-30.01
-33.69
-37.20
-39.68
-40.15
-37.93
-32.82
-25.28
-16.29
-7.05
1.33
8.11
12.99
16.02
17.47
17.60
16.59
14.55
11.56
7.83
3.69
-0.37
-3.90
-6.59
-8.41
-9.61
-10.58
-11.66
-13.00
-14.53
-16.05
-17.42
-18.60
-19.62
-20.59
-21.56
-22.61
-23.91
-25.69
-28.22
-31.55
-35.32
-38.69
-40.56
-39.89
-36.17
-29.58
-20.90
-11.18
-1.45
7.53
15.30
21.56
26.14
28.92
29.89
29.26
27.41
24.83
21.99
19.28
16.93
15.06
13.70
12.78
12.16
11.60
10.93
9.99
8.76
7.27
5.60
3.78
1.78
-0.48
-3.10
-6.19
-9.82
-14.04
-18.74
-23.55
-27.76
-30.40
-30.47
-27.36
-21.10
-12.41
-2.49
7.40
16.28
23.63
29.28
33.27
35.65
36.50
35.93
34.21
31.73
28.97
26.34
24.13
22.47
21.40
20.85
20.65
20.58
20.38
19.81
18.76
17.24
15.38
13.35
11.27
9.15
6.92
4.39
1.35
-2.38
-6.82
-11.77
-16.70
-20.78
-23.06
-22.70
-19.28
-12.94
-4.44
5.12
14.59
23.06
30.04
35.43
39.32
41.77
42.80
42.36
40.52
37.57
34.01
30.44
27.28
24.65
22.39
20.15
17.58
14.58
11.27
7.92
4.84
2.14
-0.25
-2.59
-5.18
-8.29
-12.06
-16.50
-21.50
-26.77
-31.87
-36.15
-38.87
-39.33
-37.10
-32.27
-25.41
-17.46
-9.45
-2.28
3.49
7.63
10.09
10.97
10.42
8.65
6.02
2.97
0.04
-2.36
-3.99
-4.91
-5.35
-5.61
-5.95
-6.50
-7.19
-7.92
-8.54
-8.96
-9.19
-9.35
-9.64
-10.35
-11.75
-13.94
-16.71
-19.54
-21.60
-21.99
-19.98
-15.24
-7.95
1.28
11.53
21.86
31.45
39.78
46.59
51.83
55.57
57.88
58.79
58.42
56.95
54.78
52.45
50.53
49.41
49.15
49.47
49.93
50.13
49.97
49.61
49.38
49.50
49.92
50.29
50.11
48.96
46.63
43.16
38.81
33.99
29.24
25.24
22.70
22.23
24.09
28.04
33.29
38.71
42.98
44.98
43.94
39.60
32.19
22.41
11.20
-0.38
-11.47
-21.50
-30.24
-37.73
-44.11
-49.51
-54.07
-58.03
-61.75
-65.69
-70.25
-75.53
-81.24
-86.68
-91.05
-93.67
-94.28
-93.08
-90.61
-87.51
-84.34
-81.50
-79.14
-77.20
-75.35
-73.03
-69.47
-63.91
-55.81
-45.11
-32.27
-18.21
-4.05
9.21
20.86
30.52
38.08
43.62
47.30
49.45
50.44
50.78
50.99
51.53
52.75
54.87
57.89
61.66
65.82
69.84
73.10
75.03
75.24
73.64
70.40
65.88
60.39
54.17
47.26
39.67
31.39
22.51
13.19
3.62
-5.99
-15.41
-24.34
-32.37
-39.00
-43.73
-46.24
-46.46
-44.70
-41.60
-37.97
-34.63
-32.16
-30.78
-30.32
-30.30
-30.13
-29.33
-27.82
-26.06
-25.06
-26.17
-30.61
-38.90
-50.50
-63.77
-76.36
-85.98
-91.06
-91.21
-87.16
-80.31
-72.22
-64.14
-56.82
-50.59
-45.43
-41.16
-37.54
-34.34
-31.44
-28.87
-26.78
-25.32
-24.42
-23.77
-22.73
-20.52
-16.47
-10.24
-1.92
7.96
18.58
28.98
38.23
45.55
50.40
52.53
52.08
49.54
45.74
41.63
38.07
35.62
34.41
34.21
34.55
35.01
35.33
35.42
35.38
35.30
35.16
34.86
34.17
32.91
31.02
28.54
25.64
22.48
19.17
15.73
12.08
8.15
4.05
0.10
-3.11
-4.93
-4.78
-2.42
1.92
7.60
13.76
19.56
24.40
27.92
29.97
30.47
29.41
26.86
23.08
18.53
13.75
9.31
5.58
2.70
0.59
-0.94
-2.14
-3.28
-4.55
-6.10
-7.97
-10.07
-12.23
-14.31
-16.25
-18.13
-20.13
-22.47
-25.30
-28.66
-32.41
-36.22
-39.59
-41.89
-42.52
-41.03
-37.32
-31.68
-24.75
-17.33
-10.14
-3.78
1.38
5.12
7.37
8.20
7.88
6.87
5.75
5.09
5.31
6.49
8.46
10.83
13.21
15.35
17.18
18.80
20.40
22.13
24.05
26.11
28.18
30.04
31.47
32.29
32.40
31.82
30.79
29.70
29.09
29.49
31.29
34.63
39.32
44.91
50.81
56.38
61.09
64.47
66.19
66.04
63.96
60.11
54.83
48.57
41.75
34.68
27.53
20.38
13.31
6.44
-0.08
-6.13
-11.63
-16.57
-20.98
-24.88
-28.32
-31.43
-34.34
-37.15
-39.74
-41.77
-42.65
-41.78
-38.78
-33.68
-26.91
-19.19
-11.27
-3.72
3.11
9.11
14.14
17.99
20.38
21.10
20.26
18.33
16.14
14.62
14.42
15.70
17.96
20.25
21.41
20.38
16.47
9.42
-0.51
-12.62
-25.82
-38.88
-50.64
-60.30
-67.58
-72.67
-76.05
-78.18
-79.25
-79.25
-78.14
-76.07
-73.47
-70.84
-68.52
-66.38
-63.88
-60.33
-55.29
-48.85
-41.71
-34.83
-29.13
-25.07
-22.61
-21.29
-20.56
-20.08
-19.79
-19.85
-20.47
-21.70
-23.38
-25.24
-27.01
-28.60
-30.07
-31.56
-33.18
-34.99
-37.02
-39.36
-42.14
-45.42
-49.00
-52.32
-54.41
-54.24
-50.94
-44.18
-34.22
-21.86
-8.12
5.94
19.49
31.98
43.02
52.36
59.79
65.25
68.94
71.38
73.38
75.73
78.89
82.75
86.66
89.63
90.82
89.82
86.77
82.18
76.63
70.58
64.24
57.66
50.85
43.87
36.80
29.66
22.44
15.10
7.62
0.00
-7.73
-15.56
-23.49
-31.49
-39.39
-46.88
-53.57
-59.05
-63.01
-65.30
-65.90
-64.86
-62.30
-58.39
-53.38
-47.62
-41.51
-35.47
-29.88
-25.04
-21.15
-18.33
-16.56
-15.66
-15.30
-15.01
-14.32
-12.89
-10.64
-7.74
-4.62
-1.74
0.55
2.10
2.98
3.40
3.52
3.42
3.02
2.22
0.93
-0.83
-2.92
-5.19
-7.52
-9.89
-12.37
-15.12
-18.33
-22.18
-26.83
-32.28
-38.31
-44.36
-49.57
-52.85
-53.18
-49.88
-42.82
-32.46
-19.75
-5.87
8.03
20.99
32.28
41.42
48.17
52.50
54.65
55.16
54.71
54.04
53.74
54.10
55.14
56.63
58.29
59.85
61.19
62.29
63.20
63.94
64.43
64.51
63.98
62.77
61.07
59.39
58.49
59.10
61.70
66.12
71.56
76.67
79.89
79.90
75.93
68.08
57.33
45.34
34.09
25.39
20.40
19.36
21.66
26.12
31.33
36.10
39.60
41.37
41.18
38.91
34.44
27.72
18.87
8.30
-3.26
-14.95
-25.92
-35.62
-43.89
-50.83
-56.56
-61.02
-63.85
-64.66
-63.31
-60.12
-55.88
-51.61
-48.13
-45.84
-44.71
-44.37
-44.49
-44.89
-45.63
-46.82
-48.57
-50.82
-53.38
-55.99
-58.41
-60.49
-62.14
-63.19
-63.33
-62.04
-58.71
-52.90
-44.58
-34.18
-22.58
-10.90
-0.20
8.72
15.48
20.02
22.57
23.45
23.06
21.79
20.04
18.21
16.61
15.44
14.74
14.39
14.20
14.06
13.93
13.94
14.20
14.72
15.29
15.58
15.25
14.12
12.26
9.99
7.76
5.95
4.76
4.17
3.93
3.64
2.89
1.35
-1.09
-4.20
-7.37
-9.70
-10.22
-8.19
-3.41
3.72
12.34
21.37
29.87
37.20
43.09
47.52
50.53
52.24
52.74
52.22
51.00
49.46
47.94
46.67
45.69
44.87
44.01
42.87
41.30
39.26
36.87
34.40
32.16
30.49
29.53
29.24
29.39
29.66
29.80
29.70
29.40
28.94
28.26
27.10
25.19
22.36
18.83
15.21
12.36
11.03
11.56
13.72
16.75
19.66
21.49
21.43
18.91
13.55
5.21
-5.90
-19.11
-33.35
-47.21
-59.30
-68.43
-73.93
-75.67
-74.03
-69.86
-64.33
-58.72
-54.23
-51.62
-51.10
-52.27
-54.29
-56.21
-57.25
-56.96
-55.27
-52.38
-48.64
-44.46
-40.31
-36.70
-34.12
-32.96
-33.33
-34.95
-37.12
-38.78
-38.86
-36.54
-31.54
-24.20
-15.42
-6.27
2.27
9.55
15.34
19.65
22.65
24.48
25.32
25.40
25.03
24.55
24.22
24.11
24.18
24.30
24.44
24.65
25.07
25.74
26.59
27.39
27.89
27.94
27.49
26.64
25.56
24.44
23.45
22.69
22.13
21.55
20.55
18.65
15.60
11.57
7.20
3.54
1.62
2.15
5.20
10.20
16.15
21.87
26.35
28.90
29.21
27.31
23.52
18.36
12.47
6.54
1.17
-3.19
-6.43
-8.69
-10.46
-12.33
-14.89
-18.50
-23.21
-28.72
-34.50
-39.93
-44.46
-47.73
-49.57
-50.02
-49.26
-47.62
-45.53
-43.48
-41.90
-40.97
-40.53
-40.11
-39.03
-36.68
-32.70
-27.16
-20.46
-13.22
-6.11
0.29
5.54
9.36
11.66
12.52
12.18
11.06
9.60
8.24
7.26
6.85
7.04
7.77
8.85
10.02
10.99
11.51
11.45
10.81
9.76
8.49
7.19
5.94
4.70
3.34
1.71
-0.32
-2.79
-5.53
-8.21
-10.34
-11.35
-10.75
-8.29
-4.09
1.42
7.51
13.45
18.55
22.39
24.74
25.55
24.89
22.88
19.76
15.88
11.66
7.53
3.80
0.61
-2.15
-4.70
-7.27
-9.98
-12.78
-15.49
-17.94
-20.04
-21.81
-23.37
-24.82
-26.19
-27.43
-28.49
-29.38
-30.22
-31.14
-32.21
-33.30
-34.01
-33.81
-32.18
-28.80
-23.74
-17.43
-10.49
-3.64
2.50
7.53
11.24
13.55
14.55
14.46
13.55
12.19
10.74
9.47
8.54
8.00
7.81
7.88
8.10
8.30
8.31
7.99
7.26
6.17
4.85
3.47
2.16
0.97
-0.17
-1.33
-2.64
-4.17
-6.01
-8.23
-10.82
-13.60
-16.11
-17.65
-17.42
-14.84
-9.81
-2.81
5.24
13.28
20.47
26.35
30.81
33.93
35.77
36.33
35.67
33.95
31.54
28.86
26.30
24.03
22.04
20.20
18.41
16.64
14.88
13.12
11.23
9.05
6.42
3.30
-0.18
-3.77
-7.23
-10.41
-13.28
-16.01
-18.82
-21.98
-25.62
-29.65
-33.74
-37.26
-39.45
-39.62
-37.31
-32.52
-25.67
-17.53
-9.03
-1.05
5.74
10.94
14.44
16.32
16.81
16.22
14.83
12.95
10.87
8.85
7.11
5.74
4.72
3.96
3.25
2.41
1.24
-0.39
-2.56
-5.31
-8.57
-12.24
-16.20
-20.36
-24.71
-29.31
-34.24
-39.55
-45.19
-50.99
-56.66
-61.69
-65.36
-66.74
-64.85
-58.93
-48.72
-34.65
-17.81
0.36
18.36
34.93
49.09
60.12
67.61
71.56
72.59
71.88
70.93
70.87
72.09
74.02
75.52
75.51
73.52
69.84
65.10
59.77
53.76
46.52
37.53
26.77
14.94
3.26
-7.00
-15.10
-21.04
-25.47
-29.33
-33.38
-37.96
-42.87
-47.45
-50.88
-52.38
-51.42
-47.77
-41.54
-33.08
-22.86
-11.32
1.19
14.41
28.13
42.05
55.63
67.90
77.49
82.71
81.97
74.30
59.79
39.76
16.63
-6.73
-27.61
-44.05
-55.13
-60.88
-62.09
-59.88
-55.51
-50.17
-44.87
-40.33
-36.99
-34.91
-33.91
-33.61
-33.63
-33.70
-33.73
-33.82
-34.10
-34.54
-34.79
-34.19
-31.92
-27.35
-20.30
-11.22
-1.05
9.02
17.94
24.97
29.84
32.65
33.68
33.27
31.75
29.45
26.75
24.09
21.90
20.50
19.98
20.19
20.71
21.04
20.75
19.59
17.54
14.74
11.38
7.60
3.45
-1.10
-6.10
-11.62
-17.72
-24.37
-31.38
-38.26
-44.24
-48.31
-49.57
-47.53
-42.36
-34.93
-26.47
-18.26
-11.25
-5.93
-2.38
-0.48
-0.08
-1.03
-3.19
-6.27
-9.94
-13.81
-17.52
-20.83
-23.56
-25.60
-26.94
-27.62
-27.82
-27.85
-28.05
-28.70
-29.93
-31.66
-33.69
-35.79
-37.81
-39.77
-41.89
-44.42
-47.59
-51.40
-55.54
-59.30
-61.71
-61.74
-58.62
-52.08
-42.49
-30.71
-17.95
-5.33
6.18
15.99
23.83
29.68
33.68
36.13
37.45
38.07
38.47
38.96
39.75
40.79
41.95
43.03
43.88
44.50
44.90
45.18
45.32
45.25
44.77
43.72
42.02
39.74
37.01
33.94
30.51
26.54
21.89
16.54
10.81
5.34
0.93
-1.69
-2.15
-0.56
2.51
6.21
9.73
12.45
14.12
14.70
14.36
13.22
11.41
9.04
6.23
3.27
0.45
-1.91
-3.64
-4.77
-5.53
-6.18
-6.98
-8.02
-9.29
-10.66
-12.02
-13.23
-14.24
-15.05
-15.74
-16.46
-17.42
-18.85
-20.96
-23.80
-27.21
-30.72
-33.58
-34.92
-33.97
-30.32
-24.08
-15.87
-6.58
2.85
11.66
19.37
25.67
30.32
33.11
33.91
32.78
30.10
26.54
22.92
19.98
18.14
17.43
17.51
17.84
17.90
17.33
16.06
14.25
12.15
9.97
7.79
5.51
2.92
-0.23
-4.11
-8.69
-13.63
-18.27
-21.75
-23.19
-22.03
-18.22
-12.30
-5.23
1.89
8.16
13.05
16.44
18.37
18.94
18.16
15.98
12.47
7.79
2.22
-3.89
-10.16
-16.08
-20.95
-23.93
-24.25
-21.57
-16.22
-9.21
-1.88
4.53
9.23
11.89
12.54
11.18
7.67
1.88
-6.06
-15.46
-25.06
-33.29
-38.74
-40.56
-38.65
-33.57
-26.25
-17.65
-8.56
0.44
8.94
16.61
23.08
28.08
31.46
33.31
33.96
33.94
33.88
34.39
35.92
38.60
42.10
45.59
47.91
47.82
44.46
37.62
27.83
16.20
4.07
-7.34
-17.21
-25.16
-31.19
-35.54
-38.55
-40.61
-42.01
-42.84
-42.91
-41.74
-38.69
-33.25
-25.24
-14.98
-3.26
8.92
20.51
30.66
38.78
44.57
47.97
49.25
48.89
47.56
45.93
44.54
43.68
43.34
43.36
43.53
43.70
43.82
43.84
43.72
43.26
42.23
40.39
37.62
33.99
29.74
25.20
20.65
16.19
11.75
7.16
2.27
-3.02
-8.68
-14.65
-20.81
-26.91
-32.48
-36.83
-39.21
-39.04
-36.18
-31.03
-24.39
-17.22
-10.35
-4.29
0.74
4.73
7.75
9.95
11.52
12.70
13.74
14.79
15.90
16.96
17.82
18.33
18.44
18.20
17.67
16.92
15.96
14.72
13.12
11.10
8.69
5.96
3.07
0.14
-2.79
-5.83
-9.23
-13.29
-18.23
-23.99
-30.22
-36.16
-40.87
-43.42
-43.18
-39.94
-34.02
-26.17
-17.38
-8.64
-0.79
5.63
10.38
13.49
15.11
15.46
14.73
13.11
10.80
8.03
5.03
1.99
-0.99
-3.93
-6.90
-10.00
-13.25
-16.73
-20.46
-24.56
-29.10
-34.08
-39.40
-44.81
-50.09
-55.13
-60.05
-65.17
-70.87
-77.47
-85.01
-93.16
-101.18
-108.01
-112.42
-113.31
-109.91
-102.11
-90.52
-76.34
-61.15
-46.42
-33.30
-22.42
-13.91
-7.56
-2.96
0.34
2.79
4.79
6.69
8.63
10.61
12.45
13.92
14.88
15.34
15.46
15.43
15.34
15.16
14.74
13.91
12.62
10.94
9.06
7.25
5.73
4.66
4.05
3.75
3.50
3.07
2.41
1.85
2.12
4.25
9.24
17.69
29.51
43.86
59.27
74.00
86.39
95.20
99.77
100.13
96.88
91.00
83.59
75.67
67.98
60.98
54.88
49.71
45.45
41.98
39.16
36.84
34.85
33.10
31.49
29.97
28.43
26.81
25.05
23.18
21.29
19.51
17.86
16.29
14.58
12.49
9.78
6.36
2.28
-2.18
-6.55
-10.18
-12.34
-12.42
-10.08
-5.39
1.12
8.62
16.20
23.04
28.65
32.81
35.51
36.87
37.03
36.20
34.63
32.63
30.52
28.56
26.89
25.53
24.46
23.60
22.88
22.23
21.55
20.72
19.60
18.09
16.21
14.02
11.70
9.39
7.24
5.25
3.31
1.23
-1.21
-4.09
-7.32
-10.53
-13.18
-14.66
-14.48
-12.44
-8.73
-3.89
1.31
6.14
10.03
12.67
14.04
14.29
13.64
12.35
10.67
8.84
7.05
5.47
4.14
3.04
2.13
1.30
0.50
-0.32
-1.23
-2.25
-3.42
-4.67
-5.94
-7.15
-8.30
-9.52
-10.98
-12.89
-15.36
-18.41
-21.88
-25.44
-28.61
-30.79
-31.39
-29.96
-26.45
-21.21
-14.97
-8.61
-2.88
1.72
5.05
7.16
8.17
8.20
7.38
5.88
4.01
2.14
0.54
-0.60
-1.32
-1.78
-2.18
-2.68
-3.33
-4.12
-4.95
-5.79
-6.61
-7.46
-8.43
-9.62
-11.10
-12.92
-15.14
-17.76
-20.83
-24.26
-27.77
-30.87
-32.85
-33.00
-30.83
-26.32
-19.97
-12.68
-5.42
1.01
6.20
10.09
12.80
14.48
15.19
14.94
13.83
12.06
10.00
8.03
6.43
5.32
4.62
4.10
3.54
2.78
1.79
0.65
-0.49
-1.52
-2.41
-3.22
-4.08
-5.13
-6.48
-8.23
-10.44
-13.18
-16.39
-19.85
-23.07
-25.38
-26.09
-24.68
-21.10
-15.68
-9.16
-2.34
4.05
9.54
13.91
17.07
19.05
19.89
19.72
18.73
17.17
15.33
13.45
11.71
10.19
8.93
7.92
7.09
6.35
5.59
4.71
3.65
2.38
0.90
-0.76
-2.57
-4.48
-6.47
-8.57
-10.88
-13.58
-16.76
-20.41
-24.19
-27.51
-29.58
-29.70
-27.51
-23.09
-16.97
-9.99
-2.99
3.38
8.72
12.91
15.93
17.76
18.39
17.87
16.40
14.40
12.40
10.95
10.36
10.65
11.55
12.62
13.52
14.10
14.45
14.80
15.35
16.14
17.04
17.83
18.32
18.40
18.08
17.39
16.35
15.04
13.67
12.63
12.45
13.66
16.56
21.04
26.52
32.13
36.91
40.11
41.34
40.62
38.26
34.73
30.45
25.78
20.91
15.97
10.98
5.97
0.87
-4.35
-9.75
-15.29
-20.81
-26.05
-30.73
-34.67
-37.84
-40.41
-42.63
-44.77
-47.00
-49.46
-52.26
-55.53
-59.39
-63.74
-68.27
-72.31
-75.04
-75.71
-73.82
-69.37
-62.78
-54.83
-46.44
-38.48
-31.57
-26.00
-21.80
-18.80
-16.77
-15.50
-14.88
-14.81
-15.19
-15.82
-16.45
-16.87
-16.94
-16.72
-16.35
-16.01
-15.84
-15.87
-16.03
-16.30
-16.67
-17.19
-17.95
-18.99
-20.30
-21.87
-23.69
-25.86
-28.50
-31.63
-35.10
-38.44
-40.99
-42.07
-41.17
-38.15
-33.26
-27.08
-20.31
-13.58
-7.32
-1.78
2.97
6.87
9.88
11.95
13.07
13.36
13.01
12.33
11.61
11.08
10.81
10.71
10.60
10.32
9.71
8.71
7.34
5.65
3.72
1.58
-0.69
-3.04
-5.38
-7.69
-10.06
-12.62
-15.57
-18.96
-22.68
-26.28
-29.09
-30.38
-29.53
-26.30
-20.94
-14.13
-6.84
0.00
5.72
10.03
12.95
14.67
15.37
15.12
13.94
11.90
9.22
6.26
3.41
0.93
-1.11
-2.85
-4.48
-6.07
-7.52
-8.54
-8.85
-8.31
-7.01
-5.24
-3.42
-1.92
-0.98
-0.79
-1.45
-3.03
-5.47
-8.53
-11.70
-14.28
-15.49
-14.79
-11.97
-7.28
-1.35
5.01
10.97
15.88
19.36
21.29
21.77
21.03
19.39
17.21
14.82
12.53
10.60
9.20
8.43
8.22
8.37
8.58
8.54
8.06
7.17
6.12
5.29
4.99
5.34
6.19
7.27
8.27
8.93
9.10
8.64
7.50
5.80
4.03
3.10
4.24
8.55
16.65
28.39
42.86
58.66
74.21
87.88
98.14
103.62
103.33
97.10
85.69
70.88
54.96
40.17
28.11
19.48
14.17
11.61
11.03
11.66
12.81
13.83
14.20
13.53
11.66
8.63
4.64
-0.00
-4.96
-9.90
-14.57
-18.87
-22.96
-27.16
-31.82
-37.06
-42.59
-47.68
-51.35
-52.67
-51.14
-46.82
-40.32
-32.53
-24.34
-16.41
-9.20
-2.99
1.93
5.33
7.12
7.43
6.66
5.43
4.28
3.56
3.29
3.20
2.90
1.97
0.13
-2.77
-6.70
-11.53
-16.98
-22.72
-28.36
-33.53
-37.91
-41.29
-43.60
-44.93
-45.64
-46.25
-47.39
-49.59
-53.03
-57.40
-61.98
-65.81
-68.10
-68.48
-67.16
-64.85
-62.41
-60.57
-59.78
-60.19
-61.69
-64.15
-67.35
-70.89
-74.14
-76.17
-75.86
-72.16
-64.37
-52.30
-36.28
-17.10
4.21
26.43
48.33
68.69
86.44
100.72
111.02
117.22
119.55
118.53
114.78
108.89
101.39
92.69
83.16
73.27
63.65
55.03
48.20
43.71
41.78
42.19
44.28
47.18
50.06
52.28
53.56
53.81
53.10
51.46
48.90
45.47
41.33
36.85
32.49
28.67
25.62
23.34
21.54
19.87
18.02
15.83
13.36
10.79
8.35
6.15
4.18
2.30
0.28
-2.08
-4.89
-8.22
-12.01
-16.11
-20.24
-23.92
-26.54
-27.42
-26.00
-22.07
-15.88
-8.08
0.43
8.74
16.18
22.36
27.15
30.57
32.70
33.65
33.59
32.76
31.55
30.40
29.70
29.65
30.21
31.17
32.21
33.07
33.64
33.97
34.21
34.58
35.28
36.52
38.47
41.17
44.48
47.96
50.86
52.32
51.62
48.50
43.19
36.43
29.06
21.80
15.01
8.79
3.07
-2.13
-6.68
-10.44
-13.39
-15.77
-17.97
-20.35
-23.08
-25.96
-28.54
-30.30
-30.92
-30.36
-28.89
-26.94
-24.97
-23.42
-22.65
-22.90
-24.14
-26.08
-28.11
-29.54
-29.85
-28.95
-27.22
-25.41
-24.31
-24.50
-26.14
-29.03
-32.66
-36.31
-39.21
-40.60
-39.93
-37.02
-32.14
-25.95
-19.30
-12.98
-7.63
-3.61
-1.10
-0.14
-0.64
-2.44
-5.24
-8.69
-12.43
-16.11
-19.50
-22.46
-24.88
-26.73
-28.06
-29.02
-29.86
-30.85
-32.23
-34.11
-36.43
-39.00
-41.62
-44.20
-46.81
-49.71
-53.19
-57.41
-62.23
-67.23
-71.69
-74.79
-75.75
-73.97
-69.20
-61.60
-51.75
-40.64
-29.50
-19.56
-11.83
-6.86
-4.71
-4.99
-7.01
-10.02
-13.31
-16.38
-18.93
-20.92
-22.46
-23.75
-24.93
-26.07
-27.09
-27.82
-28.10
-27.83
-27.03
-25.93
-24.93
