1552338758.00
64.000000
-0.00
-0.00
-0.00
-0.00
-0.00
-0.00
-0.00
-0.00
-0.00
-0.00
0.00
0.01
0.01
-0.00
-0.03
-0.05
-0.05
0.00
0.13
0.36
0.66
1.01
1.37
1.72
2.06
2.40
2.79
3.24
3.80
4.42
5.06
5.66
6.20
6.68
7.15
7.68
8.31
9.14
10.09
11.04
11.88
12.56
13.14
13.76
14.65
15.96
17.91
20.32
22.90
25.38
27.58
29.57
31.68
34.32
37.81
42.54
48.15
54.10
59.83
64.97
69.58
74.14
79.34
85.71
93.76
103.00
112.62
121.73
129.77
136.75
143.30
150.75
157.77
166.64
177.95
191.79
206.97
220.57
228.25
225.36
208.53
176.87
132.76
80.05
23.07
-34.94
-92.44
-149.16
-205.23
-260.37
-313.73
-363.86
-409.80
-450.86
-486.43
-515.64
-537.10
-549.06
-549.76
-538.12
-513.90
-478.32
-433.46
-381.97
-326.48
-269.24
-211.96
-155.91
-102.13
-51.47
-4.92
36.66
72.61
102.65
126.92
145.93
160.39
171.01
178.41
182.99
185.04
184.78
182.50
178.53
173.29
167.19
160.57
153.69
146.68
139.62
132.54
125.50
118.55
111.77
105.22
98.96
93.03
87.43
82.18
77.29
72.75
68.60
64.82
61.47
58.50
55.93
53.71
51.84
50.25
48.88
47.66
46.43
45.10
43.52
41.58
39.15
36.15
32.55
28.33
23.57
18.33
12.76
7.05
1.42
-3.94
-8.84
-13.12
-16.67
-19.44
-21.41
-22.59
-23.07
-22.95
-22.33
-21.36
-20.09
-18.56
-16.80
-14.82
-12.56
-10.04
-7.28
-4.26
-1.02
2.40
5.90
9.43
12.89
16.23
19.35
22.18
24.75
27.10
29.34
31.58
33.97
36.65
39.75
43.26
47.13
51.32
55.75
60.39
65.16
70.00
74.92
79.99
85.06
90.10
95.13
100.20
105.36
110.72
116.30
122.19
128.43
134.71
140.76
146.31
151.03
154.54
156.39
156.00
152.65
147.60
141.36
134.24
126.51
118.42
110.14
101.92
93.92
86.32
79.33
72.80
66.64
60.77
55.17
49.77
44.60
39.68
35.11
30.98
27.22
23.80
20.69
17.95
15.56
13.52
11.80
10.38
9.22
8.11
6.92
5.50
3.80
1.81
-0.43
-2.84
-5.28
-7.57
-9.60
-11.18
-12.17
-12.42
-11.83
-10.36
-8.07
-5.09
-1.61
2.05
5.62
8.83
11.44
13.24
14.16
14.19
13.34
11.75
9.53
6.82
3.69
0.25
-3.45
-7.34
-11.38
-15.56
-19.87
-24.32
-28.94
-33.75
-38.72
-43.73
-48.69
-53.39
-57.73
-61.67
-65.29
-68.75
-72.29
-76.23
-80.80
-86.19
-92.42
-99.45
-107.16
-115.50
-124.51
-134.33
-145.25
-157.43
-170.91
-185.30
-200.07
-214.45
-227.93
-240.80
-254.01
-269.28
-287.99
-310.37
-334.77
-357.82
-375.34
-383.68
-380.99
-367.25
-344.09
-313.67
-278.45
-240.93
-203.98
-170.89
-144.21
-125.03
-111.90
-101.59
-90.61
-77.17
-62.07
-47.78
-36.89
-29.89
-24.94
-18.79
-9.28
3.39
16.34
25.44
28.24
24.95
18.78
13.96
13.41
17.28
23.17
28.13
30.09
29.50
28.26
28.57
31.09
34.68
37.18
36.46
32.41
26.24
20.23
16.11
14.28
13.90
13.64
12.90
11.57
10.48
10.22
11.11
12.65
14.04
14.36
12.64
8.88
3.40
-2.44
-6.99
-8.60
-6.39
-0.71
7.37
16.15
24.75
32.98
41.44
50.34
59.07
65.97
68.70
66.37
59.60
51.18
44.59
42.27
44.28
48.18
50.78
49.43
44.18
37.22
32.02
30.97
34.34
40.17
45.11
47.06
45.28
41.02
36.03
31.32
26.75
21.34
14.78
7.59
1.99
0.24
3.73
11.52
20.60
26.96
26.92
19.65
6.69
-8.07
-20.48
-27.94
-30.33
-29.78
-28.80
-29.23
-30.50
-30.47
-26.39
-17.14
-4.11
8.99
17.50
19.04
14.17
6.94
2.49
4.32
12.27
22.57
30.14
31.02
25.23
16.25
9.47
8.87
14.96
24.64
32.59
35.04
30.83
22.46
14.03
8.85
7.67
8.57
8.84
6.59
2.77
0.14
1.75
8.30
17.15
23.29
21.41
9.75
-9.36
-29.57
-43.69
-47.07
-39.70
-26.21
-13.05
-5.87
-6.12
-11.25
-16.02
-15.89
-9.42
1.19
11.14
16.81
16.90
13.57
10.38
9.93
12.17
14.66
14.82
11.43
6.55
3.91
7.15
17.17
31.27
44.34
50.83
48.32
37.97
24.58
13.89
9.69
12.01
17.24
20.76
19.13
12.95
5.77
2.40
5.47
13.68
22.33
25.53
20.46
8.42
-5.17
-14.17
-15.20
-9.66
-2.83
-0.30
-5.13
-15.15
-24.95
-28.75
-24.41
-14.79
-6.10
-4.61
-12.06
-25.25
-37.24
-41.73
-36.65
-25.37
-14.67
-10.35
-14.34
-22.74
-28.72
-26.00
-12.92
6.62
25.25
35.69
35.44
27.24
17.96
14.20
18.64
28.55
37.45
39.45
32.17
19.11
7.07
2.83
8.83
21.95
35.21
41.31
37.40
25.77
12.95
5.47
6.32
13.26
20.41
22.22
16.36
5.95
-2.93
-4.49
2.76
14.96
24.91
25.79
15.78
-1.54
-18.36
-27.31
-25.22
-14.79
-2.90
3.66
1.28
-7.91
-18.26
-23.52
-20.89
-12.37
-3.52
-0.58
-6.06
-18.13
-30.86
-38.01
-36.24
-27.08
-15.90
-8.49
-8.21
-13.30
-18.63
-18.27
-9.48
5.68
21.35
30.92
31.51
24.76
16.39
12.17
14.37
20.27
23.85
19.99
7.43
-9.22
-22.44
-25.49
-16.63
-0.12
16.07
24.25
21.82
11.73
1.18
-3.09
1.52
11.92
21.42
24.09
17.83
6.50
-3.12
-4.90
2.51
14.86
24.77
25.68
16.42
1.07
-12.71
-18.68
-15.32
-6.83
-0.42
-1.72
-11.84
-25.82
-36.19
-36.71
-26.43
-10.25
3.68
8.14
1.44
-12.54
-25.84
-31.41
-26.55
-14.47
-1.89
5.26
4.83
0.48
-1.54
4.15
17.96
34.75
46.39
46.13
33.41
13.85
-2.73
-8.14
0.04
16.77
32.45
38.31
30.70
13.86
-3.31
-11.56
-6.90
7.55
23.32
31.11
26.63
12.02
-4.82
-15.46
-15.42
-6.81
3.15
6.94
0.76
-12.46
-25.65
-31.44
-27.05
-15.82
-5.17
-2.35
-9.49
-23.10
-35.70
-40.91
-36.87
-27.45
-19.31
-17.44
-22.38
-28.90
-29.91
-20.27
-0.41
23.51
42.78
50.60
46.30
35.06
25.51
24.30
32.71
45.64
54.71
53.11
39.04
17.33
-4.06
-18.00
-22.32
-20.44
-18.93
-23.51
-35.33
-50.89
-63.58
-67.83
-61.85
-48.88
-35.43
-28.02
-30.53
-41.47
-55.51
-65.54
-66.51
-58.01
-44.29
-31.95
-25.91
-27.08
-31.66
-34.17
-30.88
-22.58
-14.00
-10.48
-14.59
-23.35
-30.43
-29.64
-19.32
-3.90
8.43
10.08
-1.19
-21.29
-41.54
-53.73
-54.21
-46.02
-36.89
-34.82
-44.11
-62.29
-81.90
-93.83
-91.92
-75.95
-51.34
-26.24
-7.10
3.75
8.94
13.16
20.08
29.72
38.73
42.79
39.43
30.75
21.99
19.21
25.51
39.06
54.07
63.76
64.46
57.27
47.57
41.42
42.00
47.42
52.12
50.51
40.45
25.55
12.58
7.96
13.67
26.00
37.77
42.36
37.83
27.36
17.84
15.45
22.43
35.74
48.85
55.16
50.99
37.93
21.11
6.90
-0.50
-0.97
2.24
4.81
4.57
2.37
1.80
6.05
15.58
26.93
34.58
34.15
24.96
11.47
0.29
-2.90
3.25
15.15
26.50
31.91
30.19
24.42
20.55
23.30
33.79
48.58
61.76
68.28
66.19
58.18
49.00
43.08
41.76
42.62
41.42
34.93
23.58
11.20
3.45
3.96
12.19
23.08
29.70
27.10
14.78
-2.23
-16.76
-22.91
-19.47
-10.41
-2.44
-1.26
-8.03
-19.33
-28.65
-30.53
-23.24
-9.74
4.32
13.78
16.26
13.75
10.17
9.30
12.22
16.73
19.03
16.25
8.94
0.74
-2.83
1.87
14.53
30.25
41.90
44.00
35.31
20.46
6.71
0.51
3.69
12.66
20.70
21.93
15.13
3.76
-5.69
-8.21
-3.04
5.77
11.99
11.04
2.22
-10.19
-20.28
-23.43
-19.20
-11.48
-6.13
-7.59
-15.91
-27.04
-34.39
-33.17
-22.85
-8.05
3.95
7.29
0.34
-12.48
-24.00
-27.84
-22.33
-11.28
-1.41
1.83
-2.02
-8.71
-11.37
-5.46
8.64
25.34
37.20
39.20
31.19
18.58
8.26
5.24
9.64
16.95
21.03
17.67
7.39
-5.45
-14.51
-15.63
-8.61
2.56
12.20
16.07
13.08
6.36
0.38
-1.32
1.55
5.88
7.07
1.94
-8.68
-20.56
-27.50
-25.46
-14.60
0.16
11.88
15.24
8.93
-3.03
-14.60
-20.53
-19.54
-14.59
-10.80
-12.11
-18.54
-26.57
-30.62
-27.08
-16.19
-2.40
8.29
11.75
7.69
0.63
-3.58
-0.50
9.88
23.03
32.35
32.65
23.35
8.39
-5.08
-10.87
-6.36
6.12
20.79
31.59
34.63
30.62
22.94
15.79
11.10
7.55
1.86
-8.43
-22.32
-35.63
-42.34
-38.70
-25.22
-7.18
8.13
15.23
12.85
5.03
-2.23
-3.96
0.68
8.19
12.96
10.53
0.47
-13.81
-26.18
-31.56
-27.88
-17.09
-3.73
7.70
14.41
17.07
17.95
19.75
23.42
27.52
28.86
24.55
14.16
0.10
-12.48
-18.75
-16.28
-6.82
4.76
13.03
14.66
10.97
6.16
5.26
10.53
20.04
28.68
31.26
25.85
14.52
2.83
-4.05
-3.72
1.96
8.35
10.93
7.56
0.29
-6.76
-9.57
-7.01
-1.44
2.57
1.21
-5.88
-15.69
-22.66
-22.56
-14.44
-1.65
9.94
15.03
11.08
0.12
-13.53
-25.07
-31.94
-34.39
-34.51
-34.25
-33.78
-32.04
-27.12
-18.74
-8.53
0.36
5.10
5.06
2.18
0.64
3.94
13.24
26.03
37.31
41.89
37.09
24.34
7.96
-6.35
-14.76
-16.43
-13.43
-9.02
-5.51
-3.31
-0.70
4.15
12.30
22.92
33.90
42.93
48.62
50.94
50.28
47.39
42.19
34.12
22.60
7.65
-9.36
-26.01
-39.13
-46.44
-46.95
-41.59
-32.39
-21.68
-11.14
-1.55
6.40
12.19
14.49
11.96
3.85
-9.32
-25.51
-41.80
-54.89
-62.50
-63.31
-57.38
-45.95
-31.12
-15.43
-1.06
10.32
18.53
24.16
28.47
32.65
37.15
41.72
45.27
46.57
44.29
37.97
28.09
16.30
4.78
-4.60
-11.01
-15.30
-18.66
-22.21
-25.69
-27.72
-26.81
-22.36
-15.57
-8.59
-3.91
-2.61
-4.31
-7.42
-10.43
-12.70
-14.69
-17.72
-22.44
-28.77
-35.31
-40.13
-41.61
-39.19
-33.72
-26.80
-20.52
-16.12
-13.83
-12.79
-11.60
-9.05
-4.54
1.31
7.72
13.52
18.10
21.32
23.32
24.36
24.42
23.70
22.29
20.86
20.24
21.25
24.07
28.01
31.62
32.74
30.08
23.19
13.22
2.40
-6.87
-12.88
-15.34
-14.89
-12.96
-10.37
-7.29
-3.33
1.75
7.49
12.63
15.29
14.55
10.36
4.06
-2.49
-7.71
-10.76
-11.75
-10.98
-9.19
-6.69
-3.90
-1.10
1.23
2.53
2.38
0.30
-3.22
-7.19
-9.81
-9.13
-3.91
5.69
17.91
30.36
40.58
47.46
50.56
49.63
43.75
31.68
13.14
-10.25
-33.73
-51.53
-58.61
-53.23
-37.69
-17.00
3.35
20.05
32.15
40.95
47.72
52.87
55.36
53.71
47.28
36.55
23.73
11.09
0.35
-8.40
-16.51
-25.55
-36.19
-46.91
-54.71
-55.72
-47.50
-30.21
-7.29
15.73
33.16
40.89
38.53
28.66
16.07
5.51
-0.02
0.04
4.21
10.72
18.10
26.38
35.96
46.68
56.59
62.01
58.97
44.82
20.92
-8.10
-35.28
-54.42
-62.68
-61.39
-55.14
-48.87
-45.86
-45.87
-46.23
-43.45
-35.70
-23.84
-10.99
-1.33
2.74
0.91
-4.58
-10.56
-14.61
-15.99
-15.61
-14.58
-13.58
-11.81
-8.24
-2.36
4.59
10.08
11.42
6.81
-3.08
-16.21
-29.45
-40.17
-47.05
-50.04
-50.21
-48.70
-46.78
-44.77
-42.54
-39.23
-34.04
-26.62
-17.47
-8.32
-0.63
4.37
7.02
8.56
10.33
12.71
14.61
14.50
11.24
5.94
1.30
0.67
5.64
14.80
24.19
28.95
26.81
18.82
9.44
3.80
4.75
11.38
19.56
24.69
23.93
18.24
11.12
6.78
7.28
11.61
16.46
18.04
15.19
9.37
4.25
2.91
5.74
9.90
10.87
5.52
-6.23
-20.30
-30.99
-33.55
-26.99
-14.31
-0.89
8.02
10.36
7.02
1.30
-3.52
-5.83
-6.15
-6.16
-6.94
-8.38
-8.47
-5.13
2.79
14.06
25.43
32.88
33.04
25.56
12.73
-0.90
-10.73
-14.20
-11.83
-6.93
-3.47
-4.41
-9.49
-15.87
-19.40
-17.44
-10.27
-1.05
5.62
7.18
3.79
-1.26
-4.01
-2.21
3.29
9.14
12.06
10.38
5.91
2.17
2.64
8.22
16.71
23.92
25.66
20.81
11.17
1.15
-5.05
-5.75
-2.77
-0.58
-3.40
-13.13
-27.28
-40.58
-47.22
-44.21
-32.88
-18.03
-5.58
1.31
2.98
3.16
5.84
12.58
21.26
27.35
27.05
19.53
8.45
-0.27
-1.45
6.16
19.01
30.59
34.56
28.76
15.65
1.61
-6.81
-6.09
2.50
13.86
22.15
23.57
18.75
11.54
6.83
7.30
11.84
16.27
15.69
8.09
-4.75
-17.53
-24.65
-23.21
-14.73
-4.43
1.74
-0.12
-9.32
-21.65
-31.40
-34.77
-31.84
-26.15
-22.67
-24.35
-30.79
-38.02
-41.07
-36.72
-25.39
-10.96
1.49
8.12
8.82
6.49
5.34
8.13
14.33
20.52
22.35
17.66
7.70
-2.86
-8.63
-6.41
2.97
14.99
23.95
25.68
20.12
10.59
2.04
-1.84
-0.58
3.40
6.44
6.45
3.94
2.09
4.45
12.63
24.90
36.78
43.28
41.28
31.62
18.12
5.76
-2.00
-4.96
-5.74
-7.98
-13.67
-22.19
-30.07
-33.26
-29.47
-19.74
-8.33
-0.69
-0.91
-9.14
-21.84
-33.21
-38.26
-35.33
-26.37
-15.64
-6.60
-0.37
4.94
12.11
22.57
34.70
44.38
47.36
41.53
29.05
15.00
5.21
3.08
7.88
15.41
20.28
19.27
12.61
4.09
-1.58
-1.44
3.92
10.78
14.65
12.68
5.99
-1.58
-5.37
-2.97
4.08
11.13
12.93
7.07
-4.77
-17.05
-23.69
-21.29
-11.24
0.94
8.74
7.87
-0.88
-12.92
-22.22
-25.04
-22.00
-17.20
-15.56
-19.25
-26.67
-33.00
-33.56
-26.57
-14.42
-2.20
5.33
6.18
2.70
-0.58
0.61
7.42
17.13
24.78
25.89
19.47
8.24
-2.21
-6.77
-3.28
6.16
16.46
22.40
21.07
14.06
5.81
1.46
3.67
11.03
18.88
21.94
17.69
7.58
-3.19
-8.89
-6.34
3.11
14.30
21.06
19.31
9.85
-2.79
-12.47
-15.10
-10.90
-3.91
0.42
-1.15
-8.08
-16.05
-19.98
-16.92
-8.09
1.73
7.25
5.36
-2.46
-11.80
-17.75
-18.13
-14.54
-10.96
-11.20
-15.49
-20.40
-20.26
-10.89
7.55
29.87
48.14
55.45
48.69
30.57
7.67
-12.46
-24.29
-25.92
-18.44
-3.93
18.37
49.01
87.90
132.37
177.38
217.51
249.23
270.88
282.64
286.87
285.01
279.09
270.30
258.48
242.71
221.72
195.00
163.32
128.86
93.86
60.00
27.44
-5.31
-40.48
-79.80
-123.24
-168.44
-210.96
-246.39
-271.65
-286.34
-292.86
-295.07
-296.97
-301.13
-308.38
-318.28
-329.42
-339.70
-346.30
-346.29
-337.42
-319.35
-294.09
-265.00
-235.61
-207.86
-181.40
-153.89
-123.29
-90.55
-60.85
-42.50
-42.57
-63.00
-98.02
-135.20
-159.42
-159.19
-131.91
-85.11
-33.32
9.21
34.01
41.01
36.71
30.34
32.45
48.88
79.67
119.11
160.19
197.57
229.36
255.04
273.54
282.25
277.69
260.89
232.56
196.74
159.02
124.27
94.56
68.81
43.93
16.09
-17.08
-55.01
-92.40
-121.44
-134.99
-129.61
-106.83
-72.32
-33.22
2.44
29.16
46.86
59.42
71.46
84.97
98.52
108.92
113.29
110.69
102.28
90.96
79.60
70.75
66.34
67.46
74.68
87.37
103.47
119.72
132.67
138.97
137.34
128.90
116.66
104.19
94.12
87.06
82.21
80.29
79.37
78.74
77.89
75.54
69.45
57.16
37.22
9.16
-22.61
-53.63
-80.30
-101.24
-117.07
-129.41
-139.43
-147.47
-152.91
-154.77
-153.33
-149.57
-145.29
-142.43
-142.12
-144.19
-147.44
-149.96
-149.77
-146.28
-139.86
-131.62
-122.47
-113.21
-102.30
-87.86
-68.16
-42.14
-9.93
27.59
68.71
109.80
146.24
172.47
183.27
176.13
153.01
120.11
85.87
57.72
39.37
30.46
27.77
27.55
27.49
27.08
26.63
26.14
24.90
21.88
16.96
11.15
6.05
2.93
2.24
3.10
3.92
3.37
0.80
-3.09
-6.91
-9.13
-9.04
-6.81
-3.47
-0.48
0.57
-1.57
-7.03
-14.27
-19.67
-18.57
-6.69
17.39
50.93
87.42
119.19
140.38
149.00
147.54
139.48
128.32
115.60
101.07
83.80
63.75
42.23
20.93
2.23
-13.26
-25.92
-36.72
-46.49
-55.31
-62.47
-67.09
-68.41
-66.38
-62.02
-56.70
-51.82
-48.27
-46.21
-45.05
-43.96
-42.18
-39.31
-35.66
-31.80
-28.37
-25.75
-23.98
-22.75
-21.60
-20.15
-18.22
-15.98
-13.68
-11.59
-9.91
-8.63
-7.63
-6.75
-5.82
-4.76
-3.64
-2.52
-1.47
-0.53
0.29
1.01
1.65
2.25
2.81
3.31
3.78
4.19
4.57
4.90
5.20
5.47
5.71
5.92
6.10
6.26
6.39
6.50
6.58
6.63
6.66
6.67
6.65
6.62
6.57
6.52
6.47
6.41
6.36
6.30
6.24
6.16
6.08
5.97
5.84
5.67
5.47
5.22
4.89
4.49
4.00
3.40
2.69
1.82
0.82
-0.36
-1.72
-3.29
-5.08
-7.12
-9.41
-11.97
-14.84
-17.98
-21.44
-25.24
-29.42
-33.99
-38.96
-44.36
-50.18
-56.45
-63.15
-70.30
-77.97
-86.20
-95.02
-104.46
-114.50
-125.14
-136.27
-147.68
-159.04
-169.95
-179.83
-187.93
-193.35
-195.11
-192.30
-184.57
-171.32
-152.33
-127.91
-98.88
-66.47
-32.24
2.10
34.87
64.62
90.27
111.07
126.66
137.07
142.59
143.79
141.36
135.98
128.31
119.01
108.61
97.60
86.40
75.44
65.04
55.47
46.98
39.70
33.69
28.90
25.15
22.20
19.74
17.49
15.15
12.50
9.32
5.52
1.05
-4.06
-9.79
-16.06
-22.80
-29.95
-37.44
-45.21
-53.25
-61.46
-69.73
-77.97
-86.10
-94.00
-101.56
-108.72
-115.41
-121.64
-127.26
-132.13
-136.13
-139.11
-140.86
-141.15
-139.71
-136.24
-131.57
-126.13
-120.25
-114.13
-107.83
-101.27
-94.34
-86.99
-79.25
-71.33
-63.36
-55.50
-47.80
-40.17
-32.34
-24.00
-14.94
-5.16
5.03
15.31
25.30
34.81
44.01
53.33
63.38
74.67
87.36
101.24
115.83
130.52
144.84
158.64
172.25
186.47
202.52
221.70
244.71
271.04
298.47
323.30
341.35
349.29
345.75
331.62
309.55
282.82
254.34
226.17
199.61
175.45
154.14
135.75
119.75
105.20
91.16
77.17
63.55
51.11
40.48
31.71
24.12
16.79
9.20
1.65
-4.91
-9.55
-12.00
-13.04
-14.12
-16.61
-20.97
-26.40
-31.28
-34.05
-34.13
-32.27
-30.17
-29.49
-30.91
-33.74
-36.29
-36.90
-34.89
-31.06
-27.19
-25.06
-25.38
-27.39
-29.37
-29.66
-27.74
-24.55
-21.95
-21.60
-23.89
-27.65
-30.77
-31.37
-28.91
-24.49
-20.25
-18.15
-18.82
-21.23
-23.31
-23.14
-20.11
-15.26
-10.71
-8.41
-9.08
-11.88
-14.91
-16.43
-15.80
-13.83
-12.21
-12.43
-14.79
-18.23
-20.83
-21.00
-18.42
-14.27
-10.59
-9.06
-10.10
-12.55
-14.43
-14.13
-11.43
-7.62
-4.81
-4.63
-7.23
-11.16
-14.17
-14.56
-12.09
-8.19
-5.10
-4.50
-6.61
-10.02
-12.48
-12.25
-9.07
-4.30
-0.12
1.68
0.71
-1.99
-4.60
-5.66
-4.95
-3.55
-3.09
-4.68
-8.10
-11.88
-14.08
-13.48
-10.30
-6.21
-3.38
-3.22
-5.61
-8.87
-10.76
-9.81
-6.17
-1.56
1.71
2.04
-0.51
-4.30
-7.10
-7.37
-5.14
-1.92
0.24
-0.03
-2.60
-5.98
-8.17
-7.89
-5.31
-1.86
0.56
0.80
-0.99
-3.45
-4.96
-4.63
-2.85
-1.08
-0.92
-3.10
-6.93
-10.61
-12.28
-11.01
-7.47
-3.53
-1.24
-1.68
-4.28
-7.16
-8.19
-6.21
-1.74
3.31
6.70
7.07
4.66
1.09
-1.66
-2.41
-1.41
-0.06
0.00
-1.99
-5.42
-8.62
-9.85
-8.41
-5.02
-1.51
0.28
-0.45
-2.97
-5.47
-6.13
-4.22
-0.59
2.78
3.92
2.03
-2.02
-6.13
-8.16
-7.12
-3.74
-0.05
1.84
0.93
-2.06
-5.10
-6.12
-4.16
0.01
4.40
6.94
6.71
4.36
1.60
0.13
0.51
1.90
2.63
1.30
-2.23
-6.65
-9.91
-10.40
-7.94
-3.92
-0.54
0.42
-1.37
-4.54
-6.88
-6.56
-3.26
1.63
5.77
7.18
5.31
1.34
-2.57
-4.52
-3.91
-1.66
0.46
0.90
-0.70
-3.31
-5.22
-5.01
-2.51
1.11
4.00
4.72
3.09
0.28
-1.89
-2.10
-0.40
1.88
2.86
1.36
-2.34
-6.54
-9.09
-8.62
-5.36
-1.04
2.06
2.45
0.26
-2.87
-4.70
-3.72
-0.00
4.80
8.40
9.13
6.86
2.98
-0.44
-1.83
-1.04
0.71
1.61
0.49
-2.50
-5.88
-7.78
-7.05
-3.97
-0.21
2.23
2.10
-0.28
-3.24
-4.78
-3.76
-0.65
2.71
4.18
2.58
-1.56
-6.22
-9.07
-8.69
-5.47
-1.28
1.58
1.76
-0.43
-3.20
-4.42
-2.90
0.89
5.10
7.62
7.30
4.59
1.22
-0.91
-0.83
0.92
2.70
2.81
0.62
-3.04
-6.28
-7.36
-5.67
-2.19
1.06
2.16
0.49
-2.91
-5.90
-6.50
-4.05
0.33
4.36
5.90
4.11
-0.02
-4.27
-6.45
-5.57
-2.41
1.05
2.79
1.94
-0.77
-3.43
-4.15
-2.16
1.73
5.57
7.44
6.54
3.64
0.53
-1.04
-0.50
1.29
2.54
1.74
-1.38
-5.57
-8.78
-9.32
-6.94
-2.95
0.45
1.50
-0.13
-3.16
-5.43
-5.23
-2.25
2.20
5.98
7.32
5.77
2.47
-0.62
-1.85
-0.79
1.55
3.42
3.36
1.14
-2.10
-4.53
-4.71
-2.44
1.03
3.82
4.44
2.71
-0.13
-2.25
-2.29
-0.27
2.39
3.72
2.45
-1.23
-5.65
-8.57
-8.51
-5.56
-1.42
1.64
2.03
-0.24
-3.53
-5.58
-4.77
-1.11
3.78
7.58
8.57
6.59
3.05
0.07
-0.82
0.48
2.59
3.57
2.17
-1.34
-5.26
-7.46
-6.65
-3.21
1.02
3.78
3.73
1.26
-1.86
-3.52
-2.64
0.18
3.03
3.89
1.84
-2.28
-6.36
-8.23
-6.89
-3.10
1.06
3.38
2.78
-0.12
-3.40
-4.90
-3.49
0.34
4.77
7.71
7.92
5.73
2.70
0.67
0.67
2.31
4.05
4.21
2.04
-1.76
-5.35
-6.86
-5.50
-2.12
1.31
2.77
1.49
-1.63
-4.53
-5.23
-3.07
0.89
4.42
5.43
3.22
-1.14
-5.37
-7.32
-6.16
-2.78
0.78
2.52
1.64
-1.02
-3.55
-4.10
-1.96
1.99
5.84
7.76
7.00
4.32
1.43
-0.06
0.38
1.93
2.98
2.12
-0.86
-4.81
-7.83
-8.40
-6.29
-2.71
0.33
1.21
-0.31
-2.99
-4.81
-4.18
-1.00
3.29
6.43
6.66
3.76
-0.82
-4.73
-6.04
-4.29
-0.70
2.56
3.67
2.14
-0.91
-3.49
-3.88
-1.72
1.86
4.92
5.88
4.44
1.71
-0.51
-0.90
0.60
2.69
3.60
2.17
-1.35
-5.41
-7.96
-7.70
-4.79
-0.86
2.00
2.37
0.34
-2.54
-4.22
-3.31
0.11
4.46
7.56
7.93
5.50
1.72
-1.37
-2.29
-0.93
1.44
3.03
2.56
0.14
-2.92
-4.76
-4.19
-1.35
2.33
4.92
5.14
3.05
0.06
-2.00
-1.96
-0.05
2.22
3.04
1.40
-2.21
-6.04
-8.10
-7.31
-4.21
-0.61
1.42
0.81
-1.92
-4.91
-6.09
-4.35
-0.24
4.36
7.28
7.21
4.48
0.78
-1.82
-2.04
-0.16
2.28
3.37
2.09
-1.07
-4.32
-5.70
-4.20
-0.48
3.53
5.70
5.02
2.14
-1.05
-2.59
-1.67
0.89
3.14
3.21
0.51
-3.89
-7.85
-9.36
-7.69
-3.83
0.09
2.06
1.28
-1.40
-3.96
-4.42
-1.98
2.52
7.07
9.60
9.16
6.32
2.87
0.65
0.59
2.14
3.79
3.96
2.05
-1.19
-4.10
-5.16
-3.86
-1.10
1.40
2.10
0.63
-2.01
-4.06
-4.06
-1.84
1.32
3.40
2.87
-0.40
-4.93
-8.47
-9.20
-6.81
-2.66
1.05
2.44
1.12
-1.72
-3.97
-3.87
-1.03
3.36
7.25
8.87
7.72
4.76
1.81
0.39
0.90
2.39
3.23
2.14
-0.94
-4.77
-7.46
-7.57
-5.03
-1.20
1.85
2.54
0.71
-2.24
-4.25
-3.80
-0.86
2.98
5.52
5.13
1.85
-2.68
-6.10
-6.66
-4.19
-0.18
3.13
4.03
2.29
-0.73
-2.90
-2.61
0.31
4.50
7.90
8.92
7.34
4.35
1.76
0.88
1.71
3.03
3.20
1.30
-2.27
-5.92
-7.81
-6.95
-3.81
-0.18
1.94
1.40
-1.33
-4.50
-6.02
-4.76
-1.18
2.80
4.95
3.95
0.17
-4.50
-7.72
-7.97
-5.36
-1.53
1.38
1.95
0.30
-2.05
-3.13
-1.71
1.86
5.94
8.52
8.41
5.99
2.82
0.74
0.63
1.96
3.15
2.63
-0.13
-4.17
-7.59
-8.65
-6.81
-3.11
0.39
1.80
0.48
-2.55
-5.23
-5.59
-2.98
1.57
5.87
7.79
6.42
2.60
-1.60
-4.07
-3.80
-1.39
1.39
2.69
1.66
-1.04
-3.66
-4.45
-2.64
1.03
4.77
6.76
6.26
3.94
1.46
0.40
1.23
3.07
4.17
3.10
-0.36
-4.89
-8.43
-9.27
-7.10
-3.23
0.19
1.35
-0.13
-3.03
-5.22
-4.99
-2.02
2.42
6.12
7.26
5.40
1.72
-1.69
-3.03
-1.78
1.05
3.59
4.19
2.44
-0.64
-3.19
-3.64
-1.64
1.75
4.62
5.45
3.94
1.17
-1.03
-1.30
0.36
2.60
3.51
1.82
-2.17
-6.75
-9.65
-9.40
-6.19
-1.77
1.49
1.99
-0.24
-3.54
-5.64
-4.97
-1.53
3.12
6.77
7.79
6.02
2.78
0.02
-0.83
0.39
2.53
3.87
3.21
0.63
-2.57
-4.59
-4.23
-1.60
1.92
4.46
4.74
2.85
0.13
-1.64
-1.37
0.66
2.92
3.54
1.50
-2.67
-7.11
-9.68
-9.14
-5.92
-1.86
0.86
0.99
-1.11
-3.64
-4.54
-2.67
1.44
5.90
8.54
8.18
5.24
1.54
-0.86
-0.80
1.31
3.82
4.84
3.38
-0.05
-3.67
-5.53
-4.64
-1.56
1.92
3.77
2.99
0.15
-2.92
-4.28
-3.09
-0.11
2.69
3.32
1.04
-3.14
-7.03
-8.47
-6.67
-2.61
1.44
3.30
2.11
-1.16
-4.29
-5.07
-2.63
2.12
6.96
9.60
8.97
5.72
1.79
-0.76
-0.93
0.69
2.40
2.48
0.31
-3.18
-6.07
-6.62
-4.38
-0.51
2.84
3.82
2.01
-1.32
-3.91
-3.93
-1.07
3.16
6.33
6.44
3.14
-2.06
-6.60
-8.29
-6.55
-2.62
1.14
2.69
1.41
-1.52
-3.92
-3.89
-0.99
3.53
7.43
8.79
7.10
3.53
0.17
-1.22
-0.26
1.85
3.13
2.11
-1.27
-5.49
-8.35
-8.27
-5.27
-0.96
2.33
2.93
0.82
-2.44
-4.61
-4.13
-1.10
2.85
5.46
5.20
2.17
-1.99
-5.00
-5.30
-2.86
0.76
3.40
3.56
1.23
-2.08
-4.25
-3.79
-0.69
3.56
6.84
7.59
5.73
2.58
0.08
-0.48
0.85
2.71
3.31
1.62
-1.95
-5.73
-7.81
-7.13
-4.22
-0.81
1.11
0.56
-1.91
-4.48
-5.19
-3.14
0.96
5.08
7.07
5.86
2.08
-2.28
-4.96
-4.68
-1.83
1.79
4.05
3.69
1.01
-2.27
-4.12
-3.30
-0.12
3.79
6.47
6.73
4.82
2.19
0.52
0.68
2.18
3.50
3.09
0.37
-3.78
-7.48
-8.90
-7.33
-3.66
0.14
2.12
1.44
-1.12
-3.65
-4.25
-2.19
1.63
5.20
6.52
4.80
0.93
-3.00
-4.93
-3.90
-0.68
2.82
4.58
3.67
0.75
-2.33
-3.66
-2.35
0.95
4.45
6.32
5.71
3.23
0.50
-0.89
-0.41
1.12
2.03
0.92
-2.42
-6.74
-10.02
-10.64
-8.35
-4.47
-1.17
-0.15
-1.70
-4.48
-6.32
-5.49
-1.77
3.41
7.72
9.19
7.35
3.42
-0.39
-2.15
-1.24
1.33
3.60
3.88
1.75
-1.68
-4.41
-4.73
-2.23
1.91
5.61
7.09
5.86
2.99
0.38
-0.39
0.93
3.13
4.26
2.90
-0.87
-5.48
-8.67
-8.83
-6.00
-1.85
1.28
1.70
-0.57
-3.87
-5.87
-4.97
-1.20
3.71
7.33
7.91
5.38
1.28
-2.07
-2.99
-1.31
1.58
3.61
3.36
0.88
-2.34
-4.22
-3.44
-0.19
3.88
6.64
6.71
4.26
0.85
-1.57
-1.81
-0.20
1.67
1.97
-0.26
-4.39
-8.52
-10.56
-9.45
-5.81
-1.60
0.94
0.65
-1.93
-4.86
-5.94
-4.00
0.38
5.16
8.06
7.80
4.81
0.96
-1.58
-1.58
0.58
3.21
4.38
3.10
-0.08
-3.41
-4.93
-3.70
-0.35
3.32
5.35
4.82
2.30
-0.47
-1.70
-0.66
1.83
3.93
3.87
1.06
-3.46
-7.59
-9.36
-8.04
-4.56
-0.95
0.82
-0.00
-2.56
-4.85
-4.98
-2.24
2.43
6.94
9.25
8.45
5.28
1.61
-0.59
-0.43
1.49
3.50
3.97
2.26
-0.87
-3.69
-4.64
-3.18
-0.15
2.75
3.93
2.87
0.41
-1.88
-2.56
-1.30
0.92
2.43
1.87
-0.96
-4.83
-7.77
-8.17
-5.73
-1.67
1.88
3.14
1.65
-1.41
-3.93
-4.06
-1.29
3.23
7.39
9.28
8.27
5.27
2.11
0.47
0.85
2.38
3.41
2.65
-0.09
-3.61
-6.11
-6.23
-3.88
-0.37
2.34
2.75
0.74
-2.39
-4.60
-4.45
-1.88
1.64
3.96
3.52
0.29
-4.15
-7.50
-8.03
-5.60
-1.69
1.42
2.01
-0.04
-3.21
-5.22
-4.36
-0.54
4.67
8.90
10.28
8.49
4.84
1.41
-0.15
0.46
2.07
2.92
1.78
-1.25
-4.76
-6.86
-6.36
-3.48
0.19
2.62
2.57
0.29
-2.57
-4.01
-2.87
0.39
3.93
5.55
4.05
-0.06
-4.75
-7.60
-7.15
-3.76
0.63
3.56
3.48
0.66
-3.01
-5.09
-4.03
-0.06
4.89
8.35
8.69
6.01
2.04
-0.96
-1.54
0.08
2.26
3.03
1.33
-2.26
-5.91
-7.58
-6.32
-2.82
0.94
2.90
2.13
-0.62
-3.39
-4.22
-2.34
1.31
4.64
5.62
3.52
-0.69
-4.78
-6.59
-5.26
-1.64
2.12
3.88
2.71
-0.57
-3.86
-4.98
-2.94
1.50
6.26
9.08
8.81
5.96
2.35
-0.01
-0.10
1.55
3.28
3.39
1.22
-2.36
-5.50
-6.48
-4.76
-1.41
1.56
2.35
0.50
-2.84
-5.56
-5.81
-3.19
1.00
4.47
5.20
2.65
-1.92
-6.18
-7.96
-6.50
-2.79
1.00
2.85
1.93
-0.86
-3.56
-4.25
-2.18
1.81
5.83
8.02
7.60
5.27
2.68
1.41
1.96
3.50
4.42
3.38
0.23
-3.81
-6.81
-7.27
-5.02
-1.34
1.74
2.63
1.08
-1.64
-3.55
-3.15
-0.38
3.34
5.86
5.56
2.34
-2.33
-6.14
-7.27
-5.36
-1.72
1.50
2.50
0.89
-2.13
-4.52
-4.56
-1.87
2.44
6.34
8.10
7.15
4.41
1.59
0.19
0.60
1.96
2.72
1.69
-1.18
-4.71
-7.16
-7.24
-4.98
-1.68
0.76
1.01
-0.87
-3.48
-4.89
-3.82
-0.48
3.47
5.88
5.30
1.91
-2.57
-5.80
-6.16
-3.60
0.29
3.28
3.78
1.70
-1.42
-3.46
-2.89
0.27
4.46
7.55
8.01
5.87
2.56
0.03
-0.45
0.99
2.91
3.53
1.88
-1.57
-5.14
-6.93
-5.97
-2.77
0.90
3.04
2.60
0.08
-2.74
-3.83
-2.10
1.93
6.39
9.10
8.78
5.75
1.73
-1.11
-1.34
0.96
4.37
7.01
7.67
6.45
4.65
3.89
5.16
8.22
11.80
14.43
15.37
15.10
14.89
15.88
18.27
21.05
22.64
21.87
18.98
15.66
14.36
16.79
22.86
30.52
36.67
38.80
36.31
30.84
25.53
23.59
26.72
34.31
43.70
51.25
53.72
49.36
38.53
22.53
4.19
-13.17
-26.60
-34.20
-35.49
-31.24
-22.98
-12.53
-1.57
8.54
16.54
21.40
22.50
19.92
14.57
7.81
1.13
-4.46
-8.54
-11.35
-13.57
-15.87
-18.60
-21.67
-24.65
-27.00
-28.37
-28.68
-28.19
-27.35
-26.58
-26.16
-26.09
-26.18
-26.17
-25.85
-25.11
-24.05
-22.83
-21.64
-20.63
-19.82
-19.17
-18.56
-17.90
-17.14
-16.27
-15.36
-14.45
-13.60
-12.85
-12.19
-11.60
-11.06
-10.54
-10.03
-9.54
-9.05
-8.57
-8.11
-7.66
-7.23
-6.82
-6.37
-5.93
-5.51
-5.12
-4.76
-4.43
-4.13
-3.84
-3.58
-3.34
-3.12
-2.93
-2.75
-2.59
-2.43
-2.29
-2.16
-2.03
-1.92
-1.81
-1.72
-1.64
-1.56
-1.48
-1.41
-1.35
-1.28
-1.22
-1.17
-1.12
-1.08
-1.04
-1.00
-0.97
-0.93
-0.89
-0.87
-0.84
-0.81
-0.79
-0.77
-0.74
-0.73
-0.70
-0.68
-0.66
-0.65
-0.63
-0.62
-0.60
-0.59
-0.58
-0.56
-0.55
-0.54
-0.52
-0.51
-0.50
-0.49
-0.48
-0.48
-0.48
-0.49
-0.49
-0.50
-0.50
-0.51
-0.50
-0.47
-0.45
-0.40
-0.34
-0.26
-0.18
-0.08
0.01
0.11
0.22
0.32
0.42
0.52
0.61
0.70
0.79
0.87
0.95
1.03
1.08
1.14
1.21
1.27
1.35
1.48
1.65
1.88
2.16
2.45
2.76
3.03
3.28
3.55
3.90
4.35
4.94
5.67
6.45
7.27
8.06
8.84
9.66
10.59
11.66
12.91
14.30
15.68
16.97
18.13
19.18
20.30
21.76
23.81
26.65
30.34
34.61
39.20
43.71
47.86
51.37
54.04
55.50
55.18
52.38
46.32
36.49
22.86
6.17
-12.12
-30.27
-46.75
-60.65
-71.90
-81.08
-89.03
-96.26
-102.75
-107.55
-108.92
-105.80
-97.79
-85.67
-71.13
-56.13
-42.62
-32.39
-26.77
-26.43
-30.73
-36.99
-40.62
-37.74
-26.18
-7.26
14.57
33.52
45.26
48.62
45.68
40.17
35.06
31.55
29.00
26.21
22.73
19.23
16.95
16.62
18.09
20.04
21.13
20.29
17.56
13.84
10.40
8.35
8.06
9.14
10.57
11.36
10.87
9.12
6.70
4.44
3.03
2.68
3.20
4.01
4.51
4.35
3.54
2.39
1.29
0.61
0.45
0.73
1.15
1.48
1.55
1.34
0.98
0.64
0.41
0.34
0.42
0.56
0.69
0.77
0.81
0.82
0.82
0.83
0.85
0.88
0.90
0.92
0.94
0.97
1.00
1.04
1.07
1.10
1.11
1.12
1.12
1.17
1.28
1.46
1.72
2.00
2.24
2.40
2.44
2.40
2.35
2.34
2.40
2.52
2.62
2.63
2.50
2.28
2.06
2.01
2.21
2.70
3.34
3.92
4.24
4.17
3.80
3.36
3.24
3.69
4.76
6.18
7.50
8.20
8.03
7.14
6.10
5.66
6.39
8.34
10.96
13.28
14.32
13.60
11.49
9.11
7.87
8.76
11.75
15.68
18.76
19.45
17.28
13.20
9.11
6.92
7.48
10.30
13.93
16.93
18.31
17.39
13.31
4.32
-11.69
-36.06
-67.95
-103.97
-138.33
-164.99
-179.71
-181.20
-170.57
-149.79
-120.35
-83.17
-39.86
5.77
47.43
77.73
91.13
86.43
68.00
44.22
24.19
13.87
13.70
18.74
21.48
16.17
2.28
-14.50
-25.11
-22.13
-4.54
20.82
42.19
48.99
37.69
13.68
-12.05
-29.54
-35.17
-32.48
-28.37
-27.68
-30.19
-31.50
-26.93
-15.08
1.17
16.76
27.68
32.68
33.34
32.13
30.85
29.79
28.31
25.59
21.04
14.22
4.55
-7.73
-20.81
-30.95
-34.24
-28.84
-17.11
-5.69
-3.07
-16.09
-45.97
-86.84
-127.53
-156.30
-165.74
-155.53
-131.91
-104.12
-80.22
-64.31
-56.44
-54.33
-55.54
-58.65
-63.33
-69.85
-78.12
-87.38
-96.16
-102.35
-103.75
-98.34
-84.57
-61.18
-27.63
15.40
64.90
114.96
157.32
183.12
186.12
165.59
127.42
82.62
43.60
19.90
15.09
26.43
46.70
67.67
83.05
89.74
87.73
78.77
65.58
51.42
40.21
36.35
44.40
68.01
108.42
163.22
225.97
286.95
335.18
361.68
362.33
339.31
299.95
253.40
206.94
163.86
123.56
83.99
44.66
7.81
-22.14
-41.38
-49.58
-50.54
-50.72
-56.64
-71.96
-95.59
-122.07
-143.50
-152.50
-145.64
-124.93
-97.41
-72.72
-59.57
-62.37
-80.56
-108.58
-137.95
-160.11
-168.95
-161.76
-139.88
-107.63
-70.35
-33.86
-2.30
22.19
39.56
49.15
51.84
49.28
43.18
38.23
36.93
41.93
56.48
82.08
119.28
166.31
217.33
260.53
283.94
278.98
244.54
187.22
117.88
46.77
-19.33
-77.87
-128.08
-168.38
-196.50
-209.84
-208.61
-194.39
-171.08
-142.98
-116.38
-96.62
-86.19
-84.98
-90.81
-100.49
-111.49
-123.01
-135.70
-151.20
-170.37
-192.30
-214.24
-233.45
-245.55
-246.39
-233.08
-204.03
-159.30
-101.00
-33.80
35.00
95.15
137.73
158.47
159.36
147.66
132.31
120.13
113.46
110.45
107.48
102.39
95.60
89.18
85.05
83.39
82.42
79.56
72.90
62.12
48.97
36.54
27.61
23.36
23.18
25.00
26.31
25.57
22.22
16.84
10.51
4.25
-0.68
-2.02
3.63
19.71
47.87
86.14
128.08
165.29
190.23
198.83
191.40
171.51
142.33
108.84
73.85
38.85
5.45
-24.17
-47.68
-63.65
-72.30
-75.43
-75.30
-74.41
-74.14
-74.38
-74.14
-72.24
-68.11
-62.15
-55.79
-50.26
-46.69
-45.42
-45.72
-46.27
-45.80
-43.71
-40.29
-36.62
-33.89
-33.13
-34.52
-37.27
-40.07
-41.70
-41.68
-40.45
-39.28
-39.56
-42.27
-47.43
-53.99
-60.35
-65.16
-68.03
-69.78
-72.26
-77.41
-86.45
-99.35
-114.65
-129.94
-142.37
-149.18
-147.50
-135.30
-112.37
-81.30
-47.38
-17.20
4.00
14.63
17.55
18.80
24.41
37.35
56.33
77.04
94.81
107.12
113.95
116.91
117.63
116.55
113.03
106.42
96.92
85.95
75.54
67.39
62.21
59.45
57.65
55.13
50.80
44.60
37.42
30.65
25.42
22.22
20.69
19.91
18.80
16.69
13.50
9.73
6.18
3.46
1.85
1.20
1.00
0.71
-0.01
-1.22
-2.69
-4.08
-5.13
-5.68
-5.80
-5.68
-5.54
-5.55
-5.76
-6.12
-6.49
-6.77
-6.87
-6.79
-6.59
-6.33
-6.12
-6.03
-6.05
-6.13
-6.17
-6.07
-5.78
-5.35
-4.91
-4.65
-4.67
-5.00
-5.47
-5.88
-6.01
-5.76
-5.29
-4.90
-4.98
-5.73
-7.13
-8.81
-10.20
-10.81
-10.46
-9.44
-8.47
-8.38
-9.72
-12.44
-15.81
-18.69
-20.02
-19.41
-17.38
-15.27
-14.65
-16.54
-20.87
-26.38
-31.08
-33.36
-32.55
-29.44
-25.84
-23.71
-24.43
-28.38
-35.07
-43.17
-50.50
-54.02
-50.39
-37.24
-14.51
14.92
45.71
72.03
89.86
98.21
99.09
96.09
92.57
90.22
88.46
84.90
76.25
60.16
36.17
6.43
-24.83
-52.95
-74.72
-89.90
-100.26
-107.45
-110.83
-107.09
-92.29
-65.10
-28.98
8.40
38.43
55.61
59.90
56.04
50.32
47.40
48.08
49.91
49.67
45.68
38.99
32.59
29.53
31.15
36.46
42.86
47.03
46.85
42.10
34.45
26.94
22.92
24.86
32.92
44.44
53.99
55.15
43.20
17.45
-17.98
-55.66
-87.57
-107.83
-114.04
-106.99
-89.18
-63.61
-33.44
-1.92
27.39
51.21
67.73
77.16
81.53
83.02
82.32
77.85
67.41
50.19
28.64
8.41
-4.05
-4.63
6.14
23.07
38.40
45.81
43.04
32.54
19.78
10.10
6.30
7.85
12.13
16.34
18.93
19.85
19.73
19.03
17.01
12.18
2.99
-10.89
-28.19
-46.35
-62.23
-73.55
-79.38
-80.77
-79.91
-79.33
-81.05
-85.57
-92.22
-99.33
-105.23
-108.14
-107.30
-102.82
-95.36
-85.89
-75.37
-64.11
-52.01
-38.65
-23.97
-8.74
5.37
16.29
22.61
24.31
22.55
18.69
13.30
6.51
-1.75
-10.04
-15.37
-14.48
-5.88
8.84
25.28
38.33
44.70
44.28
39.53
33.66
28.66
24.60
20.43
15.35
9.75
4.76
1.23
-0.77
-1.99
-3.28
-4.96
-6.28
-5.96
-2.74
3.79
13.03
23.93
35.24
45.98
55.30
62.20
65.25
63.22
55.32
42.02
24.89
6.13
-12.36
-29.38
-43.90
-54.27
-57.32
-49.60
-29.78
-0.96
28.80
49.03
51.28
33.40
0.91
-35.25
-63.72
-76.93
-74.54
-61.80
-45.50
-30.60
-19.37
-11.49
-6.59
-4.62
-5.00
-5.90
-4.60
1.28
12.06
24.97
35.44
39.36
34.86
23.04
7.13
-9.36
-23.97
-35.47
-43.54
-47.97
-48.40
-44.78
-37.91
-29.17
-20.32
-12.73
-6.98
-2.87
0.35
3.29
5.96
7.81
8.48
7.61
5.00
0.83
-4.41
-10.01
-15.49
-20.65
-25.54
-29.52
-32.07
-32.82
-31.72
-29.09
-25.31
-21.23
-18.02
-16.65
-16.57
-17.03
-17.08
-15.78
-12.39
-5.79
3.98
16.11
24.36
25.86
19.39
5.74
-12.13
-30.06
-42.37
-46.74
-44.73
-39.33
-31.60
-21.08
-6.53
12.97
36.40
63.32
89.69
110.03
121.98
129.06
137.61
153.23
178.55
212.39
254.54
299.73
338.60
361.76
363.15
339.72
291.38
221.97
118.56
-1.98
-106.90
-174.04
-203.17
-205.50
-192.31
-172.33
-147.76
-121.48
-94.18
-72.21
-64.92
-77.56
-108.32
-147.07
-180.01
-195.03
-186.23
-151.56
-99.47
-44.89
-0.30
30.08
49.40
64.25
80.43
100.82
128.92
162.60
194.85
218.00
226.47
217.19
190.04
147.58
87.52
25.45
-17.89
-33.65
-27.66
-11.04
5.07
19.07
31.00
38.90
43.44
44.12
39.98
29.82
14.23
-5.07
-25.88
-47.70
-73.83
-104.13
-137.04
-171.42
-206.58
-240.62
-271.15
-296.08
-315.95
-336.65
-359.73
-382.02
-397.90
-401.36
-386.69
-350.70
-294.34
-200.31
-82.81
25.66
101.34
141.92
157.06
157.46
149.72
137.18
121.17
99.65
75.03
53.10
38.00
29.67
26.11
24.55
23.97
24.31
23.37
22.00
23.43
29.75
40.03
52.51
65.14
77.03
88.48
98.96
110.34
126.13
149.16
174.13
195.53
207.68
207.04
193.29
168.53
137.85
107.30
81.24
60.90
45.93
34.96
27.17
22.33
20.08
19.92
20.85
21.36
19.73
15.41
8.56
0.29
-7.95
-15.00
-20.05
-22.81
-23.41
-22.02
-18.40
-12.58
-4.79
4.33
13.71
22.25
29.00
33.37
35.37
35.65
35.07
34.31
33.69
33.09
31.98
29.54
24.83
17.12
5.84
-9.23
-28.02
-50.07
-74.51
-100.18
-125.69
-149.65
-170.45
-186.52
-196.29
-198.59
-193.12
-180.93
-164.23
-145.83
-128.26
-112.85
-99.60
-87.61
-75.92
-64.21
-53.10
-43.58
-36.26
-30.87
-26.30
-21.15
-14.52
-6.48
2.03
9.78
16.03
21.09
26.09
32.40
40.61
50.15
59.43
66.51
70.08
69.92
67.10
63.40
60.62
59.78
60.95
63.31
65.57
66.37
64.83
60.63
54.22
46.68
39.27
33.06
28.33
24.68
21.10
16.66
10.82
3.64
-4.29
-12.14
-19.19
-24.91
-28.95
-30.98
-30.72
-28.10
-23.37
-17.22
-10.49
-4.05
1.54
6.09
9.68
12.58
14.87
16.58
17.53
17.47
16.25
13.84
10.45
6.33
1.91
-2.43
-6.39
-9.69
-12.13
-13.53
-13.85
-13.06
-11.31
-8.70
-5.38
-1.53
2.74
7.22
11.66
15.66
18.84
20.69
20.92
19.31
15.80
10.73
4.58
-1.84
-7.74
-12.39
-15.44
-16.82
-16.83
-16.18
-15.59
-15.79
-17.07
-19.32
-22.11
-25.00
-27.66
-30.06
-32.30
-34.52
-36.59
-38.17
-38.67
-37.64
-34.87
-30.46
-24.75
-18.17
-11.19
-4.21
2.40
8.72
15.28
23.34
34.51
50.34
71.55
97.55
126.33
154.83
179.59
197.60
206.79
206.26
196.25
177.87
152.79
122.89
90.27
56.90
24.72
-4.66
-29.94
-50.29
-65.32
-75.06
-79.69
-79.31
-74.01
-63.94
-49.61
-31.98
-12.54
7.03
25.04
40.20
51.81
59.70
64.22
65.94
65.55
63.79
61.35
58.90
56.84
55.41
54.58
54.27
54.35
54.76
55.51
56.45
57.26
57.21
55.39
50.93
43.22
31.69
15.79
-5.24
-32.19
-65.30
-103.74
-145.71
-188.82
-230.90
-270.46
-306.44
-337.44
-361.16
-374.40
-374.08
-358.76
-329.48
-289.93
-245.30
-200.75
-160.10
-125.38
-96.80
-73.36
-53.40
-34.85
-15.67
5.47
28.71
52.45
73.66
88.91
95.47
92.62
82.18
67.93
54.39
45.25
42.28
45.09
51.74
59.64
66.61
71.37
73.50
73.20
71.00
67.48
63.36
59.59
57.08
56.56
58.23
61.65
65.80
69.61
72.18
73.26
73.29
73.13
73.68
75.33
77.70
79.71
80.03
77.46
71.63
62.97
52.58
41.86
31.76
22.74
14.68
7.27
0.14
-6.73
-13.21
-19.10
-24.18
-28.47
-32.02
-34.98
-37.45
-39.48
-41.06
-42.10
-42.52
-42.17
-41.03
-38.90
-35.73
-31.47
-26.20
-20.21
-13.93
-7.95
-2.82
0.96
3.27
4.17
3.99
3.32
2.63
2.39
2.96
4.50
7.06
10.57
14.89
19.76
25.03
30.18
34.81
38.49
40.90
42.00
41.97
41.15
39.94
38.84
37.98
37.37
36.84
36.07
34.80
32.97
30.73
28.41
26.45
25.06
24.15
23.40
22.32
20.57
18.04
14.83
11.22
7.43
3.67
0.03
-3.42
-6.77
-10.06
-13.38
-16.90
-20.57
-24.30
-27.76
-30.58
-32.39
-32.98
-32.34
-30.60
-28.05
-24.98
-21.73
-18.67
-16.26
-14.72
-14.19
-14.46
-15.11
-15.61
-15.51
-14.61
-13.00
-11.05
-9.20
-7.85
-7.30
-7.58
-8.54
-9.89
-11.15
-11.95
-11.94
-11.14
-9.74
-8.14
-6.67
-5.54
-4.77
-4.09
-3.32
-2.32
-1.34
-0.80
-1.17
-2.66
-5.13
-8.03
-10.48
-11.65
-10.91
-8.14
-3.65
1.92
7.81
13.28
17.79
20.98
22.79
23.31
22.82
21.57
19.84
17.83
15.68
13.41
11.00
8.47
5.83
3.17
0.49
-2.29
-5.18
-8.13
-11.01
-13.63
-15.73
-17.15
-17.80
-17.70
-17.00
-15.94
-14.77
-13.80
-13.32
-13.38
-13.82
-14.25
-14.17
-13.27
-11.44
-8.86
-5.74
-2.46
0.82
3.97
6.89
9.51
11.58
13.00
13.63
13.55
12.82
11.48
9.53
7.06
4.34
1.73
-0.19
-1.13
-1.01
-0.20
0.74
1.24
1.04
0.28
-0.81
-1.93
-3.01
-4.25
-5.93
-8.38
-11.76
-16.06
-20.86
-25.70
-29.85
-32.63
-33.52
-32.20
-28.79
-23.77
-17.87
-11.82
-6.22
-1.51
2.12
4.67
6.30
7.31
8.07
8.93
10.23
12.13
14.59
17.41
20.30
23.11
25.73
28.16
30.35
32.23
33.56
34.05
33.38
31.27
27.73
22.93
17.20
11.04
4.95
-0.57
-5.06
-8.15
-9.71
-9.86
-8.85
-7.16
-5.21
-3.39
-1.91
-0.84
-0.09
0.31
0.30
-0.13
-1.01
-2.29
-4.02
-6.18
-8.78
-11.74
-14.79
-17.52
-19.49
-20.41
-20.23
-19.29
-18.11
-17.22
-16.94
-17.30
-18.14
-19.33
-20.89
-22.98
-25.73
-29.25
-33.38
-37.87
-42.26
-45.96
-48.53
-49.40
-48.24
-44.91
-39.61
-32.81
-25.26
-17.68
-10.59
-4.43
0.68
4.64
7.48
9.28
10.27
10.63
10.62
10.40
10.07
9.73
9.44
9.36
9.65
10.35
11.28
12.16
12.60
12.28
11.19
9.48
7.41
5.32
3.25
1.10
-1.29
-4.09
-7.35
-10.86
-14.38
-17.58
-20.07
-21.45
-21.32
-19.29
-15.28
-9.57
-2.66
4.69
11.75
17.93
22.89
26.51
28.81
29.87
29.76
28.70
26.87
24.66
22.47
20.70
19.58
19.20
19.36
19.78
20.22
20.36
20.12
19.48
18.46
17.04
15.20
12.95
10.38
7.77
5.36
3.39
1.94
0.87
-0.14
-1.52
-3.60
-6.46
-9.87
-13.32
-16.02
-17.25
-16.50
-13.77
-9.54
-4.68
-0.04
3.68
6.12
7.32
7.50
6.99
6.11
5.19
4.52
4.46
5.30
7.02
9.50
12.28
14.80
16.63
17.53
17.59
16.97
15.98
14.88
13.81
12.80
11.84
10.86
9.80
8.65
7.31
5.83
4.31
2.80
1.42
0.14
-1.09
-2.38
-3.78
-5.29
-6.72
-7.89
-8.67
-9.06
-9.34
-9.83
-10.90
-12.79
-15.56
-18.94
-22.41
-25.35
-26.98
-26.77
-24.52
-20.46
-15.14
-9.33
-3.65
1.54
6.09
10.05
13.48
16.29
18.41
19.79
20.50
20.81
21.00
21.31
21.84
22.51
23.03
23.27
23.08
22.57
21.95
21.48
21.33
21.55
22.02
22.50
22.82
22.79
22.33
21.44
20.13
18.42
16.30
13.77
10.85
7.66
4.28
0.88
-2.36
-5.26
-7.81
-10.02
-12.11
-14.23
-16.53
-19.06
-21.75
-24.44
-27.03
-29.57
-32.12
-34.89
-37.86
-40.87
-43.43
-44.93
-44.75
-42.46
-37.88
-31.04
-22.32
-12.24
-1.56
9.03
18.86
27.34
33.96
38.58
41.21
42.12
41.72
40.49
38.93
37.58
36.84
36.93
37.93
39.62
41.65
43.62
45.13
45.87
45.91
45.46
44.87
44.69
45.33
47.03
49.64
52.46
54.34
54.07
50.71
43.93
34.22
22.50
9.90
-2.56
-14.41
-25.46
-35.73
-45.25
-53.80
-60.97
-66.38
-69.79
-71.10
-70.55
-68.49
-65.26
-61.28
-56.93
-52.47
-48.22
-44.52
-41.62
-39.67
-38.52
-37.64
-36.29
-33.60
-28.87
-21.87
-12.99
-3.02
6.89
15.77
23.02
28.47
32.29
34.76
36.24
37.02
37.45
37.80
38.33
39.26
40.64
42.35
44.29
46.30
48.24
50.07
51.57
52.32
51.90
50.07
46.73
42.25
37.14
31.82
26.63
21.59
16.55
11.47
6.41
1.61
-2.64
-6.19
-9.17
-11.86
-14.54
-17.48
-20.51
-23.41
-25.75
-27.28
-28.03
-28.18
-27.96
-27.52
-26.86
-25.91
-24.62
-23.02
-21.29
-19.76
-18.77
-18.45
-18.91
-19.99
-21.43
-22.80
-23.62
-23.43
-22.02
-19.47
-16.05
-12.32
-8.84
-6.06
-4.11
-2.90
-2.22
-1.87
-1.68
-1.68
-1.96
-2.50
-3.22
-3.86
-4.19
-4.01
-3.17
-1.74
0.08
1.99
3.87
5.63
7.26
8.71
9.82
10.42
10.31
9.47
8.02
6.32
4.66
3.25
2.05
0.97
-0.08
-1.14
-2.07
-2.67
-2.82
-2.53
-1.99
-1.44
-1.11
-1.08
-1.38
-1.90
-2.61
-3.45
-4.46
-5.67
-7.05
-8.61
-10.33
-12.33
-14.66
-17.41
-20.48
-23.60
-26.29
-28.12
-28.63
-27.54
-24.84
-20.65
-15.35
-9.52
-3.73
1.48
5.68
8.75
10.75
11.86
12.34
12.42
12.17
11.72
11.11
10.44
9.77
9.16
8.58
8.13
7.82
7.63
7.61
7.69
7.80
7.84
7.74
7.47
7.19
6.88
6.54
6.07
5.41
4.59
3.62
2.55
1.42
0.34
-0.71
-1.70
-2.53
-3.10
-3.26
-2.95
-2.24
-1.39
-0.67
-0.40
-0.76
-1.74
-3.20
-4.84
-6.40
-7.70
-8.78
-9.78
-10.83
-11.93
-12.96
-13.69
-13.66
-12.43
-9.69
-5.40
0.03
5.97
11.71
16.55
19.99
21.89
22.35
21.60
19.99
17.77
15.22
12.62
10.24
8.23
6.68
5.58
4.83
4.33
3.92
3.53
3.07
2.66
2.49
2.88
4.22
6.75
10.40
14.63
18.63
21.45
22.44
21.36
18.57
14.60
10.06
5.29
0.32
-4.95
-10.53
-16.27
-21.83
-26.69
-30.57
-33.33
-35.08
-36.05
-36.42
-36.19
-35.34
-33.81
-31.65
-29.10
-26.47
-24.09
-22.14
-20.67
-19.66
-19.08
-18.89
-19.07
-19.51
-20.06
-20.42
-20.23
-19.17
-17.14
-14.18
-10.60
-6.81
-3.22
-0.13
2.41
4.48
6.30
7.98
9.61
11.18
12.69
14.14
15.63
17.20
18.74
20.10
21.02
21.38
21.16
20.50
19.67
18.79
17.91
16.90
15.60
13.92
11.85
9.45
6.80
3.97
1.02
-1.87
-4.40
-6.16
-6.61
-5.61
-3.37
-0.51
2.13
3.82
4.25
3.52
2.09
0.55
-0.73
-1.55
-1.99
-2.15
-2.23
-2.40
-2.88
-3.98
-5.90
-8.64
-11.88
-15.11
-17.72
-19.29
-19.72
-19.15
-17.98
-16.56
-15.19
-14.00
-13.05
-12.40
-12.06
-12.04
-12.43
-13.16
-14.01
-14.65
-14.61
-13.55
-11.39
-8.43
-5.20
-2.18
0.34
2.45
4.37
6.31
8.31
10.15
11.55
12.30
12.48
12.26
11.89
11.46
11.01
10.53
10.03
9.61
9.47
9.77
10.58
11.80
13.15
14.32
15.02
15.13
14.64
13.60
12.14
10.35
8.26
5.88
3.12
-0.08
-3.74
-7.76
-12.02
-16.25
-20.04
-22.91
-24.51
-24.63
-23.30
-20.70
-17.18
-13.11
-8.91
-4.97
-1.57
1.11
3.03
4.26
4.96
5.23
5.21
5.03
4.75
4.50
4.38
4.44
4.64
4.94
5.17
5.28
5.29
5.13
4.85
4.45
3.91
3.18
2.32
1.39
0.50
-0.19
-0.60
-0.72
-0.59
-0.33
-0.10
0.02
0.05
0.01
-0.15
-0.52
-1.32
-2.79
-4.99
-7.87
-11.17
-14.55
-17.71
-20.44
-22.61
-24.21
-25.26
-25.84
-25.99
-25.84
-25.45
-24.75
-23.54
-21.57
-18.62
-14.66
-9.88
-4.61
0.62
5.38
9.30
12.31
14.51
16.04
17.03
17.57
17.62
17.12
16.12
14.77
13.41
12.37
11.79
11.70
11.99
12.42
12.88
13.33
13.81
14.30
14.74
14.98
14.84
14.31
13.45
12.44
11.52
10.84
10.46
10.34
10.31
10.20
9.85
9.17
8.12
6.71
4.98
2.96
0.75
-1.62
-4.07
-6.56
-9.05
-11.43
-13.55
-15.24
-16.40
-17.00
-17.15
-17.06
-17.00
-17.25
-18.04
-19.41
-21.28
-23.34
-25.13
-26.14
-25.76
-23.69
-19.97
-15.13
-9.92
-5.12
-1.22
1.75
4.02
6.06
8.13
10.24
12.18
13.67
14.59
15.09
15.39
15.59
15.73
15.76
15.59
15.33
15.05
14.90
14.99
15.33
15.66
15.75
15.41
14.59
13.47
12.22
11.09
10.26
9.86
9.82
9.98
10.04
9.78
9.09
7.88
6.27
4.40
2.43
0.53
-1.20
-2.79
-4.29
-5.61
-6.74
-7.66
-8.32
-8.84
-9.25
-9.54
-9.69
-9.70
-9.53
-9.22
-8.95
-8.86
-9.05
-9.48
-9.96
-10.14
-9.85
-8.94
-7.43
-5.40
-2.91
-0.09
2.90
5.85
8.56
10.87
12.82
14.61
16.58
19.07
22.22
25.84
29.70
33.37
36.46
38.60
39.34
38.29
35.23
30.28
23.81
16.59
9.32
2.57
-3.28
-8.17
-12.22
-15.49
-18.08
-20.08
-21.52
-22.62
-23.42
-23.95
-24.23
-24.34
-24.38
-24.51
-24.87
-25.40
-26.10
-26.65
-26.76
-26.35
-25.42
-24.17
-22.91
-21.84
-20.99
-20.39
-19.99
-19.72
-19.66
-19.86
-20.36
-21.14
-22.01
-22.80
-23.35
-23.51
-23.21
-22.32
-20.63
-18.12
-14.89
-11.18
-7.42
-4.00
-1.06
1.34
3.32
5.15
6.89
8.51
9.99
11.33
12.63
14.09
15.81
17.69
19.61
21.37
22.82
23.93
24.78
25.41
25.75
25.61
24.81
23.38
21.53
19.68
18.20
17.34
17.17
17.62
18.44
19.46
20.48
21.31
21.89
22.19
22.22
21.99
21.56
20.82
19.67
17.99
15.67
12.76
9.46
6.00
2.65
-0.32
-2.82
-4.82
-6.39
-7.73
-9.06
-10.52
-12.13
-13.70
-14.94
-15.53
-15.32
-14.25
-12.53
-10.41
-8.28
-6.42
-5.00
-4.13
-3.80
-3.91
-4.33
-5.03
-5.88
-6.86
-7.83
-8.61
-9.00
-8.87
-8.18
-7.07
-5.66
-4.01
-2.17
-0.17
1.88
3.79
5.32
6.40
7.01
7.38
7.84
8.62
9.77
11.31
13.04
14.85
16.60
18.22
19.65
20.84
21.75
22.23
22.22
21.51
19.97
17.47
14.08
9.95
5.38
0.72
-3.76
-7.79
-11.18
-13.79
-15.68
-16.96
-17.82
-18.35
-18.60
-18.48
-17.80
-16.46
-14.47
-12.07
-9.53
-7.09
-4.91
-2.99
-1.33
0.19
1.58
2.77
3.69
4.23
4.36
4.10
3.62
3.02
2.50
2.25
2.34
2.92
3.92
5.20
6.54
7.77
8.69
9.20
9.28
9.01
8.58
8.15
7.85
7.69
7.65
7.51
7.16
6.65
6.11
5.87
6.10
6.82
7.84
8.81
9.24
8.74
7.10
4.16
0.02
-5.05
-10.68
-16.37
-21.64
-26.24
-30.10
-33.33
-36.15
-38.68
-40.88
-42.59
-43.52
-43.44
-42.19
-39.73
-36.13
-31.64
-26.50
-21.09
-15.77
-10.75
-6.20
-2.11
1.48
4.52
6.95
8.78
10.09
11.08
12.01
13.09
14.40
15.87
17.26
18.37
19.12
19.55
19.87
20.22
20.65
21.07
21.17
20.62
19.20
16.98
14.19
11.26
8.54
6.25
4.44
2.94
1.56
0.19
-1.22
-2.58
-3.74
-4.60
-5.10
-5.20
-5.08
-4.93
-5.03
-5.68
-7.14
-9.44
-12.55
-16.17
-19.86
-23.26
-26.02
-28.03
-29.39
-30.23
-30.71
-30.95
-30.87
-30.27
-28.97
-26.75
-23.61
-19.78
-15.45
-10.90
-6.42
-2.25
1.49
4.80
7.86
10.86
13.96
17.22
20.55
23.68
26.21
27.92
28.62
28.44
27.55
26.16
24.44
22.53
20.59
18.80
17.38
16.49
16.23
16.50
17.18
18.08
19.11
20.20
21.37
22.51
23.37
23.70
23.24
21.85
19.58
16.56
13.06
9.36
5.70
2.29
-0.62
-2.87
-4.44
-5.42
-6.15
-7.00
-8.32
-10.31
-12.90
-15.81
-18.71
-21.34
-23.66
-25.77
-27.84
-29.95
-32.16
-34.40
-36.47
-38.03
-38.58
-37.66
-34.90
-30.28
-24.09
-17.00
-9.78
-3.10
2.65
7.37
11.04
13.67
15.26
15.88
15.68
14.99
14.21
13.65
13.53
13.83
14.46
15.32
16.39
17.71
19.26
20.97
22.53
23.67
24.08
23.65
22.43
20.67
18.75
16.92
15.35
13.97
12.77
11.71
10.81
10.25
10.15
10.66
11.74
13.19
14.60
15.44
15.11
13.03
9.00
3.14
-3.97
-11.50
-18.52
-24.36
-28.72
-31.71
-33.75
-35.36
-36.97
-38.69
-40.30
-41.37
-41.43
-40.18
-37.51
-33.69
-29.02
-23.92
-18.65
-13.35
-8.20
-3.40
0.80
4.08
6.31
7.57
8.15
8.40
8.67
9.08
9.59
10.11
10.56
11.03
11.69
12.66
13.93
15.28
16.42
17.12
17.23
16.86
16.20
15.52
14.93
14.46
14.00
13.38
12.51
11.37
10.06
8.72
7.50
6.35
5.25
4.11
2.88
1.55
0.18
-1.14
-2.34
-3.34
-4.13
-4.76
-5.45
-6.45
-7.92
-9.82
-11.87
-13.64
-14.64
-14.57
-13.35
-11.12
-8.18
-4.87
-1.47
1.83
4.79
7.36
9.42
10.93
11.85
12.13
11.76
10.78
9.35
7.61
5.92
4.60
3.95
4.06
4.77
5.63
6.17
6.06
5.30
4.26
3.41
3.20
3.75
4.79
5.81
6.35
6.18
5.41
4.38
3.46
2.85
2.67
2.72
2.78
2.63
2.17
1.35
0.19
-1.34
-3.30
-5.64
-8.35
-11.29
-14.36
-17.40
-20.31
-23.02
-25.56
-28.01
-30.46
-32.95
-35.46
-37.82
-39.70
-40.72
-40.51
-38.80
-35.61
-31.17
-25.87
-20.29
-14.89
-9.98
-5.59
-1.56
2.38
6.36
10.33
14.03
17.02
18.96
19.79
19.77
19.24
18.56
17.94
17.34
16.81
16.39
16.18
16.35
16.89
17.59
18.11
18.24
17.81
17.10
16.41
16.05
16.15
16.55
16.97
17.06
16.65
15.62
14.11
12.21
9.96
7.35
4.29
0.86
-2.77
-6.27
-9.47
-12.09
-14.12
-15.68
-16.86
-17.87
-18.84
-19.72
-20.43
-20.90
-20.89
-20.25
-18.95
-16.91
-14.17
-10.86
-7.19
-3.46
-0.13
2.50
4.31
5.38
6.05
6.72
7.76
9.45
11.86
14.93
18.51
22.30
25.90
28.86
30.77
31.39
30.80
29.21
26.96
24.40
21.73
19.03
16.29
13.52
10.73
8.09
5.77
3.85
2.40
1.33
0.52
-0.24
-0.96
-1.67
-2.25
-2.57
-2.64
-2.60
-2.68
-3.03
-3.87
-5.14
-6.77
-8.61
-10.45
-12.11
-13.53
-14.71
-15.63
-16.47
-17.34
-18.39
-19.80
-21.57
-23.64
-25.81
-27.74
-29.01
-29.21
-28.03
-25.32
-21.22
-15.97
-10.13
-4.28
1.07
5.53
8.94
11.37
12.98
13.87
14.29
14.26
13.85
13.21
12.51
11.87
11.50
11.49
11.72
12.18
12.67
13.06
13.30
13.34
13.16
12.77
12.15
11.26
10.14
8.84
7.47
6.12
4.81
3.62
2.60
1.82
1.29
0.98
0.84
0.83
0.95
1.12
1.34
1.55
1.66
1.55
1.16
0.48
-0.44
-1.53
-2.75
-4.10
-5.63
-7.39
-9.40
-11.68
-14.20
-16.91
-19.66
-22.18
-24.13
-25.13
-24.82
-23.06
-19.87
-15.52
-10.43
-5.10
0.04
4.62
8.39
11.30
13.31
14.53
15.17
15.47
15.64
15.85
16.14
16.45
16.63
16.44
15.77
14.65
13.25
11.87
10.84
10.26
10.10
10.05
9.69
8.78
7.20
5.06
2.65
0.23
-2.02
-4.12
-6.01
-7.74
-9.19
-10.25
-10.97
-11.37
-11.65
-11.99
-12.51
-13.29
-14.34
-15.60
-17.01
-18.59
-20.15
-21.62
-22.86
-23.79
-24.46
-25.04
-25.68
-26.49
-27.48
-28.41
-28.95
-28.68
-27.27
-24.57
-20.75
-16.17
-11.30
-6.71
-2.57
0.99
4.14
7.13
10.15
13.25
16.24
18.84
20.73
21.88
22.23
21.96
21.36
20.67
20.10
19.79
19.82
20.13
20.68
21.25
21.65
21.70
21.24
20.20
18.60
16.60
14.35
12.05
9.81
7.72
5.94
4.47
3.28
2.25
1.27
0.16
-1.12
-2.62
-4.27
-5.93
-7.57
-9.13
-10.62
-11.99
-13.23
-14.41
-15.73
-17.45
-19.75
-22.65
-25.96
-29.26
-32.01
-33.65
-33.75
-32.10
-28.72
-23.85
-17.90
-11.48
-5.18
0.47
5.16
8.83
11.61
13.76
15.55
17.13
18.62
20.00
21.19
22.21
23.06
23.84
24.57
25.23
25.70
25.89
25.74
25.25
24.47
23.39
21.95
20.02
17.57
14.75
11.93
9.60
8.11
7.57
7.74
8.17
8.32
7.80
6.51
4.64
2.52
0.67
-0.23
0.37
2.84
6.96
11.85
16.37
19.42
20.33
19.19
16.62
13.31
9.65
5.55
0.60
-5.37
-12.09
-18.88
-24.79
-29.18
-31.90
-33.24
-33.64
-33.43
-32.75
-31.44
-29.42
-26.65
-23.37
-19.95
-16.64
-13.60
-10.91
-8.61
-6.57
-4.66
-2.73
-0.58
1.80
4.47
7.25
9.92
12.32
14.47
16.47
18.49
20.59
22.61
24.31
25.23
25.10
23.79
21.50
18.51
15.26
12.26
9.62
7.43
5.38
3.25
0.85
-1.73
-4.39
-6.87
-8.93
-10.65
-12.10
-13.45
-14.69
-15.71
-16.35
-16.52
-16.24
-15.72
-15.30
-15.19
-15.52
-16.30
-17.53
-19.26
-21.50
-24.25
-27.30
-30.34
-32.66
-33.60
-32.67
-29.66
-24.90
-18.95
-12.55
-6.36
-0.94
3.63
7.36
10.38
12.88
14.93
16.66
18.15
19.43
20.43
21.03
21.00
20.24
18.88
17.12
15.34
13.85
12.84
12.32
12.18
12.17
12.13
12.13
12.08
12.03
11.92
11.72
11.33
10.73
9.85
8.78
7.67
6.56
5.46
4.27
2.90
1.34
-0.30
-1.91
-3.32
-4.42
-5.27
-5.90
-6.45
-7.11
-8.01
-9.26
-10.95
-13.06
-15.36
-17.59
-19.28
-20.03
-19.48
-17.48
-14.06
-9.41
-3.99
1.77
7.34
12.33
16.39
19.27
20.84
21.06
20.16
18.41
16.20
13.87
11.73
9.78
7.92
6.02
3.91
1.61
-0.74
-2.87
-4.50
-5.33
-5.28
-4.48
-3.11
-1.55
-0.16
0.68
0.80
0.20
-0.95
-2.39
-3.83
-5.02
-5.91
-6.60
-7.30
-8.23
-9.50
-11.22
-13.34
-15.75
-18.17
-20.38
-22.15
-23.42
-24.33
-25.15
-26.27
-28.05
-30.51
-33.44
-36.31
-38.34
-38.84
-37.30
-33.49
-27.66
-20.41
-12.46
-4.63
2.44
8.40
13.12
16.60
18.93
20.23
20.68
20.54
20.03
19.42
18.90
18.47
18.09
17.67
17.22
16.96
17.12
17.76
18.84
20.07
21.01
21.40
21.17
20.48
19.75
19.24
18.96
18.78
18.43
17.71
16.61
15.27
13.79
12.25
10.51
8.53
6.34
4.15
2.19
0.67
-0.45
-1.32
-2.19
-3.21
-4.41
-5.69
-6.97
-8.30
-9.67
-11.18
-12.68
-13.89
-14.38
-13.82
-12.02
-9.20
-5.78
-2.25
0.91
3.50
5.54
7.24
8.73
10.01
10.95
11.32
11.05
10.16
8.85
7.42
6.15
5.37
5.21
5.81
7.11
9.04
11.33
13.66
15.69
17.18
18.06
18.42
18.41
18.12
17.52
16.48
14.90
12.74
10.00
6.71
2.94
-1.21
-5.62
-10.12
-14.51
-18.56
-22.06
-25.05
-27.49
-29.42
-30.85
-31.81
-32.46
-33.01
-33.68
-34.57
-35.73
-36.89
-37.63
-37.54
-36.23
-33.57
-29.67
-24.76
-19.18
-13.25
-7.16
-1.09
4.76
10.24
15.06
18.90
21.55
22.86
22.94
22.11
20.78
19.25
17.77
16.39
15.07
13.79
12.50
11.21
9.93
8.69
7.47
6.33
5.26
4.24
3.25
2.10
0.65
-1.26
-3.65
-6.41
-9.24
-11.81
-13.78
-14.85
-15.10
-14.72
-14.10
-13.78
-14.27
-15.96
-19.09
-23.50
-28.57
-33.36
-36.73
-37.72
-35.97
-31.58
-25.18
-17.74
-10.20
-3.31
2.58
7.37
11.20
14.12
16.31
17.87
18.91
19.58
19.98
20.20
20.34
20.49
20.59
20.67
20.67
20.44
19.83
18.71
17.05
15.03
12.95
11.12
9.75
8.98
8.68
8.85
9.34
10.06
10.88
11.59
11.86
11.35
9.95
7.72
5.09
2.51
0.32
-1.26
-2.16
-2.36
-1.84
-0.50
1.57
4.31
7.47
10.64
13.60
16.25
18.74
21.33
24.32
27.78
31.71
35.83
39.71
42.92
45.01
45.66
44.69
42.07
37.87
32.28
25.68
18.44
11.09
4.17
-1.94
-6.96
-10.89
-13.95
-16.48
-18.79
-21.21
-23.78
-26.38
-28.89
-31.05
-32.86
-34.51
-36.25
-38.20
-40.18
-41.58
-41.61
-39.59
-35.29
-29.01
-21.70
-14.38
-7.90
-2.70
1.26
4.35
6.91
9.16
11.10
12.61
13.75
14.67
15.64
16.85
18.34
19.80
20.91
21.40
21.20
20.56
19.77
18.92
17.84
16.05
12.91
7.97
1.04
-7.74
-17.90
-28.69
-39.35
-49.00
-57.08
-63.37
-67.97
-71.41
-74.28
-76.95
-79.36
-80.98
-81.01
-78.79
-73.94
-66.56
-57.24
-46.79
-36.06
-25.73
-16.24
-7.76
-0.42
5.70
10.54
14.02
16.23
17.35
17.64
17.36
16.74
15.84
14.67
13.17
11.27
9.07
6.75
4.47
2.48
0.87
-0.34
-1.19
-1.74
-2.03
-2.04
-1.74
-1.23
-0.62
-0.21
-0.44
-1.69
-4.20
-8.03
-12.95
-18.58
-24.47
-29.98
-34.49
-37.33
-37.83
-35.59
-30.51
-23.01
-14.02
-4.69
3.97
11.39
17.43
22.41
26.69
30.57
34.15
37.24
39.65
41.29
42.26
42.74
43.00
43.20
43.46
43.81
44.27
44.79
45.25
45.45
45.04
43.77
41.45
38.18
34.30
30.29
26.64
23.67
21.38
19.64
18.23
16.93
15.58
14.17
12.70
11.16
9.58
7.81
5.76
3.33
0.37
-3.27
-7.59
-12.47
-17.66
-22.77
-27.40
-31.27
-34.31
-36.72
-38.87
-41.08
-43.51
-45.92
-47.70
-48.01
-46.02
-41.24
-33.70
-23.94
-12.78
-1.27
9.66
19.32
27.33
33.61
38.37
41.82
44.27
45.95
46.97
47.43
47.48
47.22
46.80
46.31
45.77
45.23
44.82
44.59
44.63
44.90
45.14
45.06
44.37
42.93
40.78
38.14
35.18
32.00
28.60
24.93
21.01
16.97
13.08
9.65
6.82
4.50
2.43
0.23
-2.38
-5.45
-8.84
-12.25
-15.36
-18.04
-20.31
-22.24
-23.96
-25.55
-27.02
-28.36
-29.58
-30.66
-31.64
-32.55
-33.57
-34.91
-36.78
-39.29
-42.34
-45.57
-48.35
-49.88
-49.44
-46.58
-41.34
-34.17
-25.88
-17.31
-9.19
-1.95
4.21
9.28
13.33
16.40
18.51
19.73
20.27
20.36
20.29
20.25
20.35
20.57
20.88
21.10
21.11
20.95
20.64
20.32
20.06
20.04
20.30
20.81
21.55
22.36
23.02
23.26
22.86
21.62
19.65
17.19
14.61
12.33
10.63
9.51
8.75
8.06
7.23
6.11
4.70
3.00
1.07
-1.05
-3.35
-5.83
-8.40
-10.91
-13.32
-15.44
-17.28
-18.68
-19.63
-20.15
-20.39
-20.66
-21.33
-22.71
-24.85
-27.54
-30.11
-31.83
-31.83
-29.56
-24.96
-18.46
-10.89
-3.27
3.59
9.19
13.41
16.46
18.62
19.93
20.37
19.84
18.38
16.30
14.12
12.31
11.13
10.56
10.30
10.11
9.85
9.56
9.42
9.56
9.97
10.51
10.97
11.15
11.05
10.63
9.96
9.13
8.22
7.25
6.21
5.07
3.72
2.16
0.43
-1.36
-2.99
-4.29
-5.29
-6.16
-7.10
-8.41
-10.13
-12.23
-14.56
-16.91
-19.22
-21.53
-23.98
-26.65
-29.53
-32.35
-34.80
-36.45
-36.84
-35.67
-32.73
-28.10
-22.04
-15.13
-7.98
-1.30
4.28
8.54
11.52
13.58
15.05
16.20
16.94
17.27
17.07
16.40
15.51
14.62
13.96
13.57
13.45
13.52
13.82
14.45
15.43
16.74
18.17
19.48
20.41
20.69
20.15
18.70
16.37
13.24
9.56
5.52
1.44
-2.35
-5.54
-7.97
-9.68
-10.79
-11.67
-12.48
-13.53
-14.88
-16.53
-18.41
-20.44
-22.57
-24.58
-26.34
-27.63
-28.41
-28.81
-29.12
-29.69
-30.74
-32.24
-33.65
-34.18
-32.97
-29.44
-23.55
-15.90
-7.59
0.21
6.50
10.83
13.22
14.15
14.17
13.80
13.35
12.91
12.56
12.36
12.39
12.70
13.27
13.94
14.46
14.70
14.60
14.34
14.15
14.25
14.70
15.40
16.12
16.59
16.67
16.29
15.55
14.62
13.66
12.81
12.10
11.53
10.93
10.11
8.86
7.01
4.64
1.86
-1.01
-3.80
-6.32
-8.56
-10.56
-12.43
-14.28
-16.11
-17.97
-19.80
-21.65
-23.51
-25.41
-27.32
-29.22
-31.11
-33.04
-35.02
-36.90
-38.36
-38.82
-37.62
-34.29
-28.71
-21.33
-12.95
-4.58
3.01
9.39
14.41
18.29
21.16
23.17
24.28
24.59
24.27
23.67
23.25
23.30
23.92
24.83
25.72
26.19
26.04
25.22
23.84
22.16
20.46
19.05
18.05
17.53
17.34
17.15
16.66
15.67
14.20
12.37
10.39
8.34
6.27
4.20
2.12
0.21
-1.33
-2.32
-2.80
-2.97
-3.09
-3.37
-3.89
-4.65
-5.54
-6.57
-7.75
-9.24
-11.21
-13.72
-16.77
-20.16
-23.68
-26.98
-29.84
-31.99
-33.22
-33.33
-32.16
-29.67
-25.90
-21.20
-15.92
-10.56
-5.53
-1.05
2.81
6.01
8.55
10.42
11.54
11.94
11.77
11.24
10.63
10.22
10.09
10.23
10.61
11.14
11.78
12.49
13.21
13.80
14.12
14.07
13.50
12.45
10.98
9.17
7.17
5.05
2.92
0.82
-1.21
-3.18
-5.09
-6.98
-8.82
-10.52
-11.96
-12.97
-13.51
-13.73
-13.89
-14.32
-15.31
-16.96
-19.16
-21.69
-24.19
-26.19
-27.21
-26.85
-24.79
-21.01
-15.81
-9.70
-3.39
2.41
7.29
11.06
13.71
15.36
16.10
15.96
15.06
13.59
11.76
9.92
8.36
7.29
6.85
7.06
7.92
9.32
11.09
12.93
14.48
15.33
15.30
14.42
12.96
11.30
9.72
8.36
7.13
5.90
4.50
2.95
1.39
-0.03
-1.22
-2.24
-3.19
-4.33
-5.76
-7.54
-9.63
-11.81
-13.92
-15.81
-17.45
-18.94
-20.45
-22.12
-23.94
-25.88
-27.74
-29.33
-30.33
-30.30
-28.67
-24.99
-19.10
-11.30
-2.58
5.80
12.58
16.97
18.88
18.87
17.77
16.24
14.74
13.30
11.95
10.68
9.59
8.87
8.60
8.73
9.04
9.34
9.47
9.45
9.36
9.24
9.10
8.86
8.36
7.52
6.33
4.87
3.38
2.10
1.21
0.72
0.51
0.31
-0.09
-0.84
-1.93
-3.17
-4.31
-5.19
-5.77
-6.21
-6.69
-7.37
-8.32
-9.49
-10.77
-12.10
-13.53
-15.19
-17.25
-19.85
-23.05
-26.73
-30.72
-34.65
-38.00
-40.14
-40.29
-37.86
-32.61
-24.87
-15.35
-5.16
4.54
12.77
18.94
22.88
24.77
24.94
23.71
21.46
18.48
15.15
11.87
9.00
6.81
5.43
4.82
4.86
5.40
6.30
7.45
8.67
9.74
10.49
10.82
10.76
10.42
9.88
9.12
7.99
6.36
4.13
1.43
-1.50
-4.29
-6.68
-8.65
-10.43
-12.44
-15.07
-18.65
-23.22
-28.59
-34.19
-39.31
-43.13
-44.99
-44.56
-41.87
-37.41
-31.96
-26.43
-21.52
-17.66
-14.83
-12.66
-10.55
-7.89
-4.22
0.54
6.22
12.41
18.58
24.28
29.18
33.08
35.96
37.92
38.96
39.19
38.66
37.45
35.73
33.74
31.64
29.66
27.89
26.31
24.87
23.46
21.90
20.18
18.30
16.26
14.15
12.05
9.96
7.93
5.97
3.98
1.94
-0.20
-2.43
-4.66
-6.75
-8.65
-10.23
-11.43
-12.28
-12.71
-12.77
-12.48
-11.91
-11.21
-10.56
-10.01
-9.58
-9.32
-9.19
-9.36
-10.05
-11.45
-13.70
-16.75
-20.22
-23.58
-26.18
-27.33
-26.69
-24.19
-20.11
-15.03
-9.59
-4.44
0.03
3.64
6.56
8.96
10.97
12.65
13.95
14.96
15.81
16.77
18.04
19.76
21.78
23.85
25.72
27.10
27.89
28.04
27.52
26.37
24.66
22.49
20.02
17.44
14.81
12.22
9.77
7.55
5.62
3.94
2.46
1.06
-0.39
-2.04
-3.93
-6.14
-8.65
-11.46
-14.51
-17.59
-20.45
-22.84
-24.69
-26.04
-27.20
-28.44
-30.02
-31.99
-34.23
-36.40
-38.00
-38.53
-37.47
-34.54
-29.70
-23.26
-15.84
-8.21
-1.09
5.06
10.14
14.28
17.79
20.90
23.73
26.20
28.25
29.68
30.47
30.70
30.42
29.72
28.66
27.32
25.82
24.31
22.95
21.94
21.33
21.16
21.29
21.43
21.35
20.88
20.00
18.82
17.60
16.48
15.54
14.74
13.90
12.98
11.97
10.92
9.89
8.97
8.10
7.09
5.74
3.84
1.29
-1.82
-5.27
-8.75
-11.97
-14.84
-17.39
-19.81
-22.39
-25.30
-28.72
-32.64
-36.83
-40.82
-43.96
-45.43
-44.66
-41.52
-36.27
-29.66
-22.54
-15.64
-9.45
-4.17
0.33
4.12
7.23
9.69
11.42
12.47
13.03
13.33
13.61
14.10
14.79
15.66
16.65
17.70
18.85
20.11
21.38
22.55
23.38
23.68
23.33
22.32
20.67
18.46
15.91
13.16
10.53
8.26
6.42
4.91
3.52
1.93
0.04
-1.92
-3.67
-4.75
-4.97
-4.39
-3.35
-2.27
-1.67
-1.78
-2.62
-4.11
-5.96
-7.96
-9.98
-11.94
-13.86
-15.85
-18.03
-20.39
-22.83
-24.96
-26.28
-26.28
-24.67
-21.38
-16.74
-11.33
-5.73
-0.50
4.08
7.97
11.11
13.56
15.24
16.21
16.49
16.35
16.10
16.08
16.52
17.38
18.50
19.53
20.21
20.38
20.03
19.30
18.43
17.63
16.97
16.43
15.74
14.58
12.68
10.01
6.77
3.44
0.54
-1.67
-3.01
-3.69
-4.15
-4.80
-5.89
-7.49
-9.46
-11.55
-13.71
-15.91
-18.25
-20.93
-24.05
-27.60
-31.45
-35.40
-39.12
-42.24
-44.30
-44.75
-43.12
-39.16
-33.09
-25.55
-17.43
-9.72
-3.15
1.94
5.57
8.03
9.80
11.11
12.06
12.66
12.96
13.01
13.09
13.39
14.01
15.09
16.51
18.09
19.66
21.08
22.16
22.72
22.69
21.97
20.63
18.78
16.63
14.40
12.24
10.31
8.67
7.27
6.06
4.91
3.73
2.49
1.30
0.16
-0.91
-1.99
-3.19
-4.70
-6.56
-8.78
-11.26
-13.83
-16.47
-19.26
-22.31
-25.73
-29.53
-33.57
-37.55
-41.14
-43.79
-44.89
-43.89
-40.46
-34.65
-26.93
-18.21
-9.47
-1.56
5.15
10.59
14.98
18.58
21.47
23.66
25.15
25.87
25.90
25.48
24.90
24.47
24.39
24.76
25.49
26.49
27.53
28.44
29.16
29.70
30.08
30.28
30.21
29.68
28.60
26.90
24.66
22.09
19.45
16.91
14.59
12.45
10.39
8.33
6.17
3.90
1.52
-0.95
-3.56
-6.28
-9.15
-12.15
-15.19
-18.11
-20.81
-23.15
-25.15
-26.90
-28.51
-30.21
-32.29
-34.92
-38.21
-42.01
-45.79
-48.81
-50.14
-49.02
-45.20
-39.03
-31.21
-22.83
-14.79
-7.64
-1.55
3.65
8.14
12.08
15.54
18.59
21.26
23.60
25.69
27.47
28.88
29.72
29.94
29.63
28.96
28.02
26.85
25.45
23.59
21.26
18.43
15.25
12.12
9.37
7.21
5.75
4.92
4.46
4.20
3.92
3.54
3.06
2.55
2.01
1.49
0.85
-0.01
-1.14
-2.49
-3.92
-5.38
-6.87
-8.54
-10.58
-13.16
-16.25
-19.53
-22.58
-24.84
-25.83
-25.19
-22.70
-18.42
-12.69
-6.01
1.04
7.85
14.05
19.44
24.13
28.25
31.87
34.95
37.36
38.93
39.57
39.41
38.60
37.35
35.83
34.15
32.40
30.69
29.06
27.60
26.35
25.22
24.06
22.61
20.60
17.93
14.56
10.60
6.37
2.21
-1.71
-5.28
-8.57
-11.78
-14.97
-18.25
-21.55
-24.74
-27.68
-30.41
-33.04
-35.81
-39.10
-43.11
-48.05
-53.85
-60.17
-66.40
-71.79
-75.36
-76.34
-74.30
-69.17
-61.43
-51.93
-41.54
-31.22
-21.67
-13.35
-6.39
-0.88
3.41
6.76
9.39
11.63
13.63
15.59
17.56
19.60
21.65
23.68
25.63
27.35
28.78
29.75
30.35
30.48
30.12
29.18
27.63
25.51
22.95
20.27
17.72
15.54
13.72
12.12
10.51
8.80
6.99
5.19
3.65
2.43
1.44
0.46
-0.81
-2.63
-5.16
-8.43
-12.35
-16.72
-21.31
-25.90
-30.25
-34.24
-37.72
-40.78
-43.39
-45.48
-46.83
-47.11
-45.93
-42.96
-38.07
-31.42
-23.47
-14.87
-6.36
1.46
8.20
13.73
18.11
21.53
24.15
26.13
27.63
28.78
29.66
30.40
31.03
31.45
31.53
31.21
30.58
29.87
29.40
29.31
29.71
30.47
31.28
31.87
32.01
31.54
30.43
28.69
26.43
23.75
20.88
17.91
14.93
11.97
9.05
6.25
3.60
1.19
-1.03
-3.09
-5.11
-7.13
-9.28
-11.58
-14.00
-16.45
-18.77
-20.82
-22.47
-23.75
-24.74
-25.79
-27.24
-29.33
-32.09
-35.22
-38.08
-39.80
-39.50
-36.60
-30.92
-22.91
-13.37
-3.36
6.07
14.17
20.58
25.25
28.32
30.22
31.32
32.01
32.62
33.36
34.22
35.13
35.89
36.21
35.98
35.16
33.76
31.89
29.77
27.62
25.74
24.32
23.39
22.88
22.52
22.10
21.50
20.78
20.07
19.51
19.08
18.50
17.45
15.56
12.66
8.90
4.57
0.08
-4.18
-8.03
-11.52
-14.76
-18.01
-21.35
-24.84
-28.47
-32.11
-35.61
-38.92
-41.93
-44.55
-46.65
-47.96
-48.23
-47.29
-45.18
-42.01
-38.18
-33.96
-29.52
-24.81
-19.68
-13.94
-7.65
-1.11
5.17
10.61
14.79
17.64
19.42
20.61
21.66
22.84
24.06
24.93
25.09
24.20
22.16
19.11
15.46
11.60
7.87
4.59
1.81
-0.43
-2.29
-4.03
-5.95
-8.22
-10.93
-14.05
-17.33
-20.50
-23.31
-25.65
-27.56
-29.28
-31.08
-33.24
-35.99
-39.37
-43.22
-47.08
-50.29
-52.01
-51.61
-48.70
-43.54
-36.74
-29.18
-21.81
-15.16
-9.43
-4.50
-0.16
3.74
7.12
9.91
12.03
13.52
14.54
15.38
16.18
17.02
17.88
18.68
19.44
20.21
21.01
21.84
22.59
22.95
22.57
21.25
18.90
15.77
12.35
9.12
6.53
4.71
3.47
2.42
1.18
-0.53
-2.77
-5.36
-8.15
-10.92
-13.54
-15.90
-18.00
-19.89
-21.76
-23.86
-26.37
-29.24
-32.07
-34.13
-34.55
-32.80
-28.77
-23.02
-16.36
-9.68
-3.56
1.75
6.36
10.46
14.20
17.63
20.67
23.31
25.52
27.31
28.71
29.70
30.32
30.63
30.74
30.75
30.69
30.57
30.26
29.67
28.67
27.10
24.97
22.31
19.27
16.05
12.92
10.12
7.86
6.14
4.88
3.94
3.27
2.82
2.65
2.76
2.99
3.14
2.82
1.72
-0.30
-3.13
-6.47
-9.89
-13.09
-15.91
-18.37
-20.70
-23.16
-25.97
-29.26
-32.97
-36.77
-40.06
-42.03
-41.92
-39.29
-34.15
-27.09
-19.04
-11.10
-3.96
2.02
6.82
10.71
13.89
16.50
18.65
20.36
21.63
22.61
23.37
23.96
24.50
24.96
25.35
25.69
25.90
25.94
25.77
25.33
24.56
23.51
22.19
20.65
18.98
17.26
15.57
14.01
12.62
11.36
10.23
9.14
8.03
6.84
5.50
3.97
2.23
0.23
-2.12
-4.76
-7.67
-10.71
-13.77
-16.77
-19.59
-22.16
-24.47
-26.56
-28.52
-30.48
-32.49
-34.43
-36.02
-36.59
-35.51
-32.36
-27.10
-20.19
-12.41
-4.64
2.39
8.25
12.87
16.26
18.57
19.89
20.23
19.71
18.49
16.90
15.34
14.18
13.55
13.46
13.67
13.85
13.78
13.39
12.82
12.31
12.03
11.98
12.06
12.01
11.60
10.78
9.61
8.23
6.80
5.35
3.77
1.92
-0.43
-3.32
-6.60
-10.02
-13.25
-16.02
-18.25
-19.95
-21.20
-22.18
-23.11
-24.30
-26.09
-28.65
-31.80
-35.01
-37.34
-37.82
-35.88
-31.42
-24.97
-17.42
-9.66
-2.44
3.76
8.71
12.38
14.73
15.93
16.21
15.81
15.13
14.50
14.14
14.26
14.90
16.03
17.56
19.39
21.30
23.17
24.79
25.96
26.48
26.19
25.00
23.01
20.44
17.46
14.37
11.27
8.23
5.37
2.72
0.40
-1.50
-2.98
-4.19
-5.23
-6.35
-7.71
-9.27
-11.02
-12.86
-14.72
-16.61
-18.62
-20.71
-22.94
-25.39
-28.01
-30.89
-33.93
-36.89
-39.31
-40.53
-39.84
-36.75
-31.25
-23.76
-15.22
-6.67
1.02
7.36
12.36
16.27
19.41
21.99
24.01
25.35
25.96
25.90
25.37
24.61
23.82
22.97
22.08
21.19
20.36
19.73
19.42
19.40
19.57
19.72
19.59
19.12
18.39
17.64
17.11
16.95
17.15
17.52
17.81
17.78
17.33
16.45
15.27
13.80
12.02
9.86
7.23
4.20
0.91
-2.51
-5.97
-9.46
-12.89
-16.25
-19.42
-22.36
-25.01
-27.42
-29.75
-32.22
-34.87
-37.37
-39.25
-39.76
-38.37
-34.73
-29.03
-21.92
-14.28
-6.97
-0.53
4.78
9.03
12.41
15.23
17.57
19.51
21.08
22.32
23.35
24.34
25.36
26.37
27.25
27.88
28.18
28.22
28.03
27.60
26.90
25.76
24.10
21.79
19.05
16.06
13.07
10.19
7.49
5.04
2.87
1.06
-0.37
-1.44
-2.25
-2.95
-3.66
-4.43
-5.24
-6.09
-6.97
-7.91
-9.00
-10.27
-11.78
-13.51
-15.45
-17.57
-19.87
-22.33
-24.94
-27.65
-30.16
-32.09
-32.74
-31.51
-28.03
-22.50
-15.51
-8.05
-1.09
4.74
9.16
12.34
14.60
16.25
17.45
18.22
18.57
18.52
18.17
17.59
16.87
16.05
15.07
14.01
12.90
11.88
11.13
10.76
10.80
11.18
11.71
12.14
12.26
11.89
10.97
9.51
7.67
5.61
3.46
1.25
-1.09
-3.66
-6.61
-9.91
-13.48
-17.03
-20.24
-22.88
-24.73
-25.81
-26.12
-25.89
-25.41
-25.06
-25.30
-26.32
-28.03
-29.97
-31.40
-31.45
-29.65
-25.96
-20.79
-14.85
-8.77
-3.09
1.97
6.29
9.85
12.63
14.55
15.65
16.04
16.04
15.89
15.87
16.14
16.71
17.54
18.46
19.31
19.89
20.15
20.04
19.61
18.84
17.64
15.91
13.64
11.01
8.26
5.82
3.99
2.89
2.35
2.02
1.63
1.02
0.18
-0.95
-2.41
-4.27
-6.52
-9.05
-11.67
-14.08
-16.02
-17.39
-18.21
-18.68
-19.01
-19.49
-20.34
-21.74
-23.71
-26.10
-28.37
-29.83
-29.83
-27.97
-24.29
-19.21
-13.45
-7.70
-2.51
1.94
5.64
8.70
11.27
13.45
15.41
17.19
18.78
20.12
21.19
21.90
22.30
22.44
22.39
22.21
21.86
21.30
20.53
19.62
18.60
17.55
16.50
15.39
14.21
12.90
11.50
10.09
8.68
7.26
5.80
4.26
2.66
1.05
-0.52
-2.04
-3.46
-4.87
-6.32
-7.96
-9.89
-12.11
-14.56
-17.04
-19.45
-21.60
-23.45
-25.06
-26.58
-28.13
-29.63
-30.83
-31.23
-30.32
-27.79
-23.65
-18.34
-12.53
-6.89
-1.79
2.55
6.23
9.44
12.25
14.70
16.73
18.37
19.62
20.60
21.36
22.05
22.67
23.10
23.20
22.74
21.66
20.03
18.05
16.00
14.12
12.52
11.11
9.82
8.48
7.03
5.42
3.71
1.97
0.37
-1.02
-2.22
-3.28
-4.33
-5.44
-6.72
-8.14
-9.66
-11.15
-12.56
-13.87
-15.09
-16.37
-17.80
-19.54
-21.64
-24.00
-26.25
-27.88
-28.32
-27.10
-24.02
-19.20
-13.05
-6.24
0.53
6.64
11.67
15.52
18.18
19.79
20.45
20.27
19.33
17.75
15.69
13.36
11.16
9.30
8.00
7.32
7.25
7.66
8.42
9.34
10.23
11.10
11.88
12.48
12.70
12.32
11.19
9.36
7.06
4.66
2.58
0.97
-0.25
-1.39
-2.79
-4.55
-6.60
-8.70
-10.58
-12.09
-13.32
-14.50
-15.81
-17.52
-19.70
-22.40
-25.53
-28.85
-31.92
-34.12
-34.78
-33.27
-29.46
-23.63
-16.56
-9.16
-2.38
3.14
7.18
9.89
11.63
12.67
13.29
13.59
13.76
13.85
14.03
14.44
15.20
16.24
17.37
18.32
18.82
18.80
18.19
17.17
15.97
14.74
13.51
12.19
10.58
8.64
6.43
4.13
1.99
0.17
-1.31
-2.45
-3.42
-4.31
-5.21
-6.11
-6.99
-7.78
-8.49
-9.17
-9.83
-10.64
-11.66
-13.04
-14.77
-16.96
-19.60
-22.72
-26.19
-29.59
-32.21
-33.24
-32.07
-28.50
-22.98
-16.29
-9.37
-2.95
2.58
7.20
11.02
14.13
16.52
18.10
18.91
19.03
18.79
18.47
18.34
18.46
18.68
18.83
18.73
18.43
18.05
17.81
17.87
18.14
18.39
18.25
17.45
15.98
13.94
11.59
9.14
6.81
4.65
2.64
0.69
-1.15
-2.82
-4.10
-4.82
-4.92
-4.42
-3.50
-2.48
-1.65
-1.16
-1.17
-1.78
-3.03
-5.02
-7.78
-11.32
-15.51
-20.15
-24.87
-29.27
-32.88
-35.16
-35.58
-33.80
-29.78
-23.79
-16.49
-8.77
-1.52
4.59
9.24
12.51
14.64
15.94
16.65
16.91
16.64
15.79
14.47
12.83
11.13
9.63
8.57
8.03
8.11
8.76
9.91
11.53
13.46
15.48
17.28
18.57
19.16
18.98
18.07
16.58
14.62
12.30
9.71
6.95
4.18
1.55
-0.81
-2.82
-4.45
-5.80
-6.99
-8.12
-9.22
-10.29
-11.34
-12.44
-13.71
-15.24
-17.11
-19.35
-21.97
-24.86
-27.83
-30.58
-32.65
-33.48
-32.56
-29.61
-24.68
-18.33
-11.28
-4.39
1.65
6.48
9.99
12.30
13.62
14.15
14.04
13.46
12.60
11.69
11.15
11.19
11.94
13.30
14.92
16.34
17.16
17.10
16.13
14.43
12.28
9.92
7.52
5.18
2.93
0.81
-1.05
-2.64
-3.84
-4.66
-5.19
-5.59
-6.07
-6.76
-7.72
-8.90
-10.12
-11.21
-12.04
-12.61
-13.05
-13.62
-14.52
-15.90
-17.92
-20.55
-23.67
-26.92
-29.75
-31.42
-31.27
-28.96
-24.56
-18.59
-11.93
-5.46
0.25
4.95
8.70
11.76
14.22
16.19
17.64
18.49
18.76
18.58
18.18
17.74
17.40
17.11
16.83
16.50
16.08
15.57
14.95
14.25
13.31
12.12
10.56
8.68
6.59
4.48
2.59
1.09
0.10
-0.34
-0.23
0.27
1.06
1.97
2.77
3.33
3.45
3.02
2.02
0.53
-1.34
-3.40
-5.55
-7.82
-10.24
-12.99
-16.17
-19.86
-23.95
-28.21
-32.26
-35.54
-37.40
-37.19
-34.51
-29.42
-22.50
-14.71
-7.09
-0.49
4.66
8.37
11.01
12.92
14.42
15.71
16.87
17.97
19.08
20.26
21.43
22.53
23.36
23.87
24.08
24.09
24.16
24.53
25.35
26.53
27.87
28.92
29.42
29.18
28.14
26.37
23.95
20.92
17.35
13.49
9.61
6.17
3.49
1.63
0.38
-0.65
-1.87
-3.50
-5.45
-7.57
-9.66
-11.59
-13.47
-15.53
-17.96
-20.93
-24.56
-28.70
-33.33
-38.13
-42.66
-46.33
-48.30
-47.88
-44.57
-38.43
-30.01
-20.36
-10.62
-1.82
5.30
10.59
14.14
16.31
17.43
17.77
17.47
16.67
15.56
14.32
13.27
12.63
12.44
12.58
12.92
13.25
13.55
13.91
14.33
14.85
15.23
15.11
14.12
12.19
9.51
6.53
3.79
1.60
0.07
-1.00
-1.90
-2.92
-4.13
-5.40
-6.59
-7.54
-8.28
-8.89
-9.56
-10.47
-11.78
-13.58
-15.96
-18.94
-22.32
-25.83
-28.90
-30.84
-30.98
-28.90
-24.59
-18.53
-11.51
-4.34
2.23
7.73
11.92
14.79
16.46
17.12
16.96
16.18
15.08
13.89
12.78
11.84
11.11
10.58
10.25
10.04
9.84
9.57
9.12
8.53
7.84
7.18
6.63
6.18
5.76
5.21
4.40
3.19
1.54
-0.60
-3.26
-6.51
-10.32
-14.50
-18.76
-22.75
-26.24
-29.11
-31.41
-33.27
-34.78
-35.89
-36.28
-35.49
-33.12
-29.03
-23.37
-16.56
-9.20
-1.87
4.94
10.86
15.66
19.16
21.28
22.03
21.61
20.38
18.78
17.21
15.89
14.93
14.18
13.48
12.68
11.69
10.45
8.96
7.22
5.26
3.25
1.38
-0.18
-1.33
-2.18
-3.03
-4.09
-5.46
-7.15
-9.00
-10.86
-12.58
-14.04
-15.24
-16.27
-17.27
-18.49
-20.23
-22.61
-25.61
-28.82
-31.47
-32.75
-31.92
-28.63
-23.08
-15.87
-7.79
0.29
7.69
14.08
19.24
23.17
25.81
27.03
26.75
25.10
22.37
19.03
15.75
13.09
11.47
10.99
11.46
12.54
13.90
15.24
16.34
17.11
17.43
17.25
16.47
15.09
13.15
10.65
7.74
4.56
1.29
-1.97
-5.07
-7.96
-10.60
-12.93
-15.08
-17.08
-19.00
-20.95
-23.01
-25.21
-27.46
-29.45
-30.65
-30.47
-28.33
-24.00
-17.69
-10.02
-1.92
5.79
12.44
17.68
21.46
23.98
25.46
26.06
26.07
25.56
24.71
23.66
22.53
21.42
20.41
19.56
18.75
18.08
17.39
16.69
16.01
15.34
14.64
13.80
12.70
11.17
9.26
6.97
4.46
2.00
-0.28
-2.24
-3.94
-5.51
-7.03
-8.54
-9.96
-11.21
-12.23
-13.10
-14.04
-15.44
-17.53
-20.34
-23.55
-26.47
-28.37
-28.49
-26.48
-22.39
-16.83
-10.48
-4.05
1.93
7.24
11.72
15.40
18.16
19.83
20.25
19.43
17.66
15.44
13.41
12.11
11.87
12.76
14.44
16.47
18.28
19.44
19.64
18.90
17.29
15.08
12.59
9.96
7.26
4.45
1.42
-1.77
-4.85
-7.59
-9.71
-11.13
-11.94
-12.34
-12.66
-13.24
-14.31
-15.99
-18.27
-21.03
-23.93
-26.46
-27.94
-27.72
-25.39
-20.91
-14.73
-7.73
-0.88
5.01
9.52
12.63
14.63
15.87
16.63
17.07
17.17
17.00
16.71
16.55
16.76
17.46
18.58
19.99
21.35
22.40
23.05
23.20
22.92
22.20
21.00
19.23
16.94
14.24
11.36
8.67
6.38
4.62
3.25
1.96
0.35
-1.85
-4.74
-8.21
-12.02
-15.90
-19.54
-22.80
-25.51
-27.69
-29.41
-30.85
-32.33
-34.00
-35.91
-37.61
-38.46
-37.73
-34.77
-29.44
-22.10
-13.57
-4.83
3.13
9.81
14.98
18.67
21.15
22.63
23.33
23.41
23.05
22.38
21.61
20.88
20.28
19.82
19.45
19.20
19.08
19.17
19.50
20.06
20.68
21.11
21.14
20.54
19.34
17.67
15.79
13.92
12.19
10.57
8.89
7.00
4.79
2.27
-0.38
-2.95
-5.23
-7.08
-8.51
-9.69
-10.76
-11.94
-13.28
-14.80
-16.46
-18.16
-19.77
-21.24
-22.63
-24.08
-25.92
-28.30
-31.23
-34.43
-37.21
-38.68
-38.03
-34.79
-29.03
-21.45
-13.00
-4.75
2.44
8.13
12.28
15.13
17.06
18.32
18.99
19.21
18.99
18.48
17.93
17.51
17.39
17.67
18.18
18.81
19.46
20.11
20.78
21.50
22.14
22.55
22.60
22.15
21.19
19.91
18.48
17.03
15.64
14.17
12.50
10.56
8.29
5.75
3.10
0.42
-2.05
-4.19
-6.04
-7.62
-9.09
-10.62
-12.28
-14.07
-15.89
-17.49
-18.73
-19.66
-20.46
-21.45
-22.92
-25.00
-27.69
-30.81
-33.97
-36.56
-37.95
-37.47
-34.72
-29.66
-22.65
-14.49
-6.22
1.27
7.36
11.76
14.57
16.03
16.49
16.37
15.97
15.51
15.12
14.87
14.76
14.90
15.40
16.33
17.72
19.35
20.92
21.97
22.29
21.76
20.61
19.19
17.84
16.87
16.28
16.05
15.97
15.87
15.55
14.82
13.60
11.78
9.45
6.71
3.73
0.68
-2.35
-5.29
-8.21
-10.99
-13.60
-15.81
-17.50
-18.59
-19.15
-19.45
-19.82
-20.62
-21.98
-23.91
-25.93
-27.47
-27.83
-26.40
-22.87
-17.31
-10.19
-2.27
5.56
12.56
18.15
22.02
24.15
24.77
24.27
23.14
21.88
20.83
20.24
20.17
20.59
21.41
22.56
23.93
25.43
26.90
28.14
28.97
29.31
29.16
28.53
27.49
26.17
24.75
23.54
22.79
22.77
23.56
25.04
26.91
28.77
30.32
31.36
32.01
32.35
32.56
32.68
32.72
32.68
32.64
32.81
33.36
34.55
36.31
38.46
40.55
42.04
42.39
41.21
38.29
33.68
27.65
20.38
12.02
2.50
-8.35
-20.56
-33.92
-47.84
-61.54
-74.16
-85.19
-94.41
-102.08
-108.78
-115.28
-122.31
-130.36
-139.29
-148.34
-156.06
-160.59
-160.27
-154.14
-142.15
-125.25
-105.09
-83.37
-61.57
-40.72
-21.37
-3.89
11.36
23.99
33.68
40.27
44.03
45.66
46.02
45.91
45.80
45.67
45.28
44.33
42.82
41.08
39.60
38.81
38.75
39.00
38.86
37.52
34.43
29.43
22.77
14.83
5.98
-3.57
-13.70
-24.31
-34.99
-44.99
-53.28
-58.70
-60.44
-58.21
-52.26
-43.36
-32.63
-21.13
-9.83
0.57
9.61
17.05
22.71
26.65
28.92
29.71
29.38
28.49
27.59
27.17
27.54
28.66
30.26
31.83
32.85
33.01
32.34
30.94
29.07
27.01
24.78
22.33
19.56
16.39
12.93
9.46
6.25
3.60
1.65
0.34
-0.56
-1.36
-2.41
-3.86
-5.81
-8.18
-10.81
-13.60
-16.56
-19.68
-22.98
-26.55
-30.29
-34.09
-37.77
-40.92
-42.98
-43.34
-41.37
-36.76
-29.73
-20.95
-11.46
-2.35
5.69
12.35
17.68
21.90
25.18
27.48
28.79
29.15
28.74
28.00
27.25
26.74
26.42
26.03
25.22
23.84
22.08
20.23
18.78
17.90
17.51
17.28
16.82
15.80
14.08
11.95
9.63
7.44
5.54
3.84
2.09
-0.05
-2.84
-6.46
-10.77
-15.52
-20.27
-24.68
-28.57
-31.95
-35.12
-38.37
-42.10
-46.57
-51.79
-57.24
-62.01
-64.85
-64.49
-60.10
-51.60
-39.81
-26.24
-12.67
-0.57
9.20
16.38
21.20
24.10
25.46
25.67
25.06
23.98
22.87
22.20
22.43
23.77
26.17
29.25
32.47
35.33
37.42
38.66
39.22
39.41
39.47
39.38
38.93
37.71
35.35
31.47
25.97
18.94
10.74
1.98
-6.63
-14.39
-20.90
-26.15
-30.71
-35.52
-41.62
-49.64
-59.50
-70.23
-80.12
-87.34
-90.41
-88.78
-82.91
-74.15
-64.21
-54.58
-46.18
-39.13
-33.13
-27.69
-22.53
-17.61
-13.21
-9.78
-7.78
-7.57
-9.10
-11.73
-14.08
-14.43
-11.10
-3.44
7.69
19.81
29.81
34.92
33.68
26.21
13.59
-2.76
-21.72
-42.39
-63.79
-84.29
-101.63
-113.37
-117.61
-113.71
-102.30
-85.02
-63.92
-40.89
-17.36
5.88
28.47
50.33
71.50
92.01
111.56
129.45
144.35
154.49
158.28
154.88
144.94
130.46
114.13
98.38
84.50
72.51
61.66
51.23
41.24
32.52
26.16
22.81
22.35
23.95
26.61
29.53
32.46
35.47
38.63
41.77
44.29
45.49
44.89
42.40
38.23
32.88
26.76
20.09
12.94
5.28
-2.79
-10.98
-18.81
-25.85
-31.78
-36.55
-40.35
-43.58
-46.67
-49.99
-53.59
-57.24
-60.40
-62.37
-62.44
-60.20
-55.65
-49.15
-41.45
-33.36
-25.65
-18.85
-13.32
-9.07
-6.06
-4.06
-2.78
-1.88
-1.00
0.12
1.60
3.37
5.26
6.98
8.42
9.50
10.20
10.59
10.59
10.08
8.92
7.08
4.64
1.86
-1.02
-3.83
-6.43
-8.75
-10.70
-12.29
-13.48
-14.41
-15.27
-16.33
-17.83
-19.63
-21.30
-22.13
-21.38
-18.62
-13.90
-7.68
-0.75
6.00
12.00
16.88
20.57
23.17
24.73
25.23
24.61
22.94
20.45
17.64
15.11
13.27
12.36
12.31
12.81
13.56
14.35
15.16
16.03
16.87
17.33
16.99
15.48
12.74
9.11
5.12
1.47
-1.42
-3.40
-4.73
-5.84
-7.19
-9.12
-11.66
-14.75
-18.00
-20.84
-22.66
-22.88
-21.14
-17.37
-11.99
-5.50
1.22
7.44
12.63
16.56
19.33
21.11
22.18
22.61
22.55
22.07
21.28
20.30
19.22
18.22
17.23
16.22
15.03
13.60
11.99
10.43
9.08
7.97
7.06
6.10
4.81
3.00
0.71
-1.96
-4.71
-7.40
-10.01
-12.63
-15.45
-18.57
-21.91
-25.20
-27.98
-29.60
-29.48
-27.26
-22.93
-16.93
-9.99
-2.95
3.49
8.88
13.18
16.50
18.98
20.66
21.45
21.33
20.41
18.92
17.16
15.44
13.91
12.55
11.31
10.06
8.76
7.44
6.22
5.18
4.47
4.13
4.15
4.48
4.79
4.85
4.35
3.15
1.27
-1.11
-3.80
-6.70
-9.69
-12.88
-16.25
-19.74
-23.20
-26.44
-29.23
-31.27
-32.21
-31.63
-29.26
-25.01
-19.11
-12.17
-5.03
1.51
6.87
10.94
13.93
16.16
17.93
19.40
20.61
21.55
22.30
23.01
23.92
25.20
26.77
28.32
29.39
29.60
28.81
27.18
25.03
22.78
20.67
18.77
16.98
15.15
13.20
11.24
9.43
7.86
6.54
5.32
3.96
2.20
-0.10
-3.01
-6.39
-10.03
-13.72
-17.30
-20.58
-23.54
-26.24
-28.81
-31.41
-34.19
-37.15
-40.11
-42.63
-44.10
-43.83
-41.35
-36.55
-29.73
-21.64
-13.14
-5.02
2.25
8.48
13.59
17.64
20.58
22.40
23.12
22.99
22.38
21.75
21.43
21.50
21.93
22.49
23.00
23.37
23.62
23.79
23.86
23.68
23.03
21.85
20.13
18.13
16.13
14.33
12.84
11.58
10.41
9.23
8.06
6.97
6.13
5.59
5.25
4.85
4.03
2.45
-0.04
-3.35
-7.30
-11.49
-15.61
-19.41
-22.81
-25.83
-28.64
-31.32
-33.95
-36.62
-39.17
-41.19
-42.12
-41.27
-38.14
-32.69
-25.31
-16.86
-8.38
-0.70
5.65
10.62
14.41
17.25
19.37
20.75
21.40
21.31
20.68
19.76
18.93
18.48
18.53
19.02
19.60
19.99
19.94
19.43
18.54
17.49
16.48
15.63
14.96
14.42
14.01
13.67
13.40
13.07
12.57
11.75
10.50
8.82
6.80
4.64
2.49
0.39
-1.69
-3.84
-6.14
-8.67
-11.28
-13.87
-16.24
-18.26
-19.93
-21.29
-22.51
-23.83
-25.53
-27.75
-30.53
-33.59
-36.39
-38.18
-38.24
-36.10
-31.66
-25.33
-17.84
-9.99
-2.49
4.19
9.84
14.35
17.74
20.05
21.38
21.82
21.54
20.74
19.62
18.37
17.14
16.11
15.36
14.93
14.82
14.85
14.94
14.99
14.89
14.50
13.74
12.52
10.74
8.50
5.92
3.30
0.91
-0.90
-1.95
-2.24
-1.85
-1.22
-0.71
-0.83
-1.90
-4.01
-6.91
-10.17
-13.31
-15.98
-18.07
-19.62
-20.88
-22.01
-23.25
-24.65
-26.15
-27.61
-28.61
-28.66
-27.24
-24.09
-19.27
-13.37
-7.15
-1.38
3.35
6.90
9.34
10.88
11.77
12.16
12.16
11.95
11.63
11.33
11.18
11.14
11.13
10.99
10.65
10.13
9.55
9.09
8.89
9.12
9.77
10.67
11.54
12.03
11.88
11.00
9.48
7.42
5.17
2.88
0.70
-1.35
-3.39
-5.50
-7.78
-10.20
-12.69
-15.02
-17.04
-18.58
-19.60
-20.26
-20.71
-21.22
-22.03
-23.37
-25.25
-27.48
-29.62
-31.06
-31.26
-29.82
-26.74
-22.31
-17.14
-11.82
-6.80
-2.39
1.37
4.47
7.02
9.13
10.92
12.40
13.61
14.63
15.48
16.31
17.23
18.35
19.69
21.13
22.41
23.26
23.48
22.98
21.84
20.16
18.02
15.45
12.50
9.33
6.24
3.52
1.39
0.01
-0.74
-1.09
-1.36
-1.86
-2.80
-4.29
-6.35
-8.94
-11.80
-14.77
-17.58
-20.11
-22.31
-24.30
-26.23
-28.24
-30.36
-32.37
-34.05
-34.86
-34.26
-31.81
-27.39
-21.21
-13.88
-6.18
1.06
7.14
11.71
14.83
16.69
17.60
17.75
17.32
16.37
15.04
13.53
12.06
10.90
10.20
10.04
10.34
11.03
11.95
13.03
14.15
15.21
16.05
16.48
16.50
16.02
15.11
13.87
12.46
10.98
9.53
8.23
7.10
6.12
5.18
3.96
2.21
-0.26
-3.46
-7.23
-11.17
-14.90
-18.22
-20.96
-23.23
-25.17
-26.88
-28.44
-29.86
-31.01
-31.70
-31.58
-30.23
-27.39
-22.88
-16.93
-10.07
-3.05
3.38
8.66
12.59
15.23
16.71
17.30
17.17
16.44
15.25
13.81
12.35
11.14
10.39
10.15
10.40
10.99
11.68
12.31
12.88
13.46
14.18
15.05
15.88
16.40
16.34
15.57
14.17
12.34
10.28
8.11
5.86
3.45
0.89
-1.80
-4.46
-6.94
-9.16
-11.05
-12.58
-13.75
-14.62
-15.32
-16.05
-17.03
-18.39
-20.25
-22.47
-24.83
-26.90
-28.21
-28.25
-26.68
-23.42
-18.68
-13.04
-7.10
-1.49
3.47
7.68
11.22
14.13
16.36
17.82
18.36
18.04
17.04
15.70
14.35
13.22
12.39
11.85
11.53
11.33
11.19
11.05
10.87
10.59
10.20
9.66
8.98
8.14
7.14
6.01
4.79
3.50
2.17
0.68
-1.07
-3.18
-5.66
-8.31
-10.86
-12.99
-14.60
-15.73
-16.71
-17.91
-19.71
-22.26
-25.41
-28.72
-31.54
-33.17
-33.04
-30.86
-26.69
-20.92
-14.16
-7.07
-0.26
5.85
11.00
15.00
17.85
19.71
20.77
21.30
21.53
21.54
21.42
21.19
20.89
20.62
20.47
20.45
20.43
20.27
19.79
18.96
17.80
16.38
14.79
12.99
10.97
8.73
6.42
4.21
2.30
0.77
-0.43
-1.47
-2.67
-4.30
-6.50
-9.16
-12.07
-14.86
-17.29
-19.24
-20.79
-22.22
-23.78
-25.65
-27.76
-29.79
-31.29
-31.80
-30.84
-28.10
-23.55
-17.43
-10.39
-3.23
3.26
8.56
12.54
15.40
17.46
18.94
19.91
20.29
20.03
19.20
18.14
17.19
16.66
16.53
16.63
16.77
16.84
16.82
16.80
16.87
17.11
17.42
17.62
17.54
17.04
16.16
14.97
13.55
11.94
10.15
8.10
5.80
3.31
0.76
-1.68
-3.79
-5.56
-7.04
-8.43
-9.86
-11.38
-12.90
-14.24
-15.26
-15.85
-16.13
-16.43
-17.20
-18.78
-21.28
-24.46
-27.82
-30.54
-31.82
-31.05
-28.00
-22.95
-16.57
-9.71
-3.25
2.16
6.29
9.14
10.94
12.04
12.72
13.16
13.50
13.84
14.27
14.86
15.64
16.59
17.63
18.61
19.46
20.07
20.44
20.55
20.30
19.56
18.17
16.08
13.35
10.31
7.33
4.81
3.02
1.97
1.49
1.40
1.56
1.94
2.57
3.46
4.47
5.36
5.77
5.51
4.51
2.85
0.74
-1.63
-4.17
-6.84
-9.65
-12.65
-15.79
-19.11
-22.66
-26.42
-30.29
-33.97
-36.94
-38.54
-38.18
-35.52
-30.68
-24.23
-16.98
-9.77
-3.21
2.34
6.80
10.29
12.89
14.70
15.72
15.95
15.54
14.64
13.59
12.64
12.05
11.95
12.21
12.64
13.02
13.27
13.39
13.45
13.46
13.38
13.03
12.24
11.01
9.41
7.69
5.94
4.27
2.63
1.05
-0.31
-1.31
-1.69
-1.47
-0.76
0.18
1.14
1.93
2.43
2.64
2.50
2.03
1.14
-0.20
-2.05
-4.57
-7.93
-12.22
-17.14
-22.08
-26.11
-28.51
-28.83
-27.02
-23.50
-18.83
-13.64
-8.33
-3.30
1.20
4.90
7.58
9.25
9.99
10.03
9.69
9.29
9.05
9.14
9.64
10.48
11.59
12.71
13.77
14.66
15.43
16.12
16.71
17.12
17.10
16.43
15.01
13.04
10.78
8.59
6.69
5.01
3.45
1.77
-0.04
-1.82
-3.37
-4.45
-4.99
-5.11
-5.10
-5.21
-5.73
-6.75
-8.21
-10.08
-12.25
-14.66
-17.21
-19.82
-22.44
-25.03
-27.59
-29.96
-32.01
-33.38
-33.60
-32.20
-28.91
-23.81
-17.41
-10.52
-3.95
1.57
5.76
8.65
10.49
11.58
12.09
12.08
11.63
10.88
10.03
9.45
9.33
9.74
10.69
11.93
13.31
14.68
15.96
17.16
18.30
19.28
19.95
20.17
19.84
18.97
17.68
16.13
14.48
12.81
10.99
8.90
6.48
3.77
1.03
-1.48
-3.55
-5.13
-6.31
-7.34
-8.48
-9.90
-11.75
-13.98
-16.50
-19.20
-21.87
-24.37
-26.61
-28.55
-30.29
-31.99
-33.62
-34.97
-35.68
-35.16
-32.99
-29.06
-23.60
-17.23
-10.74
-4.77
0.33
4.46
7.77
10.45
12.63
14.39
15.74
16.68
17.16
17.33
17.21
16.94
16.58
16.21
15.88
15.71
15.78
16.08
16.57
17.10
17.52
17.68
17.52
17.09
16.41
15.62
14.74
13.80
12.83
11.84
10.91
10.04
9.21
8.24
7.02
5.46
3.64
1.74
-0.03
-1.56
-2.91
-4.24
-5.84
-7.87
-10.23
-12.71
-15.05
-17.14
-19.14
-21.42
-24.23
-27.73
-31.75
-35.64
-38.68
-39.99
-38.97
-35.36
-29.36
-21.48
-12.51
-3.42
4.89
11.57
16.21
18.68
19.24
18.32
16.49
14.23
11.90
9.76
8.07
7.12
7.18
8.34
10.54
13.45
16.62
19.63
22.12
23.89
24.80
24.84
23.94
22.25
19.89
17.07
14.05
11.07
8.35
5.95
3.99
2.36
1.02
-0.20
-1.43
-2.71
-4.11
-5.58
-7.13
-8.76
-10.51
-12.46
-14.57
-16.63
-18.41
-19.80
-20.68
-21.17
-21.50
-21.99
-22.98
-24.62
-26.85
-29.43
-31.83
-33.24
-32.96
-30.60
-26.18
-20.21
-13.46
-6.72
-0.55
4.79
9.33
13.04
15.90
17.85
18.83
18.89
18.27
17.30
16.36
15.67
15.25
15.12
15.30
15.77
16.56
17.70
19.05
20.44
21.53
21.98
21.71
20.76
19.24
17.39
15.55
13.88
12.47
11.28
10.21
9.22
8.29
7.42
6.61
5.82
4.91
3.75
2.20
0.25
-2.03
-4.57
-7.20
-9.86
-12.49
-14.94
-17.14
-18.97
-20.48
-21.81
-23.26
-25.08
-27.41
-30.26
-33.39
-36.34
-38.58
-39.51
-38.65
-35.76
-30.90
-24.46
-17.13
-9.67
-2.80
2.98
7.48
10.85
13.35
15.28
16.85
18.14
19.15
19.85
20.27
20.44
20.47
20.41
20.26
20.08
19.94
19.91
20.05
20.34
20.72
21.07
21.29
21.34
21.13
20.58
19.60
18.17
16.27
14.10
11.76
9.40
7.12
4.94
2.78
0.65
-1.41
-3.25
-4.73
-5.81
-6.64
-7.40
-8.30
-9.60
-11.31
-13.36
-15.55
-17.71
-19.71
-21.54
-23.25
-25.00
-26.97
-29.31
-31.98
-34.78
-37.12
-38.29
-37.65
-34.86
-30.08
-23.81
-16.86
-9.98
-3.82
1.42
5.76
9.33
12.12
14.00
14.77
14.34
12.99
11.16
9.57
8.79
9.09
10.41
12.43
14.85
17.49
20.28
23.06
25.71
28.06
30.12
32.29
35.05
38.68
42.97
47.12
49.93
50.36
48.01
43.09
36.57
29.47
22.58
16.24
10.41
4.96
-0.20
-5.05
-9.63
-14.00
-18.30
-22.64
-26.95
-31.01
-34.37
-36.65
-37.60
-37.39
-36.41
-35.20
-34.27
-33.80
-33.73
-33.62
-32.93
-31.05
-27.59
-22.61
-16.55
-10.22
-4.35
0.46
4.04
6.47
8.11
9.32
10.24
10.95
11.34
11.44
11.36
11.33
11.50
12.04
12.96
14.12
15.32
16.25
16.75
16.75
16.34
15.67
14.91
14.15
13.38
12.56
11.59
10.44
9.24
8.07
7.05
6.17
5.30
4.20
2.69
0.64
-1.93
-4.82
-7.92
-11.00
-13.95
-16.75
-19.43
-22.00
-24.55
-27.20
-29.98
-32.92
-35.80
-38.17
-39.43
-39.01
-36.48
-31.79
-25.33
-17.77
-9.93
-2.51
4.03
9.44
13.75
17.05
19.43
20.97
21.70
21.61
20.79
19.42
17.65
15.80
14.10
12.67
11.62
10.95
10.61
10.53
10.75
11.23
12.04
13.07
14.06
14.74
14.82
14.21
12.93
11.19
9.23
7.27
5.36
3.41
1.39
-0.80
-3.16
-5.61
-7.99
-10.21
-12.11
-13.70
-15.06
-16.30
-17.56
-19.03
-20.86
-23.18
-26.02
-29.17
-32.09
-34.07
-34.26
-32.07
-27.36
-20.61
-12.77
-4.86
2.18
7.92
12.24
15.39
17.57
19.05
19.87
20.02
19.60
18.70
17.54
16.37
15.38
14.67
14.30
14.24
14.40
14.69
15.10
15.67
16.39
17.12
17.74
18.00
17.83
17.19
16.19
14.93
13.64
12.36
11.11
9.91
8.68
7.38
5.88
4.07
1.77
-0.94
-3.96
-7.04
-9.92
-12.44
-14.62
-16.58
-18.56
-20.85
-23.63
-26.92
-30.58
-34.25
-37.40
-39.37
-39.53
-37.50
-33.32
-27.44
-20.51
-13.27
-6.38
-0.30
4.83
9.00
12.33
14.86
16.55
17.41
17.46
16.83
15.76
14.58
13.63
13.24
13.56
14.65
16.42
18.72
21.38
24.15
26.69
28.60
29.54
29.23
27.61
24.80
21.13
17.05
12.94
9.13
5.75
2.94
0.75
-0.87
-2.10
-3.20
-4.48
-6.14
-8.19
-10.48
-12.72
-14.64
-16.05
-17.05
-17.72
-18.38
-19.28
-20.58
-22.35
-24.44
-26.54
-28.06
-28.48
-27.29
-24.25
-19.57
-13.72
-7.41
-1.33
4.05
8.48
11.86
14.29
15.91
16.77
17.00
16.62
15.78
14.68
13.55
12.59
11.98
11.75
11.73
11.80
11.68
11.31
10.67
9.80
8.76
7.53
6.14
4.57
3.04
1.66
0.63
0.07
-0.06
-0.00
-0.13
-0.78
-2.23
-4.42
-7.17
-10.15
-12.97
-15.39
-17.35
-18.95
-20.33
-21.75
-23.34
-25.25
-27.43
-29.56
-31.12
-31.40
-29.86
-26.25
-20.80
-14.17
-7.20
-0.70
4.86
9.29
12.72
15.32
17.23
18.41
18.87
18.71
18.08
17.30
16.62
16.23
16.12
16.24
16.41
16.59
16.84
17.17
17.62
18.09
18.44
18.45
17.99
16.98
15.41
13.45
11.25
9.02
6.80
4.74
2.82
0.96
-0.97
-3.11
-5.55
-8.26
-11.00
-13.68
-16.11
-18.22
-20.04
-21.68
-23.28
-24.99
-27.01
-29.29
-31.70
-33.82
-35.01
-34.56
-31.91
-26.93
-19.93
-11.73
-3.23
4.77
11.78
17.65
22.43
26.24
28.98
30.53
30.74
29.66
27.62
25.13
22.71
20.74
19.39
18.48
17.84
17.25
16.70
16.25
15.98
15.95
16.04
16.06
15.83
15.27
14.38
13.20
11.75
9.99
7.87
5.39
2.67
-0.12
-2.72
-4.95
-6.85
-8.52
-10.17
-12.04
-14.24
-16.76
-19.48
-22.13
-24.56
-26.74
-28.68
-30.54
-32.49
-34.57
-36.79
-38.89
-40.43
-40.84
-39.60
-36.33
-31.03
-24.16
-16.40
-8.61
-1.53
4.38
8.91
12.13
14.22
15.43
15.91
15.90
15.53
14.98
14.44
14.09
14.24
15.03
16.54
18.72
21.37
24.18
26.82
29.05
30.62
31.45
31.43
30.45
28.47
25.54
21.82
17.63
13.48
9.71
6.50
3.88
1.56
-0.66
-3.01
-5.51
-8.14
-10.70
-13.12
-15.32
-17.31
-19.10
-20.73
-22.27
-23.74
-25.22
-26.77
-28.32
-29.61
-30.25
-29.73
-27.65
-23.90
-18.74
-12.73
-6.63
-1.12
3.42
6.87
9.37
11.14
12.39
13.16
13.47
13.30
12.66
11.68
10.62
9.71
9.16
9.04
9.33
9.94
10.82
11.97
13.42
15.20
17.19
19.14
20.64
21.32
20.85
19.12
16.27
12.61
8.54
4.45
0.64
-2.79
-5.86
-8.66
-11.29
-13.69
-15.74
-17.26
-18.18
-18.59
-18.82
-19.25
-20.19
-21.88
-24.23
-27.08
-30.10
-32.86
-34.85
-35.46
-34.17
-30.62
-25.01
-17.88
-10.19
-2.89
3.33
8.15
11.72
14.37
16.47
18.14
19.41
20.19
20.46
20.34
19.90
19.39
18.85
18.29
17.63
16.88
16.03
15.25
14.66
14.20
13.86
13.48
13.05
12.72
12.68
13.09
13.98
15.19
16.33
17.02
16.92
15.82
13.76
10.89
7.40
3.60
-0.26
-4.10
-7.83
-11.47
-15.00
-18.23
-20.97
-23.07
-24.46
-25.28
-25.80
-26.29
-27.06
-28.30
-30.04
-32.15
-34.15
-35.46
-35.38
-33.42
-29.35
-23.52
-16.59
-9.39
-2.64
3.24
8.14
12.07
15.15
17.49
19.03
19.77
19.81
19.30
18.47
17.56
16.71
15.95
15.34
14.90
14.75
15.04
15.84
17.07
18.50
19.86
20.82
21.16
20.80
19.76
18.09
15.90
13.39
10.83
8.62
7.14
6.60
6.83
7.42
7.70
7.04
5.09
1.85
-2.41
-7.21
-12.09
-16.75
-20.97
-24.60
-27.58
-29.98
-31.89
-33.47
-34.94
-36.36
-37.73
-38.89
-39.51
-39.29
-37.98
-35.47
-31.82
-27.32
-22.31
-17.19
-12.16
-7.36
-2.78
1.79
6.43
11.12
15.80
20.46
25.33
30.78
37.16
44.53
52.48
60.06
65.98
69.15
68.99
65.66
59.77
52.29
44.05
35.78
27.89
20.62
14.03
8.08
2.64
-2.41
-7.00
-11.10
-14.44
-16.89
-18.34
-18.89
-18.78
-18.30
-17.62
-16.89
-16.22
-15.71
-15.54
-15.84
-16.70
-18.15
-20.13
-22.62
-25.57
-28.97
-32.65
-36.23
-39.14
-40.56
-39.85
-36.63
-31.07
-23.75
-15.57
-7.42
-0.05
6.00
10.60
13.72
15.55
16.30
16.21
15.62
14.90
14.36
14.23
14.68
15.55
16.66
17.76
18.54
18.86
18.69
17.98
16.75
15.15
13.18
10.92
8.58
6.31
4.28
2.57
1.16
0.02
-0.93
-1.83
-2.85
-4.13
-5.80
-7.92
-10.46
-13.27
-16.09
-18.82
-21.30
-23.49
-25.32
-26.80
-27.92
-28.73
-29.28
-29.53
-29.40
-28.62
-26.84
-23.75
-19.36
-13.93
-7.97
-2.10
3.16
7.43
10.58
12.70
14.03
14.87
15.50
16.18
17.02
17.99
18.99
19.95
20.84
21.69
22.52
23.22
23.63
23.51
22.82
21.68
20.36
19.03
17.76
16.43
14.84
12.89
10.62
8.27
6.10
4.25
2.74
1.47
0.38
-0.47
-1.03
-1.26
-1.20
-1.05
-1.04
-1.44
-2.43
-4.11
-6.39
-9.09
-12.08
-15.18
-18.29
-21.29
-24.08
-26.68
-29.18
-31.69
-34.23
-36.69
-38.64
-39.52
-38.70
-35.81
-30.92
-24.52
-17.32
-10.03
-3.17
3.08
8.61
13.42
17.42
20.53
22.69
23.94
24.40
24.22
23.72
22.99
22.14
21.22
20.29
19.37
18.54
17.85
17.33
17.09
17.07
17.19
17.31
17.22
16.85
16.13
15.14
14.00
12.88
11.84
10.92
10.04
9.02
7.71
6.08
4.21
2.32
0.60
-0.94
-2.33
-3.78
-5.60
-7.91
-10.68
-13.69
-16.66
-19.28
-21.42
-23.06
-24.40
-25.76
-27.46
-29.75
-32.56
-35.46
-37.68
-38.39
-36.96
-33.17
-27.31
-20.00
-12.07
-4.27
2.83
8.91
13.74
17.28
19.50
20.49
20.48
19.67
18.40
16.95
15.55
14.36
13.51
13.03
12.98
13.34
14.04
15.00
16.07
17.10
17.92
18.38
18.39
17.94
17.11
16.05
14.89
13.75
12.62
11.49
10.26
8.86
7.22
5.35
3.31
1.18
-0.88
-2.89
-4.81
-6.68
-8.51
-10.22
-11.73
-12.92
-13.70
-14.17
-14.56
-15.08
-16.05
-17.66
-20.05
-23.15
-26.75
-30.33
-33.22
-34.67
-34.02
-30.96
-25.70
-18.84
-11.26
-3.88
2.66
8.08
12.34
15.62
18.05
19.59
20.30
20.12
19.20
17.75
16.15
14.71
13.63
12.90
12.39
11.94
11.38
10.72
10.03
9.48
9.15
9.04
8.98
8.84
8.56
8.09
7.44
6.69
5.88
5.07
4.32
3.58
2.82
2.02
1.06
-0.08
-1.39
-2.84
-4.38
-5.98
-7.65
-9.46
-11.52
-13.97
-16.97
-20.59
-24.78
-29.15
-33.13
-35.91
-36.79
-35.30
-31.45
-25.63
-18.57
-11.21
-4.29
1.59
6.19
9.49
11.57
12.55
12.58
11.86
10.53
8.84
7.06
5.47
4.34
3.78
3.88
4.56
5.67
6.96
8.16
8.95
9.21
8.96
8.32
7.59
7.01
6.83
7.26
8.50
10.53
13.24
16.31
19.26
21.85
23.98
25.93
28.04
30.46
32.89
34.59
34.63
32.21
27.03
19.25
9.42
-1.71
-13.47
-25.12
-35.89
-44.97
-51.53
-54.88
-54.81
-51.54
-45.78
-38.53
-30.83
-23.55
-17.23
-11.99
-7.62
-3.89
-0.55
2.42
4.91
6.78
7.96
8.56
8.87
9.23
9.81
10.65
11.62
12.45
12.97
13.10
12.88
12.45
11.92
11.24
10.40
9.37
8.15
6.83
5.56
4.49
3.66
3.10
2.71
2.38
1.90
1.10
-0.23
-2.10
-4.41
-6.94
-9.38
-11.52
-13.28
-14.83
-16.42
-18.44
-21.07
-24.39
-28.21
-32.05
-35.37
-37.49
-37.76
-35.79
-31.51
-25.26
-17.75
-9.90
-2.48
3.87
8.93
12.87
15.96
18.54
20.77
22.68
24.09
24.95
25.17
24.80
24.03
23.01
21.87
20.78
19.82
19.03
18.54
18.35
18.37
18.45
18.34
17.88
16.99
15.68
13.97
12.12
10.27
8.58
7.11
5.73
4.35
2.87
1.17
-0.76
-2.79
-4.87
-6.96
-9.03
-11.14
-13.23
-15.23
-17.12
-18.88
-20.50
-22.17
-24.02
-26.17
-28.77
-31.75
-34.84
-37.50
-39.02
-38.71
-36.18
-31.50
-25.11
-17.85
-10.59
-3.95
1.70
6.34
10.13
13.23
15.62
17.36
18.45
18.95
19.13
19.17
19.36
19.75
20.35
20.92
21.30
21.35
20.97
20.27
19.33
18.38
17.47
16.74
16.21
15.90
15.70
15.44
14.96
14.02
12.59
10.68
8.50
6.31
4.27
2.31
0.17
-2.31
-5.29
-8.69
-12.23
-15.58
-18.40
-20.61
-22.23
-23.52
-24.61
-25.72
-26.94
-28.17
-29.24
-29.89
-29.80
-28.65
-26.26
-22.54
-17.73
-12.19
-6.37
-0.78
4.26
8.51
11.95
14.61
16.57
17.85
18.55
18.76
18.58
18.18
17.63
17.08
16.64
16.39
16.41
16.73
17.27
17.85
18.35
18.55
18.35
17.70
16.58
15.09
13.34
11.46
9.55
7.80
6.18
4.61
2.92
1.00
-1.22
-3.57
-5.87
-7.94
-9.66
-11.05
-12.31
-13.62
-14.96
-16.28
-17.35
-18.11
-18.66
-19.28
-20.24
-21.86
-24.21
-27.23
-30.76
-34.52
-38.14
-41.07
-42.68
-42.28
-39.38
-33.85
-26.16
-17.14
-7.82
0.83
8.18
14.03
18.44
21.64
23.81
25.10
25.47
25.04
23.98
22.59
21.29
20.35
19.81
19.58
19.54
19.59
19.93
20.77
22.19
24.27
26.82
29.61
32.43
35.10
37.42
39.21
40.20
40.09
38.73
36.04
32.18
27.34
21.70
15.51
9.05
2.75
-3.06
-8.01
-12.07
-15.30
-18.01
-20.58
-23.22
-25.86
-28.24
-30.07
-31.05
-31.28
-31.06
-30.90
-31.44
-33.07
-35.84
-39.35
-42.82
-45.24
-45.79
-44.02
-39.91
-33.99
-26.96
-19.54
-12.32
-5.63
0.32
5.42
9.49
12.47
14.32
15.15
15.19
14.74
14.12
13.56
13.15
12.90
12.79
12.83
13.13
13.77
14.75
15.90
16.96
17.56
17.50
16.81
15.70
14.54
13.65
13.14
12.98
12.98
12.92
12.66
12.14
11.30
10.00
8.20
5.77
2.69
-0.88
-4.74
-8.58
-12.14
-15.27
-17.92
-20.16
-22.12
-23.92
-25.70
-27.59
-29.65
-31.84
-34.04
-35.87
-36.77
-36.17
-33.68
-29.28
-23.40
-16.77
-10.13
-4.06
1.13
5.42
8.98
11.88
14.18
15.81
16.73
17.02
16.84
16.38
15.86
15.46
15.28
15.35
15.69
16.26
16.99
17.89
18.92
19.96
20.84
21.27
21.06
20.04
18.16
15.58
12.58
9.54
6.76
4.41
2.42
0.68
-1.07
-3.02
-5.27
-7.73
-10.23
-12.55
-14.44
-15.82
-16.63
-16.96
-17.04
-17.14
-17.53
-18.52
-20.17
-22.23
-24.29
-25.66
-25.72
-24.04
-20.46
-15.25
-9.08
-2.68
3.21
8.07
11.77
14.35
16.01
16.98
17.38
17.35
17.06
16.74
16.57
16.68
16.98
17.28
17.31
17.00
16.40
15.74
15.23
14.85
14.43
13.61
12.14
10.00
7.33
4.48
1.75
-0.68
-2.82
-4.70
-6.49
-8.19
-9.75
-11.14
-12.34
-13.41
-14.50
-15.83
-17.58
-20.01
-23.22
-27.15
-31.51
-35.67
-38.86
-40.25
-39.22
-35.53
-29.46
-21.76
-13.33
-5.08
2.41
8.77
13.89
17.82
20.66
22.58
23.70
24.23
24.33
24.18
23.89
23.40
22.73
21.80
20.62
19.22
17.65
16.06
14.64
13.61
13.04
12.98
13.28
13.67
13.94
13.88
13.43
12.53
11.20
9.36
6.95
3.86
0.07
-4.28
-8.89
-13.32
-17.15
-20.03
-21.93
-23.02
-23.64
-24.24
-25.18
-26.75
-28.97
-31.64
-34.20
-35.93
-36.10
-34.20
-30.19
-24.43
-17.70
-10.76
-4.19
1.69
6.81
11.20
14.96
18.05
20.47
22.21
23.36
24.04
24.46
24.64
24.61
24.38
23.91
23.24
22.44
21.61
20.83
20.25
19.84
19.59
19.50
19.44
19.31
19.00
18.51
17.95
17.41
16.93
16.35
15.46
14.00
11.91
9.18
6.03
2.79
-0.25
-2.93
-5.24
-7.25
-9.19
-11.12
-13.11
-15.13
-16.99
-18.55
-19.75
-20.73
-21.73
-23.21
-25.41
-28.51
-32.37
-36.50
-40.17
-42.43
-42.58
-40.16
-35.25
-28.36
-20.41
-12.41
-5.15
0.94
5.99
10.19
13.81
16.95
19.55
21.48
22.61
23.08
23.09
23.15
23.54
24.36
25.49
26.66
27.65
28.34
28.82
29.17
29.45
29.54
29.13
27.99
26.04
23.49
20.67
17.99
15.60
13.56
11.65
9.60
7.19
4.31
1.13
-2.05
-4.89
-7.16
-8.78
-9.94
-10.92
-11.99
-13.36
-15.01
-16.76
-18.40
-19.85
-21.10
-22.37
-23.94
-26.00
-28.75
-32.19
-36.14
-40.12
-43.51
-45.39
-45.03
-41.93
-36.08
-28.05
-18.80
-9.42
-0.84
6.36
12.06
16.34
19.50
21.83
23.49
24.59
25.13
25.21
25.00
24.73
24.59
24.67
24.99
25.36
25.64
25.74
25.58
25.21
24.65
23.90
22.96
21.86
20.63
19.31
17.90
16.38
14.69
12.84
10.90
8.93
6.92
4.92
2.82
0.64
-1.55
-3.62
-5.49
-7.18
-8.84
-10.71
-12.87
-15.33
-17.82
-20.09
-21.94
-23.35
-24.54
-25.84
-27.53
-29.67
-32.01
-34.11
-35.35
-35.17
-33.12
-29.03
-23.09
-15.75
-7.73
0.18
7.27
12.99
16.97
19.30
20.11
19.74
18.51
16.71
14.69
12.78
11.34
10.54
10.64
11.49
13.01
14.88
16.77
18.39
19.54
20.09
19.97
19.27
17.96
16.20
14.09
11.80
9.51
7.42
5.67
4.33
3.35
2.45
1.43
0.03
-1.90
-4.32
-7.11
-10.07
-12.98
-15.72
-18.27
-20.62
-22.86
-25.18
-27.79
-30.89
-34.50
-38.34
-41.78
-43.95
-43.99
-41.42
-36.22
-28.85
-20.27
-11.45
-3.26
3.75
9.37
13.64
16.71
18.78
20.02
20.53
20.47
20.04
19.51
19.26
19.54
20.47
21.99
23.80
25.58
27.05
28.01
28.45
28.43
28.01
27.15
25.85
24.09
22.00
19.79
17.60
15.58
13.78
12.17
10.70
9.31
7.90
6.43
4.83
3.04
1.07
-1.02
-3.15
-5.22
-7.18
-9.09
-10.98
-12.97
-15.16
-17.50
-19.92
-22.24
-24.27
-25.89
-27.17
-28.37
-29.86
-32.06
-35.18
-39.16
-43.52
-47.38
-49.64
-49.33
-45.97
-39.65
-31.06
-21.30
-11.51
-2.63
4.73
10.31
14.13
16.41
17.52
17.91
18.00
18.15
18.60
19.39
20.45
21.67
22.98
24.33
25.70
26.97
28.08
28.92
29.45
29.66
29.52
28.98
27.93
26.27
23.91
21.00
17.80
14.66
11.95
9.84
8.28
7.08
5.98
4.67
3.10
1.26
-0.65
-2.40
-3.93
-5.29
-6.64
-8.17
-10.07
-12.41
-15.18
-18.34
-21.73
-25.24
-28.64
-31.82
-34.58
-36.98
-39.22
-41.62
-44.46
-47.72
-50.97
-53.31
-53.81
-51.63
-46.59
-39.08
-30.07
-20.75
-12.07
-4.66
1.32
5.81
9.04
11.38
13.45
16.12
20.20
26.27
34.21
43.27
52.22
59.94
65.82
70.00
73.18
75.93
78.45
80.27
80.50
78.33
73.41
66.01
56.90
47.06
37.16
27.73
18.98
11.06
4.11
-1.73
-6.39
-10.00
-12.70
-14.78
-16.47
-17.93
-19.20
-20.30
-21.32
-22.29
-23.40
-24.81
-26.62
-28.85
-31.38
-33.96
-36.34
-38.40
-40.06
-41.50
-42.97
-44.69
-46.85
-49.23
-51.26
-52.08
-50.82
-46.91
-40.36
-31.76
-22.17
-12.92
-4.97
1.18
5.56
8.52
10.60
12.13
13.36
14.31
14.87
15.00
14.75
14.26
13.76
13.52
13.67
14.27
15.32
16.68
18.20
19.69
20.90
21.73
21.96
21.45
20.13
18.01
15.22
12.01
8.56
5.11
1.96
-0.79
-3.08
-5.01
-6.73
-8.50
-10.38
-12.41
-14.33
-15.84
-16.74
-17.06
-17.12
-17.42
-18.43
-20.46
-23.53
-27.21
-30.89
-33.70
-34.88
-33.88
-30.52
-25.04
-18.12
-10.63
-3.42
2.84
7.81
11.49
14.04
15.75
16.89
17.57
17.87
17.79
17.44
16.94
16.58
16.61
17.18
18.29
19.69
21.10
22.26
23.02
23.36
23.21
22.52
21.14
18.96
15.94
12.27
8.29
4.36
0.86
-2.06
-4.42
-6.35
-8.04
-9.69
-11.34
-12.91
-14.37
-15.60
-16.57
-17.34
-18.08
-19.05
-20.50
-22.67
-25.62
-29.47
-33.91
-38.47
-42.35
-44.63
-44.46
-41.34
-35.33
-27.11
-17.81
-8.51
-0.17
6.74
12.14
16.19
19.15
21.33
22.90
24.04
24.94
25.71
26.36
26.92
27.35
27.63
27.84
28.00
28.19
28.45
28.68
28.69
28.32
27.34
25.67
23.36
20.62
17.77
15.12
12.75
10.60
8.48
6.20
3.72
1.13
-1.43
-3.82
-5.89
-7.72
-9.39
-11.01
-12.62
-14.23
-15.77
-17.27
-18.64
-19.85
-20.91
-21.78
-22.62
-23.70
-25.33
-27.79
-31.23
-35.39
-39.69
-43.28
-45.14
-44.55
-41.22
-35.36
-27.62
-19.00
-10.45
-2.72
3.72
8.82
12.66
15.48
17.49
18.98
20.10
21.07
22.09
23.31
24.82
26.51
28.16
29.57
30.56
31.01
30.92
30.31
29.26
27.85
26.15
24.30
22.51
20.89
19.53
18.40
17.44
16.50
15.56
14.45
13.05
11.20
8.74
5.68
2.20
-1.32
-4.53
-7.11
-9.06
-10.51
-11.75
-12.99
-14.26
-15.51
-16.61
-17.56
-18.49
-19.68
-21.45
-24.02
-27.43
-31.49
-35.82
-39.82
-42.76
-43.85
-42.44
-38.27
-31.63
-23.36
-14.60
-6.49
0.12
4.99
8.30
10.53
12.11
13.27
14.12
14.71
15.11
15.40
15.72
16.12
16.63
17.14
17.52
17.78
17.98
18.20
18.57
19.09
19.72
20.33
20.67
20.58
20.00
18.99
17.68
16.23
14.77
13.32
11.88
10.48
9.10
7.85
6.79
5.98
5.45
5.14
4.88
4.39
3.49
1.94
-0.25
-3.01
-6.07
-9.12
-11.96
-14.59
-17.22
-20.10
-23.55
-27.57
-31.95
-36.06
-39.08
-40.22
-39.01
-35.39
-29.73
-22.83
-15.49
-8.48
-2.27
2.91
6.95
9.84
11.61
12.41
12.38
11.77
10.92
10.19
9.91
10.26
11.29
12.80
14.58
16.32
17.80
18.95
19.70
20.12
20.12
19.70
18.72
17.25
15.38
13.27
11.04
8.66
6.24
3.75
1.32
-1.04
-3.27
-5.47
-7.77
-10.28
-13.08
-15.97
-18.72
-21.08
-22.91
-24.19
-25.09
-25.88
-26.71
-27.95
-29.78
-32.26
-35.32
-38.58
-41.34
-42.85
-42.40
-39.54
-34.39
-27.56
-19.89
-12.26
-5.25
0.87
6.12
10.61
14.45
17.64
20.04
21.67
22.52
22.84
22.85
22.77
22.75
22.88
23.18
23.70
24.51
25.56
26.71
27.72
28.30
28.22
27.42
25.98
24.08
21.89
19.52
17.04
14.55
12.12
9.84
7.79
5.94
4.18
2.36
0.22
-2.35
-5.36
-8.71
-12.16
-15.46
-18.39
-20.79
-22.59
-23.87
-24.77
-25.51
-26.46
-28.01
-30.43
-33.76
-37.66
-41.34
-43.80
-44.06
-41.54
-36.32
-29.09
-20.89
-12.72
-5.30
1.17
6.72
11.57
15.79
19.23
21.74
23.25
23.91
24.07
24.12
24.26
24.56
24.92
25.14
25.16
25.03
24.87
24.78
24.78
24.70
24.31
23.47
22.12
20.40
18.52
16.79
15.42
14.54
14.08
13.76
13.28
12.37
10.90
8.86
6.34
3.57
0.71
-2.07
-4.76
-7.40
-10.09
-12.86
-15.72
-18.63
-21.40
-23.96
-26.27
-28.49
-30.86
-33.61
-36.69
-39.90
-42.71
-44.46
-44.56
-42.54
-38.33
-32.14
-24.57
-16.36
-8.31
-1.08
4.91
9.43
12.63
14.82
16.37
17.58
18.53
19.29
19.79
20.13
20.39
20.80
21.49
22.44
23.57
24.63
25.44
25.82
25.75
25.14
24.03
22.38
20.14
17.45
14.45
11.43
8.69
6.56
5.12
4.34
3.90
3.31
2.22
0.32
-2.32
-5.54
-8.92
-12.16
-15.06
-17.63
-20.06
-22.52
-25.17
-28.03
-31.12
-34.32
-37.49
-40.28
-42.13
-42.38
-40.36
-35.78
-28.81
-20.15
-10.88
-2.17
5.10
10.53
14.10
16.12
16.98
17.01
16.47
15.56
14.44
13.37
12.64
12.53
13.20
14.57
16.40
18.33
20.05
21.30
21.96
22.07
21.68
20.87
19.74
18.35
16.82
15.27
13.69
12.10
10.48
8.79
7.03
5.19
3.19
0.90
-1.69
-4.64
-7.84
-11.08
-14.17
-16.88
-19.17
-21.15
-23.07
-25.16
-27.63
-30.65
-34.17
-37.96
-41.52
-44.17
-45.15
-43.77
-39.68
-33.02
-24.51
-15.14
-5.95
2.25
9.02
14.25
18.18
21.08
23.21
24.70
25.69
26.25
26.54
26.79
27.16
27.79
28.60
29.42
30.02
30.27
30.12
29.60
28.92
28.08
27.08
25.78
24.13
22.19
20.07
17.91
15.84
13.94
12.09
10.20
8.15
5.97
3.80
1.77
-0.01
-1.53
-2.86
-4.16
-5.61
-7.28
-9.23
-11.47
-13.96
-16.67
-19.49
-22.33
-25.17
-28.05
-31.12
-34.63
-38.66
-43.05
-47.17
-50.03
-50.63
-48.21
-42.59
-34.35
-24.59
-14.50
-5.15
2.86
9.32
14.30
17.99
20.54
22.05
22.61
22.48
21.95
21.41
21.17
21.33
21.83
22.51
23.17
23.71
24.15
24.51
24.75
24.82
24.61
24.11
23.35
22.37
21.18
19.75
18.01
15.95
13.63
11.26
9.03
7.00
5.11
3.16
0.99
-1.53
-4.29
-7.06
-9.66
-11.93
-13.86
-15.46
-16.80
-17.90
-18.87
-19.89
-21.13
-22.92
-25.45
-28.69
-32.18
-35.20
-36.88
-36.56
-33.97
-29.26
-23.08
-16.17
-9.32
-2.96
2.69
7.61
11.82
15.30
17.96
19.73
20.72
21.03
20.89
20.51
20.06
19.60
19.11
18.52
17.81
17.12
16.62
16.47
16.64
17.00
17.21
16.90
15.87
14.08
11.74
9.21
6.72
4.39
2.15
-0.14
-2.68
-5.52
-8.58
-11.67
-14.59
-17.14
-19.29
-21.16
-22.90
-24.73
-26.77
-29.00
-31.24
-33.15
-34.18
-33.82
-31.62
-27.39
-21.40
-14.21
-6.68
0.28
6.04
10.34
13.27
15.20
16.47
17.25
17.69
17.78
17.52
17.05
16.59
16.25
16.24
16.57
17.15
17.92
18.68
19.25
19.55
19.56
19.18
18.39
17.19
15.48
13.41
11.06
8.64
6.40
4.51
2.99
1.80
0.81
-0.23
-1.41
-2.85
-4.57
-6.53
-8.69
-11.03
-13.47
-15.96
-18.52
-21.14
-23.91
-27.02
-30.54
-34.50
-38.56
-42.05
-44.08
-43.78
-40.54
-34.36
-25.97
-16.49
-7.27
0.70
6.88
11.27
14.19
16.11
17.38
18.10
18.35
18.20
17.81
17.44
17.36
17.71
18.48
19.56
20.78
22.03
23.33
24.65
25.92
26.94
27.40
27.06
25.79
23.71
21.08
18.23
15.42
12.88
10.73
9.04
7.88
7.22
6.93
6.81
6.58
5.95
4.80
3.05
0.62
-2.52
-6.36
-10.86
-15.81
-20.85
-25.57
-29.70
-33.08
-35.99
-38.75
-41.65
-44.69
-47.45
-49.20
-49.02
-46.36
-40.99
-33.43
-24.55
-15.43
-6.90
0.49
6.64
11.73
15.84
19.01
21.09
22.02
21.94
21.23
20.41
19.98
20.15
20.88
21.99
23.27
24.55
25.89
27.26
28.64
29.82
30.47
30.28
29.09
26.93
23.94
20.49
16.83
13.26
9.83
6.58
3.42
0.41
-2.39
-4.86
-6.81
-8.22
-9.09
-9.61
-10.01
-10.57
-11.38
-12.48
-13.74
-15.03
-16.44
-18.09
-20.15
-22.79
-26.02
-29.67
-33.35
-36.44
-38.24
-38.17
-35.83
-31.19
-24.63
-16.87
-8.80
-1.24
5.26
10.42
14.30
17.08
18.96
20.07
20.51
20.31
19.50
18.17
16.49
14.72
13.10
11.87
11.17
11.05
11.49
12.39
13.65
15.12
16.62
17.85
18.54
18.44
17.41
15.55
13.10
10.37
7.56
4.74
1.82
-1.29
-4.58
-7.96
-11.20
-14.17
-16.70
-18.78
-20.53
-22.14
-23.79
-25.74
-28.24
-31.44
-35.48
-40.05
-44.55
-47.95
-49.21
-47.37
-42.09
-33.75
-23.33
-12.24
-1.76
7.16
14.09
19.01
22.22
23.96
24.53
24.21
23.28
22.06
20.80
19.74
19.04
18.71
18.67
18.93
19.55
20.61
22.17
24.08
26.13
28.04
29.45
30.01
29.62
28.33
26.17
23.21
19.52
15.17
10.41
5.65
1.29
-2.22
-4.69
-6.24
-7.22
-8.07
-9.10
-10.45
-12.01
-13.55
-14.83
-15.81
-16.72
-17.98
-20.07
-23.37
-27.93
-33.28
-38.57
-42.67
-44.49
-43.37
-39.22
-32.57
-24.45
-15.96
-7.94
-1.00
4.73
9.31
12.88
15.62
17.65
19.13
20.25
21.33
22.50
23.86
25.42
27.00
28.39
29.33
29.67
29.31
28.36
26.85
24.91
22.65
20.12
17.48
14.84
12.45
10.50
9.12
8.29
7.86
7.65
7.43
7.18
6.76
6.19
5.34
4.11
2.43
0.23
-2.37
-5.29
-8.23
-11.04
-13.49
-15.53
-17.17
-18.59
-20.22
-22.47
-25.88
-30.66
-36.60
-42.99
-48.67
-52.33
-52.91
-50.04
-44.01
-35.76
-26.51
-17.42
-9.29
-2.42
3.22
7.89
11.75
14.94
17.50
19.52
21.09
22.37
23.56
24.75
25.95
27.03
27.95
28.67
29.17
29.49
29.52
29.21
28.52
27.48
26.18
24.65
22.80
20.38
17.18
13.10
8.45
3.73
-0.41
-3.53
-5.63
-7.03
-8.21
-9.60
-11.36
-13.41
-15.59
-17.71
-19.73
-21.73
-23.76
-25.91
-28.23
-30.78
-33.53
-36.32
-38.89
-40.80
-41.51
-40.50
-37.46
-32.36
-25.57
-17.78
-9.78
-2.33
4.06
9.10
12.86
15.40
16.89
17.44
17.13
16.05
14.43
12.56
10.75
9.33
8.42
8.13
8.34
8.90
9.62
10.34
10.95
11.36
11.46
11.15
10.37
9.05
7.20
5.01
2.63
0.30
-1.90
-3.98
-6.05
-8.24
-10.65
-13.40
-16.48
-19.96
-23.78
-27.89
-31.98
-35.63
-38.28
-39.39
-38.70
-36.14
-31.98
-26.56
-20.36
-13.74
-7.13
-0.91
4.50
8.70
11.45
12.73
12.89
12.47
12.16
12.48
13.65
15.59
17.92
20.23
22.15
23.58
24.71
26.03
28.14
31.56
36.64
43.21
50.44
57.02
61.32
62.06
58.78
51.76
42.00
30.73
18.95
7.26
-3.98
-14.48
-23.71
-30.99
-35.79
-37.98
-37.96
-36.73
-35.37
-34.72
-35.22
-36.70
-38.45
-39.68
-39.57
-37.59
-33.73
-28.35
-22.04
-15.52
-9.43
-4.13
0.19
3.68
6.53
8.90
10.80
12.16
12.86
12.83
12.22
11.27
10.40
9.92
9.98
10.53
11.40
12.41
13.44
14.49
15.54
16.52
17.19
17.18
16.19
14.09
10.98
7.23
3.42
0.02
-2.72
-4.80
-6.44
-7.91
-9.38
-10.96
-12.61
-14.22
-15.73
-17.06
-18.24
-19.30
-20.35
-21.59
-23.23
-25.46
-28.19
-31.03
-33.28
-34.05
-32.59
-28.63
-22.45
-14.83
-6.89
0.43
6.43
10.94
14.13
16.35
17.87
18.84
19.31
19.25
18.72
17.79
16.68
15.67
15.05
14.96
15.38
16.19
17.15
18.02
18.63
18.84
18.69
18.20
17.34
16.10
14.46
12.45
10.17
7.75
5.24
2.65
-0.07
-2.98
-6.06
-9.15
-12.10
-14.78
-17.17
-19.47
-21.83
-24.43
-27.15
-29.70
-31.55
-32.17
-31.10
-28.12
-23.40
-17.36
-10.63
-3.87
2.41
7.92
12.55
16.33
19.34
21.51
22.71
22.96
22.35
21.19
19.86
18.68
17.74
17.01
16.30
15.47
14.52
13.58
12.89
12.50
12.38
12.27
11.86
10.87
9.21
6.97
4.28
1.33
-1.81
-5.06
-8.47
-11.93
-15.46
-19.01
-22.57
-26.20
-29.75
-32.84
-34.83
-34.99
-32.70
-27.72
-20.38
-11.48
-2.13
6.61
14.02
19.74
23.75
26.22
27.39
27.49
26.69
25.23
23.39
21.49
19.72
18.24
17.04
16.03
15.17
14.48
14.01
13.77
13.75
13.79
13.69
13.25
12.25
10.62
8.45
5.94
3.30
0.80
-1.41
-3.30
-4.97
-6.58
-8.27
-10.15
-12.17
-14.38
-16.76
-19.33
-22.18
-25.37
-28.82
-32.32
-35.31
-37.11
-36.99
-34.44
-29.39
-22.38
-14.30
-6.15
1.20
7.37
12.31
16.23
19.29
21.50
22.68
22.78
21.96
20.54
18.96
17.57
16.51
15.74
15.16
14.71
14.43
14.36
14.40
14.40
14.07
13.16
11.56
9.37
6.88
4.40
2.11
0.03
-1.89
-3.82
-5.92
-8.11
-10.29
-12.29
-13.96
-15.32
-16.51
-17.69
-19.13
-21.05
-23.39
-25.91
-28.17
-29.62
-29.71
-28.08
-24.55
-19.32
-12.89
-5.92
0.83
6.75
11.46
14.93
17.25
18.75
19.63
19.99
19.96
19.62
19.16
18.89
19.06
19.75
20.96
22.34
23.48
24.10
23.98
23.19
21.92
20.35
18.51
16.43
14.02
11.26
8.29
5.29
2.46
-0.10
-2.27
-4.20
-5.98
-7.76
-9.65
-11.64
-13.77
-15.95
-18.08
-20.00
-21.73
-23.25
-24.71
-26.27
-28.16
-30.59
-33.57
-36.90
-40.13
-42.65
-43.71
-42.66
-39.16
-33.29
-25.57
-16.91
-8.24
-0.33
6.36
11.77
16.09
19.45
22.01
23.80
24.79
25.05
24.77
24.19
23.60
23.23
23.11
23.28
23.60
24.02
24.49
25.02
25.60
26.12
26.38
26.07
25.02
23.17
20.72
18.03
15.48
13.31
11.55
10.07
8.57
6.81
4.69
2.25
-0.31
-2.71
-4.79
-6.46
-7.86
-9.23
-10.80
-12.68
-14.86
-17.19
-19.48
-21.70
-23.92
-26.33
-29.11
-32.39
-36.17
-40.23
-44.10
-47.07
-48.38
-47.32
-43.44
-36.81
-27.99
-17.98
-7.90
1.36
9.23
15.54
20.29
23.60
25.57
26.29
25.86
24.58
22.82
21.04
19.62
18.73
18.41
18.46
18.76
19.19
19.85
20.74
21.86
23.13
24.27
24.96
24.97
24.28
23.02
21.50
19.88
18.21
16.47
14.52
12.25
9.68
6.93
4.15
1.53
-0.89
-3.11
-5.14
-7.21
-9.43
-11.96
-14.79
-17.87
-21.02
-24.01
-26.66
-28.84
-30.86
-32.98
-35.52
-38.61
-41.96
-44.93
-46.60
-46.06
-42.75
-36.77
-28.63
-19.26
-9.70
-0.75
7.01
13.28
17.95
21.12
22.85
23.46
23.26
22.60
21.90
21.36
21.07
20.97
20.96
20.89
20.70
20.37
19.86
19.21
18.39
17.40
16.26
14.99
13.64
12.26
10.91
9.49
8.05
6.59
5.13
3.75
2.38
0.99
-0.53
-2.22
-4.14
-6.17
-8.20
-10.11
-11.83
-13.47
-15.15
-17.08
-19.40
-22.24
-25.55
-29.18
-32.94
-36.37
-38.87
-39.72
-38.29
-34.24
-27.71
-19.34
-10.15
-1.33
6.25
12.06
15.99
18.19
18.96
18.58
17.35
15.65
13.79
12.21
11.17
10.79
10.99
11.60
12.41
13.34
14.36
15.31
16.15
16.65
16.62
15.93
14.63
12.76
10.53
8.11
5.56
2.91
0.00
-3.26
-6.85
-10.52
-14.06
-17.16
-19.58
-21.33
-22.46
-23.27
-24.11
-25.30
-27.05
-29.47
-32.42
-35.46
-37.91
-38.88
-37.69
-34.04
-28.12
-20.63
-12.52
-4.72
2.11
7.61
11.89
15.11
17.45
19.08
20.05
20.40
20.28
19.89
19.35
18.96
18.81
18.86
19.07
19.33
19.67
20.13
20.77
21.40
21.76
21.48
20.24
18.01
14.96
11.52
8.02
4.75
1.68
-1.24
-4.12
-6.98
-9.80
-12.49
-14.94
-17.08
-18.86
-20.28
-21.41
-22.40
-23.55
-25.15
-27.43
-30.42
-33.76
-36.76
-38.53
-38.24
-35.39
-30.06
-22.78
-14.50
-6.25
1.23
7.54
12.70
16.81
20.02
22.35
23.78
24.31
23.99
23.05
21.83
20.68
19.79
19.29
19.15
19.33
19.78
20.44
21.26
22.07
22.73
23.07
23.04
22.60
21.82
20.82
19.69
18.35
16.69
14.59
12.03
9.17
6.24
3.44
1.01
-1.05
-2.94
-4.83
-6.87
-9.15
-11.61
-14.18
-16.86
-19.62
-22.47
-25.41
-28.46
-31.64
-35.13
-38.96
-42.90
-46.40
-48.66
-48.78
-46.13
-40.63
-32.81
-23.63
-14.09
-5.05
2.97
9.78
15.43
19.97
23.47
25.91
27.33
27.85
27.56
26.71
25.62
24.56
23.82
23.47
23.51
23.79
24.19
24.58
24.94
25.31
25.65
25.87
25.74
25.14
23.95
22.24
20.23
18.16
16.28
14.58
12.98
11.24
9.19
6.72
3.85
0.84
-2.03
-4.45
-6.40
-7.85
-9.05
-10.31
-11.85
-13.79
-15.93
-18.06
-19.86
-21.21
-22.13
-22.92
-23.99
-25.79
-28.59
-32.36
-36.89
-41.46
-45.23
-47.28
-46.87
-43.73
-37.98
-30.29
-21.57
-12.82
-4.73
2.28
8.14
12.97
16.83
19.82
21.92
23.18
23.73
23.84
23.81
23.87
24.21
24.78
25.50
26.28
27.07
27.86
28.71
29.55
30.21
30.49
30.12
28.98
27.02
24.46
21.60
18.75
16.13
13.84
11.83
9.91
7.99
5.91
3.70
1.48
-0.58
-2.31
-3.64
-4.60
-5.41
-6.28
-7.43
-8.94
-10.77
-12.85
-15.06
-17.31
-19.57
-21.87
-24.24
-26.82
-29.66
-32.81
-36.22
-39.61
-42.44
-43.99
-43.51
-40.45
-34.79
-26.98
-17.95
-8.88
-0.80
5.67
10.41
13.67
15.89
17.34
18.22
18.58
18.52
18.24
18.07
18.28
18.99
20.04
21.23
22.28
23.08
23.54
23.68
23.51
22.93
21.88
20.35
18.49
16.32
14.06
11.76
9.53
7.44
5.56
3.93
2.58
1.43
0.22
-1.28
-3.35
-6.02
-9.21
-12.66
-15.90
-18.57
-20.51
-21.79
-22.68
-23.66
-25.20
-27.55
-30.82
-34.65
-38.39
-41.24
-42.30
-40.90
-36.85
-30.47
-22.35
-13.45
-4.56
3.69
10.93
17.04
21.97
25.62
27.87
28.72
28.24
26.77
24.69
22.49
20.55
19.05
17.96
17.27
16.91
16.87
17.19
17.79
18.46
18.96
19.02
18.42
17.17
15.32
12.97
10.34
7.54
4.76
2.21
0.06
-1.67
-3.09
-4.47
-6.09
-8.12
-10.63
-13.51
-16.58
-19.54
-22.19
-24.32
-25.83
-26.81
-27.57
-28.53
-30.09
-32.46
-35.46
-38.56
-40.87
-41.47
-39.77
-35.64
-29.44
-21.93
-13.97
-6.31
0.55
6.37
11.09
14.78
17.55
19.55
20.87
21.66
22.05
22.14
22.06
21.89
21.76
21.77
21.93
22.20
22.50
22.82
23.05
23.22
23.31
23.28
23.09
22.70
22.04
21.19
20.30
19.46
18.84
18.40
17.92
17.10
15.69
13.52
10.65
7.32
3.76
0.22
-3.23
-6.75
-10.43
-14.25
-18.09
-21.71
-24.76
-27.15
-28.87
-30.17
-31.44
-33.05
-35.31
-38.39
-42.22
-46.37
-50.24
-52.91
-53.47
-51.17
-45.75
-37.51
-27.35
-16.40
-5.84
3.42
10.91
16.52
20.39
22.86
24.21
24.70
24.60
24.06
23.28
22.51
22.05
22.02
22.60
23.77
25.33
27.04
28.66
29.97
30.78
30.94
30.19
28.45
25.80
22.49
18.98
15.81
13.34
11.65
10.54
9.65
8.69
7.51
6.12
4.62
3.07
1.44
-0.40
-2.63
-5.33
-8.48
-11.88
-15.31
-18.45
-21.13
-23.24
-24.88
-26.21
-27.49
-28.97
-30.90
-33.38
-36.24
-38.99
-41.00
-41.52
-39.97
-36.24
-30.66
-23.93
-16.83
-9.90
-3.41
2.62
8.31
13.73
18.80
23.27
26.88
29.41
30.85
31.28
30.83
29.73
28.28
26.82
25.56
24.73
24.30
24.18
24.20
24.16
23.89
23.25
22.13
20.38
17.92
14.81
11.29
7.76
4.71
2.50
1.22
0.67
0.43
0.02
-0.87
-2.36
-4.40
-6.75
-9.20
-11.56
-13.67
-15.49
-17.04
-18.48
-20.12
-22.21
-24.97
-28.35
-31.97
-35.22
-37.28
-37.50
-35.42
-31.06
-24.78
-17.30
-9.50
-2.13
4.25
9.46
13.53
16.58
18.70
19.94
20.31
19.87
18.84
17.56
16.45
15.80
15.64
15.85
16.22
16.57
16.89
17.23
17.58
17.85
17.82
17.25
16.00
14.15
11.98
9.76
7.70
5.70
3.50
0.81
-2.50
-6.40
-10.67
-14.98
-19.04
-22.65
-25.74
-28.37
-30.63
-32.68
-34.72
-36.94
-39.22
-41.12
-41.98
-41.02
-37.68
-31.85
-23.99
-15.03
-6.07
2.04
8.78
14.11
18.19
21.14
23.08
23.98
23.91
23.10
21.94
20.89
20.35
20.54
21.36
22.60
23.95
25.16
26.02
26.33
25.95
24.87
23.13
20.86
18.29
15.57
12.86
10.30
7.97
5.97
4.38
3.32
2.70
2.48
2.31
1.83
0.69
-1.34
-4.26
-7.87
-11.77
-15.60
-19.06
-22.05
-24.58
-26.71
-28.58
-30.36
-32.31
-34.61
-37.31
-40.03
-42.09
-42.60
-40.79
-36.50
-30.06
-22.34
-14.33
-6.85
-0.24
5.49
10.51
15.04
19.01
22.39
25.01
26.94
28.20
29.03
29.57
29.97
30.32
30.61
30.85
30.94
30.87
30.45
29.65
28.34
26.56
24.46
22.22
20.10
18.29
16.90
15.89
15.17
14.62
14.12
13.65
13.11
12.41
11.37
9.80
7.62
4.91
1.93
-1.06
-3.72
-5.96
-7.79
-9.34
-10.82
-12.41
-14.24
-16.28
-18.57
-20.96
-23.38
-25.71
-27.94
-30.13
-32.54
-35.47
-39.05
-43.19
-47.34
-50.75
-52.47
-51.68
-47.99
-41.59
-33.20
-23.85
-14.56
-6.03
1.35
7.65
13.15
18.06
22.48
26.28
29.28
31.29
32.29
32.39
31.77
30.64
29.20
27.58
25.99
24.61
23.59
23.10
23.11
23.46
23.92
24.28
24.45
24.42
24.25
23.90
23.40
22.69
21.80
20.77
19.59
18.25
16.62
14.57
12.01
9.11
6.07
3.13
0.51
-1.75
-3.67
-5.35
-6.86
-8.31
-9.70
-11.13
-12.67
-14.35
-16.08
-17.76
-19.26
-20.46
-21.47
-22.43
-23.65
-25.43
-28.01
-31.49
-35.67
-40.15
-44.16
-46.85
-47.36
-45.16
-40.22
-33.09
-24.68
-15.99
-7.86
-0.71
5.34
10.43
14.68
18.20
20.91
22.71
23.64
23.75
23.30
22.50
21.63
20.80
20.10
19.50
18.92
18.38
17.91
17.60
17.51
17.69
18.07
18.49
18.72
18.57
18.06
17.21
16.13
14.86
13.32
11.40
9.03
6.22
3.14
0.18
-2.50
-4.73
-6.63
-8.45
-10.38
-12.50
-14.64
-16.60
-18.09
-19.11
-19.89
-20.81
-22.41
-25.01
-28.73
-33.35
-38.43
-43.18
-46.71
-48.06
-46.51
-41.95
-34.71
-25.70
-16.08
-6.88
1.23
7.92
13.32
17.68
21.07
23.62
25.39
26.41
26.84
26.84
26.64
26.34
26.01
25.59
25.00
24.20
23.19
22.11
21.17
20.53
20.21
20.12
20.00
19.69
19.05
18.14
17.16
16.28
15.57
14.90
14.01
12.60
10.57
7.99
5.09
2.24
-0.35
-2.58
-4.53
-6.41
-8.42
-10.72
-13.35
-16.30
-19.49
-22.86
-26.28
-29.60
-32.79
-35.92
-39.11
-42.51
-46.11
-49.57
-52.36
-53.63
-52.46
-48.39
-41.41
-32.11
-21.50
-10.74
-0.78
7.63
14.21
19.00
22.16
24.03
24.94
25.23
25.15
25.00
24.80
24.65
24.54
24.40
24.26
24.08
23.81
23.39
22.83
22.06
21.22
20.38
19.65
19.11
18.79
18.54
18.33
18.10
17.70
17.15
16.35
15.27
13.80
11.89
9.45
6.61
3.54
0.53
-2.07
-4.03
-5.29
-5.96
-6.37
-6.93
-7.94
-9.54
-11.72
-14.28
-17.04
-19.84
-22.55
-25.19
-27.84
-30.61
-33.62
-36.89
-40.30
-43.48
-45.95
-47.11
-46.44
-43.59
-38.57
-31.69
-23.61
-15.17
-7.11
-0.06
5.72
10.23
13.70
16.38
18.48
20.09
21.23
21.99
22.47
22.77
22.98
23.21
23.36
23.42
23.34
23.22
23.16
23.32
23.66
24.01
24.14
23.64
22.39
20.33
17.65
14.64
11.64
8.95
6.75
5.15
4.07
3.45
3.13
2.95
2.79
2.56
2.13
1.44
0.36
-1.31
-3.70
-6.84
-10.63
-14.78
-18.88
-22.52
-25.37
-27.32
-28.54
-29.32
-30.05
-31.11
-32.64
-34.54
-36.39
-37.51
-37.22
-34.91
-30.32
-23.71
-15.78
-7.45
0.32
6.85
11.83
15.26
17.36
18.44
18.67
18.20
17.27
16.12
15.03
14.26
13.97
14.14
14.63
15.19
15.64
15.93
16.08
16.21
16.38
16.59
16.72
16.60
16.04
14.94
13.30
11.23
8.99
6.79
4.82
3.09
1.57
0.13
-1.39
-3.08
-5.05
-7.23
-9.66
-12.19
-14.68
-17.02
-19.13
-21.06
-22.93
-24.93
-27.24
-30.05
-33.27
-36.73
-39.90
-42.11
-42.66
-40.96
-36.85
-30.59
-22.91
-14.61
-6.61
0.48
6.38
11.01
14.53
17.17
19.17
20.58
21.50
21.85
21.57
20.82
19.73
18.47
17.26
16.26
15.44
14.87
14.56
14.58
15.12
16.15
17.68
19.55
21.47
23.11
24.18
24.41
23.62
21.83
19.05
15.50
11.42
7.05
2.61
-1.70
-5.81
-9.72
-13.39
-16.83
-20.00
-22.78
-25.04
-26.72
-27.79
-28.45
-29.07
-30.03
-31.65
-34.07
-37.03
-39.90
-41.79
-41.88
-39.68
-35.14
-28.70
-21.13
-13.27
-5.86
0.69
6.18
10.65
14.09
16.57
18.20
19.09
19.39
19.31
19.09
18.86
18.79
18.87
19.11
19.51
20.12
20.91
21.86
22.92
23.91
24.67
25.01
24.77
23.90
22.46
20.59
18.51
16.45
14.48
12.61
10.75
8.73
6.48
4.04
1.48
-1.07
-3.59
-6.17
-8.90
-11.84
-14.97
-18.15
-21.18
-23.87
-26.12
-27.91
-29.44
-30.90
-32.59
-34.77
-37.46
-40.34
-42.67
-43.56
-42.18
-38.16
-31.76
-23.68
-14.98
-6.60
0.81
6.95
11.88
15.76
18.75
21.04
22.70
23.72
24.18
24.16
23.75
23.25
22.80
22.48
22.29
22.10
21.80
21.52
21.38
21.57
22.21
23.17
24.15
24.79
24.82
24.13
22.87
21.25
19.47
17.68
15.84
13.85
11.70
9.33
6.82
4.28
1.77
-0.66
-2.99
-5.29
-7.58
-9.86
-12.19
-14.54
-16.88
-19.14
-21.29
-23.21
-25.00
-26.73
-28.65
-31.01
-33.94
-37.27
-40.56
-43.14
-44.11
-42.80
-38.89
-32.72
-25.08
-17.09
-9.76
-3.71
0.88
4.31
7.07
9.61
12.12
14.63
17.03
19.21
21.19
22.99
24.67
26.17
27.33
27.98
28.06
27.57
26.73
25.74
24.76
23.87
23.04
22.14
21.12
19.89
18.38
16.56
14.52
12.38
10.34
8.44
6.63
4.72
2.49
-0.25
-3.57
-7.35
-11.37
-15.35
-19.04
-22.28
-24.96
-27.11
-28.88
-30.44
-31.94
-33.56
-35.21
-36.63
-37.25
-36.34
-33.34
-28.01
-20.74
-12.33
-3.90
3.61
9.66
14.21
17.55
20.03
21.88
23.06
23.46
23.06
22.02
20.70
19.49
18.63
18.19
18.03
17.97
17.80
17.47
17.03
16.54
16.07
15.61
15.08
14.35
13.33
11.91
10.10
8.09
6.13
4.51
3.37
2.62
2.00
1.17
-0.28
-2.53
-5.53
-9.02
-12.62
-16.04
-19.13
-21.96
-24.70
-27.62
-30.95
-34.73
-38.80
-42.72
-45.89
-47.52
-46.86
-43.47
-37.32
-28.95
-19.37
-9.67
-0.76
6.77
12.66
17.01
19.98
21.79
22.68
22.88
22.66
22.38
22.33
22.62
23.30
24.33
25.53
26.81
28.08
29.25
30.27
31.01
31.29
30.94
29.85
27.93
25.35
22.35
19.25
16.25
13.42
10.72
8.04
5.33
2.59
0.01
-2.29
-4.22
-5.86
-7.34
-8.86
-10.50
-12.28
-14.14
-15.91
-17.53
-18.98
-20.28
-21.55
-22.98
-24.88
-27.56
-31.20
-35.68
-40.50
-44.87
-47.71
-48.18
-45.72
-40.48
-33.04
-24.42
-15.57
-7.35
-0.28
5.53
10.18
13.95
17.07
19.77
22.03
23.89
25.27
26.14
26.61
26.83
26.94
27.02
27.08
27.01
26.80
26.54
26.27
26.06
25.81
25.31
24.36
22.93
21.09
19.03
17.05
15.16
13.37
11.46
9.24
6.72
4.01
1.37
-0.92
-2.74
-4.21
-5.48
-6.84
-8.45
-10.33
-12.39
-14.44
-16.36
-18.12
-19.81
-21.56
-23.60
-26.14
-29.19
-32.67
-36.24
-39.33
-41.19
-41.03
-38.34
-33.14
-26.01
-17.84
-9.74
-2.49
3.53
8.32
12.22
15.44
18.04
19.96
21.12
21.47
21.18
20.50
19.72
19.10
18.68
18.52
18.65
19.15
20.01
21.21
22.59
23.90
24.80
24.90
24.03
22.11
19.27
15.81
12.02
8.23
4.68
1.52
-1.26
-3.64
-5.67
-7.39
-8.73
-9.77
-10.65
-11.59
-12.74
-14.29
-16.26
-18.68
-21.53
-24.69
-28.09
-31.41
-34.13
-35.52
-34.93
-31.98
-26.89
-20.34
-13.23
-6.54
-0.85
3.65
7.08
9.69
11.84
13.59
14.96
15.95
16.59
17.00
17.36
17.80
18.44
19.32
20.29
21.15
21.69
21.69
21.00
19.53
17.31
14.50
11.39
8.20
5.09
2.14
-0.73
-3.55
-6.42
-9.27
-12.00
-14.49
-16.74
-18.76
-20.67
-22.61
-24.61
-26.74
-29.03
-31.53
-34.10
-36.50
-38.22
-38.51
-36.74
-32.49
-25.90
-17.64
-8.75
-0.28
6.92
12.42
16.29
18.74
20.16
20.85
21.01
20.88
20.66
20.62
20.99
21.94
23.45
25.35
27.41
29.24
30.58
31.18
30.93
29.85
28.04
25.56
22.59
19.30
15.76
12.18
8.71
5.58
3.00
1.11
-0.13
-0.82
-1.19
-1.61
-2.30
-3.45
-5.06
-7.04
-9.25
-11.54
-13.86
-16.24
-18.81
-21.74
-25.23
-29.46
-34.45
-39.94
-45.39
-49.88
-52.38
-51.96
-48.13
-41.13
-31.78
-21.33
-10.97
-1.61
6.30
12.71
17.69
21.41
23.94
25.38
25.83
25.57
24.96
24.36
24.03
24.09
24.52
25.21
26.02
26.78
27.42
27.92
28.35
28.72
28.99
28.99
28.56
27.60
26.13
24.28
22.22
20.16
18.25
16.53
14.90
13.23
11.44
9.44
7.27
4.99
2.65
0.43
-1.69
-3.85
-6.30
-9.20
-12.62
-16.38
-20.16
-23.60
-26.39
-28.30
-29.40
-29.95
-30.35
-31.11
-32.67
-35.26
-38.88
-43.08
-46.96
-49.43
-49.48
-46.56
-40.83
-33.00
-24.12
-15.35
-7.49
-0.91
4.36
8.60
12.15
15.15
17.70
19.77
21.31
22.39
23.17
23.79
24.56
25.64
26.99
28.50
29.99
31.25
32.23
32.82
32.91
32.42
31.23
29.29
26.71
23.72
20.59
17.61
14.96
12.64
10.61
8.73
6.89
5.02
3.06
1.01
-0.96
-2.72
-4.10
-5.10
-5.86
-6.64
-7.68
-9.16
-11.10
-13.35
-15.78
-18.20
-20.55
-22.81
-25.00
-27.24
-29.67
-32.42
-35.48
-38.64
-41.37
-42.86
-42.30
-39.13
-33.30
-25.28
-16.08
-6.73
1.86
9.04
14.62
18.56
20.95
21.91
21.76
20.70
19.17
17.55
16.17
15.29
14.99
15.24
15.87
16.80
17.89
18.99
19.96
20.56
20.67
20.17
19.09
17.47
15.48
13.25
10.84
8.31
5.61
2.95
0.50
-1.51
-3.04
-4.24
-5.42
-6.83
-8.64
-10.83
-13.12
-15.26
-17.09
-18.65
-20.17
-21.96
-24.26
-27.12
-30.53
-34.20
-37.71
-40.38
-41.47
-40.39
-36.82
-30.94
-23.32
-14.90
-6.66
0.67
6.70
11.45
15.04
17.62
19.25
20.04
20.03
19.44
18.66
18.02
17.90
18.42
19.44
20.61
21.62
22.10
21.97
21.31
20.25
19.00
17.67
16.36
15.04
13.76
12.43
11.06
9.63
8.18
6.77
5.51
4.39
3.34
2.18
0.66
-1.35
-3.90
-6.95
-10.27
-13.69
-17.07
-20.31
-23.41
-26.46
-29.50
-32.65
-35.99
-39.31
-42.43
-44.90
-46.02
-45.16
-41.82
-35.93
-27.95
-18.77
-9.34
-0.64
6.73
12.53
16.81
19.77
21.68
22.81
23.34
23.54
23.49
23.32
23.11
22.85
22.56
22.28
21.96
21.63
21.32
21.05
20.89
20.80
20.67
20.38
19.82
18.85
17.51
16.02
14.58
13.47
12.83
12.53
12.24
11.58
10.19
7.99
5.19
1.99
-1.28
-4.48
-7.59
-10.66
-13.74
-16.79
-19.62
-22.03
-23.94
-25.23
-26.02
-26.50
-26.87
-27.40
-28.39
-30.04
-32.38
-35.19
-37.80
-39.33
-38.97
-36.15
-30.99
-24.11
-16.48
-9.04
-2.40
3.19
7.85
11.72
14.96
17.54
19.39
20.51
21.01
21.04
20.84
20.59
20.44
20.46
20.69
21.09
21.64
22.27
22.86
23.26
23.31
22.90
21.96
20.49
18.61
16.53
14.52
12.83
11.65
11.02
10.80
10.65
10.23
9.26
7.67
5.63
3.38
1.11
-1.12
-3.38
-5.74
-8.29
-10.93
-13.51
-15.76
-17.59
-18.96
-20.04
-21.11
-22.44
-24.34
-26.96
-30.32
-34.13
-37.88
-40.76
-41.96
-40.80
-36.99
-30.70
-22.69
-13.97
-5.53
1.91
8.04
12.80
16.34
18.86
20.52
21.38
21.49
20.95
19.98
18.83
17.73
16.73
15.88
15.24
14.82
14.71
15.01
15.76
16.89
18.31
19.73
20.83
21.23
20.65
18.98
16.32
12.91
9.11
5.33
1.85
-1.17
-3.75
-5.93
-7.71
-9.10
-10.15
-10.89
-11.53
-12.31
-13.52
-15.36
-17.90
-21.06
-24.75
-28.74
-32.64
-35.92
-37.88
-37.82
-35.25
-30.17
-23.09
-14.96
-6.77
0.64
6.81
11.60
15.12
17.60
19.17
19.90
19.93
19.45
18.74
17.99
17.40
16.98
16.67
16.38
15.98
15.50
15.02
14.73
14.70
14.98
15.36
15.59
15.37
14.50
12.96
10.89
8.55
6.21
4.12
2.36
0.84
-0.61
-2.31
-4.43
-7.06
-10.04
-13.08
-15.89
-18.29
-20.31
-22.12
-23.98
-26.08
-28.51
-31.28
-34.16
-36.88
-38.85
-39.47
-38.14
-34.54
-28.80
-21.56
-13.76
-6.29
0.18
5.46
9.62
12.95
15.71
17.96
19.68
20.78
21.24
21.17
20.79
20.32
19.91
19.63
19.45
19.30
19.20
19.26
19.51
20.01
20.68
21.27
21.56
21.33
20.50
19.13
17.36
15.29
12.92
10.27
7.31
4.14
0.90
-2.19
-4.94
-7.29
-9.29
-11.07
-12.84
-14.62
-16.44
-18.21
-19.80
-21.13
-22.16
-23.01
-23.81
-24.81
-26.28
-28.32
-30.80
-33.34
-35.25
-35.78
-34.42
-30.90
-25.49
-18.82
-11.71
-4.84
1.28
6.49
10.86
14.52
17.64
20.18
22.07
23.19
23.54
23.22
22.49
21.66
20.92
20.36
19.95
19.66
19.50
19.53
19.77
20.29
20.88
21.24
21.04
20.13
18.55
16.56
14.47
12.49
10.74
9.10
7.37
5.51
3.54
1.58
-0.18
-1.69
-2.96
-4.11
-5.35
-6.91
-8.81
-11.06
-13.54
-16.01
-18.20
-19.90
-21.01
-21.63
-22.05
-22.63
-23.81
-25.75
-28.32
-30.96
-32.90
-33.31
-31.60
-27.62
-21.73
-14.66
-7.29
-0.32
5.72
10.57
14.22
16.75
18.31
19.07
19.18
18.87
18.37
17.88
17.52
17.42
17.59
17.90
18.18
18.22
17.96
17.44
16.86
16.40
16.14
16.04
15.86
15.45
14.57
13.17
11.28
9.03
6.55
3.94
1.28
-1.37
-3.94
-6.45
-8.85
-11.06
-12.99
-14.56
-15.79
-16.74
-17.54
-18.33
-19.26
-20.44
-22.03
-24.12
-26.70
-29.56
-32.16
-33.69
-33.38
-30.66
-25.43
-18.23
-10.02
-1.81
5.52
11.50
15.96
18.99
20.75
21.50
21.41
20.64
19.47
18.15
17.01
16.35
16.36
17.01
18.15
19.49
20.82
21.98
22.88
23.50
23.80
23.65
22.90
21.46
19.31
16.64
13.73
10.78
8.00
5.55
3.48
1.85
0.64
-0.24
-0.85
-1.22
-1.53
-1.85
-2.20
-2.70
-3.34
-4.25
-5.51
-7.25
-9.46
-12.19
-15.46
-19.24
-23.51
-28.07
-32.43
-35.83
-37.33
-36.11
-31.76
-24.57
-15.47
-5.84
2.95
9.93
14.65
17.30
18.39
18.60
18.56
18.69
19.23
20.24
21.57
22.94
24.07
24.68
24.60
23.76
22.18
20.01
17.45
14.79
12.28
10.14
8.37
6.79
5.04
2.75
-0.27
-4.01
-8.19
-12.38
-16.08
-18.94
-20.79
-21.74
-22.02
-21.92
-21.79
-21.88
-22.35
-23.31
-24.81
-26.85
-29.46
-32.58
-36.20
-40.34
-44.95
-49.84
-54.67
-58.80
-61.34
-61.47
-58.68
-52.95
-44.93
-35.79
-26.80
-19.03
-13.00
-8.57
-5.17
-2.12
1.20
5.08
9.60
14.54
19.66
24.64
29.23
33.28
36.60
39.21
41.15
42.62
43.71
44.42
44.69
44.37
43.38
41.59
39.07
35.90
32.24
28.24
24.03
19.80
15.72
11.87
8.24
4.70
0.98
-3.13
-7.75
-12.79
-17.91
-22.68
-26.58
-29.39
-31.01
-31.67
-31.82
-31.92
-32.42
-33.43
-34.85
-36.08
-36.41
-35.06
-31.48
-25.66
-18.00
-9.33
-0.65
7.08
13.34
17.91
20.90
22.63
23.38
23.43
22.92
22.02
20.97
20.14
19.82
20.13
20.98
22.14
23.34
24.38
25.19
25.80
26.27
26.45
26.12
25.05
23.22
20.83
18.26
15.96
14.16
12.85
11.83
10.78
9.52
8.07
6.54
5.16
4.07
3.21
2.29
0.98
-1.09
-4.15
-8.30
-13.53
-19.69
-26.48
-33.43
-39.89
-45.01
-48.08
-48.68
-46.87
-43.23
-38.60
-33.79
-29.40
-25.73
-22.87
-20.87
-19.67
-19.08
-18.84
-18.47
-17.46
-15.35
-11.87
-6.95
-0.90
5.87
12.83
19.33
24.85
28.96
31.57
32.81
33.09
32.78
32.31
31.93
31.66
31.43
31.03
30.26
29.07
27.54
25.83
24.14
22.59
21.01
19.21
16.90
13.83
10.05
5.79
1.45
-2.59
-5.97
-8.51
-10.01
-10.37
-9.46
-7.29
-3.92
0.41
5.31
10.40
15.30
19.82
23.85
27.31
29.98
31.55
31.51
29.29
24.54
17.23
7.82
-2.73
-13.19
-22.38
-29.49
-34.27
-37.01
-38.37
-39.03
-39.43
-39.72
-39.70
-39.16
-37.93
-36.11
-33.98
-31.80
-29.75
-27.84
-26.02
-24.28
-22.78
-21.68
-21.17
-21.16
-21.18
-20.54
-18.58
-14.86
-9.47
-3.00
3.82
10.10
15.28
19.07
21.40
22.27
21.68
19.76
16.68
13.03
9.55
7.04
6.04
6.57
8.23
10.35
12.30
13.63
14.21
14.04
13.25
11.95
10.17
8.13
6.06
4.22
2.78
1.83
1.31
1.02
0.87
0.61
0.20
-0.45
-1.25
-1.94
-2.06
-1.11
1.25
5.11
10.08
15.55
20.76
25.17
28.53
30.86
32.34
33.14
33.32
32.89
31.92
30.59
29.25
28.35
28.13
28.60
29.55
30.42
30.72
30.11
28.57
26.35
23.89
21.54
19.41
17.35
14.87
11.45
6.59
-0.08
-8.56
-18.65
-29.93
-41.94
-54.21
-66.35
-77.95
-88.40
-97.07
-103.20
-106.31
-106.41
-103.99
-99.74
-94.27
-87.73
-79.97
-71.04
-61.41
-52.23
-44.72
-39.48
-35.94
-32.71
-28.08
-20.95
-11.43
-0.40
10.96
21.91
32.31
42.37
52.01
60.82
68.22
73.64
77.06
78.94
79.92
80.50
80.97
81.36
81.74
82.32
83.20
84.50
85.97
87.17
87.50
86.35
83.11
77.27
68.47
56.44
41.58
24.76
7.45
-8.51
-21.52
-30.56
-35.38
-36.38
-34.49
-30.70
-26.03
-21.50
-17.81
-15.44
-14.55
-14.95
-16.19
-17.84
-19.53
-21.04
-22.45
-23.81
-25.36
-27.24
-29.49
-32.05
-34.77
-37.48
-40.04
-42.40
-44.51
-46.47
-48.31
-50.08
-51.83
-53.59
-55.42
-57.31
-59.18
-60.81
-62.05
-62.69
-62.66
-61.99
-60.71
-58.96
-56.77
-54.22
-51.35
-48.31
-45.39
-42.97
-41.46
-41.08
-41.84
-43.45
-45.29
-46.56
-46.43
-44.28
-39.81
-33.19
-24.91
-15.72
-6.42
2.32
10.07
16.70
22.25
26.88
30.66
33.70
36.01
37.65
38.75
39.46
39.99
40.52
41.14
41.77
42.37
42.78
42.84
42.44
41.45
39.92
37.97
35.86
33.78
31.94
30.26
28.46
26.10
22.68
17.86
11.61
4.53
-2.40
-7.79
-10.36
-9.29
-4.41
3.59
13.50
23.85
33.39
41.28
47.22
51.30
53.81
55.13
55.43
54.75
53.01
50.15
46.45
42.49
39.17
37.20
37.00
38.31
40.45
42.59
44.14
44.94
45.08
44.68
43.38
40.68
36.16
29.96
22.98
16.66
12.38
10.81
11.64
13.60
15.25
15.76
15.20
14.69
15.59
18.87
24.63
32.06
39.79
46.46
51.11
53.28
53.02
50.54
46.14
40.13
32.95
25.19
17.38
9.94
3.01
-3.48
-9.72
-15.98
-22.39
-29.00
-35.77
-42.80
-50.21
-58.11
-66.47
-75.05
-83.37
-90.67
-96.11
-98.84
-98.35
-94.58
-88.13
-80.01
-71.39
-63.29
-56.22
-50.24
-45.04
-40.19
-35.41
-30.83
-26.85
-23.81
-21.85
-20.66
-19.50
-17.64
-14.49
-9.82
-3.88
2.74
9.40
15.51
20.59
24.35
26.62
27.38
26.98
26.10
25.40
25.36
25.97
26.75
26.95
25.96
23.46
19.60
14.83
9.58
4.08
-1.70
-7.83
-14.29
-20.92
-27.39
-33.29
-38.24
-41.85
-43.70
-43.49
-41.05
-36.44
-30.01
-22.40
-14.33
-6.50
0.60
6.76
11.92
15.95
18.83
20.52
21.10
20.79
19.96
19.03
18.27
17.88
17.75
17.74
17.69
17.51
17.21
16.79
16.27
15.52
14.41
12.87
10.92
8.67
6.27
3.90
