1540411770.00
64.000000
-0.00
-0.00
-0.00
-0.00
-0.00
-0.00
-0.00
-0.00
-0.00
-0.00
0.00
0.01
0.01
-0.00
-0.03
-0.05
-0.05
0.00
0.13
0.36
0.66
1.01
1.37
1.72
2.06
2.40
2.79
3.24
3.80
4.42
5.06
5.66
6.20
6.68
7.15
7.68
8.32
9.17
10.14
11.13
12.02
12.78
13.45
14.20
15.25
16.75
18.90
21.53
24.35
27.07
29.52
31.78
34.17
37.11
40.91
45.96
51.90
58.22
64.34
69.91
75.00
80.10
85.90
92.93
101.71
111.74
122.22
132.28
141.39
149.58
157.50
166.47
175.17
185.86
199.12
215.06
232.50
248.59
259.02
259.18
245.68
217.60
177.31
128.62
75.87
22.30
-30.43
-82.02
-132.55
-181.77
-228.88
-272.48
-311.67
-345.76
-374.19
-396.03
-409.90
-414.23
-407.60
-389.44
-360.16
-321.60
-276.49
-228.73
-181.59
-137.40
-97.44
-62.15
-31.51
-5.17
17.10
35.52
50.32
61.99
71.07
78.16
83.78
88.22
91.60
93.80
94.58
93.66
90.87
86.11
79.39
71.32
62.38
53.09
43.90
35.19
27.17
19.99
13.58
7.82
2.60
-2.09
-6.12
-9.21
-11.17
-12.04
-12.10
-11.96
-12.24
-13.33
-15.20
-17.30
-18.79
-18.96
-17.69
-15.60
-14.00
-14.33
-17.48
-23.33
-30.58
-37.22
-41.40
-42.24
-40.29
-37.48
-36.16
-38.03
-43.38
-51.01
-58.78
-64.82
-68.57
-71.43
-76.85
-89.42
-114.07
-154.57
-211.93
-283.01
-359.86
-430.60
-482.05
-503.82
-491.75
-449.87
-389.49
-325.39
-270.87
-233.36
-212.93
-201.93
-190.64
-170.48
-136.54
-88.18
-27.99
39.81
111.03
181.96
249.23
309.15
358.31
394.34
416.50
425.85
424.51
415.26
400.42
381.59
359.34
333.87
305.26
273.62
239.79
203.56
164.86
124.19
82.93
42.94
5.98
-26.83
-55.70
-82.06
-108.23
-136.02
-166.40
-199.16
-233.32
-266.77
-295.68
-314.39
-316.92
-299.42
-262.64
-213.05
-161.13
-118.34
-94.29
-92.62
-109.37
-134.39
-154.87
-159.04
-139.51
-93.40
-22.34
69.25
175.87
291.12
406.72
511.78
593.52
640.63
649.10
624.66
582.01
539.55
511.78
503.41
508.46
514.57
503.81
466.53
402.78
320.64
231.15
143.02
60.33
-16.33
-87.22
-151.37
-205.22
-245.15
-269.52
-279.72
-280.20
-276.77
-274.55
-276.42
-282.39
-289.37
-293.61
-292.43
-285.56
-275.16
-264.84
-257.82
-255.81
-258.22
-261.95
-263.09
-258.06
-244.23
-219.96
-185.22
-140.71
-89.19
-35.98
12.06
48.33
69.23
75.45
72.30
67.30
66.74
72.97
84.26
96.80
107.23
114.21
118.22
120.38
120.99
119.34
114.28
105.43
93.68
80.99
69.64
61.14
55.68
52.24
49.12
44.79
38.58
30.91
22.98
16.19
11.44
8.84
7.69
6.88
5.45
2.93
-0.46
-4.06
-7.11
-9.09
-9.93
-9.83
-9.41
-9.22
-9.51
-10.21
-11.05
-11.70
-11.93
-11.71
-11.16
-10.49
-9.88
-9.41
-9.09
-8.85
-8.60
-8.31
-7.97
-7.57
-7.18
-6.80
-6.44
-6.09
-5.76
-5.45
-5.15
-4.87
-4.60
-4.37
-4.15
-3.95
-3.77
-3.60
-3.44
-3.29
-3.15
-3.01
-2.89
-2.77
-2.67
-2.57
-2.48
-2.39
-2.30
-2.22
-2.14
-2.07
-2.01
-1.95
-1.90
-1.84
-1.77
-1.68
-1.60
-1.54
-1.53
-1.60
-1.73
-1.90
-2.04
-2.12
-2.12
-2.04
-1.96
-1.92
-1.98
-2.13
-2.34
-2.53
-2.63
-2.57
-2.38
-2.14
-1.98
-2.02
-2.29
-2.72
-3.15
-3.37
-3.30
-2.98
-2.65
-2.59
-3.05
-4.05
-5.36
-6.56
-7.22
-7.16
-6.54
-5.86
-5.77
-6.75
-8.85
-11.61
-14.20
-15.76
-15.84
-14.65
-13.05
-12.21
-13.06
-15.84
-19.93
-24.03
-26.88
-27.59
-26.21
-23.59
-21.00
-19.81
-21.16
-25.85
-33.68
-42.89
-49.81
-49.77
-38.80
-15.82
16.13
50.67
80.49
100.31
108.84
108.66
104.27
99.90
98.05
99.35
102.98
106.99
108.43
103.81
90.18
66.68
35.80
3.01
-25.34
-44.57
-53.27
-53.63
-49.70
-45.41
-43.35
-44.79
-50.45
-60.56
-74.20
-88.54
-99.08
-101.10
-92.28
-74.24
-52.16
-32.68
-20.91
-17.84
-20.62
-24.78
-26.82
-25.83
-23.10
-20.39
-18.16
-14.91
-8.16
3.79
20.33
38.50
54.10
63.47
65.40
61.60
56.04
53.01
55.24
62.68
72.92
82.46
87.93
86.92
77.93
60.41
35.18
5.38
-23.19
-43.29
-49.28
-40.56
-23.01
-7.07
-2.42
-12.73
-33.30
-53.56
-63.30
-58.69
-44.63
-31.72
-30.11
-43.63
-68.72
-97.01
-119.99
-132.73
-134.99
-129.94
-121.81
-114.38
-109.62
-108.46
-110.98
-116.29
-122.84
-128.89
-133.25
-135.67
-136.55
-135.38
-131.27
-123.17
-110.78
-95.16
-78.54
-62.95
-48.26
-37.08
-27.92
-18.05
-4.92
12.67
34.31
58.55
83.82
108.86
132.65
154.86
174.52
190.24
200.64
205.03
203.75
197.98
189.27
178.83
168.05
157.68
148.12
139.50
131.70
124.32
116.85
108.83
100.10
91.25
83.03
76.13
70.97
67.50
65.28
63.52
61.39
58.26
54.21
49.78
45.81
43.04
41.62
41.09
40.56
39.20
36.73
33.67
31.02
29.82
30.68
33.59
38.09
43.02
47.68
52.04
56.34
60.59
64.61
68.12
71.24
74.52
78.41
83.67
91.19
101.32
113.68
127.62
142.59
158.43
175.11
191.05
204.78
215.55
222.82
225.95
224.67
218.94
209.12
195.57
175.42
147.99
116.62
85.93
58.97
36.86
18.11
-0.15
-21.50
-55.46
-105.02
-163.64
-221.42
-271.83
-311.99
-342.47
-362.92
-372.13
-379.55
-389.76
-400.11
-408.69
-420.11
-440.33
-473.81
-518.20
-567.99
-632.16
-713.13
-800.66
-879.57
-938.59
-969.56
-970.79
-943.18
-809.48
-570.47
-305.37
-94.72
38.72
104.82
141.59
167.23
189.94
212.06
220.34
211.15
196.88
193.93
209.94
244.47
289.39
339.35
388.94
422.75
435.06
434.66
435.15
444.55
465.18
493.10
527.06
562.39
584.72
585.25
566.54
536.97
503.91
472.85
445.97
428.97
421.96
415.73
401.86
378.16
346.26
308.23
266.43
194.47
96.94
1.64
-68.69
-110.35
-129.74
-134.22
-130.03
-120.90
-110.28
-97.22
-84.48
-78.20
-83.78
-99.91
-122.78
-148.08
-172.80
-195.86
-214.14
-228.22
-242.12
-259.87
-282.23
-307.02
-330.01
-346.11
-350.90
-339.72
-312.82
-275.47
-235.51
-198.86
-168.00
-142.13
-118.85
-96.04
-71.84
-46.78
-23.10
-4.17
9.24
19.14
28.98
41.06
55.28
69.72
81.15
86.72
82.99
70.40
53.17
37.29
26.50
20.66
17.09
12.95
7.49
-0.98
-12.10
-24.33
-36.30
-49.00
-64.60
-83.94
-105.43
-108.01
-83.42
-45.42
-17.50
-11.05
-22.17
-38.59
-47.29
-40.36
-16.90
9.03
28.33
35.09
30.59
21.08
13.80
14.80
27.23
52.84
87.77
128.74
170.52
208.85
238.97
255.33
253.77
224.66
174.51
121.98
84.94
68.69
66.78
71.10
75.93
77.69
74.26
65.73
49.62
22.56
-13.13
-49.92
-80.27
-101.32
-113.42
-117.89
-115.08
-107.03
-97.05
-88.19
-82.00
-78.33
-76.16
-74.02
-70.62
-64.70
-56.71
-48.55
-42.23
-39.00
-38.80
-40.54
-42.51
-43.10
-41.20
-37.17
-32.68
-29.55
-29.12
-31.50
-35.71
-39.99
-42.82
-43.29
-41.74
-39.46
-37.83
-38.05
-40.83
-46.60
-55.05
-64.70
-72.48
-74.20
-66.00
-46.35
-17.58
14.54
42.93
62.14
70.39
69.70
64.17
57.52
51.64
46.33
40.72
34.40
28.11
23.12
20.31
19.43
19.24
18.17
14.95
9.59
3.03
-3.30
-8.07
-10.59
-10.99
-9.95
-8.36
-6.70
-4.99
-2.59
1.27
7.06
14.69
23.48
32.31
39.95
45.47
48.39
48.70
46.61
42.46
36.51
28.71
19.40
8.82
-2.61
-14.34
-25.69
-36.01
-44.72
-51.44
-55.95
-58.15
-58.24
-56.17
-52.05
-46.05
-38.42
-29.50
-19.74
-9.59
0.49
10.01
18.57
25.69
31.07
34.40
35.49
34.22
30.67
25.09
17.96
9.96
1.89
-5.37
-11.05
-14.59
-15.78
-14.78
-11.85
-7.57
-2.55
2.57
7.19
10.81
12.99
13.37
11.72
8.40
3.84
-1.31
-6.31
-10.49
-13.50
-15.40
-16.59
-17.66
-18.53
-19.15
-19.23
-18.17
-15.33
-10.13
-2.15
8.73
22.14
37.74
54.12
69.37
81.79
90.63
96.47
101.25
107.75
113.81
119.26
123.46
125.48
124.41
119.93
112.36
102.43
90.88
78.14
65.21
52.72
41.26
31.30
23.08
16.53
11.15
6.23
1.21
-3.48
-7.18
-9.13
-8.77
-6.02
-1.28
4.57
10.58
15.90
20.45
24.45
28.45
33.02
38.55
44.96
51.66
57.58
61.40
61.96
58.33
50.23
38.20
23.66
8.65
-4.57
-14.04
-18.25
-16.23
-7.78
6.46
24.64
43.58
59.13
66.83
62.99
45.54
14.80
-26.15
-71.81
-115.26
-149.83
-170.87
-177.16
-171.07
-157.49
-141.81
-128.06
-117.97
-111.33
-107.09
-104.47
-103.33
-103.64
-104.82
-105.35
-103.15
-96.30
-83.58
-64.52
-39.38
-9.50
22.57
52.63
75.25
85.24
79.62
59.25
29.01
-3.83
-32.24
-51.73
-61.42
-63.30
-60.42
-55.24
-49.00
-42.09
-34.94
-28.58
-24.36
-23.39
-25.75
-30.28
-35.02
-38.04
-38.23
-35.43
-30.18
-23.16
-14.91
-5.91
3.16
11.21
16.95
19.37
18.29
14.40
9.02
3.34
-2.16
-7.82
-14.46
-22.69
-32.23
-41.80
-49.50
-53.48
-52.69
-47.29
-38.64
-28.74
-19.55
-12.31
-7.29
-3.91
-1.25
1.38
4.19
6.91
9.07
10.32
10.63
10.32
9.80
9.31
8.75
7.76
6.04
3.71
1.44
0.30
1.26
4.72
10.21
16.58
22.39
26.44
28.15
27.58
25.27
21.89
18.03
14.01
9.97
5.87
1.72
-2.36
-5.99
-8.58
-9.56
-8.64
-6.11
-2.78
0.20
1.85
1.71
0.04
-2.30
-4.17
-4.60
-3.10
0.27
4.86
9.65
13.43
14.95
13.12
7.25
-2.62
-15.40
-28.89
-40.25
-46.92
-47.58
-42.81
-34.74
-26.06
-18.83
-13.68
-9.83
-5.93
-0.97
5.18
11.82
18.11
23.57
28.25
32.53
36.56
40.07
42.54
43.48
42.80
40.94
38.68
36.79
35.75
35.62
36.04
36.51
36.54
35.86
34.42
32.41
30.09
27.68
25.32
22.97
20.56
18.01
15.32
12.52
9.61
6.57
3.27
-0.36
-4.38
-8.67
-12.91
-16.55
-19.00
-19.70
-18.34
-14.98
-10.04
-4.11
2.16
8.25
13.79
18.51
22.25
24.87
26.38
26.92
26.78
26.23
25.48
24.63
23.74
22.83
22.03
21.42
21.09
20.98
20.99
20.99
20.86
20.53
19.95
19.06
17.79
16.11
13.97
11.39
8.43
5.21
1.88
-1.39
-4.46
-7.37
-10.28
-13.47
-17.11
-21.03
-24.69
-27.23
-27.83
-25.99
-21.83
-15.97
-9.32
-2.80
2.96
7.70
11.42
14.28
16.43
17.90
18.76
19.03
18.79
18.18
17.35
16.47
15.70
15.14
14.85
14.89
15.19
15.63
16.06
16.33
16.34
16.04
15.40
14.39
12.92
10.90
8.28
5.23
2.00
-1.05
-3.62
-5.64
-7.29
-8.90
-10.81
-13.27
-16.30
-19.79
-23.49
-27.01
-29.91
-31.67
-31.79
-29.92
-26.07
-20.60
-14.23
-7.77
-1.95
2.78
6.25
8.55
9.93
10.69
11.13
11.52
11.97
12.52
13.10
13.60
13.92
14.03
14.01
13.97
14.03
14.29
14.79
15.43
16.00
16.25
15.86
14.62
12.49
9.65
6.46
3.39
0.85
-0.90
-1.76
-1.81
-1.25
-0.44
0.14
-0.08
-1.50
-4.15
-7.64
-11.17
-13.94
-15.48
-15.97
-16.14
-16.72
-17.88
-18.96
-18.81
-16.44
-11.73
-5.49
0.82
5.84
8.95
10.43
11.09
11.75
12.77
14.05
15.30
16.35
17.26
18.23
19.31
20.31
20.87
20.73
19.76
18.17
16.28
14.42
12.80
11.45
10.25
9.11
7.90
6.55
4.98
3.14
1.01
-1.33
-3.73
-6.00
-7.94
-9.39
-10.36
-10.97
-11.47
-12.10
-12.98
-14.04
-14.97
-15.43
-15.23
-14.48
-13.64
-13.29
-13.96
-15.93
-19.11
-23.04
-27.03
-30.38
-32.45
-32.86
-31.52
-28.62
-24.53
-19.73
-14.67
-9.74
-5.27
-1.47
1.59
3.91
5.61
6.75
7.35
7.51
7.44
7.49
8.15
9.74
12.29
15.49
18.80
21.70
23.87
25.24
25.91
25.98
25.45
24.20
22.22
19.54
16.37
12.92
9.40
5.90
2.46
-0.96
-4.40
-7.89
-11.38
-14.77
-17.92
-20.66
-22.85
-24.47
-25.67
-26.73
-27.98
-29.65
-31.71
-33.83
-35.42
-35.82
-34.56
-31.45
-26.69
-20.84
-14.60
-8.62
-3.35
1.05
4.56
7.32
9.40
10.78
11.44
11.37
10.66
9.53
8.28
7.16
6.29
5.70
5.28
4.95
4.69
4.53
4.52
4.70
5.06
5.47
5.77
5.78
5.35
4.44
3.08
1.39
-0.45
-2.32
-4.13
-5.86
-7.56
-9.27
-11.10
-13.11
-15.35
-17.83
-20.41
-22.76
-24.39
-24.79
-23.56
-20.65
-16.35
-11.18
-5.77
-0.63
3.92
7.73
10.75
12.96
14.40
15.16
15.33
15.09
14.55
13.85
13.10
12.45
12.08
12.11
12.57
13.29
14.02
14.46
14.45
13.98
13.14
12.06
10.83
9.45
7.84
6.01
4.00
1.90
-0.15
-2.05
-3.79
-5.45
-7.18
-9.17
-11.46
-14.02
-16.73
-19.41
-21.97
-24.36
-26.51
-28.23
-29.23
-29.10
-27.54
-24.43
-19.98
-14.59
-8.85
-3.35
1.50
5.42
8.33
10.31
11.48
12.02
12.04
11.65
10.92
9.93
8.80
7.65
6.61
5.78
5.27
5.12
5.38
6.01
6.86
7.66
8.17
8.17
7.58
6.50
5.11
3.56
1.94
0.26
-1.55
-3.49
-5.45
-7.29
-8.90
-10.28
-11.58
-12.98
-14.68
-16.71
-19.04
-21.53
-23.98
-26.21
-27.92
-28.76
-28.34
-26.39
-22.89
-18.14
-12.73
-7.33
-2.47
1.53
4.60
6.82
8.30
9.16
9.48
9.41
9.09
8.66
8.24
7.82
7.38
6.92
6.53
6.38
6.62
7.34
8.41
9.56
10.43
10.71
10.29
9.29
7.98
6.60
5.27
3.86
2.21
0.14
-2.30
-4.85
-7.15
-8.88
-9.93
-10.43
-10.70
-11.07
-11.82
-13.05
-14.73
-16.65
-18.53
-19.94
-20.45
-19.69
-17.46
-13.88
-9.32
-4.36
0.41
4.57
7.88
10.31
11.96
12.95
13.38
13.32
12.85
12.05
11.05
9.97
9.01
8.28
7.84
7.70
7.77
7.95
8.10
8.09
7.80
7.17
6.19
4.90
3.41
1.84
0.26
-1.30
-2.86
-4.44
-5.98
-7.39
-8.63
-9.73
-10.82
-12.07
-13.61
-15.41
-17.37
-19.38
-21.30
-23.01
-24.32
-24.89
-24.29
-22.17
-18.39
-13.22
-7.25
-1.19
4.31
8.84
12.24
14.54
15.87
16.39
16.33
15.94
15.46
15.10
14.96
14.99
15.09
15.06
14.69
13.86
12.55
10.87
9.04
7.29
5.79
4.50
3.18
1.52
-0.72
-3.57
-6.80
-10.09
-13.17
-15.89
-18.32
-20.56
-22.56
-24.10
-24.87
-24.70
-23.68
-22.16
-20.55
-19.09
-17.66
-15.87
-13.27
-9.65
-5.19
-0.34
4.35
8.51
12.02
14.92
17.36
19.40
21.01
22.10
22.64
22.73
22.46
21.97
21.28
20.38
19.28
18.02
16.76
15.67
14.80
14.09
13.34
12.28
10.68
8.44
5.64
2.51
-0.71
-3.77
-6.55
-9.04
-11.35
-13.63
-16.03
-18.70
-21.70
-25.03
-28.59
-32.14
-35.34
-37.71
-38.81
-38.36
-36.34
-33.01
-28.87
-24.48
-20.31
-16.63
-13.47
-10.68
-8.08
-5.54
-3.02
-0.60
1.63
3.66
5.57
7.50
9.54
11.61
13.58
15.24
16.47
17.25
17.67
17.74
17.42
16.61
15.19
13.26
10.97
8.55
6.12
3.68
1.02
-2.07
-5.74
-9.96
-14.46
-18.75
-22.18
-24.12
-24.07
-21.92
-17.90
-12.58
-6.67
-0.85
4.35
8.65
11.99
14.40
16.03
17.01
17.50
17.63
17.48
17.08
16.44
15.60
14.64
13.66
12.76
12.00
11.38
10.86
10.35
9.75
8.92
7.79
6.24
4.27
1.98
-0.47
-2.84
-5.00
-6.99
-9.00
-11.32
-14.17
-17.55
-21.14
-24.32
-26.35
-26.59
-24.74
-20.86
-15.41
-9.10
-2.66
3.30
8.36
12.35
15.29
17.24
18.34
18.68
18.37
17.56
16.51
15.50
14.79
14.52
14.65
14.97
15.26
15.41
15.43
15.46
15.57
15.70
15.60
14.95
13.51
11.22
8.30
5.12
2.07
-0.60
-2.80
-4.64
-6.38
-8.33
-10.77
-13.81
-17.28
-20.75
-23.61
-25.16
-24.94
-22.82
-19.07
-14.30
-9.20
-4.35
-0.06
3.63
6.80
9.55
11.85
13.59
14.68
15.13
15.17
15.08
15.22
15.78
16.78
18.04
19.35
20.51
21.36
21.84
21.88
21.49
20.70
19.58
18.20
16.59
14.76
12.69
10.39
7.93
5.41
2.93
0.61
-1.54
-3.48
-5.24
-6.84
-8.36
-9.92
-11.71
-13.89
-16.47
-19.21
-21.63
-23.09
-23.04
-21.16
-17.53
-12.57
-6.96
-1.40
3.57
7.67
10.89
13.41
15.44
17.13
18.53
19.64
20.42
20.93
21.27
21.58
21.92
22.30
22.65
22.85
22.83
22.60
22.23
21.81
21.37
20.82
20.00
18.68
16.78
14.41
11.88
9.66
8.03
7.09
6.60
6.16
5.37
4.06
2.31
0.39
-1.44
-3.08
-4.60
-6.19
-8.05
-10.33
-13.02
-16.08
-19.35
-22.64
-25.66
-28.02
-29.29
-29.10
-27.27
-23.87
-19.27
-14.01
-8.65
-3.70
0.53
3.93
6.56
8.59
10.22
11.55
12.60
13.28
13.51
13.32
12.87
12.44
12.26
12.44
12.89
13.38
13.73
13.85
13.88
13.93
14.15
14.53
14.93
15.17
15.07
14.56
13.60
12.32
10.86
9.42
8.16
7.11
6.17
5.14
3.87
2.27
0.45
-1.38
-3.02
-4.42
-5.63
-6.82
-8.09
-9.51
-11.10
-12.91
-15.03
-17.52
-20.24
-22.85
-24.81
-25.57
-24.79
-22.47
-18.99
-14.91
-10.80
-7.04
-3.73
-0.80
1.85
4.27
6.38
8.09
9.35
10.23
10.97
11.78
12.89
14.39
16.27
18.41
20.67
22.89
24.94
26.82
28.71
30.96
33.98
38.07
43.24
49.11
55.00
60.11
63.88
66.11
67.14
67.58
68.16
69.37
71.13
72.74
72.96
70.38
63.92
53.38
39.64
24.44
9.93
-2.13
-10.84
-16.26
-19.29
-21.17
-22.92
-25.18
-28.07
-31.38
-34.76
-37.97
-40.99
-44.11
-47.82
-52.52
-58.21
-64.32
-69.70
-73.06
-73.33
-69.98
-63.06
-53.18
-41.36
-28.89
-17.25
-7.86
-1.95
-0.12
-2.25
-7.33
-13.86
-20.06
-24.49
-26.35
-25.60
-23.01
-19.70
-16.82
-15.09
-14.78
-15.79
-18.07
-21.65
-26.55
-32.47
-38.54
-43.56
-46.40
-46.56
-44.13
-39.50
-32.95
-24.43
-13.82
-1.57
11.00
21.87
29.18
32.12
31.42
29.04
27.30
28.05
32.17
39.52
49.11
59.13
67.13
70.40
66.76
55.69
38.79
19.50
1.53
-12.97
-24.56
-36.08
-50.76
-69.93
-91.59
-110.87
-122.00
-120.86
-106.82
-83.00
-54.92
-28.37
-7.43
6.49
14.39
18.54
21.09
23.31
25.44
27.21
28.59
30.24
33.41
39.37
48.53
59.73
70.30
76.84
76.44
67.98
52.73
33.95
15.66
1.02
-8.68
-14.18
-17.23
-19.30
-20.70
-20.63
-18.07
-12.86
-6.29
-0.66
1.77
-0.08
-5.56
-12.49
-18.22
-20.66
-19.01
-13.98
-7.20
-0.50
4.74
7.92
9.14
8.87
7.60
5.71
3.35
0.67
-2.11
-4.60
-6.30
-6.75
-5.82
-3.85
-1.55
0.17
0.50
-0.92
-3.96
-8.14
-12.82
-17.47
-21.81
-25.79
-29.43
-32.78
-35.82
-38.50
-40.69
-42.24
-42.96
-42.67
-41.29
-38.90
-35.77
-32.35
-29.11
-26.44
-24.48
-23.24
-22.56
-22.23
-22.02
-21.66
-20.90
-19.49
-17.30
-14.37
-10.93
-7.33
-3.94
-1.00
1.44
3.50
5.36
7.17
8.99
10.85
12.69
14.45
16.08
17.48
18.50
19.00
18.85
17.99
16.53
14.63
12.54
10.40
8.25
5.97
3.39
0.37
-3.05
-6.59
-9.75
-12.01
-12.98
-12.60
-11.12
-9.00
-6.72
-4.58
-2.73
-1.18
0.06
0.95
1.42
1.39
0.87
-0.08
-1.29
-2.55
-3.70
-4.57
-5.09
-5.29
-5.26
-5.09
-4.84
-4.48
-3.94
-3.16
-2.18
-1.07
0.06
1.14
2.09
2.77
2.94
2.35
0.87
-1.41
-4.23
-7.19
-9.97
-12.42
-14.57
-16.49
-18.30
-19.97
-21.47
-22.67
-23.41
-23.48
-22.57
-20.50
-17.26
-13.11
-8.61
-4.35
-0.83
1.75
3.49
4.63
5.36
5.79
5.90
5.69
5.28
4.85
4.60
4.59
4.73
4.87
4.87
4.70
4.49
4.36
4.42
4.64
4.87
4.88
4.47
3.53
2.05
0.12
-2.11
-4.55
-7.15
-9.94
-13.02
-16.43
-20.12
-23.87
-27.29
-29.88
-31.17
-30.78
-28.59
-24.76
-19.68
-13.91
-8.02
-2.57
2.10
5.83
8.63
10.62
11.95
12.75
13.08
13.05
12.76
12.40
12.13
12.06
12.14
12.30
12.40
12.39
12.25
12.08
11.92
11.75
11.45
10.86
9.82
8.27
6.23
3.80
1.12
-1.66
-4.47
-7.23
-9.92
-12.53
-15.05
-17.56
-20.15
-22.91
-25.90
-29.02
-32.02
-34.45
-35.78
-35.52
-33.38
-29.36
-23.77
-17.19
-10.31
-3.79
1.94
6.65
10.37
13.21
15.36
16.91
17.90
18.35
18.32
17.98
17.53
17.20
17.16
17.46
18.03
18.76
19.56
20.34
21.06
21.70
22.25
22.63
22.79
22.63
22.05
21.03
19.59
17.85
15.93
13.94
11.85
9.54
6.81
3.57
-0.03
-3.71
-7.03
-9.70
-11.61
-12.96
-14.12
-15.50
-17.45
-20.09
-23.33
-26.82
-30.07
-32.47
-33.43
-32.52
-29.61
-24.91
-18.91
-12.32
-5.78
0.14
5.11
9.03
12.04
14.36
16.27
17.96
19.47
20.78
21.78
22.45
22.78
22.86
22.81
22.77
22.82
23.01
23.33
23.73
24.14
24.54
24.81
24.86
24.58
23.87
22.69
21.08
19.14
17.05
15.02
13.24
11.77
10.55
9.41
8.11
6.45
4.37
1.95
-0.56
-2.90
-4.86
-6.49
-7.98
-9.70
-11.95
-14.91
-18.51
-22.49
-26.41
-29.82
-32.21
-33.11
-32.13
-29.01
-23.80
-16.90
-9.08
-1.31
5.50
10.75
14.29
16.34
17.36
17.80
17.97
18.04
18.02
17.90
17.70
17.41
17.10
16.86
16.79
17.01
17.59
18.49
19.58
20.64
21.37
21.52
20.93
19.57
17.58
15.19
12.70
10.32
8.14
6.15
4.25
2.36
0.46
-1.42
-3.23
-4.90
-6.48
-8.12
-10.01
-12.37
-15.35
-18.92
-22.91
-26.91
-30.37
-32.69
-33.30
-31.83
-28.20
-22.72
-15.98
-8.79
-1.94
3.99
8.73
12.28
14.83
16.64
17.87
18.68
19.12
19.26
19.18
18.98
18.79
18.73
18.91
19.41
20.21
21.21
22.26
23.18
23.84
24.16
24.08
23.53
22.43
20.69
18.30
15.38
12.18
8.92
5.81
2.95
0.29
-2.32
-5.02
-7.94
-11.09
-14.39
-17.72
-20.98
-24.16
-27.29
-30.44
-33.57
-36.50
-38.81
-40.01
-39.59
-37.21
-32.84
-26.75
-19.56
-12.08
-5.15
0.64
4.99
8.02
10.04
11.37
12.25
12.81
13.13
13.32
13.54
13.98
14.74
15.80
16.99
18.15
19.19
20.06
20.74
21.21
21.36
21.09
20.30
18.96
17.14
15.00
12.73
10.56
8.61
6.89
5.28
3.64
1.80
-0.28
-2.60
-5.07
-7.61
-10.21
-12.90
-15.84
-19.14
-22.94
-27.22
-31.79
-36.22
-39.82
-41.86
-41.67
-38.95
-33.81
-26.88
-19.08
-11.43
-4.70
0.77
5.02
8.34
11.09
13.42
15.27
16.46
16.88
16.61
15.88
15.08
14.50
14.35
14.71
15.56
16.79
18.27
19.79
21.16
22.16
22.59
22.36
21.42
19.90
17.91
15.59
13.09
10.49
7.85
5.13
2.32
-0.56
-3.42
-6.21
-8.90
-11.56
-14.34
-17.40
-20.87
-24.71
-28.73
-32.51
-35.48
-36.99
-36.46
-33.60
-28.47
-21.56
-13.74
-5.97
0.94
6.45
10.46
13.11
14.68
15.44
15.57
15.26
14.70
14.11
13.69
13.56
13.70
14.01
14.43
14.89
15.35
15.74
15.91
15.65
14.82
13.36
11.39
9.06
6.48
3.69
0.68
-2.56
-5.97
-9.42
-12.80
-16.10
-19.37
-22.78
-26.48
-30.52
-34.86
-39.27
-43.47
-47.05
-49.53
-50.42
-49.26
-45.76
-39.92
-32.12
-23.03
-13.54
-4.51
3.45
10.03
15.22
19.11
21.81
23.37
23.89
23.54
22.62
21.50
20.56
20.09
20.23
21.03
22.33
23.91
25.44
26.59
27.09
26.80
25.72
23.98
21.71
19.04
15.99
12.58
8.84
4.85
0.73
-3.32
-7.10
-10.48
-13.45
-16.17
-18.91
-21.97
-25.58
-29.77
-34.39
-39.05
-43.15
-45.96
-46.74
-44.97
-40.57
-33.94
-25.93
-17.54
-9.66
-2.78
2.96
7.75
11.80
15.21
17.93
19.88
20.99
21.27
20.93
20.24
19.56
19.19
19.36
20.10
21.27
22.67
24.10
25.46
26.69
27.72
28.34
28.24
27.10
24.80
21.52
17.64
13.73
10.24
7.41
5.20
3.34
1.49
-0.67
-3.29
-6.36
-9.74
-13.23
-16.69
-20.13
-23.66
-27.46
-31.64
-36.03
-40.22
-43.51
-45.11
-44.31
-40.75
-34.49
-26.16
-16.71
-7.27
1.22
8.16
13.43
17.25
19.96
21.90
23.27
24.14
24.58
24.73
24.83
25.20
26.03
27.35
29.04
30.87
32.61
34.07
35.18
35.86
36.01
35.49
34.18
32.07
29.34
26.29
23.24
20.44
17.92
15.59
13.24
10.66
7.72
4.38
0.71
-3.14
-7.00
-10.66
-13.98
-16.88
-19.46
-21.92
-24.53
-27.47
-30.75
-34.10
-37.00
-38.76
-38.70
-36.38
-31.65
-24.82
-16.46
-7.42
1.52
9.65
16.48
21.68
25.02
26.45
26.05
24.19
21.44
18.58
16.30
15.04
14.82
15.31
15.98
16.34
16.25
15.74
15.05
14.32
13.49
12.30
10.48
7.91
4.76
1.47
-1.48
-3.69
-5.13
-6.05
-6.92
-8.35
-10.80
-14.63
-19.88
-26.31
-33.31
-39.93
-44.99
-47.31
-46.02
-40.88
-32.39
-21.69
-10.24
0.60
9.87
17.16
22.54
26.28
28.64
29.78
29.82
28.92
27.34
25.49
23.69
22.25
21.29
20.82
20.86
21.39
22.36
23.67
25.12
26.41
27.22
27.27
26.34
24.38
21.45
17.67
13.21
8.30
3.19
-1.84
-6.51
-10.68
-14.29
-17.52
-20.67
-24.10
-28.08
-32.67
-37.62
-42.42
-46.38
-48.83
-49.24
-47.33
-43.12
-36.96
-29.45
-21.36
-13.44
-6.33
-0.44
4.15
7.57
10.09
11.98
13.33
14.08
14.10
13.33
11.87
10.04
8.24
6.69
5.44
4.32
3.00
1.17
-1.25
-4.19
-7.37
-10.55
-13.60
-16.66
-20.00
-23.89
-28.44
-33.37
-38.19
-42.31
-45.24
-46.60
-45.99
-42.94
-37.11
-28.74
-19.03
-10.03
-3.99
-2.38
-5.31
-11.45
-18.75
-25.36
-30.08
-32.39
-31.98
-28.35
-21.01
-9.88
4.25
19.66
34.11
45.58
52.80
55.34
53.45
47.85
39.42
29.23
18.32
7.60
-2.29
-11.14
-19.03
-26.16
-32.57
-38.06
-42.22
-44.66
-45.24
-44.10
-41.62
-38.26
-34.39
-30.28
-26.13
-22.25
-19.08
-17.07
-16.50
-17.21
-18.54
-19.38
-18.51
-15.03
-8.71
-0.09
9.75
19.50
28.16
35.27
40.99
45.82
50.28
54.61
58.70
62.31
65.17
67.23
68.62
69.57
70.29
71.09
72.20
73.82
75.92
78.07
79.50
79.39
77.41
74.06
70.77
69.45
71.72
77.89
86.16
92.75
92.67
81.41
56.90
20.96
-20.69
-59.81
-88.23
-100.26
-94.15
-72.16
-39.50
-2.89
30.86
56.07
69.42
70.78
63.31
52.63
44.78
43.84
50.51
62.32
75.34
86.35
94.27
99.75
103.84
106.49
106.22
101.10
90.21
74.63
57.26
41.66
30.38
24.15
21.98
22.15
23.16
24.22
24.87
24.57
22.63
18.60
12.87
6.85
2.41
1.06
3.15
7.70
13.14
18.00
21.44
23.10
22.63
19.36
12.38
1.06
-14.34
-32.46
-51.13
-67.93
-80.61
-87.63
-88.83
-85.77
-81.93
-81.83
-89.46
-106.37
-130.68
-157.30
-180.05
-194.21
-198.65
-196.40
-193.77
-197.98
-214.60
-245.27
-286.50
-329.92
-364.13
-378.11
-364.89
-324.47
-264.17
-196.30
-134.08
-87.43
-60.46
-51.40
-54.54
-62.90
-70.40
-72.71
-67.32
-52.96
-29.36
2.66
40.92
81.76
120.33
151.68
172.01
179.71
175.62
162.74
144.85
125.41
106.70
89.72
74.72
61.89
51.79
45.33
43.33
45.98
52.53
61.36
70.42
77.81
82.27
83.41
81.67
77.94
73.28
68.58
64.59
61.96
61.19
62.51
65.52
69.19
71.93
72.15
68.84
62.16
53.47
44.84
38.36
35.31
35.86
39.09
43.46
47.39
49.74
49.95
47.95
43.89
37.88
29.98
20.30
9.34
-1.80
-11.63
-18.66
-22.02
-21.75
-18.91
-15.07
-11.84
-10.49
-11.83
-16.35
-24.33
-35.82
-50.28
-66.48
-82.48
-96.04
-105.21
-108.95
-107.36
-101.66
-93.69
-85.30
-77.81
-71.56
-65.91
-59.55
-50.99
-39.10
-23.43
-4.48
16.39
37.16
55.58
69.60
78.01
80.72
78.86
74.27
68.86
63.92
59.82
56.24
52.50
48.01
42.55
36.45
30.47
25.71
23.22
23.64
26.78
31.69
36.77
40.42
41.58
40.01
36.17
30.81
24.57
17.88
10.98
4.23
-1.92
-7.01
-10.85
-13.63
-15.90
-18.44
-21.87
-26.48
-32.02
-37.72
-42.49
-45.21
-44.99
-41.51
-35.11
-26.68
-17.40
-8.41
-0.52
5.89
10.86
14.59
17.35
19.28
20.43
20.91
20.94
20.83
20.92
21.40
22.21
23.11
23.83
24.22
24.35
24.49
24.91
25.70
26.66
27.40
27.46
26.54
24.58
21.78
18.47
15.10
12.02
9.51
7.71
6.56
5.81
5.09
4.00
2.24
-0.16
-2.92
-5.50
-7.29
-7.83
-7.00
-5.05
-2.53
-0.16
1.45
1.97
1.32
-0.32
-2.77
-5.93
-9.73
-13.96
-18.11
-21.31
-22.55
-21.11
-16.92
-10.67
-3.57
3.12
8.45
12.02
14.00
14.97
15.79
17.47
20.82
26.07
32.65
39.32
44.81
48.56
51.11
53.74
57.68
63.08
68.59
71.80
70.28
62.45
48.22
28.83
6.35
-16.56
-36.94
-51.69
-58.07
-54.76
-42.86
-26.02
-9.47
2.03
5.94
2.56
-5.65
-15.92
-26.57
-37.51
-49.42
-62.59
-76.16
-88.17
-96.51
-99.86
-98.41
-93.93
-89.14
-86.94
-89.46
-97.23
-108.66
-120.82
-130.65
-136.54
-138.81
-138.66
-136.40
-129.99
-115.47
-89.17
-50.46
-3.24
44.97
86.23
115.53
132.65
141.40
146.92
152.68
159.08
163.85
164.05
157.95
145.82
129.37
110.59
90.74
70.12
48.69
26.84
5.87
-12.33
-25.97
-34.19
-37.39
-36.98
-34.68
-31.87
-29.14
-26.24
-22.50
-17.35
-10.80
-3.50
3.47
9.02
12.58
14.14
14.20
13.31
11.82
9.77
6.95
3.22
-1.32
-6.22
-10.79
-14.39
-16.79
-18.22
-19.29
-20.65
-22.64
-25.22
-28.11
-31.11
-34.19
-37.36
-40.31
-42.27
-42.30
-39.83
-35.20
-29.72
-25.04
-22.33
-21.65
-22.07
-22.22
-21.09
-18.31
-14.02
-8.50
-1.90
5.61
13.56
21.05
26.93
30.30
30.95
29.36
26.40
22.81
18.83
14.30
9.03
3.22
-2.46
-7.02
-9.72
-10.43
-9.73
-8.56
-7.69
-7.36
-7.10
-6.10
-3.55
0.77
6.39
12.27
17.22
20.36
21.48
20.99
19.73
18.58
18.17
18.87
20.76
23.79
27.80
32.37
36.78
40.12
41.63
41.13
39.19
36.92
35.52
35.65
37.16
39.38
41.44
42.89
43.88
45.03
47.13
50.80
56.38
63.79
72.54
81.70
89.99
96.09
99.00
98.17
93.63
85.81
75.27
62.73
49.04
35.19
22.06
9.90
-1.97
-14.99
-30.69
-49.69
-71.06
-92.50
-111.30
-125.38
-133.77
-136.16
-132.28
-121.71
-104.48
-82.06
-57.84
-36.38
-21.65
-15.09
-14.86
-16.71
-16.18
-10.70
-0.61
11.57
22.64
30.46
34.57
35.79
35.32
33.95
31.89
28.97
25.06
20.42
15.59
11.22
7.62
4.70
1.95
-1.26
-5.30
-10.05
-14.88
-18.83
-21.04
-21.03
-18.91
-15.21
-10.65
-5.77
-0.80
4.27
9.45
14.55
19.03
22.25
23.66
23.12
20.96
17.91
14.67
11.83
9.63
8.05
6.94
6.15
5.54
4.93
4.05
2.57
0.29
-2.79
-6.35
-9.94
-13.05
-15.34
-16.62
-16.84
-15.97
-14.00
-10.96
-6.96
-2.27
2.70
7.50
11.65
14.72
16.41
16.63
15.46
13.26
10.52
7.80
5.55
4.03
3.26
3.03
3.11
3.21
3.17
2.80
1.99
0.62
-1.36
-3.89
-6.74
-9.58
-12.13
-14.23
-15.99
-17.67
-19.56
-21.81
-24.29
-26.67
-28.49
-29.37
-29.07
-27.53
-24.90
-21.46
-17.65
-13.88
-10.46
-7.54
-5.06
-2.86
-0.85
0.99
2.56
3.67
4.24
4.27
3.87
3.25
2.64
2.18
1.95
1.96
2.10
2.20
2.08
1.60
0.72
-0.58
-2.27
-4.34
-6.73
-9.36
-12.09
-14.74
-17.20
-19.42
-21.44
-23.28
-24.87
-25.98
-26.31
-25.52
-23.49
-20.33
-16.39
-12.12
-7.99
-4.34
-1.39
0.72
1.97
2.43
2.25
1.65
0.87
0.05
-0.75
-1.53
-2.30
-3.03
-3.61
-3.96
-4.03
-3.89
-3.65
-3.45
-3.37
-3.45
-3.73
-4.26
-5.10
-6.29
-7.77
-9.43
-11.12
-12.73
-14.32
-15.96
-17.66
-19.33
-20.64
-21.26
-20.89
-19.46
-17.13
-14.22
-11.06
-7.91
-5.00
-2.46
-0.45
0.93
1.70
1.99
2.02
2.05
2.25
2.60
2.99
3.27
3.31
3.12
2.85
2.64
2.68
3.02
3.58
4.20
4.69
4.87
4.66
3.97
2.82
1.22
-0.73
-2.90
-5.11
-7.20
-9.10
-10.83
-12.48
-14.10
-15.61
-16.79
-17.34
-16.94
-15.46
-13.00
-9.86
-6.43
-3.10
-0.09
2.55
4.86
6.88
8.64
10.12
11.27
12.13
12.81
13.42
14.07
14.74
15.35
15.84
16.14
16.25
16.23
16.13
15.93
15.58
14.97
14.03
12.75
11.19
9.43
7.57
5.68
3.83
2.03
0.28
-1.48
-3.29
-5.21
-7.22
-9.23
-11.11
-12.70
-13.85
-14.45
-14.42
-13.71
-12.31
-10.32
-7.97
-5.61
-3.54
-1.92
-0.75
0.15
0.99
1.83
2.59
3.08
3.12
2.65
1.81
0.84
-0.05
-0.75
-1.27
-1.71
-2.17
-2.63
-3.05
-3.34
-3.49
-3.57
-3.77
-4.30
-5.27
-6.68
-8.40
-10.30
-12.22
-14.11
-15.92
-17.62
-19.12
-20.22
-20.75
-20.58
-19.72
-18.31
-16.56
-14.71
-12.93
-11.31
-9.79
-8.32
-6.81
-5.23
-3.61
-2.00
-0.48
0.84
1.86
2.50
2.71
2.57
2.21
1.77
1.43
1.26
1.25
1.34
1.40
1.32
1.07
0.66
0.16
-0.36
-0.85
-1.33
-1.86
-2.51
-3.36
-4.41
-5.56
-6.75
-7.85
-8.80
-9.59
-10.20
-10.62
-10.82
-10.73
-10.27
-9.39
-8.08
-6.40
-4.49
-2.49
-0.57
1.18
2.69
3.93
4.86
5.49
5.84
6.00
6.12
6.36
6.81
7.45
8.15
8.74
9.15
9.39
9.52
9.64
9.73
9.74
9.51
8.96
8.08
6.93
5.58
4.10
2.46
0.63
-1.43
-3.70
-6.04
-8.30
-10.30
-11.95
-13.22
-14.17
-14.80
-15.06
-14.87
-14.11
-12.74
-10.77
-8.27
-5.35
-2.11
1.21
4.35
6.98
8.81
9.73
9.87
9.54
9.04
8.65
8.47
8.49
8.65
8.95
9.40
9.98
10.60
11.08
11.24
11.00
10.40
9.68
9.09
8.74
8.56
8.26
7.56
6.28
4.48
2.38
0.26
-1.72
-3.54
-5.28
-7.01
-8.70
-10.25
-11.51
-12.38
-12.79
-12.76
-12.24
-11.22
-9.69
-7.75
-5.58
-3.38
-1.34
0.46
1.99
3.27
4.29
5.01
5.42
5.55
5.51
5.43
5.43
5.51
5.66
5.79
5.81
5.66
5.35
4.94
4.50
4.05
3.54
2.89
2.01
0.95
-0.13
-1.04
-1.66
-2.05
-2.43
-3.06
-4.09
-5.49
-7.11
-8.68
-10.01
-10.95
-11.43
-11.40
-10.87
-9.86
-8.47
-6.89
-5.24
-3.69
-2.36
-1.32
-0.63
-0.31
-0.36
-0.68
-1.19
-1.81
-2.49
-3.18
-3.77
-4.16
-4.21
-3.81
-2.95
-1.75
-0.45
0.74
1.63
2.15
2.32
2.22
1.93
1.48
0.85
0.01
-1.07
-2.41
-3.90
-5.46
-6.95
-8.24
-9.34
-10.28
-11.12
-11.90
-12.60
-13.11
-13.27
-12.94
-12.04
-10.61
-8.79
-6.79
-4.90
-3.37
-2.35
-1.90
-1.95
-2.34
-2.89
-3.39
-3.69
-3.64
-3.18
-2.37
-1.34
-0.26
0.74
1.61
2.37
3.11
3.90
4.70
5.44
5.94
6.07
5.80
5.20
4.44
3.67
2.93
2.13
1.10
-0.33
-2.13
-4.12
-6.02
-7.66
-9.03
-10.36
-11.92
-13.87
-16.08
-18.16
-19.62
-20.14
-19.67
-18.48
-16.96
-15.43
-14.00
-12.58
-10.94
-8.96
-6.68
-4.26
-1.96
0.02
1.62
2.85
3.79
4.43
4.74
4.69
4.35
3.89
3.55
3.53
3.86
4.40
4.93
5.21
5.17
4.93
4.72
4.75
5.07
5.56
5.97
6.04
5.68
4.91
3.87
2.65
1.30
-0.22
-1.93
-3.80
-5.76
-7.72
-9.61
-11.48
-13.40
-15.42
-17.46
-19.34
-20.75
-21.41
-21.16
-19.99
-18.06
-15.64
-12.98
-10.31
-7.73
-5.26
-2.86
-0.48
1.87
4.09
6.07
7.69
8.89
9.75
10.38
10.93
11.53
12.23
13.06
14.06
15.21
16.45
17.63
18.54
19.03
19.08
18.86
18.57
18.31
17.95
17.22
15.82
13.64
10.82
7.70
4.67
1.97
-0.34
-2.37
-4.29
-6.24
-8.32
-10.58
-13.05
-15.70
-18.38
-20.83
-22.69
-23.56
-23.14
-21.30
-18.16
-14.09
-9.62
-5.28
-1.52
1.44
3.59
5.04
6.02
6.69
7.14
7.39
7.44
7.30
7.08
6.93
6.98
7.34
7.99
8.81
9.56
9.99
9.92
9.31
8.24
6.88
5.43
3.98
2.52
1.01
-0.58
-2.20
-3.76
-5.10
-6.24
-7.25
-8.35
-9.72
-11.46
-13.47
-15.59
-17.63
-19.39
-20.76
-21.60
-21.76
-21.02
-19.26
-16.44
-12.77
-8.58
-4.32
-0.40
2.91
5.47
7.30
8.47
9.13
9.44
9.51
9.50
9.47
9.51
9.68
10.00
10.52
11.25
12.14
13.07
13.88
14.43
14.60
14.38
13.87
13.18
12.39
11.50
10.41
8.98
7.14
4.91
2.41
-0.15
-2.60
-4.80
-6.76
-8.63
-10.59
-12.87
-15.59
-18.72
-21.99
-24.98
-27.14
-27.99
-27.26
-24.95
-21.30
-16.70
-11.61
-6.45
-1.58
2.72
6.25
8.93
10.86
12.22
13.32
14.40
15.61
16.92
18.17
19.19
19.88
20.27
20.43
20.45
20.39
20.26
20.08
19.89
19.74
19.60
19.35
18.84
17.97
16.78
15.43
14.06
12.74
11.40
9.88
8.04
5.89
3.54
1.19
-1.09
-3.27
-5.48
-7.86
-10.54
-13.57
-16.87
-20.18
-23.08
-25.05
-25.59
-24.43
-21.57
-17.40
-12.47
-7.38
-2.60
1.63
5.21
8.15
10.49
12.26
13.51
14.39
15.04
15.62
16.25
16.98
17.79
18.63
19.43
20.19
20.90
21.62
22.35
23.03
23.48
23.42
22.69
21.21
19.14
16.77
14.43
12.28
10.28
8.21
5.87
3.17
0.30
-2.47
-4.89
-6.92
-8.75
-10.69
-13.07
-16.00
-19.38
-22.86
-25.98
-28.23
-29.16
-28.54
-26.30
-22.62
-17.85
-12.42
-6.79
-1.32
3.67
7.97
11.41
13.94
15.57
16.46
16.81
16.82
16.65
16.42
16.19
16.00
15.93
16.03
16.31
16.72
17.12
17.39
17.40
17.15
16.67
16.02
15.16
13.97
12.28
9.97
7.07
3.81
0.50
-2.59
-5.31
-7.72
-9.97
-12.23
-14.62
-17.16
-19.84
-22.58
-25.20
-27.40
-28.79
-28.99
-27.74
-25.02
-21.01
-16.07
-10.56
-4.83
0.83
6.11
10.69
14.26
16.56
17.51
17.24
16.11
14.60
13.27
12.57
12.75
13.75
15.28
16.92
18.27
19.14
19.53
19.61
19.53
19.35
18.99
18.28
17.09
15.40
13.29
10.94
8.50
6.10
3.77
1.55
-0.56
-2.52
-4.35
-6.13
-8.02
-10.21
-12.87
-16.08
-19.81
-23.90
-28.06
-31.88
-34.82
-36.31
-35.90
-33.35
-28.83
-22.86
-16.22
-9.64
-3.63
1.65
6.28
10.38
13.97
16.93
19.08
20.34
20.86
20.96
21.05
21.32
21.76
22.13
22.19
21.85
21.28
20.77
20.59
20.78
21.14
21.29
20.90
19.84
18.24
16.39
14.55
12.86
11.28
9.64
7.73
5.41
2.68
-0.32
-3.32
-6.10
-8.54
-10.69
-12.75
-14.97
-17.56
-20.57
-23.89
-27.26
-30.30
-32.58
-33.64
-33.08
-30.68
-26.49
-20.85
-14.32
-7.60
-1.32
4.05
8.26
11.27
13.24
14.46
15.22
15.79
16.30
16.71
16.90
16.78
16.38
15.86
15.50
15.54
16.09
17.08
18.30
19.40
20.02
19.86
18.79
16.90
14.42
11.71
9.04
6.60
4.42
2.37
0.33
-1.80
-4.05
-6.44
-8.95
-11.61
-14.36
-17.18
-20.00
-22.75
-25.35
-27.71
-29.58
-30.66
-30.52
-28.84
-25.52
-20.75
-14.99
-8.86
-2.96
2.28
6.57
9.83
12.10
13.47
14.11
14.19
13.86
13.24
12.48
11.72
11.15
10.92
11.13
11.72
12.51
13.26
13.69
13.62
13.02
11.90
10.36
8.52
6.49
4.34
2.06
-0.33
-2.83
-5.37
-7.84
-10.15
-12.26
-14.29
-16.49
-19.10
-22.30
-25.94
-29.67
-32.82
-34.69
-34.71
-32.56
-28.36
-22.55
-15.85
-8.97
-2.57
2.95
7.45
10.97
13.65
15.62
17.02
17.93
18.41
18.54
18.38
18.04
17.61
17.19
16.85
16.64
16.54
16.50
16.40
16.10
15.44
14.31
12.66
10.54
8.02
5.26
2.31
-0.74
-3.86
-6.95
-9.94
-12.72
-15.21
-17.49
-19.72
-22.17
-25.02
-28.27
-31.63
-34.54
-36.32
-36.33
-34.28
-30.20
-24.55
-17.96
-11.14
-4.69
0.98
5.65
9.27
11.93
13.82
15.23
16.42
17.62
18.89
20.22
21.52
22.73
23.87
24.95
25.91
26.56
26.67
26.04
24.68
22.78
20.61
18.42
16.26
14.05
11.64
8.92
5.92
2.81
-0.25
-3.12
-5.82
-8.44
-11.13
-14.02
-17.22
-20.81
-24.79
-29.07
-33.36
-37.15
-39.71
-40.28
-38.35
-33.79
-27.03
-18.92
-10.49
-2.66
3.94
9.04
12.72
15.14
16.53
17.14
17.20
16.91
16.54
16.24
16.14
16.27
16.59
17.08
17.64
18.27
18.88
19.46
19.91
20.05
19.65
18.41
16.14
12.77
8.51
3.74
-1.06
-5.47
-9.29
-12.54
-15.39
-18.09
-20.92
-24.04
-27.50
-31.17
-34.65
-37.34
-38.50
-37.49
-33.97
-28.03
-20.25
-11.53
-2.93
4.64
10.66
15.03
17.97
19.90
21.16
21.93
22.23
22.01
21.32
20.36
19.41
18.76
18.54
18.71
19.11
19.48
19.65
19.53
19.12
18.52
17.78
16.95
15.97
14.67
12.85
10.34
7.06
3.09
-1.36
-6.00
-10.51
-14.64
-18.29
-21.45
-24.34
-27.22
-30.40
-34.02
-37.93
-41.65
-44.51
-45.77
-44.87
-41.54
-35.94
-28.52
-19.99
-11.12
-2.63
4.89
11.04
15.65
18.74
20.50
21.23
21.29
21.03
20.76
20.69
20.92
21.41
22.08
22.76
23.34
23.77
24.11
24.38
24.60
24.63
24.24
23.17
21.33
18.80
15.92
13.06
10.47
8.16
5.94
3.48
0.57
-2.81
-6.46
-10.05
-13.34
-16.21
-18.77
-21.26
-24.00
-27.24
-31.06
-35.23
-39.24
-42.40
-43.96
-43.31
-40.24
-34.86
-27.64
-19.32
-10.71
-2.55
4.59
10.33
14.57
17.33
18.81
19.29
19.10
18.53
17.88
17.40
17.26
17.53
18.17
19.07
20.05
20.89
21.39
21.40
20.87
19.86
18.45
16.78
14.88
12.73
10.22
7.36
4.23
1.01
-2.08
-4.94
-7.58
-10.07
-12.56
-15.17
-17.93
-20.91
-24.17
-27.72
-31.39
-34.78
-37.22
-38.01
-36.55
-32.62
-26.49
-18.86
-10.60
-2.54
4.67
10.70
15.42
18.87
21.19
22.57
23.27
23.57
23.70
23.86
24.12
24.49
24.94
25.44
25.97
26.51
27.06
27.54
27.92
28.08
27.89
27.19
25.87
23.85
21.19
18.04
14.62
11.16
7.80
4.59
1.50
-1.56
-4.63
-7.68
-10.62
-13.41
-16.01
-18.46
-20.91
-23.55
-26.59
-30.15
-34.20
-38.47
-42.45
-45.38
-46.46
-45.03
-40.78
-33.94
-25.27
-15.82
-6.73
1.12
7.32
11.85
15.04
17.27
18.85
19.93
20.60
20.97
21.18
21.43
21.82
22.38
23.03
23.67
24.29
24.92
25.66
26.55
27.48
28.24
28.56
28.22
27.08
25.21
22.78
20.01
17.09
14.09
10.97
7.62
3.96
-0.02
-4.18
-8.26
-11.98
-15.12
-17.63
-19.58
-21.24
-22.98
-25.21
-28.29
-32.32
-37.04
-41.81
-45.64
-47.47
-46.52
-42.53
-35.87
-27.43
-18.31
-9.54
-1.84
4.45
9.32
12.95
15.60
17.55
18.99
20.05
20.79
21.27
21.57
21.84
22.22
22.83
23.66
24.60
25.50
26.26
26.82
27.17
27.27
26.99
26.16
24.66
22.40
19.49
16.12
12.56
9.06
5.72
2.52
-0.67
-4.03
-7.67
-11.52
-15.41
-19.05
-22.23
-24.91
-27.30
-29.76
-32.67
-36.17
-40.10
-43.91
-46.80
-47.94
-46.66
-42.76
-36.48
-28.52
-19.80
-11.27
-3.68
2.55
7.36
10.94
13.52
15.32
16.44
16.95
16.88
16.40
15.71
15.05
14.64
14.61
15.00
15.72
16.60
17.44
18.06
18.30
18.12
17.52
16.52
15.14
13.32
10.97
8.04
4.56
0.66
-3.42
-7.44
-11.18
-14.56
-17.58
-20.39
-23.17
-26.18
-29.55
-33.32
-37.20
-40.65
-42.92
-43.22
-41.05
-36.25
-29.20
-20.66
-11.58
-2.85
4.85
11.12
15.81
19.01
20.92
21.84
22.05
21.82
21.32
20.66
19.94
19.28
18.84
18.75
19.07
19.75
20.62
21.45
22.03
22.18
21.83
20.96
19.56
17.64
15.22
12.35
9.10
5.58
1.91
-1.77
-5.39
-8.90
-12.30
-15.57
-18.75
-21.89
-25.12
-28.58
-32.36
-36.43
-40.41
-43.63
-45.25
-44.52
-41.06
-35.04
-27.13
-18.28
-9.44
-1.35
5.55
11.11
15.36
18.45
20.61
22.09
23.12
23.87
24.43
24.76
24.82
24.60
24.19
23.78
23.56
23.63
23.95
24.35
24.55
24.34
23.61
22.37
20.66
18.56
16.07
13.22
10.03
6.60
3.05
-0.50
-4.00
-7.43
-10.76
-13.95
-16.89
-19.57
-22.04
-24.53
-27.38
-30.82
-34.84
-39.06
-42.74
-44.95
-44.89
-42.14
-36.78
-29.43
-20.97
-12.37
-4.44
2.31
7.69
11.78
14.76
16.90
18.38
19.31
19.77
19.88
19.80
19.73
19.88
20.35
21.09
21.89
22.59
22.97
23.01
22.69
22.00
20.92
19.34
17.23
14.64
11.76
8.79
5.86
2.95
-0.04
-3.29
-6.85
-10.60
-14.28
-17.64
-20.50
-22.87
-24.89
-26.85
-29.01
-31.51
-34.27
-36.92
-38.87
-39.39
-37.86
-33.95
-27.74
-19.74
-10.75
-1.68
6.67
13.67
19.00
22.59
24.55
25.15
24.64
23.34
21.50
19.42
17.42
15.81
14.80
14.45
14.63
15.08
15.53
15.78
15.69
15.23
14.41
13.26
11.81
10.12
8.15
5.84
3.10
-0.09
-3.69
-7.48
-11.22
-14.67
-17.76
-20.53
-23.15
-25.83
-28.73
-31.97
-35.55
-39.29
-42.75
-45.28
-46.02
-44.23
-39.53
-32.10
-22.73
-12.55
-2.78
5.64
12.22
16.90
19.89
21.53
22.18
22.17
21.82
21.47
21.36
21.62
22.18
22.83
23.39
23.75
23.94
24.07
24.18
24.19
23.89
23.06
21.56
19.41
16.77
13.81
10.65
7.30
3.76
0.07
-3.65
-7.17
-10.35
-13.11
-15.49
-17.64
-19.73
-21.96
-24.53
-27.62
-31.30
-35.46
-39.63
-43.05
-44.80
-44.16
-40.72
-34.65
-26.60
-17.47
-8.25
0.29
7.62
13.51
17.92
21.04
23.05
24.24
24.84
25.04
24.95
24.72
24.49
24.42
24.68
25.29
26.22
27.25
28.15
28.73
28.87
28.53
27.68
26.28
24.31
21.78
18.80
15.54
12.15
8.73
5.32
1.90
-1.57
-5.05
-8.46
-11.69
-14.66
-17.32
-19.73
-22.06
-24.58
-27.61
-31.37
-35.84
-40.60
-44.82
-47.47
-47.58
-44.57
-38.47
-29.95
-20.10
-10.16
-1.17
6.21
11.79
15.66
18.14
19.57
20.19
20.13
19.49
18.41
17.09
15.88
15.07
14.91
15.43
16.53
17.95
19.36
20.44
20.95
20.72
19.68
17.88
15.43
12.45
9.12
5.51
1.73
-2.13
-5.94
-9.53
-12.77
-15.64
-18.25
-20.76
-23.33
-26.07
-28.98
-32.03
-35.04
-37.71
-39.55
-39.94
-38.31
-34.30
-28.06
-20.12
-11.38
-2.74
5.11
11.73
16.99
20.82
23.21
24.17
23.82
22.41
20.37
18.18
16.34
15.16
14.75
15.02
15.73
16.62
17.46
18.10
18.47
18.53
18.24
17.52
16.28
14.46
12.00
8.94
5.36
1.44
-2.68
-6.78
-10.64
-14.08
-17.03
-19.58
-21.96
-24.53
-27.57
-31.17
-35.10
-38.77
-41.35
-41.96
-39.97
-35.14
-27.78
-18.67
-8.87
0.52
8.59
14.83
19.23
22.10
23.94
25.18
26.06
26.65
26.86
26.65
26.08
25.30
24.46
23.69
22.99
22.34
21.70
21.08
20.49
19.93
19.34
18.57
17.45
15.84
13.69
11.03
7.99
4.71
1.35
-1.95
-5.11
-8.10
-10.91
-13.63
-16.33
-19.15
-22.26
-25.78
-29.75
-34.01
-38.13
-41.38
-42.90
-41.94
-38.10
-31.54
-22.95
-13.46
-4.24
3.71
9.86
14.16
16.89
18.55
19.57
20.22
20.63
20.80
20.75
20.52
20.25
20.14
20.30
20.78
21.46
22.13
22.55
22.49
21.81
20.47
18.54
16.17
13.54
10.77
7.89
4.90
1.74
-1.58
-5.01
-8.46
-11.84
-15.10
-18.22
-21.22
-24.13
-27.05
-30.11
-33.42
-36.94
-40.35
-43.02
-44.10
-42.81
-38.80
-32.24
-23.89
-14.80
-6.05
1.60
7.76
12.38
15.65
17.75
18.84
19.05
18.52
17.50
16.29
15.21
14.49
14.19
14.23
14.44
14.65
14.76
14.78
14.74
14.64
14.36
13.67
12.33
10.16
7.13
3.43
-0.56
-4.47
-8.01
-11.10
-13.90
-16.75
-19.99
-23.86
-28.34
-33.03
-37.22
-39.97
-40.40
-37.97
-32.70
-25.17
-16.37
-7.39
0.88
7.85
13.33
17.38
20.13
21.72
22.32
22.14
21.47
20.62
19.85
19.35
19.14
19.12
19.19
19.27
19.41
19.66
20.10
20.63
21.00
20.85
19.76
17.48
14.02
9.64
4.82
0.03
-4.37
-8.20
-11.55
-14.65
-17.82
-21.38
-25.53
-30.29
-35.37
-40.18
-43.88
-45.56
-44.50
-40.41
-33.57
-24.82
-15.22
-5.85
2.48
9.38
14.83
19.04
22.34
24.94
26.94
28.29
28.99
29.08
28.65
27.93
27.08
26.23
25.41
24.62
23.79
22.92
21.99
20.99
19.91
18.69
17.28
15.61
13.58
11.14
8.25
4.91
1.22
-2.67
-6.59
-10.40
-14.02
-17.50
-20.95
-24.60
-28.61
-33.04
-37.67
-42.00
-45.27
-46.62
-45.39
-41.29
-34.56
-25.83
-16.13
-6.45
2.29
9.52
15.04
18.95
21.58
23.28
24.32
24.84
24.91
24.57
23.97
23.32
22.79
22.52
22.53
22.73
22.97
23.08
22.89
22.29
21.22
19.68
17.79
15.64
13.36
10.93
8.26
5.17
1.52
-2.68
-7.20
-11.69
-15.77
-19.17
-21.89
-24.15
-26.35
-28.95
-32.28
-36.39
-40.93
-45.18
-48.09
-48.66
-46.22
-40.71
-32.72
-23.33
-13.73
-4.85
2.73
8.85
13.56
16.96
19.14
20.22
20.38
19.92
19.17
18.49
18.12
18.16
18.55
19.10
19.62
19.92
19.95
19.76
19.40
18.90
18.18
17.04
15.24
12.62
9.25
5.36
1.34
-2.46
-5.81
-8.73
-11.39
-14.10
-17.15
-20.72
-24.93
-29.63
-34.49
-38.87
-41.95
-42.90
-41.12
-36.48
-29.42
-20.84
-11.76
-3.08
4.65
11.23
16.68
21.06
24.41
26.72
28.03
28.47
28.26
27.65
26.87
26.07
25.34
24.74
24.34
24.23
24.43
24.90
25.50
26.04
26.27
26.05
25.20
23.65
21.33
18.23
14.43
10.11
5.63
1.36
-2.40
-5.57
-8.43
-11.47
-15.22
-20.06
-26.10
-33.11
-40.64
-48.10
-54.72
-59.64
-61.96
-60.91
-56.16
-48.04
-37.56
-26.13
-15.24
-6.00
1.06
6.00
9.22
11.20
12.31
12.73
12.50
11.61
10.11
8.11
5.82
3.41
1.06
-1.10
-2.92
-4.26
-5.02
-5.18
-4.95
-4.70
-4.91
-6.00
-8.15
-11.35
-15.42
-20.16
-25.43
-31.09
-36.98
-42.68
-47.65
-51.32
-53.39
-53.97
-53.57
-52.87
-52.50
-52.86
-54.07
-56.07
-58.68
-61.64
-64.41
-66.13
-65.66
-61.77
-53.56
-40.79
-24.11
-4.90
14.94
33.53
49.38
61.64
70.09
75.09
77.33
77.67
77.03
76.11
75.25
74.14
71.88
67.22
59.21
47.77
33.93
19.67
7.21
-1.80
-6.79
-8.32
-7.71
-6.44
-5.66
-6.05
-7.79
-10.78
-14.69
-18.98
-22.95
-25.85
-27.06
-26.36
-24.06
-20.85
-17.64
-15.02
-13.13
-11.52
-9.33
-5.71
-0.17
7.15
15.52
23.83
31.07
36.67
40.65
43.51
45.84
47.99
49.79
50.75
50.31
48.22
44.66
40.21
35.55
31.18
27.28
23.78
20.47
17.14
13.65
9.87
5.69
0.98
-4.34
-10.23
-16.56
-23.09
-29.57
-35.72
-41.21
-45.69
-48.71
-49.90
-49.10
-46.72
-43.67
-41.11
-39.89
-39.93
-40.16
-38.89
-34.67
-26.90
-16.15
-3.57
9.74
23.27
37.04
51.00
64.50
76.10
84.12
87.44
86.18
81.64
75.68
69.86
64.71
59.87
54.51
48.10
40.94
34.00
28.46
25.04
23.69
23.63
23.97
24.14
24.10
24.10
24.20
24.00
22.68
19.48
14.08
6.91
-1.09
-8.88
-15.71
-21.52
-26.94
-33.28
-42.12
-54.83
-71.91
-92.58
-114.76
-135.55
-152.10
-162.33
-165.23
-160.66
-148.86
-130.07
-104.62
-73.30
-37.82
-0.82
34.60
65.61
90.24
107.62
117.82
121.50
119.54
112.87
102.57
89.89
76.35
63.49
52.55
44.13
38.12
33.85
30.46
27.24
23.86
20.31
16.71
13.09
9.31
5.20
0.65
-4.28
-9.37
-14.38
-19.12
-23.53
-27.57
-31.22
-34.40
-37.09
-39.31
-41.19
-42.97
-44.90
-47.12
-49.50
-51.62
-52.77
-52.18
-49.21
-43.62
-35.71
-26.23
-16.13
-6.35
2.41
9.75
15.53
19.80
22.67
24.29
24.86
24.62
23.91
23.11
22.56
22.48
22.90
23.67
24.48
25.01
25.07
24.66
23.95
23.17
22.45
21.75
20.84
19.43
17.31
14.41
10.88
6.98
3.00
-0.84
-4.47
-7.94
-11.40
-15.02
-18.97
-23.30
-27.89
-32.39
-36.18
-38.51
-38.66
-36.12
-30.86
-23.29
-14.24
-4.74
4.29
12.16
18.53
23.32
26.64
28.62
29.38
29.07
27.92
26.25
24.52
23.17
22.54
22.72
23.49
24.43
25.01
24.85
23.87
22.32
20.62
19.09
17.88
16.82
15.56
13.74
11.11
7.70
3.76
-0.30
-4.06
-7.18
-9.56
-11.36
-12.97
-14.87
-17.43
-20.79
-24.84
-29.25
-33.59
-37.33
-39.83
-40.39
-38.44
-33.69
-26.46
-17.58
-8.23
0.48
7.84
13.72
18.38
22.23
25.57
28.51
30.98
32.89
34.20
34.99
35.44
35.72
35.93
36.17
36.47
36.88
37.47
38.29
39.29
40.33
41.12
41.41
41.09
40.27
39.21
38.17
37.20
36.04
34.26
31.42
27.36
22.37
17.01
11.99
7.86
4.79
2.42
0.06
-3.17
-8.02
-14.81
-23.33
-32.71
-41.60
-48.45
-52.04
-51.65
-47.37
-40.02
-30.82
-21.11
-12.03
-4.29
1.80
6.18
8.99
10.42
10.67
10.03
8.95
7.91
7.44
7.84
9.12
11.04
13.16
15.05
16.48
17.42
18.01
18.45
18.92
19.58
20.56
21.77
22.76
22.56
19.66
12.50
0.07
-17.63
-39.39
-63.19
-86.89
-108.76
-127.65
-142.77
-153.20
-157.68
-154.89
-144.02
-125.34
-100.52
-72.26
-43.62
-17.29
4.89
22.08
34.16
41.56
44.93
45.09
42.97
39.54
35.75
32.37
29.90
28.50
28.09
28.40
29.11
29.92
30.61
31.01
30.99
30.51
29.54
28.09
26.22
23.95
21.36
18.45
15.24
11.73
7.96
3.99
-0.06
-4.04
-7.82
-11.35
-14.74
-18.23
-22.12
-26.62
-31.61
-36.54
-40.48
-42.40
-41.52
-37.64
-31.18
-23.10
-14.48
-6.18
1.34
7.96
13.72
18.63
22.55
25.32
26.93
27.57
27.67
27.66
27.84
28.27
28.80
29.24
29.51
29.68
29.96
30.52
31.44
32.53
33.45
33.77
33.17
31.53
29.02
25.98
22.92
20.26
18.23
16.72
15.37
13.62
11.06
7.59
3.39
-1.04
-5.17
-8.62
-11.25
-13.03
-14.05
-14.66
-15.69
-18.52
-24.74
-35.49
-50.73
-69.09
-88.21
-105.62
-119.35
-128.19
-131.26
-127.54
-115.94
-95.80
-67.83
-34.59
-0.14
31.00
55.34
71.28
79.21
80.78
78.03
72.70
65.99
58.64
51.25
44.42
38.63
34.18
30.90
28.28
25.53
22.02
17.47
12.06
6.32
0.78
-4.18
-8.57
-12.70
-17.01
-21.83
-27.14
-32.51
-37.09
-39.95
-40.28
-37.73
-32.47
-25.19
-16.77
-8.14
-0.01
7.21
13.27
18.08
21.56
23.74
24.73
24.85
24.47
23.99
23.71
23.69
23.86
24.06
24.19
24.29
24.55
25.16
26.17
27.35
28.15
27.78
25.50
20.87
13.91
5.19
-4.38
-13.76
-22.08
-28.82
-33.86
-37.44
-40.06
-42.33
-44.78
-47.67
-50.86
-53.77
-55.56
-55.41
-52.83
-47.81
-40.83
-32.68
-24.13
-15.81
-8.06
-1.05
5.13
10.37
14.57
17.71
19.91
21.41
22.49
23.39
24.20
24.92
25.46
25.75
25.80
25.75
25.74
25.87
26.17
26.55
26.82
26.77
26.18
24.87
22.74
19.76
16.03
11.81
7.43
3.23
-0.52
-3.75
-6.54
-9.13
-11.76
-14.61
-17.77
-21.25
-24.91
-28.40
-31.16
-32.45
-31.57
-28.10
-22.06
-14.00
-4.81
4.53
13.19
20.61
26.49
30.67
33.05
33.61
32.43
29.83
26.33
22.69
19.70
18.02
18.05
19.81
22.94
26.85
30.94
34.81
38.23
41.12
43.28
44.35
43.86
41.43
37.02
31.13
24.66
18.68
13.97
10.81
8.86
7.36
5.59
3.21
0.52
-1.73
-2.64
-1.69
0.95
4.41
7.31
8.33
6.68
2.49
-3.14
-8.29
-10.74
-8.68
-1.51
9.63
21.81
31.00
33.16
25.61
8.06
-17.29
-46.50
-75.25
-100.39
-120.67
-136.66
-149.75
-161.00
-170.20
-175.82
-175.52
-167.06
-149.14
-121.86
-86.82
-46.91
-6.00
31.74
62.43
83.38
93.61
94.03
86.99
75.51
62.39
49.69
38.50
29.23
21.86
16.14
11.70
8.01
4.42
0.37
-4.44
-9.93
-15.64
-21.08
-25.86
-29.89
-33.22
-35.88
-37.56
-37.66
-35.53
-30.78
-23.59
-14.79
-5.55
2.92
9.74
14.54
17.36
18.58
18.63
17.99
17.07
16.17
15.51
15.15
15.07
15.17
15.39
15.65
15.93
16.18
16.39
16.55
16.69
16.76
16.64
16.12
14.93
12.90
10.11
6.81
3.46
0.45
-2.01
-3.98
-5.72
-7.67
-10.27
-13.94
-18.86
-24.89
-31.41
-37.41
-41.71
-43.26
-41.56
-36.74
-29.57
-21.14
-12.57
-4.70
2.00
7.36
11.47
14.53
16.77
18.46
19.82
20.98
21.92
22.53
22.71
22.46
21.90
21.31
20.97
21.02
21.42
21.97
22.34
22.25
21.49
19.97
17.71
14.85
11.67
8.47
5.54
3.01
0.75
-1.52
-4.10
-7.19
-10.72
-14.54
-18.46
-22.40
-26.46
-30.73
-35.12
-39.19
-42.26
-43.48
-42.28
-38.51
-32.50
-24.94
-16.71
-8.53
-0.92
5.86
11.76
16.75
20.79
23.81
25.74
26.61
26.59
25.94
24.96
24.01
23.31
23.01
23.09
23.46
23.95
24.37
24.57
24.49
24.11
23.47
22.59
21.44
19.93
17.96
15.45
12.40
8.93
5.32
1.87
-1.13
-3.54
-5.41
-7.02
-8.70
-10.77
-13.43
-16.73
-20.60
-24.86
-29.21
-33.20
-36.20
-37.47
-36.36
-32.58
-26.33
-18.36
-9.67
-1.24
6.21
12.37
17.22
20.92
23.61
25.45
26.59
27.27
27.80
28.44
29.27
30.21
30.96
31.16
30.57
29.11
26.95
24.43
21.84
19.30
16.71
13.81
10.31
6.13
1.41
-3.48
-8.16
-12.33
-15.91
-18.98
-21.74
-24.48
-27.48
-30.97
-35.10
-39.78
-44.66
-49.09
-52.25
-53.33
-51.87
-47.81
-41.60
-33.99
-25.80
-17.68
-9.98
-2.85
3.66
9.37
14.07
17.47
19.49
20.32
20.37
20.13
20.01
20.19
20.69
21.41
22.27
23.15
23.96
24.58
24.84
24.62
23.85
22.56
20.83
18.72
16.23
13.34
10.04
6.38
2.54
-1.32
-5.05
-8.59
-11.96
-15.27
-18.64
-22.22
-26.11
-30.32
-34.73
-38.96
-42.44
-44.47
-44.39
-41.84
-36.87
-29.98
-21.97
-13.69
-5.83
1.22
7.33
12.53
16.86
20.29
22.76
24.25
24.87
24.87
24.57
24.28
24.21
24.41
24.90
25.63
26.55
27.61
28.69
29.67
30.42
30.87
30.94
30.57
29.65
28.10
25.84
22.93
19.61
16.24
13.23
10.82
9.07
7.71
6.29
4.34
1.51
-2.17
-6.40
-10.63
-14.30
-16.96
-18.39
-18.49
-17.13
-14.19
-9.63
-3.57
3.56
11.20
19.01
27.01
35.52
44.55
53.04
58.48
57.41
46.61
24.54
-7.69
-46.35
-86.21
-121.85
-148.88
-164.41
-166.96
-156.28
-133.34
-100.46
-61.34
-20.67
16.79
47.20
68.48
80.36
84.00
81.33
74.42
65.11
54.88
44.84
35.73
27.94
21.53
16.35
12.16
8.67
5.65
2.82
-0.21
-3.86
-8.52
-14.29
-20.89
-27.61
-33.54
-37.71
-39.46
-38.46
-34.84
-29.13
-22.09
-14.59
-7.44
-1.25
3.64
7.12
9.32
10.45
10.71
10.33
9.49
8.46
7.57
7.20
7.56
8.75
10.60
12.77
14.94
16.80
18.20
19.09
19.46
19.25
18.40
16.85
14.57
11.69
8.37
4.86
1.39
-1.89
-4.90
-7.67
-10.35
-13.13
-16.20
-19.71
-23.55
-27.34
-30.44
-32.06
-31.50
-28.41
-22.92
-15.58
-7.29
1.09
8.82
15.46
20.80
24.85
27.72
29.52
30.46
30.69
30.38
29.63
28.48
26.94
25.02
22.76
20.21
17.36
14.18
10.67
6.91
3.17
-0.22
-3.08
-5.64
-8.72
-13.50
-21.17
-32.37
-46.95
-64.07
-82.36
-100.26
-115.98
-127.48
-132.48
-129.01
-116.14
-94.55
-66.77
-36.56
-7.80
16.44
34.52
46.16
51.93
52.79
49.81
44.24
37.43
30.79
25.45
22.01
20.39
19.97
19.92
19.58
18.69
17.43
16.21
15.41
15.23
15.56
16.03
16.19
15.69
14.37
12.29
9.61
6.54
3.29
0.05
-3.04
-5.96
-8.78
-11.68
-14.73
-17.77
-20.30
-21.51
-20.57
-16.94
-10.64
-2.28
7.08
16.24
24.19
30.33
34.49
36.93
38.14
38.62
38.75
38.66
38.32
37.64
36.66
35.55
34.57
33.86
33.39
32.84
31.86
30.24
27.93
24.99
21.47
17.40
12.87
8.28
4.42
2.11
1.45
1.12
-1.70
-10.47
-27.68
-53.60
-85.78
-119.75
-150.37
-173.03
-184.27
-181.89
-164.94
-134.03
-91.85
-43.34
5.07
47.02
77.96
96.25
103.05
101.24
94.02
84.11
73.40
63.18
54.37
47.51
42.77
39.89
38.31
37.34
36.42
35.19
33.48
31.26
28.60
25.64
22.56
19.58
16.79
14.27
11.97
9.77
7.56
5.16
2.37
-0.99
-5.02
-9.58
-14.22
-18.21
-20.70
-20.96
-18.65
-13.88
-7.22
0.53
8.58
16.31
23.39
29.71
35.31
40.13
43.93
46.29
46.80
45.44
42.82
40.21
39.01
39.88
41.98
42.73
38.52
25.93
3.14
-29.25
-68.38
-109.67
-147.75
-177.14
-192.96
-191.67
-172.15
-136.49
-90.13
-40.80
3.45
36.45
55.35
60.66
55.25
42.89
27.04
10.49
-4.58
-16.43
-23.73
-25.92
-23.42
-17.61
-10.36
-3.35
2.40
6.74
10.10
13.09
16.00
18.75
20.98
22.33
22.75
22.44
21.83
21.41
21.49
22.18
23.35
24.68
25.80
26.36
26.18
25.26
23.74
21.81
19.57
17.06
14.28
11.30
8.20
5.09
1.99
-1.11
-4.27
-7.46
-10.60
-13.59
-16.48
-19.49
-22.92
-26.91
-31.31
-35.53
-38.70
-39.99
-38.88
-35.27
-29.56
-22.42
-14.61
-6.86
0.28
6.45
11.47
15.35
18.23
20.33
21.83
22.86
23.55
23.96
24.16
24.24
24.22
24.13
24.02
23.88
23.78
23.74
23.74
23.61
23.16
22.19
20.65
18.67
16.49
14.29
12.10
9.75
7.02
3.83
0.31
-3.18
-6.24
-8.64
-10.42
-11.91
-13.59
-15.88
-19.02
-22.99
-27.49
-31.95
-35.66
-37.87
-37.99
-35.77
-31.33
-25.19
-17.99
-10.40
-2.90
4.14
10.52
16.10
20.77
24.48
27.20
28.99
30.01
30.49
30.74
31.04
31.50
32.09
32.58
32.72
32.35
31.54
30.47
29.32
28.19
26.98
25.49
23.59
21.28
18.67
15.84
12.84
9.64
6.13
2.28
-1.87
-6.23
-10.61
-14.80
-18.60
-21.87
-24.61
-26.99
-29.38
-32.15
-35.56
-39.44
-43.21
-45.98
-46.75
-44.80
-39.94
-32.60
-23.65
-14.24
-5.37
2.23
8.25
12.77
16.06
18.42
20.06
21.08
21.54
21.60
21.48
21.49
21.82
22.47
23.21
23.78
24.08
24.24
24.64
25.58
27.12
29.00
30.73
31.85
32.03
31.11
29.01
25.70
21.24
15.89
10.12
4.50
-0.54
-4.86
-8.70
-12.54
-16.87
-21.97
-27.83
-34.07
-40.03
-44.80
-47.42
-47.13
-43.66
-37.33
-28.91
-19.39
-9.59
-0.09
8.76
16.53
22.42
25.21
23.62
16.80
5.02
-10.28
-26.87
-42.44
-55.36
-64.81
-70.56
-72.41
-69.85
-62.23
-49.31
-31.88
-11.93
7.79
24.66
36.99
44.39
47.48
47.39
45.20
41.64
37.14
31.93
26.29
20.58
15.21
10.50
6.54
3.17
0.00
-3.36
-7.25
-11.71
-16.61
-21.64
-26.45
-30.68
-34.06
-36.28
-37.07
-36.27
-33.85
-29.97
-24.95
-19.21
-13.13
-7.03
-1.14
4.38
9.35
13.59
16.90
19.17
20.45
20.97
21.03
20.97
21.01
21.17
21.37
21.52
21.61
21.76
22.15
22.87
23.78
24.58
24.82
24.24
22.81
20.89
19.07
17.89
17.53
17.70
17.70
16.74
14.39
10.88
7.01
3.88
2.27
2.22
2.89
2.93
1.11
-2.98
-8.63
-14.18
-17.56
-17.10
-12.05
-2.83
9.10
21.46
31.52
36.60
34.76
25.67
11.01
-5.49
-19.24
-26.56
-26.56
-21.94
-18.10
-20.80
-33.41
-55.38
-82.53
-109.06
-129.81
-141.57
-143.03
-133.87
-114.06
-84.10
-45.87
-3.39
37.45
70.49
91.31
98.72
94.84
83.77
69.87
56.33
44.69
35.11
27.03
19.73
12.72
5.85
-0.78
-6.92
-12.28
-16.56
-19.45
-20.61
-19.76
-16.76
-11.72
-5.07
2.51
10.16
17.10
22.75
26.91
29.71
31.52
32.78
33.75
34.42
34.49
33.61
31.57
28.53
25.01
21.79
19.60
18.89
19.68
21.65
24.21
26.80
28.87
30.11
30.42
29.93
29.00
28.11
27.80
28.31
29.46
30.39
29.73
25.91
17.71
4.78
-12.05
-31.01
-50.04
-67.42
-82.41
-95.29
-107.00
-118.53
-130.29
-141.59
-150.68
-155.17
-152.77
-142.17
-123.60
-98.91
-71.05
-43.18
-17.89
3.20
19.40
30.68
37.26
39.65
38.76
35.88
32.52
29.97
28.90
29.21
30.24
31.16
31.36
30.65
29.31
27.79
26.49
25.54
24.78
23.81
22.21
19.68
16.26
12.29
8.28
4.66
1.59
-1.22
-4.40
-8.68
-14.58
-22.03
-30.23
-37.89
-43.52
-45.97
-44.75
-40.10
-32.86
-24.16
-15.03
-6.24
1.77
8.85
14.96
20.11
24.27
27.35
29.33
30.24
30.33
29.99
29.69
29.70
30.03
30.47
30.73
30.76
30.75
31.13
32.21
33.98
35.99
37.47
37.71
36.38
33.66
30.16
26.69
23.95
22.29
21.64
21.58
21.54
20.90
19.29
16.54
12.81
8.56
4.44
1.21
-0.63
-0.98
-0.48
-0.35
-2.02
-6.45
-13.56
-21.98
-29.43
-33.56
-32.88
-27.64
-19.98
-13.53
-12.39
-19.98
-37.91
-65.39
-99.18
-134.10
-164.02
-183.09
-186.89
-173.44
-143.72
-101.55
-52.85
-4.33
38.07
70.34
90.99
100.73
101.62
96.22
86.94
75.78
64.32
53.76
44.82
37.67
31.90
26.81
21.75
16.35
10.72
5.17
0.05
-4.53
-8.67
-12.52
-16.13
-19.15
-20.94
-20.71
-17.91
-12.48
-4.96
3.61
12.04
19.36
25.15
29.51
32.97
36.10
39.27
42.49
45.46
47.74
48.90
48.65
46.93
43.93
40.08
35.90
31.66
27.15
21.59
13.89
3.32
-10.00
-24.85
-39.31
-51.47
-60.11
-65.11
-67.23
-67.69
-67.71
-68.24
-69.70
-72.00
-74.41
-75.67
-74.43
-69.83
-62.03
-52.25
-42.33
-33.85
-27.44
-22.68
-18.43
-13.63
-7.76
-1.05
5.88
12.41
18.30
23.63
28.66
33.55
38.13
42.00
44.65
45.77
45.38
43.88
41.88
40.01
38.64
37.80
37.24
36.64
35.77
34.64
33.51
32.70
32.32
32.27
32.19
31.69
30.48
28.53
26.02
23.23
20.37
17.51
14.57
11.39
7.91
4.16
0.25
-3.69
-7.59
-11.57
-15.80
-20.44
-25.52
-30.83
-35.95
-40.25
-43.08
-43.86
-42.25
-38.22
-32.07
-24.40
-16.02
-7.71
-0.03
6.68
12.32
16.85
20.17
22.14
22.73
22.14
20.92
19.82
19.56
20.45
22.34
24.66
26.73
28.07
28.59
28.60
28.50
28.60
28.88
29.10
28.96
28.20
26.74
24.51
21.43
17.41
12.50
7.03
1.67
-2.99
-6.78
-10.24
-14.53
-20.85
-29.85
-41.07
-53.00
-63.49
-70.61
-73.18
-70.98
-64.64
-55.17
-43.75
-31.42
-19.18
-7.99
1.22
7.75
11.37
12.53
12.20
11.50
11.22
11.49
11.86
11.73
10.82
9.43
8.25
8.04
9.16
11.49
14.51
17.51
19.87
20.97
20.27
17.42
12.57
6.54
0.65
-3.64
-5.44
-4.63
-1.85
2.02
6.36
11.01
16.04
21.17
25.55
27.78
26.56
21.30
12.62
2.19
-7.82
-15.52
-19.84
-20.68
-18.78
-15.11
-10.62
-5.93
-1.40
2.83
6.68
10.17
13.43
16.66
20.05
23.65
27.16
30.02
31.55
31.34
29.56
26.89
24.25
22.24
20.81
19.19
16.38
11.76
5.44
-1.78
-9.07
-16.04
-23.02
-30.59
-39.02
-47.64
-54.84
-58.66
-57.50
-50.76
-39.00
-23.70
-6.78
9.75
24.13
34.97
41.32
42.85
39.77
32.75
22.74
10.73
-2.22
-15.08
-26.76
-36.19
-42.51
-45.24
-44.44
-40.62
-34.66
-27.53
-20.13
-13.27
-7.53
-3.31
-0.71
0.44
0.63
0.48
0.63
1.53
3.39
6.24
9.99
14.46
19.44
24.67
29.81
34.46
38.32
41.17
42.99
43.91
44.15
43.94
43.37
42.47
41.17
39.45
37.31
34.88
32.26
29.48
26.45
23.04
19.23
15.15
11.23
7.98
5.75
4.54
3.85
2.83
0.42
-4.24
-11.56
-21.19
-32.13
-42.79
-51.52
-56.92
-58.28
-55.69
-49.94
-42.20
-33.68
-25.30
-17.73
-11.35
-6.36
-2.88
-0.92
-0.32
-0.74
-1.72
-2.77
-3.47
-3.60
-3.10
-2.06
-0.61
1.16
3.15
5.28
7.43
9.37
10.80
11.47
11.19
9.95
7.95
5.52
3.03
0.77
-1.12
-2.66
-3.98
-5.25
-6.60
-8.14
-9.92
-12.05
-14.62
-17.73
-21.32
-25.16
-28.85
-31.87
-33.64
-33.67
-31.65
-27.55
-21.67
-14.57
-6.95
0.52
7.37
13.39
18.59
23.06
26.83
29.78
31.72
32.53
32.20
30.98
29.39
28.10
27.92
29.49
33.09
38.34
44.18
49.03
51.33
50.07
45.23
37.74
29.11
20.99
14.56
10.28
7.73
5.63
2.26
-4.19
-14.91
-30.05
-48.58
-68.52
-87.64
-104.04
-116.41
-123.95
-126.02
-121.98
-111.43
-94.66
-73.11
-49.23
-25.95
-5.78
9.83
20.62
27.31
30.96
32.51
32.59
31.61
29.99
28.20
26.77
26.06
26.18
26.96
28.05
29.07
29.79
30.17
30.35
30.55
30.95
31.58
32.34
33.00
33.35
33.19
32.43
31.05
29.07
26.54
23.59
20.37
17.07
13.87
10.83
7.92
4.97
1.80
-1.65
-5.33
-9.08
-12.71
-16.10
-19.28
-22.35
-25.39
-28.35
-30.91
-32.58
-32.75
-30.92
-26.81
-20.52
-12.41
-3.12
6.64
16.23
25.18
33.11
39.75
44.86
48.23
49.80
49.63
48.09
45.76
43.37
41.63
41.02
41.62
43.05
44.54
45.16
44.04
40.67
34.76
26.14
14.62
-0.14
-18.33
-39.77
-63.72
-88.88
-113.54
-135.64
-152.95
-163.10
-163.82
-153.61
-132.38
-102.05
-66.57
-30.98
-0.08
22.91
37.01
43.30
43.95
41.24
36.78
31.44
25.68
19.90
14.70
10.72
8.28
7.19
6.79
6.18
4.77
2.48
-0.17
-2.31
-3.10
-2.11
0.52
4.22
8.17
11.62
14.03
15.15
14.96
13.68
11.64
9.29
7.08
5.37
4.33
3.94
4.00
4.29
4.66
4.91
4.83
4.12
2.43
-0.54
-4.84
-10.27
-16.34
-22.38
-27.62
-31.36
-33.08
-32.52
-29.81
-25.35
-19.77
-13.74
-7.77
-2.17
3.01
7.80
12.18
16.06
19.19
21.32
22.31
22.28
21.58
20.71
20.16
20.15
20.62
21.36
22.11
22.78
23.46
24.31
25.42
26.76
28.10
29.21
29.85
29.90
29.33
28.21
26.72
25.15
23.87
23.21
23.35
24.18
25.28
26.14
26.25
25.36
23.53
21.17
18.99
17.84
18.51
21.42
26.47
32.96
39.79
45.95
50.95
54.93
58.35
61.39
63.48
63.49
60.23
53.22
43.03
30.95
18.37
6.22
-5.11
-15.43
-24.36
-31.39
-36.10
-38.70
-40.19
-41.93
-44.94
-49.47
-54.94
-60.33
-64.68
-67.30
-67.74
-65.71
-61.08
-54.12
-45.62
-36.90
-29.37
-24.05
-21.21
-20.36
-20.50
-20.62
-20.00
-18.44
-16.35
-14.62
-14.44
-16.82
-22.17
-29.88
-38.25
-44.93
-47.77
-45.71
-39.21
-30.07
-20.52
-12.30
-6.06
-1.44
2.33
5.77
8.82
11.05
12.09
11.99
11.25
10.52
10.19
10.22
10.23
9.83
8.81
7.20
5.01
2.20
-1.35
-5.67
-10.46
-15.03
-18.46
-19.83
-18.58
-14.63
-8.41
-0.76
7.25
14.50
20.16
23.82
25.55
25.80
25.13
24.00
22.62
21.01
19.10
16.85
14.27
11.53
9.00
7.39
7.72
10.94
17.29
25.78
34.03
38.94
37.79
29.28
14.01
-5.83
-27.36
-47.97
-65.99
-80.72
-92.12
-100.36
-105.50
-107.41
-105.91
-100.98
-92.90
-82.38
-70.53
-58.60
-47.65
-38.17
-30.02
-22.58
-15.19
-7.48
0.43
8.00
14.56
19.58
22.82
24.28
24.12
22.42
19.22
14.52
8.41
1.16
-6.83
-15.00
-22.76
-29.52
-34.77
-38.21
-39.80
-39.86
-38.95
-37.67
-36.33
-34.77
-32.47
-28.77
-23.29
-16.09
-7.65
1.40
10.47
19.23
27.53
35.31
42.58
49.39
55.86
62.15
68.37
74.36
79.70
83.82
86.15
86.45
84.80
81.59
77.33
72.43
67.14
61.54
55.67
49.51
43.13
36.57
29.87
23.07
16.23
9.52
3.17
-2.57
-7.57
-11.89
-15.85
-19.96
-24.76
-30.63
-37.56
-45.01
-51.95
-57.14
-59.44
-58.27
-53.77
-46.78
-38.48
-29.97
-21.99
-14.76
-8.21
-2.15
3.41
8.35
12.51
15.82
18.40
20.50
22.42
24.28
26.05
27.50
28.35
28.40
27.70
26.50
25.19
24.19
23.76
23.87
24.27
24.53
24.21
23.05
20.96
18.06
14.63
10.91
7.16
3.58
0.26
-2.82
-5.76
-8.66
-11.61
-14.62
-17.68
-20.78
-23.87
-26.77
-29.08
-30.39
-30.58
-30.18
-30.33
-32.41
-37.24
-44.48
-52.66
-59.60
-63.35
-62.70
-57.34
-47.59
-34.05
-17.56
0.66
18.83
34.87
46.90
53.95
56.21
54.83
51.32
46.93
42.39
37.95
33.70
29.72
26.18
23.20
20.73
18.55
16.32
13.75
10.66
7.13
3.38
-0.27
-3.52
-6.29
-8.63
-10.79
-13.07
-15.73
-18.88
-22.44
-26.16
-29.73
-32.79
-34.93
-35.71
-34.72
-31.60
-26.24
-18.74
-9.58
0.49
10.51
19.51
26.68
31.59
34.22
34.93
34.38
33.25
32.15
31.41
31.17
31.41
31.92
32.16
31.30
28.29
22.30
13.12
1.32
-11.84
-24.97
-37.02
-47.65
-56.99
-65.15
-71.69
-75.42
-74.75
-68.43
-56.25
-39.38
-20.12
-1.24
14.80
26.41
32.98
34.66
31.99
25.70
16.70
6.29
-3.89
-12.09
-16.91
-17.78
-15.09
-9.96
-3.72
2.54
8.29
13.46
18.18
22.55
26.49
29.82
32.36
34.05
34.93
35.20
35.10
34.89
34.78
34.94
35.38
36.02
36.69
37.27
37.74
38.23
38.90
39.80
40.77
41.31
40.75
38.34
33.61
26.58
17.78
8.13
-1.29
-9.63
-16.44
-21.76
-26.04
-29.97
-34.16
-38.84
-43.78
-48.28
-51.50
-52.91
-52.72
-52.02
-52.37
-55.13
-60.82
-68.78
-77.42
-84.67
-88.61
-87.82
-81.46
-69.33
-51.90
-30.51
-7.22
15.37
34.75
49.09
57.68
60.93
60.09
56.69
52.13
47.47
43.31
39.90
37.14
34.73
32.23
29.25
25.54
21.09
16.15
11.12
6.42
2.34
-1.04
-3.88
-6.46
-9.10
-12.04
-15.47
-19.41
-23.75
-28.14
-32.03
-34.77
-35.74
-34.57
-31.22
-26.03
-19.59
-12.61
-5.72
0.60
6.04
10.48
13.88
16.24
17.55
17.89
17.39
16.35
15.22
14.47
14.47
15.33
16.87
18.71
20.43
21.74
22.53
22.88
22.89
22.62
22.02
21.00
19.48
17.53
15.30
12.95
10.56
8.05
5.31
2.20
-1.28
-5.05
-9.01
-13.11
-17.41
-21.98
-26.82
-31.63
-35.86
-38.80
-39.80
-38.46
-34.81
-29.25
-22.42
-15.01
-7.65
-0.76
5.39
10.70
15.17
18.80
21.64
23.70
25.03
25.66
25.72
25.42
24.97
24.55
24.23
23.98
23.72
23.44
23.17
23.03
22.99
22.89
22.48
21.41
19.53
16.87
13.61
10.04
6.36
2.65
-1.02
-4.60
-8.02
-11.19
-14.12
-16.97
-20.01
-23.50
-27.51
-31.77
-35.67
-38.41
-39.24
-37.75
-34.02
-28.50
-21.96
-15.19
-8.81
-3.28
1.21
4.63
7.02
8.48
9.20
9.37
9.22
8.93
8.61
8.32
8.08
7.94
7.93
8.13
8.54
9.14
9.80
10.33
10.56
10.29
9.43
7.96
5.98
3.62
1.05
-1.55
-4.08
-6.48
-8.78
-11.16
-13.80
-16.97
-20.80
-25.18
-29.71
-33.71
-36.39
-37.09
-35.48
-31.64
-26.09
-19.52
-12.72
-6.25
-0.45
4.58
8.90
12.52
15.38
17.37
18.38
18.49
17.93
17.09
16.35
15.94
15.89
16.07
16.30
16.51
16.73
17.05
17.46
17.81
17.78
17.03
15.35
12.76
9.52
6.02
2.61
-0.52
-3.35
-6.04
-8.77
-11.77
-15.16
-18.97
-23.05
-27.04
-30.40
-32.43
-32.55
-30.33
-25.83
-19.52
-12.23
-4.84
1.92
7.66
12.39
16.33
19.72
22.71
25.27
27.29
28.67
29.38
29.48
29.10
28.37
27.45
26.50
25.70
25.22
25.15
25.41
25.77
25.95
25.63
24.65
22.99
20.74
18.05
15.06
11.87
8.56
5.18
1.83
-1.36
-4.26
-6.79
-8.98
-10.96
-13.03
-15.51
-18.62
-22.40
-26.54
-30.43
-33.34
-34.54
-33.59
-30.40
-25.29
-18.88
-11.98
-5.35
0.43
5.08
8.58
11.17
13.12
14.65
15.87
16.78
17.38
17.73
17.92
18.07
18.21
18.28
18.19
17.93
17.49
16.94
16.30
15.55
14.64
13.48
12.05
10.31
8.26
5.87
3.15
0.18
-2.88
-5.80
-8.43
-10.69
-12.69
-14.64
-16.77
-19.25
-22.13
-25.32
-28.57
-31.51
-33.61
-34.37
-33.33
-30.37
-25.63
-19.63
-13.02
-6.45
-0.44
4.68
8.76
11.77
13.79
14.94
15.38
15.30
14.87
14.29
13.72
13.33
13.27
13.57
14.10
14.67
15.01
14.96
14.50
13.73
12.81
11.75
10.48
8.81
6.60
3.85
0.71
-2.56
-5.70
-8.55
-11.09
-13.42
-15.71
-18.10
-20.73
-23.61
-26.63
-29.44
-31.56
-32.36
-31.37
-28.33
-23.38
-17.00
-9.91
-2.84
3.59
9.01
13.34
16.66
19.14
20.87
21.90
22.25
21.99
21.34
20.60
20.06
19.86
19.96
20.14
20.20
20.01
19.60
19.11
18.57
17.97
17.19
16.09
14.66
12.93
11.00
8.88
6.56
3.97
1.15
-1.80
-4.71
-7.48
-10.12
-12.78
-15.68
-18.99
-22.77
-26.86
-30.86
-34.20
-36.20
-36.29
-34.21
-30.07
-24.36
-17.79
-11.05
-4.65
1.17
6.34
10.86
14.68
17.72
19.87
21.10
21.46
21.17
20.47
19.64
18.82
18.07
17.34
16.58
15.84
15.26
15.01
15.12
15.47
15.75
15.64
14.94
13.69
12.10
10.39
8.68
6.91
4.95
2.69
0.10
-2.68
-5.46
-8.09
-10.47
-12.64
-14.71
-16.87
-19.33
-22.25
-25.67
-29.40
-32.99
-35.83
-37.27
-36.82
-34.25
-29.71
-23.67
-16.79
-9.79
-3.29
2.29
6.79
10.25
12.84
14.73
16.00
16.69
16.78
16.34
15.55
14.66
13.93
13.55
13.59
14.00
14.67
15.51
16.40
17.25
17.86
18.01
17.49
16.21
14.26
11.93
9.53
7.34
5.40
3.57
1.56
-0.84
-3.69
-6.85
-10.00
-12.85
-15.17
-16.96
-18.35
-19.64
-21.11
-23.04
-25.58
-28.73
-32.25
-35.58
-38.01
-38.80
-37.42
-33.72
-28.04
-21.05
-13.59
-6.46
-0.23
4.72
8.27
10.47
11.50
11.59
11.04
10.08
8.89
7.63
6.40
5.35
4.65
4.45
4.76
5.53
6.58
7.73
8.79
9.66
10.24
10.47
10.26
9.52
8.21
6.37
4.10
1.57
-1.01
-3.50
-5.79
-7.87
-9.78
-11.59
-13.39
-15.28
-17.33
-19.62
-22.14
-24.73
-27.06
-28.61
-28.86
-27.41
-24.18
-19.35
-13.42
-6.98
-0.63
5.14
9.99
13.75
16.39
18.01
18.80
19.01
18.91
18.68
18.42
18.14
17.79
17.34
16.79
16.19
15.59
15.02
14.44
13.75
12.88
11.77
10.42
8.84
7.06
5.09
3.00
0.93
-1.00
-2.67
-4.11
-5.43
-6.83
-8.44
-10.33
-12.46
-14.74
-17.11
-19.59
-22.22
-24.98
-27.77
-30.26
-32.02
-32.53
-31.45
-28.64
-24.27
-18.77
-12.72
-6.65
-0.96
4.11
8.47
12.04
14.80
16.75
17.97
18.61
18.83
18.76
18.44
17.89
17.17
16.40
15.80
15.58
15.81
16.36
17.01
17.48
17.57
17.25
16.54
15.52
14.20
12.59
10.69
8.50
6.05
3.38
0.51
-2.50
-5.50
-8.32
-10.76
-12.77
-14.47
-16.16
-18.22
-20.95
-24.48
-28.62
-32.94
-36.79
-39.52
-40.55
-39.56
-36.57
-31.87
-26.02
-19.62
-13.20
-7.09
-1.46
3.66
8.23
12.20
15.41
17.71
19.01
19.34
18.92
18.05
17.10
16.32
15.85
15.74
15.95
16.44
17.17
18.08
19.01
19.76
20.09
19.84
18.99
17.69
16.17
14.61
13.03
11.28
9.12
6.34
2.90
-1.05
-5.25
-9.40
-13.33
-16.99
-20.42
-23.72
-26.98
-30.26
-33.45
-36.31
-38.41
-39.19
-38.19
-35.17
-30.29
-24.11
-17.38
-10.89
-5.23
-0.67
2.77
5.22
6.84
7.75
8.06
7.92
7.48
6.96
6.59
6.50
6.78
7.36
8.10
8.77
9.21
9.32
9.13
8.75
8.30
7.82
7.22
6.34
5.02
3.25
1.11
-1.23
-3.63
-6.02
-8.37
-10.67
-12.90
-15.05
-17.26
-19.71
-22.60
-25.88
-29.21
-31.90
-33.18
-32.45
-29.55
-24.79
-18.86
-12.55
-6.50
-1.11
3.48
7.33
10.49
13.00
14.85
16.01
16.53
16.56
16.35
16.16
16.15
16.32
16.51
16.52
16.23
15.66
15.02
14.54
14.37
14.46
14.55
14.34
13.49
11.83
9.40
6.39
3.09
-0.22
-3.35
-6.26
-9.00
-11.67
-14.42
-17.33
-20.47
-23.84
-27.37
-30.82
-33.83
-35.87
-36.38
-34.92
-31.34
-25.85
-18.96
-11.41
-3.92
2.92
8.76
13.49
17.14
19.79
21.54
22.47
22.73
22.50
22.03
21.54
21.18
21.00
20.97
21.04
21.17
21.35
21.54
21.67
21.63
21.32
20.67
19.69
18.45
17.01
15.35
13.39
11.03
8.21
4.96
1.43
-2.14
-5.59
-8.86
-12.03
-15.35
-19.05
-23.28
-27.95
-32.67
-36.82
-39.62
-40.44
-38.90
-35.04
-29.31
-22.41
-15.10
-8.04
-1.66
3.79
8.20
11.53
13.78
15.04
15.47
15.30
14.82
14.25
13.73
13.31
13.00
12.78
12.65
12.62
12.73
12.96
13.24
13.48
13.47
13.03
11.97
10.19
7.71
4.69
1.43
-1.76
-4.63
-7.13
-9.40
-11.72
-14.38
-17.56
-21.29
-25.39
-29.53
-33.23
-35.95
-37.14
-36.40
-33.53
-28.63
-22.16
-14.78
-7.24
-0.21
5.87
10.79
14.55
17.26
19.05
20.07
20.45
20.33
19.93
19.44
19.08
18.97
19.15
19.55
20.11
20.72
21.28
21.74
21.97
21.79
21.01
19.51
17.27
14.41
11.19
7.91
4.76
1.82
-0.92
-3.54
-6.12
-8.68
-11.25
-13.88
-16.70
-19.85
-23.39
-27.17
-30.79
-33.66
-35.13
-34.69
-32.21
-27.88
-22.22
-15.85
-9.34
-3.10
2.65
7.81
12.38
16.33
19.59
22.11
23.84
24.78
25.04
24.78
24.26
23.72
23.35
23.28
23.53
24.07
24.82
25.64
26.35
26.73
26.58
25.77
24.32
22.37
20.13
17.78
15.41
12.98
10.32
7.30
3.82
0.02
-3.82
-7.37
-10.44
-13.04
-15.49
-18.21
-21.60
-25.78
-30.49
-35.10
-38.80
-40.89
-40.87
-38.63
-34.38
-28.54
-21.70
-14.48
-7.50
-1.28
3.85
7.75
10.53
12.48
13.90
15.03
16.00
16.82
17.50
18.08
18.62
19.19
19.80
20.42
20.94
21.29
21.36
21.12
20.58
19.74
18.64
17.23
15.41
13.05
10.05
6.46
2.47
-1.60
-5.40
-8.66
-11.33
-13.56
-15.71
-18.17
-21.22
-24.92
-28.98
-32.82
-35.67
-36.79
-35.70
-32.34
-27.09
-20.65
-13.80
-7.19
-1.28
3.69
7.61
10.47
12.33
13.32
13.68
13.68
13.54
13.42
13.38
13.43
13.58
13.83
14.21
14.74
15.41
16.18
17.01
17.80
18.44
18.78
18.71
18.12
16.99
15.33
13.21
10.74
8.06
5.28
2.49
-0.30
-3.20
-6.39
-10.08
-14.38
-19.22
-24.33
-29.16
-33.04
-35.33
-35.56
-33.59
-29.63
-24.15
-17.80
-11.24
-4.99
0.62
5.41
9.33
12.38
14.55
15.86
16.28
15.92
14.99
13.83
12.80
12.21
12.23
12.78
13.69
14.73
15.72
16.53
17.09
17.29
17.04
16.30
15.03
13.30
11.19
8.77
6.11
3.27
0.39
-2.39
-4.91
-7.07
-8.88
-10.45
-12.00
-13.79
-16.01
-18.76
-21.97
-25.29
-28.15
-29.85
-29.72
-27.41
-22.99
-16.96
-10.13
-3.31
2.91
8.22
12.60
16.17
19.00
21.13
22.48
23.08
23.00
22.49
21.79
21.12
20.54
20.00
19.38
18.58
17.65
16.70
15.83
15.05
14.26
13.24
11.81
9.89
7.59
5.06
2.43
-0.20
-2.82
-5.40
-7.86
-10.10
-12.05
-13.79
-15.54
-17.64
-20.30
-23.53
-27.08
-30.44
-32.99
-34.14
-33.47
-30.79
-26.29
-20.43
-13.91
-7.45
-1.59
3.32
7.17
9.95
11.70
12.50
12.48
11.86
11.00
10.19
9.62
9.27
9.01
8.72
8.35
7.99
7.76
7.72
7.82
7.87
7.63
6.87
5.46
3.37
0.76
-2.14
-5.04
-7.68
-9.94
-11.82
-13.50
-15.27
-17.44
-20.17
-23.42
-26.85
-29.80
-31.54
-31.36
-28.96
-24.49
-18.58
-12.11
-5.89
-0.50
3.87
7.32
10.08
12.32
14.12
15.46
16.30
16.66
16.62
16.31
15.91
15.53
15.26
15.12
15.08
15.10
15.14
15.13
15.03
14.70
14.02
12.86
11.17
8.99
6.47
3.79
1.17
-1.25
-3.44
-5.45
-7.44
-9.64
-12.35
-15.71
-19.67
-23.92
-27.88
-30.87
-32.25
-31.61
-28.87
-24.26
-18.33
-11.72
-5.07
1.09
6.44
10.86
14.33
16.92
18.69
19.69
20.04
19.88
19.40
18.81
18.27
17.87
17.59
17.38
17.15
16.85
16.48
16.13
15.81
15.48
15.00
14.13
12.68
10.57
7.93
5.04
2.18
-0.41
-2.73
-4.91
-7.15
-9.60
-12.36
-15.44
-18.79
-22.34
-25.89
-29.11
-31.50
-32.54
-31.79
-29.07
-24.49
-18.44
-11.50
-4.26
2.71
8.97
14.21
18.25
21.08
22.82
23.67
23.87
23.66
23.20
22.61
21.96
21.34
20.81
20.46
20.29
20.30
20.42
20.57
20.69
20.70
20.52
20.09
19.31
18.10
16.40
14.20
11.58
8.74
5.90
3.26
0.88
-1.35
-3.66
-6.31
-9.45
-13.09
-17.13
-21.33
-25.40
-28.98
-31.67
-33.04
-32.74
-30.62
-26.81
-21.74
-16.02
-10.27
-4.99
-0.50
3.10
5.79
7.61
8.66
9.04
8.95
8.62
8.28
8.10
8.13
8.32
8.58
8.82
9.00
9.11
9.14
9.09
8.90
8.47
7.73
6.63
5.14
3.29
1.13
-1.24
-3.71
-6.17
-8.54
-10.82
-13.05
-15.37
-17.90
-20.73
-23.82
-26.92
-29.63
-31.44
-31.86
-30.54
-27.43
-22.75
-16.97
-10.73
-4.65
0.77
5.19
8.47
10.62
11.76
12.07
11.78
11.09
10.24
9.39
8.66
8.12
7.76
7.58
7.55
7.63
7.81
8.05
8.23
8.18
7.69
6.62
4.99
2.96
0.80
-1.28
-3.16
-4.91
-6.71
-8.74
-11.13
-13.90
-16.98
-20.21
-23.35
-26.04
-27.85
-28.32
-27.08
-24.01
-19.32
-13.55
-7.40
-1.56
3.48
7.49
10.51
12.73
14.30
15.32
15.81
15.76
15.27
14.52
13.83
13.45
13.47
13.79
14.17
14.36
14.17
13.62
12.81
11.85
10.78
9.51
7.91
5.88
3.47
0.84
-1.81
-4.36
-6.77
-9.18
-11.70
-14.44
-17.43
-20.56
-23.65
-26.42
-28.51
-29.54
-29.17
-27.19
-23.67
-18.90
-13.34
-7.52
-1.88
3.23
7.62
11.15
13.77
15.48
16.33
16.50
16.21
15.69
15.14
14.65
14.24
13.93
13.69
13.58
13.62
13.81
14.07
14.26
14.18
13.64
12.52
10.80
8.52
5.82
2.86
-0.17
-3.07
-5.71
-8.05
-10.21
-12.44
-15.01
-18.12
-21.78
-25.70
-29.30
-31.92
-32.93
-31.99
-29.12
-24.67
-19.20
-13.32
-7.49
-2.03
2.93
7.35
11.21
14.38
16.75
18.25
18.86
18.77
18.24
17.62
17.14
16.95
16.98
17.10
17.13
16.93
16.47
15.79
14.95
14.08
13.17
12.15
10.91
9.31
7.32
4.99
2.44
-0.20
-2.86
-5.57
-8.42
-11.52
-14.96
-18.72
-22.68
-26.60
-30.14
-32.81
-34.10
-33.62
-31.17
-26.91
-21.32
-15.08
-8.95
-3.51
0.89
4.16
6.41
7.84
8.62
8.87
8.73
8.31
7.73
7.16
6.72
6.45
6.41
6.57
6.90
7.37
7.91
8.39
8.63
8.47
7.76
6.46
4.63
2.40
-0.04
-2.57
-5.10
-7.64
-10.24
-12.99
-15.98
-19.30
-22.96
-26.86
-30.65
-33.83
-35.72
-35.73
-33.57
-29.30
-23.43
-16.69
-9.84
-3.48
2.03
6.56
10.07
12.56
14.06
14.62
14.44
13.81
13.12
12.73
12.88
13.57
14.61
15.64
16.31
16.38
15.83
14.88
13.80
12.83
12.03
11.29
10.41
9.17
7.51
5.46
3.11
0.55
-2.18
-5.06
-7.99
-10.86
-13.54
-16.00
-18.35
-20.79
-23.48
-26.39
-29.16
-31.19
-31.77
-30.41
-26.98
-21.81
-15.55
-8.97
-2.66
3.04
8.01
12.29
15.86
18.62
20.44
21.20
21.01
20.15
18.99
17.90
17.09
16.62
16.41
16.34
16.31
16.24
16.12
15.94
15.67
15.27
14.70
13.90
12.84
11.49
9.85
7.91
5.67
3.16
0.46
-2.35
-5.15
-7.84
-10.35
-12.66
-14.94
-17.43
-20.45
-24.18
-28.51
-32.92
-36.64
-38.75
-38.66
-36.18
-31.67
-25.80
-19.25
-12.57
-6.05
0.16
5.93
11.07
15.31
18.45
20.43
21.38
21.54
21.25
20.77
20.26
19.82
19.49
19.32
19.36
19.68
20.26
21.01
21.75
22.23
22.17
21.44
20.04
18.16
16.11
14.12
12.31
10.58
8.73
6.58
4.10
1.42
-1.25
-3.76
-6.09
-8.41
-10.92
-13.80
-17.04
-20.58
-24.31
-28.11
-31.83
-35.20
-37.74
-38.88
-38.11
-35.20
-30.31
-23.99
-16.95
-9.89
-3.27
2.67
7.88
12.32
15.98
18.82
20.87
22.16
22.83
23.01
22.83
22.45
22.02
21.70
21.62
21.84
22.26
22.77
23.22
23.52
23.63
23.56
23.24
22.60
21.56
20.07
18.20
16.04
13.71
11.23
8.58
5.67
2.53
-0.81
-4.17
-7.41
-10.45
-13.32
-16.16
-19.21
-22.70
-26.68
-30.97
-35.06
-38.20
-39.64
-38.86
-35.74
-30.67
-24.38
-17.66
-11.20
-5.37
-0.28
4.07
7.71
10.61
12.68
13.89
14.32
14.16
13.67
13.17
12.89
12.93
13.25
13.63
13.88
13.86
13.57
13.13
12.66
12.18
11.60
10.70
9.33
7.42
5.07
2.43
-0.35
-3.19
-6.08
-8.99
-11.85
-14.55
-17.02
-19.24
-21.31
-23.41
-25.68
-28.18
-30.68
-32.69
-33.56
-32.70
-29.77
-24.88
-18.56
-11.63
-4.93
0.93
5.71
9.48
12.46
14.85
16.68
17.87
18.32
18.07
17.33
16.41
15.67
15.33
15.48
16.04
16.81
17.62
18.29
18.70
18.78
18.53
17.98
17.18
16.13
14.72
12.86
10.44
7.45
3.97
0.18
-3.69
-7.40
-10.82
-13.88
-16.64
-19.23
-21.82
-24.63
-27.76
-31.17
-34.51
-37.20
-38.51
-37.81
-34.79
-29.61
-22.91
-15.55
-8.40
-2.02
3.38
7.80
11.43
14.31
16.44
17.73
18.17
17.89
17.12
16.19
15.32
14.71
14.44
14.53
15.00
15.76
16.67
17.49
17.95
17.88
17.22
16.11
14.77
13.39
11.98
10.42
8.54
6.21
3.47
0.49
-2.53
-5.40
-8.07
-10.62
-13.21
-16.02
-19.22
-22.85
-26.83
-30.84
-34.41
-36.91
-37.74
-36.50
-33.13
-27.95
-21.58
-14.78
-8.23
-2.37
2.64
6.82
10.30
13.17
15.47
17.21
18.37
18.98
19.08
18.78
18.23
17.64
17.23
17.17
17.54
18.25
19.13
19.94
20.51
20.68
20.40
19.66
18.52
17.11
15.58
14.06
12.52
10.84
8.81
6.25
3.13
-0.44
-4.21
-7.94
-11.49
-14.83
-18.07
-21.36
-24.84
-28.53
-32.24
-35.55
-37.85
-38.47
-36.92
-33.06
-27.20
-20.03
-12.44
-5.25
1.00
6.10
10.06
13.02
15.02
16.03
16.06
15.21
13.76
12.19
10.94
10.30
10.34
10.88
11.66
12.47
13.20
13.84
14.37
14.70
14.67
14.13
13.01
11.34
9.27
6.95
4.46
1.86
-0.88
-3.71
-6.53
-9.24
-11.75
-14.13
-16.60
-19.43
-22.78
-26.59
-30.42
-33.58
-35.32
-35.07
-32.62
-28.19
-22.30
-15.66
-8.92
-2.60
2.99
7.69
11.47
14.35
16.36
17.57
18.08
18.03
17.63
17.20
17.01
17.23
17.85
18.65
19.36
19.75
19.75
19.40
18.74
17.75
16.29
14.21
11.47
8.22
4.79
1.50
-1.40
-3.90
-6.16
-8.37
-10.65
-12.99
-15.28
-17.45
-19.61
-22.01
-24.97
-28.64
-32.80
-36.81
-39.78
-40.81
-39.40
-35.51
-29.66
-22.63
-15.26
-8.21
-1.87
3.59
8.18
11.91
14.85
16.98
18.31
18.85
18.68
17.99
17.04
16.14
15.52
15.31
15.47
15.92
16.55
17.27
18.03
18.72
19.17
19.16
18.47
16.99
14.80
12.14
9.31
6.56
4.01
1.60
-0.83
-3.42
-6.26
-9.35
-12.65
-16.14
-19.84
-23.83
-28.00
-31.98
-35.14
-36.74
-36.20
-33.32
-28.40
-22.09
-15.25
-8.60
-2.60
2.52
6.74
10.13
12.78
14.82
16.38
17.61
18.61
19.48
20.23
20.86
21.35
21.61
21.59
21.23
20.55
19.69
18.78
17.96
17.25
16.52
15.52
14.01
11.85
9.06
5.84
2.45
-0.89
-4.07
-7.09
-10.07
-13.14
-16.39
-19.86
-23.50
-27.13
-30.52
-33.25
-34.84
-34.74
-32.55
-28.20
-22.02
-14.79
-7.46
-0.93
4.26
7.94
10.32
11.75
12.53
12.84
12.77
12.37
11.66
10.77
9.78
8.81
7.95
7.31
6.93
6.82
6.93
7.11
7.26
7.19
6.78
5.90
4.49
2.53
0.11
-2.61
-5.44
-8.17
-10.63
-12.77
-14.66
-16.46
-18.42
-20.76
-23.45
-26.19
-28.30
-29.00
-27.67
-24.07
-18.57
-11.92
-4.99
1.43
6.88
11.19
14.37
16.48
17.62
17.94
17.67
17.15
16.67
16.48
16.69
17.24
18.01
18.87
19.72
20.55
21.40
22.27
23.09
23.73
24.03
23.86
23.21
22.11
20.59
18.68
16.33
13.49
10.15
6.33
2.11
-2.43
-7.24
-12.26
-17.34
-22.19
-26.39
-29.42
-30.82
-30.28
-27.83
-23.79
-18.69
-13.12
-7.56
-2.31
2.50
6.78
10.48
13.45
15.53
16.62
16.79
16.24
15.31
14.33
13.55
13.05
12.82
12.81
12.96
13.27
13.78
14.54
15.57
16.81
18.12
19.23
19.81
19.52
18.10
15.49
11.84
7.50
2.83
-1.88
-6.50
-11.02
-15.50
-19.92
-24.15
-28.02
-31.26
-33.70
-35.17
-35.50
-34.58
-32.30
-28.72
-24.04
-18.66
-13.05
-7.69
-2.97
0.88
3.72
5.54
6.42
6.59
6.32
5.93
5.70
5.79
6.23
6.92
7.77
8.65
9.51
10.30
10.99
11.56
11.93
11.99
11.57
10.54
8.83
6.48
3.69
0.70
-2.25
-5.06
-7.79
-10.61
-13.69
-17.11
-20.76
-24.45
-27.83
-30.54
-32.19
-32.37
-30.78
-27.26
-22.01
-15.48
-8.40
-1.55
4.46
9.32
12.98
15.58
17.28
18.18
18.39
18.00
17.19
16.21
15.35
14.81
14.65
14.86
15.30
15.84
16.40
16.88
17.27
17.52
17.53
17.11
16.12
14.44
12.11
9.27
6.21
3.22
0.49
-1.94
-4.15
-6.32
-8.65
-11.27
-14.22
-17.49
-20.93
-24.31
-27.29
-29.39
-30.15
-29.17
-26.26
-21.52
-15.38
-8.48
-1.53
4.84
10.28
14.69
18.13
20.77
22.71
23.93
24.42
24.19
23.40
22.26
21.02
19.85
18.87
18.12
17.59
17.34
17.35
17.58
17.89
18.09
18.01
17.51
16.53
15.08
13.22
11.02
8.59
6.05
3.58
1.30
-0.76
-2.66
-4.61
-6.83
-9.56
-12.92
-16.87
-21.24
-25.75
-30.02
-33.58
-35.93
-36.61
-35.34
-32.12
-27.28
-21.44
-15.26
-9.35
-4.07
0.44
4.23
7.35
9.75
11.36
12.11
12.01
11.30
10.31
9.41
8.86
8.77
9.07
9.63
10.32
11.05
11.74
12.29
12.56
12.40
11.72
10.53
8.90
6.97
4.83
2.56
0.22
-2.16
-4.53
-6.90
-9.24
-11.59
-13.91
-16.22
-18.53
-20.91
-23.40
-25.89
-28.06
-29.38
-29.27
-27.32
-23.54
-18.36
-12.49
-6.61
-1.21
3.51
7.55
10.91
13.57
15.38
16.27
16.26
15.59
14.57
13.56
12.83
12.45
12.43
12.64
12.94
13.19
13.28
13.20
12.95
12.54
11.99
11.26
10.28
8.93
7.15
4.90
2.27
-0.55
-3.32
-5.85
-8.07
-10.00
-11.87
-13.90
-16.30
-19.13
-22.18
-25.01
-27.00
-27.49
-26.09
-22.74
-17.75
-11.75
-5.45
0.57
5.91
10.39
13.95
16.59
18.30
19.14
19.19
18.62
17.70
16.69
15.83
15.26
15.08
15.27
15.73
16.32
16.83
17.08
16.94
16.35
15.29
13.84
12.04
9.95
7.65
5.20
2.68
0.12
-2.46
-5.05
-7.68
-10.31
-12.88
-15.32
-17.59
-19.79
-22.05
-24.44
-26.84
-28.88
-30.07
-29.93
-28.22
-24.97
-20.51
-15.25
-9.62
-3.93
1.62
6.76
11.26
14.82
17.18
18.29
18.28
17.52
16.46
15.48
14.79
14.39
14.11
13.79
13.36
12.93
12.66
12.66
12.89
13.11
12.99
12.21
10.65
8.40
5.71
2.93
0.29
-2.07
-4.19
-6.23
-8.36
-10.70
-13.30
-16.08
-18.89
-21.44
-23.40
-24.39
-24.07
-22.19
-18.72
-13.92
-8.30
-2.49
2.86
7.31
10.70
13.10
14.73
15.79
16.42
16.66
16.52
16.04
15.30
14.40
13.44
12.53
11.75
11.17
10.82
10.66
10.54
10.26
9.59
8.39
6.61
4.35
1.73
-1.07
-3.95
-6.84
-9.72
-12.63
-15.64
-18.81
-22.13
-25.41
-28.31
-30.31
-30.86
-29.58
-26.37
-21.50
-15.58
-9.33
-3.46
1.52
5.35
8.01
9.59
10.25
10.16
9.48
8.37
6.98
5.45
3.91
2.51
1.36
0.61
0.35
0.60
1.18
1.81
2.18
2.02
1.22
-0.19
-1.98
-3.97
-5.95
-7.82
-9.54
-11.15
-12.73
-14.46
-16.50
-18.94
-21.63
-24.16
-25.92
-26.27
-24.78
-21.39
-16.42
-10.47
-4.22
1.73
6.93
11.09
14.06
15.79
16.35
15.99
15.02
13.79
12.52
11.32
10.18
9.04
7.95
7.02
6.42
6.23
6.41
6.77
7.08
7.09
6.62
5.59
3.96
1.81
-0.70
-3.37
-5.94
-8.28
-10.36
-12.37
-14.57
-17.25
-20.46
-23.98
-27.28
-29.60
-30.22
-28.65
-24.89
-19.37
-12.86
-6.21
-0.06
5.20
9.47
12.72
14.92
16.00
16.03
15.21
13.98
12.83
12.15
12.11
12.60
13.37
14.17
14.83
15.32
15.66
15.87
15.93
15.81
15.44
14.81
13.89
12.61
10.91
8.73
6.13
3.24
0.33
-2.31
-4.48
-6.18
-7.61
-9.17
-11.25
-14.09
-17.68
-21.64
-25.30
-27.92
-28.84
-27.68
-24.50
-19.72
-14.00
-8.02
-2.33
2.77
7.11
10.63
13.29
15.08
16.02
16.23
15.92
15.33
14.65
13.95
13.27
12.62
12.07
11.70
11.58
11.65
11.81
11.88
11.69
11.20
10.37
9.25
7.89
6.35
4.69
2.99
1.28
-0.42
-2.15
-3.98
-5.93
-7.94
-9.92
-11.77
-13.50
-15.28
-17.38
-20.00
-23.19
-26.78
-30.26
-32.98
-34.27
-33.69
-31.09
-26.69
-20.94
-14.46
-7.82
-1.58
3.83
8.12
11.11
12.86
13.62
13.78
13.78
13.95
14.39
15.02
15.67
16.15
16.46
16.68
16.98
17.40
17.85
18.07
17.78
16.82
15.23
13.27
11.20
9.18
7.18
5.02
2.51
-0.36
-3.41
-6.35
-8.93
-11.09
-12.92
-14.62
-16.40
-18.35
-20.46
-22.72
-25.10
-27.60
-30.09
-32.25
-33.56
-33.46
-31.56
-27.77
-22.43
-16.15
-9.66
-3.56
1.80
6.31
9.95
12.77
14.79
16.01
16.49
16.33
15.74
14.91
14.03
13.26
12.72
12.52
12.67
13.18
13.90
14.62
15.14
15.29
15.04
14.46
13.60
12.50
11.13
9.42
7.37
5.08
2.69
0.36
-1.83
-3.94
-6.03
-8.14
-10.26
-12.34
-14.37
-16.46
-18.80
-21.56
-24.73
-27.98
-30.72
-32.27
-32.11
-30.02
-26.19
-21.08
-15.25
-9.23
-3.40
1.96
6.64
10.44
13.25
15.03
15.96
16.31
16.39
16.48
16.71
17.08
17.55
18.06
18.59
19.14
19.76
20.38
20.96
21.41
21.60
21.49
21.02
20.20
19.06
17.60
15.81
13.74
11.48
9.12
6.73
4.34
1.86
-0.75
-3.53
-6.41
-9.24
-11.85
-14.13
-16.11
-17.96
-19.96
-22.42
-25.53
-29.31
-33.44
-37.33
-40.14
-41.05
-39.57
-35.65
-29.79
-22.81
-15.56
-8.66
-2.47
2.90
7.45
11.17
14.05
16.12
17.49
18.37
18.99
19.53
20.02
20.42
20.65
20.65
20.50
20.31
20.26
20.44
20.85
21.36
21.75
21.77
21.24
20.07
18.27
16.00
13.46
10.89
8.54
6.52
4.81
3.26
1.64
-0.26
-2.55
-5.17
-7.97
-10.77
-13.40
-15.81
-18.05
-20.30
-22.78
-25.64
-28.88
-32.19
-35.02
-36.71
-36.65
-34.52
-30.37
-24.63
-17.91
-10.88
-4.16
1.77
6.55
9.96
12.00
12.82
12.74
12.14
11.33
10.50
9.74
9.15
8.79
8.82
9.29
10.18
11.34
12.51
13.44
13.94
13.92
13.41
12.54
11.39
10.07
8.61
6.98
5.13
3.02
0.68
-1.80
-4.27
-6.59
-8.70
-10.64
-12.53
-14.50
-16.67
-19.09
-21.80
-24.73
-27.72
-30.45
-32.40
-32.97
-31.62
-28.11
-22.64
-15.82
-8.45
-1.35
4.90
10.05
14.08
17.14
19.37
20.85
21.63
21.71
21.13
20.01
18.50
16.82
15.21
13.91
13.15
13.05
13.60
14.62
15.82
16.85
17.39
17.23
16.35
14.91
13.13
11.19
9.19
7.08
4.69
1.92
-1.26
-4.72
-8.28
-11.71
-14.89
-17.80
-20.54
-23.28
-26.22
-29.45
-32.88
-36.18
-38.77
-39.98
-39.21
-36.22
-31.15
-24.51
-17.03
-9.47
-2.49
3.45
8.11
11.48
13.78
15.33
16.53
17.63
18.72
19.73
20.54
21.06
21.31
21.39
21.43
21.48
21.58
21.70
21.83
21.89
21.81
21.44
20.65
19.36
17.58
15.45
13.15
10.82
8.54
6.25
3.86
1.24
-1.62
-4.64
-7.64
-10.45
-12.93
-15.10
-17.11
-19.18
-21.57
-24.43
-27.74
-31.23
-34.37
-36.46
-36.84
-35.06
-31.04
-25.14
-18.07
-10.68
-3.77
2.13
6.76
10.13
12.41
13.86
14.70
15.13
15.24
15.09
14.73
14.25
13.79
13.53
13.62
14.08
14.83
15.65
16.35
16.76
16.83
16.58
16.08
15.34
14.34
12.99
11.19
8.88
6.06
2.82
-0.64
-4.10
-7.39
-10.44
-13.29
-16.06
-18.87
-21.79
-24.77
-27.70
-30.41
-32.60
-33.92
-33.96
-32.33
-28.86
-23.65
-17.19
-10.12
-3.20
3.05
8.33
12.55
15.76
18.03
19.43
20.03
19.96
19.36
18.43
17.36
16.31
15.42
14.79
14.47
14.46
14.65
14.84
14.91
14.75
14.33
13.74
12.99
12.05
10.81
9.14
6.97
4.34
1.44
-1.48
-4.20
-6.60
-8.72
-10.74
-12.85
-15.26
-18.08
-21.30
-24.78
-28.24
-31.24
-33.24
-33.70
-32.19
-28.57
-23.10
-16.34
-9.04
-2.00
4.18
9.17
12.94
15.68
17.65
19.07
20.09
20.70
20.86
20.57
19.88
18.94
18.04
17.41
17.22
17.52
18.18
18.94
19.49
19.60
19.14
18.18
16.86
15.31
13.59
11.67
9.52
7.12
4.53
1.85
-0.84
-3.48
-6.09
-8.65
-11.18
-13.66
-16.12
-18.68
-21.47
-24.56
-27.90
-31.18
-33.88
-35.43
-35.32
-33.26
-29.29
-23.74
-17.19
-10.29
-3.69
2.16
6.95
10.61
13.23
15.03
16.25
17.06
17.59
17.89
18.00
17.98
17.93
17.97
18.21
18.69
19.40
20.21
21.01
21.66
22.05
22.07
21.67
20.78
19.45
17.77
15.91
14.02
12.21
10.44
8.58
6.46
3.99
1.21
-1.68
-4.43
-6.86
-8.92
-10.73
-12.54
-14.56
-16.94
-19.74
-22.86
-26.13
-29.26
-31.81
-33.25
-33.07
-30.92
-26.79
-21.08
-14.46
-7.70
-1.45
3.90
8.24
11.65
14.33
16.44
18.09
19.31
20.12
20.55
20.68
20.60
20.44
20.30
20.26
20.32
20.46
20.64
20.83
21.04
21.24
21.44
21.52
21.30
20.61
19.31
17.42
15.08
12.52
9.93
7.42
4.97
2.52
0.01
-2.53
-5.04
-7.48
-9.78
-11.98
-14.09
-16.24
-18.52
-21.08
-24.00
-27.29
-30.78
-34.06
-36.63
-37.89
-37.37
-34.79
-30.25
-24.18
-17.31
-10.43
-4.21
0.99
5.09
8.20
10.52
12.14
13.07
13.30
12.90
12.05
11.02
10.06
9.35
8.95
8.83
8.95
9.22
9.58
9.98
10.35
10.63
10.78
10.76
10.52
9.99
9.06
7.59
5.52
2.90
-0.06
-3.10
-5.91
-8.33
-10.32
-12.07
-13.78
-15.69
-17.92
-20.46
-23.18
-25.83
-28.05
-29.37
-29.34
-27.62
-24.17
-19.17
-13.11
-6.57
-0.13
5.76
10.77
14.73
17.60
19.39
20.22
20.28
19.81
19.08
18.26
17.48
16.78
16.14
15.59
15.22
15.13
15.37
15.87
16.37
16.55
16.12
14.97
13.19
11.03
8.75
6.54
4.50
2.59
0.76
-1.03
-2.80
-4.54
-6.23
-7.86
-9.44
-10.96
-12.55
-14.38
-16.69
-19.58
-22.99
-26.53
-29.57
-31.43
-31.50
-29.48
-25.45
-19.85
-13.40
-6.88
-0.98
3.89
7.60
10.33
12.35
13.98
15.36
16.49
17.29
17.71
17.75
17.54
17.20
16.86
16.56
16.26
15.91
15.46
14.88
14.22
13.52
12.78
11.95
10.96
9.71
8.11
6.18
4.05
1.92
0.01
-1.55
-2.73
-3.68
-4.60
-5.70
-7.11
-8.82
-10.68
-12.46
-13.98
-15.25
-16.51
-18.14
-20.48
-23.61
-27.16
-30.40
-32.43
-32.51
-30.31
-26.03
-20.29
-13.85
-7.45
-1.64
3.24
7.05
9.75
11.38
12.02
11.80
10.88
9.47
7.81
6.21
4.92
4.17
4.03
4.44
5.17
5.97
6.62
6.93
6.88
6.49
5.85
5.03
4.06
2.90
1.49
-0.19
-2.09
-4.07
-5.98
-7.73
-9.30
-10.75
-12.23
-13.89
-15.88
-18.28
-21.01
-23.77
-26.08
-27.36
-27.05
-24.87
-20.89
-15.51
-9.38
-3.13
2.70
7.77
11.94
15.14
17.37
18.67
19.08
18.72
17.80
16.56
15.26
14.09
13.14
12.37
11.70
11.07
10.46
9.90
9.38
8.91
8.40
7.79
6.96
5.90
4.57
3.04
1.33
-0.52
-2.51
-4.63
-6.86
-9.17
-11.48
-13.77
-16.03
-18.30
-20.64
-23.14
-25.73
-28.21
-30.19
-31.10
-30.44
-27.91
-23.52
-17.66
-11.00
-4.26
1.97
7.35
11.78
15.31
17.94
19.70
20.56
20.57
19.85
18.67
17.30
16.00
14.98
14.30
13.96
13.90
14.01
14.18
14.28
14.16
13.72
12.91
11.74
10.35
8.87
7.41
5.97
4.50
2.85
0.93
-1.28
-3.74
-6.31
-8.84
-11.24
-13.41
-15.41
-17.36
-19.44
-21.83
-24.60
-27.58
-30.30
-32.15
-32.52
-31.02
-27.58
-22.52
-16.39
-9.87
-3.56
2.11
6.85
10.54
13.14
14.74
15.52
15.76
15.79
15.83
16.02
16.35
16.67
16.88
16.91
16.81
16.71
16.71
16.83
16.99
17.08
16.96
16.54
15.78
14.67
13.16
11.31
9.16
6.85
4.54
2.34
0.29
-1.67
-3.64
-5.72
-7.96
-10.33
-12.79
-15.24
-17.64
-19.95
-22.25
-24.66
-27.29
-30.20
-33.18
-35.79
-37.45
-37.54
-35.68
-31.79
-26.20
-19.51
-12.45
-5.71
0.16
4.86
8.31
10.67
12.15
13.00
13.38
13.41
13.17
12.78
12.37
12.11
12.11
12.36
12.77
13.20
13.56
13.81
13.97
14.08
14.07
13.84
13.28
12.31
11.00
9.44
7.69
5.80
3.74
1.48
-0.91
-3.28
-5.47
-7.38
-9.06
-10.67
-12.43
-14.51
-16.96
-19.72
-22.65
-25.45
-27.72
-28.93
-28.57
-26.34
-22.28
-16.81
-10.58
-4.34
1.35
6.16
9.96
12.78
14.70
15.81
16.22
16.10
15.62
14.92
14.14
13.35
12.63
12.08
11.80
11.92
12.45
13.33
14.35
15.25
15.83
15.88
15.34
14.19
12.46
10.27
7.73
4.97
2.14
-0.62
-3.24
-5.72
-8.11
-10.49
-12.96
-15.54
-18.25
-21.13
-24.21
-27.52
-30.85
-33.81
-35.77
-36.07
-34.26
-30.29
-24.57
-17.80
-10.74
-3.99
2.08
7.30
11.59
14.89
17.22
18.66
19.43
19.78
19.94
20.02
20.04
19.95
19.69
19.28
18.75
18.24
17.83
17.58
17.45
17.30
16.91
16.10
14.78
13.00
10.93
8.72
6.53
4.32
2.04
-0.38
-2.91
-5.46
-7.90
-10.15
-12.26
-14.32
-16.45
-18.76
-21.29
-24.06
-27.03
-30.07
-32.91
-35.06
-35.92
-34.89
-31.64
-26.24
-19.19
-11.31
-3.52
3.46
9.23
13.69
16.97
19.22
20.61
21.24
21.27
20.90
20.33
19.77
19.31
18.93
18.61
18.39
18.40
18.76
19.50
20.40
21.08
21.20
20.53
19.12
17.23
15.14
13.04
10.95
8.80
6.50
4.06
1.56
-0.87
-3.18
-5.39
-7.60
-9.89
-12.37
-15.03
-17.88
-20.92
-24.10
-27.38
-30.55
-33.23
-34.87
-34.88
-32.88
-28.76
-22.85
-15.82
-8.50
-1.73
3.92
8.17
11.06
12.79
13.67
13.90
13.66
13.04
12.15
11.15
10.25
9.68
9.58
9.98
10.77
11.74
12.65
13.35
13.78
13.93
13.83
13.49
12.87
11.87
10.47
8.69
6.62
4.40
2.16
-0.03
-2.12
-4.12
-6.06
-7.96
-9.86
-11.82
-13.99
-16.52
-19.48
-22.77
-25.99
-28.49
-29.57
-28.69
-25.72
-20.94
-14.93
-8.41
-1.95
4.03
9.25
13.51
16.61
18.46
19.11
18.82
17.98
16.98
16.14
15.55
15.23
15.14
15.24
15.53
16.02
16.67
17.36
17.97
18.37
18.47
18.26
17.73
16.89
15.73
14.23
12.37
10.15
7.62
4.86
2.01
-0.82
-3.55
-6.12
-8.55
-10.94
-13.41
-16.09
-19.13
-22.55
-26.27
-30.02
-33.39
-35.88
-36.96
-36.24
-33.53
-28.96
-22.93
-16.06
-9.06
-2.55
3.00
7.36
10.53
12.64
13.96
14.71
15.10
15.22
15.12
14.85
14.47
14.14
14.02
14.22
14.77
15.51
16.27
16.87
17.23
17.33
17.17
16.73
15.94
14.75
13.18
11.35
9.42
7.50
5.58
3.55
1.34
-1.09
-3.63
-6.13
-8.54
-10.85
-13.18
-15.63
-18.30
-21.22
-24.40
-27.72
-30.95
-33.65
-35.18
-34.92
-32.48
-27.85
-21.50
-14.24
-6.90
-0.15
5.63
10.37
14.10
16.89
18.74
19.64
19.69
19.13
18.32
17.60
17.20
17.17
17.36
17.61
17.84
18.06
18.35
18.75
19.14
19.34
19.11
18.35
17.12
15.59
13.99
12.40
10.76
8.92
6.71
4.04
1.01
-2.17
-5.21
-7.86
-10.00
-11.63
-12.92
-14.10
-15.42
-17.08
-19.19
-21.80
-24.78
-27.84
-30.48
-32.05
-31.98
-29.90
-25.82
-20.18
-13.73
-7.25
-1.44
3.28
6.81
9.19
10.61
11.21
11.16
10.59
9.64
8.50
7.39
6.51
6.00
5.94
6.30
7.00
7.92
8.97
10.04
10.99
11.71
12.02
11.79
10.93
9.39
7.23
4.57
1.58
-1.49
-4.37
-6.85
-8.81
-10.23
-11.31
-12.33
-13.60
-15.33
-17.57
-20.12
-22.61
-24.54
-25.36
-24.69
-22.36
-18.47
-13.37
-7.61
-1.77
3.60
8.10
11.53
13.86
15.16
15.66
15.54
14.99
14.13
13.01
11.75
10.49
9.43
8.76
8.52
8.60
8.82
8.98
8.99
8.89
8.77
8.65
8.48
8.06
7.20
5.75
3.77
1.36
-1.24
-3.84
-6.30
-8.53
-10.56
-12.52
-14.66
-17.18
-20.24
-23.76
-27.33
-30.36
-32.10
-31.98
-29.76
-25.58
-19.92
-13.44
-6.79
-0.48
5.11
9.79
13.46
16.07
17.63
18.22
18.05
17.38
16.50
15.62
14.84
14.17
13.58
13.10
12.79
12.76
12.99
13.38
13.71
13.78
13.50
12.91
12.14
11.22
10.05
8.42
6.11
3.11
-0.35
-3.84
-6.93
-9.34
-11.08
-12.43
-13.81
-15.64
-18.18
-21.43
-25.10
-28.72
-31.69
-33.39
-33.38
-31.41
-27.58
-22.22
-15.87
-9.20
-2.82
2.77
7.29
10.63
12.92
14.42
15.43
16.24
16.99
17.70
18.28
18.66
18.81
18.77
18.67
18.64
18.83
19.25
19.82
20.37
20.69
20.61
20.04
19.05
17.73
16.20
14.46
12.45
10.10
7.43
4.53
1.58
-1.32
-4.18
-7.05
-9.99
-12.94
-15.74
-18.26
-20.50
-22.62
-24.94
-27.71
-30.92
-34.18
-36.80
-38.00
-37.19
-34.14
-29.09
-22.63
-15.57
-8.60
-2.23
3.28
7.85
11.51
14.24
16.03
16.90
16.98
16.56
15.96
15.52
15.40
15.65
16.17
16.83
17.52
18.23
18.96
19.63
20.10
20.16
19.68
18.60
17.01
15.09
12.99
10.87
8.74
6.61
4.42
2.15
-0.23
-2.71
-5.26
-7.78
-10.15
-12.24
-13.94
-15.26
-16.39
-17.63
-19.33
-21.66
-24.52
-27.41
-29.55
-30.13
-28.61
-24.94
-19.54
-13.25
-6.93
-1.30
3.25
6.62
8.92
10.31
10.88
10.70
9.87
8.55
6.98
5.49
4.33
3.69
3.61
4.01
4.70
5.45
6.09
6.51
6.69
6.62
6.33
5.77
4.87
3.56
1.78
-0.41
-2.88
-5.40
-7.73
-9.73
-11.35
-12.73
-14.07
-15.57
-17.36
-19.47
-21.84
-24.36
-26.83
-28.94
-30.25
-30.29
-28.61
-25.01
-19.64
-13.04
-5.94
0.89
6.94
11.91
15.78
18.58
20.41
21.31
21.38
20.78
19.77
18.66
17.70
17.05
16.76
16.76
16.95
17.25
17.59
17.88
18.04
18.00
17.63
16.90
15.71
14.06
11.96
9.44
6.61
3.59
0.52
-2.53
-5.50
-8.34
-11.05
-13.61
-16.00
-18.25
-20.44
-22.73
-25.26
-28.03
-30.82
-33.16
-34.41
-33.98
-31.50
-27.00
-20.93
-14.00
-7.00
-0.52
5.05
9.64
13.28
16.05
17.97
19.13
19.63
19.69
19.59
19.49
19.46
19.44
19.28
18.95
18.55
18.29
18.33
18.69
19.18
19.50
19.31
18.45
16.93
14.98
12.82
10.70
8.73
6.88
5.08
3.18
1.08
-1.31
-3.92
-6.65
-9.33
-11.84
-14.18
-16.46
-18.90
-21.67
-24.85
-28.26
-31.47
-33.95
-35.11
-34.53
-32.03
-27.74
-22.00
-15.38
-8.49
-1.93
3.81
8.40
11.75
13.94
15.22
15.91
16.31
16.65
17.06
17.52
18.01
18.43
18.75
18.97
19.14
19.33
19.55
19.80
20.02
20.13
20.01
19.50
18.51
17.01
15.04
12.80
10.51
8.32
6.29
4.31
2.19
-0.17
-2.79
-5.58
-8.37
-11.05
-13.54
-15.82
-17.92
-19.94
-22.00
-24.30
-26.94
-29.81
-32.51
-34.39
-34.76
-33.09
-29.28
-23.62
-16.78
-9.52
-2.56
3.60
8.68
12.54
15.15
16.58
16.96
16.54
15.62
14.53
13.54
12.81
12.36
12.17
12.24
12.54
13.01
13.55
14.04
14.31
14.28
13.92
13.29
12.44
11.36
10.02
8.36
6.39
4.19
1.91
-0.37
-2.58
-4.75
-6.92
-9.10
-11.32
-13.61
-16.04
-18.72
-21.71
-24.94
-28.09
-30.64
-31.91
-31.34
-28.66
-24.03
-17.97
-11.22
-4.53
1.52
6.60
10.59
13.50
15.41
16.43
16.74
16.55
16.13
15.77
15.64
15.85
16.32
16.91
17.44
17.79
17.93
17.89
17.74
17.48
17.06
16.40
15.45
14.19
12.68
10.96
9.05
6.86
4.35
1.49
-1.62
-4.82
-7.91
-10.74
-13.28
-15.63
-17.97
-20.50
-23.34
-26.49
-29.85
-33.15
-35.97
-37.78
-38.04
-36.34
-32.53
-26.84
-19.82
-12.25
-4.91
1.55
6.80
10.77
13.60
15.51
16.73
17.38
17.57
17.37
16.87
16.22
15.64
15.29
15.30
15.67
16.33
17.16
18.01
18.76
19.23
19.29
18.83
17.84
16.40
14.69
12.88
11.05
9.17
7.12
4.83
2.26
-0.48
-3.23
-5.85
-8.27
-10.56
-12.89
-15.45
-18.40
-21.81
-25.64
-29.68
-33.55
-36.65
-38.29
-37.86
-35.03
-29.91
-23.10
-15.46
-7.94
-1.26
4.19
8.36
11.39
13.50
14.83
15.44
15.41
14.81
13.82
12.71
11.76
11.25
11.30
11.85
12.68
13.53
14.21
14.64
14.88
15.00
15.01
14.75
13.97
12.45
10.15
7.16
3.77
0.32
-2.92
-5.77
-8.23
-10.40
-12.37
-14.26
-16.19
-18.23
-20.47
-22.92
-25.45
-27.74
-29.27
-29.43
-27.78
-24.23
-19.07
-12.91
-6.47
-0.37
4.98
9.41
12.83
15.23
16.58
16.92
16.42
15.40
14.23
13.25
12.69
12.59
12.86
13.32
13.73
13.89
13.66
13.07
12.20
11.14
9.97
8.67
7.18
5.41
3.34
1.03
-1.38
-3.76
-6.08
-8.31
-10.46
-12.57
-14.68
-16.89
-19.38
-22.25
-25.46
-28.73
-31.52
-33.18
-33.18
-31.23
-27.47
-22.32
-16.37
-10.21
-4.29
1.09
5.77
9.66
12.72
14.97
16.47
17.33
17.64
17.55
17.20
16.72
16.24
15.88
15.71
15.74
15.88
15.98
15.91
15.57
14.93
14.02
12.90
11.60
10.10
8.34
6.29
3.94
1.32
-1.51
-4.45
-7.43
-10.33
-13.12
-15.82
-18.51
-21.30
-24.21
-27.13
-29.70
-31.38
-31.61
-30.00
-26.45
-21.27
-15.07
-8.56
-2.41
2.95
7.34
10.80
13.38
15.14
16.11
16.39
16.14
15.68
15.29
15.17
15.35
15.67
15.94
16.08
16.07
16.00
15.91
15.74
15.37
14.71
13.73
12.45
10.95
9.19
7.14
4.74
2.03
-0.84
-3.65
-6.23
-8.51
-10.57
-12.55
-14.65
-16.99
-19.66
-22.56
-25.45
-27.94
-29.47
-29.52
-27.75
-24.10
-18.88
-12.62
-6.01
0.35
5.96
10.54
13.93
16.11
17.18
17.31
16.70
15.56
14.12
12.60
11.24
10.24
9.74
9.80
10.32
11.09
11.84
12.33
12.41
12.09
11.42
10.51
9.39
7.97
6.16
3.88
1.18
-1.81
-4.82
-7.59
-9.94
-11.87
-13.52
-15.12
-16.95
-19.18
-21.77
-24.49
-26.91
-28.47
-28.70
-27.25
-24.04
-19.26
-13.32
-6.77
-0.18
5.90
11.07
15.03
17.69
19.16
19.71
19.70
19.49
19.30
19.21
19.21
19.26
19.33
19.48
19.69
19.92
20.08
20.05
19.78
19.29
18.60
17.71
16.56
15.10
13.33
11.30
9.09
6.77
4.38
1.91
-0.62
-3.09
-5.43
-7.55
-9.53
-11.57
-13.92
-16.80
-20.32
-24.42
-28.84
-33.16
-36.83
-39.24
-39.88
-38.41
-34.81
-29.38
-22.68
-15.37
-8.10
-1.37
4.52
9.45
13.46
16.63
19.05
20.85
22.09
22.84
23.20
23.30
23.31
23.36
23.54
23.85
24.19
24.41
24.41
24.12
23.58
22.87
22.05
21.17
20.18
19.02
17.60
15.87
13.82
11.50
9.06
6.63
4.35
2.24
0.23
-1.78
-3.87
-6.03
-8.17
-10.19
-12.12
-14.06
-16.25
-18.86
-22.03
-25.65
-29.52
-33.22
-36.24
-37.97
-37.87
-35.60
-31.18
-25.04
-17.92
-10.71
-4.15
1.27
5.43
8.45
10.59
12.08
13.14
13.86
14.34
14.68
14.97
15.34
15.86
16.56
17.35
18.13
18.77
19.23
19.50
19.62
19.62
19.47
19.05
18.20
16.77
14.75
12.28
9.64
7.14
4.97
3.18
1.67
0.23
-1.31
-3.05
-4.96
-6.95
-8.95
-10.84
-12.60
-14.27
-15.95
-17.77
-19.87
-22.32
-24.99
-27.63
-29.76
-30.78
-30.19
-27.68
-23.30
-17.45
-10.84
-4.27
1.57
6.25
9.67
12.00
13.51
14.43
14.88
14.93
14.64
14.10
13.47
12.95
12.66
12.69
12.95
13.32
13.63
13.80
13.81
13.70
13.51
13.20
12.66
11.74
10.37
8.60
6.66
4.82
3.27
2.02
0.93
-0.27
-1.77
-3.63
-5.74
-7.92
-9.95
-11.70
-13.22
-14.62
-16.15
-18.05
-20.50
-23.45
-26.55
-29.19
-30.64
-30.25
-27.75
-23.34
-17.58
-11.21
-4.95
0.75
5.65
9.69
12.85
15.10
16.42
16.87
16.67
16.09
15.44
14.94
14.63
14.45
14.30
14.08
13.80
13.54
13.45
13.64
14.16
14.89
15.62
16.02
15.84
14.95
13.42
11.45
9.31
7.25
5.36
3.65
2.03
0.38
-1.39
-3.36
-5.56
-7.98
-10.51
-13.00
-15.29
-17.33
-19.15
-20.99
-23.05
-25.48
-28.20
-30.85
-32.91
-33.76
-32.96
-30.32
-26.01
-20.47
-14.34
-8.21
-2.57
2.29
6.24
9.26
11.42
12.78
13.47
13.64
13.48
13.22
13.09
13.23
13.66
14.27
14.89
15.34
15.53
15.47
15.32
15.24
15.36
15.65
15.93
15.95
15.48
14.45
12.92
11.08
9.11
7.12
5.08
2.94
0.68
-1.62
-3.82
-5.83
-7.64
-9.37
-11.15
-13.10
-15.20
-17.37
-19.54
-21.74
-24.12
-26.82
-29.85
-32.86
-35.25
-36.30
-35.42
-32.41
-27.54
-21.41
-14.77
-8.30
-2.45
2.53
6.62
9.81
12.19
13.79
14.69
14.99
14.84
14.41
13.90
13.52
13.36
13.40
13.54
13.62
13.57
13.46
13.44
13.60
13.90
14.10
13.87
12.98
11.41
9.39
7.23
5.23
3.47
1.90
0.35
-1.29
-3.03
-4.84
-6.65
-8.42
-10.15
-11.79
-13.34
-14.78
-16.16
-17.59
-19.27
-21.31
-23.64
-25.94
-27.68
-28.29
-27.31
-24.59
-20.31
-14.96
-9.16
-3.50
1.54
5.66
8.71
10.68
11.70
11.96
11.72
11.23
10.64
10.02
9.41
8.77
8.15
7.63
7.30
7.29
7.65
8.33
9.21
10.06
10.65
10.82
10.51
9.75
8.60
7.12
5.33
3.28
1.03
-1.30
-3.58
-5.70
-7.63
-9.42
-11.19
-13.07
-15.14
-17.42
-19.95
-22.71
-25.61
-28.45
-30.84
-32.26
-32.18
-30.20
-26.22
-20.56
-13.87
-6.99
-0.68
4.56
8.55
11.43
13.44
14.83
15.69
16.02
15.74
14.84
13.47
11.95
10.64
9.85
9.70
10.14
10.98
12.02
13.09
14.10
14.95
15.54
15.71
15.32
14.33
12.81
10.93
8.85
6.71
4.56
2.31
-0.15
-2.93
-6.01
-9.24
-12.34
-15.04
-17.18
-18.83
-20.31
-21.99
-24.17
-26.87
-29.83
-32.52
-34.33
-34.77
-33.52
-30.57
-26.12
-20.60
-14.55
-8.53
-3.00
1.73
5.50
8.36
10.43
11.86
12.79
13.33
13.56
13.58
13.49
13.44
13.55
13.90
14.49
15.29
16.17
16.94
17.43
17.50
17.06
16.14
14.84
13.33
11.78
10.28
8.80
7.28
5.60
3.72
1.64
-0.61
-2.98
-5.45
-7.98
-10.54
-13.02
-15.34
-17.50
-19.62
-21.97
-24.77
-28.06
-31.54
-34.59
-36.38
-36.25
-33.87
-29.38
-23.36
-16.55
-9.69
-3.32
2.21
6.74
10.18
12.54
13.91
14.47
14.45
14.09
13.57
12.99
12.41
11.89
11.52
11.39
11.57
12.05
12.73
13.52
14.27
14.86
15.14
14.97
14.31
13.18
11.70
10.07
8.40
6.74
4.99
3.05
0.84
-1.55
-3.96
-6.20
-8.17
-9.89
-11.57
-13.46
-15.83
-18.83
-22.37
-26.10
-29.39
-31.54
-31.92
-30.22
-26.52
-21.25
-15.07
-8.67
-2.60
2.76
7.17
10.53
12.84
14.17
14.71
14.69
14.36
13.89
13.35
12.83
12.38
12.08
12.05
12.35
12.97
13.78
14.62
15.26
15.56
15.42
14.81
13.75
12.29
10.45
8.34
6.06
3.70
1.35
-0.96
-3.20
-5.37
-7.51
-9.68
-11.94
-14.32
-16.91
-19.73
-22.79
-25.92
-28.81
-30.97
-31.86
-31.01
-28.19
-23.51
-17.38
-10.48
-3.53
2.85
8.17
12.24
15.06
16.82
17.82
18.37
18.71
18.93
19.07
19.12
19.11
19.10
19.16
19.34
19.69
20.18
20.75
21.31
21.74
21.88
21.56
20.68
19.26
17.41
15.30
13.07
10.76
8.31
5.64
2.74
-0.27
-3.20
-5.89
-8.26
-10.42
-12.56
-14.85
-17.43
-20.30
-23.43
-26.71
-29.93
-32.70
-34.49
-34.70
-32.89
-28.94
-23.18
-16.25
-8.96
-2.02
4.03
8.96
12.76
15.54
17.47
18.71
19.38
19.55
19.24
18.53
17.57
16.62
15.93
15.68
15.84
16.28
16.83
17.38
17.94
18.51
19.05
19.33
19.07
18.06
16.32
14.11
11.81
9.75
8.01
6.40
4.64
2.52
0.06
-2.57
-5.11
-7.47
-9.71
-12.05
-14.70
-17.77
-21.18
-24.72
-28.12
-31.11
-33.36
-34.52
-34.22
-32.20
-28.38
-23.01
-16.62
-9.94
-3.66
1.74
6.08
9.40
11.90
13.77
15.13
16.03
16.51
16.68
16.68
16.71
16.92
17.36
17.97
18.60
19.13
19.41
19.42
19.15
18.64
17.87
16.86
15.60
14.10
12.38
10.41
8.22
5.82
3.25
0.63
-1.93
-4.32
-6.49
-8.42
-10.18
-11.85
-13.59
-15.54
-17.84
-20.53
-23.44
-26.19
-28.16
-28.70
-27.32
-23.90
-18.72
-12.42
-5.79
0.45
5.79
10.04
13.20
15.45
17.00
17.94
18.35
18.24
17.69
16.85
15.97
15.26
14.89
14.86
15.11
15.47
15.81
16.04
16.05
15.79
15.22
14.32
13.09
11.60
9.86
7.92
5.78
3.49
1.12
-1.24
-3.50
-5.63
-7.65
-9.56
-11.38
-13.11
-14.80
-16.58
-18.65
-21.14
-24.02
-27.00
-29.54
-31.00
-30.84
-28.82
-25.00
-19.72
-13.46
-6.83
-0.38
5.39
10.13
13.68
16.06
17.50
18.25
18.61
18.72
18.69
18.54
18.25
17.88
17.49
17.17
17.01
17.07
17.38
17.82
18.21
18.30
17.89
16.89
15.43
13.73
12.06
10.56
9.21
7.86
6.33
4.48
2.31
-0.10
-2.68
-5.35
-8.01
-10.57
-12.94
-15.09
-17.09
-19.11
-21.39
-24.05
-27.05
-30.05
-32.51
-33.78
-33.34
-30.93
-26.64
-20.91
-14.40
-7.87
-1.98
2.88
6.55
9.16
10.95
12.18
13.04
13.66
14.11
14.43
14.70
15.00
15.39
15.93
16.56
17.18
17.67
17.93
17.94
17.72
17.36
16.87
16.26
15.47
14.42
13.06
11.42
9.60
7.74
5.91
4.15
2.46
0.73
-1.10
-3.06
-5.13
-7.22
-9.23
-11.11
-12.91
-14.75
-16.85
-19.41
-22.52
-26.02
-29.48
-32.24
-33.55
-32.85
-29.94
-25.12
-19.05
-12.54
-6.33
-0.92
3.49
6.89
9.33
10.89
11.67
11.81
11.54
11.11
10.75
10.58
10.63
10.87
11.23
11.65
12.07
12.48
12.81
13.06
13.19
13.16
12.92
12.43
11.62
10.48
9.00
7.21
5.24
3.20
1.22
-0.61
-2.24
-3.71
-5.06
-6.37
-7.68
-8.98
-10.29
-11.62
-13.06
-14.75
-16.80
-19.28
-22.04
-24.72
-26.69
-27.29
-25.98
-22.62
-17.50
-11.32
-4.92
0.95
5.85
9.63
12.31
14.03
14.89
14.99
14.42
13.38
12.12
10.94
10.09
9.67
9.64
9.86
10.18
10.52
10.91
11.44
12.15
12.94
13.56
13.73
13.25
12.08
10.40
8.52
6.70
5.04
3.46
1.75
-0.28
-2.66
-5.28
-7.84
-10.07
-11.85
-13.27
-14.62
-16.18
-18.15
-20.54
-23.25
-26.08
-28.82
-31.22
-32.94
-33.56
-32.64
-29.94
-25.47
-19.64
-13.15
-6.78
-1.20
3.24
6.53
8.93
10.80
12.44
13.94
15.24
16.12
16.43
16.19
15.56
14.85
14.28
13.98
13.92
13.98
14.07
14.20
14.42
14.71
15.01
15.10
14.81
14.02
12.77
11.25
9.64
8.06
6.51
4.92
3.16
1.17
-1.11
-3.64
-6.31
-8.99
-11.55
-13.91
-15.98
-17.83
-19.54
-21.28
-23.20
-25.36
-27.61
-29.62
-30.92
-31.01
-29.55
-26.45
-21.99
-16.60
-10.85
-5.27
-0.28
3.81
6.88
8.89
9.96
10.28
10.08
9.58
8.95
8.32
7.82
7.51
7.46
7.66
8.05
8.56
9.08
9.52
9.84
10.03
10.09
9.93
9.52
8.78
7.68
6.24
4.50
2.60
0.63
-1.31
-3.19
-4.98
-6.71
-8.37
-9.97
-11.52
-13.02
-14.54
-16.11
-17.83
-19.75
-21.85
-23.92
-25.55
-26.28
-25.65
-23.44
-19.75
-14.98
-9.72
-4.54
0.19
4.30
7.73
10.47
12.45
13.59
13.88
13.46
12.61
11.66
10.88
10.42
10.24
10.21
10.19
10.11
9.95
9.76
9.58
9.44
9.33
9.18
8.90
8.38
7.59
6.57
5.43
4.33
3.29
2.25
1.04
-0.52
-2.53
-4.94
-7.59
-10.26
-12.81
-15.23
-17.65
-20.26
-23.18
-26.33
-29.39
-31.83
-33.04
-32.57
-30.22
-26.22
-21.02
-15.22
-9.36
-3.81
1.20
5.50
8.99
11.57
13.24
14.10
14.36
14.30
14.16
14.10
14.21
14.48
14.91
15.49
16.18
16.95
17.73
18.38
18.76
18.75
18.24
17.26
15.86
14.18
12.31
10.36
8.34
6.24
4.04
1.75
-0.59
-2.88
-5.01
-6.91
-8.58
-10.15
-11.82
-13.78
-16.13
-18.84
-21.76
-24.70
-27.44
-29.77
-31.37
-31.89
-30.93
-28.26
-23.92
-18.29
-12.07
-6.03
-0.83
3.18
5.96
7.72
8.81
9.57
10.23
10.88
11.55
12.17
12.72
13.20
13.63
14.05
14.49
14.90
15.24
15.46
15.55
15.45
15.14
14.52
13.51
12.11
10.38
8.52
6.69
4.96
3.23
1.35
-0.81
-3.27
-5.85
-8.32
-10.49
-12.32
-13.93
-15.51
-17.27
-19.36
-21.87
-24.71
-27.64
-30.22
-31.88
-32.06
-30.38
-26.81
-21.68
-15.60
-9.27
-3.35
1.74
5.80
8.83
10.92
12.22
12.85
12.95
12.65
12.08
11.44
10.91
10.62
10.67
11.06
11.74
12.62
13.58
14.47
15.12
15.41
15.22
14.56
13.50
12.13
10.52
8.69
6.64
4.31
1.76
-0.88
-3.40
-5.57
-7.28
-8.57
-9.71
-10.99
-12.73
-15.09
-18.07
-21.44
-24.78
-27.58
-29.25
-29.30
-27.44
-23.66
-18.31
-12.01
-5.48
0.62
5.88
10.15
13.49
15.98
17.74
18.82
19.32
19.37
19.17
18.89
18.65
18.52
18.47
18.52
18.66
18.91
19.28
19.69
20.03
20.15
19.91
19.21
18.09
16.63
14.96
13.15
11.23
9.13
6.75
4.05
1.08
-2.07
-5.27
-8.39
-11.38
-14.20
-16.88
-19.49
-22.15
-24.99
-28.05
-31.18
-33.93
-35.64
-35.66
-33.59
-29.44
-23.69
-17.08
-10.37
-4.11
1.42
6.16
10.17
13.51
16.19
18.14
19.37
19.95
20.06
19.91
19.69
19.49
19.36
19.31
19.40
19.77
20.51
21.59
22.83
23.86
24.26
23.75
22.27
19.97
17.18
14.29
11.56
9.15
7.07
5.20
3.41
1.54
-0.46
-2.60
-4.85
-7.15
-9.50
-11.89
-14.35
-16.93
-19.68
-22.64
-25.81
-29.02
-31.95
-34.13
-35.02
-34.17
-31.41
-26.86
-20.95
-14.29
-7.55
-1.28
4.13
8.53
11.94
14.56
16.57
18.08
19.15
19.75
19.91
19.75
19.45
19.20
19.11
19.17
19.26
19.18
18.86
18.29
17.57
16.78
15.94
14.99
13.81
12.36
10.62
8.73
6.77
4.83
2.88
0.82
-1.39
-3.74
-6.08
-8.24
-10.07
-11.55
-12.76
-13.88
-15.14
-16.72
-18.76
-21.23
-23.93
-26.46
-28.27
-28.79
-27.62
-24.66
-20.15
-14.61
-8.65
-2.84
2.38
6.75
10.11
12.43
13.75
14.18
13.89
13.15
12.22
11.36
10.70
10.36
10.33
10.59
11.09
11.78
12.60
13.46
14.23
14.76
14.91
14.58
13.71
12.29
10.43
8.27
6.01
3.82
1.80
-0.10
-1.99
-3.98
-6.10
-8.25
-10.28
-12.08
-13.70
-15.32
-17.18
-19.42
-21.91
-24.24
-25.85
-26.16
-24.76
-21.54
-16.71
-10.75
-4.32
1.93
7.50
12.06
15.52
17.95
19.47
20.22
20.28
19.73
18.70
17.37
15.98
14.74
13.80
13.24
13.03
13.08
13.29
13.56
13.77
13.80
13.56
13.01
12.17
11.07
9.76
8.27
6.61
4.75
2.70
0.45
-1.89
-4.21
-6.39
-8.33
-10.02
-11.56
-13.12
-14.91
-17.08
-19.68
-22.64
-25.72
-28.51
-30.49
-31.13
-29.98
-26.86
-21.96
-15.82
-9.19
-2.77
2.86
7.49
11.14
13.93
15.98
17.32
17.95
17.90
17.34
16.54
15.75
15.19
14.88
14.72
14.62
14.52
14.47
14.57
14.86
15.26
15.56
15.49
14.84
13.57
11.78
9.69
7.53
5.44
3.46
1.54
-0.45
-2.62
-5.05
-7.71
-10.52
-13.32
-15.97
-18.41
-20.71
-23.00
-25.42
-27.94
-30.35
-32.20
-32.92
-32.07
-29.46
-25.25
-19.88
-13.96
-8.08
-2.71
1.84
5.42
7.96
9.52
10.27
10.38
10.07
9.55
8.93
8.34
7.87
7.62
7.73
8.24
9.10
10.13
11.07
11.67
11.80
11.51
10.95
10.27
9.53
8.65
7.49
5.93
3.99
1.83
-0.37
-2.46
-4.37
-6.13
-7.84
-9.57
-11.43
-13.53
-15.95
-18.69
-21.58
-24.28
-26.29
-27.11
-26.37
-23.98
-20.14
-15.24
-9.80
-4.35
0.67
4.96
8.36
10.82
12.41
13.22
13.39
13.06
12.39
11.54
10.69
10.00
9.60
9.49
9.62
9.87
10.16
10.42
10.66
10.91
11.16
11.34
11.27
10.77
9.66
7.91
5.62
3.02
0.38
-2.13
-4.45
-6.66
-8.95
-11.48
-14.36
-17.58
-20.95
-24.15
-26.73
-28.22
-28.22
-26.57
-23.34
-18.89
-13.68
-8.21
-2.85
2.08
6.39
9.97
12.76
14.79
16.14
17.02
17.61
18.14
18.70
19.33
19.97
20.50
20.79
20.73
20.33
19.66
18.86
18.03
17.20
16.30
15.20
13.80
12.07
10.06
7.88
5.63
3.34
1.06
-1.24
-3.53
-5.79
-7.97
-10.03
-11.96
-13.80
-15.64
-17.62
-19.85
-22.37
-25.08
-27.71
-29.84
-31.00
-30.79
-29.01
-25.68
-21.08
-15.68
-10.02
-4.58
0.25
4.27
7.48
9.96
11.85
13.35
14.60
15.70
16.67
17.48
18.04
18.30
18.26
18.00
17.66
17.38
17.27
17.39
17.66
17.98
18.17
18.04
17.45
16.31
14.63
12.57
10.37
8.26
6.37
4.68
3.09
1.44
-0.40
-2.45
-4.65
-6.87
-8.99
-10.95
-12.82
-14.72
-16.83
-19.29
-22.14
-25.30
-28.48
-31.26
-33.11
-33.58
-32.36
-29.40
-24.93
-19.42
-13.41
-7.45
-1.94
2.85
6.84
9.99
12.42
14.20
15.47
16.32
16.81
16.97
16.87
16.59
16.26
16.00
15.89
15.98
16.23
16.59
16.95
17.22
17.29
17.04
16.38
15.31
13.88
12.24
10.56
8.95
7.42
5.85
4.12
2.14
-0.11
-2.48
-4.79
-6.84
-8.53
-9.88
-11.01
-12.18
-13.63
-15.63
-18.32
-21.69
-25.46
-29.09
-31.89
-33.15
-32.42
-29.61
-25.03
-19.34
-13.26
-7.48
-2.40
1.79
5.11
7.68
9.59
10.85
11.48
11.53
11.15
10.58
10.07
9.80
9.77
9.94
10.23
10.63
11.19
11.96
12.85
13.68
14.21
14.23
13.70
12.71
11.42
9.96
8.38
6.65
4.78
2.76
0.66
-1.47
-3.57
-5.63
-7.63
-9.56
-11.44
-13.30
-15.16
-17.10
-19.14
-21.26
-23.29
-24.91
-25.74
-25.43
-23.73
-20.64
-16.34
-11.22
-5.76
-0.45
4.33
8.32
11.38
13.51
14.76
15.30
15.34
15.11
14.82
14.65
14.66
14.87
15.21
15.60
15.97
16.30
16.51
16.52
16.26
15.65
14.66
13.32
11.70
9.86
7.94
6.03
4.27
2.73
1.37
0.08
-1.34
-3.05
-5.08
-7.34
-9.62
-11.72
-13.56
-15.23
-16.90
-18.82
-21.15
-23.88
-26.83
-29.63
-31.73
-32.60
-31.85
-29.31
-25.17
-19.85
-13.97
-8.11
-2.76
1.81
5.53
8.41
10.54
12.01
12.90
13.31
13.33
13.13
12.83
12.59
12.51
12.68
13.11
13.80
14.66
15.55
16.31
16.78
16.87
16.52
15.76
14.65
13.23
11.57
9.76
7.90
6.11
4.49
3.01
1.54
-0.14
-2.21
-4.72
-7.57
-10.50
-13.24
-15.59
-17.52
-19.18
-20.80
-22.58
-24.57
-26.67
-28.54
-29.72
-29.72
-28.19
-25.03
-20.45
-14.91
-9.00
-3.31
1.71
5.76
8.73
10.65
11.68
12.04
11.95
11.63
11.15
10.56
9.87
9.14
8.50
8.06
7.88
7.93
8.16
8.51
8.96
9.47
9.94
10.23
10.15
9.60
8.62
7.37
5.98
4.57
3.11
1.52
-0.25
-2.08
-3.81
-5.24
-6.36
-7.24
-8.12
-9.21
-10.68
-12.62
-15.04
-17.82
-20.74
-23.44
-25.45
-26.29
-25.60
-23.25
-19.42
-14.51
-9.07
-3.61
1.41
5.64
8.88
11.04
12.21
12.59
12.43
11.90
11.15
10.22
9.19
8.19
7.41
7.01
7.08
7.55
8.27
9.07
9.80
10.39
10.81
11.01
10.93
10.48
9.59
8.23
6.43
4.25
1.82
-0.72
-3.24
-5.65
-7.94
-10.11
-12.18
-14.19
-16.20
-18.30
-20.61
-23.14
-25.72
-27.99
-29.49
-29.72
-28.41
-25.48
-21.15
-15.83
-10.01
-4.17
1.23
5.86
9.48
11.99
13.44
14.04
14.04
13.74
13.36
13.08
12.97
13.04
13.31
13.73
14.32
15.02
15.77
16.48
17.06
17.44
17.52
17.24
16.54
15.39
13.81
11.93
9.92
7.90
5.99
4.14
2.27
0.27
-1.90
-4.21
-6.57
-8.90
-11.20
-13.47
-15.83
-18.35
-21.05
-23.91
-26.80
-29.51
-31.63
-32.71
-32.26
-30.00
-25.99
-20.66
-14.71
-8.82
-3.49
1.08
4.92
8.21
11.09
13.65
15.88
17.70
19.03
19.74
19.81
19.30
18.36
17.27
16.28
15.60
15.29
15.29
15.44
15.56
15.50
15.16
14.51
13.50
12.16
10.56
8.81
7.00
5.18
3.33
1.34
-0.86
-3.29
-5.87
-8.46
-10.88
-13.07
-15.05
-16.90
-18.81
-20.93
-23.40
-26.22
-29.16
-31.81
-33.63
-34.02
-32.56
-29.13
-23.97
-17.64
-10.82
-4.20
1.67
6.48
10.09
12.48
13.81
14.28
14.12
13.60
12.94
12.30
11.78
11.40
11.08
10.73
10.31
9.84
9.42
9.21
9.30
9.72
10.28
10.73
10.82
10.38
9.36
7.81
5.81
3.47
0.90
-1.75
-4.31
-6.61
-8.53
-10.11
-11.49
-12.90
-14.63
-16.87
-19.61
-22.66
-25.49
-27.51
-28.09
-26.79
-23.55
-18.68
-12.81
-6.60
-0.71
4.47
8.70
11.93
14.14
15.36
15.65
15.15
14.08
12.68
11.22
9.91
8.89
8.23
7.95
8.08
8.56
9.34
10.23
11.08
11.73
12.11
12.22
12.04
11.47
10.35
8.51
5.91
2.73
-0.62
-3.73
-6.27
-8.18
-9.65
-11.10
-12.91
-15.37
-18.50
-22.06
-25.60
-28.51
-30.21
-30.24
-28.40
-24.79
-19.77
-13.87
-7.65
-1.62
3.83
8.44
12.05
14.65
16.31
17.22
17.60
17.66
17.56
17.41
17.27
17.18
17.16
17.24
17.43
17.74
18.14
18.53
18.76
18.66
18.07
16.94
15.33
13.42
11.41
9.46
7.59
5.70
3.66
1.37
-1.14
-3.70
-6.13
-8.30
-10.23
-12.06
-14.03
-16.32
-19.05
-22.19
-25.58
-28.90
-31.67
-33.34
-33.36
-31.42
-27.50
-21.95
-15.39
-8.56
-2.10
3.54
8.10
11.57
13.99
15.55
16.47
16.97
17.21
17.28
17.21
16.97
16.58
16.11
15.63
15.23
15.03
15.09
15.41
15.88
16.26
16.25
15.62
14.27
12.30
9.97
7.64
5.50
3.65
2.00
0.43
-1.17
-2.84
-4.55
-6.27
-7.96
-9.63
-11.36
-13.27
-15.47
-18.06
-21.02
-24.16
-27.07
-29.21
-30.03
-29.10
-26.30
-21.82
-16.16
-9.96
-3.89
1.55
6.06
9.55
12.05
13.62
14.33
14.31
13.77
12.94
12.05
11.29
10.73
10.35
10.11
10.00
9.98
10.06
10.23
10.43
10.62
10.73
10.65
10.20
9.21
7.54
5.19
2.41
-0.38
-2.76
-4.47
-5.59
-6.49
-7.66
-9.58
-12.46
-16.19
-20.38
-24.42
-27.65
-29.47
-29.46
-27.46
-23.58
-18.20
-11.87
-5.20
1.27
7.12
12.09
16.02
18.85
20.57
21.26
21.04
20.13
18.81
17.36
16.03
15.03
14.45
14.34
14.69
15.46
16.51
17.60
18.45
18.78
18.47
17.57
16.27
14.82
13.30
11.68
9.75
7.36
4.47
1.22
-2.14
-5.38
-8.37
-11.11
-13.69
-16.25
-18.96
-21.93
-25.15
-28.41
-31.27
-33.12
-33.39
-31.67
-27.97
-22.65
-16.34
-9.72
-3.36
2.31
7.06
10.77
13.45
15.20
16.19
16.64
16.74
16.67
16.53
16.43
16.40
16.48
16.62
16.74
16.69
16.39
15.83
15.08
14.25
13.43
12.56
11.55
10.22
8.44
6.22
3.63
0.83
-2.00
-4.67
-7.09
-9.19
-11.00
-12.69
-14.48
-16.65
-19.35
-22.46
-25.62
-28.22
-29.61
-29.32
-27.15
-23.23
-17.93
-11.77
-5.24
1.23
7.28
12.58
16.77
19.55
20.72
20.30
18.57
16.04
13.31
10.92
9.20
8.19
7.74
7.60
7.55
7.52
7.52
7.59
7.72
7.79
7.63
7.02
5.83
4.07
1.89
-0.49
-2.82
-4.97
-6.89
-8.70
-10.59
-12.76
-15.33
-18.25
-21.30
-24.09
-26.15
-27.01
-26.38
-24.16
-20.47
-15.70
-10.30
-4.78
0.39
4.86
8.42
10.97
12.59
13.37
13.45
12.94
11.92
10.52
8.90
7.33
6.12
5.48
5.45
5.94
6.74
7.57
8.23
8.57
8.47
7.85
6.65
4.87
2.62
0.10
-2.44
-4.76
-6.77
-8.49
-10.07
-11.75
-13.70
-15.96
-18.30
-20.25
-21.21
-20.61
-18.16
-13.95
-8.45
-2.39
3.54
8.81
13.16
16.58
19.07
20.65
21.25
20.82
19.44
17.41
15.15
13.11
11.62
10.75
10.41
10.43
10.62
10.90
11.25
11.66
12.05
12.30
12.17
11.48
10.13
8.10
5.58
2.84
0.13
-2.32
-4.42
-6.20
-7.75
-9.18
-10.59
-12.09
-13.82
-15.91
-18.39
-21.10
-23.67
-25.58
-26.23
-25.24
-22.47
-18.17
-12.84
-7.10
-1.51
3.55
7.87
11.34
13.93
15.64
16.49
16.54
15.96
14.95
13.69
12.37
11.10
9.98
9.09
8.51
8.23
8.23
8.39
8.59
8.74
8.81
8.75
8.55
8.11
7.36
6.22
4.64
2.72
0.57
-1.64
-3.80
-5.86
-7.82
-9.74
-11.74
-13.97
-16.54
-19.47
-22.69
-25.90
-28.65
-30.40
-30.66
-29.12
-25.76
-20.86
-14.88
-8.46
-2.17
3.50
8.18
11.64
13.82
14.79
14.83
14.27
13.49
12.79
12.30
11.99
11.79
11.65
11.62
11.84
12.44
13.41
14.61
15.76
16.54
16.74
16.24
15.04
13.25
11.01
8.49
5.88
3.35
1.05
-0.97
-2.79
-4.58
-6.58
-9.02
-11.99
-15.42
-19.00
-22.18
-24.33
-24.89
-23.50
-20.19
-15.36
-9.64
-3.75
1.75
6.49
10.33
13.24
15.29
16.61
17.32
17.64
17.74
17.75
17.71
17.56
17.26
16.79
16.24
15.69
15.27
14.97
14.71
14.36
13.74
12.79
11.51
9.99
8.34
6.63
4.88
3.08
1.20
-0.84
-3.09
-5.66
-8.59
-11.79
-14.98
-17.70
-19.36
-19.48
-17.85
-14.56
-10.06
-4.90
0.35
5.26
9.49
12.89
15.34
16.85
17.50
17.41
16.82
15.95
15.01
14.13
13.36
12.67
11.99
11.28
10.54
9.82
9.24
8.87
8.72
8.67
8.48
7.95
6.93
5.41
3.53
1.53
-0.39
-2.09
-3.58
-4.98
-6.46
-8.15
-10.15
-12.30
-14.39
-16.09
-17.02
-16.92
-15.61
-13.16
-9.81
-5.98
-2.08
1.55
4.71
7.34
9.39
10.89
11.78
12.08
11.89
11.37
10.74
10.14
9.68
9.33
9.03
8.71
8.32
7.84
7.27
6.56
5.70
4.72
3.62
2.52
1.46
0.54
-0.20
-0.80
-1.32
-1.83
-2.40
-3.11
-3.97
-5.03
-6.28
-7.78
-9.56
-11.64
-13.96
-16.40
-18.74
-20.70
-21.94
-22.22
-21.35
-19.31
-16.24
-12.44
-8.33
-4.34
-0.85
1.93
3.98
5.46
6.59
7.55
8.43
9.15
9.61
9.72
9.51
9.11
8.69
8.35
8.12
7.93
7.72
7.45
7.15
6.83
6.45
5.91
5.14
4.08
2.83
1.53
0.35
-0.63
-1.38
-1.95
-2.42
-2.86
-3.38
-4.07
-5.08
-6.45
-8.18
-10.13
-12.12
-13.96
-15.56
-16.89
-17.94
-18.66
-18.89
-18.41
-17.01
-14.71
-11.69
-8.34
-5.10
-2.27
0.03
1.87
3.37
4.64
5.67
6.36
6.67
6.63
6.38
6.11
5.94
5.88
5.88
5.84
5.71
5.52
5.31
5.16
5.08
5.03
4.92
4.66
4.19
3.49
2.62
1.67
0.75
-0.12
-0.93
-1.81
-2.80
-3.93
-5.09
-6.14
-6.99
-7.65
-8.27
-9.05
-10.17
-11.70
-13.49
-15.33
-16.96
-18.20
-18.90
-18.98
-18.37
-17.03
-15.03
-12.53
-9.79
-7.09
-4.67
-2.62
-0.93
0.48
1.67
2.62
3.24
3.50
3.44
3.21
3.06
3.18
3.65
4.42
5.29
6.04
6.49
6.63
6.56
6.38
6.22
6.05
5.83
5.51
5.01
4.31
3.46
2.51
1.46
0.32
-0.93
-2.28
-3.68
-5.02
-6.23
-7.25
-8.06
-8.71
-9.34
-10.12
-11.24
-12.75
-14.58
-16.47
-18.09
-19.05
-19.05
-17.98
-15.95
-13.24
-10.22
-7.24
-4.54
-2.24
-0.35
1.20
2.51
3.65
4.67
5.56
6.30
6.86
7.24
7.38
7.29
7.00
6.61
6.26
6.08
6.12
6.36
6.74
7.14
7.47
7.64
7.51
6.99
5.99
4.57
2.90
1.25
-0.21
-1.40
-2.42
-3.44
-4.56
-5.80
-7.04
-8.22
-9.30
-10.37
-11.56
-12.92
-14.44
-15.99
-17.35
-18.34
-18.83
-18.69
-17.85
-16.29
-14.09
-11.42
-8.52
-5.67
-3.12
-0.99
0.69
1.96
2.87
3.47
3.75
3.73
3.51
3.19
2.88
2.66
2.54
2.47
2.41
2.32
2.19
2.05
1.89
1.71
1.48
1.12
0.57
-0.19
-1.15
-2.21
-3.22
-4.03
-4.57
-4.88
-5.09
-5.36
-5.82
-6.50
-7.33
-8.23
-9.13
-10.04
-11.00
-12.08
-13.28
-14.48
-15.48
-16.03
-15.93
-15.06
-13.40
-11.04
-8.16
-4.97
-1.77
1.20
3.68
5.48
6.55
6.86
6.50
5.60
4.32
2.81
1.28
-0.08
-1.09
-1.63
-1.64
-1.19
-0.44
0.39
1.09
1.52
1.68
1.66
1.64
1.67
1.73
1.64
1.21
0.37
-0.85
-2.26
-3.69
-5.02
-6.29
-7.57
-8.98
-10.54
-12.23
-13.99
-15.75
-17.45
-19.03
-20.50
-21.81
-22.93
-23.75
-24.08
-23.67
-22.33
-19.97
-16.78
-13.13
-9.45
-6.09
-3.27
-1.02
0.70
1.95
2.75
3.14
3.23
3.15
3.07
3.05
3.13
3.27
3.48
3.80
4.29
4.96
5.73
6.43
6.93
7.14
7.03
6.65
6.07
5.30
4.38
3.32
2.14
0.85
-0.56
-2.15
-3.93
-5.87
-7.84
-9.72
-11.43
-12.98
-14.54
-16.31
-18.41
-20.84
-23.51
-26.26
-28.92
-31.27
-33.04
-33.83
-33.28
-31.17
-27.56
-22.86
-17.66
-12.56
-7.99
-4.11
-0.88
1.82
4.09
5.94
7.34
8.33
9.00
9.50
10.03
10.71
11.53
12.43
13.27
13.99
14.60
15.16
15.69
16.14
16.34
16.07
15.22
13.81
11.97
9.94
7.95
6.09
4.35
2.62
0.77
-1.28
-3.55
-5.93
-8.28
-10.45
-12.40
-14.22
-16.12
-18.32
-20.96
-24.05
-27.44
-30.81
-33.70
-35.64
-36.12
-34.76
-31.44
-26.37
-20.10
-13.40
-7.01
-1.46
3.03
6.59
9.44
11.78
13.73
15.26
16.34
17.03
17.49
17.91
18.51
19.33
20.31
21.29
22.11
22.70
23.05
23.22
23.25
23.13
22.81
22.20
21.26
19.96
18.32
16.43
14.40
12.35
10.34
8.33
6.21
3.84
1.14
-1.79
-4.72
-7.34
-9.55
-11.46
-13.47
-16.02
-19.44
-23.71
-28.43
-32.90
-36.33
-38.05
-37.61
-34.93
-30.23
-24.00
-16.92
-9.67
-2.82
3.22
8.31
12.46
15.76
18.35
20.35
21.84
22.93
23.73
24.33
24.83
25.34
25.93
26.63
27.47
28.42
29.39
30.26
30.86
31.04
30.72
29.85
28.47
26.64
24.47
22.11
19.74
17.50
15.48
13.63
11.83
9.93
7.78
5.35
2.70
-0.07
-2.88
-5.68
-8.49
-11.36
-14.42
-17.85
-21.80
-26.25
-30.90
-35.14
-38.16
-39.16
-37.66
-33.60
-27.42
-19.89
-11.84
-3.99
3.17
9.42
14.62
18.73
21.73
23.62
24.52
24.68
24.47
24.24
24.29
24.72
25.42
26.21
26.92
27.51
28.08
28.69
29.31
29.77
29.77
29.07
27.56
25.40
22.86
20.26
17.81
15.57
13.46
11.35
9.10
6.65
3.99
1.17
-1.71
-4.54
-7.19
-9.57
-11.71
-13.68
-15.71
-18.07
-20.94
-24.28
-27.79
-30.84
-32.63
-32.44
-29.86
-24.94
-18.24
-10.62
-2.93
4.13
10.19
15.11
18.89
21.58
23.26
24.03
24.10
23.76
23.33
23.04
23.07
23.40
24.01
24.84
25.81
26.90
28.07
29.30
30.48
31.44
31.91
31.66
30.55
28.56
25.92
22.89
19.75
16.70
13.72
10.68
7.46
3.99
0.34
-3.33
-6.80
-9.93
-12.63
-14.97
-17.11
-19.35
-21.92
-25.00
-28.57
-32.38
-35.91
-38.51
-39.51
-38.39
-34.99
-29.47
-22.37
-14.48
-6.64
0.43
6.29
10.90
14.46
17.28
19.63
21.62
23.23
24.45
25.35
26.08
26.82
27.57
28.20
28.42
28.05
27.04
25.69
24.39
23.54
23.26
23.42
23.64
23.51
22.74
21.22
19.09
16.56
13.88
11.32
9.00
6.91
4.93
2.86
0.49
-2.21
-5.16
-8.13
-10.86
-13.20
-15.16
-16.91
-18.70
-20.78
-23.33
-26.38
-29.76
-33.04
-35.61
-36.78
-36.00
-33.01
-28.00
-21.49
-14.23
-6.98
-0.32
5.35
9.87
13.25
15.64
17.25
18.32
19.04
19.54
19.88
20.10
20.24
20.35
20.43
20.49
20.51
20.50
20.53
20.71
21.08
21.58
22.03
22.15
21.70
20.56
18.80
16.58
14.12
11.59
9.11
6.76
4.59
2.64
0.86
-0.82
-2.53
-4.36
-6.37
-8.49
-10.66
-12.81
-14.93
-17.08
-19.40
-22.00
-24.95
-28.19
-31.40
-34.05
-35.50
-35.14
-32.64
-28.10
-22.01
-15.16
-8.38
-2.34
2.56
6.21
8.69
10.17
10.90
11.15
11.18
11.21
11.37
11.67
12.03
12.38
12.68
12.98
13.39
13.93
14.56
15.12
15.45
15.43
15.11
14.57
13.86
12.93
11.68
10.04
8.06
5.90
3.75
1.73
-0.19
-2.19
-4.40
-6.86
-9.38
-11.67
-13.52
-14.87
-15.89
-16.91
-18.30
-20.24
-22.72
-25.46
-27.95
-29.61
-29.96
-28.65
-25.66
-21.28
-16.04
-10.60
-5.57
-1.37
1.85
4.11
5.56
6.25
6.23
5.57
4.39
3.00
1.75
0.95
0.77
1.17
2.00
3.05
4.19
5.33
6.42
7.39
8.12
8.52
8.49
7.99
7.08
5.86
4.44
2.95
1.42
-0.10
-1.63
-3.14
-4.61
-6.00
-7.27
-8.45
-9.55
-10.66
-11.85
-13.24
-14.92
-16.98
-19.36
-21.89
-24.18
-25.70
-25.90
-24.41
-21.16
-16.46
-10.90
-5.20
-0.03
4.16
7.23
9.29
10.62
11.48
12.05
12.38
12.47
12.33
12.08
11.89
11.93
12.30
12.87
13.40
13.64
13.49
13.03
12.49
12.05
11.76
11.49
10.95
9.91
8.33
6.38
4.40
2.64
1.21
-0.03
-1.33
-2.90
-4.78
-6.83
-8.79
-10.48
-11.83
-12.92
-13.92
-14.97
-16.16
-17.59
-19.34
-21.52
-24.07
-26.70
-28.90
-30.05
-29.59
-27.31
-23.36
-18.25
-12.68
-7.32
-2.64
1.13
4.01
6.11
7.57
8.50
8.97
9.11
9.08
9.07
9.23
9.64
10.24
10.90
11.45
11.80
11.96
12.01
12.02
11.99
11.89
11.61
11.06
10.13
8.82
7.16
5.29
3.35
1.45
-0.38
-2.14
-3.91
-5.75
-7.66
-9.60
-11.50
-13.30
-15.04
-16.82
-18.83
-21.14
-23.71
-26.32
-28.52
-29.85
-29.84
-28.23
-25.03
-20.52
-15.20
-9.63
-4.36
0.24
4.00
6.88
8.97
10.31
10.97
10.96
10.42
9.49
8.43
7.47
6.80
6.49
6.46
6.62
6.80
6.92
6.98
6.98
6.93
6.82
6.60
6.20
5.56
4.61
3.28
1.54
-0.55
-2.84
-5.08
-7.07
-8.75
-10.26
-11.84
-13.74
-16.02
-18.47
-20.71
-22.30
-22.91
-22.38
-20.70
-17.97
-14.31
-9.91
-5.10
-0.29
4.08
7.66
10.35
12.22
13.46
14.23
14.55
14.42
13.83
12.92
11.93
11.13
10.71
10.66
10.84
11.07
11.18
11.11
10.92
10.61
10.18
9.56
8.64
7.35
5.69
3.72
1.55
-0.69
-2.87
-4.92
-6.81
-8.59
-10.36
-12.28
-14.50
-17.10
-20.06
-23.27
-26.43
-29.15
-30.99
-31.48
-30.29
-27.34
-22.86
-17.37
-11.54
-6.01
-1.21
2.71
5.83
8.33
10.39
12.06
13.34
14.25
14.83
15.16
15.37
15.51
15.55
15.46
15.23
14.87
14.53
14.32
14.30
14.36
14.32
13.96
13.13
11.84
10.24
8.52
6.87
5.36
3.97
2.57
1.04
-0.68
-2.61
-4.66
-6.76
-8.84
-10.88
-12.94
-15.09
-17.41
-19.97
-22.73
-25.49
-27.85
-29.30
-29.33
-27.65
-24.31
-19.71
-14.44
-9.12
-4.19
0.12
3.72
6.62
8.86
10.51
11.69
12.56
13.24
13.81
14.27
14.60
14.82
14.94
15.01
15.04
15.04
15.04
15.11
15.29
15.55
15.72
15.56
14.81
13.38
11.38
9.08
6.78
4.72
2.97
1.50
0.22
-1.04
-2.42
-4.06
-6.02
-8.26
-10.67
-13.04
-15.24
-17.26
-19.26
-21.45
-23.99
-26.77
-29.38
-31.16
-31.48
-29.90
-26.42
-21.35
-15.33
-9.03
-3.07
2.11
6.32
9.48
11.66
13.02
13.73
13.98
13.94
13.70
13.32
12.86
12.36
11.93
11.68
11.73
12.15
12.91
13.87
14.79
15.38
15.45
14.96
14.02
12.82
11.52
10.13
8.56
6.66
4.37
1.76
-0.92
-3.39
-5.44
-6.96
-8.04
-8.84
-9.60
-10.62
-12.15
-14.38
-17.30
-20.69
-24.09
-26.90
-28.46
-28.25
-26.03
-21.96
-16.52
-10.37
-4.22
1.40
6.13
9.89
12.71
14.73
16.07
16.86
17.21
17.24
17.12
17.00
16.99
17.13
17.41
17.76
18.12
18.47
18.85
19.30
19.78
20.14
20.11
19.48
18.17
16.31
14.16
12.02
10.05
8.27
6.56
4.81
2.91
0.89
-1.21
-3.33
-5.40
-7.38
-9.22
-10.94
-12.65
-14.52
-16.82
-19.64
-22.91
-26.21
-28.95
-30.51
-30.42
-28.57
-25.14
-20.54
-15.29
-9.92
-4.83
-0.33
3.44
6.51
8.98
10.98
12.60
13.86
14.71
15.18
15.33
15.37
15.46
15.75
16.20
16.71
17.15
17.44
17.63
17.80
18.02
18.23
18.31
18.02
17.22
15.89
14.20
12.36
10.57
8.84
7.07
5.08
2.75
0.11
-2.69
-5.44
-8.00
-10.31
-12.44
-14.45
-16.46
-18.55
-20.81
-23.26
-25.77
-28.07
-29.70
-30.13
-28.98
-26.09
-21.59
-15.89
-9.55
-3.16
2.71
7.66
11.43
13.98
15.44
16.07
16.21
16.16
16.13
16.17
16.29
16.48
16.74
17.12
17.69
18.50
19.50
20.57
21.57
22.35
22.79
22.79
22.24
21.02
19.07
16.46
13.42
10.25
7.23
4.51
2.04
-0.34
-2.83
-5.48
-8.21
-10.76
-12.93
-14.62
-15.97
-17.24
-18.78
-20.82
-23.37
-26.19
-28.81
-30.70
-31.36
-30.45
-27.87
-23.75
-18.43
-12.40
-6.24
-0.49
4.44
8.35
11.23
13.26
14.62
15.53
16.10
16.46
16.70
16.93
17.26
17.71
18.23
18.70
19.03
19.17
19.15
19.02
18.83
18.54
18.09
17.39
16.41
15.19
13.81
12.37
10.89
9.33
7.66
5.86
3.96
2.06
0.18
-1.67
-3.61
-5.71
-8.02
-10.42
-12.78
-14.98
-17.05
-19.16
-21.55
-24.37
-27.54
-30.74
-33.43
-35.04
-35.09
-33.38
-30.01
-25.40
-20.15
-14.86
-9.96
-5.69
-2.05
1.06
3.73
5.95
7.69
8.96
9.87
10.62
11.41
12.39
13.53
14.69
15.67
16.31
16.60
16.61
16.50
16.41
16.41
16.51
16.61
16.50
16.02
15.07
13.65
11.91
10.07
8.31
6.75
5.33
3.88
2.21
0.17
-2.22
-4.78
-7.21
-9.26
-10.84
-12.08
-13.26
-14.74
-16.77
-19.37
-22.34
-25.29
-27.72
-29.13
-29.11
-27.44
-24.14
-19.50
-14.04
-8.30
-2.81
2.04
6.06
9.16
11.34
12.68
13.35
13.56
13.58
13.62
13.76
13.97
14.16
14.23
14.18
14.05
13.87
13.72
13.63
13.59
13.60
13.59
13.49
13.17
12.55
11.54
10.12
8.31
6.18
3.85
1.45
-0.85
-2.93
-4.74
-6.33
-7.77
-9.15
-10.48
-11.71
-12.85
-14.00
-15.30
-16.99
-19.17
-21.74
-24.39
-26.64
-27.91
-27.78
-26.02
-22.69
-18.09
-12.78
-7.32
-2.24
2.12
5.60
8.20
9.97
11.00
11.34
11.10
10.41
9.43
8.34
7.33
6.55
6.13
6.15
6.61
7.45
8.52
9.61
10.52
11.08
11.17
10.81
10.06
9.04
7.89
6.67
5.38
3.92
2.17
0.11
-2.18
-4.48
-6.58
-8.28
-9.55
-10.52
-11.39
-12.40
-13.74
-15.57
-17.90
-20.63
-23.42
-25.77
-27.11
-26.92
-24.95
-21.30
-16.36
-10.72
-5.01
0.27
4.74
8.23
10.75
12.43
13.45
13.97
14.15
14.10
13.90
13.63
13.36
13.16
13.01
12.90
12.78
12.62
12.45
12.33
12.28
12.27
12.17
11.83
11.15
10.14
8.92
7.65
6.46
5.35
4.24
3.02
1.56
-0.14
-2.05
-4.10
-6.18
-8.23
-10.17
-11.95
-13.59
-15.23
-17.07
-19.34
-22.17
-25.45
-28.83
-31.74
-33.52
-33.60
-31.69
-27.81
-22.42
-16.21
-9.93
-4.19
0.64
4.47
7.38
9.46
10.84
11.59
11.86
11.87
11.86
12.05
12.51
13.19
13.94
14.65
15.20
15.55
15.70
15.69
15.58
15.40
15.15
14.74
14.08
13.03
11.57
9.75
7.76
5.84
4.14
2.69
1.37
-0.02
-1.67
-3.61
-5.76
-7.95
-9.99
-11.76
-13.28
-14.68
-16.14
-17.82
-19.82
-22.11
-24.50
-26.67
-28.15
-28.48
-27.32
-24.56
-20.42
-15.35
-9.95
-4.78
-0.28
3.35
6.06
7.91
9.00
9.46
9.42
9.02
8.40
7.66
6.88
6.15
5.54
5.14
4.96
4.97
5.12
5.33
5.57
5.81
6.03
6.15
6.08
5.66
4.86
3.74
2.41
1.02
-0.33
-1.66
-3.03
-4.50
-6.06
-7.63
-9.14
-10.51
-11.82
-13.18
-14.79
-16.75
-19.03
-21.36
-23.31
-24.34
-23.98
-22.03
-18.55
-13.94
-8.77
-3.62
1.06
5.03
8.22
10.59
12.21
13.06
13.20
12.75
11.89
10.83
9.73
8.69
7.74
6.89
6.20
5.76
5.61
5.76
6.08
6.40
6.56
6.45
5.97
5.07
3.67
1.78
-0.52
-3.00
-5.39
-7.41
-8.98
-10.21
-11.39
-12.80
-14.62
-16.85
-19.28
-21.65
-23.61
-24.83
-25.01
-23.89
-21.37
-17.54
-12.77
-7.58
-2.58
1.83
5.42
8.20
10.25
11.67
12.46
12.61
12.18
11.35
10.40
9.60
9.12
8.95
8.95
8.95
8.85
8.69
8.54
8.44
8.35
8.07
7.43
6.34
4.82
2.95
0.85
-1.43
-3.82
-6.22
-8.48
-10.45
-12.08
-13.54
-15.07
-16.94
-19.22
-21.68
-23.84
-25.12
-25.08
-23.48
-20.43
-16.19
-11.24
-6.08
-1.12
3.29
6.94
9.76
11.80
13.17
14.01
14.51
14.76
14.87
14.88
14.79
14.59
14.31
14.01
13.83
13.80
13.94
14.16
14.35
14.37
14.14
13.60
12.74
11.57
10.10
8.35
6.38
4.26
2.05
-0.16
-2.30
-4.34
-6.31
-8.31
-10.48
-12.99
-15.96
-19.34
-22.88
-26.21
-28.84
-30.28
-30.17
-28.30
-24.68
-19.62
-13.62
-7.33
-1.39
3.72
7.78
10.82
13.06
14.72
16.00
16.97
17.62
17.97
18.08
18.08
18.10
18.21
18.36
18.48
18.46
18.29
18.01
17.70
17.37
16.95
16.25
15.12
13.48
11.39
9.00
6.55
4.22
2.13
0.31
-1.33
-2.86
-4.42
-6.07
-7.88
-9.89
-12.14
-14.69
-17.59
-20.84
-24.33
-27.83
-30.94
-33.23
-34.26
-33.75
-31.62
-28.02
-23.32
-17.96
-12.46
-7.28
-2.78
0.82
3.48
5.31
6.56
7.49
8.33
9.17
9.99
10.78
11.52
12.30
13.20
14.25
15.42
16.60
17.62
18.38
18.82
18.92
18.67
18.01
16.89
15.34
13.43
11.29
9.08
6.89
4.80
2.85
1.04
-0.64
-2.24
-3.88
-5.67
-7.70
-10.02
-12.56
-15.16
-17.62
-19.64
-20.88
-20.96
-19.58
-16.65
-12.38
-7.25
-1.92
3.02
7.17
10.42
12.87
14.68
15.98
16.81
17.16
17.07
16.70
16.28
15.97
15.91
16.08
16.40
16.74
16.96
17.00
16.86
16.56
16.15
15.66
15.08
14.32
13.29
11.93
10.24
8.33
6.32
4.26
2.15
-0.09
-2.50
-5.01
-7.48
-9.81
-12.00
-14.21
-16.63
-19.31
-22.07
-24.47
-25.94
-25.96
-24.31
-21.09
-16.69
-11.67
-6.55
-1.73
2.54
6.22
9.35
12.01
14.24
16.02
17.36
18.26
18.83
19.14
19.26
19.26
19.15
18.97
18.78
18.66
18.66
18.67
18.54
18.11
17.25
16.00
14.49
12.89
11.32
9.82
8.39
6.96
5.45
3.79
1.95
-0.06
-2.21
-4.39
-6.52
-8.52
-10.41
-12.33
-14.50
-17.09
-20.12
-23.35
-26.30
-28.35
-28.93
-27.68
-24.62
-20.10
-14.68
-9.02
-3.71
0.87
4.50
7.19
9.09
10.41
11.36
12.10
12.70
13.23
13.70
14.08
14.38
14.59
14.69
14.68
14.57
14.41
14.27
14.23
14.29
14.44
14.58
14.53
14.08
13.09
11.48
9.36
6.93
4.43
2.05
-0.14
-2.19
-4.14
-6.00
-7.75
-9.31
-10.70
-12.06
-13.60
-15.53
-17.83
-20.23
-22.26
-23.37
-23.13
-21.37
-18.24
-14.11
-9.50
-4.93
-0.77
2.72
5.47
7.52
8.94
9.82
10.26
10.37
10.26
10.08
9.92
9.85
9.86
9.94
10.12
10.47
11.09
11.96
12.99
13.90
14.45
14.45
13.88
12.79
11.30
9.47
7.31
