1543849340.00
64.000000
-0.00
-0.00
-0.00
-0.00
-0.00
-0.00
-0.00
-0.00
-0.00
-0.00
0.00
0.01
0.01
-0.00
-0.03
-0.05
-0.05
0.00
0.13
0.36
0.66
1.01
1.37
1.72
2.06
2.40
2.79
3.24
3.80
4.42
5.06
5.66
6.20
6.68
7.15
7.68
8.31
9.14
10.09
11.04
11.88
12.56
13.14
13.76
14.65
15.96
17.91
20.32
22.90
25.38
27.58
29.57
31.68
34.32
37.81
42.54
48.15
54.10
59.83
64.97
69.58
74.14
79.34
85.71
93.76
103.00
112.62
121.73
129.77
136.75
143.30
150.75
157.77
166.64
177.95
191.79
206.97
220.57
228.25
225.36
208.53
176.87
132.76
80.05
23.07
-34.94
-92.44
-149.16
-205.23
-260.37
-313.74
-363.87
-409.83
-450.91
-486.50
-515.74
-537.23
-549.22
-549.96
-538.37
-514.21
-478.67
-433.88
-382.45
-327.02
-269.84
-212.63
-156.66
-102.95
-52.37
-5.90
35.58
71.43
101.35
125.50
144.38
158.69
169.15
176.37
180.75
182.57
182.07
179.51
175.23
169.65
163.18
156.15
148.81
141.30
133.69
126.02
118.33
110.69
103.16
95.80
88.68
81.83
75.25
68.95
62.95
57.25
51.86
46.78
42.03
37.59
33.45
29.61
26.07
22.81
19.83
17.11
14.67
12.48
10.54
8.83
7.35
6.07
4.97
4.05
3.27
2.62
2.09
1.65
1.30
1.01
0.79
0.61
0.48
0.37
0.30
0.24
0.21
0.19
0.18
0.19
0.20
0.23
0.25
0.29
0.33
0.37
0.41
0.46
0.50
0.55
0.60
0.65
0.71
0.77
0.83
0.90
0.98
1.07
1.16
1.27
1.39
1.52
1.67
1.84
2.03
2.24
2.47
2.73
3.01
3.32
3.66
4.03
4.44
4.89
5.36
5.88
6.44
7.03
7.67
8.35
9.08
9.85
10.67
11.53
12.44
13.39
14.40
15.48
16.61
17.82
19.07
20.36
21.62
22.82
23.85
24.61
24.96
24.80
24.01
22.52
20.30
17.36
13.81
9.72
5.31
0.78
-3.65
-7.77
-11.40
-14.40
-16.67
-18.20
-19.00
-19.11
-18.67
-17.77
-16.53
-15.07
-13.48
-11.81
-10.08
-8.30
-6.46
-4.59
-2.73
-0.91
0.87
2.62
4.37
6.18
8.10
10.24
12.50
14.82
17.15
19.48
21.79
24.16
26.66
29.44
32.67
36.17
39.82
43.52
47.21
50.87
54.57
58.49
62.82
67.84
73.17
78.54
83.70
88.44
92.74
96.71
100.66
104.94
109.91
114.99
119.59
123.01
124.57
123.73
120.07
113.10
101.77
89.16
75.86
61.82
46.58
29.67
10.94
-9.28
-30.26
-51.02
-70.64
-89.27
-107.30
-125.52
-145.02
-167.01
-192.35
-220.92
-251.08
-279.48
-302.35
-316.04
-318.58
-310.52
-294.85
-275.93
-257.94
-243.52
-233.17
-225.72
-218.66
-209.14
-194.68
-173.94
-146.87
-114.84
-80.25
-45.98
-14.83
11.20
31.14
45.10
54.02
59.46
63.20
66.83
71.37
77.00
83.15
88.83
93.12
95.59
96.43
96.40
96.42
97.23
99.12
101.83
104.69
106.87
107.65
106.64
103.91
99.84
95.05
90.10
85.39
81.06
77.04
73.16
69.23
65.17
60.98
56.81
52.85
49.29
46.24
43.66
41.34
38.96
36.18
32.76
28.64
23.93
18.85
13.61
8.34
3.00
-2.58
-8.60
-15.19
-22.27
-29.57
-36.74
-43.44
-49.56
-55.31
-61.21
-68.02
-76.47
-86.92
-98.92
-111.08
-121.07
-126.20
-124.25
-114.23
-96.83
-74.32
-49.87
-26.62
-6.94
7.98
18.11
24.15
27.20
28.33
28.53
28.56
28.97
30.06
31.88
34.24
36.82
39.34
41.74
44.20
47.07
50.65
54.94
59.59
63.90
67.10
68.62
68.19
65.95
62.31
57.90
53.35
49.18
45.68
42.90
40.60
38.37
35.71
32.27
27.83
22.47
16.52
10.43
4.64
-0.57
-5.20
-9.53
-14.04
-19.20
-25.24
-32.06
-39.24
-46.30
-52.81
-58.66
-64.13
-69.82
-76.56
-85.08
-95.69
-107.87
-120.08
-129.87
-134.48
-131.66
-120.43
-101.58
-77.48
-51.35
-26.40
-4.98
11.77
23.78
31.76
36.76
39.91
42.24
44.55
47.29
50.56
54.08
57.41
60.21
62.30
63.85
65.18
66.65
68.44
70.57
72.83
74.82
76.06
76.07
74.48
71.21
66.47
60.78
54.78
49.00
43.76
39.09
34.87
30.98
27.37
24.12
21.31
18.89
16.63
14.12
10.95
6.94
2.14
-3.07
-8.26
-13.11
-17.64
-22.10
-26.91
-32.42
-38.72
-45.66
-52.91
-60.10
-66.96
-73.38
-79.49
-85.56
-92.13
-99.80
-109.14
-120.17
-132.08
-142.97
-150.20
-151.07
-143.77
-128.16
-105.88
-79.97
-53.84
-30.36
-11.22
3.19
13.41
20.49
25.58
29.71
33.73
38.20
43.27
48.72
54.01
58.54
61.96
64.29
65.91
67.42
69.34
71.94
75.13
78.53
81.55
83.55
84.02
82.71
79.67
75.29
70.16
64.84
59.79
55.14
50.77
46.46
42.03
37.46
32.93
28.67
24.86
21.53
18.56
15.73
12.80
9.58
6.03
2.13
-2.05
-6.39
-10.80
-15.25
-19.77
-24.58
-29.90
-35.83
-42.27
-48.84
-55.06
-60.59
-65.38
-69.84
-74.76
-81.08
-89.62
-100.60
-113.31
-125.90
-135.61
-139.49
-135.25
-122.13
-101.26
-75.40
-48.07
-22.58
-1.26
14.82
25.69
32.13
35.28
36.43
36.78
37.29
38.53
40.59
43.21
45.89
48.24
50.14
51.80
53.64
56.08
59.29
63.09
66.99
70.32
72.47
73.07
72.03
69.50
65.76
61.19
56.10
50.83
45.72
41.06
37.01
33.55
30.47
27.43
24.10
20.32
16.10
11.62
7.16
2.97
-0.82
-4.32
-7.87
-12.02
-17.28
-23.92
-31.82
-40.41
-48.88
-56.48
-62.84
-68.17
-73.19
-78.97
-86.53
-96.50
-108.73
-121.99
-134.08
-142.13
-143.40
-136.09
-120.10
-97.14
-70.33
-43.30
-19.22
-0.06
13.58
22.30
27.40
30.42
32.80
35.62
39.46
44.43
50.11
55.80
60.80
64.60
67.13
68.76
70.09
71.68
73.88
76.59
79.42
81.78
83.04
82.69
80.42
76.23
70.45
63.75
56.99
50.99
46.24
42.78
40.20
37.85
35.23
32.20
29.01
26.11
23.78
21.97
20.28
18.11
14.99
10.80
5.77
0.36
-4.97
-10.03
-14.92
-20.02
-25.76
-32.43
-39.98
-48.11
-56.33
-64.15
-71.31
-77.79
-84.00
-90.65
-98.68
-108.89
-121.40
-135.22
-148.08
-156.80
-158.18
-150.16
-132.62
-107.56
-78.54
-49.57
-23.97
-3.73
10.66
19.86
25.18
28.13
30.14
32.37
35.56
39.96
45.33
51.01
56.27
60.53
63.70
66.16
68.56
71.52
75.32
79.79
84.32
88.12
90.43
90.81
89.15
85.69
80.94
75.46
69.80
64.27
59.05
54.10
49.33
44.65
40.07
35.66
31.50
27.63
23.98
20.43
16.75
12.79
8.52
4.00
-0.60
-5.15
-9.66
-14.26
-19.21
-24.74
-30.98
-37.83
-44.96
-51.97
-58.46
-64.24
-69.42
-74.42
-79.98
-86.99
-96.17
-107.68
-120.64
-133.00
-141.77
-143.74
-136.60
-119.82
-95.04
-65.67
-35.91
-9.50
11.22
25.54
34.17
38.63
40.63
41.69
42.87
44.77
47.55
51.01
54.76
58.38
61.58
64.25
66.47
68.46
70.47
72.72
75.28
78.04
80.65
82.59
83.25
82.15
79.11
74.29
68.20
61.58
55.18
49.55
44.92
41.20
38.04
35.02
31.73
27.92
23.52
18.55
13.20
7.67
2.19
-3.07
-8.14
-13.24
-18.76
-25.12
-32.55
-40.91
-49.76
-58.45
-66.39
-73.30
-79.34
-85.13
-91.60
-99.82
-110.49
-123.50
-137.53
-149.92
-157.28
-156.37
-145.39
-124.65
-96.76
-65.77
-35.96
-10.65
8.51
21.53
29.59
34.37
37.52
40.36
43.80
48.25
53.72
59.77
65.72
70.84
74.59
76.87
78.01
78.73
79.79
81.72
84.58
87.97
91.07
93.03
93.21
91.43
87.92
83.23
77.97
72.65
67.59
62.94
58.71
54.82
51.15
47.49
43.67
39.60
35.35
31.11
27.14
23.55
20.23
16.90
13.18
8.84
3.88
-1.43
-6.74
-11.77
-16.48
-21.11
-26.12
-32.01
-39.08
-47.30
-56.29
-65.37
-73.83
-81.11
-87.18
-92.56
-98.35
-105.89
-116.31
-129.80
-145.18
-159.73
-169.77
-171.64
-162.96
-143.61
-115.82
-83.63
-51.58
-23.47
-1.57
13.57
22.81
27.74
30.17
31.77
33.78
37.00
41.59
47.20
53.08
58.44
62.72
65.78
67.93
69.72
71.76
74.43
77.87
81.81
85.70
88.77
90.23
89.53
86.49
81.39
74.90
67.85
61.01
54.90
49.76
45.55
42.11
39.16
36.39
33.47
30.09
26.09
21.54
16.73
12.03
7.70
3.74
-0.19
-4.60
-9.99
-16.52
-24.00
-31.91
-39.65
-46.76
-53.11
-59.00
-65.05
-72.16
-81.23
-92.81
-106.59
-120.98
-133.11
-139.42
-136.72
-123.36
-100.07
-69.87
-37.19
-6.54
18.73
37.02
48.47
54.31
56.28
56.07
55.11
54.37
54.44
55.45
57.13
59.03
60.73
62.04
63.07
64.18
65.69
67.70
70.01
72.12
73.42
73.34
71.57
68.05
63.02
56.87
50.03
42.96
36.04
29.63
24.00
19.30
15.50
12.33
9.40
6.26
2.60
-1.67
-6.39
-11.20
-15.73
-19.74
-23.30
-26.77
-30.70
-35.63
-41.87
-49.35
-57.59
-65.89
-73.53
-80.08
-85.53
-90.41
-95.61
-102.22
-111.27
-123.18
-137.37
-151.79
-163.13
-167.47
-161.54
-144.02
-116.25
-81.97
-46.21
-13.70
12.35
30.78
42.15
48.08
50.49
51.16
51.57
52.74
55.17
58.81
63.09
67.23
70.54
72.77
74.16
75.27
76.75
79.06
82.32
86.24
90.22
93.36
94.83
93.93
90.42
84.52
76.89
68.43
60.08
52.50
46.00
40.54
35.83
31.50
27.28
23.07
18.93
15.05
11.68
8.94
6.82
5.05
3.19
0.74
-2.74
-7.39
-13.03
-19.17
-25.26
-30.92
-36.12
-41.20
-46.68
-53.02
-60.39
-68.51
-76.77
-84.49
-91.19
-96.91
-102.27
-108.32
-116.32
-127.21
-141.11
-156.82
-171.65
-181.81
-183.36
-173.47
-151.53
-119.66
-82.14
-44.25
-10.68
15.59
33.71
44.55
49.94
51.88
52.16
52.16
52.87
54.92
58.39
62.90
67.67
71.89
75.05
77.11
78.59
80.24
82.70
86.12
90.10
93.67
95.65
95.03
91.33
84.76
76.25
67.05
58.29
50.67
44.20
38.40
32.60
26.30
19.42
12.29
5.49
-0.50
-5.41
-9.41
-13.00
-16.83
-21.50
-27.27
-33.96
-40.98
-47.53
-52.97
-57.20
-60.80
-64.97
-71.22
-80.92
-94.55
-111.27
-128.60
-142.70
-149.33
-145.12
-128.91
-102.32
-69.40
-35.40
-5.11
18.43
34.35
43.64
48.20
50.04
50.75
51.40
52.59
54.55
57.21
60.19
62.95
64.96
65.96
66.12
65.97
66.15
67.14
68.94
71.02
72.47
72.33
69.97
65.24
58.56
50.59
42.02
33.27
24.49
15.63
6.71
-2.07
-10.32
-17.59
-23.58
-28.35
-32.41
-36.54
-41.50
-47.74
-55.23
-63.51
-71.81
-79.53
-86.41
-92.78
-99.48
-107.74
-118.68
-132.80
-149.36
-166.01
-179.05
-184.21
-178.07
-159.27
-129.26
-91.92
-52.50
-15.99
14.19
36.66
51.83
61.24
66.69
69.82
71.93
73.95
76.47
79.69
83.37
86.96
89.89
91.76
92.63
92.92
93.23
94.06
95.59
97.49
99.10
99.63
98.39
95.08
89.87
83.23
75.89
68.46
61.37
54.74
48.50
42.57
36.93
31.70
26.97
22.71
18.67
14.42
9.46
3.53
-3.29
-10.52
-17.51
-23.69
-28.90
-33.51
-38.26
-43.88
-50.75
-58.68
-66.97
-74.75
-81.35
-86.61
-90.97
-95.36
-101.02
-109.12
-120.36
-134.44
-149.62
-162.68
-169.52
-166.26
-150.70
-123.36
-87.55
-48.45
-11.54
18.96
41.02
54.75
61.76
64.25
64.28
63.44
62.76
62.75
63.46
64.60
65.61
65.90
65.12
63.24
60.63
57.95
55.90
55.03
55.50
57.00
58.89
60.33
60.59
59.24
56.26
52.03
47.11
42.16
37.73
34.18
31.63
29.95
28.88
28.16
27.67
27.46
27.68
28.49
29.86
31.45
32.72
33.14
32.43
30.80
28.77
26.93
25.47
24.05
21.79
17.77
11.54
3.44
-5.47
-13.84
-20.59
-25.49
-29.25
-33.36
-39.57
-49.27
-62.84
-79.21
-95.77
-108.74
-114.14
-108.94
-92.14
-65.25
-32.13
1.99
31.78
53.17
64.24
65.50
59.50
49.78
39.62
31.00
24.18
18.26
12.18
5.84
0.44
-1.99
0.22
7.41
18.37
30.97
43.28
54.25
63.68
71.67
77.86
81.35
81.07
76.69
69.06
60.03
51.75
45.73
42.33
40.81
39.84
38.12
34.83
29.86
23.62
16.80
10.06
3.91
-1.47
-6.07
-10.03
-13.53
-16.73
-19.73
-22.49
-24.79
-26.29
-26.72
-26.08
-24.92
-24.27
-25.35
-29.21
-36.07
-45.00
-53.88
-59.92
-60.56
-54.34
-41.56
-24.12
-4.95
13.01
27.57
37.63
43.00
44.10
41.53
36.15
29.07
21.68
15.36
11.01
8.81
8.22
8.31
8.27
7.74
6.87
6.08
5.84
6.35
7.51
8.90
9.90
9.80
8.04
4.41
-0.80
-6.73
-12.29
-16.37
-18.36
-18.38
-17.21
-16.10
-16.23
-18.39
-22.65
-28.50
-35.02
-41.24
-46.50
-50.62
-53.85
-56.74
-59.80
-63.29
-66.89
-69.68
-70.24
-67.03
-58.83
-45.29
-27.14
-6.11
15.49
35.33
51.57
63.07
69.39
70.68
67.45
60.52
50.97
39.94
28.46
17.11
5.94
-5.62
-18.25
-32.58
-48.65
-65.92
-83.46
-100.32
-115.95
-130.59
-145.27
-161.77
-182.36
-209.34
-244.36
-287.34
-335.88
-385.21
-429.29
-462.61
-482.07
-487.98
-483.47
-472.99
-460.18
-446.87
-432.93
-417.35
-399.40
-379.22
-357.65
-335.53
-313.21
-290.35
-266.47
-241.37
-215.51
-189.91
-165.77
-143.98
-124.74
-107.64
-91.74
-76.16
-60.27
-44.00
-27.75
-12.13
2.22
15.02
26.28
36.41
46.00
55.69
65.93
76.88
88.41
100.09
111.45
122.07
131.88
141.17
150.61
160.93
172.74
186.21
200.96
216.35
231.63
246.38
260.59
274.70
289.40
305.60
324.29
346.45
372.49
401.52
430.84
456.04
472.12
475.15
463.77
439.78
407.34
371.44
336.22
304.19
276.34
252.86
233.77
219.03
208.18
200.03
192.70
184.20
173.13
159.17
143.02
126.09
109.85
95.34
82.93
72.34
62.89
53.89
44.98
36.30
28.34
21.65
16.47
12.53
9.16
5.57
1.27
-3.80
-9.26
-14.64
-19.64
-24.27
-28.83
-33.66
-38.99
-44.80
-50.82
-56.56
-61.46
-65.04
-67.21
-68.43
-69.60
-71.79
-75.82
-81.96
-89.86
-98.78
-107.90
-116.47
-123.80
-129.12
-131.45
-129.77
-123.35
-112.13
-96.91
-79.23
-61.03
-44.33
-30.77
-21.43
-16.67
-16.08
-18.55
-22.56
-26.52
-29.10
-29.57
-27.88
-24.71
-21.39
-19.61
-20.92
-26.12
-34.89
-45.73
-56.51
-65.27
-70.95
-73.75
-74.89
-76.04
-78.61
-83.34
-90.28
-99.00
-108.94
-119.48
-130.02
-139.85
-148.21
-154.41
-158.06
-159.26
-158.70
-157.62
-157.45
-159.52
-164.70
-173.15
-184.15
-196.06
-206.52
-212.87
-212.83
-205.11
-189.87
-168.62
-143.62
-117.08
-90.48
-64.34
-38.41
-12.31
14.04
40.18
65.17
87.92
107.48
123.31
135.32
143.86
149.56
153.24
155.70
157.70
159.82
162.53
166.04
170.29
174.87
179.07
182.03
183.01
181.60
177.89
172.37
165.83
158.96
152.16
145.38
138.21
130.19
121.10
111.16
101.02
91.51
83.22
76.23
70.05
63.84
56.78
48.43
38.89
28.69
18.48
8.65
-0.73
-10.11
-20.17
-31.71
-45.33
-61.16
-78.54
-95.78
-110.21
-118.66
-118.31
-107.65
-87.15
-59.27
-27.85
3.09
30.36
52.17
68.06
78.50
84.36
86.68
86.57
85.28
84.04
83.75
84.83
87.00
89.69
92.27
94.49
96.54
98.81
101.59
104.83
108.16
111.04
113.02
113.83
113.30
111.33
107.77
102.55
95.78
87.85
79.44
71.24
63.77
57.12
50.94
44.63
37.68
29.89
21.48
13.05
5.22
-1.64
-7.58
-13.07
-18.92
-26.02
-35.12
-46.49
-59.69
-73.36
-85.25
-92.64
-92.99
-84.77
-68.03
-44.51
-17.27
10.27
35.12
55.32
70.14
79.82
85.19
87.33
87.31
86.06
84.27
82.39
80.63
79.09
77.83
76.96
76.66
77.06
78.17
79.83
81.78
83.72
85.37
86.48
86.75
85.77
83.10
78.45
71.85
63.74
54.91
46.25
38.35
31.36
24.95
18.50
11.42
3.45
-5.29
-14.33
-23.13
-31.31
-38.71
-45.50
-52.08
-59.05
-67.14
-77.01
-88.93
-102.37
-115.75
-126.53
-131.73
-128.90
-116.97
-96.78
-70.94
-43.03
-16.62
5.62
22.38
33.65
40.31
43.67
44.97
45.23
45.17
45.24
45.71
46.66
48.09
49.85
51.82
53.93
56.21
58.71
61.42
64.15
66.54
68.11
68.48
67.48
65.17
61.76
57.51
52.57
47.03
40.94
34.46
27.86
21.48
15.58
10.25
5.33
0.48
-4.66
-10.33
-16.60
-23.27
-30.04
-36.62
-42.78
-48.46
-53.78
-59.03
-64.72
-71.53
-80.00
-90.27
-101.62
-112.32
-119.81
-121.43
-115.24
-100.83
-79.62
-54.50
-29.01
-6.26
11.67
24.08
31.37
34.56
34.93
33.67
31.79
30.08
29.06
28.98
29.76
31.14
32.76
34.35
35.74
36.97
38.13
39.37
40.73
42.14
43.37
43.99
43.52
41.57
38.07
33.33
27.97
22.68
17.95
13.89
10.21
6.49
2.37
-2.17
-6.88
-11.35
-15.29
-18.73
-21.99
-25.58
-29.86
-34.98
-40.74
-46.71
-52.46
-57.67
-62.30
-66.55
-70.85
-75.76
-81.89
-89.59
-98.75
-108.47
-116.98
-121.96
-121.14
-113.12
-97.96
-77.30
-53.92
-30.90
-10.82
4.83
15.70
22.33
25.70
26.85
26.74
26.14
25.62
25.53
25.95
26.78
27.83
28.94
30.14
31.57
33.44
35.85
38.70
41.65
44.22
45.91
46.38
45.43
43.15
39.75
35.53
30.83
25.92
20.98
16.17
11.61
7.41
3.67
0.37
-2.64
-5.60
-8.79
-12.41
-16.47
-20.81
-25.13
-29.08
-32.47
-35.35
-38.08
-41.28
-45.67
-51.79
-59.70
-68.67
-77.14
-83.05
-84.25
-79.31
-67.99
-51.50
-32.10
-12.55
4.73
18.18
27.31
32.54
34.72
34.86
33.79
32.13
30.31
28.61
27.23
26.33
26.01
26.34
27.36
29.04
31.25
33.78
36.32
38.60
40.37
41.45
41.67
40.84
38.76
35.34
30.65
24.98
18.81
12.71
7.15
2.36
-1.67
-5.22
-8.69
-12.44
-16.73
-21.62
-26.98
-32.52
-37.87
-42.72
-46.94
-50.66
-54.35
-58.73
-64.53
-72.17
-81.32
-90.73
-98.31
-101.64
-98.77
-88.89
-72.74
-52.46
-30.89
-10.84
5.72
17.83
25.60
29.81
31.58
32.05
32.24
32.83
34.12
36.03
38.23
40.28
41.89
42.99
43.75
44.44
45.28
46.35
47.58
48.77
49.67
49.99
49.47
47.82
44.93
40.82
35.74
30.20
24.79
20.09
16.40
13.72
11.66
9.61
6.98
3.43
-0.94
-5.67
-10.10
-13.69
-16.26
-18.13
-19.96
-22.47
-26.18
-31.14
-36.97
-43.03
-48.64
-53.41
-57.32
-60.75
-64.37
-69.00
-75.30
-83.47
-92.86
-101.89
-108.24
-109.49
-103.88
-91.07
-72.41
-50.58
-28.78
-9.76
4.79
14.45
19.82
22.03
22.31
21.77
21.29
21.45
22.53
24.48
26.98
29.55
31.80
33.53
34.84
36.03
37.43
39.25
41.47
43.85
45.99
47.43
47.82
46.95
44.84
41.70
37.86
33.68
29.51
25.58
22.00
18.82
15.94
13.26
10.62
7.83
4.79
1.50
-1.91
-5.17
-8.05
-10.44
-12.50
-14.59
-17.16
-20.55
-24.82
-29.75
-34.91
-39.87
-44.33
-48.22
-51.67
-55.04
-58.88
-63.82
-70.41
-78.66
-87.77
-95.99
-100.94
-100.36
-92.92
-78.79
-59.65
-38.21
-17.33
0.68
14.50
23.81
29.03
30.99
30.67
29.07
27.06
25.34
24.30
24.10
24.65
25.82
27.44
29.43
31.75
34.38
37.27
40.26
43.11
45.51
47.16
47.80
47.28
45.57
42.75
39.02
34.60
29.76
24.75
19.81
15.11
10.76
6.77
3.08
-0.41
-3.86
-7.43
-11.21
-15.24
-19.43
-23.61
-27.58
-31.23
-34.57
-37.82
-41.39
-45.87
-51.82
-59.57
-68.91
-78.85
-87.53
-92.64
-92.00
-84.42
-70.16
-51.04
-29.87
-9.63
7.40
20.05
28.24
32.69
34.38
34.31
33.27
31.89
30.58
29.62
29.10
29.06
29.50
30.42
31.83
33.73
35.97
38.35
40.58
42.45
43.78
44.47
44.43
43.49
41.52
38.44
34.33
29.42
24.05
18.57
13.23
8.18
3.52
-0.76
-4.79
-8.78
-13.04
-17.86
-23.31
-29.24
-35.21
-40.73
-45.41
-49.25
-52.55
-55.95
-60.16
-65.83
-73.28
-82.27
-91.90
-100.46
-105.74
-105.59
-98.56
-84.59
-65.11
-42.75
-20.56
-1.16
13.84
24.05
30.03
32.86
33.77
33.84
33.94
34.63
36.13
38.38
41.03
43.60
45.69
47.07
47.81
48.25
48.82
49.88
51.53
53.55
55.47
56.63
56.51
54.82
51.58
47.14
42.05
36.88
32.11
27.95
24.37
21.11
17.81
14.16
10.04
5.57
1.05
-3.24
-7.18
-10.88
-14.67
-18.90
-23.81
-29.42
-35.44
-41.43
-46.97
-51.80
-56.02
-60.08
-64.70
-70.68
-78.57
-88.26
-98.69
-107.88
-113.26
-112.48
-104.18
-88.65
-67.78
-44.59
-22.28
-3.36
10.87
20.35
25.86
28.57
29.64
30.08
30.62
31.78
33.80
36.60
39.83
43.01
45.70
47.68
49.01
50.02
51.10
52.53
54.32
56.19
57.71
58.45
58.13
56.65
54.10
50.69
46.67
42.32
37.89
33.64
29.74
26.23
23.03
19.98
16.88
13.58
10.06
6.41
2.75
-0.80
-4.22
-7.55
-11.01
-14.80
-19.12
-24.05
-29.49
-35.17
-40.65
-45.55
-49.61
-52.96
-56.06
-59.68
-64.66
-71.55
-80.21
-89.60
-97.77
-102.32
-101.09
-92.92
-78.14
-58.51
-36.76
-15.74
2.27
16.03
25.28
30.54
32.75
33.03
32.43
31.84
31.79
32.41
33.51
34.75
35.89
36.93
38.08
39.64
41.77
44.44
47.41
50.30
52.68
54.13
54.35
53.14
50.59
46.94
42.61
37.99
33.31
28.64
23.95
19.24
14.67
10.49
6.91
3.95
1.35
-1.29
-4.37
-8.08
-12.37
-16.94
-21.50
-25.81
-29.84
-33.72
-37.70
-42.15
-47.51
-54.18
-62.31
-71.46
-80.39
-87.10
-89.35
-85.37
-74.60
-58.04
-38.02
-17.48
0.87
15.21
24.92
30.36
32.53
32.62
31.80
31.02
30.94
31.80
33.46
35.48
37.35
38.69
39.49
39.97
40.57
41.71
43.57
46.14
49.12
52.09
54.49
55.80
55.58
53.61
49.99
45.14
39.76
34.58
30.14
26.64
23.91
21.48
18.87
15.80
12.25
8.51
4.93
1.75
-1.02
-3.69
-6.67
-10.36
-14.92
-20.24
-25.94
-31.59
-36.85
-41.63
-46.14
-50.78
-56.10
-62.62
-70.64
-79.97
-89.71
-98.19
-103.26
-102.85
-95.74
-82.04
-63.36
-42.31
-21.71
-3.92
9.72
18.95
24.32
26.84
27.70
27.94
28.40
29.55
31.45
33.90
36.47
38.76
40.49
41.63
42.32
42.84
43.51
44.49
45.73
47.01
47.96
48.23
47.64
46.18
44.04
41.50
38.79
36.06
33.30
30.43
27.32
23.97
20.47
16.99
13.71
10.69
7.82
4.91
1.78
-1.61
-5.09
-8.39
-11.30
-13.71
-15.76
-17.71
-19.92
-22.66
-26.10
-30.22
-34.85
-39.69
-44.42
-48.77
-52.70
-56.36
-60.22
-64.87
-70.84
-78.26
-86.53
-94.12
-98.90
-98.64
-91.92
-78.69
-60.52
-40.10
-20.40
-3.77
8.58
16.61
21.05
22.91
23.11
22.34
21.20
20.23
19.94
20.65
22.38
24.79
27.30
29.34
30.60
31.17
31.46
31.99
33.15
34.93
36.96
38.63
39.34
38.77
36.86
33.92
30.39
26.74
23.33
20.38
17.89
15.74
13.70
11.57
9.24
6.68
4.04
1.46
-0.84
-2.83
-4.58
-6.36
-8.53
-11.42
-15.13
-19.44
-23.90
-27.94
-31.17
-33.55
-35.46
-37.57
-40.66
-45.34
-51.85
-59.75
-67.86
-74.38
-77.25
-74.75
-66.18
-52.19
-34.66
-16.16
0.87
14.69
24.56
30.63
33.57
34.17
33.20
31.27
28.87
26.48
24.47
23.17
22.77
23.27
24.51
26.20
28.00
29.70
31.25
32.71
34.16
35.50
36.44
36.54
35.44
33.07
29.69
25.82
21.96
18.40
15.13
11.94
8.59
5.02
1.36
-2.19
-5.48
-8.56
-11.63
-14.91
-18.51
-22.32
-26.12
-29.63
-32.70
-35.45
-38.24
-41.65
-46.29
-52.57
-60.37
-68.82
-76.35
-80.93
-80.65
-74.41
-62.33
-45.82
-27.19
-8.93
6.89
19.05
27.25
31.89
33.74
33.74
32.80
31.71
31.04
31.10
31.90
33.23
34.74
36.11
37.17
37.89
38.43
39.02
39.90
41.19
42.80
44.37
45.36
45.24
43.67
40.74
36.84
32.57
28.45
24.71
21.24
17.76
13.96
9.70
5.12
0.53
-3.70
-7.31
-10.26
-12.74
-15.07
-17.65
-20.78
-24.58
-28.99
-33.76
-38.57
-43.11
-47.18
-50.83
-54.37
-58.35
-63.44
-70.07
-78.01
-86.13
-92.49
-94.78
-91.16
-80.99
-65.12
-45.72
-25.58
-7.22
7.61
18.25
24.86
28.14
29.06
28.58
27.64
27.01
27.19
28.35
30.29
32.58
34.73
36.34
37.29
37.71
37.92
38.32
39.19
40.65
42.50
44.24
45.27
44.99
43.08
39.64
35.16
30.31
25.72
21.73
18.33
15.27
12.19
8.89
5.33
1.67
-1.85
-5.06
-7.86
-10.35
-12.69
-15.16
-17.99
-21.36
-25.28
-29.58
-33.98
-38.13
-41.75
-44.81
-47.59
-50.66
-54.83
-60.75
-68.65
-77.89
-86.89
-93.42
-95.13
-90.38
-78.82
-61.68
-41.35
-20.75
-2.49
11.73
21.33
26.63
28.57
28.24
26.66
24.67
22.82
21.44
20.62
20.33
20.46
20.96
21.83
23.08
24.72
26.63
28.69
30.75
32.71
34.47
35.86
36.63
36.46
35.11
32.49
28.74
24.18
19.26
14.42
10.02
6.24
3.12
0.49
-1.97
-4.66
-7.90
-11.79
-16.13
-20.52
-24.54
-27.94
-30.81
-33.53
-36.72
-41.02
-46.91
-54.47
-63.16
-71.71
-78.22
-80.66
-77.46
-68.13
-53.56
-35.78
-17.39
-0.76
12.54
21.88
27.42
29.76
29.69
28.05
25.65
23.23
21.42
20.56
20.72
21.72
23.24
25.05
27.04
29.22
31.68
34.42
37.26
39.82
41.64
42.25
41.31
38.74
34.76
29.78
24.32
18.81
13.52
8.47
3.52
-1.55
-6.84
-12.27
-17.57
-22.44
-26.69
-30.39
-33.95
-38.05
-43.41
-50.50
-59.17
-68.41
-76.38
-80.83
-79.74
-72.16
-58.51
-40.64
-21.17
-2.79
12.49
23.68
30.77
34.46
35.72
35.59
34.93
34.39
34.27
34.64
35.35
36.19
37.07
38.01
39.20
40.81
42.91
45.39
47.94
50.19
51.78
52.43
52.01
50.46
47.91
44.50
40.47
36.06
31.45
26.76
22.11
17.61
13.38
9.58
6.20
3.09
-0.05
-3.56
-7.67
-12.43
-17.66
-23.09
-28.43
-33.55
-38.45
-43.35
-48.64
-54.85
-62.50
-71.76
-82.19
-92.48
-100.49
-103.85
-100.64
-90.18
-73.39
-52.63
-30.94
-11.18
4.71
16.03
23.18
27.20
29.34
30.69
32.06
33.95
36.50
39.60
42.93
46.07
48.65
50.53
51.82
52.86
54.07
55.77
58.01
60.59
63.06
64.88
65.59
64.92
62.91
59.79
55.95
51.77
47.56
43.54
39.88
36.66
33.87
31.39
28.94
26.20
22.88
18.92
14.48
9.96
5.75
2.16
-0.85
-3.58
-6.49
-10.03
-14.43
-19.61
-25.22
-30.83
-36.04
-40.65
-44.71
-48.45
-52.24
-56.54
-61.84
-68.57
-76.80
-86.01
-94.80
-101.10
-102.60
-97.61
-85.67
-67.99
-47.04
-25.88
-7.21
7.29
17.18
23.04
25.99
27.25
27.90
28.71
30.18
32.46
35.43
38.69
41.73
44.06
45.46
45.99
46.09
46.26
46.95
48.35
50.29
52.39
54.09
54.97
54.73
53.32
50.95
47.95
44.75
41.68
38.93
36.51
34.29
32.05
29.62
26.93
24.03
21.11
18.34
15.84
13.60
11.51
9.33
6.89
4.10
1.07
-1.94
-4.70
-7.09
-9.24
-11.49
-14.28
-17.91
-22.44
-27.65
-33.09
-38.31
-42.98
-47.03
-50.63
-54.17
-58.10
-62.92
-68.96
-76.22
-84.08
-91.25
-95.88
-96.00
-90.18
-78.15
-61.03
-41.09
-21.14
-3.64
9.84
18.87
23.94
26.08
26.45
26.08
25.82
26.22
27.60
29.89
32.79
35.78
38.37
40.25
41.48
42.35
43.28
44.53
46.15
47.85
49.24
49.93
49.65
48.33
46.05
43.00
39.46
35.71
32.04
28.66
25.62
22.88
20.30
17.76
15.21
12.69
10.26
7.93
5.62
3.19
0.59
-2.13
-4.80
-7.26
-9.44
-11.49
-13.64
-16.17
-19.25
-22.86
-26.85
-30.98
-34.98
-38.67
-42.00
-45.14
-48.47
-52.54
-57.85
-64.49
-71.91
-78.73
-83.06
-82.97
-77.23
-65.79
-49.90
-31.73
-13.81
1.74
13.62
21.52
25.83
27.41
27.20
26.10
24.84
23.93
23.67
24.09
25.03
26.19
27.31
28.27
29.15
30.16
31.55
33.42
35.68
38.01
39.90
40.89
40.62
39.02
36.29
32.81
29.00
25.16
21.42
17.80
14.26
10.83
7.61
4.78
2.42
0.46
-1.33
-3.31
-5.80
-8.99
-12.80
-16.96
-21.10
-24.87
-28.12
-30.92
-33.56
-36.51
-40.33
-45.47
-52.03
-59.51
-66.66
-71.67
-72.63
-68.18
-58.06
-43.33
-26.07
-8.74
6.52
18.37
26.37
30.81
32.36
31.87
30.13
27.93
25.91
24.52
23.93
24.04
24.58
25.28
26.01
26.85
27.96
29.48
31.42
33.59
35.64
37.19
37.90
37.50
35.86
33.07
29.36
25.13
20.80
16.72
13.06
9.77
6.70
3.71
0.76
-2.03
-4.53
-6.65
-8.51
-10.37
-12.60
-15.51
-19.23
-23.60
-28.23
-32.63
-36.44
-39.61
-42.54
-45.94
-50.64
-57.18
-65.38
-74.15
-81.57
-85.34
-83.51
-75.19
-60.98
-42.77
-23.25
-5.10
9.74
20.30
26.58
29.21
29.18
27.56
25.44
23.75
23.14
23.84
25.60
27.84
29.95
31.48
32.33
32.76
33.14
33.81
34.92
36.37
37.87
39.06
39.55
39.10
37.56
34.96
31.47
27.40
23.14
19.14
15.76
13.15
11.21
9.54
7.66
5.17
1.94
-1.81
-5.66
-9.09
-11.83
-13.91
-15.66
-17.60
-20.20
-23.69
-27.97
-32.69
-37.34
-41.51
-45.04
-48.08
-51.09
-54.68
-59.42
-65.64
-73.25
-81.48
-88.93
-93.73
-94.01
-88.46
-76.84
-60.19
-40.61
-20.69
-2.86
11.20
20.74
25.95
27.68
27.10
25.46
23.80
22.83
22.86
23.79
25.30
26.97
28.48
29.72
30.70
31.60
32.53
33.62
34.89
36.30
37.73
38.88
39.42
38.97
37.27
34.30
30.34
25.93
21.66
18.04
15.23
13.13
11.37
9.51
7.27
4.56
1.56
-1.47
-4.24
-6.60
-8.63
-10.55
-12.73
-15.46
-18.92
-23.01
-27.46
-31.84
-35.79
-39.15
-42.06
-45.02
-48.71
-53.77
-60.52
-68.69
-77.21
-84.30
-87.86
-86.02
-77.80
-63.55
-44.97
-24.66
-5.36
10.71
22.38
29.53
32.88
33.54
32.69
31.27
29.92
28.96
28.49
28.48
28.84
29.56
30.64
32.08
33.86
35.87
37.92
39.81
41.36
42.42
42.83
42.45
41.14
38.82
35.53
31.43
26.81
21.99
17.28
12.93
9.02
5.56
2.46
-0.47
-3.46
-6.76
-10.53
-14.80
-19.46
-24.24
-28.83
-33.02
-36.81
-40.49
-44.54
-49.62
-56.24
-64.56
-74.01
-83.22
-90.16
-92.60
-88.85
-78.39
-62.20
-42.52
-22.23
-3.97
10.49
20.49
26.34
29.00
29.59
29.12
28.42
28.02
28.23
29.11
30.59
32.44
34.42
36.30
37.97
39.44
40.81
42.23
43.79
45.47
47.02
48.03
48.00
46.58
43.70
39.62
34.88
30.04
25.51
21.42
17.61
13.80
9.77
5.51
1.27
-2.61
-5.85
-8.44
-10.73
-13.27
-16.64
-21.11
-26.60
-32.61
-38.49
-43.68
-48.03
-51.94
-56.25
-62.01
-69.96
-80.09
-91.28
-101.41
-107.73
-107.77
-100.15
-85.15
-64.74
-41.95
-20.03
-1.50
12.29
21.26
26.26
28.53
29.33
29.69
30.29
31.52
33.46
35.99
38.79
41.52
43.86
45.65
46.97
48.06
49.23
50.73
52.64
54.74
56.63
57.78
57.74
56.26
53.36
49.34
44.63
39.75
35.08
30.78
26.85
23.08
19.28
15.27
11.05
6.78
2.75
-0.79
-3.81
-6.52
-9.44
-13.09
-17.84
-23.67
-30.17
-36.71
-42.67
-47.76
-52.08
-56.21
-60.91
-67.02
-75.03
-84.88
-95.61
-105.38
-111.75
-112.34
-105.62
-91.52
-71.62
-48.66
-25.73
-5.44
10.61
21.93
28.87
32.27
33.22
32.84
32.19
32.06
32.88
34.64
37.04
39.63
42.11
44.40
46.62
48.99
51.62
54.46
57.24
59.56
61.01
61.31
60.36
58.27
55.28
51.62
47.47
42.94
38.15
33.25
28.50
24.13
20.24
16.77
13.49
10.07
6.24
1.84
-3.16
-8.58
-14.14
-19.51
-24.41
-28.76
-32.77
-36.92
-41.90
-48.45
-57.00
-67.35
-78.41
-88.19
-94.20
-94.08
-86.45
-71.53
-51.16
-28.34
-6.38
12.12
25.73
34.37
38.87
40.51
40.61
40.19
39.98
40.35
41.42
43.08
45.10
47.20
49.20
51.09
52.95
54.93
57.08
59.31
61.42
63.13
64.13
64.16
63.03
60.60
56.89
52.07
46.53
40.76
35.29
30.52
26.63
23.53
20.93
18.48
15.82
12.78
9.38
5.80
2.33
-0.83
-3.63
-6.30
-9.29
-13.06
-17.91
-23.83
-30.44
-37.17
-43.45
-48.92
-53.61
-57.93
-62.58
-68.41
-76.09
-85.79
-96.87
-107.72
-115.89
-118.76
-114.27
-101.72
-82.20
-58.28
-33.40
-10.79
7.27
19.93
27.54
31.31
32.74
33.21
33.79
35.09
37.32
40.33
43.75
47.17
50.24
52.82
54.96
56.84
58.61
60.40
62.20
63.85
65.13
65.75
65.46
64.10
61.70
58.43
54.61
50.54
46.41
42.31
38.23
34.15
30.14
26.35
22.97
20.06
17.56
15.25
12.82
10.02
6.76
3.11
-0.70
-4.47
-8.06
-11.53
-15.09
-19.07
-23.75
-29.20
-35.25
-41.53
-47.61
-53.13
-57.99
-62.44
-67.00
-72.42
-79.35
-87.97
-97.67
-106.79
-112.93
-113.57
-106.96
-92.81
-72.59
-49.10
-25.61
-4.92
11.26
22.44
29.04
32.00
32.44
31.49
30.18
29.36
29.55
30.85
32.97
35.41
37.71
39.65
41.29
42.88
44.63
46.59
48.64
50.52
51.98
52.76
52.66
51.53
49.26
45.92
41.77
37.20
32.68
28.55
24.99
21.92
19.13
16.32
13.29
10.00
6.59
3.37
0.63
-1.49
-3.14
-4.82
-7.16
-10.68
-15.52
-21.35
-27.49
-33.13
-37.69
-41.00
-43.34
-45.37
-48.00
-52.10
-58.31
-66.57
-76.00
-84.75
-90.42
-90.70
-84.12
-70.66
-51.80
-30.15
-8.63
10.27
25.00
35.02
40.64
42.67
42.15
40.16
37.71
35.65
34.46
34.26
34.80
35.67
36.52
37.28
38.13
39.38
41.28
43.83
46.72
49.46
51.53
52.49
52.11
50.33
47.30
43.34
38.88
34.39
30.25
26.58
23.23
19.87
16.15
11.95
7.43
2.97
-1.01
-4.29
-7.03
-9.64
-12.65
-16.47
-21.23
-26.71
-32.51
-38.18
-43.41
-48.11
-52.50
-57.07
-62.48
-69.35
-77.94
-87.73
-97.22
-104.12
-105.85
-100.45
-87.33
-67.70
-44.27
-20.46
0.63
16.98
27.94
33.99
36.33
36.29
35.11
33.76
32.94
33.08
34.25
36.25
38.62
40.84
42.56
43.68
44.38
45.04
46.03
47.57
49.55
51.60
53.08
53.38
52.07
49.06
44.67
39.42
33.93
28.71
24.06
20.09
16.74
13.86
11.26
8.70
6.00
3.00
-0.34
-3.89
-7.40
-10.53
-13.06
-15.02
-16.74
-18.86
-22.01
-26.59
-32.46
-39.00
-45.25
-50.47
-54.36
-57.28
-60.09
-63.84
-69.34
-76.94
-86.26
-96.06
-104.35
-108.70
-106.94
-97.81
-81.62
-60.29
-36.85
-14.56
4.03
17.54
25.91
29.95
30.90
30.04
28.50
27.23
26.89
27.84
29.98
32.90
35.98
38.62
40.53
41.75
42.61
43.52
44.77
46.38
48.15
49.65
50.46
50.21
48.71
45.99
42.25
37.81
33.11
28.55
24.47
21.02
18.18
15.79
13.55
11.23
8.61
5.60
2.29
-1.13
-4.37
-7.20
-9.59
-11.73
-14.03
-16.92
-20.66
-25.21
-30.26
-35.31
-39.95
-44.00
-47.56
-51.00
-54.81
-59.57
-65.76
-73.53
-82.37
-90.92
-97.02
-98.25
-92.73
-79.96
-61.11
-38.81
-16.29
3.59
19.04
29.50
35.47
37.92
37.97
36.63
34.76
33.04
31.97
31.81
32.53
33.87
35.52
37.14
38.57
39.86
41.19
42.80
44.77
47.01
49.11
50.56
50.79
49.47
46.59
42.53
37.92
33.43
29.54
26.33
23.50
20.56
17.07
12.91
8.37
3.94
0.12
-2.92
-5.41
-7.89
-10.92
-14.89
-19.79
-25.31
-30.96
-36.28
-41.05
-45.35
-49.50
-54.04
-59.60
-66.69
-75.54
-85.73
-95.97
-104.12
-107.66
-104.39
-93.38
-75.44
-53.01
-29.43
-7.94
9.19
21.11
28.20
31.58
32.57
32.39
31.96
31.91
32.60
34.04
36.03
38.16
40.05
41.45
42.43
43.25
44.26
45.71
47.68
49.98
52.28
54.11
55.04
54.75
53.13
50.25
46.38
41.88
37.15
32.54
28.33
24.64
21.45
18.61
15.82
12.75
9.19
5.14
0.84
-3.29
-6.83
-9.61
-11.81
-13.91
-16.53
-20.15
-24.95
-30.67
-36.76
-42.61
-47.76
-52.07
-55.83
-59.64
-64.25
-70.43
-78.61
-88.65
-99.50
-109.22
-115.23
-115.06
-107.16
-91.58
-70.16
-46.06
-22.78
-3.17
11.25
20.39
25.20
27.06
27.34
27.12
27.13
27.87
29.54
32.10
35.24
38.47
41.31
43.50
45.10
46.44
47.95
49.91
52.31
54.87
57.12
58.54
58.72
57.44
54.71
50.73
45.86
40.58
35.37
30.63
26.58
23.25
20.45
17.93
15.42
12.76
9.94
7.09
4.38
1.99
-0.06
-1.90
-3.89
-6.43
-9.90
-14.44
-19.91
-25.88
-31.79
-37.14
-41.66
-45.45
-48.94
-52.92
-58.25
-65.58
-74.88
-85.21
-94.60
-100.46
-100.30
-92.61
-77.48
-56.67
-33.16
-10.18
9.63
24.73
34.79
40.39
42.55
42.40
41.01
39.28
37.90
37.30
37.58
38.57
39.99
41.56
43.18
44.92
46.94
49.33
52.04
54.82
57.26
58.90
59.29
58.16
55.46
51.38
46.36
40.93
35.57
30.60
26.05
21.79
17.61
13.34
8.98
4.68
0.60
-3.19
-6.81
-10.56
-14.80
-19.68
-25.10
-30.63
-35.77
-40.14
-43.76
-47.14
-51.12
-56.66
-64.42
-74.43
-85.83
-96.79
-104.85
-107.45
-102.72
-90.19
-71.04
-47.85
-23.92
-2.27
15.01
27.15
34.46
38.00
39.12
39.07
38.92
39.36
40.76
43.03
45.81
48.58
50.86
52.46
53.47
54.22
55.10
56.37
58.05
59.93
61.64
62.76
62.95
62.04
59.97
56.88
52.95
48.47
43.72
39.03
34.70
31.00
28.06
25.81
24.00
22.24
20.16
17.57
14.50
11.20
8.00
5.15
2.71
0.52
-1.76
-4.52
-8.06
-12.53
-17.96
-24.21
-31.11
-38.47
-46.09
-53.90
-61.98
-70.62
-80.16
-90.75
-101.87
-112.11
-119.19
-120.56
-114.31
-100.01
-79.09
-54.51
-29.85
-8.16
8.72
20.38
27.43
30.92
31.94
31.40
30.11
28.82
28.19
28.56
29.92
31.87
33.84
35.39
36.39
37.01
37.59
38.46
39.73
41.30
42.87
44.13
44.78
44.62
43.52
41.45
38.43
34.59
30.18
25.59
21.24
17.50
14.53
12.20
10.16
8.01
5.43
2.38
-0.96
-4.25
-7.17
-9.65
-11.81
-14.04
-16.74
-20.23
-24.61
-29.70
-35.11
-40.43
-45.33
-49.69
-53.64
-57.56
-62.04
-67.70
-75.04
-84.05
-93.89
-102.81
-108.41
-108.33
-101.00
-86.36
-65.93
-42.42
-18.94
1.81
18.14
29.45
36.10
39.03
39.44
38.53
37.36
36.65
36.75
37.63
39.02
40.59
42.13
43.58
45.01
46.52
48.22
50.07
51.94
53.56
54.53
54.42
52.92
49.94
45.72
40.73
35.50
30.36
25.33
20.23
14.83
9.12
3.36
-2.09
-6.95
-11.23
-15.22
-19.33
-23.89
-28.99
-34.41
-39.80
-44.80
-49.22
-53.12
-56.83
-60.85
-65.82
-72.28
-80.41
-89.65
-98.58
-104.97
-106.35
-100.80
-87.72
-68.22
-44.85
-20.95
0.50
17.50
29.40
36.65
40.29
41.47
41.17
40.22
39.27
38.82
39.13
40.14
41.56
43.00
44.24
45.28
46.34
47.70
49.53
51.75
54.09
56.16
57.54
57.88
56.93
54.57
50.90
46.21
41.00
35.79
31.03
26.93
23.42
20.23
17.00
13.40
9.33
4.93
0.49
-3.62
-7.20
-10.30
-13.26
-16.57
-20.70
-25.81
-31.71
-37.91
-43.82
-49.03
-53.48
-57.48
-61.64
-66.69
-73.29
-81.76
-91.86
-102.50
-111.72
-117.02
-116.00
-107.21
-90.78
-68.56
-43.66
-19.53
0.98
16.30
26.20
31.55
33.73
34.22
34.20
34.49
35.52
37.38
39.86
42.60
45.16
47.18
48.49
49.19
49.63
50.28
51.50
53.32
55.46
57.31
58.22
57.76
55.86
52.85
49.21
45.41
41.69
38.09
34.55
31.02
27.56
24.26
21.20
18.39
15.76
13.26
10.78
8.23
5.50
2.49
-0.86
-4.45
-8.10
-11.57
-14.73
-17.66
-20.65
-24.13
-28.47
-33.80
-39.90
-46.34
-52.56
-58.15
-62.97
-67.27
-71.65
-76.89
-83.66
-92.16
-101.74
-110.76
-116.78
-117.25
-110.35
-95.74
-74.85
-50.56
-26.30
-5.05
11.30
22.28
28.46
31.01
31.25
30.37
29.33
28.89
29.45
31.12
33.67
36.66
39.61
42.15
44.16
45.79
47.39
49.35
51.88
54.87
57.84
60.06
60.84
59.74
56.78
52.38
47.21
41.93
37.04
32.80
29.23
26.20
23.48
20.75
17.75
14.38
10.74
7.17
4.02
1.49
-0.58
-2.58
-5.02
-8.31
-12.56
-17.57
-22.95
-28.22
-33.06
-37.37
-41.33
-45.48
-50.57
-57.35
-66.14
-76.38
-86.48
-93.99
-96.30
-91.54
-79.27
-60.75
-38.56
-15.84
4.60
20.89
32.32
39.13
42.17
42.58
41.42
39.66
38.03
36.98
36.69
37.13
38.16
39.59
41.32
43.39
45.89
48.89
52.35
56.06
59.55
62.28
63.72
63.57
61.82
58.81
55.04
51.11
47.47
44.32
41.55
38.82
35.68
31.78
26.94
21.30
15.18
8.99
3.02
-2.60
-7.96
-13.20
-18.43
-23.63
-28.70
-33.56
-38.31
-43.33
-49.24
-56.71
-66.13
-77.25
-88.91
-99.04
-105.14
-104.97
-97.34
-82.65
-62.88
-41.01
-20.14
-2.61
10.40
18.90
23.65
25.68
25.94
25.14
23.87
22.62
21.80
21.64
22.15
23.09
24.19
25.31
26.55
28.20
30.60
33.86
37.70
41.50
44.47
45.94
45.60
43.54
40.14
35.93
31.34
26.65
21.99
17.37
12.81
8.34
4.05
0.06
-3.53
-6.70
-9.56
-12.35
-15.38
-18.96
-23.19
-27.98
-32.95
-37.68
-41.83
-45.36
-48.57
-52.11
-56.84
-63.50
-72.40
-83.00
-93.73
-102.16
-105.59
-101.89
-90.37
-72.09
-49.64
-26.33
-5.24
11.58
23.37
30.46
33.92
35.09
35.29
35.61
36.77
39.02
42.16
45.69
49.03
51.76
53.71
55.01
55.94
56.79
57.78
59.02
60.46
61.97
63.26
63.95
63.69
62.16
59.30
55.26
50.42
45.25
40.19
35.60
31.61
28.21
25.23
22.40
19.46
16.20
12.61
8.85
5.23
2.03
-0.70
-3.19
-5.91
-9.38
-13.96
-19.65
-26.10
-32.76
-39.07
-44.66
-49.42
-53.61
-57.71
-62.48
-68.69
-76.85
-86.83
-97.50
-106.69
-111.65
-109.91
-100.13
-82.76
-60.01
-35.14
-11.55
8.19
22.77
32.12
37.06
38.82
38.73
38.04
37.79
38.67
40.87
44.07
47.55
50.52
52.39
53.07
52.97
52.78
53.14
54.43
56.53
58.95
61.03
62.11
61.83
60.08
57.06
53.14
48.74
44.20
39.73
35.45
31.39
27.57
24.06
20.89
18.04
15.37
12.68
9.76
6.45
2.81
-1.01
-4.78
-8.32
-11.65
-14.94
-18.49
-22.61
-27.52
-33.16
-39.23
-45.25
-50.73
-55.39
-59.30
-62.89
-66.91
-72.21
-79.40
-88.53
-98.76
-108.25
-114.48
-114.91
-107.85
-93.13
-72.31
-48.29
-24.40
-3.44
12.91
24.21
30.98
34.23
35.08
34.63
33.86
33.57
34.26
36.05
38.61
41.33
43.57
44.97
45.55
45.73
46.12
47.20
49.15
51.71
54.31
56.24
56.92
56.08
53.75
50.25
45.98
41.38
36.72
32.14
27.69
23.40
19.31
15.52
12.08
8.98
6.12
3.28
0.29
-2.98
-6.48
-10.08
-13.58
-16.86
-19.97
-23.15
-26.70
-30.88
-35.70
-40.96
-46.26
-51.18
-55.46
-59.15
-62.65
-66.64
-71.89
-78.95
-87.79
-97.51
-106.23
-111.48
-110.88
-102.96
-87.79
-67.14
-43.89
-21.22
-1.72
13.14
23.07
28.70
31.05
31.31
30.53
29.59
29.16
29.56
30.79
32.53
34.35
35.85
36.87
37.55
38.21
39.23
40.85
43.08
45.62
48.00
49.61
49.94
48.63
45.73
41.56
36.73
31.89
27.52
23.79
20.51
17.28
13.67
9.48
4.81
0.04
-4.36
-8.04
-10.92
-13.26
-15.51
-18.18
-21.57
-25.71
-30.33
-34.97
-39.20
-42.75
-45.68
-48.36
-51.50
-55.86
-62.03
-70.02
-78.93
-86.94
-91.65
-90.81
-83.10
-68.72
-49.38
-27.85
-7.09
10.54
23.72
32.24
36.67
37.93
37.02
34.79
31.93
29.03
26.55
24.81
23.99
24.06
24.87
26.13
27.58
29.06
30.55
32.15
33.93
35.77
37.31
38.00
37.24
34.69
30.38
24.79
18.69
12.88
7.93
3.95
0.62
-2.64
-6.36
-10.78
-15.75
-20.85
-25.55
-29.50
-32.64
-35.18
-37.63
-40.65
-44.93
-51.01
-59.01
-68.26
-77.17
-83.52
-84.98
-79.94
-68.18
-51.04
-30.97
-10.84
6.92
20.80
30.31
35.80
38.05
38.04
36.74
34.95
33.30
32.11
31.53
31.54
32.10
33.16
34.62
36.34
38.12
39.75
41.14
42.31
43.33
44.15
44.48
43.85
41.72
37.85
32.38
25.92
19.31
13.35
8.49
4.67
1.47
-1.77
-5.64
-10.47
-16.15
-22.27
-28.24
-33.53
-37.90
-41.45
-44.68
-48.36
-53.33
-60.21
-69.11
-79.29
-89.10
-96.24
-98.27
-93.49
-81.52
-63.60
-42.30
-20.72
-1.60
13.34
23.66
29.89
33.08
34.40
34.83
35.12
35.73
36.91
38.70
40.89
43.17
45.20
46.78
47.89
48.72
49.54
50.57
51.89
53.36
54.64
55.27
54.77
52.84
49.48
45.03
40.05
35.14
30.70
26.77
23.08
19.26
15.05
10.44
5.75
1.37
-2.42
-5.64
-8.65
-11.98
-16.14
-21.32
-27.32
-33.67
-39.78
-45.26
-50.06
-54.51
-59.23
-64.91
-72.16
-81.17
-91.45
-101.64
-109.60
-112.86
-109.36
-98.28
-80.43
-58.16
-34.64
-12.95
4.71
17.40
25.33
29.51
31.28
31.94
32.56
33.79
35.92
38.84
42.17
45.45
48.25
50.34
51.67
52.40
52.81
53.24
53.98
55.12
56.57
57.97
58.84
58.66
57.13
54.16
50.03
45.23
40.29
35.69
31.65
28.13
24.89
21.60
18.03
14.16
10.14
6.28
2.84
-0.07
-2.60
-5.15
-8.18
-12.03
-16.81
-22.31
-28.09
-33.69
-38.79
-43.31
-47.40
-51.49
-56.10
-61.87
-69.34
-78.69
-89.36
-99.86
-107.85
-110.70
-106.38
-94.26
-75.50
-52.78
-29.46
-8.51
8.17
20.06
27.67
32.02
34.17
34.98
35.15
35.24
35.69
36.73
38.35
40.31
42.29
44.02
45.40
46.56
47.67
48.89
50.28
51.74
53.07
54.00
54.21
53.40
51.36
48.04
43.52
38.16
32.46
26.96
22.18
18.34
15.37
12.84
10.16
6.75
2.34
-2.96
-8.70
-14.27
-19.20
-23.35
-27.03
-30.84
-35.55
-41.85
-50.09
-60.02
-70.60
-80.00
-85.86
-85.92
-78.82
-64.68
-45.30
-23.65
-3.00
14.08
26.33
33.84
37.61
38.97
39.06
38.64
38.14
37.80
37.79
38.17
38.85
39.63
40.31
40.83
41.34
42.14
43.53
45.57
48.01
50.30
51.81
52.04
50.80
48.21
44.63
40.42
35.87
31.14
26.31
21.45
16.65
12.05
7.73
3.67
-0.24
-4.17
-8.32
-12.81
-17.65
-22.71
-27.77
-32.56
-36.92
-40.85
-44.62
-48.73
-53.87
-60.65
-69.31
-79.38
-89.45
-97.35
-100.65
-97.45
-87.05
-70.33
-49.57
-27.67
-7.41
9.27
21.53
29.46
33.80
35.54
35.72
35.31
35.08
35.49
36.68
38.42
40.32
41.92
42.99
43.55
43.88
44.38
45.37
46.94
48.87
50.66
51.75
51.63
50.13
47.41
43.89
40.10
36.40
32.85
29.27
25.37
20.95
16.07
11.02
6.17
1.82
-1.93
-5.23
-8.39
-11.74
-15.55
-19.91
-24.75
-29.84
-34.84
-39.49
-43.69
-47.65
-51.92
-57.23
-64.21
-72.89
-82.38
-90.85
-95.90
-95.32
-87.83
-73.68
-54.63
-33.43
-12.96
4.51
17.82
26.84
32.20
34.78
35.48
35.09
34.27
33.60
33.47
34.02
35.10
36.34
37.34
37.92
38.17
38.47
39.23
40.68
42.67
44.70
46.12
46.40
45.30
42.91
39.58
35.72
31.73
27.86
24.24
20.82
17.47
13.99
10.25
6.22
2.09
-1.83
-5.28
-8.17
-10.74
-13.39
-16.55
-20.42
-24.86
-29.48
-33.80
-37.49
-40.56
-43.37
-46.57
-50.86
-56.76
-64.32
-72.84
-80.87
-86.36
-87.25
-82.09
-70.64
-54.03
-34.54
-14.86
2.62
16.38
25.89
31.49
33.98
34.28
33.28
31.69
30.09
28.89
28.34
28.47
29.14
30.16
31.31
32.50
33.73
35.09
36.65
38.40
40.17
41.66
42.47
42.22
40.64
37.66
33.44
28.34
22.83
17.41
12.51
8.36
4.92
1.95
-0.99
-4.34
-8.34
-12.99
-17.97
-22.83
-27.15
-30.75
-33.74
-36.52
-39.65
-43.72
-49.16
-56.10
-64.11
-72.04
-78.10
-80.24
-76.77
-67.01
-51.67
-32.74
-12.94
5.07
19.37
29.15
34.59
36.54
36.13
34.46
32.41
30.58
29.27
28.50
28.15
28.01
27.93
27.90
28.03
28.50
29.45
30.89
32.66
34.43
35.84
36.54
36.28
34.91
32.40
28.78
24.18
18.83
13.11
7.51
2.50
-1.63
-4.89
-7.66
-10.49
-13.89
-18.13
-23.05
-28.22
-33.07
-37.14
-40.26
-42.65
-44.78
-47.36
-51.11
-56.57
-63.83
-72.29
-80.53
-86.56
-88.23
-83.99
-73.40
-57.43
-38.19
-18.32
-0.30
14.20
24.44
30.63
33.51
34.11
33.39
32.21
31.18
30.66
30.73
31.23
31.88
32.42
32.78
33.05
33.50
34.36
35.68
37.28
38.79
39.78
39.92
39.07
37.25
34.60
31.28
27.46
23.35
19.10
14.91
10.87
7.09
3.57
0.27
-2.91
-6.10
-9.49
-13.22
-17.35
-21.82
-26.40
-30.84
-34.90
-38.52
-41.86
-45.30
-49.38
-54.66
-61.46
-69.63
-78.30
-85.86
-90.19
-89.28
-81.92
-68.23
-49.79
-29.17
-9.23
7.75
20.48
28.80
33.31
34.95
34.68
33.35
31.62
30.03
28.95
28.50
28.60
29.02
29.52
30.01
30.55
31.31
32.48
34.09
35.97
37.79
39.14
39.64
39.04
37.28
34.49
30.91
26.85
22.57
18.26
14.08
10.11
6.43
3.04
-0.13
-3.31
-6.75
-10.70
-15.18
-20.02
-24.80
-29.13
-32.74
-35.70
-38.41
-41.48
-45.58
-51.21
-58.43
-66.69
-74.68
-80.57
-82.36
-78.48
-68.45
-53.07
-34.33
-14.75
3.26
18.06
28.94
35.96
39.68
40.81
40.10
38.25
35.96
33.81
32.20
31.29
30.98
31.10
31.50
32.16
33.19
34.71
36.72
39.06
41.38
43.27
44.33
44.22
42.79
40.09
36.35
31.96
27.38
23.05
19.27
16.20
13.78
11.75
9.79
7.56
4.91
1.98
-0.78
-2.72
-3.15
-1.67
1.60
6.03
10.60
14.28
16.41
17.01
16.98
17.98
22.07
31.17
46.38
67.71
93.98
123.22
153.30
182.52
209.80
234.62
256.47
274.48
287.31
293.45
291.62
281.29
262.99
238.45
210.57
182.91
158.95
141.07
129.82
123.66
119.53
114.04
104.67
90.59
72.62
52.51
32.03
12.40
-5.83
-22.43
-37.21
-49.86
-60.19
-68.34
-74.90
-80.81
-87.05
-94.21
-102.26
-110.60
-118.39
-124.91
-129.88
-133.42
-135.89
-137.65
-138.86
-139.58
-139.89
-140.09
-140.58
-141.82
-143.89
-146.33
-148.03
-147.42
-142.97
-133.71
-119.70
-102.04
-82.63
-63.49
-46.18
-31.48
-19.49
-10.04
-3.04
1.41
3.13
2.26
-0.59
-4.32
-7.72
-9.85
-10.33
-9.48
-8.19
-7.70
-9.24
-13.65
-20.76
-29.16
-36.16
-38.64
-34.23
-22.54
-5.83
11.43
23.85
27.08
19.33
2.08
-20.69
-44.21
-64.73
-80.37
-91.05
-97.54
-100.61
-100.70
-98.25
-94.10
-89.53
-85.82
-83.50
-82.00
-80.01
-76.30
-70.50
-63.29
-55.79
-48.70
-41.96
-35.03
-27.59
-19.93
-12.95
-7.42
-3.53
-0.81
1.34
2.91
2.84
-0.71
-9.31
-22.95
-39.35
-54.70
-65.68
-71.74
-75.89
-83.39
-98.53
-121.42
-147.07
-167.03
-173.18
-161.34
-133.00
-94.56
-54.50
-20.29
3.83
17.22
21.95
21.17
17.67
13.04
7.49
0.65
-7.53
-16.01
-22.85
-26.13
-25.27
-21.53
-17.50
-15.69
-17.19
-21.30
-26.30
-30.64
-33.54
-35.00
-35.12
-33.39
-28.75
-20.00
-6.74
10.16
28.67
46.22
60.68
70.92
77.01
79.85
80.64
80.40
79.76
79.01
78.19
77.22
75.88
73.93
71.20
67.78
64.01
60.45
57.48
55.04
52.61
49.40
44.85
38.89
32.04
25.14
18.84
13.44
8.93
5.31
2.77
1.63
2.11
4.03
6.75
9.39
11.17
11.68
10.95
9.24
6.81
3.77
0.09
-4.18
-8.69
-12.80
-15.78
-17.06
-16.57
-14.77
-12.49
-10.62
-9.77
-10.13
-11.50
-13.48
-15.73
-17.96
-19.94
-21.40
-22.09
-21.82
-20.57
-18.56
-16.09
-13.49
-10.90
-8.35
-5.79
-3.35
-1.50
-0.94
-2.32
-5.79
-10.83
-16.34
-21.13
-24.42
-26.09
-26.56
-26.29
-25.49
-23.93
-21.27
-17.49
-13.21
-9.67
-8.26
-9.89
-14.50
-21.03
-27.73
-32.94
-35.64
-35.80
-34.30
-32.46
-31.46
-31.85
-33.42
-35.53
-37.44
-38.71
-39.29
-39.54
-40.12
-41.84
-45.59
-52.06
-61.47
-73.37
-86.69
-99.99
-111.88
-121.52
-128.88
-134.75
-140.38
-146.82
-154.32
-161.84
-167.13
-167.30
-159.86
-143.82
-120.22
-91.97
-62.92
-36.58
-15.19
0.70
11.80
19.29
24.05
26.47
26.55
24.44
20.90
17.37
15.66
17.21
22.61
31.31
41.77
51.84
59.32
62.38
59.91
51.82
39.14
23.87
8.49
-4.82
-15.00
-22.46
-28.96
-36.89
-48.34
-64.41
-84.95
-108.75
-134.04
-159.06
-182.44
-203.56
-222.59
-240.22
-257.11
-273.20
-287.28
-297.12
-300.12
-294.35
-279.35
-256.32
-227.61
-195.86
-163.09
-130.37
-97.96
-65.74
-33.83
-2.90
25.85
51.02
71.37
86.27
95.86
100.99
103.00
103.39
103.48
104.27
106.43
110.25
115.76
122.55
129.90
136.81
142.27
145.50
146.12
144.14
139.76
133.30
124.97
115.02
103.78
91.76
79.58
67.86
57.10
47.47
38.74
30.20
20.76
9.09
-5.81
-24.09
-44.45
-64.17
-79.67
-87.56
-85.80
-74.26
-54.65
-29.72
-2.33
25.18
51.17
74.52
94.46
110.52
122.59
131.00
136.36
139.27
140.15
139.22
136.74
133.25
129.57
126.58
124.83
124.26
124.16
123.51
121.40
117.35
111.48
104.26
96.26
87.86
79.14
70.07
60.63
50.99
41.49
32.53
24.33
16.84
9.68
2.19
-6.35
-16.60
-28.72
-42.13
-55.26
-65.68
-70.68
-68.09
-57.13
-38.68
-15.15
10.39
35.06
56.86
74.78
88.59
98.38
104.32
106.67
105.88
102.79
98.45
93.94
90.06
87.20
85.36
84.36
84.01
84.24
85.04
86.38
88.09
89.75
90.78
90.51
88.36
83.97
77.25
68.53
58.45
47.87
37.62
28.31
20.04
12.44
4.68
-4.16
-14.72
-26.88
-39.61
-50.97
-58.58
-60.32
-54.96
-42.62
-24.71
-3.61
18.05
38.00
54.68
67.35
75.91
80.70
82.25
81.21
78.29
74.23
69.73
65.36
61.51
58.33
55.84
54.02
52.97
52.84
53.79
55.72
58.16
60.25
60.97
59.51
55.52
49.28
41.53
33.22
25.20
17.97
11.61
5.79
-0.12
-6.86
-15.00
-24.57
-34.83
-44.28
-50.93
-52.89
-49.07
-39.54
-25.62
-9.51
6.35
19.93
30.00
36.26
39.17
39.60
38.51
36.62
34.37
31.89
29.25
26.59
24.28
22.83
22.76
24.28
27.25
31.16
35.29
38.91
41.39
42.28
41.31
38.42
33.76
27.81
21.23
14.68
8.47
2.34
-4.52
-13.18
-24.40
-38.10
-53.06
-67.01
-77.24
-81.29
-77.83
-66.97
-50.26
-30.17
-9.36
10.00
26.51
39.61
49.24
55.61
58.98
59.70
58.29
55.49
52.09
48.82
46.08
43.97
42.29
40.82
39.42
38.11
36.98
35.99
34.91
33.30
30.67
26.69
21.36
15.07
8.47
2.27
-3.01
-7.24
-10.67
-13.84
-17.38
-21.81
-27.34
-33.71
-40.14
-45.32
-47.73
-46.03
-39.58
-28.76
-14.97
-0.23
13.40
24.44
32.16
36.65
38.42
38.11
36.23
33.19
29.38
25.29
21.51
18.68
17.27
17.43
18.93
21.25
23.73
25.84
27.32
28.16
28.43
28.10
26.94
24.58
20.68
15.21
8.52
1.27
-5.77
-11.98
-17.10
-21.28
-24.97
-28.83
-33.43
-39.10
-45.73
-52.67
-58.75
-62.56
-62.77
-58.57
-49.96
-37.83
-23.75
-9.54
3.13
13.09
19.84
23.41
24.28
23.09
20.46
16.97
13.07
9.20
5.74
3.03
1.28
0.56
0.72
1.56
2.84
4.38
6.08
7.85
9.51
10.71
11.04
10.11
7.74
4.06
-0.51
-5.37
-9.98
-14.02
-17.47
-20.56
-23.80
-27.71
-32.68
-38.79
-45.51
-51.73
-55.90
-56.47
-52.45
-43.86
-31.80
-18.15
-4.91
6.31
14.71
20.27
23.46
24.90
25.13
24.52
23.30
21.69
19.92
18.21
16.81
15.92
15.66
16.08
17.06
18.39
19.78
20.91
21.46
21.27
20.27
18.52
16.20
13.41
10.21
6.58
2.53
-1.87
-6.38
-10.69
-14.56
-17.85
-20.66
-23.22
-25.82
-28.78
-32.36
-36.78
-42.06
-47.90
-53.54
-57.81
-59.35
-57.13
-50.75
-40.77
-28.47
-15.58
-3.72
5.94
12.86
17.14
19.24
19.80
19.38
18.43
17.23
15.97
14.80
13.90
13.44
13.55
14.21
15.31
16.72
18.31
20.03
21.86
23.73
25.44
26.74
27.30
26.88
25.38
22.93
19.80
16.39
13.07
10.07
7.44
5.02
2.53
-0.31
-3.65
-7.45
-11.55
-15.68
-19.66
-23.40
-27.02
-30.71
-34.74
-39.30
-44.40
-49.73
-54.54
-57.78
-58.27
-55.15
-48.15
-37.87
-25.56
-12.87
-1.32
8.04
14.76
18.93
20.92
21.24
20.37
18.80
16.99
15.31
14.06
13.36
13.20
13.51
14.19
15.21
16.55
18.18
20.01
21.89
23.64
25.11
26.15
26.62
26.37
25.29
23.35
20.68
17.49
14.04
10.59
7.30
4.27
1.54
-0.92
-3.16
-5.33
-7.60
-10.12
-12.86
-15.72
-18.46
-20.86
-22.87
-24.58
-26.22
-28.12
-30.64
-34.09
-38.51
-43.59
-48.50
-52.04
-52.90
-50.18
-43.78
-34.47
-23.66
-12.95
-3.56
3.80
8.99
12.21
13.74
13.90
13.05
11.58
9.92
8.45
7.40
6.80
6.58
6.67
7.02
7.66
8.64
9.92
11.38
12.79
13.90
14.45
14.28
13.32
11.64
9.42
6.92
4.43
2.11
0.04
-1.87
-3.82
-5.99
-8.48
-11.24
-14.10
-16.81
-19.18
-21.14
-22.75
-24.31
-26.21
-28.82
-32.36
-36.73
-41.37
-45.30
-47.36
-46.51
-42.22
-34.70
-24.91
-14.25
-4.18
4.23
10.41
14.36
16.41
16.99
16.53
15.35
13.76
12.07
10.62
9.70
9.42
9.73
10.40
11.16
11.83
12.37
12.88
13.48
14.17
14.81
15.09
14.70
13.44
11.34
8.64
5.67
2.82
0.32
-1.72
-3.33
-4.65
-5.84
-7.10
-8.55
-10.24
-12.17
-14.27
-16.46
-18.67
-20.88
-23.19
-25.77
-28.95
-33.03
-38.18
-44.15
-50.18
-55.04
-57.34
-55.93
-50.35
-41.03
-29.20
-16.48
-4.48
5.65
13.34
18.56
21.61
22.95
23.00
22.13
20.69
18.97
17.22
15.61
14.21
13.02
12.02
11.22
10.73
10.70
11.24
12.37
13.97
15.80
17.54
18.90
19.64
19.61
18.77
17.20
15.08
12.67
10.16
7.66
5.08
2.25
-1.04
-4.84
-9.06
-13.39
-17.50
-21.09
-24.00
-26.23
-27.93
-29.28
-30.58
-32.12
-34.21
-37.06
-40.56
-44.19
-46.96
-47.72
-45.50
-39.93
-31.48
-21.27
-10.78
-1.39
5.99
11.03
13.86
14.94
14.84
14.07
13.07
12.14
11.46
11.09
11.05
11.36
12.02
12.99
14.19
15.51
16.82
18.07
19.21
20.19
20.89
21.06
20.45
18.89
16.41
13.23
9.74
6.37
3.43
1.06
-0.80
-2.39
-3.98
-5.84
-8.09
-10.73
-13.56
-16.34
-18.82
-20.85
-22.44
-23.82
-25.39
-27.62
-30.92
-35.41
-40.75
-46.12
-50.29
-52.02
-50.40
-45.20
-36.89
-26.55
-15.55
-5.17
3.64
10.31
14.66
16.82
17.14
16.14
14.45
12.65
11.19
10.33
10.12
10.49
11.28
12.36
13.61
14.91
16.19
17.42
18.60
19.74
20.81
21.62
21.91
21.37
19.85
17.38
14.25
10.81
7.36
4.02
0.71
-2.76
-6.55
-10.63
-14.80
-18.73
-22.10
-24.77
-26.79
-28.47
-30.18
-32.34
-35.21
-38.84
-43.04
-47.26
-50.67
-52.26
-51.11
-46.69
-39.10
-29.13
-18.04
-7.24
2.07
9.18
13.88
16.45
17.41
17.45
17.16
16.98
17.07
17.39
17.76
18.10
18.44
18.95
19.83
21.20
23.03
25.11
27.18
28.97
30.24
30.83
30.60
29.50
27.57
24.94
21.84
18.54
15.31
12.38
9.87
7.82
6.14
4.66
3.20
1.61
-0.19
-2.17
-4.30
-6.48
-8.63
-10.71
-12.72
-14.77
-17.08
-19.94
-23.71
-28.60
-34.60
-41.29
-47.85
-53.16
-56.05
-55.62
-51.48
-43.94
-33.92
-22.75
-11.80
-2.18
5.48
11.01
14.67
16.89
18.14
18.81
19.14
19.29
19.31
19.27
19.25
19.31
19.50
19.85
20.32
20.86
21.43
22.08
22.84
23.77
24.77
25.66
26.19
26.18
25.58
24.46
22.95
21.15
19.08
16.72
14.07
11.17
8.12
4.96
1.75
-1.54
-4.91
-8.34
-11.74
-15.02
-18.08
-20.85
-23.26
-25.22
-26.70
-27.74
-28.60
-29.70
-31.45
-33.99
-37.02
-39.71
-40.95
-39.74
-35.62
-28.88
-20.47
-11.70
-3.78
2.49
6.81
9.29
10.32
10.40
10.00
9.62
9.60
10.17
11.34
12.99
14.89
16.84
18.71
20.47
22.13
23.67
25.05
26.10
26.68
26.61
25.84
24.38
22.36
19.97
17.45
14.97
12.67
10.64
8.96
7.62
6.62
5.84
5.07
4.06
2.53
0.32
-2.58
-6.02
-9.72
-13.41
-16.92
-20.21
-23.37
-26.59
-30.08
-34.04
-38.54
-43.41
-48.14
-51.84
-53.50
-52.17
-47.39
-39.41
-29.18
-18.09
-7.57
1.29
7.90
12.20
14.50
15.29
15.16
14.73
14.47
14.70
15.44
16.52
17.63
18.57
19.29
19.92
20.65
21.60
22.76
24.04
25.28
26.34
27.03
27.14
26.49
25.01
22.82
20.25
17.70
15.49
13.72
12.26
10.88
9.36
7.64
5.77
3.90
2.12
0.46
-1.16
-2.87
-4.80
-7.06
-9.68
-12.64
-15.88
-19.33
-22.90
-26.50
-30.04
-33.46
-36.72
-39.74
-42.34
-44.06
-44.25
-42.19
-37.40
-29.89
-20.35
-10.02
-0.32
7.54
12.90
15.69
16.34
15.49
13.81
11.83
9.94
8.45
7.57
7.46
8.20
9.82
12.25
15.33
18.79
22.32
25.53
28.06
29.70
30.43
30.38
29.76
28.68
27.12
24.98
22.18
18.75
14.91
10.99
7.30
4.08
1.45
-0.52
-1.74
-2.17
-1.85
-1.04
-0.22
0.07
-0.62
-2.43
-5.15
-8.33
-11.45
-14.19
-16.53
-18.74
-21.28
-24.56
-28.78
-33.74
-38.80
-42.99
-45.22
-44.62
-40.87
-34.22
-25.60
-16.22
-7.35
0.10
5.64
9.20
10.98
11.28
10.39
8.65
6.39
3.98
1.82
0.27
-0.43
-0.14
1.17
3.44
6.52
10.20
14.15
17.99
21.35
23.88
25.38
25.75
24.97
23.09
20.22
16.54
12.36
8.03
3.89
0.12
-3.26
-6.36
-9.24
-11.86
-13.99
-15.38
-15.92
-15.68
-14.98
-14.19
-13.65
-13.70
-14.66
-16.82
-20.35
-25.03
-30.11
-34.43
-36.71
-36.07
-32.44
-26.55
-19.67
-13.05
-7.50
-3.21
0.03
2.62
4.86
6.90
8.73
10.32
11.68
12.79
13.67
14.28
14.65
14.82
14.92
15.05
15.25
15.46
15.55
15.39
14.93
14.24
13.42
12.61
11.81
10.98
10.01
8.87
7.65
6.55
5.84
5.67
6.03
6.70
7.29
7.45
6.96
5.85
4.30
2.62
1.08
-0.19
-1.24
-2.31
-3.67
-5.61
-8.33
-11.86
-15.97
-20.13
-23.58
-25.38
-24.79
-21.40
-15.33
-7.20
2.06
11.47
20.17
27.56
33.32
37.35
39.76
40.77
40.63
39.60
37.85
35.47
32.55
29.20
25.64
22.14
18.96
16.32
14.35
13.08
12.47
12.45
12.86
13.53
14.22
14.78
15.16
15.47
15.95
16.88
18.45
20.63
23.18
25.65
27.51
28.31
27.93
26.60
24.97
23.96
24.37
26.65
30.72
35.99
41.62
46.79
50.89
53.47
54.21
52.81
49.06
43.03
35.26
26.79
19.00
13.33
10.88
12.12
16.61
23.01
29.38
33.72
34.64
31.97
26.76
20.75
15.61
12.11
9.96
8.06
5.22
0.80
-4.94
-11.07
-16.40
-20.02
-21.58
-21.21
-19.25
-16.07
-12.07
-7.81
-4.16
-2.25
-3.21
-7.69
-15.56
-25.87
-37.21
-48.21
-57.89
-65.79
-71.78
-75.74
-77.56
-77.16
-74.77
-70.98
-66.66
-62.61
-59.40
-57.17
-55.71
-54.59
-53.32
-51.44
-48.56
-44.51
-39.32
-33.37
-27.32
-22.05
-18.42
-17.03
-18.15
-21.65
-27.04
-33.56
-40.39
-46.81
-52.52
-57.76
-63.28
-70.01
-78.60
-89.01
-100.33
-111.15
-120.09
-126.40
-130.33
-132.99
-135.72
-139.37
-143.60
-146.79
-146.44
-139.96
-125.59
-102.92
-73.04
-38.17
-0.96
36.13
71.37
103.95
134.00
162.33
190.01
217.85
245.80
272.62
296.02
313.40
323.05
325.34
323.14
321.00
323.15
331.33
343.50
354.42
357.81
349.18
327.69
296.10
259.01
220.50
182.38
144.22
104.51
62.39
18.58
-24.75
-65.02
-100.46
-130.79
-157.05
-180.92
-203.84
-226.43
-248.36
-268.82
-286.91
-301.82
-312.76
-318.73
-318.40
-310.52
-294.53
-271.11
-242.24
-210.71
-179.27
-149.95
-123.73
-100.71
-80.40
-62.06
-45.03
-28.94
-13.87
-0.29
11.21
20.51
28.26
35.89
45.11
57.21
72.53
90.37
109.21
126.94
140.92
147.92
144.56
128.31
98.70
58.10
11.41
-35.41
-77.20
-111.04
-136.45
-154.49
-166.33
-172.29
-172.00
-165.27
-153.32
-139.12
-126.84
-120.38
-121.93
-131.02
-144.78
-159.09
-170.15
-175.84
-176.13
-172.58
-167.34
-162.00
-157.08
-152.05
-145.96
-138.08
-128.27
-116.96
-104.82
-92.46
-80.31
-68.81
-58.56
-50.42
-45.21
-43.28
-44.02
-45.81
-46.37
-43.47
-35.75
-23.22
-7.19
10.08
26.20
39.27
48.41
53.69
55.91
56.06
54.98
53.07
50.42
46.97
42.88
38.63
35.09
33.27
33.99
37.69
44.26
53.05
63.00
72.89
81.48
87.74
91.00
90.97
87.88
82.33
75.22
67.57
60.25
53.79
48.32
43.55
38.97
34.12
28.76
22.98
17.17
11.82
7.31
3.77
0.98
-1.54
-4.48
-8.42
-13.59
-19.60
-25.37
-29.34
-29.95
-26.15
-17.92
-6.23
7.18
20.44
31.99
40.93
47.04
50.58
52.13
52.32
51.77
50.98
50.24
49.60
48.93
48.05
46.91
45.80
45.23
45.80
47.96
51.76
56.75
62.09
66.76
69.88
70.96
69.98
67.37
63.75
59.69
55.63
51.75
48.16
44.91
42.07
39.69
37.66
35.73
33.56
30.85
27.51
23.67
19.65
15.77
12.21
8.97
5.85
2.52
-1.37
-6.14
-11.91
-18.52
-25.35
-31.38
-35.28
-35.82
-32.25
-24.63
-13.85
-1.41
11.01
22.00
30.64
36.59
40.01
41.26
40.84
39.22
36.86
34.14
31.43
28.99
26.97
25.42
24.28
23.42
22.73
22.18
21.78
21.57
21.48
21.32
20.79
19.55
17.34
14.13
10.10
5.62
1.09
-3.16
-7.01
-10.45
-13.64
-16.66
-19.55
-22.17
-24.34
-25.87
-26.67
-26.87
-26.79
-26.94
-27.88
-30.00
-33.32
-37.27
-40.77
-42.41
-40.93
-35.68
-26.89
-15.63
-3.43
8.13
17.89
25.24
30.06
32.59
33.26
32.55
30.98
29.01
26.97
25.02
23.19
21.45
19.77
18.25
17.00
16.17
15.80
15.85
16.24
16.81
17.34
17.56
17.09
15.61
12.95
9.21
4.79
0.24
-3.88
-7.23
-9.77
-11.78
-13.72
-16.08
-19.24
-23.31
-28.04
-32.88
-37.07
-39.86
-40.78
-39.77
-37.23
-33.73
-29.82
-25.69
-21.08
-15.44
-8.22
0.86
11.60
23.33
35.13
46.03
55.19
62.02
66.19
67.63
66.64
63.79
59.92
55.91
52.46
49.94
48.28
47.15
46.13
44.97
43.69
42.55
41.87
41.89
42.65
43.89
45.20
46.13
46.35
45.69
44.13
41.67
38.31
34.05
28.94
23.24
17.31
11.51
6.03
0.81
-4.39
-9.83
-15.54
-21.25
-26.45
-30.66
-33.53
-35.08
-35.62
-35.73
-36.11
-37.41
-40.04
-43.93
-48.44
-52.44
-54.60
-53.76
-49.37
-41.66
-31.68
-21.00
-11.27
-3.84
0.56
1.96
1.05
-1.07
-3.27
-4.72
-5.09
-4.50
-3.36
-2.10
-0.95
0.11
1.24
2.68
4.52
6.75
9.26
11.86
14.40
16.70
18.58
19.88
20.44
20.14
18.95
16.94
14.27
11.21
8.11
5.30
3.00
1.25
-0.13
-1.48
-3.17
-5.39
-8.09
-10.99
-13.74
-16.08
-17.95
-19.52
-21.10
-23.01
-25.49
-28.56
-32.01
-35.39
-38.04
-39.14
-37.95
-34.06
-27.57
-19.19
-10.09
-1.54
5.44
10.33
13.22
14.55
14.92
14.76
14.25
13.30
11.83
9.87
7.72
5.86
4.79
4.76
5.68
7.13
8.58
9.61
10.08
10.14
10.11
10.26
10.73
11.51
12.46
13.35
13.95
13.98
13.23
11.58
9.15
6.27
3.44
1.09
-0.61
-1.84
-3.04
-4.76
-7.47
-11.43
-16.64
-22.74
-29.05
-34.61
-38.35
-39.40
-37.45
-32.88
-26.75
-20.41
-15.05
-11.36
-9.44
-8.91
-9.21
-9.82
-10.41
-10.80
-11.00
-11.05
-11.11
-11.37
-11.96
-12.96
-14.27
-15.64
-16.76
-17.31
-17.09
-16.07
-14.35
-12.19
-9.88
-7.62
-5.50
-3.47
-1.40
0.73
2.82
4.57
5.65
5.77
4.87
3.11
0.78
-1.78
-4.39
-6.96
-9.57
-12.33
-15.40
-18.90
-22.82
-26.90
-30.51
-32.72
-32.54
-29.32
-23.01
-14.43
-5.02
3.52
9.77
12.99
13.23
11.21
7.98
4.58
1.76
-0.11
-0.98
-1.01
-0.45
0.40
1.20
1.60
1.32
0.23
-1.54
-3.66
-5.64
-7.07
-7.73
-7.58
-6.81
-5.63
-4.33
-3.17
-2.40
-2.24
-2.80
-4.05
-5.85
-7.95
-10.15
-12.20
-13.96
-15.32
-16.20
-16.66
-16.91
-17.30
-18.30
-20.30
-23.34
-27.01
-30.41
-32.38
-31.84
-28.24
-21.73
-13.23
-4.02
4.57
11.58
16.58
19.60
20.91
20.85
19.71
17.75
15.26
12.58
10.13
8.21
7.05
6.66
6.94
7.71
8.86
10.32
12.05
13.99
15.95
17.61
18.60
18.57
17.36
15.08
12.02
8.56
5.04
1.64
-1.56
-4.55
-7.31
-9.72
-11.68
-13.19
-14.41
-15.59
-17.00
-18.82
-21.16
-24.06
-27.56
-31.62
-35.97
-40.00
-42.81
-43.42
-41.21
-36.21
-29.14
-21.20
-13.63
-7.33
-2.68
0.33
1.92
2.28
1.57
0.05
-1.84
-3.44
-4.04
-3.08
-0.40
3.68
8.52
13.35
17.61
21.04
23.70
25.71
27.17
27.95
27.78
26.41
23.78
20.12
15.83
11.41
7.29
3.83
1.36
0.19
0.60
2.67
6.16
10.46
14.67
17.88
19.35
18.64
15.62
10.20
2.25
-8.43
-21.90
-37.72
-54.82
-71.43
-85.43
-94.80
-98.10
-94.80
-85.23
-70.55
-52.35
-32.39
-12.36
6.27
22.40
35.26
44.38
49.59
50.98
48.97
44.32
38.13
31.60
25.79
21.43
18.88
18.28
19.74
23.47
29.72
38.46
49.21
60.89
72.02
81.07
86.87
88.87
87.23
82.64
76.07
68.48
60.63
53.01
45.95
39.71
34.55
30.81
28.71
28.26
29.07
30.37
31.15
30.39
27.33
21.66
13.65
4.10
-5.78
-14.51
-20.70
-23.27
-21.77
-16.46
-8.30
1.25
10.60
18.37
23.73
26.44
26.80
25.47
23.12
20.29
17.26
14.18
11.11
8.17
5.54
3.40
1.91
1.11
0.97
1.40
2.30
3.54
5.00
6.52
7.91
9.03
9.72
9.92
9.59
8.75
7.43
5.64
3.37
0.57
-2.80
-6.73
-11.09
-15.63
-20.06
-24.11
-27.63
-30.61
-33.27
-35.98
-39.16
-43.12
-47.80
-52.65
-56.68
-58.69
-57.71
-53.33
-45.95
-36.59
-26.61
-17.23
-9.27
-3.04
1.56
4.78
6.92
8.26
9.00
9.36
9.53
9.66
9.86
10.24
10.89
11.92
13.41
15.35
17.56
19.74
21.57
22.79
23.32
23.22
22.69
21.94
21.11
20.26
19.34
18.30
17.03
15.51
13.75
11.76
9.59
7.20
4.49
1.26
-2.70
-7.59
-13.59
-20.66
-28.43
-36.12
-42.53
-46.33
-46.43
-42.45
-34.91
-25.09
-14.72
-5.31
2.13
7.30
10.47
12.19
13.05
13.56
14.10
14.86
15.92
17.22
18.62
19.97
21.16
22.21
23.25
24.45
25.92
27.65
29.41
30.78
31.24
30.35
27.85
23.79
18.51
12.44
6.06
-0.30
-6.43
-12.27
-17.79
-22.97
-27.78
-32.24
-36.28
-39.85
-42.87
-45.25
-47.01
-48.31
-49.54
-51.16
-53.62
-57.02
-60.96
-64.48
-66.33
-65.32
-60.81
-52.99
-42.78
-31.54
-20.57
-10.78
-2.62
3.85
8.74
12.18
14.36
15.53
16.07
16.40
16.89
17.69
18.79
20.00
21.18
22.23
23.13
23.96
24.74
25.49
26.12
26.52
26.49
25.88
24.53
22.40
19.54
16.22
12.82
9.73
7.28
5.52
4.24
3.07
1.62
-0.29
-2.60
-5.03
-7.29
-9.15
-10.58
-11.69
-12.72
-13.95
-15.71
-18.32
-21.92
-26.38
-31.14
-35.26
-37.58
-37.18
-33.58
-26.94
-18.03
-7.95
2.10
11.05
18.10
22.84
25.33
26.03
25.67
25.00
24.52
24.39
24.47
24.51
24.41
24.26
24.30
24.78
25.77
27.18
28.80
30.38
31.69
32.52
32.71
32.15
30.83
28.86
26.42
23.72
20.89
18.01
15.09
12.14
9.15
6.16
3.15
0.14
-2.89
-5.93
-9.00
-12.18
-15.65
-19.59
-24.02
-28.61
-32.63
-35.04
-34.83
-31.43
-24.93
-16.17
-6.48
2.74
10.38
15.87
19.13
20.45
20.27
19.04
17.13
14.91
12.72
10.84
9.45
8.58
8.11
7.86
7.69
7.58
7.61
7.87
8.38
9.00
9.48
9.50
8.82
7.40
5.33
2.83
0.16
-2.50
-5.11
-7.67
-10.23
-12.80
-15.32
-17.73
-19.98
-22.11
-24.25
-26.62
-29.49
-33.05
-37.28
-41.80
-45.83
-48.36
-48.37
-45.26
-39.04
-30.39
-20.42
-10.43
-1.46
5.75
10.97
14.28
16.02
16.61
16.46
15.89
15.07
14.15
13.20
12.32
11.62
11.19
11.10
11.36
11.94
12.75
13.64
14.40
14.81
14.69
13.98
12.74
11.10
9.16
6.89
4.22
1.06
-2.53
-6.31
-9.93
-13.08
-15.61
-17.59
-19.30
-21.09
-23.34
-26.38
-30.33
-35.06
-39.98
-44.13
-46.33
-45.51
-41.15
-33.49
-23.56
-12.86
-2.89
5.25
11.00
14.42
15.89
15.97
15.18
13.96
12.61
11.33
10.25
9.44
8.92
8.74
8.92
9.46
10.31
11.38
12.55
13.67
14.59
15.18
15.35
15.02
14.09
12.49
10.20
7.30
4.01
0.67
-2.43
-5.08
-7.27
-9.18
-11.10
-13.39
-16.30
-19.96
-24.34
-29.13
-33.78
-37.49
-39.37
-38.62
-34.82
-28.11
-19.15
-9.01
1.18
10.37
17.87
23.30
26.63
28.03
27.88
26.66
24.87
22.99
21.39
20.31
19.82
19.90
20.44
21.35
22.54
23.92
25.41
26.87
28.08
28.79
28.74
27.77
25.90
23.34
20.46
17.67
15.23
13.19
11.35
9.39
7.00
4.07
0.67
-2.96
-6.55
-9.96
-13.21
-16.55
-20.33
-24.94
-30.62
-37.37
-44.77
-51.96
-57.68
-60.65
-59.92
-55.21
-47.11
-36.88
-26.10
-16.22
-8.21
-2.48
1.04
2.73
3.06
2.51
1.51
0.42
-0.50
-1.04
-1.12
-0.69
0.29
1.84
3.95
6.55
9.45
12.41
15.17
17.53
19.30
20.33
20.48
19.63
17.76
15.02
11.77
8.47
5.52
3.10
1.12
-0.75
-2.89
-5.48
-8.47
-11.55
-14.35
-16.64
-18.47
-20.15
-22.15
-24.95
-28.75
-33.42
-38.34
-42.51
-44.78
-44.14
-40.04
-32.57
-22.50
-11.04
0.41
10.63
18.80
24.55
27.95
29.36
29.29
28.30
26.86
25.36
24.05
23.14
22.68
22.73
23.24
24.16
25.38
26.75
28.13
29.35
30.27
30.78
30.79
30.25
29.10
27.28
24.77
21.64
18.07
14.35
10.80
7.65
4.97
2.60
0.24
-2.42
-5.60
-9.25
-13.12
-16.80
-19.96
-22.44
-24.43
-26.35
-28.72
-32.02
-36.42
-41.75
-47.43
-52.47
-55.67
-55.88
-52.30
-44.84
-34.21
-21.77
-9.19
2.01
10.85
16.96
20.56
22.16
22.42
21.91
21.10
20.36
19.90
19.85
20.18
20.81
21.67
22.69
23.87
25.20
26.63
28.05
29.34
30.34
30.88
30.80
29.98
28.34
25.92
22.89
19.52
16.19
13.19
10.67
8.58
6.68
4.68
2.35
-0.40
-3.50
-6.76
-9.98
-13.05
-15.88
-18.53
-21.05
-23.54
-26.19
-29.28
-33.19
-38.16
-44.04
-50.04
-54.89
-57.07
-55.41
-49.58
-40.16
-28.51
-16.31
-5.00
4.48
11.72
16.71
19.67
20.90
20.81
19.92
18.77
17.84
17.42
17.61
18.32
19.37
20.59
21.86
23.12
24.37
25.59
26.76
27.81
28.65
29.13
29.05
28.30
26.84
24.85
22.57
20.28
18.09
15.95
13.67
11.11
8.27
5.36
2.65
0.31
-1.75
-3.86
-6.37
-9.44
-12.91
-16.39
-19.49
-21.97
-23.96
-25.83
-28.06
-31.11
-35.21
-40.36
-46.17
-51.91
-56.49
-58.69
-57.44
-52.24
-43.33
-31.74
-18.96
-6.62
3.96
12.00
17.29
20.15
21.16
21.01
20.33
19.55
18.91
18.47
18.24
18.17
18.31
18.70
19.42
20.51
21.96
23.69
25.56
27.36
28.83
29.76
29.97
29.41
28.16
26.37
24.24
21.97
19.67
17.36
14.99
12.52
9.94
7.34
4.90
2.75
0.87
-0.89
-2.84
-5.27
-8.31
-11.89
-15.68
-19.32
-22.51
-25.18
-27.47
-29.77
-32.55
-36.22
-40.95
-46.52
-52.27
-57.08
-59.70
-59.00
-54.38
-45.98
-34.70
-22.01
-9.53
1.33
9.67
15.23
18.32
19.52
19.56
18.98
18.15
17.23
16.32
15.56
15.16
15.37
16.32
17.99
20.17
22.58
24.95
27.11
29.00
30.60
31.79
32.38
32.14
30.92
28.77
26.01
23.07
20.33
18.00
16.00
14.07
11.91
9.39
6.63
3.88
1.40
-0.72
-2.64
-4.70
-7.19
-10.25
-13.79
-17.57
-21.28
-24.75
-28.00
-31.24
-34.84
-39.15
-44.38
-50.38
-56.58
-61.97
-65.25
-65.22
-61.09
-52.89
-41.45
-28.25
-15.00
-3.17
6.29
13.02
17.19
19.24
19.69
19.09
17.92
16.65
15.61
15.05
15.06
15.66
16.79
18.35
20.26
22.44
24.73
27.02
29.18
31.10
32.65
33.70
34.07
33.61
32.30
30.26
27.80
25.28
22.97
20.99
19.24
17.48
15.46
13.03
10.22
7.24
4.36
1.78
-0.47
-2.57
-4.84
-7.55
-10.83
-14.57
-18.53
-22.46
-26.23
-29.84
-33.40
-37.14
-41.28
-46.11
-51.79
-58.21
-64.80
-70.46
-73.72
-73.20
-68.11
-58.57
-45.67
-31.12
-16.73
-3.99
6.21
13.55
18.23
20.71
21.67
21.85
21.91
22.30
23.21
24.47
25.83
27.07
28.15
29.28
30.74
32.70
35.13
37.78
40.31
42.39
43.83
44.51
44.34
43.23
41.13
38.14
34.51
30.67
27.07
24.04
21.64
19.67
17.73
15.45
12.61
9.29
5.79
2.44
-0.46
-2.93
-5.20
-7.67
-10.68
-14.38
-18.58
-22.94
-27.04
-30.59
-33.58
-36.23
-39.02
-42.49
-47.11
-53.03
-59.94
-66.96
-72.71
-75.61
-74.28
-68.05
-57.22
-43.03
-27.36
-12.20
0.86
10.87
17.62
21.43
22.91
22.83
21.90
20.72
19.69
19.08
18.94
19.23
19.89
20.88
22.21
23.95
26.13
28.73
31.60
34.51
37.11
39.07
40.08
39.98
38.78
36.69
33.99
31.00
27.91
24.82
21.69
18.45
15.05
11.54
8.04
4.70
1.64
-1.13
-3.72
-6.32
-9.11
-12.19
-15.53
-18.98
-22.31
-25.36
-28.10
-30.77
-33.80
-37.72
-42.90
-49.32
-56.33
-62.67
-66.69
-66.86
-62.21
-52.77
-39.55
-24.27
-8.92
4.79
15.75
23.53
28.29
30.57
31.09
30.51
29.39
28.11
26.91
25.96
25.40
25.39
26.05
27.46
29.59
32.26
35.18
38.01
40.38
42.01
42.72
42.47
41.31
39.32
36.59
33.15
29.09
24.57
19.85
15.32
11.31
7.98
5.24
2.78
0.18
-2.88
-6.50
-10.53
-14.66
-18.59
-22.13
-25.28
-28.20
-31.19
-34.66
-39.04
-44.70
-51.70
-59.58
-67.21
-72.95
-75.00
-72.05
-63.74
-50.91
-35.34
-19.22
-4.52
7.47
16.25
22.03
25.39
27.06
27.76
28.04
28.28
28.67
29.22
29.87
30.58
31.38
32.38
33.74
35.53
37.68
40.04
42.36
44.38
45.88
46.65
46.53
45.41
43.27
40.27
36.66
32.83
29.10
25.66
22.51
19.47
16.35
13.02
9.54
6.10
2.95
0.20
-2.22
-4.60
-7.28
-10.53
-14.42
-18.73
-23.13
-27.26
-30.91
-34.17
-37.36
-40.98
-45.54
-51.37
-58.42
-66.03
-72.97
-77.57
-78.16
-73.62
-63.81
-49.78
-33.48
-17.18
-2.89
8.16
15.67
20.05
22.14
22.89
23.15
23.57
24.51
26.07
28.08
30.22
32.16
33.70
34.87
35.88
37.00
38.43
40.18
42.08
43.89
45.36
46.26
46.45
45.79
44.18
41.64
38.35
34.70
31.14
28.05
25.60
23.62
21.78
19.71
17.19
14.25
11.12
8.10
5.42
3.14
1.21
-0.57
-2.42
-4.61
-7.31
-10.62
-14.52
-18.80
-23.18
-27.30
-30.96
-34.12
-37.04
-40.25
-44.35
-49.81
-56.66
-64.30
-71.46
-76.44
-77.62
-73.98
-65.46
-53.05
-38.48
-23.66
-10.23
0.80
9.06
14.71
18.14
19.92
20.61
20.75
20.84
21.20
22.02
23.20
24.54
25.76
26.72
27.46
28.22
29.31
30.92
32.97
35.16
37.02
38.08
38.07
36.95
34.90
32.23
29.29
26.36
23.66
21.28
19.19
17.32
15.46
13.45
11.16
8.57
5.78
2.97
0.41
-1.74
-3.45
-4.89
-6.38
-8.26
-10.74
-13.81
-17.24
-20.70
-23.93
-26.81
-29.49
-32.29
-35.62
-39.88
-45.23
-51.42
-57.60
-62.45
-64.38
-62.14
-55.17
-44.01
-30.13
-15.56
-2.19
8.61
16.28
20.97
23.25
23.82
23.33
22.33
21.26
20.45
20.11
20.31
20.98
21.99
23.21
24.55
26.00
27.59
29.31
31.08
32.75
34.10
34.89
34.95
34.16
32.52
30.19
27.39
24.42
21.54
18.89
16.50
14.27
12.04
9.71
7.26
4.78
2.40
0.21
-1.75
-3.58
-5.47
-7.62
-10.23
-13.39
-16.98
-20.75
-24.35
-27.45
-29.93
-31.91
-33.81
-36.17
-39.52
-44.12
-49.79
-55.76
-60.75
-63.27
-62.03
-56.41
-46.72
-34.16
-20.45
-7.34
3.82
12.28
17.85
20.77
21.55
20.82
19.30
17.67
16.48
16.02
16.25
16.93
17.74
18.48
19.16
19.97
21.12
22.75
24.73
26.75
28.43
29.40
29.51
28.75
27.24
25.15
22.64
19.83
16.93
14.15
11.68
9.60
7.79
6.06
4.15
1.97
-0.41
-2.77
-4.88
-6.66
-8.17
-9.65
-11.32
-13.33
-15.65
-18.14
-20.60
-22.85
-24.86
-26.75
-28.81
-31.50
-35.27
-40.40
-46.66
-53.26
-58.85
-61.88
-61.07
-55.90
-46.79
-34.98
-22.19
-10.03
0.28
8.12
13.37
16.29
17.33
17.10
16.24
15.32
14.72
14.59
14.89
15.49
16.33
17.38
18.66
20.16
21.79
23.45
25.10
26.69
28.17
29.38
30.06
29.92
28.79
26.74
24.07
21.14
18.28
15.60
13.08
10.56
7.94
5.24
2.52
-0.10
-2.56
-4.85
-7.08
-9.39
-11.95
-14.86
-18.14
-21.64
-25.09
-28.20
-30.77
-32.83
-34.66
-36.82
-39.87
-44.20
-49.81
-56.12
-62.02
-66.10
-67.02
-63.90
-56.69
-46.16
-33.73
-21.01
-9.45
-0.02
6.85
11.17
13.28
13.73
13.19
12.32
11.65
11.47
11.82
12.57
13.59
14.83
16.35
18.21
20.38
22.72
24.98
26.93
28.42
29.44
29.97
29.96
29.27
27.77
25.40
22.27
18.66
14.93
11.44
8.41
5.86
3.59
1.31
-1.27
-4.29
-7.71
-11.32
-14.82
-17.97
-20.74
-23.26
-25.74
-28.40
-31.42
-34.96
-39.20
-44.24
-49.91
-55.58
-60.12
-62.14
-60.41
-54.37
-44.45
-31.97
-18.77
-6.67
3.06
9.93
14.19
16.54
17.83
18.75
19.67
20.65
21.62
22.52
23.42
24.47
25.82
27.52
29.45
31.41
33.25
34.94
36.58
38.28
40.04
41.67
42.86
43.35
43.00
41.87
40.21
38.30
36.43
34.78
33.44
32.45
31.73
31.24
30.90
30.72
30.70
30.87
31.22
31.66
32.07
32.27
32.13
31.52
30.44
29.12
28.24
28.91
32.69
41.12
55.19
74.94
99.24
126.06
153.02
177.83
198.53
213.46
221.19
220.50
210.72
192.01
165.49
133.13
97.35
60.69
25.59
-5.61
-30.87
-48.71
-58.67
-61.80
-60.46
-57.74
-56.48
-58.30
-63.29
-70.15
-76.96
-81.96
-84.12
-83.41
-80.56
-76.79
-73.34
-71.17
-70.67
-71.57
-73.00
-73.67
-72.24
-67.70
-59.68
-48.68
-36.01
-23.53
-13.30
-7.00
-5.55
-8.85
-15.90
-25.18
-35.24
-45.25
-55.25
-65.91
-77.95
-91.57
-105.97
-119.57
-130.54
-137.57
-140.40
-139.91
-137.80
-136.05
-136.53
-140.64
-149.13
-161.69
-176.56
-190.37
-198.77
-197.61
-184.55
-160.14
-127.82
-92.68
-59.76
-32.44
-11.95
2.21
11.28
16.49
18.74
18.89
17.96
17.17
17.60
19.79
23.52
28.07
32.60
36.61
40.09
43.46
47.19
51.54
56.37
61.17
65.25
67.94
68.80
67.74
64.96
60.88
55.95
50.60
45.09
39.60
34.21
28.99
23.94
19.10
14.51
10.18
6.14
2.34
-1.33
-4.97
-8.71
-12.64
-16.79
-21.17
-25.80
-30.69
-35.80
-40.99
-46.05
-50.71
-54.85
-58.49
-61.92
-65.61
-70.05
-75.57
-82.10
-88.98
-95.00
-98.59
-98.27
-93.15
-83.24
-69.58
-53.92
-38.19
-23.99
-12.23
-3.14
3.57
8.38
11.85
14.42
16.45
18.24
20.00
21.91
24.07
26.59
29.61
33.23
37.49
42.17
46.81
50.85
53.76
55.32
55.67
55.19
54.25
53.09
51.69
49.93
47.67
44.91
41.72
38.27
34.64
30.87
26.99
23.04
19.11
15.26
11.53
7.88
4.22
0.48
-3.41
-7.37
-11.34
-15.30
-19.34
-23.78
-29.04
-35.52
-43.35
-52.08
-60.62
-67.36
-70.54
-68.86
-61.94
-50.51
-36.23
-21.15
-7.13
4.55
13.35
19.26
22.63
23.93
23.68
22.46
20.95
19.75
19.26
19.65
20.83
22.63
24.90
27.61
30.81
34.58
38.81
43.18
47.21
50.37
52.26
52.72
51.87
50.07
47.73
45.20
42.66
40.16
37.62
34.95
32.09
29.08
26.05
23.16
20.54
18.21
16.00
13.60
10.64
6.91
2.40
-2.61
-7.71
-12.51
-16.86
-20.89
-24.98
-29.64
-35.35
-42.39
-50.60
-59.28
-67.08
-72.29
-73.24
-68.95
-59.51
-46.19
-31.06
-16.31
-3.65
6.10
12.93
17.40
20.23
22.08
23.44
24.74
26.29
28.34
30.94
33.95
37.09
40.06
42.65
44.85
46.77
48.65
50.64
52.79
55.00
56.96
58.28
58.60
57.71
55.64
52.71
49.40
46.23
43.60
41.64
40.21
38.97
37.48
35.40
32.59
29.16
25.46
21.85
18.67
15.95
13.53
11.03
8.08
4.50
0.33
-4.17
-8.59
-12.62
-16.07
-19.07
-21.97
-25.37
-29.90
-36.01
-43.67
-52.17
-60.08
-65.62
-67.13
-63.66
-55.31
-43.22
-29.22
-15.27
-2.99
6.65
13.34
17.35
19.23
19.72
19.58
19.48
19.90
21.03
22.77
24.84
26.94
28.84
30.54
32.24
34.17
36.49
39.14
41.86
44.26
45.96
46.71
46.46
45.30
43.46
41.20
38.69
36.07
33.37
30.55
27.52
24.18
20.55
16.68
12.75
8.98
5.52
2.44
-0.36
-3.11
-5.99
-9.11
-12.40
-15.64
-18.64
-21.35
-23.94
-26.80
-30.41
-35.10
-40.84
-47.09
-52.79
-56.60
-57.19
-53.77
-46.31
-35.62
-23.17
-10.64
0.52
9.35
15.51
19.18
20.79
20.90
20.06
18.73
17.33
16.18
15.47
15.30
15.64
16.40
17.51
18.95
20.76
22.98
25.58
28.34
30.89
32.74
33.47
32.83
30.82
27.71
23.89
19.83
15.92
12.45
9.45
6.78
4.17
1.32
-1.95
-5.57
-9.32
-12.88
-16.00
-18.68
-21.18
-23.93
-27.41
-31.89
-37.27
-42.96
-47.95
-51.02
-51.10
-47.61
-40.63
-30.92
-19.70
-8.31
2.08
10.70
17.13
21.34
23.58
24.26
23.96
23.22
22.48
22.01
21.87
22.03
22.44
23.16
24.26
25.80
27.73
29.84
31.85
33.48
34.51
34.86
34.51
33.47
31.72
29.25
26.09
22.37
18.33
14.31
10.63
7.51
4.95
2.74
0.56
-1.90
-4.81
-8.10
-11.54
-14.86
-17.84
-20.45
-22.80
-25.15
-27.81
-31.13
-35.39
-40.65
-46.62
-52.53
-57.22
-59.38
-58.01
-52.69
-43.88
-32.70
-20.70
-9.38
0.13
7.29
12.09
14.98
16.59
17.54
18.34
19.26
20.41
21.77
23.26
24.77
26.23
27.60
28.86
30.05
31.20
32.37
33.53
34.57
35.29
35.43
34.79
33.29
31.04
28.28
25.34
22.50
19.93
17.68
15.66
13.69
11.61
9.28
6.70
3.99
1.33
-1.09
-3.18
-5.05
-6.91
-9.02
-11.57
-14.56
-17.84
-21.14
-24.22
-26.96
-29.40
-31.72
-34.32
-37.60
-41.87
-47.13
-52.85
-57.99
-61.18
-61.14
-57.17
-49.42
-38.87
-27.09
-15.67
-5.91
1.51
6.47
9.31
10.58
10.90
10.80
10.75
11.01
11.71
12.80
14.15
15.61
17.06
18.45
19.81
21.22
22.74
24.42
26.16
27.77
28.96
29.51
29.29
28.34
26.85
25.02
23.07
21.10
19.19
17.36
15.67
14.05
12.43
10.64
8.54
6.09
3.44
0.81
-1.55
-3.49
-5.08
-6.49
-7.96
-9.70
-11.81
-14.26
-16.95
-19.64
-22.14
-24.26
-25.94
-27.34
-28.77
-30.68
-33.49
-37.37
-42.07
-46.78
-50.33
-51.40
-49.05
-43.05
-34.01
-23.31
-12.57
-3.20
3.96
8.74
11.50
12.81
13.25
13.27
13.21
13.28
13.63
14.33
15.29
16.37
17.40
18.29
19.06
19.85
20.86
22.20
23.91
25.84
27.66
29.03
29.61
29.23
27.94
26.02
23.84
21.79
20.11
18.84
17.83
16.83
15.64
14.11
12.25
10.13
7.87
5.59
3.41
1.37
-0.57
-2.52
-4.66
-7.14
-10.00
-13.17
-16.48
-19.73
-22.81
-25.73
-28.66
-31.90
-35.75
-40.38
-45.65
-51.01
-55.46
-57.83
-57.11
-52.84
-45.33
-35.56
-24.87
-14.53
-5.49
1.76
7.02
10.35
11.88
11.91
10.91
9.48
8.22
7.57
7.65
8.29
9.20
10.16
11.11
12.17
13.49
15.12
16.94
18.74
20.27
21.35
21.87
21.83
21.22
20.06
18.40
16.39
14.22
12.14
10.32
8.82
7.52
6.22
4.71
2.91
0.88
-1.19
-3.11
-4.78
-6.28
-7.81
-9.57
-11.73
-14.26
-17.00
-19.75
-22.29
-24.51
-26.42
-28.21
-30.18
-32.65
-35.91
-39.99
-44.55
-48.82
-51.72
-52.12
-49.21
-42.80
-33.45
-22.33
-10.87
-0.38
8.30
14.80
19.24
21.93
23.32
23.82
23.86
23.86
24.19
25.15
26.90
29.43
32.59
36.20
40.04
44.00
48.06
52.32
56.94
62.12
67.97
74.33
80.79
86.72
91.59
95.27
98.41
102.58
109.97
122.81
142.60
169.57
202.52
239.17
276.68
312.18
343.04
366.98
382.16
387.44
382.61
368.61
347.33
321.11
292.20
262.33
232.74
204.44
178.36
155.25
135.40
118.35
103.00
88.06
72.65
56.67
40.77
25.83
12.48
0.60
-10.58
-22.16
-35.12
-50.00
-66.88
-85.43
-105.07
-125.01
-144.27
-161.71
-176.26
-187.03
-193.67
-196.44
-196.09
-193.63
-189.95
-185.70
-181.10
-176.16
-170.75
-164.75
-158.05
-150.64
-142.60
-134.26
-126.14
-118.86
-112.98
-108.83
-106.41
-105.46
-105.52
-106.05
-106.60
-106.81
-106.49
-105.70
-104.68
-103.85
-103.60
-104.16
-105.46
-107.16
-108.84
-110.22
-111.31
-112.36
-113.71
-115.55
-117.81
-120.17
-122.31
-124.07
-125.65
-127.53
-130.30
-134.41
-139.98
-146.76
-154.08
-160.96
-166.28
-169.03
-168.70
-165.47
-160.33
-154.76
-150.29
-147.93
-147.86
-149.44
-151.58
-153.18
-153.45
-152.05
-148.93
-144.20
-138.02
-130.57
-122.00
-112.41
-101.74
-89.81
-76.41
-61.44
-45.15
-28.15
-11.41
4.06
17.42
28.22
36.38
42.08
45.66
47.46
47.85
47.21
45.84
43.91
41.33
37.82
33.03
26.85
19.63
12.20
5.52
0.30
-3.30
-5.68
-7.48
-9.14
-10.69
-11.75
-11.82
-10.63
-8.33
-5.47
-2.84
-1.31
-1.66
-4.40
-9.51
-16.20
-22.79
-26.91
-26.16
-18.95
-5.18
13.49
34.13
53.40
68.67
78.60
83.32
83.95
81.95
78.58
74.59
70.34
66.03
61.85
58.12
55.14
53.13
52.14
52.10
52.94
54.62
57.04
60.05
63.30
66.27
68.41
69.28
68.70
66.80
63.96
60.66
57.30
54.13
51.20
48.46
45.77
42.98
40.01
36.76
33.30
29.83
26.78
24.78
24.44
26.13
29.71
34.45
39.17
42.65
43.96
42.77
39.27
34.02
27.83
21.81
17.41
16.44
20.67
31.18
47.78
68.79
91.40
112.48
129.44
140.87
146.44
146.60
142.07
133.51
121.58
107.05
90.89
74.25
58.29
43.84
31.38
20.91
12.17
4.85
-1.26
-6.11
-9.52
-11.31
-11.52
-10.62
-9.51
-9.32
-10.97
-14.90
-20.80
-27.80
-34.81
-40.91
-45.66
-49.07
-51.47
-53.19
-54.46
-55.41
-56.17
-57.07
-58.58
-61.23
-65.38
-71.10
-78.12
-85.87
-93.65
-100.80
-106.87
-111.70
-115.48
-118.78
-122.28
-126.61
-131.88
-137.44
-141.81
-142.98
-139.00
-128.68
-112.10
-90.69
-66.87
-43.35
-22.44
-5.53
7.01
15.62
21.17
24.58
26.66
27.97
28.90
29.74
30.71
31.98
33.67
35.79
38.24
40.86
43.49
45.95
48.15
49.98
51.30
51.91
51.58
50.17
47.63
44.15
40.10
35.96
32.13
28.85
26.13
23.74
21.35
18.65
15.46
11.84
8.03
4.41
1.29
-1.25
-3.39
-5.51
-8.00
-11.07
-14.66
-18.49
-22.17
-25.48
-28.41
-31.22
-34.36
-38.34
-43.54
-50.05
-57.43
-64.65
-70.08
-71.81
-68.23
-58.60
-43.53
-24.94
-5.58
11.81
25.25
33.91
38.11
38.85
37.38
34.80
31.89
29.21
27.09
25.74
25.24
25.53
26.43
27.72
29.22
30.87
32.66
34.56
36.48
38.14
39.10
38.87
37.08
33.67
28.97
23.60
18.31
13.64
9.79
6.62
3.78
0.86
-2.39
-6.05
-10.02
-14.13
-18.22
-22.20
-26.09
-30.00
-34.14
-38.72
-43.88
-49.61
-55.72
-61.93
-67.94
-73.58
-78.93
-84.22
-89.70
-95.38
-100.67
-104.29
-104.46
-99.37
-87.89
-70.16
-47.77
-23.46
-0.31
19.13
33.50
42.76
47.92
50.40
51.51
52.16
52.71
53.20
53.54
53.67
53.67
53.83
54.54
56.23
59.21
63.52
68.87
74.72
80.35
85.12
88.50
90.18
90.05
88.18
84.80
80.27
75.02
69.45
63.80
58.13
52.40
46.50
40.31
33.77
26.89
19.73
12.44
5.32
-1.20
-6.65
-10.63
-12.98
-13.79
-13.38
-12.30
-11.13
-10.41
-10.46
-11.30
-12.63
-13.93
-14.70
-14.64
-13.75
-12.37
-11.05
-10.40
-10.83
-12.32
-14.12
-14.73
-12.17
-4.57
9.07
28.35
51.44
75.62
98.04
116.57
130.13
138.58
142.37
142.14
138.57
132.33
124.17
114.89
105.12
95.26
85.38
75.45
65.47
55.62
46.35
38.11
31.23
25.74
21.45
17.97
14.79
11.41
7.37
2.45
-3.28
-9.45
-15.43
-20.66
-24.80
-27.86
-30.11
-31.95
-33.67
-35.38
-37.00
-38.47
-39.90
-41.69
-44.50
-49.06
-55.89
-65.14
-76.47
-89.17
-102.36
-115.22
-127.11
-137.56
-146.20
-152.70
-156.79
-158.44
-157.94
-155.91
-153.22
-150.66
-148.69
-147.12
-145.01
-140.87
-133.14
-120.73
-103.44
-82.10
-58.38
-34.34
-11.97
7.21
22.35
33.27
40.41
44.66
47.09
48.76
50.38
52.34
54.67
57.30
60.13
63.20
66.65
70.55
74.92
79.53
83.95
87.56
89.54
89.05
85.43
78.38
68.20
55.75
42.29
29.19
17.61
8.35
1.81
-2.06
-3.61
-3.51
-2.56
-1.59
-1.17
-1.53
-2.55
-3.94
-5.55
-7.53
-10.32
-14.39
-20.02
-27.05
-34.94
-43.00
-50.59
-57.32
-63.07
-67.97
-72.30
-76.43
-80.62
-84.75
-88.15
-89.59
-87.60
-81.07
-69.76
-54.53
-37.16
-19.79
-4.23
8.37
17.71
24.06
27.95
29.94
30.53
30.23
29.52
28.82
28.41
28.36
28.61
29.02
29.51
30.09
30.77
31.56
32.32
32.87
32.98
32.55
31.55
30.04
28.09
25.78
23.16
20.31
17.36
14.44
11.63
8.98
6.49
4.22
2.29
0.83
-0.09
-0.59
-0.98
-1.66
-2.89
-4.67
-6.71
-8.49
-9.54
-9.68
-9.11
-8.35
-8.10
-8.98
-11.43
-15.48
-20.74
-26.25
-30.61
-32.19
-29.52
-21.80
-9.20
6.94
24.55
41.27
55.11
64.87
70.31
72.02
71.13
68.96
66.70
65.20
64.82
65.58
67.24
69.46
71.82
73.78
74.68
73.74
70.36
64.28
55.77
45.48
34.23
22.67
11.16
-0.16
-11.12
-21.40
-30.50
-37.91
-43.40
-47.13
-49.55
-51.24
-52.71
-54.28
-56.02
-57.85
-59.53
-60.79
-61.39
-61.23
-60.39
-59.18
-57.99
-57.20
-56.97
-57.22
-57.68
-58.01
-57.97
-57.51
-56.83
-56.32
-56.45
-57.63
-59.98
-63.26
-66.65
-68.90
-68.56
-64.38
-55.78
-43.13
-27.73
-11.51
3.62
16.23
25.71
32.23
36.36
38.82
40.16
40.76
40.93
40.96
41.08
41.38
41.57
41.17
39.62
36.69
32.68
28.48
25.26
24.02
25.22
28.59
33.41
38.76
43.85
48.09
51.09
52.49
52.01
49.61
45.55
40.41
34.94
29.74
25.08
20.92
17.02
13.22
9.62
6.43
3.94
2.18
0.97
-0.13
-1.58
-3.68
-6.52
-9.87
-13.35
-16.47
-18.76
-19.89
-19.77
-18.55
-16.71
-14.94
-13.96
-14.22
-15.73
-17.99
-20.13
-21.24
-20.72
-18.59
-15.57
-12.82
-11.63
-12.80
-16.51
-22.20
-28.86
-35.46
-41.25
-45.98
-49.80
-53.04
-55.92
-58.38
-60.15
-60.79
-59.90
-57.26
-52.87
-46.97
-40.00
-32.45
-24.78
-17.44
-10.83
-5.31
-1.24
1.19
1.96
1.37
-0.12
-1.95
-3.69
-5.09
-6.16
-7.02
-7.80
-8.63
-9.65
-11.01
-13.00
-15.93
-19.95
-24.97
-30.49
-35.75
-40.00
-42.79
-44.29
-45.30
-47.00
-50.56
-56.59
-64.81
-73.94
-81.89
-86.22
-84.69
-75.92
-59.89
-38.02
-12.99
11.99
33.92
50.79
61.90
67.80
69.80
69.45
68.03
66.40
64.93
63.70
62.65
61.72
60.94
60.40
60.29
60.74
61.80
63.34
65.06
66.57
67.41
67.16
65.44
62.09
57.12
50.89
43.99
37.18
31.08
26.00
21.80
17.98
14.00
9.48
4.49
-0.54
-5.06
-8.64
-11.29
-13.35
-15.48
-18.29
-22.16
-27.06
-32.56
-38.09
-43.10
-47.39
-51.19
-55.18
-60.28
-67.19
-75.98
-85.68
-94.30
-99.16
-97.74
-88.47
-71.47
-48.62
-23.07
1.65
22.59
38.08
47.88
52.82
54.30
53.83
52.66
51.76
51.64
52.52
54.26
56.51
58.77
60.69
62.12
63.19
64.22
65.50
67.16
69.05
70.80
71.89
71.90
70.51
67.67
63.44
58.11
52.06
45.79
39.81
34.57
30.33
27.04
24.33
21.73
18.81
15.36
11.47
7.47
3.75
0.59
-2.02
-4.37
-6.93
-10.16
-14.30
-19.29
-24.78
-30.30
-35.43
-39.91
-43.75
-47.16
-50.53
-54.43
-59.47
-66.16
-74.53
-83.88
-92.58
-98.25
-98.40
-91.18
-76.25
-55.02
-30.45
-6.17
14.54
29.65
38.70
42.57
42.90
41.43
39.45
37.67
36.34
35.41
34.81
34.49
34.46
34.73
35.26
35.98
36.77
37.51
38.13
38.58
38.76
38.40
37.09
34.27
29.53
22.74
14.31
5.12
-3.68
-11.06
-16.39
-19.67
-21.47
-22.60
-23.78
-25.39
-27.36
-29.32
-30.88
-31.86
-32.51
-33.41
-35.30
-38.73
-43.80
-50.10
-56.83
-63.13
-68.46
-72.84
-76.87
-81.58
-87.99
-96.70
-107.51
-119.22
-129.64
-136.01
-135.72
-127.12
-110.21
-86.78
-60.04
-33.58
-10.51
7.34
19.60
27.05
31.08
33.16
34.48
35.80
37.51
39.67
42.16
44.85
47.65
50.64
54.06
58.17
63.08
68.71
74.72
80.57
85.67
89.45
91.48
91.59
89.77
86.19
81.21
75.22
68.71
62.22
56.33
51.43
47.69
44.89
42.53
40.04
37.05
33.62
30.24
27.56
26.18
26.31
27.70
29.69
31.38
31.84
30.42
26.98
21.97
16.32
11.13
7.20
4.70
2.99
0.85
-3.15
-10.15
-20.48
-33.30
-46.46
-56.74
-60.63
-55.35
-39.97
-15.97
13.05
42.47
68.10
87.36
99.65
105.94
107.93
107.26
105.18
102.57
100.19
98.81
99.09
101.47
105.99
112.49
120.62
129.89
139.51
148.29
154.76
157.55
155.88
149.83
140.14
127.62
112.69
95.24
74.96
52.05
27.52
3.15
-19.22
-38.34
-53.98
-66.73
-77.48
-86.81
-94.81
-101.26
-106.01
-109.21
-111.29
-112.75
-113.85
-114.47
-114.29
-113.07
-110.92
-108.31
-105.94
-104.33
-103.62
-103.45
-103.16
-102.22
-100.45
-98.17
-96.07
-94.98
-95.54
-97.97
-101.93
-106.38
-109.68
-109.76
-104.66
-93.08
-75.08
-52.22
-27.26
-3.45
16.48
31.01
39.99
44.38
45.69
45.34
44.39
43.43
42.72
42.30
42.19
42.36
42.81
43.49
44.43
45.66
47.20
49.07
51.20
53.43
55.51
57.10
57.88
57.60
56.18
53.75
50.62
47.27
44.15
41.64
39.90
38.81
38.07
37.29
36.16
34.63
32.87
31.17
29.72
28.47
27.21
25.58
23.31
20.31
16.69
12.65
8.38
4.00
-0.46
-5.02
-9.63
-14.32
-19.10
-24.10
-29.49
-35.31
-41.30
-46.76
-50.65
-51.90
-49.85
-44.50
-36.62
-27.47
-18.36
-10.28
-3.72
1.26
4.82
7.15
8.37
8.62
8.11
7.17
6.24
5.82
6.34
8.03
10.89
14.69
19.01
23.43
27.59
31.26
34.16
35.91
36.05
34.16
30.17
24.40
17.53
10.27
3.09
-3.88
-10.76
-17.62
-24.29
-30.35
-35.31
-38.88
-41.13
-42.42
-43.19
-43.80
-44.40
-45.02
-45.65
-46.31
-47.09
-48.08
-49.32
-50.75
-52.27
-53.79
-55.30
-56.90
-58.83
-61.25
-64.07
-66.78
-68.46
-67.97
-64.32
-57.15
-46.97
-35.00
-22.85
-11.90
-2.97
3.84
8.88
12.64
15.41
17.26
18.13
18.04
17.21
16.02
14.84
13.98
13.65
13.96
15.09
17.27
20.66
25.28
30.87
36.86
42.50
47.09
50.07
51.19
50.44
48.00
44.11
39.07
33.21
26.94
20.76
15.28
11.04
8.40
7.42
7.84
9.14
10.74
12.11
12.85
12.73
11.69
9.88
7.56
5.06
2.69
0.56
-1.49
-3.83
-6.96
-11.29
-17.07
-24.30
-32.74
-41.89
-51.02
-59.17
-65.29
-68.52
-68.42
-65.20
-59.63
-52.86
-46.05
-40.03
-35.28
-31.95
-29.99
-29.24
-29.46
-30.29
-31.22
-31.77
-31.61
-30.69
-29.23
-27.54
-25.83
-24.06
-22.02
-19.49
-16.44
-13.13
-9.99
-7.42
-5.64
-4.75
-4.81
-5.97
-8.38
-12.03
-16.49
-20.78
-23.66
-24.08
-21.57
-16.48
-9.88
-3.07
2.87
7.41
10.62
12.83
14.33
15.18
15.09
13.71
10.82
6.56
1.38
-4.07
-9.25
-13.80
-17.69
-21.09
-24.29
-27.56
-31.03
-34.64
-38.04
-40.61
-41.49
-39.91
-35.37
-27.98
-18.52
-8.32
1.15
8.67
13.66
16.28
17.20
17.26
17.08
16.85
16.41
15.41
13.68
11.30
8.63
6.16
4.33
3.40
3.46
4.44
6.22
8.63
11.38
14.09
16.21
17.18
16.62
14.50
11.27
7.70
4.61
2.54
1.49
0.96
0.26
-1.17
-3.47
-6.27
-8.99
-11.09
-12.41
-13.18
-13.95
-15.32
-17.67
-20.98
-24.90
-28.82
-32.21
-34.73
-36.44
-37.68
-38.98
-40.79
-43.27
-46.03
-48.06
-47.85
-43.85
-34.97
-21.12
-3.42
16.04
34.76
50.61
62.37
69.92
74.05
76.00
77.07
78.29
80.32
83.40
87.43
92.09
96.91
101.46
105.51
109.00
112.11
115.05
117.95
120.70
123.04
124.69
125.54
125.76
125.78
126.20
127.44
129.56
132.03
133.72
133.06
128.41
118.48
102.86
82.24
58.33
33.39
9.60
-11.55
-29.44
-44.24
-56.50
-66.78
-75.51
-83.00
-89.59
-95.67
-101.62
-107.73
-114.21
-121.20
-128.80
-136.97
-145.26
-152.62
-157.50
-158.29
-153.85
-144.08
-130.03
-113.51
-96.48
-80.53
-66.45
-54.34
-43.84
-34.42
-25.54
-16.75
-7.78
1.40
10.51
19.03
26.36
32.18
36.55
40.05
43.46
47.43
52.20
57.50
62.68
67.00
69.93
71.21
70.93
69.33
66.74
63.53
60.07
56.70
53.69
51.19
49.16
47.31
45.29
42.71
39.43
35.57
31.52
27.74
24.60
22.13
20.10
18.08
15.67
12.71
9.29
5.70
2.31
-0.61
-2.91
-4.61
-5.84
-6.87
-8.09
-9.92
-12.65
-16.18
-19.93
-22.74
-23.20
-20.10
-12.94
-2.11
11.09
24.94
37.80
48.48
56.48
61.81
64.81
65.91
65.55
64.09
61.82
58.89
55.30
50.94
45.73
39.78
33.43
27.21
21.59
16.79
12.74
9.11
5.53
1.76
-2.25
-6.44
-10.77
-15.27
-19.97
-24.82
-29.55
-33.77
-37.09
-39.29
-40.43
-40.74
-40.51
-39.95
-39.13
-38.11
-37.01
-35.98
-35.17
-34.67
-34.41
-34.29
-34.23
-34.24
-34.42
-34.83
-35.41
-35.95
-36.22
-36.00
-35.27
-34.14
-32.90
-31.85
-31.23
-31.12
-31.34
-31.44
-30.86
-29.06
-25.66
-20.58
-14.03
-6.41
1.70
9.63
16.57
21.60
23.88
22.85
18.47
11.34
2.53
-6.72
-15.42
-23.04
-29.47
-34.85
-39.27
-42.68
-44.90
-45.77
-45.29
-43.63
-41.12
-38.06
-34.68
-31.13
-27.53
-23.97
-20.60
-17.56
-14.98
-12.94
-11.45
-10.40
-9.62
-8.92
-8.18
-7.42
-6.75
-6.36
-6.36
-6.74
-7.32
-7.90
-8.31
-8.54
-8.75
-9.18
-10.05
-11.44
-13.27
-15.30
-17.28
-19.04
-20.63
-22.26
-24.35
-27.25
-31.14
-35.82
-40.64
-44.58
-46.44
-45.18
-40.28
-31.92
-21.00
-8.84
3.09
13.67
22.28
28.77
33.33
36.28
37.88
38.33
37.84
36.65
35.11
33.66
32.63
32.26
32.56
33.33
34.27
35.11
35.66
35.93
35.97
35.82
35.45
34.71
33.53
31.93
30.08
28.14
26.11
23.80
20.86
17.10
12.53
7.48
2.45
-2.18
-6.25
-9.83
-13.06
-16.03
-18.60
-20.61
-21.97
-22.80
-23.44
-24.32
-25.81
-27.96
-30.59
-33.32
-35.72
-37.48
-38.51
-39.01
-39.50
-40.63
-43.07
-47.18
-52.66
-58.46
-62.91
-64.19
-60.93
-52.80
-40.63
-26.14
-11.39
1.87
12.56
20.38
25.59
28.67
30.20
30.67
30.53
30.17
29.90
29.86
30.05
30.30
30.49
30.62
30.85
31.43
32.56
34.24
36.25
38.19
39.66
40.34
40.07
38.86
36.81
34.11
30.95
27.54
24.11
20.83
17.84
15.10
12.46
9.74
6.83
3.79
0.83
-1.76
-3.76
-5.17
-6.20
-7.21
-8.57
-10.50
-12.99
-15.84
-18.75
-21.44
-23.79
-25.82
-27.73
-29.81
-32.42
-35.84
-40.30
-45.68
-51.51
-56.80
-60.23
-60.48
-56.71
-48.91
-37.98
-25.49
-13.16
-2.44
5.88
11.66
15.19
17.05
17.85
18.18
18.55
19.25
20.38
21.76
23.12
24.19
24.86
25.21
25.51
26.08
27.16
28.83
30.97
33.23
35.13
36.17
35.96
34.40
31.67
28.17
24.42
20.82
17.60
14.75
12.13
9.54
6.90
4.22
1.62
-0.81
-3.02
-5.13
-7.37
-9.98
-13.14
-16.77
-20.62
-24.32
-27.57
-30.23
-32.49
-34.69
-37.32
-40.83
-45.46
-51.18
-57.50
-63.43
-67.66
-68.77
-65.68
-58.03
-46.30
-31.81
-16.32
-1.57
11.07
20.83
27.49
31.31
32.86
32.84
31.97
30.78
29.67
28.81
28.29
28.08
28.24
28.81
29.89
31.54
33.71
36.18
38.54
40.26
40.84
39.88
37.31
33.37
28.55
23.39
18.43
13.94
10.06
6.65
3.52
0.36
-3.04
-6.83
-10.94
-15.15
-19.10
-22.49
-25.14
-27.16
-28.92
-30.91
-33.53
-36.93
-40.95
-45.21
-49.34
-53.21
-57.02
-61.29
-66.56
-73.10
-80.51
-87.63
-92.75
-94.04
-90.16
-80.76
-66.58
-49.18
-30.46
-12.15
4.53
18.83
30.44
39.26
45.45
49.44
51.90
53.64
55.36
57.55
60.33
63.69
67.43
71.40
75.45
79.34
82.89
85.87
88.15
89.79
90.94
91.77
92.28
92.30
91.53
89.66
86.50
81.96
76.10
68.98
60.68
51.21
40.69
29.33
17.54
5.85
-5.23
-15.35
-24.48
-32.84
-40.76
-48.53
-56.22
-63.72
-70.71
-76.90
-82.08
-86.18
-89.31
-91.75
-93.99
-96.61
-100.13
-104.71
-109.85
-114.33
-116.35
-113.98
-105.79
-91.33
-71.38
-47.88
-23.46
-0.81
17.99
31.93
41.16
46.75
50.15
52.68
55.08
57.53
59.85
61.82
63.41
64.88
66.53
68.61
71.16
74.10
77.30
80.65
84.11
87.59
90.89
93.69
95.64
96.42
95.90
94.18
91.61
88.59
85.37
81.89
77.72
72.29
65.23
56.61
47.00
37.30
28.31
20.44
13.67
7.65
2.01
-3.47
-8.82
-13.91
-18.59
-22.67
-25.98
-28.43
-30.02
-30.91
-31.50
-32.25
-33.58
-35.67
-38.34
-40.99
-42.66
-42.22
-38.78
-32.04
-22.53
-11.65
-1.18
7.26
12.77
15.33
15.74
15.11
14.44
14.25
14.51
14.82
14.61
13.45
11.12
7.68
3.37
-1.49
-6.56
-11.52
-16.07
-19.88
-22.73
-24.51
-25.37
-25.69
-25.93
-26.53
-27.67
-29.30
-31.09
-32.65
-33.63
-33.88
-33.49
-32.79
-32.12
-31.77
-31.85
-32.24
-32.72
-33.05
-33.15
-33.06
-33.00
-33.19
-33.78
-34.89
-36.54
-38.73
-41.31
-43.93
-45.99
-46.60
-44.86
-40.17
-32.49
-22.52
-11.57
-1.12
7.58
13.88
17.78
19.72
20.25
19.77
18.54
16.71
14.51
12.32
10.59
9.61
9.47
10.01
10.92
11.84
12.54
12.91
12.95
12.64
11.89
10.57
8.55
5.86
2.80
-0.12
-2.29
-3.30
-3.08
-1.94
-0.42
0.87
1.47
1.15
-0.12
-2.21
-4.96
-8.17
-11.66
-15.27
-19.00
-22.92
-27.20
-31.94
-36.86
-41.36
-44.46
-45.06
-42.40
-36.30
-27.40
-16.98
-6.66
2.15
8.53
12.32
13.88
13.94
13.25
12.44
11.88
11.73
12.04
12.75
13.80
15.19
16.95
19.08
21.56
24.25
26.89
29.17
30.74
31.37
30.92
29.32
26.67
23.11
18.88
14.31
9.78
5.70
2.36
-0.11
-1.74
-2.65
-2.97
-2.76
-1.99
-0.63
1.26
3.54
6.00
8.44
10.69
12.51
13.63
13.68
12.36
9.63
5.84
1.61
-2.33
-5.43
-7.34
-7.83
-6.70
-3.75
0.90
6.68
12.44
16.84
18.89
18.39
16.07
13.24
11.07
10.06
9.87
9.61
8.36
5.61
1.47
-3.48
-8.49
-12.84
-16.06
-17.95
-18.57
-18.21
-17.24
-16.05
-14.92
-13.99
-13.33
-13.02
-13.19
-13.93
-15.21
-16.78
-18.27
-19.34
-19.90
-20.11
-20.39
-21.11
-22.46
-24.34
-26.49
-28.69
-30.90
-33.19
-35.70
-38.51
-41.56
-44.71
-47.86
-50.95
-54.04
-57.24
-60.66
-64.37
-68.37
-72.59
-76.83
-80.85
-84.50
-87.87
-91.37
-95.46
-100.30
-105.39
-109.47
-110.79
-107.75
-99.46
-86.01
-68.44
-48.34
-27.39
-7.18
11.01
26.21
37.92
46.19
51.62
55.14
57.70
59.93
62.03
63.94
65.54
66.89
68.22
69.85
71.97
74.53
77.24
79.69
81.47
82.33
82.15
80.92
78.68
75.51
71.51
66.86
61.82
56.75
52.02
47.91
44.46
41.48
38.59
35.36
31.49
26.96
22.05
17.22
12.92
9.43
6.68
4.29
1.75
-1.39
-5.36
-10.00
-14.90
-19.63
-23.84
-27.46
-30.72
-34.09
-38.18
-43.52
-50.29
-58.08
-65.75
-71.64
-73.88
-71.02
-62.48
-48.78
-31.45
-12.60
5.54
21.08
32.83
40.34
44.00
44.78
43.89
42.45
41.14
40.14
39.23
38.19
36.99
35.87
35.29
35.60
36.96
39.19
41.86
44.47
46.56
47.75
47.84
46.73
44.46
41.21
37.23
32.88
28.52
24.42
20.71
17.36
14.24
11.16
7.99
4.70
1.28
-2.17
-5.57
-8.85
-12.00
-15.07
-18.18
-21.43
-24.85
-28.35
-31.85
-35.32
-38.95
-43.09
-48.24
-54.66
-62.09
-69.64
-75.80
-78.83
-77.24
-70.32
-58.26
-42.17
-23.86
-5.39
11.32
24.82
34.36
39.96
42.31
42.48
41.60
40.55
39.74
39.23
38.81
38.37
37.91
37.66
37.86
38.71
40.19
42.07
43.92
45.33
45.96
45.68
44.51
42.52
39.79
36.36
32.33
27.91
23.42
19.26
15.65
12.58
9.81
6.97
3.80
0.28
-3.34
-6.76
-9.78
-12.41
-14.88
-17.53
-20.57
-24.05
-27.79
-31.47
-34.79
-37.59
-39.97
-42.20
-44.77
-48.18
-52.78
-58.61
-65.16
-71.30
-75.39
-75.71
-70.88
-60.40
-44.81
-25.69
-5.16
14.62
31.97
45.96
56.38
63.50
67.82
69.90
70.31
69.62
68.48
67.54
67.42
68.55
71.12
75.01
79.87
85.25
90.62
95.50
99.43
102.00
102.82
101.57
98.01
92.15
84.24
74.77
64.40
53.74
43.33
33.50
24.40
16.04
8.38
1.29
-5.33
-11.53
-17.29
-22.42
-26.75
-30.21
-32.93
-35.30
-37.83
-40.94
-44.85
-49.48
-54.48
-59.34
-63.55
-66.71
-68.64
-69.51
-69.81
-70.29
-71.70
-74.58
-78.98
-84.29
-89.32
-92.56
-92.58
-88.52
-80.40
-69.20
-56.56
-44.30
-33.86
-25.97
-20.56
-17.05
-14.69
-12.89
-11.30
-9.80
-8.37
-6.92
-5.35
-3.52
-1.37
1.08
3.74
6.52
9.37
12.25
15.14
17.89
20.24
21.83
22.36
21.66
19.88
17.41
14.79
12.47
10.71
9.46
8.46
7.38
5.94
4.11
2.05
0.06
-1.54
-2.51
-2.72
-2.11
-0.74
1.22
3.48
5.62
7.16
7.72
7.10
5.31
2.45
-1.25
-5.58
-10.22
-14.75
-18.64
-21.30
-22.25
-21.12
-17.77
-12.30
-5.12
3.03
11.06
17.84
22.52
24.89
25.47
25.24
25.10
25.49
26.25
26.80
26.66
25.70
24.16
22.46
20.90
19.45
17.92
16.09
13.95
11.74
9.77
8.16
6.73
5.05
2.69
-0.54
-4.44
-8.51
-12.18
-15.07
-17.18
-18.74
-20.11
-21.51
-22.93
-24.23
-25.21
-25.79
-25.99
-25.93
-25.78
-25.72
-25.89
-26.45
-27.44
-28.80
-30.33
-31.77
-32.93
-33.84
-34.75
-36.11
-38.33
-41.48
-45.20
-48.64
-50.71
-50.41
-47.20
-41.31
-33.74
-25.98
-19.60
-15.72
-14.65
-15.83
-18.03
-19.81
-20.12
-18.54
-15.39
-11.39
-7.21
-3.14
0.96
5.57
11.08
17.54
24.53
31.32
37.14
41.43
44.03
45.12
45.07
44.27
43.02
41.42
39.56
37.57
35.73
34.38
33.89
34.48
36.32
39.51
44.11
49.94
56.36
62.26
66.18
66.84
63.59
56.65
47.01
36.05
24.96
14.45
4.76
-4.18
-12.40
-19.83
-26.25
-31.33
-34.91
-36.95
-37.65
-37.34
-36.34
-34.87
-33.02
-30.80
-28.35
-26.01
-24.26
-23.48
-23.79
-24.86
-26.11
-26.91
-26.90
-26.05
-24.62
-22.87
-20.90
-18.63
-15.86
-12.45
-8.54
-4.50
-0.79
2.12
3.94
4.58
4.16
2.95
1.30
-0.42
-1.90
-2.96
-3.55
-3.77
-3.84
-3.99
-4.51
-5.60
-7.47
-10.17
-13.60
-17.44
-21.17
-24.20
-26.02
-26.40
-25.42
-23.54
-21.42
-19.75
-19.18
-20.06
-22.42
-25.87
-29.64
-32.63
-33.63
-31.70
-26.45
-18.33
-8.55
1.22
9.39
14.91
17.54
17.72
16.39
14.49
12.74
11.52
10.94
11.01
11.66
12.87
14.61
16.82
19.35
21.95
24.24
25.92
26.76
26.78
26.20
25.31
24.32
23.27
22.01
20.33
18.12
15.44
12.53
9.69
7.09
4.78
2.61
0.41
-1.92
-4.35
-6.71
-8.84
-10.64
-12.28
-14.05
-16.27
-19.12
-22.46
-25.91
-28.96
-31.28
-32.89
-34.22
-35.98
-38.85
-43.27
-49.14
-55.79
-62.03
-66.37
-67.40
-64.19
-56.55
-45.20
-31.49
-17.05
-3.36
8.57
18.27
25.69
31.00
34.47
36.41
37.18
37.27
37.14
37.16
37.44
37.96
38.56
39.17
39.89
40.91
42.38
44.24
46.19
47.71
48.36
47.88
46.30
43.84
40.73
37.17
33.16
28.70
23.88
18.95
14.28
10.18
6.85
4.21
2.03
-0.00
-2.11
-4.41
-6.93
-9.70
-12.76
-16.13
-19.71
-23.31
-26.72
-29.77
-32.53
-35.29
-38.56
-42.79
-48.17
-54.37
-60.46
-65.05
-66.59
-63.84
-56.32
-44.42
-29.39
-12.99
2.96
16.99
28.14
36.02
40.75
42.75
42.70
41.36
39.44
37.54
35.98
34.90
34.29
34.09
34.28
34.86
35.88
37.31
39.04
40.80
42.19
42.79
42.24
40.47
37.64
34.15
30.44
26.85
23.50
20.25
16.88
13.15
8.97
4.45
-0.18
-4.57
-8.44
-11.68
-14.37
-16.74
-19.10
-21.71
-24.62
-27.78
-31.04
-34.25
-37.34
-40.41
-43.65
-47.34
-51.80
-57.31
-63.91
-71.15
-78.01
-82.93
-84.20
-80.45
-71.10
-56.65
-38.57
-19.00
-0.18
16.05
28.50
36.87
41.59
43.57
43.91
43.57
43.28
43.40
44.02
45.03
46.27
47.56
48.79
49.93
51.01
52.07
53.08
53.95
54.54
54.63
54.04
52.60
50.20
46.85
42.66
37.88
32.89
28.11
23.89
20.39
17.47
14.72
11.67
7.95
3.57
-1.11
-5.50
-9.11
-11.83
-14.00
-16.29
-19.28
-23.25
-27.97
-32.89
-37.45
-41.34
-44.66
-47.82
-51.35
-55.75
-61.33
-68.07
-75.47
-82.49
-87.55
-88.88
-84.98
-75.21
-60.11
-41.43
-21.59
-3.03
12.42
23.88
31.39
35.62
37.48
37.88
37.53
36.93
36.35
35.91
35.63
35.50
35.56
35.91
36.65
37.89
39.58
41.56
43.53
45.13
45.99
45.79
44.36
41.64
37.71
32.85
27.39
21.73
16.23
11.06
6.22
1.49
-3.44
-8.77
-14.52
-20.43
-26.08
-31.13
-35.51
-39.58
-44.08
-49.85
-57.47
-66.96
-77.68
-88.44
-97.92
-105.02
-109.28
-110.95
-110.86
-110.04
-109.24
-108.59
-107.39
-104.34
-97.98
-87.15
-71.52
-51.66
-28.99
-5.41
17.09
36.87
52.84
64.56
72.19
76.39
78.01
77.92
76.80
75.13
73.16
71.06
69.01
67.18
65.67
64.52
63.69
63.07
62.48
61.72
60.46
58.24
54.50
48.60
40.06
28.61
14.46
-1.69
-18.62
-34.74
-48.27
-57.61
-61.75
-60.47
-54.51
-45.24
-34.28
-23.02
-12.40
-2.96
4.93
10.81
14.12
14.31
11.22
5.30
-2.43
-10.65
-18.18
-24.35
-29.15
-33.10
-37.11
-42.11
-48.76
-57.21
-66.85
-76.29
-83.49
-86.17
-82.40
-71.22
-53.14
-30.10
-5.07
18.74
38.73
53.48
62.86
67.65
69.09
68.33
66.23
63.38
60.24
57.27
54.91
53.47
53.03
53.48
54.57
56.06
57.76
59.52
61.19
62.56
63.37
63.34
62.24
59.93
56.36
51.65
45.98
39.68
33.13
26.71
20.77
15.52
10.96
6.87
2.85
-1.54
-6.51
-12.05
-17.82
-23.37
-28.29
-32.44
-36.00
-39.37
-43.08
-47.64
-53.37
-60.40
-68.40
-76.46
-82.98
-85.97
-83.47
-74.39
-58.91
-38.72
-16.53
4.68
22.51
35.64
43.93
48.10
49.29
48.60
46.95
44.97
43.11
41.70
40.93
40.95
41.83
43.59
46.23
49.71
53.90
58.59
63.40
67.83
71.27
73.16
73.14
71.16
67.62
63.22
58.78
54.96
52.03
49.84
47.90
45.77
43.22
40.47
38.11
36.79
36.88
38.23
40.14
41.51
41.35
39.11
35.05
30.27
26.74
27.00
33.47
47.66
69.23
95.56
122.09
143.56
155.62
156.23
146.01
127.58
104.16
78.36
51.54
24.20
-3.22
-29.64
-53.28
-72.13
-84.75
-90.67
-90.45
-85.31
-76.70
-65.95
-54.24
-42.66
-32.27
-24.07
-18.81
-16.78
-17.79
-21.23
-26.26
-32.08
-38.16
-44.28
-50.57
-57.40
-65.18
-74.15
-84.22
-94.93
-105.51
-115.07
-122.81
-128.23
-131.15
-131.62
-129.73
-125.40
-118.51
-108.89
-96.69
-82.50
-67.35
-52.56
-39.26
-28.13
-19.32
-12.50
-7.25
-3.31
-0.63
0.77
0.93
0.23
-0.65
-0.89
0.22
3.05
7.53
13.15
19.12
24.53
28.60
30.90
31.39
30.42
28.46
25.96
23.12
19.94
16.33
12.32
8.12
4.13
0.73
-1.90
-3.87
-5.53
-7.40
-9.97
-13.59
-18.42
-24.25
-30.48
-36.04
-39.44
-39.16
-34.10
-24.07
-10.03
6.11
22.03
35.64
45.64
51.63
53.95
53.32
50.49
46.15
40.83
35.04
29.21
23.74
19.01
15.35
13.05
12.28
12.93
14.49
16.22
17.34
17.38
16.36
14.61
12.65
10.75
8.88
6.81
4.37
1.67
-0.88
-2.80
-3.82
-4.06
-3.93
-3.97
-4.57
-5.84
-7.63
-9.65
-11.58
-13.13
-14.08
-14.37
-14.12
-13.81
-14.02
-15.30
-17.78
-21.09
-24.50
-27.27
-28.98
-29.72
-29.94
-30.27
-31.21
-33.16
-36.45
-41.32
-47.72
-55.00
-61.75
-65.95
-65.67
-59.74
-48.48
-33.66
-17.95
-4.00
6.41
12.71
15.41
15.58
14.37
12.61
10.84
9.36
8.37
8.00
8.30
9.18
10.43
11.72
12.71
13.12
12.85
12.08
11.12
10.39
10.10
10.14
10.05
9.24
7.31
4.25
0.50
-3.24
-6.26
-8.14
-8.77
-8.31
-7.04
-5.20
-2.90
-0.17
2.89
6.13
9.28
12.10
14.48
16.47
18.34
20.33
22.56
24.98
27.35
29.34
30.60
30.77
29.57
26.77
22.23
15.99
8.31
-0.18
-8.62
-15.94
-21.01
-22.97
-21.41
-16.62
-9.58
-1.75
5.28
10.17
12.13
10.99
7.19
1.58
-4.82
-11.01
-16.22
-20.06
-22.57
-24.08
-25.10
-26.03
-27.02
-27.92
-28.47
-28.40
-27.60
-26.17
-24.34
-22.40
-20.66
-19.35
-18.64
-18.63
-19.28
-20.42
-21.80
-23.11
-24.15
-24.82
-25.20
-25.45
-25.73
-26.10
-26.51
-26.87
-27.06
-27.10
-27.12
-27.36
-28.09
-29.51
-31.68
-34.53
-37.86
-41.43
-45.00
-48.41
-51.70
-55.18
-59.34
-64.66
-71.27
-78.58
-85.23
-89.31
-89.06
-83.43
-72.44
-57.11
-39.02
-19.85
-1.02
16.33
31.36
43.52
52.60
58.91
63.18
66.34
69.14
71.97
74.76
77.22
79.19
80.83
82.54
84.86
88.15
92.44
97.36
102.28
106.50
109.49
110.98
110.95
109.52
106.85
103.03
98.23
92.70
86.83
80.99
75.36
69.83
64.07
57.75
50.85
43.72
37.01
31.24
26.63
23.00
19.93
17.06
14.20
11.30
8.26
4.89
0.90
-3.86
-9.32
-15.15
-20.90
-26.19
-30.83
-34.80
-38.02
-40.31
-41.35
-40.96
-39.22
-36.61
-33.83
-31.47
-29.69
-28.13
-26.15
-23.17
-19.11
-14.39
-9.71
-5.70
-2.59
-0.37
1.02
1.34
0.08
-3.22
-8.52
-15.05
-21.47
-26.39
-29.03
-29.46
-28.51
-27.24
-26.50
-26.52
-27.00
-27.42
-27.32
-26.63
-25.53
-24.35
-23.26
-22.29
-21.34
-20.35
-19.42
-18.77
-18.58
-18.87
-19.38
-19.72
-19.53
-18.69
-17.35
-15.98
-15.11
-15.20
-16.42
-18.55
-21.04
-23.20
-24.43
-24.50
-23.75
-22.89
-22.87
-24.27
-27.12
-30.73
-33.83
-35.12
-33.58
-28.95
-21.68
-12.72
-3.19
5.92
13.87
20.19
24.66
27.26
28.24
28.16
27.68
27.36
27.37
27.46
27.10
25.89
23.86
21.56
19.77
19.06
19.46
20.46
21.22
21.05
19.59
16.96
13.57
9.91
6.39
3.22
0.52
-1.71
-3.46
-4.73
-5.47
-5.67
-5.34
-4.58
-3.53
-2.37
-1.16
0.11
1.47
2.81
3.81
3.96
2.80
0.18
-3.59
-7.88
-11.95
-15.26
-17.59
-19.04
-19.80
-20.02
-19.70
-18.75
-17.09
-14.79
-12.05
-9.18
-6.50
-4.19
-2.36
-0.97
0.01
0.61
0.83
0.63
0.05
-0.76
-1.55
-2.15
-2.47
-2.61
-2.76
-2.99
-3.20
-3.10
-2.39
-1.06
0.56
1.92
2.47
2.03
0.94
-0.08
-0.18
1.21
4.28
8.77
14.10
19.50
24.16
27.33
28.47
27.37
24.21
19.51
13.98
8.30
2.99
-1.67
-5.56
-8.70
-11.17
-13.10
-14.66
-16.01
-17.18
-18.12
-18.66
-18.73
-18.39
-17.86
-17.47
-17.46
-17.89
-18.57
-19.16
-19.20
-18.33
-16.39
-13.45
-9.89
-6.17
-2.73
0.13
2.29
3.77
4.64
4.97
4.86
4.46
4.04
3.82
3.93
4.31
4.72
4.91
4.74
4.25
3.67
3.23
3.06
3.16
3.44
3.73
3.93
3.94
3.74
3.34
2.83
2.31
1.93
1.82
2.05
2.60
3.31
3.95
4.33
4.33
3.95
3.31
2.61
1.97
1.46
1.04
0.67
0.25
-0.22
-0.76
-1.33
-1.91
-2.47
-3.01
-3.49
-3.94
-4.36
-4.83
-5.35
-5.96
-6.71
-7.66
-8.86
-10.26
-11.69
-12.83
-13.35
-13.01
-11.83
-10.14
-8.49
-7.49
-7.56
-8.84
-11.04
-13.66
-16.12
-17.94
-18.84
-18.74
-17.80
-16.25
-14.41
-12.49
-10.67
-8.98
-7.36
-5.71
-3.97
-2.09
-0.13
1.82
3.72
5.52
7.23
8.77
10.03
10.83
10.99
10.45
9.31
7.79
6.19
4.78
3.68
2.83
2.10
1.36
0.56
-0.26
-1.04
-1.68
-2.16
-2.47
-2.66
-2.86
-3.24
-3.98
-5.19
-6.79
-8.56
-10.18
-11.48
-12.56
-13.81
-15.71
-18.50
-21.94
-25.32
-27.64
-27.86
-25.20
-19.28
-10.26
1.20
13.86
26.23
36.85
44.71
49.55
51.86
52.58
52.66
52.63
52.52
51.97
50.52
47.86
44.03
39.50
35.08
31.71
30.20
30.80
33.13
36.27
39.06
40.56
40.29
38.19
34.46
29.28
22.78
15.16
6.77
-1.80
-9.95
-17.15
-23.17
-28.01
-31.80
-34.68
-36.80
-38.29
-39.24
-39.73
-39.74
-39.29
-38.48
-37.65
-37.27
-37.78
-39.34
-41.62
-44.00
-45.70
-46.16
-45.29
-43.52
-41.48
-39.80
-38.62
-37.42
-35.20
-30.73
-23.22
-12.73
-0.33
12.30
23.43
31.94
37.57
40.75
42.13
42.15
40.82
37.94
33.49
27.82
21.72
16.12
11.76
8.93
7.51
7.10
7.37
8.07
9.15
10.61
12.32
13.96
15.08
15.28
14.43
12.71
10.61
8.75
7.58
7.27
7.62
8.15
8.38
7.95
6.83
5.25
3.52
1.90
0.46
-0.95
-2.55
-4.48
-6.69
-8.89
-10.71
-11.85
-12.29
-12.35
-12.68
-14.00
-16.93
-21.71
-28.03
-35.09
-41.64
-46.28
-47.67
-44.91
-37.77
-26.82
-13.32
1.03
14.56
26.00
34.68
40.51
43.79
44.99
44.57
42.93
40.50
37.69
34.91
32.52
30.73
29.52
28.71
28.01
27.08
25.80
24.19
22.49
20.95
19.69
18.59
17.26
15.22
12.02
7.48
1.60
-5.39
-13.17
-21.25
-28.99
-35.66
-40.51
-43.10
-43.41
-41.92
-39.44
-36.82
-34.60
-32.95
-31.68
-30.47
-29.08
-27.43
-25.68
-24.08
-22.99
-22.75
-23.69
-25.95
-29.35
-33.25
-36.51
-37.75
-35.68
-29.55
-19.41
-6.26
8.24
22.09
33.47
41.13
44.68
44.63
42.11
38.51
34.99
32.15
30.00
28.13
26.12
23.74
21.15
18.65
16.52
14.81
13.43
12.22
11.09
10.16
9.58
9.46
9.72
10.10
10.20
9.70
8.38
6.19
3.21
-0.43
-4.50
-8.65
-12.42
-15.26
-16.65
-16.34
-14.43
-11.46
-8.19
-5.45
-3.79
-3.43
-4.22
-5.79
-7.79
-10.01
-12.48
-15.45
-19.31
-24.37
-30.65
-37.74
-44.61
-49.90
-52.12
-50.16
-43.71
-33.45
-20.85
-7.82
3.89
13.11
19.33
22.72
23.78
23.06
21.03
18.12
14.75
11.38
8.53
6.63
5.97
6.68
8.66
11.71
15.55
19.79
24.02
27.84
30.91
33.00
34.01
33.97
32.91
30.88
27.95
24.25
20.05
15.72
11.71
8.30
5.55
3.24
0.99
-1.55
-4.57
-8.02
-11.71
-15.39
-18.93
-22.31
-25.60
-28.86
-32.10
-35.36
-38.85
-42.93
-48.00
-54.19
-61.01
-67.25
-71.17
-71.00
-65.59
-54.77
-39.56
-21.75
-3.46
13.44
27.59
38.33
45.54
49.55
50.96
50.51
49.01
47.10
45.27
43.75
42.65
41.99
41.86
42.33
43.44
45.12
47.13
49.09
50.55
51.14
50.56
48.71
45.70
41.76
37.26
32.53
27.87
23.40
19.17
15.13
11.24
7.46
3.75
0.01
-3.88
-8.08
-12.67
-17.66
-22.95
-28.33
-33.53
-38.31
-42.47
-46.03
-49.21
-52.48
-56.46
-61.76
-68.66
-76.85
-85.30
-92.32
-95.89
-94.19
-86.15
-71.81
-52.44
-30.32
-8.18
11.41
26.66
36.84
42.36
44.42
44.52
43.96
43.51
43.36
43.37
43.38
43.47
43.95
45.18
47.34
50.32
53.65
56.75
59.14
60.58
61.08
60.77
59.75
57.97
55.35
51.89
47.77
43.35
39.03
35.06
31.50
28.26
25.19
22.25
19.48
16.92
14.55
12.23
9.79
7.12
4.24
1.28
-1.55
-4.09
-6.22
-7.98
-9.57
-11.33
-13.72
-17.04
-21.19
-25.58
-29.13
-30.58
-28.76
-22.96
-13.03
0.47
16.43
33.22
49.00
62.02
70.99
75.37
75.46
72.15
66.54
59.56
51.76
43.40
34.67
25.89
17.56
10.22
4.17
-0.61
-4.43
-7.73
-10.72
-13.40
-15.55
-16.96
-17.62
-17.85
-18.15
-18.94
-20.42
-22.37
-24.35
-25.82
-26.46
-26.25
-25.49
-24.64
-24.04
-23.76
-23.54
-22.91
-21.50
-19.29
-16.68
-14.41
-13.22
-13.59
-15.49
-18.48
-21.89
-25.10
-27.77
-29.85
-31.48
-32.89
-34.31
-35.99
-38.11
-40.78
-43.87
-46.85
-48.75
-48.44
-44.98
-38.07
-28.30
-17.01
-5.94
3.41
10.14
14.15
15.84
15.83
14.65
12.73
10.55
8.68
7.72
8.05
9.67
12.17
14.99
17.58
19.61
20.87
21.22
20.53
18.68
15.82
12.33
8.79
5.73
3.42
1.84
0.72
-0.27
-1.37
-2.73
-4.32
-6.09
-7.90
-9.60
-11.10
-12.41
-13.63
-14.85
-16.13
-17.39
-18.55
-19.55
-20.42
-21.26
-22.21
-23.30
-24.52
-25.87
-27.43
-29.40
-31.95
-35.01
-38.18
-40.67
-41.41
-39.39
-34.05
-25.50
-14.62
-2.91
7.97
16.58
22.18
24.70
24.72
23.07
20.58
17.82
15.13
12.71
10.69
9.30
8.70
8.97
10.02
11.61
13.37
14.93
16.00
16.40
16.15
15.33
14.15
12.74
11.24
9.65
7.89
5.91
3.65
1.18
-1.41
-3.98
-6.39
-8.52
-10.33
-11.86
-13.26
-14.75
-16.55
-18.74
-21.27
-23.85
-26.14
-27.87
-28.97
-29.69
-30.54
-32.07
-34.68
-38.37
-42.65
-46.52
-48.71
-47.96
-43.37
-34.76
-22.77
-8.79
5.32
17.71
26.98
32.49
34.48
33.77
31.44
28.48
25.52
22.84
20.51
18.56
17.01
15.93
15.31
15.14
15.35
15.93
16.93
18.35
20.10
21.95
23.54
24.49
24.52
23.56
21.74
19.28
16.47
13.55
10.72
8.07
5.59
3.23
0.86
-1.63
-4.24
-6.81
-9.10
-10.80
-11.84
-12.38
-12.81
-13.63
-15.20
-17.54
-20.31
-22.98
-25.03
-26.25
-26.86
-27.42
-28.66
-31.14
-35.04
-39.91
-44.70
-47.94
-48.11
-43.99
-35.22
-22.45
-7.36
7.80
20.87
30.36
35.85
37.88
37.49
35.79
33.55
31.16
28.82
26.77
25.28
24.62
24.81
25.55
26.40
26.91
26.90
26.55
26.19
26.13
26.44
26.92
27.16
26.76
25.42
23.16
20.18
16.87
13.63
10.76
8.42
6.50
4.85
3.31
1.82
0.53
-0.39
-0.80
-0.80
-0.62
-0.61
-0.99
-1.82
-2.87
-3.78
-4.12
-3.55
-1.75
1.48
6.08
11.63
17.12
21.12
22.27
19.81
14.07
6.37
-1.52
-8.15
-12.93
-16.14
-18.53
-20.75
-22.90
-24.59
-25.37
-25.13
-24.23
-23.25
-22.69
-22.68
-22.97
-23.16
-23.00
-22.48
-21.76
-21.02
-20.24
-19.19
-17.56
-15.09
-11.83
-8.09
-4.31
-0.99
1.63
3.45
4.54
5.06
5.13
4.86
4.33
3.67
2.97
2.36
1.87
1.38
0.74
-0.20
-1.48
-2.91
-4.21
-5.14
-5.63
-5.83
-6.06
-6.70
-7.95
-9.81
-12.04
-14.26
-16.17
-17.68
-18.93
-20.30
-22.22
-24.92
-28.32
-31.94
-34.91
-36.29
-35.21
-31.25
-24.48
-15.56
-5.56
4.24
12.66
18.91
22.66
24.17
24.04
23.03
21.80
20.76
20.04
19.54
19.12
18.67
18.23
17.90
17.81
18.05
18.60
19.41
20.34
21.26
21.99
22.34
22.05
20.88
18.70
15.59
11.89
8.07
4.66
2.01
0.26
-0.78
-1.47
-2.23
-3.37
-4.99
-6.97
-9.07
-11.10
-12.96
-14.61
-16.08
-17.33
-18.23
-18.66
-18.65
-18.41
-18.37
-19.04
-20.78
-23.63
-27.26
-30.91
-33.60
-34.30
-32.24
-27.11
-19.21
-9.43
0.94
10.57
18.39
23.78
26.69
27.44
26.52
24.50
21.83
18.90
15.96
13.32
11.19
9.78
9.20
9.46
10.47
12.04
13.90
15.78
17.38
18.48
18.95
18.76
17.94
16.57
14.72
12.41
9.70
6.66
3.50
0.46
-2.17
-4.25
-5.75
-6.91
-8.06
-9.51
-11.34
-13.43
-15.51
-17.26
-18.48
-19.22
-19.64
-19.96
-20.39
-21.11
-22.32
-24.28
-27.14
-30.76
-34.48
-37.17
-37.50
-34.45
-27.77
-18.11
-6.80
4.52
14.49
22.28
27.71
31.04
32.71
33.10
32.42
30.81
28.43
25.58
22.64
20.04
18.11
16.97
16.55
16.61
16.85
17.00
16.85
16.27
15.23
13.76
11.98
10.07
8.16
6.33
4.55
2.69
0.61
-1.76
-4.37
-7.02
-9.46
-11.47
-12.97
-14.01
-14.83
-15.62
-16.53
-17.64
-18.95
-20.45
-22.11
-23.88
-25.66
-27.32
-28.72
-29.82
-30.64
-31.29
-31.82
-32.10
-31.69
-29.92
-25.98
-19.34
-10.04
1.19
12.98
23.83
32.52
38.58
42.29
44.46
45.90
46.96
47.52
47.07
45.26
42.16
38.33
34.54
31.36
28.93
26.90
24.76
22.12
18.98
15.59
12.35
9.47
6.91
4.41
1.69
-1.37
-4.67
-7.98
-11.04
-13.64
-15.72
-17.31
-18.49
-19.28
-19.67
-19.70
-19.44
-19.08
-18.85
-19.01
-19.70
-20.87
-22.32
-23.71
-24.70
-25.12
-25.03
-24.85
-25.17
-26.53
-29.13
-32.58
-35.93
-37.84
-37.04
-32.72
-24.83
-14.13
-1.96
10.14
20.79
29.10
34.71
37.78
38.68
37.79
35.43
31.98
27.96
24.11
21.25
19.92
20.17
21.44
22.81
23.41
22.74
20.89
18.38
15.94
14.24
13.79
14.76
16.96
19.86
22.62
24.23
23.90
21.28
16.62
10.73
4.59
-0.85
-5.02
-7.89
-9.83
-11.40
-13.10
-15.14
-17.38
-19.53
-21.28
-22.52
-23.31
-23.81
-24.15
-24.40
-24.69
-25.23
-26.29
-28.02
-30.21
-32.23
-33.11
-31.93
-28.23
-22.22
-14.77
-7.10
-0.37
4.67
7.81
9.33
9.74
9.58
9.14
8.58
7.92
7.23
6.68
6.47
6.77
7.52
8.47
9.35
9.93
10.21
10.33
10.46
10.67
10.89
10.94
10.62
9.85
8.71
7.36
6.06
5.04
4.43
4.30
4.58
5.21
6.18
7.54
9.39
11.69
14.24
16.57
18.23
18.93
18.68
17.78
16.64
15.59
14.77
14.09
13.22
11.86
9.75
6.88
3.57
0.39
-2.06
-3.28
-3.24
-2.26
-0.84
0.56
1.76
2.82
3.89
5.19
7.06
10.01
14.48
20.51
27.27
33.15
36.26
35.33
30.21
22.02
12.49
3.02
-5.80
-14.21
-22.60
-30.98
-38.74
-45.05
-49.37
-51.76
-52.78
-53.00
-52.62
-51.50
-49.34
-46.13
-42.39
-39.00
-36.82
-36.32
-37.31
-39.19
-41.13
-42.53
-43.13
-43.05
-42.63
-42.32
-42.51
-43.48
-45.37
-48.06
-51.15
-53.96
-55.72
-55.82
-53.99
-50.50
-45.92
-40.89
-35.73
-30.39
-24.44
-17.42
-9.07
0.47
10.59
20.41
28.94
35.32
39.08
40.28
39.46
37.65
36.01
35.56
36.80
39.59
43.15
46.29
47.81
46.80
42.95
36.59
28.60
20.08
11.95
4.75
-1.56
-7.43
-13.52
-20.27
-27.84
-35.92
-43.86
-50.90
-56.36
-59.75
-60.91
-59.94
-57.25
-53.56
-49.84
-47.12
-46.31
-47.87
-51.63
-56.90
-62.78
-68.54
-74.00
-79.42
-85.13
-91.03
-96.23
-99.21
-98.33
-92.54
-81.66
-66.41
-48.00
-27.65
-6.42
14.75
34.85
52.80
67.65
78.96
86.90
92.18
95.60
97.67
98.42
97.63
95.22
91.59
87.65
84.55
83.21
84.01
86.61
90.15
93.65
96.32
97.74
97.87
96.89
95.03
92.42
89.19
85.53
81.77
78.34
75.56
73.53
71.92
70.04
67.11
62.49
56.03
48.04
39.20
30.29
21.92
14.50
8.31
3.56
0.41
-1.13
-1.44
-1.27
-1.61
-3.29
-6.67
-11.47
-16.92
-22.13
-26.29
-28.86
-29.45
-27.79
-23.80
-17.73
-10.34
-2.78
3.67
8.07
10.11
10.12
8.84
7.00
5.11
3.34
1.67
0.14
-1.09
-1.65
-1.20
0.49
3.34
7.07
11.24
15.49
19.54
23.23
26.36
28.70
29.99
30.08
29.00
27.00
24.50
21.82
19.16
16.55
13.92
11.23
8.55
6.01
3.76
1.86
0.28
-1.03
-2.15
-3.12
-3.96
-4.64
-5.15
-5.47
-5.59
-5.52
-5.31
-5.07
-5.01
-5.38
-6.30
-7.61
-8.76
-8.86
-7.05
-2.78
3.89
12.24
21.17
29.51
36.39
41.46
44.87
47.10
48.68
49.91
50.65
50.38
48.36
43.98
37.08
28.08
17.82
7.20
-3.08
-12.66
-21.31
-28.75
-34.57
-38.36
-39.97
-39.70
-38.29
-36.55
-35.16
-34.36
-34.05
-33.98
-33.96
-33.90
-33.85
-33.83
-33.81
-33.67
-33.36
-32.84
-32.21
-31.70
-31.51
-31.85
-32.75
-34.13
-35.76
-37.39
-38.79
-39.88
-40.74
-41.57
-42.61
-44.02
-45.76
-47.62
-49.17
-49.86
-49.09
-46.39
-41.50
-34.53
-25.97
-16.52
-7.02
1.79
9.38
15.46
20.03
23.33
25.60
27.10
28.03
28.41
28.24
27.47
26.08
24.15
21.76
18.96
15.69
11.91
7.73
3.50
-0.22
-2.84
-4.02
-3.83
-2.70
-1.31
-0.22
0.17
-0.24
-1.40
-3.24
-5.67
-8.55
-11.63
-14.57
-17.04
-18.85
-20.03
-20.77
-21.29
-21.78
-22.33
-22.96
-23.67
-24.57
-25.82
-27.70
-30.45
-34.17
-38.67
-43.30
-46.95
-48.11
-45.27
-37.39
-24.40
-7.36
11.62
29.96
45.34
56.12
61.68
62.22
58.50
51.51
42.33
32.09
21.90
12.81
5.56
0.49
-2.54
-3.97
-4.35
-4.13
-3.60
-2.96
-2.36
-2.08
-2.36
-3.34
-4.96
-6.92
-8.79
-10.21
-11.05
-11.41
-11.61
-11.96
-12.62
-13.54
-14.50
-15.29
-15.78
-16.01
-16.05
-15.95
-15.69
-15.22
-14.55
-13.85
-13.35
-13.30
-13.79
-14.61
-15.44
-15.98
-16.27
-16.72
-17.94
-20.24
-23.22
-25.54
-25.24
-20.39
-9.90
6.02
25.80
47.10
67.57
85.33
99.11
108.06
111.52
109.25
101.89
91.35
80.67
73.13
70.88
74.02
80.33
86.29
88.50
85.06
75.93
62.64
47.25
31.52
16.42
2.30
-10.80
-22.65
-32.75
-40.35
-44.80
-45.86
-43.90
-39.80
-34.72
-29.76
-25.77
-23.23
-22.37
-23.23
-25.75
-29.62
-34.24
-38.82
-42.64
-45.34
-46.89
-47.48
-47.25
-46.18
-44.19
-41.38
-38.25
-35.53
-33.88
-33.55
-34.17
-34.97
-35.08
-33.97
-31.55
-28.18
-24.34
-20.45
-16.72
-13.23
-9.98
-7.02
-4.46
-2.42
-0.95
-0.01
0.52
0.83
1.11
1.45
1.79
2.03
2.11
2.19
2.73
4.45
7.96
13.30
19.70
25.72
29.84
31.18
29.98
27.47
25.16
24.05
24.14
24.56
24.12
22.05
18.41
13.85
9.26
5.19
1.75
-1.37
-4.52
-7.83
-11.12
-13.94
-15.83
-16.54
-16.25
-15.52
-15.04
-15.30
-16.35
-17.80
-19.00
-19.53
-19.34
-18.85
-18.63
-19.14
-20.49
-22.38
-24.20
-25.24
-24.91
-22.81
-18.88
-13.38
-6.86
-0.04
6.38
11.79
15.87
18.51
19.87
20.19
19.79
18.98
17.97
16.92
15.93
15.10
14.49
14.24
14.45
15.22
16.53
18.24
20.04
21.48
22.14
21.72
20.20
17.87
15.19
12.63
10.46
8.66
6.98
5.19
3.15
1.05
-0.78
-1.90
-2.10
-1.50
-0.58
-0.10
-0.88
-3.56
-8.39
-15.07
-22.65
-29.70
-34.67
-36.37
-34.54
-29.89
-24.11
-19.16
-16.68
-17.45
-21.21
-26.67
-32.04
-35.38
-35.24
-31.02
-23.27
-13.68
-4.51
2.14
5.11
4.41
1.01
-3.90
-9.44
-15.29
-21.46
-27.71
-33.39
-37.44
-38.94
-37.47
-33.37
-27.49
-20.80
-14.02
-7.42
-1.05
5.05
10.55
14.87
17.35
17.49
15.30
11.35
6.66
2.32
-0.93
-2.95
-4.17
-5.38
-7.27
-10.12
-13.76
-17.64
-21.19
-24.00
-26.04
-27.57
-29.08
-31.08
-34.09
-38.38
-43.84
-49.77
-54.82
-57.27
-55.49
-48.51
-36.48
-20.73
-3.40
13.16
27.06
37.25
43.52
46.37
46.61
45.03
42.34
39.07
35.71
32.71
30.52
29.41
29.46
30.51
32.22
34.26
36.35
38.37
40.19
41.65
42.51
42.44
41.18
38.62
34.82
30.00
24.51
18.79
13.33
8.47
4.43
1.13
-1.77
-4.78
-8.36
-12.67
-17.58
-22.61
-27.19
-30.91
-33.70
-35.92
-38.27
-41.59
-46.51
-53.14
-60.95
-68.71
-74.78
-77.46
-75.51
-68.42
-56.63
-41.35
-24.24
-7.01
8.88
22.40
32.98
40.45
45.01
47.14
47.49
46.79
45.63
44.41
43.36
42.58
42.17
42.27
42.99
44.37
46.27
48.44
50.53
52.19
53.12
53.09
51.95
49.61
46.05
41.41
35.94
30.04
24.14
18.67
13.92
9.93
6.47
3.12
-0.61
-5.00
-10.05
-15.47
-20.81
-25.66
-29.85
-33.48
-36.97
-40.86
-45.75
-52.04
-59.74
-68.22
-76.21
-81.95
-83.63
-79.86
-70.24
-55.45
-37.16
-17.56
1.21
17.41
30.04
38.78
43.91
46.11
46.16
44.87
42.90
40.76
38.79
37.23
36.29
36.12
36.85
38.46
40.80
43.52
46.20
48.42
49.85
50.34
49.87
48.47
46.17
42.98
38.92
34.13
28.84
23.37
18.02
13.02
8.46
4.29
0.40
-3.43
-7.41
-11.72
-16.37
-21.26
-26.14
-30.70
-34.72
-38.14
-41.13
-44.13
-47.72
-52.48
-58.76
-66.41
-74.55
-81.63
-85.72
-85.02
-78.37
-65.72
-48.20
-27.80
-6.99
11.98
27.42
38.62
45.68
49.36
50.63
50.36
49.11
47.15
44.70
42.04
39.64
37.96
37.32
37.75
38.96
40.61
42.35
43.99
45.37
46.25
46.28
45.04
42.22
37.81
32.11
25.68
19.14
12.99
7.52
2.79
-1.31
-5.04
-8.75
-12.77
-17.32
-22.38
-27.68
-32.76
-37.22
-40.90
-43.97
-46.98
-50.67
-55.68
-62.25
-69.97
-77.69
-83.69
-86.05
-83.22
-74.51
-60.32
-42.08
-21.85
-1.79
16.24
30.96
41.72
48.49
51.70
52.12
50.66
48.21
45.47
42.95
41.01
39.87
39.78
40.86
43.07
46.16
49.73
53.37
56.77
59.80
62.38
64.37
65.46
65.25
63.47
60.19
55.85
51.23
47.15
44.15
42.34
41.47
41.12
40.93
40.70
40.38
39.94
39.29
38.20
36.35
33.40
29.03
23.01
15.25
5.94
-4.39
-14.84
-24.15
-31.01
-34.36
-33.76
-29.64
-23.22
-16.16
-10.06
-5.98
-4.25
-4.51
-6.06
-8.25
-10.63
-13.01
-15.25
-17.20
-18.64
-19.38
-19.32
-18.63
-17.59
-16.52
-15.64
-15.06
-14.71
-14.48
-14.24
-13.86
-13.29
-12.54
-11.70
-10.98
-10.66
-10.98
-11.88
-12.95
-13.46
-12.68
-10.27
-6.56
-2.53
0.62
1.95
1.17
-1.49
-5.48
-10.42
-16.28
-23.17
-31.17
-39.96
-48.88
-57.17
-64.28
-70.10
-74.78
-78.49
-81.01
-81.69
-79.65
-74.18
-65.22
-53.61
-40.85
-28.69
-18.49
-10.82
-5.54
-2.05
0.21
1.58
2.10
1.84
1.01
0.03
-0.57
-0.40
0.71
2.71
5.43
8.64
12.08
15.44
18.38
20.53
21.60
21.42
20.01
17.55
14.37
10.87
7.40
4.15
1.02
-2.24
-5.93
-10.20
-14.85
-19.45
-23.49
-26.65
-28.98
-30.88
-33.01
-36.00
-40.24
-45.60
-51.37
-56.23
-58.61
-57.07
-50.78
-39.89
-25.46
-9.24
6.83
21.08
32.42
40.41
45.23
47.48
47.89
47.16
45.73
43.74
41.13
37.86
34.15
30.50
27.61
26.04
25.98
27.12
28.79
30.12
30.45
29.36
26.80
22.99
18.32
13.18
7.90
2.68
-2.43
-7.46
-12.44
-17.35
-22.09
-26.53
-30.54
-34.05
-37.10
-39.84
-42.60
-45.82
-49.86
-54.75
-59.90
-64.09
-65.56
-62.68
-54.47
-41.14
-24.06
-5.41
12.47
27.69
39.18
46.73
50.67
51.73
50.63
48.03
44.47
40.38
36.15
32.22
29.01
26.97
26.37
27.23
29.24
31.82
34.25
35.85
36.18
35.12
32.89
29.95
26.83
23.89
21.18
18.42
15.19
11.19
6.45
1.46
-2.96
-6.13
-7.78
-8.33
-8.82
-10.48
-14.19
-19.95
-26.64
-32.21
-34.17
-30.42
-19.94
-3.31
17.29
38.45
56.24
67.22
69.53
63.82
53.41
43.24
38.14
40.72
50.29
63.10
74.00
78.57
74.61
62.54
44.64
23.75
2.33
-17.88
-35.73
-50.27
-60.74
-66.74
-68.51
-66.99
-63.73
-60.54
-59.06
-60.20
-63.87
-68.96
-73.74
-76.56
-76.58
-74.11
-70.34
-66.88
-64.98
-65.13
-67.08
-70.06
-73.31
-76.25
-78.57
-79.98
-79.93
-77.65
-72.27
-63.30
-51.05
-36.72
-22.11
-8.96
1.81
10.37
17.84
25.47
33.93
42.88
51.23
57.91
62.56
65.81
68.75
72.13
75.75
78.46
78.81
75.90
69.88
61.87
53.26
45.03
37.38
29.85
21.88
13.26
4.29
-4.36
-12.03
-18.36
-23.42
-27.62
-31.52
-35.50
-39.69
-43.86
-47.54
-50.27
-51.82
-52.41
-52.69
-53.63
-56.11
-60.64
-66.96
-73.94
-79.70
-82.05
-79.12
-70.00
-55.14
-36.26
-15.85
3.53
19.99
32.58
41.30
46.71
49.58
50.60
50.33
49.21
47.66
46.17
45.16
45.03
45.95
47.92
50.64
53.63
56.31
58.22
59.12
59.02
58.18
56.84
55.26
53.56
51.84
50.12
48.42
46.75
45.13
43.64
42.33
41.28
40.49
39.86
39.26
38.53
37.64
36.59
35.40
33.91
31.76
28.47
23.76
17.55
10.08
1.69
-7.39
-16.95
-26.74
-36.23
-44.56
-50.77
-54.08
-54.34
-52.04
-48.10
-43.54
-39.10
-35.14
-31.72
-28.80
-26.34
-24.46
-23.22
-22.69
-22.78
-23.15
-23.31
-22.68
-20.78
-17.47
-13.03
-8.08
-3.33
0.66
3.71
5.94
7.63
8.99
9.99
10.38
9.86
8.32
5.90
3.07
0.33
-1.97
-3.71
-5.08
-6.42
-8.05
-10.08
-12.41
-14.78
-16.92
-18.64
-19.96
-21.09
-22.38
-24.26
-27.16
-31.30
-36.50
-42.08
-46.78
-49.07
-47.47
-41.15
-30.23
-15.93
-0.26
14.58
26.74
35.20
39.84
41.21
40.17
37.55
34.00
30.06
26.19
22.83
20.36
18.99
18.67
19.16
20.10
21.19
22.23
23.14
23.91
24.51
24.83
24.71
23.93
22.29
19.66
16.08
11.85
7.39
3.21
-0.29
-3.02
-5.18
-7.25
-9.74
-12.97
-16.90
-21.09
-24.94
-27.86
-29.57
-30.26
-30.54
-31.26
-33.29
-37.10
-42.63
-49.12
-55.16
-58.99
-58.93
-53.82
-43.49
-28.96
-12.20
4.34
18.48
28.78
34.88
37.26
36.96
35.08
32.46
29.66
26.97
24.61
22.81
21.77
21.60
22.26
23.52
25.07
26.58
27.79
28.55
28.85
28.76
28.35
27.61
26.43
24.59
21.93
18.41
14.28
9.89
5.69
2.03
-0.92
-3.20
-5.05
-6.82
-8.86
-11.38
-14.40
-17.77
-21.11
-24.08
-26.44
-28.18
-29.51
-30.90
-32.84
-35.75
-39.79
-44.61
-49.27
-52.20
-51.70
-46.47
-36.29
-22.16
-6.16
9.30
22.22
31.55
37.26
39.97
40.55
39.74
38.14
36.15
34.13
32.27
30.70
29.43
28.50
28.11
28.56
30.17
32.99
36.69
40.57
43.78
45.69
46.08
45.20
43.61
41.90
40.47
39.38
38.40
37.17
35.18
31.84
26.54
18.92
9.45
-0.35
-8.17
-11.75
-10.16
-4.59
1.91
5.56
3.53
-4.88
-18.22
-33.81
-49.18
-62.91
-74.68
-84.81
-93.76
-101.92
-109.78
-117.90
-126.52
-135.05
-141.85
-144.70
-141.61
-131.69
-115.68
-95.58
-73.99
-53.39
-35.59
-21.57
-11.58
-5.24
-1.66
0.41
2.26
4.85
8.51
12.91
17.19
20.31
21.47
20.44
17.50
13.48
9.35
5.90
3.52
2.09
1.20
0.31
-0.94
-2.72
-4.95
-7.47
-10.04
-12.28
-13.72
-13.77
-11.95
-8.13
-2.67
3.58
9.55
14.33
17.42
18.69
18.16
15.65
10.74
2.87
-8.04
-21.13
-34.40
-45.01
-50.10
-47.75
-37.71
-21.55
-2.20
17.00
33.29
45.15
52.43
55.95
56.89
56.27
54.71
52.46
49.71
46.73
43.97
41.98
41.24
41.89
43.68
46.03
48.21
49.69
50.30
50.27
50.05
49.95
49.95
49.58
48.17
45.18
40.47
34.45
27.95
21.81
16.62
12.50
9.17
6.06
2.66
-1.31
-5.85
-10.70
-15.48
-19.86
-23.70
-27.08
-30.28
-33.69
-37.71
-42.71
-48.78
-55.69
-62.66
-68.45
-71.43
-70.10
-63.46
-51.50
-35.29
-16.72
2.04
19.09
33.19
43.85
51.15
55.43
57.17
56.83
54.89
51.89
48.35
44.85
41.88
39.83
38.92
39.19
40.41
42.26
44.29
46.12
47.46
48.12
47.98
46.97
45.00
42.04
38.12
33.39
28.03
22.32
16.51
10.89
5.70
1.07
-3.08
-6.96
-10.87
-15.06
-19.63
-24.44
-29.21
-33.65
-37.54
-40.84
-43.69
-46.41
-49.47
-53.38
-58.66
-65.44
-73.25
-80.83
-86.32
-87.71
-83.54
-73.37
-58.00
-39.23
-19.27
-0.26
16.13
28.92
37.74
42.81
44.76
44.48
42.91
40.82
38.66
36.63
34.78
33.27
32.37
32.39
33.51
35.63
38.40
41.30
43.82
45.58
46.37
46.08
44.69
42.20
38.62
34.00
28.51
22.38
15.94
9.57
3.59
-1.84
-6.74
-11.25
-15.66
-20.24
-25.17
-30.45
-35.90
-41.13
-45.74
-49.49
-52.52
-55.40
-59.02
-64.29
-71.77
-81.31
-91.85
-101.50
-107.97
-109.06
-103.23
-90.05
-70.41
-46.38
-20.76
3.50
24.04
39.46
49.48
54.81
56.61
56.15
54.41
52.03
49.38
46.79
44.74
43.76
44.29
46.45
49.90
53.89
57.59
60.32
61.83
62.29
62.01
61.24
59.81
57.33
53.29
47.54
40.40
32.68
25.35
19.14
14.26
10.32
6.60
2.33
-2.91
-9.13
-15.90
-22.65
-28.83
-34.17
-38.71
-42.82
-47.11
-52.33
-59.12
-67.71
-77.62
-87.50
-95.28
-98.57
-95.40
-84.86
-67.57
-45.55
-21.75
0.76
19.58
33.49
42.39
47.03
48.50
47.75
45.52
42.30
38.56
34.88
31.94
30.35
30.46
32.20
35.13
38.59
42.00
44.96
47.30
48.99
49.95
49.98
48.73
45.93
41.55
35.87
29.43
22.85
16.57
10.74
5.27
-0.05
-5.42
-10.86
-16.24
-21.28
-25.76
-29.53
-32.70
-35.67
-39.06
-43.64
-49.99
-58.33
-68.19
-78.38
-87.08
-92.15
-91.64
-84.33
-70.14
-50.35
-27.43
-4.41
15.82
31.24
41.04
45.59
46.01
43.65
39.73
35.10
30.34
25.87
22.10
19.38
18.02
18.10
19.54
22.10
25.36
28.90
32.20
34.80
36.28
36.34
34.83
31.78
27.39
22.01
16.10
10.12
4.37
-1.11
-6.50
-12.14
-18.33
-25.07
-32.06
-38.75
-44.67
-49.71
-54.30
-59.29
-65.70
-74.17
-84.51
-95.53
-105.05
-110.44
-109.31
-100.26
-83.48
-60.74
-35.07
-9.89
11.91
28.59
39.82
46.40
49.58
50.60
50.26
49.00
47.08
44.86
42.89
41.74
41.82
43.16
45.40
48.02
50.56
52.79
54.73
56.43
57.74
58.22
57.24
54.19
48.90
41.68
33.35
24.94
17.40
11.25
6.45
2.49
-1.45
-6.16
-12.09
-19.19
-26.89
-34.34
-40.76
-45.79
-49.69
-53.41
-58.18
-65.21
-75.09
-87.43
-100.58
-111.87
-118.12
-116.60
-105.91
-86.60
-61.15
-33.28
-6.86
15.12
31.19
41.48
47.20
49.96
51.18
51.73
51.99
52.04
51.93
51.82
52.02
52.80
54.34
56.61
59.36
62.29
65.12
67.62
69.54
70.65
70.58
68.99
65.69
60.81
54.76
48.24
41.92
36.25
31.21
26.46
21.46
15.85
9.59
3.04
-3.23
-8.82
-13.68
-18.16
-22.82
-28.09
-34.06
-40.35
-46.39
-51.73
-56.34
-60.71
-65.72
-72.34
-81.25
-92.38
-104.77
-116.43
-124.66
-126.67
-120.34
-105.09
-82.22
-54.72
-26.42
-0.90
19.49
33.95
43.05
48.11
50.52
51.30
51.09
50.28
49.21
48.31
47.96
48.50
50.10
52.67
56.04
59.86
63.81
67.53
70.68
72.90
73.83
73.10
70.47
65.98
59.93
52.95
45.74
38.89
32.71
27.17
21.99
16.78
11.34
5.65
-0.01
-5.31
-9.97
-13.97
-17.65
-21.49
-25.95
-31.21
-37.09
-43.10
-48.72
-53.66
-58.09
-62.64
-68.18
-75.49
-84.88
-95.80
-106.70
-115.20
-118.53
-114.36
-101.58
-80.80
-54.45
-26.14
0.33
22.01
37.43
46.68
51.00
52.01
51.15
49.31
46.99
44.47
42.06
40.22
39.41
39.87
41.57
44.19
47.22
50.23
52.93
55.21
56.99
58.13
58.35
57.29
54.60
50.13
44.02
36.67
28.70
20.81
13.59
7.39
2.21
-2.27
-6.60
-11.38
-17.01
-23.51
-30.53
-37.45
-43.66
-48.82
-53.04
-56.82
-60.92
-66.15
-73.07
-81.83
-91.96
-102.31
-111.12
-116.14
-115.32
-107.31
-92.09
-71.18
-47.36
-23.84
-3.39
12.29
22.93
29.32
32.75
34.47
35.35
35.91
36.51
37.60
39.79
43.66
49.43
56.72
64.52
71.41
76.11
77.92
77.03
74.34
71.08
68.20
65.99
64.10
61.77
58.33
53.48
47.43
40.71
33.93
27.54
21.66
16.13
10.61
4.63
-2.24
-10.30
-19.68
-30.17
-41.29
-52.34
-62.56
-71.39
-78.51
-83.93
-87.89
-90.85
-93.35
-95.83
-98.40
-100.57
-101.23
-98.90
-92.26
-80.79
-65.04
-46.62
-27.60
-9.96
4.95
16.56
24.88
30.29
33.26
34.34
34.14
33.28
32.24
31.37
30.82
30.70
31.13
32.31
34.46
37.70
41.92
46.72
51.52
55.58
58.30
59.26
58.36
55.83
52.14
47.85
43.41
39.08
34.82
30.50
25.94
21.12
16.16
11.15
6.17
1.14
-4.08
-9.61
-15.43
-21.36
-27.05
-32.24
-36.86
-41.10
-45.47
-50.67
-57.29
-65.58
-75.12
-84.72
-92.57
-96.51
-94.69
-86.12
-70.98
-50.81
-28.06
-5.53
14.28
29.78
40.40
46.56
49.19
49.39
48.13
46.08
43.65
41.12
38.74
36.79
35.58
35.32
36.10
37.77
40.05
42.57
45.05
47.30
49.18
50.51
50.92
49.95
47.21
42.58
36.42
29.55
22.92
17.29
12.90
9.39
5.95
1.81
-3.48
-9.79
-16.53
-23.01
-28.72
-33.51
-37.63
-41.57
-45.96
-51.45
-58.57
-67.50
-77.77
-88.02
-96.14
-99.71
-96.77
-86.50
-69.64
-48.30
-25.35
-3.63
14.73
28.59
37.83
42.96
44.88
44.47
42.51
39.54
36.01
32.34
28.98
26.39
24.96
24.88
26.06
28.20
30.93
33.90
36.83
39.40
41.21
41.75
40.55
37.40
32.51
26.46
20.02
13.78
7.99
2.49
-3.10
-9.07
-15.42
-21.88
-28.00
-33.44
-38.17
-42.57
-47.37
-53.41
-61.23
-70.78
-81.16
-90.63
-96.95
-97.98
-92.19
-79.34
-60.55
-38.14
-15.05
5.91
22.71
34.42
41.18
43.94
43.92
42.34
40.05
37.61
35.32
33.35
31.91
31.21
31.44
32.71
34.93
37.83
40.97
43.85
46.01
47.04
46.66
44.76
41.39
36.77
31.28
25.31
19.20
13.05
6.79
0.17
-7.01
-14.79
-22.91
-30.91
-38.24
-44.50
-49.71
-54.31
-59.15
-65.18
-72.99
-82.51
-92.69
-101.59
-106.81
-106.09
-98.05
-82.62
-61.28
-36.64
-11.86
10.17
27.48
39.33
46.12
49.01
49.35
48.33
46.70
44.88
43.11
41.70
41.02
41.42
43.01
45.60
48.67
51.65
54.11
55.97
57.28
58.06
58.02
56.60
53.20
47.57
40.04
31.45
22.88
15.12
8.40
2.40
-3.52
-9.86
-16.73
-23.88
-30.87
-37.31
-43.15
-48.61
-54.17
-60.33
-67.50
-75.92
-85.45
-95.41
-104.44
-110.55
-111.57
-105.84
-92.97
-74.23
-52.29
-30.33
-11.04
4.13
15.01
22.28
26.73
28.91
29.24
28.38
27.65
28.79
33.34
41.83
53.39
66.10
77.78
86.98
93.48
98.16
102.23
106.59
111.32
115.81
119.15
120.63
119.95
117.18
112.54
106.21
98.27
88.81
77.94
65.94
53.19
40.23
27.65
16.08
6.15
-1.66
-7.05
-10.13
-11.37
-11.58
-11.81
-13.07
-16.17
-21.50
-28.82
-37.27
-45.33
-51.18
-53.13
-50.17
-42.34
-30.76
-17.27
-3.82
8.07
17.51
24.17
27.91
28.61
26.13
20.54
12.32
2.41
-8.00
-17.72
-25.89
-32.03
-35.93
-37.61
-37.20
-34.97
-31.38
-27.01
-22.45
-18.12
-14.21
-10.75
-7.61
-4.80
-2.38
-0.48
0.87
1.82
2.68
3.81
5.50
7.79
10.47
13.18
15.51
17.23
18.35
19.11
19.85
20.76
21.73
22.31
21.74
19.22
14.07
6.07
-4.45
-16.42
-28.15
-37.57
-42.77
-42.52
-36.78
-26.83
-14.86
-3.38
5.59
10.91
12.45
10.74
6.55
0.56
-6.67
-14.61
-22.67
-30.09
-36.12
-40.11
-41.72
-40.89
-37.88
-33.13
-27.25
-20.87
-14.64
-9.13
-4.76
-1.88
-0.65
-1.15
-3.32
-6.83
-11.12
-15.43
-18.95
-21.09
-21.67
-20.93
-19.31
-17.24
-14.83
-11.97
-8.50
-4.51
-0.45
2.98
5.15
5.80
5.10
3.61
2.02
1.13
1.73
4.69
10.86
20.73
34.04
49.51
65.01
78.12
86.84
90.21
88.45
82.68
74.28
64.49
54.04
43.34
32.70
22.56
13.44
5.84
-0.02
-4.26
-7.24
-9.38
-10.97
-12.13
-12.93
-13.54
-14.32
-15.72
-18.03
-21.28
-25.18
-29.29
-33.18
-36.60
-39.47
-41.81
-43.69
-45.08
-46.04
-46.70
-47.33
-48.14
-49.11
-49.87
-49.73
-48.08
-44.63
-39.72
-34.24
-29.28
-25.68
-23.67
-22.83
-22.30
-21.15
-18.72
-14.91
-10.07
-4.90
-0.14
3.59
5.96
6.90
6.58
5.29
3.31
0.97
-1.47
-3.76
-5.73
-7.29
-8.48
-9.35
-9.93
-10.19
-9.97
-9.17
-7.80
-6.08
-4.33
-2.91
-2.10
-1.97
-2.48
-3.49
-4.92
-6.71
-8.83
-11.18
-13.55
-15.68
-17.37
-18.55
-19.35
-19.98
-20.60
-21.28
-21.87
-22.22
-22.22
-21.98
-21.84
-22.25
-23.61
-26.00
-29.13
-32.29
-34.53
-34.90
-32.68
