1540565987.00
64.000000
-0.00
-0.00
-0.00
-0.00
-0.00
-0.00
-0.00
-0.00
-0.00
-0.00
0.00
0.01
0.01
-0.00
-0.03
-0.05
-0.05
0.00
0.13
0.36
0.66
1.01
1.37
1.72
2.06
2.40
2.79
3.24
3.80
4.42
5.06
5.66
6.20
6.68
7.15
7.68
8.31
9.14
10.09
11.04
11.88
12.56
13.14
13.76
14.65
15.96
17.91
20.32
22.90
25.38
27.58
29.57
31.68
34.32
37.81
42.54
48.15
54.10
59.83
64.97
69.58
74.14
79.34
85.71
93.76
103.00
112.62
121.73
129.77
136.75
143.30
150.75
157.77
166.64
177.95
191.79
206.97
220.57
228.25
225.36
208.53
176.87
132.76
80.05
23.07
-34.94
-92.44
-149.16
-205.23
-260.37
-313.74
-363.87
-409.83
-450.91
-486.50
-515.74
-537.23
-549.22
-549.96
-538.37
-514.21
-478.67
-433.88
-382.45
-327.02
-269.84
-212.63
-156.66
-102.95
-52.37
-5.90
35.58
71.43
101.35
125.50
144.38
158.69
169.15
176.37
180.75
182.57
182.07
179.51
175.23
169.65
163.18
156.15
148.81
141.30
133.69
126.02
118.33
110.69
103.16
95.80
88.68
81.83
75.25
68.95
62.95
57.25
51.86
46.78
42.03
37.59
33.45
29.61
26.07
22.81
19.83
17.11
14.67
12.48
10.54
8.83
7.35
6.07
4.97
4.05
3.27
2.62
2.09
1.65
1.30
1.01
0.79
0.61
0.47
0.37
0.29
0.23
0.19
0.16
0.15
0.14
0.15
0.17
0.19
0.22
0.25
0.29
0.33
0.37
0.42
0.46
0.51
0.56
0.61
0.67
0.72
0.78
0.85
0.92
1.00
1.09
1.19
1.29
1.42
1.55
1.71
1.88
2.07
2.29
2.52
2.78
3.07
3.39
3.74
4.12
4.53
4.99
5.47
6.00
6.57
7.18
7.83
8.52
9.26
10.04
10.87
11.75
12.67
13.64
14.67
15.76
16.91
18.13
19.39
20.69
21.97
23.15
24.17
24.89
25.20
24.96
24.08
22.50
20.17
17.13
13.44
9.25
4.74
0.12
-4.38
-8.53
-12.18
-15.19
-17.50
-19.10
-20.02
-20.32
-20.06
-19.31
-18.17
-16.73
-15.11
-13.42
-11.75
-10.13
-8.59
-7.12
-5.66
-4.15
-2.59
-0.99
0.61
2.16
3.70
5.21
6.73
8.39
10.29
12.40
14.61
16.72
18.59
20.26
21.63
22.88
24.34
26.24
28.60
31.16
33.49
35.26
36.43
36.85
36.87
37.06
37.86
39.29
40.91
41.97
41.80
40.18
36.84
32.17
26.82
21.20
15.12
7.57
-3.20
-19.83
-40.56
-65.60
-94.81
-127.05
-159.58
-188.24
-208.32
-216.17
-210.55
-193.17
-168.77
-142.50
-118.34
-98.10
-81.62
-67.75
-55.44
-44.23
-34.13
-25.59
-18.50
-12.24
-6.11
0.26
6.66
12.45
16.85
19.48
20.18
19.45
18.15
17.06
16.59
16.62
16.65
16.11
14.71
12.39
9.42
6.19
2.94
-0.29
-3.60
-7.02
-10.32
-12.93
-14.16
-13.42
-10.40
-5.30
1.28
8.51
15.56
21.77
26.76
30.31
32.36
32.97
32.32
30.72
28.56
26.26
24.14
22.40
21.12
20.28
19.84
19.69
19.70
19.70
19.60
19.34
18.88
18.19
17.17
15.67
13.50
10.64
7.22
3.54
-0.04
-3.28
-6.14
-8.76
-11.38
-14.22
-17.35
-20.75
-24.36
-28.09
-31.77
-35.09
-37.51
-38.32
-36.84
-32.71
-26.14
-17.87
-8.99
-0.61
6.54
12.09
16.08
18.72
20.23
20.77
20.46
19.42
17.88
16.09
14.33
12.79
11.48
10.29
9.08
7.94
7.18
7.33
8.82
11.65
15.23
18.51
20.41
20.26
18.05
14.43
10.27
6.34
2.95
0.02
-2.77
-5.75
-9.11
-12.93
-17.18
-21.82
-26.71
-31.54
-35.78
-38.71
-39.56
-37.84
-33.42
-26.71
-18.55
-9.90
-1.68
5.57
11.59
16.43
20.14
22.80
24.43
25.07
24.90
24.19
23.32
22.62
22.34
22.57
23.22
24.09
24.90
25.42
25.46
24.94
23.88
22.36
20.48
18.35
15.97
13.30
10.26
6.87
3.29
-0.20
-3.32
-5.93
-8.15
-10.32
-12.93
-16.41
-20.95
-26.31
-31.86
-36.70
-39.87
-40.59
-38.49
-33.65
-26.60
-18.16
-9.24
-0.66
6.98
13.34
18.28
21.76
23.84
24.66
24.46
23.61
22.52
21.54
20.88
20.49
20.23
19.99
19.84
19.98
20.64
21.88
23.49
25.02
26.01
26.07
25.11
23.14
20.32
16.73
12.59
8.13
3.75
-0.15
-3.36
-5.96
-8.30
-10.88
-14.13
-18.25
-23.17
-28.55
-33.81
-38.16
-40.73
-40.77
-37.82
-31.95
-23.85
-14.55
-5.19
3.35
10.59
16.43
20.95
24.21
26.17
26.79
26.13
24.49
22.38
20.36
18.90
18.23
18.32
18.95
19.80
20.59
21.08
21.15
20.77
19.95
18.78
17.37
15.80
14.06
12.03
9.54
6.49
2.94
-0.82
-4.38
-7.36
-9.62
-11.30
-12.83
-14.79
-17.69
-21.75
-26.79
-32.15
-36.82
-39.70
-39.86
-36.85
-30.81
-22.40
-12.68
-2.74
6.51
14.46
20.82
25.55
28.72
30.44
30.89
30.32
29.13
27.79
26.79
26.42
26.69
27.40
28.24
28.96
29.47
29.78
29.92
29.84
29.39
28.49
27.16
25.59
24.00
22.53
21.10
19.48
17.49
15.10
12.45
9.82
7.34
5.02
2.67
0.09
-2.86
-6.11
-9.46
-12.66
-15.50
-17.95
-20.22
-22.72
-25.96
-30.40
-36.10
-42.63
-49.03
-54.00
-56.34
-55.23
-50.50
-42.60
-32.52
-21.41
-10.45
-0.58
7.67
14.08
18.80
22.13
24.38
25.81
26.62
26.99
27.22
27.66
28.56
30.02
31.87
33.77
35.35
36.42
36.96
37.18
37.29
37.34
37.26
36.79
35.69
33.78
31.10
27.81
24.23
20.73
17.60
14.98
12.82
10.85
8.77
6.36
3.56
0.53
-2.51
-5.45
-8.29
-11.17
-14.24
-17.49
-20.83
-24.12
-27.40
-30.84
-34.67
-38.91
-43.16
-46.61
-48.20
-47.06
-42.76
-35.56
-26.33
-16.25
-6.51
2.03
8.92
14.18
18.03
20.77
22.57
23.51
23.63
23.09
22.20
21.40
21.07
21.38
22.23
23.33
24.36
25.14
25.66
26.03
26.30
26.43
26.24
25.59
24.37
22.65
20.57
18.28
15.89
13.46
11.05
8.73
6.54
4.46
2.34
-0.05
-2.81
-5.93
-9.17
-12.19
-14.76
-16.83
-18.60
-20.43
-22.70
-25.65
-29.34
-33.58
-37.91
-41.69
-44.11
-44.43
-42.16
-37.25
-30.14
-21.70
-12.90
-4.63
2.56
8.44
13.02
16.41
18.73
20.07
20.54
20.30
19.56
18.56
17.55
16.76
16.36
16.45
17.03
17.95
18.99
19.90
20.49
20.65
20.40
19.80
18.86
17.61
16.02
14.10
11.92
9.58
7.21
4.91
2.68
0.50
-1.66
-3.80
-5.91
-7.97
-9.98
-11.99
-14.08
-16.34
-18.90
-21.88
-25.43
-29.57
-34.11
-38.54
-42.12
-43.99
-43.45
-40.20
-34.46
-26.89
-18.42
-10.00
-2.36
4.12
9.36
13.45
16.52
18.64
19.88
20.31
20.15
19.72
19.34
19.23
19.45
19.87
20.36
20.81
21.19
21.53
21.82
21.96
21.84
21.33
20.39
19.05
17.39
15.45
13.23
10.73
7.99
5.18
2.51
0.21
-1.60
-3.01
-4.25
-5.62
-7.28
-9.28
-11.46
-13.58
-15.50
-17.26
-19.11
-21.38
-24.37
-28.19
-32.62
-37.20
-41.28
-44.17
-45.33
-44.46
-41.51
-36.66
-30.26
-22.83
-14.93
-7.13
0.08
6.40
11.65
15.81
18.93
21.12
22.49
23.21
23.46
23.43
23.30
23.15
23.01
22.88
22.77
22.71
22.74
22.84
22.95
22.94
22.69
22.12
21.24
20.10
18.74
17.20
15.39
13.27
10.83
8.19
5.55
3.12
0.97
-0.95
-2.86
-5.01
-7.50
-10.28
-13.12
-15.78
-18.12
-20.20
-22.25
-24.49
-27.11
-30.12
-33.44
-36.89
-40.23
-43.09
-44.98
-45.31
-43.57
-39.52
-33.30
-25.51
-17.00
-8.66
-1.19
5.02
9.84
13.32
15.57
16.70
16.83
16.18
15.03
13.72
12.60
11.88
11.68
11.94
12.57
13.43
14.42
15.43
16.34
17.01
17.29
17.06
16.26
14.94
13.23
11.27
9.19
7.06
4.86
2.58
0.21
-2.25
-4.74
-7.19
-9.57
-11.87
-14.11
-16.40
-18.85
-21.57
-24.63
-28.06
-31.71
-35.24
-38.14
-39.79
-39.61
-37.29
-32.85
-26.67
-19.36
-11.60
-3.96
3.13
9.38
14.53
18.39
20.82
21.86
21.72
20.78
19.46
18.15
17.11
16.46
16.23
16.32
16.56
16.81
16.94
16.92
16.77
16.49
16.00
15.16
13.84
12.01
9.80
7.44
5.13
2.95
0.83
-1.38
-3.81
-6.48
-9.29
-12.09
-14.69
-17.00
-19.04
-20.97
-23.10
-25.73
-29.05
-33.02
-37.21
-40.92
-43.30
-43.57
-41.30
-36.49
-29.57
-21.32
-12.60
-4.19
3.35
9.68
14.72
18.51
21.12
22.63
23.17
22.92
22.17
21.23
20.36
19.74
19.42
19.34
19.51
19.94
20.62
21.49
22.30
22.66
22.26
20.94
18.83
16.28
13.70
11.34
9.26
7.32
5.34
3.16
0.72
-2.00
-4.97
-8.14
-11.44
-14.73
-17.87
-20.79
-23.55
-26.41
-29.63
-33.37
-37.49
-41.47
-44.55
-45.93
-44.98
-41.47
-35.64
-28.07
-19.57
-10.96
-2.91
4.06
9.63
13.70
16.31
17.66
18.09
18.01
17.81
17.81
18.11
18.67
19.31
19.86
20.24
20.50
20.72
21.00
21.31
21.51
21.40
20.74
19.47
17.65
15.52
13.34
11.34
9.53
7.83
6.01
3.93
1.53
-1.13
-3.93
-6.75
-9.54
-12.29
-15.00
-17.70
-20.46
-23.42
-26.75
-30.53
-34.63
-38.59
-41.65
-42.96
-41.78
-37.87
-31.49
-23.40
-14.60
-6.06
1.48
7.63
12.29
15.56
17.65
18.77
19.11
18.84
18.14
17.19
16.23
15.53
15.30
15.67
16.57
17.78
18.98
19.89
20.28
20.05
19.23
17.89
16.15
14.12
11.90
9.53
7.06
4.48
1.79
-0.99
-3.81
-6.57
-9.22
-11.69
-13.98
-16.19
-18.43
-20.94
-23.95
-27.60
-31.83
-36.26
-40.19
-42.75
-43.10
-40.73
-35.62
-28.27
-19.61
-10.62
-2.18
5.18
11.24
15.99
19.49
21.80
22.94
23.06
22.41
21.38
20.42
19.85
19.82
20.25
20.95
21.72
22.46
23.11
23.65
24.01
24.05
23.59
22.48
20.66
18.21
15.33
12.32
9.40
6.69
4.13
1.53
-1.27
-4.33
-7.53
-10.64
-13.39
-15.73
-17.78
-19.89
-22.42
-25.70
-29.82
-34.54
-39.28
-43.15
-45.16
-44.47
-40.71
-34.17
-25.69
-16.45
-7.54
0.30
6.79
11.98
16.10
19.26
21.53
22.93
23.55
23.62
23.46
23.36
23.53
24.01
24.67
25.35
25.86
26.13
26.17
26.07
25.91
25.67
25.24
24.44
23.10
21.16
18.72
15.99
13.25
10.76
8.63
6.84
5.21
3.51
1.56
-0.73
-3.27
-5.85
-8.28
-10.40
-12.20
-13.81
-15.47
-17.45
-19.98
-23.28
-27.39
-32.16
-37.11
-41.45
-44.21
-44.50
-41.80
-36.23
-28.51
-19.75
-11.06
-3.25
3.31
8.67
13.04
16.59
19.38
21.38
22.64
23.29
23.58
23.75
23.93
24.13
24.30
24.35
24.26
24.06
23.86
23.73
23.67
23.68
23.68
23.57
23.23
22.55
21.45
19.90
18.01
15.91
13.82
11.88
10.12
8.52
6.96
5.37
3.64
1.68
-0.60
-3.26
-6.28
-9.54
-12.80
-15.85
-18.53
-20.87
-23.04
-25.34
-28.03
-31.29
-35.08
-39.13
-42.91
-45.71
-46.72
-45.30
-41.17
-34.55
-26.12
-16.84
-7.68
0.62
7.62
13.18
17.27
19.93
21.19
21.21
20.28
18.82
17.35
16.26
15.73
15.73
16.08
16.55
17.06
17.60
18.24
19.00
19.79
20.41
20.62
20.24
19.20
17.59
15.58
13.45
11.41
9.56
7.90
6.30
4.64
2.86
1.03
-0.76
-2.42
-3.97
-5.47
-7.03
-8.71
-10.50
-12.38
-14.43
-16.80
-19.67
-23.05
-26.63
-29.78
-31.67
-31.55
-29.02
-24.15
-17.55
-10.08
-2.65
4.00
9.42
13.44
16.13
17.69
18.38
18.44
18.15
17.71
17.27
16.93
16.70
16.61
16.60
16.68
16.84
17.06
17.28
17.42
17.35
16.97
16.21
15.03
13.50
11.68
9.66
7.50
5.24
2.88
0.43
-2.13
-4.78
-7.49
-10.19
-12.78
-15.12
-17.14
-18.80
-20.15
-21.34
-22.58
-24.11
-26.16
-28.86
-32.13
-35.64
-38.73
-40.62
-40.58
-38.21
-33.62
-27.36
-20.25
-13.04
-6.27
-0.20
5.12
9.62
13.19
15.67
16.96
17.14
16.50
15.49
14.53
13.95
13.84
14.11
14.52
14.85
14.96
14.84
14.58
14.30
14.03
13.71
13.18
12.33
11.11
9.59
7.91
6.19
4.53
2.90
1.19
-0.70
-2.85
-5.22
-7.69
-10.06
-12.18
-13.99
-15.59
-17.23
-19.24
-21.89
-25.29
-29.23
-33.23
-36.59
-38.51
-38.36
-35.84
-31.07
-24.60
-17.21
-9.72
-2.77
3.28
8.29
12.24
15.11
16.90
17.68
17.65
17.14
16.53
16.12
16.00
16.09
16.16
16.06
15.77
15.41
15.15
15.11
15.30
15.63
15.92
16.03
15.79
15.10
13.88
12.12
9.93
7.49
5.06
2.80
0.73
-1.26
-3.34
-5.61
-8.03
-10.45
-12.70
-14.73
-16.64
-18.63
-20.94
-23.66
-26.81
-30.29
-33.85
-37.13
-39.62
-40.71
-39.82
-36.63
-31.22
-24.13
-16.20
-8.33
-1.20
4.81
9.66
13.46
16.38
18.51
19.84
20.36
20.11
19.25
17.99
16.62
15.40
14.52
14.04
13.95
14.16
14.56
15.02
15.44
15.68
15.57
14.99
13.86
12.26
10.39
8.48
6.70
5.07
3.50
1.88
0.15
-1.73
-3.70
-5.77
-7.94
-10.20
-12.51
-14.77
-16.90
-18.95
-21.14
-23.66
-26.62
-29.77
-32.56
-34.20
-33.99
-31.52
-26.87
-20.55
-13.36
-6.18
0.27
5.55
9.54
12.32
14.12
15.15
15.56
15.42
14.81
13.84
12.72
11.67
10.91
10.56
10.61
10.95
11.38
11.71
11.79
11.50
10.83
9.83
8.59
7.19
5.70
4.13
2.43
0.61
-1.34
-3.37
-5.43
-7.49
-9.55
-11.66
-13.82
-16.06
-18.36
-20.78
-23.40
-26.30
-29.44
-32.63
-35.40
-37.14
-37.28
-35.43
-31.52
-25.89
-19.10
-11.84
-4.75
1.72
7.24
11.68
15.01
17.25
18.48
18.83
18.49
17.69
16.70
15.73
14.96
14.48
14.35
14.59
15.16
15.98
16.84
17.51
17.75
17.40
16.48
15.16
13.69
12.25
10.87
9.41
7.63
5.31
2.41
-0.91
-4.36
-7.61
-10.38
-12.62
-14.49
-16.28
-18.36
-21.01
-24.34
-28.19
-32.20
-35.74
-38.12
-38.67
-36.97
-32.96
-27.02
-19.81
-12.18
-4.88
1.58
6.95
11.26
14.60
17.06
18.71
19.57
19.74
19.43
18.90
18.45
18.27
18.40
18.76
19.24
19.74
20.26
20.81
21.34
21.70
21.68
21.13
20.03
18.58
17.00
15.46
13.98
12.41
10.57
8.34
5.73
2.89
-0.02
-2.92
-5.77
-8.55
-11.21
-13.63
-15.75
-17.62
-19.44
-21.57
-24.36
-28.03
-32.47
-37.24
-41.60
-44.63
-45.50
-43.74
-39.30
-32.66
-24.62
-16.15
-8.09
-1.00
4.88
9.51
12.99
15.46
17.02
17.86
18.18
18.28
18.43
18.82
19.50
20.37
21.24
21.95
22.42
22.73
22.95
23.14
23.23
23.06
22.45
21.39
19.98
18.45
17.02
15.76
14.54
13.14
11.38
9.24
6.93
4.68
2.71
1.03
-0.54
-2.19
-4.09
-6.25
-8.57
-10.93
-13.25
-15.50
-17.72
-19.97
-22.32
-24.94
-27.97
-31.58
-35.74
-40.15
-44.17
-47.00
-47.83
-46.18
-42.01
-35.73
-28.07
-19.83
-11.72
-4.27
2.20
7.56
11.77
14.89
16.98
18.21
18.77
18.89
18.82
18.80
19.02
19.61
20.56
21.76
23.02
24.17
25.10
25.80
26.30
26.56
26.54
26.11
25.18
23.80
22.04
20.09
18.06
16.06
14.10
12.15
10.21
8.27
6.36
4.50
2.72
1.06
-0.48
-1.95
-3.46
-5.19
-7.26
-9.71
-12.42
-15.15
-17.73
-20.13
-22.52
-25.23
-28.53
-32.45
-36.58
-40.17
-42.35
-42.43
-40.13
-35.67
-29.59
-22.57
-15.14
-7.71
-0.59
5.89
11.31
15.33
17.74
18.69
18.57
17.92
17.21
16.67
16.32
16.06
15.84
15.76
15.98
16.62
17.67
18.94
20.09
20.83
20.94
20.39
19.26
17.68
15.81
13.75
11.65
9.60
7.69
5.89
4.07
2.09
-0.16
-2.71
-5.41
-8.02
-10.37
-12.41
-14.29
-16.27
-18.62
-21.54
-25.03
-28.92
-32.87
-36.43
-39.03
-40.16
-39.35
-36.43
-31.48
-24.98
-17.59
-10.05
-2.95
3.34
8.66
13.02
16.42
18.83
20.18
20.48
19.85
18.64
17.28
16.19
15.65
15.73
16.32
17.20
18.18
19.06
19.73
20.08
20.06
19.62
18.78
17.58
16.07
14.33
12.41
10.39
8.33
6.25
4.14
1.91
-0.53
-3.21
-6.08
-8.97
-11.73
-14.24
-16.48
-18.53
-20.56
-22.80
-25.48
-28.76
-32.64
-36.89
-41.00
-44.24
-45.83
-45.16
-41.99
-36.50
-29.27
-21.10
-12.82
-5.12
1.56
7.06
11.41
14.74
17.20
18.87
19.79
20.03
19.78
19.32
18.97
18.98
19.40
20.15
21.03
21.87
22.60
23.23
23.77
24.20
24.39
24.13
23.23
21.60
19.32
16.62
13.80
11.13
8.76
6.69
4.79
2.90
0.83
-1.51
-4.16
-7.08
-10.15
-13.25
-16.19
-18.83
-21.14
-23.25
-25.47
-28.16
-31.64
-35.90
-40.63
-45.15
-48.58
-50.10
-49.11
-45.42
-39.31
-31.44
-22.63
-13.74
-5.43
1.88
8.02
12.94
16.69
19.37
21.12
22.21
22.95
23.62
24.39
25.29
26.21
27.05
27.77
28.43
29.13
29.90
30.74
31.49
31.96
31.97
31.38
30.17
28.41
26.27
23.99
21.78
19.79
18.04
16.39
14.65
12.68
10.44
8.07
5.79
3.78
2.12
0.67
-0.79
-2.55
-4.78
-7.47
-10.42
-13.37
-16.08
-18.50
-20.76
-23.09
-25.80
-29.09
-33.12
-37.82
-42.96
-48.05
-52.31
-54.89
-54.97
-52.08
-46.24
-38.02
-28.36
-18.34
-8.91
-0.72
5.93
11.02
14.76
17.40
19.27
20.65
21.75
22.71
23.57
24.38
25.15
25.93
26.80
27.78
28.83
29.85
30.71
31.27
31.46
31.29
30.73
29.79
28.47
26.81
24.93
22.98
21.13
19.39
17.67
15.78
13.56
10.99
8.23
5.52
3.06
0.92
-0.96
-2.73
-4.55
-6.53
-8.69
-10.94
-13.20
-15.37
-17.43
-19.47
-21.67
-24.30
-27.62
-31.70
-36.31
-40.91
-44.70
-46.81
-46.57
-43.68
-38.26
-30.84
-22.18
-13.10
-4.34
3.61
10.41
15.90
20.01
22.74
24.17
24.43
23.79
22.60
21.26
20.15
19.49
19.37
19.71
20.29
20.93
21.47
21.85
22.05
22.08
21.85
21.27
20.22
18.61
16.45
13.89
11.12
8.39
5.88
3.61
1.47
-0.77
-3.30
-6.12
-9.09
-11.88
-14.20
-15.94
-17.30
-18.67
-20.49
-23.10
-26.55
-30.63
-34.92
-38.84
-41.78
-43.12
-42.42
-39.46
-34.35
-27.48
-19.48
-11.05
-2.85
4.56
10.79
15.62
19.03
21.15
22.20
22.40
21.96
21.01
19.75
18.42
17.30
16.67
16.64
17.18
18.09
19.09
19.94
20.47
20.62
20.31
19.47
18.05
16.04
13.58
10.86
8.14
5.61
3.36
1.32
-0.65
-2.70
-4.95
-7.37
-9.88
-12.32
-14.62
-16.76
-18.84
-21.02
-23.55
-26.67
-30.50
-35.00
-39.77
-44.17
-47.35
-48.51
-47.13
-43.08
-36.69
-28.57
-19.56
-10.49
-2.09
5.08
10.73
14.81
17.55
19.27
20.33
20.98
21.36
21.53
21.56
21.58
21.73
22.10
22.65
23.29
23.90
24.43
24.92
25.41
25.88
26.12
25.83
24.66
22.44
19.25
15.45
11.59
8.17
5.48
3.51
1.99
0.49
-1.34
-3.66
-6.38
-9.25
-11.97
-14.39
-16.53
-18.59
-20.85
-23.57
-26.94
-30.99
-35.53
-40.12
-44.04
-46.38
-46.33
-43.40
-37.67
-29.77
-20.76
-11.68
-3.40
3.63
9.29
13.64
16.79
18.82
19.85
20.05
19.74
19.31
19.11
19.37
20.17
21.38
22.81
24.28
25.60
26.68
27.42
27.75
27.62
27.01
25.91
24.39
22.57
20.54
18.41
16.24
14.08
11.96
9.90
7.93
6.03
4.15
2.21
0.11
-2.18
-4.62
-7.10
-9.49
-11.69
-13.74
-15.77
-18.03
-20.76
-24.19
-28.37
-33.12
-37.96
-42.14
-44.80
-45.14
-42.70
-37.48
-30.00
-21.09
-11.67
-2.63
5.38
11.89
16.70
19.77
21.27
21.47
20.80
19.67
18.43
17.37
16.61
16.23
16.21
16.47
16.92
17.42
17.87
18.14
18.21
18.02
17.59
16.88
15.89
14.55
12.85
10.81
8.48
5.99
3.43
0.87
-1.69
-4.23
-6.74
-9.13
-11.33
-13.30
-15.12
-16.94
-19.00
-21.58
-24.87
-28.93
-33.54
-38.19
-42.16
-44.61
-44.88
-42.57
-37.72
-30.74
-22.31
-13.22
-4.24
4.00
11.05
16.63
20.59
22.88
23.65
23.12
21.69
19.92
18.34
17.36
17.14
17.55
18.32
19.16
19.94
20.63
21.29
21.90
22.36
22.48
22.09
21.15
19.68
17.81
15.66
13.40
11.10
8.81
6.50
4.08
1.48
-1.33
-4.28
-7.20
-9.94
-12.46
-14.80
-17.11
-19.54
-22.22
-25.21
-28.57
-32.37
-36.64
-41.25
-45.79
-49.54
-51.59
-51.09
-47.57
-41.18
-32.66
-23.16
-13.85
-5.53
1.47
7.31
12.32
16.70
20.42
23.19
24.75
25.05
24.38
23.28
22.34
21.92
22.12
22.74
23.51
24.21
24.75
25.14
25.40
25.50
25.32
24.75
23.75
22.41
20.87
19.23
17.53
15.71
13.74
11.62
9.44
7.31
5.25
3.20
0.98
-1.57
-4.45
-7.51
-10.50
-13.21
-15.57
-17.72
-19.94
-22.60
-25.95
-30.10
-34.95
-40.10
-44.90
-48.48
-49.98
-48.71
-44.43
-37.43
-28.46
-18.58
-8.82
-0.07
7.20
12.85
17.03
20.03
22.14
23.57
24.45
24.86
24.95
24.87
24.80
24.81
24.91
25.05
25.22
25.45
25.82
26.33
26.90
27.33
27.39
26.97
26.03
24.67
23.01
21.20
19.30
17.38
15.44
13.46
11.44
9.33
7.15
4.86
2.41
-0.22
-3.04
-5.98
-8.90
-11.63
-14.04
-16.12
-17.98
-19.82
-21.87
-24.32
-27.29
-30.85
-34.93
-39.25
-43.27
-46.19
-47.19
-45.59
-41.21
-34.35
-25.79
-16.51
-7.44
0.71
7.54
12.95
16.98
19.76
21.40
22.04
21.86
21.11
20.07
19.03
18.20
17.73
17.63
17.83
18.24
18.78
19.36
19.90
20.27
20.33
19.91
18.90
17.34
15.30
12.98
10.56
8.23
6.08
4.07
2.10
0.01
-2.30
-4.85
-7.52
-10.16
-12.60
-14.77
-16.73
-18.60
-20.64
-23.08
-26.11
-29.80
-34.00
-38.26
-41.90
-44.09
-44.06
-41.37
-36.04
-28.55
-19.74
-10.51
-1.68
6.21
12.86
18.14
21.97
24.27
25.02
24.40
22.82
20.90
19.25
18.27
18.04
18.34
18.82
19.19
19.33
19.33
19.35
19.48
19.71
19.85
19.64
18.83
17.27
14.99
12.21
9.26
6.49
4.12
2.13
0.34
-1.52
-3.71
-6.29
-9.18
-12.18
-15.07
-17.68
-20.01
-22.14
-24.26
-26.65
-29.54
-33.06
-37.06
-41.13
-44.54
-46.48
-46.23
-43.47
-38.31
-31.28
-23.11
-14.55
-6.25
1.36
7.91
13.15
16.97
19.42
20.71
21.15
21.05
20.64
20.10
19.58
19.26
19.31
19.82
20.71
21.75
22.70
23.36
23.66
23.69
23.52
23.19
22.60
21.61
20.12
18.16
15.89
13.51
11.16
8.86
6.49
3.86
0.86
-2.50
-6.07
-9.62
-12.90
-15.80
-18.35
-20.72
-23.20
-26.09
-29.62
-33.84
-38.53
-43.16
-46.96
-49.02
-48.58
-45.20
-38.98
-30.55
-20.88
-11.05
-1.92
6.01
12.58
17.86
21.96
24.94
26.88
27.92
28.41
28.72
29.18
29.92
30.77
31.41
31.55
31.11
30.28
29.36
28.66
28.26
28.02
27.64
26.81
25.35
23.25
20.65
17.72
14.65
11.51
8.34
5.13
1.87
-1.39
-4.57
-7.55
-10.21
-12.55
-14.69
-16.84
-19.28
-22.21
-25.72
-29.67
-33.77
-37.51
-40.27
-41.44
-40.49
-37.23
-31.80
-24.73
-16.77
-8.73
-1.28
5.18
10.47
14.54
17.41
19.13
19.77
19.50
18.57
17.28
15.91
14.64
13.63
12.99
12.84
13.27
14.23
15.47
16.60
17.17
16.91
15.77
14.00
11.94
9.87
7.88
5.87
3.65
1.05
-1.93
-5.13
-8.32
-11.26
-13.86
-16.19
-18.45
-20.91
-23.79
-27.16
-30.90
-34.63
-37.81
-39.78
-39.95
-37.90
-33.55
-27.16
-19.30
-10.76
-2.33
5.32
11.74
16.73
20.25
22.45
23.52
23.67
23.10
22.04
20.69
19.32
18.12
17.26
16.83
16.82
17.12
17.58
17.97
18.07
17.68
16.72
15.24
13.39
11.33
9.21
7.07
4.83
2.35
-0.44
-3.52
-6.78
-10.03
-13.09
-15.86
-18.34
-20.71
-23.26
-26.26
-29.91
-34.14
-38.64
-42.77
-45.75
-46.82
-45.43
-41.44
-35.14
-27.23
-18.57
-9.95
-2.00
4.94
10.67
15.07
18.09
19.75
20.20
19.77
18.91
18.06
17.53
17.46
17.81
18.45
19.22
19.99
20.71
21.34
21.82
22.04
21.86
21.11
19.72
17.73
15.31
12.70
10.10
7.56
5.06
2.46
-0.33
-3.29
-6.29
-9.13
-11.66
-13.84
-15.82
-17.90
-20.36
-23.49
-27.32
-31.74
-36.44
-40.91
-44.55
-46.74
-46.85
-44.49
-39.56
-32.42
-23.83
-14.77
-6.17
1.32
7.42
12.19
15.84
18.54
20.44
21.60
22.11
22.19
22.09
22.07
22.31
22.79
23.37
23.84
24.00
23.80
23.29
22.65
22.04
21.46
20.78
19.75
18.17
16.04
13.56
11.08
8.91
7.13
5.56
3.89
1.80
-0.81
-3.85
-7.04
-10.08
-12.80
-15.22
-17.52
-19.97
-22.87
-26.41
-30.58
-35.10
-39.37
-42.63
-44.07
-43.10
-39.51
-33.54
-25.80
-17.10
-8.25
0.10
7.50
13.65
18.36
21.50
23.05
23.12
22.03
20.27
18.38
16.80
15.78
15.38
15.50
16.02
16.81
17.76
18.68
19.36
19.54
19.05
17.86
16.10
14.02
11.86
9.75
7.73
5.69
3.48
1.00
-1.79
-4.81
-7.88
-10.82
-13.51
-16.00
-18.47
-21.23
-24.49
-28.31
-32.41
-36.27
-39.19
-40.48
-39.63
-36.42
-31.01
-23.91
-15.85
-7.61
0.07
6.73
12.15
16.27
19.13
20.78
21.29
20.84
19.74
18.42
17.33
16.81
16.97
17.71
18.76
19.89
20.92
21.73
22.26
22.41
22.08
21.21
19.85
18.11
16.12
13.99
11.66
9.09
6.25
3.20
0.14
-2.77
-5.45
-7.99
-10.59
-13.50
-16.88
-20.77
-25.11
-29.74
-34.33
-38.39
-41.21
-42.05
-40.33
-35.92
-29.23
-21.14
-12.74
-4.96
1.60
6.81
10.84
13.91
16.16
17.54
17.95
17.36
15.99
14.30
12.82
11.98
11.91
12.46
13.29
14.11
14.74
15.15
15.35
15.28
14.81
13.79
12.18
10.08
7.68
5.16
2.62
0.09
-2.43
-4.96
-7.47
-9.95
-12.39
-14.85
-17.37
-20.07
-23.09
-26.54
-30.49
-34.76
-38.94
-42.25
-43.83
-42.95
-39.28
-33.11
-25.20
-16.58
-8.18
-0.65
5.75
10.96
15.03
17.97
19.76
20.50
20.43
20.00
19.66
19.74
20.34
21.32
22.39
23.28
23.79
23.86
23.55
22.96
22.23
21.47
20.71
19.85
18.68
16.96
14.57
11.60
8.29
4.99
1.95
-0.77
-3.33
-5.98
-8.97
-12.45
-16.45
-20.97
-25.91
-31.05
-35.89
-39.63
-41.39
-40.36
-36.28
-29.53
-21.03
-11.99
-3.46
3.92
9.92
14.65
18.25
20.86
22.50
23.20
23.09
22.34
21.28
20.23
19.45
19.12
19.28
19.81
20.50
21.11
21.45
21.38
20.85
19.87
18.47
16.69
14.58
12.20
9.61
6.86
3.98
1.04
-1.90
-4.80
-7.64
-10.45
-13.35
-16.48
-19.93
-23.79
-28.06
-32.64
-37.24
-41.38
-44.35
-45.40
-43.96
-39.79
-33.17
-24.77
-15.57
-6.49
1.71
8.61
14.08
18.15
20.94
22.56
23.17
22.95
22.18
21.19
20.32
19.77
19.62
19.79
20.13
20.46
20.65
20.60
20.26
19.60
18.63
17.38
15.92
14.28
12.46
10.38
7.94
5.12
2.02
-1.18
-4.22
-6.99
-9.51
-11.98
-14.68
-17.89
-21.73
-26.16
-30.85
-35.30
-38.82
-40.71
-40.40
-37.62
-32.55
-25.71
-17.87
-9.82
-2.19
4.61
10.36
14.94
18.25
20.24
20.95
20.58
19.48
18.06
16.73
15.78
15.37
15.49
15.99
16.64
17.19
17.43
17.29
16.81
16.06
15.14
14.05
12.72
11.07
9.04
6.67
4.03
1.24
-1.59
-4.37
-7.07
-9.75
-12.53
-15.66
-19.37
-23.79
-28.74
-33.72
-37.90
-40.39
-40.45
-37.76
-32.48
-25.24
-16.94
-8.48
-0.57
6.37
12.17
16.83
20.34
22.66
23.77
23.71
22.71
21.18
19.62
18.45
17.88
17.84
18.09
18.32
18.33
18.07
17.65
17.12
16.50
15.62
14.31
12.42
9.99
7.18
4.24
1.37
-1.37
-4.03
-6.72
-9.49
-12.30
-15.13
-18.04
-21.22
-24.90
-29.16
-33.75
-38.02
-41.06
-42.00
-40.22
-35.67
-28.74
-20.26
-11.14
-2.26
5.70
12.30
17.31
20.68
22.53
23.08
22.62
21.46
19.90
18.19
16.60
15.39
14.72
14.67
15.13
15.83
16.48
16.83
16.83
16.57
16.15
15.63
14.92
13.85
12.23
9.94
7.03
3.62
-0.03
-3.66
-7.06
-10.08
-12.78
-15.33
-18.04
-21.15
-24.84
-28.98
-33.20
-36.85
-39.13
-39.31
-36.94
-32.06
-25.17
-17.11
-8.82
-1.06
5.67
11.17
15.40
18.35
20.04
20.50
19.81
18.23
16.15
14.08
12.48
11.63
11.56
12.06
12.76
13.33
13.59
13.59
13.42
13.15
12.67
11.74
10.14
7.80
4.89
1.73
-1.39
-4.32
-7.08
-9.84
-12.78
-16.06
-19.74
-23.81
-28.14
-32.48
-36.32
-39.02
-39.87
-38.36
-34.33
-28.06
-20.21
-11.62
-3.13
4.58
11.01
15.93
19.31
21.30
22.13
22.11
21.47
20.41
19.10
17.71
16.45
15.53
15.05
14.92
14.89
14.68
14.12
13.26
12.31
11.48
10.82
10.12
9.02
7.21
4.58
1.33
-2.15
-5.53
-8.66
-11.64
-14.77
-18.36
-22.54
-27.20
-31.98
-36.35
-39.67
-41.30
-40.78
-37.87
-32.69
-25.66
-17.43
-8.81
-0.54
6.75
12.68
17.06
19.89
21.27
21.43
20.61
19.15
17.40
15.74
14.44
13.66
13.41
13.57
13.97
14.44
14.86
15.14
15.16
14.79
13.89
12.31
10.04
7.12
3.76
0.19
-3.31
-6.55
-9.46
-12.16
-14.91
-18.06
-21.91
-26.54
-31.78
-37.06
-41.55
-44.28
-44.42
-41.58
-35.89
-28.02
-18.94
-9.73
-1.22
6.03
11.84
16.19
19.19
21.00
21.78
21.76
21.20
20.38
19.54
18.83
18.31
17.95
17.71
17.53
17.37
17.20
17.01
16.70
16.06
14.85
12.83
9.91
6.22
2.13
-1.95
-5.66
-8.89
-11.79
-14.64
-17.81
-21.56
-26.01
-31.03
-36.25
-41.01
-44.40
-45.47
-43.48
-38.26
-30.31
-20.70
-10.71
-1.44
6.49
12.88
17.84
21.46
23.79
24.80
24.60
23.53
22.14
21.02
20.61
20.99
21.96
23.11
24.01
24.37
24.09
23.28
22.20
21.09
20.07
19.02
17.61
15.46
12.34
8.33
3.85
-0.56
-4.42
-7.60
-10.31
-13.03
-16.24
-20.25
-25.09
-30.53
-36.09
-41.11
-44.76
-46.23
-44.87
-40.39
-33.09
-23.77
-13.59
-3.67
5.09
12.25
17.74
21.74
24.48
26.19
27.03
27.22
27.00
26.64
26.36
26.29
26.43
26.75
27.22
27.79
28.41
28.96
29.27
29.16
28.53
27.40
25.90
24.16
22.21
20.05
17.55
14.68
11.44
7.93
4.25
0.49
-3.30
-7.04
-10.64
-14.04
-17.23
-20.36
-23.67
-27.43
-31.75
-36.41
-40.80
-44.03
-45.11
-43.36
-38.56
-31.13
-21.96
-12.15
-2.71
5.66
12.64
18.16
22.31
25.11
26.59
26.79
25.85
24.11
22.02
20.15
18.94
18.62
19.10
20.04
21.01
21.62
21.70
21.31
20.60
19.70
18.60
17.21
15.38
13.05
10.21
6.93
3.30
-0.57
-4.53
-8.37
-11.82
-14.78
-17.31
-19.72
-22.43
-25.77
-29.80
-34.22
-38.40
-41.47
-42.65
-41.37
-37.41
-31.00
-22.69
-13.30
-3.75
5.08
12.55
18.25
22.08
24.16
24.75
24.20
22.87
21.17
19.47
18.13
17.40
17.35
17.89
18.74
19.56
20.07
20.17
19.85
19.19
18.23
16.98
15.42
13.51
11.26
8.69
5.87
2.79
-0.52
-4.01
-7.57
-11.06
-14.36
-17.47
-20.55
-23.90
-27.82
-32.39
-37.34
-41.97
-45.31
-46.40
-44.60
-39.79
-32.44
-23.45
-13.85
-4.56
3.81
10.97
16.82
21.37
24.61
26.49
27.08
26.58
25.39
24.01
22.93
22.48
22.73
23.52
24.52
25.45
26.13
26.55
26.79
26.88
26.71
26.05
24.67
22.47
19.60
16.42
13.33
10.65
8.40
6.38
4.24
1.69
-1.41
-5.00
-8.85
-12.67
-16.20
-19.28
-21.90
-24.22
-26.55
-29.28
-32.73
-36.98
-41.75
-46.34
-49.76
-50.98
-49.25
-44.34
-36.65
-27.05
-16.66
-6.53
2.62
10.42
16.81
21.87
25.72
28.45
30.16
31.04
31.32
31.30
31.21
31.10
30.95
30.64
30.10
29.38
28.59
27.92
27.45
27.18
26.96
26.58
25.78
24.38
22.28
19.53
16.31
12.86
9.43
6.20
3.27
0.65
-1.69
-3.82
-5.83
-7.94
-10.34
-13.20
-16.49
-19.94
-23.19
-25.95
-28.19
-30.25
-32.64
-35.81
-39.88
-44.44
-48.63
-51.40
-51.84
-49.41
-44.16
-36.58
-27.53
-17.95
-8.68
-0.31
6.82
12.54
16.82
19.61
20.99
21.17
20.51
19.43
18.32
17.34
16.50
15.78
15.22
14.98
15.24
16.05
17.20
18.28
18.86
18.65
17.67
16.17
14.50
12.93
11.52
10.19
8.74
7.03
4.93
2.49
-0.23
-3.12
-6.03
-8.91
-11.69
-14.36
-16.93
-19.44
-21.97
-24.65
-27.59
-30.75
-33.87
-36.41
-37.71
-37.15
-34.44
-29.66
-23.25
-15.83
-8.08
-0.60
6.10
11.60
15.63
18.09
19.11
18.98
18.12
16.88
15.50
14.07
12.66
11.36
10.29
9.63
9.50
9.91
10.70
11.57
12.20
12.31
11.79
10.69
9.16
7.38
5.42
3.30
0.96
-1.64
-4.45
-7.36
-10.19
-12.81
-15.24
-17.57
-20.04
-22.87
-26.23
-30.08
-34.10
-37.69
-40.09
-40.55
-38.63
-34.29
-28.01
-20.52
-12.69
-5.23
1.46
7.19
11.90
15.59
18.18
19.60
19.86
19.13
17.73
16.09
14.56
13.42
12.69
12.28
11.99
11.67
11.28
10.90
10.63
10.47
10.29
9.87
8.96
7.43
5.32
2.80
0.07
-2.71
-5.43
-8.05
-10.56
-12.96
-15.31
-17.74
-20.48
-23.78
-27.80
-32.46
-37.39
-41.92
-45.20
-46.45
-45.10
-41.01
-34.50
-26.26
-17.17
-8.13
0.12
7.04
12.37
16.11
18.41
19.56
19.85
19.54
18.81
17.86
16.87
16.07
15.64
15.67
16.04
16.55
16.94
17.04
16.82
16.34
15.64
14.71
13.50
11.92
9.99
7.83
5.57
3.33
1.11
-1.19
-3.66
-6.36
-9.25
-12.24
-15.23
-18.17
-21.11
-24.19
-27.58
-31.40
-35.60
-39.83
-43.39
-45.35
-44.86
-41.37
-34.96
-26.33
-16.62
-7.03
1.50
8.43
13.70
17.46
19.97
21.45
22.04
21.87
21.14
20.07
18.94
18.02
17.45
17.26
17.38
17.67
18.03
18.36
18.69
18.99
19.24
19.32
19.04
18.18
16.60
14.31
11.44
8.21
4.84
1.53
-1.67
-4.78
-7.85
-10.88
-13.81
-16.57
-19.14
-21.66
-24.35
-27.50
-31.22
-35.30
-39.18
-42.01
-42.89
-41.14
-36.57
-29.52
-20.78
-11.39
-2.36
5.50
11.77
16.34
19.35
21.06
21.76
21.69
21.04
20.03
18.90
17.94
17.37
17.34
17.78
18.46
19.07
19.35
19.23
18.81
18.28
17.77
17.24
16.44
15.09
12.97
10.08
6.65
3.04
-0.39
-3.45
-6.14
-8.68
-11.37
-14.45
-18.06
-22.17
-26.62
-31.15
-35.42
-39.00
-41.39
-42.01
-40.40
-36.38
-30.10
-22.14
-13.30
-4.45
3.72
10.72
16.34
20.51
23.21
24.48
24.42
23.24
21.27
18.94
16.77
15.19
14.48
14.68
15.57
16.74
17.80
18.46
18.61
18.28
17.52
16.29
14.50
12.08
9.10
5.75
2.30
-1.04
-4.17
-7.13
-9.93
-12.62
-15.21
-17.81
-20.62
-23.90
-27.86
-32.51
-37.57
-42.40
-46.19
-48.09
-47.46
-44.01
-37.91
-29.72
-20.28
-10.49
-1.11
7.32
14.50
20.24
24.46
27.16
28.44
28.52
27.77
26.65
25.58
24.93
24.87
25.38
26.25
27.23
28.14
28.95
29.73
30.51
31.22
31.61
31.33
30.11
27.86
24.76
21.20
17.60
14.31
11.43
8.91
6.48
3.85
0.83
-2.64
-6.43
-10.27
-13.88
-17.05
-19.80
-22.35
-25.12
-28.55
-33.00
-38.50
-44.74
-50.95
-56.04
-58.86
-58.48
-54.49
-47.14
-37.28
-26.15
-14.96
-4.66
4.22
11.52
17.32
21.73
24.80
26.63
27.40
27.48
27.36
27.50
28.16
29.29
30.60
31.75
32.55
33.00
33.27
33.53
33.75
33.75
33.29
32.22
30.61
28.68
26.70
24.80
22.97
21.03
18.83
16.25
13.38
10.36
7.41
4.75
2.45
0.48
-1.32
-3.18
-5.30
-7.80
-10.64
-13.69
-16.75
-19.66
-22.37
-24.95
-27.56
-30.49
-34.05
-38.47
-43.73
-49.41
-54.62
-58.10
-58.63
-55.41
-48.37
-38.23
-26.30
-14.06
-2.79
6.72
14.17
19.69
23.57
26.15
27.71
28.47
28.63
28.40
28.00
27.64
27.45
27.49
27.75
28.15
28.66
29.21
29.77
30.26
30.63
30.76
30.57
29.91
28.67
26.74
24.15
21.02
17.63
14.31
11.30
8.73
6.50
4.36
1.99
-0.79
-4.00
-7.42
-10.70
-13.54
-15.81
-17.69
-19.56
-21.87
-24.96
-28.93
-33.60
-38.51
-42.97
-46.20
-47.44
-46.09
-41.95
-35.23
-26.60
-16.95
-7.22
1.81
9.59
15.86
20.48
23.44
24.86
24.96
24.11
22.78
21.45
20.47
19.97
19.90
20.09
20.37
20.68
21.08
21.66
22.39
23.08
23.43
23.12
21.97
20.05
17.59
14.97
12.50
10.36
8.52
6.80
4.93
2.73
0.11
-2.83
-5.91
-8.93
-11.75
-14.35
-16.81
-19.28
-21.97
-25.08
-28.82
-33.27
-38.36
-43.71
-48.56
-51.91
-52.80
-50.57
-45.16
-37.16
-27.57
-17.54
-8.00
0.53
7.85
13.96
18.89
22.60
25.01
26.11
26.04
25.15
23.87
22.63
21.79
21.56
21.98
22.93
24.16
25.34
26.14
26.33
25.88
24.95
23.78
22.59
21.43
20.20
18.73
16.91
14.76
12.39
9.96
7.50
4.97
2.28
-0.60
-3.62
-6.66
-9.62
-12.47
-15.27
-18.06
-20.83
-23.52
-26.02
-28.37
-30.73
-33.43
-36.81
-41.00
-45.82
-50.60
-54.34
-55.97
-54.65
-50.03
-42.40
-32.58
-21.70
-10.89
-1.00
7.39
14.05
18.96
22.25
24.12
24.89
24.88
24.46
23.92
23.45
23.18
23.12
23.27
23.62
24.13
24.71
25.29
25.79
26.13
26.21
25.92
25.15
23.82
21.97
19.80
17.58
15.58
13.90
12.43
10.93
9.11
6.90
4.44
1.98
-0.22
-2.13
-3.95
-5.98
-8.46
-11.38
-14.53
-17.58
-20.32
-22.74
-25.09
-27.70
-30.88
-34.76
-39.22
-43.94
-48.31
-51.58
-52.86
-51.42
-46.89
-39.47
-29.90
-19.33
-8.87
0.61
8.70
15.28
20.38
23.95
25.91
26.26
25.21
23.29
21.13
19.33
18.23
17.89
18.12
18.71
19.48
20.32
21.18
21.99
22.64
22.99
22.90
22.27
21.08
19.39
17.31
15.02
12.67
10.37
8.17
6.01
3.77
1.32
-1.45
-4.55
-7.91
-11.32
-14.58
-17.47
-19.93
-22.06
-24.15
-26.58
-29.69
-33.61
-38.14
-42.77
-46.69
-49.01
-48.95
-46.04
-40.28
-32.14
-22.50
-12.36
-2.66
5.93
13.04
18.57
22.52
24.89
25.73
25.21
23.70
21.73
19.94
18.84
18.63
19.22
20.22
21.26
22.05
22.57
22.93
23.24
23.44
23.28
22.40
20.58
17.82
14.45
10.93
7.63
4.67
1.84
-1.18
-4.64
-8.52
-12.57
-16.44
-19.87
-22.77
-25.25
-27.54
-29.87
-32.44
-35.49
-39.15
-43.41
-47.92
-51.92
-54.36
-54.22
-50.86
-44.35
-35.39
-25.11
-14.68
-4.94
3.60
10.74
16.42
20.63
23.39
24.83
25.21
24.88
24.25
23.63
23.23
23.16
23.41
23.93
24.69
25.63
26.71
27.88
29.03
29.98
30.43
30.10
28.74
26.36
23.13
19.45
15.77
12.41
9.55
7.15
4.97
2.73
0.16
-2.86
-6.28
-9.88
-13.41
-16.62
-19.43
-21.90
-24.26
-26.82
-29.91
-33.79
-38.56
-44.11
-50.01
-55.53
-59.62
-61.20
-59.38
-53.86
-45.01
-33.90
-21.95
-10.52
-0.50
7.75
14.34
19.51
23.44
26.13
27.55
27.82
27.32
26.59
26.17
26.33
27.05
28.05
29.00
29.74
30.26
30.67
31.08
31.42
31.50
31.04
29.84
27.87
25.27
22.32
19.30
16.41
13.72
11.18
8.76
6.40
4.10
1.79
-0.65
-3.38
-6.50
-9.94
-13.44
-16.64
-19.32
-21.48
-23.47
-25.83
-29.12
-33.65
-39.38
-45.85
-52.19
-57.30
-60.02
-59.46
-55.21
-47.53
-37.33
-25.88
-14.44
-3.95
5.05
12.39
18.04
22.01
24.29
25.05
24.62
23.52
22.25
21.16
20.30
19.53
18.64
17.54
16.29
15.05
13.97
13.10
12.40
11.70
10.85
9.71
8.20
6.29
4.02
1.47
-1.23
-3.89
-6.41
-8.65
-10.63
-12.34
-13.83
-15.12
-16.19
-16.96
-17.33
-17.29
-16.89
-16.32
-15.81
-15.50
-15.35
-15.16
-14.61
-13.45
-11.70
-9.51
-7.09
-4.36
-0.80
4.58
12.85
24.77
40.39
58.97
79.18
99.52
118.63
135.41
148.85
157.96
161.97
160.96
156.37
150.99
147.92
149.11
154.20
160.58
164.74
164.26
159.33
152.64
148.00
148.33
154.20
163.84
174.16
182.39
187.01
187.94
185.87
181.58
175.58
168.29
160.42
153.18
147.96
145.73
146.41
148.60
150.12
149.00
144.42
137.02
128.26
119.34
110.08
98.72
82.61
59.50
28.91
-7.41
-45.71
-81.29
-109.75
-128.14
-135.53
-133.17
-123.96
-111.53
-99.16
-88.94
-81.58
-76.75
-73.76
-71.85
-70.21
-67.65
-62.67
-53.95
-41.32
-26.33
-11.98
-1.58
2.71
0.85
-5.29
-13.07
-20.48
-27.05
-33.63
-41.75
-52.67
-67.00
-84.71
-105.23
-127.59
-150.51
-172.47
-192.07
-208.35
-221.07
-230.65
-237.97
-244.01
-249.53
-254.91
-259.89
-263.48
-264.01
-259.24
-247.04
-226.00
-196.15
-159.16
-118.14
-77.09
-40.10
-10.45
10.22
22.64
30.03
37.30
49.32
68.72
94.36
121.38
143.04
153.45
149.84
133.16
107.04
75.90
43.51
12.85
-13.12
-30.85
-36.45
-26.97
-1.95
35.74
80.36
124.88
162.83
189.81
204.07
206.37
199.20
185.84
169.36
151.73
133.46
113.59
90.01
59.99
20.98
-28.34
-86.66
-149.09
-207.33
-251.73
-274.70
-274.12
-254.72
-226.40
-200.27
-184.17
-180.20
-185.24
-193.79
-201.21
-205.50
-206.92
-206.28
-203.38
-196.84
-185.07
-167.78
-146.69
-125.15
-106.74
-93.69
-86.18
-82.38
-79.60
-75.51
-69.11
-60.92
-52.45
-45.26
-40.19
-37.00
-34.64
-31.84
-27.73
-22.25
-16.08
-10.33
-5.97
-3.44
-2.44
-2.14
-1.71
-0.66
0.85
2.24
2.92
2.71
2.03
1.71
2.61
5.23
9.49
14.67
19.64
23.16
24.22
22.41
18.08
12.27
6.42
1.91
-0.42
-0.46
1.20
3.68
6.16
8.17
9.63
10.71
11.65
12.59
13.54
14.41
15.07
15.46
15.59
15.52
15.31
14.95
14.39
13.56
12.51
11.43
10.70
10.64
11.45
13.06
15.13
17.24
19.08
20.56
21.83
23.14
24.68
26.48
28.47
30.55
32.79
35.35
38.42
42.09
46.25
50.72
55.41
60.47
66.36
73.69
82.90
93.91
106.04
118.17
129.27
138.69
146.32
152.28
156.47
158.30
156.78
151.12
141.23
128.09
113.38
98.93
86.05
75.29
66.56
59.39
53.20
47.22
40.45
31.71
19.97
4.71
-13.82
-34.74
-57.00
-79.82
-102.91
-126.27
-149.82
-173.14
-195.36
-215.25
-231.43
-242.53
-247.34
-245.09
-235.73
-220.36
-200.83
-179.12
-156.58
-133.36
-108.43
-80.39
-48.71
-14.92
17.16
42.92
58.91
64.30
60.94
52.04
40.22
26.40
9.92
-10.59
-34.71
-59.47
-80.36
-93.66
-98.37
-96.49
-91.57
-86.95
-85.94
-89.48
-96.27
-104.18
-111.94
-119.74
-128.58
-138.80
-150.02
-164.56
-183.24
-204.80
-226.24
-244.75
-259.10
-269.48
-276.10
-279.75
-286.67
-300.90
-322.34
-346.77
-368.97
-385.69
-395.95
-399.45
-397.46
-398.39
-407.57
-424.65
-443.94
-458.77
-465.56
-464.19
-455.50
-393.37
-255.64
-52.73
174.53
381.68
542.55
650.75
707.19
729.22
729.59
710.26
673.56
625.29
574.54
530.36
497.30
475.18
461.90
453.27
440.48
418.25
386.54
350.15
315.07
285.16
261.63
244.65
232.47
219.82
203.07
181.53
157.57
134.60
115.05
99.84
89.24
82.10
75.52
67.36
56.98
45.30
33.76
23.33
14.36
7.14
1.52
-3.09
-7.12
-10.69
-13.75
-16.19
-18.00
-19.19
-19.61
-19.34
-18.60
-17.82
-17.50
-18.00
-19.35
-21.28
-23.33
-25.04
-26.06
-26.15
-25.22
-23.20
-20.24
-16.61
-12.80
-9.28
-6.41
-4.30
-2.81
-1.72
-0.87
-0.26
-0.01
-0.23
-0.89
-1.74
-2.40
-2.53
-1.99
-0.90
0.37
1.37
1.69
1.14
-0.24
-2.22
-4.55
-6.98
-9.38
-11.68
-13.84
-15.81
-17.59
-19.17
-20.62
-22.01
-23.44
-24.93
-26.42
-27.80
-29.01
-30.07
-31.08
-32.21
-33.64
-35.41
-37.38
-39.15
-40.13
-39.70
-37.40
-33.15
-27.32
-20.61
-13.80
-7.58
-2.35
1.78
4.92
7.23
8.88
10.10
11.10
12.16
13.52
15.26
17.27
19.25
20.88
21.86
22.07
21.64
20.81
19.88
19.05
18.39
17.83
17.24
16.52
15.64
14.59
13.36
11.85
9.87
7.20
3.71
-0.60
-5.56
-10.90
-16.33
-21.47
-25.93
-29.13
-30.47
-29.42
-25.81
-19.97
-12.70
-5.04
2.11
8.28
13.44
17.84
21.68
24.91
27.29
28.52
28.48
27.38
25.59
23.60
21.76
20.30
19.34
18.93
19.11
19.82
20.93
22.19
23.27
23.83
23.64
22.57
20.68
18.17
15.28
12.24
9.15
6.01
2.81
-0.46
-3.72
-6.82
-9.65
-12.26
-14.88
-17.90
-21.68
-26.32
-31.47
-36.33
-39.81
-40.79
-38.56
-32.91
-24.35
-13.79
-2.36
8.92
19.31
28.44
36.22
42.77
48.31
53.08
57.18
60.60
63.16
64.68
65.03
64.22
62.40
59.86
56.84
53.54
50.07
46.47
42.84
39.37
36.36
34.10
32.77
32.34
32.58
33.02
33.06
32.08
29.61
25.43
19.70
12.96
6.04
-0.18
-5.01
-8.17
-9.89
-10.74
-11.32
-11.94
-12.50
-12.58
-11.71
-9.65
-6.57
-2.95
0.59
3.58
5.89
7.65
9.20
10.86
12.76
14.84
16.93
18.77
20.17
21.01
21.23
20.80
19.66
17.77
15.15
11.95
8.53
5.41
3.13
2.12
2.48
3.86
5.54
6.53
5.97
3.46
-0.62
-5.13
-8.45
-8.98
-5.77
1.03
10.15
19.33
25.89
27.47
22.83
12.28
-2.28
-17.98
-31.95
-42.37
-48.96
-52.81
-55.78
-59.42
-64.47
-70.37
-75.63
-78.23
-76.36
-69.06
-56.68
-41.00
-24.75
-10.79
-1.04
4.11
5.69
5.30
4.24
2.89
0.87
-2.38
-6.89
-11.93
-16.34
-19.13
-20.05
-19.64
-18.89
-18.69
-19.18
-19.74
-19.24
-16.59
-11.46
-4.57
2.52
7.94
10.28
9.16
5.22
-0.30
-6.23
-11.88
-17.09
-21.88
-26.11
-29.30
-30.78
-30.15
-27.50
-23.43
-18.82
-14.56
-11.26
-9.22
-8.37
-8.50
-9.17
-9.96
-10.40
-10.20
-9.21
-7.43
-4.99
-2.04
1.30
5.00
9.16
13.87
19.22
25.05
31.03
36.61
41.28
44.71
46.86
48.01
48.60
49.02
49.51
50.16
51.04
52.28
54.14
56.90
60.74
65.65
71.40
77.62
83.93
90.05
95.81
101.20
106.31
111.35
116.63
122.48
129.36
137.61
147.41
158.62
170.49
181.62
190.02
193.45
189.91
178.20
158.24
131.04
98.38
62.33
24.93
-12.08
-47.32
-79.81
-109.10
-135.24
-158.69
-180.00
-199.48
-216.96
-231.86
-243.34
-250.71
-253.63
-252.25
-247.15
-239.23
-229.59
-219.20
-208.76
-198.52
-188.33
-177.74
-166.33
-153.94
-140.72
-127.06
-113.40
-100.09
-87.30
-75.12
-63.59
-52.74
-42.64
-33.23
-24.42
-15.99
-7.73
0.50
8.51
15.76
21.42
24.52
24.35
20.70
13.97
5.18
-4.34
-13.29
-20.77
-26.43
-30.52
-33.67
-36.53
-39.60
-43.02
-46.61
-49.94
-52.54
-53.94
-53.93
-52.58
-50.25
-47.51
-44.97
-43.05
-41.88
-41.23
-40.66
-39.73
-38.14
-35.83
-32.85
-29.34
-25.46
-21.45
-17.67
-14.52
-12.40
-11.59
-12.15
-13.84
-16.15
-18.24
-19.21
-18.31
-15.16
-9.97
-3.44
3.39
9.57
14.46
17.98
20.32
21.82
22.79
23.49
24.32
25.81
28.43
32.23
36.64
40.49
42.53
42.12
39.48
35.60
31.62
28.03
24.41
19.66
12.71
3.25
-8.03
-19.62
-29.85
-37.34
-41.35
-41.67
-38.49
-32.24
-23.57
-13.34
-2.65
7.26
15.36
21.03
24.25
25.46
25.35
24.50
23.29
21.85
20.20
18.47
16.78
15.17
13.47
11.27
8.08
3.64
-1.97
-8.30
-14.69
-20.64
-25.95
-30.79
-35.58
-40.77
-46.53
-52.68
-58.63
-63.59
-66.82
-67.91
-67.07
-64.93
-62.65
-61.50
-62.44
-65.88
-71.28
-77.17
-81.20
-80.76
-73.86
-59.92
-40.21
-17.65
4.21
22.34
35.12
42.63
46.19
47.56
48.23
49.08
50.56
52.85
56.16
60.59
66.01
71.91
77.58
82.37
85.89
88.13
89.22
89.36
88.48
86.36
82.89
78.24
73.06
68.31
64.95
63.67
64.58
67.29
70.99
74.66
77.18
77.48
74.71
68.49
59.22
48.06
36.75
27.13
20.61
17.77
18.37
21.54
26.32
31.81
37.41
42.65
47.11
50.28
51.72
51.19
48.81
45.05
40.59
36.10
31.98
28.25
24.67
20.86
16.52
11.56
6.11
0.35
-5.55
-11.57
-17.78
-24.22
-30.81
-37.27
-43.17
-48.11
-51.88
-54.55
-56.42
-57.96
-59.56
-61.40
-63.48
-65.56
-67.36
-68.53
-68.67
-67.34
-64.20
-59.14
-52.54
-45.16
-37.98
-31.72
-26.59
-22.10
-17.40
-11.78
-5.11
2.04
8.60
13.60
16.55
17.60
17.41
16.75
16.14
15.82
15.84
16.25
17.17
18.70
20.69
22.66
23.90
23.90
22.58
20.40
18.19
16.70
16.20
16.34
16.38
15.51
13.29
9.77
5.40
0.81
-3.48
-7.21
-10.47
-13.59
-16.94
-20.81
-25.25
-30.00
-34.50
-37.98
-39.65
-38.88
-35.45
-29.58
-21.85
-13.05
-4.02
4.56
12.11
18.21
22.54
24.98
25.67
25.04
23.73
22.41
21.57
21.45
21.98
23.02
24.43
26.18
28.31
30.84
33.65
36.46
38.86
40.47
41.04
40.59
39.37
37.70
35.85
33.88
31.64
28.92
25.62
21.78
17.69
13.70
10.14
7.17
4.76
2.82
1.17
-0.37
-2.02
-4.03
-6.72
-10.32
-14.89
-20.20
-25.65
-30.40
-33.66
-34.98
-34.34
-32.10
-28.67
-24.30
-18.98
-12.64
-5.43
2.10
9.05
14.59
18.24
20.17
21.06
21.73
22.72
24.04
25.35
26.14
26.17
25.49
24.40
23.14
21.71
19.85
17.18
13.43
8.61
3.15
-2.27
-6.90
-10.19
-11.90
-12.26
-11.83
-11.33
-11.47
-12.73
-15.28
-18.94
-23.23
-27.57
-31.48
-34.76
-37.64
-40.72
-44.72
-50.09
-56.65
-63.60
-69.78
-73.93
-75.20
-73.21
-68.05
-60.12
-50.10
-38.84
-27.36
-16.67
-7.57
-0.41
4.91
8.83
11.85
14.39
16.69
18.95
21.42
24.36
27.95
32.06
36.21
39.73
41.94
42.46
41.33
38.89
35.63
31.97
28.22
24.62
21.48
19.18
17.98
17.87
18.41
18.84
18.39
16.61
13.49
9.38
4.66
-0.53
-6.34
-13.05
-20.72
-28.95
-36.87
-43.37
-47.05
-46.95
-42.95
-35.97
-27.00
-16.91
-6.44
3.70
12.92
21.19
28.52
34.75
39.24
41.85
42.87
42.93
42.74
42.90
44.73
48.98
55.42
62.11
68.15
73.33
77.99
82.15
85.53
90.04
96.84
105.45
111.66
114.57
115.19
115.74
117.22
119.51
126.79
141.36
162.01
179.47
190.92
197.34
202.27
207.46
213.02
226.14
251.03
286.12
316.69
338.12
352.08
365.25
382.86
408.77
455.79
530.89
630.01
728.00
809.96
868.88
906.65
927.26
869.51
705.24
451.98
232.30
74.71
-23.77
-94.15
-147.59
-190.94
-229.00
-254.81
-263.50
-256.56
-252.22
-256.17
-267.48
-280.82
-294.64
-309.56
-318.57
-316.58
-303.58
-292.86
-288.87
-291.44
-296.90
-303.93
-312.34
-317.13
-314.80
-305.44
-297.56
-293.69
-292.74
-290.97
-286.15
-277.40
-262.36
-240.07
-211.47
-181.48
-151.96
-123.17
-94.46
-66.37
-40.29
-16.84
3.49
20.34
32.59
40.52
44.99
47.11
47.65
47.07
45.93
44.67
43.26
40.83
35.66
25.77
9.72
-12.69
-40.45
-71.56
-103.75
-135.19
-165.08
-193.66
-221.91
-251.40
-284.04
-322.16
-367.06
-417.69
-469.91
-516.83
-550.42
-564.01
-554.46
-523.35
-477.44
-424.88
-372.35
-323.48
-279.30
-239.49
-203.57
-171.30
-142.66
-119.87
-103.61
-92.36
-83.27
-74.02
-63.92
-53.74
-44.58
-36.93
-34.19
-37.09
-43.41
-49.48
-53.27
-55.98
-60.87
-71.06
-87.75
-114.59
-150.78
-191.00
-227.35
-253.61
-267.73
-271.44
-268.55
-231.19
-150.38
-38.67
76.78
173.59
243.86
290.45
320.31
340.50
356.17
363.96
362.60
352.25
335.12
313.90
290.78
267.68
246.70
229.68
213.72
196.63
178.54
161.93
149.67
143.38
143.07
147.54
154.93
160.74
162.00
158.02
150.47
141.66
133.27
125.91
119.51
113.85
107.41
99.26
89.19
78.03
66.94
56.72
47.30
38.11
28.65
18.22
6.67
-5.78
-18.23
-29.38
-38.15
-44.16
-47.30
-47.01
-42.35
-32.50
-17.87
0.46
20.96
41.70
60.47
72.81
75.31
67.83
53.65
36.52
19.59
5.46
-3.09
-5.94
-4.12
0.10
3.33
1.40
-10.34
-34.51
-69.47
-109.91
-149.01
-180.07
-198.52
-203.16
-190.89
-165.40
-135.27
-109.09
-90.73
-78.90
-69.46
-59.33
-46.02
-29.19
-10.95
6.38
21.40
33.76
41.44
43.59
40.75
34.84
28.19
22.16
17.64
15.29
15.44
17.71
21.43
25.60
29.21
31.41
31.37
29.12
25.62
22.12
19.52
18.17
17.66
17.18
15.82
12.85
8.28
2.96
-1.85
-5.02
-5.85
-4.30
-0.88
3.58
8.21
12.41
16.01
19.10
21.89
24.52
27.02
29.25
30.96
32.00
32.33
32.16
31.76
31.38
31.18
31.11
30.96
30.55
29.72
28.46
26.92
25.29
23.78
22.45
21.33
20.34
19.40
18.42
17.39
16.33
15.28
14.28
13.32
12.32
11.20
9.87
8.25
6.37
4.30
2.16
0.06
-1.94
-3.84
-5.71
-7.62
-9.61
-11.62
-13.50
-15.15
-16.50
-17.59
-18.54
-19.46
-20.38
-21.31
-22.18
-22.98
-23.78
-24.70
-25.84
-27.15
-28.35
-29.00
-28.60
-26.78
-23.51
-19.06
-13.99
-8.93
-4.43
-0.81
1.83
3.67
4.98
6.03
7.04
8.13
9.27
10.43
11.54
12.57
13.46
14.19
14.70
14.96
14.98
14.84
14.62
14.41
14.26
14.16
14.13
14.22
14.52
15.07
15.86
16.76
17.60
18.15
18.23
17.73
16.56
14.77
12.44
9.75
6.93
4.21
1.75
-0.38
-2.25
-4.00
-5.83
-7.91
-10.32
-12.97
-15.65
-18.18
-20.48
-22.75
-25.26
-28.22
-31.54
-34.71
-37.00
-37.69
-36.42
-33.31
-28.86
-23.68
-18.25
-12.78
-7.38
-2.12
2.79
7.01
10.29
12.57
14.08
15.26
16.51
18.00
19.68
21.23
22.38
23.01
23.26
23.37
23.62
24.14
24.91
25.75
26.47
26.91
27.05
26.90
26.52
25.88
24.88
23.34
21.18
18.47
15.51
12.75
10.57
9.09
8.12
7.20
5.87
3.82
1.04
-2.20
-5.56
-8.78
-11.75
-14.50
-17.08
-19.53
-21.79
-23.79
-25.55
-27.13
-28.62
-30.01
-31.07
-31.36
-30.43
-27.93
-23.86
-18.62
-12.87
-7.34
-2.57
1.26
4.29
6.90
9.39
11.93
14.44
16.72
18.58
19.97
20.99
21.83
22.64
23.41
24.08
24.55
24.83
25.02
25.24
25.54
25.80
25.83
25.39
24.36
22.78
20.89
19.01
17.43
16.26
15.41
14.61
13.53
11.96
9.91
7.60
5.41
3.62
2.31
1.23
0.02
-1.71
-4.13
-7.16
-10.54
-13.86
-16.83
-19.27
-21.27
-23.15
-25.24
-27.75
-30.45
-32.82
-34.05
-33.46
-30.77
-26.21
-20.41
-14.17
-8.19
-2.91
1.50
5.05
7.84
10.05
11.81
13.25
14.44
15.44
16.27
16.95
17.57
18.15
18.69
19.08
19.21
19.08
18.82
18.61
18.62
18.85
19.17
19.37
19.36
19.15
18.85
18.52
18.10
17.38
16.18
14.40
12.23
10.00
8.13
6.82
6.04
5.51
4.82
3.68
1.97
-0.17
-2.53
-4.91
-7.26
-9.62
-12.10
-14.74
-17.48
-20.24
-22.95
-25.59
-28.10
-30.34
-31.95
-32.45
-31.37
-28.49
-24.00
-18.48
-12.70
-7.37
-2.91
0.62
3.39
5.67
7.61
9.29
10.70
11.87
12.95
14.05
15.30
16.66
18.04
19.23
20.07
20.46
20.44
20.10
19.60
19.03
18.42
17.75
16.96
16.05
15.00
13.82
12.54
11.19
9.85
8.60
7.45
6.38
5.21
3.74
1.79
-0.60
-3.21
-5.72
-7.88
-9.65
-11.17
-12.70
-14.41
-16.38
-18.52
-20.74
-22.96
-25.16
-27.33
-29.36
-30.96
-31.68
-31.14
-29.00
-25.31
-20.41
-14.93
-9.59
-4.99
-1.46
1.08
2.96
4.62
6.31
8.04
9.55
10.55
10.95
10.91
10.79
10.86
11.21
11.64
11.88
11.77
11.45
11.26
11.52
12.28
13.27
14.08
14.35
13.99
13.20
12.29
11.46
10.71
9.92
8.88
7.56
6.04
4.49
3.00
1.58
0.14
-1.46
-3.23
-5.09
-6.91
-8.57
-10.04
-11.44
-12.93
-14.61
-16.53
-18.55
-20.54
-22.30
-23.60
-24.20
-23.78
-22.05
-18.79
-14.07
-8.20
-1.75
4.67
10.58
15.72
20.01
23.48
26.23
28.39
30.18
31.90
33.88
36.36
39.36
42.66
45.79
48.20
49.41
49.18
47.59
45.06
42.16
39.42
37.20
35.49
34.05
32.50
30.61
28.37
25.98
23.76
21.89
20.33
18.87
17.28
15.46
13.50
11.59
9.90
8.39
6.82
4.90
2.37
-0.78
-4.41
-8.28
-12.14
-15.83
-19.23
-22.28
-24.89
-26.93
-28.26
-28.69
-27.98
-25.76
-21.53
-14.74
-4.78
8.75
25.96
46.40
69.01
92.28
114.61
134.75
152.26
167.55
181.58
195.33
209.30
223.41
237.20
250.28
262.52
273.98
284.49
293.32
299.11
300.21
295.28
283.75
265.99
243.13
216.70
188.37
159.81
132.66
108.40
88.14
72.31
60.45
51.31
43.19
34.47
24.06
11.58
-2.70
-18.15
-34.20
-50.68
-67.89
-86.42
-106.72
-128.60
-150.89
-171.65
-188.76
-200.82
-207.82
-211.25
-213.52
-217.06
-223.41
-232.92
-244.90
-258.14
-271.44
-283.78
-294.34
-302.27
-306.77
-307.20
-303.46
-296.13
-286.39
-275.62
-264.74
-253.73
-241.56
-226.53
-207.09
-182.48
-153.18
-120.69
-87.06
-54.22
-23.72
3.13
25.20
41.43
51.08
54.24
52.10
46.73
40.58
35.59
32.62
31.43
31.16
31.01
30.81
31.03
32.46
35.68
40.64
46.73
53.08
59.07
64.59
69.86
75.20
80.60
85.68
89.90
92.99
95.21
97.39
100.61
105.64
112.61
120.82
128.99
135.58
139.38
139.79
136.95
131.58
124.56
116.67
108.30
99.42
89.91
79.73
69.11
58.49
48.37
39.05
30.66
23.14
16.33
9.97
3.75
-2.61
-9.34
-16.39
-23.48
-30.34
-37.01
-44.26
-53.46
-66.29
-84.21
-108.10
-138.14
-173.68
-213.30
-254.74
-295.25
-331.99
-362.82
-386.81
-404.36
-416.60
-424.75
-429.40
-430.47
-427.71
-421.18
-411.44
-399.26
-385.24
-369.56
-352.22
-333.51
-314.35
-295.98
-279.52
-265.28
-252.54
-239.92
-225.84
-209.04
-188.94
-165.88
-141.58
-119.21
-102.84
-95.94
-99.73
-111.99
-127.56
-140.24
-145.46
-141.98
-131.98
-119.36
-107.50
-97.76
-89.58
-81.77
-73.81
-66.38
-60.74
-57.71
-56.94
-57.05
-56.44
-53.90
-49.31
-43.39
-37.27
-31.85
-27.57
-24.43
-22.13
-20.28
-18.58
-16.73
-14.41
-11.33
-7.26
-2.07
4.15
11.18
18.75
26.63
34.65
42.89
51.47
60.65
70.56
81.18
92.29
103.65
115.20
127.18
140.06
154.27
169.92
186.55
203.33
219.43
234.40
248.49
262.44
277.31
294.22
314.34
338.65
367.48
399.80
432.66
461.37
480.63
486.40
477.35
455.36
424.70
390.22
355.71
323.17
293.20
265.88
241.44
220.37
202.89
188.51
176.00
163.92
151.26
137.85
124.22
111.29
99.76
89.89
81.39
73.72
66.38
59.18
52.36
46.42
41.89
38.94
37.15
35.55
32.88
28.15
20.98
11.80
1.63
-8.43
-17.61
-25.70
-32.89
-39.54
-45.79
-51.40
-55.88
-58.67
-59.41
-58.06
-54.96
-50.65
-45.78
-40.87
-36.27
-32.13
-28.47
-25.30
-22.71
-20.88
-19.90
-19.70
-19.99
-20.25
-20.04
-19.12
-17.67
-16.19
-15.23
-15.12
-15.73
-16.56
-17.07
-16.94
-16.24
-15.32
-14.44
-13.52
-12.16
-9.93
-6.67
-2.78
0.93
3.56
4.57
3.91
2.02
-0.51
-3.20
-5.82
-8.42
-11.12
-13.96
-16.94
-19.93
-22.89
-25.79
-28.65
-31.50
-34.23
-36.56
-38.06
-38.24
-36.70
-33.31
-28.28
-22.18
-15.79
-9.96
-5.37
-2.39
-1.00
-0.76
-1.03
-1.12
-0.61
0.61
2.27
3.95
5.21
5.76
5.52
4.51
2.83
0.55
-2.19
-5.15
-7.99
-10.37
-12.04
-13.00
-13.45
-13.72
-14.08
-14.60
-15.09
-15.27
-14.82
-13.57
-11.51
-8.76
-5.54
-2.10
1.35
4.56
7.36
9.61
11.24
12.25
12.72
12.78
12.61
12.41
12.35
12.61
13.35
14.59
16.34
18.50
20.90
23.28
25.35
26.82
27.44
27.07
25.71
23.51
20.72
17.61
14.44
11.38
8.59
6.15
4.08
2.29
0.59
-1.26
-3.38
-5.71
-7.99
-9.84
-10.95
-11.25
-10.87
-10.15
-9.40
-8.80
-8.34
-7.96
-7.72
-7.77
-8.36
-9.63
-11.39
-13.17
-14.24
-13.89
-11.65
-7.44
-1.60
5.16
11.91
17.61
21.40
22.75
21.60
18.39
13.85
8.75
3.65
-1.12
-5.46
-9.29
-12.44
-14.71
-15.96
-16.26
-15.94
-15.47
-15.42
-16.20
-18.04
-20.92
-24.54
-28.44
-32.05
-34.88
-36.65
-37.36
-37.24
-36.66
-35.95
-35.35
-34.87
-34.42
-33.85
-33.00
-31.74
-29.97
-27.68
-24.92
-21.93
-19.06
-16.74
-15.27
-14.70
-14.79
-15.03
-14.94
-14.16
-12.64
-10.58
-8.29
-6.12
-4.32
-3.14
-2.74
-3.19
-4.34
-5.79
-6.98
-7.35
-6.61
-4.83
-2.31
0.59
3.71
7.06
10.74
14.76
18.93
22.88
26.22
28.70
30.21
30.85
30.81
30.35
29.75
29.24
28.81
28.21
26.98
24.72
21.32
17.08
12.67
8.81
6.01
4.42
3.87
4.10
4.77
5.59
6.15
5.97
4.63
1.93
-1.79
-5.69
-8.69
-9.80
-8.50
-4.95
0.10
5.54
10.25
13.44
14.75
14.30
12.59
10.23
7.85
5.92
4.77
4.58
5.50
7.54
10.60
14.41
18.53
22.46
25.78
28.30
30.07
31.39
32.54
33.74
35.06
36.40
37.55
38.11
37.54
35.11
30.16
22.30
11.67
-0.97
-14.41
-27.23
-38.26
-46.80
-52.72
-56.30
-58.06
-58.60
-58.43
-57.98
-57.52
-57.11
-56.58
-55.63
-53.88
-51.10
-47.21
-42.37
-36.91
-31.19
-25.59
-20.43
-15.92
-12.18
-9.24
-7.02
-5.45
-4.55
-4.34
-4.87
-6.07
-7.64
-9.08
-9.92
-9.85
-8.85
-7.24
-5.42
-3.76
-2.45
-1.48
-0.75
-0.07
0.71
1.78
3.28
5.29
7.69
10.19
12.41
13.95
14.61
14.35
13.27
11.54
9.33
6.76
3.97
1.14
-1.55
-3.97
-6.05
-7.82
-9.39
-10.82
-12.15
-13.42
-14.61
-15.70
-16.54
-16.99
-16.85
-15.99
-14.38
-12.13
-9.34
-6.16
-2.73
0.75
3.96
6.55
8.24
8.99
9.01
8.69
8.35
8.15
8.00
7.68
7.03
5.97
4.58
2.94
1.14
-0.72
-2.38
-3.38
-3.21
-1.55
1.52
5.43
9.35
12.59
14.77
15.97
16.44
16.43
15.94
14.82
12.92
10.30
7.30
4.41
2.14
0.83
0.66
1.71
3.94
7.26
11.36
15.78
19.86
22.97
24.55
24.32
22.31
18.82
14.31
9.29
4.24
-0.37
-4.19
-6.99
-8.66
-9.30
-9.15
-8.54
-7.81
-7.21
-6.88
-6.83
-6.98
-7.19
-7.34
-7.34
-7.18
-6.93
-6.79
-6.94
-7.52
-8.52
-9.82
-11.17
-12.31
-13.07
-13.30
-12.99
-12.12
-10.78
-9.10
-7.29
-5.63
-4.37
-3.68
-3.55
-3.80
-4.18
-4.46
-4.57
-4.59
-4.70
-5.10
-5.87
-6.84
-7.70
-8.05
-7.62
-6.45
-4.86
-3.34
-2.32
-1.90
-1.90
-1.95
-1.79
-1.38
-0.91
-0.62
-0.60
-0.74
-0.80
-0.60
-0.13
0.40
0.73
0.67
0.24
-0.33
-0.77
-0.82
-0.40
0.41
1.41
2.40
3.28
4.08
4.90
5.83
6.87
7.94
8.90
9.72
10.50
11.48
13.01
15.34
18.59
22.71
27.54
32.95
38.81
45.03
51.43
57.78
63.82
69.41
74.61
79.67
84.91
90.43
95.97
100.99
104.87
107.29
108.44
108.96
109.59
110.85
112.60
114.13
114.28
111.82
105.74
95.59
81.48
64.02
44.27
23.38
2.53
-17.29
-35.33
-51.12
-64.46
-75.40
-84.27
-91.51
-97.65
-103.06
-107.80
-111.68
-114.30
-115.36
-114.84
-113.16
-110.99
-109.08
-108.00
-107.96
-108.79
-109.98
-110.74
-110.18
-107.51
-102.34
-94.81
-85.66
-76.03
-67.14
-59.89
-54.70
-51.40
-49.21
-46.94
-43.21
-36.77
-27.00
-14.25
0.15
14.15
25.70
33.45
37.09
37.32
35.36
32.50
29.69
27.39
25.66
24.28
22.91
21.23
18.93
15.85
11.94
7.35
2.43
-2.29
-6.26
-9.02
-10.38
-10.49
-9.75
-8.61
-7.41
-6.19
-4.85
-3.26
-1.47
0.30
1.69
2.43
2.43
1.83
0.95
0.13
-0.34
-0.29
0.29
1.31
2.60
3.90
4.97
5.65
5.89
5.76
5.51
5.39
5.53
5.85
6.03
5.70
4.53
2.49
-0.14
-2.79
-4.76
-5.45
-4.54
-2.12
1.29
4.80
7.39
8.14
6.55
2.79
-2.36
-7.71
-12.20
-15.23
-16.87
-17.65
-18.23
-18.99
-19.86
-20.36
-19.99
-18.46
-15.94
-12.92
-10.00
-7.54
-5.62
-4.04
-2.54
-1.04
0.34
1.34
1.76
1.58
0.98
0.24
-0.35
-0.64
-0.57
-0.20
0.38
1.04
1.56
1.75
1.42
0.53
-0.81
-2.35
-3.87
-5.19
-6.31
-7.34
-8.40
-9.53
-10.67
-11.61
-12.08
-11.87
-10.81
-8.87
-6.18
-3.01
0.15
2.79
4.47
4.90
4.13
2.47
0.46
-1.41
-2.83
-3.80
-4.56
-5.45
-6.70
-8.40
-10.32
-12.11
-13.35
-13.76
-13.23
-11.87
-9.94
-7.74
-5.53
-3.42
-1.45
0.38
2.11
3.67
4.96
5.89
6.43
6.62
6.55
6.29
5.88
5.41
5.06
5.10
5.76
7.05
8.58
9.72
9.90
8.99
7.50
6.30
6.31
7.88
10.65
13.81
16.58
18.60
20.11
21.53
23.20
25.05
26.66
27.53
27.33
26.14
24.30
22.26
20.40
18.99
18.11
17.77
17.86
18.21
18.70
19.26
20.07
21.38
23.53
26.71
30.76
35.24
39.45
42.75
44.68
45.11
44.03
41.53
37.51
31.81
24.34
15.32
5.39
-4.51
-13.38
-20.53
-25.77
-29.39
-31.97
-34.06
-36.02
-37.91
-39.62
-40.97
-41.88
-42.32
-42.33
-41.86
-40.79
-39.03
-36.56
-33.51
-30.20
-26.99
-24.15
-21.80
-19.85
-18.09
-16.26
-14.21
-11.96
-9.59
-7.27
-5.12
-3.12
-1.19
0.79
2.85
4.92
6.87
8.53
9.84
10.81
11.52
12.04
12.37
12.46
12.27
11.87
11.41
11.11
11.10
11.35
11.64
11.69
11.20
10.07
8.36
6.26
4.02
1.90
0.12
-1.14
-1.74
-1.70
-1.17
-0.38
0.43
1.15
1.84
2.66
3.76
5.14
6.66
8.09
9.24
10.07
10.64
11.01
11.20
11.07
10.51
9.42
7.95
6.38
5.07
4.21
3.78
3.55
3.22
2.60
1.75
0.91
0.36
0.24
0.48
0.84
1.12
1.21
1.17
1.14
1.20
1.34
1.42
1.33
0.95
0.32
-0.41
-1.07
-1.49
-1.65
-1.71
-1.95
-2.66
-4.05
-6.04
-8.36
-10.61
-12.51
-13.97
-15.10
-16.13
-17.25
-18.61
-20.23
-22.03
-23.79
-25.14
-25.56
-24.47
-21.45
-16.42
-9.81
-2.46
4.54
10.23
14.01
15.79
16.00
15.43
15.00
15.45
17.16
19.92
23.10
25.78
27.06
26.46
24.08
20.62
17.09
14.47
13.30
13.58
14.76
16.06
16.74
16.31
14.73
12.31
9.70
7.62
6.69
7.20
8.99
11.52
14.06
15.95
16.88
17.00
16.81
16.90
17.69
19.32
21.57
23.92
25.69
26.17
24.75
21.11
15.37
8.06
-0.01
-7.99
-15.35
-21.93
-27.90
-33.46
-38.58
-43.01
-46.35
-48.31
-48.87
-48.34
-47.12
-45.62
-44.06
-42.51
-40.92
-39.23
-37.44
-35.56
-33.64
-31.67
-29.60
-27.40
-25.05
-22.66
-20.43
-18.60
-17.47
-17.24
-17.95
-19.45
-21.34
-22.96
-23.49
-22.12
-18.30
-12.04
-3.94
4.89
13.22
20.15
25.38
29.23
32.23
34.82
37.06
38.65
39.34
39.16
38.53
38.07
38.23
39.03
40.03
40.60
40.27
39.06
37.37
35.85
35.02
35.03
35.67
36.44
36.87
36.59
35.37
33.06
29.53
24.66
18.51
11.35
3.78
-3.41
-9.32
-13.23
-14.71
-13.71
-10.51
-5.63
0.22
6.29
11.84
16.21
19.03
20.22
20.06
19.12
18.02
17.28
17.04
17.05
16.80
15.71
13.48
10.15
6.15
2.08
-1.51
-4.26
-6.14
-7.29
-7.96
-8.39
-8.74
-9.10
-9.48
-9.92
-10.52
-11.52
-13.23
-15.86
-19.48
-23.79
-28.17
-31.96
-34.61
-35.94
-36.14
-35.59
-34.61
-33.31
-31.68
-29.64
-27.27
-24.86
-22.78
-21.29
-20.48
-20.23
-20.32
-20.51
-20.61
-20.42
-19.74
-18.48
-16.62
-14.32
-11.81
-9.31
-6.95
-4.75
-2.71
-0.85
0.75
2.09
3.33
4.68
6.37
8.36
10.34
11.84
12.41
11.92
10.42
8.03
4.82
0.76
-4.14
-9.49
-14.56
-18.48
-20.66
-21.05
-20.26
-19.14
-18.36
-18.15
-18.22
-18.18
-17.77
-17.03
-16.11
-15.01
-13.56
-11.43
-8.57
-5.25
-2.09
0.25
1.35
1.25
0.33
-0.96
-2.27
-3.42
-4.36
-4.99
-5.22
-4.99
-4.38
-3.66
-3.10
-2.89
-2.92
-2.92
-2.51
-1.50
0.04
1.77
3.26
4.05
3.92
2.89
1.19
-0.84
-2.81
-4.40
-5.39
-5.68
-5.21
-4.00
-2.09
0.40
3.32
6.36
9.24
11.63
13.33
14.25
14.49
14.19
13.53
12.68
11.76
10.86
10.06
9.36
8.69
7.95
7.05
6.01
5.05
4.52
4.77
6.07
8.45
11.69
15.37
18.96
22.03
24.26
25.51
25.82
25.32
24.15
22.43
20.26
17.81
15.36
13.30
12.11
12.22
13.85
16.97
21.26
26.06
30.50
33.61
34.68
33.61
30.90
27.65
24.96
23.52
23.38
23.96
24.51
24.41
23.47
21.73
19.32
16.23
12.43
7.95
3.03
-1.84
-6.11
-9.34
-11.33
-11.99
-11.43
-9.77
-7.27
-4.27
-1.23
1.37
3.21
4.14
4.15
3.25
1.28
-2.06
-7.11
-14.07
-22.79
-32.90
-43.74
-54.53
-64.21
-71.46
-74.74
-72.63
-64.46
-50.84
-33.79
-16.23
-1.11
9.68
15.67
17.75
17.28
15.37
12.39
8.07
2.08
-5.44
-13.63
-21.18
-26.84
-29.97
-30.69
-29.75
-27.99
-25.93
-23.58
-20.57
-16.62
-11.70
-6.28
-1.05
3.37
6.65
8.77
9.89
10.17
9.69
8.48
6.59
4.15
1.39
-1.47
-4.13
-6.31
-7.72
-8.25
-7.95
-7.13
-6.17
-5.33
-4.63
-3.81
-2.57
-0.73
1.49
3.68
5.33
6.19
6.34
6.10
5.87
5.92
6.25
6.61
6.68
6.21
5.16
3.79
2.43
1.39
0.87
0.86
1.18
1.58
1.84
1.83
1.51
0.88
0.07
-0.59
-0.45
1.33
5.43
11.95
20.06
28.31
35.04
39.14
40.36
39.23
36.62
33.18
29.11
24.20
18.33
11.62
4.54
-2.20
-7.96
-12.28
-14.88
-15.77
-15.21
-13.73
-11.99
-10.59
-9.83
-9.66
-9.77
-9.86
-9.81
-9.66
-9.50
-9.32
-8.90
-8.02
-6.67
-5.12
-3.90
-3.52
-4.23
-5.83
-7.81
-9.52
-10.52
-10.78
-10.60
-10.50
-10.88
-11.86
-13.24
-14.54
-15.12
-14.31
-11.37
-5.82
2.55
13.20
24.89
35.80
44.05
48.36
48.36
44.61
38.19
30.19
21.39
12.29
3.45
-4.40
-10.28
-13.39
-13.44
-11.01
-7.29
-3.75
-1.57
-1.23
-2.47
-4.51
-6.39
-7.41
-7.39
-6.63
-5.74
-5.32
-5.67
-6.75
-8.27
-9.89
-11.34
-12.56
-13.47
-14.02
-14.02
-13.30
-11.85
-9.91
-7.94
-6.41
-5.62
-5.56
-5.94
-6.37
-6.53
-6.32
-5.85
-5.30
-4.82
-4.43
-4.00
-3.36
-2.37
-1.01
0.53
1.95
2.87
3.05
2.41
1.14
-0.39
-1.78
-2.70
-2.98
-2.69
-2.06
-1.39
-1.00
-1.04
-1.49
-2.15
-2.73
-3.00
-2.83
-2.32
-1.66
-1.02
-0.41
0.32
1.34
2.78
4.50
6.24
7.63
8.40
8.50
8.08
7.42
6.82
6.49
6.48
6.72
7.08
7.42
7.69
7.96
8.33
8.89
9.61
10.30
10.71
10.55
9.70
8.23
6.30
4.16
2.01
-0.01
-1.83
-3.44
-4.82
-5.98
-6.99
-7.98
-9.10
-10.46
-11.99
-13.51
-14.67
-15.13
-14.70
-13.47
-11.79
-10.14
-8.87
-8.03
-7.38
-6.52
-5.13
-3.13
-0.64
2.08
4.84
7.51
10.06
12.45
14.63
16.57
18.28
19.82
21.25
22.64
23.90
24.88
25.44
25.43
24.82
23.54
21.60
19.05
16.02
12.69
9.33
6.15
3.25
0.68
-1.64
-3.77
-5.77
-7.64
-9.37
-10.95
-12.37
-13.65
-14.81
-15.83
-16.59
-16.89
-16.57
-15.54
-13.92
-11.98
-10.15
-8.74
-7.88
-7.47
-7.23
-6.89
-6.26
-5.33
-4.17
-2.86
-1.45
0.02
1.46
2.74
3.72
4.34
4.71
5.05
5.61
6.52
7.77
9.13
10.39
11.40
12.22
13.12
14.49
16.67
19.80
23.75
28.09
32.24
35.60
37.71
38.31
37.36
35.01
31.56
27.41
23.04
18.93
15.48
12.94
11.30
10.40
9.88
9.28
8.14
6.02
2.66
-1.87
-7.26
-12.96
-18.43
-23.26
-27.28
-30.46
-32.81
-34.31
-34.91
-34.59
-33.46
-31.70
-29.52
-27.01
-24.22
-21.15
-17.93
-14.80
-12.06
-9.93
-8.48
-7.62
-7.17
-7.00
-7.06
-7.37
-7.83
-8.30
-8.43
-7.92
-6.53
-4.25
-1.23
2.21
5.80
9.23
12.19
14.39
15.60
15.71
14.87
13.50
12.19
11.40
11.45
12.24
13.48
14.76
15.76
16.38
16.68
16.84
17.02
17.30
17.64
17.88
17.86
17.41
16.44
14.96
13.13
11.20
9.51
8.41
8.14
8.69
9.90
11.38
12.72
13.55
13.60
12.76
11.04
8.53
5.49
2.26
-0.77
-3.29
-5.22
-6.69
-8.05
-9.66
-11.69
-14.05
-16.41
-18.36
-19.66
-20.30
-20.49
-20.54
-20.64
-20.82
-20.92
-20.79
-20.36
-19.74
-19.19
-18.94
-19.09
-19.54
-20.00
-20.11
-19.60
-18.38
-16.57
-14.48
-12.46
-10.69
-9.22
-7.83
-6.29
-4.45
-2.34
-0.19
1.80
3.51
5.05
6.65
8.50
10.66
12.99
15.26
17.30
19.05
20.65
22.21
23.78
25.15
25.99
25.91
24.67
22.30
19.09
15.48
11.86
8.42
5.15
2.00
-0.96
-3.48
-5.14
-5.64
-4.96
-3.40
-1.54
0.04
0.96
1.15
0.72
-0.05
-0.93
-1.76
-2.47
-3.05
-3.60
-4.20
-4.97
-5.96
-7.10
-8.22
-9.11
-9.67
-9.99
-10.39
-11.21
-12.66
-14.72
-17.12
-19.51
-21.64
-23.38
-24.65
-25.38
-25.42
-24.71
-23.42
-22.00
-21.08
-21.16
-22.34
-24.23
-26.09
-27.19
-27.12
-25.91
-23.90
-21.55
-19.21
-17.06
-15.23
-13.73
-12.64
-11.93
-11.50
-11.18
-10.77
-10.14
-9.25
-8.14
-6.91
-5.60
-4.26
-2.99
-1.93
-1.27
-1.06
-1.25
-1.52
-1.52
-0.99
0.04
1.28
2.31
2.83
2.77
2.34
1.84
1.56
1.57
1.82
2.24
2.77
3.52
4.52
5.77
7.15
8.50
9.69
10.67
11.39
11.78
11.76
11.31
10.53
9.60
8.82
8.39
8.37
8.70
9.27
10.04
11.00
12.12
13.29
14.30
14.94
15.13
14.98
14.75
14.69
14.94
15.45
16.05
16.56
16.85
16.91
16.78
16.49
16.05
15.42
14.56
13.52
12.43
11.50
10.97
11.00
11.54
12.36
13.05
13.24
12.68
11.37
9.53
7.40
5.21
3.09
1.09
-0.70
-2.13
-2.96
-3.07
-2.48
-1.45
-0.36
0.38
0.56
0.26
-0.26
-0.61
-0.54
-0.03
0.74
1.49
1.99
2.22
2.24
2.24
2.34
2.56
2.85
3.09
3.17
2.90
2.05
0.37
-2.36
-6.05
-10.30
-14.41
-17.62
-19.44
-19.88
-19.38
-18.62
-18.18
-18.32
-19.05
-20.18
-21.59
-23.16
-24.73
-25.97
-26.46
-25.83
-23.98
-21.21
-18.06
-15.07
-12.54
-10.45
-8.56
-6.61
-4.50
-2.26
-0.04
2.07
4.02
5.81
7.40
8.73
9.71
10.30
10.64
10.90
11.27
11.82
12.52
13.18
13.57
13.55
13.14
12.52
12.03
12.08
13.02
14.96
17.67
20.64
23.14
24.59
24.81
24.15
23.38
23.37
24.70
27.53
31.60
36.40
41.42
46.16
50.20
53.03
54.10
52.88
49.15
43.07
35.28
26.66
18.09
10.23
3.35
-2.55
-7.60
-11.95
-15.59
-18.45
-20.32
-21.10
-20.76
-19.42
-17.37
-14.95
-12.53
-10.37
-8.58
-7.14
-5.96
-4.98
-4.15
-3.48
-2.94
-2.44
-1.90
-1.29
-0.64
-0.26
-0.41
-1.26
-2.76
-4.56
-6.28
-7.68
-8.83
-10.06
-11.75
-14.06
-16.84
-19.69
-22.14
-23.93
-24.99
-25.40
-25.17
-24.18
-22.14
-18.89
-14.52
-9.47
-4.45
-0.19
2.76
4.27
4.50
3.86
2.76
1.49
0.16
-1.19
-2.57
-3.92
-5.16
-6.26
-7.28
-8.37
-9.69
-11.25
-12.94
-14.49
-15.63
-16.20
-16.23
-15.95
-15.67
-15.61
-15.79
-16.03
-16.03
-15.54
-14.53
-13.21
-11.91
-10.93
-10.42
-10.24
-10.13
-9.88
-9.35
-8.62
-7.80
-6.93
-5.98
-4.86
-3.48
-1.91
-0.31
1.06
1.94
2.19
1.81
0.97
0.01
-0.66
-0.64
0.25
1.98
4.29
6.87
9.55
12.40
15.59
19.20
22.99
26.34
28.42
28.60
26.66
22.96
18.26
13.49
9.44
6.54
4.92
4.44
4.82
5.72
6.73
7.40
7.36
6.38
4.53
2.07
-0.60
-3.12
-5.27
-7.00
-8.39
-9.48
-10.33
-10.95
-11.42
-11.81
-12.20
-12.54
-12.70
-12.48
-11.76
-10.59
-9.08
-7.52
-6.09
-5.02
-4.42
-4.36
-4.73
-5.31
-5.76
-5.76
-5.11
-3.83
-2.15
-0.33
1.40
2.88
4.03
4.74
4.97
4.73
4.23
3.77
3.73
4.17
4.92
5.55
5.60
4.87
3.46
1.86
0.51
-0.23
-0.32
0.00
0.39
0.56
0.43
0.10
-0.21
-0.26
0.10
0.90
2.06
3.45
4.88
6.14
6.99
7.19
6.60
5.23
3.26
1.01
-1.19
-3.10
-4.59
-5.56
-5.92
-5.61
-4.67
-3.21
-1.58
-0.07
1.10
1.95
2.70
3.63
4.98
6.85
9.14
11.65
14.03
15.85
16.65
16.02
13.79
10.26
6.08
2.11
-0.89
-2.52
-2.97
-2.85
-2.92
-3.86
-6.00
-9.32
-13.45
-17.85
-21.94
-25.18
-27.15
-27.64
-26.58
-24.07
-20.38
-15.90
-11.15
-6.68
-3.00
-0.35
1.32
2.30
2.94
3.41
3.64
3.41
2.57
1.23
-0.28
-1.53
-2.26
-2.48
-2.41
-2.32
-2.28
-2.17
-1.69
-0.66
0.94
2.82
4.61
6.02
6.96
7.57
8.10
8.68
9.31
9.79
9.90
9.50
8.66
7.55
6.43
5.47
4.69
4.02
3.32
2.48
1.46
0.35
-0.70
-1.47
-1.76
-1.46
-0.61
0.57
1.77
2.68
3.13
3.10
2.71
2.10
1.32
0.31
-1.00
-2.63
-4.41
-5.95
-6.86
-6.86
-5.98
-4.53
-3.01
-1.83
-1.20
-1.06
-1.25
-1.64
-2.18
-2.92
-3.83
-4.74
-5.32
-5.31
-4.62
-3.36
-1.63
0.69
3.99
8.63
14.55
21.05
26.86
30.65
31.58
29.70
25.80
20.99
16.12
11.53
7.20
2.97
-1.10
-4.70
-7.46
-9.17
-9.89
-9.95
-9.74
-9.57
-9.61
-9.79
-9.98
-10.04
-9.88
-9.54
-9.13
-8.81
-8.72
-8.90
-9.33
-9.88
-10.39
-10.71
-10.70
-10.29
-9.54
-8.53
-7.45
-6.43
-5.61
-5.01
-4.60
-4.24
-3.82
-3.25
-2.48
-1.51
-0.38
0.86
2.23
3.73
5.40
7.25
9.26
11.35
13.45
15.42
17.14
18.52
19.45
19.96
20.13
20.09
19.97
19.68
18.99
17.56
15.14
11.73
7.67
3.56
-0.04
-2.81
-4.80
-6.35
-7.87
-9.64
-11.63
-13.58
-15.13
-16.07
-16.32
-16.05
-15.44
-14.64
-13.68
-12.52
-11.13
-9.55
-7.93
-6.37
-4.96
-3.68
-2.42
-1.05
0.52
2.31
4.29
6.42
8.62
10.78
12.74
14.36
15.55
16.32
16.83
17.35
18.16
19.50
21.44
23.81
26.12
27.69
27.75
25.68
21.14
14.25
5.56
-4.07
-13.63
-22.14
-28.75
-32.97
-34.69
-34.20
-32.10
-29.18
-26.16
-23.57
-21.67
-20.47
-19.80
-19.44
-19.17
-18.79
-18.29
-17.71
-17.20
-16.91
-16.93
-17.21
-17.62
-17.97
-18.08
-17.83
-17.13
-15.91
-14.15
-11.91
-9.39
-6.87
-4.65
-2.97
-1.89
-1.31
-1.02
-0.85
-0.67
-0.51
-0.38
-0.31
-0.24
-0.04
0.37
1.07
2.00
3.08
4.20
5.32
6.46
7.68
9.05
10.59
12.26
13.89
15.31
16.31
16.76
16.70
16.34
15.98
15.95
16.38
17.14
17.94
18.40
18.29
17.63
16.68
15.76
15.10
14.81
14.84
15.16
15.71
16.50
17.47
18.48
19.32
19.81
19.88
19.64
19.36
19.20
19.19
19.08
18.42
16.78
13.93
9.95
5.19
0.11
-4.88
-9.48
-13.53
-16.96
-19.76
-21.91
-23.44
-24.38
-24.76
-24.57
-23.77
-22.34
-20.38
-18.12
-15.86
-13.93
-12.44
-11.38
-10.58
-9.89
-9.16
-8.33
-7.39
-6.31
-5.08
-3.73
-2.33
-1.09
-0.19
0.24
0.23
-0.03
-0.19
-0.00
0.67
1.69
2.77
3.55
3.87
3.78
3.50
3.38
3.64
4.37
5.49
6.87
8.33
9.75
10.96
11.86
12.40
12.58
12.52
12.37
12.27
12.31
12.46
12.64
12.71
12.59
12.20
11.53
10.59
9.47
8.27
7.15
6.23
5.59
5.24
5.11
5.12
5.14
5.07
4.92
4.76
4.65
4.57
4.41
3.97
3.15
1.93
0.50
-0.91
-2.10
-3.03
-3.81
-4.63
-5.75
-7.32
-9.37
-11.67
-13.67
-14.60
-13.70
-10.58
-5.45
0.78
6.80
11.38
13.78
13.94
12.33
9.58
6.29
2.82
-0.52
-3.39
-5.44
-6.39
-6.26
-5.38
-4.30
-3.50
-3.13
-2.92
-2.30
-0.73
2.09
6.07
10.84
15.87
20.70
24.95
28.33
30.62
31.68
31.38
29.78
26.99
23.29
18.92
14.02
8.61
2.63
-3.97
-11.04
-18.20
-24.91
-30.55
-34.61
-36.88
-37.49
-36.88
-35.64
-34.40
-33.55
-33.21
-33.22
-33.26
-32.98
-32.17
-30.80
-28.97
-26.85
-24.54
-22.07
-19.43
-16.62
-13.69
-10.75
-7.90
-5.19
-2.63
-0.19
2.17
4.46
6.68
8.78
10.72
12.44
13.93
15.22
16.32
17.22
17.88
18.24
18.26
18.02
17.64
17.35
17.29
17.51
17.87
18.18
18.23
17.95
17.45
16.91
16.51
16.31
16.20
15.96
15.34
14.21
12.60
10.73
8.92
7.46
6.55
6.12
5.81
5.17
3.72
1.31
-1.88
-5.37
-8.62
-11.29
-13.36
-15.08
-16.81
-18.78
-20.97
-23.17
-25.04
-26.23
-26.55
-26.01
-24.77
-23.14
-21.39
-19.77
-18.40
-17.31
-16.56
-16.16
-16.12
-16.27
-16.28
-15.71
-14.24
-11.81
-8.72
-5.47
-2.51
-0.02
2.08
4.07
6.06
7.99
9.56
10.44
10.42
9.52
7.90
5.79
3.42
1.01
-1.15
-2.67
-3.19
-2.50
-0.67
1.80
4.24
5.90
6.38
5.65
4.09
2.23
0.59
-0.50
-0.95
-0.78
-0.13
0.78
1.67
2.14
1.85
0.64
-1.29
-3.48
-5.32
-6.33
-6.36
-5.58
-4.33
-2.97
-1.74
-0.76
-0.06
0.35
0.49
0.37
0.01
-0.55
-1.23
-1.96
-2.58
-2.91
-2.85
-2.33
-1.41
-0.12
1.48
3.35
5.42
7.45
9.06
9.84
9.60
8.50
7.03
5.75
5.04
4.89
4.99
4.91
4.36
3.34
2.04
0.71
-0.43
-1.29
-1.87
-2.18
-2.26
-2.16
-1.98
-1.79
-1.71
-1.82
-2.19
-2.87
-3.89
-5.27
-6.97
-8.92
-11.00
-13.09
-14.97
-16.47
-17.30
-17.20
-15.97
-13.65
-10.44
-6.71
-2.88
0.70
3.74
6.02
7.45
8.00
7.82
7.18
6.35
5.56
4.87
4.18
3.32
2.18
0.83
-0.58
-1.77
-2.52
-2.67
-2.22
-1.24
0.07
1.47
2.66
3.47
3.82
3.79
3.57
3.32
3.13
2.91
2.47
1.62
0.29
-1.44
-3.32
-5.05
-6.37
-7.14
-7.41
-7.28
-6.89
-6.32
-5.60
-4.80
-4.00
-3.37
-3.03
-3.01
-3.26
-3.66
-4.08
-4.41
-4.61
-4.58
-4.19
-3.33
-1.97
-0.23
1.57
3.08
4.05
4.43
4.42
4.29
4.32
4.64
5.23
5.96
6.72
7.45
8.20
9.17
10.57
12.71
15.80
19.97
25.14
31.00
36.98
42.30
46.21
48.13
47.97
46.05
43.06
39.70
36.48
33.49
30.61
27.63
24.51
21.39
18.54
16.08
13.96
11.92
9.65
6.96
3.85
0.48
-2.93
-6.20
-9.21
-11.96
-14.47
-16.80
-19.03
-21.22
-23.48
-25.92
-28.69
-31.94
-35.61
-39.46
-43.00
-45.64
-46.84
-46.37
-44.31
-41.01
-36.97
-32.61
-28.29
-24.25
-20.60
-17.35
-14.33
-11.33
-8.15
-4.74
-1.27
2.00
4.87
7.30
9.40
11.37
13.17
14.54
15.09
14.52
12.79
10.21
7.29
4.49
2.07
0.04
-1.69
-3.20
-4.38
-5.01
-4.98
-4.39
-3.61
-3.16
-3.41
-4.44
-5.99
-7.54
-8.66
-9.13
-8.93
-8.20
-7.07
-5.64
-3.99
-2.30
-0.78
0.35
0.96
1.12
1.01
0.87
0.85
0.98
1.23
1.54
1.90
2.35
2.96
3.76
4.73
5.87
7.08
8.22
9.12
9.60
9.61
9.19
8.52
7.82
7.30
6.97
6.77
6.49
5.96
5.10
4.00
2.84
1.82
1.11
0.79
0.91
1.41
2.31
3.59
5.25
7.27
9.58
12.15
14.93
17.88
20.90
23.82
26.38
28.27
29.21
29.16
28.22
26.76
25.16
23.73
22.63
21.82
21.15
20.46
19.58
18.37
16.72
14.57
12.04
9.36
6.86
4.78
3.22
2.09
1.15
0.17
-0.99
-2.36
-3.83
-5.29
-6.59
-7.56
-8.10
-8.13
-7.70
-7.00
-6.31
-5.94
-6.01
-6.38
-6.73
-6.67
-6.03
-4.97
-3.97
-3.65
-4.50
-6.74
-10.17
-14.30
-18.50
-22.21
-25.00
-26.73
-27.48
-27.61
-27.46
-27.37
-27.46
-27.69
-27.88
-27.91
-27.72
-27.36
-26.81
-25.97
-24.66
-22.74
-20.21
-17.30
-14.35
-11.72
-9.64
-8.18
-7.23
-6.55
-5.82
-4.71
-3.00
-0.69
2.00
4.66
6.91
8.53
9.50
10.01
10.36
10.73
11.21
11.77
12.35
12.81
13.03
12.89
12.28
11.26
9.90
8.38
6.90
5.58
4.56
3.82
3.32
2.99
2.71
2.35
1.83
1.13
0.32
-0.53
-1.31
-1.94
-2.39
-2.57
-2.44
-1.92
-0.99
0.37
2.19
4.58
7.56
11.01
14.53
17.40
18.85
18.30
15.71
11.67
7.19
3.29
0.66
-0.61
-0.89
-0.74
-0.67
-0.92
-1.50
-2.29
-3.18
-4.07
-4.97
-5.89
-6.85
-7.83
-8.74
-9.49
-9.97
-10.09
-9.79
-9.05
-7.91
-6.42
-4.71
-2.98
-1.39
-0.12
0.70
1.06
0.92
0.34
-0.70
-2.11
-3.77
-5.35
-6.49
-6.90
-6.49
-5.47
-4.23
-3.19
-2.57
-2.38
-2.38
-2.32
-2.04
-1.55
-1.00
-0.61
-0.46
-0.50
-0.52
-0.33
0.24
1.17
2.35
3.53
4.49
5.06
5.20
5.07
4.89
4.88
5.15
5.67
6.28
6.80
7.13
7.25
7.22
7.15
7.12
7.11
7.16
7.30
7.58
8.06
8.73
9.50
10.23
10.74
10.92
10.68
10.05
9.09
7.92
6.73
5.69
4.91
4.45
4.22
4.10
3.94
3.64
3.18
2.57
1.84
1.04
0.28
-0.19
-0.17
0.47
1.57
2.75
3.47
3.37
2.39
0.81
-0.94
-2.46
-3.63
-4.60
-5.68
-7.11
-9.06
-11.50
-14.28
-17.10
-19.57
-21.19
-21.59
-20.50
-18.05
-14.59
-10.68
-6.93
-3.82
-1.65
-0.52
-0.36
-0.92
-1.86
-2.82
-3.53
-3.93
-4.14
-4.42
-4.99
-5.87
-6.93
-7.88
-8.53
-8.83
-8.89
-8.82
-8.68
-8.33
-7.60
-6.41
-4.85
-3.23
-1.88
-1.07
-0.85
-1.11
-1.67
-2.38
-3.16
-4.05
-5.07
-6.21
-7.41
-8.54
-9.46
-10.06
-10.30
-10.24
-9.98
-9.72
-9.58
-9.58
-9.64
-9.61
-9.35
-8.79
-7.97
-6.95
-5.79
-4.56
-3.32
-2.21
-1.35
-0.83
-0.58
-0.47
-0.26
0.13
0.70
1.35
1.95
2.43
2.76
2.88
2.73
2.22
1.39
0.44
-0.27
-0.42
0.18
1.41
2.92
4.25
5.05
5.18
4.79
4.17
3.65
3.44
3.50
3.64
3.54
2.99
1.95
0.54
-0.98
-2.38
-3.52
-4.35
-4.88
-5.19
-5.31
-5.28
-5.11
-4.75
-4.17
-3.33
-2.17
-0.72
0.94
2.67
4.27
5.54
6.37
6.72
6.72
6.56
6.51
6.71
7.13
7.55
7.68
7.24
6.21
4.73
3.12
1.69
0.68
0.18
0.09
0.26
0.52
0.77
0.98
1.24
1.65
2.28
3.11
4.03
4.91
5.60
5.99
6.05
5.80
5.31
4.68
3.97
3.26
2.56
1.90
1.27
0.70
0.20
-0.22
-0.59
-0.95
-1.32
-1.71
-2.03
-2.18
-2.12
-1.84
-1.42
-0.96
-0.54
-0.24
-0.09
-0.19
-0.62
-1.35
-2.32
-3.35
-4.20
-4.64
-4.57
-4.03
-3.16
-2.19
-1.31
-0.62
-0.05
0.50
1.20
2.08
3.05
3.94
4.62
5.08
5.42
5.81
6.36
7.04
7.68
8.06
8.09
7.73
7.13
6.42
5.79
5.31
5.00
4.75
4.51
4.18
3.80
3.46
3.24
3.23
3.32
3.35
3.10
2.49
1.60
0.64
-0.15
-0.66
-0.93
-1.11
-1.30
-1.56
-1.78
-1.85
-1.73
-1.43
-1.10
-0.82
-0.68
-0.64
-0.61
-0.51
-0.26
0.10
0.51
0.82
0.90
0.70
0.29
-0.18
-0.54
-0.70
-0.67
-0.53
-0.42
-0.37
-0.38
-0.35
-0.20
0.10
0.49
0.89
1.22
1.44
1.59
1.74
1.89
2.07
2.27
2.53
2.88
3.41
4.13
5.02
5.97
6.85
7.56
8.05
8.28
8.30
8.17
7.93
7.63
7.32
6.99
6.66
6.33
6.05
5.82
5.73
5.73
5.83
5.96
6.10
6.30
6.59
7.07
7.78
8.69
9.74
10.84
11.94
13.06
14.33
15.91
18.02
20.75
24.03
27.52
30.63
32.68
33.15
31.84
29.07
25.49
21.87
18.78
16.43
14.63
13.02
11.22
9.06
6.46
3.43
0.01
-3.69
-7.41
-10.66
-12.85
-13.46
-12.34
-9.78
-6.51
-3.26
-0.59
1.46
3.33
5.68
9.01
13.44
18.55
23.50
27.29
29.01
28.00
24.10
17.65
9.53
1.00
-6.65
-12.47
-16.08
-17.78
-18.29
-18.23
-17.88
-16.99
-15.02
-11.61
-6.88
-1.54
3.45
7.24
9.51
10.49
10.77
11.01
11.71
13.06
14.97
17.11
18.91
19.74
19.00
16.43
12.25
7.06
1.54
-3.94
-9.51
-15.68
-22.76
-30.60
-38.39
-45.04
-49.65
-51.99
-52.44
-51.78
-50.71
-49.57
-48.30
-46.63
-44.32
-41.32
-37.81
-34.15
-30.68
-27.69
-25.24
-23.24
-21.47
-19.63
-17.54
-15.16
-12.66
-10.31
-8.35
-6.88
-5.82
-4.90
-3.90
-2.71
-1.45
-0.34
0.36
0.58
0.50
0.42
0.65
1.31
2.27
3.27
3.98
4.20
3.92
3.28
2.51
1.83
1.30
0.90
0.56
0.19
-0.27
-0.82
-1.42
-1.98
-2.34
-2.42
-2.13
-1.49
-0.71
-0.03
0.29
0.15
-0.39
-1.13
-1.82
-2.27
-2.40
-2.17
-1.65
-0.93
-0.19
0.32
0.40
0.06
-0.35
-0.18
1.25
4.36
9.01
14.51
19.78
23.75
25.72
25.51
23.37
19.81
15.39
10.54
5.63
0.96
-3.20
-6.55
-8.93
-10.28
-10.76
-10.67
-10.34
-9.98
-9.64
-9.24
-8.67
-7.90
-7.03
-6.20
-5.43
-4.63
-3.54
-1.88
0.44
3.33
6.57
9.88
13.16
16.39
19.59
22.70
25.54
27.79
29.20
29.55
28.76
26.81
23.70
19.52
14.39
8.59
2.56
-3.17
-8.07
-11.77
-14.15
-15.40
-15.88
-16.02
-16.15
-16.42
-16.83
-17.23
-17.49
-17.48
-17.12
-16.32
-15.05
-13.37
-11.45
-9.59
-8.06
-7.00
-6.35
-5.89
-5.45
-4.92
-4.40
-4.00
-3.81
-3.80
-3.85
-3.83
-3.70
-3.49
-3.22
-2.91
-2.48
-1.84
-0.93
0.23
1.50
2.72
3.76
4.58
5.24
5.83
6.51
7.39
8.57
10.02
11.60
13.09
14.25
14.89
14.97
14.65
14.21
13.96
14.05
14.47
15.00
15.40
15.46
15.11
14.36
13.22
11.72
9.85
7.70
5.44
3.24
1.25
-0.53
-2.19
-3.83
-5.49
-7.10
-8.56
-9.79
-10.85
-11.84
-12.85
-13.86
-14.80
-15.48
-15.83
-15.86
-15.67
-15.38
-15.09
-14.79
-14.38
-13.83
-13.11
-12.29
-11.49
-10.82
-10.33
-9.99
-9.74
-9.53
-9.29
-9.00
-8.65
-8.28
-7.94
-7.71
-7.57
-7.42
-7.08
-6.37
-5.24
-3.84
-2.46
-1.34
-0.56
0.04
0.73
1.70
2.88
3.95
4.47
4.12
2.86
0.99
-0.92
-2.28
-2.59
-1.64
0.39
3.08
5.79
8.01
9.41
10.00
9.98
9.61
9.03
8.19
6.92
5.16
2.99
0.74
-1.23
-2.59
-3.25
-3.25
-2.83
-2.20
-1.56
-1.02
-0.70
-0.66
-0.97
-1.59
-2.43
-3.31
-4.05
-4.52
-4.69
-4.56
-4.21
-3.72
-3.14
-2.54
-1.97
-1.49
-1.20
-1.12
-1.18
-1.29
-1.32
-1.16
-0.73
-0.07
0.79
1.67
2.44
2.97
3.21
3.26
3.21
3.24
3.40
3.68
3.95
4.14
4.17
4.01
3.70
3.22
2.61
1.95
1.41
1.15
1.32
1.85
2.52
3.08
3.29
3.13
2.75
2.35
2.11
2.08
2.22
2.39
2.53
2.63
2.66
2.59
2.29
1.68
0.71
-0.55
-1.94
-3.26
-4.36
-5.15
-5.66
-5.90
-5.94
-5.74
-5.31
-4.64
-3.79
-2.87
-1.97
-1.14
-0.44
0.13
0.59
0.96
1.25
1.47
1.62
1.72
1.73
1.69
1.63
1.60
1.68
1.93
2.33
2.84
3.42
4.01
4.59
5.16
5.69
6.14
6.40
6.42
6.19
5.77
5.33
5.07
5.05
5.26
5.52
5.60
5.38
4.84
4.12
3.36
2.68
2.09
1.50
0.85
0.15
-0.45
-0.81
-0.80
-0.45
0.10
0.60
0.91
0.93
0.69
0.29
-0.13
-0.44
-0.55
-0.39
0.02
0.61
1.21
1.68
1.96
2.05
2.03
1.93
1.74
1.37
0.70
-0.21
-1.21
-2.08
-2.65
-2.88
-2.91
-2.87
-2.86
-2.85
-2.72
-2.38
-1.81
-1.10
-0.37
0.20
0.48
0.39
-0.06
-0.76
-1.56
-2.26
-2.71
-2.86
-2.71
-2.37
-1.97
-1.67
-1.61
-1.86
-2.38
-3.01
-3.49
-3.60
-3.28
-2.61
-1.88
-1.28
-0.90
-0.63
-0.27
0.31
1.09
1.87
2.43
2.67
2.64
2.53
2.50
2.67
2.95
3.24
3.44
3.55
3.59
3.57
3.43
3.10
2.59
1.98
1.47
1.19
1.21
1.44
1.76
2.11
2.50
3.01
3.62
4.28
4.81
5.08
5.09
4.94
4.82
4.80
4.85
4.81
4.54
3.96
3.18
2.42
1.90
1.79
2.07
2.58
3.13
3.51
3.65
3.57
3.37
3.10
2.85
2.56
2.22
1.89
1.61
1.48
1.56
1.83
2.20
2.59
2.92
3.16
3.40
3.74
4.23
4.84
5.48
5.97
6.14
5.84
5.04
3.86
2.49
1.19
0.16
-0.54
-0.93
-1.12
-1.22
-1.25
-1.23
-1.17
-1.11
-1.20
-1.55
-2.23
-3.21
-4.34
-5.41
-6.26
-6.83
-7.11
-7.21
-7.24
-7.31
-7.44
-7.58
-7.60
-7.39
-6.85
-6.05
-5.12
-4.26
-3.63
-3.24
-3.00
-2.74
-2.38
-1.90
-1.36
-0.85
-0.40
-0.00
0.36
0.64
0.77
0.70
0.37
-0.12
-0.69
-1.26
-1.78
-2.28
-2.76
-3.19
-3.50
-3.62
-3.54
-3.26
-2.89
-2.51
-2.20
-2.02
-1.96
-2.03
-2.17
-2.30
-2.33
-2.26
-2.08
-1.86
-1.67
-1.50
-1.30
-0.94
-0.33
0.54
1.59
2.69
3.73
4.67
5.51
6.24
6.84
7.20
7.23
6.83
6.04
4.96
3.75
2.59
1.63
0.93
0.45
0.16
-0.01
-0.10
-0.18
-0.25
-0.31
-0.42
-0.57
-0.80
-1.13
-1.49
-1.80
-1.96
-1.86
-1.51
-1.01
-0.55
-0.36
-0.62
-1.31
-2.30
-3.29
-4.02
-4.31
-4.19
-3.78
-3.32
-2.94
-2.72
-2.66
-2.75
-2.95
-3.27
-3.70
-4.15
-4.54
-4.73
-4.61
-4.12
-3.22
-2.02
-0.67
0.59
1.55
2.06
2.18
2.07
1.97
2.08
2.50
3.13
3.79
4.26
4.41
4.19
3.72
3.16
2.68
2.32
2.07
1.89
1.73
1.62
1.61
1.80
2.13
2.47
2.65
2.50
2.00
1.26
0.57
0.16
0.18
0.59
1.22
1.87
2.34
2.57
2.56
2.39
2.10
1.76
1.47
1.36
1.56
2.07
2.80
3.50
3.93
3.97
3.65
3.17
2.76
2.64
2.83
3.31
3.89
4.44
4.78
4.78
4.39
3.65
2.67
1.58
0.50
-0.52
-1.42
-2.14
-2.59
-2.70
-2.48
-2.03
-1.49
-1.02
-0.69
-0.48
-0.38
-0.32
-0.25
-0.15
0.05
0.38
0.81
1.28
1.63
1.78
1.69
1.46
1.20
1.07
1.09
1.26
1.49
1.67
1.71
1.54
1.14
0.54
-0.19
-0.99
-1.76
-2.50
-3.19
-3.78
-4.26
-4.54
-4.59
-4.38
-3.87
-3.13
-2.25
-1.38
-0.67
-0.30
-0.31
-0.60
-0.95
-1.15
-1.07
-0.74
-0.32
0.01
0.21
0.27
0.26
0.25
0.24
0.20
0.14
0.07
0.04
0.05
0.09
0.11
0.09
0.05
0.07
0.20
0.47
0.83
1.19
1.51
1.79
2.11
2.51
2.97
3.36
3.48
3.21
2.49
1.47
0.41
-0.46
-1.10
-1.59
-2.17
-2.96
-3.96
-4.94
-5.65
-5.92
-5.80
-5.48
-5.18
-4.97
-4.77
-4.40
-3.68
-2.60
-1.31
-0.07
0.91
1.59
2.01
2.36
2.74
3.18
3.58
3.81
3.84
3.77
3.72
3.78
3.94
4.05
3.96
3.57
2.91
2.15
1.48
1.00
0.75
0.61
0.46
0.15
-0.30
-0.81
-1.19
-1.29
-1.04
-0.51
0.12
0.65
0.90
0.84
0.53
0.10
-0.31
-0.63
-0.81
-0.90
-0.96
-1.05
-1.22
-1.45
-1.63
-1.68
-1.55
-1.33
-1.22
-1.37
-1.85
-2.54
-3.17
-3.47
-3.29
-2.66
-1.77
-0.89
-0.22
0.17
0.32
0.30
0.24
0.14
0.04
-0.06
-0.14
-0.16
-0.12
-0.02
0.09
0.24
0.42
0.66
0.95
1.23
1.45
1.50
1.39
1.18
0.99
0.93
1.08
1.39
1.75
2.04
2.17
2.17
2.10
2.15
2.42
3.00
3.83
4.73
5.50
5.84
5.62
4.84
3.67
2.41
1.32
0.56
0.05
-0.42
-1.07
-1.98
-3.06
-4.06
-4.67
-4.71
-4.17
-3.21
-2.06
-0.97
-0.11
0.45
0.72
0.83
0.92
1.07
1.29
1.46
1.42
1.09
0.47
-0.26
-0.89
-1.27
-1.39
-1.32
-1.17
-1.02
-0.85
-0.59
-0.23
0.18
0.54
0.72
0.70
0.58
0.50
0.55
0.70
0.83
0.76
0.45
-0.01
-0.38
-0.48
-0.21
0.33
0.90
1.29
1.37
1.18
0.87
0.62
0.54
0.70
1.00
1.32
1.50
1.40
0.97
0.30
-0.44
-1.06
-1.42
-1.51
-1.44
-1.33
-1.28
-1.23
-1.10
-0.74
-0.17
0.52
1.09
1.35
1.22
0.78
0.26
-0.12
-0.20
-0.02
0.24
0.37
0.23
-0.14
-0.65
-1.13
-1.49
-1.74
-1.92
-2.10
-2.27
-2.36
-2.28
-2.00
-1.58
-1.17
-0.94
-0.97
-1.26
-1.72
-2.23
-2.68
-3.07
-3.39
-3.66
-3.88
-4.00
-3.95
-3.71
-3.24
-2.60
-1.88
-1.18
-0.65
-0.39
-0.40
-0.57
-0.71
-0.66
-0.38
0.02
0.33
0.42
0.27
0.06
0.04
0.34
0.89
1.47
1.71
1.47
0.79
-0.02
-0.62
-0.80
-0.61
-0.34
-0.26
-0.50
-0.95
-1.33
-1.35
-0.92
-0.15
0.67
1.26
1.46
1.29
0.90
0.47
0.06
-0.38
-0.94
-1.66
-2.42
-2.97
-3.03
-2.43
-1.25
0.23
1.62
2.61
3.04
2.97
2.55
1.98
1.34
0.66
-0.07
-0.85
-1.60
-2.24
-2.65
-2.79
-2.69
-2.55
-2.51
-2.69
-3.07
-3.42
-3.54
-3.23
-2.50
-1.48
-0.42
0.48
1.13
1.55
1.79
1.93
1.96
1.89
1.73
1.51
1.30
1.15
1.09
1.13
1.21
1.31
1.38
1.37
1.20
0.80
0.10
-0.87
-1.92
-2.80
-3.28
-3.21
-2.67
-1.84
-0.94
-0.12
0.60
1.26
1.88
2.42
2.76
2.83
2.66
2.39
2.23
2.26
2.45
2.64
2.60
2.21
1.45
0.47
-0.52
-1.25
-1.53
-1.28
-0.57
0.41
1.45
2.31
2.85
3.06
3.01
2.83
2.58
2.23
1.73
1.03
0.21
-0.55
-1.00
-0.99
-0.57
0.07
0.65
0.97
1.01
0.87
0.69
0.61
0.65
0.78
0.95
1.12
1.23
1.19
0.96
0.50
-0.09
-0.69
-1.12
-1.27
-1.16
-0.88
-0.58
-0.43
-0.50
-0.81
-1.28
-1.79
-2.20
-2.45
-2.54
-2.55
-2.65
-2.89
-3.21
-3.47
-3.45
-2.98
-2.08
-0.89
0.26
1.05
1.26
0.91
0.20
-0.55
-1.05
-1.14
-0.81
-0.19
0.53
1.16
1.60
1.79
1.79
1.73
1.77
2.03
2.55
3.24
3.93
4.41
4.58
4.43
4.08
3.67
3.32
3.04
2.80
2.55
2.22
1.82
1.36
0.86
0.34
-0.21
-0.78
-1.32
-1.80
-2.11
-2.15
-1.85
-1.26
-0.52
0.12
0.41
0.18
-0.56
-1.65
-2.87
-3.93
-4.62
-4.80
-4.41
-3.51
-2.21
-0.73
0.70
1.84
2.57
2.86
2.80
2.50
2.08
1.62
1.15
0.67
0.17
-0.39
-0.99
-1.60
-2.10
-2.33
-2.22
-1.73
-1.06
-0.43
-0.07
-0.11
-0.47
-0.92
-1.21
-1.14
-0.76
-0.21
0.26
0.45
0.31
-0.06
-0.51
-0.88
-1.12
-1.28
-1.40
-1.50
-1.57
-1.56
-1.49
-1.40
-1.32
-1.30
-1.30
-1.30
-1.29
-1.28
-1.28
-1.30
-1.36
-1.46
-1.63
-1.85
-2.05
-2.10
-1.84
-1.22
-0.31
0.69
1.56
2.16
2.47
2.54
2.44
2.18
1.80
1.36
0.97
0.78
0.88
1.19
1.57
1.86
1.95
1.84
1.64
1.40
1.16
0.92
0.68
0.46
0.28
0.13
-0.06
-0.35
-0.76
-1.17
-1.39
-1.24
-0.64
0.30
1.38
2.38
3.18
3.80
4.30
4.73
5.07
5.21
5.00
4.41
3.49
2.38
1.26
0.26
-0.50
-0.97
-1.10
-0.87
-0.32
0.44
1.23
1.83
2.07
1.86
1.24
0.40
-0.44
-1.01
-1.13
-0.73
0.06
1.01
1.84
2.36
2.50
2.38
2.16
1.99
1.89
1.78
1.54
1.07
0.35
-0.51
-1.37
-2.06
-2.45
-2.57
-2.57
-2.64
-2.95
-3.49
-4.06
-4.43
-4.39
-4.00
-3.51
-3.23
-3.33
-3.69
-3.97
-3.81
-3.04
-1.76
-0.35
0.80
1.44
1.53
1.21
0.73
0.27
-0.07
-0.21
-0.09
0.31
0.93
1.60
2.10
2.21
1.87
1.17
0.33
-0.41
-0.97
-1.37
-1.70
-2.04
-2.33
-2.47
-2.33
-1.90
-1.25
-0.56
0.05
0.49
0.83
1.16
1.56
2.03
2.43
2.65
2.59
2.30
1.92
1.63
1.54
1.58
1.62
1.48
1.15
0.69
0.23
-0.10
-0.32
-0.53
-0.88
-1.44
-2.18
-2.95
-3.59
-3.96
-4.01
-3.80
-3.44
-3.07
-2.83
-2.81
-2.99
-3.26
-3.40
-3.20
-2.53
-1.45
-0.24
0.77
1.29
1.25
0.71
-0.09
-0.93
-1.69
-2.31
-2.78
-3.09
-3.17
-3.00
-2.62
-2.11
-1.58
-1.08
-0.64
-0.28
0.01
0.18
0.24
0.23
0.21
0.26
0.38
0.53
0.57
0.44
0.09
-0.41
-0.93
-1.31
-1.37
-1.02
-0.26
0.71
1.64
2.27
2.44
2.20
1.74
1.36
1.21
1.32
1.55
1.66
1.48
0.92
0.04
-1.03
-2.02
-2.73
-2.97
-2.69
-1.95
-0.97
-0.00
0.72
1.04
0.95
0.54
-0.05
-0.64
-1.10
-1.37
-1.45
-1.31
-0.94
-0.31
0.54
1.45
2.24
2.74
2.90
2.80
2.64
2.61
2.76
3.06
3.34
3.45
3.33
3.03
2.64
2.25
1.92
1.63
1.38
1.18
1.05
0.97
0.94
0.90
0.82
0.65
0.41
0.08
-0.37
-0.91
-1.57
-2.29
-3.01
-3.68
-4.29
-4.78
-5.12
-5.20
-4.95
-4.31
-3.37
-2.31
-1.36
-0.69
-0.34
-0.27
-0.28
-0.26
-0.14
0.06
0.27
0.45
0.60
0.78
1.08
1.53
2.06
2.52
2.75
2.66
2.25
1.67
1.08
0.58
0.22
-0.03
-0.19
-0.26
-0.19
0.05
0.42
0.82
1.13
1.29
1.30
1.22
1.14
1.14
1.17
1.25
1.30
1.30
1.23
1.07
0.79
0.40
-0.03
-0.46
-0.79
-1.02
-1.15
-1.19
-1.14
-0.97
-0.64
-0.16
0.34
0.72
0.79
0.52
-0.01
-0.59
-0.98
-1.12
-1.04
-0.96
-1.01
-1.20
-1.36
-1.24
-0.73
0.10
0.98
1.55
1.57
1.05
0.25
-0.47
-0.82
-0.71
-0.27
0.25
0.62
0.70
0.50
0.16
-0.20
-0.49
-0.76
-1.15
-1.76
-2.56
-3.31
-3.70
-3.42
-2.43
-0.94
0.67
1.97
2.71
2.92
2.80
2.60
2.48
2.40
2.21
1.75
0.99
0.04
-0.89
-1.57
-1.91
-1.89
-1.66
-1.36
-1.09
-0.87
-0.65
-0.34
0.06
0.45
0.73
0.79
0.63
0.39
0.25
0.40
0.85
1.45
1.95
2.08
1.71
0.93
-0.03
-0.87
-1.42
-1.64
-1.67
-1.70
-1.85
-2.14
-2.38
-2.40
-2.12
-1.59
-0.99
-0.56
-0.44
-0.63
-0.99
-1.34
-1.53
-1.53
-1.39
-1.27
-1.27
-1.49
-1.87
-2.30
-2.62
-2.70
-2.48
-1.99
-1.37
-0.70
-0.04
0.66
1.47
2.37
3.26
3.92
4.14
3.81
3.01
1.96
0.90
-0.01
-0.71
-1.27
-1.72
-2.01
-2.06
-1.78
-1.20
-0.48
0.17
0.59
0.77
0.79
0.81
0.91
1.09
1.21
1.15
0.85
0.38
-0.10
-0.46
-0.61
-0.57
-0.44
-0.34
-0.37
-0.54
-0.75
-0.90
-0.94
-0.88
-0.84
-0.90
-1.10
-1.35
-1.50
-1.38
-0.91
-0.11
0.92
2.00
2.97
3.70
4.19
4.46
4.58
4.66
4.71
4.72
4.64
4.48
4.30
4.18
4.20
4.33
4.44
4.35
3.91
3.10
2.05
0.97
0.08
-0.48
-0.73
-0.84
-1.04
-1.50
-2.18
-2.88
-3.30
-3.21
-2.63
-1.79
-1.01
-0.59
-0.57
-0.79
-1.01
-1.03
-0.88
-0.71
-0.71
-1.01
-1.55
-2.14
-2.61
-2.83
-2.85
-2.74
-2.60
-2.39
-2.00
-1.30
-0.19
1.18
2.55
3.59
4.10
4.11
3.81
3.46
3.23
3.08
2.88
2.47
1.80
0.99
0.26
-0.22
-0.38
-0.29
-0.11
0.02
0.10
0.20
0.44
0.94
1.69
2.54
3.22
3.45
3.06
2.06
0.71
-0.62
-1.57
-2.02
-2.05
-1.96
-2.02
-2.37
-2.94
-3.49
-3.82
-3.91
-3.86
-3.87
-4.07
-4.37
-4.58
-4.49
-4.05
-3.39
-2.73
-2.18
-1.74
-1.26
-0.58
0.31
1.26
2.05
2.50
2.54
2.20
1.59
0.81
-0.00
-0.70
-1.11
-1.15
-0.87
-0.48
-0.20
-0.18
-0.40
-0.68
-0.83
-0.75
-0.45
-0.08
0.25
0.47
0.61
0.70
0.78
0.84
0.90
0.92
0.93
0.92
0.90
0.82
0.66
0.35
-0.12
-0.71
-1.32
-1.89
-2.32
-2.61
-2.78
-2.93
-3.11
-3.32
-3.51
-3.59
-3.50
-3.20
-2.68
-1.95
-0.98
0.17
1.39
2.50
3.30
3.67
3.66
3.46
3.33
3.42
3.77
4.17
4.42
4.38
4.08
3.68
3.35
3.16
3.05
2.85
2.42
1.74
0.94
0.15
-0.48
-0.95
-1.29
-1.59
-1.88
-2.11
-2.25
-2.28
-2.26
-2.24
-2.27
-2.38
-2.54
-2.72
-2.85
-2.92
-2.88
-2.73
-2.46
-2.11
-1.72
-1.37
-1.11
-0.99
-1.06
-1.31
-1.75
-2.29
-2.79
-3.07
-3.00
-2.54
-1.78
-0.93
-0.22
0.19
0.29
0.12
-0.13
-0.31
-0.31
-0.10
0.27
0.70
1.13
1.55
1.93
2.25
2.41
2.37
2.06
1.60
1.20
1.08
1.38
2.02
2.77
3.36
3.63
3.57
3.27
2.89
2.52
2.19
1.90
1.65
1.48
1.40
1.38
1.35
1.23
1.01
0.69
0.31
-0.06
-0.41
-0.73
-0.98
-1.15
-1.20
-1.17
-1.11
-1.09
-1.16
-1.36
-1.66
-2.02
-2.36
-2.61
-2.67
-2.47
-2.03
-1.41
-0.77
-0.23
0.16
0.39
0.47
0.44
0.28
0.02
-0.23
-0.32
-0.12
0.37
0.98
1.52
1.83
1.91
1.91
1.98
2.18
2.43
2.61
2.61
2.46
2.27
2.11
2.01
1.90
1.71
1.42
1.08
0.77
0.57
0.47
0.45
0.44
0.41
0.29
0.06
-0.30
-0.72
-1.09
-1.33
-1.46
-1.55
-1.75
-2.18
-2.73
-3.22
-3.39
-3.15
-2.57
-1.94
-1.57
-1.65
-2.16
-2.83
-3.33
-3.38
-2.91
-2.06
-1.13
-0.35
0.13
0.34
0.40
0.45
0.51
0.59
0.63
0.63
0.69
0.93
1.44
2.19
3.02
3.70
4.07
4.03
3.68
3.19
2.74
2.40
2.18
1.97
1.63
1.17
0.66
0.20
-0.11
-0.28
-0.40
-0.59
-0.84
-1.06
-1.05
-0.70
-0.02
0.78
1.44
1.77
1.71
1.37
0.91
0.48
0.12
-0.23
-0.63
-1.13
-1.71
-2.31
-2.82
-3.14
-3.16
-2.80
-2.07
-1.10
-0.11
0.64
0.97
0.86
0.45
-0.04
-0.47
-0.79
-1.08
-1.40
-1.77
-2.07
-2.16
-1.93
-1.41
-0.82
-0.38
-0.22
-0.35
-0.57
-0.71
-0.60
-0.26
0.21
0.69
1.05
1.27
1.33
1.22
0.98
0.67
0.43
0.32
0.44
0.71
0.97
1.09
0.97
0.67
0.29
-0.06
-0.31
-0.41
-0.33
-0.03
0.48
1.15
1.80
2.18
2.11
1.53
0.63
-0.24
-0.72
-0.63
-0.01
0.84
1.53
1.80
1.59
1.04
0.41
-0.16
-0.61
-0.97
-1.25
-1.36
-1.20
-0.73
-0.05
0.56
0.84
0.64
0.02
-0.78
-1.48
-1.88
-1.96
-1.81
-1.53
-1.27
-1.12
-1.13
-1.26
-1.47
-1.63
-1.67
-1.54
-1.28
-0.95
-0.62
-0.31
-0.02
0.28
0.57
0.88
1.18
1.51
1.88
2.22
2.47
2.52
2.27
1.71
0.89
-0.05
-0.94
-1.59
-1.79
-1.44
-0.57
0.60
1.75
2.55
2.82
2.61
2.09
1.51
1.02
0.64
0.32
-0.03
-0.38
-0.66
-0.76
-0.66
-0.37
-0.00
0.31
0.45
0.37
0.07
-0.32
-0.65
-0.83
-0.78
-0.55
-0.23
0.07
0.34
0.61
0.93
1.26
1.50
1.51
1.21
0.65
-0.00
-0.53
-0.78
-0.79
-0.62
-0.42
-0.25
-0.11
-0.03
0.02
-0.01
-0.14
-0.43
-0.83
-1.30
-1.77
-2.18
-2.52
-2.76
-2.84
-2.71
-2.27
-1.50
-0.47
0.69
1.82
2.69
3.22
3.35
3.13
2.63
2.00
1.31
0.68
0.14
-0.31
-0.70
-1.05
-1.39
-1.69
-1.94
-2.07
-2.06
-1.91
-1.60
-1.18
-0.62
0.05
0.74
1.35
1.72
1.76
1.42
0.84
0.21
-0.29
-0.57
-0.70
-0.88
-1.28
-1.97
-2.85
-3.72
-4.37
-4.72
-4.80
-4.75
-4.66
-4.55
-4.42
-4.24
-4.04
-3.84
-3.65
-3.43
-3.11
-2.64
-2.09
-1.58
-1.24
-1.10
-1.10
-1.03
-0.78
-0.33
0.14
0.41
0.33
-0.04
-0.47
-0.72
-0.62
-0.23
0.25
0.60
0.73
0.72
0.76
1.02
1.46
1.95
2.24
2.16
1.71
1.08
0.51
0.25
0.36
0.70
1.06
1.20
1.01
0.54
-0.04
-0.52
-0.78
-0.81
-0.70
-0.53
-0.36
-0.16
0.07
0.32
0.54
0.73
0.95
1.34
2.04
3.07
4.32
5.56
6.48
6.86
6.59
5.77
4.61
3.41
2.40
1.67
1.19
0.79
0.34
-0.22
-0.79
-1.21
-1.37
-1.29
-1.09
-0.93
-0.91
-1.00
-1.10
-1.08
-0.90
-0.59
-0.20
0.23
0.64
1.06
1.47
1.86
2.18
2.35
2.35
2.18
1.92
1.69
1.65
1.87
2.33
2.81
3.08
2.93
2.32
1.39
0.41
-0.27
-0.48
-0.20
0.39
1.01
1.38
1.38
1.07
0.56
0.01
-0.51
-1.04
-1.59
-2.13
-2.53
-2.64
-2.33
-1.65
-0.80
-0.05
0.37
0.38
0.11
-0.26
-0.55
-0.66
-0.62
-0.55
-0.53
-0.66
-0.98
-1.46
-1.96
-2.34
-2.39
-2.04
-1.36
-0.57
0.02
0.23
0.07
-0.22
-0.37
-0.19
0.24
0.69
0.98
1.05
0.96
0.85
0.75
0.55
0.11
-0.59
-1.40
-1.97
-2.01
-1.46
-0.52
0.41
0.96
1.00
0.67
0.24
0.01
0.08
0.37
0.66
0.80
0.70
0.48
0.24
0.09
0.00
-0.09
-0.25
-0.46
-0.56
-0.41
0.09
0.89
1.76
2.42
2.65
2.41
1.81
1.08
0.43
-0.00
-0.23
-0.34
-0.48
-0.79
-1.37
-2.19
-3.18
-4.13
-4.85
-5.21
-5.19
-4.86
-4.38
-3.88
-3.44
-3.06
-2.75
-2.46
-2.19
-1.93
-1.68
-1.42
-1.13
-0.81
-0.49
-0.27
-0.23
-0.40
-0.74
-1.15
-1.50
-1.69
-1.64
-1.36
-0.88
-0.23
0.50
1.28
2.05
2.76
3.39
3.90
4.26
4.42
4.40
4.19
3.86
3.44
2.98
2.49
1.99
1.55
1.20
1.06
1.13
1.36
1.60
1.70
1.57
1.24
0.84
0.54
0.45
0.49
0.48
0.23
-0.35
-1.21
-2.17
-2.98
-3.45
-3.48
-3.10
-2.40
-1.55
-0.70
0.05
0.64
1.06
1.33
1.46
1.45
1.31
1.06
0.76
0.55
0.57
0.88
1.45
2.13
2.69
2.97
2.89
2.53
2.01
1.50
1.09
0.74
0.40
-0.03
-0.58
-1.17
-1.71
-2.09
-2.26
-2.22
-2.03
-1.71
-1.29
-0.82
-0.32
0.13
0.48
0.72
0.90
1.09
1.38
1.81
2.33
2.81
3.13
3.16
2.86
2.26
1.47
0.64
-0.03
-0.39
-0.35
0.05
0.67
1.31
1.74
1.85
1.59
1.02
0.23
-0.67
-1.59
-2.46
-3.22
-3.80
-4.19
-4.44
-4.57
-4.67
-4.70
-4.59
-4.24
-3.58
-2.65
-1.59
-0.60
0.21
0.80
1.25
1.64
1.97
2.15
2.10
1.72
1.11
0.41
-0.21
-0.63
-0.86
-0.95
-0.94
-0.85
-0.67
-0.41
-0.13
0.10
0.22
0.26
0.25
0.31
0.46
0.66
0.82
0.90
0.89
0.87
0.90
1.03
1.21
1.34
1.37
1.32
1.28
1.34
1.52
1.71
1.75
1.53
1.03
0.35
-0.33
-0.88
-1.21
-1.33
-1.27
-1.10
-0.91
-0.77
-0.73
-0.86
-1.14
-1.51
-1.89
-2.18
-2.33
-2.33
-2.18
-1.94
-1.64
-1.37
-1.20
-1.20
-1.37
-1.63
-1.84
-1.83
-1.48
-0.80
0.09
0.92
1.41
1.41
0.94
0.24
-0.38
-0.69
-0.65
-0.42
-0.23
-0.21
-0.34
-0.43
-0.26
0.24
0.95
1.69
2.24
2.51
2.61
2.64
2.71
2.81
2.86
2.76
2.46
1.99
1.44
0.93
0.49
0.19
-0.02
-0.20
-0.41
-0.70
-1.02
-1.33
-1.50
-1.51
-1.35
-1.10
-0.86
-0.74
-0.80
-1.05
-1.39
-1.70
-1.85
-1.75
-1.43
-1.03
-0.72
-0.61
-0.73
-0.96
-1.11
-1.05
-0.76
-0.37
-0.02
0.20
0.29
0.33
0.40
0.49
0.51
0.39
0.09
-0.26
-0.52
-0.51
-0.19
0.34
0.91
1.33
1.48
1.35
1.01
0.59
0.22
-0.05
-0.21
-0.31
-0.37
-0.35
-0.25
-0.03
0.28
0.58
0.76
0.78
0.61
0.37
0.18
0.16
0.37
0.77
1.27
1.75
2.16
2.46
2.70
2.94
3.18
3.30
3.11
2.49
1.42
0.12
-1.10
-1.91
-2.16
-1.91
-1.35
-0.71
-0.19
0.12
0.17
-0.07
-0.56
-1.21
-1.84
-2.24
-2.27
-1.88
-1.12
-0.15
0.81
1.62
2.12
2.25
2.07
1.68
1.25
0.96
0.87
0.97
1.11
1.14
0.94
0.52
0.02
-0.39
-0.59
-0.56
-0.39
-0.21
-0.11
-0.09
-0.12
-0.16
-0.24
-0.39
-0.61
-0.82
-0.86
-0.60
0.01
0.86
1.74
2.44
2.83
2.94
2.89
2.77
2.62
2.42
2.13
1.77
1.42
1.17
1.06
1.04
0.99
0.80
0.37
-0.23
-0.85
-1.40
-1.79
-2.07
-2.36
-2.74
-3.23
-3.74
-4.14
-4.27
-4.06
-3.51
-2.76
-1.95
-1.24
-0.70
-0.33
-0.08
0.12
0.30
0.47
0.55
0.51
0.34
0.08
-0.23
-0.56
-0.89
-1.22
-1.56
-1.86
-2.10
-2.28
-2.42
-2.56
-2.76
-3.04
-3.34
-3.56
-3.55
-3.23
-2.57
-1.61
-0.54
0.46
1.22
1.66
1.83
1.90
2.05
2.36
2.81
3.22
3.38
3.15
2.56
1.76
0.97
0.39
0.06
-0.11
-0.26
-0.46
-0.71
-0.89
-0.90
-0.70
-0.37
-0.01
0.27
0.48
0.69
0.93
1.15
1.20
0.93
0.27
-0.67
-1.65
-2.40
-2.79
-2.82
-2.57
-2.17
-1.66
-1.06
-0.38
0.27
0.75
0.94
0.77
0.35
-0.16
-0.62
-0.94
-1.16
-1.27
-1.30
-1.16
-0.83
-0.29
0.31
0.80
1.04
0.94
0.58
0.11
-0.29
-0.54
-0.66
-0.81
-1.08
-1.52
-2.06
-2.47
-2.60
-2.33
-1.70
-0.86
0.04
0.80
1.40
1.88
2.33
2.80
3.26
3.60
3.69
3.42
2.73
1.66
0.20
-1.57
-3.57
-5.59
-7.30
-8.31
-8.28
-7.12
-5.00
-2.41
0.13
2.18
3.51
4.16
4.28
4.04
3.54
2.86
2.06
1.26
0.63
0.30
0.24
0.31
0.22
-0.26
-1.21
-2.53
-3.96
-5.14
-5.82
-5.85
-5.26
-4.15
-2.71
-1.15
0.32
1.57
2.53
3.25
3.86
4.47
5.14
5.83
6.46
6.96
7.38
7.76
8.15
8.47
8.64
8.51
8.12
7.55
6.99
6.52
6.10
5.55
4.75
3.69
2.50
1.39
0.52
-0.11
-0.61
-1.10
-1.68
-2.28
-2.78
-3.03
-2.93
-2.50
-1.87
-1.22
-0.73
-0.48
-0.47
-0.55
-0.63
-0.62
-0.67
-0.91
-1.53
-2.49
-3.57
-4.47
-4.93
-4.82
-4.31
-3.61
-2.98
-2.51
-2.15
-1.80
-1.46
-1.14
-1.00
-1.08
-1.30
-1.51
-1.54
-1.33
-1.00
-0.73
-0.69
-0.91
-1.32
-1.77
-2.16
-2.45
-2.63
-2.70
-2.60
-2.26
-1.64
-0.82
0.05
0.74
1.14
1.22
1.06
0.74
0.34
-0.10
-0.56
-0.91
-1.06
-0.90
-0.48
0.08
0.55
0.75
0.63
0.29
-0.13
-0.47
-0.63
-0.66
-0.62
-0.62
-0.72
-0.89
-1.00
-0.93
-0.60
-0.08
0.41
0.60
0.31
-0.42
-1.39
-2.30
-2.91
-3.14
-3.03
-2.75
-2.45
-2.21
-2.03
-1.86
-1.66
-1.34
-0.87
-0.27
0.41
1.08
1.70
2.20
2.64
3.00
3.25
3.34
3.25
3.08
3.00
3.29
4.08
5.33
6.79
8.09
8.84
8.82
8.07
6.73
5.07
3.25
1.41
-0.35
-1.90
-3.06
-3.68
-3.70
-3.25
-2.51
-1.79
-1.19
-0.73
-0.27
0.34
1.12
1.93
2.53
2.72
2.46
1.89
1.23
0.71
0.46
0.45
0.62
0.82
1.00
1.15
1.35
1.70
2.27
3.09
4.05
4.99
5.76
6.34
6.86
7.67
9.17
11.69
15.28
19.69
24.39
28.76
32.26
34.71
36.29
37.49
38.87
40.83
43.38
46.15
48.32
48.87
46.62
40.56
30.21
15.91
-0.93
-18.12
-33.21
-44.24
-50.39
-52.16
-51.05
-48.89
-47.11
-46.38
-46.52
-46.95
-47.05
-46.48
-45.21
-43.40
-41.22
-38.71
-35.91
-32.82
-29.53
-26.19
-23.10
-20.41
-18.18
-16.21
-14.24
-11.99
-9.48
-6.95
-4.79
-3.37
-2.79
-2.85
-3.09
-3.01
-2.30
-0.91
0.91
2.83
4.51
5.74
6.49
6.85
7.01
7.17
7.49
7.99
8.61
9.25
9.86
10.44
11.07
11.85
12.73
13.65
14.52
15.36
16.33
17.68
19.60
22.10
24.98
27.96
30.80
33.42
35.88
38.28
40.64
42.83
44.66
45.93
46.56
46.57
46.05
45.02
43.44
41.20
38.17
34.29
29.63
24.30
18.45
12.26
5.87
-0.59
-6.97
-13.11
-18.82
-23.78
-27.65
-30.16
-31.20
-31.02
-30.06
-28.94
-28.08
-27.61
-27.28
-26.64
-25.30
-23.06
-20.06
-16.65
-13.28
-10.29
-7.91
-6.24
-5.35
-5.25
-5.89
-7.12
-8.67
-10.16
-11.25
-11.73
-11.59
-11.01
-10.27
-9.63
-9.21
-8.91
-8.49
-7.65
-6.13
-3.84
-0.88
2.54
6.09
9.47
12.45
14.87
16.62
17.66
18.00
17.66
16.84
15.79
14.86
14.39
14.52
15.18
16.02
16.56
16.36
15.24
13.30
10.87
8.40
6.25
4.71
3.90
3.79
4.22
4.88
5.35
5.27
4.48
3.08
1.45
-0.00
-1.03
-1.67
-2.20
-2.95
-4.11
-5.67
-7.41
-9.16
-10.86
-12.58
-14.40
-16.28
-18.00
-19.15
-19.42
-18.73
-17.33
-15.69
-14.30
-13.44
-13.14
-13.21
-13.43
-13.74
-14.10
-14.52
-14.90
-15.09
-15.00
-14.70
-14.47
-14.59
-15.20
-16.10
-16.90
-17.18
-16.75
-15.68
-14.26
-12.78
-11.45
-10.31
-9.36
-8.57
-7.96
-7.45
-6.83
-5.76
-3.82
-0.76
3.41
8.24
13.09
17.23
20.13
21.60
21.73
20.80
19.01
16.49
13.25
9.41
5.20
0.99
-2.85
-6.08
-8.68
-10.73
-12.34
-13.58
-14.46
-15.08
-15.61
-16.25
-17.12
-18.15
-19.15
-19.90
-20.29
-20.34
-20.13
-19.66
-18.82
-17.45
-15.53
-13.17
-10.63
-8.15
-5.76
-3.30
-0.50
2.80
6.43
10.02
12.98
14.78
15.08
13.87
11.45
8.41
5.48
3.41
2.73
3.60
5.76
8.57
11.25
13.06
13.57
12.64
10.44
7.32
3.68
-0.14
-3.89
-7.39
-10.42
-12.77
-14.17
-14.43
-13.52
-11.70
-9.40
-7.08
-5.11
-3.61
-2.58
-1.90
-1.52
-1.37
-1.38
-1.41
-1.24
-0.73
0.14
1.22
2.30
3.24
4.05
4.76
5.43
6.06
6.71
7.68
9.52
12.83
17.92
24.36
31.05
36.43
39.23
38.86
35.71
30.76
25.21
19.94
15.48
11.95
9.38
7.71
6.77
6.18
5.39
3.85
1.30
-2.17
-6.04
-9.64
-12.41
-14.16
-15.07
-15.56
-16.06
-16.84
-17.88
-18.96
-19.88
-20.55
-21.14
-21.90
-23.09
-24.80
-26.92
-29.14
-31.16
-32.76
-33.85
-34.54
-35.02
-35.47
-35.96
-36.43
-36.79
-37.01
-37.40
-38.52
-41.15
-45.84
-52.77
-61.48
-71.06
-80.48
-88.93
-96.22
-102.71
-109.18
-116.41
-124.88
-134.58
-145.10
-155.99
-166.95
-178.04
-189.67
-202.36
-216.62
-233.01
-252.33
-275.42
-302.68
-333.16
-363.95
-390.39
-407.29
-410.87
-400.26
-377.85
-348.18
-316.22
-285.46
-257.39
-231.83
-208.12
-185.93
-165.46
-147.17
-131.05
-116.51
-102.57
-88.39
-73.75
-58.97
-44.91
-32.32
-21.58
-12.50
-4.51
3.11
10.85
18.83
26.81
34.40
41.31
47.43
52.94
58.14
63.31
68.61
74.09
79.77
85.70
91.98
98.71
105.88
113.33
120.74
127.85
134.59
141.26
148.45
156.82
166.85
178.58
191.65
205.42
219.29
232.99
246.69
260.89
276.34
293.96
314.63
338.93
366.47
395.36
422.08
442.22
451.77
448.68
433.64
409.71
381.06
351.35
322.75
295.88
270.60
246.87
225.07
205.76
189.16
174.76
161.52
148.35
134.73
120.82
107.31
94.99
84.35
75.37
67.64
60.61
53.80
46.95
40.06
33.36
27.18
21.86
17.64
14.63
12.67
11.41
10.39
9.24
7.82
6.20
4.59
3.12
1.72
0.15
-1.92
-4.63
-7.91
-11.37
-14.50
-16.85
-18.22
-18.61
-18.26
-17.47
-16.53
-15.67
-15.02
-14.64
-14.48
-14.40
-14.19
-13.59
-12.39
-10.54
-8.19
-5.69
-3.56
-2.21
-1.88
-2.48
-3.62
-4.85
-5.82
-6.40
-6.70
-6.91
-7.16
-7.44
-7.65
-7.76
-7.92
-8.40
-9.50
-11.26
-13.47
-15.62
-17.20
-17.90
-17.67
-16.76
-15.44
-13.96
-12.42
-10.92
-9.53
-8.36
-7.47
-6.82
-6.28
-5.66
-4.86
-3.93
-3.07
-2.53
-2.49
-2.89
-3.54
-4.20
-4.68
-4.99
-5.24
-5.57
-6.05
-6.64
-7.23
-7.69
-8.02
-8.33
-8.80
-9.58
-10.70
-12.07
-13.44
-14.56
-15.19
-15.21
-14.65
-13.65
-12.44
-11.25
-10.27
-9.57
-9.18
-9.05
-9.09
-9.20
-9.27
-9.19
-8.90
-8.38
-7.69
-6.96
-6.33
-5.89
-5.61
-5.36
-4.97
-4.34
-3.54
-2.85
-2.62
-3.18
-4.58
-6.60
-8.70
-10.31
-10.94
-10.45
-9.07
-7.32
-5.77
-4.95
-5.16
-6.53
-9.03
-12.49
-16.59
-20.89
-24.82
-27.94
-29.91
-30.75
-30.71
-30.15
-29.36
-28.42
-27.23
-25.63
-23.52
-20.93
-18.05
-15.12
-12.38
-10.03
-8.20
-6.99
-6.40
-6.38
-6.73
-7.27
-7.80
-8.23
-8.53
-8.67
-8.65
-8.40
-7.92
-7.23
-6.52
-5.98
-5.75
-5.91
-6.35
-6.89
-7.35
-7.62
-7.66
-7.52
-7.21
-6.71
-5.95
-4.92
-3.77
-2.72
-2.06
-1.98
-2.42
-3.04
-3.39
-3.13
-2.17
-0.81
0.43
1.05
0.80
-0.26
-1.76
-3.27
-4.40
-4.95
-4.95
-4.52
-3.88
-3.24
-2.80
-2.79
-3.37
-4.63
-6.46
-8.62
-10.71
-12.29
-13.05
-12.86
-11.76
-10.01
-7.91
-5.79
-3.91
-2.42
-1.32
-0.49
0.32
1.39
2.87
4.66
6.44
7.79
8.29
7.86
6.70
5.32
4.23
3.77
3.93
4.41
4.82
4.83
4.32
3.34
2.02
0.61
-0.63
-1.36
-1.34
-0.50
0.97
2.64
3.99
4.70
4.74
4.33
3.74
3.10
2.34
1.33
-0.00
-1.49
-2.82
-3.70
-4.01
-3.85
-3.46
-3.05
-2.75
-2.55
-2.41
-2.31
-2.26
-2.36
-2.63
-3.04
-3.46
-3.75
-3.77
-3.47
-2.91
-2.25
-1.67
-1.32
-1.29
-1.60
-2.17
-2.89
-3.61
-4.19
-4.50
-4.46
-4.09
-3.53
-2.93
-2.48
-2.26
-2.27
-2.42
-2.63
-2.84
-3.05
-3.21
-3.27
-3.06
-2.47
-1.48
-0.20
1.10
2.14
2.80
3.06
3.03
2.82
2.45
1.87
0.97
-0.20
-1.49
-2.63
-3.40
-3.70
-3.64
-3.46
-3.42
-3.65
-4.11
-4.63
-5.03
-5.22
-5.26
-5.26
-5.34
-5.45
-5.48
-5.25
-4.77
-4.15
-3.65
-3.44
-3.52
-3.72
-3.86
-3.83
-3.66
-3.52
-3.49
-3.52
-3.46
-3.16
-2.60
-1.95
-1.47
-1.39
-1.78
-2.49
-3.27
-3.85
-4.12
-4.12
-4.03
-4.09
-4.43
-5.05
-5.79
-6.42
-6.79
-6.83
-6.62
-6.28
-5.87
-5.44
-4.97
-4.48
-4.04
-3.70
-3.52
-3.46
-3.47
-3.49
-3.52
-3.57
-3.65
-3.71
-3.63
-3.31
-2.73
-1.95
-1.16
-0.53
-0.14
0.04
0.13
0.25
0.41
0.53
0.43
0.05
-0.53
-1.05
-1.21
-0.87
-0.13
0.58
0.79
0.19
-1.14
-2.79
-4.17
-4.85
-4.70
-3.96
-3.03
-2.26
-1.84
-1.75
-1.87
-2.10
-2.35
-2.54
-2.59
-2.40
-1.93
-1.27
-0.56
-0.03
0.20
0.16
-0.03
-0.16
-0.09
0.23
0.75
1.30
1.74
1.95
1.90
1.63
1.27
0.97
0.83
0.86
0.99
1.05
0.94
0.59
0.12
-0.36
-0.73
-0.97
-1.13
-1.27
-1.47
-1.73
-2.05
-2.46
-2.99
-3.69
-4.51
-5.30
-5.83
-5.95
-5.58
-4.86
-3.99
-3.25
-2.82
-2.75
-2.94
-3.19
-3.27
-3.00
-2.34
-1.41
-0.43
0.35
0.71
0.55
-0.04
-0.92
-1.87
-2.71
-3.31
-3.65
-3.75
-3.70
-3.57
-3.42
-3.25
-3.00
-2.53
-1.74
-0.54
1.12
3.23
5.77
8.69
11.85
14.97
17.64
19.39
19.88
19.05
17.20
15.01
13.29
12.65
13.38
15.26
17.75
20.22
22.10
22.99
22.52
20.35
16.17
9.91
2.03
-6.46
-14.22
-20.10
-23.58
-25.00
-25.27
-25.40
-25.98
-26.96
-27.88
-28.23
-27.83
-26.88
-25.84
-25.09
-24.70
-24.40
-23.77
-22.50
-20.48
-17.93
-15.23
-12.77
-10.77
-9.23
-7.95
-6.72
-5.44
-4.18
-3.12
-2.46
-2.23
-2.26
-2.29
-2.06
-1.48
-0.63
0.23
0.87
1.17
1.20
1.17
1.30
1.65
2.14
2.51
2.57
2.22
1.54
0.75
0.02
-0.54
-0.98
-1.31
-1.56
-1.63
-1.41
-0.79
0.17
1.32
2.43
3.28
3.74
3.74
3.35
2.63
1.75
0.84
0.09
-0.39
-0.57
-0.55
-0.51
-0.65
-1.08
-1.78
-2.56
-3.27
-3.77
-4.06
-4.24
-4.44
-4.76
-5.21
-5.75
-6.27
-6.67
-6.83
-6.68
-6.19
-5.37
-4.26
-2.95
-1.49
0.04
1.51
2.73
3.52
3.74
3.41
2.76
2.11
1.71
1.61
1.66
1.61
1.24
0.57
-0.25
-0.94
-1.28
-1.24
-0.92
-0.55
-0.30
-0.31
-0.53
-0.86
-1.13
-1.23
-1.13
-0.92
-0.69
-0.46
-0.20
0.21
0.86
1.66
2.45
2.99
3.11
2.87
2.46
2.14
2.10
2.36
2.82
3.30
3.67
3.91
4.06
4.20
4.41
4.72
5.13
5.56
5.94
6.16
6.14
5.85
5.35
4.75
4.21
3.88
3.84
4.11
4.64
5.32
6.05
6.71
7.19
7.39
7.25
6.78
6.05
5.18
4.28
3.44
2.65
1.87
1.03
0.11
-0.89
-1.94
-3.00
-4.06
-5.06
-5.93
-6.54
-6.74
-6.43
-5.67
-4.62
-3.55
-2.73
-2.34
-2.45
-3.00
-3.84
-4.83
-5.82
-6.73
-7.48
-8.05
-8.40
-8.52
-8.37
-7.97
-7.36
-6.64
-5.91
-5.19
-4.44
-3.58
-2.60
-1.63
-0.86
-0.54
-0.77
-1.49
-2.48
-3.42
-4.07
-4.29
-4.07
-3.54
-2.87
-2.23
-1.75
-1.46
-1.33
-1.31
-1.36
-1.47
-1.65
-1.84
-1.95
-1.80
-1.31
-0.51
0.44
1.27
1.74
1.79
1.47
0.98
0.54
0.22
0.04
-0.07
-0.22
-0.45
-0.77
-1.13
-1.46
-1.65
-1.64
-1.37
-0.89
-0.31
0.26
0.68
0.89
0.93
0.85
0.75
0.70
0.74
0.92
1.26
1.77
2.45
3.24
4.09
4.91
5.59
6.03
6.12
5.85
5.27
4.50
3.70
2.92
2.17
1.38
0.48
-0.47
-1.35
-2.03
-2.41
-2.49
-2.33
-2.03
-1.65
-1.21
-0.80
-0.50
-0.41
-0.53
-0.77
-0.95
-0.90
-0.57
-0.05
0.38
0.46
0.05
-0.76
-1.71
-2.42
-2.62
-2.24
-1.44
-0.57
0.05
0.26
0.12
-0.16
-0.38
-0.46
-0.47
-0.57
-0.89
-1.40
-1.95
-2.36
-2.54
-2.52
-2.46
-2.51
-2.72
-2.97
-3.06
-2.79
-2.13
-1.25
-0.43
0.04
0.04
-0.36
-0.92
-1.34
-1.45
-1.23
-0.78
-0.28
0.11
0.35
0.51
0.69
0.99
1.43
1.97
2.45
2.79
2.91
2.86
2.69
2.53
2.44
2.42
2.43
2.43
2.35
2.17
1.83
1.34
0.75
0.18
-0.24
-0.44
-0.45
-0.40
-0.47
-0.75
-1.25
-1.85
-2.43
-2.89
-3.23
-3.51
-3.78
-4.01
-4.08
-3.86
-3.30
-2.45
-1.47
-0.55
0.16
0.59
0.73
0.62
0.33
-0.05
-0.37
-0.50
-0.34
0.09
0.63
1.09
1.25
1.06
0.56
-0.05
-0.54
-0.67
-0.27
0.76
2.40
4.44
6.57
8.39
9.58
9.93
9.42
8.19
6.47
4.55
2.65
0.97
-0.37
-1.27
-1.74
-1.80
-1.54
-1.04
-0.39
0.36
1.20
2.12
3.15
4.32
5.58
6.88
8.08
9.01
9.49
9.41
8.73
7.52
6.01
4.51
3.39
2.93
3.26
4.25
5.56
6.78
7.65
8.14
8.50
9.19
10.64
13.15
16.72
21.04
25.62
29.79
32.85
34.07
32.76
28.39
20.85
10.64
-0.99
-12.36
-21.81
-28.33
-31.87
-33.19
-33.41
-33.44
-33.63
-33.86
-33.88
-33.50
-32.84
-32.08
-31.32
-30.46
-29.33
-27.81
-26.01
-24.20
-22.62
-21.40
-20.45
-19.56
-18.50
-17.10
-15.39
-13.48
-11.57
-9.84
-8.49
-7.54
-6.91
-6.37
-5.64
-4.48
-2.86
-0.92
1.01
2.56
3.52
3.83
3.67
3.25
2.78
2.38
2.16
2.17
2.47
3.04
3.77
4.49
4.98
5.14
4.98
4.63
4.21
3.85
3.63
3.55
3.63
3.88
4.29
4.83
5.40
5.85
6.00
5.77
5.13
4.19
3.15
2.21
1.54
1.18
1.08
1.15
1.31
1.48
1.59
1.58
1.40
1.09
0.71
0.38
0.19
0.10
0.06
-0.03
-0.20
-0.38
-0.51
-0.55
-0.57
-0.69
-0.96
-1.35
-1.69
-1.82
-1.67
-1.26
-0.71
-0.09
0.56
1.28
2.07
2.88
3.59
4.10
4.36
4.42
4.38
4.29
4.16
3.90
3.41
2.65
1.66
0.61
-0.27
-0.78
-0.79
-0.32
0.49
1.40
2.18
2.72
3.02
3.14
3.17
3.09
2.87
2.42
1.74
0.97
0.34
0.03
0.12
0.48
0.83
0.88
0.44
-0.43
-1.45
-2.27
-2.59
-2.32
-1.66
-0.98
-0.64
-0.83
-1.41
-2.08
-2.49
-2.43
-1.95
-1.25
-0.57
-0.01
0.40
0.75
1.05
1.26
1.31
1.20
0.98
0.78
0.71
0.77
0.93
1.06
1.06
0.93
0.70
0.46
0.26
0.15
0.15
0.29
0.54
0.87
1.21
1.44
1.47
1.24
0.80
0.28
-0.18
-0.47
-0.58
-0.56
-0.55
-0.61
-0.75
-0.95
-1.17
-1.38
-1.58
-1.75
-1.83
-1.77
-1.52
-1.12
-0.63
-0.15
0.24
0.51
0.67
0.73
0.70
0.55
0.33
0.06
-0.18
-0.35
-0.41
-0.45
-0.50
-0.61
-0.74
-0.83
-0.80
-0.65
-0.46
-0.32
-0.33
-0.44
-0.51
-0.35
0.13
0.93
1.87
2.68
3.14
3.12
2.66
1.94
1.21
0.68
0.49
0.62
0.94
1.25
1.38
1.22
0.79
0.17
-0.50
-1.11
-1.64
-2.12
-2.58
-2.99
-3.26
-3.27
-2.97
-2.42
-1.82
-1.36
-1.15
-1.14
-1.16
-1.02
-0.65
-0.10
0.47
0.93
1.17
1.19
1.06
0.90
0.81
0.85
1.07
1.43
1.91
2.43
2.89
3.16
3.13
2.73
1.95
0.92
-0.12
-0.91
-1.24
-1.05
-0.47
0.23
0.78
0.99
0.82
0.41
-0.01
-0.27
-0.25
-0.02
0.26
0.40
0.29
-0.09
-0.60
-1.05
-1.25
-1.13
-0.70
-0.12
0.45
0.91
1.23
1.44
1.60
1.68
1.64
1.40
0.95
0.39
-0.12
-0.42
-0.42
-0.17
0.17
0.43
0.49
0.28
-0.15
-0.70
-1.24
-1.68
-1.98
-2.13
-2.15
-2.07
-1.92
-1.71
-1.47
-1.24
-1.06
-0.96
-0.89
-0.81
-0.65
-0.42
-0.18
-0.04
-0.06
-0.22
-0.42
-0.54
-0.46
-0.21
0.08
0.23
0.05
-0.51
-1.29
-1.99
-2.29
-2.02
-1.29
-0.38
0.34
0.69
0.73
0.72
0.95
1.56
2.47
3.48
4.34
4.92
5.19
5.19
4.95
4.49
3.80
2.93
1.97
1.03
0.19
-0.53
-1.11
-1.57
-1.89
-2.05
-2.07
-2.04
-2.06
-2.17
-2.33
-2.41
-2.28
-1.95
-1.50
-1.08
-0.77
-0.58
-0.41
-0.24
-0.13
-0.22
-0.59
-1.14
-1.58
-1.59
-1.02
-0.01
1.08
1.80
1.87
1.33
0.45
-0.42
-0.99
-1.21
-1.21
-1.21
-1.35
-1.71
-2.20
-2.71
-3.13
-3.44
-3.65
-3.77
-3.81
-3.69
-3.35
-2.74
-1.90
-0.93
0.00
0.76
1.29
1.61
1.79
1.89
1.92
1.85
1.67
1.37
1.00
0.66
0.39
0.20
0.03
-0.15
-0.34
-0.48
-0.46
-0.24
0.16
0.60
0.91
0.96
0.71
0.19
-0.44
-1.06
-1.51
-1.68
-1.52
-1.04
-0.35
0.39
1.00
1.32
1.30
0.99
0.56
0.22
0.16
0.44
0.95
1.46
1.76
1.73
1.40
0.93
0.48
0.11
-0.22
-0.63
-1.21
-1.90
-2.53
-2.86
-2.70
-2.02
-0.99
0.14
1.09
1.69
1.93
1.91
1.78
1.64
1.49
1.26
0.89
0.40
-0.12
-0.54
-0.80
-0.93
-1.04
-1.24
-1.55
-1.89
-2.15
-2.23
-2.17
-2.08
-2.04
-2.08
-2.15
-2.14
-2.02
-1.82
-1.62
-1.50
-1.43
-1.31
-1.00
-0.45
0.26
0.97
1.47
1.60
1.32
0.70
-0.07
-0.79
-1.25
-1.34
-1.08
-0.63
-0.17
0.11
0.19
0.13
0.05
0.08
0.21
0.36
0.45
0.40
0.22
-0.01
-0.21
-0.29
-0.22
-0.05
0.18
0.47
0.82
1.27
1.86
2.58
3.34
4.00
4.41
4.49
4.23
3.68
2.93
2.06
1.19
0.42
-0.16
-0.44
-0.43
-0.19
0.12
0.34
0.36
0.14
-0.20
-0.56
-0.81
-0.90
-0.86
-0.74
-0.58
-0.41
-0.20
0.11
0.51
1.00
1.47
1.80
1.90
1.74
1.37
0.88
0.34
-0.19
-0.67
-1.10
-1.41
-1.53
-1.36
-0.93
-0.34
0.26
0.69
0.94
1.04
1.11
1.15
1.11
0.82
0.21
-0.72
-1.74
-2.60
-3.09
-3.17
-2.98
-2.78
-2.80
-3.10
-3.61
-4.18
-4.66
-4.97
-5.11
-5.07
-4.79
-4.16
-3.08
-1.51
0.38
2.32
3.98
5.09
5.57
5.53
5.21
4.89
4.70
4.66
4.59
4.35
3.82
3.06
2.21
1.42
0.73
0.07
-0.64
-1.43
-2.16
-2.60
-2.59
-2.16
-1.56
-1.13
-1.13
-1.55
-2.15
-2.63
-2.76
-2.51
-1.97
-1.29
-0.54
0.25
1.02
1.66
2.02
2.04
1.78
1.44
1.21
1.15
1.13
0.95
0.47
-0.27
-1.08
-1.70
-1.94
-1.79
-1.46
-1.18
-1.16
-1.44
-1.92
-2.40
-2.72
-2.76
-2.60
-2.31
-2.02
-1.78
-1.58
-1.45
-1.42
-1.57
-1.94
-2.46
-2.94
-3.15
-2.93
-2.32
-1.48
-0.66
-0.01
0.47
0.87
1.30
1.79
2.24
2.55
2.66
2.65
2.68
2.88
3.28
3.72
3.95
3.76
3.06
1.98
0.76
-0.35
-1.20
-1.78
-2.18
-2.50
-2.76
-2.89
-2.81
-2.51
-2.07
-1.64
-1.39
-1.39
-1.60
-1.90
-2.17
-2.35
-2.39
-2.29
-2.03
-1.60
-1.05
-0.49
-0.03
0.23
0.27
0.15
0.01
-0.08
-0.07
0.02
0.19
0.49
0.96
1.62
2.37
3.05
3.51
3.69
3.65
3.50
3.35
3.21
2.99
2.58
1.94
1.13
0.27
-0.46
-0.93
-1.07
-0.95
-0.70
-0.43
-0.26
-0.23
-0.29
-0.31
-0.19
0.15
0.68
1.27
1.79
2.12
2.23
2.16
2.01
1.87
1.80
1.76
1.69
1.51
1.17
0.68
0.07
-0.59
-1.27
-1.94
-2.53
-3.00
-3.23
-3.21
-3.00
-2.71
-2.52
-2.52
-2.69
-2.93
-3.09
-3.07
-2.87
-2.52
-2.03
-1.40
-0.61
0.32
1.28
2.09
2.56
2.62
2.29
1.74
1.15
0.68
0.39
0.23
0.06
-0.23
-0.72
-1.36
-2.04
-2.62
-2.98
-3.05
-2.86
-2.44
-1.84
-1.16
-0.49
0.07
0.43
0.60
0.61
0.56
0.52
0.53
0.59
0.69
0.86
1.13
1.51
1.99
2.48
2.87
3.08
3.06
2.79
2.32
1.71
1.07
0.50
0.09
-0.10
-0.08
0.10
0.35
0.59
0.72
0.72
0.62
0.52
0.52
0.63
0.83
0.98
0.95
0.67
0.21
-0.29
-0.71
-0.98
-1.16
-1.37
-1.70
-2.19
-2.75
-3.24
-3.54
-3.59
-3.41
-3.13
-2.86
-2.63
-2.45
-2.20
-1.80
-1.21
-0.51
0.16
0.69
0.98
1.04
0.93
0.78
0.71
0.82
1.13
1.59
2.08
2.45
2.68
2.79
2.93
3.17
3.52
3.85
3.97
3.78
3.35
2.88
2.60
2.59
2.78
2.95
2.90
2.60
2.14
1.71
1.45
1.35
1.32
1.19
0.88
0.44
-0.06
-0.52
-0.89
-1.19
-1.46
-1.68
-1.77
-1.69
-1.41
-1.03
-0.70
-0.58
-0.75
-1.17
-1.69
-2.06
-2.11
-1.78
-1.18
-0.54
-0.03
0.24
0.38
0.55
0.95
1.61
2.42
3.13
3.53
3.45
2.93
2.10
1.12
0.16
-0.65
-1.28
-1.71
-2.02
-2.29
-2.59
-2.95
-3.30
-3.50
-3.37
-2.86
-1.99
-0.96
0.02
0.74
1.11
1.15
0.96
0.63
0.20
-0.26
-0.73
-1.12
-1.37
-1.45
-1.38
-1.21
-1.00
-0.78
-0.52
-0.19
0.21
0.66
1.11
1.50
1.82
2.08
2.28
2.40
2.39
2.22
1.88
1.42
0.89
0.35
-0.14
-0.55
-0.88
-1.10
-1.22
-1.26
-1.24
-1.19
-1.08
-0.95
-0.80
-0.65
-0.51
-0.41
-0.35
-0.39
-0.61
-1.07
-1.74
-2.49
-3.07
-3.30
-3.08
-2.50
-1.78
-1.17
-0.82
-0.70
-0.71
-0.69
-0.59
-0.44
-0.34
-0.36
-0.52
-0.74
-0.86
-0.76
-0.36
0.29
1.06
1.78
2.33
2.70
2.91
3.00
2.90
2.53
1.79
0.74
-0.43
-1.40
-1.93
-1.99
-1.71
-1.40
-1.31
-1.53
-1.93
-2.25
-2.24
-1.79
-1.02
-0.24
0.23
0.20
-0.29
-0.97
-1.50
-1.62
-1.31
-0.76
-0.24
0.04
0.08
0.04
0.11
0.40
0.82
1.21
1.39
1.35
1.20
1.14
1.28
1.61
1.96
2.15
2.03
1.56
0.90
0.24
-0.25
-0.47
-0.43
-0.29
-0.15
-0.12
-0.18
-0.26
-0.31
-0.28
-0.26
-0.33
-0.55
-0.89
-1.15
-1.14
-0.74
-0.03
0.75
1.28
1.32
0.90
0.23
-0.35
-0.54
-0.22
0.51
1.38
2.12
2.54
2.58
2.28
1.75
1.10
0.47
-0.04
-0.35
-0.43
-0.33
-0.12
0.09
0.23
0.24
0.10
-0.18
-0.52
-0.80
-0.88
-0.68
-0.25
0.28
0.70
0.85
0.71
0.42
0.23
0.32
0.72
1.25
1.60
1.51
0.89
-0.12
-1.21
-2.00
-2.29
-2.07
-1.52
-0.90
-0.40
-0.04
0.30
0.72
1.26
1.82
2.22
2.34
2.17
1.84
1.47
1.19
0.99
0.82
0.58
0.23
-0.23
-0.73
-1.18
-1.53
-1.72
-1.72
-1.48
-1.01
-0.33
0.50
1.36
2.15
2.73
3.02
2.97
2.61
2.03
1.37
0.75
0.28
-0.01
-0.16
-0.24
-0.28
-0.28
-0.20
-0.01
0.30
0.66
0.93
0.99
0.73
0.22
-0.43
-1.02
-1.39
-1.50
-1.45
-1.39
-1.50
-1.84
-2.29
-2.63
-2.65
-2.30
-1.74
-1.26
-1.18
-1.59
-2.33
-3.07
-3.46
-3.31
-2.68
-1.82
-0.96
-0.27
0.25
0.67
1.02
1.25
1.33
1.27
1.19
1.26
1.55
2.01
2.49
2.81
2.85
2.66
2.31
1.87
1.38
0.86
0.31
-0.20
-0.64
-0.97
-1.26
-1.55
-1.91
-2.30
-2.64
-2.84
-2.85
-2.68
-2.35
-1.94
-1.50
-1.11
-0.84
-0.73
-0.74
-0.78
-0.74
-0.54
-0.23
0.11
0.32
0.31
0.07
-0.33
-0.72
-0.95
-0.89
-0.51
0.12
0.84
1.43
1.70
1.61
1.25
0.79
0.40
0.13
-0.04
-0.20
-0.38
-0.55
-0.58
-0.39
0.02
0.57
1.09
1.39
1.40
1.11
0.64
0.11
-0.36
-0.70
-0.86
-0.80
-0.52
-0.01
0.63
1.29
1.83
2.14
2.17
1.92
1.48
0.93
0.39
-0.06
-0.35
-0.50
-0.54
-0.58
-0.63
-0.68
-0.69
-0.58
-0.32
0.06
0.46
0.80
1.06
1.27
1.49
1.72
1.93
2.01
1.88
1.53
1.00
0.42
-0.12
-0.56
-0.88
-1.11
-1.24
-1.26
-1.10
-0.78
-0.34
0.08
0.34
0.35
0.10
-0.29
-0.72
-1.06
-1.22
-1.19
-0.98
-0.69
-0.40
-0.22
-0.23
-0.45
-0.83
-1.25
-1.56
-1.64
-1.45
-1.04
-0.52
-0.02
0.37
0.66
0.92
1.22
1.53
1.76
1.73
1.31
0.53
-0.45
-1.34
-1.90
-2.03
-1.81
-1.45
-1.19
-1.13
-1.22
-1.30
-1.22
-0.95
-0.53
-0.11
0.23
0.46
0.63
0.81
0.97
1.01
0.83
0.36
-0.34
-1.11
-1.72
-2.00
-1.89
-1.50
-1.03
-0.69
-0.57
-0.67
-0.85
-0.93
-0.81
-0.48
-0.06
0.38
0.75
1.03
1.25
1.46
1.62
1.74
1.73
1.60
1.36
1.06
0.75
0.43
0.03
-0.52
-1.21
-1.95
-2.57
-2.92
-2.95
-2.78
-2.55
-2.41
-2.37
-2.33
-2.13
-1.69
-1.02
-0.22
0.58
1.31
1.93
2.41
2.76
2.92
2.91
2.77
2.58
2.38
2.16
1.87
1.47
0.98
0.50
0.14
-0.03
-0.04
0.07
0.22
0.42
0.67
1.03
1.44
1.79
1.94
1.79
1.36
0.78
0.24
-0.11
-0.21
-0.17
-0.16
-0.35
-0.82
-1.49
-2.18
-2.70
-2.94
-2.93
-2.80
-2.69
-2.64
-2.58
-2.38
-1.98
-1.41
-0.81
-0.32
-0.02
0.10
0.12
0.10
0.07
0.06
0.08
0.15
0.33
0.65
1.10
1.61
2.09
2.48
2.70
2.73
2.57
2.25
1.80
1.28
0.75
0.22
-0.31
-0.83
-1.27
-1.51
-1.44
-1.06
-0.49
0.05
0.39
0.43
0.25
0.01
-0.10
-0.06
0.09
0.22
0.25
0.17
0.07
-0.00
0.00
0.03
0.01
-0.08
-0.23
-0.39
-0.49
-0.54
-0.59
-0.73
-1.01
-1.42
-1.87
-2.23
-2.45
-2.48
-2.36
-2.15
-1.88
-1.54
-1.12
-0.65
-0.18
0.27
0.65
0.99
1.29
1.54
1.67
1.68
1.56
1.40
1.25
1.14
1.05
0.96
0.87
0.85
0.99
1.31
1.77
2.23
2.59
2.77
2.80
2.76
2.70
2.61
2.44
2.10
1.58
0.90
0.18
-0.45
-0.88
-1.12
-1.21
-1.30
-1.48
-1.79
-2.15
-2.45
-2.61
-2.61
-2.51
-2.37
-2.27
-2.22
-2.23
-2.29
-2.41
-2.57
-2.70
-2.76
-2.67
-2.41
-1.99
-1.47
-0.89
-0.27
0.36
0.94
1.40
1.71
1.87
1.97
2.15
2.44
2.78
2.98
2.84
2.29
1.43
0.52
-0.20
-0.58
-0.71
-0.74
-0.86
-1.08
-1.30
-1.37
-1.19
-0.83
-0.45
-0.25
-0.26
-0.38
-0.43
-0.22
0.26
0.92
1.58
2.07
2.30
2.29
2.15
2.00
1.96
2.10
2.36
2.57
2.56
2.16
1.35
0.27
-0.80
-1.60
-1.99
-2.06
-2.01
-2.05
-2.23
-2.47
-2.59
-2.49
-2.19
-1.87
-1.69
-1.72
-1.92
-2.08
-2.01
-1.56
-0.81
0.07
0.78
1.12
1.05
0.73
0.47
0.51
0.96
1.67
2.34
2.70
2.65
2.26
1.73
1.22
0.76
0.29
-0.29
-1.00
-1.73
-2.33
-2.67
-2.68
-2.41
-1.94
-1.37
-0.79
-0.21
0.38
1.02
1.75
2.54
3.32
3.97
4.33
4.35
4.07
3.65
3.22
2.87
2.54
2.14
1.59
0.94
0.32
-0.10
-0.22
-0.04
0.31
0.69
1.01
1.22
1.36
1.44
1.45
1.34
1.05
0.58
0.02
-0.48
-0.79
-0.83
-0.69
-0.56
-0.59
-0.89
-1.35
-1.78
-1.99
-1.91
-1.62
-1.30
-1.14
-1.17
-1.35
-1.53
-1.57
-1.43
-1.17
-0.88
-0.65
-0.47
-0.27
0.02
0.42
0.83
1.07
1.02
0.63
0.04
-0.51
-0.76
-0.62
-0.16
0.40
0.81
0.94
0.87
0.82
1.05
1.64
2.45
3.15
3.48
3.37
2.98
2.57
2.34
2.27
2.16
1.76
1.02
0.09
-0.79
-1.38
-1.66
-1.75
-1.78
-1.85
-1.88
-1.80
-1.60
-1.33
-1.10
-0.95
-0.80
-0.55
-0.13
0.45
1.07
1.62
2.03
2.31
2.51
2.63
2.60
2.32
1.70
0.82
-0.14
-0.95
-1.44
-1.62
-1.60
-1.57
-1.66
-1.90
-2.24
-2.62
-2.98
-3.31
-3.57
-3.66
-3.48
-2.97
-2.21
-1.38
-0.72
-0.38
-0.39
-0.62
-0.87
-0.93
-0.74
-0.35
0.10
0.45
0.61
0.58
0.40
0.13
-0.20
-0.57
-0.96
-1.34
-1.56
-1.51
-1.11
-0.40
0.45
1.17
1.62
1.75
1.67
1.57
1.62
1.86
2.22
2.52
2.65
2.54
2.21
1.73
1.13
0.42
-0.41
-1.27
-1.97
-2.31
-2.17
-1.61
-0.86
-0.24
-0.01
-0.24
-0.78
-1.39
-1.83
-2.02
-2.02
-1.96
-1.94
-1.91
-1.78
-1.38
-0.67
0.24
1.12
1.69
1.77
1.40
0.74
0.08
-0.38
-0.56
-0.51
-0.36
-0.18
0.03
0.30
0.67
1.12
1.55
1.86
2.00
1.98
1.85
1.67
1.50
1.34
1.20
1.10
1.05
1.07
1.18
1.33
1.49
1.55
1.44
1.11
0.62
0.10
-0.31
-0.51
-0.55
-0.56
-0.74
-1.21
-1.92
-2.73
-3.41
-3.82
-3.90
-3.72
-3.40
-3.03
-2.65
-2.25
-1.81
-1.31
-0.80
-0.40
-0.18
-0.17
-0.29
-0.37
-0.25
0.16
0.82
1.52
2.05
2.25
2.11
1.76
1.39
1.17
1.16
1.26
1.30
1.14
0.77
0.31
-0.02
-0.04
0.28
0.82
1.38
1.80
1.99
1.96
1.74
1.33
0.69
-0.12
-0.92
-1.51
-1.66
-1.37
-0.83
-0.34
-0.16
-0.31
-0.56
-0.60
-0.24
0.49
1.36
2.05
2.35
2.25
1.85
1.32
0.77
0.21
-0.35
-0.89
-1.34
-1.61
-1.68
-1.59
-1.44
-1.30
-1.20
-1.07
-0.88
-0.60
-0.30
-0.07
0.01
-0.10
-0.31
-0.50
-0.54
-0.37
-0.03
0.38
0.75
1.00
1.09
1.06
0.95
0.84
0.77
0.74
0.72
0.68
0.58
0.39
0.12
-0.19
-0.51
-0.78
-0.95
-1.00
-0.94
-0.77
-0.58
-0.42
-0.33
-0.34
-0.39
-0.45
-0.45
-0.41
-0.36
-0.38
-0.47
-0.59
-0.70
-0.78
-0.86
-1.01
-1.27
-1.60
-1.87
-1.89
-1.58
-0.97
-0.21
0.50
1.01
1.31
1.49
1.68
1.98
2.38
2.77
3.02
3.02
2.76
2.31
1.78
1.27
0.82
0.39
-0.05
-0.50
-0.93
-1.22
-1.33
-1.28
-1.18
-1.16
-1.27
-1.47
-1.67
-1.74
-1.67
-1.55
-1.53
-1.69
-2.02
-2.39
-2.61
-2.53
-2.13
-1.50
-0.82
-0.25
0.13
0.34
0.43
0.45
0.42
0.29
0.09
-0.11
-0.18
0.05
0.60
1.41
2.27
2.93
3.23
3.13
2.70
2.10
1.46
0.87
0.38
-0.00
-0.22
-0.25
-0.09
0.16
0.39
0.44
0.26
-0.08
-0.44
-0.64
-0.58
-0.30
0.05
0.30
0.30
0.02
-0.41
-0.83
-1.09
-1.14
-1.09
-1.08
-1.24
-1.55
-1.88
-2.02
-1.84
-1.32
-0.61
0.10
0.62
0.92
1.00
0.99
1.01
1.16
1.46
1.87
2.25
2.44
2.34
1.92
1.31
0.66
0.12
-0.26
-0.51
-0.70
-0.87
-1.02
-1.09
-1.09
-1.04
-1.05
-1.16
-1.33
-1.42
-1.29
-0.89
-0.28
0.35
0.85
1.13
1.27
1.40
1.67
2.13
2.68
3.17
3.41
3.36
3.07
2.65
2.18
1.66
1.05
0.29
-0.57
-1.46
-2.24
-2.81
-3.13
-3.27
-3.28
-3.19
-2.97
-2.56
-1.92
-1.08
-0.19
0.55
1.00
1.12
0.96
0.68
0.45
0.38
0.48
0.71
1.00
1.27
1.52
1.72
1.85
1.89
1.81
1.60
1.28
0.90
0.53
0.21
-0.03
-0.20
-0.35
-0.59
-0.95
-1.41
-1.85
-2.10
-2.09
-1.82
-1.49
-1.32
-1.45
-1.82
-2.32
-2.75
-3.00
-3.09
-3.05
-2.87
-2.51
-1.94
-1.15
-0.27
0.52
1.11
1.43
1.57
1.59
1.58
1.53
1.43
1.33
1.27
1.32
1.51
1.79
2.10
2.38
2.59
2.70
2.70
2.56
2.23
1.74
1.15
0.60
0.18
-0.08
-0.20
-0.29
-0.46
-0.79
-1.27
-1.81
-2.27
-2.54
-2.51
-2.23
-1.78
-1.29
-0.88
-0.60
-0.45
-0.42
-0.45
-0.49
-0.49
-0.41
-0.19
0.16
0.60
1.02
1.33
1.44
1.33
1.06
0.75
0.53
0.50
0.69
1.03
1.42
1.78
2.06
2.29
2.52
2.73
2.88
2.84
2.53
1.96
1.22
0.49
-0.14
-0.62
-1.02
-1.39
-1.75
-2.06
-2.25
-2.28
-2.17
-2.02
-1.93
-1.94
-1.99
-1.97
-1.79
-1.45
-1.02
-0.66
-0.47
-0.50
-0.71
-1.00
-1.26
-1.43
-1.49
-1.47
-1.41
-1.31
-1.15
-0.90
-0.55
-0.13
0.31
0.72
1.07
1.35
1.58
1.76
1.88
1.94
1.96
1.98
2.05
2.18
2.40
2.64
2.85
2.98
3.02
3.00
2.98
3.02
3.09
3.07
2.77
1.98
0.64
-1.10
-2.83
-4.04
-4.34
-3.64
-2.23
-0.69
0.37
0.62
0.12
-0.66
-1.02
-0.29
1.98
5.90
11.26
17.51
23.86
29.32
32.93
34.07
32.65
29.31
25.18
21.45
18.93
17.61
16.67
14.86
11.01
4.63
-3.83
-13.09
-21.53
-27.82
-31.40
-32.52
-32.04
-30.79
-29.32
-27.69
-25.71
-23.31
-20.67
-18.25
-16.42
-15.26
-14.48
-13.64
-12.35
-10.61
-8.71
-7.06
-5.97
-5.46
-5.30
-5.10
-4.62
-3.79
-2.82
-2.04
-1.76
-2.12
-2.98
-4.01
-4.78
-4.96
-4.46
-3.44
-2.23
-1.20
-0.59
-0.49
-0.83
-1.38
-1.90
-2.16
-2.04
-1.49
-0.63
0.35
1.23
1.83
2.07
1.97
1.68
1.40
1.28
1.41
1.76
2.25
2.76
3.22
3.62
4.01
4.42
4.81
5.07
5.06
4.72
4.13
3.51
3.14
3.20
3.73
4.50
5.20
5.52
5.27
4.48
3.34
2.13
1.03
0.12
-0.66
-1.40
-2.11
-2.70
-3.05
-3.10
-2.94
-2.70
-2.51
-2.35
-2.09
-1.59
-0.79
0.17
1.07
1.74
2.15
2.46
2.88
3.54
4.37
5.18
5.73
5.92
5.74
5.34
4.84
4.37
3.97
3.63
3.35
3.13
2.96
2.84
2.77
2.73
2.75
2.75
2.63
2.28
1.64
0.75
-0.26
-1.19
-1.92
-2.40
-2.64
-2.71
-2.69
-2.63
-2.56
-2.51
-2.48
-2.41
-2.25
-1.95
-1.49
-0.91
-0.30
0.25
0.70
0.99
1.16
1.27
1.40
1.60
1.87
2.11
2.19
1.98
1.47
0.80
0.20
-0.05
0.20
0.97
2.11
3.35
4.43
5.09
5.24
4.90
4.17
3.21
2.13
0.97
-0.19
-1.26
-2.03
-2.33
-2.06
-1.32
-0.39
0.41
0.85
0.92
0.75
0.57
0.54
0.68
0.90
1.06
1.08
0.91
0.56
0.08
-0.52
-1.17
-1.77
-2.22
-2.43
-2.37
-2.10
-1.71
-1.36
-1.15
-1.15
-1.34
-1.63
-1.84
-1.78
-1.36
-0.61
0.23
0.85
1.03
0.75
0.21
-0.28
-0.46
-0.33
-0.08
-0.03
-0.36
-1.06
-1.90
-2.55
-2.82
-2.68
-2.31
-1.98
-1.88
-2.05
-2.39
-2.72
-2.91
-2.94
-2.91
-2.92
-2.99
-3.03
-2.86
-2.40
-1.66
-0.85
-0.23
0.01
-0.12
-0.42
-0.60
-0.42
0.18
1.05
1.90
2.48
2.63
2.42
1.97
1.49
1.10
0.83
0.64
0.51
0.48
0.68
1.18
1.91
2.68
3.15
3.06
2.36
1.28
0.24
-0.35
-0.30
0.27
1.06
1.67
1.86
1.61
1.12
0.66
0.42
0.45
0.64
0.87
1.03
1.11
1.13
1.08
0.95
0.66
0.20
-0.40
-1.02
-1.52
-1.76
-1.65
-1.22
-0.56
0.18
0.82
1.27
1.47
1.45
1.33
1.20
1.13
1.14
1.16
1.12
0.91
0.44
-0.30
-1.22
-2.17
-2.98
-3.50
-3.69
-3.56
-3.21
-2.74
-2.23
-1.75
-1.35
-1.07
-0.93
-0.96
-1.11
-1.33
-1.57
-1.75
-1.83
-1.74
-1.46
-1.02
-0.45
0.10
0.54
0.79
0.84
0.73
0.50
0.17
-0.23
-0.65
-1.02
-1.23
-1.22
-1.01
-0.70
-0.42
-0.25
-0.21
-0.24
-0.27
-0.30
-0.30
-0.28
-0.21
-0.04
0.27
0.68
1.10
1.37
1.41
1.27
1.08
1.01
1.15
1.45
1.78
1.97
1.93
1.68
1.34
1.04
0.85
0.75
0.65
0.45
0.13
-0.28
-0.64
-0.88
-0.95
-0.91
-0.87
-0.90
-0.99
-1.04
-0.92
-0.52
0.12
0.83
1.44
1.81
1.92
1.88
1.84
1.91
2.05
2.15
2.06
1.72
1.19
0.63
0.18
-0.08
-0.22
-0.31
-0.45
-0.62
-0.77
-0.82
-0.77
-0.69
-0.69
-0.85
-1.12
-1.40
-1.59
-1.63
-1.56
-1.43
-1.29
-1.13
-0.88
-0.49
0.06
0.72
1.37
1.87
2.08
1.94
1.48
0.83
0.17
-0.30
-0.49
-0.45
-0.37
-0.44
-0.79
-1.40
-2.10
-2.72
-3.15
-3.40
-3.58
-3.76
-3.92
-3.93
-3.66
-3.04
-2.20
-1.32
-0.64
-0.25
-0.16
-0.20
-0.27
-0.30
-0.27
-0.18
-0.02
0.24
0.63
1.12
1.66
2.11
2.37
2.41
2.22
1.87
1.44
1.02
0.64
0.38
0.25
0.26
0.39
0.58
0.78
0.96
1.04
0.97
0.68
0.20
-0.37
-0.84
-1.06
-0.94
-0.56
-0.13
0.12
0.09
-0.18
-0.51
-0.67
-0.58
-0.27
0.13
0.55
0.99
1.51
2.12
2.75
3.21
3.26
2.85
2.06
1.10
0.23
-0.39
-0.76
-0.98
-1.21
-1.55
-1.96
-2.35
-2.53
-2.37
-1.83
-1.01
-0.15
0.51
0.79
0.74
0.52
0.36
0.39
0.55
0.71
0.70
0.52
0.29
0.20
0.35
0.70
1.09
1.36
1.43
1.36
1.28
1.31
1.50
1.79
2.03
2.09
1.87
1.34
0.54
-0.43
-1.44
-2.35
-3.09
-3.58
-3.77
-3.67
-3.29
-2.68
-1.93
-1.13
-0.39
0.25
0.79
1.29
1.77
2.23
2.64
2.95
3.10
3.09
2.93
2.67
2.36
2.05
1.73
1.39
0.95
0.35
-0.37
-1.13
-1.75
-2.08
-2.05
-1.74
-1.32
-0.96
-0.76
-0.73
-0.78
-0.86
-0.95
-1.10
-1.36
-1.76
-2.22
-2.63
-2.83
-2.70
-2.23
-1.50
-0.69
0.01
0.48
0.74
0.88
1.03
1.25
1.53
1.78
1.91
1.92
1.88
1.86
1.88
1.90
1.82
1.60
1.29
1.01
0.89
0.99
1.26
1.53
1.67
1.57
1.24
0.80
0.39
0.13
0.10
0.28
0.57
0.82
0.91
0.79
0.53
0.26
0.15
0.22
0.41
0.59
0.69
0.71
0.76
0.94
1.23
1.53
1.64
1.39
0.76
-0.15
-1.11
-1.87
-2.27
-2.27
-1.97
-1.52
-1.05
-0.64
-0.29
0.01
0.24
0.34
0.24
-0.05
-0.42
-0.64
-0.53
-0.02
0.72
1.40
1.73
1.60
1.10
0.49
0.03
-0.12
0.01
0.29
0.57
0.80
0.95
1.06
1.08
0.94
0.58
-0.02
-0.77
-1.57
-2.35
-3.05
-3.68
-4.22
-4.63
-4.80
-4.69
-4.31
-3.78
-3.24
-2.85
-2.67
-2.65
-2.69
-2.66
-2.46
-2.10
-1.62
-1.11
-0.66
-0.30
-0.04
0.13
0.21
0.20
0.14
0.06
0.01
-0.00
0.04
0.29
1.11
3.14
7.11
13.49
22.12
32.06
41.82
49.77
54.57
55.41
51.96
44.32
32.98
18.91
3.65
-10.88
-22.84
-31.00
-35.16
-36.11
-35.17
-33.58
-32.08
-30.85
-29.73
-28.52
-27.09
-25.49
-23.78
-21.98
-20.09
-18.11
-16.03
-13.90
-11.73
-9.62
-7.70
-6.11
-4.92
-4.11
-3.52
-2.95
-2.26
-1.49
-0.81
-0.45
-0.51
-0.93
-1.43
-1.70
-1.49
-0.76
0.34
1.57
2.72
3.67
4.36
4.81
5.00
4.95
4.68
4.29
3.90
3.60
3.44
3.41
3.47
3.58
3.72
3.89
4.06
4.16
4.13
3.95
3.66
3.36
3.10
2.88
2.66
2.38
2.05
1.78
1.69
1.83
2.16
2.51
2.71
2.69
2.52
2.37
2.41
2.65
2.98
3.15
2.96
2.34
1.46
0.56
-0.07
-0.32
-0.24
-0.04
0.08
-0.02
-0.30
-0.63
-0.85
-0.88
-0.77
-0.63
-0.56
-0.59
-0.65
-0.60
-0.28
0.35
1.19
2.06
2.73
3.07
3.03
2.71
2.28
1.84
1.43
1.04
0.65
0.28
-0.02
-0.15
-0.06
0.24
0.66
1.06
1.27
1.16
0.69
-0.05
-0.85
-1.52
-1.89
-1.93
-1.72
-1.40
-1.11
-0.92
-0.83
-0.84
-0.92
-1.04
-1.15
-1.14
-0.96
-0.62
-0.22
0.11
0.22
0.09
-0.19
-0.47
-0.56
-0.41
-0.07
0.32
0.61
0.70
0.62
0.47
0.41
0.53
0.79
1.11
1.30
1.24
0.91
0.39
-0.18
-0.69
-1.07
-1.34
-1.52
-1.62
-1.63
-1.48
-1.12
-0.59
0.00
0.50
0.75
0.71
0.46
0.22
0.16
0.40
0.86
1.35
1.65
1.68
1.51
1.30
1.24
1.39
1.67
1.93
2.05
1.99
1.77
1.47
1.15
0.83
0.56
0.39
0.36
0.50
0.73
0.89
0.83
0.44
-0.24
-1.02
-1.65
-1.95
-1.87
-1.50
-1.08
-0.79
-0.72
-0.79
-0.84
-0.76
-0.57
-0.40
-0.44
-0.80
-1.40
-2.04
-2.44
-2.43
-2.02
-1.36
-0.64
-0.04
0.44
0.86
1.33
1.88
2.45
2.90
3.10
3.02
2.73
2.43
2.31
2.48
2.86
3.21
3.28
2.88
2.08
1.13
0.33
-0.07
-0.08
0.14
0.31
0.27
-0.02
-0.41
-0.76
-0.98
-1.08
-1.17
-1.28
-1.41
-1.44
-1.27
-0.89
-0.35
0.16
0.46
0.41
0.01
-0.60
-1.22
-1.61
-1.66
-1.37
-0.89
-0.41
-0.11
-0.11
-0.39
-0.82
-1.26
-1.50
-1.44
-1.09
-0.53
0.07
0.55
0.82
0.94
1.03
1.17
1.37
1.50
1.43
1.14
0.75
0.45
0.42
0.66
1.04
1.32
1.35
1.10
0.64
0.09
-0.45
-0.95
-1.39
-1.77
-2.00
-1.99
-1.69
-1.17
-0.59
-0.15
-0.00
-0.20
-0.69
-1.30
-1.88
-2.26
-2.36
-2.17
-1.81
-1.42
-1.15
-1.12
-1.31
-1.59
-1.74
-1.64
-1.28
-0.78
-0.34
-0.07
0.05
0.13
0.33
0.69
1.16
1.58
1.83
1.90
1.88
1.94
2.16
2.50
2.78
2.76
2.32
1.51
0.55
-0.28
-0.79
-0.98
-0.99
-1.03
-1.15
-1.26
-1.13
-0.58
0.41
1.68
2.94
3.93
4.51
4.65
4.48
4.10
3.60
3.01
2.34
1.62
0.91
0.31
-0.13
-0.37
-0.49
-0.57
-0.72
-1.00
-1.37
-1.78
-2.14
-2.39
-2.54
-2.66
-2.82
-3.07
-3.39
-3.67
-3.77
-3.57
-3.09
-2.39
-1.66
-1.01
-0.50
-0.10
0.30
0.75
1.23
1.61
1.73
1.48
0.87
0.11
-0.54
-0.81
-0.59
0.03
0.78
1.38
1.64
1.57
1.39
1.31
1.49
1.90
2.38
2.82
3.25
3.82
4.75
6.15
7.89
9.82
11.87
14.24
17.32
21.35
26.15
31.01
34.88
36.80
36.17
32.85
26.93
18.63
8.27
-3.52
-15.64
-26.54
-34.71
-39.17
-39.92
-37.87
-34.42
-30.84
-27.87
-25.67
-23.98
-22.44
-20.83
-19.10
-17.41
-15.94
-14.80
-13.98
-13.33
-12.65
-11.78
-10.72
-9.64
-8.77
-8.22
-7.94
-7.70
-7.21
-6.27
-4.90
-3.29
-1.70
-0.31
0.80
1.69
2.50
3.37
4.36
5.47
6.57
7.52
8.16
8.45
8.42
8.22
7.98
7.76
7.53
7.20
6.70
6.04
5.28
4.56
3.96
3.47
3.06
2.64
2.14
1.55
0.90
0.30
-0.14
-0.36
-0.40
-0.42
-0.68
-1.35
-2.39
-3.53
-4.31
-4.34
-3.47
-1.92
-0.15
1.34
2.29
2.73
2.87
2.93
2.99
3.00
2.83
2.46
2.02
1.67
1.58
1.73
1.99
2.24
2.39
2.51
2.68
2.97
3.31
3.54
3.52
3.20
2.66
2.06
1.55
1.20
1.04
1.00
1.06
1.20
1.38
1.53
1.59
1.48
1.22
0.88
0.51
0.17
-0.16
-0.50
-0.83
-1.09
-1.19
-1.08
-0.79
-0.45
-0.24
-0.21
-0.41
-0.76
-1.21
-1.73
-2.28
-2.72
-2.88
-2.56
-1.65
-0.28
1.23
2.45
3.10
3.13
2.77
2.31
1.98
1.83
1.75
1.67
1.55
1.55
1.79
2.35
3.14
3.99
4.65
4.96
4.87
4.45
3.83
3.16
2.55
2.05
1.66
1.32
0.99
0.65
0.35
0.12
-0.00
-0.02
0.01
0.02
-0.03
-0.18
-0.44
-0.80
-1.20
-1.57
-1.79
-1.80
-1.55
-1.09
-0.53
-0.03
0.24
0.23
-0.00
-0.32
-0.57
-0.63
-0.52
-0.30
-0.00
0.35
0.80
1.38
2.06
2.71
3.21
3.50
3.57
3.50
3.34
3.08
2.69
2.19
1.67
1.27
1.10
1.21
1.52
1.90
2.19
2.32
2.33
2.35
2.46
2.66
2.86
2.93
2.71
2.16
1.32
0.31
-0.70
-1.55
-2.14
-2.46
-2.55
-2.55
-2.57
-2.68
-2.89
-3.10
-3.19
-3.09
-2.79
-2.36
-1.95
-1.64
-1.46
-1.34
-1.18
-0.93
-0.61
-0.32
-0.22
-0.38
-0.80
-1.29
-1.67
-1.75
-1.50
-1.01
-0.44
0.08
0.49
0.79
0.94
0.86
0.46
-0.25
-1.08
-1.76
-2.04
-1.81
-1.22
-0.61
-0.30
-0.47
-1.06
-1.82
-2.45
-2.75
-2.68
-2.31
-1.80
-1.26
-0.79
-0.42
-0.21
-0.16
-0.30
-0.58
-0.91
-1.18
-1.31
-1.28
-1.14
-0.95
-0.81
-0.77
-0.85
-1.01
-1.21
-1.34
-1.32
-1.11
-0.78
-0.43
-0.19
-0.10
-0.13
-0.16
-0.09
0.07
0.28
0.42
0.49
0.54
0.67
0.93
1.30
1.67
1.89
1.90
1.70
1.39
1.04
0.77
0.59
0.48
0.45
0.48
0.56
0.67
0.76
0.81
0.78
0.73
0.70
0.77
0.98
1.31
1.66
1.90
1.95
1.81
1.56
1.30
1.13
1.03
0.88
0.57
0.06
-0.54
-1.05
-1.28
-1.18
-0.88
-0.60
-0.49
-0.57
-0.69
-0.62
-0.22
0.50
1.37
2.18
2.72
2.90
2.74
2.33
1.84
1.39
1.07
0.89
0.78
0.66
0.46
0.23
0.00
-0.12
-0.13
-0.10
-0.16
-0.39
-0.80
-1.22
-1.44
-1.27
-0.66
0.28
1.30
2.13
2.60
2.67
2.45
2.11
1.80
1.58
1.37
1.10
0.63
-0.02
-0.80
-1.57
-2.21
-2.65
-2.93
-3.09
-3.15
-3.07
-2.75
-2.16
-1.37
-0.60
-0.05
0.12
-0.02
-0.31
-0.58
-0.75
-0.88
-1.15
-1.64
-2.31
-2.93
-3.23
-3.05
-2.41
-1.52
-0.67
-0.07
0.20
0.23
0.21
0.31
0.62
1.11
1.63
2.00
2.07
1.80
1.29
0.76
0.44
0.48
0.88
1.50
2.09
2.49
2.69
2.82
3.08
3.73
4.94
6.94
10.05
14.54
20.52
27.62
34.97
41.32
45.45
46.52
44.28
38.96
30.95
20.71
8.69
-4.37
-17.36
-28.91
-37.69
-43.02
-45.01
-44.56
-42.88
-41.00
-39.42
-38.16
-36.89
-35.28
-33.22
-30.81
-28.34
-26.02
-24.03
-22.29
-20.58
-18.67
-16.43
-13.97
-11.50
-9.33
-7.60
-6.21
-4.94
-3.48
-1.73
0.27
2.27
3.98
5.22
5.98
6.38
6.63
6.94
7.41
8.04
8.72
9.27
9.54
9.44
9.07
8.60
8.29
8.28
8.60
9.11
9.64
10.07
10.39
10.70
11.09
11.64
12.34
13.14
13.98
14.81
15.56
16.08
16.22
15.81
14.84
13.40
11.81
10.38
9.38
8.89
8.78
8.80
8.75
8.57
8.36
8.31
8.61
9.31
10.36
11.62
12.91
13.98
14.42
13.67
11.10
6.24
-0.87
-9.57
-18.68
-26.77
-32.74
-36.01
-36.70
-35.40
-32.90
-29.87
-26.77
-23.85
-21.18
-18.82
-16.76
-14.98
-13.39
-11.87
-10.31
-8.64
-6.87
-5.16
-3.69
-2.63
-2.03
-1.76
-1.55
-1.14
-0.35
0.76
2.02
3.12
3.88
4.26
4.31
4.18
3.95
3.67
3.34
3.01
2.71
2.53
2.52
2.66
2.88
3.08
3.22
3.32
3.43
3.55
3.66
3.63
3.36
2.85
2.23
1.79
1.82
2.52
3.85
5.53
7.13
8.19
8.42
7.80
6.53
4.98
3.53
2.43
1.80
1.66
1.93
2.52
3.29
4.08
4.76
5.12
5.05
4.55
3.71
2.79
2.01
1.56
1.46
1.59
1.73
1.75
1.55
1.18
0.74
0.33
-0.03
-0.36
-0.74
-1.24
-1.89
-2.64
-3.38
-3.92
-4.06
-3.67
-2.80
-1.66
-0.58
0.09
0.17
-0.29
-1.05
-1.81
-2.30
-2.43
-2.26
-1.94
-1.65
-1.48
-1.44
-1.48
-1.52
-1.53
-1.48
-1.35
-1.08
-0.68
-0.12
0.53
1.15
1.63
1.84
1.77
1.46
1.01
0.51
0.02
-0.45
-0.87
-1.26
-1.58
-1.87
-2.08
-2.22
-2.29
-2.29
-2.24
-2.10
-1.83
-1.34
-0.54
0.54
1.74
2.73
3.18
2.89
1.94
0.67
-0.47
-1.12
-1.17
-0.82
-0.38
-0.09
-0.03
-0.04
0.08
0.51
1.23
2.12
2.97
3.61
3.97
4.05
3.86
3.37
2.60
1.59
0.50
-0.42
-0.92
-0.85
-0.26
0.62
1.44
1.89
1.82
1.33
0.66
0.11
-0.08
0.11
0.58
1.14
1.64
2.00
2.22
2.35
2.42
2.41
2.31
2.09
1.80
1.53
1.39
1.40
1.55
1.73
1.81
1.69
1.35
0.87
0.38
0.02
-0.11
-0.03
0.14
0.31
0.38
0.36
0.29
0.24
0.20
0.15
0.02
-0.24
-0.64
-1.17
-1.79
-2.49
-3.19
-3.82
-4.23
-4.27
-3.86
-3.00
