1540404200.00
64.000000
-0.00
-0.00
-0.00
-0.00
-0.00
-0.00
-0.00
-0.00
-0.00
-0.00
0.00
0.01
0.01
-0.00
-0.03
-0.05
-0.05
0.00
0.13
0.36
0.66
1.01
1.37
1.72
2.06
2.40
2.79
3.24
3.80
4.42
5.06
5.66
6.20
6.68
7.15
7.68
8.31
9.14
10.09
11.04
11.88
12.56
13.14
13.77
14.68
16.01
17.99
20.43
23.06
25.58
27.83
29.88
32.04
34.73
38.28
43.05
48.69
54.67
60.41
65.56
70.18
74.75
79.97
86.35
94.44
103.71
113.38
122.56
130.66
137.73
144.39
151.96
159.13
168.17
179.67
193.72
209.12
222.96
230.90
228.30
211.78
180.46
136.70
84.37
27.77
-29.84
-86.94
-143.26
-198.89
-253.58
-306.49
-356.15
-401.63
-442.24
-477.38
-506.18
-527.25
-538.77
-539.02
-526.91
-502.24
-466.24
-421.10
-369.61
-314.61
-258.62
-203.56
-150.99
-102.11
-57.83
-18.99
13.86
40.54
61.38
76.79
88.32
97.37
105.17
112.58
119.99
127.44
134.66
141.32
147.04
151.62
154.82
156.46
156.48
154.85
151.65
147.02
141.19
134.46
127.17
119.56
111.85
104.18
96.67
89.39
82.38
75.70
69.37
63.43
57.85
52.59
47.62
42.92
38.54
34.53
30.93
27.78
25.09
22.78
20.79
19.04
17.49
16.18
15.15
14.48
14.20
14.26
14.56
14.94
15.28
15.53
15.78
16.23
17.11
18.50
20.38
22.50
24.49
26.03
27.04
27.76
28.66
30.28
32.84
36.21
39.76
42.53
43.64
42.63
39.67
35.44
30.74
25.98
20.98
14.91
6.68
-4.53
-18.68
-34.60
-50.35
-64.02
-74.48
-81.62
-86.44
-90.61
-95.90
-103.79
-115.28
-130.47
-146.88
-161.48
-169.35
-165.40
-146.94
-115.56
-77.23
-40.10
-11.31
5.71
11.88
11.30
8.51
6.06
4.23
2.07
-0.97
-3.88
-4.51
-0.77
8.69
24.03
44.30
67.52
91.15
112.29
128.00
135.94
134.90
124.79
107.93
87.55
66.85
48.38
33.73
23.56
17.79
15.79
16.49
18.67
21.08
22.73
23.10
22.14
20.02
17.03
13.61
10.38
8.07
7.26
8.24
10.81
14.24
17.46
19.44
19.57
17.97
15.46
13.04
11.35
10.02
7.88
3.31
-4.84
-16.61
-30.94
-46.44
-62.41
-78.59
-94.20
-106.58
-111.23
-103.69
-82.66
-52.08
-20.34
3.33
13.49
11.12
2.34
-5.68
-8.70
-6.87
-2.81
1.52
6.71
14.82
26.68
39.81
48.69
47.51
33.32
7.56
-23.83
-52.30
-69.52
-70.02
-53.25
-24.33
7.35
31.37
40.52
34.08
17.84
0.70
-10.24
-12.87
-9.68
-4.45
0.96
7.77
18.58
34.15
51.41
64.47
67.82
58.53
39.93
19.27
3.74
-3.00
-1.71
3.14
5.72
1.28
-11.97
-31.92
-53.11
-68.75
-73.00
-63.36
-41.74
-13.56
14.60
37.39
51.89
57.12
52.69
38.94
17.80
-6.50
-27.64
-38.45
-33.39
-12.12
18.65
46.26
57.56
45.01
10.29
-36.64
-82.12
-115.11
-131.22
-130.69
-119.12
-103.92
-90.05
-77.89
-64.90
-48.74
-29.26
-8.94
10.41
27.95
44.45
61.93
82.53
107.13
134.54
160.20
176.97
179.50
165.81
139.41
108.65
83.10
68.80
65.12
66.10
63.89
53.72
35.61
13.96
-4.49
-13.39
-8.79
8.48
32.91
54.63
62.95
49.91
14.25
-37.16
-91.51
-135.00
-158.23
-155.16
-130.00
-94.14
-59.89
-34.77
-19.86
-12.03
-7.53
-4.47
-2.78
-3.90
-8.03
-13.35
-16.96
-16.77
-12.62
-6.38
-0.80
2.00
1.51
-0.11
0.86
7.24
18.52
29.90
33.97
24.00
-2.23
-41.47
-85.48
-123.87
-148.05
-154.06
-143.16
-120.56
-92.95
-66.07
-43.89
-28.21
-19.01
-15.02
-14.16
-14.18
-13.20
-10.22
-5.03
1.47
7.48
10.64
8.67
0.29
-13.63
-29.77
-43.01
-47.82
-40.67
-21.00
7.69
39.34
67.70
88.58
100.94
104.68
101.50
93.71
83.65
73.21
63.78
56.28
51.09
47.94
46.00
44.52
42.87
40.55
37.27
33.13
28.52
24.04
20.17
17.12
14.92
13.34
11.95
10.44
8.67
6.83
5.22
4.08
3.48
3.39
3.65
4.06
4.47
4.82
5.18
5.63
6.17
6.75
7.35
7.97
8.71
9.67
10.96
12.55
14.29
15.84
16.86
17.09
16.47
15.15
13.41
11.46
9.29
6.63
3.01
-1.98
-8.61
-16.62
-25.28
-33.66
-40.79
-46.12
-49.52
-51.39
-52.57
-54.15
-57.18
-62.22
-68.74
-74.75
-77.26
-73.26
-61.13
-41.76
-18.52
3.84
20.91
30.24
31.80
27.60
20.47
13.03
7.12
3.82
3.46
5.65
9.19
12.34
13.45
11.73
7.72
2.98
-0.54
-1.69
-0.55
1.78
3.81
4.57
3.91
2.42
0.96
0.48
1.50
4.08
7.91
12.31
16.35
19.16
20.21
19.07
16.38
13.30
10.85
9.33
8.19
6.67
4.35
1.53
-1.11
-3.06
-4.46
-5.99
-8.11
-10.41
-11.52
-10.01
-5.45
1.06
7.28
11.04
11.38
9.07
5.98
4.11
4.57
7.17
10.72
13.65
14.58
12.80
8.48
2.57
-3.57
-8.77
-12.44
-14.73
-16.16
-17.17
-17.65
-17.10
-15.08
-11.76
-8.02
-5.15
-4.09
-4.91
-6.71
-8.21
-8.30
-6.70
-3.92
-1.02
1.05
1.91
1.83
1.51
1.60
2.25
3.06
3.26
2.23
-0.12
-3.24
-6.18
-7.96
-7.96
-6.16
-3.00
0.79
4.47
7.57
9.93
11.60
12.69
13.15
12.84
11.63
9.59
7.02
4.36
2.09
0.53
-0.21
-0.16
0.51
1.52
2.54
3.18
3.03
1.87
-0.34
-3.38
-6.76
-9.81
-11.83
-12.23
-10.61
-7.09
-2.41
2.19
5.27
5.91
4.13
1.01
-1.80
-2.78
-1.29
2.08
5.74
8.06
8.19
6.43
3.85
1.64
0.49
0.41
0.99
1.70
2.52
4.13
7.14
11.29
15.25
17.17
15.71
11.01
4.44
-1.23
-2.75
1.88
12.00
24.35
34.65
39.45
37.73
30.56
21.32
14.89
15.43
24.56
41.08
61.77
82.12
96.67
98.58
82.57
47.92
-0.51
-53.41
-99.79
-130.49
-141.49
-128.74
-97.34
-60.90
-32.98
-18.41
-13.73
-13.11
-12.93
-12.69
-13.34
-16.42
-21.75
-26.99
-29.41
-27.94
-23.46
-17.99
-13.40
-10.71
-10.82
-13.64
-17.80
-21.46
-23.50
-23.71
-22.46
-20.25
-17.65
-15.95
-16.30
-18.92
-22.95
-27.11
-30.13
-30.71
-28.10
-21.89
-12.26
0.62
16.20
33.35
48.97
58.89
60.18
53.37
43.32
36.82
39.36
52.00
70.54
87.50
96.10
93.46
80.48
62.32
43.83
27.10
11.53
-4.26
-20.45
-35.21
-45.76
-50.27
-48.70
-43.48
-38.51
-37.03
-40.33
-47.29
-54.99
-60.19
-60.96
-57.42
-51.93
-47.88
-47.69
-51.83
-58.37
-64.00
-65.56
-61.27
-50.81
-34.90
-15.00
7.64
30.98
51.89
66.25
70.64
63.99
48.31
29.19
12.45
1.36
-4.92
-9.85
-16.86
-26.32
-34.99
-37.88
-31.35
-15.82
4.38
23.38
37.50
46.95
55.48
67.34
83.44
99.74
108.53
102.94
80.50
47.25
13.95
-8.93
-16.28
-10.13
2.55
13.37
16.63
10.90
-1.58
-16.75
-30.22
-37.93
-37.34
-27.54
-10.35
9.95
28.03
39.54
42.59
38.25
29.53
19.15
9.55
1.29
-5.81
-11.89
-16.16
-17.64
-16.10
-12.40
-8.34
-5.74
-5.95
-8.98
-13.63
-18.05
-20.51
-19.84
-15.67
-8.35
1.20
11.39
20.41
26.60
29.07
27.86
23.65
17.12
8.69
-1.45
-12.89
-24.46
-34.40
-41.06
-43.84
-43.54
-41.81
-40.08
-38.55
-36.26
-31.77
-24.18
-13.78
-1.99
9.26
17.97
22.51
21.79
15.62
4.64
-9.82
-26.02
-41.88
-55.00
-62.49
-61.44
-49.88
-28.16
-0.03
27.91
48.33
56.01
49.93
33.50
12.97
-5.70
-17.69
-21.29
-17.49
-8.61
3.19
16.41
29.87
42.30
52.18
57.92
58.77
55.47
50.25
45.89
44.51
46.60
50.76
54.45
55.11
51.67
45.19
38.13
33.18
31.83
33.45
35.46
34.24
26.33
9.45
-16.15
-47.40
-78.82
-103.72
-116.31
-113.90
-96.96
-71.88
-47.09
-29.24
-20.81
-19.84
-21.50
-20.88
-15.23
-4.75
7.47
16.94
19.16
11.54
-5.95
-29.96
-53.98
-70.37
-73.65
-63.78
-46.18
-29.12
-19.34
-18.53
-22.68
-24.99
-20.27
-8.07
7.11
18.11
19.90
12.09
-1.23
-14.03
-21.72
-22.65
-17.16
-6.34
10.02
32.75
60.90
90.14
113.30
123.07
114.69
90.90
60.32
33.27
17.45
14.78
21.53
31.13
37.38
36.44
27.28
11.13
-9.61
-30.46
-45.47
-48.91
-38.31
-16.73
7.62
24.47
25.91
10.10
-17.56
-46.94
-67.31
-71.20
-56.45
-26.13
13.24
53.73
87.81
110.27
118.97
114.91
101.29
81.91
59.85
37.02
14.34
-7.76
-28.45
-46.91
-62.99
-77.62
-92.26
-107.97
-124.17
-136.94
-142.57
-139.16
-127.89
-112.37
-96.49
-81.67
-65.83
-45.13
-17.66
13.37
40.08
53.59
49.28
29.99
5.26
-13.46
-18.46
-8.83
10.27
32.34
53.31
72.77
91.77
109.58
122.26
124.06
110.79
82.70
45.60
8.43
-19.86
-33.60
-31.53
-16.40
6.58
31.42
52.29
64.88
67.24
60.41
48.07
35.18
26.08
22.84
24.80
28.94
31.84
31.28
27.10
20.80
14.12
7.83
1.25
-7.32
-19.85
-37.35
-59.16
-82.96
-105.66
-124.54
-138.16
-146.65
-148.80
-144.50
-134.82
-121.74
-107.45
-93.57
-81.06
-70.58
-63.01
-59.35
-60.41
-65.86
-73.63
-80.22
-81.99
-76.67
-64.29
-47.08
-28.71
-11.73
2.98
16.38
30.96
49.56
74.31
105.87
143.08
182.63
218.43
241.87
244.15
220.07
171.22
106.69
40.35
-14.31
-49.26
-63.62
-63.43
-58.69
-57.90
-64.29
-75.48
-86.21
-91.51
-88.56
-76.43
-55.52
-27.32
5.20
37.46
63.92
80.01
82.48
72.57
55.60
38.29
25.86
20.45
21.28
26.07
32.51
38.89
44.19
47.40
47.38
43.39
35.89
26.59
17.77
11.42
8.30
7.95
8.96
9.58
8.48
5.31
0.79
-3.74
-6.98
-8.26
-7.66
-5.95
-4.19
-3.35
-3.82
-5.33
-7.19
-8.59
-9.04
-8.45
-7.21
-5.87
-4.94
-4.64
-4.78
-4.94
-4.63
-3.66
-2.15
-0.50
0.84
1.56
1.75
1.81
2.30
3.64
5.85
8.45
10.72
12.01
12.08
11.27
10.44
10.57
12.34
15.71
19.80
23.29
24.95
24.22
21.51
18.02
15.06
13.40
12.77
11.79
8.52
1.30
-10.92
-28.31
-50.03
-74.00
-96.79
-113.38
-119.67
-113.44
-95.79
-71.24
-46.10
-25.96
-13.48
-7.96
-6.40
-6.13
-6.13
-7.05
-10.19
-15.79
-22.29
-26.96
-27.19
-21.42
-9.57
6.99
25.68
42.82
54.21
56.31
47.87
31.00
10.64
-6.57
-15.83
-16.06
-9.91
-1.74
4.94
9.12
12.08
15.63
20.50
25.49
28.38
27.45
22.62
15.61
9.06
5.51
6.05
10.02
15.24
19.13
19.78
16.75
11.22
5.45
1.80
1.51
4.57
9.51
14.25
17.07
17.07
13.97
7.93
-0.62
-10.53
-19.29
-23.50
-19.96
-7.35
12.36
34.14
51.77
60.42
58.30
47.87
33.55
19.46
7.75
-1.45
-9.02
-15.49
-20.50
-23.14
-22.86
-20.17
-16.47
-13.27
-11.78
-12.14
-13.66
-15.23
-15.89
-15.18
-13.42
-11.32
-9.63
-8.75
-8.65
-8.95
-9.30
-9.48
-9.54
-9.61
-9.71
-9.63
-9.06
-7.84
-6.20
-4.80
-4.42
-5.55
-7.97
-10.70
-12.34
-11.83
-9.11
-5.31
-2.38
-2.14
-5.12
-10.31
-15.38
-17.79
-16.08
-10.56
-2.71
5.93
14.84
24.33
34.77
45.26
53.09
55.06
49.15
36.26
19.97
5.38
-3.83
-6.98
-5.96
-2.43
4.08
16.37
36.82
63.71
89.71
103.73
96.24
64.95
17.54
-30.85
-64.00
-71.62
-54.49
-23.09
8.83
31.18
40.99
41.85
40.04
40.47
44.41
49.62
51.91
47.07
32.52
7.72
-25.61
-63.79
-101.99
-135.22
-160.06
-174.55
-179.04
-174.36
-162.57
-146.91
-131.62
-121.47
-119.90
-126.97
-138.23
-145.29
-138.72
-112.13
-65.17
-5.21
54.12
97.13
111.75
94.66
53.45
4.66
-32.38
-43.06
-23.29
18.88
67.27
104.76
120.30
112.55
88.74
59.89
34.88
18.89
11.77
10.65
13.01
18.15
26.85
39.25
53.49
65.83
72.14
70.00
60.20
46.50
34.03
26.82
26.24
30.54
36.08
39.18
37.62
31.66
23.59
16.51
12.76
12.95
15.95
19.60
21.93
21.91
20.01
17.50
15.86
15.99
17.77
20.29
22.48
23.68
23.98
24.12
25.01
27.22
30.53
34.01
36.57
37.49
36.81
35.20
33.54
32.37
31.49
29.90
26.16
18.89
7.19
-9.40
-30.64
-55.23
-80.28
-101.35
-112.87
-111.50
-97.13
-73.45
-46.91
-24.09
-9.13
-2.49
-1.70
-3.23
-4.71
-5.51
-6.27
-7.68
-9.54
-10.82
-10.39
-7.93
-4.18
-0.70
1.06
0.47
-2.00
-5.07
-7.30
-7.75
-6.42
-4.18
-2.39
-2.18
-3.91
-7.07
-10.57
-13.22
-14.36
-14.13
-13.44
-13.52
-15.28
-18.88
-23.62
-28.30
-31.79
-33.55
-33.98
-34.26
-35.81
-39.59
-45.59
-52.79
-59.64
-64.78
-67.59
-68.65
-69.39
-71.22
-74.79
-79.50
-83.62
-84.88
-81.11
-70.59
-52.02
-25.09
8.78
45.76
79.81
104.17
113.90
107.72
90.00
68.64
51.39
42.72
42.43
46.94
51.89
54.75
55.25
54.67
54.11
53.51
51.86
48.18
42.45
35.73
29.52
25.10
22.90
22.31
22.15
21.34
19.38
16.48
13.31
10.46
8.19
6.41
4.78
3.12
1.58
0.63
0.63
1.49
2.53
2.71
1.22
-1.99
-5.96
-9.07
-9.77
-7.56
-3.24
1.40
4.25
4.11
0.98
-4.20
-10.13
-15.24
-17.37
-13.97
-2.90
15.83
38.89
59.94
72.13
71.46
58.84
40.09
22.62
11.76
8.48
9.56
10.02
6.14
-2.67
-13.76
-22.55
-24.78
-18.28
-3.64
15.72
34.46
47.34
51.42
46.37
35.28
22.10
9.69
-1.12
-11.08
-20.96
-30.44
-37.82
-41.17
-39.61
-34.16
-27.31
-21.72
-19.29
-20.18
-23.06
-25.88
-26.89
-25.27
-21.55
-17.09
-13.43
-11.60
-11.77
-13.33
-15.22
-16.53
-16.66
-15.65
-13.90
-12.04
-10.66
-10.17
-10.80
-12.45
-14.84
-17.38
-19.48
-20.61
-20.60
-19.78
-18.89
-18.94
-20.68
-24.27
-29.12
-34.06
-37.79
-39.56
-39.50
-38.68
-38.63
-40.64
-45.17
-51.53
-58.05
-62.67
-63.37
-58.47
-47.00
-29.53
-8.34
12.26
26.99
31.59
25.03
10.41
-6.05
-17.38
-19.35
-12.28
-0.15
11.93
20.68
25.97
29.77
33.95
38.68
42.14
41.91
36.87
28.15
18.67
11.63
9.05
10.86
15.05
18.76
19.23
14.64
4.13
-11.72
-29.92
-45.22
-50.86
-40.50
-11.46
32.85
82.81
125.33
148.80
147.32
122.85
84.44
44.53
14.61
2.04
8.70
31.23
62.44
93.13
114.16
118.97
105.44
76.61
39.25
1.58
-29.67
-51.07
-62.53
-66.06
-63.80
-57.50
-48.85
-39.61
-32.08
-28.71
-30.63
-36.94
-44.79
-50.55
-51.55
-47.09
-38.98
-30.66
-25.61
-25.86
-31.16
-39.06
-46.05
-49.20
-47.21
-41.01
-33.20
-26.88
-24.43
-26.99
-34.26
-44.48
-54.55
-60.20
-57.04
-42.12
-15.59
18.56
53.73
82.93
101.82
109.95
110.43
107.74
105.65
106.01
108.56
111.59
112.47
108.30
96.49
75.87
47.54
15.22
-15.76
-40.49
-56.00
-62.17
-61.03
-55.56
-48.50
-41.88
-37.18
-35.29
-36.39
-39.53
-42.98
-44.48
-42.68
-37.76
-31.23
-25.46
-22.93
-25.18
-32.05
-41.17
-47.98
-46.66
-32.19
-3.11
36.46
77.15
107.29
117.70
105.72
76.43
40.13
7.64
-14.20
-24.44
-26.61
-25.51
-24.21
-23.11
-20.93
-16.75
-11.17
-6.18
-4.06
-5.66
-9.96
-14.57
-17.10
-16.13
-12.06
-6.67
-2.20
-0.31
-1.33
-4.27
-7.41
-9.11
-8.56
-6.05
-2.65
0.35
2.04
2.26
1.48
0.52
0.04
0.36
1.32
2.62
3.91
5.05
6.11
7.12
8.04
8.72
8.95
8.67
8.16
7.91
8.48
10.14
12.61
15.18
16.93
17.12
15.63
12.99
10.14
7.85
6.35
5.07
2.93
-1.18
-8.12
-18.31
-31.77
-48.01
-65.52
-81.09
-90.89
-91.13
-80.04
-59.17
-33.26
-8.58
9.77
19.62
22.26
20.81
18.40
16.65
15.41
13.86
11.53
8.96
7.29
7.39
9.14
11.56
13.34
13.42
11.66
8.77
5.95
4.23
4.14
5.35
7.06
8.28
8.36
7.20
5.28
3.35
2.11
1.85
2.40
3.30
3.98
4.06
3.49
2.50
1.48
0.78
0.55
0.71
1.04
1.31
1.31
1.05
0.60
0.14
-0.24
-0.45
-0.52
-0.50
-0.47
-0.47
-0.51
-0.59
-0.67
-0.76
-0.85
-0.93
-1.03
-1.13
-1.25
-1.37
-1.51
-1.66
-1.82
-2.01
-2.21
-2.45
-2.70
-2.99
-3.30
-3.65
-4.03
-4.45
-4.91
-5.41
-5.95
-6.54
-7.18
-7.86
-8.59
-9.38
-10.22
-11.12
-12.08
-13.09
-14.16
-15.30
-16.50
-17.78
-19.12
-20.54
-22.02
-23.55
-25.10
-26.61
-28.01
-29.20
-30.07
-30.46
-30.25
-29.30
-27.55
-24.98
-21.63
-17.65
-13.18
-8.45
-3.64
1.03
5.45
9.49
13.07
16.16
18.78
20.97
22.82
24.43
25.88
27.22
28.43
29.43
30.07
30.20
29.73
28.71
27.24
25.54
23.84
22.33
21.08
20.03
19.04
18.06
17.08
16.19
15.57
15.38
15.64
16.14
16.51
16.34
15.48
13.97
12.12
10.42
9.39
9.29
10.03
11.19
12.27
13.18
13.90
14.69
16.02
18.35
22.10
27.63
35.07
44.10
53.92
62.73
68.27
68.78
63.87
54.79
44.10
34.70
26.49
20.03
14.88
10.07
4.81
-0.94
-6.63
-11.62
-15.64
-19.01
-22.08
-25.41
-29.28
-33.55
-37.75
-41.49
-44.66
-47.45
-50.18
-52.77
-55.04
-56.63
-57.14
-56.22
-53.86
-50.47
-46.76
-43.52
-41.19
-40.04
-40.06
-41.04
-42.52
-44.30
-46.54
-49.49
-52.82
-54.98
-53.61
-46.30
-31.75
-10.29
15.50
41.34
62.70
76.36
81.21
77.99
68.50
54.95
40.16
26.63
15.89
8.84
5.93
7.34
12.89
22.02
33.97
48.77
66.37
85.75
105.41
123.46
137.91
146.54
147.09
133.50
104.48
65.93
27.75
-1.46
-18.46
-24.46
-22.81
-16.95
-9.45
-1.15
7.33
13.13
14.42
9.94
-0.17
-14.65
-31.91
-50.92
-71.13
-88.32
-102.46
-114.60
-125.55
-134.87
-141.44
-144.14
-142.75
-137.73
-130.30
-123.04
-118.24
-117.62
-121.62
-128.76
-135.31
-135.83
-124.72
-98.98
-60.86
-16.85
24.42
55.67
73.71
79.95
78.80
74.99
71.36
67.99
63.91
58.58
52.73
47.92
45.44
45.34
46.44
46.99
45.35
41.17
35.34
29.52
25.30
23.45
23.60
24.56
24.85
23.41
20.13
15.86
11.88
9.31
8.57
9.19
10.12
10.25
8.95
6.39
3.41
1.07
0.15
0.72
2.15
3.46
3.84
3.04
1.51
0.21
0.14
2.11
6.48
13.26
21.92
31.29
39.51
44.37
44.06
38.03
27.48
15.05
3.77
-4.16
-8.25
-9.59
-10.02
-11.08
-13.24
-15.97
-18.29
-19.53
-19.76
-19.71
-20.26
-21.90
-24.37
-26.62
-27.28
-25.40
-21.02
-15.30
-9.97
-6.42
-4.98
-4.82
-4.49
-2.85
0.21
3.82
6.77
8.26
8.36
7.82
7.51
7.80
8.36
8.53
7.81
6.33
4.78
4.07
4.85
7.16
10.47
13.96
16.95
19.10
20.41
20.92
20.56
19.09
16.30
12.22
7.29
2.19
-2.42
-6.07
-8.68
-10.45
-11.62
-12.31
-12.43
-11.88
-10.78
-9.50
-8.57
-8.41
-9.07
-10.11
-10.76
-10.20
-7.88
-3.66
2.15
8.98
16.08
22.75
28.50
33.16
36.88
40.07
43.17
46.42
49.69
52.36
53.58
52.56
48.93
43.03
35.79
28.48
22.28
17.94
15.56
14.59
14.18
13.48
12.00
9.74
7.07
4.53
2.59
1.52
1.32
1.76
2.24
1.58
-2.02
-10.44
-24.78
-44.34
-66.27
-86.27
-100.27
-106.13
-104.48
-98.13
-90.48
-83.80
-78.56
-73.94
-69.17
-64.48
-61.13
-60.26
-61.68
-63.28
-61.80
-54.39
-40.14
-20.63
0.74
20.28
35.50
45.79
52.14
56.08
58.70
60.13
59.85
57.47
53.33
48.64
45.01
43.63
44.60
46.85
48.45
47.34
42.12
32.65
20.18
7.07
-3.91
-10.55
-12.07
-9.54
-5.71
-4.04
-7.40
-16.96
-31.75
-49.21
-66.30
-80.54
-90.73
-96.72
-98.90
-97.54
-92.54
-83.74
-71.42
-56.72
-41.54
-27.90
-17.17
-9.54
-4.03
0.89
6.54
13.40
20.98
28.30
34.47
39.19
42.73
45.66
48.31
50.50
51.62
51.03
48.53
44.56
40.17
36.60
34.72
34.64
35.63
36.41
35.78
33.22
29.09
24.52
20.79
18.79
18.62
19.62
20.76
21.02
19.75
16.81
12.46
7.31
2.24
-1.81
-4.11
-4.83
-5.46
-8.81
-18.03
-35.24
-60.11
-89.38
-117.71
-139.55
-151.12
-151.67
-143.21
-129.21
-113.03
-96.86
-81.63
-67.54
-54.67
-43.25
-33.47
-25.12
-17.26
-8.68
1.38
12.77
24.36
34.52
41.78
45.53
46.13
45.29
44.92
46.32
49.60
53.70
57.06
58.38
57.18
53.97
50.81
49.98
53.02
59.98
69.52
79.68
88.93
96.93
104.73
115.45
132.14
156.21
186.39
218.85
248.58
271.10
283.84
279.70
255.55
212.77
157.67
99.21
44.96
-1.48
-39.98
-71.76
-97.71
-116.17
-125.08
-124.01
-115.79
-106.11
-101.88
-109.02
-130.31
-164.39
-204.19
-238.98
-257.55
-252.02
-220.81
-170.04
-112.35
-62.20
-35.20
-40.70
-77.89
-135.36
-194.76
-237.03
-248.73
-225.88
-174.37
-106.75
-36.20
27.68
80.63
122.69
155.30
179.35
194.80
201.77
201.60
197.30
191.83
185.87
177.11
161.74
137.07
104.20
68.23
36.09
13.47
2.35
0.51
3.45
6.58
6.78
2.65
-6.06
-18.92
-34.86
-52.01
-67.88
-80.05
-86.92
-88.18
-84.71
-78.02
-69.64
-60.48
-50.79
-40.42
-29.14
-17.00
-4.49
7.58
18.26
26.69
32.36
35.16
35.40
33.61
30.34
26.06
21.05
15.52
9.71
3.97
-1.18
-5.23
-7.86
-9.10
-9.38
-9.35
-9.56
-10.22
-11.05
-11.53
-11.11
-9.54
-6.99
-3.90
-0.74
2.18
4.80
7.21
9.48
11.57
13.45
15.20
17.13
19.69
23.30
28.10
33.78
39.64
44.97
49.31
52.76
55.84
59.27
63.49
68.45
73.56
77.99
81.03
82.35
82.06
80.52
78.09
74.98
71.14
66.37
60.42
53.12
44.48
34.80
24.67
14.95
6.57
0.30
-3.56
-5.23
-5.43
-5.14
-5.27
-6.43
-8.80
-12.22
-16.32
-20.71
-25.05
-29.09
-32.62
-35.44
-37.32
-38.08
-37.65
-36.14
-33.85
-31.19
-28.57
-26.31
-24.59
-23.45
-22.91
-23.05
-24.09
-26.35
-30.05
-35.15
-41.21
-47.47
-53.05
-57.23
-59.65
-60.32
-59.57
-57.79
-55.30
-52.30
-48.86
-45.01
-40.76
-36.16
-31.33
-26.47
-21.86
-17.80
-14.47
-11.91
-9.95
-8.33
-6.86
-5.49
-4.36
-3.70
-3.71
-4.43
-5.78
-7.58
-9.66
-11.97
-14.44
-16.98
-19.38
-21.36
-22.67
-23.22
-23.15
-22.81
-22.64
-22.98
-23.95
-25.48
-27.34
-29.32
-31.30
-33.29
-35.42
-37.85
-40.62
-43.65
-46.71
-49.45
-51.48
-52.29
-51.30
-47.89
-41.51
-31.94
-19.44
-4.98
9.89
23.24
33.27
38.74
39.39
35.98
30.07
23.57
18.16
14.95
14.24
15.70
18.60
22.16
25.77
29.12
32.08
34.70
37.12
39.57
42.23
45.18
48.19
50.71
51.94
51.14
47.96
42.64
35.97
28.97
22.58
17.30
13.19
10.00
7.43
5.36
3.78
2.73
2.16
1.89
1.68
1.41
1.11
0.93
1.03
1.46
2.20
3.17
4.36
5.82
7.58
9.56
11.51
13.09
13.95
13.87
12.77
10.72
7.83
4.26
0.21
-4.02
-8.07
-11.55
-14.15
-15.76
-16.47
-16.59
-16.52
-16.61
-17.10
-18.06
-19.41
-21.02
-22.78
-24.70
-26.85
-29.32
-32.08
-34.91
-37.45
-39.28
-40.13
-40.03
-39.31
-38.47
-37.96
-37.98
-38.40
-38.86
-39.05
-38.89
-38.64
-38.75
-39.57
-41.14
-43.13
-44.89
-45.74
-45.06
-42.44
-37.71
-31.04
-23.10
-14.99
-8.13
-3.76
-2.50
-4.07
-7.37
-10.97
-13.68
-14.91
-14.68
-13.35
-11.21
-8.35
-4.62
0.10
5.73
12.02
18.59
25.09
31.26
36.97
42.16
46.87
51.17
55.12
58.79
62.18
65.20
67.71
69.50
70.45
70.52
69.85
68.65
67.20
65.67
64.10
62.43
60.55
58.33
55.69
52.59
48.97
44.78
39.96
34.50
28.51
22.20
15.84
9.67
3.91
-1.34
-6.04
-10.21
-13.91
-17.21
-20.15
-22.72
-24.85
-26.48
-27.59
-28.25
-28.60
-28.78
-28.89
-28.96
-28.96
-28.84
-28.57
-28.09
-27.42
-26.59
-25.69
-24.85
-24.14
-23.57
-23.06
-22.48
-21.75
-20.96
-20.24
-19.73
-19.45
-19.23
-18.83
-18.01
-16.72
-15.01
-13.07
-11.06
-9.12
-7.26
-5.44
-3.60
-1.66
0.43
2.70
5.12
7.64
10.14
12.48
14.57
16.29
17.54
18.30
18.56
18.40
17.95
17.35
16.73
16.14
15.61
15.04
14.32
13.34
12.06
10.51
8.80
7.02
5.25
3.45
1.58
-0.41
-2.44
-4.37
-5.93
-6.87
-7.01
-6.31
-4.87
-2.87
-0.56
1.83
4.08
6.01
7.50
8.52
9.11
9.35
9.36
9.23
9.04
8.81
8.57
8.30
8.01
7.67
7.29
6.86
6.34
5.73
5.00
4.09
2.98
1.67
0.16
-1.49
-3.23
-5.02
-6.84
-8.64
-10.38
-11.95
-13.26
-14.28
-15.00
-15.40
-15.40
-14.87
-13.65
-11.71
-9.15
-6.26
-3.37
-0.75
1.47
3.34
5.01
6.56
8.02
9.30
10.28
10.89
11.16
11.21
11.16
11.07
10.91
10.59
10.04
9.28
8.40
7.55
6.79
6.12
5.44
4.65
3.66
2.47
1.14
-0.22
-1.52
-2.66
-3.55
-4.18
-4.59
-4.88
-5.16
-5.52
-6.01
-6.60
-7.26
-7.86
-8.27
-8.28
-7.72
-6.50
-4.71
-2.57
-0.37
1.63
3.28
4.60
5.62
6.41
6.96
7.25
7.25
7.01
6.58
6.05
5.52
5.04
4.64
4.36
4.19
4.05
3.87
3.53
3.00
2.34
1.65
1.04
0.54
0.12
-0.25
-0.60
-0.87
-0.95
-0.80
-0.48
-0.17
-0.09
-0.40
-1.07
-1.92
-2.74
-3.40
-3.94
-4.51
-5.27
-6.25
-7.28
-8.08
-8.33
-7.87
-6.72
-5.08
-3.25
-1.48
0.08
1.37
2.37
3.11
3.57
3.73
3.60
3.22
2.71
2.17
1.69
1.31
1.00
0.68
0.30
-0.09
-0.37
-0.34
0.18
1.21
2.64
4.17
5.50
6.39
6.79
6.83
6.73
6.66
6.68
6.70
6.59
6.23
5.59
4.76
3.86
2.98
2.13
1.26
0.35
-0.62
-1.51
-2.11
-2.20
-1.68
-0.61
0.80
2.26
3.54
4.50
5.11
5.42
5.45
5.22
4.74
4.05
3.25
2.48
1.88
1.52
1.39
1.42
1.51
1.59
1.66
1.75
1.90
2.13
2.36
2.51
2.43
2.08
1.45
0.65
-0.18
-0.86
-1.30
-1.46
-1.43
-1.37
-1.50
-1.97
-2.80
-3.83
-4.77
-5.29
-5.15
-4.33
-3.00
-1.36
0.36
2.08
3.78
5.44
7.03
8.41
9.44
10.01
10.07
9.68
8.96
8.05
7.09
6.20
5.43
4.80
4.30
3.95
3.77
3.80
4.07
4.52
5.05
5.53
5.87
5.96
5.76
5.18
4.16
2.70
0.96
-0.85
-2.39
-3.49
-4.07
-4.34
-4.55
-4.95
-5.60
-6.36
-6.93
-6.99
-6.34
-4.99
-3.07
-0.85
1.43
3.61
5.51
6.99
7.89
8.03
7.36
5.98
4.14
2.16
0.35
-1.12
-2.16
-2.81
-3.12
-3.17
-3.01
-2.76
-2.58
-2.64
-3.10
-4.05
-5.43
-7.13
-8.93
-10.62
-12.05
-13.16
-13.96
-14.48
-14.78
-14.89
-14.86
-14.75
-14.61
-14.53
-14.55
-14.67
-14.85
-14.98
-14.90
-14.44
-13.45
-11.87
-9.78
-7.41
-5.09
-3.13
-1.73
-0.91
-0.52
-0.35
-0.28
-0.27
-0.38
-0.68
-1.16
-1.74
-2.32
-2.87
-3.41
-3.99
-4.58
-5.06
-5.22
-4.91
-4.15
-3.13
-2.18
-1.57
-1.39
-1.55
-1.83
-2.09
-2.32
-2.68
-3.31
-4.23
-5.26
-6.07
-6.36
-5.99
-5.03
-3.68
-2.14
-0.53
1.16
2.93
4.79
6.63
8.33
9.80
11.03
12.10
13.05
13.92
14.67
15.20
15.44
15.32
14.82
14.00
12.96
11.89
10.95
10.25
9.82
9.54
9.24
8.75
7.97
6.91
5.65
4.31
3.00
1.79
0.71
-0.27
-1.21
-2.22
-3.35
-4.62
-5.95
-7.17
-8.04
-8.39
-8.14
-7.32
-6.10
-4.65
-3.16
-1.76
-0.51
0.52
1.31
1.83
2.08
2.05
1.84
1.57
1.34
1.24
1.26
1.36
1.43
1.37
1.12
0.66
0.07
-0.58
-1.15
-1.59
-1.86
-2.03
-2.18
-2.39
-2.66
-2.97
-3.28
-3.58
-3.95
-4.52
-5.35
-6.40
-7.51
-8.36
-8.70
-8.37
-7.42
-6.01
-4.40
-2.78
-1.27
0.07
1.19
2.04
2.56
2.73
2.63
2.44
2.33
2.44
2.77
3.20
3.59
3.85
3.97
4.00
3.99
3.97
3.90
3.70
3.34
2.81
2.12
1.29
0.37
-0.60
-1.56
-2.41
-3.11
-3.66
-4.14
-4.68
-5.35
-6.18
-7.10
-7.99
-8.80
-9.50
-10.09
-10.55
-10.72
-10.45
-9.59
-8.10
-6.16
-4.01
-1.95
-0.20
1.18
2.27
3.16
3.93
4.58
5.08
5.38
5.46
5.36
5.17
5.00
4.92
4.96
5.11
5.32
5.50
5.62
5.64
5.51
5.21
4.69
3.95
3.03
2.01
1.04
0.24
-0.32
-0.62
-0.75
-0.82
-0.92
-1.14
-1.52
-2.05
-2.72
-3.49
-4.33
-5.16
-5.89
-6.38
-6.51
-6.16
-5.29
-3.99
-2.44
-0.86
0.56
1.66
2.41
2.84
3.00
2.98
2.83
2.63
2.43
2.25
2.10
1.99
1.92
1.94
2.04
2.19
2.33
2.38
2.30
2.12
1.94
1.85
1.87
1.94
1.90
1.62
1.07
0.31
-0.46
-1.06
-1.38
-1.44
-1.42
-1.52
-1.97
-2.91
-4.31
-6.06
-7.95
-9.69
-11.01
-11.64
-11.40
-10.28
-8.45
-6.19
-3.85
-1.72
0.05
1.42
2.44
3.23
3.87
4.44
4.94
5.33
5.55
5.50
5.18
4.67
4.13
3.72
3.55
3.63
3.83
4.04
4.15
4.15
4.07
3.96
3.85
3.71
3.51
3.23
2.86
2.43
2.00
1.62
1.27
0.93
0.52
-0.02
-0.69
-1.39
-2.00
-2.40
-2.60
-2.72
-2.97
-3.54
-4.49
-5.76
-7.16
-8.46
-9.41
-9.78
-9.45
-8.37
-6.66
-4.54
-2.30
-0.22
1.50
2.79
3.68
4.21
4.45
4.40
4.12
3.70
3.30
3.03
2.92
2.90
2.84
2.63
2.27
1.87
1.61
1.63
2.00
2.59
3.15
3.44
3.29
2.75
2.00
1.34
0.95
0.88
1.03
1.19
1.19
0.90
0.33
-0.46
-1.41
-2.39
-3.29
-3.99
-4.37
-4.40
-4.15
-3.81
-3.60
-3.71
-4.27
-5.33
-6.79
-8.44
-9.95
-10.92
-11.04
-10.16
-8.41
-6.11
-3.68
-1.44
0.41
1.84
2.91
3.64
4.04
4.13
3.97
3.69
3.45
3.35
3.43
3.59
3.72
3.74
3.63
3.47
3.35
3.34
3.45
3.63
3.80
3.87
3.83
3.68
3.49
3.33
3.24
3.22
3.20
3.12
2.94
2.67
2.36
2.04
1.72
1.34
0.82
0.09
-0.87
-2.01
-3.20
-4.29
-5.07
-5.34
-4.99
-4.00
-2.50
-0.73
1.07
2.66
3.93
4.82
5.34
5.51
5.34
4.85
4.11
3.25
2.45
1.88
1.65
1.71
1.93
2.15
2.21
2.11
1.95
1.86
1.88
1.98
1.98
1.75
1.23
0.49
-0.37
-1.22
-2.02
-2.76
-3.41
-3.95
-4.30
-4.47
-4.55
-4.72
-5.17
-6.01
-7.16
-8.40
-9.42
-9.93
-9.71
-8.74
-7.11
-5.04
-2.82
-0.68
1.16
2.60
3.62
4.31
4.74
4.99
5.08
5.03
4.84
4.55
4.21
3.87
3.58
3.27
2.92
2.46
1.89
1.25
0.63
0.07
-0.40
-0.81
-1.19
-1.59
-2.03
-2.51
-3.01
-3.52
-4.02
-4.49
-4.93
-5.30
-5.61
-5.89
-6.24
-6.75
-7.44
-8.27
-9.02
-9.45
-9.34
-8.60
-7.31
-5.67
-3.89
-2.10
-0.40
1.13
2.41
3.33
3.86
4.03
3.98
3.86
3.77
3.77
3.81
3.82
3.76
3.61
3.34
2.96
2.45
1.84
1.18
0.53
-0.06
-0.55
-0.92
-1.21
-1.44
-1.72
-2.15
-2.82
-3.70
-4.65
-5.47
-5.98
-6.15
-6.09
-6.05
-6.29
-6.94
-7.97
-9.17
-10.22
-10.81
-10.69
-9.76
-8.15
-6.10
-3.94
-1.98
-0.38
0.83
1.75
2.49
3.09
3.54
3.76
3.74
3.54
3.31
3.21
3.30
3.55
3.86
4.09
4.19
4.18
4.16
4.21
4.31
4.42
4.42
4.27
3.97
3.61
3.25
2.93
2.64
2.32
1.91
1.39
0.81
0.21
-0.38
-0.97
-1.65
-2.50
-3.52
-4.60
-5.49
-5.88
-5.55
-4.46
-2.85
-1.07
0.52
1.72
2.56
3.21
3.84
4.53
5.20
5.66
5.81
5.63
5.25
4.87
4.66
4.68
4.91
5.27
5.66
5.99
6.19
6.21
6.02
5.63
5.05
4.34
3.52
2.63
1.71
0.78
-0.13
-0.94
-1.66
-2.26
-2.81
-3.36
-3.99
-4.77
-5.71
-6.78
-7.87
-8.77
-9.22
-9.02
-8.05
-6.39
-4.26
-1.96
0.21
2.03
3.40
4.27
4.66
4.61
4.25
3.75
3.27
2.95
2.83
2.89
3.06
3.24
3.40
3.52
3.64
3.78
3.91
3.99
3.98
3.80
3.43
2.85
2.07
1.14
0.17
-0.72
-1.42
-1.89
-2.11
-2.18
-2.20
-2.34
-2.74
-3.48
-4.61
-5.98
-7.36
-8.40
-8.81
-8.42
-7.31
-5.72
-3.99
-2.37
-0.94
0.31
1.45
2.47
3.32
3.90
4.14
4.07
3.78
3.43
3.13
2.95
2.87
2.85
2.82
2.75
2.62
2.46
2.31
2.15
1.95
1.67
1.26
0.68
-0.02
-0.78
-1.50
-2.11
-2.56
-2.88
-3.07
-3.16
-3.20
-3.20
-3.24
-3.39
-3.77
-4.46
-5.46
-6.66
-7.78
-8.53
-8.63
-7.95
-6.55
-4.67
-2.62
-0.67
0.99
2.33
3.39
4.25
4.94
5.44
5.73
5.77
5.64
5.42
5.24
5.18
5.23
5.31
5.31
5.16
4.92
4.67
4.54
4.59
4.78
4.98
5.04
4.84
4.39
3.76
3.10
2.54
2.17
1.96
1.80
1.55
1.05
0.24
-0.87
-2.23
-3.67
-5.00
-5.97
-6.35
-5.98
-4.88
-3.25
-1.41
0.33
1.76
2.82
3.56
4.07
4.36
4.38
4.09
3.51
2.78
2.13
1.77
1.76
2.05
2.44
2.73
2.82
2.71
2.52
2.38
2.38
2.48
2.55
2.44
2.04
1.38
0.57
-0.24
-0.91
-1.37
-1.66
-1.83
-1.96
-2.13
-2.44
-2.98
-3.84
-4.98
-6.27
-7.39
-8.00
-7.82
-6.79
-5.04
-2.89
-0.71
1.13
2.43
3.10
3.23
3.02
2.69
2.44
2.32
2.30
2.29
2.22
2.10
2.02
2.06
2.21
2.38
2.48
2.45
2.38
2.39
2.56
2.84
3.05
2.97
2.48
1.61
0.52
-0.56
-1.47
-2.20
-2.85
-3.61
-4.62
-5.91
-7.43
-8.99
-10.38
-11.38
-11.80
-11.54
-10.61
-9.13
-7.27
-5.25
-3.27
-1.47
0.06
1.26
2.11
2.64
2.92
3.04
3.04
2.93
2.68
2.31
1.87
1.45
1.15
1.02
1.02
1.11
1.20
1.32
1.47
1.69
1.98
2.28
2.53
2.67
2.71
2.66
2.56
2.44
2.27
2.02
1.69
1.24
0.65
-0.10
-1.07
-2.26
-3.64
-5.04
-6.21
-6.89
-6.92
-6.26
-5.03
-3.46
-1.76
-0.12
1.38
2.70
3.80
4.64
5.15
5.28
5.06
4.59
4.03
3.58
3.35
3.37
3.57
3.83
4.05
4.18
4.22
4.19
4.15
4.10
4.03
3.93
3.78
3.59
3.31
2.93
2.47
1.97
1.53
1.21
0.99
0.71
0.19
-0.72
-2.07
-3.65
-5.17
-6.28
-6.75
-6.54
-5.74
-4.57
-3.20
-1.77
-0.35
0.99
2.17
3.11
3.78
4.15
4.25
4.14
3.86
3.46
3.02
2.59
2.30
2.22
2.36
2.67
3.02
3.30
3.43
3.41
3.29
3.16
3.07
3.01
2.93
2.75
2.41
1.93
1.37
0.83
0.36
-0.07
-0.54
-1.18
-2.08
-3.31
-4.78
-6.35
-7.78
-8.77
-9.07
-8.60
-7.43
-5.81
-4.05
-2.41
-0.99
0.20
1.21
2.05
2.64
2.95
2.98
2.82
2.66
2.58
2.61
2.67
2.66
2.54
2.35
2.16
2.06
2.08
2.18
2.28
2.30
2.15
1.79
1.26
0.60
-0.10
-0.74
-1.26
-1.68
-2.05
-2.50
-3.14
-4.04
-5.21
-6.58
-8.03
-9.33
-10.26
-10.59
-10.24
-9.27
-7.89
-6.42
-5.14
-4.21
-3.61
-3.19
-2.70
-2.01
-1.12
-0.19
0.57
1.00
1.09
0.96
0.81
0.78
0.93
1.21
1.52
1.74
1.83
1.83
1.82
1.87
2.00
2.20
2.42
2.59
2.69
2.69
2.61
2.46
2.24
1.94
1.58
1.15
0.71
0.29
-0.13
-0.60
-1.22
-2.05
-3.07
-4.12
-5.00
-5.45
-5.31
-4.55
-3.23
-1.56
0.28
2.06
3.61
4.81
5.63
6.08
6.23
6.20
6.04
5.81
5.50
5.13
4.72
4.30
3.91
3.59
3.34
3.17
3.06
3.03
3.08
3.19
3.32
3.41
3.38
3.17
2.78
2.26
1.69
1.14
0.61
0.06
-0.63
-1.53
-2.66
-3.90
-5.08
-5.96
-6.38
-6.23
-5.52
-4.38
-2.99
-1.51
-0.06
1.31
2.59
3.75
4.72
5.38
5.62
5.43
4.93
4.26
3.61
3.07
2.65
2.30
2.03
1.87
1.86
1.99
2.19
2.35
2.40
2.32
2.13
1.86
1.53
1.12
0.63
0.09
-0.44
-0.90
-1.29
-1.67
-2.14
-2.82
-3.76
-4.98
-6.39
-7.86
-9.22
-10.22
-10.68
-10.46
-9.59
-8.23
-6.61
-4.96
-3.44
-2.09
-0.87
0.29
1.44
2.61
3.77
4.85
5.75
6.37
6.64
6.58
6.29
5.93
5.65
5.53
5.56
5.67
5.75
5.72
5.58
5.34
5.05
4.71
4.35
3.95
3.53
3.13
2.78
2.48
2.19
1.87
1.41
0.79
-0.02
-1.01
-2.14
-3.42
-4.85
-6.42
-8.01
-9.43
-10.44
-10.86
-10.59
-9.70
-8.34
-6.72
-5.04
-3.45
-2.07
-0.95
-0.09
0.55
1.06
1.48
1.84
2.11
2.24
2.22
2.08
1.90
1.80
1.83
2.04
2.40
2.83
3.25
3.57
3.75
3.73
3.51
3.08
2.48
1.80
1.18
0.76
0.65
0.84
1.20
1.51
1.55
1.21
0.54
-0.31
-1.15
-1.85
-2.39
-2.86
-3.40
-4.16
-5.26
-6.69
-8.34
-9.96
-11.21
-11.77
-11.48
-10.36
-8.63
-6.60
-4.57
-2.72
-1.13
0.21
1.33
2.24
2.92
3.39
3.66
3.81
3.91
4.02
4.19
4.39
4.59
4.79
5.00
5.27
5.68
6.21
6.81
7.38
7.76
7.89
7.78
7.48
7.07
6.56
5.98
5.32
4.58
3.78
2.95
2.14
1.36
0.69
0.18
-0.13
-0.34
-0.60
-1.10
-1.97
-3.18
-4.54
-5.82
-6.76
-7.21
-7.13
-6.54
-5.54
-4.25
-2.78
-1.25
0.23
1.55
2.60
3.32
3.73
3.88
3.92
3.95
4.00
4.03
3.95
3.73
3.42
3.19
3.17
3.38
3.73
3.98
3.91
3.44
2.61
1.58
0.51
-0.53
-1.57
-2.65
-3.79
-4.87
-5.73
-6.18
-6.15
-5.72
-5.11
-4.58
-4.34
-4.44
-4.79
-5.23
-5.62
-5.90
-6.09
-6.21
-6.28
-6.25
-6.03
-5.56
-4.84
-3.88
-2.72
-1.43
-0.03
1.46
2.95
4.36
5.57
6.50
7.13
7.52
7.74
7.89
8.07
8.33
8.67
9.05
9.38
9.51
9.34
8.83
8.05
7.11
6.15
5.21
4.27
3.24
2.08
0.80
-0.49
-1.67
-2.63
-3.34
-3.81
-4.13
-4.41
-4.79
-5.37
-6.23
-7.27
-8.25
-8.84
-8.70
-7.74
-6.06
-3.98
-1.82
0.19
2.01
3.64
5.09
6.29
7.07
7.31
7.02
6.33
5.49
4.69
4.01
3.36
2.60
1.63
0.44
-0.80
-1.89
-2.65
-3.06
-3.23
-3.36
-3.62
-4.07
-4.63
-5.15
-5.48
-5.51
-5.23
-4.67
-3.94
-3.20
-2.60
-2.28
-2.23
-2.31
-2.26
-1.84
-0.92
0.44
2.08
3.80
5.47
7.06
8.55
9.87
10.88
11.41
11.40
10.90
10.10
9.20
8.40
7.76
7.24
6.75
6.17
5.45
4.54
3.49
2.37
1.30
0.39
-0.34
-0.93
-1.54
-2.31
-3.38
-4.80
-6.54
-8.51
-10.60
-12.72
-14.86
-17.04
-19.24
-21.38
-23.31
-24.90
-26.04
-26.78
-27.25
-27.60
-27.87
-27.97
-27.76
-27.19
-26.32
-25.22
-23.78
-21.61
-18.01
-12.36
-4.35
5.84
17.50
29.64
41.22
51.28
59.03
63.83
65.25
63.21
58.12
51.02
43.38
36.79
32.43
30.68
30.86
31.44
30.63
27.08
20.54
11.95
3.06
-4.31
-9.07
-11.14
-11.31
-10.70
-10.16
-10.03
-10.21
-10.45
-10.61
-10.82
-11.30
-12.24
-13.70
-15.62
-17.98
-20.75
-23.89
-27.18
-30.26
-32.62
-33.88
-33.96
-33.03
-31.44
-29.46
-27.22
-24.67
-21.73
-18.44
-14.98
-11.56
-8.34
-5.25
-2.06
1.48
5.52
9.98
14.55
18.85
22.57
25.63
28.19
30.62
33.30
36.52
40.36
44.75
49.47
54.22
58.64
62.32
64.85
66.08
66.30
66.30
66.87
68.20
69.55
69.41
66.31
59.80
50.91
41.74
34.47
30.38
29.55
31.25
34.66
39.30
44.83
50.51
55.04
56.83
54.85
49.33
41.83
34.48
29.22
27.25
29.02
34.60
43.90
56.65
72.03
88.44
103.72
115.68
122.88
125.05
123.13
118.92
114.36
111.09
110.00
111.17
113.91
116.98
118.95
118.55
115.00
108.05
97.76
84.13
66.71
44.56
16.63
-17.51
-57.16
-100.33
-144.35
-186.87
-226.59
-263.46
-298.08
-330.76
-360.82
-386.47
-405.21
-414.50
-412.39
-397.98
-371.75
-335.77
-293.41
-248.74
-205.52
-166.38
-132.47
-103.83
-80.08
-61.11
-47.02
-37.67
-32.18
-28.87
-25.88
-22.02
-17.31
-12.78
-9.75
-9.01
-10.42
-13.11
-15.99
-18.27
-19.72
-20.52
-20.99
-21.30
-21.29
-20.60
-18.83
-15.87
-12.10
-8.27
-5.28
-3.65
-3.12
-2.52
0.00
6.35
17.66
33.66
52.49
71.08
86.13
95.17
97.28
93.25
84.99
74.82
64.67
55.79
48.77
43.87
41.19
40.65
41.92
44.25
46.69
48.26
48.35
46.93
44.44
41.60
39.03
37.09
35.79
34.83
33.81
32.46
30.70
28.65
26.58
24.71
23.19
21.99
20.95
19.87
18.59
17.02
15.18
13.20
11.26
9.56
8.25
7.37
6.87
6.62
6.41
6.07
5.44
4.43
2.99
1.19
-0.81
-2.74
-4.33
-5.41
-6.01
-6.38
-6.94
-8.20
-10.52
-14.05
-18.63
-23.79
-28.87
-33.26
-36.50
-38.43
-39.10
-38.61
-37.02
-34.17
-29.90
-24.16
-17.27
-9.93
-3.01
2.70
6.82
9.38
10.78
11.49
11.85
12.00
11.99
11.88
11.93
12.54
14.09
16.76
20.35
24.33
28.00
30.71
32.10
32.19
31.36
30.12
29.02
28.36
28.15
28.15
27.95
27.14
25.44
22.77
19.17
14.83
9.96
4.83
-0.29
-5.14
-9.61
-13.68
-17.48
-21.10
-24.43
-27.09
-28.49
-28.06
-25.48
-20.88
-14.81
-8.05
-1.30
5.13
11.55
18.85
28.20
40.55
56.16
74.33
93.51
111.79
127.43
139.29
146.95
150.47
150.20
146.52
139.90
130.88
120.09
108.16
95.58
82.72
69.92
57.57
46.10
35.90
27.08
19.32
12.05
4.64
-3.26
-11.62
-20.02
-27.93
-34.95
-40.96
-46.13
-50.83
-55.41
-60.14
-65.04
-69.87
-74.16
-77.28
-78.49
-77.16
-72.90
-65.82
-56.68
-46.81
-37.92
-31.64
-29.02
-30.25
-34.54
-40.46
-46.42
-51.14
-53.99
-55.03
-54.79
-53.96
-53.11
-52.55
-52.44
-52.83
-53.75
-55.21
-57.12
-59.24
-61.23
-62.78
-63.61
-63.54
-62.37
-59.81
-55.46
-48.88
-39.74
-28.02
-14.04
1.62
18.30
35.27
51.73
66.68
78.90
87.13
90.46
88.74
82.84
74.38
65.24
56.90
50.03
44.45
39.56
34.85
30.21
25.92
22.30
19.39
16.91
14.35
11.28
7.60
3.58
-0.33
-3.68
-6.19
-7.82
-8.69
-9.12
-9.53
-10.41
-12.28
-15.52
-20.26
-26.25
-32.94
-39.64
-45.84
-51.33
-56.22
-60.74
-65.01
-68.91
-72.07
-74.09
-74.76
-74.08
-72.18
-69.11
-64.70
-58.67
-50.78
-41.03
-29.80
-17.73
-5.54
6.09
16.63
25.66
32.82
37.83
40.55
41.03
39.60
36.83
33.47
30.30
27.97
26.91
27.26
28.86
31.32
34.14
36.84
39.06
40.58
41.38
41.50
41.04
40.11
38.79
37.20
35.46
33.78
32.40
31.61
31.54
32.15
33.06
33.60
32.98
30.53
25.96
19.44
11.56
3.15
-5.00
-12.30
-18.42
-23.17
-26.50
-28.41
-28.91
-28.10
-26.09
-22.99
-18.92
-14.06
-8.71
-3.30
1.66
5.71
8.58
10.27
10.95
10.92
10.43
9.65
8.67
7.53
6.30
5.06
3.84
2.67
1.52
0.35
-0.87
-2.10
-3.27
-4.27
-5.04
-5.56
-5.86
-6.01
-6.12
-6.29
-6.59
-7.07
-7.72
-8.46
-9.20
-9.77
-10.08
-10.03
-9.62
-8.91
-8.02
-7.05
-6.14
-5.35
-4.74
-4.32
-4.06
-3.89
-3.77
-3.65
-3.51
-3.37
-3.23
-3.14
-3.12
-3.20
-3.39
-3.67
-4.03
-4.43
-4.79
-5.05
-5.16
-5.13
-5.02
-4.95
-5.08
-5.54
-6.32
-7.32
-8.32
-9.09
-9.40
-9.16
-8.38
-7.16
-5.67
-4.11
-2.67
-1.55
-0.81
-0.42
-0.21
0.04
0.46
1.08
1.78
2.36
2.66
2.68
2.50
2.26
2.09
2.01
1.99
2.01
2.06
2.13
2.21
2.23
2.11
1.78
1.26
0.62
-0.03
-0.60
-1.11
-1.61
-2.15
-2.82
-3.62
-4.53
-5.44
-6.18
-6.53
-6.35
-5.58
-4.34
-2.90
-1.54
-0.48
0.23
0.70
1.09
1.51
1.95
2.27
2.37
2.23
1.99
1.82
1.84
2.03
2.25
2.30
2.06
1.58
1.04
0.64
0.52
0.67
0.95
1.17
1.22
1.07
0.80
0.55
0.40
0.36
0.38
0.38
0.27
0.01
-0.41
-0.99
-1.74
-2.63
-3.59
-4.55
-5.45
-6.28
-7.06
-7.83
-8.53
-9.06
-9.22
-8.89
-8.04
-6.81
-5.43
-4.13
-3.06
-2.23
-1.61
-1.13
-0.74
-0.43
-0.18
0.04
0.30
0.64
1.07
1.54
1.96
2.25
2.36
2.31
2.15
1.98
1.86
1.83
1.90
2.07
2.31
2.60
2.88
3.12
3.26
3.26
3.11
2.79
2.32
1.78
1.25
0.81
0.51
0.28
0.01
-0.45
-1.18
-2.12
-3.13
-4.00
-4.57
-4.79
-4.71
-4.47
-4.14
-3.76
-3.30
-2.74
-2.10
-1.47
-0.92
-0.50
-0.21
0.04
0.31
0.63
0.96
1.24
1.40
1.47
1.51
1.60
1.79
2.06
2.40
2.77
3.13
3.46
3.75
3.96
4.07
4.06
3.98
3.85
3.72
3.54
3.29
2.93
2.48
2.03
1.68
1.47
1.37
1.31
1.19
0.97
0.65
0.23
-0.30
-0.97
-1.78
-2.69
-3.56
-4.18
-4.37
-4.03
-3.20
-2.03
-0.75
0.39
1.20
1.59
1.60
1.42
1.24
1.24
1.49
1.91
2.38
2.77
3.07
3.34
3.65
4.02
4.41
4.72
4.87
4.87
4.80
4.75
4.77
4.85
4.86
4.71
4.34
3.75
3.01
2.20
1.41
0.69
0.05
-0.55
-1.16
-1.83
-2.53
-3.22
-3.83
-4.27
-4.53
-4.61
-4.57
-4.45
-4.29
-4.08
-3.75
-3.24
-2.54
-1.70
-0.84
-0.08
0.49
0.85
1.05
1.16
1.23
1.24
1.18
1.06
0.94
0.91
1.06
1.39
1.84
2.29
2.62
2.81
2.91
2.99
3.09
3.15
3.12
2.92
2.56
2.11
1.64
1.23
0.88
0.56
0.24
-0.11
-0.49
-0.81
-1.00
-0.90
-0.41
0.52
1.82
3.29
4.72
5.91
6.76
7.29
7.59
7.75
7.86
7.93
7.98
7.98
7.89
7.67
7.29
6.79
6.23
5.70
5.27
4.93
4.61
4.25
3.82
3.38
2.99
2.68
2.40
2.03
1.46
0.62
-0.46
-1.66
-2.87
-4.00
-5.08
-6.16
-7.29
-8.41
-9.35
-9.86
-9.73
-8.93
-7.62
-6.10
-4.71
-3.66
-2.98
-2.55
-2.21
-1.84
-1.42
-0.99
-0.61
-0.29
-0.05
0.14
0.25
0.25
0.11
-0.15
-0.49
-0.81
-1.07
-1.26
-1.42
-1.57
-1.73
-1.89
-2.04
-2.17
-2.26
-2.30
-2.26
-2.09
-1.78
-1.40
-1.06
-0.88
-0.85
-0.83
-0.63
-0.07
0.89
2.06
3.16
3.93
4.18
3.95
3.40
2.74
2.13
1.59
1.04
0.39
-0.33
-1.06
-1.61
-1.83
-1.70
-1.34
-0.96
-0.75
-0.80
-1.04
-1.37
-1.66
-1.87
-2.03
-2.22
-2.47
-2.77
-3.06
-3.30
-3.50
-3.72
-4.05
-4.57
-5.21
-5.82
-6.17
-6.09
-5.54
-4.63
-3.57
-2.53
-1.61
-0.80
-0.06
0.60
1.09
1.34
1.33
1.19
1.08
1.12
1.29
1.45
1.44
1.17
0.74
0.30
-0.01
-0.18
-0.26
-0.36
-0.46
-0.51
-0.43
-0.22
-0.01
0.01
-0.32
-0.99
-1.82
-2.58
-3.08
-3.30
-3.41
-3.59
-3.95
-4.44
-4.88
-5.01
-4.69
-3.92
-2.85
-1.73
-0.74
0.01
0.54
0.88
1.05
1.03
0.82
0.43
-0.03
-0.45
-0.74
-0.90
-0.97
-1.03
-1.09
-1.14
-1.11
-0.97
-0.73
-0.44
-0.20
-0.07
-0.08
-0.22
-0.46
-0.78
-1.13
-1.45
-1.70
-1.83
-1.88
-1.89
-1.99
-2.25
-2.69
-3.29
-3.93
-4.46
-4.74
-4.68
-4.29
-3.64
-2.85
-2.03
-1.28
-0.68
-0.23
0.03
0.09
-0.03
-0.30
-0.63
-0.92
-1.07
-1.00
-0.70
-0.25
0.24
0.66
0.91
1.00
1.01
1.01
1.06
1.16
1.27
1.35
1.38
1.39
1.40
1.46
1.54
1.62
1.67
1.70
1.73
1.72
1.62
1.36
0.89
0.22
-0.56
-1.35
-2.03
-2.53
-2.85
-3.00
-3.00
-2.85
-2.54
-2.07
-1.45
-0.78
-0.13
0.40
0.74
0.86
0.76
0.52
0.20
-0.14
-0.47
-0.80
-1.10
-1.33
-1.40
-1.25
-0.84
-0.26
0.33
0.78
1.00
1.04
1.06
1.23
1.62
2.14
2.62
2.84
2.70
2.19
1.43
0.61
-0.14
-0.73
-1.13
-1.35
-1.41
-1.33
-1.18
-1.11
-1.27
-1.79
-2.64
-3.64
-4.47
-4.82
-4.49
-3.53
-2.19
-0.84
0.20
0.78
0.94
0.84
0.71
0.71
0.87
1.13
1.38
1.52
1.52
1.46
1.45
1.55
1.73
1.91
1.95
1.81
1.54
1.26
1.07
1.01
1.04
1.06
0.97
0.75
0.38
-0.11
-0.69
-1.36
-2.05
-2.71
-3.25
-3.60
-3.74
-3.72
-3.65
-3.65
-3.79
-4.04
-4.29
-4.35
-4.11
-3.51
-2.64
-1.66
-0.74
0.03
0.64
1.11
1.48
1.70
1.75
1.60
1.31
1.05
0.95
1.09
1.40
1.76
2.05
2.21
2.28
2.36
2.52
2.70
2.84
2.87
2.79
2.69
2.63
2.65
2.62
2.37
1.74
0.72
-0.55
-1.80
-2.75
-3.29
-3.47
-3.48
-3.59
-3.97
-4.64
-5.45
-6.20
-6.66
-6.69
-6.28
-5.50
-4.49
-3.36
-2.23
-1.13
-0.09
0.84
1.64
2.26
2.68
2.90
2.97
2.94
2.86
2.77
2.69
2.63
2.59
2.55
2.53
2.51
2.49
2.45
2.38
2.27
2.10
1.85
1.52
1.09
0.58
0.03
-0.52
-1.06
-1.61
-2.24
-3.01
-3.95
-5.01
-6.08
-7.05
-7.84
-8.45
-8.97
-9.57
-10.37
-11.35
-12.37
-13.18
-13.56
-13.41
-12.80
-11.97
-11.18
-10.66
-10.50
-10.72
-11.25
-11.99
-12.73
-13.08
-12.50
-10.47
-6.68
-1.30
5.07
11.55
17.35
21.99
25.44
27.93
29.76
31.08
31.83
31.84
31.01
29.39
27.19
24.72
22.20
19.77
17.44
15.11
12.72
10.22
7.67
5.18
2.92
0.97
-0.65
-2.02
-3.26
-4.44
-5.56
-6.51
-7.11
-7.23
-6.86
-6.15
-5.31
-4.57
-4.01
-3.58
-3.16
-2.66
-2.12
-1.69
-1.55
-1.75
-2.23
-2.74
-3.05
-2.97
-2.52
-1.86
-1.20
-0.73
-0.52
-0.54
-0.71
-0.95
-1.17
-1.34
-1.39
-1.31
-1.09
-0.80
-0.51
-0.32
-0.30
-0.46
-0.75
-1.07
-1.36
-1.56
-1.71
-1.88
-2.19
-2.68
-3.35
-4.09
-4.73
-5.09
-5.04
-4.59
-3.84
-3.01
-2.29
-1.79
-1.48
-1.21
-0.82
-0.22
0.54
1.30
1.87
2.10
1.98
1.61
1.22
0.97
0.94
1.07
1.15
1.01
0.59
-0.03
-0.66
-1.12
-1.33
-1.37
-1.41
-1.61
-2.04
-2.62
-3.26
-3.86
-4.43
-5.00
-5.62
-6.28
-6.95
-7.64
-8.41
-9.37
-10.60
-12.09
-13.69
-15.17
-16.27
-16.81
-16.74
-16.13
-15.20
-14.17
-13.29
-12.72
-12.57
-12.86
-13.54
-14.41
-15.18
-15.46
-14.87
-13.17
-10.34
-6.57
-2.18
2.52
7.29
11.96
16.30
20.02
22.79
24.40
24.90
24.65
24.18
23.96
24.23
24.89
25.60
25.98
25.76
24.86
23.46
21.73
19.83
17.84
15.75
13.52
11.23
9.00
7.00
5.33
3.96
2.76
1.55
0.27
-1.00
-2.03
-2.64
-2.73
-2.41
-1.89
-1.37
-0.99
-0.73
-0.51
-0.29
-0.07
0.10
0.18
0.16
0.15
0.21
0.40
0.70
1.00
1.15
0.99
0.48
-0.31
-1.20
-1.99
-2.47
-2.58
-2.37
-1.98
-1.54
-1.16
-0.89
-0.72
-0.67
-0.75
-0.99
-1.39
-1.92
-2.49
-3.02
-3.39
-3.54
-3.46
-3.26
-3.10
-3.18
-3.53
-4.12
-4.78
-5.33
-5.69
-5.90
-6.03
-6.12
-6.14
-5.98
-5.55
-4.84
-3.92
-2.90
-1.90
-1.01
-0.28
0.23
0.49
0.54
0.49
0.51
0.69
1.04
1.41
1.64
1.58
1.32
1.00
0.82
0.84
1.00
1.09
0.96
0.57
0.05
-0.42
-0.72
-0.84
-0.94
-1.15
-1.54
-2.11
-2.76
-3.46
-4.22
-5.17
-6.39
-7.91
-9.68
-11.53
-13.36
-15.13
-16.91
-18.77
-20.81
-23.03
-25.34
-27.61
-29.72
-31.59
-33.22
-34.65
-35.91
-36.97
-37.69
-37.89
-37.27
-35.53
-32.46
-27.94
-22.08
-15.09
-7.30
0.98
9.44
17.77
25.65
32.75
38.77
43.52
46.97
49.29
50.76
51.64
52.11
52.24
52.02
51.46
50.63
49.70
48.83
48.13
47.56
46.84
45.63
43.55
40.39
36.16
31.10
25.62
20.18
15.13
10.67
6.84
3.57
0.76
-1.68
-3.75
-5.40
-6.62
-7.36
-7.70
-7.72
-7.55
-7.32
-7.08
-6.85
-6.65
-6.47
-6.35
-6.36
-6.52
-6.77
-7.03
-7.17
-7.10
-6.84
-6.51
-6.21
-6.06
-6.12
-6.36
-6.72
-7.10
-7.44
-7.67
-7.81
-7.91
-8.08
-8.43
-8.99
-9.69
-10.41
-10.99
-11.36
-11.55
-11.69
-11.89
-12.22
-12.66
-13.12
-13.54
-13.92
-14.28
-14.68
-15.08
-15.39
-15.51
-15.36
-15.00
-14.57
-14.32
-14.45
-15.09
-16.25
-17.87
-19.83
-22.01
-24.26
-26.42
-28.36
-30.00
-31.37
-32.62
-33.94
-35.47
-37.18
-38.87
-40.20
-40.85
-40.63
-39.53
-37.71
-35.43
-32.97
-30.55
-28.30
-26.26
-24.36
-22.46
-20.47
-18.38
-16.28
-14.41
-12.99
-12.13
-11.73
-11.48
-10.93
-9.65
-7.35
-4.01
0.12
4.56
8.80
12.42
15.23
17.19
18.38
18.87
18.75
18.15
17.35
16.69
16.46
16.70
17.06
16.94
15.74
13.21
9.56
5.44
1.61
-1.43
-3.55
-5.02
-6.15
-7.12
-7.84
-8.08
-7.69
-6.69
-5.23
-3.53
-1.69
0.28
2.39
4.50
6.31
7.42
7.48
6.32
4.06
0.99
-2.47
-5.91
-9.03
-11.62
-13.64
-15.14
-16.30
-17.34
-18.53
-20.12
-22.30
-25.05
-28.07
-30.84
-32.79
-33.54
-33.05
-31.58
-29.48
-26.91
-23.80
-19.90
-15.10
-9.54
-3.62
2.30
8.17
14.41
21.66
30.31
40.18
50.43
59.87
67.48
72.80
76.05
77.95
79.33
80.74
82.38
84.11
85.68
86.85
87.53
87.74
87.54
87.07
86.44
85.83
85.46
85.61
86.55
88.40
90.98
93.76
95.80
95.94
92.98
85.95
74.41
58.65
39.74
19.47
-0.02
-16.75
-29.42
-37.66
-41.99
-43.51
-43.39
-42.54
-41.45
-40.34
-39.31
-38.44
-37.80
-37.34
-36.89
-36.18
-35.04
-33.51
-31.81
-30.30
-29.23
-28.66
-28.46
-28.37
-28.13
-27.55
-26.61
-25.38
-23.99
-22.57
-21.22
-19.94
-18.72
-17.49
-16.23
-14.91
-13.52
-12.08
-10.58
-9.03
-7.48
-6.06
-4.96
-4.28
-4.03
-4.04
-4.06
-3.92
-3.56
-3.12
-2.77
-2.66
-2.80
-3.10
-3.42
-3.68
-3.88
-4.06
-4.26
-4.45
-4.61
-4.73
-4.93
-5.31
-5.97
-6.89
-7.91
-8.78
-9.26
-9.20
-8.61
-7.62
-6.45
-5.26
-4.21
-3.34
-2.63
-2.04
-1.54
-1.13
-0.87
-0.90
-1.36
-2.35
-3.81
-5.55
-7.30
-8.84
-10.05
-11.03
-11.99
-13.12
-14.55
-16.20
-17.90
-19.47
-20.82
-22.03
-23.28
-24.83
-26.86
-29.40
-32.26
-35.07
-37.39
-38.80
-39.07
-38.09
-35.84
-32.25
-27.18
-20.51
-12.30
-2.87
7.18
17.15
26.46
34.80
42.09
48.34
53.54
57.61
60.51
62.30
63.24
63.68
63.91
63.99
63.73
62.84
61.13
58.65
55.72
52.79
50.19
48.04
46.24
44.57
42.83
41.01
39.23
37.67
36.40
35.27
33.92
31.83
28.51
23.63
17.18
9.52
1.24
-7.04
-14.93
-22.34
-29.41
-36.33
-43.11
-49.54
-55.25
-59.92
-63.32
-65.33
-65.87
-64.77
-61.90
-57.30
-51.28
-44.49
-37.65
-31.45
-26.32
-22.39
-19.54
-17.49
-15.91
-14.41
-12.72
-10.62
-8.07
-5.16
-2.12
0.67
2.74
3.63
3.10
1.23
-1.45
-4.08
-5.85
-6.31
-5.54
-3.96
-2.02
0.22
3.16
7.41
13.38
20.95
29.37
37.55
44.40
49.19
51.67
52.10
51.08
49.38
47.71
46.59
46.15
46.15
45.97
44.78
41.78
36.49
28.95
19.88
10.50
2.20
-3.96
-7.62
-9.23
-9.82
-10.60
-12.62
-16.55
-22.74
-31.30
-42.22
-55.23
-69.72
-84.64
-98.62
-110.10
-117.54
-119.60
-115.32
-104.46
-87.72
-66.93
-44.63
-23.52
-5.55
8.57
19.35
27.95
35.40
42.07
47.72
51.84
54.24
55.14
54.98
54.01
52.04
48.61
43.49
37.03
30.29
24.60
21.01
19.85
20.65
22.43
24.12
24.88
24.22
21.98
18.33
13.66
8.55
3.66
-0.44
-3.51
-5.67
-7.37
-9.09
-11.15
-13.50
-15.77
-17.45
-18.13
-17.65
-16.13
-13.86
-11.15
-8.24
-5.32
-2.61
-0.33
1.30
2.18
2.45
2.43
2.49
2.86
3.57
4.40
5.06
5.33
5.07
4.26
2.96
1.27
-0.62
-2.52
-4.22
-5.56
-6.53
-7.20
-7.65
-7.89
-7.80
-7.22
-6.02
-4.16
-1.80
0.82
3.40
5.66
7.39
8.45
8.78
8.37
7.31
5.73
3.83
1.85
0.03
-1.40
-2.31
-2.66
-2.56
-2.16
-1.64
-1.14
-0.67
-0.21
0.33
0.97
1.73
2.58
3.45
4.24
4.86
5.21
5.21
4.88
4.28
3.57
2.90
2.39
2.10
1.97
1.98
2.11
2.37
2.78
3.35
4.01
4.68
5.24
5.61
5.73
5.55
5.10
4.45
3.68
2.90
2.10
1.20
0.04
-1.54
-3.62
-6.09
-8.68
-11.03
-12.79
-13.70
-13.69
-12.83
-11.29
-9.31
-7.11
-4.87
-2.70
-0.65
1.25
3.00
4.57
5.95
7.13
8.11
8.93
9.56
10.00
10.15
9.92
9.24
8.10
6.62
4.99
3.44
2.09
0.89
-0.39
-2.01
-4.18
-6.94
-10.13
-13.51
-16.90
-20.29
-23.86
-27.94
-32.95
-39.33
-47.46
-57.55
-69.38
-81.97
-93.52
-101.70
-104.30
-100.06
-89.24
-73.65
-55.88
-38.52
-23.25
-10.64
-0.38
8.21
15.78
22.81
29.73
36.97
44.92
53.68
62.87
71.66
79.03
84.09
86.43
86.12
83.65
79.64
74.74
69.43
64.05
58.79
53.68
48.66
43.62
38.41
32.94
27.22
21.30
15.35
9.59
4.23
-0.57
-4.75
-8.38
-11.56
-14.40
-16.87
-18.85
-20.19
-20.80
-20.74
-20.25
-19.72
-19.55
-20.09
-21.53
-23.85
-26.76
-29.75
-32.16
-33.40
-33.11
-31.26
-28.12
-24.13
-19.69
-15.08
-10.47
-6.01
-1.90
1.58
4.22
5.90
6.77
7.10
7.22
7.32
7.40
7.34
6.97
6.22
5.18
4.01
2.90
1.96
1.22
0.62
0.06
-0.57
-1.39
-2.49
-3.85
-5.39
-6.86
-8.01
-8.62
-8.67
-8.32
-7.81
-7.38
-7.17
-7.16
-7.31
-7.55
-7.87
-8.31
-8.82
-9.24
-9.32
-8.77
-7.37
-5.09
-2.05
1.45
5.04
8.40
11.26
13.49
15.06
16.02
16.50
16.65
16.58
16.36
15.99
15.41
14.59
13.56
12.44
11.34
10.35
9.42
8.40
7.11
5.42
3.32
0.94
-1.51
-3.81
-5.83
-7.51
-8.86
-9.95
-10.84
-11.62
-12.39
-13.28
-14.37
-15.68
-17.07
-18.25
-18.80
-18.39
-16.81
-14.16
-10.73
-6.94
-3.13
0.52
3.99
7.33
10.56
13.62
16.42
18.90
21.09
23.10
25.06
27.00
28.82
30.28
31.16
31.30
30.77
29.76
28.58
27.44
26.39
25.34
24.09
22.50
20.53
18.24
15.71
12.95
10.00
6.90
3.89
1.29
-0.53
-1.35
-1.26
-0.57
0.24
0.70
0.55
-0.31
-1.83
-3.86
-6.19
-8.57
-10.68
-12.21
-12.91
-12.69
-11.58
-9.80
-7.67
-5.53
-3.73
-2.52
-2.04
-2.27
-3.05
-4.12
-5.18
-5.99
-6.41
-6.35
-5.81
-4.78
-3.33
-1.56
0.34
2.15
3.66
4.73
5.36
5.64
5.74
5.71
5.57
5.22
4.53
3.44
2.00
0.38
-1.22
-2.57
-3.56
-4.13
-4.41
-4.62
-5.06
-6.04
-7.75
-10.14
-12.90
-15.53
-17.51
-18.47
-18.29
-17.10
-15.19
-12.91
-10.53
-8.26
-6.25
-4.60
-3.38
-2.56
-2.04
-1.67
-1.31
-0.89
-0.42
0.06
0.48
0.85
1.20
1.57
1.99
2.42
2.81
3.12
3.32
3.39
3.30
2.96
2.31
1.29
-0.05
-1.58
-3.10
-4.46
-5.57
-6.49
-7.43
-8.60
-10.18
-12.16
-14.34
-16.40
-17.99
-18.88
-19.03
-18.66
-18.10
-17.64
-17.44
-17.48
-17.61
-17.64
-17.51
-17.20
-16.82
-16.46
-16.22
-16.16
-16.36
-16.92
-17.83
-18.96
-20.00
-20.49
-19.97
-18.15
-15.01
-10.84
-6.07
-1.12
3.69
8.17
12.27
15.93
19.05
21.52
23.20
24.07
24.19
23.70
22.81
21.72
20.56
19.40
18.22
17.00
15.79
14.67
13.85
13.53
13.86
14.81
16.22
17.80
19.26
20.41
21.22
21.78
22.19
22.42
22.33
21.69
20.36
18.43
16.22
14.18
12.75
12.20
12.60
13.81
15.65
17.96
20.66
23.68
26.98
30.46
34.02
37.54
40.95
44.12
46.67
48.03
47.42
44.22
38.23
29.91
20.21
10.22
0.79
-7.71
-15.26
-22.05
-28.24
-33.91
-39.20
-44.32
-49.55
-54.96
-60.34
-65.10
-68.55
-70.13
-69.68
-67.42
-63.82
-59.40
-54.63
-49.80
-45.11
-40.67
-36.54
-32.68
-29.06
-25.61
-22.23
-18.81
-15.20
-11.35
-7.27
-3.12
0.90
4.56
7.73
10.38
12.58
14.45
16.00
17.21
17.97
18.21
17.99
17.45
16.79
16.15
15.56
14.95
14.17
13.14
11.86
10.44
9.00
7.65
6.43
5.33
4.29
3.29
2.31
1.33
0.33
-0.68
-1.61
-2.34
-2.67
-2.40
-1.46
0.06
1.92
3.79
5.41
6.65
7.54
8.17
8.64
9.02
9.31
9.53
9.70
9.88
10.10
10.36
10.63
10.84
10.97
11.02
10.97
10.81
10.53
10.12
9.64
9.18
8.79
8.47
8.17
7.79
7.28
6.65
5.98
5.33
4.78
4.37
4.16
4.20
4.50
4.99
5.50
5.82
5.77
5.32
4.63
3.94
3.51
3.48
3.83
4.42
5.09
5.79
6.57
7.64
9.18
11.22
13.59
15.90
17.73
18.77
18.96
18.46
17.60
16.59
15.56
14.51
13.37
12.12
10.83
9.59
8.42
7.24
5.90
4.31
2.51
0.73
-0.78
-1.91
-2.78
-3.79
-5.43
-8.10
-11.91
-16.66
-21.96
-27.35
-32.51
-37.25
-41.49
-45.18
-48.20
-50.39
-51.56
-51.62
-50.64
-48.82
-46.48
-43.94
-41.44
-39.07
-36.90
-34.96
-33.41
-32.49
-32.42
-33.27
-34.77
-36.37
-37.39
-37.25
-35.74
-33.08
-29.76
-26.35
-23.23
-20.49
-17.97
-15.43
-12.73
-9.92
-7.27
-5.15
-3.87
-3.51
-3.89
-4.57
-5.07
-5.07
-4.65
-4.28
-4.68
-6.45
-9.81
-14.37
-19.29
-23.45
-25.88
-25.89
-23.18
-17.87
-10.53
-2.15
5.93
12.31
15.94
16.54
14.72
11.78
9.23
8.24
9.33
12.38
16.89
22.35
28.38
34.82
41.57
48.46
55.28
61.77
67.70
72.94
77.41
81.12
84.09
86.32
87.76
88.22
87.38
84.85
80.26
73.44
64.58
54.30
43.51
33.18
24.10
16.62
10.73
6.15
2.53
-0.39
-2.75
-4.67
-6.29
-7.80
-9.43
-11.30
-13.41
-15.64
-17.71
-19.32
-20.17
-20.12
-19.22
-17.73
-16.03
-14.45
-13.19
-12.21
-11.32
-10.32
-9.07
-7.57
-5.91
-4.24
-2.70
-1.47
-0.73
-0.59
-0.99
-1.66
-2.16
-2.04
-0.98
1.04
3.77
6.87
9.98
12.92
15.66
18.34
21.15
24.36
28.06
32.10
35.91
38.45
38.51
35.07
27.80
17.28
4.93
-7.48
-18.39
-26.94
-33.06
-37.19
-39.92
-41.57
-42.20
-41.76
-40.36
-38.38
-36.35
-34.67
-33.42
-32.29
-30.82
-28.63
-25.70
-22.30
-18.92
-15.95
-13.58
-11.75
-10.27
-8.93
-7.62
-6.33
-5.17
-4.25
-3.65
-3.39
-3.40
-3.60
-3.83
-4.02
-4.12
-4.18
-4.26
-4.50
-4.98
-5.80
-6.96
-8.42
-10.02
-11.52
-12.61
-13.01
-12.56
-11.27
-9.35
-7.13
-4.91
-2.93
-1.28
0.08
1.22
2.24
3.27
4.49
6.04
8.00
10.26
12.49
14.26
15.22
15.26
14.56
13.53
12.60
12.05
11.91
12.01
12.14
12.13
11.97
11.70
11.40
11.05
10.55
9.72
8.45
6.75
4.76
2.74
0.93
-0.55
-1.75
-2.81
-3.93
-5.24
-6.75
-8.46
-10.27
-12.13
-13.96
-15.59
-16.85
-17.54
-17.54
-16.89
-15.73
-14.27
-12.71
-11.18
-9.78
-8.65
-7.98
-7.94
-8.57
-9.73
-11.09
-12.25
-12.93
-13.07
-12.89
-12.76
-13.05
-13.99
-15.57
-17.54
-19.53
-21.16
-22.24
-22.82
-23.21
-23.94
-25.52
-28.38
-32.67
-38.21
-44.37
-50.09
-53.99
-54.67
-51.16
-43.29
-31.88
-18.52
-5.15
6.55
15.60
21.82
25.59
27.55
28.25
28.07
27.30
26.30
25.51
25.43
26.38
28.40
31.21
34.37
37.50
40.54
43.72
47.49
52.20
57.78
63.76
69.35
73.73
76.32
76.84
75.29
71.75
66.43
59.62
51.82
43.75
36.24
29.96
25.22
21.84
19.28
16.89
14.11
10.70
6.74
2.51
-1.63
-5.40
-8.71
-11.65
-14.46
-17.33
-20.32
-23.34
-26.15
-28.53
-30.44
-32.00
-33.42
-34.88
-36.39
-37.80
-38.81
-39.18
-38.80
-37.71
-36.05
-33.99
-31.64
-29.06
-26.28
-23.40
-20.55
-17.86
-15.45
-13.31
-11.36
-9.50
-7.65
-5.86
-4.22
-2.86
-1.84
-1.08
-0.43
0.30
1.21
2.31
3.44
4.41
5.07
5.38
5.45
5.46
5.56
5.70
5.74
5.57
5.26
5.15
5.67
7.14
9.44
12.05
14.20
15.22
14.83
13.18
10.68
7.78
4.86
2.27
0.45
-0.06
1.17
4.17
8.16
11.61
12.57
9.47
1.79
-9.54
-22.33
-33.91
-42.09
-45.81
-45.38
-42.06
-37.40
-32.65
-28.43
-24.85
-21.82
-19.28
-17.32
-16.05
-15.41
-15.07
-14.57
-13.44
-11.47
-8.86
-6.09
-3.77
-2.31
-1.80
-1.99
-2.43
-2.74
-2.76
-2.62
-2.58
-2.88
-3.56
-4.53
-5.59
-6.57
-7.39
-8.06
-8.51
-8.61
-8.18
-7.04
-5.15
-2.65
0.21
3.14
5.84
8.05
9.58
10.26
10.06
9.13
7.76
6.37
5.33
4.85
4.92
5.36
5.92
6.41
6.76
7.02
7.30
7.67
8.12
8.56
8.86
8.91
8.68
8.20
7.59
6.94
6.34
5.77
5.22
4.65
4.05
3.40
2.70
1.91
0.96
-0.21
-1.56
-2.97
-4.19
-4.96
-5.11
-4.60
-3.55
-2.20
-0.77
0.61
1.90
3.15
4.40
5.64
6.80
7.79
8.57
9.11
9.47
9.74
9.99
10.32
10.76
11.23
11.65
11.90
11.88
11.62
11.19
10.73
10.38
10.20
10.19
10.29
10.37
10.33
10.09
9.60
8.87
8.03
7.30
6.98
7.32
8.37
9.93
11.52
12.55
12.57
11.39
9.20
6.41
3.56
1.06
-0.85
-2.10
-2.76
-2.90
-2.61
-1.97
-1.12
-0.20
0.61
1.16
1.41
1.39
1.22
1.05
1.00
1.14
1.49
2.04
2.72
3.49
4.28
5.02
5.63
6.09
6.36
6.45
6.37
6.11
5.68
5.07
4.29
3.39
2.41
1.43
0.49
-0.35
-1.03
-1.54
-1.88
-2.13
-2.43
-2.91
-3.67
-4.67
-5.76
-6.78
-7.58
-8.09
-8.30
-8.22
-7.80
-6.95
-5.61
-3.80
-1.65
0.66
2.93
5.05
7.00
8.86
10.72
12.62
14.53
16.32
17.84
18.96
19.68
20.09
20.40
20.79
21.38
22.16
23.04
23.92
24.75
25.52
26.25
27.04
28.04
29.46
31.50
34.17
37.22
39.99
41.63
41.34
38.68
33.79
27.30
20.14
13.21
7.15
2.33
-1.19
-3.58
-5.14
-6.21
-7.01
-7.50
-7.37
-6.26
-4.04
-1.09
1.77
3.50
3.33
1.06
-2.80
-7.42
-11.98
-16.06
-19.62
-22.85
-25.80
-28.28
-29.89
-30.24
-29.25
-27.18
-24.58
-22.09
-20.16
-18.91
-18.16
-17.53
-16.69
-15.51
-14.13
-12.90
-12.22
-12.37
-13.36
-14.98
-16.85
-18.60
-19.98
-20.94
-21.60
-22.17
-22.85
-23.78
-24.99
-26.45
-28.05
-29.70
-31.32
-32.89
-34.41
-35.93
-37.45
-38.91
-40.17
-40.98
-41.10
-40.32
-38.55
-35.79
-32.17
-27.88
-23.20
-18.48
-14.12
-10.41
-7.37
-4.59
-1.35
3.10
9.20
16.65
24.48
31.39
36.28
38.74
39.16
38.42
37.35
36.34
35.22
33.53
30.93
27.48
23.66
20.03
16.92
14.16
11.30
7.85
3.70
-0.80
-4.92
-7.92
-9.38
-9.44
-8.63
-7.69
-7.20
-7.37
-8.11
-9.13
-10.17
-11.14
-12.06
-13.06
-14.13
-15.19
-16.01
-16.39
-16.23
-15.60
-14.68
-13.66
-12.69
-11.79
-10.90
-9.91
-8.75
-7.40
-5.96
-4.57
-3.36
-2.47
-1.91
-1.63
-1.50
-1.32
-0.98
-0.39
0.41
1.35
2.32
3.25
4.09
4.81
5.35
5.67
5.72
5.53
5.20
4.85
4.59
4.48
4.48
4.53
4.54
4.43
4.15
3.63
2.80
1.61
0.08
-1.69
-3.54
-5.28
-6.75
-7.81
-8.32
-8.18
-7.36
-5.90
-3.97
-1.78
0.43
2.48
4.32
5.98
7.57
9.14
10.73
12.30
13.82
15.19
16.31
16.99
17.05
16.36
14.92
12.94
10.74
8.63
6.79
5.20
3.72
2.17
0.47
-1.34
-3.14
-4.81
-6.28
-7.56
-8.68
-9.69
-10.59
-11.39
-12.10
-12.75
-13.39
-14.06
-14.79
-15.60
-16.46
-17.33
-18.11
-18.68
-18.87
-18.51
-17.49
-15.82
-13.63
-11.12
-8.54
-6.06
-3.77
-1.70
0.16
1.78
3.08
4.02
4.63
5.03
5.44
6.07
7.03
8.31
9.76
11.19
12.43
13.40
14.08
14.53
14.81
15.00
15.14
15.29
15.56
16.03
16.73
17.63
18.56
19.29
19.56
19.23
18.32
16.95
15.32
13.59
11.82
9.97
8.00
5.93
3.90
2.14
0.90
0.39
0.69
1.74
3.37
5.36
7.46
9.46
11.15
12.33
12.82
12.48
11.26
9.23
6.62
3.79
1.06
-1.27
-3.14
-4.60
-5.79
-6.79
-7.56
-7.94
-7.76
-6.97
-5.69
-4.20
-2.82
-1.78
-1.17
-0.94
-0.94
-1.01
-1.02
-0.89
-0.60
-0.19
0.22
0.55
0.72
0.76
0.77
0.84
1.00
1.13
1.03
0.52
-0.48
-1.85
-3.29
-4.49
-5.18
-5.18
-4.44
-3.00
-0.97
1.48
4.08
6.51
8.48
9.77
10.33
10.19
9.47
8.29
6.81
5.15
3.50
2.01
0.81
-0.07
-0.68
-1.12
-1.49
-1.88
-2.31
-2.75
-3.17
-3.53
-3.81
-4.04
-4.29
-4.62
-5.08
-5.67
-6.36
-7.15
-8.06
-9.11
-10.33
-11.73
-13.23
-14.72
-16.10
-17.29
-18.35
-19.41
-20.69
-22.34
-24.39
-26.66
-28.87
-30.70
-31.91
-32.46
-32.38
-31.81
-30.81
-29.42
-27.56
-25.15
-22.03
-18.00
-12.85
-6.46
1.07
9.35
17.74
25.44
31.78
36.34
39.05
40.10
39.79
38.48
36.49
34.19
31.97
30.23
29.25
29.10
29.51
30.03
30.12
29.43
27.87
25.67
23.19
20.83
18.87
17.40
16.35
15.54
14.70
13.56
11.86
9.43
6.24
2.43
-1.78
-6.02
-9.93
-13.19
-15.52
-16.79
-16.97
-16.19
-14.67
-12.71
-10.59
-8.50
-6.56
-4.71
-2.89
-0.98
1.03
3.06
4.96
6.54
7.69
8.44
8.92
9.30
9.75
10.33
11.01
11.66
12.16
12.37
12.19
11.55
10.38
8.61
6.23
3.31
0.07
-3.22
-6.26
-8.84
-10.93
-12.65
-14.19
-15.77
-17.51
-19.43
-21.52
-23.76
-26.14
-28.64
-31.14
-33.45
-35.39
-36.86
-37.97
-38.94
-39.99
-41.18
-42.31
-43.04
-42.98
-41.97
-40.04
-37.43
-34.34
-30.85
-26.86
-22.22
-16.90
-11.09
-5.19
0.37
5.32
9.59
13.30
16.62
19.61
22.20
24.22
25.55
26.18
26.27
26.06
25.76
25.47
25.22
24.97
24.68
24.37
24.05
23.69
23.22
22.60
21.85
21.03
20.24
19.52
18.75
17.68
16.07
13.81
11.04
8.13
5.54
3.70
2.83
2.93
3.80
5.11
6.48
7.49
7.75
6.95
4.98
2.01
-1.55
-5.12
-8.09
-10.04
-10.79
-10.43
-9.19
-7.37
-5.24
-3.08
-1.09
0.53
1.67
2.35
2.68
2.89
3.16
3.59
4.13
4.64
4.96
5.04
4.99
4.99
5.19
5.63
6.21
6.72
6.96
6.78
6.16
5.15
3.80
2.16
0.32
-1.56
-3.22
-4.40
-4.87
-4.57
-3.64
-2.33
-0.93
0.38
1.49
2.43
3.26
4.01
4.68
5.24
5.65
5.90
6.05
6.16
6.28
6.44
6.60
6.72
6.79
6.85
7.00
7.34
7.91
8.70
9.60
10.45
11.16
11.68
12.06
12.40
12.79
13.25
13.71
14.01
13.90
13.12
11.43
8.70
4.99
0.48
-4.50
-9.57
-14.29
-18.21
-20.91
-22.09
-21.67
-19.84
-17.06
-13.90
-10.91
-8.38
-6.37
-4.71
-3.16
-1.54
0.22
2.09
3.98
5.85
7.63
9.32
10.88
12.27
13.43
14.37
15.07
15.58
15.95
16.16
16.17
15.88
15.16
13.93
12.19
10.02
7.59
5.10
2.69
0.50
-1.40
-3.01
-4.34
-5.40
-6.23
-6.89
-7.45
-8.04
-8.75
-9.67
-10.80
-12.06
-13.32
-14.42
-15.16
-15.38
-14.99
-13.93
-12.22
-9.96
-7.29
-4.43
-1.61
0.93
2.98
4.41
5.26
5.66
5.88
6.20
6.82
7.83
9.12
10.41
11.34
11.58
10.99
9.73
8.28
7.27
7.28
8.60
11.00
13.82
16.08
16.82
15.41
11.74
6.25
-0.21
-6.65
-12.19
-16.29
-18.79
-19.83
-19.73
-18.89
-17.67
-16.37
-15.25
-14.48
-14.13
-14.17
-14.48
-14.83
-15.05
-15.01
-14.65
-14.01
-13.17
-12.26
-11.39
-10.66
-10.07
-9.54
-8.97
-8.24
-7.30
-6.21
-5.07
-3.98
-3.02
-2.21
-1.47
-0.74
0.05
0.91
1.79
2.60
3.19
3.44
3.27
2.70
1.85
0.87
-0.08
-0.91
-1.61
-2.24
-2.90
-3.65
-4.52
-5.53
-6.63
-7.81
-9.04
-10.30
-11.55
-12.69
-13.62
-14.24
-14.49
-14.38
-13.97
-13.30
-12.40
-11.30
-9.98
-8.46
-6.76
-4.91
-2.94
-0.89
1.20
3.23
5.08
6.63
7.77
8.43
8.63
8.43
7.93
7.24
6.42
5.57
4.77
4.17
3.88
3.99
4.45
5.11
5.72
6.07
6.06
5.73
5.19
4.60
4.04
3.53
3.08
2.72
2.52
2.58
3.00
3.84
5.11
6.76
8.73
10.92
13.23
15.55
17.75
19.68
21.18
22.11
22.41
22.13
21.38
20.23
18.65
16.52
13.77
10.52
7.20
4.38
2.57
1.92
2.15
2.63
2.77
2.23
1.07
-0.38
-1.82
-3.11
-4.34
-5.68
-7.18
-8.72
-10.01
-10.80
-11.01
-10.73
-10.15
-9.46
-8.70
-7.80
-6.67
-5.27
-3.71
-2.21
-1.04
-0.37
-0.24
-0.51
-0.93
-1.24
-1.26
-1.00
-0.58
-0.25
-0.22
-0.57
-1.24
-1.95
-2.34
-2.12
-1.15
0.47
2.43
4.34
5.82
6.67
6.91
6.79
6.76
7.41
9.30
12.73
17.45
22.67
27.16
29.64
29.26
25.91
20.26
13.44
6.63
0.56
-4.65
-9.37
-14.12
-19.29
-24.88
-30.53
-35.75
-40.07
-43.23
-45.21
-46.08
-45.97
-45.03
-43.44
-41.41
-39.23
-37.09
-35.07
-33.08
-30.92
-28.41
-25.46
-22.10
-18.51
-14.92
-11.57
-8.69
-6.44
-4.80
-3.59
-2.45
-1.05
0.84
3.20
5.74
8.05
9.71
10.47
10.36
9.63
8.70
7.96
7.65
7.83
8.29
8.75
8.90
8.56
7.74
6.61
5.49
4.69
4.45
4.85
5.81
7.12
8.53
9.81
10.83
11.57
12.12
12.60
13.10
13.65
14.15
14.33
13.89
12.55
10.30
7.42
4.49
2.18
0.92
0.74
1.27
1.95
2.33
2.20
1.60
0.69
-0.47
-1.97
-3.86
-6.07
-8.28
-9.99
-10.78
-10.49
-9.37
-7.91
-6.68
-6.09
-6.30
-7.17
-8.38
-9.54
-10.29
-10.44
-9.93
-8.92
-7.63
-6.29
-5.08
-4.09
-3.26
-2.48
-1.63
-0.60
0.65
2.12
3.70
5.23
6.48
7.22
7.33
6.85
5.97
5.01
4.27
3.98
4.18
4.74
5.44
6.03
6.36
6.38
6.14
5.74
5.27
4.82
4.50
4.44
4.74
5.40
6.22
6.92
7.21
6.97
6.33
5.62
5.17
5.17
5.56
6.13
6.62
6.90
6.97
6.89
6.77
6.60
6.38
6.07
5.66
5.15
4.57
3.99
3.48
3.13
2.92
2.82
2.74
2.58
2.33
2.03
1.76
1.54
1.32
1.01
0.50
-0.23
-1.09
-1.92
-2.61
-3.16
-3.71
-4.52
-5.81
-7.67
-9.98
-12.45
-14.65
-16.21
-16.89
-16.64
-15.61
-14.03
-12.15
-10.20
-8.33
-6.64
-5.18
-3.95
-2.87
-1.88
-0.97
-0.17
0.42
0.73
0.74
0.51
0.19
-0.05
-0.15
-0.15
-0.14
-0.23
-0.47
-0.83
-1.25
-1.67
-2.07
-2.47
-2.87
-3.26
-3.61
-3.90
-4.17
-4.45
-4.83
-5.34
-6.02
-6.84
-7.74
-8.63
-9.35
-9.77
-9.77
-9.30
-8.36
-6.87
-4.71
-1.74
2.08
6.51
10.96
14.63
16.77
16.99
15.39
12.55
9.24
6.18
3.83
2.36
1.76
1.94
2.77
4.10
5.67
7.19
8.36
8.95
8.92
8.36
7.47
6.41
5.27
4.06
2.75
1.30
-0.34
-2.15
-4.10
-6.08
-7.92
-9.37
-10.21
-10.24
-9.43
-7.86
-5.74
-3.33
-0.86
1.50
3.63
5.49
7.11
8.55
9.89
11.19
12.43
13.54
14.45
15.08
15.47
15.69
15.90
16.28
16.96
17.98
19.23
20.49
21.37
21.42
20.21
17.43
13.05
7.37
0.96
-5.47
-11.27
-16.00
-19.53
-21.90
-23.26
-23.70
-23.29
-22.12
-20.37
-18.39
-16.51
-14.93
-13.66
-12.52
-11.27
-9.76
-8.05
-6.31
-4.76
-3.54
-2.71
-2.18
-1.82
-1.50
-1.09
-0.56
0.11
0.85
1.58
2.24
2.81
3.39
4.09
5.03
6.19
7.39
8.35
8.71
8.23
6.81
4.60
1.85
-1.08
-3.86
-6.16
-7.74
-8.46
-8.27
-7.25
-5.61
-3.65
-1.67
0.09
1.47
2.42
2.98
3.24
3.28
3.22
3.18
3.31
3.73
4.52
5.64
6.97
8.32
9.53
10.54
11.44
12.43
13.69
15.33
17.30
19.37
21.20
22.37
22.53
21.46
19.19
16.00
12.40
8.91
5.97
3.76
2.19
1.01
-0.10
-1.28
-2.53
-3.68
-4.56
-5.10
-5.36
-5.49
-5.67
-5.99
-6.49
-7.12
-7.84
-8.58
-9.34
-10.06
-10.70
-11.18
-11.47
-11.57
-11.52
-11.40
-11.28
-11.17
-11.05
-10.85
-10.51
-9.98
-9.29
-8.51
-7.77
-7.23
-6.97
-7.01
-7.24
-7.45
-7.40
-6.79
-5.42
-3.22
-0.32
3.01
6.37
9.41
11.93
13.90
15.48
16.89
18.28
19.70
21.02
22.03
22.47
22.12
20.86
18.66
15.65
12.01
8.02
3.98
0.17
-3.20
-5.99
-8.21
-9.94
-11.29
-12.36
-13.18
-13.74
-14.05
-14.19
-14.31
-14.59
-15.07
-15.69
-16.23
-16.44
-16.11
-15.14
-13.51
-11.29
-8.63
-5.69
-2.69
0.16
2.66
4.70
6.28
7.50
8.52
9.47
10.41
11.34
12.20
12.98
13.70
14.43
15.25
16.17
17.12
18.00
18.75
19.40
20.03
20.70
21.41
22.12
22.87
23.84
25.27
27.27
29.63
31.73
32.70
31.75
28.53
23.21
16.45
9.09
1.90
-4.60
-10.12
-14.54
-17.84
-20.05
-21.22
-21.49
-21.03
-20.07
-18.87
-17.67
-16.64
-15.83
-15.23
-14.79
-14.56
-14.67
-15.23
-16.23
-17.46
-18.57
-19.20
-19.18
-18.59
-17.78
-17.17
-17.07
-17.56
-18.50
-19.56
-20.33
-20.46
-19.72
-18.11
-15.83
-13.23
-10.68
-8.49
-6.75
-5.46
-4.49
-3.77
-3.26
-3.02
-3.08
-3.44
-4.03
-4.73
-5.46
-6.21
-7.04
-7.98
-9.00
-9.96
-10.62
-10.76
-10.24
-9.07
-7.39
-5.43
-3.37
-1.32
0.70
2.70
4.66
6.50
8.13
9.47
10.51
11.33
12.07
12.87
13.82
14.88
15.89
16.52
16.36
15.09
12.55
8.90
4.59
0.14
-3.97
-7.51
-10.45
-12.87
-14.78
-16.06
-16.55
-16.20
-15.11
-13.64
-12.18
-11.07
-10.45
-10.22
-10.16
-10.00
-9.52
-8.61
-7.24
-5.46
-3.41
-1.26
0.83
2.71
4.32
5.68
6.88
8.02
9.18
10.36
11.47
12.36
12.95
13.23
13.35
13.48
13.78
14.27
14.86
15.39
15.70
15.74
15.54
15.20
14.81
14.46
14.21
14.08
14.08
14.19
14.34
14.39
14.23
13.83
13.29
12.82
12.68
13.02
13.81
14.77
15.48
15.51
14.56
12.60
9.83
6.59
3.23
0.03
-2.81
-5.20
-7.03
-8.27
-8.95
-9.19
-9.22
-9.27
-9.50
-9.92
-10.39
-10.69
-10.65
-10.23
-9.54
-8.76
-8.04
-7.44
-6.92
-6.39
-5.78
-5.15
-4.62
-4.33
-4.35
-4.61
-4.98
-5.30
-5.50
-5.65
-5.92
-6.50
-7.51
-8.97
-10.77
-12.75
-14.73
-16.53
-17.98
-18.91
-19.16
-18.63
-17.34
-15.41
-13.10
-10.64
-8.26
-6.10
-4.20
-2.53
-1.06
0.22
1.32
2.27
3.12
3.92
4.70
5.42
5.95
6.20
6.13
5.81
5.45
5.21
5.19
5.35
5.58
5.75
5.80
5.74
5.62
5.48
5.30
5.04
4.65
4.13
3.51
2.82
2.08
1.29
0.40
-0.60
-1.75
-3.04
-4.41
-5.78
-7.00
-7.95
-8.52
-8.64
-8.34
-7.66
-6.70
-5.55
-4.25
-2.84
-1.32
0.29
1.93
3.48
4.81
5.80
6.39
6.63
6.59
6.40
6.15
5.94
5.82
5.84
6.03
6.38
6.82
7.22
7.49
7.52
7.29
6.85
6.27
5.63
4.99
4.40
3.86
3.34
2.78
2.13
1.39
0.60
-0.19
-0.98
-1.86
-2.95
-4.31
-5.85
-7.33
-8.38
-8.77
-8.42
-7.54
-6.43
-5.36
-4.43
-3.58
-2.64
-1.52
-0.28
0.94
1.95
2.66
3.12
3.43
3.76
4.15
4.65
5.17
5.64
6.01
6.21
6.23
6.04
5.62
4.97
4.10
3.05
1.92
0.84
-0.08
-0.76
-1.20
-1.51
-1.87
-2.46
-3.42
-4.78
-6.46
-8.24
-9.89
-11.16
-11.89
-12.02
-11.58
-10.65
-9.33
-7.69
-5.79
-3.74
-1.66
0.26
1.82
2.95
3.62
3.95
4.10
4.18
4.25
4.32
4.40
4.49
4.65
4.86
5.09
5.25
5.21
4.90
4.30
3.51
2.64
1.80
1.00
0.18
-0.73
-1.81
-3.11
-4.61
-6.25
-7.93
-9.54
-10.94
-12.01
-12.56
-12.47
-11.63
-10.11
-8.07
-5.71
-3.25
-0.86
1.38
3.41
5.18
6.64
7.74
8.43
8.73
8.72
8.50
8.25
8.09
8.10
8.27
8.51
8.66
8.60
8.23
7.59
6.76
5.87
4.98
4.09
3.16
2.11
0.93
-0.32
-1.58
-2.77
-3.92
-5.14
-6.53
-8.14
-9.85
-11.38
-12.42
-12.69
-12.04
-10.54
-8.38
-5.81
-3.07
-0.39
2.11
4.31
6.11
7.43
8.23
8.53
8.44
8.13
7.79
7.59
7.60
7.80
8.04
8.16
8.03
7.60
6.93
6.14
5.35
4.63
3.98
3.31
2.52
1.56
0.45
-0.71
-1.82
-2.77
-3.57
-4.25
-4.94
-5.80
-6.94
-8.39
-10.08
-11.79
-13.20
-13.99
-13.89
-12.81
-10.87
-8.35
-5.58
-2.88
-0.44
1.64
3.36
4.69
5.65
6.24
6.53
6.61
6.58
6.50
6.37
6.16
5.84
5.43
5.03
4.77
4.69
4.74
4.81
4.74
4.47
4.06
3.63
3.28
2.99
2.61
1.96
0.92
-0.44
-1.90
-3.15
-4.02
-4.53
-4.90
-5.49
-6.58
-8.24
-10.31
-12.50
-14.45
-15.89
-16.60
-16.49
-15.49
-13.66
-11.15
-8.22
-5.23
-2.54
-0.38
1.16
2.17
2.83
3.35
3.85
4.38
4.90
5.34
5.61
5.70
5.64
5.50
5.39
5.32
5.25
5.09
4.75
4.21
3.53
2.82
2.16
1.58
1.06
0.51
-0.10
-0.77
-1.44
-2.10
-2.76
-3.53
-4.52
-5.82
-7.42
-9.18
-10.83
-12.10
-12.73
-12.56
-11.60
-9.95
-7.84
-5.52
-3.19
-1.04
0.84
2.41
3.65
4.57
5.16
5.50
5.66
5.76
5.88
6.05
6.23
6.30
6.20
5.93
5.62
5.41
5.41
5.59
5.79
5.78
5.43
4.74
3.84
2.92
2.09
1.37
0.70
0.03
-0.65
-1.30
-1.87
-2.39
-2.93
-3.61
-4.46
-5.44
-6.42
-7.22
-7.73
-7.88
-7.65
-7.06
-6.12
-4.85
-3.36
-1.78
-0.26
1.08
2.22
3.19
4.04
4.78
5.40
5.86
6.15
6.33
6.47
6.63
6.78
6.87
6.80
6.54
6.11
5.62
5.17
4.78
4.41
3.91
3.18
2.20
1.10
0.08
-0.67
-1.10
-1.33
-1.60
-2.18
-3.19
-4.57
-6.18
-7.84
-9.43
-10.92
-12.29
-13.43
-14.19
-14.34
-13.71
-12.26
-10.13
-7.56
-4.89
-2.38
-0.19
1.64
3.15
4.41
5.48
6.39
7.13
7.71
8.14
8.50
8.84
9.20
9.58
9.94
10.25
10.48
10.64
10.76
10.83
10.86
10.77
10.54
10.10
9.49
8.75
7.95
7.15
6.37
5.59
4.76
3.81
2.69
1.41
0.02
-1.40
-2.77
-4.05
-5.25
-6.41
-7.61
-8.87
-10.16
-11.38
-12.38
-12.97
-12.98
-12.35
-11.10
-9.39
-7.39
-5.29
-3.19
-1.14
0.81
2.57
3.99
4.96
5.44
5.54
5.47
5.44
5.57
5.88
6.31
6.77
7.19
7.53
7.75
7.84
7.79
7.66
7.54
7.49
7.52
7.55
7.44
7.08
6.45
5.61
4.67
3.72
2.81
1.91
1.03
0.18
-0.62
-1.37
-2.06
-2.75
-3.45
-4.20
-5.02
-5.94
-7.01
-8.27
-9.75
-11.37
-12.93
-14.14
-14.66
-14.32
-13.06
-11.06
-8.64
-6.14
-3.84
-1.91
-0.40
0.70
1.42
1.79
1.88
1.82
1.77
1.90
2.33
3.07
4.01
4.97
5.78
6.33
6.64
6.78
6.85
6.93
7.02
7.05
6.96
6.73
6.37
5.93
5.43
4.86
4.17
3.38
2.54
1.80
1.26
0.96
0.81
0.61
0.15
-0.69
-1.88
-3.23
-4.45
-5.27
-5.53
-5.19
-4.37
-3.26
-2.06
-0.94
0.02
0.80
1.44
1.99
2.46
2.83
3.06
3.11
3.01
2.80
2.58
2.42
2.39
2.50
2.73
3.05
3.44
3.85
4.26
4.55
4.65
4.47
4.03
3.40
2.71
2.02
1.29
0.43
-0.69
-2.08
-3.67
-5.30
-6.79
-8.07
-9.19
-10.20
-11.17
-12.08
-12.82
-13.23
-13.22
-12.82
-12.10
-11.22
-10.27
-9.30
-8.28
-7.16
-5.94
-4.65
-3.41
-2.34
-1.55
-1.07
-0.85
-0.81
-0.80
-0.72
-0.44
0.08
0.86
1.80
2.76
3.60
4.14
4.32
4.15
3.72
3.16
2.59
2.03
1.48
0.88
0.18
-0.66
-1.64
-2.75
-3.98
-5.29
-6.61
-7.84
-8.86
-9.56
-9.91
-9.91
-9.64
-9.19
-8.60
-7.91
-7.10
-6.13
-5.02
-3.77
-2.42
-1.05
0.30
1.53
2.59
3.45
4.15
4.73
5.27
5.84
6.43
6.97
7.40
7.66
7.77
7.77
7.73
7.68
7.61
7.52
7.38
7.19
6.92
6.51
5.92
5.12
4.14
3.07
1.98
0.90
-0.16
-1.23
-2.30
-3.36
-4.34
-5.17
-5.75
-6.00
-5.88
-5.33
-4.39
-3.11
-1.60
0.00
1.55
2.94
4.06
4.84
5.23
5.22
4.88
4.35
3.81
3.41
3.21
3.19
3.27
3.34
3.34
3.34
3.43
3.75
4.32
5.06
5.81
6.36
6.59
6.45
6.02
5.43
4.80
4.21
3.69
3.25
2.90
2.65
2.46
2.23
1.81
1.09
-0.02
-1.45
-3.06
-4.63
-6.00
-7.10
-7.97
-8.71
-9.37
-9.93
-10.25
-10.21
-9.73
-8.85
-7.74
-6.55
-5.37
-4.20
-2.99
-1.72
-0.48
0.58
1.30
1.69
1.85
2.03
2.39
3.01
3.80
4.60
5.24
5.63
5.78
5.78
5.74
5.75
5.81
5.91
5.96
5.91
5.72
5.38
4.93
4.38
3.73
3.00
2.16
1.25
0.35
-0.48
-1.19
-1.78
-2.34
-2.96
-3.72
-4.69
-5.82
-7.05
-8.24
-9.20
-9.79
-9.88
-9.43
-8.49
-7.19
-5.69
-4.16
-2.72
-1.44
-0.37
0.47
1.10
1.53
1.81
2.02
2.20
2.36
2.44
2.38
2.18
1.90
1.69
1.67
1.90
2.32
2.79
3.16
3.34
3.33
3.19
2.98
2.70
2.35
1.89
1.30
0.65
-0.02
-0.61
-1.10
-1.49
-1.90
-2.44
-3.22
-4.26
-5.45
-6.59
-7.48
-7.96
-8.03
-7.70
-7.06
-6.15
-4.97
-3.56
-2.01
-0.48
0.84
1.78
2.30
2.44
2.32
2.12
1.99
2.00
2.15
2.39
2.60
2.70
2.66
2.50
2.30
2.13
2.03
2.00
2.00
2.00
1.98
1.92
1.80
1.56
1.18
0.67
0.11
-0.43
-0.86
-1.17
-1.43
-1.79
-2.40
-3.33
-4.53
-5.81
-6.92
-7.59
-7.69
-7.25
-6.39
-5.32
-4.19
-3.09
-2.04
-1.03
-0.06
0.84
1.66
2.40
3.06
3.63
4.06
4.30
4.31
4.10
3.74
3.34
2.97
2.69
2.48
2.30
2.13
1.97
1.84
1.77
1.74
1.71
1.61
1.40
1.12
0.87
0.73
0.76
0.92
1.13
1.27
1.31
1.30
1.27
1.26
1.18
0.89
0.26
-0.70
-1.84
-2.88
-3.58
-3.78
-3.52
-2.97
-2.32
-1.71
-1.15
-0.57
0.10
0.87
1.69
2.42
2.96
3.23
3.25
3.06
2.74
2.38
2.07
1.86
1.83
2.00
2.34
2.78
3.18
3.41
3.38
3.10
2.63
2.12
1.65
1.29
1.05
0.86
0.65
0.38
0.03
-0.38
-0.80
-1.20
-1.59
-2.00
-2.47
-3.05
-3.76
-4.61
-5.61
-6.69
-7.76
-8.66
-9.20
-9.25
-8.72
-7.68
-6.31
-4.82
-3.42
-2.24
-1.33
-0.66
-0.16
0.23
0.57
0.89
1.18
1.40
1.50
1.47
1.34
1.22
1.20
1.34
1.64
2.00
2.35
2.59
2.71
2.70
2.57
2.32
1.95
1.49
1.00
0.52
0.10
-0.23
-0.48
-0.70
-0.99
-1.41
-2.01
-2.79
-3.65
-4.49
-5.22
-5.82
-6.34
-6.91
-7.66
-8.62
-9.68
-10.63
-11.24
-11.35
-10.89
-9.96
-8.68
-7.23
-5.76
-4.38
-3.14
-2.07
-1.14
-0.34
0.40
1.12
1.85
2.54
3.11
3.51
3.71
3.77
3.80
3.91
4.12
4.42
4.69
4.82
4.73
4.43
3.97
3.48
3.05
2.76
2.61
2.59
2.63
2.66
2.59
2.39
2.05
1.59
1.09
0.54
-0.05
-0.70
-1.45
-2.23
-2.94
-3.46
-3.73
-3.75
-3.57
-3.28
-2.89
-2.33
-1.52
-0.43
0.91
2.36
3.79
5.03
6.03
6.79
7.34
7.75
8.05
8.30
8.49
8.63
8.69
8.64
8.44
8.08
7.58
6.97
6.30
5.61
4.91
4.19
3.43
2.59
1.59
0.35
-1.24
-3.23
-5.59
-8.14
-10.60
-12.68
-14.18
-15.14
-15.79
-16.38
-17.08
-17.81
-18.29
-18.21
-17.38
-15.83
-13.83
-11.68
-9.68
-7.99
-6.64
-5.57
-4.69
-3.88
-3.10
-2.34
-1.65
-1.10
-0.74
-0.54
-0.42
-0.29
-0.09
0.15
0.31
0.30
0.10
-0.19
-0.42
-0.50
-0.43
-0.27
-0.19
-0.27
-0.56
-0.97
-1.40
-1.76
-2.02
-2.23
-2.46
-2.78
-3.25
-3.89
-4.69
-5.63
-6.66
-7.72
-8.75
-9.67
-10.38
-10.77
-10.71
-10.11
-9.00
-7.55
-6.01
-4.66
-3.68
-3.07
-2.72
-2.43
-2.07
-1.58
-0.99
-0.34
0.35
1.08
1.87
2.66
3.39
3.98
4.38
4.63
4.80
4.98
5.16
5.32
5.36
5.24
4.96
4.58
4.20
3.87
3.58
3.28
2.87
2.28
1.49
0.53
-0.54
-1.62
-2.65
-3.51
-4.14
-4.48
-4.51
-4.23
-3.66
-2.83
-1.80
-0.67
0.40
1.27
1.81
1.99
1.91
1.75
1.71
1.86
2.17
2.48
2.64
2.58
2.35
2.11
1.98
2.03
2.21
2.42
2.57
2.60
2.50
2.28
1.96
1.55
1.05
0.47
-0.18
-0.88
-1.62
-2.40
-3.18
-3.92
-4.55
-4.99
-5.20
-5.10
-4.65
-3.82
-2.60
-1.07
0.64
2.34
3.82
4.95
5.66
6.02
6.14
6.21
6.33
6.57
6.90
7.22
7.46
7.54
7.48
7.31
7.07
6.78
6.45
6.05
5.61
5.18
4.80
4.52
4.32
4.15
3.93
3.59
3.06
2.26
1.18
-0.18
-1.72
-3.29
-4.68
-5.71
-6.27
-6.33
-5.94
-5.22
-4.26
-3.13
-1.95
-0.76
0.34
1.30
2.08
2.68
3.12
3.44
3.66
3.82
3.94
4.02
4.08
4.11
4.13
4.12
4.03
3.85
3.59
3.25
2.90
2.56
2.23
1.84
1.32
0.65
-0.14
-0.95
-1.71
-2.39
-3.03
-3.72
-4.48
-5.26
-5.87
-6.11
-5.85
-5.12
-4.08
-2.99
-2.04
-1.31
-0.78
-0.32
0.22
0.89
1.67
2.46
3.14
3.59
3.81
3.86
3.86
3.93
4.12
4.39
4.59
4.58
4.28
3.77
3.20
2.75
2.48
2.35
2.25
2.06
1.78
1.46
1.18
0.93
0.61
0.08
-0.76
-1.91
-3.17
-4.29
-4.99
-5.15
-4.77
-4.01
-3.04
-2.03
-1.04
-0.07
0.86
1.70
2.37
2.73
2.73
2.44
2.05
1.80
1.87
2.27
2.85
3.35
3.55
3.38
2.93
2.41
2.03
1.85
1.80
1.75
1.60
1.33
1.03
0.74
0.40
-0.11
-0.93
-2.10
-3.54
-5.06
-6.43
-7.45
-8.02
-8.03
-7.44
-6.23
-4.51
-2.46
-0.35
1.55
3.04
4.06
4.63
4.83
4.75
4.53
4.30
4.21
4.35
4.74
5.28
5.83
6.22
6.41
6.40
6.30
6.18
6.08
5.98
5.78
5.44
4.95
4.35
3.73
3.16
2.66
2.15
1.53
0.64
-0.56
-2.05
-3.69
-5.27
-6.54
-7.30
-7.45
-6.99
-6.03
-4.75
-3.33
-1.94
-0.68
0.37
1.19
1.79
2.18
2.40
2.48
2.49
2.46
2.43
2.41
2.39
2.36
2.34
2.36
2.44
2.63
2.88
3.15
3.40
3.55
3.58
3.45
3.17
2.72
2.10
1.30
0.36
-0.64
-1.66
-2.66
-3.66
-4.71
-5.86
-7.08
-8.26
-9.19
-9.65
-9.47
-8.66
-7.33
-5.74
-4.18
-2.86
-1.87
-1.14
-0.55
0.06
0.78
1.58
2.37
3.05
3.55
3.84
3.96
3.94
3.83
3.67
3.49
3.34
3.24
3.21
3.24
3.32
3.44
3.53
3.53
3.35
2.94
2.32
1.58
0.86
0.27
-0.19
-0.56
-0.93
-1.36
-1.85
-2.42
-3.12
-4.07
-5.37
-7.05
-8.97
-10.79
-12.13
-12.65
-12.17
-10.79
-8.81
-6.65
-4.67
-3.10
-1.94
-1.04
-0.26
0.49
1.15
1.56
1.63
1.38
1.00
0.73
0.78
1.19
1.85
2.54
3.07
3.37
3.51
3.67
4.00
4.54
5.22
5.91
6.44
6.71
6.74
6.58
6.36
6.12
5.90
5.62
5.23
4.64
3.84
2.90
1.90
0.97
0.12
-0.67
-1.53
-2.56
-3.78
-5.08
-6.24
-7.01
-7.20
-6.74
-5.73
-4.35
-2.77
-1.11
0.57
2.21
3.71
4.90
5.62
5.79
5.51
5.03
4.65
4.62
5.00
5.66
6.33
6.78
6.90
6.76
6.57
6.52
6.68
6.95
7.13
7.05
6.68
6.12
5.55
5.08
4.69
4.20
3.45
2.36
1.05
-0.29
-1.45
-2.37
-3.09
-3.76
-4.49
-5.36
-6.33
-7.37
-8.40
-9.41
-10.34
-11.12
-11.62
-11.71
-11.25
-10.18
-8.53
-6.49
-4.28
-2.19
-0.43
0.87
1.70
2.11
2.23
2.19
2.07
1.94
1.81
1.71
1.70
1.81
2.09
2.50
2.97
3.37
3.60
3.59
3.35
2.95
2.49
2.05
1.67
1.38
1.16
0.96
0.76
0.52
0.26
-0.01
-0.26
-0.49
-0.73
-1.08
-1.63
-2.45
-3.52
-4.75
-5.98
-7.05
-7.79
-8.06
-7.80
-7.01
-5.79
-4.29
-2.70
-1.18
0.18
1.33
2.28
3.02
3.55
3.82
3.76
3.36
2.66
1.76
0.85
0.12
-0.30
-0.35
-0.12
0.25
0.60
0.87
1.06
1.24
1.42
1.55
1.50
1.17
0.53
-0.29
-1.09
-1.70
-2.06
-2.26
-2.49
-2.96
-3.76
-4.86
-6.07
-7.14
-7.84
-8.03
-7.66
-6.80
-5.58
-4.19
-2.78
-1.47
-0.29
0.77
1.75
2.65
3.39
3.88
4.05
3.91
3.56
3.12
2.72
2.39
2.14
1.91
1.71
1.56
1.48
1.50
1.57
1.62
1.55
1.31
0.92
0.42
-0.13
-0.67
-1.21
-1.82
-2.57
-3.54
-4.74
-6.11
-7.47
-8.56
-9.17
-9.14
-8.47
-7.34
-5.99
-4.68
-3.60
-2.80
-2.25
-1.83
-1.47
-1.14
-0.84
-0.60
-0.46
-0.39
-0.40
-0.44
-0.50
-0.57
-0.65
-0.71
-0.72
-0.64
-0.46
-0.20
0.05
0.16
0.01
-0.46
-1.24
-2.23
-3.28
-4.27
-5.13
-5.88
-6.60
-7.41
-8.35
-9.41
-10.52
-11.52
-12.27
-12.61
-12.44
-11.74
-10.56
-9.07
-7.46
-5.93
-4.58
-3.42
-2.36
-1.31
-0.24
0.79
1.71
2.46
3.03
3.47
3.80
4.01
4.08
4.02
3.92
3.90
4.02
4.28
4.51
4.49
4.09
3.26
2.13
0.88
-0.32
-1.35
-2.15
-2.77
-3.28
-3.79
-4.43
-5.33
-6.55
-8.06
-9.66
-11.06
-11.92
-11.99
-11.18
-9.61
-7.53
-5.25
-3.06
-1.14
0.47
1.79
2.89
3.83
4.68
5.48
6.28
7.10
7.91
8.65
9.25
9.69
9.98
10.20
10.41
10.64
10.87
11.07
11.17
11.12
10.88
10.43
9.75
8.83
7.73
6.54
5.40
4.38
3.53
2.77
2.00
1.11
0.05
-1.15
-2.42
-3.70
-4.96
-6.25
-7.59
-8.98
-10.31
-11.35
-11.87
-11.73
-10.89
-9.49
-7.70
-5.76
-3.84
-2.07
-0.56
0.65
1.55
2.18
2.65
3.10
3.60
4.23
4.98
5.78
6.56
7.23
7.73
8.02
8.09
7.98
7.75
7.51
7.33
7.26
7.24
7.17
6.93
6.44
5.68
4.77
3.84
3.04
2.43
2.00
1.67
1.34
0.96
0.44
-0.27
-1.23
-2.50
-4.06
-5.78
-7.45
-8.78
-9.53
-9.59
-8.96
-7.81
-6.35
-4.80
-3.30
-1.95
-0.72
0.44
1.60
2.77
3.91
4.93
5.76
6.38
6.82
7.15
7.42
7.67
7.88
8.02
8.06
7.99
7.75
7.31
6.65
5.78
4.81
3.88
3.11
2.52
2.06
1.57
0.96
0.19
-0.67
-1.54
-2.33
-3.03
-3.64
-4.22
-4.83
-5.57
-6.51
-7.73
-9.22
-10.83
-12.27
-13.26
-13.54
-13.08
-11.99
-10.45
-8.68
-6.77
-4.80
-2.80
-0.82
1.04
2.70
4.09
5.24
6.16
6.95
7.67
8.37
9.08
9.79
10.47
11.09
11.64
12.09
12.43
12.61
12.58
12.32
11.84
11.20
10.52
9.88
9.34
8.91
8.55
8.20
7.81
7.31
6.67
5.85
4.85
3.70
2.49
1.29
0.19
-0.76
-1.57
-2.32
-3.09
-4.03
-5.23
-6.76
-8.57
-10.56
-12.54
-14.29
-15.63
-16.39
-16.49
-15.88
-14.59
-12.70
-10.36
-7.75
-5.09
-2.56
-0.34
1.47
2.84
3.82
4.49
4.98
5.42
5.94
6.61
7.43
8.34
9.26
10.06
10.68
11.07
11.26
11.30
11.20
11.02
10.75
10.42
10.03
9.62
9.23
8.87
8.57
8.26
7.89
7.42
6.84
6.18
5.50
4.87
4.32
3.83
3.37
2.89
2.36
1.72
0.96
0.06
-0.95
-2.00
-3.02
-3.97
-4.86
-5.78
-6.85
-8.16
-9.68
-11.24
-12.53
-13.25
-13.19
-12.33
-10.80
-8.87
-6.84
-4.92
-3.27
-1.93
-0.89
-0.09
0.53
1.06
1.56
2.08
2.63
3.21
3.78
4.32
4.81
5.21
5.50
5.68
5.82
6.03
6.41
6.98
7.67
8.33
8.74
8.79
8.43
7.77
6.96
6.14
5.38
4.71
4.08
3.50
2.99
2.57
2.24
1.92
1.51
0.95
0.25
-0.52
-1.26
-1.91
-2.46
-3.00
-3.59
-4.31
-5.17
-6.12
-7.08
-7.90
-8.42
-8.53
-8.14
-7.26
-5.99
-4.49
-2.93
-1.45
-0.17
0.87
1.64
2.18
2.55
2.83
3.10
3.37
3.62
3.84
4.02
4.18
4.36
4.60
4.87
5.09
5.22
5.26
5.27
5.35
5.50
5.67
5.74
5.56
5.08
4.33
3.40
2.44
1.54
0.77
0.15
-0.30
-0.61
-0.82
-1.05
-1.42
-2.03
-2.94
-4.09
-5.37
-6.66
-7.86
-8.94
-9.86
-10.56
-10.91
-10.75
-9.98
-8.64
-6.91
-5.10
-3.51
-2.30
-1.44
-0.75
-0.07
0.71
1.58
2.40
3.03
3.39
3.50
3.44
3.32
3.26
3.27
3.36
3.48
3.64
3.83
4.11
4.45
4.82
5.08
5.14
4.94
4.54
4.06
3.62
3.28
2.99
2.63
2.07
1.26
0.25
-0.83
-1.85
-2.71
-3.41
-4.03
-4.68
-5.45
-6.35
-7.36
-8.40
-9.41
-10.32
-11.01
-11.36
-11.21
-10.47
-9.18
-7.52
-5.75
-4.10
-2.68
-1.47
-0.40
0.58
1.44
2.12
2.55
2.76
2.84
2.93
3.14
3.49
3.94
4.40
4.80
5.11
5.29
5.35
5.27
5.08
4.79
4.49
4.27
4.24
4.43
4.81
5.20
5.41
5.26
4.74
3.93
3.07
2.34
1.81
1.41
0.95
0.28
-0.62
-1.64
-2.59
-3.31
-3.81
-4.24
-4.83
-5.72
-6.93
-8.26
-9.47
-10.31
-10.67
-10.52
-9.95
-9.02
-7.79
-6.30
-4.60
-2.86
-1.27
-0.00
0.85
1.35
1.67
1.95
2.27
2.64
2.98
3.22
3.36
3.49
3.68
3.96
4.32
4.67
4.94
5.12
5.27
5.45
5.67
5.83
5.80
5.49
4.87
4.06
3.22
2.52
2.08
1.87
1.78
1.62
1.24
0.55
-0.46
-1.69
-2.96
-4.14
-5.17
-6.11
-7.06
-8.11
-9.17
-10.01
-10.33
-9.93
-8.81
-7.16
-5.29
-3.48
-1.89
-0.56
0.54
1.47
2.21
2.74
3.02
3.10
3.06
3.01
3.05
3.23
3.54
3.92
4.28
4.55
4.71
4.76
4.73
4.65
4.52
4.31
4.02
3.64
3.20
2.73
2.25
1.78
1.27
0.73
0.13
-0.53
-1.24
-2.03
-2.92
-3.91
-5.01
-6.19
-7.48
-8.89
-10.41
-12.00
-13.49
-14.61
-15.08
-14.70
-13.43
-11.48
-9.25
-7.17
-5.54
-4.43
-3.71
-3.14
-2.51
-1.75
-0.90
-0.12
0.50
0.95
1.28
1.57
1.90
2.30
2.74
3.16
3.54
3.84
4.09
4.27
4.38
4.40
4.29
4.06
3.73
3.40
3.15
3.04
3.06
3.10
3.02
2.72
2.18
1.46
0.69
-0.01
-0.57
-1.02
-1.46
-1.99
-2.73
-3.71
-4.92
-6.28
-7.69
-8.98
-9.96
-10.46
-10.37
-9.69
-8.52
-7.02
-5.39
-3.78
-2.27
-0.88
0.37
1.47
2.39
3.07
3.49
3.64
3.55
3.34
3.11
2.98
3.00
3.18
3.51
3.92
4.34
4.71
4.97
5.08
5.03
4.84
4.58
4.31
4.08
3.91
3.78
3.66
3.52
3.29
2.90
2.29
1.44
0.42
-0.60
-1.47
-2.06
-2.41
-2.64
-2.96
-3.58
-4.60
-6.00
-7.64
-9.24
-10.49
-11.10
-10.91
-9.92
-8.31
-6.37
-4.41
-2.64
-1.17
-0.01
0.90
1.62
2.20
2.68
3.10
3.46
3.74
3.92
3.99
3.98
3.95
3.97
4.06
4.19
4.32
4.38
4.35
4.23
4.05
3.82
3.56
3.27
2.95
2.59
2.17
1.67
1.09
0.46
-0.14
-0.63
-0.99
-1.30
-1.67
-2.26
-3.15
-4.32
-5.65
-6.97
-8.10
-8.87
-9.15
-8.84
-7.92
-6.44
-4.56
-2.50
-0.53
1.16
2.47
3.40
4.04
4.49
4.82
5.03
5.09
5.00
4.81
4.59
4.43
4.38
4.41
4.47
4.51
4.54
4.57
4.62
4.66
4.67
4.60
4.44
4.20
3.90
3.53
3.09
2.55
1.92
1.21
0.46
-0.33
-1.14
-1.95
-2.75
-3.54
-4.34
-5.23
-6.30
-7.60
-9.08
-10.54
-11.69
-12.27
-12.11
-11.25
-9.85
-8.18
-6.44
-4.79
-3.25
-1.84
-0.56
0.55
1.49
2.27
2.95
3.56
4.10
4.52
4.79
4.88
4.88
4.89
4.98
5.16
5.37
5.56
5.72
5.88
6.10
6.35
6.53
6.47
6.09
5.44
4.69
4.06
3.73
3.67
3.71
3.60
3.15
2.32
1.21
0.03
-1.03
-1.91
-2.66
-3.41
-4.31
-5.40
-6.66
-7.98
-9.23
-10.24
-10.86
-10.97
-10.49
-9.42
-7.91
-6.20
-4.54
-3.13
-2.02
-1.14
-0.33
0.49
1.31
2.07
2.69
3.16
3.54
3.89
4.26
4.57
4.79
4.91
5.01
5.20
5.56
6.06
6.55
6.83
6.82
6.57
6.23
5.96
5.82
5.76
5.64
5.33
4.84
4.29
3.84
3.56
3.45
3.38
3.17
2.69
1.87
0.78
-0.48
-1.73
-2.86
-3.78
-4.51
-5.14
-5.79
-6.57
-7.53
-8.65
-9.82
-10.92
-11.73
-12.07
-11.78
-10.81
-9.22
-7.23
-5.12
-3.14
-1.50
-0.24
0.65
1.27
1.68
1.96
2.19
2.45
2.80
3.26
3.75
4.15
4.34
4.28
4.03
3.74
3.53
3.48
3.58
3.78
3.97
4.12
4.19
4.23
4.23
4.19
4.06
3.79
3.35
2.76
2.09
1.46
0.94
0.56
0.29
0.09
-0.10
-0.35
-0.71
-1.24
-2.02
-3.11
-4.50
-6.05
-7.52
-8.62
-9.08
-8.80
-7.82
-6.37
-4.73
-3.17
-1.83
-0.72
0.20
1.00
1.67
2.17
2.48
2.59
2.60
2.61
2.74
3.03
3.44
3.88
4.25
4.49
4.66
4.81
4.99
5.19
5.32
5.32
5.12
4.77
4.38
4.05
3.82
3.66
3.46
3.08
2.46
1.59
0.54
-0.59
-1.68
-2.66
-3.53
-4.37
-5.28
-6.34
-7.56
-8.90
-10.26
-11.50
-12.44
-12.90
-12.74
-11.87
-10.36
-8.43
-6.40
-4.58
-3.19
-2.24
-1.58
-1.01
-0.35
0.48
1.40
2.29
3.00
3.46
3.69
3.77
3.80
3.86
3.99
4.18
4.44
4.79
5.23
5.72
6.15
6.40
6.37
6.06
5.57
5.05
4.62
4.27
3.92
3.42
2.68
1.72
0.64
-0.40
-1.32
-2.10
-2.80
-3.49
-4.25
-5.13
-6.15
-7.37
-8.75
-10.20
-11.54
-12.51
-12.86
-12.45
-11.28
-9.52
-7.40
-5.20
-3.17
-1.48
-0.24
0.55
0.96
1.18
1.43
1.87
2.57
3.42
4.25
4.88
5.20
5.23
5.13
5.04
5.09
5.29
5.54
5.67
5.58
5.25
4.79
4.35
4.03
3.87
3.76
3.59
3.26
2.73
2.10
1.47
0.93
0.50
0.09
-0.38
-0.99
-1.70
-2.45
-3.21
-4.02
-5.02
-6.35
-8.07
-10.01
-11.83
-13.10
-13.50
-12.94
-11.60
-9.83
-7.98
-6.29
-4.77
-3.35
-1.92
-0.50
0.79
1.79
2.39
2.64
2.70
2.75
2.90
3.16
3.45
3.67
3.80
3.91
4.08
4.38
4.78
5.18
5.47
5.58
5.52
5.37
5.21
5.09
4.94
4.65
4.10
3.27
2.21
1.06
-0.01
-0.92
-1.70
-2.49
-3.44
-4.68
-6.20
-7.84
-9.31
-10.32
-10.67
-10.30
-9.36
-8.07
-6.69
-5.33
-4.00
-2.62
-1.12
0.46
1.94
3.14
3.90
4.23
4.23
4.02
3.74
3.45
3.17
2.97
2.92
3.10
3.52
4.09
4.68
5.18
5.53
5.73
5.82
5.84
5.76
5.54
5.12
4.52
3.77
2.94
2.09
1.24
0.38
-0.52
-1.53
-2.70
-4.09
-5.68
-7.38
-8.96
-10.18
-10.77
-10.60
-9.68
-8.21
-6.43
-4.59
-2.83
-1.19
0.33
1.72
2.96
3.97
4.72
5.26
5.70
6.16
6.70
7.30
7.83
8.15
8.15
7.83
7.29
6.72
6.29
6.11
6.14
6.27
6.34
6.25
5.96
5.53
5.01
4.46
3.87
3.22
2.48
1.67
0.83
0.00
-0.85
-1.80
-2.97
-4.39
-6.03
-7.68
-9.08
-9.97
-10.16
-9.62
-8.46
-6.91
-5.20
-3.53
-2.01
-0.69
0.45
1.47
2.39
3.25
4.03
4.73
5.37
5.97
6.54
7.08
7.55
7.88
8.04
8.04
7.95
7.89
7.93
8.07
8.22
8.23
7.98
7.41
6.55
5.56
4.58
3.74
3.03
2.38
1.66
0.78
-0.29
-1.48
-2.71
-3.92
-5.17
-6.51
-8.04
-9.76
-11.56
-13.20
-14.40
-14.91
-14.57
-13.39
-11.55
-9.32
-7.05
-5.01
-3.39
-2.19
-1.36
-0.74
-0.18
0.42
1.08
1.78
2.47
3.07
3.55
3.87
4.04
4.12
4.18
4.29
4.49
4.78
5.14
5.51
5.83
6.03
6.03
5.76
5.15
4.21
3.03
1.74
0.54
-0.41
-1.06
-1.45
-1.71
-2.05
-2.63
-3.60
-4.95
-6.53
-8.08
-9.30
-9.91
-9.80
-9.02
-7.74
-6.21
-4.59
-2.97
-1.39
0.15
1.58
2.84
3.84
4.52
4.89
5.03
5.04
5.00
4.98
5.00
5.00
4.93
4.74
4.43
4.07
3.80
3.74
3.93
4.28
4.55
4.51
3.99
3.00
1.70
0.35
-0.84
-1.73
-2.33
-2.76
-3.18
-3.73
-4.51
-5.54
-6.76
-8.02
-9.14
-9.90
-10.18
-9.87
-8.98
-7.54
-5.68
-3.56
-1.41
0.59
2.27
3.57
4.52
5.15
5.48
5.52
5.28
4.86
4.46
4.31
4.51
5.02
5.60
6.01
6.08
5.85
5.53
5.33
5.35
5.55
5.77
5.83
5.59
5.02
4.13
2.97
1.67
0.35
-0.84
-1.83
-2.62
-3.33
-4.13
-5.21
-6.62
-8.33
-10.16
-11.87
-13.16
-13.77
-13.53
-12.39
-10.47
-8.03
-5.41
-2.94
-0.87
0.74
1.94
2.88
3.69
4.46
5.19
5.84
6.35
6.69
6.88
6.93
6.89
6.78
6.60
6.40
6.24
6.21
6.37
6.72
7.18
7.66
8.04
8.21
8.14
7.83
7.30
6.62
5.84
5.02
4.21
3.41
2.60
1.74
0.79
-0.29
-1.47
-2.70
-3.93
-5.14
-6.30
-7.45
-8.62
-9.82
-11.08
-12.31
-13.43
-14.23
-14.54
-14.19
-13.14
-11.49
-9.40
-7.13
-4.84
-2.65
-0.61
1.28
2.96
4.31
5.25
5.72
5.77
5.54
5.24
5.06
5.12
5.44
5.90
6.37
6.68
6.79
6.74
6.65
6.62
6.72
6.86
6.93
6.84
6.57
6.19
5.79
5.44
5.11
4.73
4.23
3.60
2.87
2.09
1.29
0.48
-0.33
-1.12
-1.87
-2.57
-3.27
-4.03
-4.94
-6.03
-7.35
-8.83
-10.40
-11.93
-13.24
-14.18
-14.60
-14.39
-13.52
-12.05
-10.11
-7.92
-5.68
-3.58
-1.75
-0.26
0.89
1.73
2.32
2.74
3.03
3.25
3.40
3.50
3.58
3.64
3.72
3.84
4.03
4.32
4.68
5.12
5.54
5.86
6.02
6.01
5.87
5.67
5.44
5.15
4.71
4.04
3.14
2.13
1.15
0.33
-0.34
-0.97
-1.72
-2.71
-3.96
-5.44
-7.04
-8.63
-10.10
-11.31
-12.12
-12.43
-12.18
-11.39
-10.12
-8.46
-6.51
-4.38
-2.21
-0.15
1.65
3.04
3.98
4.49
4.66
4.60
4.43
4.24
4.12
4.11
4.22
4.44
4.76
5.13
5.51
5.83
6.03
6.09
5.98
5.73
5.39
5.00
4.57
4.07
3.44
2.61
1.54
0.23
-1.27
-2.86
-4.47
-6.08
-7.71
-9.41
-11.21
-13.06
-14.84
-16.42
-17.62
-18.32
-18.40
-17.78
-16.42
-14.40
-11.92
-9.28
-6.80
-4.72
-3.14
-2.01
-1.21
-0.60
-0.08
0.42
0.94
1.50
2.08
2.64
3.11
3.49
3.77
3.99
4.21
4.44
4.68
4.91
5.14
5.32
5.42
5.38
5.15
4.72
4.14
3.52
2.94
2.44
1.97
1.45
0.78
-0.09
-1.18
-2.45
-3.84
-5.19
-6.32
-7.02
-7.14
-6.62
-5.56
-4.12
-2.53
-0.97
0.45
1.70
2.80
3.80
4.67
5.44
6.06
6.52
6.81
6.94
6.95
6.91
6.87
6.87
6.91
7.01
7.14
7.29
7.41
7.49
7.53
7.60
7.83
8.40
9.40
10.85
12.62
14.47
16.16
17.47
18.23
18.34
17.71
16.34
14.37
12.14
10.18
9.09
9.33
11.12
14.39
18.80
23.97
29.56
35.33
41.11
46.80
52.22
57.21
61.63
65.40
68.50
70.95
72.70
73.67
73.70
72.61
70.30
66.81
62.26
56.86
50.77
44.08
36.81
29.05
21.01
13.04
5.62
-0.79
-5.86
-9.49
-11.80
-13.10
-13.76
-14.13
-14.49
-15.05
-15.96
-17.37
-19.32
-21.70
-24.23
-26.48
-28.01
-28.56
-28.14
-27.00
-25.44
-23.65
-21.65
-19.31
-16.56
-13.52
-10.48
-7.78
-5.66
-4.28
-3.69
-3.96
-5.16
-7.36
-10.48
-14.25
-18.27
-22.11
-25.40
-27.94
-29.65
-30.60
-30.95
-30.92
-30.74
-30.62
-30.67
-30.88
-31.12
-31.22
-31.05
-30.51
-29.63
-28.45
-27.09
-25.61
-24.10
-22.56
-20.89
-18.96
-16.63
-13.86
-10.75
-7.54
-4.55
-2.02
-0.11
1.14
1.79
1.87
1.40
0.32
-1.37
-3.52
-5.90
-8.14
-9.93
-11.08
-11.63
-11.80
-11.87
-12.06
-12.47
-13.03
-13.52
-13.70
-13.35
-12.38
-10.89
-9.17
-7.63
-6.67
-6.50
-7.11
-8.22
-9.42
-10.27
-10.49
-10.00
-8.91
-7.43
-5.80
-4.24
-2.89
-1.82
-1.04
-0.53
-0.23
-0.08
-0.02
-0.01
-0.05
-0.13
-0.25
-0.42
-0.61
-0.78
-0.89
-0.92
-0.86
-0.70
-0.46
-0.20
-0.03
-0.08
-0.45
-1.18
-2.23
-3.50
-4.92
-6.45
-8.07
-9.79
-11.59
-13.38
-15.07
-16.52
-17.58
-18.11
-18.00
-17.15
-15.56
-13.34
-10.70
-7.90
-5.22
-2.85
-0.90
0.64
1.86
2.89
3.83
4.75
5.62
6.32
6.71
6.68
6.19
5.30
4.16
2.97
1.93
1.13
0.57
0.11
-0.39
-1.05
-1.88
-2.82
-3.76
-4.65
-5.49
-6.35
-7.31
-8.41
-9.61
-10.85
-12.00
-12.95
-13.59
-13.79
-13.44
-12.41
-10.66
-8.27
-5.45
-2.49
0.29
2.68
4.60
6.10
7.30
8.28
9.09
9.69
10.04
10.17
10.15
10.10
10.08
10.12
10.16
10.09
9.84
9.39
8.76
7.99
7.17
6.32
5.49
4.67
3.83
2.97
2.06
1.10
0.13
-0.80
-1.70
-2.56
-3.43
-4.35
-5.36
-6.45
-7.58
-8.67
-9.60
-10.23
-10.44
-10.10
-9.18
-7.70
-5.75
-3.50
-1.13
1.13
3.10
4.62
5.67
6.28
6.61
6.79
6.94
7.06
7.13
7.12
7.07
7.03
7.05
7.11
7.13
7.02
6.72
6.27
5.81
5.44
5.20
5.02
4.75
4.23
3.43
2.43
1.40
0.52
-0.14
-0.60
-1.00
-1.56
-2.47
-3.84
-5.65
-7.74
-9.83
-11.66
-13.01
-13.79
-13.98
-13.62
-12.74
-11.34
-9.45
-7.20
-4.83
-2.65
-0.93
0.20
0.81
1.07
1.17
1.23
1.25
1.18
1.00
0.79
0.65
0.71
0.99
1.37
1.69
1.78
1.59
1.18
0.74
0.46
0.45
0.65
0.87
0.88
0.52
-0.22
-1.19
-2.16
-2.93
-3.48
-3.90
-4.40
-5.15
-6.20
-7.48
-8.78
-9.89
-10.62
-10.88
-10.68
-10.05
-9.02
-7.55
-5.64
-3.33
-0.82
1.59
3.59
5.01
5.82
6.19
6.35
6.43
6.50
6.50
6.40
6.22
6.06
5.98
5.98
5.96
5.80
5.41
4.87
4.31
3.88
3.66
3.59
3.54
3.36
2.97
2.43
1.84
1.31
0.85
0.39
-0.16
-0.88
-1.75
-2.72
-3.70
-4.62
-5.47
-6.27
-7.07
-7.88
-8.73
-9.62
-10.50
-11.29
-11.83
-11.91
-11.38
-10.16
-8.37
-6.21
-3.98
-1.92
-0.16
1.31
2.58
3.74
4.86
5.88
6.70
7.28
7.60
7.76
7.85
7.92
7.96
7.94
7.86
7.77
7.81
8.06
8.51
9.04
9.48
9.67
9.57
9.23
8.76
8.26
7.79
7.37
6.99
6.63
6.26
5.84
5.31
4.66
3.90
3.07
2.25
1.48
0.78
0.13
-0.54
-1.28
-2.13
-3.08
-4.11
-5.14
-6.14
-7.10
-8.09
-9.17
-10.40
-11.74
-13.08
-14.25
-15.03
-15.25
-14.85
-13.86
-12.49
-11.03
-9.78
-8.96
-8.67
-8.92
-9.60
-10.57
-11.67
-12.69
-13.40
-13.56
-13.00
-11.73
-9.90
-7.78
-5.65
-3.65
-1.75
0.22
2.43
4.97
7.77
10.62
13.26
15.47
17.14
18.27
18.90
19.12
19.01
18.64
18.09
17.46
16.80
16.11
15.38
14.57
13.70
12.80
11.93
11.13
10.41
9.77
9.16
8.56
7.91
7.18
6.36
5.55
4.99
4.96
5.78
7.57
10.25
13.47
16.76
19.63
21.75
22.98
23.37
23.06
22.21
21.04
19.71
18.39
17.21
16.23
15.39
14.60
13.78
12.88
11.97
11.15
10.52
10.13
9.91
9.75
9.47
8.91
7.98
6.69
5.20
3.76
2.65
2.03
1.86
1.87
1.62
0.64
-1.37
-4.42
-8.19
-12.11
-15.57
-18.14
-19.73
-20.59
-21.18
-21.89
-22.84
-23.80
-24.35
-24.06
-22.75
-20.57
-17.82
-14.90
-12.05
-9.41
-7.01
-4.92
-3.24
-2.08
-1.48
-1.38
-1.59
-1.93
-2.26
-2.53
-2.77
-3.03
-3.33
-3.65
-3.91
-4.02
-3.91
-3.58
-3.19
-2.99
-3.31
-4.36
-6.04
-7.87
-9.17
-9.33
-8.10
-5.79
-3.08
-0.69
0.92
1.72
1.97
2.00
1.93
1.67
1.03
-0.05
-1.41
-2.76
-3.82
-4.45
-4.73
-4.82
-4.88
-4.95
-4.93
-4.68
-4.09
-3.17
-2.03
-0.87
0.15
0.92
1.43
1.73
1.90
1.99
2.07
2.19
2.37
2.66
2.97
3.21
3.19
2.77
1.93
0.79
-0.40
-1.37
-2.02
-2.39
-2.71
-3.23
-4.04
-5.06
-6.01
-6.61
-6.73
-6.45
-6.00
-5.59
-5.28
-4.94
-4.36
-3.44
-2.26
-1.10
-0.27
0.06
-0.09
-0.50
-0.93
-1.24
-1.44
-1.64
-1.94
-2.30
-2.58
-2.64
-2.41
-1.98
-1.52
-1.18
-1.04
-1.07
-1.15
-1.19
-1.17
-1.18
-1.33
-1.70
-2.31
-3.13
-4.06
-5.02
-5.94
-6.77
-7.47
-7.99
-8.29
-8.29
-7.93
-7.21
-6.14
-4.80
-3.33
-1.87
-0.57
0.48
1.24
1.72
1.97
2.02
1.90
1.62
1.24
0.82
0.49
0.36
0.47
0.81
1.23
1.57
1.69
1.53
1.16
0.69
0.28
-0.00
-0.11
-0.12
-0.11
-0.20
-0.47
-0.96
-1.63
-2.40
-3.17
-3.85
-4.40
-4.82
-5.13
-5.32
-5.36
-5.15
-4.62
-3.76
-2.67
-1.51
-0.48
0.26
0.64
0.66
0.40
0.03
-0.29
-0.39
-0.21
0.19
0.70
1.17
1.48
1.63
1.64
1.58
1.48
1.35
1.23
1.13
1.07
1.04
1.00
0.84
0.50
-0.03
-0.66
-1.29
-1.78
-2.14
-2.41
-2.72
-3.12
-3.61
-4.13
-4.60
-4.94
-5.10
-5.04
-4.70
-4.03
-3.03
-1.80
-0.55
0.49
1.14
1.34
1.19
0.89
0.62
0.52
0.64
0.94
1.33
1.69
1.93
2.02
2.01
1.98
2.01
2.15
2.37
2.63
2.87
3.06
3.16
3.12
2.88
2.39
1.67
0.79
-0.11
-0.92
-1.60
-2.16
-2.63
-3.06
-3.42
-3.71
-3.96
-4.22
-4.59
-5.11
-5.74
-6.32
-6.65
-6.58
-6.05
-5.11
-3.91
-2.58
-1.23
0.05
1.20
2.09
2.63
2.78
2.61
2.25
1.86
1.53
1.29
1.09
0.84
0.53
0.17
-0.17
-0.42
-0.57
-0.58
-0.45
-0.15
0.33
0.97
1.70
2.42
3.01
3.39
3.56
3.54
3.44
3.32
3.26
3.20
3.07
2.77
2.25
1.52
0.65
-0.24
-1.07
-1.81
-2.46
-3.06
-3.60
-4.02
-4.23
-4.13
-3.67
-2.93
-2.05
-1.19
-0.44
0.19
0.76
1.32
1.87
2.33
2.56
2.49
2.15
1.65
1.18
0.89
0.82
0.90
1.01
1.06
0.99
0.84
0.66
0.51
0.45
0.50
0.63
0.81
0.98
1.11
1.16
1.10
0.92
0.60
0.14
-0.42
-1.02
-1.54
-1.88
-2.00
-1.99
-2.04
-2.35
-3.04
-4.02
-5.07
-5.84
-6.09
-5.73
-4.89
-3.78
-2.60
-1.48
-0.46
0.48
1.34
2.06
2.56
2.81
2.83
2.68
2.43
2.16
1.91
1.69
1.51
1.38
1.31
1.26
1.20
1.11
0.94
0.69
0.35
-0.03
-0.38
-0.59
-0.60
-0.44
-0.23
-0.13
-0.25
-0.60
-1.09
-1.60
-2.02
-2.28
-2.42
-2.48
-2.53
-2.65
-2.89
-3.29
-3.82
-4.39
-4.89
-5.25
-5.42
-5.41
-5.20
-4.76
-4.05
-3.06
-1.94
-0.85
-0.00
0.49
0.64
0.56
0.39
0.22
0.12
0.08
0.08
0.14
0.26
0.42
0.55
0.57
0.40
0.03
-0.44
-0.84
-1.00
-0.90
-0.64
-0.43
-0.48
-0.86
-1.46
-2.09
-2.51
-2.63
-2.48
-2.17
-1.84
-1.53
-1.21
-0.82
-0.34
0.20
0.68
0.96
0.94
0.64
0.16
-0.35
-0.74
-0.94
-0.92
-0.74
-0.43
-0.02
0.52
1.20
2.02
2.92
3.80
4.57
5.15
5.54
5.79
5.91
5.96
5.95
5.90
5.83
5.83
5.95
6.21
6.57
6.88
7.00
6.83
6.43
5.95
5.60
5.49
5.60
5.72
5.65
5.27
4.65
3.95
3.34
2.90
2.56
2.17
1.59
0.80
-0.12
-1.01
-1.78
-2.35
-2.75
-3.03
-3.21
-3.29
-3.24
-3.07
-2.76
-2.31
-1.72
-1.04
-0.32
0.39
1.03
1.59
2.06
2.48
2.84
3.13
3.34
3.44
3.43
3.33
3.22
3.12
3.07
3.03
2.97
2.86
2.71
2.53
2.35
2.12
1.81
1.43
1.05
0.78
0.71
0.84
1.03
1.08
0.84
0.27
-0.51
-1.31
-1.99
-2.50
-2.90
-3.23
-3.52
-3.67
-3.56
-3.11
-2.35
-1.38
-0.35
0.62
1.48
2.23
2.85
3.31
3.57
3.54
3.22
2.65
1.94
1.21
0.56
0.01
-0.44
-0.78
-0.97
-0.92
-0.56
0.09
0.91
1.68
2.18
2.25
1.89
1.22
0.45
-0.25
-0.79
-1.19
-1.53
-1.92
-2.41
-2.99
-3.62
-4.28
-4.95
-5.62
-6.28
-6.81
-7.07
-6.89
-6.20
-5.07
-3.75
-2.50
-1.53
-0.85
-0.33
0.21
0.86
1.56
2.17
2.60
2.80
2.89
2.96
3.05
3.13
3.08
2.88
2.57
2.32
2.27
2.46
2.85
3.29
3.68
3.94
4.04
3.98
3.79
3.49
3.09
2.65
2.18
1.68
1.14
0.54
-0.10
-0.74
-1.35
-1.92
-2.54
-3.32
-4.32
-5.52
-6.75
-7.77
-8.34
-8.28
-7.58
-6.34
-4.75
-3.03
-1.36
0.13
1.40
2.43
3.21
3.74
4.02
4.09
4.00
3.88
3.84
3.93
4.11
4.28
4.31
4.12
3.78
3.44
3.26
3.29
3.47
3.65
3.69
3.51
3.17
2.76
2.38
2.05
1.71
1.31
0.85
0.37
-0.04
-0.36
-0.66
-1.00
-1.47
-2.07
-2.75
-3.42
-4.02
-4.58
-5.18
-5.93
-6.85
-7.83
-8.65
-9.02
-8.77
-7.84
-6.38
-4.64
-2.90
-1.35
-0.07
0.94
1.72
2.30
2.69
2.92
3.05
3.19
3.40
3.69
3.96
4.12
4.10
3.91
3.68
3.53
3.57
3.81
4.21
4.69
5.14
5.50
5.71
5.76
5.67
5.51
5.31
5.08
4.74
4.19
3.38
2.39
1.40
0.62
0.13
-0.16
-0.47
-1.02
-1.93
-3.13
-4.43
-5.60
-6.49
-7.04
-7.22
-7.01
-6.37
-5.28
-3.83
-2.17
-0.51
0.96
2.12
2.93
3.40
3.60
3.59
3.49
3.37
3.31
3.34
3.38
3.35
3.20
2.97
2.78
2.74
2.89
3.18
3.45
3.55
3.39
3.00
2.50
2.03
1.67
1.43
1.26
1.05
0.71
0.15
-0.64
-1.65
-2.79
-3.92
-4.92
-5.75
-6.47
-7.21
-8.07
-9.06
-10.08
-10.91
-11.36
-11.28
-10.67
-9.59
-8.20
-6.61
-4.95
-3.29
-1.73
-0.35
0.77
1.61
2.16
2.47
2.63
2.69
2.71
2.75
2.79
2.79
2.72
2.53
2.25
1.95
1.71
1.60
1.68
1.93
2.27
2.63
2.91
3.08
3.13
3.10
3.00
2.83
2.59
2.24
1.78
1.25
0.72
0.30
0.06
0.00
0.07
0.15
0.11
-0.13
-0.55
-1.08
-1.67
-2.25
-2.83
-3.42
-3.95
-4.29
-4.24
-3.67
-2.57
-1.06
0.62
2.27
3.74
5.04
6.17
7.16
7.92
8.36
8.39
8.01
7.34
6.58
5.88
5.37
5.06
4.89
4.79
4.68
4.51
4.27
4.00
3.76
3.57
3.43
3.23
2.86
2.21
1.28
0.17
-0.95
-1.91
-2.63
-3.17
-3.59
-3.99
-4.37
-4.68
-4.89
-5.03
-5.20
-5.54
-6.16
-7.08
-8.18
-9.32
-10.35
-11.21
-11.92
-12.49
-12.87
-12.96
-12.56
-11.57
-9.95
-7.86
-5.56
-3.36
-1.49
-0.06
0.94
1.64
2.16
2.62
3.04
3.42
3.70
3.89
4.01
4.17
4.50
5.07
5.83
6.68
7.43
7.99
8.34
8.56
8.76
8.95
9.07
9.00
8.65
8.01
7.17
6.29
5.45
4.69
3.91
2.98
1.77
0.24
-1.58
-3.58
-5.65
-7.70
-9.65
-11.46
-13.13
-14.62
-15.94
-17.11
-18.11
-18.90
-19.41
-19.55
-19.31
-18.83
-18.36
-18.21
-18.60
-19.59
-21.07
-22.83
-24.69
-26.58
-28.56
-30.74
-33.21
-35.93
-38.82
-41.72
-44.45
-46.84
-48.73
-49.95
-50.38
-49.97
-48.79
-46.98
-44.76
-42.37
-40.04
-37.93
-36.09
-34.42
-32.69
-30.61
-28.04
-25.07
-22.07
-19.48
-17.67
-16.76
-16.65
-17.21
-18.40
-20.25
-22.73
-25.57
-28.18
-29.87
-30.15
-28.99
-26.94
-24.82
-23.52
-23.63
-25.38
-28.67
-33.25
-38.77
-44.95
-51.49
-57.99
-63.93
-68.70
-71.77
-72.90
-72.33
-70.68
-68.70
-66.93
-65.49
-64.03
-62.04
-59.10
-54.96
-49.42
-42.09
-32.23
-19.00
-1.85
18.97
42.25
66.01
87.97
106.22
119.55
127.63
130.76
129.58
124.73
116.74
106.15
93.56
79.90
66.21
53.52
42.57
33.75
27.18
22.91
21.09
21.87
25.22
30.62
37.11
43.48
48.70
52.34
54.56
55.95
57.14
58.44
59.84
61.07
61.81
61.82
61.00
59.37
57.12
54.63
52.56
51.60
52.27
54.53
57.66
60.44
61.54
60.02
55.58
48.59
39.85
30.19
20.25
10.37
0.72
-8.62
-17.52
-25.73
-32.93
-38.78
-42.99
-45.38
-45.88
-44.56
-41.57
-37.14
-31.58
-25.30
-18.87
-12.87
-7.88
-4.23
-1.93
-0.70
-0.10
0.33
0.87
1.58
2.37
3.07
3.54
3.71
3.59
3.21
2.67
2.08
1.57
1.27
1.23
1.41
1.70
1.96
2.04
1.88
1.43
0.70
-0.37
-1.84
-3.78
-6.26
-9.26
-12.64
-16.15
-19.35
-21.73
-22.83
-22.30
-20.09
-16.39
-11.60
-6.18
-0.55
4.96
10.10
14.64
18.37
21.13
22.89
23.77
24.06
24.11
24.20
24.47
24.83
25.04
24.80
23.96
22.54
20.78
18.99
17.39
16.02
14.74
13.32
11.62
9.64
7.54
5.52
3.69
1.98
0.21
-1.87
-4.47
-7.64
-11.28
-15.13
-18.80
-21.82
-23.71
-24.12
-22.88
-20.07
-16.00
-11.09
-5.78
-0.45
4.65
9.32
13.43
16.89
19.60
21.58
22.85
23.56
23.86
23.90
23.79
23.58
23.27
22.80
22.19
21.45
20.62
19.76
18.83
17.76
16.46
14.87
13.00
10.96
8.85
6.78
4.78
2.82
0.84
-1.28
-3.72
-6.65
-10.17
-14.19
-18.40
-22.21
-24.98
-26.12
-25.35
-22.76
-18.71
-13.75
-8.41
-3.14
1.79
6.21
10.05
13.28
15.90
17.93
19.43
20.52
21.36
22.10
22.84
23.58
24.24
24.70
24.84
24.64
24.12
23.36
22.45
21.44
20.34
19.13
17.80
16.31
14.64
12.76
10.68
8.44
6.10
3.77
1.48
-0.74
-2.97
-5.31
-7.92
-10.90
-14.27
-17.92
-21.53
-24.62
-26.66
-27.20
-25.98
-23.02
-18.63
-13.23
-7.32
-1.34
4.37
9.52
13.91
17.39
19.94
21.66
22.76
23.49
24.07
24.59
25.08
25.49
25.75
25.88
25.89
25.79
25.59
25.24
24.65
23.75
22.52
21.00
19.32
17.57
15.81
14.05
12.23
10.29
8.22
6.02
3.73
1.38
-1.02
-3.53
-6.22
-9.19
-12.51
-16.19
-20.08
-23.93
-27.31
-29.78
-30.92
-30.48
-28.41
-24.86
-20.14
-14.66
-8.90
-3.28
1.81
6.16
9.65
12.25
13.98
14.90
15.13
14.86
14.36
13.92
13.72
13.80
13.99
14.08
13.87
13.32
12.48
11.49
10.43
9.32
8.13
6.81
5.34
3.70
1.90
-0.04
-2.09
-4.22
-6.39
-8.58
-10.78
-13.06
-15.50
-18.12
-20.81
-23.32
-25.21
-26.05
-25.45
-23.29
-19.69
-15.03
-9.83
-4.66
0.01
3.88
6.76
8.64
9.62
9.89
9.69
9.25
8.78
8.39
8.15
8.06
8.09
8.22
8.39
8.56
8.62
8.48
8.02
7.14
5.82
4.16
2.32
0.44
-1.36
-3.06
-4.74
-6.48
-8.36
-10.48
-12.95
-15.89
-19.36
-23.26
-27.25
-30.72
-33.01
-33.55
-32.12
-28.84
-24.12
-18.49
-12.47
-6.49
-0.87
4.07
8.11
11.10
13.09
14.23
14.81
15.07
15.23
15.36
15.50
15.62
15.65
15.58
15.38
15.02
14.50
13.80
12.92
11.86
10.56
8.98
7.08
4.87
2.45
-0.07
-2.51
-4.83
-7.09
-9.46
-12.19
-15.42
-19.09
-22.87
-26.27
-28.72
-29.74
-29.08
-26.70
-22.82
-17.76
-11.95
-5.84
0.11
5.48
9.94
13.33
15.60
16.86
17.32
17.24
16.92
16.65
16.62
16.92
17.46
18.03
18.40
18.39
17.94
17.16
16.20
15.13
13.94
12.52
10.74
8.57
6.13
3.65
1.34
-0.66
-2.42
-4.10
-5.99
-8.32
-11.27
-14.81
-18.79
-22.84
-26.45
-29.02
-30.01
-29.07
-26.15
-21.55
-15.83
-9.66
-3.66
1.76
6.39
10.19
13.19
15.41
16.87
17.59
17.71
17.44
17.09
16.92
17.05
17.41
17.80
17.97
17.74
17.09
16.12
14.99
13.76
12.40
10.78
8.77
6.38
3.78
1.26
-0.93
-2.68
-4.10
-5.49
-7.20
-9.50
-12.43
-15.81
-19.31
-22.51
-25.02
-26.48
-26.64
-25.31
-22.45
-18.19
-12.93
-7.21
-1.66
3.17
6.99
9.72
11.53
12.62
13.23
13.48
13.48
13.30
12.99
12.59
12.11
11.53
10.85
10.13
9.47
8.93
8.50
8.04
7.33
6.15
4.46
2.35
0.11
-2.03
-3.92
-5.61
-7.30
-9.23
-11.64
-14.66
-18.24
-22.13
-25.87
-28.80
-30.27
-29.79
-27.21
-22.81
-17.19
-11.12
-5.31
-0.25
3.84
6.98
9.31
11.03
12.29
13.19
13.80
14.16
14.35
14.44
14.48
14.48
14.36
14.02
13.40
12.56
11.57
10.59
9.69
8.84
7.91
6.71
5.08
3.00
0.58
-1.97
-4.44
-6.76
-9.02
-11.49
-14.48
-18.14
-22.41
-26.90
-30.99
-33.98
-35.23
-34.41
-31.48
-26.81
-20.97
-14.69
-8.58
-3.08
1.61
5.49
8.64
11.15
13.08
14.46
15.36
15.88
16.18
16.40
16.66
16.97
17.25
17.41
17.37
17.13
16.73
16.23
15.62
14.83
13.76
12.33
10.57
8.54
6.39
4.22
2.07
-0.04
-2.18
-4.40
-6.83
-9.61
-12.88
-16.70
-20.93
-25.17
-28.82
-31.23
-31.85
-30.45
-27.11
-22.24
-16.40
-10.16
-4.03
1.62
6.54
10.63
13.86
16.29
18.02
19.15
19.80
20.07
20.10
20.03
20.00
20.09
20.27
20.46
20.53
20.33
19.84
19.09
18.12
17.04
15.85
14.53
13.03
11.31
9.36
7.24
5.03
2.85
0.76
-1.22
-3.10
-4.98
-6.93
-9.06
-11.48
-14.30
-17.57
-21.22
-25.00
-28.48
-31.06
-32.18
-31.47
-28.86
-24.65
-19.35
-13.55
-7.77
-2.37
2.45
6.57
9.88
12.33
13.90
14.69
14.94
14.91
14.86
14.95
15.20
15.54
15.84
15.97
15.85
15.41
14.65
13.59
12.34
11.02
9.77
8.67
7.66
6.58
5.26
3.59
1.61
-0.54
-2.66
-4.63
-6.45
-8.22
-10.06
-12.11
-14.44
-17.09
-20.01
-23.09
-26.06
-28.50
-29.91
-29.78
-27.83
-24.06
-18.88
-12.95
-7.03
-1.75
2.52
5.67
7.87
9.36
10.36
11.01
11.43
11.69
11.88
12.06
12.26
12.43
12.46
12.23
11.69
10.90
9.99
9.12
8.35
7.64
6.80
5.63
4.01
1.95
-0.37
-2.71
-4.88
-6.81
-8.60
-10.44
-12.57
-15.15
-18.24
-21.74
-25.35
-28.60
-30.92
-31.76
-30.73
-27.74
-23.03
-17.17
-10.84
-4.70
0.75
5.22
8.62
11.03
12.61
13.58
14.15
14.50
14.77
15.01
15.21
15.34
15.33
15.12
14.70
14.08
13.32
12.47
11.60
10.74
9.94
9.16
8.33
7.29
5.93
4.13
1.93
-0.52
-3.02
-5.38
-7.54
-9.57
-11.68
-14.10
-16.99
-20.37
-24.04
-27.61
-30.51
-32.11
-31.94
-29.77
-25.77
-20.45
-14.51
-8.60
-3.16
1.63
5.72
9.14
11.83
13.72
14.78
15.12
15.00
14.77
14.71
14.93
15.34
15.75
15.96
15.89
15.58
15.16
14.71
14.20
13.53
12.60
11.37
9.89
8.31
6.71
5.11
3.43
1.56
-0.57
-2.90
-5.31
-7.67
-9.91
-12.14
-14.50
-17.19
-20.26
-23.59
-26.82
-29.47
-30.99
-30.95
-29.09
-25.44
-20.30
-14.20
-7.79
-1.70
3.55
7.69
10.65
12.60
13.80
14.53
15.01
15.36
15.66
15.95
16.26
16.60
16.96
17.28
17.48
17.49
17.26
16.78
16.06
15.11
13.97
12.70
11.42
10.21
9.10
7.98
6.69
5.08
3.09
0.84
-1.49
-3.73
-5.84
-7.91
-10.13
-12.62
-15.45
-18.56
-21.81
-24.99
-27.84
-30.04
-31.22
-31.05
-29.31
-26.01
-21.39
-15.91
-10.10
-4.49
0.47
4.56
7.71
9.98
11.48
12.38
12.80
12.90
12.82
12.69
12.57
12.50
12.43
12.31
12.10
11.79
11.39
10.91
10.38
9.79
9.12
8.30
7.24
5.84
4.06
1.96
-0.31
-2.51
-4.48
-6.18
-7.72
-9.34
-11.30
-13.74
-16.65
-19.84
-22.97
-25.60
-27.30
-27.74
-26.70
-24.17
-20.36
-15.62
-10.42
-5.23
-0.47
3.59
6.77
9.00
10.35
10.96
11.09
11.03
11.02
11.21
11.58
11.99
12.32
12.46
12.42
12.23
11.93
11.47
10.80
9.95
8.98
8.03
7.12
6.15
4.93
3.26
1.09
-1.44
-4.03
-6.45
-8.63
-10.69
-12.92
-15.56
-18.73
-22.30
-25.94
-29.16
-31.46
-32.43
-31.78
-29.47
-25.66
-20.69
-15.03
-9.19
-3.65
1.23
5.22
8.23
10.32
11.65
12.43
12.87
13.17
13.45
13.82
14.30
14.85
15.39
15.80
15.99
15.91
15.58
14.99
14.19
13.19
12.05
10.85
9.64
8.45
7.25
5.94
4.42
2.61
0.53
-1.75
-4.11
-6.47
-8.80
-11.16
-13.68
-16.49
-19.68
-23.19
-26.81
-30.08
-32.45
-33.36
-32.44
-29.61
-25.14
-19.54
-13.47
-7.53
-2.16
2.39
6.08
9.00
11.25
12.97
14.24
15.11
15.65
15.95
16.10
16.26
16.52
16.95
17.51
18.13
18.67
19.05
19.20
19.11
18.76
18.13
17.18
15.88
14.28
12.51
10.77
9.21
7.88
6.71
5.49
4.03
2.22
0.06
-2.33
-4.78
-7.15
-9.35
-11.42
-13.45
-15.61
-18.08
-20.95
-24.22
-27.70
-31.00
-33.62
-34.98
-34.61
-32.29
-28.10
-22.46
-15.98
-9.36
-3.21
2.08
6.35
9.60
11.97
13.64
14.80
15.65
16.38
17.10
17.89
18.71
19.47
20.10
20.55
20.87
21.13
21.37
21.55
21.56
21.28
20.62
19.58
18.27
16.80
15.24
13.63
11.93
10.13
8.28
6.44
4.69
3.07
1.51
-0.10
-1.88
-3.89
-6.07
-8.29
-10.43
-12.45
-14.44
-16.57
-19.03
-21.89
-25.04
-28.17
-30.84
-32.58
-33.01
-31.87
-29.12
-24.91
-19.62
-13.73
-7.82
-2.43
2.06
5.47
7.88
9.46
10.44
11.02
11.31
11.39
11.36
11.34
11.40
11.57
11.77
11.89
11.84
11.61
11.29
11.00
10.80
10.62
10.34
9.81
8.93
7.72
6.29
4.76
3.22
1.70
0.13
-1.59
-3.52
-5.64
-7.85
-10.07
-12.19
-14.25
-16.33
-18.56
-21.02
-23.68
-26.30
-28.49
-29.79
-29.77
-28.22
-25.20
-21.00
-16.10
-10.97
-6.03
-1.59
2.14
5.07
7.19
8.57
9.37
9.80
10.03
10.19
10.35
10.56
10.86
11.24
11.62
11.88
11.85
11.48
10.79
9.95
9.14
8.46
7.87
7.20
6.24
4.83
2.91
0.57
-2.01
-4.61
-7.05
-9.24
-11.22
-13.14
-15.21
-17.59
-20.34
-23.33
-26.29
-28.86
-30.68
-31.42
-30.86
-28.87
-25.44
-20.72
-15.08
-9.02
-3.10
2.20
6.57
9.95
12.43
14.18
15.37
16.10
16.46
16.51
16.37
16.16
15.95
15.74
15.48
15.08
14.50
13.75
12.89
12.00
11.12
10.25
9.33
8.28
7.01
5.45
3.58
1.44
-0.87
-3.24
-5.56
-7.78
-9.89
-11.98
-14.17
-16.58
-19.30
-22.30
-25.38
-28.21
-30.31
-31.21
-30.51
-28.05
-23.98
-18.73
-12.90
-7.10
-1.80
2.71
6.30
8.97
10.75
11.73
12.04
11.90
11.57
11.30
11.20
11.23
11.18
10.80
9.94
8.56
6.86
5.07
3.40
1.92
0.53
-1.02
-2.98
-5.53
-8.67
-12.22
-15.91
-19.45
-22.71
-25.69
-28.57
-31.60
-35.07
-39.25
-44.24
-49.86
-55.42
-59.64
-60.90
-57.66
-49.08
-35.44
-18.11
0.84
19.39
36.08
50.23
61.70
70.60
77.04
81.15
83.27
84.02
84.24
84.68
85.69
87.08
88.22
88.44
87.31
84.85
81.56
78.12
75.19
73.09
71.75
70.71
69.28
66.82
62.95
57.65
51.28
44.34
37.33
30.48
23.85
17.30
10.77
4.38
-1.52
-6.44
-9.88
-11.54
-11.32
-9.35
-5.91
-1.34
3.94
9.50
14.88
19.68
23.62
26.65
28.97
30.92
32.80
34.75
36.71
38.42
39.60
40.00
39.46
37.85
35.08
31.12
26.08
20.26
14.07
7.95
2.21
-3.00
-7.63
-11.66
-14.96
-17.34
-18.72
-19.23
-19.24
-19.32
-19.99
-21.62
-24.27
-27.78
-31.81
-35.98
-39.95
-43.38
-46.03
-47.69
-48.25
-47.73
-46.24
-44.01
-41.28
-38.25
-35.06
-31.83
-28.66
-25.68
-23.04
-20.90
-19.29
-18.16
-17.30
-16.49
-15.54
-14.33
-12.85
-11.15
-9.35
-7.55
-5.85
-4.33
-2.98
-1.70
-0.42
0.91
2.19
3.18
3.58
3.18
1.95
0.05
-2.19
-4.46
-6.52
-8.23
-9.60
-10.61
-11.29
-11.67
-11.83
-11.86
-11.89
-12.01
-12.21
-12.46
-12.66
-12.80
-12.90
-13.05
-13.35
-13.83
-14.47
-15.20
-15.92
-16.57
-17.14
-17.61
-18.02
-18.43
-18.92
-19.55
-20.33
-21.20
-22.01
-22.60
-22.89
-22.89
-22.74
-22.62
-22.72
-23.16
-24.02
-25.35
-27.20
-29.56
-32.39
-35.49
-38.59
-41.30
-43.31
-44.42
-44.65
-44.19
-43.33
-42.35
-41.41
-40.63
-40.06
-39.75
-39.78
-40.18
-40.84
-41.50
-41.77
-41.29
-39.93
-37.77
-35.12
-32.38
-29.86
-27.65
-25.66
-23.74
-21.78
-19.84
-18.13
-16.91
-16.39
-16.62
-17.58
-19.15
-21.24
-23.72
-26.44
-29.21
-31.79
-33.97
-35.66
-36.91
-37.90
-38.96
-40.39
-42.46
-45.21
-48.48
-51.81
-54.64
-56.37
-56.60
-55.15
-52.05
-47.44
-41.47
-34.30
-26.15
-17.37
-8.46
0.05
7.67
14.10
19.28
23.33
26.47
28.96
30.98
32.64
33.91
34.71
34.91
34.45
33.38
31.87
30.15
28.48
27.06
25.94
24.99
23.92
22.32
19.78
16.06
11.20
5.64
0.11
-4.56
-7.71
-9.18
-9.45
-9.49
-10.42
-13.11
-17.77
-23.85
-30.30
-35.84
-39.44
-40.53
-39.02
-35.27
-29.79
-23.22
-16.17
-9.22
-2.86
2.55
6.82
10.00
12.31
14.08
15.64
17.18
18.75
20.25
21.57
22.61
23.42
24.12
24.87
25.74
26.68
27.50
27.92
27.69
26.69
24.97
22.75
20.24
17.60
14.83
11.83
8.48
4.80
0.95
-2.74
-5.89
-8.14
-9.21
-8.92
-7.24
-4.34
-0.57
3.56
7.55
11.09
14.12
16.84
19.46
22.05
24.39
26.07
26.69
26.05
24.31
21.90
19.39
17.19
15.51
14.27
13.26
12.25
11.12
9.90
8.64
7.39
6.08
4.58
2.77
0.61
-1.80
-4.30
-6.72
-9.10
-11.65
-14.76
-18.75
-23.65
-29.08
-34.26
-38.17
-39.88
-38.85
-35.02
-28.87
-21.18
-12.84
-4.66
2.82
9.24
14.47
18.52
21.44
23.36
24.41
24.78
24.67
24.33
23.89
23.46
23.02
22.55
22.04
21.52
21.07
20.71
20.40
19.97
19.22
17.94
16.01
13.50
10.57
7.52
4.58
1.90
-0.64
-3.31
-6.50
-10.45
-15.08
-19.91
-24.16
-26.92
-27.49
-25.54
-21.20
-15.01
-7.74
-0.20
6.90
13.08
18.06
21.83
24.50
26.29
27.41
28.03
28.24
28.11
27.72
27.15
26.48
25.78
25.09
24.41
23.76
23.17
22.65
22.18
21.66
20.94
19.86
18.29
16.21
13.70
10.91
7.97
4.97
1.90
-1.37
-5.07
-9.36
-14.24
-19.41
-24.24
-27.92
-29.67
-29.05
-26.07
-21.15
-14.97
-8.23
-1.49
4.88
10.60
15.43
19.17
21.70
23.03
23.35
22.97
22.25
21.48
20.82
20.33
19.99
19.73
19.50
19.24
18.94
18.59
18.13
17.51
16.62
15.38
13.76
11.79
9.59
7.33
5.11
2.94
0.70
-1.81
-4.78
-8.32
-12.31
-16.40
-20.06
-22.60
-23.44
-22.14
-18.63
-13.22
-6.51
0.67
7.53
13.42
18.02
21.29
23.40
24.58
25.06
24.99
24.46
23.55
22.40
21.15
19.96
18.94
18.15
17.54
17.03
16.50
15.85
14.95
13.72
12.14
10.23
8.07
5.78
3.49
1.22
-1.05
-3.45
-6.16
-9.28
-12.81
-16.51
-19.89
-22.33
-23.18
-22.01
-18.72
-13.63
-7.42
-0.91
5.13
10.17
14.02
16.70
18.41
19.33
19.61
19.35
18.66
17.73
16.75
15.88
15.19
14.64
14.10
13.47
12.70
11.79
10.78
9.70
8.53
7.21
5.69
3.95
2.01
-0.14
-2.50
-5.13
-8.12
-11.47
-15.06
-18.59
-21.58
-23.45
-23.68
-21.98
-18.44
-13.48
-7.77
-2.00
3.32
7.91
11.69
14.65
16.74
17.90
18.12
17.55
16.49
15.32
14.35
13.68
13.24
12.87
12.42
11.85
11.18
10.40
9.46
8.24
6.69
4.86
2.94
1.11
-0.51
-2.00
-3.59
-5.56
-8.12
-11.37
-15.26
-19.54
-23.81
-27.50
-29.94
-30.50
-28.79
-24.81
-19.01
-12.17
-5.17
1.22
6.52
10.54
13.34
15.11
16.06
16.39
16.29
15.92
15.46
15.03
14.73
14.58
14.49
14.37
14.07
13.58
12.92
12.22
11.56
10.95
10.30
9.42
8.16
6.44
4.33
2.00
-0.34
-2.50
-4.43
-6.20
-7.98
-9.98
-12.38
-15.33
-18.81
-22.64
-26.43
-29.58
-31.41
-31.31
-28.97
-24.51
-18.45
-11.60
-4.77
1.41
6.58
10.67
13.73
15.87
17.15
17.63
17.45
16.81
16.02
15.36
15.01
14.99
15.12
15.21
15.06
14.64
14.02
13.35
12.78
12.37
12.06
11.74
11.24
10.42
9.24
7.70
5.86
3.84
1.74
-0.35
-2.38
-4.32
-6.22
-8.13
-10.20
-12.57
-15.35
-18.59
-22.11
-25.52
-28.24
-29.63
-29.16
-26.65
-22.29
-16.63
-10.39
-4.26
1.26
5.91
9.61
12.32
14.04
14.80
14.75
14.15
13.39
12.80
12.58
12.72
13.04
13.30
13.36
13.19
12.85
12.47
12.13
11.83
11.52
11.13
10.60
9.88
8.94
7.77
6.35
4.68
2.80
0.78
-1.30
-3.35
-5.37
-7.41
-9.67
-12.30
-15.39
-18.78
-22.05
-24.62
-25.90
-25.50
-23.32
-19.63
-14.85
-9.53
-4.18
0.79
5.04
8.34
10.53
11.63
11.76
11.18
10.21
9.18
8.38
7.95
7.91
8.12
8.36
8.46
8.31
7.97
7.55
7.10
6.61
5.96
5.04
3.80
2.34
0.85
-0.53
-1.76
-2.89
-4.12
-5.60
-7.46
-9.78
-12.52
-15.58
-18.77
-21.78
-24.23
-25.71
-25.91
-24.65
-21.97
-18.13
-13.52
-8.60
-3.85
0.36
3.79
6.33
8.04
9.02
9.41
9.38
9.08
8.70
8.42
8.35
8.48
8.67
8.71
8.46
7.93
7.27
6.67
6.19
5.76
5.19
4.27
2.93
1.22
-0.74
-2.80
-4.87
-6.92
-8.91
-10.85
-12.78
-14.80
-17.07
-19.73
-22.75
-25.90
-28.72
-30.63
-31.14
-29.94
-27.00
-22.55
-17.02
-10.96
-4.91
0.65
5.37
9.05
11.64
13.23
13.98
14.10
13.80
13.33
12.87
12.55
12.42
12.45
12.54
12.58
12.51
12.31
12.00
11.56
10.97
10.16
9.05
7.62
5.86
3.85
1.68
-0.49
-2.51
-4.26
-5.73
-7.01
-8.29
-9.85
-11.88
-14.49
-17.60
-20.95
-24.10
-26.53
-27.72
-27.27
-25.04
-21.19
-16.14
-10.50
-4.90
0.13
4.28
7.49
9.85
11.52
12.68
13.43
13.83
13.94
13.83
13.62
13.47
13.49
13.69
13.96
14.17
14.20
14.02
13.69
13.29
12.87
12.40
11.80
11.00
9.98
8.76
7.40
5.93
4.35
2.64
0.82
-1.06
-2.93
-4.74
-6.48
-8.19
-9.91
-11.77
-13.90
-16.43
-19.41
-22.67
-25.85
-28.35
-29.50
-28.82
-26.15
-21.75
-16.24
-10.38
-4.84
-0.06
3.83
6.91
9.38
11.37
12.90
13.92
14.35
14.24
13.79
13.35
13.22
13.54
14.18
14.90
15.37
15.43
15.12
14.63
14.11
13.62
13.04
12.22
11.04
9.54
7.88
6.22
4.64
3.11
1.49
-0.28
-2.21
-4.23
-6.26
-8.32
-10.49
-12.92
-15.68
-18.68
-21.63
-24.11
-25.64
-25.80
-24.40
-21.50
-17.41
-12.64
-7.77
-3.26
0.55
3.56
5.80
7.39
8.43
9.02
9.25
9.24
9.11
8.97
8.83
8.66
8.38
7.97
7.48
7.00
6.67
6.55
6.57
6.54
6.22
5.41
4.03
2.16
0.03
-2.08
-3.97
-5.61
-7.14
-8.80
-10.85
-13.43
-16.52
-19.92
-23.27
-26.10
-27.92
-28.32
-27.06
-24.14
-19.82
-14.60
-9.07
-3.79
0.81
4.48
7.13
8.83
9.76
10.14
10.23
10.22
10.25
10.32
10.39
10.42
10.36
10.20
9.94
9.57
9.10
8.54
7.92
7.28
6.63
5.93
5.04
3.79
2.09
-0.00
-2.29
-4.49
-6.42
-8.07
-9.66
-11.53
-13.99
-17.15
-20.82
-24.58
-27.86
-30.06
-30.75
-29.68
-26.87
-22.61
-17.37
-11.71
-6.15
-1.09
3.28
6.89
9.78
11.99
13.53
14.46
14.83
14.82
14.63
14.48
14.55
14.86
15.35
15.86
16.17
16.16
15.77
15.03
14.08
13.04
12.00
10.99
9.94
8.78
7.46
5.95
4.24
2.33
0.26
-1.92
-4.11
-6.23
-8.25
-10.27
-12.51
-15.18
-18.40
-22.09
-25.89
-29.23
-31.47
-32.04
-30.56
-27.00
-21.69
-15.21
-8.32
-1.75
3.99
8.57
11.94
14.17
15.44
16.02
16.19
16.24
16.38
16.73
17.29
17.95
18.56
18.98
19.15
19.11
18.97
18.88
18.94
19.12
19.30
19.26
18.80
17.84
16.44
14.78
13.04
11.30
9.56
7.73
5.69
3.43
1.01
-1.44
-3.80
-6.00
-8.04
-10.00
-12.02
-14.28
-16.97
-20.14
-23.70
-27.31
-30.41
-32.32
-32.46
-30.53
-26.59
-21.13
-14.84
-8.44
-2.53
2.53
6.58
9.60
11.63
12.82
13.36
13.46
13.34
13.17
13.05
13.06
13.22
13.57
14.07
14.65
15.13
15.36
15.23
14.73
13.99
13.14
12.29
11.47
10.61
9.60
8.36
6.84
5.02
2.98
0.80
-1.41
-3.54
-5.53
-7.37
-9.13
-10.99
-13.17
-15.85
-19.11
-22.76
-26.36
-29.23
-30.69
-30.21
-27.63
-23.21
-17.54
-11.40
-5.52
-0.41
3.68
6.74
8.89
10.28
11.05
11.32
11.19
10.83
10.45
10.26
10.35
10.70
11.13
11.43
11.44
11.14
10.64
10.11
9.65
9.26
8.81
8.13
7.06
5.58
3.79
1.89
0.06
-1.59
-3.12
-4.66
-6.39
-8.41
-10.78
-13.49
-16.53
-19.91
-23.56
-27.27
-30.61
-33.02
-33.91
-32.87
-29.83
-25.12
-19.31
-13.08
-7.04
-1.58
3.05
6.80
9.64
11.64
12.83
13.35
13.39
13.18
13.00
13.05
13.42
14.07
14.86
15.63
16.27
16.71
16.93
16.92
16.64
16.07
15.20
14.08
12.81
11.47
10.08
8.59
6.91
4.98
2.83
0.55
-1.73
-3.89
-5.87
-7.69
-9.45
-11.34
-13.60
-16.52
-20.18
-24.45
-28.83
-32.60
-34.94
-35.25
-33.29
-29.25
-23.64
-17.16
-10.50
-4.23
1.26
5.73
9.13
11.52
13.12
14.15
14.88
15.51
16.13
16.76
17.35
17.85
18.25
18.61
18.94
19.24
19.46
19.52
19.40
19.15
18.85
18.59
18.32
17.95
17.31
16.32
14.99
13.45
11.83
10.21
8.58
6.83
4.90
2.77
0.48
-1.82
-4.02
-6.03
-7.87
-9.68
-11.64
-13.96
-16.81
-20.18
-23.89
-27.59
-30.77
-32.89
-33.53
-32.41
-29.53
-25.12
-19.62
-13.59
-7.60
-2.13
2.49
6.09
8.70
10.44
11.52
12.17
12.57
12.88
13.19
13.54
13.98
14.52
15.15
15.83
16.45
16.90
17.10
17.03
16.73
16.28
15.74
15.09
14.30
13.33
12.23
11.07
9.96
8.95
8.02
7.05
5.90
4.45
2.65
0.55
-1.72
-4.00
-6.18
-8.23
-10.23
-12.33
-14.72
-17.50
-20.66
-24.02
-27.23
-29.87
-31.48
-31.65
-30.15
-26.97
-22.40
-16.91
-11.10
-5.57
-0.74
3.17
6.13
8.25
9.64
10.44
10.75
10.68
10.37
10.00
9.70
9.61
9.77
10.14
10.66
11.21
11.68
11.95
11.95
11.61
10.95
10.00
8.89
7.73
6.62
5.57
4.52
3.30
1.78
-0.08
-2.25
-4.57
-6.89
-9.07
-11.05
-12.86
-14.63
-16.52
-18.73
-21.41
-24.53
-27.83
-30.74
-32.59
-32.75
-30.89
-27.07
-21.75
-15.66
-9.53
-3.95
0.73
4.41
7.18
9.22
10.69
11.67
12.23
12.43
12.38
12.25
12.19
12.32
12.59
12.90
13.11
13.12
12.95
12.68
12.42
12.19
11.91
11.46
10.71
9.65
8.34
6.91
5.44
3.94
2.33
0.52
-1.53
-3.74
-5.97
-8.04
-9.86
-11.44
-12.94
-14.61
-16.67
-19.29
-22.46
-25.94
-29.25
-31.78
-32.87
-32.09
-29.37
-25.03
-19.67
-13.94
-8.37
-3.30
1.13
4.86
7.83
10.00
11.41
12.22
12.65
12.95
13.26
13.61
14.00
14.39
14.81
15.33
15.94
16.55
17.01
17.15
16.86
16.18
15.21
14.10
12.98
11.91
10.86
9.80
8.63
7.30
5.80
4.13
2.38
0.64
-1.01
-2.55
-4.02
-5.55
-7.29
-9.47
-12.24
-15.63
-19.46
-23.27
-26.42
-28.21
-28.16
-26.12
-22.35
-17.42
-12.00
-6.68
-1.86
2.26
5.60
8.17
9.98
11.10
11.62
11.74
11.70
11.71
11.94
12.45
13.16
13.89
14.41
14.53
14.18
13.42
12.45
11.47
10.66
10.06
9.59
9.07
8.35
7.36
6.11
4.67
3.08
1.39
-0.41
-2.29
-4.20
-6.11
-8.04
-10.07
-12.40
-15.11
-18.11
-21.04
-23.30
-24.27
-23.57
-21.16
-17.39
-12.84
-8.11
-3.66
0.24
3.45
5.90
7.59
8.50
8.74
8.48
8.01
7.58
7.40
7.53
7.86
8.18
8.27
8.01
7.45
6.76
6.16
5.77
5.56
5.37
4.93
4.06
2.70
0.92
-1.14
-3.28
-5.36
-7.28
-9.01
-10.66
-12.41
-14.48
-17.01
-20.00
-23.13
-25.88
-27.61
-27.75
-26.06
-22.62
-17.89
-12.52
-7.18
-2.35
1.69
4.88
7.30
9.04
10.21
10.84
10.99
10.75
10.26
9.74
9.38
9.30
9.48
9.80
10.05
10.09
9.86
9.44
8.97
8.59
8.29
7.94
7.34
6.31
4.78
2.88
0.79
-1.25
-3.11
-4.81
-6.47
-8.33
-10.58
-13.37
-16.68
-20.31
-23.88
-26.88
-28.73
-28.98
-27.38
-24.02
-19.26
-13.73
-8.06
-2.82
1.64
5.21
7.92
9.94
11.44
12.57
13.44
14.14
14.69
15.14
15.49
15.72
15.84
15.85
15.81
15.75
15.73
15.80
15.94
16.08
16.10
15.86
15.25
14.25
12.89
11.31
9.69
8.20
6.90
5.78
4.68
3.36
1.67
-0.47
-2.95
-5.54
-7.98
-10.12
-12.00
-13.84
-15.99
-18.75
-22.17
-25.96
-29.49
-31.95
-32.62
-31.11
-27.50
-22.33
-16.35
-10.31
-4.74
0.11
4.15
7.41
9.91
11.72
12.90
13.64
14.18
14.73
15.45
16.32
17.24
18.02
18.57
18.84
18.91
18.88
18.85
18.86
18.92
18.99
19.06
19.05
18.89
18.46
17.67
16.50
15.06
13.53
12.11
10.88
9.78
8.65
7.27
5.56
3.52
1.29
-0.96
-3.09
-5.03
-6.81
-8.53
-10.35
-12.47
-15.07
-18.19
-21.73
-25.36
-28.60
-30.95
-31.96
-31.39
-29.19
-25.51
-20.70
-15.19
-9.50
-4.15
0.44
4.00
6.52
8.16
9.20
9.90
10.43
10.85
11.22
11.57
11.95
12.38
12.82
13.17
13.36
13.38
13.29
13.20
13.12
13.00
12.73
12.23
11.46
10.49
9.37
8.11
6.69
5.06
3.24
1.29
-0.69
-2.64
-4.48
-6.23
-7.89
-9.52
-11.19
-13.07
-15.33
-18.12
-21.39
-24.82
-27.89
-29.96
-30.50
-29.22
-26.19
-21.76
-16.50
-11.05
-5.93
-1.53
1.97
4.57
6.38
7.52
8.14
8.38
8.37
8.26
8.21
8.34
8.67
9.07
9.35
9.34
8.94
8.21
7.34
6.52
5.90
5.51
5.23
4.89
4.32
3.41
2.15
0.59
-1.17
-3.04
-4.91
-6.73
-8.51
-10.31
-12.24
-14.48
-17.15
-20.31
-23.83
-27.36
-30.42
-32.41
-32.84
-31.40
-28.10
-23.27
-17.46
-11.35
-5.55
-0.52
3.58
6.76
9.18
11.01
12.35
13.25
13.73
13.84
13.68
13.40
13.16
13.07
13.16
13.39
13.63
13.77
13.71
13.40
12.86
12.15
11.36
10.52
9.60
8.53
7.17
5.44
3.36
1.02
-1.40
-3.71
-5.82
-7.69
-9.41
-11.15
-13.14
-15.57
-18.54
-22.01
-25.68
-29.05
-31.47
-32.31
-31.18
-28.02
-23.20
-17.35
-11.23
-5.46
-0.49
3.54
6.69
9.14
11.10
12.69
13.97
14.99
15.78
16.39
16.89
17.32
17.67
17.94
18.11
18.21
18.32
18.47
18.68
18.88
18.95
18.76
18.26
17.43
16.32
15.01
13.64
12.35
11.28
10.46
9.76
8.94
7.74
5.99
3.75
1.26
-1.17
-3.31
-5.15
-6.85
-8.71
-10.95
-13.70
-16.94
-20.59
-24.51
-28.42
-31.88
-34.30
-35.10
-33.85
-30.48
-25.34
-19.10
-12.55
-6.36
-0.98
3.39
6.75
9.24
11.03
12.32
13.27
14.00
14.58
15.04
15.43
15.82
16.25
16.72
17.15
17.43
17.49
17.34
17.09
16.85
16.68
16.56
16.34
15.86
15.04
13.91
12.60
11.26
9.97
8.70
7.33
5.69
3.73
1.51
-0.80
-2.97
-4.84
-6.45
-7.98
-9.71
-11.93
-14.79
-18.25
-22.10
-25.96
-29.35
-31.76
-32.69
-31.82
-29.11
-24.80
-19.40
-13.56
-7.88
-2.83
1.31
4.45
6.58
7.82
8.30
8.24
7.86
7.42
7.12
7.10
7.43
8.04
8.81
9.54
10.07
10.28
10.14
9.74
9.18
8.52
7.74
6.79
5.57
4.04
2.24
0.24
-1.85
-3.93
-5.93
-7.82
-9.62
-11.37
-13.17
-15.12
-17.33
-19.84
-22.59
-25.39
-27.88
-29.60
-30.07
-28.94
-26.10
-21.81
-16.58
-11.12
-6.01
-1.63
2.00
5.01
7.61
9.89
11.81
13.23
14.09
14.44
14.48
14.49
14.65
14.99
15.47
15.95
16.37
16.70
16.93
16.96
16.66
15.84
14.36
12.22
9.53
6.55
3.53
0.65
-2.06
-4.67
-7.29
-10.00
-12.76
-15.42
-17.76
-19.59
-20.88
-21.78
-22.57
-23.59
-25.05
-26.93
-28.96
-30.67
-31.51
-31.02
-29.00
-25.52
-20.94
-15.78
-10.57
-5.75
-1.60
1.74
4.23
5.86
6.76
7.15
7.44
8.06
9.36
11.45
14.10
16.93
19.54
21.75
23.63
25.42
27.27
29.13
30.66
31.48
31.30
30.14
28.27
26.08
23.91
21.91
20.04
18.18
16.19
14.04
11.74
9.42
7.19
5.15
3.27
1.39
-0.75
-3.43
-6.80
-10.78
-15.02
-18.98
-22.08
-23.86
-24.05
-22.65
-19.86
-15.99
-11.41
-6.48
-1.52
3.15
7.33
10.81
13.54
15.48
16.70
17.33
17.56
17.58
17.59
17.73
18.01
18.35
18.61
18.64
18.32
17.63
16.63
15.47
14.30
13.22
12.25
11.32
10.34
9.18
7.79
6.14
4.30
2.36
0.44
-1.36
-2.97
-4.39
-5.73
-7.20
-9.04
-11.47
-14.51
-17.93
-21.28
-23.96
-25.44
-25.42
-23.84
-20.93
-17.08
-12.78
-8.46
-4.45
-0.96
1.92
4.16
5.79
6.81
7.27
7.28
7.01
6.70
6.57
6.74
7.17
7.68
8.03
7.99
7.52
6.72
5.84
5.07
4.49
3.97
3.26
2.13
0.47
-1.56
-3.70
-5.64
-7.22
-8.48
-9.62
-10.93
-12.62
-14.85
-17.60
-20.69
-23.75
-26.28
-27.76
-27.78
-26.17
-23.04
-18.76
-13.82
-8.67
-3.67
0.95
4.99
8.30
10.72
12.16
12.68
12.52
12.03
11.62
11.59
12.02
12.78
13.57
14.13
14.31
14.18
13.91
13.72
13.71
13.83
13.94
13.84
13.34
12.36
10.94
9.22
7.41
5.75
4.37
3.32
2.49
1.63
0.42
-1.42
-4.02
-7.25
-10.65
-13.49
-14.94
-14.29
-11.27
-6.09
0.58
7.84
14.80
20.83
25.58
28.92
30.88
31.56
31.17
30.03
28.52
27.05
25.89
25.15
24.73
24.35
23.70
22.48
20.47
17.52
13.58
8.61
2.57
-4.56
-12.77
-21.86
-31.26
-39.99
-46.77
-50.41
-50.25
-46.55
-40.54
-34.09
-29.15
-27.09
-28.41
-32.69
-38.98
-46.11
-52.94
-58.47
-61.85
-62.41
-59.75
-53.96
-45.64
-35.87
-25.89
-16.85
-9.48
-4.03
-0.28
2.24
4.11
5.79
7.56
9.44
11.31
13.00
14.38
15.44
16.23
16.87
17.39
17.74
17.77
17.39
16.57
15.42
14.07
12.61
10.99
9.12
6.89
4.40
1.87
-0.37
-2.09
-3.30
-4.24
-5.31
-6.83
-8.89
-11.28
-13.55
-15.15
-15.59
-14.55
-11.93
-7.86
-2.60
3.40
9.58
15.37
20.20
23.73
25.85
26.75
26.83
26.53
26.24
26.12
26.17
26.28
26.30
26.12
25.66
24.91
23.91
22.74
21.49
20.21
18.86
17.37
15.64
13.65
11.46
9.16
6.86
4.57
2.24
-0.27
-3.07
-6.21
-9.69
-13.37
-17.05
-20.38
-22.92
-24.21
-23.95
-22.04
-18.68
-14.32
-9.49
-4.75
-0.53
2.89
5.38
6.94
7.69
7.81
7.49
6.93
6.31
5.77
5.44
5.33
5.40
5.51
5.51
5.31
4.92
4.40
3.81
3.10
2.14
0.79
-0.99
-3.08
-5.29
-7.42
-9.40
-11.29
-13.25
-15.51
-18.18
-21.24
-24.46
-27.42
-29.57
-30.37
-29.42
-26.62
-22.25
-16.86
-11.13
-5.65
-0.81
3.26
6.59
9.27
11.37
12.94
14.00
14.61
14.91
15.06
15.15
15.21
15.16
14.89
14.34
13.57
12.72
11.97
11.42
11.02
10.59
9.86
8.63
6.85
4.61
2.12
-0.40
-2.75
-4.84
-6.67
-8.35
-10.07
-12.13
-14.80
-18.23
-22.27
-26.45
-30.01
-32.14
-32.19
-29.93
-25.58
-19.77
-13.26
-6.77
-0.80
4.39
8.72
12.16
14.74
16.47
17.43
17.75
17.65
17.35
17.06
16.88
16.80
16.79
16.83
16.91
17.06
17.28
17.49
17.61
17.49
17.01
16.08
14.68
12.87
10.79
8.63
6.55
4.64
2.84
1.00
-1.02
-3.26
-5.59
-7.83
-9.81
-11.54
-13.20
-15.08
-17.39
-20.24
-23.57
-27.12
-30.51
-33.27
-34.91
-34.94
-33.08
-29.31
-23.92
-17.47
-10.64
-4.08
1.73
6.56
10.39
13.34
15.57
17.23
18.42
19.17
19.54
19.64
19.63
19.66
19.83
20.13
20.42
20.53
20.38
19.98
19.49
19.06
18.74
18.40
17.88
16.98
15.66
14.01
12.18
10.35
8.61
6.99
5.47
4.00
2.55
1.03
-0.64
-2.52
-4.62
-6.79
-8.87
-10.72
-12.32
-13.82
-15.46
-17.52
-20.12
-23.22
-26.60
-29.89
-32.65
-34.40
-34.73
-33.33
-30.11
-25.24
-19.16
-12.50
-5.90
0.05
4.97
8.74
11.43
13.23
14.36
15.02
15.35
15.46
15.42
15.28
15.08
14.85
14.64
14.50
14.46
14.49
14.50
14.31
13.82
12.95
11.79
10.51
9.26
8.11
6.97
5.71
4.17
2.36
0.39
-1.57
-3.42
-5.14
-6.84
-8.64
-10.55
-12.52
-14.52
-16.58
-18.83
-21.43
-24.37
-27.38
-29.90
-31.26
-30.85
-28.43
-24.17
-18.61
-12.44
-6.31
-0.70
4.10
8.00
11.00
13.14
14.49
15.20
15.42
15.36
15.20
15.06
14.97
14.91
14.81
14.63
14.36
13.98
13.50
12.92
12.21
11.34
10.31
9.13
7.84
6.47
5.07
3.66
2.22
0.70
-0.99
-2.92
-5.14
-7.61
-10.19
-12.70
-14.97
-16.92
-18.63
-20.36
-22.46
-25.21
-28.65
-32.42
-35.84
-38.02
-38.21
-36.06
-31.73
-25.81
-19.12
-12.37
-6.07
-0.45
4.41
8.47
11.67
13.96
15.42
16.22
16.64
16.90
17.14
17.32
17.35
17.19
16.86
16.52
16.34
16.37
16.58
16.83
16.91
16.65
15.90
14.57
12.66
10.23
7.40
4.28
1.00
-2.37
-5.77
-9.12
-12.31
-15.24
-17.84
-20.11
-22.17
-24.21
-26.43
-28.97
-31.84
-34.83
-37.49
-39.21
-39.36
-37.50
-33.57
-27.93
-21.26
-14.31
-7.71
-1.79
3.39
7.95
12.07
15.84
19.26
22.20
24.45
25.80
26.10
25.35
23.77
21.70
19.57
17.73
16.36
15.49
15.00
14.77
14.69
14.77
14.98
15.28
15.53
15.51
14.97
13.71
11.72
9.09
6.03
2.82
-0.34
-3.25
-5.79
-7.97
-9.94
-12.07
-14.89
-18.90
-24.30
-30.77
-37.32
-42.56
-45.07
-43.94
-39.10
-31.38
-22.22
-13.13
-5.27
0.84
5.26
8.34
10.45
11.79
12.40
12.33
11.77
11.05
10.58
10.64
11.26
12.23
13.21
13.86
14.03
13.77
13.26
12.64
11.96
11.12
9.93
8.24
6.06
3.58
1.09
-1.12
-2.90
-4.29
-5.48
-6.70
-8.13
-9.84
-11.87
-14.21
-16.86
-19.74
-22.58
-24.92
-26.18
-25.83
-23.64
-19.77
-14.73
-9.18
-3.75
1.13
5.20
8.37
10.61
11.89
12.27
11.92
11.12
10.20
9.45
9.04
8.97
9.08
9.17
9.11
8.90
8.65
8.52
8.59
8.80
8.95
8.80
8.14
6.94
5.35
3.60
1.90
0.34
-1.15
-2.81
-4.84
-7.39
-10.39
-13.55
-16.39
-18.39
-19.07
-18.14
-15.55
-11.50
-6.40
-0.80
4.71
9.59
13.48
16.22
17.89
18.69
18.87
18.56
17.85
16.77
15.37
13.79
12.24
10.90
9.92
9.31
8.97
8.75
8.44
7.87
6.95
5.67
4.10
2.37
0.61
-1.11
-2.75
-4.41
-6.23
-8.42
-11.15
-14.48
-18.21
-21.88
-24.81
-26.33
-25.95
-23.55
-19.42
-14.13
-8.38
-2.77
2.28
6.55
9.99
12.63
14.51
15.62
15.98
15.64
14.75
13.53
12.26
11.14
10.31
9.75
9.37
8.98
8.44
7.66
6.64
5.44
4.14
2.80
1.42
-0.05
-1.68
-3.51
-5.62
-8.07
-10.96
-14.36
-18.17
-22.09
-25.49
-27.66
-27.94
-26.05
-22.16
-16.87
-10.98
-5.21
-0.04
4.31
7.84
10.63
12.71
14.05
14.63
14.47
13.71
12.57
11.32
10.21
9.38
8.86
8.54
8.27
7.93
7.44
6.80
6.01
5.07
3.93
2.54
0.91
-0.92
-2.89
-4.99
-7.34
-10.12
-13.41
-17.06
-20.60
-23.32
-24.49
-23.61
-20.59
-15.81
-9.94
-3.75
2.10
7.15
11.16
14.08
15.98
17.01
17.34
17.18
16.70
16.05
15.36
14.73
14.19
13.71
13.26
12.78
12.24
11.66
11.07
10.43
9.68
8.68
7.31
5.54
3.43
1.17
-1.07
-3.20
-5.30
-7.59
-10.31
-13.66
-17.56
-21.69
-25.44
-28.09
-28.98
-27.71
-24.25
-19.00
-12.60
-5.81
0.68
6.41
11.09
14.65
17.12
18.60
19.22
19.15
18.61
17.79
16.94
16.22
15.74
15.48
15.38
15.35
15.29
15.13
14.84
14.46
13.98
13.40
12.64
11.57
10.04
7.96
5.37
2.48
-0.39
-2.93
-4.98
-6.62
-8.19
-10.16
-12.90
-16.48
-20.62
-24.69
-27.96
-29.72
-29.50
-27.15
-22.81
-16.93
-10.14
-3.19
3.24
8.68
12.89
15.87
17.73
18.60
18.57
17.76
16.35
14.67
13.11
12.05
11.65
11.80
12.23
12.61
12.70
12.43
11.91
11.23
10.44
9.51
8.32
6.76
4.81
2.55
0.21
-2.00
-3.92
-5.55
-7.06
-8.74
-10.92
-13.81
-17.42
-21.43
-25.29
-28.29
-29.71
-29.05
-26.12
-21.16
-14.79
-7.84
-1.22
4.42
8.72
11.72
13.69
14.95
15.74
16.13
16.06
15.52
14.58
13.48
12.47
11.75
11.35
11.15
10.99
10.74
10.34
9.81
9.13
8.20
6.92
5.15
2.89
0.27
-2.45
-4.98
-7.15
-8.99
-10.75
-12.77
-15.36
-18.58
-22.22
-25.74
-28.44
-29.59
-28.70
-25.59
-20.53
-14.07
-7.01
-0.13
5.96
10.89
14.56
17.01
18.38
18.82
18.50
17.63
16.48
15.32
14.42
13.90
13.71
13.68
13.57
13.18
12.47
11.57
10.65
9.88
9.26
8.64
7.81
6.55
4.79
2.59
0.11
-2.44
-4.88
-7.12
-9.21
-11.28
-13.58
-16.33
-19.68
-23.55
-27.58
-31.09
-33.32
-33.56
-31.43
-27.00
-20.78
-13.59
-6.29
0.39
6.03
10.50
13.83
16.12
17.50
18.09
18.09
17.72
17.22
16.78
16.49
16.32
16.25
16.20
16.14
16.03
15.81
15.44
14.88
14.12
13.19
12.15
10.99
9.73
8.33
6.77
5.00
3.01
0.83
-1.48
-3.76
-5.90
-7.80
-9.52
-11.27
-13.35
-16.01
-19.32
-23.07
-26.75
-29.67
-31.17
-30.77
-28.33
-23.98
-18.20
-11.62
-4.89
1.37
6.74
10.98
14.01
15.90
16.84
17.08
16.90
16.59
16.34
16.28
16.43
16.73
17.09
17.42
17.66
17.79
17.80
17.66
17.37
16.90
16.24
15.37
14.30
13.08
11.77
10.42
9.10
7.80
6.48
5.05
3.38
1.41
-0.83
-3.24
-5.64
-7.83
-9.67
-11.15
-12.39
-13.67
-15.29
-17.52
-20.43
-23.80
-27.19
-29.93
-31.35
-30.96
-28.58
-24.40
-18.94
-12.87
-6.86
-1.43
3.12
6.65
9.20
10.84
11.73
12.01
11.86
11.49
11.06
10.73
10.56
10.56
10.70
10.88
11.02
11.03
10.89
10.58
10.15
9.65
9.13
8.59
7.99
7.27
6.34
5.18
3.79
2.22
0.56
-1.12
-2.74
-4.30
-5.81
-7.30
-8.87
-10.65
-12.79
-15.39
-18.44
-21.71
-24.72
-26.87
-27.51
-26.28
-23.11
-18.42
-12.86
-7.22
-2.11
2.12
5.40
7.83
9.53
10.59
11.00
10.83
10.19
9.33
8.54
8.02
7.84
7.90
7.99
7.93
7.59
6.99
6.24
5.51
4.88
4.38
3.91
3.32
2.44
1.17
-0.49
-2.43
-4.47
-6.42
-8.20
-9.77
-11.26
-12.80
-14.59
-16.73
-19.28
-22.10
-24.90
-27.24
-28.54
-28.32
-26.28
-22.48
-17.29
-11.39
-5.46
-0.09
4.43
8.03
10.77
12.79
14.12
14.76
14.71
14.07
13.05
11.91
10.89
10.13
9.69
9.53
9.61
9.81
10.01
10.07
9.85
9.27
8.32
7.14
5.84
4.52
3.23
1.93
0.56
-0.89
-2.38
-3.85
-5.25
-6.65
-8.16
-10.00
-12.39
-15.44
-19.09
-22.98
-26.54
-29.09
-29.99
-28.87
-25.74
-20.95
-15.14
-9.01
-3.17
1.97
6.21
9.53
11.97
13.63
14.60
15.04
15.08
14.90
14.65
14.48
14.44
14.57
14.83
15.19
15.58
15.97
16.30
16.52
16.58
16.41
15.91
15.04
13.77
12.18
10.42
8.65
6.99
5.47
3.98
2.41
0.65
-1.29
-3.30
-5.21
-6.94
-8.52
-10.17
-12.15
-14.72
-17.95
-21.67
-25.46
-28.72
-30.83
-31.26
-29.78
-26.45
-21.65
-15.96
-10.06
-4.56
0.10
3.71
6.24
7.84
8.67
8.97
8.93
8.71
8.43
8.20
8.12
8.21
8.47
8.85
9.29
9.69
10.03
10.27
10.40
10.40
10.21
9.76
8.94
7.68
5.98
3.96
1.84
-0.16
-1.86
-3.26
-4.46
-5.71
-7.24
-9.24
-11.80
-14.86
-18.23
-21.52
-24.23
-25.76
-25.67
-23.76
-20.22
-15.54
-10.40
-5.42
-1.04
2.57
5.40
7.52
8.94
9.70
9.80
9.34
8.56
7.73
7.15
7.02
7.38
8.10
8.96
9.73
10.21
10.34
10.15
9.73
9.20
8.63
8.00
7.22
6.13
4.60
2.59
0.18
-2.42
-4.98
-7.33
-9.41
-11.31
-13.25
-15.48
-18.20
-21.47
-25.09
-28.62
-31.44
-32.91
-32.54
-30.11
-25.79
-19.99
-13.38
-6.64
-0.41
4.84
8.89
11.72
13.51
14.50
14.93
14.96
14.72
14.36
14.01
13.81
13.87
14.15
14.55
14.89
15.04
14.97
14.71
14.33
13.84
13.24
12.42
11.30
9.80
7.90
5.64
3.17
0.65
-1.72
-3.82
-5.62
-7.24
-8.89
-10.84
-13.32
-16.41
-19.99
-23.70
-27.05
-29.45
-30.38
-29.45
-26.58
-21.95
-16.03
-9.47
-2.96
2.90
7.74
11.39
13.93
15.54
16.45
16.88
