1537819908.00
64.000000
-0.00
-0.00
-0.00
-0.00
-0.00
-0.00
-0.00
-0.00
-0.00
-0.00
0.00
0.01
0.01
-0.00
-0.03
-0.05
-0.05
0.00
0.13
0.36
0.66
1.01
1.37
1.72
2.06
2.40
2.79
3.24
3.80
4.42
5.06
5.66
6.20
6.68
7.15
7.68
8.31
9.14
10.09
11.04
11.88
12.56
13.14
13.76
14.65
15.96
17.91
20.32
22.90
25.38
27.58
29.57
31.68
34.32
37.81
42.54
48.15
54.10
59.83
64.97
69.58
74.14
79.34
85.71
93.76
103.00
112.62
121.73
129.77
136.75
143.30
150.75
157.77
166.64
177.95
191.79
206.97
220.57
228.25
225.36
208.53
176.87
132.76
80.05
23.07
-34.94
-92.44
-149.16
-205.23
-260.37
-313.74
-363.87
-409.83
-450.91
-486.50
-515.74
-537.23
-549.22
-549.96
-538.37
-514.21
-478.68
-433.88
-382.45
-327.01
-269.82
-212.60
-156.61
-102.87
-52.27
-5.76
35.77
71.66
101.64
125.84
144.78
159.15
169.67
176.96
181.40
183.29
182.86
180.37
176.18
170.68
164.30
157.37
150.14
142.75
135.28
127.76
120.24
112.79
105.47
98.35
91.49
84.93
78.67
72.73
67.12
61.85
56.94
52.39
48.20
44.37
40.90
37.78
35.00
32.56
30.46
28.69
27.24
26.11
25.29
24.77
24.52
24.55
24.85
25.40
26.17
27.16
28.31
29.57
30.84
32.01
32.94
33.48
33.45
32.72
31.16
28.70
25.34
21.15
16.20
10.71
4.89
-0.99
-6.65
-11.84
-16.35
-20.03
-22.77
-24.57
-25.43
-25.45
-24.76
-23.50
-21.80
-19.80
-17.59
-15.25
-12.83
-10.33
-7.79
-5.23
-2.66
-0.08
2.52
5.13
7.76
10.43
13.16
15.92
18.68
21.45
24.22
27.05
29.95
32.98
36.20
39.71
43.42
47.31
51.37
55.61
60.03
64.66
69.54
74.71
80.26
85.99
91.79
97.59
103.36
109.10
114.82
120.57
126.41
132.46
138.43
144.09
149.23
153.61
156.90
158.68
158.34
155.03
150.27
144.54
138.14
131.27
124.06
116.67
109.20
101.80
94.63
87.90
81.44
75.16
69.04
63.09
57.29
51.70
46.35
41.34
36.79
32.58
28.65
25.00
21.66
18.66
16.03
13.82
12.03
10.71
9.70
8.89
8.16
7.46
6.73
5.93
5.08
4.18
3.26
2.30
1.28
0.20
-0.89
-1.95
-2.91
-3.73
-4.44
-5.03
-5.60
-6.20
-6.88
-7.63
-8.45
-9.27
-10.07
-10.83
-11.58
-12.40
-13.35
-14.45
-15.66
-16.89
-18.00
-18.93
-19.71
-20.47
-21.47
-22.94
-25.03
-27.70
-30.78
-34.00
-37.17
-40.29
-43.58
-47.45
-52.24
-58.10
-64.88
-72.12
-79.24
-85.85
-91.93
-97.92
-104.60
-112.71
-122.70
-134.47
-147.47
-160.91
-174.08
-186.72
-199.03
-211.64
-225.50
-241.76
-261.45
-284.97
-311.46
-338.43
-361.99
-377.90
-383.02
-376.58
-360.42
-338.22
-314.00
-290.73
-269.64
-250.66
-233.15
-216.75
-201.65
-188.30
-177.10
-168.01
-160.62
-154.30
-148.26
-141.55
-133.11
-121.96
-107.31
-88.91
-67.16
-43.07
-18.13
5.98
27.61
45.32
58.16
65.70
68.19
66.44
61.70
55.40
48.91
43.36
39.52
37.82
38.32
40.75
44.57
49.13
53.72
57.81
61.02
63.23
64.34
64.30
63.02
60.41
56.44
51.24
45.07
38.30
31.30
24.39
17.85
11.79
6.26
1.18
-3.68
-8.64
-14.17
-20.64
-28.21
-36.41
-44.09
-49.39
-50.21
-44.93
-33.05
-15.56
5.21
26.31
45.04
59.64
69.52
75.04
76.96
76.08
72.96
68.06
61.88
55.15
48.78
43.75
40.79
40.23
41.88
45.16
49.24
53.29
56.59
58.65
59.15
57.99
55.20
51.02
45.83
40.06
34.07
28.01
21.87
15.51
8.82
1.80
-5.29
-12.08
-18.15
-23.16
-26.99
-29.85
-32.21
-34.86
-38.59
-43.78
-50.08
-56.25
-60.28
-60.06
-54.06
-41.87
-24.38
-3.41
18.69
39.66
57.52
70.69
78.03
78.92
73.56
63.11
49.73
36.21
25.40
19.42
19.15
24.08
32.56
42.47
51.78
59.08
63.72
65.60
64.85
61.64
56.10
48.36
38.81
28.07
17.13
7.22
-0.29
-4.07
-3.09
3.05
13.87
27.96
43.23
57.33
68.14
74.08
74.36
68.77
57.53
40.97
19.44
-6.65
-36.42
-68.02
-98.31
-123.08
-138.01
-140.09
-128.80
-106.50
-77.64
-47.34
-19.74
2.85
19.83
31.58
38.64
41.35
40.02
35.42
28.98
22.67
18.39
17.44
20.00
25.27
31.79
38.06
43.04
46.35
48.19
49.00
49.06
48.30
46.31
42.68
37.33
30.69
23.62
17.04
11.57
7.24
3.60
-0.04
-4.23
-9.14
-14.49
-19.67
-24.13
-27.56
-30.03
-32.03
-34.30
-37.62
-42.58
-49.27
-57.17
-65.06
-71.22
-73.75
-71.07
-62.37
-47.93
-29.15
-8.17
12.60
31.06
45.81
56.18
62.14
64.01
62.30
57.67
50.97
43.36
36.09
30.41
27.23
26.91
29.18
33.35
38.38
43.35
47.56
50.62
52.33
52.58
51.22
48.09
43.17
36.67
29.15
21.35
14.00
7.56
2.12
-2.68
-7.34
-12.35
-17.97
-24.05
-30.18
-35.78
-40.38
-43.79
-46.27
-48.50
-51.35
-55.62
-61.49
-68.38
-74.76
-78.54
-77.62
-70.65
-57.52
-39.43
-18.58
2.61
22.01
38.21
50.53
58.79
63.03
63.43
60.36
54.54
47.10
39.38
32.73
28.10
25.92
26.02
27.86
30.66
33.68
36.40
38.49
39.86
40.50
40.36
39.30
37.13
33.70
29.05
23.55
17.80
12.48
8.05
4.56
1.69
-1.16
-4.59
-8.89
-14.03
-19.62
-25.14
-30.03
-33.95
-36.84
-38.98
-40.94
-43.46
-47.28
-52.78
-59.70
-66.93
-72.62
-74.67
-71.35
-61.92
-46.97
-28.26
-8.17
10.97
27.43
40.25
49.07
53.89
54.83
52.16
46.44
38.67
30.21
22.51
16.80
13.78
13.49
15.48
19.02
23.36
27.88
32.11
35.72
38.36
39.69
39.38
37.24
33.33
28.00
21.85
15.59
9.81
4.79
0.42
-3.63
-7.83
-12.55
-17.87
-23.64
-29.41
-34.65
-38.91
-41.94
-43.91
-45.38
-47.15
-50.07
-54.68
-60.97
-68.12
-74.66
-78.67
-78.36
-72.64
-61.46
-45.85
-27.63
-8.89
8.52
23.26
34.61
42.26
46.24
46.79
44.36
39.66
33.63
27.39
22.02
18.48
17.30
18.53
21.79
26.35
31.39
36.19
40.28
43.36
45.24
45.71
44.60
41.88
37.73
32.64
27.25
22.15
17.72
13.95
10.55
7.08
3.18
-1.24
-5.95
-10.56
-14.67
-18.10
-20.94
-23.61
-26.67
-30.61
-35.79
-42.12
-48.94
-55.02
-58.77
-58.56
-53.24
-42.59
-27.40
-9.37
9.43
27.00
41.82
53.02
60.19
63.30
62.52
58.25
51.11
41.99
31.99
22.29
13.98
7.90
4.49
3.77
5.32
8.40
12.09
15.53
17.99
19.11
18.80
17.21
14.59
11.21
7.27
2.96
-1.56
-6.17
-10.83
-15.53
-20.33
-25.26
-30.30
-35.32
-40.13
-44.58
-48.62
-52.43
-56.29
-60.51
-65.10
-69.55
-72.69
-73.02
-69.12
-60.22
-46.62
-29.68
-11.38
6.24
21.64
33.96
42.85
48.25
50.18
48.71
44.20
37.47
29.75
22.50
16.94
13.76
13.02
14.26
16.75
19.86
23.18
26.52
29.76
32.68
34.91
35.97
35.45
33.10
29.05
23.74
17.73
11.63
5.90
0.66
-4.24
-9.16
-14.59
-20.87
-27.96
-35.36
-42.04
-46.59
-47.67
-44.36
-36.47
-24.66
-10.20
5.30
20.21
33.21
43.28
49.76
52.32
51.01
46.29
39.06
30.46
21.70
13.82
7.47
2.94
0.23
-0.72
-0.11
1.86
4.80
8.14
11.14
13.02
13.23
11.55
8.15
3.48
-1.93
-7.69
-13.66
-19.92
-26.73
-34.37
-42.96
-52.25
-61.45
-69.22
-73.85
-73.66
-67.64
-55.81
-39.40
-20.51
-1.59
15.24
28.55
37.75
42.76
43.84
41.34
35.82
28.03
19.02
9.99
2.07
-3.92
-7.59
-9.02
-8.58
-6.86
-4.46
-1.95
0.11
1.27
1.18
-0.41
-3.57
-8.22
-14.07
-20.69
-27.59
-34.40
-40.92
-47.22
-53.55
-60.09
-66.71
-72.74
-76.91
-77.57
-73.24
-63.12
-47.49
-27.83
-6.46
14.18
32.07
46.04
55.79
61.56
63.77
62.80
59.03
53.07
45.87
38.75
33.05
29.72
29.10
30.78
33.88
37.37
40.46
42.68
43.86
43.96
42.94
40.62
36.81
31.42
24.63
16.94
9.04
1.67
-4.73
-10.20
-15.24
-20.65
-27.17
-35.17
-44.35
-53.72
-61.73
-66.58
-66.73
-61.28
-50.29
-34.76
-16.56
2.17
19.41
33.65
44.10
50.60
53.40
52.96
49.83
44.58
37.96
30.93
24.61
20.12
18.33
19.57
23.50
29.18
35.36
40.88
45.00
47.47
48.43
48.13
46.75
44.30
40.66
35.81
29.89
23.19
16.12
9.11
2.43
-3.78
-9.60
-15.21
-20.91
-26.93
-33.48
-40.69
-48.53
-56.74
-64.65
-71.11
-74.59
-73.57
-67.04
-54.99
-38.55
-19.82
-1.25
14.99
27.47
35.68
39.80
40.47
38.39
34.24
28.72
22.51
16.51
11.61
8.62
8.01
9.77
13.36
17.89
22.35
25.92
28.12
28.88
28.41
26.97
24.71
21.66
17.73
12.89
7.21
0.95
-5.51
-11.76
-17.48
-22.50
-26.88
-30.81
-34.50
-38.19
-41.99
-46.00
-50.28
-54.72
-59.04
-62.52
-64.07
-62.38
-56.43
-45.85
-31.19
-13.95
3.90
20.40
34.06
44.05
50.14
52.49
51.45
47.54
41.46
34.20
26.98
21.08
17.50
16.71
18.46
22.02
26.40
30.69
34.35
37.15
39.11
40.28
40.52
39.54
37.00
32.69
26.70
19.49
11.74
4.14
-2.82
-8.99
-14.53
-19.85
-25.36
-31.36
-37.91
-44.71
-51.04
-55.80
-57.68
-55.48
-48.54
-37.07
-22.17
-5.58
10.78
25.27
36.85
44.97
49.51
50.51
48.16
42.90
35.58
27.39
19.77
14.02
11.00
10.86
13.11
16.78
20.78
24.16
26.29
26.99
26.32
24.53
21.83
18.33
14.03
8.91
3.03
-3.39
-9.99
-16.35
-22.12
-27.13
-31.43
-35.26
-38.97
-42.95
-47.49
-52.80
-58.80
-65.10
-70.83
-74.77
-75.48
-71.74
-62.93
-49.39
-32.39
-13.84
4.19
20.05
32.70
41.74
47.16
49.20
48.19
44.71
39.54
33.76
28.50
24.62
22.57
22.34
23.52
25.57
28.01
30.48
32.63
34.17
34.80
34.28
32.44
29.33
25.11
20.08
14.64
9.16
4.02
-0.57
-4.55
-8.09
-11.46
-14.88
-18.45
-22.03
-25.42
-28.51
-31.36
-34.30
-37.84
-42.47
-48.52
-55.88
-63.80
-70.91
-75.37
-75.40
-69.78
-58.37
-42.25
-23.49
-4.53
12.52
26.30
36.34
42.75
45.95
46.35
44.34
40.44
35.39
30.21
26.03
23.85
24.19
26.94
31.40
36.54
41.32
45.03
47.38
48.44
48.43
47.43
45.32
41.82
36.76
30.27
22.83
15.17
8.05
2.00
-2.88
-6.87
-10.57
-14.54
-19.11
-24.19
-29.38
-34.07
-37.80
-40.46
-42.36
-44.14
-46.49
-50.01
-54.96
-61.25
-68.42
-75.52
-81.22
-83.92
-82.14
-75.00
-62.60
-46.07
-27.40
-8.78
7.90
21.41
31.25
37.42
40.16
39.84
36.89
32.01
26.20
20.67
16.59
14.81
15.52
18.38
22.60
27.30
31.74
35.52
38.53
40.75
42.19
42.72
42.14
40.33
37.28
33.25
28.66
24.02
19.69
15.86
12.43
9.13
5.66
1.81
-2.35
-6.53
-10.33
-13.40
-15.61
-17.23
-18.74
-20.83
-24.09
-28.83
-34.90
-41.61
-47.82
-52.04
-52.81
-49.07
-40.55
-27.92
-12.64
3.37
18.29
30.75
40.01
45.88
48.48
48.06
44.94
39.66
33.03
26.14
20.18
16.13
14.47
15.15
17.66
21.24
25.18
28.97
32.30
34.98
36.76
37.36
36.44
33.83
29.58
24.07
17.92
11.78
6.15
1.20
-3.20
-7.36
-11.61
-16.15
-20.96
-25.79
-30.34
-34.22
-37.29
-39.63
-41.64
-43.99
-47.39
-52.24
-58.45
-65.19
-71.01
-74.17
-73.02
-66.61
-54.97
-39.11
-20.84
-2.23
14.92
29.35
40.38
47.82
51.70
52.14
49.40
44.00
36.80
28.97
21.85
16.56
13.83
13.75
15.81
19.14
22.89
26.46
29.62
32.44
35.00
37.24
38.82
39.31
38.38
35.99
32.52
28.63
25.02
22.16
20.15
18.74
17.48
15.97
14.06
11.91
9.94
8.62
8.36
9.26
11.20
13.72
16.23
18.12
19.03
19.20
19.73
22.76
31.22
48.17
75.70
113.76
159.41
206.90
248.72
277.52
288.02
278.31
250.06
207.64
156.69
102.82
50.79
4.24
-34.34
-63.85
-84.85
-99.66
-111.75
-124.74
-141.11
-161.29
-183.75
-205.78
-224.81
-239.19
-248.49
-253.01
-253.20
-249.30
-241.52
-230.54
-217.86
-205.67
-196.07
-190.08
-187.12
-185.16
-181.83
-175.54
-166.41
-156.15
-147.26
-141.72
-140.07
-141.27
-143.26
-143.86
-141.55
-135.78
-126.83
-115.42
-102.31
-87.94
-72.09
-53.77
-31.28
-2.43
34.78
81.13
135.03
191.91
244.64
285.17
306.97
307.35
288.69
257.81
223.79
195.12
177.05
170.46
172.17
176.48
177.14
169.21
150.11
119.99
81.40
38.13
-5.92
-47.90
-86.71
-123.02
-158.57
-194.75
-231.22
-265.38
-293.18
-310.90
-317.04
-313.35
-304.27
-295.06
-289.47
-288.30
-289.27
-288.40
-281.74
-266.87
-243.06
-210.93
-171.64
-126.77
-78.37
-29.44
16.14
54.23
81.40
96.04
99.10
93.80
84.58
75.77
70.47
70.01
74.28
82.24
92.64
104.35
116.49
128.33
139.26
148.78
156.56
162.48
166.73
169.68
171.83
173.61
175.27
176.85
178.18
179.00
179.12
178.37
176.66
173.84
169.57
163.52
155.57
146.45
138.00
133.12
134.94
145.93
167.20
198.30
237.50
282.11
328.51
372.07
407.41
429.29
434.02
420.74
391.74
351.61
305.52
257.64
210.45
165.02
121.89
81.71
45.23
12.80
-16.14
-43.06
-69.83
-98.06
-128.58
-161.32
-195.59
-230.48
-265.17
-299.02
-331.42
-361.66
-388.81
-411.84
-429.97
-442.90
-450.99
-455.12
-456.42
-456.04
-454.95
-453.61
-451.60
-447.36
-438.23
-421.20
-393.90
-355.60
-307.52
-252.27
-192.90
-132.04
-71.82
-14.45
37.34
80.26
111.40
129.49
135.64
133.15
126.36
119.09
113.71
110.96
110.46
111.40
113.07
114.94
116.50
117.12
116.03
112.50
106.05
96.63
84.79
71.44
57.75
44.64
32.59
21.44
10.54
-0.99
-13.90
-28.58
-44.69
-61.02
-75.40
-84.99
-86.99
-79.56
-62.62
-38.12
-9.58
18.97
44.10
63.74
77.32
85.24
88.31
87.24
82.55
74.78
64.72
53.48
42.56
33.45
27.36
24.97
26.19
30.26
35.96
41.95
47.12
50.70
52.41
52.29
50.56
47.54
43.62
39.21
34.71
30.38
26.22
21.85
16.69
10.33
3.12
-3.42
-6.63
-3.50
8.35
29.50
58.37
91.57
125.01
155.16
179.82
198.34
211.11
218.93
222.63
223.12
221.64
219.77
219.15
220.76
224.18
227.22
226.26
217.15
196.58
163.16
117.93
63.97
5.50
-53.24
-109.00
-159.77
-204.71
-243.67
-276.93
-305.03
-328.70
-348.50
-364.27
-374.56
-376.56
-366.84
-342.78
-304.02
-253.31
-196.00
-138.60
-86.75
-43.90
-10.87
13.38
30.56
42.04
48.51
50.27
47.79
42.15
35.12
28.68
24.53
23.54
25.58
29.71
34.64
39.15
42.57
44.70
45.74
45.88
45.13
43.11
39.21
32.76
23.25
10.46
-5.38
-23.47
-42.22
-59.19
-71.23
-75.29
-69.33
-53.27
-29.18
-0.83
27.47
52.16
71.14
83.95
91.13
93.62
92.16
87.34
79.72
70.18
59.94
50.34
42.66
37.66
35.54
35.84
37.63
39.70
40.92
40.52
38.19
34.20
29.01
23.16
16.91
10.24
2.89
-5.46
-15.03
-25.97
-38.21
-51.37
-64.35
-75.22
-81.43
-80.39
-70.51
-51.87
-26.62
1.73
29.24
52.77
70.58
82.31
88.54
90.10
87.75
82.13
74.06
64.56
54.92
46.41
39.96
35.99
34.26
34.21
35.12
36.47
37.97
39.45
40.70
41.24
40.39
37.37
31.77
23.71
13.98
3.80
-5.62
-13.49
-19.78
-25.12
-30.71
-37.80
-47.32
-59.42
-73.10
-86.10
-95.25
-97.30
-89.98
-72.98
-48.24
-19.43
9.13
33.85
52.64
65.16
72.24
75.12
74.83
72.00
66.94
60.08
52.11
44.01
36.89
31.74
29.11
29.01
30.98
34.18
37.75
40.96
43.25
44.32
43.96
42.08
38.63
33.73
27.69
20.92
13.82
6.65
-0.50
-7.62
-14.66
-21.44
-27.68
-33.23
-38.12
-42.74
-47.78
-54.07
-62.29
-72.57
-84.03
-94.61
-101.38
-101.30
-92.30
-74.14
-48.75
-19.66
9.05
34.01
53.31
66.53
74.21
77.18
76.10
71.42
63.66
53.71
42.92
32.88
25.07
20.49
19.35
21.15
24.84
29.18
33.09
35.86
37.18
37.08
35.68
33.02
28.99
23.42
16.26
7.76
-1.46
-10.51
-18.54
-25.00
-29.87
-33.61
-37.02
-40.90
-45.92
-52.46
-60.52
-69.65
-78.74
-86.01
-89.17
-85.97
-75.04
-56.48
-32.10
-5.04
21.17
43.59
60.55
71.76
77.83
79.75
78.42
74.47
68.41
60.86
52.64
44.71
37.98
33.10
30.36
29.69
30.78
33.10
36.05
38.96
41.18
42.12
41.44
39.03
35.11
30.03
24.21
17.94
11.33
4.37
-3.02
-10.85
-18.97
-27.04
-34.66
-41.46
-47.25
-52.11
-56.49
-61.08
-66.71
-73.95
-82.67
-91.71
-98.79
-101.02
-95.87
-82.13
-60.60
-33.97
-5.98
19.68
40.46
55.26
64.27
68.39
68.56
65.55
59.94
52.40
43.73
34.97
27.16
21.18
17.52
16.25
17.12
19.58
23.02
26.83
30.41
33.21
34.73
34.56
32.54
28.84
23.90
18.33
12.72
7.37
2.24
-2.94
-8.49
-14.56
-20.97
-27.30
-33.07
-37.88
-41.73
-45.01
-48.53
-53.20
-59.66
-67.72
-76.08
-82.38
-83.82
-78.08
-64.35
-43.75
-19.14
5.85
27.89
44.86
56.12
62.17
63.94
62.31
57.88
51.05
42.37
32.64
22.96
14.40
7.94
4.11
3.04
4.43
7.70
12.10
16.85
21.23
24.63
26.69
27.21
26.20
23.77
20.05
15.21
9.35
2.65
-4.66
-12.22
-19.60
-26.37
-32.26
-37.25
-41.57
-45.65
-50.00
-55.11
-61.25
-68.31
-75.49
-81.23
-83.40
-79.89
-69.36
-51.93
-29.41
-4.76
18.71
38.32
52.56
61.11
64.37
63.02
57.77
49.34
38.67
27.02
15.80
6.29
-0.60
-4.61
-5.95
-5.13
-2.75
0.66
4.61
8.57
11.93
14.04
14.33
12.49
8.63
3.24
-2.90
-8.99
-14.44
-19.06
-23.12
-27.27
-32.33
-38.87
-46.89
-55.45
-62.70
-66.27
-63.95
-54.57
-38.51
-17.75
4.66
25.52
42.33
53.83
59.91
61.24
58.74
53.20
45.26
35.54
24.78
13.94
4.08
-3.82
-9.06
-11.40
-11.04
-8.60
-4.99
-1.27
1.54
2.68
1.80
-0.99
-5.18
-10.13
-15.22
-20.03
-24.45
-28.64
-32.99
-38.04
-44.35
-52.12
-60.81
-68.86
-73.90
-73.37
-65.43
-49.88
-28.38
-4.13
19.23
38.63
52.34
60.11
62.72
61.42
57.27
51.02
43.12
34.00
24.25
14.64
6.13
-0.50
-4.74
-6.56
-6.36
-4.85
-2.88
-1.17
-0.31
-0.64
-2.30
-5.23
-9.25
-14.05
-19.29
-24.64
-29.87
-34.99
-40.32
-46.47
-54.09
-63.36
-73.49
-82.46
-87.39
-85.47
-75.08
-56.62
-32.58
-6.75
17.10
36.27
49.61
57.29
60.14
59.05
54.70
47.73
38.98
29.65
21.08
14.45
10.42
8.96
9.49
11.21
13.41
15.69
17.92
20.02
21.73
22.48
21.56
18.40
12.91
5.61
-2.51
-10.37
-17.17
-22.70
-27.34
-31.91
-37.32
-44.37
-53.33
-63.73
-74.14
-82.30
-85.54
-81.65
-69.68
-50.48
-26.58
-1.48
21.55
40.25
53.72
62.23
66.51
67.27
64.94
59.80
52.31
43.37
34.29
26.59
21.53
19.80
21.29
25.16
30.15
35.01
38.75
40.93
41.53
40.82
39.01
36.15
32.08
26.56
19.52
11.18
2.11
-6.92
-15.12
-21.99
-27.44
-31.72
-35.38
-39.01
-43.20
-48.42
-55.03
-62.94
-71.37
-78.62
-82.30
-79.97
-70.05
-52.65
-29.79
-4.80
18.71
38.00
51.74
60.01
63.63
63.61
60.63
55.16
47.67
38.90
29.94
22.09
16.43
13.64
13.82
16.43
20.57
25.22
29.48
32.72
34.62
35.07
34.09
31.78
28.22
23.61
18.27
12.49
6.61
0.81
-4.83
-10.27
-15.43
-20.15
-24.26
-27.69
-30.64
-33.54
-37.03
-41.83
-48.33
-56.38
-65.00
-72.31
-75.96
-73.78
-64.58
-48.71
-28.20
-6.05
14.61
31.45
43.39
50.52
53.48
53.01
49.58
43.53
35.38
26.09
17.15
10.13
6.35
6.30
9.54
14.77
20.32
24.77
27.29
27.87
27.01
25.36
23.33
20.81
17.38
12.58
6.30
-1.02
-8.53
-15.24
-20.49
-24.14
-26.60
-28.67
-31.16
-34.75
-39.81
-46.37
-54.00
-61.66
-67.73
-70.17
-67.10
-57.52
-41.79
-21.79
-0.31
19.74
36.20
48.04
55.21
58.27
57.91
54.62
48.91
41.37
32.93
24.77
18.08
13.75
12.16
13.09
15.85
19.58
23.43
26.72
29.00
29.97
29.47
27.38
23.77
18.88
13.18
7.22
1.51
-3.68
-8.39
-12.88
-17.49
-22.41
-27.53
-32.51
-36.91
-40.42
-43.03
-45.18
-47.57
-51.07
-56.32
-63.42
-71.54
-78.89
-82.98
-81.39
-72.65
-56.88
-35.88
-12.64
9.70
28.67
43.04
52.71
58.25
60.32
59.46
56.01
50.44
43.48
36.18
29.74
25.14
22.99
23.30
25.61
29.14
33.05
36.68
39.56
41.45
42.24
41.95
40.61
38.32
35.20
31.36
26.90
21.89
16.47
10.83
5.28
0.15
-4.32
-8.10
-11.43
-14.70
-18.32
-22.48
-27.08
-31.79
-36.09
-39.56
-42.05
-43.72
-45.07
-46.81
-49.72
-54.44
-61.20
-69.53
-78.07
-84.58
-86.50
-81.70
-69.33
-50.30
-27.08
-3.01
18.80
36.18
48.33
55.48
58.43
58.11
55.27
50.55
44.60
38.19
32.17
27.35
24.40
23.65
25.00
27.98
31.80
35.61
38.77
40.92
42.01
42.17
41.47
39.83
37.04
32.96
27.67
21.59
15.34
9.53
4.54
0.41
-3.12
-6.42
-9.83
-13.48
-17.32
-21.16
-24.79
-28.01
-30.72
-32.96
-34.86
-36.70
-38.86
-41.80
-46.03
-51.83
-59.09
-66.93
-73.61
-76.80
-74.31
-64.84
-48.71
-27.90
-5.46
15.47
32.56
44.80
52.30
55.78
55.93
53.17
47.80
40.30
31.57
22.90
15.72
11.10
9.48
10.54
13.40
17.04
20.71
24.04
27.02
29.69
31.92
33.30
33.26
31.32
27.46
22.14
16.20
10.54
5.77
1.98
-1.28
-4.67
-8.69
-13.43
-18.42
-22.88
-26.04
-27.54
-27.63
-27.14
-27.12
-28.56
-32.08
-37.73
-44.91
-52.30
-58.09
-60.24
-57.11
-48.02
-33.61
-15.78
2.90
19.98
33.80
43.67
49.72
52.39
52.07
49.02
43.55
36.21
27.98
20.07
13.61
9.34
7.43
7.52
8.99
11.23
13.87
16.66
19.39
21.65
22.89
22.49
20.11
15.87
10.46
4.84
-0.13
-4.05
-7.12
-10.00
-13.42
-17.86
-23.23
-28.99
-34.30
-38.44
-41.10
-42.46
-43.19
-44.23
-46.57
-50.88
-57.23
-64.76
-71.71
-75.66
-74.29
-66.15
-51.31
-31.54
-9.73
10.99
28.14
40.45
47.85
50.96
50.57
47.37
41.87
34.65
26.58
18.79
12.43
8.40
7.08
8.25
11.23
15.21
19.44
23.42
26.87
29.63
31.48
32.12
31.16
28.37
23.82
18.00
11.73
5.88
1.08
-2.53
-5.36
-8.13
-11.53
-15.90
-21.00
-26.22
-30.89
-34.53
-37.09
-38.96
-40.79
-43.32
-47.19
-52.72
-59.63
-66.85
-72.56
-74.43
-70.46
-59.70
-42.86
-22.19
-0.79
18.39
33.43
43.79
49.90
52.64
52.68
50.33
45.70
39.11
31.31
23.55
17.23
13.39
12.46
14.06
17.32
21.14
24.69
27.54
29.67
31.22
32.21
32.42
31.40
28.76
24.44
18.85
12.79
7.18
2.68
-0.59
-3.08
-5.58
-8.83
-13.18
-18.42
-23.90
-28.82
-32.59
-35.04
-36.44
-37.49
-39.01
-41.73
-46.13
-52.17
-59.20
-65.82
-70.12
-70.04
-64.10
-51.97
-34.74
-14.72
5.24
22.67
36.08
45.06
50.01
51.59
50.28
46.37
40.20
32.41
24.10
16.66
11.32
8.83
9.14
11.53
14.98
18.56
21.73
24.39
26.62
28.48
29.73
29.88
28.41
25.18
20.51
15.19
10.17
6.11
3.08
0.60
-2.09
-5.64
-10.21
-15.35
-20.29
-24.24
-26.80
-28.10
-28.82
-29.92
-32.37
-36.88
-43.61
-52.01
-60.68
-67.51
-70.20
-66.95
-57.13
-41.66
-22.76
-3.24
14.33
28.33
38.25
44.36
47.20
47.16
44.43
39.22
32.14
24.22
16.85
11.31
8.42
8.27
10.25
13.44
16.85
19.88
22.28
24.12
25.50
26.35
26.37
25.17
22.43
18.19
12.92
7.37
2.32
-1.75
-4.86
-7.51
-10.41
-14.13
-18.86
-24.23
-29.52
-33.99
-37.17
-39.11
-40.37
-41.81
-44.37
-48.78
-55.30
-63.50
-72.09
-78.98
-81.71
-78.19
-67.40
-50.02
-28.31
-5.48
15.39
32.15
44.00
51.29
54.82
55.35
53.30
48.94
42.68
35.30
27.93
21.78
17.77
16.30
17.19
19.78
23.28
26.91
30.20
32.89
34.90
36.14
36.39
35.33
32.63
28.21
22.34
15.72
9.20
3.49
-1.12
-4.89
-8.45
-12.43
-17.17
-22.49
-27.78
-32.32
-35.63
-37.67
-38.91
-40.18
-42.42
-46.41
-52.56
-60.57
-69.33
-76.86
-80.70
-78.55
-69.13
-52.75
-31.36
-8.02
14.01
32.23
45.37
53.43
57.10
57.29
54.73
49.90
43.32
35.72
28.17
21.88
17.87
16.64
18.02
21.28
25.41
29.53
33.16
36.13
38.50
40.21
41.02
40.46
38.09
33.79
27.85
20.99
14.19
8.29
3.72
0.34
-2.50
-5.67
-9.84
-15.20
-21.34
-27.48
-32.76
-36.64
-39.09
-40.59
-41.91
-43.90
-47.30
-52.56
-59.60
-67.55
-74.76
-78.98
-77.94
-70.22
-55.88
-36.58
-15.12
5.49
22.90
35.90
44.36
48.74
49.62
47.45
42.57
35.49
27.10
18.64
11.45
6.67
4.88
6.08
9.76
15.11
21.28
27.51
33.15
37.65
40.54
41.37
39.85
35.96
30.12
23.15
16.12
10.06
5.56
2.61
0.56
-1.60
-4.85
-9.68
-15.95
-22.96
-29.76
-35.56
-40.00
-43.28
-46.04
-49.16
-53.49
-59.55
-67.23
-75.58
-82.76
-86.51
-84.79
-76.50
-62.11
-43.53
-23.57
-5.01
10.13
20.96
27.49
30.12
29.26
25.21
18.41
9.74
0.69
-6.83
-10.95
-10.42
-5.01
4.44
16.37
29.03
41.02
51.51
60.19
66.99
71.82
74.42
74.48
71.86
66.86
60.19
52.88
45.95
40.04
35.22
31.06
26.80
21.76
15.69
8.91
2.20
-3.63
-8.08
-11.27
-13.86
-16.75
-20.80
-26.55
-34.16
-43.30
-53.06
-61.86
-67.58
-68.03
-61.72
-48.51
-29.95
-8.85
11.60
28.84
41.54
49.61
53.69
54.47
52.37
47.61
40.52
31.93
23.15
15.76
11.08
9.74
11.52
15.46
20.29
24.82
28.39
30.85
32.39
33.26
33.50
32.85
30.94
27.50
22.63
16.89
11.08
5.93
1.89
-1.11
-3.53
-6.08
-9.36
-13.61
-18.62
-23.80
-28.41
-31.92
-34.25
-35.76
-37.19
-39.33
-42.84
-48.02
-54.75
-62.36
-69.51
-74.33
-74.73
-69.10
-56.94
-39.27
-18.48
2.44
20.77
34.83
44.14
49.14
50.65
49.37
45.83
40.42
33.75
26.68
20.28
15.57
13.20
13.28
15.36
18.70
22.51
26.20
29.50
32.32
34.56
35.95
36.04
34.38
30.76
25.37
18.89
12.26
6.30
1.51
-2.25
-5.51
-9.00
-13.20
-18.12
-23.24
-27.83
-31.29
-33.47
-34.73
-35.80
-37.52
-40.60
-45.38
-51.72
-58.84
-65.25
-68.95
-67.89
-60.73
-47.40
-29.40
-9.31
9.97
26.11
37.92
45.30
48.80
49.13
46.80
42.17
35.69
28.09
20.52
14.19
10.17
8.99
10.55
14.12
18.61
22.98
26.51
28.92
30.26
30.68
30.19
28.60
25.61
21.17
15.57
9.47
3.64
-1.33
-5.35
-8.80
-12.43
-16.84
-22.27
-28.38
-34.37
-39.34
-42.66
-44.33
-44.96
-45.66
-47.62
-51.67
-58.04
-66.02
-73.96
-79.54
-80.33
-74.51
-61.64
-42.87
-20.75
1.56
21.21
36.47
46.79
52.58
54.64
53.67
50.15
44.53
37.40
29.74
22.74
17.56
14.98
15.27
18.11
22.75
28.25
33.73
38.57
42.46
45.31
47.15
47.93
47.40
45.29
41.41
35.91
29.34
22.57
16.45
11.49
7.67
4.43
0.97
-3.34
-8.75
-14.95
-21.21
-26.70
-30.86
-33.57
-35.26
-36.69
-38.66
-41.90
-46.84
-53.44
-60.98
-67.96
-72.22
-71.48
-64.12
-49.95
-30.46
-8.45
12.87
30.90
44.31
53.02
57.70
59.09
57.65
53.50
46.85
38.25
28.82
20.00
13.23
9.41
8.72
10.56
13.89
17.65
21.12
24.08
26.67
29.11
31.33
32.91
33.16
31.47
27.70
22.34
16.37
10.89
6.65
3.72
1.48
-1.03
-4.68
-9.81
-16.11
-22.73
-28.70
-33.36
-36.60
-38.92
-41.20
-44.36
-49.16
-55.94
-64.47
-73.80
-82.19
-87.38
-87.12
-79.92
-65.71
-46.07
-23.83
-2.14
16.37
30.31
39.43
44.26
45.51
43.77
39.48
33.14
25.48
17.48
10.20
4.56
1.17
0.22
1.55
4.77
9.31
14.52
19.71
24.16
27.26
28.57
27.88
25.29
21.20
16.25
11.04
6.02
1.34
-3.17
-7.80
-12.76
-17.95
-22.96
-27.29
-30.55
-32.71
-34.13
-35.53
-37.73
-41.50
-47.20
-54.51
-62.28
-68.53
-70.87
-67.29
-56.92
-40.53
-20.38
0.56
19.51
34.67
45.35
51.69
54.11
52.94
48.44
41.02
31.58
21.48
12.33
5.51
1.81
1.27
3.26
6.83
11.00
15.08
18.67
21.56
23.57
24.45
23.84
21.43
17.15
11.30
4.56
-2.18
-8.13
-12.87
-16.50
-19.56
-22.88
-27.24
-33.11
-40.40
-48.41
-55.74
-60.53
-60.86
-55.31
-43.57
-26.61
-6.58
13.78
31.94
46.14
55.65
60.46
60.96
57.63
51.04
42.03
31.81
21.92
13.77
8.40
5.99
6.02
7.48
9.33
10.83
11.66
11.87
11.57
10.72
9.10
6.39
2.33
-3.03
-9.30
-15.87
-22.11
-27.65
-32.51
-37.16
-42.38
-48.99
-57.45
-67.34
-77.16
-84.42
-86.31
-80.66
-66.88
-46.38
-22.13
2.22
23.65
40.42
52.22
59.63
63.39
63.99
61.65
56.61
49.46
41.34
33.57
27.46
23.80
22.74
23.75
25.98
28.53
30.79
32.53
33.81
34.64
34.83
33.84
31.04
26.12
19.37
11.71
4.38
-1.61
-5.89
-8.97
-12.02
-16.37
-23.10
-32.55
-44.10
-56.11
-66.12
-71.40
-69.71
-60.15
-43.53
-22.31
0.19
20.78
37.31
48.97
56.07
59.42
59.77
57.51
52.83
46.05
37.90
29.53
22.30
17.30
15.07
15.36
17.31
19.78
21.85
23.08
23.54
23.58
23.51
23.25
22.31
20.03
15.87
9.78
2.33
-5.52
-12.73
-18.52
-22.67
-25.51
-27.74
-30.26
-33.88
-39.19
-46.35
-54.87
-63.43
-69.93
-71.98
-67.60
-56.03
-38.20
-16.52
5.76
25.62
41.02
51.25
56.72
58.36
57.12
53.66
48.39
41.69
34.14
26.55
19.93
15.24
13.12
13.63
16.27
20.02
23.74
26.45
27.49
26.70
24.22
20.39
15.56
9.98
3.81
-2.87
-9.96
-17.29
-24.53
-31.30
-37.29
-42.30
-46.38
-49.76
-52.85
-56.12
-60.05
-65.06
-71.38
-78.75
-86.11
-91.59
-92.83
-87.70
-75.23
-56.10
-32.64
-8.12
14.28
32.35
45.21
53.08
56.77
57.23
55.21
51.41
46.57
41.58
37.32
34.52
33.55
34.40
36.76
40.19
44.35
49.06
54.19
59.55
64.62
68.60
70.46
69.26
64.48
56.29
45.56
33.58
21.63
10.62
0.86
-7.87
-15.98
-23.73
-30.97
-37.21
-41.92
-44.78
-45.99
-46.32
-46.86
-48.72
-52.72
-59.07
-67.15
-75.36
-81.40
-82.70
-77.25
-64.38
-45.15
-22.13
1.41
22.40
38.96
50.52
57.60
61.22
62.34
61.60
59.48
56.41
52.97
49.70
46.91
44.47
41.91
38.65
34.39
29.35
24.12
19.48
15.99
13.85
12.84
12.56
12.59
12.62
12.45
11.89
10.82
9.25
7.30
5.20
3.29
1.79
0.78
0.20
-0.24
-0.79
-1.67
-2.93
-4.37
-5.70
-6.59
-6.88
-6.63
-6.21
-6.11
-6.83
-8.78
-12.07
-16.35
-20.62
-23.25
-22.29
-16.12
-4.08
13.06
33.26
53.86
72.49
87.71
99.27
107.84
114.41
119.83
124.67
129.28
134.06
139.41
145.68
152.85
160.51
167.95
174.47
179.60
183.36
186.05
188.04
189.53
190.46
190.56
189.54
187.28
183.86
179.43
174.16
168.19
161.80
155.46
149.88
145.74
143.22
141.66
139.39
134.04
123.35
106.07
82.51
54.52
24.80
-4.23
-31.30
-56.65
-81.60
-107.76
-136.05
-166.28
-197.41
-227.92
-256.72
-283.48
-308.73
-333.66
-359.95
-389.63
-424.64
-465.86
-511.76
-557.50
-595.29
-616.26
-613.43
-584.25
-531.72
-463.22
-387.99
-314.34
-247.97
-191.71
-146.24
-111.17
-85.40
-67.27
-54.47
-44.36
-34.58
-23.76
-11.78
0.45
11.30
19.28
23.53
24.18
22.40
20.06
19.23
21.49
27.60
37.16
49.02
61.59
73.49
83.83
92.27
98.83
103.59
106.42
106.99
104.98
100.34
93.50
85.31
76.87
69.31
63.39
59.46
57.35
56.50
56.14
55.53
54.18
51.93
48.88
45.27
41.39
37.38
33.32
29.18
24.90
20.48
15.88
11.08
6.02
0.79
-4.36
-8.85
-11.89
-12.58
-10.21
-4.55
4.03
14.55
25.71
36.13
44.72
50.79
54.05
54.50
52.30
47.76
41.34
33.79
26.00
19.03
13.75
10.65
9.72
10.39
11.80
13.02
13.32
12.37
10.30
7.55
4.66
2.10
-0.04
-1.90
-3.87
-6.37
-9.72
-13.97
-18.87
-23.89
-28.19
-30.89
-31.15
-28.46
-22.73
-14.41
-4.32
6.42
16.62
25.32
31.72
35.37
36.06
33.93
29.36
23.04
15.87
8.83
2.86
-1.40
-3.64
-4.08
-3.32
-2.08
-1.00
-0.41
-0.33
-0.58
-1.02
-1.71
-2.90
-4.97
-8.30
-13.15
-19.56
-27.28
-35.65
-43.62
-49.76
-52.57
-50.94
-44.49
-33.74
-20.06
-5.21
9.08
21.48
31.20
37.92
41.66
42.61
41.04
37.35
32.07
25.84
19.36
13.34
8.37
4.83
2.87
2.36
2.94
4.08
5.18
5.68
5.12
3.27
0.14
-4.00
-8.70
-13.47
-17.98
-22.13
-26.25
-30.89
-36.69
-43.97
-52.38
-60.79
-67.41
-70.26
-67.81
-59.51
-46.03
-29.11
-11.02
6.15
20.97
32.77
41.59
47.68
51.37
52.87
52.38
50.20
46.84
42.92
39.07
35.79
33.40
32.00
31.52
31.75
32.34
32.96
33.29
33.19
32.64
31.65
30.15
27.97
24.82
20.50
15.11
9.02
2.84
-2.88
-7.83
-12.09
-16.05
-20.29
-25.39
-31.78
-39.63
-48.66
-58.03
-66.28
-71.60
-72.23
-67.06
-56.09
-40.48
-22.29
-3.76
13.19
27.47
38.66
46.92
52.62
56.12
57.71
57.68
56.30
53.94
50.96
47.72
44.54
41.68
39.31
37.59
36.58
36.29
36.62
37.32
38.04
38.30
37.68
35.86
32.86
28.96
24.64
20.37
16.43
12.77
9.11
5.10
0.52
-4.50
-9.64
-14.44
-18.59
-22.12
-25.40
-29.08
-33.82
-40.01
-47.55
-55.65
-62.90
-67.49
-67.73
-62.51
-51.79
-36.67
-19.19
-1.68
13.88
26.31
35.37
41.45
45.21
47.21
47.73
46.96
45.06
42.42
39.55
37.04
35.32
34.54
34.57
35.10
35.85
36.63
37.43
38.30
39.19
39.88
39.97
39.00
36.69
33.06
28.45
23.41
18.55
14.30
10.85
8.04
5.52
2.78
-0.58
-4.68
-9.32
-14.07
-18.38
-21.95
-24.79
-27.31
-30.14
-33.91
-39.05
-45.58
-53.00
-60.30
-66.03
-68.63
-66.81
-60.04
-48.68
-34.10
-18.14
-2.73
10.73
21.56
29.74
35.61
39.56
41.85
42.55
41.76
39.67
36.70
33.39
30.31
27.93
26.45
25.85
25.93
26.41
27.09
27.78
28.35
28.64
28.45
27.52
25.68
22.91
19.42
15.64
12.01
8.87
6.30
4.14
2.02
-0.42
-3.41
-6.92
-10.68
-14.31
-17.44
-19.83
-21.53
-22.79
-24.05
-25.83
-28.61
-32.65
-37.86
-43.68
-49.10
-52.71
-53.11
-49.33
-41.20
-29.54
-15.89
-2.11
10.24
20.19
27.49
32.28
34.91
35.63
34.61
32.08
28.38
24.03
19.66
15.77
12.74
10.72
9.69
9.57
10.21
11.42
13.04
14.90
16.82
18.59
19.91
20.47
20.00
18.39
15.78
12.53
9.12
5.96
3.22
0.79
-1.63
-4.38
-7.65
-11.34
-15.15
-18.73
-21.83
-24.37
-26.53
-28.65
-31.11
-34.24
-38.22
-42.96
-48.07
-52.72
-55.82
-56.22
-53.01
-45.88
-35.26
-22.30
-8.56
4.36
15.26
23.50
29.08
32.32
33.69
33.57
32.19
29.76
26.60
23.14
19.92
17.34
15.63
14.74
14.45
14.59
15.02
15.77
16.81
18.05
19.22
19.94
19.84
18.68
16.46
13.43
9.96
6.44
3.11
-0.05
-3.24
-6.75
-10.77
-15.27
-19.99
-24.50
-28.39
-31.48
-33.85
-35.78
-37.63
-39.78
-42.49
-45.87
-49.79
-53.78
-56.90
-58.00
-55.93
-50.02
-40.43
-28.15
-14.74
-1.73
9.72
19.12
26.42
31.77
35.26
36.84
36.59
34.75
31.81
28.41
25.09
22.19
19.86
18.08
16.84
16.19
16.17
16.70
17.58
18.49
19.08
19.05
18.27
16.69
14.45
11.83
9.14
6.62
4.39
2.32
0.12
-2.51
-5.68
-9.21
-12.77
-15.95
-18.54
-20.61
-22.50
-24.67
-27.59
-31.53
-36.51
-42.12
-47.50
-51.49
-52.83
-50.61
-44.54
-35.16
-23.66
-11.52
-0.08
9.77
17.58
23.28
26.98
28.78
28.77
27.03
23.80
19.49
14.69
10.05
6.19
3.57
2.36
2.50
3.64
5.38
7.32
9.11
10.56
11.55
12.08
12.09
11.51
10.18
8.02
5.02
1.41
-2.44
-6.11
-9.33
-12.06
-14.58
-17.30
-20.59
-24.65
-29.31
-34.24
-38.87
-42.58
-44.61
-44.27
-41.06
-34.87
-26.20
-15.98
-5.41
4.45
12.89
19.60
24.55
27.77
29.22
28.82
26.59
22.85
18.17
13.37
9.23
6.29
4.73
4.34
4.69
5.28
5.79
6.10
6.23
6.26
6.13
5.65
4.51
2.49
-0.43
-4.02
-7.85
-11.45
-14.55
-17.12
-19.46
-22.02
-25.26
-29.45
-34.48
-39.86
-44.72
-47.92
-48.45
-45.60
-39.33
-30.24
-19.51
-8.55
1.39
9.49
15.44
19.24
21.04
20.91
18.93
15.27
10.37
4.99
-0.03
-3.89
-6.11
-6.52
-5.31
-2.79
0.62
4.45
8.28
11.89
15.37
19.00
23.02
27.37
31.56
34.96
37.23
38.64
39.99
42.32
46.23
51.64
57.96
64.69
71.91
80.43
91.28
104.99
121.16
138.63
156.20
173.23
189.59
205.01
218.11
225.94
224.57
210.55
182.32
140.97
89.88
33.36
-24.41
-80.16
-131.40
-176.06
-212.40
-239.25
-256.39
-264.73
-266.04
-262.28
-255.07
-245.62
-234.98
-224.35
-215.28
-209.30
-207.67
-210.85
-218.27
-228.24
-238.01
-244.39
-244.44
-236.54
-220.91
-199.59
-175.55
-151.45
-128.53
-106.32
-83.12
-57.07
-27.02
7.16
44.98
85.78
128.94
173.66
218.74
262.46
302.64
336.76
362.15
376.41
377.99
366.93
345.42
317.64
288.70
263.08
243.23
229.08
218.76
209.99
201.18
191.81
181.70
170.24
155.95
137.19
112.99
83.91
52.00
19.99
-9.88
-36.76
-61.30
-84.90
-108.55
-131.86
-152.91
-168.95
-177.65
-178.12
-171.43
-160.17
-147.48
-136.04
-127.62
-123.11
-122.87
-127.10
-135.78
-148.43
-163.70
-179.30
-192.20
-199.37
-198.59
-189.11
-172.02
-149.86
-125.87
-102.99
-83.17
-67.01
-54.17
-43.88
-35.45
-28.49
-22.73
-17.79
-13.08
-8.04
-2.42
3.48
8.92
13.11
15.61
16.67
17.07
17.81
19.55
22.29
25.36
27.82
28.86
28.24
26.39
24.14
22.47
22.30
24.47
29.81
39.02
52.53
70.17
91.36
115.35
141.80
170.87
202.78
236.95
271.33
302.33
325.95
339.27
341.76
335.49
324.04
310.81
297.36
282.96
265.30
241.79
211.08
173.65
131.70
88.24
46.14
7.53
-26.59
-55.96
-80.81
-101.60
-118.96
-133.79
-147.24
-160.53
-174.44
-188.91
-202.81
-214.41
-222.01
-224.80
-223.25
-218.87
-213.20
-207.03
-199.78
-189.83
-175.49
-156.09
-132.64
-107.64
-84.18
-64.80
-50.59
-40.85
-33.43
-25.59
-14.97
-0.32
18.16
39.03
60.24
79.77
96.31
109.38
119.14
125.96
130.08
131.49
130.10
126.05
119.88
112.55
105.23
99.02
94.81
93.09
93.94
97.20
102.52
109.58
118.16
128.18
139.48
151.71
164.16
175.93
186.19
194.57
201.36
207.40
213.77
221.38
230.86
242.50
256.41
272.48
290.16
308.02
323.76
334.43
337.27
330.63
314.54
290.69
261.75
230.48
198.98
168.45
139.21
111.14
83.86
56.93
29.88
2.36
-25.75
-54.15
-82.25
-109.33
-134.89
-158.92
-181.93
-204.60
-227.43
-250.44
-273.03
-294.32
-313.71
-331.30
-348.05
-365.48
-385.06
-407.48
-432.31
-458.17
-483.31
-506.28
-526.52
-544.45
-561.25
-578.74
-599.12
-624.48
-655.67
-691.00
-725.43
-751.18
-759.98
-746.20
-709.24
-653.89
-588.44
-521.31
-458.32
-401.63
-350.73
-304.46
-262.39
-225.08
-193.09
-165.86
-141.47
-117.29
-91.31
-63.13
-34.03
-6.45
17.41
36.68
52.30
66.63
82.49
101.85
125.07
150.72
176.45
200.05
220.41
238.00
254.52
272.14
292.77
317.68
347.27
380.83
416.21
449.64
476.32
491.68
493.09
481.11
459.29
432.72
405.68
380.12
355.30
329.15
299.99
267.90
234.68
202.83
174.19
149.11
126.68
105.48
84.45
63.26
42.36
22.42
3.86
-13.34
-29.60
-45.36
-60.65
-74.92
-87.08
-95.87
-100.39
-100.47
-96.85
-90.98
-84.56
-78.97
-74.82
-71.84
-69.00
-65.09
-59.20
-51.07
-41.33
-31.13
-21.81
-14.27
-8.73
-4.68
-1.30
2.19
6.25
11.01
16.59
23.18
30.81
38.73
44.94
46.21
38.98
20.58
-9.84
-51.08
-100.61
-155.50
-212.86
-269.55
-321.60
-364.00
-391.31
-399.12
-385.69
-352.78
-305.38
-250.25
-194.05
-141.70
-95.88
-57.48
-26.79
-4.58
7.62
8.21
-3.12
-24.52
-51.99
-80.69
-106.70
-128.28
-145.85
-160.92
-174.67
-187.14
-197.46
-204.61
-208.04
-207.69
-203.62
-195.50
-182.74
-164.97
-142.69
-117.44
-91.44
-66.83
-45.01
-26.31
-10.12
4.75
19.73
36.41
56.06
78.90
103.38
125.82
141.10
144.58
134.28
112.34
84.63
58.67
40.70
33.43
35.54
43.06
51.73
58.87
64.16
68.89
74.71
82.67
93.02
105.68
120.77
138.71
159.78
183.43
207.86
230.31
247.98
259.18
264.02
264.25
262.53
261.17
261.46
263.55
267.27
272.97
282.02
296.15
315.90
339.22
360.92
373.90
371.54
350.35
311.43
259.92
202.90
146.87
96.17
52.84
17.62
-8.90
-25.91
-32.83
-30.25
-20.25
-6.05
8.96
22.22
32.57
40.18
45.95
50.94
55.83
60.81
65.49
69.23
71.29
71.26
69.13
65.37
60.71
55.85
51.21
46.79
42.37
37.74
32.96
28.50
24.99
23.01
22.73
23.79
25.44
26.75
26.99
25.78
23.27
20.05
16.93
14.63
13.45
13.09
12.60
10.73
6.40
-0.78
-10.17
-20.05
-28.03
-31.55
-28.71
-18.95
-3.47
14.67
31.31
42.21
44.43
37.27
22.47
3.34
-16.51
-34.40
-49.20
-61.02
-70.48
-77.97
-83.39
-86.44
-87.10
-86.00
-84.26
-83.05
-82.96
-83.86
-84.95
-85.30
-84.25
-81.78
-78.44
-75.09
-72.54
-71.15
-70.82
-71.08
-71.30
-70.99
-69.97
-68.34
-66.38
-64.35
-62.40
-60.58
-58.88
-57.32
-56.02
-55.19
-55.09
-55.96
-58.00
-61.28
-65.67
-70.77
-75.95
-80.58
-84.14
-86.47
-87.74
-88.35
-88.69
-88.99
-89.24
-89.26
-88.89
-88.06
-86.85
-85.44
-84.06
-82.95
-82.36
-82.52
-83.62
-85.67
-88.42
-91.30
-93.46
-94.02
-92.17
-87.48
-80.02
-70.39
-59.54
-48.64
-38.78
-30.75
-24.93
-21.17
-18.91
-17.28
-15.35
-12.51
-8.61
-4.17
-0.12
2.43
2.80
1.03
-1.95
-4.48
-4.72
-1.12
7.00
19.27
34.29
50.03
64.25
75.05
81.33
82.81
80.05
74.09
66.18
57.32
48.20
39.07
29.85
20.11
9.35
-2.87
-16.47
-30.60
-43.45
-52.53
-55.35
-50.44
-37.97
-19.94
0.42
19.71
35.41
46.34
52.63
55.11
54.63
51.89
47.39
41.81
36.22
31.90
29.94
30.86
34.38
39.51
45.03
49.92
53.69
56.39
58.35
59.94
61.35
62.61
63.63
64.40
64.94
65.33
65.55
65.44
64.66
62.91
60.02
56.06
51.41
46.68
42.46
39.21
37.10
36.08
35.91
36.25
36.80
37.28
37.40
36.88
35.53
33.29
30.34
27.07
23.92
21.26
19.24
17.79
16.75
15.96
15.38
15.09
15.15
15.51
16.04
16.53
16.77
16.61
15.99
14.87
13.20
10.99
8.31
5.31
2.22
-0.71
-3.31
-5.49
-7.30
-8.82
-10.19
-11.46
-12.55
-13.26
-13.24
-12.15
-9.74
-6.03
-1.37
3.73
8.66
12.95
16.34
18.87
20.72
22.05
22.97
23.48
23.48
22.93
21.92
20.73
19.66
18.96
18.72
18.89
19.32
19.92
20.73
21.79
23.07
24.30
25.06
24.92
23.64
21.30
18.25
14.99
11.92
9.31
7.23
5.68
4.68
4.21
4.21
4.53
4.92
5.13
4.96
4.47
3.91
3.62
3.93
5.02
6.86
9.31
12.13
15.13
18.15
21.05
23.65
25.73
27.06
27.47
26.92
25.57
23.69
21.64
19.79
18.43
17.75
17.81
18.50
19.59
20.80
21.82
22.39
22.38
21.77
20.66
19.18
17.52
15.82
14.18
12.65
11.22
9.90
8.68
7.58
6.58
5.61
4.51
3.07
1.08
-1.58
-4.89
-8.68
-12.64
-16.35
-19.36
-21.22
-21.55
-20.09
-16.76
-11.72
-5.30
2.09
9.98
17.87
25.23
31.55
36.51
40.00
42.34
44.26
46.68
50.41
55.86
62.82
70.61
78.41
85.62
92.24
98.82
106.30
115.67
127.63
142.40
159.47
177.46
194.04
206.25
211.11
206.64
192.72
171.35
146.15
121.00
98.84
80.82
66.49
54.62
44.32
35.64
29.43
26.66
27.68
31.87
37.92
44.51
50.88
57.05
63.44
70.32
77.37
83.63
87.96
89.55
88.22
84.22
77.74
68.44
55.40
37.67
14.86
-12.14
-41.19
-69.45
-94.20
-113.63
-127.15
-135.19
-138.69
-138.62
-135.67
-130.36
-123.19
-114.95
-106.67
-99.57
-94.73
-92.80
-93.88
-97.57
-103.29
-110.54
-119.21
-129.47
-141.64
-155.80
-171.47
-187.67
-203.24
-217.32
-229.86
-241.74
-254.62
-270.41
-290.66
-316.24
-347.02
-381.80
-417.99
-451.63
-477.63
-490.67
-486.58
-463.59
-423.02
-368.82
-306.38
-240.87
-176.14
-114.35
-56.27
-1.73
49.98
100.21
150.71
202.93
257.13
311.39
361.78
403.48
432.45
447.12
448.78
441.09
428.54
415.18
403.66
395.07
388.79
382.64
373.11
356.28
329.35
292.30
248.49
203.86
164.59
134.69
114.56
101.47
91.57
82.00
72.04
62.57
54.64
48.09
41.25
31.62
17.10
-3.26
-28.95
-58.47
-89.92
-121.25
-150.46
-175.60
-194.95
-207.36
-212.63
-211.54
-205.70
-196.97
-186.94
-176.71
-166.81
-157.38
-148.36
-139.57
-130.85
-121.98
-112.80
-103.24
-93.46
-83.88
-75.17
-68.04
-63.01
-60.27
-59.59
-60.44
-62.25
-64.65
-67.48
-70.68
-74.11
-77.23
-79.20
-79.13
-76.47
-71.35
-64.62
-57.46
-50.98
-45.78
-41.79
-38.48
-35.15
-31.23
-26.51
-21.07
-15.26
-9.47
-4.07
0.70
4.67
7.80
10.15
11.80
12.86
13.39
13.42
13.01
12.34
11.70
11.36
11.46
11.82
12.06
11.72
10.69
9.24
8.03
7.67
8.33
9.61
10.61
10.44
8.56
4.98
0.13
-5.31
-10.66
-15.23
-18.46
-19.96
-19.68
-18.11
-16.22
-15.07
-15.29
-16.80
-18.67
-19.61
-18.60
-15.27
-10.03
-3.90
2.01
6.75
9.77
10.81
9.92
7.26
3.22
-1.68
-6.80
-11.46
-15.11
-17.54
-18.87
-19.58
-20.33
-21.73
-24.05
-27.06
-30.09
-32.20
-32.62
-31.07
-27.88
-23.96
-20.34
-17.84
-16.81
-17.04
-18.07
-19.41
-20.83
-22.41
-24.45
-27.21
-30.80
-35.23
-40.41
-46.28
-52.83
-59.97
-67.44
-74.75
-81.30
-86.55
-90.25
-92.44
-93.40
-93.32
-92.06
-89.04
-83.43
-74.50
-62.19
-47.28
-31.32
-16.15
-3.26
6.64
13.70
18.72
22.70
26.43
30.34
34.54
38.99
43.62
48.35
53.07
57.53
61.49
64.62
66.65
67.43
66.96
65.43
63.25
60.89
58.75
57.03
55.65
54.28
52.44
49.72
45.99
41.44
36.59
32.16
28.93
27.47
28.10
30.82
35.33
41.11
47.55
53.98
59.76
64.37
67.49
69.16
69.75
69.82
69.93
70.42
71.29
72.39
73.58
75.01
77.06
80.22
84.73
90.43
96.71
102.87
108.41
113.34
118.12
123.44
129.79
137.10
144.53
150.62
153.66
152.29
146.00
135.46
122.37
109.00
97.32
88.44
82.25
77.70
73.36
68.12
61.64
54.29
46.82
39.86
33.35
26.46
17.66
5.00
-13.46
-39.11
-72.03
-110.30
-149.64
-184.04
-207.32
-215.26
-207.25
-186.63
-159.27
-131.36
-107.26
-88.82
-75.96
-68.04
-64.81
-66.33
-72.11
-80.18
-87.21
-89.68
-85.46
-74.92
-60.79
-46.93
-36.74
-31.83
-31.76
-34.69
-38.44
-41.40
-43.03
-43.75
-44.36
-45.44
-46.92
-48.10
-47.88
-45.30
-39.85
-31.68
-21.47
-10.18
1.28
12.31
22.52
31.60
39.15
44.63
47.55
47.74
45.48
41.49
36.68
31.84
27.50
23.81
20.66
17.71
14.55
10.78
6.09
0.48
-5.68
-11.71
-16.79
-20.27
-21.90
-21.83
-20.49
-18.34
-15.71
-12.78
-9.62
-6.23
-2.61
1.34
5.72
10.61
16.04
21.92
28.02
33.99
39.40
43.76
46.57
47.45
46.21
42.99
38.27
32.73
27.14
22.12
17.99
14.81
12.38
10.27
7.99
5.07
1.28
-3.35
-8.45
-13.45
-17.78
-21.10
-23.39
-24.83
-25.64
-25.94
-25.67
-24.63
-22.60
-19.32
-14.55
-8.21
-0.63
7.32
14.29
18.93
20.40
18.80
15.09
10.48
5.85
1.19
-4.18
-11.03
-19.58
-29.18
-38.72
-47.15
-54.02
-59.62
-64.60
-69.60
-74.87
-80.22
-85.16
-89.17
-91.86
-93.08
-92.92
-91.64
-89.77
-88.06
-87.64
-89.72
-94.92
-102.37
-109.18
-110.80
-102.34
-80.32
-44.27
2.68
54.37
103.22
141.97
165.28
170.57
158.23
131.24
94.49
53.88
15.30
-16.33
-37.76
-47.82
-47.26
-38.49
-25.00
-10.57
1.59
9.55
12.98
12.80
10.49
7.52
4.81
2.61
0.82
-0.84
-2.56
-4.33
-5.99
-7.26
-7.83
-7.51
-6.37
-4.76
-3.25
-2.49
-2.91
-4.52
-6.95
-9.51
-11.52
-12.61
-12.71
-12.08
-11.11
-10.12
-9.38
-9.03
-9.18
-9.86
-11.02
-12.44
-13.83
-14.84
-15.23
-14.91
-13.98
-12.62
-11.12
-9.76
-8.84
-8.50
-8.76
-9.40
-10.11
-10.62
-10.78
-10.60
-10.25
-9.99
-10.08
-10.68
-11.85
-13.49
-15.27
-16.78
-17.59
-17.45
-16.38
-14.67
-12.81
-11.20
-10.09
-9.47
-9.17
-9.00
-8.90
-8.91
-9.20
-9.95
-11.26
-13.08
-15.27
-17.58
-19.83
-21.88
-23.79
-25.79
-28.21
-31.41
-35.61
-40.91
-47.15
-54.04
-61.27
-68.64
-76.13
-83.94
-92.36
-101.67
-111.80
-122.18
-131.54
-138.11
-140.21
-136.92
-128.67
-117.23
-105.09
-94.42
-86.21
-79.86
-73.51
-64.95
-52.43
-35.20
-13.45
12.10
40.50
70.70
101.56
131.66
159.49
183.68
203.24
217.67
226.85
230.87
229.81
223.94
213.89
200.83
186.40
172.21
159.42
148.39
138.71
129.56
120.14
109.99
99.02
87.44
75.53
63.69
52.34
41.91
32.79
24.98
18.03
10.98
2.63
-8.02
-21.28
-36.64
-52.71
-67.54
-79.28
-86.58
-88.94
-86.79
-81.22
-73.58
-65.09
-56.60
-48.57
-41.18
-34.45
-28.35
-22.95
-18.49
-15.33
-13.95
-14.67
-17.46
-21.77
-26.58
-30.73
-33.34
-34.11
-33.36
-31.83
-30.32
-29.36
-29.14
-29.55
-30.39
-31.59
-33.20
-35.37
-38.29
-41.94
-46.05
-50.09
-53.42
-55.59
-56.59
-56.97
-57.62
-59.52
-63.30
-69.02
-76.18
-83.93
-91.25
-97.25
-101.33
-103.29
-103.36
-102.09
-100.10
-97.59
-93.95
-87.62
-76.39
-58.18
-31.81
2.53
43.23
87.61
132.44
174.33
210.11
237.13
253.70
259.30
254.58
240.85
219.34
190.70
155.06
112.79
65.34
15.63
-32.23
-74.06
-106.60
-128.26
-139.13
-140.48
-134.24
-122.60
-107.82
-92.10
-77.32
-64.72
-54.76
-47.07
-40.92
-35.59
-30.76
-26.62
-23.71
-22.63
-23.75
-27.00
-32.04
-38.36
-45.68
-54.09
-64.17
-76.57
-91.44
-107.77
-122.96
-133.11
-133.92
-122.06
-96.51
-59.18
-14.55
31.55
73.60
107.63
131.88
146.47
152.69
152.21
146.60
137.36
126.06
114.56
104.71
97.96
94.88
94.99
96.98
99.31
100.85
101.22
100.77
100.19
100.00
100.29
100.84
101.38
101.90
102.73
104.33
107.04
110.86
115.48
120.37
125.03
128.99
131.97
133.80
134.50
134.15
132.95
131.12
128.76
125.89
122.48
118.60
114.46
110.32
106.45
102.87
99.44
95.94
92.25
88.43
84.62
81.02
77.58
73.90
69.32
63.07
54.57
43.79
31.38
18.59
6.89
-2.53
-9.10
-13.03
-15.22
-16.94
-19.43
-23.74
-30.41
-39.37
-49.93
-60.86
-70.77
-78.44
-83.35
-85.78
-86.64
-87.17
-88.37
-90.84
-94.64
-99.45
-104.79
-110.11
-114.95
-118.98
-122.09
-124.37
-126.08
-127.40
-128.23
-127.99
-125.63
-119.97
-110.17
-96.18
-78.90
-59.94
-41.21
-24.37
-10.47
0.08
7.32
11.49
12.80
11.63
8.59
4.63
0.86
-1.72
-2.49
-1.42
1.13
4.53
8.29
12.19
16.17
20.16
23.89
26.85
28.46
28.40
26.81
24.26
21.55
19.35
18.05
17.71
18.27
19.66
21.81
24.59
27.62
30.35
32.33
33.38
33.59
33.06
31.59
28.48
22.80
13.90
1.98
-11.72
-25.22
-36.42
-43.94
-47.42
-47.50
-45.40
-42.32
-39.09
-35.94
-32.76
-29.29
-25.43
-21.24
-16.81
-12.16
-7.06
-1.16
5.79
13.75
22.37
31.10
39.48
47.40
55.08
62.97
71.45
80.69
90.65
101.10
111.77
122.33
132.31
141.13
148.21
153.23
156.25
157.78
158.41
158.51
157.92
156.03
152.06
145.46
136.17
124.56
111.20
96.63
81.30
65.57
49.81
34.36
19.36
4.59
-10.55
-26.82
-44.77
-64.43
-85.14
-105.65
-124.47
-140.18
-151.73
-158.65
-161.14
-159.96
-156.20
-151.07
-145.58
-140.38
-135.78
-131.90
-128.66
-125.96
-123.53
-120.98
-117.89
-114.00
-109.34
-104.34
-99.57
-95.48
-92.24
-89.68
-87.47
-85.25
-82.85
-80.30
-77.71
-75.29
-73.21
-71.68
-70.74
-70.34
-70.02
-69.03
-66.46
-61.57
-54.19
-44.80
-34.49
-24.54
-15.96
-9.24
-4.30
-0.67
2.23
4.84
7.37
9.79
11.89
13.35
13.88
13.30
11.66
9.25
6.58
4.11
2.18
0.87
0.13
-0.10
0.25
1.22
2.87
5.00
7.26
9.28
10.74
11.55
11.83
11.82
11.79
12.00
12.69
13.99
15.99
18.57
21.53
24.66
27.82
31.04
34.45
38.13
42.01
45.81
49.16
51.74
53.42
54.25
54.43
54.23
53.95
53.84
54.11
54.85
55.92
56.89
57.17
56.13
53.34
48.69
42.39
34.94
26.95
18.98
11.55
4.95
-0.68
-5.51
-9.86
-14.05
-18.37
-22.81
-27.07
-30.69
-33.23
-34.47
-34.43
-33.32
-31.44
-29.03
-26.31
-23.39
-20.39
-17.39
-14.46
-11.58
-8.66
-5.66
-2.52
0.62
3.49
5.82
7.32
7.81
7.28
5.81
3.55
0.67
-2.70
-6.40
-10.32
-14.32
-18.32
-22.26
-26.07
-29.58
-32.56
-34.79
-36.12
-36.63
-36.57
-36.29
-36.01
-35.77
-35.44
-34.79
-33.67
-31.99
-29.73
-26.82
-23.23
-19.05
-14.74
-11.06
-8.94
-9.14
-11.88
-16.78
-22.88
-29.03
-34.16
-37.55
-38.86
-38.10
-35.47
-31.40
-26.43
-21.19
-16.31
-12.28
-9.38
-7.59
-6.70
-6.29
-5.92
-5.26
-4.06
-2.33
-0.29
1.67
3.09
3.66
3.32
2.36
1.17
0.11
-0.67
-1.22
-1.66
-2.02
-2.20
-1.98
-1.25
-0.07
1.30
2.51
3.32
3.74
3.93
4.06
4.29
4.55
4.69
4.62
4.28
3.78
3.28
2.89
2.62
2.42
2.20
1.94
1.69
1.53
1.53
1.63
1.73
1.74
1.64
1.55
1.61
1.91
2.43
3.02
3.51
3.78
3.73
3.36
2.75
1.93
0.97
-0.04
-1.02
-1.87
-2.57
-3.07
-3.32
-3.18
-2.55
-1.38
0.24
2.10
4.00
5.81
7.59
9.40
11.26
12.98
14.29
14.93
14.87
14.31
13.67
13.36
13.68
14.66
16.01
17.24
17.78
17.11
14.95
11.29
6.46
1.00
-4.57
-9.77
-14.38
-18.42
-22.00
-25.21
-28.08
-30.57
-32.64
-34.33
-35.68
-36.65
-37.08
-36.66
-35.05
-32.11
-28.04
-23.34
-18.73
-14.83
-11.95
-10.03
-8.79
-7.83
-6.89
-5.92
-5.03
-4.38
-4.06
-4.02
-4.08
-3.97
-3.54
-2.80
-1.88
-0.96
-0.20
0.42
1.01
1.73
2.68
3.82
4.93
5.80
6.26
6.27
5.91
5.38
4.83
4.35
3.96
3.63
3.34
3.04
2.73
2.30
1.61
0.57
-0.83
-2.38
-3.75
-4.62
-4.83
-4.47
-3.92
-3.66
-4.04
-5.20
-6.97
-9.06
-11.17
-13.11
-14.78
-16.12
-17.03
-17.43
-17.31
-16.80
-16.21
-15.85
-15.95
-16.48
-17.16
-17.53
-17.13
-15.72
-13.32
-10.17
-6.64
-3.01
0.60
4.19
7.88
11.67
15.44
19.03
22.29
25.18
27.79
30.21
32.41
34.21
35.40
35.93
35.99
35.91
35.77
35.19
33.24
28.97
21.92
12.44
1.71
-8.79
-17.90
-25.16
-30.65
-34.60
-37.06
-37.71
-36.22
-32.61
-27.40
-21.47
-15.69
-10.56
-6.23
-2.49
0.85
3.90
6.62
8.98
10.99
12.69
14.13
15.30
16.07
16.43
16.40
16.17
15.99
16.09
16.54
17.18
17.71
17.84
17.49
16.76
15.89
15.10
14.42
13.77
13.01
12.03
10.83
9.51
8.23
7.13
6.35
5.89
5.69
5.58
5.39
4.91
4.08
2.87
1.37
-0.24
-1.63
-2.18
-1.14
2.15
7.81
15.14
22.58
28.21
30.39
28.37
22.44
13.63
3.27
-7.49
-17.82
-27.08
-34.70
-40.08
-42.80
-42.79
-40.48
-36.64
-32.17
-27.74
-23.66
-19.86
-16.10
-12.17
-8.03
-3.90
-0.07
3.14
5.55
7.10
7.89
8.10
7.90
7.48
7.09
6.92
7.20
8.01
9.26
10.76
12.28
13.64
14.82
15.88
16.82
17.59
17.95
17.71
16.81
15.38
13.72
12.15
10.81
9.69
8.57
7.27
5.72
4.06
2.50
1.23
0.37
-0.14
-0.45
-0.73
-1.09
-1.66
-2.55
-3.92
-5.94
-8.57
-11.61
-14.56
-16.84
-18.04
-18.04
-17.11
-15.84
-14.87
-14.70
-15.47
-17.02
-18.87
-20.48
-21.38
-21.32
-20.23
-18.33
-15.89
-13.22
-10.57
-8.05
-5.72
-3.57
-1.59
0.20
1.77
3.07
4.02
4.44
4.20
3.30
2.04
1.10
1.31
3.32
7.22
12.37
17.65
21.93
24.54
25.43
25.01
23.74
21.67
18.57
14.16
8.49
2.15
-3.91
-8.83
-12.09
-13.75
-14.24
-14.13
-13.78
-13.35
-12.77
-11.97
-10.90
-9.61
-8.21
-6.82
-5.52
-4.40
-3.45
-2.60
-1.63
-0.40
1.21
3.06
4.89
6.36
7.28
7.65
7.75
7.93
8.44
9.34
10.36
11.17
11.41
10.93
9.83
8.46
7.20
6.41
6.20
6.49
7.08
7.72
8.23
8.53
8.69
8.77
8.87
9.03
9.25
9.53
9.93
10.46
11.15
11.91
12.59
13.03
13.12
12.88
12.50
12.14
11.89
11.70
11.39
10.72
9.54
7.91
5.99
4.09
2.44
1.25
0.56
0.26
0.17
0.07
-0.15
-0.56
-1.11
-1.75
-2.50
-3.33
-4.27
-5.32
-6.37
-7.35
-8.18
-8.93
-9.71
-10.65
-11.81
-13.11
-14.37
-15.41
-16.04
-16.15
-15.61
-14.38
-12.47
-9.96
-7.06
-4.06
-1.24
1.20
3.19
4.72
5.85
6.57
6.88
6.77
6.32
5.72
5.16
4.79
4.71
4.85
5.14
5.54
6.14
7.10
8.54
10.48
12.76
15.14
17.38
19.36
21.13
22.81
24.55
26.40
28.26
29.85
30.88
31.12
30.59
29.53
28.28
27.23
26.64
26.53
26.74
27.05
27.28
27.35
27.32
27.25
27.26
27.45
27.99
29.06
30.80
33.20
35.86
38.09
38.93
37.53
33.46
26.82
18.30
8.87
-0.48
-9.04
-16.28
-21.91
-25.73
-27.76
-28.17
-27.40
-25.99
-24.44
-23.02
-21.73
-20.57
-19.59
-18.96
-18.79
-18.78
-18.21
-16.09
-11.56
-4.34
5.18
16.09
27.19
37.27
45.22
50.18
51.62
49.62
44.85
38.46
31.54
24.79
18.19
11.28
3.51
-5.21
-14.45
-23.37
-31.21
-37.46
-41.96
-44.81
-46.12
-46.09
-44.94
-43.02
-40.73
-38.45
-36.47
-34.87
-33.61
-32.52
-31.43
-30.18
-28.67
-26.83
-24.72
-22.52
-20.45
-18.68
-17.25
-16.02
-14.69
-12.99
-10.80
-8.17
-5.36
-2.69
-0.42
1.33
2.60
3.51
4.20
4.72
5.03
5.09
4.88
4.54
4.28
4.36
4.87
5.80
6.87
7.76
8.14
7.81
6.75
5.12
3.23
1.45
0.09
-0.71
-1.18
-1.91
-3.64
-7.01
-12.26
-18.98
-26.36
-33.44
-39.49
-44.27
-47.97
-51.04
-54.08
-57.58
-61.91
-67.24
-73.34
-79.55
-84.81
-87.97
-88.15
-85.17
-79.53
-72.24
-64.41
-56.83
-49.88
-43.64
-38.17
-33.59
-30.21
-28.14
-27.26
-27.10
-27.01
-26.39
-24.93
-22.71
-20.09
-17.68
-16.01
-15.46
-16.09
-17.61
-19.36
-20.49
-20.13
-17.76
-13.34
-7.42
-0.95
4.99
9.45
11.98
12.58
11.66
9.81
7.56
5.29
3.18
1.29
-0.34
-1.53
-2.14
-1.91
-0.80
0.93
2.79
4.06
4.08
2.34
-1.30
-6.47
-12.03
-15.98
-15.64
-8.43
7.13
30.43
58.53
86.76
110.21
125.21
130.28
126.13
114.80
98.64
79.47
58.61
37.06
16.05
-2.95
-18.30
-28.67
-33.43
-32.71
-27.49
-19.23
-9.56
0.25
9.30
17.20
23.98
29.84
35.21
40.60
46.54
53.26
60.49
67.40
72.72
75.31
74.62
71.00
65.53
59.57
54.20
49.93
46.74
44.28
42.26
40.48
38.99
37.84
37.09
36.72
36.60
36.63
36.85
37.42
38.60
40.64
43.54
47.01
50.48
53.27
54.66
53.99
50.51
43.40
31.97
16.05
-3.62
-25.31
-46.52
-64.72
-78.03
-85.63
-87.78
-85.39
-79.58
-71.39
-61.68
-51.26
-40.90
-31.23
-22.65
-15.32
-9.13
-3.86
0.63
4.36
7.25
9.18
10.08
10.16
9.78
9.43
9.63
10.68
12.65
15.37
18.50
21.79
25.15
28.69
32.52
36.70
41.03
45.14
48.63
51.15
52.66
53.41
53.89
54.76
56.60
59.55
63.13
66.21
67.28
64.90
58.38
48.03
35.09
21.41
8.81
-1.29
-8.07
-11.29
-11.19
-8.39
-3.89
1.13
5.49
8.32
9.31
8.78
7.39
5.88
4.74
4.14
3.90
3.76
3.50
3.16
2.98
3.38
4.97
8.40
14.28
22.76
33.13
43.33
50.06
49.68
39.50
19.19
-8.83
-40.00
-69.29
-92.90
-109.24
-118.82
-123.14
-123.58
-120.71
-114.53
-105.11
-93.21
-80.23
-67.76
-56.90
-47.84
-40.00
-32.55
-24.86
-16.78
-8.63
-0.95
5.80
11.37
15.75
19.11
21.73
23.91
25.92
27.79
29.36
30.27
30.19
29.12
27.53
26.22
25.92
26.90
28.79
30.79
32.00
31.82
30.13
27.15
23.27
18.96
14.62
10.72
7.68
5.83
5.13
5.16
5.27
4.84
3.57
1.60
-0.65
-2.64
-4.09
-5.00
-5.69
-6.55
-7.81
-9.38
-10.82
-11.57
-11.17
-9.45
-6.62
-3.23
-0.04
2.34
3.64
4.01
3.97
4.10
4.72
5.78
6.93
7.71
7.79
7.16
6.06
4.82
3.58
2.39
1.08
-0.43
-2.10
-3.80
-5.43
-7.01
-8.76
-10.93
-13.61
-16.61
-19.43
-21.51
-22.43
-22.15
-20.99
-19.50
-18.21
-17.38
-17.03
-16.98
-17.00
-16.91
-16.62
-16.03
-15.03
-13.59
-11.81
-10.08
-8.94
-8.96
-10.40
-12.98
-15.90
-18.11
-18.70
-17.42
-14.70
-11.58
-9.17
-8.31
-9.22
-11.58
-14.83
-18.38
-21.83
-25.10
-28.31
-31.60
-35.16
-39.01
-42.96
-46.61
-49.31
-50.43
-49.57
-46.74
-42.41
-37.38
-32.47
-28.31
-25.25
-23.35
-22.55
-22.80
-24.08
-26.45
-29.90
-34.27
-39.13
-43.60
-46.50
-46.50
-42.53
-34.37
-22.93
-10.18
1.38
9.56
13.14
12.16
7.65
1.15
-5.84
-12.10
-16.67
-18.84
-18.10
-14.28
-7.76
0.59
9.51
17.73
24.30
28.80
31.31
32.27
32.28
31.90
31.55
31.40
31.37
31.25
30.81
30.02
29.07
28.31
28.17
28.92
30.52
32.64
34.82
36.67
37.98
38.75
39.09
39.04
38.58
37.61
36.04
33.95
31.56
29.15
27.04
25.32
24.05
23.23
22.83
22.72
22.71
22.49
21.82
20.58
18.93
17.24
15.89
15.09
14.64
14.13
12.95
10.65
7.07
2.30
-3.38
-9.54
-15.71
-21.35
-25.89
-28.86
-30.01
-29.46
-27.65
-25.28
-23.07
-21.51
-20.77
-20.68
-20.89
-21.04
-20.91
-20.48
-19.89
-19.31
-18.83
-18.39
-17.77
-16.82
-15.46
-13.76
-11.95
-10.22
-8.65
-7.20
-5.75
-4.14
-2.20
0.20
3.07
6.26
9.39
11.91
13.42
14.09
14.85
17.22
22.54
31.27
42.44
53.85
62.74
66.71
64.21
54.87
39.21
18.52
-5.32
-29.91
-52.58
-70.79
-82.78
-87.95
-86.95
-81.29
-72.83
-63.21
-53.67
-45.06
-37.89
-32.39
-28.44
-25.62
-23.18
-20.37
-16.58
-11.57
-5.51
1.14
7.79
13.96
19.34
23.85
27.59
30.70
33.28
35.35
36.82
37.57
37.58
36.93
35.81
34.47
33.09
31.73
30.38
29.04
27.75
26.68
25.93
25.52
25.39
25.45
25.65
25.99
26.47
27.01
27.44
27.62
27.48
27.11
26.58
25.88
24.79
23.00
20.27
16.66
12.50
8.33
4.64
1.74
-0.30
-1.57
-2.29
-2.61
-2.75
-2.80
-2.95
-3.35
-4.13
-5.33
-6.75
-8.05
-8.78
-8.59
-7.37
-5.33
-2.91
-0.65
0.98
1.78
1.73
1.00
-0.19
-1.65
-3.21
-4.70
-6.00
-7.07
-7.83
-8.28
-8.42
-8.23
-7.74
-7.08
-6.44
-5.97
-5.74
-5.63
-5.37
-4.65
-3.27
-1.33
0.79
2.57
3.61
3.74
3.24
2.56
2.26
2.74
4.14
6.48
9.64
13.48
17.78
22.22
26.32
29.59
31.61
32.15
31.26
29.14
26.17
22.70
19.19
16.01
13.46
11.72
10.68
10.11
9.72
9.27
8.67
7.97
7.32
6.94
7.09
8.00
9.87
12.68
16.20
19.98
23.55
26.52
28.77
30.43
31.68
32.63
33.09
32.81
31.49
29.03
25.58
21.47
17.05
12.60
8.24
4.03
0.06
-3.61
-6.94
-9.91
-12.59
-15.03
-17.21
-18.95
-20.07
-20.34
-19.71
-18.30
-16.36
-14.16
-12.10
-10.58
-9.93
-10.38
-11.86
-14.08
-16.65
-19.13
-21.26
-22.95
-24.24
-25.17
-25.81
-26.27
-26.74
-27.43
-28.53
-30.04
-31.74
-33.31
-34.48
-35.06
-35.03
-34.42
-33.32
-31.80
-29.90
-27.67
-25.19
-22.56
-19.95
-17.52
-15.45
-13.86
-12.75
-11.89
-10.90
-9.29
-6.68
-2.90
1.89
7.23
12.49
17.10
20.75
23.38
25.16
26.38
27.30
28.14
29.14
30.41
31.94
33.38
34.09
33.40
30.95
26.93
22.08
17.27
13.13
9.65
6.43
2.93
-1.06
-5.28
-9.21
-12.33
-14.46
-15.83
-16.83
-17.83
-18.98
-20.25
-21.47
-22.54
-23.37
-23.92
-24.17
-24.14
-23.85
-23.41
-22.95
-22.60
-22.36
-22.20
-22.01
-21.68
-21.12
-20.28
-19.07
-17.39
-15.11
-12.23
-8.90
-5.38
-2.08
0.71
2.86
4.34
5.32
5.91
6.29
6.50
6.62
6.66
6.59
6.45
6.20
5.87
5.48
5.03
4.54
3.96
3.22
2.25
1.01
-0.50
-2.14
-3.67
-4.77
-5.19
-4.82
-3.80
-2.51
-1.39
-0.74
-0.63
-0.96
-1.54
-2.27
-3.16
-4.23
-5.54
-7.00
-8.50
-9.96
-11.38
-12.81
-14.29
-15.74
-16.96
-17.79
-18.14
-18.04
-17.57
-16.83
-15.85
-14.65
-13.24
-11.70
-10.02
-8.19
-6.09
-3.63
-0.71
2.57
6.05
9.48
12.63
15.36
17.59
19.33
20.56
21.32
21.70
21.88
22.16
22.92
24.43
26.67
29.33
31.77
33.24
33.14
31.23
27.73
23.13
18.09
13.11
8.49
4.35
0.66
-2.60
-5.40
-7.78
-9.77
-11.48
-13.02
-14.44
-15.68
-16.60
-17.02
-16.85
-16.19
-15.35
-14.78
-14.92
-15.87
-17.25
-18.10
-17.17
-13.39
-6.40
3.27
14.32
25.08
34.00
40.10
42.91
42.35
38.50
31.45
21.40
8.91
-5.02
-19.02
-31.60
-41.61
-48.46
-52.22
-53.41
-52.65
-50.41
-46.90
-42.17
-36.35
-29.79
-23.07
-16.79
-11.31
-6.69
-2.67
1.11
4.97
8.98
12.97
16.69
19.83
22.27
24.14
25.69
27.27
29.11
31.29
33.72
36.19
38.58
40.82
42.98
45.18
47.52
49.89
51.96
53.26
53.41
52.31
50.16
47.45
44.67
42.13
39.83
37.58
35.25
32.91
30.90
29.77
30.00
31.75
34.80
38.42
41.57
43.16
42.48
39.36
34.29
28.15
21.87
16.07
10.98
6.52
2.59
-0.79
-3.55
-5.61
-7.14
-8.37
-9.54
-10.78
-12.03
-13.12
-13.91
-14.35
-14.46
-14.33
-14.08
-13.81
-13.67
-13.86
-14.49
-15.59
-17.04
-18.50
-19.52
-19.71
-18.93
-17.48
-16.09
-15.73
-17.13
-20.42
-24.92
-29.46
-32.83
-34.41
-34.33
-33.26
-31.98
-30.82
-29.60
-27.86
-25.21
-21.69
-17.78
-14.18
-11.59
-10.29
-10.16
-10.75
-11.45
-11.76
-11.43
-10.59
-9.70
-9.33
-10.01
-11.89
-14.65
-17.66
-20.22
-21.85
-22.48
-22.37
-21.82
-21.02
-19.85
-18.08
-15.51
-12.07
-7.70
-2.14
5.09
14.34
25.25
36.15
44.35
47.03
42.46
31.08
15.32
-1.37
-16.11
-27.66
-36.48
-43.84
-50.65
-56.70
-60.86
-61.93
-59.57
-54.56
-48.43
-42.64
-37.93
-34.20
-30.82
-27.26
-23.52
-20.08
-17.59
-16.39
-16.23
-16.35
-15.81
-13.85
-10.27
-5.42
-0.08
4.89
8.79
11.33
12.54
12.85
12.71
12.58
12.70
13.13
13.73
14.33
14.76
14.89
14.74
14.36
13.80
13.16
12.53
11.90
11.34
10.93
10.76
10.96
11.57
12.56
13.77
14.95
15.81
16.15
15.88
15.15
14.15
13.09
12.02
10.86
9.48
7.85
6.11
4.50
3.17
2.00
0.49
-1.95
-5.69
-10.62
-16.06
-21.05
-24.77
-26.91
-27.72
-27.76
-27.52
-27.15
-26.44
-25.14
-23.19
-20.93
-18.88
-17.55
-17.09
-17.22
-17.41
-17.17
-16.22
-14.50
-12.19
-9.45
-6.35
-2.90
0.88
4.84
8.69
12.07
14.64
16.17
16.59
16.04
14.82
13.25
11.59
9.91
8.13
6.07
3.62
0.86
-1.92
-4.37
-6.24
-7.47
-8.25
-8.88
-9.62
-10.67
-12.02
-13.56
-15.20
-16.85
-18.50
-20.19
-21.84
-23.35
-24.50
-25.18
-25.37
-25.16
-24.77
-24.33
-23.96
-23.60
-23.26
-22.98
-22.81
-22.74
-22.49
-21.57
-19.39
-15.63
-10.35
-4.05
2.53
8.77
14.32
19.18
23.51
27.32
30.36
32.14
32.14
30.17
26.56
21.99
17.26
12.99
9.37
6.12
2.70
-1.43
-6.64
-13.02
-20.44
-28.63
-37.22
-45.80
-53.87
-60.83
-66.04
-69.03
-69.64
-68.17
-65.39
-62.32
-59.91
-58.68
-58.51
-58.65
-57.97
-55.39
-50.24
-42.49
-32.68
-21.79
-10.77
-0.27
9.51
18.77
27.90
37.06
46.11
54.56
61.86
67.62
71.84
74.87
77.27
79.63
82.30
85.34
88.49
91.13
92.45
91.59
87.88
81.05
71.30
59.36
46.23
33.05
20.79
10.25
1.90
-4.08
-7.79
-9.68
-10.38
-10.68
-11.16
-12.01
-12.95
-13.32
-12.28
-9.34
-4.53
1.48
7.45
11.91
13.55
11.63
6.29
-1.37
-9.50
-15.99
-19.12
-17.92
-12.52
-3.82
6.77
17.86
28.37
37.61
45.10
50.57
53.98
55.68
56.45
57.34
59.38
63.19
68.68
75.10
81.26
85.86
87.88
86.86
82.99
77.04
70.20
63.59
57.84
52.64
46.70
38.11
25.22
7.51
-13.96
-36.71
-57.79
-74.75
-86.38
-92.90
-95.41
-95.14
-92.95
-89.24
-84.13
-77.93
-71.21
-64.63
-58.82
-54.02
-50.17
-46.98
-44.17
-41.49
-38.75
-35.75
-32.14
-27.55
-21.60
-14.18
-5.52
3.83
13.12
21.65
29.00
35.07
40.06
44.25
47.82
50.75
52.90
54.07
54.17
53.24
51.50
49.18
46.62
44.15
41.95
39.99
37.93
35.11
30.87
24.89
17.43
9.40
2.02
-3.62
-7.00
-8.35
-8.43
-8.00
-7.37
-6.30
-4.08
-0.14
5.51
12.11
18.38
23.09
25.45
25.53
24.05
22.28
21.70
23.97
30.72
43.10
60.93
82.05
102.15
115.77
118.09
106.88
83.35
51.78
17.71
-14.19
-41.42
-63.61
-81.48
-95.42
-104.90
-108.85
-106.60
-98.78
-87.40
-75.11
-64.15
-55.62
-49.38
-44.51
-40.17
-36.12
-32.79
-30.83
-30.61
-31.89
-33.78
-35.11
-34.91
-32.81
-29.22
-25.01
-21.13
-18.16
-16.19
-14.86
-13.68
-12.33
-10.88
-9.65
-9.09
-9.45
-10.76
-12.81
-15.10
-17.03
-17.96
-17.26
-14.50
-9.55
-2.56
5.91
15.09
24.05
31.90
37.98
41.98
43.99
44.42
43.80
42.63
41.33
40.18
39.32
38.97
39.23
40.19
41.86
44.22
47.29
51.13
55.75
60.81
65.37
67.84
66.19
58.60
44.38
24.49
1.63
-20.47
-38.39
-50.07
-55.53
-56.46
-55.19
-53.60
-52.41
-51.37
-49.84
-47.55
-44.80
-42.24
-40.36
-39.16
-38.21
-36.95
-35.19
-33.16
-31.45
-30.56
-30.60
-31.19
-31.65
-31.33
-29.89
-27.49
-24.70
-22.36
-21.19
-21.60
-23.57
-26.73
-30.57
-34.76
-39.21
-43.99
-49.23
-54.89
-60.82
-66.76
-72.56
-78.35
-84.52
-91.67
-100.29
-110.62
-122.46
-135.20
-147.95
-159.69
-169.55
-176.85
-181.19
-182.46
-180.75
-176.29
-169.55
-161.17
-151.87
-142.23
-132.64
-123.17
-113.70
-104.06
-94.10
-83.71
-72.77
-61.05
-48.29
-34.27
-19.09
-3.18
12.80
28.25
42.85
56.56
69.50
81.60
92.46
101.38
107.89
112.08
115.02
118.54
124.73
135.04
149.61
167.12
185.13
201.06
212.89
219.82
222.11
220.82
217.28
212.75
208.24
204.28
200.82
197.06
191.62
182.91
169.58
151.18
128.42
103.03
77.44
54.13
35.11
21.47
13.23
9.38
8.27
8.03
7.09
4.58
0.35
-5.18
-11.22
-17.06
-22.24
-26.60
-30.27
-33.44
-36.26
-38.70
-40.62
-41.90
-42.64
-43.14
-43.82
-45.05
-46.87
-48.95
-50.61
-51.03
-49.47
-45.45
-38.82
-29.85
-19.07
-7.28
4.61
15.65
24.99
31.98
36.25
37.82
36.95
34.10
29.73
24.27
18.10
11.62
5.22
-0.67
-5.70
-9.68
-12.57
-14.41
-15.30
-15.38
-14.89
-14.21
-13.84
-14.29
-15.91
-18.70
-22.34
-26.25
-29.75
-32.22
-33.29
-32.80
-30.98
-28.31
-25.46
-23.15
-21.93
-22.10
-23.70
-26.63
-30.70
-35.83
-41.96
-48.88
-56.04
-62.51
-66.98
-68.26
-65.72
-59.51
-50.60
-40.42
-30.38
-21.55
-14.55
-9.67
-7.07
-6.82
-8.86
-12.96
-18.65
-25.27
-32.24
-39.08
-45.33
-50.55
-54.35
-56.42
-56.83
-56.03
-54.87
-54.37
-55.43
-58.59
-63.99
-71.35
-79.98
-88.98
-97.47
-104.84
-111.05
-116.78
-123.11
-131.17
-141.60
-154.16
-167.85
-181.23
-192.69
-200.76
-204.10
-201.36
-191.28
-172.86
-145.69
-110.28
-68.15
-21.65
26.35
73.03
116.03
153.87
186.00
212.69
234.55
252.18
265.86
275.54
281.12
282.65
280.58
275.57
268.25
259.07
248.32
236.21
223.06
209.42
195.92
183.10
171.24
160.35
150.19
140.44
130.83
121.32
112.12
103.61
96.15
89.81
84.28
78.82
72.55
64.77
55.29
44.63
33.76
23.75
15.38
8.83
3.69
-0.79
-5.43
-10.76
-16.88
-23.48
-29.97
-35.75
-40.42
-43.94
-46.66
-49.16
-52.04
-55.77
-60.40
-65.50
-70.23
-73.52
-74.35
-72.13
-66.81
-58.93
-49.44
-39.44
-29.87
-21.45
-14.61
-9.58
-6.43
-5.07
-5.21
-6.36
-7.95
-9.32
-9.93
-9.44
-7.67
-4.62
-0.42
4.69
10.31
15.91
20.89
24.77
27.27
28.41
28.44
27.78
26.82
25.81
24.92
24.25
24.02
24.49
25.92
28.38
31.64
35.09
37.94
39.44
39.18
37.20
34.02
30.38
26.94
23.99
21.38
18.60
15.03
10.16
3.70
-4.44
-14.19
-25.23
-37.00
-48.49
-58.41
-65.38
-68.45
-67.46
-63.08
-56.50
-48.96
-41.38
-34.02
-26.71
-19.16
-11.25
-3.24
4.26
10.54
15.01
17.45
18.02
17.23
15.79
14.43
13.73
13.98
15.17
17.05
19.17
21.06
22.39
23.00
22.93
22.40
21.62
20.86
20.38
20.46
21.27
22.86
25.06
27.51
29.82
31.69
32.98
33.70
33.77
33.03
31.24
28.19
23.81
18.27
11.86
4.84
-2.62
-10.38
-18.18
-25.55
-31.75
-35.98
-37.52
-36.06
-31.82
-25.54
-18.31
-11.29
-5.52
-1.69
-0.16
-0.93
-3.75
-8.14
-13.37
-18.58
-22.87
-25.58
-26.44
-25.67
-23.87
-21.81
-20.05
-18.85
-18.17
-17.82
-17.58
-17.36
-17.15
-17.01
-17.06
-17.45
-18.31
-19.80
-21.98
-24.74
-27.82
-30.86
-33.52
-35.58
-36.92
-37.48
-37.21
-36.12
-34.31
-32.09
-29.86
-28.03
-26.75
-25.82
-24.61
-22.33
-18.27
-12.09
-3.95
5.54
15.47
24.94
33.21
39.78
44.39
46.93
47.41
45.91
42.64
38.01
32.69
27.41
22.91
19.65
17.77
17.09
17.26
17.86
18.55
19.07
19.32
19.24
18.82
18.06
16.92
15.31
13.10
10.22
6.71
2.79
-1.18
-4.88
-8.16
-11.09
-13.89
-16.92
-20.42
-24.47
-28.98
-33.68
-38.18
-41.93
-44.26
-44.48
-42.07
-36.83
-29.13
-19.87
-10.29
-1.69
5.00
9.36
11.51
11.87
10.88
8.81
5.74
1.84
-2.52
-6.66
-9.81
-11.38
-11.24
-9.79
-7.75
-5.85
-4.47
-3.60
-2.88
-1.89
-0.44
1.30
2.88
3.69
3.31
1.59
-1.20
-4.58
-8.02
-11.12
-13.77
-16.05
-18.21
-20.50
-23.10
-26.09
-29.40
-32.79
-35.80
-37.82
-38.14
-36.16
-31.55
-24.42
-15.33
-5.17
5.01
14.23
21.77
27.23
30.48
31.58
30.77
28.36
24.74
20.42
15.99
12.01
8.92
6.90
5.81
5.31
4.97
4.47
3.66
2.51
1.07
-0.60
-2.53
-4.73
-7.17
-9.81
-12.54
-15.32
-18.15
-21.03
-23.94
-26.72
-29.11
-30.90
-32.07
-32.81
-33.59
-34.86
-36.87
-39.49
-42.13
-43.88
-43.65
-40.61
-34.32
-25.01
-13.63
-1.53
9.82
19.22
26.07
30.28
32.17
32.20
30.83
28.41
25.41
22.33
19.71
17.89
17.02
16.91
17.26
17.79
18.35
18.93
19.50
19.94
19.91
18.98
16.78
13.15
8.25
2.53
-3.42
-9.04
-14.06
-18.51
-22.70
-27.12
-32.15
-37.93
-44.37
-51.12
-57.64
-63.21
-67.04
-68.32
-66.45
-61.24
-53.09
-42.95
-32.14
-22.01
-13.67
-7.86
-4.95
-5.11
-8.42
-14.97
-24.77
-37.68
-53.15
-70.26
-87.76
-104.51
-119.80
-133.70
-146.88
-160.16
-173.79
-187.07
-198.54
-206.58
-210.25
-209.76
-206.36
-201.74
-197.51
-194.85
-194.52
-196.97
-202.27
-209.91
-218.62
-226.52
-231.57
-232.33
-228.42
-220.48
-209.75
-197.45
-184.36
-170.80
-156.73
-142.15
-127.17
-111.98
-96.82
-81.84
-67.03
-52.29
-37.41
-22.24
-6.70
9.12
24.95
40.46
55.34
69.43
82.78
95.59
108.18
120.95
134.35
148.71
164.14
180.13
195.49
208.39
216.92
219.65
216.14
207.10
194.01
178.54
162.09
145.55
129.40
113.93
99.36
85.87
73.45
61.83
50.52
38.95
26.59
13.09
-1.63
-17.07
-32.10
-45.02
-53.86
-56.96
-53.55
-43.89
-29.10
-10.64
10.17
32.33
54.88
76.62
95.91
110.94
120.31
123.66
121.76
116.40
109.70
103.48
98.92
96.51
96.29
98.06
101.58
106.44
112.04
117.48
121.68
123.73
123.10
119.90
114.79
108.71
102.47
96.43
90.47
84.16
77.11
69.20
60.69
52.12
44.04
36.80
30.44
24.66
18.90
12.55
5.07
-3.76
-13.64
-23.62
-32.10
-37.14
-36.95
-30.51
-17.94
-0.63
19.21
39.15
57.12
71.78
82.51
89.20
91.91
90.83
86.36
79.26
70.73
62.25
55.28
50.90
49.51
50.77
53.80
57.47
60.81
63.19
64.44
64.67
64.07
62.75
60.63
57.47
53.11
47.57
41.09
34.11
27.10
20.45
14.29
8.55
2.95
-2.87
-9.27
-16.48
-24.49
-32.85
-40.69
-46.78
-49.74
-48.41
-42.18
-31.26
-16.60
0.23
17.46
33.39
46.77
56.87
63.43
66.53
66.47
63.68
58.78
52.59
46.15
40.56
36.77
35.28
36.07
38.61
42.14
45.88
49.25
51.93
53.77
54.67
54.52
53.13
50.39
46.25
40.84
34.45
27.53
20.55
13.93
7.86
2.25
-3.27
-9.22
-16.03
-23.90
-32.61
-41.51
-49.52
-55.35
-57.63
-55.36
-48.10
-36.27
-21.04
-4.15
12.55
27.45
39.56
48.45
54.17
57.00
57.32
55.56
52.21
47.93
43.49
39.68
37.14
36.19
36.83
38.76
41.56
44.75
47.91
50.63
52.48
53.11
52.24
49.83
46.11
41.49
36.42
31.25
26.08
20.79
15.17
9.13
2.73
-3.78
-10.02
-15.69
-20.62
-24.92
-28.99
-33.36
-38.57
-44.84
-51.86
-58.56
-63.35
-64.48
-60.57
-51.18
-36.97
-19.53
-0.98
16.69
31.92
43.86
52.22
57.16
59.03
58.39
55.84
52.10
47.90
43.92
40.72
38.68
37.98
38.52
40.05
42.12
44.30
46.17
47.43
47.89
47.44
46.09
43.84
40.80
37.15
33.08
28.87
24.67
20.53
16.40
12.16
7.77
3.29
-1.11
-5.20
-8.89
-12.27
-15.55
-19.03
-22.88
-27.14
-31.62
-36.07
-40.26
-44.13
-47.82
-51.67
-56.19
-61.84
-68.87
-77.00
-85.26
-92.06
-95.42
-93.63
-85.75
-72.10
-54.16
-34.18
-14.53
2.93
17.17
27.92
35.38
39.91
41.82
41.44
39.21
35.74
31.84
28.35
25.93
24.93
25.35
26.88
29.15
31.77
34.45
37.00
39.21
40.85
41.61
41.25
39.66
36.98
33.51
29.63
25.64
21.65
17.64
13.54
9.35
5.17
1.18
-2.47
-5.76
-8.78
-11.71
-14.76
-18.04
-21.57
-25.26
-28.94
-32.54
-36.07
-39.73
-43.88
-48.91
-55.14
-62.53
-70.57
-78.18
-83.81
-85.74
-82.54
-73.52
-59.12
-40.82
-20.82
-1.45
15.39
28.55
37.62
42.74
44.34
42.98
39.33
34.20
28.53
23.26
19.19
16.80
16.21
17.18
19.27
21.98
24.85
27.57
29.96
31.90
33.23
33.72
33.09
31.10
27.74
23.26
18.15
12.97
8.17
3.87
-0.10
-4.08
-8.39
-13.18
-18.32
-23.46
-28.18
-32.16
-35.34
-37.98
-40.59
-43.86
-48.40
-54.46
-61.70
-69.08
-74.95
-77.48
-75.17
-67.41
-54.68
-38.46
-20.78
-3.66
11.36
23.39
32.09
37.45
39.58
38.70
35.19
29.72
23.26
16.96
11.85
8.69
7.70
8.69
11.11
14.29
17.62
20.62
23.03
24.67
25.44
25.23
23.95
21.55
18.05
13.69
8.82
3.86
-0.80
-5.01
-8.86
-12.68
-16.86
-21.62
-26.87
-32.24
-37.23
-41.47
-44.86
-47.72
-50.57
-54.03
-58.63
-64.56
-71.57
-78.77
-84.72
-87.61
-85.73
-78.09
-64.79
-47.17
-27.41
-7.90
9.42
23.42
33.83
40.88
45.01
46.51
45.59
42.57
37.98
32.67
27.65
23.86
21.89
21.83
23.31
25.74
28.52
31.25
33.73
35.85
37.47
38.33
38.06
36.33
32.98
28.13
22.18
15.73
9.39
3.67
-1.23
-5.46
-9.37
-13.42
-17.90
-22.85
-27.98
-32.85
-37.03
-40.27
-42.62
-44.49
-46.50
-49.31
-53.44
-59.09
-65.98
-73.27
-79.58
-83.23
-82.60
-76.58
-64.93
-48.48
-28.91
-8.39
11.00
27.70
40.92
50.50
56.69
59.88
60.45
58.75
55.27
50.61
45.54
40.88
37.33
35.27
34.68
35.16
36.18
37.22
37.95
38.29
38.26
37.81
36.79
34.91
31.86
27.58
22.28
16.46
10.70
5.44
0.86
-3.17
-6.94
-10.84
-15.08
-19.63
-24.28
-28.62
-32.28
-35.04
-36.98
-38.44
-39.97
-42.21
-45.60
-50.28
-55.92
-61.65
-66.16
-67.87
-65.37
-57.73
-44.96
-28.00
-8.58
11.20
29.37
44.47
55.69
62.78
65.90
65.49
62.13
56.56
49.70
42.55
36.10
31.16
28.21
27.29
28.14
30.32
33.38
36.99
40.98
45.18
49.31
52.93
55.50
56.59
56.01
53.86
50.49
46.23
41.24
35.41
28.47
20.17
10.48
-0.34
-11.70
-22.93
-33.46
-43.07
-51.90
-60.47
-69.48
-79.56
-90.96
-103.30
-115.47
-125.72
-132.02
-132.60
-126.56
-114.18
-96.99
-77.21
-57.25
-39.03
-23.71
-11.78
-3.26
1.98
4.14
3.55
0.86
-2.91
-6.51
-8.79
-9.00
-6.99
-3.21
1.54
6.40
10.71
14.19
16.87
18.91
20.43
21.34
21.37
20.21
17.65
13.75
8.84
3.47
-1.79
-6.50
-10.43
-13.65
-16.41
-19.09
-22.02
-25.48
-29.47
-33.65
-37.25
-39.10
-37.83
-32.24
-21.76
-6.72
11.59
31.24
50.20
66.78
79.94
89.30
94.89
96.91
95.69
91.58
85.19
77.37
69.20
61.78
55.99
52.30
50.64
50.54
51.23
51.94
52.07
51.29
49.49
46.76
43.18
38.84
33.74
27.87
21.24
13.93
6.17
-1.77
-9.60
-17.04
-24.00
-30.51
-36.81
-43.20
-50.02
-57.46
-65.43
-73.48
-80.70
-85.83
-87.49
-84.63
-76.81
-64.44
-48.76
-31.54
-14.67
0.25
12.14
20.53
25.48
27.36
26.76
24.38
20.86
16.86
12.98
9.76
7.66
6.96
7.74
9.79
12.71
16.00
19.16
21.80
23.63
24.41
23.95
22.09
18.82
14.35
9.13
3.65
-1.67
-6.71
-11.60
-16.64
-22.03
-27.72
-33.41
-38.67
-43.17
-46.88
-50.12
-53.48
-57.68
-63.26
-70.32
-78.34
-86.10
-91.87
-93.81
-90.49
-81.41
-67.24
-49.69
-31.02
-13.45
1.40
12.75
20.59
25.34
27.57
27.70
26.02
22.85
18.63
14.06
9.99
7.15
5.99
6.48
8.18
10.47
12.78
14.77
16.36
17.53
18.22
18.17
17.00
14.41
10.38
5.26
-0.30
-5.50
-9.73
-12.78
-14.92
-16.79
-19.14
-22.55
-27.17
-32.68
-38.46
-43.81
-48.23
-51.57
-54.05
-56.21
-58.67
-62.05
-66.74
-72.66
-79.09
-84.64
-87.39
-85.46
-77.62
-63.76
-45.07
-23.72
-2.19
17.37
33.55
45.75
53.96
58.42
59.49
57.57
53.26
47.40
41.04
35.26
30.94
28.60
28.32
29.72
32.17
34.93
37.36
38.99
39.63
39.26
38.01
36.00
33.27
29.79
25.53
20.48
14.86
8.96
3.21
-2.08
-6.71
-10.67
-14.10
-17.18
-20.11
-23.12
-26.47
-30.49
-35.45
-41.34
-47.70
-53.47
-57.15
-57.14
-52.26
-42.20
-27.77
-10.69
6.83
22.73
35.56
44.66
50.05
52.13
51.37
48.21
43.14
36.82
30.09
23.86
18.93
15.74
14.31
14.30
15.23
16.66
18.25
19.73
20.81
21.15
20.36
18.21
14.72
10.16
5.01
-0.18
-5.05
-9.45
-13.52
-17.55
-21.85
-26.55
-31.52
-36.40
-40.71
-44.14
-46.64
-48.54
-50.47
-53.16
-57.16
-62.60
-68.95
-74.99
-78.94
-78.88
-73.31
-61.77
-45.06
-25.15
-4.61
14.18
29.59
40.96
48.43
52.49
53.61
52.04
48.00
41.86
34.32
26.30
18.83
12.74
8.48
6.09
5.22
5.37
6.00
6.66
6.97
6.62
5.26
2.56
-1.74
-7.75
-15.25
-23.80
-32.78
-41.58
-49.82
-57.48
-64.87
-72.49
-80.81
-90.04
-100.05
-110.50
-120.99
-131.30
-141.52
-151.91
-162.68
-173.86
-185.10
-195.70
-204.68
-210.72
-212.30
-207.73
-195.48
-174.54
-144.87
-107.70
-65.40
-21.12
21.87
60.80
93.80
119.91
138.96
151.24
157.27
157.78
153.70
146.22
136.79
126.86
117.71
110.12
104.39
100.32
97.47
95.32
93.46
91.66
89.76
87.68
85.29
82.46
79.13
75.37
71.43
67.66
64.43
61.97
60.23
58.81
57.10
54.40
50.27
44.67
38.00
31.04
24.57
19.20
15.23
12.62
11.15
10.53
10.41
10.38
9.87
8.30
5.24
0.77
-4.26
-8.26
-9.29
-5.64
3.53
17.77
35.46
54.30
72.05
87.14
98.91
107.39
112.95
115.82
116.07
113.69
108.88
102.30
94.95
88.01
82.50
79.03
77.76
78.43
80.40
82.78
84.49
84.37
81.34
74.65
63.98
49.51
31.89
12.04
-8.95
-30.09
-50.47
-69.39
-86.35
-101.01
-113.17
-122.74
-129.72
-134.25
-136.64
-137.40
-137.21
-136.80
-136.77
-137.40
-138.46
-139.18
-138.45
-135.05
-128.08
-117.20
-102.82
-86.00
-68.25
-51.12
-35.96
-23.75
-15.03
-9.98
-8.49
-10.18
-14.44
-20.42
-27.08
-33.32
-38.12
-40.73
-40.77
-38.27
-33.57
-27.21
-19.79
-11.89
-4.03
3.35
9.92
15.42
19.68
22.65
24.34
24.80
24.22
22.91
21.36
20.23
20.14
21.52
24.43
28.44
32.84
36.75
39.39
40.22
39.13
36.48
33.13
30.30
29.27
31.04
35.85
43.11
51.47
59.33
65.29
68.55
69.00
66.92
62.85
57.27
50.61
43.29
35.84
28.89
23.06
18.90
16.67
16.34
17.62
20.00
22.95
25.93
28.46
30.18
30.84
30.29
28.47
25.46
21.41
16.52
10.97
4.88
-1.62
-8.39
-15.23
-21.86
-28.08
-33.78
-39.09
-44.36
-50.01
-56.41
-63.65
-71.36
-78.66
-84.18
-86.35
-83.77
-75.64
-62.05
-44.12
-23.70
-2.90
16.38
32.81
45.72
55.02
60.95
63.87
64.23
62.55
59.47
55.75
52.17
49.39
47.82
47.63
48.74
50.85
53.57
56.49
59.24
61.51
63.07
63.75
63.45
62.10
59.76
56.52
52.52
47.87
42.57
36.52
29.61
21.85
13.52
5.08
-2.91
-10.05
-16.28
-21.85
-27.33
-33.33
-40.43
-48.90
-58.54
-68.43
-77.02
-82.33
-82.53
-76.57
-64.63
-48.21
-29.69
-11.60
4.07
16.22
24.63
29.60
31.63
31.20
28.77
24.86
20.14
15.38
11.37
8.77
8.00
9.16
12.02
16.04
20.47
24.58
27.78
29.74
30.40
29.83
28.07
25.13
20.97
15.68
9.54
3.05
-3.19
-8.67
-13.17
-16.81
-19.95
-23.12
-26.70
-30.86
-35.52
-40.43
-45.28
-49.88
-54.20
-58.38
-62.68
-67.45
-73.09
-79.92
-87.92
-96.44
-104.13
-109.04
-109.15
-103.07
-90.60
-72.92
-52.26
-31.21
-11.99
3.98
16.17
24.63
29.73
31.82
31.25
28.39
23.76
18.13
12.40
7.49
4.17
2.84
3.49
5.71
8.88
12.31
15.49
18.10
20.06
21.30
21.74
21.20
19.54
16.72
12.95
8.65
4.36
0.55
-2.54
-4.93
-6.85
-8.61
-10.52
-12.80
-15.55
-18.75
-22.22
-25.66
-28.76
-31.24
-33.07
-34.52
-36.11
-38.53
-42.25
-47.35
-53.29
-58.90
-62.59
-62.76
-58.22
-48.66
-34.75
-18.05
-0.56
15.79
29.56
39.94
46.73
50.08
50.33
47.85
43.08
36.60
29.16
21.71
15.19
10.44
7.95
7.82
9.71
12.99
16.85
20.56
23.56
25.55
26.40
26.12
24.72
22.20
18.57
13.94
8.51
2.70
-3.05
-8.29
-12.81
-16.61
-19.95
-23.20
-26.73
-30.80
-35.44
-40.38
-44.98
-48.29
-49.21
-46.75
-40.37
-30.24
-17.24
-2.77
11.61
24.56
35.10
42.60
46.72
47.27
44.28
38.17
29.77
20.37
11.43
4.19
-0.57
-2.74
-2.74
-1.26
1.00
3.54
6.03
8.26
9.97
10.87
10.61
8.96
5.85
1.48
-3.78
-9.40
-14.87
-19.83
-24.18
-28.18
-32.43
-37.62
-44.22
-52.23
-60.91
-68.85
-74.26
-75.41
-71.17
-61.37
-46.87
-29.38
-11.05
6.17
20.84
32.20
40.09
44.61
45.95
44.32
40.05
33.70
26.21
18.68
12.19
7.51
4.93
4.27
4.97
6.40
7.96
9.26
10.07
10.28
9.75
8.30
5.64
1.53
-4.09
-11.03
-18.76
-26.63
-34.01
-40.55
-46.28
-51.67
-57.41
-64.18
-72.43
-82.08
-92.42
-102.05
-109.11
-111.68
-108.31
-98.48
-82.81
-62.96
-41.19
-19.79
-0.61
15.21
27.24
35.61
40.70
43.06
43.24
41.80
39.34
36.46
33.78
31.76
30.72
30.75
31.77
33.54
35.83
38.37
40.83
42.81
43.87
43.58
41.76
38.44
33.95
28.73
23.13
17.31
11.20
4.68
-2.35
-9.77
-17.31
-24.63
-31.49
-37.77
-43.58
-49.17
-54.95
-61.40
-68.84
-77.20
-85.74
-92.99
-96.96
-95.68
-87.93
-73.74
-54.49
-32.52
-10.44
9.62
26.40
39.53
49.21
55.79
59.59
60.87
59.95
57.40
53.97
50.49
47.68
46.00
45.62
46.48
48.41
51.15
54.37
57.63
60.47
62.38
62.99
62.13
59.89
56.55
52.48
47.98
43.25
38.37
33.36
28.23
23.09
18.10
13.43
9.17
5.27
1.52
-2.34
-6.53
-11.10
-15.95
-20.87
-25.70
-30.44
-35.22
-40.33
-46.05
-52.66
-60.26
-68.75
-77.59
-85.66
-91.32
-92.68
-88.16
-77.10
-60.13
-39.12
-16.66
4.67
22.95
37.23
47.45
54.05
57.62
58.68
57.64
54.95
51.19
47.09
43.40
40.75
39.48
39.64
41.04
43.32
46.06
48.85
51.34
53.19
54.18
54.16
53.07
50.99
48.08
44.53
40.49
36.04
31.26
26.22
21.09
16.06
11.38
7.14
3.28
-0.51
-4.56
-9.15
-14.28
-19.70
-25.01
-29.86
-34.12
-37.87
-41.45
-45.26
-49.69
-55.08
-61.52
-68.76
-76.02
-81.98
-84.91
-83.22
-75.91
-63.00
-45.67
-25.85
-5.78
12.65
28.15
40.10
48.40
53.17
54.69
53.29
49.52
44.11
38.02
32.27
27.73
24.98
24.17
25.11
27.32
30.24
33.33
36.14
38.33
39.62
39.80
38.70
36.27
32.64
28.13
23.15
18.13
13.37
8.96
4.84
0.83
-3.23
-7.36
-11.49
-15.45
-19.05
-22.21
-25.01
-27.76
-30.95
-35.11
-40.56
-47.08
-53.81
-59.17
-61.40
-59.04
-51.53
-39.43
-24.28
-8.10
7.18
20.21
30.31
37.35
41.45
42.78
41.54
38.03
32.83
26.77
20.80
15.83
12.41
10.74
10.66
11.81
13.81
16.29
18.93
21.42
23.40
24.49
24.34
22.81
19.98
16.19
11.93
7.63
3.52
-0.44
-4.50
-8.99
-14.07
-19.64
-25.44
-31.08
-36.29
-41.02
-45.43
-49.91
-54.88
-60.66
-67.24
-74.10
-80.13
-83.79
-83.47
-78.02
-67.14
-51.61
-33.06
-13.60
4.71
20.34
32.43
40.74
45.47
47.05
45.96
42.73
38.02
32.55
27.17
22.67
19.61
18.20
18.32
19.58
21.55
23.87
26.31
28.73
30.92
32.57
33.29
32.66
30.45
26.70
21.78
16.33
10.95
6.06
1.64
-2.60
-7.15
-12.28
-17.92
-23.63
-28.85
-33.13
-36.44
-39.14
-41.82
-45.15
-49.65
-55.51
-62.50
-69.82
-76.16
-79.78
-79.00
-72.67
-60.70
-44.16
-25.09
-5.85
11.50
25.64
36.08
42.95
46.65
47.59
46.15
42.75
37.93
32.50
27.30
23.16
20.60
19.72
20.31
21.95
24.22
26.81
29.52
32.17
34.53
36.24
36.88
36.12
33.81
30.11
25.40
20.18
14.96
10.08
5.64
1.45
-2.83
-7.55
-12.84
-18.53
-24.15
-29.22
-33.41
-36.73
-39.59
-42.61
-46.44
-51.53
-57.89
-65.03
-71.85
-76.79
-78.13
-74.48
-65.26
-51.03
-33.38
-14.48
3.53
19.12
31.53
40.65
46.71
49.96
50.61
48.96
45.46
40.81
35.83
31.30
27.79
25.57
24.66
24.91
26.11
28.05
30.52
33.27
35.97
38.16
39.34
39.05
37.01
33.32
28.40
22.91
17.51
12.62
8.30
4.28
0.11
-4.62
-10.03
-15.92
-21.86
-27.35
-32.02
-35.80
-38.91
-41.85
-45.27
-49.75
-55.59
-62.57
-69.79
-75.75
-78.63
-76.80
-69.38
-56.57
-39.67
-20.73
-1.94
14.89
28.64
38.94
45.89
49.81
51.05
49.95
46.90
42.43
37.25
32.15
27.87
24.96
23.72
24.10
25.87
28.61
31.87
35.20
38.13
40.23
41.12
40.57
38.52
35.14
30.77
25.81
20.63
15.42
10.25
5.04
-0.22
-5.51
-10.69
-15.57
-20.07
-24.22
-28.26
-32.53
-37.36
-42.90
-48.95
-54.84
-59.39
-61.25
-59.16
-52.42
-41.23
-26.66
-10.40
5.73
20.23
32.21
41.29
47.51
51.00
51.94
50.53
47.02
41.92
35.93
29.90
24.63
20.77
18.62
18.19
19.14
20.95
23.05
24.91
26.15
26.53
25.96
24.40
21.82
18.21
13.66
8.32
2.48
-3.48
-9.16
-14.33
-18.91
-23.08
-27.12
-31.35
-36.04
-41.24
-46.80
-52.22
-56.67
-59.01
-58.07
-52.92
-43.33
-29.92
-14.10
2.32
17.63
30.58
40.57
47.53
51.56
52.86
51.67
48.36
43.57
38.13
32.96
28.81
26.15
25.09
25.52
27.19
29.73
32.72
35.61
37.80
38.73
38.05
35.69
31.94
27.30
22.31
17.33
12.43
7.40
1.88
-4.39
-11.41
-18.88
-26.27
-33.07
-38.90
-43.70
-47.69
-51.32
-55.04
-59.26
-64.06
-69.10
-73.53
-76.03
-75.05
-69.29
-58.24
-42.49
-23.74
-4.33
13.45
27.97
38.58
45.47
49.29
50.69
50.08
47.73
43.94
39.24
34.44
30.38
27.63
26.38
26.37
27.13
28.23
29.39
30.52
31.55
32.32
32.50
31.70
29.57
25.98
21.01
15.04
8.54
2.05
-3.99
-9.29
-13.83
-17.90
-21.99
-26.57
-31.88
-37.77
-43.71
-49.02
-53.20
-56.13
-58.16
-60.01
-62.49
-66.17
-71.22
-77.25
-83.27
-87.80
-89.13
-85.75
-76.86
-62.68
-44.53
-24.52
-4.95
12.27
25.99
35.83
41.97
44.81
44.80
42.38
38.06
32.53
26.65
21.28
17.15
14.71
14.06
14.98
17.06
19.80
22.70
25.34
27.39
28.65
29.04
28.54
27.15
24.84
21.58
17.36
12.33
6.79
1.17
-4.09
-8.71
-12.65
-16.15
-19.58
-23.29
-27.46
-31.95
-36.45
-40.52
-43.89
-46.53
-48.66
-50.74
-53.28
-56.77
-61.47
-67.33
-73.78
-79.66
-83.29
-82.80
-76.75
-64.65
-47.34
-26.73
-5.36
14.40
30.90
43.35
51.74
56.43
57.89
56.52
52.77
47.26
40.82
34.49
29.22
25.73
24.25
24.58
26.22
28.59
31.24
33.91
36.45
38.73
40.48
41.35
40.98
39.15
35.88
31.46
26.35
21.15
16.35
12.20
8.63
5.23
1.46
-3.19
-8.95
-15.66
-22.83
-29.81
-36.07
-41.34
-45.64
-49.27
-52.68
-56.37
-60.75
-65.92
-71.51
-76.51
-79.44
-78.64
-72.85
-61.67
-45.84
-27.05
-7.52
10.66
25.90
37.39
44.94
48.75
49.17
46.62
41.57
34.72
26.98
19.42
13.05
8.64
6.49
6.47
8.05
10.58
13.45
16.23
18.60
20.39
21.43
21.54
20.61
18.59
15.58
11.77
7.42
2.74
-2.07
-6.92
-11.71
-16.37
-20.78
-24.87
-28.65
-32.24
-35.94
-40.02
-44.70
-49.99
-55.49
-60.41
-63.53
-63.48
-59.05
-49.71
-35.85
-18.81
-0.61
16.67
31.32
42.41
49.65
53.21
53.42
50.59
45.14
37.68
29.15
20.70
13.52
8.43
5.80
5.42
6.67
8.71
10.81
12.45
13.43
13.76
13.54
12.81
11.47
9.28
5.98
1.45
-4.20
-10.60
-17.23
-23.61
-29.42
-34.64
-39.43
-44.17
-49.25
-55.08
-61.90
-69.62
-77.64
-84.66
-88.86
-88.29
-81.51
-68.16
-49.18
-26.59
-2.83
19.93
40.31
57.81
72.52
84.77
94.80
102.74
108.70
112.94
115.97
118.52
121.44
125.59
131.67
140.08
150.79
163.26
176.60
189.77
201.87
212.29
220.71
226.86
230.28
230.24
225.88
216.67
202.79
185.43
166.67
149.10
135.14
126.29
122.70
122.91
124.15
123.08
116.55
102.32
79.70
49.90
16.34
-15.93
-41.52
-56.46
-59.85
-54.46
-45.94
-40.68
-43.57
-56.46
-78.10
-105.22
-133.92
-160.62
-182.35
-196.68
-202.12
-198.80
-189.12
-177.79
-170.68
-172.80
-186.41
-210.09
-238.97
-266.23
-285.15
-291.08
-282.54
-261.27
-231.41
-198.06
-165.93
-138.28
-116.77
-101.67
-92.44
-88.17
-87.76
-90.02
-93.59
-97.12
-99.63
-100.83
-101.29
-102.28
-105.30
-111.41
-120.69
-131.88
-142.41
-148.91
-148.10
-137.85
-117.89
-90.04
-57.65
-24.58
5.88
31.68
52.08
67.28
77.67
83.58
85.16
82.73
76.97
69.04
60.42
52.55
46.49
42.72
41.23
41.60
43.31
45.76
48.39
50.76
52.48
53.34
53.20
51.95
49.44
45.51
40.00
32.94
24.68
15.79
7.00
-1.13
-8.38
-14.96
-21.35
-28.12
-35.67
-44.11
-53.29
-62.72
-71.63
-78.93
-83.31
-83.43
-78.29
-67.64
-52.21
-33.55
-13.72
5.35
22.23
36.19
47.00
54.62
59.00
59.98
57.55
52.12
44.68
36.72
29.79
25.11
23.15
23.65
25.83
28.74
31.66
34.20
36.20
37.59
38.18
37.65
35.68
32.05
26.85
20.45
13.40
6.30
-0.40
-6.48
-11.94
-17.03
-22.15
-27.81
-34.50
-42.48
-51.48
-60.53
-68.00
-71.92
-70.56
-62.97
-49.38
-31.22
-10.68
9.86
28.41
43.67
55.08
62.56
66.31
66.64
63.87
58.49
51.26
43.16
35.39
29.06
25.00
23.53
24.42
27.06
30.66
34.47
37.88
40.46
41.87
41.89
40.43
37.58
33.57
28.75
23.38
17.60
11.42
4.83
-2.10
-9.13
-15.97
-22.35
-28.23
-33.77
-39.37
-45.50
-52.57
-60.70
-69.44
-77.77
-84.01
-86.25
-82.84
-73.01
-57.18
-37.01
-14.99
6.26
24.61
38.82
48.63
54.41
56.84
56.56
54.02
49.67
44.09
38.08
32.68
28.80
27.04
27.45
29.60
32.85
36.53
40.17
43.46
46.17
47.99
48.52
47.44
44.59
40.19
34.75
28.90
23.16
17.72
12.42
6.90
0.79
-5.98
-13.23
-20.48
-27.17
-32.86
-37.42
-41.07
-44.33
-47.98
-52.74
-59.05
-66.71
-74.73
-81.34
-84.40
-82.03
-73.29
-58.57
-39.55
-18.66
1.55
19.15
33.10
43.23
49.88
53.57
54.72
53.65
50.72
46.47
41.67
37.24
34.02
32.58
33.10
35.37
38.93
43.16
47.48
51.35
54.40
56.32
56.94
56.19
54.12
50.97
47.01
42.57
37.89
33.17
28.39
23.50
18.43
13.21
8.02
3.10
-1.38
-5.47
-9.37
-13.39
-17.66
-22.12
-26.47
-30.41
-33.80
-36.79
-39.80
-43.36
-48.03
-54.14
-61.65
-70.04
-78.11
-84.13
-86.14
-82.49
-72.46
-56.56
-36.58
-15.00
5.62
23.31
37.01
46.55
52.28
54.86
54.92
53.05
49.84
45.94
42.06
38.89
36.94
36.40
37.20
39.02
41.47
44.17
46.78
48.98
50.48
51.02
50.49
48.93
46.50
43.38
39.72
35.59
31.06
26.28
21.45
16.79
12.45
8.46
4.75
1.26
-2.08
-5.35
-8.67
-12.19
-15.98
-19.99
-23.99
-27.69
-30.91
-33.73
-36.47
-39.66
-43.77
-49.07
-55.37
-61.92
-67.38
-70.02
-68.19
-60.85
-48.04
-31.03
-11.98
6.68
22.91
35.49
44.11
49.02
50.76
49.79
46.51
41.38
35.09
28.59
23.01
19.32
18.04
19.07
21.75
25.18
28.55
31.37
33.54
35.09
36.07
36.28
35.43
33.23
29.66
25.07
20.07
15.38
11.47
8.43
5.87
3.16
-0.30
-4.74
-9.90
-15.14
-19.74
-23.24
-25.67
-27.51
-29.45
-32.21
-36.22
-41.63
-48.13
-54.96
-60.93
-64.50
-64.12
-58.76
-48.25
-33.56
-16.52
0.69
16.18
28.76
38.02
44.11
47.40
48.19
46.68
43.13
38.00
32.09
26.42
22.00
19.57
19.36
21.10
24.15
27.73
31.14
33.92
35.88
36.99
37.33
36.84
35.40
32.80
28.96
23.99
18.29
12.44
6.98
2.27
-1.67
-5.11
-8.43
-12.01
-15.99
-20.31
-24.71
-28.87
-32.50
-35.48
-37.91
-40.09
-42.51
-45.72
-50.20
-56.14
-63.23
-70.52
-76.43
-79.07
-76.69
-68.35
-54.25
-35.88
-15.61
3.99
20.81
33.60
42.09
46.68
48.11
47.09
44.23
40.06
35.13
30.05
25.51
22.11
20.27
20.11
21.48
23.96
27.06
30.24
33.07
35.21
36.45
36.67
35.83
33.99
31.31
28.01
24.36
20.60
16.85
13.11
9.33
5.45
1.55
-2.20
-5.65
-8.74
-11.61
-14.54
-17.82
-21.59
-25.75
-30.02
-34.00
-37.48
-40.47
-43.21
-46.17
-49.81
-54.57
-60.59
-67.62
-74.79
-80.59
-83.06
-80.37
-71.40
-56.38
-36.90
-15.56
4.78
21.87
34.56
42.76
47.08
48.33
47.17
44.08
39.51
34.02
28.42
23.59
20.31
18.98
19.61
21.85
25.19
29.13
33.26
37.24
40.75
43.38
44.67
44.29
42.13
38.42
33.63
28.36
23.15
18.33
14.03
10.18
6.64
3.26
-0.06
-3.32
-6.46
-9.44
-12.21
-14.89
-17.67
-20.74
-24.23
-28.10
-32.09
-35.86
-39.15
-41.94
-44.47
-47.28
-50.97
-56.09
-62.80
-70.68
-78.57
-84.63
-86.72
-82.98
-72.54
-55.97
-35.29
-13.36
6.98
23.65
35.79
43.53
47.59
48.67
47.27
43.68
38.29
31.75
25.03
19.25
15.30
13.70
14.39
16.89
20.44
24.28
27.88
30.93
33.36
35.16
36.28
36.51
35.61
33.37
29.83
25.30
20.29
15.41
11.13
7.66
4.88
2.46
-0.00
-2.82
-6.02
-9.42
-12.66
-15.34
-17.22
-18.29
-18.79
-19.14
-19.84
-21.36
-23.98
-27.61
-31.62
-34.83
-35.56
-32.12
-23.34
-9.09
9.57
30.60
51.61
70.47
85.87
97.34
105.12
109.81
112.13
112.85
112.70
112.38
112.47
113.40
115.46
118.94
124.19
131.64
141.72
154.43
169.05
183.95
196.58
203.92
203.22
192.85
172.89
145.41
114.13
83.66
58.42
41.54
34.01
34.47
39.47
44.41
44.69
36.87
19.44
-6.91
-39.72
-75.48
-110.65
-142.61
-170.12
-193.19
-212.53
-228.73
-241.65
-250.41
-253.90
-251.55
-243.74
-231.74
-217.14
-201.20
-184.58
-167.35
-149.43
-130.86
-111.87
-92.82
-74.09
-56.13
-39.66
-25.81
-15.72
-9.99
-7.75
-6.33
-1.64
10.42
32.25
63.16
99.08
133.73
160.56
174.94
175.49
164.13
145.22
123.95
104.88
90.78
82.32
78.17
75.72
72.00
64.58
52.01
33.95
10.77
-16.88
-48.27
-82.76
-119.87
-159.50
-202.21
-248.82
-299.59
-352.76
-403.78
-445.60
-470.62
-473.26
-452.12
-410.46
-354.71
-292.07
-228.24
-166.61
-108.80
-55.84
-9.09
29.88
59.95
81.35
95.81
106.11
115.09
124.84
136.23
149.11
162.76
176.49
190.00
203.38
216.93
230.81
244.79
258.39
271.21
283.42
295.48
307.30
317.42
322.69
319.27
304.46
278.39
244.36
207.63
172.90
142.22
114.42
86.30
54.71
18.29
-22.37
-65.68
-110.34
-155.87
-202.06
-247.95
-291.18
-328.39
-356.27
-372.84
-378.16
-373.96
-362.72
-346.73
-327.40
-305.41
-280.90
-253.89
-224.37
-192.43
-158.36
-122.91
-87.53
-54.23
-25.24
-2.25
14.17
24.75
31.27
35.79
40.05
45.06
51.14
58.14
65.68
73.35
80.65
87.01
91.80
94.50
94.84
93.00
89.45
84.89
79.91
74.85
69.73
64.28
58.22
51.39
43.94
36.27
28.88
22.17
16.23
10.84
5.45
-0.62
-7.98
-16.85
-26.86
-36.93
-45.46
-50.66
-51.07
-46.09
-36.14
-22.56
-7.19
8.13
21.98
33.45
42.09
47.73
50.30
49.81
46.55
41.08
34.34
27.49
21.67
17.72
15.99
16.36
18.32
21.25
24.50
27.57
29.99
31.35
31.28
29.52
26.04
21.10
15.22
9.07
3.24
-1.91
-6.38
-10.50
-14.78
-19.76
-25.80
-32.89
-40.62
-48.02
-53.71
-56.12
-53.85
-46.16
-33.33
-16.63
1.86
19.87
35.44
47.32
54.98
58.51
58.29
54.92
49.15
41.87
34.12
26.89
21.00
16.85
14.46
13.52
13.54
14.09
14.85
15.66
16.41
16.91
16.80
15.66
13.07
8.90
3.40
-2.86
-9.13
-14.90
-20.03
-24.84
-29.99
-36.16
-43.78
-52.74
-62.25
-70.73
-76.13
-76.26
-69.52
-55.55
-35.56
-12.16
11.38
32.09
48.10
58.84
64.77
66.83
65.87
62.57
57.47
51.22
44.61
38.55
33.77
30.69
29.32
29.40
30.51
32.15
33.82
35.03
35.36
34.50
32.35
29.03
24.85
20.24
15.56
11.00
6.46
1.68
-3.62
-9.57
-16.04
-22.69
-29.00
-34.56
-39.17
-42.97
-46.42
-50.22
-55.08
-61.50
-69.40
-77.78
-84.68
-87.46
-83.58
-71.61
-51.99
-27.09
-0.62
23.60
42.83
56.01
63.67
67.13
67.73
66.32
63.27
58.90
53.70
48.52
44.25
41.52
40.52
40.93
42.14
43.59
44.91
46.00
46.92
47.74
48.32
48.36
47.42
45.15
41.50
36.77
31.58
26.61
22.30
18.68
15.39
11.86
7.68
2.80
-2.43
-7.37
-11.47
-14.49
-16.68
-18.65
-21.13
-24.63
-29.18
-34.35
-39.36
-43.48
-46.36
-48.21
-49.75
-52.02
-56.00
-62.27
-70.79
-80.56
-89.68
-95.54
-95.38
-87.22
-70.65
-47.32
-20.54
5.59
27.57
43.45
53.14
57.90
59.39
58.90
57.05
54.03
50.04
45.65
41.72
39.06
38.07
38.55
39.87
41.30
42.36
42.97
43.31
43.63
44.02
44.30
44.11
43.04
40.78
37.25
32.68
27.54
22.46
18.00
14.49
11.86
9.69
7.41
4.58
1.10
-2.75
-6.47
-9.59
-11.98
-13.89
-15.82
-18.29
-21.62
-25.76
-30.32
-34.79
-38.68
-41.80
-44.26
-46.47
-49.05
-52.62
-57.65
-64.20
-71.78
-79.15
-84.37
-85.12
-79.39
-66.31
-46.67
-22.98
1.27
22.66
38.93
49.41
54.89
56.80
56.45
54.56
51.37
46.96
41.70
36.31
31.70
28.55
27.12
27.12
27.97
29.04
30.01
30.81
31.64
32.66
33.80
34.70
34.76
33.49
30.68
26.63
22.02
17.62
14.00
11.31
9.20
7.09
4.43
0.97
-3.09
-7.23
-10.82
-13.48
-15.19
-16.36
-17.61
-19.54
-22.44
-26.19
-30.33
-34.27
-37.60
-40.19
-42.28
-44.36
-47.06
-50.88
-56.11
-62.49
-69.14
-74.47
-76.46
-73.13
-63.34
-47.32
-26.83
-4.76
15.82
32.54
44.32
51.37
54.65
55.22
53.75
50.54
45.76
39.88
33.71
28.28
24.48
22.64
22.55
23.54
24.91
26.16
27.20
28.18
29.29
30.55
31.67
32.16
31.56
29.63
26.45
22.44
18.20
14.27
10.95
8.19
5.67
2.90
-0.47
-4.49
-8.85
-13.01
-16.42
-18.80
-20.27
-21.27
-22.45
-24.32
-27.11
-30.65
-34.50
-38.08
-40.93
-42.93
-44.38
-45.96
-48.54
-52.86
-59.20
-67.10
-75.25
-81.57
-83.68
-79.52
-68.12
-50.06
-27.54
-3.76
18.04
35.42
47.40
54.29
57.15
57.16
55.13
51.50
46.62
40.99
35.35
30.55
27.22
25.58
25.41
26.24
27.56
29.03
30.53
32.06
33.61
35.05
36.08
36.32
35.44
33.33
30.13
26.27
22.27
18.62
15.55
13.01
10.70
8.20
5.17
1.51
-2.65
-6.99
-11.11
-14.72
-17.70
-20.14
-22.26
-24.37
-26.75
-29.54
-32.71
-36.06
-39.31
-42.20
-44.62
-46.69
-48.77
-51.46
-55.34
-60.86
-67.94
-75.77
-82.74
-86.69
-85.43
-77.52
-62.83
-42.76
-19.94
2.63
22.42
37.97
48.97
55.89
59.47
60.30
58.78
55.32
50.54
45.26
40.33
36.34
33.50
31.71
30.73
30.42
30.78
31.86
33.54
35.48
37.18
38.12
37.93
36.52
34.05
30.87
27.33
23.71
20.12
16.44
12.52
8.17
3.37
-1.69
-6.64
-11.11
-14.89
-18.02
-20.85
-23.81
-27.23
-31.11
-35.13
-38.77
-41.68
-43.79
-45.49
-47.49
-50.52
-55.09
-61.17
-68.10
-74.51
-78.64
-78.53
-72.73
-60.74
-43.33
-22.52
-1.07
18.39
33.96
44.92
51.54
54.67
55.14
53.56
50.24
45.45
39.64
33.57
28.09
23.91
21.41
20.55
20.97
22.17
23.68
25.24
26.71
28.04
29.16
29.91
30.01
29.27
27.52
24.83
21.39
17.47
13.34
9.18
5.10
1.11
-2.77
-6.57
-10.34
-14.22
-18.35
-22.83
-27.62
-32.53
-37.25
-41.46
-45.07
-48.20
-51.24
-54.73
-59.17
-64.88
-71.75
-79.03
-85.21
-88.21
-85.84
-76.59
-60.32
-38.57
-14.21
9.37
29.40
44.40
54.28
59.87
62.20
61.97
59.53
55.11
49.20
42.67
36.57
31.78
28.71
27.29
27.10
27.70
28.78
30.28
32.16
34.30
36.37
37.87
38.33
37.46
35.29
32.09
28.34
24.43
20.59
16.79
12.89
8.69
4.17
-0.51
-5.00
-9.02
-12.50
-15.69
-19.09
-23.17
-28.12
-33.70
-39.25
-44.02
-47.54
-49.89
-51.69
-53.91
-57.51
-63.08
-70.59
-79.16
-87.14
-92.17
-91.73
-83.86
-67.98
-45.36
-18.97
7.36
30.13
47.11
57.86
63.29
64.94
64.11
61.56
57.59
52.42
46.56
40.79
35.97
32.65
30.94
30.53
30.98
31.94
33.31
35.12
37.37
39.83
41.98
43.16
42.80
40.67
36.95
32.23
27.22
22.56
18.56
15.18
12.07
8.85
5.28
1.36
-2.68
-6.59
-10.25
-13.78
-17.49
-21.68
-26.43
-31.50
-36.39
-40.57
-43.74
-46.06
-48.15
-50.89
-55.18
-61.49
-69.61
-78.45
-86.11
-90.16
-88.26
-78.96
-62.31
-40.09
-15.37
8.35
28.23
42.76
51.93
56.65
58.09
57.15
54.28
49.77
44.06
37.95
32.40
28.31
26.08
25.56
26.22
27.36
28.49
29.47
30.44
31.66
33.19
34.73
35.69
35.42
33.46
29.76
24.75
19.16
13.75
9.04
5.16
1.82
-1.50
-5.35
-10.08
-15.71
-21.90
-28.03
-33.43
-37.62
-40.58
-42.67
-44.67
-47.45
-51.68
-57.63
-64.83
-72.03
-77.27
-78.24
-72.98
-60.62
-41.91
-19.23
4.07
24.76
40.68
51.17
56.92
59.16
58.93
56.79
52.85
47.29
40.69
34.08
28.61
25.09
23.68
23.91
24.97
26.14
27.03
27.66
28.23
28.91
29.62
30.00
29.58
27.92
24.81
20.37
15.03
9.41
4.18
-0.20
-3.58
-6.27
-8.89
-12.19
-16.64
-22.22
-28.42
-34.37
-39.26
-42.73
-44.94
-46.61
-48.68
-52.02
-57.20
-64.35
-72.95
-81.64
-88.29
-90.24
-85.16
-71.86
-51.09
-25.52
1.01
24.70
42.99
55.07
61.62
64.06
63.71
61.38
57.45
52.23
46.25
40.32
35.26
31.62
29.55
28.78
28.83
29.29
29.89
30.53
31.20
31.80
32.16
31.99
31.02
29.16
26.42
22.98
19.03
14.77
10.34
5.88
1.53
-2.57
-6.30
-9.67
-12.84
-16.11
-19.80
-24.11
-29.06
-34.35
-39.55
-44.22
-48.07
-51.10
-53.63
-56.21
-59.59
-64.45
-71.24
-79.76
-88.83
-96.18
-98.82
-93.94
-80.07
-57.88
-30.28
-1.52
24.16
43.90
56.81
63.74
66.32
66.06
63.90
60.21
55.27
49.62
44.14
39.74
37.03
36.08
36.49
37.58
38.79
39.87
40.89
42.09
43.55
45.07
46.10
45.95
44.13
40.54
35.60
30.12
24.90
20.46
16.85
13.66
10.31
6.33
1.68
-3.29
-7.97
-11.79
-14.59
-16.67
-18.70
-21.41
-25.22
-30.01
-35.22
-40.05
-43.90
-46.70
-48.88
-51.34
-55.08
-60.85
-68.92
-78.79
-88.99
-97.08
-100.12
-95.42
-81.66
-59.55
-31.94
-3.00
23.07
43.34
56.74
63.91
66.39
65.70
62.84
58.33
52.56
46.13
39.94
34.95
31.82
30.69
31.16
32.51
34.03
35.24
36.00
36.46
36.85
37.29
37.66
37.58
36.60
34.30
30.59
25.69
20.18
14.75
10.01
6.24
3.24
0.47
-2.77
-6.97
-12.22
-18.12
-23.88
-28.74
-32.23
-34.43
-35.90
-37.54
-40.23
-44.59
-50.75
-58.30
-66.12
-72.42
-74.96
-71.65
-61.28
-44.17
-22.33
1.04
22.55
39.66
51.23
57.53
59.61
58.63
55.45
50.61
44.65
38.24
32.29
27.59
24.60
23.27
23.21
23.85
24.75
25.70
26.71
27.82
28.94
29.78
29.85
28.64
25.81
21.42
15.93
10.07
4.60
0.00
-3.79
-7.27
-11.21
-16.15
-22.18
-28.76
-35.02
-40.14
-43.69
-45.90
-47.48
-49.46
-52.75
-58.00
-65.31
-73.99
-82.38
-87.95
-87.86
-79.89
-63.40
-39.97
-13.01
13.20
35.00
50.33
59.04
62.31
61.83
58.98
54.58
49.12
43.02
36.88
31.44
27.34
24.93
24.21
24.83
26.27
28.04
29.81
31.42
32.83
34.00
34.76
34.83
33.86
31.52
27.68
22.48
16.31
9.81
3.66
-1.59
-5.70
-8.79
-11.38
-14.14
-17.65
-22.20
-27.59
-33.23
-38.37
-42.36
-44.96
-46.43
-47.53
-49.27
-52.74
-58.73
-67.37
-77.83
-88.00
-94.85
-95.11
-86.45
-68.53
-43.48
-15.26
11.59
33.43
48.60
57.35
61.15
61.60
59.79
56.16
50.95
44.65
38.15
32.57
28.75
27.05
27.21
28.55
30.34
32.00
33.30
34.28
35.10
35.83
36.37
36.42
35.51
33.24
29.38
23.99
17.43
10.30
3.28
-2.97
-8.02
-11.80
-14.67
-17.35
-20.62
-25.00
-30.43
-36.31
-41.72
-45.93
-48.75
-50.68
-52.76
-56.08
-61.52
-69.38
-79.21
-89.69
-98.64
-103.35
-101.16
-90.45
-71.38
-46.15
-18.45
7.70
29.14
44.32
53.37
57.40
57.76
55.45
51.03
44.96
37.87
30.74
24.71
20.82
19.64
21.11
24.58
29.02
33.33
36.67
38.57
38.96
38.11
36.37
34.05
31.28
28.07
24.27
19.76
14.55
8.77
2.77
-3.06
-8.42
-13.20
-17.56
-21.86
-26.51
-31.92
-38.43
-46.22
-55.09
-64.23
-71.94
-75.86
-73.55
-63.53
-46.05
-23.33
1.09
23.45
41.05
52.79
59.13
61.26
60.38
57.28
52.38
46.10
39.14
32.42
26.87
23.03
20.91
20.11
20.04
20.23
20.49
20.90
21.64
22.69
23.70
24.04
22.99
20.09
15.40
9.48
3.26
-2.39
-6.92
-10.38
-13.25
-16.35
-20.47
-26.20
-33.66
-42.27
-50.56
-56.30
-57.03
-50.89
-37.49
-18.27
3.75
24.96
42.26
53.92
59.78
60.83
58.45
53.81
47.66
40.42
32.45
24.24
16.41
9.57
4.18
0.52
-1.35
-1.59
-0.54
1.23
3.00
4.01
3.67
1.77
-1.40
-5.31
-9.34
-13.12
-16.62
-20.14
-24.16
-29.19
-35.64
-43.65
-52.81
-61.87
-68.60
-70.29
-64.60
-50.67
-29.78
-5.16
19.04
39.12
52.95
60.23
62.00
59.79
54.87
48.12
40.16
31.71
23.66
16.85
11.83
8.62
6.89
6.11
5.88
6.09
6.79
8.05
9.68
11.16
11.70
10.48
7.02
1.41
-5.69
-13.22
-20.09
-25.62
-29.73
-32.96
-36.33
-41.02
-47.98
-57.37
-68.17
-78.07
-83.82
-82.30
-71.65
-52.30
-26.99
0.03
24.50
43.48
55.96
62.65
65.02
64.41
61.55
56.74
50.28
42.79
35.29
28.90
24.44
22.19
21.91
23.03
24.94
27.21
29.59
31.94
34.03
35.45
35.67
34.16
30.69
25.49
19.27
12.99
7.55
3.33
0.11
-2.83
-6.41
-11.14
-16.93
-23.08
-28.61
-32.72
-35.19
-36.49
-37.60
-39.75
-44.03
-50.98
-60.20
-70.11
-77.96
-80.46
-74.90
-60.18
-37.64
-10.73
16.02
38.55
54.48
63.52
66.98
66.67
64.06
59.81
54.10
47.04
39.13
31.36
24.78
20.27
18.10
17.97
19.21
21.11
23.20
25.31
27.49
29.75
31.85
33.24
33.22
31.18
26.96
20.98
14.13
7.50
2.05
-1.78
-4.16
-5.82
-7.70
-10.60
-14.80
-19.99
-25.39
-30.10
-33.49
-35.43
-36.40
-37.23
-38.89
-42.23
-47.75
-55.49
-64.63
-73.41
-79.20
-79.10
-71.03
-54.68
-31.99
-6.64
17.14
36.04
48.55
55.04
56.97
55.86
52.63
47.62
40.94
33.02
24.79
17.41
11.87
8.59
7.39
7.64
8.59
9.74
10.88
12.11
13.54
15.17
16.72
17.62
17.22
14.98
10.76
4.90
-1.84
-8.47
-14.17
-18.48
-21.52
-23.84
-26.27
-29.56
-34.25
-40.50
-47.98
-55.65
-61.78
-64.12
-60.56
-49.94
-32.72
-11.19
11.22
30.97
45.59
54.23
57.53
56.88
53.64
48.68
42.44
35.26
27.62
20.24
13.92
9.26
6.52
5.54
5.88
6.98
8.30
9.43
10.15
10.37
10.11
9.44
8.33
6.71
4.43
1.30
-2.76
-7.66
-13.08
-18.55
-23.55
-27.70
-30.86
-33.18
-35.08
-37.12
-39.96
-44.25
-50.46
-58.50
-67.40
-75.07
-78.68
-75.50
-63.99
-44.67
-20.24
5.31
27.94
44.93
55.37
59.93
60.09
57.28
52.53
46.48
39.70
32.95
27.06
22.66
19.92
18.54
17.96
17.67
17.45
17.46
17.97
19.17
20.95
22.83
24.08
23.99
22.11
18.47
13.55
8.20
3.27
-0.71
-3.71
-6.31
-9.35
-13.54
-19.09
-25.53
-31.93
-37.25
-40.90
-42.93
-44.07
-45.40
-48.03
-52.68
-59.57
-68.04
-76.52
-82.49
-83.14
-76.13
-60.66
-38.10
-11.76
14.09
35.69
50.86
59.39
62.48
61.85
58.87
54.35
48.65
42.12
35.34
29.04
23.90
20.31
18.34
17.75
18.25
19.51
21.28
23.36
25.53
27.53
29.06
29.84
29.67
28.45
26.25
23.23
19.61
15.60
11.40
7.18
3.12
-0.65
-4.12
-7.44
-10.91
-14.87
-19.51
-24.75
-30.14
-35.10
-39.14
-42.06
-44.15
-46.01
-48.39
-52.02
-57.33
-64.44
-72.82
-81.14
-87.20
-88.27
-81.99
-67.30
-45.25
-18.93
7.47
30.00
46.23
55.68
59.42
59.17
56.44
52.11
46.64
40.42
34.05
28.30
23.85
20.98
19.55
19.14
19.29
19.73
20.41
21.46
22.96
24.81
26.55
27.56
27.16
24.92
20.91
15.69
10.15
5.17
1.31
-1.49
-3.81
-6.51
-10.30
-15.39
-21.37
-27.38
-32.48
-36.03
-38.05
-39.20
-40.54
-43.29
-48.28
-55.73
-64.79
-73.57
-79.31
-79.15
-71.06
-54.78
-32.13
-6.59
17.83
37.84
51.77
59.61
62.50
61.88
58.85
54.07
47.94
40.95
33.83
27.43
22.40
19.05
17.22
16.47
16.29
16.39
16.73
17.51
18.96
21.07
23.46
25.37
25.95
24.52
20.94
15.63
9.51
3.66
-1.13
-4.58
-7.11
-9.56
-12.88
-17.70
-24.03
-31.27
-38.43
-44.50
-48.89
-51.65
-53.46
-55.37
-58.51
-63.78
-71.45
-80.91
-90.36
-97.01
-97.67
-89.80
-72.67
-47.87
-19.03
9.36
33.40
50.88
61.56
66.55
67.39
65.30
60.99
54.94
47.71
40.18
33.34
27.99
24.51
22.84
22.62
23.37
24.74
26.43
28.32
30.23
31.99
33.34
34.03
33.81
32.52
30.07
26.45
21.84
16.51
10.90
5.52
0.81
-3.02
-6.11
-8.95
-12.20
-16.37
-21.60
-27.50
-33.30
-38.21
-41.76
-44.04
-45.67
-47.56
-50.66
-55.68
-63.04
-72.58
-83.33
-93.20
-99.17
-97.98
-87.33
-67.04
-39.49
-9.07
19.30
41.80
56.75
64.61
67.12
66.26
63.33
58.99
53.45
47.03
40.31
34.11
29.15
25.88
24.37
24.40
25.62
27.57
29.90
32.32
34.60
36.52
37.85
38.31
37.65
35.71
32.48
28.19
23.27
18.21
13.46
9.30
5.71
2.38
-1.12
-5.23
-10.21
-15.99
-22.20
-28.22
-33.45
-37.44
-40.22
-42.15
-43.93
-46.30
-49.90
-55.21
-62.29
-70.68
-79.03
-85.09
-86.06
-79.52
-64.46
-42.00
-15.34
11.28
33.95
50.34
60.00
63.99
63.91
61.07
56.29
50.02
42.82
35.45
28.82
23.62
20.16
18.31
17.69
17.94
18.85
20.35
22.42
24.93
27.54
29.68
30.66
29.86
27.01
22.40
16.81
11.35
6.90
3.75
1.45
-0.97
-4.51
-9.60
-15.89
-22.42
-28.07
-32.16
-34.73
-36.51
-38.61
-42.13
-47.76
-55.62
-65.01
-74.25
-80.84
-81.93
-75.24
-60.04
-37.75
-11.64
14.12
35.86
51.47
60.68
64.55
64.60
62.01
57.42
51.18
43.80
36.12
29.20
23.91
20.58
18.99
18.50
18.51
18.67
19.00
19.77
21.19
23.18
25.29
26.82
26.99
25.32
21.75
16.71
11.02
5.59
1.05
-2.45
-5.32
-8.38
-12.41
-17.85
-24.47
-31.51
-37.93
-42.90
-46.18
-48.21
-49.99
-52.73
-57.41
-64.49
-73.58
-83.31
-91.33
-94.67
-90.57
-77.49
-55.93
-28.60
0.28
26.34
46.47
59.48
66.05
67.87
66.58
63.27
58.44
52.43
45.78
39.34
33.94
30.10
27.88
26.96
26.97
27.68
29.06
31.15
33.83
36.68
39.09
40.42
40.27
38.62
35.78
32.22
28.40
24.55
20.63
16.40
11.65
6.33
0.73
-4.68
-9.43
-13.27
-16.39
-19.37
-22.88
-27.42
-32.94
-38.96
-44.66
-49.32
-52.64
-54.84
-56.65
-59.05
-63.09
-69.48
-78.30
-88.49
-97.69
-102.51
-99.52
-86.58
-63.90
-34.40
-2.80
25.93
48.23
62.77
70.29
72.58
71.42
67.99
62.85
56.45
49.41
42.64
36.98
32.98
30.72
29.88
30.01
30.76
32.00
33.73
36.01
38.76
41.64
44.08
45.42
45.02
42.66
38.61
33.60
28.57
24.32
21.12
18.64
16.13
12.79
8.19
2.52
-3.49
-8.89
-13.00
-15.69
-17.47
-19.26
-22.03
-26.30
-31.95
-38.24
-44.19
-48.96
-52.22
-54.28
-55.96
-58.28
-62.22
-68.49
-77.20
-87.54
-97.44
-103.73
-102.92
-92.48
-72.01
-43.89
-12.63
16.64
39.88
55.34
63.54
66.37
65.88
63.45
59.65
54.71
48.93
42.93
37.49
33.23
30.44
29.07
28.82
29.37
30.46
31.94
33.66
35.49
37.19
38.47
38.97
38.38
36.48
33.26
28.94
23.90
18.61
13.50
8.89
4.90
1.47
-1.63
-4.75
-8.26
-12.44
-17.32
-22.67
-28.00
-32.75
-36.52
-39.18
-41.02
-42.60
-44.68
-48.03
-53.25
-60.49
-69.08
-77.29
-82.46
-81.59
-72.50
-54.87
-30.66
-3.68
21.69
41.97
55.52
62.67
64.89
63.91
60.92
56.48
50.80
44.22
37.37
31.09
26.07
22.65
20.76
20.09
20.22
20.85
21.81
23.05
24.48
25.96
27.19
27.84
27.60
26.32
24.02
20.87
17.09
12.86
8.35
3.65
-1.05
-5.57
-9.74
-13.54
-17.14
-20.93
-25.26
-30.25
-35.74
-41.21
-46.09
-49.98
-52.82
-54.95
-57.03
-59.86
-64.22
-70.67
-79.12
-88.48
-96.41
-99.68
-95.08
-80.75
-57.22
-27.58
3.39
30.81
51.33
63.86
69.39
69.89
67.28
62.74
56.79
49.76
42.23
35.06
29.09
24.85
22.39
21.41
21.55
22.54
24.34
26.94
30.20
33.72
36.90
39.08
39.79
38.90
36.59
33.27
29.32
25.04
20.49
15.66
10.58
5.37
0.33
-4.22
-8.10
-11.40
-14.51
-17.94
-22.12
-27.16
-32.76
-38.32
-43.18
-46.95
-49.69
-51.97
-54.62
-58.57
-64.50
-72.68
-82.57
-92.51
-99.80
-101.13
-93.70
-76.40
-50.62
-20.09
10.25
35.91
54.23
64.85
69.18
69.28
66.84
62.81
57.52
51.24
44.47
37.94
32.36
28.23
25.66
24.56
24.68
25.79
27.62
29.90
32.28
34.46
36.16
37.22
37.47
36.76
34.95
31.96
27.91
23.10
18.05
13.25
9.02
5.37
2.02
-1.51
-5.67
-10.70
-16.56
-22.88
-29.07
-34.53
-38.86
-41.98
-44.17
-46.04
-48.34
-51.89
-57.30
-64.77
-73.68
-82.33
-88.06
-87.84
-79.38
-62.17
-38.02
-10.66
15.44
36.62
51.03
58.77
61.22
60.09
56.60
51.35
44.65
36.84
28.63
20.92
14.59
10.25
8.15
8.21
10.05
13.14
16.80
20.39
23.33
25.27
26.03
25.60
24.09
21.64
18.39
14.42
9.82
4.63
-1.03
-6.93
-12.70
-17.95
-22.37
-25.89
-28.81
-31.63
-35.02
-39.61
-45.87
-53.88
-63.01
-71.64
-77.29
-77.13
-69.01
-52.53
-29.50
-3.54
21.09
40.92
54.25
61.27
63.36
62.13
58.73
53.72
47.41
40.20
32.73
25.75
19.83
15.24
11.98
9.94
9.08
9.46
11.03
13.50
16.27
18.52
19.51
18.87
16.75
13.66
10.25
6.91
3.63
-0.00
-4.52
-10.21
-16.91
-24.04
-30.80
-36.56
-41.10
-44.68
-47.92
-51.63
-56.61
-63.44
-72.20
-82.00
-90.73
-95.37
-92.77
-80.90
-59.94
-32.56
-3.14
23.68
44.52
58.13
65.19
67.40
66.45
63.31
58.33
51.69
43.92
35.97
29.07
24.23
21.87
21.75
23.16
25.28
27.57
29.83
32.14
34.57
36.92
38.61
38.83
36.88
32.53
26.22
18.99
12.16
6.78
3.17
0.83
-1.33
-4.48
-9.32
-15.75
-22.94
-29.79
-35.33
-39.24
-41.82
-43.90
-46.50
-50.60
-56.87
-65.47
-75.62
-85.40
-91.83
-91.65
-82.45
-63.90
-38.16
-9.37
17.77
39.58
54.44
62.78
66.21
66.46
64.58
60.91
55.45
48.49
40.82
33.62
28.05
24.87
24.25
25.76
28.61
31.96
35.17
37.88
40.00
41.53
42.41
42.40
41.10
38.17
33.51
27.41
20.59
13.99
8.46
4.44
1.73
-0.37
-2.84
-6.53
-11.81
-18.40
-25.48
-32.04
-37.27
-40.84
-43.03
-44.56
-46.34
-49.29
-54.14
-61.20
-70.10
-79.49
-86.95
-89.43
-84.23
-70.13
-48.17
-21.57
5.28
28.31
45.08
55.18
59.79
60.60
58.94
55.41
50.14
43.33
35.60
28.00
21.69
17.54
15.87
16.49
18.77
21.94
25.28
28.22
30.41
31.65
31.86
31.00
29.10
26.22
22.54
18.26
13.55
8.50
3.12
-2.58
-8.45
-14.21
-19.52
-24.14
-28.05
-31.56
-35.20
-39.58
-45.22
-52.39
-60.71
-68.99
-75.20
-76.78
-71.52
-58.47
-38.59
-14.62
9.75
31.07
47.17
57.40
62.37
63.15
60.70
55.67
48.61
40.22
31.56
23.76
17.82
14.25
13.02
13.67
15.57
18.13
20.96
23.82
26.47
28.58
29.70
29.29
26.97
22.68
16.87
10.36
4.15
-0.97
-4.74
-7.54
-10.19
-13.60
-18.30
-24.20
-30.59
-36.48
-41.06
-44.10
-46.00
-47.74
-50.45
-55.14
-62.26
-71.36
-80.85
-88.15
-90.18
-84.38
-69.79
-47.63
-21.18
5.33
28.13
45.03
55.75
61.34
63.27
62.58
59.72
54.77
48.01
40.23
32.62
26.43
22.56
21.29
22.29
24.87
28.22
31.67
34.79
37.30
39.01
39.73
39.29
37.49
34.29
29.80
24.27
18.08
11.63
5.38
-0.18
-4.60
-7.63
-9.29
-10.02
-10.51
-11.51
-13.50
-16.55
-20.27
-24.04
-27.32
-29.92
-32.03
-34.19
-37.02
-41.15
-47.03
-54.86
-64.29
-74.02
-81.74
-84.49
-79.63
-66.00
-44.71
-18.95
6.97
29.14
45.26
54.97
59.39
60.11
58.38
54.83
49.74
43.50
36.80
30.64
25.94
23.29
22.76
23.96
26.22
28.87
31.38
33.48
35.11
36.35
37.21
37.51
36.85
34.85
31.30
26.36
20.66
15.04
10.29
6.79
4.37
2.34
-0.13
-3.71
-8.64
-14.51
-20.53
-25.79
-29.68
-32.11
-33.59
-34.96
-37.13
-40.76
-46.16
-53.06
-60.57
-67.05
-70.35
-68.30
-59.48
-43.95
-23.51
-1.25
19.38
35.72
46.51
51.93
52.98
50.85
46.41
40.19
32.68
24.49
16.49
9.63
4.67
2.02
1.73
3.44
6.59
10.48
14.43
17.81
20.16
21.17
20.69
18.72
15.50
11.44
7.09
2.97
-0.65
-3.85
-7.02
-10.71
-15.30
-20.76
-26.63
-32.21
-36.89
-40.41
-43.00
-45.36
-48.43
-53.12
-59.90
-68.38
-77.03
-83.29
-84.15
-77.27
-61.97
-39.76
-14.02
11.15
32.23
47.31
56.24
60.08
60.17
57.55
52.77
46.18
38.33
30.14
22.74
17.12
13.79
12.72
13.43
15.24
17.59
20.14
22.77
25.39
27.84
29.69
30.34
29.21
26.02
20.92
14.61
8.12
2.44
-1.77
-4.51
-6.40
-8.49
-11.83
-16.94
-23.62
-30.98
-37.82
-43.08
-46.40
-48.17
-49.45
-51.56
-55.64
-62.30
-71.30
-81.26
-89.73
-93.65
-90.14
-77.68
-56.87
-30.51
-2.82
21.96
40.90
53.07
59.26
61.13
60.25
57.55
53.39
47.92
41.55
35.03
29.32
25.30
23.45
23.76
25.79
28.86
32.19
35.20
37.55
39.08
39.79
39.63
38.47
36.13
32.54
27.83
22.33
16.54
10.92
5.82
1.43
-2.26
-5.42
-8.33
-11.34
-14.79
-18.92
-23.72
-28.89
-33.91
-38.27
-41.69
-44.26
-46.43
-48.89
-52.35
-57.47
-64.63
-73.67
-83.49
-91.86
-95.71
-92.08
-79.27
-57.81
-30.69
-2.32
22.90
42.03
54.32
60.74
63.06
62.75
60.52
56.56
50.99
44.38
37.71
32.12
28.44
26.98
27.50
29.39
32.01
34.82
37.45
39.67
41.27
42.03
41.76
40.37
37.89
34.51
30.55
26.34
22.09
17.85
13.58
9.17
4.63
0.09
-4.21
-8.09
-11.51
-14.66
-17.87
-21.45
-25.50
-29.87
-34.22
-38.18
-41.50
-44.20
-46.53
-49.00
-52.25
-57.09
-64.08
-73.07
-82.71
-90.33
-92.55
-86.43
-70.85
-47.25
-19.37
8.03
30.87
46.95
56.25
60.20
60.60
58.66
54.91
49.42
42.43
34.68
27.25
21.31
17.70
16.73
18.16
21.31
25.35
29.49
33.10
35.84
37.63
38.50
38.46
37.47
35.41
32.22
28.03
23.18
18.19
13.57
9.68
6.59
4.04
1.57
-1.39
-5.31
-10.30
-16.11
-22.08
-27.43
-31.57
-34.29
-35.93
-37.18
-38.87
-41.76
-46.34
-52.70
-60.34
-67.99
-73.63
-74.79
-69.32
-56.32
-36.75
-13.37
10.15
30.38
45.16
53.98
57.56
57.18
53.95
48.59
41.53
33.30
24.66
16.60
10.10
5.88
4.25
5.10
7.91
11.92
16.27
20.17
23.02
24.53
24.68
23.66
21.71
19.09
15.93
12.32
8.30
3.92
-0.71
-5.37
-9.82
-13.90
-17.53
-20.80
-23.90
-27.13
-30.79
-35.17
-40.48
-46.74
-53.51
-59.65
-63.37
-62.56
-55.65
-42.29
-23.80
-2.92
17.12
33.55
44.88
50.96
52.57
50.73
46.27
39.76
31.73
22.95
14.44
7.28
2.26
-0.39
-0.99
-0.24
1.09
2.45
3.62
4.72
5.96
7.36
8.59
8.92
7.50
3.77
-2.19
-9.56
-17.08
-23.51
-28.19
-31.32
-33.75
-36.72
-41.28
-47.98
-56.63
-66.11
-74.47
-79.18
-77.78
-68.74
-52.22
-30.20
-6.01
16.78
35.47
48.76
56.70
60.07
59.66
56.03
49.55
40.78
30.73
20.72
12.12
5.90
2.44
1.54
2.52
4.55
6.89
9.09
10.99
12.59
13.76
14.11
13.01
9.81
4.28
-3.19
-11.57
-19.55
-26.09
-30.78
-34.07
-37.02
-40.98
-47.10
-55.94
-67.10
-78.98
-88.88
-93.57
-90.24
-77.63
-56.68
-30.43
-3.08
21.43
40.53
53.50
61.06
64.52
64.98
63.04
58.90
52.85
45.56
38.14
31.88
27.80
26.37
27.33
29.85
32.91
35.76
38.07
40.00
41.84
43.63
44.90
44.77
42.38
37.36
30.17
21.93
14.08
7.70
3.10
-0.24
-3.40
-7.57
-13.44
-20.95
-29.37
-37.52
-44.33
-49.19
-52.25
-54.32
-56.63
-60.47
-66.82
-75.97
-87.15
-98.36
-106.56
-108.30
-100.92
-83.60
-58.02
-27.96
1.86
27.33
46.11
57.96
64.14
66.48
66.45
64.79
61.78
57.65
52.96
48.58
45.44
44.20
44.92
47.11
49.94
52.60
54.60
55.93
56.81
57.48
57.89
57.57
55.86
52.22
46.55
39.36
31.67
24.62
19.09
15.32
12.88
10.87
8.36
4.80
0.26
-4.59
-8.84
-11.74
-13.14
-13.63
-14.29
-16.22
-20.08
-25.72
-32.33
-38.82
-44.30
-48.44
-51.58
-54.54
-58.28
-63.71
-71.43
-81.48
-93.08
-104.21
-111.81
-112.43
-103.45
-84.31
-57.10
-26.01
4.03
28.97
46.82
57.76
63.36
65.50
65.48
63.86
60.79
56.46
51.47
46.67
42.96
40.92
40.67
41.85
43.83
46.02
48.03
49.80
51.46
53.11
54.60
55.45
55.03
52.83
48.71
43.06
36.64
30.39
25.09
21.05
18.12
15.74
13.20
9.93
5.72
0.82
-4.15
-8.50
-11.74
-13.86
-15.34
-16.98
-19.55
-23.46
-28.57
-34.28
-39.80
-44.45
-47.94
-50.45
-52.55
-54.98
-58.51
-63.79
-71.15
-80.28
-89.85
-97.45
-100.03
-94.82
-80.52
-58.11
-30.73
-2.74
21.78
40.30
52.29
58.74
61.19
60.86
58.34
53.84
47.73
40.80
34.24
29.25
26.62
26.49
28.38
31.47
34.97
38.34
41.37
44.09
46.47
48.24
48.88
47.73
44.43
39.17
32.73
26.27
20.85
16.97
14.45
12.48
10.11
6.67
2.11
-3.01
-7.77
-11.43
-13.71
-15.02
-16.23
-18.29
-21.74
-26.50
-31.92
-37.07
-41.18
-44.02
-45.88
-47.50
-49.76
-53.44
-59.09
-66.76
-75.72
-84.25
-89.70
-89.15
-80.45
-63.28
-39.54
-12.97
12.20
32.59
46.71
54.85
58.45
58.99
57.44
54.10
49.04
42.61
35.63
29.25
24.52
22.11
22.03
23.77
26.56
29.65
32.58
35.19
37.51
39.50
40.91
41.25
39.95
36.73
31.81
26.01
20.43
16.04
13.28
11.81
10.72
8.92
5.66
0.89
-4.78
-10.34
-14.83
-17.83
-19.59
-20.93
-22.89
-26.23
-31.08
-36.95
-42.90
-48.00
-51.72
-54.16
-56.00
-58.24
-61.93
-67.89
-76.36
-86.56
-96.57
-103.34
-103.45
-94.29
-75.25
-48.21
-17.18
13.10
38.65
57.41
69.28
75.55
77.78
77.09
73.97
68.66
61.52
53.36
45.27
38.30
33.15
30.07
28.77
28.78
29.56
30.76
32.21
33.83
35.46
36.66
36.79
35.24
31.69
26.37
20.07
13.88
8.69
4.90
2.25
-0.03
-2.74
-6.33
-10.70
-15.20
-19.04
-21.66
-23.05
-23.79
-24.76
-26.80
-30.30
-35.06
-40.45
-45.66
-50.09
-53.59
-56.49
-59.46
-63.37
-69.05
-77.03
-87.18
-98.24
-107.71
-112.25
-108.65
-95.23
-72.66
-44.07
-13.99
13.17
34.48
49.01
57.50
61.38
61.89
59.67
55.01
48.23
40.02
31.47
23.75
17.84
14.36
13.50
15.06
18.65
23.66
29.40
35.11
40.00
43.31
44.42
42.98
39.00
32.97
25.76
18.38
11.65
5.95
1.12
-3.42
-8.31
-13.86
-19.94
-25.97
-31.27
-35.45
-38.58
-41.28
-44.52
-49.28
-56.17
-65.00
-74.45
-82.14
-85.12
-80.81
-68.03
-47.59
-22.24
4.19
28.05
46.88
59.84
67.36
70.46
70.10
66.83
61.00
53.00
43.50
33.49
24.15
16.59
11.68
9.79
10.84
14.30
19.35
25.00
30.30
34.43
36.80
37.09
35.33
31.86
27.29
22.25
17.23
12.35
7.41
2.03
-4.01
-10.65
-17.47
-23.89
-29.40
-33.79
-37.25
-40.35
-44.02
-49.30
-56.97
-67.03
-78.19
-87.79
-92.32
-88.58
-75.05
-52.65
-24.65
4.45
30.41
50.52
64.00
71.50
74.34
73.70
70.35
64.78
57.52
49.24
40.71
32.70
25.85
20.69
17.59
16.77
18.18
21.44
25.87
30.60
34.74
37.46
38.16
36.53
32.67
27.03
20.40
13.56
7.11
1.17
-4.53
-10.45
-16.86
-23.64
-30.27
-36.08
-40.63
-43.96
-46.65
-49.64
-53.96
-60.45
-69.28
-79.59
-89.21
-95.00
-93.63
-82.86
-62.58
-35.20
-4.97
23.48
46.57
62.72
72.25
76.56
77.11
74.77
69.86
62.54
53.26
43.02
33.14
24.98
19.54
17.26
17.93
20.91
25.31
30.22
34.94
38.99
42.06
43.88
44.14
42.52
38.83
33.19
26.12
18.51
11.33
5.36
0.92
-2.28
-4.97
-8.07
-12.35
-18.06
-24.80
-31.68
-37.65
-41.91
-44.30
-45.32
-45.96
-47.44
-50.78
-56.65
-65.09
-75.19
-84.95
-91.37
-91.15
-81.85
-62.98
-36.58
-6.71
21.80
45.00
60.92
69.73
73.01
72.55
69.60
64.62
57.68
48.99
39.36
29.99
22.14
16.78
14.28
14.46
16.75
20.43
24.79
29.25
33.34
36.65
38.87
39.70
38.89
36.34
32.04
26.26
19.54
12.58
6.10
0.69
-3.46
-6.52
-9.02
-11.59
-14.75
-18.78
-23.57
-28.66
-33.42
-37.30
-40.01
-41.69
-42.89
-44.42
-47.16
-51.83
-58.76
-67.53
-76.74
-83.95
-86.15
-80.71
-66.46
-44.40
-17.63
9.57
33.24
50.83
61.72
66.80
67.55
65.19
60.39
53.43
44.61
34.63
24.48
15.35
8.23
3.76
2.16
3.15
6.13
10.23
14.54
18.27
20.93
22.36
22.62
21.87
20.12
17.29
13.22
7.89
1.55
-5.27
-11.85
-17.61
-22.24
-25.83
-28.81
-31.74
-35.19
-39.64
-45.46
-52.69
-60.82
-68.42
-73.17
-72.39
-63.95
-47.46
-24.65
0.92
25.08
44.44
57.37
64.09
65.96
64.46
60.52
54.41
46.22
36.30
25.57
15.33
6.83
0.96
-2.02
-2.39
-0.80
1.93
5.06
7.97
10.29
11.88
12.82
13.15
12.82
11.53
8.86
4.50
-1.54
-8.70
-16.09
-22.76
-28.08
-32.00
-35.08
-38.20
-42.26
-47.98
-55.73
-65.38
-75.99
-85.62
-91.49
-90.57
-80.74
-61.81
-35.97
-7.26
19.73
41.38
56.01
63.86
66.38
65.23
61.57
56.05
49.01
40.94
32.57
24.72
18.05
12.98
9.69
8.20
8.52
10.61
14.22
18.86
23.70
27.71
29.95
29.76
26.99
22.09
15.93
9.51
3.57
-1.59
-6.28
-11.06
-16.50
-22.69
-29.26
-35.47
-40.67
-44.60
-47.55
-50.24
-53.63
-58.69
-66.02
-75.54
-86.04
-95.05
-99.23
-95.34
-81.59
-58.61
-29.53
0.99
28.27
49.17
62.76
69.91
72.35
71.65
68.68
63.73
56.98
48.91
40.39
32.51
26.27
22.31
20.82
21.56
24.04
27.62
31.67
35.63
39.09
41.71
43.21
43.36
41.94
38.78
33.90
27.57
20.31
12.86
5.95
0.16
-4.29
-7.70
-10.71
-14.14
-18.60
-24.27
-30.73
-37.18
-42.77
-46.95
-49.69
-51.50
-53.13
-55.40
-59.06
-64.66
-72.37
-81.64
-90.77
-96.94
-96.83
-87.80
-69.14
-42.74
-12.58
16.53
40.68
57.86
68.17
73.02
74.02
72.24
68.09
61.72
53.55
44.51
35.86
28.86
24.36
22.63
23.33
25.77
29.16
32.75
36.01
38.55
40.09
40.43
39.41
36.98
33.21
28.31
22.61
16.52
10.44
4.72
-0.33
-4.55
-7.91
-10.59
-12.96
-15.52
-18.71
-22.75
-27.48
-32.42
-36.93
-40.51
-43.03
-44.80
-46.49
-48.88
-52.67
-58.34
-65.93
-74.78
-83.35
-89.15
-89.31
-81.50
-64.96
-41.15
-13.49
13.69
36.62
53.10
62.88
67.02
67.00
64.00
58.67
51.42
42.82
33.80
25.47
18.89
14.73
13.17
13.96
16.54
20.32
24.67
29.07
32.97
35.87
37.24
36.67
34.02
29.48
23.68
17.42
11.48
6.26
1.71
-2.59
-7.20
-12.37
-18.02
-23.66
-28.67
-32.59
-35.36
-37.43
-39.64
-42.99
-48.32
-55.87
-64.82
-73.19
-78.08
-76.56
-66.73
-48.63
-24.54
1.75
26.16
45.65
58.96
66.45
69.38
68.97
65.91
60.45
52.83
43.68
34.07
25.28
18.33
13.73
11.46
11.16
12.38
14.82
18.21
22.28
26.49
30.08
32.18
32.03
29.37
24.51
18.32
11.91
6.32
2.03
-1.10
-3.84
-7.14
-11.72
-17.64
-24.29
-30.65
-35.75
-39.15
-41.12
-42.54
-44.66
-48.66
-55.35
-64.78
-75.84
-86.15
-92.41
-91.31
-80.69
-60.69
-33.91
-4.71
22.30
43.75
58.27
66.33
69.37
68.79
65.42
59.56
51.54
42.07
32.38
23.83
17.53
13.98
13.01
13.99
16.19
19.07
22.38
26.06
29.98
33.69
36.39
37.13
35.23
30.57
23.77
16.06
8.79
2.90
-1.38
-4.64
-7.94
-12.29
-18.16
-25.24
-32.62
-39.14
-43.97
-46.94
-48.63
-50.10
-52.61
-57.23
-64.48
-74.06
-84.45
-92.93
-96.15
-91.08
-76.32
-52.86
-24.06
5.46
31.33
50.79
63.25
69.74
71.96
71.28
68.34
63.26
56.16
47.63
38.74
30.82
24.93
21.65
20.91
22.17
24.70
27.83
31.10
34.25
37.05
39.21
40.37
40.10
38.04
34.05
28.29
21.24
13.65
6.39
0.16
-4.70
-8.38
-11.48
-14.80
-18.95
-24.07
-29.81
-35.40
-40.11
-43.47
-45.56
-46.93
-48.34
-50.61
-54.42
-60.22
-68.08
-77.42
-86.63
-93.15
-93.90
-86.37
-69.76
-45.55
-17.27
10.68
34.50
52.06
63.08
68.59
69.88
67.93
63.20
56.11
47.31
37.90
29.21
22.34
17.92
16.00
16.20
18.01
20.98
24.73
28.89
33.03
36.50
38.57
38.60
36.23
31.58
25.28
18.27
11.51
5.62
0.64
-3.88
-8.58
-13.97
-20.05
-26.32
-31.95
-36.27
-39.02
-40.57
-41.79
-43.80
-47.60
-53.75
-61.94
-70.72
-77.62
-79.62
-74.18
-60.23
-38.91
-13.33
12.43
34.64
51.02
61.14
65.88
66.58
64.28
59.48
52.39
43.41
33.34
23.41
14.88
8.72
5.38
4.78
6.47
9.85
14.31
19.24
24.03
27.98
30.44
30.86
29.03
25.16
19.90
14.13
8.65
3.88
-0.32
-4.48
-9.26
-15.05
-21.73
-28.63
-34.91
-39.85
-43.22
-45.43
-47.32
-50.00
-54.50
-61.41
-70.49
-80.36
-88.43
-91.49
-86.66
-72.59
-50.24
-22.82
5.29
29.97
48.62
60.64
66.96
69.07
68.16
64.78
59.09
51.32
42.16
32.86
24.79
19.14
16.51
16.83
19.47
23.50
27.99
32.22
35.76
38.44
40.13
40.72
40.02
37.86
34.13
28.96
22.67
15.79
8.89
2.55
-2.82
-7.07
-10.36
-13.17
-16.10
-19.73
-24.34
-29.78
-35.49
-40.76
-44.97
-47.90
-49.79
-51.24
-53.10
-56.26
-61.48
-69.14
-78.78
-88.80
-96.44
-98.29
-91.51
-75.00
-50.15
-20.65
8.77
33.90
52.28
63.57
68.95
70.08
68.28
64.29
58.47
51.23
43.34
35.84
29.73
25.73
24.09
24.63
26.87
30.24
34.15
38.11
41.67
44.43
46.03
46.19
44.74
41.72
37.35
31.98
26.03
19.84
13.64
7.58
1.81
-3.49
-8.13
-12.02
-15.30
-18.30
-21.54
-25.39
-29.90
-34.80
-39.54
-43.58
-46.63
-48.82
-50.61
-52.77
-56.12
-61.37
-68.81
-77.86
-86.80
-92.84
-92.78
-84.14
-66.32
-41.16
-12.46
15.20
37.99
53.93
63.05
66.70
66.58
63.86
59.08
52.41
44.12
35.02
26.34
19.44
15.29
14.20
15.75
19.00
22.94
26.85
30.42
33.67
36.64
39.13
40.63
40.50
38.27
33.94
27.98
21.28
14.77
9.15
4.72
1.32
-1.61
-4.74
-8.64
-13.56
-19.26
-25.10
-30.29
-34.21
-36.70
-38.11
-39.26
-41.05
-44.32
-49.58
-56.80
-65.25
-73.29
-78.52
-78.29
-70.57
-54.92
-32.90
-7.73
16.70
37.16
51.92
60.85
64.89
65.13
62.29
56.65
48.47
38.39
27.64
17.81
10.33
6.11
5.25
7.15
10.89
15.49
20.30
24.91
29.09
32.53
34.72
34.99
32.85
28.23
21.69
14.35
7.43
1.90
-2.02
-4.82
-7.51
-11.07
-16.03
-22.22
-28.87
-34.94
-39.59
-42.53
-44.14
-45.32
-47.19
-50.84
-57.02
-65.69
-75.76
-84.89
-89.86
-87.49
-75.86
-55.28
-28.45
0.32
26.58
47.16
60.87
68.29
70.83
69.84
66.10
59.91
51.57
41.74
31.61
22.54
15.80
12.11
11.57
13.67
17.47
22.00
26.46
30.35
33.47
35.78
37.17
37.40
36.15
33.09
28.15
21.61
14.08
6.40
-0.59
-6.32
-10.66
-13.97
-16.97
-20.45
-24.99
-30.62
-36.87
-42.93
-47.99
-51.62
-53.92
-55.45
-57.09
-59.86
-64.62
-71.83
-81.09
-90.81
-98.20
-99.90
-93.00
-76.33
-51.18
-21.14
9.08
35.21
54.63
66.82
72.84
74.30
72.57
68.39
62.15
54.27
45.53
37.04
29.93
25.10
22.93
23.30
25.64
29.21
33.23
37.08
40.36
42.89
44.61
45.41
45.04
43.19
39.56
34.12
27.16
19.32
11.48
4.43
-1.28
-5.59
-8.93
-12.00
-15.58
-20.17
-25.74
-31.81
-37.57
-42.30
-45.60
-47.60
-48.96
-50.52
-53.19
-57.74
-64.59
-73.61
-83.77
-92.88
-97.92
-95.78
-84.43
-63.97
-36.90
-7.45
19.86
41.65
56.53
64.93
68.27
67.95
64.84
59.26
51.53
42.37
33.02
24.92
19.27
16.63
16.85
19.21
22.77
26.74
30.59
34.16
37.35
39.95
41.49
41.31
38.85
33.90
26.93
18.98
11.35
5.12
0.73
-2.21
-4.74
-7.98
-12.64
-18.64
-25.18
-31.13
-35.52
-38.04
-39.14
-39.82
-41.30
-44.62
-50.32
-58.20
-67.10
-74.94
-78.96
-76.54
-66.12
-47.94
-24.23
1.44
25.28
44.42
57.62
65.07
67.76
66.72
62.57
55.66
46.41
35.73
25.00
15.75
9.28
6.19
6.37
9.09
13.42
18.49
23.68
28.57
32.75
35.72
36.84
35.61
31.85
25.99
18.96
12.00
6.13
1.77
-1.37
-4.24
-7.88
-12.96
-19.46
-26.64
-33.40
-38.82
-42.52
-44.86
-46.80
-49.56
-54.21
-61.39
-70.87
-81.30
-90.22
-94.44
-91.01
-78.33
-56.96
-29.72
-0.84
25.44
46.13
60.15
68.05
71.17
70.78
67.55
61.77
53.75
44.23
34.48
25.98
19.99
17.18
17.48
20.20
24.34
28.99
33.41
37.14
39.86
41.36
41.48
40.16
37.50
33.73
29.16
24.06
18.69
13.23
7.90
2.94
-1.46
-5.25
-8.63
-12.00
-15.84
-20.54
-26.17
-32.42
-38.73
-44.40
-48.85
-51.85
-53.58
-54.64
-55.99
-58.70
-63.78
-71.68
-81.83
-92.25
-99.78
-100.79
-92.54
-74.33
-48.08
-17.82
11.65
36.31
54.06
64.81
69.85
70.84
69.08
65.26
59.75
52.99
45.69
38.85
33.42
30.15
29.34
30.81
33.98
38.02
42.09
45.49
47.81
48.91
48.81
47.59
45.27
41.79
37.18
31.54
25.22
18.63
12.27
6.51
1.55
-2.62
-6.18
-9.43
-12.72
-16.37
-20.55
-25.25
-30.20
-35.02
-39.27
-42.68
-45.23
-47.21
-49.16
-51.82
-55.97
-62.25
-70.73
-80.42
-89.10
-93.62
-90.85
-78.93
-58.29
-31.71
-3.52
21.95
41.76
55.00
62.41
65.49
65.49
62.98
58.10
51.03
42.48
33.74
26.30
21.45
19.80
21.16
24.69
29.22
33.71
37.51
40.43
42.56
44.04
44.78
44.45
42.57
38.85
33.37
26.73
19.83
13.61
8.68
5.08
2.33
-0.37
-3.74
-8.10
-13.16
-18.19
-22.34
-25.06
-26.32
-26.63
-26.86
-27.87
-30.29
-34.49
-40.51
-47.91
-55.68
-62.14
-65.23
-63.11
-54.89
-41.18
-24.00
-6.17
9.70
21.94
30.08
34.54
36.00
34.94
31.52
25.85
18.38
10.03
2.16
-3.83
-6.94
-6.81
-3.79
1.21
7.13
13.13
18.68
23.56
27.60
30.49
31.66
30.55
26.88
20.99
13.78
6.52
0.26
-4.49
-8.02
-11.24
-15.13
-20.31
-26.64
-33.25
-38.91
-42.60
-43.98
-43.49
-42.27
-41.69
-42.94
-46.71
-52.93
-60.59
-67.67
-71.47
-69.19
-59.04
-41.00
-17.17
8.75
32.72
51.66
64.20
70.73
72.65
71.40
67.91
62.52
55.40
46.94
38.06
30.01
23.99
20.83
20.66
22.90
26.56
30.51
33.86
36.18
37.42
37.78
37.36
36.04
33.49
29.35
23.54
16.48
8.98
2.02
-3.62
-7.62
-10.29
-12.36
-14.78
-18.30
-23.24
-29.36
-35.94
-42.03
-46.79
-49.81
-51.23
-51.77
-52.45
-54.33
-58.24
-64.54
-72.83
-81.73
-88.85
-91.18
-86.04
-72.12
-50.23
-23.33
4.38
28.82
47.30
59.08
65.02
66.71
65.54
62.28
57.21
50.50
42.67
34.63
27.50
22.31
19.64
19.56
21.63
25.12
29.24
33.31
36.86
39.56
41.22
41.66
40.67
38.08
33.86
28.15
21.36
14.11
7.13
1.04
-3.83
-7.52
-10.41
-13.12
-16.25
-20.18
-24.95
-30.25
-35.48
-40.05
-43.50
-45.73
-47.06
-48.09
-49.65
-52.55
-57.45
-64.54
-73.19
-81.70
-87.45
-87.45
-79.41
-62.75
-39.15
-12.16
13.98
35.65
50.93
59.74
63.20
62.79
59.60
54.26
47.16
38.89
30.42
22.91
17.44
14.63
14.47
16.44
19.70
23.44
27.10
30.41
33.28
35.61
37.02
36.94
34.81
30.43
24.23
17.23
10.70
5.58
2.10
-0.33
-2.78
-6.29
-11.32
-17.59
-24.21
-30.14
-34.61
-37.46
-39.09
-40.32
-42.09
-45.24
-50.31
-57.31
-65.40
-72.76
-76.81
-74.88
-65.22
-47.86
-24.85
0.34
23.93
43.05
56.40
64.13
67.18
66.51
62.72
56.11
47.10
36.55
25.84
16.53
9.93
6.73
6.82
9.46
13.59
18.19
22.59
26.52
29.90
32.60
34.22
34.11
31.64
26.63
19.56
11.55
3.96
-2.15
-6.52
-9.74
-12.96
-17.30
-23.24
-30.42
-37.84
-44.36
-49.15
-52.15
-53.89
-55.35
-57.63
-61.64
-67.98
-76.50
-86.05
-94.28
-98.01
-94.20
-81.11
-59.29
-31.63
-2.46
23.91
44.57
58.57
66.57
69.96
69.95
67.19
61.94
54.54
45.74
36.76
28.95
23.43
20.74
20.78
22.93
26.31
30.12
33.80
37.13
40.05
42.46
43.97
43.94
41.69
36.90
29.84
21.48
13.09
5.83
0.28
-3.79
-7.21
-11.03
-16.05
-22.45
-29.74
-36.97
-43.10
-47.43
-49.87
-51.07
-52.16
-54.47
-59.12
-66.61
-76.43
-86.88
-95.16
-98.01
-92.63
-77.82
-54.60
-26.13
3.23
29.33
49.42
62.66
69.77
72.22
71.32
67.89
62.31
54.91
46.37
37.69
30.07
24.51
21.57
21.21
22.94
25.98
29.63
33.37
36.94
40.21
42.91
44.54
44.39
41.82
36.61
29.16
20.51
11.94
4.58
-1.09
-5.39
-9.24
-13.68
-19.42
-26.42
-33.89
-40.65
-45.62
-48.30
-49.01
-48.77
-48.94
-50.80
-55.22
-62.42
-71.74
-81.49
-89.03
-91.30
-85.74
-71.27
-49.00
-22.05
5.42
29.53
47.87
59.88
66.36
68.62
67.67
63.91
57.39
48.36
37.65
26.72
17.29
10.90
8.36
9.58
13.66
19.20
24.79
29.38
32.50
34.18
34.72
34.36
33.09
30.61
26.53
20.67
13.25
4.97
-3.21
-10.43
-16.21
-20.63
-24.25
-27.84
-32.08
-37.46
-44.15
-51.99
-60.31
-67.74
-72.23
-71.45
-63.56
-48.12
-26.52
-1.80
22.32
42.65
57.38
66.27
70.12
69.94
66.44
59.85
50.38
38.67
26.01
14.19
5.00
-0.27
-1.25
1.48
6.60
12.46
17.57
21.00
22.52
22.52
21.62
20.22
18.25
15.18
10.32
3.34
-5.40
-14.92
-23.93
-31.43
-37.04
-41.11
-44.48
-48.05
-52.51
-58.27
-65.48
-73.98
-83.06
-91.14
-95.71
-93.97
-83.79
-64.78
-38.85
-9.75
18.14
41.23
57.66
67.44
71.76
72.05
69.37
64.25
57.02
48.26
38.95
30.32
23.53
19.29
17.81
18.74
21.49
25.40
29.89
34.48
38.61
41.67
42.93
41.80
38.04
31.96
24.40
16.51
9.26
3.13
-2.12
-7.21
-13.01
-20.01
-28.03
-36.29
-43.69
-49.35
-52.97
-55.06
-56.79
-59.67
-64.98
-73.31
-83.99
-94.89
-102.70
-103.84
-95.61
-77.33
-50.87
-20.10
10.26
36.14
55.22
67.14
72.99
74.37
72.69
68.75
62.97
55.72
47.62
39.64
32.88
28.36
26.67
27.79
31.09
35.61
40.25
44.17
46.92
48.40
48.75
48.07
46.31
43.30
38.85
32.96
25.89
18.26
10.79
4.21
-1.08
-5.09
-8.24
-11.20
-14.67
-19.08
-24.48
-30.49
-36.47
-41.81
-46.09
-49.27
-51.64
-53.78
-56.41
-60.28
-66.04
-73.99
-83.61
-93.21
-99.93
-100.41
-91.89
-73.50
-46.95
-16.16
13.99
39.28
57.37
68.06
72.64
72.88
70.09
64.92
57.64
48.72
39.14
30.27
23.49
19.75
19.24
21.36
25.08
29.34
33.43
37.08
40.28
42.97
44.80
45.16
43.34
39.02
32.45
24.56
16.63
9.84
4.77
1.21
-1.73
-5.13
-9.78
-15.74
-22.38
-28.62
-33.43
-36.34
-37.58
-37.99
-38.72
-40.85
-45.20
-52.03
-60.83
-70.09
-77.35
-79.65
-74.50
-60.89
-39.89
-14.50
11.28
33.79
50.76
61.60
67.04
68.19
65.93
60.68
52.68
42.51
31.28
20.61
12.10
6.93
5.47
7.26
11.31
16.50
21.94
27.10
31.76
35.69
38.50
39.53
38.06
33.70
26.68
17.93
8.87
0.89
-5.18
-9.40
-12.61
-16.02
-20.60
-26.63
-33.60
-40.46
-46.09
-49.79
-51.59
-52.18
-52.74
-54.60
-58.88
-65.99
-75.17
-84.28
-90.00
-88.79
-78.12
-57.64
-29.65
1.59
31.25
55.54
72.66
82.86
87.64
88.64
87.02
83.26
77.58
70.37
62.43
54.88
48.87
45.23
44.24
45.52
48.18
51.12
53.32
54.14
53.36
51.06
47.38
42.31
35.74
27.52
17.79
7.05
-3.85
-13.95
-22.42
-28.86
-33.30
-36.25
-38.52
-40.93
-44.15
-48.36
-53.16
-57.65
-60.80
-61.82
-60.52
-57.45
-53.61
-50.11
-47.92
-47.60
-49.13
-51.63
-53.23
-51.14
-42.25
-24.09
4.08
40.70
82.21
124.05
162.06
193.53
217.55
234.65
246.11
253.38
257.67
260.01
261.41
262.99
265.86
270.82
277.76
285.33
290.94
291.47
284.38
268.66
245.26
216.65
185.79
154.93
125.03
95.91
66.86
37.26
6.92
-24.05
-55.69
-88.38
-122.81
-159.56
-198.47
-238.29
-276.58
-310.33
-336.86
-354.70
-363.98
-366.08
-362.80
-355.37
-344.00
-328.04
-306.80
-280.45
-250.29
-218.43
-186.86
-156.60
-127.39
-98.10
-67.52
-35.28
-2.26
29.66
58.20
81.51
98.69
110.06
116.82
120.52
122.47
123.33
123.06
121.15
117.00
110.42
101.72
91.64
81.11
71.05
62.28
55.52
51.47
50.50
52.52
56.88
62.45
68.19
73.55
78.69
84.20
90.54
97.52
104.17
109.21
111.46
110.37
105.99
98.70
88.95
77.14
63.80
49.83
36.50
25.02
15.98
8.79
1.74
-7.41
-20.34
-37.27
-56.69
-75.84
-91.81
-102.58
-107.75
-108.23
-105.58
-101.15
-95.62
-89.12
-81.74
-74.00
-67.00
-62.28
-61.31
-65.00
-73.38
-85.49
-99.60
-113.60
-125.54
-134.06
-138.56
-139.15
-136.34
-130.88
-123.72
-116.01
-109.14
-104.53
-103.24
-105.57
-110.87
-117.64
-124.02
-128.22
-129.09
-126.33
-120.54
-113.12
-105.84
-100.47
-98.23
-99.49
-103.76
-109.91
-116.67
-123.01
-128.53
-133.51
-138.83
-145.56
-154.58
-166.29
-180.39
-195.98
-211.80
-226.44
-238.61
-247.41
-252.45
-254.08
-253.43
-252.20
-252.18
-254.38
-258.40
-262.22
-262.73
-256.86
-242.70
-220.20
-191.02
-157.86
-123.45
-89.73
-57.65
-27.42
1.07
27.97
53.45
78.04
102.78
129.20
158.61
191.12
224.84
255.83
279.06
290.09
286.79
270.24
244.29
214.09
184.29
157.76
135.32
116.34
99.60
83.94
68.38
51.91
33.62
13.09
-8.81
-29.56
-45.17
-51.35
-45.07
-25.98
3.23
37.50
71.13
99.53
120.30
133.37
140.17
142.42
141.30
137.16
129.94
119.74
107.29
94.05
81.89
72.50
66.87
65.07
66.31
69.41
73.21
76.90
80.11
82.68
84.36
84.70
83.05
78.82
71.83
62.50
51.80
40.96
31.07
22.64
15.52
9.01
2.17
-5.66
-14.59
-24.02
-32.92
-40.19
-45.15
-47.78
-48.82
-49.47
-51.10
-54.94
-61.78
-71.63
-83.46
-95.00
-103.05
-104.20
-95.97
-77.77
-51.24
