1544032443.00
64.000000
-0.00
-0.00
-0.00
-0.00
-0.00
-0.00
-0.00
-0.00
-0.00
-0.00
0.00
0.01
0.01
-0.00
-0.03
-0.05
-0.05
0.00
0.13
0.36
0.66
1.01
1.37
1.72
2.06
2.40
2.79
3.24
3.80
4.42
5.06
5.66
6.20
6.68
7.15
7.68
8.31
9.14
10.09
11.04
11.88
12.56
13.14
13.76
14.65
15.96
17.91
20.32
22.90
25.38
27.58
29.57
31.68
34.32
37.81
42.54
48.15
54.10
59.83
64.97
69.58
74.14
79.34
85.71
93.76
103.00
112.62
121.73
129.77
136.75
143.30
150.75
157.77
166.64
177.95
191.79
206.97
220.57
228.25
225.36
208.53
176.87
132.76
80.05
23.07
-34.94
-92.44
-149.16
-205.23
-260.37
-313.74
-363.88
-409.84
-450.91
-486.50
-515.74
-537.22
-549.21
-549.94
-538.34
-514.16
-478.60
-433.78
-382.32
-326.86
-269.65
-212.41
-156.40
-102.66
-52.06
-5.57
35.92
71.78
101.71
125.86
144.75
159.07
169.55
176.80
181.22
183.10
182.66
180.19
176.03
170.58
164.26
157.41
150.28
143.00
135.64
128.23
120.81
113.45
106.21
99.16
92.36
85.82
79.57
73.61
67.94
62.57
57.51
52.79
48.42
44.41
40.78
37.50
34.55
31.84
29.38
27.16
25.24
23.68
22.53
21.81
21.43
21.25
21.04
20.60
19.71
18.28
16.27
13.68
10.54
6.92
2.89
-1.47
-5.91
-10.10
-13.51
-15.54
-15.70
-13.73
-9.71
-3.87
2.98
10.02
16.55
22.21
26.99
30.86
33.61
34.73
33.42
28.78
20.17
7.57
-8.24
-25.79
-43.54
-60.27
-75.53
-89.60
-103.17
-115.83
-127.44
-137.70
-144.49
-145.90
-140.84
-129.57
-113.54
-94.86
-75.68
-57.99
-43.04
-32.21
-25.36
-20.03
-11.89
3.62
28.80
61.70
96.45
125.18
141.36
142.46
130.56
110.70
88.05
65.86
44.51
24.02
4.49
-12.80
-25.54
-31.67
-30.44
-23.09
-12.22
-0.95
8.48
15.19
19.84
24.01
29.14
35.84
43.14
49.00
51.15
48.46
41.18
31.24
21.60
15.18
14.38
20.36
33.35
52.55
75.82
99.05
116.41
121.83
110.18
82.30
44.21
4.97
-26.96
-46.85
-55.05
-55.60
-53.36
-51.50
-50.37
-48.88
-46.01
-41.83
-37.59
-34.86
-34.53
-36.43
-39.47
-41.90
-42.56
-41.12
-38.19
-34.92
-32.48
-31.51
-31.88
-32.91
-33.92
-35.24
-37.90
-42.50
-47.92
-50.77
-46.44
-31.68
-6.81
23.68
52.39
72.23
79.41
74.58
61.91
46.64
32.61
21.03
12.12
5.17
-0.14
-3.37
-3.93
-1.52
3.92
11.78
21.52
33.21
47.44
64.73
84.43
103.55
116.25
117.16
102.92
74.61
38.12
1.96
-26.12
-42.22
-47.15
-45.07
-40.44
-36.18
-32.89
-29.76
-26.08
-22.08
-18.80
-17.17
-17.27
-18.08
-18.30
-16.75
-13.17
-8.26
-3.30
0.50
2.49
2.89
2.69
2.98
4.59
7.61
11.48
15.17
17.70
18.51
17.61
15.50
12.84
10.11
7.46
4.76
1.71
-1.92
-6.12
-10.57
-14.80
-18.30
-20.71
-21.93
-22.05
-21.34
-20.09
-18.55
-16.85
-15.09
-13.32
-11.57
-9.90
-8.30
-6.85
-5.55
-4.39
-3.31
-2.26
-1.16
0.06
1.48
3.22
5.22
7.47
9.98
12.78
15.91
19.43
23.41
27.96
33.23
39.03
45.21
51.62
58.15
64.68
71.17
77.56
83.98
90.60
97.00
102.95
108.25
112.73
116.30
119.00
121.00
122.63
124.37
125.96
127.28
128.20
128.46
127.72
125.51
121.07
113.09
104.93
97.55
91.37
86.33
82.10
78.26
74.60
71.20
68.48
67.07
66.65
66.68
66.26
64.20
59.50
51.58
40.59
27.28
12.78
-2.60
-18.97
-36.98
-57.63
-81.72
-109.41
-139.96
-172.03
-203.94
-234.68
-263.83
-291.59
-318.90
-347.31
-378.99
-416.17
-459.82
-508.03
-555.08
-591.93
-608.67
-598.09
-558.55
-494.67
-415.21
-329.70
-245.14
-164.73
-88.68
-16.05
53.85
121.35
187.03
251.92
316.69
379.94
437.12
481.08
504.44
502.52
475.63
429.15
371.49
311.18
254.48
204.29
160.64
121.81
85.14
47.37
4.70
-46.18
-106.44
-173.11
-238.75
-292.90
-325.52
-330.67
-308.50
-264.79
-208.49
-148.84
-93.52
-48.11
-16.11
0.77
3.03
-6.29
-22.31
-39.71
-54.44
-64.68
-70.48
-72.49
-70.94
-65.41
-55.30
-40.69
-22.64
-2.91
16.65
34.24
48.72
59.61
67.23
71.87
73.88
73.84
72.40
70.09
67.03
63.64
61.26
62.44
69.70
84.89
108.87
141.03
179.42
220.42
260.58
297.60
331.36
361.45
387.25
407.72
421.58
427.34
421.23
401.12
368.07
328.17
285.65
243.51
203.24
165.83
131.71
95.96
55.27
10.19
-31.45
-68.22
-102.23
-137.74
-177.11
-220.32
-272.52
-334.13
-398.75
-449.33
-481.03
-496.84
-505.30
-513.58
-526.34
-554.84
-603.26
-665.24
-718.04
-752.17
-766.43
-766.31
-756.79
-678.89
-506.68
-261.01
-52.76
100.08
203.73
283.80
346.65
394.82
429.56
442.26
428.76
393.92
358.47
330.68
311.67
297.05
283.76
269.26
243.61
199.96
138.29
72.10
8.18
-48.11
-92.69
-120.28
-128.77
-126.09
-122.95
-127.12
-135.97
-147.63
-158.76
-166.35
-167.56
-162.24
-155.05
-150.38
-149.46
-147.82
-142.49
-131.78
-115.79
-95.45
-73.68
-56.09
-49.12
-57.27
-80.45
-115.25
-154.88
-191.06
-215.49
-223.44
-214.65
-192.91
-162.76
-128.01
-91.11
-53.53
-16.22
21.27
58.64
94.88
127.82
157.58
185.62
214.07
244.33
276.91
313.59
354.81
399.81
445.58
491.47
536.68
578.64
611.79
629.20
627.89
607.14
569.02
515.98
455.51
395.96
344.11
303.16
256.23
196.62
128.54
77.07
43.21
22.26
5.45
-10.63
-27.56
-45.89
-63.05
-77.97
-91.84
-109.35
-131.45
-156.76
-182.33
-205.71
-225.31
-238.63
-245.49
-248.48
-253.85
-265.84
-286.97
-317.21
-353.76
-390.56
-418.05
-427.77
-415.45
-383.69
-338.23
-286.50
-234.90
-187.36
-144.81
-105.57
-67.95
-31.30
3.52
36.75
70.02
106.28
148.52
198.29
254.62
313.05
366.19
405.51
424.43
420.24
394.69
353.03
301.94
247.64
194.74
146.38
105.04
72.88
51.43
40.60
38.01
39.44
40.30
37.48
30.43
21.07
12.28
6.32
3.56
2.54
0.66
-4.79
-15.82
-33.48
-57.59
-86.63
-117.50
-146.09
-168.28
-181.31
-184.87
-180.95
-172.82
-163.45
-154.48
-146.10
-137.73
-129.01
-120.39
-112.84
-107.38
-104.82
-105.85
-111.44
-122.64
-139.99
-162.45
-186.82
-208.29
-221.94
-224.41
-214.96
-195.36
-168.73
-138.07
-105.38
-71.40
-36.11
0.76
39.48
80.25
123.06
167.38
211.48
252.18
285.17
306.31
313.23
306.66
290.65
271.33
255.03
246.29
246.74
255.01
267.62
280.31
289.45
292.78
289.80
281.59
270.17
257.79
246.27
236.62
228.90
222.48
216.18
208.52
198.00
183.29
163.59
139.07
110.87
80.82
50.68
21.56
-6.49
-34.35
-63.34
-94.76
-129.28
-166.70
-205.74
-244.01
-278.53
-306.41
-325.80
-336.55
-340.04
-338.40
-333.40
-325.67
-314.81
-300.17
-281.67
-260.15
-236.83
-212.63
-187.68
-161.61
-134.53
-107.53
-82.86
-63.37
-51.72
-49.81
-58.34
-76.63
-102.35
-131.40
-158.44
-177.89
-185.63
-180.28
-163.61
-139.61
-112.63
-85.41
-58.09
-28.67
5.01
42.68
79.99
108.95
120.63
109.07
74.19
22.52
-35.22
-87.94
-127.71
-151.01
-157.92
-149.98
-128.83
-96.47
-56.60
-15.50
18.85
39.33
42.50
29.99
7.61
-16.97
-37.07
-48.69
-50.86
-44.73
-32.52
-16.62
0.90
18.51
35.42
51.55
67.28
82.78
97.41
109.52
116.99
118.18
112.72
101.80
87.69
72.83
59.05
47.02
36.23
25.30
12.65
-2.85
-21.07
-40.17
-56.83
-66.61
-65.09
-49.48
-19.83
20.63
66.54
111.85
151.45
181.60
200.53
208.17
206.04
196.77
183.78
170.90
161.31
156.75
156.09
156.77
156.38
154.06
150.74
148.59
149.98
155.86
165.51
174.65
179.42
178.61
173.73
166.74
158.12
147.30
132.90
115.52
93.23
66.05
36.16
6.18
-23.61
-55.17
-88.85
-123.78
-155.85
-188.19
-224.76
-267.26
-313.93
-361.81
-408.53
-450.48
-487.12
-518.05
-553.91
-604.41
-672.40
-753.02
-838.72
-923.45
-1000.45
-1066.53
-1055.92
-932.42
-712.69
-458.88
-232.39
-62.77
36.86
94.49
130.92
158.51
172.94
168.29
147.26
119.14
95.21
82.86
86.27
101.79
124.52
142.18
145.69
134.06
114.00
94.59
81.99
79.80
85.66
96.27
103.91
102.93
92.76
77.66
63.46
54.20
52.43
56.88
65.73
74.82
80.95
83.37
83.72
84.58
87.86
94.83
104.85
116.80
128.51
138.02
144.46
148.18
150.51
153.01
157.26
163.94
173.17
184.34
196.52
208.74
220.44
231.69
243.08
255.48
269.85
287.15
308.08
332.52
358.80
383.37
401.45
408.58
402.60
384.92
360.33
335.23
315.08
302.54
296.90
295.23
294.20
291.63
286.93
280.57
273.04
264.22
253.39
239.83
223.42
204.95
185.91
167.89
151.95
138.27
126.37
115.33
104.14
91.74
76.84
57.94
33.47
2.45
-34.74
-75.76
-116.57
-152.29
-178.71
-193.64
-197.56
-193.40
-185.30
-177.18
-171.58
-169.32
-169.82
-171.87
-174.43
-176.90
-179.12
-181.05
-182.58
-183.41
-183.07
-181.00
-176.75
-170.20
-161.67
-151.92
-141.95
-132.60
-124.42
-117.53
-111.95
-107.81
-105.58
-105.76
-108.61
-113.75
-120.22
-126.79
-132.45
-136.75
-139.67
-141.29
-141.22
-138.35
-130.96
-117.07
-95.17
-64.77
-26.89
15.91
59.87
100.68
134.35
157.95
170.16
171.37
163.30
148.50
129.73
109.52
89.87
72.17
57.14
45.02
35.69
28.84
24.11
21.16
19.56
18.69
17.58
15.08
10.17
2.31
-8.30
-20.76
-33.81
-46.12
-56.54
-64.20
-68.62
-70.00
-69.25
-67.80
-66.78
-66.16
-64.19
-57.78
-43.73
-20.36
11.38
48.04
84.77
117.01
141.62
157.24
163.84
162.18
153.46
139.34
122.18
104.85
90.15
80.19
75.81
76.35
80.09
84.84
88.74
90.90
91.63
92.39
95.10
101.21
110.64
121.16
128.35
126.69
111.16
79.17
31.71
-26.64
-89.14
-148.64
-199.29
-237.37
-261.05
-269.87
-264.28
-245.66
-216.75
-181.80
-146.05
-114.54
-90.79
-75.97
-68.87
-66.78
-66.79
-66.78
-65.91
-64.36
-62.88
-62.22
-62.66
-64.08
-66.06
-68.12
-69.92
-71.27
-72.07
-72.33
-72.11
-71.64
-71.31
-71.58
-72.80
-75.00
-77.74
-80.23
-81.87
-82.63
-83.44
-86.01
-91.88
-101.29
-112.16
-120.15
-119.56
-105.23
-74.21
-26.97
32.58
98.04
162.06
218.00
261.30
290.05
304.92
308.50
304.14
294.99
283.37
270.62
257.35
243.89
230.63
217.87
205.69
193.45
179.62
161.94
137.86
105.20
62.77
10.71
-49.19
-113.52
-177.16
-233.75
-276.39
-299.33
-299.80
-279.64
-245.44
-206.87
-173.36
-150.83
-139.90
-136.81
-136.10
-133.59
-127.92
-120.13
-111.58
-102.26
-90.36
-73.58
-50.92
-24.01
3.28
26.50
42.66
51.32
54.37
54.58
54.05
53.47
52.22
49.49
45.20
40.48
37.22
37.02
40.29
45.71
50.77
52.76
49.95
42.23
31.02
18.57
7.02
-2.35
-9.46
-15.23
-21.26
-29.20
-40.28
-54.71
-71.24
-87.08
-98.23
-100.50
-90.81
-68.39
-35.29
4.07
44.18
80.01
108.16
127.36
137.96
141.15
138.10
129.60
116.29
99.05
79.31
59.09
40.63
25.83
15.77
10.52
9.23
10.55
12.99
15.22
16.31
15.56
12.49
6.73
-1.93
-13.48
-27.46
-42.93
-58.69
-73.66
-87.34
-100.04
-112.44
-124.81
-136.12
-143.77
-144.27
-134.62
-113.80
-83.61
-48.27
-13.07
17.22
39.59
53.05
58.09
55.93
47.94
35.56
20.53
5.05
-8.31
-17.08
-19.45
-14.83
-3.92
11.41
28.65
45.13
58.43
66.74
69.02
65.13
55.85
42.66
27.47
12.09
-2.05
-14.27
-24.74
-34.41
-44.70
-57.02
-71.97
-88.58
-104.02
-113.92
-113.65
-100.01
-72.66
-34.56
8.78
51.04
86.95
113.44
129.85
137.19
137.22
131.57
121.58
108.44
93.51
78.47
65.08
54.79
48.43
45.99
46.77
49.59
53.23
56.60
58.89
59.52
58.17
54.72
49.28
42.11
33.53
23.75
12.69
-0.08
-15.23
-33.26
-54.01
-76.07
-96.55
-111.45
-116.59
-108.98
-87.97
-55.89
-17.60
20.84
53.79
77.53
90.95
95.23
92.94
86.85
79.12
70.94
62.74
54.69
47.07
40.44
35.50
32.80
32.44
34.04
36.79
39.71
41.86
42.49
41.15
37.81
32.87
27.10
21.32
16.17
11.74
7.43
2.07
-5.72
-16.79
-30.87
-46.13
-59.28
-66.28
-63.46
-48.81
-22.87
10.90
46.90
78.77
101.33
112.21
112.42
105.60
96.25
87.74
80.91
74.25
65.16
51.80
34.49
15.90
0.13
-9.08
-9.64
-1.98
11.10
25.39
36.32
40.07
34.27
18.37
-6.45
-37.63
-71.88
-105.74
-136.22
-161.28
-180.05
-192.80
-200.37
-203.50
-202.20
-195.65
-182.67
-162.64
-136.35
-106.08
-75.11
-46.63
-22.76
-4.24
9.11
17.80
22.25
22.87
20.83
18.27
18.07
22.77
33.31
48.33
64.69
78.80
88.31
92.96
94.24
94.11
93.72
92.68
89.43
81.93
68.50
48.18
20.93
-12.23
-49.15
-86.57
-120.81
-148.66
-168.55
-181.07
-188.53
-193.89
-199.52
-206.27
-213.31
-218.58
-219.21
-212.11
-194.48
-164.66
-122.89
-71.77
-16.11
38.17
85.55
122.30
147.02
160.47
164.61
161.76
154.03
143.20
130.87
118.58
107.65
98.86
92.20
86.88
81.69
75.59
68.27
60.28
52.77
46.91
43.12
40.92
38.93
35.59
29.83
21.53
11.47
0.84
-9.31
-18.61
-27.28
-36.02
-45.70
-57.17
-70.95
-86.83
-103.47
-118.11
-127.20
-127.37
-116.85
-96.32
-68.86
-38.87
-10.58
13.12
31.07
43.33
50.48
53.00
51.28
45.89
37.69
27.95
17.87
8.34
-0.27
-7.94
-14.61
-19.99
-23.47
-24.43
-22.52
-18.05
-11.83
-5.02
1.28
6.30
9.69
11.47
11.80
10.87
8.84
5.75
1.47
-4.40
-12.38
-22.74
-34.80
-46.56
-54.79
-55.94
-47.48
-29.02
-2.73
27.42
57.01
82.50
101.95
114.93
121.74
122.83
118.53
109.34
96.28
81.02
65.64
51.92
40.93
32.81
27.01
22.81
19.82
18.06
17.61
18.12
18.32
16.24
9.79
-2.14
-19.08
-38.82
-58.21
-74.21
-84.96
-90.21
-91.16
-89.87
-88.62
-89.36
-93.25
-100.18
-108.34
-114.34
-113.92
-103.30
-80.72
-47.34
-7.11
34.43
71.80
101.09
120.59
130.54
132.41
128.09
119.43
108.06
95.46
82.88
71.29
61.24
52.92
46.34
41.55
38.84
38.58
40.88
45.08
49.47
51.35
47.82
36.78
17.84
-7.27
-35.19
-62.02
-84.62
-101.54
-113.18
-121.35
-128.37
-136.16
-145.41
-155.06
-162.20
-162.47
-151.24
-125.15
-83.88
-31.06
26.06
78.45
117.74
138.71
140.27
125.17
98.46
65.71
31.78
0.24
-26.45
-46.68
-59.64
-65.31
-64.69
-59.51
-51.84
-43.37
-35.07
-27.15
-19.48
-12.13
-5.70
-1.33
-0.22
-3.13
-9.91
-19.53
-30.41
-41.09
-50.66
-59.16
-67.39
-76.36
-86.50
-96.91
-105.01
-107.00
-98.97
-78.64
-46.56
-6.51
35.55
73.23
101.74
119.11
126.13
125.35
119.62
111.03
100.57
88.53
75.11
60.92
47.10
34.93
25.48
19.12
15.49
13.61
12.36
10.73
8.10
4.31
-0.63
-6.55
-13.34
-20.86
-28.84
-36.96
-44.97
-52.85
-61.06
-70.40
-81.45
-93.86
-105.67
-113.35
-112.71
-100.40
-75.54
-40.44
-0.20
38.86
71.22
93.57
105.34
107.97
103.83
95.10
83.41
69.95
55.86
42.39
30.76
21.94
16.27
13.50
12.90
13.52
14.39
14.63
13.41
10.01
4.06
-4.39
-14.59
-25.32
-35.29
-43.63
-50.36
-56.42
-63.31
-72.27
-83.39
-95.02
-103.83
-105.79
-97.56
-77.85
-48.11
-12.22
24.70
57.84
83.86
101.39
110.63
112.67
108.74
99.95
87.41
72.46
56.77
42.18
30.26
21.95
17.28
15.39
14.92
14.43
12.83
9.62
4.96
-0.60
-6.41
-12.05
-17.49
-23.08
-29.36
-36.86
-46.02
-57.08
-70.00
-84.11
-97.83
-108.46
-112.59
-106.94
-89.68
-61.38
-25.32
13.39
49.25
77.95
97.32
107.32
109.33
105.12
96.21
83.74
68.74
52.53
36.79
23.34
13.60
8.15
6.57
7.56
9.45
10.68
10.23
7.74
3.43
-2.09
-8.22
-14.53
-20.96
-27.69
-35.16
-43.91
-54.43
-66.92
-80.85
-94.66
-105.54
-109.85
-104.10
-86.30
-56.96
-19.43
20.97
58.49
88.59
108.95
119.52
121.70
117.38
108.15
95.24
79.75
63.07
46.98
33.36
23.75
18.91
18.55
21.55
26.29
31.14
34.94
37.08
37.56
36.71
34.96
32.60
29.83
26.71
23.23
19.12
13.78
6.32
-4.02
-17.16
-31.53
-44.06
-50.85
-48.64
-36.17
-14.99
10.86
36.04
55.60
66.35
67.51
60.41
47.51
31.54
14.63
-1.94
-17.63
-32.37
-46.08
-58.47
-69.01
-77.11
-82.49
-85.35
-86.50
-87.13
-88.54
-91.74
-97.22
-104.87
-114.14
-124.15
-133.89
-142.23
-148.12
-150.77
-150.11
-147.05
-143.29
-140.53
-139.25
-137.86
-132.77
-119.63
-95.33
-59.63
-15.82
30.28
72.39
105.69
128.09
140.05
143.51
140.65
133.10
121.83
107.70
91.85
75.86
61.49
50.20
42.68
38.68
37.20
36.81
36.17
34.32
30.82
25.70
19.23
11.73
3.42
-5.59
-15.29
-25.68
-36.75
-48.64
-61.57
-75.75
-90.86
-105.49
-116.92
-121.41
-115.33
-96.60
-65.86
-26.69
15.30
54.13
85.17
106.12
117.02
119.50
115.72
107.66
96.85
84.46
71.52
59.03
47.90
38.87
32.34
28.32
26.44
26.01
26.13
25.79
24.12
20.53
14.88
7.43
-1.21
-10.27
-19.05
-27.17
-34.66
-42.00
-50.08
-59.93
-72.34
-87.17
-102.82
-116.07
-122.60
-118.24
-100.48
-69.68
-29.32
14.82
56.37
90.11
113.09
124.87
126.84
121.28
110.54
96.68
81.48
66.48
53.00
42.02
33.95
28.61
25.43
23.72
22.97
22.96
23.50
24.21
24.29
22.62
18.11
10.18
-0.91
-14.08
-27.70
-40.21
-50.63
-58.98
-66.26
-74.19
-84.49
-98.03
-113.97
-129.45
-139.93
-140.46
-127.37
-99.78
-60.20
-13.97
32.29
72.64
103.19
122.62
131.69
132.33
126.70
116.75
104.20
90.65
77.62
66.38
57.66
51.48
47.21
43.91
40.79
37.52
34.32
31.69
29.91
28.74
27.20
23.90
17.59
7.72
-5.21
-19.76
-34.04
-46.40
-56.08
-63.45
-69.89
-77.30
-87.48
-101.32
-118.13
-135.22
-148.14
-151.68
-141.52
-115.96
-76.89
-29.53
19.10
62.33
95.61
117.30
128.19
130.36
125.99
116.86
104.32
89.83
75.08
61.88
51.69
45.12
41.74
40.37
39.53
38.11
35.78
32.91
30.27
28.41
27.13
25.43
21.78
14.84
4.15
-9.64
-24.86
-39.43
-51.65
-60.86
-67.51
-73.05
-79.34
-88.12
-100.34
-115.67
-132.09
-145.88
-152.44
-147.49
-128.54
-96.09
-53.69
-7.00
37.80
75.74
104.05
122.12
130.94
132.02
126.90
116.93
103.51
88.28
73.12
59.83
49.66
43.03
39.46
37.90
37.24
36.74
36.20
35.84
35.96
36.42
36.49
34.89
30.23
21.65
9.22
-5.90
-21.79
-36.44
-48.44
-57.40
-64.08
-69.98
-76.92
-86.44
-99.21
-114.46
-129.70
-140.86
-143.23
-132.91
-108.37
-71.30
-26.38
20.06
61.99
95.17
117.87
130.36
134.07
130.63
121.48
108.10
92.24
76.05
61.65
50.64
43.60
39.95
38.36
37.38
36.05
34.21
32.33
31.02
30.50
30.23
29.00
25.33
18.14
7.26
-6.47
-21.42
-35.78
-48.17
-58.12
-66.13
-73.44
-81.58
-91.87
-104.97
-120.41
-136.27
-149.18
-154.90
-149.49
-130.60
-98.72
-57.28
-11.82
31.53
67.80
94.16
110.00
116.33
114.93
107.61
96.18
82.41
68.13
55.12
44.69
37.35
32.86
30.39
29.01
28.18
27.78
28.01
28.95
30.14
30.56
28.82
23.74
14.84
2.68
-11.38
-25.56
-38.35
-48.95
-57.58
-65.36
-73.99
-85.13
-99.58
-116.55
-133.23
-145.11
-147.17
-135.58
-109.29
-70.77
-25.43
20.11
59.95
90.42
110.40
120.66
122.86
118.63
109.38
96.52
81.68
66.69
53.26
42.48
34.50
28.72
24.20
20.17
16.46
13.41
11.51
10.86
10.85
10.14
7.14
0.65
-9.59
-22.66
-36.86
-50.28
-61.57
-70.39
-77.53
-84.53
-93.20
-104.84
-119.55
-135.64
-149.56
-156.49
-151.78
-132.56
-99.17
-55.33
-7.25
38.30
75.94
102.83
118.74
125.16
124.22
117.81
107.45
94.57
80.74
67.62
56.63
48.51
43.06
39.41
36.47
33.49
30.35
27.43
25.19
23.63
22.11
19.38
14.18
5.69
-5.94
-19.66
-33.83
-46.84
-57.68
-66.36
-73.88
-81.92
-92.15
-105.47
-121.22
-136.88
-148.33
-150.91
-140.91
-116.98
-80.87
-37.12
8.19
49.26
81.95
104.47
117.06
121.21
118.72
111.24
100.24
87.23
73.79
61.49
51.49
44.23
39.38
36.10
33.52
31.17
29.05
27.44
26.47
25.78
24.44
21.17
14.88
5.15
-7.47
-21.54
-35.32
-47.30
-56.79
-64.14
-70.58
-77.82
-87.39
-99.99
-114.87
-129.63
-140.44
-142.96
-133.69
-111.21
-77.01
-35.21
8.54
48.70
81.19
104.03
117.19
121.86
119.75
112.64
102.31
90.51
79.00
69.16
61.76
56.89
53.86
51.74
49.71
47.41
45.04
43.21
42.51
42.99
43.87
43.41
39.33
29.60
13.36
-8.49
-33.32
-57.60
-78.09
-92.90
-102.04
-107.24
-111.15
-116.36
-124.37
-134.92
-145.76
-153.03
-152.20
-139.69
-114.18
-77.43
-33.96
10.35
49.99
81.24
102.78
115.19
120.03
119.00
113.47
104.64
93.82
82.62
72.70
65.32
60.85
58.60
57.25
55.40
52.30
48.11
43.75
40.27
38.18
37.07
35.70
32.50
26.19
16.33
3.54
-10.85
-25.21
-38.29
-49.49
-59.04
-67.83
-77.07
-87.93
-101.15
-116.59
-132.84
-147.04
-155.29
-153.52
-138.91
-111.13
-72.79
-28.90
14.54
52.27
81.01
99.77
109.38
111.55
108.11
100.66
90.57
79.23
68.12
58.62
51.72
47.70
46.11
45.96
46.13
45.88
44.98
43.61
42.10
40.47
38.25
34.50
28.29
19.07
7.09
-6.56
-20.26
-32.45
-42.20
-49.53
-55.42
-61.48
-69.47
-80.66
-95.33
-112.27
-128.66
-140.51
-143.48
-134.29
-111.87
-78.00
-36.91
5.86
45.08
77.03
100.03
114.10
120.21
119.62
113.56
103.31
90.43
76.79
64.41
54.91
49.06
46.58
46.31
46.70
46.56
45.44
43.68
42.02
40.95
40.18
38.57
34.59
27.03
15.68
1.57
-13.44
-27.31
-38.68
-47.27
-53.89
-60.00
-67.31
-77.12
-89.70
-103.95
-117.06
-124.96
-123.23
-108.60
-80.23
-40.40
5.99
52.94
95.03
128.87
153.64
170.55
181.70
188.65
191.63
189.40
180.04
162.03
135.14
100.85
61.96
21.76
-16.79
-51.38
-80.31
-102.12
-115.52
-119.74
-115.12
-103.59
-88.37
-73.21
-61.08
-53.23
-49.22
-47.71
-47.48
-48.28
-50.86
-56.35
-65.41
-77.93
-93.14
-110.15
-127.92
-144.83
-157.92
-162.75
-154.35
-129.32
-88.07
-35.77
18.62
65.36
97.28
112.14
112.73
104.90
94.62
85.55
78.40
71.76
64.07
55.03
45.95
38.90
35.39
35.41
37.41
39.28
39.42
37.56
34.74
32.49
31.85
32.60
33.25
31.66
26.10
16.05
2.50
-12.45
-26.54
-38.31
-47.69
-55.90
-64.82
-76.18
-90.87
-108.50
-127.43
-144.75
-156.75
-159.49
-149.77
-126.28
-90.27
-45.68
1.82
46.26
83.00
109.64
126.10
133.95
135.39
132.57
127.19
120.55
113.61
106.96
100.64
94.05
86.25
76.40
64.44
51.29
38.73
28.53
21.61
17.51
14.49
10.44
3.78
-5.73
-16.94
-27.88
-36.59
-41.96
-44.12
-44.56
-45.81
-50.94
-62.72
-82.48
-109.12
-138.49
-164.00
-178.36
-175.91
-154.68
-117.10
-69.25
-18.76
27.30
64.00
88.98
102.05
104.43
98.23
86.04
70.76
55.22
41.75
31.76
25.44
22.02
20.23
18.84
17.16
15.17
13.35
12.15
11.54
10.74
8.34
2.84
-6.68
-20.04
-35.95
-52.37
-67.26
-79.36
-88.68
-96.43
-104.70
-115.68
-130.79
-149.84
-170.47
-188.38
-198.08
-194.38
-174.10
-137.35
-87.89
-32.19
22.29
69.18
104.61
127.65
139.64
143.07
140.55
134.20
125.72
116.53
107.97
101.10
96.43
93.74
92.13
90.54
88.29
85.47
82.81
81.24
81.17
82.01
82.16
79.37
71.75
58.41
40.02
18.51
-3.56
-23.99
-41.69
-56.84
-70.79
-85.26
-101.61
-120.05
-139.10
-155.57
-165.16
-163.56
-148.00
-118.36
-77.66
-31.36
14.18
53.48
83.18
102.42
112.21
114.43
110.98
103.45
93.22
81.74
70.58
61.15
54.27
49.95
47.34
45.31
42.96
40.08
37.11
34.72
33.19
31.96
29.75
24.99
16.54
4.27
-10.77
-26.81
-41.96
-54.87
-65.23
-73.69
-81.70
-90.92
-102.72
-117.52
-134.22
-149.95
-160.48
-161.22
-148.70
-122.05
-83.60
-38.49
6.83
46.49
76.62
95.98
105.44
107.09
103.13
95.41
85.31
73.91
62.24
51.13
41.26
32.98
26.41
21.52
18.27
16.59
16.22
16.62
16.85
15.80
12.51
6.47
-2.16
-12.65
-23.88
-34.84
-44.90
-54.11
-63.18
-73.35
-85.90
-101.37
-118.80
-135.31
-146.45
-147.30
-134.19
-106.27
-66.11
-19.24
27.58
68.31
99.15
119.00
128.97
131.26
128.15
121.39
112.16
101.38
89.92
78.62
68.27
59.36
52.13
46.52
42.34
39.40
37.41
35.94
34.38
32.02
28.27
22.93
16.32
9.19
2.38
-3.67
-9.21
-15.35
-23.71
-36.02
-53.45
-75.98
-101.95
-127.80
-148.54
-158.64
-153.63
-131.69
-94.61
-47.65
1.76
46.15
79.97
100.78
109.19
107.94
100.49
89.95
78.49
67.30
56.99
47.75
39.61
32.50
26.39
21.23
17.09
14.02
12.03
10.92
10.18
8.97
6.34
1.43
-6.20
-16.40
-28.50
-41.44
-54.21
-66.17
-77.35
-88.53
-101.05
-116.22
-134.49
-154.57
-173.04
-184.80
-184.44
-168.19
-135.58
-90.07
-38.17
12.46
55.37
86.88
106.41
115.76
117.65
114.69
108.79
101.21
92.87
84.54
76.86
70.19
64.63
60.01
56.16
52.99
50.50
48.55
46.73
44.21
40.03
33.38
23.90
11.88
-1.92
-16.51
-31.01
-44.85
-57.92
-70.53
-83.39
-97.28
-112.52
-128.34
-142.30
-150.38
-147.91
-131.21
-99.24
-54.50
-2.69
49.07
94.25
128.69
151.11
162.60
165.33
161.51
152.82
140.50
125.75
109.91
94.50
80.85
69.81
61.50
55.41
50.70
46.36
41.52
35.47
27.69
17.78
5.50
-9.15
-25.79
-43.56
-61.20
-77.26
-90.59
-100.76
-108.43
-115.19
-123.03
-133.34
-145.83
-157.91
-165.14
-162.49
-146.37
-116.23
-75.12
-28.85
15.93
53.68
81.34
98.49
106.62
107.96
104.68
98.49
90.75
82.56
74.76
67.81
61.71
56.11
50.62
45.03
39.52
34.47
30.24
26.81
23.64
19.79
14.22
6.23
-4.29
-16.73
-29.98
-42.79
-54.26
-64.06
-72.72
-81.46
-91.82
-104.97
-120.87
-137.59
-151.31
-157.16
-150.73
-129.78
-95.38
-51.77
-5.26
37.71
72.32
96.23
109.59
114.11
112.07
105.53
96.08
84.98
73.36
62.41
53.27
46.79
43.29
42.56
43.98
46.94
50.99
55.80
60.90
65.30
67.46
65.68
58.74
46.57
30.42
12.45
-5.10
-20.82
-34.62
-47.64
-61.65
-78.21
-97.72
-118.89
-138.58
-152.29
-155.39
-144.57
-119.21
-81.87
-37.69
7.03
46.67
77.65
98.73
110.57
114.81
113.15
107.06
97.90
87.07
76.13
66.51
59.15
54.09
50.67
47.78
44.48
40.48
36.18
32.37
29.59
27.66
25.52
21.59
14.40
3.29
-11.22
-27.66
-44.05
-58.70
-70.64
-79.97
-87.74
-95.70
-105.71
-119.08
-135.83
-153.98
-169.58
-177.39
-172.44
-151.85
-116.11
-69.25
-17.74
31.54
73.22
104.50
125.21
136.79
141.22
140.19
135.00
126.78
116.95
107.21
99.17
93.87
91.29
90.45
89.75
87.72
83.63
77.79
71.23
65.13
60.08
55.70
50.70
43.48
32.83
18.59
1.75
-15.91
-32.49
-46.61
-57.95
-67.14
-75.58
-84.98
-96.82
-111.84
-129.48
-147.43
-161.72
-167.47
-160.33
-138.08
-101.77
-55.77
-6.59
39.11
76.35
102.83
118.76
125.86
126.19
121.40
112.66
100.99
87.74
74.56
63.08
54.47
48.94
45.82
43.83
41.72
38.74
34.86
30.64
26.73
23.46
20.44
16.68
10.88
2.01
-10.12
-24.69
-40.01
-54.11
-65.45
-73.46
-78.76
-82.83
-87.61
-94.90
-105.89
-120.58
-137.42
-153.13
-163.12
-162.64
-148.29
-119.48
-78.95
-32.22
14.12
54.30
84.76
104.45
114.29
116.09
111.76
103.01
91.49
78.93
67.08
57.43
50.68
46.65
44.37
42.62
40.51
37.82
34.97
32.62
31.09
29.97
28.09
24.00
16.52
5.30
-8.98
-24.76
-40.17
-53.63
-64.41
-72.92
-80.58
-89.42
-101.17
-116.25
-132.88
-146.94
-152.89
-145.51
-121.96
-83.22
-34.09
18.30
66.70
105.83
133.44
150.05
157.71
158.79
155.15
148.07
138.75
128.57
119.20
112.19
108.40
107.79
109.45
112.07
114.53
116.41
118.09
120.38
123.90
128.51
133.03
135.76
135.25
131.28
125.11
118.82
113.93
110.17
104.98
94.33
74.37
42.87
-0.13
-52.63
-111.33
-171.93
-229.03
-276.11
-306.38
-314.43
-298.47
-261.47
-210.65
-155.27
-103.65
-61.00
-28.89
-6.13
9.60
20.44
27.96
33.41
37.97
42.71
48.13
53.73
57.99
58.74
54.09
43.26
26.92
6.95
-14.29
-34.78
-53.37
-69.96
-85.20
-100.05
-115.32
-131.24
-147.38
-162.68
-175.85
-185.80
-192.25
-195.97
-198.63
-202.24
-208.19
-216.30
-224.36
-228.39
-223.68
-206.23
-174.04
-127.98
-71.74
-11.00
47.86
99.16
138.92
165.39
178.85
181.16
175.02
163.29
148.67
133.42
119.40
107.95
99.77
94.82
92.43
91.59
91.34
91.00
90.10
88.16
84.47
78.11
68.22
54.45
37.26
17.90
-1.90
-20.41
-36.49
-49.80
-60.91
-71.12
-82.11
-95.47
-111.99
-130.96
-149.68
-163.63
-167.53
-157.12
-130.87
-91.02
-43.15
5.51
48.28
80.80
101.66
111.83
113.44
108.78
99.70
87.70
74.24
60.72
48.39
38.02
29.81
23.48
18.64
15.11
12.88
12.02
12.27
12.83
12.49
9.98
4.51
-3.97
-14.73
-26.54
-38.28
-49.22
-59.27
-68.93
-79.14
-90.96
-105.15
-121.46
-137.98
-151.07
-155.93
-148.15
-125.45
-88.94
-43.08
5.54
50.28
86.27
111.34
125.73
131.16
129.75
123.39
113.60
101.72
89.04
76.80
65.99
57.17
50.42
45.51
42.11
40.00
39.09
39.19
39.78
39.88
38.18
33.54
25.41
14.24
1.32
-11.69
-23.40
-33.19
-41.37
-49.01
-57.57
-68.40
-82.00
-97.53
-112.40
-122.59
-123.78
-112.87
-89.38
-55.91
-17.40
20.53
53.31
78.48
95.66
105.81
110.25
110.12
106.39
100.04
92.41
85.09
79.63
77.19
78.03
81.13
84.04
83.31
75.50
58.54
32.61
0.29
-34.31
-67.18
-95.70
-119.11
-138.07
-153.61
-166.32
-176.32
-183.84
-189.83
-196.22
-205.28
-218.44
-235.22
-252.70
-265.98
-269.60
-259.38
-233.96
-195.60
-149.61
-102.69
-60.84
-27.74
-4.09
11.77
22.55
30.69
37.63
43.90
49.56
54.59
59.10
63.00
65.75
66.39
64.04
58.57
51.17
44.25
40.65
42.49
50.04
61.33
72.58
79.44
78.63
68.98
51.81
30.29
8.39
-10.25
-23.27
-29.77
-29.90
-24.26
-13.03
4.59
30.17
65.12
109.15
159.23
209.42
252.24
281.00
292.13
286.24
267.52
241.73
213.82
186.65
160.88
136.07
112.06
89.58
70.21
55.46
45.81
40.36
37.10
33.66
28.16
19.72
8.64
-4.06
-17.19
-29.87
-41.85
-53.41
-65.14
-77.63
-91.31
-106.53
-123.54
-142.21
-161.47
-178.76
-189.99
-190.27
-175.58
-144.42
-98.95
-44.68
11.05
61.17
100.73
127.70
142.67
147.84
145.95
139.46
130.37
120.13
109.77
99.95
91.06
83.28
76.72
71.46
67.60
65.11
63.74
62.87
61.55
58.70
53.35
44.94
33.45
19.40
3.62
-13.08
-30.26
-47.99
-66.94
-88.06
-112.09
-138.66
-165.60
-188.65
-202.16
-200.70
-181.11
-144.10
-94.53
-40.09
11.04
52.60
81.66
98.54
105.61
105.73
101.08
92.97
82.18
69.47
55.93
42.92
31.72
23.24
17.81
15.11
14.37
14.55
14.54
13.37
10.33
5.13
-2.12
-11.01
-20.95
-31.38
-41.86
-52.30
-62.97
-74.63
-88.27
-104.62
-123.37
-142.49
-158.03
-164.87
-158.34
-136.01
-99.00
-51.98
-1.84
44.40
81.57
107.26
121.66
126.56
124.18
116.55
105.33
91.97
77.92
64.48
52.56
42.58
34.52
28.13
23.22
19.71
17.47
16.05
14.58
11.80
6.43
-2.33
-14.48
-29.10
-44.65
-59.50
-72.51
-83.44
-93.13
-103.27
-115.80
-131.99
-151.44
-171.48
-187.26
-192.83
-183.06
-155.56
-111.90
-57.47
0.09
53.04
95.72
125.50
142.74
149.59
148.86
143.08
134.19
123.63
112.55
101.90
92.26
83.87
76.55
69.95
63.81
58.16
53.25
49.27
46.06
42.80
38.21
30.86
19.87
5.25
-11.89
-29.70
-46.17
-59.86
-70.43
-78.83
-87.03
-97.31
-111.20
-128.43
-146.34
-160.09
-163.95
-153.27
-126.27
-85.04
-35.03
16.65
63.31
100.39
125.96
140.36
145.13
142.17
133.33
120.42
105.43
90.39
77.08
66.57
59.01
53.65
49.34
45.12
40.61
36.15
32.43
29.90
28.26
26.33
22.44
15.09
3.76
-10.85
-26.95
-42.47
-55.78
-66.39
-75.03
-83.36
-93.36
-106.57
-123.40
-142.46
-160.41
-172.27
-172.68
-157.62
-126.04
-80.65
-27.46
25.96
72.78
108.58
132.00
144.09
147.07
143.12
133.95
121.00
105.86
90.44
76.69
66.01
58.74
54.09
50.68
47.23
43.27
39.17
35.79
33.73
32.74
31.58
28.38
21.50
10.21
-4.89
-22.08
-39.09
-53.99
-65.86
-75.07
-83.12
-92.07
-103.79
-119.23
-137.76
-156.85
-172.21
-178.65
-171.56
-148.52
-110.53
-62.00
-9.69
39.28
79.43
107.93
124.67
131.27
129.97
122.88
111.78
98.33
84.26
71.12
60.06
51.44
44.83
39.42
34.45
29.71
25.50
22.33
20.38
19.14
17.31
13.32
5.91
-5.26
-19.39
-34.79
-49.58
-62.32
-72.62
-81.19
-89.64
-99.94
-113.63
-130.98
-150.24
-167.44
-177.07
-173.63
-153.64
-117.16
-68.32
-14.14
37.58
80.58
111.61
130.48
139.05
139.87
135.15
126.52
115.30
102.90
90.82
80.35
72.14
65.95
60.91
55.90
50.22
43.94
37.73
32.49
28.76
26.19
23.56
19.14
11.41
-0.23
-15.12
-31.47
-47.05
-60.02
-69.65
-76.64
-82.84
-90.63
-101.97
-117.50
-135.81
-153.23
-164.41
-163.81
-147.50
-114.88
-69.23
-16.91
34.57
78.76
111.86
132.99
143.38
145.15
140.25
130.30
116.78
101.40
86.17
72.98
62.97
56.27
52.02
48.91
45.92
42.75
39.73
37.48
36.19
35.25
33.28
28.56
19.84
6.97
-8.89
-25.70
-41.19
-53.84
-63.33
-70.65
-77.70
-86.57
-98.81
-114.80
-133.25
-150.99
-163.33
-165.06
-152.01
-122.72
-79.42
-27.77
24.71
70.78
105.47
126.94
136.16
135.70
128.45
116.80
102.52
86.89
71.04
55.95
42.39
30.83
21.51
14.39
9.39
6.31
4.86
4.48
4.33
3.34
0.42
-5.17
-13.62
-24.45
-36.68
-49.24
-61.30
-72.65
-83.71
-95.48
-109.07
-125.13
-143.05
-160.41
-172.91
-175.27
-162.87
-133.70
-89.60
-36.18
18.71
67.42
104.65
128.43
139.77
141.28
135.82
125.60
112.24
97.09
81.54
66.97
54.47
44.53
37.00
31.44
27.41
24.69
23.23
22.77
22.64
21.69
18.60
12.32
2.52
-10.28
-24.85
-39.70
-53.62
-66.04
-77.28
-88.44
-101.01
-116.25
-134.24
-153.14
-169.01
-176.41
-170.09
-146.96
-107.59
-56.54
-1.17
50.63
92.61
121.62
137.61
142.61
139.42
130.59
118.13
103.56
88.22
73.42
60.17
49.08
40.22
33.26
27.75
23.42
20.19
18.02
16.67
15.43
13.19
8.77
1.38
-8.94
-21.35
-34.44
-46.91
-57.95
-67.73
-77.18
-87.70
-100.60
-116.29
-133.61
-149.40
-158.86
-156.75
-139.26
-105.71
-59.36
-6.75
44.26
86.85
117.03
134.16
140.09
137.75
129.86
118.37
104.53
89.38
74.05
59.67
47.20
37.18
29.71
24.51
21.25
19.47
18.69
18.22
17.11
14.29
8.87
0.49
-10.50
-23.09
-36.04
-48.26
-59.25
-69.28
-79.29
-90.58
-104.27
-120.49
-137.71
-152.43
-159.68
-154.50
-133.79
-97.92
-51.11
-0.36
46.71
84.22
109.34
122.38
125.72
122.21
114.17
103.00
89.55
74.60
59.22
44.67
32.15
22.53
16.18
12.92
12.07
12.58
13.20
12.67
10.00
4.73
-3.04
-12.63
-23.15
-33.68
-43.62
-52.83
-61.71
-71.15
-82.40
-96.61
-114.05
-133.23
-150.45
-160.27
-157.09
-137.20
-100.57
-51.31
3.39
55.46
98.38
128.61
145.91
152.21
150.36
142.96
131.91
118.56
104.09
89.61
76.14
64.44
54.83
47.21
41.29
36.75
33.40
31.04
29.22
27.11
23.53
17.35
7.89
-4.68
-19.37
-34.72
-49.33
-62.41
-74.03
-85.20
-97.41
-112.03
-129.35
-147.79
-163.60
-171.54
-166.36
-144.84
-107.26
-57.84
-3.58
47.82
90.19
120.27
137.78
144.54
143.15
136.06
125.25
112.23
98.39
84.97
72.96
62.92
54.94
48.77
44.13
40.82
38.69
37.47
36.53
34.84
31.14
24.46
14.34
1.18
-13.96
-29.70
-44.75
-58.40
-70.61
-82.16
-94.36
-108.60
-125.51
-144.15
-161.48
-172.56
-171.96
-155.68
-122.95
-77.04
-24.53
26.65
69.65
100.43
118.29
125.05
123.64
116.81
106.56
94.05
80.18
65.93
52.47
40.96
32.22
26.55
23.62
22.71
22.90
23.28
23.03
21.42
17.86
11.98
3.79
-6.28
-17.47
-28.95
-40.12
-50.96
-62.07
-74.59
-89.64
-107.60
-127.35
-145.79
-158.20
-159.36
-145.36
-115.27
-71.91
-21.30
29.08
72.48
104.66
124.49
133.32
133.68
128.12
118.44
105.77
90.92
74.85
58.77
44.01
31.75
22.68
16.99
14.33
13.92
14.67
15.38
14.89
12.30
7.14
-0.63
-10.61
-22.14
-34.53
-47.20
-59.88
-72.80
-86.66
-102.28
-119.98
-138.63
-155.18
-164.96
-162.83
-145.18
-111.54
-65.26
-12.73
38.42
81.64
112.98
131.50
138.65
137.01
129.28
117.73
104.17
90.15
77.08
66.10
57.83
52.28
48.88
46.73
44.97
42.94
40.20
36.38
31.11
23.96
14.63
3.10
-10.28
-24.76
-39.49
-53.70
-66.89
-79.07
-90.64
-102.28
-114.34
-126.25
-135.88
-139.65
-133.38
-113.89
-80.50
-35.84
14.54
63.73
105.44
135.59
152.96
158.72
155.42
145.95
132.83
118.02
102.93
88.56
75.56
64.14
54.24
45.64
38.13
31.71
26.50
22.52
19.51
16.73
13.15
7.70
-0.23
-10.63
-22.76
-35.53
-47.88
-59.19
-69.51
-79.52
-90.37
-103.29
-118.91
-136.52
-153.55
-165.67
-167.80
-155.74
-127.97
-86.60
-37.00
13.72
58.89
93.97
117.24
129.37
132.29
128.24
119.20
106.91
93.05
79.31
67.17
57.52
50.51
45.56
41.79
38.41
35.16
32.31
30.30
29.30
28.81
27.63
24.28
17.64
7.44
-5.44
-19.38
-32.58
-43.83
-52.92
-60.81
-69.16
-79.82
-94.05
-111.72
-130.75
-147.13
-155.68
-151.53
-131.90
-97.40
-52.19
-2.89
43.41
81.14
107.50
122.49
127.92
126.24
119.55
109.34
96.66
82.59
68.34
55.16
44.05
35.57
29.67
25.96
23.88
22.78
22.09
21.11
19.10
15.31
9.21
0.69
-9.84
-21.54
-33.54
-45.09
-55.98
-66.54
-77.64
-90.29
-105.10
-121.47
-137.11
-148.09
-149.72
-138.16
-112.00
-73.15
-26.66
20.81
62.95
95.48
116.76
127.47
129.49
124.94
115.60
102.85
87.97
72.27
57.14
43.75
32.87
24.75
19.25
15.98
14.48
14.21
14.44
14.22
12.45
8.10
0.57
-10.01
-22.76
-36.32
-49.34
-60.99
-71.26
-81.00
-91.67
-104.77
-121.01
-139.55
-157.46
-169.96
-171.52
-157.71
-127.01
-81.86
-28.18
26.24
74.16
110.74
134.34
146.01
148.29
143.91
135.13
123.60
110.64
97.34
84.70
73.46
64.06
56.68
51.37
48.07
46.61
46.46
46.74
46.18
43.46
37.57
28.12
15.41
0.38
-15.80
-32.06
-47.76
-62.89
-78.04
-94.20
-112.26
-132.24
-152.51
-169.46
-178.12
-173.48
-152.51
-115.70
-67.42
-14.84
34.28
73.84
100.86
115.51
120.07
117.47
110.18
99.79
87.32
73.60
59.63
46.52
35.28
26.63
20.83
17.80
17.22
18.61
21.38
24.72
27.54
28.60
26.74
21.30
12.35
0.83
-11.75
-23.80
-34.33
-43.30
-51.81
-61.55
-73.92
-88.89
-104.12
-115.05
-116.00
-102.13
-71.57
-26.56
26.89
80.86
128.04
163.85
187.34
200.52
206.73
208.96
208.89
206.89
202.81
196.80
189.94
184.08
181.32
183.41
191.22
204.47
221.60
239.75
254.87
262.37
258.26
240.50
210.12
171.40
130.76
94.81
68.21
52.24
44.69
40.98
35.95
25.63
8.26
-15.62
-43.73
-73.17
-101.36
-126.62
-148.33
-166.42
-180.87
-191.32
-197.13
-197.86
-193.77
-186.11
-176.83
-168.01
-161.42
-158.20
-159.03
-164.41
-174.83
-190.48
-210.92
-234.79
-260.06
-284.74
-307.59
-328.52
-348.30
-367.73
-386.89
-404.49
-417.99
-424.20
-420.16
-403.99
-375.59
-336.83
-291.34
-243.76
-198.40
-158.12
-123.33
-92.03
-60.51
-24.77
17.95
68.01
122.98
178.18
227.99
267.47
293.66
306.41
307.92
301.80
291.60
279.68
266.74
252.19
235.08
215.01
192.57
169.16
146.51
126.06
108.56
93.95
81.56
70.30
59.03
46.65
32.35
15.81
-2.70
-22.27
-41.63
-59.37
-74.57
-87.10
-97.83
-108.43
-120.64
-135.27
-151.33
-165.51
-172.68
-167.39
-145.75
-107.27
-55.54
2.52
58.60
105.39
138.41
156.67
162.00
157.76
147.39
133.61
118.29
102.78
88.20
75.54
65.52
58.30
53.43
50.06
47.35
44.74
42.08
39.38
36.44
32.56
26.67
17.75
5.48
-9.53
-25.72
-41.21
-54.56
-65.34
-74.34
-83.28
-94.05
-107.94
-124.74
-142.30
-156.54
-162.31
-154.82
-131.38
-92.70
-43.15
10.28
59.99
99.88
126.81
140.74
143.87
139.24
129.60
117.00
102.92
88.70
75.63
64.88
57.10
52.10
48.99
46.54
43.72
40.16
36.09
32.04
28.25
24.39
19.48
12.40
2.38
-10.42
-24.93
-39.45
-52.36
-62.78
-70.96
-78.15
-86.10
-96.35
-109.39
-124.25
-138.26
-147.56
-147.95
-136.16
-111.05
-74.21
-29.87
16.12
57.91
91.02
113.25
124.72
127.05
122.45
113.01
100.37
85.99
71.27
57.63
46.27
37.79
32.10
28.49
26.12
24.35
22.93
21.83
20.87
19.52
16.86
11.85
3.78
-7.37
-20.88
-35.37
-49.27
-61.32
-71.02
-78.84
-86.18
-94.81
-106.13
-120.30
-135.68
-148.73
-154.81
-149.41
-129.76
-96.00
-51.45
-1.90
45.97
86.38
115.80
133.32
140.16
138.62
131.09
119.53
105.48
90.36
75.68
62.95
53.31
47.12
43.81
42.09
40.52
38.08
34.50
30.21
25.92
22.09
18.43
13.96
7.37
-2.33
-15.26
-30.47
-46.23
-60.70
-72.59
-81.58
-88.39
-94.43
-101.34
-110.48
-122.38
-136.25
-149.70
-158.93
-159.50
-147.59
-121.48
-82.46
-34.82
15.30
61.56
99.10
125.40
140.36
145.55
143.21
135.49
124.11
110.49
95.97
82.00
69.96
60.97
55.41
52.83
52.01
51.47
49.98
47.01
42.77
37.91
33.03
28.26
23.08
16.56
7.85
-3.43
-16.88
-31.42
-45.64
-58.27
-68.63
-76.78
-83.42
-89.75
-97.09
-106.54
-118.47
-132.12
-145.32
-154.51
-155.49
-144.60
-120.12
-83.10
-37.47
10.95
56.01
92.79
118.62
133.17
137.86
134.98
126.84
115.41
102.29
88.81
76.14
65.21
56.58
50.33
46.06
43.01
40.36
37.41
33.78
29.44
24.59
19.46
14.15
8.45
1.90
-6.12
-16.01
-27.68
-40.46
-53.13
-64.40
-73.34
-79.74
-84.25
-88.08
-92.73
-99.48
-109.00
-121.00
-134.12
-145.84
-152.76
-151.19
-138.19
-112.52
-75.39
-30.49
16.78
60.67
96.43
121.40
135.09
138.84
134.86
125.53
112.87
98.55
84.06
70.75
59.79
51.85
46.95
44.34
42.91
41.56
39.65
37.14
34.41
31.80
29.30
26.28
21.75
14.76
4.87
-7.59
-21.47
-35.22
-47.37
-57.06
-64.37
-70.31
-76.50
-84.56
-95.45
-108.84
-122.83
-134.12
-138.68
-132.93
-114.90
-85.07
-46.42
-3.72
37.69
73.21
99.91
116.73
124.10
123.42
116.41
104.87
90.58
75.32
60.78
48.31
38.69
32.02
27.74
24.96
22.86
20.97
19.24
17.80
16.56
15.00
12.11
6.84
-1.42
-12.48
-25.32
-38.42
-50.43
-60.64
-69.25
-77.29
-86.16
-97.06
-110.38
-125.15
-138.86
-147.72
-147.49
-134.71
-108.06
-69.10
-22.17
26.60
71.01
106.23
129.79
141.55
143.09
136.79
125.11
110.35
94.50
79.34
66.38
56.51
49.87
45.81
43.15
40.67
37.62
33.96
30.25
27.17
24.99
23.19
20.43
15.09
5.90
-7.44
-24.05
-42.20
-59.84
-75.42
-88.29
-98.80
-108.14
-117.76
-128.75
-141.18
-153.57
-162.85
-164.89
-155.69
-132.80
-96.55
-50.24
0.49
49.28
90.69
121.42
140.51
148.89
148.50
141.54
130.10
116.18
101.66
88.22
77.13
68.91
63.27
59.32
55.94
52.30
48.16
43.73
39.40
35.31
31.07
25.82
18.53
8.58
-3.97
-18.21
-32.72
-46.04
-57.26
-66.37
-74.26
-82.46
-92.55
-105.41
-120.57
-135.82
-147.40
-150.89
-142.47
-120.31
-85.42
-41.68
5.17
49.06
85.05
110.41
124.66
129.12
126.04
117.82
106.53
93.87
81.12
69.25
58.93
50.49
43.94
39.06
35.50
32.94
31.09
29.66
28.21
26.12
22.62
16.97
8.77
-1.94
-14.49
-27.82
-40.73
-52.28
-62.15
-70.84
-79.49
-89.55
-102.00
-116.60
-131.39
-142.76
-146.25
-137.96
-116.02
-81.53
-38.49
7.16
49.31
83.19
106.34
118.70
121.87
118.19
109.95
98.97
86.59
73.83
61.57
50.58
41.52
34.71
30.18
27.59
26.39
25.94
25.53
24.43
21.90
17.33
10.35
1.03
-10.12
-22.18
-34.13
-45.20
-55.12
-64.35
-73.93
-85.13
-98.67
-114.06
-129.02
-139.65
-141.38
-130.48
-105.64
-68.82
-25.02
19.32
58.13
87.40
105.81
114.30
115.07
110.45
102.40
92.32
81.41
70.81
61.57
54.40
49.42
46.17
43.66
40.94
37.43
33.16
28.72
24.80
21.78
19.29
16.23
11.15
2.91
-8.74
-22.89
-37.82
-51.66
-63.05
-71.72
-78.53
-85.14
-93.42
-104.73
-119.26
-135.50
-150.23
-158.89
-156.84
-140.75
-109.91
-66.79
-16.67
33.84
78.59
113.26
136.12
147.78
150.29
146.23
137.97
127.28
115.53
103.90
93.44
85.11
79.47
76.44
75.25
74.69
73.49
70.85
66.61
61.15
54.95
48.18
40.43
30.91
18.88
4.15
-12.65
-30.14
-46.64
-60.74
-71.78
-80.06
-86.65
-93.08
-100.92
-111.27
-124.38
-139.17
-153.09
-162.32
-162.66
-150.81
-125.63
-88.87
-44.93
0.36
41.42
74.31
97.38
110.99
116.66
116.20
111.09
102.49
91.48
79.33
67.53
57.55
50.41
46.33
44.64
44.14
43.51
41.91
39.14
35.61
31.91
28.40
24.91
20.74
14.98
6.87
-3.84
-16.66
-30.47
-43.88
-55.57
-64.86
-71.79
-77.19
-82.36
-88.73
-97.44
-108.91
-122.42
-135.89
-146.01
-148.90
-141.07
-120.76
-88.69
-48.20
-4.43
37.04
71.66
96.77
111.75
117.53
115.86
108.66
97.79
84.95
71.73
59.63
49.74
42.64
38.16
35.58
33.80
31.85
29.25
26.08
22.81
19.83
17.03
13.69
8.66
0.97
-9.62
-22.37
-35.73
-48.00
-57.94
-65.33
-70.98
-76.46
-83.51
-93.40
-106.39
-121.22
-135.05
-143.84
-143.29
-130.09
-103.25
-64.66
-18.89
28.03
70.26
103.68
126.52
139.19
143.35
140.92
133.49
122.29
108.54
93.77
79.81
68.40
60.66
56.61
55.24
54.95
54.21
52.10
48.54
44.07
39.43
35.06
30.71
25.56
18.49
8.56
-4.50
-20.03
-36.62
-52.51
-66.25
-77.16
-85.50
-92.40
-99.43
-108.05
-119.13
-132.46
-146.44
-158.16
-163.80
-159.49
-142.56
-112.57
-71.75
-24.69
22.81
65.26
98.72
121.44
133.74
137.24
134.05
126.17
115.27
102.78
90.06
78.44
68.99
62.30
58.16
55.71
53.76
51.28
47.84
43.66
39.39
35.56
32.11
28.27
22.82
14.60
3.10
-11.21
-26.99
-42.48
-56.08
-66.91
-75.12
-81.70
-88.25
-96.44
-107.36
-120.98
-135.70
-148.42
-155.02
-151.50
-135.16
-105.72
-65.69
-19.81
26.15
66.84
98.51
119.53
130.11
131.82
126.75
117.11
104.97
92.18
80.24
70.16
62.31
56.37
51.63
47.36
43.22
39.39
36.43
34.77
34.26
33.96
32.40
28.11
20.29
9.23
-3.79
-16.95
-28.65
-38.12
-45.71
-52.78
-61.11
-72.24
-86.65
-103.17
-118.78
-128.96
-128.71
-114.06
-83.72
-40.06
10.93
61.03
102.10
128.30
137.58
131.69
114.98
92.64
69.21
47.80
30.09
16.74
7.84
3.05
1.62
2.37
3.90
4.98
4.89
3.53
1.43
-0.78
-2.66
-4.44
-6.92
-11.32
-18.59
-28.92
-41.48
-54.62
-66.47
-75.71
-82.12
-86.74
-91.53
-98.54
-109.08
-122.88
-137.80
-150.00
-154.77
-147.91
-127.08
-92.83
-48.69
-0.30
46.13
85.44
114.53
132.62
140.71
140.70
134.62
124.32
111.45
97.55
84.10
72.30
62.82
55.68
50.37
46.11
42.30
38.69
35.36
32.52
30.11
27.62
24.12
18.59
10.28
-0.82
-13.99
-27.94
-41.29
-53.02
-62.87
-71.42
-79.78
-89.28
-100.84
-114.49
-128.83
-141.04
-147.24
-143.50
-127.20
-98.07
-58.75
-14.20
29.59
67.24
95.22
112.35
119.47
118.57
111.99
101.80
89.67
76.89
64.51
53.32
43.82
36.19
30.27
25.77
22.45
20.09
18.58
17.61
16.62
14.73
10.98
4.58
-4.67
-16.27
-29.16
-42.04
-53.87
-64.23
-73.59
-83.11
-94.20
-107.72
-123.25
-138.60
-149.93
-152.68
-142.95
-118.98
-82.07
-36.45
11.83
56.53
92.78
118.01
131.92
135.85
131.94
122.41
109.37
94.72
80.22
67.33
57.02
49.52
44.35
40.56
37.28
34.05
30.93
28.30
26.32
24.62
22.20
17.72
10.17
-0.76
-14.35
-29.15
-43.47
-56.01
-66.28
-74.82
-82.98
-92.46
-104.63
-119.78
-136.61
-152.04
-161.62
-160.68
-145.75
-115.91
-73.40
-23.33
27.68
73.23
108.66
131.80
142.88
143.80
137.16
125.55
111.29
96.31
82.15
69.92
60.22
53.01
47.78
43.74
40.25
36.97
33.94
31.32
29.11
26.86
23.69
18.52
10.51
-0.57
-14.14
-28.86
-43.16
-55.71
-66.00
-74.57
-82.79
-92.42
-104.70
-119.65
-135.48
-148.68
-154.69
-149.20
-129.55
-95.95
-51.70
-2.49
45.10
85.39
114.85
132.50
139.40
137.73
129.86
117.86
103.52
88.51
74.40
62.54
53.72
47.93
44.39
41.96
39.64
36.98
34.12
31.48
29.25
27.01
23.69
18.04
9.16
-2.92
-17.17
-31.94
-45.56
-56.98
-66.14
-73.94
-81.85
-91.37
-103.48
-118.03
-133.44
-146.63
-153.48
-149.82
-132.85
-102.25
-60.73
-13.49
33.14
73.39
103.43
121.89
129.56
128.50
121.18
109.90
96.53
82.60
69.33
57.56
47.79
40.11
34.32
30.07
27.08
25.09
23.85
23.01
21.94
19.78
15.64
8.94
-0.37
-11.69
-23.87
-35.66
-46.09
-54.90
-62.68
-70.64
-80.16
-92.07
-106.07
-120.22
-131.20
-134.94
-127.83
-108.01
-76.19
-35.73
8.13
49.69
84.18
108.70
122.52
126.58
122.82
113.49
100.65
86.18
71.67
58.47
47.55
39.39
33.87
30.30
27.82
25.69
23.53
21.32
19.09
16.54
12.92
7.24
-1.32
-12.83
-26.43
-40.51
-53.40
-64.10
-72.69
-80.34
-88.88
-99.94
-114.13
-130.47
-146.15
-156.95
-158.25
-146.30
-119.61
-79.77
-31.24
19.66
66.48
104.25
130.40
144.73
148.83
145.01
135.57
122.60
107.92
93.18
79.86
69.03
61.07
55.58
51.65
48.13
44.29
39.87
35.22
30.87
27.09
23.56
19.31
13.07
3.80
-8.71
-23.71
-39.60
-54.53
-67.06
-76.72
-84.19
-91.10
-99.42
-110.66
-125.09
-141.19
-155.56
-163.58
-160.57
-143.34
-111.44
-67.68
-17.52
32.39
75.97
109.24
130.85
141.65
143.75
139.46
130.66
118.72
104.82
90.34
76.88
66.00
58.66
54.83
53.46
52.83
51.35
48.11
43.20
37.46
31.88
26.93
22.25
16.80
9.32
-0.91
-13.75
-28.16
-42.59
-55.59
-66.28
-74.59
-81.16
-87.16
-93.97
-102.75
-114.14
-127.72
-141.73
-152.94
-157.22
-150.54
-130.38
-96.79
-52.83
-3.90
43.67
84.27
114.34
132.82
140.83
140.64
134.76
125.27
113.63
100.99
88.41
77.00
67.79
61.41
57.79
56.18
55.38
54.19
51.84
48.15
43.40
38.05
32.43
26.52
19.97
12.26
2.99
-7.99
-20.40
-33.62
-46.84
-59.19
-70.00
-78.95
-86.17
-92.23
-98.08
-104.88
-113.62
-124.68
-137.32
-149.26
-156.94
-156.19
-143.55
-117.55
-79.60
-33.88
13.71
57.16
91.95
115.91
129.16
133.40
130.80
123.36
112.57
99.66
85.88
72.72
61.66
53.82
49.51
48.09
48.18
48.22
47.04
44.31
40.39
35.98
31.62
27.22
22.07
15.21
5.91
-5.90
-19.45
-33.44
-46.43
-57.40
-66.02
-72.73
-78.53
-84.65
-92.21
-101.91
-113.69
-126.45
-137.95
-144.94
-143.80
-131.52
-106.79
-70.76
-27.06
18.94
61.52
96.07
120.01
133.03
136.60
133.01
124.62
113.39
100.82
88.07
76.19
66.03
58.23
53.00
50.10
48.94
48.74
48.79
48.47
47.39
45.21
41.63
36.32
29.00
19.48
7.85
-5.57
-20.22
-35.39
-50.42
-64.72
-77.83
-89.38
-99.09
-106.84
-112.89
-117.91
-123.08
-129.80
-139.12
-151.11
-164.28
-175.41
-180.05
-173.66
-153.10
-117.96
-71.08
-17.99
34.50
80.19
114.97
137.41
148.48
150.46
146.01
137.41
126.38
114.31
102.38
91.63
82.83
76.33
71.93
69.12
67.21
65.61
63.91
61.80
59.02
55.23
50.10
43.45
35.27
25.80
15.39
4.45
-6.76
-18.16
-29.73
-41.45
-53.15
-64.44
-74.81
-83.88
-91.60
-98.42
-105.36
-113.63
-124.15
-136.84
-150.15
-160.90
-164.93
-158.11
-137.81
-103.91
-59.27
-9.16
40.07
82.66
114.70
134.79
143.75
143.77
137.52
127.39
115.25
102.49
90.21
79.31
70.48
64.05
59.93
57.64
56.47
55.69
54.70
53.05
50.42
46.66
41.66
35.39
27.90
19.26
9.55
-1.10
-12.57
-24.66
-37.06
-49.34
-60.98
-71.49
-80.56
-88.26
-95.06
-101.77
-109.43
-118.94
-130.55
-143.48
-155.61
-163.58
-163.50
-152.05
-127.60
-91.16
-46.38
1.33
46.14
83.28
109.98
125.66
131.38
129.14
121.14
109.44
95.83
81.90
69.09
58.55
51.04
46.67
44.90
44.66
44.72
44.06
42.26
39.51
36.43
33.48
30.61
27.06
21.61
13.27
1.78
-12.12
-26.89
-40.81
-52.59
-61.82
-68.97
-75.20
-81.94
-90.40
-101.29
-114.34
-128.01
-139.47
-145.06
-141.08
-125.10
-96.97
-59.15
-16.19
26.44
63.85
92.79
112.04
122.09
124.38
120.58
112.23
100.69
87.30
73.55
60.96
50.84
43.97
40.34
39.18
39.23
39.16
38.04
35.59
32.09
28.08
24.03
19.92
15.20
8.99
0.48
-10.63
-23.88
-38.19
-52.17
-64.56
-74.69
-82.65
-89.29
-96.01
-104.34
-115.41
-129.36
-144.85
-158.89
-167.30
-165.67
-150.73
-121.65
-80.54
-32.12
17.46
62.36
98.31
123.29
137.41
142.24
139.90
132.51
121.89
109.57
96.90
85.09
75.10
67.52
62.36
59.10
56.84
54.59
51.67
47.88
43.47
38.87
34.38
29.86
24.71
18.08
9.17
-2.34
-16.12
-31.24
-46.38
-60.20
-71.82
-81.07
-88.50
-95.32
-103.02
-112.90
-125.51
-140.19
-154.80
-165.83
-169.10
-160.84
-138.99
-104.11
-59.64
-11.11
35.41
74.78
104.03
122.56
131.59
133.18
129.35
121.67
111.32
99.41
87.25
76.24
67.56
61.84
58.84
57.55
56.65
54.91
51.63
46.81
40.90
34.49
27.89
20.93
13.01
3.36
-8.57
-22.80
-38.70
-55.09
-70.57
-83.92
-94.48
-102.36
-108.46
-114.23
-121.35
-131.11
-143.91
-158.81
-173.30
-183.60
-185.43
-175.23
-151.39
-115.00
-69.84
-21.43
24.48
63.36
92.63
111.70
121.28
122.67
117.23
106.39
91.89
75.88
60.86
49.12
42.29
40.85
44.22
51.06
59.87
69.38
78.80
87.61
95.20
100.62
102.55
99.59
90.89
76.64
58.21
37.85
17.94
0.24
-14.64
-27.29
-39.23
-52.30
-67.99
-86.88
-108.02
-128.72
-144.75
-151.27
-144.22
-121.93
-85.84
-40.46
7.89
52.94
89.98
116.74
133.13
140.40
140.20
134.13
123.64
110.28
95.87
82.27
70.98
62.70
57.14
53.28
49.86
45.99
41.50
36.84
32.63
29.05
25.46
20.58
12.94
1.62
-13.18
-30.12
-47.20
-62.45
-74.79
-84.38
-92.57
-101.46
-112.99
-128.17
-146.26
-164.42
-178.04
-181.80
-171.29
-144.57
-103.20
-51.98
2.25
52.62
93.92
123.66
141.85
150.19
150.88
145.93
136.85
124.93
111.54
98.21
86.45
77.36
71.25
67.57
65.16
62.70
59.28
54.67
49.28
43.75
38.53
33.45
27.64
19.88
9.16
-4.81
-21.32
-38.79
-55.33
-69.42
-80.48
-89.02
-96.47
-104.72
-115.46
-129.59
-146.70
-164.63
-179.60
-186.81
-181.70
-161.39
-125.97
-78.79
-25.73
26.39
71.65
106.30
129.20
141.33
144.76
141.80
134.37
124.01
111.97
99.55
88.00
78.38
71.35
66.83
64.07
61.88
59.15
55.15
49.85
43.70
37.34
31.11
24.80
17.70
8.84
-2.48
-16.39
-32.34
-49.18
-65.52
-80.18
-92.50
-102.51
-111.08
-119.73
-130.29
-144.31
-162.27
-182.88
-202.85
-217.38
-221.25
-210.30
-182.83
-140.25
-86.95
-29.34
25.63
72.00
105.85
125.84
132.81
129.14
117.83
101.92
84.19
67.15
53.07
43.78
40.34
42.59
49.20
58.04
66.86
74.11
79.16
82.18
83.65
83.75
82.11
77.83
69.95
57.93
42.11
23.66
4.37
-13.86
-29.59
-42.27
-52.32
-61.01
-70.08
-81.28
-95.77
-113.53
-132.87
-150.39
-161.43
-161.19
-146.36
-116.38
-73.98
-24.57
25.24
69.56
104.56
128.93
143.39
149.60
149.34
143.98
134.67
122.59
109.24
96.30
85.32
77.20
71.90
68.58
66.05
63.21
59.55
55.17
50.57
46.19
41.99
37.23
30.80
21.51
8.66
-7.49
-25.78
-44.43
-61.61
-76.01
-87.36
-96.39
-104.65
-113.99
-126.02
-141.48
-159.65
-178.08
-192.61
-198.22
-190.28
-166.15
-126.40
-74.99
-18.35
36.34
83.12
118.44
141.56
153.80
157.44
154.78
147.61
137.27
124.99
112.13
100.15
90.29
83.31
79.14
77.06
75.95
74.79
72.87
69.98
66.19
61.66
56.41
50.17
42.49
32.88
21.01
6.86
-9.11
-26.05
-42.84
-58.43
-72.06
-83.53
-93.25
-102.24
-111.85
-123.43
-137.80
-154.60
-171.89
-185.99
-192.16
-185.73
-163.71
-126.15
-76.41
-20.53
34.45
82.38
119.31
144.02
157.40
161.52
158.60
150.64
139.31
126.14
112.73
100.50
90.56
83.33
78.50
75.22
72.47
69.43
65.63
61.10
56.10
50.93
45.64
39.94
33.24
24.83
14.21
1.35
-13.24
-28.59
-43.57
-57.23
-69.07
-79.12
-87.88
-96.21
-105.14
-115.70
-128.56
-143.59
-159.36
-172.95
-180.24
-176.96
-160.05
-128.86
-85.77
-35.70
15.20
61.14
98.10
124.25
139.69
145.61
143.52
134.87
121.13
104.07
85.82
68.76
54.93
45.49
40.43
38.71
38.73
38.92
38.30
36.50
33.72
30.30
26.40
21.85
16.20
8.87
-0.48
-11.78
-24.49
-37.74
-50.52
-62.01
-71.80
-80.00
-87.23
-94.56
-103.14
-113.97
-127.38
-142.62
-157.57
-168.82
-172.32
-164.49
-143.37
-109.60
-66.47
-19.22
26.39
65.50
95.17
114.63
124.67
126.91
123.08
114.72
103.35
90.53
77.91
66.95
58.57
52.82
49.05
46.22
43.42
40.29
37.02
34.08
31.79
29.93
27.64
23.67
16.89
6.73
-6.36
-21.12
-35.79
-48.84
-59.51
-68.04
-75.57
-83.67
-93.77
-106.54
-121.50
-136.80
-149.32
-155.24
-150.98
-134.30
-105.18
-66.17
-21.88
22.16
60.95
91.07
111.14
121.62
124.06
120.32
112.11
100.93
88.16
75.19
63.37
53.69
46.54
41.64
38.17
35.22
32.22
29.11
26.21
23.79
21.60
18.76
13.93
5.89
-5.85
-20.73
-37.15
-53.09
-66.78
-77.37
-85.28
-92.01
-99.66
-110.06
-124.03
-140.78
-157.66
-170.57
-174.86
-166.64
-144.05
-108.05
-62.35
-12.54
35.37
76.34
107.29
127.27
137.03
138.27
133.00
123.23
110.87
97.71
85.37
75.03
67.21
61.65
57.50
53.80
49.86
45.55
41.23
37.42
34.30
31.39
27.66
21.80
12.81
0.46
-14.56
-30.78
-46.47
-60.26
-71.66
-81.22
-90.35
-100.81
-113.92
-129.88
-147.16
-162.46
-171.27
-169.03
-152.64
-121.74
-79.12
-30.16
18.64
61.50
94.66
116.89
128.99
132.87
130.56
123.80
113.97
102.38
90.51
79.80
71.33
65.43
61.63
58.89
56.14
52.75
48.75
44.67
41.01
37.83
34.39
29.44
21.68
10.35
-4.27
-20.87
-37.55
-52.45
-64.46
-73.59
-81.01
-88.58
-98.24
-111.19
-127.24
-144.36
-158.88
-166.14
-161.78
-143.19
-110.55
-67.10
-18.42
29.10
69.99
100.91
121.01
131.38
134.03
130.99
123.80
113.65
101.76
89.52
78.52
70.07
64.71
61.97
60.63
59.23
56.75
52.98
48.44
43.95
39.98
36.19
31.53
24.59
14.34
0.62
-15.65
-32.77
-48.86
-62.48
-73.17
-81.53
-88.99
-97.32
-108.00
-121.64
-137.49
-153.29
-165.50
-169.93
-162.94
-142.53
-109.33
-66.60
-19.57
25.94
65.04
94.72
114.19
124.28
126.71
123.30
115.66
105.23
93.47
81.87
71.83
64.28
59.40
56.67
55.05
53.48
51.28
48.33
44.93
41.44
37.84
33.52
27.45
18.61
6.49
-8.45
-24.81
-40.77
-54.68
-65.70
-74.13
-81.31
-89.15
-99.47
-113.15
-129.53
-146.06
-158.64
-162.53
-153.81
-130.74
-94.64
-49.78
-2.16
42.20
78.79
105.46
122.23
130.41
131.70
127.55
119.12
107.63
94.62
81.92
71.29
63.84
59.59
57.60
56.39
54.56
51.45
47.13
42.26
37.60
33.33
28.89
23.12
14.68
2.69
-12.68
-30.22
-47.95
-63.88
-76.68
-86.24
-93.59
-100.60
-109.25
-120.94
-135.90
-152.82
-168.75
-179.50
-180.45
-167.88
-140.31
-99.29
-49.35
3.20
51.95
92.16
121.56
140.29
150.00
152.72
150.23
143.84
134.61
123.79
112.86
103.31
96.16
91.69
89.37
88.11
86.80
84.61
81.34
77.32
73.05
68.82
64.29
58.39
49.65
36.72
19.08
-2.57
-26.33
-49.65
-70.13
-86.32
-98.02
-106.18
-112.44
-118.68
-126.41
-136.55
-148.99
-162.30
-173.56
-178.68
-173.40
-154.59
-121.62
-76.93
-25.58
26.10
72.24
108.78
134.05
148.47
153.73
151.90
144.95
134.53
122.13
109.24
97.26
87.29
79.98
75.19
72.28
70.20
67.97
65.01
61.21
56.77
51.94
46.69
40.59
32.99
23.21
10.93
-3.64
-19.69
-36.07
-51.52
-65.05
-76.12
-84.80
-91.77
-98.14
-105.27
-114.42
-126.25
-140.30
-154.70
-166.24
-170.94
-165.14
-146.70
-115.92
-75.67
-30.75
13.41
52.10
82.37
103.20
115.16
119.62
118.10
112.01
102.71
91.62
80.30
70.28
62.58
57.57
54.78
53.17
51.65
49.42
46.28
42.54
38.68
34.95
31.10
26.27
19.43
9.76
-2.83
-17.57
-32.98
-47.46
-59.79
-69.64
-77.60
-84.96
-93.25
-103.72
-116.85
-131.94
-146.90
-158.40
-162.48
-155.57
-135.66
-103.22
-61.31
-14.91
30.32
69.56
99.77
120.06
131.20
134.90
133.00
127.12
118.62
108.67
98.46
89.09
81.34
75.34
70.58
66.04
60.66
53.79
45.46
36.36
27.46
19.59
13.06
7.49
2.00
-4.46
-12.68
-22.92
-34.74
-47.28
-59.49
-70.57
-80.19
-88.56
-96.25
-104.07
-112.85
-123.31
-135.83
-149.98
-164.14
-175.36
-179.71
-173.26
-153.37
-119.91
-75.64
-25.65
23.98
67.73
102.00
125.45
138.75
143.74
142.55
137.03
128.64
118.56
107.86
97.59
88.67
81.71
76.87
73.82
71.94
70.46
68.72
66.23
62.72
58.12
52.45
45.73
37.97
29.12
19.10
7.92
-4.32
-17.36
-30.81
-44.16
-56.91
-68.59
-78.97
-88.05
-96.19
-104.16
-112.98
-123.65
-136.55
-150.87
-164.20
-172.79
-172.41
-159.68
-133.32
-94.98
-48.88
-0.79
43.56
79.90
106.08
122.06
129.25
129.64
125.23
117.70
108.37
98.38
88.73
80.24
73.44
68.49
65.18
63.09
61.72
60.59
59.31
57.50
54.78
50.84
45.49
38.73
30.79
22.02
12.66
2.82
-7.56
-18.56
-30.03
-41.59
-52.74
-63.07
-72.46
-81.19
-89.88
-99.35
-110.41
-123.53
-138.55
-154.24
-168.14
-176.70
-176.12
-163.45
-137.77
-100.82
-56.69
-10.83
31.45
66.19
91.40
106.97
114.05
114.36
109.66
101.49
91.27
80.34
69.99
61.26
54.77
50.53
47.99
46.27
44.49
42.14
39.16
35.82
32.44
29.01
25.12
20.05
12.95
3.31
-8.86
-22.91
-37.62
-51.58
-63.51
-72.70
-79.29
-84.25
-89.18
-95.81
-105.21
-117.21
-129.96
-140.17
-143.86
-137.58
-119.52
-90.37
-53.13
-12.38
27.00
61.00
87.20
104.85
114.45
117.20
114.42
107.44
97.53
86.06
74.51
64.27
56.39
51.29
48.65
47.57
46.91
45.82
43.96
41.50
38.85
36.15
33.12
28.98
22.85
14.17
2.99
-10.01
-23.69
-36.91
-48.87
-59.30
-68.62
-77.76
-87.98
-100.45
-115.78
-133.31
-150.81
-164.57
-170.11
-163.51
-142.74
-108.58
-64.61
-16.36
30.28
70.46
101.32
122.12
133.58
137.21
134.55
127.01
115.96
102.95
89.74
78.00
68.96
62.94
59.34
56.95
54.51
51.29
47.37
43.37
40.03
37.60
35.56
32.75
27.83
19.77
8.32
-5.91
-21.72
-37.72
-52.75
-66.32
-78.67
-90.75
-103.87
-119.08
-136.54
-154.97
-171.49
-182.04
-182.41
-169.60
-142.89
-104.48
-58.95
-12.23
29.92
63.30
85.86
97.68
100.44
96.53
88.42
78.25
67.64
57.78
49.40
42.79
37.85
34.12
31.13
28.47
26.14
24.40
23.59
23.80
24.51
24.56
22.42
16.70
6.75
-7.00
-23.14
-39.77
-55.17
-68.45
-79.79
-90.37
-101.85
-115.70
-132.40
-150.87
-168.17
-179.89
-181.18
-168.17
-139.47
-96.97
-45.71
7.53
56.01
94.76
121.51
136.57
141.91
140.14
133.65
124.27
113.37
102.03
91.10
81.18
72.59
65.36
59.42
54.74
51.37
49.21
47.80
46.14
42.80
36.35
25.83
11.25
-6.34
-25.14
-43.25
-59.32
-73.03
-85.23
-97.68
-112.35
-130.55
-152.07
-174.50
-193.43
-203.42
-199.68
-179.90
-145.32
-100.75
-53.11
-9.48
24.87
47.43
58.40
59.61
53.41
41.87
26.58
8.87
-10.03
-28.95
-47.04
-63.86
-79.19
-92.48
-102.34
-106.64
-103.20
-90.94
-70.88
-46.13
-21.02
0.60
16.68
27.40
34.52
40.13
45.62
51.22
56.28
59.72
60.34
56.79
47.66
31.86
9.55
-17.12
-43.97
-65.55
-76.88
-74.90
-59.22
-31.59
5.47
50.09
101.39
158.46
218.61
276.14
322.73
349.60
350.56
324.61
276.39
214.72
149.69
89.58
39.26
0.35
-27.27
-43.49
-46.74
-33.99
-2.46
47.78
111.67
178.70
234.96
267.16
267.27
235.39
179.80
113.85
51.35
2.47
-28.33
-42.06
-43.31
-37.90
-31.26
-27.32
-28.21
-34.24
-44.14
-55.49
-65.56
-72.12
-73.89
-71.09
-65.34
-59.39
-56.57
-60.07
-72.36
-94.43
-125.44
-162.61
-201.73
-237.89
-266.46
-283.91
-288.27
-279.33
-258.39
-228.01
-191.49
-152.52
-114.61
-80.73
-52.85
-31.63
-16.37
-5.36
3.64
12.67
22.87
34.16
45.23
54.30
60.15
63.14
65.74
72.18
87.30
114.79
155.49
206.33
260.47
308.84
342.57
355.76
347.24
320.65
282.83
241.19
201.29
165.60
133.86
104.48
76.06
48.12
21.13
-4.30
-27.82
-49.38
-68.95
-86.07
-99.94
-109.73
-115.29
-117.52
-118.33
-120.08
-124.81
-133.56
-146.02
-160.69
-175.53
-188.67
-199.19
-207.46
-215.04
-223.91
-235.23
-248.23
-259.73
-264.92
-258.93
-238.75
-204.29
-158.15
-104.45
-47.39
9.44
63.01
110.38
148.55
175.19
189.68
193.72
190.97
185.59
180.53
176.58
172.68
166.99
158.24
146.45
132.68
118.38
104.51
91.30
78.41
65.34
51.85
38.08
24.29
10.52
-3.61
-18.85
-35.97
-55.40
-76.88
-99.68
-122.93
-146.14
-169.17
-191.75
-212.71
-229.44
-238.23
-235.35
-218.45
-187.52
-144.79
-93.91
-38.85
16.80
69.79
116.97
155.20
181.97
196.20
198.87
192.76
181.44
168.11
154.71
141.92
129.72
118.13
107.55
98.72
92.29
88.37
86.36
84.98
82.63
77.86
69.76
58.24
44.01
28.21
12.06
-3.59
-18.44
-32.79
-47.41
-63.41
-81.99
-103.86
-128.64
-154.16
-176.41
-190.23
-190.62
-174.38
-141.30
-94.37
-39.05
18.08
70.89
114.75
147.10
167.36
176.65
177.14
171.44
162.04
150.90
139.29
127.86
116.94
106.70
97.31
89.01
82.15
77.12
74.19
73.28
73.68
73.87
71.67
64.75
51.31
30.75
4.01
-26.62
-58.24
-88.15
-114.72
-137.79
-158.47
-178.53
-199.23
-220.24
-239.09
-251.49
-252.56
-238.49
-207.92
-162.59
-106.90
-46.78
11.77
63.75
105.83
136.40
155.38
163.85
163.77
157.52
147.57
136.11
124.78
114.59
105.85
98.35
91.54
84.90
78.22
71.82
66.26
62.06
59.18
56.81
53.41
47.31
37.29
23.17
5.87
-12.86
-31.14
-47.62
-61.91
-74.65
-87.22
-101.23
-117.78
-136.76
-156.33
-172.87
-181.56
-177.60
-157.77
-121.58
-71.68
-13.25
47.31
104.12
152.86
191.18
218.50
235.40
243.09
243.17
237.55
228.49
218.41
209.66
203.99
202.03
202.85
203.88
201.36
191.48
171.74
142.04
104.84
64.36
24.92
-10.61
-41.44
-68.47
-93.03
-115.65
-135.68
-151.69
-162.56
-168.28
-170.35
-171.21
-173.38
-178.65
-187.53
-198.89
-210.02
-216.88
-214.85
-199.77
-169.11
-122.85
-63.80
2.93
71.03
134.38
188.06
228.95
255.53
267.46
265.10
249.33
221.80
185.16
143.04
99.56
58.45
22.27
-8.05
-32.80
-52.85
-68.69
-80.19
-86.88
-88.54
-85.85
-80.55
-75.00
-71.47
-71.43
-75.08
-81.49
-88.97
-95.78
-100.69
-103.34
-104.34
-104.99
-107.03
-112.00
-120.81
-133.11
-146.92
-158.68
-163.87
-158.25
-139.27
-107.26
-65.61
-20.01
23.22
58.81
83.74
97.44
101.19
97.19
87.66
74.48
59.22
43.34
28.27
15.19
4.81
-2.79
-8.01
-11.40
-13.34
-13.82
-12.58
-9.43
-4.73
0.43
4.40
5.41
2.19
-5.50
-16.76
-29.88
-42.88
-54.32
-63.78
-72.00
-80.62
-91.55
-106.08
-124.11
-143.58
-160.49
-169.67
-166.20
-147.01
-112.17
-65.14
-11.94
40.53
86.31
121.61
145.09
157.34
159.96
154.82
143.72
128.41
110.79
92.85
76.44
62.88
52.64
45.33
39.98
35.57
31.55
27.95
25.22
23.70
23.11
22.34
19.66
13.41
2.69
-12.15
-29.59
-47.43
-63.68
-77.24
-88.23
-97.95
-108.28
-121.05
-137.20
-156.12
-175.28
-190.41
-196.35
-188.51
-164.42
-124.89
-74.11
-18.61
34.56
79.64
113.34
134.98
145.70
147.57
142.67
132.85
119.80
105.24
90.87
78.19
68.08
60.66
55.39
51.39
47.98
44.94
42.52
41.11
40.82
41.14
40.86
38.43
32.51
22.47
8.76
-7.28
-23.84
-39.26
-52.59
-63.80
-73.77
-83.93
-95.78
-110.26
-127.15
-144.59
-159.06
-166.12
-161.60
-143.17
-111.29
-69.39
-22.93
22.24
61.31
91.43
111.62
122.23
124.31
119.20
108.54
94.33
78.86
64.29
52.15
42.98
36.40
31.45
27.20
23.22
19.68
17.07
15.77
15.56
15.49
14.09
9.95
2.26
-8.77
-21.98
-35.69
-48.33
-58.98
-67.62
-75.00
-82.27
-90.55
-100.63
-112.77
-126.27
-139.21
-148.41
-149.87
-139.88
-116.34
-79.82
-33.66
16.99
66.67
110.90
146.58
171.51
183.76
181.51
163.84
131.81
89.33
42.64
-1.17
-36.26
-59.59
-71.22
-73.48
-69.41
-61.58
-51.49
-39.94
-27.68
-15.94
-6.48
-1.21
-1.48
-7.53
-18.18
-31.23
-44.10
-54.73
-62.15
-66.86
-70.52
-75.37
-83.57
-96.29
-113.14
-131.79
-148.15
-157.10
-153.84
-135.29
-101.23
-54.72
-1.48
51.41
97.32
131.61
152.58
161.42
161.52
157.11
152.03
148.82
148.46
150.51
153.74
156.73
158.24
157.59
154.82
150.73
146.81
144.79
146.08
151.11
158.86
166.80
171.69
170.93
164.04
153.69
145.47
146.47
163.11
198.73
251.92
316.14
380.95
434.50
466.68
471.87
450.31
407.60
352.58
294.46
240.26
193.61
155.06
123.49
97.54
76.30
59.31
45.91
34.92
24.81
14.16
2.22
-10.96
-24.96
-39.81
-56.34
-75.78
-98.51
-122.79
-144.51
-158.30
-159.83
-148.05
-126.18
-100.76
-79.27
-67.51
-67.97
-79.74
-99.65
-123.94
-149.34
-173.63
-195.61
-214.95
-232.11
-248.49
-266.46
-288.84
-317.89
-353.89
-393.85
-431.44
-458.48
-467.69
-455.58
-424.17
-380.50
-334.03
-293.36
-263.74
-246.58
-240.63
-243.91
-255.11
-273.58
-298.57
-328.29
-359.87
-390.10
-416.50
-437.74
-453.50
-463.54
-466.92
-462.04
-447.27
-422.07
-387.63
-346.76
-303.12
-260.07
-219.85
-183.19
-149.62
-118.06
-87.44
-57.21
-27.48
1.03
27.30
50.48
70.24
86.91
101.36
114.56
127.11
138.98
149.53
157.87
163.42
166.27
167.41
168.59
171.99
179.72
193.18
212.16
234.43
255.79
271.03
275.65
267.62
248.26
221.79
193.70
168.74
149.54
136.19
126.97
119.55
112.09
103.86
95.27
87.56
82.22
80.45
82.74
88.70
97.34
107.59
118.60
129.66
139.75
146.91
148.04
139.50
118.28
83.41
36.97
-15.76
-67.06
-108.62
-133.56
-138.25
-123.16
-92.50
-52.70
-10.48
28.82
62.14
88.44
107.96
121.40
129.49
132.94
132.56
129.32
124.12
117.57
109.87
101.04
91.21
80.89
70.98
62.53
56.30
52.42
50.28
48.70
46.30
41.92
34.98
25.60
14.48
2.67
-8.95
-19.90
-30.42
-41.38
-53.98
-69.10
-86.58
-104.69
-120.08
-128.58
-126.37
-111.47
-84.48
-48.65
-8.84
29.95
63.83
90.71
110.10
122.58
129.12
130.79
128.61
123.69
117.22
110.25
103.55
97.36
91.55
85.81
79.99
74.37
69.48
65.91
63.83
62.79
61.66
59.00
53.59
44.96
33.54
20.60
7.67
-4.11
-14.36
-23.66
-33.26
-44.63
-58.96
-76.63
-96.87
-117.47
-135.09
-145.82
-146.24
-134.44
-110.82
-78.02
-40.21
-1.95
33.04
62.42
85.29
101.68
111.96
116.50
115.63
109.91
100.45
88.86
77.08
66.80
59.02
53.83
50.66
48.69
47.34
46.46
46.15
46.37
46.61
45.88
42.93
36.89
27.59
15.73
2.63
-10.26
-21.90
-31.97
-40.94
-49.92
-60.24
-73.06
-88.73
-106.40
-123.81
-137.54
-143.81
-139.56
-123.54
-96.85
-62.71
-25.50
10.53
42.13
67.58
86.41
98.89
105.58
107.16
104.46
98.66
91.23
83.60
76.89
71.58
67.46
63.92
60.35
56.43
52.33
48.58
45.68
43.76
42.39
40.60
37.23
31.31
22.52
11.25
-1.47
-14.34
-26.29
-36.74
-45.84
-54.38
-63.55
-74.53
-88.07
-103.86
-120.31
-134.50
-142.77
-141.74
-129.44
-106.17
-74.52
-38.65
-3.03
28.71
54.49
73.76
86.94
94.79
97.95
97.04
92.79
86.25
78.72
71.48
65.38
60.58
56.70
53.10
49.35
45.49
42.03
39.58
38.38
38.08
37.62
35.64
30.97
23.09
12.36
-0.12
-12.83
-24.47
-34.34
-42.59
-50.09
-58.12
-67.93
-80.27
-94.96
-110.63
-124.76
-134.09
-135.40
-126.51
-107.11
-79.02
-45.72
-11.41
20.11
46.27
65.92
79.07
86.39
88.72
86.99
82.16
75.35
67.77
60.54
54.42
49.66
46.05
43.08
40.35
37.73
35.41
33.70
32.76
32.31
31.60
29.62
25.45
18.67
9.53
-1.12
-12.17
-22.65
-32.09
-40.62
-48.90
-57.88
-68.44
-80.93
-94.85
-108.56
-119.43
-124.36
-120.71
-107.27
-84.80
-55.99
-24.64
5.44
31.36
51.61
65.91
74.69
78.63
78.49
75.04
69.19
61.96
54.30
46.95
40.35
34.66
29.97
26.34
23.91
22.67
22.41
22.60
22.50
21.33
18.46
13.62
6.92
-1.21
-10.09
-19.10
-27.79
-36.11
-44.49
-53.76
-64.71
-77.65
-91.83
-105.16
-114.58
-116.84
-109.65
-92.58
-67.43
-37.64
-7.33
19.90
41.77
57.49
67.43
72.51
73.72
71.91
67.83
62.19
55.71
49.10
42.85
37.29
32.56
28.75
25.89
24.07
23.20
22.99
22.81
21.78
19.06
14.08
6.78
-2.39
-12.59
-22.92
-32.71
-41.69
-50.14
-58.80
-68.62
-80.35
-93.91
-108.02
-120.07
-126.65
-124.61
-112.21
-89.87
-60.23
-27.37
4.41
31.76
52.83
67.31
75.83
79.42
79.12
75.85
70.53
64.11
57.54
51.54
46.47
42.34
38.83
35.69
32.84
30.41
28.61
27.45
26.50
24.95
21.91
16.70
9.22
-0.02
-10.12
-20.14
-29.40
-37.76
-45.62
-53.79
-63.29
-74.83
-88.36
-102.70
-115.35
-123.03
-122.61
-112.19
-91.91
-64.09
-32.53
-1.40
25.92
47.49
62.78
72.31
76.97
77.73
75.47
71.09
65.52
59.65
54.19
49.52
45.66
42.39
39.50
36.90
34.75
33.29
32.58
32.30
31.71
29.76
25.53
18.56
9.10
-1.97
-13.37
-23.96
-33.06
-40.70
-47.63
-54.99
-63.97
-75.30
-88.76
-102.88
-115.01
-121.89
-120.53
-109.32
-88.60
-60.82
-29.76
0.49
26.67
46.96
60.92
69.15
72.70
72.62
69.87
65.31
59.78
54.07
48.79
44.27
40.59
37.56
34.97
32.71
30.84
29.46
28.62
28.05
27.14
25.09
21.09
14.78
6.37
-3.39
-13.45
-22.87
-31.21
-38.65
-45.99
-54.35
-64.60
-76.89
-90.22
-102.36
-110.26
-110.94
-102.45
-84.68
-59.58
-30.56
-1.54
24.18
44.57
59.04
67.98
72.28
72.90
70.68
66.41
60.89
54.88
49.04
43.74
39.11
35.13
31.76
29.05
27.08
25.85
25.09
24.26
22.55
19.19
13.71
6.10
-3.13
-13.16
-23.14
-32.51
-41.12
-49.33
-57.90
-67.72
-79.38
-92.70
-106.31
-117.66
-123.56
-121.08
-108.69
-86.88
-58.18
-26.42
4.44
31.25
52.30
67.18
76.41
80.87
81.48
79.15
74.75
69.22
63.48
58.23
53.83
50.26
47.16
44.18
41.21
38.43
36.24
34.86
34.09
33.19
31.03
26.56
19.22
9.20
-2.61
-14.97
-26.66
-36.92
-45.62
-53.37
-61.22
-70.38
-81.72
-95.25
-109.72
-122.57
-130.48
-130.20
-119.72
-99.04
-70.34
-37.35
-4.33
25.16
48.96
66.40
77.90
84.41
86.82
85.94
82.47
77.29
71.43
65.93
61.55
58.58
56.74
55.41
53.92
51.90
49.39
46.74
44.34
42.30
40.27
37.51
33.13
26.49
17.39
6.31
-5.84
-17.95
-29.08
-38.76
-47.06
-54.59
-62.26
-71.09
-81.80
-94.54
-108.44
-121.53
-130.90
-133.38
-126.48
-109.33
-83.18
-51.15
-17.45
13.90
40.01
59.63
72.90
80.82
84.51
84.86
82.48
77.94
71.99
65.62
59.85
55.47
52.78
51.51
50.99
50.48
49.46
47.77
45.59
43.21
40.80
38.16
34.78
29.95
23.07
13.95
2.99
-8.91
-20.66
-31.30
-40.41
-48.11
-55.06
-62.13
-70.23
-79.98
-91.53
-104.26
-116.58
-126.01
-129.62
-124.83
-110.41
-87.05
-57.37
-25.22
5.45
31.63
51.76
65.68
74.05
77.82
77.87
74.94
69.81
63.43
56.86
51.13
46.87
44.18
42.64
41.59
40.48
39.09
37.63
36.42
35.58
34.82
33.33
30.11
24.39
15.97
5.39
-6.23
-17.56
-27.60
-35.84
-42.50
-48.36
-54.49
-62.00
-71.68
-83.55
-96.58
-108.58
-116.56
-117.45
-109.16
-91.37
-65.80
-35.74
-5.10
22.73
45.51
62.43
73.72
80.07
82.24
80.92
76.75
70.55
63.36
56.24
50.12
45.51
42.41
40.37
38.76
37.08
35.18
33.27
31.66
30.47
29.30
27.31
23.43
16.89
7.58
-3.78
-15.87
-27.35
-37.26
-45.43
-52.38
-59.07
-66.53
-75.61
-86.60
-98.98
-111.27
-121.00
-125.15
-121.00
-107.01
-83.59
-53.13
-19.29
14.03
43.72
68.03
86.46
99.32
107.27
111.05
111.58
110.06
107.90
106.47
106.64
108.57
111.72
115.19
118.33
121.10
124.22
128.79
135.72
145.15
156.22
167.41
176.99
183.83
187.81
189.86
191.68
195.23
202.18
213.28
227.92
243.79
257.17
263.77
260.36
246.40
224.79
201.37
182.90
174.62
178.27
191.55
209.04
224.28
231.75
228.18
212.99
187.78
155.49
119.63
83.66
50.55
22.58
1.21
-13.08
-20.65
-22.75
-21.18
-17.94
-14.77
-12.64
-11.60
-10.98
-9.89
-7.64
-4.21
-0.15
3.63
6.25
7.25
6.70
5.09
3.08
1.17
-0.46
-2.06
-4.13
-7.22
-11.71
-17.66
-24.79
-32.57
-40.42
-47.89
-54.84
-61.38
-67.97
-75.09
-83.15
-92.34
-102.50
-113.28
-124.25
-135.03
-145.47
-155.58
-165.55
-175.75
-186.67
-198.87
-212.68
-227.96
-243.66
-257.90
-268.29
-272.68
-269.89
-260.28
-245.56
-228.25
-210.77
-194.82
-181.11
-169.69
-160.38
-153.21
-148.50
-146.50
-147.08
-149.46
-152.32
-154.29
-154.41
-152.43
-148.77
-144.14
-139.15
-134.13
-129.34
-125.14
-122.19
-120.98
-121.27
-121.58
-119.41
-112.14
-98.26
-78.30
-54.86
-31.64
-12.08
1.77
9.58
12.35
11.54
8.37
3.71
-1.76
-7.35
-12.23
-15.72
-17.52
-17.74
-16.82
-15.23
-13.23
-10.81
-7.90
-4.54
-1.04
1.95
3.76
3.92
2.42
-0.18
-2.99
-5.05
-5.74
-5.03
-3.44
-1.86
-1.16
-1.91
-4.24
-7.88
-12.34
-17.02
-21.33
-24.66
-26.51
-26.63
-25.17
-22.84
-20.72
-19.63
-19.46
-18.78
-15.35
-7.35
5.12
19.26
30.27
33.26
25.62
8.22
-15.01
-39.01
-59.89
-76.20
-88.78
-99.28
-108.73
-116.90
-122.75
-125.51
-125.55
-124.40
-124.06
-126.31
-132.00
-140.94
-152.20
-164.42
-176.19
-186.35
-194.38
-200.44
-205.54
-211.15
-218.83
-229.63
-243.74
-260.34
-277.77
-293.76
-305.62
-310.65
-306.82
-293.80
-273.87
-251.79
-233.53
-223.80
-223.95
-231.13
-239.47
-242.73
-237.01
-222.02
-200.47
-176.15
-151.90
-128.84
-106.81
-85.51
-65.31
-47.22
-32.08
-19.83
-9.27
1.48
14.09
29.43
47.28
66.76
86.98
107.73
129.60
153.65
180.87
211.64
245.48
281.44
318.75
357.25
397.36
439.46
483.32
527.54
569.42
605.12
630.20
640.35
632.35
605.05
559.96
501.07
433.98
364.23
295.99
231.38
170.87
114.28
61.74
13.85
-28.72
-65.97
-98.94
-129.34
-158.99
-189.45
-221.91
-256.94
-294.06
-330.90
-362.85
-383.69
-387.35
-370.36
-333.60
-282.44
-225.04
-169.60
-121.99
-84.75
-57.79
-40.06
-30.77
-29.49
-35.08
-44.52
-52.84
-54.61
-46.35
-28.41
-5.32
16.01
29.31
31.65
24.30
11.68
-0.97
-9.68
-12.61
-9.77
-2.21
8.49
20.12
29.79
34.12
29.76
14.35
-12.48
-48.36
-88.05
-124.42
-150.19
-160.29
-153.48
-132.89
-104.54
-74.89
-48.52
-27.12
-10.04
4.07
15.91
25.32
31.98
36.68
41.73
50.49
66.03
89.56
119.20
149.53
172.79
181.26
170.60
142.12
103.22
64.98
38.09
29.09
38.74
63.25
96.85
134.08
170.38
201.30
221.84
226.90
213.16
180.92
134.70
81.73
29.41
-16.94
-54.81
-83.61
-103.28
-113.41
-113.37
-103.18
-84.07
-58.53
-29.56
0.15
28.75
55.21
79.06
99.95
117.32
130.55
139.05
142.50
140.92
134.71
124.57
111.47
96.50
80.83
65.66
52.23
41.87
35.79
34.83
39.07
47.59
58.53
69.60
78.78
84.94
87.94
88.30
86.55
82.93
77.31
69.64
60.41
50.70
41.80
34.64
29.47
25.86
23.20
21.18
19.85
19.48
20.06
20.98
21.08
19.08
14.08
6.03
-4.22
-15.24
-25.58
-34.28
-41.17
-46.86
-52.43
-59.10
-67.94
-79.56
-93.82
-109.69
-125.07
-136.93
-141.93
-137.25
-121.67
-96.08
-63.42
-27.78
6.77
37.26
62.21
81.45
95.53
105.12
110.80
113.10
112.68
110.40
107.11
103.47
99.73
95.87
91.74
87.31
82.88
78.92
75.94
74.25
73.65
73.47
72.56
69.69
63.84
54.65
42.49
28.48
14.13
0.79
-10.70
-20.40
-29.17
-38.43
-49.52
-62.99
-78.03
-92.25
-102.11
-103.83
-94.69
-74.04
-43.78
-7.89
28.65
61.27
86.89
104.40
114.40
118.49
118.56
116.21
112.63
108.74
105.28
102.88
101.96
102.62
104.63
107.66
111.57
116.39
122.06
127.94
132.41
132.90
126.61
111.48
87.17
55.40
19.49
-16.68
-49.82
-77.91
-100.45
-118.15
-132.56
-145.61
-159.33
-175.11
-192.94
-210.69
-224.04
-227.57
-216.73
-189.79
-148.90
-99.59
-48.95
-3.29
33.53
60.51
78.72
90.01
95.92
97.39
95.06
89.73
82.60
75.16
68.70
63.92
60.69
58.23
55.54
51.90
47.25
42.36
38.50
36.89
37.99
41.06
44.17
44.84
40.92
31.61
17.81
1.85
-13.47
-25.98
-34.95
-41.32
-47.03
-54.27
-64.52
-78.06
-93.61
-108.55
-119.29
-122.17
-114.40
-95.10
-65.62
-29.31
9.54
47.06
80.85
110.23
135.66
157.48
175.06
186.40
188.75
179.88
159.33
129.00
92.95
56.39
24.30
0.30
-13.94
-18.55
-14.94
-5.03
9.24
26.19
44.28
62.02
77.67
89.39
95.54
95.17
88.54
77.13
63.35
49.63
37.64
27.71
18.85
9.37
-2.32
-16.95
-33.92
-51.24
-66.01
-75.16
-76.18
-67.94
-50.98
-27.41
-0.38
26.77
51.28
71.33
86.13
95.65
100.16
100.01
95.55
87.36
76.43
64.18
52.15
41.48
32.40
24.00
14.69
2.99
-11.55
-27.96
-44.04
-57.28
-65.93
-69.65
-69.47
-67.18
-64.43
-62.26
-60.91
-60.38
-60.71
-62.41
-66.21
-72.82
-82.49
-94.89
-109.23
-124.50
-139.73
-153.88
-165.65
-173.24
-174.44
-167.30
-150.91
-126.22
-96.14
-64.85
-36.60
-14.42
0.57
9.06
12.73
13.36
12.22
9.99
7.11
4.04
1.38
-0.40
-1.21
-1.52
-2.03
-3.25
-5.16
-7.11
-8.31
-8.29
-7.37
-6.60
-7.42
-11.00
-17.75
-27.19
-38.10
-49.01
-58.61
-66.21
-71.86
-76.45
-81.33
-87.90
-96.86
-107.59
-117.96
-124.63
-124.09
-113.90
-93.71
-65.40
-32.66
0.22
29.54
52.89
69.43
79.47
83.94
83.88
80.31
74.17
66.50
58.36
50.74
44.29
39.16
34.96
31.12
27.18
23.17
19.58
17.12
16.22
16.68
17.58
17.53
15.27
10.12
2.22
-7.47
-17.62
-26.97
-34.73
-40.91
-46.17
-51.65
-58.57
-67.87
-79.71
-93.10
-105.78
-114.41
-115.47
-106.32
-86.25
-56.99
-22.40
12.69
43.78
67.87
83.85
92.20
94.11
90.84
83.42
72.83
60.40
47.82
36.87
28.74
23.66
20.71
18.33
15.07
10.29
4.39
-1.51
-6.18
-8.97
-10.08
-10.46
-11.45
-14.16
-19.10
-25.99
-33.80
-41.16
-46.80
-49.99
-50.83
-50.33
-50.15
-52.24
-58.22
-68.63
-82.40
-96.74
-107.55
-110.64
-103.12
-84.59
-57.41
-25.97
4.71
30.47
49.01
59.86
63.78
61.94
55.41
45.09
32.04
17.70
3.73
-8.24
-17.24
-23.07
-26.37
-28.11
-29.27
-30.50
-32.04
-33.74
-35.18
-35.86
-35.44
-33.97
-31.98
-30.47
-30.56
-33.03
-37.95
-44.59
-51.58
-57.48
-61.17
-62.21
-61.02
-58.73
-56.95
-57.22
-60.41
-65.97
-71.58
-73.42
-67.24
-49.81
-20.24
19.38
64.58
109.72
149.60
180.69
201.55
212.51
214.93
210.46
200.61
186.55
169.17
149.24
127.49
104.73
82.12
61.37
44.78
34.85
33.38
40.43
53.62
68.35
79.11
81.26
72.69
54.33
29.48
2.44
-23.02
-44.49
-61.10
-73.12
-81.57
-87.92
-94.06
-102.12
-113.82
-129.58
-147.60
-163.71
-172.20
-167.77
-147.64
-112.97
-68.69
-21.83
20.92
55.20
79.58
94.84
102.41
103.25
97.67
85.99
69.47
50.55
32.33
17.46
7.27
1.40
-1.64
-3.63
-5.77
-8.35
-10.97
-13.22
-15.19
-17.78
-22.35
-30.00
-40.89
-54.14
-68.06
-80.80
-90.88
-97.40
-99.99
-98.91
-95.10
-90.25
-86.38
-84.99
-86.04
-87.61
-86.39
-79.19
-64.37
-42.55
-16.11
11.92
38.98
63.37
83.92
99.59
109.30
112.48
109.50
101.89
91.95
82.00
73.74
68.05
65.18
65.01
67.24
71.36
76.52
81.62
85.45
87.03
85.76
81.57
74.88
66.36
56.75
46.63
36.43
26.42
17.01
8.67
1.85
-3.32
-7.43
-11.57
-16.93
-23.77
-30.87
-35.40
-33.95
-23.91
-4.69
21.87
52.34
82.80
109.78
130.26
141.23
139.66
123.52
93.52
54.17
13.25
-20.68
-41.54
-48.03
-43.68
-34.67
-26.72
-22.87
-23.15
-25.84
-29.28
-32.93
-37.36
-43.44
-51.55
-61.28
-71.63
-81.52
-90.14
-97.29
-103.46
-109.63
-116.98
-126.62
-139.37
-155.56
-174.80
-195.74
-215.78
-231.07
-237.00
-229.43
-206.14
-167.99
-119.02
-65.36
-13.56
31.20
66.00
90.23
104.83
111.53
112.24
108.81
103.09
96.77
91.27
87.38
85.29
84.66
84.97
85.85
87.30
89.55
92.65
96.15
98.78
98.66
93.88
83.22
66.73
45.85
22.93
0.50
-19.50
-36.16
-49.67
-61.03
-71.74
-83.41
-97.36
-113.94
-131.93
-148.10
-157.78
-156.10
-139.93
-109.37
-68.12
-22.45
20.87
56.61
82.33
98.25
106.17
108.15
105.64
99.37
89.73
77.28
62.86
47.65
32.95
20.13
10.56
5.54
6.13
12.77
24.93
40.86
57.86
72.84
83.09
87.04
84.51
76.48
64.54
50.28
34.82
18.81
2.44
-14.36
-31.78
-49.79
-67.84
-84.39
-96.84
-102.00
-97.08
-80.96
-55.01
-22.93
10.22
39.70
62.32
77.00
84.36
85.86
83.07
77.38
70.06
62.49
55.91
51.18
48.35
46.63
44.84
42.06
38.17
33.90
30.33
28.22
27.36
26.59
24.13
18.51
9.13
-3.45
-17.81
-32.35
-45.93
-58.40
-70.56
-83.90
-100.12
-120.66
-146.14
-175.78
-206.94
-235.09
-254.55
-260.01
-248.32
-219.81
-178.39
-130.38
-82.51
-40.05
-5.83
19.53
36.83
47.26
51.92
51.97
49.03
45.36
43.57
45.97
53.62
66.01
81.07
95.96
108.04
115.72
118.80
118.19
115.15
110.64
104.83
97.25
87.18
74.30
58.99
42.27
25.45
9.56
-5.12
-19.15
-33.77
-50.28
-69.35
-90.52
-111.98
-130.85
-143.99
-148.84
-144.04
-129.64
-106.69
-76.75
-41.43
-2.33
38.75
79.49
117.11
148.82
172.47
187.19
193.50
193.08
188.07
180.57
172.08
163.46
154.95
146.47
137.83
128.95
119.90
110.89
102.11
93.59
85.05
75.81
64.88
51.26
34.34
14.34
-7.58
-29.47
-49.22
-65.40
-77.83
-87.72
-97.16
-108.30
-122.50
-139.64
-158.01
-174.48
-185.27
-186.84
-176.88
-155.02
-122.95
-84.13
-42.82
-3.19
31.47
59.14
79.01
91.23
96.65
96.55
92.41
85.70
77.59
68.88
60.03
51.31
42.97
35.44
29.28
25.16
23.68
25.13
29.32
35.49
42.25
47.94
51.10
50.92
47.62
42.38
36.91
32.64
30.02
28.10
24.74
17.41
4.18
-15.45
-40.32
-67.69
-93.76
-114.26
-125.18
-123.49
-107.93
-79.51
-41.44
1.44
43.83
81.12
110.20
129.70
139.55
140.39
133.28
119.62
101.30
80.83
61.08
44.55
32.78
25.86
22.43
20.27
17.13
11.43
2.67
-8.56
-20.96
-32.98
-43.22
-50.87
-55.79
-58.68
-60.80
-63.55
-67.95
-74.27
-82.01
-90.27
-98.35
-106.11
-114.01
-122.68
-132.28
-141.99
-150.00
-153.87
-151.46
-141.70
-124.93
-102.83
-77.69
-51.67
-26.30
-2.46
19.27
38.23
53.49
64.12
69.67
70.55
68.00
63.73
59.27
55.58
52.88
50.84
48.98
46.90
44.41
41.47
38.01
33.85
28.66
21.99
13.49
2.94
-9.52
-23.40
-37.79
-51.39
-62.83
-70.99
-75.52
-77.18
-77.81
-79.86
-85.46
-95.42
-108.64
-122.22
-132.37
-135.67
-130.21
-116.06
-94.93
-69.44
-42.21
-15.49
9.00
29.99
46.66
58.72
66.54
71.06
73.49
74.86
75.74
76.18
75.94
74.77
72.59
69.61
66.20
62.82
59.94
57.92
56.88
56.57
56.35
55.30
52.45
47.13
39.18
29.00
17.43
5.43
-6.20
-17.17
-27.75
-38.75
-51.13
-65.59
-82.02
-99.18
-114.64
-125.21
-127.64
-119.54
-100.12
-70.57
-33.81
6.07
44.90
79.24
107.01
127.54
141.22
149.01
152.00
151.20
147.62
142.26
136.09
129.89
124.07
118.67
113.56
108.70
104.42
101.38
100.30
101.51
104.68
108.70
112.03
113.18
111.22
106.19
98.98
90.88
82.85
74.99
66.34
55.20
39.87
19.39
-5.98
-34.51
-63.18
-88.06
-104.89
-109.89
-100.65
-76.89
-40.83
3.20
49.63
92.92
128.57
153.58
166.43
166.67
154.70
131.55
98.93
59.23
15.41
-29.22
-71.41
-108.34
-138.04
-159.60
-173.34
-180.57
-183.23
-183.34
-182.65
-182.40
-183.47
-186.50
-191.87
-199.52
-208.74
-218.08
-225.75
-230.28
-231.12
-229.00
-225.68
-223.48
-224.36
-229.14
-236.89
-244.85
-248.80
-244.19
-227.52
-197.51
-155.77
-106.23
-54.06
-4.05
40.37
77.35
106.26
127.04
139.86
145.25
144.36
139.03
131.60
124.17
118.10
113.77
110.79
108.52
106.54
104.83
103.67
103.36
103.84
104.56
104.50
102.32
96.78
87.09
73.22
55.94
36.67
17.00
-1.73
-18.92
-34.79
-50.18
-65.99
-82.48
-98.72
-112.40
-120.33
-119.31
-107.25
-83.90
-51.03
-11.96
29.23
68.57
102.80
129.54
147.44
156.22
156.75
150.97
141.54
131.20
122.19
115.78
112.12
110.57
109.90
108.69
105.63
99.77
90.94
79.89
67.98
56.35
45.07
32.48
15.78
-7.80
-39.36
-77.39
-118.00
-156.36
-188.45
-212.38
-228.75
-239.74
-247.82
-254.51
-259.70
-261.89
-258.79
-248.21
-228.82
-200.66
-165.19
-124.94
-83.02
-42.53
-6.19
23.88
46.28
60.45
66.64
65.98
60.39
52.20
43.82
37.25
33.67
33.27
35.37
38.75
42.20
44.97
46.89
48.36
49.84
51.49
52.93
53.24
51.45
46.83
39.39
29.79
19.23
8.93
-0.20
-7.90
-14.57
-21.07
-28.41
-37.35
-48.01
-59.55
-70.15
-77.20
-77.95
-70.36
-53.91
-30.03
-1.86
26.57
51.56
70.60
82.89
88.99
90.18
87.77
82.80
76.15
68.74
61.72
56.29
53.31
53.01
54.93
58.27
62.26
66.49
70.82
75.11
78.87
81.19
80.84
76.71
68.29
55.89
40.65
24.24
8.41
-5.50
-16.76
-25.39
-32.02
-37.68
-43.57
-50.77
-59.83
-70.45
-81.21
-89.60
-92.64
-87.73
-73.57
-50.82
-21.97
9.33
39.35
65.13
85.03
98.62
106.42
109.45
108.97
106.32
102.82
99.59
97.28
96.00
95.33
94.68
93.71
92.64
92.31
93.69
97.40
103.17
109.79
115.42
118.31
117.51
113.23
106.91
100.81
97.42
98.44
103.83
111.10
115.51
111.33
93.98
62.38
20.12
-25.18
-64.25
-89.28
-96.41
-86.36
-63.42
-33.56
-2.69
24.32
43.85
53.45
51.87
39.19
16.79
-12.98
-47.35
-83.54
-118.85
-150.27
-174.30
-187.38
-186.93
-172.56
-146.49
-113.17
-77.89
-45.58
-20.11
-4.29
-0.09
-8.51
-28.97
-58.72
-92.86
-125.42
-151.23
-167.69
-175.47
-177.91
-179.55
-184.47
-195.17
-212.19
-234.05
-257.43
-277.66
-289.51
-288.45
-272.05
-240.87
-198.38
-149.98
-101.38
-57.19
-20.04
9.37
31.73
48.35
60.57
69.50
76.05
80.97
84.89
88.30
91.52
94.66
97.65
100.32
102.56
104.39
105.98
107.53
109.10
110.35
110.52
108.46
103.05
93.64
80.43
64.52
47.59
31.35
16.95
4.66
-6.13
-16.64
-28.23
-41.92
-57.87
-75.10
-91.30
-103.24
-107.44
-101.28
-83.89
-56.67
-22.92
13.04
47.12
76.40
99.45
116.19
127.22
133.41
135.60
134.65
131.55
127.48
123.64
121.02
120.15
120.95
122.83
124.93
126.54
127.22
126.92
125.71
123.45
119.56
112.92
102.30
86.80
66.48
42.52
17.08
-7.29
-28.45
-45.23
-57.67
-66.91
-74.73
-83.02
-93.14
-105.46
-118.96
-131.23
-138.94
-138.73
-128.28
-107.27
-77.63
-43.05
-7.93
23.82
49.68
68.70
81.13
87.84
89.72
87.56
82.13
74.38
65.53
56.91
49.57
43.99
39.95
36.73
33.58
30.11
26.38
22.75
19.47
16.26
12.31
6.54
-1.83
-12.80
-25.51
-38.46
-50.14
-59.59
-66.74
-72.31
-77.54
-83.74
-91.84
-102.06
-113.73
-125.09
-133.44
-135.70
-129.18
-112.54
-86.43
-53.50
-17.68
16.90
46.97
70.66
87.51
98.04
103.26
104.37
102.56
99.04
94.95
91.23
88.42
86.64
85.58
84.76
83.67
82.06
79.83
77.06
73.79
69.87
64.88
58.27
49.57
38.73
26.26
13.08
0.23
-11.66
-22.68
-33.70
-45.98
-60.58
-77.66
-96.04
-113.17
-125.55
-129.72
-123.26
-105.70
-78.75
-45.91
-11.47
20.65
47.74
68.55
83.00
91.51
94.57
92.63
86.37
76.98
66.27
56.25
48.61
44.09
42.40
42.46
43.04
43.22
42.71
41.71
40.67
39.88
39.26
38.41
36.79
33.99
29.95
24.99
19.72
14.87
11.00
8.40
6.91
5.85
4.14
0.60
-5.41
-13.43
-21.53
-26.85
-26.61
-19.60
-7.11
7.25
18.83
23.80
20.57
10.22
-4.36
-19.94
-34.19
-46.16
-55.93
-63.84
-69.89
-73.69
-74.75
-72.98
-68.97
-63.96
-59.40
-56.40
-55.30
-55.61
-56.36
-56.65
-56.28
-55.97
-57.12
-61.17
-68.81
-79.54
-91.87
-103.82
-113.89
-121.58
-127.65
-133.64
-141.22
-151.42
-164.13
-177.93
-190.27
-197.81
-197.15
-185.69
-162.45
-128.63
-87.51
-43.71
-1.98
33.94
62.06
81.98
94.48
100.81
102.18
99.69
94.54
87.96
81.23
75.26
70.39
66.39
62.72
58.91
54.90
51.01
47.69
45.16
43.18
41.00
37.67
32.44
25.05
15.91
5.83
-4.23
-13.60
-22.11
-30.18
-38.67
-48.51
-60.44
-74.46
-89.55
-103.51
-113.23
-115.47
-107.82
-89.59
-62.33
-29.42
4.81
36.29
62.16
81.23
93.68
100.53
103.00
102.16
98.87
93.91
88.05
82.06
76.59
72.04
68.53
66.01
64.39
63.64
63.84
65.02
67.01
69.40
71.55
72.72
72.24
69.65
64.76
57.58
48.23
36.92
23.80
9.07
-6.99
-23.82
-40.35
-54.86
-65.01
-68.28
-62.64
-47.34
-23.43
6.33
38.15
68.24
93.76
113.37
127.02
135.45
139.60
140.27
138.14
133.98
128.72
123.43
119.02
115.86
113.63
111.21
106.93
99.00
86.05
67.60
44.29
17.68
-10.29
-37.87
-63.89
-87.78
-109.31
-128.22
-144.24
-157.23
-167.58
-176.50
-185.81
-197.37
-212.21
-229.80
-247.72
-261.95
-267.77
-261.05
-239.58
-203.93
-157.51
-105.77
-54.86
-10.17
24.78
48.70
62.24
67.22
65.90
60.44
52.74
44.46
37.06
31.73
29.25
29.80
32.85
37.41
42.34
46.77
50.28
52.88
54.75
55.89
56.04
54.68
51.37
46.05
39.07
30.97
22.20
12.73
2.10
-10.34
-24.95
-41.34
-58.10
-72.93
-82.96
-85.45
-78.56
-62.01
-37.39
-7.94
22.19
49.11
70.18
84.59
93.21
97.80
100.04
100.94
100.63
98.81
95.36
90.67
85.67
81.44
78.71
77.60
77.63
77.94
77.60
75.83
72.08
66.12
58.12
48.57
38.17
27.50
16.73
5.53
-6.87
-21.34
-38.36
-57.68
-77.99
-97.03
-111.90
-119.69
-118.33
-107.21
-87.63
-62.52
-35.67
-10.74
9.69
24.46
33.64
38.06
38.78
36.91
33.60
30.06
27.49
26.83
28.42
31.86
36.14
39.97
42.30
42.56
40.72
37.17
32.50
27.33
22.23
17.52
13.18
8.69
3.16
-4.35
-14.28
-25.94
-37.42
-45.86
-48.23
-42.17
-26.73
-2.53
28.38
62.92
97.54
128.72
153.56
170.23
178.27
178.52
172.66
162.63
150.08
136.07
121.08
105.17
88.12
69.57
49.37
27.95
6.73
-11.82
-24.80
-30.01
-27.06
-17.99
-6.94
1.24
2.55
-4.81
-20.11
-40.52
-62.25
-81.76
-96.63
-106.13
-111.09
-113.66
-116.74
-123.35
-135.87
-155.20
-180.10
-206.80
-229.48
-241.61
-237.83
-215.91
-177.75
-128.99
-77.17
-29.38
9.78
38.87
58.99
72.35
80.94
85.86
87.48
85.94
81.51
74.61
65.58
54.58
41.61
26.92
11.16
-4.67
-19.48
-32.52
-43.53
-52.73
-60.57
-67.62
-74.46
-81.72
-89.91
-99.27
-109.46
-119.57
-128.53
-135.65
-141.34
-147.29
-155.93
-169.22
-187.33
-207.72
-225.31
-233.78
-227.46
-203.31
-161.91
-107.47
-46.57
13.63
67.05
109.82
140.56
159.90
169.67
172.03
168.87
161.64
151.48
139.50
126.90
114.93
104.57
96.37
90.25
85.71
82.03
78.58
74.90
70.75
65.97
60.35
53.51
45.01
34.33
21.17
5.47
-12.50
-32.33
-53.54
-75.51
-97.14
-116.43
-130.30
-135.11
-127.77
-107.05
-74.46
-34.15
8.19
46.95
78.12
99.98
112.83
118.06
117.18
111.26
100.96
86.90
70.18
52.52
35.99
22.52
13.22
8.08
6.04
5.45
4.70
2.75
-0.71
-5.43
-10.96
-17.02
-23.60
-30.94
-39.45
-49.52
-61.62
-76.19
-93.42
-112.65
-131.81
-147.28
-154.39
-148.88
-128.55
-94.38
-50.59
-3.47
40.58
76.75
102.68
118.29
124.78
123.67
116.24
103.64
87.23
68.93
51.01
35.62
24.08
16.52
11.90
8.59
5.12
0.75
-4.30
-9.25
-13.27
-16.09
-18.20
-20.78
-25.22
-32.80
-44.31
-59.83
-78.52
-98.48
-116.69
-129.42
-132.96
-124.70
-104.08
-72.93
-35.12
4.51
41.44
72.37
95.56
110.50
117.41
116.79
109.40
96.45
79.78
61.85
45.23
32.02
23.19
18.44
16.42
15.39
13.91
11.29
7.70
3.77
0.11
-3.20
-6.77
-11.78
-19.59
-31.20
-46.90
-65.85
-86.00
-104.13
-116.40
-119.18
-110.05
-88.70
-57.21
-19.62
19.15
54.54
83.42
104.25
116.83
121.59
119.13
110.12
95.61
77.26
57.38
38.53
22.78
11.17
3.50
-1.40
-5.03
-8.55
-12.35
-16.18
-19.61
-22.47
-25.31
-29.25
-35.71
-45.95
-60.54
-79.06
-99.82
-119.85
-135.15
-141.53
-135.65
-116.29
-84.99
-45.88
-4.57
33.47
64.30
86.19
99.26
104.64
103.61
97.15
86.18
71.89
56.09
40.99
28.63
20.17
15.49
13.42
12.24
10.55
7.77
4.19
0.58
-2.42
-4.82
-7.40
-11.48
-18.46
-29.32
-44.25
-62.35
-81.52
-98.53
-109.50
-110.81
-100.13
-77.43
-45.25
-8.09
28.81
60.94
85.56
101.88
110.48
112.47
108.75
100.00
86.97
70.97
54.02
38.48
26.45
19.07
16.17
16.46
18.09
19.36
19.16
17.28
14.06
10.10
5.87
1.48
-3.31
-9.10
-16.65
-26.79
-40.00
-56.08
-73.55
-89.43
-99.49
-99.20
-85.18
-56.59
-15.88
31.65
79.29
120.84
152.23
172.16
181.76
183.45
179.74
172.39
162.34
149.96
135.59
119.79
103.43
87.56
73.22
61.37
52.68
47.16
43.59
39.38
30.83
14.29
-12.26
-48.16
-89.79
-131.73
-168.54
-196.73
-215.53
-226.69
-233.31
-238.45
-243.93
-249.78
-254.10
-253.54
-244.12
-222.51
-187.34
-140.11
-85.15
-28.62
23.09
65.08
94.91
112.62
120.00
119.63
114.05
105.50
95.74
86.12
77.58
70.57
65.19
61.25
58.50
56.70
55.71
55.24
54.74
53.38
50.16
44.28
35.45
24.08
11.17
-2.01
-14.29
-25.03
-34.29
-42.82
-51.82
-62.37
-74.81
-88.13
-99.81
-106.31
-104.06
-90.95
-67.32
-36.20
-2.43
28.81
53.56
69.85
77.81
78.90
75.02
67.91
58.93
49.16
39.52
30.81
23.56
18.05
14.29
12.14
11.50
12.34
14.59
17.88
21.43
24.02
24.28
21.03
13.74
2.70
-11.07
-26.09
-40.94
-54.63
-66.83
-77.95
-88.99
-101.13
-115.10
-130.46
-145.09
-155.21
-156.28
-144.48
-118.28
-79.33
-32.29
16.47
60.68
95.77
119.61
132.31
135.44
131.11
121.51
108.78
95.01
82.11
71.56
63.96
58.95
55.44
52.24
48.70
45.04
42.02
40.29
39.56
38.30
34.07
24.51
8.56
-12.82
-36.76
-59.51
-77.74
-89.78
-96.04
-98.60
-100.26
-103.60
-110.17
-120.16
-132.28
-143.78
-150.83
-149.30
-135.91
-109.47
-71.68
-26.92
18.92
60.07
92.34
113.89
124.96
127.14
122.53
113.17
100.90
87.37
74.05
62.12
52.33
44.91
39.64
36.08
33.79
32.54
32.15
32.34
32.52
31.69
28.74
22.81
13.71
2.02
-11.01
-23.96
-35.85
-46.39
-56.15
-66.22
-77.74
-91.32
-106.62
-122.03
-134.70
-141.12
-137.87
-122.80
-95.89
-59.60
-18.33
22.66
58.69
86.72
105.67
116.10
119.41
117.15
110.63
100.98
89.37
77.21
66.03
57.21
51.55
48.97
48.64
49.30
49.74
49.32
47.99
46.20
44.34
42.35
39.55
34.84
27.26
16.50
3.18
-11.36
-25.52
-38.03
-48.38
-56.89
-64.46
-72.31
-81.54
-92.92
-106.48
-121.20
-134.68
-143.32
-143.07
-130.56
-104.51
-66.43
-20.57
27.26
71.24
107.09
132.89
148.94
156.94
158.96
156.65
151.07
142.97
133.16
122.82
113.38
106.07
101.43
99.00
97.54
95.54
91.92
86.43
79.53
71.97
64.08
55.51
45.30
32.35
15.93
-4.06
-27.07
-52.13
-78.07
-103.59
-127.35
-148.03
-164.63
-176.83
-185.27
-191.53
-197.67
-205.39
-215.10
-225.29
-232.49
-232.02
-219.35
-191.71
-149.32
-95.78
-37.15
19.60
68.45
105.75
130.58
144.12
148.66
146.47
139.32
128.49
115.31
101.39
88.71
79.15
73.87
72.86
74.97
78.30
80.96
81.70
80.14
76.69
72.08
66.86
61.14
54.54
46.41
36.23
23.87
9.69
-5.48
-20.67
-34.94
-47.67
-58.67
-68.15
-76.74
-85.29
-94.86
-106.41
-120.47
-136.64
-153.11
-166.63
-173.00
-168.26
-150.04
-118.62
-77.17
-30.94
14.18
53.32
83.57
104.17
115.97
120.53
119.52
114.39
106.44
96.89
87.04
77.99
70.60
65.31
62.15
60.87
61.08
62.25
63.77
64.95
65.13
63.79
60.62
55.51
48.39
39.17
27.76
14.20
-1.15
-17.47
-33.65
-48.62
-61.74
-73.01
-83.05
-92.87
-103.48
-115.61
-129.39
-144.13
-158.16
-168.79
-172.74
-166.85
-149.14
-119.57
-80.40
-35.86
8.93
49.19
81.48
104.25
117.68
123.09
122.25
116.88
108.43
98.10
87.05
76.40
67.13
59.91
54.83
51.51
49.22
47.21
44.97
42.27
39.17
35.81
32.23
28.17
23.14
16.41
7.34
-4.35
-18.34
-33.70
-49.07
-63.12
-75.06
-84.86
-93.36
-101.95
-112.09
-124.76
-139.90
-156.03
-170.19
-178.39
-176.57
-161.82
-133.59
-94.06
-47.83
-0.61
42.20
76.75
101.24
115.75
121.52
120.36
114.13
104.59
93.39
82.06
71.83
63.47
57.22
52.86
49.87
47.81
46.45
45.79
45.89
46.56
47.12
46.41
43.12
36.31
25.90
12.71
-1.69
-15.58
-27.72
-37.76
-46.36
-54.93
-65.06
-77.79
-93.04
-109.11
-122.75
-129.82
-126.42
-110.27
-81.59
-43.34
-0.45
41.55
77.84
105.33
122.88
130.90
130.71
124.10
112.86
98.70
83.21
67.67
53.02
39.76
28.07
17.93
9.35
2.45
-2.62
-5.92
-7.84
-9.26
-11.31
-15.13
-21.38
-30.02
-40.26
-50.85
-60.45
-68.19
-73.78
-77.73
-81.20
-85.69
-92.62
-102.75
-115.51
-128.60
-138.15
-139.44
-128.33
-102.65
-63.26
-14.07
38.89
89.15
131.48
163.01
183.48
194.53
198.63
198.03
194.29
188.40
181.19
173.63
166.61
160.32
153.71
144.69
130.93
111.04
85.56
56.71
27.56
0.52
-23.46
-44.99
-65.26
-84.97
-103.68
-119.97
-132.36
-140.20
-144.28
-146.56
-149.56
-155.34
-164.78
-177.17
-190.24
-200.73
-205.12
-200.55
-185.45
-159.97
-125.93
-86.39
-45.00
-5.29
29.82
58.24
78.73
90.76
94.47
90.65
80.82
67.11
52.09
38.22
27.35
20.35
16.99
16.26
16.95
18.14
19.36
20.51
21.45
21.70
20.37
16.42
9.15
-1.50
-14.85
-29.66
-44.50
-58.16
-69.96
-79.92
-88.78
-97.87
-108.74
-122.59
-139.33
-157.02
-171.82
-178.88
-173.81
-154.39
-121.53
-79.14
-32.87
11.65
50.30
81.02
103.57
118.67
127.25
130.12
128.02
122.03
113.60
104.50
96.29
89.97
85.64
82.70
80.19
77.37
74.01
70.38
66.97
64.04
61.29
57.80
52.30
43.63
31.30
15.68
-1.94
-19.68
-35.72
-48.80
-58.68
-66.25
-73.22
-81.65
-93.17
-108.27
-125.66
-142.26
-153.68
-155.33
-143.96
-118.81
-82.16
-38.67
5.95
46.61
79.96
104.69
121.09
130.13
132.83
130.02
122.55
111.59
98.75
85.91
74.75
66.36
61.00
58.19
57.02
56.59
56.32
56.04
55.76
55.35
54.25
51.55
46.28
37.85
26.48
13.25
-0.25
-12.46
-22.41
-30.07
-36.34
-42.70
-50.73
-61.49
-75.10
-90.40
-104.91
-115.25
-117.75
-109.52
-89.44
-58.72
-20.79
19.54
57.43
89.25
113.26
129.58
139.48
144.46
145.59
143.27
137.60
128.79
117.55
105.01
92.35
80.40
69.41
59.25
49.82
41.41
34.69
30.34
28.51
28.36
28.15
25.82
19.70
9.12
-5.40
-22.53
-40.68
-58.54
-75.47
-91.57
-107.62
-124.65
-143.39
-163.54
-183.20
-198.88
-206.07
-200.63
-180.23
-145.46
-99.98
-49.55
-0.42
42.41
76.04
99.86
114.74
122.17
123.55
120.13
113.14
104.14
94.82
86.72
80.65
76.37
72.72
68.21
61.77
53.25
43.59
34.38
27.19
22.89
21.24
20.99
20.31
17.43
11.24
1.59
-10.77
-24.55
-38.41
-51.33
-62.99
-73.67
-84.24
-95.87
-109.66
-126.20
-145.05
-164.24
-180.26
-188.55
-184.74
-166.04
-132.49
-87.34
-36.28
14.18
58.50
93.44
118.33
134.54
144.27
149.60
151.92
151.96
150.23
147.40
144.46
142.62
142.81
145.21
148.79
151.28
149.62
140.91
123.39
97.22
64.67
29.52
-4.04
-32.51
-54.00
-68.28
-76.43
-80.13
-81.16
-81.08
-81.30
-83.04
-87.27
-94.45
-104.41
-116.39
-129.49
-142.98
-156.63
-170.43
-183.91
-195.41
-201.88
-199.31
-184.23
-155.16
-113.68
-64.34
-13.48
32.70
69.80
96.06
112.17
120.12
122.16
120.01
114.80
107.40
98.78
90.09
82.43
76.53
72.52
70.04
68.50
67.39
66.37
65.24
63.85
62.02
59.52
56.12
51.66
45.99
38.94
30.29
19.86
7.64
-6.05
-20.46
-34.58
-47.41
-58.35
-67.35
-75.02
-82.42
-90.83
-101.36
-114.49
-129.68
-144.91
-156.75
-160.99
-153.82
-133.23
-99.96
-57.52
-11.29
33.09
71.13
100.34
120.15
131.29
135.08
132.94
126.33
116.84
106.21
96.19
88.16
82.81
79.90
78.31
76.49
72.98
67.04
58.90
49.61
40.56
32.72
26.26
20.37
13.68
4.86
-6.70
-20.60
-35.53
-49.84
-62.17
-72.01
-79.84
-86.88
-94.61
-104.17
-115.97
-129.30
-142.28
-151.87
-154.47
-146.74
-126.76
-94.97
-54.37
-9.91
32.95
69.79
98.28
118.31
131.33
139.12
142.90
143.03
139.42
132.18
122.19
111.21
101.29
94.07
90.00
88.25
87.13
84.92
80.65
74.50
67.61
61.28
56.27
52.23
47.77
41.07
30.63
15.95
-2.40
-22.94
-43.81
-63.06
-78.97
-90.27
-96.49
-98.36
-98.00
-98.49
-102.70
-111.88
-124.67
-137.20
-144.50
-142.51
-129.72
-107.59
-79.80
-50.55
-23.15
0.63
20.33
36.03
47.68
54.92
57.38
55.27
49.64
42.20
34.85
29.05
25.48
23.94
23.70
23.83
23.63
22.74
21.16
19.07
16.60
13.62
9.67
4.00
-4.08
-14.91
-28.12
-42.52
-56.43
-68.21
-76.81
-82.26
-85.62
-88.68
-93.35
-101.15
-112.63
-127.12
-142.45
-155.03
-160.48
-154.59
-134.69
-100.69
-55.53
-4.45
46.31
91.30
127.01
152.25
167.71
175.02
175.99
172.12
164.66
154.83
143.98
133.55
124.78
118.36
114.22
111.59
109.36
106.54
102.65
97.83
92.61
87.49
82.56
77.28
70.68
61.85
50.31
36.52
21.71
7.55
-4.48
-13.66
-20.39
-26.12
-32.97
-43.18
-58.41
-79.24
-104.81
-132.72
-159.32
-180.49
-192.63
-193.67
-183.63
-164.63
-140.08
-113.60
-88.13
-65.42
-46.13
-30.34
-17.94
-8.92
-3.26
-0.69
-0.56
-1.78
-3.23
-4.02
-3.74
-2.39
-0.29
2.34
5.48
9.37
14.32
20.27
26.63
32.14
35.24
34.49
29.17
19.60
7.10
-6.42
-19.10
-29.75
-38.19
-45.22
-52.26
-60.82
-71.91
-85.49
-100.01
-112.40
-118.49
-114.09
-96.40
-65.20
-23.35
23.78
69.71
108.72
137.11
153.71
159.43
156.26
146.37
131.64
113.80
94.56
75.81
59.40
46.74
38.38
33.76
31.59
30.30
28.73
26.44
23.74
21.13
18.86
16.56
13.15
7.34
-1.87
-14.71
-30.39
-47.34
-63.72
-78.00
-89.42
-98.23
-105.53
-112.98
-122.28
-134.73
-150.52
-168.26
-184.81
-195.61
-195.69
-181.23
-150.99
-107.10
-54.72
-0.67
48.50
88.10
116.16
133.09
140.81
141.60
137.42
129.74
119.73
108.60
97.61
88.05
80.78
76.07
73.50
72.18
71.14
69.59
67.19
63.97
60.18
55.96
51.16
45.34
37.82
27.95
15.43
0.45
-16.32
-33.75
-50.61
-65.91
-79.11
-90.34
-100.30
-110.16
-121.19
-134.35
-149.69
-165.90
-180.08
-188.01
-185.23
-168.40
-136.74
-92.66
-41.38
10.53
56.98
93.81
119.47
134.58
141.01
140.89
136.04
127.88
117.65
106.60
95.98
86.92
80.17
75.92
73.80
72.92
72.23
70.81
68.15
64.29
59.64
54.61
49.31
43.33
35.83
26.02
13.50
-1.40
-17.67
-33.93
-48.94
-61.96
-72.90
-82.34
-91.23
-100.74
-111.96
-125.59
-141.40
-157.88
-171.96
-179.43
-175.97
-158.59
-126.90
-83.59
-33.88
15.92
60.14
95.02
119.18
133.17
138.61
137.36
131.15
121.52
110.03
98.35
88.09
80.43
75.84
73.98
73.88
74.35
74.37
73.31
70.94
67.34
62.68
57.05
50.44
42.66
33.44
22.55
9.97
-4.00
-18.71
-33.39
-47.33
-60.19
-72.04
-83.38
-94.93
-107.38
-121.04
-135.51
-149.34
-160.20
-165.30
-162.15
-149.36
-127.09
-97.07
-62.14
-25.44
10.12
42.44
70.22
92.86
110.28
122.46
129.35
130.78
126.62
117.10
102.94
85.34
65.68
45.39
25.78
8.19
-6.01
-15.55
-19.80
-19.15
-15.26
-10.67
-7.99
-9.03
-14.24
-22.88
-33.41
-44.29
-54.46
-63.61
-72.21
-81.28
-92.01
-105.20
-120.60
-136.48
-149.55
-155.59
-150.58
-132.17
-100.67
-59.24
-13.05
32.20
71.75
102.70
124.12
136.51
140.99
138.85
131.36
119.93
106.23
92.07
79.03
68.08
59.45
52.67
47.08
42.16
37.84
34.35
31.94
30.45
29.05
26.43
21.03
11.79
-1.56
-18.27
-36.75
-55.07
-71.56
-85.38
-96.59
-106.30
-116.13
-127.71
-141.91
-158.15
-173.99
-185.34
-187.34
-175.89
-149.21
-108.77
-59.12
-6.74
41.88
81.84
110.76
128.64
137.06
138.25
134.35
127.12
117.90
107.74
97.42
87.51
78.37
70.25
63.39
58.04
54.39
52.37
51.51
50.89
49.29
45.49
38.56
28.29
15.14
0.21
-15.24
-30.12
-43.93
-57.00
-70.36
-85.40
-103.05
-122.94
-142.80
-158.42
-164.67
-157.13
-133.86
-96.46
-49.91
-1.04
43.42
78.69
102.84
116.43
121.49
120.33
114.74
105.84
94.42
81.35
67.78
55.12
44.67
37.23
32.80
30.61
29.37
27.80
25.01
20.70
15.07
8.53
1.40
-6.32
-14.86
-24.62
-35.96
-49.29
-65.00
-83.21
-103.33
-123.46
-140.20
-149.09
-145.94
-128.36
-96.99
-55.68
-10.41
32.54
68.33
94.58
111.27
119.77
121.81
118.67
111.13
99.84
85.75
70.39
55.63
43.23
34.25
28.73
25.75
23.85
21.60
18.11
13.20
7.24
0.71
-6.17
-13.60
-22.10
-32.21
-44.33
-58.67
-75.26
-93.77
-113.21
-131.43
-145.00
-149.79
-142.25
-120.90
-87.30
-45.97
-3.07
35.49
65.68
86.11
97.50
101.71
100.54
95.27
86.70
75.60
63.14
50.78
40.02
31.93
26.89
24.60
24.37
25.38
26.85
28.07
28.38
27.14
23.87
18.39
10.91
1.99
-7.75
-17.95
-28.82
-41.14
-55.79
-73.10
-92.13
-110.19
-123.25
-126.94
-118.11
-96.04
-63.07
-23.95
15.53
50.25
77.01
94.86
104.55
107.66
105.74
99.91
91.01
79.90
67.68
55.71
45.26
37.23
31.82
28.63
26.75
25.14
22.88
19.36
14.34
7.84
0.12
-8.54
-17.92
-27.88
-38.51
-50.03
-62.90
-77.57
-94.21
-112.24
-129.95
-144.35
-151.72
-148.59
-132.93
-105.11
-68.02
-26.34
14.69
50.70
78.97
98.62
110.14
114.85
114.36
110.26
104.10
97.23
90.73
85.18
80.72
77.16
74.22
71.73
69.71
68.27
67.45
66.94
66.10
63.93
59.43
51.93
41.33
28.28
14.06
0.12
-12.38
-23.07
-32.67
-42.78
-55.35
-71.78
-92.04
-114.15
-134.43
-148.38
-152.15
-143.75
-123.97
-96.06
-64.75
-34.82
-9.82
8.56
20.32
26.53
28.57
27.62
24.68
20.63
16.41
12.98
11.10
11.13
12.89
15.75
18.82
21.28
22.61
22.62
21.48
19.50
16.90
13.67
9.48
3.78
-3.95
-13.88
-25.69
-38.49
-51.11
-62.46
-71.91
-79.43
-85.73
-91.98
-99.58
-109.62
-122.36
-136.67
-149.86
-157.97
-156.77
-143.12
-116.12
-77.60
-31.74
16.08
60.78
98.55
127.39
146.88
157.72
161.17
158.76
152.16
143.05
133.01
123.31
114.79
107.87
102.62
98.92
96.48
94.87
93.51
91.61
88.35
83.07
75.47
65.71
54.31
41.99
29.26
16.39
3.36
-9.94
-23.54
-37.23
-50.58
-63.11
-74.45
-84.47
-93.39
-101.80
-110.57
-120.80
-133.45
-148.87
-166.16
-182.69
-194.29
-196.17
-184.46
-157.69
-117.67
-69.10
-18.26
28.90
68.17
97.67
117.58
129.14
133.91
133.34
128.82
121.75
113.62
105.83
99.36
94.71
91.84
90.46
90.17
90.67
91.69
92.85
93.49
92.73
89.67
83.72
74.97
64.36
53.40
43.70
36.23
30.93
26.69
21.77
14.46
3.69
-10.74
-27.98
-46.20
-62.79
-74.92
-80.48
-79.10
-72.51
-64.05
-57.14
-53.51
-52.30
-50.44
-44.44
-32.34
-14.93
4.65
22.52
35.86
43.95
47.84
49.21
49.15
47.66
43.95
37.38
28.20
17.70
7.87
0.48
-3.58
-4.47
-3.19
-0.97
1.20
2.84
3.84
4.27
4.08
3.04
0.79
-3.07
-8.84
-16.52
-25.85
-36.22
-46.84
-56.90
-65.75
-73.12
-79.20
-84.50
-89.76
-95.77
-103.18
-112.22
-122.47
-132.67
-140.70
-143.98
-140.12
-127.65
-106.56
-78.32
-45.57
-11.45
21.03
49.42
72.01
87.96
97.21
100.45
98.96
94.36
88.24
81.88
76.09
71.26
67.56
65.09
63.99
64.39
66.24
69.14
72.31
74.68
75.14
72.84
67.38
58.96
48.23
36.06
23.36
10.73
-1.64
-13.97
-26.68
-40.12
-54.24
-68.45
-81.78
-93.21
-102.14
-108.75
-114.13
-120.01
-128.29
-140.25
-155.85
-173.18
-188.45
-196.65
-192.87
-173.95
-139.65
-93.12
-40.09
12.75
59.60
96.75
122.98
138.95
146.33
147.06
142.91
135.54
126.56
117.45
109.36
102.90
98.07
94.41
91.43
88.83
86.71
85.34
84.87
84.99
84.86
83.28
79.05
71.51
60.78
47.74
33.64
19.60
6.10
-7.05
-20.55
-35.11
-50.88
-67.29
-83.15
-97.13
-108.30
-116.64
-123.05
-129.22
-137.13
-148.23
-162.75
-179.07
-193.50
-200.96
-196.29
-175.88
-139.23
-89.45
-32.69
23.52
72.37
109.46
133.60
146.39
151.09
151.21
149.47
147.32
145.07
142.41
138.89
134.27
128.62
122.19
115.25
107.99
100.54
92.92
85.21
77.45
69.56
61.32
52.30
42.00
29.94
15.91
-0.00
-17.36
-35.43
-53.36
-70.31
-85.64
-99.02
-110.56
-120.81
-130.73
-141.54
-154.33
-169.54
-186.38
-202.43
-213.78
-215.81
-204.53
-178.06
-137.58
-87.34
-33.58
17.16
59.80
91.63
112.38
123.47
127.03
125.14
119.49
111.48
102.31
93.13
84.88
78.28
73.61
70.76
69.25
68.46
67.75
66.57
64.57
61.51
57.24
51.68
44.69
36.12
25.84
13.83
0.27
-14.39
-29.44
-43.99
-57.22
-68.51
-77.76
-85.31
-92.03
-99.07
-107.69
-118.94
-133.24
-149.85
-166.47
-179.21
-183.28
-174.32
-149.90
-110.71
-60.71
-6.18
46.07
90.46
123.84
145.68
157.31
160.98
158.91
152.88
144.21
134.04
123.42
113.39
104.76
98.00
93.09
89.64
87.04
84.67
82.07
78.99
75.31
70.94
65.68
59.19
51.00
40.61
27.70
12.32
-5.01
-23.35
-41.51
-58.37
-73.28
-86.17
-97.61
-108.60
-120.33
-133.76
-149.36
-166.69
-184.11
-198.77
-206.90
-204.64
-189.26
-160.16
-119.50
-71.79
-22.76
22.15
59.09
86.38
104.29
114.25
118.01
117.11
112.79
106.20
98.59
91.29
85.50
81.88
80.36
80.28
80.72
81.05
81.13
81.39
82.41
84.41
86.93
88.79
88.43
84.62
76.93
66.02
53.35
40.58
28.93
18.72
9.30
-0.68
-12.76
-28.08
-46.94
-68.35
-89.92
-108.03
-118.54
-117.83
-104.11
-78.31
-44.16
-7.37
25.95
51.00
65.35
69.16
64.55
54.40
41.39
27.43
13.73
1.21
-9.18
-16.30
-19.14
-17.20
-10.80
-1.10
10.13
20.97
29.65
34.73
35.24
30.59
20.57
5.42
-14.20
-37.24
-62.34
-87.98
-112.60
-134.76
-153.29
-167.56
-177.60
-184.20
-188.80
-193.21
-199.08
-207.23
-217.15
-226.66
-232.28
-229.99
-216.41
-189.88
-151.09
-103.06
-50.41
1.71
48.70
87.29
115.85
134.30
143.73
145.91
142.93
136.87
129.62
122.72
117.15
113.30
110.90
109.19
107.26
104.41
100.37
95.45
90.21
85.10
80.17
74.83
67.99
58.57
45.89
30.18
12.67
-4.77
-20.26
-32.60
-41.84
-49.26
-56.93
-66.92
-80.43
-97.07
-114.61
-129.39
-137.16
-134.29
-118.91
-91.60
-55.40
-15.11
24.09
57.86
83.64
100.85
110.43
114.09
113.58
110.26
105.08
98.74
91.89
85.23
79.39
74.81
71.59
69.45
67.86
66.27
64.30
61.88
59.15
56.30
53.23
49.39
43.84
35.59
24.07
9.42
-7.38
-24.84
-41.49
-56.34
-69.18
-80.57
-91.62
-103.58
-117.51
-133.79
-151.76
-169.52
-183.95
-191.31
-188.21
-172.63
-144.76
-107.19
-64.23
-20.78
18.95
52.22
77.94
96.23
107.82
113.63
114.64
112.04
107.30
102.09
97.84
95.35
94.61
94.96
95.56
95.92
96.09
96.50
97.52
99.07
100.43
100.41
97.80
91.86
82.55
70.54
56.93
42.94
29.52
17.25
6.18
-4.13
-14.60
-26.49
-40.85
-58.06
-77.32
-96.58
-113.08
-124.19
-128.40
-125.81
-117.95
-107.03
-95.14
-83.55
-72.66
-62.35
-52.37
-42.74
-33.81
-26.00
-19.59
-14.51
-10.38
-6.71
-3.17
0.23
3.09
4.88
5.18
3.96
1.56
-1.61
-5.35
-10.06
-16.57
-25.80
-38.36
-54.14
-72.33
-91.68
-110.96
-129.40
-146.84
-163.75
-180.98
-199.51
-220.10
-242.93
-267.14
-290.57
-309.87
-321.12
-321.12
-308.49
-284.45
-252.63
-217.94
-184.88
-156.11
-131.84
-110.25
-88.65
-64.71
-37.32
-6.64
26.26
60.04
93.53
125.78
156.12
183.87
208.57
230.19
249.53
268.09
287.36
307.64
326.95
340.91
344.05
332.14
304.54
265.20
221.64
182.18
152.82
135.37
127.51
124.43
121.15
113.89
100.49
80.15
53.13
20.90
-13.55
-45.70
-70.27
-82.54
-79.90
-62.78
-34.53
-0.32
34.32
64.90
88.70
104.83
113.76
116.53
114.20
107.52
97.08
83.68
68.68
54.19
42.83
37.03
38.13
45.58
56.62
66.71
70.96
65.71
49.94
25.53
-3.54
-32.78
-58.79
-80.09
-97.01
-110.69
-122.30
-132.43
-141.28
-149.04
-156.13
-162.94
-169.18
-173.29
-172.31
-162.47
-140.42
-104.76
-57.05
-1.86
54.35
105.07
145.51
173.40
188.81
193.10
187.84
174.34
153.90
128.34
100.41
73.47
50.73
34.31
24.75
21.13
21.54
23.60
24.81
22.91
16.14
3.79
-13.62
-34.30
-55.70
-75.28
-91.45
-104.06
-114.46
-124.90
-137.59
-153.82
-173.36
-194.43
-214.13
-229.38
-237.73
-238.09
-230.99
-218.30
-202.62
-186.58
-172.29
-161.10
-153.71
-150.34
-150.85
-154.85
-161.67
-170.36
-179.88
-189.30
-198.00
-205.51
-211.27
-214.28
-213.04
-205.90
-191.60
-169.88
-141.62
-108.70
-73.45
-38.26
-5.28
23.72
47.27
64.17
73.73
75.98
72.09
64.37
56.14
51.06
52.31
61.70
79.23
103.16
130.56
158.28
183.71
205.19
221.85
233.31
239.26
239.50
234.09
223.62
209.36
193.02
176.39
160.89
147.26
135.53
125.25
115.82
106.73
97.66
88.47
79.11
69.50
59.54
49.08
37.90
25.75
12.32
-2.74
-19.61
-38.11
-57.33
-75.53
-90.29
-98.99
-99.49
-90.85
-73.69
-50.06
-22.93
4.68
30.34
52.56
70.69
84.63
94.48
100.36
102.44
101.18
97.37
92.16
86.71
81.92
78.18
75.21
72.38
68.98
64.62
59.39
53.77
48.31
43.34
38.70
33.79
27.76
19.83
9.61
-2.71
-16.24
-29.35
-39.93
-45.75
-45.01
-36.84
-21.66
-1.14
22.29
46.05
68.04
86.94
102.11
113.22
119.91
121.76
118.45
110.15
97.77
82.91
67.52
53.32
41.43
32.07
24.76
18.71
13.23
7.97
2.99
-1.51
-5.37
-8.69
-11.91
-15.64
-20.57
-27.26
-36.02
-46.71
-58.60
-70.25
-79.59
-84.26
-82.23
-72.49
-55.50
-33.12
-8.13
16.55
38.59
56.64
70.29
79.68
85.20
87.18
85.97
82.00
75.92
68.60
60.98
53.85
47.71
42.70
38.61
35.03
31.52
27.71
23.38
18.47
13.05
7.24
1.13
-5.26
-12.10
-19.68
-28.42
-38.72
-50.81
-64.44
-78.68
-91.76
-101.35
-104.99
-100.95
-88.75
-69.53
-45.73
-20.34
3.83
24.87
41.87
54.70
63.62
68.93
70.93
70.01
66.75
61.98
56.60
51.39
46.81
42.93
39.51
36.13
32.39
28.05
23.06
17.60
11.90
6.13
0.35
-5.59
-11.94
-19.04
-27.21
-36.74
-47.71
-59.78
-72.05
-82.93
-90.30
-92.08
-86.90
-74.65
-56.63
-35.22
-13.19
7.04
23.91
36.81
45.87
51.57
54.47
55.12
53.99
51.50
48.08
44.14
40.11
36.39
33.39
31.38
30.49
30.61
31.58
33.28
35.68
38.75
42.20
45.26
46.68
45.12
39.60
29.86
16.56
1.00
-15.02
-29.55
-40.54
-46.14
-45.05
-37.00
-23.02
-5.35
13.16
29.91
43.31
52.94
59.17
62.62
63.62
62.19
58.29
52.15
44.51
36.51
29.38
23.99
20.63
18.97
18.26
17.74
16.85
15.54
14.09
12.82
11.63
9.89
6.49
0.29
-9.30
-22.10
-37.24
-53.58
-70.01
-85.55
-99.06
-109.01
-113.52
-110.85
-100.18
-82.11
-58.73
-32.98
-7.83
14.58
33.04
47.05
56.35
60.70
59.85
53.76
42.84
28.00
10.75
-7.03
-23.23
-35.88
-43.49
-45.42
-41.92
-33.95
-22.95
-10.27
2.95
15.85
27.90
38.72
48.25
56.79
65.01
73.69
83.45
94.43
106.08
117.36
127.11
134.61
140.08
144.87
151.16
161.27
176.83
197.87
222.61
247.56
268.20
280.07
279.84
266.17
239.97
204.22
162.92
120.10
78.62
39.75
3.12
-32.70
-69.35
-107.78
-147.44
-185.98
-219.66
-244.37
-257.07
-257.03
-246.22
-228.63
-208.54
-188.71
-169.31
-148.20
-122.51
-90.57
-53.45
-15.25
17.96
39.95
46.11
34.54
6.41
-34.19
-80.63
-124.45
-156.61
-169.45
-159.01
-126.55
-78.56
-24.56
26.10
67.15
96.62
115.92
127.59
133.36
133.58
128.07
117.50
104.04
90.57
79.28
70.53
62.75
53.67
41.92
28.07
14.50
4.05
-1.51
-2.46
-0.97
0.06
-1.64
-6.97
-15.34
-25.38
-35.79
-46.00
-56.28
-67.36
-79.73
-93.00
-105.73
-115.78
-121.02
-120.22
-113.59
-102.84
-90.61
-79.72
-72.33
-69.44
-70.82
-75.09
-80.15
-83.67
-83.69
-79.18
-70.38
-58.70
-46.18
-34.86
-26.09
-20.35
-17.34
-16.28
-16.35
-16.88
-17.56
-18.38
-19.63
-21.67
-24.70
-28.54
-32.54
-35.78
-37.37
-36.82
-34.19
-30.14
-25.67
-22.07
-20.65
-22.47
-27.90
-36.12
-44.85
-50.80
-50.60
-42.21
-25.94
-4.77
16.43
32.30
38.66
33.68
18.27
-4.52
-30.55
-55.77
-77.21
-93.25
-103.53
-108.38
-108.39
-104.19
-96.57
-86.69
-76.11
-66.60
-59.48
-55.18
-53.06
-51.95
-50.73
-49.05
-47.48
-47.18
-49.21
-53.95
-60.87
-68.81
-76.49
-82.94
-87.75
-91.12
-93.69
-96.41
-100.26
-105.85
-112.93
-120.00
-124.32
-122.54
-111.76
-90.77
-60.62
-24.53
13.12
48.02
76.98
98.38
111.92
118.20
118.20
113.03
103.92
92.31
79.75
67.77
57.55
49.66
44.10
40.40
37.94
36.12
34.59
33.08
31.36
29.09
25.79
20.96
14.32
5.94
-3.69
-13.79
-23.58
-32.59
-40.74
-48.54
-56.74
-66.01
-76.39
-86.96
-95.74
-100.15
-97.78
-87.24
-68.80
-44.41
-17.14
9.68
33.32
52.06
65.21
72.81
75.27
73.25
67.64
59.71
50.95
42.85
36.45
32.10
29.40
27.57
25.85
23.95
22.08
20.68
20.03
19.89
19.37
17.30
12.68
5.14
-4.87
-16.22
-27.57
-37.82
-46.44
-53.62
-60.12
-66.94
-75.00
-84.71
-95.61
-106.22
-114.07
-116.25
-110.15
-94.45
-69.63
-38.04
-3.23
30.91
61.13
85.32
102.58
113.04
117.42
116.83
112.52
105.80
97.95
90.01
82.74
76.45
71.04
66.13
61.26
56.17
50.91
45.85
41.47
38.01
35.25
32.45
28.69
23.32
16.30
8.32
0.53
-5.99
-10.80
-14.43
-18.45
-24.90
-35.64
-51.37
-71.04
-91.63
-108.74
-117.82
-115.63
-101.42
-77.29
-47.44
-16.84
10.33
31.60
46.31
54.98
58.48
57.55
52.73
44.78
35.01
25.16
17.02
11.69
9.29
9.00
9.60
10.04
9.87
9.16
8.15
6.75
4.45
0.46
-5.89
-14.71
-25.40
-36.85
-47.83
-57.35
-64.97
-70.84
-75.62
-80.31
-86.08
-93.92
-104.21
-116.13
-127.47
-134.80
-134.34
-123.28
-100.89
-69.03
-31.73
6.07
40.00
67.30
87.08
99.77
106.44
108.08
105.53
99.51
90.97
81.13
71.32
62.71
56.00
51.40
48.70
47.55
47.58
48.48
49.93
51.43
52.30
51.67
48.84
43.53
36.13
27.60
19.15
11.78
5.84
0.84
-4.32
-11.01
-20.18
-31.85
-44.76
-56.49
-63.93
-64.13
-55.03
-36.30
-9.52
21.93
53.66
81.22
101.09
111.50
112.57
106.06
94.61
80.91
67.07
54.39
43.38
34.16
26.77
21.24
17.73
16.32
16.94
19.41
23.33
28.10
32.86
36.46
37.51
34.56
26.48
12.82
-6.00
-28.75
-53.73
-79.30
-104.36
-128.59
-152.30
-175.90
-199.14
-220.42
-236.65
-243.68
-237.62
-216.21
-180.00
-132.58
-79.72
-27.86
17.54
53.14
77.98
92.99
100.04
101.22
98.35
92.85
85.83
78.13
70.55
63.79
58.63
55.86
56.09
59.51
65.62
73.09
79.96
84.05
83.47
77.19
65.30
48.98
30.26
11.45
-5.43
-19.19
-29.77
-38.19
-46.16
-55.28
-66.20
-77.96
-87.98
-92.71
-88.80
-74.36
-49.69
-17.38
18.44
53.22
83.13
105.77
120.35
127.38
128.17
124.32
117.40
108.80
99.69
90.99
83.34
77.06
72.12
68.12
64.39
60.19
54.86
48.14
40.14
31.37
22.50
14.14
6.56
-0.46
-7.53
-15.49
-25.10
-36.82
-50.40
-64.86
-78.39
-88.58
-92.91
-89.44
-77.45
-57.74
-32.64
-5.29
21.04
43.77
61.45
73.65
80.68
83.12
81.55
76.48
68.51
58.48
47.52
36.91
27.82
20.90
16.20
13.11
10.67
7.85
3.96
-1.17
-7.19
-13.49
-19.49
-24.91
-29.98
-35.36
-41.91
-50.42
-61.18
-73.68
-86.35
-96.63
-101.38
-97.73
-84.00
-60.49
-29.62
4.64
37.85
66.28
87.64
101.18
107.26
106.74
100.62
89.83
75.49
58.97
41.87
25.77
11.87
0.70
-7.91
-14.59
-20.30
-25.89
-31.97
-38.76
-46.14
-53.72
-61.06
-67.85
-73.98
-79.64
-85.31
-91.68
-99.54
-109.62
-122.19
-136.71
-151.49
-163.58
-169.32
-165.34
-149.69
-122.78
-87.39
-48.02
-9.61
23.80
49.81
67.78
78.39
82.86
82.49
78.48
71.94
64.00
55.84
48.48
42.53
38.23
35.45
33.90
33.21
33.03
32.91
32.21
30.21
26.11
19.48
10.30
-0.89
-13.11
-25.25
-36.43
-46.29
-55.17
-64.04
-74.06
-86.00
-99.56
-112.88
-122.82
-125.64
-118.24
-99.33
-70.03
-33.76
4.71
40.52
69.95
91.04
103.64
108.86
108.39
103.88
96.66
87.67
77.61
67.20
57.18
48.37
41.45
36.75
34.18
33.12
32.66
31.79
29.72
26.02
20.67
13.92
6.08
-2.60
-12.04
-22.19
-33.06
-44.68
-57.14
-70.56
-84.82
-99.09
-111.41
-118.74
-117.68
-105.72
-82.38
-49.88
-12.61
24.13
55.75
79.45
94.47
101.60
102.31
98.10
90.25
79.95
68.41
56.91
46.54
38.00
31.48
26.77
23.48
21.27
19.92
19.18
18.62
17.54
15.08
10.56
3.74
-5.02
-14.88
-24.90
-34.42
-43.33
-52.10
-61.50
-72.35
-84.98
-98.85
-112.25
-122.29
-125.41
-118.42
-99.61
-69.56
-31.28
10.61
51.20
86.52
114.21
133.47
144.45
147.65
143.59
132.98
117.13
98.07
78.39
60.53
46.19
35.84
28.81
23.93
20.17
17.13
15.02
14.16
14.38
14.71
13.61
9.61
1.90
-9.14
-22.16
-35.31
-47.07
-56.74
-64.65
-71.92
-79.96
-89.96
-102.59
-117.63
-133.71
-148.36
-158.14
-159.33
-149.03
-126.14
-92.11
-50.76
-7.28
33.12
66.58
91.21
107.00
115.14
117.21
114.68
108.75
100.47
90.93
81.35
72.96
66.66
62.78
60.88
59.95
58.78
56.50
52.86
48.30
43.56
39.11
34.76
29.61
22.49
12.57
-0.09
-14.57
-29.33
-42.96
-54.65
-64.43
-72.98
-81.23
-90.17
-100.57
-112.90
-127.09
-142.20
-156.06
-165.37
-166.42
-156.27
-133.98
-101.24
-62.01
-21.39
15.81
46.22
68.37
82.36
89.26
90.48
87.46
81.45
73.67
65.25
57.30
50.86
46.73
45.32
46.42
49.30
52.84
55.99
58.17
59.29
59.60
59.23
57.96
55.22
50.41
43.36
34.58
25.05
15.83
7.51
0.03
-7.24
-15.11
-24.25
-34.88
-46.70
-58.83
-69.94
-78.28
-82.01
-79.53
-69.96
-53.54
-31.90
-7.74
15.73
35.64
50.28
59.32
63.58
64.40
62.95
59.83
55.12
48.81
41.22
33.19
25.85
20.17
16.59
14.89
14.34
14.15
13.69
12.75
11.39
9.80
8.08
6.10
3.47
-0.35
-5.88
-13.37
-22.66
-33.10
-43.80
-53.86
-62.77
-70.50
-77.48
-84.46
-92.33
-101.86
-113.56
-127.22
-141.56
-154.02
-160.98
-158.69
-144.58
-118.32
-82.28
-40.92
0.60
37.83
68.08
90.55
105.72
114.64
118.35
117.66
113.44
106.73
98.80
90.98
84.34
79.40
76.16
74.13
72.61
70.95
68.75
65.91
62.54
58.80
54.71
50.03
44.28
36.91
27.55
16.22
3.43
-9.98
-23.07
-35.11
-45.80
-55.29
-64.05
-72.80
-82.32
-93.34
-106.27
-120.73
-135.21
-146.85
-151.96
-147.05
-130.12
-101.50
-64.05
-22.39
18.41
54.15
82.24
101.81
113.35
118.01
117.14
112.03
103.87
93.84
83.15
73.00
64.41
58.02
53.92
51.67
50.46
49.50
48.27
46.58
44.49
42.07
39.21
35.61
30.82
24.44
16.19
6.04
-5.79
-18.77
-32.20
-45.28
-57.37
-68.18
-77.87
-87.06
-96.66
-107.59
-120.49
-135.31
-150.95
-165.09
-174.38
-175.21
-164.74
-142.00
-108.46
-67.79
-24.87
15.52
49.81
76.17
94.24
104.65
108.43
106.82
101.15
93.01
84.05
75.75
69.11
64.43
61.42
59.44
57.93
56.63
55.60
55.01
54.92
55.03
54.65
52.93
49.09
42.75
34.14
24.00
13.39
3.35
-5.45
-12.88
-19.42
-26.06
-33.97
-44.06
-56.29
-69.14
-79.55
-83.65
-78.02
-61.25
-34.82
-2.81
29.39
57.00
77.31
90.03
96.59
98.83
97.90
94.00
86.86
76.55
63.88
50.10
36.08
21.92
6.99
-9.05
-25.17
-38.49
-45.07
-41.67
-27.67
-5.92
18.17
38.61
51.08
53.98
48.17
35.58
18.01
-3.25
-27.02
-51.65
-74.97
-95.05
-111.28
-124.99
-138.83
-155.38
-175.40
-196.89
-215.37
-225.40
-222.44
-204.46
-172.73
-131.31
-85.79
-41.64
-2.92
28.33
51.88
68.60
79.57
85.65
87.43
85.62
81.33
76.12
71.64
69.06
68.70
69.95
71.65
72.68
72.36
70.67
68.01
64.82
61.23
56.84
50.87
42.46
31.13
17.09
1.30
-14.75
-29.54
-42.11
-52.44
-61.49
-70.92
-82.35
-96.67
-113.29
-129.90
-142.83
-148.00
-142.18
-124.13
-95.15
-58.75
-19.62
17.71
49.92
75.32
93.65
105.43
111.50
112.70
109.88
104.06
96.43
88.34
80.98
75.24
71.55
69.84
69.71
70.50
71.55
72.29
72.34
71.53
69.72
66.70
62.12
55.58
46.72
35.48
22.21
7.69
-7.00
-20.83
-33.10
-43.73
-53.26
-62.76
-73.51
-86.53
-102.08
-119.17
-135.43
-147.36
-151.13
-143.79
-124.30
-94.15
-57.06
-17.88
18.74
49.49
72.92
89.18
99.35
104.79
106.71
106.11
103.91
100.99
98.12
95.79
94.15
92.93
91.72
90.06
87.66
84.30
79.85
74.25
67.52
59.81
51.32
42.22
32.42
21.54
9.13
-5.00
-20.43
-36.17
-50.90
-63.52
-73.66
-81.85
-89.27
-97.38
-107.42
-120.01
-134.87
-150.57
-164.53
-173.33
-173.44
-162.26
-139.04
-105.34
-64.77
-21.99
18.51
53.46
81.21
101.60
115.39
123.64
127.40
127.65
125.44
121.98
118.63
116.62
116.78
119.27
123.56
128.65
133.51
137.37
139.88
141.15
141.38
140.77
139.27
136.61
132.36
125.93
116.65
103.79
86.85
65.71
40.94
13.78
-14.18
-41.50
-67.22
-91.05
-112.99
-132.77
-149.53
-161.76
-167.83
-166.68
-158.45
-144.60
-127.47
-109.56
-92.71
-77.73
-64.41
-52.02
-39.84
-27.58
-15.44
-3.87
6.81
16.67
26.21
36.08
46.79
58.37
70.35
81.93
92.23
100.65
106.92
111.10
113.37
113.81
112.21
108.25
101.72
92.75
82.07
70.68
59.47
48.87
38.66
28.27
17.17
5.43
-6.28
-16.93
-25.67
-32.30
-37.43
-42.23
-47.95
-55.39
-64.43
-73.86
-81.47
-84.59
-80.84
-68.95
-49.45
-24.66
1.89
26.41
45.89
58.75
64.81
64.94
60.49
52.81
43.03
32.14
21.05
10.59
1.52
-5.63
-10.71
-13.91
-15.66
-16.54
-16.92
-16.99
-16.84
-16.59
-16.72
-18.02
-21.37
-27.26
-35.52
-45.26
-55.21
-64.26
-71.85
-78.12
-83.66
-89.04
-94.41
-99.45
-103.48
-105.93
-106.62
-105.92
-104.72
-104.09
-104.95
-107.64
-111.58
-115.18
-115.99
-111.38
-99.23
-78.81
-51.19
-19.04
14.00
44.35
69.39
87.90
100.02
106.91
110.22
111.68
112.86
114.94
118.56
123.71
129.80
135.91
141.19
145.25
148.32
151.14
154.56
159.05
164.25
168.85
170.67
167.14
155.96
135.78
106.82
70.98
31.47
-7.98
-44.28
-75.73
-102.30
-125.18
-145.91
-165.44
-183.77
-200.16
-213.68
-223.93
-231.15
-236.04
-239.07
-240.08
-238.28
-232.67
-222.85
-209.33
-193.37
-176.28
-158.80
-140.80
-121.77
-101.57
-80.89
-61.41
-44.99
-33.04
-25.94
-23.20
-23.75
-26.46
-30.14
-33.43
-34.62
-31.90
-23.93
-10.54
7.01
26.14
43.81
57.33
65.08
66.85
63.78
57.94
51.69
47.11
45.40
46.70
50.17
54.50
58.43
61.19
62.59
62.74
61.64
58.95
54.16
47.01
38.09
29.05
22.52
21.47
28.28
44.01
67.79
96.86
126.99
153.39
171.70
178.90
173.77
156.93
130.53
97.49
60.98
23.89
-11.35
-42.88
-69.37
-89.99
-104.49
-113.10
-116.52
-115.84
-112.27
-106.99
-100.87
-94.39
-87.72
-81.00
-74.59
-69.12
-65.36
-63.68
-63.70
-64.34
-64.21
-62.31
-58.59
-53.93
-49.73
-47.24
-47.08
-49.19
-53.08
-58.12
-63.47
-67.94
-69.72
-66.62
-56.84
-39.77
-16.62
9.75
35.73
58.04
74.69
85.17
90.19
90.90
88.45
83.70
77.35
70.15
62.97
56.67
51.90
48.87
47.27
46.41
45.40
43.39
39.81
34.47
27.66
20.00
12.20
4.80
-1.99
-8.35
-14.61
-21.03
-27.47
-33.50
-38.47
-41.93
-43.88
-44.91
-45.94
-47.85
-51.00
-55.02
-58.75
-60.45
-58.20
-50.50
-36.77
-17.69
4.81
27.99
48.97
65.46
76.20
80.98
80.24
74.60
64.65
51.07
34.87
17.57
1.02
-13.05
-23.59
-30.45
-34.11
-35.27
-34.38
-31.59
-27.00
-21.04
-14.61
-8.95
-5.04
-3.14
-2.72
-2.71
-2.22
-1.01
0.32
0.58
-1.40
-6.30
-14.04
-23.80
-34.22
-43.49
-49.48
-50.07
-43.63
-29.72
-9.50
14.31
38.16
58.76
73.99
83.20
86.82
85.63
80.18
70.80
57.93
42.58
26.38
11.27
-1.17
-10.13
-15.75
-18.73
-19.99
-20.22
-19.80
-18.93
-17.80
-16.65
-15.82
-15.55
-15.99
-17.07
-18.72
-20.79
-23.30
-26.25
-29.59
-33.01
-35.83
-37.12
-35.90
-31.53
-24.04
-14.22
-3.49
6.41
14.03
18.47
19.61
17.98
14.43
9.85
4.90
-0.03
-4.71
-8.97
-12.56
-15.23
-16.84
-17.40
-17.21
-16.67
-16.20
-16.07
-16.30
-16.73
-17.20
-17.62
-18.01
-18.57
-19.48
-20.92
-22.98
-25.75
-29.18
-33.04
-36.78
-39.37
-39.52
-35.83
-27.48
-14.54
1.72
19.13
35.15
47.62
55.41
58.50
57.76
54.37
49.30
43.09
35.98
28.19
20.11
12.44
5.89
1.03
-1.97
-3.34
-3.57
-3.29
-3.06
-3.36
-4.54
-6.69
-9.74
-13.32
-16.95
-20.16
-22.73
-24.75
-26.61
-28.92
-32.16
-36.43
-41.13
-45.01
-46.33
-43.38
-35.01
-21.11
-2.88
17.38
36.81
52.79
63.61
68.80
68.96
65.36
59.36
52.06
44.24
36.49
29.33
23.21
18.41
14.88
12.27
10.06
7.93
5.81
3.96
2.66
1.99
1.66
1.02
-0.60
-3.61
-7.93
-13.04
-18.22
-22.80
-26.44
-29.14
-31.27
-33.39
-36.11
-39.87
-44.72
-50.07
-54.58
-56.34
-53.31
-44.07
-28.47
-8.00
14.54
35.82
53.00
64.46
70.04
70.71
67.93
63.02
56.93
50.12
42.93
35.72
28.94
23.09
18.54
15.44
13.61
12.68
12.12
11.43
10.22
8.34
5.86
2.98
-0.08
-3.31
-6.83
-10.90
-15.72
-21.21
-27.03
-32.57
-37.20
-40.53
-42.53
-43.55
-44.12
-44.80
-45.98
-47.88
-50.60
-53.95
-57.44
-60.02
-60.18
-56.19
-46.72
-31.53
-11.82
9.86
30.40
47.07
58.35
64.25
65.85
64.65
61.78
57.75
52.63
46.52
39.85
33.46
28.23
24.68
22.82
22.20
22.18
22.23
22.09
21.65
20.96
19.98
18.68
16.97
14.69
11.71
7.90
3.24
-2.04
-7.51
-12.62
-16.88
-20.16
-22.68
-24.95
-27.54
-30.85
-35.01
-39.88
-45.01
-49.60
-52.46
-52.06
-46.97
-36.39
-20.66
-1.40
18.83
37.23
51.58
60.77
64.81
64.46
60.74
54.57
46.69
37.78
28.57
19.89
12.53
7.07
3.71
2.25
2.14
2.63
3.03
2.79
1.71
-0.09
-2.27
-4.48
-6.56
-8.68
-11.26
-14.77
-19.44
-25.10
-31.20
-36.94
-41.62
-44.86
-46.83
-48.11
-49.51
-51.70
-55.06
-59.42
-64.05
-67.65
-68.40
-64.31
-53.73
-36.05
-12.28
14.95
41.94
65.06
81.86
91.64
95.21
94.12
89.81
83.19
74.88
65.50
56.05
47.69
41.27
36.91
34.01
31.58
28.86
25.59
22.03
18.53
15.24
11.84
7.78
2.54
-4.02
-11.52
-19.25
-26.43
-32.54
-37.43
-41.26
-44.32
-46.84
-48.84
-50.20
-50.83
-50.80
-50.47
-50.35
-51.03
-52.97
-56.41
-61.15
-66.46
-70.90
-72.43
-68.85
-58.51
-41.03
-17.79
8.32
33.65
54.91
69.98
78.29
80.55
78.13
72.54
65.06
56.76
48.55
41.20
35.30
31.14
28.56
27.11
26.16
25.18
23.89
22.31
20.70
19.31
18.18
16.96
15.06
11.91
7.19
1.10
-5.71
-12.37
-18.08
-22.43
-25.39
-27.23
-28.33
-29.05
-29.52
-29.77
-29.75
-29.43
-28.93
-28.61
-29.03
-30.81
-34.46
-39.94
-46.47
-52.41
-55.42
-53.09
-43.74
-27.13
-4.87
19.90
43.43
62.48
75.23
81.56
82.56
79.75
74.46
67.49
59.39
50.78
42.53
35.55
30.47
27.30
25.39
23.79
21.70
18.80
15.35
11.90
8.96
6.68
4.63
2.12
-1.53
-6.50
-12.34
-18.05
-22.48
-24.85
-25.10
-23.86
-22.20
-21.10
-21.03
-21.90
-23.18
-24.26
-24.80
-24.83
-24.71
-25.00
-26.23
-28.64
-32.11
-35.86
-38.54
-38.40
-33.80
-23.91
-9.20
8.43
26.11
40.90
50.70
54.97
54.61
51.45
47.25
43.05
39.00
34.70
29.80
24.47
19.44
15.60
13.43
12.69
12.50
11.82
10.10
7.52
4.92
3.21
2.85
3.49
4.14
3.56
0.87
-4.06
-10.60
-17.58
-23.79
-28.43
-31.32
-32.94
-34.11
-35.67
-38.21
-41.83
-46.22
-50.55
-53.57
-53.70
-49.38
-39.58
-24.40
-5.41
14.53
31.97
44.00
49.11
47.57
41.09
31.97
22.25
13.27
5.66
-0.30
-4.34
-6.12
-5.35
-2.18
2.71
8.30
13.45
17.41
19.85
20.93
20.97
20.28
19.07
17.43
15.44
13.10
10.46
7.48
4.10
0.25
-4.15
-9.09
-14.53
-20.39
-26.60
-33.11
-39.95
-47.13
-54.56
-61.74
-67.68
-70.85
-69.44
-62.05
-48.26
-29.11
-6.97
14.99
33.79
47.39
55.07
57.34
55.40
50.64
44.21
36.94
29.48
22.35
16.12
11.16
7.71
5.60
4.33
3.18
1.55
-0.84
-3.80
-6.74
-8.94
-9.99
-10.06
-9.88
-10.46
-12.60
-16.52
-21.79
-27.50
-32.68
-36.68
-39.38
-41.30
-43.35
-46.62
-51.92
-59.41
-68.18
-76.27
-80.99
-79.69
-70.67
-53.92
-31.41
-6.58
16.68
35.26
47.70
54.51
57.56
59.22
61.31
64.49
68.29
71.56
73.07
72.08
68.44
62.62
55.47
47.93
40.91
35.15
31.12
28.96
28.47
29.08
29.92
29.88
27.81
22.90
15.01
4.90
-5.95
-15.76
-23.16
-27.63
-29.58
-30.05
-30.17
-30.89
-32.77
-35.89
-39.82
-43.56
-45.65
-44.43
-38.65
-28.02
-13.51
2.99
19.23
33.40
44.45
52.08
56.43
57.75
56.27
52.34
46.51
39.63
32.66
26.40
21.30
17.35
14.26
11.62
9.18
6.90
4.95
3.57
2.83
2.48
2.01
0.74
-1.88
-6.04
-11.40
-17.28
-22.84
-27.44
-30.83
-33.20
-35.06
-37.10
-39.95
-44.02
-49.19
-54.62
-58.69
-59.31
-54.62
-43.78
-27.38
-7.49
13.03
31.45
45.86
55.52
60.62
61.82
59.85
55.44
49.29
42.22
35.15
28.92
24.10
20.92
19.19
18.49
18.23
17.92
17.31
16.45
15.60
14.98
14.54
13.75
11.79
7.85
1.62
-6.50
-15.50
-24.14
-31.44
-36.99
-41.03
-44.23
-47.49
-51.59
-57.19
-64.52
-73.17
-81.76
-87.97
-89.10
-82.90
-68.68
-47.66
-22.77
2.30
24.20
40.76
51.24
56.11
56.49
53.72
49.06
43.53
37.89
32.64
28.12
24.55
22.14
21.01
21.04
21.80
22.67
23.04
22.61
21.47
19.98
18.44
16.88
15.01
12.39
8.68
3.87
-1.74
-7.73
-13.71
-19.51
-25.05
-30.30
-35.19
-39.66
-43.78
-47.86
-52.43
-57.89
-64.06
-69.92
-73.64
-73.19
-67.11
-55.19
-38.67
-19.84
-1.26
14.98
27.63
36.24
40.79
41.54
38.87
33.37
25.96
17.83
10.24
4.34
0.94
0.37
2.64
7.33
13.79
21.13
28.40
34.68
39.22
41.47
41.20
38.41
33.36
26.60
18.87
10.97
3.62
-2.81
-8.22
-12.86
-17.10
-21.25
-25.42
-29.46
-33.04
-35.85
-37.82
-39.33
-41.14
-44.21
-49.16
-55.83
-62.91
-68.11
-68.56
-61.73
-46.26
-22.47
7.50
40.27
72.04
99.53
120.74
135.12
143.43
147.13
147.69
146.10
142.75
137.54
130.24
120.91
110.02
98.41
86.98
76.25
66.21
56.33
45.92
34.63
22.69
10.78
-0.34
-10.32
-19.37
-28.11
-37.02
-46.02
-54.45
-61.33
-65.85
-67.76
-67.48
-65.85
-63.88
-62.58
-62.87
-65.53
-70.98
-78.89
-87.82
-95.25
-98.00
-93.22
-79.35
-56.84
-28.17
2.86
32.12
56.35
73.76
84.16
88.54
88.39
85.12
79.72
72.77
64.58
55.49
46.04
36.94
28.91
22.41
17.43
13.51
9.89
5.77
0.66
-5.46
-12.20
-18.93
-25.14
-30.56
-35.30
-39.71
-44.21
-49.07
-54.24
-59.52
-64.49
-68.79
-72.18
-74.66
-76.40
-77.76
-79.25
-81.33
-84.34
-88.04
-91.52
-93.04
-90.35
-81.30
-64.72
-41.03
-12.47
17.30
44.35
65.47
79.05
85.22
85.36
81.30
74.53
65.90
55.77
44.49
32.72
21.59
12.35
5.97
2.78
2.24
3.23
4.21
3.74
0.79
-4.97
-12.93
-21.64
-29.06
-33.22
-32.83
-27.82
-19.36
-9.44
-0.16
6.86
10.87
11.94
10.68
7.93
4.41
0.69
-3.03
-7.00
-11.87
-18.51
-27.49
-38.46
-49.71
-58.33
-60.94
-54.92
-39.46
-16.16
11.42
38.77
61.89
78.24
87.19
89.62
87.17
81.60
74.31
66.31
58.37
51.04
44.72
39.48
35.17
31.40
27.82
24.30
20.94
18.05
15.80
14.07
12.33
9.86
6.02
0.54
-6.25
-13.53
-20.33
-25.90
-30.08
-33.30
-36.38
-40.08
-44.73
-49.98
-55.00
-58.79
-60.62
-60.42
-58.87
-57.17
-56.66
-58.28
-62.07
-66.90
-70.55
-70.15
-63.06
-47.91
-25.31
2.09
30.26
55.07
73.46
84.23
87.96
86.28
81.08
73.74
65.09
55.62
45.83
36.43
28.27
22.02
17.88
15.53
14.22
13.09
11.59
9.60
7.49
5.79
4.83
4.48
4.12
2.89
0.03
-4.70
-11.04
-18.24
-25.47
-31.96
-37.24
-41.15
-43.86
-45.73
-47.29
-49.14
-51.68
-55.06
-58.88
-62.17
-63.34
-60.57
-52.24
-37.60
-17.30
6.60
30.95
52.46
68.68
78.64
82.79
82.50
79.15
73.62
66.26
57.26
47.11
36.87
27.83
21.13
17.16
15.53
15.28
15.24
14.49
12.44
8.89
3.93
-2.12
-8.80
-15.61
-22.08
-27.87
-32.79
-36.85
-40.06
-42.46
-44.13
-45.15
-45.73
-46.10
-46.54
-47.36
-48.95
-51.60
-55.40
-59.96
-64.33
-67.07
-66.66
-61.98
-52.66
-39.14
-22.55
-4.36
13.82
30.40
43.93
53.27
57.77
57.50
53.18
46.01
37.32
28.32
19.90
12.61
6.77
2.50
-0.31
-1.92
-2.85
-3.70
-5.01
-7.12
-9.99
-13.21
-16.08
-17.84
-17.93
-16.38
-13.83
-11.35
-10.03
-10.49
-12.55
-15.43
-18.20
-20.34
-22.00
-23.95
-27.12
-32.19
-39.22
-47.53
-55.67
-61.63
-63.16
-58.21
-45.72
-26.10
-1.52
24.52
48.20
66.52
78.08
83.15
83.08
79.43
73.34
65.36
55.88
45.55
35.47
26.97
21.04
17.96
17.18
17.64
18.38
18.85
19.12
19.52
20.40
21.73
23.09
23.77
23.05
20.39
15.51
8.57
0.07
-9.10
-17.88
-25.31
-30.84
-34.48
-36.90
-39.07
-41.98
-46.24
-51.86
-58.16
-63.72
-66.58
-64.58
-56.03
-40.31
-18.36
7.33
33.47
56.91
75.51
88.52
96.30
99.64
99.28
95.67
89.35
81.20
72.64
65.20
59.97
57.00
55.14
52.42
46.86
37.18
23.38
6.68
-10.93
-27.32
-40.80
-50.45
-56.13
-58.27
-57.65
-55.08
-51.26
-46.69
-41.69
-36.50
-31.53
-27.48
-25.36
-26.26
-30.83
-38.71
-48.22
