1540577255.00
64.000000
-0.00
-0.00
-0.00
-0.00
-0.00
-0.00
-0.00
-0.00
-0.00
-0.00
0.00
0.01
0.01
-0.00
-0.03
-0.05
-0.05
0.00
0.13
0.36
0.66
1.01
1.37
1.72
2.06
2.40
2.79
3.24
3.80
4.42
5.06
5.66
6.20
6.68
7.15
7.68
8.31
9.14
10.09
11.04
11.88
12.56
13.14
13.76
14.65
15.96
17.91
20.32
22.90
25.38
27.58
29.57
31.68
34.32
37.81
42.54
48.15
54.10
59.83
64.97
69.58
74.14
79.34
85.71
93.76
103.00
112.62
121.73
129.77
136.75
143.30
150.75
157.77
166.64
177.95
191.79
206.97
220.57
228.25
225.36
208.53
176.87
132.76
80.05
23.07
-34.94
-92.44
-149.16
-205.23
-260.37
-313.74
-363.87
-409.83
-450.91
-486.50
-515.74
-537.23
-549.22
-549.96
-538.37
-514.21
-478.67
-433.88
-382.45
-327.02
-269.84
-212.63
-156.66
-102.95
-52.37
-5.90
35.58
71.43
101.35
125.50
144.38
158.69
169.15
176.37
180.75
182.57
182.07
179.51
175.23
169.65
163.18
156.15
148.81
141.30
133.69
126.02
118.33
110.69
103.16
95.80
88.68
81.83
75.25
68.95
62.95
57.25
51.86
46.78
42.03
37.59
33.45
29.61
26.07
22.81
19.83
17.11
14.67
12.48
10.54
8.83
7.35
6.07
4.97
4.05
3.27
2.62
2.09
1.65
1.30
1.01
0.79
0.61
0.47
0.37
0.29
0.23
0.19
0.17
0.16
0.16
0.17
0.18
0.21
0.24
0.27
0.31
0.35
0.39
0.44
0.49
0.53
0.58
0.63
0.69
0.75
0.81
0.88
0.95
1.04
1.13
1.23
1.35
1.48
1.62
1.79
1.97
2.17
2.39
2.64
2.91
3.21
3.55
3.91
4.31
4.74
5.21
5.71
6.25
6.83
7.46
8.12
8.83
9.59
10.39
11.24
12.13
13.07
14.06
15.11
16.23
17.40
18.64
19.91
21.18
22.39
23.47
24.30
24.77
24.76
24.15
22.87
20.86
18.14
14.77
10.82
6.50
1.99
-2.49
-6.73
-10.53
-13.72
-16.21
-17.91
-18.85
-19.06
-18.67
-17.82
-16.68
-15.38
-14.00
-12.60
-11.17
-9.69
-8.13
-6.53
-4.94
-3.37
-1.85
-0.37
1.14
2.73
4.49
6.46
8.54
10.60
12.56
14.38
16.11
17.88
19.86
22.25
25.17
28.32
31.39
34.14
36.40
38.23
39.89
41.77
44.25
47.57
51.23
54.67
57.37
59.03
59.73
59.92
60.25
61.31
63.43
65.77
67.30
66.97
63.99
58.02
49.02
36.87
20.75
3.74
-13.74
-31.98
-51.71
-73.87
-99.33
-128.47
-160.51
-192.94
-221.56
-242.03
-250.52
-245.34
-227.77
-201.62
-171.76
-142.47
-116.22
-93.54
-74.34
-58.14
-44.62
-33.67
-24.98
-17.77
-10.96
-3.63
4.63
13.23
21.29
27.96
32.87
36.18
38.42
40.19
41.86
43.46
44.64
45.03
44.50
43.20
41.49
39.80
38.35
37.11
35.82
34.11
31.76
28.82
25.64
22.74
20.64
19.76
20.37
22.52
26.12
30.92
36.57
42.79
49.52
56.95
65.46
75.31
86.25
97.30
106.92
113.63
117.04
118.48
120.96
128.09
142.06
162.03
183.42
199.17
202.07
187.42
154.39
105.54
45.28
-21.66
-90.61
-156.55
-214.00
-257.92
-285.47
-297.35
-297.72
-292.17
-285.05
-277.64
-268.22
-254.14
-234.21
-210.05
-185.45
-164.57
-150.07
-142.27
-139.64
-139.95
-141.11
-141.30
-138.72
-131.05
-115.79
-90.88
-55.93
-13.11
33.05
76.86
113.47
140.42
158.20
169.45
177.35
184.23
190.90
197.03
202.03
205.69
208.30
210.34
211.97
212.82
212.26
209.87
205.99
201.83
199.30
200.33
206.09
216.38
229.29
241.50
249.09
248.74
238.76
219.61
193.51
163.51
132.18
100.84
69.29
36.25
0.02
-40.61
-85.68
-133.56
-180.82
-222.74
-254.45
-272.34
-275.30
-264.94
-244.92
-219.39
-191.74
-163.96
-137.05
-111.82
-89.54
-71.84
-60.03
-54.33
-53.57
-55.58
-58.06
-59.36
-58.81
-56.74
-53.88
-50.95
-48.24
-45.71
-43.05
-40.06
-36.78
-33.51
-30.71
-28.83
-28.02
-28.03
-28.22
-27.77
-26.08
-22.96
-18.87
-14.63
-11.09
-8.76
-7.63
-7.30
-7.28
-7.24
-7.21
-7.53
-8.54
-10.39
-12.82
-15.20
-16.76
-16.87
-15.32
-12.40
-8.75
-5.04
-1.70
1.28
4.31
7.94
12.60
18.29
24.59
30.79
36.13
40.08
42.49
43.52
43.56
43.08
42.50
42.15
42.24
42.82
43.80
44.94
45.91
46.37
46.14
45.17
43.53
41.32
38.59
35.33
31.52
27.26
22.70
18.13
13.87
10.18
7.22
4.94
3.15
1.47
-0.45
-2.94
-6.18
-10.19
-14.92
-20.30
-26.39
-33.29
-41.16
-49.93
-59.27
-68.48
-76.65
-82.90
-86.60
-87.52
-85.88
-82.26
-77.38
-71.97
-66.52
-61.27
-56.18
-51.06
-45.73
-40.13
-34.37
-28.72
-23.54
-19.23
-16.10
-14.36
-14.02
-14.84
-16.39
-18.20
-19.86
-21.24
-22.48
-23.82
-25.52
-27.65
-30.10
-32.66
-35.09
-37.09
-38.29
-38.24
-36.55
-33.20
-28.61
-23.72
-19.57
-16.85
-15.57
-14.95
-13.83
-11.01
-5.78
2.00
11.89
23.08
34.60
45.54
55.13
62.85
68.54
72.32
74.52
75.54
75.65
75.05
73.88
72.31
70.57
68.87
67.31
65.83
64.27
62.45
60.34
58.00
55.60
53.29
51.14
49.11
47.13
45.18
43.28
41.49
39.83
38.21
36.36
34.00
30.90
27.03
22.53
17.68
12.73
7.86
3.10
-1.64
-6.46
-11.46
-16.66
-21.97
-27.26
-32.27
-36.73
-40.42
-43.26
-45.36
-47.04
-48.59
-50.16
-51.62
-52.55
-52.50
-51.09
-48.28
-44.23
-39.33
-33.97
-28.49
-23.16
-18.18
-13.70
-9.82
-6.55
-3.79
-1.43
0.72
2.76
4.69
6.52
8.23
9.84
11.37
12.84
14.20
15.40
16.39
17.18
17.76
18.13
18.26
18.05
17.45
16.44
15.07
13.43
11.59
9.59
7.45
5.21
2.98
0.86
-1.06
-2.81
-4.55
-6.45
-8.58
-10.93
-13.38
-15.82
-18.27
-20.88
-23.83
-27.12
-30.45
-33.25
-34.78
-34.46
-32.05
-27.80
-22.32
-16.41
-10.72
-5.66
-1.27
2.68
6.47
10.32
14.27
18.19
21.88
25.08
27.59
29.28
30.03
29.81
28.72
27.02
25.09
23.41
22.37
22.11
22.43
22.89
22.94
22.15
20.33
17.59
14.16
10.27
5.99
1.34
-3.64
-8.74
-13.53
-17.46
-20.11
-21.34
-21.45
-21.03
-20.77
-21.19
-22.48
-24.49
-26.93
-29.48
-31.85
-33.81
-35.09
-35.31
-34.12
-31.35
-27.13
-21.93
-16.41
-11.22
-6.80
-3.23
-0.39
1.99
4.16
6.24
8.21
10.01
11.56
12.88
14.10
15.34
16.71
18.21
19.73
21.11
22.22
23.02
23.58
23.98
24.25
24.34
24.12
23.41
22.04
19.89
17.03
13.65
10.07
6.60
3.44
0.59
-2.16
-5.09
-8.48
-12.37
-16.57
-20.64
-24.06
-26.36
-27.28
-26.91
-25.61
-23.91
-22.22
-20.73
-19.18
-17.00
-13.51
-8.31
-1.49
6.30
14.03
20.70
25.62
28.67
30.12
30.51
30.28
29.71
28.91
27.95
26.95
26.06
25.38
24.82
24.13
22.97
21.08
18.44
15.19
11.64
8.09
4.73
1.62
-1.22
-3.86
-6.34
-8.80
-11.47
-14.61
-18.43
-22.86
-27.50
-31.60
-34.32
-35.07
-33.69
-30.59
-26.49
-22.16
-18.12
-14.51
-11.15
-7.76
-4.18
-0.44
3.24
6.58
9.36
11.50
13.03
14.05
14.68
15.06
15.29
15.47
15.67
15.93
16.21
16.44
16.51
16.31
15.77
14.92
13.84
12.64
11.39
10.10
8.72
7.19
5.51
3.73
1.94
0.21
-1.46
-3.19
-5.07
-7.18
-9.56
-12.23
-15.22
-18.59
-22.28
-26.05
-29.45
-31.85
-32.71
-31.81
-29.26
-25.55
-21.23
-16.77
-12.39
-8.07
-3.74
0.59
4.82
8.65
11.83
14.21
15.84
16.93
17.79
18.66
19.67
20.81
21.96
23.01
23.89
24.65
25.36
26.09
26.79
27.30
27.42
26.99
25.96
24.49
22.85
21.31
20.03
18.92
17.72
16.07
13.69
10.49
6.58
2.21
-2.28
-6.64
-10.70
-14.40
-17.75
-20.86
-23.89
-27.04
-30.52
-34.43
-38.62
-42.64
-45.81
-47.38
-46.80
-43.98
-39.27
-33.40
-27.18
-21.25
-15.92
-11.19
-6.88
-2.83
1.00
4.55
7.72
10.45
12.80
14.83
16.62
18.20
19.56
20.63
21.41
21.97
22.48
23.08
23.85
24.72
25.51
25.99
26.01
25.53
24.64
23.51
22.28
21.05
19.78
18.39
16.74
14.69
12.24
9.49
6.68
4.11
2.02
0.42
-0.88
-2.27
-4.13
-6.69
-9.96
-13.73
-17.63
-21.18
-23.87
-25.27
-25.04
-23.13
-19.83
-15.66
-11.25
-7.18
-3.73
-0.96
1.31
3.29
5.15
6.96
8.67
10.18
11.38
12.21
12.72
13.06
13.37
13.75
14.21
14.66
14.96
15.03
14.89
14.61
14.28
13.98
13.69
13.31
12.73
11.82
10.53
8.85
6.89
4.77
2.69
0.72
-1.15
-3.07
-5.33
-8.21
-11.89
-16.32
-21.14
-25.75
-29.44
-31.58
-31.82
-30.19
-27.03
-22.88
-18.24
-13.52
-8.98
-4.80
-1.06
2.16
4.87
7.16
9.11
10.83
12.31
13.53
14.44
15.11
15.70
16.40
17.36
18.60
20.02
21.40
22.48
23.07
23.10
22.64
21.84
20.89
19.84
18.67
17.18
15.16
12.51
9.26
5.67
2.06
-1.35
-4.47
-7.33
-10.09
-12.84
-15.65
-18.62
-21.89
-25.62
-29.81
-34.16
-38.08
-40.75
-41.49
-39.97
-36.42
-31.47
-25.93
-20.51
-15.61
-11.33
-7.56
-4.12
-0.91
2.07
4.71
6.91
8.58
9.77
10.64
11.40
12.25
13.28
14.45
15.66
16.83
17.91
18.99
20.11
21.22
22.12
22.52
22.19
21.00
19.07
16.72
14.36
12.37
10.87
9.76
8.70
7.30
5.28
2.66
-0.39
-3.54
-6.57
-9.44
-12.30
-15.37
-18.84
-22.77
-27.08
-31.58
-36.01
-39.98
-43.03
-44.60
-44.25
-41.76
-37.32
-31.48
-24.97
-18.49
-12.55
-7.35
-2.84
1.17
4.88
8.40
11.67
14.52
16.70
18.03
18.48
18.25
17.65
17.03
16.67
16.69
17.09
17.80
18.74
19.84
21.00
22.06
22.80
23.07
22.82
22.16
21.34
20.57
19.94
19.35
18.57
17.34
15.49
13.00
9.96
6.54
2.85
-1.11
-5.43
-10.21
-15.49
-21.05
-26.42
-30.91
-33.84
-34.72
-33.44
-30.34
-26.00
-21.06
-16.03
-11.19
-6.62
-2.32
1.72
5.46
8.79
11.64
13.88
15.51
16.53
17.05
17.20
17.13
16.93
16.62
16.20
15.66
15.07
14.51
14.07
13.77
13.56
13.32
12.85
12.00
10.67
8.90
6.81
4.63
2.53
0.59
-1.19
-2.92
-4.80
-7.09
-10.02
-13.71
-18.01
-22.45
-26.36
-28.93
-29.59
-28.21
-25.10
-20.88
-16.22
-11.60
-7.31
-3.45
-0.08
2.77
5.08
6.92
8.39
9.63
10.71
11.61
12.28
12.68
12.85
12.89
12.90
12.94
13.00
13.02
12.92
12.66
12.20
11.51
10.62
9.54
8.24
6.69
4.85
2.62
0.01
-2.94
-6.08
-9.25
-12.30
-15.15
-17.84
-20.50
-23.31
-26.44
-29.97
-33.77
-37.46
-40.45
-42.04
-41.72
-39.34
-35.20
-29.90
-24.16
-18.57
-13.48
-9.01
-5.17
-1.91
0.82
3.06
4.87
6.32
7.48
8.43
9.25
10.08
11.10
12.42
14.05
15.85
17.55
18.87
19.59
19.64
19.10
18.17
17.07
15.95
14.88
13.82
12.60
11.06
9.09
6.68
3.97
1.20
-1.39
-3.66
-5.64
-7.50
-9.52
-11.98
-15.04
-18.66
-22.55
-26.27
-29.31
-31.27
-31.88
-31.09
-29.04
-25.98
-22.27
-18.28
-14.33
-10.62
-7.19
-3.95
-0.74
2.56
5.93
9.14
11.88
13.84
14.86
15.08
14.81
14.50
14.52
15.03
15.90
16.81
17.42
17.51
17.11
16.40
15.61
14.90
14.23
13.47
12.49
11.20
9.64
7.92
6.09
4.18
2.10
-0.27
-3.00
-6.15
-9.69
-13.55
-17.62
-21.68
-25.43
-28.46
-30.34
-30.75
-29.59
-27.06
-23.60
-19.72
-15.88
-12.34
-9.16
-6.29
-3.62
-1.09
1.35
3.64
5.72
7.47
8.84
9.84
10.65
11.54
12.81
14.65
17.05
19.79
22.53
24.93
26.74
27.86
28.25
27.89
26.73
24.72
21.93
18.53
14.84
11.21
7.92
5.09
2.57
0.10
-2.68
-6.03
-9.93
-14.09
-17.92
-20.75
-22.06
-21.71
-19.91
-17.17
-14.03
-10.82
-7.64
-4.38
-0.96
2.60
6.09
9.22
11.76
13.60
14.80
15.48
15.81
15.89
15.84
15.72
15.57
15.47
15.52
15.79
16.26
16.82
17.18
17.02
16.12
14.52
12.53
10.55
8.90
7.61
6.39
4.73
2.17
-1.49
-6.10
-11.20
-16.14
-20.24
-22.97
-24.02
-23.40
-21.34
-18.24
-14.59
-10.80
-7.18
-3.89
-0.97
1.66
4.11
6.48
8.79
10.94
12.75
14.01
14.61
14.61
14.21
13.72
13.41
13.48
13.90
14.54
15.10
15.22
14.61
13.06
10.51
7.05
2.95
-1.46
-5.84
-9.94
-13.64
-17.00
-20.23
-23.54
-27.12
-30.95
-34.76
-38.03
-40.12
-40.49
-38.86
-35.33
-30.35
-24.56
-18.57
-12.83
-7.57
-2.77
1.66
5.86
9.86
13.61
16.94
19.69
21.82
23.43
24.78
26.14
27.65
29.25
30.65
31.54
31.70
31.19
30.22
29.00
27.64
26.09
24.19
21.90
19.27
16.48
13.75
11.20
8.77
6.31
3.67
0.70
-2.63
-6.27
-10.11
-14.03
-17.88
-21.57
-25.09
-28.55
-32.19
-36.17
-40.43
-44.52
-47.72
-49.23
-48.52
-45.56
-40.86
-35.21
-29.37
-23.83
-18.68
-13.74
-8.82
-3.82
1.16
5.85
9.98
13.31
15.71
17.18
17.86
17.96
17.76
17.43
17.15
17.00
17.12
17.61
18.59
20.06
21.82
23.51
24.70
25.08
24.57
23.43
22.05
20.79
19.73
18.67
17.21
14.96
11.84
8.02
3.95
0.05
-3.49
-6.73
-9.95
-13.50
-17.57
-22.14
-26.97
-31.63
-35.62
-38.46
-39.79
-39.49
-37.66
-34.60
-30.66
-26.19
-21.42
-16.52
-11.59
-6.72
-1.99
2.58
6.97
11.14
15.00
18.42
21.27
23.46
24.99
25.91
26.29
26.29
26.08
25.86
25.81
25.98
26.25
26.35
26.03
25.12
23.66
21.86
19.96
18.09
16.20
14.17
11.89
9.38
6.76
4.18
1.70
-0.73
-3.21
-5.85
-8.68
-11.71
-14.95
-18.39
-21.99
-25.58
-28.75
-30.98
-31.75
-30.76
-28.07
-24.11
-19.49
-14.78
-10.39
-6.39
-2.72
0.79
4.25
7.65
10.83
13.61
15.85
17.50
18.62
19.38
19.86
20.19
20.34
20.36
20.25
20.04
19.73
19.29
18.68
17.86
16.81
15.51
13.95
12.10
10.00
7.73
5.49
3.49
1.90
0.72
-0.28
-1.42
-3.07
-5.42
-8.36
-11.50
-14.26
-16.05
-16.47
-15.39
-13.03
-9.76
-6.07
-2.30
1.30
4.62
7.60
10.17
12.28
13.83
14.78
15.13
14.92
14.20
13.08
11.68
10.11
8.52
7.05
5.87
5.07
4.60
4.35
4.08
3.59
2.81
1.75
0.49
-0.91
-2.45
-4.15
-5.97
-7.86
-9.78
-11.83
-14.21
-17.17
-20.69
-24.44
-27.74
-29.79
-30.02
-28.29
-24.95
-20.68
-16.23
-12.24
-9.07
-6.78
-5.20
-3.98
-2.70
-1.09
0.94
3.16
5.21
6.71
7.48
7.66
7.55
7.59
8.04
8.98
10.21
11.51
12.61
13.32
13.54
13.17
12.13
10.31
7.66
4.26
0.37
-3.62
-7.36
-10.71
-13.88
-17.25
-21.12
-25.42
-29.57
-32.66
-33.86
-32.81
-29.73
-25.33
-20.46
-15.72
-11.34
-7.27
-3.35
0.41
3.82
6.54
8.36
9.27
9.51
9.51
9.69
10.26
11.22
12.30
13.16
13.52
13.32
12.74
12.20
12.25
13.40
15.86
19.43
23.37
26.62
28.06
27.00
23.39
17.80
11.20
4.49
-1.81
-7.55
-12.73
-17.23
-20.60
-22.29
-21.94
-19.71
-16.34
-12.87
-10.14
-8.48
-7.53
-6.48
-4.54
-1.29
3.14
8.17
13.16
17.58
21.19
23.95
25.90
27.07
27.55
27.50
27.21
26.98
26.97
27.14
27.31
27.29
27.06
26.78
26.69
26.95
27.53
28.15
28.42
28.00
26.71
24.54
21.68
18.43
15.12
12.12
9.74
8.15
7.30
6.91
6.51
5.62
3.92
1.37
-1.80
-5.16
-8.24
-10.70
-12.39
-13.36
-13.82
-14.09
-14.53
-15.49
-17.25
-19.89
-23.29
-27.17
-31.16
-34.92
-38.29
-41.32
-44.22
-47.22
-50.34
-53.30
-55.49
-56.19
-54.85
-51.34
-46.03
-39.64
-32.94
-26.50
-20.55
-15.11
-10.07
-5.41
-1.20
2.48
5.62
8.30
10.64
12.72
14.51
15.92
16.80
17.13
17.04
16.84
16.92
17.57
18.88
20.60
22.29
23.46
23.79
23.29
22.23
20.97
19.81
18.84
17.95
17.01
15.94
14.77
13.57
12.29
10.80
8.88
6.38
3.37
0.18
-2.77
-5.18
-6.94
-8.27
-9.54
-11.05
-12.90
-14.97
-17.02
-18.87
-20.53
-22.23
-24.36
-27.18
-30.74
-34.70
-38.37
-40.93
-41.67
-40.27
-37.00
-32.60
-28.03
-24.06
-20.99
-18.61
-16.37
-13.75
-10.52
-6.82
-3.07
0.28
2.95
4.92
6.41
7.67
8.93
10.24
11.54
12.70
13.64
14.31
14.78
15.21
15.78
16.74
18.30
20.64
23.76
27.41
31.09
34.09
35.74
35.60
33.68
30.42
26.45
22.39
18.59
15.14
11.85
8.55
5.13
1.62
-1.86
-5.25
-8.59
-12.03
-15.71
-19.79
-24.27
-29.07
-34.04
-38.97
-43.59
-47.55
-50.39
-51.58
-50.67
-47.48
-42.20
-35.37
-27.82
-20.27
-13.29
-7.11
-1.74
2.93
6.98
10.49
13.54
16.21
18.60
20.72
22.45
23.62
24.10
23.96
23.42
22.87
22.61
22.79
23.30
23.89
24.20
24.04
23.30
21.99
20.22
18.11
15.80
13.44
11.20
9.19
7.39
5.67
3.81
1.58
-1.11
-4.17
-7.41
-10.60
-13.57
-16.25
-18.74
-21.14
-23.64
-26.38
-29.47
-32.91
-36.61
-40.36
-43.80
-46.51
-47.97
-47.72
-45.44
-41.02
-34.78
-27.34
-19.54
-12.19
-5.85
-0.69
3.45
6.94
10.09
13.01
15.62
17.72
19.15
19.95
20.25
20.31
20.34
20.47
20.73
21.05
21.33
21.48
21.44
21.22
20.87
20.45
19.91
19.17
18.08
16.55
14.64
12.55
10.60
9.03
7.93
7.12
6.32
5.19
3.52
1.27
-1.48
-4.53
-7.66
-10.62
-13.21
-15.35
-17.15
-18.91
-21.02
-23.88
-27.64
-32.19
-37.04
-41.40
-44.48
-45.52
-44.14
-40.40
-34.74
-27.89
-20.70
-13.87
-7.83
-2.70
1.59
5.27
8.54
11.52
14.24
16.61
18.48
19.70
20.27
20.31
20.08
19.88
19.90
20.20
20.66
21.12
21.44
21.59
21.62
21.59
21.52
21.30
20.79
19.88
18.57
16.96
15.24
13.55
11.92
10.22
8.21
5.69
2.55
-1.09
-4.94
-8.69
-12.05
-14.90
-17.26
-19.26
-21.14
-23.13
-25.45
-28.23
-31.45
-34.84
-37.91
-40.05
-40.63
-39.31
-36.08
-31.33
-25.65
-19.71
-14.03
-8.87
-4.30
-0.29
3.17
6.07
8.36
10.02
11.13
11.85
12.36
12.74
12.99
13.03
12.80
12.41
12.07
12.08
12.66
13.78
15.18
16.46
17.23
17.27
16.60
15.40
13.90
12.31
10.69
9.01
7.17
5.09
2.71
0.04
-2.87
-5.86
-8.73
-11.29
-13.39
-15.08
-16.54
-18.21
-20.52
-23.78
-27.96
-32.59
-36.88
-39.92
-41.09
-40.20
-37.48
-33.50
-28.83
-23.88
-18.83
-13.75
-8.63
-3.51
1.55
6.44
11.07
15.36
19.21
22.52
25.23
27.27
28.67
29.44
29.69
29.56
29.22
28.88
28.69
28.65
28.64
28.37
27.58
26.08
23.79
20.90
17.70
14.55
11.74
9.40
7.46
5.63
3.63
1.24
-1.55
-4.55
-7.50
-10.22
-12.70
-15.05
-17.48
-20.14
-23.19
-26.64
-30.48
-34.47
-38.22
-41.10
-42.44
-41.70
-38.70
-33.74
-27.42
-20.55
-13.82
-7.69
-2.34
2.23
6.09
9.27
11.75
13.46
14.39
14.65
14.47
14.18
14.09
14.33
14.86
15.44
15.82
15.90
15.76
15.64
15.78
16.30
17.02
17.61
17.61
16.72
14.94
12.64
10.39
8.76
8.03
8.12
8.58
8.88
8.63
7.73
6.29
4.51
2.46
0.10
-2.67
-5.82
-9.16
-12.41
-15.42
-18.38
-21.72
-25.86
-30.84
-36.18
-40.87
-43.82
-44.29
-42.21
-38.16
-33.07
-27.71
-22.49
-17.44
-12.38
-7.26
-2.27
2.19
5.68
7.97
9.12
9.47
9.46
9.54
9.99
10.87
12.02
13.19
14.10
14.66
14.91
15.01
15.10
15.21
15.20
14.89
14.14
12.95
11.52
10.14
9.09
8.49
8.30
8.26
8.08
7.48
6.38
4.90
3.30
1.85
0.80
0.18
-0.08
-0.27
-0.79
-2.04
-4.27
-7.49
-11.30
-15.03
-17.90
-19.23
-18.75
-16.61
-13.34
-9.66
-6.18
-3.27
-0.99
0.79
2.28
3.65
4.90
5.86
6.35
6.22
5.44
4.16
2.52
0.74
-0.95
-2.19
-2.39
-0.91
2.70
8.40
15.44
22.49
28.12
31.30
31.77
30.11
27.32
24.41
21.86
19.67
17.41
14.69
11.35
7.59
3.88
0.60
-2.14
-4.69
-7.74
-12.07
-18.10
-25.55
-33.40
-40.07
-43.99
-44.16
-40.51
-33.91
-25.84
-17.84
-11.03
-5.98
-2.63
-0.51
1.04
2.75
5.24
8.91
13.82
19.74
26.20
32.64
38.51
43.38
46.80
48.35
47.65
44.49
39.01
31.77
23.60
15.37
7.71
0.89
-5.08
-10.23
-14.38
-17.20
-18.29
-17.52
-15.30
-12.54
-10.51
-10.41
-12.99
-18.25
-25.56
-33.87
-42.00
-49.08
-54.56
-58.30
-60.41
-61.00
-60.25
-58.04
-53.91
-46.86
-35.37
-18.00
5.88
35.14
66.60
95.48
116.69
126.41
123.24
108.58
85.87
59.39
33.05
9.65
-9.08
-22.24
-29.45
-30.74
-26.78
-18.93
-9.11
0.77
9.38
16.36
22.27
28.06
34.46
41.44
48.18
53.40
55.84
54.78
50.17
42.57
32.81
21.70
9.87
-2.19
-14.03
-25.04
-34.54
-41.86
-46.59
-48.67
-48.45
-46.48
-43.35
-39.42
-34.94
-30.01
-24.71
-19.17
-13.49
-7.79
-2.16
3.25
8.27
12.68
16.34
19.27
21.59
23.42
24.74
25.29
24.64
22.39
18.41
12.91
6.39
-0.54
-7.37
-13.82
-19.77
-25.11
-29.68
-33.28
-35.81
-37.44
-38.56
-39.61
-40.78
-41.81
-42.08
-40.91
-37.89
-33.16
-27.40
-21.50
-16.24
-11.97
-8.56
-5.60
-2.65
0.53
3.84
6.95
9.44
11.09
11.95
12.30
12.55
12.91
13.46
14.10
14.72
15.41
16.40
17.93
19.98
22.22
23.98
24.60
23.65
21.06
17.18
12.56
7.82
3.46
-0.18
-3.00
-5.08
-6.79
-8.66
-11.18
-14.59
-18.67
-22.70
-25.73
-26.97
-26.14
-23.55
-20.03
-16.41
-13.26
-10.57
-7.97
-4.96
-1.34
2.74
6.79
10.29
12.95
14.77
16.04
17.13
18.27
19.47
20.59
21.48
22.11
22.55
22.89
23.12
23.01
22.28
20.64
18.07
14.80
11.25
7.82
4.70
1.89
-0.74
-3.26
-5.68
-7.92
-9.92
-11.76
-13.62
-15.82
-18.62
-22.29
-26.87
-32.21
-37.92
-43.35
-47.68
-50.16
-50.23
-47.65
-42.62
-35.60
-27.29
-18.44
-9.76
-1.81
5.11
10.90
15.67
19.57
22.76
25.35
27.42
29.11
30.57
32.01
33.54
35.08
36.40
37.20
37.25
36.47
34.98
33.00
30.82
28.70
26.86
25.35
24.20
23.32
22.61
22.00
21.34
20.29
18.22
14.28
7.71
-1.73
-13.37
-25.66
-36.64
-44.63
-48.85
-49.65
-48.04
-45.10
-41.40
-36.92
-31.38
-24.69
-17.31
-10.09
-3.87
0.89
4.37
7.21
10.17
13.66
17.58
21.35
24.23
25.66
25.50
24.12
22.20
20.50
19.50
19.30
19.67
20.25
20.78
21.22
21.71
22.35
23.09
23.63
23.56
22.52
20.42
17.52
14.29
11.27
8.77
6.81
5.11
3.26
0.97
-1.90
-5.27
-9.06
-13.22
-17.75
-22.52
-27.19
-31.12
-33.57
-33.98
-32.26
-28.78
-24.32
-19.69
-15.45
-11.80
-8.56
-5.43
-2.20
1.10
4.21
6.79
8.65
9.85
10.64
11.37
12.21
13.19
14.16
15.03
15.90
16.98
18.49
20.44
22.50
24.07
24.59
23.76
21.65
18.62
15.10
11.39
7.55
3.54
-0.66
-4.97
-9.25
-13.37
-17.32
-21.18
-25.10
-29.13
-33.26
-37.43
-41.59
-45.70
-49.65
-53.22
-55.93
-57.10
-56.00
-52.01
-44.91
-35.02
-23.22
-10.77
1.06
11.28
19.40
25.40
29.48
31.85
32.59
31.74
29.43
26.02
21.99
17.81
13.76
9.94
6.58
4.25
4.07
7.39
15.14
27.07
41.41
55.11
64.81
68.05
64.16
54.44
41.51
28.18
16.53
7.44
0.88
-3.53
-6.01
-6.61
-5.44
-3.14
-0.90
-0.18
-2.07
-6.71
-13.02
-18.95
-22.02
-20.05
-11.75
2.66
21.44
41.46
58.87
70.07
72.63
65.97
51.60
32.62
12.97
-3.58
-14.29
-18.07
-15.65
-9.36
-2.44
1.91
1.48
-4.26
-14.09
-25.62
-36.15
-43.68
-47.31
-47.18
-44.20
-39.51
-34.29
-29.59
-26.38
-25.32
-26.52
-29.37
-32.68
-35.10
-35.74
-34.51
-32.15
-29.71
-27.99
-27.24
-27.19
-27.39
-27.56
-27.70
-27.94
-28.24
-28.25
-27.40
-25.20
-21.48
-16.48
-10.81
-5.10
0.09
4.54
8.32
11.79
15.40
19.54
24.32
29.47
34.41
38.38
40.74
41.09
39.40
35.95
31.26
25.96
20.71
16.12
12.56
10.09
8.47
7.26
6.09
4.79
3.38
1.89
0.05
-2.62
-6.63
-12.06
-18.34
-24.33
-28.77
-30.82
-30.43
-28.17
-24.87
-21.17
-17.30
-13.22
-8.81
-4.21
0.25
4.10
7.00
8.91
10.07
10.97
12.10
13.82
16.17
18.85
21.36
23.18
24.11
24.23
23.95
23.64
23.39
22.95
21.81
19.49
15.76
10.80
5.02
-1.08
-7.11
-12.82
-18.03
-22.50
-25.89
-27.85
-28.11
-26.72
-24.01
-20.49
-16.71
-13.01
-9.54
-6.30
-3.29
-0.67
1.31
2.32
2.17
0.88
-1.24
-3.71
-5.99
-7.69
-8.61
-8.78
-8.33
-7.46
-6.22
-4.66
-2.82
-0.81
1.12
2.60
3.23
2.70
0.88
-2.13
-6.05
-10.48
-15.01
-19.22
-22.72
-25.16
-26.18
-25.56
-23.22
-19.36
-14.43
-9.04
-3.80
0.86
4.75
7.88
10.38
12.35
13.88
15.03
15.92
16.71
17.56
18.55
19.53
20.30
20.65
20.51
20.03
19.47
19.06
18.81
18.47
17.60
15.74
12.58
8.00
2.10
-4.84
-12.30
-19.48
-25.32
-28.72
-28.84
-25.50
-19.29
-11.43
-3.35
3.72
9.16
12.97
15.53
17.30
18.52
19.19
19.24
18.66
17.61
16.46
15.55
15.04
14.86
14.72
14.28
13.36
12.02
10.45
8.84
7.19
5.29
2.85
-0.29
-4.06
-8.09
-11.95
-15.33
-18.26
-21.08
-24.25
-28.02
-32.20
-36.09
-38.74
-39.26
-37.22
-32.78
-26.57
-19.46
-12.26
-5.59
0.23
5.10
9.11
12.50
15.60
18.75
22.13
25.67
28.99
31.54
32.80
32.47
30.63
27.69
24.30
21.14
18.71
17.28
16.71
16.68
16.71
16.48
15.84
14.84
13.61
12.25
10.74
8.94
6.67
3.72
-0.03
-4.59
-9.78
-15.17
-20.13
-23.92
-25.92
-25.80
-23.62
-19.80
-14.98
-9.82
-4.80
-0.19
3.98
7.78
11.32
14.57
17.35
19.42
20.52
20.61
19.89
18.78
17.75
17.10
16.90
16.92
16.83
16.36
15.43
14.12
12.61
11.07
9.54
7.95
6.13
3.97
1.40
-1.61
-5.09
-9.03
-13.31
-17.61
-21.39
-23.96
-24.68
-23.18
-19.54
-14.31
-8.37
-2.62
2.26
6.01
8.75
10.84
12.61
14.24
15.71
16.83
17.44
17.48
17.08
16.44
15.74
15.07
14.44
13.87
13.37
13.02
12.92
13.06
13.28
13.26
12.66
11.22
8.89
5.88
2.58
-0.62
-3.52
-6.09
-8.61
-11.46
-14.95
-19.26
-24.26
-29.54
-34.44
-38.22
-40.18
-39.98
-37.63
-33.56
-28.41
-22.81
-17.12
-11.44
-5.77
-0.11
5.30
10.12
14.00
16.77
18.56
19.70
20.56
21.39
22.23
23.02
23.65
24.16
24.64
25.29
26.17
27.16
27.96
28.16
27.47
25.84
23.51
20.91
18.42
16.30
14.51
12.79
10.88
8.62
6.08
3.47
1.03
-1.13
-3.17
-5.41
-8.18
-11.68
-15.89
-20.57
-25.42
-30.22
-34.87
-39.26
-43.23
-46.44
-48.44
-48.81
-47.34
-44.08
-39.37
-33.75
-27.89
-22.52
-18.27
-15.53
-14.27
-13.90
-13.56
-12.30
-9.88
-7.06
-5.57
-7.93
-16.87
-34.82
-63.22
-101.75
-147.69
-195.73
-239.16
-271.39
-287.87
-287.37
-271.97
-245.63
-212.33
-174.54
-132.84
-87.12
-37.31
16.40
73.91
135.34
200.67
269.02
337.80
402.85
458.25
498.86
522.20
529.43
523.85
509.11
488.14
462.77
434.65
403.11
367.37
327.67
285.67
243.44
202.63
164.46
129.75
100.20
73.51
46.81
18.64
-9.88
-36.38
-58.91
-76.63
-90.27
-99.95
-111.69
-132.38
-166.55
-214.63
-274.47
-343.42
-419.21
-500.92
-563.02
-584.42
-559.83
-504.26
-439.21
-378.69
-326.79
-281.79
-251.40
-227.99
-211.09
-203.43
-207.40
-223.04
-249.64
-287.84
-330.59
-374.11
-411.36
-438.60
-452.45
-450.08
-430.10
-394.27
-347.49
-295.69
-244.63
-195.68
-151.36
-113.55
-83.14
-59.53
-41.03
-25.45
-10.42
5.22
22.95
41.47
58.59
72.43
82.42
89.32
94.57
99.81
105.71
112.91
120.58
127.42
132.36
135.05
135.93
135.85
135.76
136.03
136.84
137.96
139.02
139.90
140.81
142.24
144.70
148.47
153.39
159.06
165.03
171.02
177.11
183.71
191.57
201.65
214.92
231.93
252.26
274.07
294.22
308.91
314.95
310.82
297.18
276.56
252.18
226.79
201.93
178.06
155.08
133.10
112.72
94.81
80.04
68.48
59.53
52.25
45.73
39.41
33.23
27.50
22.54
18.51
15.27
12.44
9.64
6.58
3.23
-0.22
-3.46
-6.25
-8.44
-10.04
-11.17
-12.02
-12.77
-13.56
-14.36
-14.94
-14.86
-13.56
-10.40
-4.65
4.47
17.58
34.80
55.49
78.08
100.29
119.40
132.62
137.50
132.31
116.57
91.36
59.38
24.30
-10.15
-41.40
-68.59
-92.19
-113.23
-132.58
-150.79
-168.42
-186.09
-204.00
-220.98
-233.99
-238.60
-230.83
-208.95
-174.59
-132.08
-86.53
-41.67
1.55
44.67
90.27
139.87
192.58
244.55
289.82
322.03
336.35
331.19
308.85
274.86
236.08
198.81
167.09
142.03
122.42
105.85
89.62
71.15
48.19
19.25
-15.49
-53.04
-87.39
-110.55
-115.29
-98.60
-63.81
-20.25
19.96
46.48
54.56
46.12
27.83
7.25
-10.67
-25.19
-38.92
-55.60
-77.81
-105.87
-138.00
-171.43
-203.60
-232.60
-257.01
-275.61
-287.21
-290.82
-286.12
-273.91
-256.19
-235.84
-215.68
-197.50
-181.36
-165.66
-147.94
-126.03
-99.10
-67.98
-34.72
-1.75
28.95
56.38
80.47
101.89
121.71
141.06
160.74
180.89
200.81
218.94
233.34
242.32
244.96
241.20
231.45
216.31
196.52
173.21
148.19
123.83
102.31
84.90
71.59
61.42
53.63
48.50
47.60
52.75
64.48
80.57
95.95
104.19
99.82
80.64
48.65
9.63
-28.50
-57.46
-70.11
-61.48
-29.68
23.14
90.32
161.24
223.22
264.75
278.68
264.24
226.65
174.88
118.43
64.79
18.32
-19.50
-49.02
-71.56
-88.86
-102.88
-115.50
-128.20
-141.62
-155.42
-168.65
-180.25
-189.67
-197.20
-203.93
-211.36
-220.83
-233.12
-248.14
-265.01
-282.30
-298.51
-312.63
-324.34
-334.01
-342.21
-349.04
-353.40
-352.84
-343.88
-322.96
-287.73
-238.20
-177.26
-110.20
-43.39
17.45
68.66
108.92
138.97
160.44
174.89
183.38
186.58
185.06
179.43
170.12
157.21
140.56
120.28
97.34
73.84
52.60
36.26
26.37
22.99
25.01
30.78
38.67
47.33
55.72
62.74
67.38
68.91
67.10
62.43
55.91
48.67
41.67
35.64
30.96
27.88
26.53
26.91
28.81
31.79
35.28
38.70
41.68
44.03
45.74
46.73
46.73
45.25
41.71
35.72
27.44
17.58
7.34
-2.06
-9.69
-15.27
-19.15
-22.08
-24.88
-28.14
-32.09
-36.76
-42.02
-47.75
-53.78
-59.83
-65.51
-70.38
-74.07
-76.48
-77.81
-78.49
-78.94
-79.27
-79.17
-77.93
-74.70
-68.92
-60.52
-50.03
-38.41
-26.70
-15.75
-5.99
2.55
10.11
16.95
23.23
28.87
33.70
37.49
40.18
41.86
42.79
43.27
43.44
43.31
42.73
41.52
39.63
37.16
34.33
31.38
28.41
25.37
22.08
18.39
14.24
9.78
5.24
0.83
-3.40
-7.56
-11.85
-16.38
-21.18
-26.12
-31.11
-36.20
-41.58
-47.47
-53.80
-60.09
-65.48
-68.89
-69.38
-66.49
-60.33
-51.56
-41.14
-30.14
-19.46
-9.81
-1.52
5.33
10.89
15.43
19.18
22.30
24.82
26.72
28.06
29.02
29.88
30.87
32.07
33.34
34.46
35.20
35.51
35.51
35.37
35.19
34.88
34.21
32.91
30.87
28.25
25.44
22.87
20.80
19.22
17.80
16.10
13.75
10.61
6.83
2.73
-1.36
-5.23
-8.86
-12.39
-16.02
-19.94
-24.32
-29.28
-34.83
-40.82
-46.87
-52.30
-56.21
-57.71
-56.08
-51.14
-43.26
-33.42
-22.82
-12.64
-3.71
3.60
9.32
13.71
17.07
19.65
21.62
23.07
24.04
24.62
24.84
24.79
24.56
24.23
23.86
23.48
23.10
22.70
22.24
21.64
20.86
19.80
18.42
16.76
14.89
12.92
10.94
8.98
7.01
4.95
2.73
0.31
-2.36
-5.24
-8.26
-11.29
-14.20
-16.99
-19.81
-23.00
-26.91
-31.71
-37.14
-42.42
-46.45
-48.11
-46.64
-41.89
-34.38
-25.08
-15.14
-5.57
2.95
10.10
15.82
20.21
23.41
25.59
26.91
27.57
27.80
27.78
27.64
27.37
26.87
26.11
25.10
24.01
23.13
22.68
22.71
22.98
23.03
22.29
20.34
17.00
12.44
7.09
1.49
-3.86
-8.62
-12.70
-16.17
-19.19
-21.85
-24.20
-26.25
-28.03
-29.71
-31.59
-34.02
-37.32
-41.58
-46.68
-52.16
-57.30
-61.27
-63.27
-62.74
-59.52
-53.88
-46.49
-38.21
-29.89
-22.14
-15.28
-9.36
-4.22
0.38
4.70
9.03
13.73
19.11
25.37
32.40
39.74
46.71
52.71
57.46
61.16
64.40
67.74
71.43
75.20
78.42
80.46
81.02
80.26
78.61
76.58
74.43
72.20
69.77
67.13
64.40
61.85
59.79
58.41
57.80
57.95
58.71
59.65
59.86
57.88
51.77
39.73
20.74
-4.77
-34.80
-66.09
-94.97
-118.22
-133.82
-141.11
-140.71
-134.02
-122.84
-108.99
-94.11
-79.52
-66.19
-54.65
-45.07
-37.23
-30.67
-24.85
-19.34
-14.01
-9.00
-4.65
-1.25
1.08
2.60
3.75
5.05
6.85
9.23
12.01
14.84
17.34
19.21
20.29
20.60
20.30
19.60
18.68
17.64
16.49
15.14
13.53
11.62
9.44
7.03
4.41
1.57
-1.54
-4.94
-8.68
-12.77
-17.33
-22.55
-28.67
-35.88
-44.05
-52.51
-59.99
-64.88
-65.64
-61.38
-52.23
-39.36
-24.69
-10.24
2.29
12.00
18.76
23.06
25.67
27.35
28.62
29.70
30.64
31.37
31.83
32.05
32.01
31.61
30.75
29.37
27.59
25.77
24.31
23.51
23.36
23.46
23.27
22.24
20.16
17.17
13.67
10.18
7.09
4.52
2.37
0.31
-1.98
-4.72
-7.91
-11.42
-15.04
-18.60
-22.01
-25.25
-28.37
-31.50
-34.87
-38.74
-43.28
-48.31
-53.14
-56.60
-57.35
-54.38
-47.37
-36.92
-24.35
-11.29
0.81
10.97
18.79
24.34
27.94
29.98
30.85
30.88
30.33
29.42
28.35
27.25
26.25
25.42
24.85
24.52
24.42
24.45
24.49
24.45
24.21
23.69
22.76
21.26
19.03
15.94
12.06
7.61
3.01
-1.29
-4.98
-8.03
-10.73
-13.55
-17.05
-21.59
-27.20
-33.47
-39.61
-44.54
-47.15
-46.59
-42.54
-35.30
-25.74
-15.05
-4.49
4.91
12.54
18.18
21.97
24.26
25.46
25.93
25.95
25.64
25.03
24.10
22.89
21.54
20.32
19.51
19.28
19.61
20.30
20.99
21.32
21.01
19.90
18.05
15.57
12.65
9.44
6.03
2.46
-1.20
-4.93
-8.65
-12.34
-15.98
-19.60
-23.25
-26.92
-30.58
-34.16
-37.67
-41.19
-44.88
-48.88
-53.06
-57.00
-59.87
-60.71
-58.67
-53.37
-45.10
-34.79
-23.69
-13.02
-3.65
4.10
10.29
15.16
19.03
22.09
24.49
26.31
27.63
28.52
28.96
28.93
28.39
27.40
26.14
24.89
24.03
23.85
24.51
25.97
27.89
29.79
31.09
31.36
30.41
28.33
25.44
22.12
18.63
15.08
11.38
7.37
2.95
-1.82
-6.69
-11.35
-15.58
-19.35
-22.87
-26.50
-30.55
-35.10
-39.75
-43.77
-46.24
-46.52
-44.47
-40.54
-35.50
-29.94
-23.98
-17.19
-8.95
1.04
12.27
23.36
32.57
38.57
41.15
41.55
41.95
44.58
50.60
59.55
69.54
78.20
83.68
85.46
84.34
82.14
81.27
84.67
95.84
118.19
153.39
199.50
249.96
294.82
324.29
332.88
321.91
298.60
272.19
249.31
231.09
214.05
193.45
167.14
137.18
108.47
85.53
69.76
58.76
48.07
34.00
15.65
-4.85
-23.73
-37.79
-46.01
-49.91
-52.49
-56.66
-63.83
-73.38
-83.18
-90.87
-95.07
-96.09
-95.64
-95.85
-98.20
-102.74
-108.18
-112.67
-114.78
-114.24
-111.96
-109.47
-108.14
-108.53
-110.29
-112.48
-114.15
-114.84
-114.73
-114.45
-114.78
-116.34
-119.34
-123.71
-129.13
-135.29
-141.92
-148.90
-156.19
-163.73
-171.35
-178.71
-185.37
-190.82
-194.66
-196.63
-196.66
-194.95
-192.00
-188.66
-186.11
-185.58
-187.91
-193.08
-199.89
-206.13
-209.16
-206.66
-197.37
-181.40
-160.09
-135.40
-109.34
-83.47
-58.77
-35.79
-14.89
3.62
19.43
32.41
42.72
50.84
57.41
63.06
68.19
72.90
77.07
80.50
83.07
84.79
85.76
86.14
86.07
85.64
84.90
83.90
82.72
81.41
80.08
78.84
77.79
76.97
76.28
75.64
74.93
74.16
73.44
72.91
72.59
72.29
71.68
70.45
68.60
66.59
65.27
65.55
68.11
73.06
79.97
87.99
96.25
104.04
110.96
117.01
122.69
129.04
137.36
148.59
162.45
176.82
187.95
191.47
183.96
164.11
133.10
93.91
50.22
5.52
-36.96
-74.09
-102.55
-119.37
-122.83
-113.47
-94.33
-70.11
-45.79
-25.22
-10.38
-1.58
1.80
0.53
-4.77
-13.66
-25.46
-39.19
-53.63
-67.64
-80.47
-91.85
-101.85
-110.67
-118.46
-125.20
-130.80
-135.01
-137.45
-137.45
-134.18
-126.93
-115.50
-100.47
-83.20
-65.48
-48.98
-34.80
-23.36
-14.47
-7.74
-2.83
0.36
1.77
1.18
-1.63
-6.79
-14.23
-23.46
-33.54
-43.09
-50.68
-55.29
-56.65
-55.28
-52.15
-48.17
-43.85
-39.32
-34.64
-30.08
-26.23
-23.71
-22.76
-23.05
-23.77
-23.99
-23.16
-21.16
-18.24
-14.69
-10.69
-6.36
-1.96
2.11
5.38
7.71
9.58
11.96
15.94
22.15
30.43
39.77
48.74
56.03
60.84
62.97
62.70
60.53
56.95
52.46
47.56
42.80
38.70
35.63
33.70
32.78
32.48
32.40
32.25
31.90
31.46
31.12
31.08
31.39
31.85
32.11
31.64
30.07
27.26
23.49
19.36
15.54
12.48
10.18
8.15
5.68
2.24
-2.22
-7.21
-11.91
-15.61
-18.04
-19.43
-20.26
-20.84
-20.95
-19.84
-16.42
-9.76
0.48
13.77
28.65
43.11
55.02
62.93
66.74
68.18
70.67
78.72
97.01
129.04
175.84
234.77
299.12
358.99
403.52
423.98
416.44
382.94
330.41
267.94
203.63
142.46
85.98
33.38
-17.07
-67.17
-118.62
-172.90
-230.65
-290.50
-348.31
-397.60
-431.44
-444.84
-436.69
-410.19
-371.69
-328.41
-286.40
-249.19
-217.61
-190.53
-165.94
-142.04
-117.94
-94.01
-71.60
-52.53
-38.24
-29.11
-24.21
-21.35
-17.66
-10.33
2.62
21.72
45.80
72.18
97.33
117.94
131.77
138.21
138.27
134.14
128.48
123.72
121.50
122.33
125.49
129.29
131.65
130.75
125.72
116.82
105.33
92.97
81.34
71.69
64.78
61.03
60.60
63.25
68.24
74.42
80.35
84.58
85.64
82.01
72.19
55.13
30.75
0.25
-33.99
-68.95
-101.64
-129.46
-150.25
-162.14
-163.89
-155.41
-138.30
-115.80
-92.11
-71.06
-55.02
-44.53
-38.64
-35.79
-34.52
-33.66
-32.34
-29.96
-26.26
-21.41
-16.00
-10.79
-6.38
-2.99
-0.53
1.27
2.70
3.96
5.22
6.61
8.17
9.83
11.39
12.59
13.17
12.98
12.00
10.36
8.25
5.87
3.43
1.08
-1.09
-3.11
-5.07
-7.13
-9.39
-11.86
-14.40
-16.87
-19.21
-21.49
-23.85
-26.36
-28.83
-30.82
-31.79
-31.34
-29.45
-26.52
-23.08
-19.58
-16.07
-12.36
-8.22
-3.62
1.08
5.36
8.83
11.54
14.00
16.92
20.81
25.67
30.90
35.58
38.91
40.52
40.65
39.93
39.09
38.61
38.51
38.49
38.08
37.01
35.28
33.18
31.09
29.23
27.57
25.83
23.64
20.76
17.17
13.11
8.90
4.86
1.08
-2.51
-6.11
-9.89
-13.91
-18.15
-22.52
-26.99
-31.54
-36.11
-40.41
-43.85
-45.55
-44.66
-40.75
-34.03
-25.40
-16.15
-7.50
-0.27
5.26
9.23
11.93
13.65
14.62
15.08
15.31
15.68
16.49
17.90
19.89
22.29
24.85
27.43
29.94
32.34
34.60
36.57
38.02
38.59
38.03
36.25
33.51
30.28
27.12
24.37
21.98
19.65
16.95
13.71
10.15
6.77
4.03
2.17
0.98
-0.03
-1.42
-3.60
-6.71
-10.70
-15.43
-20.69
-26.20
-31.42
-35.61
-37.82
-37.19
-33.23
-26.06
-16.45
-5.65
4.89
14.01
21.02
25.83
28.72
30.19
30.68
30.49
29.84
28.92
27.91
26.95
26.12
25.36
24.57
23.62
22.51
21.26
19.99
18.77
17.58
16.35
14.92
13.14
10.89
8.12
4.92
1.44
-2.08
-5.40
-8.29
-10.62
-12.39
-13.74
-14.93
-16.29
-18.10
-20.50
-23.49
-26.87
-30.35
-33.51
-35.85
-36.78
-35.67
-32.10
-26.02
-17.99
-9.08
-0.63
6.29
11.24
14.44
16.57
18.35
20.14
21.90
23.32
24.12
24.20
23.69
22.85
21.87
20.91
19.99
19.19
18.56
18.12
17.84
17.54
17.03
16.10
14.68
12.83
10.71
8.51
6.45
4.66
3.24
2.21
1.47
0.81
-0.14
-1.73
-4.29
-7.96
-12.72
-18.48
-24.98
-31.91
-38.75
-44.78
-49.15
-51.11
-50.22
-46.51
-40.50
-32.99
-24.87
-16.89
-9.60
-3.33
1.76
5.72
8.72
11.03
12.88
14.44
15.72
16.66
17.23
17.48
17.55
17.63
17.84
18.22
18.65
19.02
19.23
19.29
19.27
19.30
19.36
19.31
18.86
17.73
15.77
13.00
9.67
6.07
2.42
-1.19
-4.84
-8.64
-12.68
-17.01
-21.66
-26.66
-32.03
-37.62
-43.09
-47.82
-51.07
-52.10
-50.46
-46.11
-39.44
-31.20
-22.27
-13.52
-5.57
1.24
6.88
11.51
15.36
18.65
21.49
23.93
25.96
27.58
28.79
29.68
30.34
30.91
31.49
32.13
32.77
33.29
33.52
33.32
32.61
31.43
29.91
28.18
26.38
24.54
22.65
20.61
18.30
15.62
12.59
9.29
5.90
2.57
-0.63
-3.81
-7.21
-11.08
-15.61
-20.76
-26.25
-31.62
-36.31
-39.74
-41.43
-41.03
-38.47
-34.05
-28.46
-22.59
-17.28
-12.95
-9.51
-6.44
-3.16
0.59
4.59
8.27
11.08
12.82
13.84
14.78
16.33
18.80
22.02
25.42
28.32
30.26
31.09
30.92
30.03
28.62
26.78
24.51
21.82
18.79
15.57
12.29
8.97
5.53
1.87
-2.06
-6.18
-10.33
-14.33
-18.12
-21.82
-25.73
-30.19
-35.38
-41.15
-46.83
-51.35
-53.50
-52.36
-47.70
-40.10
-30.78
-21.12
-12.22
-4.57
1.86
7.35
12.18
16.43
20.02
22.87
24.99
26.48
27.52
28.25
28.70
28.90
28.86
28.67
28.51
28.51
28.72
29.00
29.10
28.66
27.47
25.54
23.14
20.66
18.43
16.54
14.79
12.78
10.12
6.62
2.39
-2.28
-7.06
-11.66
-15.93
-19.90
-23.67
-27.45
-31.41
-35.68
-40.14
-44.38
-47.66
-49.16
-48.18
-44.48
-38.35
-30.57
-22.10
-13.81
-6.27
0.23
5.65
10.03
13.43
15.90
17.54
18.56
19.17
19.57
19.90
20.18
20.34
20.35
20.19
19.92
19.62
19.41
19.32
19.30
19.18
18.73
17.70
15.89
13.21
9.75
5.77
1.70
-2.01
-5.04
-7.36
-9.32
-11.48
-14.43
-18.51
-23.59
-29.08
-34.01
-37.38
-38.39
-36.70
-32.49
-26.36
-19.16
-11.75
-4.83
1.17
6.09
9.97
12.93
15.11
16.63
17.60
18.15
18.44
18.59
18.64
18.55
18.20
17.51
16.55
15.50
14.64
14.21
14.24
14.51
14.62
14.10
12.58
9.95
6.34
2.08
-2.41
-6.73
-10.61
-14.00
-17.09
-20.27
-23.98
-28.50
-33.80
-39.33
-44.16
-47.23
-47.65
-45.04
-39.65
-32.28
-23.96
-15.70
-8.22
-1.86
3.34
7.54
10.94
13.72
15.94
17.63
18.79
19.49
19.82
19.95
20.01
20.05
20.03
19.90
19.62
19.29
19.04
18.94
18.91
18.65
17.69
15.68
12.50
8.39
3.82
-0.70
-4.80
-8.43
-11.83
-15.38
-19.44
-24.20
-29.50
-34.90
-39.70
-43.08
-44.34
-43.09
-39.36
-33.59
-26.52
-18.95
-11.59
-4.88
1.01
6.14
10.68
14.74
18.36
21.46
23.91
25.66
26.76
27.37
27.72
27.97
28.20
28.43
28.63
28.83
29.08
29.43
29.89
30.38
30.75
30.88
30.63
29.97
28.90
27.46
25.72
23.79
21.78
19.86
18.19
16.81
15.68
14.60
13.36
11.81
9.89
7.73
5.49
3.35
1.33
-0.66
-2.78
-5.15
-7.85
-10.86
-14.08
-17.42
-20.74
-23.99
-27.17
-30.34
-33.65
-37.26
-41.33
-45.91
-50.88
-55.90
-60.39
-63.59
-64.71
-63.15
-58.68
-51.66
-42.88
-33.43
-24.33
-16.24
-9.36
-3.52
1.61
6.29
10.57
14.38
17.62
20.26
22.42
24.22
25.77
27.03
27.94
28.42
28.55
28.48
28.45
28.57
28.88
29.26
29.57
29.66
29.47
28.95
28.07
26.84
25.38
23.81
22.29
20.86
19.44
17.86
15.98
13.74
11.23
8.62
6.01
3.42
0.73
-2.17
-5.37
-8.79
-12.29
-15.69
-18.86
-21.79
-24.61
-27.50
-30.69
-34.40
-38.71
-43.59
-48.79
-53.76
-57.74
-59.83
-59.29
-55.81
-49.63
-41.56
-32.69
-24.07
-16.44
-10.08
-4.88
-0.55
3.25
6.72
9.99
13.05
15.79
18.13
19.97
21.26
22.04
22.37
22.34
22.03
21.52
20.92
20.28
19.67
19.10
18.50
17.75
16.66
15.13
13.07
10.53
7.61
4.52
1.40
-1.63
-4.58
-7.58
-10.78
-14.18
-17.47
-20.00
-21.00
-19.86
-16.50
-11.52
-6.03
-1.30
1.70
2.51
1.20
-1.84
-6.15
-11.27
-16.66
-21.59
-25.13
-26.44
-25.08
-21.27
-15.87
-10.04
-4.84
-0.80
2.11
4.36
6.49
8.89
11.62
14.46
17.11
19.25
20.72
21.53
21.83
21.83
21.69
21.47
21.13
20.66
20.14
19.74
19.63
19.82
20.10
20.13
19.60
18.40
16.69
14.75
12.87
11.17
9.57
7.88
5.92
3.58
0.91
-1.98
-4.92
-7.73
-10.32
-12.67
-14.89
-17.15
-19.64
-22.52
-25.88
-29.69
-33.82
-37.94
-41.57
-44.07
-44.83
-43.39
-39.64
-33.93
-26.97
-19.63
-12.74
-6.79
-1.87
2.22
5.83
9.21
12.39
15.27
17.68
19.52
20.85
21.86
22.74
23.59
24.40
25.07
25.51
25.74
25.84
25.95
26.17
26.45
26.64
26.50
25.83
24.49
22.56
20.20
17.69
15.19
12.79
10.45
8.07
5.54
2.84
0.00
-2.91
-5.84
-8.77
-11.75
-14.86
-18.21
-21.85
-25.79
-30.01
-34.45
-39.06
-43.69
-48.02
-51.52
-53.50
-53.33
-50.65
-45.58
-38.68
-30.76
-22.59
-14.71
-7.40
-0.76
5.12
10.12
14.15
17.22
19.45
21.10
22.40
23.52
24.48
25.27
25.85
26.20
26.37
26.40
26.39
26.42
26.53
26.68
26.70
26.39
25.52
24.03
22.03
19.76
17.48
15.36
13.35
11.31
9.04
6.45
3.58
0.56
-2.49
-5.48
-8.42
-11.38
-14.45
-17.67
-21.10
-24.79
-28.80
-33.08
-37.47
-41.54
-44.70
-46.27
-45.72
-42.83
-37.78
-31.12
-23.61
-16.03
-8.96
-2.71
2.67
7.24
11.14
14.40
17.01
18.93
20.14
20.73
20.89
20.86
20.87
21.03
21.40
21.88
22.38
22.80
23.06
23.14
23.00
22.59
21.88
20.81
19.42
17.79
16.07
14.41
12.87
11.43
9.99
8.35
6.40
4.04
1.31
-1.66
-4.73
-7.76
-10.74
-13.76
-17.03
-20.74
-24.99
-29.67
-34.48
-38.97
-42.60
-44.87
-45.38
-43.84
-40.22
-34.75
-27.91
-20.42
-13.09
-6.60
-1.36
2.55
5.38
7.57
9.51
11.45
13.41
15.23
16.71
17.75
18.36
18.69
18.89
19.05
19.15
19.18
19.13
19.06
19.05
19.14
19.19
18.99
18.33
17.10
15.36
13.31
11.18
9.09
7.11
5.17
3.20
1.12
-1.13
-3.56
-6.10
-8.65
-11.10
-13.42
-15.79
-18.51
-21.93
-26.16
-30.95
-35.65
-39.35
-41.24
-40.85
-38.19
-33.71
-28.03
-21.79
-15.45
-9.34
-3.69
1.27
5.35
8.47
10.75
12.41
13.75
14.95
16.03
16.82
17.18
17.05
16.51
15.83
15.29
15.06
15.19
15.54
15.92
16.16
16.14
15.80
15.13
14.12
12.78
11.16
9.36
7.49
5.66
3.86
1.99
-0.07
-2.43
-5.06
-7.84
-10.59
-13.20
-15.69
-18.18
-20.87
-23.98
-27.60
-31.64
-35.78
-39.43
-41.91
-42.58
-41.06
-37.35
-31.89
-25.37
-18.59
-12.14
-6.37
-1.39
2.90
6.61
9.80
12.43
14.45
15.83
16.63
16.99
17.11
17.14
17.17
17.20
17.21
17.18
17.13
17.09
17.07
16.98
16.71
16.12
15.15
13.84
12.34
10.74
9.06
7.21
5.00
2.28
-0.96
-4.52
-8.13
-11.52
-14.59
-17.40
-20.20
-23.20
-26.56
-30.28
-34.25
-38.21
-41.81
-44.62
-46.10
-45.76
-43.23
-38.47
-31.80
-23.91
-15.64
-7.81
-0.98
4.64
9.11
12.69
15.60
18.01
19.96
21.47
22.54
23.19
23.48
23.48
23.27
22.95
22.59
22.29
22.07
21.93
21.76
21.47
20.92
20.05
18.83
17.32
15.59
13.74
11.80
9.81
7.78
5.70
3.53
1.24
-1.21
-3.87
-6.80
-10.01
-13.48
-17.19
-21.17
-25.44
-30.06
-34.87
-39.50
-43.32
-45.52
-45.44
-42.74
-37.64
-30.77
-23.02
-15.26
-8.11
-1.88
3.35
7.60
10.99
13.61
15.63
17.23
18.56
19.78
20.90
21.90
22.70
23.24
23.49
23.47
23.26
23.00
22.83
22.85
23.01
23.14
23.01
22.40
21.30
19.85
18.28
16.77
15.28
13.59
11.42
8.62
5.29
1.71
-1.74
-4.84
-7.58
-10.17
-12.91
-16.06
-19.75
-23.99
-28.61
-33.34
-37.70
-41.11
-42.95
-42.71
-40.21
-35.65
-29.59
-22.81
-16.04
-9.81
-4.35
0.33
4.38
7.95
11.09
13.79
15.97
17.57
18.58
19.10
19.31
19.41
19.58
19.90
20.33
20.75
20.97
20.87
20.43
19.72
18.90
18.08
17.28
16.40
15.24
13.62
11.48
8.86
5.96
2.99
0.11
-2.67
-5.43
-8.30
-11.41
-14.79
-18.48
-22.46
-26.72
-31.16
-35.49
-39.17
-41.48
-41.72
-39.47
-34.82
-28.40
-21.17
-14.07
-7.72
-2.30
2.37
6.57
10.47
14.00
16.95
19.11
20.47
21.19
21.56
21.87
22.24
22.64
22.98
23.16
23.19
23.13
23.04
22.91
22.65
22.10
21.11
19.56
17.52
15.12
12.53
9.89
7.22
4.44
1.40
-1.98
-5.64
-9.39
-12.98
-16.26
-19.30
-22.39
-25.89
-30.08
-34.95
-40.14
-44.98
-48.69
-50.59
-50.22
-47.50
-42.66
-36.18
-28.57
-20.27
-11.55
-2.49
6.95
16.83
27.08
37.45
47.52
56.78
64.68
70.80
74.90
76.90
76.97
75.41
72.66
69.17
65.39
61.62
58.01
54.52
50.94
47.08
42.79
38.09
33.09
27.94
22.78
17.66
12.57
7.53
2.61
-2.06
-6.35
-10.21
-13.69
-16.98
-20.27
-23.69
-27.35
-31.29
-35.56
-40.20
-45.09
-49.91
-54.00
-56.54
-56.77
-54.30
-49.33
-42.59
-35.11
-27.85
-21.42
-15.93
-11.16
-6.75
-2.47
1.71
5.65
9.16
12.15
14.71
17.06
19.45
22.03
24.78
27.59
30.32
32.93
35.37
37.68
39.75
41.39
42.33
42.41
41.63
40.22
38.50
36.73
35.02
33.26
31.12
28.30
24.60
19.98
14.68
9.09
3.63
-1.37
-5.80
-9.83
-13.87
-18.40
-23.76
-30.02
-36.86
-43.62
-49.41
-53.32
-54.67
-53.24
-49.30
-43.59
-37.10
-30.70
-25.00
-20.26
-16.43
-13.29
-10.66
-8.38
-6.40
-4.69
-3.19
-1.87
-0.71
0.28
1.06
1.61
1.95
2.18
2.39
2.68
3.06
3.48
3.77
3.78
3.37
2.51
1.32
-0.01
-1.26
-2.31
-3.17
-4.01
-5.05
-6.46
-8.28
-10.41
-12.66
-14.84
-16.86
-18.74
-20.60
-22.62
-25.01
-27.97
-31.61
-35.86
-40.33
-44.30
-46.82
-47.02
-44.48
-39.35
-32.43
-24.77
-17.38
-10.87
-5.38
-0.75
3.29
6.87
10.05
12.72
14.83
16.40
17.50
18.27
18.84
19.32
19.73
20.07
20.28
20.38
20.44
20.64
21.08
21.73
22.40
22.75
22.45
21.37
19.64
17.58
15.49
13.57
11.81
10.04
8.09
5.89
3.52
1.11
-1.18
-3.31
-5.32
-7.37
-9.58
-12.09
-14.97
-18.19
-21.62
-24.91
-27.51
-28.76
-28.08
-25.14
-20.02
-13.21
-5.49
2.26
9.31
15.16
19.59
22.60
24.40
25.28
25.54
25.42
25.05
24.43
23.56
22.49
21.33
20.29
19.53
19.07
18.87
18.81
18.81
18.89
19.11
19.57
20.29
21.17
22.04
22.67
22.85
22.41
21.28
19.40
16.87
13.78
10.26
6.45
2.48
-1.60
-5.75
-10.01
-14.47
-19.25
-24.45
-30.01
-35.60
-40.63
-44.35
-46.00
-45.13
-41.77
-36.41
-29.86
-22.98
-16.45
-10.65
-5.64
-1.35
2.30
5.34
7.75
9.52
10.66
11.28
11.49
11.46
11.34
11.31
11.46
11.82
12.31
12.79
13.10
13.19
13.09
12.88
12.61
12.17
11.40
10.14
8.37
6.25
4.05
1.97
0.03
-1.97
-4.33
-7.25
-10.73
-14.49
-18.19
-21.55
-24.49
-27.22
-30.09
-33.47
-37.61
-42.55
-48.01
-53.43
-57.99
-60.81
-61.18
-58.78
-53.84
-47.09
-39.49
-31.96
-25.09
-19.08
-13.82
-9.14
-4.93
-1.21
1.87
4.23
5.86
6.89
7.49
7.84
8.07
8.25
8.42
8.64
8.98
9.55
10.42
11.57
12.82
13.89
14.45
14.30
13.41
11.97
10.23
8.41
6.55
4.51
2.13
-0.68
-3.82
-7.06
-10.10
-12.70
-14.81
-16.52
-18.01
-19.55
-21.43
-23.94
-27.22
-31.16
-35.32
-38.95
-41.15
-41.17
-38.71
-33.96
-27.59
-20.51
-13.56
-7.35
-2.13
2.14
5.66
8.63
11.16
13.26
14.92
16.14
17.02
17.71
18.35
19.00
19.62
20.15
20.58
21.02
21.66
22.67
24.01
25.44
26.56
26.98
26.48
25.08
23.03
20.63
18.15
15.70
13.25
10.72
8.06
5.27
2.40
-0.48
-3.33
-6.14
-8.93
-11.73
-14.69
-18.02
-22.00
-26.83
-32.47
-38.48
-44.04
-48.18
-50.03
-49.15
-45.66
-40.15
-33.50
-26.51
-19.75
-13.47
-7.72
-2.46
2.34
6.63
10.39
13.65
16.58
19.43
22.44
25.79
29.43
33.13
36.50
39.18
40.93
41.72
41.70
41.07
39.95
38.30
35.99
32.94
29.23
25.08
20.75
16.44
12.19
7.97
3.69
-0.60
-4.71
-8.39
-11.40
-13.69
-15.41
-16.90
-18.60
-20.95
-24.20
-28.32
-32.99
-37.57
-41.31
-43.47
-43.55
-41.43
-37.42
-32.15
-26.37
-20.73
-15.62
-11.16
-7.25
-3.72
-0.49
2.47
5.10
7.37
9.21
10.65
11.73
12.57
13.32
14.13
15.16
16.44
17.90
19.36
20.61
21.52
22.01
22.11
21.81
21.10
19.88
18.06
15.65
12.76
9.56
6.23
2.87
-0.56
-4.19
-8.14
-12.50
-17.28
-22.39
-27.62
-32.72
-37.26
-40.70
-42.43
-41.91
-38.85
-33.37
-26.05
-17.73
-9.36
-1.65
5.02
10.62
15.37
19.55
23.35
26.83
29.93
32.60
34.81
36.63
38.19
39.55
40.75
41.74
42.45
42.86
42.96
42.85
42.60
42.21
41.58
40.58
39.05
36.92
34.26
31.25
28.07
24.87
21.68
18.39
14.84
10.87
6.45
1.64
-3.36
-8.28
-12.90
-17.16
-21.18
-25.28
-29.85
-35.18
-41.28
-47.74
-53.76
-58.35
-60.53
-59.72
-55.88
-49.55
-41.66
-33.24
-25.12
-17.79
-11.33
-5.61
-0.43
4.37
8.83
12.95
16.68
20.00
22.84
25.14
26.84
27.92
28.48
28.74
28.99
29.48
30.32
31.41
32.50
33.21
33.21
32.34
30.57
28.10
25.21
22.17
19.19
16.36
13.60
10.76
7.63
4.08
0.07
-4.22
-8.52
-12.56
-16.22
-19.61
-23.09
-27.09
-31.86
-37.35
-43.08
-48.22
-51.81
-53.01
-51.36
-46.92
-40.17
-31.98
-23.29
-14.94
-7.52
-1.26
3.91
8.28
12.18
15.81
19.21
22.26
24.76
26.57
27.72
28.36
28.73
29.01
29.32
29.64
29.91
30.09
30.20
30.28
30.31
30.17
29.65
28.56
26.78
24.35
21.50
18.55
15.80
13.36
11.16
8.97
6.54
3.70
0.40
-3.33
-7.48
-12.08
-17.15
-22.54
-27.82
-32.21
-34.79
-34.75
-31.64
-25.53
-16.90
-6.49
4.96
16.71
28.05
38.27
46.66
52.62
55.81
56.17
53.97
49.70
43.94
37.30
30.36
23.67
17.69
12.72
8.91
6.18
4.31
3.00
1.85
0.53
-1.26
-3.62
-6.51
-9.72
-12.97
-16.05
-18.87
-21.50
-24.09
-26.77
-29.60
-32.52
-35.49
-38.45
-41.45
-44.61
-48.12
-52.06
-56.33
-60.54
-64.00
-65.87
-65.37
-62.06
-55.99
-47.76
-38.25
-28.44
-19.12
-10.74
-3.47
2.75
8.04
12.55
16.39
19.65
22.36
24.58
26.32
27.65
28.68
29.59
30.55
31.61
32.73
33.75
34.50
34.84
34.74
34.23
33.37
32.15
30.56
28.56
26.16
23.39
20.35
17.09
13.62
9.94
6.06
2.01
-2.12
-6.29
-10.49
-14.81
-19.49
-24.72
-30.59
-36.88
-42.99
-48.01
-50.96
-51.09
-48.15
-42.50
-34.98
-26.59
-18.18
-10.32
-3.24
2.98
8.24
12.45
15.56
17.68
19.09
20.17
21.25
22.45
23.73
24.89
25.76
26.30
26.63
26.95
27.47
28.25
29.16
29.92
30.20
29.77
28.58
26.80
24.68
22.49
20.35
18.23
16.01
13.52
10.64
7.32
3.60
-0.41
-4.52
-8.49
-12.16
-15.51
-18.75
-22.31
-26.66
-32.09
-38.50
-45.27
-51.36
-55.61
-57.04
-55.21
-50.35
-43.23
-34.92
-26.46
-18.56
-11.55
-5.42
-0.03
4.76
9.03
12.77
15.94
18.56
20.65
22.29
23.55
24.50
25.18
25.64
25.90
25.94
25.75
25.32
24.68
23.88
22.94
21.87
20.61
19.11
17.32
15.19
12.71
9.87
6.67
3.17
-0.55
-4.31
-7.96
-11.45
-14.84
-18.35
-22.24
-26.77
-31.97
-37.64
-43.24
-48.00
-51.04
-51.61
-49.31
-44.30
-37.26
-29.16
-20.99
-13.49
-6.97
-1.35
3.64
8.23
12.54
16.44
19.73
22.24
23.92
24.91
25.44
25.79
26.14
26.51
26.85
27.04
27.00
26.73
26.26
25.59
24.70
23.51
21.96
20.01
17.64
14.81
11.52
7.82
3.81
-0.32
-4.38
-8.27
-11.98
-15.61
-19.34
-23.29
-27.55
-32.09
-36.76
-41.20
-44.88
-47.11
-47.27
-44.99
-40.32
-33.74
-26.06
-18.17
-10.73
-4.09
1.74
6.89
11.49
15.57
19.06
21.89
24.10
25.79
27.12
28.22
29.09
29.72
30.10
30.29
30.40
30.51
30.62
30.63
30.36
29.68
28.51
26.89
24.94
22.82
20.67
18.59
16.54
14.44
12.10
9.35
6.06
2.22
-2.07
-6.60
-11.11
-15.40
-19.37
-23.16
-27.05
-31.40
-36.47
-42.16
-47.94
-52.92
-56.06
-56.55
-54.01
-48.69
-41.31
-32.81
-24.07
-15.71
-8.04
-1.13
5.02
10.44
15.07
18.88
21.94
24.39
26.47
28.42
30.37
32.35
34.19
35.72
36.80
37.44
37.85
38.29
39.01
40.08
41.27
42.15
42.22
41.08
38.65
35.15
31.02
26.67
22.33
17.92
13.26
8.13
2.52
-3.41
-9.35
-15.02
-20.22
-24.89
-29.08
-32.96
-36.76
-40.78
-45.26
-50.21
-55.33
-59.94
-63.17
-64.16
-62.37
-57.75
-50.75
-42.21
-33.02
-24.02
-15.73
-8.42
-2.06
3.47
8.30
12.54
16.24
19.43
22.08
24.22
25.82
26.92
27.63
28.08
28.44
28.81
29.23
29.61
29.84
29.75
29.24
28.24
26.69
24.60
21.98
18.95
15.64
12.20
8.72
5.20
1.63
-2.01
-5.66
-9.27
-12.71
-15.96
-19.10
-22.31
-25.84
-29.92
-34.61
-39.70
-44.62
-48.52
-50.45
-49.68
-45.92
-39.54
-31.42
-22.71
-14.44
-7.24
-1.27
3.68
7.95
11.73
15.02
17.70
19.58
20.65
21.08
21.19
21.26
21.48
21.88
22.35
22.80
23.11
23.21
23.05
22.60
21.84
20.83
19.66
18.36
16.91
15.17
12.97
10.21
6.91
3.26
-0.51
-4.17
-7.64
-11.00
-14.42
-18.16
-22.46
-27.49
-33.18
-39.12
-44.59
-48.58
-50.16
-48.75
-44.31
-37.41
-29.00
-20.09
-11.48
-3.65
3.28
9.30
14.47
18.78
22.21
24.74
26.41
27.35
27.72
27.70
27.48
27.23
27.03
26.93
26.91
26.90
26.87
26.80
26.70
26.51
26.09
25.28
23.90
21.89
19.37
16.57
13.70
10.83
7.86
4.55
0.73
-3.59
-8.17
-12.66
-16.80
-20.54
-24.14
-28.12
-32.91
-38.72
-45.31
-51.95
-57.60
-61.18
-61.82
-59.16
-53.39
-45.26
-35.84
-26.24
-17.31
-9.49
-2.80
3.00
8.21
13.01
17.38
21.21
24.41
26.99
29.10
30.91
32.56
34.07
35.43
36.54
37.27
37.36
36.47
34.25
30.55
25.63
20.10
14.74
10.25
6.94
4.72
3.19
1.93
0.64
-0.87
-2.69
-4.89
-7.54
-10.58
-13.80
-16.92
-19.72
-22.15
-24.44
-26.97
-30.17
-34.34
-39.47
-45.21
-50.84
-55.28
-57.45
-56.49
-52.12
-44.77
-35.49
-25.62
-16.34
-8.38
-1.87
3.45
7.98
12.01
15.63
18.74
21.26
23.15
24.51
25.51
26.30
27.06
27.85
28.70
29.56
30.38
31.04
31.41
31.37
30.83
29.75
28.17
26.17
23.83
21.19
18.23
14.94
11.31
7.40
3.36
-0.64
-4.48
-8.11
-11.62
-15.14
-18.83
-22.84
-27.32
-32.28
-37.55
-42.68
-46.92
-49.38
-49.30
-46.37
-40.82
-33.44
-25.21
-17.04
-9.50
-2.77
3.20
8.51
13.20
17.19
20.37
22.69
24.24
25.17
25.73
26.14
26.54
26.98
27.39
27.63
27.54
27.04
26.19
25.16
24.14
23.18
22.21
20.97
19.18
16.71
13.61
10.14
6.61
3.24
0.06
-3.08
-6.46
-10.34
-14.90
-20.20
-26.17
-32.54
-38.88
-44.51
-48.62
-50.42
-49.44
-45.63
-39.50
-31.94
-23.93
-16.32
-9.63
-3.99
0.73
4.75
8.25
11.27
13.79
15.73
17.06
17.84
18.24
18.43
18.60
18.84
19.20
19.66
20.17
20.68
21.15
21.46
21.48
21.04
20.02
18.39
16.25
13.79
11.19
8.53
5.78
2.82
-0.47
-4.11
-8.00
-11.98
-15.97
-20.00
-24.23
-28.93
-34.29
-40.32
-46.70
-52.79
-57.64
-60.23
-59.76
-55.90
-48.97
-39.77
-29.44
-19.04
-9.29
-0.55
7.16
13.97
20.00
25.31
29.94
33.98
37.59
40.98
44.34
47.75
51.14
54.40
57.35
59.94
62.35
64.95
68.40
73.36
80.36
89.48
100.29
111.83
122.99
132.67
140.13
144.94
146.86
145.65
140.94
132.42
120.00
104.11
85.63
65.77
45.68
26.14
7.40
-10.86
-29.20
-48.08
-67.41
-86.36
-103.44
-116.89
-125.38
-128.49
-126.94
-122.17
-115.78
-108.83
-101.53
-93.38
-83.58
-71.53
-57.16
-41.12
-24.66
-9.34
3.33
12.39
17.65
19.75
19.78
18.85
17.54
15.86
13.38
9.66
4.55
-1.82
-9.13
-17.15
-25.70
-34.52
-43.13
-50.82
-56.88
-60.84
-62.70
-62.88
-61.96
-60.52
-58.92
-57.38
-56.14
-55.51
-55.67
-56.54
-57.62
-58.03
-56.83
-53.35
-47.50
-39.71
-30.76
-21.48
-12.46
-4.06
3.53
10.18
15.73
19.97
22.77
24.09
24.06
22.90
20.87
18.27
15.31
12.23
9.22
6.49
4.21
2.48
1.28
0.50
-0.05
-0.51
-0.97
-1.48
-2.00
-2.49
-2.96
-3.45
-4.03
-4.80
-5.93
-7.65
-10.26
-14.00
-19.02
-25.08
-31.58
-37.49
-41.61
-42.91
-40.92
-35.88
-28.65
-20.46
-12.39
-5.10
1.27
7.01
12.50
18.00
23.51
28.79
33.47
37.18
39.62
40.63
40.23
38.66
36.30
33.62
31.05
28.88
27.22
25.96
24.94
23.99
22.99
21.95
20.86
19.67
18.25
16.42
14.01
10.96
7.31
3.25
-1.00
-5.20
-9.23
-13.05
-16.78
-20.65
-24.98
-30.02
-35.85
-42.17
-48.30
-53.23
-55.90
-55.53
-51.86
-45.26
-36.59
-26.92
-17.26
-8.30
-0.36
6.51
12.41
17.43
21.65
25.09
27.78
29.79
31.19
32.06
32.42
32.33
31.86
31.22
30.64
30.36
30.43
30.70
30.79
30.31
28.98
26.76
23.90
20.80
17.87
15.41
13.49
11.98
10.60
9.04
7.05
4.48
1.35
-2.18
-5.95
-9.86
-14.00
-18.58
-23.93
-30.26
-37.42
-44.86
-51.58
-56.35
-58.06
-56.06
-50.37
-41.68
-31.16
-20.13
-9.66
-0.41
7.40
13.95
19.52
24.36
28.60
32.18
34.93
36.73
37.55
37.51
36.88
35.94
35.00
34.24
33.75
33.54
33.50
33.49
33.29
32.67
31.42
29.48
26.96
24.19
21.52
19.23
17.33
15.59
13.61
11.02
7.68
3.72
-0.54
-4.73
-8.58
-12.05
-15.31
-18.67
-22.54
-27.22
-32.74
-38.76
-44.41
-48.59
-50.17
-48.44
-43.33
-35.49
-25.99
-16.03
-6.58
1.79
8.77
14.27
18.24
20.74
21.98
22.30
22.13
21.85
21.71
21.81
22.16
22.75
23.61
24.70
25.89
26.95
27.62
27.71
27.19
26.14
24.77
23.18
21.46
19.53
17.29
14.64
11.50
7.89
3.87
-0.40
-4.71
-8.85
-12.70
-16.28
-19.79
-23.57
-27.88
-32.81
-38.00
-42.72
-45.94
-46.78
-44.71
-39.84
-32.80
-24.53
-15.96
-7.80
-0.48
5.82
10.99
15.02
17.93
19.85
20.94
21.48
21.75
22.11
22.86
24.23
26.25
28.73
31.30
33.52
35.12
36.00
36.26
36.02
35.36
34.22
32.54
30.25
27.40
24.08
20.34
16.18
11.59
6.60
1.33
-4.03
-9.31
-14.41
-19.34
-24.22
-29.28
-34.77
-40.83
-47.35
-53.80
-59.28
-62.63
-62.91
-59.63
-53.08
-44.17
-34.14
-24.15
-14.93
-6.75
0.49
7.00
12.89
18.11
22.56
26.13
28.82
30.73
31.94
32.57
32.65
32.27
31.56
30.76
30.09
29.67
29.42
29.06
28.25
26.72
24.45
21.59
18.39
15.10
11.82
8.53
5.14
1.59
-2.16
-6.08
-10.18
-14.41
-18.69
-22.93
-26.97
-30.81
-34.62
-38.75
-43.57
-49.17
-55.20
-60.71
-64.47
-65.24
-62.31
-55.70
-46.17
-35.01
-23.55
-12.83
-3.39
4.63
11.36
16.92
21.38
24.74
27.11
28.66
29.69
30.47
31.11
31.57
31.72
31.52
31.04
30.52
30.21
30.23
30.48
30.67
30.45
29.57
27.97
25.79
23.27
20.68
18.19
15.84
13.52
11.02
8.15
4.73
0.73
-3.72
-8.38
-12.92
-17.08
-20.76
-24.08
-27.44
-31.31
-36.12
-41.98
-48.51
-54.85
-59.73
-61.88
-60.36
-54.93
-46.15
-35.19
-23.53
-12.47
-2.87
4.92
11.03
15.82
19.68
22.90
25.64
27.90
29.57
30.57
30.85
30.51
29.79
28.96
28.22
27.65
27.22
26.85
26.45
25.95
25.28
24.34
23.01
21.21
18.95
16.33
13.51
10.59
7.57
4.36
0.89
-2.79
-6.56
-10.25
-13.80
-17.27
-20.87
-24.87
-29.52
-34.91
-40.90
-47.04
-52.55
-56.32
-57.30
-54.74
-48.57
-39.52
-28.89
-18.14
-8.41
-0.26
6.33
11.70
16.18
19.93
22.88
24.92
26.05
26.42
26.36
26.16
26.04
26.05
26.18
26.32
26.43
26.47
26.43
26.24
25.79
24.94
23.60
21.76
19.49
16.89
13.96
10.64
6.85
2.60
-1.96
-6.61
-11.14
-15.49
-19.74
-24.10
-28.79
-33.96
-39.66
-45.75
-51.86
-57.35
-61.30
-62.72
-60.86
-55.48
-47.03
-36.55
-25.33
-14.53
-4.93
3.18
9.82
15.15
19.32
22.44
24.64
26.10
27.04
27.63
27.94
27.98
27.72
27.24
26.69
26.33
26.29
26.60
27.09
27.46
27.44
26.84
25.62
23.83
21.60
19.04
16.25
13.27
10.09
6.67
2.96
-1.10
-5.52
-10.22
-15.07
-19.91
-24.61
-29.14
-33.65
-38.41
-43.64
-49.32
-54.94
-59.51
-61.84
-60.89
-56.19
-48.07
-37.59
-26.15
-15.08
-5.30
2.82
9.33
14.53
18.75
22.22
25.04
27.20
28.69
29.57
29.98
30.17
30.28
30.37
30.36
30.15
29.68
29.07
28.47
27.99
27.56
26.90
25.73
23.86
21.41
18.68
16.05
13.72
11.63
9.48
6.92
3.72
-0.12
-4.38
-8.73
-12.89
-16.73
-20.34
-24.01
-28.15
-33.11
-39.04
-45.67
-52.27
-57.72
-60.81
-60.60
-56.68
-49.41
-39.77
-29.07
-18.55
-9.08
-1.04
5.60
11.11
15.77
19.74
23.05
25.62
27.42
28.48
28.94
28.99
28.86
28.69
28.58
28.55
28.60
28.66
28.67
28.52
28.11
27.34
26.13
24.49
22.43
19.99
17.17
13.94
10.27
6.19
1.82
-2.67
-7.06
-11.24
-15.21
-19.11
-23.19
-27.74
-32.99
-39.02
-45.61
-52.14
-57.62
-60.91
-60.97
-57.25
-49.99
-40.10
-28.91
-17.81
-7.86
0.36
6.77
11.61
15.31
18.25
20.74
22.84
24.46
25.41
25.60
25.14
24.40
23.82
23.66
23.95
24.40
24.66
24.48
23.90
23.08
22.18
21.17
19.77
17.65
14.57
10.57
5.98
1.28
-3.12
-7.02
-10.51
-13.86
-17.42
-21.45
-26.13
-31.51
-37.56
-44.05
-50.49
-56.04
-59.62
-60.14
-56.92
-49.95
-39.98
-28.36
-16.57
-5.83
3.19
10.40
16.14
20.84
24.82
28.20
30.89
32.78
33.82
34.08
33.80
33.21
32.56
32.00
31.63
31.48
31.54
31.74
31.92
31.83
31.17
29.69
27.30
24.11
20.45
16.70
13.19
10.03
7.13
4.17
0.86
-2.99
-7.32
-11.86
-16.27
-20.29
-23.87
-27.17
-30.59
-34.62
-39.67
-45.88
-52.93
-59.91
-65.49
-68.23
-67.06
-61.70
-52.75
-41.50
-29.48
-17.98
-7.78
0.83
7.88
13.53
17.97
21.36
23.97
26.07
27.96
29.76
31.47
32.93
33.94
34.43
34.43
34.15
33.82
33.63
33.61
33.70
33.72
33.44
32.63
31.10
28.78
25.73
22.24
18.68
15.39
12.48
9.74
6.79
3.21
-1.12
-6.00
-10.97
-15.53
-19.42
-22.76
-25.95
-29.58
-34.16
-39.91
-46.70
-53.91
-60.52
-65.27
-66.95
-64.80
-58.70
-49.34
-37.99
-26.12
-15.00
-5.37
2.61
9.16
14.65
19.33
23.28
26.42
28.67
30.05
30.73
30.92
30.87
30.78
30.76
30.87
31.13
31.55
32.07
32.61
32.95
32.91
32.30
31.01
29.07
26.58
23.70
20.57
17.28
13.81
10.06
5.96
1.46
-3.33
-8.21
-12.94
-17.35
-21.46
-25.50
-29.88
-35.02
-41.11
-47.93
-54.74
-60.41
-63.66
-63.47
-59.41
-51.79
-41.59
-30.17
-18.85
-8.56
0.22
7.48
13.46
18.41
22.45
25.55
27.61
28.56
28.46
27.60
26.43
25.41
24.89
24.98
25.55
26.30
26.89
27.10
26.89
26.33
25.50
24.44
23.04
21.14
18.55
15.14
10.97
6.19
1.14
-3.87
-8.54
-12.77
-16.63
-20.38
-24.39
-29.03
-34.55
-40.96
-47.87
-54.46
-59.56
-61.93
-60.64
-55.40
-46.72
-35.78
-24.03
-12.77
-2.86
5.38
12.07
17.52
22.01
25.72
28.67
30.85
32.27
32.98
33.12
32.88
32.47
32.04
31.71
31.47
31.28
31.07
30.72
30.13
29.22
27.89
26.12
23.96
21.50
18.84
16.00
12.96
9.59
5.76
1.37
-3.51
-8.66
-13.77
-18.50
-22.74
-26.60
-30.49
-34.96
-40.52
-47.30
-54.85
-62.09
-67.52
-69.65
-67.54
-61.04
-50.98
-38.77
-26.00
-13.99
-3.53
5.15
12.18
17.88
22.52
26.30
29.34
31.69
33.39
34.51
35.12
35.31
35.19
34.88
34.50
34.17
33.95
33.83
33.72
33.41
32.71
31.46
29.62
27.28
24.61
21.81
18.95
15.98
12.77
9.12
4.93
0.19
-4.98
-10.32
-15.56
-20.46
-24.93
-29.10
-33.32
-38.03
-43.63
-50.21
-57.34
-64.05
-68.95
-70.63
-68.09
-61.17
-50.61
-37.93
-24.92
-13.05
-3.13
4.83
11.33
16.98
22.08
26.59
30.21
32.68
33.99
34.41
34.33
34.09
33.86
33.67
33.47
33.25
33.02
32.75
32.39
31.81
30.85
29.38
27.39
24.91
22.05
18.89
15.48
11.76
7.72
3.37
-1.19
-5.76
-10.16
-14.28
-18.17
-22.02
-26.17
-30.93
-36.55
-43.03
-50.00
-56.68
-61.96
-64.59
-63.61
-58.65
-50.15
-39.20
-27.24
-15.63
-5.31
3.35
10.43
16.20
20.96
24.89
28.03
30.38
31.92
32.73
32.96
32.80
32.47
32.15
31.94
31.90
32.02
32.14
32.05
31.52
30.41
28.69
26.46
23.89
21.09
18.05
14.65
10.79
6.46
1.84
-2.80
-7.20
-11.26
-15.06
-18.88
-23.04
-27.85
-33.50
-39.96
-46.91
-53.72
-59.39
-62.76
-62.82
-58.98
-51.40
-40.94
-28.97
-16.95
-6.04
3.14
10.50
16.29
20.88
24.57
27.52
29.81
31.49
32.61
33.19
33.31
33.04
32.48
31.78
31.15
30.75
30.65
30.74
30.80
30.53
29.68
28.10
25.89
23.20
20.28
17.26
14.17
10.93
7.40
3.54
-0.65
-5.03
-9.44
-13.75
-17.92
-22.05
-26.33
-31.07
-36.56
-42.96
-50.09
-57.36
-63.69
-67.75
-68.29
-64.64
-56.88
-45.97
-33.43
-20.86
-9.52
-0.02
7.62
13.74
18.78
22.97
26.42
29.10
30.98
32.12
32.68
32.83
32.73
32.52
32.32
32.25
32.41
32.86
33.56
34.38
35.09
35.40
35.07
33.92
31.89
29.11
25.84
22.37
18.91
15.52
12.03
8.20
3.79
-1.20
-6.52
-11.76
-16.51
-20.61
-24.24
-27.90
-32.20
-37.70
-44.56
-52.48
-60.63
-67.76
-72.43
-73.44
-70.13
-62.68
-52.04
-39.66
-27.07
-15.44
-5.39
2.98
9.92
15.71
20.54
24.48
27.54
29.77
31.34
32.49
33.41
34.20
34.85
35.29
35.48
35.49
35.52
35.74
36.18
36.67
36.87
36.40
34.99
32.62
29.51
25.96
22.29
18.76
15.43
12.22
8.93
5.31
1.16
-3.56
-8.66
-13.85
-18.79
-23.38
-27.75
-32.29
-37.50
-43.68
-50.72
-58.01
-64.48
-68.83
-69.91
-67.09
-60.41
-50.68
-39.16
-27.23
-16.00
-6.10
2.30
9.35
15.24
20.11
23.98
26.81
28.66
29.69
30.19
30.43
30.61
30.84
31.08
31.23
31.23
31.02
30.61
30.02
29.29
28.41
27.38
26.10
24.43
22.21
19.30
15.65
11.38
6.73
2.01
-2.52
-6.74
-10.71
-14.64
-18.79
-23.45
-28.88
-35.17
-42.18
-49.36
-55.77
-60.16
-61.34
-58.56
-51.84
-42.01
-30.41
-18.53
-7.57
1.82
9.48
15.56
20.33
24.03
26.84
28.93
30.40
31.28
31.63
31.45
30.90
30.19
29.61
29.34
29.39
29.59
29.68
29.40
28.68
27.52
26.04
24.29
22.23
19.75
16.71
13.05
8.79
4.09
-0.84
-5.78
-10.58
-15.18
-19.66
-24.22
-29.09
-34.56
-40.77
-47.63
-54.72
-61.12
-65.63
-67.00
-64.38
-57.69
-47.67
-35.68
-23.29
-11.77
-1.84
6.31
12.91
18.31
22.82
26.64
29.84
32.44
34.43
35.80
36.62
36.98
37.03
36.91
36.72
36.51
36.28
36.01
35.70
35.29
34.62
33.49
31.66
29.01
25.62
21.78
17.83
14.05
10.50
7.00
3.25
-1.01
-5.85
-11.08
-16.36
-21.38
-25.99
-30.26
-34.52
-39.20
-44.72
-51.28
-58.63
-65.96
-71.96
-75.14
-74.24
-68.80
-59.27
-46.96
-33.60
-20.73
-9.39
0.07
7.79
14.18
19.57
24.17
28.04
31.19
33.63
35.38
36.51
37.11
37.29
37.21
37.03
36.90
36.91
37.06
37.24
37.26
36.88
35.90
34.22
31.86
29.01
25.88
22.69
19.46
16.11
12.47
8.36
3.75
-1.22
-6.29
-11.21
-15.86
-20.26
-24.61
-29.21
-34.42
-40.53
-47.57
-55.23
-62.71
-68.78
-72.03
-71.35
-66.27
-57.22
-45.44
-32.61
-20.31
-9.62
-0.90
6.04
11.69
16.50
20.68
24.20
26.91
28.70
29.56
29.71
29.46
29.15
28.99
29.04
29.16
29.17
28.95
28.49
27.86
27.15
26.29
25.09
23.24
20.48
16.79
12.34
7.52
2.76
-1.66
-5.61
-9.19
-12.68
-16.42
-20.80
-26.13
-32.56
-39.92
-47.59
-54.53
-59.41
-61.00
-58.54
-51.99
-42.10
-30.20
-17.78
-6.12
3.95
12.12
18.48
23.33
27.01
29.79
31.85
33.26
34.07
34.36
34.24
33.86
33.41
33.01
32.71
32.46
32.18
31.76
31.10
30.11
28.76
27.03
24.91
22.38
19.41
15.93
11.87
7.30
2.38
-2.60
-7.37
-11.78
-15.88
-19.87
-24.08
-28.80
-34.24
-40.51
-47.57
-55.07
-62.34
-68.33
-71.78
-71.59
-67.22
-58.89
-47.61
-34.86
-22.12
-10.52
-0.61
7.59
14.39
20.18
25.25
29.69
33.47
36.47
38.57
39.73
40.02
39.54
38.52
37.18
35.83
34.73
34.13
34.05
34.33
34.60
34.37
33.21
30.98
27.85
24.25
20.72
17.61
14.97
12.50
9.73
6.26
1.92
-3.12
-8.45
-13.59
-18.22
-22.34
-26.27
-30.62
-35.98
-42.70
-50.62
-58.92
-66.22
-70.93
-71.65
-67.72
-59.42
-47.93
-34.91
-22.08
-10.66
-1.17
6.47
12.74
18.14
23.02
27.42
31.21
34.19
36.23
37.39
37.91
38.09
38.24
38.57
39.09
39.69
40.17
40.31
39.95
39.10
38.02
37.18
37.12
38.21
40.29
42.61
43.99
43.20
39.38
32.39
22.73
11.29
-0.99
-13.31
-25.13
-36.03
-45.75
-54.23
-61.66
-68.35
-74.51
-79.99
-84.06
-85.67
-83.72
-77.64
-67.61
-54.63
-40.15
-25.74
-12.61
-1.51
7.33
14.04
18.96
22.47
24.91
26.52
27.43
27.72
27.46
26.78
25.86
24.85
23.84
22.87
21.92
21.03
20.21
19.47
18.64
17.44
15.55
12.78
9.25
5.37
1.59
-1.78
-4.82
-8.01
-11.98
-17.30
-24.06
-31.76
-39.36
-45.47
-48.78
-48.46
-44.36
-37.11
-27.86
-17.92
-8.43
-0.10
6.82
12.40
16.89
20.58
23.68
26.30
28.49
30.17
31.25
31.68
31.51
30.99
30.46
30.28
30.65
31.50
32.59
33.51
33.89
33.47
32.20
30.17
27.57
24.58
21.30
17.74
13.84
9.50
4.70
-0.50
-5.95
-11.47
-16.87
-22.02
-26.91
-31.61
-36.35
-41.46
-47.24
-53.83
-60.86
-67.43
-72.14
-73.54
-70.62
-63.30
-52.44
-39.62
-26.57
-14.63
-4.48
3.83
10.63
16.35
21.31
25.63
29.36
32.47
34.92
36.70
37.83
38.36
38.48
38.38
38.24
38.15
38.07
37.91
37.50
36.72
35.48
33.75
31.57
28.97
26.06
22.94
19.68
16.33
12.83
9.06
4.99
0.60
-4.04
-8.76
-13.40
-17.87
-22.16
-26.44
-31.03
-36.30
-42.54
-49.71
-57.25
-64.10
-68.82
-70.11
-67.15
-59.99
-49.51
-37.09
-24.22
-12.10
-1.46
7.42
14.56
20.14
24.41
27.64
30.09
31.96
33.39
34.41
35.01
35.22
35.09
34.74
34.31
33.96
33.80
33.87
34.12
34.36
34.32
33.67
32.21
29.88
26.88
23.50
20.06
16.68
13.31
9.74
5.75
1.27
-3.64
-8.75
-13.79
-18.58
-23.05
-27.30
-31.57
-36.21
-41.57
-47.94
-55.23
-62.83
-69.56
-73.88
-74.33
-70.14
-61.53
-49.69
-36.36
-23.26
-11.56
-1.70
6.46
13.28
19.08
23.97
27.93
30.94
33.09
34.60
35.70
36.51
37.01
37.14
36.81
36.11
35.29
34.65
34.40
34.54
34.76
34.59
33.59
31.54
28.52
24.86
20.97
17.16
13.52
9.93
6.14
1.94
-2.75
-7.81
-12.98
-17.97
-22.62
-26.95
-31.20
-35.77
-41.05
-47.20
-54.02
-60.79
-66.39
-69.49
-68.95
-64.20
-55.47
-43.77
-30.61
-17.54
-5.77
4.02
11.69
17.41
21.53
24.40
26.32
27.59
28.42
28.95
29.24
29.37
29.37
29.38
29.50
29.78
30.13
30.34
30.22
29.65
28.66
27.34
25.83
24.10
22.04
19.46
16.18
12.19
7.61
2.72
-2.16
-6.77
-11.02
-14.97
-18.84
-22.92
-27.51
-32.86
-39.04
-45.84
-52.68
-58.57
-62.26
-62.62
-58.99
-51.44
-40.82
-28.49
-15.88
-4.18
5.94
14.22
20.71
25.67
29.34
31.99
33.79
34.88
35.33
35.20
34.61
33.77
32.89
32.15
31.64
31.35
31.25
31.29
31.42
31.54
31.43
30.81
29.41
27.11
24.05
20.58
17.06
13.75
10.64
7.50
3.99
-0.16
-4.99
-10.33
-15.79
-20.97
-25.64
-29.77
-33.61
-37.63
-42.35
-48.16
-55.11
-62.77
-70.09
-75.62
-77.82
-75.55
-68.51
-57.38
-43.61
-29.01
-15.20
-3.21
6.60
14.34
20.38
25.09
28.76
31.63
33.91
35.72
37.18
38.27
38.93
39.11
38.83
38.26
37.63
37.19
37.03
37.09
37.13
36.85
35.97
34.35
31.93
28.84
25.26
21.47
17.70
14.17
10.90
7.78
4.55
0.92
-3.33
-8.20
-13.48
-18.82
-23.89
-28.50
-32.73
-36.90
-41.49
-46.90
-53.29
-60.25
-66.85
-71.73
-73.45
-71.01
-64.16
-53.62
-40.78
-27.33
-14.75
-3.87
5.06
12.28
18.14
22.89
26.59
29.23
30.87
31.69
31.98
32.05
32.09
32.17
32.21
32.16
32.03
31.93
32.04
32.43
33.00
33.41
33.20
31.97
29.57
26.18
22.24
18.26
14.59
11.29
8.17
4.97
1.49
-2.33
-6.39
-10.55
-14.66
-18.62
-22.45
-26.24
-30.23
-34.73
-40.05
-46.40
-53.63
-61.13
-67.77
-72.15
-72.95
-69.32
-61.30
-49.76
-36.25
-22.50
-9.95
0.57
8.87
15.22
20.09
23.87
26.78
28.94
30.41
31.26
31.58
31.49
31.09
30.47
29.76
29.08
28.54
28.21
28.07
28.04
27.90
27.39
26.27
24.37
21.70
18.42
14.83
11.15
7.52
3.88
0.08
-3.95
-8.16
-12.39
-16.46
-20.31
-24.11
-28.21
-33.05
-38.89
-45.71
-53.01
-59.90
-65.14
-67.48
-66.02
-60.46
-51.31
-39.70
-27.12
-14.95
-4.18
4.76
11.85
17.39
21.69
25.05
27.60
29.43
30.53
30.95
30.79
30.21
29.48
28.86
28.54
28.60
29.01
29.69
30.50
31.27
31.83
31.92
31.31
29.85
27.48
24.28
20.46
16.24
11.82
7.27
2.62
-2.13
-6.98
-11.86
-16.69
-21.37
-25.90
-30.36
-35.01
-40.19
-46.22
-53.17
-60.62
-67.63
-72.75
-74.50
-71.80
-64.44
-53.18
-39.56
-25.38
-12.15
-0.74
8.68
16.35
22.67
27.93
32.29
35.78
38.42
40.25
41.32
41.66
41.30
40.34
38.94
37.36
35.88
34.75
34.07
33.78
33.71
33.55
32.95
31.60
29.35
26.25
22.58
18.72
15.01
11.59
8.40
5.14
1.49
-2.77
-7.65
-12.90
-18.14
-23.02
-27.38
-31.36
-35.34
-39.91
-45.55
-52.44
-60.25
-68.03
-74.32
-77.53
-76.38
-70.32
-59.78
-46.11
-31.15
-16.72
-4.14
6.03
13.90
19.94
24.71
28.57
31.68
34.03
35.57
36.30
36.34
35.86
35.08
34.23
33.48
32.98
32.80
32.90
33.17
33.37
33.25
32.55
31.16
29.09
26.52
23.70
20.82
17.93
14.90
11.47
7.42
2.67
-2.63
-8.18
-13.64
-18.78
-23.53
-27.96
-32.37
-37.11
-42.57
-48.96
-56.08
-63.16
-68.89
-71.74
-70.46
-64.59
-54.71
-42.23
-28.96
-16.45
-5.62
3.31
10.59
16.59
21.55
25.49
28.32
29.99
30.60
30.45
29.89
29.28
28.85
28.65
28.57
28.43
28.09
27.49
26.64
25.65
24.55
23.34
21.89
19.99
17.47
14.20
10.22
5.74
1.06
-3.47
-7.67
-11.57
-15.43
-19.61
-24.51
-30.38
-37.21
-44.68
-52.13
-58.58
-62.88
-63.96
-61.10
-54.28
-44.16
-32.00
-19.29
-7.33
3.09
11.69
18.66
24.38
29.15
33.18
36.47
38.91
40.44
41.06
40.86
40.06
38.87
37.56
36.35
35.39
34.77
34.39
34.06
33.51
32.47
30.83
28.64
26.04
23.20
20.16
16.83
13.05
8.73
3.91
-1.23
-6.40
-11.40
-16.11
-20.60
-25.00
-29.59
-34.64
-40.44
-47.16
-54.69
-62.53
-69.73
-74.97
-76.90
-74.58
-67.73
-56.98
-43.62
-29.34
-15.66
-3.63
6.34
14.39
20.95
26.46
31.16
35.05
38.00
39.90
40.78
40.87
40.53
40.07
39.67
39.30
38.87
38.27
37.56
36.89
36.45
36.23
35.99
35.32
33.79
31.21
27.76
23.90
20.15
16.81
13.86
10.93
7.50
3.21
-1.95
-7.70
-13.51
-18.90
-23.65
-27.84
-31.84
-36.18
-41.31
-47.50
-54.67
-62.29
-69.38
-74.63
-76.66
-74.47
-67.77
-57.15
-43.96
-29.88
-16.48
-4.80
4.74
12.30
18.26
22.99
26.77
29.72
31.89
33.36
34.24
34.72
35.00
35.23
35.51
35.87
36.30
36.77
37.21
37.59
37.78
37.64
36.96
35.59
33.46
30.67
27.45
24.08
20.69
17.22
13.43
9.06
3.99
-1.63
-7.46
-13.08
-18.19
-22.76
-26.99
-31.28
-36.05
-41.65
-48.18
-55.35
-62.41
-68.17
-71.24
-70.44
-65.22
-55.92
-43.77
-30.45
-17.62
-6.43
2.66
9.83
15.57
20.36
24.41
27.70
30.06
31.42
31.87
31.69
31.24
30.82
30.55
30.44
30.42
30.46
30.54
30.64
30.70
30.58
30.07
28.94
27.04
24.32
20.88
16.93
12.72
8.46
4.21
-0.01
-4.31
-8.74
-13.30
-17.93
-22.67
-27.72
-33.37
-39.90
-47.27
-54.90
-61.67
-66.20
-67.23
-64.08
-56.87
-46.46
-34.18
-21.45
-9.40
1.27
10.27
17.63
23.54
28.29
32.14
35.27
37.77
39.61
40.73
41.11
40.82
40.09
39.19
38.40
37.95
37.97
38.46
39.26
40.10
40.58
40.30
38.97
36.50
33.07
29.04
24.88
20.91
17.23
13.73
10.08
5.97
1.19
-4.22
-10.01
-15.82
-21.31
-26.31
-30.93
-35.52
-40.57
-46.54
-53.66
-61.64
-69.64
-76.32
-80.13
-79.83
-74.81
-65.38
-52.74
-38.52
-24.40
-11.64
-0.89
7.79
14.64
20.03
24.24
27.48
29.85
31.39
32.19
32.36
32.04
31.45
30.82
30.39
30.38
30.89
31.93
33.42
35.18
37.04
38.79
40.28
41.37
41.94
41.92
41.25
39.87
37.74
34.84
31.25
27.10
22.63
18.03
13.38
8.66
3.76
-1.39
-6.82
-12.39
-17.90
-23.14
-27.96
-32.33
-36.30
-40.08
-44.05
-48.66
-54.32
-61.14
-68.66
-75.72
-80.72
-82.01
-78.52
-70.12
-57.72
-42.99
-27.79
-13.67
-1.65
7.94
15.25
20.70
24.75
27.83
30.24
32.14
33.63
34.74
35.51
36.00
36.24
36.21
35.92
35.44
34.93
34.58
34.59
34.96
35.42
35.51
34.76
32.87
29.86
26.07
22.01
18.14
14.64
11.43
8.15
4.44
0.10
-4.80
-9.93
-14.88
-19.29
-23.06
-26.39
-29.69
-33.47
-38.19
-44.10
-51.12
-58.70
-65.81
-71.09
-73.22
-71.28
-65.15
-55.54
-43.84
-31.58
-20.06
-10.02
-1.63
5.29
10.98
15.60
19.13
21.51
22.77
23.09
22.83
22.42
22.22
22.45
23.06
23.86
24.57
24.96
25.00
24.80
24.57
24.39
24.21
23.70
22.52
20.41
17.39
13.72
9.88
6.26
3.02
-0.01
-3.21
-7.04
-11.88
-17.92
-25.12
-33.23
-41.73
-49.81
-56.41
-60.38
-60.75
-57.10
-49.69
-39.51
-27.94
-16.36
-5.78
3.30
10.92
17.28
22.62
27.00
30.37
32.63
33.85
34.21
34.07
33.76
33.52
33.43
33.42
33.42
33.45
33.59
33.98
34.59
35.21
35.46
34.93
33.39
30.83
27.51
23.81
20.11
16.67
13.53
10.53
7.43
3.92
-0.16
-4.79
-9.77
-14.80
-19.62
-24.18
-28.63
-33.26
-38.44
-44.43
-51.32
-58.92
-66.69
-73.65
-78.57
-80.16
-77.58
-70.71
-60.30
-47.69
-34.42
-21.72
-10.32
-0.41
8.08
15.30
21.35
26.22
29.95
32.58
34.21
34.97
34.98
34.49
33.83
33.39
33.50
34.25
35.44
36.61
37.25
37.02
35.83
33.92
31.65
29.32
27.04
24.66
21.90
18.51
14.38
9.60
4.38
-1.05
-6.55
-12.06
-17.56
-23.05
-28.59
-34.32
-40.47
-47.24
-54.60
-62.05
-68.54
-72.66
-73.06
-68.95
-60.42
-48.52
-34.85
-21.14
-8.71
1.72
10.03
16.45
21.33
24.95
27.54
29.29
30.44
31.16
31.57
31.67
31.37
30.60
29.37
27.86
26.30
24.91
23.79
22.86
21.99
20.95
19.63
17.94
15.85
13.35
10.46
7.17
3.52
-0.52
-5.09
-10.45
-16.86
-24.40
-32.67
-40.71
-47.15
-50.54
-49.89
-45.03
-36.66
-26.18
-15.17
-4.97
3.70
10.64
16.10
20.43
23.87
26.52
28.33
29.26
29.38
28.85
27.93
26.90
25.94
25.10
24.25
23.23
21.84
19.97
17.61
14.82
11.72
8.35
4.75
0.88
-3.33
-7.97
-13.15
-19.06
-25.77
-33.17
-40.79
-47.71
-52.73
-54.63
-52.65
-46.69
-37.46
-26.23
-14.45
-3.38
6.18
13.95
19.99
24.52
27.71
29.62
30.25
29.68
28.19
26.24
24.39
23.06
22.42
22.26
22.10
21.37
19.74
17.17
13.97
10.60
7.43
4.54
1.70
-1.53
-5.58
-10.71
-16.88
-23.81
-31.03
-37.88
-43.49
-46.90
-47.19
-43.80
-36.81
-27.06
-15.91
-4.81
5.07
13.22
19.66
24.74
28.80
31.97
34.17
35.24
35.10
33.86
31.81
29.35
26.88
24.70
22.91
21.44
20.07
18.55
16.66
14.32
11.62
8.73
5.83
2.99
0.13
-2.98
-6.64
-11.16
-16.73
-23.31
-30.49
-37.48
-43.12
-46.12
-45.46
-40.71
-32.30
-21.45
-9.75
1.25
10.49
17.62
22.82
26.54
29.17
30.89
31.63
31.29
29.89
27.68
25.15
22.77
20.89
19.56
18.57
17.56
16.23
14.44
12.24
9.75
7.13
4.42
1.60
-1.38
-4.64
-8.33
-12.68
-17.90
-24.12
-31.17
-38.47
-45.07
-49.78
-51.45
-49.37
-43.42
-34.20
-22.82
-10.64
1.08
11.41
19.84
26.25
30.75
33.61
35.10
35.52
35.13
34.20
32.92
31.44
29.85
28.20
26.51
24.81
23.09
21.37
19.66
17.89
15.99
13.76
11.02
7.60
3.46
-1.23
-6.16
-10.94
-15.30
-19.21
-22.94
-27.00
-31.95
-38.14
-45.46
-53.19
-60.07
-64.54
-65.18
-61.23
-52.89
-41.27
-28.06
-14.97
-3.26
6.54
14.54
21.18
26.88
31.79
35.81
38.76
40.53
41.25
41.21
40.79
40.26
39.74
39.20
38.56
37.75
36.80
35.74
34.59
33.27
31.63
29.54
26.95
23.91
20.53
16.88
13.00
8.83
4.38
-0.25
-4.92
-9.41
-13.63
-17.58
-21.45
-25.52
-30.14
-35.60
-42.00
-49.12
-56.32
-62.55
-66.53
-67.10
-63.59
-56.06
-45.35
-32.86
-20.14
-8.45
1.43
9.33
15.54
20.55
24.86
28.72
32.10
34.73
36.31
36.67
35.97
34.61
33.14
31.95
31.19
30.71
30.26
29.64
28.78
27.72
26.53
25.17
23.45
21.13
18.00
14.02
9.33
4.23
-0.96
-5.98
-10.69
-15.08
-19.20
-23.22
-27.35
-31.88
-37.14
-43.36
-50.45
-57.74
-64.01
-67.71
-67.46
-62.60
-53.46
-41.38
-28.13
-15.44
-4.42
4.53
11.58
17.14
21.54
24.94
27.33
28.71
29.21
29.05
28.55
27.96
27.43
26.98
26.49
25.83
24.92
23.76
22.51
21.33
20.35
19.54
18.62
17.26
15.13
12.05
8.09
3.54
-1.17
-5.70
-9.83
-13.60
-17.23
-21.07
-25.50
-30.83
-37.17
-44.30
-51.54
-57.79
-61.70
-62.00
-57.98
-49.72
-38.16
-24.87
-11.54
0.50
10.51
18.37
24.35
28.83
32.05
34.15
35.14
35.11
34.23
32.73
30.89
28.92
26.95
25.01
23.15
21.45
19.98
18.78
17.81
16.88
15.70
13.96
11.36
7.78
3.31
-1.76
-6.94
-11.76
-15.90
-19.33
-22.41
-25.72
-29.93
-35.45
-42.21
-49.57
-56.36
-61.15
-62.65
-60.04
-53.27
-43.04
-30.68
-17.70
-5.41
5.31
14.12
21.12
26.60
30.86
34.14
36.54
38.11
38.89
38.99
38.57
37.82
36.93
36.06
35.30
34.67
34.13
33.60
33.03
32.38
31.62
30.64
29.26
27.27
24.51
20.98
16.91
12.72
8.79
5.37
2.38
-0.55
-3.86
-7.91
-12.71
-17.98
-23.21
-27.96
-32.04
-35.57
-39.02
-42.98
-47.96
-54.20
-61.39
-68.63
-74.54
-77.54
-76.37
-70.47
-60.28
-47.10
-32.71
-18.81
-6.57
3.52
11.56
17.93
23.00
27.05
30.15
32.37
33.85
34.75
35.30
35.64
35.86
35.92
35.80
35.51
35.11
34.71
34.41
34.28
34.23
34.08
33.53
32.28
30.10
26.92
22.97
18.64
14.44
10.79
7.84
5.41
3.07
0.29
-3.32
-7.82
-12.98
-18.31
-23.34
-27.75
-31.56
-35.04
-38.64
-42.80
-47.83
-53.77
-60.25
-66.48
-71.28
-73.35
-71.60
-65.60
-55.67
-42.90
-28.79
-14.88
-2.39
7.97
15.98
21.79
25.80
28.52
30.44
31.92
33.13
34.04
34.53
34.50
34.02
33.29
32.61
32.21
32.16
32.36
32.57
32.53
31.98
30.78
28.92
26.46
23.58
20.49
17.34
14.21
11.06
7.70
3.88
-0.57
-5.72
-11.39
-17.27
-22.97
-28.22
-32.99
-37.58
-42.53
-48.33
-55.13
-62.39
-68.95
-73.20
-73.67
-69.50
-60.85
-48.80
-35.02
-21.23
-8.72
1.81
10.23
16.74
21.61
25.07
27.28
28.38
28.55
28.05
27.16
26.09
24.97
23.84
22.67
21.46
20.31
19.37
18.80
18.64
18.69
18.50
17.50
15.23
11.50
6.57
1.01
-4.51
-9.44
-13.61
-17.22
-20.79
-24.94
-30.14
-36.58
-43.96
-51.46
-57.80
-61.52
-61.41
-56.86
-48.17
-36.48
-23.43
-10.70
0.48
9.56
16.54
21.86
25.97
29.19
31.61
33.19
33.88
33.75
33.00
31.93
30.83
29.85
29.00
28.19
27.31
26.33
25.31
24.33
23.38
22.34
20.94
18.89
15.95
12.10
7.53
2.55
-2.42
-7.03
-11.11
-14.71
-18.12
-21.79
-26.25
-31.88
-38.81
-46.76
-54.98
-62.26
-67.21
-68.55
-65.50
-58.08
-47.16
-34.23
-20.95
-8.75
1.57
9.85
16.42
21.77
26.26
30.02
32.94
34.87
35.74
35.67
34.93
33.92
32.94
32.20
31.71
31.36
31.00
30.51
29.86
29.03
28.06
26.87
25.31
23.15
20.20
16.38
11.81
6.75
1.57
-3.43
-8.12
-12.53
-16.87
-21.33
-26.18
-31.59
-37.74
-44.70
-52.28
-59.85
-66.31
-70.29
-70.53
-66.36
-58.01
-46.53
-33.50
-20.52
-8.81
1.04
8.95
15.17
19.99
23.64
26.28
28.03
29.09
29.66
29.97
30.13
30.08
29.69
28.80
27.38
25.66
24.01
22.82
22.23
22.05
21.78
20.81
18.65
15.16
10.56
5.32
-0.07
-5.21
-9.97
-14.42
-18.80
-23.47
-28.80
-35.06
-42.23
-49.82
-56.80
-61.74
-63.26
-60.45
-53.31
-42.75
-30.27
-17.56
-5.89
4.05
12.15
18.61
23.67
27.53
30.22
31.83
32.44
32.29
31.61
30.67
29.63
28.61
27.61
26.63
25.71
24.87
24.11
23.31
22.26
20.62
18.13
14.72
10.55
5.95
1.35
-3.02
-7.17
-11.43
-16.36
-22.42
-29.77
-38.01
-46.09
-52.53
-55.77
-54.76
-49.25
-39.95
-28.28
-15.90
-4.22
5.95
14.41
21.37
27.12
31.86
35.58
38.21
39.68
40.10
39.72
38.91
38.00
37.22
36.59
35.97
35.17
34.07
32.70
31.31
30.11
29.20
28.42
27.34
25.45
22.39
18.07
12.76
6.94
1.08
-4.46
-9.58
-14.39
-19.18
-24.31
-30.13
-36.89
-44.57
-52.73
-60.44
-66.40
-69.27
-68.01
-62.34
-52.78
-40.59
-27.33
-14.47
-3.05
6.47
14.08
20.14
25.05
29.16
32.65
35.58
37.86
39.41
40.23
40.40
40.15
39.75
39.44
39.36
39.52
39.82
40.06
40.02
39.46
38.23
36.28
33.68
30.58
27.16
23.53
19.66
15.45
10.77
5.58
-0.00
-5.72
-11.29
-16.46
-21.20
-25.61
-30.01
-34.75
-40.19
-46.48
-53.42
-60.38
-66.24
-69.64
-69.36
-64.77
-56.09
-44.43
-31.40
-18.67
-7.39
1.94
9.48
15.66
20.91
25.38
28.96
31.46
32.80
33.19
33.04
32.84
32.88
33.16
33.45
33.39
32.83
31.81
30.59
29.47
28.57
27.75
26.63
24.79
21.95
18.10
13.45
8.42
3.39
-1.32
-5.66
-9.71
-13.73
-18.05
-23.04
-28.96
-35.86
-43.45
-51.00
-57.36
-61.21
-61.45
-57.58
-49.90
-39.41
-27.56
-15.75
-5.02
4.15
11.73
17.90
22.90
26.79
29.56
31.15
31.68
31.41
30.74
30.08
29.69
29.59
29.62
29.51
29.09
28.38
27.53
26.75
26.11
25.45
24.40
22.55
19.59
15.50
10.53
5.20
0.01
-4.70
-8.92
-12.97
-17.33
-22.50
-28.73
-35.88
-43.39
-50.35
-55.62
-58.16
-57.19
-52.50
-44.47
-34.06
-22.50
-11.05
-0.63
8.24
15.51
21.35
26.00
29.65
32.38
34.22
35.26
35.65
35.64
35.46
35.33
35.33
35.42
35.52
35.51
35.37
35.09
34.66
34.00
32.97
31.36
29.10
26.25
23.03
19.74
16.59
13.58
10.47
6.91
2.60
-2.52
-8.25
-14.18
-19.81
-24.85
-29.25
-33.31
-37.59
-42.71
-49.06
-56.55
-64.42
-71.27
-75.45
-75.52
-70.83
-61.76
-49.60
-36.12
-22.94
-11.14
-1.17
7.11
13.98
19.72
24.48
28.27
31.15
33.18
34.53
35.36
35.84
36.08
36.13
36.02
35.77
35.49
35.28
35.29
35.52
35.88
36.09
35.81
34.75
32.80
30.06
26.81
23.43
20.16
17.08
14.03
10.74
6.94
2.54
-2.38
-7.53
-12.60
-17.36
-21.73
-25.79
-29.79
-34.03
-38.88
-44.65
-51.42
-58.80
-65.83
-71.10
-73.05
-70.61
-63.62
-52.97
-40.28
-27.32
-15.47
-5.37
2.92
9.71
15.30
19.84
23.35
25.87
27.50
28.42
28.79
28.76
28.44
27.96
27.49
27.16
27.05
27.12
27.24
27.27
27.08
26.57
25.71
24.45
22.80
20.72
18.18
15.15
11.60
7.54
3.09
-1.53
-6.02
-10.14
-13.77
-17.04
-20.35
-24.20
-29.02
-34.93
-41.60
-48.20
-53.56
-56.38
-55.70
-51.15
-43.13
-32.71
-21.28
-10.17
-0.32
7.82
14.25
19.16
22.77
25.27
26.81
27.54
27.67
27.39
26.82
25.98
24.87
23.53
22.06
20.65
19.48
18.66
18.14
17.72
17.09
15.88
13.80
10.69
6.63
1.90
-3.08
-7.86
-12.16
-15.93
-19.44
-23.15
-27.64
-33.31
-40.15
-47.58
-54.45
-59.24
-60.55
-57.54
-50.32
-39.90
-27.84
-15.81
-5.00
4.08
11.51
17.71
23.05
27.70
31.53
34.28
35.77
36.04
35.39
34.24
33.02
31.98
31.19
30.56
29.98
29.41
28.83
28.25
27.53
26.44
24.67
21.99
18.34
13.86
8.83
3.58
-1.61
-6.56
-11.17
-15.41
-19.34
-23.13
-27.09
-31.63
-37.13
-43.74
-51.19
-58.71
-65.11
-69.02
-69.27
-65.22
-57.04
-45.67
-32.58
-19.37
-7.35
2.74
10.75
17.00
21.95
25.99
29.36
32.10
34.19
35.59
36.29
36.30
35.74
34.76
33.60
32.50
31.65
31.08
30.65
30.10
29.20
27.83
26.02
23.88
21.53
18.98
16.13
12.81
8.90
4.38
-0.57
-5.66
-10.58
-15.12
-19.23
-23.09
-27.02
-31.43
-36.62
-42.72
-49.49
-56.25
-62.00
-65.48
-65.60
-61.71
-53.89
-42.94
-30.25
-17.36
-5.58
4.24
11.85
17.48
21.63
24.79
27.31
29.25
30.51
30.91
30.41
29.24
27.80
26.53
25.66
25.19
24.86
24.37
23.59
22.59
21.53
20.47
19.25
17.44
14.65
10.65
5.63
0.12
-5.23
-9.91
-13.86
-17.36
-20.91
-25.00
-29.87
-35.50
-41.60
-47.67
-52.96
-56.52
-57.34
-54.65
-48.24
-38.67
-27.11
-15.10
-3.96
5.50
13.10
19.07
23.77
27.43
30.12
31.81
32.56
32.53
32.04
31.39
30.78
30.24
29.70
29.01
28.11
27.07
26.03
25.15
24.50
23.88
22.95
21.26
18.47
14.52
9.69
4.50
-0.47
-4.81
-8.51
-11.93
-15.71
-20.53
-26.78
-34.37
-42.61
-50.29
-55.94
-58.18
-56.18
-49.86
-40.02
-28.11
-15.75
-4.37
5.22
12.82
18.75
23.51
27.52
30.97
33.84
36.01
37.37
37.89
37.62
36.70
35.30
33.63
31.94
30.47
29.39
28.75
28.40
28.04
27.29
25.80
23.39
20.12
16.21
12.03
7.90
4.06
0.56
-2.76
-6.15
-9.93
-14.31
-19.35
-24.87
-30.54
-36.01
-41.04
-45.68
-50.29
-55.44
-61.63
-69.03
-77.12
-84.67
-89.99
-91.40
-87.86
-79.36
-66.97
-52.43
-37.58
-23.84
-11.93
-1.96
6.24
12.90
18.19
22.25
25.34
27.72
29.68
31.36
32.73
33.63
33.99
33.88
33.60
33.51
33.91
34.81
35.98
36.99
37.40
36.86
35.27
32.71
29.44
25.77
21.99
18.32
14.79
11.27
7.55
3.40
-1.28
-6.39
-11.67
-16.79
-21.47
-25.65
-29.49
-33.40
-37.88
-43.33
-49.82
-56.84
-63.28
-67.61
-68.35
-64.58
-56.37
-44.75
-31.45
-18.30
-6.65
2.86
10.32
16.12
20.72
24.35
27.02
28.67
29.32
29.19
28.65
28.08
27.71
27.60
27.60
27.55
27.35
27.03
26.74
26.60
26.62
26.58
26.10
24.77
22.35
18.83
14.48
9.76
5.10
0.78
-3.10
-6.66
-10.12
-13.78
-17.93
-22.84
-28.68
-35.34
-42.30
-48.54
-52.69
-53.37
-49.70
-41.66
-30.14
-16.75
-3.21
9.08
19.41
27.69
34.21
39.35
43.35
46.27
48.05
48.70
48.30
47.08
45.33
43.36
41.41
39.65
38.16
36.92
35.83
34.74
33.51
32.01
30.13
27.83
25.09
21.90
18.31
14.35
10.08
5.50
0.63
-4.51
-9.84
-15.18
-20.35
-25.16
-29.58
-33.83
-38.35
-43.65
-50.11
-57.66
-65.64
-72.80
-77.53
-78.33
-74.29
-65.42
-52.72
-37.89
-22.82
-9.04
2.60
11.95
19.37
25.33
30.17
34.05
37.00
39.05
40.29
40.88
40.97
40.67
40.04
39.14
38.09
37.02
36.11
35.49
35.14
34.93
34.59
33.75
32.06
29.32
25.60
21.24
16.74
12.55
8.91
5.68
2.49
-1.08
-5.32
-10.20
-15.45
-20.71
-25.69
-30.28
-34.56
-38.76
-43.17
-48.13
-53.97
-60.84
-68.49
-76.08
-82.15
-84.99
-83.17
-76.13
-64.48
-49.86
-34.37
-19.94
-7.73
1.91
9.32
15.08
19.68
23.41
26.30
28.30
29.38
29.60
29.12
28.20
27.11
26.12
25.40
25.04
25.02
25.28
25.65
25.94
25.94
25.45
24.35
22.60
20.27
17.48
14.33
10.87
7.02
2.71
-2.10
-7.26
-12.50
-17.56
-22.26
-26.73
-31.36
-36.68
-43.16
-50.92
-59.52
-68.03
-75.06
-79.14
-79.09
-74.43
-65.52
-53.55
-40.13
-26.86
-14.94
-4.97
2.99
9.18
13.93
17.57
20.31
22.33
23.79
24.81
25.47
25.85
25.98
25.94
25.80
25.61
25.42
25.26
25.15
25.04
24.80
24.17
22.77
20.29
16.59
11.82
6.43
0.98
-4.08
-8.57
-12.67
-16.83
-21.63
-27.51
-34.60
-42.55
-50.46
-56.98
-60.68
-60.33
-55.42
-46.32
-34.23
-20.85
-7.80
3.78
13.40
21.14
27.35
32.33
36.19
38.86
40.24
40.38
39.53
38.14
36.67
35.46
34.62
34.08
33.66
33.12
32.34
31.28
29.98
28.46
26.68
24.45
21.56
17.81
13.17
7.84
2.19
-3.35
-8.43
-12.96
-17.11
-21.25
-25.87
-31.42
-38.18
-46.08
-54.58
-62.67
-68.92
-71.91
-70.60
-64.70
-54.79
-42.17
-28.37
-14.85
-2.62
7.77
16.16
22.64
27.49
31.07
33.75
35.79
37.30
38.25
38.52
38.11
37.15
35.93
34.79
33.98
33.58
33.51
33.60
33.61
33.33
32.59
31.30
29.45
27.05
24.14
20.73
16.79
12.30
7.26
1.80
-3.90
-9.57
-14.93
-19.79
-24.12
-28.05
-31.91
-36.14
-41.21
-47.42
-54.71
-62.44
-69.37
-73.91
-74.53
-70.27
-61.20
-48.40
-33.70
-19.04
-5.92
4.94
13.57
20.47
26.19
31.09
35.20
38.43
40.66
41.84
42.16
41.87
41.24
40.47
39.63
38.68
37.52
36.09
34.42
32.65
30.93
29.36
27.87
26.21
24.02
20.99
17.00
12.19
6.88
1.46
-3.80
-8.81
-13.62
-18.41
-23.33
-28.55
-34.26
-40.63
-47.71
-55.15
-62.04
-67.05
-68.72
-66.01
-58.72
-47.69
-34.47
-20.83
-8.24
2.45
11.09
17.93
23.37
27.72
31.11
33.56
35.06
35.71
35.74
35.42
35.02
34.67
34.37
34.03
33.55
32.97
32.42
32.08
31.92
31.71
30.96
29.17
26.04
21.65
16.44
10.98
5.73
0.76
-4.23
-9.83
-16.62
-24.92
-34.63
-45.08
-55.09
-63.16
-67.77
-67.81
-62.94
-53.74
-41.56
-28.16
-15.16
-3.61
6.13
14.19
20.95
26.66
31.36
34.99
37.43
38.73
39.08
38.82
38.32
37.90
37.75
37.92
38.31
38.67
38.73
38.26
37.17
35.51
33.41
30.93
28.05
24.63
20.58
15.89
10.71
5.34
0.05
-4.98
-9.74
-14.37
-19.12
-24.24
-29.97
-36.47
-43.77
-51.65
-59.51
-66.32
-70.84
-71.83
-68.49
-60.71
-49.22
-35.39
-20.88
-7.24
4.49
13.93
21.23
26.90
31.46
35.30
38.52
41.06
42.75
43.51
43.39
42.57
41.34
39.98
38.78
37.87
37.32
37.10
37.08
37.06
36.77
35.89
34.17
31.49
27.95
23.81
19.44
15.10
10.88
6.64
2.13
-2.80
-8.17
-13.73
-19.20
-24.30
-29.02
-33.56
-38.40
-44.02
-50.83
-58.80
-67.33
-75.18
-80.64
-82.11
-78.49
-69.78
-57.04
-42.11
-26.96
-13.15
-1.46
8.03
15.65
21.79
26.74
30.64
33.64
35.88
37.55
38.77
39.58
39.92
39.82
39.43
39.00
38.82
39.01
39.44
39.80
39.70
38.80
37.02
34.44
31.29
27.80
24.14
20.41
16.61
12.66
8.43
3.84
-1.15
-6.44
-11.82
-17.04
-21.96
-26.60
-31.21
-36.19
-41.98
-48.79
-56.45
-64.19
-70.74
-74.56
-74.24
-69.07
-59.34
-46.29
-31.77
-17.64
-5.24
4.83
12.65
18.65
23.29
26.86
29.41
30.94
31.53
31.37
30.80
30.19
29.84
29.81
30.00
30.15
30.03
29.55
28.78
27.90
27.05
26.15
24.86
22.70
19.33
14.67
9.04
3.00
-2.90
-8.27
-13.07
-17.55
-22.12
-27.22
-33.19
-40.12
-47.67
-55.03
-60.98
-64.14
-63.37
-58.24
-49.14
-37.21
-23.92
-10.73
1.33
11.63
19.98
26.43
31.22
34.66
37.02
38.55
39.36
39.45
38.82
37.56
35.89
34.14
32.59
31.41
30.57
29.89
29.16
28.19
26.86
25.15
23.09
20.76
18.23
15.56
12.78
9.84
6.66
3.14
-0.80
-5.15
-9.82
-14.66
-19.48
-24.13
-28.56
-32.83
-37.23
-42.20
-48.20
-55.36
-63.25
-70.68
-75.98
-77.44
-73.97
-65.51
-53.12
-38.60
-23.84
-10.34
1.12
10.46
17.96
24.03
29.01
33.12
36.52
39.31
41.57
43.31
44.56
45.32
45.63
45.60
45.41
45.30
45.49
46.06
46.93
47.78
48.16
47.59
45.76
42.62
38.44
33.64
28.66
23.83
19.24
14.79
10.32
5.70
0.91
-3.90
-8.58
-12.97
-17.08
-21.09
-25.40
-30.52
-36.89
-44.74
-53.74
-62.94
-70.80
-75.59
-75.87
-71.03
-61.60
-49.05
-35.37
-22.40
-11.31
-2.47
4.41
9.92
14.54
18.54
21.92
24.63
26.61
27.91
28.60
28.77
28.50
27.90
27.09
26.26
25.61
25.28
25.28
25.46
25.57
25.24
24.18
22.20
19.34
15.84
12.07
8.38
4.92
1.61
-1.85
-5.78
-10.35
-15.48
-20.81
-25.89
-30.37
-34.15
-37.47
-40.84
-44.78
-49.71
-55.68
-62.23
-68.39
-72.81
-74.08
-71.16
-63.77
-52.55
-38.88
-24.52
-11.05
0.53
9.87
17.09
22.61
26.76
29.77
31.75
32.80
33.03
32.65
31.87
30.90
29.89
28.92
27.97
26.98
25.92
24.83
23.84
23.09
22.57
22.07
21.14
19.30
16.19
11.79
6.45
0.74
-4.72
-9.56
-13.77
-17.70
-21.90
-26.93
-33.13
-40.36
-47.97
-54.84
-59.61
-61.03
-58.32
-51.41
-40.99
-28.36
-15.03
-2.39
8.58
17.43
24.14
28.95
32.13
33.94
34.53
34.06
32.77
30.93
28.89
26.95
25.33
24.03
23.00
22.11
21.32
20.61
20.04
19.56
18.94
17.84
15.82
12.59
8.12
2.77
-2.91
-8.31
-13.08
-17.20
-21.04
-25.18
-30.23
-36.61
-44.27
-52.67
-60.69
-66.84
-69.62
-67.95
-61.54
-51.08
-38.00
-24.07
-10.89
0.51
9.84
17.28
23.26
28.13
32.12
35.25
37.53
38.98
39.65
39.66
39.16
38.29
37.28
36.31
35.52
34.94
34.48
33.94
33.06
31.64
29.60
26.98
23.93
20.60
17.09
13.35
9.24
4.61
-0.60
-6.30
-12.22
-18.08
-23.65
-28.88
-33.88
-38.86
-44.12
-49.95
-56.58
-64.03
-71.97
-79.55
-85.51
-88.38
-86.95
-80.79
-70.37
-57.10
-42.80
-29.21
-17.47
-7.99
-0.53
5.47
10.58
15.16
19.26
22.79
25.54
27.38
28.35
28.64
28.60
28.61
28.96
29.76
30.98
32.42
33.88
35.11
35.89
36.01
35.28
33.62
31.09
27.93
24.44
20.86
17.25
13.45
9.19
4.32
-1.14
-6.94
-12.67
-18.06
-23.01
-27.75
-32.72
-38.39
-45.04
-52.52
-60.09
-66.44
-69.98
-69.37
-63.97
-54.18
-41.39
-27.45
-14.08
-2.44
7.13
14.85
21.17
26.48
30.98
34.72
37.68
39.87
41.28
41.93
41.88
41.30
40.46
39.66
39.17
39.07
39.25
39.40
39.21
38.42
36.98
34.97
32.55
29.81
26.71
23.07
18.72
13.63
7.98
2.14
-3.46
-8.55
-13.10
-17.36
-21.78
-26.81
-32.82
-39.86
-47.68
-55.60
-62.60
-67.38
-68.69
-65.72
-58.36
-47.34
-34.07
-20.26
-7.41
3.51
12.20
18.88
24.05
28.12
31.35
33.75
35.26
35.87
35.70
35.04
34.27
33.71
33.53
33.65
33.82
33.78
33.35
32.55
31.47
30.20
28.64
26.57
23.66
19.73
14.85
9.39
3.85
-1.32
-5.94
-10.13
-14.31
-18.95
-24.48
-31.08
-38.63
-46.66
-54.33
-60.58
-64.21
-64.22
-60.09
-51.97
-40.73
-27.77
-14.67
-2.76
7.16
14.99
21.08
26.01
30.24
33.94
36.92
38.92
39.77
39.60
38.79
37.85
37.17
36.89
36.89
36.92
36.69
36.08
35.04
33.69
32.04
30.08
27.64
24.56
20.73
16.21
11.21
6.02
0.94
-3.88
-8.39
-12.72
-17.05
-21.65
-26.81
-32.78
-39.67
-47.30
-55.05
-61.86
-66.43
-67.50
-64.28
-56.80
-45.88
-32.95
-19.62
-7.26
3.35
12.01
18.97
24.62
29.29
33.15
36.19
38.44
39.91
40.74
41.06
40.99
40.60
39.94
39.11
38.29
37.70
37.53
37.83
38.47
39.04
39.08
38.14
35.99
32.68
28.55
24.07
19.70
15.65
11.89
8.16
4.15
-0.37
-5.42
-10.77
-16.08
-21.03
-25.45
-29.44
-33.35
-37.68
-42.93
-49.39
-56.89
-64.65
-71.32
-75.31
-75.21
-70.31
-60.90
-48.20
-34.03
-20.21
-8.07
1.80
9.52
15.60
20.61
24.88
28.52
31.48
33.68
35.13
35.97
36.35
36.42
36.24
35.78
35.01
33.97
32.78
31.64
30.72
30.04
29.44
28.57
26.99
24.39
20.62
15.89
10.59
5.20
0.09
-4.60
-8.95
-13.22
-17.68
-22.55
-28.01
-34.14
-40.91
-48.03
-54.83
-60.25
-63.06
-62.22
-57.26
-48.56
-37.24
-24.83
-12.81
-2.24
6.41
13.16
18.32
22.22
25.12
27.21
28.58
29.33
29.53
29.28
28.67
27.83
26.89
25.97
25.17
24.54
24.05
23.61
23.04
22.11
20.55
18.11
14.68
10.34
5.37
0.26
-4.55
-8.82
-12.68
-16.61
-21.28
-27.24
-34.60
-42.80
-50.68
-56.75
-59.59
-58.28
-52.71
-43.60
-32.25
-20.16
-8.61
1.60
10.23
17.40
23.35
28.26
32.13
34.88
36.44
36.91
36.53
35.69
34.73
33.89
33.18
32.47
31.57
30.38
28.91
27.30
25.75
24.36
23.04
21.53
19.51
16.67
12.95
8.50
3.66
-1.18
-5.77
-10.03
-14.08
-18.16
-22.62
-27.77
-33.85
-40.89
-48.58
-56.12
-62.27
-65.61
-64.98
-59.84
-50.62
-38.54
-25.26
-12.40
-1.08
8.19
15.46
21.05
25.39
28.81
31.48
33.44
34.65
35.07
34.77
33.92
32.82
31.75
30.94
30.40
30.05
29.70
29.21
28.48
27.50
26.26
24.74
22.86
20.56
17.72
14.28
10.20
5.54
0.50
-4.65
-9.63
-14.30
-18.69
-22.99
-27.43
-32.26
-37.67
-43.73
-50.35
-57.15
-63.41
-68.02
-69.69
-67.40
-60.76
-50.28
-37.29
-23.55
-10.72
0.14
8.67
15.15
20.17
24.26
27.74
30.60
32.68
33.82
34.01
33.46
32.54
31.62
30.93
30.55
30.38
30.26
30.03
29.61
28.94
27.98
26.67
24.92
22.67
19.87
16.57
12.81
8.73
4.46
0.10
-4.25
-8.54
-12.73
-16.84
-20.92
-25.16
-29.82
-35.19
-41.46
-48.43
-55.40
-61.18
-64.35
-63.72
-58.78
-49.92
-38.36
-25.79
-13.77
-3.39
5.00
11.55
16.68
20.75
23.90
26.12
27.38
27.77
27.51
26.85
25.99
25.02
23.94
22.76
21.53
20.40
19.56
19.12
19.04
19.04
18.71
17.57
15.27
11.74
7.18
2.04
-3.16
-8.03
-12.41
-16.43
-20.42
-24.77
-29.85
-35.79
-42.36
-48.90
-54.29
-57.24
-56.63
-51.96
-43.58
-32.59
-20.56
-8.92
1.33
9.84
16.77
22.45
27.11
30.78
33.29
34.49
34.37
33.22
31.50
29.75
28.32
27.32
26.58
25.83
24.85
23.61
22.26
21.01
19.95
18.95
17.65
15.57
12.35
7.92
2.52
-3.28
-8.87
-13.78
-17.91
-21.58
-25.31
-29.75
-35.29
-41.97
-49.35
-56.60
-62.55
-65.97
-65.85
-61.63
-53.46
-42.20
-29.25
-16.16
-4.25
5.68
13.43
19.23
23.54
26.76
29.15
30.80
31.78
32.14
32.02
31.60
31.02
30.36
29.58
28.59
27.38
26.05
24.79
23.80
23.12
22.54
21.60
19.77
16.71
12.46
7.43
2.25
-2.53
-6.65
-10.26
-13.75
-17.60
-22.21
-27.81
-34.38
-41.69
-49.11
-55.67
-60.14
-61.29
-58.32
-51.25
-40.93
-28.87
-16.67
-5.63
3.68
11.21
17.34
22.44
26.71
30.16
32.66
34.15
34.73
34.60
34.04
33.30
32.47
31.56
30.49
29.20
27.76
26.31
25.00
23.93
23.01
21.92
20.23
17.50
13.55
8.51
2.86
-2.78
-7.88
-12.21
-15.93
-19.53
-23.58
-28.58
-34.74
-41.82
-49.18
-55.79
-60.42
-61.92
-59.51
-53.06
-43.17
-31.09
-18.36
-6.43
3.74
11.78
17.83
22.26
25.43
27.55
28.68
28.90
28.35
27.36
26.26
25.33
24.64
24.12
23.62
23.07
22.56
22.23
22.17
22.26
22.13
21.26
19.23
15.84
11.27
5.98
0.61
-4.34
-8.65
-12.47
-16.25
-20.58
-25.94
-32.51
-39.94
-47.34
-53.45
-56.87
-56.54
-52.04
-43.74
-32.76
-20.59
-8.71
1.77
10.30
16.89
21.87
25.65
28.55
30.67
31.98
32.47
32.22
31.48
30.58
29.87
29.46
29.34
29.28
29.07
28.50
27.54
26.28
24.87
23.42
21.91
20.17
17.93
14.98
11.22
6.80
1.98
-2.93
-7.65
-12.10
-16.29
-20.38
-24.62
-29.32
-34.85
-41.41
-48.88
-56.65
-63.58
-68.27
-69.39
-66.17
-58.65
-47.72
-34.85
-21.67
-9.55
0.68
8.81
15.10
20.03
24.08
27.55
30.59
33.15
35.11
36.32
36.74
36.42
35.60
34.59
33.74
33.29
33.28
33.60
34.03
34.36
34.37
33.86
32.61
30.44
27.30
23.37
19.11
15.04
11.52
8.52
5.63
2.27
-2.00
-7.19
-12.85
-18.34
-23.11
-27.01
-30.40
-33.98
-38.48
-44.40
-51.67
-59.67
-67.20
-72.81
-75.07
-72.97
-66.27
-55.56
-42.15
-27.69
-13.76
-1.42
8.85
17.10
23.69
28.98
33.22
36.48
38.76
40.09
40.51
40.17
39.23
37.81
36.04
34.01
31.78
29.36
26.76
24.02
21.23
18.55
16.16
14.17
12.52
11.02
9.39
7.38
4.81
1.63
-2.11
-6.31
-10.84
-15.54
-20.22
-24.70
-28.85
-32.63
-36.08
-39.40
-42.90
-46.95
-51.81
-57.39
-63.04
-67.55
-69.42
-67.38
-60.95
-50.68
-38.04
-24.85
-12.72
-2.60
5.38
11.58
16.53
20.61
23.87
26.24
27.60
27.97
27.52
26.52
25.23
23.80
22.31
20.78
19.31
17.98
16.93
16.18
15.60
14.92
13.83
12.15
9.89
7.26
4.56
1.90
-0.79
-3.89
-7.88
-13.15
-19.81
-27.54
-35.62
-42.97
-48.41
-50.85
-49.58
-44.43
-35.93
-25.12
-13.36
-1.99
8.02
16.18
22.44
27.09
30.46
32.90
34.58
35.55
35.73
35.03
33.47
31.18
28.51
25.88
23.66
22.00
20.75
19.53
17.88
15.41
11.88
7.24
1.63
-4.61
-10.98
-16.87
-21.76
-25.36
-27.85
-29.86
-32.20
-35.59
-40.15
-45.26
-49.61
-51.62
-50.03
-44.39
-35.24
-23.97
-12.22
-1.43
7.61
14.82
20.56
25.23
29.08
32.00
33.78
34.26
33.48
31.78
29.58
27.27
25.07
23.03
21.09
19.13
17.09
14.92
12.66
10.28
7.72
4.88
1.64
-2.07
-6.25
-10.79
-15.55
-20.46
-25.57
-31.01
-36.80
-42.62
-47.69
-50.89
-51.08
-47.56
-40.36
-30.35
-18.89
-7.45
2.84
11.39
18.16
23.41
27.52
30.73
33.11
34.57
35.00
34.33
32.67
30.24
27.45
24.67
22.22
20.19
18.49
16.85
14.95
12.58
9.68
6.37
2.88
-0.60
-4.01
-7.49
-11.32
-15.88
-21.42
-28.06
-35.52
-43.14
-49.92
-54.62
-56.15
-53.82
-47.61
-38.22
-26.88
-14.99
-3.77
5.96
13.90
20.09
24.76
28.19
30.56
32.04
32.75
32.82
32.32
31.38
30.14
28.80
27.57
26.60
25.96
25.47
24.82
23.67
21.75
19.01
15.58
11.74
7.72
3.67
-0.41
-4.65
-9.27
-14.53
-20.64
-27.61
-35.11
-42.42
-48.38
-51.76
-51.53
-47.25
-39.34
-28.96
-17.70
-7.04
2.00
9.12
14.58
18.93
22.66
25.98
28.82
30.94
32.09
32.15
31.22
29.63
27.75
25.98
24.55
23.47
22.53
21.41
19.81
17.52
14.51
10.85
6.68
2.15
-2.56
-7.28
-11.84
-16.23
-20.61
-25.32
-30.67
-36.72
-42.95
-48.29
-51.30
-50.69
-45.80
-36.92
-25.22
-12.35
0.09
11.03
20.03
27.18
32.75
36.95
39.89
41.62
42.29
42.21
41.73
41.16
40.61
40.00
39.15
37.86
36.11
34.01
31.79
29.64
27.67
25.76
23.68
21.06
17.65
13.37
8.39
3.06
-2.22
-7.16
-11.69
-15.98
-20.41
-25.43
-31.39
-38.34
-45.85
-53.00
-58.42
-60.76
-59.04
-53.07
-43.55
-31.88
-19.69
-8.37
1.31
9.20
15.60
20.95
25.54
29.46
32.64
34.97
36.47
37.29
37.60
37.59
37.40
37.07
36.62
36.11
35.57
35.03
34.42
33.63
32.47
30.78
28.51
25.71
22.54
19.19
15.80
12.36
8.81
5.02
0.89
-3.58
-8.21
-12.74
-16.90
-20.51
-23.67
-26.69
-30.11
-34.49
-40.17
-47.03
-54.43
-61.14
-65.73
-66.85
-63.76
-56.52
-46.04
-33.76
-21.22
-9.63
0.30
8.45
14.99
20.23
24.38
27.56
29.90
31.58
32.85
33.96
35.07
36.15
37.09
37.69
37.85
37.60
37.11
36.57
36.12
35.74
35.26
34.42
32.96
30.74
27.80
24.33
20.68
17.17
14.01
11.18
8.41
5.31
1.47
-3.24
-8.64
-14.26
-19.53
-24.06
-27.78
-30.96
-34.10
-37.70
-42.14
-47.53
-53.61
-59.76
-64.96
-67.95
-67.56
-63.11
-54.70
-43.32
-30.53
-17.96
-6.81
2.34
9.53
15.11
19.45
22.82
25.42
27.34
28.76
29.83
30.63
31.19
31.48
31.44
31.13
30.63
30.07
29.53
29.02
28.51
27.92
27.18
26.17
24.74
22.73
20.07
16.82
13.23
9.64
6.36
3.49
0.85
-1.90
-5.12
-8.90
-13.05
-17.16
-20.81
-23.80
-26.26
-28.65
-31.60
-35.64
-40.97
-47.30
-53.71
-58.90
-61.43
-60.19
-54.76
-45.62
-34.06
-21.74
-10.25
-0.61
6.81
12.19
15.99
18.61
20.29
21.16
21.33
21.02
20.47
19.94
19.54
19.28
19.14
19.10
19.22
19.53
20.02
20.50
20.78
20.65
20.02
18.89
17.33
15.37
12.99
10.10
6.63
2.64
-1.68
-5.98
-9.91
-13.25
-16.05
-18.62
-21.38
-24.80
-29.15
-34.48
-40.51
-46.63
-51.95
-55.36
-55.82
-52.60
-45.63
-35.61
-23.88
-12.04
-1.48
6.97
13.15
17.48
20.53
22.85
24.70
26.07
26.86
27.02
26.62
25.92
25.19
24.57
24.11
23.70
23.29
22.95
22.80
22.91
23.20
23.34
22.90
21.54
19.18
16.05
12.59
9.25
6.27
3.58
0.95
-1.97
-5.37
-9.27
-13.44
-17.56
-21.32
-24.57
-27.43
-30.22
-33.42
-37.47
-42.61
-48.73
-55.25
-61.17
-65.22
-66.09
-62.89
-55.39
-44.26
-30.90
-17.10
-4.48
5.87
13.62
19.05
22.75
25.30
27.05
28.18
28.78
29.00
29.06
29.12
29.22
29.25
28.99
28.31
27.26
26.02
24.91
24.17
23.90
24.01
24.17
24.03
23.20
21.46
18.85
15.67
12.39
9.44
7.06
5.14
3.28
0.99
-2.13
-6.21
-11.01
-16.10
-20.98
-25.27
-28.80
-31.71
-34.34
-37.18
-40.72
-45.26
-50.72
-56.55
-61.68
-64.79
-64.63
-60.45
-52.23
-40.89
-27.90
-14.99
-3.57
5.56
12.26
16.91
20.07
22.22
23.65
24.47
24.72
24.50
23.94
23.20
22.39
21.57
20.77
20.02
19.42
19.04
18.91
18.93
18.89
18.54
17.76
16.53
14.97
13.21
11.29
9.15
6.67
3.82
0.65
-2.65
-5.96
-9.27
-12.70
-16.47
-20.76
-25.72
-31.35
-37.47
-43.62
-48.99
-52.55
-53.27
-50.47
-44.14
-34.98
-24.26
-13.39
-3.54
4.56
10.66
14.86
17.40
18.63
18.92
18.68
18.29
18.02
18.00
18.18
18.41
18.47
18.21
17.62
16.80
15.97
15.28
14.79
14.33
13.58
12.18
9.89
6.68
2.75
-1.52
-5.79
-9.82
-13.57
-17.16
-20.86
-25.02
-29.97
-35.86
-42.48
-49.11
-54.53
-57.30
-56.20
-50.66
-41.13
-28.92
-15.88
-3.73
6.38
14.10
19.68
23.66
26.54
28.58
29.88
30.46
30.42
29.93
29.22
28.51
27.92
27.46
27.05
26.59
26.00
25.24
24.34
23.34
22.24
20.99
19.43
17.39
14.76
11.54
7.89
4.01
0.12
-3.68
-7.41
-11.15
-14.95
-18.77
-22.53
-26.24
-30.00
-34.16
-39.10
-45.02
-51.71
-58.35
-63.67
-66.22
-64.90
-59.31
-49.91
-37.97
-25.07
-12.71
-1.92
6.89
13.82
19.26
23.63
27.19
29.99
32.02
33.25
33.78
33.85
33.77
33.79
34.05
34.47
34.87
35.07
34.96
34.60
34.14
33.71
33.30
32.76
31.81
30.16
27.72
24.60
21.14
17.70
14.57
11.75
9.03
6.04
2.48
-1.71
-6.32
-10.99
-15.39
-19.38
-23.07
-26.73
-30.69
-35.24
-40.59
-46.80
-53.66
-60.60
-66.66
-70.56
-71.10
-67.51
-59.82
-48.92
-36.27
-23.50
-11.85
-2.01
5.93
12.23
17.26
21.33
24.63
27.25
29.26
30.70
31.58
31.93
31.81
31.35
30.75
30.25
30.05
30.24
30.74
31.36
31.81
31.79
31.08
29.57
27.30
24.44
21.25
17.97
14.76
11.60
8.32
4.67
0.53
-4.09
-8.93
-13.62
-17.88
-21.60
-25.03
-28.61
-32.89
-38.17
-44.35
-50.81
-56.43
-59.86
-59.86
-55.78
-47.78
-36.85
-24.50
-12.36
-1.61
7.17
14.01
19.26
23.32
26.45
28.72
30.14
30.76
30.70
30.17
29.39
28.59
27.93
27.51
27.33
27.30
27.30
27.19
26.91
26.46
25.85
25.03
23.82
21.93
19.11
15.28
10.58
5.38
0.11
-4.90
-9.59
-14.05
-18.53
-23.28
-28.47
-34.18
-40.33
-46.54
-52.13
-56.06
-57.19
-54.63
-48.15
-38.33
-26.51
-14.27
-3.01
6.47
14.02
19.93
24.66
28.51
31.57
33.81
35.10
35.40
34.81
33.56
31.96
30.37
29.11
28.40
28.29
28.65
29.20
29.65
29.71
29.21
28.11
26.44
24.31
21.78
18.90
15.68
12.11
8.20
4.01
-0.40
-4.94
-9.55
-14.19
-18.88
-23.67
-28.66
-34.05
-40.03
-46.70
-53.90
-60.96
-66.77
-69.92
-69.19
-63.95
-54.53
-42.12
-28.49
-15.37
-3.99
5.16
12.23
17.71
22.13
25.77
28.68
30.80
32.04
32.48
32.32
31.83
31.27
30.83
30.52
30.31
30.12
29.90
29.64
29.37
29.06
28.59
27.77
26.36
24.18
21.19
17.54
13.48
9.29
5.21
1.30
-2.52
-6.37
-10.41
-14.78
-19.63
-25.13
-31.41
-38.44
-45.82
-52.72
-57.96
-60.29
-58.83
-53.38
-44.55
-33.57
-21.89
-10.82
-1.19
6.65
12.74
17.30
20.59
22.84
24.29
25.14
25.58
25.79
25.84
25.77
25.55
25.13
24.53
23.83
23.19
22.75
22.53
22.36
21.89
20.67
18.32
14.77
10.24
5.26
0.42
-3.86
-7.53
-10.88
-14.48
-18.92
-24.63
-31.68
-39.64
-47.61
-54.25
-58.10
-57.97
-53.35
-44.65
-33.12
-20.51
-8.52
1.68
9.68
15.68
20.24
23.87
26.88
29.29
31.04
32.10
32.56
32.64
32.60
32.63
32.79
33.02
33.15
33.02
32.52
31.61
30.35
28.86
27.16
25.18
22.71
19.51
15.47
10.68
5.47
0.30
-4.48
-8.78
-12.71
-16.57
-20.66
-25.22
-30.42
-36.41
-43.21
-50.61
-57.94
-64.08
-67.60
-67.28
-62.53
-53.70
-41.99
-29.11
-16.68
-5.82
3.02
10.00
15.55
20.13
24.00
27.21
29.68
31.36
32.29
32.66
32.70
32.61
32.45
32.11
31.46
30.45
29.12
27.72
26.50
25.58
24.89
24.11
22.82
20.65
17.42
13.23
8.46
3.57
-1.04
-5.18
-8.96
-12.77
-17.08
-22.30
-28.64
-35.97
-43.81
-51.28
-57.25
-60.52
-60.10
-55.62
-47.40
-36.53
-24.46
-12.64
-2.09
6.75
13.95
19.81
24.55
28.25
30.86
32.33
32.78
32.49
31.77
30.86
29.83
28.59
27.02
25.14
23.18
21.47
20.35
19.95
20.05
20.15
19.58
17.81
14.60
10.13
4.93
-0.38
-5.30
-9.66
-13.66
-17.75
-22.43
-28.01
-34.48
-41.35
-47.74
-52.49
-54.43
-52.71
-47.16
-38.29
-27.27
-15.53
-4.37
5.38
13.34
19.54
24.17
27.45
29.53
30.57
30.77
30.42
29.76
28.96
28.06
26.98
25.62
23.99
22.25
20.68
19.53
18.94
18.78
18.64
17.98
16.28
13.26
8.98
3.86
-1.51
-6.56
-10.97
-14.80
-18.39
-22.32
-27.09
-32.98
-39.78
-46.74
-52.65
-56.12
-56.03
-51.82
-43.81
-33.09
-21.18
-9.60
0.62
9.00
15.66
20.93
25.21
28.71
31.44
33.34
34.36
34.58
34.22
33.56
32.84
32.21
31.71
31.26
30.80
30.26
29.62
28.85
27.94
26.82
25.39
23.60
21.37
18.64
15.36
11.53
7.18
2.48
-2.35
-7.06
-11.49
-15.64
-19.69
-23.99
-28.94
-34.87
-41.86
-49.59
-57.28
-63.77
-67.74
-68.09
-64.24
-56.39
-45.46
-32.89
-20.17
-8.50
1.46
9.59
16.14
21.52
26.02
29.78
32.76
34.89
36.12
36.56
36.46
36.08
35.66
35.31
35.06
34.89
34.74
34.58
34.33
33.90
33.10
31.80
29.86
27.31
24.25
20.92
17.48
14.02
10.46
6.62
2.39
-2.27
-7.19
-12.14
-16.87
-21.29
-25.57
-30.04
-35.17
-41.31
-48.46
-56.14
-63.31
-68.57
-70.50
-68.10
-61.19
-50.46
-37.38
-23.71
-11.01
-0.32
8.03
14.26
18.93
22.56
25.49
27.83
29.50
30.43
30.65
30.35
29.84
29.40
29.16
29.04
28.88
28.50
27.90
27.17
26.47
25.89
25.28
24.35
22.72
20.09
16.43
11.93
6.97
1.97
-2.73
-7.00
-10.90
-14.59
-18.35
-22.50
-27.34
-33.08
-39.67
-46.70
-53.28
-58.18
-60.10
-58.10
-51.95
-42.28
-30.40
-17.87
-6.07
4.12
12.38
18.76
23.47
26.71
28.62
29.36
29.17
28.35
27.23
26.05
24.92
23.82
22.73
21.64
20.63
19.84
19.33
19.01
18.57
17.67
15.94
13.25
9.66
5.45
0.96
-3.52
-7.80
-11.90
-15.99
-20.40
-25.51
-31.58
-38.55
-45.79
-52.19
-56.35
-56.97
-53.36
-45.72
-35.07
-22.97
-10.98
-0.24
8.72
15.91
21.58
25.99
29.20
31.16
31.82
31.32
30.01
28.36
26.82
25.64
24.83
24.21
23.59
22.84
21.99
21.14
20.37
19.65
18.77
17.42
15.27
12.10
7.90
2.89
-2.52
-7.87
-12.79
-17.11
-21.02
-24.92
-29.37
-34.87
-41.60
-49.21
-56.82
-63.08
-66.50
-65.88
-60.74
-51.48
-39.35
-26.08
-13.37
-2.42
6.30
13.02
18.34
22.86
26.89
30.38
33.01
34.53
34.89
34.41
33.55
32.85
32.59
32.80
33.24
33.60
33.65
33.28
32.54
31.50
30.22
28.64
26.64
24.15
21.09
17.50
13.41
8.89
3.98
-1.25
-6.70
-12.21
-17.56
-22.65
-27.47
-32.22
-37.24
-42.90
-49.37
-56.43
-63.30
-68.72
-71.23
-69.62
-63.42
-53.10
-40.04
-26.02
-12.67
-1.08
8.43
15.99
22.00
26.79
30.50
33.22
35.08
36.27
37.02
37.50
37.78
37.84
37.62
37.13
36.47
35.78
35.29
35.15
35.43
36.01
36.57
36.67
35.90
34.02
31.08
27.38
23.38
19.55
16.18
13.26
10.51
7.55
3.97
-0.44
-5.61
-11.24
-16.90
-22.18
-26.87
-30.98
-34.83
-38.90
-43.77
-49.89
-57.32
-65.55
-73.35
-79.01
-80.79
-77.54
-69.19
-56.81
-42.23
-27.45
-14.00
-2.69
6.39
13.56
19.17
23.48
26.65
28.86
30.36
31.45
32.37
33.23
34.03
34.71
35.23
35.63
35.98
36.34
36.71
37.04
37.21
37.05
36.34
34.84
32.41
29.07
25.06
20.76
16.55
12.71
9.25
5.97
2.56
-1.21
-5.40
-9.84
-14.27
-18.38
-21.99
-25.06
-27.78
-30.48
-33.60
-37.59
-42.79
-49.17
-56.22
-62.89
-67.71
-69.18
-66.24
-58.64
-47.15
-33.24
-18.66
-4.87
7.23
17.35
25.48
31.69
35.91
37.99
37.89
35.83
32.31
27.95
23.36
18.94
14.89
11.31
8.27
5.86
4.22
3.42
3.36
3.75
4.08
3.79
2.43
-0.18
-3.93
-8.40
-13.07
-17.50
-21.44
-24.94
-28.27
-31.89
-36.20
-41.45
-47.50
-53.75
-59.08
-62.09
-61.43
-56.22
-46.46
-33.09
-17.77
-2.41
11.37
22.61
31.04
36.88
40.58
42.52
42.98
42.16
40.37
37.97
35.44
33.19
31.42
30.13
29.11
28.10
26.87
25.37
23.63
21.76
19.83
17.83
15.68
13.28
10.54
7.42
3.94
0.10
-4.11
-8.83
-14.20
-20.40
-27.34
-34.60
-41.27
-46.10
-47.73
-45.27
-38.56
-28.34
-16.08
-3.49
7.96
17.41
24.61
29.85
33.49
35.87
37.16
37.41
36.73
35.32
33.46
31.47
29.65
28.21
27.24
26.77
26.70
26.89
27.21
27.52
27.72
27.71
27.38
26.55
25.04
22.75
19.77
16.34
12.88
9.76
7.18
5.05
3.02
0.63
-2.56
-6.68
-11.61
-16.98
-22.34
-27.40
-32.10
-36.67
-41.57
-47.29
-54.20
-62.34
-71.17
-79.55
-85.84
-88.32
-85.75
-77.85
-65.55
-50.60
-35.07
-20.62
-8.17
2.14
10.58
17.47
22.94
27.04
29.84
31.63
32.80
33.75
34.67
35.51
36.10
36.28
36.05
35.57
35.08
34.78
34.74
34.90
35.06
35.02
34.62
33.76
32.38
30.42
27.82
24.52
20.59
16.27
11.94
8.00
4.71
2.05
-0.27
-2.65
-5.49
-8.97
-13.03
-17.40
-21.78
-25.97
-29.91
-33.75
-37.86
-42.68
-48.63
-55.85
-63.97
-72.09
-78.75
-82.29
-81.36
-75.32
-64.60
-50.57
-35.15
-20.27
-7.29
3.16
11.23
17.46
22.47
26.74
30.48
33.72
36.40
38.45
39.86
40.64
40.86
40.63
40.13
39.56
39.10
38.90
39.06
39.56
40.27
40.89
41.09
40.49
38.87
36.23
32.79
28.96
25.11
21.49
18.15
14.91
11.54
7.73
3.34
-1.64
-7.05
-12.55
-17.81
-22.59
-26.85
-30.80
-34.80
-39.29
-44.66
-51.08
-58.39
-65.99
-72.78
-77.35
-78.31
-74.73
-66.52
-54.55
-40.36
-25.74
-12.21
-0.66
8.64
15.92
21.64
26.27
30.17
33.56
36.52
39.03
40.99
42.32
42.98
43.04
42.65
42.07
41.54
41.24
41.19
41.29
41.36
41.21
40.72
39.83
38.45
36.47
33.84
30.58
26.93
23.28
20.04
17.41
15.26
13.16
10.57
7.09
2.61
-2.65
-8.26
-13.80
-19.00
-23.77
-28.17
-32.40
-36.73
-41.51
-47.11
-53.75
-61.38
-69.39
-76.61
-81.52
-82.56
-78.76
-70.03
-57.33
-42.36
-27.01
-12.84
-0.73
9.14
17.05
23.40
28.46
32.34
35.08
36.71
37.46
37.61
37.49
37.34
37.30
37.35
37.43
37.45
37.40
37.35
37.40
37.62
37.96
38.22
38.07
37.19
35.34
32.43
28.63
24.25
19.70
15.35
11.38
7.80
4.40
0.87
-3.06
-7.48
-12.24
-17.00
-21.40
-25.22
-28.51
-31.58
-34.94
-39.08
-44.35
-50.80
-58.06
-65.30
-71.33
-74.74
-74.32
-69.38
-60.08
-47.47
-33.16
-18.90
-6.11
4.45
12.63
18.75
23.28
26.65
29.17
31.02
32.31
33.16
33.68
33.99
34.17
34.23
34.15
33.85
33.34
32.70
32.12
31.74
31.60
31.53
31.15
30.05
27.95
24.88
21.15
17.22
13.55
10.34
7.50
4.67
1.44
-2.50
-7.15
-12.24
-17.33
-22.01
-26.06
-29.58
-32.93
-36.59
-41.01
-46.40
-52.63
-59.09
-64.71
-68.15
-68.11
-63.75
-55.02
-42.79
-28.63
-14.38
-1.62
8.68
16.28
21.46
24.80
26.86
28.12
28.86
29.32
29.64
29.92
30.19
30.37
30.36
30.09
29.58
28.97
28.46
28.19
28.18
28.28
28.19
27.61
26.31
24.24
21.54
18.43
15.20
12.00
8.90
5.79
2.48
-1.23
-5.43
-10.06
-14.86
-19.50
-23.73
-27.53
-31.27
-35.49
-40.70
-47.08
-54.14
-60.81
-65.58
-67.05
-64.29
-57.24
-46.66
-33.95
-20.67
-8.20
2.54
11.10
17.48
21.90
24.72
26.29
27.02
27.22
27.18
27.04
26.89
26.71
26.45
26.11
25.69
25.27
24.93
24.78
24.83
24.96
24.95
24.48
23.28
21.24
18.41
15.01
11.27
7.37
3.41
-0.55
-4.41
-7.99
-11.08
-13.53
-15.38
-16.85
-18.31
-20.08
-22.50
-25.83
-30.33
-36.19
-43.30
-51.12
-58.48
-63.78
-65.45
-62.46
-54.81
-43.56
-30.51
-17.53
-6.07
3.23
10.37
15.72
19.72
22.66
24.74
26.12
27.05
27.83
28.69
29.67
30.65
31.37
31.61
31.32
30.64
29.89
29.41
29.42
29.89
30.55
30.92
30.50
28.94
26.20
22.61
18.67
14.88
11.51
8.49
5.47
2.08
-1.95
-6.59
-11.55
-16.45
-20.95
-24.93
-28.49
-31.92
-35.62
-40.02
-45.41
-51.86
-58.96
-65.81
-71.05
-73.19
-71.13
-64.53
-54.04
-41.12
-27.51
-14.77
-3.83
5.03
12.05
17.58
21.98
25.42
27.99
29.79
30.98
31.73
32.22
32.59
32.88
33.11
33.23
33.22
33.10
32.97
32.97
33.21
33.63
33.95
33.75
32.61
30.36
27.13
23.41
19.75
16.56
13.87
11.38
8.58
5.07
0.70
-4.32
-9.60
-14.72
-19.42
-23.65
-27.55
-31.34
-35.28
-39.68
-44.83
-50.92
-57.80
-64.81
-70.68
-73.87
-73.00
-67.44
-57.61
-44.91
-31.23
-18.32
-7.29
1.56
8.53
14.19
18.97
23.03
26.34
28.86
30.60
31.73
32.49
33.04
33.42
33.58
33.47
33.15
32.83
32.81
33.29
34.21
35.21
35.76
35.30
33.57
30.66
26.98
23.08
19.42
16.21
13.42
10.77
7.93
4.59
0.60
-4.00
-8.98
-13.99
-18.70
-22.93
-26.74
-30.41
-34.43
-39.24
-45.13
-51.98
-59.13
-65.37
-69.19
-69.25
-64.77
-55.93
-43.84
-30.23
-16.87
-5.03
4.73
12.47
18.57
23.38
27.08
29.67
31.18
31.73
31.57
31.05
30.46
30.00
29.74
29.73
30.00
30.53
31.27
32.05
32.63
32.73
32.11
30.65
28.42
25.61
22.52
19.37
16.25
13.07
9.66
5.86
1.64
-2.87
-7.43
-11.84
-16.01
-20.03
-24.15
-28.68
-33.90
-39.88
-46.46
-53.09
-58.86
-62.60
-63.18
-59.82
-52.44
-41.76
-29.15
-16.25
-4.46
5.33
12.92
18.63
22.96
26.35
29.02
31.02
32.28
32.85
32.85
32.41
31.72
30.85
29.90
29.00
28.34
28.09
28.35
29.01
29.78
30.25
30.07
29.02
27.10
24.48
21.47
18.37
15.40
12.62
9.87
6.85
3.26
-1.10
-6.16
-11.59
-17.01
-22.11
-26.83
-31.43
-36.32
-41.93
-48.47
-55.72
-62.97
-69.09
-72.72
-72.72
-68.46
-60.14
-48.72
-35.69
-22.64
-10.78
-0.80
7.21
13.48
18.39
22.28
25.39
27.84
29.74
31.18
32.20
32.87
33.23
33.34
33.29
33.23
33.34
33.75
34.55
35.69
36.97
38.06
38.55
38.08
36.43
33.65
30.05
26.12
22.31
18.90
15.87
12.91
9.64
5.74
1.14
-3.97
-9.20
-14.14
-18.57
-22.50
-26.27
-30.40
-35.44
-41.78
-49.42
-57.88
-66.10
-72.65
-76.02
-75.12
-69.54
-59.81
-47.22
-33.42
-19.99
-8.02
2.00
10.10
16.61
21.85
26.05
29.30
31.67
33.20
34.07
34.47
34.65
34.76
34.88
35.05
35.23
35.45
35.72
36.14
36.72
37.41
38.00
38.15
37.50
35.80
33.00
29.32
25.17
21.00
17.18
13.79
10.71
7.59
4.09
-0.02
-4.75
-9.88
-15.07
-19.97
-24.38
-28.32
-32.04
-35.94
-40.46
-45.89
-52.25
-59.13
-65.71
-70.81
-73.19
-71.82
-66.28
-56.91
-44.78
-31.38
-18.24
-6.58
2.94
10.28
15.76
19.95
23.31
26.19
28.66
30.66
32.05
32.78
32.90
32.58
32.08
31.67
31.52
31.72
32.26
33.01
33.77
34.26
34.22
33.39
31.63
28.95
25.56
21.79
18.01
14.47
11.17
7.92
4.39
0.27
-4.52
-9.77
-15.13
-20.20
-24.85
-29.21
-33.68
-38.74
-44.72
-51.49
-58.40
-64.28
-67.71
-67.43
-62.80
-54.04
-42.22
-28.96
-15.85
-4.08
5.80
13.71
19.84
24.36
27.44
29.21
29.97
30.07
29.87
29.59
29.29
28.91
28.48
28.11
28.02
28.36
29.10
30.04
30.82
31.11
30.70
29.52
27.66
25.26
22.46
19.34
15.92
12.18
8.14
3.85
-0.62
-5.12
-9.52
-13.74
-17.76
-21.65
-25.54
-29.70
-34.44
-40.07
-46.68
-53.96
-61.03
-66.54
-69.01
-67.33
-61.21
-51.31
-39.06
-26.20
-14.24
-4.02
4.29
11.01
16.58
21.32
25.29
28.37
30.44
31.55
31.94
31.99
32.04
32.29
32.70
33.10
33.33
33.38
33.43
33.68
34.25
34.97
35.45
35.18
33.87
31.46
28.22
24.59
20.98
17.68
14.74
12.01
9.22
6.03
2.22
-2.26
-7.25
-12.38
-17.26
-21.64
-25.57
-29.34
-33.44
-38.32
-44.24
-51.17
-58.77
-66.30
-72.64
-76.49
-76.61
-72.25
-63.50
-51.28
-37.24
-23.16
-10.45
0.09
8.36
14.70
19.57
23.27
26.00
27.83
28.95
29.61
30.10
30.62
31.20
31.72
32.00
31.98
31.75
31.61
31.85
32.60
33.70
34.73
35.14
34.51
32.72
29.99
26.81
23.67
20.89
18.48
16.19
13.56
10.19
5.86
0.64
-5.11
-10.89
-16.20
-20.79
-24.71
-28.32
-32.18
-36.89
-42.87
-50.18
-58.39
-66.48
-73.00
-76.40
-75.47
-69.81
-59.97
-47.33
-33.71
-20.76
-9.55
-0.47
6.69
12.40
17.09
21.06
24.37
27.00
28.91
30.14
30.82
31.11
31.25
31.39
31.68
32.20
32.95
33.85
34.75
35.39
35.45
34.66
32.90
30.25
27.03
23.65
20.42
17.49
14.72
11.80
8.43
4.40
-0.21
-5.16
-10.14
-14.90
-19.41
-23.82
-28.45
-33.70
-39.83
-46.83
-54.25
-61.21
-66.42
-68.56
-66.64
-60.43
-50.55
-38.39
-25.64
-13.78
-3.75
4.23
10.43
15.31
19.28
22.53
25.11
26.94
28.01
28.37
28.18
27.68
27.13
26.75
26.66
26.79
26.96
26.96
26.62
25.91
24.89
23.66
22.21
20.45
18.22
15.40
11.99
8.18
4.23
0.41
-3.15
-6.46
-9.68
-13.03
-16.75
-21.12
-26.37
-32.67
-39.96
-47.73
-55.02
-60.46
-62.62
-60.53
-54.02
-43.88
-31.63
-19.02
-7.48
2.23
10.00
16.17
21.16
25.22
28.39
30.66
32.05
32.78
33.10
33.31
33.53
33.78
34.00
34.13
34.16
34.15
34.07
33.81
33.15
31.87
29.83
27.09
23.84
20.40
17.02
13.77
10.53
7.06
3.12
-1.37
-6.32
-11.49
-16.63
-21.56
-26.24
-30.82
-35.59
-40.97
-47.31
-54.71
-62.76
-70.45
-76.27
-78.63
-76.40
-69.34
-58.28
-44.76
-30.60
-17.32
-5.81
3.63
11.18
17.15
21.88
25.62
28.56
30.89
32.77
34.37
35.76
36.93
37.79
38.26
38.33
38.13
37.88
37.86
38.22
38.87
39.47
39.50
38.52
36.37
33.20
29.46
25.63
22.06
18.78
15.55
11.99
7.74
2.71
-2.94
-8.84
-14.52
-19.63
-24.10
-28.19
-32.43
-37.44
-43.71
-51.27
-59.57
-67.43
-73.30
-75.70
-73.67
-67.14
-56.86
-44.23
-30.76
-17.72
-5.87
4.50
13.41
20.92
27.00
31.57
34.57
36.14
36.65
36.59
36.40
36.38
36.58
36.90
37.21
37.44
37.67
37.99
38.44
38.93
39.22
39.01
38.00
36.08
33.30
29.90
26.22
22.59
19.19
15.94
12.55
8.66
4.02
-1.36
-7.12
-12.75
-17.79
-22.05
-25.71
-29.29
-33.51
-38.96
-45.86
-53.79
-61.74
-68.23
-71.76
-71.23
-66.33
-57.60
-46.31
-34.01
-22.11
-11.57
-2.81
4.24
9.95
14.75
18.95
22.67
25.82
28.24
29.81
30.58
30.81
30.81
30.91
31.22
31.69
32.14
32.37
32.31
31.99
31.50
30.89
30.09
28.91
27.04
24.22
20.37
15.66
10.46
5.23
0.33
-4.12
-8.29
-12.52
-17.17
-22.55
-28.80
-35.84
-43.37
-50.77
-57.17
-61.44
-62.54
-59.77
-53.12
-43.33
-31.70
-19.69
-8.52
1.16
9.27
16.01
21.69
26.40
30.02
32.40
33.52
33.60
33.09
32.47
32.11
32.18
32.62
33.24
33.84
34.27
34.37
34.07
33.30
32.07
30.49
28.66
26.63
24.30
21.46
17.87
13.43
8.28
2.72
-2.84
-8.14
-13.09
-17.80
-22.50
-27.42
-32.77
-38.71
-45.33
-52.54
-59.87
-66.39
-70.79
-71.73
-68.32
-60.55
-49.33
-36.27
-23.15
-11.38
-1.67
5.98
12.00
16.99
21.41
25.45
29.12
32.27
34.79
36.60
37.72
38.28
38.38
38.18
37.87
37.61
37.57
37.81
38.22
38.44
38.06
36.70
34.23
30.85
26.97
23.00
19.20
15.52
11.74
7.63
3.09
-1.79
-6.75
-11.56
-16.09
-20.38
-24.69
-29.36
-34.79
-41.20
-48.55
-56.30
-63.46
-68.71
-70.75
-68.68
-62.34
-52.41
-40.21
-27.38
-15.36
-5.08
3.18
9.65
14.83
19.20
23.05
26.44
29.24
31.36
32.72
33.42
33.60
33.47
33.18
32.85
32.56
32.35
32.27
32.29
32.30
32.10
31.48
30.24
28.32
25.77
22.74
19.42
15.93
12.30
8.50
4.49
0.25
-4.17
-8.66
-13.10
-17.42
-21.68
-26.06
-30.89
-36.52
-43.13
-50.52
-57.95
-64.18
-67.76
-67.48
-62.82
-54.15
-42.72
-30.14
-17.93
-7.09
1.99
9.39
15.32
19.98
23.43
25.75
27.07
27.68
27.94
28.11
28.35
28.67
28.99
29.18
29.18
29.00
28.72
28.44
28.26
28.20
28.11
27.74
26.73
24.76
21.65
17.50
12.62
7.48
2.52
-2.03
-6.20
-10.28
-14.65
-19.68
-25.60
-32.39
-39.76
-47.06
-53.35
-57.50
-58.56
-55.93
-49.70
-40.60
-29.85
-18.77
-8.41
0.60
8.16
14.42
19.60
23.79
26.93
28.89
29.61
29.30
28.37
27.36
26.72
26.62
26.93
27.34
27.54
27.37
26.91
26.28
25.58
24.74
23.55
21.76
19.21
15.90
11.96
7.63
3.14
-1.36
-5.78
-10.13
-14.48
-18.93
-23.66
-28.94
-34.98
-41.90
-49.43
-56.80
-62.80
-66.05
-65.44
-60.61
-52.09
-41.07
-29.06
-17.31
-6.66
2.59
10.40
16.89
22.13
26.25
29.44
31.92
33.88
35.38
36.37
36.75
36.52
35.82
34.96
34.26
33.94
33.99
34.31
34.62
34.69
34.34
33.45
31.99
29.96
27.50
24.73
21.81
18.79
15.56
11.95
7.74
2.88
-2.54
-8.23
-13.85
-19.08
-23.81
-28.15
-32.43
-37.13
-42.75
-49.53
-57.22
-64.96
-71.32
-74.64
-73.62
-67.79
-57.78
-45.12
-31.77
-19.40
-8.99
-0.73
5.80
11.20
15.92
20.14
23.82
26.91
29.40
31.39
33.01
34.34
35.33
35.89
35.93
35.54
34.96
34.57
34.69
35.38
36.38
37.18
37.19
35.95
33.41
29.84
25.77
21.75
18.06
14.72
11.42
7.77
3.54
-1.27
-6.38
-11.43
-16.10
-20.32
-24.19
-28.02
-32.12
-36.78
-42.19
-48.43
-55.29
-62.18
-68.07
-71.61
-71.57
-67.22
-58.76
-47.31
-34.58
-22.26
-11.56
-2.90
3.90
9.36
13.97
17.96
21.36
24.07
26.04
27.31
27.99
28.26
28.29
28.26
28.35
28.68
29.32
30.21
31.18
31.98
32.34
32.05
31.00
29.20
26.79
23.92
20.78
17.42
13.83
9.93
5.68
1.11
-3.59
-8.18
-12.48
-16.41
-20.13
-23.94
-28.23
-33.33
-39.33
-45.99
-52.62
-58.16
-61.35
-61.09
-56.78
-48.57
-37.45
-24.96
-12.76
-2.13
6.25
12.44
16.92
20.30
23.05
25.34
27.07
28.04
28.17
27.58
26.66
25.88
25.64
26.07
26.97
27.95
28.56
28.53
27.81
26.58
25.06
23.42
21.66
19.62
17.07
13.79
9.74
5.05
-0.01
-5.07
-9.83
-14.13
-18.03
-21.77
-25.70
-30.18
-35.46
-41.58
-48.31
-55.04
-60.83
-64.54
-65.10
-61.79
-54.57
-44.16
-31.89
-19.32
-7.80
1.83
9.42
15.28
19.91
23.73
26.90
29.41
31.23
32.40
33.06
33.38
33.47
33.39
33.19
32.97
32.87
33.08
33.61
34.26
34.67
34.44
33.23
30.97
27.82
24.11
20.23
16.47
12.95
9.57
6.08
2.19
-2.24
-7.17
-12.34
-17.43
-22.18
-26.54
-30.70
-35.02
-39.94
-45.76
-52.56
-59.95
-67.04
-72.54
-75.01
-73.37
-67.23
-57.18
-44.57
-31.12
-18.45
-7.58
1.17
8.04
13.60
18.39
22.70
26.53
29.68
31.95
33.25
33.70
33.58
33.19
32.76
32.38
32.06
31.82
31.71
31.76
31.94
32.03
31.73
30.72
28.85
26.22
23.12
19.87
16.74
13.76
10.79
7.56
3.80
-0.55
-5.38
-10.41
-15.30
-19.81
-23.98
-28.09
-32.63
-38.06
-44.55
-51.74
-58.74
-64.22
-66.85
-65.65
-60.37
-51.56
-40.45
-28.52
-17.11
-7.15
1.04
7.54
12.68
16.75
19.97
22.40
24.10
25.15
25.69
25.92
26.01
26.09
26.20
26.33
26.48
26.61
26.71
26.69
26.46
25.88
24.81
23.17
20.92
18.05
14.63
10.70
6.40
1.92
-2.52
-6.71
-10.57
-14.18
-17.82
-21.89
-26.75
-32.59
-39.27
-46.31
-52.84
-57.83
-60.20
-59.20
-54.61
-46.87
-36.94
-26.09
-15.52
-6.10
1.78
8.13
13.20
17.33
20.75
23.59
25.86
27.52
28.62
29.27
29.67
30.12
30.82
31.85
33.11
34.34
35.26
35.66
35.45
34.67
33.39
31.61
29.31
26.40
22.86
18.70
14.07
9.13
4.10
-0.83
-5.54
-10.01
-14.34
-18.77
-23.60
-29.20
-35.82
-43.45
-51.64
-59.48
-65.66
-68.85
-68.06
-62.97
-54.16
-42.85
-30.62
-18.89
-8.57
0.02
7.00
12.70
17.44
21.36
24.54
26.99
28.80
30.06
30.90
31.36
31.42
31.03
30.22
29.10
27.88
26.82
26.06
25.53
24.93
23.76
21.57
18.13
13.55
8.27
2.89
-2.08
-6.41
-10.19
-13.84
-17.92
-22.93
-29.19
-36.64
-44.71
-52.36
-58.23
-61.00
-59.75
-54.35
-45.54
-34.65
-23.21
-12.49
-3.13
4.72
11.32
16.97
21.85
25.98
29.29
31.69
33.18
33.73
33.41
32.32
30.66
28.72
26.84
25.26
24.12
23.29
22.53
21.52
19.97
17.71
14.66
10.88
6.52
1.85
-2.85
-7.38
-11.73
-16.16
-21.08
-26.89
-33.61
-40.69
-46.99
-51.10
-51.81
-48.57
-41.76
-32.50
-22.27
-12.41
-3.72
3.58
9.70
14.92
19.44
23.21
26.06
27.82
28.43
28.02
26.88
25.36
23.82
22.57
21.79
21.45
21.38
21.25
20.69
19.41
17.29
14.40
10.98
7.31
3.57
-0.19
-4.15
-8.59
-13.84
-20.11
-27.35
-35.16
-42.70
-48.89
-52.52
-52.68
-49.00
-41.84
-32.19
-21.42
-10.89
-1.55
6.15
12.32
17.30
21.48
25.07
28.09
30.37
31.75
32.13
31.63
30.52
29.15
27.85
26.84
26.16
25.66
25.10
24.12
22.42
19.85
16.41
12.31
7.85
3.31
-1.18
-5.65
-10.29
-15.36
-21.09
-27.56
-34.64
-41.86
-48.37
-53.04
-54.69
-52.51
-46.41
-37.12
-26.00
-14.57
-4.02
5.04
12.55
18.73
23.87
28.12
31.50
34.07
35.86
37.00
37.59
37.65
37.20
36.21
34.71
32.81
30.70
28.65
26.88
25.49
24.32
23.01
21.09
18.20
14.28
9.62
4.75
0.14
-3.98
-7.84
-11.92
-16.85
-23.05
-30.48
-38.64
-46.51
-52.79
-56.21
-55.86
-51.50
-43.65
-33.46
-22.34
-11.58
-2.00
6.12
12.92
18.74
23.89
28.52
32.60
35.99
38.56
40.18
40.87
40.74
40.01
38.98
37.93
37.11
36.63
36.48
36.51
36.44
35.97
34.84
32.89
30.16
26.82
23.17
19.43
15.73
12.04
8.24
4.20
-0.17
-4.78
-9.51
-14.19
-18.70
-23.02
-27.33
-31.92
-37.13
-43.22
-50.11
-57.26
-63.62
-67.88
-68.82
-65.72
-58.66
-48.47
-36.50
-24.19
-12.68
-2.64
5.74
12.56
18.03
22.35
25.62
27.94
29.41
30.21
30.56
30.72
30.82
30.90
30.89
30.72
30.41
30.11
30.04
30.25
30.62
30.78
30.30
28.89
26.55
23.55
20.21
16.79
13.27
9.53
5.39
0.87
-3.87
-8.55
-12.95
-16.97
-20.70
-24.42
-28.46
-33.19
-38.85
-45.34
-52.09
-58.06
-61.90
-62.37
-58.78
-51.27
-40.82
-28.92
-17.11
-6.57
2.15
9.04
14.47
18.86
22.51
25.51
27.81
29.33
30.10
30.30
30.27
30.33
30.67
31.27
31.95
32.49
32.81
32.97
33.14
33.43
33.70
33.62
32.75
30.79
27.75
24.00
20.13
16.61
13.67
11.12
8.52
5.39
1.48
-3.13
-8.11
-13.02
-17.49
-21.39
-24.83
-28.11
-31.64
-35.77
-40.82
-46.87
-53.68
-60.62
-66.65
-70.50
-71.02
-67.51
-60.02
-49.42
-37.14
-24.78
-13.60
-4.28
3.18
9.16
14.17
18.48
22.14
25.02
27.03
28.31
29.13
29.82
30.56
31.35
32.08
32.64
33.09
33.59
34.26
35.05
35.70
35.85
35.25
33.85
31.82
29.45
26.95
24.41
21.80
19.09
16.27
13.40
10.56
7.78
5.08
2.42
-0.26
-3.06
-6.13
-9.59
-13.47
-17.63
-21.77
-25.54
-28.74
-31.45
-34.07
-37.19
-41.30
-46.65
-52.97
-59.52
-65.13
-68.46
-68.36
-64.19
-56.11
-45.04
-32.45
-19.90
-8.64
0.68
8.01
13.64
18.00
21.38
23.96
25.79
26.92
27.44
27.49
27.26
26.96
26.79
26.89
27.28
27.86
28.48
28.94
29.18
29.20
29.05
28.74
28.20
27.26
25.79
23.80
21.40
18.79
16.15
13.52
10.93
8.29
5.58
2.78
-0.16
-3.28
-6.62
-10.19
-13.90
-17.63
-21.25
-24.72
-28.08
-31.44
-34.91
-38.66
-42.89
-47.74
-53.16
-58.71
-63.47
-66.17
-65.58
-61.01
-52.61
-41.41
-28.91
-16.69
-5.84
3.06
9.99
15.17
18.85
21.25
22.56
23.02
22.94
22.61
22.31
22.12
22.06
22.07
22.12
22.26
22.58
23.14
23.91
24.68
25.12
24.91
23.87
22.03
19.60
16.89
14.18
11.60
9.06
6.38
3.31
-0.29
-4.37
-8.71
-13.02
-17.04
-20.65
-23.92
-27.06
-30.35
-34.08
-38.43
-43.38
-48.56
-53.17
-56.05
-56.01
-52.23
-44.69
-34.24
-22.39
-10.77
-0.65
7.37
13.34
17.67
20.79
22.94
24.20
24.56
24.16
23.27
22.25
21.38
20.80
20.44
20.19
19.94
19.73
19.67
19.82
20.10
20.26
19.96
18.95
17.22
14.98
12.55
10.20
8.01
5.79
3.27
0.18
-3.54
-7.71
-12.01
-16.13
-19.88
-23.28
-26.53
-29.98
-33.94
-38.65
-44.15
-50.16
-56.05
-60.78
-63.17
-62.13
-57.14
-48.45
-37.12
-24.71
-12.78
-2.44
5.84
12.12
16.78
20.26
22.83
24.69
25.96
26.76
27.25
27.53
27.64
27.56
27.28
26.86
26.43
26.16
26.20
26.58
27.20
27.81
28.02
27.46
25.80
23.00
19.31
15.22
11.33
8.08
5.53
3.39
1.11
-1.80
-5.56
-10.01
-14.69
-19.10
-22.95
-26.33
-29.61
-33.31
-37.90
-43.59
-50.20
-57.12
-63.36
-67.73
-69.06
-66.58
-60.13
-50.31
-38.33
-25.69
-13.78
-3.53
4.71
11.08
15.98
19.83
22.91
25.38
27.29
28.61
29.35
29.54
29.29
28.80
28.25
27.88
27.80
28.05
28.54
29.13
29.68
30.03
30.01
29.40
28.01
25.71
22.57
18.87
15.03
11.46
8.33
5.56
2.82
-0.31
-4.06
-8.45
-13.20
-17.85
-22.06
-25.64
-28.74
-31.79
-35.31
-39.76
-45.37
-51.94
-58.85
-65.04
-69.24
-70.25
-67.32
-60.40
-50.19
-38.01
-25.43
-13.79
-3.94
3.85
9.83
14.50
18.31
21.56
24.31
26.50
27.98
28.71
28.79
28.41
27.89
27.47
27.28
27.33
27.53
27.71
27.74
27.52
27.00
26.16
24.94
23.27
21.04
18.22
14.87
11.15
7.26
3.40
-0.36
-4.05
-7.79
-11.69
-15.86
-20.34
-25.23
-30.67
-36.80
-43.62
-50.77
-57.42
-62.35
-64.29
-62.33
-56.31
-46.90
-35.39
-23.25
-11.76
-1.69
6.69
13.45
18.82
23.03
26.25
28.60
30.14
30.98
31.20
30.94
30.41
29.89
29.61
29.72
30.17
30.81
31.38
31.63
31.42
30.70
29.53
27.98
26.05
23.66
20.67
16.95
12.51
7.52
2.29
-2.84
-7.58
-11.89
-15.92
-20.04
-24.71
-30.33
-37.12
-44.95
-53.28
-61.14
-67.24
-70.33
-69.47
-64.38
-55.52
-43.98
-31.18
-18.48
-6.90
2.97
10.97
17.26
22.12
25.90
28.90
31.39
33.50
35.26
36.61
37.51
37.96
38.06
38.04
38.11
38.42
38.95
39.58
40.04
40.10
39.56
38.30
36.30
33.57
30.25
26.52
22.63
18.83
15.22
11.70
8.00
3.83
-1.01
-6.44
-12.16
-17.76
-22.96
-27.78
-32.57
-37.92
-44.32
-51.83
-59.84
-67.11
-72.03
-73.16
-69.72
-61.92
-50.81
-37.97
-24.95
-12.88
-2.36
6.50
13.79
19.66
24.24
27.74
30.39
32.48
34.24
35.74
36.94
37.72
38.01
37.93
37.73
37.71
38.08
38.86
39.82
40.59
40.77
40.07
38.38
35.81
32.59
29.04
25.45
22.03
18.78
15.56
12.12
8.20
3.66
-1.40
-6.71
-11.92
-16.74
-21.11
-25.25
-29.57
-34.61
-40.74
-47.98
-55.81
-63.10
-68.38
-70.15
-67.45
-60.20
-49.34
-36.50
-23.47
-11.66
-1.77
6.20
12.67
18.07
22.70
26.55
29.50
31.49
32.59
33.06
33.21
33.33
33.56
33.93
34.40
34.89
35.39
35.87
36.25
36.39
36.06
35.10
33.40
30.99
27.97
24.46
20.55
16.31
11.82
7.24
2.77
-1.41
-5.22
-8.81
-12.46
-16.62
-21.66
-27.85
-35.14
-43.09
-50.86
-57.28
-61.09
-61.32
-57.57
-50.20
-40.17
-28.81
-17.41
-6.95
2.03
9.40
15.29
19.87
23.36
25.88
27.55
28.46
28.77
28.68
28.47
28.43
28.72
29.34
30.13
30.81
31.18
31.14
30.73
30.05
29.12
27.88
26.15
23.78
20.69
16.88
12.48
7.66
2.65
-2.30
-6.97
-11.21
-15.09
-18.89
-23.03
-27.98
-33.99
-40.97
-48.40
-55.35
-60.67
-63.18
-62.00
-56.82
-48.00
-36.62
-24.12
-11.95
-1.15
7.79
14.93
20.60
25.19
28.96
32.04
34.45
36.25
37.52
38.34
38.77
38.88
38.72
38.44
38.25
38.27
38.54
38.86
38.91
38.35
36.93
34.63
31.61
28.21
24.72
21.29
17.91
14.39
10.46
5.93
0.80
-4.73
-10.32
-15.60
-20.34
-24.53
-28.44
-32.48
-37.14
-42.75
-49.29
-56.34
-63.06
-68.25
-70.66
-69.31
-63.81
-54.52
-42.56
-29.45
-16.74
-5.63
3.32
10.18
15.43
19.69
23.40
26.72
29.55
31.71
33.05
33.59
33.49
33.03
32.44
31.92
31.58
31.49
31.62
31.92
32.27
32.51
32.45
31.90
30.70
28.77
26.17
23.03
19.56
15.92
12.13
8.14
3.85
-0.77
-5.63
-10.53
-15.28
-19.80
-24.19
-28.72
-33.73
-39.50
-46.03
-52.92
-59.31
-64.00
-65.73
-63.58
-57.37
-47.76
-36.10
-23.94
-12.59
-2.77
5.38
12.07
17.62
22.20
25.83
28.47
30.06
30.69
30.55
29.87
28.94
28.04
27.41
27.23
27.54
28.22
29.03
29.62
29.69
29.05
27.66
25.67
23.22
20.44
17.34
13.88
10.05
5.96
1.81
-2.19
-5.88
-9.34
-12.76
-16.44
-20.68
-25.69
-31.56
-38.20
-45.19
-51.79
-56.93
-59.44
-58.34
-53.26
-44.61
-33.49
-21.44
-9.93
0.02
8.04
14.26
19.11
22.95
25.95
28.07
29.19
29.30
28.58
27.36
26.07
25.05
24.51
24.40
24.57
24.78
24.81
24.53
23.92
23.06
22.01
20.80
19.33
17.43
14.93
11.74
7.93
3.69
-0.70
-5.02
-9.09
-12.91
-16.57
-20.23
-24.14
-28.53
-33.64
-39.53
-46.03
-52.53
-58.03
-61.31
-61.22
-57.14
-49.20
-38.37
-26.12
-14.05
-3.39
5.26
11.95
17.10
21.21
24.62
27.41
29.50
30.76
31.12
30.67
29.61
28.25
26.92
25.98
25.63
25.91
26.63
27.39
27.76
27.39
26.16
24.15
21.59
18.75
15.82
12.91
10.03
7.12
4.03
0.65
-3.15
-7.36
-11.87
-16.43
-20.85
-25.06
-29.20
-33.59
-38.60
-44.39
-50.75
-57.03
-62.15
-64.89
-64.20
-59.57
-51.26
-40.22
-27.85
-15.59
-4.54
4.67
11.91
17.34
21.24
23.96
25.78
26.97
27.69
28.02
27.95
27.47
26.64
25.64
24.75
24.21
24.15
24.51
25.10
25.66
26.00
25.92
25.30
24.07
22.25
19.92
17.23
14.31
11.23
7.92
4.29
0.25
-4.16
-8.74
-13.23
-17.38
-21.14
-24.66
-28.38
-32.81
-38.33
-44.96
-52.09
-58.56
-62.84
-63.53
-59.89
-52.14
-41.39
-29.28
-17.41
-6.89
1.81
8.78
14.26
18.50
21.60
23.63
24.73
25.18
25.32
25.40
25.52
25.66
25.75
25.76
25.72
25.66
25.57
25.38
24.95
24.19
23.04
21.45
19.35
16.67
13.35
9.48
5.24
0.89
-3.29
-7.12
-10.56
-13.68
-16.68
-19.87
-23.61
-28.23
-33.93
-40.51
-47.31
-53.21
-56.87
-57.17
-53.51
-46.11
-35.91
-24.27
-12.60
-1.94
7.11
14.37
19.93
23.90
26.41
27.57
27.61
26.92
25.92
25.00
24.34
23.89
23.45
22.82
21.99
21.10
20.40
20.08
20.08
20.10
19.70
18.40
15.92
12.24
7.61
2.44
-2.75
-7.59
-11.85
-15.60
-19.15
-22.93
-27.47
-33.12
-39.87
-47.19
-53.96
-58.72
-60.07
-57.19
-50.13
-39.88
-27.99
-16.08
-5.32
3.78
11.28
17.49
22.64
26.73
29.62
31.17
31.47
30.82
29.65
28.40
27.40
26.75
26.41
26.23
26.02
25.62
24.94
23.99
22.87
21.67
20.43
19.08
17.48
15.40
12.68
9.27
5.27
0.85
-3.76
-8.34
-12.73
-16.84
-20.74
-24.68
-29.09
-34.42
-40.86
-48.19
-55.50
-61.43
-64.43
-63.35
-57.83
-48.50
-36.77
-24.30
-12.57
-2.45
5.81
12.44
17.78
22.09
25.49
27.96
29.54
30.37
30.66
30.64
30.47
30.22
29.90
29.49
29.02
28.55
28.11
27.74
27.33
26.80
26.00
24.84
23.31
21.35
18.92
15.94
12.36
8.18
3.52
-1.42
-6.39
-11.20
-15.76
-20.15
-24.59
-29.34
-34.68
-40.71
-47.23
-53.67
-59.03
-62.17
-62.06
-58.13
-50.58
-40.27
-28.58
-16.92
-6.44
2.23
8.96
14.00
17.73
20.47
22.43
23.67
24.21
24.11
23.51
22.62
21.67
20.83
20.23
19.89
19.84
20.09
20.59
21.17
21.53
