1538597689.00
64.000000
-0.00
-0.00
-0.00
-0.00
-0.00
-0.00
-0.00
-0.00
-0.00
-0.00
0.00
0.01
0.01
-0.00
-0.03
-0.05
-0.05
0.00
0.13
0.36
0.66
1.01
1.37
1.72
2.06
2.40
2.79
3.24
3.80
4.42
5.06
5.66
6.20
6.68
7.15
7.68
8.31
9.14
10.09
11.06
11.93
12.65
13.29
14.01
15.04
16.52
18.68
21.31
24.15
26.89
29.37
31.64
34.03
36.94
40.70
45.68
51.50
57.66
63.56
68.86
73.64
78.39
83.81
90.44
98.80
108.38
118.39
127.96
136.52
144.14
151.47
159.85
167.95
178.01
190.62
205.86
222.51
237.67
247.09
246.14
231.47
202.15
160.52
110.39
56.02
0.64
-54.22
-108.19
-161.32
-213.33
-263.42
-310.17
-352.74
-390.51
-422.93
-449.12
-467.54
-476.37
-473.92
-459.37
-432.97
-396.63
-353.41
-306.94
-261.62
-220.73
-186.38
-159.58
-140.58
-128.94
-124.01
-124.86
-130.16
-138.12
-146.47
-152.83
-155.07
-151.66
-141.77
-124.67
-100.74
-71.07
-37.22
-0.82
36.46
73.01
107.43
138.55
165.51
187.69
204.86
217.11
224.86
228.66
229.09
226.76
222.19
215.89
208.18
199.36
189.74
179.59
169.13
158.46
147.65
136.66
125.44
113.91
102.02
89.83
77.50
65.29
53.46
42.33
32.20
23.31
15.75
9.51
4.44
0.26
-3.35
-6.88
-10.65
-14.87
-19.61
-24.87
-30.46
-36.15
-41.59
-46.38
-50.19
-52.64
-53.43
-52.37
-49.36
-44.45
-37.81
-29.74
-20.32
-10.12
0.20
10.03
18.78
25.93
31.09
33.95
34.41
32.58
28.82
23.74
18.09
12.68
8.31
5.64
5.17
7.12
11.56
18.53
27.69
38.43
50.05
61.82
73.02
83.02
91.19
97.25
101.12
102.95
102.87
100.92
96.98
90.74
81.91
69.90
54.66
36.69
17.03
-3.29
-23.35
-42.61
-61.01
-77.77
-93.37
-108.01
-121.21
-131.88
-139.08
-142.33
-141.82
-138.50
-133.64
-128.42
-123.11
-118.04
-110.80
-99.44
-82.98
-61.96
-38.23
-14.40
6.50
21.61
28.74
26.89
16.57
0.74
-15.28
-25.31
-24.68
-11.69
9.41
31.33
47.11
52.79
48.81
38.86
27.52
18.01
11.30
6.77
4.08
4.04
8.11
17.49
32.17
50.26
69.55
87.51
102.24
113.07
120.33
124.67
126.49
125.62
121.46
113.44
101.43
86.00
68.63
51.28
35.75
23.27
14.20
8.08
4.08
1.22
-1.25
-3.64
-5.86
-7.69
-9.05
-10.06
-11.06
-12.72
-15.34
-19.07
-23.89
-29.67
-36.23
-43.48
-51.42
-60.14
-69.74
-80.35
-92.15
-105.27
-119.84
-135.92
-153.52
-172.57
-192.87
-214.02
-235.46
-256.53
-276.38
-293.96
-308.02
-317.11
-319.71
-314.69
-300.93
-277.74
-245.20
-204.22
-156.56
-104.67
-51.41
0.31
47.79
88.81
121.70
145.31
159.05
162.89
157.33
143.49
123.07
98.18
71.22
44.40
19.46
-2.53
-21.19
-36.69
-49.38
-59.41
-66.65
-70.80
-71.66
-69.51
-65.29
-60.42
-56.42
-54.26
-53.81
-53.84
-52.41
-47.52
-37.89
-23.35
-4.65
17.10
41.15
67.74
98.02
133.71
176.54
227.99
288.83
358.52
434.21
509.16
574.08
618.85
635.68
621.92
581.23
522.18
454.95
387.81
325.13
267.71
214.54
164.77
118.68
77.25
40.99
9.27
-19.49
-46.93
-73.58
-98.72
-120.66
-137.64
-148.77
-154.51
-156.45
-156.71
-157.07
-158.26
-159.89
-160.78
-159.64
-155.73
-149.26
-141.32
-133.39
-126.72
-121.86
-118.44
-115.44
-111.65
-106.24
-99.14
-91.12
-83.43
-77.29
-73.34
-71.36
-70.32
-68.80
-65.64
-60.49
-53.91
-47.35
-42.39
-40.04
-40.27
-41.94
-43.47
-43.32
-40.76
-36.05
-30.31
-25.14
-22.27
-23.23
-28.68
-37.45
-46.00
-48.76
-39.80
-15.29
24.37
73.70
123.23
162.11
181.47
177.04
150.35
107.96
59.34
14.01
-20.92
-42.36
-51.19
-50.87
-45.80
-39.53
-34.12
-30.54
-29.62
-31.72
-35.92
-39.32
-37.55
-27.12
-7.92
15.57
35.64
44.94
40.19
23.86
2.78
-15.51
-26.30
-29.24
-27.30
-24.19
-22.11
-21.08
-19.93
-17.74
-14.76
-12.19
-11.17
-12.18
-14.77
-17.59
-19.25
-18.94
-16.73
-13.54
-10.77
-9.68
-10.87
-14.00
-17.96
-21.32
-22.94
-22.45
-20.39
-18.05
-16.91
-18.01
-21.51
-26.57
-31.71
-35.43
-36.97
-36.45
-34.86
-33.56
-33.52
-35.13
-38.42
-43.36
-49.80
-56.81
-62.08
-61.97
-52.81
-32.79
-3.56
29.85
60.72
83.33
95.13
97.15
92.76
85.73
78.66
72.72
68.24
65.37
64.31
64.91
66.36
67.26
66.31
63.13
58.27
53.24
49.84
49.60
53.02
58.93
64.24
64.49
55.48
35.21
5.42
-28.64
-59.93
-82.61
-94.30
-96.70
-94.39
-92.30
-93.39
-97.28
-100.60
-98.54
-87.20
-65.56
-36.00
-3.78
25.33
47.23
61.28
69.42
74.21
76.76
75.78
68.79
54.52
34.86
14.53
-0.95
-8.13
-6.67
0.94
11.18
20.88
27.71
29.98
26.37
16.46
0.96
-17.56
-35.07
-47.26
-51.26
-46.47
-35.23
-21.89
-11.35
-6.94
-9.02
-14.95
-20.51
-21.91
-17.78
-9.63
-0.34
7.91
14.80
21.44
28.61
35.07
37.82
33.80
22.37
6.16
-10.04
-21.73
-26.72
-25.65
-20.94
-14.97
-9.35
-4.86
-2.02
-1.36
-3.52
-8.33
-14.77
-21.07
-25.34
-26.40
-24.18
-19.65
-14.29
-9.53
-6.17
-4.50
-4.37
-5.45
-7.39
-9.81
-12.33
-14.40
-15.52
-15.11
-13.07
-9.85
-6.18
-2.67
0.59
4.04
8.52
13.66
19.26
24.86
29.66
32.59
32.64
29.17
22.35
13.34
3.94
-3.89
-9.13
-12.05
-13.95
-16.25
-19.64
-23.70
-27.20
-28.88
-27.92
-24.46
-19.34
-13.68
-8.44
-4.24
-1.39
0.18
0.75
0.79
0.81
1.26
2.56
5.03
8.84
13.88
19.69
25.62
31.11
35.98
40.54
45.44
51.37
58.68
67.20
76.24
84.85
92.13
97.54
101.21
104.02
107.41
112.89
121.19
131.54
141.48
147.42
145.96
135.31
116.31
92.23
67.63
46.40
30.14
17.57
5.16
-11.28
-35.03
-67.38
-107.24
-151.27
-194.28
-229.96
-252.17
-256.72
-243.03
-215.04
-180.29
-147.41
-123.04
-109.73
-105.78
-107.04
-109.36
-110.31
-109.28
-106.48
-101.86
-94.79
-84.65
-71.68
-57.06
-42.25
-27.75
-12.53
5.43
27.59
53.47
80.25
103.94
121.25
131.24
135.71
138.14
141.90
148.75
158.39
169.12
178.98
186.64
191.56
193.52
192.08
186.28
175.02
157.61
134.38
106.91
77.58
48.98
23.17
1.38
-16.02
-29.11
-38.04
-42.81
-43.25
-39.30
-31.20
-19.66
-5.74
9.29
24.24
38.14
50.36
60.68
69.23
76.60
83.71
91.62
101.11
112.30
124.45
136.19
146.02
152.78
155.78
154.61
148.57
136.53
117.14
89.57
54.21
13.05
-31.03
-75.22
-117.61
-157.15
-192.90
-223.33
-246.21
-259.46
-262.36
-256.09
-243.35
-226.91
-208.38
-187.90
-165.09
-140.46
-116.27
-96.06
-83.00
-78.25
-80.26
-85.49
-90.09
-91.40
-88.73
-83.07
-76.26
-69.95
-64.78
-60.33
-55.56
-49.59
-42.45
-35.29
-29.75
-27.07
-27.12
-28.40
-28.83
-26.97
-23.02
-18.78
-16.72
-18.62
-24.80
-34.33
-46.16
-60.36
-78.51
-102.92
-134.88
-172.90
-212.00
-244.72
-263.23
-261.88
-238.89
-196.52
-139.99
-75.95
-11.26
47.70
95.28
127.16
141.15
137.98
121.52
97.84
73.58
53.86
40.97
33.81
28.37
19.63
4.05
-18.18
-42.57
-61.97
-70.26
-65.89
-53.26
-40.61
-35.48
-40.08
-49.68
-54.88
-46.93
-22.71
13.46
52.08
83.40
102.14
109.35
110.87
113.66
122.15
136.31
152.47
165.70
172.57
172.76
168.56
163.20
158.72
154.83
149.34
139.81
125.34
107.39
89.29
74.60
65.23
60.61
57.99
53.97
46.29
34.88
21.77
9.89
1.38
-3.48
-6.41
-10.10
-16.76
-26.95
-39.36
-51.51
-60.95
-66.24
-67.33
-65.23
-61.42
-57.37
-54.30
-53.02
-53.88
-56.59
-60.27
-63.70
-65.78
-66.03
-64.86
-63.32
-62.62
-63.52
-65.92
-68.92
-71.12
-71.03
-67.43
-59.74
-48.21
-33.81
-17.97
-2.07
12.93
26.59
38.93
50.12
60.16
68.71
75.18
79.05
80.11
78.50
74.36
67.81
59.02
48.32
36.27
23.61
11.28
0.11
-9.36
-17.59
-25.26
-32.62
-39.36
-44.88
-48.68
-50.44
-49.93
-47.02
-42.87
-38.87
-35.70
-33.39
-31.59
-29.70
-26.58
-20.54
-10.09
3.47
17.61
30.46
41.42
50.75
58.71
65.44
70.66
73.53
70.45
58.10
36.04
6.33
-27.92
-64.59
-102.57
-141.01
-164.72
-162.44
-136.27
-99.50
-64.72
-37.35
-18.39
-6.48
1.80
10.87
22.19
34.43
47.75
61.52
75.03
86.17
92.39
93.46
91.93
90.11
90.59
96.00
104.27
114.49
122.75
123.50
115.23
101.99
89.59
83.20
85.85
92.78
98.08
94.77
76.27
41.20
-6.21
-59.96
-112.93
-157.89
-189.48
-204.79
-194.25
-161.24
-120.77
-87.57
-71.35
-64.77
-61.54
-58.19
-48.99
-31.28
-5.83
26.30
63.91
104.08
142.09
170.69
183.99
180.13
160.49
127.90
87.45
45.36
7.03
-23.64
-45.63
-59.14
-64.79
-64.54
-61.93
-60.42
-62.78
-71.36
-88.11
-114.79
-151.05
-193.16
-234.53
-267.28
-283.88
-279.74
-254.83
-213.44
-162.61
-108.90
-56.30
-5.91
42.86
90.72
136.98
179.19
214.02
238.66
252.16
255.73
251.69
242.28
228.82
211.43
190.00
165.14
138.67
113.27
91.48
74.62
62.32
52.94
44.39
35.23
25.17
15.03
6.20
-0.09
-3.39
-4.19
-3.59
-2.79
-2.46
-2.49
-2.20
-0.92
1.41
4.09
5.77
5.20
1.80
-3.89
-10.34
-15.50
-17.53
-15.47
-9.55
-1.07
8.16
16.37
22.29
25.41
25.87
24.20
21.13
17.28
13.10
8.92
4.89
1.09
-2.42
-5.63
-8.55
-11.27
-13.98
-16.91
-20.19
-23.80
-27.50
-30.83
-33.31
-34.59
-34.54
-33.32
-31.33
-29.00
-26.81
-25.12
-24.23
-24.32
-25.41
-27.38
-29.90
-32.49
-34.65
-36.01
-36.43
-35.98
-34.92
-33.42
-31.50
-28.98
-25.59
-21.06
-15.24
-8.22
-0.30
7.97
15.86
22.57
27.46
30.17
30.81
29.77
27.62
24.82
21.66
18.25
14.62
10.84
6.99
3.18
-0.48
-3.79
-6.51
-8.20
-8.38
-6.67
-2.91
2.60
8.94
14.60
17.80
17.29
12.97
6.22
-0.58
-5.21
-6.80
-6.27
-5.88
-7.85
-12.94
-19.99
-26.43
-29.63
-28.16
-22.30
-13.64
-4.08
4.91
12.78
19.66
25.97
32.00
37.65
42.39
45.66
47.12
46.85
45.43
43.73
42.64
42.65
43.58
44.51
44.08
40.98
34.44
24.63
12.49
-0.70
-13.85
-26.40
-38.23
-49.21
-58.81
-66.17
-70.57
-72.12
-71.95
-71.86
-73.38
-77.03
-82.09
-86.89
-89.74
-89.61
-86.41
-80.93
-74.48
-68.35
-63.40
-59.67
-56.44
-52.66
-47.46
-40.49
-31.82
-21.58
-9.67
3.97
18.78
32.93
43.60
47.97
44.66
34.42
19.59
2.73
-14.62
-31.96
-49.02
-64.63
-76.64
-83.04
-83.62
-80.36
-76.51
-74.68
-75.07
-75.51
-72.99
-65.81
-54.84
-43.21
-34.52
-31.12
-33.22
-39.00
-45.72
-50.70
-52.26
-49.88
-44.14
-36.29
-27.77
-19.60
-11.80
-3.06
9.05
27.19
53.01
85.96
122.89
158.47
186.62
202.49
204.05
192.74
172.81
149.49
126.72
105.75
85.18
62.58
36.58
8.41
-18.02
-37.71
-46.86
-44.77
-34.14
-19.87
-7.02
1.01
3.14
0.17
-6.31
-14.89
-24.62
-34.79
-44.43
-52.13
-56.34
-55.96
-50.89
-42.31
-32.27
-23.07
-16.24
-12.04
-9.44
-6.68
-2.29
4.26
12.18
19.71
24.95
26.71
24.94
20.77
16.07
12.57
11.15
11.37
11.74
10.44
6.23
-0.94
-9.98
-19.28
-27.62
-34.69
-41.08
-47.71
-55.00
-62.41
-68.71
-72.48
-72.73
-69.19
-62.11
-51.92
-38.91
-23.32
-5.67
13.18
31.81
48.50
61.69
70.35
74.23
73.78
69.89
63.59
55.97
48.06
40.82
35.13
31.56
30.28
30.98
33.01
35.54
37.83
39.36
39.84
39.17
37.37
34.55
30.92
26.74
22.31
17.87
13.54
9.32
5.06
0.54
-4.42
-9.84
-15.52
-20.99
-25.64
-28.99
-30.84
-31.27
-30.68
-29.48
-27.97
-26.27
-24.38
-22.26
-19.97
-17.69
-15.61
-13.85
-12.40
-11.17
-10.09
-9.14
-8.36
-7.85
-7.55
-7.32
-6.81
-5.63
-3.49
-0.32
3.73
8.29
12.87
17.02
20.37
22.66
23.78
23.70
22.53
20.46
17.74
14.64
11.38
8.12
4.92
1.82
-1.25
-4.39
-7.73
-11.36
-15.29
-19.30
-23.03
-25.94
-27.54
-27.51
-25.81
-22.64
-18.38
-13.41
-8.00
-2.33
3.46
9.14
14.39
18.79
22.01
23.87
24.50
24.25
23.63
23.07
22.85
22.99
23.34
23.69
23.82
23.66
23.18
22.40
21.29
19.80
17.88
15.54
12.79
9.75
6.52
3.30
0.36
-2.02
-3.61
-4.30
-4.21
-3.59
-2.88
-2.48
-2.73
-3.72
-5.27
-6.90
-7.88
-7.48
-5.11
-0.70
5.32
12.01
18.28
23.23
26.39
27.78
27.76
26.81
25.30
23.45
21.35
19.10
16.83
14.68
12.66
10.59
8.14
5.03
1.23
-2.97
-7.00
-10.34
-12.68
-14.10
-14.93
-15.51
-16.00
-16.31
-16.27
-15.83
-15.15
-14.60
-14.55
-15.23
-16.68
-18.71
-21.09
-23.59
-26.03
-28.21
-29.89
-30.76
-30.47
-28.75
-25.45
-20.73
-15.00
-8.89
-3.08
1.90
5.79
8.61
10.54
11.82
12.59
12.91
12.81
12.42
11.95
11.69
11.88
12.63
13.86
15.38
16.93
18.29
19.34
20.04
20.35
20.23
19.59
18.34
16.49
14.28
12.06
10.22
9.03
8.48
8.35
8.32
8.11
7.62
6.92
6.11
5.26
4.33
3.28
2.06
0.64
-0.92
-2.59
-4.30
-5.99
-7.51
-8.63
-9.07
-8.60
-7.10
-4.69
-1.64
1.61
4.64
7.10
8.84
9.91
10.51
10.85
11.14
11.50
11.98
12.57
13.22
13.91
14.60
15.31
16.04
16.80
17.49
18.01
18.22
18.04
17.54
16.81
15.97
15.08
14.05
12.80
11.27
9.57
7.83
6.15
4.49
2.64
0.30
-2.72
-6.47
-10.72
-15.11
-19.26
-22.91
-25.96
-28.53
-30.83
-33.06
-35.27
-37.27
-38.66
-39.01
-37.99
-35.53
-31.81
-27.16
-21.98
-16.64
-11.46
-6.73
-2.68
0.58
2.98
4.63
5.74
6.56
7.34
8.26
9.34
10.53
11.68
12.58
13.08
13.17
12.94
12.54
12.11
11.67
11.11
10.31
9.19
7.76
6.13
4.41
2.61
0.69
-1.45
-3.90
-6.66
-9.61
-12.54
-15.23
-17.58
-19.63
-21.60
-23.81
-26.48
-29.58
-32.86
-35.81
-37.83
-38.40
-37.13
-33.88
-28.75
-22.11
-14.56
-6.78
0.56
6.97
12.25
16.43
19.68
22.21
24.15
25.63
26.74
27.57
28.25
28.84
29.37
29.79
30.07
30.18
30.13
29.89
29.46
28.84
27.96
26.76
25.15
23.07
20.51
17.58
14.49
11.48
8.77
6.38
4.25
2.16
-0.04
-2.43
-4.97
-7.53
-10.05
-12.51
-14.96
-17.48
-20.07
-22.64
-25.01
-26.87
-27.91
-27.81
-26.42
-23.85
-20.46
-16.88
-13.73
-11.24
-9.09
-6.43
-2.15
4.54
13.73
24.79
36.53
47.69
57.31
64.83
70.10
73.15
74.21
73.64
71.89
69.42
66.48
63.06
58.97
54.05
48.40
42.32
36.10
29.74
22.90
15.02
5.68
-5.06
-16.47
-27.20
-35.48
-39.45
-37.67
-29.62
-16.04
1.06
18.85
34.58
46.35
53.51
56.53
56.31
53.66
48.93
42.15
33.33
22.78
11.09
-1.13
-13.48
-25.97
-38.73
-51.89
-65.43
-79.25
-93.25
-107.34
-121.07
-133.37
-142.53
-146.61
-144.19
-135.09
-120.59
-103.02
-84.93
-68.24
-53.82
-41.71
-31.54
-23.05
-16.18
-10.90
-6.99
-3.93
-1.07
2.17
5.99
10.21
14.32
17.77
20.20
21.57
22.11
22.24
22.32
22.51
22.76
22.82
22.51
21.83
21.00
20.42
20.38
20.94
21.81
22.48
22.40
21.17
18.71
15.25
11.24
7.22
3.71
1.03
-0.74
-1.74
-2.29
-2.75
-3.40
-4.29
-5.23
-5.91
-6.04
-5.53
-4.47
-3.12
-1.75
-0.51
0.52
1.40
2.18
2.86
3.40
3.74
3.85
3.75
3.55
3.39
3.41
3.68
4.22
4.96
5.77
6.51
7.04
7.25
7.10
6.65
5.98
5.21
4.43
3.67
2.97
2.36
1.90
1.70
1.83
2.31
3.04
3.78
4.27
4.31
3.82
2.90
1.74
0.53
-0.61
-1.68
-2.72
-3.81
-4.95
-6.12
-7.24
-8.26
-9.11
-9.69
-9.84
-9.36
-8.11
-6.06
-3.37
-0.39
2.47
4.81
6.39
7.12
7.10
6.54
5.68
4.77
3.99
3.43
3.08
2.95
2.94
3.01
3.09
3.12
3.07
2.91
2.64
2.23
1.68
0.91
-0.11
-1.41
-2.90
-4.37
-5.58
-6.37
-6.67
-6.61
-6.39
-6.19
-6.06
-5.95
-5.66
-5.03
-3.95
-2.41
-0.48
1.70
3.94
6.09
7.92
9.23
9.82
9.56
8.38
6.36
3.69
0.68
-2.27
-4.80
-6.60
-7.51
-7.51
-6.73
-5.39
-3.79
-2.22
-0.98
-0.24
-0.07
-0.35
-0.90
-1.49
-1.96
-2.27
-2.45
-2.59
-2.77
-3.00
-3.24
-3.40
-3.39
-3.11
-2.56
-1.75
-0.74
0.40
1.56
2.60
3.34
3.64
3.45
2.87
2.21
1.81
2.02
2.97
4.54
6.36
7.95
8.89
8.93
8.04
6.43
4.38
2.16
-0.01
-2.01
-3.74
-5.14
-6.23
-7.10
-7.94
-8.98
-10.45
-12.33
-14.43
-16.36
-17.64
-17.89
-16.92
-14.80
-11.78
-8.24
-4.56
-1.07
1.96
4.40
6.18
7.35
8.02
8.35
8.46
8.48
8.45
8.37
8.23
8.09
8.05
8.28
8.87
9.82
11.01
12.26
13.39
14.26
14.80
14.90
14.44
13.32
11.54
9.33
7.05
5.11
3.83
3.25
3.28
3.71
4.37
5.12
5.87
6.43
6.55
5.93
4.28
1.51
-2.31
-6.86
-11.70
-16.36
-20.46
-23.82
-26.42
-28.37
-29.71
-30.37
-30.11
-28.68
-26.04
-22.50
-18.75
-15.64
-13.86
-13.67
-14.86
-16.85
-18.97
-20.71
-21.87
-22.49
-22.68
-22.43
-21.59
-19.98
-17.52
-14.35
-10.81
-7.31
-4.15
-1.45
0.87
2.92
4.72
6.21
7.27
7.93
8.46
9.31
10.91
13.48
16.84
20.45
23.63
25.82
26.79
26.73
26.20
25.83
26.19
27.56
29.79
32.39
34.74
36.34
37.14
37.62
38.67
41.29
46.16
53.40
62.49
72.54
82.62
92.01
100.46
108.12
115.50
123.30
132.25
142.83
155.01
167.89
179.60
187.66
189.65
184.21
171.67
154.06
134.46
115.86
100.11
87.44
76.70
66.00
53.60
38.41
20.13
-0.84
-23.82
-47.96
-72.47
-96.54
-119.31
-139.84
-157.06
-169.92
-177.61
-179.91
-177.26
-170.64
-161.30
-150.27
-138.25
-125.59
-112.55
-99.48
-86.93
-75.52
-65.68
-57.52
-50.81
-45.08
-39.86
-34.81
-29.82
-25.07
-20.90
-17.67
-15.67
-14.92
-15.30
-16.61
-18.75
-21.69
-25.36
-29.43
-33.21
-35.92
-36.89
-36.01
-33.78
-31.16
-29.10
-28.16
-28.45
-29.68
-31.52
-33.74
-36.27
-39.08
-42.05
-44.91
-47.31
-49.01
-49.91
-50.14
-49.91
-49.50
-49.05
-48.60
-48.08
-47.33
-46.22
-44.68
-42.79
-40.72
-38.67
-36.75
-34.96
-33.20
-31.29
-29.19
-26.97
-24.88
-23.16
-22.05
-21.59
-21.66
-22.03
-22.42
-22.67
-22.67
-22.44
-22.08
-21.73
-21.60
-21.87
-22.66
-23.96
-25.57
-27.04
-27.75
-26.98
-24.17
-19.06
-11.87
-3.24
5.88
14.47
21.74
27.22
30.84
32.84
33.61
33.56
33.01
32.13
31.00
29.68
28.29
26.99
25.92
25.22
24.85
24.76
24.86
25.05
25.26
25.42
25.43
25.16
24.52
23.48
22.09
20.47
18.71
16.88
15.05
13.25
11.56
10.04
8.68
7.44
6.24
4.99
3.65
2.22
0.77
-0.59
-1.79
-2.81
-3.74
-4.72
-5.91
-7.47
-9.46
-11.90
-14.74
-17.81
-20.91
-23.66
-25.60
-26.29
-25.45
-23.05
-19.46
-15.22
-10.98
-7.29
-4.51
-2.70
-1.78
-1.56
-1.85
-2.55
-3.65
-5.15
-7.03
-9.17
-11.33
-13.22
-14.53
-14.97
-14.31
-12.40
-9.17
-4.68
0.85
7.05
13.42
19.48
24.87
29.36
32.89
35.49
37.24
38.23
38.55
38.35
37.74
36.85
35.72
34.32
32.60
30.56
28.28
25.96
23.78
21.82
20.07
18.34
16.44
14.24
11.74
8.98
6.07
3.03
-0.12
-3.30
-6.29
-8.66
-9.94
-9.72
-7.85
-4.53
-0.25
4.31
8.53
12.02
14.59
16.31
17.33
17.83
17.98
17.86
17.52
17.03
16.51
16.06
15.79
15.69
15.69
15.65
15.40
14.88
14.16
13.42
12.81
12.44
12.28
12.19
12.00
11.56
10.77
9.65
8.27
6.80
5.39
4.17
3.18
2.37
1.59
0.67
-0.47
-1.78
-3.12
-4.28
-5.12
-5.60
-5.82
-5.99
-6.34
-7.11
-8.44
-10.31
-12.48
-14.57
-16.09
-16.61
-15.85
-13.80
-10.70
-6.94
-2.98
0.76
3.97
6.47
8.24
9.34
9.91
10.09
10.02
9.76
9.37
8.90
8.42
8.06
7.96
8.18
8.68
9.36
10.03
10.60
11.03
11.38
11.73
12.09
12.35
12.35
11.92
10.98
9.60
7.95
6.23
4.61
3.19
1.98
0.94
-0.02
-1.00
-2.11
-3.44
-4.97
-6.60
-8.21
-9.66
-10.94
-12.13
-13.37
-14.78
-16.40
-18.10
-19.62
-20.60
-20.67
-19.56
-17.18
-13.73
-9.61
-5.35
-1.44
1.84
4.44
6.42
7.91
9.02
9.77
10.19
10.32
10.22
10.00
9.75
9.51
9.32
9.21
9.22
9.32
9.51
9.77
10.07
10.40
10.76
11.08
11.22
10.96
10.14
8.69
6.73
4.56
2.56
1.05
0.17
-0.19
-0.32
-0.54
-1.03
-1.84
-2.88
-4.00
-5.12
-6.23
-7.37
-8.52
-9.65
-10.74
-11.88
-13.29
-15.13
-17.37
-19.60
-21.13
-21.24
-19.43
-15.75
-10.72
-5.20
-0.02
4.25
7.42
9.59
11.02
11.94
12.47
12.64
12.46
12.00
11.37
10.76
10.35
10.22
10.31
10.51
10.66
10.66
10.51
10.25
9.96
9.66
9.31
8.80
8.06
7.07
5.90
4.68
3.56
2.64
1.95
1.43
1.00
0.53
-0.03
-0.75
-1.62
-2.66
-3.87
-5.21
-6.67
-8.18
-9.69
-11.13
-12.52
-13.88
-15.30
-16.91
-18.70
-20.51
-22.01
-22.68
-22.00
-19.69
-15.81
-10.83
-5.44
-0.39
3.84
7.00
9.21
10.70
11.71
12.36
12.69
12.68
12.38
11.87
11.30
10.81
10.51
10.45
10.62
10.98
11.46
11.93
12.24
12.30
12.05
11.54
10.86
10.07
9.20
8.21
7.01
5.54
3.86
2.11
0.49
-0.88
-1.95
-2.82
-3.71
-4.80
-6.16
-7.70
-9.21
-10.47
-11.36
-11.88
-12.18
-12.47
-12.92
-13.64
-14.68
-16.01
-17.48
-18.81
-19.56
-19.25
-17.48
-14.20
-9.71
-4.57
0.53
5.05
8.67
11.27
12.85
13.52
13.40
12.66
11.53
10.23
9.03
8.07
7.46
7.19
7.24
7.53
7.97
8.47
8.95
9.39
9.78
10.10
10.34
10.45
10.37
10.02
9.38
8.42
7.19
5.74
4.18
2.62
1.18
-0.08
-1.16
-2.14
-3.14
-4.25
-5.47
-6.71
-7.81
-8.65
-9.21
-9.63
-10.12
-10.99
-12.37
-14.20
-16.22
-17.98
-18.98
-18.86
-17.45
-14.79
-11.19
-7.07
-2.89
0.91
4.08
6.48
8.10
9.03
9.38
9.28
8.92
8.45
8.00
7.67
7.49
7.43
7.51
7.71
7.99
8.31
8.56
8.63
8.45
8.02
7.37
6.59
5.74
4.89
4.13
3.53
3.10
2.82
2.52
2.03
1.18
-0.07
-1.65
-3.36
-5.04
-6.55
-7.81
-8.82
-9.61
-10.32
-11.17
-12.32
-13.89
-15.76
-17.56
-18.73
-18.71
-17.16
-14.11
-9.99
-5.42
-1.08
2.52
5.12
6.77
7.63
7.98
8.03
7.93
7.74
7.46
7.09
6.68
6.29
6.03
5.97
6.14
6.48
6.91
7.33
7.66
7.88
7.93
7.81
7.51
6.99
6.24
5.23
3.93
2.34
0.56
-1.25
-2.87
-4.15
-5.05
-5.69
-6.27
-7.01
-8.03
-9.32
-10.76
-12.17
-13.32
-14.02
-14.05
-13.27
-11.58
-9.03
-5.78
-2.17
1.40
4.57
7.03
8.68
9.57
9.86
9.73
9.30
8.59
7.63
6.46
5.22
4.14
3.43
3.21
3.41
3.84
4.23
4.42
4.35
4.10
3.79
3.52
3.34
3.19
2.99
2.63
2.06
1.28
0.35
-0.62
-1.52
-2.31
-3.00
-3.63
-4.33
-5.18
-6.23
-7.34
-8.27
-8.64
-8.06
-6.26
-3.22
0.86
5.61
10.56
15.38
19.80
23.71
27.01
29.60
31.34
32.21
32.33
32.06
31.95
32.56
34.32
37.37
41.45
45.98
50.31
53.86
56.38
57.91
58.74
59.18
59.41
59.36
58.75
57.13
54.00
48.95
41.74
32.44
21.47
9.58
-2.41
-13.95
-25.02
-36.21
-48.41
-62.30
-77.87
-94.22
-109.69
-122.38
-130.64
-133.50
-130.81
-123.22
-111.90
-98.26
-83.69
-69.41
-56.32
-45.05
-36.08
-29.68
-26.01
-25.03
-26.39
-29.46
-33.38
-37.21
-40.14
-41.52
-40.96
-38.24
-33.31
-26.25
-17.27
-6.64
5.25
17.88
30.59
42.61
53.17
61.56
67.32
70.26
70.50
68.36
64.34
58.90
52.41
45.05
37.02
28.70
20.71
14.08
9.97
9.21
11.99
17.80
25.98
36.10
48.42
63.49
81.58
102.07
123.35
143.33
160.28
173.43
182.87
189.08
192.21
192.00
188.23
181.73
174.83
170.91
172.89
181.30
193.36
203.50
205.35
194.29
169.32
133.17
90.67
46.44
2.85
-40.27
-84.36
-129.99
-175.24
-215.77
-246.36
-263.34
-266.28
-258.38
-245.04
-231.81
-222.48
-218.25
-218.29
-221.00
-225.24
-230.84
-238.22
-247.65
-258.65
-269.97
-280.08
-287.94
-293.54
-297.99
-302.71
-308.41
-314.12
-317.09
-313.59
-300.34
-275.77
-240.57
-197.21
-148.98
-99.24
-51.00
-7.02
30.28
59.27
79.67
92.92
101.78
109.20
116.95
124.91
131.20
132.91
127.32
113.01
90.84
64.62
41.10
28.97
36.35
67.53
120.22
185.03
247.94
294.94
316.82
311.86
285.19
245.69
202.02
160.12
122.70
90.53
63.98
43.65
29.95
22.21
18.29
14.87
8.85
-1.45
-15.56
-31.20
-45.24
-55.03
-59.49
-59.25
-56.31
-52.96
-50.78
-50.01
-49.54
-47.52
-42.20
-32.72
-19.55
-4.33
10.73
23.60
33.06
38.98
42.22
43.99
45.30
46.53
47.40
47.36
46.12
43.85
41.22
38.99
37.63
37.09
36.89
36.44
35.33
33.53
31.34
29.14
27.20
25.50
23.85
22.00
19.82
17.30
14.54
11.70
8.94
6.38
4.10
2.18
0.63
-0.63
-1.78
-3.04
-4.52
-6.18
-7.69
-8.62
-8.57
-7.36
-5.11
-2.19
0.93
3.82
6.24
8.10
9.44
10.30
10.69
10.60
10.01
9.01
7.77
6.53
5.54
4.93
4.70
4.72
4.82
4.88
4.86
4.80
4.77
4.75
4.68
4.38
3.74
2.70
1.34
-0.18
-1.72
-3.18
-4.59
-5.94
-7.30
-8.63
-9.89
-11.00
-11.95
-12.72
-13.31
-13.76
-14.08
-14.35
-14.58
-14.74
-14.62
-13.91
-12.31
-9.70
-6.29
-2.54
0.94
3.71
5.60
6.79
7.56
8.17
8.71
9.14
9.40
9.45
9.36
9.23
9.14
9.05
8.85
8.46
7.79
6.89
5.88
4.86
3.97
3.17
2.35
1.32
-0.02
-1.69
-3.53
-5.31
-6.81
-7.92
-8.67
-9.19
-9.67
-10.23
-10.91
-11.68
-12.40
-12.99
-13.36
-13.60
-13.80
-14.08
-14.43
-14.74
-14.77
-14.29
-13.18
-11.43
-9.19
-6.63
-3.95
-1.29
1.21
3.42
5.20
6.45
7.15
7.32
7.15
6.86
6.61
6.51
6.51
6.51
6.35
5.94
5.31
4.57
3.89
3.40
3.12
2.93
2.72
2.38
1.88
1.26
0.59
-0.11
-0.84
-1.69
-2.75
-4.00
-5.35
-6.65
-7.72
-8.43
-8.75
-8.72
-8.46
-8.12
-7.85
-7.79
-7.97
-8.41
-8.99
-9.51
-9.69
-9.32
-8.26
-6.53
-4.31
-1.82
0.71
3.05
5.03
6.57
7.58
8.03
8.00
7.66
7.21
6.86
6.66
6.58
6.48
6.25
5.79
5.11
4.26
3.28
2.20
1.04
-0.13
-1.24
-2.19
-2.97
-3.58
-4.14
-4.72
-5.36
-6.07
-6.80
-7.46
-8.02
-8.48
-8.83
-9.10
-9.34
-9.62
-10.05
-10.71
-11.60
-12.54
-13.20
-13.18
-12.18
-10.08
-7.04
-3.43
0.32
3.83
6.87
9.37
11.31
12.67
13.43
13.52
12.92
11.72
10.11
8.32
6.65
5.30
4.35
3.81
3.59
3.58
3.65
3.70
3.61
3.29
2.69
1.78
0.59
-0.78
-2.19
-3.50
-4.58
-5.42
-6.13
-6.90
-7.95
-9.39
-11.20
-13.17
-15.01
-16.49
-17.52
-18.11
-18.32
-18.16
-17.54
-16.29
-14.30
-11.57
-8.26
-4.71
-1.27
1.78
4.31
6.28
7.78
8.90
9.70
10.19
10.33
10.13
9.65
9.04
8.45
8.00
7.71
7.47
7.11
6.50
5.65
4.62
3.59
2.70
2.01
1.51
1.11
0.71
0.21
-0.48
-1.46
-2.79
-4.46
-6.35
-8.28
-10.06
-11.51
-12.59
-13.34
-13.89
-14.35
-14.74
-14.93
-14.67
-13.79
-12.13
-9.69
-6.65
-3.29
0.10
3.27
6.05
8.35
10.10
11.31
12.04
12.37
12.43
12.28
11.96
11.42
10.67
9.72
8.69
7.75
7.04
6.64
6.47
6.41
6.26
5.94
5.42
4.82
4.22
3.68
3.19
2.60
1.77
0.62
-0.81
-2.35
-3.73
-4.77
-5.43
-5.81
-6.19
-6.78
-7.64
-8.60
-9.31
-9.38
-8.56
-6.80
-4.27
-1.27
1.96
5.25
8.62
12.20
16.17
20.61
25.44
30.39
34.90
38.46
40.67
41.48
41.26
40.71
40.69
42.03
45.20
50.04
55.58
60.01
61.13
57.10
47.16
32.25
14.96
-1.15
-12.76
-17.72
-15.72
-8.04
3.12
15.49
27.32
37.58
45.80
51.74
55.24
56.09
54.17
49.55
42.41
33.11
22.04
9.70
-3.30
-16.11
-27.60
-36.51
-41.69
-42.47
-39.03
-32.39
-24.28
-16.58
-10.82
-7.80
-7.58
-9.66
-13.39
-18.22
-23.79
-29.82
-35.96
-41.70
-46.42
-49.61
-50.90
-50.21
-47.67
-43.71
-38.88
-33.83
-29.12
-25.19
-22.29
-20.50
-19.86
-20.35
-22.00
-24.69
-28.20
-32.11
-35.97
-39.36
-42.05
-43.93
-45.08
-45.59
-45.65
-45.48
-45.37
-45.56
-46.14
-46.83
-47.02
-45.88
-42.65
-36.92
-28.74
-18.74
-7.86
2.82
12.36
20.13
25.91
29.88
32.55
34.51
36.33
38.37
40.70
43.15
45.36
46.98
47.71
47.34
45.80
43.07
39.20
34.18
28.04
20.74
12.34
3.03
-6.89
-16.94
-26.50
-35.01
-42.00
-47.24
-50.86
-53.26
-55.01
-56.60
-58.32
-60.24
-62.23
-64.21
-66.19
-68.34
-70.79
-73.50
-76.02
-77.56
-77.22
-74.31
-68.54
-60.24
-50.15
-39.21
-28.20
-17.66
-7.81
1.22
9.32
16.32
22.02
26.39
29.55
31.83
33.58
35.03
36.20
37.05
37.45
37.37
36.90
36.19
35.46
34.88
34.51
34.27
34.02
33.54
32.64
31.28
29.57
27.69
25.85
24.18
22.72
21.52
20.65
20.30
20.70
22.00
24.06
26.46
28.52
29.49
28.76
26.06
21.46
15.37
8.37
1.20
-5.30
-10.30
-13.03
-13.03
-10.29
-5.34
0.92
7.43
13.26
17.85
20.97
22.71
23.20
22.61
20.98
18.30
14.51
9.65
3.88
-2.36
-8.51
-13.93
-18.13
-20.90
-22.27
-22.48
-21.85
-20.64
-19.03
-17.17
-15.23
-13.43
-12.00
-11.19
-11.16
-11.92
-13.35
-15.11
-16.83
-18.21
-19.11
-19.65
-20.05
-20.50
-20.99
-21.30
-21.11
-20.30
-18.97
-17.56
-16.58
-16.47
-17.36
-19.11
-21.27
-23.24
-24.37
-24.14
-22.24
-18.65
-13.67
-7.82
-1.64
4.41
10.03
15.06
19.38
22.83
25.27
26.62
26.98
26.57
25.69
24.62
23.52
22.45
21.38
20.34
19.38
18.65
18.30
18.37
18.81
19.40
19.84
19.88
19.36
18.29
16.77
14.95
12.95
10.87
8.78
6.78
5.00
3.54
2.35
1.32
0.23
-1.09
-2.65
-4.38
-6.07
-7.59
-8.92
-10.22
-11.72
-13.66
-16.10
-18.84
-21.44
-23.31
-23.79
-22.42
-19.06
-13.90
-7.49
-0.49
6.44
12.84
18.46
23.19
26.99
29.83
31.67
32.52
32.52
31.91
31.00
30.08
29.35
28.84
28.53
28.41
28.52
28.91
29.69
30.86
32.28
33.77
35.03
35.85
36.11
35.83
35.20
34.49
33.96
33.78
33.99
34.49
35.10
35.60
35.89
35.93
35.81
35.63
35.47
35.38
35.25
34.88
33.87
31.74
28.07
22.64
15.77
8.26
1.31
-3.85
-6.31
-5.82
-2.80
1.79
6.82
11.29
14.51
16.11
15.99
14.19
10.87
6.28
0.78
-5.25
-11.51
-17.86
-24.37
-31.22
-38.56
-46.45
-54.75
-63.16
-71.33
-79.02
-86.06
-92.54
-98.68
-104.78
-111.08
-117.68
-124.49
-131.13
-137.02
-141.30
-142.99
-141.27
-135.70
-126.48
-114.43
-100.75
-86.55
-72.57
-59.04
-45.94
-33.30
-21.46
-11.09
-2.86
2.84
6.23
8.03
9.30
10.99
13.72
17.71
22.77
28.60
34.84
41.23
47.49
53.35
58.47
62.49
65.15
66.40
66.52
65.96
65.28
64.90
65.00
65.54
66.39
67.42
68.63
70.07
71.78
73.70
75.69
77.60
79.37
81.04
82.56
83.65
83.73
81.99
77.84
71.16
62.53
53.04
43.88
35.86
29.20
23.54
18.27
12.75
6.31
-1.83
-12.56
-26.67
-44.47
-65.47
-88.44
-111.73
-133.85
-153.75
-170.83
-184.70
-194.83
-200.50
-201.00
-196.00
-185.78
-171.31
-154.02
-135.51
-117.31
-100.66
-86.38
-74.74
-65.60
-58.35
-52.17
-46.21
-39.78
-32.44
-24.12
-15.00
-5.47
3.96
12.75
20.42
26.60
31.02
33.61
34.52
34.11
32.88
31.34
29.90
28.77
27.94
27.31
26.70
25.97
24.99
23.66
21.94
19.85
17.52
15.14
12.89
10.87
9.01
7.11
4.94
2.32
-0.82
-4.32
-7.88
-11.00
-13.08
-13.53
-11.87
-7.91
-1.83
5.83
14.27
22.70
30.46
37.20
42.86
47.54
51.39
54.48
56.72
58.01
58.34
57.86
56.86
55.73
54.72
53.95
53.38
52.86
52.32
51.75
51.13
50.40
49.43
48.00
45.98
43.39
40.43
37.34
34.41
31.78
29.46
27.38
25.36
23.22
20.82
18.10
15.17
12.22
9.45
6.98
4.73
2.41
-0.34
-3.85
-8.24
-13.36
-18.77
-23.79
-27.63
-29.55
-29.05
-25.99
-20.62
-13.54
-5.51
2.66
10.33
17.03
22.53
26.72
29.67
31.52
32.48
32.79
32.72
32.50
32.30
32.23
32.34
32.58
32.90
33.18
33.33
33.27
32.96
32.39
31.53
30.31
28.62
26.41
23.70
20.66
17.52
14.46
11.56
8.78
5.96
2.99
-0.13
-3.23
-6.12
-8.66
-10.83
-12.85
-15.04
-17.75
-21.18
-25.30
-29.76
-33.92
-36.98
-38.13
-36.81
-32.83
-26.47
-18.40
-9.55
-0.87
6.93
13.42
18.48
22.21
24.78
26.34
26.98
26.79
25.92
24.67
23.39
22.44
22.11
22.48
23.45
24.78
26.13
27.19
27.74
27.66
26.92
25.61
23.77
21.50
18.87
15.96
12.85
9.60
6.23
2.74
-0.87
-4.60
-8.38
-12.14
-15.75
-19.15
-22.42
-25.68
-29.15
-33.05
-37.49
-42.42
-47.48
-52.09
-55.42
-56.68
-55.21
-50.81
-43.71
-34.60
-24.40
-14.01
-4.14
4.84
12.82
19.84
25.98
31.34
35.94
39.78
42.87
45.24
46.87
47.71
47.73
46.89
45.26
43.06
40.49
37.76
35.03
32.27
29.42
26.39
23.14
19.78
16.45
13.39
10.76
8.62
6.88
5.32
3.71
1.84
-0.33
-2.75
-5.31
-7.89
-10.47
-13.11
-15.93
-19.08
-22.70
-26.86
-31.53
-36.45
-41.14
-44.90
-46.97
-46.70
-43.78
-38.37
-31.03
-22.65
-14.16
-6.28
0.56
6.28
10.99
14.86
17.95
20.29
21.87
22.80
23.30
23.59
23.87
24.21
24.59
24.95
25.32
25.78
26.43
27.32
28.36
29.32
29.95
30.04
29.46
28.22
26.42
24.17
21.62
18.91
16.15
13.40
10.58
7.58
4.24
0.50
-3.58
-7.75
-11.75
-15.37
-18.55
-21.43
-24.23
-27.21
-30.53
-34.22
-38.14
-41.92
-45.01
-46.69
-46.27
-43.34
-37.90
-30.46
-21.88
-13.16
-5.13
1.69
7.15
11.33
14.43
16.64
18.14
19.07
19.62
19.98
20.30
20.62
20.91
21.11
21.16
21.11
21.02
20.96
20.92
20.84
20.60
20.11
19.30
18.18
16.79
15.16
13.39
11.64
10.03
8.64
7.43
6.18
4.63
2.59
-0.02
-3.06
-6.24
-9.27
-11.93
-14.12
-15.91
-17.46
-18.99
-20.73
-22.74
-24.93
-26.97
-28.29
-28.26
-26.32
-22.26
-16.23
-8.81
-0.79
7.00
13.90
19.54
23.77
26.67
28.39
29.13
29.09
28.54
27.68
26.70
25.76
24.87
24.06
23.31
22.67
22.13
21.66
21.14
20.39
19.25
17.65
15.65
13.38
10.93
8.29
5.38
2.07
-1.66
-5.72
-9.97
-14.25
-18.42
-22.42
-26.27
-30.00
-33.73
-37.56
-41.59
-45.92
-50.36
-54.57
-57.96
-59.80
-59.46
-56.58
-51.23
-43.87
-35.28
-26.37
-17.95
-10.56
-4.47
0.34
4.05
6.85
8.90
10.26
11.01
11.24
11.10
10.82
10.61
10.64
10.99
11.65
12.59
13.70
14.83
15.79
16.37
16.41
15.83
14.70
13.15
11.34
9.36
7.23
4.88
2.27
-0.64
-3.79
-7.05
-10.29
-13.34
-16.14
-18.69
-21.08
-23.47
-26.09
-29.15
-32.79
-36.90
-41.10
-44.68
-46.78
-46.61
-43.76
-38.34
-30.99
-22.62
-14.15
-6.28
0.59
6.33
10.99
14.63
17.34
19.19
20.30
20.79
20.84
20.64
20.37
20.23
20.29
20.53
20.88
21.17
21.33
21.33
21.20
20.95
20.51
19.78
18.62
17.03
15.11
13.05
11.06
9.21
7.41
5.44
3.06
0.14
-3.28
-6.98
-10.63
-13.92
-16.71
-19.08
-21.31
-23.80
-26.88
-30.68
-35.07
-39.56
-43.47
-46.02
-46.55
-44.67
-40.38
-34.03
-26.32
-18.04
-9.99
-2.78
3.20
7.83
11.14
13.25
14.36
14.64
14.31
13.53
12.47
11.24
9.91
8.51
7.09
5.78
4.72
4.11
4.09
4.69
5.86
7.44
9.27
11.20
13.14
15.01
16.80
18.46
19.90
21.02
21.66
21.65
20.88
19.29
16.94
14.02
10.80
7.52
4.43
1.62
-0.94
-3.41
-6.04
-9.06
-12.58
-16.50
-20.57
-24.26
-26.95
-28.04
-27.08
-23.98
-19.02
-12.79
-6.08
0.31
5.84
10.23
13.50
15.90
17.69
19.05
20.06
20.69
20.91
20.74
20.29
19.71
19.16
18.73
18.43
18.20
17.97
17.67
17.30
16.86
16.32
15.59
14.57
13.15
11.34
9.24
7.06
4.97
3.05
1.21
-0.72
-2.89
-5.36
-8.00
-10.59
-12.93
-14.93
-16.67
-18.36
-20.27
-22.66
-25.68
-29.29
-33.22
-36.97
-39.86
-41.19
-40.38
-37.18
-31.76
-24.70
-16.81
-8.96
-1.89
3.96
8.43
11.59
13.64
14.76
15.10
14.72
13.75
12.38
10.90
9.61
8.71
8.23
8.02
7.88
7.64
7.26
6.77
6.19
5.46
4.45
3.02
1.13
-1.09
-3.45
-5.73
-7.79
-9.68
-11.58
-13.78
-16.52
-19.83
-23.38
-26.55
-28.61
-28.97
-27.49
-24.56
-20.95
-17.56
-15.08
-13.88
-13.89
-14.74
-15.80
-16.32
-15.51
-12.76
-7.79
-0.90
7.16
15.35
22.67
28.42
32.32
34.36
34.71
33.59
31.22
27.95
24.25
20.62
17.45
14.94
13.06
11.69
10.74
10.21
10.23
10.89
12.13
13.71
15.29
16.48
17.01
16.82
15.95
14.59
12.88
10.95
8.86
6.69
4.54
2.51
0.67
-1.04
-2.83
-4.93
-7.55
-10.68
-14.11
-17.51
-20.54
-23.00
-24.93
-26.48
-27.91
-29.39
-30.96
-32.53
-33.85
-34.55
-34.22
-32.52
-29.29
-24.54
-18.54
-11.73
-4.57
2.46
9.00
14.81
19.71
23.59
26.37
28.02
28.57
28.18
27.09
25.57
23.88
22.28
20.93
19.92
19.22
18.80
18.56
18.44
18.35
18.27
18.12
17.78
17.17
16.18
14.81
13.11
11.17
9.10
7.00
4.88
2.76
0.61
-1.58
-3.83
-6.13
-8.47
-10.78
-12.96
-14.92
-16.64
-18.21
-19.89
-21.99
-24.79
-28.40
-32.60
-36.86
-40.41
-42.48
-42.49
-40.17
-35.71
-29.58
-22.47
-15.09
-8.03
-1.75
3.47
7.53
10.42
12.24
13.13
13.26
12.83
12.04
11.05
10.00
9.01
8.18
7.62
7.43
7.69
8.38
9.37
10.42
11.24
11.60
11.41
10.72
9.70
8.47
7.07
5.41
3.36
0.88
-2.01
-5.13
-8.26
-11.19
-13.79
-16.01
-17.88
-19.51
-21.07
-22.76
-24.80
-27.26
-29.98
-32.51
-34.16
-34.20
-32.09
-27.75
-21.56
-14.25
-6.70
0.32
6.33
11.08
14.58
16.92
18.29
18.87
18.84
18.36
17.51
16.38
15.10
13.88
12.95
12.52
12.66
13.26
14.15
15.13
16.07
16.86
17.37
17.44
16.87
15.58
13.62
11.24
8.73
6.37
4.27
2.39
0.55
-1.47
-3.77
-6.33
-8.98
-11.49
-13.67
-15.48
-17.06
-18.70
-20.75
-23.50
-27.00
-31.00
-34.94
-38.09
-39.63
-38.99
-35.96
-30.78
-24.06
-16.63
-9.29
-2.59
3.14
7.84
11.55
14.35
16.31
17.53
18.13
18.30
18.24
18.12
18.02
17.94
17.83
17.68
17.52
17.48
17.63
18.00
18.46
18.82
18.87
18.46
17.55
16.18
14.42
12.36
10.10
7.72
5.29
2.85
0.45
-1.93
-4.31
-6.71
-9.09
-11.38
-13.53
-15.52
-17.40
-19.29
-21.32
-23.70
-26.54
-29.83
-33.29
-36.39
-38.37
-38.50
-36.26
-31.63
-25.05
-17.36
-9.48
-2.17
4.17
9.41
13.65
16.96
19.37
20.85
21.42
21.20
20.45
19.51
18.62
17.92
17.34
16.74
16.03
15.28
14.69
14.50
14.80
15.44
16.07
16.26
15.74
14.50
12.81
11.03
9.45
8.14
6.94
5.56
3.80
1.56
-1.07
-3.87
-6.62
-9.17
-11.49
-13.70
-15.95
-18.36
-21.04
-23.96
-27.04
-30.07
-32.71
-34.42
-34.65
-32.96
-29.19
-23.62
-16.89
-9.83
-3.22
2.42
6.93
10.37
12.93
14.75
15.90
16.43
16.35
15.77
14.89
13.99
13.34
13.15
13.48
14.21
15.17
16.08
16.73
16.99
16.80
16.21
15.26
13.97
12.35
10.46
8.39
6.25
4.15
2.10
0.03
-2.19
-4.67
-7.44
-10.41
-13.44
-16.38
-19.14
-21.82
-24.54
-27.43
-30.57
-33.79
-36.76
-38.94
-39.68
-38.44
-34.98
-29.44
-22.37
-14.53
-6.70
0.50
6.78
12.07
16.40
19.77
22.14
23.45
23.70
23.05
21.80
20.33
19.01
18.09
17.65
17.62
17.84
18.10
18.32
18.43
18.44
18.28
17.81
16.87
15.36
13.32
10.96
8.64
6.62
5.02
3.72
2.42
0.82
-1.28
-3.88
-6.77
-9.67
-12.33
-14.64
-16.64
-18.54
-20.63
-23.21
-26.44
-30.24
-34.25
-37.81
-40.09
-40.31
-38.04
-33.28
-26.58
-18.72
-10.63
-3.05
3.55
9.01
13.40
16.88
19.60
21.63
22.98
23.62
23.58
22.97
22.04
21.07
20.30
19.85
19.68
19.68
19.70
19.67
19.58
19.44
19.21
18.79
18.02
16.73
14.90
12.64
10.22
7.93
5.97
4.35
2.90
1.31
-0.70
-3.27
-6.30
-9.52
-12.58
-15.25
-17.51
-19.55
-21.69
-24.27
-27.44
-31.12
-34.90
-38.18
-40.25
-40.45
-38.37
-33.94
-27.48
-19.65
-11.29
-3.23
3.90
9.69
14.03
17.03
18.87
19.79
19.98
19.64
18.94
18.08
17.24
16.56
16.16
16.03
16.18
16.54
17.03
17.56
17.97
18.10
17.81
17.02
15.76
14.17
12.40
10.57
8.69
6.69
4.51
2.11
-0.43
-2.98
-5.42
-7.70
-9.82
-11.83
-13.78
-15.72
-17.73
-19.96
-22.58
-25.62
-28.87
-31.84
-33.78
-33.94
-31.84
-27.47
-21.30
-14.12
-6.76
0.06
5.91
10.62
14.16
16.61
18.05
18.58
18.34
17.50
16.26
14.83
13.46
12.35
11.68
11.53
11.86
12.53
13.30
13.96
14.32
14.29
13.85
12.96
11.68
10.05
8.15
6.08
3.89
1.62
-0.77
-3.30
-5.96
-8.71
-11.44
-14.05
-16.49
-18.77
-21.02
-23.44
-26.22
-29.42
-32.83
-35.96
-38.02
-38.22
-35.99
-31.24
-24.43
-16.45
-8.29
-0.78
5.58
10.63
14.50
17.35
19.33
20.49
20.86
20.55
19.71
18.63
17.59
16.84
16.47
16.44
16.60
16.78
16.90
16.97
17.07
17.22
17.29
17.04
16.24
14.74
12.60
10.05
7.40
4.87
2.52
0.24
-2.11
-4.63
-7.28
-9.92
-12.42
-14.64
-16.58
-18.32
-20.04
-21.99
-24.35
-27.22
-30.44
-33.59
-35.94
-36.74
-35.37
-31.59
-25.71
-18.42
-10.63
-3.18
3.37
8.78
13.06
16.32
18.63
20.04
20.59
20.40
19.76
19.02
18.48
18.27
18.32
18.45
18.49
18.41
18.30
18.28
18.41
18.61
18.67
18.37
17.53
16.13
14.26
12.09
9.84
7.68
5.73
3.98
2.35
0.64
-1.32
-3.59
-6.10
-8.68
-11.19
-13.51
-15.69
-17.81
-20.05
-22.55
-25.41
-28.62
-31.97
-35.03
-37.19
-37.74
-36.12
-32.13
-26.05
-18.59
-10.69
-3.19
3.32
8.65
12.82
16.03
18.41
20.03
20.89
21.03
20.56
19.70
18.71
17.80
17.09
16.64
16.42
16.42
16.63
17.04
17.63
18.28
18.82
19.07
18.82
17.96
16.48
14.49
12.19
9.75
7.29
4.83
2.29
-0.41
-3.30
-6.24
-9.03
-11.46
-13.45
-15.09
-16.63
-18.36
-20.50
-23.19
-26.34
-29.73
-32.94
-35.42
-36.61
-36.02
-33.40
-28.82
-22.68
-15.62
-8.39
-1.64
4.19
8.89
12.45
14.98
16.63
17.55
17.88
17.73
17.26
16.63
16.00
15.55
15.38
15.57
16.12
16.93
17.82
18.55
18.89
18.70
17.91
16.57
14.78
12.69
10.45
8.22
6.06
3.98
1.87
-0.44
-3.09
-6.13
-9.46
-12.81
-15.89
-18.48
-20.58
-22.38
-24.23
-26.48
-29.29
-32.58
-35.98
-38.80
-40.27
-39.73
-36.82
-31.67
-24.85
-17.21
-9.57
-2.57
3.51
8.66
12.96
16.47
19.10
20.80
21.59
21.67
21.36
21.00
20.79
20.77
20.86
20.94
20.95
20.92
20.91
20.96
20.98
20.81
20.28
19.26
17.71
15.74
13.56
11.32
9.16
7.07
4.97
2.75
0.31
-2.36
-5.16
-7.96
-10.58
-12.92
-14.95
-16.71
-18.36
-20.13
-22.29
-25.08
-28.54
-32.48
-36.36
-39.38
-40.69
-39.63
-36.00
-30.12
-22.76
-14.87
-7.31
-0.64
4.95
9.47
13.09
15.94
18.12
19.69
20.67
21.08
21.01
20.60
20.08
19.71
19.67
19.97
20.45
20.88
21.04
20.92
20.64
20.35
20.12
19.79
19.04
17.63
15.49
12.86
10.12
7.66
5.63
3.93
2.29
0.41
-1.84
-4.41
-7.08
-9.58
-11.75
-13.55
-15.13
-16.80
-18.91
-21.78
-25.55
-30.05
-34.70
-38.63
-40.91
-40.78
-37.88
-32.43
-25.07
-16.70
-8.27
-0.54
6.01
11.17
14.96
17.62
19.39
20.56
21.28
21.62
21.61
21.26
20.65
19.90
19.16
18.57
18.19
18.02
18.02
18.09
18.17
18.16
17.97
17.51
16.65
15.34
13.60
11.57
9.50
7.55
5.83
4.25
2.64
0.75
-1.51
-4.12
-6.92
-9.69
-12.29
-14.67
-16.90
-19.20
-21.83
-25.00
-28.76
-32.84
-36.67
-39.46
-40.45
-39.11
-35.32
-29.40
-21.99
-13.89
-5.86
1.51
7.82
12.94
16.87
19.67
21.46
22.34
22.41
21.82
20.83
19.76
18.88
18.35
18.12
18.05
18.00
17.89
17.74
17.64
17.53
17.26
16.60
15.35
13.50
11.20
8.71
6.25
3.92
1.66
-0.73
-3.34
-6.22
-9.23
-12.14
-14.72
-16.83
-18.49
-19.95
-21.58
-23.76
-26.77
-30.56
-34.74
-38.57
-41.14
-41.63
-39.59
-35.04
-28.49
-20.78
-12.77
-5.14
1.69
7.53
12.35
16.12
18.86
20.58
21.38
21.44
21.01
20.36
19.72
19.24
19.00
19.02
19.27
19.66
20.13
20.61
20.98
21.12
20.87
20.13
18.82
16.99
14.77
12.39
10.07
7.97
6.07
4.26
2.31
-0.01
-2.79
-5.96
-9.26
-12.36
-15.00
-17.09
-18.78
-20.47
-22.62
-25.59
-29.43
-33.79
-37.93
-40.92
-41.87
-40.26
-36.06
-29.68
-21.89
-13.55
-5.42
2.00
8.42
13.77
18.02
21.18
23.26
24.32
24.47
23.94
23.07
22.17
21.48
21.15
21.17
21.47
21.94
22.48
23.01
23.46
23.71
23.65
23.12
21.99
20.21
17.83
15.03
12.09
9.25
6.71
4.49
2.51
0.54
-1.58
-3.98
-6.62
-9.39
-12.12
-14.65
-16.90
-18.90
-20.81
-22.86
-25.30
-28.31
-31.88
-35.69
-39.15
-41.45
-41.81
-39.72
-35.10
-28.37
-20.28
-11.74
-3.52
3.82
9.96
14.80
18.33
20.66
21.93
22.35
22.15
21.59
20.86
20.15
19.56
19.19
19.12
19.36
19.86
20.55
21.30
21.97
22.43
22.53
22.13
21.13
19.47
17.22
14.55
11.73
9.02
6.62
4.58
2.75
0.90
-1.24
-3.85
-6.92
-10.26
-13.62
-16.73
-19.46
-21.83
-24.04
-26.37
-29.05
-32.15
-35.42
-38.32
-40.14
-40.16
-37.92
-33.38
-26.91
-19.14
-10.84
-2.70
4.74
11.05
15.95
19.26
21.02
21.45
20.97
20.02
18.99
18.13
17.47
17.03
16.77
16.74
17.01
17.59
18.37
19.17
19.75
19.91
19.55
18.61
17.10
15.07
12.63
9.95
7.26
4.77
2.57
0.62
-1.26
-3.27
-5.56
-8.09
-10.73
-13.30
-15.65
-17.79
-19.79
-21.88
-24.29
-27.21
-30.73
-34.73
-38.78
-42.19
-44.12
-43.82
-40.88
-35.40
-27.99
-19.56
-11.05
-3.19
3.61
9.22
13.68
17.05
19.38
20.74
21.23
21.10
20.69
20.35
20.36
20.84
21.68
22.62
23.40
23.81
23.83
23.61
23.32
23.07
22.78
22.23
21.18
19.47
17.20
14.58
11.95
9.52
7.39
5.43
3.36
0.94
-1.95
-5.21
-8.56
-11.67
-14.29
-16.41
-18.22
-19.99
-21.99
-24.33
-27.05
-30.09
-33.37
-36.71
-39.71
-41.69
-41.92
-39.77
-35.06
-28.14
-19.84
-11.18
-3.05
3.97
9.73
14.27
17.79
20.38
22.10
22.95
23.02
22.50
21.70
20.97
20.55
20.52
20.81
21.22
21.63
21.98
22.27
22.53
22.70
22.67
22.28
21.39
19.99
18.16
16.10
14.01
12.05
10.28
8.64
7.00
5.16
2.95
0.32
-2.68
-5.88
-9.07
-12.01
-14.61
-16.88
-18.91
-20.91
-23.13
-25.81
-29.08
-32.92
-37.02
-40.81
-43.51
-44.35
-42.73
-38.50
-31.97
-23.89
-15.25
-6.96
0.34
6.35
11.11
14.79
17.55
19.47
20.58
20.93
20.68
20.08
19.46
19.08
18.99
19.13
19.35
19.53
19.65
19.77
19.96
20.17
20.25
19.98
19.15
17.70
15.70
13.36
10.92
8.56
6.35
4.23
2.08
-0.25
-2.80
-5.50
-8.21
-10.75
-13.01
-15.01
-16.89
-18.83
-21.05
-23.73
-26.90
-30.45
-34.02
-37.00
-38.63
-38.22
-35.31
-29.97
-22.70
-14.38
-5.98
1.68
8.10
13.09
16.68
19.01
20.18
20.32
19.58
18.23
16.61
15.10
14.08
13.76
14.15
15.11
16.39
17.72
18.90
19.80
20.34
20.48
20.16
19.35
18.03
16.25
14.10
11.72
9.25
6.74
4.18
1.48
-1.45
-4.61
-7.92
-11.19
-14.23
-16.91
-19.20
-21.20
-23.07
-25.01
-27.24
-30.03
-33.50
-37.55
-41.71
-45.13
-46.75
-45.72
-41.62
-34.74
-25.99
-16.57
-7.57
0.28
6.75
11.96
16.12
19.40
21.80
23.26
23.77
23.47
22.63
21.66
20.93
20.66
20.88
21.43
22.11
22.75
23.24
23.60
23.78
23.72
23.24
22.14
20.30
17.78
14.79
11.70
8.82
6.37
4.36
2.64
0.96
-0.90
-3.04
-5.42
-7.94
-10.43
-12.85
-15.21
-17.64
-20.27
-23.24
-26.65
-30.54
-34.79
-39.09
-42.88
-45.34
-45.65
-43.23
-37.98
-30.38
-21.36
-12.01
-3.24
4.36
10.55
15.37
18.99
21.56
23.27
24.27
24.69
24.66
24.25
23.56
22.69
21.80
21.03
20.48
20.19
20.08
20.09
20.18
20.32
20.45
20.42
20.03
19.09
17.51
15.37
12.93
10.51
8.38
6.65
5.21
3.81
2.19
0.11
-2.48
-5.46
-8.59
-11.61
-14.36
-16.80
-19.06
-21.36
-23.91
-26.90
-30.34
-34.12
-37.88
-41.03
-42.85
-42.60
-39.78
-34.35
-26.75
-17.90
-8.89
-0.70
6.04
11.15
14.75
17.18
18.74
19.63
19.97
19.84
19.39
18.78
18.19
17.75
17.52
17.48
17.60
17.83
18.14
18.49
18.77
18.83
18.49
17.63
16.22
14.36
12.26
10.15
8.19
6.40
4.66
2.79
0.61
-1.97
-4.85
-7.86
-10.79
-13.48
-15.90
-18.12
-20.37
-22.88
-25.83
-29.26
-32.92
-36.29
-38.62
-39.12
-37.21
-32.75
-26.08
-18.01
-9.54
-1.58
5.25
10.72
14.89
17.92
19.95
21.08
21.36
20.90
19.95
18.82
17.80
17.10
16.76
16.68
16.75
16.92
17.17
17.51
17.87
18.10
17.96
17.26
15.93
14.05
11.86
9.60
7.51
5.61
3.83
1.99
-0.11
-2.61
-5.51
-8.68
-11.93
-14.98
-17.71
-20.11
-22.34
-24.65
-27.31
-30.47
-34.11
-37.94
-41.39
-43.70
-44.11
-42.01
-37.25
-30.16
-21.53
-12.35
-3.58
4.08
10.32
15.08
18.55
20.91
22.32
22.90
22.78
22.11
21.14
20.13
19.31
18.80
18.61
18.68
18.96
19.40
19.99
20.67
21.25
21.49
21.15
20.04
18.16
15.65
12.75
9.77
6.96
4.44
2.19
0.10
-2.07
-4.46
-7.13
-9.97
-12.71
-15.11
-17.03
-18.59
-20.08
-21.96
-24.64
-28.29
-32.70
-37.25
-40.99
-42.91
-42.27
-38.82
-32.89
-25.25
-16.82
-8.42
-0.60
6.35
12.31
17.19
20.90
23.40
24.74
25.08
24.69
23.90
23.03
22.35
21.98
21.89
21.96
22.01
21.98
21.85
21.71
21.60
21.45
21.06
20.23
18.79
16.78
14.37
11.83
9.40
7.20
5.19
3.23
1.19
-1.02
-3.42
-5.92
-8.41
-10.80
-13.01
-15.05
-16.98
-18.91
-21.03
-23.53
-26.55
-30.08
-33.84
-37.30
-39.67
-40.20
-38.34
-33.99
-27.58
-19.88
-11.79
-4.11
2.64
8.18
12.49
15.65
17.79
19.04
19.56
19.56
19.26
18.88
18.58
18.43
18.42
18.53
18.71
18.94
19.17
19.33
19.30
18.92
18.02
16.54
14.58
12.30
9.91
7.55
5.30
3.15
1.06
-1.03
-3.17
-5.38
-7.60
-9.76
-11.74
-13.50
-15.09
-16.69
-18.59
-21.09
-24.37
-28.28
-32.33
-35.74
-37.66
-37.36
-34.49
-29.21
-22.06
-13.92
-5.67
1.95
8.47
13.64
17.42
19.94
21.31
21.75
21.47
20.67
19.58
18.41
17.33
16.48
15.96
15.83
16.12
16.77
17.63
18.45
18.93
18.81
17.92
16.29
14.11
11.65
9.18
6.83
4.63
2.51
0.42
-1.69
-3.85
-6.12
-8.56
-11.22
-14.10
-17.03
-19.79
-22.24
-24.40
-26.50
-28.95
-32.03
-35.70
-39.49
-42.51
-43.73
-42.33
-38.02
-31.19
-22.73
-13.77
-5.26
2.16
8.28
13.14
16.88
19.61
21.37
22.22
22.28
21.82
21.13
20.49
20.11
20.03
20.23
20.61
21.07
21.53
21.94
22.23
22.37
22.26
21.78
20.80
19.20
16.99
14.31
11.47
8.78
6.51
4.69
3.16
1.61
-0.25
-2.55
-5.21
-8.00
-10.70
-13.19
-15.50
-17.79
-20.22
-22.91
-25.95
-29.40
-33.21
-37.23
-40.99
-43.75
-44.66
-42.99
-38.46
-31.41
-22.75
-13.61
-5.06
2.26
8.14
12.72
16.29
19.04
21.05
22.30
22.80
22.65
22.13
21.55
21.21
21.20
21.43
21.71
21.86
21.87
21.82
21.91
22.16
22.42
22.38
21.72
20.26
18.07
15.42
12.59
9.83
7.28
4.91
2.64
0.36
-2.04
-4.57
-7.17
-9.73
-12.11
-14.24
-16.16
-17.98
-19.83
-21.87
-24.21
-26.96
-30.13
-33.60
-36.99
-39.65
-40.72
-39.43
-35.40
-28.82
-20.45
-11.39
-2.70
4.82
10.83
15.35
18.57
20.73
22.02
22.54
22.41
21.75
20.74
19.54
18.36
17.34
16.62
16.27
16.26
16.51
16.88
17.19
17.31
17.09
16.42
15.20
13.44
11.19
8.64
6.01
3.52
1.24
-0.87
-2.98
-5.22
-7.69
-10.32
-12.99
-15.56
-17.97
-20.30
-22.72
-25.48
-28.71
-32.40
-36.18
-39.42
-41.31
-41.09
-38.28
-32.90
-25.49
-16.89
-8.05
0.21
7.37
13.24
17.76
21.03
23.18
24.30
24.56
24.13
23.25
22.20
21.24
20.57
20.27
20.30
20.54
20.88
21.20
21.46
21.61
21.52
21.01
19.88
18.04
15.54
12.61
9.54
6.59
3.84
1.21
-1.47
-4.36
-7.48
-10.71
-13.80
-16.53
-18.80
-20.68
-22.39
-24.24
-26.54
-29.47
-33.07
-37.14
-41.23
-44.69
-46.71
-46.54
-43.70
-38.17
-30.39
-21.24
-11.68
-2.63
5.30
11.81
16.87
20.62
23.26
24.97
25.87
26.09
25.73
24.91
23.84
22.76
21.85
21.23
20.92
20.83
20.87
20.96
21.08
21.24
21.35
21.28
20.78
19.68
17.90
15.60
13.05
10.59
8.46
6.66
5.03
3.24
1.05
-1.68
-4.85
-8.22
-11.57
-14.70
-17.55
-20.18
-22.74
-25.50
-28.69
-32.49
-36.84
-41.35
-45.31
-47.81
-48.02
-45.41
-39.98
-32.22
-22.99
-13.23
-3.79
4.69
11.89
17.70
22.18
25.45
27.64
28.84
29.17
28.79
27.94
26.87
25.79
24.82
23.93
23.09
22.29
21.66
21.41
21.65
22.27
22.91
23.05
22.28
20.43
17.67
14.42
11.14
8.18
5.68
3.57
1.68
-0.23
-2.34
-4.75
-7.44
-10.31
-13.15
-15.80
-18.17
-20.36
-22.63
-25.29
-28.60
-32.59
-36.97
-41.07
-43.96
-44.77
-42.88
-38.25
-31.32
-22.95
-14.05
-5.40
2.48
9.32
14.94
19.20
22.03
23.44
23.68
23.12
22.20
21.26
20.46
19.79
19.16
18.51
17.89
17.44
17.28
17.42
17.69
17.82
17.56
16.73
15.34
13.50
11.36
9.06
6.63
4.08
1.39
-1.45
-4.36
-7.28
-10.12
-12.76
-15.11
-17.11
-18.84
-20.54
-22.56
-25.26
-28.80
-33.05
-37.43
-41.10
-43.12
-42.73
-39.52
-33.62
-25.61
-16.36
-6.90
1.84
9.23
14.96
19.07
21.84
23.59
24.57
24.87
24.51
23.54
22.12
20.58
19.32
18.64
18.62
19.06
19.67
20.14
20.31
20.12
19.57
18.64
17.25
15.34
12.97
10.31
7.60
5.07
2.80
0.67
-1.49
-3.85
-6.44
-9.16
-11.84
-14.38
-16.74
-19.02
-21.41
-24.09
-27.26
-30.99
-35.21
-39.56
-43.37
-45.78
-45.88
-43.12
-37.46
-29.51
-20.25
-10.79
-1.98
5.73
12.23
17.59
21.84
24.92
26.73
27.27
26.75
25.53
24.08
22.81
21.97
21.58
21.56
21.70
21.83
21.92
22.01
22.16
22.40
22.62
22.56
21.94
20.58
18.50
15.93
13.18
10.51
8.02
5.66
3.28
0.73
-2.04
-5.02
-8.13
-11.28
-14.38
-17.34
-20.20
-23.08
-26.20
-29.81
-34.01
-38.64
-43.21
-46.92
-48.87
-48.29
-44.76
-38.40
-29.84
-20.07
-10.15
-0.97
6.90
13.24
18.13
21.71
24.15
25.51
25.90
25.48
24.57
23.53
22.70
22.25
22.21
22.43
22.71
22.95
23.12
23.24
23.32
23.27
22.91
22.07
20.62
18.58
16.08
13.37
10.71
8.25
6.02
3.89
1.58
-1.08
-4.18
-7.51
-10.79
-13.78
-16.38
-18.76
-21.27
-24.26
-27.93
-32.21
-36.65
-40.60
-43.26
-43.90
-42.03
-37.56
-30.81
-22.48
-13.48
-4.68
3.22
9.86
15.10
19.00
21.68
23.25
23.82
23.54
22.59
21.24
19.78
18.50
17.64
17.32
17.52
18.10
18.81
19.38
19.58
19.27
18.44
17.14
15.44
13.41
11.10
8.55
5.85
3.07
0.29
-2.49
-5.30
-8.15
-10.99
-13.71
-16.20
-18.40
-20.41
-22.43
-24.73
-27.55
-30.99
-34.96
-39.07
-42.65
-44.82
-44.74
-41.82
-36.01
-27.84
-18.29
-8.52
0.49
8.13
14.21
18.86
22.27
24.60
25.91
26.24
25.67
24.41
22.81
21.30
20.23
19.76
19.85
20.25
20.63
20.76
20.49
19.88
19.00
17.90
16.53
14.83
12.81
10.58
8.40
6.45
4.82
3.38
1.83
-0.14
-2.68
-5.73
-9.01
-12.13
-14.83
-17.00
-18.76
-20.37
-22.19
-24.54
-27.66
-31.54
-35.87
-39.99
-43.01
-43.97
-42.20
-37.50
-30.29
-21.46
-12.10
-3.09
4.93
11.68
17.09
21.18
24.02
25.72
26.47
26.51
26.09
25.41
24.61
23.78
23.04
22.48
22.18
22.16
22.33
22.57
22.75
22.78
22.58
22.07
21.10
19.52
17.22
14.23
10.79
7.24
3.94
1.13
-1.25
-3.40
-5.60
-8.01
-10.62
-13.21
-15.52
-17.41
-18.93
-20.39
-22.18
-24.70
-28.20
-32.61
-37.45
-41.90
-44.88
-45.40
-42.84
-37.18
-29.02
-19.44
-9.65
-0.64
6.98
13.04
17.71
21.18
23.64
25.17
25.77
25.53
24.60
23.24
21.72
20.30
19.11
18.23
17.65
17.33
17.26
17.36
17.56
17.73
17.74
17.45
16.74
15.56
13.98
12.11
10.12
8.10
6.08
3.95
1.55
-1.23
-4.37
-7.71
-10.99
-13.98
-16.54
-18.68
-20.61
-22.57
-24.82
-27.60
-30.92
-34.51
-37.79
-39.97
-40.18
-37.82
-32.73
-25.28
-16.28
-6.80
2.16
9.80
15.69
19.71
22.01
22.93
22.84
22.08
20.87
19.41
17.85
16.38
15.18
14.40
14.11
14.22
14.53
14.84
14.97
14.81
14.33
13.50
12.32
10.80
9.00
6.97
4.79
2.48
0.03
-2.61
-5.41
-8.29
-11.14
-13.83
-16.33
-18.66
-20.94
-23.35
-26.10
-29.36
-33.21
-37.44
-41.46
-44.37
-45.16
-43.06
-37.83
-29.98
-20.52
-10.74
-1.69
6.02
12.22
17.01
20.57
22.95
24.17
24.26
23.42
21.99
20.35
18.81
17.55
16.60
15.92
15.53
15.51
15.91
16.67
17.55
18.19
18.23
17.45
15.84
13.61
11.14
8.76
6.64
4.76
2.90
0.81
-1.73
-4.73
-8.03
-11.38
-14.54
-17.41
-20.04
-22.61
-25.37
-28.51
-32.09
-35.93
-39.58
-42.34
-43.37
-41.97
-37.76
-30.92
-22.14
-12.52
-3.16
5.03
11.63
16.67
20.45
23.32
25.47
26.89
27.48
27.22
26.26
24.91
23.58
22.57
22.01
21.85
21.96
22.24
22.59
22.87
22.90
22.48
21.41
19.65
17.31
14.54
11.62
8.74
6.08
3.69
1.54
-0.50
-2.56
-4.83
-7.37
-10.12
-12.94
-15.66
-18.13
-20.37
-22.60
-25.14
-28.28
-32.13
-36.34
-40.16
-42.55
-42.51
-39.46
-33.52
-25.43
-16.32
-7.37
0.63
7.29
12.60
16.79
19.99
22.25
23.51
23.75
23.06
21.75
20.21
18.81
17.83
17.32
17.23
17.43
17.81
18.28
18.71
18.94
18.80
18.13
16.90
15.19
13.17
11.02
8.81
6.54
4.13
1.55
-1.21
-4.05
-6.84
-9.50
-11.95
-14.24
-16.46
-18.78
-21.41
-24.49
-28.06
-31.91
-35.56
-38.27
-39.22
-37.75
-33.59
-26.98
-18.66
-9.65
-0.94
6.71
12.91
17.58
20.84
22.88
23.84
23.87
23.14
21.92
20.51
19.24
18.31
17.81
17.72
17.88
18.20
18.54
18.78
18.79
18.39
17.43
15.83
13.69
11.20
8.65
6.22
3.95
1.73
-0.62
-3.24
-6.19
-9.42
-12.80
-16.19
-19.44
-22.49
-25.33
-28.09
-30.99
-34.26
-37.95
-41.80
-45.16
-47.13
-46.80
-43.62
-37.57
-29.20
-19.51
-9.65
-0.56
7.15
13.34
18.10
21.65
24.19
25.82
26.61
26.70
26.32
25.74
25.16
24.67
24.27
23.88
23.43
22.92
22.43
22.04
21.73
21.40
20.88
19.94
18.41
16.26
13.62
10.79
8.06
5.66
3.59
1.64
-0.48
-3.01
-6.00
-9.26
-12.55
-15.61
-18.36
-20.84
-23.29
-25.99
-29.24
-33.15
-37.58
-42.01
-45.61
-47.36
-46.38
-42.29
-35.30
-26.25
-16.31
-6.58
2.10
9.38
15.22
19.79
23.30
25.86
27.55
28.41
28.50
27.94
26.94
25.76
24.66
23.80
23.28
23.09
23.09
23.19
23.30
23.37
23.34
23.09
22.45
21.21
19.29
16.76
13.86
10.94
8.24
5.84
3.56
1.11
-1.73
-5.01
-8.57
-12.07
-15.27
-18.00
-20.32
-22.41
-24.50
-26.84
-29.67
-33.09
-36.98
-40.88
-44.08
-45.63
-44.77
-41.11
-34.84
-26.68
-17.60
-8.59
-0.36
6.69
12.50
17.10
20.64
23.17
24.74
25.41
25.26
24.49
23.38
22.25
21.36
20.88
20.81
21.05
21.43
21.85
22.25
22.56
22.68
22.35
21.36
19.54
16.92
13.75
10.40
7.22
4.39
1.87
-0.48
-2.82
-5.24
-7.72
-10.14
-12.45
-14.65
-16.84
-19.17
-21.87
-25.07
-28.84
-33.01
-37.13
-40.49
-42.23
-41.57
-38.14
-32.07
-24.05
-15.07
-6.16
1.93
8.76
14.23
18.39
21.30
23.04
23.68
23.39
22.46
21.25
20.08
19.18
18.65
18.43
18.46
18.63
18.86
19.06
19.13
18.94
18.37
17.31
15.75
13.73
11.33
8.72
6.02
3.39
0.85
-1.60
-4.03
-6.57
-9.27
-12.16
-15.13
-18.05
-20.82
-23.47
-26.16
-29.17
-32.78
-37.03
-41.63
-45.84
-48.64
-49.03
-46.33
-40.47
-32.05
-22.14
-11.95
-2.52
5.59
12.20
17.41
21.37
24.16
25.79
26.36
26.11
25.43
24.72
24.26
24.09
24.08
24.01
23.77
23.43
23.14
23.01
23.01
22.96
22.57
21.60
19.92
17.59
14.77
11.73
8.75
6.05
3.74
1.74
-0.15
-2.24
-4.76
-7.77
-11.10
-14.44
-17.47
-20.05
-22.22
-24.26
-26.57
-29.47
-33.08
-37.19
-41.23
-44.32
-45.53
-44.08
-39.64
-32.49
-23.41
-13.54
-3.97
4.44
11.27
16.53
20.46
23.39
25.54
26.95
27.62
27.54
26.83
25.77
24.72
23.98
23.66
23.68
23.83
23.93
23.89
23.77
23.61
23.37
22.83
21.70
19.79
17.11
13.93
10.67
7.73
5.29
3.24
1.32
-0.80
-3.32
-6.25
-9.48
-12.78
-15.92
-18.70
-21.06
-23.08
-25.01
-27.20
-30.00
-33.55
-37.62
-41.56
-44.39
-45.10
-42.98
-37.91
-30.37
-21.34
-11.92
-3.06
4.62
10.89
15.80
19.47
22.06
23.65
24.36
24.31
23.66
22.60
21.32
20.02
18.83
17.87
17.21
16.86
16.80
16.96
17.23
17.48
17.55
17.27
16.47
15.03
12.94
10.32
7.40
4.42
1.63
-0.89
-3.15
-5.29
-7.47
-9.75
-12.14
-14.56
-16.99
-19.54
-22.39
-25.80
-29.83
-34.19
-38.18
-40.84
-41.23
-38.73
-33.34
-25.63
-16.61
-7.36
1.22
8.57
14.47
18.94
22.06
23.99
24.85
24.82
24.09
22.88
21.38
19.78
18.27
17.09
16.42
16.38
16.90
17.75
18.61
19.14
19.14
18.52
17.27
15.43
13.08
10.31
7.23
4.01
0.80
-2.34
-5.44
-8.55
-11.67
-14.69
-17.40
-19.63
-21.36
-22.76
-24.26
-26.30
-29.27
-33.25
-37.96
-42.74
-46.66
-48.69
-47.98
-44.14
-37.35
-28.32
-18.14
-7.93
1.40
9.31
15.62
20.39
23.77
25.90
26.90
26.97
26.31
25.22
23.95
22.70
21.60
20.75
20.21
20.01
20.17
20.64
21.30
21.96
22.35
22.20
21.27
19.49
16.95
13.89
10.68
7.61
4.79
2.11
-0.66
-3.74
-7.14
-10.65
-13.95
-16.75
-18.95
-20.69
-22.29
-24.14
-26.57
-29.79
-33.74
-38.06
-42.10
-44.96
-45.70
-43.63
-38.54
-30.84
-21.45
-11.50
-2.02
6.26
13.05
18.38
22.41
25.32
27.21
28.14
28.21
27.63
26.68
25.69
24.86
24.31
24.00
23.78
23.57
23.34
23.12
23.00
22.95
22.79
22.22
20.93
18.74
15.71
12.17
8.56
5.30
2.61
0.46
-1.38
-3.16
-5.09
-7.22
-9.45
-11.64
-13.68
-15.52
-17.24
-19.03
-21.14
-23.87
-27.40
-31.70
-36.38
-40.72
-43.70
-44.35
-42.07
-36.79
-29.07
-19.88
-10.31
-1.32
6.48
12.84
17.75
21.32
23.71
24.99
25.30
24.80
23.73
22.44
21.21
20.22
19.50
19.01
18.61
18.26
17.93
17.64
17.35
16.96
16.36
15.47
14.30
12.89
11.26
9.42
7.35
5.05
2.58
0.03
-2.54
-5.12
-7.73
-10.39
-13.05
-15.64
-18.07
-20.36
-22.70
-25.36
-28.61
-32.48
-36.66
-40.47
-43.01
-43.38
-41.07
-36.03
-28.82
-20.38
-11.73
-3.75
3.06
8.49
12.55
15.36
17.06
17.83
17.94
17.67
17.35
17.24
17.53
18.29
19.47
20.92
22.43
23.80
24.87
25.60
26.02
26.28
26.51
26.80
27.12
27.43
27.63
27.70
27.69
27.69
27.82
28.18
28.75
29.37
29.72
29.46
28.37
26.52
24.30
22.35
21.33
21.64
23.22
25.51
27.66
28.82
28.45
26.49
23.35
19.65
15.98
12.74
10.12
8.24
7.25
7.33
8.53
10.62
12.97
14.69
14.73
12.00
5.44
-5.95
-22.95
-45.72
-73.22
-102.79
-130.29
-150.95
-160.85
-158.18
-144.00
-121.69
-95.74
-70.14
-47.33
-27.99
-11.74
2.00
13.35
22.04
27.85
31.09
32.74
34.01
35.78
38.19
40.59
41.92
41.33
38.52
33.89
28.31
22.78
18.09
14.74
12.91
12.61
13.77
16.20
19.67
23.80
28.16
32.28
35.73
38.15
39.35
39.26
37.98
35.80
33.07
30.17
27.42
24.97
22.86
20.97
19.21
17.45
15.64
13.78
11.91
10.03
8.16
6.29
4.38
2.41
0.41
-1.58
-3.53
-5.42
-7.28
-9.13
-11.02
-12.97
-14.91
-16.80
-18.52
-20.01
-21.21
-22.15
-22.97
-23.93
-25.35
-27.41
-30.08
-32.87
-35.02
-35.66
-34.18
-30.49
-25.03
-18.67
-12.37
-6.83
-2.33
1.18
3.95
6.16
7.77
8.62
8.58
7.66
6.14
4.50
3.23
2.62
2.68
3.09
3.45
3.43
2.95
2.14
1.29
0.61
0.11
-0.37
-1.15
-2.47
-4.38
-6.71
-9.13
-11.29
-13.00
-14.25
-15.26
-16.30
-17.61
-19.27
-21.30
-23.62
-26.10
-28.56
-30.59
-31.64
-31.07
-28.46
-23.78
-17.54
-10.60
-3.90
1.88
6.49
10.05
12.84
15.03
16.67
17.62
17.87
17.51
16.79
16.03
15.42
15.00
14.66
14.23
13.59
12.72
11.68
10.57
9.45
8.30
7.05
5.66
4.12
2.48
0.84
-0.72
-2.21
-3.66
-5.18
-6.80
-8.54
-10.34
-12.12
-13.83
-15.55
-17.45
-19.78
-22.71
-26.27
-30.24
-34.08
-37.05
-38.35
-37.34
-33.80
-28.00
-20.68
-12.85
-5.48
0.78
5.67
9.30
11.97
13.93
15.33
16.14
16.35
16.04
15.43
14.78
14.27
13.98
13.80
13.60
13.26
12.79
12.29
11.90
11.63
11.38
10.97
10.20
8.99
7.40
5.58
3.76
2.10
0.67
-0.67
-2.11
-3.86
-6.04
-8.55
-11.20
-13.75
-16.05
-18.10
-20.04
-22.08
-24.44
-27.26
-30.58
-34.20
-37.62
-40.06
-40.59
-38.52
-33.68
-26.56
-18.18
-9.71
-2.12
4.10
8.93
12.59
15.33
17.28
18.45
18.85
18.62
18.04
17.41
17.01
16.96
17.16
17.45
17.61
17.52
17.19
16.75
16.31
15.93
15.50
14.84
13.73
12.05
9.87
7.38
4.92
2.77
1.10
-0.12
-1.07
-2.08
-3.46
-5.39
-7.85
-10.61
-13.32
-15.62
-17.35
-18.57
-19.58
-20.77
-22.47
-24.81
-27.76
-31.07
-34.28
-36.79
-37.88
-36.91
-33.55
-27.97
-20.81
-13.05
-5.68
0.64
5.70
9.68
12.91
15.64
17.82
19.28
19.88
19.65
18.88
17.98
17.35
17.16
17.35
17.67
17.84
17.68
17.23
16.64
16.08
15.65
15.27
14.75
13.85
12.45
10.60
8.50
6.44
4.61
3.05
1.56
-0.15
-2.26
-4.78
-7.45
-9.91
-11.82
-13.08
-13.85
-14.49
-15.39
-16.92
-19.25
-22.42
-26.22
-30.21
-33.68
-35.80
-35.87
-33.48
-28.77
-22.37
-15.16
-7.99
-1.41
4.33
9.15
13.01
15.82
17.46
17.91
17.37
16.28
15.12
14.34
14.13
14.41
14.92
15.37
15.52
15.29
14.73
13.93
12.93
11.77
10.39
8.79
7.04
5.26
3.64
2.32
1.30
0.44
-0.52
-1.85
-3.71
-6.10
-8.81
-11.57
-14.12
-16.31
-18.22
-19.98
-21.87
-24.08
-26.70
-29.66
-32.62
-35.06
-36.30
-35.71
-32.88
-27.82
-20.97
-13.08
-5.04
2.37
8.63
13.57
17.24
19.81
21.47
22.34
22.55
22.23
21.57
20.80
20.17
19.85
19.90
20.19
20.51
20.69
20.65
20.42
20.07
19.63
18.98
17.94
16.37
14.24
11.74
9.23
6.97
5.15
3.70
2.31
0.68
-1.43
-4.04
-6.91
-9.74
-12.22
-14.19
-15.68
-16.94
-18.33
-20.24
-22.97
-26.61
-30.93
-35.27
-38.71
-40.23
-39.08
-35.03
-28.48
-20.33
-11.70
-3.52
3.59
9.43
14.07
17.68
20.44
22.42
23.64
24.17
24.11
23.67
23.06
22.51
22.13
21.92
21.76
21.52
21.13
20.68
20.33
20.23
20.40
20.64
20.60
19.87
18.21
15.68
12.61
9.50
6.80
4.69
3.04
1.46
-0.47
-2.99
-6.08
-9.41
-12.58
-15.28
-17.44
-19.23
-20.91
-22.75
-24.94
-27.60
-30.70
-34.10
-37.44
-40.05
-41.12
-39.86
-35.86
-29.29
-20.94
-11.91
-3.30
4.18
10.28
15.09
18.79
21.51
23.24
23.99
23.84
23.10
22.18
21.43
20.99
20.83
20.68
20.33
19.68
18.87
18.10
17.53
17.16
16.75
16.07
14.92
13.32
11.42
9.48
7.69
6.08
4.53
2.85
0.92
-1.33
-3.80
-6.33
-8.70
-10.77
-12.51
-14.02
-15.57
-17.47
-20.01
-23.33
-27.29
-31.46
-35.07
-37.21
-37.08
-34.23
-28.75
-21.29
-12.80
-4.24
3.65
10.47
16.11
20.57
23.82
25.83
26.60
26.29
25.26
23.95
22.74
21.81
21.17
20.67
20.14
19.51
18.74
17.91
17.08
16.27
15.44
14.53
13.46
12.14
10.51
8.57
6.39
4.07
1.73
-0.58
-2.91
-5.35
-8.00
-10.85
-13.78
-16.60
-19.14
-21.31
-23.14
-24.82
-26.56
-28.63
-31.26
-34.57
-38.35
-42.02
-44.62
-45.07
-42.60
-37.04
-29.01
-19.69
-10.37
-2.00
4.99
10.63
15.16
18.72
21.34
22.87
23.35
23.01
22.33
21.76
21.58
21.82
22.19
22.38
22.17
21.61
20.96
20.50
20.40
20.60
20.78
20.53
19.58
17.85
15.53
12.96
10.48
8.28
6.37
4.59
2.68
0.42
-2.30
-5.37
-8.58
-11.64
-14.35
-16.60
-18.48
-20.22
-22.06
-24.24
-26.94
-30.21
-33.93
-37.70
-40.76
-42.21
-41.18
-37.19
-30.43
-21.68
-12.12
-2.96
4.98
11.35
16.25
19.94
22.68
24.60
25.67
25.90
25.39
24.39
23.29
22.41
21.98
21.98
22.21
22.35
22.18
21.59
20.75
19.90
19.25
18.81
18.39
17.66
16.34
14.36
11.87
9.21
6.74
4.63
2.87
1.26
-0.47
-2.47
-4.79
-7.30
-9.87
-12.36
-14.74
-17.00
-19.16
-21.27
-23.41
-25.73
-28.43
-31.72
-35.50
-39.33
-42.33
-43.47
-41.88
-37.27
-30.01
-21.11
-11.78
-3.09
4.31
10.28
14.92
18.41
20.87
22.29
22.68
22.24
21.32
20.36
19.74
19.61
19.88
20.29
20.57
20.63
20.56
20.57
20.80
21.26
21.71
21.76
21.05
19.41
16.89
13.80
10.54
7.47
4.79
2.49
0.36
-1.88
-4.45
-7.36
-10.41
-13.29
-15.74
-17.68
-19.25
-20.74
-22.44
-24.55
-27.19
-30.32
-33.81
-37.28
-40.11
-41.44
-40.42
-36.56
-29.98
-21.43
-12.10
-3.17
4.57
10.82
15.70
19.46
22.24
24.04
24.77
24.46
23.41
22.10
21.08
20.63
20.78
21.27
21.72
21.87
21.64
21.16
20.61
20.16
19.77
19.29
18.46
17.03
14.94
12.25
9.23
6.25
3.61
1.42
-0.43
-2.26
-4.41
-7.04
-10.05
-13.18
-16.08
-18.55
-20.63
-22.56
-24.71
-27.40
-30.82
-34.94
-39.45
-43.74
-46.88
-47.94
-46.16
-41.29
-33.79
-24.60
-14.94
-5.86
1.98
8.42
13.57
17.68
20.87
23.21
24.71
25.44
25.53
25.24
24.79
24.39
24.13
24.03
24.01
24.00
23.93
23.72
23.34
22.72
21.82
20.58
18.96
16.91
14.50
11.85
9.16
6.67
4.56
2.87
1.51
0.23
-1.24
-3.11
-5.45
-8.24
-11.29
-14.37
-17.26
-19.74
-21.75
-23.39
-24.94
-26.78
-29.33
-32.79
-37.04
-41.52
-45.26
-47.15
-46.26
-42.12
-34.98
-25.70
-15.47
-5.45
3.51
11.02
17.01
21.57
24.81
26.81
27.73
27.86
27.55
27.18
26.96
26.90
26.78
26.34
25.41
24.04
22.47
21.08
20.19
19.91
20.11
20.44
20.46
19.77
18.21
15.80
12.78
9.48
6.25
3.35
0.84
-1.39
-3.57
-5.93
-8.55
-11.33
-14.07
-16.50
-18.51
-20.14
-21.58
-23.15
-25.13
-27.73
-31.04
-34.86
-38.64
-41.56
-42.62
-41.04
-36.53
-29.46
-20.72
-11.44
-2.62
5.13
11.55
16.63
20.44
23.01
24.37
24.60
23.88
22.50
20.80
19.08
17.59
16.51
15.94
15.88
16.23
16.83
17.41
17.73
17.59
16.96
15.89
14.54
13.00
11.33
9.47
7.39
5.05
2.51
-0.12
-2.74
-5.31
-7.84
-10.38
-12.94
-15.48
-17.95
-20.38
-22.92
-25.79
-29.18
-32.97
-36.66
-39.35
-40.00
-37.83
-32.68
-25.10
-16.19
-7.21
0.85
7.48
12.67
16.61
19.54
21.56
22.65
22.83
22.25
21.19
20.00
19.01
18.43
18.29
18.48
18.82
19.09
19.20
19.11
18.86
18.47
17.86
16.91
15.50
13.63
11.38
9.00
6.63
4.37
2.05
-0.54
-3.54
-6.94
-10.51
-13.91
-16.84
-19.17
-21.02
-22.71
-24.74
-27.54
-31.37
-36.09
-41.01
-45.03
-46.92
-45.70
-41.12
-33.65
-24.39
-14.60
-5.30
2.90
9.80
15.36
19.58
22.44
24.00
24.50
24.29
23.80
23.31
22.94
22.62
22.29
21.91
21.62
21.58
21.90
22.53
23.25
23.72
23.64
22.82
21.28
19.22
16.86
14.39
11.92
9.43
6.88
4.21
1.43
-1.46
-4.40
-7.30
-10.04
-12.51
-14.66
-16.51
-18.20
-19.99
-22.18
-25.07
-28.82
-33.33
-38.05
-42.09
-44.37
-43.94
-40.33
-33.80
-25.22
-15.82
-6.77
1.12
7.55
12.61
16.54
19.59
21.89
23.47
24.37
24.71
24.74
24.69
24.77
25.04
25.36
25.60
25.60
25.35
24.93
24.51
24.13
23.70
22.99
21.71
19.71
17.06
14.01
10.91
8.06
5.59
3.49
1.59
-0.25
-2.17
-4.22
-6.40
-8.69
-11.05
-13.44
-15.80
-18.12
-20.38
-22.62
-24.99
-27.67
-30.87
-34.65
-38.75
-42.50
-44.84
-44.71
-41.36
-34.82
-25.86
-15.80
-6.00
2.59
9.61
15.16
19.53
22.87
25.16
26.33
26.42
25.72
24.63
23.60
22.86
22.42
22.08
21.65
21.06
20.40
19.85
19.55
19.48
19.48
19.24
18.46
17.00
14.92
12.45
9.90
7.56
5.59
3.97
2.58
1.18
-0.45
-2.48
-4.90
-7.59
-10.32
-12.86
-15.11
-17.03
-18.78
-20.57
-22.68
-25.36
-28.79
-32.89
-37.25
-41.04
-43.16
-42.61
-38.85
-32.09
-23.25
-13.60
-4.36
3.68
10.23
15.35
19.24
21.99
23.63
24.18
23.80
22.84
21.72
20.85
20.45
20.48
20.70
20.79
20.52
19.86
19.02
18.30
17.90
17.81
17.73
17.23
15.96
13.79
10.97
7.89
5.01
2.58
0.57
-1.32
-3.50
-6.19
-9.39
-12.79
-15.94
-18.53
-20.46
-21.96
-23.46
-25.39
-28.05
-31.52
-35.64
-39.98
-43.85
-46.39
-46.66
-44.02
-38.34
-30.12
-20.39
-10.41
-1.25
6.53
12.81
17.84
21.87
25.04
27.29
28.55
28.83
28.34
27.41
26.39
25.50
24.79
24.20
23.68
23.19
22.81
22.59
22.51
22.43
22.17
21.55
20.45
18.89
16.90
14.62
12.12
9.55
6.98
4.52
2.16
-0.20
-2.70
-5.45
-8.42
-11.43
-14.19
-16.49
-18.28
-19.74
-21.21
-23.03
-25.49
-28.76
-32.84
-37.49
-42.16
-45.99
-47.90
-46.93
-42.61
-35.23
-25.80
-15.78
-6.47
1.32
7.43
12.22
16.13
19.47
22.22
24.20
25.28
25.52
25.24
24.85
24.67
24.84
25.24
25.61
25.68
25.32
24.55
23.59
22.65
21.85
21.11
20.27
19.11
17.54
15.59
13.47
11.37
9.43
7.66
5.97
4.23
2.34
0.24
-2.10
-4.70
-7.55
-10.59
-13.62
-16.41
-18.74
-20.59
-22.13
-23.73
-25.82
-28.78
-32.73
-37.49
-42.44
-46.65
-49.00
-48.49
-44.61
-37.49
-28.00
-17.44
-7.13
1.91
9.25
14.90
19.16
22.34
24.64
26.12
26.87
26.99
26.73
26.30
25.90
25.61
25.38
25.15
24.81
24.37
23.84
23.28
22.72
22.17
21.58
20.85
19.89
18.59
16.90
14.82
12.42
9.86
7.33
4.99
2.92
1.09
-0.65
-2.51
-4.64
-7.12
-9.89
-12.79
-15.60
-18.16
-20.35
-22.22
-23.94
-25.75
-27.98
-30.90
-34.62
-38.94
-43.28
-46.66
-48.02
-46.52
-41.80
-34.28
-24.92
-14.97
-5.53
2.69
9.41
14.68
18.64
21.40
23.02
23.55
23.17
22.17
20.90
19.73
18.92
18.57
18.63
18.91
19.13
19.08
18.63
17.82
16.82
15.82
14.88
13.91
12.70
11.04
8.83
6.18
3.35
0.64
-1.74
-3.80
-5.70
-7.72
-10.08
-12.82
-15.80
-18.72
-21.26
-23.24
-24.68
-25.82
-27.04
-28.71
-31.11
-34.37
-38.41
-42.97
-47.49
-51.17
-53.05
-52.26
-48.33
-41.38
-32.20
-22.02
-12.10
-3.35
3.81
9.42
13.78
17.14
19.63
21.22
21.94
21.89
21.38
20.72
20.21
19.90
19.76
19.64
19.41
19.10
18.80
18.61
18.54
18.49
18.25
17.55
16.22
14.18
11.52
8.45
5.24
2.16
-0.65
-3.15
-5.54
-8.00
-10.71
-13.68
-16.77
-19.82
-22.71
-25.51
-28.53
-32.14
-36.71
-42.46
-49.40
-57.26
-65.54
-73.41
-79.88
-83.95
-84.89
-82.43
-76.89
-69.06
-59.82
-49.98
-40.03
-30.26
-20.85
-12.06
-4.24
2.22
7.03
10.14
11.73
12.18
11.96
11.58
11.47
11.93
13.05
14.72
16.66
18.54
20.10
21.15
21.66
21.73
21.61
21.69
22.56
24.83
29.01
35.23
43.21
52.19
61.25
69.56
76.53
81.81
85.13
86.07
84.10
78.69
69.63
57.12
41.84
24.72
6.69
-11.46
-28.97
-45.06
-58.71
-68.78
-74.25
-74.60
-70.01
-61.44
-50.32
-38.16
-26.28
-15.52
-6.31
1.28
7.34
12.02
15.54
18.10
19.96
21.36
22.55
23.69
24.92
26.24
27.64
29.09
30.56
32.05
33.57
35.14
36.72
38.21
39.43
40.17
40.24
39.58
38.22
36.34
34.15
31.88
29.65
27.46
25.18
22.61
19.48
15.58
10.73
4.84
-2.02
-9.65
-17.75
-26.02
-34.25
-42.38
-50.40
-58.21
-65.53
-71.81
-76.46
-78.99
-79.25
-77.47
-74.13
-69.70
-64.47
-58.49
-51.67
-43.95
-35.48
-26.62
-17.82
-9.42
-1.48
6.17
13.84
21.66
29.43
36.65
42.72
47.20
50.00
51.44
52.10
52.46
52.81
53.15
53.33
53.20
52.79
52.30
51.97
51.96
52.20
52.42
52.22
51.17
49.03
45.75
41.47
36.43
30.82
24.64
17.74
9.81
0.54
-10.18
-22.16
-34.83
-47.36
-58.77
-68.10
-74.60
-77.87
-77.96
-75.22
-70.30
-63.83
-56.35
-48.17
-39.47
-30.37
-21.10
-12.00
-3.51
3.98
10.29
15.40
19.50
22.86
25.73
28.28
30.65
32.92
35.13
37.27
39.33
41.25
42.95
44.26
45.03
45.08
44.27
42.54
39.98
36.81
33.29
29.70
26.22
22.89
19.62
16.26
12.69
8.88
4.87
0.75
-3.36
-7.37
-11.23
-14.96
-18.68
-22.55
-26.79
-31.56
-36.97
-42.87
-48.85
-54.21
-58.07
-59.58
-58.14
-53.54
-46.05
-36.32
-25.15
-13.43
-1.90
8.89
18.56
26.84
33.56
38.58
41.82
43.35
43.38
42.31
40.68
39.01
37.69
36.87
36.51
36.46
36.55
36.68
36.76
36.70
36.33
35.47
34.02
31.97
29.43
26.59
23.61
20.58
17.53
14.41
11.18
7.83
4.30
0.63
-3.15
-6.95
-10.69
-14.27
-17.64
-20.83
-23.92
-27.03
-30.33
-34.04
-38.33
-43.25
-48.64
-54.05
-58.81
-62.17
-63.46
-62.27
-58.44
-52.13
-43.66
-33.49
-22.23
-10.57
0.77
11.11
19.96
27.06
32.39
36.11
38.48
39.76
40.20
40.08
39.73
39.43
39.42
39.76
40.28
40.73
40.82
40.36
39.33
37.80
35.90
33.69
31.16
28.23
24.90
21.20
17.29
13.40
9.72
6.34
3.26
0.33
-2.63
-5.76
-9.03
-12.26
-15.15
-17.53
-19.44
-21.16
-23.09
-25.63
-28.95
-33.03
-37.67
-42.54
-47.21
-51.13
-53.67
-54.23
-52.40
-48.08
-41.57
-33.42
-24.28
-14.74
-5.28
3.68
11.79
18.67
24.06
27.87
30.14
31.13
31.14
30.54
29.65
28.75
28.03
27.64
27.63
27.93
28.41
28.87
29.14
29.07
28.54
27.51
26.00
24.01
21.62
18.92
16.05
13.15
10.29
7.43
4.47
1.26
-2.28
-6.18
-10.34
-14.57
-18.67
-22.44
-25.79
-28.73
-31.42
-34.13
-37.12
-40.58
-44.50
-48.62
-52.46
-55.37
-56.69
-55.92
-52.78
-47.26
-39.64
-30.37
-20.06
-9.39
0.99
10.47
18.55
24.93
29.51
32.39
33.84
34.22
33.86
33.10
32.22
31.43
30.90
30.71
30.88
31.32
31.92
32.50
32.90
32.96
32.56
31.58
29.97
27.71
24.87
21.58
18.05
14.48
11.02
7.75
4.63
1.57
-1.59
-4.93
-8.50
-12.26
-16.11
-19.93
-23.64
-27.24
-30.73
-34.17
-37.57
-41.01
-44.57
-48.30
-52.05
-55.45
-57.85
-58.49
-56.71
-52.17
-44.99
-35.67
-24.99
-13.77
-2.83
7.17
15.73
22.61
27.75
31.30
33.48
34.61
34.96
34.76
34.25
33.67
33.22
33.04
33.17
33.55
33.99
34.34
34.44
34.21
33.59
32.56
31.09
29.16
26.77
23.93
20.71
17.26
13.77
10.42
7.31
4.42
1.63
-1.22
-4.28
-7.55
-10.91
-14.18
-17.19
-19.94
-22.55
-25.22
-28.12
-31.39
-35.04
-39.03
-43.17
-47.13
-50.41
-52.34
-52.29
-49.77
-44.60
-36.94
-27.26
-16.22
-4.60
6.87
17.51
26.83
34.47
40.32
44.39
46.82
47.85
47.73
46.81
45.45
43.98
42.68
41.70
41.07
40.75
40.68
40.81
41.10
41.55
42.14
42.85
43.64
44.47
45.31
46.13
46.89
47.60
48.24
48.85
49.41
49.82
49.92
49.51
48.38
46.35
43.33
39.33
34.41
28.68
22.26
15.29
7.90
0.25
-7.50
-15.26
-22.94
-30.41
-37.37
-43.32
-47.62
-49.66
-49.09
-46.05
-41.14
-35.29
-29.47
-24.40
-20.40
-17.45
-15.40
-14.06
-13.34
-13.20
-13.55
-14.22
-14.94
-15.45
-15.55
-15.22
-14.52
-13.61
-12.67
-11.81
-11.11
-10.60
-10.32
-10.28
-10.51
-11.03
-11.80
-12.75
-13.76
-14.75
-15.73
-16.83
-18.19
-19.96
-22.10
-24.43
-26.67
-28.58
-30.06
-31.26
-32.44
-33.97
-36.08
-38.84
-42.05
-45.26
-47.75
-48.68
-47.28
-43.07
-36.13
-27.11
-17.18
-7.55
0.77
7.28
12.00
15.19
17.19
18.20
18.26
17.40
15.85
13.96
12.20
11.02
10.60
10.86
11.49
12.08
12.31
12.14
11.68
11.17
10.71
10.16
9.23
7.55
5.02
1.85
-1.41
-4.19
-6.16
-7.38
-8.30
-9.44
-11.24
-13.68
-16.46
-19.11
-21.24
-22.78
-23.87
-24.88
-26.14
-27.93
-30.36
-33.47
-37.10
-40.83
-43.91
-45.37
-44.28
-40.11
-33.02
-23.86
-13.92
-4.50
3.52
9.79
14.43
17.72
19.94
21.18
21.52
21.02
19.96
18.74
17.74
17.20
17.08
17.16
17.17
16.93
16.46
15.91
15.52
15.40
15.50
15.62
15.44
14.68
13.19
11.00
8.31
5.51
2.95
0.89
-0.66
-1.97
-3.43
-5.44
-8.11
-11.30
-14.64
-17.68
-20.10
-21.83
-23.08
-24.27
-25.90
-28.38
-31.87
-36.16
-40.54
-43.94
-45.19
-43.38
-38.20
-30.12
-20.19
-9.79
-0.22
7.71
13.66
17.76
20.37
21.86
22.49
22.40
21.68
20.52
19.21
18.08
17.38
17.20
17.34
17.51
17.46
17.08
16.49
15.91
15.51
15.28
15.05
14.55
13.50
11.77
9.40
6.67
3.99
1.80
0.33
-0.43
-0.87
-1.54
-2.95
-5.35
-8.58
-12.17
-15.52
-18.24
-20.18
-21.53
-22.69
-24.10
-26.10
-28.86
-32.25
-35.81
-38.75
-40.07
-38.86
-34.63
-27.61
-18.65
-9.08
-0.17
7.18
12.67
16.47
18.99
20.56
21.39
21.53
21.05
20.13
19.05
18.09
17.42
17.07
16.87
16.63
16.27
15.79
15.32
14.97
14.72
14.41
13.80
12.66
10.93
8.74
6.32
3.98
1.92
0.16
-1.40
-3.00
-4.90
-7.25
-10.04
-13.12
-16.15
-18.81
-20.89
-22.39
-23.53
-24.74
-26.48
-29.12
-32.75
-36.95
-40.84
-43.22
-42.91
-39.17
-32.05
-22.43
-11.74
-1.53
7.07
13.54
18.00
20.84
22.52
23.28
23.22
22.44
21.14
19.72
18.55
17.91
17.78
17.94
18.00
17.71
17.05
16.21
15.50
15.09
14.94
14.78
14.25
13.09
11.22
8.81
6.19
3.68
1.55
-0.16
-1.52
-2.83
-4.33
-6.29
-8.72
-11.56
-14.51
-17.28
-19.61
-21.42
-22.84
-24.15
-25.80
-28.21
-31.65
-35.96
-40.48
-44.08
-45.44
-43.53
-38.02
-29.53
-19.35
-9.05
0.11
7.51
13.16
17.50
20.90
23.52
25.22
25.86
25.44
24.26
22.83
21.63
20.99
20.88
21.05
21.11
20.87
20.35
19.72
19.25
18.99
18.83
18.48
17.65
16.21
14.23
11.93
9.59
7.44
5.56
3.87
2.21
0.39
-1.77
-4.38
-7.35
-10.47
-13.40
-15.84
-17.64
-18.92
-19.98
-21.29
-23.25
-26.12
-29.92
-34.38
-38.86
-42.43
-44.05
-42.78
-38.17
-30.52
-20.85
-10.61
-1.22
6.44
12.13
16.17
19.05
21.14
22.57
23.28
23.24
22.67
21.94
21.44
21.40
21.78
22.32
22.73
22.81
22.58
22.17
21.74
21.40
21.13
20.79
20.13
18.87
16.87
14.13
10.97
7.83
5.18
3.24
1.89
0.68
-0.97
-3.41
-6.70
-10.51
-14.32
-17.62
-20.12
-21.79
-22.91
-23.91
-25.31
-27.59
-31.02
-35.47
-40.30
-44.36
-46.25
-44.82
-39.63
-31.24
-21.04
-10.78
-1.87
5.08
10.43
15.20
20.58
27.49
36.19
46.20
56.38
65.18
70.95
72.50
69.48
62.59
53.44
44.15
36.57
31.76
29.64
29.24
29.18
28.46
26.89
25.25
24.98
27.42
33.27
42.19
52.86
63.45
72.20
77.65
78.74
74.79
65.62
51.83
34.99
17.26
0.80
-13.16
-24.77
-35.27
-46.08
-57.70
-69.24
-78.66
-84.04
-84.47
-80.73
-74.73
-68.55
-63.44
-59.50
-56.04
-52.34
-48.41
-44.97
-43.16
-43.78
-46.72
-50.87
-54.49
-55.74
-53.17
-46.06
-34.40
-18.99
-1.32
16.53
32.27
43.95
50.56
52.43
51.07
48.59
46.90
47.08
49.16
52.38
55.75
58.38
59.83
60.05
59.33
58.26
57.63
58.18
60.17
62.99
64.93
63.62
56.93
43.78
24.74
1.84
-22.19
-44.70
-63.76
-78.31
-88.03
-93.08
-93.90
-91.01
-84.70
-74.77
-60.53
-41.30
-17.05
10.89
39.87
66.56
87.95
102.20
108.58
106.97
97.19
78.90
52.26
18.81
-18.15
-54.00
-84.30
-106.35
-119.92
-126.83
-129.47
-129.18
-125.40
-115.99
-98.41
-71.10
-34.51
8.61
53.60
94.74
126.21
143.31
143.38
126.38
94.84
53.14
6.57
-39.71
-81.39
-115.42
-140.09
-155.03
-161.01
-159.57
-152.41
-140.83
-125.23
-105.15
-79.59
-47.41
-7.98
38.22
88.95
139.82
184.48
215.86
227.97
217.91
187.07
140.79
86.88
33.23
-13.94
-51.18
-77.79
-94.91
-104.33
-107.64
-105.66
-98.36
-85.19
-65.68
-40.04
-9.63
23.46
56.82
88.14
115.16
135.56
146.61
145.49
129.99
99.38
55.68
3.81
-49.31
-96.72
-133.04
-155.58
-164.37
-161.32
-149.95
-133.26
-113.34
-91.95
-71.46
-54.92
-45.26
-44.26
-51.75
-67.12
-87.46
-108.23
-124.91
-134.90
-137.95
-135.46
-129.36
-121.33
-115.14
-112.70
-113.81
-117.55
-123.84
-133.43
-146.13
-159.51
-169.08
-173.18
-169.92
-158.10
-138.80
-116.46
-97.25
-86.03
-84.29
-68.69
-28.49
31.16
95.46
152.76
198.12
230.35
249.75
258.14
258.67
250.21
233.36
211.70
190.37
173.27
161.84
155.27
151.73
148.78
141.90
129.45
113.35
97.26
83.90
73.75
65.74
58.41
50.63
40.16
26.06
8.79
-10.47
-30.49
-49.97
-67.39
-81.03
-89.74
-93.96
-94.13
-90.05
-80.99
-66.63
-47.95
-27.60
-9.20
3.81
9.44
8.36
3.51
-1.28
-3.11
-0.82
4.98
12.88
21.47
29.77
37.21
43.21
47.02
47.81
45.01
38.70
29.85
20.16
11.64
5.97
3.88
4.95
7.79
10.72
12.47
12.77
12.31
12.21
13.42
16.09
19.59
22.92
25.31
26.64
27.39
28.32
29.86
31.94
33.91
34.97
34.62
32.83
30.07
27.00
24.22
22.00
20.41
19.32
18.66
18.41
18.56
19.01
19.49
19.62
19.08
17.72
15.64
13.12
10.54
8.14
5.99
3.97
1.86
-0.51
-3.17
-5.98
-8.74
-11.24
-13.41
-15.31
-17.17
-19.25
-21.77
-24.79
-28.17
-31.55
-34.39
-36.09
-36.11
-34.19
-30.42
-25.22
-19.23
-13.05
-7.15
-1.76
3.05
7.28
10.89
13.82
16.00
17.38
18.05
18.12
17.77
17.21
16.60
16.08
15.76
15.69
15.84
16.18
16.62
17.05
17.39
17.48
17.23
16.56
15.47
14.05
12.42
10.74
9.12
7.56
5.97
4.16
1.98
-0.63
-3.51
-6.38
-8.88
-10.79
-12.12
-13.12
-14.25
-15.92
-18.39
-21.56
-25.04
-28.19
-30.30
-30.79
-29.32
-25.92
-20.98
-15.09
-8.96
-3.19
1.77
5.77
8.81
11.07
12.76
14.00
14.90
15.47
15.67
15.53
15.11
14.50
13.85
13.29
12.92
12.79
12.89
13.15
13.45
13.60
13.40
12.70
11.42
9.65
7.60
5.54
3.72
2.31
1.35
0.73
0.23
-0.42
-1.43
-2.93
-4.90
-7.19
-9.65
-12.16
-14.70
-17.35
-20.14
-22.94
-25.45
-27.14
-27.51
-26.23
-23.30
-19.05
-14.06
-8.89
-4.00
0.40
4.25
7.55
10.32
12.52
14.12
15.07
15.41
15.26
14.79
14.19
13.66
13.31
13.22
13.36
13.64
13.93
14.11
14.06
13.71
13.01
11.93
10.50
8.80
6.95
5.06
3.18
1.34
-0.48
-2.29
-4.04
-5.68
-7.14
-8.40
-9.53
-10.68
-12.04
-13.86
-16.30
-19.45
-23.19
-27.08
-30.50
-32.68
-33.02
-31.27
-27.57
-22.45
-16.60
-10.64
-5.03
-0.02
4.30
7.86
10.66
12.76
14.28
15.38
16.20
16.77
17.05
16.98
16.60
16.04
15.52
15.27
15.36
15.76
16.30
16.77
16.99
16.88
16.46
15.79
14.90
13.82
12.57
11.15
9.57
7.80
5.78
3.43
0.72
-2.31
-5.48
-8.50
-11.10
-13.15
-14.75
-16.23
-18.01
-20.37
-23.33
-26.51
-29.22
-30.66
-30.21
-27.60
-23.04
-17.13
-10.64
-4.31
1.38
6.28
10.48
14.22
17.72
21.01
23.86
25.81
26.28
24.86
21.53
16.71
11.23
5.98
1.71
-1.21
-2.75
-3.14
-2.67
-1.62
-0.24
1.20
2.44
3.23
3.50
3.37
3.08
2.91
2.93
3.00
2.77
1.85
0.07
-2.46
-5.31
-7.97
-10.03
-11.37
-12.20
-12.93
-14.05
-15.91
-18.65
-22.11
-25.88
-29.33
-31.74
-32.45
-31.03
-27.45
-22.11
-15.74
-9.18
-3.20
1.76
5.57
8.42
10.59
12.39
13.91
15.14
15.95
16.27
16.11
15.63
15.03
14.50
14.13
13.96
13.98
14.14
14.53
15.13
15.89
16.63
17.08
16.95
16.12
14.62
12.62
10.38
8.06
5.75
3.40
0.97
-1.56
-4.13
-6.62
-8.93
-11.01
-12.91
-14.77
-16.74
-18.99
-21.50
-24.11
-26.39
-27.80
-27.79
-26.05
-22.59
-17.80
-12.29
-6.69
-1.51
3.00
6.73
9.72
11.98
13.55
14.51
14.96
15.09
15.06
14.97
14.84
14.61
14.25
13.77
13.27
12.86
12.57
12.39
12.18
11.77
11.01
9.83
8.28
6.50
4.70
3.04
1.60
0.32
-0.97
-2.43
-4.17
-6.08
-7.99
-9.74
-11.25
-12.65
-14.16
-16.06
-18.50
-21.49
-24.84
-28.23
-31.23
-33.32
-34.00
-32.84
-29.67
-24.63
-18.19
-11.12
-4.19
1.90
6.78
10.41
13.01
14.88
16.25
17.22
17.73
17.74
17.29
16.58
15.85
15.29
15.00
14.91
14.91
14.94
14.99
15.10
15.24
15.29
15.01
14.21
12.76
10.72
8.33
5.92
3.71
1.84
0.25
-1.24
-2.85
-4.70
-6.81
-9.05
-11.20
-13.13
-14.81
-16.41
-18.19
-20.38
-23.11
-26.21
-29.25
-31.59
-32.58
-31.71
-28.84
-24.20
-18.30
-11.85
-5.51
0.21
5.05
8.95
12.03
14.42
16.23
17.47
18.10
18.15
17.70
16.93
16.08
15.36
14.93
14.81
14.97
15.34
15.85
16.41
16.89
17.20
17.20
16.77
15.86
14.44
12.56
10.40
8.19
6.16
4.44
2.98
1.60
0.04
-1.89
-4.21
-6.77
-9.29
-11.53
-13.36
-14.88
-16.38
-18.21
-20.65
-23.80
-27.42
-31.00
-33.82
-35.15
-34.45
-31.57
-26.76
-20.60
-13.86
-7.22
-1.17
4.04
8.31
11.65
14.08
15.63
16.42
16.57
16.32
15.88
15.40
14.95
14.56
14.25
14.02
13.91
13.93
14.10
14.38
14.70
14.93
14.93
14.61
13.93
12.94
11.72
10.33
8.76
6.97
4.87
2.46
-0.17
-2.86
-5.43
-7.78
-9.84
-11.64
-13.21
-14.66
-16.12
-17.79
-19.84
-22.33
-25.08
-27.63
-29.32
-29.47
-27.66
-23.89
-18.60
-12.48
-6.25
-0.47
4.57
8.77
12.16
14.71
16.39
17.17
17.15
16.58
15.76
15.00
14.47
14.22
14.22
14.38
14.66
14.99
15.27
15.42
15.33
14.93
14.17
13.07
11.61
9.87
7.87
5.77
3.69
1.75
-0.05
-1.81
-3.66
-5.70
-7.90
-10.14
-12.21
-13.98
-15.49
-16.89
-18.39
-20.23
-22.52
-25.26
-28.28
-31.24
-33.62
-34.81
-34.27
-31.62
-26.92
-20.59
-13.35
-6.00
0.78
6.58
11.23
14.75
17.20
18.61
19.08
18.76
17.91
16.87
15.99
15.48
15.39
15.65
16.10
16.66
17.29
18.00
18.77
19.49
19.95
19.90
19.17
17.73
15.74
13.44
11.08
8.85
6.74
4.64
2.41
-0.05
-2.76
-5.57
-8.32
-10.81
-12.93
-14.68
-16.16
-17.51
-18.92
-20.62
-22.80
-25.52
-28.70
-31.94
-34.57
-35.83
-35.11
-32.18
-27.28
-21.05
-14.29
-7.67
-1.63
3.71
8.36
12.35
15.68
18.23
19.94
20.78
20.87
20.43
19.72
18.98
18.34
17.83
17.38
16.95
16.56
16.36
16.51
17.03
17.72
18.20
18.03
16.93
14.98
12.52
10.07
7.97
6.31
4.83
3.17
1.08
-1.44
-4.18
-6.84
-9.20
-11.25
-13.09
-14.86
-16.67
-18.56
-20.54
-22.70
-25.14
-27.88
-30.70
-33.05
-34.19
-33.47
-30.56
-25.62
-19.27
-12.34
-5.60
0.45
5.59
9.83
13.24
15.82
17.55
18.44
18.55
18.07
17.20
16.13
15.00
13.88
12.84
11.94
11.29
10.92
10.87
11.10
11.48
11.84
11.96
11.66
10.84
9.52
7.86
6.08
4.36
2.76
1.15
-0.65
-2.79
-5.26
-7.91
-10.53
-12.92
-15.06
-17.11
-19.27
-21.74
-24.53
-27.39
-29.85
-31.33
-31.27
-29.36
-25.64
-20.43
-14.30
-7.84
-1.59
4.08
8.90
12.72
15.46
17.16
18.01
18.26
18.17
17.96
17.69
17.29
16.71
15.91
15.05
14.39
14.10
14.24
14.64
15.01
15.07
14.66
13.77
12.50
11.00
9.29
7.39
5.28
2.98
0.57
-1.88
-4.28
-6.61
-8.85
-10.95
-12.83
-14.46
-15.89
-17.27
-18.88
-20.97
-23.69
-26.90
-30.13
-32.70
-33.84
-33.00
-29.97
-25.02
-18.79
-12.05
-5.51
0.38
5.40
9.56
12.86
15.33
16.97
17.79
17.90
17.50
16.86
16.22
15.76
15.50
15.42
15.44
15.53
15.72
16.04
16.51
17.04
17.48
17.57
17.07
15.87
14.02
11.74
9.37
7.21
5.37
3.75
2.07
0.03
-2.52
-5.47
-8.48
-11.13
-13.12
-14.42
-15.30
-16.15
-17.40
-19.32
-21.94
-25.07
-28.31
-31.10
-32.82
-32.90
-30.97
-26.97
-21.28
-14.61
-7.78
-1.53
3.71
7.83
11.03
13.56
15.61
17.23
18.38
19.01
19.13
18.85
18.38
17.86
17.35
16.85
16.30
15.72
15.16
14.73
14.52
14.52
14.59
14.50
14.01
12.98
11.42
9.50
7.44
5.45
3.68
2.11
0.65
-0.86
-2.56
-4.45
-6.41
-8.28
-9.90
-11.25
-12.53
-14.05
-16.16
-19.09
-22.77
-26.77
-30.42
-32.94
-33.62
-32.08
-28.32
-22.77
-16.12
-9.19
-2.68
2.96
7.54
11.07
13.68
15.53
16.74
17.37
17.53
17.32
16.84
16.19
15.46
14.74
14.10
13.61
13.32
13.19
13.16
13.10
12.89
12.43
11.65
10.56
9.19
7.60
5.91
4.19
2.47
0.71
-1.15
-3.17
-5.33
-7.54
-9.65
-11.61
-13.41
-15.15
-16.94
-18.88
-21.04
-23.40
-25.81
-27.93
-29.24
-29.12
-27.12
-23.17
-17.63
-11.23
-4.80
1.06
6.10
10.34
13.89
16.76
18.79
19.80
19.73
18.74
17.22
15.59
14.23
13.33
12.88
12.78
12.91
13.15
13.42
13.66
13.82
13.82
13.58
12.98
11.91
10.38
8.47
6.37
4.24
2.22
0.26
-1.75
-3.93
-6.31
-8.81
-11.22
-13.40
-15.29
-16.99
-18.73
-20.76
-23.24
-26.15
-29.24
-32.04
-33.97
-34.46
-33.14
-29.91
-24.99
-18.86
-12.10
-5.32
0.99
6.45
10.86
14.19
16.54
18.05
18.91
19.23
19.11
18.63
17.88
17.02
16.22
15.61
15.25
15.10
15.15
15.36
15.71
16.11
16.44
16.48
16.05
15.08
13.61
11.82
9.88
7.91
5.90
3.85
1.65
-0.69
-3.12
-5.55
-7.84
-9.89
-11.65
-13.16
-14.58
-16.16
-18.18
-20.83
-24.08
-27.63
-30.89
-33.17
-33.84
-32.52
-29.21
-24.29
-18.35
-12.03
-5.85
-0.12
4.96
9.32
12.85
15.49
17.20
18.06
18.26
18.05
17.65
17.22
16.79
16.38
15.97
15.58
15.29
15.19
15.31
15.66
16.07
16.37
16.36
15.87
14.91
13.57
12.04
10.48
8.99
7.49
5.82
3.81
1.42
-1.25
-3.98
-6.56
-8.91
-11.06
-13.15
-15.31
-17.64
-20.20
-22.94
-25.82
-28.67
-31.17
-32.87
-33.25
-31.87
-28.59
-23.64
-17.49
-10.86
-4.39
1.44
6.37
10.32
13.35
15.51
16.80
17.25
16.91
15.92
14.59
13.26
12.27
11.80
11.88
12.36
13.05
13.73
14.30
14.74
15.07
15.24
15.16
14.70
13.72
12.22
10.27
8.05
5.69
3.28
0.85
-1.56
-3.91
-6.07
-7.97
-9.63
-11.19
-12.87
-14.94
-17.56
-20.74
-24.22
-27.58
-30.20
-31.47
-30.95
-28.43
-24.08
-18.39
-12.02
-5.69
0.05
4.87
8.65
11.48
13.49
14.87
15.75
16.24
16.38
16.27
15.99
15.71
15.62
15.82
16.32
16.99
17.64
18.03
18.02
17.56
16.65
15.37
13.80
12.01
10.05
7.97
5.76
3.42
0.93
-1.70
-4.38
-7.01
-9.50
-11.79
-13.86
-15.77
-17.60
-19.50
-21.65
-24.25
-27.38
-30.86
-34.16
-36.46
-36.92
-35.01
-30.71
-24.57
-17.49
-10.34
-3.75
2.00
6.91
11.09
14.57
17.30
19.16
20.11
20.24
19.82
19.16
18.54
18.09
17.79
17.56
17.30
17.01
16.78
16.66
16.64
16.61
16.35
15.73
14.65
13.16
11.36
9.41
7.39
5.38
3.38
1.35
-0.77
-3.02
-5.39
-7.78
-10.05
-12.14
-14.09
-16.01
-18.17
-20.73
-23.71
-26.93
-29.98
-32.36
-33.51
-33.01
-30.65
-26.50
-20.94
-14.52
-7.89
-1.60
3.97
8.66
12.48
15.55
17.97
19.79
21.02
21.60
21.59
21.07
20.25
19.33
18.54
17.96
17.61
17.39
17.16
16.83
16.36
15.73
14.94
13.97
12.78
11.35
9.73
8.01
6.25
4.52
2.75
0.87
-1.20
-3.49
-5.89
-8.28
-10.46
-12.33
-13.86
-15.16
-16.46
-18.09
-20.37
-23.37
-26.89
-30.38
-33.00
-33.90
-32.51
-28.73
-23.02
-16.25
-9.34
-3.01
2.36
6.77
10.39
13.37
15.71
17.26
17.91
17.68
16.76
15.48
14.17
13.03
12.18
11.63
11.36
11.35
11.55
11.80
11.94
11.78
11.21
10.25
9.04
7.75
6.46
5.24
4.01
2.68
1.21
-0.42
-2.10
-3.76
-5.31
-6.79
-8.28
-10.01
-12.14
-14.81
-17.98
-21.44
-24.82
-27.59
-29.20
-29.20
-27.36
-23.70
-18.54
-12.43
-6.04
0.04
5.38
9.77
13.21
15.74
17.49
18.46
18.67
18.14
16.98
15.44
13.87
12.57
11.76
11.49
11.67
12.12
12.68
13.18
13.49
13.49
13.09
12.29
11.08
9.52
7.65
5.51
3.10
0.49
-2.22
-4.85
-7.23
-9.25
-10.93
-12.39
-13.77
-15.25
-16.94
-18.99
-21.49
-24.43
-27.64
-30.69
-32.92
-33.62
-32.29
-28.79
-23.49
-17.12
-10.54
-4.46
0.75
5.03
8.55
11.50
13.99
15.97
17.31
17.91
17.81
17.24
16.51
15.93
15.67
15.78
16.15
16.61
17.02
17.28
17.34
17.13
16.53
15.43
13.78
11.68
9.35
7.08
5.09
3.43
1.96
0.44
-1.31
-3.34
-5.58
-7.85
-9.99
-11.99
-13.93
-15.97
-18.26
-20.90
-23.88
-27.11
-30.25
-32.82
-34.25
-34.00
-31.79
-27.66
-22.00
-15.40
-8.52
-1.94
3.90
8.74
12.53
15.39
17.50
19.00
19.99
20.41
20.22
19.46
18.30
17.03
15.95
15.26
14.95
14.94
15.05
15.11
15.03
14.68
14.04
13.07
11.79
10.29
8.67
7.03
5.44
3.94
2.53
1.14
-0.31
-1.96
-3.86
-6.00
-8.21
-10.29
-12.09
-13.61
-15.07
-16.84
-19.26
-22.46
-26.27
-30.18
-33.48
-35.44
-35.52
-33.50
-29.55
-24.16
-17.94
-11.52
-5.37
0.23
5.11
9.17
12.27
14.30
15.22
15.18
14.49
13.56
12.79
12.41
12.48
12.88
13.41
13.80
13.82
13.28
12.20
10.89
10.01
10.40
12.71
17.01
22.64
28.34
32.72
34.75
34.16
31.34
27.07
22.15
17.09
12.12
7.32
2.78
-1.38
-5.00
-8.12
-10.95
-13.88
-17.17
-20.89
-24.70
-27.95
-29.88
-29.96
-28.03
-24.43
-19.83
-14.99
-10.49
-6.56
-3.13
0.01
3.00
5.79
8.12
9.71
10.38
10.17
9.37
8.39
7.59
7.20
7.27
7.71
8.35
8.99
9.41
9.39
8.82
7.69
6.15
4.55
3.26
2.62
2.86
3.94
5.57
7.32
8.70
9.34
9.07
7.97
6.30
4.36
2.39
0.41
-1.70
-4.12
-6.98
-10.19
-13.42
-16.13
-17.75
-17.85
-16.27
-13.11
-8.77
-3.76
1.40
6.18
10.15
13.04
14.74
15.39
15.32
14.89
14.35
13.78
12.98
11.64
9.54
6.68
3.34
-0.04
-3.05
-5.47
-7.28
-8.72
-10.07
-11.51
-13.11
-14.73
-16.20
-17.37
-18.21
-18.78
-19.22
-19.64
-20.05
-20.43
-20.71
-20.88
-21.07
-21.47
-22.30
-23.71
-25.66
-28.01
-30.57
-33.17
-35.71
-38.06
-39.96
-41.01
-40.66
-38.45
-34.14
-27.94
-20.44
-12.47
-4.79
2.07
7.96
12.92
17.09
20.52
23.13
24.84
25.60
25.54
24.90
23.94
22.91
21.93
21.08
20.38
19.87
19.61
19.56
19.64
19.63
19.34
18.64
17.50
16.05
14.44
12.78
11.09
9.28
7.20
4.75
1.97
-1.03
-4.04
-6.93
-9.61
-12.10
-14.45
-16.77
-19.15
-21.66
-24.32
-27.00
-29.42
-31.11
-31.55
-30.32
-27.25
-22.53
-16.63
-10.23
-3.91
1.89
7.00
11.40
15.06
17.93
19.89
20.87
20.87
20.14
18.97
17.75
16.71
15.96
15.48
15.20
15.05
15.01
15.00
14.94
14.69
14.13
13.21
12.02
10.66
9.22
7.74
6.15
4.38
2.40
0.24
-1.99
-4.14
-6.17
-8.11
-10.05
-12.09
-14.31
-16.80
-19.59
-22.69
-25.87
-28.75
-30.68
-31.01
-29.24
-25.29
-19.51
-12.61
-5.46
1.25
7.07
11.87
15.67
18.53
20.46
21.44
21.48
20.67
19.25
17.60
16.11
15.09
14.62
14.58
14.76
14.93
14.96
14.83
14.60
14.30
13.95
13.46
12.69
11.53
9.91
7.89
5.61
3.22
0.85
-1.48
-3.82
-6.28
-8.89
-11.62
-14.34
-17.02
-19.70
-22.59
-25.83
-29.36
-32.79
-35.39
-36.39
-35.18
-31.59
-25.96
-19.02
-11.62
-4.51
1.89
7.44
12.16
16.10
19.23
21.44
22.69
23.02
22.65
21.88
21.03
20.28
19.73
19.35
19.10
18.95
18.91
18.98
19.10
19.11
18.77
17.89
16.37
14.26
11.79
9.21
6.73
4.39
2.10
-0.28
-2.87
-5.64
-8.41
-10.97
-13.16
-15.01
-16.72
-18.61
-20.94
-23.82
-27.06
-30.25
-32.76
-33.97
-33.42
-30.91
-26.59
-20.88
-14.33
-7.55
-1.02
4.92
10.07
14.25
17.36
19.37
20.37
20.57
20.27
19.77
19.26
18.85
18.58
18.45
18.47
18.61
18.83
19.05
19.16
19.05
18.64
17.85
16.67
15.14
13.39
11.59
9.91
8.40
7.01
5.51
3.70
1.51
-1.02
-3.67
-6.20
-8.47
-10.44
-12.20
-13.92
-15.77
-17.88
-20.44
-23.53
-27.05
-30.63
-33.59
-35.13
-34.50
-31.38
-26.01
-19.16
-11.81
-4.79
1.40
6.68
11.13
14.85
17.76
19.69
20.53
20.38
19.53
18.42
17.43
16.82
16.61
16.67
16.85
16.97
16.97
16.87
16.76
16.74
16.80
16.82
16.59
15.89
14.61
12.80
10.70
8.56
6.54
4.60
2.59
0.34
-2.19
-4.88
-7.52
-9.89
-11.93
-13.70
-15.40
-17.26
-19.47
-22.19
-25.38
-28.79
-31.92
-34.08
-34.57
-32.95
-29.19
-23.73
-17.32
-10.72
-4.52
0.99
5.77
9.83
13.18
15.73
17.35
17.99
17.72
16.77
15.46
14.16
13.13
12.52
12.32
12.38
12.54
12.63
12.55
12.22
11.69
10.95
10.04
8.99
7.83
6.57
5.25
3.87
2.38
0.73
-1.15
-3.28
-5.61
-8.00
-10.29
-12.36
-14.20
-15.90
-17.62
-19.53
-21.70
-24.07
-26.42
-28.36
-29.40
-29.03
-26.91
-22.96
-17.51
-11.21
-4.79
1.09
6.08
10.11
13.29
15.70
17.38
18.24
18.23
17.45
16.15
14.68
13.35
12.35
11.75
11.52
11.63
12.04
12.67
13.38
13.97
14.22
14.01
13.32
12.23
10.86
9.31
7.64
5.88
4.05
2.17
0.20
-1.88
-4.12
-6.45
-8.76
-10.89
-12.73
-14.28
-15.65
-17.06
-18.73
-20.85
-23.44
-26.38
-29.32
-31.71
-32.97
-32.55
-30.15
-25.84
-20.06
-13.47
-6.82
-0.71
4.50
8.71
11.98
14.41
16.06
16.96
17.11
16.59
15.60
14.42
13.38
12.73
12.56
12.87
13.50
14.31
15.16
15.94
16.56
16.90
16.83
16.22
15.01
13.25
11.09
8.73
6.35
4.02
1.74
-0.59
-3.06
-5.68
-8.37
-10.93
-13.10
-14.69
-15.61
-16.04
-16.32
-16.91
-18.23
-20.49
-23.65
-27.32
-30.89
-33.59
-34.69
-33.68
-30.47
-25.35
-18.96
-12.09
-5.45
0.48
5.49
9.62
12.99
15.69
17.70
19.00
19.56
19.44
18.85
18.08
17.40
16.97
16.77
16.64
16.45
16.17
15.91
15.88
16.11
16.48
16.60
16.08
14.69
12.51
9.89
7.25
4.93
3.02
1.39
-0.18
-1.88
-3.77
-5.83
-7.92
-9.90
-11.63
-13.05
-14.22
-15.28
-16.53
-18.27
-20.71
-23.83
-27.34
-30.65
-33.07
-33.93
-32.73
-29.37
-24.07
-17.47
-10.41
-3.74
1.91
6.27
9.41
11.63
13.20
14.32
14.97
15.09
14.64
13.77
12.75
11.87
11.35
11.21
11.38
11.70
12.07
12.44
12.76
12.97
12.94
12.53
11.60
10.19
8.46
6.62
4.83
3.11
1.40
-0.47
-2.62
-5.06
-7.72
-10.37
-12.84
-15.03
-16.96
-18.87
-21.03
-23.64
-26.69
-29.79
-32.31
-33.50
-32.78
-29.96
-25.29
-19.36
-12.84
-6.31
-0.16
5.40
10.22
14.18
17.13
18.99
19.80
19.71
18.94
17.76
16.37
14.91
13.48
12.21
11.19
10.58
10.44
10.74
11.35
12.00
12.44
12.42
11.85
10.78
9.36
7.75
6.07
4.34
2.51
0.51
-1.71
-4.12
-6.68
-9.32
-11.99
-14.68
-17.35
-20.04
-22.78
-25.64
-28.66
-31.74
-34.50
-36.41
-36.80
-35.18
-31.39
-25.79
-19.05
-11.98
-5.27
0.65
5.67
9.85
13.36
16.24
18.50
20.04
20.83
20.92
20.49
19.79
19.05
18.47
18.08
17.85
17.72
17.62
17.57
17.55
17.53
17.36
16.90
16.01
14.67
12.95
11.00
8.96
6.84
4.62
2.21
-0.37
-3.05
-5.68
-8.16
-10.45
-12.64
-14.85
-17.25
-19.95
-23.06
-26.61
-30.52
-34.44
-37.78
-39.72
-39.50
-36.71
-31.44
-24.31
-16.23
-8.12
-0.64
5.90
11.44
16.00
19.58
22.11
23.53
23.88
23.38
22.37
21.24
20.30
19.67
19.36
19.29
19.39
19.66
20.13
20.71
21.19
21.22
20.54
18.99
16.74
14.14
11.57
9.34
7.49
5.82
4.08
2.05
-0.31
-2.86
-5.39
-7.72
-9.79
-11.69
-13.65
-15.94
-18.74
-22.14
-26.03
-30.09
-33.76
-36.32
-37.06
-35.48
-31.48
-25.45
-18.12
-10.42
-3.14
3.18
8.35
12.39
15.49
17.84
19.55
20.69
21.24
21.18
20.61
19.74
18.86
18.28
18.12
18.30
18.64
18.90
18.98
18.87
18.68
18.40
17.93
17.08
15.66
13.64
11.14
8.34
5.43
2.56
-0.24
-2.94
-5.49
-7.85
-9.95
-11.83
-13.56
-15.27
-17.15
-19.38
-22.10
-25.26
-28.60
-31.57
-33.42
-33.47
-31.25
-26.80
-20.63
-13.55
-6.41
0.13
5.77
10.46
14.26
17.24
19.32
20.39
20.44
19.63
18.24
16.70
15.37
14.46
14.05
14.06
14.39
14.88
15.40
15.77
15.88
15.61
14.92
13.89
12.61
11.18
9.67
8.07
6.33
4.37
2.13
-0.44
-3.26
-6.21
-9.13
-11.88
-14.43
-16.87
-19.36
-22.07
-25.14
-28.51
-31.99
-35.19
-37.49
-38.27
-36.96
-33.32
-27.57
-20.38
-12.66
-5.28
1.16
6.49
10.83
14.42
17.40
19.74
21.30
21.96
21.80
21.02
20.02
19.12
18.54
18.34
18.46
18.80
19.28
19.83
20.36
20.75
20.84
20.44
19.41
17.73
15.52
13.05
10.62
8.45
6.59
4.89
3.09
0.98
-1.52
-4.32
-7.21
-10.00
-12.58
-14.97
-17.30
-19.75
-22.46
-25.54
-28.96
-32.47
-35.58
-37.62
-37.87
-35.86
-31.49
-25.11
-17.43
-9.26
-1.35
5.74
11.67
16.27
19.48
21.38
22.11
21.92
21.12
19.97
18.69
17.46
16.36
15.48
14.91
14.67
14.74
15.06
15.52
15.97
16.30
16.38
16.12
15.47
14.42
12.98
11.22
9.23
7.06
4.78
2.39
-0.10
-2.65
-5.21
-7.61
-9.77
-11.64
-13.27
-14.84
-16.57
-18.68
-21.27
-24.31
-27.52
-30.43
-32.40
-32.81
-31.16
-27.39
-21.83
-15.16
-8.27
-1.91
3.42
7.59
10.72
13.06
14.78
15.94
16.51
16.48
15.95
15.14
14.37
13.85
13.71
13.87
14.17
14.47
14.76
15.10
15.56
16.07
16.40
16.21
15.27
13.54
11.26
8.83
6.57
4.63
2.91
1.21
-0.66
-2.75
-4.98
-7.16
-9.22
-11.18
-13.19
-15.37
-17.81
-20.48
-23.25
-25.88
-28.04
-29.36
-29.44
-27.99
-24.92
-20.34
-14.62
-8.28
-1.88
4.03
9.05
12.94
15.58
17.03
17.45
17.10
16.25
15.18
14.09
13.15
12.45
12.05
11.95
12.13
12.48
12.84
13.02
12.83
12.17
11.05
9.63
8.09
6.63
5.26
3.97
2.62
1.11
-0.53
-2.27
-4.05
-5.85
-7.73
-9.78
-12.07
-14.62
-17.47
-20.62
-24.01
-27.51
-30.79
-33.29
-34.36
-33.46
-30.31
-25.15
-18.59
-11.49
-4.68
1.28
6.13
9.93
12.88
15.17
16.88
17.99
18.47
18.33
17.69
16.73
15.66
14.66
13.86
13.29
13.01
13.00
13.26
13.69
14.09
14.21
13.81
12.82
11.29
9.43
7.53
5.77
4.24
2.81
1.29
-0.52
-2.70
-5.21
-7.85
-10.38
-12.61
-14.46
-16.03
-17.56
-19.36
-21.61
-24.36
-27.36
-30.12
-31.96
-32.24
-30.52
-26.73
-21.23
-14.66
-7.83
-1.41
4.12
8.54
11.82
14.07
15.43
16.06
16.11
15.77
15.23
14.68
14.28
14.15
14.29
14.60
14.95
15.20
15.30
15.26
15.14
14.96
14.69
14.21
13.43
12.29
10.85
9.22
7.49
5.69
3.80
1.78
-0.34
-2.49
-4.59
-6.55
-8.37
-10.11
-11.83
-13.59
-15.44
-17.49
-19.85
-22.60
-25.62
-28.58
-30.88
-31.85
-30.98
-28.10
-23.49
-17.75
-11.59
-5.61
-0.17
4.60
8.72
12.21
15.00
16.94
17.94
18.03
17.44
16.50
15.59
14.95
14.64
14.57
14.61
14.70
14.83
15.05
15.34
15.56
15.52
15.01
13.94
12.40
10.56
8.62
6.73
4.89
3.07
1.19
-0.79
-2.86
-5.04
-7.31
-9.61
-11.84
-13.82
-15.47
-16.78
-17.95
-19.25
-20.99
-23.24
-25.79
-28.14
-29.63
-29.68
-27.92
-24.38
-19.42
-13.59
-7.50
-1.67
3.58
8.08
11.82
14.74
16.78
17.83
17.88
17.08
15.80
14.46
13.50
13.07
13.06
13.19
13.12
12.73
12.08
11.39
10.80
10.33
9.80
9.01
7.88
6.47
4.92
3.37
1.86
0.28
-1.50
-3.53
-5.69
-7.75
-9.53
-10.94
-12.10
-13.30
-14.88
-17.07
-19.99
-23.56
-27.47
-31.28
-34.36
-36.07
-35.87
-33.50
-29.02
-22.95
-15.99
-8.87
-2.21
3.68
8.70
12.86
16.21
18.74
20.41
21.18
21.13
20.41
19.26
17.95
16.70
15.68
14.95
14.53
14.39
14.47
14.73
15.07
15.35
15.32
14.79
13.63
11.86
9.67
7.36
5.20
3.39
1.92
0.62
-0.76
-2.43
-4.48
-6.80
-9.18
-11.39
-13.28
-14.87
-16.33
-17.94
-19.95
-22.56
-25.74
-29.26
-32.63
-35.21
-36.31
-35.36
-32.14
-26.86
-20.08
-12.60
-5.21
1.50
7.21
11.82
15.39
17.95
19.53
20.17
19.98
19.15
17.98
16.80
15.89
15.44
15.46
15.84
16.40
16.94
17.31
17.48
17.46
17.34
17.11
16.67
15.86
14.54
12.68
10.44
8.10
5.91
4.01
2.35
0.75
-0.96
-2.84
-4.88
-6.95
-8.95
-10.83
-12.59
-14.27
-15.97
-17.81
-19.97
-22.60
-25.78
-29.40
-33.05
-36.09
-37.77
-37.48
-34.93
-30.24
-23.97
-16.88
-9.69
-2.97
3.02
8.24
12.71
16.43
19.34
21.34
22.37
22.49
21.90
20.89
19.83
18.99
18.57
18.58
18.93
19.45
20.03
20.55
20.96
21.16
21.01
20.33
19.01
17.05
14.63
12.04
9.59
7.44
5.63
4.06
2.53
0.88
-1.01
-3.15
-5.44
-7.72
-9.81
-11.58
-13.03
-14.26
-15.45
-16.83
-18.55
-20.75
-23.50
-26.76
-30.29
-33.62
-36.02
-36.73
-35.19
-31.30
-25.45
-18.41
-11.05
-4.08
2.06
7.22
11.41
14.67
17.03
18.51
19.17
19.15
18.66
17.95
17.26
16.76
16.53
16.54
16.70
16.93
17.18
17.47
17.84
18.21
18.46
18.31
17.54
16.02
13.89
11.41
8.99
6.92
5.30
4.04
2.90
1.65
0.13
-1.68
-3.68
-5.78
-7.90
-9.99
-12.02
-13.98
-15.83
-17.68
-19.70
-22.12
-25.11
-28.62
-32.24
-35.24
-36.82
-36.29
-33.40
-28.39
-21.87
-14.60
-7.29
-0.46
5.64
10.85
15.09
18.27
20.36
21.35
21.42
20.80
19.83
18.88
18.16
17.80
17.78
17.95
18.18
18.37
18.49
18.54
18.56
18.48
18.19
17.52
16.35
14.67
12.58
10.32
8.14
6.21
4.53
2.95
1.19
-0.99
-3.68
-6.77
-9.95
-12.90
-15.37
-17.35
-19.01
-20.68
-22.67
-25.19
-28.26
-31.70
-35.10
-37.91
-39.51
-39.31
-36.97
-32.52
-26.33
-19.11
-11.60
-4.44
1.95
7.42
11.98
15.70
18.62
20.65
21.76
21.89
21.19
19.90
18.38
17.02
16.12
15.84
16.18
17.03
18.15
19.30
20.23
20.78
20.88
20.52
19.76
18.64
17.22
15.51
13.56
11.46
9.36
7.35
5.47
3.63
1.71
-0.44
-2.87
-5.48
-8.07
-10.47
-12.54
-14.31
-15.94
-17.61
-19.49
-21.68
-24.25
-27.22
-30.58
-34.13
-37.41
-39.68
-40.11
-38.11
-33.59
-27.04
-19.38
-11.62
-4.52
1.58
6.64
10.81
14.19
16.80
18.59
19.59
19.98
20.00
19.92
19.89
19.95
20.02
19.99
19.78
19.43
19.07
18.83
18.83
19.01
19.24
19.29
18.97
18.19
16.96
15.38
13.56
11.57
9.47
7.30
5.14
3.08
1.15
-0.69
-2.57
-4.63
-6.95
-9.48
-12.06
-14.48
-16.56
-18.26
-19.71
-21.13
-22.79
-24.92
-27.62
-30.74
-33.82
-36.13
-36.86
-35.39
-31.58
-25.77
-18.70
-11.28
-4.21
2.04
7.31
11.59
14.92
17.34
18.90
19.68
19.83
19.51
18.91
18.20
17.55
17.15
17.10
17.43
18.06
18.81
19.52
20.06
20.40
20.52
20.43
20.09
19.42
18.34
16.85
14.99
12.86
10.58
8.19
5.75
3.31
0.96
-1.18
-3.03
-4.63
-6.08
-7.50
-9.00
-10.55
-12.11
-13.66
-15.21
-16.88
-18.78
-21.03
-23.66
-26.66
-29.85
-32.94
-35.45
-36.74
-36.19
-33.46
-28.59
-22.11
-14.82
-7.55
-0.91
4.78
9.48
13.23
16.11
18.06
19.02
19.04
18.24
16.93
15.44
14.12
13.13
12.56
12.36
12.45
12.76
13.27
13.98
14.87
15.84
16.69
17.21
17.16
16.43
15.03
13.09
10.83
8.47
6.14
3.89
1.70
-0.50
-2.71
-4.89
-7.00
-9.00
-10.89
-12.69
-14.46
-16.23
-18.05
-20.02
-22.24
-24.83
-27.76
-30.80
-33.43
-35.00
-34.86
-32.62
-28.28
-22.28
-15.36
-8.27
-1.65
4.13
8.96
12.83
15.83
17.94
19.16
19.55
19.26
18.56
17.72
16.93
16.28
15.75
15.27
14.84
14.53
14.41
14.50
14.69
14.81
14.69
14.18
13.22
11.83
10.09
8.10
6.03
4.06
2.33
0.88
-0.43
-1.82
-3.50
-5.52
-7.78
-10.03
-12.04
-13.74
-15.27
-16.85
-18.73
-21.10
-24.02
-27.40
-30.98
-34.31
-36.78
-37.69
-36.51
-33.01
-27.43
-20.43
-12.86
-5.52
1.03
6.53
10.92
14.24
16.53
17.85
18.28
18.09
17.55
16.97
16.53
16.32
16.29
16.40
16.61
16.93
17.35
17.79
18.11
18.14
17.78
16.97
15.78
14.28
12.57
10.71
8.76
6.73
4.62
2.45
0.23
-2.00
-4.17
-6.25
-8.22
-10.11
-11.94
-13.72
-15.48
-17.27
-19.20
-21.49
-24.38
-27.94
-31.95
-35.82
-38.66
-39.61
-38.06
-33.93
-27.72
-20.32
-12.75
-5.75
0.30
5.45
9.89
13.76
16.99
19.41
20.84
21.30
21.06
20.51
19.95
19.50
19.05
18.41
17.53
16.55
15.77
15.41
15.51
15.83
15.94
15.44
14.15
12.20
9.91
7.68
5.78
4.21
2.83
1.36
-0.39
-2.47
-4.75
-7.03
-9.14
-11.03
-12.79
-14.56
-16.51
-18.76
-21.38
-24.38
-27.58
-30.65
-33.00
-33.97
-32.94
-29.64
-24.27
-17.46
-10.12
-3.13
2.88
7.66
11.25
13.89
15.78
17.05
17.73
17.79
17.24
16.23
15.03
13.92
13.14
12.75
12.65
12.66
12.63
12.50
12.31
12.15
12.03
11.81
11.30
10.29
8.67
6.51
3.99
1.42
-0.99
-3.13
-5.07
-7.00
-9.11
-11.46
-14.00
-16.63
-19.23
-21.80
-24.36
-26.86
-28.99
-30.22
-29.91
-27.58
-23.21
-17.26
-10.51
-3.82
2.22
7.36
11.61
15.07
17.69
19.35
19.86
19.22
17.68
15.73
13.91
12.61
11.97
11.84
11.95
12.02
11.96
11.79
11.60
11.47
11.31
10.95
10.19
8.87
6.97
4.59
1.94
-0.78
-3.38
-5.79
-8.05
-10.26
-12.55
-15.08
-17.91
-21.09
-24.63
-28.39
-32.11
-35.31
-37.32
-37.49
-35.36
-30.90
-24.55
-17.08
-9.38
-2.18
4.09
9.28
13.45
16.67
19.04
20.58
21.32
21.37
20.88
20.12
19.36
18.79
18.44
18.23
17.94
17.45
16.78
16.05
15.46
15.03
14.62
14.00
12.92
11.35
9.35
7.12
4.74
2.23
-0.41
-3.16
-5.88
-8.35
-10.50
-12.44
-14.48
-17.03
-20.30
-24.19
-28.23
-31.67
-33.75
-33.83
-31.65
-27.31
-21.26
-14.20
-6.84
0.18
6.40
11.57
15.67
18.72
20.84
22.08
22.49
22.14
21.19
19.90
18.57
17.51
16.88
16.69
16.79
16.98
17.05
16.89
16.49
15.90
15.19
14.37
13.46
12.35
10.94
9.10
6.76
4.00
1.02
-1.90
-4.53
-6.75
-8.68
-10.51
-12.50
-14.84
-17.65
-20.86
-24.30
-27.62
-30.28
-31.62
-31.07
-28.29
-23.46
-17.14
-10.18
-3.47
2.42
7.25
11.11
14.19
16.69
18.62
19.87
20.31
19.95
18.97
17.69
16.46
15.49
14.87
14.50
14.26
14.05
13.88
13.78
13.80
13.82
13.66
13.08
11.88
10.00
7.57
4.84
2.13
-0.35
-2.55
-4.56
-6.60
-8.86
-11.48
-14.46
-17.74
-21.18
-24.48
-27.25
-28.98
-29.17
-27.49
-23.90
-18.73
-12.54
-6.01
0.25
5.82
10.51
14.33
17.29
19.43
20.68
20.98
20.28
18.75
16.74
14.71
13.13
12.21
11.95
12.08
12.28
12.26
11.96
11.44
10.86
10.31
9.73
8.93
7.69
5.88
3.53
0.87
-1.82
-4.29
-6.51
-8.62
-10.86
-13.44
-16.45
-19.81
-23.39
-27.05
-30.58
-33.65
-35.74
-36.21
-34.49
-30.37
-24.11
-16.47
-8.46
-0.93
5.55
10.81
14.93
18.07
20.31
21.67
22.19
21.97
21.23
20.29
19.41
18.74
18.31
18.03
17.84
17.69
17.58
17.51
17.37
16.96
16.08
14.60
12.53
10.04
7.40
4.80
2.39
0.16
-1.91
-3.91
-5.86
-7.80
-9.72
-11.63
-13.61
-15.73
-18.17
-21.03
-24.31
-27.77
-30.94
-33.20
-33.90
-32.61
-29.20
-23.94
-17.38
-10.22
-3.13
3.38
9.04
13.78
17.65
20.72
23.02
24.50
25.13
24.91
23.96
22.53
20.90
19.34
18.04
17.05
16.40
16.04
15.98
16.15
16.39
16.50
16.24
15.46
14.13
12.36
10.35
8.21
5.98
3.56
0.90
-1.98
-4.94
-7.76
-10.27
-12.37
-14.17
-15.86
-17.72
-19.96
-22.66
-25.70
-28.75
-31.29
-32.72
-32.53
-30.43
-26.42
-20.88
-14.39
-7.62
-1.16
4.59
9.44
13.36
16.42
18.64
20.01
20.50
20.14
19.07
17.56
15.97
14.63
13.72
13.27
13.17
13.25
13.38
13.50
13.53
13.37
12.90
12.00
10.65
8.99
7.24
5.62
4.27
3.13
2.03
0.77
-0.78
-2.62
-4.60
-6.52
-8.26
-9.77
-11.20
-12.73
-14.56
-16.84
-19.62
-22.74
-25.84
-28.41
-29.84
-29.61
-27.46
-23.46
-17.98
-11.61
-4.94
1.42
7.02
11.54
14.81
16.79
17.66
17.69
17.17
16.40
15.53
14.68
13.89
13.21
12.70
12.43
12.44
12.68
13.08
13.48
13.72
13.67
13.22
12.34
11.07
9.49
7.66
5.72
3.76
1.87
0.05
-1.75
-3.58
-5.50
-7.53
-9.63
-11.69
-13.63
-15.38
-16.98
-18.57
-20.36
-22.59
-25.36
-28.55
-31.71
-34.16
-35.10
-33.97
-30.60
-25.35
-18.95
-12.25
-5.96
-0.42
4.28
8.27
11.66
14.46
16.56
17.88
18.39
18.22
17.64
16.93
16.31
15.88
15.63
15.45
15.28
15.13
15.04
15.08
15.17
15.18
14.89
14.10
12.77
10.94
8.78
6.54
4.44
2.66
1.27
0.22
-0.69
-1.67
-2.91
-4.51
-6.45
-8.59
-10.78
-12.85
-14.79
-16.61
-18.42
-20.38
-22.65
-25.34
-28.39
-31.43
-33.83
-34.84
-33.85
-30.65
-25.56
-19.27
-12.63
-6.31
-0.66
4.27
8.52
12.09
14.90
16.81
17.83
18.11
17.95
17.65
17.39
17.19
16.98
16.67
16.23
15.77
15.38
15.15
15.12
15.23
15.35
15.39
15.24
14.82
14.07
12.91
11.30
9.28
6.97
4.57
2.29
0.20
-1.70
-3.54
-5.46
-7.46
-9.43
-11.15
-12.48
-13.47
-14.38
-15.58
-17.43
-20.05
-23.32
-26.87
-30.18
-32.68
-33.91
-33.56
-31.52
-27.87
-22.89
-17.03
-10.78
-4.64
1.00
5.89
9.89
12.99
15.18
16.53
17.09
16.97
16.35
15.49
14.64
14.03
13.76
13.83
14.16
14.58
14.94
15.10
15.01
14.68
14.15
13.44
12.55
11.50
10.26
8.88
7.43
6.01
4.62
3.22
1.70
-0.01
-1.91
-3.90
-5.82
-7.56
-9.14
-10.66
-12.28
-14.13
-16.29
-18.77
-21.57
-24.63
-27.78
-30.77
-33.13
-34.34
-33.91
-31.57
-27.37
-21.66
-15.06
-8.21
-1.71
4.04
8.80
12.52
15.23
17.01
17.97
18.16
17.69
16.65
15.25
13.75
12.46
11.61
11.29
11.45
11.90
12.43
12.91
13.25
13.38
13.23
12.65
11.56
9.91
7.76
5.28
2.67
0.13
-2.25
-4.46
-6.53
-8.56
-10.58
-12.57
-14.47
-16.19
-17.71
-19.12
-20.60
-22.37
-24.64
-27.42
-30.53
-33.48
-35.67
-36.44
-35.37
-32.31
-27.51
-21.48
-14.88
-8.28
-2.09
3.46
8.28
12.32
15.57
17.98
19.55
20.35
20.50
20.21
19.72
19.18
18.72
18.35
18.03
17.75
17.55
17.46
17.52
17.70
17.84
17.70
17.04
15.68
13.63
11.07
8.29
5.65
3.35
1.43
-0.29
-2.07
-4.15
-6.54
-9.08
-11.50
-13.55
-15.20
-16.62
-18.11
-19.97
-22.39
-25.34
-28.64
-31.97
-34.83
-36.66
-36.85
-34.96
-30.84
-24.77
-17.43
-9.64
-2.24
4.24
9.56
13.75
17.00
19.46
21.22
22.32
22.77
22.60
21.98
21.08
20.10
19.15
18.28
17.55
16.97
16.62
16.53
16.66
16.86
16.85
16.38
15.24
13.43
11.15
8.69
6.36
4.36
2.80
1.57
0.50
-0.68
-2.20
-4.17
-6.53
-9.07
-11.45
-13.45
-14.99
-16.21
-17.43
-18.98
-21.17
-24.09
-27.61
-31.36
-34.74
-37.00
-37.43
-35.56
-31.33
-25.14
-17.79
-10.16
-2.99
3.34
8.73
13.26
17.01
19.92
21.88
22.79
22.76
22.08
21.14
20.28
19.65
19.23
18.90
18.57
18.24
18.01
17.98
18.11
18.27
18.24
17.78
16.79
15.28
13.34
11.16
8.91
6.82
5.05
3.64
2.44
1.17
-0.48
-2.69
-5.41
-8.36
-11.14
-13.45
-15.17
-16.45
-17.60
-18.96
-20.85
-23.39
-26.52
-29.88
-32.90
-34.86
-35.11
-33.29
-29.40
-23.83
-17.18
-10.08
-3.07
3.40
9.01
13.49
16.67
18.55
19.30
19.22
18.65
17.86
17.00
16.16
15.34
14.62
14.06
13.66
13.41
13.26
13.13
13.01
12.89
12.78
12.63
12.35
11.79
10.85
9.51
7.79
5.78
3.52
0.99
-1.79
-4.72
-7.62
-10.25
-12.44
-14.22
-15.81
-17.55
-19.77
-22.65
-26.06
-29.60
-32.64
-34.46
-34.45
-32.25
-27.93
-21.91
-14.91
-7.71
-0.97
4.90
9.76
13.66
16.69
18.90
20.33
21.00
21.03
20.59
19.93
19.28
18.81
18.54
18.45
18.45
18.49
18.61
18.80
19.01
19.09
18.81
17.96
16.46
14.37
11.94
9.42
6.99
4.72
2.53
0.33
-1.96
-4.33
-6.70
-8.94
-11.00
-12.94
-14.89
-17.03
-19.53
-22.48
-25.87
-29.59
-33.30
-36.43
-38.28
-38.11
-35.50
-30.45
-23.52
-15.66
-7.88
-0.96
4.77
9.36
13.05
16.07
18.49
20.25
21.26
21.53
21.26
20.76
20.34
20.19
20.32
20.56
20.76
20.82
20.76
20.69
20.66
20.62
20.34
19.61
18.24
16.23
13.73
11.04
8.41
6.00
3.82
1.72
-0.45
-2.76
-5.19
-7.59
-9.79
-11.70
-13.36
-14.90
-16.57
-18.60
-21.15
-24.26
-27.70
-31.07
-33.73
-35.03
-34.40
-31.58
-26.70
-20.29
-13.14
-6.01
0.42
5.81
10.07
13.31
15.70
17.41
18.55
19.17
19.33
19.15
18.83
18.58
18.55
18.79
19.23
19.72
20.11
20.37
20.50
20.52
20.40
19.98
19.11
17.62
15.55
13.07
10.43
7.85
5.40
3.00
0.50
-2.17
-4.96
-7.68
-10.05
-11.90
-13.18
-14.06
-14.82
-15.77
-17.21
-19.30
-22.04
-25.22
-28.36
-30.82
-31.88
-31.03
-28.17
-23.59
-17.91
-11.84
-5.94
-0.59
4.10
8.08
11.27
13.57
14.89
15.23
14.76
13.75
12.59
11.59
10.99
10.86
11.16
11.71
12.33
12.87
13.22
13.30
13.07
12.54
11.68
10.53
9.11
7.46
5.63
3.68
1.66
-0.32
-2.16
-3.80
-5.28
-6.74
-8.34
-10.24
-12.49
-15.06
-17.92
-20.95
-24.03
-26.86
-28.94
-29.69
-28.56
-25.34
-20.29
-14.10
-7.68
-1.78
3.20
7.25
10.57
13.36
15.65
17.28
18.06
17.93
17.04
15.76
14.46
13.41
12.71
12.30
12.11
12.08
12.21
12.48
12.81
13.02
12.87
12.15
10.79
8.89
6.63
4.22
1.81
-0.53
-2.78
-4.97
-7.12
-9.24
-11.35
-13.45
-15.58
-17.83
-20.30
-23.07
-26.14
-29.25
-31.93
-33.53
-33.39
-31.07
-26.58
-20.45
-13.53
-6.71
-0.64
4.42
8.59
12.09
15.05
17.43
19.05
19.78
19.71
19.10
18.29
17.58
17.13
16.95
17.00
17.21
17.54
17.92
18.23
18.30
17.95
17.10
15.76
14.01
11.94
9.57
6.91
3.93
0.72
-2.50
-5.43
-7.78
-9.48
-10.66
-11.70
-13.04
-15.03
-17.78
-21.15
-24.84
-28.36
-31.25
-33.02
-33.23
-31.56
-27.97
-22.72
-16.39
-9.69
-3.30
2.34
7.05
10.87
13.91
16.24
17.84
18.65
18.66
17.99
16.90
15.72
14.76
14.17
14.00
14.14
14.47
14.86
15.25
15.58
15.77
15.74
15.40
14.70
13.64
12.30
10.74
9.01
7.12
5.02
2.67
0.01
-2.91
-6.00
-9.10
-12.00
-14.56
-16.73
-18.67
-20.60
-22.79
-25.41
-28.34
-31.21
-33.37
-34.15
-32.99
-29.72
-24.60
-18.25
-11.50
-5.09
0.50
5.11
8.80
11.72
13.96
15.52
16.38
16.58
16.31
15.84
15.40
15.14
15.06
15.08
15.11
15.12
15.10
15.07
15.01
14.85
14.53
14.01
13.25
12.24
10.93
9.28
7.23
4.79
2.07
-0.79
-3.56
-6.11
-8.35
-10.33
-12.17
-14.02
-16.01
-18.18
-20.58
-23.16
-25.79
-28.21
-29.97
-30.50
-29.32
-26.18
-21.25
-15.06
-8.40
-2.01
3.61
8.30
12.10
15.11
17.40
18.92
19.58
19.36
18.41
17.00
15.49
14.21
13.33
12.90
12.79
12.77
12.64
12.24
11.54
10.59
9.48
8.28
7.00
5.66
4.24
2.77
1.23
-0.37
-2.07
-3.92
-5.90
-8.00
-10.11
-12.22
-14.34
-16.60
-19.18
-22.20
-25.64
-29.31
-32.76
-35.40
-36.62
-35.88
-33.03
-28.25
-22.08
-15.23
-8.34
-1.93
3.77
8.63
12.60
15.68
17.83
19.13
19.72
19.77
19.45
18.92
18.28
17.61
16.99
16.47
16.16
16.10
16.24
16.47
16.55
16.25
15.41
14.03
12.26
10.34
8.46
6.70
4.99
3.19
1.19
-1.03
-3.39
-5.77
-8.06
-10.21
-12.24
-14.28
-16.45
-18.91
-21.78
-25.03
-28.47
-31.71
-34.17
-35.21
-34.34
-31.33
-26.34
-19.89
-12.72
-5.56
1.03
6.73
11.48
15.34
18.37
20.58
21.87
22.23
21.76
20.70
19.39
18.14
17.18
16.55
16.22
16.09
16.09
16.17
16.28
16.34
16.20
15.71
14.71
13.20
11.26
9.08
6.86
4.69
2.59
0.45
-1.81
-4.23
-6.71
-9.08
-11.13
-12.74
-13.98
-15.06
-16.30
-18.04
-20.47
-23.51
-26.79
-29.71
-31.58
-31.86
-30.24
-26.79
-21.82
-15.81
-9.27
-2.72
3.43
8.91
13.54
17.30
20.19
22.21
23.31
23.43
22.61
21.06
19.17
17.39
16.07
15.36
15.21
15.44
15.85
16.30
16.65
16.79
16.62
16.09
15.16
13.90
12.40
10.73
8.92
6.93
4.71
2.25
-0.41
-3.18
-5.96
-8.65
-11.15
-13.43
-15.49
-17.43
-19.43
-21.77
-24.63
-28.00
-31.49
-34.37
-35.76
-34.97
-31.75
-26.41
-19.70
-12.44
-5.32
1.20
6.91
11.66
15.31
17.71
18.87
18.93
18.26
17.28
16.38
15.79
15.57
15.62
15.78
15.95
16.06
16.12
16.16
16.14
16.00
15.61
14.86
13.71
12.20
10.46
8.67
6.90
5.19
3.44
1.52
-0.69
-3.19
-5.87
-8.53
-10.99
-13.22
-15.33
-17.58
-20.24
-23.47
-27.27
-31.30
-35.04
-37.77
-38.80
-37.62
-34.08
-28.48
-21.45
-13.80
-6.30
0.54
6.42
11.33
15.31
18.42
20.69
22.14
22.79
22.76
22.24
21.46
20.62
19.83
19.14
18.51
17.94
17.45
17.15
17.14
17.43
17.82
17.95
17.43
16.00
13.72
10.89
8.03
5.60
3.81
2.53
1.40
-0.01
-1.97
-4.45
-7.21
-9.87
-12.18
-14.08
-15.76
-17.54
-19.70
-22.43
-25.72
-29.38
-33.03
-36.14
-38.09
-38.26
-36.23
-31.92
-25.71
-18.35
-10.72
-3.62
2.47
7.45
11.45
14.74
17.46
19.61
21.09
21.85
21.92
21.50
20.85
20.26
19.86
19.70
19.70
19.79
19.92
20.09
20.28
20.39
20.26
19.65
18.42
16.52
14.14
11.58
9.18
7.18
5.60
4.23
2.76
0.89
-1.49
-4.25
-7.13
-9.87
-12.31
-14.45
-16.37
-18.20
-20.07
-22.13
-24.55
-27.49
-30.92
-34.53
-37.63
-39.28
-38.65
-35.35
-29.62
-22.29
-14.41
-6.89
-0.26
5.34
10.02
13.91
16.98
19.15
20.35
20.64
20.26
19.57
18.87
18.39
18.18
18.20
18.37
18.55
18.74
18.94
19.22
19.58
19.94
20.09
19.80
18.88
17.28
15.14
12.74
10.42
8.39
6.67
5.08
3.37
1.35
-1.05
-3.69
-6.33
-8.78
-10.96
-12.94
-14.86
-16.86
-19.03
-21.42
-24.05
-26.95
-30.03
-33.07
-35.58
-36.92
-36.46
-33.83
-29.12
-22.85
-15.78
-8.68
-2.06
3.80
8.84
13.04
16.37
18.76
20.21
20.80
20.69
20.08
19.14
18.03
16.91
15.91
15.13
14.65
14.41
14.37
14.39
14.37
14.19
13.73
12.91
11.69
10.12
8.29
6.35
4.35
2.32
0.24
-1.90
-4.04
-6.10
-7.97
-9.61
-11.04
-12.32
-13.54
-14.84
-16.42
-18.45
-21.08
-24.23
-27.60
-30.57
-32.42
-32.46
-30.30
-26.01
-20.10
-13.35
-6.56
-0.33
5.01
9.42
13.00
15.80
17.82
18.96
19.20
18.64
17.53
16.21
14.92
13.83
12.94
12.24
11.77
11.61
11.88
12.58
13.55
14.45
14.87
14.52
13.30
11.34
8.95
6.46
4.11
2.01
0.09
-1.80
-3.81
-6.01
-8.31
-10.54
-12.53
-14.19
-15.61
-17.04
-18.82
-21.25
-24.41
-28.14
-31.95
-35.18
-37.11
-37.19
-35.15
-31.08
-25.35
-18.53
-11.29
-4.28
1.98
7.15
11.16
14.13
16.25
17.72
18.64
19.00
18.76
18.01
16.97
15.96
15.24
14.96
15.09
15.53
16.11
16.71
17.19
17.43
17.24
16.51
15.14
13.23
10.99
8.67
6.48
4.53
2.77
1.08
-0.66
-2.58
-4.68
-6.89
-9.12
-11.30
-13.40
-15.50
-17.69
-20.09
-22.84
-25.98
-29.34
-32.52
-34.96
-35.97
-35.06
-32.04
-27.15
-21.00
-14.33
-7.80
-1.84
3.38
7.85
11.56
14.49
16.57
17.76
18.11
17.79
17.00
16.05
15.14
14.38
13.79
13.33
12.92
12.56
12.24
12.04
11.99
12.07
12.15
12.07
11.67
10.85
9.67
8.25
6.76
5.27
3.75
2.08
0.08
-2.27
-4.84
-7.35
-9.50
-11.14
-12.38
-13.60
-15.21
-17.51
-20.56
-24.19
-28.05
-31.71
-34.71
-36.52
-36.64
-34.67
-30.53
-24.52
-17.33
-9.83
-2.81
3.24
8.15
11.99
14.97
17.18
18.64
19.32
19.17
18.31
16.96
15.43
14.12
13.32
13.12
13.44
14.04
14.65
15.07
15.20
15.07
14.75
14.26
13.59
12.66
11.35
9.59
7.37
4.80
2.06
-0.62
-3.11
-5.38
-7.55
-9.81
-12.32
-15.13
-18.14
-21.21
-24.18
-26.93
-29.25
-30.78
-31.02
-29.49
-25.93
-20.50
-13.77
-6.61
0.18
6.03
10.72
14.31
16.95
18.70
19.54
19.44
18.47
16.90
15.14
13.64
12.76
12.61
13.05
13.74
14.33
14.55
14.32
13.70
12.82
11.77
10.57
9.12
7.33
5.12
2.56
-0.18
-2.86
-5.31
-7.48
-9.45
-11.37
-13.40
-15.61
-18.04
-20.72
-23.69
-26.98
-30.39
-33.48
-35.55
-35.81
-33.75
-29.34
-23.09
-15.86
-8.59
-1.98
3.67
8.40
12.39
15.80
18.61
20.68
21.87
22.16
21.73
20.92
20.09
19.50
19.27
19.34
19.53
19.65
19.53
19.08
18.28
17.17
15.86
14.39
12.80
11.04
9.07
6.84
4.39
1.86
-0.63
-2.98
-5.22
-7.41
-9.71
-12.22
-15.03
-18.20
-21.73
-25.56
-29.46
-33.04
-35.74
-36.96
-36.20
-33.31
-28.43
-22.06
-14.87
-7.53
-0.57
5.67
11.13
15.78
19.67
22.75
24.92
26.01
26.02
25.05
23.45
21.68
20.18
19.25
18.92
19.08
19.43
19.78
20.02
20.08
19.99
19.63
18.87
17.51
15.45
12.74
9.58
6.23
2.94
-0.17
-3.10
-5.92
-8.66
-11.31
-13.86
-16.29
-18.69
-21.21
-23.98
-27.02
-30.18
-33.07
-35.12
-35.75
-34.51
-31.20
-26.01
-19.44
-12.21
-5.03
1.54
7.23
12.00
15.96
19.19
21.71
23.47
24.48
24.81
24.67
24.25
23.80
23.41
23.11
22.87
22.62
22.29
21.83
21.22
20.40
19.37
18.14
16.70
15.04
13.13
10.92
8.38
5.51
2.40
-0.84
-4.04
-7.05
-9.74
-12.07
-14.03
-15.73
-17.36
-19.16
-21.33
-23.97
-26.93
-29.79
-31.93
-32.71
-31.60
-28.47
-23.55
-17.40
-10.68
-4.03
2.15
7.60
12.24
16.04
18.99
21.01
22.03
22.02
21.02
19.24
17.03
14.84
13.07
12.01
11.73
12.04
12.59
13.08
13.29
13.20
12.85
12.35
11.67
10.75
9.48
7.79
5.71
3.33
0.76
-1.91
-4.64
-7.36
-9.98
-12.43
-14.67
-16.76
-18.86
-21.15
-23.72
-26.47
-29.14
-31.23
-32.19
-31.55
-29.07
-24.81
-19.18
-12.77
-6.27
-0.24
5.03
9.45
13.08
15.96
17.99
19.01
18.91
17.74
15.86
13.81
12.15
11.21
11.01
11.24
11.51
11.56
11.34
10.98
10.68
10.54
10.50
10.38
9.96
9.03
7.44
5.10
2.02
-1.67
-5.73
-9.81
-13.59
-16.84
-19.58
-22.00
-24.46
-27.25
-30.52
-34.13
-37.61
-40.34
-41.67
-41.11
-38.40
-33.63
-27.15
-19.52
-11.41
-3.51
3.60
9.53
14.12
17.43
19.70
21.16
21.99
22.27
22.07
21.52
20.80
20.15
19.77
19.70
19.84
20.01
19.98
19.66
19.01
18.14
17.18
16.21
15.25
14.19
12.85
11.12
8.94
6.42
3.73
1.04
-1.53
-4.02
-6.50
-9.02
-11.57
-14.08
-16.52
-18.98
-21.64
-24.63
-27.84
-30.83
-32.89
-33.24
-31.36
-27.15
-21.01
-13.73
-6.16
0.95
7.19
12.39
16.57
19.81
22.15
23.60
24.22
24.15
23.58
22.77
21.92
21.11
20.35
19.62
18.93
18.39
18.14
18.24
18.62
19.04
19.16
18.70
17.57
15.85
13.78
11.62
9.52
7.47
5.38
3.12
0.64
-2.04
-4.80
-7.47
-9.89
-11.99
-13.86
-15.65
-17.63
-20.04
-23.05
-26.61
-30.42
-33.92
-36.39
-37.18
-35.86
-32.40
-27.17
-20.77
-13.89
-7.08
-0.70
5.06
10.09
14.31
17.58
19.81
20.99
21.27
20.88
20.11
19.25
18.41
17.65
16.89
16.13
15.42
14.85
14.58
14.59
14.76
14.79
14.42
13.50
12.03
10.22
8.30
6.47
4.77
3.09
1.28
-0.83
-3.24
-5.87
-8.48
-10.91
-12.99
-14.74
-16.26
-17.73
-19.38
-21.36
-23.72
-26.32
-28.80
-30.60
-31.13
-29.90
-26.75
-21.93
-16.00
-9.69
-3.63
1.80
6.48
10.45
13.75
16.35
18.15
19.10
19.20
18.66
17.79
16.92
16.33
16.07
16.09
16.18
16.20
16.07
15.82
15.49
15.08
14.49
13.58
12.22
10.48
8.49
6.47
4.59
2.82
1.01
-1.05
-3.49
-6.29
-9.31
-12.31
-15.03
-17.34
-19.25
-20.97
-22.80
-25.07
-27.95
-31.36
-34.86
-37.76
-39.24
-38.60
-35.47
-29.95
-22.60
-14.27
-5.89
1.78
8.23
13.30
17.06
19.68
21.28
21.96
21.81
20.98
19.74
18.42
17.30
16.51
16.01
15.61
15.16
14.61
14.05
13.69
13.65
13.91
14.23
14.26
13.73
12.51
10.73
8.61
6.46
4.45
2.60
0.77
-1.26
-3.67
-6.46
-9.46
-12.38
-14.93
-16.97
-18.60
-20.13
-21.90
-24.18
-26.97
-29.99
-32.76
-34.66
-35.16
-33.87
-30.68
-25.80
-19.72
-13.05
-6.38
-0.20
5.22
9.71
13.22
15.75
17.32
18.03
18.12
17.83
17.39
16.91
16.46
16.03
15.67
15.46
15.49
15.80
16.32
16.86
17.23
17.23
16.76
15.86
14.62
13.18
11.62
10.00
8.32
6.55
4.66
2.65
0.50
-1.78
-4.16
-6.62
-9.11
-11.54
-13.88
-16.14
-18.47
-21.02
-23.93
-27.19
-30.54
-33.51
-35.48
-35.93
-34.52
-31.25
-26.39
-20.43
-13.90
-7.26
-0.91
4.87
9.88
13.94
16.94
18.84
19.69
19.66
18.98
17.92
16.69
15.49
14.42
13.59
13.06
12.93
13.20
13.80
14.54
15.16
15.43
15.19
14.40
13.12
11.46
9.55
7.48
5.33
3.14
0.99
-1.09
-3.11
-5.09
-7.03
-8.95
-10.85
-12.73
-14.64
-16.65
-18.90
-21.46
-24.36
-27.39
-30.12
-31.96
-32.28
-30.68
-27.04
-21.71
-15.33
-8.63
-2.27
3.36
8.08
11.88
14.80
16.82
17.89
18.00
17.23
15.84
14.22
12.82
11.99
11.90
12.42
13.24
14.01
14.42
14.37
13.89
13.17
12.35
11.45
10.40
9.07
7.36
5.27
2.91
0.42
-2.04
-4.39
-6.65
-8.89
-11.16
-13.51
-15.90
-18.34
-20.90
-23.63
-26.58
-29.63
-32.48
-34.58
-35.35
-34.31
-31.24
-26.36
-20.22
-13.50
-6.86
-0.75
4.68
9.46
13.67
17.30
20.19
22.14
23.02
22.88
21.99
20.72
19.44
18.39
17.66
17.25
17.10
17.11
17.17
17.12
16.81
16.11
14.99
13.55
11.91
10.19
8.40
6.49
4.35
1.95
-0.70
-3.49
-6.29
-8.95
-11.35
-13.40
-15.12
-16.63
-18.21
-20.17
-22.81
-26.18
-30.01
-33.69
-36.37
-37.25
-35.82
-32.00
-26.23
-19.21
-11.74
-4.50
2.06
7.71
12.37
16.09
18.90
20.87
22.08
22.58
22.45
21.76
20.69
19.45
18.33
17.54
17.16
17.09
17.10
16.96
16.52
15.80
14.92
14.03
13.16
12.24
11.14
9.75
8.02
5.98
3.74
1.35
-1.10
-3.56
-5.94
-8.18
-10.22
-12.03
-13.68
-15.34
-17.25
-19.69
-22.82
-26.57
-30.48
-33.78
-35.59
-35.17
-32.25
-27.12
-20.52
-13.35
-6.34
0.04
5.61
10.34
14.27
17.36
19.60
21.02
21.73
21.89
21.68
21.21
20.57
19.79
18.90
17.99
17.16
16.56
16.25
16.16
16.15
15.99
15.48
14.53
13.17
11.53
9.75
7.85
5.85
3.68
1.34
-1.10
-3.49
-5.73
-7.79
-9.79
-11.88
-14.16
-16.65
-19.28
-21.98
-24.75
-27.58
-30.40
-32.86
-34.41
-34.41
-32.40
-28.33
-22.60
-15.90
-8.92
-2.20
3.97
9.44
14.10
17.78
20.32
21.61
21.69
20.75
19.11
17.14
15.19
13.52
12.38
11.83
11.86
12.35
13.05
13.71
14.06
13.94
13.26
12.10
10.59
8.89
7.09
5.14
2.98
0.58
-2.04
-4.73
-7.37
-9.92
-12.42
-14.97
-17.70
-20.62
-23.64
-26.64
-29.39
-31.64
-33.02
-33.08
-31.45
-27.93
-22.61
-15.99
-8.78
-1.73
4.60
9.89
14.08
17.30
19.65
21.21
21.98
21.96
21.19
19.86
18.25
16.72
15.56
14.93
14.80
15.01
15.33
15.58
15.59
15.29
14.63
13.65
12.34
10.77
8.99
7.05
4.95
2.65
0.15
-2.53
-5.31
-8.09
-10.77
-13.33
-15.73
-17.96
-20.11
-22.26
-24.59
-27.23
-30.13
-32.98
-35.18
-36.03
-34.91
-31.63
-26.42
-19.89
-12.79
-5.77
0.69
6.35
11.10
14.95
17.90
20.00
21.31
21.91
21.90
21.41
20.61
19.67
18.79
18.05
17.51
17.13
16.84
16.59
16.29
15.84
15.17
14.19
12.87
11.28
9.47
7.50
5.40
3.17
0.85
-1.50
-3.76
-5.89
-7.89
-9.81
-11.72
-13.69
-15.73
-17.87
-20.15
-22.63
-25.38
-28.29
-31.02
-33.01
-33.64
-32.39
-29.10
-23.97
-17.57
-10.65
-3.89
2.20
7.34
11.49
14.69
17.07
18.69
19.65
20.01
19.90
19.46
18.85
18.22
17.65
17.18
16.78
16.44
16.15
15.94
15.77
15.56
15.17
14.49
13.46
12.17
10.79
9.49
8.35
7.31
6.21
4.83
3.03
0.83
-1.68
-4.28
-6.78
-9.07
-11.19
-13.30
-15.61
-18.33
-21.53
-25.13
-28.85
-32.26
-34.84
-36.05
-35.45
-32.80
-28.18
-21.97
-14.82
-7.47
-0.63
5.28
10.08
13.82
16.66
18.70
20.01
20.59
20.52
19.93
19.06
18.17
17.48
17.10
17.00
17.11
17.28
17.40
17.38
17.20
16.80
16.11
15.12
13.80
12.19
10.39
8.48
6.55
4.59
2.57
0.40
-1.90
-4.33
-6.80
-9.19
-11.42
-13.43
-15.23
-16.91
-18.61
-20.50
-22.68
-25.16
-27.74
-30.08
-31.69
-32.00
-30.62
-27.33
-22.33
-16.12
-9.41
-2.89
2.90
7.70
11.51
14.42
16.54
17.89
18.43
18.17
17.24
15.89
14.49
13.39
12.78
12.69
12.99
13.42
13.75
13.79
13.46
12.79
11.85
10.70
9.36
7.75
5.82
3.51
0.89
-1.85
-4.48
-6.82
-8.86
-10.70
-12.55
-14.56
-16.81
-19.29
-21.96
-24.77
-27.63
-30.32
-32.32
-32.94
-31.58
-27.95
-22.31
-15.37
-8.02
-0.94
5.58
11.64
17.45
23.06
28.26
32.75
36.30
38.93
40.89
42.42
43.56
44.12
43.79
42.46
40.41
38.27
36.72
36.18
36.54
37.17
37.24
35.91
32.70
27.48
20.53
12.31
3.39
-5.58
-13.92
-20.99
-26.44
-30.23
-32.73
-34.42
-35.75
-37.00
-38.24
-39.44
-40.65
-42.15
-44.25
-47.05
-50.15
-52.89
-54.75
-55.46
-55.03
-53.69
-51.89
-50.14
-48.95
-48.42
-48.61
-49.65
-51.52
-53.89
-56.38
-58.81
-61.32
-64.16
-67.02
-69.51
-71.46
-72.34
-70.77
-64.99
-53.43
-35.65
-12.75
13.41
39.85
63.03
80.24
90.69
94.75
93.30
87.29
73.44
51.95
27.30
5.31
-10.25
-17.79
-17.53
-10.40
2.21
18.34
36.27
55.46
73.66
88.67
99.79
106.76
109.55
108.32
103.53
96.65
89.32
82.89
74.07
62.85
49.98
36.64
24.15
13.78
6.73
3.37
2.88
3.94
5.95
8.33
10.77
13.23
15.82
18.71
21.81
24.37
25.39
24.38
20.88
14.79
6.50
-3.24
-13.45
-23.42
-32.82
-41.74
-50.11
-58.06
-65.60
-72.53
-78.33
-82.26
-83.59
-81.82
-77.02
-69.66
-60.84
-51.91
-44.03
-37.82
-33.30
-29.96
-27.06
-23.92
-20.03
-15.22
-9.64
-3.68
2.18
7.44
11.72
14.85
16.96
18.34
19.39
20.29
20.97
21.00
19.74
16.55
11.02
3.17
-6.41
-16.65
-26.20
-33.74
-38.40
-39.92
-38.67
-35.40
-30.83
-25.38
-19.09
-11.78
-3.31
6.11
15.97
25.53
34.08
41.12
46.38
49.82
51.47
51.45
50.01
47.55
44.68
42.07
40.28
39.55
39.65
39.99
39.72
38.13
34.82
29.78
23.39
16.23
8.90
1.85
-4.59
-10.29
-15.25
-19.56
-23.46
-27.19
-31.04
-35.23
-39.88
-44.94
-50.14
-54.92
-58.53
-60.20
-59.34
-55.90
-50.34
-43.63
-36.91
-31.08
-26.59
-23.31
-20.71
-18.13
-15.12
-11.56
-7.65
-3.70
-0.04
3.17
5.90
8.20
10.07
11.48
12.32
12.51
12.05
11.09
9.80
8.34
6.75
4.94
2.78
0.16
-2.90
-6.23
-9.63
-12.92
-16.07
-19.25
-22.77
-26.93
-31.80
-37.19
-42.56
-47.17
-50.31
-51.39
-50.14
-46.54
-40.76
-33.02
-23.60
-12.88
-1.38
10.19
21.09
30.66
38.46
44.32
48.34
50.73
51.73
51.58
50.47
48.64
46.36
43.91
41.55
39.44
37.58
35.89
34.19
32.26
29.94
27.14
23.83
20.06
15.91
11.51
6.99
2.49
-1.86
-6.03
-10.11
-14.33
-18.99
-24.35
-30.46
-37.11
-43.78
-49.68
-53.98
-55.91
-55.02
-51.15
-44.51
-35.59
-24.99
-13.37
-1.32
10.62
21.94
32.15
40.78
47.49
52.13
54.83
55.94
55.90
55.10
53.74
51.91
49.62
47.02
44.38
42.03
40.22
39.01
38.15
37.27
35.95
33.94
31.21
27.93
24.38
20.79
17.32
13.96
10.59
7.03
3.08
-1.36
-6.23
-11.37
-16.51
-21.43
-25.98
-30.20
-34.19
-38.16
-42.33
-46.92
-51.96
-57.30
-62.37
-66.40
-68.42
-67.65
-63.71
-56.70
-47.17
-35.90
-23.67
-11.15
1.15
12.80
23.40
32.58
40.03
45.56
49.18
51.08
51.59
51.07
49.86
48.20
46.24
44.10
41.96
39.98
38.30
36.95
35.83
34.69
33.23
31.26
28.73
25.72
22.45
19.12
15.90
12.82
9.83
6.82
3.70
0.40
-3.11
-6.83
-10.73
-14.74
-18.75
-22.60
-26.20
-29.52
-32.68
-35.96
-39.66
-44.03
-49.08
-54.49
-59.62
-63.63
-65.65
-65.05
-61.59
-55.41
-46.94
-36.75
-25.45
-13.62
-1.86
9.31
19.38
27.99
34.97
40.26
43.96
46.14
46.96
46.59
45.28
43.36
41.20
39.09
37.18
35.53
34.07
32.70
31.33
29.91
28.41
26.83
25.12
23.21
21.05
18.59
15.85
12.89
9.80
6.67
3.53
0.38
-2.80
-6.06
-9.41
-12.82
-16.21
-19.49
-22.60
-25.56
-28.44
-31.39
-34.57
-38.08
-42.02
-46.35
-50.93
-55.42
-59.22
-61.61
-61.86
-59.51
-54.44
-46.90
-37.42
-26.64
-15.19
-3.66
7.43
17.55
26.25
33.21
38.28
41.50
43.08
43.34
42.58
41.13
39.26
37.15
34.95
32.74
30.66
28.86
27.48
26.55
26.00
25.59
25.05
24.18
22.88
21.19
19.19
16.91
14.37
11.55
8.50
5.36
2.30
-0.54
-3.15
-5.66
-8.29
-11.22
-14.48
-17.96
-21.44
-24.69
-27.56
-30.10
-32.45
-34.87
-37.58
-40.78
-44.53
-48.71
-52.98
-56.72
-59.16
-59.54
-57.33
-52.36
-44.94
-35.65
-25.22
-14.35
-3.58
6.67
16.05
24.22
30.90
35.86
39.07
40.64
40.86
40.08
38.67
36.95
35.17
33.47
31.91
30.52
29.28
28.16
27.13
26.14
25.13
24.05
22.83
21.44
19.89
18.17
16.30
14.26
11.99
9.43
6.62
3.63
0.57
-2.41
-5.29
-8.10
-10.94
-13.91
-17.03
-20.22
-23.35
-26.32
-29.11
-31.78
-34.49
-37.35
-40.47
-43.87
-47.42
-50.87
-53.74
-55.45
-55.39
-53.08
-48.32
-41.27
-32.40
-22.34
-11.79
-1.33
8.54
17.44
25.08
31.20
35.66
38.40
39.53
39.28
38.04
36.22
34.17
32.18
30.42
28.98
27.83
26.94
26.22
25.58
24.84
23.85
22.55
20.92
19.05
17.04
14.92
12.69
10.28
7.69
4.99
2.36
-0.04
-2.13
-3.96
-5.74
-7.67
-9.91
-12.48
-15.23
-18.03
-20.76
-23.39
-25.97
-28.57
-31.26
-34.13
-37.30
-40.84
-44.69
-48.54
-51.81
-53.70
-53.46
-50.66
-45.28
-37.73
-28.66
-18.75
-8.57
1.43
10.88
19.43
26.70
32.40
36.36
38.58
39.27
38.77
37.45
35.68
33.76
31.91
30.23
28.78
27.54
26.45
25.45
24.48
23.50
22.47
21.38
20.19
18.85
17.29
15.47
13.40
11.16
8.87
6.59
4.32
1.95
-0.67
-3.65
-6.98
-10.51
-14.03
-17.35
-20.44
-23.32
-26.13
-28.96
-31.85
-34.84
-37.97
-41.31
-44.92
-48.66
-52.15
-54.72
-55.64
-54.27
-50.32
-43.91
-35.50
-25.74
-15.29
-4.75
5.38
14.66
22.71
29.24
34.09
37.25
38.85
39.10
38.27
36.69
34.72
32.71
30.93
29.46
28.26
27.16
26.08
24.97
23.92
22.97
22.08
21.13
19.92
18.29
16.23
13.85
11.36
8.97
6.77
4.73
2.68
0.38
-2.38
-5.69
-9.48
-13.52
-17.53
-21.28
-24.68
-27.79
-30.76
-33.75
-36.87
-40.17
-43.60
-47.03
-50.18
-52.58
-53.61
-52.66
-49.28
-43.39
-35.30
-25.67
-15.31
-5.00
4.67
13.32
20.74
26.81
31.44
34.59
36.26
36.65
36.08
34.92
33.54
32.15
30.82
29.52
28.23
26.98
25.90
25.08
24.52
24.08
23.49
22.52
21.01
19.02
16.71
14.31
11.97
9.71
7.43
4.96
2.18
-0.95
-4.37
-7.98
-11.70
-15.49
-19.28
-23.02
-26.64
-30.14
-33.63
-37.33
-41.41
-45.85
-50.27
-53.98
-56.19
-56.21
-53.70
-48.69
-41.46
-32.42
-22.03
-10.76
0.75
11.75
21.49
29.35
35.03
38.64
40.55
41.22
41.01
40.12
38.63
36.62
34.25
31.75
29.40
27.39
25.81
24.61
23.67
22.91
22.23
21.57
20.84
19.88
18.56
16.78
14.52
11.85
8.87
5.67
2.30
-1.26
-5.01
-8.90
-12.84
-16.67
-20.24
-23.49
-26.47
-29.40
-32.56
-36.23
-40.57
-45.44
-50.37
-54.61
-57.29
-57.68
-55.36
-50.28
-42.72
-33.20
-22.38
-10.98
0.27
10.72
19.82
27.20
32.72
36.36
38.24
38.55
37.55
35.59
33.12
30.62
28.45
26.82
25.71
24.99
24.44
23.87
23.16
22.29
21.24
19.97
18.40
16.43
14.03
11.22
8.13
4.88
1.54
-1.87
-5.43
-9.18
-13.15
-17.23
-21.29
-25.20
-28.93
-32.61
-36.47
-40.73
-45.42
-50.34
-54.93
-58.43
-60.00
-58.95
-54.90
-47.84
-38.19
-26.66
-14.18
-1.71
9.87
19.88
27.89
33.75
37.57
39.58
40.13
39.58
38.28
36.54
34.66
32.86
31.34
30.22
29.52
29.14
28.86
28.43
27.61
26.30
24.47
22.24
19.72
17.01
14.16
11.13
7.89
4.40
0.66
-3.30
-7.44
-11.66
-15.86
-19.93
-23.80
-27.49
-31.17
-35.14
-39.65
-44.78
-50.32
-55.65
-59.89
-62.11
-61.55
-57.80
-50.94
-41.42
-30.01
-17.59
-5.02
6.94
17.67
26.74
33.88
38.99
42.14
43.50
43.40
42.19
40.23
37.84
35.26
32.72
30.42
28.57
27.29
26.58
26.31
26.20
25.94
25.31
24.17
22.56
20.57
18.32
15.84
13.10
10.00
6.47
2.49
-1.88
-6.52
-11.31
-16.10
-20.81
-25.41
-29.94
-34.52
-39.32
-44.52
-50.18
-56.11
-61.83
-66.55
-69.29
-69.15
-65.52
-58.25
-47.79
-34.97
-20.95
-6.91
6.14
17.45
26.60
33.49
38.22
41.07
42.36
42.41
41.56
40.14
38.42
36.63
34.95
33.51
32.37
31.50
30.82
30.24
29.67
29.00
28.17
27.10
25.71
23.93
21.73
19.13
16.22
13.09
9.79
6.25
2.37
-1.97
-6.75
-11.79
-16.80
-21.55
-25.88
-29.88
-33.85
-38.17
-43.17
-48.89
-55.04
-60.88
-65.40
-67.47
-66.15
-60.97
-52.09
-40.32
-26.92
-13.28
-0.59
10.40
19.42
26.55
32.02
36.02
38.66
40.06
40.36
39.89
39.02
38.12
37.39
36.85
36.39
35.90
35.33
34.69
34.06
33.44
32.76
31.84
30.46
28.40
25.62
22.24
18.50
14.72
11.14
7.84
4.68
1.40
-2.29
-6.48
-11.07
-15.80
-20.32
-24.50
-28.36
-32.16
-36.23
-40.78
-45.81
-51.09
-56.15
-60.30
-62.75
-62.68
-59.50
-52.97
-43.35
-31.42
-18.26
-5.05
7.18
17.72
26.15
32.38
36.46
38.61
39.15
38.46
36.93
34.94
32.84
30.90
29.34
28.25
27.64
27.34
27.14
26.82
26.21
25.24
23.93
22.32
20.49
18.45
16.17
13.58
10.59
7.15
3.27
-1.00
-5.48
-9.98
-14.33
-18.44
-22.33
-26.13
-30.05
-34.39
-39.37
-45.05
-51.20
-57.16
-61.91
-64.31
-63.40
-58.67
-50.27
-38.92
-25.74
-11.94
1.43
13.55
23.93
32.24
38.36
42.34
44.35
44.75
43.97
42.48
40.70
38.89
37.20
35.66
34.32
33.24
32.52
32.23
32.34
32.67
32.89
32.60
31.43
29.20
25.96
21.99
17.69
13.45
9.48
5.79
2.21
-1.50
-5.52
-9.87
-14.42
-18.92
-23.18
-27.08
-30.73
-34.39
-38.42
-43.14
-48.66
-54.81
-61.11
-66.77
-70.79
-72.16
-70.01
-63.89
-53.95
-40.93
-26.12
-10.96
3.20
15.48
25.50
33.30
39.14
43.27
45.83
46.96
46.84
45.82
44.31
42.70
41.19
39.82
38.49
37.16
35.88
34.79
34.07
33.72
33.55
33.20
32.32
30.66
28.17
24.96
21.30
17.50
13.80
10.37
7.22
4.21
1.09
-2.39
-6.35
-10.75
-15.36
-19.92
-24.24
-28.28
-32.19
-36.18
-40.53
-45.43
-50.98
-57.09
-63.41
-69.21
-73.45
-74.97
-72.79
-66.46
-56.24
-43.02
-28.13
-12.97
1.33
14.00
24.64
33.18
39.65
44.14
46.75
47.65
47.10
45.50
43.35
41.13
39.21
37.81
36.96
36.56
36.44
36.47
36.52
36.51
36.30
35.77
34.78
33.22
31.04
28.27
25.02
21.46
17.78
14.10
10.51
6.96
3.35
-0.42
-4.44
-8.68
-13.04
-17.35
-21.49
-25.34
-28.88
-32.19
-35.48
-39.04
-43.11
-47.89
-53.31
-59.04
-64.44
-68.66
-70.68
-69.61
-64.93
-56.61
-45.26
-32.00
-18.12
-4.79
7.16
17.35
25.74
32.36
37.26
40.52
42.23
42.66
42.18
41.18
40.00
38.81
37.64
36.54
35.59
34.93
34.69
34.84
35.20
35.41
35.12
34.02
32.05
29.30
26.01
22.47
18.88
15.39
12.04
8.82
5.67
2.52
-0.77
-4.33
-8.17
-12.26
-16.40
-20.38
-24.01
-27.32
-30.54
-34.01
-38.09
-42.91
-48.32
-53.75
-58.41
-61.32
-61.64
-58.78
-52.59
-43.40
-31.90
-19.05
-5.88
6.65
17.85
27.24
34.54
39.69
42.76
43.92
43.47
41.84
39.47
36.86
34.44
32.43
30.92
29.84
29.07
28.49
28.05
27.68
27.31
