1544126553.00
64.000000
-0.00
-0.00
-0.00
-0.00
-0.00
-0.00
-0.00
-0.00
-0.00
-0.00
0.00
0.01
0.01
-0.00
-0.03
-0.05
-0.05
0.00
0.13
0.36
0.66
1.01
1.37
1.72
2.06
2.40
2.79
3.24
3.80
4.42
5.06
5.66
6.20
6.68
7.15
7.68
8.31
9.14
10.09
11.04
11.88
12.56
13.14
13.76
14.65
15.96
17.91
20.32
22.90
25.38
27.58
29.57
31.68
34.32
37.81
42.54
48.15
54.10
59.83
64.97
69.58
74.14
79.34
85.71
93.76
103.00
112.62
121.73
129.77
136.75
143.30
150.75
157.77
166.64
177.95
191.79
206.97
220.57
228.25
225.36
208.53
176.87
132.76
80.05
23.07
-34.94
-92.44
-149.16
-205.23
-260.37
-313.74
-363.87
-409.83
-450.90
-486.50
-515.74
-537.24
-549.24
-549.96
-538.33
-514.13
-478.57
-433.81
-382.50
-327.28
-270.36
-213.42
-157.66
-104.09
-53.55
-7.06
34.48
70.37
100.31
124.45
143.32
157.66
168.17
175.47
179.91
181.71
181.04
178.16
173.48
167.50
160.77
153.70
146.51
139.17
131.53
123.45
114.90
106.07
97.29
88.98
81.41
74.60
68.32
62.15
55.71
48.84
41.70
34.75
28.50
23.34
19.28
15.94
12.74
9.10
4.74
-0.17
-5.12
-9.59
-13.07
-15.31
-16.29
-16.11
-15.22
-14.70
-16.32
-21.72
-30.83
-40.81
-45.91
-39.48
-17.22
20.24
67.06
114.50
154.45
181.89
195.18
194.60
180.63
153.69
115.28
69.41
22.78
-16.97
-44.06
-56.69
-57.16
-50.22
-40.89
-32.96
-28.14
-26.72
-27.91
-30.42
-33.17
-35.62
-37.55
-38.23
-35.61
-27.21
-11.66
9.36
30.43
44.47
45.89
33.60
11.59
-13.40
-35.97
-54.62
-71.30
-88.50
-105.72
-118.02
-117.96
-99.77
-63.59
-16.79
28.09
58.32
65.65
49.22
15.10
-27.26
-68.77
-102.98
-126.54
-137.55
-134.35
-115.69
-82.16
-37.70
10.38
53.62
85.28
102.80
108.49
107.94
107.36
111.28
121.84
138.48
156.94
172.66
179.73
172.70
149.06
111.16
65.83
22.41
-11.17
-31.21
-38.77
-38.41
-34.98
-31.40
-28.12
-24.29
-19.36
-13.96
-9.50
-7.02
-6.62
-7.12
-6.93
-4.65
-0.13
5.70
11.29
15.05
16.22
14.82
11.77
8.27
5.03
2.30
-0.35
-3.65
-8.36
-14.64
-22.24
-30.24
-37.68
-43.88
-48.65
-52.34
-55.42
-58.58
-61.26
-63.92
-66.18
-67.38
-66.92
-64.43
-60.71
-55.42
-48.89
-41.54
-33.86
-25.94
-17.83
-9.51
-1.14
6.96
14.45
20.69
25.34
28.35
30.31
32.14
34.69
38.36
42.96
47.70
51.28
52.60
51.30
48.05
44.29
41.61
40.93
42.15
43.97
44.23
40.93
33.20
21.88
9.05
-2.68
-11.39
-16.30
-18.27
-19.62
-23.52
-32.87
-49.07
-70.73
-93.06
-108.17
-106.74
-81.66
-31.85
35.99
108.65
170.58
209.32
219.57
201.62
162.28
111.71
58.86
8.75
-37.95
-83.43
-130.60
-181.70
-237.47
-296.35
-354.66
-407.19
-447.73
-470.98
-474.49
-459.77
-431.76
-397.06
-361.44
-328.85
-301.43
-279.96
-264.55
-254.66
-248.64
-243.59
-235.81
-221.95
-200.58
-172.99
-142.05
-111.39
-83.78
-60.01
-38.67
-16.91
8.22
38.17
72.05
108.27
144.25
177.43
206.18
230.65
253.15
277.44
307.41
345.06
391.54
443.32
491.78
524.65
530.00
500.76
437.65
349.22
249.46
158.23
92.23
60.09
60.52
84.76
121.49
161.17
197.92
229.49
261.82
301.26
351.11
410.10
474.46
540.77
607.79
675.41
708.48
682.29
591.38
454.53
302.59
161.30
43.53
-47.93
-116.20
-167.04
-200.97
-218.33
-221.13
-213.86
-201.54
-187.76
-173.16
-158.28
-145.98
-137.61
-135.92
-143.68
-161.65
-185.08
-210.10
-231.00
-244.24
-250.71
-252.03
-250.85
-249.52
-249.92
-252.09
-257.23
-264.90
-273.03
-277.53
-271.79
-250.34
-212.12
-161.61
-107.71
-60.34
-25.78
-5.71
2.16
2.58
0.15
-2.08
-2.49
-0.54
3.59
9.67
16.57
22.53
25.77
25.51
22.22
17.80
14.76
15.51
22.04
34.83
52.18
69.92
82.17
83.31
70.52
45.55
14.44
-13.45
-30.46
-33.58
-25.22
-11.12
2.76
12.96
19.06
22.35
24.16
24.12
20.61
11.93
-2.51
-21.76
-43.29
-63.88
-80.85
-92.57
-99.06
-101.48
-101.55
-101.01
-101.11
-101.97
-103.16
-104.16
-104.88
-105.90
-108.36
-113.59
-122.58
-135.75
-152.55
-172.42
-194.79
-218.47
-240.85
-257.53
-263.33
-254.35
-230.13
-193.33
-150.07
-107.52
-71.33
-44.07
-25.07
-11.63
-0.43
8.40
17.11
28.28
44.31
66.57
94.59
126.06
157.55
185.60
207.72
226.01
243.89
264.37
288.14
312.91
334.43
348.46
352.18
345.41
333.95
325.03
324.86
336.53
360.00
393.40
434.08
478.44
503.19
489.29
427.03
322.45
194.58
65.83
-46.60
-134.48
-197.75
-241.33
-268.14
-279.48
-275.78
-259.01
-233.99
-207.84
-188.12
-180.28
-185.40
-196.96
-204.47
-196.81
-167.32
-116.40
-51.17
16.58
75.26
115.74
134.73
134.08
119.93
100.92
86.00
81.69
88.74
101.85
112.18
112.14
98.68
74.93
48.56
27.82
17.18
14.05
12.09
6.28
-3.83
-14.93
-22.99
-26.35
-27.25
-31.43
-44.08
-69.25
-105.96
-148.61
-190.04
-225.04
-251.62
-271.24
-287.53
-308.18
-338.73
-379.20
-424.39
-467.22
-502.17
-526.16
-539.25
-519.25
-457.36
-362.01
-254.71
-156.31
-77.94
-20.95
20.41
54.59
90.15
129.42
171.01
211.85
249.74
281.88
305.66
321.32
330.90
337.58
341.55
343.12
344.20
348.49
359.97
373.34
384.65
389.06
382.61
361.68
325.58
276.66
219.22
157.89
97.33
43.57
2.12
-23.59
-35.05
-38.22
-41.79
-54.16
-81.07
-124.08
-179.11
-238.55
-292.84
-333.08
-353.36
-352.16
-332.87
-301.61
-264.85
-226.93
-190.75
-159.12
-136.07
-126.35
-132.46
-152.85
-181.33
-210.43
-235.34
-256.67
-278.81
-305.43
-335.21
-360.79
-373.37
-366.50
-339.93
-299.04
-251.77
-204.60
-160.63
-120.17
-81.37
-45.11
-11.56
19.41
48.66
77.11
104.58
129.24
148.23
161.77
167.85
169.88
173.27
183.43
204.19
236.78
279.20
326.25
373.51
407.22
417.42
397.02
344.81
267.23
177.50
91.94
24.90
-10.43
-17.81
-2.00
29.53
69.87
114.69
162.45
212.30
232.32
254.41
267.43
266.92
252.13
226.62
196.97
170.54
151.07
136.78
126.38
108.69
81.05
46.01
10.07
-19.51
-36.70
-41.21
-38.29
-31.31
-28.21
-28.37
-27.68
-21.76
-8.69
12.58
38.99
63.98
83.20
90.90
87.91
78.31
68.28
65.12
79.07
115.47
170.62
234.13
290.34
326.83
336.76
320.54
263.73
172.16
70.07
-15.69
-71.99
-101.64
-112.48
-110.99
-100.89
-84.82
-62.92
-36.98
-12.24
5.77
14.47
14.56
8.17
-3.27
-19.91
-40.92
-64.07
-90.26
-120.98
-156.33
-194.76
-234.09
-272.51
-309.38
-343.57
-375.56
-407.69
-441.22
-473.83
-499.35
-510.20
-500.04
-467.17
-414.07
-347.20
-275.17
-205.18
-140.95
-83.20
-31.94
13.11
51.10
81.80
106.49
127.22
145.55
160.61
168.11
160.64
132.27
80.18
8.07
-73.66
-150.82
-209.87
-242.52
-248.04
-233.41
-207.44
-179.41
-154.57
-133.46
-113.05
-89.23
-59.37
-18.67
22.29
59.64
87.78
102.25
101.59
88.85
71.61
60.02
62.91
83.26
118.95
161.12
199.11
224.85
235.50
233.20
222.54
207.75
190.47
171.93
152.04
131.49
112.34
97.57
89.89
90.12
96.01
101.84
101.48
90.27
68.85
44.18
26.93
26.37
45.12
76.89
108.85
128.38
128.57
111.19
84.77
59.22
40.86
30.26
23.89
17.47
9.23
0.12
-7.52
-12.09
-14.05
-15.84
-20.67
-31.09
-47.95
-70.22
-95.34
-119.86
-140.29
-153.88
-159.36
-157.25
-149.76
-139.90
-130.39
-122.65
-116.51
-110.62
-103.36
-93.60
-81.05
-65.93
-48.57
-29.11
-7.77
14.64
36.35
55.02
68.80
77.67
84.00
91.85
104.95
124.61
148.50
171.19
186.31
188.95
177.47
153.56
121.17
84.99
49.45
18.29
-5.39
-19.54
-23.83
-20.19
-12.56
-5.61
-2.92
-5.64
-12.33
-20.05
-26.06
-28.96
-28.97
-27.18
-24.65
-21.84
-18.78
-15.47
-12.30
-9.94
-8.98
-9.50
-10.93
-12.29
-12.69
-11.83
-10.04
-8.11
-6.91
-6.92
-8.11
-10.01
-12.02
-13.68
-14.85
-15.67
-16.48
-17.53
-18.97
-20.78
-22.83
-24.95
-27.04
-29.00
-30.79
-32.29
-33.33
-33.67
-33.04
-31.26
-28.31
-24.46
-20.15
-15.92
-12.26
-9.39
-7.26
-5.58
-3.92
-2.03
0.10
2.13
3.53
3.77
2.62
0.31
-2.46
-4.81
-5.98
-5.71
-4.40
-2.93
-2.33
-3.25
-5.71
-9.06
-12.26
-14.35
-14.80
-13.69
-11.69
-9.98
-10.00
-12.94
-19.08
-27.08
-33.50
-33.36
-21.68
4.40
43.82
91.15
138.01
175.66
197.62
201.22
187.48
159.85
122.75
80.55
37.23
-3.57
-38.80
-66.38
-85.88
-98.58
-107.05
-114.02
-121.24
-128.87
-135.86
-140.78
-142.72
-141.58
-137.65
-130.99
-121.01
-106.84
-88.14
-65.88
-42.57
-21.31
-4.55
6.95
14.19
19.14
23.52
28.04
32.49
36.35
39.43
42.04
44.50
46.57
47.11
44.60
38.19
28.70
18.75
11.62
9.48
12.26
17.71
22.91
26.09
27.47
28.73
31.43
35.82
40.67
44.33
46.07
46.50
47.13
49.13
52.36
55.31
55.94
52.80
45.61
35.37
23.88
13.16
4.78
-0.58
-3.37
-4.96
-7.04
-10.78
-16.40
-23.19
-29.99
-35.89
-40.48
-43.74
-45.82
-46.68
-46.20
-44.36
-41.46
-38.11
-35.07
-32.88
-31.54
-30.47
-28.74
-25.43
-20.13
-13.21
-5.71
1.01
5.88
8.56
9.49
9.61
9.82
10.59
11.83
13.22
14.49
15.67
17.00
18.61
20.28
21.47
21.66
20.75
19.33
18.37
18.83
21.00
24.40
28.02
30.88
32.40
32.55
31.62
29.77
26.97
23.06
18.03
12.26
6.57
1.79
-1.52
-3.41
-4.50
-5.63
-7.38
-9.73
-12.10
-13.67
-14.01
-13.27
-12.27
-11.97
-12.98
-15.17
-17.80
-19.89
-20.73
-20.12
-18.27
-15.48
-11.87
-7.35
-1.81
4.69
11.95
19.74
27.97
36.67
45.60
54.04
60.63
63.90
62.97
58.16
51.12
44.26
39.77
38.71
40.81
44.89
49.77
54.87
60.34
66.39
72.61
77.78
80.31
79.03
73.56
64.01
50.39
32.16
8.79
-19.26
-49.68
-78.58
-101.99
-117.50
-125.23
-127.27
-126.14
-123.27
-118.61
-111.43
-101.56
-90.12
-79.09
-70.26
-64.22
-60.24
-56.87
-52.85
-47.69
-41.76
-35.93
-31.02
-27.55
-25.52
-24.42
-23.42
-21.62
-18.37
-13.55
-7.54
-1.02
5.31
11.05
16.06
20.35
23.84
26.18
26.84
25.21
20.83
13.59
3.77
-7.87
-20.25
-32.09
-42.21
-49.71
-54.09
-55.22
-53.21
-48.23
-40.53
-30.44
-18.58
-5.93
6.16
16.22
23.03
25.99
25.44
22.65
19.41
17.54
18.23
21.71
27.09
32.49
35.44
33.61
25.59
11.61
-6.17
-24.15
-38.42
-46.18
-46.68
-41.36
-32.93
-24.17
-16.80
-11.20
-6.82
-2.96
0.69
4.02
6.72
8.68
10.07
11.25
12.53
14.03
15.59
16.90
17.58
17.32
16.00
13.77
11.08
8.50
6.60
5.76
6.00
7.07
8.58
10.15
11.61
13.00
14.46
16.17
18.14
20.26
22.31
24.08
25.49
26.64
27.66
28.68
29.63
30.29
30.33
29.52
27.81
25.39
22.56
19.59
16.67
13.86
11.20
8.75
6.57
4.69
3.00
1.35
-0.47
-2.57
-4.92
-7.42
-9.94
-12.51
-15.24
-18.27
-21.58
-24.97
-28.05
-30.43
-31.89
-32.44
-32.21
-31.34
-29.84
-27.57
-24.45
-20.50
-15.98
-11.26
-6.67
-2.40
1.50
5.02
8.12
10.70
12.74
14.30
15.56
16.69
17.79
18.74
19.37
19.46
18.96
17.97
16.71
15.48
14.54
14.08
14.14
14.64
15.33
15.94
16.23
16.10
15.55
14.70
13.67
12.50
11.18
9.70
8.06
6.37
4.78
3.44
2.37
1.48
0.57
-0.65
-2.38
-4.72
-7.58
-10.74
-13.94
-17.05
-19.97
-22.70
-25.18
-27.22
-28.55
-28.94
-28.31
-26.78
-24.62
-22.09
-19.40
-16.61
-13.70
-10.71
-7.74
-4.94
-2.40
-0.05
2.27
4.74
7.37
9.95
12.09
13.46
13.90
13.61
12.98
12.49
12.47
12.95
13.76
14.60
15.31
15.87
16.46
17.31
18.57
20.21
22.00
23.55
24.43
24.24
22.76
20.00
16.30
12.38
9.28
8.08
9.48
13.33
18.55
23.36
25.90
25.01
20.72
14.26
7.43
1.87
-1.66
-3.37
-4.19
-5.17
-6.89
-9.36
-12.12
-14.58
-16.38
-17.41
-17.73
-17.43
-16.39
-14.41
-11.44
-7.75
-3.98
-0.98
0.56
0.42
-1.01
-2.92
-4.42
-4.96
-4.43
-3.14
-1.52
0.12
1.59
2.84
3.74
4.09
3.76
2.82
1.69
0.91
0.88
1.65
2.85
3.89
4.33
4.07
3.39
2.67
2.19
1.94
1.66
1.06
0.11
-0.98
-1.80
-2.01
-1.56
-0.72
0.03
0.26
-0.16
-1.03
-1.91
-2.45
-2.60
-2.72
-3.37
-4.97
-7.53
-10.61
-13.44
-15.31
-15.91
-15.39
-14.28
-13.18
-12.43
-12.02
-11.61
-10.83
-9.53
-7.81
-5.86
-3.77
-1.32
1.83
5.86
10.53
15.11
18.69
20.63
20.90
20.10
19.19
18.94
19.65
21.08
22.80
24.36
25.50
26.08
25.93
24.74
22.21
18.27
13.27
7.93
3.00
-1.11
-4.43
-7.35
-10.17
-12.81
-14.74
-15.29
-14.20
-11.85
-9.33
-7.86
-8.31
-10.75
-14.48
-18.43
-21.69
-23.88
-25.15
-25.96
-26.68
-27.28
-27.34
-26.33
-23.89
-20.15
-15.63
-11.12
-7.31
-4.53
-2.72
-1.48
-0.36
1.02
2.74
4.72
6.69
8.41
9.79
10.94
12.08
13.38
14.82
16.12
16.92
16.94
16.25
15.23
14.41
14.21
14.70
15.65
16.65
17.40
17.86
18.14
18.32
18.23
17.45
15.54
12.35
8.23
3.91
0.17
-2.44
-3.80
-4.07
-3.41
-1.84
0.68
3.95
7.29
9.56
9.50
6.33
0.21
-7.78
-15.92
-22.57
-26.70
-28.10
-27.32
-25.25
-22.76
-20.48
-18.76
-17.82
-17.84
-18.95
-21.14
-24.02
-26.88
-28.79
-28.99
-27.16
-23.57
-18.91
-13.96
-9.28
-5.02
-1.07
2.76
6.50
9.97
12.92
15.14
16.57
17.23
17.19
16.50
15.26
13.69
12.19
11.20
11.05
11.74
12.99
14.33
15.34
15.82
15.79
15.40
14.77
13.95
12.95
11.78
10.50
9.20
7.93
6.57
4.98
3.05
0.87
-1.26
-2.97
-3.99
-4.38
-4.48
-4.83
-5.82
-7.63
-10.15
-13.05
-15.96
-18.52
-20.44
-21.43
-21.33
-20.17
-18.22
-15.98
-14.03
-12.73
-12.12
-11.91
-11.62
-10.83
-9.36
-7.35
-5.09
-2.93
-1.02
0.63
2.15
3.62
5.09
6.47
7.68
8.60
9.16
9.36
9.27
9.15
9.36
10.32
12.24
14.99
18.05
20.69
22.22
22.34
21.11
18.92
16.21
13.36
10.67
8.39
6.79
6.03
6.11
6.73
7.43
7.78
7.60
7.02
6.32
5.66
4.95
3.90
2.19
-0.27
-3.19
-5.93
-7.77
-8.17
-6.99
-4.67
-2.08
-0.46
-1.00
-4.55
-11.24
-20.30
-30.16
-38.79
-44.25
-45.27
-41.55
-33.83
-23.59
-12.72
-3.04
3.94
7.26
6.61
2.43
-4.13
-11.41
-17.66
-21.53
-22.32
-20.10
-15.50
-9.47
-3.10
2.58
6.66
8.59
8.34
6.49
4.12
2.52
2.75
5.27
9.87
15.78
21.93
27.17
30.56
31.50
29.87
26.13
21.24
16.48
13.04
11.72
12.66
15.25
18.28
20.25
19.80
16.20
9.71
1.54
-6.53
-12.83
-16.40
-17.29
-16.33
-14.66
-13.23
-12.54
-12.76
-13.91
-15.99
-18.92
-22.36
-25.67
-27.99
-28.59
-27.16
-23.86
-19.31
-14.34
-9.74
-6.11
-3.79
-2.83
-3.02
-3.97
-5.09
-5.83
-5.73
-4.56
-2.33
0.78
4.50
8.54
12.57
16.26
19.17
20.89
21.16
20.03
17.92
15.57
13.75
12.97
13.28
14.24
15.19
15.52
14.93
13.50
11.55
9.44
7.44
5.68
4.19
2.95
2.00
1.32
0.80
0.23
-0.67
-2.10
-4.05
-6.25
-8.31
-9.88
-10.89
-11.60
-12.48
-14.01
-16.41
-19.52
-22.80
-25.57
-27.18
-27.31
-25.99
-23.52
-20.38
-17.01
-13.73
-10.73
-8.09
-5.77
-3.74
-1.94
-0.26
1.38
3.04
4.73
6.34
7.76
8.86
9.60
10.07
10.41
10.75
11.14
11.60
12.04
12.40
12.65
12.75
12.69
12.46
12.02
11.45
10.80
10.17
9.63
9.20
8.85
8.54
8.25
7.93
7.56
7.13
6.63
6.11
5.66
5.39
5.38
5.69
6.23
6.85
7.33
7.46
7.12
6.32
5.16
3.74
2.13
0.32
-1.66
-3.77
-5.83
-7.68
-9.24
-10.56
-11.90
-13.51
-15.53
-17.89
-20.30
-22.35
-23.65
-23.95
-23.20
-21.50
-19.11
-16.37
-13.59
-11.00
-8.62
-6.37
-4.11
-1.76
0.61
2.83
4.72
6.20
7.29
8.14
8.88
9.57
10.22
10.84
11.48
12.20
13.02
13.85
14.53
14.88
14.86
14.58
14.27
14.14
14.26
14.56
14.83
14.90
14.66
14.17
13.53
12.84
12.18
11.58
11.08
10.67
10.26
9.69
8.78
7.39
5.54
3.43
1.36
-0.44
-1.91
-3.16
-4.42
-5.82
-7.40
-9.12
-10.95
-12.92
-15.10
-17.42
-19.61
-21.21
-21.72
-20.83
-18.60
-15.44
-11.98
-8.82
-6.33
-4.58
-3.42
-2.58
-1.86
-1.17
-0.51
0.08
0.58
1.00
1.41
1.88
2.50
3.29
4.24
5.29
6.36
7.31
8.06
8.56
8.89
9.19
9.59
10.14
10.73
11.20
11.37
11.25
10.93
10.60
10.44
10.51
10.76
11.07
11.34
11.56
11.74
11.86
11.85
11.57
10.90
9.78
8.28
6.53
4.66
2.77
0.83
-1.18
-3.34
-5.66
-8.14
-10.68
-13.19
-15.61
-17.91
-20.17
-22.46
-24.81
-27.11
-29.05
-30.26
-30.38
-29.25
-26.95
-23.80
-20.20
-16.57
-13.16
-10.08
-7.35
-4.94
-2.83
-0.99
0.64
2.21
3.84
5.64
7.58
9.46
10.99
11.93
12.20
11.97
11.61
11.48
11.81
12.53
13.39
14.10
14.45
14.39
13.99
13.30
12.31
10.98
9.33
7.51
5.77
4.42
3.63
3.44
3.74
4.35
5.04
5.66
6.09
6.25
6.09
5.57
4.68
3.45
1.88
0.01
-2.07
-4.24
-6.26
-7.93
-9.06
-9.61
-9.72
-9.70
-9.85
-10.45
-11.51
-12.87
-14.24
-15.31
-15.84
-15.71
-14.86
-13.24
-10.86
-7.74
-4.06
-0.10
3.72
7.04
9.57
11.18
11.91
11.83
11.04
9.64
7.81
5.81
4.07
3.10
3.29
4.85
7.59
10.99
14.27
16.63
17.44
16.44
13.78
9.98
5.79
2.00
-0.79
-2.29
-2.62
-2.20
-1.57
-1.16
-1.17
-1.60
-2.35
-3.36
-4.65
-6.27
-8.19
-10.18
-11.93
-13.15
-13.70
-13.74
-13.65
-13.87
-14.69
-16.21
-18.28
-20.60
-22.82
-24.68
-26.00
-26.68
-26.67
-25.91
-24.39
-22.12
-19.21
-15.89
-12.42
-9.09
-6.09
-3.44
-1.12
0.95
2.81
4.42
5.76
6.82
7.66
8.37
9.03
9.65
10.19
10.62
10.98
11.32
11.72
12.18
12.62
12.97
13.23
13.48
13.82
14.30
14.83
15.19
15.08
14.33
12.91
10.99
8.87
6.87
5.25
4.10
3.37
2.90
2.49
1.98
1.30
0.46
-0.51
-1.55
-2.61
-3.63
-4.58
-5.42
-6.13
-6.79
-7.49
-8.39
-9.64
-11.33
-13.48
-16.00
-18.69
-21.28
-23.45
-24.92
-25.51
-25.12
-23.79
-21.61
-18.77
-15.52
-12.12
-8.86
-5.99
-3.62
-1.70
-0.08
1.48
3.14
4.94
6.76
8.41
9.69
10.55
11.13
11.65
12.33
13.26
14.38
15.52
16.50
17.20
17.61
17.78
17.78
17.66
17.46
17.19
16.87
16.50
16.04
15.45
14.65
13.63
12.44
11.22
10.18
9.48
9.19
9.23
9.37
9.33
8.89
7.99
6.69
5.16
3.54
1.86
0.10
-1.81
-3.91
-6.16
-8.48
-10.82
-13.16
-15.53
-17.92
-20.18
-22.01
-23.00
-22.80
-21.25
-18.48
-14.91
-11.03
-7.29
-3.96
-1.13
1.19
3.03
4.39
5.28
5.78
6.04
6.21
6.44
6.75
7.08
7.35
7.52
7.63
7.83
8.28
9.08
10.22
11.58
12.91
13.98
14.59
14.69
14.30
13.49
12.30
10.75
8.88
6.82
4.83
3.21
2.18
1.75
1.69
1.64
1.29
0.48
-0.78
-2.32
-3.95
-5.52
-6.96
-8.27
-9.48
-10.68
-12.01
-13.58
-15.48
-17.63
-19.83
-21.80
-23.33
-24.34
-24.95
-25.36
-25.74
-26.11
-26.31
-26.05
-25.05
-23.17
-20.48
-17.26
-13.87
-10.63
-7.73
-5.17
-2.90
-0.83
1.01
2.56
3.80
4.75
5.57
6.46
7.57
8.93
10.42
11.88
13.15
14.19
15.07
15.90
16.79
17.80
18.84
19.69
20.12
19.95
19.18
18.02
16.79
15.80
15.14
14.70
14.24
13.56
12.55
11.33
10.04
8.86
7.86
7.02
6.27
5.60
4.95
4.26
3.39
2.18
0.52
-1.56
-3.86
-6.13
-8.13
-9.73
-11.04
-12.30
-13.81
-15.75
-18.12
-20.65
-22.92
-24.46
-24.91
-24.07
-21.98
-18.87
-15.06
-10.94
-6.87
-3.13
0.10
2.76
4.90
6.65
8.15
9.49
10.65
11.58
12.22
12.58
12.74
12.83
12.94
13.09
13.23
13.27
13.23
13.17
13.21
13.39
13.66
13.85
13.78
13.34
12.51
11.40
10.18
9.02
8.01
7.20
6.54
5.98
5.44
4.83
4.05
3.02
1.72
0.20
-1.46
-3.20
-4.94
-6.64
-8.24
-9.73
-11.09
-12.37
-13.70
-15.24
-17.13
-19.38
-21.82
-24.16
-26.05
-27.25
-27.59
-27.03
-25.63
-23.41
-20.50
-17.10
-13.50
-10.08
-7.16
-4.89
-3.21
-1.88
-0.64
0.65
1.96
3.15
4.12
4.89
5.59
6.34
7.15
7.89
8.39
8.61
8.68
8.90
9.51
10.53
11.74
12.77
13.34
13.33
12.86
12.14
11.30
10.43
9.53
8.65
7.88
7.28
6.86
6.52
6.10
5.49
4.68
3.79
2.93
2.13
1.37
0.52
-0.45
-1.52
-2.59
-3.57
-4.42
-5.21
-6.00
-6.90
-7.97
-9.27
-10.82
-12.63
-14.65
-16.74
-18.67
-20.18
-21.01
-20.98
-20.04
-18.24
-15.76
-12.84
-9.77
-6.81
-4.12
-1.82
0.14
1.85
3.43
4.98
6.52
8.10
9.70
11.34
12.94
14.36
15.41
15.86
15.69
15.04
14.32
13.92
14.12
14.93
16.12
17.32
18.26
18.81
19.01
18.99
18.78
18.29
17.41
16.06
14.25
12.15
9.97
7.80
5.66
3.45
1.08
-1.50
-4.26
-7.07
-9.80
-12.36
-14.70
-16.81
-18.62
-20.01
-20.82
-20.87
-20.04
-18.34
-15.94
-13.12
-10.17
-7.40
-4.95
-2.88
-1.15
0.33
1.66
2.88
4.04
5.15
6.13
6.88
7.28
7.26
6.86
6.25
5.66
5.28
5.19
5.37
5.67
5.94
6.06
5.99
5.80
5.62
5.57
5.72
6.05
6.39
6.54
6.26
5.35
3.71
1.34
-1.61
-4.92
-8.21
-11.13
-13.38
-14.88
-15.75
-16.36
-17.20
-18.71
-21.11
-24.22
-27.48
-30.04
-31.08
-30.13
-27.21
-22.93
-18.20
-13.84
-10.35
-7.71
-5.52
-3.31
-0.82
1.87
4.39
6.34
7.54
8.10
8.33
8.59
9.02
9.57
10.11
10.58
11.07
11.76
12.76
13.93
14.94
15.40
15.07
14.04
12.65
11.31
10.32
9.73
9.36
8.92
8.23
7.22
6.01
4.75
3.58
2.56
1.64
0.72
-0.29
-1.41
-2.52
-3.50
-4.25
-4.81
-5.38
-6.22
-7.57
-9.56
-12.10
-14.94
-17.69
-19.94
-21.28
-21.47
-20.45
-18.32
-15.35
-11.87
-8.27
-4.82
-1.76
0.80
2.82
4.30
5.35
6.08
6.62
7.06
7.45
7.78
8.08
8.41
8.89
9.60
10.56
11.65
12.69
13.50
13.96
14.05
13.78
13.19
12.29
11.12
9.72
8.24
6.81
5.59
4.66
4.00
3.50
3.02
2.36
1.37
-0.01
-1.77
-3.79
-5.96
-8.16
-10.32
-12.37
-14.17
-15.48
-16.03
-15.61
-14.24
-12.11
-9.57
-6.96
-4.48
-2.18
-0.02
2.06
4.02
5.77
7.20
8.22
8.85
9.19
9.38
9.58
9.91
10.43
11.08
11.80
12.48
13.06
13.56
13.99
14.37
14.65
14.72
14.53
14.08
13.46
12.79
12.13
11.45
10.67
9.70
8.53
7.24
5.94
4.71
3.59
2.54
1.51
0.51
-0.39
-1.09
-1.54
-1.79
-1.99
-2.37
-3.11
-4.26
-5.76
-7.46
-9.19
-10.91
-12.67
-14.56
-16.63
-18.84
-21.10
-23.30
-25.36
-27.24
-28.89
-30.14
-30.77
-30.50
-29.14
-26.65
-23.15
-18.92
-14.33
-9.78
-5.65
-2.27
0.15
1.60
2.32
2.69
3.15
4.04
5.48
7.35
9.40
11.38
13.12
14.55
15.63
16.34
16.69
16.75
16.69
16.71
16.98
17.46
17.95
18.14
17.81
16.98
15.92
15.00
14.55
14.58
14.85
14.96
14.60
13.67
12.39
11.06
9.93
9.02
8.17
7.19
6.05
4.91
4.01
3.46
3.20
2.95
2.42
1.45
0.09
-1.44
-2.94
-4.32
-5.64
-7.02
-8.63
-10.49
-12.62
-14.93
-17.26
-19.42
-21.11
-22.02
-21.91
-20.71
-18.52
-15.62
-12.38
-9.13
-6.14
-3.57
-1.51
-0.03
0.87
1.27
1.39
1.50
1.84
2.54
3.53
4.61
5.59
6.32
6.80
7.09
7.29
7.51
7.84
8.33
9.00
9.79
10.53
10.99
11.00
10.50
9.57
8.41
7.20
6.00
4.76
3.43
1.99
0.57
-0.66
-1.58
-2.22
-2.71
-3.27
-4.06
-5.21
-6.74
-8.60
-10.68
-12.75
-14.52
-15.63
-15.88
-15.30
-14.11
-12.61
-11.04
-9.38
-7.46
-5.16
-2.52
0.15
2.47
4.18
5.24
5.82
6.18
6.47
6.72
6.85
6.83
6.68
6.50
6.38
6.39
6.50
6.70
6.95
7.22
7.50
7.72
7.84
7.80
7.58
7.18
6.59
5.87
5.10
4.41
3.91
3.63
3.43
3.05
2.20
0.71
-1.33
-3.65
-5.88
-7.76
-9.25
-10.50
-11.77
-13.21
-14.85
-16.57
-18.20
-19.65
-20.91
-22.03
-23.03
-23.81
-24.16
-23.87
-22.88
-21.34
-19.53
-17.74
-16.05
-14.36
-12.41
-10.01
-7.18
-4.11
-1.15
1.40
3.31
4.49
4.99
4.92
4.49
4.03
3.91
4.46
5.79
7.74
9.89
11.74
12.83
12.98
12.24
10.89
9.36
8.07
7.36
7.33
7.82
8.50
8.94
8.78
7.88
6.37
4.55
2.84
1.52
0.76
0.53
0.67
0.97
1.18
1.05
0.37
-0.97
-2.91
-5.26
-7.68
-9.82
-11.40
-12.35
-12.83
-13.21
-13.90
-15.19
-17.05
-19.14
-20.92
-21.85
-21.66
-20.41
-18.46
-16.26
-14.13
-12.20
-10.37
-8.53
-6.63
-4.73
-2.90
-1.13
0.63
2.44
4.25
5.92
7.20
7.96
8.28
8.39
8.61
9.09
9.80
10.57
11.17
11.48
11.53
11.43
11.29
11.20
11.17
11.16
11.10
10.87
10.36
9.52
8.41
7.19
6.09
5.19
4.41
3.44
2.00
-0.04
-2.52
-5.00
-7.06
-8.49
-9.38
-10.05
-10.84
-11.92
-13.31
-14.89
-16.55
-18.27
-20.03
-21.73
-23.14
-23.94
-23.82
-22.62
-20.40
-17.41
-14.09
-10.85
-8.06
-5.95
-4.54
-3.65
-3.06
-2.51
-1.88
-1.12
-0.26
0.70
1.72
2.80
3.91
5.05
6.27
7.69
9.41
11.37
13.28
14.65
15.03
14.22
12.46
10.34
8.52
7.49
7.36
7.93
8.81
9.67
10.32
10.69
10.77
10.57
10.05
9.19
8.04
6.77
5.61
4.80
4.42
4.38
4.39
4.10
3.23
1.74
-0.18
-2.22
-4.08
-5.67
-7.14
-8.79
-10.90
-13.60
-16.77
-20.13
-23.28
-25.84
-27.50
-28.07
-27.43
-25.58
-22.64
-18.84
-14.60
-10.45
-6.90
-4.27
-2.60
-1.58
-0.72
0.41
2.01
3.96
5.91
7.54
8.70
9.46
10.12
10.96
12.09
13.45
14.80
15.93
16.77
17.38
17.92
18.52
19.13
19.63
19.84
19.64
19.06
18.24
17.40
16.72
16.29
16.09
15.96
15.67
14.98
13.72
11.92
9.79
7.66
5.85
4.55
3.78
3.42
3.25
3.04
2.58
1.74
0.49
-1.07
-2.78
-4.43
-5.90
-7.21
-8.56
-10.15
-12.12
-14.38
-16.68
-18.66
-20.06
-20.69
-20.53
-19.56
-17.76
-15.11
-11.68
-7.76
-3.81
-0.37
2.17
3.69
4.45
4.88
5.43
6.33
7.58
8.95
10.14
10.89
11.09
10.79
10.18
9.50
9.00
8.83
9.05
9.55
10.20
10.84
11.36
11.71
11.81
11.59
11.03
10.17
9.15
8.21
7.56
7.23
7.07
6.72
5.88
4.39
2.38
0.20
-1.76
-3.25
-4.26
-5.05
-5.96
-7.30
-9.25
-11.81
-14.83
-18.03
-21.03
-23.38
-24.60
-24.36
-22.57
-19.44
-15.44
-11.16
-7.15
-3.71
-0.95
1.18
2.80
3.99
4.80
5.35
5.84
6.45
7.30
8.32
9.23
9.73
9.67
9.20
8.70
8.64
9.24
10.38
11.58
12.30
12.22
11.44
10.48
9.90
10.10
10.97
12.00
12.52
12.05
10.46
8.02
5.21
2.50
0.17
-1.70
-3.19
-4.47
-5.69
-7.04
-8.66
-10.64
-12.94
-15.32
-17.43
-18.91
-19.56
-19.56
-19.40
-19.76
-21.21
-23.91
-27.45
-31.00
-33.63
-34.63
-33.76
-31.24
-27.54
-23.15
-18.49
-13.86
-9.58
-6.00
-3.42
-1.98
-1.49
-1.45
-1.17
-0.09
2.01
4.90
8.04
10.80
12.76
13.86
14.39
14.81
15.53
16.73
18.31
19.94
21.22
21.81
21.51
20.42
18.81
17.18
16.04
15.73
16.31
17.50
18.80
19.63
19.59
18.51
16.48
13.77
10.63
7.26
3.84
0.61
-2.14
-4.06
-4.96
-4.93
-4.37
-3.93
-4.23
-5.63
-8.15
-11.54
-15.40
-19.39
-23.16
-26.40
-28.70
-29.66
-28.99
-26.67
-23.04
-18.64
-14.13
-9.99
-6.43
-3.45
-0.95
1.18
3.00
4.55
5.92
7.21
8.55
10.02
11.57
13.07
14.37
15.41
16.25
17.06
18.00
19.12
20.29
21.22
21.66
21.46
20.68
19.49
18.16
16.89
15.77
14.81
13.96
13.16
12.33
11.41
10.36
9.18
7.91
6.65
5.49
4.54
3.84
3.35
2.89
2.15
0.78
-1.45
-4.48
-7.96
-11.37
-14.30
-16.64
-18.65
-20.73
-23.15
-25.80
-28.15
-29.57
-29.55
-27.92
-24.91
-20.95
-16.54
-12.10
-7.99
-4.49
-1.84
-0.13
0.79
1.25
1.74
2.70
4.39
6.76
9.52
12.22
14.46
15.96
16.67
16.75
16.47
16.17
16.06
16.20
16.44
16.58
16.41
15.83
14.91
13.82
12.77
11.93
11.40
11.15
11.08
11.07
10.99
10.80
10.56
10.39
10.32
10.27
9.99
9.22
7.80
5.82
3.60
1.47
-0.35
-1.82
-3.07
-4.13
-4.94
-5.34
-5.25
-4.71
-3.97
-3.30
-2.96
-3.13
-3.95
-5.54
-8.01
-11.33
-15.19
-18.98
-21.91
-23.30
-22.80
-20.52
-17.01
-13.05
-9.43
-6.74
-5.19
-4.67
-4.75
-4.91
-4.66
-3.69
-1.93
0.48
3.30
6.16
8.70
10.57
11.61
11.89
11.73
11.60
11.92
12.89
14.43
16.21
17.85
19.07
19.81
20.14
20.19
20.05
19.72
19.13
18.23
16.97
15.33
13.40
11.33
9.38
7.77
6.69
6.10
5.80
5.50
4.81
3.48
1.30
-1.77
-5.62
-9.95
-14.21
-17.78
-20.04
-20.65
-19.62
-17.38
-14.56
-11.82
-9.58
-7.97
-6.82
-5.84
-4.73
-3.36
-1.84
-0.37
0.83
1.66
2.22
2.66
3.12
3.58
3.91
3.97
3.76
3.43
3.18
3.18
3.39
3.65
3.74
3.52
2.93
1.98
0.72
-0.80
-2.51
-4.26
-5.85
-7.16
-8.13
-8.87
-9.58
-10.42
-11.53
-12.94
-14.61
-16.45
-18.34
-20.14
-21.65
-22.63
-22.84
-22.03
-20.08
-17.01
-13.03
-8.50
-3.91
0.25
3.64
6.14
7.87
9.06
9.99
10.85
11.69
12.46
13.06
13.40
13.45
13.27
12.98
12.69
12.45
12.22
11.96
11.68
11.44
11.32
11.28
11.13
10.61
9.53
7.91
6.02
4.27
3.02
2.40
2.28
2.37
2.36
2.02
1.23
-0.04
-1.74
-3.73
-5.80
-7.69
-9.18
-10.18
-10.79
-11.27
-11.91
-12.89
-14.25
-15.90
-17.72
-19.58
-21.46
-23.33
-25.14
-26.75
-27.99
-28.61
-28.43
-27.34
-25.31
-22.47
-19.04
-15.31
-11.61
-8.22
-5.28
-2.74
-0.46
1.79
4.11
6.51
8.87
11.03
12.84
14.21
15.15
15.70
15.99
16.10
16.12
16.11
16.13
16.22
16.47
16.93
17.58
18.27
18.72
18.64
17.84
16.38
14.59
12.92
11.78
11.36
11.56
12.07
12.56
12.73
12.45
11.71
10.57
9.12
7.48
5.81
4.29
3.00
1.97
1.06
0.12
-1.02
-2.47
-4.32
-6.57
-9.17
-11.87
-14.35
-16.24
-17.33
-17.71
-17.81
-18.18
-19.18
-20.88
-22.88
-24.60
-25.47
-25.15
-23.58
-20.90
-17.36
-13.30
-9.11
-5.21
-2.02
0.27
1.71
2.64
3.51
4.67
6.22
8.02
9.82
11.37
12.51
13.26
13.66
13.84
13.92
14.02
14.31
14.86
15.67
16.57
17.31
17.58
17.17
16.05
14.38
12.50
10.75
9.40
8.54
8.07
7.77
7.38
6.69
5.60
4.09
2.31
0.42
-1.38
-3.00
-4.42
-5.72
-7.04
-8.46
-9.98
-11.50
-12.88
-14.03
-14.95
-15.75
-16.61
-17.70
-19.19
-21.11
-23.37
-25.66
-27.52
-28.46
-28.08
-26.29
-23.26
-19.43
-15.27
-11.27
-7.74
-4.90
-2.81
-1.43
-0.56
0.12
0.94
2.15
3.80
5.76
7.76
9.52
10.83
11.60
11.84
11.60
10.98
10.16
9.39
8.94
9.05
9.76
10.87
11.94
12.48
12.11
10.79
8.82
6.73
5.06
4.11
3.82
3.85
3.78
3.35
2.55
1.56
0.65
-0.04
-0.50
-0.85
-1.22
-1.67
-2.22
-2.85
-3.58
-4.49
-5.66
-7.14
-8.87
-10.70
-12.41
-13.84
-14.97
-15.93
-17.00
-18.43
-20.37
-22.72
-25.15
-27.14
-28.21
-28.00
-26.41
-23.56
-19.78
-15.53
-11.36
-7.78
-5.14
-3.51
-2.67
-2.18
-1.58
-0.56
0.89
2.53
4.05
5.20
6.00
6.62
7.31
8.17
9.19
10.24
11.21
12.13
13.11
14.26
15.57
16.87
17.87
18.35
18.24
17.65
16.84
16.07
15.52
15.24
15.14
15.05
14.80
14.24
13.31
12.12
10.80
9.52
8.38
7.37
6.40
5.31
4.00
2.43
0.71
-1.03
-2.66
-4.07
-5.21
-6.10
-6.80
-7.44
-8.21
-9.30
-10.91
-13.10
-15.76
-18.62
-21.27
-23.32
-24.41
-24.39
-23.22
-21.00
-17.96
-14.41
-10.76
-7.37
-4.50
-2.19
-0.30
1.38
3.02
4.67
6.21
7.47
8.40
9.02
9.49
9.97
10.59
11.40
12.42
13.63
15.00
16.45
17.84
19.04
19.93
20.47
20.70
20.76
20.75
20.75
20.74
20.63
20.32
19.67
18.59
17.06
15.12
12.92
10.62
8.39
6.33
4.47
2.76
1.11
-0.57
-2.34
-4.25
-6.25
-8.25
-10.15
-11.84
-13.28
-14.60
-16.00
-17.71
-19.92
-22.58
-25.41
-27.99
-29.86
-30.69
-30.36
-28.95
-26.68
-23.81
-20.58
-17.23
-13.96
-10.95
-8.33
-6.13
-4.30
-2.71
-1.29
0.02
1.19
2.17
2.95
3.55
4.05
4.58
5.20
5.94
6.79
7.66
8.45
9.09
9.53
9.76
9.83
9.77
9.65
9.48
9.27
9.02
8.78
8.56
8.38
8.20
7.91
7.43
6.74
5.88
5.02
4.32
3.87
3.60
3.35
2.89
2.09
1.00
-0.24
-1.43
-2.47
-3.37
-4.24
-5.19
-6.24
-7.31
-8.35
-9.39
-10.60
-12.15
-14.17
-16.60
-19.17
-21.54
-23.34
-24.37
-24.55
-23.91
-22.50
-20.41
-17.69
-14.46
-10.91
-7.27
-3.79
-0.68
1.87
3.79
5.03
5.64
5.77
5.65
5.54
5.65
6.09
6.84
7.80
8.87
10.01
11.21
12.46
13.70
14.82
15.71
16.29
16.55
16.54
16.31
15.86
15.16
14.22
13.07
11.86
10.75
9.86
9.19
8.61
7.94
7.01
5.75
4.17
2.44
0.73
-0.82
-2.13
-3.22
-4.16
-5.06
-5.99
-7.08
-8.40
-10.06
-12.10
-14.47
-16.97
-19.32
-21.16
-22.22
-22.39
-21.75
-20.50
-18.80
-16.66
-13.91
-10.29
-5.63
-0.04
5.99
11.76
16.45
19.50
20.73
20.40
19.08
17.44
15.99
14.94
14.26
13.78
13.39
13.11
13.07
13.40
14.10
15.01
15.95
16.76
17.46
18.10
18.72
19.19
19.27
18.69
17.33
15.28
12.82
10.28
7.92
5.83
3.99
2.30
0.68
-0.86
-2.25
-3.37
-4.15
-4.58
-4.73
-4.77
-4.83
-5.00
-5.27
-5.59
-5.91
-6.26
-6.74
-7.47
-8.46
-9.69
-11.03
-12.39
-13.79
-15.33
-17.17
-19.39
-21.90
-24.34
-26.17
-26.83
-25.94
-23.47
-19.75
-15.37
-10.99
-7.16
-4.22
-2.29
-1.27
-0.99
-1.18
-1.56
-1.83
-1.81
-1.46
-0.97
-0.58
-0.51
-0.79
-1.27
-1.69
-1.83
-1.56
-0.89
0.04
1.09
2.08
2.91
3.46
3.71
3.67
3.44
3.15
2.97
3.01
3.32
3.83
4.44
5.00
5.45
5.79
6.11
6.49
6.92
7.33
7.59
7.60
7.33
6.78
5.99
4.93
3.56
1.89
0.00
-1.88
-3.55
-4.89
-5.93
-6.86
-7.97
-9.52
-11.68
-14.40
-17.43
-20.36
-22.62
-23.65
-23.01
-20.50
-16.25
-10.75
-4.79
0.69
4.73
6.66
6.23
3.76
0.00
-4.07
-7.60
-10.03
-11.25
-11.49
-11.06
-10.27
-9.24
-8.01
-6.52
-4.74
-2.65
-0.28
2.32
5.09
7.90
10.57
12.89
14.65
15.70
16.03
15.79
15.20
14.53
13.82
12.97
11.71
9.81
7.28
4.39
1.63
-0.50
-1.78
-2.31
-2.52
-2.87
-3.70
-5.10
-6.96
-9.13
-11.52
-14.12
-16.93
-19.90
-22.95
-25.95
-28.83
-31.52
-33.86
-35.48
-35.67
-33.55
-28.33
-19.73
-8.16
5.19
18.70
30.76
40.28
46.91
51.02
53.35
54.59
55.14
54.99
53.95
51.87
48.87
45.28
41.57
38.23
35.58
33.74
32.44
30.78
27.15
19.39
5.44
-15.90
-44.30
-77.75
-113.06
-146.72
-175.76
-198.23
-213.20
-220.45
-220.22
-213.15
-200.20
-182.60
-161.63
-138.33
-113.42
-87.44
-60.95
-34.90
-10.53
10.75
27.90
40.58
49.28
55.19
59.65
63.66
67.71
71.77
75.67
79.52
83.75
89.09
96.07
104.59
113.72
122.09
128.24
131.07
129.91
124.54
114.99
101.45
84.31
64.47
43.60
24.10
8.70
-0.48
-2.95
-0.19
4.90
9.43
12.06
13.68
16.72
23.56
34.91
49.05
62.79
73.15
79.03
81.64
83.40
86.47
91.53
97.68
103.23
106.97
108.88
110.18
112.57
117.46
125.31
135.39
146.17
155.89
163.24
167.76
169.90
170.73
171.35
172.38
173.58
173.97
172.09
166.34
155.21
137.52
112.72
81.25
44.94
7.03
-28.03
-55.41
-70.88
-72.05
-59.43
-36.75
-10.43
12.08
24.36
23.00
8.24
-16.73
-47.75
-81.64
-117.14
-154.25
-192.66
-230.42
-263.71
-287.93
-299.38
-296.59
-280.65
-254.64
-222.46
-187.80
-153.61
-121.94
-94.17
-71.17
-53.59
-41.88
-36.28
-36.76
-42.72
-52.81
-64.99
-76.88
-86.29
-91.75
-92.94
-90.60
-86.13
-80.89
-75.72
-70.62
-65.18
-59.21
-53.19
-48.38
-46.23
-47.52
-51.73
-57.18
-61.73
-63.92
-63.58
-61.74
-59.77
-58.37
-56.98
-53.97
-47.59
-36.99
-22.76
-6.83
8.26
20.32
28.00
31.02
29.87
25.46
18.92
11.46
4.30
-1.46
-5.14
-6.64
-6.42
-5.28
-3.97
-2.91
-2.14
-1.47
-0.80
-0.27
-0.10
-0.45
-1.11
-1.49
-0.91
1.00
4.01
7.31
9.92
11.23
11.33
10.95
10.97
11.85
13.35
14.60
14.63
12.99
9.96
6.47
3.59
2.02
1.78
2.35
3.04
3.36
3.31
3.34
4.12
6.21
9.81
14.65
20.17
25.73
30.94
35.73
40.28
44.75
48.99
52.54
54.81
55.53
54.92
53.66
52.56
52.09
52.18
52.22
51.56
49.79
47.04
43.80
40.61
37.77
35.23
32.75
30.10
27.32
24.62
22.21
20.04
17.71
14.69
10.62
5.59
0.25
-4.49
-7.92
-9.92
-11.05
-12.38
-14.89
-19.06
-24.58
-30.40
-35.23
-38.03
-38.40
-36.66
-33.67
-30.34
-27.30
-24.83
-22.91
-21.40
-20.14
-18.87
-17.20
-14.60
-10.62
-5.26
0.90
6.83
11.51
14.39
15.72
16.39
17.47
19.70
23.15
27.33
31.55
35.19
37.94
39.66
40.26
39.60
37.59
34.32
30.22
26.03
22.48
20.03
18.69
18.02
17.40
16.29
14.45
12.00
9.25
6.56
4.18
2.26
0.88
0.07
-0.19
0.00
0.44
0.85
0.93
0.57
-0.16
-0.96
-1.52
-1.72
-1.73
-1.98
-3.01
-5.25
-8.79
-13.37
-18.44
-23.24
-27.01
-29.09
-29.11
-27.01
-23.14
-18.11
-12.63
-7.31
-2.56
1.47
4.71
7.11
8.66
9.40
9.52
9.36
9.25
9.42
9.90
10.61
11.44
12.35
13.42
14.69
16.10
17.49
18.65
19.41
19.75
19.74
19.51
19.11
18.58
17.87
17.00
16.00
14.94
13.87
12.79
11.64
10.40
9.07
7.73
6.49
5.47
4.69
4.04
3.32
2.33
0.96
-0.72
-2.58
-4.50
-6.47
-8.57
-10.88
-13.33
-15.67
-17.54
-18.70
-19.13
-19.03
-18.61
-17.97
-16.95
-15.29
-12.80
-9.56
-5.90
-2.27
0.99
3.78
6.14
8.18
9.87
11.03
11.47
11.08
10.03
8.69
7.53
6.92
6.95
7.53
8.41
9.42
10.50
11.71
13.12
14.67
16.10
17.02
17.06
16.05
14.12
11.65
9.17
7.06
5.51
4.39
3.40
2.24
0.73
-1.06
-2.97
-4.77
-6.38
-7.87
-9.38
-11.10
-13.08
-15.29
-17.61
-19.91
-22.12
-24.16
-25.96
-27.41
-28.33
-28.46
-27.63
-25.71
-22.81
-19.22
-15.34
-11.57
-8.20
-5.34
-2.90
-0.73
1.31
3.36
5.41
7.48
9.52
11.45
13.18
14.54
15.37
15.52
14.93
13.71
12.11
10.49
9.26
8.75
9.07
10.16
11.67
13.20
14.36
14.93
14.80
14.05
12.78
11.09
9.09
6.91
4.73
2.78
1.32
0.48
0.28
0.56
1.08
1.59
1.92
2.00
1.77
1.20
0.25
-1.06
-2.61
-4.19
-5.57
-6.70
-7.72
-8.96
-10.78
-13.33
-16.46
-19.83
-23.00
-25.61
-27.51
-28.68
-29.11
-28.74
-27.43
-25.07
-21.73
-17.68
-13.45
-9.67
-6.83
-5.15
-4.42
-4.12
-3.66
-2.66
-1.18
0.31
1.11
0.71
-0.92
-3.21
-5.12
-5.67
-4.38
-1.58
1.62
3.84
4.13
2.37
-0.64
-3.63
-5.52
-5.82
-4.62
-2.15
1.50
6.23
11.26
14.82
14.63
9.40
0.38
-8.37
-11.53
-5.30
10.19
30.70
50.04
63.29
69.14
69.76
68.64
67.83
66.76
63.15
55.29
43.86
31.97
23.36
20.32
22.39
26.78
30.02
29.63
25.09
17.65
9.18
1.09
-6.41
-14.14
-23.28
-34.44
-47.23
-60.33
-71.95
-80.62
-85.66
-87.24
-86.22
-83.69
-80.58
-77.45
-74.18
-70.13
-64.34
-55.91
-44.50
-30.48
-14.91
0.95
15.95
29.28
40.36
48.64
53.56
54.65
51.96
46.17
38.51
30.33
22.61
15.71
9.49
3.74
-1.59
-6.28
-9.99
-12.53
-14.01
-14.77
-15.18
-15.45
-15.53
-15.28
-14.61
-13.60
-12.35
-10.88
-8.94
-6.15
-2.26
2.54
7.47
11.40
13.26
12.52
9.39
4.81
0.06
-3.67
-5.62
-5.66
-4.19
-1.88
0.61
2.90
4.89
6.64
8.14
9.23
9.65
9.24
8.12
6.75
5.66
5.22
5.35
5.55
5.18
3.85
1.65
-0.89
-3.04
-4.23
-4.40
-3.98
-3.77
-4.49
-6.47
-9.42
-12.57
-15.01
-16.11
-15.86
-14.76
-13.54
-12.75
-12.60
-12.98
-13.73
-14.85
-16.47
-18.71
-21.33
-23.76
-25.26
-25.28
-23.77
-21.15
-18.08
-15.14
-12.58
-10.34
-8.22
-5.97
-3.57
-1.10
1.22
3.14
4.50
5.22
5.41
5.34
5.40
5.93
7.03
8.55
10.10
11.28
11.84
11.88
11.66
11.50
11.51
11.54
11.25
10.25
8.40
5.80
2.78
-0.24
-3.00
-5.41
-7.53
-9.47
-11.25
-12.73
-13.73
-14.17
-14.18
-14.12
-14.44
-15.47
-17.27
-19.52
-21.69
-23.24
-23.83
-23.34
-21.85
-19.50
-16.41
-12.69
-8.47
-4.00
0.39
4.33
7.58
10.05
11.87
13.26
14.43
15.57
16.72
17.80
18.73
19.45
19.92
20.09
19.90
19.26
18.13
16.61
14.96
13.52
12.58
12.26
12.47
13.06
13.89
14.96
16.28
17.83
19.36
20.52
20.95
20.47
19.20
17.41
15.43
13.40
11.30
8.99
6.37
3.44
0.32
-2.87
-6.05
-9.20
-12.36
-15.48
-18.39
-20.83
-22.48
-23.03
-22.31
-20.28
-17.08
-13.01
-8.51
-4.06
-0.12
3.03
5.35
6.98
8.18
9.21
10.19
11.20
12.25
13.34
14.52
15.80
17.06
18.14
18.79
18.83
18.21
16.98
15.29
13.32
11.32
9.53
8.21
7.48
7.33
7.63
8.15
8.69
9.13
9.42
9.57
9.57
9.38
8.98
8.39
7.63
6.74
5.72
4.53
3.20
1.75
0.26
-1.18
-2.49
-3.63
-4.50
-5.07
-5.40
-5.74
-6.51
-8.18
-11.07
-15.07
-19.68
-24.09
-27.51
-29.40
-29.66
-28.54
-26.49
-23.97
-21.29
-18.61
-15.95
-13.29
-10.61
-7.90
-5.18
-2.48
0.05
2.20
3.76
4.61
4.81
4.64
4.48
4.66
5.29
6.25
7.29
8.20
8.94
9.67
10.60
11.79
13.08
14.18
14.80
14.87
14.54
14.07
13.66
13.29
12.78
11.89
10.51
8.75
6.91
5.29
4.16
3.57
3.39
3.33
3.00
2.12
0.63
-1.29
-3.26
-4.96
-6.26
-7.34
-8.58
-10.29
-12.58
-15.27
-17.91
-19.98
-21.04
-20.87
-19.50
-17.23
-14.52
-11.81
-9.42
-7.37
-5.54
-3.71
-1.81
0.07
1.69
2.86
3.60
4.15
4.84
5.94
7.49
9.28
10.98
12.29
13.09
13.48
13.72
14.03
14.53
15.18
15.82
16.28
16.45
16.30
15.81
14.99
13.84
12.38
10.70
8.85
6.92
4.97
3.11
1.54
0.49
0.13
0.45
1.24
2.11
2.70
2.80
2.38
1.53
0.39
-1.01
-2.64
-4.50
-6.53
-8.67
-10.81
-12.87
-14.82
-16.68
-18.48
-20.16
-21.60
-22.54
-22.69
-21.84
-19.96
-17.27
-14.14
-10.93
-7.89
-5.12
-2.54
-0.16
1.96
3.60
4.59
4.87
4.62
4.24
4.15
4.63
5.71
7.15
8.58
9.67
10.24
10.34
10.16
9.94
9.88
10.11
10.66
11.48
12.41
13.17
13.43
12.91
11.56
9.58
7.39
5.50
4.26
3.71
3.57
3.38
2.67
1.16
-1.17
-4.08
-7.10
-9.69
-11.37
-11.83
-11.04
-9.23
-6.83
-4.35
-2.27
-0.95
-0.55
-1.08
-2.33
-4.04
-5.92
-7.80
-9.68
-11.63
-13.73
-15.92
-18.03
-19.76
-20.87
-21.17
-20.61
-19.19
-16.99
-14.19
-11.09
-8.11
-5.65
-3.94
-2.97
-2.49
-2.21
-1.91
-1.56
-1.20
-0.87
-0.46
0.22
1.38
3.04
5.03
7.08
8.91
10.37
11.44
12.15
12.55
12.60
12.25
11.54
10.56
9.44
8.24
6.97
5.58
4.10
2.69
1.61
1.11
1.27
1.88
2.49
2.61
1.87
0.18
-2.23
-4.98
-7.67
-10.06
-12.10
-13.84
-15.37
-16.73
-17.81
-18.44
-18.49
-17.90
-16.80
-15.36
-13.80
-12.26
-10.76
-9.26
-7.73
-6.15
-4.59
-3.16
-2.01
-1.26
-1.00
-1.23
-1.81
-2.51
-2.99
-2.98
-2.28
-0.90
1.02
3.23
5.45
7.35
8.52
8.61
7.46
5.21
2.37
-0.40
-2.56
-3.94
-4.75
-5.39
-6.15
-7.01
-7.64
-7.73
-7.14
-6.13
-5.14
-4.57
-4.57
-4.97
-5.41
-5.53
-5.18
-4.48
-3.73
-3.29
-3.50
-4.52
-6.27
-8.51
-10.85
-12.86
-14.19
-14.62
-14.12
-12.82
-10.94
-8.70
-6.27
-3.81
-1.45
0.68
2.44
3.73
4.60
5.21
5.94
7.19
9.24
12.11
15.50
18.93
21.90
24.11
25.44
25.95
25.79
25.06
23.92
22.50
20.96
19.38
17.76
15.96
13.83
11.34
8.63
5.93
3.50
1.37
-0.59
-2.59
-4.74
-6.93
-8.89
-10.38
-11.30
-11.79
-12.19
-12.80
-13.85
-15.32
-17.06
-18.90
-20.77
-22.71
-24.82
-27.17
-29.61
-31.76
-33.14
-33.31
-32.05
-29.48
-26.01
-22.14
-18.31
-14.77
-11.55
-8.57
-5.72
-2.91
-0.15
2.50
4.96
7.10
8.86
10.24
11.28
12.09
12.76
13.38
13.97
14.56
15.17
15.83
16.50
17.13
17.59
17.81
17.80
17.63
17.38
17.03
16.43
15.38
13.70
11.43
8.78
6.09
3.72
1.85
0.45
-0.73
-2.04
-3.84
-6.36
-9.59
-13.26
-16.93
-20.07
-22.23
-23.11
-22.58
-20.74
-17.81
-14.11
-10.04
-6.01
-2.38
0.66
3.13
5.15
6.90
8.44
9.72
10.63
11.12
11.29
11.42
11.75
12.45
13.46
14.60
15.64
16.43
16.94
17.25
17.45
17.56
17.55
17.32
16.84
16.11
15.15
14.07
12.94
11.84
10.80
9.79
8.68
7.35
5.68
3.66
1.39
-0.93
-3.11
-5.02
-6.67
-8.23
-9.89
-11.84
-14.20
-16.94
-19.97
-23.09
-26.07
-28.58
-30.26
-30.73
-29.69
-27.02
-22.89
-17.73
-12.12
-6.69
-1.91
2.00
5.02
7.30
9.01
10.32
11.31
12.10
12.81
13.54
14.38
15.31
16.25
17.05
17.62
17.96
18.18
18.47
19.01
19.89
21.09
22.44
23.70
24.61
24.94
24.58
23.56
22.11
20.59
19.32
18.50
18.11
17.91
17.63
17.04
16.10
14.87
13.45
11.84
9.99
7.82
5.34
2.65
-0.11
-2.90
-5.77
-8.82
-12.03
-15.20
-18.06
-20.44
-22.44
-24.44
-26.89
-30.01
-33.60
-37.03
-39.52
-40.44
-39.55
-37.00
-33.22
-28.71
-23.86
-18.96
-14.21
-9.78
-5.78
-2.31
0.66
3.21
5.47
7.57
9.55
11.44
13.19
14.77
16.12
17.26
18.25
19.19
20.20
21.33
22.51
23.47
23.94
23.65
22.61
21.06
19.41
18.07
17.21
16.74
16.32
15.57
14.23
12.27
9.92
7.49
5.26
3.37
1.80
0.44
-0.85
-2.18
-3.62
-5.19
-6.87
-8.64
-10.44
-12.21
-13.92
-15.58
-17.27
-19.09
-21.08
-23.08
-24.72
-25.50
-24.99
-23.01
-19.72
-15.52
-10.96
-6.44
-2.23
1.60
4.98
7.84
10.07
11.62
12.52
12.93
13.03
12.93
12.70
12.38
12.08
11.99
12.29
13.03
14.12
15.30
16.34
17.05
17.41
17.42
17.12
16.52
15.63
14.49
13.16
11.72
10.20
8.67
7.17
5.82
4.71
3.86
3.20
2.50
1.52
0.12
-1.70
-3.82
-6.02
-8.09
-9.96
-11.60
-13.13
-14.66
-16.38
-18.49
-21.20
-24.59
-28.51
-32.58
-36.13
-38.46
-39.01
-37.54
-34.25
-29.65
-24.38
-18.98
-13.81
-9.05
-4.76
-0.99
2.27
5.05
7.42
9.45
11.21
12.70
13.87
14.71
15.26
15.68
16.13
16.73
17.51
18.39
19.24
19.99
20.62
21.16
21.66
22.09
22.38
22.41
22.11
21.46
20.55
19.54
18.54
17.59
16.66
15.63
14.41
12.96
11.34
9.68
8.11
6.74
5.58
4.62
3.77
2.97
2.08
0.97
-0.50
-2.38
-4.67
-7.20
-9.71
-11.96
-13.81
-15.32
-16.78
-18.51
-20.85
-23.90
-27.48
-31.13
-34.20
-36.01
-36.06
-34.16
-30.44
-25.42
-19.73
-14.06
-8.92
-4.64
-1.32
1.08
2.73
3.91
4.91
6.01
7.36
8.92
10.45
11.60
12.18
12.16
11.76
11.30
11.02
11.01
11.23
11.59
12.06
12.61
13.23
13.85
14.32
14.55
14.55
14.44
14.41
14.58
14.96
15.36
15.52
15.19
14.24
12.71
10.77
8.64
6.51
4.45
2.38
0.16
-2.28
-4.95
-7.68
-10.28
-12.58
-14.53
-16.20
-17.78
-19.48
-21.49
-23.93
-26.68
-29.44
-31.72
-32.95
-32.70
-30.82
-27.48
-23.09
-18.08
-12.82
-7.60
-2.68
1.61
4.84
6.64
6.88
5.74
3.71
1.44
-0.50
-1.76
-2.21
-1.93
-1.05
0.32
2.12
4.29
6.74
9.35
11.92
14.28
16.26
17.76
18.72
19.14
19.06
18.57
17.78
16.81
15.72
14.56
13.35
12.09
10.75
9.32
7.83
6.33
4.91
3.67
2.66
1.82
0.97
-0.12
-1.62
-3.53
-5.67
-7.77
-9.61
-11.15
-12.54
-14.08
-16.05
-18.63
-21.79
-25.35
-28.94
-32.11
-34.41
-35.37
-34.65
-32.14
-27.97
-22.53
-16.37
-10.09
-4.21
0.90
5.08
8.32
10.74
12.51
13.82
14.80
15.58
16.23
16.80
17.31
17.78
18.19
18.55
18.85
19.08
19.23
19.30
19.29
19.20
19.03
18.76
18.39
17.85
17.07
16.00
14.63
13.00
11.22
9.46
7.84
6.43
5.22
4.08
2.86
1.41
-0.40
-2.55
-4.94
-7.39
-9.73
-11.90
-13.95
-16.02
-18.27
-20.84
-23.74
-26.89
-30.03
-32.80
-34.75
-35.43
-34.50
-31.85
-27.64
-22.28
-16.36
-10.46
-5.07
-0.48
3.21
6.07
8.23
9.80
10.87
11.48
11.71
11.71
11.65
11.75
12.13
12.79
13.64
14.52
15.34
16.04
16.67
17.26
17.77
18.07
18.01
17.48
16.48
15.09
13.47
11.74
9.92
7.93
5.64
2.99
0.04
-3.04
-6.02
-8.74
-11.14
-13.35
-15.57
-17.99
-20.72
-23.75
-26.95
-30.10
-32.91
-35.00
-35.93
-35.32
-32.94
-28.81
-23.27
-16.90
-10.39
-4.43
0.54
4.31
7.00
8.90
10.33
11.55
12.68
13.70
14.60
15.40
16.19
17.07
18.09
19.17
20.19
21.02
21.65
22.21
22.86
23.72
24.73
25.66
26.21
26.13
25.32
23.92
22.16
20.33
18.59
16.98
15.43
13.82
12.10
10.36
8.71
7.35
6.34
5.58
4.75
3.45
1.30
-1.86
-5.92
-10.51
-15.12
-19.30
-22.80
-25.58
-27.86
-29.99
-32.37
-35.29
-38.78
-42.55
-45.90
-47.92
-47.74
-44.85
-39.22
-31.40
-22.28
-12.91
-4.25
2.96
8.32
11.80
13.68
14.53
14.93
15.39
16.14
17.12
18.17
19.07
19.73
20.12
20.30
20.34
20.28
20.23
20.28
20.51
20.91
21.35
21.66
21.66
21.26
20.51
19.46
18.20
16.85
15.49
14.24
13.21
12.42
11.81
11.24
10.59
9.77
8.83
7.80
6.68
5.36
3.69
1.55
-1.02
-3.85
-6.64
-9.13
-11.15
-12.73
-14.02
-15.28
-16.84
-18.95
-21.79
-25.31
-29.22
-33.04
-36.17
-38.08
-38.37
-36.93
-33.85
-29.46
-24.18
-18.52
-12.94
-7.85
-3.47
0.12
2.98
5.21
6.92
8.18
9.05
9.59
9.92
10.17
10.46
10.84
11.40
12.21
13.35
14.86
16.63
18.38
19.74
20.38
20.17
19.27
18.00
16.69
15.56
14.60
13.70
12.75
11.72
10.68
9.70
8.84
8.01
7.09
6.02
4.77
3.38
1.91
0.35
-1.32
-3.13
-5.07
-7.12
-9.23
-11.41
-13.80
-16.56
-19.87
-23.80
-28.24
-32.84
-36.97
-39.88
-40.88
-39.53
-35.85
-30.38
-23.95
-17.48
-11.65
-6.77
-2.77
0.57
3.46
5.97
8.01
9.50
10.47
11.12
11.70
12.39
13.21
14.02
14.65
15.04
15.23
15.37
15.59
15.94
16.35
16.78
17.17
17.48
17.70
17.82
17.78
17.54
17.11
16.54
15.92
15.34
14.83
14.42
14.07
13.69
13.12
12.27
11.06
9.56
7.92
6.33
4.88
3.54
2.18
0.64
-1.20
-3.37
-5.81
-8.41
-11.07
-13.72
-16.30
-18.76
-21.09
-23.37
-25.80
-28.60
-31.87
-35.42
-38.75
-41.11
-41.80
-40.37
-36.80
-31.53
-25.25
-18.73
-12.59
-7.30
-3.10
-0.06
2.00
3.38
4.48
5.64
7.02
8.63
10.34
11.96
13.36
14.46
15.24
15.70
15.93
16.06
16.23
16.56
17.06
17.59
17.94
17.92
17.40
16.47
15.31
14.11
13.06
12.16
11.33
10.42
9.35
8.12
6.84
5.56
4.30
2.98
1.47
-0.31
-2.33
-4.43
-6.43
-8.21
-9.75
-11.17
-12.63
-14.36
-16.55
-19.35
-22.74
-26.52
-30.28
-33.45
-35.42
-35.70
-34.02
-30.42
-25.19
-18.87
-12.10
-5.59
0.11
4.63
7.90
10.12
11.64
12.73
13.58
14.17
14.48
14.53
14.50
14.59
14.98
15.71
16.64
17.55
18.25
18.66
18.83
18.85
18.82
18.73
18.53
18.16
17.53
16.66
15.62
14.53
13.46
12.42
11.36
10.17
8.78
7.19
5.42
3.55
1.58
-0.53
-2.85
-5.38
-8.08
-10.79
-13.37
-15.68
-17.70
-19.49
-21.20
-23.01
-25.12
-27.73
-30.91
-34.55
-38.26
-41.42
-43.30
-43.35
-41.29
-37.28
-31.82
-25.52
-18.96
-12.59
-6.68
-1.42
3.04
6.57
9.17
10.93
12.11
13.03
13.97
15.06
16.28
17.48
18.49
19.25
19.82
20.38
21.10
22.08
23.26
24.46
25.42
25.95
26.04
25.78
25.38
24.96
24.57
24.09
23.37
22.28
20.82
19.11
17.33
15.63
14.08
12.69
11.38
10.08
8.75
7.35
5.87
4.32
2.72
1.11
-0.54
-2.31
-4.33
-6.76
-9.63
-12.84
-16.10
-19.06
-21.44
-23.20
-24.55
-25.91
-27.70
-30.22
-33.40
-36.95
-40.29
-42.84
-44.06
-43.57
-41.23
-37.11
-31.56
-25.15
-18.54
-12.43
-7.33
-3.46
-0.75
1.09
2.50
3.86
5.43
7.28
9.29
11.25
12.93
14.22
15.15
15.85
16.51
17.23
18.04
18.85
19.58
20.16
20.60
20.92
21.06
20.97
20.51
19.62
18.32
16.73
15.02
13.34
11.76
10.23
8.66
6.95
5.12
3.28
1.54
-0.03
-1.51
-3.07
-4.88
-6.98
-9.24
-11.45
-13.40
-15.13
-16.88
-19.06
-21.97
-25.58
-29.50
-33.00
-35.37
-36.04
-34.89
-32.13
-28.19
-23.54
-18.53
-13.41
-8.42
-3.84
0.08
3.19
5.61
7.66
9.69
11.94
14.28
16.40
17.93
18.74
18.94
18.89
18.92
19.17
19.56
19.88
19.97
19.83
19.57
19.29
18.98
18.56
17.97
17.17
16.24
15.31
14.43
13.59
12.66
11.53
10.12
8.43
6.51
4.41
2.19
-0.09
-2.35
-4.49
-6.48
-8.31
-10.04
-11.79
-13.61
-15.50
-17.37
-19.16
-20.89
-22.69
-24.75
-27.26
-30.25
-33.51
-36.64
-39.09
-40.28
-39.79
-37.45
-33.40
-28.07
-22.03
-15.88
-10.10
-4.99
-0.67
2.89
5.79
8.12
9.98
11.46
12.69
13.81
14.91
15.96
16.88
17.57
18.01
18.31
18.63
19.14
19.88
20.76
21.59
22.21
22.51
22.46
22.08
21.39
20.42
19.22
17.90
16.58
15.35
14.17
12.95
11.55
9.91
8.06
6.10
4.18
2.38
0.69
-0.96
-2.67
-4.51
-6.45
-8.40
-10.25
-11.88
-13.31
-14.68
-16.21
-18.20
-20.83
-24.15
-27.97
-31.88
-35.33
-37.71
-38.47
-37.28
-34.09
-29.16
-23.02
-16.35
-9.84
-4.07
0.60
4.09
6.54
8.22
9.44
10.36
11.07
11.53
11.70
11.61
11.39
11.24
11.32
11.69
12.34
13.18
14.12
15.08
15.99
16.77
17.27
17.35
16.96
16.12
14.96
13.70
12.52
11.55
10.76
10.03
9.13
7.89
6.22
4.14
1.77
-0.72
-3.21
-5.61
-7.90
-10.11
-12.30
-14.60
-17.15
-20.09
-23.40
-26.87
-30.07
-32.42
-33.35
-32.49
-29.77
-25.47
-20.15
-14.46
-8.97
-4.04
0.17
3.68
6.52
8.73
10.32
11.30
11.80
12.05
12.35
12.91
13.83
15.00
16.27
17.48
18.55
19.53
20.45
21.36
22.20
22.88
23.29
23.31
22.94
22.24
21.33
20.31
19.24
18.13
16.97
15.69
14.20
12.40
10.19
7.52
4.49
1.37
-1.49
-3.77
-5.36
-6.41
-7.29
-8.39
-9.97
-12.03
-14.40
-16.84
-19.09
-21.01
-22.56
-23.78
-24.81
-25.84
-27.09
-28.69
-30.61
-32.59
-34.18
-34.88
-34.23
-31.93
-27.98
-22.60
-16.28
-9.66
-3.41
1.90
5.93
8.63
10.19
11.00
11.47
11.97
12.70
13.67
14.79
15.94
16.98
17.84
18.43
18.75
18.79
18.58
18.28
18.05
18.07
18.37
18.87
19.38
19.69
19.69
19.37
18.79
18.03
17.19
16.31
15.46
14.65
13.84
12.95
11.85
10.42
8.63
6.61
4.55
2.69
1.12
-0.22
-1.55
-3.10
-5.04
-7.32
-9.74
-12.02
-13.98
-15.64
-17.28
-19.25
-21.88
-25.22
-29.05
-32.87
-36.01
-37.90
-38.10
-36.48
-33.14
-28.44
-22.86
-16.94
-11.23
-6.19
-2.11
0.90
2.92
4.22
5.14
5.96
6.80
7.57
8.04
8.00
7.42
6.55
5.82
5.72
6.53
8.27
10.64
13.21
15.57
17.40
18.58
19.10
18.98
18.31
17.18
15.72
14.07
12.38
10.74
9.19
7.65
5.99
4.08
1.85
-0.62
-3.13
-5.43
-7.29
-8.70
-9.77
-10.77
-12.00
-13.72
-16.05
-18.99
-22.36
-25.78
-28.76
-30.74
-31.24
-29.99
-27.04
-22.67
-17.40
-11.77
-6.29
-1.35
2.83
6.19
8.81
10.84
12.47
13.81
14.92
15.77
16.32
16.62
16.77
16.89
17.10
17.44
17.87
18.31
18.73
19.12
19.50
19.89
20.21
20.40
20.37
20.08
19.57
18.90
18.13
17.28
16.38
15.44
14.45
13.42
12.33
11.17
9.92
8.57
7.14
5.68
4.22
2.81
1.46
0.14
-1.19
-2.60
-4.14
-5.86
-7.78
-9.89
-12.17
-14.58
-17.09
-19.67
-22.35
-25.24
-28.44
-31.95
-35.58
-38.88
-41.23
-42.07
-41.09
-38.34
-34.24
-29.31
-24.06
-18.84
-13.90
-9.46
-5.71
-2.80
-0.65
0.99
2.50
4.18
6.16
8.30
10.38
12.22
13.80
15.23
16.64
18.12
19.62
21.05
22.34
23.45
24.33
24.91
25.04
24.64
23.71
22.44
21.11
20.01
19.25
18.76
18.31
17.62
16.54
15.07
13.40
11.74
10.23
8.89
7.61
6.28
4.84
3.33
1.85
0.44
-0.92
-2.37
-4.04
-6.01
-8.21
-10.49
-12.69
-14.74
-16.75
-18.91
-21.47
-24.50
-27.86
-31.17
-33.85
-35.32
-35.05
-32.80
-28.62
-22.86
-16.15
-9.22
-2.78
2.60
6.61
9.20
10.53
10.90
10.72
10.34
10.03
9.88
9.81
9.65
9.24
8.56
7.80
7.27
7.22
7.71
8.57
9.47
10.10
10.35
10.27
10.07
9.86
9.68
9.38
8.82
7.94
6.78
5.55
4.42
3.53
2.86
2.30
1.70
0.98
0.09
-0.96
-2.21
-3.74
-5.67
-8.05
-10.81
-13.72
-16.50
-18.98
-21.15
-23.28
-25.73
-28.72
-32.21
-35.75
-38.65
-40.17
-39.77
-37.30
-32.97
-27.29
-20.91
-14.44
-8.40
-3.14
1.13
4.37
6.68
8.26
9.38
10.29
11.19
12.22
13.44
14.81
16.20
17.44
18.39
19.03
19.51
20.10
21.04
22.35
23.82
25.04
25.66
25.52
24.74
23.61
22.48
21.50
20.66
19.81
18.84
17.70
16.44
15.15
13.88
12.62
11.36
10.00
8.50
6.78
4.78
2.54
0.15
-2.25
-4.53
-6.59
-8.42
-10.02
-11.40
-12.49
-13.25
-13.78
-14.39
-15.55
-17.69
-20.96
-25.02
-29.19
-32.60
-34.52
-34.62
-32.90
-29.68
-25.36
-20.31
-14.80
-9.07
-3.37
2.04
6.92
11.13
14.57
17.18
18.86
19.50
18.99
17.35
14.78
11.68
8.56
5.89
4.00
3.00
2.82
3.23
4.00
4.94
5.95
7.00
8.17
9.48
10.93
12.34
13.45
13.94
13.60
12.43
10.72
8.89
7.32
6.16
5.28
4.36
3.11
1.38
-0.75
-3.02
-5.15
-7.02
-8.64
-10.14
-11.57
-12.88
-13.95
-14.75
-15.47
-16.55
-18.50
-21.57
-25.54
-29.67
-32.90
-34.33
-33.52
-30.60
-26.20
-21.07
-15.82
-10.80
-6.12
-1.82
2.08
5.48
8.33
10.58
12.27
13.48
14.29
14.77
14.98
15.00
14.97
15.06
15.41
16.08
17.02
18.06
18.95
19.46
19.49
19.05
18.32
17.53
16.86
16.39
16.09
15.82
15.44
14.83
13.91
12.66
11.09
9.23
7.18
5.02
2.88
0.77
-1.35
-3.56
-5.91
-8.28
-10.34
-11.76
-12.31
-12.07
-11.53
-11.35
-12.18
-14.32
-17.71
-21.95
-26.56
-31.13
-35.34
-38.85
-41.30
-42.22
-41.24
-38.21
-33.34
-27.08
-20.05
-12.81
-5.85
0.44
5.75
9.90
12.90
14.94
16.37
17.52
18.59
19.63
20.57
21.35
22.03
22.76
23.66
24.75
25.90
26.89
27.50
27.63
27.38
26.97
26.66
26.62
26.78
26.86
26.43
25.13
22.84
19.74
16.24
12.76
9.59
6.76
4.18
1.73
-0.57
-2.61
-4.30
-5.70
-7.07
-8.73
-10.88
-13.37
-15.90
-18.06
-19.67
-20.97
-22.51
-24.89
-28.45
-33.01
-37.87
-42.08
-44.74
-45.34
-43.81
-40.49
-35.84
-30.36
-24.39
-18.28
-12.37
-7.07
-2.72
0.56
2.93
4.79
6.58
8.59
10.78
12.88
14.52
15.52
15.96
16.15
16.44
17.02
17.84
18.69
19.40
19.93
20.39
20.90
21.46
21.87
21.83
21.12
19.77
18.01
16.15
14.39
12.68
10.83
8.64
6.06
3.22
0.31
-2.54
-5.34
-8.15
-11.05
-14.04
-17.06
-20.06
-23.05
-26.13
-29.35
-32.67
-35.83
-38.38
-39.76
-39.50
-37.35
-33.38
-28.00
-21.79
-15.38
-9.35
-4.06
0.35
3.95
6.91
9.42
11.62
13.53
15.06
16.06
16.45
16.26
15.74
15.24
15.13
15.67
16.87
18.54
20.33
21.86
22.86
23.22
22.99
22.30
21.34
20.26
19.16
18.04
16.87
15.61
14.27
12.94
11.72
10.71
9.90
9.15
8.28
7.11
5.56
3.63
1.42
-1.02
-3.65
-6.49
-9.46
-12.45
-15.29
-17.89
-20.26
-22.58
-25.13
-28.10
-31.54
-35.23
-38.71
-41.41
-42.73
-42.25
-39.79
-35.53
-29.89
-23.45
-16.82
-10.50
-4.78
0.18
4.36
7.75
10.37
12.28
13.60
14.50
15.21
15.94
16.74
17.58
18.34
18.87
19.17
19.35
19.61
20.15
21.03
22.12
23.12
23.70
23.62
22.88
21.69
20.35
19.10
18.04
17.03
15.84
14.26
12.23
9.88
7.47
5.23
3.32
1.72
0.36
-0.85
-1.95
-2.98
-4.06
-5.42
-7.38
-10.15
-13.75
-17.92
-22.15
-25.85
-28.55
-29.92
-29.87
-28.43
-25.74
-22.01
-17.55
-12.76
-8.06
-3.79
-0.12
2.93
5.45
7.52
9.15
10.24
10.71
10.62
10.20
9.82
9.85
10.54
11.85
13.59
15.48
17.24
18.72
19.82
20.45
20.46
19.76
18.30
16.20
13.75
11.33
9.26
7.72
6.70
6.06
5.63
5.23
4.74
4.01
2.89
1.25
-0.97
-3.65
-6.55
-9.37
-11.89
-14.11
-16.19
-18.45
-21.15
-24.37
-27.92
-31.34
-34.01
-35.35
-34.97
-32.72
-28.87
-23.90
-18.51
-13.34
-8.85
-5.17
-2.17
0.41
2.80
5.11
7.28
9.16
10.63
11.62
12.13
12.23
12.03
11.73
11.56
11.79
12.64
14.18
16.26
18.55
20.63
22.15
22.93
23.01
22.55
21.79
20.91
19.98
19.01
17.93
16.71
15.39
14.00
12.58
11.13
9.64
8.09
6.55
5.09
3.72
2.36
0.88
-0.92
-3.10
-5.62
-8.28
-10.86
-13.22
-15.37
-17.51
-19.90
-22.75
-26.07
-29.64
-32.99
-35.52
-36.65
-35.94
-33.29
-28.89
-23.16
-16.69
-10.09
-3.85
1.62
6.08
9.45
11.80
13.35
14.38
15.15
15.87
16.60
17.30
17.91
18.34
18.57
18.67
18.74
18.88
19.20
19.73
20.36
20.89
20.99
20.38
18.91
16.68
13.93
11.06
8.40
6.16
4.37
2.95
1.75
0.64
-0.46
-1.66
-3.03
-4.61
-6.41
-8.36
-10.39
-12.40
-14.35
-16.27
-18.24
-20.37
-22.78
-25.47
-28.29
-30.87
-32.71
-33.31
-32.37
-29.87
-26.10
-21.60
-16.91
-12.43
-8.36
-4.68
-1.28
1.93
4.92
7.54
9.60
10.96
11.65
11.84
11.81
11.81
12.01
12.43
13.01
13.71
14.52
15.44
16.42
17.30
17.86
17.89
17.35
16.35
15.12
13.89
12.78
11.74
10.65
9.32
7.67
5.71
3.54
1.33
-0.83
-2.88
-4.86
-6.82
-8.76
-10.57
-12.09
-13.14
-13.64
-13.75
-13.81
-14.28
-15.55
-17.78
-20.80
-24.15
-27.16
-29.17
-29.73
-28.66
-26.13
-22.46
-18.08
-13.36
-8.60
-4.07
0.01
3.46
6.17
8.12
9.43
10.28
10.87
11.30
11.58
11.67
11.51
11.17
10.84
10.74
11.12
12.08
13.53
15.24
16.90
18.25
19.13
19.52
19.49
19.14
18.60
17.96
17.25
16.50
15.73
14.94
14.13
13.31
12.45
11.52
10.52
9.45
8.36
7.32
6.38
5.50
4.53
3.25
1.48
-0.85
-3.63
-6.58
-9.32
-11.53
-13.13
-14.28
-15.38
-16.89
-19.13
-22.17
-25.74
-29.35
-32.44
-34.47
-35.06
-34.02
-31.41
-27.50
-22.73
-17.65
-12.71
-8.27
-4.51
-1.43
1.03
2.96
4.45
5.56
6.40
7.06
7.60
8.09
8.54
8.96
9.35
9.75
10.21
10.79
11.56
12.48
13.51
14.51
15.29
15.66
15.54
14.90
13.84
12.54
11.15
9.77
8.38
6.88
5.18
3.22
1.05
-1.24
-3.48
-5.54
-7.33
-8.82
-10.13
-11.40
-12.86
-14.75
-17.23
-20.30
-23.75
-27.12
-29.79
-31.20
-30.96
-29.06
-25.80
-21.67
-17.19
-12.76
-8.62
-4.88
-1.61
1.15
3.39
5.12
6.43
7.46
8.30
9.00
9.58
10.03
10.44
10.95
11.68
12.68
13.86
15.09
16.15
16.90
17.28
17.30
17.05
16.65
16.18
15.71
15.21
14.57
13.65
12.29
10.48
8.35
6.19
4.28
2.80
1.74
0.91
0.08
-0.93
-2.21
-3.74
-5.46
-7.30
-9.21
-11.20
-13.24
-15.37
-17.57
-19.88
-22.35
-24.99
-27.83
-30.77
-33.56
-35.83
-37.14
-37.08
-35.47
-32.39
-28.20
-23.44
-18.62
-14.16
-10.29
-7.05
-4.38
-2.17
-0.24
1.48
3.04
4.38
5.44
6.22
6.84
7.52
8.48
9.87
11.66
13.62
15.44
16.79
17.41
17.24
16.37
15.04
13.59
12.34
11.55
11.22
11.19
11.03
10.33
8.73
6.22
3.15
0.22
-1.74
-2.05
-0.49
2.63
6.56
10.34
13.15
14.51
14.31
12.70
9.93
6.24
1.88
-2.92
-7.85
-12.66
-17.13
-21.15
-24.63
-27.41
-29.23
-29.74
-28.66
-25.94
-21.85
-16.95
-11.89
-7.21
-3.26
-0.11
2.37
4.40
6.19
7.93
9.69
11.48
13.18
14.65
15.65
16.01
15.70
14.86
13.80
12.92
12.55
12.88
13.83
15.06
16.09
16.41
15.70
13.93
11.38
8.52
5.79
3.44
1.41
-0.52
-2.63
-5.01
-7.55
-9.98
-12.00
-13.44
-14.25
-14.53
-14.43
-14.18
-14.14
-14.73
-16.39
-19.26
-23.07
-26.98
-29.87
-30.68
-28.86
-24.58
-18.58
-11.89
-5.33
0.64
6.04
11.07
15.87
20.36
24.18
26.94
28.39
28.63
28.10
27.38
26.94
27.02
27.62
28.63
29.98
31.63
33.39
34.73
34.79
32.70
28.03
21.13
13.09
5.26
-1.25
-6.10
-9.59
-12.30
-14.62
-16.62
-18.08
-18.90
-19.24
-19.46
-19.85
-20.37
-20.60
-20.04
-18.48
-16.12
-13.55
-11.43
-10.14
-9.61
-9.42
-9.12
-8.52
-7.86
-7.73
-8.84
-11.72
-16.44
-22.50
-28.94
-34.53
-38.10
-38.93
-36.89
-32.48
-26.58
-20.15
-13.96
-8.48
-3.88
-0.14
2.81
5.06
6.77
8.13
9.38
10.66
12.01
13.31
14.41
15.22
15.81
16.38
17.16
18.30
19.83
21.57
23.33
24.89
26.12
26.97
27.36
27.22
26.45
24.98
22.92
20.51
18.10
15.97
14.18
12.53
10.73
8.49
5.77
2.75
-0.29
-3.06
-5.38
-7.12
-8.11
-8.19
-7.28
-5.57
-3.61
-2.13
-1.87
-3.27
-6.28
-10.44
-15.01
-19.22
-22.36
-23.91
-23.56
-21.28
-17.32
-12.17
-6.50
-0.92
4.07
8.24
11.54
14.06
15.90
17.17
17.93
18.25
18.20
17.85
17.31
16.63
15.86
15.01
14.08
13.08
12.00
10.87
9.69
8.49
7.32
6.28
5.51
5.06
4.93
4.99
5.05
4.97
4.68
4.16
3.40
2.36
0.93
-0.94
-3.17
-5.55
-7.80
-9.74
-11.38
-12.91
-14.63
-16.79
-19.52
-22.66
-25.87
-28.61
-30.33
-30.54
-29.03
-25.89
-21.59
-16.74
-11.99
-7.77
-4.22
-1.27
1.31
3.69
5.95
8.04
9.84
11.28
12.38
13.24
14.00
14.78
15.64
16.62
17.72
18.91
20.16
21.40
22.49
23.31
23.72
23.64
23.03
21.95
20.53
18.93
17.34
15.91
14.72
13.73
12.78
11.72
10.42
8.88
7.22
5.60
4.11
2.78
1.52
0.20
-1.32
-3.16
-5.39
-8.00
-10.86
-13.81
-16.61
-19.09
-21.22
-23.13
-25.09
-27.40
-30.22
-33.49
-36.88
-39.89
-41.90
-42.43
-41.20
-38.22
-33.79
-28.43
-22.72
-17.16
-12.12
-7.74
-3.99
-0.78
2.01
4.37
6.27
7.61
8.38
8.73
8.94
9.41
10.47
12.29
14.80
17.73
20.73
23.46
25.70
27.32
28.25
28.46
27.94
26.80
25.26
23.65
22.31
21.46
21.16
21.25
21.49
21.58
21.34
20.68
19.54
17.95
15.95
13.65
11.21
8.84
6.67
4.76
3.05
1.38
-0.38
-2.29
-4.30
-6.29
-8.13
-9.75
-11.17
-12.50
-13.86
-15.33
-16.93
-18.63
-20.40
-22.21
-23.96
-25.44
-26.33
-26.28
-24.97
-22.37
-18.69
-14.36
-9.89
-5.63
-1.82
1.51
4.31
6.53
8.09
8.95
9.20
9.04
8.73
8.46
8.30
8.17
7.98
7.69
7.33
7.04
6.96
7.19
7.72
8.44
9.13
9.53
9.44
8.83
7.86
6.81
5.90
5.16
4.44
3.51
2.22
0.61
-1.11
-2.75
-4.27
-5.87
-7.76
-10.07
-12.68
-15.29
-17.58
-19.44
-20.94
-22.33
-23.84
-25.61
-27.60
-29.63
-31.46
-32.80
-33.33
-32.81
-31.07
-28.18
-24.41
-20.14
-15.78
-11.59
-7.68
-4.04
-0.70
2.26
4.65
6.33
7.30
7.75
8.04
8.52
9.43
10.81
12.51
14.32
15.99
17.43
18.60
19.52
20.22
20.62
20.61
20.09
19.05
17.59
15.88
14.09
12.29
10.47
8.52
6.40
4.13
1.84
-0.34
-2.37
-4.30
-6.19
-8.02
-9.70
-11.06
-11.99
-12.56
-13.01
-13.72
-15.05
-17.20
-20.22
-23.93
-27.97
-31.87
-35.09
-37.11
-37.53
-36.18
-33.17
-28.81
-23.57
-17.93
-12.37
-7.26
-2.89
0.62
3.31
5.36
7.02
8.45
9.69
10.64
11.18
11.27
11.04
10.74
10.67
10.99
11.75
12.83
14.08
15.39
16.68
17.89
18.96
19.81
20.29
20.31
19.83
18.86
17.47
15.78
13.88
11.88
9.83
7.81
5.85
3.95
2.07
0.14
-1.92
-4.21
-6.80
-9.73
-12.99
-16.44
-19.85
-22.89
-25.22
-26.50
-26.52
-25.18
-22.51
-18.73
-14.20
-9.40
-4.88
-1.10
1.74
3.73
5.13
6.23
7.13
7.74
7.89
7.49
6.73
6.02
5.82
6.43
7.79
9.55
11.21
12.37
12.83
12.63
11.92
10.86
9.53
7.96
6.21
4.37
2.59
0.99
-0.40
-1.69
-3.12
-4.96
-7.41
-10.48
-13.97
-17.45
-20.41
-22.33
-22.78
-21.57
-18.73
-14.55
-9.56
-4.36
0.44
4.39
7.31
9.27
10.53
11.43
12.22
12.99
13.69
14.19
14.38
14.20
13.73
13.13
12.63
12.39
12.49
12.86
13.34
13.77
14.03
14.06
13.81
13.25
12.33
11.05
9.44
7.57
5.55
3.44
1.24
-1.05
-3.43
-5.83
-8.18
-10.36
-12.36
-14.19
-15.97
-17.82
-19.87
-22.22
-24.86
-27.63
-30.22
-32.20
-33.12
-32.71
-30.91
-27.86
-23.85
-19.18
-14.12
-8.81
-3.36
2.15
7.58
12.69
17.20
20.84
23.45
25.02
25.77
25.99
25.98
25.97
26.04
26.18
26.29
26.27
26.04
25.58
24.92
24.11
23.24
22.40
21.60
20.84
20.05
19.19
18.23
17.18
16.06
14.90
13.75
12.67
11.72
10.93
10.29
9.68
8.96
7.94
6.53
4.67
2.43
-0.08
-2.73
-5.41
-8.11
-10.91
-13.98
-17.45
-21.32
-25.31
-28.91
-31.48
-32.51
-31.74
-29.32
-25.70
-21.44
-17.08
-12.92
-9.07
-5.54
-2.31
0.59
3.07
5.06
6.56
7.66
8.49
9.23
9.98
10.77
11.56
12.31
12.92
13.37
13.66
13.88
14.15
14.54
15.01
15.40
15.46
14.98
13.91
12.35
10.58
8.86
7.33
5.98
4.64
3.13
1.36
-0.63
-2.69
-4.59
-6.19
-7.43
-8.36
-9.12
-9.93
-11.00
-12.53
-14.57
-17.00
-19.46
-21.37
-22.13
-21.26
-18.67
-14.63
-9.73
-4.72
-0.28
3.12
5.28
6.23
6.18
5.44
4.35
3.19
2.18
1.41
0.91
0.67
0.64
0.83
1.23
1.79
2.47
3.21
4.03
4.94
5.93
6.97
7.92
8.60
8.90
8.80
8.41
7.93
7.54
7.35
7.31
7.27
7.07
6.59
5.83
4.87
3.79
2.64
1.41
0.06
-1.38
-2.84
-4.20
-5.40
-6.44
-7.42
-8.40
-9.42
-10.46
-11.56
-12.85
-14.53
-16.80
-19.63
-22.76
-25.71
-27.93
-28.99
-28.71
-27.17
-24.60
-21.30
-17.57
-13.72
-10.00
-6.66
-3.83
-1.53
0.35
1.98
3.48
4.89
6.15
7.14
7.77
8.05
8.09
8.09
8.24
8.66
9.40
10.45
11.70
13.00
14.22
15.22
15.89
16.23
16.28
16.13
15.90
15.64
15.35
14.98
14.48
13.81
12.99
12.06
11.10
10.14
9.24
8.43
7.69
6.95
6.10
5.04
3.67
2.00
0.09
-1.94
-3.96
-5.93
-7.85
-9.80
-11.82
-13.95
-16.19
-18.46
-20.61
-22.38
-23.43
-23.41
-22.17
-19.81
-16.73
-13.51
-10.67
-8.50
-6.96
-5.79
-4.66
-3.37
-1.87
-0.22
1.45
3.07
4.57
5.88
6.92
7.62
7.98
8.12
8.24
8.53
9.11
9.96
10.92
11.78
12.33
12.46
12.18
11.61
10.89
10.19
9.63
9.26
9.00
8.72
8.25
7.44
6.25
4.71
2.91
0.97
-1.03
-3.03
-4.98
-6.84
-8.55
-10.06
-11.37
-12.51
-13.56
-14.64
-15.91
-17.56
-19.76
-22.49
-25.58
-28.59
-30.98
-32.27
-32.22
-30.84
-28.39
-25.19
-21.51
-17.57
-13.58
-9.75
-6.30
-3.36
-0.93
1.13
2.95
4.59
6.01
7.07
7.68
7.91
7.95
8.08
8.48
9.26
10.39
11.75
13.17
14.50
15.57
16.32
16.71
16.80
16.65
16.31
15.83
15.22
14.47
13.60
12.67
11.70
10.70
9.59
8.33
6.87
5.25
3.53
1.81
0.17
-1.31
-2.62
-3.76
-4.78
-5.75
-6.78
-8.05
-9.74
-11.98
-14.80
-18.04
-21.32
-24.18
-26.15
-26.92
-26.44
-24.88
-22.51
-19.59
-16.31
-12.80
-9.22
-5.75
-2.64
-0.09
1.81
3.10
3.94
4.50
4.95
5.35
5.73
6.10
6.46
6.85
7.30
7.83
8.46
9.20
9.97
10.69
11.22
11.42
11.25
10.74
10.04
9.29
8.56
7.80
6.83
5.52
3.87
2.01
0.16
-1.49
-2.90
-4.20
-5.57
-7.17
-9.03
-11.14
-13.39
-15.68
-17.83
-19.59
-20.62
-20.64
-19.53
-17.41
-14.62
-11.61
-8.65
-5.88
-3.22
-0.55
2.20
4.94
7.48
9.60
11.14
12.06
12.39
12.26
11.86
11.34
10.88
10.54
10.37
10.35
10.44
10.62
10.86
11.14
11.40
11.55
11.45
11.03
10.27
9.28
8.20
7.18
6.27
5.47
4.69
3.81
2.75
1.49
0.04
-1.57
-3.31
-5.14
-7.02
-8.88
-10.66
-12.32
-13.92
-15.57
-17.48
-19.82
-22.68
-25.93
-29.20
-31.94
-33.54
-33.54
-31.71
-28.19
-23.41
-18.00
-12.59
-7.70
-3.59
-0.25
2.52
4.96
7.22
9.30
11.08
12.44
13.39
14.08
14.70
15.43
16.31
17.27
18.20
19.03
19.82
20.69
21.67
22.66
23.47
23.87
23.77
23.22
22.43
21.62
20.94
20.39
19.82
19.07
18.04
16.71
15.20
13.68
12.23
10.89
9.60
8.28
6.89
5.45
3.97
2.49
1.00
-0.53
-2.08
-3.67
-5.32
-7.12
-9.22
-11.80
-14.88
-18.26
-21.51
-24.03
-25.33
-25.12
-23.43
-20.51
-16.73
-12.50
-8.17
-4.03
-0.31
2.84
5.38
7.34
8.88
10.18
11.38
12.58
13.76
14.83
15.67
16.20
16.35
16.17
15.72
15.07
14.27
13.36
12.38
11.38
10.41
9.48
8.57
7.60
6.49
5.29
4.10
3.07
2.28
1.66
0.98
-0.06
-1.71
-4.03
-6.86
-9.89
-12.73
-15.07
-16.76
-17.84
-18.58
-19.33
-20.48
-22.30
-24.79
-27.66
-30.39
-32.36
-33.06
-32.26
-30.01
-26.63
-22.56
-18.22
-13.94
-9.95
-6.37
-3.24
-0.52
1.88
4.04
6.00
7.79
9.35
10.65
11.67
12.45
13.06
13.62
14.22
14.93
15.76
16.66
17.51
18.13
18.37
18.15
17.53
16.68
15.82
15.12
14.60
14.18
13.73
13.13
12.37
11.51
10.64
9.82
9.05
8.21
7.18
5.88
4.25
2.35
0.27
-1.92
-4.14
-6.33
-8.48
-10.57
-12.60
-14.59
-16.61
-18.72
-20.97
-23.31
-25.54
-27.31
-28.23
-27.99
-26.46
-23.75
-20.13
-16.03
-11.85
-7.90
-4.40
-1.45
0.94
2.79
4.19
5.26
6.14
7.00
7.90
8.84
9.75
10.52
11.14
11.63
12.11
12.70
13.48
14.41
15.35
16.10
16.54
16.62
16.42
16.07
15.66
15.28
14.93
14.60
14.23
13.79
13.21
12.45
11.43
10.16
8.65
7.02
5.44
4.06
2.96
2.10
1.35
0.51
-0.60
-2.05
-3.82
-5.76
-7.69
-9.50
-11.18
-12.85
-14.58
-16.36
-18.03
-19.31
-19.87
-19.54
-18.27
-16.19
-13.52
-10.50
-7.37
-4.36
-1.69
0.43
1.89
2.70
3.02
3.13
3.34
3.94
5.08
6.73
8.70
10.69
12.38
13.55
14.17
14.39
14.43
14.55
14.82
15.18
15.41
15.32
14.83
13.96
12.82
11.45
9.90
8.14
6.22
4.25
2.41
0.89
-0.24
-1.02
-1.54
-1.93
-2.27
-2.59
-2.92
-3.30
-3.80
-4.44
-5.23
-6.15
-7.18
-8.36
-9.78
-11.61
-14.02
-17.09
-20.71
-24.47
-27.80
-30.07
-30.87
-30.11
-28.07
-25.20
-21.93
-18.50
-14.97
-11.35
-7.75
-4.36
-1.39
1.08
3.14
5.04
6.94
8.85
10.59
11.88
12.50
12.42
11.74
10.71
9.64
8.81
8.45
8.65
9.32
10.20
11.01
11.50
11.59
11.36
11.00
10.63
10.28
9.86
9.27
8.47
7.51
6.50
5.55
4.70
3.90
3.11
2.43
2.04
2.19
3.07
4.64
6.56
8.27
9.17
8.88
7.36
4.92
2.00
-1.04
-4.08
-7.25
-10.77
-14.76
-19.10
-23.37
-27.04
-29.63
-30.88
-30.78
-29.56
-27.47
-24.75
-21.59
-18.12
-14.57
-11.19
-8.22
-5.82
-3.95
-2.45
-1.18
-0.08
0.79
1.29
1.41
1.33
1.36
1.81
2.81
4.23
5.79
7.20
8.30
9.09
9.71
10.26
10.75
11.15
11.40
11.45
11.31
10.97
10.39
9.52
8.34
6.88
5.27
3.65
2.12
0.70
-0.66
-2.07
-3.61
-5.29
-7.06
-8.86
-10.62
-12.39
-14.24
-16.26
-18.44
-20.60
-22.47
-23.71
-24.04
-23.37
-21.76
-19.43
-16.62
-13.57
-10.43
-7.32
-4.36
-1.70
0.49
2.07
2.97
3.28
3.21
3.06
3.09
3.48
4.23
5.23
6.35
7.43
8.40
9.22
9.98
10.81
11.87
13.30
15.10
17.15
19.16
20.74
21.52
21.26
19.92
17.70
14.96
12.14
9.55
7.35
5.49
3.77
2.02
0.12
-1.92
-4.04
-6.17
-8.21
-10.02
-11.40
-12.15
-12.23
-11.88
-11.64
-12.12
-13.77
-16.61
-20.14
-23.55
-25.98
-26.85
-25.97
-23.57
-20.15
-16.22
-12.23
-8.45
-5.02
-2.04
0.50
2.60
4.29
5.60
6.59
7.29
7.76
8.10
8.39
8.71
9.10
9.52
9.91
10.18
10.36
10.50
10.73
11.11
11.66
12.28
12.83
13.17
13.25
13.09
12.80
12.50
12.28
12.08
11.78
11.22
10.35
9.25
8.12
7.16
6.42
5.77
4.95
3.70
1.89
-0.45
-3.16
-6.10
-9.18
-12.32
-15.41
-18.19
-20.32
-21.54
-21.72
-20.90
-19.28
-17.10
-14.52
-11.69
-8.73
-5.79
-3.03
-0.60
1.46
3.17
4.63
5.90
7.07
8.14
9.09
9.91
10.56
10.99
11.15
11.03
10.70
10.28
9.96
9.90
10.14
10.59
11.05
11.28
11.14
10.55
9.57
8.31
6.89
5.41
3.91
2.39
0.86
-0.73
-2.43
-4.35
-6.61
-9.28
-12.37
-15.76
-19.22
-22.48
-25.27
-27.40
-28.78
-29.43
-29.40
-28.76
-27.49
-25.54
-22.88
-19.53
-15.70
-11.66
-7.76
-4.26
-1.28
1.23
3.42
5.41
7.26
8.91
10.27
11.23
11.82
12.16
12.42
12.76
13.25
13.87
14.54
15.16
15.67
16.05
16.30
16.41
16.35
16.07
15.57
14.89
14.08
13.21
12.33
11.50
10.74
10.05
9.35
8.50
7.35
5.80
3.91
1.87
-0.02
-1.58
-2.80
-3.96
-5.42
-7.55
-10.46
-13.96
-17.66
-20.98
-23.41
-24.51
-24.07
-22.15
-19.02
-15.13
-11.02
-7.15
-3.79
-0.99
1.38
3.55
5.66
7.76
9.77
11.53
12.90
13.76
14.07
13.89
13.38
12.77
12.28
12.08
12.24
12.74
13.50
14.38
15.25
15.99
16.49
16.68
16.52
16.04
15.30
14.36
13.21
11.81
10.05
7.86
5.32
2.66
0.18
-1.87
-3.43
-4.68
-5.97
-7.65
-9.93
-12.78
-15.92
-18.96
-21.48
-23.15
-23.78
-23.32
-21.86
-19.52
-16.46
-12.93
-9.16
-5.39
-1.84
1.27
3.83
5.75
7.04
7.78
8.09
8.10
7.93
7.69
7.48
7.37
7.43
7.67
8.12
8.80
9.65
10.61
11.49
12.12
12.28
11.85
10.84
9.44
7.92
6.57
5.56
4.84
4.20
3.36
2.09
0.34
-1.76
-3.98
-6.06
-7.84
-9.33
-10.70
-12.19
-14.03
-16.31
-19.00
-21.86
-24.59
-26.83
-28.24
-28.55
-27.61
-25.44
-22.21
-18.25
-13.97
-9.75
-5.87
-2.45
0.53
3.14
5.46
7.49
9.22
10.60
11.64
12.40
12.99
13.53
14.11
14.80
15.61
16.58
17.68
18.89
20.07
21.02
21.54
21.53
21.04
20.22
19.27
18.32
17.38
16.38
15.22
13.89
12.44
10.98
9.62
8.44
7.46
6.61
5.74
4.69
3.30
1.55
-0.48
-2.57
-4.50
-6.07
-7.25
-8.09
-8.81
-9.62
-10.74
-12.28
-14.26
-16.60
-19.14
-21.65
-23.85
-25.45
-26.19
-25.89
-24.50
-22.10
-18.96
-15.41
-11.78
-8.32
-5.18
-2.41
-0.02
1.98
3.61
4.91
5.92
6.74
7.44
8.05
8.61
9.13
9.64
10.18
10.79
11.49
12.24
12.98
13.63
14.08
14.29
14.24
13.99
13.61
13.18
12.75
12.31
11.84
11.31
10.74
10.14
9.48
8.67
7.60
6.19
4.49
2.67
0.96
-0.45
-1.54
-2.51
-3.64
-5.23
-7.48
-10.41
-13.91
-17.73
-21.52
-24.89
-27.47
-28.92
-29.09
-27.97
-25.74
-22.71
-19.23
-15.64
-12.17
-8.95
-6.04
-3.42
-1.07
0.99
2.76
4.16
5.18
5.84
6.25
6.60
7.03
7.65
8.46
9.42
10.41
11.33
12.07
12.54
12.73
12.63
12.32
11.94
11.62
11.44
11.43
11.50
11.54
11.46
11.18
10.62
9.77
8.64
7.29
5.87
4.51
3.31
2.26
1.27
0.15
-1.27
-3.04
-5.08
-7.18
-9.17
-10.92
-12.47
-13.98
-15.65
-17.61
-19.82
-22.09
-24.07
-25.45
-25.96
-25.47
-24.00
-21.63
-18.51
-14.85
-10.89
-6.93
-3.26
-0.11
2.40
4.29
5.67
6.68
7.39
7.87
8.15
8.33
8.58
9.04
9.79
10.77
11.81
12.73
13.39
13.79
14.01
14.18
14.34
14.45
14.37
14.03
13.41
12.63
11.85
11.23
10.80
10.48
10.05
9.31
8.12
6.46
4.46
2.32
0.22
-1.69
-3.38
-4.90
-6.36
-7.90
-9.63
-11.61
-13.83
-16.20
-18.60
-20.80
-22.57
-23.67
-23.89
-23.07
-21.20
-18.42
-15.04
-11.44
-7.98
-4.92
-2.36
-0.29
1.37
2.66
3.59
4.19
4.54
4.81
5.21
5.87
6.79
7.85
8.89
9.83
10.67
11.47
12.26
12.92
13.25
13.07
12.32
11.18
9.93
8.84
8.00
7.26
6.32
4.93
3.01
0.69
-1.80
-4.18
-6.32
-8.20
-9.85
-11.35
-12.75
-14.16
-15.71
-17.59
-19.84
-22.36
-24.82
-26.75
-27.67
-27.26
-25.42
-22.32
-18.31
-13.85
-9.38
-5.31
-1.90
0.71
2.59
3.92
4.93
5.80
6.59
7.29
7.85
8.31
8.71
9.13
9.64
10.26
11.00
11.87
12.86
13.92
14.95
15.78
16.32
16.56
16.63
16.65
16.70
16.67
16.38
15.65
14.40
12.77
11.00
9.38
8.09
7.18
6.64
6.42
6.43
6.56
6.66
6.51
5.89
4.70
2.95
0.77
-1.70
-4.33
-7.21
-10.49
-14.29
-18.56
-23.01
-27.12
-30.32
-32.16
-32.39
-31.09
-28.51
-25.08
-21.18
-17.13
-13.19
-9.52
-6.25
-3.48
-1.26
0.45
1.75
2.79
3.78
4.87
6.12
7.47
8.76
9.84
10.63
11.20
11.70
12.30
13.07
13.94
14.73
15.21
15.24
14.83
14.14
13.42
12.88
12.59
12.49
12.42
12.18
11.62
10.69
9.45
7.98
6.35
4.60
2.80
0.97
-0.81
-2.54
-4.25
-6.03
-7.99
-10.19
-12.60
-15.10
-17.51
-19.62
-21.17
-21.94
-21.79
-20.67
-18.72
-16.13
-13.17
-10.09
-6.99
-3.95
-0.99
1.84
4.43
6.63
8.27
9.27
9.63
9.50
9.07
8.62
8.37
8.46
8.92
9.68
10.55
11.32
11.79
11.82
11.37
10.50
9.39
8.24
7.20
6.38
5.77
5.33
4.96
4.52
3.84
2.75
1.13
-1.03
-3.58
-6.24
-8.71
-10.81
-12.54
-14.09
-15.72
-17.68
-20.05
-22.69
-25.24
-27.30
-28.45
-28.43
-27.18
-24.85
-21.72
-18.16
-14.44
-10.77
-7.25
-3.96
-0.96
1.68
3.90
5.70
7.14
8.30
9.29
10.15
10.88
11.45
11.86
12.13
12.33
12.53
12.82
13.27
13.88
14.56
15.20
15.59
15.60
15.16
14.29
13.08
11.64
10.08
8.48
6.91
5.39
3.93
2.49
1.00
-0.57
-2.19
-3.75
-5.07
-6.01
-6.61
-7.04
-7.59
-8.59
-10.18
-12.35
-14.86
-17.37
-19.52
-21.08
-21.94
-22.10
-21.57
-20.30
-18.21
-15.23
-11.42
-6.99
-2.31
2.22
6.25
9.54
12.01
13.69
14.71
15.29
15.68
16.14
16.88
17.93
19.21
20.45
21.36
21.72
21.43
20.55
19.23
17.66
16.00
14.36
12.83
11.48
10.40
9.62
9.10
8.75
8.36
7.77
6.87
5.65
4.22
2.68
1.13
-0.38
-1.83
-3.21
-4.59
-6.05
-7.74
-9.78
-12.24
-15.10
-18.16
-21.15
-23.78
-25.78
-26.93
-27.11
-26.21
-24.24
-21.29
-17.57
-13.43
-9.21
-5.23
-1.70
1.33
3.88
6.00
7.74
9.10
10.07
10.66
10.92
10.92
10.75
10.50
10.24
10.08
10.07
10.24
10.57
10.97
11.32
11.49
11.39
11.01
10.34
9.41
8.28
6.97
5.53
3.95
2.21
0.32
-1.72
-3.83
-5.87
-7.73
-9.32
-10.72
-12.09
-13.66
-15.58
-17.85
-20.28
-22.58
-24.40
-25.41
-25.38
-24.18
-21.79
-18.33
-14.09
-9.44
-4.82
-0.58
3.12
6.24
8.85
10.98
12.59
13.61
14.04
14.03
13.84
13.73
13.86
14.21
14.65
15.01
15.23
15.38
15.57
15.86
16.19
16.46
16.53
16.32
15.83
15.14
14.34
13.53
12.74
11.99
11.31
10.70
10.16
9.68
9.21
8.63
7.84
6.79
5.46
3.92
2.30
0.72
-0.72
-2.05
-3.31
-4.60
-6.00
-7.51
-9.08
-10.68
-12.27
-13.91
-15.72
-17.75
-20.00
-22.29
-24.35
-25.84
-26.46
-26.03
-24.49
-21.97
-18.72
-15.03
-11.24
-7.61
-4.30
-1.39
1.12
3.25
4.98
6.26
7.08
7.55
7.84
8.18
8.72
9.49
10.38
11.24
11.92
12.40
12.73
13.04
13.43
13.95
14.56
15.17
15.69
16.02
16.06
15.78
15.13
14.14
12.85
11.36
9.80
8.29
6.92
5.68
4.50
3.26
1.88
0.37
-1.19
-2.67
-4.03
-5.31
-6.67
-8.27
-10.21
-12.46
-14.85
-17.11
-18.96
-20.16
-20.61
-20.24
-19.10
-17.23
-14.72
-11.72
-8.41
-5.10
-2.10
0.31
1.98
2.94
3.35
3.41
3.35
3.30
3.36
3.59
4.05
4.76
5.73
6.88
8.12
9.35
10.50
11.49
12.25
12.70
12.82
12.60
12.14
11.55
10.87
10.05
9.02
7.68
6.02
4.12
2.15
0.22
-1.66
-3.54
-5.50
-7.54
-9.57
-11.47
-13.21
-14.88
-16.62
-18.57
-20.74
-22.92
-24.80
-26.07
-26.49
-26.00
-24.68
-22.67
-20.13
-17.19
-13.96
-10.53
-7.06
-3.74
-0.77
1.65
3.48
4.76
5.62
6.24
6.71
7.07
7.39
7.79
8.39
9.32
10.55
11.94
13.25
14.27
14.94
15.36
15.70
16.11
16.67
17.32
17.92
18.29
18.29
17.84
16.98
15.81
14.49
13.18
11.92
10.66
9.30
7.75
5.96
3.93
1.65
-0.89
-3.66
-6.58
-9.47
-12.14
-14.41
-16.29
-17.94
-19.61
-21.51
-23.66
-25.84
-27.61
-28.55
-28.34
-26.92
-24.49
-21.40
-18.03
-14.69
-11.53
-8.57
-5.76
-3.09
-0.63
1.55
3.35
4.73
5.73
6.38
6.71
6.78
6.62
6.30
5.93
5.67
5.65
5.96
6.60
7.47
8.40
9.21
9.74
9.93
9.77
9.34
8.75
8.09
7.43
6.77
6.07
5.27
4.35
3.34
2.29
1.25
0.21
-0.88
-2.13
-3.67
-5.57
-7.79
-10.25
-12.78
-15.12
-17.03
-18.27
-18.69
-18.25
-17.04
-15.21
-12.98
-10.51
-7.90
-5.22
-2.55
-0.03
2.15
3.79
4.83
5.28
5.30
5.09
4.85
4.68
4.66
4.80
5.08
5.49
5.95
6.39
6.70
6.83
6.78
6.63
6.47
6.36
6.28
6.13
5.83
5.31
4.59
3.68
2.63
1.46
0.18
-1.16
-2.52
-3.78
-4.89
-5.85
-6.77
-7.81
-9.16
-10.94
-13.15
-15.70
-18.36
-20.81
-22.67
-23.60
-23.37
-21.93
-19.42
-16.11
-12.39
-8.62
-5.09
-1.98
0.63
2.79
4.62
6.23
7.71
9.09
10.28
11.17
11.69
11.83
11.73
11.57
11.52
11.64
11.92
12.27
12.64
12.99
13.29
13.51
13.64
13.63
13.50
13.32
13.16
13.07
12.99
12.77
12.23
11.27
9.89
8.22
6.49
4.90
3.55
2.45
1.50
0.57
-0.41
-1.51
-2.66
-3.81
-4.87
-5.80
-6.62
-7.41
-8.34
-9.60
-11.40
-13.81
-16.73
-19.84
-22.65
-24.62
-25.33
-24.61
-22.55
-19.51
-15.93
-12.17
-8.47
-4.90
-1.45
1.90
5.08
7.96
10.31
12.00
12.97
13.29
13.19
12.92
12.69
12.62
12.67
12.77
12.82
12.82
12.83
13.00
13.38
13.92
14.47
14.85
14.97
14.86
14.61
14.28
13.88
13.25
12.21
10.62
8.49
5.99
3.37
0.83
-1.51
-3.67
-5.73
-7.77
-9.79
-11.74
-13.59
-15.36
-17.14
-19.04
-21.06
-23.07
-24.80
-25.88
-26.05
-25.20
-23.46
-21.08
-18.37
-15.55
-12.76
-10.01
-7.27
-4.55
-1.92
0.45
2.36
3.69
4.44
4.77
4.93
5.17
5.66
6.43
7.42
8.48
9.52
10.50
11.43
12.31
13.14
13.82
14.27
14.39
14.15
13.57
12.72
11.71
10.67
9.67
8.77
7.95
7.16
6.33
5.42
4.46
3.52
2.67
1.97
1.38
0.80
0.07
-0.93
-2.25
-3.82
-5.52
-7.23
-8.88
-10.52
-12.26
-14.24
-16.54
-19.09
-21.73
-24.21
-26.24
-27.58
-28.05
-27.58
-26.16
-23.90
-21.00
-17.72
-14.34
-11.09
-8.13
-5.48
-3.14
-1.03
0.91
2.70
4.35
5.83
7.10
8.15
9.01
9.75
10.48
11.30
12.27
13.41
14.69
16.06
17.47
18.84
20.10
21.15
21.90
22.21
22.02
21.30
20.17
18.83
17.51
16.41
15.57
14.94
14.32
13.57
12.63
11.56
10.45
9.40
8.38
7.31
6.05
4.52
2.73
0.74
-1.39
-3.65
-6.11
-8.89
-12.01
-15.43
-18.94
-22.22
-24.94
-26.80
-27.59
-27.24
-25.79
-23.43
-20.41
-17.05
-13.63
-10.34
-7.29
-4.53
-2.12
-0.17
1.21
1.93
1.98
1.51
0.77
0.03
-0.51
-0.69
-0.50
0.07
0.98
2.16
3.52
4.94
6.30
7.51
8.53
9.35
10.00
10.43
10.61
10.49
10.05
9.37
8.51
7.53
6.42
5.13
3.60
1.84
-0.07
-2.02
-3.90
-5.63
-7.17
-8.56
-9.84
-11.16
-12.72
-14.71
-17.25
-20.23
-23.32
-26.03
-27.85
-28.40
-27.59
-25.58
-22.69
-19.29
-15.74
-12.29
-9.17
-6.51
-4.36
-2.64
-1.17
0.26
1.83
3.53
5.23
6.73
7.91
8.76
9.46
10.18
11.08
12.20
13.43
14.62
15.62
16.33
16.72
16.85
16.79
16.62
16.40
16.16
15.87
15.49
14.97
14.31
13.53
12.66
11.74
10.79
9.77
8.65
7.35
5.81
3.99
1.86
-0.55
-3.22
-6.04
-8.88
-11.60
-14.12
-16.40
-18.50
-20.50
-22.46
-24.37
-26.11
-27.51
-28.40
-28.59
-28.01
-26.59
-24.38
-21.46
-18.00
-14.14
-10.12
-6.15
-2.46
0.73
3.30
5.21
6.58
7.58
8.42
9.21
9.95
10.60
11.12
11.54
12.00
12.61
13.43
14.42
15.42
16.26
16.82
17.10
17.13
16.98
16.71
16.35
15.90
15.38
14.76
14.03
13.11
11.96
10.52
8.82
6.95
5.09
3.39
1.91
0.61
-0.64
-2.00
-3.54
-5.32
-7.37
-9.71
-12.33
-15.09
-17.75
-19.90
-21.17
-21.27
-20.17
-18.01
-15.11
-11.78
-8.30
-4.85
-1.59
1.39
4.00
6.14
7.79
8.93
9.57
9.76
9.58
9.15
8.65
8.25
8.09
8.20
8.51
8.91
9.27
9.50
9.55
9.41
9.04
8.37
7.37
6.04
4.47
2.79
1.11
-0.54
-2.20
-3.92
-5.71
-7.52
-9.28
-10.97
-12.65
-14.50
-16.65
-19.12
-21.75
-24.24
-26.19
-27.22
-27.09
-25.70
-23.11
-19.55
-15.34
-10.84
-6.36
-2.10
1.84
5.41
8.60
11.35
13.57
15.21
16.27
16.82
17.02
16.99
16.85
16.69
16.58
16.62
16.92
17.46
18.16
18.81
19.20
19.19
18.73
17.87
16.70
15.26
13.59
11.72
9.74
7.78
5.90
4.11
2.27
0.23
-2.06
-4.53
-6.97
-9.12
-10.78
-11.96
-12.80
-13.63
-14.79
-16.53
-18.95
-21.92
-25.12
-28.11
-30.40
-31.57
-31.34
-29.57
-26.35
-21.93
-16.73
-11.23
-5.88
-1.04
3.08
6.41
8.99
10.93
12.37
13.46
14.31
15.04
15.71
16.39
17.13
17.96
18.90
19.91
20.88
21.69
22.27
22.60
22.74
22.75
22.68
22.50
22.14
21.54
20.70
19.70
18.65
17.65
16.72
15.83
14.94
14.01
13.04
12.00
10.84
9.43
7.66
5.49
3.00
0.40
-2.05
-4.18
-5.99
-7.65
-9.45
-11.63
-14.33
-17.53
-21.07
-24.65
-27.92
-30.48
-31.94
-31.98
-30.50
-27.60
-23.62
-19.01
-14.30
-9.90
-6.06
-2.82
-0.09
2.28
4.41
6.32
7.95
9.19
9.96
10.31
10.42
10.52
10.83
11.42
12.26
13.26
14.29
15.30
16.26
17.15
17.93
18.52
18.80
18.68
18.08
17.00
15.52
13.75
11.82
9.83
7.81
5.74
3.59
1.37
-0.81
-2.80
-4.48
-5.84
-7.04
-8.30
-9.83
-11.78
-14.16
-16.89
-19.79
-22.66
-25.22
-27.18
-28.29
-28.35
-27.28
-25.16
-22.17
-18.56
-14.62
-10.61
-6.77
-3.23
-0.10
2.64
4.99
6.99
8.63
9.85
10.59
10.84
10.70
10.39
10.18
10.29
10.76
11.50
12.28
12.94
13.44
13.85
14.22
14.58
14.80
14.69
14.18
13.35
12.47
11.80
11.46
11.34
11.15
10.60
9.56
8.12
6.51
4.99
3.68
2.54
1.43
0.21
-1.17
-2.69
-4.26
-5.79
-7.29
-8.78
-10.37
-12.07
-13.87
-15.70
-17.55
-19.42
-21.42
-23.58
-25.83
-27.90
-29.39
-29.83
-28.94
-26.69
-23.35
-19.38
-15.29
-11.48
-8.11
-5.19
-2.61
-0.31
1.73
3.45
4.82
5.86
6.63
7.24
7.74
8.16
8.52
8.87
9.34
10.09
11.19
12.62
14.19
15.63
16.70
17.30
17.44
17.25
16.89
16.51
16.18
15.90
15.60
15.20
14.58
13.66
12.46
11.04
9.53
8.03
6.62
5.30
4.02
2.76
1.48
0.21
-1.04
-2.26
-3.47
-4.71
-6.07
-7.64
-9.52
-11.71
-14.18
-16.77
-19.27
-21.40
-22.87
-23.43
-22.94
-21.36
-18.80
-15.54
-11.90
-8.18
-4.62
-1.33
1.60
4.12
6.14
7.55
8.29
8.37
7.94
7.20
6.41
5.80
5.48
5.49
5.81
6.36
7.09
7.94
8.85
9.72
10.44
10.88
10.93
10.55
9.79
8.78
7.65
6.51
5.38
4.26
3.03
1.61
-0.04
-1.90
-3.84
-5.72
-7.42
-8.94
-10.35
-11.80
-13.45
-15.36
-17.58
-19.97
-22.35
-24.42
-25.83
-26.27
-25.56
-23.71
-20.96
-17.65
-14.15
-10.70
-7.37
-4.22
-1.26
1.39
3.60
5.27
6.37
6.99
7.25
7.23
6.99
6.56
6.05
5.62
5.45
5.68
6.34
7.28
8.30
9.20
9.82
10.11
10.09
9.79
9.23
8.38
7.29
6.07
4.92
4.08
3.68
3.66
3.77
3.66
3.09
2.02
0.63
-0.80
-2.08
-3.20
-4.34
-5.70
-7.38
-9.34
-11.48
-13.75
-16.15
-18.70
-21.31
-23.72
-25.60
-26.59
-26.50
-25.30
-23.07
-19.98
-16.22
-12.03
-7.72
-3.64
-0.10
2.70
4.75
6.14
7.05
7.63
7.95
8.07
8.06
8.03
8.15
8.58
9.40
10.58
12.00
13.46
14.83
16.01
16.97
17.70
18.16
18.26
17.89
17.00
15.62
13.96
12.29
10.84
9.74
8.89
8.14
7.26
6.15
4.80
3.31
1.81
0.37
-1.00
-2.38
-3.84
-5.43
-7.15
-8.97
-10.88
-12.88
-15.01
-17.27
-19.60
-21.75
-23.37
-24.07
-23.57
-21.85
-19.13
-15.84
-12.38
-9.08
-6.05
-3.31
-0.89
1.15
2.75
3.82
4.40
4.67
4.81
4.99
5.29
5.68
6.07
6.40
6.60
6.70
6.74
6.79
6.90
7.09
7.34
7.56
7.60
7.37
6.85
6.10
5.27
4.47
3.78
3.13
2.40
1.45
0.22
-1.28
-2.96
-4.75
-6.59
-8.47
-10.34
-12.08
-13.53
-14.59
-15.31
-15.89
-16.58
-17.57
-18.79
-19.95
-20.57
-20.23
-18.72
-16.13
-12.79
-9.16
-5.69
-2.65
-0.17
1.79
3.34
4.55
5.46
6.03
6.22
6.07
5.73
5.46
5.52
6.06
7.07
8.37
9.75
11.00
12.08
13.03
13.96
14.91
15.82
16.49
16.73
16.42
15.58
14.37
13.03
11.76
10.65
9.63
8.60
7.42
6.04
4.48
2.83
1.20
-0.39
-1.95
-3.53
-5.16
-6.83
-8.52
-10.23
-11.99
-13.89
-16.02
-18.41
-20.95
-23.43
-25.52
-26.85
-27.15
-26.27
-24.24
-21.26
-17.60
-13.59
-9.52
-5.61
-1.98
1.29
4.13
6.53
8.46
9.92
10.96
11.69
12.21
12.59
12.88
13.06
13.14
13.13
13.12
13.20
13.41
13.77
14.22
14.66
15.02
15.25
15.31
15.20
14.90
14.43
13.81
13.08
12.27
11.38
10.41
9.36
8.25
7.11
5.93
4.68
3.26
1.63
-0.25
-2.34
-4.61
-7.03
-9.67
-12.58
-15.76
-19.05
-22.11
-24.54
-25.93
-26.03
-24.80
-22.37
-19.02
-15.06
-10.82
-6.60
-2.67
0.72
3.39
5.23
6.23
6.52
6.32
5.93
5.69
5.87
6.65
8.04
9.84
11.78
13.56
15.00
16.02
16.66
17.00
17.05
16.77
16.14
15.19
14.02
12.76
11.48
10.22
8.96
7.70
6.44
5.23
4.06
2.89
1.67
0.33
-1.13
-2.68
-4.27
-5.86
-7.43
-8.95
-10.42
-11.87
-13.39
-15.12
-17.23
-19.84
-22.86
-25.99
-28.77
-30.68
-31.31
-30.45
-28.14
-24.64
-20.27
-15.41
-10.40
-5.54
-1.10
2.66
5.60
7.64
8.87
9.49
9.79
10.06
10.50
11.17
12.02
12.92
13.73
14.41
14.96
15.43
15.89
16.35
16.81
17.25
17.63
17.91
18.01
17.83
17.29
16.40
15.26
14.05
12.94
11.97
11.09
10.11
8.87
7.24
5.25
3.07
0.92
-0.96
-2.40
-3.40
-4.12
-4.86
-5.99
-7.76
-10.24
-13.27
-16.53
-19.62
-22.21
-23.99
-24.76
-24.36
-22.72
-19.87
-16.12
-11.89
-7.69
-3.92
-0.70
2.07
4.55
6.85
8.89
10.47
11.41
11.67
11.42
10.94
10.52
10.31
10.34
10.57
10.93
11.41
12.02
12.71
13.35
13.77
13.81
13.43
12.68
11.67
10.48
9.13
7.54
5.66
3.48
1.10
-1.33
-3.67
-5.82
-7.75
-9.54
-11.26
-13.09
-15.19
-17.70
-20.67
-23.92
-27.05
-29.51
-30.79
-30.59
-28.87
-25.89
-22.04
-17.74
-13.37
-9.17
-5.30
-1.82
1.26
4.00
6.46
8.67
10.59
12.12
13.15
13.64
13.67
13.47
13.32
13.47
14.03
14.89
15.89
16.78
17.41
17.72
17.70
17.38
16.82
16.09
15.24
14.33
13.37
12.36
11.24
9.93
8.42
6.72
4.88
2.96
0.98
-0.99
-2.93
-4.80
-6.54
-8.14
-9.63
-11.09
-12.60
-14.23
-16.05
-18.13
-20.49
-23.16
-26.05
-28.96
-31.63
-33.73
-34.96
-35.11
-34.06
-31.84
-28.56
-24.38
-19.59
-14.54
-9.67
-5.34
-1.79
0.99
3.17
5.03
6.79
8.49
10.12
11.58
12.87
14.05
15.22
16.49
17.84
19.20
20.44
21.46
22.21
22.68
22.91
22.98
22.92
22.72
22.32
21.66
20.71
19.54
18.27
17.02
15.78
14.43
12.78
10.70
8.25
5.65
3.21
1.15
-0.47
-1.78
-3.06
-4.54
-6.43
-8.76
-11.53
-14.63
-17.90
-21.10
-23.91
-25.93
-26.81
-26.28
-24.31
-21.10
-17.02
-12.55
-8.09
-3.93
-0.21
3.07
5.94
8.40
10.38
11.75
12.43
12.45
12.05
11.56
11.29
11.43
11.94
12.66
13.40
14.06
14.63
15.21
15.81
16.35
16.67
16.60
16.06
15.07
13.76
12.25
10.61
8.85
6.92
4.78
2.45
0.05
-2.20
-4.12
-5.67
-6.94
-8.22
-9.80
-11.89
-14.55
-17.68
-21.09
-24.62
-28.07
-31.25
-33.85
-35.53
-35.98
-35.03
-32.76
-29.40
-25.30
-20.74
-15.95
-11.05
-6.16
-1.43
2.94
6.73
9.78
12.02
13.50
14.38
14.87
15.20
15.57
16.06
16.64
17.23
17.71
18.08
18.38
18.74
19.17
19.60
19.78
19.44
18.38
16.62
14.38
11.97
9.76
7.97
6.72
6.02
5.84
6.11
6.74
7.57
8.36
8.88
8.86
8.16
6.74
4.71
2.31
-0.21
-2.66
-4.99
-7.26
-9.60
-12.14
-14.93
-17.94
-21.13
-24.49
-28.00
-31.52
-34.76
-37.20
-38.26
-37.46
-34.67
-30.13
-24.42
-18.23
-12.20
-6.71
-1.98
1.97
5.11
7.44
9.00
9.91
10.41
10.84
11.47
12.47
13.79
15.26
16.67
17.85
18.73
19.36
19.79
20.07
20.19
20.11
19.80
19.25
18.51
17.64
16.73
15.84
14.99
14.12
13.17
12.05
10.70
9.14
7.44
5.73
4.10
2.59
1.16
-0.31
-1.99
-4.05
-6.65
-9.82
-13.48
-17.30
-20.81
-23.42
-24.66
-24.22
-22.12
-18.67
-14.36
-9.78
-5.48
-1.86
0.88
2.71
3.80
4.40
4.78
5.11
5.44
5.71
5.81
5.71
5.48
5.29
5.34
5.75
6.53
7.49
8.38
8.94
9.04
8.62
7.70
6.34
4.61
2.60
0.47
-1.50
-3.07
-4.03
-4.38
-4.32
-4.23
-4.51
-5.51
-7.38
-10.03
-13.16
-16.29
-18.91
-20.57
-21.01
-20.23
-18.41
-15.86
-12.91
-9.82
-6.72
-3.72
-0.85
1.82
4.26
6.42
8.32
9.97
11.35
12.45
13.22
13.69
13.99
14.25
14.59
15.02
15.43
15.67
15.59
15.14
14.35
13.32
12.15
10.90
9.57
8.17
6.68
5.16
3.65
2.17
0.71
-0.75
-2.22
-3.71
-5.14
-6.48
-7.67
-8.73
-9.76
-10.93
-12.44
-14.46
-17.12
-20.44
-24.29
-28.35
-32.11
-34.96
-36.34
-35.92
-33.70
-30.03
-25.49
-20.65
-16.02
-11.81
-8.10
-4.81
-1.82
0.96
3.59
6.05
8.26
10.08
11.40
12.19
12.60
12.89
13.30
13.96
14.85
15.85
16.83
17.79
18.77
19.81
20.80
21.52
21.71
21.20
20.05
18.47
16.79
15.22
13.85
12.62
11.39
10.03
8.48
6.78
5.03
3.43
2.12
1.20
0.66
0.32
-0.05
-0.70
-1.78
-3.31
-5.17
-7.18
-9.16
-10.96
-12.52
-13.85
-15.06
-16.34
-17.93
-20.02
-22.63
-25.48
-28.06
-29.73
-29.91
-28.37
-25.23
-20.96
-16.20
-11.56
-7.46
-4.12
-1.52
0.53
2.30
4.07
6.04
8.19
10.30
12.04
13.11
13.40
13.04
12.36
11.73
11.42
11.50
11.93
12.59
13.39
14.28
15.23
16.10
16.78
17.11
17.03
16.57
15.83
14.92
13.93
12.92
11.86
10.73
9.51
8.16
6.68
5.08
3.45
1.89
0.54
-0.51
-1.30
-1.97
-2.82
-4.10
-6.01
-8.54
-11.49
-14.49
-17.11
-18.96
-19.76
-19.41
-17.96
-15.58
-12.52
-8.99
-5.21
-1.38
2.29
5.59
8.27
10.19
11.32
11.77
11.78
11.62
11.45
11.37
11.42
11.61
11.96
12.43
12.83
12.82
12.10
10.53
8.34
5.99
4.04
2.85
2.44
2.50
2.69
2.75
2.66
2.56
2.52
2.45
2.11
1.19
-0.46
-2.72
-5.27
-7.69
-9.63
-10.97
-11.85
-12.56
-13.49
-14.90
-16.86
-19.26
-21.86
-24.33
-26.37
-27.69
-28.03
-27.18
-25.09
-21.88
-17.89
-13.55
-9.33
-5.54
-2.29
0.46
2.84
4.96
6.87
8.49
9.68
10.34
10.41
9.95
9.17
8.34
7.76
7.65
8.12
9.18
10.74
12.66
14.75
16.80
18.53
19.67
20.01
19.48
18.16
16.23
13.96
11.62
9.45
7.63
6.24
5.22
4.46
3.76
2.98
2.03
0.95
-0.17
-1.24
-2.22
-3.14
-4.06
-5.04
-6.08
-7.12
-8.12
-9.03
-9.82
-10.53
-11.25
-12.12
-13.32
-14.99
-17.18
-19.77
-22.44
-24.68
-25.98
-25.94
-24.50
-21.94
-18.77
-15.56
-12.68
-10.25
-8.17
-6.31
-4.63
-3.27
-2.43
-2.26
-2.78
-3.82
-5.13
-6.44
-7.51
-8.10
-7.98
-6.98
-5.07
-2.38
0.78
4.00
6.91
9.26
10.98
12.10
12.73
12.98
12.99
12.89
12.82
12.88
13.06
13.23
13.13
12.56
11.45
9.94
8.33
6.97
6.17
6.07
6.55
7.26
7.71
7.38
5.92
3.31
-0.12
-3.77
-7.00
-9.42
-11.01
-12.08
-13.10
-14.46
-16.30
-18.54
-20.94
-23.16
-24.87
-25.70
-25.36
-23.65
-20.68
-16.80
-12.62
-8.78
-5.75
-3.68
-2.44
-1.69
-1.12
-0.51
0.26
1.18
2.19
3.21
4.14
4.93
5.63
6.34
7.22
8.38
9.83
11.40
12.89
14.08
14.86
15.21
15.16
14.76
14.04
13.05
11.83
10.48
9.09
7.70
6.30
4.82
3.21
1.48
-0.37
-2.28
-4.25
-6.31
-8.50
-10.84
-13.23
-15.56
-17.71
-19.71
-21.70
-23.92
-26.60
-29.82
-33.44
-37.12
-40.42
-42.86
-44.06
-43.78
-41.94
-38.68
-34.27
-29.11
-23.54
-17.82
-12.07
-6.32
-0.62
4.94
10.20
15.07
19.49
23.48
27.01
29.98
32.18
33.51
34.00
33.92
33.62
33.37
33.23
33.02
32.51
31.52
30.08
28.34
26.49
24.61
22.71
20.77
18.78
16.79
14.85
12.96
11.06
9.10
7.09
5.09
3.24
1.61
0.14
-1.34
-3.05
-5.16
-7.64
-10.30
-12.84
-15.01
-16.65
-17.81
-18.59
-19.15
-19.63
-20.21
-21.16
-22.80
-25.40
-28.97
-33.08
-36.93
-39.56
-40.20
-38.49
-34.61
-29.10
-22.60
-15.72
-8.94
-2.68
2.68
6.80
9.57
11.13
11.91
12.46
13.18
14.21
15.39
16.43
17.09
17.36
17.40
17.49
17.85
18.48
19.24
19.88
20.25
20.33
20.22
20.10
20.06
20.10
20.08
19.82
19.20
18.17
16.75
15.00
12.99
10.81
8.56
6.33
4.25
2.40
0.84
-0.48
-1.61
-2.67
-3.71
-4.78
-5.90
-7.09
-8.46
-10.17
-12.36
-15.11
-18.35
-21.89
-25.42
-28.61
-31.21
-33.09
-34.17
-34.46
-33.93
-32.55
-30.22
-26.74
-21.90
-15.56
-7.80
0.96
10.02
18.50
25.61
30.83
33.99
35.23
34.92
33.48
31.34
28.91
26.54
24.51
23.01
22.15
21.93
22.23
22.82
23.36
23.47
22.86
21.38
19.15
16.45
13.58
10.76
8.11
5.60
3.23
0.97
-1.24
-3.53
-6.10
-9.18
-12.88
-17.15
-21.75
-26.34
-30.59
-34.30
-37.35
-39.79
-41.60
-42.74
-43.05
-42.33
-40.46
-37.47
-33.60
-29.24
-24.82
-20.76
-17.31
-14.61
-12.68
-11.44
-10.74
-10.34
-9.99
-9.54
-8.92
-8.19
-7.47
-6.78
-6.00
-4.85
-3.11
-0.63
2.44
5.77
8.89
11.42
13.18
14.33
15.34
16.86
19.48
23.52
28.89
35.09
41.35
46.88
51.10
53.71
54.66
54.10
52.24
49.32
45.64
41.50
37.21
33.02
29.02
25.09
20.98
16.35
10.91
4.54
-2.64
-10.24
-17.66
-24.21
-29.23
-32.30
-33.26
-32.25
-29.66
-25.97
-21.63
-17.01
-12.40
-8.07
-4.30
-1.36
0.64
1.85
2.54
3.10
3.75
4.42
4.85
4.65
3.61
1.79
-0.49
-2.69
-4.18
-4.35
-2.72
0.89
6.25
12.59
18.82
23.81
26.79
27.56
26.54
24.42
21.88
19.28
16.65
13.85
10.81
7.61
4.50
1.72
-0.71
-2.99
-5.54
-8.75
-12.77
-17.38
-21.96
-25.73
-27.93
-28.13
-26.34
-22.95
-18.57
-13.77
-9.00
-4.50
-0.44
2.98
5.53
7.00
7.36
6.85
5.94
5.18
5.03
5.70
7.16
9.21
11.55
13.87
15.88
17.32
18.01
17.87
16.99
15.56
13.81
11.93
10.04
8.16
6.20
4.08
1.64
-1.27
-4.71
-8.57
-12.57
-16.28
-19.34
-21.64
-23.36
-24.86
-26.46
-28.21
-29.83
-30.84
-30.79
-29.47
-26.93
-23.40
-19.12
-14.26
-8.95
-3.39
2.08
7.04
11.07
13.89
15.47
15.95
15.65
14.98
14.30
13.90
13.92
14.33
15.01
15.80
16.57
17.24
17.76
18.04
18.02
17.60
16.79
15.67
14.36
12.99
11.58
10.03
8.21
6.03
3.55
0.95
-1.50
-3.55
-5.09
-6.09
-6.63
-6.84
-6.89
-6.98
-7.33
-8.18
-9.69
-11.85
-14.46
-17.10
-19.28
-20.52
-20.47
-19.01
-16.28
-12.68
-8.74
-5.01
-1.85
0.59
2.40
3.81
5.02
6.14
7.19
8.13
8.92
9.57
10.10
10.49
10.65
10.51
10.07
9.45
8.88
8.59
8.70
9.14
9.67
10.01
9.96
9.52
8.87
8.22
7.71
7.30
6.81
6.08
5.07
3.92
2.82
1.93
1.27
0.70
0.03
-0.91
-2.20
-3.87
-5.90
-8.22
-10.71
-13.16
-15.24
-16.64
-17.10
-16.54
-15.01
-12.74
-10.02
-7.13
-4.30
-1.67
0.70
2.79
4.58
6.03
7.08
7.70
7.93
7.89
7.71
7.53
7.43
7.46
7.64
7.96
8.38
8.87
9.34
9.70
9.91
9.95
9.83
9.56
9.11
8.47
7.66
6.78
5.93
5.14
4.33
3.33
1.96
0.17
-1.89
-3.96
-5.78
-7.27
-8.54
-9.86
-11.46
-13.50
-15.96
-18.76
-21.74
-24.71
-27.42
-29.52
-30.65
-30.53
-29.05
-26.36
-22.81
-18.81
-14.77
-10.95
-7.44
-4.27
-1.46
0.93
2.80
4.06
4.74
4.96
4.90
4.80
4.86
5.20
5.85
6.77
7.88
9.12
10.42
11.74
13.07
14.35
15.50
16.42
16.94
16.93
16.36
15.35
14.09
12.82
11.69
10.72
9.87
9.05
8.19
7.25
6.26
5.25
4.29
3.45
2.77
2.28
1.94
1.65
1.26
0.65
-0.28
-1.55
-3.15
-5.06
-7.18
-9.36
-11.37
-13.08
-14.45
-15.69
-17.11
-18.96
-21.25
-23.67
-25.66
-26.65
-26.28
-24.54
-21.73
-18.30
-14.73
-11.34
-8.30
-5.70
-3.52
-1.74
-0.29
0.88
1.89
2.81
3.72
4.63
5.52
6.32
6.98
7.46
7.77
7.95
8.10
8.31
8.68
9.25
10.00
10.81
11.55
12.07
12.27
12.12
11.67
11.02
10.28
9.52
8.79
8.13
7.55
7.07
6.65
6.26
5.80
5.18
4.37
3.37
2.24
1.03
-0.21
-1.49
-2.81
-4.18
-5.62
-7.15
-8.84
-10.79
-13.09
-15.74
-18.58
-21.30
-23.47
-24.71
-24.75
-23.54
-21.24
-18.11
-14.49
-10.69
-7.03
-3.74
-1.04
0.91
2.03
2.38
2.14
1.57
0.98
0.62
0.63
1.01
1.66
2.47
3.34
4.25
5.21
6.24
7.32
8.38
9.31
10.04
10.53
10.78
10.87
10.85
10.72
10.50
10.19
9.77
9.27
8.70
8.05
7.28
6.39
5.38
4.27
3.12
1.97
0.88
-0.14
-1.03
-1.80
-2.49
-3.21
-4.16
-5.52
-7.40
-9.78
-12.53
-15.46
-18.48
-21.57
-24.72
-27.85
-30.67
-32.75
-33.58
-32.84
-30.54
-27.03
-22.87
-18.63
-14.70
-11.23
-8.17
-5.39
-2.78
-0.39
1.67
3.24
4.21
4.60
4.57
4.38
4.34
4.67
5.44
6.61
8.01
9.50
11.00
12.44
13.71
14.65
15.06
14.83
13.97
12.69
11.30
10.09
9.22
8.68
8.36
8.12
7.86
7.56
7.20
6.75
6.21
5.56
4.82
4.02
3.16
2.22
1.13
-0.16
-1.69
-3.45
-5.35
-7.25
-9.03
-10.60
-11.97
-13.27
-14.75
-16.61
-18.93
-21.53
-23.99
-25.81
-26.57
-26.03
-24.24
-21.44
-17.97
-14.12
-10.17
-6.32
-2.81
0.15
2.42
3.95
4.86
5.34
5.64
5.95
6.34
6.85
7.41
7.98
8.53
9.04
9.52
9.99
10.46
10.96
11.46
11.88
12.09
11.98
11.50
10.66
9.53
8.19
6.69
5.02
3.23
1.35
-0.51
-2.25
-3.82
-5.27
-6.70
-8.26
-10.06
-12.14
-14.53
-17.21
-20.08
-22.92
-25.40
-27.05
-27.49
-26.54
-24.26
-21.00
-17.19
-13.16
-9.04
-4.81
-0.39
4.16
8.54
12.33
15.13
16.74
17.25
16.99
16.37
15.71
15.20
14.91
14.84
15.03
15.51
16.21
16.97
17.57
17.80
17.59
17.03
16.32
15.66
15.18
14.88
14.67
14.43
14.03
13.33
12.25
10.71
8.76
6.57
4.39
2.44
0.86
-0.43
-1.63
-2.98
-4.65
-6.66
-8.88
-11.16
-13.37
-15.48
-17.55
-19.68
-22.03
-24.69
-27.72
-31.06
-34.44
-37.41
-39.44
-40.04
-38.93
-36.13
-31.99
-27.00
-21.74
-16.64
-11.98
-7.86
-4.23
-0.96
2.04
4.83
7.38
9.56
11.26
12.36
12.91
13.08
13.14
13.40
14.14
15.45
17.27
19.36
21.40
23.08
24.24
24.84
24.99
24.81
24.35
23.64
22.66
21.44
20.04
18.52
16.93
15.24
13.43
11.50
9.54
7.68
6.06
4.75
3.69
2.68
1.57
0.24
-1.34
-3.15
-5.12
-7.27
-9.66
-12.39
-15.45
-18.68
-21.70
-23.99
-25.10
-24.71
-22.83
-19.67
-15.56
-10.86
-5.88
-0.90
3.75
7.75
10.87
13.07
14.48
15.34
15.89
16.19
16.18
15.76
14.93
13.91
13.03
12.62
12.85
13.67
14.79
15.87
16.63
16.90
16.68
16.06
15.15
14.03
12.75
11.32
9.74
8.04
6.29
4.60
3.05
1.64
0.31
-1.11
-2.77
-4.74
-6.93
-9.12
-11.06
-12.58
-13.68
-14.54
-15.47
-16.77
-18.65
-21.13
-24.07
-27.12
-29.88
-31.90
-32.79
-32.28
-30.24
-26.71
-21.96
-16.39
-10.55
-5.00
-0.18
3.69
6.66
8.94
10.79
12.38
13.76
14.88
15.66
16.14
16.44
16.73
17.14
17.70
18.33
18.92
19.38
19.72
20.00
20.27
20.50
20.58
20.34
19.66
18.60
17.36
16.23
15.43
14.99
14.77
14.51
14.01
13.13
11.90
10.42
8.77
7.03
5.22
3.38
1.55
-0.21
-1.90
-3.48
-4.99
-6.43
-7.82
-9.18
-10.58
-12.14
-14.04
-16.43
-19.39
-22.74
-26.11
-28.91
-30.57
-30.65
-29.03
-25.89
-21.68
-16.91
-12.07
-7.51
-3.41
0.12
3.08
5.52
7.52
9.16
10.51
11.60
12.38
12.82
12.94
12.83
12.66
12.65
12.95
13.65
14.70
15.95
17.19
18.16
18.65
18.57
17.96
17.01
15.94
14.95
14.10
13.35
12.56
11.60
10.42
9.07
7.61
6.10
4.55
2.91
1.20
-0.51
-2.12
-3.52
-4.72
-5.86
-7.17
-8.86
-11.03
-13.65
-16.54
-19.44
-22.07
-24.18
-25.56
-26.05
-25.56
-24.07
-21.66
-18.49
-14.79
-10.80
-6.75
-2.81
0.83
4.08
6.82
8.99
10.52
11.41
11.77
11.77
11.67
11.74
12.14
12.93
14.09
15.45
16.79
17.81
18.26
17.95
16.88
15.20
13.18
11.09
9.12
7.34
5.80
4.54
3.68
3.28
3.27
3.42
3.41
2.98
2.10
0.94
-0.19
-1.02
-1.50
-1.76
-2.05
-2.61
-3.60
-5.02
-6.81
-8.81
-10.91
-12.99
-15.03
-17.04
-19.08
-21.20
-23.44
-25.78
-28.13
-30.34
-32.15
-33.25
-33.32
-32.12
-29.61
-25.98
-21.58
-16.88
-12.25
-7.98
-4.22
-1.05
1.47
3.35
4.69
5.69
6.59
7.55
8.63
9.75
10.79
11.69
12.48
13.27
14.17
15.23
16.43
17.62
18.62
19.31
19.63
19.60
19.29
18.79
18.19
17.54
16.88
16.24
15.61
14.93
14.12
13.08
11.71
10.03
8.18
6.34
4.66
3.20
1.89
0.59
-0.79
-2.29
-3.86
-5.42
-6.92
-8.36
-9.87
-11.60
-13.70
-16.28
-19.31
-22.61
-25.89
-28.75
-30.83
-31.79
-31.44
-29.73
-26.78
-22.88
-18.44
-13.92
-9.67
-5.92
-2.69
0.06
2.44
4.47
6.10
7.26
7.91
8.13
8.05
7.87
7.76
7.84
8.16
8.70
9.43
10.30
11.25
12.22
13.05
13.57
13.66
13.26
12.46
11.44
10.41
9.49
8.72
8.01
7.25
6.36
5.33
4.27
3.28
2.46
1.83
1.32
0.82
0.15
-0.84
-2.20
-3.88
-5.70
-7.50
-9.20
-10.86
-12.67
-14.85
-17.49
-20.48
-23.54
-26.27
-28.27
-29.25
-29.08
-27.73
-25.32
-22.06
-18.26
-14.23
-10.30
-6.71
-3.62
-1.08
0.89
2.35
3.35
3.93
4.21
4.27
4.24
4.26
4.43
4.84
5.48
6.36
7.41
8.62
9.91
11.19
12.35
13.24
13.76
13.86
13.61
13.08
12.40
11.63
10.83
10.02
9.18
8.29
7.30
6.19
4.97
3.72
2.51
1.40
0.36
-0.70
-1.94
-3.44
-5.17
-7.04
-8.90
-10.63
-12.22
-13.80
-15.54
-17.63
-20.18
-23.11
-26.15
-28.86
-30.73
-31.36
-30.51
-28.19
-24.61
-20.18
-15.34
-10.57
-6.20
-2.45
0.63
3.08
4.98
6.42
7.41
8.03
8.35
8.54
8.77
9.16
9.80
10.60
11.49
12.36
13.15
13.88
14.53
15.10
15.46
15.54
15.26
14.63
13.69
12.53
11.20
9.71
8.03
6.17
4.14
2.04
-0.03
-2.01
-3.90
-5.78
-7.71
-9.75
-11.93
-14.23
-16.68
-19.24
-21.86
-24.36
-26.47
-27.85
-28.13
-27.01
-24.35
-20.22
-14.93
-9.00
-3.02
2.44
7.04
10.65
13.39
15.48
17.12
18.46
19.55
20.47
21.30
22.11
22.92
23.58
23.91
23.74
23.04
21.92
20.61
19.35
18.20
17.14
16.03
14.74
13.27
11.72
10.22
8.89
7.74
6.69
5.67
4.63
3.54
2.44
1.35
0.24
-0.94
-2.29
-3.94
-5.93
-8.26
-10.85
-13.52
-16.03
-18.25
-20.17
-21.98
-23.96
-26.37
-29.32
-32.65
-36.03
-38.97
-41.03
-41.83
-41.13
-38.83
-34.96
-29.72
-23.51
-16.81
-10.21
-4.22
0.80
4.71
7.61
9.73
11.36
12.74
13.99
15.12
16.09
16.86
17.47
18.03
18.69
19.55
20.60
21.73
22.85
23.86
24.77
25.58
26.23
26.59
26.45
25.68
24.27
22.38
20.29
18.24
16.32
14.47
12.47
10.17
7.49
4.53
1.46
-1.55
-4.38
-7.00
-9.47
-11.85
-14.24
-16.75
-19.54
-22.73
-26.33
-30.13
-33.65
-36.23
-37.24
-36.27
-33.27
-28.58
-22.78
-16.49
-10.25
-4.46
0.66
5.02
8.60
11.42
13.50
14.93
15.82
16.32
16.66
17.06
17.71
18.71
19.97
21.33
22.56
23.49
24.03
24.16
23.83
22.97
21.47
19.26
16.41
13.10
9.60
6.20
3.05
0.20
-2.41
-4.88
-7.25
-9.47
-11.47
-13.20
-14.74
-16.28
-18.10
-20.43
-23.37
-26.74
-30.15
-33.09
-35.02
-35.55
-34.46
-31.77
-27.64
-22.42
-16.54
-10.44
-4.58
0.73
5.34
9.24
12.52
15.27
17.49
19.09
20.00
20.25
20.04
19.69
19.54
19.85
20.62
21.71
22.91
24.04
25.03
25.90
26.61
27.08
27.13
26.59
25.41
23.70
21.70
19.66
17.75
15.95
14.17
12.27
10.19
7.98
5.78
3.69
1.74
-0.17
-2.22
-4.53
-7.14
-9.94
-12.76
-15.44
-17.99
-20.55
-23.37
-26.62
-30.29
-34.09
-37.50
-39.90
-40.77
-39.79
-36.96
-32.51
-26.89
-20.59
-14.05
-7.61
-1.49
4.18
9.31
13.81
17.61
20.69
23.07
24.83
26.07
26.90
27.43
27.79
28.13
28.56
29.14
29.81
30.46
30.92
31.08
30.90
30.41
29.66
28.66
27.41
25.86
23.96
21.70
19.07
16.13
12.97
9.71
6.50
3.45
0.63
-1.92
-4.24
-6.35
-8.31
-10.18
-12.04
-14.01
-16.22
-18.85
-21.97
-25.54
-29.39
-33.20
-36.54
-38.93
-39.94
-39.23
-36.68
-32.38
-26.70
-20.19
-13.44
-6.99
-1.20
3.78
7.96
11.36
14.02
15.93
17.11
17.64
17.73
17.64
17.64
17.91
18.49
19.30
20.16
20.88
21.34
21.48
21.34
20.98
20.42
19.68
18.78
17.79
16.80
15.85
14.92
13.90
12.66
11.15
9.39
7.50
5.58
3.66
1.67
-0.52
-2.99
-5.72
-8.57
-11.33
-13.80
-15.88
-17.63
-19.25
-21.10
-23.53
-26.80
-30.88
-35.42
-39.73
-42.99
-44.44
-43.58
-40.36
-35.14
-28.57
-21.41
-14.32
-7.82
-2.20
2.43
6.07
8.86
11.02
12.76
14.23
15.52
16.58
17.40
18.01
18.49
18.97
19.52
20.12
20.72
21.27
21.75
22.22
22.68
23.05
23.19
22.94
22.25
21.19
19.93
18.61
17.23
15.70
13.87
11.70
9.28
6.89
4.80
3.17
1.98
1.09
0.27
-0.63
-1.72
-3.07
-4.72
-6.71
-9.06
-11.68
-14.45
-17.22
-19.89
-22.44
-24.89
-27.23
-29.32
-30.90
-31.61
-31.08
-29.07
-25.54
-20.70
-15.01
-9.03
-3.36
1.57
5.56
8.62
10.89
12.57
13.75
14.49
14.82
14.84
14.72
14.70
14.94
15.44
16.08
16.61
16.83
16.68
16.26
15.72
15.21
14.75
14.20
13.41
12.27
10.75
8.94
6.93
4.77
2.47
0.03
-2.53
-5.07
-7.49
-9.66
-11.56
-13.23
-14.71
-16.10
-17.47
-18.94
-20.64
-22.72
-25.21
-28.02
-30.84
-33.22
-34.67
-34.73
-33.21
-30.11
-25.69
-20.35
-14.51
-8.55
-2.79
2.49
7.09
10.87
13.72
15.69
16.87
17.48
17.71
17.77
17.77
17.75
17.74
17.74
17.82
18.05
18.53
19.30
20.28
21.27
21.96
22.11
21.59
20.49
19.00
17.35
15.70
14.14
12.71
11.41
10.22
9.06
7.77
6.16
4.10
1.59
-1.21
-4.10
-6.85
-9.37
-11.61
-13.59
-15.29
-16.70
-17.85
-18.84
-19.86
-21.19
-23.07
-25.64
-28.78
-32.14
-35.14
-37.12
-37.53
-36.07
-32.80
-28.11
-22.58
-16.83
-11.40
-6.60
-2.56
0.76
3.45
5.65
7.48
9.01
10.30
11.40
12.36
13.13
13.66
13.87
13.75
13.40
13.01
12.85
13.09
13.75
14.64
15.47
15.95
15.92
15.38
14.48
13.42
12.30
11.12
9.76
8.07
5.99
3.61
1.13
-1.18
-3.18
-4.84
-6.35
-7.92
-9.77
-11.98
-14.55
-17.37
-20.33
-23.25
-25.86
-27.79
-28.62
-27.99
-25.82
-22.27
-17.80
-12.98
-8.28
-4.03
-0.36
2.68
5.11
6.92
8.18
9.04
9.68
10.32
11.10
12.05
13.07
14.02
14.77
15.23
15.45
15.55
15.72
16.11
16.73
17.43
17.96
18.02
17.40
16.02
13.98
11.47
8.68
5.73
2.68
-0.45
-3.61
-6.69
-9.59
-12.20
-14.44
-16.27
-17.76
-19.04
-20.37
-22.03
-24.25
-27.06
-30.21
-33.20
-35.43
-36.40
-35.86
-33.84
-30.61
-26.48
-21.78
-16.77
-11.75
-7.06
-3.03
0.10
2.27
3.60
4.38
4.94
5.52
6.21
7.05
7.99
9.01
10.13
11.37
12.73
14.15
15.50
16.63
17.41
17.77
17.76
17.47
16.97
16.28
15.34
14.10
12.54
10.72
8.81
6.96
5.28
3.79
2.41
1.02
-0.45
-2.02
-3.62
-5.17
-6.61
-7.91
-9.17
-10.51
-12.08
-14.00
-16.29
-18.85
-21.41
-23.67
-25.24
-25.82
-25.20
-23.37
-20.47
-16.74
-12.45
-7.86
-3.20
1.33
5.48
9.00
11.64
13.27
13.94
13.83
13.27
12.58
12.01
11.68
11.61
11.82
12.37
13.31
14.65
16.32
18.07
19.62
20.64
20.92
20.40
19.19
17.44
15.33
12.99
10.47
7.84
5.19
2.60
0.17
-2.10
-4.25
-6.38
-8.61
-11.03
-13.74
-16.75
-20.04
-23.43
-26.64
-29.24
-30.77
-30.89
-29.49
-26.72
-22.93
-18.53
-13.92
-9.39
-5.17
-1.42
1.74
4.24
6.07
7.30
7.95
8.07
7.71
6.98
6.08
5.29
4.90
5.05
5.70
6.58
7.37
7.83
7.92
7.79
7.60
7.47
7.33
7.02
6.42
5.51
4.39
3.21
2.01
0.75
-0.64
-2.25
-4.04
-5.90
-7.68
-9.32
-10.81
-12.29
-13.91
-15.80
-18.06
-20.69
-23.58
-26.48
-28.99
-30.63
-30.89
-29.43
-26.22
-21.55
-15.97
-10.16
-4.69
0.09
4.06
7.26
9.80
11.79
13.29
14.37
15.08
15.49
15.63
15.53
15.24
14.82
14.39
14.06
13.95
14.06
14.30
14.52
14.58
14.43
14.16
13.88
13.67
13.50
13.24
12.76
12.01
11.07
10.13
9.31
8.60
7.84
6.81
5.34
3.45
1.31
-0.84
-2.73
-4.23
-5.33
-6.17
-7.00
-8.09
-9.65
-11.78
-14.44
-17.42
-20.41
-22.99
-24.73
-25.29
-24.52
-22.45
-19.33
-15.53
-11.41
-7.27
-3.30
0.38
3.68
6.50
8.79
10.54
11.79
12.62
13.08
13.19
13.01
12.59
12.08
11.64
11.42
11.47
11.76
12.19
12.68
13.10
13.34
13.28
12.84
12.03
10.89
9.56
8.16
6.74
5.25
3.60
1.73
-0.37
-2.65
-5.05
-7.46
-9.85
-12.17
-14.39
-16.52
-18.59
-20.69
-22.81
-24.85
-26.51
-27.41
-27.17
-25.63
-22.88
-19.21
-15.05
-10.69
-6.34
-2.03
2.20
6.21
9.79
12.64
14.56
15.54
15.79
15.62
15.38
15.33
15.59
16.14
16.92
17.79
18.58
19.13
19.27
18.95
18.29
17.51
16.91
16.70
16.85
17.09
17.02
16.27
14.72
12.57
10.27
8.28
6.85
5.91
5.10
3.98
2.21
-0.29
-3.38
-6.79
-10.23
-13.49
-16.41
-18.89
-20.88
-22.41
-23.70
-25.08
-26.90
-29.27
-31.96
-34.42
-35.96
-36.01
-34.28
-30.91
-26.27
-20.83
-15.09
-9.42
-4.13
0.52
4.37
7.33
9.50
11.06
12.28
13.34
14.36
15.35
16.28
17.08
17.70
18.15
18.50
18.84
19.26
19.79
20.42
21.05
21.61
21.99
22.12
21.96
21.48
20.69
19.66
18.44
17.15
15.86
14.61
13.38
12.14
10.86
9.55
8.18
6.73
5.15
3.39
1.43
-0.70
-2.95
-5.27
-7.66
-10.15
-12.77
-15.51
-18.35
-21.18
-23.89
-26.27
-28.05
-28.93
-28.59
-26.85
-23.72
-19.48
-14.60
-9.61
-4.92
-0.73
2.91
6.01
8.56
10.46
11.63
12.06
11.92
11.52
11.16
11.07
11.31
11.77
12.29
12.75
13.09
13.31
13.45
13.53
13.53
13.36
12.95
12.21
11.14
9.74
8.09
6.27
4.32
2.27
0.11
-2.14
-4.42
-6.63
-8.64
-10.38
-11.86
-13.18
-14.50
-16.01
-17.89
-20.21
-22.98
-26.01
-28.96
-31.31
-32.56
-32.31
-30.41
-27.03
-22.58
-17.60
-12.60
-7.92
-3.72
-0.04
3.19
6.00
8.42
10.40
11.92
12.98
13.67
14.09
14.35
14.54
14.71
14.92
15.25
15.74
16.45
17.29
18.09
18.61
18.68
18.22
17.31
16.11
14.79
13.42
12.00
10.44
8.69
6.77
4.79
2.90
1.22
-0.25
-1.62
-3.05
-4.67
-6.48
-8.38
-10.22
-11.94
-13.59
-15.29
-17.15
-19.19
-21.29
-23.36
-25.37
-27.41
-29.55
-31.75
-33.67
-34.79
-34.58
-32.72
-29.25
-24.52
-19.09
-13.44
-7.94
-2.80
1.85
5.86
9.10
11.49
13.04
13.86
14.16
14.15
14.00
13.81
13.68
13.68
13.87
14.29
14.93
15.73
16.54
17.22
17.62
17.66
17.32
16.60
15.57
14.30
12.88
11.42
10.07
8.91
7.99
7.21
6.40
5.34
3.93
2.22
0.34
-1.54
-3.31
-5.01
-6.74
-8.62
-10.69
-12.94
-15.34
-17.83
-20.32
-22.70
-24.75
-26.16
-26.64
-26.00
-24.20
-21.37
-17.75
-13.58
-9.10
-4.53
-0.11
3.88
7.19
9.65
11.24
12.13
12.54
12.72
12.83
12.94
13.04
13.07
13.02
12.91
12.80
12.80
13.01
13.41
13.88
14.16
13.99
13.19
11.78
9.98
8.11
6.42
5.03
3.84
2.65
1.31
-0.30
-2.14
-4.16
-6.28
-8.40
-10.45
-12.35
-14.14
-15.92
-17.92
-20.32
-23.23
-26.55
-29.99
-33.07
-35.29
-36.21
-35.54
-33.23
-29.48
-24.64
-19.20
-13.66
-8.38
-3.60
0.65
4.42
7.75
10.65
13.04
14.81
15.94
16.47
16.55
16.40
16.24
16.21
16.39
16.79
17.36
17.98
18.53
18.88
18.96
18.78
18.39
17.91
17.41
16.89
16.31
15.62
14.76
13.76
12.59
11.25
9.68
7.82
5.66
3.22
0.62
-2.03
-4.61
-7.02
-9.17
-11.05
-12.76
-14.43
-16.28
-18.53
-21.26
-24.37
-27.51
-30.25
-32.11
-32.77
-32.08
-30.09
-26.95
-22.91
-18.25
-13.32
-8.48
-4.05
-0.23
2.95
5.59
7.83
9.76
11.35
12.49
13.09
13.19
12.96
12.66
12.55
12.80
13.42
14.31
15.30
16.22
16.97
17.48
17.74
17.73
17.46
16.92
16.08
14.94
13.51
11.79
9.81
7.61
5.25
2.83
0.48
-1.67
-3.58
-5.33
-7.13
-9.26
-11.93
-15.15
-18.67
-22.02
-24.67
-26.20
-26.40
-25.35
-23.29
-20.55
-17.40
-13.96
-10.29
-6.41
-2.40
1.55
5.12
8.00
9.94
10.90
11.06
10.73
10.29
10.02
10.08
10.46
11.09
11.86
12.66
13.43
14.11
14.64
14.94
15.00
14.81
14.43
13.89
13.24
12.49
11.62
10.62
9.52
8.38
7.21
5.95
4.42
2.46
-0.04
-2.96
-6.00
-8.81
-11.12
-12.89
-14.34
-15.82
-17.63
-19.98
-22.85
-26.09
-29.38
-32.35
-34.55
-35.50
-34.82
-32.33
-28.14
-22.64
-16.40
-10.01
-3.96
1.50
6.23
10.20
13.39
15.80
17.47
18.50
19.00
19.14
19.07
18.91
18.82
18.89
19.22
19.81
20.61
21.50
22.34
23.01
23.43
23.53
23.29
22.68
21.73
20.52
19.14
17.66
16.09
14.41
12.55
10.54
8.46
6.45
4.64
3.04
1.60
0.19
-1.25
-2.74
-4.22
-5.65
-7.02
-8.39
-9.89
-11.60
-13.62
-16.01
-18.80
-21.95
-25.32
-28.63
-31.45
-33.27
-33.65
-32.33
-29.33
-24.91
-19.55
-13.77
-8.08
-2.92
1.41
4.76
7.15
8.70
9.62
10.08
10.24
10.20
10.05
9.92
9.89
10.00
10.15
10.17
9.85
9.07
7.87
6.41
4.97
3.73
2.79
2.11
1.61
1.19
0.82
0.46
0.07
-0.44
-1.24
-2.47
-4.22
-6.38
-8.68
-10.79
-12.38
-13.34
-13.77
-13.98
-14.33
-15.12
-16.44
-18.27
-20.45
-22.83
-25.27
-27.63
-29.70
-31.15
-31.60
-30.69
-28.19
-24.12
-18.70
-12.36
-5.63
0.96
7.02
12.26
16.60
20.10
22.90
25.10
26.75
27.80
28.24
28.15
27.74
27.28
27.00
27.01
27.23
27.50
27.67
27.68
27.56
27.34
27.03
26.51
25.64
24.30
22.47
20.26
17.87
15.51
13.37
11.50
9.81
8.16
6.41
4.47
2.38
0.21
-1.94
-4.04
-6.10
-8.18
-10.33
-12.50
-14.62
-16.60
-18.46
-20.33
-22.43
-24.89
-27.63
-30.36
-32.55
-33.64
-33.21
-31.14
-27.62
-23.08
-18.03
-12.89
-7.97
-3.40
0.70
4.27
7.22
9.51
11.19
12.39
13.24
13.86
14.26
14.41
14.29
13.96
13.58
13.36
13.42
13.81
14.39
14.98
15.38
15.45
15.13
14.46
13.51
12.37
11.14
9.89
8.67
7.49
6.29
5.03
3.64
2.06
0.21
-1.99
-4.63
-7.73
-11.22
-14.91
-18.52
-21.69
-24.08
-25.40
-25.44
-24.13
-21.59
-18.04
-13.86
-9.42
-5.03
-0.87
2.96
6.40
9.28
11.45
12.75
13.17
12.95
12.42
11.97
11.84
12.04
12.42
12.74
12.88
12.76
12.47
12.05
11.55
10.96
10.25
9.38
8.31
6.96
5.27
3.19
0.73
-2.00
-4.84
-7.62
-10.25
-12.76
-15.27
-17.93
-20.79
-23.72
-26.43
-28.48
-29.37
-28.72
-26.36
-22.38
-17.17
-11.26
-5.27
0.32
5.15
9.05
12.01
14.15
15.60
16.50
16.98
17.09
16.85
16.32
15.58
14.73
13.90
13.19
12.67
12.31
12.07
11.85
11.52
10.99
10.17
9.06
7.71
6.18
4.54
2.81
0.98
-0.96
-3.00
-5.09
-7.17
-9.22
-11.30
-13.53
-16.09
-19.06
-22.41
-25.96
-29.39
-32.38
-34.61
-35.81
-35.86
-34.65
-32.16
-28.45
-23.68
-18.09
-12.05
-5.92
-0.06
5.29
9.94
13.77
16.66
18.54
19.38
19.32
18.63
17.74
17.07
16.94
17.41
18.35
19.51
20.63
21.60
22.43
23.19
23.94
24.68
25.28
25.64
25.67
25.33
24.62
23.58
22.25
20.69
19.01
17.35
15.79
14.36
13.00
11.57
9.95
8.07
5.94
3.60
1.07
-1.60
-4.37
-7.17
-9.94
-12.61
-15.18
-17.66
-20.08
-22.41
-24.65
-26.88
-29.22
-31.85
-34.94
-38.52
-42.39
-46.18
-49.33
-51.21
-51.29
-49.20
-44.87
-38.60
-31.02
-22.96
-15.24
-8.54
-3.21
0.70
3.40
5.25
6.63
7.83
9.05
10.33
11.62
12.88
14.08
15.20
16.22
17.07
17.60
17.78
17.76
17.87
18.56
20.13
22.59
25.55
28.39
30.49
31.49
31.37
30.37
28.84
26.98
24.89
22.55
19.95
17.19
14.45
11.86
9.41
6.98
4.38
1.50
-1.62
-4.79
-7.82
-10.57
-13.06
-15.37
-17.61
-19.84
-22.18
-24.79
-27.88
-31.60
-35.89
-40.33
-44.26
-46.89
-47.60
-46.09
-42.44
-37.09
-30.62
-23.62
-16.60
-9.96
-4.00
1.09
5.21
8.41
10.86
12.81
14.56
16.32
18.12
19.87
21.42
22.65
23.58
24.36
25.16
26.12
27.21
28.32
29.30
30.01
30.39
30.40
30.01
29.13
27.73
25.82
23.52
21.01
18.46
15.94
13.41
10.79
7.96
4.88
1.59
-1.80
-5.17
-8.38
-11.36
-14.12
-16.80
-19.60
-22.68
-26.06
-29.56
-32.76
-35.15
-36.24
-35.70
-33.41
-29.50
-24.30
-18.27
-11.92
-5.76
-0.18
4.58
8.44
11.45
13.72
15.36
16.49
17.25
17.73
18.02
18.17
18.20
18.16
18.13
18.23
18.55
19.11
19.82
20.53
21.06
21.32
21.29
20.98
20.43
19.59
18.47
17.09
15.60
14.15
12.82
11.62
10.38
8.96
7.28
5.36
3.38
1.50
-0.20
-1.80
-3.44
-5.30
-7.42
-9.78
-12.24
-14.66
-16.97
-19.23
-21.61
-24.30
-27.39
-30.76
-34.03
-36.64
-38.03
-37.80
-35.89
-32.54
-28.15
-23.20
-18.07
-13.06
-8.37
-4.15
-0.51
2.53
5.05
7.19
9.05
10.71
12.07
13.01
13.45
13.44
13.23
13.13
13.39
14.10
15.10
16.13
16.92
17.35
17.45
17.34
17.17
17.01
16.85
16.62
16.32
15.92
15.43
14.81
13.97
12.81
11.30
9.50
7.57
5.73
4.14
2.85
1.80
0.86
-0.15
-1.35
-2.84
-4.64
-6.68
-8.88
-11.13
-13.38
-15.65
-17.99
-20.42
-22.84
-25.00
-26.56
-27.22
-26.79
-25.24
-22.67
-19.23
-15.13
-10.62
-6.01
-1.66
2.08
5.03
7.13
8.53
9.42
9.94
10.17
10.12
9.82
9.37
8.94
8.71
8.75
9.04
9.42
9.76
9.93
9.95
9.90
9.87
9.90
9.93
9.84
9.54
8.99
8.24
7.36
6.40
5.33
4.08
2.59
0.88
-0.95
-2.77
-4.50
-6.13
-7.70
-9.26
-10.84
-12.42
-14.00
-15.65
-17.52
-19.75
-22.33
-25.10
-27.68
-29.60
-30.49
-30.13
-28.60
-26.14
-23.08
-19.73
-16.26
-12.81
-9.48
-6.36
-3.53
-1.09
0.95
2.62
4.00
5.16
6.18
7.08
7.86
8.57
9.26
10.06
11.07
12.34
13.80
15.33
16.71
17.76
18.36
18.49
18.20
17.59
16.76
15.82
14.85
13.89
12.99
12.13
11.24
10.22
8.96
7.42
5.64
3.75
1.90
0.24
-1.19
-2.43
-3.64
-4.97
-6.56
-8.40
-10.36
-12.27
-13.99
-15.49
-16.85
-18.29
-20.00
-22.15
-24.74
-27.63
-30.52
-33.02
-34.70
-35.18
-34.20
-31.74
-28.00
-23.41
-18.44
-13.55
-9.05
-5.06
-1.64
1.22
3.51
5.22
6.38
7.10
7.55
7.86
8.13
8.39
8.66
9.01
9.54
10.33
11.37
12.53
13.60
14.43
14.95
15.26
15.45
15.63
15.80
15.91
15.88
15.64
15.21
14.61
13.88
13.09
12.27
11.48
10.73
10.00
9.25
8.38
7.36
6.18
4.85
3.37
1.72
-0.11
-2.11
-4.20
-6.24
-8.14
-9.83
-11.39
-12.97
-14.76
-16.87
-19.23
-21.60
-23.59
-24.74
-24.74
-23.45
-21.01
-17.72
-13.94
-10.01
-6.16
-2.54
0.77
3.67
6.08
7.94
9.20
9.91
10.13
9.96
9.51
8.94
8.41
8.11
8.16
8.62
9.43
10.44
11.44
12.28
12.85
13.17
13.31
13.33
13.25
13.06
12.68
12.03
11.10
9.90
8.52
7.07
5.65
4.34
3.18
2.14
1.18
0.26
-0.67
-1.63
-2.67
-3.82
-5.14
-6.63
-8.26
-9.91
-11.47
-12.87
-14.18
-15.57
-17.26
-19.40
-21.95
-24.70
-27.20
-28.97
-29.61
-28.88
-26.84
-23.77
-20.10
-16.25
-12.51
-9.05
-5.90
-3.01
-0.37
2.00
4.05
5.69
6.88
7.64
8.06
8.27
8.40
8.56
8.78
9.03
9.25
9.44
9.65
10.03
10.67
11.58
12.59
13.45
13.94
13.99
13.67
13.16
12.61
12.07
11.49
10.76
9.84
8.78
7.72
6.76
5.92
5.11
4.16
2.93
1.43
-0.23
-1.87
-3.37
-4.67
-5.89
-7.13
-8.53
-10.10
-11.79
-13.51
-15.25
-17.09
-19.16
-21.50
-23.98
-26.23
-27.81
-28.31
-27.53
-25.53
-22.62
-19.09
-15.23
-11.23
-7.24
-3.49
-0.23
2.34
4.15
5.34
6.19
6.97
7.79
8.62
9.26
9.56
9.51
9.28
9.10
9.20
9.61
10.23
10.90
11.51
12.07
12.72
13.54
14.45
15.20
15.42
14.87
13.61
11.93
10.26
8.91
7.88
6.95
5.86
4.43
2.72
0.94
-0.68
-2.10
-3.45
-4.97
-6.86
-9.14
-11.70
-14.38
-17.04
-19.68
-22.26
-24.67
-26.67
-27.87
-27.88
-26.49
-23.76
-20.00
-15.70
-11.34
-7.24
-3.56
-0.32
2.51
4.90
6.83
8.20
9.01
9.33
9.30
9.11
8.92
8.76
8.65
8.55
8.48
8.50
8.67
9.05
9.58
10.16
10.66
10.97
11.06
10.89
10.44
9.69
8.64
7.31
5.82
4.26
2.72
1.20
-0.31
-1.85
-3.41
-4.93
-6.42
-7.90
-9.46
-11.18
-13.05
-14.98
-16.85
-18.64
-20.46
-22.54
-25.04
-27.92
-30.86
-33.31
-34.67
-34.50
-32.68
-29.41
-25.09
-20.20
-15.18
-10.38
-6.00
-2.19
1.05
3.77
6.11
8.19
10.03
11.64
12.95
13.91
14.58
15.11
15.66
16.38
17.29
18.34
19.39
20.35
21.18
21.90
22.51
22.99
23.26
23.25
22.93
22.32
21.51
20.56
19.50
18.26
16.77
14.99
12.94
10.78
8.68
6.78
5.15
3.80
2.64
1.58
0.54
-0.59
-1.92
-3.53
-5.46
-7.63
-9.89
-12.10
-14.19
-16.21
-18.30
-20.61
-23.15
-25.75
-28.03
-29.58
-29.99
-29.08
-26.84
-23.49
-19.34
-14.75
-10.02
-5.36
-0.94
3.09
6.56
9.32
11.29
12.49
13.10
13.37
13.60
13.98
14.57
15.31
16.06
16.74
17.36
18.00
18.74
19.57
20.35
20.90
21.03
20.70
19.96
18.96
17.81
16.56
15.19
13.73
12.20
10.68
9.23
7.83
6.42
4.94
3.34
1.66
-0.02
-1.67
-3.30
-4.94
-6.64
-8.41
-10.29
-12.39
-14.80
-17.61
-20.74
-23.91
-26.66
-28.51
-29.03
-28.05
-25.60
-21.90
-17.31
-12.21
-7.03
-2.14
2.14
5.57
8.11
9.84
10.90
11.53
11.92
12.24
12.60
13.08
13.72
14.48
15.36
16.31
17.30
18.33
19.40
20.48
21.55
22.53
23.25
23.48
22.94
21.40
18.78
15.21
11.06
6.82
3.02
0.02
-2.03
-3.22
-3.81
-4.16
-4.60
-5.39
-6.63
-8.29
-10.24
-12.30
-14.32
-16.25
-18.17
-20.18
-22.41
-24.92
-27.69
-30.54
-33.21
-35.30
-36.39
-36.15
-34.35
-31.01
-26.41
-21.02
-15.40
-10.07
-5.36
-1.42
1.80
4.50
6.84
8.94
10.83
12.42
13.58
14.24
14.47
14.41
14.33
14.45
14.92
15.72
16.72
17.70
18.51
19.09
19.47
19.72
19.86
19.86
19.69
19.28
18.65
17.83
16.84
15.67
14.28
12.65
10.81
8.90
7.02
5.27
3.58
1.83
-0.12
-2.33
-4.74
-7.24
-9.70
-12.16
-14.69
-17.41
-20.25
-22.94
-25.00
-25.95
-25.45
-23.45
-20.22
-16.20
-11.87
-7.54
-3.38
0.52
4.11
7.25
9.77
11.51
12.46
12.73
12.54
12.16
11.84
11.68
11.68
11.75
11.77
11.62
11.29
10.82
10.33
9.93
9.71
9.70
9.88
10.18
10.49
10.62
10.34
9.47
7.91
5.72
3.11
0.31
-2.43
-4.98
-7.33
-9.53
-11.66
-13.76
-15.90
-18.12
-20.47
-22.96
-25.47
-27.76
-29.51
-30.39
-30.15
-28.66
-26.00
-22.37
-18.03
-13.30
-8.47
-3.81
0.47
4.18
7.20
9.54
11.23
12.44
13.34
14.08
14.72
15.26
15.66
15.87
15.94
15.89
15.79
15.64
15.43
15.18
14.90
14.67
14.52
14.46
14.38
14.12
13.53
12.53
11.18
9.63
8.08
6.63
5.33
4.08
2.78
1.31
-0.37
-2.23
-4.19
-6.15
-8.03
-9.82
-11.53
-13.22
-14.95
-16.80
-18.87
-21.24
-23.86
-26.59
-29.15
-31.13
-32.11
-31.77
-29.99
-26.86
-22.69
-17.93
-13.02
-8.35
-4.17
-0.60
2.39
4.86
6.95
8.69
10.10
11.16
11.86
12.27
12.50
12.67
12.90
13.23
13.73
14.42
15.31
16.39
17.55
18.61
19.35
19.54
19.09
18.05
16.65
15.16
13.85
12.81
11.96
11.11
10.04
8.65
6.94
5.03
3.03
1.00
-1.05
-3.13
-5.21
-7.22
-9.13
-11.02
-13.04
-15.34
-17.91
-20.56
-22.90
-24.50
-25.04
-24.39
-22.59
-19.83
-16.30
-12.23
-7.85
-3.48
0.57
3.98
6.55
8.27
9.29
9.88
10.26
10.60
10.88
11.04
11.03
10.91
10.86
11.10
11.75
12.80
14.06
15.27
16.23
16.82
17.04
16.93
16.53
15.83
14.87
13.69
12.45
11.28
10.31
9.52
8.80
7.99
6.94
5.61
4.07
2.41
0.75
-0.85
-2.40
-3.93
-5.49
-7.13
-8.87
-10.68
-12.52
-14.37
-16.26
-18.28
-20.55
-23.18
-26.12
-29.20
-32.04
-34.21
-35.29
-35.04
-33.38
-30.44
-26.48
-21.84
-16.92
-12.07
-7.61
-3.74
-0.53
2.05
4.07
5.65
6.87
7.84
8.71
9.59
10.61
11.83
13.21
14.67
16.08
17.36
18.43
19.28
19.91
20.36
20.61
20.65
20.46
19.99
19.27
18.34
17.32
16.35
15.57
15.00
14.60
14.23
13.76
13.09
12.19
11.13
10.01
8.93
7.96
7.05
6.10
4.95
3.48
1.64
-0.53
-2.85
-5.16
-7.29
-9.20
-10.94
-12.63
-14.41
-16.32
-18.35
-20.36
-22.17
-23.55
-24.22
-23.96
-22.57
-20.02
-16.42
-12.06
-7.35
-2.74
1.37
4.73
7.20
8.84
9.77
10.22
10.36
10.35
10.25
10.10
9.89
9.68
9.54
9.56
9.81
10.30
10.92
11.56
12.10
12.45
12.59
12.55
12.30
11.82
11.06
10.00
8.71
7.33
6.02
4.91
3.96
3.01
1.85
0.34
-1.49
-3.46
-5.35
-7.01
-8.44
-9.78
-11.19
-12.79
-14.58
-16.52
-18.58
-20.81
-23.27
-25.92
-28.55
-30.76
-31.98
-31.76
-29.84
-26.34
-21.71
-16.59
-11.58
-7.12
-3.35
-0.23
2.37
4.54
6.33
7.74
8.83
9.65
10.29
10.83
11.28
11.61
11.82
11.96
12.13
12.46
13.00
13.71
14.47
15.11
15.48
15.49
15.16
14.55
13.79
12.97
12.18
11.42
10.61
9.67
8.51
7.13
5.61
4.09
2.67
1.35
0.08
-1.18
-2.41
-3.56
-4.55
-5.41
-6.25
-7.24
-8.49
-10.01
-11.66
-13.28
-14.75
-16.10
-17.46
-18.99
-20.76
-22.71
-24.68
-26.41
-27.58
-27.90
-27.10
-25.09
-21.89
-17.74
-13.02
-8.19
-3.69
0.20
3.31
5.68
7.42
8.67
9.56
10.18
10.55
10.72
10.78
10.86
11.07
11.46
11.97
12.53
13.06
13.59
14.21
15.01
15.93
16.80
17.35
17.41
16.93
16.07
15.09
14.14
13.26
12.32
11.16
9.76
8.24
6.83
5.72
4.97
4.42
3.81
2.93
1.70
0.23
-1.30
-2.71
-3.96
-5.13
-6.36
-7.77
-9.37
-11.18
-13.18
-15.42
-17.95
-20.74
-23.57
-26.00
-27.50
-27.62
-26.18
-23.32
-19.49
-15.21
-10.94
-6.96
-3.40
-0.32
2.23
4.26
5.76
6.77
7.39
7.73
7.86
7.85
7.74
7.63
7.63
7.81
8.21
8.80
9.53
10.33
11.17
11.97
12.63
13.05
13.11
12.79
12.12
11.24
10.28
9.37
8.57
7.87
7.25
6.64
5.98
5.26
4.45
3.58
2.64
1.65
0.62
-0.45
-1.58
-2.80
-4.17
-5.76
-7.62
-9.74
-12.04
-14.37
-16.52
-18.38
-19.98
-21.43
-22.98
-24.79
-26.95
-29.33
-31.67
-33.57
-34.64
-34.59
-33.24
-30.59
-26.79
-22.13
-17.04
-12.02
-7.55
-3.93
-1.22
0.79
2.42
3.99
5.61
7.18
8.51
9.43
9.97
10.28
10.59
11.03
11.65
12.39
13.22
14.17
15.22
16.35
17.42
18.25
18.72
18.78
18.50
17.97
17.28
16.45
15.48
14.36
13.15
11.98
10.98
10.21
9.67
9.27
8.85
8.31
7.60
6.74
5.77
4.76
3.71
2.59
1.32
-0.17
-1.91
-3.85
-5.87
-7.83
-9.63
-11.32
-13.08
-15.18
-17.83
-21.04
-24.61
-28.12
-31.07
-32.99
-33.54
-32.55
-30.04
-26.15
-21.18
-15.52
-9.64
-4.02
0.94
4.96
7.90
9.77
10.68
10.83
10.47
9.87
9.29
8.97
9.06
9.61
10.56
11.76
13.04
14.27
15.40
16.44
17.39
18.20
18.76
18.96
18.74
18.16
17.34
16.41
15.40
14.29
13.02
11.58
10.05
8.53
7.12
5.82
4.57
3.28
1.86
0.27
-1.50
-3.48
-5.66
-8.01
-10.43
-12.78
-14.90
-16.74
-18.36
-19.96
-21.80
-24.12
-27.00
-30.28
-33.56
-36.25
-37.69
-37.41
-35.21
-31.25
-26.00
-20.11
-14.20
-8.78
-4.14
-0.33
2.76
5.30
7.43
9.22
10.61
11.52
11.94
11.97
11.84
11.79
12.00
12.52
13.32
14.30
15.42
16.65
17.96
19.22
20.26
20.96
21.25
21.21
20.97
20.60
20.06
19.28
18.16
16.70
15.05
13.33
11.69
10.12
8.59
7.05
5.52
4.09
2.79
1.59
0.34
-1.18
-3.08
-5.38
-7.93
-10.49
-12.83
-14.83
-16.55
-18.21
-20.09
-22.42
-25.27
-28.52
-31.85
-34.82
-36.98
-37.91
-37.29
-35.00
-31.11
-25.93
-19.94
-13.70
-7.73
-2.41
2.07
5.67
8.40
10.40
11.76
12.64
13.19
13.51
13.72
13.88
14.07
14.37
14.85
15.54
16.42
17.43
18.49
19.57
20.64
21.69
22.61
23.26
23.45
23.05
22.04
20.55
18.80
16.98
15.24
13.65
12.16
10.74
9.33
7.89
6.38
4.71
2.81
0.70
-1.56
-3.79
-5.83
-7.58
-9.13
-10.73
-12.68
-15.20
-18.29
-21.65
-24.78
-27.16
-28.33
-28.06
-26.29
-23.09
-18.72
-13.45
-7.73
-2.06
3.04
7.12
9.95
11.56
12.21
12.27
12.13
12.03
12.11
12.34
12.70
13.15
13.66
14.21
14.73
15.19
15.54
15.79
16.00
16.23
16.50
16.74
16.79
16.45
15.59
14.17
12.31
10.25
8.19
6.28
4.54
2.85
1.05
-0.97
-3.27
-5.74
-8.28
-10.72
-13.01
-15.14
-17.18
-19.26
-21.52
-24.05
-26.79
-29.53
-31.94
-33.58
-34.05
-33.12
-30.76
-27.17
-22.66
-17.64
-12.50
-7.57
-3.09
0.77
3.95
6.43
8.25
9.49
10.24
10.65
10.85
11.00
11.24
11.64
12.22
12.95
13.78
14.67
15.63
16.64
17.65
18.59
19.30
19.68
19.63
19.19
18.43
17.45
16.30
14.98
13.48
11.77
9.90
7.98
6.12
4.34
2.61
0.86
-0.98
-2.89
-4.79
-6.57
-8.19
-9.73
-11.35
-13.18
-15.32
-17.69
-20.19
-22.66
-25.06
-27.40
-29.72
-31.96
-33.91
-35.17
-35.32
-34.00
-31.11
-26.86
-21.68
-16.10
-10.61
-5.55
-1.07
2.77
6.03
8.82
11.23
13.40
15.39
17.22
18.82
20.06
20.83
21.14
21.14
21.09
21.24
21.73
22.48
23.31
23.97
24.29
24.23
23.86
23.25
22.46
21.44
20.15
18.58
16.80
14.92
13.04
11.19
9.32
7.37
5.32
3.21
1.14
-0.81
-2.63
-4.41
-6.30
-8.44
-10.91
-13.71
-16.81
-20.17
-23.74
-27.42
-31.00
-34.10
-36.24
-36.95
-35.92
-33.14
-28.92
-23.82
-18.47
-13.47
-9.26
-6.12
-4.21
-3.55
-4.00
-5.12
-6.15
-6.22
-4.54
-0.81
4.71
11.20
17.63
23.21
27.61
30.99
33.72
36.10
38.13
39.60
40.24
39.97
38.99
37.64
36.26
35.00
33.76
32.30
30.36
27.85
24.87
21.65
18.42
15.34
12.41
9.55
6.66
3.68
0.68
-2.28
-5.12
-7.83
-10.46
-13.04
-15.57
-17.96
-20.17
-22.21
-24.19
-26.30
-28.66
-31.25
-33.80
-35.88
-37.00
-36.79
-35.05
-31.83
-27.37
-22.05
-16.29
-10.50
-5.11
-0.44
3.26
5.91
7.64
8.72
9.51
10.27
11.16
12.17
13.20
14.16
14.99
15.68
16.25
16.71
17.06
17.32
17.58
17.93
18.44
19.01
19.46
19.57
19.20
18.34
17.15
15.81
14.44
13.08
11.69
10.27
8.84
7.51
6.33
5.32
4.36
3.36
2.24
0.99
-0.31
-1.56
-2.69
-3.70
-4.64
-5.63
-6.74
-8.02
-9.47
-11.06
-12.79
-14.79
-17.22
-20.24
-23.87
-27.85
-31.71
-34.81
-36.55
-36.54
-34.76
-31.43
-27.02
-22.04
-17.00
-12.31
-8.24
-4.93
-2.41
-0.62
0.61
1.51
2.28
3.10
4.04
5.08
6.09
6.95
7.59
8.04
8.43
8.91
9.62
10.57
11.64
12.68
13.51
14.05
14.30
14.25
13.92
13.35
12.58
11.68
10.71
9.69
8.61
7.38
5.92
4.21
2.32
0.38
-1.46
-3.13
-4.64
-6.04
-7.45
-8.93
-10.49
-12.15
-13.91
-15.88
-18.15
-20.81
-23.83
-27.01
-29.95
-32.15
-33.13
-32.59
-30.38
-26.62
-21.57
-15.64
-9.35
-3.28
1.98
6.03
8.67
10.07
10.59
10.71
10.77
10.96
11.23
11.48
11.62
11.62
11.55
11.50
11.53
11.69
11.98
12.39
12.89
13.38
13.74
13.78
13.40
12.61
11.51
10.34
9.33
8.57
8.02
7.43
6.52
5.08
3.04
0.56
-2.03
-4.39
-6.28
-7.67
-8.74
-9.75
-10.93
-12.40
-14.11
-15.92
-17.70
-19.40
-21.02
-22.64
-24.33
-26.23
-28.45
-31.05
-34.05
-37.26
-40.29
-42.56
-43.47
-42.53
-39.62
-34.94
-28.95
-22.29
-15.59
-9.35
-3.95
0.41
3.70
6.02
7.60
8.67
9.47
10.11
10.62
10.97
11.16
11.27
11.46
11.89
12.65
13.70
14.90
16.11
17.23
18.20
19.02
19.69
20.20
20.49
20.56
20.41
20.10
19.66
19.11
18.45
17.66
16.72
15.63
14.37
12.90
11.21
9.33
7.40
5.59
4.05
2.82
1.77
0.71
-0.56
-2.15
-4.09
-6.35
-8.89
-11.63
-14.45
-17.28
-20.02
-22.73
-25.52
-28.54
-31.76
-34.89
-37.38
-38.56
-37.92
-35.31
-30.95
-25.37
-19.20
-12.99
-7.16
-1.97
2.45
6.03
8.79
10.79
12.10
12.79
12.99
12.82
12.48
12.15
12.02
12.25
12.85
13.80
14.96
16.18
17.33
18.30
19.06
19.57
19.84
19.83
19.50
18.81
17.72
16.29
14.61
12.82
11.00
9.15
7.22
5.12
2.85
0.49
-1.82
-3.99
-5.98
-7.88
-9.81
-11.89
-14.19
-16.69
-19.38
-22.25
-25.31
-28.56
-31.89
-34.99
-37.39
-38.53
-37.91
-35.27
-30.68
-24.54
-17.46
-10.15
-3.21
2.93
8.05
12.09
15.04
16.93
17.81
17.78
17.03
15.89
14.73
13.89
13.56
13.75
14.32
15.10
15.98
17.01
18.25
19.72
21.29
22.76
23.89
24.56
24.77
24.60
24.16
23.46
22.52
21.36
20.04
18.66
17.31
16.04
14.82
13.62
12.44
11.32
10.29
9.36
8.42
7.36
6.05
4.40
2.39
0.07
-2.51
-5.31
-8.28
-11.36
-14.47
-17.51
-20.40
-23.18
-25.93
-28.84
-32.11
-35.81
-39.85
-43.89
-47.48
-50.02
-50.98
-49.98
-46.87
-41.81
-35.22
-27.75
-20.07
-12.80
-6.34
-0.84
3.68
7.34
10.26
12.60
14.44
15.90
17.07
18.03
18.85
19.54
20.18
20.81
21.54
22.45
23.59
24.94
26.44
27.95
29.31
30.33
30.85
30.78
30.14
29.02
27.60
26.05
24.51
23.04
21.66
20.29
18.87
17.29
15.55
13.67
11.77
9.98
8.36
6.89
5.43
3.84
1.99
-0.17
-2.53
-4.99
-7.44
-9.83
-12.24
-14.82
-17.68
-20.89
-24.39
-28.03
-31.57
-34.68
-37.01
-38.18
-37.89
-35.88
-32.14
-26.86
-20.48
-13.60
-6.85
-0.75
4.36
8.33
11.22
13.17
14.38
15.08
15.45
15.65
15.82
16.01
16.28
16.63
17.05
17.52
18.00
18.40
18.71
18.95
19.16
19.39
19.60
19.65
19.36
18.60
17.35
15.72
13.93
12.13
10.38
8.62
6.72
4.61
2.35
0.03
-2.25
-4.45
-6.61
-8.80
-11.11
-13.55
-16.11
-18.77
-21.52
-24.34
-27.19
-29.93
-32.31
-33.94
-34.40
-33.37
-30.72
-26.64
-21.46
-15.69
-9.82
-4.22
0.79
5.04
8.44
10.99
12.80
14.08
15.01
15.71
16.23
16.57
16.76
16.89
17.11
17.52
18.15
18.93
19.73
20.45
21.02
21.43
21.66
21.67
21.40
20.80
19.88
18.71
17.43
16.11
14.76
13.33
11.76
9.98
8.04
6.02
4.07
2.32
0.79
-0.55
-1.83
-3.20
-4.80
-6.69
-8.86
-11.28
-13.86
-16.54
-19.26
-22.01
-24.78
-27.60
-30.55
-33.69
-37.01
-40.34
-43.30
-45.37
-46.01
-44.82
-41.71
-36.88
-30.82
-24.14
-17.41
-11.09
-5.47
-0.69
3.20
6.26
8.58
10.33
11.65
12.74
13.71
14.66
15.66
16.71
17.75
18.72
19.54
20.18
20.66
21.04
21.41
21.80
22.21
22.58
22.82
22.84
22.60
22.09
21.36
20.46
19.44
18.36
17.24
16.14
15.06
14.01
12.97
11.91
10.75
9.46
8.00
6.41
4.77
3.16
1.62
0.13
-1.39
-3.00
-4.72
-6.54
-8.40
-10.28
-12.18
-14.15
-16.26
-18.57
-21.14
-23.99
-27.08
-30.26
-33.27
-35.72
-37.19
-37.27
-35.73
-32.54
-27.88
-22.16
-15.89
-9.62
-3.81
1.19
5.20
8.18
10.22
11.48
12.17
12.50
12.65
12.75
12.90
13.12
13.40
13.69
14.02
14.44
15.03
15.83
16.79
17.78
18.58
19.03
19.03
18.58
17.77
16.72
15.52
14.21
12.79
11.25
9.56
7.72
5.76
3.75
1.83
0.09
-1.44
-2.79
-4.12
-5.55
-7.14
-8.83
-10.55
-12.24
-13.96
-15.85
-18.05
-20.64
-23.57
-26.70
-29.81
-32.65
-34.93
-36.30
-36.39
-34.91
-31.77
-27.18
-21.55
-15.46
-9.47
-4.02
0.63
4.41
7.36
9.61
11.35
12.66
13.57
14.06
14.10
13.79
13.33
13.03
13.11
13.63
14.46
15.41
16.35
17.25
18.16
19.11
20.04
20.78
21.16
21.07
20.56
19.79
18.90
17.96
16.93
15.72
14.25
12.55
10.74
8.98
7.44
6.17
5.12
4.15
3.11
1.88
0.43
-1.18
-2.86
-4.52
-6.13
-7.71
-9.35
-11.10
-12.97
-14.92
-16.89
-18.83
-20.77
-22.83
-25.15
-27.85
-30.86
-33.96
-36.74
-38.67
-39.26
-38.22
-35.50
-31.35
-26.20
-20.57
-14.93
-9.61
-4.85
-0.78
2.50
4.95
6.61
7.60
8.13
8.43
8.69
8.99
9.34
9.75
10.21
10.79
11.54
12.49
13.59
14.77
15.92
16.96
17.84
18.56
19.12
19.50
19.65
19.51
19.02
18.20
17.12
15.92
14.74
13.68
12.75
11.89
11.02
10.08
9.06
7.99
6.87
5.71
4.48
3.13
1.63
-0.04
-1.88
-3.86
-5.93
-8.01
-10.02
-11.94
-13.80
-15.71
-17.81
-20.24
-22.97
-25.88
-28.71
-31.13
-32.83
-33.49
-32.84
-30.70
-27.05
-22.11
-16.36
-10.43
-4.98
-0.47
2.94
5.36
7.04
8.22
9.05
9.59
9.88
10.04
10.21
10.53
11.02
11.61
12.21
12.74
13.22
13.75
14.43
15.28
16.20
17.05
17.63
17.79
17.48
16.75
15.70
14.54
13.41
12.43
11.60
10.81
9.90
8.73
7.26
5.55
3.75
1.98
0.33
-1.21
-2.69
-4.18
-5.74
-7.41
-9.22
-11.19
-13.30
-15.52
-17.81
-20.14
-22.56
-25.14
-27.96
-31.00
-34.05
-36.74
-38.63
-39.28
-38.37
-35.83
-31.81
-26.63
-20.75
-14.66
-8.81
-3.59
0.75
4.06
6.36
7.78
8.57
9.03
9.45
10.02
10.83
11.79
12.76
13.58
14.16
14.51
14.78
15.13
15.72
16.56
17.57
18.59
19.41
19.90
20.02
19.75
19.12
18.21
17.03
15.68
14.31
13.07
12.08
11.34
10.72
9.98
8.94
7.51
5.78
3.97
2.33
1.06
0.16
-0.50
-1.19
-2.13
-3.48
-5.25
-7.38
-9.75
-12.21
-14.60
-16.86
-18.99
-21.11
-23.38
-25.89
-28.58
-31.16
-33.18
-34.13
-33.61
-31.44
-27.71
-22.75
-17.06
-11.18
-5.56
-0.59
3.52
6.69
8.93
10.32
11.02
11.21
11.10
10.85
10.59
10.37
10.20
10.08
10.07
10.26
10.79
11.69
12.90
14.23
15.43
16.28
16.66
16.54
16.04
15.28
14.36
13.31
12.13
10.80
9.32
7.74
6.11
4.50
2.93
1.41
-0.07
-1.52
-2.96
-4.37
-5.78
-7.23
-8.77
-10.47
-12.38
-14.54
-16.98
-19.70
-22.67
-25.77
-28.78
-31.35
-33.07
-33.53
-32.47
-29.84
-25.84
-20.83
-15.29
-9.72
-4.52
0.01
3.73
6.59
8.64
9.97
10.71
10.97
10.93
10.76
10.62
10.59
10.73
11.03
11.46
12.04
12.76
13.64
14.67
15.77
16.83
17.73
18.37
18.68
18.66
18.33
17.76
17.02
16.18
15.29
14.37
13.41
12.35
11.16
9.86
8.46
7.03
5.59
4.16
2.67
1.08
-0.63
-2.39
-4.09
-5.59
-6.85
-7.98
-9.20
-10.76
-12.79
-15.28
-18.08
-20.96
-23.78
-26.54
-29.34
-32.24
-35.20
-37.95
-39.98
-40.74
-39.79
-36.98
-32.51
-26.91
-20.87
-15.00
-9.75
-5.29
-1.62
1.37
3.79
5.76
7.35
8.66
9.76
10.74
11.62
12.39
13.00
13.47
13.88
14.36
15.02
15.93
17.01
18.12
19.07
19.70
19.94
19.79
19.38
18.87
18.38
18.00
17.70
17.36
16.81
15.90
14.56
12.85
10.95
9.00
7.18
5.52
4.00
2.56
1.11
-0.40
-2.01
-3.74
-5.60
-7.60
-9.71
-11.86
-13.98
-16.05
-18.11
-20.29
-22.73
-25.46
-28.32
-30.93
-32.77
-33.33
-32.25
-29.45
-25.14
-19.71
-13.70
-7.62
-1.93
3.01
6.95
9.79
11.59
12.54
12.93
13.04
13.11
13.29
13.64
14.12
14.64
15.09
15.36
15.43
15.36
15.32
15.47
15.88
16.51
17.11
17.40
17.19
16.46
15.38
14.16
12.94
11.76
10.55
9.27
7.88
6.46
5.05
3.69
2.36
0.98
-0.52
-2.14
-3.87
-5.66
-7.46
-9.25
-11.04
-12.81
-14.60
-16.44
-18.42
-20.62
-23.13
-26.02
-29.28
-32.73
-35.99
-38.54
-39.79
-39.29
-36.84
-32.61
-27.06
-20.83
-14.53
-8.59
-3.31
1.20
4.88
7.74
9.81
11.16
11.98
12.48
12.90
13.39
14.07
14.93
15.95
17.06
18.22
19.40
20.57
21.70
22.73
23.61
24.25
24.59
24.56
24.16
23.40
22.32
20.99
19.49
17.96
16.50
15.19
14.02
12.89
11.64
10.17
8.49
6.71
4.99
3.43
2.01
0.59
-0.96
-2.72
-4.63
-6.62
-8.59
-10.56
-12.59
-14.75
-17.10
-19.67
-22.45
-25.43
-28.57
-31.71
-34.60
-36.84
-37.98
-37.63
-35.56
-31.79
-26.61
-20.53
-14.14
-8.01
-2.54
2.03
5.68
8.50
10.63
12.20
13.35
14.16
14.73
15.15
15.50
15.82
16.16
16.56
17.07
17.74
18.61
19.68
20.87
22.05
23.07
23.74
23.95
23.59
22.65
21.18
19.37
17.42
15.54
13.88
12.43
11.07
9.64
7.99
6.12
4.09
2.02
-0.02
-2.01
-4.02
-6.06
-8.11
-10.05
-11.79
-13.32
-14.82
-16.55
-18.78
-21.56
-24.66
-27.57
-29.63
-30.25
-29.13
-26.32
-22.11
-17.01
-11.52
-6.06
-0.95
3.58
7.37
10.32
12.41
13.69
14.29
14.38
14.13
13.69
13.19
12.76
12.54
12.68
13.23
14.21
15.48
16.87
18.16
19.20
19.90
20.28
20.39
20.25
19.86
19.18
18.20
16.92
15.45
13.91
12.42
11.02
9.65
8.24
6.73
5.16
3.68
2.41
1.42
0.62
-0.24
-1.42
-3.09
-5.23
-7.68
-10.16
-12.46
-14.51
-16.37
-18.21
-20.19
-22.45
-25.07
-28.09
