1543943144.00
64.000000
-0.00
-0.00
-0.00
-0.00
-0.00
-0.00
-0.00
-0.00
-0.00
-0.00
0.00
0.01
0.01
-0.00
-0.03
-0.05
-0.05
0.00
0.13
0.36
0.66
1.01
1.37
1.72
2.06
2.40
2.79
3.24
3.80
4.42
5.06
5.66
6.20
6.68
7.15
7.68
8.31
9.14
10.10
11.06
11.92
12.62
13.23
13.91
14.88
16.28
18.35
20.88
23.62
26.25
28.62
30.79
33.07
35.90
39.59
44.52
50.33
56.50
62.45
67.83
72.69
77.51
83.01
89.71
98.14
107.79
117.88
127.52
136.14
143.78
151.07
159.34
167.32
177.26
189.76
204.90
221.49
236.62
245.94
244.83
229.94
200.42
158.65
108.45
54.15
-1.03
-55.53
-109.12
-161.91
-213.54
-263.13
-309.21
-350.89
-387.46
-418.36
-442.70
-459.12
-465.91
-461.29
-444.30
-414.96
-374.86
-326.61
-273.32
-218.06
-163.43
-112.07
-65.41
-24.18
11.40
41.24
65.43
84.27
98.38
108.60
115.96
121.64
126.57
131.37
136.27
141.26
146.17
150.85
155.13
158.91
162.22
164.96
166.92
167.78
167.15
164.64
160.38
154.42
146.85
137.87
127.69
116.51
104.56
92.10
79.45
66.97
54.97
43.75
33.62
24.80
17.43
11.55
7.14
4.11
2.40
1.85
2.33
3.77
6.10
9.18
12.90
17.12
21.70
26.50
31.31
35.89
39.98
43.28
45.25
45.37
43.13
38.18
30.33
19.61
6.29
-9.21
-26.31
-44.81
-64.56
-85.42
-107.28
-130.01
-153.38
-177.15
-201.01
-224.72
-248.76
-273.69
-300.10
-328.41
-358.80
-391.05
-424.53
-458.25
-491.06
-522.59
-552.50
-580.43
-605.90
-628.16
-646.13
-658.48
-663.77
-655.45
-628.61
-579.69
-507.23
-412.41
-299.21
-173.96
-44.28
82.25
199.18
301.15
384.90
449.16
494.26
521.79
534.21
534.48
525.73
510.93
491.99
470.28
446.65
421.66
395.72
369.30
342.96
317.36
293.15
270.47
249.26
229.39
210.63
192.81
175.88
159.88
144.98
131.38
119.08
108.02
98.09
89.21
81.28
74.26
68.08
62.70
58.10
54.24
51.10
48.69
47.07
46.29
46.32
46.90
47.58
47.86
47.24
45.45
42.55
38.95
35.19
31.81
29.06
26.66
24.25
21.53
18.44
15.34
12.84
11.44
11.16
11.10
9.80
5.64
-2.71
-15.61
-32.26
-50.89
-69.54
-85.63
-98.70
-109.08
-117.58
-125.19
-132.84
-141.40
-151.30
-161.85
-170.64
-173.69
-166.54
-146.39
-114.15
-74.86
-36.08
-5.04
14.23
22.01
21.77
17.67
12.87
8.28
3.27
-2.95
-10.25
-17.58
-23.62
-27.73
-30.37
-32.70
-36.25
-41.97
-49.97
-59.59
-69.63
-78.86
-86.25
-91.52
-94.75
-96.21
-96.06
-94.02
-89.25
-80.27
-65.91
-44.72
-16.40
18.34
57.98
100.71
144.54
186.94
224.31
250.94
263.18
258.36
237.73
206.56
172.56
142.62
120.07
104.12
91.51
79.18
65.71
51.62
38.03
25.16
12.14
-2.01
-17.23
-31.95
-44.12
-53.09
-60.06
-67.60
-78.61
-94.57
-114.93
-137.54
-159.64
-178.82
-193.67
-203.47
-207.90
-206.92
-200.59
-189.26
-173.76
-154.53
-132.15
-107.44
-81.44
-55.22
-29.79
-5.90
15.97
35.63
53.04
68.13
80.64
90.28
96.85
100.45
101.62
101.24
100.32
99.72
99.69
99.89
99.59
98.09
95.15
91.23
87.38
84.97
85.23
88.93
96.09
105.82
116.16
124.35
127.34
122.68
109.50
88.91
63.67
37.28
12.85
-7.70
-23.66
-35.26
-43.10
-47.63
-48.91
-46.66
-40.68
-31.38
-20.92
-12.13
-8.02
-10.48
-19.05
-30.61
-40.55
-44.64
-41.09
-31.26
-18.78
-7.65
-0.37
2.83
3.37
2.87
2.00
0.10
-4.25
-12.17
-23.77
-37.93
-52.71
-65.87
-75.49
-80.03
-78.67
-71.53
-59.80
-45.66
-31.71
-20.07
-11.65
-6.12
-2.35
0.05
-0.09
-5.24
-17.69
-37.58
-61.67
-83.73
-96.38
-93.01
-70.11
-28.29
27.89
91.07
152.88
205.80
244.84
266.01
269.02
256.73
233.85
205.09
173.91
142.30
111.44
82.51
56.69
35.00
17.38
2.67
-10.71
-23.79
-36.46
-47.60
-55.79
-60.28
-61.21
-59.76
-57.67
-56.44
-56.69
-57.99
-59.19
-59.08
-57.09
-53.50
-49.28
-45.67
-43.50
-42.77
-42.68
-42.02
-39.85
-36.03
-31.31
-26.96
-24.18
-23.44
-24.20
-25.15
-25.00
-22.86
-18.77
-13.66
-8.78
-5.35
-4.46
-7.07
-13.64
-23.35
-33.34
-39.06
-35.99
-21.80
2.00
29.98
54.60
69.30
71.16
61.02
43.93
25.42
9.28
-3.21
-12.55
-19.77
-25.39
-29.40
-31.63
-32.13
-31.45
-30.19
-28.92
-27.88
-27.15
-26.87
-27.00
-27.59
-28.38
-29.05
-29.16
-28.07
-24.71
-17.69
-5.80
10.73
29.44
45.62
53.65
49.63
33.62
10.31
-12.84
-28.29
-32.23
-25.58
-12.68
1.47
13.53
22.73
29.83
35.58
39.97
42.33
42.28
40.42
38.26
37.33
38.56
41.51
44.63
46.10
44.62
40.01
33.13
25.39
17.81
10.67
3.33
-5.27
-15.61
-27.19
-38.43
-47.44
-52.55
-53.23
-50.25
-45.37
-41.05
-39.57
-42.82
-51.72
-65.40
-80.62
-92.24
-94.81
-83.98
-61.01
-31.24
-2.18
19.60
31.02
33.24
30.13
25.77
22.43
20.01
17.48
14.14
10.56
8.08
7.86
9.97
13.25
15.97
16.46
14.27
10.08
5.48
2.09
0.82
1.59
3.37
4.69
4.27
1.67
-2.59
-7.32
-11.23
-13.46
-13.94
-13.39
-13.06
-14.17
-17.30
-22.21
-27.90
-33.05
-36.60
-38.17
-38.33
-38.33
-39.51
-42.63
-47.40
-52.53
-56.19
-56.77
-53.55
-47.12
-39.23
-31.86
-26.52
-23.48
-21.91
-20.10
-16.11
-8.06
5.57
25.53
51.08
79.19
104.45
120.40
122.05
107.85
82.01
52.56
27.90
13.20
8.84
11.22
15.48
18.17
18.48
17.47
16.50
15.70
14.12
10.70
5.34
-0.80
-5.84
-7.90
-6.26
-1.60
4.30
9.36
12.09
12.11
10.16
7.61
5.83
5.56
6.67
8.31
9.45
9.36
7.93
5.63
3.31
1.70
1.17
1.60
2.49
3.23
3.40
2.87
1.87
0.77
-0.04
-0.34
-0.15
0.33
0.85
1.20
1.29
1.17
0.98
0.87
0.97
1.31
1.82
2.40
2.93
3.30
3.53
3.72
4.06
4.73
5.79
7.15
8.56
9.73
10.43
10.69
10.75
11.07
12.10
13.98
16.50
19.14
21.21
22.25
22.26
21.78
21.69
22.83
25.48
29.25
33.09
35.70
36.05
33.83
29.61
24.46
19.25
14.26
8.94
2.21
-7.01
-19.46
-35.42
-54.78
-76.81
-99.04
-118.20
-129.61
-128.92
-114.22
-87.59
-54.87
-23.54
0.09
13.66
18.43
18.06
16.21
14.77
13.71
12.16
9.67
6.94
5.31
5.71
8.03
11.17
13.63
14.14
12.49
9.43
6.31
4.39
4.22
5.59
7.61
9.16
9.41
8.19
5.95
3.49
1.64
0.81
0.98
1.71
2.40
2.49
1.72
0.12
-2.02
-4.25
-6.16
-7.46
-8.07
-8.16
-8.14
-8.56
-9.91
-12.39
-15.82
-19.61
-22.97
-25.25
-26.20
-26.26
-26.38
-27.65
-30.83
-35.87
-41.88
-47.50
-51.51
-53.34
-53.53
-53.43
-54.41
-57.27
-61.59
-65.88
-68.10
-66.12
-58.02
-42.52
-19.09
11.08
44.29
74.48
94.76
100.05
89.16
66.78
41.25
20.97
10.83
10.62
16.21
22.53
26.11
26.37
24.81
23.21
22.25
21.30
19.15
15.03
9.08
2.19
-4.30
-9.36
-12.62
-14.52
-15.79
-17.19
-19.02
-21.13
-23.31
-25.88
-29.95
-36.83
-46.52
-56.34
-60.94
-54.15
-32.15
3.76
46.85
87.32
116.50
130.49
131.28
124.89
117.78
113.77
113.14
114.07
114.75
114.53
113.35
110.40
103.34
89.02
65.60
33.93
-1.62
-35.01
-60.90
-77.02
-84.74
-87.35
-87.10
-83.03
-71.59
-49.54
-17.77
17.17
45.00
56.50
48.30
24.71
-4.39
-28.71
-42.44
-46.09
-44.51
-42.91
-43.54
-45.00
-44.34
-39.80
-32.37
-25.14
-21.24
-22.15
-26.74
-32.22
-35.46
-34.81
-30.60
-24.87
-20.22
-18.51
-20.03
-23.54
-27.15
-29.12
-28.76
-26.46
-23.27
-20.50
-19.37
-20.92
-25.41
-31.75
-37.06
-37.22
-28.20
-8.13
21.64
56.79
91.57
120.44
139.34
145.90
138.96
118.82
87.62
49.41
10.01
-23.98
-46.55
-53.80
-45.25
-24.34
2.18
26.02
39.73
39.60
26.89
7.26
-11.93
-25.04
-30.33
-29.87
-27.36
-25.49
-24.74
-23.92
-21.71
-18.09
-14.34
-12.09
-12.09
-14.01
-16.52
-17.96
-17.41
-14.90
-11.36
-8.08
-6.15
-5.99
-7.24
-9.04
-10.41
-10.72
-9.90
-8.27
-6.45
-5.00
-4.27
-4.37
-5.17
-6.37
-7.68
-8.73
-9.19
-8.90
-7.90
-6.62
-5.67
-5.68
-6.93
-9.25
-11.94
-14.06
-15.02
-14.51
-12.87
-10.81
-9.00
-8.10
-8.84
-11.97
-17.91
-25.76
-32.74
-34.72
-27.78
-10.44
14.90
42.29
64.53
76.19
75.86
66.43
53.31
41.71
34.52
31.72
31.35
31.13
29.65
26.79
23.54
20.77
19.22
18.91
18.89
18.22
16.63
14.85
13.60
12.33
8.88
0.39
-14.32
-32.50
-47.75
-53.29
-46.42
-31.10
-16.37
-10.82
-17.43
-31.30
-42.49
-42.24
-28.18
-5.06
18.84
36.82
46.96
51.10
51.67
48.96
41.27
26.90
6.73
-14.96
-32.15
-40.40
-38.78
-29.69
-17.37
-6.15
0.85
2.35
-1.96
-11.70
-26.17
-44.07
-63.03
-79.52
-89.02
-88.11
-75.59
-53.55
-27.18
-2.80
14.61
23.34
25.04
23.26
21.18
20.15
19.68
18.48
15.89
12.45
9.60
8.57
9.65
11.93
14.01
14.57
13.12
10.16
6.80
4.27
3.31
3.91
5.37
6.69
7.05
6.10
4.13
1.82
-0.10
-1.14
-1.27
-0.88
-0.50
-0.59
-1.36
-2.71
-4.31
-5.80
-6.92
-7.55
-7.78
-7.82
-7.95
-8.40
-9.33
-10.77
-12.55
-14.35
-15.74
-16.39
-16.10
-15.03
-13.62
-12.36
-11.58
-11.15
-10.49
-8.71
-5.01
0.79
8.05
15.46
21.49
25.02
25.86
24.94
23.86
24.20
26.74
31.04
35.58
38.56
38.77
36.20
32.22
28.91
28.36
31.93
39.96
51.73
65.28
77.26
83.21
78.78
61.71
33.75
1.30
-26.48
-41.12
-38.85
-22.56
-0.68
16.93
23.44
17.96
5.03
-8.70
-17.94
-21.09
-19.98
-17.99
-17.44
-18.46
-19.39
-18.31
-14.54
-8.00
1.37
13.90
29.64
47.28
63.36
72.89
71.40
56.70
31.04
0.36
-28.12
-48.63
-58.55
-58.72
-52.56
-41.51
-29.70
-21.23
-18.75
-22.19
-28.28
-31.40
-25.79
-8.25
20.35
54.29
85.60
106.47
111.26
97.25
64.46
15.23
-45.59
-110.26
-168.84
-210.47
-226.54
-214.04
-177.14
-126.09
-73.49
-29.99
-1.30
12.26
14.73
12.27
11.35
17.46
34.49
63.98
104.70
152.75
202.43
247.98
284.85
310.09
322.16
320.52
305.46
278.51
242.52
201.41
159.17
118.77
81.51
47.16
14.72
-16.90
-48.59
-81.34
-116.43
-155.15
-197.89
-243.01
-286.51
-322.62
-345.59
-351.82
-341.34
-317.99
-288.33
-259.65
-238.15
-227.56
-228.46
-238.31
-251.90
-262.58
-263.79
-250.95
-222.66
-180.83
-129.63
-74.07
-18.91
31.63
73.83
104.51
121.66
125.20
117.48
102.61
85.06
67.94
52.33
37.59
22.65
7.06
-8.50
-22.74
-34.60
-43.86
-51.13
-57.27
-62.74
-67.36
-70.50
-71.51
-70.29
-67.51
-64.50
-62.75
-63.34
-66.45
-71.09
-75.33
-76.70
-72.93
-62.54
-45.30
-22.33
4.15
31.34
56.52
77.66
93.71
104.74
111.64
115.81
118.70
121.48
124.77
128.75
133.27
138.04
142.97
148.25
154.44
162.34
172.79
186.43
203.39
222.93
243.33
262.14
277.00
286.78
292.47
297.26
305.46
320.55
343.36
371.24
398.64
419.26
428.34
424.22
408.60
385.22
358.18
330.50
303.73
278.32
254.48
232.68
213.72
198.31
186.52
177.63
170.37
163.52
156.42
149.24
142.66
137.41
133.70
130.92
127.78
122.68
114.37
102.36
87.10
69.77
51.80
34.33
17.85
2.00
-14.12
-31.53
-50.88
-72.15
-94.56
-116.93
-138.04
-157.22
-174.60
-191.04
-207.80
-225.93
-245.83
-267.04
-288.52
-309.06
-327.93
-345.21
-361.81
-379.21
-399.15
-423.30
-452.85
-487.91
-526.72
-565.39
-598.45
-620.43
-627.91
-620.89
-602.82
-579.00
-554.25
-531.02
-508.94
-485.72
-458.80
-426.63
-389.11
-347.04
-301.49
-253.26
-202.83
-150.58
-96.84
-41.96
13.39
67.99
119.72
165.67
202.68
228.30
241.50
242.96
234.71
219.40
199.64
177.64
155.14
133.53
113.95
97.07
82.95
71.02
60.29
49.73
38.71
27.13
15.40
4.17
-5.93
-14.55
-21.75
-27.95
-33.75
-39.74
-46.27
-53.39
-60.88
-68.35
-75.35
-81.49
-86.48
-90.19
-92.68
-94.14
-94.86
-95.06
-94.69
-93.42
-90.66
-85.69
-78.02
-67.54
-54.66
-40.25
-25.39
-11.20
1.48
12.15
20.71
27.39
32.63
36.96
40.81
44.40
47.61
50.09
51.37
51.23
49.84
47.86
46.13
45.31
45.58
46.52
47.34
47.30
46.07
43.90
41.48
39.63
38.89
39.41
40.86
42.60
43.93
44.16
42.76
39.39
33.98
26.72
18.14
8.99
0.17
-7.57
-13.80
-18.59
-22.56
-26.65
-31.83
-38.61
-46.68
-54.64
-60.25
-60.89
-54.42
-39.86
-17.80
9.74
39.79
69.27
95.55
116.89
132.41
141.91
145.61
143.98
137.59
127.22
113.80
98.46
82.43
67.02
53.40
42.57
35.21
31.59
31.56
34.56
39.67
45.76
51.66
56.43
59.44
60.49
59.73
57.49
54.13
49.94
45.00
39.29
32.71
25.33
17.41
9.44
2.05
-4.36
-9.72
-14.48
-19.36
-25.02
-31.58
-38.30
-43.63
-45.52
-42.02
-31.75
-14.33
9.60
38.49
70.23
102.51
133.28
161.10
185.34
206.18
224.40
240.96
256.62
271.67
285.87
298.70
309.58
318.10
324.14
327.89
329.79
330.41
330.45
330.48
330.90
331.55
331.62
329.71
324.14
313.52
297.27
275.86
250.62
223.27
195.28
167.52
140.25
113.33
86.59
59.96
33.51
7.16
-19.35
-46.43
-74.39
-103.16
-132.26
-160.77
-187.58
-211.57
-231.78
-247.39
-257.68
-262.08
-260.39
-253.07
-241.50
-227.83
-214.57
-203.91
-197.05
-193.95
-193.56
-194.36
-195.02
-194.78
-193.48
-191.40
-189.02
-186.83
-185.44
-185.51
-187.64
-192.08
-198.52
-206.08
-213.59
-220.18
-225.59
-230.30
-235.15
-240.64
-246.24
-250.18
-249.73
-242.10
-225.43
-199.55
-165.98
-127.30
-86.28
-45.12
-5.42
31.58
64.51
91.77
111.91
124.29
129.56
129.58
126.82
123.76
122.39
124.05
129.40
138.39
150.15
163.01
174.70
182.93
186.14
184.01
177.62
168.95
160.05
152.14
145.08
137.51
127.52
113.68
95.81
75.14
53.68
33.34
15.02
-1.55
-17.35
-33.24
-49.40
-65.36
-80.35
-93.85
-105.88
-116.95
-127.70
-138.55
-149.53
-160.32
-170.49
-179.69
-187.81
-194.92
-201.20
-206.64
-210.96
-213.64
-214.06
-211.87
-207.12
-200.26
-191.90
-182.37
-171.39
-157.95
-140.62
-118.14
-90.03
-57.10
-21.46
13.88
45.75
71.70
90.58
102.64
109.19
111.92
112.35
111.46
109.74
107.48
104.96
102.58
100.73
99.56
98.79
97.67
95.24
90.65
83.55
74.29
63.89
53.91
46.06
41.84
42.32
48.07
59.20
75.31
95.39
117.64
139.61
158.59
172.36
179.83
181.23
177.71
170.62
160.81
148.54
133.89
117.36
100.10
83.70
69.49
57.87
48.27
39.59
30.94
22.29
14.39
8.39
4.98
3.88
3.71
2.43
-1.87
-10.23
-22.44
-37.22
-52.75
-67.38
-80.11
-90.68
-99.28
-106.17
-111.47
-115.16
-117.32
-118.22
-118.39
-118.38
-118.55
-118.96
-119.39
-119.47
-118.98
-117.89
-116.40
-114.89
-113.68
-112.94
-112.55
-112.24
-111.72
-110.94
-110.18
-109.99
-110.92
-113.19
-116.34
-119.14
-119.69
-115.92
-106.10
-89.37
-66.14
-38.08
-7.73
22.05
48.77
70.79
87.41
98.78
105.54
108.51
108.50
106.22
102.36
97.54
92.22
86.71
81.06
75.27
69.31
63.36
57.79
53.08
49.57
47.29
45.85
44.45
42.24
38.49
32.94
25.82
17.68
9.17
0.72
-7.55
-15.86
-24.56
-33.95
-44.06
-54.50
-64.40
-72.54
-77.48
-77.89
-72.90
-62.41
-47.17
-28.69
-8.91
10.19
26.98
40.33
49.74
55.22
57.19
56.33
53.43
49.24
44.40
39.29
34.16
29.14
24.45
20.41
17.44
15.86
15.70
16.62
17.90
18.68
18.17
15.97
12.07
6.81
0.67
-5.88
-12.55
-19.20
-25.89
-32.90
-40.53
-49.01
-58.13
-67.02
-74.12
-77.50
-75.43
-67.05
-52.77
-34.19
-13.71
6.25
23.72
37.59
47.51
53.71
56.72
57.14
55.61
52.65
48.66
43.90
38.55
32.71
26.53
20.27
14.27
8.98
4.78
1.84
0.07
-0.99
-1.96
-3.55
-6.24
-10.18
-15.15
-20.73
-26.49
-32.17
-37.81
-43.73
-50.33
-57.83
-65.97
-73.83
-79.80
-81.87
-78.24
-67.95
-51.34
-30.05
-6.69
15.98
35.63
50.96
61.61
67.99
70.79
70.64
67.97
63.09
56.35
48.27
39.59
31.05
23.29
16.63
11.08
6.40
2.16
-2.14
-7.01
-12.85
-19.74
-27.33
-34.90
-41.68
-47.24
-51.82
-56.26
-61.69
-68.96
-78.26
-89.05
-100.30
-110.82
-119.52
-125.54
-128.30
-127.48
-123.08
-115.48
-105.45
-94.05
-82.39
-71.36
-61.50
-52.93
-45.40
-38.51
-31.92
-25.53
-19.56
-14.43
-10.56
-8.16
-7.04
-6.64
-6.18
-4.97
-2.62
0.73
4.56
8.09
10.65
11.87
11.74
10.63
9.05
7.80
7.86
10.40
16.41
26.28
39.41
54.23
68.72
81.23
91.34
100.03
109.25
120.92
135.94
153.71
172.37
189.55
203.22
212.19
216.12
215.25
209.97
200.65
187.69
171.77
153.93
135.55
118.05
102.50
89.44
78.79
70.08
62.74
56.34
50.69
45.75
41.52
37.89
34.60
31.34
27.84
23.96
19.76
15.49
11.42
7.66
4.06
0.21
-4.36
-9.86
-16.00
-21.91
-26.37
-28.22
-26.78
-22.02
-14.58
-5.53
3.97
12.91
20.53
26.40
30.42
32.71
33.54
33.14
31.70
29.33
26.13
22.33
18.27
14.30
10.71
7.59
4.89
2.49
0.34
-1.53
-3.13
-4.56
-6.12
-8.22
-11.20
-15.18
-20.01
-25.31
-30.54
-35.19
-38.92
-41.66
-43.68
-45.55
-47.95
-51.41
-56.02
-61.30
-66.25
-69.61
-70.27
-67.58
-61.52
-52.63
-41.86
-30.31
-19.06
-8.99
-0.74
5.34
9.21
11.10
11.43
10.70
9.41
7.95
6.57
5.46
4.66
4.23
4.23
4.74
5.87
7.63
9.87
12.27
14.33
15.46
15.20
13.35
10.10
6.01
1.77
-1.97
-4.90
-7.12
-9.12
-11.44
-14.40
-17.87
-21.17
-23.30
-23.31
-20.85
-16.32
-10.88
-6.10
-3.37
-3.55
-6.67
-12.23
-19.36
-27.20
-35.00
-42.17
-48.22
-52.86
-56.02
-57.67
-57.51
-54.40
-46.51
-32.05
-10.53
16.24
44.08
67.61
82.16
85.39
77.84
62.40
42.91
22.96
5.34
-7.97
-15.70
-17.22
-12.93
-4.51
5.27
13.26
16.98
15.29
8.68
-1.07
-11.45
-20.12
-25.36
-26.47
-23.69
-17.93
-10.45
-2.45
5.13
11.66
16.86
20.67
23.23
24.76
25.54
25.76
25.46
24.52
22.75
20.01
16.43
12.42
8.68
5.88
4.45
4.38
5.25
6.46
7.44
7.90
7.84
7.41
6.82
6.11
5.19
3.87
2.02
-0.37
-3.14
-6.09
-9.05
-11.95
-14.83
-17.81
-20.96
-24.35
-27.96
-31.73
-35.59
-39.31
-42.46
-44.44
-44.58
-42.34
-37.56
-30.50
-21.81
-12.36
-3.03
5.46
12.61
18.13
21.96
24.13
24.82
24.30
22.89
21.02
19.09
17.46
16.34
15.70
15.42
15.27
15.09
14.85
14.59
14.36
14.12
13.74
12.98
11.65
9.64
6.95
3.68
0.01
-3.86
-7.70
-11.34
-14.68
-17.73
-20.67
-23.73
-27.11
-30.89
-34.94
-38.86
-42.05
-43.79
-43.37
-40.32
-34.58
-26.58
-17.18
-7.40
1.74
9.54
15.67
20.13
23.07
24.66
25.00
24.20
22.46
20.11
17.59
15.33
13.61
12.48
11.74
11.10
10.32
9.33
8.22
7.17
6.31
5.61
4.89
3.91
2.47
0.41
-2.26
-5.49
-9.11
-12.92
-16.69
-20.20
-23.32
-26.04
-28.59
-31.28
-34.50
-38.44
-42.99
-47.62
-51.45
-53.44
-52.69
-48.72
-41.62
-32.08
-21.16
-10.07
0.16
8.79
15.47
20.12
22.93
24.18
24.20
23.32
21.86
20.09
18.28
16.64
15.36
14.54
14.22
14.27
14.48
14.59
14.40
13.73
12.57
10.98
9.09
6.98
4.67
2.06
-0.92
-4.31
-8.05
-11.94
-15.79
-19.46
-22.95
-26.36
-29.87
-33.62
-37.63
-41.83
-46.07
-50.13
-53.76
-56.54
-57.91
-57.25
-53.99
-47.89
-39.15
-28.39
-16.63
-4.94
5.75
14.75
21.77
26.80
30.04
31.85
32.64
32.80
32.68
32.49
32.35
32.32
32.41
32.67
33.16
33.93
34.95
36.04
36.91
37.21
36.63
35.03
32.46
29.15
25.41
21.52
17.65
13.87
10.14
6.42
2.64
-1.21
-5.06
-8.83
-12.33
-15.45
-18.16
-20.66
-23.23
-26.22
-29.78
-33.76
-37.65
-40.68
-41.96
-40.78
-36.76
-30.01
-21.10
-10.94
-0.58
9.01
17.13
23.34
27.47
29.48
29.45
27.50
23.86
18.89
13.13
7.14
1.49
-3.41
-7.37
-10.47
-12.91
-15.00
-17.04
-19.17
-21.38
-23.52
-25.42
-26.94
-28.09
-28.99
-29.86
-30.91
-32.32
-34.19
-36.51
-39.20
-42.08
-45.04
-48.08
-51.38
-55.20
-59.71
-64.71
-69.41
-72.49
-72.30
-67.20
-56.14
-38.96
-16.66
8.78
34.70
58.38
77.63
91.16
98.76
101.07
99.20
94.36
87.57
79.64
71.24
62.97
55.35
48.73
43.22
38.62
34.57
30.65
26.61
22.39
18.05
13.72
9.45
5.13
0.65
-4.15
-9.35
-14.84
-20.42
-25.79
-30.56
-34.34
-36.78
-37.67
-37.03
-35.14
-32.60
-30.13
-28.41
-27.77
-28.04
-28.62
-28.63
-27.22
-23.83
-18.34
-11.06
-2.53
6.58
15.66
24.14
31.55
37.56
41.94
44.67
45.93
46.05
45.44
44.50
43.52
42.67
41.97
41.37
40.81
40.24
39.67
39.14
38.71
38.43
38.30
38.22
38.00
37.32
35.80
33.06
28.92
23.45
17.03
10.22
3.61
-2.40
-7.76
-12.69
-17.65
-23.11
-29.33
-36.30
-43.57
-50.34
-55.63
-58.50
-58.28
-54.81
-48.44
-39.92
-30.27
-20.45
-11.20
-3.00
3.93
9.49
13.63
16.29
17.42
17.11
15.56
13.17
10.42
7.86
5.92
4.83
4.58
4.94
5.60
6.31
6.95
7.51
8.01
8.30
8.07
6.90
4.47
0.70
-4.09
-9.31
-14.37
-18.84
-22.70
-26.25
-30.00
-34.44
-39.96
-46.62
-54.16
-61.91
-68.81
-73.60
-75.06
-72.40
-65.54
-55.21
-42.76
-29.81
-17.73
-7.42
0.89
7.34
12.31
16.10
18.93
20.96
22.36
23.39
24.23
24.99
25.57
25.81
25.59
24.98
24.27
23.81
23.86
24.38
25.04
25.30
24.68
22.87
19.90
16.09
11.92
7.88
4.25
1.05
-1.95
-5.08
-8.64
-12.70
-17.11
-21.56
-25.78
-29.63
-33.20
-36.81
-40.82
-45.61
-51.29
-57.65
-64.07
-69.54
-72.86
-72.97
-69.23
-61.70
-51.14
-38.79
-26.01
-14.00
-3.52
5.02
11.59
16.40
19.79
22.19
24.02
25.74
27.63
29.77
32.02
34.07
35.60
36.47
36.77
36.89
37.30
38.41
40.38
43.01
45.80
48.10
49.30
49.07
47.33
44.34
40.48
36.17
31.78
27.60
23.81
20.56
17.88
15.63
13.58
11.37
8.68
5.35
1.39
-3.01
-7.63
-12.28
-16.86
-21.34
-25.78
-30.31
-35.12
-40.42
-46.28
-52.52
-58.54
-63.39
-65.94
-65.27
-60.91
-53.02
-42.37
-30.06
-17.32
-5.22
5.45
14.27
21.14
26.22
29.83
32.31
33.99
35.08
35.76
36.19
36.52
36.91
37.43
38.11
38.86
39.60
40.25
40.77
41.14
41.31
41.20
40.64
39.49
37.68
35.24
32.29
29.05
25.72
22.47
19.38
16.47
13.66
10.82
7.82
4.57
1.03
-2.73
-6.61
-10.48
-14.24
-17.84
-21.27
-24.57
-27.80
-31.08
-34.60
-38.54
-43.03
-48.00
-53.06
-57.51
-60.41
-60.82
-58.07
-51.97
-42.84
-31.51
-19.06
-6.58
4.97
14.93
22.95
28.96
33.10
35.65
36.99
37.48
37.44
37.15
36.81
36.56
36.46
36.55
36.79
37.13
37.51
37.86
38.12
38.19
37.99
37.37
36.24
34.53
32.25
29.45
26.25
22.79
19.22
15.63
12.12
8.73
5.46
2.33
-0.69
-3.62
-6.58
-9.72
-13.19
-17.07
-21.33
-25.73
-30.01
-33.99
-37.69
-41.36
-45.42
-50.20
-55.77
-61.85
-67.70
-72.31
-74.61
-73.71
-69.19
-61.20
-50.44
-38.02
-25.17
-13.00
-2.32
6.43
13.20
18.19
21.82
24.53
26.76
28.79
30.75
32.57
34.10
35.20
35.78
35.92
35.77
35.55
35.46
35.60
35.97
36.42
36.74
36.70
36.15
35.05
33.48
31.62
29.68
27.80
26.03
24.32
22.51
20.49
18.16
15.52
12.58
9.41
6.06
2.59
-0.98
-4.61
-8.29
-12.03
-15.86
-19.75
-23.64
-27.42
-30.97
-34.30
-37.59
-41.16
-45.39
-50.45
-56.11
-61.65
-65.95
-67.74
-66.00
-60.30
-51.00
-39.06
-25.85
-12.68
-0.64
9.62
17.81
23.92
28.13
30.74
32.17
32.90
33.38
33.96
34.79
35.85
37.00
38.07
38.89
39.40
39.63
39.65
39.53
39.31
38.90
38.18
37.00
35.24
32.89
30.10
27.05
23.95
20.90
17.95
15.06
12.18
9.29
6.44
3.68
1.07
-1.42
-3.88
-6.46
-9.31
-12.51
-15.99
-19.60
-23.16
-26.54
-29.69
-32.68
-35.70
-39.02
-42.91
-47.49
-52.65
-57.88
-62.33
-64.95
-64.73
-61.09
-54.00
-44.07
-32.39
-20.26
-8.87
0.92
8.71
14.49
18.54
21.27
23.02
24.04
24.45
24.37
23.98
23.54
23.33
23.51
24.12
25.04
26.05
26.96
27.67
28.13
28.39
28.42
28.16
27.51
26.36
24.64
22.35
19.57
16.44
13.15
9.93
6.96
4.35
2.10
0.10
-1.89
-4.10
-6.71
-9.74
-13.03
-16.33
-19.43
-22.22
-24.79
-27.34
-30.21
-33.67
-37.87
-42.76
-47.99
-52.88
-56.48
-57.75
-55.82
-50.32
-41.56
-30.48
-18.43
-6.76
3.49
11.77
17.99
22.33
25.08
26.47
26.72
26.05
24.77
23.25
21.88
21.00
20.76
21.19
22.16
23.46
24.84
26.09
27.01
27.52
27.65
27.50
27.17
26.66
25.84
24.47
22.29
19.30
15.77
12.26
9.39
7.58
6.80
6.60
6.23
4.98
2.50
-1.05
-5.04
-8.60
-10.99
-11.91
-11.62
-10.95
-11.00
-12.80
-16.94
-23.23
-30.57
-37.11
-40.65
-39.33
-32.56
-21.50
-9.06
0.76
4.35
-0.23
-12.41
-29.23
-46.43
-59.88
-66.92
-67.07
-61.86
-53.97
-46.10
-39.95
-35.66
-31.82
-26.16
-16.49
-1.74
17.50
39.03
59.63
75.90
85.08
85.61
77.29
61.32
40.05
16.55
-5.87
-24.34
-36.99
-43.24
-43.82
-40.27
-34.53
-28.27
-22.73
-18.47
-15.60
-13.87
-12.88
-12.28
-11.85
-11.63
-11.90
-13.12
-15.77
-20.14
-26.25
-33.75
-42.01
-50.24
-57.60
-63.29
-66.66
-67.23
-64.77
-59.34
-51.32
-41.32
-30.16
-18.76
-7.92
1.67
9.58
15.60
19.74
22.21
23.33
23.56
23.38
23.28
23.58
24.45
25.80
27.37
28.89
30.15
31.16
31.99
32.75
33.40
33.78
33.62
32.65
30.80
28.14
24.92
21.42
17.89
14.44
11.08
7.70
4.16
0.33
-3.84
-8.31
-12.92
-17.49
-21.82
-25.83
-29.60
-33.35
-37.45
-42.29
-48.17
-55.15
-62.89
-70.61
-77.14
-81.13
-81.40
-77.31
-68.93
-57.04
-42.99
-28.24
-14.14
-1.57
9.03
17.70
24.69
30.40
35.15
39.22
42.77
45.90
48.68
51.10
53.14
54.79
56.06
57.00
57.71
58.32
58.88
59.37
59.65
59.52
58.73
57.11
54.61
51.36
47.58
43.58
39.56
35.56
31.47
27.09
22.31
17.20
12.00
7.03
2.49
-1.64
-5.68
-9.99
-14.90
-20.47
-26.51
-32.67
-38.58
-44.14
-49.44
-54.83
-60.77
-67.71
-75.88
-85.13
-94.76
-103.54
-109.92
-112.26
-109.32
-100.66
-86.76
-68.96
-49.05
-28.89
-9.98
6.70
20.75
32.17
41.20
48.20
53.55
57.59
60.60
62.85
64.54
65.86
66.91
67.75
68.40
68.93
69.39
69.91
70.55
71.21
71.61
71.31
69.89
67.17
63.27
58.60
53.69
49.00
44.73
40.84
37.10
33.32
29.43
25.50
21.73
18.24
15.03
11.93
8.65
4.88
0.46
-4.62
-10.22
-16.07
-21.89
-27.49
-32.86
-38.16
-43.72
-49.93
-57.07
-65.08
-73.44
-81.12
-86.77
-89.05
-86.99
-80.32
-69.56
-55.87
-40.78
-25.76
-11.98
-0.10
9.70
17.60
23.93
29.08
33.37
36.99
40.08
42.74
45.09
47.16
48.99
50.55
51.80
52.72
53.32
53.68
53.89
54.00
53.96
53.66
52.91
51.63
49.78
47.44
44.75
41.86
38.91
35.91
32.84
29.60
26.05
22.17
18.00
13.72
9.55
5.69
2.18
-1.12
-4.49
-8.24
-12.55
-17.38
-22.51
-27.64
-32.49
-36.94
-41.05
-45.07
-49.36
-54.30
-60.11
-66.74
-73.77
-80.31
-85.19
-87.19
-85.39
-79.40
-69.52
-56.68
-42.16
-27.35
-13.44
-1.27
8.76
16.58
22.40
26.52
29.29
31.05
32.10
32.77
33.35
34.04
34.99
36.12
37.31
38.39
39.31
40.05
40.71
41.32
41.81
42.06
41.86
40.98
39.30
36.81
33.61
29.96
26.14
22.35
18.80
15.44
12.09
8.52
4.66
0.55
-3.57
-7.55
-11.41
-15.15
-18.94
-23.03
-27.47
-32.07
-36.72
-41.20
-45.50
-49.74
-53.38
-55.75
-55.98
-53.02
-45.85
-34.34
-18.89
-0.90
17.42
34.57
49.12
60.22
67.98
73.52
77.88
82.46
87.98
94.25
101.40
108.44
113.37
114.07
109.25
98.69
85.20
73.58
61.66
49.75
37.54
22.57
0.72
-26.49
-60.04
-97.37
-133.79
-165.16
-188.06
-201.08
-205.29
-202.96
-196.37
-187.93
-178.51
-167.98
-155.39
-138.19
-114.28
-83.30
-47.08
-9.45
24.21
49.62
64.29
67.87
62.27
49.99
33.32
14.52
-3.81
-19.05
-28.34
-29.89
-23.91
-12.40
1.14
13.03
20.90
24.38
24.75
24.23
24.62
26.47
29.02
30.74
30.12
26.52
20.49
13.40
6.98
2.59
0.82
1.46
3.77
6.88
10.18
13.39
16.50
19.64
22.81
25.89
28.60
30.63
31.63
31.23
29.12
25.05
19.02
11.28
2.40
-6.97
-16.28
-25.25
-33.88
-42.28
-50.48
-58.12
-64.42
-68.26
-68.50
-64.29
-55.36
-42.18
-25.88
-8.06
9.61
25.68
39.14
49.50
56.70
61.00
62.83
62.73
61.24
58.89
56.14
53.31
50.64
48.25
46.14
44.25
42.50
40.81
39.17
37.61
36.12
34.58
32.73
30.15
26.43
21.29
14.69
6.92
-1.47
-9.86
-17.69
-24.66
-30.81
-36.54
-42.45
-49.24
-57.29
-66.50
-76.08
-84.63
-90.39
-91.73
-87.54
-77.64
-62.82
-44.69
-25.23
-6.41
10.25
23.90
34.33
41.89
47.18
50.89
53.55
55.47
56.74
57.33
57.13
56.10
54.31
51.97
49.41
47.01
45.06
43.69
42.77
41.98
40.84
38.97
36.17
32.50
28.21
23.55
18.67
13.53
7.94
1.70
-5.26
-12.81
-20.63
-28.33
-35.62
-42.35
-48.64
-54.79
-61.28
-68.61
-77.14
-86.71
-96.49
-104.91
-109.89
-109.51
-102.65
-89.45
-71.36
-50.70
-29.95
-11.08
4.88
17.78
28.06
36.36
43.28
49.20
54.31
58.70
62.36
65.27
67.37
68.64
69.06
68.74
67.80
66.49
65.00
63.48
61.99
60.48
58.83
56.85
54.35
51.14
47.10
42.20
36.55
30.41
24.15
18.10
12.46
7.23
2.14
-3.13
-8.86
-15.19
-22.02
-29.11
-36.18
-42.99
-49.43
-55.50
-61.34
-67.25
-73.67
-81.10
-89.84
-99.65
-109.47
-117.42
-121.20
-118.90
-109.63
-93.94
-73.67
-51.33
-29.30
-9.32
7.79
21.89
33.30
42.47
49.85
55.88
60.90
65.13
68.63
71.32
73.07
73.81
73.61
72.70
71.44
70.16
69.12
68.41
67.95
67.45
66.54
64.86
62.19
58.50
54.01
49.08
44.09
39.27
34.63
29.99
25.09
19.77
14.01
8.05
2.26
-3.01
-7.57
-11.49
-15.10
-18.89
-23.33
-28.69
-34.89
-41.56
-48.19
-54.25
-59.55
-64.22
-68.84
-74.16
-80.91
-89.37
-99.07
-108.73
-116.32
-119.62
-116.79
-107.04
-90.91
-70.19
-47.38
-25.02
-5.05
11.46
24.30
33.84
40.71
45.54
48.90
51.20
52.78
53.90
54.70
55.27
55.60
55.70
55.60
55.40
55.28
55.37
55.72
56.23
56.60
56.42
55.35
53.14
49.83
45.65
40.99
36.21
31.56
27.05
22.52
17.72
12.47
6.75
0.74
-5.25
-10.96
-16.27
-21.29
-26.26
-31.50
-37.18
-43.30
-49.67
-55.97
-61.92
-67.38
-72.49
-77.67
-83.58
-90.81
-99.62
-109.51
-119.11
-126.36
-128.96
-125.14
-114.26
-97.06
-75.52
-52.18
-29.48
-9.22
7.69
21.13
31.48
39.39
45.54
50.48
54.65
58.23
61.27
63.66
65.30
66.12
66.17
65.56
64.49
63.19
61.95
61.01
60.49
60.28
60.02
59.20
57.35
54.21
49.92
44.88
39.65
34.74
30.38
26.52
22.90
19.16
14.98
10.24
4.99
-0.55
-6.12
-11.47
-16.56
-21.50
-26.54
-31.98
-37.99
-44.58
-51.53
-58.56
-65.36
-71.85
-78.09
-84.37
-91.03
-98.41
-106.59
-115.21
-123.36
-129.52
-131.88
-128.74
-119.14
-103.21
-82.32
-58.70
-34.83
-12.79
6.17
21.62
33.82
43.30
50.64
56.29
60.63
63.97
66.58
68.68
70.38
71.68
72.48
72.75
72.53
72.05
71.61
71.49
71.81
72.40
72.87
72.67
71.37
68.74
64.89
60.17
55.04
49.93
45.03
40.37
35.76
30.96
25.75
20.08
14.07
8.07
2.45
-2.52
-6.83
-10.79
-14.91
-19.71
-25.48
-32.15
-39.33
-46.47
-53.15
-59.20
-64.79
-70.36
-76.44
-83.51
-91.73
-100.75
-109.54
-116.46
-119.50
-116.86
-107.56
-91.86
-71.29
-48.17
-24.98
-3.71
14.44
29.07
40.30
48.51
54.18
57.82
59.99
61.23
61.96
62.41
62.66
62.66
62.36
61.79
61.09
60.46
60.06
59.96
60.06
60.13
59.82
58.79
56.81
53.82
49.92
45.36
40.38
35.16
29.79
24.28
18.66
13.00
7.43
2.11
-2.86
-7.56
-12.24
-17.22
-22.79
-29.02
-35.72
-42.49
-48.91
-54.74
-60.04
-65.15
-70.59
-76.90
-84.37
-92.82
-101.45
-108.75
-112.81
-111.75
-104.36
-90.59
-71.65
-49.73
-27.40
-6.87
10.41
23.96
33.96
41.06
45.97
49.36
51.75
53.47
54.73
55.65
56.31
56.78
57.10
57.29
57.34
57.28
57.15
57.08
57.18
57.43
57.62
57.37
56.25
53.96
50.45
45.94
40.77
35.26
29.60
23.87
18.05
12.22
6.46
0.93
-4.34
-9.41
-14.49
-19.82
-25.54
-31.66
-38.03
-44.36
-50.43
-56.11
-61.43
-66.66
-72.22
-78.58
-86.13
-94.80
-103.86
-111.82
-116.69
-116.48
-109.83
-96.55
-77.70
-55.41
-32.24
-10.53
8.05
22.72
33.51
40.99
45.95
49.21
51.40
52.99
54.22
55.17
55.83
56.21
56.30
56.21
56.05
55.91
55.85
55.85
55.82
55.67
55.33
54.67
53.58
51.86
49.33
45.85
41.41
36.14
30.27
24.10
17.87
11.84
6.18
0.96
-3.87
-8.51
-13.28
-18.46
-24.20
-30.46
-36.95
-43.31
-49.24
-54.64
-59.67
-64.70
-70.28
-76.93
-85.01
-94.34
-104.02
-112.37
-117.17
-116.32
-108.58
-94.02
-74.15
-51.40
-28.47
-7.57
9.94
23.59
33.54
40.34
44.69
47.31
48.90
50.03
51.01
51.98
52.87
53.56
53.95
54.03
53.90
53.71
53.61
53.73
54.10
54.61
55.01
54.98
54.14
52.15
48.87
44.36
38.85
32.73
26.45
20.36
14.70
9.43
4.36
-0.84
-6.49
-12.77
-19.62
-26.77
-33.82
-40.39
-46.26
-51.43
-56.13
-60.85
-66.19
-72.70
-80.69
-89.88
-99.23
-106.98
-110.97
-109.27
-100.86
-86.02
-66.34
-44.30
-22.49
-3.02
12.92
25.09
33.95
40.24
44.74
47.99
50.29
51.81
52.64
52.93
52.87
52.66
52.47
52.38
52.41
52.55
52.79
53.09
53.35
53.41
53.07
52.15
50.48
47.96
44.54
40.21
35.05
29.26
23.15
17.09
11.36
6.06
1.03
-4.00
-9.36
-15.23
-21.61
-28.37
-35.24
-41.98
-48.38
-54.33
-59.92
-65.46
-71.51
-78.67
-87.36
-97.41
-107.85
-116.87
-122.22
-121.84
-114.55
-100.46
-81.01
-58.56
-35.71
-14.67
3.18
17.34
27.98
35.71
41.26
45.38
48.69
51.64
54.48
57.25
59.83
62.05
63.79
64.98
65.72
66.15
66.48
66.83
67.26
67.65
67.77
67.28
65.84
63.24
59.50
54.84
49.64
44.22
38.74
33.16
27.35
21.21
14.85
8.56
2.74
-2.39
-6.87
-11.09
-15.57
-20.73
-26.73
-33.37
-40.23
-46.89
-53.10
-58.89
-64.58
-70.68
-77.78
-86.38
-96.61
-107.93
-118.90
-127.33
-130.75
-127.19
-115.97
-98.01
-75.62
-51.78
-29.24
-9.88
5.54
17.19
25.82
32.28
37.40
41.80
45.86
49.71
53.29
56.31
58.46
59.47
59.26
58.08
56.53
55.47
55.79
58.04
62.19
67.50
72.72
76.43
77.53
75.51
70.56
63.38
54.89
46.03
37.45
29.54
22.34
15.63
9.02
2.14
-5.20
-12.92
-20.74
-28.28
-35.14
-41.15
-46.37
-51.14
-56.10
-61.94
-69.26
-78.12
-87.75
-96.47
-102.01
-102.14
-95.48
-82.06
-63.37
-41.92
-20.41
-1.00
15.11
27.73
37.33
44.65
50.30
54.72
58.14
60.75
62.75
64.36
65.76
67.08
68.31
69.41
70.34
71.11
71.82
72.54
73.22
73.63
73.40
72.14
69.60
65.81
61.00
55.58
49.87
44.01
37.88
31.23
23.89
15.90
7.54
-0.81
-8.83
-16.39
-23.57
-30.53
-37.32
-43.82
-49.81
-55.08
-59.64
-63.71
-67.69
-72.07
-77.26
-83.56
-90.92
-98.83
-106.08
-110.93
-111.34
-105.58
-92.86
-73.66
-49.78
-23.84
1.41
23.85
42.43
57.15
68.84
78.60
87.33
95.43
102.74
108.83
113.22
115.65
116.11
114.75
111.78
107.43
101.96
95.82
89.63
84.05
79.48
75.97
73.10
70.24
66.85
62.62
57.55
51.73
45.19
37.84
29.52
20.19
10.01
-0.58
-10.98
-20.66
-29.30
-36.91
-43.79
-50.53
-57.79
-66.16
-76.01
-87.34
-99.84
-113.02
-126.34
-139.47
-152.31
-164.91
-177.21
-188.68
-198.11
-203.69
-203.38
-195.68
-180.12
-157.69
-130.62
-101.76
-73.87
-48.92
-27.85
-10.65
3.29
14.78
24.47
32.75
39.77
45.49
49.88
52.94
54.82
55.82
56.24
56.38
56.46
56.58
56.75
56.92
57.01
56.86
56.30
55.09
53.04
50.04
46.13
41.46
36.21
30.53
24.54
18.35
12.15
6.14
0.61
-4.24
-8.36
-11.99
-15.62
-19.94
-25.68
-33.22
-42.34
-52.00
-60.42
-65.51
-65.49
-59.51
-48.00
-32.52
-15.24
1.72
16.86
29.46
39.52
47.38
53.47
58.07
61.26
62.97
63.13
61.73
58.97
55.27
51.17
47.25
43.89
41.24
39.20
37.53
35.97
34.30
32.45
30.36
27.96
25.12
21.60
17.18
11.68
5.11
-2.36
-10.33
-18.41
-26.24
-33.66
-40.82
-48.04
-55.77
-64.39
-74.01
-84.21
-93.95
-101.58
-105.25
-103.40
-95.34
-81.62
-63.89
-44.41
-25.40
-8.40
5.92
17.72
27.52
35.81
42.87
48.72
53.24
56.39
58.28
59.15
59.32
59.14
58.79
58.34
57.69
56.60
54.86
52.38
49.24
45.63
41.69
37.40
32.45
26.41
18.85
9.70
-0.70
-11.64
-22.25
-31.85
-40.16
-47.37
-54.07
-61.07
-69.07
-78.52
-89.34
-100.87
-111.73
-120.06
-123.89
-121.69
-112.91
-98.22
-79.41
-58.82
-38.70
-20.60
-5.19
7.63
18.37
27.55
35.51
42.33
47.98
52.40
55.59
57.55
58.27
57.70
55.86
52.87
49.05
44.90
40.93
37.53
34.75
32.26
29.48
25.72
20.46
13.51
5.07
-4.30
-13.91
-23.08
-31.44
-38.94
-45.96
-53.12
-61.11
-70.35
-80.72
-91.37
-100.72
-106.84
-107.92
-102.90
-91.78
-75.66
-56.42
-36.15
-16.64
0.96
16.14
28.91
39.50
48.19
55.16
60.51
64.35
66.81
68.14
68.56
68.25
67.27
65.64
63.41
60.81
58.21
56.02
54.44
53.31
52.09
50.05
46.54
41.24
34.33
26.38
18.15
10.36
3.43
-2.61
-8.15
-13.85
-20.48
-28.58
-38.05
-48.01
-56.73
-62.04
-61.91
-55.26
-42.33
-24.74
-5.00
14.26
30.97
44.05
53.45
59.75
63.76
66.18
67.38
67.49
66.56
64.68
62.06
59.07
56.16
53.77
52.26
51.80
52.36
53.73
55.47
57.00
57.69
56.98
54.45
49.95
43.57
35.64
26.64
17.10
7.57
-1.48
-9.67
-16.72
-22.54
-27.23
-31.06
-34.40
-37.68
-41.30
-45.58
-50.63
-56.21
-61.57
-65.41
-66.02
-61.67
-51.16
-34.32
-12.21
13.13
39.15
63.60
84.99
102.96
118.11
131.56
144.48
157.60
171.04
184.43
197.12
208.54
218.28
226.21
232.47
237.61
242.83
249.87
260.59
275.93
295.00
314.77
330.90
339.33
338.07
327.95
312.25
295.16
280.06
268.51
260.26
254.11
248.83
243.80
238.80
233.65
227.93
220.97
212.26
201.77
190.12
178.40
167.83
159.20
152.65
147.60
143.04
137.89
131.38
123.15
113.30
102.10
89.80
76.41
61.82
45.80
28.29
9.53
-9.96
-29.47
-48.28
-65.89
-82.08
-96.89
-110.55
-123.29
-135.14
-145.98
-155.49
-163.26
-168.96
-172.45
-173.82
-173.36
-171.47
-168.52
-164.76
-160.29
-155.12
-149.29
-142.97
-136.55
-130.60
-125.65
-122.09
-119.93
-118.88
-118.39
-118.00
-117.53
-117.22
-117.67
-119.56
-123.32
-128.92
-135.84
-143.35
-150.79
-157.99
-165.25
-173.30
-183.04
-195.33
-210.87
-229.89
-251.77
-274.73
-295.77
-311.23
-317.94
-314.51
-301.96
-283.61
-263.77
-246.18
-232.70
-223.02
-215.30
-207.29
-197.41
-185.11
-170.65
-154.55
-137.25
-119.12
-100.72
-83.06
-67.57
-55.72
-48.49
-45.97
-47.32
-51.10
-55.94
-60.93
-65.94
-71.33
-77.63
-84.90
-92.59
-99.54
-104.35
-105.89
-103.60
-97.77
-89.33
-79.51
-69.44
-59.79
-50.79
-42.40
-34.60
-27.56
-21.66
-17.23
-14.47
-13.21
-13.08
-13.70
-14.81
-16.42
-18.56
-21.18
-23.89
-26.03
-26.89
-26.00
-23.32
-19.28
-14.65
-10.15
-6.24
-2.90
0.17
3.35
6.84
10.51
13.90
16.48
17.85
17.87
16.78
14.97
12.81
10.52
8.14
5.58
2.79
-0.20
-3.22
-6.01
-8.29
-9.87
-10.70
-10.83
-10.36
-9.32
-7.65
-5.25
-2.07
1.69
5.57
8.95
11.25
12.16
11.87
10.94
10.12
9.99
10.78
12.25
13.83
14.84
14.79
13.54
11.36
8.79
6.35
4.41
2.99
1.93
1.02
0.17
-0.51
-0.85
-0.76
-0.39
-0.06
-0.20
-1.10
-2.83
-5.26
-8.11
-11.04
-13.73
-15.93
-17.45
-18.24
-18.32
-17.86
-17.09
-16.32
-15.80
-15.77
-16.31
-17.39
-18.81
-20.25
-21.34
-21.75
-21.29
-19.93
-17.81
-15.15
-12.17
-9.09
-6.06
-3.19
-0.58
1.71
3.62
5.13
6.18
6.72
6.67
6.06
4.93
3.49
1.94
0.44
-1.05
-2.67
-4.66
-7.11
-9.89
-12.63
-14.82
-16.06
-16.26
-15.66
-14.74
-14.10
-14.32
-15.69
-18.20
-21.35
-24.13
-25.10
-22.73
-16.01
-5.00
8.95
23.49
36.15
45.20
50.21
51.80
51.01
48.56
44.60
38.90
31.49
23.19
15.50
10.11
8.14
9.61
13.45
18.06
21.95
24.30
25.10
24.86
24.24
23.61
22.92
21.76
19.67
16.34
11.81
6.50
1.06
-3.82
-7.59
-9.99
-11.06
-11.09
-10.43
-9.36
-8.05
-6.54
-4.91
-3.20
-1.50
0.15
1.71
3.11
4.16
4.66
4.43
3.46
1.91
-0.03
-2.18
-4.49
-6.93
-9.34
-11.42
-12.86
-13.54
-13.76
-14.19
-15.60
-18.53
-22.99
-28.41
-33.86
-38.31
-40.98
-41.60
-40.37
-37.94
-35.16
-32.75
-31.01
-29.73
-28.28
-25.93
-22.35
-17.88
-13.63
-11.11
-11.72
-16.22
-24.34
-34.77
-45.39
-53.80
-58.03
-57.28
-52.44
-46.27
-42.78
-46.11
-59.15
-82.37
-113.60
-148.77
-183.35
-213.73
-238.09
-256.21
-268.78
-276.77
-281.12
-282.81
-283.09
-283.39
-285.04
-288.66
-293.90
-299.34
-303.01
-302.95
-297.80
-287.09
-271.34
-251.80
-230.08
-207.76
-185.98
-165.32
-145.86
-127.53
-110.31
-94.46
-80.31
-68.10
-57.76
-48.86
-40.78
-32.91
-24.87
-16.63
-8.48
-0.81
6.07
12.08
17.43
22.59
28.07
34.22
41.17
48.68
56.33
63.65
70.34
76.38
82.06
87.82
94.09
101.08
108.74
116.78
124.85
132.74
140.44
148.16
156.24
165.09
175.21
187.23
201.57
218.12
235.60
251.55
262.77
266.39
260.96
247.06
226.97
203.70
179.81
156.71
134.67
113.39
92.52
71.84
51.09
29.78
7.41
-15.96
-39.10
-59.50
-73.94
-79.61
-75.12
-61.02
-39.44
-13.40
14.11
40.65
64.51
84.72
100.92
113.23
122.11
128.20
132.05
134.00
134.23
133.00
130.94
129.07
128.50
130.02
133.74
139.04
144.85
150.05
153.89
156.06
156.60
155.56
152.87
148.28
141.55
132.67
121.98
110.17
98.06
86.39
75.55
65.54
56.02
46.43
36.28
25.33
13.69
1.85
-9.59
-20.11
-29.55
-38.29
-47.14
-57.17
-69.37
-84.28
-101.58
-119.87
-136.63
-148.59
-152.42
-145.69
-127.66
-99.71
-65.06
-27.93
7.61
38.52
63.36
82.07
95.50
104.71
110.59
113.73
114.61
113.82
112.14
110.55
109.91
110.72
112.95
116.06
119.23
121.65
122.83
122.57
120.98
118.18
114.23
109.04
102.45
94.34
84.75
73.90
62.20
50.12
38.17
26.81
16.42
7.13
-1.20
-9.10
-17.42
-27.17
-39.22
-53.84
-70.32
-86.73
-100.12
-107.13
-105.01
-92.53
-70.57
-41.94
-10.69
19.11
44.42
63.79
77.26
85.88
90.99
93.67
94.64
94.31
93.01
91.16
89.21
87.52
86.25
85.24
84.24
83.03
81.62
80.22
79.07
78.12
76.97
74.87
70.98
64.80
56.40
46.45
36.02
26.15
17.45
9.90
2.96
-4.19
-12.17
-21.12
-30.68
-40.07
-48.56
-55.79
-62.05
-68.21
-75.53
-85.24
-98.10
-113.95
-131.31
-147.40
-158.61
-161.40
-153.39
-134.30
-106.18
-72.84
-38.68
-7.39
18.86
39.58
55.54
67.98
78.11
86.74
94.27
100.83
106.42
110.95
114.29
116.30
116.92
116.23
114.51
112.23
109.93
108.04
106.71
105.72
104.55
102.49
99.00
93.90
87.45
80.31
73.19
66.66
60.80
55.27
49.41
42.62
34.68
25.81
16.65
7.87
-0.09
-7.25
-14.01
-21.01
-28.73
-37.38
-46.77
-56.43
-65.81
-74.49
-82.40
-89.90
-97.70
-106.70
-117.54
-130.21
-143.56
-155.30
-162.34
-161.65
-151.24
-131.04
-103.08
-70.92
-38.60
-9.52
14.41
32.86
46.74
57.45
66.25
74.00
81.08
87.55
93.36
98.38
102.49
105.53
107.35
107.86
107.11
105.38
103.15
101.00
99.37
98.43
97.93
97.30
95.80
92.87
88.25
82.10
74.98
67.54
60.40
53.95
48.24
43.09
38.14
33.01
27.41
21.27
14.78
8.33
2.38
-2.72
-6.91
-10.54
-14.25
-18.82
-24.82
-32.45
-41.45
-51.20
-61.05
-70.50
-79.36
-87.83
-96.39
-105.67
-116.20
-128.11
-140.67
-152.13
-159.88
-161.09
-153.65
-137.11
-113.03
-84.73
-56.23
-31.07
-11.40
2.47
11.76
18.44
24.49
31.16
38.79
46.92
54.65
61.07
65.58
68.06
68.81
68.47
67.81
67.62
68.55
71.04
75.04
80.04
85.12
89.25
91.66
92.06
90.68
87.94
84.18
79.31
72.87
64.24
53.06
39.51
24.38
8.90
-5.65
-18.28
-28.54
-36.55
-42.90
-48.41
-53.83
-59.64
-65.92
-72.42
-78.74
-84.60
-90.02
-95.39
-101.38
-108.65
-117.49
-127.47
-137.20
-144.49
-146.80
-141.96
-128.90
-108.13
-81.67
-52.56
-24.03
1.28
21.73
36.80
46.83
52.63
55.17
55.38
54.09
52.03
49.80
47.84
46.35
45.29
44.49
43.75
43.07
42.56
42.41
42.65
42.96
42.72
41.22
37.91
32.68
25.93
18.30
10.44
2.71
-4.90
-12.71
-21.07
-30.17
-39.86
-49.70
-59.07
-67.50
-74.85
-81.38
-87.79
-94.97
-103.70
-114.25
-126.03
-137.45
-146.01
-148.95
-144.06
-130.40
-108.82
-81.74
-52.53
-24.51
-0.14
19.33
33.86
44.14
51.16
55.86
58.97
61.05
62.55
63.78
64.92
65.92
66.53
66.39
65.21
62.93
59.87
56.53
53.47
50.96
48.82
46.50
43.26
38.47
31.95
24.02
15.31
6.58
-1.67
-9.30
-16.59
-24.03
-32.19
-41.36
-51.51
-62.28
-73.09
-83.37
-92.78
-101.31
-109.25
-117.13
-125.45
-134.46
-143.93
-152.93
-159.86
-162.61
-159.13
-148.06
-129.28
-104.13
-75.15
-45.38
-17.54
6.56
26.20
41.60
53.49
62.68
69.84
75.43
79.74
82.98
85.27
86.73
87.47
87.64
87.46
87.14
86.95
87.12
87.79
88.97
90.53
92.18
93.48
93.91
92.91
90.04
85.06
78.04
69.35
59.55
49.38
39.47
30.26
21.93
14.37
7.27
0.22
-7.11
-14.90
-23.14
-31.58
-39.88
-47.63
-54.55
-60.63
-66.20
-71.98
-78.83
-87.41
-97.74
-108.79
-118.51
-124.18
-123.25
-114.19
-97.10
-73.77
-47.14
-20.46
3.52
23.13
37.83
48.02
54.59
58.61
61.09
62.81
64.38
66.18
68.35
70.84
73.38
75.58
77.08
77.66
77.35
76.43
75.29
74.25
73.34
72.31
70.74
68.28
64.82
60.54
55.75
50.75
45.60
40.14
34.17
27.63
20.68
13.73
7.22
1.44
-3.62
-8.33
-13.26
-18.93
-25.59
-33.10
-40.98
-48.56
-55.31
-61.07
-66.13
-71.26
-77.40
-85.40
-95.48
-107.06
-118.51
-127.38
-130.90
-126.75
-113.85
-92.82
-65.91
-36.47
-7.92
17.01
36.84
51.32
61.00
66.75
69.38
69.56
67.86
64.87
61.21
57.48
54.08
51.19
48.77
46.68
44.84
43.29
42.25
41.96
42.53
43.81
45.35
46.45
46.38
44.57
40.79
35.23
28.38
20.88
13.31
6.08
-0.69
-7.07
-13.28
-19.54
-25.89
-32.20
-38.18
-43.49
-47.96
-51.67
-55.02
-58.68
-63.41
-69.86
-78.38
-88.65
-99.60
-109.33
-115.45
-115.64
-108.34
-93.36
-72.02
-46.91
-21.10
2.61
22.35
37.39
47.96
54.82
58.87
60.88
61.41
60.88
59.66
58.14
56.74
55.82
55.69
56.47
58.07
60.23
62.60
64.82
66.68
68.16
69.38
70.43
71.32
71.82
71.56
70.18
67.53
63.93
60.10
56.94
55.26
55.31
56.78
58.87
60.70
61.61
61.36
60.02
57.81
54.89
51.45
47.88
44.92
43.51
44.49
48.09
53.78
60.75
68.85
79.28
94.31
115.78
143.32
173.48
200.61
219.22
226.48
223.40
213.86
202.25
191.18
180.58
168.88
154.93
139.46
125.10
114.92
110.72
112.12
116.97
122.55
126.87
129.23
130.12
130.59
131.36
132.37
132.74
131.16
126.47
118.20
106.75
93.25
79.09
65.42
52.75
40.85
29.02
16.47
2.74
-12.01
-27.03
-41.26
-53.77
-64.10
-72.47
-79.58
-86.37
-93.56
-101.53
-110.23
-119.25
-127.82
-134.84
-138.92
-138.72
-133.51
-123.78
-111.42
-99.38
-90.71
-87.57
-90.64
-99.16
-111.58
-126.47
-143.10
-161.48
-181.87
-204.07
-226.93
-248.32
-265.65
-276.68
-280.33
-277.05
-268.45
-256.66
-243.53
-230.09
-216.63
-203.12
-189.70
-176.92
-165.56
-156.13
-148.51
-141.97
-135.39
-127.85
-119.04
-109.38
-99.88
-91.65
-85.42
-81.18
-78.28
-75.75
-72.80
-69.21
-65.42
-62.18
-60.10
-59.29
-59.32
-59.42
-58.93
-57.57
-55.45
-52.86
-50.04
-47.07
-43.95
-40.80
-37.87
-35.48
-33.77
-32.57
-31.38
-29.62
-26.91
-23.26
-19.06
-14.89
-11.21
-8.28
-6.09
-4.53
-3.54
-3.13
-3.37
-4.25
-5.62
-7.19
-8.62
-9.69
-10.39
-10.95
-11.70
-12.96
-14.92
-17.48
-20.36
-23.14
-25.43
-26.95
-27.62
-27.53
-26.87
-25.81
-24.40
-22.63
-20.41
-17.72
-14.68
-11.47
-8.32
-5.37
-2.71
-0.31
1.82
3.62
4.93
5.50
5.15
3.81
1.57
-1.27
-4.31
-7.15
-9.45
-11.07
-12.10
-12.90
-13.97
-15.76
-18.53
-22.14
-26.08
-29.66
-32.21
-33.38
-33.23
-32.15
-30.62
-29.12
-27.91
-27.09
-26.67
-26.65
-27.07
-27.93
-29.14
-30.49
-31.75
-32.77
-33.52
-34.13
-34.72
-35.34
-35.82
-35.78
-34.74
-32.23
-27.98
-21.96
-14.50
-6.26
1.96
9.29
15.09
19.04
21.17
21.80
21.43
20.47
19.24
17.95
16.73
15.69
15.00
14.78
15.10
15.90
16.95
17.93
18.51
18.52
17.95
16.97
15.80
14.63
13.51
12.36
11.09
9.62
8.00
6.39
4.98
3.92
3.31
3.16
3.48
4.30
5.66
7.57
9.95
12.57
15.13
17.28
18.76
19.44
19.33
18.65
17.68
16.77
16.20
16.08
16.38
16.87
17.34
17.64
17.78
17.83
17.90
18.02
18.11
18.10
17.93
17.64
17.31
17.05
16.82
16.49
15.86
14.73
13.01
10.70
7.90
4.76
1.45
-1.78
-4.66
-6.84
-8.11
-8.50
-8.36
-8.36
-9.15
-11.17
-14.43
-18.52
-22.89
-27.18
-31.39
-35.90
-41.14
-47.27
-53.95
-60.32
-65.39
-68.39
-69.19
-68.37
-66.97
-66.06
-66.25
-67.32
-68.17
-67.04
-61.85
-50.89
-33.25
-9.30
19.33
50.10
80.28
107.69
131.15
150.41
165.68
177.15
184.65
187.83
186.52
181.11
172.55
162.03
150.56
138.63
126.27
113.19
99.06
83.65
66.90
48.90
30.07
11.20
-6.42
-21.29
-32.12
-38.24
-39.91
-38.12
-34.12
-28.95
-23.17
-16.91
-10.18
-3.20
3.51
9.25
13.32
15.30
15.14
12.98
9.00
3.37
-3.81
-12.32
-21.61
-30.88
-39.08
-45.24
-48.74
-49.52
-48.06
-45.16
-41.66
-38.18
-34.96
-31.97
-29.00
-25.79
-22.13
-17.94
-13.27
-8.37
-3.53
0.90
4.72
7.78
10.02
11.32
11.55
10.59
8.52
5.68
2.60
-0.14
-2.09
-3.03
-2.98
-2.10
-0.64
1.18
3.04
4.64
5.71
6.02
5.54
4.31
2.43
-0.07
-3.18
-6.85
-10.97
-15.22
-19.20
-22.47
-24.74
-25.90
-26.13
-25.75
-25.17
-24.77
-24.90
-25.78
-27.60
-30.38
-33.89
-37.57
-40.61
-42.21
-41.90
-39.87
-36.88
-33.94
-31.83
-30.62
-29.76
-28.33
-25.65
-21.54
-16.39
-10.82
-5.26
0.34
6.48
13.94
23.44
35.48
50.11
66.83
84.36
100.81
113.79
120.98
120.79
112.90
98.54
80.15
60.77
43.08
28.72
18.04
10.30
4.27
-1.15
-6.54
-11.94
-17.06
-21.70
-25.87
-29.70
-33.23
-36.23
-38.27
-38.97
-38.34
-36.76
-34.95
-33.64
-33.32
-34.04
-35.50
-37.19
-38.58
-39.36
-39.42
-38.92
-38.07
-37.12
-36.25
-35.54
-34.99
-34.63
-34.42
-34.34
-34.23
-33.86
-33.01
-31.56
-29.54
-27.17
-24.77
-22.69
-21.26
-20.68
-20.90
-21.59
-22.08
-21.50
-19.09
-14.46
-7.90
-0.28
7.18
13.30
17.33
19.04
18.79
17.31
15.54
14.48
15.03
17.87
23.34
31.13
40.45
49.96
58.05
63.16
64.08
60.30
52.16
40.88
28.38
16.89
8.42
4.19
4.31
7.83
13.04
18.12
21.79
23.55
23.78
23.24
22.60
22.08
21.39
19.99
17.35
13.21
7.64
0.99
-6.26
-13.45
-19.80
-24.59
-27.29
-27.76
-26.35
-23.69
-20.43
-16.93
-13.23
-9.29
-5.21
-1.40
1.57
3.23
3.49
2.71
1.47
0.32
-0.48
-0.97
-1.29
-1.56
-1.76
-1.80
-1.68
-1.46
-1.26
-1.07
-0.71
0.10
1.66
4.02
7.03
10.27
13.31
15.77
17.43
18.18
18.08
17.15
15.45
12.93
9.49
5.03
-0.51
-6.97
-14.06
-21.23
-27.86
-33.30
-36.99
-38.48
-37.49
-34.01
-28.34
-21.27
-13.83
-7.15
-2.11
0.91
2.06
1.83
0.77
-0.78
-2.71
-4.95
-7.31
-9.42
-10.87
-11.35
-10.68
-8.60
-4.53
2.19
11.89
23.80
35.75
44.55
46.86
40.41
24.81
1.75
-25.52
-52.96
-76.67
-93.51
-101.43
-99.70
-88.82
-70.32
-46.56
-20.35
5.39
27.95
45.23
56.09
60.69
60.36
57.16
53.16
49.74
47.35
45.64
43.99
41.96
39.46
36.76
34.08
31.45
28.66
25.38
21.34
16.57
11.42
6.48
2.34
-0.52
-1.91
-1.91
-0.79
1.10
3.50
6.24
9.23
12.33
15.31
17.89
19.84
21.12
21.82
22.16
22.30
22.15
21.39
19.65
16.71
12.69
8.05
3.39
-0.84
-4.62
-8.32
-12.40
-16.97
-21.48
-24.85
-25.93
-24.17
-19.99
-14.51
-9.13
-4.74
-1.53
0.93
3.26
5.83
8.76
11.99
15.69
20.19
25.81
32.49
39.53
45.74
49.80
50.78
48.45
43.39
36.72
29.58
22.61
15.63
7.85
-1.65
-13.21
-26.33
-39.80
-52.36
-62.94
-70.83
-75.20
-74.89
-68.77
-56.66
-40.24
-23.23
-10.44
-6.06
-11.90
-26.65
-46.40
-66.00
-80.78
-87.78
-86.32
-78.03
-66.21
-55.01
-48.35
-48.82
-56.98
-71.32
-88.92
-106.53
-121.45
-132.14
-138.00
-139.13
-135.92
-128.86
-118.58
-105.96
-92.15
-78.48
-66.20
-55.94
-47.56
-39.93
-31.22
-19.45
-3.10
18.48
45.15
76.28
110.88
147.59
184.31
217.93
244.77
261.67
267.19
262.41
250.62
236.14
222.76
212.75
206.69
204.05
203.91
205.18
206.31
204.97
198.06
182.59
157.05
122.44
82.38
42.18
6.98
-19.83
-37.53
-47.72
-53.26
-56.91
-60.46
-64.50
-68.82
-72.95
-76.46
-78.96
-80.13
-79.68
-77.59
-74.20
-70.22
-66.48
-63.63
-61.92
-61.25
-61.29
-61.72
-62.31
-62.85
-63.13
-62.84
-61.72
-59.72
-56.98
-53.86
-50.67
-47.60
-44.68
-42.13
-40.37
-39.89
-40.63
-41.44
-40.10
-34.04
-21.66
-3.50
17.48
36.73
49.86
54.29
50.29
40.55
29.03
19.51
14.71
16.13
24.29
38.78
58.10
79.39
98.69
111.70
115.21
108.09
91.67
69.24
44.79
21.83
2.70
-11.57
-20.91
-25.82
-27.31
-26.67
-25.39
-24.72
-25.34
-27.22
-29.77
-32.15
-33.66
-34.02
-33.25
-31.68
-29.66
-27.47
-25.24
-23.04
-20.88
-18.76
-16.81
-15.15
-13.95
-13.25
-13.01
-13.02
-13.05
-12.79
-12.12
-11.03
-9.70
-8.39
-7.41
-7.11
-7.77
-9.52
-12.30
-15.70
-18.99
-21.22
-21.49
-19.29
-14.74
-8.62
-2.18
3.22
6.55
7.33
5.72
2.32
-2.01
-6.37
-9.86
-11.61
-10.93
-7.52
-1.69
5.50
12.61
18.40
22.47
25.50
28.82
33.66
40.30
47.68
53.78
56.39
54.11
46.78
35.53
22.12
8.45
-3.87
-13.61
-19.93
-22.44
-21.38
-17.73
-13.03
-8.95
-6.77
-6.91
-8.98
-12.10
-15.47
-18.59
-21.37
-23.76
-25.58
-26.44
-26.03
-24.33
-21.77
-19.10
-17.11
-16.33
-16.82
-18.22
-19.90
-21.19
-21.69
-21.29
-20.19
-18.71
-17.06
-15.31
-13.34
-11.02
-8.36
-5.56
-2.83
-0.36
1.83
3.74
5.34
6.48
6.87
6.34
4.94
2.97
0.95
-0.55
-1.05
-0.20
2.17
5.93
10.61
15.40
19.46
22.23
23.66
24.20
24.40
24.60
24.58
23.75
21.54
17.86
13.26
8.70
5.18
3.33
3.40
5.19
8.19
11.56
14.19
14.89
12.82
7.93
1.08
-6.16
-12.23
-16.19
-18.05
-18.50
-18.36
-18.18
-18.00
-17.71
-17.18
-16.58
-16.12
-15.80
-15.27
-13.84
-10.77
-5.57
1.63
10.21
19.03
26.80
32.36
35.03
34.77
32.16
28.24
24.11
20.63
18.11
16.41
15.09
13.75
12.14
10.32
8.49
6.83
5.51
4.53
3.85
3.44
3.32
3.49
3.91
4.46
4.91
5.09
4.85
4.17
3.09
1.64
-0.27
-2.80
-6.10
-10.23
-14.98
-19.94
-24.50
-28.15
-30.51
-31.52
-31.40
-30.46
-29.01
-27.13
-24.66
-21.19
-16.28
-9.64
-1.28
8.47
18.98
29.51
39.27
47.46
53.41
56.65
57.09
55.15
51.73
48.00
45.13
43.84
44.29
46.10
48.71
51.77
55.27
59.33
63.69
67.25
68.10
64.01
53.39
36.11
13.83
-10.36
-32.82
-50.43
-61.39
-65.43
-63.68
-58.04
-50.61
-43.24
-37.20
-33.09
-30.90
-30.24
-30.48
-30.97
-31.00
-29.94
-27.32
-23.00
-17.30
-10.92
-4.70
0.67
4.93
8.28
11.16
13.98
16.83
19.47
21.58
23.10
24.28
25.67
27.66
30.12
32.45
33.88
33.86
32.51
30.61
29.20
29.08
30.51
33.11
36.25
39.35
42.09
44.40
46.29
47.62
48.12
47.51
45.77
43.24
40.48
38.00
35.76
33.12
28.96
22.28
12.84
1.38
-10.54
-21.29
-29.74
-35.66
-39.66
-42.80
-46.17
-50.65
-56.90
-65.27
-75.82
-87.97
-100.58
-111.99
-120.41
-124.44
-123.43
-117.60
-107.89
-95.66
-82.31
-69.10
-57.02
-46.79
-38.88
-33.47
-30.42
-29.23
-29.10
-29.13
-28.60
-27.07
-24.49
-21.08
-17.14
-12.94
-8.67
-4.52
-0.76
2.24
4.05
4.35
3.09
0.58
-2.45
-5.00
-6.10
-5.15
-2.09
2.59
8.07
13.55
18.53
22.98
27.32
32.27
38.49
46.27
55.13
63.75
70.11
72.15
68.56
59.40
46.09
30.77
15.28
0.55
-13.46
-27.00
-39.76
-50.45
-57.28
-58.76
-54.50
-45.47
-33.37
-19.78
-5.41
9.96
27.01
46.09
66.70
87.41
106.31
121.51
131.77
136.58
136.11
131.05
122.26
110.78
97.73
84.17
71.03
58.73
47.11
35.49
23.19
9.99
-3.48
-15.94
-26.04
-33.07
-37.32
-40.01
-42.67
-46.38
-51.34
-56.85
-61.77
-65.21
-66.89
-67.36
-67.52
-68.17
-69.56
-71.39
-72.99
-73.75
-73.40
-71.99
-69.76
-66.83
-63.19
-58.89
-54.17
-49.43
-44.83
-40.06
-34.20
-26.18
-15.63
-3.34
8.56
17.31
20.56
17.21
7.87
-5.53
-20.39
-34.33
-45.60
-53.21
-56.68
-55.84
-50.76
-41.92
-30.32
-17.49
-5.31
4.51
11.05
14.56
16.45
18.69
22.98
29.96
38.95
48.16
55.48
59.21
58.59
53.93
46.37
37.28
27.98
19.34
11.80
5.38
-0.21
-5.57
-11.41
-18.48
-27.29
-37.85
-49.54
-61.00
-70.48
-76.25
-77.17
-73.08
-64.88
-54.30
-43.30
-33.51
-25.85
-20.37
-16.51
-13.64
-11.39
-9.97
-10.00
-12.09
-16.45
-22.67
-29.91
-37.35
-44.66
-52.15
-60.42
-69.80
-79.80
-89.08
-95.83
-98.61
-96.94
-91.62
-84.30
-76.82
-70.43
-65.43
-61.22
-56.77
-51.29
-44.71
-37.71
-31.42
-26.74
-23.81
-21.76
-19.05
-14.10
-6.18
4.14
15.14
24.62
30.75
32.68
30.80
26.29
20.77
15.76
12.51
11.82
13.83
18.02
23.26
28.30
32.51
36.54
42.24
51.88
66.77
86.14
107.06
125.34
137.09
140.13
134.50
121.92
104.79
85.13
64.20
42.62
20.66
-1.58
-24.12
-47.10
-70.49
-93.53
-114.15
-129.01
-134.20
-126.58
-105.08
-71.35
-29.34
15.90
59.83
99.57
134.24
164.47
191.52
216.39
239.25
259.35
275.36
285.91
290.23
288.59
282.48
274.20
266.07
259.37
253.68
246.83
235.70
217.67
192.04
160.81
128.33
100.18
81.31
74.59
80.08
95.16
115.62
136.88
155.05
167.32
172.05
168.57
156.93
137.89
112.81
83.58
52.27
20.75
-9.59
-37.85
-63.56
-86.57
-107.06
-125.57
-142.98
-160.20
-177.54
-194.25
-208.32
-217.13
-218.39
-211.13
-196.06
-175.31
-151.60
-127.24
-103.62
-81.25
-60.18
-40.60
-23.01
-8.25
2.91
10.12
13.65
14.32
13.22
11.35
9.45
7.93
7.03
6.95
7.96
10.34
14.11
18.96
24.21
28.85
31.90
32.62
30.79
26.57
20.51
13.16
4.95
-3.92
-13.39
-23.39
-33.67
-43.78
-53.19
-61.40
-68.12
-73.29
-76.97
-79.25
-80.33
-80.62
-80.83
-81.91
-84.73
-89.69
-96.46
-103.92
-110.60
-115.03
-116.12
-113.21
-105.95
-94.19
-77.99
-57.78
-34.45
-9.31
16.18
40.63
62.71
81.10
94.32
100.87
99.66
90.45
74.12
52.55
28.24
3.67
-18.93
-37.73
-51.33
-58.89
-60.59
-57.90
-53.46
-50.17
-49.93
-52.60
-56.07
-57.23
-53.64
-44.85
-32.54
-19.69
-9.11
-2.28
0.81
1.09
-0.52
-3.61
-8.15
-13.95
-20.28
-25.86
-29.40
-30.21
-28.50
-25.28
-21.89
-19.57
-18.90
-19.72
-21.10
-21.62
-19.71
-14.13
-4.57
8.10
21.81
33.91
42.06
45.28
44.30
41.38
39.39
40.60
45.80
54.03
63.19
70.90
75.48
76.60
75.16
72.90
71.62
72.43
75.17
78.37
79.58
76.16
66.25
49.47
27.13
1.77
-23.72
-47.04
-66.95
-83.30
-96.51
-107.21
-115.90
-122.88
-128.40
-132.50
-134.97
-135.19
-132.30
-125.52
-114.65
-100.21
-83.38
-65.66
-48.44
-32.78
-19.37
-8.67
-0.85
4.12
6.68
7.50
7.35
6.90
6.53
6.34
6.34
6.57
7.07
7.83
8.59
8.78
7.81
5.29
1.30
-3.44
-7.75
-10.41
-10.54
-7.86
-2.69
4.11
11.49
18.36
23.82
27.19
28.18
26.89
23.80
19.71
15.51
11.91
9.35
7.79
6.88
6.14
5.23
4.15
3.20
2.89
3.62
5.51
8.25
11.25
13.81
15.41
15.89
15.40
14.30
12.86
11.22
9.26
6.79
3.68
-0.07
-4.22
-8.44
-12.46
-16.12
-19.42
-22.45
-25.21
-27.64
-29.52
-30.67
-31.06
-30.93
-30.76
-31.08
-32.23
-34.08
-36.00
-36.98
-35.95
-32.21
-25.72
-17.08
-7.42
1.91
9.78
15.49
18.91
20.38
20.52
19.90
18.86
17.49
15.64
13.25
10.44
7.62
5.42
4.50
5.32
8.02
12.35
17.66
23.16
27.99
31.48
33.30
33.55
32.65
31.11
29.29
27.20
24.59
21.17
16.90
12.11
7.44
3.52
0.69
-1.20
-2.66
-4.32
-6.61
-9.58
-12.93
-16.16
-18.92
-21.04
-22.65
-24.02
-25.52
-27.48
-30.23
-33.93
-38.45
-43.21
-47.07
-48.52
-46.02
-38.55
-26.07
-9.69
8.67
26.68
42.33
54.27
62.02
65.84
66.49
64.88
61.89
58.17
54.03
49.52
44.56
39.11
33.35
27.72
22.81
19.16
17.06
16.45
16.95
17.98
18.96
19.40
19.03
17.76
15.75
13.27
10.58
7.87
5.14
2.24
-1.03
-4.77
-8.94
-13.26
-17.31
-20.71
-23.25
-25.02
-26.32
-27.64
-29.45
-31.98
-35.11
-38.48
-41.56
-43.99
-45.80
-47.38
-49.44
-52.57
-57.02
-62.42
-67.86
-71.99
-73.33
-70.63
-63.05
-50.38
-33.03
-12.04
11.09
34.48
56.18
74.44
88.11
96.96
101.81
104.32
106.39
109.43
113.87
119.08
123.90
127.37
129.27
130.21
131.09
132.51
134.43
136.23
137.09
136.27
132.86
125.36
111.71
89.90
59.45
22.46
-16.28
-50.75
-75.95
-89.97
-94.40
-93.21
-90.49
-88.55
-87.47
-85.90
-82.63
-77.60
-71.84
-66.60
-62.29
-58.31
-53.51
-47.31
-40.41
-34.70
-32.41
-34.88
-41.71
-50.80
-59.04
-63.48
-62.26
-54.97
-42.45
-26.18
-7.74
11.56
30.84
49.51
67.13
83.36
97.81
109.92
118.79
123.09
121.22
111.75
94.07
68.82
38.19
5.48
-25.82
-53.10
-75.42
-93.45
-108.63
-122.14
-133.93
-142.79
-147.09
-145.97
-139.88
-130.63
-120.44
-111.04
-103.04
-96.12
-89.69
-83.56
-78.16
-74.16
-71.99
-71.45
-71.69
-71.62
-70.38
-67.63
-63.62
-58.99
-54.42
-50.42
-47.22
-44.79
-43.07
-42.02
-41.63
-41.64
-41.32
-39.12
-32.90
-20.40
0.05
28.71
64.00
102.79
141.00
174.57
200.22
215.81
220.46
214.54
199.70
178.86
155.96
135.16
119.86
111.69
109.95
112.05
114.61
114.77
111.18
104.19
95.22
85.75
76.47
66.99
56.13
42.88
27.03
9.63
-7.41
-22.14
-33.39
-41.18
-46.49
-50.62
-54.48
-58.41
-62.18
-65.58
-68.70
-71.95
-75.91
-81.15
-88.44
-98.92
-114.02
-134.76
-160.91
-190.36
-219.42
-244.03
-261.14
-269.80
-270.99
-266.55
-257.95
-245.61
-229.24
-208.79
-185.33
-161.11
-138.83
-120.67
-107.53
-99.07
-94.07
-91.04
-88.53
-85.32
-80.28
-72.43
-61.05
-45.76
-26.56
-3.78
22.05
50.18
79.51
108.60
135.81
159.76
179.74
195.89
208.93
219.62
228.32
234.79
238.57
239.51
238.09
235.45
232.82
230.95
229.60
227.61
223.33
215.27
202.62
185.55
165.13
143.00
120.87
100.06
81.26
64.44
49.12
34.66
20.55
6.59
-7.23
-20.76
-33.95
-46.91
-59.80
-72.71
-85.36
-96.98
-106.36
-112.06
-112.85
-108.15
-98.21
-84.13
-67.49
-49.88
-32.60
-16.38
-1.56
11.87
23.92
34.60
43.81
51.40
57.26
61.33
63.63
64.28
63.52
61.62
59.00
56.07
53.30
51.07
49.66
49.09
49.03
48.92
48.02
45.72
41.70
36.00
29.01
21.32
13.57
6.32
-0.08
-5.47
-9.93
-13.67
-17.03
-20.27
-23.49
-26.56
-29.16
-30.87
-31.43
-30.78
-29.10
-26.75
-24.04
-21.29
-18.72
-16.49
-14.66
-13.18
-11.74
-9.88
-6.99
-2.59
3.49
11.03
19.52
28.30
36.74
44.44
51.00
55.96
58.65
58.26
54.03
45.69
33.62
18.92
3.25
-11.67
-24.39
-34.19
-41.27
-46.62
-51.73
-58.08
-66.55
-77.06
-88.64
-99.75
-108.81
-114.75
-117.17
-116.33
-112.88
-107.62
-101.25
-94.38
-87.42
-80.66
-74.24
-68.21
-62.58
-57.37
-52.73
-48.81
-45.83
-43.95
-43.21
-43.53
-44.62
-46.05
-47.38
-48.23
-48.41
-48.02
-47.41
-47.09
-47.56
-49.08
-51.28
-53.02
-52.30
-46.55
-33.19
-10.38
22.37
63.80
110.99
159.90
206.06
245.38
274.51
291.11
293.90
282.70
258.41
223.09
179.77
132.18
84.17
39.13
-0.54
-33.64
-60.00
-80.12
-94.68
-104.43
-110.31
-113.69
-116.51
-120.85
-128.02
-137.69
-147.44
-153.26
-151.03
-138.19
-114.91
-84.16
-50.64
-19.22
6.45
24.64
35.31
39.53
38.72
34.20
27.08
18.34
9.05
0.45
-6.21
-9.92
-10.35
-8.10
-4.61
-1.80
-1.27
-3.79
-9.01
-15.62
-21.81
-25.81
-26.27
-22.39
-14.02
-1.70
13.26
28.78
42.32
51.34
54.06
49.87
39.48
24.55
7.03
-11.29
-29.12
-45.59
-60.19
-72.68
-83.20
-92.37
-101.19
-110.78
-121.93
-134.66
-148.10
-160.60
-169.97
-174.05
-171.21
-160.78
-143.39
-120.90
-95.97
-71.37
-49.35
-31.15
-17.19
-7.34
-1.37
1.03
0.42
-2.05
-4.66
-5.54
-3.27
2.43
10.59
19.39
27.04
32.53
36.06
38.80
42.18
47.06
53.01
58.34
60.49
56.84
45.72
27.05
2.79
-23.33
-46.45
-61.84
-66.09
-58.06
-39.10
-12.52
17.54
47.24
73.81
95.76
112.57
124.36
131.53
134.77
135.11
133.85
132.39
131.82
132.76
135.18
138.70
142.94
147.81
153.73
161.52
172.10
186.17
203.83
224.52
247.05
269.80
290.72
307.40
317.13
317.35
306.23
283.41
250.45
210.56
167.92
126.51
89.29
57.76
32.11
11.82
-3.91
-15.89
-24.99
-32.21
-38.73
-45.61
-53.55
-62.54
-71.79
-79.99
-85.72
-87.98
-86.65
-82.59
-77.46
-73.16
-71.25
-72.49
-76.68
-82.77
-89.40
-95.28
-99.62
-102.27
-103.57
-104.14
-104.42
-104.59
-104.39
-103.36
-101.06
-97.29
-92.15
-86.12
-80.13
-75.58
-74.34
-78.37
-89.00
-105.95
-126.86
-147.40
-162.47
-167.93
-161.92
-145.46
-121.75
-94.90
-68.44
-44.70
-24.72
-8.71
3.43
11.95
17.30
20.23
21.66
22.43
23.07
23.59
23.69
23.02
21.50
19.43
17.36
15.84
15.06
14.74
14.15
12.45
9.08
4.26
-0.79
-4.03
-3.21
3.37
16.03
33.42
52.80
70.96
85.23
94.36
98.77
100.06
100.28
100.90
102.42
104.36
105.87
106.40
106.03
105.50
105.68
107.06
109.34
111.53
112.23
110.14
104.49
95.06
82.22
66.67
49.29
31.08
13.07
-3.72
-18.48
-30.63
-40.02
-46.77
-51.25
-53.91
-55.17
-55.43
-55.03
-54.31
-53.50
-52.80
-52.21
-51.67
-51.05
-50.27
-49.28
-48.18
-47.36
-47.51
-49.62
-54.58
-62.83
-73.91
-86.37
-98.20
-107.42
-112.81
-114.16
-112.10
-107.58
-101.36
-93.80
-84.99
-75.11
-64.57
-54.12
-44.57
-36.56
-30.33
-25.73
-22.39
-19.92
-18.21
-17.45
-18.07
-20.54
-25.09
-31.51
-39.12
-46.96
-53.95
-59.08
-61.47
-60.55
-56.14
-48.63
-38.95
-28.42
-18.31
-9.64
-2.86
2.06
5.34
7.24
7.87
7.33
5.86
3.80
1.56
-0.67
-2.89
-5.27
-7.95
-10.87
-13.77
-16.29
-18.16
-19.25
-19.53
-18.93
-17.32
-14.59
-10.85
-6.50
-2.18
1.41
3.79
4.72
4.30
2.74
0.37
-2.38
-4.88
-6.33
-5.91
-2.93
2.79
10.81
20.12
29.32
37.05
42.36
44.96
45.20
43.92
42.04
40.29
39.04
38.31
37.95
37.87
38.05
38.55
39.46
40.71
42.06
43.09
43.34
42.47
40.35
37.29
33.86
30.86
28.88
28.23
28.74
29.91
31.21
32.29
33.16
34.09
35.41
37.28
39.48
41.46
42.57
42.32
40.65
37.97
35.01
32.60
31.43
32.01
34.64
39.18
44.80
49.74
51.41
47.24
35.92
18.50
-1.33
-18.20
-27.07
-25.14
-12.97
6.12
27.55
47.40
63.33
74.63
81.39
83.64
81.18
73.90
62.39
48.16
33.40
20.30
10.52
4.75
2.82
3.88
6.58
9.16
9.71
6.35
-2.28
-16.73
-36.55
-60.32
-85.97
-111.12
-133.43
-150.92
-162.14
-166.42
-163.96
-155.84
-143.82
-129.93
-116.15
-103.97
-94.26
-87.26
-82.81
-80.56
-80.07
-80.92
-82.54
-84.36
-85.74
-86.22
-85.67
-84.39
-83.11
-82.80
-84.21
-87.40
-91.39
-94.06
-92.60
-84.41
-67.99
-43.72
-13.87
18.05
48.31
73.84
92.64
103.72
106.87
102.57
92.04
77.28
60.84
45.30
32.51
23.14
16.82
12.65
9.92
8.39
8.22
9.54
12.11
15.30
18.20
19.91
19.65
16.76
10.74
1.34
-11.30
-26.42
-42.61
-58.16
-71.28
-80.63
-85.48
-85.83
-82.38
-76.26
-68.87
-61.54
-55.37
-51.08
-49.13
-49.78
-53.17
-59.32
-68.00
-78.56
-89.98
-101.12
-111.03
-119.40
-126.69
-133.85
-141.74
-150.46
-158.80
-164.36
-164.09
-155.32
-136.72
-108.76
-73.52
-33.86
7.46
48.38
87.79
125.32
160.99
195.01
227.74
259.63
290.99
321.52
349.92
373.77
390.11
396.29
390.97
374.54
348.95
316.85
280.62
241.59
200.05
155.82
108.99
60.48
12.11
-33.98
-76.06
-113.18
-145.03
-171.46
-191.91
-205.19
-210.05
-205.85
-193.37
-174.91
-153.69
-132.92
-114.94
-100.83
-90.58
-83.74
-79.77
-78.33
-79.03
-81.14
-83.28
-83.46
-79.29
-68.38
-48.97
-20.38
16.43
58.75
102.43
142.79
175.66
198.47
210.73
213.74
209.83
201.40
190.36
177.98
165.13
152.53
140.88
130.66
121.90
114.17
106.79
99.19
91.24
83.28
75.92
69.59
64.27
59.50
54.58
48.97
42.61
35.91
29.54
24.13
19.99
17.05
15.07
13.76
13.00
12.77
13.04
13.64
14.23
14.45
14.05
13.02
11.51
9.75
7.85
5.70
3.04
-0.41
-4.83
-10.15
-16.11
-22.28
-28.16
-33.23
-37.07
-39.38
-40.09
-39.38
-37.61
-35.15
-32.27
-29.10
-25.62
-21.86
-17.91
-13.90
-9.96
-6.15
-2.50
0.99
4.21
6.97
9.04
10.15
10.10
8.84
6.50
3.45
0.23
-2.65
-4.80
-6.16
-7.00
-8.00
-10.14
-14.44
-21.67
-31.95
-44.65
-58.39
-71.45
-82.29
-89.99
-94.48
-96.41
-96.76
-96.53
-96.54
-97.34
-99.15
-101.81
-104.73
-107.00
-107.63
-105.96
-101.93
-96.01
-89.05
-81.90
-75.18
-69.16
-63.84
-59.01
-54.41
-49.70
-44.58
-38.83
-32.41
-25.53
-18.59
-12.16
-6.63
-2.14
1.55
4.95
8.73
13.46
19.39
26.35
33.79
40.86
46.77
51.01
53.57
54.99
56.18
58.04
61.09
65.23
69.79
73.86
76.71
78.17
78.73
79.35
81.02
84.30
88.95
93.78
96.72
95.30
87.35
71.74
48.97
21.21
-8.25
-35.91
-59.16
-76.76
-89.01
-97.06
-102.29
-105.70
-107.68
-108.20
-107.14
-104.57
-100.77
-96.18
-91.10
-85.72
-80.10
-74.32
-68.68
-63.64
-59.67
-56.93
-55.31
-54.47
-54.21
-54.71
-56.46
-59.84
-64.55
-69.26
-71.88
-70.32
-63.59
-52.40
-39.24
-27.40
-19.89
-18.33
-22.55
-30.96
-41.42
-52.03
-61.65
-70.12
-77.95
-86.44
-97.46
-113.14
-135.08
-163.19
-194.89
-225.20
-248.18
-258.99
-255.90
-240.99
-219.25
-196.59
-177.84
-165.61
-160.44
-161.68
-168.48
-180.13
-195.89
-214.48
-234.07
-252.42
-267.61
-278.49
-284.78
-286.85
-285.22
-280.11
-271.21
-257.86
-239.44
-215.73
-187.20
-155.01
-120.69
-85.78
-51.45
-18.38
13.19
43.23
71.67
98.20
122.31
143.42
161.09
175.14
185.69
193.08
197.72
199.91
199.74
197.10
191.76
183.54
172.39
158.45
142.08
123.82
104.28
84.12
63.97
44.40
25.87
8.74
-6.76
-20.51
-32.52
-42.86
-51.62
-58.92
-64.85
-69.47
-72.82
-74.90
-75.72
-75.32
-73.75
-71.07
-67.42
-62.93
-57.77
-52.09
-46.07
-39.84
-33.54
-27.26
-21.06
-15.02
-9.17
-3.52
1.89
7.07
11.99
16.64
20.97
24.95
28.54
31.66
34.28
36.31
37.71
38.42
38.40
37.67
36.20
34.06
31.32
28.11
24.57
20.86
17.13
13.54
10.20
7.21
4.60
2.40
0.61
-0.82
-1.93
-2.80
-3.57
-4.34
-5.26
-6.41
-7.87
-9.61
-11.56
-13.59
-15.56
-17.33
-18.82
-19.92
-20.51
-20.42
-19.40
-17.12
-13.20
-7.36
0.62
10.78
23.05
37.27
53.23
70.79
89.80
110.12
131.53
153.67
176.08
198.19
219.46
239.48
258.06
275.20
291.17
306.42
321.47
336.71
352.14
367.26
381.05
392.26
399.78
402.92
401.71
396.72
388.92
379.30
368.66
357.43
345.74
333.52
320.62
307.03
292.79
278.12
263.31
248.71
234.64
221.42
209.29
198.35
188.47
179.28
170.23
160.78
150.51
139.26
127.09
114.20
100.82
87.11
73.08
58.66
43.70
28.16
12.13
-4.04
-19.78
-34.42
-47.35
-58.23
-67.11
-74.42
-80.83
-86.94
-93.07
-98.88
-103.44
-105.28
-102.92
-95.35
-82.49
-65.36
-45.81
-25.99
-7.75
7.70
20.02
29.49
36.65
42.03
45.94
48.46
49.59
49.46
48.38
46.82
45.22
43.84
42.70
41.62
40.42
39.03
37.55
36.10
34.67
32.91
30.31
26.25
20.38
12.66
3.50
-6.49
-16.66
-26.49
-35.79
-44.59
-53.08
-61.46
-69.77
-77.83
-85.25
-91.55
-96.30
-99.31
-100.69
-100.89
-100.68
-100.98
-102.73
-106.65
-112.93
-120.94
-129.22
-135.59
-137.61
-133.20
-121.24
-101.92
-76.74
-48.14
-18.79
8.88
33.15
53.17
68.81
80.53
89.08
95.35
100.10
103.92
107.07
109.58
111.34
112.25
112.35
111.83
110.96
109.99
109.08
108.24
107.43
106.44
105.00
102.79
99.49
94.90
89.05
82.24
74.88
67.46
60.30
53.47
46.85
40.15
33.09
25.53
17.44
8.91
0.04
-9.12
-18.66
-28.67
-39.23
-50.20
-61.23
-71.84
-81.58
-90.29
-98.10
-105.56
-113.37
-122.32
-132.98
-145.51
-159.54
-174.08
-187.57
-198.20
-204.26
-204.57
-198.83
-187.71
-172.71
-155.85
-139.25
-124.77
-113.67
-106.53
-103.20
-102.98
-104.79
-107.41
-109.62
-110.36
-108.76
-104.26
-96.63
-86.03
-73.02
-58.50
-43.47
-28.81
-15.02
-2.13
10.18
22.30
34.43
46.44
57.88
68.23
77.10
84.31
89.85
93.78
96.05
96.60
95.44
92.73
88.85
84.17
78.96
73.19
66.71
59.37
51.18
42.45
33.65
25.24
17.41
10.02
2.57
-5.60
-15.03
-25.73
-36.96
-47.22
-54.42
-56.44
-51.77
-40.09
-22.48
-1.17
21.04
41.65
58.99
72.48
82.41
89.45
94.19
96.94
97.68
96.34
93.01
87.99
81.80
74.97
67.86
60.65
53.31
45.77
37.96
29.86
21.46
12.74
3.65
-5.84
-15.53
-24.86
-32.97
-38.79
-41.52
-40.99
-37.86
-33.52
-29.71
-27.99
-29.24
-33.54
-40.20
-48.22
-56.59
-64.61
-72.03
-78.99
-85.96
-93.54
-102.29
-112.41
-123.49
-134.34
-143.14
-147.80
-146.52
-138.29
-123.20
-102.39
-77.71
-51.28
-25.10
-0.74
20.80
39.12
54.37
67.03
77.67
86.72
94.37
100.49
104.90
107.44
108.18
107.36
105.36
102.53
99.19
95.55
91.76
87.92
84.04
80.10
75.97
71.46
66.35
60.47
53.71
46.02
37.40
27.86
17.43
6.23
-5.47
-17.28
-28.80
-39.77
-50.17
-60.29
-70.57
-81.41
-92.96
-105.13
-117.53
-129.78
-141.67
-153.30
-165.03
-177.42
-190.84
-205.17
-219.65
-232.78
-242.50
-246.62
-243.25
-231.33
-210.96
-183.41
-150.88
-115.93
-80.85
-47.19
-15.60
13.96
41.79
67.93
92.02
113.31
131.10
145.05
155.36
162.73
168.12
172.41
176.21
179.82
183.07
185.40
185.84
183.02
175.59
162.60
144.04
121.00
95.43
69.53
45.14
23.23
3.99
-12.84
-27.43
-39.75
-49.51
-56.58
-61.21
-64.10
-66.21
-68.18
-70.43
-73.08
-76.15
-79.49
-82.92
-86.22
-89.26
-92.04
-94.41
-96.36
-98.11
-99.95
-102.05
-104.17
-105.45
-104.40
-98.95
-86.30
-64.43
-33.17
5.25
46.53
85.41
117.13
138.43
148.06
148.40
142.59
133.49
123.34
114.36
109.31
111.07
121.48
140.04
167.53
202.06
239.32
273.67
300.17
316.12
321.08
315.79
301.14
284.23
271.15
265.66
268.85
280.82
302.41
334.75
377.45
426.98
485.15
550.38
617.15
676.96
721.66
746.91
752.88
742.85
678.25
543.00
346.50
123.43
-85.45
-253.66
-374.06
-452.24
-494.96
-517.14
-521.05
-506.95
-477.15
-437.79
-396.80
-360.82
-331.67
-309.51
-294.11
-278.45
-257.46
-229.95
-198.88
-169.03
-144.20
-125.90
-114.19
-108.65
-104.28
-97.30
-86.40
-72.93
-59.45
-47.98
-39.28
-33.41
-30.29
-27.59
-23.61
-17.90
-11.23
-4.92
-0.08
2.73
3.16
0.93
-3.21
-8.46
-14.19
-19.94
-25.43
-30.54
-35.41
-40.55
-46.76
-54.53
-63.89
-74.23
-84.43
-93.33
-100.29
-105.62
-110.52
-116.62
-125.28
-136.96
-150.92
-165.64
-179.50
-191.53
-201.89
-211.73
-222.75
-236.72
-255.15
-278.96
-307.79
-339.29
-368.54
-388.73
-393.05
-377.44
-342.69
-294.73
-242.62
-195.06
-157.40
-130.41
-111.41
-96.62
-83.42
-71.13
-60.35
-51.72
-44.98
-39.04
-32.77
-25.79
-18.75
-12.97
-9.64
-9.02
-10.24
-11.56
-11.15
-7.74
-1.26
7.22
15.93
23.16
27.88
30.00
30.26
29.64
28.86
28.00
26.51
23.55
18.59
11.67
3.63
-4.31
-10.96
-15.70
-18.68
-20.57
-22.16
-23.88
-25.55
-26.48
-25.91
-23.37
-19.02
-13.48
-7.68
-2.39
1.91
5.16
7.55
9.27
10.44
11.02
10.91
10.06
8.56
6.71
4.88
3.45
2.66
2.60
3.16
4.17
5.38
6.60
7.69
8.60
9.36
9.97
10.40
10.50
10.07
8.98
7.25
5.15
3.09
1.45
0.47
0.10
0.13
0.26
0.31
0.15
-0.28
-1.10
-2.48
-4.57
-7.36
-10.66
-14.07
-17.13
-19.46
-20.89
-21.51
-21.62
-21.69
-22.16
-23.33
-25.14
-27.19
-28.74
-28.95
-27.20
-23.22
-17.33
-10.21
-2.76
4.15
9.92
14.27
17.20
18.90
19.64
19.68
19.24
18.43
17.41
16.28
15.23
14.42
13.99
13.94
14.17
14.43
14.52
14.31
13.75
12.97
12.08
11.19
10.29
9.25
7.92
6.22
4.21
2.03
-0.10
-2.01
-3.66
-5.12
-6.47
-7.83
-9.27
-10.82
-12.52
-14.30
-16.02
-17.53
-18.60
-19.11
-19.12
-18.88
-18.75
-19.09
-20.05
-21.53
-23.16
-24.36
-24.52
-23.17
-20.06
-15.30
-9.30
-2.69
3.85
9.79
14.86
19.12
22.84
26.33
29.69
32.63
34.55
34.79
32.94
29.09
23.91
18.36
13.37
9.51
6.88
5.17
4.02
3.20
2.73
2.71
3.16
3.86
4.38
4.30
3.40
1.80
-0.19
-2.21
-4.04
-5.58
-6.86
-7.86
-8.53
-8.83
-8.80
-8.65
-8.67
-9.17
-10.33
-12.27
-14.98
-18.37
-22.29
-26.51
-30.73
-34.71
-38.31
-41.59
-44.80
-48.23
-51.99
-55.90
-59.38
-61.63
-61.84
-59.38
-54.05
-46.12
-36.19
-25.02
-13.37
-1.87
9.02
19.03
28.03
35.95
42.77
48.41
52.64
55.15
55.64
54.06
50.71
46.26
41.55
37.26
33.73
30.86
28.22
25.37
21.99
18.06
13.83
9.61
5.57
1.66
-2.44
-7.12
-12.68
-18.96
-25.17
-29.96
-31.83
-29.67
-23.27
-13.58
-2.41
8.18
16.62
22.28
25.45
26.79
26.71
24.95
20.55
12.28
-0.81
-19.12
-42.33
-69.35
-98.02
-124.93
-145.46
-154.49
-147.99
-124.58
-86.55
-39.30
10.67
58.29
101.82
142.74
184.04
227.49
271.74
312.11
342.32
356.90
353.22
332.07
296.94
252.59
203.98
155.66
111.82
76.17
51.43
38.33
35.01
37.10
39.05
35.97
25.37
7.86
-13.42
-34.25
-51.05
-61.96
-66.98
-67.39
-64.75
-60.27
-54.59
-48.09
-41.24
-34.80
-29.64
-26.39
-25.08
-25.17
-25.84
-26.43
-26.76
-27.20
-28.36
-30.75
-34.47
-39.20
-44.30
-49.06
-52.79
-54.79
-54.35
-50.80
-43.80
-33.68
-21.59
-9.37
0.95
7.72
10.13
8.28
3.03
-4.58
-13.63
-23.63
-34.38
-45.75
-57.43
-68.82
-79.15
-87.74
-94.30
-99.01
-102.38
-104.99
-107.14
-108.80
-109.66
-109.44
-108.07
-105.80
-102.98
-99.80
-96.17
-91.74
-86.04
-78.86
-70.31
-60.89
-51.24
-42.05
-33.72
-26.46
-20.19
-14.66
-9.52
-4.55
0.26
4.61
7.99
9.95
10.35
9.60
8.62
8.52
10.29
14.40
20.68
28.36
36.31
43.41
48.77
51.96
52.98
52.23
50.23
47.44
44.10
40.26
35.90
31.09
26.12
21.26
16.81
12.84
9.33
6.23
3.63
1.79
1.03
1.53
3.14
5.41
7.62
9.03
9.13
7.75
5.13
1.92
-1.09
-3.17
-3.89
-3.28
-1.85
-0.39
0.32
-0.24
-2.10
-4.78
-7.60
-9.85
-11.12
-11.41
-11.10
-10.83
-11.27
-12.96
-16.05
-20.17
-24.30
-26.86
-25.97
-20.04
-8.24
9.08
30.40
53.35
75.41
94.48
109.26
119.39
125.23
127.48
126.91
124.18
119.85
114.38
108.26
101.89
95.46
88.80
81.51
73.16
63.62
53.41
43.60
35.47
30.01
27.44
27.10
27.67
27.60
25.59
20.96
13.69
4.30
-6.38
-17.46
-28.19
-38.04
-46.63
-53.74
-59.22
-62.96
-64.88
-65.03
-63.59
-60.89
-57.44
-53.80
-50.56
-48.14
-46.69
-45.96
-45.44
-44.54
-42.82
-40.22
-37.06
-33.90
-31.24
-29.34
-28.02
-26.75
-24.81
-21.53
-16.59
-10.09
-2.56
5.20
12.41
18.52
23.37
27.10
29.97
32.09
33.36
33.46
32.06
29.00
24.41
18.75
12.80
7.50
3.76
2.19
2.79
4.71
6.44
6.25
2.95
-3.60
-12.39
-21.72
-29.99
-36.38
-40.94
-44.31
-47.10
-49.51
-51.28
-52.04
-51.67
-50.52
-49.21
-48.23
-47.74
-47.43
-46.77
-45.34
-43.10
-40.43
-37.96
-36.29
-35.72
-36.20
-37.30
-38.53
-39.46
-39.91
-39.96
-39.89
-40.01
-40.60
-41.81
-43.60
-45.69
-47.58
-48.57
-48.06
-45.64
-41.37
-35.73
-29.57
-23.85
-19.45
-16.95
-16.45
-17.54
-19.19
-19.96
-18.29
-13.02
-3.81
8.64
22.77
36.73
48.92
58.38
64.96
69.01
71.07
71.58
70.82
68.94
66.14
62.70
58.98
55.28
51.78
48.46
45.13
41.50
37.39
32.85
28.14
23.69
19.92
17.06
15.02
13.46
11.90
9.88
7.17
3.78
-0.05
-3.95
-7.59
-10.67
-13.02
-14.61
-15.57
-16.19
-16.86
-17.93
-19.58
-21.70
-24.05
-26.34
-28.52
-30.83
-33.78
-37.84
-43.07
-48.94
-54.28
-57.57
-57.39
-52.88
-44.03
-31.71
-17.52
-3.28
9.29
19.05
25.47
28.74
29.46
28.49
26.70
24.78
23.19
22.03
21.08
19.95
18.24
15.76
12.59
9.09
5.66
2.61
0.08
-2.07
-4.08
-6.30
-9.13
-12.99
-18.18
-24.75
-32.41
-40.53
-48.32
-55.15
-60.87
-65.79
-70.42
-75.08
-79.42
-82.24
-81.80
-76.39
-65.02
-47.88
-26.30
-2.52
20.87
41.31
56.65
65.32
66.69
61.23
50.54
37.08
23.46
11.65
2.50
-4.34
-10.00
-15.69
-22.18
-29.54
-37.15
-43.79
-47.92
-47.80
-41.94
-29.50
-10.80
12.55
37.93
62.36
83.29
99.21
109.77
115.60
117.87
117.84
116.54
114.64
112.47
110.08
107.38
104.17
100.29
95.63
90.26
84.36
78.24
72.29
66.90
62.30
58.53
55.32
52.17
48.51
43.90
38.27
31.99
25.73
20.30
16.27
13.80
12.50
11.59
10.16
7.48
3.17
-2.62
-9.32
-15.95
-21.37
-24.61
-25.21
-23.64
-21.40
-20.71
-23.83
-32.20
-45.84
-63.16
-81.43
-97.67
-109.47
-115.60
-115.96
-111.26
-102.42
-90.29
-75.48
-58.60
-40.42
-22.04
-4.81
10.06
21.75
30.09
35.48
38.67
40.33
40.82
40.09
37.74
33.39
26.90
18.60
9.41
0.49
-7.03
-12.52
-16.01
-18.25
-20.25
-22.97
-26.95
-32.17
-38.20
-44.49
-50.45
-55.50
-59.04
-60.40
-59.05
-54.80
-48.03
-39.68
-31.00
-23.22
-17.18
-13.26
-11.30
-10.92
-11.55
-12.58
-13.34
-13.19
-11.63
-8.50
-4.02
1.23
6.51
11.08
14.41
16.02
15.43
12.09
5.48
-4.46
-16.77
-29.27
-38.63
-41.03
-33.33
-14.10
15.72
52.86
92.60
130.05
161.38
184.69
200.04
208.96
213.52
215.56
216.11
215.38
212.98
208.25
200.67
189.93
175.95
158.83
138.78
116.17
91.73
66.63
42.46
20.98
3.66
-8.77
-16.52
-20.72
-22.87
-24.38
-26.08
-28.15
-30.31
-32.23
-33.87
-35.50
-37.55
-40.33
-43.78
-47.48
-50.82
-53.29
-54.72
-55.34
-55.63
-56.11
-57.09
-58.57
-60.29
-61.92
-63.26
-64.39
-65.65
-67.48
-70.17
-73.60
-77.11
-79.57
-79.62
-76.09
-68.33
-56.49
-41.57
-25.21
-9.29
4.58
15.37
22.82
27.32
29.61
30.44
30.27
29.29
27.46
24.83
21.59
18.05
14.53
11.20
8.03
4.93
1.83
-1.15
-3.76
-5.68
-6.68
-6.72
-5.97
-4.72
-3.29
-1.96
-0.93
-0.30
-0.19
-0.72
-1.98
-4.07
-7.00
-10.62
-14.65
-18.74
-22.54
-25.86
-28.67
-31.07
-33.12
-34.78
-35.92
-36.45
-36.35
-35.89
-35.55
-35.87
-37.31
-40.03
-43.69
-47.52
-50.39
-51.12
-48.81
-43.14
-34.47
-23.81
-12.54
-2.00
6.82
13.42
17.83
20.40
21.64
22.04
21.99
21.72
21.30
20.65
19.53
17.74
15.17
11.98
8.61
5.68
3.79
3.38
4.55
7.09
10.56
14.35
17.80
20.34
21.52
21.12
19.26
16.27
12.64
8.82
5.13
1.69
-1.53
-4.65
-7.74
-10.79
-13.69
-16.18
-17.94
-18.72
-18.46
-17.42
-16.23
-15.71
-16.51
-18.86
-22.27
-25.63
-27.58
-26.96
-23.27
-16.75
-8.26
1.18
10.62
19.45
27.31
34.04
39.58
44.02
47.63
50.57
52.75
53.58
52.26
48.20
41.58
33.62
26.23
21.30
19.73
21.13
23.91
26.20
26.72
25.22
22.44
19.38
16.64
14.03
10.80
6.21
0.12
-6.75
-13.14
-17.97
-20.94
-22.72
-24.51
-27.36
-31.58
-36.71
-41.88
-46.43
-50.35
-54.23
-58.89
-64.85
-72.06
-79.83
-87.21
-93.31
-97.69
-100.39
-101.92
-103.04
-104.56
-107.04
-110.66
-115.12
-119.60
-122.87
-123.51
-120.14
-111.85
-98.49
-80.86
-60.71
-40.36
-22.23
-8.24
0.56
4.23
3.80
0.93
-2.46
-4.70
-4.50
-1.15
5.43
14.80
26.06
38.00
49.36
58.98
66.07
70.37
72.04
71.62
69.73
66.93
63.55
59.73
55.48
50.80
45.86
41.05
36.92
34.02
32.62
32.51
32.91
32.72
30.84
26.71
20.42
12.71
4.54
-3.42
-11.00
-18.54
-26.57
-35.46
-45.10
-55.03
-64.61
-73.36
-81.13
-88.14
-94.87
-101.96
-110.04
-119.50
-130.20
-141.14
-150.18
-154.27
-150.08
-134.99
-108.10
-70.77
-26.56
19.75
63.35
100.61
129.62
150.23
163.45
170.85
174.02
174.26
172.57
169.63
165.84
161.35
156.13
150.10
143.28
135.89
128.31
120.92
114.02
107.74
102.06
96.81
91.62
85.97
79.25
71.06
61.35
50.60
39.57
29.08
19.56
10.93
2.74
-5.61
-14.45
-23.72
-32.87
-41.21
-48.11
-53.32
-57.03
-59.80
-62.40
-65.64
-70.25
-76.75
-85.30
-95.52
-106.28
-115.81
-121.92
-122.59
-116.68
-104.33
-86.92
-66.77
-46.34
-27.74
-12.30
-0.66
7.19
11.60
13.11
12.37
10.07
6.89
3.52
0.64
-1.01
-0.49
3.29
11.40
24.52
42.41
63.78
86.35
107.41
124.55
136.26
142.19
142.96
139.77
133.86
126.26
117.73
108.83
99.99
91.56
83.76
76.76
70.61
65.34
60.93
57.20
53.79
50.05
45.22
38.57
29.72
18.79
6.49
-6.16
-18.14
-28.83
-38.24
-46.89
-55.42
-64.04
-72.14
-78.19
-80.15
-76.01
-64.63
-46.15
-22.21
4.33
29.92
51.00
64.71
69.43
65.01
52.67
34.56
13.18
-9.18
-30.80
-50.62
-67.99
-82.42
-93.27
-99.77
-101.07
-96.52
-85.96
-69.95
-49.77
-27.36
-4.92
15.45
32.07
43.96
50.84
53.03
51.30
46.71
40.48
33.81
27.72
22.87
19.39
16.92
14.70
11.85
7.72
2.12
-4.55
-11.50
-17.78
-22.74
-26.20
-28.53
-30.42
-32.59
-35.49
-39.13
-43.17
-47.11
-50.56
-53.46
-56.04
-58.80
-62.23
-66.61
-71.79
-77.14
-81.63
-84.04
-83.13
-78.02
-68.40
-54.68
-38.01
-20.12
-3.06
11.21
21.20
26.23
26.67
23.69
19.02
14.37
11.09
10.00
11.32
14.68
19.02
22.55
22.93
17.78
5.65
-13.20
-36.23
-59.02
-76.33
-83.60
-78.23
-60.19
-31.78
3.12
40.12
75.14
104.95
127.34
141.18
146.34
143.62
134.59
121.24
105.69
89.72
74.55
60.74
48.35
37.09
26.59
16.62
7.10
-1.83
-9.94
-16.95
-22.68
-27.15
-30.62
-33.49
-36.32
-39.67
-43.97
-49.43
-55.88
-62.74
-68.98
-73.31
-74.43
-71.42
-63.97
-52.60
-38.54
-23.46
-9.14
2.96
11.90
17.29
19.23
18.25
15.24
11.25
7.36
4.39
2.69
2.06
1.82
1.10
-0.83
-4.34
-9.24
-14.70
-19.35
-21.59
-20.02
-14.07
-4.38
7.20
18.13
26.15
30.00
29.78
26.62
21.96
16.79
11.34
5.40
-1.14
-7.80
-13.49
-16.93
-17.38
-14.95
-10.67
-5.94
-1.76
1.71
5.30
10.34
18.08
29.00
42.57
57.34
71.37
82.82
90.51
94.23
94.86
94.14
94.30
97.40
104.69
115.98
129.22
140.72
145.95
141.09
124.51
97.78
65.37
33.37
7.28
-9.74
-17.58
-18.69
-16.58
-14.44
-14.29
-17.04
-22.92
-31.93
-44.00
-58.58
-74.51
-89.93
-102.87
-111.86
-116.53
-117.76
-117.21
-116.73
-117.50
-119.70
-122.46
-124.41
-124.25
-121.46
-116.45
-110.36
-104.52
-99.79
-96.25
-93.19
-89.58
-84.51
-77.70
-69.52
-60.85
-52.58
-45.30
-39.18
-33.96
-29.28
-24.97
-21.17
-18.42
-17.44
-18.89
-22.98
-29.34
-36.83
-43.57
-47.33
-45.97
-38.12
-23.76
-4.42
17.15
37.71
54.46
65.85
71.71
73.02
71.29
67.99
64.19
60.51
57.24
54.40
51.76
48.84
45.11
40.08
33.64
26.09
18.04
10.16
2.91
-3.54
-9.40
-15.03
-20.80
-26.98
-33.73
-41.10
-49.15
-57.90
-67.40
-77.64
-88.60
-100.15
-111.97
-123.40
-133.30
-140.22
-142.70
-139.88
-132.05
-120.83
-108.84
-99.01
-93.62
-93.75
-99.21
-108.96
-121.73
-136.58
-152.98
-170.66
-189.37
-208.81
-228.52
-247.97
-266.22
-281.76
-292.48
-296.12
-290.99
-276.75
-254.74
-227.67
-198.66
-170.27
-143.86
-119.56
-96.81
-74.91
-53.52
-32.59
-12.22
7.63
27.17
46.73
66.53
86.64
107.07
127.88
149.21
171.15
193.37
214.91
234.15
249.24
258.68
261.87
259.29
252.32
242.75
232.19
221.78
212.05
202.94
193.87
183.84
171.55
155.76
135.81
111.94
85.44
58.21
32.24
8.86
-11.50
-29.44
-46.37
-64.13
-84.60
-109.07
-137.62
-168.61
-198.62
-223.17
-238.08
-240.94
-231.93
-213.67
-190.09
-164.94
-140.71
-118.44
-98.20
-79.94
-63.92
-50.66
-40.40
-32.65
-26.09
-18.91
-9.43
3.22
18.95
36.88
55.91
75.25
94.77
114.96
136.59
160.37
186.76
216.02
248.11
282.40
317.24
349.74
376.22
393.26
398.97
393.73
380.07
361.57
341.56
322.25
304.74
289.49
276.95
267.70
261.91
258.97
257.27
254.71
249.49
240.82
229.16
216.10
203.88
194.85
191.00
193.52
202.62
217.58
236.94
258.78
281.06
301.78
319.08
331.36
337.37
336.55
329.20
316.38
299.64
280.52
260.08
238.74
216.46
192.97
168.11
142.02
115.06
87.67
60.26
33.08
6.22
-20.32
-46.67
-73.05
-99.62
-126.38
-153.03
-178.83
-202.77
-223.77
-240.86
-253.46
-261.32
-264.54
-263.50
-258.85
-251.57
-242.87
-234.06
-226.20
-219.85
-214.90
-210.70
-206.48
-201.67
-196.25
-190.71
-185.85
-182.39
-180.63
-180.38
-180.90
-181.17
-180.02
-176.32
-169.21
-158.20
-143.38
-125.37
-105.37
-84.78
-65.03
-47.30
-32.35
-20.48
-11.55
-5.00
-0.01
4.22
8.25
12.19
15.68
18.19
19.25
18.87
17.44
15.63
14.01
12.85
12.12
11.61
11.11
10.45
9.47
7.94
5.56
2.12
-2.41
-7.83
-13.71
-19.62
-25.27
-30.51
-35.31
-39.66
-43.50
-46.72
-49.33
-51.43
-53.27
-55.14
-57.30
-59.82
-62.68
-65.71
-68.76
-71.64
-74.27
-76.57
-78.58
-80.44
-82.42
-84.90
-88.24
-92.54
-97.40
-101.92
-104.76
-104.62
-100.65
-92.89
-82.38
-70.93
-60.68
-53.45
-50.37
-51.64
-56.65
-64.33
-73.46
-82.95
-91.82
-99.14
-103.97
-105.54
-103.39
-97.58
-88.53
-76.84
-62.92
-46.94
-29.11
-10.08
8.74
25.38
37.86
45.00
46.94
45.12
41.63
38.32
36.13
34.84
33.50
30.88
26.15
19.05
9.90
-0.73
-12.22
-24.07
-35.88
-47.29
-58.04
-68.14
-78.01
-88.33
-99.56
-111.21
-121.33
-126.67
-123.56
-109.17
-82.67
-45.34
0.06
50.59
103.96
158.67
213.23
265.48
312.44
351.02
379.14
396.54
404.74
406.09
402.57
394.91
382.49
364.04
338.53
306.10
268.35
227.94
187.96
151.04
118.69
91.16
67.73
47.29
28.78
11.37
-5.68
-23.31
-42.63
-64.54
-89.23
-115.70
-141.70
-164.16
-179.88
-186.34
-182.15
-167.39
-143.62
-113.66
-81.26
-50.50
-25.16
-8.05
-0.47
-2.11
-11.29
-25.63
-42.72
-60.78
-78.73
-95.93
-111.63
-124.62
-133.19
-135.45
-129.92
-116.09
-94.77
-68.05
-38.94
-10.80
13.31
31.15
41.62
44.83
41.90
34.57
24.80
14.37
4.74
-3.01
-8.24
-10.71
-10.66
-8.81
-6.26
-4.18
-3.48
-4.49
-6.89
-9.86
-12.49
-14.21
-15.00
-15.35
-15.95
-17.34
-19.68
-22.76
-26.16
-29.58
-32.91
-36.34
-40.05
-44.09
-48.27
-52.22
-55.61
-58.26
-60.34
-62.27
-64.60
-67.76
-71.95
-77.04
-82.58
-87.97
-92.70
-96.52
-99.63
-102.62
-106.32
-111.40
-117.99
-125.38
-132.02
-135.72
-134.08
-125.11
-107.71
-82.07
-49.80
-13.80
22.25
54.67
80.59
98.64
109.06
113.38
113.68
111.90
109.27
106.29
103.00
99.35
95.44
91.53
87.87
84.56
81.46
78.37
75.03
71.28
67.07
62.32
56.98
50.88
43.83
35.64
26.15
15.26
3.06
-10.17
-23.95
-37.60
-50.50
-62.21
-72.61
-81.86
-90.27
-98.03
-105.12
-111.45
-117.00
-122.02
-126.99
-132.43
-138.72
-146.03
-154.40
-163.98
-175.12
-188.12
-202.69
-217.48
-229.78
-236.05
-232.76
-217.45
-189.45
-150.00
-102.00
-49.57
2.54
49.54
87.27
113.02
126.09
127.83
120.98
108.65
93.35
76.47
58.70
40.56
23.13
8.09
-2.73
-8.02
-7.47
-1.96
6.74
16.50
25.32
31.71
34.91
34.66
31.13
24.64
15.55
4.48
-7.56
-18.96
-27.74
-31.95
-30.44
-23.23
-11.69
1.89
15.16
26.43
35.25
42.29
48.73
55.42
62.29
68.10
70.90
68.63
59.90
44.62
24.24
1.70
-19.14
-34.21
-40.33
-36.13
-22.61
-3.01
18.29
37.22
51.36
60.31
65.24
67.57
67.97
65.85
59.81
48.59
32.02
11.40
-10.76
-31.63
-49.07
-62.29
-71.94
-79.49
-86.32
-92.79
-97.73
-98.88
-93.81
-81.19
-61.57
-37.27
-11.57
12.60
33.51
50.96
65.72
78.90
91.11
102.32
112.02
119.65
125.07
128.63
130.92
132.18
131.80
128.30
119.84
105.16
84.29
58.58
30.10
0.70
-28.60
-57.53
-86.07
-113.88
-140.29
-164.74
-187.32
-208.69
-229.29
-248.33
-263.33
-270.71
-267.21
-251.30
-223.81
-187.30
-144.98
-99.71
-53.78
-9.39
30.91
64.35
88.69
103.34
109.93
112.02
114.07
120.12
132.92
153.67
182.36
218.36
260.79
308.52
360.06
413.30
465.46
513.21
552.94
581.30
595.74
595.16
580.34
554.00
520.32
483.89
448.66
416.89
389.01
363.99
340.29
316.63
292.37
267.36
241.54
214.75
186.68
157.16
126.39
94.96
63.63
32.99
3.23
-25.89
-54.94
-84.60
-115.20
-146.34
-176.72
-204.26
-226.72
-242.45
-250.91
-252.74
-249.20
-241.50
-230.35
-216.09
-199.17
-180.70
-162.48
-146.53
-134.32
-126.05
-120.74
-116.61
-111.99
-105.85
-98.05
-89.07
-79.61
-70.19
-60.99
-51.93
-42.84
-33.72
-24.83
-16.73
-10.03
-5.16
-2.19
-0.73
-0.16
0.06
0.05
-0.57
-2.48
-6.30
-12.05
-19.13
-26.52
-33.13
-38.40
-42.43
-45.85
-49.42
-53.67
-58.54
-63.51
-67.77
-70.54
-71.41
-70.49
-68.40
-66.17
-65.02
-66.02
-69.81
-76.24
-84.32
-92.36
-98.37
-100.61
-98.11
-90.92
-80.15
-67.62
-55.45
-45.49
-38.95
-36.18
-36.66
-39.19
-42.28
-44.65
-45.61
-45.23
-44.34
-44.19
-46.02
-50.63
-58.07
-67.64
-78.03
-87.66
-95.05
-99.24
-99.92
-97.46
-92.68
-86.58
-80.04
-73.60
-67.53
-61.87
-56.61
-51.77
-47.41
-43.52
-40.04
-36.87
-33.94
-31.26
-28.95
-27.15
-25.99
-25.44
-25.41
-25.77
-26.42
-27.28
-28.31
-29.45
-30.63
-31.83
-33.11
-34.61
-36.50
-38.84
-41.48
-44.00
-45.71
-45.83
-43.64
-38.70
-31.00
-21.01
-9.64
1.99
12.71
21.64
28.30
32.59
34.71
35.02
33.91
31.78
29.03
26.07
23.16
20.41
17.68
14.67
10.99
6.45
1.19
-4.33
-9.32
-13.00
-14.71
-14.10
-11.30
-6.90
-1.95
2.27
4.55
4.07
0.64
-5.24
-12.73
-20.95
-29.41
-38.09
-47.25
-57.13
-67.54
-77.75
-86.51
-92.45
-94.35
-91.51
-83.85
-71.89
-56.58
-39.09
-20.64
-2.41
14.34
28.30
38.19
42.99
42.32
36.64
27.36
16.57
6.69
-0.00
-1.81
2.11
11.45
24.80
39.81
53.87
64.68
70.97
72.77
71.19
67.87
64.24
61.02
58.12
54.94
50.92
45.89
40.22
34.62
29.78
26.02
23.27
21.22
19.56
18.18
17.12
16.46
16.07
15.65
14.82
13.29
11.04
8.25
5.18
2.00
-1.25
-4.66
-8.23
-11.86
-15.39
-18.66
-21.63
-24.48
-27.41
-30.61
-34.12
-37.74
-41.23
-44.29
-46.78
-48.74
-50.43
-52.29
-54.84
-58.56
-63.66
-69.83
-76.02
-80.48
-81.13
-76.13
-64.60
-47.02
-25.23
-1.95
19.94
38.14
51.37
59.38
62.79
62.69
60.28
56.66
52.69
49.04
46.15
44.24
43.26
42.90
42.79
42.60
42.26
42.04
42.31
43.34
45.04
46.92
48.25
48.45
47.30
45.03
42.02
38.60
34.84
30.57
25.63
20.13
14.48
9.19
4.72
1.07
-2.18
-5.81
-10.61
-17.10
-25.27
-34.66
-44.53
-54.12
-62.90
-70.75
-77.96
-85.20
-93.35
-103.16
-114.96
-128.17
-141.21
-151.61
-156.58
-153.84
-142.52
-123.50
-99.34
-73.50
-49.37
-29.30
-14.24
-3.77
3.41
8.89
14.16
20.31
28.04
37.57
48.65
60.57
72.31
82.84
91.47
98.05
103.00
107.15
111.36
116.27
122.19
129.08
136.71
144.80
153.10
161.43
169.58
177.29
184.13
189.46
192.46
192.21
187.82
178.65
164.50
145.86
123.85
100.10
76.44
54.42
34.99
18.31
3.94
-8.77
-20.28
-30.64
-39.49
-46.34
-50.88
-53.18
-53.74
-53.29
-52.54
-51.98
-51.71
-51.44
-50.57
-48.31
-43.93
-36.87
-26.86
-13.87
1.71
18.91
36.01
50.65
60.29
63.18
59.06
49.38
36.80
24.21
13.82
6.92
4.23
6.25
13.28
24.84
38.89
51.91
59.61
58.59
47.67
28.40
4.26
-20.65
-43.01
-61.00
-74.15
-82.81
-87.64
-89.21
-87.99
-84.40
-78.88
-71.97
-64.30
-56.53
-49.13
-42.20
-35.33
-27.88
-19.27
-9.44
0.94
10.75
18.86
24.51
27.32
27.11
23.64
16.71
6.51
-6.08
-19.63
-32.60
-44.00
-53.72
-62.28
-70.35
-78.16
-85.32
-91.21
-95.43
-98.02
-99.25
-99.30
-98.03
-95.13
-90.57
-84.89
-79.10
-74.26
-70.95
-68.97
-67.50
-65.49
-62.24
-57.66
-52.17
-46.49
-41.15
-36.35
-31.98
-27.78
-23.55
-19.30
-15.17
-11.34
-7.93
-4.99
-2.49
-0.37
1.35
2.69
3.64
4.28
4.77
5.35
6.27
7.73
9.82
12.42
15.32
18.22
20.89
23.28
25.48
27.69
30.11
32.82
35.73
38.71
41.49
43.87
45.70
46.91
47.47
47.56
47.46
47.71
49.02
52.10
57.47
65.20
74.76
85.10
94.92
103.12
109.16
113.11
115.33
115.96
114.55
110.10
101.66
88.99
73.09
56.03
40.25
27.53
18.38
11.96
6.55
0.21
-8.87
-22.23
-41.04
-65.84
-96.06
-129.41
-161.93
-188.70
-205.26
-209.01
-200.10
-181.37
-157.25
-132.34
-110.04
-92.12
-78.78
-69.33
-62.86
-58.63
-56.15
-55.07
-54.93
-55.21
-55.40
-55.23
-54.74
-54.24
-54.07
-54.38
-55.10
-56.02
-57.00
-58.05
-59.27
-60.61
-61.60
-61.26
-58.30
-51.61
-40.86
-26.82
-11.38
3.00
13.97
19.98
20.73
16.98
10.27
2.24
-5.87
-13.47
-20.59
-27.61
-34.99
-43.12
-52.27
-62.58
-74.03
-86.34
-98.99
-111.41
-123.26
-134.67
-146.22
-158.48
-171.23
-182.80
-190.14
-189.48
-177.77
-153.92
-119.39
-77.80
-33.57
9.41
48.85
84.23
116.45
146.99
177.79
211.08
249.15
293.42
343.01
393.66
437.98
467.45
475.36
459.47
422.79
372.15
315.68
260.18
210.13
167.95
135.14
112.78
101.34
99.91
105.67
114.34
121.20
122.46
116.00
101.72
81.34
57.73
34.10
13.09
-3.99
-17.51
-28.97
-40.25
-52.46
-65.35
-77.62
-87.58
-94.15
-97.28
-97.90
-97.15
-95.84
-94.10
-91.50
-87.56
-82.18
-75.90
-69.74
-64.87
-61.92
-60.78
-60.38
-59.18
-55.79
-49.51
-40.71
-30.66
-21.01
-13.09
-7.49
-3.77
-0.76
2.93
8.45
16.26
26.02
36.66
46.54
53.74
56.50
53.68
45.32
32.98
19.58
8.71
3.58
5.84
14.85
27.83
40.72
49.66
52.35
48.52
39.55
27.41
13.52
-1.66
-18.26
-36.20
-54.55
-71.44
-84.86
-93.68
-98.16
-99.84
-100.70
-102.11
-104.35
-106.74
-108.28
-108.41
-107.39
-106.18
-105.94
-107.57
-111.20
-116.21
-121.43
-125.62
-127.92
-128.21
-127.18
-126.08
-126.16
-128.25
-132.29
-137.43
-142.37
-145.94
-147.61
-147.75
-147.51
-148.39
-151.62
-157.74
-166.39
-176.34
-185.81
-192.82
-195.53
-192.64
-183.59
-168.65
-148.67
-124.71
-97.56
-67.49
-34.51
1.02
37.60
72.16
100.44
118.13
122.36
112.77
91.75
63.68
33.66
6.02
-16.71
-34.26
-48.49
-62.53
-79.52
-101.22
-126.95
-153.52
-176.22
-190.54
-193.91
-186.44
-170.41
-149.06
-125.08
-99.91
-73.92
-47.35
-21.13
2.91
22.50
35.90
42.68
43.96
41.85
38.59
35.60
33.06
30.10
25.48
18.39
8.88
-2.30
-14.31
-26.78
-39.97
-54.27
-69.42
-84.07
-95.85
-102.24
-101.61
-94.00
-81.04
-65.30
-49.21
-34.34
-21.23
-9.69
0.70
10.32
19.52
28.81
38.84
50.32
63.66
78.76
95.02
111.59
127.72
143.07
157.89
172.88
189.01
207.32
228.59
252.93
279.41
305.81
328.95
345.51
353.09
351.13
341.00
325.33
306.97
288.00
269.43
251.50
234.45
218.93
205.97
196.47
190.49
186.98
183.93
179.12
170.87
158.78
143.90
128.29
114.20
103.13
95.25
89.27
82.89
73.64
59.68
40.57
17.64
-5.99
-25.86
-37.09
-35.46
-18.49
13.84
59.02
112.58
169.09
223.45
271.85
312.50
345.49
372.19
394.02
411.37
423.19
427.34
421.89
406.30
382.05
352.18
320.15
288.59
258.52
229.65
201.07
172.05
142.41
112.33
81.99
51.19
19.53
-13.39
-47.46
-82.06
-116.08
-148.56
-179.15
-208.43
-237.50
-267.22
-297.23
-325.48
-348.54
-362.78
-365.58
-356.41
-336.75
-309.30
-276.92
-241.77
-205.31
-168.60
-132.73
-98.69
-66.75
-35.90
-3.95
31.73
72.87
119.28
168.49
216.23
257.60
288.32
305.71
309.08
299.68
280.08
253.55
223.23
191.44
159.47
127.51
95.09
61.39
25.78
-11.88
-50.86
-89.41
-124.89
-154.41
-175.65
-187.74
-191.60
-189.56
-184.57
-179.19
-174.94
-172.20
-170.63
-169.59
-168.60
-167.42
-165.88
-163.83
-161.07
-157.44
-152.98
-147.96
-142.84
-138.05
-133.80
-129.92
-125.90
-121.17
-115.31
-108.43
-101.15
-94.51
-89.61
-87.30
-87.83
-90.82
-95.30
-99.99
-103.59
-105.01
-103.50
-98.73
-90.88
-80.54
-68.69
-56.47
-44.92
-34.71
-26.01
-18.54
-11.73
-5.05
1.79
8.76
15.48
21.47
26.21
29.26
30.41
29.69
27.34
23.93
20.18
16.92
14.85
14.41
15.58
17.94
20.84
23.61
25.80
27.26
28.03
28.24
27.88
26.82
24.88
21.97
18.25
14.13
10.14
6.78
4.23
2.41
0.99
-0.40
-2.03
-3.92
-5.89
-7.71
-9.24
-10.54
-11.86
-13.51
-15.74
-18.63
-22.11
-26.03
-30.25
-34.52
-38.42
-41.21
-41.91
-39.61
-33.81
-24.82
-13.79
-2.40
7.56
14.78
18.73
19.72
18.70
16.93
15.64
15.85
18.35
23.53
31.40
41.41
52.53
63.35
72.45
78.80
81.93
81.98
79.46
74.87
68.53
60.54
50.99
40.11
28.42
16.54
5.10
-5.45
-14.80
-22.68
-28.86
-33.07
-35.21
-35.49
-34.51
-33.13
-32.25
-32.46
-33.85
-35.99
-38.11
-39.49
-39.75
-39.09
-38.17
-37.81
-38.57
-40.51
-43.09
-45.44
-46.70
-46.33
-44.39
-41.40
-38.29
-35.97
-35.10
-35.83
-37.78
-40.19
-42.21
-43.28
-43.27
-42.54
-41.74
-41.55
-42.52
-44.86
-48.52
-53.07
-57.75
-61.57
-63.53
-62.89
-59.51
-54.00
-47.49
-41.31
-36.53
-33.66
-32.58
-32.83
-33.80
-35.06
-36.41
-37.79
-39.23
-40.71
-42.20
-43.69
-45.21
-46.83
-48.57
-50.32
-51.82
-52.75
-52.82
-51.85
-49.86
-47.01
-43.54
-39.74
-35.92
-32.38
-29.43
-27.42
-26.53
-26.76
-27.82
-29.08
-29.63
-28.49
-24.80
-18.19
-8.92
2.11
13.52
23.84
31.96
37.37
40.24
41.28
41.38
41.25
41.19
41.07
40.52
39.15
36.79
33.60
29.94
26.25
22.87
19.98
17.54
15.36
13.15
10.60
7.44
3.53
-1.15
-6.46
-12.22
-18.34
-24.89
-32.04
-40.00
-48.77
-58.11
-67.47
-76.25
-83.88
-90.17
-95.37
-100.14
-105.37
-111.72
-119.21
-126.80
-132.41
-133.34
-127.14
-112.70
-90.96
-64.94
-38.92
-17.11
-2.12
5.88
9.16
11.72
17.99
31.53
54.09
85.08
121.69
159.51
193.54
219.40
234.31
237.66
230.87
216.73
198.49
179.06
160.45
143.65
128.80
115.46
102.95
90.70
78.48
66.52
55.42
45.95
38.70
33.79
30.69
28.27
25.05
19.71
11.51
0.66
-11.71
-24.04
-34.94
-43.85
-51.24
-58.36
-66.60
-76.91
-89.45
-103.52
-117.90
-131.04
-141.37
-147.36
-147.74
-141.68
-129.11
-110.86
-88.62
-64.68
-41.54
-21.50
-6.23
3.44
7.74
7.87
5.80
3.82
4.04
7.96
16.22
28.49
43.61
59.80
75.08
87.59
96.14
100.38
100.86
98.70
95.09
90.73
85.72
79.73
72.39
63.68
54.08
44.46
35.75
28.58
23.18
19.34
16.63
14.58
12.84
11.19
9.44
7.37
4.70
1.20
-3.18
-8.23
-13.48
-18.32
-22.26
-25.18
-27.35
-29.40
-31.95
-35.49
-40.12
-45.60
-51.41
-56.99
-61.89
-65.91
-69.15
-71.98
-74.96
-78.62
-83.28
-88.89
-94.84
-99.97
-102.63
-100.98
-93.40
-79.01
-57.98
-31.69
-2.41
27.26
54.94
78.97
98.47
113.27
123.62
130.02
133.06
133.32
131.20
126.84
120.03
110.39
97.62
81.83
63.72
44.63
26.26
10.33
-1.77
-9.20
-11.88
-10.42
-6.03
-0.20
5.60
10.24
13.11
14.04
13.18
10.87
7.54
3.65
-0.42
-4.44
-8.64
-13.73
-20.81
-30.98
-44.77
-61.79
-80.72
-99.67
-116.93
-131.61
-143.97
-155.25
-167.12
-180.95
-197.29
-215.59
-234.22
-250.67
-262.09
-265.80
-260.10
-244.80
-221.55
-193.41
-164.09
-136.64
-112.53
-91.34
-71.09
-49.31
-24.16
4.78
36.43
68.69
99.16
125.86
147.49
163.51
173.90
179.08
179.83
177.32
173.05
168.62
165.26
163.52
163.08
163.03
162.30
160.22
156.67
151.99
146.63
140.78
134.19
126.25
116.15
103.26
87.53
69.57
50.59
32.07
15.18
0.35
-12.75
-25.04
-37.48
-50.64
-64.41
-78.27
-91.58
-103.94
-115.53
-127.13
-140.12
-156.27
-177.38
-204.57
-237.49
-273.74
-308.90
-337.56
-354.86
-358.04
-347.25
-325.22
-296.03
-263.47
-229.88
-195.70
-160.18
-122.65
-83.84
-46.40
-14.29
8.91
21.82
26.45
27.92
32.80
46.77
72.72
110.01
155.14
203.23
249.41
289.81
321.75
343.69
355.03
356.07
348.04
332.88
312.86
290.06
266.01
241.42
216.25
190.02
162.33
133.40
104.38
77.42
55.11
39.64
31.97
31.38
35.57
41.42
46.01
47.51
45.48
40.78
34.77
28.50
22.07
14.50
3.89
-11.78
-33.76
-61.64
-92.72
-122.25
-144.30
-153.45
-146.37
-122.68
-84.74
-36.33
18.71
77.38
137.33
196.25
251.32
299.22
336.97
362.77
376.50
379.47
373.87
362.20
346.96
330.54
315.03
301.85
291.27
282.24
272.60
259.87
242.08
218.32
188.82
154.73
117.70
79.53
42.03
6.93
-24.30
-50.55
-71.38
-87.10
-98.73
-107.66
-115.22
-122.22
-128.82
-134.58
-138.85
-141.26
-141.95
-141.63
-141.35
-142.05
-144.23
-147.71
-151.56
-154.39
-154.70
-151.35
-143.90
-132.75
-119.04
-104.25
-89.84
-76.85
-65.83
-56.84
-49.62
-43.76
-38.88
-34.71
-31.11
-28.06
-25.63
-23.78
-22.35
-21.01
-19.38
-17.18
-14.31
-10.93
-7.28
-3.63
-0.16
3.02
5.80
8.03
9.58
10.33
10.23
9.23
7.32
4.42
0.56
-4.15
-9.38
-14.68
-19.57
-23.70
-26.95
-29.43
-31.37
-33.06
-34.81
-36.87
-39.46
-42.61
-46.27
-50.20
-54.09
-57.65
-60.70
-63.25
-65.24
-66.49
-66.55
-64.70
-60.16
-52.52
-41.93
-29.27
-15.89
-3.25
7.57
16.19
22.93
28.48
33.55
38.50
43.22
47.28
50.20
51.78
52.19
51.89
51.41
51.01
50.52
49.42
46.96
42.52
35.78
26.84
16.16
4.43
-7.62
-19.42
-30.67
-41.43
-52.16
-63.46
-75.90
-89.53
-103.74
-117.21
-128.28
-135.46
-137.89
-135.64
-129.56
-121.00
-111.36
-101.80
-93.09
-85.63
-79.53
-74.73
-70.98
-67.91
-65.13
-62.33
-59.47
-56.72
-54.51
-53.15
-52.67
-52.53
-51.79
-49.28
-44.10
-35.99
-25.49
-13.81
-2.47
7.19
14.37
18.96
21.36
22.25
22.30
21.96
21.42
20.72
19.80
18.69
17.48
16.24
15.07
13.97
12.99
12.18
11.60
11.26
11.03
10.63
9.65
7.78
4.88
1.11
-3.14
-7.39
-11.24
-14.52
-17.24
-19.54
-21.55
-23.28
-24.67
-25.60
-25.96
-25.77
-25.15
-24.33
-23.57
-23.07
-22.99
-23.43
-24.42
-25.99
-28.15
-30.92
-34.33
-38.42
-43.12
-48.13
-52.75
-55.95
-56.48
-53.34
-46.07
-35.00
-21.32
-6.66
7.13
18.44
26.20
29.97
29.95
26.89
21.99
16.60
12.01
9.19
8.60
10.14
13.24
17.07
20.79
23.82
26.00
27.60
29.07
30.73
32.61
34.31
35.24
34.90
33.14
30.17
26.43
22.30
17.80
12.67
6.54
-0.78
-9.16
-18.06
-26.81
-34.73
-41.36
-46.65
-50.92
-54.86
-59.34
-65.09
-72.36
-80.59
-88.37
-93.64
-94.17
-88.16
-74.67
-53.93
-27.36
2.67
33.22
61.42
84.99
102.64
114.10
119.89
120.83
117.73
111.31
102.34
91.81
81.04
71.31
63.60
58.14
54.52
51.94
49.64
47.19
44.44
41.38
37.82
33.31
27.36
19.68
10.47
0.41
-9.52
-18.46
-25.93
-31.97
-37.04
-41.76
-46.62
-51.77
-56.97
-61.72
-65.46
-67.79
-68.71
-68.63
-68.35
-68.81
-70.82
-74.71
-80.17
-86.11
-90.79
-92.17
-88.41
-78.39
-62.21
-41.33
-18.21
4.33
23.87
39.03
49.65
56.45
60.61
63.19
64.80
65.69
65.93
65.59
64.84
63.88
62.76
61.39
59.60
57.30
54.71
52.29
50.56
49.86
50.17
51.05
51.80
51.72
50.34
47.59
43.72
39.21
34.49
29.81
25.09
20.09
14.61
8.67
2.58
-3.19
-8.26
-12.60
-16.47
-20.39
-24.84
-29.96
-35.61
-41.37
-46.79
-51.55
-55.61
-59.24
-62.92
-67.23
-72.51
-78.61
-84.63
-88.86
-89.17
-83.57
-70.94
-51.56
-27.18
-0.56
25.25
47.76
65.48
78.03
85.86
89.92
91.29
90.91
89.54
87.58
85.21
82.38
78.96
74.91
70.30
65.41
60.59
56.22
52.64
50.06
48.57
47.98
47.81
47.34
45.88
42.94
38.54
33.09
27.19
21.41
16.01
11.01
6.21
1.49
-3.18
-7.70
-11.99
-16.06
-20.01
-23.95
-27.86
-31.59
-34.88
-37.62
-39.91
-42.13
-44.78
-48.33
-52.86
-58.10
-63.43
-68.22
-72.10
-75.08
-77.62
-80.36
-83.96
-88.80
-94.86
-101.58
-107.69
-111.39
-110.57
-103.36
-88.72
-66.95
-39.77
-9.92
19.43
45.53
66.59
81.93
91.88
97.40
99.64
99.67
98.30
95.98
92.92
89.13
84.61
79.42
73.73
67.80
61.98
56.63
52.08
48.51
45.90
44.02
42.45
40.68
38.21
34.74
30.19
24.77
18.91
13.15
7.93
3.52
-0.10
-3.20
-6.16
-9.36
-12.99
-17.00
-21.13
-24.96
-28.17
-30.61
-32.49
-34.35
-36.82
-40.45
-45.42
-51.41
-57.72
-63.48
-68.07
-71.28
-73.43
-75.18
-77.35
-80.57
-85.09
-90.54
-95.86
-99.39
-99.16
-93.48
-81.49
-63.64
-41.71
-18.44
3.26
21.04
33.54
40.53
42.57
40.69
35.98
29.34
21.57
13.31
5.20
-2.09
-7.93
-11.89
-13.83
-13.94
-12.67
-10.62
-8.41
-6.61
-5.82
-6.58
-9.27
-13.86
-19.58
-24.87
-27.58
-25.44
-16.77
-1.04
20.84
46.63
73.26
97.46
116.48
128.59
133.28
131.15
123.55
112.03
97.99
82.30
65.42
47.56
29.02
10.43
-7.29
-23.19
-36.74
-48.13
-58.34
-68.77
-80.66
-94.43
-109.15
-122.60
-131.56
-132.63
-123.15
-102.11
-70.67
-32.18
8.42
45.84
75.76
95.91
106.46
109.49
108.00
104.71
101.23
97.85
93.94
88.60
81.28
72.05
61.46
50.19
38.74
27.24
15.61
3.81
-7.90
-18.86
-28.28
-35.57
-40.67
-44.20
-47.20
-50.81
-55.75
-62.15
-69.53
-77.19
-84.52
-91.27
-97.64
-104.08
-111.24
-119.73
-130.01
-142.31
-156.64
-172.74
-190.21
-208.61
-227.45
-246.33
-264.85
-282.66
-299.42
-314.66
-327.62
-337.12
-341.76
-340.16
-331.56
-316.15
-295.11
-270.22
-243.35
-215.90
-188.83
-162.77
-138.35
-116.13
-96.25
-77.98
-59.66
-39.05
-14.26
15.39
48.97
84.49
119.61
152.76
183.72
213.51
243.94
277.14
315.11
359.18
409.06
461.84
511.74
551.13
572.96
573.73
555.14
523.69
487.98
455.18
428.52
406.97
386.99
365.03
339.24
309.64
277.07
242.16
204.84
164.99
123.27
81.44
42.01
7.42
-21.14
-44.18
-63.63
-81.97
-100.99
-120.82
-139.59
-153.82
-159.54
-153.72
-135.46
-106.63
-71.49
-35.59
-4.25
18.78
31.93
35.72
31.91
22.82
10.84
-1.65
-12.13
-18.18
-18.09
-11.56
-0.06
13.34
25.00
31.77
32.03
25.77
14.30
-0.60
-17.42
-35.26
-53.89
-73.54
-94.57
-117.16
-141.16
-165.95
-190.50
-213.67
-234.48
-252.47
-267.79
-281.19
-293.75
-306.73
-321.15
-337.60
-355.75
-374.10
-389.92
-399.74
-400.35
-389.88
-368.53
-338.53
-303.29
-266.10
-229.07
-192.85
-157.16
-121.90
-87.99
-57.43
-32.70
-15.63
-6.56
-4.02
-5.36
-7.68
-8.70
-7.20
-2.77
4.65
15.27
29.41
47.20
68.11
90.78
113.23
133.35
149.60
161.31
168.74
172.73
174.22
173.80
171.66
167.63
161.50
153.25
143.11
131.58
119.18
106.24
92.70
78.04
61.39
41.84
19.16
-5.73
-30.32
-50.89
-63.39
-64.68
-53.52
-30.79
0.76
37.49
75.64
111.86
143.55
169.01
187.51
199.38
205.81
208.39
208.57
207.25
204.68
200.77
195.45
188.91
181.48
173.53
165.15
156.28
146.74
136.47
125.52
114.07
102.23
90.03
77.37
64.08
49.96
34.83
18.56
1.10
-17.40
-36.60
-55.91
-74.67
-92.27
-108.45
-123.40
-137.75
-152.32
-167.66
-183.52
-198.47
-209.91
-214.66
-209.84
-193.75
-166.35
-129.20
-84.97
-36.83
12.03
58.61
100.21
134.65
160.54
177.54
186.46
188.92
186.90
182.15
175.89
168.79
161.20
153.29
145.22
137.17
129.33
121.91
115.14
109.19
104.01
99.23
94.10
87.65
79.03
67.83
54.31
39.40
24.48
10.85
-0.59
-9.72
-17.20
-24.27
-32.38
-42.68
-55.50
-69.89
-83.48
-92.72
-93.72
-83.38
-60.41
-25.93
16.76
63.06
108.38
149.16
183.43
210.66
231.25
246.03
255.88
261.74
264.70
266.05
267.01
268.51
270.83
273.54
275.64
275.78
272.59
264.93
252.02
233.56
209.72
181.05
148.26
112.05
73.09
32.22
-9.30
-49.55
-86.19
-116.98
-140.58
-157.06
-167.89
-175.49
-182.25
-189.69
-197.83
-205.10
-208.63
-205.07
-191.51
-166.34
-129.75
-83.74
-31.69
22.48
74.94
122.50
162.80
194.39
216.78
230.36
236.21
235.85
230.80
222.34
211.47
198.99
185.71
172.43
159.89
148.46
138.00
127.80
116.82
104.01
88.60
70.31
49.30
26.10
1.35
-24.18
-49.66
-74.06
-96.25
-115.17
-130.15
-141.21
-149.04
-154.76
-159.38
-163.49
-167.10
-169.84
-171.37
-171.70
-171.27
-170.80
-170.91
-171.75
-172.87
-173.29
-171.74
-167.17
-159.08
-147.68
-133.89
-119.11
-104.77
-92.11
-81.82
-74.10
-68.70
-65.22
-63.23
-62.32
-62.07
-62.03
-61.74
-60.80
-59.00
-56.39
-53.26
-49.94
-46.66
-43.42
-40.07
-36.40
-32.36
-28.11
-24.04
-20.54
-17.85
-15.99
-14.83
-14.22
-14.20
-15.03
-17.06
-20.64
-25.81
-32.27
-39.43
-46.62
-53.16
-58.62
-62.78
-65.68
-67.59
-68.95
-70.18
-71.53
-72.91
-73.87
-73.73
-71.88
-68.00
-62.22
-55.08
-47.35
-39.74
-32.77
-26.68
-21.55
-17.34
-14.05
-11.68
-10.29
-9.91
-10.55
-12.08
-14.26
-16.71
-18.96
-20.61
-21.42
-21.40
-20.74
-19.72
-18.53
-17.17
-15.49
-13.37
-10.86
-8.32
-6.22
-5.02
-4.86
-5.55
-6.64
-7.64
-8.24
-8.37
-8.18
-7.89
-7.69
-7.72
-8.00
-8.55
-9.32
-10.24
-11.16
-11.96
-12.65
-13.29
-14.15
-15.53
-17.71
-20.90
-25.16
-30.36
-36.16
-42.01
-47.21
-51.01
-52.87
-52.63
-50.65
-47.70
-44.78
-42.65
-41.65
-41.52
-41.68
-41.42
-40.29
-38.23
-35.55
-32.77
-30.41
-28.86
-28.26
-28.48
-29.06
-29.29
-28.43
-25.92
-21.66
-16.16
-10.34
-5.27
-1.79
-0.23
-0.43
-1.90
-4.04
-6.44
-8.89
-11.37
-13.91
-16.50
-19.00
-21.26
-23.17
-24.81
-26.43
-28.38
-30.92
-34.09
-37.65
-41.13
-44.07
-46.17
-47.43
-48.18
-48.91
-50.24
-52.68
-56.54
-61.68
-67.37
-72.23
-74.47
-72.27
-64.48
-51.12
-33.60
-14.42
3.47
17.52
26.19
29.15
27.08
21.21
12.92
3.42
-6.34
-15.62
-23.96
-31.22
-37.56
-43.43
-49.27
-55.20
-60.70
-64.59
-65.25
-61.19
-51.78
-37.60
-20.42
-2.83
12.63
23.97
30.15
30.96
26.77
18.32
6.55
-7.23
-21.38
-34.01
-43.41
-48.47
-49.07
-46.10
-41.19
-36.18
-32.59
-31.26
-32.26
-35.07
-38.92
-43.14
-47.39
-51.73
-56.61
-62.79
-71.28
-83.05
-98.67
-117.58
-137.70
-155.36
-166.01
-165.54
-151.54
-123.97
-84.90
-37.64
14.14
67.00
117.66
162.90
199.70
225.86
240.77
245.67
243.31
236.93
229.10
221.18
213.46
205.79
198.20
191.20
185.41
181.23
178.43
176.29
173.82
170.17
164.87
157.76
148.84
138.07
125.31
110.42
93.48
74.89
55.31
35.54
16.24
-2.16
-19.40
-35.27
-49.54
-62.06
-72.78
-81.97
-90.09
-97.75
-105.40
-113.31
-121.51
-129.76
-137.77
-145.13
-151.51
-156.78
-161.23
-165.74
-171.73
-180.64
-193.03
-207.71
-221.38
-229.26
-226.33
-209.06
-176.41
-130.18
-74.44
-14.54
43.99
96.21
138.32
168.12
185.20
190.97
188.21
180.24
170.08
159.79
150.50
142.63
136.48
132.30
130.26
130.12
131.23
132.66
133.58
133.57
132.61
130.82
128.01
123.54
116.44
105.92
91.91
75.23
57.48
40.42
25.35
12.61
1.72
-8.30
-18.31
-28.71
-39.34
-49.67
-59.10
-67.23
-73.96
-79.46
-84.11
-88.56
-93.60
-100.03
-108.17
-117.45
-126.01
-130.90
-128.76
-116.90
-94.41
-62.61
-24.84
14.53
51.18
81.91
104.98
120.10
127.86
129.29
125.49
117.54
106.50
93.51
79.69
66.16
53.90
43.63
35.84
30.68
27.99
27.36
28.15
29.63
31.04
31.65
30.83
28.10
23.26
16.39
7.85
-1.83
-12.10
-22.52
-32.84
-42.95
-52.80
-62.35
-71.67
-80.97
-90.63
-101.05
-112.42
-124.53
-136.83
-148.60
-159.35
-168.96
-177.74
-186.19
-194.92
-204.56
-215.77
-228.94
-243.68
-258.28
-269.52
-273.19
-265.39
-243.89
-208.89
-162.88
-109.71
-53.51
1.99
53.55
98.43
134.40
160.27
176.33
184.42
187.30
187.67
187.21
186.29
184.37
180.78
175.37
168.63
161.54
155.04
149.74
145.76
142.75
140.05
136.93
132.69
126.94
119.50
110.52
100.29
89.08
77.03
64.19
50.59
36.43
22.06
7.86
-5.82
-18.81
-31.11
-42.86
-54.23
-65.42
-76.62
-88.10
-100.12
-112.81
-126.10
-139.66
-152.89
-165.25
-176.45
-186.77
-197.15
-209.04
-223.65
-241.19
-260.13
-276.95
-287.01
-285.85
-270.76
-241.61
-200.75
-152.12
-100.18
-49.03
-2.07
38.02
69.41
91.32
104.36
110.45
112.37
112.89
113.93
116.35
120.19
125.38
132.31
141.82
154.87
171.81
191.96
213.65
234.62
252.62
265.99
273.76
275.58
271.47
261.74
247.01
228.41
207.59
186.39
166.37
148.33
132.11
116.93
102.03
87.17
72.98
60.60
51.09
44.77
41.00
38.35
35.33
31.06
25.70
20.35
16.51
15.33
16.94
20.23
23.11
23.14
18.49
8.70
-4.89
-19.23
-30.15
-33.44
-25.98
-6.68
22.94
59.12
96.65
130.30
156.11
172.25
179.06
178.36
172.34
162.61
149.84
134.07
115.35
94.46
72.96
52.84
35.75
22.42
12.54
5.10
-1.00
-6.51
-11.66
-16.50
-21.31
-26.77
-33.85
-43.38
-55.59
-69.92
-85.18
-99.90
-112.91
-123.59
-131.93
-138.32
-143.27
-147.09
-149.87
-151.49
-151.88
-151.16
-149.66
-147.80
-145.83
-143.71
-141.09
-137.51
-132.66
-126.51
-119.38
-111.63
-103.48
-94.79
-85.22
-74.37
-62.21
-49.09
-35.77
-23.13
-11.80
-2.00
6.42
13.73
20.10
25.38
29.26
31.44
31.84
30.67
28.36
25.34
21.96
18.51
15.38
13.20
12.68
14.47
18.74
25.06
32.43
39.58
45.31
48.79
49.70
48.16
44.61
39.67
33.97
28.09
22.49
17.46
13.03
8.97
4.94
0.47
-4.76
-10.94
-18.05
-25.82
-33.77
-41.32
-47.81
-52.67
-55.51
-56.21
-54.91
-51.98
-47.94
-43.31
-38.65
-34.41
-30.98
-28.53
-26.87
-25.51
-23.63
-20.32
-14.90
-7.09
2.81
13.90
25.02
34.91
42.51
47.14
48.54
46.89
42.70
36.76
29.96
23.12
16.86
11.37
6.45
1.73
-3.15
-8.22
-13.02
-16.80
-18.72
-18.15
-14.87
-9.05
-1.21
7.86
17.25
25.96
33.04
37.68
39.38
37.94
33.58
26.79
18.29
8.94
-0.34
-8.78
-15.77
-20.97
-24.30
-25.85
-25.93
-25.08
-24.09
-23.85
-25.12
-28.15
-32.55
-37.47
-42.00
-45.65
-48.57
-51.37
-54.70
-58.84
-63.50
-68.00
-71.58
-73.70
-74.21
-73.26
-71.19
-68.27
-64.74
-60.68
-56.36
-52.04
-47.96
-44.44
-41.78
-40.17
-39.51
-39.33
-38.92
-37.85
-35.94
-33.38
-30.51
-27.70
-25.18
-22.89
-20.51
-17.68
-14.64
-11.67
-8.98
-6.69
-4.98
-4.06
-4.07
-4.87
-6.12
-8.81
-13.65
-20.75
-29.67
-39.78
-50.42
-60.86
-70.22
-77.76
-85.97
-96.85
-110.88
-127.10
-144.01
-160.47
-175.70
-189.11
-200.22
-213.09
-230.28
-251.40
-273.90
-295.18
-314.50
-332.69
-350.79
-368.75
-390.27
-415.08
-438.36
-453.34
-455.38
-444.67
-425.45
-403.31
-347.67
-247.75
-114.71
23.96
142.59
229.36
284.52
314.42
326.96
329.16
320.58
300.54
271.94
239.57
208.21
180.64
157.84
139.84
126.42
112.93
96.58
78.00
59.09
42.59
30.10
21.93
17.74
16.99
16.36
13.66
8.71
2.85
-2.05
-4.97
-5.72
-4.60
-2.02
0.26
1.07
0.28
-1.48
-3.22
-4.38
-4.80
-4.56
-3.85
-3.31
-3.36
-4.06
-5.22
-6.50
-7.77
-9.05
-10.49
-12.24
-14.45
-17.19
-20.49
-24.31
-28.53
-32.95
-37.36
-41.53
-44.80
-46.57
-46.56
-44.89
-41.98
-38.25
-34.04
-29.51
-24.81
-19.57
-13.51
-6.61
0.83
8.26
15.20
21.35
26.62
31.07
35.90
42.13
50.09
59.24
68.46
76.70
83.33
88.26
91.67
96.92
106.82
122.39
142.24
163.35
182.83
198.98
211.33
220.21
232.45
253.82
286.44
327.44
370.64
410.20
442.69
467.35
485.03
507.12
543.30
597.23
664.39
734.97
799.53
852.69
893.44
923.58
958.97
1013.34
1092.61
1191.92
1299.41
1403.63
1498.31
1582.69
1578.67
1436.70
1149.57
763.57
352.55
-21.89
-329.22
-565.30
-739.56
-865.57
-943.48
-973.05
-958.42
-911.25
-848.21
-785.34
-734.71
-704.08
-697.32
-704.21
-711.41
-707.30
-686.79
-651.98
-609.20
-565.98
-528.38
-499.72
-474.44
-446.00
-410.75
-370.37
-330.44
-296.38
-270.31
-250.69
-234.13
-214.55
-188.12
-154.97
-118.96
-85.51
-58.76
-39.85
-27.27
-18.34
-9.60
1.06
13.78
26.83
38.53
47.05
51.53
52.30
50.49
47.51
44.53
42.32
41.12
40.67
40.24
38.95
35.88
30.26
21.57
9.70
-4.93
-21.44
-38.68
-55.49
-70.88
-84.30
-95.77
-105.85
-115.47
-125.49
-136.35
-147.92
-159.56
-170.24
-178.99
-185.23
-189.05
-191.28
-193.30
-196.68
-202.65
-211.48
-221.96
-231.36
-235.87
-231.61
-215.83
-187.90
-149.62
-104.86
-58.40
-14.64
23.36
54.33
78.47
96.82
110.72
121.30
129.41
135.63
140.40
143.95
146.34
147.49
147.29
145.79
143.27
140.26
137.34
134.94
133.15
131.69
129.97
127.26
122.99
116.84
108.93
99.74
89.98
80.34
71.24
62.68
54.25
45.37
35.55
24.66
13.04
1.29
-9.94
-20.23
-29.63
-38.55
-47.58
-57.28
-67.90
-79.27
-90.90
-102.08
-112.24
-121.07
-128.78
-136.01
-143.82
-153.37
-165.51
-180.24
-196.21
-210.60
-219.50
-218.93
-206.17
-180.82
-145.10
-103.27
-60.26
-20.32
14.02
41.99
64.20
81.78
95.82
107.04
115.88
122.64
127.66
131.26
133.69
135.03
135.20
134.10
131.72
128.32
124.37
120.46
117.04
114.13
111.27
107.67
102.46
95.13
85.61
74.40
62.32
50.16
38.45
27.25
16.27
5.01
-6.87
-19.39
-32.16
-44.46
-55.46
-64.52
-71.36
-76.19
-79.71
-82.86
-86.62
-91.73
-98.49
-106.73
-115.89
-125.33
-134.60
-143.66
-152.93
-163.11
-174.93
-188.80
-204.42
-220.53
-234.84
-244.30
-245.74
-236.71
-216.23
-185.09
-145.73
-101.52
-55.94
-11.90
28.59
64.40
95.06
120.49
140.85
156.45
167.73
175.19
179.37
180.85
180.25
178.23
175.42
172.40
169.60
167.20
165.21
163.38
161.29
158.41
154.16
148.11
140.04
130.13
118.93
107.24
95.86
85.38
75.92
67.16
58.46
49.18
38.94
27.80
16.22
4.77
-6.20
-16.77
-27.45
-38.89
-51.49
-65.17
-79.26
-92.83
-105.12
-115.91
-125.64
-135.34
-146.24
-159.28
-174.66
-191.40
-207.30
-219.12
-223.32
-216.92
-198.53
-168.80
-130.46
-87.50
-44.20
-4.06
30.76
59.50
82.55
100.86
115.60
127.86
138.52
148.15
156.96
164.76
171.10
175.46
177.51
177.33
175.40
172.46
169.27
166.33
163.84
161.58
159.07
155.68
150.81
144.09
135.48
125.35
114.33
103.11
92.14
81.62
71.39
61.16
50.66
39.81
28.70
17.59
6.81
-3.38
-12.94
-22.10
-31.36
-41.37
-52.70
-65.56
-79.70
-94.45
-109.00
-122.67
-135.18
-146.77
-158.13
-170.21
-183.95
-199.84
-217.42
-234.92
-249.24
-256.47
-252.99
-236.63
-207.62
-168.59
-123.90
-78.36
-36.00
0.70
30.81
54.63
73.06
87.16
97.92
106.18
112.65
117.84
122.04
125.32
127.55
128.53
128.16
126.54
124.08
121.38
119.14
117.77
117.27
117.11
116.40
114.22
109.95
103.49
95.33
86.29
77.26
68.86
61.25
54.07
46.61
38.10
28.10
16.75
4.76
-6.92
-17.44
-26.48
-34.38
-42.04
-50.48
-60.41
-71.88
-84.28
-96.70
-108.25
-118.50
-127.62
-136.47
-146.34
-158.39
-173.22
-190.64
-209.41
-227.23
-240.85
-246.78
-242.34
-226.43
-199.60
-163.84
-122.14
-77.84
-33.98
7.09
43.56
73.79
96.43
111.13
118.95
122.04
122.96
124.16
127.45
133.49
141.07
147.22
148.43
141.63
124.84
97.56
61.11
19.88
-17.49
-41.86
-49.46
-43.27
-29.33
-12.68
4.14
20.62
37.13
53.74
69.48
82.46
91.59
97.22
100.76
103.83
107.64
112.73
118.49
124.11
127.97
129.39
128.85
127.73
127.48
129.21
133.49
140.25
148.97
158.17
166.94
174.99
182.43
189.27
195.17
199.17
199.43
197.73
193.93
188.01
180.31
171.50
162.35
153.63
145.99
139.98
136.01
133.69
132.67
132.57
132.93
133.16
132.63
130.69
126.84
120.81
112.08
100.51
86.26
69.68
51.35
31.92
12.16
-7.17
-25.27
-41.71
-56.10
-68.17
-77.79
-85.05
-90.22
-93.75
-96.18
-98.13
-100.30
-103.24
-107.28
-112.52
-118.81
-125.75
-132.74
-139.02
-143.80
-146.34
-146.02
-142.46
-135.49
-125.28
-112.25
-97.02
-80.29
-62.79
-45.13
-27.76
-10.99
4.99
20.00
33.85
46.27
56.95
65.61
72.04
76.21
78.17
78.03
75.81
71.39
64.54
55.02
42.77
28.06
11.47
-6.17
-24.03
-41.52
-58.49
-75.13
-91.89
-109.08
-126.70
-144.37
-161.52
-177.61
-192.39
-206.09
-219.21
-232.52
-246.82
-263.00
-281.77
-303.30
-326.65
-349.41
-368.12
-379.26
-380.60
-372.17
-356.36
-336.82
-317.16
-299.71
-285.33
-274.03
-265.77
-260.89
-259.74
-261.98
-266.01
-269.28
-269.22
-264.37
-255.06
-243.20
-231.53
-222.46
-217.37
-216.39
-218.74
-223.26
-228.84
-234.65
-240.15
-245.18
-249.94
-255.08
-261.62
-270.34
-281.29
-293.14
-303.26
-308.35
-305.66
-293.97
-274.19
-248.96
-221.57
-194.81
-170.22
-148.11
-128.03
-109.49
-92.33
-76.67
-62.64
-50.09
-38.49
-27.22
-15.78
-4.06
7.60
18.53
28.00
35.44
40.73
44.17
46.52
48.75
51.78
56.21
62.15
69.25
76.89
84.45
91.56
98.20
104.70
111.54
119.34
128.75
140.32
154.06
168.95
182.56
191.28
191.42
180.75
159.93
132.73
105.06
82.92
70.32
68.18
74.62
86.40
100.45
114.97
129.42
144.01
158.98
174.39
190.34
207.15
225.27
244.74
264.67
282.99
297.02
304.51
304.63
298.41
288.39
277.62
268.58
262.50
259.30
257.91
256.82
254.54
249.90
242.17
231.14
217.21
201.31
184.65
168.42
153.52
140.31
128.57
117.62
106.60
94.78
81.84
67.94
53.58
39.26
25.08
10.60
-5.16
-23.17
-43.74
-65.79
-86.61
-102.16
-108.08
-101.05
-79.90
-46.11
-3.49
43.01
88.58
129.59
164.05
191.48
212.34
227.51
237.99
244.80
248.99
251.57
253.42
255.10
256.79
258.26
259.18
259.29
258.79
258.32
258.95
261.70
267.10
274.81
283.60
291.69
297.31
299.26
297.21
291.59
283.16
272.53
259.80
244.61
226.53
205.59
182.55
158.94
136.48
116.44
98.99
83.09
66.91
48.79
28.11
5.63
-16.70
-36.65
-52.80
-65.23
-75.49
-86.09
-99.61
-117.83
-141.06
-167.75
-194.44
-216.00
-226.53
-220.95
-197.03
-156.98
-107.59
-58.44
-18.68
6.16
15.87
14.79
9.19
4.21
1.99
1.88
2.22
2.21
2.86
6.30
14.15
26.05
39.37
50.20
55.15
52.66
43.53
30.30
15.93
2.49
-9.46
-20.63
-32.11
-44.49
-57.44
-69.93
-80.98
-90.40
-99.02
-108.30
-119.42
-132.55
-146.60
-159.65
-169.78
-175.85
-177.86
-176.72
-173.72
-169.97
-166.13
-162.39
-158.76
-155.22
-151.81
-148.64
-145.93
-143.96
-143.01
-143.20
-144.25
-145.51
-146.03
-144.94
-141.85
-137.01
-131.14
-125.06
-119.30
-113.83
-108.21
-101.95
-94.85
-87.22
-79.77
-73.31
-68.28
-64.52
-61.23
-57.32
-51.77
-44.14
-34.69
-24.39
-14.41
-5.84
0.77
5.47
8.83
11.74
15.21
20.23
27.37
36.40
45.97
53.86
57.72
56.22
49.87
41.08
33.21
29.04
29.36
32.59
35.45
34.35
26.74
11.83
-9.57
-35.48
-63.51
-91.19
-116.30
-137.07
-152.38
-161.98
-166.38
-166.73
-164.40
-160.67
-156.51
-152.44
-148.68
-145.05
-141.22
-136.68
-131.00
-123.89
-115.30
-105.32
-94.14
-82.07
-69.50
-57.03
-45.37
-35.27
-27.40
-22.11
-19.47
-19.17
-20.67
-23.22
-25.96
-28.00
-28.52
-27.08
-23.62
-18.53
-12.48
-6.13
0.04
5.83
11.21
16.22
20.76
24.72
27.94
30.30
31.80
32.48
32.49
31.97
31.07
29.85
28.32
26.39
23.93
20.83
17.00
12.49
7.50
2.35
-2.57
-6.81
-10.07
-12.25
-13.51
-14.30
-15.25
-17.02
-19.99
-24.00
-28.25
-31.40
-32.00
-28.92
-21.85
-11.48
0.73
12.93
23.38
30.91
35.07
36.08
34.73
32.01
28.93
26.21
24.17
22.73
21.58
20.38
18.92
17.26
15.52
13.82
12.14
10.36
8.27
5.79
2.93
-0.20
-3.50
-7.02
-10.87
-15.13
-19.70
-24.19
-28.09
-30.89
-32.42
-32.85
-32.64
-32.35
-32.38
-32.95
-34.04
-35.57
-37.36
-39.14
-40.61
-41.57
-41.93
-41.91
-41.99
-42.79
-44.83
-48.37
-53.30
-59.03
-64.49
-68.22
-68.58
-64.17
-54.28
-39.23
-20.32
0.45
21.00
39.66
55.48
68.30
78.42
86.46
92.96
98.33
102.62
105.54
106.52
104.89
100.25
92.77
83.38
73.42
64.34
57.16
52.18
49.12
47.43
46.54
46.04
45.61
44.86
43.32
40.57
36.51
31.50
26.25
21.57
17.86
15.09
12.69
10.03
6.77
2.97
-0.85
-4.02
-6.06
-6.89
-6.89
-6.70
-6.91
-7.73
-9.01
-10.29
-11.10
-11.14
-10.53
-9.65
-9.17
-9.69
-11.52
-14.50
-17.83
-20.12
-19.71
-15.04
-5.31
9.07
26.32
43.75
58.46
68.45
73.35
74.62
74.90
76.95
82.07
89.30
95.43
95.93
86.60
65.02
31.58
-10.63
-56.50
-100.26
-136.82
-162.64
-176.32
-178.49
-171.53
-158.77
-143.55
-128.32
-114.04
-100.01
-84.50
-65.84
-43.36
-18.03
7.86
31.45
50.48
63.94
72.14
76.19
77.20
75.84
72.27
66.51
58.80
49.75
40.18
30.74
21.74
12.98
4.04
-5.44
-15.55
-26.10
-36.80
-47.62
-58.96
-71.65
-86.43
-103.38
-121.49
-138.59
-151.92
-158.90
-158.05
-149.40
-134.40
-115.48
-95.31
-76.26
-60.06
-47.52
-38.50
-31.80
-25.49
-17.26
-5.03
12.64
36.27
65.58
99.70
137.21
176.14
213.92
247.59
274.38
292.54
302.03
304.77
304.29
304.68
309.30
319.49
333.95
348.92
359.26
360.10
348.44
324.09
289.44
248.37
204.77
161.30
119.11
78.20
37.97
-2.23
-42.97
-84.58
-126.76
-168.13
-206.12
-237.34
-258.59
-268.11
-266.30
-255.66
-239.87
-222.46
-205.90
-191.22
-178.31
-166.47
-154.99
-143.35
-131.25
-118.58
-105.39
-92.07
-79.21
-67.62
-58.10
-51.15
-46.71
-44.20
-42.69
-41.20
-39.10
-36.22
-32.78
-29.14
-25.56
-22.05
-18.40
-14.41
-9.97
-5.21
-0.53
3.64
6.84
8.79
9.37
8.74
7.22
5.37
3.71
2.66
2.39
2.80
3.57
4.33
4.87
5.17
5.37
5.75
6.50
7.77
9.43
11.35
13.37
15.38
17.29
19.07
20.74
22.25
23.68
25.07
26.47
27.85
28.99
29.64
29.59
28.93
28.09
27.74
28.65
31.38
36.08
42.41
49.57
56.52
62.33
66.32
68.47
69.18
69.27
69.61
70.72
72.57
74.33
74.64
71.92
64.85
52.85
36.34
16.86
-3.29
-21.55
-35.81
-44.92
-48.98
-49.15
-47.24
-45.10
-44.06
-44.64
-46.58
-49.10
-51.25
-52.39
-52.21
-50.87
-48.77
-46.35
-43.98
-41.80
-39.76
-37.77
-35.76
-33.75
-31.92
-30.55
-30.00
-30.66
-32.88
-36.83
-42.38
-49.13
-56.36
-63.16
-68.73
-72.49
-74.25
-74.12
-72.47
-69.61
-65.57
-60.05
-52.48
-42.45
-30.15
-16.57
-3.36
7.54
14.54
16.90
14.87
9.61
2.74
-4.04
-9.40
-12.50
-13.16
-11.82
-9.30
-6.61
-4.59
-3.73
-4.06
-5.27
-6.88
-8.38
-9.53
-10.29
-10.90
-11.70
-13.02
-14.97
-17.49
-20.24
-22.79
-24.74
-25.83
-25.90
-24.88
-22.64
-19.11
-14.35
-8.75
-3.03
1.93
5.35
6.79
6.29
4.28
1.31
-2.07
-5.53
-8.79
-11.61
-13.71
-14.91
-15.23
-15.10
-15.13
-15.91
-17.67
-20.09
-22.37
-23.52
-22.71
-19.56
-14.33
-7.76
-0.79
5.73
11.27
15.62
18.79
20.67
21.00
19.34
15.43
9.52
2.58
-3.86
-8.18
-9.43
-7.64
-3.99
-0.23
2.03
1.91
-0.43
-3.81
-6.44
-6.38
-2.10
6.85
19.50
33.51
45.75
53.30
54.39
48.76
37.46
22.13
4.29
-14.95
-34.63
-53.58
-70.36
-83.53
-92.44
-97.66
-100.95
-104.50
-109.87
-117.31
-125.69
-133.18
-138.26
-140.51
-141.01
-141.87
-145.61
-154.33
-169.16
-189.95
-215.12
-241.81
-266.12
-283.96
-292.07
-289.08
-275.94
-255.72
-232.39
-209.60
-189.65
-173.35
-160.45
-150.33
-142.47
-136.51
-132.07
-128.50
-124.90
-120.48
-114.82
-108.06
-100.78
-93.76
-87.59
-82.52
-78.39
-74.76
-71.11
-67.06
-62.46
-57.39
-52.04
-46.61
-41.11
-35.36
-28.90
-21.13
-11.40
0.69
15.22
31.79
49.57
67.55
84.82
100.84
115.70
129.97
144.49
159.93
176.49
193.75
210.93
227.25
242.31
256.30
269.94
284.21
300.10
318.50
340.06
364.81
391.58
417.60
438.82
451.12
452.01
441.92
424.35
404.68
388.05
377.56
373.56
374.13
376.45
377.99
377.13
372.97
364.95
352.56
335.58
314.44
290.46
265.68
242.33
222.21
206.00
193.18
182.22
171.36
159.46
146.52
133.80
123.30
116.87
115.32
117.89
122.32
125.48
124.40
117.25
103.95
86.11
66.57
48.42
34.39
26.30
24.87
29.77
39.59
52.11
64.62
74.72
80.80
82.45
80.16
74.65
66.16
54.22
37.94
16.61
-9.67
-39.81
-71.75
-102.73
-129.81
-150.22
-162.11
-164.99
-160.25
-150.75
-140.12
-131.46
-126.40
-124.76
-125.06
-125.39
-124.34
-121.41
-116.86
-111.34
-105.42
-99.55
-94.30
-90.63
-90.01
-94.12
-104.18
-120.22
-140.68
-162.62
-182.44
-196.92
-203.92
-202.76
-193.94
-178.65
-158.27
-134.01
-106.99
-78.26
-49.00
-20.37
6.58
31.29
53.70
74.22
93.48
112.03
130.21
148.16
165.85
182.94
198.86
212.76
223.84
231.74
236.53
238.64
238.21
234.64
226.50
212.04
189.98
160.08
123.31
81.50
37.02
-7.60
-49.75
-86.92
-117.05
-139.14
-153.66
-162.44
-168.12
-173.16
-178.93
-185.55
-192.05
-197.09
-199.60
-199.14
-195.89
-190.22
-182.40
-172.47
-160.48
-146.86
-132.65
-119.37
-108.47
-100.60
-95.31
-91.15
-86.38
-79.68
-70.67
-59.80
-48.15
-37.01
-27.62
-21.27
-19.24
-22.64
-32.04
-47.24
-67.23
-90.51
-115.35
-139.87
-161.67
-177.50
-183.05
-173.71
-146.16
-100.18
-39.76
27.31
91.42
143.88
179.08
195.45
194.71
180.34
156.01
124.91
89.83
53.61
19.44
-9.51
-30.82
-43.57
-48.51
-47.51
-42.79
-36.06
-28.36
-20.27
-12.25
-5.13
-0.08
1.65
-0.74
-7.43
-17.82
-30.85
-45.24
-59.71
-73.10
-84.45
-93.01
-98.42
-100.68
-100.00
-96.61
-90.61
-81.99
-70.77
-57.21
-41.92
-25.83
-10.01
4.57
17.22
27.61
35.80
42.08
46.87
50.62
53.65
56.06
57.79
58.63
58.40
57.17
55.27
53.25
51.78
51.39
51.97
53.35
55.55
58.86
63.55
69.67
76.93
84.77
92.43
98.70
102.73
104.38
104.07
102.30
99.32
95.04
89.26
81.76
71.53
58.18
42.46
26.07
10.76
-2.21
-12.15
-18.92
-22.83
-27.20
-34.46
-44.39
-54.62
-63.20
-69.72
-75.18
-80.88
-87.57
-100.42
-121.53
-147.50
-171.41
-188.08
-196.29
-197.60
-194.21
-187.70
-187.64
-199.82
-221.94
-245.70
-264.12
-274.89
-279.03
-278.90
-277.14
-288.16
-322.29
-379.06
-449.19
-523.58
-597.52
-669.38
-738.24
-730.15
-609.53
-403.66
-180.24
9.18
148.37
242.67
304.02
343.78
370.67
378.75
363.89
331.08
292.60
259.00
234.73
219.76
212.32
210.69
204.48
186.87
159.53
130.62
107.36
92.62
86.07
85.01
88.83
90.45
84.58
71.18
54.70
40.14
30.69
27.88
32.06
42.00
51.88
56.20
52.65
42.64
29.40
16.13
4.96
-3.16
-8.93
-15.30
-24.61
-37.00
-50.35
-61.34
-66.47
-66.18
-60.77
-51.64
-41.21
-31.85
-25.07
-21.11
-18.99
-16.96
-13.33
-6.43
4.56
19.62
37.83
56.90
72.79
80.15
73.85
51.56
16.27
-23.73
-57.26
-74.44
-70.91
-49.86
-20.49
5.93
20.57
20.07
6.28
-15.69
-40.02
-61.98
-78.41
-87.55
-88.70
-82.16
-69.35
-52.91
-36.30
-22.78
-14.47
-11.77
-13.28
-16.36
-18.06
-16.10
-9.46
1.39
15.01
29.73
44.46
59.22
75.31
95.12
121.35
155.83
198.12
244.59
288.73
322.74
340.18
338.24
318.80
287.54
251.73
217.73
189.35
167.69
151.90
140.40
131.44
123.46
115.01
104.99
93.03
79.76
66.60
55.19
46.68
41.05
36.94
32.21
24.90
14.45
2.50
-7.01
-8.90
1.30
25.14
59.83
98.41
131.50
150.32
149.35
128.13
91.02
45.48
-0.41
-40.08
-69.60
-87.58
-94.30
-90.90
-78.92
-60.40
-38.07
-15.29
4.68
19.63
29.14
34.62
38.51
43.03
49.10
56.00
61.98
65.22
64.85
61.21
55.49
48.86
41.77
33.74
23.80
11.31
-3.42
-19.02
-33.65
-45.73
-54.67
-60.84
-65.26
-68.82
-71.91
-74.28
-75.41
-74.93
-72.98
-70.20
-67.61
-66.14
-66.33
-68.14
-70.96
-73.86
-75.91
-76.38
-74.90
-71.40
-66.06
-59.22
-51.50
-43.90
-37.64
-33.61
-31.97
-31.85
-31.75
-30.34
-27.41
-24.23
-23.10
-26.24
-34.63
-47.37
-62.15
-76.29
-87.85
-96.20
-101.66
-104.76
-105.50
-103.16
-96.71
-85.51
-69.83
-50.93
-30.81
-11.55
5.19
18.51
28.23
34.74
38.68
40.75
41.49
41.30
40.46
39.20
37.74
36.34
35.17
34.28
33.54
32.67
31.36
29.53
27.31
25.04
23.10
21.62
20.51
19.40
17.98
16.10
14.02
12.27
11.38
11.55
12.53
13.58
13.79
12.45
9.32
4.72
-0.59
-5.81
-10.36
-14.10
-17.35
-20.73
-24.80
-29.80
-35.41
-40.69
-44.21
-44.36
-39.70
-29.49
-13.96
5.52
26.65
46.76
63.46
75.21
81.56
83.05
80.76
75.85
69.29
61.78
53.93
46.35
39.62
34.19
30.18
27.41
25.39
23.62
21.71
19.53
17.20
14.98
13.05
11.42
9.75
7.47
3.97
-1.09
-7.67
-15.22
-22.92
-29.91
-35.65
-39.98
-43.17
-45.74
-48.17
-50.71
-53.29
-55.57
-57.13
-57.78
-57.69
-57.38
-57.46
-58.30
-59.72
-61.16
-61.99
-62.02
-61.79
-62.36
-64.75
-69.31
-75.28
-80.78
-83.21
-79.92
-68.90
-49.28
-21.59
12.19
48.95
85.16
117.66
144.61
165.78
182.30
195.91
208.02
219.02
228.06
233.41
233.12
225.79
211.05
189.88
164.45
137.59
112.01
89.65
71.21
56.34
44.10
33.61
24.39
16.37
9.52
3.55
-2.06
-7.83
-13.80
-19.35
-23.36
-24.63
-22.43
-16.97
-9.43
-1.83
3.53
4.69
0.61
-8.41
-20.80
-34.19
-46.22
-55.22
-60.77
-63.57
-65.13
-67.08
-70.66
-76.42
-84.27
-93.59
-103.52
-113.14
-121.65
-128.45
-133.08
-135.15
-134.22
-129.79
-121.29
-108.09
-89.59
-65.50
-36.24
-3.47
29.66
58.96
80.17
90.33
88.90
77.91
61.12
42.50
24.94
9.66
-3.27
-14.05
-22.35
-27.29
-28.06
-24.70
-18.51
-11.65
-6.25
-3.56
-3.42
-4.61
-5.60
-5.41
-4.00
-2.16
-0.92
-1.01
-2.53
-5.09
-8.15
-11.42
-14.92
-18.87
-23.33
-28.02
-32.33
-35.57
-37.21
-37.04
-35.19
-31.94
-27.60
-22.46
-16.83
-11.13
-5.86
-1.47
1.73
3.65
4.52
4.65
4.44
4.17
4.00
3.94
4.01
4.17
4.47
5.00
5.90
7.34
9.46
12.20
15.27
18.08
19.83
19.69
17.15
12.26
5.77
-1.07
-6.85
-10.41
-11.19
-9.25
-5.18
0.18
5.83
10.72
13.85
14.45
12.18
7.40
1.04
-5.66
-11.52
-15.89
-18.72
-20.36
-21.27
-21.70
-21.59
-20.79
-19.17
-16.81
-14.04
-11.25
-8.83
-6.99
-5.77
-5.11
-4.92
-5.17
-5.89
-7.23
-9.36
-12.45
-16.57
-21.65
-27.38
-33.15
-38.04
-41.08
-41.67
-39.93
-36.76
-33.59
-31.75
-31.87
-33.65
-36.10
-38.08
-38.99
-38.99
-38.85
-39.37
-40.89
-43.00
-44.65
-44.66
-42.27
-37.47
-30.99
-24.06
-17.89
-13.44
-11.30
-11.58
-13.94
-17.25
-19.50
-18.33
-12.03
-0.68
13.12
24.92
30.11
26.07
13.47
-4.06
-21.66
-35.54
-44.32
-49.05
-51.86
-54.39
-56.83
-58.13
-56.95
-52.79
-46.40
-39.56
-34.32
-32.23
-33.82
-38.66
-45.80
-54.21
-63.18
-72.38
-81.75
-91.36
-101.22
-111.17
-120.91
-129.95
-137.63
-143.39
-146.87
-148.09
-147.35
-144.80
-140.00
-131.67
-117.93
-96.89
-67.42
-29.65
15.07
64.40
115.43
164.89
209.42
245.88
271.90
286.54
290.56
286.36
277.10
265.68
253.82
241.50
227.26
209.18
186.16
159.21
131.85
109.37
96.73
96.08
105.06
117.01
123.35
117.02
95.38
61.12
20.80
-18.09
-49.96
-72.51
-86.45
-94.01
-97.42
-98.06
-96.59
-93.53
-89.88
-87.18
-87.06
-90.59
-97.66
-106.90
-115.95
-122.26
-123.92
-120.36
-112.45
-102.15
-91.70
-82.79
-76.02
-70.85
-66.01
-60.20
-52.69
-43.57
-33.51
-23.38
-13.71
-4.58
4.13
12.31
19.42
24.61
27.11
26.70
23.86
19.74
15.62
12.54
10.87
10.37
10.36
10.17
9.50
8.55
8.02
8.71
11.16
15.27
20.22
24.74
27.65
28.36
27.06
24.60
22.01
20.08
19.11
18.82
18.66
18.12
16.96
15.31
13.63
12.54
12.61
14.11
16.90
20.42
23.80
26.14
26.84
25.75
23.19
19.85
16.57
14.14
13.21
14.18
17.02
21.40
26.54
31.47
35.28
37.42
37.87
37.08
35.72
34.27
32.94
31.66
30.27
28.82
27.62
27.14
27.80
29.87
33.27
37.61
42.21
46.23
48.91
49.77
48.77
46.37
43.31
40.37
38.07
36.68
36.34
37.19
39.50
43.45
48.91
55.36
61.90
67.48
71.19
72.29
70.29
64.93
56.33
45.07
32.43
20.26
10.64
5.34
5.10
9.40
16.43
23.69
28.78
30.10
27.26
20.88
11.98
1.47
-10.16
-22.55
-35.12
-46.83
-56.41
-62.90
-66.16
-66.94
-66.43
-65.53
-64.28
-61.93
-57.36
-49.90
-39.75
-28.12
-16.66
-6.95
0.00
3.83
4.66
2.82
-1.42
-7.79
-15.97
-25.43
-35.48
-45.38
-54.51
-62.51
-69.21
-74.46
-78.00
-79.53
-78.77
-75.74
-70.76
-64.33
-57.07
-49.58
-42.46
-36.34
-31.93
-29.88
-30.60
-33.96
-39.19
-44.81
-48.93
-49.51
-45.06
-35.20
-20.99
-4.97
9.40
18.74
20.79
15.08
3.02
-12.67
-28.83
-42.64
-52.18
-56.58
-55.94
-51.25
-44.24
-37.08
-31.93
-30.26
-32.36
-36.98
-41.66
-43.38
-39.60
-29.17
-12.72
7.61
28.94
48.71
65.34
78.39
88.24
95.50
100.68
104.14
106.32
108.02
110.27
113.89
119.02
124.86
129.86
132.43
131.64
127.59
121.27
113.94
106.34
98.23
88.53
75.98
59.98
41.10
21.06
2.02
-14.23
-26.92
-36.30
-43.15
-48.16
-51.47
-52.71
-51.41
-47.57
-41.98
-36.05
-31.41
-29.29
-29.98
-32.59
-35.24
-35.38
-30.38
-18.07
2.72
31.76
67.29
106.13
