1543352813.00
64.000000
-0.00
-0.00
-0.00
-0.00
-0.00
-0.00
-0.00
-0.00
-0.00
-0.00
0.00
0.01
0.01
-0.00
-0.03
-0.05
-0.05
0.00
0.13
0.36
0.66
1.01
1.37
1.72
2.06
2.40
2.79
3.24
3.80
4.42
5.06
5.66
6.20
6.68
7.15
7.68
8.31
9.14
10.09
11.04
11.88
12.56
13.14
13.76
14.65
15.96
17.91
20.32
22.90
25.38
27.58
29.57
31.68
34.32
37.81
42.54
48.15
54.10
59.83
64.97
69.58
74.14
79.34
85.71
93.76
103.00
112.62
121.73
129.77
136.75
143.30
150.75
157.77
166.64
177.94
191.79
206.96
220.56
228.25
225.37
208.56
176.92
132.84
80.17
23.24
-34.71
-92.13
-148.77
-204.76
-259.81
-313.10
-363.15
-409.03
-450.04
-485.57
-514.75
-536.19
-548.12
-548.80
-537.12
-512.86
-477.20
-432.25
-380.64
-325.00
-267.60
-210.13
-153.88
-99.88
-48.98
-2.17
39.68
75.90
106.23
130.81
150.16
164.99
176.02
183.87
188.95
191.53
191.84
190.14
186.79
182.18
176.75
170.83
164.68
158.42
152.12
145.81
139.51
133.29
127.25
121.47
116.03
110.94
106.17
101.58
97.00
92.17
86.79
80.53
73.10
64.26
53.86
41.81
28.24
13.47
-1.97
-17.43
-32.08
-45.04
-55.47
-62.73
-66.46
-66.65
-63.67
-58.32
-51.76
-45.23
-39.95
-36.93
-36.86
-39.97
-46.04
-54.42
-64.15
-74.15
-83.11
-89.72
-92.85
-91.69
-85.84
-75.40
-61.00
-43.13
-23.48
-3.82
14.32
29.89
42.33
51.61
57.99
61.91
63.74
63.71
62.08
59.13
55.26
51.02
47.04
43.84
41.68
40.36
39.19
37.48
34.73
30.93
26.63
22.75
20.19
19.38
20.02
21.06
21.26
19.80
16.55
12.37
8.66
6.68
7.08
9.56
12.89
15.64
16.52
14.50
8.78
-0.80
-13.17
-25.40
-33.04
-31.87
-19.84
1.32
26.21
47.74
60.15
61.27
52.62
38.92
24.79
12.82
3.27
-4.81
-12.06
-18.07
-21.65
-21.93
-19.12
-14.76
-10.83
-9.08
-10.02
-12.90
-16.09
-17.87
-17.23
-14.21
-10.00
-6.30
-4.61
-5.50
-8.44
-12.00
-14.51
-14.78
-12.63
-8.98
-5.49
-3.80
-4.79
-8.21
-12.71
-16.45
-17.93
-16.64
-13.42
-10.07
-8.39
-9.60
-13.71
-19.54
-25.31
-29.19
-29.59
-25.28
-15.74
-1.81
13.66
25.81
29.27
20.42
-0.49
-28.63
-56.09
-74.99
-80.67
-72.94
-56.01
-35.60
-16.16
0.44
14.30
25.99
35.37
41.48
43.39
41.16
36.19
30.65
26.65
25.22
26.05
27.79
28.79
27.89
24.86
20.49
16.15
13.10
11.90
12.31
13.42
14.17
13.81
12.17
9.71
7.19
5.33
4.46
4.48
4.92
5.25
5.09
4.36
3.24
2.08
1.22
0.78
0.75
0.95
1.18
1.31
1.29
1.16
1.02
0.96
1.03
1.25
1.57
1.93
2.30
2.63
2.93
3.23
3.58
4.02
4.59
5.24
5.94
6.62
7.22
7.75
8.26
8.84
9.53
10.39
11.36
12.34
13.27
14.02
14.66
15.27
16.03
17.04
18.24
19.35
19.91
19.35
17.16
13.15
7.45
0.52
-7.12
-14.98
-22.82
-30.60
-38.26
-45.60
-51.97
-56.24
-57.22
-54.02
-46.48
-35.41
-22.41
-9.11
2.58
11.75
18.65
24.14
28.95
33.37
36.89
38.39
36.72
30.99
20.63
5.58
-13.64
-35.24
-55.79
-70.60
-75.24
-67.52
-48.50
-23.91
-0.70
15.56
22.79
22.60
18.75
14.69
12.07
10.44
8.54
5.92
3.22
1.71
2.26
4.70
7.81
10.12
10.43
8.57
5.46
2.48
0.83
1.05
2.78
5.03
6.70
7.03
5.91
3.93
1.98
0.83
0.81
1.70
2.96
3.93
4.16
3.59
2.50
1.35
0.53
0.25
0.46
0.95
1.44
1.70
1.63
1.29
0.81
0.32
-0.04
-0.25
-0.29
-0.22
-0.13
-0.13
-0.31
-0.70
-1.28
-1.95
-2.58
-3.04
-3.32
-3.52
-3.87
-4.61
-5.86
-7.59
-9.51
-11.26
-12.49
-13.11
-13.36
-13.80
-15.00
-17.34
-20.73
-24.60
-28.14
-30.58
-31.66
-31.83
-32.10
-33.62
-37.13
-42.52
-48.83
-54.65
-58.60
-60.12
-59.68
-58.49
-57.69
-57.79
-58.14
-57.06
-52.38
-42.03
-24.28
1.77
35.82
75.53
116.04
150.39
171.32
173.35
156.65
127.06
93.83
65.88
48.21
40.63
39.04
38.54
36.01
31.30
26.04
21.87
19.14
16.74
13.06
7.17
-0.52
-8.47
-14.31
-16.17
-13.38
-6.62
2.29
11.13
18.05
22.01
22.60
19.60
12.59
1.48
-12.41
-26.00
-34.84
-34.85
-24.55
-6.23
14.67
31.75
40.20
38.93
30.38
18.61
7.10
-2.46
-10.13
-16.41
-21.38
-24.43
-24.83
-22.52
-18.51
-14.43
-11.98
-12.04
-14.38
-17.85
-20.94
-22.52
-22.30
-20.92
-19.58
-19.48
-21.26
-24.79
-29.30
-33.76
-37.39
-39.96
-41.88
-43.94
-46.95
-51.39
-57.18
-63.82
-70.56
-76.81
-82.33
-87.35
-92.33
-97.69
-103.47
-109.15
-113.68
-115.76
-114.22
-108.41
-98.34
-84.80
-68.70
-50.86
-31.77
-11.50
10.02
32.72
55.98
78.61
99.08
116.06
128.89
137.79
143.82
148.47
153.21
159.23
167.37
177.79
189.66
200.69
207.31
205.56
192.63
168.32
135.42
98.81
63.56
33.10
8.43
-11.23
-27.06
-39.41
-47.71
-51.07
-49.50
-44.42
-38.20
-33.03
-29.94
-28.58
-27.87
-26.84
-25.46
-24.69
-25.92
-30.24
-37.99
-48.81
-61.69
-75.11
-86.91
-94.56
-95.75
-89.36
-76.18
-58.80
-40.48
-23.71
-9.40
2.93
13.93
23.32
29.74
31.80
29.60
25.61
23.90
28.13
39.44
55.58
71.89
83.58
87.88
85.09
77.98
70.33
65.03
63.08
63.62
64.64
63.65
58.12
45.75
25.56
-1.25
-30.64
-56.25
-71.24
-71.07
-55.82
-29.76
-0.89
22.73
36.28
39.40
34.89
26.28
15.86
4.49
-7.60
-19.76
-30.39
-37.66
-40.49
-39.36
-36.02
-32.98
-32.15
-34.32
-38.96
-44.60
-49.64
-53.15
-55.32
-57.25
-60.51
-66.29
-75.03
-86.33
-99.21
-112.58
-125.86
-139.16
-153.22
-168.98
-186.91
-206.81
-227.70
-248.01
-266.06
-280.48
-290.53
-295.98
-297.23
-294.24
-286.54
-273.34
-253.90
-228.08
-196.72
-161.72
-125.59
-90.78
-58.86
-30.13
-3.71
22.00
48.42
76.05
104.25
131.67
156.89
179.29
199.39
218.69
239.39
263.87
294.44
332.73
378.71
429.44
478.63
517.46
536.62
530.33
498.71
447.93
387.71
327.51
273.38
226.97
186.83
150.75
117.62
87.63
61.33
38.52
17.89
-2.36
-23.36
-44.91
-65.63
-83.36
-96.45
-104.46
-108.26
-109.63
-110.46
-111.94
-114.23
-116.53
-117.59
-116.43
-112.79
-107.23
-100.85
-94.80
-89.80
-85.94
-82.77
-79.53
-75.65
-70.91
-65.54
-60.02
-54.90
-50.54
-46.97
-43.98
-41.25
-38.45
-35.45
-32.28
-29.08
-26.02
-23.27
-20.91
-18.96
-17.30
-15.84
-14.45
-13.06
-11.65
-10.29
-9.12
-8.26
-7.80
-7.68
-7.75
-7.78
-7.62
-7.22
-6.72
-6.39
-6.48
-7.12
-8.18
-9.34
-10.16
-10.35
-9.90
-9.15
-8.72
-9.21
-10.90
-13.59
-16.57
-18.87
-19.78
-19.13
-17.52
-16.19
-16.39
-18.88
-23.40
-28.84
-33.32
-35.45
-34.59
-31.41
-27.78
-26.03
-28.06
-34.35
-43.57
-52.54
-57.32
-54.14
-40.94
-18.24
11.04
42.28
70.73
92.68
106.23
111.50
110.27
105.68
100.84
97.56
95.14
90.26
78.22
55.28
21.33
-18.67
-55.57
-79.46
-83.23
-66.13
-33.58
5.36
41.99
71.01
90.90
102.07
104.40
96.42
76.05
43.32
2.17
-40.13
-74.91
-96.33
-103.40
-100.08
-92.66
-86.90
-85.73
-88.33
-91.45
-91.65
-87.54
-80.36
-72.90
-67.29
-63.21
-57.48
-45.91
-26.23
-0.01
27.35
49.31
61.40
63.35
58.70
52.35
47.85
45.93
45.14
43.56
40.43
36.50
33.02
31.17
31.08
32.03
32.68
32.05
29.83
26.51
23.14
20.72
19.86
20.46
21.78
22.89
23.15
22.46
21.16
19.78
18.70
18.01
17.62
17.42
17.37
17.52
17.95
18.64
19.51
20.64
22.32
24.85
28.03
31.02
32.41
30.87
25.67
17.08
6.13
-5.83
-17.34
-27.32
-34.70
-38.55
-38.13
-33.35
-24.95
-14.63
-4.64
3.34
8.34
10.66
11.05
10.36
9.10
7.45
5.22
2.15
-1.53
-5.24
-8.19
-9.84
-10.24
-9.80
-9.19
-9.04
-9.59
-10.52
-11.40
-11.88
-11.92
-12.06
-12.57
-13.29
-13.53
-12.32
-8.94
-3.63
2.40
7.56
10.21
9.75
6.70
2.38
-1.71
-4.62
-6.26
-7.04
-7.48
-8.04
-8.85
-9.87
-11.01
-11.94
-12.37
-11.89
-10.02
-6.47
-1.52
4.18
9.81
14.63
18.38
21.27
23.75
26.49
30.21
35.42
42.47
51.45
62.06
73.75
85.79
97.29
107.15
114.95
120.06
122.45
122.99
123.22
124.86
129.00
135.64
143.46
150.34
153.98
152.79
146.06
134.09
117.97
99.23
79.68
60.89
43.42
26.26
7.07
-16.72
-46.29
-80.09
-113.87
-142.01
-159.82
-165.35
-160.20
-148.46
-134.84
-122.76
-113.28
-105.24
-96.58
-85.67
-72.16
-57.07
-41.92
-27.73
-14.50
-1.29
13.06
29.02
45.27
59.75
70.83
77.70
80.65
80.88
80.16
80.02
81.01
81.83
80.78
76.99
70.74
63.68
58.28
56.94
60.91
69.62
79.48
87.27
91.76
93.29
92.33
88.95
82.70
72.98
59.46
38.24
8.45
-26.56
-62.30
-96.59
-129.19
-159.84
-186.96
-207.92
-228.71
-251.39
-271.21
-281.80
-281.59
-273.49
-261.81
-249.84
-239.03
-242.70
-265.27
-297.91
-328.40
-352.46
-373.64
-397.47
-427.13
-461.96
-516.18
-592.76
-678.32
-755.06
-814.84
-859.02
-892.20
-918.50
-829.18
-600.32
-309.04
-53.38
127.37
244.37
324.47
390.60
454.92
519.13
560.45
565.20
540.45
504.59
471.64
447.45
432.41
424.26
420.23
404.80
371.92
330.16
293.08
267.32
251.90
242.87
236.76
231.92
219.64
196.86
168.89
143.68
125.06
112.59
104.15
97.45
90.49
77.58
56.77
31.50
8.18
-8.38
-16.58
-17.54
-13.84
-7.77
-1.54
5.34
14.95
28.58
44.19
57.21
63.39
61.46
53.89
45.20
39.29
37.26
37.25
35.94
30.76
21.66
11.33
3.97
3.45
11.80
28.19
48.87
68.38
80.43
80.44
67.38
44.13
16.30
-9.83
-29.98
-43.20
-51.66
-59.07
-69.32
-84.12
-102.61
-121.24
-135.02
-138.73
-129.67
-106.41
-71.75
-31.90
5.07
31.31
41.51
34.68
14.62
-11.23
-33.95
-46.11
-43.90
-28.04
-3.18
23.99
47.08
62.13
68.48
68.27
64.69
60.67
57.60
54.99
51.28
44.79
35.19
24.10
14.30
8.01
5.68
5.74
5.25
2.22
-3.55
-10.04
-14.14
-13.61
-8.05
1.23
11.94
21.77
29.08
33.02
33.47
30.90
26.29
19.81
12.57
5.57
-0.64
-5.76
-9.66
-12.17
-12.91
-11.69
-9.00
-5.98
-4.52
-7.05
-15.69
-32.45
-58.80
-94.78
-138.69
-187.10
-235.09
-276.89
-306.56
-318.12
-307.92
-275.47
-223.64
-158.35
-87.78
-19.86
40.07
89.99
132.26
169.11
201.01
227.08
246.14
257.57
263.47
267.91
274.33
285.26
296.78
299.36
283.17
243.02
180.05
102.87
23.22
-54.63
-116.54
-151.45
-160.94
-155.41
-144.92
-136.12
-132.69
-131.94
-130.90
-123.25
-104.59
-73.58
-30.68
23.46
83.49
143.91
198.92
233.25
239.14
220.21
188.23
154.30
130.79
113.99
102.05
93.88
88.42
82.84
73.43
55.70
26.80
-12.34
-59.14
-108.04
-156.57
-204.36
-249.18
-288.44
-318.09
-332.92
-329.54
-310.94
-284.65
-264.09
-260.76
-264.97
-265.24
-253.76
-230.61
-201.11
-178.05
-157.19
-132.79
-99.60
-54.62
0.39
54.71
95.35
113.63
109.44
92.67
74.78
63.70
59.20
51.49
28.24
-16.31
-76.35
-136.46
-178.04
-190.18
-172.88
-136.17
-95.11
-62.13
-41.96
-31.55
-23.84
-11.71
7.48
32.61
60.38
86.63
107.84
122.12
129.14
129.94
126.79
121.67
116.16
110.90
105.57
99.83
94.14
90.10
89.64
93.88
101.84
110.86
117.78
120.60
119.55
116.97
115.96
118.47
124.20
130.82
135.65
137.29
136.33
134.77
134.36
135.09
135.01
131.33
122.19
107.89
90.74
73.75
59.09
47.24
37.45
28.78
21.02
14.70
10.53
8.49
7.64
6.65
4.51
1.22
-2.19
-4.24
-3.89
-1.19
2.57
5.34
5.10
0.71
-7.62
-18.39
-29.42
-38.73
-45.14
-48.54
-49.57
-49.13
-47.91
-46.32
-44.58
-43.02
-42.01
-41.77
-42.09
-42.14
-40.73
-36.83
-30.08
-21.10
-11.31
-2.46
3.92
6.95
6.50
3.15
-2.00
-7.55
-11.95
-13.79
-12.16
-7.05
0.56
8.78
15.41
18.61
17.49
12.36
4.50
-4.33
-12.36
-18.19
-21.09
-20.98
-18.55
-15.00
-11.77
-10.03
-10.26
-12.09
-14.61
-16.83
-18.21
-18.79
-19.00
-19.18
-19.35
-19.09
-17.90
-15.56
-12.32
-8.80
-5.52
-2.78
-0.40
1.96
4.50
7.15
9.41
10.76
10.93
10.08
8.74
7.66
7.42
8.25
10.03
12.35
14.72
16.71
18.07
18.58
18.14
16.72
14.41
11.50
8.43
5.69
3.64
2.34
1.51
0.68
-0.48
-2.06
-3.82
-5.40
-6.56
-7.29
-7.83
-8.40
-9.01
-9.40
-9.15
-7.92
-5.69
-2.75
0.42
3.43
6.08
8.41
10.50
12.31
13.63
14.14
13.61
12.05
9.75
7.16
4.71
2.72
1.29
0.47
0.26
0.60
1.36
2.26
2.92
3.00
2.39
1.26
0.03
-0.91
-1.40
-1.58
-1.79
-2.36
-3.43
-4.83
-6.24
-7.38
-8.17
-8.69
-9.04
-9.17
-8.86
-7.82
-5.87
-3.19
-0.23
2.40
4.14
4.71
4.14
2.71
0.75
-1.38
-3.45
-5.35
-7.03
-8.52
-9.73
-10.48
-10.53
-9.67
-8.00
-6.00
-4.50
-4.32
-5.95
-9.24
-13.41
-17.31
-19.93
-20.80
-20.15
-18.73
-17.38
-16.68
-16.69
-17.01
-17.02
-16.14
-14.07
-10.78
-6.44
-1.29
4.30
9.98
15.34
20.05
23.89
26.83
28.97
30.40
31.12
30.95
29.63
26.88
22.62
16.97
10.30
3.14
-3.93
-10.37
-15.78
-19.89
-22.50
-23.48
-22.76
-20.38
-16.62
-12.01
-7.21
-2.81
0.90
3.97
6.68
9.35
12.19
15.29
18.72
22.57
26.91
31.59
36.16
39.93
42.33
43.25
43.16
42.82
42.78
43.00
42.73
41.02
37.30
31.85
25.66
19.96
15.54
12.41
9.96
7.45
4.46
1.09
-2.24
-5.18
-7.71
-10.18
-13.02
-16.41
-20.12
-23.61
-26.32
-27.99
-28.69
-28.80
-28.72
-28.65
-28.49
-27.96
-26.72
-24.54
-21.43
-17.65
-13.63
-9.91
-7.05
-5.47
-5.42
-6.85
-9.50
-12.93
-16.62
-20.10
-22.98
-24.98
-25.95
-25.86
-24.83
-23.06
-20.87
-18.60
-16.58
-15.07
-14.20
-13.94
-14.06
-14.24
-14.16
-13.66
-12.78
-11.63
-10.30
-8.73
-6.75
-4.21
-1.17
2.11
5.17
7.62
9.27
10.20
10.66
10.90
11.07
11.19
11.20
11.04
10.73
10.37
10.07
9.92
9.90
9.88
9.71
9.20
8.29
6.99
5.44
3.75
2.02
0.17
-1.94
-4.50
-7.58
-11.04
-14.55
-17.62
-19.76
-20.65
-20.14
-18.31
-15.36
-11.63
-7.48
-3.35
0.37
3.32
5.32
6.41
6.78
6.70
6.37
5.90
5.29
4.57
3.85
3.28
3.02
3.15
3.58
4.11
4.52
4.60
4.24
3.43
2.22
0.72
-0.97
-2.79
-4.79
-7.04
-9.56
-12.31
-15.09
-17.62
-19.64
-20.92
-21.35
-20.82
-19.27
-16.67
-13.12
-8.87
-4.33
0.05
3.93
7.14
9.70
11.74
13.37
14.64
15.51
15.87
15.60
14.63
12.98
10.90
8.85
7.39
7.03
8.00
10.12
12.83
15.43
17.29
18.09
17.86
16.82
15.25
13.36
11.27
9.07
6.89
4.87
3.11
1.58
0.13
-1.52
-3.59
-6.14
-8.99
-11.69
-13.66
-14.35
-13.42
-10.85
-6.88
-1.95
3.53
9.28
15.21
21.34
27.72
34.46
41.69
49.66
58.72
69.12
80.87
93.64
106.82
119.75
132.02
143.70
155.23
167.20
179.98
193.57
207.70
222.08
236.68
251.75
267.59
284.19
301.17
317.74
332.95
345.67
354.47
357.39
352.06
336.19
308.55
269.84
222.92
172.23
122.61
78.09
41.05
12.06
-9.65
-25.63
-37.66
-47.30
-55.69
-63.29
-69.95
-75.50
-80.32
-85.81
-94.23
-107.86
-127.84
-153.35
-181.51
-208.09
-228.16
-237.07
-231.42
-210.35
-176.67
-137.37
-102.46
-81.96
-82.25
-103.46
-139.47
-180.61
-217.80
-245.63
-263.31
-273.32
-279.44
-285.30
-293.80
-306.86
-324.75
-344.89
-361.79
-369.01
-362.45
-343.36
-318.40
-296.36
-283.41
-280.14
-282.13
-283.80
-282.30
-278.56
-275.17
-272.83
-268.34
-256.38
-233.50
-201.38
-166.73
-137.79
-119.70
-112.28
-111.33
-112.38
-113.85
-117.52
-126.10
-140.31
-157.36
-172.01
-179.30
-176.73
-165.16
-147.79
-128.57
-111.29
-99.46
-96.06
-102.85
-119.36
-142.03
-164.85
-181.37
-187.26
-181.99
-168.69
-152.22
-136.62
-123.40
-111.22
-97.23
-78.67
-53.99
-23.28
12.07
50.08
88.81
126.53
162.15
195.22
225.88
254.85
283.14
311.58
340.10
366.97
388.54
399.96
396.81
377.10
342.97
300.73
259.21
226.73
208.12
203.18
207.33
214.01
217.62
215.43
207.84
197.13
185.67
174.80
164.58
154.58
144.59
135.00
126.48
119.28
112.86
105.97
97.41
86.74
74.68
62.87
53.25
47.22
45.11
46.13
48.82
51.60
53.43
53.97
53.61
53.14
53.28
54.34
56.11
57.86
58.75
58.14
55.89
52.42
48.52
45.07
42.60
41.25
40.63
40.17
39.32
37.75
35.40
32.43
29.06
25.50
21.94
18.53
15.43
12.83
10.81
9.32
8.12
6.93
5.52
3.84
2.06
0.46
-0.67
-1.25
-1.36
-1.26
-1.23
-1.48
-2.09
-3.00
-4.07
-5.11
-6.00
-6.73
-7.38
-8.06
-8.86
-9.76
-10.67
-11.42
-11.89
-12.00
-11.75
-11.13
-10.20
-8.98
-7.61
-6.30
-5.31
-4.79
-4.81
-5.22
-5.82
-6.38
-6.81
-7.06
-7.20
-7.26
-7.28
-7.27
-7.23
-7.23
-7.34
-7.62
-8.08
-8.70
-9.37
-10.02
-10.57
-10.98
-11.26
-11.48
-11.67
-11.87
-12.03
-12.09
-12.02
-11.86
-11.73
-11.81
-12.19
-12.80
-13.38
-13.60
-13.20
-12.09
-10.44
-8.51
-6.59
-4.84
-3.32
-2.05
-1.05
-0.40
-0.17
-0.41
-1.04
-1.93
-2.92
-3.85
-4.61
-5.14
-5.44
-5.54
-5.54
-5.53
-5.59
-5.78
-6.09
-6.50
-6.97
-7.47
-7.99
-8.57
-9.24
-10.02
-10.95
-11.96
-12.96
-13.78
-14.23
-14.18
-13.57
-12.43
-10.92
-9.22
-7.57
-6.11
-4.95
-4.03
-3.30
-2.70
-2.18
-1.73
-1.36
-1.06
-0.81
-0.61
-0.47
-0.44
-0.57
-0.86
-1.28
-1.70
-2.01
-2.16
-2.16
-2.11
-2.18
-2.47
-3.06
-3.95
-5.06
-6.31
-7.58
-8.80
-9.87
-10.67
-11.09
-11.01
-10.43
-9.39
-8.08
-6.69
-5.39
-4.29
-3.35
-2.58
-1.94
-1.50
-1.31
-1.41
-1.75
-2.15
-2.41
-2.32
-1.85
-1.09
-0.28
0.32
0.49
0.19
-0.49
-1.36
-2.27
-3.12
-3.93
-4.74
-5.53
-6.27
-6.87
-7.29
-7.55
-7.77
-8.04
-8.37
-8.65
-8.66
-8.21
-7.25
-5.88
-4.34
-2.87
-1.65
-0.68
0.13
0.92
1.78
2.71
3.59
4.29
4.71
4.83
4.70
4.38
3.95
3.43
2.82
2.15
1.43
0.75
0.14
-0.38
-0.79
-1.11
-1.33
-1.47
-1.64
-1.97
-2.57
-3.49
-4.65
-5.88
-6.95
-7.65
-7.87
-7.55
-6.71
-5.42
-3.81
-2.03
-0.29
1.29
2.64
3.76
4.67
5.37
5.85
6.10
6.17
6.10
5.95
5.73
5.43
5.04
4.62
4.22
3.89
3.70
3.56
3.36
2.98
2.35
1.50
0.52
-0.46
-1.35
-2.09
-2.70
-3.19
-3.63
-4.10
-4.68
-5.37
-6.18
-7.01
-7.78
-8.44
-8.98
-9.46
-9.92
-10.34
-10.61
-10.56
-9.99
-8.79
-7.01
-4.80
-2.41
-0.08
1.99
3.68
4.95
5.76
6.12
6.07
5.71
5.23
4.79
4.52
4.42
4.41
4.35
4.19
3.98
3.86
3.94
4.20
4.54
4.75
4.68
4.29
3.64
2.85
2.01
1.18
0.42
-0.26
-0.80
-1.23
-1.60
-2.01
-2.55
-3.21
-3.89
-4.45
-4.81
-4.95
-4.98
-5.01
-5.15
-5.42
-5.82
-6.33
-6.95
-7.68
-8.41
-8.95
-9.02
-8.40
-6.98
-4.88
-2.40
0.06
2.16
3.76
4.85
5.55
5.95
6.06
5.83
5.24
4.39
3.47
2.77
2.47
2.60
3.03
3.54
3.97
4.25
4.40
4.48
4.50
4.41
4.17
3.79
3.33
2.85
2.38
1.89
1.31
0.64
-0.08
-0.73
-1.22
-1.55
-1.83
-2.18
-2.70
-3.39
-4.12
-4.72
-5.12
-5.41
-5.74
-6.31
-7.17
-8.20
-9.13
-9.67
-9.59
-8.81
-7.38
-5.45
-3.21
-0.91
1.25
3.09
4.47
5.36
5.80
5.89
5.73
5.41
5.00
4.56
4.18
3.89
3.73
3.70
3.75
3.76
3.62
3.32
2.90
2.48
2.18
2.03
1.98
1.92
1.75
1.48
1.17
0.93
0.81
0.76
0.67
0.47
0.13
-0.30
-0.80
-1.36
-2.01
-2.74
-3.50
-4.14
-4.58
-4.83
-5.05
-5.46
-6.25
-7.37
-8.60
-9.55
-9.88
-9.39
-8.12
-6.31
-4.28
-2.31
-0.56
0.93
2.21
3.30
4.17
4.71
4.81
4.46
3.79
3.05
2.49
2.31
2.48
2.85
3.19
3.35
3.32
3.25
3.30
3.55
3.98
4.42
4.69
4.65
4.32
3.76
3.11
2.43
1.69
0.83
-0.16
-1.24
-2.26
-3.09
-3.64
-3.93
-4.06
-4.16
-4.33
-4.63
-5.08
-5.69
-6.42
-7.21
-7.92
-8.43
-8.67
-8.62
-8.26
-7.63
-6.69
-5.43
-3.87
-2.13
-0.37
1.23
2.55
3.52
4.15
4.47
4.50
4.26
3.81
3.29
2.87
2.72
2.94
3.49
4.20
4.84
5.14
5.02
4.51
3.86
3.34
3.14
3.23
3.37
3.27
2.68
1.56
0.12
-1.33
-2.52
-3.37
-3.94
-4.43
-5.05
-5.85
-6.81
-7.81
-8.68
-9.27
-9.47
-9.21
-8.46
-7.27
-5.68
-3.82
-1.85
0.08
1.83
3.30
4.42
5.14
5.43
5.29
4.73
3.87
2.83
1.80
0.90
0.18
-0.42
-0.98
-1.51
-1.94
-2.11
-1.88
-1.21
-0.28
0.67
1.34
1.56
1.37
0.91
0.37
-0.15
-0.64
-1.19
-1.92
-2.84
-3.90
-5.00
-6.08
-7.13
-8.16
-9.11
-9.81
-10.09
-9.73
-8.71
-7.12
-5.22
-3.26
-1.42
0.22
1.67
2.93
3.94
4.59
4.77
4.49
3.83
2.98
2.17
1.59
1.30
1.27
1.37
1.45
1.44
1.34
1.19
1.06
0.98
0.88
0.69
0.36
-0.09
-0.56
-0.97
-1.32
-1.67
-2.16
-2.87
-3.79
-4.84
-5.95
-7.06
-8.14
-9.10
-9.80
-10.01
-9.51
-8.22
-6.26
-3.92
-1.55
0.56
2.27
3.61
4.66
5.52
6.20
6.67
6.87
6.77
6.43
5.96
5.46
5.02
4.65
4.30
3.89
3.34
2.63
1.82
0.98
0.18
-0.54
-1.24
-1.96
-2.73
-3.54
-4.35
-5.10
-5.77
-6.34
-6.86
-7.30
-7.61
-7.68
-7.39
-6.63
-5.41
-3.83
-2.07
-0.31
1.29
2.73
4.02
5.17
6.12
6.70
6.73
6.17
5.15
3.98
3.04
2.61
2.76
3.33
4.01
4.49
4.54
4.09
3.21
2.09
0.91
-0.21
-1.25
-2.29
-3.46
-4.79
-6.24
-7.70
-9.03
-10.17
-11.15
-12.00
-12.65
-12.97
-12.73
-11.78
-10.15
-8.09
-6.01
-4.29
-3.16
-2.62
-2.47
-2.40
-2.23
-1.95
-1.73
-1.81
-2.35
-3.28
-4.40
-5.43
-6.20
-6.77
-7.35
-8.20
-9.46
-11.06
-12.82
-14.48
-15.84
-16.79
-17.27
-17.29
-16.82
-15.96
-14.93
-14.14
-14.04
-14.85
-16.35
-17.71
-17.68
-15.05
-9.17
-0.35
10.11
20.24
28.17
32.71
33.70
31.92
28.58
24.88
21.60
19.08
17.38
16.53
16.62
17.86
20.40
24.23
29.28
35.46
42.83
51.54
61.66
73.04
85.25
97.68
109.71
120.97
131.40
141.22
150.67
159.83
168.52
176.23
182.23
185.62
185.55
181.47
173.29
161.54
147.24
131.45
114.89
97.31
77.39
53.23
23.43
-12.07
-51.66
-92.45
-131.15
-164.92
-191.91
-211.42
-223.60
-229.26
-229.79
-227.22
-223.94
-221.82
-221.35
-221.14
-218.72
-212.00
-200.91
-187.74
-176.13
-169.01
-166.92
-167.83
-168.18
-164.71
-155.85
-142.04
-124.71
-105.13
-83.86
-61.26
-38.45
-17.81
-2.53
4.60
2.67
-6.62
-19.44
-31.21
-38.17
-38.57
-32.67
-22.01
-8.26
7.64
25.51
45.37
66.64
87.83
106.89
121.95
131.97
137.01
137.91
135.74
131.41
125.55
118.71
111.47
104.47
98.07
92.03
85.36
76.60
64.57
49.02
31.11
13.13
-2.12
-12.36
-16.61
-15.50
-10.89
-5.11
-0.11
3.14
4.69
5.39
6.27
8.09
11.03
14.79
18.72
22.16
24.59
25.83
25.92
25.10
23.64
21.76
19.65
17.54
15.66
14.27
13.55
13.52
14.07
15.12
16.80
19.44
23.37
28.41
33.63
37.46
38.30
35.37
29.11
20.96
12.58
4.99
-1.74
-8.26
-15.20
-22.66
-30.09
-36.77
-42.34
-47.17
-52.08
-57.89
-64.84
-72.41
-79.38
-84.33
-86.10
-84.21
-78.89
-70.99
-61.46
-50.97
-39.62
-27.16
-13.46
0.93
14.56
25.46
31.93
33.21
29.80
23.16
15.17
7.57
1.70
-1.58
-1.85
0.85
5.85
11.92
17.51
21.21
22.17
20.35
16.39
11.28
6.07
1.62
-1.50
-3.04
-3.17
-2.50
-1.95
-2.47
-4.67
-8.42
-12.90
-16.83
-19.09
-19.16
-17.41
-14.90
-12.83
-11.85
-11.75
-11.57
-10.16
-6.80
-1.61
4.59
10.68
15.78
19.49
21.85
23.07
23.40
23.09
22.45
21.91
21.92
22.60
23.71
24.69
24.90
24.00
22.05
19.37
16.34
13.09
9.63
5.82
1.73
-2.49
-6.58
-10.44
-14.16
-17.97
-22.07
-26.34
-30.38
-33.55
-35.41
-35.84
-35.23
-34.11
-32.82
-31.23
-28.73
-24.69
-18.80
-11.47
-3.61
3.72
9.79
14.55
18.37
21.78
25.04
28.03
30.46
32.19
33.42
34.58
36.10
38.06
40.12
41.61
41.92
40.87
38.81
36.44
34.43
33.17
32.57
32.23
31.73
30.87
29.79
28.75
27.94
27.22
26.16
24.22
21.07
16.75
11.68
6.48
1.65
-2.61
-6.43
-10.07
-13.69
-17.26
-20.53
-23.23
-25.22
-26.49
-27.02
-26.71
-25.31
-22.60
-18.56
-13.52
-8.12
-3.09
1.07
4.16
6.32
7.87
9.15
10.45
11.98
13.82
15.91
18.04
19.91
21.29
22.16
22.76
23.50
24.68
26.36
28.30
30.11
31.45
32.14
32.16
31.61
30.56
29.04
26.98
24.28
20.80
16.48
11.40
5.82
0.24
-4.77
-8.77
-11.64
-13.64
-15.25
-16.85
-18.54
-20.10
-21.16
-21.41
-20.84
-19.74
-18.53
-17.61
-17.16
-17.19
-17.63
-18.45
-19.61
-21.06
-22.55
-23.74
-24.20
-23.70
-22.27
-20.28
-18.24
-16.64
-15.76
-15.61
-15.99
-16.63
-17.29
-17.73
-17.80
-17.36
-16.39
-14.96
-13.29
-11.68
-10.44
-9.74
-9.50
-9.44
-9.17
-8.40
-7.06
-5.33
-3.60
-2.26
-1.59
-1.65
-2.26
-3.07
-3.71
-3.83
-3.24
-1.93
-0.06
2.11
4.28
6.22
7.81
9.05
10.02
10.79
11.38
11.75
11.83
11.61
11.14
10.53
9.92
9.35
8.78
8.11
7.27
6.30
5.31
4.43
3.71
3.11
2.50
1.70
0.55
-0.98
-2.82
-4.73
-6.42
-7.60
-8.10
-7.96
-7.43
-6.88
-6.61
-6.76
-7.26
-7.96
-8.80
-9.88
-11.51
-14.01
-17.49
-21.65
-25.77
-28.85
-30.06
-29.04
-26.02
-21.70
-16.86
-12.06
-7.46
-2.93
1.69
6.37
10.84
14.74
17.82
20.12
21.94
23.62
25.37
27.23
29.01
30.55
31.79
32.79
33.71
34.69
35.70
36.55
37.01
36.83
35.95
34.50
32.72
30.86
29.08
27.31
25.40
23.13
20.45
17.42
14.35
11.53
9.21
7.42
5.93
4.43
2.68
0.65
-1.41
-3.12
-4.14
-4.28
-3.55
-2.04
0.20
3.29
7.36
12.58
18.86
25.93
33.15
40.01
46.51
53.21
60.92
70.30
81.62
94.47
108.02
121.11
132.73
142.30
149.72
155.18
159.03
161.91
164.53
167.76
171.74
176.21
180.79
185.14
189.00
192.22
194.82
196.34
195.83
190.25
176.46
152.72
119.56
79.28
35.01
-9.52
-51.63
-89.37
-124.41
-158.78
-192.88
-225.48
-255.31
-282.23
-305.55
-324.62
-336.80
-342.86
-343.73
-339.47
-329.96
-316.55
-302.26
-288.21
-275.00
-260.95
-250.45
-249.59
-262.67
-290.68
-331.87
-383.07
-437.85
-491.25
-501.79
-444.06
-325.98
-185.09
-58.88
35.54
89.02
118.70
136.19
147.59
148.75
133.48
103.27
62.94
18.81
-25.09
-65.98
-104.78
-141.08
-176.34
-208.97
-233.06
-241.43
-230.13
-201.54
-161.70
-119.55
-81.18
-51.53
-32.02
-20.50
-13.00
-5.47
4.91
20.90
43.68
74.15
111.10
152.60
197.23
243.73
290.32
333.64
369.27
392.42
400.45
393.66
375.53
351.01
324.05
296.21
267.13
236.67
206.60
180.68
162.64
153.42
149.81
145.65
135.17
116.18
90.97
64.76
42.64
26.96
16.70
8.97
1.23
-7.17
-15.15
-21.33
-25.43
-28.56
-32.53
-38.42
-45.77
-52.84
-57.81
-60.15
-61.27
-63.77
-69.70
-79.00
-88.92
-95.10
-93.47
-82.25
-62.70
-38.69
-14.82
5.86
23.25
40.50
62.69
94.67
139.25
195.16
256.35
312.81
352.94
366.56
347.91
297.17
220.89
131.67
45.44
-22.51
-61.87
-70.33
-54.60
-27.51
-4.01
4.49
-4.71
-26.20
-50.93
-71.55
-84.95
-92.11
-93.90
-90.48
-81.01
-63.61
-38.99
-12.98
4.96
6.56
-11.57
-44.72
-84.57
-122.57
-149.84
-159.18
-147.35
-115.50
-67.44
-9.42
53.65
116.04
157.76
161.46
126.17
69.37
12.23
-25.35
-48.07
-61.41
-68.65
-70.79
-68.33
-59.64
-45.19
-28.75
-15.15
-8.96
-10.34
-17.76
-28.91
-39.42
-44.64
-42.61
-35.11
-26.00
-19.73
-17.63
-19.49
-24.27
-29.43
-32.14
-31.30
-28.07
-24.61
-23.27
-24.29
-27.23
-31.44
-35.71
-38.63
-39.37
-37.93
-34.71
-30.46
-25.37
-19.75
-14.14
-8.86
-3.90
0.70
4.81
8.20
10.59
12.00
12.53
12.39
11.76
10.87
9.82
8.59
7.18
5.59
3.92
2.27
0.72
-0.69
-1.99
-3.18
-4.21
-4.99
-5.48
-5.70
-5.79
-5.85
-5.96
-6.04
-5.94
-5.54
-4.69
-3.26
-1.05
2.12
6.37
11.55
17.16
22.35
26.16
27.77
26.82
23.50
18.51
12.78
7.20
2.39
-1.47
-4.61
-7.37
-10.05
-12.66
-14.90
-16.36
-16.77
-16.13
-14.78
-13.21
-11.83
-10.83
-10.06
-9.14
-7.69
-5.49
-2.66
0.39
3.10
5.01
5.95
6.21
6.39
7.17
8.95
11.66
14.71
17.22
18.43
17.95
16.06
13.58
11.59
11.14
12.78
16.40
21.19
25.93
29.33
30.48
29.09
25.42
20.13
13.91
7.25
0.46
-6.18
-12.29
-17.38
-21.03
-23.10
-23.78
-23.42
-22.25
-20.15
-16.80
-11.99
-6.00
0.24
5.37
8.23
8.27
5.83
1.86
-2.65
-7.12
-11.53
-16.28
-21.68
-27.67
-33.73
-39.07
-43.04
-45.31
-45.97
-45.31
-43.58
-40.91
-37.26
-32.69
-27.53
-22.38
-17.99
-14.89
-13.21
-12.64
-12.73
-13.08
-13.60
-14.45
-15.71
-17.24
-18.56
-18.99
-18.04
-15.62
-12.15
-8.35
-4.96
-2.44
-0.90
-0.17
0.13
0.39
0.91
1.91
3.48
5.51
7.78
9.92
11.61
12.57
12.73
12.24
11.43
10.62
10.00
9.52
8.87
7.65
5.61
2.75
-0.58
-3.85
-6.50
-8.10
-8.46
-7.62
-5.69
-2.70
1.37
6.56
12.68
19.29
25.73
31.31
35.61
38.66
40.94
43.06
45.51
48.30
51.07
53.34
54.78
55.46
55.67
55.67
55.42
54.68
53.35
51.80
50.87
51.45
53.91
57.66
61.19
62.72
60.91
55.45
47.06
37.05
26.72
17.01
8.38
0.98
-5.09
-9.75
-13.09
-15.49
-17.65
-20.39
-24.27
-29.38
-35.17
-40.73
-45.10
-47.61
-48.12
-46.94
-44.76
-42.41
-40.68
-40.10
-40.74
-42.14
-43.43
-43.73
-42.49
-39.89
-36.76
-34.20
-33.06
-33.67
-35.70
-38.40
-40.98
-42.69
-43.06
-41.77
-38.76
-34.29
-29.02
-23.83
-19.48
-16.27
-13.76
-11.04
-7.17
-1.66
5.12
12.12
18.11
22.37
25.02
27.05
29.70
33.84
39.51
45.93
52.00
56.90
60.60
63.83
67.61
72.47
78.00
82.84
85.20
83.76
78.25
69.56
59.18
48.52
38.28
28.41
18.57
8.36
-3.03
-17.37
-37.34
-65.31
-100.98
-139.55
-171.72
-186.54
-176.27
-140.72
-88.47
-34.16
7.30
26.53
22.65
2.37
-24.19
-48.22
-65.36
-75.82
-82.38
-87.67
-92.41
-95.44
-95.02
-90.00
-80.30
-65.96
-46.37
-20.59
10.83
43.92
70.57
80.79
67.09
28.37
-28.40
-90.29
-143.02
-175.73
-183.70
-168.47
-135.91
-93.73
-49.72
-10.47
19.24
37.17
43.79
41.98
35.95
30.03
27.65
30.73
39.56
52.92
68.17
81.84
90.73
93.00
88.80
80.18
70.16
61.49
55.73
52.81
51.53
50.25
47.78
43.64
38.14
32.01
25.99
20.51
15.55
10.81
5.93
0.74
-4.66
-9.92
-14.65
-18.50
-21.28
-22.93
-23.42
-22.68
-20.61
-17.23
-12.71
-7.36
-1.61
4.11
9.41
14.00
17.71
20.53
22.69
24.58
26.68
29.31
32.41
35.60
38.31
40.05
40.55
39.78
37.87
35.02
31.52
27.74
24.02
20.55
17.18
13.42
8.73
2.93
-3.53
-9.62
-14.14
-16.40
-16.53
-15.51
-14.58
-14.74
-16.31
-18.92
-21.88
-24.54
-26.50
-27.64
-27.91
-27.19
-25.29
-22.15
-18.03
-13.44
-9.05
-5.34
-2.46
-0.21
1.68
3.32
4.52
4.96
4.39
2.95
1.19
-0.03
0.09
2.04
5.68
10.28
14.66
17.57
18.14
16.18
12.28
7.53
3.13
-0.10
-1.82
-2.20
-1.58
-0.24
1.65
3.94
6.34
8.46
9.98
10.87
11.39
11.97
12.87
13.98
14.78
14.68
13.31
10.75
7.49
4.15
1.22
-1.19
-3.25
-5.26
-7.47
-9.92
-12.53
-15.16
-17.69
-20.10
-22.39
-24.55
-26.55
-28.29
-29.72
-30.84
-31.64
-32.17
-32.41
-32.34
-31.91
-31.15
-30.17
-29.06
-27.83
-26.24
-23.91
-20.44
-15.76
-10.27
-4.85
-0.49
2.19
3.30
3.61
4.21
5.94
8.98
12.84
16.73
19.94
22.19
23.52
24.10
24.04
23.22
21.55
19.02
15.88
12.54
9.52
7.20
5.79
5.31
5.51
5.96
6.13
5.58
4.17
2.10
-0.09
-1.87
-2.91
-3.29
-3.44
-3.88
-5.04
-6.94
-9.28
-11.46
-12.95
-13.43
-12.97
-11.95
-10.89
-10.24
-10.15
-10.40
-10.58
-10.30
-9.42
-8.16
-6.91
-5.95
-5.29
-4.58
-3.33
-1.23
1.64
4.86
7.81
10.04
11.37
11.92
11.92
11.51
10.72
9.53
8.02
6.41
5.04
4.21
3.97
4.18
4.52
4.70
4.55
4.11
3.56
3.09
2.85
2.82
2.94
3.06
3.07
2.89
2.48
1.88
1.19
0.60
0.35
0.71
1.85
3.82
6.51
9.62
12.84
15.85
18.42
20.46
21.98
23.06
23.78
24.28
24.63
24.88
25.02
25.06
25.03
25.00
25.07
25.35
25.94
26.86
28.12
29.71
31.60
33.79
36.25
38.99
42.06
45.45
49.09
52.65
55.59
57.29
57.23
55.27
51.70
47.15
42.35
37.96
34.48
32.27
31.58
32.34
33.93
35.02
33.77
28.42
18.02
2.95
-15.20
-34.08
-51.40
-65.42
-75.17
-80.33
-80.98
-77.53
-70.73
-61.57
-51.06
-40.02
-28.97
-18.28
-8.61
-1.06
3.07
2.96
-1.02
-7.22
-13.24
-17.00
-17.66
-15.91
-13.58
-12.74
-14.93
-20.71
-29.63
-40.55
-51.99
-62.57
-71.52
-78.86
-85.30
-91.78
-98.71
-105.53
-110.70
-112.28
-108.86
-100.14
-87.07
-71.29
-54.46
-37.82
-22.19
-8.24
3.25
11.43
15.85
16.76
15.30
13.13
11.81
12.21
14.20
16.95
19.44
21.09
22.00
22.85
24.35
26.80
29.79
32.36
33.46
32.42
29.30
24.84
20.12
16.13
13.31
11.62
10.56
9.66
8.63
7.56
6.70
6.39
6.82
7.94
9.56
11.40
13.22
14.84
16.13
16.90
17.02
16.36
14.96
13.10
11.22
9.87
9.42
9.95
11.16
12.57
13.73
14.45
14.86
15.21
15.75
16.49
17.24
17.74
17.79
17.38
16.63
15.73
14.78
13.75
12.56
11.16
9.54
7.84
6.17
4.63
3.25
1.98
0.81
-0.25
-1.13
-1.76
-2.14
-2.36
-2.62
-3.10
-3.89
-4.91
-5.90
-6.54
-6.55
-5.79
-4.33
-2.40
-0.28
1.71
3.38
4.61
5.43
5.95
6.37
6.84
7.44
8.14
8.84
9.43
9.91
10.33
10.79
11.35
11.92
12.39
12.64
12.63
12.46
12.28
12.21
12.26
12.34
12.35
12.23
12.04
11.88
11.87
12.08
12.40
12.66
12.68
12.36
11.78
11.08
10.44
9.95
9.52
9.00
8.21
7.06
5.64
4.17
2.93
2.23
2.22
2.87
3.99
5.26
6.37
7.01
7.02
6.40
5.28
3.80
2.15
0.45
-1.19
-2.66
-3.91
-4.91
-5.71
-6.49
-7.50
-8.95
-10.83
-12.88
-14.59
-15.45
-15.13
-13.74
-11.73
-9.71
-8.17
-7.28
-6.96
-6.99
-7.20
-7.54
-8.04
-8.68
-9.33
-9.88
-10.32
-10.79
-11.48
-12.58
-14.15
-16.15
-18.51
-21.14
-23.92
-26.43
-28.04
-27.94
-25.61
-21.06
-14.95
-8.34
-2.24
2.73
6.47
9.22
11.29
12.85
13.99
14.80
15.55
16.60
18.23
20.43
22.79
24.71
25.65
25.40
24.16
22.28
20.18
18.01
15.75
13.31
10.75
8.36
6.57
5.76
5.98
6.91
7.87
8.17
7.31
5.27
2.48
-0.35
-2.69
-4.52
-6.49
-9.64
-14.71
-21.45
-28.32
-32.74
-32.07
-24.71
-10.86
7.37
26.69
43.67
55.74
61.60
61.29
55.76
46.47
35.08
23.13
11.95
2.45
-4.89
-10.05
-13.25
-14.90
-15.45
-15.33
-14.90
-14.44
-14.05
-13.64
-12.96
-11.80
-10.11
-8.10
-6.15
-4.64
-3.77
-3.42
-3.30
-3.01
-2.31
-1.20
0.11
1.40
2.48
3.34
4.12
5.02
6.20
7.64
9.14
10.25
10.48
9.35
6.56
2.17
-3.34
-9.18
-14.51
-18.69
-21.59
-23.66
-25.92
-29.64
-35.90
-45.13
-56.83
-69.56
-81.36
-90.25
-94.85
-94.59
-89.65
-80.69
-68.44
-53.51
-36.55
-18.40
-0.24
16.55
30.66
41.28
48.26
52.01
53.27
52.77
51.06
48.42
45.05
41.12
36.89
32.63
28.60
24.97
21.78
19.04
16.73
14.85
13.37
12.29
11.54
11.05
10.72
10.45
10.18
9.78
9.21
8.40
7.37
6.21
4.99
3.79
2.60
1.43
0.27
-0.78
-1.57
-1.90
-1.71
-1.09
-0.20
0.76
1.69
2.50
3.05
3.16
2.58
1.24
-0.75
-3.10
-5.53
-7.99
-10.67
-13.90
-17.89
-22.55
-27.51
-32.34
-36.64
-40.09
-42.37
-43.01
-41.50
-37.51
-31.23
-23.45
-15.41
-8.43
-3.34
-0.24
1.45
2.70
4.44
7.13
10.70
14.60
18.15
20.77
22.24
22.67
22.33
21.55
20.50
19.27
17.87
16.38
14.93
13.69
12.81
12.29
11.97
11.60
10.93
9.87
8.47
6.93
5.50
4.38
3.59
2.98
2.32
1.39
0.09
-1.57
-3.43
-5.27
-6.83
-7.88
-8.22
-7.81
-6.70
-5.03
-3.01
-0.83
1.34
3.30
4.89
5.92
6.28
5.98
5.14
4.03
2.92
2.04
1.48
1.24
1.26
1.43
1.69
1.95
2.15
2.24
2.24
2.15
2.00
1.78
1.48
1.03
0.36
-0.57
-1.75
-3.07
-4.33
-5.28
-5.67
-5.33
-4.24
-2.51
-0.35
2.01
4.40
6.72
8.94
11.02
12.87
14.26
14.90
14.67
13.75
12.62
11.89
12.05
13.29
15.39
17.76
19.69
20.74
20.96
20.92
21.34
22.76
25.22
28.25
30.87
32.06
31.38
29.37
27.37
26.87
28.91
33.68
40.37
47.31
52.47
54.73
54.43
52.97
51.63
51.22
51.98
53.68
55.10
53.99
48.23
36.58
18.42
-6.61
-37.36
-70.03
-98.29
-115.72
-118.51
-105.52
-77.65
-37.50
11.01
64.34
119.63
172.99
216.88
240.10
232.95
192.43
123.52
35.94
-58.33
-148.41
-220.06
-256.13
-252.29
-221.19
-179.17
-135.23
-93.42
-55.40
-22.02
5.53
25.83
37.50
41.73
42.19
44.64
49.71
55.34
59.21
59.06
52.96
38.89
16.88
-10.02
-36.77
-62.84
-90.13
-115.02
-137.00
-158.36
-183.47
-215.16
-252.27
-272.55
-261.23
-217.43
-154.19
-88.88
-33.62
7.05
34.99
53.10
68.54
80.82
86.86
84.38
72.54
51.71
22.07
-12.55
-48.23
-79.28
-101.80
-111.33
-104.07
-79.69
-42.48
-0.54
37.64
66.08
83.72
91.43
91.87
87.79
80.86
72.02
62.28
53.52
47.65
46.19
48.16
51.26
52.93
51.41
46.43
39.24
32.03
26.62
24.11
23.90
24.44
24.00
21.57
17.24
12.25
8.72
8.40
12.39
20.33
30.44
39.92
45.96
46.65
41.67
32.22
20.35
8.31
-2.30
-10.58
-16.36
-19.71
-20.92
-20.46
-19.19
-18.18
-18.33
-19.96
-22.67
-25.65
-28.12
-29.74
-30.57
-30.90
-31.02
-30.95
-30.65
-30.24
-30.16
-31.01
-33.31
-37.17
-41.87
-46.46
-49.85
-51.17
-50.09
-46.80
-41.74
-35.37
-27.91
-19.39
-10.10
-0.82
7.09
12.22
13.92
13.07
12.13
14.16
21.43
34.03
49.53
63.85
72.84
74.00
67.34
55.21
41.17
28.64
19.85
15.35
14.20
14.53
14.19
11.50
5.84
-2.09
-10.40
-16.70
-18.98
-16.53
-10.27
-2.48
4.03
7.01
5.66
0.73
-5.94
-12.32
-17.05
-19.82
-21.21
-22.00
-22.61
-22.85
-22.25
-20.62
-18.49
-16.89
-16.68
-17.62
-18.13
-15.72
-8.29
4.64
21.33
38.31
51.67
58.61
58.33
51.99
41.91
30.48
19.49
9.95
2.35
-3.02
-5.98
-6.53
-4.98
-2.07
1.13
3.54
4.34
3.26
0.52
-3.25
-7.34
-11.18
-14.41
-16.96
-18.92
-20.45
-21.61
-22.40
-22.77
-22.85
-22.97
-23.46
-24.36
-25.08
-24.42
-20.89
-13.43
-2.03
11.92
26.04
37.65
44.69
46.40
43.33
36.93
28.87
20.56
12.85
6.21
0.89
-2.97
-5.26
-5.98
-5.31
-3.56
-1.21
1.21
3.09
3.90
3.23
0.98
-2.57
-6.76
-10.71
-13.62
-15.09
-15.20
-14.35
-13.02
-11.61
-10.55
-10.35
-11.58
-14.49
-18.53
-22.13
-22.92
-18.75
-8.72
6.09
22.71
37.38
46.83
49.48
45.68
37.22
26.39
15.11
4.66
-4.32
-11.46
-16.43
-19.00
-19.19
-17.52
-14.95
-12.61
-11.41
-11.68
-13.07
-14.71
-15.58
-15.02
-13.16
-11.00
-10.06
-11.64
-15.88
-21.33
-25.39
-25.59
-21.06
-13.35
-5.84
-1.91
-2.89
-7.00
-10.20
-8.38
0.37
14.77
31.06
44.94
53.45
55.77
52.95
46.77
38.90
30.43
22.04
14.22
7.42
2.00
-1.79
-3.86
-4.17
-2.77
0.07
3.71
7.09
9.11
9.01
6.73
2.91
-1.48
-5.55
-8.92
-11.70
-14.29
-16.90
-19.44
-21.58
-23.13
-24.18
-25.08
-26.00
-26.60
-25.91
-22.72
-16.25
-6.61
5.04
16.76
26.34
31.86
32.32
27.80
19.56
9.54
-0.23
-8.29
-14.02
-17.54
-19.28
-19.59
-18.55
-16.30
-13.26
-10.14
-7.72
-6.36
-5.81
-5.27
-3.75
-0.38
5.20
12.87
21.96
31.47
40.31
47.66
53.10
56.59
58.08
57.25
53.49
46.27
35.82
23.49
11.64
2.92
-0.71
1.28
7.82
16.72
25.34
31.38
33.30
30.51
23.37
12.99
1.00
-10.80
-20.73
-27.57
-30.80
-30.59
-27.79
-23.80
-20.27
-18.77
-20.12
-23.98
-28.69
-31.85
-31.34
-26.48
-18.58
-10.56
-5.54
-5.25
-9.14
-14.61
-18.61
-19.45
-17.85
-16.49
-18.25
-24.07
-31.96
-37.72
-37.09
-28.10
-12.33
5.85
21.47
31.39
35.47
35.93
35.46
35.33
34.87
32.37
26.80
18.90
10.98
5.57
3.93
5.44
8.36
11.06
12.98
14.58
16.51
18.62
19.70
18.29
13.72
6.80
-0.55
-6.43
-10.05
-12.03
-13.74
-16.08
-18.90
-21.15
-21.86
-21.04
-19.83
-19.59
-20.69
-21.77
-20.26
-13.92
-2.41
12.10
25.89
35.46
39.15
37.61
32.98
27.43
22.07
16.81
11.15
5.03
-0.76
-5.11
-7.27
-7.33
-5.94
-3.57
-0.03
5.31
12.55
20.46
26.52
27.92
23.23
13.33
1.13
-9.76
-16.81
-19.59
-19.37
-18.01
-16.66
-15.38
-13.70
-11.48
-9.43
-8.69
-9.90
-12.35
-14.00
-12.52
-6.48
3.65
15.60
26.27
33.04
34.83
32.24
26.90
20.59
14.53
9.17
4.47
0.38
-3.00
-5.25
-5.77
-4.01
0.26
6.65
13.82
19.73
22.30
20.43
14.66
7.09
0.22
-4.37
-6.91
-9.05
-12.59
-18.15
-24.62
-29.83
-31.83
-30.02
-25.39
-19.82
-15.02
-11.79
-10.08
-9.52
-9.84
-10.81
-11.87
-11.84
-9.17
-2.77
7.10
18.51
28.56
34.64
35.71
32.75
27.95
23.30
19.48
15.78
11.13
5.25
-0.67
-4.65
-5.13
-1.99
3.40
9.12
13.82
17.19
19.53
20.81
20.23
16.69
9.86
0.76
-8.54
-16.20
-21.68
-25.86
-30.16
-35.18
-40.13
-43.20
-42.97
-39.37
-33.90
-28.62
-24.95
-22.96
-21.75
-20.34
-18.37
-16.01
-13.36
-10.06
-5.36
1.23
9.40
18.01
25.69
31.46
35.08
36.71
36.33
33.58
28.05
20.10
11.24
3.81
-0.12
0.14
3.51
7.79
10.88
11.81
10.97
9.57
8.75
8.91
9.66
10.19
9.78
8.08
5.14
1.28
-3.06
-7.34
-11.05
-13.72
-15.17
-15.55
-15.30
-14.87
-14.54
-14.19
-13.51
-12.25
-10.58
-9.25
-9.33
-11.61
-15.98
-21.03
-24.40
-23.63
-17.28
-5.75
8.70
22.71
32.98
37.55
36.28
30.66
22.95
15.11
8.22
2.40
-2.58
-6.70
-9.37
-9.76
-7.52
-3.18
1.76
5.55
7.01
6.03
3.54
0.85
-1.06
-1.99
-2.42
-3.08
-4.43
-6.49
-9.02
-11.74
-14.50
-17.03
-18.88
-19.51
-18.63
-16.64
-14.66
-14.07
-15.68
-19.33
-23.79
-27.59
-29.82
-30.51
-30.17
-28.83
-25.47
-18.50
-7.02
7.96
23.35
35.21
40.67
39.28
32.99
24.76
16.91
10.20
4.23
-1.52
-6.73
-10.21
-10.87
-8.50
-4.22
0.21
3.22
4.21
3.49
1.68
-0.80
-4.01
-8.12
-13.05
-18.28
-23.13
-26.99
-29.49
-30.26
-28.88
-25.01
-18.86
-11.55
-5.12
-1.84
-3.22
-9.14
-17.80
-26.41
-32.40
-34.30
-32.04
-26.52
-18.97
-10.45
-1.62
7.06
15.16
22.07
27.21
30.25
31.30
30.83
29.39
27.22
24.16
20.07
15.10
10.05
6.21
4.80
6.56
11.36
18.10
24.93
29.68
30.58
26.94
19.62
10.69
2.68
-2.63
-5.04
-5.81
-6.47
-7.76
-8.89
-8.27
-5.18
-0.34
4.39
7.23
7.66
7.13
7.76
11.64
19.92
31.56
44.52
56.45
65.18
68.90
67.17
60.19
49.77
38.86
28.92
20.24
12.53
5.58
-0.34
-3.81
-5.19
-6.47
-10.92
-23.37
-46.04
-76.24
-107.24
-132.18
-146.91
-154.46
-161.58
-162.98
-153.99
-132.13
-98.91
-59.04
-25.24
1.66
21.86
37.11
50.34
64.17
77.29
86.27
87.24
77.62
58.34
31.21
-0.30
-31.97
-61.18
-85.88
-103.54
-111.66
-109.12
-96.28
-76.95
-55.81
-36.47
-21.26
-10.57
-3.18
2.47
7.26
11.68
14.93
16.40
16.12
14.28
11.27
7.85
5.00
3.78
5.11
8.75
13.30
16.79
17.52
15.26
11.63
9.12
9.39
12.03
14.58
14.31
10.46
5.05
1.75
3.28
9.34
16.41
20.09
18.11
11.97
5.82
3.36
5.16
8.27
8.50
3.52
-5.39
-14.33
-19.30
-18.52
-12.82
-4.38
5.08
14.98
25.24
35.35
44.07
50.00
52.63
52.71
51.62
50.49
49.45
47.90
45.10
40.59
34.40
26.96
19.32
13.09
10.19
11.76
17.12
23.57
27.43
26.15
19.73
10.79
2.78
-2.04
-3.62
-3.46
-2.92
-2.22
-0.61
2.41
6.08
8.62
8.12
3.84
-3.55
-12.32
-20.56
-26.85
-30.52
-31.45
-30.03
-27.11
-23.79
-21.06
-19.37
-18.47
-17.63
-15.97
-12.74
-7.32
0.75
11.48
23.96
36.19
45.57
49.87
48.23
41.39
31.37
20.58
11.14
4.47
1.23
1.48
4.71
10.03
16.19
21.78
25.23
24.99
19.82
9.64
-3.66
-16.18
-23.12
-21.06
-10.28
4.77
17.31
21.77
16.80
5.87
-5.22
-11.96
-13.69
-13.28
-14.36
-18.30
-23.30
-26.09
-24.78
-20.69
-17.55
-18.96
-25.86
-35.87
-44.77
-48.92
-46.78
-38.97
-27.31
-13.80
-0.16
12.19
22.05
28.80
32.47
33.69
33.19
31.50
29.02
26.44
24.72
24.40
24.77
24.00
20.48
14.65
9.62
9.56
16.84
29.77
42.95
50.09
47.56
36.15
20.23
4.86
-6.62
-13.46
-16.42
-16.42
-14.01
-9.83
-5.38
-2.81
-3.88
-8.94
-16.78
-25.40
-33.06
-38.63
-41.43
-40.89
-36.76
-29.92
-22.74
-18.39
-19.23
-25.26
-33.82
-40.92
-43.33
-39.90
-31.51
-19.78
-5.89
9.56
25.67
40.30
50.25
52.64
46.75
34.71
20.70
8.81
1.26
-1.87
-1.67
1.09
6.39
14.16
23.00
29.95
31.85
27.35
18.12
7.93
0.41
-3.26
-4.58
-5.89
-7.91
-8.80
-5.75
2.24
12.58
20.10
20.43
13.04
1.74
-7.95
-12.62
-13.06
-13.16
-16.62
-23.86
-31.64
-35.43
-32.90
-25.73
-18.71
-16.68
-21.39
-30.26
-37.82
-38.51
-29.65
-12.60
7.82
25.72
36.69
39.58
36.55
31.58
28.14
27.21
27.03
24.53
17.74
7.49
-2.67
-8.51
-7.67
-1.12
7.44
13.86
15.72
13.30
8.70
4.14
0.60
-2.19
-4.91
-7.67
-9.92
-11.06
-11.14
-10.89
-10.94
-11.08
-10.26
-7.54
-3.07
1.72
5.09
6.33
6.36
6.94
9.24
12.63
14.89
13.42
6.93
-3.68
-15.72
-25.97
-32.10
-33.26
-29.77
-22.29
-11.24
2.93
19.04
34.64
46.48
51.82
49.89
42.57
33.46
25.94
21.28
18.09
13.45
5.18
-6.34
-18.02
-25.68
-26.56
-21.02
-12.66
-6.32
-5.50
-10.28
-17.47
-22.51
-22.40
-17.43
-10.87
-6.73
-7.05
-10.93
-15.60
-18.84
-20.77
-23.31
-27.95
-33.36
-35.48
-30.22
-17.04
-0.66
10.95
11.14
-1.03
-19.61
-34.87
-38.67
-28.97
-10.60
7.98
19.90
23.61
22.87
23.41
28.42
36.20
41.60
39.66
29.24
13.90
-0.49
-9.30
-11.52
-9.59
-7.03
-5.85
-5.71
-5.01
-2.57
1.32
5.24
7.65
7.50
4.38
-1.31
-8.00
-12.41
-10.14
2.30
24.93
52.83
77.66
91.52
91.13
79.16
62.22
46.51
34.50
24.65
14.06
1.52
-11.20
-20.79
-24.98
-23.89
-19.14
-11.95
-1.80
12.73
31.85
52.82
70.48
79.50
77.44
66.19
51.03
38.30
32.56
35.11
43.93
55.31
65.90
74.45
82.18
91.38
103.00
115.04
122.98
122.56
113.05
98.53
85.74
79.78
80.44
82.19
77.89
63.70
41.57
17.42
-3.31
-19.27
-33.24
-49.03
-67.75
-86.75
-101.51
-109.00
-109.75
-107.48
-106.86
-111.03
-120.47
-132.95
-144.44
-150.38
-146.89
-132.28
-108.24
-79.93
-53.92
-35.45
-26.03
-23.28
-23.21
-23.03
-22.78
-24.56
-30.31
-39.65
-49.59
-56.07
-56.18
-49.67
-38.98
-28.18
-21.38
-21.41
-28.91
-42.05
-56.90
-68.70
-73.88
-71.45
-63.44
-53.47
-44.46
-37.18
-30.38
-22.69
-14.32
-7.62
-5.44
-8.74
-15.41
-21.28
-23.07
-20.70
-17.36
-17.10
-21.73
-29.15
-34.63
-33.95
-26.26
-14.73
-4.47
0.59
-0.24
-4.66
-9.25
-11.54
-10.94
-8.21
-4.63
-1.10
1.91
4.19
5.79
7.08
8.70
11.20
14.58
17.93
19.85
19.20
16.14
12.09
8.87
7.29
6.51
4.71
0.50
-5.63
-11.36
-14.08
-12.92
-9.88
-8.94
-13.59
-24.21
-37.19
-46.43
-46.69
-36.96
-21.56
-8.24
-3.83
-10.07
-22.07
-30.81
-28.49
-13.63
7.40
23.90
27.42
17.27
1.10
-10.13
-9.68
0.18
9.49
7.40
-10.15
-37.42
-62.32
-74.26
-70.78
-58.56
-48.31
-47.24
-54.15
-60.35
-55.82
-35.94
-4.72
27.60
50.77
60.47
60.18
58.01
60.87
69.76
79.45
82.32
73.75
55.23
33.24
14.97
4.07
-0.60
-2.95
-6.11
-10.40
-13.57
-13.15
-8.29
-0.18
9.02
17.53
24.42
29.39
32.46
34.13
35.61
38.56
44.10
51.67
58.99
63.23
62.90
58.61
52.51
46.59
41.27
35.52
28.09
18.79
8.80
-0.01
-6.14
-9.04
-9.09
-7.25
-4.59
-2.19
-0.68
-0.01
0.67
2.53
6.24
11.31
16.14
18.94
18.69
15.79
11.41
6.59
1.57
-4.01
-10.14
-16.01
-20.14
-21.43
-20.07
-17.70
-16.59
-18.23
-22.33
-26.87
-29.15
-27.27
-21.20
-12.64
-3.91
3.52
9.96
17.17
27.04
40.03
54.50
67.25
75.07
76.35
71.69
63.43
54.21
45.79
38.54
31.99
25.71
19.84
15.25
12.87
13.13
15.43
18.19
19.39
17.53
12.38
5.16
-2.16
-8.21
-12.96
-17.71
-23.55
-30.08
-35.05
-35.68
-30.69
-21.60
-12.26
-6.63
-6.64
-11.29
-17.77
-23.42
-27.10
-29.20
-30.37
-30.61
-29.22
-25.78
-20.98
-16.42
-13.45
-11.98
-10.27
-5.99
2.00
12.61
22.82
29.16
29.51
24.23
16.07
8.93
5.95
7.97
13.37
19.18
23.06
24.55
24.96
26.00
28.35
31.31
33.80
35.81
38.73
44.09
51.47
57.54
57.36
47.68
29.68
9.11
-6.64
-12.79
-9.85
-2.92
1.74
0.46
-6.10
-14.10
-19.52
-20.74
-19.34
-18.73
-21.87
-29.40
-39.15
-47.19
-49.69
-44.93
-34.32
-22.14
-13.76
-13.03
-20.40
-32.41
-43.19
-47.27
-42.14
-29.34
-13.52
0.01
7.90
10.15
9.52
9.58
12.42
17.36
21.54
21.99
17.95
11.74
7.36
7.83
12.81
18.53
20.13
15.11
5.43
-3.40
-5.78
0.19
11.19
20.67
22.92
16.44
4.52
-7.28
-14.73
-16.98
-16.03
-14.41
-13.17
-11.65
-8.88
-5.22
-2.62
-3.41
-8.44
-16.39
-24.70
-31.24
-35.43
-37.97
-39.63
-40.37
-39.65
-37.24
-33.76
-30.22
-26.98
-23.15
-17.26
-8.56
2.09
12.58
20.83
25.94
28.34
28.91
27.94
25.11
20.08
13.36
6.42
0.93
-2.19
-3.00
-1.99
0.52
4.43
9.29
13.75
15.97
14.60
9.91
3.69
-1.77
-5.05
-6.09
-5.70
-4.55
-2.68
0.08
3.45
6.27
7.15
5.16
0.40
-6.33
-14.07
-21.88
-28.65
-32.68
-32.16
-26.22
-16.17
-5.59
1.28
1.78
-3.47
-10.91
-15.88
-15.26
-8.77
1.42
12.29
21.51
27.92
31.25
31.57
29.23
25.14
20.82
17.90
17.07
17.48
17.08
14.09
8.31
1.66
-2.97
-3.55
-0.22
4.72
8.50
9.54
8.46
7.18
7.29
8.82
10.44
10.74
9.40
7.39
5.75
4.53
2.61
-1.14
-6.47
-11.52
-14.12
-13.73
-12.30
-13.11
-18.21
-26.45
-33.79
-35.85
-30.99
-21.51
-12.24
-7.25
-7.49
-10.63
-13.28
-13.53
-11.87
-10.22
-9.76
-9.83
-8.35
-3.69
3.97
12.63
19.71
23.59
24.25
22.79
20.37
17.52
14.08
9.68
4.21
-1.95
-7.95
-12.58
-14.48
-12.67
-7.22
0.32
7.31
11.08
10.22
5.19
-2.21
-10.05
-17.26
-23.80
-29.89
-35.28
-39.10
-40.55
-39.77
-38.05
-37.19
-38.46
-41.94
-46.73
-51.55
-55.33
-57.48
-57.53
-55.12
-50.13
-43.12
-35.36
-28.61
-24.31
-22.77
-23.02
-23.06
-20.80
-14.86
-5.10
7.39
20.59
32.20
40.22
43.38
41.56
35.78
28.13
21.17
17.22
17.51
21.76
28.67
36.71
45.38
55.26
67.22
81.13
95.00
105.58
110.04
107.71
100.39
91.44
83.58
77.59
72.60
67.64
63.05
60.31
60.40
61.90
60.96
53.24
37.20
15.98
-3.50
-14.13
-12.78
-2.29
9.74
14.86
7.76
-11.37
-37.40
-63.03
-82.01
-91.39
-91.93
-86.92
-79.92
-73.04
-66.17
-57.87
-46.98
-33.93
-20.93
-10.63
-4.37
-1.13
1.81
6.97
14.95
23.91
30.83
33.53
32.01
28.28
25.03
24.05
25.62
28.79
32.14
34.52
35.07
33.21
28.63
21.60
13.33
5.75
0.72
-0.99
-0.25
0.85
0.39
-2.22
-5.86
-8.67
-9.49
-8.96
-9.34
-12.90
-20.10
-28.86
-35.56
-37.30
-33.93
-28.16
-23.66
-22.29
-22.58
-20.65
-13.01
0.73
17.14
30.90
37.99
37.85
33.18
27.61
23.28
19.78
15.20
8.20
-0.71
-9.42
-15.34
-16.82
-13.59
-6.66
2.19
10.75
16.85
18.98
16.90
11.91
6.18
1.62
-1.09
-2.65
-4.28
-6.83
-10.33
-14.58
-19.53
-25.40
-32.06
-38.41
-42.76
-43.88
-42.10
-39.42
-38.27
-39.77
-43.19
-46.79
-49.33
-51.04
-52.96
-55.48
-57.37
-56.33
-50.64
-41.14
-31.55
-26.42
-28.25
-35.85
-45.23
-51.97
-53.82
-51.11
-46.41
-42.67
-42.06
-45.71
-54.15
-67.36
-84.14
-101.43
-114.07
-117.13
-108.15
-88.10
-60.46
-28.81
5.17
41.19
74.90
100.29
112.59
110.15
94.55
69.78
41.36
14.56
-7.39
-23.86
-34.37
-40.57
-43.71
-43.81
-40.45
-32.60
-19.58
-1.14
22.39
51.21
86.44
125.49
166.79
208.09
246.07
276.32
294.28
296.76
283.60
257.60
223.43
186.27
149.60
114.77
81.63
49.96
20.43
-5.47
-26.98
-45.39
-63.66
-85.23
-111.36
-139.46
-163.52
-176.84
-175.51
-160.71
-138.25
-115.48
-98.21
-88.55
-85.13
-84.92
-85.15
-84.37
-82.15
-78.27
-72.13
-63.07
-50.84
-35.94
-19.74
-3.92
10.04
21.19
29.18
34.37
37.74
40.72
44.77
50.44
57.21
63.51
67.63
68.40
65.97
61.70
57.72
55.72
55.68
55.96
54.33
49.32
40.90
30.51
20.57
13.62
11.60
14.14
19.36
25.23
30.93
36.69
43.28
51.42
61.46
73.50
85.43
94.74
100.29
103.24
105.94
110.09
115.92
121.92
125.74
122.07
105.36
72.31
23.70
-36.71
-103.93
-172.80
-238.87
-286.56
-301.04
-278.32
-229.53
-171.30
-115.72
-68.19
-29.75
-2.62
17.26
30.40
35.48
31.20
18.00
-3.06
-32.06
-67.87
-110.34
-157.62
-207.63
-256.15
-296.53
-320.38
-321.11
-297.11
-252.57
-196.21
-136.66
-81.39
-34.45
3.64
35.76
66.05
98.24
135.10
173.49
207.39
231.98
246.97
253.97
253.18
242.04
218.20
182.16
138.38
94.67
58.53
35.41
22.57
16.55
14.65
16.02
20.27
26.07
31.29
33.81
32.35
26.86
19.10
9.03
-2.88
-16.59
-31.01
-42.81
-47.54
-42.91
-31.16
-18.34
-11.70
-13.99
-21.76
-27.39
-24.28
-11.68
4.25
14.70
14.04
3.41
-9.55
-15.56
-9.20
8.26
29.85
46.97
53.98
49.59
35.77
16.89
-1.99
-15.78
-19.93
-11.64
9.08
39.41
73.62
104.17
125.77
137.28
141.09
141.22
139.91
133.53
121.42
106.24
91.03
80.08
78.04
86.39
103.43
123.91
141.35
150.41
147.77
128.84
92.08
41.13
-15.19
-65.99
-102.54
-121.44
-125.55
-123.62
-131.21
-160.43
-213.98
-284.67
-360.75
-432.32
-494.34
-545.98
-561.00
-524.26
-440.03
-329.90
-217.09
-115.96
-32.45
32.30
79.63
112.61
131.21
136.56
132.35
124.20
116.71
111.65
108.57
106.50
105.23
102.17
96.15
88.38
82.09
79.99
82.83
89.56
98.55
108.49
116.51
120.58
120.35
117.25
112.69
107.12
100.19
91.38
80.50
66.77
50.70
33.17
15.85
0.43
-12.02
-21.16
-27.15
-30.44
-32.00
-32.61
-32.88
-32.91
-32.61
-31.93
-30.94
-29.74
-28.45
-27.21
-26.04
-25.01
-24.05
-23.03
-21.88
-20.58
-19.27
-18.11
-17.39
-17.25
-17.67
-18.39
-18.98
-19.13
-18.77
-18.19
-17.87
-18.43
-20.15
-22.90
-26.14
-28.99
-30.89
-31.78
-32.52
-33.73
-36.29
-40.61
-46.37
-52.75
-58.56
-63.15
-66.83
-70.51
-75.05
-81.15
-88.53
-96.30
-104.12
-111.14
-116.84
-119.64
-116.39
-103.22
-78.07
-42.95
-3.90
29.19
48.92
53.09
45.31
32.30
19.86
10.27
3.02
-2.52
-4.72
0.69
17.29
44.81
77.89
107.99
127.49
133.31
127.54
115.56
103.48
94.67
89.32
85.63
81.61
76.47
70.76
65.60
61.71
59.31
57.81
56.24
53.85
50.43
46.26
42.00
38.51
35.55
32.81
29.69
25.70
20.62
14.62
8.26
2.27
-2.87
-7.27
-11.21
-15.23
-19.76
-24.99
-30.75
-36.55
-41.61
-45.42
-47.63
-47.98
-46.36
-42.79
-37.34
-30.15
-22.07
-13.17
-3.95
4.93
12.93
19.62
24.74
28.36
30.72
32.15
33.06
33.76
34.57
35.70
37.17
38.86
41.25
43.56
45.23
45.89
45.12
42.57
38.04
31.41
22.80
11.75
-0.72
-13.95
-27.22
-39.90
-51.29
-60.73
-67.68
-71.56
-72.22
-69.54
-63.74
-55.33
-45.12
-34.05
-23.23
-13.67
-6.16
-1.18
1.35
1.76
0.67
-1.20
-3.20
-4.91
-6.20
-7.09
-7.74
-8.30
-8.86
-9.45
-10.01
-10.38
-10.47
-10.13
-9.17
-7.27
-4.15
0.42
6.50
13.85
21.92
29.93
37.10
42.79
46.73
48.79
49.20
48.58
47.82
47.94
49.71
53.06
56.73
58.57
55.89
46.97
31.91
12.86
-6.61
-22.73
-32.64
-36.32
-33.80
-26.50
-16.45
-5.72
4.21
12.62
19.24
24.08
27.20
28.80
28.82
27.61
25.47
22.76
19.92
17.50
16.27
17.10
20.33
24.60
27.62
25.96
16.60
-1.68
-27.55
-57.41
-86.43
-110.20
-126.46
-134.21
-135.00
-131.68
-127.40
-124.60
-124.40
-126.39
-129.28
-132.43
-134.59
-136.02
-137.48
-139.78
-142.99
-146.13
-146.94
-139.70
-127.83
-109.98
-86.14
-56.85
-23.28
13.09
50.63
88.55
125.04
156.71
181.70
199.02
209.24
213.82
214.68
213.74
213.66
214.36
212.82
206.75
195.24
179.50
162.20
146.87
137.18
137.52
147.74
162.59
174.61
176.47
162.74
130.87
82.17
10.67
-71.65
-142.90
-188.07
-207.29
-208.92
-201.37
-190.09
-177.35
-165.59
-152.49
-138.71
-127.86
-124.34
-128.94
-138.99
-150.46
-158.98
-159.43
-147.44
-121.86
-85.85
-46.85
-10.58
19.78
42.55
58.40
68.77
76.19
83.35
91.34
97.81
102.53
106.72
111.30
117.66
126.15
127.50
117.05
109.70
109.55
112.47
117.02
122.47
129.57
137.60
144.52
148.13
145.29
129.96
99.94
55.49
-6.34
-76.94
-142.63
-192.67
-221.70
-227.95
-220.63
-199.72
-165.94
-124.33
-82.50
-50.22
-33.97
-37.70
-59.11
-91.61
-122.65
-140.88
-140.15
-119.78
-84.86
-42.20
1.88
43.00
77.45
104.75
124.36
135.05
136.15
121.36
90.46
50.75
14.19
-19.44
-52.00
-82.64
-106.98
-118.05
-109.06
-75.14
-17.06
58.11
138.22
210.93
265.00
291.82
287.24
252.20
193.59
121.29
44.94
-28.75
-95.16
-151.69
-195.89
-223.61
-229.58
-208.61
-159.01
-84.64
5.47
100.62
190.35
265.35
318.07
342.36
336.14
302.08
247.04
179.83
109.19
41.48
-20.70
-78.10
-134.80
-193.69
-254.58
-314.19
-367.08
-406.30
-424.85
-418.13
-386.34
-337.52
-282.83
-232.67
-193.61
-166.79
-148.35
-132.28
-114.88
-85.61
-48.96
-18.75
-4.13
-1.05
1.91
12.95
31.67
51.09
64.46
67.88
66.39
67.98
77.21
91.72
104.06
106.65
96.43
76.27
51.37
27.91
12.45
8.45
15.53
30.97
51.44
74.75
100.36
127.60
155.96
184.43
210.75
231.71
244.20
245.51
235.72
218.02
196.72
175.52
155.92
137.17
117.71
96.90
73.74
48.52
22.53
-3.73
-31.69
-64.27
-103.18
-146.27
-187.29
-221.00
-244.24
-257.26
-263.77
-269.26
-277.36
-286.54
-289.71
-264.78
-201.77
-112.13
-22.49
44.90
83.40
99.79
105.96
111.73
120.61
127.68
126.60
115.42
97.96
81.19
72.54
75.00
88.72
110.75
133.38
148.38
150.68
139.97
119.98
96.56
75.70
62.08
57.10
56.05
52.34
42.43
26.90
9.49
-5.24
-14.31
-17.19
-16.15
-17.47
-27.20
-48.22
-79.42
-117.30
-158.47
-200.95
-243.57
-274.26
-282.79
-266.10
-230.86
-187.57
-143.75
-102.36
-64.11
-29.16
1.50
24.74
38.05
41.57
38.76
34.84
33.99
37.14
43.61
50.45
52.91
47.17
31.86
8.39
-20.21
-48.51
-71.94
-85.62
-85.50
-70.67
-44.00
-11.45
20.09
45.08
60.95
68.13
69.15
66.46
61.08
52.95
42.33
31.03
22.45
19.26
22.74
32.44
45.83
58.63
65.47
61.79
46.02
20.89
-6.56
-27.27
-33.82
-24.05
-2.18
23.11
42.86
51.88
50.13
41.45
30.67
20.78
12.08
3.23
-6.64
-17.64
-27.29
-32.70
-32.10
-25.67
-15.54
-4.68
4.31
10.13
12.89
13.92
14.73
16.36
19.14
22.84
27.06
31.55
36.34
41.47
46.82
51.59
54.48
54.16
49.83
41.74
31.27
20.33
10.45
2.04
-5.81
-14.65
-25.57
-38.35
-51.34
-62.08
-68.48
-69.76
-66.50
-60.03
-51.28
-40.28
-26.83
-11.05
6.19
23.35
38.85
51.73
61.97
70.12
76.72
81.22
83.03
82.75
82.52
85.12
92.37
104.00
117.70
130.06
136.46
133.61
121.18
101.94
80.45
61.61
49.74
47.75
56.49
72.16
88.50
99.79
102.66
95.76
78.76
51.96
16.46
-25.72
-74.18
-128.31
-185.74
-242.84
-296.85
-347.39
-395.60
-442.35
-467.03
-452.61
-397.44
-317.41
-233.11
-157.63
-95.04
-44.48
-4.02
24.50
40.54
43.26
35.74
25.84
22.42
30.43
48.35
70.74
86.93
87.94
73.61
53.49
40.59
43.11
60.26
84.01
104.80
117.51
120.26
114.09
102.01
87.52
73.76
63.31
58.16
59.45
66.25
74.86
78.74
71.50
49.75
15.91
-21.00
-47.92
-53.07
-31.99
9.25
55.82
90.62
101.81
87.89
57.66
25.32
3.43
-2.79
3.19
12.11
14.45
5.38
-13.12
-33.77
-48.10
-50.71
-41.77
-26.58
-12.93
-7.75
-14.18
-30.28
-50.04
-66.01
-72.87
-70.14
-62.63
-58.39
-64.84
-85.16
-116.60
-151.67
-181.57
-199.84
-204.31
-196.43
-178.80
-153.01
-119.23
-77.75
-31.20
14.41
50.93
71.34
73.10
59.75
39.74
23.03
16.99
23.70
39.72
58.29
72.95
80.56
82.65
84.26
90.97
105.52
125.98
146.27
159.01
159.14
146.15
124.04
98.90
75.78
56.65
40.42
24.90
9.19
-5.19
-14.95
-17.17
-11.45
-0.94
8.79
12.15
6.09
-8.57
-27.60
-45.42
-57.63
-62.79
-62.52
-60.18
-59.01
-60.64
-64.72
-69.45
-72.79
-73.24
-70.35
-64.65
-57.27
-49.56
-42.63
-36.98
-32.39
-28.08
-23.11
-16.78
-8.80
0.74
11.59
23.47
36.02
48.59
60.10
69.30
75.32
78.03
78.27
77.38
76.45
75.68
74.25
70.78
64.12
54.06
41.49
28.15
15.94
6.43
0.64
-1.09
1.07
6.31
13.10
19.27
22.48
21.11
15.02
5.79
-3.84
-10.98
-13.79
-12.11
-7.25
-1.29
3.89
7.17
8.37
7.81
5.99
3.27
-0.05
-3.58
-6.77
-9.16
-10.69
-11.97
-14.17
-18.37
-24.99
-33.37
-41.95
-48.92
-53.06
-54.10
-52.72
-50.06
-47.19
-44.88
-43.56
-43.57
-45.17
-48.51
-53.41
-59.26
-65.15
-70.17
-73.67
-75.46
-75.71
-74.82
-73.24
-71.38
-69.57
-67.93
-66.08
-62.95
-56.95
-46.54
-31.22
-12.15
7.84
25.26
37.48
43.95
46.35
47.58
50.33
55.99
64.64
75.60
87.87
100.04
109.64
113.17
107.24
90.50
65.19
36.70
11.47
-6.14
-15.66
-20.25
-24.36
-30.85
-39.58
-48.16
-54.20
-57.33
-59.81
-65.17
-76.03
-92.19
-109.99
-123.39
-126.00
-113.34
-84.61
-43.31
3.74
48.51
84.44
108.43
121.34
126.77
128.97
130.80
132.85
134.13
133.49
130.94
127.83
126.08
126.87
129.87
133.25
134.76
132.93
127.78
120.65
113.38
107.29
102.54
98.15
92.53
84.39
73.37
60.30
46.82
34.65
24.89
17.51
11.50
5.39
-1.97
-10.85
-20.47
-29.43
-36.32
-40.40
-41.88
-41.66
-40.87
-40.29
-40.07
-39.85
-39.05
-37.38
-34.95
-32.23
-29.74
-27.69
-25.86
-23.79
-21.04
-17.47
-13.35
-9.29
-5.97
-3.95
-3.54
-4.75
-7.36
-10.91
-14.73
-18.01
-19.99
-20.17
-18.57
-15.74
-12.63
-10.19
-9.05
-9.26
-10.39
-11.75
-12.73
-13.05
-12.74
-11.97
-10.86
-9.43
-7.64
-5.54
-3.45
-1.84
-1.24
-1.84
-3.34
-5.00
-5.85
-5.18
-2.84
0.68
4.44
7.51
9.30
9.71
9.00
7.54
5.66
3.52
1.27
-0.89
-2.67
-3.72
-3.86
-3.14
-1.82
-0.32
0.97
1.76
1.84
1.10
-0.46
-2.69
-5.25
-7.67
-9.42
-10.11
-9.62
-8.20
-6.35
-4.67
-3.66
-3.57
-4.40
-5.93
-7.86
-9.93
-11.93
-13.76
-15.30
-16.43
-17.03
-16.98
-16.21
-14.79
-12.89
-10.81
-8.90
-7.44
-6.57
-6.24
-6.29
-6.46
-6.52
-6.25
-5.42
-3.91
-1.63
1.28
4.43
7.29
9.31
10.24
10.23
9.83
9.73
10.38
11.74
13.34
14.46
14.54
13.47
11.55
9.26
6.94
4.59
1.94
-1.37
-5.38
-9.77
-13.81
-16.72
-17.98
-17.69
-16.57
-15.74
-16.25
-18.65
-22.81
-28.01
-33.36
-38.07
-41.63
-43.68
-43.82
-41.62
-36.82
-29.73
-21.28
-12.91
-6.00
-1.30
1.30
2.56
3.34
4.12
4.86
5.19
4.92
4.23
3.67
3.78
4.65
5.78
6.36
5.67
3.65
1.00
-1.07
-1.58
-0.35
1.80
3.47
3.48
1.56
-1.32
-3.29
-2.39
2.50
11.10
21.74
32.04
39.86
44.20
45.58
45.74
46.77
50.15
55.98
62.99
69.14
72.62
72.71
70.12
66.43
63.22
61.15
59.56
56.66
50.19
38.15
19.48
-5.69
-35.99
-69.03
-101.76
-130.79
-152.98
-165.83
-167.97
-159.54
-142.40
-119.87
-96.33
-76.19
-62.81
-57.60
-59.41
-65.05
-70.31
-71.55
-66.91
-56.79
-43.28
-29.08
-16.38
-6.06
2.19
9.43
16.72
24.63
33.05
41.37
48.72
54.18
57.15
57.38
55.08
50.95
45.87
40.71
36.07
32.14
28.71
25.40
21.84
17.92
13.89
10.27
7.64
6.38
6.44
7.32
8.34
8.92
8.89
8.53
8.39
8.86
9.85
10.84
11.12
10.21
8.19
5.69
3.60
2.64
3.19
5.12
7.94
10.92
13.24
14.10
12.82
9.12
3.30
-3.69
-10.40
-15.42
-17.87
-17.73
-15.73
-12.95
-10.19
-7.75
-5.38
-2.67
0.44
3.56
5.98
7.13
6.95
6.02
5.20
5.14
5.92
7.09
8.03
8.31
7.91
7.11
6.26
5.60
5.27
5.35
5.90
6.84
7.80
8.12
7.15
4.64
1.00
-2.82
-5.75
-7.09
-6.84
-5.56
-4.02
-2.83
-2.26
-2.24
-2.51
-2.77
-2.85
-2.69
-2.45
-2.41
-2.89
-4.12
-6.14
-8.83
-11.97
-15.36
-18.80
-22.02
-24.63
-26.20
-26.42
-25.26
-23.05
-20.27
-17.31
-14.33
-11.25
-7.98
-4.59
-1.50
0.78
1.77
1.28
-0.47
-2.90
-5.25
-6.71
-6.73
-5.20
-2.50
0.54
2.94
4.01
3.61
2.18
0.53
-0.70
-1.38
-1.95
-3.10
-5.30
-8.36
-11.47
-13.59
-14.00
-12.76
-10.69
-8.99
-8.59
-9.71
-11.78
-13.84
-15.07
-15.24
-14.70
-13.97
-13.26
-12.24
-10.21
-6.60
-1.52
4.10
8.90
11.79
12.46
11.59
10.51
10.51
12.32
15.78
20.06
24.07
26.92
28.19
27.93
26.45
24.19
21.63
19.36
18.03
18.15
19.74
22.11
24.01
24.12
21.74
17.24
11.93
7.46
5.06
5.13
7.28
10.73
14.65
18.15
20.29
20.07
16.90
11.16
4.36
-1.24
-3.76
-2.72
0.61
4.03
5.60
4.87
3.03
2.06
3.40
6.88
10.60
11.82
8.24
-0.89
-14.55
-30.34
-45.52
-57.82
-65.90
-69.40
-68.55
-63.94
-56.25
-46.34
-35.23
-24.17
-14.44
-7.09
-2.72
-1.28
-2.10
-4.07
-5.93
-6.64
-5.65
-3.01
0.66
4.47
7.61
9.56
10.30
10.23
9.97
10.18
11.34
13.56
16.48
19.41
21.56
22.36
21.72
20.02
17.93
16.10
14.97
14.64
14.95
15.51
15.83
15.38
13.84
11.25
8.10
5.14
3.00
1.85
1.29
0.57
-0.97
-3.53
-6.72
-9.84
-12.12
-13.09
-12.66
-11.20
-9.36
-7.86
-7.23
-7.60
-8.55
-9.29
-9.04
-7.39
-4.61
-1.48
1.08
2.54
3.01
3.08
3.43
4.35
5.61
6.64
6.95
6.48
5.63
5.07
5.22
6.10
7.23
7.98
7.84
6.73
4.93
2.86
0.87
-0.98
-2.84
-4.92
-7.28
-9.70
-11.80
-13.16
-13.62
-13.42
-13.03
-12.98
-13.49
-14.39
-15.23
-15.63
-15.53
-15.25
-15.19
-15.42
-15.55
-14.82
-12.62
-8.89
-4.32
0.02
3.23
5.02
5.81
6.39
7.35
8.76
10.16
10.92
10.64
9.39
7.71
6.27
5.68
6.14
7.51
9.34
11.07
12.25
12.66
12.33
11.48
10.46
9.58
9.00
8.70
8.49
8.06
7.10
5.49
3.35
1.01
-1.08
-2.55
-3.26
-3.35
-3.19
-3.20
-3.73
-4.96
-6.86
-9.25
-11.83
-14.25
-16.15
-17.18
-17.11
-15.86
-13.52
-10.40
-6.91
-3.50
-0.50
1.92
3.71
4.92
5.63
5.90
5.82
5.53
5.20
5.03
5.06
5.23
5.38
5.38
5.24
5.15
5.39
6.18
7.50
9.00
10.07
10.13
8.92
6.73
4.28
2.41
1.57
1.65
2.06
2.15
1.64
0.71
-0.24
-1.01
-1.75
-2.88
-4.62
-6.75
-8.54
-9.17
-8.18
-5.73
-2.52
0.62
3.09
4.71
5.72
6.43
7.10
7.75
8.26
8.42
8.09
7.28
6.18
5.15
4.56
4.65
5.39
6.42
7.27
7.58
7.30
6.70
6.19
6.07
6.33
6.68
6.72
6.14
4.91
3.21
1.30
-0.69
-2.72
-4.78
-6.72
-8.22
-8.94
-8.80
-8.07
-7.39
-7.45
-8.64
-10.78
-13.15
-14.82
-15.03
-13.54
-10.59
-6.81
-2.96
0.33
2.71
4.06
4.54
4.41
4.00
3.54
3.08
2.35
1.01
-1.03
-3.43
-5.43
-6.26
-5.55
-3.53
-1.20
-0.01
-1.07
-4.44
-9.00
-13.07
-15.29
-15.29
-13.52
-11.29
-10.41
-12.19
-16.57
-22.17
-27.01
-29.47
-28.99
-25.65
-20.65
-16.20
-14.78
-18.01
-26.19
-38.21
-51.46
-61.83
-63.45
-51.20
-23.48
16.46
61.52
102.93
133.36
149.38
147.27
128.87
101.95
75.26
52.45
32.02
11.52
-8.67
-25.25
-34.42
-33.69
-24.04
-9.66
3.63
13.36
19.48
23.66
27.65
32.03
36.61
40.29
41.51
39.21
33.87
27.06
20.80
16.82
15.87
17.86
21.72
25.62
27.63
26.82
23.32
18.25
13.06
8.82
6.09
4.62
3.64
2.38
0.63
-1.27
-2.76
-3.50
-3.69
-3.81
-4.41
-5.75
-7.73
-9.96
-12.11
-14.09
-15.95
-17.76
-19.38
-20.56
-21.21
-21.55
-22.09
-23.28
-25.15
-27.09
-28.25
-28.02
-26.49
-24.53
-23.30
-23.74
-26.04
-29.71
-33.80
-37.38
-39.76
-40.57
-39.73
-37.42
-34.10
-30.47
-27.27
-24.98
-23.56
-22.46
-20.95
-18.68
-15.99
-13.70
-12.56
-12.57
-12.65
-11.20
-6.96
0.01
8.04
14.43
16.46
12.34
1.65
-14.92
-36.01
-59.79
-83.81
-104.85
-119.35
-124.50
-119.54
-106.38
-89.02
-71.75
-57.19
-45.26
-33.67
-19.73
-2.17
17.85
37.36
53.15
63.31
67.92
68.46
66.59
63.02
57.34
48.75
37.21
24.29
13.12
7.19
8.83
17.84
31.25
44.39
52.77
53.95
48.56
39.83
32.13
29.00
31.73
38.97
47.49
53.60
54.73
50.39
42.21
33.12
26.14
23.18
24.48
28.83
34.29
39.11
42.38
44.10
44.92
45.63
46.77
48.46
50.47
52.35
53.80
54.79
55.62
56.69
58.19
59.90
61.26
61.88
61.95
62.49
64.94
70.32
78.60
88.38
97.42
103.51
105.22
102.17
94.80
83.86
69.97
53.63
35.27
15.49
-4.82
-24.49
-42.20
-56.74
-67.33
-74.05
-77.99
-81.05
-85.34
-92.26
-101.85
-112.74
-122.73
-129.92
-133.46
-133.73
-131.69
-128.12
-123.01
-115.79
-106.04
-94.14
-81.34
-69.13
-58.25
-48.09
-36.92
-22.89
-5.21
15.18
35.88
54.07
67.66
75.91
79.45
79.58
77.61
74.42
70.43
65.78
60.62
55.14
49.56
43.99
38.26
32.07
25.07
17.20
8.85
0.81
-5.94
-10.69
-13.41
-14.85
-16.35
-19.29
-24.59
-32.34
-41.78
-51.61
-60.52
-67.60
-72.68
-76.31
-79.48
-83.14
-87.64
-92.47
-96.35
-97.71
-95.29
-88.69
-78.53
-66.26
-53.74
-42.73
-34.55
-29.87
-28.65
-30.09
-32.64
-34.32
-33.26
-28.65
-21.38
-14.12
-10.56
-13.83
-25.08
-42.63
-62.54
-80.05
-91.39
-94.95
-91.39
-82.70
-71.08
-58.16
-45.00
-32.60
-22.44
-16.47
-16.41
-22.76
-34.12
-47.42
-59.01
-66.24
-68.61
-67.77
-66.61
-67.61
-71.82
-78.53
-85.96
-92.41
-96.93
-99.35
-99.72
-97.79
-92.95
-84.69
-73.28
-60.01
-46.78
-35.28
-26.11
-18.57
-11.04
-1.91
9.58
23.18
37.90
52.69
66.90
80.25
92.47
103.05
111.24
116.60
119.39
120.72
122.06
124.42
127.91
131.81
135.26
137.75
139.33
140.08
139.50
136.36
129.18
117.17
100.91
82.35
63.86
47.06
32.01
17.43
1.75
-15.62
-33.60
-49.70
-61.14
-66.14
-64.66
-58.36
-49.80
-41.42
-34.74
-30.14
-27.18
-25.11
-23.30
-21.44
-19.43
-17.31
-15.09
-12.76
-10.25
-7.50
-4.53
-1.43
1.59
4.30
6.62
8.68
10.90
13.80
17.69
22.50
27.66
32.39
35.94
37.99
38.78
38.96
39.36
40.54
42.63
45.24
47.66
49.18
49.33
48.08
45.70
42.60
39.18
35.65
32.09
28.54
25.08
21.77
18.69
15.84
13.25
10.97
9.08
7.64
6.58
5.71
4.68
3.36
1.72
-0.14
-2.00
-3.71
-5.24
-6.77
-8.60
-10.96
-13.71
-16.38
-18.34
-18.93
-17.78
-14.86
-10.58
-5.63
-0.79
3.58
7.23
9.94
11.55
11.99
11.48
10.39
9.14
7.89
7.12
6.77
6.25
5.04
3.34
2.33
3.52
8.10
16.37
29.11
46.08
65.84
86.35
105.90
123.54
138.73
150.99
159.84
167.12
174.23
181.06
186.31
188.81
188.27
184.88
178.85
170.32
162.37
157.57
156.45
157.50
158.45
157.08
151.22
138.89
102.28
35.95
-50.25
-136.79
-207.80
-257.38
-286.53
-298.35
-295.80
-281.85
-258.57
-228.35
-196.09
-167.87
-147.60
-135.32
-128.11
-122.23
-114.90
-102.76
-86.56
-68.99
-53.76
-43.16
-36.83
-32.47
-27.39
-19.94
-8.75
5.66
21.00
34.13
42.73
46.12
44.86
40.08
32.91
25.01
17.66
11.59
6.89
3.52
1.45
0.53
0.37
0.28
-0.17
-1.31
-3.19
-5.67
-8.41
-11.02
-13.37
-15.59
-17.98
-20.71
-23.70
-26.59
-28.96
-30.54
-31.21
-31.02
-30.12
-28.68
-26.93
-25.08
-23.25
-21.38
-19.27
-16.65
-13.34
-9.41
-5.17
-1.09
2.38
4.99
6.70
7.67
8.13
8.32
8.40
8.48
8.64
8.92
9.38
10.08
11.05
12.20
13.35
14.16
14.37
13.82
12.63
11.10
9.58
8.30
7.26
6.24
4.97
3.31
1.41
-0.39
-1.76
-2.46
-2.56
-2.30
-2.00
-1.85
-1.91
-2.17
-2.61
-3.33
-4.44
-5.99
-7.89
-9.91
-11.71
-12.99
-13.55
-13.31
-12.32
-10.72
-8.70
-6.46
-4.16
-1.88
0.36
2.61
4.87
7.07
9.02
10.51
11.40
11.67
11.46
11.01
10.57
10.32
10.31
10.52
10.86
11.26
11.66
12.03
12.34
12.48
12.28
11.63
10.48
8.98
7.42
6.06
5.10
4.51
4.08
3.57
2.78
1.67
0.31
-1.18
-2.64
-3.99
-5.15
-6.08
-6.75
-7.22
-7.67
-8.32
-9.36
-10.87
-12.63
-14.25
-15.26
-15.25
-14.13
-12.07
-9.49
-6.78
-4.23
-1.82
0.56
3.00
5.36
7.31
8.48
8.64
7.91
6.69
5.51
4.78
4.61
4.86
5.25
5.56
5.72
5.79
5.88
6.05
6.25
6.37
6.30
5.98
5.41
4.58
3.52
2.25
0.87
-0.47
-1.59
-2.36
-2.79
-3.03
-3.32
-3.88
-4.87
-6.28
-7.98
-9.74
-11.26
-12.26
-12.47
-11.80
-10.28
-8.17
-5.78
-3.45
-1.33
0.56
2.28
3.85
5.20
6.14
6.57
6.47
6.02
5.46
4.97
4.61
4.31
3.95
3.52
3.16
3.05
3.36
4.09
5.05
5.89
6.29
6.06
5.18
3.76
2.03
0.19
-1.60
-3.23
-4.62
-5.72
-6.46
-6.88
-7.11
-7.37
-7.89
-8.84
-10.16
-11.57
-12.62
-12.83
-11.92
-9.90
-7.10
-4.03
-1.21
0.98
2.38
3.07
3.22
3.09
2.91
2.83
2.90
3.08
3.26
3.36
3.32
3.21
3.09
3.05
3.13
3.31
3.53
3.77
4.01
4.21
4.28
4.08
3.46
2.37
0.88
-0.77
-2.31
-3.58
-4.57
-5.40
-6.29
-7.40
-8.72
-10.12
-11.31
-12.03
-12.07
-11.38
-10.00
-8.09
-5.82
-3.38
-0.93
1.35
3.32
4.85
5.87
6.40
6.49
6.26
5.86
5.40
4.97
4.63
4.40
4.28
4.25
4.28
4.35
4.49
4.70
4.97
5.20
5.23
4.94
4.27
3.30
2.18
1.01
-0.21
-1.57
-3.15
-4.95
-6.84
-8.61
-10.08
-11.13
-11.72
-11.80
-11.24
-9.89
-7.72
-4.87
-1.68
1.38
3.92
5.69
6.70
7.09
7.07
6.84
6.54
6.26
6.01
5.77
5.48
5.11
4.69
4.31
4.08
4.02
4.09
4.20
4.21
4.03
3.64
3.06
2.32
1.45
0.46
-0.61
-1.68
-2.69
-3.61
-4.49
-5.45
-6.55
-7.81
-9.07
-10.10
-10.63
-10.45
-9.45
-7.69
-5.32
-2.56
0.28
2.97
5.25
7.01
8.20
8.87
9.10
8.96
8.51
7.79
6.92
6.04
5.35
4.95
4.85
4.90
4.94
4.83
4.57
4.23
3.93
3.64
3.27
2.62
1.56
0.10
-1.57
-3.17
-4.49
-5.46
-6.21
-6.97
-7.96
-9.27
-10.77
-12.20
-13.20
-13.52
-13.00
-11.68
-9.69
-7.17
-4.33
-1.32
1.66
4.37
6.58
8.08
8.77
8.66
7.92
6.81
5.61
4.56
3.79
3.33
3.17
3.22
3.41
3.67
3.90
4.01
3.92
3.58
3.00
2.22
1.33
0.43
-0.41
-1.18
-1.88
-2.61
-3.51
-4.68
-6.18
-7.91
-9.63
-11.02
-11.73
-11.51
-10.29
-8.19
-5.52
-2.67
0.01
2.26
3.97
5.18
5.96
6.37
6.45
6.19
5.66
4.99
4.37
4.00
3.95
4.17
4.50
4.78
4.90
4.85
4.68
4.42
4.07
3.56
2.81
1.77
0.48
-0.96
-2.40
-3.70
-4.80
-5.70
-6.49
-7.30
-8.22
-9.31
-10.48
-11.58
-12.40
-12.68
-12.22
-10.92
-8.78
-5.98
-2.79
0.42
3.29
5.57
7.14
8.05
8.45
8.54
8.47
8.32
8.11
7.89
7.72
7.71
7.97
8.50
9.25
10.05
10.72
11.14
11.26
11.11
10.78
10.35
9.88
9.35
8.73
7.95
6.98
5.92
4.90
4.05
3.46
3.07
2.68
2.08
1.11
-0.23
-1.81
-3.43
-4.93
-6.28
-7.56
-8.95
-10.58
-12.54
-14.84
-17.42
-20.13
-22.73
-24.82
-25.86
-25.38
-23.09
-19.08
-13.82
-8.04
-2.49
2.29
6.05
8.79
10.68
11.90
12.57
12.77
12.52
11.86
10.87
9.68
8.52
7.63
7.26
7.49
8.25
9.32
10.39
11.23
11.71
11.88
11.82
11.63
11.33
10.88
10.25
9.48
8.68
8.02
7.58
7.37
7.25
7.03
6.61
5.96
5.18
4.39
3.64
2.91
2.13
1.22
0.23
-0.78
-1.70
-2.48
-3.12
-3.67
-4.17
-4.68
-5.22
-5.80
-6.43
-7.08
-7.72
-8.31
-8.89
-9.52
-10.30
-11.31
-12.54
-13.90
-15.18
-16.14
-16.54
-16.16
-14.87
-12.67
-9.75
-6.49
-3.34
-0.67
1.35
2.77
3.80
4.64
5.42
6.16
6.82
7.39
7.89
8.38
8.84
9.22
9.43
9.51
9.56
9.77
10.21
10.83
11.37
11.56
11.22
10.38
9.26
8.16
7.32
6.82
6.59
6.48
6.34
6.12
5.84
5.53
5.21
4.83
4.33
3.66
2.84
1.93
1.07
0.34
-0.20
-0.59
-0.91
-1.25
-1.68
-2.25
-2.98
-3.87
-4.90
-5.97
-6.94
-7.68
-8.19
-8.58
-9.10
-9.98
-11.28
-12.85
-14.36
-15.38
-15.60
-14.89
-13.31
-11.02
-8.26
-5.24
-2.24
0.47
2.63
4.06
4.78
4.98
4.94
4.93
5.07
5.33
5.62
5.82
5.95
6.08
6.30
6.65
7.03
7.34
7.43
7.27
6.89
6.37
5.84
5.34
4.88
4.43
3.95
3.43
2.90
2.43
2.07
1.82
1.60
1.30
0.88
0.38
-0.11
-0.48
-0.68
-0.82
-1.06
-1.55
-2.31
-3.21
-4.09
-4.86
-5.55
-6.26
-7.09
-8.02
-8.92
-9.63
-10.09
-10.36
-10.61
-10.93
-11.30
-11.53
-11.32
-10.45
-8.88
-6.76
-4.39
-2.10
-0.12
1.44
2.60
3.45
4.06
4.47
4.65
4.57
4.23
3.73
3.22
2.84
2.68
2.72
2.88
3.13
3.46
3.89
4.40
4.89
5.18
5.14
4.74
4.11
3.46
2.94
2.58
2.30
1.97
1.55
1.07
0.62
0.24
-0.12
-0.57
-1.14
-1.82
-2.48
-3.02
-3.43
-3.84
-4.41
-5.24
-6.29
-7.43
-8.48
-9.38
-10.13
-10.75
-11.19
-11.31
-10.89
-9.82
-8.07
-5.82
-3.31
-0.83
1.41
3.25
4.57
5.31
5.45
5.08
4.35
3.49
2.69
2.02
1.50
1.10
0.81
0.68
0.78
1.11
1.62
2.12
2.46
2.56
2.46
2.26
2.04
1.81
1.53
1.12
0.61
0.07
-0.42
-0.87
-1.32
-1.85
-2.48
-3.10
-3.60
-3.93
-4.15
-4.45
-4.98
-5.76
-6.70
-7.62
-8.36
-8.86
-9.10
-9.03
-8.50
-7.37
-5.58
-3.27
-0.75
1.58
3.41
4.58
5.15
5.27
5.11
4.78
4.30
3.67
2.91
2.10
1.42
1.04
1.07
1.50
2.19
2.91
3.44
3.66
3.56
3.22
2.68
1.97
1.06
-0.05
-1.28
-2.50
-3.55
-4.38
-5.00
-5.50
-6.02
-6.62
-7.33
-8.12
-8.92
-9.69
-10.37
-10.94
-11.37
-11.58
-11.46
-10.88
-9.69
-7.85
-5.45
-2.74
-0.02
2.42
4.39
5.83
6.73
7.05
6.77
5.90
4.58
3.08
1.76
0.90
0.60
0.77
1.20
1.66
1.98
2.14
2.17
2.11
2.00
1.82
1.55
1.13
0.53
-0.30
-1.34
-2.52
-3.73
-4.87
-5.86
-6.72
-7.51
-8.32
-9.19
-10.08
-10.88
-11.44
-11.63
-11.33
-10.51
-9.18
-7.36
-5.17
-2.78
-0.43
1.62
3.19
4.20
4.79
5.16
5.53
5.96
6.34
6.45
6.17
5.50
4.67
3.93
3.50
3.42
3.59
3.86
4.10
4.30
4.42
4.39
4.06
3.26
1.87
-0.03
-2.22
-4.37
-6.18
-7.44
-8.15
-8.45
-8.60
-8.83
-9.27
-9.86
-10.35
-10.43
-9.81
-8.39
-6.31
-3.91
-1.52
0.58
2.29
3.63
4.67
5.39
5.73
5.64
5.12
4.32
3.45
2.71
2.20
1.95
1.89
1.91
1.93
1.95
1.98
2.07
2.21
2.35
2.33
2.03
1.36
0.38
-0.75
-1.83
-2.70
-3.35
-3.93
-4.61
-5.50
-6.58
-7.69
-8.55
-8.95
-8.70
-7.74
-6.12
-3.97
-1.50
1.06
3.49
5.64
7.49
9.02
10.26
11.21
11.86
12.29
12.65
13.14
13.93
15.06
16.44
17.97
19.63
21.50
23.72
26.36
29.29
32.30
35.16
37.84
40.48
43.24
46.02
48.22
48.85
46.77
41.25
32.33
20.86
8.24
-4.11
-15.12
-24.30
-31.58
-37.09
-40.88
-42.87
-42.89
-40.83
-36.79
-31.03
-23.99
-16.29
-8.70
-2.13
2.59
4.88
4.70
2.68
-0.02
-2.12
-2.74
-1.81
-0.12
1.04
0.51
-2.16
-6.47
-11.20
-15.07
-17.33
-18.13
-18.36
-19.27
-21.88
-26.53
-32.67
-38.91
-43.34
-43.97
-39.45
-29.63
-15.96
-1.21
11.29
18.73
19.93
15.66
8.32
0.88
-4.33
-6.33
-5.62
-3.58
-1.66
-0.74
-0.90
-1.72
-2.64
-3.34
-3.63
-3.25
-1.66
1.94
8.23
17.30
28.35
39.81
49.82
56.98
60.80
61.85
61.31
60.42
59.92
59.83
59.46
57.81
54.05
48.03
40.55
33.26
28.18
26.96
30.05
36.32
43.05
46.49
42.86
29.70
7.13
-21.66
-50.84
-73.66
-84.81
-82.47
-69.14
-50.63
-33.82
-23.97
-23.06
-29.70
-40.52
-51.96
-61.61
-68.56
-72.75
-74.15
-72.32
-66.64
-57.04
-44.52
-31.23
-19.64
-11.44
-6.71
-3.87
-0.77
4.06
10.38
16.48
20.15
20.08
16.49
10.96
5.35
0.70
-3.18
-7.26
-12.36
-18.39
-24.23
-28.45
-30.18
-29.76
-28.53
-27.96
-28.62
-29.67
-29.22
-25.46
-17.78
-7.46
2.80
10.09
12.78
11.36
8.23
6.61
8.88
15.50
24.72
33.41
38.50
38.31
33.13
24.96
16.56
10.26
7.23
7.27
8.93
9.65
5.97
-5.88
-28.69
-62.41
-102.90
-141.95
-169.40
-176.53
-159.48
-120.96
-69.26
-15.05
32.34
67.37
88.84
98.51
99.31
93.98
84.70
73.49
62.44
53.64
48.48
46.94
47.49
47.72
45.55
40.09
31.91
22.65
13.99
6.61
-0.48
-9.25
-21.21
-36.15
-52.00
-65.59
-73.92
-74.96
-68.51
-56.33
-40.70
-22.92
-2.77
20.50
46.52
73.17
97.57
116.47
127.03
128.70
124.34
119.63
120.51
129.94
146.59
165.85
180.28
181.15
162.00
121.33
63.28
-4.83
-76.19
-146.36
-212.53
-262.93
-284.69
-272.04
-231.60
-176.36
-117.27
-61.16
-16.76
17.08
40.08
49.59
43.04
20.56
-13.70
-49.17
-74.50
-79.82
-59.18
-14.82
42.70
98.40
138.62
155.85
149.92
125.37
88.85
47.25
5.06
-35.46
-72.91
-105.98
-133.18
-153.38
-166.69
-173.64
-174.34
-168.91
-157.58
-140.67
-118.69
-92.17
-62.06
-30.54
-0.91
23.24
38.81
44.37
40.92
31.55
20.32
10.91
5.44
4.28
6.63
11.28
17.30
24.22
31.72
39.09
45.05
47.71
45.21
36.47
21.64
1.80
-21.55
-47.01
-73.29
-98.59
-120.11
-134.32
-138.13
-130.43
-112.96
-89.91
-66.34
-46.18
-30.72
-18.36
-5.52
11.88
36.77
69.76
108.92
150.70
191.48
229.16
263.65
296.15
327.55
356.66
379.89
392.21
389.10
368.48
331.37
280.97
221.30
156.23
89.31
24.30
-34.51
-83.05
-119.05
-143.49
-160.81
-177.55
-199.57
-229.39
-265.02
-301.01
-331.15
-351.08
-359.48
-357.26
-346.11
-327.59
-303.50
-276.62
-250.86
-229.89
-215.12
-204.73
-194.58
-180.96
-163.26
-144.43
-128.78
-118.93
-113.84
-109.62
-102.40
-90.92
-76.92
-63.02
-49.96
-35.50
-15.92
10.79
42.59
73.98
99.01
115.17
125.16
135.32
151.43
174.73
200.78
221.88
231.48
227.79
214.32
197.20
181.20
167.41
153.62
136.99
116.77
95.22
76.21
62.46
53.76
47.35
40.09
31.09
22.75
19.59
25.76
42.76
68.60
98.59
127.35
150.69
166.54
174.81
176.61
173.42
166.55
157.09
145.95
133.78
120.82
106.75
90.95
72.96
52.94
31.80
11.05
-7.57
-22.51
-32.59
-37.22
-36.68
-32.30
-26.35
-21.56
-20.26
-23.30
-29.57
-36.17
-39.58
-37.04
-27.91
-14.20
-0.03
9.84
11.80
4.82
-9.14
-25.84
-40.46
-49.50
-52.03
-49.76
-45.90
-43.49
-43.92
-46.55
-49.48
-50.81
-49.75
-46.88
-43.45
-40.47
-38.13
-35.89
-33.13
-29.72
-26.16
-23.23
-21.37
-20.33
-19.28
-17.34
-14.13
-10.00
-5.82
-2.50
-0.49
0.44
1.02
2.14
4.46
8.17
13.08
18.72
24.54
29.86
33.98
36.19
35.99
33.39
29.03
24.08
19.84
17.22
16.37
16.69
17.12
16.71
15.00
12.13
8.71
5.43
2.77
0.84
-0.50
-1.46
-2.07
-2.12
-1.26
0.77
3.95
7.80
11.56
14.39
15.64
15.15
13.26
10.67
8.21
6.54
5.90
6.10
6.58
6.70
6.05
4.57
2.63
0.77
-0.47
-0.83
-0.35
0.69
1.90
2.90
3.43
3.37
2.67
1.37
-0.49
-2.79
-5.36
-8.00
-10.46
-12.48
-13.87
-14.49
-14.31
-13.36
-11.75
-9.64
-7.26
-4.87
-2.77
-1.17
-0.10
0.50
0.81
0.89
0.74
0.27
-0.53
-1.46
-2.13
-2.17
-1.36
0.13
1.82
3.12
3.58
3.11
1.96
0.60
-0.56
-1.29
-1.64
-1.85
-2.12
-2.60
-3.25
-3.92
-4.52
-5.01
-5.50
-6.08
-6.74
-7.26
-7.32
-6.66
-5.23
-3.32
-1.36
0.25
1.33
1.97
2.40
2.79
3.15
3.36
3.27
2.89
2.37
1.89
1.60
1.50
1.51
1.55
1.59
1.66
1.78
1.90
1.90
1.67
1.18
0.51
-0.21
-0.85
-1.40
-1.88
-2.39
-3.02
-3.79
-4.65
-5.51
-6.27
-6.81
-7.04
-6.86
-6.25
-5.21
-3.83
-2.27
-0.78
0.44
1.24
1.60
1.62
1.44
1.23
1.09
1.04
1.05
1.06
1.03
0.92
0.70
0.37
-0.08
-0.61
-1.15
-1.61
-1.96
-2.23
-2.50
-2.81
-3.17
-3.53
-3.84
-4.16
-4.59
-5.28
-6.26
-7.36
-8.27
-8.63
-8.25
-7.17
-5.63
-3.95
-2.38
-1.04
0.07
0.99
1.69
2.13
2.24
2.01
1.50
0.80
0.08
-0.55
-0.99
-1.21
-1.24
-1.15
-1.02
-0.90
-0.84
-0.93
-1.23
-1.82
-2.65
-3.56
-4.33
-4.79
-4.96
-5.04
-5.31
-5.91
-6.77
-7.59
-8.06
-8.00
-7.50
-6.75
-5.96
-5.16
-4.25
-3.13
-1.78
-0.38
0.84
1.70
2.13
2.16
1.89
1.39
0.75
0.06
-0.52
-0.85
-0.87
-0.63
-0.33
-0.20
-0.37
-0.80
-1.30
-1.76
-2.14
-2.54
-3.12
-3.92
-4.79
-5.49
-5.86
-5.90
-5.86
-6.04
-6.61
-7.47
-8.31
-8.72
-8.41
-7.36
-5.78
-3.99
-2.28
-0.83
0.29
1.08
1.61
1.89
1.98
1.91
1.72
1.51
1.31
1.16
1.05
0.97
0.94
0.94
0.98
1.02
1.00
0.83
0.43
-0.18
-0.94
-1.75
-2.52
-3.14
-3.59
-3.86
-4.00
-4.11
-4.35
-4.82
-5.52
-6.31
-6.95
-7.15
-6.73
-5.73
-4.33
-2.76
-1.24
0.17
1.44
2.52
3.34
3.77
3.73
3.25
2.53
1.81
1.26
0.90
0.62
0.28
-0.14
-0.49
-0.60
-0.35
0.16
0.65
0.82
0.48
-0.32
-1.31
-2.18
-2.76
-3.10
-3.41
-3.93
-4.79
-5.94
-7.16
-8.17
-8.75
-8.77
-8.24
-7.22
-5.77
-3.98
-1.94
0.17
2.09
3.51
4.17
3.99
3.12
1.87
0.61
-0.41
-1.14
-1.65
-2.02
-2.30
-2.44
-2.41
-2.22
-2.01
-1.96
-2.25
-2.95
-4.01
-5.28
-6.55
-7.65
-8.47
-9.02
-9.39
-9.72
-10.10
-10.55
-10.98
-11.19
-11.00
-10.28
-9.01
-7.29
-5.28
-3.13
-0.95
1.16
3.07
4.66
5.81
6.47
6.69
6.60
6.34
5.99
5.55
4.98
4.28
3.51
2.81
2.27
1.94
1.75
1.58
1.34
1.01
0.66
0.39
0.30
0.45
0.77
1.14
1.33
1.16
0.48
-0.69
-2.21
-3.82
-5.20
-6.08
-6.29
-5.81
-4.74
-3.32
-1.85
-0.60
0.28
0.75
0.91
0.91
0.84
0.70
0.42
-0.05
-0.63
-1.13
-1.31
-1.04
-0.33
0.56
1.31
1.65
1.54
1.15
0.75
0.53
0.45
0.28
-0.30
-1.47
-3.15
-5.03
-6.66
-7.71
-8.07
-7.83
-7.17
-6.22
-4.98
-3.42
-1.54
0.49
2.36
3.80
4.63
4.93
4.94
4.86
4.77
4.62
4.26
3.69
3.01
2.46
2.20
2.24
2.38
2.37
1.98
1.21
0.20
-0.82
-1.70
-2.41
-3.04
-3.72
-4.47
-5.26
-6.00
-6.58
-7.00
-7.26
-7.40
-7.37
-7.06
-6.28
-4.92
-3.01
-0.77
1.43
3.21
4.30
4.68
4.51
4.10
3.69
3.43
3.30
3.22
3.07
2.83
2.55
2.29
2.07
1.84
1.50
0.98
0.28
-0.45
-1.07
-1.46
-1.66
-1.82
-2.20
-2.94
-4.07
-5.41
-6.64
-7.47
-7.71
-7.33
-6.43
-5.17
-3.67
-2.00
-0.22
1.61
3.31
4.67
5.52
5.76
5.45
4.76
3.90
3.06
2.38
1.96
1.85
2.11
2.66
3.34
3.88
4.01
3.61
2.75
1.67
0.67
-0.11
-0.70
-1.28
-2.13
-3.38
-5.00
-6.77
-8.35
-9.45
-9.93
-9.77
-9.06
-7.92
-6.37
-4.44
-2.14
0.37
2.82
4.85
6.14
6.61
6.42
5.89
5.35
5.00
4.85
4.78
4.67
4.50
4.35
4.33
4.48
4.71
4.84
4.71
4.20
3.38
2.37
1.37
0.52
-0.09
-0.44
-0.59
-0.68
-0.81
-1.10
-1.59
-2.23
-2.95
-3.66
-4.35
-5.05
-5.76
-6.45
-6.96
-7.06
-6.57
-5.40
-3.65
-1.52
0.75
2.98
5.00
6.69
7.93
8.62
8.75
8.41
7.80
7.20
6.83
6.78
7.02
7.44
7.86
8.15
8.21
7.97
7.48
6.82
6.16
5.66
5.41
5.40
5.50
5.55
5.44
5.14
4.68
4.11
3.46
2.72
1.87
0.95
0.03
-0.81
-1.49
-1.95
-2.24
-2.43
-2.60
-2.89
-3.41
-4.26
-5.49
-7.01
-8.60
-9.93
-10.67
-10.55
-9.54
-7.78
-5.59
-3.27
-1.07
0.90
2.59
3.98
4.98
5.51
5.57
5.29
4.92
4.75
4.94
5.46
6.13
6.72
7.12
7.36
7.57
7.83
8.11
8.31
8.27
7.94
7.37
6.69
6.00
5.34
4.68
3.98
3.26
2.63
2.20
2.04
2.13
2.33
2.45
2.33
1.89
1.16
0.28
-0.60
-1.34
-1.92
-2.33
-2.70
-3.12
-3.68
-4.41
-5.31
-6.29
-7.23
-7.95
-8.24
-7.96
-7.05
-5.62
-3.89
-2.12
-0.52
0.79
1.81
2.58
3.15
3.51
3.68
3.71
3.73
3.89
4.31
4.94
5.65
6.22
6.53
6.59
6.53
6.51
6.57
6.65
6.58
6.22
5.55
4.70
3.89
3.29
2.94
2.75
2.53
2.16
1.57
0.82
0.06
-0.56
-0.97
-1.18
-1.30
-1.42
-1.60
-1.85
-2.09
-2.32
-2.58
-2.98
-3.63
-4.57
-5.66
-6.67
-7.30
-7.30
-6.64
-5.43
-3.91
-2.33
-0.85
0.51
1.78
2.98
4.06
4.92
5.39
5.42
5.05
4.44
3.79
3.29
3.01
2.96
3.09
3.34
3.73
4.22
4.76
5.20
5.39
5.19
4.62
3.84
3.07
2.51
2.17
1.97
1.69
1.21
0.50
-0.35
-1.21
-2.00
-2.68
-3.26
-3.71
-4.00
-4.09
-4.00
-3.88
-3.88
-4.19
-4.87
-5.83
-6.79
-7.45
-7.55
-6.97
-5.83
-4.37
-2.90
-1.67
-0.76
-0.07
0.57
1.30
2.13
2.94
3.50
3.65
3.33
2.64
1.86
1.31
1.23
1.69
2.51
3.34
3.81
3.74
3.20
2.49
1.93
1.68
1.66
1.59
1.16
0.28
-0.90
-2.05
-2.88
-3.27
-3.33
-3.32
-3.45
-3.78
-4.21
-4.57
-4.81
-5.02
-5.41
-6.10
-7.02
-7.84
-8.16
-7.67
-6.37
-4.59
-2.78
-1.25
-0.11
0.80
1.66
2.51
3.23
3.61
3.54
3.10
2.46
1.82
1.26
0.77
0.35
0.04
-0.07
0.10
0.51
0.97
1.26
1.24
0.92
0.45
0.01
-0.29
-0.42
-0.46
-0.51
-0.68
-1.00
-1.46
-2.04
-2.66
-3.30
-3.93
-4.51
-5.05
-5.53
-6.00
-6.49
-7.02
-7.57
-8.03
-8.24
-8.01
-7.27
-6.07
-4.62
-3.15
-1.92
-1.07
-0.61
-0.48
-0.55
-0.68
-0.78
-0.77
-0.63
-0.39
-0.07
0.31
0.77
1.31
1.89
2.38
2.63
2.52
2.03
1.27
0.38
-0.46
-1.15
-1.66
-2.02
-2.30
-2.59
-2.94
-3.31
-3.65
-3.90
-4.04
-4.10
-4.21
-4.49
-5.00
-5.68
-6.38
-6.87
-6.97
-6.60
-5.80
-4.70
-3.45
-2.16
-0.92
0.26
1.30
2.12
2.61
2.70
2.40
1.85
1.26
0.81
0.65
0.81
1.23
1.82
2.50
3.15
3.63
3.83
3.67
3.22
2.66
2.19
1.96
1.94
1.97
1.82
1.35
0.57
-0.29
-0.97
-1.23
-1.04
-0.50
0.12
0.56
0.70
0.60
0.52
0.82
1.83
3.65
6.10
8.77
11.22
13.19
14.80
16.45
18.58
21.43
24.80
28.11
30.75
32.31
32.78
32.44
31.80
31.50
32.45
35.68
42.00
51.31
62.06
71.19
75.02
70.66
57.42
37.35
14.54
-6.50
-22.52
-32.45
-37.15
-38.46
-38.03
-36.86
-35.48
-34.49
-34.71
-37.08
-41.96
-48.55
-54.98
-58.91
-58.56
-53.45
-44.58
-33.78
-22.87
-13.02
-4.56
2.68
8.85
13.80
17.13
18.50
17.95
16.00
13.54
11.46
10.37
10.45
11.47
12.98
14.54
15.92
17.01
17.79
18.12
17.79
16.56
14.33
11.31
7.95
4.74
2.02
-0.12
-1.76
-3.04
-3.93
-4.29
-3.86
-2.42
0.18
3.81
7.94
11.54
13.17
11.47
5.84
-3.06
-13.31
-22.22
-27.27
-27.04
-21.64
-12.62
-2.44
6.17
10.80
9.74
2.32
-10.70
-27.02
-43.09
-55.09
-60.26
-58.10
-50.52
-41.02
-32.98
-28.01
-25.41
-22.96
-18.70
-12.47
-6.37
-3.64
-6.60
-14.86
-24.86
-31.16
-28.70
-14.90
9.48
40.80
73.80
102.88
122.93
130.04
122.11
99.51
65.46
25.69
-12.94
-44.43
-65.38
-75.55
-77.14
-73.16
-65.91
-56.52
-45.31
-32.74
-20.05
-9.11
-1.83
0.60
-1.83
-8.03
-16.38
-25.39
-34.12
-42.33
-50.04
-57.14
-63.06
-66.80
-67.37
-64.34
-58.19
-50.41
-42.87
-37.04
-33.38
-31.25
-29.45
-26.94
-23.53
-19.88
-17.05
-15.87
-16.42
-18.07
-19.81
-20.70
-20.26
-18.52
-15.87
-12.88
-10.04
-7.60
-5.56
-3.68
-1.67
0.60
2.96
5.01
6.23
6.34
5.39
3.77
2.01
0.59
-0.25
-0.58
-0.65
-0.73
-1.05
-1.69
-2.67
-3.95
-5.54
-7.41
-9.49
-11.54
-13.16
-13.86
-13.29
-11.34
-8.26
-4.52
-0.70
2.73
5.54
7.75
9.48
10.87
12.00
12.86
13.41
13.71
13.85
14.00
14.31
14.86
15.61
16.41
17.08
17.42
17.36
16.89
16.09
15.06
13.91
12.71
11.51
10.33
9.14
7.95
6.75
5.54
4.36
3.23
2.23
1.41
0.74
0.12
-0.65
-1.81
-3.49
-5.60
-7.83
-9.66
-10.55
-10.16
-8.42
-5.61
-2.17
1.43
4.80
7.68
9.97
11.61
12.62
13.08
13.10
12.83
12.43
12.06
11.83
11.82
12.08
12.54
13.10
13.60
13.91
13.97
13.82
13.55
13.25
12.98
12.75
12.51
12.20
11.81
11.32
10.77
10.22
9.67
9.10
8.44
7.58
6.46
5.13
3.72
2.37
1.19
0.16
-0.83
-1.93
-3.24
-4.81
-6.57
-8.35
-9.90
-10.90
-11.00
-10.01
-7.94
-5.06
-1.80
1.41
4.25
6.63
8.57
10.15
11.39
12.26
12.77
12.99
13.08
13.19
13.40
13.68
13.95
14.13
14.25
14.35
14.49
14.65
14.74
14.63
14.20
13.44
12.41
11.27
10.17
9.25
8.54
8.04
7.66
7.32
6.95
6.51
5.96
5.24
4.29
3.09
1.67
0.11
-1.48
-2.97
-4.25
-5.22
-5.76
-5.75
-5.10
-3.79
-1.92
0.32
2.72
5.08
7.28
9.18
10.69
11.73
12.25
12.29
11.99
11.52
11.05
10.73
10.61
10.70
10.99
11.44
11.98
12.54
12.97
13.16
13.02
12.55
11.80
10.90
9.95
9.00
8.05
7.08
6.05
4.97
3.88
2.84
1.93
1.11
0.35
-0.46
-1.39
-2.50
-3.78
-5.21
-6.67
-8.02
-9.09
-9.73
-9.81
-9.24
-8.03
-6.21
-3.92
-1.36
1.23
3.62
5.59
7.05
8.01
8.57
8.83
8.87
8.72
8.39
7.91
7.40
7.02
6.95
7.29
7.97
8.79
9.44
9.68
9.40
8.69
7.78
6.93
6.30
5.88
5.55
5.14
4.53
3.72
2.77
1.79
0.85
-0.01
-0.78
-1.48
-2.13
-2.76
-3.44
-4.24
-5.23
-6.48
-7.94
-9.45
-10.71
-11.39
-11.20
-10.02
-8.04
-5.59
-3.09
-0.84
1.05
2.61
3.95
5.10
5.99
6.52
6.64
6.42
6.07
5.79
5.70
5.83
6.09
6.35
6.54
6.62
6.60
6.50
6.33
6.08
5.75
5.30
4.70
3.94
3.05
2.12
1.27
0.55
-0.02
-0.48
-0.91
-1.35
-1.76
-2.14
-2.47
-2.80
-3.27
-3.97
-4.98
-6.25
-7.63
-8.88
-9.74
-9.97
-9.45
-8.20
-6.39
-4.28
-2.19
-0.34
1.13
2.26
3.12
3.82
4.37
4.73
4.79
4.53
4.03
3.52
3.26
3.44
4.07
4.97
5.87
6.51
6.74
6.57
6.11
5.51
4.86
4.25
3.66
3.10
2.53
1.88
1.12
0.22
-0.77
-1.77
-2.65
-3.32
-3.76
-3.96
-4.01
-3.99
-4.01
-4.18
-4.54
-5.09
-5.80
-6.57
-7.25
-7.66
-7.60
-6.94
-5.60
-3.72
-1.52
0.64
2.42
3.64
4.24
4.34
4.13
3.84
3.63
3.58
3.73
4.03
4.39
4.73
4.95
5.05
5.06
5.00
4.89
4.73
4.48
4.13
3.69
3.22
2.74
2.24
1.66
0.95
0.11
-0.78
-1.64
-2.39
-2.99
-3.50
-3.98
-4.49
-5.07
-5.71
-6.39
-7.00
-7.43
-7.52
-7.12
-6.19
-4.80
-3.14
-1.47
-0.03
1.05
1.76
2.21
2.52
2.78
2.99
3.12
3.11
2.99
2.84
2.76
2.79
2.90
2.94
2.81
2.48
2.01
1.55
1.23
1.07
1.01
0.89
0.59
0.05
-0.74
-1.69
-2.70
-3.66
-4.48
-5.12
-5.63
-6.07
-6.54
-7.09
-7.69
-8.17
-8.33
-8.00
-7.13
-5.82
-4.29
-2.80
-1.57
-0.68
-0.06
0.37
0.75
1.13
1.47
1.64
1.58
1.25
0.79
0.36
0.12
0.11
0.25
0.37
0.37
0.22
0.03
-0.13
-0.22
-0.32
-0.55
-0.97
-1.56
-2.21
-2.81
-3.31
-3.76
-4.24
-4.82
-5.53
-6.33
-7.15
-7.90
-8.48
-8.74
-8.55
-7.77
-6.37
-4.48
-2.37
-0.39
1.13
2.01
2.27
2.07
1.66
1.25
0.95
0.78
0.65
0.48
0.19
-0.21
-0.60
-0.78
-0.60
-0.00
0.88
1.77
2.34
2.37
1.84
0.89
-0.22
-1.27
-2.20
-3.02
-3.83
-4.65
-5.45
-6.14
-6.68
-7.06
-7.35
-7.52
-7.52
-7.21
-6.46
-5.24
-3.67
-1.97
-0.41
0.82
1.64
2.10
2.30
2.35
2.30
2.15
1.89
1.50
1.02
0.57
0.27
0.22
0.45
0.89
1.40
1.83
2.07
2.06
1.82
1.34
0.62
-0.30
-1.37
-2.44
-3.38
-4.07
-4.51
-4.80
-5.09
-5.56
-6.24
-7.11
-7.97
-8.64
-8.91
-8.72
-8.08
-7.14
-6.11
-5.19
-4.50
-4.08
-3.87
-3.78
-3.79
-3.97
-4.38
-5.13
-6.30
-7.94
-10.05
-12.62
-15.61
-18.97
-22.62
-26.42
-30.10
-33.32
-35.67
-36.68
-35.98
-33.35
-28.82
-22.65
-15.30
-7.32
0.76
8.38
15.04
20.28
23.76
25.38
25.38
24.25
22.68
21.32
20.59
20.56
21.02
21.63
22.11
22.29
22.09
21.52
20.60
19.40
18.01
16.56
15.16
13.92
12.86
11.97
11.24
10.63
10.15
9.74
9.34
8.86
8.24
7.49
6.65
5.81
4.97
4.10
3.07
1.84
0.44
-0.98
-2.22
-3.13
-3.73
-4.12
-4.47
-4.86
-5.26
-5.50
-5.43
-4.91
-3.95
-2.61
-1.04
0.64
2.29
3.76
4.92
5.65
5.92
5.75
5.25
4.54
3.73
2.95
2.33
1.95
1.89
2.14
2.56
3.04
3.39
3.55
3.48
3.23
2.81
2.27
1.63
0.90
0.16
-0.52
-1.08
-1.57
-2.07
-2.71
-3.60
-4.74
-6.03
-7.25
-8.10
-8.32
-7.73
-6.34
-4.31
-1.90
0.55
2.75
4.60
6.07
7.20
8.06
8.71
9.12
9.24
8.98
8.36
7.62
7.09
7.13
8.06
10.11
13.26
17.26
21.68
25.98
29.86
33.11
35.56
37.09
37.68
37.27
35.73
33.03
29.38
25.62
22.83
21.82
22.67
24.57
25.88
24.72
19.65
9.37
-5.27
-21.65
-36.75
-48.73
-56.90
-61.24
-61.72
-58.36
-51.75
-42.94
-33.40
-24.46
-16.67
-9.53
-2.02
6.05
15.41
25.58
35.45
43.65
49.28
52.23
53.16
52.72
51.16
48.40
44.16
38.78
33.35
29.22
27.06
27.87
30.63
33.15
33.19
29.23
21.29
10.56
-1.35
-13.04
-23.56
-32.71
-40.64
-47.90
-55.55
-64.89
-76.70
-90.56
-103.99
-112.99
-114.08
-105.94
-90.36
-71.50
-53.99
-40.80
-32.80
-28.60
-26.11
-24.22
-23.21
-24.10
-27.11
-31.42
-35.23
-37.73
-38.71
-38.58
-38.07
-37.69
-37.52
-36.76
-34.90
-31.94
-29.95
-30.81
-34.58
-39.07
-39.96
-32.65
-13.04
20.01
69.45
128.41
183.80
223.89
243.08
240.78
217.35
177.82
124.07
60.24
-8.20
-74.86
-135.24
-189.63
-235.89
-275.69
-309.90
-336.66
-350.15
-344.23
-314.90
-262.86
-194.32
-119.10
-48.07
11.30
56.00
87.21
107.23
118.18
121.49
118.23
110.05
98.86
87.46
78.23
72.57
70.02
68.87
67.29
64.20
59.67
54.27
49.17
45.45
43.58
43.05
42.62
40.94
37.16
31.37
24.41
17.67
12.47
9.42
8.22
7.94
7.67
6.97
6.06
5.38
5.31
5.98
7.11
8.19
8.74
8.41
7.07
4.81
1.85
-1.41
-4.34
-6.29
-6.87
-6.15
-4.66
-3.35
-3.14
-4.62
-7.63
-10.91
-13.01
-13.06
-11.21
-8.41
-5.86
-4.33
-3.97
-4.56
-5.13
-4.96
-3.44
0.58
9.12
24.31
46.76
74.47
103.14
129.05
149.70
164.35
173.86
179.81
183.32
184.39
182.16
175.92
167.47
159.01
151.62
144.98
138.14
130.46
121.72
111.65
90.21
52.96
2.87
-51.13
-99.60
-136.54
-159.67
-169.34
-167.54
-157.16
-141.26
-120.66
-97.11
-73.56
-53.05
-37.74
-28.56
-25.36
-27.19
-31.46
-36.11
-39.80
-42.21
-43.45
-43.63
-42.77
-40.92
-38.16
-33.89
-27.68
-19.90
-11.53
-3.52
3.56
9.42
13.85
16.66
17.99
18.08
16.95
14.41
10.42
5.29
-0.29
-5.45
-9.40
-11.68
-12.48
-12.53
-12.60
-12.74
-12.20
-9.78
-4.76
2.45
10.41
17.30
21.91
24.14
24.79
24.83
24.62
23.64
20.97
16.14
9.67
3.03
-2.04
-4.43
-4.18
-2.37
-0.45
0.54
0.49
0.29
1.36
5.21
12.93
24.99
41.28
61.10
82.91
104.11
121.00
129.52
126.64
111.66
86.81
56.62
26.23
-0.49
-21.96
-38.60
-51.64
-61.72
-68.39
-70.67
-68.22
-62.18
-55.06
-49.63
-47.65
-49.09
-52.30
-54.94
-55.09
-52.14
-46.84
-40.88
-35.99
-33.38
-33.33
-35.36
-38.55
-42.05
-45.37
-48.40
-51.30
-54.21
-57.02
-59.33
-60.63
-60.49
-58.73
-55.48
-51.01
-45.61
-39.59
-33.29
-27.18
-21.82
-17.63
-14.70
-12.77
-11.40
-10.30
-9.66
-10.12
-12.39
-16.72
-22.39
-27.72
-30.56
-29.19
-23.11
-13.43
-2.45
7.28
13.98
17.33
18.20
17.94
17.44
16.70
15.05
12.07
8.30
5.37
5.41
9.86
18.59
29.79
40.83
49.52
55.18
58.74
61.82
65.62
70.04
73.85
75.60
74.66
71.61
67.85
64.57
61.95
59.14
54.93
48.77
41.27
33.96
28.47
25.62
24.99
25.17
24.48
21.56
15.88
7.71
-2.19
-12.90
-23.66
-33.96
-43.48
-51.87
-58.60
-63.06
-64.84
-63.97
-61.07
-57.14
-53.23
-50.02
-47.72
-46.04
-44.53
-42.70
-40.25
-37.07
-33.27
-29.07
-24.82
-20.82
-17.27
-14.19
-11.53
-9.24
-7.37
-6.00
-5.15
-4.65
-4.23
-3.60
-2.68
-1.57
-0.53
0.20
0.48
0.29
-0.36
-1.50
-3.19
-5.52
-8.51
-12.05
-15.87
-19.60
-22.86
-25.37
-27.04
-27.97
-28.46
-28.82
-29.25
-29.73
-29.94
-29.47
-28.05
-25.77
-23.11
-20.75
-19.12
-18.23
-17.61
-16.73
-15.32
-13.61
-12.20
-11.72
-12.47
-14.30
-16.66
-18.85
-20.13
-19.79
-17.20
-11.98
-4.21
5.32
15.27
24.07
30.40
33.61
33.72
31.28
27.11
22.11
17.12
12.91
9.99
8.57
8.48
9.34
10.75
12.40
14.13
15.75
16.94
17.30
16.49
14.45
11.50
8.20
5.14
2.64
0.64
-1.21
-3.34
-6.08
-9.44
-13.10
-16.50
-19.06
-20.43
-20.60
-20.00
-19.34
-19.36
-20.61
-23.24
-26.90
-30.68
-33.33
-33.42
-29.90
-22.41
-11.54
1.32
14.37
25.94
34.88
40.63
43.15
42.71
39.75
34.91
29.07
23.24
18.40
15.20
13.78
13.75
14.43
15.15
15.48
15.31
14.70
13.71
12.21
9.93
6.68
2.55
-2.03
-6.34
-9.74
-11.97
-13.23
-14.11
-15.24
-16.98
-19.36
-22.07
-24.70
-26.90
-28.52
-29.67
-30.62
-31.73
-33.29
-35.44
-38.15
-41.18
-44.14
-46.42
-47.11
-45.03
-39.05
-28.55
-14.00
2.94
19.65
33.50
42.79
47.37
48.38
47.47
45.79
43.44
39.82
34.37
27.43
20.33
14.96
12.64
13.49
16.25
18.96
19.97
18.66
15.62
12.14
9.41
7.95
7.40
6.88
5.52
2.90
-0.78
-4.95
-8.98
-12.48
-15.28
-17.38
-18.80
-19.57
-19.88
-20.19
-21.20
-23.59
-27.70
-33.25
-39.20
-43.98
-45.94
-43.75
-36.90
-25.86
-12.07
2.42
15.47
25.45
31.68
34.51
34.86
33.73
31.67
28.69
24.61
19.56
14.23
9.71
7.02
6.53
7.77
9.58
10.70
10.38
8.62
5.99
3.15
0.45
-2.20
-5.06
-8.26
-11.60
-14.68
-17.22
-19.25
-21.11
-23.12
-25.36
-27.56
-29.41
-30.83
-32.19
-34.14
-37.25
-41.68
-47.10
-52.81
-57.95
-61.61
-62.90
-61.03
-55.58
-46.82
-35.81
-24.12
-13.29
-4.19
3.23
9.71
16.07
22.67
29.24
35.06
39.47
42.17
43.35
43.55
43.43
43.54
44.26
45.77
48.03
50.79
53.56
55.72
56.73
56.28
54.51
51.95
49.33
47.16
45.47
43.71
40.94
36.40
29.83
21.76
13.29
5.56
-0.70
-5.40
-8.96
-11.90
-14.54
-16.86
-18.69
-20.00
-20.97
-21.88
-22.75
-23.16
-22.26
-19.25
-13.83
-6.52
1.44
8.58
13.81
16.80
17.96
18.07
17.82
17.56
17.28
16.88
16.33
15.75
15.39
15.41
15.89
16.73
17.79
18.84
19.65
19.99
19.70
18.79
17.41
15.81
14.22
12.75
11.31
9.71
7.80
5.52
2.94
0.23
-2.40
-4.73
-6.57
-7.85
-8.66
-9.21
-9.83
-10.80
-12.23
-14.05
-16.06
-17.93
-19.26
-19.57
-18.31
-14.97
-9.36
-1.73
7.12
16.07
24.03
30.28
34.68
37.57
39.50
40.97
42.24
43.37
44.32
45.17
46.15
47.71
50.25
54.00
58.78
64.01
68.91
72.85
75.63
77.57
79.34
81.62
84.71
88.50
92.67
97.06
101.67
106.26
109.75
110.06
104.72
92.19
72.96
49.79
26.55
6.49
-9.29
-21.98
-33.86
-46.44
-59.31
-70.35
-77.20
-78.87
-76.45
-72.50
-69.59
-68.86
-69.77
-70.65
-69.93
-67.14
-63.11
-59.36
-57.17
-56.82
-57.54
-58.03
-57.20
-54.67
-50.88
-46.70
-42.93
-40.04
-38.12
-37.05
-36.67
-36.87
-37.50
-38.32
-39.10
-39.68
-40.09
-40.51
-41.08
-41.74
-42.29
-42.52
-42.46
-42.38
-42.69
-43.61
-45.06
-46.71
-48.17
-49.13
-49.33
-48.31
-45.33
-39.47
-30.08
-17.29
-2.28
13.00
26.45
36.51
42.54
44.79
43.96
40.83
36.11
30.47
24.65
19.43
15.44
12.89
11.57
10.92
10.45
9.97
9.73
10.12
11.33
13.07
14.56
14.87
13.47
10.50
6.76
3.31
0.87
-0.55
-1.54
-2.97
-5.41
-8.86
-12.84
-16.74
-20.11
-22.63
-23.95
-23.42
-20.26
-13.86
-4.24
7.62
20.01
30.99
38.98
43.18
43.62
40.95
36.25
30.66
25.32
21.13
18.57
17.62
17.83
18.51
19.11
19.33
19.15
18.67
17.96
16.96
15.49
13.35
10.45
6.84
2.77
-1.37
-5.21
-8.47
-11.12
-13.36
-15.52
-17.89
-20.68
-23.94
-27.62
-31.61
-35.58
-38.93
-40.75
-40.10
-36.28
-29.23
-19.57
-8.51
2.56
12.34
19.88
24.65
26.52
25.82
23.26
19.86
16.65
14.46
13.66
14.19
15.62
17.39
19.00
20.10
20.57
20.53
20.25
20.01
19.91
19.81
19.37
18.21
16.10
13.12
9.61
6.08
2.98
0.53
-1.37
-3.17
-5.46
-8.81
-13.51
-19.41
-25.80
-31.55
-35.29
-35.81
-32.48
-25.57
-16.41
-7.04
0.35
4.14
3.86
0.24
-5.22
-11.00
-16.07
-20.15
-23.40
-26.02
-27.99
-29.03
-28.94
-27.79
-26.08
-24.43
-23.29
-22.71
-22.33
-21.59
-20.05
-17.61
-14.63
-11.77
-9.76
-9.05
-9.63
-11.03
-12.48
-13.32
-13.19
-12.23
-10.88
-9.71
-9.20
-9.59
-10.87
-12.80
-14.86
-16.22
-15.83
-12.71
-6.34
3.01
14.18
25.46
35.12
41.95
45.54
46.17
44.58
41.53
37.57
33.00
27.92
22.43
16.76
11.35
6.73
3.32
1.23
0.16
-0.49
-1.37
-2.91
-5.19
-7.98
-10.88
-13.53
-15.71
-17.28
-18.17
-18.35
-17.83
-16.72
-15.27
-13.84
-12.79
-12.38
-12.67
-13.51
-14.63
-15.73
-16.67
-17.55
-18.69
-20.46
-22.98
-25.77
-27.79
-27.67
-24.26
-17.20
-7.16
4.28
15.25
24.17
30.31
33.77
35.18
35.24
34.43
32.94
30.95
28.75
26.82
25.64
25.52
26.36
27.77
29.15
29.97
29.90
28.95
27.37
25.60
24.02
22.77
21.62
20.11
17.73
14.35
10.34
6.54
3.79
2.56
2.59
3.00
2.58
0.39
-3.91
-9.86
-16.43
-22.42
-26.88
-29.38
-30.10
-29.60
-28.53
-27.34
-26.17
-24.84
-23.08
-20.60
-17.21
-12.70
-6.80
0.72
9.92
20.38
31.15
40.87
48.07
51.63
50.96
46.29
38.51
29.05
19.53
11.47
5.93
3.21
2.81
3.55
4.10
3.51
1.54
-1.30
-4.19
-6.41
-7.68
-8.17
-8.14
-7.75
-6.96
-5.67
-4.00
-2.33
-1.05
-0.37
-0.19
-0.26
-0.48
-1.05
-2.35
-4.54
-7.37
-10.20
-12.32
-13.36
-13.38
-12.81
-12.07
-11.40
-10.79
-10.13
-9.31
-8.32
-7.14
-5.80
-4.40
-3.17
-2.40
-2.29
-2.71
-3.19
-3.14
-2.22
-0.62
0.98
1.79
1.35
-0.18
-2.16
-3.82
-4.72
-4.89
-4.64
-4.28
-3.91
-3.46
-3.02
-2.92
-3.72
-5.74
-8.78
-11.95
-14.18
-14.68
-13.52
-11.50
-9.75
-9.13
-9.86
-11.61
-13.92
-16.45
-19.11
-21.83
-24.33
-26.11
-26.63
-25.65
-23.43
-20.70
-18.46
-17.61
-18.64
-21.39
-24.83
-27.10
-25.72
-18.41
-4.09
16.25
39.43
60.90
76.46
83.75
83.10
77.03
68.99
61.77
56.50
52.62
48.58
42.88
34.99
25.43
15.35
5.78
-2.84
-10.73
-18.25
-25.31
-31.06
-34.20
-33.78
-30.06
-24.65
-19.97
-18.03
-19.41
-23.13
-27.29
-30.16
-30.92
-29.77
-27.40
-24.42
-21.23
-18.08
-15.39
-13.70
-13.31
-13.90
-14.49
-13.93
-11.66
-8.19
-4.96
-3.50
-4.52
-7.46
-10.86
-13.27
-14.08
-13.76
-13.29
-13.33
-13.69
-13.44
-11.66
-8.17
-3.83
-0.04
2.00
2.04
0.76
-0.70
-1.41
-1.18
-0.46
0.01
-0.17
-0.84
-1.37
-1.12
0.11
1.96
3.60
4.26
3.59
1.91
-0.00
-1.36
-1.71
-1.21
-0.36
0.33
0.64
0.69
0.73
0.88
0.95
0.72
0.10
-0.71
-1.34
-1.50
-1.25
-0.98
-1.09
-1.75
-2.71
-3.57
-3.99
-3.98
-3.83
-3.80
-3.90
-3.77
-2.91
-1.02
1.82
5.25
8.83
12.24
15.40
18.20
20.43
21.66
21.52
19.85
16.93
13.40
10.00
7.27
5.36
4.10
3.17
2.44
2.03
2.25
3.33
5.16
7.23
8.83
9.44
9.01
7.96
6.83
5.93
5.09
3.84
1.85
-0.73
-3.29
-5.03
-5.51
-4.88
-3.81
-3.04
-2.93
-3.24
-3.37
-2.75
-1.15
1.10
3.40
5.09
5.86
5.82
5.46
5.39
6.12
7.80
10.16
12.76
15.14
17.06
18.55
19.78
20.88
21.79
22.25
21.91
20.53
18.11
14.93
11.47
8.18
5.40
3.26
1.77
0.87
0.56
0.86
1.71
2.92
4.02
4.47
3.87
2.17
-0.22
-2.67
-4.57
-5.66
-6.01
-5.96
-5.86
-5.97
-6.36
-7.03
-7.89
-8.85
-9.86
-10.88
-11.96
-13.29
-15.02
-17.08
-18.98
-19.92
-19.19
-16.64
-13.01
-9.70
-8.08
-8.63
-10.57
-12.11
-11.46
-7.83
-1.99
4.15
8.62
10.44
10.09
8.94
8.18
8.01
7.43
5.13
0.46
-5.89
-12.36
-17.40
-20.55
-22.70
-25.34
-29.58
-35.18
-40.63
-43.99
-43.96
-40.61
-35.32
-30.04
-26.36
-24.93
-25.32
-26.48
-27.20
-26.59
-24.18
-19.94
-14.12
-7.09
0.72
8.87
16.81
23.86
29.37
32.92
34.44
34.23
32.74
30.22
26.69
22.03
16.43
10.52
5.24
1.30
-1.26
-3.26
-5.84
-9.79
-14.99
-20.49
-25.14
-28.38
-30.63
-33.04
-36.57
-41.22
-45.82
-48.67
-48.67
-46.13
-42.88
-41.20
-42.61
-46.84
-51.96
-55.41
-55.37
-51.40
-44.29
-35.10
-24.30
-11.68
2.98
19.08
34.83
47.81
56.10
59.28
58.49
55.73
52.64
49.69
46.23
41.32
34.78
27.56
21.44
17.90
17.20
18.12
18.67
17.21
13.41
8.38
3.78
0.84
-0.40
-0.94
-2.09
-4.55
-8.14
-12.09
-15.64
-18.52
-20.79
-22.34
-22.45
-19.78
-12.92
-1.19
14.75
32.88
50.42
64.78
74.52
79.64
81.25
80.76
79.06
76.25
71.89
65.57
57.38
47.97
38.20
28.68
19.63
11.11
3.42
-2.64
-6.07
-6.35
-4.02
-0.82
1.07
0.02
-4.13
-10.00
-15.26
-17.80
-16.56
-11.79
-4.74
2.96
9.68
13.77
13.61
7.96
-3.16
-17.69
-31.55
-40.02
-39.90
-31.53
-19.00
-8.43
-5.12
-11.11
-24.71
-41.98
-58.98
-73.19
-83.37
-88.54
-87.35
-78.78
-63.56
-44.97
-27.80
-15.98
-10.27
-7.85
-4.37
3.10
14.07
25.30
33.30
36.88
37.68
38.38
40.31
42.26
41.58
36.51
27.92
19.02
13.21
11.82
13.22
14.01
11.17
3.66
-7.48
-20.33
-33.14
-44.64
-53.39
-57.42
-54.75
-44.90
-30.11
-15.08
-5.04
-2.80
-7.02
-12.50
-12.78
-3.55
15.16
39.10
61.98
78.43
85.91
84.97
78.09
68.24
57.86
48.63
41.45
36.29
31.99
26.43
17.24
3.08
-15.36
-35.36
-53.29
-66.20
-72.92
-74.12
-71.36
-65.98
-58.76
-50.21
-41.26
-33.57
-29.07
-29.02
-33.14
-39.50
-45.28
-47.91
-46.19
-40.65
-33.17
-26.15
-21.50
-20.04
-21.43
-24.47
-27.91
-30.87
-33.19
-35.22
-37.52
-40.35
-43.41
-45.75
-46.12
-43.31
-36.68
-26.39
-13.34
1.21
16.18
30.97
45.31
58.90
71.00
80.42
85.95
87.06
84.34
79.27
73.49
67.94
62.47
56.25
48.65
39.94
31.45
24.85
21.17
20.15
20.47
20.60
19.89
18.87
18.74
20.27
22.93
24.93
24.17
19.66
12.13
3.68
-3.53
-8.59
-12.16
-15.74
-20.35
-25.67
-30.32
-33.01
-33.71
-33.85
-35.39
-39.31
-44.68
-49.01
-49.61
-45.20
-36.72
-26.90
-18.81
-14.48
-14.13
-16.41
-19.19
-20.48
-19.12
-14.98
-8.84
-1.96
4.33
9.06
11.77
12.53
11.81
10.30
8.82
8.05
8.15
8.53
7.93
5.17
0.03
-5.93
-9.79
-8.43
-0.41
12.95
27.76
39.30
44.28
42.18
35.17
26.51
18.80
12.82
7.87
2.90
-2.33
-6.89
-9.27
-8.44
-4.64
0.69
5.71
9.33
11.76
14.41
18.72
25.04
31.96
36.80
36.98
31.52
21.85
11.28
3.47
0.64
2.62
7.22
11.78
14.79
16.82
19.90
26.05
35.84
47.94
59.75
68.77
73.75
74.96
73.63
71.13
68.30
65.37
62.28
59.14
56.41
54.72
54.35
54.83
54.82
52.51
46.29
35.56
21.19
5.44
-8.88
-19.64
-26.26
-29.76
-31.96
-34.27
-37.01
-39.52
-40.96
-40.80
-38.86
-34.77
-27.62
-16.38
-0.84
17.59
35.99
51.17
61.26
66.67
69.51
72.06
75.40
79.02
81.58
81.86
79.14
72.84
62.09
45.92
24.08
-1.89
-28.62
-51.99
-68.86
-78.19
-80.92
-78.82
-73.26
-64.72
-53.39
-40.03
-26.34
-14.49
-6.17
-1.81
-0.71
-1.55
-2.99
-4.07
-4.22
-3.13
-0.90
1.95
4.43
5.31
3.62
-1.04
-8.26
-17.01
-25.86
-33.31
-38.21
-40.11
-39.56
-37.92
-36.76
-37.09
-38.75
-40.39
-40.26
-37.20
-31.30
-23.76
-16.21
-9.84
-5.10
-1.83
0.34
1.85
3.36
6.01
11.13
19.48
30.38
41.55
49.81
52.59
49.21
41.21
31.60
23.23
17.54
13.93
10.22
3.38
-9.45
-30.20
-59.14
-94.45
-132.10
-166.39
-191.35
-202.45
-198.01
-179.62
-151.32
-118.16
-84.65
-53.92
-27.44
-5.53
12.10
25.82
35.78
42.05
44.91
45.23
44.58
44.80
47.25
51.99
57.65
62.00
63.05
60.04
53.71
45.71
37.58
29.99
22.74
15.45
8.27
2.01
-2.43
-4.86
-6.23
-8.33
-12.80
-20.12
-29.12
-37.34
-41.95
-40.84
-33.36
-20.54
-4.85
10.57
22.82
30.11
32.18
30.25
26.18
21.67
17.55
13.76
9.96
6.08
2.69
0.67
0.58
2.29
5.02
7.98
10.90
14.19
18.34
23.20
27.74
30.45
30.36
27.83
24.50
22.35
22.51
24.42
26.22
25.95
22.84
17.83
12.92
9.79
8.71
8.54
7.62
4.96
0.78
-3.94
-8.34
-12.20
-15.74
-18.78
-20.25
-18.51
-12.54
-3.07
7.08
14.13
15.10
9.47
-0.51
-10.94
-18.07
-19.89
-16.75
-10.80
-4.83
-1.07
-0.59
-3.18
-7.76
-12.82
-16.79
-18.06
-15.07
-6.62
7.35
25.04
42.69
55.46
59.26
52.63
37.60
18.97
2.11
-9.33
-14.73
-15.97
-15.88
-16.35
-17.65
-18.80
-18.53
-16.20
-11.92
-6.23
0.29
6.99
12.97
16.97
17.70
14.53
8.06
0.31
-5.90
-7.98
-4.66
3.33
13.59
22.97
28.90
30.31
27.77
22.94
17.62
13.07
9.75
7.46
5.56
3.15
-0.87
-7.41
-16.79
-28.31
-40.25
-50.51
-57.58
-61.22
-62.27
-61.74
-59.90
-55.97
-49.04
-39.25
-28.40
-19.40
-14.71
-14.79
-17.79
-20.45
-19.91
-15.02
-6.49
4.13
15.83
28.73
43.62
60.79
79.29
97.09
111.99
122.51
128.25
129.61
127.14
121.29
112.54
101.71
90.04
78.54
67.43
55.95
43.03
28.45
13.56
1.04
-6.48
-7.99
-4.72
0.39
4.38
5.67
4.69
3.14
2.58
3.45
4.80
5.19
3.52
-0.40
-6.30
-13.93
-23.47
-35.29
-49.36
-64.77
-79.74
-92.23
-100.55
-103.89
-102.25
-96.09
-86.07
-72.89
-57.38
-40.58
-23.73
-8.09
5.24
15.52
22.45
26.22
27.34
26.32
23.42
18.62
11.83
3.35
-5.86
-14.32
-20.54
-23.73
-24.14
-22.88
-21.29
-20.26
-19.91
-19.83
-19.48
-18.63
-17.41
-16.18
-15.31
-15.12
-15.91
-17.81
-20.79
-24.54
-28.66
-32.91
-37.40
-42.49
-48.32
-54.26
-58.79
-60.00
-56.56
-48.46
-37.25
-25.38
-15.15
-7.77
-3.05
0.16
3.09
6.37
9.84
12.83
14.70
15.27
14.81
13.84
12.82
11.98
11.34
10.91
10.79
11.23
12.42
14.26
16.32
18.03
18.96
19.02
18.51
17.80
17.10
16.33
15.28
13.90
12.50
11.62
11.61
12.23
12.62
11.68
8.77
4.17
-0.96
-5.25
-7.82
-8.80
-9.08
-9.71
-11.25
-13.46
-15.57
-16.74
-16.45
-14.62
-11.51
-7.58
-3.30
0.93
4.81
8.21
11.18
13.75
15.86
17.25
17.63
16.98
15.82
15.11
15.73
17.94
21.06
23.83
25.02
24.09
21.49
18.31
15.72
14.39
14.18
14.30
13.69
11.40
7.00
0.69
-6.69
-13.95
-19.95
-24.04
-26.42
-27.94
-29.62
-32.05
-35.00
-37.59
-38.87
-38.47
-36.88
-35.20
-34.45
-34.89
-35.88
-36.24
-35.11
-32.52
-29.51
-27.61
-27.89
-30.39
-33.97
-36.93
-37.87
-36.35
-32.97
-28.85
-24.91
-21.52
-18.61
-16.10
-14.33
-13.91
-15.19
-17.48
-18.56
-15.23
-4.54
14.47
39.57
65.33
84.70
91.60
83.38
62.09
33.62
5.31
-16.85
-29.99
-34.39
-31.95
-24.47
-12.90
2.23
19.54
36.20
48.39
52.90
48.81
38.18
25.16
14.03
7.39
5.27
5.77
6.47
5.84
3.73
1.07
-0.98
-1.75
-1.21
0.22
2.10
4.17
6.24
8.00
8.90
8.34
6.02
2.11
-2.85
-8.23
-13.63
-18.87
-23.82
-28.14
-31.26
-32.51
-31.52
-28.37
-23.65
-18.19
-12.89
-8.58
-6.06
-6.10
-9.25
-15.49
-23.76
-31.89
-37.00
-36.48
-29.10
-15.67
1.05
17.35
29.85
36.73
38.19
36.05
32.83
30.62
30.31
31.42
32.51
32.09
29.44
25.02
20.35
17.23
16.76
18.80
22.04
24.72
25.47
23.92
20.63
16.57
12.52
8.85
5.63
2.97
1.17
0.61
1.37
3.02
4.65
5.34
4.59
2.63
0.26
-1.58
-2.33
-2.06
-1.47
-1.54
-3.03
-6.17
-10.50
-15.01
-18.44
-19.55
-17.40
-11.68
-2.82
7.99
19.03
28.53
35.21
38.53
38.73
36.54
32.78
28.13
23.08
17.88
12.69
7.50
2.14
-3.52
-9.39
-14.96
-19.37
-21.86
-22.05
-20.16
-16.91
-13.20
-9.84
-7.45
-6.48
-7.23
-9.76
-13.82
-18.85
-24.05
-28.56
-31.74
-33.27
-33.22
-32.00
-30.35
-29.04
-28.66
-29.34
-30.55
-31.42
-31.16
-29.57
-27.11
-24.66
-22.91
-21.75
-20.24
-16.99
-10.96
-1.99
8.96
20.16
29.69
36.02
38.50
37.46
34.05
29.71
25.78
23.02
21.53
21.06
21.23
21.90
23.06
24.73
26.63
28.15
28.49
26.99
23.55
18.65
13.21
8.21
4.36
1.92
0.67
0.14
-0.23
-0.80
-1.68
-2.67
-3.46
-3.83
-3.82
-3.76
-4.17
-5.61
-8.44
-12.91
-19.02
-26.50
-34.56
-41.85
-46.56
-46.92
-41.81
-31.22
-16.33
0.83
18.01
33.19
44.89
52.10
54.48
52.39
47.14
40.82
35.82
33.95
35.85
40.76
47.02
52.81
56.71
57.81
55.64
49.92
40.83
29.20
16.69
5.45
-2.68
-6.96
-8.20
-8.34
-9.51
-12.99
-18.70
-25.46
-31.74
-36.52
-39.59
-41.41
-42.60
-43.52
-44.16
-44.36
-43.93
-42.85
-41.16
-38.91
-36.28
-33.60
-31.43
-30.15
-29.65
-28.98
-26.71
-21.53
-13.07
-2.23
9.25
19.52
27.43
32.84
36.25
38.10
38.40
36.82
33.22
28.26
23.47
20.81
21.78
26.81
34.96
44.37
53.00
59.36
62.85
63.61
62.13
58.68
53.11
45.01
34.25
21.48
8.23
-3.43
-11.74
-15.93
-16.56
-15.29
-14.03
-14.26
-16.49
-20.30
-24.70
-28.64
-31.32
-32.33
-31.67
-29.72
-27.05
-24.15
-21.09
-17.40
-12.27
-5.04
4.30
14.85
25.07
33.29
38.31
39.65
37.50
32.28
24.39
14.22
2.30
-10.54
-23.14
-34.28
-43.01
-48.84
-51.77
-52.09
-50.25
-46.82
-42.54
-38.26
-34.75
-32.42
-31.15
-30.32
-29.13
-26.98
-23.85
-20.26
-17.05
-14.87
-13.85
-13.55
-13.26
-12.43
-11.01
-9.46
-8.32
-7.93
-8.13
-8.44
-8.36
-7.76
-6.87
-6.03
-5.35
-4.55
-3.18
-0.90
2.14
5.49
8.65
11.44
13.95
16.27
18.18
19.05
18.26
15.67
11.98
8.40
6.06
5.27
5.44
5.52
4.73
3.09
1.28
0.19
0.34
1.82
4.44
8.06
12.43
16.79
19.65
19.11
13.85
4.01
-8.48
-20.59
-29.58
-34.08
-34.55
-32.62
-30.05
-27.84
-26.07
-24.32
-22.28
-20.10
-18.32
-17.41
-17.28
-17.20
-15.93
-12.44
-6.46
1.20
8.80
14.41
16.75
15.78
12.61
8.92
6.19
5.17
5.84
7.68
10.06
12.41
14.27
15.14
14.52
12.04
7.74
2.24
-3.27
-7.36
-8.90
-7.68
-4.61
-1.56
-0.61
-3.09
-8.88
-16.33
-22.94
-26.40
-25.62
-21.18
-15.00
-9.61
-7.12
-8.55
-13.46
-20.06
-25.82
-28.25
-25.78
-18.32
-7.38
4.50
14.68
21.40
24.35
24.42
23.04
21.40
19.99
18.68
17.15
15.38
13.79
13.06
13.61
15.24
17.12
18.06
17.22
14.50
10.64
6.91
4.39
3.54
3.97
4.79
5.16
4.77
3.79
2.66
1.66
0.73
-0.39
-1.88
-3.65
-5.52
-7.40
-9.47
-12.00
-14.89
-17.33
-17.84
-14.95
-7.95
2.51
14.49
25.62
33.97
38.86
40.89
41.45
41.89
43.04
45.04
47.51
49.77
50.97
50.19
46.63
39.97
30.81
20.82
12.46
8.15
9.36
15.89
25.98
36.77
45.38
49.66
48.65
42.55
32.34
19.42
5.25
-8.76
-21.36
-31.56
-38.77
-42.99
-44.79
-45.05
-44.58
-43.67
-42.04
-39.05
-34.26
-27.83
-20.64
-13.96
-8.93
-6.15
-5.64
-7.12
-10.25
-14.72
-20.11
-25.71
-30.51
-33.51
-34.12
-32.35
-28.74
-23.96
-18.56
-12.87
-7.20
-2.05
1.90
4.09
4.46
3.52
2.13
0.98
0.15
-0.87
-2.82
-6.11
-10.66
-15.91
-21.18
-26.01
-30.18
-33.50
-35.62
-35.95
-33.92
-29.35
-22.64
-14.69
-6.55
0.98
7.50
12.92
17.19
20.19
21.70
21.70
20.43
18.43
16.33
14.53
13.09
11.77
10.26
8.43
6.46
4.67
3.38
2.62
2.11
1.46
0.32
-1.41
-3.57
-5.97
-8.58
-11.68
-15.68
-20.71
-26.31
-31.45
-34.92
-36.00
-34.82
-32.23
-29.19
-26.02
-22.15
-16.56
-8.60
1.29
11.53
20.13
25.61
27.60
26.85
24.47
21.36
17.91
14.17
10.26
6.61
3.84
2.44
2.50
3.67
5.42
7.30
9.00
10.35
11.22
11.52
11.27
10.72
10.33
10.53
11.56
13.14
14.49
14.61
12.67
8.54
2.99
-2.54
-6.53
-8.04
-7.23
-5.28
-3.78
-4.01
-6.30
-10.07
-14.18
-17.58
-19.55
-19.74
-17.88
-13.72
-7.15
1.52
11.42
21.26
29.72
35.81
39.15
39.89
38.55
35.80
32.41
29.14
26.62
25.03
24.04
22.87
20.74
17.41
13.31
9.35
6.32
4.40
3.03
1.26
-1.60
-5.62
-10.15
-14.29
-17.37
-19.34
-20.63
-21.73
-22.90
-24.06
-25.06
-25.97
-27.31
-29.76
-33.81
-39.35
-45.62
-51.62
-56.59
-60.54
-64.12
-68.24
-73.38
-79.06
-83.86
-86.01
-84.32
-78.94
-71.36
-63.76
-57.91
-54.27
-51.78
-48.52
-42.67
-33.29
-20.40
-4.47
13.96
34.23
55.08
74.44
89.66
98.52
100.27
96.01
88.23
79.65
72.29
67.10
64.29
63.80
65.60
69.53
75.04
81.16
86.61
90.21
91.27
89.71
86.08
81.34
76.10
69.92
60.82
45.73
22.16
-9.97
-47.24
-83.45
-112.01
-128.62
-132.86
-127.61
-117.06
-104.54
-91.55
-78.29
-64.73
-51.33
-38.87
-27.67
-17.30
-6.99
3.66
14.12
23.15
29.71
33.49
34.89
34.57
32.89
29.92
25.95
21.84
18.93
18.33
20.11
22.99
24.95
24.15
19.95
13.07
5.19
-1.87
-6.73
-8.80
-8.27
-5.97
-3.12
-1.06
-0.79
-2.58
-5.83
-9.24
-11.41
-11.53
-9.77
-7.24
-5.40
-5.31
-7.13
-10.07
-12.91
-14.67
-15.18
-15.08
-15.52
-17.45
-21.14
-25.87
-30.21
-32.45
-31.22
-25.93
-16.97
-5.70
6.00
16.22
23.53
27.22
27.33
24.39
19.25
13.01
6.89
2.14
-0.30
-0.20
1.85
4.82
7.77
10.50
13.56
17.66
22.94
28.52
32.92
34.95
34.58
32.96
31.56
31.13
31.18
30.34
27.50
22.65
16.96
11.98
8.54
6.36
4.50
2.33
0.15
-1.06
-0.49
1.70
4.47
6.57
7.42
7.34
6.91
6.24
4.80
2.06
-1.50
-4.11
-3.43
1.98
11.44
22.16
30.58
34.07
32.08
26.01
18.15
10.55
4.39
0.04
-2.57
-3.79
-4.23
-4.76
-6.15
-8.74
-12.36
-16.48
-20.74
-25.14
-29.81
-34.59
-38.80
-41.42
-41.65
-39.41
-35.27
-30.20
-25.01
-20.27
-16.28
-13.20
-11.07
-9.63
-8.30
-6.41
-3.63
-0.16
3.32
6.11
7.81
8.43
8.19
7.32
6.10
5.11
5.34
7.75
12.62
18.87
24.28
26.54
24.43
18.74
11.86
6.52
4.30
4.88
6.41
6.80
5.03
1.61
-2.07
-4.99
-7.52
-11.36
-18.54
-29.93
-44.50
-59.45
-71.48
-78.25
-79.36
-76.40
-72.00
-68.68
-67.72
-68.68
-69.40
-66.53
-56.53
-36.86
-7.29
29.55
68.68
104.20
131.24
147.32
152.52
148.71
138.34
123.61
106.29
87.91
69.88
53.28
38.53
25.27
12.72
0.41
-11.33
-21.38
-28.33
-31.17
-29.51
-23.59
-14.20
-2.52
9.67
20.11
26.33
26.43
19.70
7.09
-9.07
-25.72
-39.93
-49.69
-54.56
-56.00
-57.21
-62.31
-74.80
-95.78
-122.76
-149.90
-169.95
-177.14
-169.73
-150.60
-125.88
-101.93
-82.78
-68.95
-58.30
-47.93
-35.84
-21.56
-5.77
10.49
26.18
40.19
50.88
56.02
53.33
41.59
21.68
-2.95
-27.04
-45.21
-53.98
-53.02
-45.01
-34.04
-23.53
-14.69
-6.51
2.89
14.57
27.82
40.54
50.70
57.42
61.20
63.02
63.31
61.67
57.52
51.04
43.54
36.74
31.64
27.83
23.70
17.67
9.41
0.29
-7.40
-11.75
-12.38
-10.68
-8.95
-9.12
-11.58
-14.80
-16.17
-13.48
-6.45
2.62
9.59
10.49
3.87
-8.01
-20.04
-26.80
-25.45
-17.15
-6.10
3.18
8.56
11.14
13.95
19.48
27.83
36.82
43.81
47.74
50.06
53.61
60.45
70.11
79.68
85.68
86.35
82.87
78.51
76.55
78.00
81.08
82.49
79.84
73.35
65.85
60.89
60.44
63.68
67.80
70.14
70.12
69.57
71.23
76.49
84.03
90.40
92.03
87.36
77.64
65.93
55.20
46.67
39.41
31.33
20.63
6.87
-8.83
-24.47
-38.10
-48.55
-55.68
-60.15
-62.88
-64.39
-64.54
-62.72
-58.61
-52.88
-47.36
-44.34
-45.26
-49.77
-55.72
-60.28
-61.43
-58.86
-53.91
-48.62
-44.57
-42.30
-41.29
-40.59
-39.47
-37.82
-36.30
-36.10
-38.38
-43.48
-50.47
-57.32
-61.80
-62.69
-60.42
-56.61
-52.72
-48.96
-44.06
-36.46
-25.82
-13.69
-2.84
4.56
8.36
10.46
13.36
18.26
24.09
28.29
28.73
25.29
20.03
15.71
13.97
14.38
15.07
14.50
12.78
11.60
12.86
17.04
22.62
27.02
28.33
26.44
22.94
19.78
18.01
17.35
17.01
16.62
16.56
17.37
18.66
18.79
15.61
8.02
-2.87
-13.79
-20.67
-20.54
-12.90
0.07
14.48
26.26
32.54
32.48
27.20
18.97
10.05
1.74
-5.93
-13.81
-22.71
-32.68
-42.89
-52.20
-60.07
-66.96
-73.91
-81.56
-89.16
-94.45
-94.64
-88.00
-75.03
-58.38
-41.59
-27.32
-16.21
-6.94
2.62
14.12
28.00
43.66
60.09
76.39
91.67
104.68
113.60
116.51
112.25
101.07
84.57
64.91
43.87
22.39
0.79
-20.56
-40.84
-58.78
-72.97
-82.29
-86.34
-85.80
-82.45
-78.93
-77.80
-80.30
-85.27
-89.37
-88.57
-80.50
-66.17
-49.88
-37.18
-31.97
-34.48
-41.40
-47.96
-50.60
-48.42
-42.73
-35.29
-26.75
-16.47
-3.68
10.96
24.95
34.99
38.99
37.32
32.67
28.27
25.86
24.73
22.44
16.82
7.66
-2.93
-11.81
-16.94
-18.68
-19.61
-22.72
-29.36
-38.09
-45.24
-46.93
-41.38
-30.01
-16.76
-5.99
-0.15
1.36
1.67
4.70
13.15
27.37
45.53
64.66
82.09
96.40
107.55
116.46
124.32
131.90
139.39
146.57
153.33
160.08
167.68
176.79
187.03
196.54
202.66
203.21
197.74
187.92
176.52
165.90
156.71
147.78
137.10
123.25
106.28
87.51
68.65
50.75
33.91
17.64
1.63
-13.73
-27.50
-38.65
-46.69
-51.99
-55.62
-58.87
-62.74
-67.51
-72.68
-77.25
-80.13
-80.57
-78.40
-74.03
-68.28
-62.05
-56.05
-50.70
-46.14
-42.47
-39.81
-38.39
-38.28
-39.23
-40.52
-41.16
-40.33
-37.74
-33.65
-28.65
-23.23
-17.60
-11.79
-5.98
-0.76
3.04
4.80
4.54
2.97
1.13
-0.20
-0.99
-1.94
-4.01
-7.77
-12.97
-18.62
-23.48
-26.66
-28.07
-28.44
-28.95
-30.71
-34.26
-39.34
-45.01
-49.95
-52.96
-53.37
-51.24
-47.22
-42.34
-37.54
-33.36
-29.81
-26.38
-22.43
-17.53
-11.70
-5.39
0.65
5.71
9.30
11.21
11.42
10.04
7.43
4.26
1.52
0.13
0.33
1.22
0.86
-2.94
-11.42
-24.19
-39.30
-54.19
-66.79
-76.05
-81.62
-83.12
-79.71
-70.46
-55.41
-36.29
-16.40
0.65
12.50
18.93
21.46
22.06
21.80
20.36
16.76
10.49
2.45
-5.27
-10.41
-11.74
-9.75
-6.39
-4.06
-4.58
-8.49
-14.97
-22.24
-28.15
-30.69
-28.51
-21.37
-10.31
2.47
14.24
22.69
26.70
26.68
24.15
20.99
18.57
17.37
17.07
16.99
16.54
15.45
13.86
12.16
10.84
10.27
10.51
11.26
11.88
11.71
10.33
7.82
4.65
1.42
-1.52
-4.15
-6.68
-9.26
-11.71
-13.61
-14.52
-14.35
-13.42
-12.35
-11.76
-11.88
-12.55
-13.30
-13.73
-13.73
-13.59
-13.82
-14.88
-16.94
-19.71
-22.43
-24.08
-23.62
-20.32
-13.95
-4.85
6.17
18.05
29.64
39.84
47.73
52.65
54.37
53.08
49.42
44.23
38.32
32.23
26.36
21.14
17.20
15.33
16.06
19.09
23.08
25.99
25.87
21.82
14.39
5.32
-3.40
-10.53
-16.13
-21.26
-27.07
-33.98
-41.29
-47.52
-51.35
-52.20
-50.49
-47.33
-43.87
-40.81
-38.36
-36.42
-34.86
-33.67
-32.86
-32.35
-31.94
-31.41
-30.68
-29.79
-28.70
-27.14
-24.51
-20.12
-13.60
-5.30
3.64
11.64
17.32
20.10
20.38
19.24
17.82
16.72
15.94
15.22
14.47
14.00
14.32
15.72
17.96
20.35
22.33
23.79
25.23
27.19
29.71
32.00
32.87
31.50
28.04
23.63
19.85
17.87
17.88
19.19
20.74
21.83
22.38
22.81
23.59
24.82
26.05
26.48
25.36
22.39
17.76
12.20
6.63
1.84
-1.73
-4.07
-5.55
-6.67
-7.94
-9.77
-12.39
-15.87
-20.15
-25.12
-30.72
-36.95
-43.75
-50.89
-57.88
-63.96
-68.37
-70.55
-70.25
-67.54
-62.65
-55.96
-47.93
-39.30
-30.92
-23.58
-17.54
-12.29
-6.75
0.12
8.67
18.24
27.35
34.38
38.07
37.94
34.25
27.84
19.93
11.94
5.24
0.69
-1.60
-2.36
-2.81
-3.91
-5.73
-7.31
-7.13
-3.87
2.76
11.88
21.78
30.47
36.33
38.35
36.31
30.69
22.53
13.22
4.17
-3.57
-9.67
-14.50
-18.77
-23.00
-27.17
-30.71
-32.95
-33.49
-32.42
-30.21
-27.43
-24.56
-22.02
-20.18
-19.36
-19.56
-20.25
-20.39
-18.92
-15.29
-10.03
-4.60
-0.81
0.06
-2.15
-6.46
-11.33
-15.32
-17.67
-18.39
-17.98
-17.10
-16.26
-15.66
-15.19
-14.46
-12.86
-9.65
-4.24
3.54
13.26
23.86
34.00
42.34
47.95
50.52
50.29
47.94
44.29
40.19
36.31
33.07
30.60
28.80
27.41
26.12
24.70
22.98
20.84
18.22
15.22
12.10
9.20
6.84
5.01
3.41
1.51
-1.12
-4.60
-8.64
-12.72
-16.29
-19.04
-20.95
-22.14
-22.83
-23.19
-23.51
-24.27
-26.20
-30.12
-36.51
-44.99
-53.96
-60.81
-62.70
-57.70
-45.66
-28.41
-9.03
9.30
24.44
35.64
43.21
47.66
49.17
47.52
42.70
35.50
27.54
20.73
16.43
14.77
14.82
15.26
15.27
14.97
15.15
16.51
18.97
21.59
23.10
22.86
21.34
19.89
19.98
22.14
25.58
28.50
29.08
26.49
21.33
15.30
10.28
7.26
6.02
5.34
3.79
0.48
-4.53
-10.36
-15.66
-19.03
-19.27
-15.67
-8.24
2.06
13.37
23.38
30.08
32.34
30.19
24.52
16.49
7.09
-2.88
-12.64
-21.23
-27.67
-31.37
-32.54
-32.15
-31.43
-31.18
-31.28
-30.83
-28.73
-24.34
-17.92
-10.38
-2.85
3.87
9.48
14.00
17.48
19.75
20.54
19.80
17.92
15.73
14.05
13.21
12.73
11.50
8.30
2.44
-5.80
-15.31
-24.45
-31.60
-35.57
-35.79
-32.43
-26.23
-18.41
-10.39
-3.56
1.11
3.28
3.31
2.05
0.41
-0.98
-1.97
-2.79
-3.79
-5.12
-6.63
-7.95
-8.73
-8.81
-8.27
-7.29
-6.01
-4.51
-2.81
-1.04
0.52
1.58
1.95
1.63
0.79
-0.39
-1.83
-3.59
-5.69
-7.98
-10.17
-11.91
-13.05
-13.80
-14.64
-16.13
-18.60
-21.96
-25.76
-29.25
-31.50
-31.51
-28.35
-21.52
-11.25
1.27
14.19
25.52
33.89
38.90
41.15
41.60
40.99
39.60
37.46
34.76
32.03
29.88
28.47
27.19
24.88
20.38
13.29
4.04
-6.18
-16.10
-24.61
-30.97
-34.68
-35.39
-33.14
-28.43
-22.36
-16.31
-11.51
-8.74
-8.09
-9.07
-10.64
-11.38
-9.86
-5.29
1.90
9.99
16.59
19.83
19.38
16.66
14.04
13.47
15.36
18.53
21.15
21.99
21.15
19.76
19.06
19.49
20.43
20.72
19.52
16.86
13.52
10.59
8.81
8.35
9.03
10.72
13.55
17.59
22.26
25.81
25.55
18.86
4.54
-16.20
-39.84
-61.68
-77.55
-85.14
-84.38
-76.90
-65.09
-51.27
-37.41
-25.18
-16.10
-11.26
-11.00
-14.60
-20.50
-26.90
-32.44
-36.55
-39.47
-41.98
-44.98
-49.12
-54.28
-59.21
-61.46
-57.93
-46.00
-25.07
2.70
32.67
59.30
78.18
87.53
88.45
83.87
77.01
70.14
64.11
58.77
53.64
48.55
43.84
40.25
38.50
38.85
40.73
42.72
43.10
40.65
35.41
28.83
23.01
19.55
18.52
18.43
17.15
13.23
6.77
-0.79
-7.71
-13.15
-17.57
-22.18
-27.83
-34.22
-39.93
-43.34
-43.73
-41.86
-39.66
-39.18
-41.55
-46.37
-51.89
-55.81
-56.08
-51.55
-42.08
-28.50
-12.28
4.75
20.79
34.38
44.59
51.05
53.77
53.07
49.44
43.69
37.03
30.90
26.64
24.92
25.55
27.56
29.78
31.38
32.11
32.01
31.00
28.60
24.25
17.88
10.23
2.83
-2.78
-5.76
-6.48
-6.18
-6.30
-7.71
-10.36
-13.51
-16.26
-18.07
-18.95
-19.40
-20.05
-21.43
-23.69
-26.54
-29.24
-30.67
-29.69
-25.46
-17.84
-7.54
4.10
15.51
25.44
33.32
39.23
43.57
46.60
48.20
47.99
45.69
41.54
36.41
31.54
28.05
26.55
26.97
28.70
30.89
32.69
33.41
32.69
30.50
27.15
23.25
19.45
16.22
13.64
11.57
9.87
8.54
7.66
7.18
6.70
5.64
3.59
0.67
-2.53
-5.30
-7.51
-9.86
-13.56
-19.60
-27.96
-37.23
-45.13
-49.45
-48.99
-44.00
-35.91
-26.64
-17.92
-10.84
-5.90
-3.16
-2.50
-3.83
-6.97
-11.58
-16.98
-22.11
-25.85
-27.41
-26.79
-24.78
-22.64
-21.34
-20.87
-20.03
-16.97
-10.15
0.59
13.68
26.36
35.85
40.61
40.84
38.04
34.04
30.10
26.57
23.36
20.47
18.38
17.67
18.32
19.33
18.81
14.98
7.11
-3.89
-15.85
-26.30
-33.51
-37.06
-37.67
-36.63
-35.28
-34.61
-35.31
-37.66
-41.45
-45.87
-49.67
-51.50
-50.46
-46.51
-40.42
-33.47
-26.89
-21.48
-17.46
-14.65
-12.64
-10.85
-8.66
-5.50
-1.16
4.05
9.32
13.68
16.60
18.19
19.03
19.63
19.98
19.60
18.02
15.41
12.76
11.49
12.54
15.84
20.26
24.22
26.57
26.96
25.77
23.55
20.65
17.10
13.05
9.13
6.55
6.76
10.71
18.22
27.82
37.04
43.28
44.64
40.58
31.88
20.07
6.52
-8.06
-23.68
-40.40
-57.60
-73.56
-85.89
-92.40
-91.97
-85.10
-73.60
-59.98
-46.73
-35.75
-28.15
-24.09
-22.96
-23.47
-24.13
-23.79
-22.07
-19.51
-17.20
-16.17
-16.78
-18.62
-20.73
-22.07
-22.03
-20.56
-18.18
-15.82
-14.65
-15.67
-19.38
-25.41
-32.41
-38.29
-40.78
-38.12
-29.70
-16.42
-0.36
15.77
29.58
39.67
45.85
48.86
49.74
49.28
47.79
45.20
41.44
36.71
31.47
26.33
21.84
18.34
15.96
14.58
13.82
13.00
11.27
7.90
2.53
-4.60
-12.83
-21.33
-29.24
-35.61
-39.34
-39.17
-34.12
-24.16
-10.78
3.14
14.17
19.65
18.78
12.76
4.00
-5.08
-12.94
-18.99
-22.98
-24.22
-21.49
-13.67
-0.65
15.90
32.92
46.88
55.26
57.40
54.56
49.21
43.81
39.94
37.82
36.62
35.10
32.45
28.86
25.31
23.10
22.90
24.23
25.55
25.13
21.98
16.45
10.06
4.63
1.32
0.14
0.24
0.51
0.34
-0.28
-0.95
-1.31
-1.42
-1.79
-3.12
-5.87
-9.82
-13.82
-16.05
-14.53
-8.02
3.37
18.02
33.32
46.72
56.58
62.62
65.63
66.76
66.78
65.75
63.20
58.60
51.79
43.17
33.67
24.44
16.53
10.60
6.83
4.94
4.35
4.40
4.50
4.26
3.53
2.36
0.87
-0.80
-2.50
-4.16
-5.71
-7.08
-8.24
-9.24
-10.25
-11.58
-13.62
-16.59
-20.46
-24.74
-28.69
-31.51
-32.70
-32.19
-30.50
-28.43
-26.78
-25.96
-25.77
-25.60
-24.80
-23.09
-20.86
-19.04
-18.58
-19.89
-22.59
-25.67
-27.98
-28.88
-28.44
-27.35
-26.44
-26.12
-26.27
-26.36
-25.84
-24.53
-22.75
-21.18
-20.56
-21.28
-23.31
-26.15
-29.11
-31.56
-33.20
-34.04
-34.35
-34.48
-34.73
-35.30
-36.28
-37.57
-38.80
-39.28
-38.04
-34.06
-26.60
-15.61
-1.89
12.95
26.90
38.14
45.54
48.91
48.95
46.73
43.24
38.93
33.82
27.87
21.43
15.46
11.11
9.03
8.88
9.40
9.16
7.42
4.56
1.72
-0.07
-0.67
-0.83
-1.71
-3.96
-7.35
-10.98
-13.94
-15.84
-16.97
-17.87
-19.03
-20.64
-22.70
-25.07
-27.51
-29.54
-30.35
-28.99
-24.90
-18.25
-10.02
-1.61
5.77
11.60
16.15
20.19
24.58
29.83
35.95
42.46
48.59
53.35
55.78
55.06
50.75
42.98
32.59
21.09
10.34
1.96
-3.09
-4.85
-4.12
-2.07
0.29
2.30
3.69
4.24
3.62
1.40
-2.62
-8.17
-14.41
-20.20
-24.57
-27.07
-27.89
-27.65
-27.07
-26.81
-27.31
-28.76
-31.15
-34.02
-36.45
-37.06
-34.42
-27.73
-17.28
-4.67
7.70
17.45
23.22
25.05
24.30
22.95
22.73
24.49
28.00
32.27
36.19
39.03
40.65
41.31
41.28
40.40
38.05
33.47
26.37
17.28
7.60
-1.00
-7.39
-11.43
-13.88
-15.79
-17.80
-19.86
-21.37
-21.86
-21.31
-20.33
-19.66
-19.74
-20.40
-21.05
-21.12
-20.50
-19.62
-19.17
-19.60
-20.65
-21.38
-20.55
-17.22
-11.37
-3.99
3.27
8.80
11.70
12.08
10.78
8.81
6.74
4.55
1.93
-1.24
-4.51
-7.02
-7.91
-6.91
-4.48
-1.55
0.99
2.65
3.45
3.54
2.98
1.67
-0.43
-3.05
-5.67
-7.83
-9.58
-11.47
-14.30
-18.48
-23.83
-29.63
-35.13
-40.00
-44.40
-48.68
-52.96
-56.96
-60.11
-61.78
-61.36
-58.20
-51.49
-40.46
-24.87
-5.52
15.56
35.69
52.64
65.38
74.27
80.33
84.28
85.86
84.12
78.28
68.77
57.54
47.34
40.46
37.63
37.75
38.64
38.35
36.19
32.90
30.01
28.74
29.31
30.66
31.07
28.89
23.32
14.78
4.75
-4.77
-11.99
-15.97
-16.93
-16.15
-15.40
-16.28
-19.67
-25.44
-32.55
-39.40
-44.22
-45.47
-42.19
-34.18
-22.11
-7.49
7.68
21.37
31.91
38.45
41.04
40.54
38.34
35.84
34.07
33.31
33.23
33.25
32.99
32.65
32.88
34.25
36.64
38.96
39.56
37.05
31.23
23.38
15.75
10.42
8.28
8.65
9.79
9.87
7.91
4.08
-0.72
-5.61
-10.28
-14.99
-20.09
-25.51
-30.53
-34.12
-35.63
-35.28
-34.16
-33.61
-34.48
-36.59
-38.80
-39.60
-37.89
-33.45
-26.94
-19.50
-12.20
-5.69
-0.23
4.06
7.05
8.50
8.20
6.27
3.20
-0.15
-2.91
-4.40
-4.45
-3.35
-1.72
-0.19
0.87
1.46
1.79
2.10
2.41
2.44
1.78
0.16
-2.35
-5.29
-8.00
-9.84
-10.53
-10.23
-9.38
-8.52
-7.99
-7.85
-7.96
-8.24
-8.80
-9.98
-12.20
-15.54
-19.53
-23.09
-24.86
-23.69
-19.17
-11.82
-2.96
5.82
13.15
18.26
21.05
21.83
21.01
18.93
15.90
12.32
8.83
6.19
4.88
4.96
5.85
6.63
6.49
5.13
2.95
0.80
-0.48
-0.59
0.08
0.64
0.12
-1.96
-5.41
-9.45
-13.12
-15.79
-17.34
-18.17
-18.90
-20.00
-21.55
-23.30
-24.80
-25.62
-25.44
-24.11
-21.51
-17.62
-12.47
-6.24
0.64
7.60
13.93
19.01
22.35
23.75
23.29
21.30
18.27
14.73
11.16
7.95
5.33
3.47
2.43
2.24
2.81
3.93
5.28
6.46
7.17
7.24
6.68
5.60
4.14
2.44
0.58
-1.34
-3.20
-4.91
-6.51
-8.15
-10.11
-12.61
-15.67
-18.92
-21.71
-23.19
-22.62
-19.65
-14.49
-7.82
-0.62
6.20
11.98
16.47
19.69
21.76
22.77
22.64
21.33
18.89
15.65
12.16
9.00
6.63
5.24
4.75
4.89
5.37
5.84
5.96
5.42
3.99
1.72
-1.13
-4.07
-6.63
-8.57
-10.00
-11.21
-12.51
-13.99
-15.46
-16.76
-17.92
-19.28
-21.25
-23.85
-26.45
-27.81
-26.64
-22.23
-14.93
-6.02
2.81
10.21
15.63
19.24
21.55
22.86
23.14
22.13
19.70
16.20
12.35
9.01
6.74
5.54
4.95
4.29
3.13
1.53
0.09
-0.49
0.24
1.94
3.60
3.88
1.78
-2.85
-9.20
-15.91
-21.70
-25.84
-28.36
-29.75
-30.57
-31.25
-32.04
-33.22
-35.07
-37.69
-40.69
-43.01
-43.16
-39.90
-32.92
-23.09
-12.16
-2.02
6.08
11.81
15.45
17.37
17.58
15.78
11.83
6.26
0.31
-4.44
-6.79
-6.45
-4.11
-1.02
1.69
3.37
3.99
3.86
3.27
2.29
0.81
-1.32
-4.13
-7.47
-10.99
-14.23
-16.83
-18.65
-19.93
-21.25
-23.24
-26.34
-30.53
-35.45
-40.59
-45.55
-50.12
-54.10
-57.10
-58.55
-57.95
-55.20
-50.65
-44.66
-37.08
-26.97
-12.98
5.67
28.22
52.17
74.05
90.83
101.16
106.05
108.31
111.25
117.44
127.78
141.34
155.69
167.53
173.43
170.73
158.33
137.27
110.60
82.52
56.99
36.45
21.28
10.10
0.90
-7.81
-16.49
-24.64
-31.51
-36.74
-40.56
-43.49
-45.90
-47.82
-49.09
-49.70
-50.10
-51.10
-53.36
-56.87
-60.61
-62.90
-62.03
-57.08
-48.31
-37.01
-24.91
-13.50
-3.65
4.29
10.15
13.72
14.80
13.44
10.14
5.81
1.36
-2.62
-5.98
-8.85
-11.21
-12.72
-12.80
-11.04
-7.55
-3.12
0.95
3.32
3.21
0.77
-2.92
-6.31
-8.15
-8.20
-7.35
-7.20
-8.94
-12.58
-16.75
-19.52
-19.59
-17.27
-14.29
-12.78
-13.90
-17.12
-20.57
-22.23
-21.08
-17.48
-12.59
-7.42
-2.16
3.73
10.81
18.98
27.24
34.18
38.63
40.16
39.05
35.80
30.83
24.35
16.68
8.55
1.14
-4.34
-7.25
-7.86
-7.37
-7.17
-8.12
-10.16
-12.49
-14.20
-15.07
-15.73
-17.29
-20.52
-25.07
-29.61
-32.38
-32.25
-29.30
-24.77
-20.31
-17.11
-15.42
-14.76
-14.58
-14.77
-15.62
-17.28
-19.24
-20.08
-18.11
-12.23
-2.71
8.83
20.17
29.48
35.99
39.89
41.76
42.03
40.71
37.80
33.64
29.13
25.39
23.20
22.61
23.03
23.66
24.02
24.14
24.26
24.48
24.45
23.59
21.51
18.36
14.85
11.78
9.63
8.18
6.81
5.00
2.78
0.80
-0.21
-0.04
0.71
0.82
-0.77
-4.31
-8.89
-12.95
-15.08
-14.74
-12.53
-9.78
-7.81
-7.24
-7.80
-8.63
-8.77
-7.69
-5.40
-2.39
0.71
3.39
5.35
6.52
6.93
6.70
6.00
5.10
4.24
3.59
3.16
2.94
3.07
3.87
5.65
8.43
11.61
14.02
14.38
11.98
7.11
1.09
-4.36
-7.93
-9.37
-9.51
-9.72
-11.16
-14.25
-18.62
-23.38
-27.68
-30.87
-32.51
-32.25
-29.76
-24.79
-17.41
-8.22
1.68
10.88
17.97
21.96
22.44
19.78
14.93
9.25
3.99
-0.04
-2.76
-4.68
-6.52
-8.80
-11.51
-14.26
-16.50
-17.83
-17.92
-16.48
-13.19
-8.09
-1.93
3.71
6.81
5.77
0.27
-8.45
-18.06
-26.07
-30.85
-32.04
-30.42
-27.39
-24.42
-22.73
-23.06
-25.46
-29.17
-32.64
-34.02
-31.84
-25.76
-16.83
-7.06
1.23
6.41
7.89
6.26
2.72
-1.23
-4.19
-4.98
-2.73
2.88
11.36
21.35
30.90
38.09
41.75
41.80
39.15
34.99
30.17
24.89
18.91
12.01
4.47
-2.83
-8.80
-12.73
-14.63
-15.23
-15.70
-17.07
-19.97
-24.35
-29.64
-34.87
-38.85
-40.37
-38.37
-32.16
-21.69
-7.82
7.66
22.41
34.16
41.52
44.35
43.61
40.63
36.37
31.08
24.62
17.22
9.95
4.62
2.92
5.41
10.89
16.83
20.48
20.18
16.06
9.74
3.34
-1.58
-4.58
-6.15
-7.11
-8.00
-8.94
-9.90
-10.99
-12.58
-15.13
-18.67
-22.59
-25.61
-26.30
-23.66
-17.50
-8.57
1.78
12.05
21.04
28.03
32.82
35.57
36.60
36.23
34.72
32.31
29.33
26.25
23.62
21.91
21.32
21.71
22.77
24.22
26.01
28.29
31.19
34.58
38.06
41.13
43.52
45.36
46.91
48.30
49.15
48.70
46.23
41.62
35.52
28.99
22.96
17.82
13.53
9.90
6.87
4.44
2.29
-0.36
-4.60
-11.21
-20.06
-30.02
-39.39
-46.69
-51.18
-52.92
-52.45
-50.40
-47.28
-43.52
-39.52
-35.61
-31.91
-28.20
-24.09
-19.38
-14.19
-9.06
-4.64
-1.53
-0.13
-0.69
-3.39
-8.19
-14.67
-21.80
-28.14
-32.25
-33.34
-31.53
-27.64
-22.59
-16.82
-10.16
-2.23
6.87
16.17
24.07
29.01
30.35
28.66
25.48
22.46
20.49
19.35
17.90
14.86
9.50
2.06
-6.52
-15.02
-22.49
-28.54
-33.20
-36.51
-38.23
-37.80
-34.75
-29.23
-22.23
-15.23
-9.61
-6.03
-4.33
-3.93
-4.47
-6.12
-9.29
-14.06
-19.73
-24.92
-28.16
-28.73
-27.01
-24.31
-22.10
-21.37
-22.26
-24.19
-26.21
-27.42
-27.15
-25.01
-20.94
-15.21
-8.51
-1.83
3.68
7.10
7.91
6.18
2.54
-2.06
-6.60
-10.38
-13.19
-15.35
-17.33
-19.32
-20.83
-20.80
-18.11
-12.36
-4.27
4.40
11.53
15.49
15.58
12.10
5.93
-1.89
-10.40
-18.58
-25.24
-29.18
-29.48
-26.05
-19.92
-13.04
-7.65
-5.41
-6.68
-10.30
-13.98
-15.21
-12.24
-4.73
6.13
18.17
29.14
37.42
42.51
44.88
45.42
44.84
43.28
40.40
35.78
29.52
22.45
15.96
11.47
9.72
10.44
12.53
14.57
15.51
15.02
13.45
11.52
9.79
8.45
7.29
5.87
3.77
0.77
-3.02
-7.24
-11.40
-15.19
-18.70
-22.29
-26.28
-30.48
-33.88
-34.88
-31.96
-24.58
-13.59
-1.05
10.68
19.93
26.29
30.44
33.40
35.74
37.18
36.97
34.56
30.23
25.17
21.00
19.05
19.78
22.70
26.68
30.56
33.50
35.26
35.99
35.96
35.33
34.00
31.73
28.46
24.56
20.91
18.50
17.78
18.04
17.38
13.31
3.84
-11.43
-30.87
-51.18
-68.44
-79.28
-81.82
-75.97
-63.24
-46.15
-27.56
-10.00
4.65
15.32
21.64
23.79
22.35
18.31
13.14
8.59
6.33
7.28
11.10
16.31
20.88
23.18
22.68
20.13
17.00
14.66
13.73
13.93
14.39
14.27
13.12
10.87
7.48
2.53
-4.71
-14.78
-27.30
-40.68
-52.38
-60.03
-62.53
-60.60
-56.40
-52.26
-49.33
-46.95
-43.14
-35.94
-24.81
-11.20
2.04
12.04
17.31
18.34
17.15
16.08
16.58
18.52
20.60
21.13
19.15
14.92
9.77
5.45
3.29
3.72
6.19
9.61
12.88
15.33
16.82
17.59
17.77
17.25
15.66
12.64
8.32
3.38
-1.09
-4.18
-5.56
-5.77
-5.90
-7.02
-9.58
-13.26
-17.17
-20.34
-22.26
-22.97
-22.95
-22.75
-22.85
-23.56
-25.17
-27.86
-31.49
-35.34
-37.95
-37.51
-32.53
-22.70
-9.20
5.53
18.68
28.16
33.14
34.14
32.36
28.99
24.79
20.12
15.33
11.03
8.08
7.27
8.91
12.55
17.10
21.22
23.78
24.24
22.70
19.85
16.57
13.66
11.50
10.05
8.89
7.53
5.72
3.51
1.27
-0.58
-1.87
-2.80
-3.85
-5.45
-7.67
-10.10
-12.09
-13.04
-12.79
-11.77
-10.81
-10.83
-12.48
-15.90
-20.66
-25.87
-30.36
-32.87
-32.32
-28.10
-20.30
-9.84
1.68
12.34
20.55
25.41
27.02
26.32
24.67
23.24
22.58
22.50
22.33
21.47
19.73
17.49
15.45
14.21
13.91
14.26
14.73
14.94
14.82
14.53
14.22
13.76
12.75
10.75
7.62
3.73
-0.16
-3.23
-4.91
-5.15
-4.32
-3.09
-2.14
-1.93
-2.59
-3.96
-5.62
-7.18
-8.38
-9.31
-10.42
-12.28
-15.25
-19.04
-22.62
-24.49
-23.29
-18.46
-10.50
-0.86
8.66
16.60
22.18
25.28
26.25
25.47
23.30
20.12
16.39
12.64
9.43
7.10
5.77
5.36
5.65
6.38
7.28
8.06
8.50
8.53
8.21
7.67
6.98
6.06
4.75
2.88
0.49
-2.18
-4.81
-7.16
-9.14
-10.78
-12.10
-13.09
-13.71
-14.08
-14.51
-15.42
-17.20
-19.99
-23.63
-27.70
-31.58
-34.56
-35.86
-34.76
-30.81
-24.01
-14.99
-4.90
4.97
13.54
20.26
25.11
28.30
30.03
30.30
29.02
26.31
22.71
19.21
17.00
16.97
19.31
23.48
28.42
33.01
36.54
38.85
40.25
41.18
41.90
42.40
42.63
42.63
42.72
43.28
44.33
45.25
44.88
41.98
35.97
27.23
17.05
7.05
-1.56
-8.30
-13.38
-17.28
-20.47
-23.23
-25.85
-28.66
-31.95
-35.64
-39.02
-40.85
-39.90
-35.57
-28.35
-19.69
-11.51
-5.44
-2.29
-1.78
-2.87
-4.24
-4.85
-4.38
-3.27
-2.53
-3.16
-5.64
-9.60
-13.97
-17.41
-18.94
-18.32
-15.98
-12.70
-9.16
-5.77
-2.77
-0.43
0.86
0.62
-1.43
-5.20
-10.18
-15.57
-20.51
-24.35
-26.76
-27.87
-28.25
-28.82
-30.44
-33.54
-37.74
-41.87
-44.45
-44.42
-41.68
-37.10
-32.01
-27.51
-24.04
-21.45
-19.39
-17.73
-16.66
-16.44
-17.13
-18.43
-19.81
-20.72
-20.61
-18.94
-15.05
-8.43
0.93
12.16
23.52
33.01
39.02
40.91
39.00
34.20
27.44
19.46
10.88
2.50
-4.54
-8.98
-9.88
-7.06
-1.26
5.97
12.80
17.72
20.12
20.55
20.34
20.90
22.79
25.25
26.42
24.34
18.12
8.63
-1.92
-10.97
-16.92
-19.63
-20.06
-19.35
-18.02
-16.03
-13.32
-10.60
-9.35
-11.15
-16.54
-24.42
-32.29
-37.40
-38.14
-34.58
-28.28
-21.16
-14.65
-9.31
-5.16
-2.25
-0.98
-1.94
-5.38
-10.67
-16.31
-20.35
-21.24
-18.57
-13.32
-7.54
-3.44
-2.43
-4.44
-8.10
-11.50
-13.31
-13.33
-12.42
-11.50
-10.76
-9.31
-5.76
0.66
9.36
18.37
25.33
28.63
28.26
25.65
22.79
21.11
20.83
21.10
20.69
18.89
15.90
12.77
10.80
10.78
12.64
15.43
17.82
18.71
17.74
15.35
12.47
9.95
8.16
6.90
5.64
