1551736979.00
64.000000
-0.00
-0.00
-0.00
-0.00
-0.00
-0.00
-0.00
-0.00
-0.00
-0.00
0.00
0.01
0.01
-0.00
-0.03
-0.05
-0.05
0.00
0.13
0.36
0.66
1.01
1.37
1.72
2.06
2.40
2.79
3.24
3.80
4.42
5.06
5.66
6.20
6.68
7.15
7.68
8.31
9.14
10.09
11.04
11.88
12.56
13.14
13.76
14.65
15.96
17.91
20.32
22.90
25.38
27.58
29.57
31.68
34.32
37.81
42.54
48.15
54.10
59.83
64.97
69.58
74.14
79.34
85.71
93.76
103.00
112.62
121.73
129.77
136.75
143.30
150.75
157.77
166.64
177.95
191.79
206.97
220.57
228.25
225.36
208.53
176.87
132.76
80.05
23.07
-34.94
-92.44
-149.16
-205.23
-260.37
-313.74
-363.87
-409.83
-450.91
-486.50
-515.74
-537.23
-549.22
-549.96
-538.37
-514.21
-478.67
-433.88
-382.45
-327.02
-269.84
-212.63
-156.66
-102.95
-52.37
-5.90
35.58
71.43
101.35
125.50
144.38
158.69
169.15
176.37
180.75
182.57
182.07
179.51
175.23
169.65
163.18
156.15
148.81
141.30
133.69
126.02
118.33
110.69
103.16
95.80
88.68
81.83
75.25
68.95
62.95
57.25
51.86
46.78
42.03
37.59
33.45
29.61
26.07
22.81
19.83
17.11
14.67
12.48
10.54
8.83
7.35
6.07
4.97
4.05
3.27
2.62
2.09
1.65
1.30
1.01
0.79
0.61
0.48
0.37
0.29
0.24
0.20
0.18
0.17
0.17
0.18
0.20
0.23
0.26
0.30
0.34
0.39
0.43
0.48
0.53
0.58
0.63
0.69
0.75
0.81
0.88
0.95
1.03
1.12
1.22
1.33
1.45
1.59
1.75
1.93
2.12
2.34
2.58
2.85
3.15
3.47
3.83
4.23
4.65
5.12
5.62
6.16
6.74
7.36
8.03
8.74
9.49
10.29
11.14
12.03
12.97
13.95
15.00
16.11
17.29
18.52
19.81
21.10
22.38
23.54
24.51
25.18
25.40
25.08
24.10
22.40
19.97
16.83
13.04
8.75
4.15
-0.58
-5.21
-9.54
-13.39
-16.61
-19.10
-20.81
-21.72
-21.91
-21.43
-20.38
-18.87
-17.00
-14.87
-12.57
-10.15
-7.66
-5.18
-2.74
-0.37
1.91
4.12
6.24
8.29
10.29
12.33
14.34
16.35
18.42
20.60
22.94
25.46
28.17
31.13
34.46
37.99
41.70
45.60
49.73
54.10
58.68
63.44
68.41
73.75
79.17
84.63
90.20
95.93
101.81
107.68
113.39
118.81
124.03
128.63
132.58
135.93
138.63
140.25
139.94
136.27
127.20
115.25
101.22
85.96
70.34
54.98
40.06
25.27
9.95
-6.44
-23.99
-42.89
-62.60
-82.30
-101.30
-119.39
-136.81
-154.24
-172.49
-192.45
-215.40
-241.87
-271.11
-300.59
-326.16
-343.05
-347.40
-337.80
-315.82
-285.82
-252.84
-221.06
-192.73
-168.32
-147.20
-128.66
-112.34
-98.09
-85.80
-74.94
-64.71
-54.44
-43.98
-33.76
-24.63
-17.34
-12.07
-8.33
-4.93
-0.54
5.79
14.18
23.96
33.87
42.62
49.35
53.77
56.15
57.05
57.01
56.47
55.60
54.47
53.00
51.18
49.08
46.96
45.13
43.94
43.48
43.58
43.80
43.64
42.77
41.16
39.06
36.78
34.52
32.30
29.94
27.28
24.30
21.10
17.87
14.73
11.72
8.83
6.14
3.90
2.50
2.35
3.73
6.61
10.71
15.53
20.47
25.02
28.75
31.47
33.11
33.71
33.37
32.20
30.36
28.05
25.55
23.13
21.06
19.48
18.39
17.68
17.15
16.70
16.33
16.15
16.22
16.50
16.77
16.67
15.87
14.18
11.69
8.70
5.64
2.84
0.43
-1.67
-3.75
-6.14
-9.10
-12.73
-16.84
-20.93
-24.22
-25.82
-25.04
-21.63
-15.96
-8.90
-1.58
5.01
10.30
14.22
17.04
19.13
20.76
22.07
23.04
23.62
23.83
23.70
23.29
22.63
21.76
20.71
19.63
18.74
18.31
18.53
19.37
20.53
21.52
21.81
21.08
19.41
17.18
14.91
13.02
11.66
10.65
9.69
8.46
6.79
4.69
2.31
-0.14
-2.45
-4.47
-6.18
-7.68
-9.28
-11.36
-14.25
-18.02
-22.32
-26.37
-29.12
-29.62
-27.32
-22.34
-15.38
-7.53
0.06
6.57
11.56
15.07
17.39
18.90
19.91
20.56
20.85
20.66
19.98
18.85
17.47
16.08
14.85
13.85
13.04
12.34
11.71
11.20
10.85
10.71
10.62
10.38
9.74
8.59
7.03
5.31
3.77
2.59
1.82
1.22
0.51
-0.53
-1.92
-3.50
-5.04
-6.35
-7.48
-8.64
-10.17
-12.39
-15.41
-19.05
-22.83
-26.00
-27.71
-27.29
-24.40
-19.21
-12.44
-5.09
1.80
7.43
11.45
13.89
15.10
15.53
15.62
15.64
15.72
15.81
15.78
15.48
14.91
14.17
13.53
13.27
13.51
14.17
15.00
15.67
15.95
15.77
15.18
14.25
13.06
11.62
9.98
8.26
6.67
5.43
4.66
4.30
4.10
3.70
2.75
1.12
-1.07
-3.53
-5.80
-7.53
-8.59
-9.18
-9.75
-10.89
-13.07
-16.42
-20.65
-24.99
-28.46
-30.09
-29.29
-26.04
-20.92
-14.93
-9.15
-4.45
-1.19
0.70
1.60
1.97
2.16
2.31
2.40
2.37
2.14
1.73
1.17
0.51
-0.19
-0.79
-1.16
-1.16
-0.72
0.06
0.98
1.74
2.11
1.98
1.35
0.33
-0.94
-2.27
-3.52
-4.55
-5.24
-5.59
-5.66
-5.67
-5.87
-6.49
-7.59
-9.08
-10.68
-12.06
-13.01
-13.45
-13.56
-13.67
-14.21
-15.54
-17.82
-20.91
-24.28
-27.13
-28.60
-28.02
-25.16
-20.38
-14.48
-8.49
-3.34
0.41
2.57
3.33
3.06
2.19
1.06
-0.03
-0.94
-1.61
-2.01
-2.24
-2.31
-2.30
-2.20
-1.99
-1.62
-1.04
-0.27
0.63
1.48
2.15
2.48
2.43
1.98
1.17
0.05
-1.34
-2.89
-4.43
-5.73
-6.57
-6.87
-6.74
-6.45
-6.37
-6.77
-7.70
-8.96
-10.16
-10.94
-11.09
-10.72
-10.15
-9.87
-10.26
-11.54
-13.66
-16.32
-19.08
-21.39
-22.67
-22.39
-20.29
-16.39
-11.17
-5.41
-0.03
4.22
6.90
7.98
7.79
6.79
5.49
4.25
3.30
2.74
2.52
2.59
2.90
3.40
4.09
4.97
5.98
7.02
8.00
8.82
9.46
9.98
10.42
10.79
11.03
10.99
10.60
9.85
8.93
8.13
7.77
7.99
8.66
9.46
9.96
9.84
9.08
7.93
6.80
6.09
5.99
6.40
7.02
7.45
7.33
6.42
4.64
2.10
-0.88
-3.78
-5.95
-6.77
-5.85
-3.18
0.80
5.31
9.39
12.25
13.48
13.11
11.51
9.24
6.80
4.56
2.62
1.00
-0.33
-1.32
-1.87
-1.84
-1.21
-0.09
1.26
2.56
3.57
4.26
4.70
5.01
5.27
5.42
5.34
4.88
4.04
2.97
1.93
1.15
0.73
0.56
0.44
0.19
-0.23
-0.71
-1.11
-1.32
-1.43
-1.68
-2.39
-3.86
-6.19
-9.20
-12.50
-15.47
-17.41
-17.77
-16.24
-12.93
-8.37
-3.34
1.26
4.73
6.68
7.12
6.35
4.84
3.06
1.36
0.00
-0.90
-1.33
-1.31
-0.91
-0.19
0.79
2.02
3.45
5.07
6.78
8.50
10.11
11.53
12.71
13.62
14.23
14.52
14.43
13.95
13.14
12.07
10.91
9.81
8.89
8.21
7.70
7.27
6.69
5.82
4.52
2.72
0.39
-2.40
-5.50
-8.57
-11.10
-12.46
-12.17
-10.02
-6.32
-1.81
2.54
5.86
7.66
7.96
7.12
5.66
4.01
2.38
0.84
-0.62
-1.97
-3.09
-3.83
-4.05
-3.79
-3.16
-2.38
-1.66
-1.12
-0.79
-0.59
-0.44
-0.26
-0.09
-0.06
-0.34
-1.06
-2.21
-3.61
-5.01
-6.13
-6.85
-7.24
-7.53
-8.00
-8.93
-10.46
-12.64
-15.36
-18.47
-21.64
-24.41
-26.18
-26.42
-24.81
-21.51
-17.08
-12.40
-8.32
-5.39
-3.72
-3.04
-2.93
-3.06
-3.30
-3.70
-4.30
-5.10
-5.93
-6.52
-6.63
-6.13
-5.06
-3.60
-1.95
-0.33
1.09
2.27
3.20
3.92
4.41
4.59
4.36
3.58
2.32
0.80
-0.61
-1.54
-1.86
-1.67
-1.37
-1.44
-2.23
-3.86
-6.18
-8.93
-11.83
-14.61
-16.99
-18.57
-18.89
-17.54
-14.44
-9.94
-4.86
-0.19
3.24
5.02
5.29
4.61
3.64
2.93
2.70
2.90
3.32
3.73
4.01
4.15
4.26
4.46
4.82
5.33
5.91
6.41
6.76
6.89
6.85
6.70
6.50
6.27
5.98
5.57
5.03
4.35
3.58
2.78
1.98
1.17
0.32
-0.62
-1.71
-3.01
-4.66
-6.78
-9.45
-12.58
-15.82
-18.55
-19.99
-19.49
-16.79
-12.20
-6.54
-0.87
3.89
7.20
9.07
9.84
9.96
9.79
9.52
9.20
8.88
8.66
8.63
8.85
9.27
9.79
10.29
10.72
11.15
11.69
12.43
13.38
14.37
15.13
15.38
14.95
13.85
12.34
10.82
9.71
9.26
9.47
10.08
10.69
10.96
10.73
10.06
9.21
8.44
7.91
7.60
7.28
6.63
5.33
3.19
0.18
-3.48
-7.27
-10.49
-12.33
-12.16
-9.77
-5.48
-0.09
5.33
9.77
12.58
13.59
13.09
11.68
10.03
8.67
7.90
7.75
8.10
8.72
9.45
10.24
11.13
12.21
13.51
14.97
16.41
17.67
18.60
19.08
19.12
18.74
17.99
16.99
15.84
14.65
13.48
12.37
11.34
10.39
9.50
8.65
7.81
6.95
6.00
4.91
3.64
2.09
0.11
-2.53
-5.97
-10.16
-14.69
-18.85
-21.70
-22.53
-21.04
-17.56
-12.98
-8.40
-4.77
-2.58
-1.80
-2.04
-2.82
-3.78
-4.75
-5.70
-6.60
-7.37
-7.85
-7.89
-7.43
-6.49
-5.15
-3.54
-1.82
-0.17
1.21
2.15
2.54
2.43
1.93
1.26
0.58
-0.01
-0.52
-1.01
-1.53
-2.20
-3.03
-4.04
-5.13
-6.21
-7.22
-8.16
-9.17
-10.48
-12.32
-14.81
-17.88
-21.19
-24.21
-26.32
-26.95
-25.79
-22.83
-18.49
-13.44
-8.57
-4.63
-2.09
-0.99
-0.96
-1.43
-1.88
-2.00
-1.77
-1.36
-0.92
-0.52
-0.10
0.41
0.97
1.50
1.90
2.14
2.34
2.70
3.36
4.34
5.46
6.47
7.16
7.46
7.42
7.15
6.74
6.21
5.51
4.62
3.54
2.43
1.48
0.86
0.55
0.42
0.15
-0.56
-1.90
-3.93
-6.59
-9.65
-12.80
-15.57
-17.41
-17.82
-16.51
-13.61
-9.70
-5.68
-2.40
-0.43
0.18
-0.14
-0.73
-0.98
-0.55
0.55
2.05
3.57
4.87
5.89
6.74
7.55
8.42
9.32
10.15
10.85
11.38
11.83
12.27
12.75
13.18
13.49
13.59
13.52
13.38
13.35
13.58
14.09
14.78
15.45
15.85
15.85
15.41
14.67
13.84
13.10
12.49
11.84
10.85
9.15
6.52
3.04
-0.89
-4.58
-7.23
-8.22
-7.29
-4.68
-1.06
2.67
5.71
7.54
8.10
7.68
6.73
5.70
4.92
4.53
4.63
5.18
6.19
7.57
9.19
10.87
12.46
13.85
15.08
16.22
17.29
18.28
19.07
19.54
19.59
19.26
18.64
17.83
16.90
15.83
14.62
13.27
11.86
10.52
9.33
8.34
7.45
6.50
5.35
3.90
2.17
0.15
-2.16
-4.79
-7.73
-10.72
-13.28
-14.79
-14.74
-12.96
-9.78
-5.92
-2.23
0.57
2.11
2.43
1.83
0.70
-0.55
-1.67
-2.51
-3.04
-3.35
-3.52
-3.56
-3.39
-2.92
-2.10
-1.07
-0.09
0.53
0.61
0.20
-0.45
-1.08
-1.52
-1.79
-2.09
-2.63
-3.57
-4.84
-6.29
-7.73
-9.08
-10.35
-11.59
-12.84
-14.10
-15.40
-16.81
-18.55
-20.83
-23.70
-26.87
-29.72
-31.46
-31.48
-29.58
-26.14
-21.94
-17.85
-14.56
-12.39
-11.26
-10.82
-10.70
-10.55
-10.24
-9.78
-9.25
-8.73
-8.21
-7.64
-6.94
-6.05
-4.98
-3.77
-2.40
-0.89
0.75
2.43
3.93
4.98
5.40
5.16
4.45
3.55
2.72
2.04
1.47
0.87
0.13
-0.76
-1.71
-2.57
-3.24
-3.69
-3.99
-4.29
-4.87
-6.00
-7.91
-10.66
-14.05
-17.52
-20.35
-21.83
-21.52
-19.48
-16.21
-12.48
-9.11
-6.61
-5.15
-4.57
-4.57
-4.83
-5.11
-5.31
-5.28
-4.93
-4.14
-2.94
-1.44
0.10
1.42
2.38
3.00
3.49
4.07
4.93
6.05
7.25
8.25
8.81
8.85
8.44
7.80
7.15
6.68
6.48
6.58
6.94
7.44
7.93
8.23
8.17
7.65
6.77
5.71
4.70
3.85
3.08
2.07
0.38
-2.30
-5.97
-10.19
-14.11
-16.79
-17.57
-16.32
-13.54
-10.16
-7.18
-5.29
-4.70
-5.11
-6.00
-6.80
-7.14
-6.87
-6.03
-4.79
-3.30
-1.71
-0.08
1.53
3.11
4.57
5.82
6.81
7.56
8.19
8.87
9.68
10.60
11.45
12.04
12.27
12.23
12.17
12.36
12.96
13.85
14.76
15.36
15.44
15.03
14.32
13.56
12.88
12.28
11.63
10.76
9.55
7.91
5.83
3.30
0.48
-2.36
-4.75
-6.18
-6.25
-4.90
-2.45
0.43
2.99
4.67
5.29
5.04
4.30
3.50
2.91
2.66
2.73
3.06
3.70
4.70
6.12
7.93
9.98
12.01
13.80
15.19
16.21
16.95
17.54
18.06
18.48
18.70
18.63
18.18
17.39
16.34
15.14
13.91
12.71
11.54
10.38
9.16
7.85
6.38
4.64
2.48
-0.28
-3.70
-7.68
-11.80
-15.47
-18.07
-19.12
-18.53
-16.54
-13.71
-10.68
-8.05
-6.23
-5.41
-5.54
-6.37
-7.61
-8.93
-10.11
-11.05
-11.71
-12.06
-12.04
-11.58
-10.67
-9.43
-8.08
-6.88
-6.03
-5.55
-5.38
-5.36
-5.41
-5.56
-5.90
-6.55
-7.53
-8.78
-10.13
-11.40
-12.43
-13.19
-13.73
-14.19
-14.75
-15.58
-16.83
-18.56
-20.71
-23.05
-25.20
-26.62
-26.81
-25.50
-22.79
-19.18
-15.38
-12.09
-9.74
-8.34
-7.63
-7.18
-6.66
-5.91
-4.95
-3.87
-2.77
-1.69
-0.63
0.41
1.45
2.47
3.40
4.17
4.71
5.00
5.12
5.16
5.21
5.25
5.12
4.60
3.51
1.88
-0.09
-2.08
-3.78
-5.10
-6.16
-7.17
-8.40
-10.01
-12.12
-14.77
-17.95
-21.47
-24.94
-27.68
-28.91
-28.06
-25.01
-20.22
-14.63
-9.21
-4.70
-1.35
1.04
2.93
4.71
6.60
8.55
10.39
11.98
13.23
14.18
14.86
15.30
15.47
15.35
14.92
14.25
13.48
12.77
12.30
12.18
12.38
12.70
12.90
12.68
11.89
10.55
8.81
6.91
5.03
3.25
1.55
-0.15
-1.89
-3.67
-5.52
-7.59
-10.09
-13.25
-17.03
-21.10
-24.76
-27.18
-27.63
-25.79
-21.82
-16.32
-10.10
-3.94
1.58
6.11
9.60
12.15
13.97
15.29
16.35
17.32
18.25
19.16
19.99
20.67
21.16
21.41
21.41
21.22
20.98
20.84
20.99
21.49
22.19
22.83
23.12
22.91
22.26
21.40
20.59
20.01
19.66
19.45
19.27
19.02
18.66
18.11
17.36
16.42
15.34
14.27
13.32
12.51
11.73
10.77
9.39
7.42
4.76
1.48
-2.18
-5.77
-8.69
-10.31
-10.24
-8.50
-5.58
-2.31
0.47
2.20
2.82
2.69
2.40
2.50
3.28
4.77
6.77
9.01
11.30
13.50
15.63
17.65
19.49
21.06
22.26
22.99
23.26
23.14
22.69
21.96
20.93
19.55
17.79
15.69
13.35
10.95
8.68
6.69
5.06
3.75
2.62
1.53
0.34
-0.95
-2.29
-3.63
-5.01
-6.63
-8.81
-11.75
-15.38
-19.28
-22.73
-25.02
-25.69
-24.74
-22.62
-20.06
-17.79
-16.28
-15.65
-15.72
-16.15
-16.60
-16.81
-16.62
-15.99
-14.87
-13.26
-11.15
-8.63
-5.92
-3.26
-0.95
0.80
1.98
2.70
3.13
3.47
3.78
4.08
4.32
4.51
4.67
4.81
4.89
4.83
4.58
4.14
3.61
3.13
2.79
2.53
2.13
1.28
-0.31
-2.79
-6.07
-9.85
-13.73
-17.19
-19.81
-21.27
-21.52
-20.69
-19.15
-17.34
-15.67
-14.38
-13.48
-12.80
-12.11
-11.22
-10.00
-8.46
-6.66
-4.72
-2.77
-0.95
0.66
2.00
3.11
4.11
5.17
6.40
7.81
9.31
10.66
11.65
12.17
12.27
12.10
11.83
11.56
11.33
11.13
10.98
10.90
10.88
10.83
10.60
9.98
8.94
7.62
6.30
5.21
4.44
3.78
2.87
1.24
-1.40
-5.05
-9.39
-13.85
-17.73
-20.46
-21.75
-21.64
-20.50
-18.81
-17.00
-15.34
-13.92
-12.75
-11.75
-10.84
-9.90
-8.82
-7.49
-5.87
-4.05
-2.21
-0.54
0.84
1.94
2.84
3.68
4.56
5.57
6.66
7.76
8.77
9.60
10.25
10.74
11.15
11.51
11.83
12.05
12.20
12.32
12.54
12.94
13.50
14.09
14.45
14.35
13.73
12.67
11.39
10.12
8.99
7.99
6.99
5.79
4.23
2.16
-0.52
-3.82
-7.67
-11.80
-15.78
-19.06
-21.15
-21.74
-20.89
-18.97
-16.58
-14.25
-12.29
-10.69
-9.20
-7.50
-5.43
-3.01
-0.49
1.84
3.81
5.42
6.87
8.39
10.11
12.02
13.93
15.63
17.02
18.18
19.31
20.57
22.05
23.67
25.27
26.73
28.02
29.20
30.33
31.38
32.30
32.99
33.45
33.80
34.19
34.69
35.21
35.52
35.32
34.44
32.90
30.88
28.70
26.59
24.65
22.76
20.63
17.94
14.43
10.05
5.03
-0.12
-4.69
-8.01
-9.63
-9.54
-8.17
-6.28
-4.65
-3.86
-4.11
-5.20
-6.68
-8.06
-8.99
-9.29
-8.91
-7.89
-6.34
-4.27
-1.79
0.98
3.89
6.76
9.47
11.92
14.09
15.94
17.45
18.55
19.16
19.20
18.68
17.66
16.21
14.45
12.45
10.27
7.93
5.45
2.81
0.07
-2.73
-5.53
-8.26
-10.91
-13.48
-16.06
-18.71
-21.43
-24.10
-26.46
-28.16
-28.88
-28.47
-26.97
-24.63
-21.87
-19.06
-16.59
-14.66
-13.42
-12.86
-12.86
-13.17
-13.47
-13.47
-12.99
-12.04
-10.80
-9.52
-8.40
-7.53
-6.89
-6.42
-6.05
-5.78
-5.67
-5.76
-6.12
-6.77
-7.74
-9.01
-10.58
-12.37
-14.32
-16.28
-18.10
-19.66
-20.92
-21.95
-23.02
-24.47
-26.58
-29.42
-32.66
-35.65
-37.57
-37.80
-36.13
-32.90
-28.84
-24.84
-21.62
-19.50
-18.45
-18.18
-18.32
-18.59
-18.85
-19.04
-19.07
-18.86
-18.29
-17.35
-16.05
-14.59
-13.18
-12.02
-11.15
-10.41
-9.58
-8.50
-7.21
-6.01
-5.34
-5.59
-6.80
-8.70
-10.72
-12.25
-12.98
-12.95
-12.62
-12.60
-13.45
-15.38
-18.22
-21.50
-24.57
-26.86
-27.96
-27.65
-25.89
-22.87
-18.92
-14.57
-10.38
-6.86
-4.26
-2.50
-1.28
-0.16
1.11
2.60
4.15
5.56
6.69
7.53
8.17
8.71
9.18
9.51
9.64
9.53
9.20
8.78
8.33
7.89
7.39
6.66
5.55
3.98
2.03
-0.15
-2.34
-4.40
-6.29
-8.11
-10.01
-12.19
-14.80
-17.86
-21.23
-24.50
-27.06
-28.25
-27.55
-24.86
-20.49
-15.09
-9.43
-4.16
0.30
3.83
6.48
8.47
10.07
11.53
12.99
14.49
15.92
17.12
17.96
18.45
18.72
18.89
19.07
19.24
19.33
19.29
19.14
18.95
18.75
18.45
17.94
17.02
15.64
13.85
11.85
9.89
8.13
6.60
5.14
3.51
1.49
-0.94
-3.61
-6.20
-8.41
-10.11
-11.46
-12.83
-14.67
-17.30
-20.75
-24.70
-28.53
-31.47
-32.74
-31.81
-28.54
-23.27
-16.77
-10.03
-3.91
1.09
4.99
8.13
10.98
13.86
16.74
19.38
21.48
22.94
23.85
24.47
25.03
25.62
26.18
26.61
26.84
26.96
27.15
27.59
28.30
29.20
30.02
30.50
30.51
30.09
29.46
28.89
28.55
28.45
28.43
28.24
27.69
26.74
25.47
24.07
22.68
21.39
20.19
18.95
17.49
15.50
12.70
8.90
4.16
-1.11
-6.14
-10.04
-12.05
-11.90
-9.92
-6.90
-3.88
-1.63
-0.48
-0.20
-0.22
-0.01
0.74
1.94
3.31
4.58
5.67
6.78
8.17
10.04
12.32
14.72
16.87
18.50
19.49
19.88
19.74
19.12
18.05
16.57
14.82
12.95
11.08
9.24
7.34
5.31
3.15
1.00
-0.95
-2.55
-3.85
-5.08
-6.63
-8.90
-12.16
-16.40
-21.27
-26.16
-30.30
-32.99
-33.86
-32.94
-30.62
-27.54
-24.29
-21.34
-18.92
-17.14
-15.96
-15.29
-14.96
-14.76
-14.52
-14.11
-13.56
-13.02
-12.63
-12.43
-12.32
-12.05
-11.39
-10.21
-8.51
-6.43
-4.13
-1.76
0.63
3.02
5.38
7.59
9.42
10.59
10.80
9.95
8.13
5.70
3.14
0.88
-0.84
-2.08
-3.16
-4.52
-6.50
-9.30
-12.81
-16.68
-20.38
-23.30
-24.85
-24.71
-22.92
-19.95
-16.59
-13.63
-11.57
-10.46
-9.93
-9.45
-8.56
-7.07
-4.99
-2.45
0.35
3.19
5.81
7.94
9.34
9.97
9.96
9.61
9.21
8.95
8.92
9.20
9.92
11.19
13.00
15.19
17.40
19.24
20.50
21.20
21.62
22.07
22.71
23.41
23.84
23.61
22.48
20.48
17.91
15.22
12.81
10.92
9.48
8.19
6.58
4.20
0.81
-3.52
-8.26
-12.61
-15.64
-16.69
-15.60
-12.74
-8.94
-5.14
-2.12
-0.30
0.27
-0.16
-1.16
-2.24
-2.95
-2.92
-1.93
0.02
2.77
6.02
9.41
12.63
15.44
17.72
19.46
20.80
21.94
23.14
24.56
26.25
28.12
30.01
31.81
33.51
35.18
36.93
38.85
40.98
43.22
45.38
47.16
48.24
48.37
47.55
46.09
44.60
43.79
44.23
46.18
49.50
53.81
58.59
63.37
67.75
71.38
74.04
75.60
76.15
76.01
75.70
75.87
77.18
80.17
85.26
92.59
101.96
112.76
124.04
134.62
143.38
149.46
152.50
152.61
150.32
146.34
141.37
135.90
130.11
123.95
117.27
109.95
102.06
93.80
85.43
77.15
69.04
61.05
53.11
45.18
37.26
29.41
21.72
14.33
7.47
1.37
-3.85
-8.34
-12.65
-17.59
-23.88
-31.85
-41.28
-51.46
-61.65
-71.41
-80.82
-90.45
-101.05
-113.17
-126.94
-141.96
-157.40
-172.19
-185.34
-196.21
-204.76
-211.47
-216.92
-221.33
-224.12
-223.95
-219.23
-208.83
-192.67
-171.80
-148.21
-124.32
-102.50
-84.84
-72.88
-67.61
-69.31
-77.45
-90.65
-106.81
-123.35
-137.70
-147.75
-152.31
-151.33
-145.85
-137.59
-128.45
-120.03
-113.34
-108.82
-106.47
-106.10
-107.40
-109.99
-113.42
-117.12
-120.33
-121.94
-120.58
-114.80
-103.57
-86.90
-66.08
-43.57
-22.39
-5.16
6.59
12.84
14.92
14.97
15.20
17.36
22.43
30.77
42.24
56.55
73.11
90.99
108.71
124.29
135.67
141.30
140.59
133.97
122.56
107.57
89.96
70.53
50.24
30.49
13.07
-0.34
-8.73
-12.22
-11.92
-9.51
-6.57
-4.22
-2.88
-2.44
-2.50
-2.62
-2.52
-2.10
-1.45
-0.76
-0.36
-0.72
-2.44
-6.24
-12.70
-21.99
-33.53
-45.76
-56.37
-62.93
-63.85
-59.14
-50.59
-41.18
-33.86
-30.38
-30.69
-33.25
-35.92
-37.03
-35.92
-32.90
-28.67
-23.85
-18.69
-13.24
-7.67
-2.43
1.88
4.76
6.06
6.08
5.42
4.72
4.48
4.88
5.81
6.97
8.03
8.69
8.79
8.27
7.15
5.49
3.38
0.95
-1.57
-3.94
-5.98
-7.70
-9.34
-11.37
-14.28
-18.34
-23.41
-28.87
-33.68
-36.76
-37.24
-34.72
-29.48
-22.28
-14.18
-6.27
0.74
6.49
11.14
15.06
18.66
22.21
25.71
28.96
31.72
33.81
35.20
35.99
36.23
35.92
35.00
33.47
31.50
29.48
27.91
27.17
27.34
28.11
28.93
29.21
28.58
27.05
24.89
22.52
20.22
18.06
15.86
13.33
10.19
6.26
1.55
-3.72
-9.17
-14.18
-17.91
-19.54
-18.40
-14.36
-7.86
0.08
8.21
15.39
21.02
25.16
28.32
31.12
33.89
36.52
38.57
39.63
39.54
38.57
37.20
35.92
34.94
34.21
33.54
32.83
32.15
31.68
31.55
31.67
31.69
31.17
29.77
27.42
24.34
21.01
17.92
15.37
13.33
11.51
9.54
7.13
4.26
1.16
-1.77
-4.14
-5.58
-5.86
-4.86
-2.62
0.64
4.42
8.15
11.27
13.43
14.64
15.19
15.52
16.03
17.02
18.60
20.80
23.54
26.63
29.80
32.66
34.89
36.28
36.87
36.87
36.60
36.29
35.99
35.58
34.86
33.68
32.02
29.98
27.77
25.52
23.33
21.16
18.84
16.19
12.96
9.02
4.36
-0.81
-6.02
-10.59
-13.75
-14.82
-13.42
-9.64
-4.10
2.18
8.08
12.71
15.69
17.14
17.55
17.39
16.93
16.16
14.94
13.23
11.22
9.26
7.73
6.79
6.40
6.32
6.27
6.06
5.64
5.00
4.15
2.99
1.41
-0.68
-3.26
-6.21
-9.31
-12.35
-15.22
-17.95
-20.68
-23.60
-26.74
-29.87
-32.49
-33.87
-33.43
-30.83
-26.28
-20.41
-14.11
-8.31
-3.60
-0.22
2.02
3.53
4.70
5.77
6.74
7.42
7.67
7.44
6.90
6.36
6.08
6.15
6.42
6.64
6.54
6.00
5.01
3.64
1.93
-0.11
-2.49
-5.16
-7.93
-10.67
-13.25
-15.79
-18.53
-21.79
-25.73
-30.13
-34.45
-37.85
-39.46
-38.70
-35.44
-30.06
-23.36
-16.29
-9.74
-4.29
-0.12
2.96
5.37
7.60
9.95
12.52
15.07
17.26
18.75
19.39
19.34
18.90
18.47
18.29
18.40
18.66
18.78
18.51
17.69
16.32
14.50
12.39
10.16
7.88
5.57
3.21
0.82
-1.57
-3.92
-6.22
-8.54
-10.99
-13.70
-16.73
-20.08
-23.65
-27.32
-30.94
-34.31
-37.12
-38.89
-39.12
-37.38
-33.56
-27.95
-21.24
-14.30
-7.93
-2.61
1.58
4.87
7.70
10.35
12.98
15.48
17.68
19.42
20.68
21.55
22.21
22.81
23.36
23.82
24.04
23.93
23.49
22.88
22.29
21.88
21.63
21.33
20.66
19.35
17.31
14.74
12.00
9.50
7.48
5.98
4.82
3.74
2.53
1.05
-0.73
-2.76
-4.97
-7.24
-9.44
-11.47
-13.27
-14.89
-16.46
-18.18
-20.27
-22.90
-26.09
-29.61
-32.91
-35.19
-35.65
-33.74
-29.43
-23.28
-16.26
-9.45
-3.65
0.81
4.06
6.48
8.53
10.50
12.53
14.60
16.60
18.40
19.90
21.02
21.74
22.15
22.36
22.51
22.77
23.23
23.96
24.96
26.16
27.39
28.42
29.04
29.14
28.75
28.11
27.53
27.30
27.51
28.04
28.62
28.93
28.76
28.04
26.89
25.53
24.14
22.79
21.41
19.80
17.71
14.92
11.31
6.91
1.95
-3.20
-8.01
-11.89
-14.36
-15.18
-14.49
-12.80
-10.87
-9.45
-8.96
-9.38
-10.29
-11.05
-11.15
-10.37
-8.83
-6.88
-4.85
-2.90
-1.00
1.04
3.37
5.95
8.57
10.87
12.52
13.32
13.31
12.65
11.57
10.25
8.76
7.10
5.27
3.35
1.47
-0.20
-1.53
-2.44
-3.00
-3.36
-3.69
-4.18
-4.93
-6.07
-7.64
-9.74
-12.47
-15.86
-19.73
-23.65
-26.99
-29.13
-29.74
-28.89
-27.16
-25.28
-23.93
-23.45
-23.73
-24.38
-24.87
-24.84
-24.14
-22.87
-21.25
-19.50
-17.83
-16.33
-15.03
-13.88
-12.77
-11.52
-9.89
-7.66
-4.76
-1.35
2.21
5.39
7.76
9.11
9.57
9.51
9.38
9.50
9.93
10.54
11.10
11.43
11.43
11.05
10.20
8.66
6.21
2.69
-1.79
-6.96
-12.35
-17.49
-22.03
-25.71
-28.39
-29.95
-30.30
-29.41
-27.39
-24.49
-21.13
-17.70
-14.46
-11.45
-8.52
-5.43
-2.08
1.40
4.67
7.29
8.93
9.48
9.09
8.09
6.86
5.75
4.94
4.51
4.39
4.39
4.37
4.22
3.99
3.77
3.65
3.59
3.43
2.94
1.95
0.51
-1.20
-2.87
-4.33
-5.53
-6.67
-7.96
-9.60
-11.69
-14.22
-17.16
-20.40
-23.82
-27.10
-29.82
-31.45
-31.63
-30.29
-27.80
-24.74
-21.76
-19.25
-17.21
-15.33
-13.15
-10.38
-6.95
-3.08
0.90
4.72
8.32
11.85
15.58
19.71
24.22
28.83
33.12
36.72
39.50
41.60
43.37
45.12
46.96
48.75
50.22
51.04
50.94
49.78
47.48
44.02
39.44
33.90
27.77
21.56
15.82
11.01
7.39
4.90
3.26
2.00
0.62
-1.32
-4.12
-7.76
-11.89
-15.85
-18.86
-20.27
-19.79
-17.64
-14.42
-10.94
-7.97
-5.98
-5.07
-5.00
-5.23
-5.22
-4.50
-2.92
-0.59
2.16
4.95
7.52
9.84
12.01
14.16
16.29
18.24
19.79
20.73
21.03
20.78
20.17
19.37
18.46
17.43
16.20
14.67
12.82
10.72
8.52
6.43
4.61
3.08
1.69
0.14
-1.89
-4.62
-8.12
-12.29
-16.84
-21.35
-25.34
-28.27
-29.73
-29.52
-27.81
-25.13
-22.25
-19.91
-18.59
-18.39
-19.02
-20.02
-20.85
-21.22
-20.97
-20.13
-18.74
-16.82
-14.41
-11.54
-8.39
-5.25
-2.45
-0.24
1.32
2.37
3.14
3.80
4.41
4.80
4.77
4.18
3.04
1.54
-0.02
-1.38
-2.37
-3.01
-3.53
-4.25
-5.52
-7.65
-10.72
-14.62
-19.00
-23.36
-27.12
-29.78
-30.98
-30.60
-28.79
-25.96
-22.69
-19.62
-17.24
-15.75
-14.99
-14.53
-13.83
-12.51
-10.48
-8.00
-5.50
-3.42
-1.93
-0.91
-0.06
0.97
2.37
4.08
5.87
7.43
8.58
9.26
9.56
9.56
9.32
8.80
7.95
6.77
5.39
4.00
2.79
1.87
1.14
0.44
-0.42
-1.47
-2.65
-3.84
-5.01
-6.33
-8.16
-10.92
-14.74
-19.39
-24.18
-28.13
-30.30
-30.08
-27.44
-22.91
-17.37
-11.79
-6.97
-3.28
-0.69
1.11
2.57
4.02
5.59
7.19
8.66
9.86
10.80
11.60
12.43
13.35
14.32
15.18
15.86
16.38
16.87
17.50
18.30
19.14
19.76
19.90
19.46
18.55
17.42
16.37
15.65
15.34
15.46
15.92
16.57
17.20
17.54
17.36
16.49
15.01
13.15
11.25
9.66
8.51
7.72
6.98
5.87
4.02
1.21
-2.52
-6.91
-11.45
-15.45
-18.22
-19.18
-18.12
-15.23
-11.07
-6.44
-2.08
1.46
4.00
5.70
6.94
8.23
9.98
12.42
15.49
18.94
22.37
25.46
28.07
30.22
32.04
33.63
35.04
36.20
37.09
37.75
38.29
38.72
38.98
38.87
38.19
36.89
35.15
33.29
31.69
30.55
29.88
29.45
28.95
28.09
26.75
24.93
22.77
20.44
18.09
15.74
13.33
10.73
7.74
4.18
-0.02
-4.78
-9.79
-14.51
-18.29
-20.52
-20.91
-19.58
-17.09
-14.24
-11.83
-10.41
-10.15
-10.96
-12.51
-14.45
-16.43
-18.17
-19.42
-20.05
-19.98
-19.32
-18.23
-16.91
-15.51
-14.11
-12.73
-11.39
-10.18
-9.21
-8.58
-8.25
-8.13
-8.10
-8.14
-8.35
-8.91
-9.90
-11.24
-12.66
-13.82
-14.51
-14.76
-14.84
-15.13
-15.97
-17.55
-19.95
-23.05
-26.65
-30.35
-33.61
-35.77
-36.28
-34.91
-31.81
-27.60
-23.07
-18.96
-15.72
-13.45
-11.94
-10.81
-9.69
-8.31
-6.59
-4.64
-2.66
-0.86
0.62
1.74
2.56
3.19
3.73
4.23
4.67
5.03
5.27
5.38
5.35
5.20
4.89
4.40
3.72
2.88
1.94
1.01
0.15
-0.64
-1.49
-2.52
-3.81
-5.27
-6.71
-7.95
-9.01
-10.11
-11.67
-14.05
-17.40
-21.44
-25.52
-28.80
-30.47
-30.08
-27.67
-23.71
-18.98
-14.30
-10.33
-7.36
-5.36
-4.02
-2.93
-1.76
-0.27
1.58
3.71
5.95
8.05
9.78
10.98
11.63
11.86
11.92
12.07
12.46
13.06
13.63
13.88
13.55
12.60
11.13
9.44
7.80
6.43
5.37
4.55
3.84
3.06
2.09
0.84
-0.70
-2.50
-4.45
-6.43
-8.27
-9.90
-11.35
-12.86
-14.77
-17.39
-20.82
-24.78
-28.56
-31.21
-31.87
-30.09
-26.03
-20.42
-14.27
-8.49
-3.61
0.30
3.46
6.18
8.64
10.87
12.84
14.51
15.93
17.22
18.47
19.75
21.04
22.30
23.47
24.54
25.52
26.47
27.45
28.47
29.52
30.49
31.32
31.95
32.46
32.95
33.56
34.30
35.04
35.53
35.48
34.73
33.29
31.31
29.01
26.60
24.13
21.55
18.77
15.59
11.85
7.41
2.20
-3.72
-10.03
-16.14
-21.21
-24.42
-25.27
-23.80
-20.67
-16.98
-13.76
-11.67
-10.74
-10.49
-10.22
-9.39
-7.86
-5.80
-3.53
-1.28
0.94
3.25
5.86
8.78
11.83
14.68
17.00
18.56
19.39
19.68
19.72
19.67
19.51
19.05
18.02
16.27
13.88
11.15
8.46
6.12
4.25
2.71
1.26
-0.38
-2.40
-4.92
-8.06
-11.93
-16.60
-21.89
-27.32
-32.09
-35.31
-36.30
-34.88
-31.53
-27.16
-22.86
-19.46
-17.35
-16.43
-16.27
-16.40
-16.49
-16.43
-16.19
-15.80
-15.15
-14.09
-12.45
-10.15
-7.33
-4.30
-1.50
0.67
2.04
2.64
2.66
2.35
1.85
1.19
0.30
-0.89
-2.30
-3.77
-5.07
-6.06
-6.75
-7.32
-8.02
-9.08
-10.70
-12.98
-16.02
-19.86
-24.38
-29.18
-33.57
-36.64
-37.62
-36.11
-32.30
-26.93
-20.97
-15.36
-10.63
-6.87
-3.85
-1.20
1.29
3.67
5.84
7.66
9.10
10.20
11.09
11.83
12.45
12.94
13.30
13.57
13.80
14.02
14.14
14.03
13.57
12.73
11.63
10.43
9.24
8.09
6.83
5.31
3.41
1.14
-1.39
-4.00
-6.53
-8.85
-11.01
-13.12
-15.47
-18.36
-21.98
-26.31
-30.94
-35.14
-38.00
-38.77
-37.01
-32.76
-26.49
-18.94
-10.98
-3.38
3.26
8.63
12.73
15.83
18.35
20.63
22.84
24.91
26.68
27.93
28.61
28.72
28.31
27.43
26.14
24.60
23.02
21.64
20.60
19.86
19.22
18.39
17.16
15.49
13.48
11.35
9.29
7.41
5.66
3.90
1.97
-0.21
-2.55
-4.82
-6.78
-8.33
-9.62
-11.05
-13.08
-16.05
-20.01
-24.64
-29.25
-32.96
-34.93
-34.51
-31.47
-26.07
-18.96
-11.08
-3.33
3.62
9.51
14.39
18.52
22.17
25.45
28.40
30.95
33.06
34.72
35.95
36.85
37.48
37.92
38.23
38.48
38.75
39.09
39.48
39.83
39.96
39.71
38.95
37.70
36.10
34.35
32.65
31.07
29.57
28.01
26.25
24.23
21.95
19.48
16.85
14.07
11.08
7.83
4.23
0.18
-4.41
-9.52
-14.94
-20.15
-24.43
-27.05
-27.53
-25.84
-22.44
-18.14
-13.77
-9.96
-7.00
-4.85
-3.24
-1.82
-0.31
1.43
3.36
5.37
7.37
9.36
11.46
13.79
16.36
18.95
21.19
22.70
23.28
22.96
22.03
20.81
19.54
18.26
16.87
15.17
13.05
10.59
7.98
5.52
3.45
1.84
0.54
-0.75
-2.37
-4.65
-7.75
-11.66
-16.15
-20.79
-24.93
-27.90
-29.08
-28.16
-25.27
-20.96
-16.14
-11.73
-8.44
-6.59
-6.09
-6.56
-7.54
-8.68
-9.76
-10.71
-11.49
-11.95
-11.92
-11.26
-9.94
-8.23
-6.54
-5.26
-4.63
-4.62
-4.98
-5.44
-5.81
-6.11
-6.55
-7.37
-8.73
-10.58
-12.65
-14.56
-16.02
-16.96
-17.65
-18.60
-20.31
-23.11
-26.93
-31.28
-35.40
-38.42
-39.66
-38.67
-35.49
-30.54
-24.55
-18.44
-13.00
-8.71
-5.66
-3.61
-2.19
-1.11
-0.21
0.51
1.06
1.51
1.99
2.63
3.48
4.52
5.60
6.62
7.44
8.01
8.31
8.35
8.19
7.92
7.61
7.25
6.67
5.64
3.93
1.55
-1.25
-4.01
-6.30
-7.93
-9.06
-10.13
-11.71
-14.20
-17.67
-21.84
-26.10
-29.69
-31.85
-32.06
-30.09
-26.14
-20.76
-14.73
-8.88
-3.79
0.22
3.23
5.52
7.45
9.28
11.09
12.78
14.15
15.04
15.36
15.19
14.71
14.14
13.70
13.45
13.33
13.21
12.94
12.46
11.78
10.98
10.12
9.22
8.20
6.97
5.43
3.57
1.45
-0.79
-2.98
-5.02
-6.80
-8.34
-9.69
-11.02
-12.55
-14.54
-17.27
-20.86
-25.20
-29.80
-33.81
-36.28
-36.34
-33.64
-28.46
-21.64
-14.35
-7.61
-2.04
2.28
5.66
8.53
11.15
13.56
15.59
17.05
17.90
18.29
18.51
18.85
19.43
20.22
21.06
21.83
22.46
23.03
23.65
24.35
25.05
25.55
25.67
25.33
24.63
23.79
23.09
22.69
22.59
22.61
22.52
22.09
21.19
19.85
18.23
16.52
14.96
13.66
12.55
11.42
9.89
7.55
4.07
-0.58
-6.11
-11.89
-17.04
-20.71
-22.27
-21.52
-18.74
-14.63
-10.08
-5.92
-2.69
-0.50
0.85
1.79
2.75
4.01
5.70
7.75
10.02
12.39
14.79
17.21
19.63
21.96
24.03
25.60
26.53
26.75
26.39
25.63
24.67
23.65
22.59
21.44
20.11
18.52
16.66
14.60
12.47
10.40
8.52
6.83
5.23
3.53
1.47
-1.18
-4.62
-8.99
-14.26
-20.15
-26.10
-31.30
-34.86
-36.07
-34.76
-31.31
-26.62
-21.80
-17.84
-15.25
-14.13
-14.16
-14.92
-16.08
-17.43
-18.85
-20.16
-21.06
-21.18
-20.17
-17.95
-14.76
-11.15
-7.81
-5.34
-4.03
-3.82
-4.32
-5.12
-5.85
-6.39
-6.85
-7.40
-8.16
-9.11
-10.05
-10.77
-11.20
-11.45
-11.83
-12.68
-14.34
-16.97
-20.61
-25.04
-29.84
-34.32
-37.65
-39.06
-38.01
-34.52
-29.09
-22.65
-16.26
-10.78
-6.67
-3.87
-1.93
-0.26
1.60
3.76
6.02
7.95
9.27
9.94
10.24
10.55
11.14
12.02
12.89
13.42
13.41
12.89
12.05
11.10
10.10
8.94
7.45
5.51
3.20
0.75
-1.50
-3.33
-4.72
-5.89
-7.18
-8.93
-11.36
-14.46
-18.15
-22.28
-26.72
-31.18
-35.21
-38.12
-39.11
-37.51
-33.09
-26.18
-17.66
-8.74
-0.62
5.77
10.03
12.27
13.06
13.13
13.15
13.50
14.22
15.13
15.94
16.42
16.34
15.46
13.50
10.37
6.48
2.90
1.24
2.97
8.71
17.76
28.19
37.68
44.46
48.00
48.98
48.70
48.23
47.83
47.01
44.97
41.14
35.53
28.58
20.82
12.67
4.33
-4.00
-11.84
-18.37
-22.62
-23.91
-22.18
-18.15
-13.09
-8.35
-4.85
-2.82
-1.86
-1.27
-0.42
1.04
3.06
5.42
7.90
10.38
12.91
15.57
18.40
21.30
24.09
26.58
28.65
30.28
31.55
32.48
33.01
32.93
31.96
29.94
26.93
23.30
19.59
16.31
13.73
11.73
9.86
7.54
4.26
-0.19
-5.70
-11.88
-18.18
-23.99
-28.71
-31.77
-32.78
-31.71
-28.95
-25.33
-21.88
-19.52
-18.71
-19.32
-20.76
-22.30
-23.34
-23.71
-23.49
-22.90
-22.02
-20.77
-18.94
-16.41
-13.31
-10.01
-6.98
-4.60
-2.98
-2.03
-1.51
-1.23
-1.17
-1.41
-2.07
-3.19
-4.62
-6.07
-7.17
-7.64
-7.44
-6.82
-6.33
-6.57
-8.01
-10.67
-14.02
-17.09
-18.72
-18.02
-14.68
-9.07
-2.11
5.05
11.36
16.12
19.08
20.35
20.29
19.38
18.09
16.78
15.67
14.86
14.22
13.55
12.57
11.11
9.11
6.73
4.25
2.10
0.63
0.07
0.47
1.62
3.19
4.85
6.35
7.60
8.65
9.61
10.51
11.39
12.23
13.07
13.99
15.11
16.61
18.58
21.07
24.01
27.23
30.38
32.95
34.32
33.98
31.75
27.86
23.01
18.14
14.17
11.66
10.63
10.49
10.30
9.10
6.32
2.01
-3.26
-8.65
-13.51
-17.69
-21.53
-25.75
-31.08
-38.14
-47.28
-58.42
-70.93
-83.45
-93.82
-99.73
-99.51
-92.86
-81.17
-67.01
-53.13
-41.50
-32.82
-26.57
-21.54
-16.44
-10.22
-2.30
7.44
18.67
30.67
42.43
53.02
61.79
68.56
73.49
76.79
78.54
78.60
76.87
73.41
68.65
63.30
58.12
53.56
49.50
45.24
39.69
31.90
21.54
9.24
-3.45
-14.50
-22.02
-24.83
-22.77
-16.69
-8.07
1.46
10.51
18.28
24.52
29.38
33.05
35.52
36.34
34.79
30.14
22.09
11.16
-1.16
-12.60
-20.64
-23.25
-19.73
-11.26
-0.83
7.51
10.06
4.95
-6.99
-22.42
-36.74
-45.88
-47.73
-42.66
-32.84
-21.00
-9.26
1.31
10.46
18.12
24.03
27.73
28.93
27.86
25.19
21.79
18.28
14.79
11.12
7.01
2.41
-2.46
-7.24
-11.70
-15.70
-19.16
-22.01
-24.11
-25.37
-25.89
-25.97
-25.91
-25.85
-25.49
-24.17
-21.23
-16.30
-9.67
-2.25
4.66
9.81
12.43
12.39
10.17
6.56
2.35
-1.95
-6.14
-10.22
-14.25
-18.09
-21.44
-23.90
-25.18
-25.19
-24.19
-22.57
-20.82
-19.30
-18.22
-17.65
-17.55
-17.84
-18.36
-18.95
-19.42
-19.65
-19.62
-19.40
-19.18
-19.20
-19.66
-20.66
-22.17
-23.98
-25.70
-26.76
-26.55
-24.54
-20.43
-14.34
-6.76
1.50
9.58
16.76
22.56
26.82
29.63
31.24
32.03
32.42
32.84
33.66
35.03
36.89
38.90
40.57
41.44
41.32
40.35
39.06
38.10
38.04
39.13
41.27
44.11
47.22
50.37
53.65
57.38
62.09
68.24
76.10
85.55
95.80
105.33
111.92
113.18
107.48
94.88
77.45
58.78
42.68
31.57
25.54
22.41
18.91
12.20
0.99
-14.20
-31.47
-48.47
-62.90
-72.71
-76.21
-72.23
-60.64
-42.88
-22.16
-2.99
9.93
13.11
5.37
-11.75
-34.62
-58.76
-80.35
-97.19
-108.85
-116.27
-120.74
-123.17
-123.86
-122.78
-120.08
-116.35
-112.48
-109.25
-106.86
-104.89
-102.69
-100.00
-97.17
-94.95
-93.94
-93.90
-93.66
-91.58
-86.23
-76.92
-63.75
-47.16
-27.68
-5.92
17.21
40.00
60.21
75.45
84.05
85.55
80.81
71.58
60.08
48.51
38.65
31.81
28.48
28.15
29.53
30.99
31.17
29.60
26.74
23.56
20.95
19.34
18.59
18.20
17.53
15.96
12.80
7.39
-0.81
-11.89
-25.26
-39.74
-53.84
-66.34
-76.52
-84.29
-89.75
-92.89
-93.39
-90.72
-84.58
-75.18
-63.42
-50.62
-38.17
-27.10
-17.93
-10.70
-5.18
-1.11
1.68
3.23
3.60
3.02
1.94
0.95
0.66
1.43
3.17
5.45
7.61
9.10
9.68
9.55
9.21
9.17
9.75
10.79
11.87
12.41
12.07
10.77
8.68
6.00
2.88
-0.50
-3.81
-6.52
-7.95
-7.50
-4.79
0.26
7.65
17.36
29.30
42.99
57.26
70.19
79.57
83.61
81.76
74.98
65.33
55.26
46.66
40.43
36.47
34.15
32.80
32.19
32.52
34.15
37.25
41.57
46.49
51.17
54.86
57.03
57.47
56.16
53.17
48.55
42.28
34.36
24.85
14.04
2.51
-9.02
-19.84
-29.49
-37.97
-45.63
-53.00
-60.42
-67.83
-74.57
-79.59
-81.69
-79.89
-73.78
-63.58
-50.14
-34.64
-18.29
-2.07
13.32
27.50
40.30
51.84
62.49
72.91
83.88
95.87
108.71
121.45
132.65
140.75
144.72
144.15
139.21
130.46
118.65
104.77
90.22
76.62
65.51
57.81
53.45
51.45
50.36
48.91
46.39
42.65
37.77
31.80
24.78
16.92
8.98
2.30
-1.62
-1.66
2.33
9.51
18.36
27.45
35.84
43.32
50.07
56.17
61.31
64.95
66.61
66.32
64.78
63.04
61.97
61.82
62.09
61.80
59.93
55.76
48.81
38.86
25.81
9.84
-8.32
-27.41
-45.91
-62.68
-77.32
-90.42
-102.93
-115.65
-128.63
-141.06
-151.68
-159.25
-163.15
-163.41
-160.72
-156.18
-151.03
-146.33
-142.64
-139.55
-135.55
-128.42
-116.01
-97.48
-74.09
-49.25
-27.63
-13.56
-9.58
-15.70
-29.60
-47.56
-65.76
-81.23
-92.28
-98.44
-100.17
-98.51
-94.87
-90.79
-87.78
-86.81
-88.22
-91.48
-95.47
-98.89
-100.78
-100.59
-98.30
-94.01
-87.76
-79.44
-69.00
-56.64
-42.92
-28.79
-15.32
-3.48
5.93
12.58
16.62
18.87
20.57
23.10
27.33
33.29
40.16
46.66
51.54
54.03
53.89
51.38
47.09
41.85
36.62
32.16
28.82
26.23
23.58
20.05
15.52
10.78
7.29
6.52
9.13
14.76
22.21
30.16
37.70
44.67
51.40
58.46
66.31
75.19
84.94
94.98
104.24
111.12
113.91
111.28
103.00
90.23
75.36
61.17
49.96
42.94
40.11
40.69
43.66
48.24
53.96
60.62
67.97
75.39
81.83
85.97
86.62
83.28
76.46
67.76
59.39
53.56
51.65
53.67
58.02
61.67
60.88
52.49
35.38
11.46
-14.43
-36.10
-48.43
-49.67
-42.05
-30.42
-19.57
-11.74
-5.78
1.97
15.52
37.17
66.45
100.07
132.85
159.04
173.80
174.67
162.27
140.11
113.10
85.55
59.45
34.14
7.27
-23.34
-58.39
-96.91
-137.22
-177.95
-218.71
-259.70
-301.14
-342.81
-384.26
-425.28
-466.12
-507.13
-548.04
-587.51
-623.08
-651.82
-670.99
-678.64
-673.70
-656.10
-626.84
-588.08
-543.16
-496.10
-450.68
-409.48
-373.25
-341.07
-311.16
-281.82
-252.23
-222.49
-193.30
-165.34
-139.06
-114.47
-91.29
-69.22
-48.11
-28.06
-9.38
7.58
22.47
35.15
45.69
54.41
61.74
68.23
74.34
80.46
86.76
93.30
99.98
106.71
113.46
120.37
127.69
135.70
144.57
154.26
164.42
174.57
184.21
193.09
201.33
209.39
217.85
227.16
237.40
248.25
259.11
269.41
278.89
287.66
296.23
305.26
315.47
327.54
341.98
358.77
377.01
394.60
408.50
415.55
413.61
402.44
383.74
360.46
335.55
311.00
287.47
264.82
242.85
221.84
202.50
185.44
170.61
157.14
143.60
128.63
111.55
92.55
72.65
53.20
35.35
19.71
6.30
-5.20
-15.03
-23.06
-28.73
-31.36
-30.55
-26.50
-20.13
-12.78
-5.81
-0.16
3.74
6.01
7.04
7.34
7.35
7.45
7.89
8.74
9.87
10.94
11.55
11.43
10.59
9.33
8.13
7.41
7.35
7.85
8.59
9.20
9.39
9.00
7.96
6.33
4.19
1.75
-0.70
-2.88
-4.63
-6.00
-7.33
-9.00
-11.18
-13.68
-15.84
-16.78
-15.80
-12.61
-7.56
-1.43
4.84
10.43
14.85
17.93
19.73
20.46
20.37
19.74
18.85
17.92
17.10
16.36
15.64
14.81
13.81
12.62
11.28
9.89
8.50
7.19
5.89
4.52
2.89
0.82
-1.77
-4.87
-8.32
-11.89
-15.36
-18.60
-21.62
-24.58
-27.74
-31.33
-35.52
-40.21
-44.92
-48.88
-51.17
-51.01
-48.03
-42.48
-35.09
-26.94
-19.03
-12.17
-6.73
-2.72
0.13
2.19
3.84
5.33
6.78
8.20
9.54
10.71
11.66
12.34
12.75
12.88
12.81
12.67
12.65
12.92
13.53
14.34
15.01
15.07
14.07
11.81
8.37
4.20
-0.07
-3.87
-6.91
-9.39
-11.85
-15.06
-19.57
-25.48
-32.30
-39.01
-44.40
-47.35
-47.19
-43.86
-37.90
-30.27
-22.08
-14.30
-7.63
-2.42
1.35
3.92
5.64
6.85
7.83
8.74
9.62
10.43
11.10
11.55
11.75
11.71
11.45
11.02
10.51
10.03
9.71
9.56
9.48
9.17
8.28
6.53
3.82
0.40
-3.28
-6.67
-9.38
-11.31
-12.71
-14.08
-16.03
-19.02
-23.20
-28.21
-33.27
-37.25
-39.03
-37.77
-33.20
-25.76
-16.40
-6.46
2.81
10.45
16.04
19.68
21.80
22.96
23.59
23.92
24.00
23.82
23.45
23.09
22.99
23.27
23.87
24.59
25.18
25.52
25.66
25.76
25.95
26.14
26.06
25.38
23.88
21.60
18.84
16.05
13.62
11.68
10.05
8.28
5.80
2.20
-2.67
-8.53
-14.68
-20.10
-23.71
-24.61
-22.30
-16.86
-8.97
0.19
9.23
16.86
22.26
25.33
26.50
26.56
26.17
25.62
24.81
23.48
21.48
19.00
16.53
14.58
13.52
13.39
14.00
15.00
16.06
16.95
17.44
17.37
16.60
15.07
12.83
10.06
7.04
4.07
1.30
-1.34
-4.16
-7.65
-12.15
-17.66
-23.70
-29.30
-33.30
-34.70
-32.99
-28.29
-21.31
-13.14
-4.98
2.13
7.51
10.89
12.39
12.39
11.34
9.66
7.58
5.28
2.84
0.44
-1.70
-3.39
-4.52
-5.22
-5.82
-6.71
-8.14
-10.17
-12.59
-15.09
-17.38
-19.40
-21.23
-23.11
-25.29
-27.86
-30.88
-34.33
-38.25
-42.60
-47.18
-51.43
-54.44
-55.14
-52.63
-46.62
-37.64
-26.95
-16.20
-6.89
0.06
4.42
6.58
7.22
6.97
6.26
5.24
3.94
2.39
0.73
-0.79
-1.91
-2.40
-2.31
-1.84
-1.44
-1.51
-2.33
-3.93
-6.12
-8.58
-11.05
-13.40
-15.68
-18.04
-20.68
-23.80
-27.59
-32.13
-37.27
-42.53
-47.04
-49.65
-49.31
-45.37
-37.93
-27.89
-16.66
-5.82
3.43
10.43
15.17
18.03
19.52
20.04
19.77
18.81
17.25
15.33
13.38
11.81
10.90
10.68
10.95
11.27
11.22
10.51
9.01
6.80
4.05
0.99
-2.20
-5.39
-8.50
-11.58
-14.74
-18.21
-22.19
-26.79
-31.87
-36.91
-41.04
-43.19
-42.45
-38.29
-30.89
-21.12
-10.29
0.23
9.36
16.57
21.85
25.48
27.82
29.07
29.34
28.71
27.36
25.61
23.91
22.66
22.14
22.37
23.04
23.66
23.61
22.47
20.07
16.59
12.45
8.10
3.92
0.03
-3.57
-6.97
-10.28
-13.66
-17.33
-21.62
-26.81
-32.98
-39.78
-46.38
-51.60
-54.22
-53.37
-48.80
-41.03
-31.17
-20.59
-10.53
-1.79
5.36
11.08
15.63
19.29
22.18
24.37
25.95
27.09
28.03
28.94
29.93
30.99
32.04
33.03
33.89
34.60
35.06
35.11
34.52
33.12
30.85
27.80
24.22
20.43
16.76
13.44
10.59
8.11
5.74
3.07
-0.43
-5.15
-11.22
-18.26
-25.34
-31.11
-34.22
-33.70
-29.41
-22.05
-13.03
-3.96
3.77
9.38
12.72
14.08
13.98
12.80
10.85
8.34
5.55
2.89
0.80
-0.41
-0.68
-0.25
0.51
1.23
1.75
2.00
2.04
1.82
1.16
-0.19
-2.37
-5.32
-8.71
-12.04
-14.88
-17.01
-18.53
-19.86
-21.62
-24.30
-28.11
-32.80
-37.60
-41.39
-43.00
-41.53
-36.67
-28.81
-19.01
-8.65
0.94
8.86
14.84
19.12
22.17
24.36
25.82
26.44
26.14
25.05
23.59
22.33
21.72
21.87
22.51
23.16
23.35
22.82
21.60
19.95
18.12
16.28
14.40
12.37
10.05
7.38
4.48
1.54
-1.27
-3.88
-6.36
-8.87
-11.59
-14.61
-17.95
-21.57
-25.38
-29.10
-32.20
-33.95
-33.52
-30.34
-24.35
-16.15
-6.87
2.23
10.15
16.39
20.98
24.27
26.63
28.27
29.26
29.56
29.22
28.40
27.39
26.54
26.12
26.24
26.78
27.46
27.90
27.80
27.01
25.65
23.93
22.11
20.32
18.49
16.46
14.07
11.30
8.31
5.42
2.95
1.06
-0.24
-1.13
-1.82
-2.53
-3.45
-4.74
-6.59
-9.14
-12.43
-16.12
-19.55
-21.71
-21.60
-18.59
-12.80
-5.03
3.37
11.06
17.13
21.32
23.98
25.68
26.91
27.89
28.47
28.48
27.83
26.72
25.53
24.65
24.31
24.48
24.88
25.16
25.04
24.41
23.30
21.84
20.14
18.24
16.13
13.74
10.98
7.86
4.46
0.96
-2.37
-5.32
-7.78
-9.80
-11.55
-13.33
-15.43
-18.10
-21.50
-25.63
-30.27
-34.95
-38.95
-41.48
-41.91
-39.98
-35.94
-30.51
-24.66
-19.30
-15.10
-12.30
-10.80
-10.23
-10.26
-10.60
-11.12
-11.74
-12.38
-12.90
-13.12
-12.93
-12.31
-11.40
-10.41
-9.61
-9.19
-9.26
-9.81
-10.70
-11.74
-12.68
-13.42
-13.95
-14.48
-15.23
-16.34
-17.75
-19.24
-20.53
-21.52
-22.32
-23.19
-24.46
-26.31
-28.82
-31.87
-35.25
-38.65
-41.52
-43.19
-42.93
-40.25
-35.12
-28.11
-20.27
-12.75
-6.44
-1.73
1.55
3.83
5.54
6.88
7.80
8.13
7.78
6.84
5.62
4.49
3.74
3.46
3.53
3.73
3.83
3.72
3.43
3.12
3.00
3.22
3.85
4.79
5.80
6.55
6.72
6.11
4.74
2.87
0.93
-0.57
-1.19
-0.60
1.35
4.54
8.63
13.02
17.04
20.16
22.26
23.74
25.32
27.65
30.88
34.40
37.00
37.33
34.47
28.39
19.99
10.83
2.68
-3.01
-5.46
-4.71
-1.54
2.78
6.85
9.54
10.25
8.96
6.12
2.46
-1.27
-4.45
-6.61
-7.50
-7.09
-5.51
-3.12
-0.29
2.59
5.32
7.80
9.97
11.75
12.94
13.36
12.93
11.82
10.45
9.32
8.83
9.11
9.99
11.09
11.96
12.16
11.37
9.43
6.41
2.79
-0.66
-2.96
-3.33
-1.44
2.29
7.00
11.60
15.31
17.82
19.26
19.95
20.08
19.72
18.79
17.27
15.33
13.30
11.62
10.72
10.87
12.18
14.53
17.55
20.85
24.07
27.09
30.04
33.16
36.58
40.03
42.85
44.23
43.46
40.11
33.98
24.95
12.94
-1.91
-18.96
-37.01
-54.57
-70.24
-83.25
-93.51
-101.41
-107.22
-110.84
-111.77
-109.52
-104.06
-96.00
-86.46
-76.55
-67.14
-58.72
-51.58
-45.90
-41.81
-39.19
-37.58
-36.19
-34.10
-30.52
-25.00
-17.48
-8.24
2.20
13.05
23.33
31.93
38.06
41.59
43.44
45.33
49.18
56.22
66.28
77.78
88.27
95.40
97.80
95.37
89.09
80.42
70.63
60.54
50.48
40.53
30.80
21.50
12.97
5.55
-0.54
-5.26
-8.78
-11.33
-13.06
-13.97
-13.88
-12.71
-10.63
-8.20
-6.20
-5.32
-5.85
-7.57
-9.96
-12.44
-14.70
-16.62
-18.22
-19.43
-20.11
-20.11
-19.48
-18.46
-17.36
-16.38
-15.50
-14.53
-13.33
-12.00
-10.86
-10.27
-10.43
-11.21
-12.28
-13.31
-14.24
-15.35
-17.11
-20.06
-24.63
-30.99
-38.97
-48.02
-57.15
-65.04
-70.34
-72.03
-69.83
-64.27
-56.58
-48.18
-40.31
-33.71
-28.67
-25.13
-22.90
-21.68
-21.04
-20.34
-18.83
-15.84
-10.95
-4.24
3.74
12.12
19.99
26.62
31.56
34.64
35.86
35.31
33.10
29.46
24.71
19.27
13.65
8.21
3.12
-1.66
-6.31
-11.08
-16.21
-21.84
-27.97
-34.30
-40.13
-44.42
-45.95
-43.78
-37.65
-28.20
-16.81
-5.16
5.26
13.53
19.42
23.18
25.22
25.89
25.41
23.91
21.61
18.85
16.11
13.89
12.56
12.20
12.66
13.59
14.64
15.52
16.07
16.10
15.36
13.52
10.32
5.75
0.11
-6.04
-12.11
-17.68
-22.65
-27.23
-31.86
-36.98
-42.84
-49.34
-55.83
-61.28
-64.47
-64.55
-61.31
-55.42
-48.16
-40.97
-34.93
-30.41
-27.09
-24.19
-20.74
-15.96
-9.36
-1.00
8.63
18.57
27.73
35.12
40.14
42.74
43.31
42.45
40.70
38.32
35.27
31.31
26.24
20.14
13.36
6.53
0.31
-4.74
-8.39
-10.78
-12.34
-13.72
-15.67
-18.82
-23.55
-29.70
-36.44
-42.25
-45.27
-43.90
-37.38
-26.20
-11.98
3.00
16.52
27.09
34.18
38.18
39.93
40.33
39.99
39.18
37.95
36.31
34.36
32.32
30.42
28.83
27.59
26.67
26.05
25.79
26.04
26.93
28.33
29.87
30.84
30.52
28.41
24.55
19.46
14.01
9.01
4.93
1.74
-1.01
-3.96
-7.67
-12.35
-17.72
-22.96
-26.95
-28.53
-26.92
-22.03
-14.57
-5.87
2.51
9.25
13.63
15.54
15.36
13.64
10.95
7.82
4.77
2.39
1.20
1.63
3.79
7.47
12.19
17.32
22.29
26.64
30.11
32.64
34.30
35.25
35.67
35.67
35.25
34.28
32.56
29.93
26.26
21.55
15.85
9.21
1.72
-6.56
-15.34
-24.03
-31.73
-37.28
-39.58
-37.90
-32.26
-23.43
-12.90
-2.37
6.66
13.42
17.92
20.79
22.90
24.87
26.91
28.75
29.95
30.23
29.55
28.23
26.72
25.42
24.53
24.07
23.93
23.88
23.72
23.13
21.77
19.30
15.54
10.55
4.71
-1.46
-7.43
-12.86
-17.70
-22.23
-26.86
-31.94
-37.53
-43.24
-48.22
-51.35
-51.52
-48.08
-41.09
-31.42
-20.47
-9.86
-0.85
5.85
10.22
12.70
13.93
14.40
14.43
14.10
13.45
12.52
11.39
10.16
8.94
7.77
6.72
5.86
5.21
4.72
4.22
3.40
1.98
-0.18
-3.01
-6.24
-9.51
-12.55
-15.26
-17.77
-20.33
-23.29
-26.90
-31.30
-36.32
-41.46
-45.89
-48.51
-48.28
-44.52
-37.24
-27.28
-16.07
-5.32
3.61
9.93
13.64
15.29
15.68
15.52
15.26
15.03
14.83
14.60
14.33
14.05
13.77
13.49
13.11
12.53
11.74
10.81
9.96
9.39
9.16
9.06
8.63
7.33
4.80
1.10
-3.25
-7.48
-10.94
-13.42
-15.23
-17.11
-19.81
-23.77
-28.92
-34.61
-39.81
-43.33
-44.19
-41.84
-36.31
-28.27
-18.85
-9.37
-0.94
5.82
10.78
14.29
16.82
18.73
20.17
21.14
21.59
21.58
21.26
20.88
20.63
20.59
20.65
20.56
20.07
19.03
17.52
15.84
14.38
13.40
12.89
12.48
11.62
9.82
6.90
3.09
-1.06
-4.92
-8.04
-10.29
-11.85
-13.13
-14.59
-16.66
-19.65
-23.65
-28.44
-33.38
-37.48
-39.60
-38.78
-34.58
-27.30
-17.92
-7.83
1.54
9.15
14.54
17.79
19.42
20.06
20.23
20.25
20.22
20.14
20.02
19.86
19.69
19.54
19.43
19.37
19.43
19.66
20.06
20.57
20.98
21.09
20.71
19.79
18.37
16.59
14.60
12.51
10.37
8.16
5.84
3.35
0.67
-2.22
-5.21
-8.18
-10.99
-13.61
-16.17
-18.96
-22.36
-26.61
-31.61
-36.72
-40.85
-42.76
-41.46
-36.64
-28.88
-19.48
-10.05
-2.00
3.91
7.61
9.56
10.40
10.59
10.31
9.59
8.46
7.12
5.88
5.04
4.75
4.91
5.30
5.77
6.29
6.96
7.84
8.83
9.65
9.93
9.47
8.27
6.56
4.63
2.71
0.88
-0.90
-2.76
-4.77
-6.98
-9.38
-11.90
-14.46
-16.98
-19.38
-21.71
-24.12
-26.87
-30.28
-34.56
-39.56
-44.68
-48.82
-50.74
-49.39
-44.41
-36.30
-26.29
-15.99
-6.82
0.35
5.31
8.37
10.08
10.92
11.29
11.41
11.45
11.54
11.75
12.15
12.69
13.35
14.07
14.84
15.66
16.59
17.63
18.73
19.70
20.27
20.13
19.06
17.07
14.38
11.39
8.46
5.81
3.41
1.10
-1.37
-4.11
-7.12
-10.24
-13.27
-16.05
-18.58
-20.98
-23.57
-26.75
-30.87
-35.99
-41.71
-47.13
-51.00
-52.06
-49.50
-43.32
-34.29
-23.81
-13.39
-4.24
3.03
8.43
12.38
15.44
18.03
20.41
22.65
24.66
26.24
27.19
27.29
26.53
25.18
23.83
23.20
23.88
26.07
29.45
33.29
36.74
39.13
40.14
39.77
38.29
36.00
33.17
30.06
26.87
23.69
20.47
17.01
13.00
8.29
2.87
-3.01
-9.01
-14.86
-20.56
-26.34
-32.56
-39.36
-46.45
-52.96
-57.62
-59.08
-56.40
-49.44
-38.95
-26.38
-13.44
-1.63
8.13
15.49
20.55
23.54
24.68
24.16
22.26
19.46
16.42
13.90
12.51
12.54
13.91
16.17
18.68
20.79
22.06
22.31
21.65
20.37
18.75
16.95
14.92
12.51
9.53
5.90
1.72
-2.81
-7.40
-11.76
-15.70
-19.14
-22.10
-24.85
-27.83
-31.63
-36.69
-43.09
-50.18
-56.72
-61.05
-61.65
-57.67
-49.26
-37.53
-24.18
-10.98
0.68
10.09
17.13
22.07
25.26
27.05
27.67
27.39
26.52
25.46
24.58
24.13
24.17
24.54
25.03
25.36
25.35
24.91
24.10
22.96
21.56
19.91
17.81
14.96
10.99
5.68
-0.82
-7.99
-15.04
-21.24
-26.23
-30.24
-33.99
-38.44
-44.38
-52.03
-60.92
-69.89
-77.29
-81.38
-80.75
-74.76
-63.82
-49.31
-33.24
-17.68
-4.16
6.62
14.77
20.82
25.43
28.98
31.60
33.22
33.79
33.47
32.60
31.66
31.03
30.92
31.26
31.76
32.05
31.85
31.02
29.63
27.82
25.75
23.44
20.78
17.55
13.50
8.52
2.71
-3.55
-9.69
-15.13
-19.57
-23.13
-26.37
-30.06
-34.99
-41.69
-50.22
-60.09
-70.19
-78.91
-84.34
-84.77
-79.18
-67.72
-51.83
-33.78
-16.03
-0.54
11.73
20.82
27.47
32.61
37.00
40.99
44.56
47.53
49.67
50.89
51.31
51.17
50.82
50.51
50.36
50.33
50.19
49.68
48.58
46.74
44.12
40.78
36.79
32.25
27.26
21.92
16.35
10.67
4.99
-0.62
-6.00
-11.03
-15.59
-19.62
-23.26
-26.91
-31.19
-36.82
-44.33
-53.64
-63.85
-73.21
-79.45
-80.42
-74.89
-62.97
-46.23
-27.23
-8.72
7.14
19.32
27.92
33.82
38.13
41.75
45.10
48.22
50.94
53.05
54.48
55.24
55.42
55.14
54.55
53.87
53.30
52.95
52.75
52.45
51.68
50.10
47.54
44.02
39.69
34.79
29.56
24.14
18.66
13.18
7.80
2.59
-2.41
-7.25
-12.13
-17.34
-23.31
-30.44
-39.00
-48.93
-59.71
-70.22
-78.85
-83.78
-83.40
-76.90
-64.66
-48.25
-30.09
-12.74
1.91
13.02
20.79
26.09
29.87
32.70
34.69
35.65
35.46
34.30
32.71
31.39
30.91
31.48
32.87
34.54
35.89
36.44
36.01
34.67
32.63
30.07
27.04
23.44
19.14
14.08
8.36
2.30
-3.66
-9.13
-13.83
-17.84
-21.48
-25.31
-29.94
-35.95
-43.67
-53.02
-63.31
-73.18
-80.71
-83.94
-81.35
-72.50
-58.28
-40.68
-22.23
-5.27
8.76
19.41
27.16
32.88
37.47
41.46
45.02
48.01
50.20
51.39
51.59
51.05
50.18
49.42
49.07
49.15
49.36
49.26
48.42
46.57
43.70
40.01
35.73
31.13
26.37
21.61
16.93
12.36
7.83
3.21
-1.62
-6.67
-11.81
-16.78
-21.38
-25.59
-29.66
-34.08
-39.39
-45.97
-53.81
-62.28
-70.10
-75.58
-76.92
-72.88
-63.22
-48.92
-31.93
-14.59
1.09
13.97
23.81
31.10
36.54
40.68
43.77
45.87
47.08
47.59
47.72
47.79
47.91
48.06
48.07
47.75
47.06
46.14
45.17
44.33
43.59
42.67
41.16
38.68
35.07
30.54
25.61
20.89
16.86
13.68
11.11
8.70
5.96
2.63
-1.28
-5.46
-9.51
-13.06
-15.98
-18.44
-20.89
-23.97
-28.34
-34.43
-42.12
-50.56
-58.15
-62.88
-62.92
-57.27
-46.20
-31.28
-14.86
0.61
13.36
22.63
28.62
32.13
34.06
35.13
35.72
35.96
35.90
35.54
35.00
34.42
33.99
33.87
34.17
34.88
35.87
36.92
37.73
37.99
37.47
35.98
33.51
30.11
25.99
21.41
16.67
12.06
7.76
3.81
0.17
-3.27
-6.59
-9.84
-13.01
-16.12
-19.39
-23.14
-27.81
-33.70
-40.71
-48.11
-54.60
-58.54
-58.49
-53.71
-44.50
-32.15
-18.60
-5.77
4.88
12.67
17.66
20.37
21.39
21.18
20.00
18.03
15.54
12.93
10.74
9.40
9.06
9.60
10.63
11.64
12.21
12.09
11.29
9.94
8.23
6.25
3.98
1.30
-1.94
-5.82
-10.23
-14.91
-19.46
-23.50
-26.75
-29.20
-31.11
-32.96
-35.36
-38.93
-44.06
-50.69
-58.14
-65.12
-69.92
-70.91
-67.08
-58.43
-46.07
-31.91
-18.04
-6.13
2.95
9.16
13.03
15.29
16.57
17.33
17.81
18.15
18.45
18.71
18.88
18.92
18.82
18.70
18.74
19.15
20.00
21.15
22.27
22.96
22.90
21.95
20.23
17.95
15.37
12.60
9.64
6.42
2.92
-0.76
-4.40
-7.75
-10.63
-13.05
-15.20
-17.40
-20.08
-23.67
-28.52
-34.71
-41.86
-49.01
-54.68
-57.24
-55.38
-48.67
-37.82
-24.49
-10.85
1.15
10.29
16.34
19.87
21.75
22.77
23.30
23.34
22.72
21.40
19.63
17.87
16.56
15.92
15.86
16.02
16.01
15.61
14.82
13.84
12.82
11.77
10.46
8.49
5.44
1.09
-4.41
-10.59
-16.71
-22.11
-26.44
-29.84
-32.78
-35.97
-39.98
-45.18
-51.54
-58.61
-65.50
-70.91
-73.32
-71.50
-64.91
-54.06
-40.46
-26.14
-13.02
-2.30
5.75
11.62
16.07
19.75
22.92
25.51
27.32
28.20
28.18
27.45
26.34
25.13
24.07
23.31
22.89
22.68
22.50
22.10
21.30
20.06
18.39
16.36
13.94
11.04
7.49
3.23
-1.60
-6.64
-11.42
-15.55
-18.91
-21.70
-24.30
-27.19
-30.75
-35.27
-40.88
-47.54
-54.82
-61.80
-67.14
-69.30
-67.09
-60.15
-49.19
-35.81
-22.02
-9.62
0.34
7.67
12.86
16.74
20.07
23.34
26.68
29.94
32.85
35.09
36.44
36.81
36.29
35.17
33.84
32.69
31.96
31.67
31.60
31.34
30.50
28.81
26.24
23.00
19.41
15.76
12.25
8.86
5.48
1.88
-2.07
-6.35
-10.80
-15.15
-19.16
-22.74
-25.97
-29.10
-32.54
-36.73
-42.08
-48.65
-55.98
-62.86
-67.63
-68.53
-64.40
-55.26
-42.38
-27.91
-14.11
-2.63
6.00
12.17
16.77
20.62
24.10
27.15
29.48
30.91
31.54
31.71
31.83
32.19
32.81
33.52
34.12
34.52
34.79
35.08
35.44
35.71
35.51
34.38
31.98
28.29
23.65
18.70
14.10
10.28
7.31
4.85
2.36
-0.68
-4.49
-8.98
-13.72
-18.19
-21.95
-24.87
-27.14
-29.29
-32.06
-36.12
-41.89
-49.23
-57.34
-64.78
-69.78
-70.71
-66.58
-57.40
-44.25
-28.98
-13.69
-0.12
10.66
18.49
23.80
27.38
29.92
31.90
33.49
34.74
35.73
36.56
37.37
38.21
39.01
39.64
39.99
40.08
40.11
40.26
40.62
41.01
41.02
40.17
38.17
35.05
31.15
26.99
23.05
19.58
16.56
13.80
11.02
8.11
5.07
2.07
-0.71
-3.16
-5.35
-7.49
-10.02
-13.43
-18.17
-24.43
-31.93
-39.76
-46.48
-50.40
-50.09
-44.94
-35.41
-22.95
-9.61
2.62
12.37
19.15
23.25
25.37
26.26
26.45
26.18
25.52
24.59
23.62
22.98
22.96
23.71
25.12
26.88
28.62
30.09
31.14
31.72
31.75
31.07
29.47
26.84
23.32
19.28
15.24
11.62
8.54
5.84
3.12
0.07
-3.43
-7.19
-10.84
-14.04
-16.68
-18.97
-21.41
-24.61
-29.09
-34.99
-41.90
-48.81
-54.25
-56.64
-54.74
-48.12
-37.34
-23.88
-9.66
3.45
14.14
21.88
26.79
29.42
30.39
30.21
29.27
27.85
26.23
24.69
23.54
23.00
23.19
24.07
25.45
27.00
28.37
29.27
29.52
29.03
27.83
25.99
23.60
20.73
17.48
13.93
10.12
6.09
1.82
-2.67
-7.33
-12.05
-16.70
-21.22
-25.66
-30.23
-35.28
-41.18
-48.10
-55.80
-63.46
-69.73
-73.02
-71.97
-66.01
-55.54
-41.95
-27.18
-13.19
-1.44
7.37
13.25
16.75
18.54
19.25
19.29
18.89
18.20
17.39
16.71
16.48
16.90
18.00
19.57
21.23
22.55
23.25
23.25
22.63
21.52
20.00
18.10
15.71
12.76
9.28
5.37
1.25
-2.84
-6.63
-9.98
-12.84
-15.30
-17.56
-19.88
-22.59
-26.02
-30.49
-36.18
-42.88
-49.82
-55.60
-58.50
-56.99
-50.43
-39.44
-25.87
-12.16
-0.57
7.58
12.18
14.12
14.71
15.08
15.85
17.09
18.51
19.80
20.80
21.53
22.11
22.67
23.24
23.76
24.06
24.01
23.53
22.62
21.35
19.76
17.81
15.31
12.01
7.73
2.50
-3.38
-9.43
-15.07
-19.88
-23.68
-26.60
-28.94
-31.19
-33.84
-37.41
-42.25
-48.49
-55.71
-62.97
-68.79
-71.59
-70.13
-63.99
-53.78
-41.02
-27.65
-15.56
-6.00
0.60
4.59
6.89
8.54
10.38
12.86
16.08
19.97
24.51
29.87
36.29
43.90
52.48
61.48
70.09
77.48
82.97
86.01
86.14
82.96
76.15
65.82
52.61
37.78
22.97
9.75
-0.78
-8.24
-13.03
-16.11
-18.72
-22.02
-26.80
-33.29
-41.20
-49.80
-58.26
-65.77
-71.67
-75.28
-75.83
-72.60
-65.16
-53.79
-39.72
-24.84
-11.21
-0.35
7.16
11.64
13.96
15.07
15.64
16.06
16.53
17.21
18.25
19.64
21.22
22.70
23.79
24.39
24.59
24.61
24.68
24.90
25.28
25.73
26.20
26.64
27.04
27.38
27.56
27.50
27.17
26.59
25.85
25.11
24.47
23.89
23.19
22.06
20.06
16.73
11.63
4.59
-4.14
-13.70
-22.63
-29.11
-31.47
-28.76
-21.19
-10.18
2.09
13.29
21.72
26.68
28.48
28.09
26.60
24.78
23.03
21.34
19.64
17.95
16.41
15.25
14.55
14.23
14.01
13.61
12.87
11.81
10.70
9.78
9.23
8.92
8.48
7.38
5.19
1.75
-2.69
-7.56
-12.19
-16.15
-19.36
-22.22
-25.35
-29.33
-34.50
-40.77
-47.67
-54.37
-59.79
-62.73
-62.17
-57.54
-49.03
-37.62
-24.92
-12.71
-2.45
5.05
9.74
12.00
12.40
11.39
9.27
6.27
2.77
-0.70
-3.54
-5.27
-5.81
-5.41
-4.59
-3.81
-3.31
-3.01
-2.74
-2.35
-1.94
-1.85
-2.47
-4.13
-6.85
-10.37
-14.17
-17.70
-20.52
-22.49
-23.82
-25.08
-27.07
-30.53
-35.86
-42.78
-50.33
-56.85
-60.54
-59.98
-54.61
-45.03
-32.82
-20.06
-8.65
0.21
6.23
9.91
12.14
13.71
15.13
16.48
17.64
18.47
18.99
19.39
19.85
20.47
21.10
21.47
21.31
20.55
19.38
18.15
17.18
16.57
16.08
15.21
13.42
10.39
6.17
1.16
-3.95
-8.55
-12.27
-15.11
-17.52
-20.12
-23.59
-28.43
-34.82
-42.51
-50.73
-58.21
-63.34
-64.59
-60.95
-52.41
-40.08
-25.92
-12.15
-0.51
8.12
13.90
17.66
20.42
22.95
25.55
28.12
30.33
31.86
32.57
32.57
32.20
31.84
31.80
32.17
32.83
33.50
33.91
33.88
33.38
32.49
31.30
29.80
27.87
25.41
22.37
18.82
14.97
11.11
7.51
4.37
1.73
-0.55
-2.82
-5.57
-9.34
-14.58
-21.42
-29.50
-37.87
-45.10
-49.52
-49.77
-45.21
-36.27
-24.35
-11.47
0.37
9.79
16.31
20.23
22.36
23.50
24.20
24.66
24.88
24.77
24.38
23.84
23.34
23.04
22.91
22.79
22.41
21.59
20.32
18.77
17.20
15.77
14.45
12.93
10.85
7.91
4.06
-0.44
-5.13
-9.54
-13.34
-16.45
-19.03
-21.47
-24.32
-28.14
-33.37
-40.12
-47.95
-55.81
-62.16
-65.33
-64.06
-57.94
-47.61
-34.64
-20.98
-8.44
1.81
9.42
14.70
18.35
21.11
23.47
25.61
27.47
28.89
29.76
30.10
30.10
30.06
30.22
30.62
31.11
31.39
31.17
30.27
28.76
26.82
24.64
22.30
19.75
16.78
13.21
8.97
4.18
-0.85
-5.75
-10.15
-13.88
-16.99
-19.84
-22.93
-26.88
-32.14
-38.85
-46.70
-54.79
-61.77
-66.00
-66.06
-61.21
-51.68
-38.78
-24.49
-10.84
0.67
9.42
15.72
20.38
24.31
28.11
31.93
35.59
38.73
41.03
42.33
42.62
42.09
41.05
39.81
38.68
37.79
37.17
36.63
35.95
34.90
33.26
30.96
28.03
24.63
20.96
17.22
13.53
9.92
6.32
2.62
-1.24
-5.25
-9.32
-13.38
-17.40
-21.47
-25.77
-30.54
-36.02
-42.37
-49.45
-56.67
-62.91
-66.67
-66.46
-61.41
-51.69
-38.58
-24.14
-10.49
0.93
9.66
16.16
21.28
25.78
29.94
33.58
36.35
38.02
38.69
38.70
38.50
38.39
38.47
38.63
38.69
38.54
38.22
37.85
37.57
37.35
36.94
35.93
33.96
30.88
26.93
22.66
18.75
15.70
13.59
12.05
10.42
8.06
4.69
0.51
-3.96
-8.08
-11.39
-13.80
-15.58
-17.27
-19.46
-22.69
-27.32
-33.39
-40.45
-47.47
-52.98
-55.35
-53.35
-46.68
-36.22
-23.70
-11.22
-0.46
7.72
13.39
17.22
20.02
22.41
24.62
26.67
28.50
30.08
31.44
32.60
33.58
34.30
34.76
34.99
35.10
35.26
35.59
36.03
36.39
36.29
35.36
33.40
30.42
26.72
22.80
19.13
16.02
13.54
11.49
9.52
7.27
4.46
1.03
-2.89
-6.99
-10.90
-14.33
-17.22
-19.82
-22.65
-26.34
-31.39
-37.83
-45.07
-51.78
-56.36
-57.27
-53.68
-45.77
-34.80
-22.66
-11.36
-2.39
3.65
6.99
8.44
8.92
9.09
9.19
9.23
9.17
9.07
9.17
9.74
10.89
12.52
14.38
16.14
17.59
18.66
19.35
19.69
19.60
18.92
17.53
15.36
12.61
9.57
6.59
3.95
1.74
-0.16
-2.02
-4.13
-6.75
-9.95
-13.59
-17.35
-20.80
-23.61
-25.67
-27.25
-28.98
-31.68
-35.97
-41.91
-48.82
-55.30
-59.58
-60.16
-56.37
-48.55
-38.04
-26.58
-15.82
-6.84
-0.00
4.89
8.32
10.80
12.74
14.42
16.03
17.66
19.29
20.78
21.95
22.64
22.83
22.68
22.41
22.25
22.31
22.59
22.95
23.20
23.09
22.42
21.05
18.97
16.32
13.34
10.29
7.32
4.46
1.57
-1.46
-4.71
-8.12
-11.52
-14.76
-17.67
-20.23
-22.48
-24.65
-27.06
-30.22
-34.58
-40.30
-46.91
-53.25
-57.64
-58.44
-54.68
-46.50
-35.20
-22.74
-11.15
-1.82
4.77
9.01
11.77
13.94
16.11
18.42
20.71
22.69
24.15
25.06
25.53
25.72
25.75
25.67
25.53
25.38
25.33
25.45
25.66
25.78
25.51
24.57
22.88
20.59
18.02
15.54
13.40
11.63
10.03
8.30
6.19
3.63
0.79
-2.00
-4.44
-6.40
-8.06
-9.84
-12.32
-16.01
-21.19
-27.69
-34.84
-41.45
-46.06
-47.28
-44.30
-37.20
-27.09
-15.74
-5.11
3.37
9.11
12.41
14.13
15.22
16.27
17.43
18.47
19.14
19.31
19.13
18.94
19.02
19.53
20.38
21.36
22.28
23.01
23.52
23.83
23.86
23.44
22.37
20.51
17.88
14.63
10.97
7.11
3.16
-0.82
-4.76
-8.57
-12.09
-15.21
-17.96
-20.55
-23.32
-26.72
-31.09
-36.60
-43.11
-49.97
-56.11
-60.18
-60.87
-57.42
-49.94
-39.47
-27.70
-16.46
-7.20
-0.60
3.42
5.47
6.39
6.86
7.29
7.78
8.26
8.66
9.01
9.48
10.23
11.39
12.89
14.53
16.05
17.21
17.86
17.90
17.27
15.97
13.98
11.41
8.42
5.22
1.97
-1.25
-4.46
-7.73
-11.10
-14.54
-18.00
-21.40
-24.69
-27.89
-31.14
-34.73
-39.03
-44.38
-50.82
-57.98
-64.84
-69.94
-71.70
-68.96
-61.49
-50.14
-36.67
-23.14
-11.30
-2.06
4.57
9.30
13.01
16.43
19.87
23.28
26.41
29.00
30.92
32.13
32.72
32.83
32.72
32.62
32.76
33.25
33.96
34.59
34.70
33.89
31.96
28.96
25.20
21.06
16.93
13.04
9.44
6.06
2.68
-0.90
-4.85
-9.14
-13.60
-17.97
-22.03
-25.82
-29.66
-34.17
-39.92
-47.21
-55.72
-64.41
-71.62
-75.50
-74.57
-68.26
-57.14
-42.78
-27.31
-12.74
-0.42
9.20
16.50
22.26
27.21
31.78
35.97
39.52
42.15
43.78
44.53
44.73
44.68
44.62
44.59
44.58
44.55
44.50
44.45
44.35
44.00
43.09
41.28
38.33
34.27
29.38
24.21
19.34
15.21
11.94
9.26
6.63
3.50
-0.42
-5.05
-9.97
-14.59
-18.56
-21.86
-24.95
-28.56
-33.42
-39.97
-48.15
-57.29
-66.04
-72.66
-75.32
-72.73
-64.56
-51.68
-35.98
-19.74
-5.02
6.96
15.91
22.39
27.26
31.30
34.99
38.39
41.33
43.61
45.11
45.94
46.38
46.77
47.36
48.23
49.23
50.09
50.59
50.62
50.24
49.58
48.65
47.29
45.17
41.97
37.64
32.50
27.19
22.48
18.96
16.71
15.34
14.07
12.12
9.01
4.78
-0.13
-5.03
-9.32
-12.74
-15.40
-17.82
-20.72
-24.83
-30.67
-38.35
-47.40
-56.69
-64.53
-69.05
-68.72
-62.86
-52.02
-37.81
-22.57
-8.52
2.80
10.87
16.14
19.56
22.11
24.43
26.75
28.93
30.77
32.14
33.10
33.82
34.48
35.22
36.02
36.78
37.35
37.63
37.53
36.95
35.75
33.74
30.81
26.99
22.56
17.95
13.64
9.92
6.82
4.08
1.30
-1.83
-5.37
-9.13
-12.84
-16.30
-19.56
-22.95
-26.97
-32.10
-38.58
-46.25
-54.41
-61.82
-66.90
-68.09
-64.35
-55.63
-42.99
-28.38
-14.04
-1.83
7.31
13.40
17.21
19.74
21.79
23.75
25.57
27.00
27.81
27.98
27.70
27.30
27.12
27.31
27.84
28.52
29.09
29.34
29.13
28.40
27.07
25.05
22.32
18.99
15.30
11.61
8.19
5.14
2.32
-0.54
-3.68
-7.20
-10.97
-14.75
-18.31
-21.60
-24.79
-28.28
-32.60
-38.19
-45.18
-53.22
-61.30
-67.83
-71.04
-69.56
-62.91
-51.82
-37.99
-23.61
-10.62
-0.18
7.46
12.79
16.61
19.67
22.42
25.00
27.30
29.15
30.37
30.87
30.70
30.03
29.19
28.49
28.16
28.24
28.60
28.97
29.02
28.39
26.80
24.09
20.32
15.78
10.97
6.45
2.61
-0.45
-2.93
-5.27
-7.85
-10.84
-14.14
-17.44
-20.43
-22.99
-25.31
-27.89
-31.38
-36.46
-43.43
-52.04
-61.23
-69.25
-74.00
-73.66
-67.34
-55.48
-39.82
-22.92
-7.29
5.31
14.28
20.05
23.67
26.20
28.34
30.34
32.15
33.65
34.77
35.56
36.06
36.25
36.03
35.33
34.16
32.73
31.42
30.58
30.41
30.81
31.40
31.66
31.15
29.73
27.55
24.97
22.39
20.01
17.82
15.66
13.29
10.59
7.56
4.34
1.09
-2.09
-5.28
-8.72
-12.84
-18.03
-24.53
-32.13
-40.07
-47.05
-51.48
-52.02
-48.04
-40.02
-29.43
-18.26
-8.38
-0.89
4.09
7.27
9.59
11.84
14.31
16.85
19.18
21.08
22.56
23.74
24.78
25.80
26.84
27.90
28.99
30.09
31.09
31.82
32.00
31.44
30.04
27.90
25.26
22.37
19.46
16.67
14.00
11.43
8.89
6.30
3.63
0.89
-1.89
-4.65
-7.40
-10.23
-13.38
-17.21
-22.03
-27.98
-34.76
-41.54
-47.01
-49.74
-48.62
-43.31
-34.47
-23.60
-12.58
-3.13
3.75
7.91
9.91
10.59
10.74
10.79
10.79
10.60
10.09
9.28
8.39
7.76
7.68
8.28
9.44
10.82
12.01
12.64
12.53
11.67
10.22
8.36
6.23
3.86
1.19
-1.80
-5.03
-8.28
-11.31
-13.93
-16.11
-18.02
-19.94
-22.14
-24.77
-27.91
-31.59
-35.85
-40.66
-45.81
-50.66
-54.24
-55.36
-53.07
-47.12
-38.14
-27.48
-16.88
-7.78
-0.99
3.51
6.40
8.55
10.70
13.12
15.62
17.79
19.26
19.90
19.92
19.67
19.51
19.61
19.93
20.34
20.74
21.13
21.49
21.70
21.51
20.56
18.57
15.57
11.88
8.01
4.45
1.38
-1.35
-4.06
-7.06
-10.39
-13.83
-17.02
-19.73
-22.01
-24.26
-26.99
-30.69
-35.58
-41.48
-47.73
-53.27
-56.83
-57.18
-53.58
-46.03
-35.49
-23.59
-12.11
-2.47
4.72
9.70
13.19
16.00
18.64
21.21
23.49
25.23
26.32
26.84
26.99
27.00
26.94
26.84
26.63
26.30
25.94
25.68
25.61
25.70
25.71
25.27
24.03
21.77
18.63
14.98
11.33
8.10
5.43
3.16
0.90
-1.68
-4.79
-8.31
-11.99
-15.48
-18.60
-21.32
-23.85
-26.54
-29.76
-33.89
-39.05
-44.99
-50.94
-55.67
-57.78
-56.11
-50.26
-40.76
-28.98
-16.71
-5.60
3.29
9.69
14.03
17.07
19.56
21.95
24.32
26.48
28.17
29.21
29.68
29.83
29.96
30.28
30.83
31.45
32.01
32.39
32.63
32.84
33.03
33.10
32.81
31.90
30.17
27.69
24.74
21.76
19.19
17.27
15.93
14.80
13.39
11.31
8.42
4.95
1.35
-1.94
-4.70
-7.09
-9.54
-12.68
-17.03
-22.83
-29.87
-37.44
-44.33
-49.14
-50.54
-47.77
-40.94
-31.06
-19.81
-9.03
-0.16
6.11
9.83
11.59
12.22
12.50
12.97
13.89
15.26
16.85
18.37
19.54
20.26
20.62
20.83
21.10
21.57
22.16
22.68
22.88
22.57
21.60
19.94
17.66
14.87
11.75
8.51
5.32
2.27
-0.64
-3.52
-6.44
-9.39
-12.22
-14.75
-16.89
-18.71
-20.57
-22.98
-26.49
-31.48
-37.95
-45.41
-52.83
-58.78
-61.69
-60.37
-54.43
-44.52
-32.24
-19.71
-8.83
-0.82
4.11
6.58
7.56
7.97
8.34
8.83
9.38
9.89
10.37
10.91
11.64
12.61
13.75
14.96
16.12
17.15
17.97
18.42
18.30
17.37
15.48
12.68
9.23
5.55
2.03
-1.12
-3.89
-6.47
-9.11
-11.93
-14.95
-18.01
-20.91
-23.53
-25.88
-28.16
-30.77
-34.22
-38.98
-45.25
-52.68
-60.27
-66.44
-69.44
-67.95
-61.55
-50.94
-37.83
-24.40
-12.69
-4.04
1.15
3.44
3.99
4.13
4.92
6.90
10.03
13.82
17.68
21.16
24.10
26.61
28.83
30.82
32.46
33.55
33.92
33.53
32.46
30.83
28.73
26.20
23.25
19.91
16.32
12.62
8.98
5.45
2.05
-1.28
-4.56
-7.71
-10.64
-13.30
-15.81
-18.51
-21.91
-26.54
-32.76
-40.50
-49.15
-57.52
-64.03
-67.09
-65.54
-59.07
-48.37
-35.02
-20.95
-7.92
2.95
11.42
17.88
23.02
27.44
31.36
34.73
37.30
38.91
39.57
39.46
38.94
38.35
37.98
38.00
38.40
39.04
39.65
39.94
39.65
38.66
36.95
34.60
31.76
28.53
25.00
21.23
17.24
13.07
8.73
4.24
-0.32
-4.82
-9.09
-12.99
-16.49
-19.80
-23.35
-27.70
-33.33
-40.24
-47.77
-54.54
-58.74
-58.74
-53.66
-43.81
-30.64
-16.34
-3.07
7.63
15.19
19.96
22.80
24.67
26.23
27.76
29.23
30.45
31.32
31.91
32.47
33.27
34.53
36.23
38.14
39.89
41.11
41.57
41.21
40.13
38.40
36.07
33.07
29.32
24.83
19.74
14.35
9.01
4.07
-0.27
-3.91
-6.97
-9.74
-12.66
-16.29
-21.14
-27.49
-35.24
-43.77
-51.93
-58.21
-61.01
-59.15
-52.23
-40.91
-26.84
-12.21
0.88
11.00
17.74
21.57
23.40
24.10
24.11
23.52
22.27
20.45
18.49
17.05
16.69
17.60
19.50
21.70
23.41
24.08
23.50
21.88
19.57
16.92
14.09
11.05
7.61
3.66
-0.88
-5.84
-10.94
-15.80
-20.08
-23.63
-26.53
-29.14
-32.03
-35.77
-40.88
-47.52
-55.43
-63.75
-71.08
-75.65
-75.83
-70.62
-60.11
-45.63
-29.34
-13.69
-0.57
9.16
15.74
20.16
23.63
27.03
30.64
34.17
37.15
39.17
40.20
40.56
40.71
41.04
41.63
42.28
42.61
42.32
41.33
39.78
37.88
35.78
33.40
30.49
26.79
22.17
16.76
10.85
4.86
-0.86
-6.04
-10.58
-14.53
-18.04
-21.42
-25.11
-29.65
-35.51
-42.95
-51.69
-60.83
-68.80
-73.73
-73.93
-68.52
-57.82
-43.32
-27.28
-11.97
0.99
10.98
18.34
23.93
28.65
33.01
37.10
40.68
43.43
45.15
45.83
45.65
44.84
43.68
42.42
41.28
40.48
40.16
40.35
40.83
41.17
40.80
39.20
36.13
31.78
26.64
21.36
16.46
12.15
8.31
4.62
0.75
-3.46
-7.96
-12.52
-16.85
-20.81
-24.41
-27.94
-31.83
-36.66
-42.80
-50.23
-58.30
-65.66
-70.53
-71.16
-66.51
-56.63
-42.78
-27.00
-11.58
1.69
11.94
19.26
24.42
28.40
31.99
35.51
38.83
41.62
43.55
44.55
44.79
44.61
44.30
43.98
43.57
42.93
42.03
41.01
40.15
39.62
39.36
39.01
38.05
36.06
32.95
29.00
24.79
20.97
17.97
15.88
14.42
13.02
11.13
8.42
4.89
0.93
-2.95
-6.31
-9.01
-11.33
-13.85
-17.25
-22.09
-28.62
-36.62
-45.31
-53.38
-59.22
-61.28
-58.61
-51.27
-40.40
-27.87
-15.77
-5.68
1.62
6.25
8.87
10.32
11.33
12.35
13.59
15.10
16.80
18.58
20.26
21.71
22.88
23.79
24.55
25.30
26.06
26.79
27.25
27.21
26.40
24.68
22.09
18.86
15.31
11.76
8.48
5.60
3.05
0.68
-1.77
-4.54
-7.72
-11.24
-14.84
-18.20
-21.16
-23.80
-26.53
-30.00
-34.79
-41.11
-48.62
-56.23
-62.34
-65.25
-63.71
-57.37
-46.99
-34.27
-21.31
-10.03
-1.61
3.72
6.53
7.84
8.67
9.70
11.14
12.85
14.56
15.99
17.07
17.83
18.38
18.82
19.17
19.43
19.66
19.92
20.27
20.67
20.90
20.65
19.61
17.66
14.89
11.66
8.39
5.42
2.89
0.68
-1.52
-4.02
-7.04
-10.56
-14.35
-18.05
-21.37
-24.15
-26.54
-28.95
-31.90
-35.93
-41.28
-47.71
-54.38
-59.94
-62.79
-61.61
-55.83
-45.94
-33.40
-20.22
-8.28
1.23
8.05
12.61
15.75
18.13
20.13
21.77
22.96
23.65
23.96
24.06
24.10
24.14
24.09
23.90
23.56
23.18
22.90
22.82
22.87
22.82
22.29
20.97
18.72
15.73
12.43
9.33
6.78
4.84
3.19
1.36
-1.08
-4.28
-8.00
-11.77
-15.07
-17.59
-19.42
-21.00
-22.94
-25.85
-30.10
-35.64
-42.00
-48.24
-53.11
-55.26
-53.63
-47.85
-38.43
-26.76
-14.71
-4.05
4.10
9.47
12.59
14.38
15.73
17.22
19.04
21.07
23.06
24.79
26.13
27.04
27.63
28.08
28.57
29.29
30.25
31.35
32.34
32.92
32.78
31.76
29.85
27.23
24.17
21.01
18.03
15.31
12.82
10.36
7.76
4.88
1.70
-1.68
-5.08
-8.34
-11.40
-14.35
-17.51
-21.32
-26.23
-32.37
-39.35
-46.13
-51.14
-52.81
-50.09
-42.94
-32.46
-20.55
-9.29
-0.26
5.82
9.17
10.60
11.07
11.32
11.64
12.02
12.27
12.33
12.32
12.54
13.33
14.84
16.94
19.21
21.11
22.18
22.21
21.29
19.65
17.52
15.04
12.19
8.91
5.19
1.14
-3.02
-7.02
-10.65
-13.77
-16.35
-18.49
-20.40
-22.44
-25.03
-28.62
-33.56
-39.88
-47.12
-54.27
-59.93
-62.62
-61.25
-55.55
-46.20
-34.67
-22.77
-12.13
-3.74
2.20
6.11
8.63
10.37
11.62
12.45
12.86
13.01
13.20
13.79
15.00
16.74
18.65
20.23
21.13
21.22
20.67
19.78
18.80
17.80
16.69
15.26
13.29
10.69
7.43
3.64
-0.47
-4.65
-8.62
-12.17
-15.25
-17.98
-20.69
-23.85
-27.94
-33.34
-40.09
-47.75
-55.36
-61.54
-64.75
-63.76
-58.07
-48.23
-35.68
-22.42
-10.35
-0.74
6.03
10.45
13.49
16.13
19.01
22.26
25.58
28.44
30.39
31.20
30.97
30.05
28.88
27.82
27.05
26.49
25.94
25.15
23.96
22.29
20.10
17.38
14.13
10.33
6.10
1.59
-2.97
-7.39
-11.58
-15.52
-19.27
-22.87
-26.31
-29.59
-32.80
-36.26
-40.49
-46.06
-53.23
-61.64
-70.02
-76.40
-78.61
-74.96
-64.99
-49.72
-31.40
-12.88
3.36
15.80
24.18
29.23
32.13
33.93
35.25
36.28
36.97
37.34
37.50
37.65
37.92
38.25
38.48
38.43
38.09
37.65
37.36
37.36
37.57
37.65
37.18
35.81
33.47
30.35
26.82
23.32
20.16
17.44
15.06
12.73
10.13
7.00
3.24
-1.09
-5.74
-10.53
-15.39
-20.47
-26.11
-32.66
-40.25
-48.46
-56.29
-62.23
-64.68
-62.42
-55.12
-43.51
-29.28
-14.51
-1.11
9.76
17.83
23.61
27.92
31.46
34.56
37.17
39.02
39.96
40.03
39.54
38.90
38.48
38.52
39.11
40.26
41.86
43.74
45.63
47.17
48.06
48.10
47.36
46.12
44.76
43.62
42.80
42.13
41.15
39.37
36.43
32.27
27.18
21.67
16.31
11.43
7.04
2.74
-2.13
-8.23
-15.91
-24.91
-34.25
-42.30
-47.17
-47.36
-42.30
-32.68
-20.35
-7.70
3.08
10.68
14.92
16.58
16.81
16.68
16.75
17.11
17.57
17.98
18.39
19.14
20.62
23.11
26.55
30.51
34.27
37.03
38.21
37.58
35.35
31.92
27.73
23.04
17.95
12.45
6.65
0.86
-4.45
-8.89
-12.29
-14.87
-17.14
-19.78
-23.34
-28.18
-34.38
-41.78
-49.95
-58.09
-65.02
-69.31
-69.62
-65.14
-56.00
-43.31
-28.99
-15.17
-3.59
4.76
9.86
12.30
13.00
12.76
12.09
11.23
10.31
9.54
9.25
9.74
11.16
13.30
15.66
17.60
18.69
18.84
18.36
17.74
17.30
16.94
16.15
14.18
10.49
5.05
-1.57
-8.45
-14.65
-19.69
-23.63
-26.97
-30.37
-34.39
-39.26
-44.86
-50.71
-55.96
-59.45
-59.91
-56.29
-48.15
-35.97
-21.12
-5.52
8.93
20.87
29.69
35.53
38.90
40.37
40.37
39.18
37.11
34.60
32.29
30.87
30.77
31.96
33.83
35.43
35.79
34.33
31.08
26.62
21.71
16.95
12.49
8.13
3.55
-1.38
-6.43
-11.10
-14.96
-17.90
-20.25
-22.78
-26.33
-31.57
-38.64
-47.07
-55.71
-62.98
-67.15
-66.87
-61.60
-51.85
-39.13
-25.47
-12.81
-2.46
5.19
10.56
14.49
17.79
20.82
23.52
25.45
26.23
25.75
24.29
22.40
20.65
19.32
18.43
17.67
16.73
15.46
13.95
12.51
11.34
10.44
9.50
8.01
5.49
1.72
-3.11
-8.48
-13.66
-18.06
-21.37
-23.79
-25.89
-28.46
-32.19
-37.48
-44.30
-52.15
-60.08
-66.76
-70.67
-70.43
-65.25
-55.23
-41.53
-26.13
-11.23
1.34
10.71
17.07
21.34
24.69
28.00
31.60
35.28
38.59
41.08
42.53
42.94
42.49
41.34
39.67
37.66
35.53
33.62
32.25
31.60
31.56
31.72
31.41
30.00
27.09
22.75
17.48
12.04
7.16
3.26
0.25
-2.34
-5.17
-8.72
-13.07
-17.87
-22.51
-26.43
-29.39
-31.52
-33.35
-35.53
-38.74
-43.41
-49.62
-56.90
-64.18
-69.89
-72.29
-70.02
-62.63
-50.82
-36.37
-21.50
-8.25
2.18
9.57
14.53
18.05
21.01
23.94
27.00
30.02
32.73
34.91
36.40
37.19
37.38
37.07
36.41
35.54
34.61
33.81
33.32
33.22
33.39
33.49
33.03
31.54
28.79
24.92
20.47
16.09
12.36
9.49
7.26
5.20
2.76
-0.30
-3.91
-7.69
-11.20
-14.14
-16.52
-18.58
-20.77
-23.53
-27.26
-32.22
-38.40
-45.33
-51.99
-56.91
-58.47
-55.53
-47.88
-36.47
-23.18
-10.19
0.69
8.52
13.33
15.88
17.17
18.04
18.95
20.01
21.13
22.20
23.25
24.39
25.70
27.12
28.45
29.45
30.00
30.22
30.37
30.73
31.29
31.76
31.58
30.29
27.73
24.15
20.09
16.17
12.76
9.95
7.51
5.10
2.43
-0.66
-4.11
-7.69
-11.12
-14.16
-16.77
-19.16
-21.83
-25.40
-30.44
-37.10
-44.86
-52.52
-58.33
-60.52
-57.87
-50.19
-38.52
-24.84
-11.46
-0.31
7.55
12.06
13.94
14.20
13.74
13.07
12.42
11.74
11.02
10.27
9.66
9.36
9.47
10.01
10.90
12.03
13.27
14.53
15.71
16.65
17.09
16.77
15.49
13.23
10.23
6.88
3.62
0.71
-1.84
-4.26
-6.88
-9.90
-13.26
-16.68
-19.80
-22.43
-24.66
-26.95
-29.92
-34.19
-40.13
-47.61
-55.90
-63.69
-69.33
-71.20
-68.23
-60.25
-48.25
-34.08
-19.94
-7.73
1.46
7.52
11.12
13.29
14.93
16.57
18.35
20.09
21.55
22.58
23.18
23.48
23.63
23.80
24.07
24.56
25.30
26.29
27.39
28.31
28.65
28.00
26.14
23.12
19.31
15.24
11.45
8.20
5.46
2.84
-0.17
-3.97
-8.63
-13.85
-19.07
-23.66
-27.29
-30.05
-32.50
-35.49
-39.78
-45.83
-53.52
-62.01
-69.84
-75.23
-76.42
-72.29
-62.75
-48.93
-32.92
-17.15
-3.74
6.19
12.61
16.35
18.60
20.37
22.23
24.35
26.59
28.82
30.94
32.92
34.69
36.15
37.17
37.70
37.80
37.67
37.55
37.62
37.86
38.00
37.61
36.25
33.67
29.96
25.53
21.04
17.04
13.87
11.40
9.21
6.68
3.38
-0.80
-5.60
-10.52
-15.07
-19.01
-22.48
-25.97
-30.22
-35.93
-43.41
-52.27
-61.25
-68.49
-71.90
-69.89
-61.92
-48.81
-32.51
-15.52
-0.16
12.03
20.53
25.72
28.49
29.78
30.41
30.84
31.32
31.86
32.45
33.05
33.69
34.41
35.24
36.19
37.16
37.97
38.41
38.29
37.41
35.64
32.85
28.97
24.10
18.47
12.54
6.72
1.32
-3.64
-8.34
-13.05
-17.88
-22.71
-27.24
-31.14
-34.25
-36.74
-39.09
-42.05
-46.44
-52.83
-61.23
-70.79
-79.82
-86.04
-87.34
-82.35
-71.12
-55.05
-36.53
-18.15
-2.00
10.82
20.13
26.47
30.58
33.19
34.77
35.63
35.99
36.04
36.01
36.10
36.45
37.09
37.95
38.90
39.84
40.68
41.29
41.49
41.02
39.58
36.94
33.09
28.34
23.26
18.44
14.31
10.87
7.72
4.27
0.01
-5.20
-11.06
-16.96
-22.27
-26.61
-30.10
-33.31
-37.19
-42.73
-50.61
-60.68
-71.82
-81.89
-88.24
-88.54
-81.63
-68.00
-49.73
-29.80
-11.11
4.35
15.85
23.83
29.32
33.37
36.76
39.86
42.76
45.45
47.92
50.16
52.12
53.71
54.83
55.39
55.43
55.13
54.73
54.45
54.32
54.13
53.44
51.76
48.69
44.18
38.54
32.42
26.57
21.58
17.68
14.60
11.75
8.42
4.10
-1.27
-7.29
-13.28
-18.59
-22.85
-26.19
-29.18
-32.73
-37.77
-44.91
-54.14
-64.57
-74.36
-81.15
-82.67
-77.52
-65.71
-48.84
-29.55
-10.81
5.05
16.80
24.44
28.88
31.39
33.15
34.95
37.13
39.71
42.57
45.54
48.45
51.12
53.32
54.81
55.46
55.35
54.78
54.16
53.82
53.78
53.69
52.91
50.81
47.00
41.61
35.25
28.79
23.04
18.47
15.04
12.26
9.46
6.03
1.70
-3.41
-8.87
-14.14
-18.85
-22.93
-26.69
-30.75
-35.84
-42.54
-51.05
-60.83
-70.60
-78.41
-82.11
-79.97
-71.27
-56.70
-38.27
-18.71
-0.69
13.91
24.41
31.15
35.09
37.19
38.15
38.33
37.97
37.36
36.88
36.90
37.56
38.70
39.88
40.62
40.67
40.04
39.01
37.92
36.93
35.92
34.52
32.27
28.86
24.28
18.87
13.22
7.94
3.40
-0.42
-3.92
-7.64
-12.00
-17.06
-22.51
-27.75
-32.21
-35.68
-38.34
-40.84
-44.05
-48.78
-55.57
-64.38
-74.40
-83.99
-90.93
-92.94
-88.41
-77.06
-60.24
-40.55
-21.08
-4.37
8.21
16.66
21.99
25.51
28.27
30.79
33.09
34.95
36.19
36.78
36.95
36.97
37.09
37.41
37.92
38.48
39.02
39.48
39.88
40.23
40.46
40.38
39.75
38.36
36.09
32.97
29.20
25.07
20.92
17.05
13.65
10.79
8.38
6.16
3.81
0.94
-2.73
-7.31
-12.68
-18.53
-24.44
-30.05
-35.21
-40.02
-44.79
-49.97
-56.00
-63.05
-70.84
-78.45
-84.33
-86.61
-83.72
-74.97
-60.99
-43.69
-25.66
-9.43
3.37
12.24
17.77
21.10
23.38
25.41
27.45
29.44
31.21
32.67
33.87
34.95
36.00
36.99
37.82
38.35
38.57
38.59
38.54
38.54
38.52
38.27
37.48
35.94
33.58
30.52
27.01
23.31
19.65
16.12
12.70
9.34
5.98
2.62
-0.73
-4.09
-7.54
-11.20
-15.10
-19.14
-23.05
-26.58
-29.59
-32.26
-35.11
-38.78
-43.90
-50.72
-58.92
-67.51
-74.93
-79.40
-79.34
-73.93
-63.43
-49.16
-33.21
-17.78
-4.67
5.18
11.71
15.56
17.72
19.17
20.62
22.41
24.52
26.74
28.79
30.47
31.74
32.70
33.48
34.20
34.87
35.38
35.63
35.53
35.02
34.08
32.69
30.87
28.64
26.09
23.31
20.42
17.52
14.66
11.91
9.33
6.95
4.71
2.43
-0.14
-3.19
-6.77
-10.70
-14.65
-18.25
-21.31
-23.86
-26.15
-28.58
-31.57
-35.52
-40.76
-47.38
-55.09
-62.97
-69.51
-72.86
-71.43
-64.51
-52.62
-37.56
-21.77
-7.63
3.26
10.41
14.37
16.20
17.04
17.67
18.44
19.33
20.21
21.00
21.75
22.59
23.61
24.80
26.01
27.10
27.98
28.76
29.59
30.60
31.70
32.56
32.67
31.57
29.07
25.30
20.72
16.01
11.77
8.46
6.15
4.60
3.27
1.58
-0.90
-4.31
-8.39
-12.64
-16.52
-19.67
-22.08
-24.17
-26.60
-30.11
-35.28
-42.25
-50.60
-59.19
-66.43
-70.49
-69.94
-64.20
-53.81
-40.36
-26.00
-12.82
-2.27
5.12
9.64
12.04
13.17
13.67
13.93
14.11
14.34
14.81
15.73
17.24
19.35
21.87
24.43
26.57
28.00
28.64
28.67
28.35
27.88
27.20
25.96
23.80
20.53
16.30
11.70
7.41
3.99
1.60
-0.08
-1.69
-3.87
-7.04
-11.17
-15.89
-20.62
-24.87
-28.39
-31.26
-33.89
-36.86
-40.82
-46.34
-53.63
-62.39
-71.58
-79.47
-83.97
-83.27
-76.52
-64.26
-48.38
-31.50
-16.18
-4.07
4.44
9.98
13.77
16.96
20.26
23.84
27.49
30.85
33.66
35.83
37.49
38.79
39.88
40.78
41.41
41.71
41.69
41.46
41.22
41.02
40.74
39.99
38.24
35.09
30.46
24.71
18.61
12.97
8.38
4.96
2.31
-0.27
-3.46
-7.65
-12.79
-18.45
-24.10
-29.33
-33.97
-38.18
-42.32
-46.94
-52.59
-59.78
-68.72
-79.04
-89.54
-98.30
-103.02
-101.74
-93.50
-78.83
-59.65
-38.69
-18.73
-1.82
11.16
20.48
27.16
32.44
37.26
41.97
46.33
49.84
52.04
52.77
52.29
51.02
49.39
47.58
45.60
43.39
41.04
38.81
37.04
35.92
35.31
34.76
33.72
31.73
28.65
24.73
20.47
16.49
13.26
10.95
9.36
7.99
6.21
3.49
-0.38
-5.19
-10.43
-15.53
-20.12
-24.25
-28.40
-33.35
-39.89
-48.53
-59.20
-71.09
-82.59
-91.56
-95.76
-93.50
-84.29
-69.09
-50.19
-30.49
-12.62
1.80
12.44
20.01
25.64
30.32
34.50
38.20
41.20
43.42
44.98
46.22
47.46
48.86
50.32
51.63
52.62
53.26
53.68
54.06
54.44
54.60
54.07
52.36
49.15
44.54
39.04
33.46
28.53
24.66
21.79
19.40
16.78
13.36
8.90
3.63
-1.90
-7.15
-11.74
-15.71
-19.59
-24.15
-30.18
-38.25
-48.31
-59.51
-70.17
-78.09
-81.01
-77.42
-67.05
-51.12
-32.02
-12.63
4.54
17.98
27.35
33.23
36.63
38.47
39.35
39.49
38.94
37.84
36.47
35.27
34.68
34.99
36.16
37.89
39.65
40.92
41.32
40.63
38.89
36.24
32.87
28.97
24.69
20.19
15.63
11.16
6.84
2.61
-1.72
-6.34
-11.32
-16.52
-21.58
-26.14
-30.01
-33.47
-37.19
-42.11
-48.99
-57.93
-68.06
-77.46
-83.62
-84.17
-77.69
-64.36
-46.05
-25.74
-6.60
8.95
19.90
26.67
30.60
33.26
35.85
38.87
42.27
45.62
48.48
50.55
51.73
52.05
51.66
50.75
49.57
48.38
47.38
46.70
46.22
45.61
44.43
42.22
38.74
34.05
28.56
22.83
17.41
12.61
8.39
4.39
0.14
-4.64
-9.93
-15.38
-20.48
-24.85
-28.41
-31.49
-34.75
-39.00
-44.92
-52.82
-62.30
-72.14
-80.31
-84.41
-82.38
-73.33
-58.02
-38.81
-18.91
-1.32
12.12
21.09
26.61
30.21
33.20
36.26
39.37
42.15
44.27
45.64
46.47
47.05
47.55
47.95
48.05
47.65
46.68
45.32
43.90
42.76
42.02
41.43
40.51
38.65
35.51
31.16
26.16
21.33
17.39
14.66
12.81
11.11
8.69
4.94
-0.20
-6.24
-12.42
-17.98
-22.45
-25.85
-28.65
-31.63
-35.73
-41.70
-49.88
-59.78
-70.00
-78.34
-82.43
-80.44
-71.90
-57.91
-40.84
-23.53
-8.41
3.18
11.12
16.17
19.44
21.88
24.03
26.04
27.85
29.40
30.70
31.83
32.86
33.83
34.59
34.98
34.92
34.51
34.07
33.99
34.45
35.30
36.00
35.87
34.37
31.39
27.26
22.63
18.17
14.37
11.38
9.04
6.98
4.65
1.57
-2.58
-7.79
-13.66
-19.50
-24.59
-28.51
-31.25
-33.32
-35.60
-39.03
-44.29
-51.54
-60.23
-69.05
-76.12
-79.41
-77.38
-69.50
-56.63
-40.73
-24.34
-9.75
1.69
9.70
14.89
18.29
20.86
23.17
25.41
27.50
29.31
30.77
31.86
32.65
33.18
33.51
33.62
33.51
33.21
32.76
32.22
31.68
31.11
30.42
29.39
27.77
25.37
22.15
18.26
13.98
9.70
5.78
2.48
-0.16
-2.30
-4.25
-6.36
-8.85
-11.73
-14.82
-17.85
-20.54
-22.80
-24.72
-26.61
-28.93
-32.20
-36.79
-42.80
-49.81
-56.81
-62.25
-64.46
-62.10
-54.73
-43.06
-28.83
-14.29
-1.57
8.02
14.14
17.33
18.61
19.02
19.31
19.88
20.83
22.11
23.63
25.29
27.01
28.67
30.14
31.34
32.27
32.96
33.52
34.04
34.51
34.84
34.74
33.90
32.07
29.18
25.49
21.50
17.86
15.06
13.24
12.09
11.02
9.38
6.75
3.12
-1.12
-5.39
-9.22
-12.38
-15.07
-17.74
-20.96
-25.26
-30.93
-37.90
-45.60
-52.97
-58.59
-60.96
-58.96
-52.28
-41.65
-28.68
-15.49
-3.99
4.57
9.85
12.36
12.99
12.61
11.78
10.77
9.60
8.35
7.18
6.29
5.88
5.96
6.43
7.13
7.91
8.70
9.39
9.88
10.00
9.59
8.55
6.91
4.83
2.50
0.10
-2.33
-4.86
-7.62
-10.66
-13.93
-17.20
-20.20
-22.75
-24.85
-26.78
-28.95
-31.79
-35.61
-40.54
-46.46
-52.96
-59.23
-64.11
-66.21
-64.31
-57.82
-47.17
-33.81
-19.84
-7.31
2.33
8.57
11.79
12.85
12.66
11.90
10.93
9.90
8.83
7.75
6.69
5.70
4.88
4.28
4.01
4.17
4.79
5.78
6.90
7.78
8.05
7.45
5.94
3.67
0.92
-1.99
-4.88
-7.72
-10.56
-13.53
-16.69
-19.99
-23.25
-26.28
-28.93
-31.30
-33.76
-36.86
-41.25
-47.36
-55.06
-63.53
-71.24
-76.35
-77.16
-72.71
-63.15
-49.67
-34.22
-18.94
-5.56
4.95
12.47
17.50
20.95
23.69
26.34
29.16
32.05
34.70
36.82
38.26
39.09
39.49
39.66
39.69
39.58
39.30
38.78
38.01
36.92
35.39
33.28
30.46
26.88
22.59
17.72
12.36
6.64
0.72
-5.19
-10.83
-16.00
-20.61
-24.79
-28.83
-33.06
-37.85
-43.52
-50.35
-58.39
-67.27
-76.05
-83.12
-86.58
-84.79
-77.06
-63.98
-47.34
-29.60
-13.11
0.56
10.90
18.35
23.80
28.19
32.08
35.68
38.83
41.32
43.04
44.05
44.50
44.60
44.45
44.12
43.63
43.02
42.34
41.60
40.67
39.32
37.25
34.24
30.29
25.68
20.80
16.00
11.45
7.03
2.51
-2.29
-7.34
-12.34
-16.94
-20.93
-24.46
-28.03
-32.33
-38.07
-45.65
-54.93
-65.08
-74.55
-81.28
-83.16
-78.69
-67.64
-51.26
-32.05
-13.02
3.30
15.53
23.69
28.86
32.45
35.58
38.74
41.82
44.42
46.21
47.18
47.66
48.11
48.92
50.20
51.74
53.14
53.96
53.94
53.06
51.45
49.30
46.74
43.75
40.28
36.27
31.74
26.81
21.64
16.38
11.18
6.15
1.38
-3.12
-7.38
-11.64
-16.26
-21.74
-28.60
-37.18
-47.40
-58.55
-69.15
-77.11
-80.26
-76.99
-66.94
-51.32
-32.64
-13.93
2.23
14.41
22.56
27.63
30.90
33.36
35.46
37.20
38.45
39.21
39.67
40.13
40.82
41.78
42.87
43.94
44.84
45.46
45.72
45.40
44.24
41.96
38.44
33.73
28.12
22.03
15.90
10.11
4.89
0.26
-3.91
-7.94
-12.13
-16.70
-21.65
-26.72
-31.56
-35.92
-39.92
-44.17
-49.49
-56.56
-65.31
-74.59
-82.24
-85.72
-83.00
-73.37
-57.79
-38.60
-18.75
-0.82
13.62
24.29
31.84
37.37
41.88
45.96
49.79
53.22
56.00
57.98
59.13
59.57
59.45
58.91
57.97
56.70
55.17
53.60
52.24
51.23
50.46
49.46
47.54
44.07
38.80
32.05
24.66
17.69
11.92
7.62
4.40
1.48
-1.95
-6.37
-11.72
-17.50
-23.05
-27.86
-31.84
-35.33
-39.06
-43.90
-50.55
-59.22
-69.29
-79.27
-86.91
-89.84
-86.27
-75.71
-59.27
-39.37
-19.02
-0.87
13.46
23.70
30.62
35.42
39.23
42.69
45.90
48.66
50.66
51.79
52.20
52.18
52.05
51.97
51.87
51.56
50.91
49.91
48.76
47.62
46.54
45.32
43.60
41.02
37.43
32.95
27.99
23.05
18.59
14.89
11.99
9.72
7.70
5.49
2.71
-0.86
-5.19
-10.02
-14.93
-19.46
-23.32
-26.48
-29.22
-32.10
-35.85
-41.11
-48.22
-56.86
-65.95
-73.77
-78.28
-77.79
-71.53
-60.01
-44.93
-28.66
-13.52
-1.10
8.00
14.12
18.13
20.96
23.25
25.30
27.17
28.86
30.41
31.95
33.61
35.44
37.34
39.08
40.39
41.10
41.20
40.91
40.46
40.02
39.56
38.85
37.55
35.40
32.35
28.62
24.63
20.85
17.63
15.03
12.86
10.68
8.08
4.83
1.00
-3.08
-6.97
-10.39
-13.35
-16.18
-19.46
-23.81
-29.66
-37.14
-45.88
-55.01
-63.17
-68.72
-70.14
-66.54
-58.00
-45.75
-31.81
-18.43
-7.40
0.38
4.89
6.81
7.01
6.28
5.18
4.06
3.16
2.70
2.82
3.54
4.73
6.18
7.69
9.16
10.60
12.07
13.62
15.15
16.39
16.98
16.56
14.99
12.40
9.14
5.75
2.69
0.18
-1.89
-3.81
-5.98
-8.63
-11.71
-14.99
-18.11
-20.90
-23.39
-25.92
-29.00
-33.11
-38.50
-45.04
-52.11
-58.58
-63.05
-64.13
-60.94
-53.43
-42.49
-29.77
-17.18
-6.36
1.76
7.08
10.12
11.74
12.73
13.59
14.52
15.46
16.31
16.96
17.47
17.90
18.36
18.89
19.42
19.89
20.22
20.44
20.59
20.67
20.56
19.98
18.61
16.24
12.94
9.09
5.24
1.86
-0.83
-2.98
-4.99
-7.31
-10.16
-13.47
-16.92
-20.11
-22.83
-25.08
-27.20
-29.67
-33.06
-37.77
-43.87
-50.95
-57.94
-63.31
-65.38
-62.91
-55.55
-44.16
-30.50
-16.72
-4.70
4.50
10.75
14.61
16.93
18.45
19.65
20.74
21.79
22.81
23.85
24.93
26.02
27.05
27.84
28.23
28.09
27.48
26.60
25.73
25.14
24.84
24.60
23.96
22.43
19.76
16.09
11.90
7.85
4.45
1.89
-0.05
-1.86
-4.04
-6.89
-10.40
-14.30
-18.15
-21.59
-24.45
-26.81
-29.01
-31.53
-34.93
-39.68
-45.95
-53.42
-61.12
-67.52
-70.88
-69.76
-63.59
-52.92
-39.32
-24.89
-11.60
-0.76
7.24
12.74
16.51
19.29
21.58
23.58
25.27
26.60
27.54
28.22
28.75
29.27
29.78
30.21
30.46
30.54
30.55
30.71
31.16
31.84
32.42
32.42
31.40
29.21
26.05
22.47
19.08
16.35
14.35
12.84
11.31
9.30
6.53
3.08
-0.67
-4.20
-7.13
-9.38
-11.31
-13.61
-17.02
-22.18
-29.30
-38.08
-47.68
-56.69
-63.47
-66.42
-64.47
-57.47
-46.36
-32.95
-19.38
-7.51
1.54
7.61
11.23
13.31
14.70
16.06
17.71
19.79
22.21
24.85
27.57
30.26
32.90
35.50
38.04
40.45
42.58
44.24
45.22
45.40
44.69
43.07
40.57
37.34
33.63
29.74
25.96
22.48
19.22
15.97
12.41
8.30
3.64
-1.38
-6.43
-11.25
-15.80
-20.41
-25.62
-32.05
-39.99
-49.16
-58.51
-66.31
-70.64
-69.97
-63.74
-52.72
-38.74
-24.17
-11.16
-1.05
5.81
9.90
12.00
12.82
12.69
11.62
9.57
6.75
3.70
1.22
0.07
0.63
2.74
5.70
8.59
10.61
11.34
10.78
9.28
7.26
5.04
2.74
0.27
-2.61
-6.09
-10.30
-15.15
-20.38
-25.56
-30.29
-34.35
-37.81
-41.09
-44.84
-49.74
-56.32
-64.64
-74.11
-83.45
-90.79
-94.10
-91.81
-83.32
-69.34
-51.76
-33.13
-15.90
-1.79
8.63
15.77
20.66
24.34
27.49
30.34
32.77
34.62
35.91
36.87
37.81
38.93
40.16
41.20
41.70
41.43
40.44
38.97
37.30
35.56
33.55
30.84
26.90
21.41
14.44
6.56
-1.34
-8.38
-14.06
-18.47
-22.27
-26.41
-31.81
-39.00
-48.04
-58.39
-68.91
-77.99
-83.68
-84.14
-78.21
-65.90
-48.58
-28.72
-9.12
7.93
21.22
30.77
37.44
42.37
46.42
49.95
52.88
54.95
56.04
56.29
56.10
55.87
55.85
55.98
55.94
55.32
53.83
51.51
48.66
45.70
42.92
40.23
37.19
33.16
27.66
20.65
12.61
4.42
-2.99
-9.05
-13.72
-17.53
-21.31
-25.86
-31.75
-39.24
-48.20
-58.08
-67.84
-75.84
-80.14
-78.93
-71.18
-57.20
-38.67
-18.31
1.02
17.15
29.10
37.20
42.56
46.47
49.85
53.03
55.83
57.94
59.14
59.47
59.16
58.45
57.49
56.29
54.90
53.41
52.00
50.88
50.01
49.12
47.68
45.17
41.30
36.14
30.14
23.91
18.01
12.69
7.87
3.19
-1.74
-7.13
-12.83
-18.43
-23.46
-27.68
-31.27
-34.81
-39.15
-45.07
-53.00
-62.64
-72.88
-81.82
-87.19
-86.96
-80.06
-66.81
-48.94
-29.11
-10.07
6.16
18.70
27.80
34.41
39.61
44.15
48.30
51.93
54.73
56.42
56.95
56.55
55.67
54.80
54.35
54.40
54.74
54.92
54.50
53.17
50.87
47.70
43.88
39.58
34.94
30.09
25.18
20.37
15.79
11.48
7.38
3.31
-0.83
-5.10
-9.50
-14.00
-18.75
-24.04
-30.33
-38.01
-47.10
-56.91
-66.01
-72.44
-74.31
-70.48
-61.04
-47.40
-31.85
-16.86
-4.32
4.91
10.97
14.73
17.18
19.09
20.74
22.09
22.95
23.29
23.30
23.38
23.94
25.13
26.85
28.70
30.17
30.82
30.45
29.08
26.90
24.14
21.00
17.52
13.62
9.17
4.10
-1.51
-7.39
-13.17
-18.50
-23.18
-27.22
-30.84
-34.42
-38.37
-43.11
-48.86
-55.59
-62.84
-69.61
-74.44
-75.72
-72.16
-63.35
-49.98
-33.79
-17.04
-1.84
10.46
19.51
25.86
30.43
34.10
37.30
40.07
42.19
43.47
43.92
43.78
43.35
42.81
42.12
41.09
39.50
37.32
34.75
32.15
29.85
27.93
26.09
23.78
20.44
15.78
9.96
3.54
-2.70
-8.08
-12.28
-15.46
-18.12
-21.03
-24.88
-30.15
-36.92
-44.75
-52.69
-59.33
-63.10
-62.67
-57.42
-47.72
-34.91
-20.95
-7.80
3.14
11.37
17.21
21.47
24.90
27.92
30.49
32.33
33.24
33.27
32.74
32.05
31.50
31.11
30.75
30.21
29.39
28.35
27.19
25.98
24.66
23.00
20.73
17.70
13.87
9.36
4.44
-0.64
-5.62
-10.34
-14.67
-18.54
-21.97
-25.06
-28.09
-31.44
-35.55
-40.79
-47.24
-54.52
-61.74
-67.50
-70.30
-68.85
-62.61
-51.99
-38.38
-23.71
-9.92
1.55
10.14
16.07
20.09
23.03
25.49
27.73
29.74
31.36
32.46
33.03
33.14
32.91
32.43
31.77
31.04
30.30
29.65
29.14
28.70
28.16
27.19
25.49
22.86
19.33
15.20
10.93
6.99
3.68
1.02
-1.27
-3.64
-6.51
-10.12
-14.41
-18.98
-23.32
-26.98
-29.77
-31.92
-34.08
-37.04
-41.48
-47.54
-54.68
-61.60
-66.62
-68.05
-64.78
-56.66
-44.57
-30.17
-15.47
-2.25
8.36
16.01
21.06
24.22
26.26
27.79
29.18
30.53
31.81
32.90
33.74
34.30
34.66
34.90
35.09
35.25
35.30
35.21
34.97
34.66
34.32
33.85
33.07
31.71
29.66
27.10
24.47
22.25
20.72
19.78
18.91
17.49
15.02
11.47
7.22
2.92
-0.83
-3.79
-6.20
-8.70
-12.14
-17.19
-24.10
-32.52
-41.47
-49.47
-54.88
-56.34
-53.16
-45.61
-34.92
-22.95
-11.68
-2.66
3.39
6.65
7.95
8.36
8.78
9.65
11.00
12.55
14.01
15.22
16.26
17.31
18.56
20.04
21.62
23.01
23.94
24.22
23.83
22.78
21.18
19.04
16.39
13.25
9.67
5.76
1.66
-2.47
-6.48
-10.25
-13.67
-16.70
-19.38
-21.84
-24.31
-27.11
-30.61
-35.14
-40.84
-47.52
-54.45
-60.40
-63.84
-63.47
-58.65
-49.79
-38.26
-25.98
-14.84
-6.08
-0.12
3.35
5.03
5.64
5.68
5.42
5.03
4.69
4.60
4.98
5.98
7.60
9.62
11.75
13.61
14.89
15.43
15.18
14.32
13.03
11.52
9.84
7.88
5.43
2.29
-1.58
-5.94
-10.35
-14.33
-17.55
-20.00
-21.98
-24.02
-26.67
-30.43
-35.64
-42.47
-50.81
-60.10
-69.25
-76.66
-80.62
-79.81
-73.88
-63.61
-50.72
-37.24
-24.87
-14.56
-6.42
-0.10
4.96
9.11
12.50
15.11
16.83
17.58
17.34
16.21
14.43
12.41
10.63
9.53
9.30
9.84
10.82
11.74
12.25
12.15
11.54
10.64
9.68
8.80
8.00
7.29
6.73
6.58
7.14
8.73
11.53
15.52
20.54
26.19
31.80
36.36
38.55
37.04
31.12
21.26
9.47
-1.07
-6.95
-5.76
2.95
17.57
35.09
52.16
66.17
75.87
81.29
83.24
82.69
80.31
76.35
70.75
63.45
54.69
45.16
35.91
28.00
22.04
17.82
14.29
9.93
3.43
-5.81
-17.53
-30.81
-44.54
-57.80
-69.96
-80.62
-89.61
-96.97
-103.13
-108.90
-115.19
-122.60
-130.98
-139.58
-147.45
-154.16
-160.15
-166.62
-174.71
-184.70
-195.43
-204.47
-208.91
-206.28
-195.39
-176.64
-151.80
-123.44
-94.31
-66.77
-42.52
-22.47
-6.84
4.70
12.95
19.04
24.25
29.77
36.33
44.02
52.20
59.83
65.90
69.82
71.62
71.78
70.90
69.46
67.59
65.22
62.16
58.32
53.69
48.33
42.40
36.10
29.77
23.76
18.42
13.91
10.13
6.74
3.28
-0.71
-5.59
-11.63
-18.98
-27.64
-37.26
-46.99
-55.40
-60.71
-61.27
-56.09
-45.28
-30.07
-12.48
5.30
21.50
35.17
46.06
54.36
60.30
63.97
65.43
64.96
63.24
61.31
60.28
60.86
63.12
66.49
70.05
72.97
74.84
75.69
75.77
75.20
73.81
71.13
66.66
60.28
52.34
43.71
35.47
28.51
23.23
19.39
16.27
12.96
8.66
2.89
-4.24
-12.07
-19.35
-24.51
-25.95
-22.57
-14.12
-1.43
13.75
29.26
43.06
53.82
61.09
65.22
66.98
67.18
66.34
64.73
62.44
59.68
56.78
54.19
52.28
51.14
50.52
49.93
48.90
47.19
44.84
42.08
39.14
36.00
32.43
28.07
22.72
16.49
9.89
3.68
-1.43
-5.01
-7.10
-8.27
-9.44
-11.65
-15.72
-21.96
-29.94
-38.46
-45.73
-49.86
-49.33
-43.57
-33.19
-19.83
-5.66
7.26
17.57
24.82
29.36
32.01
33.55
34.52
35.14
35.50
35.66
35.72
35.83
35.96
35.97
35.58
34.52
32.64
29.98
26.74
23.19
19.64
16.31
13.27
10.42
7.51
4.23
0.37
-3.99
-8.50
-12.56
-15.61
-17.41
-18.15
-18.49
-19.30
-21.41
-25.24
-30.70
-37.14
-43.40
-48.05
-49.65
-47.18
-40.33
-29.74
-16.83
-3.50
8.46
17.83
24.20
27.95
29.80
30.54
30.72
30.59
30.26
29.77
29.22
28.73
28.39
28.20
28.12
28.10
28.13
28.17
28.17
27.98
27.38
26.17
24.24
21.66
18.60
15.31
12.02
8.89
5.98
3.28
0.77
-1.61
-3.91
-6.14
-8.24
-10.16
-11.88
-13.46
-15.13
-17.26
-20.25
-24.29
-29.14
-34.07
-37.86
-39.18
-36.99
-30.99
-21.73
-10.57
0.80
10.88
18.68
23.97
27.07
28.58
29.11
29.06
28.62
27.89
26.87
25.59
24.10
22.46
20.74
19.02
17.43
16.09
15.07
14.36
13.83
13.26
12.38
10.96
8.91
6.29
3.35
0.42
-2.19
-4.32
-6.04
-7.60
-9.26
-11.19
-13.37
-15.62
-17.73
-19.58
-21.20
-22.82
-24.76
-27.40
-30.96
-35.36
-40.08
-44.13
-46.29
-45.41
-40.92
-33.10
-23.06
-12.43
-2.84
4.59
9.49
12.19
13.36
13.70
13.65
13.34
12.79
11.97
10.98
9.99
9.22
8.75
8.54
8.47
8.41
8.28
8.08
7.81
7.38
6.67
5.53
3.89
1.82
-0.47
-2.70
-4.70
-6.46
-8.10
-9.79
-11.65
-13.61
-15.53
-17.26
-18.78
-20.29
-22.07
-24.45
-27.60
-31.44
-35.61
-39.46
-42.16
-42.83
-40.79
-35.82
-28.31
-19.24
-9.91
-1.57
4.90
9.19
11.51
12.42
12.58
12.50
12.51
12.72
13.03
13.25
13.15
12.55
11.38
9.73
7.83
6.00
4.54
3.61
3.21
3.15
3.14
2.86
2.13
0.92
-0.62
-2.26
-3.81
-5.20
-6.53
-7.97
-9.69
-11.68
-13.79
-15.75
-17.28
-18.26
-18.79
-19.10
-19.56
-20.52
-22.24
-24.76
-27.81
-30.79
-32.83
-33.01
-30.63
-25.50
-18.11
-9.51
-1.02
6.18
11.32
14.22
15.15
14.70
13.42
11.78
10.04
8.32
6.70
5.25
4.10
3.37
3.13
3.31
3.73
4.17
4.42
4.44
4.33
4.29
4.47
4.80
5.02
4.77
3.84
2.27
0.42
-1.19
-2.20
-2.52
-2.48
-2.59
-3.27
-4.63
-6.41
-8.11
-9.26
-9.69
-9.60
-9.42
-9.68
-10.76
-12.81
-15.66
-18.89
-21.83
-23.65
-23.52
-20.86
-15.56
-8.14
0.31
8.48
15.20
19.79
22.20
22.90
22.51
21.59
20.48
19.27
17.96
16.59
15.22
14.00
12.99
12.19
11.48
10.74
9.90
8.99
8.15
7.49
7.02
6.64
6.11
5.17
3.70
1.71
-0.60
-2.98
-5.19
-7.16
-8.97
-10.77
-12.69
-14.75
-16.83
-18.75
-20.42
-21.87
-23.28
-24.94
-27.15
-30.08
-33.68
-37.52
-40.82
-42.61
-41.94
-38.26
-31.68
-22.98
-13.38
-4.19
3.58
9.46
13.46
15.90
17.19
17.64
17.44
16.70
15.56
14.23
13.01
12.20
11.97
12.32
13.03
13.77
14.21
14.14
13.53
12.49
11.20
9.82
8.41
6.91
5.18
3.09
0.57
-2.30
-5.34
-8.28
-10.90
-13.10
-14.88
-16.40
-17.85
-19.52
-21.69
-24.64
-28.44
-32.89
-37.31
-40.69
-41.86
-39.94
-34.69
-26.65
-17.00
-7.22
1.42
8.15
12.84
15.82
17.64
18.80
19.61
20.17
20.46
20.40
19.98
19.25
18.35
17.44
16.68
16.16
15.87
15.71
15.52
15.14
14.44
13.29
11.65
9.48
6.88
3.96
0.92
-2.08
-4.94
-7.65
-10.20
-12.56
-14.73
-16.64
-18.33
-19.98
-21.88
-24.37
-27.72
-31.94
-36.69
-41.22
-44.53
-45.57
-43.53
-38.12
-29.73
-19.41
-8.57
1.38
9.39
15.02
18.42
20.16
20.90
21.15
21.15
20.90
20.30
19.33
18.10
16.84
15.79
15.17
15.03
15.28
15.69
15.96
15.86
15.22
14.03
12.36
10.34
8.11
5.77
3.41
1.16
-0.89
-2.71
-4.35
-5.99
-7.77
-9.78
-11.94
-14.02
-15.86
-17.48
-19.16
-21.37
-24.50
-28.60
-33.16
-37.16
-39.34
-38.58
-34.39
-27.05
-17.57
-7.33
2.33
10.41
16.47
20.46
22.66
23.45
23.26
22.50
21.57
20.80
20.37
20.28
20.37
20.49
20.56
20.65
20.95
21.58
22.52
23.50
24.16
24.17
23.38
21.85
19.86
17.71
15.56
13.50
11.49
9.52
7.62
5.89
4.38
3.04
1.74
0.34
-1.23
-2.92
-4.62
-6.34
-8.24
-10.64
-13.85
-17.85
-22.11
-25.56
-26.93
-25.17
-19.89
-11.60
-1.59
8.47
17.07
23.31
27.01
28.61
28.80
28.23
27.25
25.96
24.38
22.55
20.61
18.82
17.37
16.33
15.61
15.00
14.30
13.42
12.36
11.19
9.99
8.78
7.52
6.16
4.64
2.99
1.26
-0.52
-2.32
-4.10
-5.87
-7.56
-9.09
-10.38
-11.44
-12.41
-13.52
-15.05
-17.27
-20.30
-24.05
-28.21
-32.17
-35.10
-36.15
-34.62
-30.25
-23.37
-14.91
-6.11
1.78
7.88
11.91
14.14
15.15
15.57
15.81
15.98
16.03
15.83
15.36
14.71
14.05
13.55
13.31
13.29
13.35
13.33
13.08
12.51
11.64
10.49
9.11
7.51
5.67
3.63
1.43
-0.87
-3.18
-5.46
-7.70
-9.88
-11.96
-13.87
-15.57
-17.04
-18.45
-20.04
-22.15
-25.01
-28.70
-32.97
-37.20
-40.49
-41.81
-40.33
-35.75
-28.44
-19.46
-10.15
-1.81
4.71
9.15
11.78
13.18
13.96
14.58
15.19
15.76
16.10
16.03
15.49
14.52
13.26
11.88
10.51
9.24
8.15
7.31
6.81
6.67
6.81
7.02
6.97
6.39
5.13
3.27
1.14
-0.86
-2.36
-3.19
-3.47
-3.56
-3.94
-4.99
-6.82
-9.26
-11.89
-14.29
-16.24
-17.77
-19.19
-20.95
-23.46
-26.88
-30.97
-35.07
-38.19
-39.29
-37.59
-32.86
-25.56
-16.74
-7.72
0.22
6.19
9.85
11.42
11.50
10.84
10.17
10.03
10.63
11.89
13.55
15.28
16.85
18.16
19.21
20.06
20.64
20.86
20.62
19.93
18.95
17.88
16.93
16.10
15.26
14.15
12.55
10.43
8.01
5.67
3.80
2.69
2.38
2.71
3.35
3.98
4.35
4.39
4.14
3.73
3.23
2.62
1.76
0.46
-1.53
-4.35
-8.04
-12.37
-16.88
-20.80
-23.27
-23.50
-21.04
-15.97
-8.97
-1.10
6.46
12.77
17.33
20.12
21.42
21.63
21.10
20.08
18.73
17.26
15.87
14.77
14.03
13.61
13.33
13.00
12.51
11.90
11.36
11.00
10.85
10.75
10.47
9.82
8.73
7.28
5.59
3.83
2.06
0.32
-1.41
-3.15
-4.94
-6.83
-8.84
-10.96
-13.08
-15.01
-16.55
-17.62
-18.30
-18.91
-19.89
-21.70
-24.60
-28.47
-32.78
-36.55
-38.67
-38.16
-34.56
-28.15
-19.83
-10.96
-2.82
3.71
8.35
11.34
13.14
14.21
14.79
14.98
14.77
14.24
13.58
13.02
12.73
12.73
12.92
13.19
13.49
13.85
14.32
14.86
15.24
15.15
14.29
12.58
10.19
7.51
4.90
2.58
0.53
-1.44
-3.51
-5.79
-8.24
-10.76
-13.20
-15.47
-17.57
-19.52
-21.48
-23.66
-26.34
-29.69
-33.60
-37.60
-40.81
-42.14
-40.69
-36.05
-28.50
-19.02
-8.97
0.26
7.68
12.93
16.18
17.98
18.91
19.40
19.65
19.73
19.63
19.37
18.96
18.39
17.59
16.57
15.38
14.22
13.34
12.91
12.87
12.92
12.63
11.62
9.77
7.27
4.47
1.76
-0.68
-2.85
-4.96
-7.19
-9.59
-12.06
-14.43
-16.53
-18.31
-19.86
-21.32
-22.87
-24.64
-26.81
-29.55
-32.99
-37.02
-41.17
-44.56
-46.04
-44.56
-39.58
-31.37
-21.03
-10.14
-0.30
7.42
12.71
15.90
17.72
18.85
19.68
20.28
20.49
20.16
19.26
17.97
16.54
15.24
14.25
13.61
13.30
13.27
13.43
13.74
14.06
14.23
13.98
13.06
11.32
8.85
5.95
3.09
0.73
-0.93
-2.04
-3.00
-4.28
-6.15
-8.56
-11.18
-13.56
-15.43
-16.76
-17.82
-19.02
-20.79
-23.45
-27.10
-31.49
-35.96
-39.46
-40.74
-38.75
-33.06
-24.12
-13.23
-2.11
7.60
14.84
19.37
21.61
22.30
22.16
21.65
20.97
20.20
19.44
18.83
18.48
18.43
18.56
18.68
18.66
18.52
18.43
18.62
19.21
20.09
20.93
21.30
20.83
19.36
17.01
14.20
11.43
9.11
7.41
6.17
5.00
3.43
1.21
-1.62
-4.69
-7.52
-9.71
-11.16
-12.12
-13.07
-14.56
-17.02
-20.56
-24.95
-29.52
-33.25
-34.95
-33.60
-28.64
-20.29
-9.56
1.95
12.57
20.97
26.55
29.44
30.28
29.84
28.69
27.13
25.24
23.12
20.98
19.14
17.84
17.12
16.77
16.50
16.12
15.63
15.24
15.09
15.16
15.20
14.85
13.89
12.33
10.42
8.46
6.62
4.85
2.97
0.77
-1.82
-4.69
-7.64
-10.44
-12.96
-15.21
-17.28
-19.39
-21.77
-24.73
-28.50
-33.14
-38.29
-43.09
-46.27
-46.53
-42.93
-35.35
-24.68
-12.56
-0.93
8.62
15.29
19.17
20.99
21.72
22.07
22.33
22.45
22.21
21.54
20.61
19.82
19.49
19.76
20.44
21.12
21.42
21.08
20.12
18.73
17.12
15.40
13.55
11.48
9.09
6.41
3.51
0.53
-2.44
-5.35
-8.21
-11.00
-13.67
-16.12
-18.27
-20.14
-21.94
-24.06
-26.92
-30.82
-35.63
-40.72
-44.97
-47.00
-45.65
-40.38
-31.60
-20.56
-9.05
1.20
9.00
14.05
16.82
18.22
19.16
20.26
21.66
23.22
24.65
25.68
26.16
26.08
25.51
24.63
23.61
22.63
21.77
21.02
20.28
19.37
18.15
16.52
14.39
11.74
8.57
4.94
1.00
-3.05
-6.95
-10.54
-13.73
-16.52
-18.96
-21.10
-22.98
-24.64
-26.21
-27.90
-30.03
-32.90
-36.63
-40.99
-45.23
-48.22
-48.69
-45.69
-38.98
-29.20
-17.72
-6.19
3.96
11.91
17.49
21.03
23.06
24.04
24.32
24.06
23.39
22.39
21.20
19.93
18.73
17.76
17.14
16.93
17.08
17.47
17.95
18.38
18.64
18.62
18.15
17.09
15.42
13.25
10.88
8.65
6.77
5.22
3.75
2.03
-0.19
-2.89
-5.82
-8.63
-11.01
-12.87
-14.35
-15.77
-17.50
-19.92
-23.27
-27.53
-32.36
-36.98
-40.26
-40.99
-38.26
-31.84
-22.37
-11.19
0.03
9.81
17.24
22.04
24.56
25.42
25.30
24.74
24.06
23.39
22.72
22.01
21.23
20.48
19.93
19.73
19.98
20.61
21.46
22.30
22.95
23.25
23.11
22.46
21.21
19.34
16.93
14.17
11.38
8.86
6.77
5.08
3.59
2.06
0.34
-1.53
-3.40
-5.07
-6.46
-7.64
-8.86
-10.49
-12.91
-16.44
-21.08
-26.43
-31.58
-35.29
-36.30
-33.79
-27.67
-18.78
-8.58
1.28
9.44
15.25
18.75
20.51
21.23
21.44
21.38
21.03
20.34
19.38
18.33
17.46
16.92
16.67
16.53
16.29
15.85
15.22
14.48
13.63
12.56
11.14
9.29
7.11
4.80
2.56
0.47
-1.57
-3.75
-6.18
-8.84
-11.55
-14.05
-16.14
-17.84
-19.30
-20.76
-22.42
-24.49
-27.12
-30.38
-34.23
-38.30
-41.83
-43.71
-42.87
-38.60
-31.01
-21.11
-10.48
-0.81
6.69
11.60
14.22
15.28
15.52
15.41
15.14
14.68
14.02
13.20
12.36
11.62
11.03
10.57
10.20
9.94
9.85
9.97
10.28
10.59
10.65
10.21
9.15
7.51
5.47
3.32
1.34
-0.22
-1.30
-2.01
-2.66
-3.63
-5.17
-7.29
-9.73
-12.08
-13.98
-15.36
-16.42
-17.65
-19.55
-22.53
-26.65
-31.57
-36.51
-40.35
-41.88
-40.13
-34.74
-26.15
-15.61
-4.79
4.67
11.69
15.98
17.98
18.56
18.55
18.51
18.53
18.44
18.01
17.21
16.22
15.40
15.04
15.23
15.84
16.57
17.20
17.57
17.73
17.74
17.66
17.44
16.90
15.89
14.30
12.22
9.85
7.53
5.59
4.23
3.39
2.80
2.05
0.80
-1.06
-3.38
-5.78
-7.90
-9.50
-10.60
-11.42
-12.22
-13.33
-15.00
-17.46
-20.77
-24.78
-28.93
-32.25
-33.55
-31.81
-26.60
-18.36
-8.29
1.96
10.88
17.48
21.53
23.39
23.73
23.24
22.37
21.37
20.31
19.21
18.13
17.19
16.50
16.14
16.13
16.33
16.58
16.69
16.62
16.42
16.22
16.12
16.03
15.75
14.94
13.39
11.07
8.22
5.23
2.56
0.52
-0.86
-1.76
-2.57
-3.70
-5.37
-7.59
-10.07
-12.45
-14.45
-16.02
-17.34
-18.80
-20.80
-23.67
-27.52
-32.16
-37.04
-41.25
-43.70
-43.39
-39.76
-32.95
-23.81
-13.66
-3.93
4.28
10.41
14.42
16.70
17.75
18.07
18.01
17.80
17.56
17.39
17.35
17.46
17.70
18.02
18.37
18.72
19.07
19.41
19.68
19.70
19.25
18.11
16.18
13.53
10.36
6.93
3.51
0.33
-2.48
-4.92
-7.10
-9.23
-11.49
-13.96
-16.53
-18.98
-21.04
-22.72
-24.27
-26.21
-29.07
-33.12
-38.13
-43.33
-47.56
-49.53
-48.28
-43.39
-35.22
-24.82
-13.66
-3.24
5.36
11.61
15.62
17.91
19.15
19.85
20.35
20.73
20.98
21.09
21.04
20.83
20.43
19.78
18.78
17.41
15.75
14.06
12.69
11.96
11.94
12.39
12.82
12.68
11.59
9.56
6.87
3.97
1.22
-1.28
-3.63
-6.14
-9.02
-12.33
-15.92
-19.45
-22.57
-25.08
-27.04
-28.82
-30.96
-34.01
-38.26
-43.47
-48.86
-53.24
-55.30
-53.97
-48.77
-39.95
-28.51
-15.91
-3.79
6.50
14.12
18.92
21.35
22.18
22.25
22.18
22.24
22.37
22.36
21.99
21.22
20.22
19.22
18.45
18.03
17.95
18.11
18.42
18.81
19.18
19.39
19.24
18.45
16.80
14.29
11.13
7.74
4.60
2.06
0.17
-1.33
-2.89
-4.95
-7.69
-10.92
-14.16
-16.92
-18.93
-20.33
-21.68
-23.69
-26.99
-31.79
-37.72
-43.83
-48.67
-50.75
-48.91
-42.70
-32.64
-20.05
-6.71
5.63
15.68
22.81
27.06
28.96
29.23
28.62
27.69
26.74
25.87
25.06
24.27
23.54
23.00
22.73
22.74
22.90
23.04
23.07
23.04
23.05
23.15
23.21
22.95
22.01
20.21
17.68
14.82
12.13
9.94
8.26
6.80
5.14
2.96
0.24
-2.77
-5.68
-8.21
-10.31
-12.21
-14.35
-17.23
-21.22
-26.45
-32.65
-39.13
-44.74
-48.14
-48.09
-43.87
-35.59
-24.26
-11.57
0.55
10.56
17.62
21.77
23.65
24.17
24.09
23.81
23.38
22.69
21.69
20.51
19.47
18.86
18.84
19.32
19.99
20.45
20.40
19.70
18.38
16.59
14.44
11.95
9.09
5.86
2.39
-1.10
-4.30
-7.04
-9.25
-11.07
-12.66
-14.13
-15.51
-16.78
-18.02
-19.42
-21.37
-24.26
-28.30
-33.31
-38.58
-42.95
-45.07
-43.80
-38.58
-29.73
-18.37
-6.15
5.27
14.68
21.50
25.79
28.03
28.81
28.60
27.76
26.51
25.07
23.75
22.86
22.66
23.22
24.37
25.74
26.82
27.19
26.57
24.98
22.68
20.05
17.45
15.05
12.80
10.45
7.70
4.39
0.64
-3.18
-6.59
-9.18
-10.86
-11.89
-12.83
-14.34
-16.97
-20.92
-26.03
-31.67
-36.86
-40.46
-41.35
-38.78
-32.65
-23.55
-12.76
-1.86
7.70
14.94
19.62
22.09
23.03
23.11
22.76
22.12
21.14
19.86
18.43
17.10
16.11
15.57
15.46
15.62
15.92
16.25
16.55
16.72
16.61
15.99
14.65
12.53
9.76
6.67
3.69
1.20
-0.67
-2.07
-3.48
-5.50
-8.67
-13.18
-18.74
-24.49
-29.27
-31.83
-31.23
-27.17
-20.09
-11.05
-1.48
7.29
14.33
19.27
22.24
23.64
23.92
23.38
22.25
20.69
18.90
17.13
15.62
14.52
13.85
13.54
13.42
13.34
13.13
12.66
11.78
10.34
8.20
5.34
1.85
-2.03
-5.94
-9.51
-12.46
-14.78
-16.69
-18.68
-21.29
-24.90
-29.45
-34.39
-38.67
-41.04
-40.44
-36.36
-29.05
-19.49
-9.15
0.45
8.17
13.47
16.48
17.80
18.21
18.38
18.74
19.38
20.16
20.83
21.17
21.06
20.45
19.40
18.01
16.45
14.93
13.68
12.85
12.44
12.19
11.69
10.48
8.25
5.01
1.08
-2.98
-6.63
-9.54
-11.70
-13.50
-15.48
-18.20
-22.04
-26.90
-32.16
-36.73
-39.30
-38.76
-34.64
-27.30
-17.88
-7.88
1.29
8.74
14.30
18.31
21.34
23.90
26.21
28.27
29.98
31.28
32.12
32.50
32.35
31.58
30.17
28.22
26.02
23.95
22.37
21.42
21.01
20.84
20.55
19.86
18.64
16.92
14.85
12.66
10.50
8.53
6.73
5.06
3.37
1.57
-0.40
-2.50
-4.63
-6.72
-8.73
-10.72
-12.77
-14.95
-17.27
-19.64
-21.92
-23.97
-25.76
-27.37
-29.00
-30.94
-33.50
-36.86
-40.89
-45.03
-48.32
-49.53
-47.61
-42.10
-33.38
-22.69
-11.65
-1.82
5.85
11.19
14.67
17.06
19.13
21.34
23.81
26.34
28.59
30.23
31.04
31.01
30.25
28.95
27.31
25.54
23.81
22.32
21.24
20.63
20.35
20.09
19.43
18.00
15.69
12.68
9.39
6.37
4.01
2.43
1.45
0.66
-0.42
-2.09
-4.40
-7.11
-9.80
-12.05
-13.62
-14.51
-14.94
-15.23
-15.72
-16.58
-17.83
-19.32
-20.86
-22.30
-23.70
-25.27
-27.36
-30.26
-34.03
-38.39
-42.71
-46.08
-47.60
-46.60
-42.93
-37.01
-29.73
-22.23
-15.49
-10.11
-6.12
-3.13
-0.54
2.17
5.15
8.24
11.00
13.02
14.08
14.28
13.96
13.57
13.48
13.83
14.58
15.49
16.32
16.86
17.06
16.98
16.73
16.41
16.01
15.42
14.49
13.13
11.40
9.52
7.77
6.34
5.25
4.33
3.39
2.31
1.15
0.06
-0.87
-1.65
-2.45
-3.48
-4.83
-6.37
-7.83
-8.89
-9.43
-9.53
-9.54
-9.90
-11.03
-13.21
-16.41
-20.25
-24.02
-26.73
-27.39
-25.37
-20.58
-13.67
-5.76
1.89
8.29
12.96
15.99
17.79
18.79
19.27
19.31
18.88
17.92
16.54
14.93
13.40
12.19
11.47
11.28
11.52
12.02
12.58
13.00
13.13
12.92
12.35
11.45
10.27
8.85
7.24
5.59
4.04
2.78
1.87
1.25
0.67
-0.15
-1.45
-3.21
-5.22
-7.13
-8.66
-9.70
-10.39
-11.06
-12.07
-13.71
-16.10
-19.19
-22.65
-25.96
-28.45
-29.41
-28.33
-25.08
-19.98
-13.75
-7.33
-1.59
2.91
6.05
8.08
9.43
10.53
11.56
12.46
13.02
13.04
12.52
11.67
10.86
10.41
10.50
11.07
11.88
12.61
13.01
12.89
12.20
11.00
9.42
7.65
5.86
4.17
2.58
1.01
-0.66
-2.49
-4.47
-6.47
-8.34
-10.03
-11.55
-13.04
-14.70
-16.73
-19.29
-22.45
-26.05
-29.67
-32.63
-34.07
-33.28
-29.95
-24.33
-17.22
-9.74
-2.99
2.29
5.85
7.89
8.92
9.44
9.82
10.21
10.55
10.63
10.29
9.48
8.30
6.98
5.79
4.95
4.51
4.42
4.46
4.45
4.19
3.57
2.59
1.33
-0.07
-1.44
-2.71
-3.88
-5.06
-6.36
-7.88
-9.59
-11.41
-13.20
-14.88
-16.46
-18.05
-19.79
-21.90
-24.52
-27.72
-31.40
-35.13
-38.20
-39.72
-38.90
-35.35
-29.27
-21.47
-13.09
-5.32
0.98
5.46
8.25
9.83
10.79
11.62
12.58
13.68
14.77
15.62
16.06
16.03
15.59
14.87
14.06
13.35
12.89
12.77
12.94
13.28
13.54
13.49
12.94
11.85
10.29
8.46
6.57
4.78
3.13
1.53
-0.17
-2.10
-4.32
-6.76
-9.25
-11.59
-13.62
-15.24
-16.53
-17.73
-19.27
-21.69
-25.35
-30.27
-35.86
-41.02
-44.34
-44.64
-41.30
-34.54
-25.37
-15.18
-5.42
2.78
8.83
12.65
14.62
15.40
15.69
16.00
16.54
17.20
17.74
17.91
17.68
17.17
16.60
16.11
15.72
15.36
15.01
14.71
14.53
14.46
14.32
13.77
12.52
10.46
7.81
4.97
2.41
0.43
-0.98
-2.08
-3.27
-4.90
-7.11
-9.79
-12.64
-15.30
-17.46
-19.05
-20.25
-21.42
-23.07
-25.59
-29.22
-33.85
-38.91
-43.46
-46.27
-46.19
-42.43
-34.95
-24.53
-12.57
-0.74
9.50
17.27
22.43
25.35
26.72
27.23
27.31
27.18
26.86
26.38
25.77
25.17
24.75
24.62
24.80
25.16
25.52
25.69
25.54
24.97
23.96
22.49
20.59
18.30
15.63
12.62
9.32
5.79
2.17
-1.42
-4.85
-7.99
-10.81
-13.34
-15.69
-18.06
-20.71
-23.94
-28.02
-33.02
-38.68
-44.28
-48.71
-50.67
-49.10
-43.52
-34.27
-22.49
-9.80
2.14
12.07
19.35
24.04
26.68
28.05
28.81
29.35
29.75
29.92
29.75
29.26
28.66
28.25
28.24
28.65
29.27
29.76
29.86
29.39
28.40
26.98
25.22
23.14
20.72
17.97
14.94
11.74
8.46
5.16
1.81
-1.59
-5.04
-8.46
-11.71
-14.67
-17.33
-19.85
-22.61
-26.05
-30.52
-36.00
-41.92
-47.17
-50.34
-50.11
-45.77
-37.48
-26.22
-13.52
-1.02
9.96
18.59
24.60
28.19
29.88
30.34
30.21
29.99
29.90
29.94
29.93
29.71
29.19
28.49
27.78
27.21
26.84
26.53
26.11
25.38
24.23
22.65
20.70
18.47
16.01
13.35
10.47
7.40
4.18
0.92
-2.31
-5.46
-8.51
-11.40
-14.06
-16.41
-18.40
-20.18
-22.08
-24.59
-28.11
-32.69
-37.82
-42.45
-45.20
-44.79
-40.51
-32.49
-21.75
-9.86
1.47
10.90
17.77
22.09
24.41
25.47
25.89
26.10
26.26
26.33
26.26
26.01
25.62
25.19
24.80
24.48
24.20
23.83
23.23
22.28
20.96
19.25
17.22
14.90
12.32
9.53
6.65
3.79
1.10
-1.34
-3.60
-5.76
-7.93
-10.13
-12.24
-14.11
-15.65
-16.94
-18.24
-19.92
-22.32
-25.64
-29.77
-34.26
-38.32
-40.89
-40.95
-37.77
-31.23
-21.99
-11.34
-0.87
7.95
14.24
17.85
19.34
19.57
19.37
19.24
19.32
19.48
19.59
19.57
19.51
19.55
19.77
20.14
20.55
20.84
20.99
20.99
20.83
20.44
19.64
18.25
16.18
13.53
10.55
7.56
4.83
2.45
0.34
-1.67
-3.81
-6.18
-8.78
-11.43
-13.90
-15.99
-17.67
-19.18
-20.95
-23.47
-27.00
-31.34
-35.76
-39.15
-40.32
-38.46
-33.35
-25.54
-16.13
-6.48
2.21
9.13
13.98
16.91
18.38
18.85
18.74
18.31
17.68
16.95
16.21
15.59
15.20
15.08
15.17
15.35
15.48
15.45
15.28
14.99
14.58
14.01
13.19
11.99
10.36
8.35
6.09
3.81
1.63
-0.35
-2.18
-3.98
-5.86
-7.85
-9.89
-11.80
-13.44
-14.70
-15.67
-16.57
-17.80
-19.71
-22.52
-26.16
-30.22
-33.97
-36.43
-36.69
-34.11
-28.60
-20.75
-11.67
-2.69
5.03
10.83
14.64
16.81
17.90
18.33
18.36
18.06
17.49
16.78
16.12
15.71
15.63
15.77
15.91
15.84
15.43
14.80
14.15
13.71
13.61
13.75
13.87
13.64
12.80
11.26
9.13
6.68
4.22
2.01
0.21
-1.19
-2.37
-3.56
-4.98
-6.70
-8.61
-10.50
-12.16
-13.51
-14.64
-15.80
-17.31
-19.48
-22.47
-26.20
-30.20
-33.63
-35.42
-34.64
-30.80
-24.13
-15.55
-6.38
2.10
9.00
13.95
17.05
18.62
19.05
18.70
17.88
16.88
15.93
15.20
14.75
14.51
14.39
14.30
14.20
14.11
14.09
14.14
14.22
14.22
14.01
13.44
12.42
10.89
8.88
6.53
4.07
1.76
-0.22
-1.84
-3.27
-4.74
-6.49
-8.64
-11.12
-13.70
-16.06
-17.98
-19.42
-20.59
-21.89
-23.76
-26.51
-30.04
-33.84
-36.97
-38.40
-37.22
-33.05
-26.16
-17.36
-7.86
1.14
8.70
14.32
17.91
19.76
20.30
20.01
19.28
18.39
17.54
16.85
16.38
16.15
16.15
16.32
16.57
16.84
17.09
17.31
17.43
17.33
16.88
15.91
14.33
12.20
9.65
6.89
4.13
1.50
-0.98
-3.33
-5.65
-8.07
-10.63
-13.31
-15.94
-18.33
-20.29
-21.80
-23.02
-24.32
-26.15
-28.81
-32.38
-36.51
-40.43
-43.11
-43.50
-40.86
-35.08
-26.72
-16.95
-7.17
1.38
7.97
12.41
15.01
16.37
17.03
17.39
17.59
17.67
17.63
17.50
17.37
17.30
17.29
17.26
17.10
16.77
16.31
15.87
15.51
15.18
14.65
13.66
12.00
9.72
7.06
4.43
2.10
0.13
-1.68
-3.62
-5.93
-8.61
-11.41
-13.97
-16.00
-17.45
-18.56
-19.73
-21.38
-23.87
-27.32
-31.64
-36.47
-41.12
-44.60
-45.85
-44.00
-38.75
-30.54
-20.49
-10.06
-0.61
6.96
12.38
15.88
17.95
19.12
19.75
20.04
20.07
19.85
19.42
18.85
18.26
17.79
17.53
17.52
17.70
17.98
18.23
18.29
18.05
17.39
16.22
14.54
12.42
10.04
7.61
5.27
3.07
0.90
-1.41
-3.98
-6.78
-9.60
-12.17
-14.31
-16.04
-17.63
-19.53
-22.21
-25.98
-30.83
-36.37
-41.76
-45.86
-47.42
-45.49
-39.70
-30.50
-19.17
-7.41
3.06
11.08
16.24
18.90
19.87
20.05
20.13
20.38
20.79
21.14
21.29
21.16
20.87
20.56
20.39
20.38
20.48
20.55
20.46
20.06
19.22
17.81
15.79
13.20
10.19
7.04
4.03
1.34
-1.05
-3.30
-5.67
-8.29
-11.13
-13.98
-16.59
-18.79
-20.62
-22.34
-24.36
-27.08
-30.75
-35.38
-40.59
-45.61
-49.31
-50.44
-47.97
-41.51
-31.49
-19.21
-6.41
5.17
14.28
20.49
24.08
25.78
26.41
26.56
26.47
26.14
25.49
24.52
23.41
22.37
21.62
21.24
21.17
21.25
21.36
21.43
21.40
21.23
20.78
19.85
18.32
16.16
13.51
10.62
7.78
5.14
2.71
0.36
-2.10
-4.79
-7.70
-10.70
-13.60
-16.27
-18.73
-21.17
-23.95
-27.45
-31.95
-37.37
-43.12
-48.07
-50.78
-49.92
-44.76
-35.54
-23.49
-10.47
1.55
11.16
17.77
21.60
23.44
24.18
24.54
24.94
25.50
26.18
26.89
27.60
28.29
28.94
29.52
29.98
30.28
30.42
30.44
30.37
30.13
29.55
28.38
26.51
23.96
20.97
17.88
14.96
12.38
10.08
7.89
5.62
3.13
0.41
-2.40
-5.04
-7.27
-8.99
-10.35
-11.73
-13.72
-16.90
-21.55
-27.35
-33.38
-38.20
-40.29
-38.51
-32.52
-22.96
-11.26
0.75
11.40
19.61
25.08
28.16
29.56
30.00
29.98
29.66
29.00
27.96
26.57
25.02
23.62
22.62
22.16
22.16
22.43
22.74
22.88
22.69
22.11
21.06
19.53
17.55
15.23
12.69
10.06
7.39
4.71
2.05
-0.52
-2.85
-4.82
-6.42
-7.76
-9.07
-10.66
-12.78
-15.62
-19.33
-23.94
-29.26
-34.71
-39.33
-41.83
-41.05
-36.35
-27.95
-17.00
-5.19
5.75
14.59
20.85
24.74
26.87
27.88
28.21
28.06
27.48
26.51
25.24
23.84
22.49
21.29
20.30
19.55
19.01
18.59
18.14
17.46
16.41
14.88
12.91
10.58
8.04
5.37
2.67
-0.05
-2.74
-5.34
-7.82
-10.19
-12.44
-14.60
-16.65
-18.59
-20.48
-22.51
-25.00
-28.26
-32.46
-37.39
-42.40
-46.44
-48.31
-47.01
-42.12
-33.96
-23.59
-12.53
-2.29
6.01
11.93
15.70
17.96
19.43
20.61
21.62
22.38
22.67
22.37
21.50
20.21
18.68
17.10
15.60
14.35
13.47
13.00
12.93
13.09
13.24
13.14
12.62
11.59
10.11
8.31
6.36
4.43
2.62
0.89
-0.85
-2.71
-4.71
-6.76
-8.67
-10.34
-11.84
-13.41
-15.42
-18.22
-21.94
-26.47
-31.39
-36.02
-39.45
-40.71
-38.97
-33.82
-25.57
-15.28
-4.54
5.00
12.13
16.42
18.25
18.50
18.09
17.65
17.40
17.21
16.89
16.35
15.69
15.15
14.95
15.14
15.57
15.98
16.14
15.97
15.57
15.08
14.63
14.15
13.43
12.21
10.35
7.97
5.36
2.91
0.85
-0.79
-2.20
-3.69
-5.46
-7.54
-9.77
-11.87
-13.63
-14.98
-16.04
-17.02
-18.24
-19.97
-22.36
-25.34
-28.50
-31.08
-32.15
-30.87
-26.84
-20.26
-11.99
-3.29
4.57
10.63
14.49
16.24
16.37
15.52
14.25
12.97
11.87
11.04
10.45
10.11
10.04
10.28
10.82
11.61
12.56
13.57
14.60
15.68
16.80
17.90
18.78
19.15
18.77
17.55
15.63
13.40
11.26
9.54
8.35
7.47
6.60
5.42
3.82
1.89
-0.16
-2.08
-3.78
-5.34
-6.98
-9.02
-11.66
-14.97
-18.74
-22.48
-25.48
-26.91
-26.08
-22.67
-16.91
-9.55
-1.77
5.21
10.49
13.71
15.09
15.22
14.73
14.05
13.31
12.39
11.17
9.70
8.24
7.15
6.68
6.81
7.30
7.78
7.93
7.66
7.03
6.25
5.48
4.78
4.06
3.22
2.09
0.64
-1.09
-2.97
-4.85
-6.64
-8.33
-9.94
-11.56
-13.20
-14.86
-16.51
-18.24
-20.19
-22.59
-25.56
-28.98
-32.34
-34.86
-35.71
-34.23
-30.26
-24.16
-16.77
-9.13
-2.20
3.35
7.30
9.79
11.16
11.81
12.00
11.84
11.32
10.44
9.28
8.03
6.90
6.11
5.69
5.61
5.66
5.63
5.39
4.89
4.17
3.31
2.40
1.43
0.35
-0.93
-2.49
-4.32
-6.36
-8.50
-10.61
-12.62
-14.46
-16.16
-17.70
-19.09
-20.38
-21.61
-22.94
-24.66
-27.01
-30.14
-33.80
-37.33
-39.72
-39.91
-37.22
-31.60
-23.76
-14.91
-6.37
0.86
6.26
9.87
12.03
13.18
13.70
13.87
13.85
13.72
13.51
13.15
12.57
11.73
10.66
9.53
8.58
8.02
7.93
8.25
8.77
9.21
9.31
8.88
7.86
6.29
4.36
2.28
0.30
-1.49
-3.09
-4.63
-6.31
-8.22
-10.41
-12.72
-15.00
-17.12
-19.07
-21.08
-23.51
-26.70
-30.77
-35.43
-39.84
-42.83
-43.23
-40.32
-34.09
-25.37
-15.54
-6.09
1.79
7.50
11.04
12.84
13.54
13.74
13.89
14.22
14.76
15.42
16.08
16.65
17.07
17.37
17.57
17.73
17.90
18.16
18.52
18.92
19.10
18.76
17.69
15.81
13.36
10.73
8.29
6.26
4.60
3.05
1.33
-0.77
-3.25
-5.96
-8.62
-11.04
-13.11
-14.89
-16.63
-18.69
-21.43
-25.07
-29.47
-34.07
-37.88
-39.72
-38.57
-33.93
-26.06
-15.96
-5.14
4.89
12.98
18.64
21.98
23.53
23.91
23.65
23.07
22.31
21.49
20.70
20.12
19.89
20.07
20.64
21.48
22.46
23.46
24.43
25.28
25.91
26.19
25.96
25.11
23.65
21.72
19.49
17.19
14.96
12.83
10.77
8.69
6.54
4.32
2.13
0.08
-1.75
-3.43
-5.18
-7.38
-10.44
-14.58
-19.69
-25.19
-30.03
-32.99
-32.98
-29.46
-22.67
-13.60
-3.74
5.39
12.68
17.65
20.46
21.67
21.88
21.56
20.91
19.97
18.77
17.43
16.13
15.11
14.52
14.37
14.54
14.84
15.04
14.96
14.51
13.65
12.42
10.88
9.05
6.95
4.50
1.66
-1.59
-5.13
-8.68
-11.87
-14.41
-16.15
-17.26
-18.08
-19.13
-20.88
-23.61
-27.36
-31.82
-36.31
-39.85
-41.34
-39.87
-35.00
-27.01
-16.88
-6.09
3.84
11.81
17.31
20.45
21.77
21.83
21.09
19.80
18.05
15.92
13.56
11.20
9.12
7.53
6.58
6.29
6.52
7.03
7.50
7.61
7.17
6.20
4.87
3.44
2.08
0.77
-0.67
-2.48
-4.77
-7.37
-9.93
-12.03
-13.48
-14.36
-15.04
-15.99
-17.61
-20.08
-23.35
-27.16
-31.04
-34.30
-36.05
-35.44
-31.83
-25.15
-16.09
-5.93
3.80
11.77
17.26
20.26
21.33
21.24
20.65
19.91
19.10
18.16
17.08
16.00
15.20
14.90
15.17
15.89
16.71
17.31
17.49
17.20
16.57
15.76
14.82
13.71
12.24
10.20
7.49
4.15
0.39
-3.48
-7.12
-10.28
-12.78
-14.64
-16.02
-17.22
-18.59
-20.50
-23.24
-26.86
-31.14
-35.44
-38.85
-40.39
-39.26
-35.18
-28.50
-20.10
-11.13
-2.67
4.55
10.32
14.76
18.22
20.96
23.09
24.57
25.31
25.24
24.44
23.10
21.50
19.90
18.47
17.26
16.20
15.14
13.92
12.49
10.92
9.43
8.34
7.90
8.21
9.16
10.40
11.48
11.98
11.68
10.61
8.99
7.11
5.18
3.32
1.53
-0.19
-1.83
-3.34
-4.77
-6.30
-8.19
-10.61
-13.42
-16.05
-17.58
-17.00
-13.63
-7.52
0.53
9.12
16.78
22.40
25.57
26.57
26.09
24.84
23.27
21.54
19.62
17.55
15.52
13.84
12.72
12.19
12.08
12.10
12.07
11.96
11.83
11.73
11.61
11.31
10.64
9.52
7.98
6.14
4.12
1.95
-0.36
-2.79
-5.22
-7.44
-9.23
-10.52
-11.39
-12.13
-13.02
-14.35
-16.26
-18.79
-21.84
-25.16
-28.29
-30.52
-31.04
-29.15
-24.63
-17.86
-9.84
-1.87
4.84
9.63
12.50
13.89
14.45
14.62
14.48
13.89
12.72
11.03
9.18
7.62
6.76
6.66
7.10
7.65
7.91
7.64
6.85
5.68
4.33
2.94
1.52
-0.01
-1.74
-3.77
-6.12
-8.68
-11.25
-13.59
-15.47
-16.77
-17.56
-18.03
-18.56
-19.54
-21.35
-24.15
-27.80
-31.76
-35.23
-37.24
-36.99
-34.09
-28.68
-21.41
-13.28
-5.36
1.47
6.68
10.19
12.22
13.21
13.57
13.57
13.35
12.93
12.30
11.43
10.39
9.31
8.31
7.43
6.68
6.00
5.29
4.51
3.68
2.85
2.10
1.44
0.81
0.06
-0.98
-2.43
-4.29
-6.46
-8.71
-10.80
-12.52
-13.76
-14.60
-15.25
-16.04
-17.28
-19.21
-21.85
-24.97
-28.07
-30.44
-31.30
-30.02
-26.32
-20.44
-13.12
-5.39
1.69
7.34
11.22
13.43
14.36
14.41
13.96
13.18
12.15
10.97
9.74
8.66
7.89
7.56
7.66
8.09
8.70
9.28
9.70
9.86
9.73
9.28
8.54
7.55
6.35
5.00
3.59
2.17
0.78
-0.61
-2.10
-3.76
-5.64
-7.61
-9.49
-11.08
-12.34
-13.42
-14.69
-16.59
-19.46
-23.33
-27.84
-32.23
-35.50
-36.65
-34.96
-30.23
-22.88
-13.85
-4.42
4.16
10.94
15.48
17.89
18.65
18.44
17.84
17.26
16.86
16.63
16.50
16.39
16.33
16.37
16.59
17.01
17.63
18.37
19.17
19.90
20.43
20.60
20.26
19.34
17.88
16.00
13.90
11.81
9.86
8.04
6.24
4.29
2.07
-0.41
-2.97
-5.38
-7.44
-9.16
-10.72
-12.49
-14.89
-18.24
-22.59
-27.57
-32.38
-35.92
-37.11
-35.21
-30.13
-22.50
-13.55
-4.66
2.98
8.71
12.47
14.62
15.75
16.36
16.72
16.89
16.79
16.40
15.78
15.18
14.89
15.11
15.88
17.00
18.14
18.95
19.14
18.62
17.46
15.89
14.17
12.51
10.97
9.45
7.77
5.76
3.34
0.55
-2.43
-5.37
-8.11
-10.56
-12.76
-14.83
-16.97
-19.43
-22.49
-26.30
-30.80
-35.46
-39.36
-41.37
-40.46
-36.14
-28.63
-18.85
-8.16
2.01
10.55
16.88
20.97
23.18
24.04
24.05
23.54
22.64
21.37
19.76
17.95
16.15
14.58
13.40
12.60
12.13
11.90
11.81
11.77
11.59
11.05
9.94
8.24
6.09
3.81
1.66
-0.27
-2.09
-4.02
-6.26
-8.79
-11.47
-14.03
-16.36
-18.44
-20.45
-22.63
-25.21
-28.32
-32.00
-36.05
-39.98
-43.01
-44.11
-42.37
-37.30
-29.14
-18.88
-8.05
1.83
9.65
15.02
18.23
19.90
20.66
20.89
20.74
20.24
19.48
18.60
17.79
17.14
16.58
16.03
15.47
14.98
14.77
14.97
15.59
16.40
17.05
17.20
16.66
15.43
13.60
11.35
8.74
5.81
2.53
-1.04
-4.80
-8.51
-11.94
-14.89
-17.26
-19.05
-20.40
-21.59
-22.92
-24.74
-27.25
-30.40
-33.77
-36.46
-37.39
-35.58
-30.50
-22.33
-12.00
-0.87
9.56
18.09
23.99
27.20
28.17
27.66
26.48
25.24
24.19
23.32
22.50
21.64
20.87
20.42
20.48
21.02
21.83
22.56
22.95
22.94
22.65
22.20
21.65
20.86
19.65
17.86
15.46
12.60
9.51
6.35
3.20
0.04
-3.14
-6.28
-9.26
-11.91
-14.09
-15.86
-17.44
-19.24
-21.70
-25.09
-29.30
-33.73
-37.31
-38.82
-37.28
-32.29
-24.31
-14.42
-4.12
5.23
12.69
17.91
21.03
22.50
22.86
22.53
21.80
20.87
19.86
18.89
18.05
17.46
17.14
17.09
17.15
17.08
16.60
15.51
13.80
11.70
9.62
7.92
6.77
5.97
5.04
3.47
0.99
-2.26
-5.79
-8.98
-11.48
-13.28
-14.77
-16.48
-18.86
-22.09
-26.04
-30.34
-34.40
-37.49
-38.83
-37.72
-33.83
-27.34
-19.03
-10.06
-1.69
5.19
10.22
13.63
15.92
17.54
18.70
19.33
19.25
18.40
17.00
15.44
14.14
13.37
13.09
13.06
12.95
12.52
11.71
10.64
9.52
8.47
7.47
6.39
4.98
3.03
0.44
-2.70
-6.17
-9.65
-12.79
-15.41
-17.46
-19.14
-20.84
-23.01
-26.01
-29.91
-34.41
-38.73
-41.82
-42.62
-40.38
-34.94
-26.85
-17.26
-7.55
1.06
7.80
12.47
15.34
16.91
17.65
17.86
17.65
17.06
16.12
14.95
13.75
12.74
12.10
11.93
12.19
12.71
13.25
13.53
13.40
12.77
11.76
10.55
9.34
8.20
7.06
5.75
4.05
1.85
-0.81
-3.73
-6.65
-9.33
-11.64
-13.62
-15.41
-17.26
-19.43
-22.18
-25.65
-29.69
-33.84
-37.27
-38.96
-37.98
-33.84
-26.72
-17.49
-7.50
1.80
9.28
14.42
17.34
18.65
19.12
19.32
19.54
19.75
19.83
19.67
19.35
19.04
18.88
18.89
19.03
19.20
19.40
19.72
20.26
21.05
21.96
22.69
22.89
22.27
20.76
18.51
15.90
13.35
11.22
9.62
8.41
7.22
5.74
3.79
1.46
-0.93
-3.05
-4.72
-6.03
-7.33
-9.04
-11.53
-14.92
-19.06
-23.47
-27.43
-30.02
-30.36
-27.85
-22.40
-14.52
-5.32
3.84
11.66
17.27
20.48
21.60
21.34
20.37
19.22
18.09
16.99
15.84
14.65
13.50
12.53
11.84
11.38
11.07
10.78
10.45
10.13
9.88
9.72
9.60
9.36
8.83
7.91
6.62
5.10
3.53
2.06
0.73
-0.55
-1.84
-3.21
-4.60
-5.92
-7.10
-8.15
-9.21
-10.49
-12.22
-14.58
-17.67
-21.40
-25.40
-29.01
-31.28
-31.29
-28.42
-22.74
-15.00
-6.43
1.64
8.20
12.85
15.72
17.28
17.99
18.18
17.96
17.32
16.27
14.90
13.40
11.96
10.70
9.63
8.66
7.70
6.75
5.87
5.18
4.77
4.61
4.54
4.29
3.60
2.39
0.75
-0.99
-2.50
-3.54
-4.19
-4.77
-5.68
-7.22
-9.36
-11.77
-14.01
-15.71
-16.78
-17.42
-18.09
-19.28
-21.36
-24.44
-28.32
-32.37
-35.67
-37.15
-35.92
-31.60
-24.48
-15.53
-6.14
2.31
8.82
13.01
15.10
15.69
15.46
14.89
14.21
13.40
12.42
11.33
10.33
9.69
9.56
9.91
10.49
10.99
11.22
11.19
11.10
11.19
11.50
11.85
11.85
11.14
9.54
7.24
4.71
2.49
0.96
0.17
-0.19
-0.59
-1.50
-3.09
-5.28
-7.77
-10.16
-12.16
-13.65
-14.73
-15.67
-16.87
-18.72
-21.52
-25.29
-29.70
-33.98
-37.06
-37.85
-35.52
-29.95
-21.71
-12.10
-2.63
5.33
10.98
14.23
15.56
15.75
15.51
15.30
15.28
15.40
15.62
15.91
16.35
17.01
17.87
18.81
19.63
20.15
20.34
20.30
20.22
20.23
20.28
20.14
19.45
17.92
15.48
12.35
9.03
6.10
4.05
3.08
3.01
3.37
3.64
3.37
2.42
0.95
-0.68
-2.07
-2.99
-3.47
-3.79
-4.45
-5.95
-8.69
-12.71
-17.63
-22.61
-26.56
-28.41
-27.42
-23.45
-16.96
-8.94
-0.56
7.05
13.08
17.18
19.42
20.21
20.06
19.47
18.70
17.87
16.94
15.90
14.79
13.76
12.92
12.33
11.95
11.67
11.41
11.09
10.67
10.10
9.32
8.24
6.83
5.10
3.11
0.97
-1.19
-3.27
-5.19
-6.95
-8.66
-10.41
-12.33
-14.41
-16.53
-18.52
-20.28
-21.81
-23.33
-25.15
-27.65
-31.02
-35.16
-39.51
-43.17
-44.99
-44.00
-39.72
-32.38
-22.90
-12.59
-2.80
5.43
11.53
15.39
17.26
17.57
16.82
15.53
14.14
12.93
12.03
11.45
11.11
11.01
11.15
11.57
12.22
12.94
13.49
13.63
13.22
12.28
10.96
9.45
7.91
6.34
4.66
2.77
0.58
-1.87
-4.42
-6.90
-9.19
-11.25
-13.10
-14.83
-16.50
-18.15
-19.90
-21.97
-24.64
-28.14
-32.37
-36.75
-40.29
-41.78
-40.24
-35.30
-27.34
-17.45
-7.09
2.29
9.62
14.46
17.00
17.87
17.83
17.53
17.26
17.03
16.72
16.23
15.57
14.89
14.31
13.92
13.69
13.55
13.45
13.40
13.37
13.25
12.87
12.04
10.67
8.86
6.78
4.63
2.49
0.30
-2.12
-4.88
-8.03
-11.37
-14.65
-17.56
-19.99
-21.99
-23.78
-25.68
-27.99
-30.93
-34.55
-38.63
-42.60
-45.54
-46.38
-44.18
-38.50
-29.67
-18.76
-7.32
3.11
11.39
17.07
20.32
21.69
21.88
21.46
20.81
20.12
19.47
18.95
18.58
18.42
18.46
18.70
19.05
19.42
19.75
19.96
20.00
19.82
19.36
18.56
17.35
15.73
13.75
11.56
9.29
7.03
4.74
2.37
-0.09
-2.58
-4.88
-6.78
-8.20
-9.29
-10.36
-11.89
-14.31
-17.89
-22.63
-28.11
-33.52
-37.65
-39.16
-37.01
-30.89
-21.39
-10.00
1.44
11.26
18.48
22.93
25.12
25.84
25.78
25.37
24.72
23.80
22.60
21.22
19.85
18.69
17.94
17.62
17.64
17.76
17.74
17.31
16.37
14.90
13.02
10.89
8.62
6.26
3.77
1.09
-1.78
-4.78
-7.75
-10.54
-13.05
-15.29
-17.32
-19.22
-21.09
-23.08
-25.40
-28.34
-32.16
-36.85
-41.96
-46.46
-49.00
-48.26
-43.44
-34.67
-23.00
-10.22
1.80
11.54
18.31
22.23
24.04
24.64
24.74
24.70
24.51
24.06
23.26
22.21
21.14
20.26
19.64
19.25
18.93
18.56
18.09
17.52
16.82
15.87
14.51
12.57
10.02
7.01
3.82
0.76
-2.02
-4.56
-7.04
-9.65
-12.40
-15.12
-17.52
-19.41
-20.79
-22.01
-23.63
-26.26
-30.25
-35.54
-41.43
-46.70
-49.87
-49.55
-45.01
-36.35
-24.59
-11.40
1.42
12.38
20.66
26.13
29.22
30.64
31.06
30.99
30.75
30.45
30.16
29.87
29.63
29.45
29.29
29.13
28.94
28.75
28.56
28.38
28.15
27.69
26.79
25.30
23.12
20.34
17.18
13.95
10.92
8.24
5.89
3.66
1.32
-1.25
-4.05
-6.88
-9.47
-11.66
-13.47
-15.12
-17.00
-19.51
-22.99
-27.59
-33.16
-39.12
-44.44
-47.75
-47.68
-43.35
-34.77
-22.98
-9.81
2.73
13.04
20.41
25.01
27.62
29.13
30.18
31.00
31.53
31.63
31.32
30.81
30.41
30.35
30.63
31.01
31.16
30.80
29.91
28.71
27.56
26.75
26.30
25.95
25.29
23.97
21.88
19.21
16.38
13.84
11.89
10.61
9.78
9.06
8.07
6.55
4.47
2.03
-0.42
-2.50
-3.98
-4.88
-5.50
-6.35
-7.97
-10.80
-14.98
-20.30
-26.11
-31.39
-34.92
-35.50
-32.40
-25.60
-15.99
-5.10
5.28
13.69
19.38
22.39
23.35
23.07
22.18
21.05
19.79
18.43
17.06
15.82
14.83
14.14
13.71
13.42
13.20
13.06
13.06
13.29
13.77
14.40
14.94
15.08
14.50
13.02
10.63
7.63
4.51
1.83
-0.04
-1.03
-1.49
-1.93
-2.88
-4.57
-6.84
-9.28
-11.45
-13.14
-14.49
-15.93
-17.96
-20.95
-25.01
-29.86
-34.94
-39.38
-42.14
-42.29
-39.19
-32.85
-23.98
-13.84
-3.94
4.43
10.52
14.23
15.96
16.35
16.00
15.27
14.28
13.06
11.63
10.15
8.80
7.75
7.04
6.60
6.27
5.95
5.59
5.28
5.09
5.05
5.07
4.98
4.59
3.79
2.54
0.95
-0.83
-2.61
-4.23
-5.67
-6.99
-8.36
-9.90
-11.63
-13.39
-14.93
-16.02
-16.60
-16.84
-17.10
-17.86
-19.47
-22.12
-25.67
-29.65
-33.30
-35.71
-35.91
-33.24
-27.57
-19.43
-9.94
-0.57
7.37
13.03
16.19
17.22
16.79
15.57
14.02
12.43
10.90
9.52
8.38
7.59
7.17
7.06
7.11
7.19
7.26
7.39
7.76
8.46
9.42
10.35
10.85
10.54
9.24
7.09
4.46
1.85
-0.37
-2.00
-3.13
-4.03
-4.99
-6.27
-7.88
-9.74
-11.56
-13.11
-14.24
-14.98
-15.53
-16.21
-17.41
-19.46
-22.45
-26.13
-29.79
-32.42
-32.90
-30.49
-25.07
-17.27
-8.31
0.40
7.70
12.90
15.90
17.05
16.87
15.93
14.64
13.31
12.09
11.11
10.42
10.03
9.92
10.08
10.51
11.19
12.11
13.22
14.42
15.55
16.42
16.86
16.73
16.02
14.81
13.25
11.56
9.95
8.58
7.52
6.73
6.02
5.20
4.07
2.56
0.75
-1.16
-2.96
-4.51
-5.89
-7.38
-9.40
-12.29
-16.09
-20.43
-24.48
-27.17
-27.48
-24.92
-19.62
-12.42
-4.56
2.70
8.47
12.39
14.63
15.65
15.90
15.72
15.25
14.50
13.44
12.14
10.70
9.28
7.99
6.90
6.03
5.34
4.80
4.34
3.88
3.31
2.52
1.44
0.08
-1.47
-3.06
-4.53
-5.80
-6.89
-7.91
-9.01
-10.31
-11.87
-13.66
-15.55
-17.36
-18.95
-20.29
-21.58
-23.12
-25.32
-28.35
-32.02
-35.62
-38.08
-38.33
-35.67
-30.13
-22.44
-13.81
-5.47
1.60
6.93
10.49
12.52
13.42
13.55
13.24
12.71
12.11
11.49
10.87
10.31
9.83
9.51
9.35
9.26
9.10
8.73
8.05
7.04
5.74
4.20
2.46
0.56
-1.50
-3.68
-5.95
-8.29
-10.66
-12.99
-15.20
-17.17
-18.85
-20.24
-21.44
-22.67
-24.19
-26.30
-29.23
-33.08
-37.65
-42.38
-46.35
-48.43
-47.60
-43.33
-35.83
-26.07
-15.49
-5.61
2.44
8.18
11.74
13.69
14.72
15.36
15.88
16.27
16.41
16.19
15.65
14.98
14.44
14.26
14.57
15.31
16.29
17.23
17.84
17.88
17.24
15.93
14.06
11.80
9.31
6.69
4.00
1.24
-1.59
-4.46
-7.27
-9.92
-12.32
-14.45
-16.36
-18.20
-20.17
-22.55
-25.63
-29.55
-34.20
-39.03
-43.08
-45.15
-44.13
-39.46
-31.33
-20.77
-9.34
1.32
9.97
16.04
19.65
21.43
22.15
22.47
22.75
23.06
23.36
23.55
23.65
23.76
24.00
24.45
25.06
25.75
26.37
26.82
27.00
26.80
26.13
24.88
23.03
20.61
17.80
14.84
11.93
9.19
6.61
4.11
1.56
-1.08
-3.78
-6.44
-8.90
-11.08
-13.00
-14.83
-16.85
-19.46
-23.00
-27.59
-32.94
-38.23
-42.20
-43.44
-40.87
-34.20
-24.13
-12.17
-0.23
9.98
17.47
22.06
24.27
24.97
25.02
25.02
25.26
25.81
26.63
27.62
28.72
29.86
30.97
31.97
32.78
33.32
33.55
33.47
33.08
32.40
31.39
30.01
28.21
26.01
23.53
20.99
18.61
16.58
14.93
13.52
12.11
10.47
8.53
6.40
4.34
2.59
1.25
0.15
-1.06
-2.88
-5.75
-9.92
-15.36
-21.60
-27.81
-32.79
-35.25
-34.17
-29.17
-20.68
-9.99
1.17
11.12
18.68
23.43
25.68
26.15
25.66
24.80
23.87
22.86
21.70
20.36
18.91
17.49
16.24
15.20
14.31
13.51
12.75
12.05
11.48
11.02
10.59
10.04
9.18
7.92
6.21
4.14
1.82
-0.59
-2.95
-5.12
-7.00
-8.57
-9.89
-11.08
-12.34
-13.91
-16.04
-18.96
-22.80
-27.48
-32.59
-37.44
-41.06
-42.46
-40.89
-36.08
-28.41
-18.82
-8.60
0.98
8.96
14.89
18.84
21.21
22.52
23.14
23.24
22.80
21.83
20.42
18.85
17.46
16.56
16.23
16.32
16.52
16.47
15.98
15.00
13.62
11.96
10.12
8.11
5.88
3.44
0.82
-1.92
-4.73
-7.55
-10.34
-13.03
-15.53
-17.72
-19.56
-21.13
-22.66
-24.48
-26.95
-30.24
-34.23
-38.40
-41.85
-43.52
-42.52
-38.37
-31.31
-22.20
-12.35
-3.11
4.49
9.99
13.46
15.34
16.20
16.48
16.47
16.32
16.07
15.71
15.23
14.62
13.84
12.93
11.98
11.10
10.39
9.86
9.39
8.83
8.05
7.04
5.87
4.63
3.39
2.08
0.57
-1.23
-3.33
-5.58
-7.77
-9.71
-11.33
-12.71
-14.10
-15.75
-17.86
-20.55
-23.79
-27.44
-31.16
-34.43
-36.58
-36.82
-34.56
-29.61
-22.34
-13.68
-4.88
2.86
8.69
12.34
14.08
14.51
14.31
13.94
13.62
13.33
12.98
12.54
12.09
11.83
11.90
12.32
12.91
13.46
13.73
13.62
13.14
12.35
11.34
10.13
8.74
7.18
5.49
3.74
1.95
0.14
-1.72
-3.68
-5.75
-7.87
-9.96
-11.88
-13.57
-15.01
-16.32
-17.75
-19.54
-21.90
-24.81
-27.95
-30.72
-32.29
-31.87
-28.97
-23.57
-16.26
-8.04
-0.13
6.46
11.16
13.93
15.15
15.43
15.31
15.12
15.03
15.08
15.29
15.70
16.29
16.97
17.57
17.92
17.93
17.65
17.23
16.82
16.46
16.15
15.82
15.40
14.82
14.03
12.96
11.62
10.08
8.49
7.03
5.77
4.62
3.39
1.95
0.28
-1.43
-2.94
-4.04
-4.79
-5.45
-6.44
-8.11
-10.68
-14.01
-17.60
-20.64
-22.17
-21.41
-17.99
-12.20
-4.87
2.76
9.49
14.48
17.39
18.42
18.08
16.98
15.65
14.38
13.26
12.22
11.13
9.93
8.65
7.47
6.60
6.15
6.11
6.30
6.47
6.39
5.98
5.29
4.43
3.45
2.32
0.90
-0.92
-3.12
-5.51
-7.83
-9.78
-11.22
-12.20
-12.88
-13.54
-14.34
-15.45
-16.97
-19.01
-21.65
-24.92
-28.66
-32.48
-35.68
-37.42
-36.92
-33.72
-27.94
-20.29
-11.90
-4.00
2.46
7.04
9.83
11.23
11.72
11.66
11.22
10.50
9.57
8.50
7.42
6.41
5.52
4.81
4.36
4.19
4.31
4.61
4.88
4.93
4.60
3.89
2.89
1.72
0.48
-0.77
-1.99
-3.18
-4.36
-5.57
-6.91
-8.40
-10.00
-11.57
-12.94
-14.03
-14.91
-15.77
-16.86
-18.45
-20.69
-23.60
-26.96
-30.25
-32.68
-33.28
-31.27
-26.37
-19.03
-10.31
-1.58
5.93
11.46
14.87
16.45
16.76
16.29
15.43
14.37
13.23
12.14
11.25
10.71
10.58
10.84
11.37
12.06
12.78
13.51
14.26
14.97
15.51
15.67
15.21
14.02
12.11
9.67
7.02
4.51
2.42
0.88
-0.20
-1.03
-1.95
-3.20
-4.84
-6.74
-8.65
-10.35
-11.74
-12.95
-14.26
-16.03
-18.54
-21.89
-25.87
-29.93
-33.24
-34.78
-33.68
-29.50
-22.48
-13.51
-3.95
4.76
11.57
15.97
18.07
18.41
17.66
16.43
15.18
14.20
13.62
13.55
14.01
14.96
16.26
17.72
19.12
20.28
21.09
21.53
21.66
21.53
21.25
20.85
20.35
19.69
18.79
17.58
16.09
14.44
12.81
11.42
10.40
9.73
9.27
8.79
8.09
7.10
5.89
4.63
3.46
2.42
1.36
0.02
-1.93
-4.76
-8.57
-13.23
-18.38
-23.36
-27.30
-29.27
-28.46
-24.54
-17.80
-9.21
-0.16
7.92
13.99
17.68
19.27
19.47
19.00
18.34
17.63
16.78
15.68
14.37
13.05
11.98
11.35
11.08
10.96
10.76
10.39
9.92
9.55
9.42
9.42
9.32
8.79
7.66
6.00
4.08
2.24
0.67
-0.62
-1.87
-3.34
-5.25
-7.54
-10.01
-12.32
-14.19
-15.54
-16.48
-17.31
-18.42
-20.15
-22.72
-26.13
-30.03
-33.75
-36.36
-36.83
-34.45
-29.04
-21.19
-12.08
-3.10
4.56
10.22
13.83
15.73
16.41
16.31
15.68
14.69
13.43
12.06
10.71
9.53
8.60
7.94
7.51
7.26
7.11
7.00
6.97
7.02
7.15
7.22
7.00
6.24
4.81
2.76
0.41
-1.80
-3.51
-4.60
-5.19
-5.64
-6.31
-7.45
-9.05
-10.90
-12.68
-14.12
-15.15
-15.97
-16.98
-18.64
-21.32
-25.04
-29.38
-33.49
-36.30
-36.77
-34.25
-28.69
-20.73
-11.51
-2.35
5.53
11.38
15.00
16.63
16.81
16.10
14.93
13.60
12.28
11.06
10.02
9.23
8.75
8.60
8.79
9.28
10.00
10.84
11.69
12.47
13.08
13.44
13.44
