1542388247.00
64.000000
-0.00
-0.00
-0.00
-0.00
-0.00
-0.00
-0.00
-0.00
-0.00
-0.00
0.00
0.01
0.01
-0.00
-0.03
-0.05
-0.05
0.00
0.13
0.36
0.66
1.01
1.37
1.72
2.06
2.40
2.79
3.24
3.80
4.42
5.06
5.66
6.20
6.68
7.15
7.68
8.31
9.14
10.09
11.04
11.88
12.56
13.14
13.76
14.65
15.96
17.91
20.32
22.90
25.38
27.58
29.57
31.68
34.32
37.81
42.54
48.15
54.10
59.83
64.97
69.58
74.14
79.34
85.71
93.76
103.00
112.62
121.73
129.77
136.75
143.30
150.75
157.77
166.64
177.95
191.79
206.97
220.57
228.25
225.36
208.53
176.87
132.76
80.05
23.07
-34.94
-92.44
-149.16
-205.23
-260.37
-313.74
-363.87
-409.83
-450.91
-486.50
-515.74
-537.23
-549.22
-549.96
-538.37
-514.21
-478.67
-433.88
-382.45
-327.02
-269.84
-212.63
-156.66
-102.95
-52.37
-5.90
35.58
71.43
101.35
125.50
144.38
158.69
169.15
176.37
180.75
182.57
182.07
179.51
175.23
169.65
163.18
156.15
148.81
141.30
133.69
126.02
118.33
110.69
103.16
95.80
88.68
81.83
75.25
68.95
62.95
57.25
51.86
46.78
42.03
37.59
33.45
29.61
26.07
22.81
19.83
17.11
14.67
12.48
10.54
8.83
7.35
6.07
4.97
4.05
3.27
2.62
2.09
1.65
1.30
1.01
0.79
0.61
0.47
0.37
0.29
0.23
0.19
0.16
0.14
0.14
0.15
0.16
0.18
0.21
0.24
0.28
0.32
0.36
0.40
0.45
0.50
0.54
0.59
0.65
0.70
0.76
0.83
0.90
0.97
1.06
1.15
1.26
1.37
1.51
1.66
1.82
2.01
2.21
2.44
2.69
2.97
3.28
3.62
3.99
4.39
4.83
5.31
5.82
6.37
6.96
7.60
8.27
8.99
9.76
10.57
11.43
12.33
13.27
14.27
15.34
16.46
17.65
18.89
20.17
21.43
22.63
23.66
24.43
24.81
24.67
23.92
22.47
20.28
17.39
13.85
9.77
5.36
0.80
-3.68
-7.88
-11.60
-14.72
-17.10
-18.71
-19.55
-19.69
-19.25
-18.38
-17.20
-15.86
-14.43
-12.93
-11.38
-9.75
-8.03
-6.29
-4.57
-2.92
-1.36
0.15
1.67
3.30
5.08
7.11
9.23
11.30
13.23
14.98
16.60
18.26
20.12
22.39
25.17
28.14
30.97
33.44
35.43
37.09
38.73
40.80
43.62
47.40
51.48
55.20
58.01
59.61
60.18
60.27
60.56
61.63
63.68
65.71
66.56
65.18
60.87
53.49
43.18
29.96
12.96
-4.82
-23.08
-42.24
-63.14
-86.76
-113.96
-144.90
-178.36
-211.28
-238.87
-256.52
-260.63
-250.24
-227.56
-197.23
-164.52
-133.58
-106.40
-83.03
-63.12
-46.20
-32.22
-21.33
-13.33
-7.43
-2.38
2.98
9.29
16.12
22.62
27.86
31.33
33.12
33.90
34.54
35.74
37.74
40.07
41.95
42.65
41.79
39.49
36.33
33.01
30.06
27.64
25.53
23.29
20.54
17.02
12.70
7.68
2.28
-3.01
-7.49
-10.42
-11.15
-9.37
-5.21
0.78
7.81
15.09
21.97
27.98
32.84
36.41
38.61
39.56
39.43
38.51
37.07
35.35
33.50
31.66
29.92
28.35
26.98
25.80
24.81
23.94
23.22
22.60
22.03
21.40
20.55
19.32
17.59
15.36
12.69
9.76
6.71
3.73
0.94
-1.62
-3.93
-6.10
-8.29
-10.73
-13.62
-17.02
-20.81
-24.57
-27.69
-29.46
-29.31
-26.94
-22.43
-16.24
-9.08
-1.80
4.88
10.42
14.58
17.39
19.05
19.83
19.95
19.55
18.71
17.52
16.13
14.74
13.55
12.69
12.20
12.00
11.96
11.97
11.95
11.92
11.84
11.68
11.33
10.68
9.61
8.14
6.28
4.15
1.91
-0.33
-2.43
-4.29
-5.93
-7.43
-8.97
-10.81
-13.11
-15.93
-19.09
-22.21
-24.77
-26.22
-26.12
-24.26
-20.69
-15.75
-9.96
-3.96
1.69
6.53
10.32
12.97
14.51
15.03
14.67
13.63
12.14
10.48
8.91
7.70
6.99
6.81
7.12
7.75
8.51
9.18
9.59
9.65
9.36
8.80
8.04
7.12
6.03
4.73
3.20
1.47
-0.41
-2.36
-4.29
-6.15
-7.83
-9.30
-10.54
-11.68
-12.93
-14.56
-16.69
-19.26
-21.97
-24.32
-25.78
-25.91
-24.44
-21.39
-17.02
-11.80
-6.31
-1.12
3.31
6.70
9.01
10.33
10.86
10.76
10.20
9.29
8.16
6.96
5.90
5.17
4.93
5.18
5.82
6.57
7.19
7.48
7.40
7.04
6.59
6.19
5.83
5.42
4.77
3.74
2.28
0.51
-1.41
-3.24
-4.87
-6.27
-7.51
-8.66
-9.80
-10.94
-12.13
-13.42
-14.92
-16.68
-18.57
-20.25
-21.20
-20.94
-19.18
-16.02
-11.88
-7.34
-2.94
0.93
4.09
6.49
8.09
8.91
8.98
8.44
7.51
6.42
5.36
4.46
3.82
3.47
3.47
3.82
4.45
5.16
5.73
5.95
5.78
5.27
4.56
3.74
2.85
1.79
0.55
-0.84
-2.21
-3.36
-4.17
-4.71
-5.22
-5.91
-6.98
-8.39
-9.98
-11.58
-13.10
-14.61
-16.18
-17.80
-19.25
-20.12
-19.96
-18.48
-15.70
-11.95
-7.72
-3.51
0.37
3.77
6.66
9.02
10.77
11.81
12.07
11.59
10.52
9.10
7.56
6.11
4.89
3.99
3.44
3.21
3.26
3.49
3.86
4.29
4.73
5.13
5.40
5.47
5.28
4.83
4.13
3.21
2.09
0.80
-0.65
-2.19
-3.77
-5.35
-6.91
-8.49
-10.17
-12.00
-13.98
-16.00
-17.90
-19.43
-20.36
-20.42
-19.48
-17.48
-14.48
-10.74
-6.63
-2.58
0.99
3.82
5.84
7.13
7.83
8.08
7.94
7.49
6.80
6.02
5.37
4.99
4.95
5.17
5.51
5.83
6.07
6.24
6.32
6.32
6.17
5.80
5.17
4.33
3.33
2.28
1.21
0.15
-0.93
-2.04
-3.22
-4.48
-5.80
-7.16
-8.50
-9.75
-10.93
-12.16
-13.63
-15.49
-17.73
-20.04
-21.88
-22.60
-21.73
-19.17
-15.21
-10.44
-5.49
-0.84
3.24
6.67
9.43
11.45
12.65
12.93
12.38
11.22
9.82
8.54
7.62
7.09
6.83
6.65
6.44
6.25
6.20
6.41
6.87
7.44
7.83
7.78
7.19
6.10
4.76
3.40
2.19
1.12
0.08
-1.14
-2.65
-4.44
-6.40
-8.32
-10.07
-11.59
-12.95
-14.32
-15.89
-17.79
-20.03
-22.46
-24.80
-26.59
-27.39
-26.80
-24.65
-21.05
-16.38
-11.16
-5.92
-1.10
3.02
6.31
8.71
10.25
11.03
11.22
11.03
10.67
10.26
9.87
9.48
9.10
8.78
8.63
8.72
9.08
9.65
10.31
10.98
11.56
12.02
12.21
12.02
11.31
10.09
8.50
6.79
5.14
3.63
2.13
0.45
-1.59
-3.97
-6.50
-8.92
-11.02
-12.79
-14.42
-16.22
-18.51
-21.45
-24.86
-28.30
-31.08
-32.46
-31.89
-29.15
-24.46
-18.38
-11.67
-5.03
0.95
5.98
9.93
12.88
14.92
16.19
16.81
16.89
16.54
15.91
15.19
14.57
14.19
14.11
14.31
14.70
15.20
15.72
16.19
16.55
16.73
16.61
16.08
15.10
13.70
12.01
10.17
8.30
6.42
4.47
2.33
-0.01
-2.50
-4.99
-7.34
-9.44
-11.35
-13.23
-15.32
-17.85
-20.91
-24.45
-28.18
-31.63
-34.17
-35.22
-34.29
-31.18
-26.03
-19.31
-11.71
-4.03
3.05
9.03
13.65
16.93
19.05
20.22
20.69
20.60
20.09
19.32
18.48
17.76
17.33
17.32
17.69
18.36
19.17
19.98
20.63
21.00
20.98
20.44
19.36
17.79
15.87
13.78
11.67
9.65
7.69
5.73
3.69
1.54
-0.69
-2.93
-5.17
-7.41
-9.74
-12.24
-15.06
-18.34
-22.17
-26.57
-31.32
-35.93
-39.58
-41.40
-40.68
-37.15
-31.15
-23.47
-15.11
-6.94
0.50
6.98
12.47
16.94
20.35
22.60
23.70
23.84
23.29
22.38
21.41
20.57
19.97
19.69
19.72
20.04
20.50
20.97
21.31
21.41
21.22
20.70
19.76
18.37
16.55
14.46
12.33
10.35
8.58
6.87
4.96
2.64
-0.13
-3.20
-6.29
-9.19
-11.79
-14.21
-16.69
-19.54
-22.99
-27.17
-31.93
-36.80
-41.05
-43.77
-44.17
-41.76
-36.57
-29.07
-20.10
-10.61
-1.44
6.71
13.43
18.49
21.88
23.75
24.39
24.17
23.45
22.54
21.67
20.93
20.38
20.04
19.94
20.12
20.62
21.39
22.30
23.14
23.65
23.66
23.04
21.81
20.05
17.85
15.34
12.60
9.73
6.82
3.95
1.16
-1.57
-4.27
-6.98
-9.73
-12.48
-15.18
-17.85
-20.59
-23.67
-27.32
-31.66
-36.44
-41.02
-44.47
-45.80
-44.30
-39.77
-32.57
-23.49
-13.57
-3.78
5.15
12.77
18.90
23.51
26.63
28.30
28.66
27.97
26.62
25.09
23.76
22.83
22.27
21.92
21.63
21.44
21.48
21.92
22.84
24.06
25.27
26.04
26.05
25.15
23.43
21.12
18.48
15.69
12.76
9.58
6.05
2.16
-1.91
-5.89
-9.46
-12.53
-15.15
-17.64
-20.37
-23.68
-27.71
-32.38
-37.36
-42.12
-45.97
-48.14
-48.01
-45.21
-39.79
-32.20
-23.22
-13.76
-4.67
3.38
9.95
14.82
17.99
19.53
19.67
18.72
17.08
15.22
13.54
12.34
11.75
11.70
12.02
12.56
13.22
13.97
14.76
15.45
15.83
15.66
14.80
13.30
11.28
8.95
6.42
3.72
0.84
-2.20
-5.32
-8.38
-11.31
-14.11
-16.90
-19.89
-23.26
-27.17
-31.65
-36.50
-41.25
-45.17
-47.37
-47.03
-43.65
-37.26
-28.37
-17.92
-7.02
3.29
12.21
19.27
24.34
27.53
29.15
29.53
28.98
27.76
26.10
24.24
22.43
20.94
20.02
19.77
20.20
21.16
22.38
23.49
24.19
24.23
23.51
22.10
20.14
17.80
15.22
12.45
9.56
6.50
3.26
-0.22
-3.92
-7.82
-11.81
-15.76
-19.56
-23.21
-26.83
-30.62
-34.83
-39.53
-44.57
-49.39
-53.17
-54.87
-53.63
-49.03
-41.27
-31.14
-19.81
-8.47
1.98
10.97
18.29
23.90
27.82
30.13
30.97
30.61
29.45
27.90
26.33
25.01
24.06
23.53
23.39
23.61
24.11
24.78
25.50
26.07
26.30
25.99
25.03
23.39
21.15
18.48
15.52
12.37
9.06
5.55
1.82
-2.08
-6.04
-9.92
-13.60
-17.07
-20.40
-23.74
-27.32
-31.37
-36.09
-41.48
-47.23
-52.61
-56.53
-57.81
-55.54
-49.49
-40.14
-28.65
-16.36
-4.51
6.09
15.04
22.18
27.48
30.91
32.52
32.52
31.35
29.56
27.72
26.21
25.19
24.62
24.43
24.55
24.99
25.73
26.68
27.60
28.13
27.96
26.89
24.97
22.41
19.52
16.52
13.51
10.44
7.22
3.78
0.13
-3.66
-7.46
-11.19
-14.87
-18.54
-22.29
-26.23
-30.49
-35.21
-40.41
-45.90
-51.12
-55.16
-56.90
-55.40
-50.23
-41.65
-30.58
-18.34
-6.26
4.61
13.62
20.50
25.26
28.10
29.34
29.39
28.68
27.55
26.28
25.06
24.01
23.25
22.87
22.96
23.51
24.39
25.39
26.23
26.64
26.39
25.41
23.72
21.44
18.77
15.88
12.86
9.74
6.45
2.92
-0.86
-4.82
-8.83
-12.73
-16.43
-19.93
-23.34
-26.88
-30.82
-35.38
-40.53
-45.86
-50.57
-53.56
-53.74
-50.37
-43.35
-33.25
-21.24
-8.71
3.02
13.07
20.98
26.69
30.39
32.34
32.81
32.04
30.35
28.08
25.63
23.43
21.78
20.84
20.61
20.91
21.47
22.06
22.50
22.69
22.55
22.05
21.10
19.63
17.53
14.76
11.35
7.43
3.18
-1.13
-5.30
-9.17
-12.68
-15.88
-18.88
-21.85
-25.00
-28.59
-32.83
-37.84
-43.40
-48.93
-53.45
-55.82
-55.05
-50.67
-42.89
-32.58
-21.00
-9.42
1.18
10.24
17.53
23.07
26.90
29.04
29.52
28.55
26.51
23.97
21.58
19.84
18.97
18.88
19.27
19.77
20.14
20.32
20.34
20.29
20.17
19.81
18.95
17.29
14.68
11.18
7.08
2.80
-1.21
-4.74
-7.80
-10.63
-13.56
-16.84
-20.60
-24.87
-29.62
-34.77
-40.09
-45.10
-48.99
-50.80
-49.64
-45.11
-37.38
-27.28
-15.96
-4.64
5.71
14.48
21.40
26.46
29.73
31.38
31.60
30.66
28.92
26.81
24.78
23.23
22.37
22.18
22.42
22.73
22.79
22.44
21.70
20.71
19.59
18.37
16.91
15.03
12.57
9.49
5.87
1.94
-2.06
-5.95
-9.65
-13.19
-16.64
-20.08
-23.54
-27.08
-30.78
-34.82
-39.41
-44.56
-49.91
-54.62
-57.48
-57.22
-53.02
-44.88
-33.68
-21.01
-8.58
2.28
10.92
17.39
22.14
25.67
28.26
29.95
30.67
30.43
29.46
28.19
27.09
26.52
26.56
27.01
27.54
27.82
27.76
27.47
27.24
27.27
27.50
27.54
26.86
25.03
21.99
18.05
13.80
9.75
6.09
2.71
-0.69
-4.32
-8.19
-12.06
-15.73
-19.20
-22.73
-26.72
-31.42
-36.61
-41.52
-45.00
-45.87
-43.31
-37.21
-28.18
-17.35
-6.00
4.72
14.01
21.48
27.01
30.67
32.60
32.94
31.92
29.84
27.07
24.04
21.16
18.79
17.07
16.04
15.56
15.38
15.26
14.99
14.47
13.61
12.42
10.88
9.00
6.80
4.29
1.52
-1.46
-4.55
-7.76
-11.04
-14.40
-17.78
-21.11
-24.39
-27.67
-31.17
-35.14
-39.79
-44.98
-50.17
-54.40
-56.53
-55.60
-51.12
-43.28
-32.87
-21.08
-9.16
1.88
11.35
18.94
24.61
28.49
30.75
31.58
31.15
29.72
27.67
25.45
23.54
22.30
21.81
21.90
22.23
22.44
22.34
21.95
21.36
20.64
19.69
18.30
16.28
13.54
10.21
6.52
2.72
-1.07
-4.81
-8.58
-12.40
-16.24
-20.00
-23.58
-27.06
-30.63
-34.59
-39.14
-44.16
-49.10
-52.93
-54.46
-52.63
-47.00
-37.86
-26.21
-13.48
-1.11
9.87
18.94
26.10
31.69
36.09
39.63
42.43
44.46
45.66
46.11
46.05
45.96
46.35
47.69
50.15
53.63
57.75
61.90
65.49
67.99
69.22
69.47
69.69
71.41
76.49
86.50
102.13
122.83
146.60
170.42
190.85
204.87
210.60
207.63
196.73
179.19
156.16
128.37
96.38
61.30
25.22
-8.87
-37.85
-59.59
-73.69
-81.44
-85.11
-86.85
-87.88
-88.47
-88.43
-87.64
-86.30
-84.73
-83.01
-80.74
-77.10
-71.34
-63.19
-53.09
-42.14
-31.66
-22.69
-15.71
-10.57
-6.62
-3.11
0.47
4.09
7.13
8.23
5.97
-0.60
-11.64
-26.27
-42.86
-59.25
-73.18
-82.78
-87.17
-86.51
-82.16
-76.65
-73.16
-74.59
-82.60
-97.04
-116.16
-137.80
-159.73
-180.12
-197.79
-212.07
-222.58
-229.26
-232.08
-231.67
-230.18
-229.10
-228.33
-226.70
-222.65
-215.25
-205.10
-193.58
-183.36
-179.17
-183.26
-193.49
-204.83
-210.91
-206.17
-187.87
-155.44
-111.75
-65.01
-21.81
15.65
47.77
76.79
105.72
137.75
178.13
231.68
296.97
371.23
450.62
527.51
592.48
637.55
645.74
609.72
559.16
511.77
467.96
428.37
391.60
355.80
319.88
283.70
249.45
218.50
186.31
149.58
108.67
65.17
21.56
-19.59
-56.76
-88.30
-114.25
-139.60
-168.63
-202.81
-242.05
-284.07
-324.40
-357.30
-376.49
-378.18
-364.72
-341.15
-312.82
-284.51
-258.71
-235.46
-213.45
-191.10
-168.28
-147.34
-130.60
-118.76
-111.02
-105.45
-99.97
-93.32
-85.39
-77.28
-71.06
-68.46
-70.29
-76.33
-85.42
-95.53
-104.03
-108.17
-105.64
-95.36
-77.84
-55.14
-30.18
-5.83
15.96
34.42
49.65
62.02
71.75
78.90
83.56
86.23
87.72
88.81
90.03
91.60
93.70
96.73
101.24
107.65
115.75
124.56
132.68
138.90
142.51
143.39
141.42
136.01
125.99
110.23
88.59
62.54
35.07
9.66
-11.05
-26.25
-37.07
-45.79
-54.60
-64.64
-75.56
-85.85
-93.72
-97.83
-97.65
-93.50
-86.16
-76.48
-65.02
-51.98
-37.15
-20.13
-0.63
21.13
44.31
67.44
88.82
106.90
120.63
129.56
133.50
132.24
125.56
113.60
97.29
78.43
59.38
42.49
29.64
22.12
20.78
25.97
37.26
52.95
70.05
84.90
94.44
97.27
94.05
86.74
77.33
66.69
54.29
39.12
20.67
-0.31
-21.97
-42.12
-59.04
-72.00
-81.12
-87.01
-90.22
-90.94
-88.96
-83.88
-75.41
-63.80
-49.94
-35.33
-21.70
-10.46
-2.39
2.58
5.13
6.16
6.36
6.05
5.20
3.77
1.94
0.03
-1.57
-2.75
-3.77
-5.20
-7.59
-11.19
-15.82
-20.92
-25.88
-30.27
-33.98
-37.08
-39.68
-41.76
-43.20
-43.93
-44.02
-43.87
-43.93
-44.75
-46.67
-49.81
-54.03
-58.96
-63.96
-68.19
-70.68
-70.52
-67.17
-60.58
-51.31
-40.35
-28.86
-17.87
-8.08
0.19
6.85
12.00
15.72
18.11
19.31
19.52
19.00
18.10
17.11
16.24
15.60
15.20
15.06
15.20
15.70
16.59
17.81
19.17
20.32
20.83
20.27
18.45
15.41
11.53
7.42
3.70
0.80
-1.27
-2.95
-5.07
-8.48
-13.68
-20.49
-27.97
-34.60
-38.64
-38.83
-34.72
-26.93
-16.76
-5.72
5.07
15.13
24.52
33.45
41.75
48.65
52.78
52.57
46.81
35.23
18.99
0.71
-15.94
-26.94
-28.96
-20.24
-1.26
25.22
54.67
81.81
101.85
111.64
110.27
99.16
81.32
60.43
39.87
22.03
8.22
-1.21
-6.55
-8.70
-9.25
-10.37
-14.49
-23.39
-37.37
-54.84
-72.66
-87.05
-94.97
-95.05
-87.87
-75.53
-60.66
-45.58
-31.74
-19.76
-9.71
-1.53
4.70
8.87
10.93
11.09
9.90
8.11
6.47
5.48
5.31
5.77
6.55
7.35
8.04
8.63
9.18
9.65
9.92
9.77
8.98
7.47
5.29
2.63
-0.24
-3.11
-5.89
-8.73
-11.96
-15.97
-21.01
-26.88
-32.84
-37.67
-39.98
-38.76
-33.69
-25.38
-15.10
-4.39
5.47
13.72
20.19
24.99
28.29
30.14
30.42
29.14
26.52
23.09
19.50
16.39
14.11
12.74
12.08
11.82
11.63
11.30
10.66
9.59
8.05
6.04
3.59
0.82
-2.09
-4.99
-7.78
-10.48
-13.31
-16.65
-20.91
-26.32
-32.63
-38.97
-43.98
-46.14
-44.33
-38.30
-28.74
-17.13
-5.17
5.73
14.72
21.58
26.44
29.55
31.08
31.12
29.75
27.20
23.87
20.32
17.08
14.58
13.02
12.33
12.24
12.39
12.39
11.98
11.00
9.45
7.41
5.01
2.36
-0.44
-3.36
-6.46
-9.84
-13.73
-18.34
-23.75
-29.76
-35.70
-40.49
-42.85
-41.72
-36.66
-28.07
-17.06
-5.17
6.14
15.85
23.44
28.85
32.21
33.68
33.42
31.61
28.53
24.63
20.51
16.75
13.82
11.93
11.00
10.75
10.88
11.09
11.22
11.15
10.77
9.94
8.50
6.35
3.52
0.17
-3.53
-7.47
-11.68
-16.39
-21.80
-27.91
-34.26
-39.93
-43.61
-44.03
-40.46
-32.97
-22.56
-10.73
0.89
11.06
19.16
25.04
28.80
30.55
30.34
28.26
24.68
20.26
15.88
12.34
10.20
9.57
10.23
11.66
13.32
14.71
15.45
15.31
14.20
12.20
9.50
6.37
3.13
0.00
-2.87
-5.52
-8.13
-11.03
-14.56
-18.94
-23.97
-28.91
-32.56
-33.58
-31.01
-24.69
-15.38
-4.43
6.64
16.67
25.03
31.56
36.23
38.96
39.63
38.26
35.18
31.12
26.95
23.42
20.89
19.32
18.43
17.89
17.53
17.34
17.37
17.58
17.70
17.38
16.22
14.01
10.81
6.92
2.77
-1.25
-4.89
-8.16
-11.29
-14.65
-18.65
-23.54
-29.22
-35.09
-40.11
-42.99
-42.57
-38.23
-30.17
-19.37
-7.33
4.40
14.57
22.45
27.85
30.90
31.92
31.32
29.50
26.94
24.09
21.39
19.20
17.68
16.84
16.52
16.52
16.62
16.74
16.86
16.95
16.87
16.34
15.01
12.62
9.18
5.00
0.66
-3.29
-6.55
-9.10
-11.29
-13.63
-16.67
-20.73
-25.86
-31.59
-36.99
-40.83
-41.86
-39.26
-32.93
-23.58
-12.51
-1.18
9.19
17.81
24.36
28.80
31.20
31.66
30.36
27.65
24.05
20.22
16.78
14.14
12.46
11.60
11.26
11.14
11.03
10.85
10.60
10.29
9.80
8.97
7.59
5.52
2.75
-0.57
-4.18
-7.76
-11.09
-14.08
-16.86
-19.73
-23.07
-27.18
-32.07
-37.25
-41.76
-44.35
-43.88
-39.75
-32.12
-21.90
-10.42
0.95
11.21
19.74
26.33
30.91
33.45
33.96
32.60
29.78
26.13
22.42
19.27
17.05
15.81
15.34
15.32
15.42
15.45
15.36
15.20
15.03
14.84
14.46
13.59
11.92
9.29
5.80
1.78
-2.31
-6.08
-9.37
-12.27
-15.06
-18.07
-21.65
-26.00
-31.18
-36.90
-42.44
-46.70
-48.41
-46.54
-40.71
-31.37
-19.72
-7.36
4.26
14.11
21.77
27.28
30.91
32.93
33.57
32.96
31.31
28.93
26.24
23.73
21.73
20.35
19.40
18.53
17.39
15.83
13.97
12.17
10.75
9.86
9.31
8.71
7.60
5.72
3.11
0.05
-3.07
-5.97
-8.50
-10.73
-12.76
-14.73
-16.83
-19.24
-22.27
-26.18
-31.05
-36.53
-41.78
-45.57
-46.66
-44.20
-38.07
-28.94
-18.06
-6.88
3.38
11.92
18.43
22.95
25.71
27.03
27.15
26.35
24.86
22.97
20.95
19.09
17.60
16.60
16.04
15.80
15.71
15.64
15.54
15.41
15.21
14.86
14.20
13.13
11.56
9.54
7.18
4.62
1.99
-0.61
-3.15
-5.63
-8.12
-10.67
-13.32
-16.07
-18.90
-21.83
-25.00
-28.61
-32.78
-37.24
-41.30
-43.85
-43.72
-40.09
-32.89
-22.87
-11.36
0.18
10.53
19.02
25.44
29.92
32.60
33.64
33.14
31.31
28.52
25.25
22.08
19.51
17.87
17.24
17.46
18.21
19.06
19.61
19.58
18.90
17.65
16.02
14.20
12.30
10.36
8.28
5.97
3.37
0.47
-2.62
-5.74
-8.74
-11.49
-13.95
-16.19
-18.39
-20.78
-23.65
-27.15
-31.22
-35.45
-39.07
-41.08
-40.52
-36.81
-30.04
-21.00
-10.92
-1.12
7.39
14.17
19.21
22.74
24.95
25.83
25.32
23.40
20.34
16.72
13.24
10.51
8.86
8.18
8.14
8.29
8.37
8.28
8.17
8.20
8.40
8.63
8.58
7.93
6.43
4.07
1.03
-2.33
-5.67
-8.71
-11.32
-13.55
-15.57
-17.59
-19.84
-22.53
-25.79
-29.58
-33.59
-37.13
-39.24
-38.92
-35.48
-28.87
-19.76
-9.35
0.99
10.13
17.42
22.66
26.00
27.71
28.02
27.10
25.17
22.51
19.50
16.58
14.18
12.55
11.73
11.56
11.73
11.97
12.07
11.98
11.78
11.51
11.15
10.55
9.52
7.93
5.70
2.87
-0.41
-3.97
-7.60
-11.15
-14.45
-17.41
-20.00
-22.33
-24.68
-27.42
-30.85
-35.05
-39.66
-43.88
-46.58
-46.69
-43.48
-36.89
-27.53
-16.51
-5.13
5.48
14.51
21.60
26.69
29.91
31.46
31.56
30.41
28.29
25.56
22.65
19.99
17.89
16.46
15.58
14.98
14.40
13.69
12.84
11.98
11.20
10.47
9.63
8.44
6.69
4.32
1.42
-1.85
-5.25
-8.60
-11.80
-14.79
-17.57
-20.21
-22.78
-25.46
-28.43
-31.89
-35.90
-40.25
-44.35
-47.27
-47.93
-45.46
-39.57
-30.73
-20.06
-9.00
1.12
9.47
15.76
20.14
22.93
24.38
24.60
23.68
21.78
19.28
16.66
14.38
12.67
11.52
10.88
10.89
12.08
15.18
20.77
28.75
38.14
47.24
54.26
57.87
57.66
54.09
48.09
40.61
32.35
23.67
14.84
6.11
-2.20
-9.85
-16.84
-23.41
-29.98
-36.81
-43.82
-50.35
-55.30
-57.43
-55.82
-50.32
-41.60
-31.02
-20.07
-10.00
-1.49
5.36
10.68
14.67
17.33
18.58
18.41
16.98
14.71
12.15
9.88
8.27
7.50
7.53
8.11
8.96
9.80
10.46
10.91
11.19
11.33
11.28
10.93
10.10
8.70
6.72
4.32
1.72
-0.88
-3.37
-5.75
-8.12
-10.61
-13.40
-16.68
-20.56
-25.03
-29.77
-34.16
-37.26
-38.11
-36.02
-30.82
-23.04
-13.65
-3.88
5.20
12.88
18.83
23.02
25.50
26.37
25.74
23.78
20.86
17.45
14.09
11.21
9.08
7.77
7.13
6.95
7.04
7.25
7.51
7.84
8.19
8.46
8.40
7.76
6.35
4.14
1.35
-1.66
-4.49
-6.90
-8.82
-10.45
-12.13
-14.23
-17.02
-20.60
-24.84
-29.31
-33.29
-35.88
-36.21
-33.67
-28.17
-20.26
-10.93
-1.43
7.19
14.20
19.35
22.69
24.40
24.67
23.65
21.58
18.77
15.73
12.99
10.98
9.90
9.65
9.93
10.35
10.62
10.60
10.34
9.94
9.49
8.89
7.93
6.36
4.01
0.93
-2.63
-6.23
-9.48
-12.06
-13.93
-15.29
-16.56
-18.28
-20.92
-24.68
-29.32
-34.14
-38.06
-39.93
-38.92
-34.72
-27.70
-18.70
-8.81
0.93
9.72
16.99
22.44
25.95
27.54
27.45
26.08
23.96
21.61
19.50
17.83
16.61
15.71
14.92
14.11
13.26
12.45
11.70
11.00
10.22
9.15
7.64
5.58
2.98
-0.02
-3.22
-6.41
-9.37
-11.94
-14.05
-15.75
-17.31
-19.07
-21.47
-24.82
-29.16
-34.07
-38.68
-41.83
-42.37
-39.61
-33.51
-24.74
-14.46
-3.92
5.87
14.28
21.00
25.91
28.95
30.11
29.58
27.75
25.25
22.76
20.82
19.65
19.19
19.13
19.15
19.01
18.65
18.10
17.42
16.64
15.69
14.43
12.68
10.34
7.45
4.20
0.91
-2.12
-4.67
-6.78
-8.64
-10.57
-12.89
-15.82
-19.47
-23.78
-28.46
-32.91
-36.24
-37.40
-35.51
-30.19
-21.79
-11.37
-0.38
9.77
18.15
24.44
28.78
31.56
33.12
33.58
32.97
31.39
29.13
26.66
24.47
22.92
22.13
21.93
22.07
22.35
22.77
23.48
24.67
26.38
28.37
30.17
31.24
31.22
30.19
28.63
27.26
26.72
27.33
28.85
30.68
32.15
32.77
32.45
31.43
30.17
29.24
29.30
31.05
35.29
42.71
53.73
68.38
86.38
107.42
131.43
158.54
188.78
221.32
254.08
283.69
306.36
319.04
320.53
311.91
296.00
276.29
255.67
235.79
216.97
198.75
180.43
161.33
140.85
118.23
92.89
64.77
34.86
5.22
-21.58
-43.53
-60.11
-72.59
-83.39
-94.84
-108.21
-123.19
-138.25
-151.50
-161.45
-167.35
-169.09
-167.06
-162.03
-155.15
-147.81
-141.22
-135.92
-131.45
-126.50
-119.57
-109.80
-97.52
-84.29
-72.26
-63.40
-58.96
-59.30
-64.11
-72.80
-84.58
-98.39
-112.67
-125.36
-134.32
-137.94
-135.71
-128.46
-118.13
-107.20
-98.17
-93.21
-93.88
-101.01
-114.41
-132.64
-153.20
-173.11
-189.85
-202.13
-210.00
-214.33
-215.81
-214.41
-209.43
-200.25
-187.16
-171.55
-155.35
-139.85
-124.71
-107.87
-86.57
-58.98
-25.66
10.10
43.31
69.30
85.59
92.96
94.87
95.75
98.95
105.30
113.19
119.74
122.59
121.23
117.18
113.31
112.58
117.09
127.69
144.16
165.63
190.58
216.66
240.38
257.45
263.67
256.28
234.94
201.73
160.23
114.11
66.26
18.63
-27.19
-69.33
-105.53
-133.89
-153.92
-167.10
-176.29
-184.26
-192.05
-198.24
-199.89
-194.32
-180.98
-162.28
-142.61
-126.37
-116.00
-110.93
-108.40
-105.21
-99.59
-91.97
-84.65
-80.12
-79.53
-81.98
-84.94
-85.60
-82.12
-74.07
-62.02
-46.65
-28.24
-6.91
16.58
40.52
62.39
79.94
92.15
99.54
103.50
105.12
104.62
101.44
95.35
87.29
79.40
74.08
72.51
74.06
76.48
77.15
74.22
67.46
58.09
48.08
39.41
33.39
30.49
30.40
32.32
35.19
37.99
39.81
39.95
37.96
33.59
26.94
18.44
8.88
-0.78
-9.66
-17.19
-23.28
-28.18
-32.39
-36.39
-40.53
-45.06
-50.09
-55.56
-61.22
-66.61
-71.20
-74.60
-76.82
-78.32
-79.94
-82.54
-86.68
-92.23
-98.40
-103.84
-107.16
-107.39
-104.40
-98.95
-92.56
-86.89
-83.29
-82.17
-82.88
-83.92
-83.40
-79.62
-71.69
-59.71
-44.71
-28.27
-12.07
2.54
14.68
24.08
30.93
35.90
39.98
44.39
50.17
57.85
67.12
76.93
85.81
92.40
95.94
96.39
94.30
90.45
85.55
80.17
74.76
69.72
65.39
61.85
58.91
56.08
52.83
48.84
44.17
39.16
34.21
29.48
24.67
19.12
11.99
2.73
-8.68
-21.55
-34.59
-46.27
-55.17
-60.45
-62.04
-60.66
-57.61
-54.35
-52.18
-52.04
-54.36
-59.10
-65.78
-73.45
-80.81
-86.36
-88.82
-87.39
-82.01
-73.24
-62.10
-49.71
-37.07
-24.94
-13.86
-4.20
3.90
10.50
15.81
20.10
23.50
25.90
27.09
26.85
25.22
22.55
19.44
16.48
13.93
11.72
9.46
6.68
3.06
-1.46
-6.74
-12.47
-18.25
-23.52
-27.54
-29.47
-28.56
-24.47
-17.44
-8.24
2.04
12.32
21.78
29.90
36.37
40.99
43.57
44.05
42.62
39.68
35.88
31.83
28.02
24.64
21.74
19.27
17.19
15.63
14.70
14.61
15.39
16.91
18.80
20.56
21.66
21.69
20.52
18.23
15.14
11.60
7.90
4.15
0.30
-3.86
-8.67
-14.36
-21.00
-28.14
-34.85
-39.77
-41.53
-39.19
-32.64
-22.70
-10.93
0.81
10.78
17.69
20.81
20.05
15.80
8.98
0.97
-6.52
-11.68
-12.90
-9.27
-0.83
11.42
25.80
40.44
53.83
65.02
73.59
79.32
81.90
80.83
75.69
66.48
53.85
39.10
23.84
9.50
-3.05
-13.67
-22.81
-31.26
-39.77
-48.83
-58.46
-68.14
-76.83
-83.16
-85.74
-83.55
-76.30
-64.55
-49.54
-32.96
-16.46
-1.38
11.33
21.18
28.02
31.98
33.46
33.05
31.42
29.14
26.61
23.96
21.24
18.48
15.84
13.64
12.20
11.74
12.20
13.23
14.29
14.75
14.16
12.28
9.23
5.32
1.04
-3.17
-7.04
-10.60
-14.20
-18.41
-23.90
-31.03
-39.66
-48.84
-56.99
-62.19
-62.74
-57.75
-47.47
-33.23
-17.01
-0.89
13.54
25.45
34.68
41.49
46.16
48.87
49.66
48.66
46.15
42.66
38.82
35.17
32.03
29.45
27.33
25.55
24.05
22.88
22.07
21.56
21.09
20.23
18.50
15.59
11.48
6.54
1.37
-3.52
-7.93
-12.13
-16.75
-22.47
-29.71
-38.26
-47.17
-54.90
-59.69
-60.06
-55.28
-45.59
-32.18
-16.80
-1.28
12.87
24.76
34.06
40.79
45.06
47.03
46.89
44.94
41.64
37.52
33.15
28.99
25.39
22.59
20.74
19.83
19.74
20.15
20.60
20.61
19.79
17.97
15.21
11.78
8.01
4.15
0.28
-3.72
-8.17
-13.49
-20.03
-27.81
-36.35
-44.53
-50.80
-53.52
-51.43
-44.14
-32.28
-17.39
-1.42
13.74
26.72
36.81
43.89
48.18
50.05
49.89
48.06
44.95
40.94
36.46
31.90
27.69
24.16
21.49
19.68
18.49
17.56
16.52
15.10
13.24
11.01
8.52
5.82
2.86
-0.44
-4.21
-8.47
-13.30
-18.80
-25.13
-32.30
-39.93
-47.07
-52.23
-53.81
-50.57
-42.22
-29.58
-14.37
1.31
15.65
27.49
36.41
42.47
45.99
47.28
46.57
44.14
40.37
35.77
30.89
26.29
22.40
19.52
17.74
16.96
16.89
17.08
17.05
16.45
15.14
13.17
10.72
7.87
4.65
0.96
-3.26
-8.05
-13.45
-19.49
-26.19
-33.42
-40.76
-47.28
-51.67
-52.57
-48.99
-40.77
-28.71
-14.39
0.32
13.68
24.60
32.58
37.69
40.23
40.57
39.04
35.94
31.69
26.81
21.91
17.55
14.14
11.86
10.67
10.31
10.42
10.60
10.51
9.94
8.83
7.21
5.14
2.66
-0.24
-3.59
-7.43
-11.78
-16.69
-22.29
-28.59
-35.36
-41.86
-46.88
-48.97
-46.94
-40.30
-29.59
-16.21
-2.02
11.24
22.32
30.65
36.27
39.45
40.51
39.70
37.21
33.37
28.65
23.72
19.25
15.75
13.40
12.07
11.41
11.04
10.65
10.07
9.16
7.81
5.88
3.28
0.09
-3.47
-7.13
-10.70
-14.21
-17.94
-22.38
-27.97
-34.79
-42.39
-49.66
-55.03
-56.91
-54.21
-46.67
-35.04
-20.82
-5.80
8.33
20.42
29.86
36.51
40.47
41.93
41.17
38.58
34.71
30.26
25.89
22.08
19.09
16.89
15.31
14.21
13.48
13.10
13.00
12.97
12.67
11.70
9.82
7.00
3.46
-0.44
-4.33
-8.08
-11.83
-15.95
-20.95
-27.18
-34.65
-42.78
-50.44
-56.06
-58.12
-55.54
-48.11
-36.56
-22.36
-7.31
6.97
19.28
29.01
35.92
40.10
41.77
41.28
39.14
35.94
32.31
28.81
25.77
23.32
21.43
19.96
18.78
17.83
17.11
16.68
16.53
16.50
16.26
15.37
13.41
10.24
6.02
1.21
-3.59
-7.93
-11.66
-15.01
-18.47
-22.62
-27.94
-34.59
-42.23
-49.97
-56.43
-60.05
-59.50
-54.14
-44.19
-30.79
-15.62
-0.48
13.15
24.33
32.67
38.24
41.29
42.14
41.12
38.60
35.07
31.13
27.48
24.68
22.97
22.19
21.89
21.52
20.73
19.50
18.11
16.95
16.24
15.92
15.53
14.52
12.41
9.06
4.70
-0.14
-4.91
-9.24
-13.06
-16.56
-20.08
-23.95
-28.45
-33.74
-39.83
-46.44
-52.87
-57.96
-60.32
-58.69
-52.46
-41.91
-28.26
-13.25
1.32
14.08
24.28
31.72
36.59
39.19
39.85
38.89
36.67
33.62
30.20
26.88
24.09
22.11
21.00
20.64
20.68
20.74
20.55
20.05
19.38
18.78
18.33
17.87
17.01
15.26
12.34
8.33
3.64
-1.09
-5.34
-8.83
-11.66
-14.20
-16.94
-20.25
-24.38
-29.44
-35.31
-41.69
-47.91
-52.95
-55.57
-54.57
-49.29
-39.87
-27.40
-13.57
-0.22
11.21
19.97
26.07
29.90
31.97
32.57
31.81
29.73
26.59
22.90
19.38
16.65
15.03
14.44
14.46
14.64
14.70
14.62
14.58
14.71
14.97
15.06
14.52
13.00
10.30
6.56
2.21
-2.25
-6.33
-9.82
-12.76
-15.49
-18.45
-22.07
-26.56
-31.94
-37.90
-43.89
-49.01
-52.22
-52.47
-48.97
-41.54
-30.71
-17.69
-3.99
8.86
19.77
28.18
33.99
37.38
38.63
38.00
35.80
32.44
28.44
24.41
20.90
18.27
16.71
16.10
16.24
16.78
17.46
18.01
18.25
18.04
17.32
16.06
14.27
11.92
9.03
5.59
1.64
-2.73
-7.33
-11.96
-16.42
-20.60
-24.53
-28.36
-32.39
-36.96
-42.27
-48.28
-54.53
-60.14
-63.93
-64.63
-61.36
-53.86
-42.65
-28.93
-14.26
-0.18
12.14
22.05
29.40
34.31
37.07
37.93
37.16
35.06
32.12
28.93
26.12
24.18
23.24
23.14
23.44
23.70
23.62
23.15
22.47
21.74
21.07
20.36
19.34
17.68
15.13
11.63
7.32
2.50
-2.48
-7.32
-11.86
-16.10
-20.20
-24.45
-29.21
-34.81
-41.44
-48.91
-56.57
-63.32
-67.74
-68.54
-64.87
-56.68
-44.75
-30.45
-15.45
-1.25
11.02
20.76
27.83
32.41
34.89
35.70
35.27
33.92
31.92
29.54
27.10
24.93
23.33
22.46
22.25
22.47
22.79
22.97
22.94
22.72
22.33
21.67
20.45
18.34
15.10
10.75
5.60
0.14
-5.10
-9.83
-14.04
-17.99
-22.11
-26.79
-32.34
-38.81
-46.01
-53.46
-60.36
-65.68
-68.27
-67.21
-61.99
-52.81
-40.56
-26.59
-12.36
0.93
12.49
21.99
29.36
34.62
37.82
39.06
38.53
36.65
33.94
31.05
28.52
26.71
25.70
25.39
25.50
25.71
25.77
25.53
25.00
24.24
23.31
22.16
20.63
18.51
15.66
12.10
8.03
3.76
-0.42
-4.38
-8.14
-11.91
-16.06
-20.90
-26.69
-33.43
-40.88
-48.36
-54.98
-59.61
-61.26
-59.19
-53.18
-43.62
-31.41
-17.84
-4.26
8.12
18.51
26.50
32.05
35.31
36.48
35.85
33.77
30.76
27.44
24.38
21.98
20.34
19.36
18.80
18.49
18.31
18.23
18.18
18.06
17.66
16.76
15.15
12.71
9.42
5.38
0.83
-3.95
-8.70
-13.22
-17.47
-21.54
-25.64
-30.10
-35.23
-41.14
-47.70
-54.31
-59.98
-63.61
-64.25
-61.33
-54.76
-44.83
-32.13
-17.50
-2.12
12.51
24.75
33.26
37.41
37.51
34.68
30.35
25.76
21.63
18.19
15.40
13.27
11.94
11.58
12.28
13.80
15.72
17.43
18.39
18.20
16.71
14.04
10.44
6.26
1.82
-2.60
-6.82
-10.70
-14.17
-17.29
-20.29
-23.60
-27.70
-32.95
-39.25
-45.90
-51.67
-55.08
-54.84
-50.29
-41.66
-29.92
-16.56
-3.09
9.31
19.89
28.35
34.62
38.66
40.53
40.37
38.51
35.54
32.17
29.03
26.51
24.69
23.39
22.34
21.39
20.51
19.78
19.31
19.09
18.97
18.68
17.87
16.27
13.74
10.29
6.08
1.44
-3.31
-7.86
-12.04
-15.87
-19.57
-23.52
-28.18
-33.94
-40.82
-48.31
-55.34
-60.46
-62.25
-59.79
-52.95
-42.48
-29.70
-16.13
-3.07
8.67
18.72
27.03
33.66
38.62
41.82
43.22
42.87
41.08
38.39
35.43
32.77
30.72
29.34
28.49
28.02
27.79
27.74
27.80
27.78
27.37
26.23
24.09
20.86
16.62
11.65
6.34
1.03
-3.91
-8.29
-12.09
-15.52
-19.01
-23.11
-28.35
-34.92
-42.52
-50.26
-56.79
-60.63
-60.58
-56.11
-47.51
-35.81
-22.42
-8.73
4.19
15.63
25.25
32.83
38.21
41.28
42.13
41.07
38.71
35.81
33.11
31.12
30.01
29.70
29.90
30.32
30.76
31.17
31.55
31.87
32.05
31.88
31.14
29.65
27.38
24.44
21.05
17.50
13.96
10.46
6.83
2.78
-2.01
-7.80
-14.76
-22.93
-32.22
-42.23
-52.22
-61.07
-67.40
-69.98
-68.03
-61.56
-51.39
-38.90
-25.67
-13.00
-1.80
7.48
14.71
19.93
23.23
24.72
24.60
23.17
20.90
18.33
16.04
14.47
13.79
13.93
14.61
15.51
16.36
17.05
17.57
17.93
18.04
17.71
16.69
14.78
11.93
8.31
4.21
-0.08
-4.27
-8.32
-12.25
-16.26
-20.55
-25.29
-30.64
-36.67
-43.32
-50.15
-56.37
-60.75
-62.02
-59.22
-52.12
-41.33
-28.16
-14.18
-0.76
11.15
21.02
28.67
34.02
37.13
38.11
37.29
35.16
32.35
29.47
27.03
25.29
24.24
23.71
23.40
23.09
22.71
22.36
22.19
22.20
22.21
21.81
20.55
18.13
14.50
9.91
4.80
-0.43
-5.43
-10.07
-14.36
-18.42
-22.45
-26.70
-31.48
-37.03
-43.41
-50.29
-56.82
-61.79
-63.85
-62.01
-55.95
-46.14
-33.74
-20.20
-6.92
5.09
15.23
23.25
29.07
32.68
34.14
33.64
31.57
28.52
25.21
22.33
20.29
19.21
18.84
18.77
18.63
18.26
17.76
17.38
17.30
17.42
17.38
16.62
14.68
11.43
7.07
2.12
-2.89
-7.60
-11.93
-16.01
-20.11
-24.50
-29.44
-35.12
-41.59
-48.61
-55.52
-61.24
-64.45
-63.97
-59.23
-50.40
-38.43
-24.70
-10.71
2.34
13.62
22.74
29.59
34.22
36.79
37.49
36.59
34.44
31.49
28.25
25.19
22.71
20.96
19.92
19.40
19.17
19.06
19.04
19.17
19.43
19.67
19.48
18.40
16.04
12.34
7.62
2.50
-2.44
-6.81
-10.64
-14.23
-18.00
-22.31
-27.40
-33.32
-40.02
-47.13
-54.00
-59.57
-62.61
-62.05
-57.36
-48.75
-37.14
-23.89
-10.40
2.20
13.20
22.24
29.24
34.18
37.07
38.02
37.25
35.14
32.24
29.14
26.40
24.36
23.11
22.49
22.21
21.96
21.55
21.00
20.44
20.04
19.80
19.54
18.85
17.29
14.58
10.74
6.11
1.19
-3.56
-7.92
-11.96
-15.97
-20.31
-25.24
-30.90
-37.23
-43.97
-50.60
-56.29
-60.00
-60.68
-57.58
-50.54
-40.10
-27.39
-13.80
-0.61
11.20
21.01
28.53
33.66
36.50
37.29
36.44
34.47
31.96
29.39
27.17
25.50
24.39
23.75
23.41
23.20
23.00
22.79
22.62
22.47
22.26
21.77
20.72
18.85
16.04
12.33
7.96
3.28
-1.38
-5.76
-9.79
-13.59
-17.40
-21.59
-26.48
-32.27
-38.94
-46.10
-52.97
-58.42
-61.22
-60.31
-55.16
-45.98
-33.75
-19.89
-5.96
6.77
17.46
25.75
31.60
35.12
36.49
35.96
33.90
30.80
27.25
23.76
20.68
18.13
16.03
14.22
12.67
11.46
10.78
10.76
11.34
12.21
12.86
12.75
11.49
8.95
5.29
0.89
-3.75
-8.20
-12.13
-15.47
-18.35
-21.11
-24.18
-28.04
-33.00
-39.05
-45.77
-52.19
-57.01
-58.89
-56.85
-50.61
-40.71
-28.34
-14.96
-1.88
9.96
20.08
28.32
34.59
38.85
41.10
41.48
40.36
38.31
35.91
33.70
32.04
31.08
30.87
31.29
32.20
33.36
34.52
35.47
36.03
36.14
35.71
34.68
32.97
30.52
27.39
23.76
19.99
16.40
13.24
10.48
7.95
5.27
2.02
-2.18
-7.55
-14.00
-21.07
-27.83
-33.11
-35.73
-34.90
-30.49
-23.07
-13.84
-4.25
4.34
11.01
15.37
17.53
17.89
16.90
14.89
12.02
8.38
4.20
-0.06
-3.76
-6.35
-7.61
-7.93
-8.12
-9.18
-11.64
-15.32
-19.22
-21.93
-22.23
-19.72
-15.04
-9.70
-5.44
-3.53
-4.27
-6.72
-8.98
-8.43
-2.28
11.72
34.36
64.13
96.89
126.60
147.03
154.06
147.36
130.73
110.73
94.30
86.37
88.48
98.88
113.79
129.02
141.08
147.82
148.30
142.52
131.09
115.12
96.12
75.92
56.46
39.36
25.62
15.22
7.26
0.18
-7.47
-16.48
-26.58
-36.58
-44.97
-50.66
-53.51
-54.45
-55.13
-57.29
-62.05
-69.61
-79.12
-89.18
-98.22
-105.12
-109.40
-111.33
-111.70
-111.48
-111.51
-112.25
-113.71
-115.47
-116.75
-116.63
-114.13
-108.54
-99.53
-87.31
-72.64
-56.67
-40.66
-25.73
-12.69
-2.03
6.09
11.71
15.02
16.34
16.08
14.75
12.85
10.87
9.13
7.75
6.62
5.48
3.99
1.95
-0.68
-3.69
-6.81
-9.84
-12.78
-15.87
-19.47
-23.82
-28.93
-34.53
-40.17
-45.42
-50.10
-54.25
-58.20
-62.38
-67.15
-72.72
-79.02
-85.65
-91.78
-96.32
-98.07
-96.12
-90.11
-80.41
-68.01
-54.26
-40.46
-27.63
-16.47
-7.39
-0.70
3.45
5.09
4.53
2.42
-0.45
-3.27
-5.54
-7.06
-7.92
-8.36
-8.61
-8.81
-8.99
-9.14
-9.20
-9.26
-9.44
-9.94
-11.01
-12.76
-15.21
-18.16
-21.24
-23.98
-26.04
-27.27
-27.85
-28.29
-29.20
-31.17
-34.48
-38.90
-43.65
-47.50
-48.99
-46.96
-40.83
-30.86
-18.14
-4.18
9.46
21.59
31.53
39.03
44.06
46.67
47.00
45.30
42.11
38.15
34.19
30.78
28.16
26.22
24.67
23.26
21.95
20.89
20.32
20.39
20.93
21.53
21.63
20.73
18.60
15.34
11.35
7.13
3.11
-0.50
-3.75
-6.95
-10.51
-14.85
-20.21
-26.51
-33.24
-39.49
-44.07
-45.81
-43.93
-38.25
-29.23
-17.91
-5.53
6.70
17.73
26.84
33.60
37.82
39.60
39.24
37.25
34.20
30.59
26.85
23.25
19.96
17.12
14.85
13.26
12.38
12.15
12.37
12.74
12.93
12.63
11.62
9.81
7.25
4.09
0.59
-3.03
-6.61
-10.10
-13.67
-17.68
-22.50
-28.38
-35.12
-41.94
-47.55
-50.48
-49.59
-44.42
-35.37
-23.58
-10.48
2.57
14.52
24.68
32.66
38.17
41.09
41.47
39.65
36.23
31.99
27.67
23.84
20.78
18.51
16.88
15.75
15.05
14.77
14.86
15.17
15.35
14.99
13.73
11.44
8.26
4.51
0.56
-3.31
-7.06
-10.81
-14.81
-19.38
-24.73
-30.93
-37.68
-44.27
-49.58
-52.27
-51.23
-45.92
-36.65
-24.58
-11.30
1.58
12.86
21.94
28.77
33.56
36.57
37.99
37.95
36.59
34.19
31.12
27.83
24.73
22.14
20.26
19.14
18.69
18.65
18.68
18.44
17.65
16.21
14.16
11.63
8.81
5.80
2.65
-0.70
-4.35
-8.42
-13.08
-18.44
-24.52
-31.04
-37.29
-42.12
-44.19
-42.40
-36.31
-26.38
-13.96
-0.80
11.47
21.74
29.60
35.14
38.68
40.45
40.57
39.14
36.36
32.62
28.43
24.34
20.78
18.03
16.17
15.16
14.81
14.84
14.92
14.71
13.97
12.58
10.51
7.80
4.55
0.84
-3.20
-7.45
-11.86
-16.52
-21.65
-27.49
-33.97
-40.53
-46.01
-48.93
-47.95
-42.42
-32.68
-19.98
-6.12
7.19
18.74
27.95
34.72
39.19
41.49
41.75
40.21
37.29
33.63
29.91
26.68
24.18
22.36
21.03
19.98
19.16
18.62
18.45
18.57
18.76
18.63
17.78
15.96
13.11
9.44
5.28
1.02
-3.09
-6.99
-10.86
-15.09
-20.11
-26.13
-32.91
-39.60
-44.88
-47.33
-45.94
-40.45
-31.50
-20.30
-8.23
3.51
14.18
23.30
30.61
35.87
38.96
39.91
39.04
36.86
34.01
31.03
28.29
25.99
24.20
22.92
22.12
21.76
21.73
21.87
21.97
21.81
21.19
19.96
18.03
15.36
12.02
8.16
4.02
-0.11
-4.02
-7.61
-11.02
-14.61
-18.86
-24.21
-30.81
-38.26
-45.57
-51.32
-53.99
-52.44
-46.33
-36.21
-23.42
-9.67
3.44
14.79
23.83
30.48
34.88
37.22
37.66
36.42
33.90
30.69
27.51
24.99
23.45
22.84
22.80
22.89
22.78
22.43
22.03
21.81
21.86
21.97
21.67
20.42
17.89
14.11
9.48
4.63
0.12
-3.74
-6.99
-9.95
-13.11
-16.92
-21.69
-27.48
-33.98
-40.44
-45.78
-48.73
-48.25
-43.83
-35.66
-24.68
-12.20
0.40
11.94
21.64
29.07
34.10
36.79
37.38
36.26
33.91
30.88
27.70
24.84
22.60
21.10
20.26
19.90
19.80
19.83
19.94
20.15
20.39
20.47
20.01
18.64
16.07
12.28
7.56
2.38
-2.72
-7.35
-11.39
-15.04
-18.70
-22.88
-28.03
-34.31
-41.51
-48.94
-55.53
-60.00
-61.17
-58.28
-51.22
-40.54
-27.37
-13.10
0.93
13.66
24.45
32.98
39.18
43.13
44.95
44.89
43.31
40.72
37.76
35.05
33.09
32.10
32.02
32.58
33.39
34.14
34.74
35.24
35.81
36.51
37.25
37.72
37.52
36.26
33.69
29.78
24.64
18.48
11.52
3.93
-4.12
-12.51
-21.15
-30.01
-39.10
-48.38
-57.53
-65.89
-72.41
-75.86
-75.27
-70.20
-60.97
-48.60
-34.53
-20.21
-6.85
4.69
13.91
20.59
24.73
26.55
26.52
25.29
23.55
21.90
20.69
20.01
19.78
19.88
20.26
20.93
21.96
23.35
25.00
26.70
28.26
29.51
30.34
30.61
30.14
28.74
26.28
22.78
18.43
13.60
8.66
3.88
-0.66
-5.13
-9.88
-15.31
-21.67
-28.98
-36.82
-44.43
-50.74
-54.68
-55.43
-52.56
-46.21
-36.93
-25.59
-13.23
-0.85
10.63
20.49
28.20
33.47
36.25
36.71
35.23
32.31
28.53
24.49
20.73
17.71
15.71
14.80
14.82
15.47
16.35
17.13
17.58
17.66
17.34
16.55
15.13
12.86
9.59
5.36
0.48
-4.58
-9.38
-13.65
-17.41
-20.91
-24.51
-28.54
-33.25
-38.74
-44.92
-51.46
-57.69
-62.65
-65.16
-64.21
-59.27
-50.51
-38.84
-25.60
-12.26
0.05
10.59
19.09
25.45
29.72
31.93
32.21
30.85
28.34
25.28
22.20
19.51
17.36
15.74
14.61
13.89
13.52
13.43
13.51
13.60
13.54
13.22
12.56
11.52
10.00
7.90
5.10
1.60
-2.45
-6.79
-11.11
-15.27
-19.30
-23.40
-27.90
-33.08
-39.11
-45.92
-53.18
-60.21
-66.08
-69.68
-70.03
-66.47
-58.89
-47.87
-34.52
-20.27
-6.52
5.60
15.49
22.96
28.17
31.33
32.62
32.12
30.00
26.61
22.58
18.68
15.61
13.73
12.97
12.96
13.24
13.50
13.62
13.67
13.69
13.58
13.11
11.98
9.98
7.13
3.65
-0.11
-3.84
-7.31
-10.52
-13.58
-16.68
-19.94
-23.35
-26.85
-30.37
-33.92
-37.58
-41.26
-44.63
-46.95
-47.24
-44.57
-38.41
-28.90
-16.78
-3.24
10.44
23.19
34.22
43.11
49.71
54.03
56.24
56.61
55.51
53.34
50.49
47.30
44.07
40.96
38.13
35.68
33.68
32.16
31.07
30.25
29.48
28.47
26.96
24.84
22.12
18.96
15.49
11.81
7.90
3.70
-0.88
-5.79
-10.90
-15.99
-20.88
-25.50
-29.89
-34.24
-38.84
-43.92
-49.68
-55.98
-62.34
-67.81
-71.23
-71.47
-67.82
-60.27
-49.52
-36.74
-23.25
-10.16
1.73
11.93
20.14
26.16
29.89
31.46
31.20
29.67
27.49
25.23
23.26
21.74
20.73
20.19
20.08
20.34
20.87
21.54
22.11
22.37
22.16
21.36
19.94
17.92
15.33
12.18
8.44
4.17
-0.51
-5.37
-10.14
-14.58
-18.60
-22.35
-26.12
-30.36
-35.46
-41.60
-48.59
-55.72
-61.87
-65.76
-66.23
-62.70
-55.26
-44.71
-32.26
-19.16
-6.56
4.79
14.42
22.09
27.77
31.51
33.47
33.88
33.07
31.39
29.31
27.21
25.49
24.38
23.93
24.03
24.47
25.01
25.41
25.55
25.35
24.80
23.87
22.52
20.64
18.12
14.83
10.79
6.08
0.96
-4.27
-9.31
-13.99
-18.30
-22.45
-26.77
-31.61
-37.23
-43.62
-50.44
-56.95
-62.17
-65.00
-64.49
-60.12
-51.92
-40.57
-27.21
-13.25
0.01
11.60
21.01
28.17
33.22
36.39
37.90
37.93
36.75
34.74
32.35
30.07
28.22
26.95
26.18
25.67
25.13
24.27
22.86
20.84
18.22
15.20
11.94
8.65
5.38
2.09
-1.32
-4.94
-8.78
-12.75
-16.72
-20.58
-24.25
-27.75
-31.08
-34.29
-37.46
-40.82
-44.69
-49.42
-55.11
-61.42
-67.40
-71.72
-72.94
-70.07
-62.90
-52.13
-39.03
-25.12
-11.75
0.23
10.37
18.59
24.97
29.64
32.74
34.47
35.06
34.86
34.26
33.63
33.29
33.42
34.03
35.02
36.20
37.36
38.32
38.94
39.09
38.65
37.57
35.82
33.45
30.55
27.20
23.45
19.32
14.79
9.87
4.64
-0.76
-6.12
-11.22
-15.89
-20.18
-24.31
-28.73
-33.83
-39.75
-46.12
-51.99
-56.07
-57.06
-54.13
-47.17
-36.80
-24.17
-10.59
2.76
14.94
25.28
33.32
38.79
41.68
42.23
40.94
38.49
35.59
32.86
30.72
29.38
28.89
29.13
29.93
31.01
32.14
33.07
33.64
33.72
33.20
32.02
30.07
27.31
23.74
19.43
14.55
9.33
3.99
-1.26
-6.28
-11.01
-15.45
-19.74
-24.13
-28.93
-34.52
-41.07
-48.39
-55.73
-61.90
-65.49
-65.30
-60.73
-51.98
-40.00
-26.19
-12.03
1.20
12.57
21.51
27.77
31.34
32.44
31.50
29.13
26.02
22.84
20.10
18.13
17.02
16.74
17.13
18.01
19.19
20.46
21.58
22.34
22.56
22.17
21.17
19.63
17.57
15.00
11.83
8.07
3.81
-0.76
-5.40
-9.91
-14.22
-18.43
-22.78
-27.54
-33.01
-39.35
-46.48
-53.93
-60.82
-65.98
-68.20
-66.57
-60.77
-51.19
-38.78
-24.85
-10.71
2.54
14.12
23.59
30.82
35.85
38.89
40.25
40.25
39.21
37.47
35.37
33.23
31.37
30.03
29.27
29.04
29.13
29.28
29.22
28.74
27.75
26.26
24.32
21.96
19.21
16.00
12.28
7.98
3.20
-1.90
-7.05
-11.99
-16.56
-20.77
-24.76
-28.78
-33.11
-37.99
-43.61
-49.92
-56.56
-62.71
-67.21
-68.78
-66.38
-59.63
-48.92
-35.39
-20.57
-5.98
7.19
18.25
26.94
33.33
37.63
40.12
41.05
40.70
39.34
37.34
35.08
32.94
31.22
30.08
29.52
29.40
29.57
29.83
29.99
29.89
29.34
28.20
26.41
24.04
21.24
18.19
15.00
11.66
8.07
4.08
-0.34
-5.14
-10.14
-15.16
-20.09
-24.92
-29.84
-35.13
-41.05
-47.64
-54.48
-60.69
-65.01
-66.15
-63.21
-56.01
-45.10
-31.63
-17.01
-2.57
10.64
21.88
30.65
36.67
39.84
40.33
38.59
35.33
31.34
27.38
23.98
21.36
19.52
18.32
17.66
17.45
17.64
18.11
18.70
19.21
19.48
19.39
18.87
17.78
15.92
13.08
9.15
4.27
-1.24
-6.91
-12.33
-17.29
-21.83
-26.18
-30.69
-35.65
-41.28
-47.60
-54.39
-61.05
-66.71
-70.23
-70.57
-67.00
-59.43
-48.40
-35.00
-20.52
-6.22
6.90
18.15
27.16
33.72
37.84
39.69
39.61
38.05
35.53
32.54
29.53
26.84
24.72
23.32
22.67
22.65
23.07
23.62
24.01
24.00
23.51
22.53
21.11
19.25
16.86
13.84
10.11
5.73
0.92
-4.03
-8.84
-13.36
-17.60
-21.74
-26.03
-30.75
-36.13
-42.32
-49.24
-56.42
-63.01
-67.83
-69.67
-67.64
-61.48
-51.59
-38.93
-24.79
-10.44
3.00
14.71
24.20
31.26
35.92
38.41
39.07
38.25
36.40
33.98
31.47
29.31
27.85
27.16
27.12
27.46
27.86
28.06
27.90
27.33
26.34
24.95
23.12
20.82
17.99
14.56
10.58
6.17
1.54
-3.05
-7.40
-11.39
-15.06
-18.55
-22.08
-25.95
-30.48
-35.89
-42.16
-48.80
-54.88
-59.09
-60.17
-57.23
-50.13
-39.51
-26.57
-12.76
0.64
12.71
22.89
30.98
36.89
40.61
42.24
41.95
40.09
37.19
33.85
30.64
27.98
26.06
24.88
24.29
24.06
23.99
23.91
23.70
23.23
22.41
21.15
19.35
16.95
13.91
10.23
5.98
1.33
-3.54
-8.43
-13.16
-17.63
-21.86
-26.00
-30.26
-34.94
-40.22
-46.06
-52.06
-57.41
-61.02
-61.84
-59.15
-52.84
-43.41
-31.84
-19.25
-6.67
5.13
15.57
24.22
30.72
34.86
36.64
36.38
34.60
31.96
29.07
26.36
24.08
22.29
21.01
20.14
19.61
19.34
19.26
19.38
19.61
19.82
19.77
19.15
17.69
15.22
11.76
7.46
2.59
-2.56
-7.69
-12.56
-17.05
-21.22
-25.37
-29.99
-35.53
-42.19
-49.63
-56.90
-62.64
-65.45
-64.34
-59.04
-50.05
-38.43
-25.46
-12.28
0.25
11.56
21.22
28.84
34.14
36.97
37.51
36.23
33.83
31.06
28.49
26.42
24.88
23.75
22.88
22.17
21.62
21.26
21.06
20.91
20.57
19.81
18.36
16.08
12.96
9.08
4.62
-0.20
-5.17
-10.06
-14.74
-19.14
-23.38
-27.76
-32.75
-38.80
-46.12
-54.36
-62.58
-69.33
-73.05
-72.52
-67.28
-57.74
-45.02
-30.61
-15.88
-1.98
10.36
20.63
28.53
33.84
36.53
36.81
35.15
32.23
28.82
25.63
23.14
21.59
20.99
21.20
22.02
23.25
24.68
26.14
27.45
28.44
28.94
28.88
28.26
27.15
25.67
23.95
22.02
19.82
17.19
13.92
9.91
5.12
-0.34
-6.32
-12.64
-19.13
-25.53
-31.45
-36.35
-39.61
-40.75
-39.53
-36.12
-30.99
-24.75
-17.92
-10.76
-3.28
4.65
12.99
21.41
29.12
35.14
38.56
39.00
36.74
32.66
27.89
23.38
19.62
16.61
14.09
11.82
9.80
8.18
7.14
6.64
6.35
5.77
4.36
1.81
-1.92
-6.53
-11.54
-16.46
-20.94
-24.88
-28.41
-31.79
-35.34
-39.34
-44.02
-49.52
-55.78
-62.44
-68.68
-73.26
-74.81
-72.22
-65.07
-53.81
-39.64
-24.13
-8.76
5.39
17.69
27.85
35.70
41.13
44.16
44.96
44.01
42.00
39.65
37.52
35.88
34.75
34.01
33.54
33.28
33.25
33.47
33.90
34.36
34.57
34.16
32.80
30.20
26.29
21.21
15.30
9.00
2.72
-3.27
-8.89
-14.28
-19.70
-25.48
-31.92
-39.15
-47.02
-54.82
-61.42
-65.44
-65.62
-61.35
-52.78
-40.85
-26.94
-12.55
1.07
12.95
22.38
28.92
32.38
32.84
30.76
26.94
22.34
17.91
14.27
11.67
9.91
8.58
7.29
5.85
4.42
3.35
3.00
3.43
4.34
5.09
5.07
3.95
1.86
-0.68
-3.04
-4.74
-5.74
-6.43
-7.48
-9.62
-13.41
-19.15
-26.69
-35.44
-44.24
-51.56
-55.75
-55.49
-50.20
-40.25
-26.86
-11.70
3.57
17.67
29.79
39.57
46.85
51.61
53.89
53.89
51.99
48.77
44.94
41.13
37.84
35.30
33.45
32.09
31.00
30.05
29.29
28.82
28.62
28.48
27.88
26.22
23.05
18.32
12.43
6.15
0.28
-4.65
-8.48
-11.49
-14.21
-17.28
-21.25
-26.55
-33.39
-41.55
-50.34
-58.55
-64.61
-67.03
-64.84
-57.90
-46.98
-33.48
-19.01
-5.01
7.54
18.08
26.39
32.42
36.26
38.10
38.24
37.11
35.24
33.14
31.27
29.94
29.22
28.96
28.88
28.69
28.27
27.68
27.11
26.71
26.41
25.86
24.51
21.88
17.76
12.34
6.16
-0.15
-6.11
-11.48
-16.38
-21.15
-26.19
-31.90
-38.52
-46.12
-54.41
-62.65
-69.66
-73.99
-74.28
-69.68
-60.21
-46.77
-30.93
-14.44
1.13
14.77
25.97
34.66
40.92
44.90
46.68
46.47
44.61
41.68
38.33
35.20
32.70
30.94
29.76
28.85
27.98
27.02
26.01
25.07
24.26
23.48
22.53
21.07
18.80
15.49
11.16
6.01
0.40
-5.26
-10.67
-15.66
-20.28
-24.70
-29.23
-34.24
-40.04
-46.75
-54.04
-61.13
-66.74
-69.44
-68.07
-62.08
-51.77
-38.20
-22.84
-7.21
7.48
20.35
30.91
38.91
44.24
46.92
47.15
45.33
42.07
38.10
34.15
30.74
28.14
26.30
24.94
23.78
22.67
21.63
20.80
20.28
19.98
19.60
18.70
16.88
13.94
9.94
5.21
0.13
-4.90
-9.68
-14.18
-18.49
-22.80
-27.31
-32.26
-37.85
-44.22
-51.25
-58.39
-64.61
-68.56
-68.91
-64.81
-56.27
-44.12
-29.87
-15.15
-1.35
10.71
20.71
28.68
34.74
38.93
41.22
41.63
40.39
38.01
35.16
32.54
30.56
29.34
28.67
28.24
27.85
27.47
27.24
27.22
27.38
27.45
27.06
25.87
23.66
20.36
15.99
10.62
4.32
-2.75
-10.32
-17.97
-25.26
-31.82
-37.49
-42.45
-47.07
-51.86
-57.14
-62.86
-68.41
-72.70
-74.39
-72.36
-66.06
-55.71
-42.31
-27.28
-12.11
2.10
14.66
25.23
33.65
39.81
43.64
45.22
44.87
43.13
40.63
37.93
35.43
33.32
31.63
30.35
29.41
28.74
28.21
27.63
26.83
25.70
24.19
22.32
20.09
17.47
14.38
10.70
6.38
1.45
-3.95
-9.61
-15.26
-20.71
-25.88
-30.86
-35.88
-41.28
-47.40
-54.41
-62.09
-69.70
-75.97
-79.40
-78.62
-72.79
-61.97
-47.05
-29.56
-11.30
6.08
21.35
33.78
43.09
49.41
53.06
54.52
54.27
52.79
50.51
47.87
45.22
42.83
40.86
39.28
37.99
36.86
35.79
34.74
33.75
32.79
31.80
30.59
28.91
26.46
23.04
18.60
13.24
7.26
1.03
-5.07
-10.77
-15.94
-20.63
-25.04
-29.46
-34.25
-39.72
-46.03
-52.96
-59.83
-65.49
-68.60
-67.99
-63.08
-54.12
-42.03
-28.24
-14.13
-0.85
10.88
20.67
28.35
33.84
37.15
38.38
37.75
35.67
32.67
29.32
26.16
23.61
21.81
20.64
19.74
18.65
17.05
14.92
12.57
10.49
9.09
8.49
8.45
8.43
7.87
6.38
3.91
0.63
-3.18
-7.34
-11.81
-16.62
-21.79
-27.24
-32.90
-38.74
-44.76
-50.89
-56.77
-61.58
-64.20
-63.53
-58.91
-50.48
-39.11
-26.16
-12.99
-0.64
10.31
19.59
27.08
32.58
35.91
37.00
36.01
33.42
29.94
26.38
23.40
21.37
20.27
19.78
19.49
19.08
18.52
17.97
17.64
17.60
17.61
17.23
15.91
13.34
9.53
4.83
-0.19
-5.04
-9.45
-13.44
-17.23
-21.18
-25.61
-30.76
-36.80
-43.64
-50.85
-57.55
-62.53
-64.45
-62.28
-55.74
-45.36
-32.44
-18.57
-5.20
6.72
16.75
24.84
31.03
35.37
37.86
38.57
37.71
35.66
32.87
29.80
26.82
24.18
22.00
20.36
19.23
18.55
18.22
18.09
18.01
17.77
17.18
16.05
14.27
11.82
8.76
5.24
1.39
-2.65
-6.82
-11.04
-15.38
-19.90
-24.84
-30.46
-37.02
-44.56
-52.73
-60.76
-67.51
-71.74
-72.40
-68.94
-61.43
-50.54
-37.41
-23.29
-9.35
3.50
14.71
23.95
31.07
36.03
38.88
39.77
39.03
37.13
34.65
32.14
29.97
28.32
27.16
26.36
25.75
25.24
24.80
24.39
23.97
23.40
22.49
21.01
18.77
15.65
11.71
7.14
2.19
-2.82
-7.71
-12.43
-17.05
-21.77
-26.82
-32.48
-38.96
-46.29
-54.11
-61.55
-67.28
-69.87
-68.19
-61.89
-51.50
-38.27
-23.74
-9.32
4.01
15.67
25.32
32.73
37.74
40.36
40.83
39.61
37.35
34.70
32.19
30.21
28.90
28.24
28.07
28.16
28.31
28.40
28.38
28.22
27.79
26.85
25.11
22.31
18.38
13.46
7.90
2.13
-3.47
-8.67
-13.42
-17.88
-22.34
-27.21
-32.86
-39.56
-47.25
-55.42
-63.03
-68.68
-70.92
-68.73
-61.82
-50.76
-36.88
-21.75
-6.89
6.58
18.02
27.15
33.86
38.12
40.01
39.78
37.93
35.16
32.20
29.67
27.90
26.87
26.31
25.91
25.42
24.79
24.12
23.54
23.15
22.80
22.22
20.99
18.81
15.53
11.29
6.44
1.41
-3.44
-7.97
-12.26
-16.52
-20.98
-25.97
-31.73
-38.44
-45.96
-53.71
-60.54
-64.99
-65.62
-61.54
-52.78
-40.22
-25.41
-10.02
4.51
17.20
27.52
35.29
40.52
43.36
44.06
43.01
40.70
37.70
34.60
31.93
30.01
28.92
28.48
28.33
28.08
27.55
26.73
25.85
25.06
24.39
23.58
22.14
19.65
15.89
11.06
5.64
0.23
-4.77
-9.31
-13.69
-18.40
-23.87
-30.36
-37.85
-46.04
-54.27
-61.64
-66.90
-68.84
-66.47
-59.48
-48.38
-34.38
-19.07
-3.97
9.75
21.41
30.70
37.50
41.84
43.85
43.81
42.20
39.60
36.64
33.87
31.72
30.40
29.93
30.10
30.55
30.86
30.72
30.02
28.81
27.25
25.41
23.25
20.55
17.14
12.91
8.00
2.66
-2.81
-8.16
-13.28
-18.16
-22.90
-27.69
-32.78
-38.50
-45.12
-52.68
-60.79
-68.55
-74.62
-77.56
-76.17
-69.95
-59.23
-45.12
-29.18
-13.01
2.09
15.28
26.14
34.56
40.54
44.17
45.64
45.27
43.57
41.16
38.70
36.71
35.45
34.88
34.72
34.65
34.40
33.88
33.08
32.09
30.92
29.55
27.87
25.74
23.03
19.61
15.44
10.60
5.26
-0.25
-5.63
-10.65
-15.30
-19.77
-24.39
-29.53
-35.50
-42.44
-50.22
-58.27
-65.60
-70.82
-72.56
-69.76
-62.17
-50.38
-35.71
-19.79
-4.18
9.95
21.93
31.44
38.41
42.88
45.02
45.12
43.58
40.93
37.77
34.65
32.05
30.22
29.22
28.88
28.97
29.21
29.45
29.60
29.60
29.32
28.59
27.21
25.04
22.01
18.08
13.40
8.13
2.57
-2.95
-8.08
-12.63
-16.62
-20.28
-24.06
-28.40
-33.67
-40.00
-47.17
-54.54
-61.01
-65.24
-65.91
-62.20
-54.09
-42.35
-28.34
-13.59
0.58
13.28
23.98
32.39
38.32
41.69
42.52
41.09
37.93
33.76
29.42
25.68
23.14
22.05
22.27
23.38
24.79
25.99
26.68
26.81
26.49
25.78
24.60
22.72
19.85
15.83
10.73
4.87
-1.26
-7.19
-12.61
-17.44
-21.87
-26.28
-31.10
-36.73
-43.44
-51.21
-59.69
-68.08
-75.19
-79.68
-80.32
-76.43
-68.05
-55.94
-41.38
-25.84
-10.58
3.42
15.59
25.61
33.30
38.63
41.67
42.62
41.87
39.90
37.22
34.36
31.72
29.61
28.18
27.44
27.32
27.64
28.24
28.97
29.74
30.40
30.73
30.36
28.81
25.64
20.67
14.14
6.66
-0.91
-7.81
-13.65
-18.53
-22.93
-27.56
-33.03
-39.72
-47.70
-56.63
-65.80
-74.11
-80.14
-82.47
-80.02
-72.40
-60.15
-44.57
-27.37
-10.25
5.53
19.17
30.34
38.92
44.93
48.45
49.70
49.07
47.08
44.30
41.25
38.36
35.91
34.07
32.85
32.15
31.76
31.47
31.07
30.42
29.45
28.03
26.04
23.34
19.88
15.73
11.10
6.27
1.46
-3.27
-7.94
-12.61
-17.24
-21.72
-25.98
-30.14
-34.60
-39.89
-46.40
-53.99
-61.81
-68.30
-71.74
-70.76
-64.85
-54.57
-41.31
-26.75
-12.42
0.63
11.88
21.19
28.49
33.74
36.89
38.01
37.37
35.44
32.82
30.07
27.60
25.61
24.13
23.12
22.50
22.16
22.02
21.98
21.87
21.54
20.85
19.66
17.85
15.32
12.10
8.27
4.06
-0.29
-4.57
-8.70
-12.68
-16.66
-20.88
-25.59
-31.12
-37.62
-45.06
-52.97
-60.43
-66.15
-68.77
-67.27
-61.29
-51.23
-38.19
-23.60
-8.86
4.95
17.14
27.38
35.54
41.55
45.37
47.06
46.83
45.11
42.50
39.58
36.81
34.42
32.38
30.53
28.72
26.91
25.21
23.83
22.90
22.36
21.88
20.96
19.11
16.03
11.76
6.64
1.25
-3.93
-8.61
-12.80
-16.79
-20.94
-25.61
-31.00
-37.25
-44.23
-51.61
-58.60
-64.06
-66.66
-65.27
-59.39
-49.42
-36.55
-22.39
-8.49
4.08
14.76
23.39
29.99
34.54
37.05
37.61
36.56
34.38
31.72
29.18
27.17
25.86
25.13
24.75
24.44
24.00
23.31
22.28
20.79
18.61
15.55
11.53
6.73
1.55
-3.47
-7.89
-11.51
-14.39
-16.83
-19.17
-21.73
-24.72
-28.27
-32.54
-37.69
-43.83
-50.90
-58.40
-65.40
-70.57
-72.51
-70.15
-63.12
-51.93
-37.86
-22.52
-7.48
6.20
17.98
27.72
35.42
41.04
44.42
45.46
44.33
41.56
37.96
34.45
31.70
29.97
29.10
28.68
28.30
27.76
27.09
26.41
25.80
25.21
24.40
23.14
21.23
18.58
15.18
11.08
6.38
1.23
-4.12
-9.39
-14.32
-18.85
-23.16
-27.71
-32.99
-39.36
-46.76
-54.59
-61.71
-66.68
-68.14
-65.17
-57.64
-46.21
-32.17
-17.08
-2.34
11.01
22.36
31.40
37.97
42.06
43.74
43.31
41.30
38.40
35.32
32.61
30.57
29.19
28.26
27.47
26.59
25.55
24.48
23.58
23.04
22.82
22.62
21.98
20.36
17.42
13.08
7.65
1.65
-4.30
-9.67
-14.20
-17.87
-20.96
-23.92
-27.31
-31.62
-37.18
-43.89
-51.14
-57.77
-62.29
-63.30
-59.91
-52.13
-40.78
-27.35
-13.37
-0.15
11.51
21.22
28.80
34.15
37.21
38.08
37.10
34.86
32.02
29.16
26.71
24.82
23.53
22.77
22.49
22.65
23.16
23.88
24.61
25.09
25.06
24.28
22.59
19.94
16.38
12.11
7.34
2.35
-2.63
-7.44
-12.05
-16.58
-21.31
-26.65
-32.96
-40.37
-48.56
-56.72
-63.57
-67.67
-67.77
-63.23
-54.21
-41.64
-26.97
-11.75
2.68
15.45
26.11
34.49
40.53
44.17
45.41
44.41
41.63
37.76
33.62
29.93
27.08
25.12
23.84
22.93
22.13
21.36
20.63
19.99
19.40
18.68
17.54
15.63
12.72
8.75
3.86
-1.55
-7.10
-12.39
-17.22
-21.61
-25.80
-30.16
-35.15
-41.11
-48.18
-56.09
-64.08
-70.95
-75.23
-75.60
-71.25
-62.21
-49.35
-34.13
-18.24
-3.09
10.33
21.59
30.57
37.27
41.70
43.88
43.94
42.28
39.54
36.40
33.45
31.04
29.22
27.87
26.84
26.04
25.41
24.95
24.59
24.19
23.54
22.35
20.34
17.35
13.33
8.43
2.99
-2.56
-7.85
-12.63
-16.88
-20.81
-24.85
-29.54
-35.32
-42.46
-50.75
-59.41
-67.15
-72.44
-73.86
-70.62
-62.73
-50.97
-36.68
-21.33
-6.26
7.55
19.42
28.95
35.93
40.33
42.36
42.40
40.99
38.72
36.08
33.42
30.93
28.70
26.81
25.40
24.55
24.32
24.59
25.06
25.33
25.00
23.72
21.26
17.53
12.61
6.76
0.45
-5.74
-11.20
-15.56
-18.81
-21.32
-23.80
-27.09
-31.89
-38.52
-46.67
-55.29
-62.80
-67.42
-67.74
-63.14
-53.97
-41.40
-26.98
-12.16
1.95
14.62
25.36
33.78
39.54
42.50
42.84
41.09
38.06
34.58
31.34
28.72
26.81
25.52
24.71
24.30
24.26
24.59
25.22
25.94
26.40
26.19
24.97
22.55
18.91
14.24
8.90
3.30
-2.12
-7.10
-11.59
-15.82
-20.25
-25.42
-31.73
-39.22
-47.41
-55.32
-61.56
-64.68
-63.55
-57.73
-47.59
-34.27
-19.33
-4.31
9.61
21.70
31.54
38.87
43.50
45.36
44.68
42.06
38.37
34.54
31.28
28.94
27.47
26.65
26.17
25.78
25.38
24.95
24.53
24.13
23.67
22.91
21.50
19.06
15.37
10.46
4.64
-1.59
-7.72
-13.40
-18.56
-23.36
-28.19
-33.54
-39.82
-47.25
-55.62
-64.12
-71.46
-76.06
-76.44
-71.73
-62.01
-48.21
-32.01
-15.20
0.64
14.46
25.81
34.58
40.90
44.84
46.52
46.17
44.24
41.42
38.50
36.21
34.89
34.47
34.53
34.54
34.12
33.20
32.01
30.84
29.86
28.94
27.72
25.69
22.49
18.02
12.48
6.33
0.08
-5.88
-11.34
-16.32
-21.04
-25.83
-31.11
-37.33
-44.71
-53.11
-61.81
-69.53
-74.63
-75.58
-71.47
-62.34
-49.16
-33.57
-17.43
-2.25
10.97
21.78
30.13
36.11
39.85
41.52
41.35
39.80
37.43
34.90
32.70
31.07
29.94
29.05
28.11
26.97
25.66
24.34
23.19
22.28
21.53
20.70
19.47
17.50
14.58
10.63
5.81
0.41
-5.14
-10.48
-15.34
-19.64
-23.51
-27.27
-31.33
-36.17
-42.00
-48.65
-55.40
-60.98
-63.85
-62.71
-56.95
-46.86
-33.56
-18.66
-3.78
9.86
21.49
30.75
37.49
41.67
43.37
42.81
40.45
36.95
33.06
29.55
26.93
25.41
24.88
24.97
25.24
25.40
25.35
25.19
25.05
24.83
24.24
22.79
20.09
16.06
10.99
5.52
0.31
-4.13
-7.62
-10.35
-12.75
-15.45
-19.12
-24.30
-31.21
-39.48
-48.09
-55.46
-59.84
-59.82
-54.81
-45.24
-32.35
-17.82
-3.26
10.14
21.69
31.08
38.23
43.07
45.66
46.12
44.78
42.15
38.85
35.45
32.37
29.80
27.73
25.99
24.41
22.89
21.42
20.07
18.86
17.71
16.42
14.76
12.51
9.58
6.02
1.92
-2.60
-7.45
-12.55
-17.75
-22.87
-27.71
-32.19
-36.48
-40.96
-46.17
-52.48
-59.83
-67.51
-74.20
-78.32
-78.49
-73.91
-64.67
-51.61
-36.10
-19.66
-3.63
10.91
23.25
32.97
39.87
44.01
45.65
45.25
43.38
40.64
37.61
34.75
32.40
30.78
29.98
29.97
30.56
31.45
32.26
32.60
32.17
30.90
28.92
26.47
23.74
20.77
17.39
13.34
8.49
2.99
-2.81
-8.47
-13.69
-18.41
-22.90
-27.60
-32.98
-39.38
-46.88
-55.13
-63.32
-70.23
-74.41
-74.56
-69.91
-60.52
-47.31
-31.78
-15.63
-0.33
13.11
24.21
32.80
38.95
42.76
44.41
44.16
42.45
39.81
36.82
34.02
31.81
30.37
29.71
29.60
29.72
29.68
29.14
27.96
26.23
24.29
22.52
21.21
20.37
19.70
18.73
17.00
14.25
10.50
5.99
0.98
-4.31
-9.78
-15.43
-21.28
-27.39
-33.89
-40.95
-48.66
-56.79
-64.60
-70.81
-73.98
-72.84
-66.92
-56.61
-43.14
-28.12
-13.08
0.78
12.75
22.39
29.51
33.97
35.77
35.18
32.69
29.09
25.27
22.10
20.17
19.74
20.60
22.28
24.21
25.88
27.02
27.53
27.42
26.70
25.33
23.24
20.37
16.79
12.66
8.18
3.57
-1.03
-5.55
-10.01
-14.47
-19.02
-23.76
-28.82
-34.36
-40.56
-47.48
-54.79
-61.70
-66.96
-69.16
-67.20
-60.77
-50.43
-37.43
-23.29
-9.30
3.64
15.06
24.69
32.27
37.56
40.38
40.83
39.30
36.42
32.96
29.58
26.75
24.65
23.24
22.34
21.74
21.32
21.04
20.93
20.97
21.06
20.94
20.27
18.79
16.36
13.05
9.07
4.66
0.03
-4.71
-9.49
-14.30
-19.12
-23.98
-29.01
-34.46
-40.59
-47.48
-54.76
-61.55
-66.52
-68.30
-65.92
-59.10
-48.39
-34.96
-20.21
-5.50
8.08
19.79
29.17
35.93
40.00
41.57
41.06
39.08
36.33
33.46
30.91
28.92
27.52
26.57
25.94
25.50
25.17
24.91
24.63
24.21
23.51
22.43
20.87
18.80
16.13
12.79
8.72
3.97
-1.30
-6.77
-12.11
-17.09
-21.66
-26.02
-30.57
-35.75
-41.94
-49.25
-57.35
-65.40
-72.12
-76.03
-75.88
-70.99
-61.54
-48.47
-33.27
-17.51
-2.57
10.61
21.52
30.03
36.19
40.14
42.07
42.18
40.78
38.32
35.34
32.46
30.20
28.83
28.35
28.48
28.87
29.15
29.13
28.70
27.91
26.79
25.32
23.43
20.98
17.83
13.90
9.20
3.93
-1.59
-6.99
-11.98
-16.50
-20.73
-25.05
-29.91
-35.63
-42.31
-49.75
-57.38
-64.30
-69.41
-71.55
-69.81
-63.80
-53.75
-40.58
-25.65
-10.43
3.79
16.05
25.84
32.93
37.38
39.42
39.41
37.84
35.30
32.35
29.59
27.44
26.21
25.89
26.29
26.97
27.49
27.54
27.05
26.17
25.17
24.21
23.14
21.63
19.27
15.81
11.36
6.27
1.07
-3.92
-8.53
-12.91
-17.27
-21.85
-26.84
-32.40
-38.65
-45.60
-52.99
-60.15
-66.00
-69.28
-68.90
-64.27
-55.51
-43.43
-29.28
-14.51
-0.42
11.97
22.02
29.44
34.21
36.51
36.66
35.11
32.39
29.08
25.79
22.95
20.80
19.32
18.31
17.56
16.92
16.40
16.09
16.07
16.24
16.32
15.85
14.42
11.75
7.86
2.99
-2.42
-7.89
-13.01
-17.53
-21.39
-24.72
-27.89
-31.37
-35.67
-41.07
-47.34
-53.68
-58.75
-61.04
-59.39
-53.31
-43.15
-29.93
-15.04
0.12
14.39
26.95
37.23
44.96
50.02
52.50
52.71
51.10
48.33
45.11
42.12
39.82
38.40
37.68
37.27
36.69
35.65
34.12
32.28
30.37
28.47
26.41
23.81
20.25
15.49
9.62
3.01
-3.79
-10.28
-16.18
-21.43
-26.23
-30.84
-35.59
-40.79
-46.76
-53.62
-61.23
-68.95
-75.57
-79.62
-79.68
-74.90
-65.36
-52.02
-36.47
-20.42
-5.32
7.87
18.69
26.97
32.71
36.01
37.07
36.23
34.08
31.30
28.61
26.53
25.34
24.99
25.21
25.64
25.99
26.15
26.12
25.99
25.77
25.34
24.45
22.83
20.32
16.89
12.67
7.88
2.74
-2.50
-7.68
-12.67
-17.48
-22.30
-27.53
-33.67
-41.08
-49.67
-58.75
-67.00
-72.73
-74.39
-71.05
-62.75
-50.42
-35.64
-20.08
-5.13
8.31
19.81
29.14
36.15
40.68
42.67
42.39
40.41
37.57
34.74
32.51
31.11
30.43
30.15
29.98
29.81
29.62
29.52
29.52
29.51
29.22
28.30
26.45
23.48
19.40
14.39
8.74
2.81
-3.07
-8.66
-13.86
-18.71
-23.43
-28.43
-34.15
-40.94
-48.78
-57.12
-64.77
-70.23
-71.99
-69.09
-61.43
-49.82
-35.68
-20.65
-6.10
7.05
18.29
27.44
34.36
38.94
41.16
41.20
39.57
37.04
34.42
32.39
31.21
30.83
30.94
31.20
31.40
31.48
31.48
31.41
31.15
30.50
29.24
27.18
24.21
20.35
15.69
10.41
4.76
-0.95
-6.48
-11.65
-16.51
-21.26
-26.27
-31.99
-38.74
-46.56
-54.98
-62.93
-68.92
-71.43
-69.33
-62.31
-50.99
-36.70
-21.08
-5.63
8.57
20.89
30.91
38.38
43.10
45.03
44.44
41.90
38.25
34.39
31.07
28.77
27.59
27.36
27.74
28.35
28.90
29.23
29.31
29.11
28.60
27.64
26.03
23.56
20.10
15.65
10.39
4.63
-1.29
-7.04
-12.39
-17.29
-21.84
-26.36
-31.29
-37.11
-44.14
-52.26
-60.88
-68.77
-74.46
-76.49
-73.85
-66.33
-54.52
-39.64
-23.28
-6.94
8.11
21.03
31.33
38.86
43.70
46.09
46.44
45.24
42.97
40.17
37.33
34.85
33.08
32.19
32.18
32.85
33.84
34.73
35.12
34.75
33.61
31.82
29.62
27.18
24.56
21.65
18.22
14.14
9.33
3.96
-1.71
-7.33
-12.65
-17.61
-22.39
-27.37
-33.11
-40.14
-48.83
-59.06
-70.10
-80.51
-88.42
-91.90
-89.57
-81.04
-67.03
-49.26
-29.92
-11.18
5.36
18.81
28.99
36.18
40.87
43.56
44.68
44.64
43.80
42.57
41.29
40.25
39.54
39.16
38.94
38.78
38.55
38.23
37.81
37.22
36.35
35.01
33.06
30.37
26.96
22.92
18.39
13.51
8.37
3.02
-2.49
-8.04
-13.50
-18.70
-23.57
-28.19
-32.85
-38.01
-44.16
-51.58
-59.99
-68.46
-75.42
-79.07
-77.95
-71.46
-60.06
-45.17
-28.66
-12.31
2.60
15.37
25.82
33.95
39.79
43.37
44.81
44.38
42.60
40.06
37.36
34.96
33.10
31.86
31.23
31.12
31.40
31.88
32.32
32.41
31.92
30.69
28.75
26.26
23.40
20.27
16.89
13.09
8.77
3.84
-1.66
-7.57
-13.72
-19.97
-26.25
-32.63
-39.27
-46.42
-54.25
-62.58
-70.77
-77.66
-81.77
-81.74
-76.80
-67.06
-53.47
-37.58
-21.03
-5.25
8.78
20.43
29.40
35.57
39.02
40.07
39.29
37.41
35.18
33.26
32.02
31.45
31.31
31.14
30.56
29.31
27.35
24.82
21.91
18.81
15.60
12.27
8.71
4.86
0.76
-3.38
-7.16
-10.18
-12.19
-13.25
-13.84
-14.70
-16.60
-20.11
-25.47
-32.54
-40.81
-49.48
-57.42
-63.29
-65.75
-63.75
-56.96
-45.86
-31.65
-15.98
-0.48
13.57
25.40
34.65
41.29
45.47
47.38
47.24
45.34
42.08
37.98
33.68
29.83
26.98
25.38
24.88
25.07
25.40
25.45
25.06
24.30
23.36
22.28
20.91
18.92
16.03
12.15
7.42
2.17
-3.28
-8.72
-14.06
-19.32
-24.50
-29.61
-34.72
-40.09
-46.04
-52.82
-60.32
-67.82
-73.99
-77.26
-76.24
-70.25
-59.60
-45.43
-29.40
-13.20
1.85
14.95
25.79
34.29
40.49
44.41
46.15
45.99
44.41
42.08
39.66
37.60
36.06
34.96
34.06
33.26
32.57
32.13
32.07
32.32
32.63
32.65
32.01
30.41
27.69
23.78
18.71
12.60
5.75
-1.48
-8.59
-15.19
-21.04
-26.21
-31.07
-36.23
-42.26
-49.42
-57.39
-65.11
-71.02
-73.51
-71.44
-64.57
-53.58
-39.80
-24.73
-9.64
4.58
17.35
28.25
36.82
42.65
45.54
45.62
43.45
39.86
35.76
31.95
28.88
26.73
25.39
24.67
24.37
24.31
24.36
24.41
24.28
23.73
22.58
20.66
17.89
14.33
10.07
5.24
0.01
-5.43
-10.86
-16.01
-20.72
-25.01
-29.21
-33.88
-39.75
-47.32
-56.56
-66.66
-76.07
-82.85
-85.26
-82.30
-74.00
-61.39
-46.10
-29.81
-13.92
0.66
13.36
23.83
31.77
37.04
39.75
40.36
39.66
38.51
37.62
37.28
37.38
37.53
37.30
36.47
35.11
33.49
31.99
30.82
29.96
29.20
28.15
26.42
23.67
19.70
14.46
8.10
0.96
-6.44
-13.50
-19.72
-24.93
-29.39
-33.80
-39.04
-45.67
-53.59
-61.84
-68.80
-72.69
-72.16
-66.73
-56.83
-43.58
-28.44
-12.80
2.26
15.97
27.80
37.35
44.32
48.52
50.06
49.32
47.02
44.02
41.11
38.80
37.24
36.25
35.54
34.85
34.06
33.20
32.33
31.50
30.66
29.62
28.10
25.79
22.44
17.92
12.37
6.10
-0.42
-6.81
-12.75
-18.19
-23.23
-28.09
-33.11
-38.62
-44.95
-52.24
-60.27
-68.31
-75.15
-79.27
-79.32
-74.49
-64.84
-51.35
-35.60
-19.30
-3.95
9.49
20.56
29.16
35.39
39.47
41.67
42.35
41.86
40.57
38.82
36.91
35.09
33.66
32.81
32.63
32.99
33.58
34.02
34.01
33.38
32.13
30.29
27.87
24.81
21.03
16.54
11.49
6.19
0.99
-3.87
-8.32
-12.54
-16.84
-21.53
-26.85
-32.89
-39.66
-47.10
-55.00
-62.81
-69.49
-73.69
-74.01
-69.52
-60.17
-46.87
-31.26
-15.15
-0.02
13.21
24.18
32.80
39.08
43.06
44.85
44.77
43.32
41.14
38.83
36.84
35.36
34.44
33.97
33.84
33.96
34.22
34.52
34.72
34.65
34.10
32.89
30.88
28.04
24.43
20.24
15.65
10.81
5.77
0.58
-4.73
-10.09
-15.34
-20.40
-25.30
-30.27
-35.69
-41.99
-49.41
-57.75
-66.21
-73.48
-78.05
-78.57
-74.36
-65.61
-53.27
-38.74
-23.51
-8.83
4.42
15.67
24.56
30.92
34.77
36.36
36.15
34.76
32.82
30.80
28.97
27.37
25.97
24.72
23.71
23.05
22.89
23.22
23.91
24.65
25.14
25.11
24.43
23.05
20.96
18.14
14.52
10.13
5.09
-0.31
-5.71
-10.77
-15.34
-19.51
-23.62
-28.20
-33.73
-40.43
-48.07
-55.90
-62.71
-67.15
-68.05
-64.69
-57.03
-45.65
-31.66
-16.44
-1.35
12.40
23.97
32.86
38.97
42.47
43.75
43.28
41.55
39.03
36.15
33.27
30.71
28.63
27.03
25.81
24.76
23.71
22.55
21.28
19.98
18.72
17.49
16.12
14.32
11.77
8.26
3.81
-1.30
-6.67
-11.91
-16.78
-21.28
-25.58
-29.99
-34.83
-40.38
-46.78
-53.90
-61.19
-67.66
-71.95
-72.74
-69.08
-60.78
-48.52
-33.66
-17.82
-2.53
11.10
22.43
31.26
37.62
41.70
43.76
44.11
43.09
41.08
38.49
35.71
33.15
31.15
29.94
29.50
29.66
30.02
30.18
29.80
28.75
27.12
25.10
22.86
20.44
17.72
14.49
10.62
6.11
1.17
-3.96
-9.04
-13.95
-18.76
-23.60
-28.63
-34.02
-39.91
-46.40
-53.40
-60.52
-66.96
-71.54
-73.00
-70.40
-63.41
-52.57
-38.98
-24.10
-9.30
4.36
16.22
25.91
33.20
37.97
40.21
40.08
38.06
34.92
31.66
29.22
28.29
29.03
31.06
33.71
36.11
37.62
37.87
36.81
34.63
31.64
28.14
24.42
20.69
17.05
13.49
9.88
6.06
1.88
-2.71
-7.61
-12.69
-17.76
-22.74
-27.67
-32.82
-38.49
-45.01
-52.40
-60.22
-67.45
-72.67
-74.47
-71.88
-64.73
-53.74
-40.23
-25.70
-11.41
1.74
13.26
22.89
30.41
35.76
38.95
40.24
40.03
38.83
37.09
35.26
33.62
32.36
31.55
31.14
30.98
30.90
30.71
30.26
29.41
28.02
25.92
22.97
19.08
14.31
8.85
3.06
-2.66
-7.94
-12.57
-16.56
-20.09
-23.52
-27.19
-31.50
-36.70
-42.94
-49.99
-57.28
-63.77
-68.19
-69.38
-66.60
-59.80
-49.70
-37.44
-24.33
-11.50
0.21
10.32
18.53
24.76
29.00
31.37
32.11
31.58
30.19
28.37
26.55
25.02
23.91
23.22
22.85
22.72
22.78
22.99
23.26
23.43
23.23
22.37
20.64
17.97
14.50
10.45
6.09
1.64
-2.81
-7.28
-11.86
-16.70
-21.97
-27.83
-34.38
-41.52
-48.86
-55.62
-60.79
-63.35
-62.55
-58.17
-50.49
-40.20
-28.16
-15.31
-2.51
9.40
19.67
27.74
33.33
36.50
37.63
37.20
35.74
33.67
31.36
29.12
27.26
26.02
25.46
25.47
25.75
25.99
25.95
25.55
24.83
23.89
22.72
21.17
18.96
15.80
11.54
6.27
0.35
-5.75
-11.59
-16.95
-21.87
-26.64
-31.74
-37.63
-44.62
-52.72
-61.42
-69.73
-76.23
-79.45
-78.25
-72.22
-61.74
-47.99
-32.55
-17.01
-2.69
9.58
19.40
26.73
31.69
34.50
35.42
34.71
32.73
29.95
26.91
24.18
22.19
21.23
21.29
22.18
23.58
25.15
26.61
27.73
28.35
28.30
27.44
25.65
22.90
19.32
15.17
10.81
6.56
2.56
-1.29
-5.25
-9.73
-15.08
-21.58
-29.32
-38.11
-47.32
-55.89
-62.42
-65.51
-64.13
-58.02
-47.75
-34.55
-19.95
-5.41
8.02
19.60
28.98
35.95
40.46
42.61
42.69
41.22
38.84
36.20
33.86
32.12
31.01
30.34
29.82
29.23
28.54
27.91
27.61
27.78
28.34
28.90
28.87
27.70
25.07
20.95
15.61
9.45
2.85
-3.85
-10.48
-16.91
-23.18
-29.40
-35.81
-42.54
-49.45
-55.97
-61.05
-63.49
-62.27
-56.97
-47.90
-36.01
-22.59
-8.91
3.96
15.30
24.58
31.46
35.77
37.50
36.95
34.74
31.65
28.49
25.90
24.19
23.35
23.15
23.28
23.49
23.65
23.77
23.84
23.81
23.47
22.56
20.80
18.01
14.19
9.53
4.34
-0.98
-6.11
-10.90
-15.40
-19.92
-24.92
-30.88
-38.00
-46.05
-54.20
-61.13
-65.34
-65.52
-60.99
-51.90
-39.14
-24.09
-8.28
6.90
20.49
31.88
40.81
47.26
51.39
53.43
53.65
52.38
49.97
46.87
43.60
40.70
38.57
37.40
37.12
37.41
37.89
38.21
38.22
37.91
37.40
36.81
36.18
35.47
34.55
33.25
31.33
28.58
24.80
19.82
13.59
6.29
-1.65
-9.62
-17.12
-23.92
-30.21
-36.50
-43.20
-50.25
-56.88
-61.81
-63.65
-61.42
-55.00
-45.11
-33.06
-20.36
-8.31
2.17
10.48
16.26
19.20
19.12
16.05
10.38
3.01
-4.78
-11.57
-16.27
-18.40
-18.29
-16.79
-14.92
-13.38
-12.36
-11.62
-10.80
-9.78
-8.84
-8.55
-9.51
-11.96
-15.70
-20.11
-24.49
-28.35
-31.63
-34.63
-37.87
-41.86
-46.95
-53.15
-60.15
-67.25
-73.39
-77.29
-77.70
-73.71
-65.09
-52.42
-36.94
-20.25
-3.90
10.87
23.30
33.06
40.07
44.39
46.24
45.94
43.98
41.00
37.72
34.75
32.54
31.22
30.65
30.49
30.39
30.10
29.61
29.02
28.48
27.95
27.19
25.73
23.16
19.29
14.28
8.61
2.89
-2.37
-7.01
-11.17
-15.27
-19.82
-25.24
-31.77
-39.34
-47.53
-55.49
-62.01
-65.71
-65.40
-60.45
-51.00
-37.98
-22.85
-7.28
7.29
19.81
29.67
36.67
40.81
42.32
41.58
39.13
35.66
31.93
28.60
26.15
24.74
24.23
24.30
24.59
24.82
24.87
24.76
24.52
24.09
23.25
21.70
19.14
15.43
10.71
5.34
-0.21
-5.54
-10.46
-15.09
-19.72
-24.77
-30.62
-37.47
-45.19
-53.23
-60.55
-65.83
-67.70
-65.17
-57.96
-46.63
-32.39
-16.80
-1.37
12.72
24.71
34.25
41.23
45.70
47.87
48.06
46.67
44.23
41.23
38.13
35.27
32.83
30.87
29.39
28.31
27.56
27.05
26.67
26.29
25.71
24.66
22.87
20.11
16.34
11.71
6.61
1.48
-3.36
-7.84
-12.24
-17.00
-22.61
-29.39
-37.40
-46.28
-55.30
-63.36
-69.16
-71.47
-69.48
-63.05
-52.73
-39.64
-25.04
-10.07
4.42
17.83
29.61
39.25
46.25
50.38
51.72
50.75
48.23
44.97
41.63
38.62
36.11
34.07
32.38
30.91
29.60
28.39
27.24
26.10
24.81
23.16
20.89
17.81
13.83
9.10
3.90
-1.41
-6.49
-11.20
-15.64
-20.11
-25.07
-30.99
-38.14
-46.36
-54.96
-62.72
-68.16
-69.87
-67.01
-59.50
-48.00
-33.76
-18.22
-2.72
11.64
24.09
34.15
41.59
46.36
48.67
48.91
47.62
45.40
42.81
40.28
38.05
36.18
34.61
33.23
32.00
30.94
30.09
29.42
28.75
27.72
25.92
23.01
18.88
13.67
7.70
1.41
-4.86
-10.84
-16.48
-21.89
-27.32
-33.14
-39.71
-47.14
-55.12
-62.76
-68.70
-71.45
-69.83
-63.42
-52.70
-38.92
-23.62
-8.23
6.17
18.96
29.70
38.07
43.78
46.71
47.08
45.45
42.65
39.47
36.48
33.88
31.59
29.45
27.38
25.45
23.82
22.65
21.93
21.48
20.98
20.03
18.27
15.46
11.50
6.56
0.97
-4.84
-10.48
-15.72
-20.59
-25.39
-30.60
-36.69
-43.91
-52.05
-60.40
-67.73
-72.53
-73.41
-69.50
-60.74
-47.96
-32.60
-16.37
-0.79
13.05
24.54
33.45
39.70
43.32
44.46
43.40
40.66
36.99
33.20
29.97
27.70
26.45
25.92
25.71
25.56
25.43
25.44
25.70
26.08
26.12
25.20
22.90
19.17
14.33
8.84
2.97
-3.35
-10.33
-18.06
-26.32
-34.65
-42.62
-50.11
-57.17
-63.71
-69.07
-72.01
-71.09
-65.32
-54.75
-40.56
-24.62
-8.88
5.24
16.96
25.97
32.24
35.76
36.63
35.15
31.90
27.72
23.43
19.73
17.04
15.45
14.86
14.97
15.48
16.08
16.58
16.86
16.91
16.67
15.99
14.68
12.52
9.49
5.78
1.75
-2.25
-6.10
-10.04
-14.55
-20.07
-26.76
-34.22
-41.52
-47.39
-50.56
-50.13
-45.79
-37.87
-27.24
-15.07
-2.54
9.25
19.46
27.54
33.20
36.43
37.43
36.59
34.32
31.10
27.29
23.26
19.30
15.67
12.62
10.28
8.68
7.69
7.08
6.54
5.80
4.67
3.04
0.90
-1.74
-4.84
-8.36
-12.23
-16.42
-20.93
-25.90
-31.51
-37.88
-44.90
-51.98
-58.07
-61.86
-62.09
-58.05
-49.76
-38.05
-24.32
-10.12
3.21
14.77
24.15
31.22
35.99
38.50
38.80
37.10
33.81
29.55
25.03
20.85
17.39
14.80
13.08
12.16
11.95
12.30
12.92
13.36
13.12
11.81
9.28
5.70
1.39
-3.26
-7.99
-12.77
-17.77
-23.35
-29.87
-37.48
-45.99
-54.64
-62.18
-67.05
-67.83
-63.69
-54.62
-41.53
-25.95
-9.68
5.67
18.92
29.39
36.85
41.37
43.22
42.84
40.74
37.53
33.80
30.03
26.57
23.57
21.01
18.86
17.07
15.63
14.52
13.62
12.69
11.44
9.64
7.16
4.04
0.42
-3.53
-7.73
-12.19
-17.09
-22.70
-29.30
-36.97
-45.43
-53.81
-60.79
-64.81
-64.53
-59.33
-49.46
-36.01
-20.57
-4.78
9.92
22.51
32.35
39.15
42.94
44.02
42.92
40.29
36.76
32.85
28.95
25.32
22.17
19.65
17.81
16.59
15.81
15.20
14.49
13.43
11.88
9.78
7.12
3.92
0.20
-4.00
-8.70
-13.91
-19.74
-26.36
-33.87
-42.08
-50.34
-57.45
-61.86
-62.14
-57.40
-47.73
-34.17
-18.43
-2.40
12.33
24.74
34.36
41.13
45.20
46.86
46.45
44.36
41.06
37.01
32.66
28.43
24.69
21.73
19.70
18.56
18.09
17.94
17.71
17.07
15.82
13.87
11.23
8.00
4.30
0.24
-4.08
-8.70
-13.83
-19.80
-26.94
-35.24
-44.18
-52.65
-59.11
-62.04
-60.37
-53.89
-43.24
-29.74
-14.94
-0.25
13.26
24.86
34.04
40.47
44.02
44.82
43.37
40.39
36.71
32.96
29.54
26.57
24.06
22.06
20.65
19.94
19.89
20.22
20.45
20.08
18.73
16.26
12.80
8.61
3.98
-0.84
-5.75
-10.71
-15.80
-21.23
-27.29
-34.26
-42.17
-50.62
-58.60
-64.64
-67.12
-64.84
-57.40
-45.47
-30.55
-14.54
0.78
14.18
25.05
33.21
38.78
41.88
42.66
41.38
38.49
34.66
30.61
27.01
24.21
22.22
20.87
19.91
19.18
18.73
18.60
18.76
18.96
18.72
17.53
15.07
11.33
6.69
1.72
-3.10
-7.46
-11.45
-15.45
-20.00
-25.65
-32.69
-40.98
-49.75
-57.73
-63.30
-65.00
-61.89
-53.89
-41.81
-27.03
-11.20
4.12
17.71
28.74
36.77
41.72
43.81
43.50
41.39
38.15
34.36
30.50
26.92
23.77
21.17
19.15
17.72
16.89
16.64
16.89
17.37
17.71
17.43
16.07
13.40
9.50
4.74
-0.36
-5.34
-10.00
-14.49
-19.24
-24.82
-31.69
-39.92
-49.02
-57.86
-64.89
-68.46
-67.36
-61.14
-50.28
-36.10
-20.29
-4.50
9.96
22.34
32.21
39.41
43.88
45.70
45.12
42.69
39.12
35.26
31.73
28.90
26.73
24.97
23.35
21.79
20.46
19.63
19.40
19.57
19.55
18.64
16.25
12.26
7.00
1.15
-4.62
-9.88
-14.60
-19.03
-23.60
-28.80
-35.02
-42.52
-51.20
-60.50
-69.21
-75.64
-78.07
-75.22
-66.78
-53.53
-37.13
-19.59
-2.69
12.33
24.84
34.63
41.71
46.09
47.91
47.47
45.30
42.10
38.58
35.34
32.68
30.68
29.16
27.95
26.89
25.94
25.17
24.63
24.28
23.86
22.94
21.07
17.88
13.36
7.80
1.77
-4.15
-9.58
-14.48
-19.14
-24.09
-29.85
-36.78
-44.90
-53.73
-62.30
-69.23
-73.01
-72.40
-66.78
-56.41
-42.33
-26.12
-9.48
6.17
19.86
31.07
39.62
45.42
48.50
48.97
47.17
43.72
39.45
35.27
31.92
29.68
28.42
27.69
27.04
26.23
25.31
24.55
24.12
23.94
23.54
22.30
19.68
15.48
9.98
3.75
-2.52
-8.39
-13.67
-18.51
-23.27
-28.38
-34.23
-41.07
-48.83
-57.00
-64.56
-70.10
-72.18
-69.69
-62.26
-50.49
-35.66
-19.48
-3.54
10.91
23.13
32.72
39.55
43.62
45.06
44.23
41.70
38.21
34.55
31.37
29.02
27.55
26.75
26.35
26.11
25.92
25.81
25.82
25.87
25.76
25.10
23.51
20.75
16.86
12.20
7.31
2.67
-1.48
-5.26
-9.10
-13.58
-19.20
-26.17
-34.28
-42.84
-50.81
-56.90
-59.83
-58.59
-52.74
-42.46
-28.55
-12.24
5.03
21.90
37.24
50.10
59.76
65.67
67.55
65.45
59.91
51.87
42.59
33.31
24.93
17.91
12.29
7.85
4.40
1.88
0.30
-0.39
-0.50
-0.60
-1.39
-3.46
-7.01
-11.79
-17.19
-22.50
-27.20
-31.14
-34.61
-38.12
-42.31
-47.70
-54.50
-62.51
-70.93
-78.48
-83.57
-84.75
-81.08
-72.52
-59.92
-44.78
-28.80
-13.48
0.16
11.51
20.30
26.42
29.88
30.91
29.97
27.72
24.94
22.29
20.17
18.70
17.79
17.30
17.11
17.24
17.64
18.25
18.84
19.08
18.63
17.23
14.70
11.04
6.34
0.87
-5.01
-10.87
-16.34
-21.27
-25.84
-30.63
-36.35
-43.56
-52.20
-61.42
-69.65
-74.99
-75.88
-71.55
-62.27
-49.17
-33.81
-17.74
-2.15
12.07
24.31
34.08
41.00
44.92
46.06
45.04
42.73
39.99
37.46
35.43
33.91
32.81
32.01
31.52
31.37
31.51
31.79
31.87
31.41
30.07
27.65
24.14
19.70
14.57
9.10
3.57
-1.86
-7.17
-12.58
-18.45
-25.21
-33.10
-42.04
-51.34
-59.77
-65.72
-67.65
-64.53
-56.24
-43.61
-28.19
-11.82
3.86
17.73
29.16
37.92
43.95
47.35
48.26
47.08
44.41
41.01
37.67
34.90
32.87
31.45
30.36
29.40
28.58
28.04
27.86
27.89
27.65
26.54
24.03
19.99
14.72
8.84
3.00
-2.36
-7.15
-11.63
-16.30
-21.72
-28.30
-36.12
-44.73
-53.10
-59.73
-63.01
-61.72
-55.46
-44.76
-31.00
-15.86
-1.01
12.35
23.51
32.16
38.25
41.84
43.10
42.34
39.99
36.62
32.84
29.17
26.03
23.64
22.07
21.27
21.07
21.21
21.43
21.42
20.88
19.54
17.22
13.83
9.46
4.34
-1.13
-6.60
-11.83
-16.85
-21.98
-27.74
-34.52
-42.25
-50.22
-57.04
-61.09
-60.97
-56.01
-46.51
-33.59
-18.90
-4.06
9.64
21.36
30.66
37.33
41.32
42.72
41.80
39.02
34.98
30.36
25.76
21.69
18.45
16.23
15.00
14.63
14.82
15.17
15.25
14.59
12.95
10.26
6.71
2.62
-1.68
-5.97
-10.26
-14.78
-19.90
-26.03
-33.35
-41.65
-50.10
-57.33
-61.70
-61.76
-56.76
-46.99
-33.62
-18.36
-2.91
11.41
23.80
33.79
41.13
45.66
47.43
46.72
44.09
40.23
35.81
31.28
26.96
23.07
19.83
17.48
16.13
15.71
15.86
16.02
15.60
14.14
11.50
7.81
3.46
-1.17
-5.77
-10.26
-14.87
-20.03
-26.23
-33.76
-42.48
-51.64
-59.93
-65.69
-67.37
-64.00
-55.51
-42.73
-27.25
-10.90
4.64
18.11
28.82
36.50
41.19
43.17
42.81
40.66
37.30
33.37
29.39
25.79
22.78
20.49
18.90
17.96
17.56
17.54
17.61
17.42
16.59
14.85
12.07
8.35
3.96
-0.72
-5.40
-9.91
-14.32
-18.98
-24.37
-30.95
-38.79
-47.37
-55.42
-61.14
-62.76
-59.06
-49.91
-36.31
-20.09
-3.36
12.10
25.15
35.29
42.46
46.79
48.43
47.61
44.80
40.67
36.10
31.89
28.59
26.31
24.78
23.57
22.34
21.02
19.74
18.77
18.12
17.55
16.51
14.46
11.08
6.42
0.95
-4.73
-10.07
-14.84
-19.14
-23.38
-28.04
-33.57
-40.14
-47.51
-54.98
-61.38
-65.28
-65.37
-60.78
-51.42
-38.05
-22.18
-5.65
9.78
22.75
32.54
38.98
42.36
43.15
41.89
39.10
35.34
31.18
27.23
24.01
21.77
20.46
19.73
19.20
18.62
17.97
17.38
17.00
16.72
16.17
14.83
12.28
8.37
3.33
-2.34
-8.04
-13.32
-18.00
-22.26
-26.51
-31.26
-36.92
-43.54
-50.72
-57.52
-62.58
-64.47
-62.08
-54.99
-43.64
-29.23
-13.44
2.03
15.83
27.07
35.32
40.51
42.77
42.40
39.84
35.77
30.95
26.15
21.95
18.66
16.35
14.89
14.06
13.66
13.53
13.60
13.79
13.96
13.87
13.16
11.48
8.58
4.47
-0.57
-6.02
-11.37
-16.22
-20.51
-24.51
-28.68
-33.58
-39.57
-46.60
-54.04
-60.67
-64.92
-65.32
-60.91
-51.66
-38.49
-22.98
-6.92
8.10
20.98
31.12
38.32
42.60
44.14
43.23
40.38
36.20
31.44
26.79
22.80
19.69
17.45
15.88
14.76
13.96
13.46
13.26
13.28
13.27
12.85
11.65
9.39
6.02
1.70
-3.23
-8.36
-13.36
-18.01
-22.29
-26.44
-30.89
-36.12
-42.42
-49.65
-57.06
-63.30
-66.77
-66.07
-60.49
-50.31
-36.74
-21.50
-6.39
7.23
18.57
27.37
33.63
37.44
38.87
38.10
35.56
31.96
28.15
24.90
22.63
21.33
20.67
20.22
19.70
19.06
18.47
18.06
17.82
17.49
16.67
14.96
12.18
8.40
3.95
-0.78
-5.45
-9.88
-14.04
-18.09
-22.27
-26.86
-32.10
-38.15
-44.87
-51.75
-57.81
-61.70
-62.08
-58.02
-49.36
-36.88
-22.11
-6.86
7.25
19.16
28.37
34.85
38.77
40.33
39.70
37.20
33.31
28.72
24.19
20.34
17.49
15.62
14.39
13.47
12.66
12.00
11.69
11.86
12.34
12.66
12.14
10.24
6.80
2.15
-3.07
-8.08
-12.38
-15.85
-18.80
-21.77
-25.35
-30.01
-35.91
-42.88
-50.25
-56.97
-61.69
-63.07
-60.21
-52.88
-41.73
-28.03
-13.41
0.64
13.02
23.09
30.62
35.60
38.14
38.42
36.83
33.87
30.18
26.33
22.76
19.68
17.16
15.15
13.60
12.52
11.89
11.65
11.64
11.58
11.12
9.91
7.72
4.52
0.54
-3.79
-8.00
-11.77
-15.10
-18.33
-22.04
-26.78
-32.79
-39.92
-47.45
-54.28
-59.05
-60.54
-57.89
-50.92
-40.16
-26.77
-12.23
2.00
14.76
25.34
33.40
38.86
41.80
42.39
40.95
37.96
34.04
29.85
25.93
22.59
19.94
17.88
16.29
15.08
14.24
13.79
13.67
13.68
13.47
12.61
10.71
7.56
3.21
-2.00
-7.52
-12.80
-17.46
-21.47
-25.20
-29.28
-34.38
-40.90
-48.72
-57.06
-64.60
-69.77
-71.16
-67.90
-59.96
-48.05
-33.48
-17.77
-2.39
11.49
23.06
31.87
37.76
40.85
41.44
40.03
37.27
33.81
30.31
27.26
24.95
23.40
22.42
21.75
21.15
20.54
19.97
19.53
19.15
18.58
17.45
15.39
12.23
8.07
3.27
-1.69
-6.42
-10.71
-14.68
-18.67
-23.23
-28.91
-36.02
-44.42
-53.32
-61.35
-66.86
-68.35
-64.93
-56.62
-44.30
-29.44
-13.70
1.46
14.90
25.93
34.17
39.52
42.13
42.38
40.85
38.26
35.28
32.50
30.27
28.66
27.59
26.88
26.41
26.11
26.01
26.12
26.36
26.49
26.13
24.88
22.41
18.60
13.65
7.97
2.13
-3.36
-8.22
-12.48
-16.50
-20.87
-26.23
-33.08
-41.42
-50.61
-59.31
-65.68
-67.95
-64.99
-56.70
-44.08
-28.85
-12.93
2.10
15.27
26.14
34.51
40.26
43.34
43.88
42.30
39.32
35.77
32.39
29.60
27.53
26.12
25.21
24.70
24.57
24.77
25.24
25.77
26.08
25.82
24.68
22.43
18.99
14.46
9.10
3.28
-2.55
-8.06
-13.08
-17.69
-22.23
-27.19
-33.06
-40.15
-48.30
-56.80
-64.41
-69.58
-70.82
-67.20
-58.60
-45.81
-30.27
-13.73
2.19
16.33
28.02
37.00
43.20
46.66
47.49
45.99
42.74
38.59
34.51
31.27
29.32
28.56
28.61
28.93
29.14
29.06
28.74
28.27
27.66
26.80
25.45
23.39
20.43
16.48
11.57
5.91
-0.17
-6.24
-11.92
-17.02
-21.67
-26.30
-31.51
-37.86
-45.54
-54.16
-62.73
-69.77
-73.65
-73.04
-67.29
-56.59
-42.02
-25.13
-7.71
8.69
22.93
34.36
42.77
48.22
50.98
51.42
50.03
47.36
43.99
40.48
37.29
34.76
33.02
32.05
31.69
31.66
31.68
31.48
30.91
29.89
28.45
26.57
24.22
21.27
17.57
13.02
7.70
1.78
-4.41
-10.55
-16.36
-21.71
-26.63
-31.26
-35.89
-40.86
-46.56
-53.28
-60.98
-69.09
-76.37
-81.11
-81.53
-76.44
-65.67
-50.29
-32.26
-13.84
3.03
17.20
28.32
36.62
42.52
46.35
48.31
48.54
47.26
44.92
42.12
39.50
37.53
36.38
35.98
36.07
36.41
36.78
37.10
37.22
36.95
36.08
34.42
31.94
28.80
25.21
21.35
17.23
12.77
7.87
2.53
-3.13
-8.90
-14.61
-20.19
-25.67
-31.19
-36.99
-43.36
-50.57
-58.65
-67.13
-74.95
-80.53
-82.18
-78.66
-69.66
-55.97
-39.20
-21.34
-4.14
11.10
23.74
33.52
40.46
44.75
46.66
46.61
45.12
42.74
40.01
37.36
35.13
33.52
32.62
32.40
32.72
33.34
34.00
34.44
34.42
33.80
32.51
30.53
27.89
24.67
20.95
16.80
12.31
7.53
2.49
-2.76
-8.15
-13.58
-18.95
-24.18
-29.34
-34.66
-40.51
-47.21
-54.83
-62.95
-70.53
-76.09
-78.03
-75.21
-67.24
-54.76
-39.13
-22.17
-5.57
9.38
21.90
31.75
38.98
43.77
46.32
46.86
45.72
43.32
40.21
36.96
34.05
31.79
30.28
29.41
28.98
28.73
28.48
28.10
27.56
26.80
25.75
24.26
22.20
19.43
15.93
11.76
7.09
2.12
-2.98
-8.04
-12.92
-17.46
-21.63
-25.57
-29.62
-34.28
-40.02
-47.02
-54.97
-63.01
-69.76
-73.70
-73.51
-68.45
-58.65
-45.06
-29.27
-13.04
2.06
14.98
25.21
32.69
37.65
40.35
41.12
40.26
38.21
35.44
32.49
29.87
27.92
26.78
26.37
26.45
26.73
26.94
26.97
26.82
26.53
26.09
25.36
24.02
21.77
18.38
13.90
8.62
2.97
-2.62
-7.86
-12.73
-17.37
-21.99
-26.88
-32.30
-38.52
-45.68
-53.64
-61.72
-68.71
-73.03
-73.16
-68.20
-58.16
-44.12
-27.85
-11.30
3.90
16.75
26.86
34.29
39.24
41.91
42.53
41.41
39.02
35.89
32.59
29.59
27.14
25.36
24.22
23.66
23.59
23.89
24.38
24.84
25.04
24.81
24.00
22.51
20.26
17.18
13.23
8.50
3.13
-2.62
-8.46
-14.12
-19.37
-24.18
-28.71
-33.36
-38.63
-44.95
-52.45
-60.72
-68.75
-75.11
-78.25
-76.93
-70.61
-59.55
-44.81
-28.01
-10.90
4.96
18.47
29.09
36.79
41.81
44.55
45.37
44.57
42.47
39.46
36.07
32.91
30.52
29.23
29.01
29.54
30.27
30.73
30.66
30.03
28.99
27.68
26.10
24.11
21.47
18.05
13.83
8.95
3.61
-1.96
-7.57
-13.07
-18.33
-23.31
-28.08
-32.87
-38.09
-44.13
-51.17
-58.84
-66.16
-71.64
-73.72
-71.20
-63.73
-51.90
-37.09
-21.02
-5.30
8.85
20.73
30.04
36.75
40.98
42.99
43.09
41.70
39.29
36.40
33.54
31.11
29.34
28.23
27.59
27.17
26.76
26.31
25.87
25.53
25.23
24.73
23.66
21.65
18.46
14.16
9.02
3.48
-2.09
-7.45
-12.57
-17.55
-22.56
-27.76
-33.33
-39.47
-46.36
-53.98
-61.82
-68.83
-73.53
-74.43
-70.53
-61.76
-49.03
-33.94
-18.26
-3.47
9.51
20.27
28.69
34.75
38.42
39.73
38.95
36.60
33.43
30.23
27.58
25.77
24.71
24.14
23.74
23.36
23.00
22.82
22.89
23.15
23.28
22.85
21.36
18.53
14.34
9.12
3.39
-2.30
-7.53
-12.17
-16.33
-20.38
-24.83
-30.18
-36.82
-44.74
-53.42
-61.74
-68.20
-71.24
-69.77
-63.49
-52.98
-39.46
-24.44
-9.27
4.96
17.54
27.97
35.89
41.14
43.78
44.16
42.86
40.57
37.91
35.34
33.13
31.35
29.97
28.89
27.97
27.07
26.10
25.07
24.02
22.97
21.81
20.31
18.10
14.89
10.59
5.38
-0.29
-5.89
-11.02
-15.56
-19.69
-23.87
-28.58
-34.31
-41.28
-49.40
-58.12
-66.38
-72.83
-75.99
-74.72
-68.50
-57.67
-43.35
-27.12
-10.66
4.59
17.67
28.11
35.81
40.91
43.66
44.36
43.36
41.08
38.02
34.76
31.83
29.65
28.43
28.07
28.32
28.84
29.34
29.70
29.89
29.90
29.62
28.74
26.91
23.78
19.29
13.67
7.46
1.25
-4.52
-9.73
-14.55
-19.38
-24.63
-30.65
-37.60
-45.47
-53.85
-61.98
-68.69
-72.56
-72.37
-67.40
-57.82
-44.56
-29.18
-13.31
1.59
14.57
25.12
33.09
38.55
41.66
42.66
41.89
39.78
36.89
33.85
31.18
29.19
27.87
26.95
26.10
25.09
23.97
22.99
22.39
22.23
22.21
21.77
20.28
17.29
12.74
6.97
0.63
-5.63
-11.31
-16.25
-20.60
-24.74
-29.11
-34.12
-40.06
-46.98
-54.48
-61.70
-67.33
-69.89
-68.18
-61.66
-50.73
-36.61
-20.94
-5.38
8.78
20.79
30.29
37.18
41.49
43.38
43.14
41.25
38.35
35.08
31.99
29.48
27.69
26.54
25.84
25.39
25.08
24.94
25.07
25.47
25.94
25.97
24.99
22.47
18.28
12.69
6.28
-0.23
-6.33
-11.82
-16.76
-21.45
-26.22
-31.37
-37.18
-43.75
-50.94
-58.24
-64.64
-68.83
-69.50
-65.75
-57.51
-45.54
-31.29
-16.40
-2.27
10.24
20.79
29.37
35.99
40.57
42.94
43.12
41.47
38.65
35.53
32.83
30.89
29.65
28.75
27.86
26.81
25.75
24.93
24.53
24.45
24.31
23.57
21.78
18.71
14.50
9.51
4.17
-1.14
-6.23
-11.08
-15.78
-20.50
-25.47
-31.02
-37.43
-44.87
-53.08
-61.27
-68.17
-72.27
-72.32
-67.69
-58.58
-45.93
-31.12
-15.58
-0.51
13.17
24.87
34.18
40.85
44.79
46.17
45.40
43.16
40.15
37.04
34.24
31.92
30.02
28.38
26.81
25.23
23.68
22.26
21.11
20.26
19.61
18.79
17.36
14.83
10.94
5.79
-0.20
-6.36
-12.09
-17.02
-21.26
-25.22
-29.57
-34.91
-41.59
-49.46
-57.86
-65.59
-71.17
-73.20
-70.72
-63.49
-52.07
-37.65
-21.77
-5.93
8.63
21.11
31.05
38.34
43.03
45.36
45.69
44.48
42.26
39.54
36.76
34.27
32.18
30.51
29.11
27.88
26.72
25.69
24.89
24.38
24.05
23.56
22.42
20.15
16.44
11.39
5.44
-0.71
-6.42
-11.35
-15.58
-19.58
-24.04
-29.53
-36.30
-44.14
-52.36
-59.96
-65.76
-68.67
-67.87
-62.93
-53.97
-41.62
-27.00
-11.49
3.50
16.82
27.72
35.91
41.43
44.53
45.48
44.60
42.26
38.94
35.22
31.67
28.71
26.51
25.00
23.96
23.15
22.45
21.86
21.40
20.97
20.33
19.08
16.82
13.34
8.71
3.34
-2.21
-7.43
-12.03
-16.09
-19.99
-24.28
-29.49
-35.94
-43.57
-51.80
-59.59
-65.55
-68.27
-66.70
-60.50
-50.09
-36.61
-21.51
-6.22
8.09
20.64
30.94
38.71
43.81
46.26
46.25
44.20
40.67
36.35
31.92
27.90
24.63
22.20
20.50
19.31
18.46
17.82
17.42
17.24
17.17
16.91
16.02
14.10
10.95
6.69
1.75
-3.33
-8.11
-12.35
-16.10
-19.67
-23.46
-27.95
-33.50
-40.24
-47.93
-55.80
-62.65
-66.98
-67.44
-63.21
-54.33
-41.66
-26.68
-11.06
3.74
16.71
27.34
35.39
40.80
43.61
43.96
42.20
38.94
34.96
30.98
27.51
24.71
22.55
20.84
19.52
18.66
18.39
18.76
19.60
20.49
20.90
20.34
18.54
15.56
11.65
7.22
2.60
-2.02
-6.59
-11.16
-15.79
-20.60
-25.79
-31.63
-38.36
-45.92
-53.76
-60.70
-65.19
-65.74
-61.47
-52.48
-39.83
-25.17
-10.20
3.78
16.01
26.16
34.06
39.56
42.48
42.83
40.93
37.46
33.28
29.20
25.74
23.06
21.02
19.41
18.07
16.96
16.17
15.76
15.67
15.67
15.40
14.48
12.59
9.67
5.90
1.61
-2.80
-7.04
-11.05
-14.94
-19.02
-23.59
-28.95
-35.26
-42.47
-50.13
-57.36
-62.85
-65.17
-63.23
-56.62
-45.83
-32.11
-17.09
-2.33
11.06
22.38
31.33
37.69
41.31
42.14
40.37
36.61
31.72
26.64
22.13
18.55
15.89
13.90
12.36
11.18
10.46
10.30
10.70
11.43
12.07
12.15
11.32
9.44
6.61
3.04
-0.96
-5.15
-9.37
-13.60
-17.95
-22.69
-28.16
-34.68
-42.23
-50.32
-57.76
-63.01
-64.51
-61.32
-53.38
-41.59
-27.41
-12.45
1.95
14.91
25.84
34.34
40.11
43.08
43.39
41.52
38.19
34.15
30.05
26.30
23.11
20.49
18.40
16.80
15.69
15.12
15.12
15.57
16.12
16.29
15.54
13.50
10.11
5.64
0.55
-4.62
-9.46
-13.83
-17.87
-21.98
-26.74
-32.69
-40.10
-48.68
-57.52
-65.15
-69.91
-70.42
-65.97
-56.78
-43.88
-28.85
-13.29
1.45
14.51
25.40
33.89
39.83
43.11
43.83
42.34
39.36
35.71
32.19
29.22
26.85
24.86
23.08
21.50
20.34
19.83
20.01
20.54
20.78
20.06
17.92
14.24
9.36
3.78
-1.91
-7.31
-12.21
-16.68
-21.03
-25.75
-31.41
-38.43
-46.81
-55.93
-64.54
-70.90
-73.38
-70.84
-63.04
-50.71
-35.31
-18.58
-2.13
12.80
25.40
35.25
42.12
46.04
47.22
46.15
43.50
40.02
36.35
32.90
29.81
27.05
24.58
22.47
20.87
19.96
19.78
20.13
20.57
20.56
19.62
17.45
14.06
9.65
4.63
-0.66
-5.96
-11.20
-16.50
-22.16
-28.53
-35.88
-44.18
-52.91
-60.97
-66.85
-69.02
-66.34
-58.54
-46.33
-31.17
-14.86
0.91
14.92
26.46
35.24
41.16
44.30
44.87
43.30
40.24
36.48
32.76
29.56
27.07
25.25
23.89
22.86
22.12
21.75
21.74
21.96
22.06
21.59
20.12
17.43
13.59
8.95
3.98
-0.84
-5.25
-9.24
-13.10
-17.38
-22.68
-29.44
-37.69
-46.80
-55.56
-62.36
-65.58
-64.08
-57.51
-46.43
-32.09
-16.16
-0.30
14.15
26.28
35.62
42.03
45.62
46.63
45.44
42.58
38.69
34.48
30.54
27.33
24.98
23.37
22.30
21.57
21.09
20.85
20.77
20.63
20.00
18.43
15.60
11.47
6.37
0.83
-4.62
-9.68
-14.35
-18.98
-24.05
-30.05
-37.23
-45.45
-54.02
-61.77
-67.24
-68.99
-66.07
-58.28
-46.31
-31.49
-15.47
0.22
14.41
26.40
35.86
42.65
46.76
48.26
47.39
44.60
40.55
36.02
31.72
28.16
25.60
23.97
23.05
22.55
22.25
22.01
21.73
21.31
20.53
19.08
16.62
12.96
8.10
2.36
-3.72
-9.61
-14.97
-19.80
-24.49
-29.63
-35.84
-43.44
-52.29
-61.61
-70.06
-76.00
-77.93
-74.84
-66.61
-53.94
-38.20
-21.06
-4.12
11.38
24.59
35.05
42.54
47.05
48.78
48.11
45.67
42.21
38.53
35.21
32.62
30.76
29.42
28.35
27.32
26.33
25.49
24.96
24.75
24.68
24.29
23.00
20.32
16.09
10.54
4.27
-2.04
-7.86
-13.05
-17.91
-23.01
-29.00
-36.33
-45.01
-54.53
-63.76
-71.15
-75.04
-74.12
-67.80
-56.52
-41.53
-24.64
-7.66
7.92
21.18
31.63
39.18
43.89
45.99
45.85
44.00
41.08
37.78
34.63
31.99
29.94
28.39
27.17
26.16
25.31
24.68
24.32
24.15
23.93
23.20
21.44
18.30
13.74
8.09
1.98
-3.90
-9.11
-13.59
-17.66
-21.91
-26.93
-33.16
-40.63
-48.92
-57.15
-64.02
-68.07
-68.00
-63.10
-53.46
-40.07
-24.47
-8.43
6.56
19.48
29.83
37.45
42.42
44.90
45.20
43.73
41.05
37.75
34.38
31.38
28.95
27.16
25.95
25.21
24.87
24.90
25.19
25.58
25.72
25.13
23.35
20.13
15.52
9.95
4.02
-1.70
-6.87
-11.49
-15.82
-20.36
-25.65
-32.11
-39.84
-48.49
-57.10
-64.27
-68.41
-68.22
-63.04
-53.16
-39.65
-24.07
-8.03
7.14
20.52
31.55
39.88
45.25
47.52
46.78
43.51
38.52
32.84
27.51
23.25
20.40
18.82
18.10
17.77
17.51
17.24
17.06
17.09
17.29
17.36
16.79
15.00
11.72
7.02
1.40
-4.47
-10.00
-14.93
-19.43
-23.97
-29.12
-35.40
-43.05
-51.94
-61.46
-70.46
-77.37
-80.55
-78.73
-71.46
-59.30
-43.63
-26.29
-9.03
6.80
20.41
31.37
39.50
44.73
47.12
46.97
44.78
41.29
37.27
33.35
29.91
27.05
24.70
22.75
21.19
20.11
19.64
19.89
20.70
21.69
22.24
21.72
19.68
16.03
11.09
5.43
-0.33
-5.80
-10.87
-15.79
-21.00
-26.98
-34.09
-42.40
-51.53
-60.58
-68.19
-72.72
-72.82
-67.78
-57.82
-44.04
-28.08
-11.63
3.89
17.55
28.83
37.47
43.36
46.57
47.31
45.99
43.23
39.70
36.02
32.64
29.80
27.46
25.52
23.87
22.51
21.57
21.16
21.18
21.28
20.86
19.32
16.35
12.04
6.85
1.38
-3.89
-8.78
-13.41
-18.14
-23.41
-29.64
-37.06
-45.58
-54.57
-62.88
-68.95
-71.20
-68.57
-60.86
-48.81
-33.84
-17.62
-1.69
12.80
25.12
34.86
41.82
45.98
47.52
46.81
44.40
40.91
36.95
33.01
29.44
26.42
24.02
22.21
20.94
20.18
19.91
20.07
20.41
20.55
19.95
18.11
14.82
10.18
4.67
-1.10
-6.59
-11.60
-16.34
-21.35
-27.26
-34.52
-43.14
-52.53
-61.52
-68.59
-72.19
-71.17
-65.13
-54.54
-40.57
-24.77
-8.65
6.52
19.85
30.76
38.88
44.04
46.29
45.97
43.64
40.08
36.07
32.20
28.83
26.03
23.71
21.71
19.98
18.55
17.55
17.07
16.98
16.95
16.44
14.93
12.14
8.12
3.27
-1.86
-6.76
-11.20
-15.30
-19.48
-24.36
-30.49
-38.09
-46.80
-55.59
-62.86
-66.91
-66.39
-60.76
-50.48
-36.76
-21.22
-5.44
9.35
22.27
32.73
40.35
44.91
46.47
45.40
42.34
38.11
33.48
29.07
25.26
22.23
19.98
18.44
17.51
17.07
16.95
16.96
16.81
16.22
14.91
12.71
9.58
5.65
1.17
-3.56
-8.31
-12.94
-17.53
-22.34
-27.76
-34.25
-42.04
-50.92
-60.05
-67.98
-72.96
-73.47
-68.73
-58.96
-45.25
-29.24
-12.59
3.31
17.55
29.52
38.87
45.41
49.10
50.12
48.93
46.17
42.54
38.66
34.94
31.57
28.63
26.12
24.07
22.56
21.67
21.35
21.40
21.39
20.83
19.23
16.32
12.11
6.89
1.19
-4.49
-9.82
-14.75
-19.55
-24.67
-30.63
-37.78
-46.17
-55.32
-64.15
-71.16
-74.72
-73.52
-67.01
-55.62
-40.60
-23.70
-6.67
9.07
22.61
33.47
41.43
46.48
48.69
48.42
46.18
42.68
38.68
34.82
31.50
28.87
26.88
25.35
24.16
23.29
22.81
22.76
23.04
23.29
23.02
21.66
18.83
14.50
9.04
3.02
-2.92
-8.41
-13.41
-18.29
-23.63
-30.03
-37.85
-47.01
-56.83
-66.06
-73.10
-76.37
-74.72
-67.81
-56.20
-41.19
-24.47
-7.71
7.73
20.96
31.48
39.07
43.75
45.71
45.35
43.22
39.99
36.29
32.62
29.29
26.39
23.94
21.97
20.52
19.63
19.28
19.27
19.27
18.88
17.74
15.63
12.55
8.69
4.35
-0.14
-4.56
-8.84
-13.10
-17.64
-22.85
-29.09
-36.54
-44.99
-53.69
-61.37
-66.48
-67.58
-63.83
-55.24
-42.73
-27.82
-12.14
2.88
16.30
27.54
36.29
42.34
45.57
46.07
44.25
40.81
36.66
32.63
29.27
26.77
25.01
23.70
22.59
21.59
20.75
20.15
19.81
19.57
19.06
17.86
15.58
12.03
7.29
1.75
-4.10
-9.79
-15.07
-19.97
-24.79
-29.98
-35.99
-43.09
-51.21
-59.73
-67.53
-73.05
-74.79
-71.64
-63.36
-50.63
-34.86
-17.80
-1.04
14.20
27.17
37.44
44.78
49.16
50.71
49.83
47.13
43.37
39.30
35.51
32.38
30.00
28.26
26.95
25.83
24.75
23.65
22.58
21.56
20.49
19.11
17.05
13.96
9.73
4.49
-1.32
-7.17
-12.62
-17.54
-22.10
-26.75
-32.01
-38.34
-45.96
-54.64
-63.66
-71.82
-77.58
-79.43
-76.32
-67.98
-55.04
-38.86
-21.19
-3.69
12.32
25.97
36.78
44.56
49.26
51.08
50.41
47.86
44.16
40.04
36.10
32.70
29.97
27.81
26.07
24.65
23.53
22.77
22.42
22.39
22.41
21.99
20.61
17.88
13.64
8.11
1.82
-4.63
-10.70
-16.13
-21.00
-25.69
-30.76
-36.74
-43.96
-52.28
-60.97
-68.73
-73.94
-75.09
-71.24
-62.33
-49.19
-33.31
-16.37
0.12
15.05
27.73
37.77
44.93
49.17
50.58
49.58
46.81
43.07
39.13
35.56
32.63
30.34
28.51
26.98
25.69
24.71
24.12
23.91
23.89
23.68
22.80
20.88
17.69
13.30
7.98
2.17
-3.69
-9.29
-14.50
-19.38
-24.20
-29.41
-35.45
-42.64
-50.88
-59.49
-67.19
-72.34
-73.42
-69.54
-60.71
-47.86
-32.52
-16.32
-0.64
13.55
25.69
35.41
42.43
46.54
47.71
46.24
42.73
38.07
33.18
28.79
25.29
22.68
20.72
19.13
17.77
16.67
15.93
15.57
15.36
14.86
13.61
11.27
7.83
3.58
-0.99
-5.45
-9.54
-13.30
-16.95
-20.87
-25.47
-31.07
-37.86
-45.72
-54.08
-61.93
-67.82
-70.27
-68.13
-61.02
-49.50
-34.92
-18.97
-3.27
11.04
23.27
33.12
40.43
45.06
46.99
46.39
43.76
39.94
35.81
32.12
29.22
27.08
25.37
23.76
22.09
20.49
19.20
18.43
18.12
17.90
17.15
15.34
12.15
7.69
2.37
-3.21
-8.52
-13.30
-17.62
-21.84
-26.51
-32.17
-39.19
-47.49
-56.36
-64.55
-70.40
-72.31
-69.24
-61.03
-48.48
-33.11
-16.67
-0.72
13.67
25.95
35.85
43.22
47.90
49.80
49.03
46.00
41.42
36.16
30.97
26.39
22.60
19.55
17.07
15.08
13.60
12.74
12.49
12.61
12.59
11.78
9.62
5.92
0.97
-4.45
-9.47
-13.33
-15.74
-16.90
-17.46
-18.28
-20.24
-24.03
-29.91
-37.56
-45.88
-53.16
-57.39
-56.83
-50.62
-39.06
-23.55
-6.07
11.41
27.46
41.22
52.29
60.44
65.46
67.27
66.08
62.53
57.63
52.47
47.87
44.17
41.24
38.70
36.12
33.36
30.55
27.97
25.83
24.10
22.42
20.25
17.07
12.65
7.17
1.17
-4.74
-10.11
-14.80
-19.05
-23.36
-28.25
-34.16
-41.33
-49.62
-58.50
-66.92
-73.48
-76.69
-75.42
-69.29
-58.80
-45.21
-30.16
-15.19
-1.46
10.35
19.93
27.14
31.90
34.21
34.24
32.40
29.37
25.91
22.70
20.12
18.23
16.85
15.78
14.88
14.22
13.83
13.72
13.69
13.39
12.41
10.43
7.38
3.42
-1.08
-5.72
-10.17
-14.38
-18.49
-22.93
-28.18
-34.59
-42.23
-50.62
-58.76
-65.26
-68.67
-67.85
-62.31
-52.35
-39.05
-23.96
-8.69
5.35
17.22
26.43
32.91
36.84
38.51
38.31
36.66
34.05
30.97
27.87
25.04
22.62
20.62
19.05
17.92
17.28
17.19
17.54
18.01
18.10
17.30
15.21
11.68
6.92
1.40
-4.28
-9.62
-14.37
-18.63
-22.87
-27.79
-34.03
-41.89
-51.01
-60.32
-68.19
-72.87
-72.96
-67.83
-57.80
-44.01
-28.08
-11.72
3.62
16.94
27.68
35.62
40.81
43.47
43.94
42.69
40.24
37.14
33.90
30.94
28.47
26.58
25.20
24.25
23.58
23.12
22.82
22.55
22.11
21.18
19.38
16.43
12.24
7.02
1.22
-4.60
-10.01
-14.88
-19.47
-24.34
-30.15
-37.29
-45.66
-54.43
-62.20
-67.32
-68.35
-64.51
-55.92
-43.48
-28.64
-12.92
2.31
16.02
27.50
36.34
42.30
45.41
45.98
44.56
41.83
38.53
35.26
32.40
30.10
28.31
26.89
25.75
24.86
24.23
23.87
23.64
23.23
22.23
20.26
17.11
12.82
7.72
2.24
-3.11
-8.00
-12.33
-16.33
-20.53
-25.57
-32.00
-39.95
-48.88
-57.59
-64.47
-67.94
-66.92
-61.16
-51.24
-38.34
-23.95
-9.47
4.00
15.72
25.29
32.54
37.44
40.08
40.66
39.55
37.21
34.19
31.03
28.09
25.57
23.51
21.86
20.58
19.68
19.12
18.77
18.35
17.48
15.82
13.19
9.66
5.49
1.04
-3.37
-7.58
-11.61
-15.70
-20.16
-25.37
-31.61
-38.87
-46.71
-54.16
-59.85
-62.37
-60.67
-54.44
-44.23
-31.26
-17.07
-3.05
9.74
20.65
29.25
35.30
38.68
39.53
38.21
35.42
31.97
28.59
25.75
23.59
21.99
20.73
19.64
18.70
17.98
17.53
17.26
16.93
16.15
14.59
12.10
8.70
4.59
0.03
-4.75
-9.56
-14.31
-18.99
-23.81
-29.19
-35.56
-43.16
-51.56
-59.62
-65.64
-67.87
-65.16
-57.41
-45.57
-31.23
-16.13
-1.65
11.32
22.33
31.12
37.49
41.35
42.72
41.96
39.67
36.62
33.52
30.78
28.49
26.53
24.71
22.99
21.53
20.56
20.23
20.42
20.70
20.44
19.07
16.27
12.14
7.11
1.73
-3.50
-8.35
-12.86
-17.32
-22.16
-27.81
-34.61
-42.62
-51.40
-59.95
-66.79
-70.24
-69.02
-62.60
-51.45
-36.88
-20.60
-4.32
10.61
23.30
33.23
40.17
44.11
45.30
44.27
41.77
38.63
35.55
32.96
31.00
29.53
28.28
27.06
25.81
24.64
23.75
23.19
22.85
22.32
21.11
18.75
15.09
10.26
4.72
-0.96
-6.31
-11.09
-15.39
-19.60
-24.29
-30.04
-37.14
-45.41
-54.00
-61.54
-66.36
-67.04
-62.84
-53.91
-41.27
-26.50
-11.22
3.23
15.92
26.30
34.03
38.95
41.06
40.64
38.30
34.93
31.42
28.50
26.50
25.33
24.66
24.10
23.45
22.78
22.24
21.97
21.88
21.63
20.75
18.80
15.62
11.31
6.25
0.90
-4.32
-9.17
-13.59
-17.69
-21.74
-26.07
-31.09
-37.11
-44.17
-51.78
-58.91
-64.06
-65.71
-62.78
-55.06
-43.31
-28.99
-13.83
0.65
13.47
24.13
32.42
38.26
41.58
42.39
40.94
37.81
33.86
30.02
27.05
25.31
24.70
24.83
25.21
25.50
25.58
25.52
25.42
25.27
24.85
23.83
21.85
18.75
14.63
9.78
4.61
-0.51
-5.35
-9.85
-14.13
-18.46
-23.23
-28.86
-35.61
-43.38
-51.50
-58.70
-63.37
-64.05
-59.93
-51.19
-38.87
-24.59
-9.95
3.82
15.96
26.01
33.61
38.42
40.26
39.30
36.21
31.99
27.72
24.18
21.72
20.27
19.50
19.10
18.88
18.85
19.10
19.63
20.29
20.70
20.44
19.10
16.50
12.76
8.24
3.42
-1.30
-5.74
-9.91
-14.00
-18.25
-22.93
-28.29
-34.51
-41.53
-48.88
-55.59
-60.28
-61.55
-58.45
-50.87
-39.56
-25.96
-11.68
1.90
13.86
23.67
31.07
35.90
38.08
37.79
35.50
32.02
28.23
24.88
22.41
20.84
19.93
19.38
18.99
18.68
18.52
18.53
18.63
18.59
18.07
16.77
14.47
11.19
7.16
2.73
-1.78
-6.11
-10.20
-14.14
-18.22
-22.77
-28.18
-34.68
-42.23
-50.24
-57.58
-62.71
-64.08
-60.73
-52.56
-40.52
-26.21
-11.42
2.45
14.59
24.68
32.72
38.65
42.33
43.66
42.77
40.17
36.73
33.34
30.66
28.92
27.88
27.05
26.03
24.70
23.27
22.07
21.34
20.96
20.52
19.42
17.16
13.54
8.72
3.17
-2.55
-7.99
-12.93
-17.37
-21.54
-25.76
-30.37
-35.74
-42.08
-49.42
-57.36
-65.03
-71.07
-73.98
-72.49
-66.08
-55.20
-41.10
-25.50
-10.05
4.02
16.06
25.83
33.30
38.48
41.37
42.10
41.05
38.79
36.10
33.68
32.00
31.14
30.91
30.91
30.80
30.39
29.72
28.97
28.31
27.73
27.02
25.80
23.65
20.31
15.77
10.29
4.34
-1.60
-7.15
-12.13
-16.61
-20.88
-25.35
-30.47
-36.61
-43.87
-51.91
-59.87
-66.39
-69.97
-69.36
-63.97
-54.09
-40.80
-25.71
-10.44
3.68
15.79
25.48
32.65
37.37
39.79
40.19
38.96
36.60
33.72
30.91
28.62
27.07
26.19
25.69
25.24
24.57
23.68
22.73
21.95
21.44
21.03
20.32
18.83
16.22
12.47
7.88
2.92
-1.97
-6.53
-10.73
-14.74
-18.86
-23.42
-28.75
-35.08
-42.39
-50.29
-57.92
-64.04
-67.28
-66.55
-61.35
-51.99
-39.51
-25.32
-10.89
2.60
14.39
24.06
31.38
36.26
38.66
38.75
36.91
33.76
30.09
26.67
24.07
22.53
21.94
21.96
22.18
22.27
22.13
21.81
21.42
20.99
20.35
19.15
16.97
13.60
9.09
3.89
-1.44
-6.34
-10.56
-14.20
-17.68
-21.56
-26.34
-32.29
-39.33
-46.95
-54.22
-59.91
-62.76
-61.78
-56.56
-47.46
-35.46
-21.95
-8.32
4.31
15.21
23.98
30.45
34.56
36.34
35.97
33.88
30.71
27.20
24.08
21.75
20.30
19.52
19.05
18.58
18.07
17.59
17.36
17.40
17.52
17.26
16.12
13.74
10.07
5.44
0.39
-4.55
-9.03
-13.02
-16.82
-20.89
-25.81
-32.00
-39.59
-48.23
-57.00
-64.52
-69.22
-69.76
-65.48
-56.64
-44.33
-30.11
-15.57
-1.91
10.17
20.36
28.54
34.57
38.30
39.68
38.94
36.59
33.42
30.23
27.64
25.85
24.75
24.02
23.40
22.75
22.18
21.81
21.66
21.49
20.85
19.25
16.33
12.07
6.82
1.14
-4.43
-9.53
-14.08
-18.26
-22.37
-26.80
-31.90
-37.95
-45.04
-52.92
-60.76
-67.23
-70.73
-69.97
-64.36
-54.32
-41.12
-26.43
-11.80
1.66
13.37
23.10
30.72
36.12
39.20
40.05
39.09
36.98
34.46
32.17
30.44
29.28
28.48
27.82
27.19
26.64
26.34
26.41
26.74
27.05
26.88
25.84
23.65
20.26
15.87
10.78
5.39
0.08
-4.88
-9.42
-13.74
-18.30
-23.71
-30.43
-38.57
-47.60
-56.37
-63.34
-66.96
-66.14
-60.53
-50.63
-37.62
-22.96
-8.13
5.70
17.67
27.24
34.10
38.13
39.47
38.57
36.16
33.13
30.27
28.10
26.73
25.94
25.37
24.75
24.01
23.31
22.86
22.73
22.77
22.63
21.86
20.14
17.33
13.53
9.01
4.10
-0.91
-5.81
-10.52
-15.14
-19.94
-25.33
-31.71
-39.18
-47.37
-55.29
-61.50
-64.51
-63.27
-57.53
-47.88
-35.49
-21.81
-8.11
4.63
15.73
24.74
31.29
35.20
36.51
35.61
33.16
29.97
26.76
24.05
22.02
20.61
19.66
19.00
18.58
18.43
18.55
18.82
18.98
18.61
17.33
14.91
11.38
6.98
2.10
-2.85
-7.63
-12.19
-16.69
-21.45
-26.88
-33.31
-40.76
-48.83
-56.55
-62.52
-65.26
-63.61
-57.22
-46.63
-33.15
-18.41
-3.90
9.33
20.75
30.11
37.26
42.01
44.23
44.05
41.95
38.76
35.38
32.51
30.42
28.94
27.70
26.36
24.86
23.38
22.28
21.74
21.67
21.59
20.82
18.74
15.06
9.92
3.84
-2.45
-8.35
-13.56
-18.14
-22.46
-27.11
-32.62
-39.37
-47.38
-56.17
-64.66
-71.35
-74.59
-73.13
-66.52
-55.28
-40.76
-24.75
-8.92
5.46
17.73
27.63
35.17
40.34
43.18
43.82
42.62
40.20
37.30
34.61
32.51
31.06
30.03
29.12
28.17
27.23
26.54
26.23
26.25
26.19
25.49
23.59
20.27
15.65
10.20
4.46
-1.11
-6.30
-11.15
-15.87
-20.75
-26.18
-32.53
-40.02
-48.50
-57.26
-64.96
-69.95
-70.71
-66.41
-57.22
-44.25
-29.14
-13.61
1.03
13.96
24.81
33.39
39.57
43.28
44.60
43.83
41.58
38.57
35.53
32.99
31.14
29.86
28.89
27.94
26.91
25.88
25.05
24.54
24.21
23.69
22.44
20.00
16.22
11.32
5.80
0.25
-4.87
-9.42
-13.50
-17.44
-21.67
-26.66
-32.77
-40.11
-48.28
-56.33
-62.81
-66.09
-64.90
-58.78
-48.22
-34.58
-19.56
-4.75
8.77
20.45
30.11
37.68
43.03
46.05
46.75
45.42
42.67
39.26
35.94
33.16
31.03
29.36
27.86
26.31
24.71
23.23
22.01
21.05
20.13
18.81
16.68
13.52
9.43
4.76
-0.02
-4.50
-8.50
-12.11
-15.64
-19.49
-24.11
-29.83
-36.75
-44.62
-52.68
-59.78
-64.51
-65.61
-62.31
-54.59
-43.21
-29.45
-14.77
-0.45
12.53
23.53
32.12
38.04
41.16
41.66
40.00
36.94
33.35
29.97
27.23
25.17
23.60
22.26
21.02
19.95
19.21
18.93
19.00
19.08
18.66
17.26
14.65
10.87
6.28
1.39
-3.30
-7.52
-11.22
-14.71
-18.45
-23.00
-28.77
-35.88
-43.95
-52.07
-58.89
-62.92
-62.93
-58.32
-49.29
-36.82
-22.37
-7.44
6.64
18.97
29.00
36.41
41.05
42.94
42.35
39.86
36.28
32.52
29.27
26.89
25.30
24.17
23.14
22.05
20.98
20.15
19.67
19.42
19.00
17.90
15.69
12.24
7.72
2.52
-2.92
-8.23
-13.22
-17.86
-22.28
-26.74
-31.64
-37.37
-44.25
-52.15
-60.35
-67.52
-72.00
-72.31
-67.60
-58.02
-44.62
-29.05
-13.01
2.09
15.37
26.35
34.81
40.63
43.79
44.48
43.19
40.63
37.65
34.89
32.72
31.12
29.82
28.54
27.16
25.76
24.59
23.80
23.38
23.04
22.36
20.91
18.41
14.83
10.32
5.22
-0.12
-5.40
-10.43
-15.16
-19.75
-24.55
-30.05
-36.71
-44.71
-53.65
-62.47
-69.62
-73.44
-72.72
-67.05
-56.97
-43.67
-28.65
-13.33
1.21
14.20
25.09
33.51
39.22
42.22
42.80
41.55
39.18
36.42
33.84
31.76
30.19
29.02
28.03
27.08
26.20
25.48
25.02
24.81
24.65
24.15
22.92
20.65
17.26
12.92
8.01
2.90
-2.11
-6.89
-11.51
-16.16
-21.21
-27.05
-33.97
-42.01
-50.63
-58.76
-64.87
-67.41
-65.36
-58.54
-47.70
-34.20
-19.61
-5.26
7.96
19.49
29.01
36.20
40.87
42.98
42.80
40.94
38.15
35.14
32.38
30.01
27.96
26.10
24.32
22.69
21.34
20.41
19.91
19.72
19.55
19.04
17.80
15.55
12.22
7.91
2.99
-2.14
-7.04
-11.51
-15.59
-19.61
-24.12
-29.68
-36.62
-44.74
-53.25
-60.78
-65.77
-66.88
-63.42
-55.58
-44.25
-30.77
-16.51
-2.61
10.10
21.02
29.78
36.03
39.62
40.63
39.43
36.65
33.04
29.30
25.92
23.13
20.93
19.22
17.96
17.16
16.87
17.12
17.78
18.55
18.99
18.61
17.03
14.09
9.92
4.92
-0.39
-5.51
-10.16
-14.33
-18.27
-22.44
-27.34
-33.33
-40.44
-48.23
-55.79
-61.81
-64.92
-64.04
-58.73
-49.34
-36.88
-22.78
-8.45
4.92
16.54
25.99
33.05
37.73
40.13
40.51
39.26
36.87
33.89
30.83
28.13
26.09
24.81
24.19
24.03
24.02
23.95
23.70
23.26
22.59
21.57
19.93
17.41
13.82
9.22
3.94
-1.57
-6.82
-11.52
-15.63
-19.38
-23.26
-27.88
-33.75
-41.13
-49.75
-58.69
-66.56
-71.77
-72.95
-69.38
-61.18
-49.18
-34.72
-19.31
-4.30
9.27
20.69
29.58
35.84
39.56
41.05
40.71
39.01
36.46
33.55
30.71
28.30
26.56
25.56
25.25
25.44
25.84
26.22
26.40
26.33
25.97
25.26
24.01
21.93
18.71
14.24
8.72
2.61
-3.53
-9.26
-14.47
-19.32
-24.13
-29.26
-35.03
-41.64
-49.13
-57.25
-65.24
-71.80
-75.39
-74.54
-68.51
-57.52
-42.82
-26.23
-9.68
5.35
17.98
27.92
35.25
40.16
42.83
43.50
42.48
40.26
37.47
34.77
32.66
31.32
30.62
30.23
29.80
29.18
28.42
27.73
27.25
26.96
26.56
25.61
23.70
20.63
16.49
11.60
6.39
1.18
-3.81
-8.50
-12.92
-17.17
-21.48
-26.21
-31.81
-38.61
-46.58
-55.06
-62.74
-68.00
-69.31
-65.78
-57.46
-45.34
-30.94
-15.91
-1.59
11.15
21.89
30.48
36.81
40.81
42.49
42.05
39.95
36.85
33.51
30.51
28.18
26.58
25.53
24.81
24.25
23.81
23.50
23.36
23.32
23.20
22.70
21.49
19.35
16.18
12.08
7.32
2.23
-2.86
-7.73
-12.24
-16.41
-20.45
-24.72
-29.68
-35.74
-43.02
-51.13
-59.09
-65.49
-68.81
-67.92
-62.43
-52.77
-40.07
-25.76
-11.25
2.36
14.37
24.32
31.93
37.05
39.66
40.00
38.49
35.80
32.62
29.55
27.01
25.11
23.82
22.93
22.27
21.71
21.23
20.84
20.55
20.26
19.73
18.67
16.79
13.93
10.17
5.78
1.16
-3.35
-7.61
-11.68
-15.76
-20.15
-25.08
-30.73
-37.14
-44.16
-51.34
-57.88
-62.66
-64.47
-62.39
-56.12
-46.07
-33.35
-19.37
-5.54
7.05
17.69
26.00
31.87
35.35
36.62
36.01
33.96
31.03
27.82
24.89
22.63
21.23
20.64
20.60
20.82
21.03
21.12
21.08
20.89
20.47
19.61
18.03
15.48
11.91
7.48
2.52
-2.59
-7.49
-12.03
-16.27
-20.46
-24.96
-30.14
-36.26
-43.29
-50.81
-57.92
-63.42
-65.98
-64.54
-58.64
-48.60
-35.49
-20.82
-6.17
7.20
18.56
27.62
34.37
38.89
41.25
41.51
39.92
36.96
33.32
29.77
26.95
25.17
24.37
24.26
24.39
24.37
24.00
23.26
22.29
21.24
20.11
18.75
16.88
14.23
10.70
6.41
1.66
-3.20
-7.95
-12.55
-17.10
-21.78
-26.81
-32.42
-38.87
-46.27
-54.40
-62.51
-69.34
-73.35
-73.17
-68.11
-58.44
-45.27
-30.27
-15.13
-1.15
10.92
20.86
28.69
34.47
38.21
39.98
39.93
38.48
36.24
33.86
31.82
30.32
29.29
28.50
27.80
27.16
26.70
26.52
26.56
26.60
26.27
25.19
23.12
20.01
16.02
11.43
6.54
1.62
-3.19
-7.81
-12.29
-16.78
-21.52
-26.79
-32.89
-40.01
-48.07
-56.53
-64.33
-70.02
-72.17
-69.78
-62.58
-51.23
-37.05
-21.68
-6.62
6.99
18.47
27.55
34.16
38.39
40.42
40.56
39.25
37.02
34.45
32.11
30.38
29.45
29.26
29.59
30.08
30.42
30.40
29.94
29.10
27.97
26.64
25.05
23.00
20.27
16.67
12.25
7.24
2.11
-2.73
-7.07
-11.03
-15.02
-19.60
-25.28
-32.26
-40.40
-49.09
-57.36
-63.99
-67.72
-67.54
-62.95
-54.13
-41.96
-27.76
-13.04
0.86
12.98
22.82
30.21
35.23
38.08
39.03
38.41
36.61
34.12
31.45
29.13
27.48
26.62
26.39
26.50
26.57
26.36
25.85
25.15
24.40
23.62
22.58
20.87
18.13
14.18
9.26
3.89
-1.29
-5.81
-9.57
-12.84
-16.16
-20.00
-24.72
-30.45
-37.12
-44.45
-51.89
-58.53
-63.22
-64.76
-62.28
-55.54
-45.10
-32.15
-18.18
-4.61
7.50
17.55
25.27
30.65
33.79
34.89
34.26
32.36
29.76
27.06
24.79
23.21
22.37
22.07
22.03
22.02
21.92
21.72
21.43
21.04
20.42
19.38
17.72
15.28
12.05
8.09
3.63
-1.06
-5.70
-10.11
-14.27
-18.33
-22.63
-27.56
-33.42
-40.24
-47.66
-54.84
-60.56
-63.44
-62.34
-56.75
-47.00
-34.21
-19.94
-5.77
7.11
18.06
26.84
33.41
37.76
39.85
39.78
37.90
34.85
31.44
28.40
26.18
24.88
24.31
24.17
24.19
24.20
24.17
24.10
23.98
23.70
23.08
21.81
19.63
16.37
12.06
6.94
1.36
-4.24
-9.56
-14.46
-19.04
-23.58
-28.49
-34.24
-41.18
-49.32
-58.10
-66.38
-72.57
-75.09
-72.82
-65.54
-53.99
-39.63
-24.12
-8.95
4.83
16.65
26.18
33.30
37.97
40.29
40.59
39.34
37.16
34.63
32.25
30.37
29.14
28.52
28.33
28.29
28.19
27.93
27.50
26.95
26.26
25.32
23.92
21.81
18.83
14.90
10.07
4.57
-1.29
-7.07
-12.40
-17.04
-21.08
-24.95
-29.31
-34.78
-41.68
-49.81
-58.38
-66.14
-71.61
-73.49
-70.93
-63.79
-52.67
-38.82
-23.73
-8.83
4.76
16.39
25.79
32.94
37.95
41.00
42.32
42.19
40.94
38.92
36.54
34.20
32.29
31.10
30.72
30.97
31.51
31.94
31.94
31.43
30.44
29.04
27.22
24.85
21.77
17.92
13.38
8.41
3.27
-1.81
-6.74
-11.48
-16.04
-20.46
-24.83
-29.41
-34.59
-40.73
-47.93
-55.70
-62.99
-68.27
-70.03
-67.31
-60.00
-48.93
-35.47
-21.19
-7.36
5.16
15.90
24.60
31.11
35.38
37.50
37.85
36.97
35.47
33.84
32.37
31.11
30.05
29.15
28.43
27.94
27.69
27.56
27.33
26.78
25.75
24.22
22.30
20.06
17.53
14.62
11.14
7.07
2.49
-2.30
-6.93
-11.20
-15.11
-18.96
-23.17
-28.16
-34.21
-41.28
-49.05
-56.84
-63.58
-68.06
-69.11
-65.96
-58.46
-47.23
-33.46
-18.62
-4.13
8.92
19.82
28.21
34.01
37.34
38.46
37.80
35.86
33.18
30.30
27.68
25.67
24.47
24.09
24.35
24.95
25.61
26.10
26.30
26.20
25.80
25.01
23.70
21.66
18.75
14.97
10.48
5.62
0.73
-3.92
-8.27
-12.35
-16.29
-20.26
-24.38
-28.92
-34.16
-40.31
-47.29
-54.49
-60.71
-64.43
-64.31
-59.61
-50.54
-38.09
-23.70
-8.79
5.52
18.47
29.53
38.31
44.56
48.28
49.78
49.70
48.76
47.65
46.77
46.29
46.14
46.15
46.10
45.71
44.75
43.00
40.42
37.07
33.19
29.08
25.01
21.11
17.41
13.85
10.35
6.88
3.43
-0.00
-3.47
-7.07
-10.99
-15.38
-20.46
-26.37
-33.29
-41.40
-50.85
-61.64
-73.43
-85.41
-96.23
-104.26
-107.98
-106.47
-99.69
-88.57
-74.69
-59.84
-45.54
-32.72
-21.75
-12.55
-4.85
1.58
6.80
10.77
13.43
14.89
15.44
15.61
15.92
16.79
18.33
20.39
22.66
24.83
26.71
28.25
29.41
30.06
30.00
29.04
27.00
23.88
19.83
15.09
9.87
4.42
-1.07
-6.36
-11.20
-15.46
-19.16
-22.63
-26.39
-31.05
-36.98
-44.10
-51.66
-58.34
-62.56
-62.92
-58.66
-49.91
-37.65
-23.42
-8.86
4.61
16.06
25.08
31.67
36.00
38.37
39.05
38.30
36.42
33.74
30.67
27.66
25.09
23.25
22.26
22.01
22.22
22.58
22.84
22.89
22.72
22.39
21.86
20.95
19.40
16.98
13.62
9.54
5.13
0.81
-3.17
-6.78
-10.24
-13.79
-17.67
-22.01
-26.93
-32.55
-38.90
-45.76
-52.49
-57.96
-60.78
-59.62
-53.77
-43.37
-29.46
-13.71
2.12
16.59
28.83
38.54
45.79
50.72
53.48
54.17
53.02
50.44
47.05
43.53
40.42
38.04
36.39
35.32
34.62
34.13
33.79
33.58
33.42
33.16
32.60
31.48
29.67
27.12
23.83
19.87
15.29
10.11
4.45
-1.52
-7.56
-13.44
-19.09
-24.67
-30.56
-37.18
-44.72
-52.89
-60.83
-67.22
-70.62
-69.93
-64.69
-55.25
-42.61
-28.20
-13.41
0.61
13.04
23.43
31.51
37.18
40.45
41.55
40.84
38.87
36.21
33.38
30.68
28.26
26.12
24.24
22.64
21.40
20.63
20.34
20.40
20.55
20.40
19.57
17.74
14.78
10.77
5.99
0.83
-4.30
-9.11
-13.56
-17.82
-22.30
-27.53
-33.92
-41.58
-50.08
-58.40
-65.13
-68.76
-68.19
-63.03
-53.76
-41.44
-27.48
-13.17
0.50
12.82
23.30
31.56
37.33
40.52
41.33
40.27
38.01
35.28
32.63
30.40
28.66
27.35
26.33
25.48
24.75
24.13
23.61
23.20
22.77
22.12
20.93
18.88
15.77
11.60
6.60
1.20
-4.19
-9.26
-13.98
-18.56
-23.42
-29.04
-35.79
-43.81
-52.79
-61.93
-69.95
-75.34
-76.72
-73.23
-64.79
-52.16
-36.69
-20.02
-3.66
11.18
23.74
33.64
40.74
45.18
47.29
47.58
46.73
45.47
44.42
43.97
44.13
44.61
44.97
44.81
44.00
42.74
41.44
40.56
40.28
40.43
40.46
39.62
37.24
32.98
26.88
19.36
10.97
2.26
-6.41
-14.92
-23.29
-31.63
-40.02
-48.45
-56.73
-64.39
-70.59
-74.28
-74.44
-70.39
-62.14
-50.41
-36.47
-21.77
-7.62
5.09
15.85
24.44
30.76
34.80
36.66
36.61
35.14
32.90
30.57
28.65
27.36
26.59
26.00
25.31
24.35
23.28
22.35
21.77
21.47
21.10
20.17
18.31
15.42
11.75
7.70
3.63
-0.39
-4.53
-9.07
-14.15
-19.75
-25.68
-31.69
-37.47
-42.61
-46.46
-48.12
-46.75
-41.91
-34.00
-24.24
-14.31
-5.78
0.47
4.40
6.56
7.60
7.87
7.28
5.54
2.55
-1.43
-5.72
-9.51
-12.18
-13.49
-13.61
-12.87
-11.63
-10.05
-8.10
-5.77
-3.19
-0.73
1.04
1.59
0.67
-1.58
-4.65
-7.93
-10.94
-13.55
-15.97
-18.67
-22.16
-26.84
-32.81
-39.73
-46.78
-52.70
-56.04
-55.52
-50.48
-41.02
-28.11
-13.22
2.01
16.14
28.21
37.66
44.36
48.40
50.08
49.83
48.10
45.37
42.04
38.40
34.60
30.74
26.93
23.44
20.64
18.94
18.57
19.36
20.74
21.83
21.83
20.21
16.94
12.35
6.98
1.30
-4.42
-10.15
-16.03
-22.33
-29.36
-37.23
-45.73
-54.06
-60.95
-64.89
-64.57
-59.44
-49.79
-36.77
-21.98
-7.02
6.79
18.57
27.85
34.44
38.40
40.01
39.71
38.06
35.63
32.85
30.03
27.34
24.91
22.84
21.27
20.31
20.01
20.22
20.66
20.93
20.61
19.38
17.10
13.86
9.90
5.53
1.05
-3.35
-7.63
-11.94
-16.62
-22.13
-28.81
-36.66
-45.09
-52.90
-58.53
-60.51
-57.92
-50.71
-39.69
-26.25
-11.96
1.81
14.08
24.25
32.03
37.33
40.19
40.84
39.61
37.02
33.66
30.13
26.92
24.26
22.13
20.41
18.98
17.85
17.19
17.11
17.54
18.07
18.06
16.92
14.34
10.48
5.86
1.09
-3.39
-7.51
-11.54
-15.91
-21.06
-27.23
-34.46
-42.42
-50.40
-57.30
-61.80
-62.67
-59.17
-51.30
-39.85
-26.17
-11.77
2.06
14.36
24.56
32.31
37.42
39.91
40.06
38.42
35.71
32.59
29.59
26.89
24.49
22.34
20.42
18.85
17.76
17.23
17.14
17.21
17.04
16.24
14.56
11.89
8.32
4.04
-0.67
-5.53
-10.32
-15.00
-19.73
-24.91
-30.96
-38.17
-46.28
-54.44
-61.25
-65.17
-64.94
-60.03
-50.80
-38.33
-24.08
-9.49
4.27
16.42
26.49
34.23
39.49
42.22
42.59
40.98
37.95
34.18
30.34
26.94
24.17
22.00
20.27
18.82
17.62
16.80
16.45
16.49
16.60
16.23
14.81
12.03
7.96
3.00
-2.23
-7.25
-11.85
-16.20
-20.70
-25.86
-32.05
-39.43
-47.74
-56.33
-64.06
-69.55
-71.46
-68.88
-61.64
-50.39
-36.39
-21.20
-6.25
7.39
19.04
28.30
34.98
38.99
40.44
39.68
37.29
33.99
30.46
27.23
24.62
22.72
21.47
20.76
20.47
20.50
20.76
21.14
21.48
21.54
21.03
19.60
17.02
13.23
8.47
3.21
-2.01
-6.85
-11.32
-15.80
-20.89
-27.14
-34.78
-43.59
-52.84
-61.40
-67.91
-71.06
-69.93
-64.15
-54.13
-40.93
-26.00
-10.83
3.37
15.77
25.91
33.57
38.66
41.24
41.57
40.07
37.37
34.16
31.08
28.59
26.89
25.92
25.44
25.18
24.94
24.67
24.43
24.27
24.10
23.62
22.41
20.04
16.34
11.46
5.88
0.21
-5.06
-9.73
-13.94
-18.10
-22.69
-28.14
-34.70
-42.34
-50.67
-58.86
-65.69
-69.73
-69.73
-65.00
-55.76
-43.02
-28.36
-13.39
0.62
12.91
23.11
31.08
36.74
40.06
41.14
40.33
38.20
35.46
32.76
30.55
28.99
28.00
27.35
26.82
26.31
25.85
25.52
25.32
25.11
24.55
23.27
20.97
17.59
13.31
8.43
3.32
-1.76
-6.64
-11.31
-15.83
-20.36
-25.20
-30.72
-37.29
-44.99
-53.39
-61.45
-67.66
-70.41
-68.55
-61.76
-50.68
-36.73
-21.59
-6.76
6.72
18.32
27.82
35.08
39.99
42.51
42.84
41.41
38.89
35.97
33.22
30.99
29.36
28.27
27.60
27.18
26.89
26.64
26.36
26.03
25.55
24.73
23.26
20.86
17.31
12.68
7.30
1.68
-3.73
-8.68
-13.15
-17.36
-21.61
-26.24
-31.58
-37.87
-45.16
-53.06
-60.63
-66.55
-69.39
-68.07
-62.26
-52.44
-39.71
-25.45
-10.95
2.81
15.10
25.40
33.31
38.59
41.21
41.42
39.77
36.91
33.52
30.11
27.05
24.53
22.67
21.55
21.16
21.37
21.98
22.70
23.20
23.26
22.68
21.36
19.22
16.19
12.28
7.61
2.48
-2.75
-7.70
-12.18
-16.26
-20.25
-24.63
-29.92
-36.43
-44.09
-52.25
-59.76
-65.16
-67.08
-64.67
-57.82
-47.18
-33.93
-19.42
-4.89
8.65
20.47
30.04
36.99
41.22
42.85
42.27
40.05
36.87
33.35
30.05
27.37
25.47
24.33
23.69
23.28
22.86
22.35
21.80
21.25
20.67
19.77
18.17
15.54
11.73
6.92
1.53
-3.93
-9.07
-13.74
-18.02
-22.21
-26.73
-31.98
-38.31
-45.78
-54.03
-62.21
-68.95
-72.72
-72.24
-66.85
-56.83
-43.26
-27.75
-11.96
2.73
15.44
25.77
33.66
39.21
42.59
43.98
43.63
41.88
39.17
36.02
32.96
30.38
28.52
27.34
26.67
26.26
25.88
25.48
25.05
24.58
23.93
22.80
20.83
17.74
13.52
8.43
2.94
-2.52
-7.63
-12.36
-16.88
-21.43
-26.28
-31.70
-37.95
-45.18
-53.31
-61.75
-69.36
-74.65
-76.14
-72.87
-64.75
-52.61
-37.90
-22.25
-7.08
6.71
18.57
28.24
35.52
40.30
42.59
42.66
41.08
38.62
36.03
33.84
32.29
31.31
30.64
30.01
29.28
28.45
27.66
27.01
26.51
26.00
25.17
23.72
21.39
18.14
14.05
9.37
4.36
-0.75
-5.78
-10.63
-15.36
-20.16
-25.42
-31.58
-38.97
-47.53
-56.62
-65.01
-71.13
-73.51
-71.17
-64.00
-52.71
-38.63
-23.30
-8.13
5.84
17.94
27.82
35.28
40.28
42.88
43.35
42.13
39.83
37.07
34.40
32.20
30.57
29.47
28.74
28.23
27.83
27.51
27.30
27.15
26.92
26.31
24.98
22.58
18.96
14.17
8.50
2.40
-3.66
-9.30
-14.40
-19.05
-23.57
-28.38
-33.93
-40.47
-47.96
-55.88
-63.24
-68.79
-71.20
-69.51
-63.35
-53.11
-39.82
-24.87
-9.69
4.54
16.98
27.15
34.82
39.93
42.59
43.01
41.60
38.88
35.46
31.95
28.87
26.56
25.15
24.58
24.62
25.03
25.53
25.98
26.27
26.29
25.87
24.73
22.61
19.30
14.85
9.51
3.73
-1.98
-7.27
-12.04
-16.44
-20.88
-25.82
-31.67
-38.63
-46.57
-54.87
-62.49
-68.07
-70.23
-68.03
-61.21
-50.33
-36.60
-21.52
-6.51
7.30
19.20
28.78
35.87
40.46
42.67
42.79
41.24
38.57
35.39
32.28
29.76
28.12
27.41
27.39
27.68
27.92
27.91
27.69
27.39
27.06
26.53
25.45
23.42
20.17
15.74
10.43
4.75
-0.87
-6.16
-11.08
-15.74
-20.38
-25.29
-30.76
-37.14
-44.67
-53.33
-62.56
-71.23
-77.74
-80.43
-78.13
-70.54
-58.42
-43.30
-27.05
-11.29
2.86
14.89
24.68
32.22
37.57
40.78
42.05
41.74
40.30
38.27
36.12
34.19
32.67
31.66
31.16
31.09
31.28
31.51
31.54
31.19
30.33
28.94
27.09
24.78
22.01
18.65
14.57
9.68
4.07
-2.00
-8.12
-13.89
-19.10
-23.85
-28.50
-33.63
-39.76
-47.12
-55.48
-63.97
-71.28
-75.85
-76.30
-71.87
-62.59
-49.36
-33.66
-17.18
-1.43
12.50
24.04
33.03
39.59
43.91
46.20
46.70
45.71
43.59
40.85
38.05
35.67
33.99
33.03
32.60
32.42
32.23
31.90
31.39
30.72
29.84
28.57
26.66
23.83
19.91
14.97
9.31
3.41
-2.27
-7.39
-11.90
-16.00
-20.03
-24.40
-29.41
-35.28
-42.15
-49.95
-58.28
-66.28
-72.66
-75.92
-74.83
-68.83
-58.29
-44.40
-28.79
-13.05
1.61
14.50
25.21
33.57
39.46
42.85
43.86
42.87
40.45
37.26
33.95
31.01
28.71
27.10
26.09
25.49
25.11
24.78
24.40
23.89
23.18
22.19
20.79
18.84
16.24
12.96
9.06
4.67
0.01
-4.75
-9.43
-13.97
-18.37
-22.78
-27.47
-32.74
-38.90
-45.99
-53.65
-61.03
-66.84
-69.65
-68.32
-62.38
-52.18
-38.84
-23.92
-9.00
4.67
16.35
25.72
32.72
37.40
39.81
40.11
38.61
35.85
32.48
29.19
26.46
24.52
23.36
22.80
22.64
22.73
22.97
23.25
23.45
23.40
22.85
21.58
19.41
16.23
12.07
7.09
1.57
-4.12
-9.64
-14.76
-19.45
-23.87
-28.34
-33.26
-39.01
-45.81
-53.54
-61.69
-69.23
-74.82
-77.08
-74.95
-68.08
-56.94
-42.66
-26.79
-10.86
3.94
16.90
27.71
36.29
42.61
46.65
48.42
48.06
45.98
42.81
39.31
36.15
33.80
32.41
31.87
31.92
32.28
32.74
33.11
33.24
32.95
32.06
30.41
27.95
24.71
20.83
16.51
11.99
7.39
2.75
-1.98
-6.93
-12.19
-17.79
-23.71
-29.98
-36.68
-44.00
-52.07
-60.70
-69.22
-76.43
-80.85
-81.13
-76.53
-67.16
-53.98
-38.47
-22.20
-6.49
7.81
20.28
30.75
39.16
45.44
49.52
51.41
51.34
49.77
47.33
44.68
42.37
40.68
39.67
39.18
38.98
38.84
38.56
37.98
36.94
35.30
32.96
29.93
26.32
22.29
17.99
13.48
8.71
3.62
-1.83
-7.51
-13.22
-18.71
-23.88
-28.81
-33.74
-39.05
-45.07
-51.93
-59.42
-66.92
-73.40
-77.61
-78.41
-75.08
-67.53
-56.34
-42.60
-27.63
-12.72
1.12
13.12
22.84
30.03
34.69
37.00
37.34
36.24
34.31
32.15
30.25
28.88
28.13
27.86
27.85
27.95
28.03
28.09
28.17
28.19
27.98
27.31
25.85
23.36
19.77
15.19
9.91
4.36
-1.04
-6.02
-10.49
-14.63
-18.78
-23.33
-28.69
-35.07
-42.40
-50.23
-57.68
-63.54
-66.52
-65.58
-60.24
-50.77
-38.12
-23.66
-8.85
5.09
17.33
27.46
35.33
40.95
44.37
45.71
45.23
43.30
40.45
37.28
34.35
32.04
30.46
29.49
28.87
28.36
27.80
27.16
26.50
25.80
24.93
23.65
21.69
18.87
15.24
10.96
6.28
1.41
-3.52
-8.51
-13.50
-18.48
-23.42
-28.45
-33.85
-40.01
-47.16
-55.06
-62.89
-69.21
-72.45
-71.38
-65.54
-55.45
-42.37
-27.86
-13.34
0.18
12.15
22.28
30.39
36.34
40.01
41.50
41.13
39.39
36.88
34.11
31.44
29.09
27.22
25.93
25.29
25.21
25.48
25.75
25.70
25.14
24.04
22.50
20.55
18.17
15.20
11.50
7.06
2.09
-3.12
-8.21
-12.99
-17.48
-21.88
-26.49
-31.66
-37.66
-44.56
-52.07
-59.47
-65.67
-69.33
-69.34
-65.06
-56.64
-44.94
-31.29
-17.11
-3.56
8.55
18.84
27.15
33.39
37.50
39.44
39.33
37.52
34.58
31.18
27.90
25.10
22.82
20.94
19.30
17.85
16.68
15.97
15.79
16.00
16.23
15.96
14.71
12.25
8.63
4.22
-0.48
-5.04
-9.29
-13.29
-17.34
-21.79
-26.91
-32.86
-39.63
-46.98
-54.40
-60.97
-65.53
-66.88
-64.14
-57.11
-46.39
-33.15
-18.82
-4.70
8.32
19.69
29.09
36.29
41.11
43.49
43.59
41.85
38.93
35.55
32.29
29.55
27.47
25.99
24.90
24.01
23.18
22.36
21.60
20.90
20.16
19.11
17.43
14.81
11.12
6.49
1.28
-4.08
-9.21
-13.94
-18.32
-22.60
-27.16
-32.38
-38.54
-45.64
-53.28
-60.60
-66.32
-69.10
-67.85
-62.15
-52.40
-39.70
-25.46
-11.05
2.51
14.56
24.72
32.69
38.22
41.19
41.74
40.35
37.75
34.76
32.01
29.86
28.36
27.39
26.77
26.39
26.23
26.28
26.51
26.76
26.77
26.18
24.68
22.09
18.35
13.65
8.31
2.73
-2.69
-7.72
-12.31
-16.64
-21.08
-26.09
-32.04
-39.01
-46.66
-54.18
-60.38
-64.02
-64.05
-60.00
-52.03
-40.93
-27.87
-14.21
-1.17
10.28
19.49
26.16
30.33
32.26
32.39
31.25
29.30
26.95
24.48
22.05
19.80
17.88
16.39
15.42
14.99
14.97
15.15
15.24
14.93
13.93
12.06
9.31
5.80
1.81
-2.31
-6.24
-9.79
-12.98
-16.11
-19.67
-24.14
-29.79
-36.36
-43.05
-48.58
-51.62
-51.16
-46.82
-38.94
-28.35
-16.15
-3.35
9.16
20.69
30.70
38.67
44.25
47.23
47.60
45.60
41.65
36.34
30.34
24.36
19.00
14.71
11.65
9.76
8.82
8.52
8.52
8.51
8.17
7.21
5.41
2.73
-0.71
-4.65
-8.81
-13.00
-17.23
-21.71
-26.82
-32.93
-40.20
-48.31
-56.38
-63.01
-66.64
-66.00
-60.57
-50.79
-37.84
-23.28
-8.58
5.22
17.45
27.73
35.74
41.27
44.21
44.74
43.38
40.78
37.62
34.41
31.42
28.75
26.45
24.60
23.28
22.60
22.46
22.66
22.81
22.51
21.45
19.47
16.60
13.04
9.03
4.76
0.34
-4.30
-9.31
-14.95
-21.41
-28.78
-36.78
-44.75
-51.61
-56.06
-56.89
-53.40
-45.60
-34.31
-20.91
-6.93
6.33
17.99
27.63
35.09
40.35
43.40
44.36
43.47
41.15
37.92
34.30
30.65
27.23
24.18
21.59
19.51
17.93
16.71
15.57
14.19
12.35
9.97
7.13
4.04
0.87
-2.30
-5.53
-8.97
-12.87
-17.48
-23.00
-29.53
-36.94
-44.79
-52.26
-58.24
-61.56
-61.28
-56.99
-48.91
-37.87
-25.07
-11.77
0.89
12.07
21.29
28.28
33.00
35.53
36.00
34.72
32.04
28.45
24.43
20.44
16.85
13.89
11.71
10.35
9.83
10.04
10.75
11.65
12.30
12.30
11.36
9.37
6.42
2.76
-1.34
-5.71
-10.43
-15.77
-22.14
-29.69
-38.15
-46.61
-53.72
-58.00
-58.38
-54.46
-46.71
-36.17
-24.17
-11.93
-0.37
9.87
18.38
24.89
29.22
31.34
31.45
29.94
27.34
24.21
20.97
17.95
15.34
13.29
11.85
11.00
10.58
10.32
9.89
9.01
7.53
5.43
2.79
-0.24
-3.56
-7.07
-10.77
-14.72
-19.10
-24.19
-30.27
-37.36
-44.98
-52.14
-57.41
-59.41
-57.17
-50.56
-40.21
-27.40
-13.56
-0.00
12.33
22.85
31.27
37.39
41.15
42.58
41.85
39.34
35.61
31.28
26.92
22.92
19.46
16.57
14.21
12.40
11.15
10.43
10.06
9.71
8.97
7.49
5.21
2.30
-0.88
-3.99
-6.96
-10.03
-13.69
-18.45
-24.56
-31.81
-39.42
-46.16
-50.64
-51.65
-48.50
-41.21
-30.46
-17.37
-3.28
10.61
23.35
34.27
42.92
49.03
52.54
53.56
52.47
49.83
46.28
42.38
38.53
34.96
31.80
29.17
27.20
25.95
25.30
24.96
24.49
23.47
21.64
18.96
15.60
11.76
7.61
3.22
-1.38
-6.25
-11.49
-17.30
-23.92
-31.44
-39.59
-47.54
-53.98
-57.43
-56.73
-51.48
-42.13
-29.88
-16.18
-2.39
10.45
21.68
30.85
37.70
42.05
43.99
43.80
42.04
39.35
36.35
33.48
30.97
28.86
27.13
25.74
24.72
24.10
23.88
23.93
23.96
23.62
22.52
20.44
17.35
13.42
8.92
4.18
-0.65
-5.59
-10.89
-16.96
-24.14
-32.53
-41.72
-50.76
-58.29
-62.82
-63.23
-59.08
-50.78
-39.38
-26.26
-12.76
0.08
11.58
21.29
28.92
34.27
37.26
38.02
36.97
34.66
31.72
28.66
25.78
23.17
20.80
18.60
16.59
14.85
13.47
12.43
11.58
10.68
9.45
7.75
5.60
3.13
0.53
-2.12
-4.89
-7.98
-11.66
-16.10
-21.36
-27.32
-33.63
-39.77
-45.00
-48.49
-49.47
-47.43
-42.30
-34.51
-24.86
-14.39
-4.12
5.17
12.94
18.93
23.07
25.41
26.18
25.71
24.47
22.99
21.79
21.24
21.51
22.58
24.39
27.03
31.00
37.08
46.18
58.72
74.14
90.70
105.78
116.73
121.73
120.43
113.82
103.69
91.97
80.43
70.76
64.74
64.05
69.71
81.31
96.80
112.90
126.29
134.88
138.33
137.89
135.37
132.25
129.09
125.61
121.21
115.38
107.99
99.22
89.46
79.12
68.55
58.02
47.70
37.64
27.78
17.79
7.05
-5.35
-20.39
-38.79
-60.63
-85.17
-110.89
-135.91
-158.42
-177.17
-191.63
-202.03
-209.17
-214.15
-218.10
-221.79
-225.33
-228.08
-228.74
-225.89
-218.47
-206.25
-189.93
-170.83
-150.47
-130.12
-110.61
-92.43
-75.89
-61.28
-48.89
-38.94
-31.43
-26.11
-22.50
-20.08
-18.35
-17.03
-16.00
-15.24
-14.72
-14.33
-13.96
-13.58
-13.32
-13.44
-14.24
-15.92
-18.44
-21.58
-25.00
-28.46
-31.83
-35.24
-38.92
-43.20
-48.45
-54.82
-62.12
-69.63
-76.12
-80.06
-80.12
-75.59
-66.66
-54.36
-40.20
-25.72
-12.11
-0.10
10.01
18.09
24.09
28.04
30.05
30.33
29.24
27.17
24.50
21.60
18.80
16.38
14.54
13.37
12.81
12.66
12.65
12.45
11.79
10.51
8.53
5.94
2.94
-0.25
-3.46
-6.67
-10.13
-14.21
-19.38
-25.91
-33.65
-41.85
-49.24
-54.21
-55.34
-51.76
-43.50
-31.48
-17.19
-2.31
11.73
23.91
33.71
40.93
45.60
47.89
48.10
46.62
43.93
40.46
36.64
32.82
29.27
26.19
23.70
21.84
20.55
19.67
19.02
18.38
17.55
16.34
14.62
12.30
9.43
6.17
2.71
-0.79
-4.39
-8.43
-13.46
-19.95
-28.00
-36.96
-45.47
-51.73
-54.03
-51.39
-43.83
-32.35
-18.53
-4.05
9.71
21.84
31.80
39.31
44.16
46.36
46.15
44.14
41.14
37.98
35.26
33.17
31.62
30.31
29.09
27.95
27.13
26.80
26.99
27.42
27.64
27.24
26.00
23.94
21.24
18.08
14.51
10.52
6.13
1.39
-3.64
-9.04
-15.00
-21.66
-28.90
-35.99
-41.69
-44.50
-43.25
-37.52
-27.81
-15.34
-1.65
11.84
24.09
34.46
42.58
48.26
51.41
52.21
51.10
48.77
46.02
43.44
41.22
39.16
36.83
33.90
30.43
26.86
23.82
21.78
20.76
20.34
19.82
18.62
16.48
13.54
10.11
6.50
2.83
-0.99
-5.15
-9.85
-15.24
-21.41
-28.37
-35.92
-43.52
-50.20
-54.74
-55.92
-52.97
-45.81
-35.08
-21.93
-7.70
6.35
19.15
29.87
37.90
42.90
44.84
44.05
41.16
36.92
32.02
27.00
22.23
17.92
14.18
11.10
8.76
7.22
6.46
6.34
6.55
6.65
6.23
5.06
3.14
0.68
-2.04
-4.77
-7.46
-10.16
-13.04
-16.28
-20.09
-24.65
-29.96
-35.74
-41.22
-45.23
-46.49
-44.02
-37.52
-27.50
-15.08
-1.68
11.42
23.24
33.10
40.56
45.31
47.21
46.36
43.23
38.51
33.03
27.50
22.31
17.60
13.34
9.52
6.27
3.80
2.26
1.57
1.37
1.09
0.21
-1.59
-4.24
-7.33
-10.37
-12.92
-14.88
-16.53
-18.46
-21.40
-25.93
-32.11
-39.31
-46.13
-50.83
-51.77
-47.99
-39.60
-27.77
-14.27
-1.00
10.58
19.74
26.56
31.80
36.65
42.25
49.09
56.59
63.17
66.80
66.03
60.74
52.41
43.57
36.89
34.25
36.24
42.16
50.38
58.81
65.34
68.35
67.05
61.67
53.46
44.24
35.78
29.28
25.18
23.21
22.78
23.22
24.00
24.82
25.67
26.79
28.57
31.41
35.49
40.64
46.35
51.80
55.99
58.02
57.21
53.33
46.60
37.68
27.36
16.33
5.05
-6.12
-16.79
-26.38
-34.24
-39.89
-43.25
-44.71
-44.94
-44.59
-44.10
-43.60
-43.16
-42.85
-42.88
-43.52
-44.94
-47.16
-50.16
-53.96
-58.71
-64.57
-71.55
-79.17
-86.45
-92.03
-94.50
-92.90
-86.97
-77.27
-64.95
-51.38
-37.80
-25.20
-14.25
-5.39
1.05
4.97
6.44
5.85
3.82
1.07
-1.75
-4.18
-5.97
-7.12
-7.77
-8.15
-8.47
-8.86
-9.39
-10.09
-10.93
-11.93
-13.13
-14.63
-16.54
-19.04
-22.38
-26.75
-32.19
-38.32
-44.32
-48.92
-50.80
-48.94
-43.04
-33.61
-21.78
-8.94
3.65
15.10
24.84
32.53
37.91
40.74
40.92
38.62
34.34
28.92
23.23
18.08
13.88
10.69
8.24
6.19
4.25
2.34
0.51
-1.15
-2.61
-3.98
-5.44
-7.12
-9.13
-11.59
-14.69
-18.70
-23.89
-30.19
-37.02
-43.24
-47.33
-47.92
-44.25
-36.43
-25.39
-12.54
0.67
13.07
23.86
32.58
38.95
42.79
44.04
42.87
39.67
35.10
29.87
24.68
20.00
16.09
12.96
10.48
8.45
6.66
4.95
3.22
1.46
-0.33
-2.12
-3.98
-6.04
-8.54
-11.84
-16.25
-21.89
-28.57
-35.64
-42.03
-46.45
-47.70
-45.01
-38.30
-28.20
-15.86
-2.67
10.07
21.35
30.50
37.11
41.10
42.54
41.66
38.86
34.61
29.53
24.24
19.35
15.28
12.22
10.06
8.49
7.14
5.74
4.19
2.56
0.95
-0.63
-2.29
-4.26
-6.81
-10.18
-14.55
-19.97
-26.34
-33.16
-39.57
-44.39
-46.43
-44.77
-39.15
-30.02
-18.38
-5.59
7.05
18.50
28.04
35.27
39.98
42.14
41.90
39.60
35.75
31.03
26.13
21.67
18.04
15.32
13.37
11.85
10.46
8.96
7.35
5.72
4.19
2.82
1.49
-0.04
-2.07
-4.91
-8.81
-13.96
-20.39
-27.88
-35.79
-42.99
-48.04
-49.53
-46.52
-38.91
-27.51
-13.83
0.35
13.45
24.38
32.58
37.93
40.56
40.73
38.76
35.10
30.33
25.14
20.25
16.26
13.50
11.93
11.24
10.92
10.53
9.80
8.60
6.97
4.97
2.66
0.09
-2.76
-5.91
-9.41
-13.44
-18.24
-24.04
-30.96
-38.70
-46.46
-53.00
-56.83
-56.69
-51.88
-42.60
-29.81
-14.99
0.22
14.42
26.55
36.00
42.45
45.85
46.42
44.59
41.03
36.53
31.85
27.58
24.04
21.33
19.39
18.11
17.39
17.08
17.01
16.89
16.36
15.12
12.98
9.98
6.33
2.29
-1.91
-6.18
-10.58
-15.28
-20.49
-26.47
-33.36
-41.04
-48.99
-56.12
-60.99
-62.11
-58.43
-49.75
-36.84
-21.25
-4.89
10.47
23.61
33.91
41.27
45.89
48.00
47.88
45.82
42.32
38.05
33.82
30.35
28.01
26.81
26.41
26.34
26.21
25.86
25.30
24.60
23.76
22.68
21.17
19.03
16.12
12.39
7.92
2.86
-2.50
-7.83
-12.84
-17.40
-21.62
-25.92
-30.87
-37.01
-44.52
-52.97
-61.28
-67.87
-71.04
-69.49
-62.73
-51.19
-36.15
-19.30
-2.33
13.40
26.95
37.77
45.60
50.37
52.23
51.58
49.07
45.48
41.58
38.00
35.09
32.99
31.67
31.01
30.87
31.03
31.28
31.41
31.25
30.71
29.73
28.33
26.52
24.30
21.63
18.45
14.72
10.45
5.71
0.62
-4.60
-9.76
-14.69
-19.29
-23.62
-27.88
-32.43
-37.68
-44.01
-51.49
-59.65
-67.38
-73.08
-75.04
-71.98
-63.53
-50.36
-34.02
-16.37
0.81
16.20
28.99
38.74
45.28
48.67
49.19
47.43
44.15
40.20
36.27
32.83
30.11
28.18
27.04
26.66
26.95
27.77
28.89
30.02
30.87
31.16
30.68
29.31
27.05
24.05
20.57
16.86
13.11
9.30
5.26
0.75
-4.32
-9.83
-15.42
-20.64
-25.15
-28.91
-32.25
-35.82
-40.31
-46.29
-53.77
-62.06
-69.79
-75.14
-76.41
-72.54
-63.46
-50.06
-33.94
-16.87
-0.36
14.50
27.04
36.88
43.83
47.85
49.16
48.22
45.70
42.37
38.92
35.80
33.23
31.21
29.65
28.48
27.75
27.54
27.90
28.69
29.55
30.02
29.68
28.27
25.84
22.65
19.02
15.28
11.62
8.11
4.70
1.25
-2.44
-6.52
-11.05
-15.90
-20.77
-25.31
-29.24
-32.61
-35.80
-39.49
-44.35
-50.74
-58.39
-66.35
-73.08
-76.89
-76.39
-70.88
-60.57
-46.43
-30.02
-13.03
3.01
16.92
27.97
35.89
40.79
43.06
43.25
41.95
39.70
36.95
34.07
31.38
29.12
27.50
26.63
