1540409239.00
64.000000
-0.00
-0.00
-0.00
-0.00
-0.00
-0.00
-0.00
-0.00
-0.00
-0.00
0.00
0.01
0.01
-0.00
-0.03
-0.05
-0.05
0.00
0.13
0.36
0.66
1.01
1.37
1.72
2.06
2.40
2.79
3.24
3.80
4.42
5.06
5.66
6.20
6.68
7.15
7.68
8.31
9.14
10.09
11.04
11.88
12.56
13.14
13.76
14.65
15.96
17.91
20.32
22.90
25.38
27.58
29.57
31.68
34.32
37.81
42.54
48.15
54.10
59.83
64.97
69.58
74.14
79.34
85.71
93.76
103.00
112.62
121.73
129.77
136.75
143.30
150.75
157.77
166.64
177.95
191.79
206.97
220.57
228.25
225.36
208.53
176.87
132.76
80.05
23.07
-34.94
-92.44
-149.16
-205.23
-260.37
-313.74
-363.87
-409.83
-450.91
-486.50
-515.74
-537.23
-549.22
-549.96
-538.37
-514.21
-478.67
-433.88
-382.45
-327.02
-269.84
-212.63
-156.66
-102.95
-52.37
-5.90
35.58
71.43
101.35
125.50
144.38
158.69
169.15
176.37
180.75
182.57
182.07
179.51
175.23
169.65
163.18
156.15
148.81
141.30
133.69
126.02
118.33
110.69
103.16
95.80
88.68
81.83
75.25
68.95
62.95
57.25
51.86
46.78
42.03
37.59
33.45
29.61
26.07
22.81
19.83
17.11
14.67
12.48
10.54
8.83
7.35
6.07
4.97
4.05
3.27
2.62
2.09
1.65
1.30
1.01
0.79
0.61
0.47
0.37
0.28
0.22
0.18
0.15
0.13
0.12
0.11
0.11
0.13
0.15
0.18
0.23
0.28
0.32
0.33
0.29
0.21
0.11
0.01
-0.05
-0.06
-0.02
0.05
0.12
0.16
0.16
0.12
0.10
0.12
0.21
0.36
0.53
0.65
0.68
0.61
0.48
0.39
0.44
0.66
1.03
1.41
1.68
1.68
1.41
0.99
0.62
0.56
0.91
1.62
2.43
3.00
3.05
2.50
1.57
0.67
0.28
0.67
1.79
3.22
4.37
4.70
4.00
2.49
0.70
-0.74
-1.45
-1.47
-1.26
-1.65
-3.59
-7.90
-14.94
-24.34
-34.69
-43.59
-48.15
-45.83
-35.50
-18.14
3.19
24.22
40.91
50.68
53.08
49.50
42.35
33.88
25.61
18.16
11.52
5.59
0.46
-3.56
-6.12
-7.13
-6.87
-5.88
-4.82
-4.23
-4.26
-4.73
-5.28
-5.64
-5.76
-5.90
-6.45
-7.73
-9.85
-12.68
-15.86
-18.80
-20.95
-21.94
-21.68
-20.40
-18.61
-17.11
-16.66
-17.99
-21.27
-26.17
-31.52
-35.17
-34.44
-27.00
-11.94
9.49
33.99
57.40
75.86
87.19
91.46
90.41
86.44
81.50
76.72
70.98
64.14
56.42
48.41
40.91
34.55
29.65
26.14
23.63
21.64
19.95
18.34
16.67
14.89
12.93
10.58
7.51
3.23
-2.76
-10.57
-20.08
-30.77
-41.80
-52.20
-61.20
-68.45
-74.11
-78.84
-83.49
-89.15
-96.83
-107.23
-120.17
-134.18
-146.37
-152.78
-149.60
-134.40
-107.37
-71.42
-31.35
7.66
41.59
68.35
87.75
100.70
108.42
111.80
111.44
107.89
101.99
94.90
87.93
82.14
78.05
75.49
73.81
72.07
69.56
66.01
61.60
56.79
51.95
47.14
41.95
35.67
27.56
17.21
4.79
-8.94
-22.71
-35.24
-45.57
-53.49
-59.68
-65.43
-72.37
-81.91
-94.93
-111.21
-129.24
-146.04
-157.67
-160.10
-150.51
-128.42
-96.08
-57.92
-19.16
15.74
44.21
65.65
80.79
90.75
96.30
97.76
95.38
89.90
82.58
75.11
68.92
64.72
62.29
60.65
58.67
55.57
51.36
46.64
42.23
38.59
35.44
31.91
26.78
19.17
8.90
-3.29
-16.05
-27.93
-37.95
-45.94
-52.61
-59.18
-66.95
-76.93
-89.64
-104.81
-121.15
-136.19
-146.49
-148.37
-139.15
-118.20
-87.49
-51.15
-14.18
19.06
45.85
65.35
78.09
85.03
87.15
85.23
80.12
72.93
64.96
57.43
51.05
46.02
42.07
38.84
36.17
34.11
32.80
32.09
31.43
29.87
26.41
20.44
12.03
1.92
-8.75
-18.88
-27.77
-35.37
-42.26
-49.54
-58.53
-70.30
-84.97
-101.22
-116.06
-125.38
-125.21
-113.22
-89.71
-57.78
-22.23
11.97
41.16
63.61
79.20
88.66
92.75
92.10
87.41
79.73
70.61
61.68
54.27
48.95
45.47
43.12
41.11
38.99
36.76
34.69
32.96
31.39
29.25
25.51
19.21
9.97
-1.82
-15.02
-28.14
-39.85
-49.49
-57.33
-64.45
-72.50
-83.12
-97.31
-114.75
-133.38
-149.49
-158.51
-156.46
-141.37
-114.25
-78.83
-40.39
-4.03
26.78
50.67
67.96
79.73
86.97
90.24
90.00
86.95
82.24
77.25
73.08
70.11
67.93
65.66
62.51
58.27
53.46
49.08
45.96
44.22
43.03
40.85
36.06
27.73
16.05
2.30
-11.68
-24.30
-34.81
-43.52
-51.61
-60.61
-71.91
-86.30
-103.49
-121.85
-138.35
-148.96
-149.81
-138.48
-115.11
-82.61
-45.78
-9.76
21.53
46.25
64.51
77.44
86.12
91.08
92.38
90.12
85.03
78.49
72.25
67.69
65.34
64.71
64.62
63.84
61.73
58.53
55.00
51.91
49.48
47.04
43.29
36.91
27.20
14.48
0.05
-14.28
-26.87
-36.89
-44.54
-50.93
-57.67
-66.33
-78.06
-93.16
-110.79
-128.73
-143.52
-151.14
-148.15
-132.92
-106.47
-72.27
-35.18
0.07
30.29
54.19
72.08
84.92
93.50
98.10
98.82
96.00
90.60
84.16
78.27
74.11
71.97
71.26
70.85
69.63
67.04
63.19
58.75
54.50
50.81
47.36
43.24
37.26
28.56
17.04
3.47
-10.65
-23.79
-34.82
-43.49
-50.46
-56.93
-64.33
-73.89
-86.44
-102.04
-119.62
-136.67
-149.43
-153.75
-146.40
-126.45
-95.89
-59.10
-21.44
12.53
40.12
60.75
75.20
84.59
89.71
90.95
88.69
83.72
77.33
71.06
66.18
63.35
62.40
62.56
62.80
62.24
60.43
57.43
53.67
49.63
45.61
41.51
36.80
30.73
22.67
12.39
0.36
-12.41
-24.67
-35.37
-44.14
-51.32
-57.82
-64.70
-72.99
-83.44
-96.43
-111.64
-127.62
-141.60
-149.78
-148.40
-135.12
-110.26
-76.91
-39.97
-4.56
25.70
49.29
66.48
78.32
85.68
88.95
88.32
84.29
78.05
71.23
65.43
61.64
59.96
59.68
59.76
59.28
57.80
55.38
52.46
49.48
46.64
43.64
39.82
34.36
26.66
16.60
4.71
-7.94
-20.18
-31.01
-40.08
-47.71
-54.76
-62.36
-71.67
-83.53
-98.14
-114.64
-130.76
-143.08
-147.76
-141.77
-124.11
-96.41
-62.50
-27.16
5.41
32.61
53.74
69.30
80.15
86.84
89.51
88.32
83.92
77.64
71.20
66.17
63.30
62.40
62.40
62.03
60.40
57.38
53.57
49.89
46.95
44.67
42.22
38.30
31.73
21.98
9.53
-4.33
-17.94
-29.91
-39.67
-47.56
-54.58
-62.01
-70.95
-82.26
-96.31
-112.72
-129.92
-144.94
-153.78
-152.54
-138.99
-113.63
-79.86
-42.79
-7.53
22.45
45.91
63.35
76.01
84.80
90.06
91.76
90.16
86.12
81.05
76.43
73.20
71.48
70.59
69.53
67.48
64.26
60.34
56.49
53.29
50.69
47.93
43.80
37.17
27.50
15.17
1.35
-12.43
-24.73
-34.82
-42.79
-49.48
-56.19
-64.29
-74.89
-88.55
-104.76
-121.65
-135.92
-143.51
-140.74
-125.83
-99.66
-65.86
-29.48
4.59
33.16
55.10
70.97
81.94
88.94
92.35
92.31
89.15
83.74
77.40
71.50
67.06
64.40
63.12
62.36
61.20
59.08
55.96
52.24
48.52
45.16
41.98
38.28
33.08
25.57
15.54
3.54
-9.29
-21.61
-32.46
-41.50
-49.08
-56.05
-63.38
-71.92
-82.37
-95.16
-110.13
-126.14
-140.62
-149.90
-150.04
-138.34
-114.54
-81.27
-43.26
-5.82
26.83
52.51
71.03
83.40
90.88
94.37
94.46
91.70
86.92
81.26
75.86
71.59
68.73
67.08
66.13
65.45
64.84
64.30
63.84
63.19
61.80
58.90
53.91
46.75
37.95
28.46
19.15
10.47
2.23
-6.26
-15.65
-26.15
-37.29
-48.15
-57.72
-65.51
-71.71
-77.22
-83.33
-91.37
-102.36
-116.60
-133.22
-149.79
-162.49
-166.94
-159.58
-139.12
-107.33
-68.59
-28.50
7.95
37.72
59.98
75.50
85.64
91.54
93.88
93.20
90.22
85.99
81.70
78.27
76.11
75.08
74.68
74.41
74.01
73.53
73.13
72.81
72.16
70.41
66.64
60.24
51.28
40.54
29.22
18.45
8.83
0.18
-8.23
-17.21
-27.21
-38.00
-48.84
-58.84
-67.39
-74.41
-80.37
-86.17
-92.92
-101.82
-113.75
-128.69
-145.11
-159.75
-168.11
-165.81
-150.28
-122.02
-84.65
-43.76
-5.00
27.64
52.55
70.18
81.96
89.22
92.67
92.56
89.15
83.25
76.24
69.75
65.04
62.64
62.05
62.18
61.81
60.19
57.27
53.55
49.76
46.29
42.98
39.19
34.08
26.95
17.62
6.44
-5.75
-17.90
-29.11
-38.83
-47.05
-54.17
-60.87
-67.90
-76.08
-86.15
-98.56
-112.90
-127.47
-139.07
-143.71
-137.95
-120.34
-92.22
-57.47
-21.10
12.31
39.90
60.73
75.19
84.09
88.11
87.69
83.43
76.43
68.20
60.38
54.15
49.88
47.24
45.39
43.63
41.70
39.84
38.60
38.25
38.43
38.03
35.57
29.86
20.55
8.42
-4.88
-17.54
-28.31
-36.91
-44.14
-51.49
-60.63
-72.84
-88.39
-106.13
-123.34
-136.08
-140.22
-132.86
-113.44
-84.18
-49.47
-14.35
16.87
41.72
59.54
70.97
77.12
79.05
77.55
73.38
67.35
60.31
53.15
46.54
41.01
36.87
34.20
32.92
32.73
33.16
33.59
33.30
31.58
27.90
22.07
14.32
5.29
-4.24
-13.54
-22.33
-30.78
-39.68
-50.14
-63.11
-78.70
-95.52
-110.55
-119.75
-119.28
-107.07
-83.81
-52.88
-19.27
12.05
37.67
56.30
68.44
75.44
78.58
78.60
75.76
70.26
62.61
53.79
45.09
37.79
32.84
30.57
30.60
32.03
33.70
34.50
33.67
30.92
26.34
20.20
12.82
4.45
-4.74
-14.61
-25.06
-36.13
-48.17
-61.72
-77.05
-93.55
-109.15
-120.46
-123.65
-115.92
-96.73
-68.33
-35.10
-2.06
26.67
48.90
64.37
74.03
79.16
80.66
78.94
74.23
67.01
58.21
49.19
41.40
35.97
33.31
33.01
34.04
35.04
34.82
32.65
28.36
22.22
14.69
6.22
-2.88
-12.39
-22.23
-32.38
-43.10
-54.93
-68.57
-84.44
-101.93
-118.90
-131.75
-136.38
-129.58
-110.55
-81.35
-46.37
-10.84
20.89
46.39
65.26
78.44
87.16
92.26
94.16
93.14
89.80
85.13
80.32
76.27
73.29
71.04
68.78
65.79
61.79
57.08
52.37
48.34
45.22
42.56
39.21
33.81
25.33
13.60
-0.56
-15.57
-29.63
-41.45
-50.72
-58.19
-65.32
-73.87
-85.32
-100.45
-118.90
-138.84
-156.98
-169.10
-171.15
-160.59
-137.48
-104.67
-66.88
-29.20
4.49
32.23
53.93
70.55
83.16
92.41
98.52
101.59
101.93
100.19
97.25
94.01
91.08
88.67
86.60
84.40
81.62
78.02
73.71
69.06
64.48
60.10
55.56
50.06
42.65
32.69
20.18
5.93
-8.75
-22.47
-34.30
-44.07
-52.30
-60.01
-68.34
-78.35
-90.83
-106.11
-123.55
-141.22
-155.84
-163.47
-160.61
-145.55
-119.18
-84.81
-47.15
-10.81
20.88
46.43
65.94
80.43
91.10
98.87
104.28
107.53
108.72
107.93
105.42
101.64
97.24
92.77
88.69
85.14
81.99
78.93
75.62
71.88
67.63
62.90
57.63
51.62
44.47
35.78
25.30
13.18
-0.06
-13.57
-26.50
-38.23
-48.58
-57.75
-66.24
-74.66
-83.81
-94.55
-107.69
-123.45
-140.87
-157.35
-168.97
-171.54
-162.10
-140.21
-108.29
-70.90
-33.09
1.14
29.69
52.29
69.70
82.87
92.43
98.70
101.98
102.75
101.69
99.47
96.63
93.47
90.20
86.94
83.85
81.02
78.41
75.83
72.97
69.53
65.21
59.83
53.24
45.38
36.33
26.26
15.47
4.25
-7.16
-18.55
-29.74
-40.48
-50.41
-59.24
-66.91
-73.82
-80.84
-89.21
-100.09
-113.93
-129.87
-145.39
-156.73
-159.84
-151.78
-131.90
-102.20
-66.72
-30.17
3.42
31.66
53.88
70.46
82.23
89.81
93.69
94.38
92.65
89.54
86.03
82.88
80.29
78.06
75.83
73.36
70.78
68.52
66.97
66.17
65.57
64.23
61.18
55.86
48.39
39.50
30.11
20.97
12.27
3.75
-5.15
-14.86
-25.42
-36.40
-47.10
-56.80
-65.11
-72.10
-78.31
-84.65
-92.25
-102.13
-114.90
-130.08
-145.79
-158.71
-164.80
-160.54
-144.25
-116.86
-81.74
-43.60
-7.07
24.53
49.71
68.46
81.62
90.13
94.71
95.90
94.25
90.57
85.86
81.14
77.15
74.17
72.02
70.23
68.40
66.36
64.28
62.47
61.06
59.81
58.07
54.95
49.77
42.37
33.27
23.44
14.05
5.84
-1.05
-7.18
-13.49
-20.84
-29.58
-39.40
-49.44
-58.62
-66.17
-71.95
-76.52
-81.08
-87.14
-96.07
-108.53
-123.98
-140.25
-153.71
-160.11
-155.78
-139.00
-110.73
-74.54
-35.38
1.80
33.51
58.18
75.88
87.57
94.32
97.00
96.31
93.06
88.30
83.19
78.73
75.47
73.42
72.13
70.98
69.47
67.43
65.11
62.94
61.30
60.17
59.05
56.96
52.89
46.21
37.02
26.23
15.21
5.28
-2.87
-9.34
-14.92
-20.69
-27.48
-35.54
-44.45
-53.39
-61.46
-68.08
-73.27
-77.62
-82.16
-88.17
-96.87
-108.93
-124.04
-140.40
-154.72
-162.77
-160.57
-145.82
-118.90
-82.94
-42.89
-3.97
29.75
56.14
74.89
86.77
92.96
94.62
92.80
88.56
82.99
77.08
71.54
66.73
62.83
59.86
57.84
56.80
56.67
57.19
57.91
58.18
57.26
54.48
49.39
42.01
32.88
22.95
13.23
4.39
-3.52
-11.09
-19.15
-28.30
-38.55
-49.23
-59.36
-68.12
-75.30
-81.37
-87.52
-95.14
-105.41
-118.57
-133.37
-146.93
-155.20
-154.20
-141.35
-116.64
-82.77
-44.38
-6.53
26.70
52.98
71.78
83.71
89.83
91.21
88.80
83.61
76.73
69.36
62.50
56.87
52.81
50.30
49.14
48.97
49.41
49.97
50.17
49.54
47.73
44.62
40.31
34.95
28.57
21.01
12.01
1.41
-10.56
-23.26
-35.72
-47.10
-56.88
-65.09
-72.24
-79.16
-86.89
-96.42
-108.46
-122.93
-138.49
-152.25
-160.27
-158.64
-144.88
-119.07
-84.10
-44.77
-6.37
26.89
52.77
70.95
82.40
88.42
90.09
88.12
83.08
75.80
67.46
59.44
53.00
48.85
46.96
46.67
47.04
47.23
46.80
45.73
44.19
42.34
39.99
36.68
31.72
24.52
14.77
2.71
-10.83
-24.64
-37.46
-48.38
-57.17
-64.40
-71.19
-78.89
-88.76
-101.59
-117.42
-135.05
-151.86
-164.04
-167.45
-159.01
-137.84
-105.85
-67.17
-26.86
10.61
42.27
66.87
84.28
94.92
99.34
98.31
93.01
85.09
76.41
68.58
62.53
58.40
55.75
53.87
52.23
50.64
49.28
48.44
48.20
48.15
47.34
44.53
38.69
29.46
17.36
3.72
-9.77
-21.75
-31.65
-39.96
-48.10
-57.89
-70.82
-87.37
-106.27
-124.36
-137.18
-140.10
-129.86
-105.88
-70.56
-28.65
14.33
53.66
86.52
112.08
130.83
143.69
151.40
154.50
153.74
150.34
145.98
142.42
140.94
142.02
145.49
150.85
157.62
165.35
173.35
180.67
186.32
189.93
192.11
194.09
196.64
199.08
198.89
192.73
178.17
155.17
126.25
95.37
66.11
40.40
18.62
0.78
-12.30
-18.67
-16.23
-4.41
14.78
36.76
55.80
66.98
67.79
58.55
41.84
21.12
-0.66
-21.80
-41.96
-61.65
-81.71
-103.07
-126.94
-155.28
-190.86
-236.50
-293.44
-359.69
-429.22
-492.93
-541.16
-566.88
-567.95
-547.57
-512.67
-471.31
-430.28
-393.85
-363.80
-340.13
-321.68
-306.56
-292.23
-275.87
-255.01
-228.19
-195.50
-158.26
-118.51
-77.98
-37.52
3.03
44.23
86.04
127.13
164.67
195.12
215.47
224.47
223.14
214.47
202.30
190.06
179.97
172.74
167.93
164.44
161.02
156.55
150.22
141.62
130.79
118.14
104.20
89.41
73.94
57.60
39.82
20.02
-1.84
-24.61
-45.64
-61.03
-66.73
-59.98
-40.49
-10.80
24.48
60.07
91.61
116.51
133.99
144.47
148.77
147.76
142.37
133.81
123.72
113.93
105.92
100.44
97.24
95.37
93.64
91.23
87.98
84.30
80.74
77.52
74.21
69.75
62.88
52.73
39.26
23.40
6.78
-8.89
-22.40
-33.57
-43.15
-52.62
-63.64
-77.49
-94.57
-113.86
-132.72
-147.16
-152.78
-146.06
-125.77
-93.62
-53.95
-12.34
26.08
57.96
82.19
99.30
110.48
116.78
118.82
117.08
112.37
106.05
99.81
95.12
92.71
92.26
92.65
92.56
91.10
88.28
84.80
81.56
79.05
76.90
73.97
68.92
60.84
49.76
36.72
23.36
11.29
1.57
-5.62
-10.89
-15.41
-20.62
-27.86
-38.00
-50.89
-64.88
-76.67
-81.95
-76.68
-58.59
-28.27
10.87
53.68
95.09
131.71
162.49
188.07
209.50
226.92
238.98
243.34
237.79
221.29
194.34
158.90
117.92
74.94
33.88
-1.19
-26.51
-39.51
-39.59
-28.52
-10.15
10.66
29.31
42.50
48.69
47.93
41.47
31.22
19.17
6.98
-4.38
-14.71
-24.47
-34.49
-45.60
-58.57
-73.75
-90.82
-108.40
-123.87
-133.70
-134.34
-123.55
-101.46
-70.80
-36.19
-2.76
25.35
45.89
58.60
64.52
65.15
61.74
55.13
46.05
35.55
25.34
17.46
13.75
14.97
20.24
27.12
32.46
33.52
29.08
19.64
6.94
-6.99
-20.72
-33.68
-45.77
-56.81
-66.17
-72.91
-76.21
-75.92
-72.72
-67.86
-62.69
-58.29
-55.32
-54.08
-54.60
-56.60
-59.19
-60.79
-59.20
-52.12
-37.93
-16.40
11.00
41.29
70.67
95.35
112.53
120.88
120.72
113.78
102.58
89.75
77.40
66.72
58.00
50.74
44.01
36.67
27.64
16.00
1.27
-16.47
-36.46
-57.43
-77.85
-96.35
-111.97
-124.38
-133.76
-140.75
-146.25
-151.13
-156.08
-161.52
-167.57
-174.28
-181.76
-190.17
-199.38
-208.56
-215.88
-218.77
-214.64
-201.94
-180.97
-153.93
-124.27
-95.58
-70.53
-50.39
-35.18
-24.26
-16.92
-12.61
-10.81
-10.89
-11.84
-12.54
-12.04
-9.91
-6.31
-2.01
1.88
4.29
4.43
2.18
-1.80
-6.11
-8.95
-8.78
-4.87
2.44
11.85
21.54
29.86
35.57
38.02
37.08
33.17
27.50
22.22
20.26
24.58
37.18
57.97
84.47
112.29
136.30
152.24
157.71
152.64
138.81
118.95
95.78
71.55
48.00
26.50
8.32
-5.48
-14.28
-18.21
-18.09
-15.28
-11.29
-7.37
-4.45
-3.16
-3.99
-7.28
-13.09
-21.06
-30.28
-39.54
-47.60
-53.71
-57.86
-60.77
-63.81
-68.52
-76.16
-87.22
-101.15
-116.16
-129.59
-138.43
-140.11
-133.28
-118.21
-96.84
-72.28
-47.98
-26.82
-10.56
0.38
6.69
9.59
10.43
10.30
9.98
9.93
10.35
11.23
12.28
13.09
13.10
12.04
10.00
7.57
5.57
4.65
4.94
5.79
6.10
4.69
0.95
-4.89
-11.80
-18.36
-23.45
-26.70
-28.73
-30.93
-35.00
-42.33
-53.46
-67.64
-82.73
-95.51
-102.34
-100.29
-88.11
-66.79
-39.40
-10.17
16.78
38.61
54.23
64.17
69.77
72.34
72.67
70.91
67.04
61.24
54.26
47.31
41.66
38.16
36.78
36.73
36.73
35.65
32.93
28.61
23.19
17.18
10.82
4.07
-3.35
-11.78
-21.46
-32.68
-45.74
-60.77
-77.31
-93.84
-107.55
-114.75
-111.85
-96.70
-69.60
-33.56
6.36
44.45
75.82
97.33
107.93
108.04
98.91
82.17
59.80
34.31
8.83
-13.28
-29.15
-37.21
-37.53
-31.77
-22.35
-11.74
-1.76
6.54
12.80
17.05
19.47
20.30
19.69
17.71
14.22
8.93
1.40
-8.93
-22.60
-39.92
-60.43
-82.52
-103.13
-118.24
-123.91
-117.74
-99.83
-73.00
-41.94
-11.71
13.64
31.78
42.17
45.51
43.17
36.70
27.68
17.63
7.81
-0.90
-8.10
-13.86
-18.36
-21.55
-23.01
-22.02
-18.16
-11.75
-4.12
2.80
7.18
8.07
5.83
1.81
-2.41
-5.93
-8.93
-12.60
-18.61
-28.29
-42.00
-58.63
-75.52
-88.72
-93.98
-87.90
-69.21
-39.41
-2.40
36.56
72.44
101.66
122.60
135.35
141.03
141.08
136.83
129.47
120.11
109.89
100.00
91.51
85.27
81.71
80.77
81.93
84.38
87.17
89.45
90.56
89.99
87.38
82.49
75.20
65.53
53.72
40.17
25.35
9.53
-7.45
-26.08
-46.74
-68.86
-90.31
-107.34
-115.47
-111.11
-93.03
-63.30
-26.73
10.63
43.43
68.41
84.73
93.39
96.08
94.25
88.86
80.54
70.06
58.60
47.74
39.00
33.51
31.50
32.30
34.59
36.78
37.55
36.13
32.41
26.80
19.92
12.39
4.62
-3.23
-11.27
-19.81
-29.38
-40.69
-54.34
-70.33
-87.40
-102.71
-112.06
-111.11
-96.95
-69.54
-32.16
9.49
49.17
82.02
105.76
120.60
128.11
130.02
127.40
120.73
110.51
97.76
84.11
71.33
60.79
52.94
47.35
43.03
39.01
34.69
29.99
25.20
20.62
16.21
11.51
5.73
-1.94
-12.08
-24.93
-40.43
-58.18
-77.36
-96.31
-112.31
-121.92
-121.83
-110.11
-87.28
-56.52
-22.74
8.97
34.90
53.54
65.23
71.25
72.69
70.02
63.40
53.32
41.15
29.02
19.23
13.30
11.44
12.50
14.47
15.44
14.17
10.52
5.13
-0.93
-6.87
-12.35
-17.62
-23.34
-30.29
-39.18
-50.52
-64.52
-80.78
-97.91
-113.29
-123.39
-124.59
-114.49
-93.06
-62.94
-28.79
4.21
32.03
52.65
66.13
73.63
76.49
75.44
70.80
62.94
52.82
42.12
32.77
26.32
23.35
23.34
24.94
26.59
27.03
25.62
22.40
17.80
12.35
6.40
-0.02
-7.06
-14.96
-23.90
-34.02
-45.48
-58.54
-73.17
-88.63
-102.90
-112.73
-114.41
-105.09
-84.15
-53.83
-18.71
15.75
44.90
66.15
79.15
85.10
85.73
82.53
76.46
68.32
59.06
49.87
41.97
36.23
32.88
31.49
31.23
31.28
30.99
29.95
27.90
24.51
19.52
12.86
4.80
-4.05
-12.90
-21.14
-28.58
-35.57
-42.97
-51.92
-63.40
-77.72
-93.84
-109.13
-119.57
-120.94
-110.31
-87.40
-55.11
-18.68
15.97
44.12
63.45
74.08
77.72
76.49
72.09
65.61
57.86
49.66
42.09
36.08
32.21
30.51
30.42
31.15
31.94
32.22
31.65
29.97
26.93
22.29
15.93
7.98
-1.11
-10.74
-20.27
-29.34
-37.95
-46.57
-55.99
-67.02
-79.89
-93.66
-105.88
-112.97
-111.24
-98.47
-74.99
-43.99
-10.57
19.92
43.65
59.14
67.10
69.38
67.79
63.44
56.80
48.25
38.54
28.92
20.93
15.78
14.01
15.12
17.90
20.72
22.10
21.14
17.74
12.51
6.34
0.05
-6.02
-12.00
-18.34
-25.50
-33.77
-43.28
-54.12
-66.32
-79.35
-91.77
-100.94
-103.52
-96.60
-78.99
-52.07
-19.70
12.96
41.09
61.56
73.55
78.05
76.93
72.05
64.76
56.03
46.80
38.17
31.22
26.78
25.03
25.50
27.19
28.99
30.03
29.76
27.93
24.43
19.21
12.29
3.84
-5.71
-15.72
-25.52
-34.57
-42.69
-50.06
-57.32
-65.40
-75.18
-86.92
-99.76
-111.35
-118.25
-116.85
-104.70
-81.60
-49.95
-14.16
20.68
50.27
71.99
85.16
90.65
90.14
85.57
78.77
71.26
64.08
57.81
52.53
47.92
43.19
36.94
27.24
12.23
-8.89
-34.84
-62.20
-86.66
-105.13
-117.51
-126.99
-138.52
-156.13
-180.75
-209.67
-237.90
-260.32
-273.40
-275.81
-267.72
-249.95
-223.61
-190.20
-151.89
-111.52
-71.82
-34.60
-0.16
32.78
66.71
104.68
149.38
201.97
260.94
321.63
376.89
419.04
442.44
445.34
430.26
402.44
367.50
329.48
290.19
250.11
209.81
170.90
135.79
106.65
84.18
67.34
53.87
41.50
28.87
15.86
3.35
-7.63
-16.41
-23.04
-28.21
-32.96
-38.38
-45.44
-54.79
-66.56
-80.18
-94.17
-106.38
-114.48
-116.64
-112.08
-101.34
-85.99
-68.13
-49.92
-33.13
-19.14
-8.86
-2.85
-1.16
-3.28
-8.11
-14.15
-19.90
-24.14
-26.20
-26.06
-24.10
-20.92
-17.17
-13.48
-10.46
-8.78
-9.08
-11.88
-17.34
-25.08
-34.20
-43.51
-51.92
-58.85
-64.55
-69.94
-76.38
-85.05
-96.49
-110.17
-124.23
-135.66
-140.88
-136.66
-121.24
-95.11
-61.20
-24.18
10.79
39.54
59.85
71.60
76.22
75.73
72.03
66.45
59.93
53.15
46.79
41.50
37.72
35.56
34.73
34.66
34.57
33.68
31.34
27.17
21.04
13.15
3.92
-6.14
-16.48
-26.69
-36.55
-46.07
-55.50
-65.38
-76.40
-89.05
-103.16
-117.34
-128.82
-133.91
-129.13
-112.60
-85.15
-50.34
-13.47
20.09
46.54
64.45
74.54
78.67
78.75
76.11
71.50
65.52
58.92
52.69
47.68
44.25
42.18
40.83
39.53
37.92
35.98
33.82
31.34
28.07
23.27
16.30
6.98
-4.22
-16.31
-28.25
-39.37
-49.59
-59.47
-69.93
-81.80
-95.36
-109.87
-123.31
-132.49
-133.82
-124.42
-103.38
-72.41
-35.67
1.52
34.25
59.51
76.50
86.24
90.43
90.51
87.39
81.69
74.29
66.43
59.53
54.48
51.35
49.39
47.61
45.37
42.78
40.39
38.64
37.33
35.42
31.52
24.53
14.22
1.45
-12.17
-24.86
-35.37
-43.23
-48.93
-53.76
-59.40
-67.54
-79.36
-94.95
-112.81
-129.80
-141.54
-143.58
-132.87
-109.04
-74.79
-35.22
3.77
37.33
62.79
79.83
89.74
94.20
94.49
91.30
85.20
77.14
68.69
61.66
57.45
56.44
57.87
60.12
61.49
60.82
57.89
53.34
48.19
43.14
38.21
32.65
25.34
15.43
2.90
-11.23
-25.25
-37.39
-46.60
-52.97
-57.67
-62.53
-69.29
-79.15
-92.38
-108.21
-124.78
-139.22
-147.95
-147.41
-135.16
-110.85
-76.81
-37.54
1.44
35.26
60.98
77.91
87.11
90.40
89.46
85.45
79.22
71.71
64.19
58.14
54.73
54.31
56.22
58.99
60.92
60.83
58.43
54.33
49.61
45.03
40.63
35.53
28.47
18.49
5.61
-8.95
-23.25
-35.36
-44.27
-50.28
-54.86
-60.11
-67.92
-79.33
-94.16
-110.90
-126.86
-138.56
-142.43
-135.66
-117.15
-88.13
-52.00
-13.57
22.29
51.90
73.43
86.82
93.16
93.93
90.54
84.28
76.53
68.81
62.68
59.23
58.70
60.35
62.73
64.25
63.81
61.20
56.99
52.13
47.36
42.75
37.58
30.75
21.39
9.40
-4.35
-18.31
-30.82
-40.86
-48.35
-54.20
-59.97
-67.32
-77.50
-90.83
-106.31
-121.48
-132.77
-136.28
-128.90
-109.60
-79.88
-43.52
-5.54
29.31
57.58
77.72
89.78
94.84
94.36
89.82
82.61
74.02
65.38
57.88
52.42
49.40
48.53
48.97
49.59
49.38
47.81
44.92
41.14
36.81
31.88
25.87
18.12
8.34
-3.12
-15.29
-26.93
-37.16
-45.83
-53.61
-61.83
-71.86
-84.61
-99.88
-116.05
-130.04
-137.88
-135.90
-121.92
-96.34
-62.22
-24.52
11.46
41.54
63.60
77.55
84.51
86.05
83.44
77.67
69.70
60.75
52.19
45.22
40.43
37.64
36.21
35.39
34.73
34.13
33.51
32.55
30.49
26.42
19.74
10.58
-0.24
-11.47
-21.99
-31.30
-39.64
-47.87
-57.10
-68.37
-82.15
-98.02
-114.33
-128.12
-135.73
-133.69
-119.87
-94.55
-60.56
-22.70
13.74
44.29
66.46
79.82
85.57
85.65
81.98
76.06
68.98
61.63
54.73
48.97
44.79
42.27
41.16
40.99
41.19
41.15
40.20
37.73
33.17
26.33
17.48
7.33
-3.25
-13.48
-23.08
-32.15
-41.20
-50.84
-61.73
-74.41
-89.00
-104.81
-119.88
-131.01
-134.36
-126.69
-106.76
-76.15
-39.06
-1.00
32.83
59.00
76.38
85.70
88.64
86.96
82.09
75.16
67.22
59.43
52.82
48.09
45.36
44.17
43.74
43.37
42.53
41.03
38.80
35.77
31.69
26.21
19.06
10.12
-0.32
-11.61
-22.83
-33.15
-42.13
-50.08
-58.11
-67.76
-80.28
-95.71
-112.24
-126.26
-133.25
-129.28
-112.64
-84.63
-49.30
-12.19
21.55
48.48
67.44
79.10
84.91
86.22
83.84
78.34
70.48
61.55
53.25
47.09
43.77
42.87
43.02
42.55
40.29
36.02
30.43
24.58
19.15
13.92
7.75
-0.79
-12.61
-27.47
-43.92
-59.77
-73.08
-82.93
-89.72
-94.99
-100.76
-108.76
-119.90
-133.79
-148.57
-161.02
-167.09
-162.93
-146.25
-117.49
-79.97
-39.07
-0.47
31.69
55.77
72.45
83.41
90.15
93.14
92.23
87.41
79.61
70.69
62.86
57.80
55.88
56.25
57.21
57.07
54.73
49.84
42.71
33.91
24.09
13.85
3.86
-5.14
-12.35
-17.12
-19.19
-18.84
-16.90
-14.58
-13.24
-14.19
-18.56
-27.13
-40.04
-56.41
-73.97
-89.27
-98.31
-97.74
-86.00
-64.00
-34.95
-3.29
26.52
51.36
69.87
82.31
89.96
94.27
96.45
97.14
96.77
95.63
94.19
93.00
92.50
92.76
93.33
93.54
92.91
91.67
90.64
90.89
92.79
95.44
96.67
93.82
85.11
70.58
52.29
33.44
17.03
4.63
-4.02
-10.50
-16.78
-24.21
-33.14
-42.87
-51.89
-58.25
-59.76
-54.54
-41.36
-20.32
6.88
37.18
66.89
92.73
112.68
126.18
133.90
137.04
136.84
134.38
130.63
126.65
123.49
121.98
122.48
124.71
127.98
131.49
134.56
136.77
137.84
137.53
135.63
132.03
126.88
120.53
113.36
105.52
96.85
86.87
75.02
60.93
44.40
25.59
4.98
-16.34
-36.62
-53.51
-64.60
-68.13
-63.71
-52.67
-37.62
-21.72
-7.81
2.30
7.89
9.15
6.72
1.42
-5.89
-14.27
-22.78
-30.49
-36.71
-41.18
-44.20
-46.56
-49.43
-53.99
-61.15
-71.20
-83.73
-97.78
-112.21
-126.10
-139.06
-151.21
-162.99
-174.85
-186.95
-199.20
-211.39
-223.55
-235.98
-249.00
-262.40
-274.92
-284.30
-287.89
-283.80
-271.91
-254.19
-234.12
-215.46
-200.84
-191.08
-185.17
-181.13
-176.94
-171.22
-163.40
-153.51
-141.77
-128.44
-113.84
-98.52
-83.10
-68.25
-54.34
-41.31
-28.82
-16.67
-5.26
4.14
9.75
9.91
3.96
-7.32
-21.89
-37.21
-51.25
-63.25
-73.78
-84.39
-96.92
-112.76
-132.24
-154.34
-176.59
-195.46
-207.17
-208.76
-199.01
-178.79
-150.72
-118.12
-83.84
-49.58
-15.68
18.35
53.25
89.37
126.30
162.93
197.69
229.07
256.23
279.38
299.57
317.82
333.91
345.61
348.86
339.25
314.06
273.98
223.46
169.53
119.57
79.34
51.74
36.59
31.06
30.22
27.90
17.81
-4.72
-40.82
-86.89
-135.09
-175.54
-199.74
-203.52
-188.35
-160.41
-128.08
-98.91
-77.56
-64.95
-58.85
-55.15
-49.42
-38.27
-20.26
3.99
32.33
61.92
90.16
115.15
135.77
151.46
162.11
167.96
169.74
168.65
166.10
163.24
160.41
156.87
151.00
140.96
125.52
104.77
80.36
55.13
32.28
14.21
1.83
-5.48
-9.09
-10.14
-8.70
-3.73
6.15
21.56
41.58
63.87
85.39
103.57
117.09
126.01
131.30
134.08
135.19
135.02
133.85
132.06
130.35
129.62
130.70
134.03
139.46
146.38
153.70
160.17
164.30
164.46
158.90
145.87
123.88
92.25
51.57
4.06
-46.62
-95.84
-138.95
-171.90
-191.70
-196.35
-184.85
-157.32
-115.25
-61.93
-2.53
56.63
109.31
150.93
179.50
195.67
201.61
199.61
191.02
176.11
154.91
128.35
99.00
70.62
46.92
29.90
18.97
11.13
2.42
-10.20
-27.63
-48.54
-70.34
-90.62
-108.21
-123.24
-136.44
-148.18
-157.93
-164.58
-167.13
-165.37
-159.93
-151.65
-140.75
-126.49
-107.57
-83.14
-53.74
-21.64
9.69
36.73
56.88
69.04
73.54
71.54
64.58
54.18
41.93
29.46
18.35
9.91
4.75
2.56
2.15
1.91
0.26
-3.72
-10.11
-18.29
-27.27
-36.37
-45.38
-54.72
-64.97
-76.61
-89.64
-103.59
-117.58
-130.38
-140.44
-145.96
-145.21
-136.95
-121.08
-98.89
-72.91
-46.24
-21.59
-0.62
16.21
29.34
39.47
47.08
52.30
55.06
55.50
54.24
52.29
50.91
51.03
52.94
56.09
59.26
61.05
60.40
57.08
51.63
44.94
37.69
29.94
21.07
10.27
-2.97
-18.49
-35.57
-53.20
-70.34
-86.11
-99.64
-110.00
-116.40
-118.43
-116.41
-111.55
-105.67
-100.63
-97.84
-97.86
-100.43
-104.75
-109.89
-115.18
-120.33
-125.43
-130.71
-136.22
-141.66
-146.34
-149.54
-150.73
-149.96
-147.81
-145.13
-142.70
-140.84
-139.37
-137.75
-135.38
-131.91
-127.43
-122.49
-117.96
-114.95
-114.53
-117.25
-122.60
-128.67
-132.15
-129.07
-115.98
-91.27
-55.87
-13.30
31.35
72.82
107.10
132.24
148.33
156.89
159.97
159.35
156.13
150.95
144.28
136.81
129.53
123.53
119.49
117.43
116.64
115.99
114.26
110.57
104.51
96.17
86.08
75.01
63.73
52.81
42.42
32.27
21.74
9.97
-3.90
-20.41
-39.36
-59.46
-77.89
-90.74
-93.88
-84.34
-61.68
-28.51
10.04
47.95
80.15
103.89
119.07
127.46
131.43
132.83
132.39
130.02
125.40
118.75
111.16
104.48
100.58
100.60
104.25
109.80
114.63
116.20
113.03
105.25
94.45
82.84
72.39
64.13
57.90
52.64
46.77
38.55
26.35
9.09
-13.23
-38.73
-63.44
-81.95
-89.05
-82.08
-62.50
-36.03
-10.94
4.91
6.89
-5.10
-27.21
-53.57
-78.81
-99.42
-114.16
-123.23
-127.28
-126.63
-121.31
-111.42
-97.46
-80.57
-62.24
-43.85
-26.30
-9.95
5.13
18.75
30.33
39.05
44.23
45.90
45.18
44.14
45.15
49.97
58.97
70.79
82.57
90.82
92.61
86.81
74.76
60.22
48.14
42.78
46.03
56.56
70.48
83.03
90.48
91.17
85.58
75.28
61.81
46.10
28.59
9.85
-8.98
-26.19
-40.08
-49.64
-54.97
-57.14
-57.65
-57.70
-57.76
-57.45
-55.84
-52.03
-45.66
-37.26
-28.25
-20.44
-15.47
-14.15
-16.20
-20.38
-25.08
-29.03
-31.76
-33.76
-36.19
-40.39
-47.42
-57.66
-70.44
-83.89
-94.93
-99.80
-95.13
-79.17
-52.81
-19.53
15.64
47.82
73.81
92.75
105.66
114.07
119.03
120.49
117.78
110.45
99.03
85.14
71.00
58.57
48.93
42.18
37.79
35.10
33.65
33.17
33.27
33.31
32.42
29.83
25.26
19.07
12.05
5.05
-1.44
-7.46
-13.42
-19.81
-26.91
-34.54
-42.23
-49.34
-55.49
-60.74
-65.62
-71.13
-78.41
-88.37
-101.14
-115.62
-129.23
-138.18
-138.42
-126.96
-103.16
-69.30
-30.07
8.84
42.59
68.55
86.61
98.51
106.47
112.01
115.60
116.97
115.91
112.91
109.17
106.21
105.01
105.62
107.15
108.35
108.26
106.68
104.11
101.39
99.13
97.47
96.14
94.66
92.59
89.77
86.21
82.14
77.95
74.02
70.78
68.46
67.04
66.11
64.86
62.24
57.10
48.52
36.10
20.43
3.30
-12.53
-23.85
-28.02
-23.97
-12.71
2.85
18.66
30.82
36.54
34.79
26.21
12.56
-3.98
-21.47
-38.48
-54.19
-68.03
-79.58
-88.40
-94.19
-97.03
-97.56
-96.89
-96.17
-96.06
-96.42
-96.34
-94.67
-90.58
-84.01
-75.69
-66.58
-57.29
-47.71
-37.04
-24.33
-9.09
8.34
26.76
44.44
59.42
69.85
74.17
71.20
60.36
41.93
17.23
-11.47
-41.19
-68.92
-92.19
-109.65
-121.21
-127.77
-130.49
-130.04
-126.16
-117.75
-103.53
-83.09
-57.27
-28.16
1.82
30.85
58.40
85.26
112.89
142.57
174.77
208.95
243.65
276.80
305.89
328.29
341.56
344.00
335.07
315.67
287.89
254.60
218.66
182.35
147.03
113.06
80.13
47.81
15.92
-15.01
-43.88
-69.30
-90.10
-105.91
-117.41
-126.27
-134.76
-145.24
-159.75
-179.76
-206.01
-238.36
-275.32
-313.82
-349.27
-376.44
-391.10
-391.68
-380.18
-361.75
-342.59
-327.33
-317.06
-309.16
-298.83
-281.66
-255.60
-221.58
-182.49
-141.58
-101.29
-63.22
-28.77
0.17
21.17
32.08
32.02
22.11
5.14
-15.26
-35.79
-54.33
-70.02
-83.03
-93.75
-102.35
-108.55
-111.91
-112.24
-109.94
-106.17
-102.53
-100.53
-101.02
-103.92
-108.39
-113.35
-117.97
-121.96
-125.51
-129.04
-133.00
-137.56
-142.58
-147.36
-150.66
-150.64
-145.27
-132.78
-112.24
-83.88
-49.15
-10.39
29.73
68.48
103.47
132.68
154.68
168.80
175.26
175.11
170.01
161.95
152.76
143.95
136.52
130.97
127.34
125.27
124.23
123.56
122.62
120.87
117.85
113.20
106.61
98.03
87.66
76.11
64.18
52.74
42.39
33.34
25.23
17.20
8.13
-3.08
-16.92
-32.80
-48.72
-61.50
-67.56
-64.08
-50.17
-27.39
0.63
29.48
55.44
76.53
92.63
104.71
113.80
120.27
123.88
124.37
122.09
118.27
114.51
112.14
111.57
112.19
112.81
112.22
109.69
105.03
98.35
89.78
79.38
67.20
53.41
38.49
23.18
8.35
-5.26
-17.28
-27.79
-37.27
-46.35
-55.57
-65.28
-75.64
-86.71
-98.31
-109.75
-119.62
-125.87
-126.35
-119.68
-106.01
-87.26
-66.51
-46.92
-30.62
-18.14
-8.68
-0.80
6.58
13.89
20.82
26.79
31.30
34.23
35.82
36.49
36.81
37.29
38.43
40.73
44.56
50.08
56.98
64.45
71.28
76.25
78.43
77.41
73.37
66.83
58.37
48.52
37.71
26.37
14.97
3.99
-6.13
-15.19
-23.28
-30.72
-38.10
-46.18
-55.71
-66.97
-79.36
-90.96
-98.84
-99.88
-91.90
-74.56
-49.64
-20.38
9.62
37.45
61.40
80.96
96.17
107.21
114.15
117.12
116.54
113.20
108.12
102.26
96.24
90.31
84.44
78.65
73.15
68.32
64.46
61.58
59.21
56.67
53.30
48.77
43.15
36.78
29.97
22.80
15.07
6.49
-3.16
-13.68
-24.55
-35.01
-44.37
-52.31
-58.97
-64.95
-71.11
-78.28
-87.13
-97.88
-110.00
-122.11
-131.82
-136.20
-132.56
-119.38
-97.06
-68.03
-36.08
-5.08
21.95
43.61
59.80
71.31
79.01
83.56
85.44
85.06
83.08
80.28
77.43
75.08
73.34
71.98
70.64
69.13
67.47
65.89
64.54
63.34
61.78
59.07
54.44
47.54
38.78
29.16
19.94
11.99
5.39
-0.70
-7.63
-16.49
-27.52
-39.89
-52.02
-62.29
-69.80
-74.75
-78.23
-81.84
-86.98
-94.36
-103.58
-113.10
-120.39
-122.53
-116.95
-102.34
-79.15
-49.53
-16.63
16.30
46.80
73.48
95.90
114.02
127.99
138.05
144.77
149.16
152.59
156.49
161.95
169.41
178.60
188.69
198.65
207.64
215.39
222.35
229.57
238.22
248.84
260.89
272.72
282.14
287.24
287.16
282.27
273.80
263.09
250.85
236.92
220.44
200.34
175.94
147.39
115.69
82.21
48.38
15.02
-17.95
-51.41
-86.84
-126.11
-171.19
-223.62
-283.40
-347.51
-409.12
-458.18
-484.16
-479.83
-444.43
-384.60
-312.18
-239.96
-177.46
-128.91
-93.73
-69.02
-51.84
-40.10
-31.90
-24.69
-15.13
-0.51
19.42
41.48
59.87
68.23
62.60
43.01
13.38
-20.29
-52.32
-79.35
-100.93
-119.09
-137.22
-158.97
-187.47
-224.71
-270.81
-323.46
-377.69
-426.60
-463.04
-481.73
-480.96
-463.01
-433.09
-397.21
-360.23
-324.76
-291.32
-259.42
-228.57
-198.70
-169.97
-142.25
-114.75
-86.24
-55.41
-21.32
16.35
57.27
100.42
143.99
185.46
221.89
250.65
270.22
280.79
284.14
282.92
279.65
275.98
272.44
268.82
264.60
259.35
252.58
243.53
231.03
213.71
190.61
161.74
128.35
92.66
57.33
24.69
-3.72
-27.24
-45.79
-59.40
-68.17
-72.27
-72.53
-70.68
-69.29
-70.94
-77.29
-88.29
-102.09
-115.80
-126.48
-132.14
-132.05
-126.45
-116.00
-101.19
-82.39
-59.93
-34.55
-7.41
19.93
45.87
69.00
88.24
102.94
112.94
118.48
120.15
118.62
114.54
108.41
100.71
91.93
82.74
73.79
65.51
57.92
50.59
42.86
34.22
24.58
14.39
4.43
-4.53
-12.10
-18.43
-24.28
-30.83
-39.28
-50.38
-63.88
-78.14
-90.26
-96.67
-94.23
-81.45
-59.11
-30.20
1.18
31.17
57.30
78.88
96.57
111.46
124.12
134.40
141.59
145.01
144.38
139.89
131.92
120.72
106.36
88.89
68.81
47.27
26.00
6.92
-8.48
-19.67
-27.16
-32.30
-36.74
-41.75
-47.95
-55.20
-62.84
-70.17
-76.64
-82.13
-86.85
-91.21
-95.73
-100.98
-107.48
-115.43
-124.32
-132.53
-137.36
-135.65
-124.96
-104.76
-76.88
-45.18
-14.11
12.78
33.89
49.64
61.57
71.27
79.44
85.86
89.87
91.05
89.72
86.94
84.09
82.38
82.44
84.16
86.84
89.50
91.19
91.26
89.43
85.68
80.04
72.53
63.14
51.99
39.42
26.02
12.45
-0.69
-13.12
-24.82
-35.94
-46.55
-56.60
-65.94
-74.57
-82.77
-91.24
-100.67
-111.23
-122.13
-131.43
-136.39
-134.32
-123.60
-104.33
-78.51
-49.43
-20.61
5.20
26.61
43.55
56.69
66.71
73.89
78.06
79.10
77.35
73.85
70.05
67.25
66.12
66.36
67.13
67.49
66.93
65.55
63.75
61.98
60.14
57.70
53.81
47.77
39.31
28.71
16.77
4.44
-7.37
-18.04
-27.20
-34.82
-41.06
-46.30
-51.18
-56.57
-63.39
-72.19
-82.51
-92.60
-99.44
-99.62
-90.49
-71.25
-43.29
-9.79
25.37
58.78
88.13
112.27
130.67
143.06
149.14
148.96
143.15
133.14
121.00
108.84
98.33
90.30
84.62
80.50
76.84
72.67
67.37
60.74
52.80
43.75
33.87
23.53
13.24
3.53
-5.21
-12.94
-20.02
-27.07
-34.64
-42.78
-50.93
-58.11
-63.42
-66.57
-68.15
-69.44
-71.81
-76.20
-82.60
-90.00
-96.54
-99.90
-97.69
-88.04
-70.07
-44.36
-13.13
20.02
50.95
76.01
92.92
101.22
101.94
96.86
87.88
76.49
63.91
51.29
39.82
30.66
24.48
21.22
19.95
19.27
17.77
14.69
10.01
4.44
-1.03
-5.63
-9.15
-12.01
-15.17
-19.69
-26.26
-34.90
-44.79
-54.69
-63.35
-70.06
-74.93
-78.82
-83.03
-88.79
-96.89
-107.18
-118.39
-128.19
-133.54
-131.60
-120.77
-101.47
-76.18
-48.72
-22.92
-1.36
15.07
26.95
35.31
40.95
44.03
44.46
42.44
38.92
35.39
33.37
33.72
36.28
40.03
43.71
46.42
47.92
48.53
48.67
48.46
47.51
45.07
40.43
33.32
24.13
13.80
3.48
-5.80
-13.62
-20.12
-25.99
-32.20
-39.67
-49.14
-60.81
-74.17
-87.76
-99.25
-105.79
-104.87
-95.19
-77.26
-53.48
-27.33
-2.35
18.86
35.14
46.60
54.04
58.27
59.79
58.79
55.52
50.62
45.16
40.46
37.57
36.92
38.01
39.71
40.71
40.15
37.88
34.46
30.73
27.30
24.15
20.69
16.02
9.56
1.32
-7.96
-17.17
-25.27
-31.77
-36.86
-41.23
-45.82
-51.49
-58.89
-68.37
-79.69
-91.72
-102.28
-108.35
-107.01
-96.53
-77.20
-51.59
-23.64
2.59
24.13
39.77
49.86
55.55
58.06
58.19
56.42
53.18
49.17
45.28
42.42
41.10
41.21
42.10
42.86
42.77
41.61
39.66
37.47
35.52
33.82
31.97
29.28
25.06
18.98
11.20
2.34
-6.66
-14.89
-21.78
-27.28
-31.93
-36.63
-42.43
-50.16
-60.30
-72.68
-86.27
-99.17
-108.75
-112.23
-107.48
-93.84
-72.58
-46.63
-19.82
4.38
23.71
37.57
46.67
52.32
55.65
57.27
57.35
56.01
53.68
51.16
49.37
48.96
49.91
51.58
53.01
53.39
52.39
50.22
47.37
44.30
41.12
37.53
33.02
27.15
19.75
11.07
1.65
-7.84
-16.82
-24.94
-32.10
-38.40
-44.10
-49.55
-55.29
-62.03
-70.51
-81.06
-93.05
-104.63
-112.85
-114.49
-107.29
-90.93
-67.33
-40.04
-13.09
10.36
28.78
42.12
51.30
57.41
61.15
62.79
62.41
60.36
57.41
54.63
52.89
52.61
53.54
54.92
55.82
55.52
53.93
51.51
49.00
46.82
45.01
43.13
40.46
36.17
29.76
21.36
11.88
2.67
-5.46
-11.95
-16.74
-20.37
-23.89
-28.47
-34.73
-42.53
-51.17
-60.63
-70.14
-77.85
-81.16
-77.82
-66.73
-48.29
-24.30
2.77
28.98
52.11
71.96
88.76
101.22
105.70
97.60
73.50
33.16
-21.88
-85.55
-148.52
-201.31
-237.62
-255.88
-258.46
-249.90
-221.19
-172.55
-113.55
-57.31
-12.07
20.50
42.00
55.01
62.45
67.62
71.56
75.91
83.06
94.40
109.11
123.84
134.35
137.34
131.66
116.90
95.41
71.50
48.39
29.12
14.73
4.51
-2.93
-8.94
-15.57
-23.91
-33.91
-44.78
-55.39
-64.80
-71.96
-75.69
-74.97
-69.93
-61.27
-50.06
-37.50
-24.61
-12.27
-0.75
10.37
21.86
34.24
47.75
62.20
77.07
91.70
105.34
117.41
127.56
135.55
141.11
143.82
143.18
138.84
130.75
119.18
104.82
88.56
71.27
53.62
35.85
17.88
-0.42
-18.92
-37.01
-53.62
-67.48
-77.55
-83.46
-85.59
-84.91
-82.60
-79.61
-76.53
-73.53
-70.69
-68.14
-66.22
-65.32
-65.63
-66.99
-68.86
-70.49
-71.14
-70.32
-67.85
-63.83
-58.56
-52.41
-45.79
-39.13
-32.97
-27.86
-24.31
-22.54
-22.45
-23.52
-25.02
-26.38
-27.33
-28.12
-29.30
-31.52
-35.21
-40.39
-46.74
-53.56
-59.99
-65.03
-67.57
-66.66
-61.66
-52.58
-40.14
-25.72
-10.90
2.90
14.80
24.50
32.10
37.77
41.55
43.31
42.92
40.49
36.49
31.71
27.09
23.43
21.27
20.71
21.52
23.11
24.75
25.74
25.60
24.20
21.64
18.21
14.13
9.44
4.07
-2.16
-9.45
-17.95
-27.65
-38.23
-48.86
-58.11
-64.10
-64.96
-59.43
-47.34
-29.70
-8.50
13.93
35.51
54.74
70.78
83.37
92.51
98.41
101.35
101.74
100.13
97.20
93.65
90.03
86.63
83.45
80.30
76.97
73.29
69.18
64.59
59.46
53.66
47.10
39.76
31.66
22.79
13.05
2.27
-9.73
-22.91
-36.91
-51.05
-64.27
-75.24
-82.46
-84.54
-80.63
-70.88
-56.50
-39.72
-23.06
-8.72
2.01
8.90
12.51
13.68
13.15
11.33
8.42
4.53
-0.10
-5.15
-10.19
-14.85
-18.84
-22.04
-24.54
-26.71
-29.18
-32.64
-37.64
-44.37
-52.55
-61.61
-70.87
-79.97
-88.97
-98.36
-108.88
-121.26
-135.96
-152.88
-170.89
-187.65
-199.63
-202.98
-194.68
-173.98
-142.94
-106.08
-68.75
-35.49
-8.70
11.48
26.24
36.97
44.38
48.62
49.83
48.88
47.50
47.90
51.91
60.28
72.41
86.59
100.68
112.82
121.91
127.65
130.28
130.10
127.23
121.55
112.96
101.66
88.20
73.25
57.22
40.07
21.65
2.20
-16.95
-33.45
-44.51
-47.95
-43.09
-30.99
-14.05
4.86
23.33
39.78
53.37
63.74
70.73
74.26
74.57
72.27
68.36
64.04
60.35
57.92
56.94
57.04
57.60
57.85
57.16
55.13
51.71
47.17
41.94
36.46
30.92
25.22
18.88
11.19
1.43
-10.91
-25.80
-42.44
-59.11
-73.36
-82.46
-84.22
-77.65
-63.40
-43.55
-21.01
1.39
21.62
38.60
52.09
62.28
69.34
73.41
74.66
73.48
70.51
66.55
62.39
58.60
55.51
53.21
51.64
50.59
49.65
48.28
45.80
41.67
35.67
27.97
19.11
9.72
0.30
-8.96
-18.16
-27.70
-38.13
-50.00
-63.55
-78.40
-93.26
-105.93
-113.74
-114.30
-106.34
-90.25
-67.95
-42.33
-16.39
7.53
28.08
44.76
57.62
66.87
72.68
75.32
75.25
73.30
70.49
67.93
66.37
65.94
66.24
66.51
66.10
64.72
62.54
59.98
57.34
54.49
50.86
45.71
38.47
29.12
18.27
6.92
-3.89
-13.47
-21.70
-29.06
-36.39
-44.64
-54.61
-66.65
-80.43
-94.71
-107.47
-116.18
-118.47
-112.84
-99.30
-79.33
-55.56
-30.87
-7.57
12.94
30.19
44.23
55.16
63.03
67.84
69.90
69.87
68.70
67.26
66.08
65.19
64.25
62.89
60.93
58.56
56.16
54.07
52.39
50.85
48.90
45.81
40.95
33.97
25.02
14.70
3.95
-6.24
-15.23
-22.93
-29.89
-37.06
-45.51
-55.96
-68.43
-82.09
-95.15
-105.28
-110.05
-107.68
-97.62
-80.82
-59.44
-36.20
-13.63
6.51
23.35
36.68
46.60
53.22
56.68
57.34
55.81
53.01
49.87
47.11
45.06
43.63
42.57
41.63
40.71
39.90
39.27
38.75
37.94
36.24
33.00
27.89
21.01
12.89
4.28
-4.16
-12.04
-19.41
-26.59
-34.14
-42.63
-52.56
-64.01
-76.38
-88.21
-97.21
-100.92
-97.39
-86.05
-68.03
-45.79
-22.44
-0.71
17.64
32.03
42.67
50.11
54.77
56.88
56.67
54.60
51.49
48.38
46.25
45.54
46.06
47.02
47.46
46.68
44.54
41.43
38.01
34.74
31.63
28.17
23.56
17.12
8.68
-1.31
-11.88
-21.98
-30.85
-38.30
-44.77
-51.14
-58.40
-67.30
-78.14
-90.48
-103.03
-113.83
-120.52
-121.03
-114.13
-99.89
-79.75
-56.06
-31.47
-8.26
12.01
28.62
41.43
50.68
56.78
60.17
61.41
61.07
59.79
58.15
56.58
55.32
54.37
53.52
52.48
51.07
49.25
47.18
45.05
42.90
40.53
37.44
33.05
26.90
18.90
9.45
-0.65
-10.44
-19.11
-26.35
-32.47
-38.26
-44.85
-53.22
-63.87
-76.52
-89.86
-101.84
-110.02
-112.22
-107.07
-94.56
-75.96
-53.53
-29.91
-7.44
12.25
28.41
40.92
50.06
56.17
59.63
60.89
60.47
59.05
57.36
56.06
55.56
55.92
56.87
57.87
58.31
57.73
55.96
53.20
49.88
46.44
43.10
39.73
35.88
30.97
24.56
16.58
7.36
-2.45
-12.08
-20.90
-28.63
-35.44
-41.88
-48.67
-56.63
-66.35
-78.09
-91.44
-105.15
-117.10
-124.66
-125.41
-117.94
-102.46
-80.79
-55.83
-30.60
-7.50
12.13
27.85
39.71
47.91
52.73
54.57
54.08
52.16
49.75
47.62
46.24
45.65
45.64
45.79
45.72
45.21
44.26
43.02
41.69
40.30
38.57
35.95
31.79
25.65
17.62
8.35
-1.13
-9.86
-17.25
-23.40
-28.90
-34.66
-41.53
-50.04
-60.25
-71.64
-83.04
-92.72
-98.74
-99.32
-93.49
-81.33
-64.08
-43.76
-22.70
-2.95
13.99
27.26
36.66
42.40
45.02
45.28
44.00
41.96
39.83
38.08
36.95
36.42
36.22
36.01
35.47
34.47
33.09
31.47
29.64
27.40
24.31
19.89
13.85
6.28
-2.29
-11.08
-19.27
-26.36
-32.37
-37.89
-43.93
-51.53
-61.32
-73.08
-85.53
-96.50
-103.46
-104.26
-97.86
-84.67
-66.41
-45.53
-24.42
-4.86
12.23
26.54
38.01
46.58
52.13
54.66
54.57
52.60
49.70
46.76
44.36
42.75
41.82
41.37
41.15
40.99
40.85
40.67
40.32
39.51
37.71
34.32
28.88
21.29
11.97
1.74
-8.45
-17.87
-26.17
-33.50
-40.31
-47.25
-55.00
-64.10
-74.77
-86.50
-97.91
-106.82
-110.77
-107.77
-97.19
-79.96
-58.36
-35.24
-13.15
6.18
22.00
34.24
43.10
48.86
51.80
52.34
51.15
49.09
47.03
45.63
45.11
45.20
45.35
45.00
43.86
42.04
40.02
38.20
36.76
35.36
33.26
29.69
24.19
16.83
8.18
-0.89
-9.58
-17.40
-24.32
-30.74
-37.37
-45.05
-54.44
-65.68
-77.99
-89.60
-98.05
-100.89
-96.50
-84.72
-67.04
-46.03
-24.53
-4.86
11.62
24.54
34.13
40.77
44.82
46.55
46.30
44.64
42.30
40.00
38.27
37.30
36.96
36.92
36.83
36.46
35.76
34.74
33.38
31.45
28.62
24.54
19.05
12.31
4.76
-3.10
-10.84
-18.33
-25.77
-33.57
-42.26
-52.19
-63.34
-75.11
-86.18
-94.68
-98.52
-96.05
-86.60
-70.85
-50.74
-28.87
-7.83
10.53
25.31
36.47
44.36
49.43
52.01
52.40
51.07
48.66
45.99
43.71
42.19
41.33
40.79
40.21
39.38
38.40
37.42
36.46
35.24
33.15
29.55
24.00
16.52
7.61
-1.95
-11.37
-20.10
-28.00
-35.37
-42.78
-50.99
-60.65
-72.02
-84.67
-97.28
-107.70
-113.43
-112.39
-103.64
-87.79
-66.88
-43.66
-20.79
-0.12
17.48
31.94
43.44
52.13
58.01
61.08
61.70
60.61
58.82
57.21
56.27
55.97
55.87
55.45
54.40
52.81
51.00
49.30
47.75
45.95
43.22
38.91
32.73
24.94
16.27
7.65
-0.20
-7.00
-12.97
-18.70
-24.85
-32.05
-40.70
-50.97
-62.57
-74.57
-85.28
-92.48
-93.93
-88.17
-75.15
-56.34
-34.30
-11.80
8.95
26.83
41.61
53.59
63.02
69.93
74.25
76.02
75.69
74.06
72.12
70.73
70.33
70.84
71.85
72.76
73.03
72.39
70.77
68.27
64.95
60.83
55.89
50.02
43.21
35.43
26.76
17.25
7.04
-3.72
-14.82
-26.07
-37.38
-48.83
-60.66
-73.13
-86.22
-99.34
-110.97
-118.85
-120.42
-113.62
-97.70
-73.64
-43.92
-11.82
19.54
48.08
72.89
94.07
112.11
127.36
139.91
149.69
156.79
161.64
165.07
168.00
171.31
175.55
181.11
188.43
198.11
210.75
226.37
243.80
260.41
272.47
276.26
269.29
251.28
224.18
191.44
156.68
122.63
90.61
60.60
31.91
3.57
-25.43
-56.28
-90.19
-127.99
-169.21
-211.56
-250.92
-282.37
-301.84
-307.66
-301.16
-286.09
-267.13
-248.18
-231.44
-217.42
-205.59
-195.26
-185.97
-177.55
-169.78
-162.25
-154.40
-145.85
-136.52
-126.71
-117.04
-108.08
-100.31
-93.88
-88.82
-84.97
-82.13
-80.09
-78.66
-77.73
-77.27
-77.32
-78.02
-79.50
-81.96
-85.54
-90.30
-96.04
-102.29
-108.11
-112.19
-113.03
-109.30
-100.34
-86.35
-68.50
-48.54
-28.28
-9.10
8.22
23.40
36.38
47.00
55.05
60.37
63.21
64.25
64.56
65.13
66.47
68.45
70.43
71.64
71.61
70.41
68.50
66.40
64.28
61.68
57.80
51.79
43.34
32.95
21.83
11.42
2.68
-4.26
-10.25
-16.68
-24.87
-35.62
-48.82
-63.52
-77.99
-90.03
-97.24
-97.58
-89.83
-74.14
-52.23
-26.94
-1.55
21.24
39.83
53.87
63.84
70.45
74.26
75.62
74.90
72.62
69.52
66.34
63.56
61.31
59.41
57.64
55.82
53.97
52.16
50.34
48.24
45.35
41.11
35.13
27.38
18.27
8.53
-1.08
-9.95
-17.88
-25.11
-32.31
-40.40
-50.29
-62.45
-76.46
-90.55
-101.91
-107.25
-104.08
-91.60
-71.20
-46.00
-19.76
4.31
24.38
39.94
51.37
59.21
63.83
65.44
64.44
61.63
58.11
54.93
52.73
51.47
50.57
49.35
47.44
45.01
42.58
40.53
38.77
36.60
33.05
27.37
19.50
10.09
0.26
-8.87
-16.65
-23.09
-28.77
-34.70
-41.90
-51.25
-62.97
-76.40
-89.76
-100.38
-105.26
-102.14
-90.25
-70.76
-46.46
-20.83
2.97
22.95
38.44
49.77
57.70
62.90
65.79
66.58
65.59
63.39
60.74
58.48
57.14
56.80
57.05
57.09
56.14
53.78
50.16
45.88
41.66
37.95
34.63
30.98
26.01
18.91
9.48
-1.73
-13.57
-24.78
-34.52
-42.66
-49.76
-56.79
-64.71
-74.18
-85.40
-98.05
-111.15
-123.04
-131.40
-133.70
-127.90
-113.18
-90.51
-62.48
-32.61
-4.27
20.11
39.42
53.64
63.35
69.33
72.31
73.03
72.22
70.71
69.21
68.15
67.62
67.38
66.99
65.98
64.04
61.19
57.70
54.03
50.57
47.35
43.88
39.30
32.70
23.72
12.70
0.81
-10.52
-20.11
-27.42
-32.81
-37.20
-41.85
-47.96
-56.44
-67.60
-80.87
-94.70
-106.58
-113.64
-113.44
-104.80
-88.23
-65.83
-40.52
-15.25
7.67
26.94
42.05
53.11
60.48
64.69
66.32
65.95
64.15
61.44
58.32
55.16
52.28
49.82
47.74
45.84
43.86
41.65
39.14
36.33
33.03
28.89
23.38
16.01
6.68
-4.18
-15.63
-26.53
-35.97
-43.60
-49.76
-55.38
-61.62
-69.49
-79.33
-90.58
-101.61
-110.06
-113.37
-109.62
-98.21
-80.07
-57.38
-32.92
-9.19
12.10
30.16
44.83
56.14
64.11
68.76
70.31
69.36
66.85
63.82
61.09
59.09
57.84
57.07
56.43
55.53
54.11
51.92
48.81
44.72
39.71
33.91
27.50
20.61
13.26
5.46
-2.86
-11.91
-21.97
-33.33
-45.95
-59.16
-71.39
-80.40
-83.87
-80.15
-68.90
-51.28
-29.54
-6.37
15.75
35.05
50.51
61.74
68.86
72.26
72.67
70.95
67.99
64.51
60.99
57.68
54.71
52.18
50.14
48.62
47.50
46.53
45.34
43.48
40.44
35.75
29.07
20.31
9.77
-1.92
-13.90
-25.34
-35.81
-45.44
-55.04
-65.74
-78.55
-93.66
-109.96
-124.99
-135.50
-138.41
-131.90
-116.15
-93.27
-66.58
-39.53
-14.71
6.52
23.87
37.62
48.07
55.36
59.66
61.38
61.39
60.80
60.61
61.32
62.68
63.94
64.30
63.34
61.31
58.92
56.95
55.75
54.95
53.59
50.52
44.93
36.72
26.53
15.45
4.60
-5.41
-14.58
-23.52
-33.14
-44.24
-57.16
-71.55
-86.21
-99.13
-107.91
-110.30
-104.84
-91.44
-71.49
-47.55
-22.58
0.78
20.75
36.58
48.22
56.05
60.56
62.40
62.24
60.87
59.06
57.44
56.36
55.88
55.76
55.64
55.16
54.11
52.54
50.69
48.82
47.00
44.84
41.61
36.44
28.83
18.91
7.58
-3.81
-14.04
-22.48
-29.35
-35.63
-42.62
-51.51
-62.83
-76.19
-90.21
-102.62
-110.71
-112.14
-105.56
-91.18
-70.69
-46.79
-22.30
0.59
20.56
37.13
50.16
59.64
65.54
68.00
67.59
65.25
62.13
59.21
57.06
55.71
54.79
53.81
52.39
50.39
47.92
45.19
42.35
39.37
35.97
31.72
26.19
19.12
10.57
0.91
-9.21
-19.08
-28.12
-36.08
-43.17
-50.11
-57.99
-67.72
-79.54
-92.46
-104.25
-112.00
-113.01
-105.82
-90.69
-69.57
-45.31
-20.84
1.59
20.63
35.72
46.77
53.86
57.27
57.51
55.44
52.15
48.67
45.75
43.61
41.98
40.41
38.50
36.20
33.84
31.84
30.41
29.38
28.09
25.75
21.67
15.62
7.93
-0.66
-9.28
-17.27
-24.41
-31.01
-37.82
-45.73
-55.38
-66.74
-78.89
-89.94
-97.41
-98.89
-92.74
-78.79
-58.47
-34.52
-10.16
11.72
29.24
41.76
49.63
53.72
54.97
54.15
51.81
48.44
44.53
40.65
37.32
34.85
33.29
32.37
31.74
31.09
30.23
29.06
27.43
25.06
21.44
16.12
8.89
-0.02
-9.90
-19.79
-28.85
-36.69
-43.55
-50.28
-58.01
-67.60
-79.04
-91.11
-101.50
-107.35
-106.27
-97.15
-80.59
-58.72
-34.44
-10.55
10.89
28.79
42.80
52.98
59.49
62.59
62.74
60.74
57.64
54.53
52.17
50.82
50.17
49.63
48.62
46.96
44.84
42.69
40.85
39.24
37.31
34.26
29.32
22.18
13.05
2.71
-7.84
-17.69
-26.33
-33.81
-40.68
-47.80
-56.05
-66.07
-77.96
-91.09
-103.89
-114.01
-118.74
-115.87
-104.44
-85.30
-61.01
-34.98
-10.46
10.41
26.93
39.46
48.75
55.26
59.09
60.16
58.75
55.68
52.21
49.59
48.47
48.71
49.50
49.84
49.07
47.18
44.67
42.15
39.95
37.80
34.93
30.45
23.79
15.06
4.99
-5.33
-14.94
-23.34
-30.65
-37.42
-44.44
-52.44
-61.95
-73.19
-85.86
-98.95
-110.65
-118.59
-120.47
-114.85
-101.81
-82.99
-61.11
-39.02
-18.90
-1.86
11.91
22.68
30.71
36.10
38.96
39.55
38.50
36.77
35.42
35.32
36.88
39.89
43.61
47.08
49.48
50.47
50.29
49.50
48.61
47.66
46.13
43.05
37.58
29.45
19.16
7.95
-2.81
-12.07
-19.46
-25.44
-30.99
-37.33
-45.58
-56.48
-70.15
-85.89
-102.05
-116.18
-125.47
-127.56
-121.33
-107.34
-87.73
-65.51
-43.65
-24.25
-8.25
4.38
14.17
21.59
26.93
30.29
31.90
32.21
31.89
31.62
31.84
32.72
34.11
35.77
37.53
39.28
40.91
42.23
42.91
42.60
41.07
38.26
34.41
29.84
24.81
19.35
13.08
5.38
-4.56
-17.26
-32.58
-49.34
-65.34
-77.76
-83.94
-82.27
-72.67
-56.69
-36.82
-15.70
4.59
22.85
38.50
51.29
60.97
67.24
70.05
69.83
67.52
64.29
61.19
58.83
57.23
56.02
54.76
53.17
51.28
49.33
47.44
45.52
43.11
39.54
34.28
27.15
18.52
9.13
-0.20
-8.93
-16.97
-24.74
-32.92
-42.24
-53.25
-66.10
-80.37
-94.78
-107.23
-115.09
-115.93
-108.35
-92.60
-70.60
-45.38
-20.08
2.96
22.60
38.72
51.72
61.97
69.57
74.46
76.76
76.97
76.00
74.86
74.33
74.60
75.26
75.55
74.78
72.78
69.90
66.84
64.20
62.03
59.78
56.46
51.16
43.47
33.68
22.66
11.50
1.13
-7.99
-15.90
-23.07
-30.20
-38.08
-47.38
-58.51
-71.35
-84.99
-97.63
-106.80
-110.03
-105.62
-93.34
-74.58
-51.94
-28.29
-6.06
13.33
29.31
41.89
51.17
57.26
60.34
60.90
59.77
57.95
56.34
55.45
55.31
55.55
55.69
55.34
54.41
53.06
51.54
50.00
48.28
45.94
42.33
36.89
29.45
20.30
10.21
0.17
-8.95
-16.70
-23.21
-29.17
-35.54
-43.24
-52.86
-64.34
-76.90
-88.90
-98.21
-102.58
-100.31
-90.77
-74.74
-54.20
-31.81
-10.15
8.85
24.18
35.67
43.64
48.54
50.80
50.84
49.24
46.77
44.24
42.30
41.18
40.69
40.37
39.81
38.85
37.64
36.36
35.07
33.52
31.19
27.59
22.42
15.82
8.20
0.19
-7.62
-14.92
-21.75
-28.55
-36.02
-44.79
-55.05
-66.24
-76.87
-84.87
-88.10
-85.03
-75.31
-59.84
-40.54
-19.75
0.36
18.18
32.86
44.04
51.75
56.20
57.75
57.01
54.77
51.92
49.22
47.17
45.87
45.09
44.48
43.67
42.47
40.84
38.82
36.41
33.51
29.90
25.29
19.48
12.44
4.42
-4.13
-12.74
-21.01
-28.75
-36.06
-43.27
-50.86
-59.43
-69.36
-80.60
-92.24
-102.51
-109.07
-109.73
-103.19
-89.67
-70.86
-49.30
-27.57
-7.56
9.86
24.54
36.62
46.11
52.84
56.69
57.91
57.26
55.83
54.65
54.29
54.66
55.16
55.02
53.78
51.47
48.62
45.85
43.53
41.54
39.26
35.89
30.79
23.74
15.06
5.49
-4.10
-12.93
-20.54
-26.94
-32.52
-38.05
-44.42
-52.42
-62.32
-73.59
-84.71
-93.42
-97.27
-94.48
-84.62
-68.73
-49.05
-28.19
-8.34
9.22
24.02
36.12
45.64
52.60
56.97
58.89
58.87
57.67
56.14
54.87
54.02
53.38
52.46
50.89
48.52
45.58
42.53
39.84
37.66
35.71
33.33
29.73
24.36
17.19
8.75
-0.09
-8.48
-15.88
-22.28
-28.12
-34.14
-41.08
-49.51
-59.62
-71.06
-82.74
-92.86
-99.23
-99.82
-93.52
-80.61
-62.75
-42.53
-22.56
-4.81
9.78
21.09
29.50
35.45
39.23
41.07
41.30
40.40
39.03
37.74
36.84
36.30
35.84
35.09
33.88
32.31
30.70
29.36
28.26
26.98
24.84
21.21
15.88
9.24
2.06
-4.86
-11.03
-16.51
-21.86
-27.89
-35.33
-44.53
-55.05
-65.62
-74.28
-78.79
-77.37
-69.31
-55.30
-37.27
-17.76
0.82
16.82
29.48
38.80
45.15
48.96
50.59
50.44
48.97
46.73
44.26
41.95
40.13
38.88
38.16
37.86
37.90
38.16
38.47
38.39
37.34
34.88
30.70
24.72
17.00
7.78
-2.54
-13.51
-24.72
-36.01
-47.26
-58.82
-71.51
-86.12
-102.73
-120.14
-135.97
-147.31
-151.84
-148.02
-136.54
-120.48
-104.18
-91.58
-84.63
-83.25
-86.12
-91.90
-98.36
-104.39
-110.31
-117.27
-125.85
-135.46
-144.93
-153.45
-160.78
-164.06
-160.22
-147.24
-124.69
-93.02
-52.91
-5.40
48.36
107.55
175.52
254.91
344.35
437.25
523.86
594.92
644.11
669.63
652.22
584.73
477.96
357.36
247.43
160.20
96.44
51.68
21.16
1.12
-8.01
-6.43
2.34
12.99
20.75
23.70
22.31
18.65
14.68
13.95
17.96
24.85
30.15
28.78
21.44
9.57
-4.43
-18.48
-29.99
-38.10
-44.22
-51.17
-61.40
-75.42
-92.40
-110.54
-128.20
-143.93
-157.54
-170.30
-184.43
-202.33
-225.59
-254.80
-288.34
-322.13
-349.71
-364.12
-360.31
-337.24
-298.34
-250.25
-200.61
-155.32
-117.22
-86.37
-61.52
-41.59
-26.28
-15.71
-9.54
-6.46
-4.26
-0.67
5.60
14.37
24.08
32.50
37.82
39.37
37.71
34.33
30.88
28.34
26.74
25.17
22.39
17.38
9.73
-0.27
-11.81
-23.81
-34.95
-43.73
-48.56
-47.99
-41.20
-28.41
-11.06
8.48
27.55
43.99
56.64
65.37
70.80
73.68
74.50
73.33
70.08
64.88
58.35
51.63
45.91
42.05
40.16
39.54
39.09
37.80
35.17
31.32
26.71
21.84
16.90
11.77
6.13
-0.31
-7.69
-16.04
-25.39
-35.82
-47.22
-58.88
-69.30
-76.18
-77.10
-70.35
-55.86
-35.41
-12.21
10.17
28.97
42.87
52.08
57.64
60.65
61.74
61.05
58.58
54.65
50.02
45.72
42.65
41.16
40.95
41.26
41.21
40.21
38.01
34.62
30.14
24.61
17.95
10.13
1.31
-8.16
-17.78
-27.16
-36.11
-44.92
-54.21
-64.65
-76.50
-89.00
-100.30
-107.67
-108.51
-101.16
-85.82
-64.51
-40.50
-17.24
2.63
17.78
28.11
34.25
37.06
37.21
35.31
31.99
27.96
23.90
20.25
17.05
14.00
10.72
6.99
2.95
-0.99
-4.43
-7.31
-10.07
-13.44
-18.16
-24.53
-32.31
-40.78
-49.09
-56.67
-63.38
-69.62
-76.14
-83.81
-93.34
-105.00
-118.20
-131.19
-141.12
-144.56
-138.59
-121.85
-95.32
-62.23
-27.12
5.61
32.91
53.64
68.29
78.12
84.32
87.56
88.13
86.36
82.91
78.80
75.12
72.62
71.50
71.43
71.78
71.89
71.31
69.77
67.16
63.45
58.70
53.03
46.55
39.33
31.41
22.75
13.35
3.19
-7.86
-20.07
-33.75
-48.76
-64.02
-77.21
-85.19
-84.93
-74.83
-55.56
-30.08
-2.67
22.56
42.87
57.42
66.78
72.14
74.43
74.09
71.24
66.15
59.49
52.38
46.08
41.54
39.21
38.78
39.41
39.97
39.36
36.97
32.76
27.26
21.16
14.98
8.85
2.46
-4.65
-12.83
-22.29
-33.14
-45.34
-58.57
-71.81
-83.09
-89.73
-89.06
-79.52
-61.46
-37.32
-10.84
14.19
35.05
50.63
61.17
67.49
70.32
69.98
66.61
60.61
52.92
44.94
38.15
33.55
31.33
30.83
30.91
30.39
28.49
25.05
20.38
15.10
9.69
4.38
-0.98
-6.78
-13.49
-21.49
-31.11
-42.53
-55.77
-70.39
-85.21
-98.09
-106.29
-107.13
-99.01
-82.16
-58.70
-32.07
-5.88
17.01
35.14
48.26
56.93
61.88
63.73
63.02
60.40
56.70
52.89
49.78
47.81
46.97
46.91
47.26
47.79
48.33
48.67
48.31
46.52
42.52
35.94
27.05
16.67
5.90
-4.42
-13.98
-23.15
-32.72
-43.62
-56.52
-71.33
-86.98
-101.24
-111.12
-113.61
-106.70
-90.14
-65.81
-37.06
-7.81
18.66
40.40
56.85
68.44
75.95
80.10
81.37
80.19
77.08
72.84
68.38
64.56
61.92
60.53
59.92
59.32
58.00
55.62
52.33
48.64
45.00
41.46
37.45
32.05
24.41
14.22
2.07
-10.78
-22.80
-32.87
-40.67
-46.86
-52.81
-60.07
-69.85
-82.52
-97.26
-112.08
-124.09
-130.21
-127.98
-116.36
-96.18
-69.94
-41.04
-12.81
12.34
33.23
49.61
61.71
69.74
73.80
74.19
71.59
67.28
62.75
59.24
57.34
56.83
56.92
56.76
55.78
53.94
51.60
49.19
46.87
44.32
40.91
35.86
28.68
19.46
8.89
-1.93
-11.90
-20.30
-27.07
-32.78
-38.52
-45.54
-54.89
-67.01
-81.28
-95.83
-107.79
-113.87
-111.46
-99.53
-79.13
-53.13
-25.23
1.15
23.72
41.51
54.59
63.40
68.34
69.70
67.88
63.65
58.24
53.12
49.55
48.21
48.87
50.66
52.38
53.05
52.31
50.40
47.92
45.37
42.80
39.68
35.19
28.60
19.72
9.09
-2.16
-12.76
-21.72
-28.80
-34.57
-40.15
-46.84
-55.68
-67.03
-80.48
-94.71
-107.61
-116.61
-119.17
-113.53
-99.39
-78.06
-52.34
-25.63
-1.00
19.53
35.25
46.41
53.67
57.65
58.90
57.93
55.47
52.45
49.75
47.85
46.77
45.98
44.83
42.87
40.09
36.90
33.85
31.23
28.78
25.77
21.28
14.69
6.04
-3.97
-14.16
-23.41
-31.09
-37.33
-42.84
-48.72
-56.02
-65.40
-76.83
-89.37
-101.08
-109.31
-111.26
-104.89
-89.75
-67.32
-40.66
-13.51
10.91
30.63
45.12
54.85
60.61
63.02
62.47
59.35
54.39
48.71
43.60
40.06
38.40
38.16
38.40
38.23
37.17
35.34
33.11
30.73
27.97
24.21
18.74
11.28
2.19
-7.58
-16.86
-24.83
-31.31
-36.82
-42.40
-49.28
-58.39
-69.97
-83.22
-96.15
-105.90
-109.49
-104.76
-91.13
-69.88
-43.71
-16.00
10.08
32.25
49.22
60.67
67.04
69.24
68.49
66.06
63.04
60.10
57.54
55.28
53.21
51.30
49.65
48.39
47.49
46.57
44.99
42.03
37.17
30.29
21.68
11.97
1.86
-8.07
-17.38
-25.87
-33.57
-40.76
-48.11
-56.48
-66.68
-78.84
-92.02
-103.99
-111.69
-112.19
-103.73
-86.53
-62.89
-36.47
-11.10
10.30
26.41
37.39
44.27
48.18
49.78
49.23
46.44
41.51
34.95
27.57
20.29
13.71
8.09
3.43
-0.28
-2.83
-3.92
-3.39
-1.55
0.72
2.17
1.73
-1.06
-5.84
-11.57
-17.12
-21.79
-25.68
-29.64
-34.98
-42.96
-54.18
-68.14
-82.93
-95.51
-102.28
-100.23
-87.95
-66.21
-37.88
-7.03
22.22
46.87
65.42
77.90
85.18
88.41
88.55
86.31
82.29
77.10
71.47
66.09
61.52
57.99
55.36
53.33
51.54
49.79
47.97
45.94
43.46
39.98
34.94
27.92
18.96
8.67
-1.96
-11.87
-20.40
-27.52
-33.87
-40.62
-49.08
-60.14
-73.83
-88.83
-102.53
-111.51
-112.48
-103.55
-84.94
-59.17
-30.19
-2.15
21.85
40.37
53.46
61.99
66.88
68.79
68.13
65.48
61.78
58.20
55.78
54.93
55.33
56.09
56.28
55.35
53.38
50.85
48.24
45.66
42.64
38.45
32.41
24.40
14.92
4.91
-4.68
-13.29
-20.96
-28.28
-36.13
-45.39
-56.62
-69.75
-83.82
-96.90
-106.29
-109.18
-103.51
-88.86
-66.80
-40.52
-13.88
9.78
28.41
41.43
49.36
53.13
53.65
51.65
47.82
43.00
38.12
34.08
31.40
30.08
29.57
29.08
27.88
25.67
22.59
19.09
15.64
12.30
8.69
4.01
-2.51
-11.21
-21.78
-33.21
-44.22
-53.72
-61.28
-67.32
-73.00
-79.72
-88.60
-99.77
-111.96
-122.52
-128.00
-125.17
-112.19
-89.29
-58.91
-24.94
8.47
37.99
61.74
79.31
91.21
98.35
101.66
101.99
100.16
96.99
93.25
89.65
86.74
84.96
84.63
85.84
88.37
91.51
94.17
95.10
93.26
88.19
80.03
69.50
57.50
44.83
31.97
19.03
5.72
-8.58
-24.76
-43.67
-65.63
-89.73
-113.38
-132.58
-142.94
-141.29
-127.02
-102.56
-72.61
-42.51
-16.51
3.15
16.19
23.43
25.79
23.87
18.09
9.19
-1.35
-11.56
-19.36
-23.28
-22.84
-18.51
-11.41
-2.90
5.82
13.88
20.75
26.21
30.24
32.91
34.31
34.48
33.43
31.15
27.63
22.79
16.50
8.84
0.37
-7.52
-12.52
-11.90
-3.26
14.53
40.81
73.16
107.97
141.30
169.73
190.73
202.81
205.25
197.89
181.09
155.76
123.46
86.51
47.77
10.28
-23.40
-51.75
-74.51
-92.51
-107.06
-119.22
-129.38
-137.33
-142.65
-145.33
-145.97
-145.62
-145.48
-146.40
-148.82
-152.76
-157.96
-163.67
-168.43
-169.94
-165.53
-152.98
-131.62
-102.93
-70.27
-37.91
-9.60
12.48
27.89
37.45
42.29
43.29
40.88
35.51
28.01
19.82
12.72
8.24
7.13
8.99
12.48
15.84
17.52
16.69
13.40
8.41
2.64
-3.22
-9.02
-15.13
-22.12
-30.45
-40.29
-51.53
-63.74
-76.21
-87.65
-96.11
-99.22
-94.86
-82.02
-61.50
-35.90
-8.95
15.66
35.31
49.00
57.07
60.66
61.01
58.99
55.17
50.04
44.21
38.51
33.93
31.24
30.76
32.17
34.52
36.54
37.05
35.30
31.19
25.15
17.86
10.00
2.00
-6.04
-14.23
-22.87
-32.36
-43.21
-55.79
-70.05
-85.07
-98.79
-108.25
-110.36
-102.98
-85.93
-61.21
-32.46
-3.78
21.49
41.63
56.47
66.81
73.62
77.53
78.78
77.54
74.36
70.27
66.56
64.27
63.74
64.45
65.33
65.29
63.77
60.91
57.34
53.78
50.44
46.93
42.37
35.84
26.87
15.78
3.62
-8.23
-18.55
-26.81
-33.23
-38.78
-44.75
-52.47
-62.92
-76.43
-92.41
-109.04
-123.34
-131.62
-130.59
-118.45
-95.79
-65.56
-32.25
-0.39
26.72
47.66
62.69
72.97
79.78
84.02
86.21
86.74
86.08
84.90
83.84
83.27
83.14
82.97
82.16
80.37
77.68
74.61
71.78
69.49
67.43
64.76
60.51
54.08
45.70
36.21
26.79
18.22
10.61
3.39
-4.28
-12.95
-22.59
-32.59
-42.08
-50.39
-57.47
-63.91
-70.80
-79.39
-90.68
-104.90
-121.08
-136.99
-149.27
-154.22
-148.85
-132.00
-104.91
-70.98
-34.82
-0.87
27.76
49.82
65.63
76.39
83.48
87.91
90.30
91.03
90.50
89.10
87.35
85.59
84.02
82.59
81.13
79.53
77.78
76.08
74.57
73.21
71.48
68.54
63.52
55.97
46.21
35.31
24.68
15.49
8.14
2.16
-3.56
-10.16
-18.29
-27.76
-37.76
-47.20
-55.24
-61.72
-67.21
-72.81
-79.82
-89.29
-101.66
-116.34
-131.40
-143.74
-149.53
-145.42
-129.69
-103.07
-68.83
-31.76
3.29
32.82
55.38
71.40
82.33
89.69
94.45
96.96
97.33
95.85
93.14
90.09
87.45
85.60
84.36
83.15
81.35
78.62
75.13
71.36
67.80
64.59
61.33
57.23
51.48
43.67
34.08
23.68
13.76
5.46
-0.74
-5.23
-9.11
-13.80
-20.30
-28.79
-38.45
-47.88
-55.72
-61.25
-64.83
-67.69
-71.52
-77.87
-87.69
-100.98
-116.57
-132.20
-144.54
-149.95
-145.31
-129.20
-102.58
-68.80
-32.65
1.05
28.80
49.14
62.44
70.23
74.25
75.88
76.00
75.16
73.82
72.43
71.38
70.79
70.53
70.22
69.45
68.01
65.94
63.56
61.19
58.96
56.62
53.67
49.47
43.50
35.65
26.31
16.35
6.89
-1.03
-6.93
-11.09
-14.58
-18.76
-24.71
-32.60
-41.59
-50.18
-56.98
-61.43
-64.16
-66.74
-71.05
-78.52
-89.45
-102.83
-116.35
-126.81
-130.81
-125.64
-110.12
-85.17
-53.75
-20.19
11.02
36.52
54.71
65.87
71.46
73.26
72.64
70.39
66.87
62.50
57.95
54.13
51.79
51.16
51.73
52.53
52.56
51.39
49.25
46.92
45.03
43.63
42.03
39.09
33.91
26.37
17.20
7.81
-0.42
-6.75
-11.35
-15.08
-19.12
-24.34
-31.01
-38.63
-46.22
-52.79
-57.79
-61.36
-64.34
-68.00
-73.62
-82.12
-93.69
-107.47
-121.40
-132.31
-136.55
-131.01
-114.24
-87.24
-53.36
-17.47
15.57
42.20
60.92
72.08
77.16
77.95
75.94
72.14
67.24
61.86
56.65
52.26
49.22
47.75
47.67
48.47
49.47
50.08
50.05
49.38
48.25
46.65
44.31
40.69
35.35
28.25
19.95
11.47
3.85
-2.28
-6.92
-10.75
-14.77
-19.88
-26.42
-34.10
-42.11
-49.46
-55.42
-59.84
-63.36
-67.21
-72.90
-81.69
-93.90
-108.47
-122.87
-133.50
-136.60
-129.43
-111.27
-83.81
-50.76
-16.81
13.71
37.90
54.72
64.71
69.28
69.95
67.96
64.17
59.30
54.11
49.32
45.61
43.30
42.33
42.38
43.00
43.88
44.86
45.79
46.41
46.27
44.79
41.54
36.39
29.63
21.89
13.88
6.17
-1.02
-7.81
-14.56
-21.54
-28.87
-36.31
-43.42
-49.73
-54.94
-59.12
-62.80
-66.91
-72.54
-80.55
-91.08
-103.10
-114.34
-121.58
-121.52
-111.71
-91.50
-62.30
-27.24
9.60
44.23
73.53
95.70
110.24
117.81
119.90
118.50
115.66
113.11
111.94
112.35
113.84
115.64
117.16
118.43
120.18
123.53
129.42
137.97
148.18
157.91
164.22
164.09
155.19
136.43
108.21
72.27
31.04
-13.12
-58.62
-105.24
-154.35
-208.24
-268.83
-335.79
-405.25
-469.79
-520.31
-549.07
-552.64
-533.18
-497.40
-453.85
-409.71
-369.00
-332.57
-299.56
-269.03
-240.85
-215.40
-192.78
-172.18
-152.02
-130.62
-107.02
-81.16
-53.84
-25.85
2.67
32.50
64.83
100.22
137.68
174.33
205.95
228.41
239.23
238.47
228.67
213.83
197.97
183.98
173.14
165.31
159.48
154.45
149.17
142.94
135.35
126.21
115.45
103.01
88.95
73.69
58.11
43.57
31.56
23.28
19.21
19.03
21.92
26.98
33.56
41.22
49.49
57.57
64.40
68.98
70.87
70.53
69.18
68.28
68.89
71.30
75.08
79.40
83.49
86.97
89.78
92.03
93.74
94.68
94.48
92.73
89.24
84.09
77.62
70.29
62.54
54.61
46.54
38.02
28.45
17.11
3.42
-12.67
-30.32
-47.72
-62.24
-71.03
-71.81
-63.59
-47.14
-24.82
0.03
23.99
44.41
59.88
70.22
76.04
78.27
77.73
75.07
70.85
65.74
60.53
55.99
52.65
50.61
49.57
48.89
47.84
45.77
42.35
37.55
31.62
25.04
18.26
11.60
5.08
-1.57
-8.79
-17.08
-26.93
-38.71
-52.67
-68.78
-86.39
-104.04
-119.44
-130.05
-133.84
-130.17
-120.05
-105.81
-90.18
-75.15
-61.34
-48.07
-34.01
-18.23
-0.76
17.25
34.00
47.70
57.12
61.92
62.57
60.26
56.64
53.67
53.29
56.90
64.91
76.27
88.58
98.74
103.93
102.60
94.92
82.62
68.25
54.25
42.19
32.51
24.62
17.36
9.59
0.60
-9.48
-19.59
-27.80
-31.69
-28.97
-18.27
0.21
24.49
51.22
76.51
96.98
110.44
115.99
113.70
104.15
88.25
67.46
44.07
21.12
1.83
-11.35
-17.53
-17.50
-13.20
-7.03
-1.29
1.95
0.92
-5.78
-18.79
-37.61
-60.51
-85.07
-109.08
-131.32
-151.91
-171.76
-191.83
-212.31
-232.23
-249.62
-261.97
-266.94
-262.87
-249.36
-227.31
-198.73
-166.22
-132.31
-98.99
-67.69
-39.44
-15.28
3.73
16.60
22.83
22.72
17.60
9.74
2.11
-2.06
0.10
10.31
28.60
53.14
80.70
107.50
130.12
146.18
154.44
154.62
147.05
132.50
112.14
87.40
59.80
30.78
1.70
-25.96
-50.29
-69.09
-80.32
-83.03
-77.88
-67.16
-53.90
-40.69
-28.71
-17.63
-6.25
6.47
20.56
34.86
47.59
57.26
63.34
66.42
67.87
69.02
70.60
72.40
73.53
72.95
69.99
64.70
57.77
50.19
42.81
36.02
29.76
23.68
17.49
11.15
4.83
-1.31
-7.37
-13.75
-20.73
-27.95
-34.05
-36.77
-33.80
-23.71
-6.70
15.29
39.16
61.75
80.64
94.66
103.72
108.38
109.35
107.20
102.32
94.99
85.56
74.58
62.81
51.21
40.69
31.93
25.16
20.15
16.28
12.76
8.83
3.91
-2.29
-9.72
-18.01
-26.63
-34.97
-42.64
-49.58
-56.10
-62.83
-70.51
-79.70
-90.39
-101.63
-111.49
-117.34
-116.60
-107.68
-90.73
-67.73
-41.96
-16.93
4.64
21.41
33.32
41.09
45.65
47.73
47.93
46.81
45.02
43.22
41.88
41.21
41.08
41.24
41.38
41.32
40.99
40.35
39.24
37.38
34.46
30.17
24.44
17.49
9.79
1.91
-5.71
-12.93
-19.98
-27.40
-35.77
-45.46
-56.17
-66.85
-75.62
-80.29
-78.95
-70.65
-55.86
-36.38
-14.90
5.80
23.59
37.35
46.96
52.94
56.04
56.96
56.24
54.40
51.93
49.40
47.31
45.94
45.28
45.00
44.59
43.59
41.80
39.25
36.13
32.58
28.51
23.64
17.67
10.48
2.34
-6.18
-14.39
-21.73
-28.01
-33.48
-38.79
-44.83
-52.49
-62.29
-74.03
-86.42
-97.21
-103.65
-103.40
-95.46
-80.58
-61.12
-40.13
-20.39
-3.63
9.65
19.74
27.24
32.59
36.10
38.01
38.82
39.14
39.57
40.37
41.45
42.38
42.73
42.24
41.02
39.41
37.74
36.10
34.24
31.70
28.10
23.30
17.52
11.22
4.84
-1.34
-7.35
-13.51
-20.25
-28.07
-37.24
-47.68
-58.68
-68.77
-75.85
-77.71
-72.71
-60.54
-42.42
-20.83
1.37
21.87
39.46
54.05
66.07
75.76
82.86
86.71
86.81
83.34
77.36
70.43
64.07
59.26
56.18
54.45
53.48
52.77
52.15
51.61
51.20
50.85
50.32
49.26
47.26
43.93
38.99
32.26
23.64
13.05
0.29
-14.91
-32.82
-53.27
-75.20
-96.47
-114.10
-125.05
-127.30
-120.67
-106.98
-89.41
-71.39
-55.51
-43.01
-33.91
-27.69
-23.80
-21.99
-22.04
-23.58
-25.88
-28.10
-29.68
-30.57
-31.30
-32.61
-34.94
-38.11
-41.41
-43.92
-45.12
-45.12
-44.65
-44.69
-45.92
-48.45
-51.76
-55.11
-57.94
-60.19
-62.28
-64.93
-68.85
-74.60
-82.43
-92.14
-102.86
-112.89
-119.82
-121.08
-114.80
-100.60
-79.96
-55.77
-31.33
-9.32
9.00
23.64
35.38
44.97
52.73
58.48
62.04
63.56
63.62
63.13
62.82
63.00
63.43
63.59
63.03
61.64
59.70
57.60
55.53
53.20
49.96
45.01
37.86
28.61
17.98
7.09
-3.01
-11.69
-19.07
-25.90
-33.35
-42.54
-54.16
-68.00
-82.81
-96.40
-106.02
-109.11
-104.10
-91.00
-71.38
-48.00
-23.92
-1.62
17.39
32.69
44.54
53.34
59.34
62.64
63.38
62.02
59.41
56.61
54.54
53.60
53.52
53.48
52.53
50.13
46.41
42.30
39.05
37.72
38.64
41.17
43.87
44.99
43.25
38.17
30.27
20.75
10.85
1.40
-7.54
-16.52
-26.43
-38.06
-51.73
-66.96
-82.36
-95.71
-104.37
-106.05
-99.53
-85.23
-65.12
-42.16
-19.25
1.47
19.03
33.33
44.63
53.16
59.05
62.44
63.89
64.28
64.70
65.93
68.20
71.05
73.55
74.80
74.26
72.03
68.73
65.11
61.63
58.19
54.15
48.60
40.92
31.03
19.55
7.55
-3.89
-14.03
-22.68
-30.19
-37.27
-44.85
-53.83
-64.81
-77.74
-91.56
-104.08
-112.37
-113.58
-106.00
-89.79
-67.08
-41.25
-15.81
6.64
24.95
39.13
49.76
57.31
61.94
63.70
62.86
60.26
57.04
54.43
53.11
53.08
53.73
54.24
53.99
52.78
50.89
48.73
46.55
44.22
41.30
37.12
31.19
23.41
14.10
4.01
-6.03
-15.26
-23.32
-30.32
-36.87
-43.90
-52.44
-63.20
-76.13
-90.08
-102.77
-111.31
-112.99
-106.26
-91.35
-70.16
-45.68
-20.97
1.61
20.82
36.28
48.08
56.39
61.27
62.93
61.91
59.17
55.90
53.15
51.44
50.64
50.11
49.15
47.34
44.80
41.99
39.40
37.16
34.88
31.82
27.25
20.83
12.81
3.91
-5.06
-13.49
-21.19
-28.33
-35.40
-42.97
-51.64
-61.72
-72.99
-84.34
-93.79
-98.84
-97.26
-87.90
-71.29
-49.58
-25.87
-3.25
16.04
30.99
41.71
48.89
53.30
55.53
55.95
54.84
52.55
49.53
46.22
43.04
40.23
37.89
35.99
34.47
33.18
31.89
30.24
27.75
24.00
18.73
11.94
3.95
-4.68
-13.31
-21.43
-28.80
-35.67
-42.76
-51.08
-61.39
-73.72
-86.91
-98.62
-105.87
-105.99
-97.63
-81.27
-59.21
-34.80
-11.41
8.51
23.87
34.72
41.80
45.92
47.62
47.24
45.13
41.85
38.18
34.97
32.83
31.98
32.26
33.28
34.57
35.73
36.42
36.28
34.97
32.22
27.93
22.27
15.61
8.31
0.60
-7.51
-16.32
-26.28
-37.76
-50.74
-64.44
-77.16
-86.50
-90.00
-85.94
-74.09
-55.90
-34.06
-11.67
8.67
25.40
38.06
46.87
52.29
54.73
54.53
52.03
47.77
42.48
37.00
32.16
28.58
26.55
25.89
26.04
26.15
25.39
23.20
19.49
14.52
8.85
2.96
-2.89
-8.70
-14.76
-21.40
-29.04
-38.05
-48.63
-60.54
-72.80
-83.53
-90.25
-90.59
-83.16
-68.27
-47.95
-25.36
-3.78
14.39
28.07
37.41
43.16
46.13
46.76
45.25
41.78
36.80
31.18
25.96
22.14
20.21
20.01
20.76
21.35
20.83
18.72
15.14
10.66
5.98
1.58
-2.47
-6.45
-10.82
-16.13
-22.85
-31.38
-41.74
-53.29
-64.48
-72.98
-76.22
-72.38
-61.11
-43.83
-23.25
-2.45
16.15
31.24
42.64
50.71
55.80
58.02
57.33
53.89
48.35
41.86
35.80
31.34
29.09
28.86
29.86
30.93
31.01
29.45
26.15
21.43
15.79
9.71
3.39
-3.21
-10.34
-18.38
-27.70
-38.58
-50.83
-63.61
-75.18
-83.20
-85.22
-79.64
-66.39
-47.20
-25.09
-3.36
15.40
29.94
40.33
47.34
51.75
53.98
53.99
51.71
47.44
41.96
36.42
31.95
29.23
28.26
28.42
28.74
28.25
26.37
22.92
18.15
12.52
6.45
0.22
-6.11
-12.70
-19.81
-27.74
-36.77
-47.04
-58.37
-69.99
-80.36
-87.33
-88.59
-82.51
-68.81
-48.96
-25.85
-2.88
17.04
32.33
42.84
49.35
52.97
54.50
54.35
52.66
49.71
45.99
42.24
39.15
37.15
36.28
36.24
36.55
36.62
35.95
34.16
31.01
26.44
20.60
13.82
6.46
-1.11
-8.77
-16.58
-24.83
-33.89
-44.14
-55.71
-68.14
-80.29
-90.19
-95.49
-93.99
-84.50
-67.44
-44.97
-20.42
2.71
21.72
35.43
44.08
48.81
50.88
51.14
49.97
47.50
44.01
40.14
36.69
34.39
33.50
33.78
34.58
35.16
34.85
33.24
30.20
25.88
20.56
14.61
8.30
1.77
-5.02
-12.17
-19.81
-28.11
-37.28
-47.55
-58.89
-70.56
-80.92
-87.55
-87.97
-80.65
-65.79
-45.48
-23.09
-2.07
15.14
27.63
35.82
40.76
43.32
43.87
42.35
38.84
33.87
28.57
24.29
22.09
22.22
24.01
26.19
27.40
26.79
24.19
20.08
15.12
9.83
4.36
-1.43
-7.80
-14.94
-22.90
-31.69
-41.36
-51.88
-62.85
-73.16
-80.90
-83.80
-79.90
-68.57
-50.86
-29.36
-7.37
12.16
27.44
38.10
44.77
48.45
49.93
49.64
47.77
44.61
40.68
36.71
33.41
31.17
30.00
29.55
29.30
28.75
27.49
25.30
21.99
17.49
11.84
5.21
-2.01
-9.42
-16.71
-23.86
-31.16
-39.17
-48.51
-59.42
-71.38
-82.92
-91.80
-95.49
-92.10
-81.05
-63.42
-41.73
-19.09
1.66
18.66
31.20
39.58
44.54
46.95
47.59
47.09
45.98
44.66
43.39
42.34
41.59
41.16
40.98
40.86
40.49
39.45
37.34
33.93
29.19
23.33
16.67
9.54
2.18
-5.29
-12.81
-20.39
-28.09
-36.13
-44.92
-54.83
-65.84
-77.16
-87.02
-92.92
-92.44
-84.20
-68.54
-47.67
-24.87
-3.54
13.95
26.67
35.02
40.01
42.63
43.48
42.83
40.88
38.04
34.89
32.14
30.33
29.83
30.71
32.93
36.26
40.32
44.52
48.03
49.93
49.43
46.09
39.96
31.55
21.73
11.46
1.57
-7.47
-15.64
-23.44
-31.73
-41.41
-53.03
-66.24
-79.64
-90.82
-97.03
-96.03
-86.98
-70.82
-50.10
-28.10
-7.85
8.58
20.57
28.57
33.73
37.26
40.09
42.72
45.27
47.61
49.47
50.62
50.92
50.38
49.11
47.23
44.86
41.99
38.57
34.50
29.74
24.28
18.19
11.59
4.57
-2.72
-10.21
-17.79
-25.39
-33.06
-41.04
-49.71
-59.37
-69.78
-79.79
-87.31
-89.78
-85.14
-72.75
-53.93
-31.66
-9.63
9.08
22.88
31.90
37.31
40.46
42.11
42.30
40.78
37.58
33.35
29.30
26.61
25.93
26.97
28.73
29.88
29.40
26.91
22.71
17.52
12.10
6.88
1.86
-3.32
-9.13
-15.89
-23.74
-32.65
-42.63
-53.67
-65.51
-77.20
-86.96
-92.34
-91.01
-81.76
-65.20
-43.72
-20.74
0.50
17.87
30.75
39.58
45.24
48.35
49.25
48.11
45.38
41.86
38.45
35.85
34.25
33.34
32.58
31.57
30.17
28.45
26.52
24.22
21.20
17.04
11.49
4.62
-3.20
-11.41
-19.52
-27.23
-34.59
-41.97
-49.97
-59.29
-70.26
-82.49
-94.53
-104.02
-108.26
-105.12
-93.89
-75.65
-52.98
-29.07
-6.80
12.02
26.77
37.68
45.34
50.31
52.98
53.78
53.28
52.20
51.27
50.95
51.23
51.75
51.92
51.35
49.93
47.91
45.59
43.08
40.07
36.01
30.33
22.85
13.90
4.26
-5.22
-13.84
-21.36
-28.06
-34.57
-41.73
-50.39
-61.08
-73.57
-86.62
-97.96
-104.72
-104.33
-95.48
-78.69
-56.26
-31.51
-7.75
12.70
28.88
40.93
49.54
55.36
58.79
60.04
59.45
57.65
55.48
53.69
52.65
52.21
51.91
51.24
50.01
48.34
46.55
44.82
42.99
40.58
36.96
31.72
24.84
16.73
8.04
-0.59
-8.75
-16.42
-23.88
-31.70
-40.53
-50.95
-63.10
-76.26
-88.72
-97.95
-101.21
-96.51
-83.47
-63.57
-39.78
-15.56
6.17
23.70
36.65
45.47
50.92
53.63
54.13
52.89
50.54
47.84
45.50
43.99
43.40
43.44
43.65
43.62
43.12
42.14
40.72
38.77
36.01
31.96
26.29
18.96
10.42
1.42
-7.21
-14.99
-21.96
-28.68
-36.03
-44.86
-55.62
-68.01
-80.77
-91.76
-98.36
-98.19
-89.98
-74.08
-52.54
-28.50
-5.32
14.48
29.59
39.99
46.46
49.92
51.08
50.33
47.95
44.35
40.21
36.40
33.69
32.51
32.78
33.93
35.14
35.56
34.57
31.89
27.60
22.01
15.57
8.74
1.84
-4.96
-11.72
-18.57
-25.79
-33.73
-42.83
-53.30
-64.92
-76.57
-86.21
-91.29
-89.49
-79.72
-62.63
-40.59
-16.93
5.13
23.35
36.91
46.14
51.91
55.03
55.98
54.90
51.93
47.39
41.97
36.59
32.12
29.16
27.80
27.64
27.96
27.95
26.87
24.26
19.93
13.92
6.48
-1.93
-10.76
-19.46
-27.63
-35.10
-42.19
-49.57
-58.12
-68.42
-80.09
-91.49
-99.84
-102.01
-95.69
-80.47
-58.10
-32.04
-6.23
16.15
33.48
45.68
53.64
58.46
60.95
61.55
60.57
58.37
55.53
52.61
50.05
47.99
46.32
44.79
43.19
41.40
39.38
37.06
34.28
30.80
26.32
20.69
13.97
6.45
-1.41
-9.25
-16.80
-24.12
-31.46
-39.27
-48.00
-57.78
-68.13
-77.60
-84.00
-84.82
-78.14
-63.49
-42.37
-17.93
5.99
26.03
40.39
49.03
53.24
54.69
54.57
53.35
50.91
47.16
42.43
37.56
33.57
31.22
30.57
31.02
31.56
31.17
29.29
25.84
21.20
15.81
9.98
3.79
-2.89
-10.17
-17.98
-26.10
-34.37
-42.82
-51.85
-61.91
-72.99
-84.13
-93.32
-97.91
-95.59
-85.40
-68.19
-46.51
-23.63
-2.50
15.13
28.74
38.75
45.78
50.19
52.01
51.23
48.18
43.67
38.87
34.91
32.54
31.83
32.29
33.04
33.17
32.01
29.27
25.07
19.71
13.58
7.00
0.23
-6.60
-13.39
-20.23
-27.41
-35.48
-45.04
-56.33
-68.77
-80.64
-89.30
-91.96
-86.71
-73.34
-53.59
-30.54
-7.57
12.62
28.59
40.15
47.85
52.34
54.08
53.32
50.34
45.71
40.35
35.33
31.63
29.74
29.49
30.17
30.73
30.27
28.33
25.02
20.84
16.38
11.98
7.58
2.88
-2.53
-8.96
-16.60
-25.58
-36.00
-47.64
-59.64
-70.30
-77.23
-78.13
-71.60
-57.85
-38.79
-17.41
3.21
20.82
34.39
43.97
50.09
53.28
53.82
51.92
47.99
42.82
37.54
33.29
30.78
30.03
30.43
30.94
30.60
28.90
25.89
22.02
17.85
13.74
9.67
5.29
0.13
-6.28
-14.29
-24.08
-35.56
-48.17
-60.75
-71.42
-77.95
-78.31
-71.41
-57.67
-38.97
-18.21
1.68
18.53
31.38
40.31
45.89
48.70
48.99
46.92
42.88
37.81
32.99
29.64
28.41
29.05
30.55
31.65
31.30
29.12
25.36
20.61
15.49
10.36
5.18
-0.31
-6.56
-13.97
-22.90
-33.53
-45.66
-58.45
-70.27
-78.83
-81.83
-77.70
-66.29
-49.12
-28.91
-8.69
9.16
23.46
34.17
41.81
46.87
49.50
49.62
47.30
43.09
38.06
33.45
30.28
28.91
28.93
29.42
29.38
28.11
25.42
21.59
17.13
12.44
7.68
2.74
-2.64
-8.76
-15.88
-24.22
-34.03
-45.41
-57.97
-70.54
-81.08
-87.03
-86.15
-77.40
-61.46
-40.66
-18.23
2.77
20.26
33.51
42.77
48.75
52.14
53.41
52.80
50.55
47.00
42.62
38.01
33.76
30.44
28.38
27.60
27.67
27.82
27.19
25.08
21.31
16.23
10.44
4.51
-1.26
-6.99
-12.98
-19.58
-27.07
-35.66
-45.49
-56.49
-68.02
-78.64
-86.17
-88.21
-82.98
-70.16
-51.22
-28.98
-6.80
12.57
27.49
37.66
43.64
46.41
46.90
45.86
43.89
41.49
39.13
37.16
35.80
35.08
34.92
35.08
35.19
34.82
33.48
30.79
26.59
21.05
14.59
7.70
0.77
-6.06
-12.83
-19.71
-26.87
-34.52
-42.99
-52.61
-63.37
-74.54
-84.32
-90.18
-89.56
-81.05
-65.08
-44.04
-21.45
-0.70
16.00
28.05
36.20
41.59
45.07
46.85
46.65
44.30
40.14
35.11
30.52
27.51
26.58
27.38
28.88
29.81
29.16
26.50
22.03
16.39
10.31
4.33
-1.42
-7.12
-13.15
-19.89
-27.55
-36.27
-46.07
-56.78
-67.72
-77.54
-84.17
-85.40
-79.68
-66.85
-48.47
-27.37
-6.70
11.10
24.88
34.71
41.30
45.32
47.06
46.50
43.71
39.16
33.80
28.83
25.27
23.62
23.66
24.57
25.27
24.84
22.79
19.19
14.50
9.26
3.86
-1.63
-7.36
-13.60
-20.56
-28.40
-37.33
-47.53
-58.95
-70.94
-82.00
-89.81
-91.87
-86.40
-73.15
-53.71
-31.06
-8.61
10.94
26.18
37.04
44.20
48.48
50.45
50.41
48.68
45.82
42.61
39.86
38.06
37.21
36.89
36.52
35.62
33.98
31.60
28.56
24.85
20.35
14.92
8.56
1.49
-5.93
-13.33
-20.53
-27.61
-34.93
-43.00
-52.32
-63.06
-74.74
-86.01
-94.81
-98.72
-95.80
-85.28
-68.00
-46.27
-23.14
-1.49
16.71
30.70
40.61
47.08
50.75
52.13
51.72
50.10
48.02
46.19
45.07
44.73
44.90
45.16
45.20
44.85
44.09
42.78
40.67
37.36
32.62
26.46
19.23
11.47
3.70
-3.74
-10.74
-17.41
-23.97
-30.90
-38.80
-48.16
-58.97
-70.21
-79.73
-84.77
-82.90
-73.07
-56.17
-34.75
-12.14
8.73
26.13
39.61
49.52
56.40
60.58
62.18
61.46
58.99
55.75
52.75
50.66
49.64
49.24
48.77
47.65
45.62
42.88
39.82
36.75
33.58
29.83
24.86
18.23
9.97
0.66
-8.84
-17.74
-25.64
-32.58
-39.04
-45.76
-53.53
-63.00
-74.32
-86.81
-98.75
-107.57
-110.48
-105.57
-92.54
-73.06
-50.19
-27.36
-7.23
8.88
20.95
29.67
35.80
39.80
41.87
42.20
41.14
39.29
37.31
35.70
34.72
34.31
34.25
34.23
33.95
33.13
31.63
29.38
26.35
22.52
17.83
12.24
5.83
-1.20
-8.53
-15.87
-23.16
-30.77
-39.35
-49.51
-61.28
-73.56
-84.18
-90.29
-89.37
-80.19
-63.48
-41.70
-18.36
3.20
20.78
33.61
42.08
47.12
49.58
49.99
48.70
46.15
42.98
39.98
37.78
36.68
36.57
37.02
37.50
37.53
36.80
35.08
32.26
28.22
22.91
16.35
8.67
0.17
-8.72
-17.51
-25.82
-33.58
-41.14
-49.26
-58.80
-70.29
-83.34
-96.34
-106.63
-111.20
-107.67
-95.32
-75.47
-51.13
-26.02
-3.32
15.15
29.11
39.34
46.85
52.38
56.10
58.01
58.24
57.31
55.95
54.75
54.03
53.70
53.59
53.63
53.97
54.81
56.02
57.02
56.76
54.14
48.41
39.58
28.44
16.22
4.24
-6.61
-16.01
-24.28
-32.22
-40.85
-51.17
-63.71
-78.11
-92.92
-105.71
-113.64
-114.34
-106.77
-91.65
-71.30
-48.80
-27.11
-8.25
6.97
18.74
27.67
34.41
39.33
42.58
44.22
44.42
43.46
41.73
39.70
37.79
36.26
35.18
34.44
33.72
32.57
30.53
27.29
22.80
17.36
11.49
5.73
0.45
-4.33
-8.87
-13.64
-19.19
-26.07
-34.74
-45.30
-57.22
-69.06
-78.55
-83.05
-80.47
-70.11
-53.08
-31.96
-9.97
10.16
26.80
39.54
48.75
54.99
58.66
60.06
59.52
57.65
55.24
53.07
51.56
50.68
50.09
49.31
48.10
46.48
44.61
42.64
40.37
37.38
33.08
27.10
19.52
10.91
2.12
-6.04
-13.18
-19.45
-25.50
-32.25
-40.58
-51.02
-63.41
-76.68
-88.78
-97.07
-98.94
-92.73
-78.46
-57.92
-34.26
-10.91
9.42
25.34
36.80
44.55
49.48
52.25
53.24
52.74
51.22
49.29
47.57
46.40
45.73
45.20
44.40
43.12
41.44
39.63
37.83
35.84
33.10
28.92
22.86
14.99
5.98
-3.21
-11.73
-19.18
-25.83
-32.48
-40.13
-49.55
-60.84
-73.12
-84.46
-92.35
-94.26
-88.62
-75.40
-56.22
-33.89
-11.52
8.40
24.44
36.21
44.04
48.47
50.02
49.18
46.53
42.84
38.95
35.67
33.48
32.53
32.63
33.31
33.99
34.09
33.11
30.75
26.94
21.87
15.98
9.74
3.49
-2.70
-9.13
-16.22
-24.42
-33.98
-44.86
-56.66
-68.57
-79.18
-86.60
-88.81
-84.21
-72.37
-54.44
-32.88
-10.81
9.06
25.05
36.80
44.80
49.83
52.53
53.27
52.27
49.84
46.48
42.80
39.43
36.78
35.06
34.15
33.75
33.44
32.68
31.08
28.35
24.38
19.21
12.96
5.84
-1.92
-9.99
-18.14
-26.23
-34.37
-43.01
-52.70
-63.74
-75.72
-87.17
-95.75
-98.82
-94.41
-82.04
-63.13
-40.53
-17.61
2.75
18.96
30.81
38.97
44.44
47.92
49.76
50.11
49.15
47.31
45.13
43.14
41.62
40.60
39.92
39.43
39.08
38.81
38.44
37.55
35.52
31.79
26.07
18.55
9.88
0.91
-7.61
-15.34
-22.39
-29.35
-37.06
-46.27
-57.24
-69.42
-81.25
-90.36
-94.18
-90.81
-79.70
-62.03
-40.36
-17.82
2.85
19.93
32.92
42.20
48.50
52.46
54.46
54.72
53.54
51.39
48.87
46.60
45.00
44.14
43.81
43.58
43.04
41.89
40.04
37.44
34.01
29.61
24.06
17.27
9.46
1.11
-7.16
-14.83
-21.70
-28.05
-34.56
-42.11
-51.43
-62.63
-74.88
-86.34
-94.43
-96.60
-91.21
-78.25
-59.43
-37.65
-16.01
3.07
18.39
29.87
38.00
43.35
46.29
47.09
46.09
43.83
41.03
38.37
36.35
35.13
34.62
34.56
34.59
34.33
33.38
31.43
28.26
23.86
18.37
12.09
5.39
-1.40
-8.03
-14.37
-20.50
-26.73
-33.58
-41.70
-51.53
-62.94
-74.79
-84.97
-90.80
-89.91
-81.19
-65.31
-44.69
-22.68
-2.49
13.80
25.51
33.20
37.94
40.66
41.92
41.87
40.65
38.61
36.34
34.41
33.19
32.69
32.60
32.58
32.37
31.94
31.25
30.11
28.07
24.57
19.23
12.10
3.79
-4.80
-12.82
-19.87
-26.14
-32.33
-39.36
-48.02
-58.59
-70.57
-82.49
-92.12
-96.94
-94.93
-85.23
-68.60
-47.28
-24.30
-2.59
15.77
29.88
39.89
46.41
50.20
51.81
51.68
50.20
47.85
45.12
42.44
40.05
38.00
36.24
34.74
33.53
32.63
31.88
30.89
29.11
25.96
21.12
14.62
6.90
-1.36
-9.46
-16.91
-23.55
-29.62
-35.77
-42.85
-51.64
-62.42
-74.53
-86.16
-94.65
-97.18
-91.78
-78.22
-58.19
-34.86
-11.74
8.41
24.30
36.01
44.40
50.34
54.20
55.94
55.52
53.35
50.39
47.78
46.34
46.14
46.51
46.45
45.28
42.95
40.04
37.31
35.20
33.48
31.32
27.71
22.02
14.31
5.33
-3.81
-12.07
-18.96
-24.62
-29.76
-35.40
-42.59
-51.98
-63.57
-76.36
-88.37
-96.94
-99.47
-94.31
-81.45
-62.60
-40.71
-18.89
0.50
16.38
28.76
38.17
45.04
49.45
51.25
50.57
48.04
44.78
42.02
40.57
40.49
41.13
41.51
40.84
38.94
36.24
33.46
31.14
29.25
27.22
24.18
19.45
12.88
4.92
-3.54
-11.65
-18.87
-25.17
-30.99
-37.04
-44.08
-52.73
-63.21
-75.06
-86.86
-96.32
-100.78
-98.06
-87.38
-69.78
-47.90
-25.05
-4.20
12.91
25.82
35.08
41.48
45.59
47.66
47.76
46.12
43.31
40.09
37.24
35.24
34.21
33.84
33.69
33.34
32.57
31.27
29.38
26.72
23.03
18.11
11.99
5.00
-2.35
-9.53
-16.31
-22.87
-29.76
-37.77
-47.49
-58.89
-70.89
-81.36
-87.58
-87.04
-78.51
-62.56
-41.48
-18.57
3.04
21.20
35.05
44.69
50.69
53.58
53.77
51.72
48.19
44.11
40.39
37.63
35.91
34.89
34.06
33.05
31.74
30.26
28.73
27.09
25.02
21.99
17.48
11.27
3.54
-5.11
-13.93
-22.31
-29.99
-37.11
-44.24
-52.07
-61.28
-72.25
-84.72
-97.48
-108.36
-114.61
-113.71
-104.30
-86.85
-63.63
-38.00
-13.31
8.08
25.18
38.16
47.74
54.57
58.99
61.12
61.13
59.49
56.92
54.22
51.99
50.40
49.22
48.06
46.65
44.99
43.33
41.85
40.39
38.37
34.97
29.47
21.71
12.18
1.86
-8.18
-17.22
-25.16
-32.51
-40.22
-49.29
-60.41
-73.57
-87.74
-100.80
-109.93
-112.32
-106.16
-91.32
-69.57
-44.02
-18.14
5.23
24.46
39.18
49.76
56.80
60.86
62.37
61.85
60.05
57.83
55.95
54.78
54.23
53.82
53.06
51.64
49.67
47.56
45.66
44.04
42.18
39.23
34.28
26.91
17.42
6.81
-3.65
-12.97
-20.74
-27.34
-33.67
-40.83
-49.75
-60.86
-73.65
-86.33
-95.83
-98.19
-89.75
-68.51
-35.06
7.39
54.05
100.04
141.63
176.60
203.85
222.69
232.50
232.85
223.98
207.26
185.02
160.11
135.08
111.77
90.98
72.60
55.91
39.89
23.81
7.44
-8.79
-24.20
-38.31
-51.26
-63.73
-76.42
-89.44
-101.86
-111.88
-117.52
-117.36
-111.11
-99.61
-84.49
-67.68
-51.01
-36.19
-24.71
-17.76
-15.95
-18.97
-25.47
-33.20
-39.53
-42.20
-39.96
-32.91
-22.48
-10.91
-0.60
6.68
10.20
10.26
7.92
4.41
0.71
-2.66
-5.53
-7.82
-9.24
-9.37
-7.82
-4.52
0.23
5.80
11.57
17.12
22.40
27.66
33.24
39.41
46.06
52.61
57.92
60.45
58.54
50.80
36.53
15.88
-10.02
-39.28
-69.45
-97.88
-121.93
-139.40
-148.76
-149.57
-142.62
-129.83
-113.90
-97.50
-82.64
-70.17
-59.78
-50.40
-40.95
-30.77
-19.88
-8.82
1.76
11.45
20.16
28.03
35.21
41.77
47.71
52.97
57.57
61.60
65.34
69.12
73.27
77.87
82.50
86.26
88.02
86.80
82.21
74.50
64.23
52.04
38.58
24.66
11.70
1.65
-3.49
-2.49
4.42
15.52
28.13
39.64
48.12
52.53
52.46
47.83
38.76
25.78
9.90
-7.39
-24.50
-40.12
-53.28
-63.36
-70.00
-73.20
-73.46
-71.92
-70.17
-69.75
-71.69
-76.14
-82.58
-90.24
-98.50
-107.07
-115.88
-124.77
-133.49
-141.76
-149.39
-156.39
-162.58
-167.23
-168.74
-164.88
-153.55
-133.85
-106.71
-74.91
-42.27
-12.45
12.08
30.53
43.41
51.90
57.05
59.56
59.90
58.58
56.40
54.25
52.87
52.49
52.85
53.36
53.61
53.50
53.30
53.35
53.64
53.67
52.63
49.71
44.58
37.52
29.23
20.56
12.09
4.01
-3.82
-11.77
-20.27
-29.70
-40.07
-50.84
-60.65
-67.45
-69.00
-63.67
-51.23
-33.11
-12.07
8.80
26.98
41.22
51.59
58.95
64.33
68.45
71.66
74.10
75.84
77.02
77.79
78.22
78.31
77.99
77.18
75.80
73.69
70.65
66.47
61.07
54.55
47.22
39.45
31.57
23.74
16.01
8.34
0.60
-7.49
-16.47
-26.96
-39.21
-52.59
-65.36
-74.82
-78.25
-74.01
-62.27
-45.17
-26.02
-8.10
6.37
16.69
23.37
27.36
29.42
29.85
28.67
26.04
22.51
18.96
16.27
14.99
15.09
16.00
16.91
17.02
15.90
13.54
10.25
6.52
2.69
-1.11
-5.07
-9.56
-14.99
-21.71
-29.87
-39.51
-50.34
-61.66
-72.15
-79.91
-82.85
-79.41
-69.18
-53.28
-34.11
-14.49
3.14
17.45
28.23
36.00
41.39
44.70
45.92
44.97
42.18
38.30
34.43
31.57
30.28
30.46
31.37
32.05
31.59
29.51
25.90
21.23
16.15
11.16
6.38
1.58
-3.69
-9.95
-17.59
-26.85
-37.64
-49.46
-61.11
-70.74
-76.09
-75.18
-67.10
-52.49
-33.49
-13.08
5.89
21.56
33.29
41.40
46.62
49.62
50.73
50.11
47.93
44.54
40.52
36.47
32.96
30.32
28.57
27.47
26.53
25.16
22.82
19.24
14.51
9.01
3.26
-2.32
-7.71
-13.15
-19.16
-26.18
-34.51
-44.19
-55.04
-66.54
-77.63
-86.65
-91.44
-89.94
-80.94
-64.76
-43.36
-19.85
2.60
21.63
36.24
46.56
53.39
57.48
59.37
59.37
57.88
55.50
52.91
50.66
48.91
47.43
45.82
43.79
41.34
38.73
36.22
33.83
31.27
27.98
23.51
17.73
10.96
3.83
-3.06
-9.35
-15.16
-21.03
-27.78
-36.26
-46.93
-59.51
-72.67
-84.15
-91.17
-91.39
-83.69
-68.72
-48.72
-26.75
-5.71
12.51
27.18
38.48
46.87
52.74
56.22
57.44
56.72
54.68
52.13
49.79
48.03
46.78
45.70
44.40
42.68
40.64
38.52
36.51
34.50
32.06
28.52
23.31
16.32
7.96
-0.90
-9.36
-16.80
-23.12
-28.73
-34.35
-40.80
-48.76
-58.53
-69.74
-81.17
-90.73
-95.85
-94.32
-85.05
-68.74
-47.73
-25.22
-4.19
13.45
27.20
37.52
45.11
50.41
53.42
54.04
52.44
49.33
45.70
42.53
40.30
38.88
37.75
36.35
34.45
32.19
29.97
28.07
26.42
24.52
21.65
17.17
10.85
3.00
-5.62
-14.10
-21.73
-28.25
-33.99
-39.71
-46.38
-54.81
-65.34
-77.51
-89.94
-100.43
-106.40
-105.64
-97.01
-81.02
-59.75
-36.28
-13.71
5.64
20.69
31.46
38.59
42.84
44.73
44.59
42.67
39.39
35.41
31.47
28.31
26.33
25.56
25.60
25.83
25.59
24.41
22.13
18.86
14.83
10.21
5.12
-0.40
-6.31
-12.55
-19.05
-25.84
-33.21
-41.61
-51.49
-62.79
-74.58
-84.90
-91.10
-90.73
-82.44
-66.73
-45.78
-22.83
-0.96
17.74
32.53
43.62
51.50
56.52
58.72
58.20
55.46
51.44
47.33
44.03
41.89
40.69
39.91
39.07
37.99
36.74
35.40
33.85
31.68
28.31
23.25
16.34
7.83
-1.67
-11.44
-20.85
-29.57
-37.67
-45.55
-53.91
-63.50
-74.78
-87.48
-100.26
-110.77
-116.13
-113.84
-102.74
-83.58
-58.86
-32.06
-6.50
15.48
32.94
45.99
55.23
61.21
64.30
64.84
63.42
60.93
58.33
56.35
55.19
54.51
53.66
52.08
49.67
46.76
43.91
41.48
39.31
36.65
32.50
26.05
17.23
6.77
-4.04
-13.89
-22.08
-28.82
-35.09
-42.22
-51.36
-63.04
-76.90
-91.55
-104.74
-113.62
-115.45
-108.40
-92.26
-68.79
-41.23
-13.36
11.66
32.04
47.48
58.63
66.37
71.25
73.49
73.25
71.02
67.70
64.39
61.98
60.81
60.58
60.50
59.76
57.82
54.69
50.84
46.93
43.37
40.01
36.05
30.47
22.54
12.32
0.84
-10.35
-19.88
-27.13
-32.60
-37.54
-43.45
-51.48
-62.07
-74.83
-88.63
-101.60
-111.33
-115.25
-111.28
-98.59
-78.12
-52.40
-24.93
0.99
23.09
40.45
53.27
62.17
67.68
70.15
69.87
67.44
63.85
60.27
57.60
56.16
55.60
55.20
54.32
52.71
50.59
48.44
46.58
44.92
42.80
39.37
33.88
26.10
16.51
6.10
-3.98
-12.88
-20.35
-26.76
-32.93
-39.84
-48.34
-58.84
-71.06
-83.85
-95.11
-102.12
-102.29
-94.02
-77.41
-54.45
-28.37
-2.78
19.52
37.02
49.52
57.62
62.16
63.87
63.29
61.00
57.64
53.96
50.58
47.88
45.85
44.22
42.65
40.89
38.93
36.83
34.67
32.31
29.41
25.51
20.24
13.52
5.63
-2.83
-11.24
-19.14
-26.47
-33.59
-41.16
-49.88
-60.17
-71.71
-83.30
-92.78
-97.57
-95.44
-85.31
-67.83
-45.30
-21.01
1.83
20.90
35.21
44.87
50.59
53.11
53.00
50.73
46.84
42.12
37.47
33.63
30.99
29.44
28.58
27.92
27.09
25.89
24.22
21.89
18.62
14.16
8.36
1.43
-6.22
-13.99
-21.42
-28.36
-35.08
-42.20
-50.49
-60.63
-72.71
-85.98
-98.67
-108.19
-111.77
-107.36
-94.37
-74.11
-49.42
-23.83
-0.52
18.51
32.67
42.42
48.65
52.13
53.27
52.34
49.71
45.98
41.97
38.40
35.66
33.77
32.49
31.50
30.54
29.39
27.80
25.41
21.78
16.67
10.15
2.65
-5.15
-12.63
-19.48
-25.91
-32.54
-40.28
-49.90
-61.68
-75.04
-88.33
-99.05
-104.34
-101.89
-90.75
-71.82
-47.71
-21.93
2.15
22.14
37.09
47.19
53.23
56.10
56.52
55.11
52.59
49.79
47.53
46.32
46.18
46.65
47.13
47.11
46.39
45.06
43.22
40.85
37.72
33.48
27.88
20.99
13.15
4.90
-3.23
-10.99
-18.44
-25.99
-34.29
-44.01
-55.49
-68.43
-81.52
-92.48
-98.45
-96.87
-86.46
-67.91
-43.81
-17.94
5.97
25.38
39.44
48.76
54.66
58.36
60.54
61.44
61.19
60.14
58.95
58.30
58.57
59.66
61.07
62.13
62.41
61.78
60.41
58.53
56.16
53.04
48.78
43.06
35.95
27.95
19.79
12.17
5.45
-0.57
-6.52
-13.29
-21.62
-31.63
-42.52
-52.53
-59.25
-60.27
-54.00
-40.23
-20.25
3.50
28.17
51.29
71.20
87.10
98.80
106.39
109.99
109.71
105.72
98.51
88.87
77.95
67.01
57.13
48.94
42.44
37.09
32.06
26.54
20.03
12.40
3.75
-5.65
-15.52
-25.56
-35.45
-44.89
-53.69
-61.96
-70.18
-79.11
-89.56
-101.88
-115.49
-128.70
-138.94
-143.58
-140.84
-130.47
-113.95
-94.01
-73.67
-55.39
-40.49
-29.24
-21.18
-15.72
-12.49
-11.31
-12.01
-14.14
-16.91
-19.33
-20.48
-19.88
-17.67
-14.55
-11.59
-9.76
-9.76
-11.71
-15.35
-20.09
-25.23
-30.18
-34.55
-38.17
-41.14
-43.79
-46.63
-50.23
-55.01
-60.91
-67.17
-72.14
-73.65
-69.56
-58.63
-41.09
-18.73
5.61
28.89
48.77
64.05
74.63
81.07
84.10
84.31
82.22
78.37
73.45
68.21
63.31
59.03
55.34
51.97
48.59
45.03
41.26
37.35
33.33
29.13
24.66
19.81
14.68
9.43
4.31
-0.57
-5.31
-10.27
-15.99
-23.07
-31.98
-42.82
-55.05
-67.23
-77.17
-82.35
-80.69
-71.42
-55.48
-35.35
-14.23
4.89
20.11
30.87
37.70
41.57
43.38
43.72
42.87
41.10
38.84
36.58
34.87
34.00
33.94
34.31
34.59
34.37
33.40
31.67
29.24
26.11
22.18
17.33
11.57
5.11
-1.64
-8.30
-14.67
-20.89
-27.40
-34.84
-43.71
-54.09
-65.28
-75.63
-82.88
-84.67
-79.46
-67.19
-49.45
-29.03
-8.96
8.38
21.89
31.56
38.08
42.24
44.56
45.36
44.92
43.64
42.03
40.54
39.41
38.66
38.13
37.64
37.06
36.27
35.15
33.48
31.03
27.55
22.95
17.28
10.79
3.87
-3.04
-9.63
-15.73
-21.46
-27.24
-33.68
-41.45
-50.99
-62.09
-73.56
-83.28
-88.58
-87.15
-77.94
-61.78
-41.22
-19.68
-0.20
15.47
27.15
35.63
41.85
46.32
48.92
49.36
47.74
44.77
41.67
39.53
38.87
39.35
39.98
39.69
37.89
34.70
30.93
27.49
24.93
23.02
20.91
17.46
11.85
3.99
-5.40
-15.12
-23.97
-31.23
-36.92
-41.82
-47.20
-54.42
-64.39
-77.04
-91.00
-103.68
-112.06
-113.43
-106.39
-91.42
-70.97
-48.70
-28.44
-13.16
-4.22
-1.19
-1.60
-1.31
4.58
20.17
46.99
83.05
122.86
159.19
184.87
195.60
191.04
174.43
150.92
125.87
104.14
89.63
85.47
92.42
109.68
135.13
165.62
197.42
226.99
252.48
273.16
289.63
299.88
301.57
293.13
274.63
247.45
213.40
175.24
134.40
92.11
44.78
-10.69
-74.30
-142.29
-209.15
-270.56
-323.36
-368.50
-407.95
-449.26
-497.94
-554.08
-612.22
-664.73
-706.32
-733.87
-749.99
-722.72
-634.53
-492.79
-329.29
-178.74
-59.65
16.60
67.02
106.03
143.53
179.13
209.46
234.99
256.52
275.86
294.03
312.17
327.38
336.00
330.42
305.76
263.76
212.95
165.83
133.56
123.96
137.57
170.83
214.89
259.83
297.26
321.15
328.60
319.23
295.89
261.97
221.77
177.67
130.59
80.82
28.32
-24.92
-74.85
-115.91
-143.76
-156.21
-154.54
-142.50
-124.64
-106.32
-90.45
-77.70
-67.88
-61.80
-61.27
-68.03
-82.42
-102.77
-128.56
-157.86
-188.45
-219.24
-250.76
-284.48
-320.85
-358.18
-392.40
-421.32
-440.82
-445.93
-433.42
-404.35
-364.67
-323.53
-290.75
-252.61
-206.20
-156.22
-110.07
-71.04
-37.34
-5.69
25.97
57.32
85.97
105.22
110.36
100.78
80.10
53.21
25.33
1.25
-15.91
-25.21
-30.22
-34.05
-37.93
-40.86
-40.66
-36.55
-27.71
-13.68
5.56
28.01
51.99
76.09
98.47
116.38
126.75
127.99
121.12
110.08
99.79
95.30
99.74
112.98
131.70
150.92
166.12
174.29
174.04
164.77
146.57
120.35
88.01
52.57
17.67
-13.24
-38.11
-56.66
-69.95
-79.07
-84.02
-83.39
-75.06
-57.48
-30.80
2.97
40.76
79.84
118.71
156.97
194.36
229.70
260.46
283.52
296.39
298.28
290.29
274.77
254.29
230.93
206.32
182.01
159.85
141.78
129.22
122.28
119.43
117.95
114.85
107.95
96.55
81.39
64.19
46.81
30.76
17.05
6.34
-0.79
-3.83
-2.48
2.80
10.69
19.04
25.46
28.01
25.76
18.92
8.58
-3.90
-17.25
-30.63
-43.69
-56.31
-68.54
-80.36
-91.71
-102.55
-112.87
-122.61
-131.42
-138.52
-142.62
-142.26
-136.37
-124.72
-108.30
-89.04
-69.29
-51.05
-35.51
-22.97
-13.14
-5.59
-0.10
3.35
4.76
4.40
2.89
1.06
-0.30
-0.72
-0.16
0.99
2.15
2.74
2.39
0.95
-1.52
-4.86
-8.91
-13.49
-18.50
-23.96
-29.99
-36.89
-45.07
-54.89
-66.42
-79.15
-91.83
-102.56
-109.09
-109.51
-102.75
-88.99
-69.70
-47.21
-24.10
-2.52
16.17
31.47
43.46
52.43
58.61
62.13
63.22
62.31
60.16
57.63
55.52
54.25
53.79
53.68
53.33
52.14
49.72
45.95
40.93
34.90
28.17
21.05
13.73
6.22
-1.61
-10.06
-19.45
-30.05
-41.87
-54.42
-66.54
-76.44
-81.99
-81.38
-73.71
-59.44
-40.34
-18.96
2.07
20.79
36.10
47.72
55.92
61.13
63.87
64.67
64.11
62.79
61.21
59.68
58.26
56.87
55.37
53.75
52.10
50.53
49.07
47.48
45.28
41.86
36.74
29.80
21.35
12.08
2.83
-5.76
-13.45
-20.44
-27.30
-34.79
-43.61
-54.12
-66.09
-78.41
-89.12
-95.76
-96.13
-89.09
-75.09
-56.07
-34.86
-14.19
4.05
19.08
30.93
39.89
46.17
49.85
51.16
50.67
49.30
48.06
47.62
48.14
49.26
50.38
50.99
50.85
49.93
48.28
45.85
42.39
37.54
31.10
23.16
14.18
4.83
-4.17
-12.39
-19.75
-26.56
-33.41
-40.94
-49.68
-59.77
-70.75
-81.31
-89.48
-93.01
-90.09
-80.07
-63.85
-43.68
-22.42
-2.74
13.67
26.17
34.97
40.68
43.90
45.11
44.68
43.06
40.78
38.39
36.30
34.72
33.66
32.95
32.39
31.77
30.87
29.45
27.29
24.25
20.27
15.41
9.80
3.62
-2.99
-9.90
-17.04
-24.44
-32.32
-41.09
-51.08
-62.22
-73.60
-83.38
-89.19
-88.92
-81.59
-67.85
-49.80
-30.33
-12.13
3.01
14.43
22.36
27.45
30.32
31.35
30.82
28.99
26.25
23.16
20.28
18.09
16.79
16.34
16.41
16.51
16.07
14.62
11.88
7.89
2.96
-2.37
-7.57
-12.36
-16.74
-21.08
-25.89
-31.68
-38.79
-47.25
-56.63
-66.02
-73.92
-78.50
-78.06
-71.58
-59.21
-42.37
-23.40
-4.78
11.57
24.68
34.50
41.48
46.14
48.87
49.92
49.57
48.26
46.50
44.76
43.32
42.20
41.20
40.07
38.55
36.44
33.73
30.43
26.66
22.43
17.71
12.40
6.42
-0.23
-7.38
-14.80
-22.36
-30.13
-38.36
-47.11
-55.94
-63.68
-68.59
-68.96
-63.81
-53.44
-39.36
-23.86
-9.16
3.24
12.83
19.91
25.04
28.64
30.80
31.40
30.45
28.22
25.33
22.52
20.43
19.38
19.28
19.74
20.25
20.29
19.51
17.72
14.91
11.24
7.01
2.49
-2.11
-6.77
-11.65
-17.04
-23.30
-30.78
-39.68
-49.92
-60.90
-71.27
-79.14
-82.40
-79.49
-69.98
-54.94
-36.57
-17.55
-0.19
14.16
25.07
32.79
37.69
40.07
40.15
38.24
34.96
31.12
27.58
24.92
23.35
22.72
22.69
22.94
23.32
23.81
24.45
25.17
25.73
25.77
24.94
23.04
20.12
16.42
12.26
7.79
2.98
-2.49
-9.10
-17.18
-26.61
-36.51
-45.31
-50.98
-51.78
-46.86
-36.71
-23.03
-8.18
5.58
16.79
24.94
30.32
33.57
35.24
35.66
34.99
33.37
31.06
28.45
25.94
23.84
22.32
21.36
20.79
20.34
19.68
18.46
16.38
13.29
9.18
4.20
-1.47
-7.57
-13.94
-20.44
-26.97
-33.51
-40.25
-47.55
-55.78
-64.92
-74.16
-81.79
-85.62
-83.74
-75.38
-61.33
-43.78
-25.48
-8.79
5.01
15.75
23.92
30.08
34.43
36.88
37.29
35.88
33.33
30.54
28.40
27.34
27.35
27.98
28.71
29.04
28.63
27.21
24.60
20.73
15.67
9.69
3.20
-3.40
-9.87
-16.16
-22.50
-29.24
-36.77
-45.35
-54.91
-64.77
-73.56
-79.31
-80.03
-74.38
-62.35
-45.40
-26.08
-7.18
9.10
21.68
30.56
36.38
39.86
41.47
41.47
40.10
37.80
35.19
32.92
31.34
30.45
29.90
29.29
28.28
26.72
24.57
21.80
18.34
14.16
9.31
3.94
-1.72
-7.58
-13.67
-20.23
-27.55
-35.90
-45.42
-56.02
-67.08
-77.41
-85.20
-88.42
-85.41
-75.58
-59.77
-40.07
-19.20
0.34
16.87
29.73
39.00
45.17
48.75
50.19
49.95
48.57
46.68
44.83
43.38
42.42
41.79
41.24
40.51
39.41
37.78
35.50
32.39
28.28
23.04
16.66
9.35
1.47
-6.47
-14.00
-20.84
-27.09
-33.24
-40.11
-48.52
-58.94
-70.96
-83.12
-93.04
-98.07
-96.16
-86.64
-70.50
-50.11
-28.38
-7.85
9.83
24.09
34.97
42.80
47.90
50.60
51.38
51.00
50.25
49.78
49.78
50.08
50.23
49.82
48.69
46.87
44.56
41.88
38.86
35.31
30.99
25.69
19.33
11.99
3.93
-4.43
-12.66
-20.44
-27.74
-34.93
-42.76
-52.09
-63.31
-75.88
-87.98
-96.82
-99.44
-93.90
-80.13
-60.18
-37.52
-15.92
1.84
14.52
22.41
26.80
29.51
32.42
37.23
45.08
56.07
68.92
81.00
89.20
91.03
85.88
75.34
62.79
52.04
45.94
45.53
49.96
57.17
64.81
70.97
74.32
74.05
69.51
60.11
45.49
25.84
2.24
-23.43
-48.83
-71.92
-91.41
-106.98
-118.92
-127.48
-132.46
-133.09
-128.48
-118.25
-103.04
-84.50
-64.74
-45.72
-28.68
-14.10
-1.79
8.75
18.14
26.99
35.82
44.90
54.15
63.05
70.79
76.64
80.18
81.45
80.93
79.12
76.41
72.85
68.28
62.48
55.40
47.27
38.57
30.01
22.36
16.22
11.82
8.87
6.67
4.48
1.95
-0.46
-1.43
0.93
8.30
21.29
38.74
57.59
73.50
82.02
80.02
66.71
43.94
15.64
-13.36
-38.68
-57.36
-68.17
-71.32
-67.80
-58.89
-45.82
-29.89
-12.51
4.74
20.34
33.22
43.04
50.13
55.24
58.99
61.61
62.85
62.41
60.26
56.87
53.03
49.39
46.11
42.70
38.42
32.68
25.55
17.77
10.39
4.24
-0.50
-4.31
-8.01
-12.29
-17.33
-22.70
-27.60
-31.29
-33.36
-34.07
-34.19
-34.78
-36.83
-40.82
-46.66
-53.68
-60.91
-67.30
-72.05
-74.82
-75.80
-75.65
-75.26
-75.42
-76.51
-78.35
-80.30
-81.60
-81.72
-80.68
-78.99
-77.55
-77.39
-79.43
-84.33
-92.24
-102.49
-113.31
-121.96
-125.34
-120.98
-108.09
-88.02
-63.99
-39.95
-19.33
-4.11
5.46
10.37
12.03
11.72
10.32
8.49
6.92
6.41
7.67
11.07
16.44
23.09
30.11
36.73
42.57
47.64
52.22
56.63
61.02
65.35
69.36
72.76
75.38
77.16
78.05
77.87
76.11
72.28
66.28
58.94
52.16
48.35
49.47
56.09
67.03
79.84
91.82
100.99
106.57
108.63
107.47
103.13
95.39
84.14
69.83
53.64
37.23
22.29
10.13
1.39
-3.93
-6.38
-6.86
-6.44
-6.13
-6.73
-8.76
-12.47
-17.88
-24.70
-32.41
-40.19
-47.10
-52.20
-54.92
-55.27
-54.01
-52.44
-52.01
-53.76
-57.76
-63.04
-67.86
-70.46
-69.64
-65.27
-58.17
-49.67
-41.09
-33.32
-26.86
-21.86
-18.42
-16.63
-16.51
-17.87
-20.23
-22.90
-25.14
-26.34
-26.19
-24.77
-22.50
-19.98
-17.81
-16.38
-15.75
-15.77
-16.18
-16.90
-18.09
-20.20
-23.71
-28.99
-36.04
-44.41
-53.20
-61.16
-66.94
-69.33
-67.50
-61.25
-51.09
-38.08
-23.66
-9.25
3.95
15.11
23.79
29.76
32.95
33.45
31.60
28.09
23.85
19.90
16.96
15.26
14.47
13.92
13.02
11.48
9.38
7.02
4.64
2.21
-0.53
-3.98
-8.45
-14.18
-21.25
-29.63
-38.99
-48.62
-57.32
-63.58
-65.94
-63.38
-55.69
-43.54
-28.32
-11.73
4.57
19.28
31.52
40.80
46.90
49.83
49.77
47.20
42.88
37.74
32.79
28.80
26.09
24.52
23.56
22.61
21.19
19.09
16.33
13.04
9.36
5.36
0.98
-3.94
-9.62
-16.33
-24.25
-33.41
-43.47
-53.58
-62.38
-68.19
-69.40
-65.05
-55.16
-40.81
-23.88
-6.49
9.63
23.39
34.42
42.74
48.44
51.52
51.98
49.99
46.12
41.28
36.54
32.74
30.29
29.09
28.58
28.05
26.90
24.80
21.81
18.21
14.28
10.16
5.74
0.80
-4.92
-11.57
-19.20
-27.86
-37.54
-48.00
-58.59
-68.00
-74.42
-76.00
-71.55
-61.06
-45.76
-27.78
-9.40
7.49
21.75
32.98
41.21
46.62
49.41
49.88
48.43
45.73
42.55
39.66
37.59
36.50
36.19
36.23
36.11
35.41
33.84
31.21
27.49
22.75
17.21
11.16
4.98
-1.12
-7.09
-13.12
-19.56
-26.86
-35.34
-45.07
-55.66
-66.04
-74.49
-78.98
-77.73
-69.89
-55.94
-37.65
-17.51
2.03
19.21
33.14
43.66
50.97
55.31
56.98
56.43
54.34
51.53
48.77
46.51
44.82
43.39
41.89
40.05
37.89
35.60
33.32
31.03
28.44
25.20
21.04
15.92
10.00
3.57
-3.14
-10.08
-17.31
-24.99
-33.29
-42.29
-51.86
-61.49
-70.12
-76.19
-78.01
-74.29
-64.71
-50.13
-32.41
-13.86
3.50
18.31
29.98
38.50
44.14
47.25
48.18
47.36
45.31
42.65
39.98
37.72
36.13
35.20
34.70
34.30
33.64
32.36
30.22
27.10
23.03
18.17
12.77
7.07
1.23
-4.69
-10.84
-17.48
-24.96
-33.62
-43.53
-54.31
-64.96
-73.82
-78.97
-78.71
-72.16
-59.69
-42.77
-23.61
-4.55
12.53
26.47
36.83
43.66
47.33
48.34
47.28
44.83
41.71
38.56
35.87
33.86
32.53
31.70
31.13
30.60
29.86
28.65
26.63
23.53
19.25
13.90
7.83
1.41
-5.07
-11.59
-18.31
-25.53
-33.61
-42.84
-53.31
-64.65
-75.91
-85.45
-91.28
-91.54
-85.20
-72.46
-54.75
-34.28
-13.42
5.91
22.48
35.76
45.67
52.39
56.26
57.78
57.56
56.28
54.60
53.05
51.91
51.20
50.72
50.10
49.04
47.32
44.94
42.07
38.88
35.39
31.36
26.43
20.24
12.76
4.37
-4.24
-12.33
-19.47
-25.70
-31.53
-37.75
-45.15
-54.25
-65.05
-76.90
-88.36
-97.48
-102.11
-100.56
-92.12
-77.36
-58.00
-36.36
-14.76
5.07
22.09
35.91
46.48
53.93
58.43
60.32
60.18
58.77
56.98
55.49
54.64
54.35
54.25
53.85
52.84
51.20
49.16
47.00
44.84
42.47
39.41
35.12
29.32
22.18
14.29
6.44
-0.70
-6.93
-12.56
-18.31
-24.98
-33.21
-43.24
-54.75
-66.74
-77.58
-85.25
-87.78
-83.84
-73.23
-57.02
-37.27
-16.37
3.60
21.25
36.04
47.88
56.92
63.31
67.14
68.69
68.43
67.12
65.55
64.40
63.95
64.08
64.35
64.16
63.07
60.94
57.89
54.22
50.18
45.83
40.90
34.98
27.68
18.86
8.87
-1.62
-11.68
-20.60
-28.06
-34.33
-40.10
-46.26
-53.61
-62.59
-73.21
-84.88
-96.44
-106.16
-112.04
-112.32
-105.99
-93.27
-75.63
-55.39
-34.98
-16.28
-0.25
12.95
23.60
31.98
38.17
42.16
44.03
44.22
43.46
42.59
42.21
42.53
43.33
44.11
44.44
44.07
43.01
41.45
39.57
37.41
34.77
31.26
26.50
20.32
12.93
4.87
-3.06
-10.20
-16.25
-21.46
-26.57
-32.52
-40.08
-49.59
-60.68
-72.26
-82.63
-89.82
-91.97
-87.89
-77.47
-61.73
-42.63
-22.50
-3.42
13.24
26.88
37.49
45.28
50.44
53.08
53.42
51.92
49.41
46.82
45.00
44.41
44.92
46.02
47.01
47.32
46.76
45.43
43.59
41.41
38.78
35.34
30.66
24.53
17.10
8.84
0.43
-7.48
-14.53
-20.66
-26.13
-31.34
-36.81
-43.05
-50.53
-59.46
-69.56
-79.85
-88.60
-93.71
-93.28
-86.39
-73.54
-56.51
-37.85
-19.93
-4.28
8.63
19.16
27.83
34.89
40.11
43.13
43.85
42.70
40.65
38.83
38.06
38.54
39.88
41.35
42.25
42.18
41.19
39.59
37.73
35.75
33.56
30.83
27.23
22.53
16.76
10.21
3.31
-3.52
-10.01
-16.11
-21.95
-27.83
-34.15
-41.34
-49.74
-59.38
-69.74
-79.59
-87.10
-90.36
-87.97
-79.65
-66.32
-49.85
-32.35
-15.59
-0.62
12.18
22.79
31.24
37.48
41.45
43.26
43.36
42.50
41.49
40.97
41.18
41.97
42.87
43.39
43.23
42.35
40.95
39.32
37.65
35.92
33.89
31.25
27.63
22.86
16.98
10.23
3.07
-4.05
-10.75
-16.89
-22.63
-28.39
-34.68
-41.99
-50.55
-60.16
-70.07
-79.04
-85.52
-88.03
-85.59
-78.03
-66.07
-51.10
-34.80
-18.72
-3.99
8.72
19.13
27.10
32.60
35.66
36.51
35.73
34.11
32.53
31.68
31.81
32.72
33.87
34.68
34.81
34.24
33.22
32.03
30.74
29.16
26.86
23.48
18.86
13.18
6.87
0.42
-5.78
-11.58
-17.03
-22.38
-27.99
-34.26
-41.47
-49.70
-58.53
-66.98
-73.58
-76.69
-74.98
-67.89
-55.90
-40.45
-23.55
-7.27
6.84
17.89
25.78
30.87
33.69
34.74
34.47
33.31
31.74
30.32
29.46
29.36
29.83
30.43
30.68
30.33
29.42
28.23
26.96
25.59
23.75
20.93
16.70
11.05
4.34
-2.75
-9.50
-15.45
-20.53
-25.08
-29.70
-35.08
-41.77
-50.04
-59.60
-69.48
-78.07
-83.41
-83.73
-78.08
-66.69
-51.05
-33.36
-15.88
-0.26
12.71
22.96
30.78
36.47
40.18
42.04
42.27
41.29
39.69
38.11
36.99
36.50
36.53
36.75
36.78
36.29
35.21
33.63
31.82
30.00
28.14
25.99
23.07
18.95
13.47
6.84
-0.40
-7.58
-14.19
-20.08
-25.53
-31.06
-37.27
-44.63
-53.27
-62.95
-72.93
-82.01
-88.63
-91.19
-88.48
-80.10
-66.73
-50.04
-32.16
-15.15
-0.44
11.37
20.34
26.86
31.33
34.02
35.17
35.09
34.32
33.58
33.48
34.37
36.15
38.30
40.13
41.06
40.88
39.77
38.10
36.22
34.21
31.80
28.56
24.14
18.48
11.95
5.19
-1.20
-6.86
-11.87
-16.69
-21.94
-28.22
-35.90
-45.01
-55.07
-65.07
-73.52
-78.64
-78.89
-73.42
-62.50
-47.54
-30.66
-14.01
0.82
13.14
23.05
30.95
37.19
41.87
44.94
46.41
46.66
46.34
46.23
46.92
48.56
50.83
53.09
54.71
55.32
54.93
53.90
52.60
51.23
49.48
46.71
42.11
35.17
25.95
15.14
3.78
-7.05
-16.67
-24.90
-32.00
-38.46
-44.73
-51.19
-58.02
-65.18
-72.30
-78.54
-82.56
-82.90
-78.38
-68.64
-54.33
-36.97
-18.48
-0.57
15.59
29.41
40.64
49.10
54.64
57.23
57.12
55.00
51.84
48.60
45.97
44.18
43.03
42.12
41.07
39.69
37.97
35.98
33.72
31.03
27.63
23.24
17.73
11.18
3.90
-3.67
-11.13
-18.20
-24.86
-31.31
-37.93
-45.16
-53.32
-62.40
-71.80
-80.33
-86.35
-88.18
-84.70
-75.76
-62.39
-46.41
-29.97
-14.85
-2.09
7.98
15.53
20.83
24.08
25.36
24.86
23.02
20.55
18.32
17.02
16.99
18.08
19.80
21.57
22.91
23.58
23.53
22.77
21.30
19.06
16.02
12.20
7.73
2.77
-2.62
-8.47
-14.94
-22.25
-30.43
-39.21
-47.83
-55.14
-59.73
-60.35
-56.33
-47.81
-35.79
-21.81
-7.56
5.55
16.62
25.20
31.20
34.70
35.86
34.92
32.27
28.50
24.30
20.42
17.51
15.94
15.73
16.51
17.67
18.53
18.56
17.61
15.82
13.50
10.91
8.09
4.89
1.05
-3.68
-9.40
-16.15
-23.94
-32.72
-42.09
-51.16
-58.47
-62.35
-61.42
-55.14
-44.13
-29.93
-14.60
0.00
12.55
22.42
29.51
33.94
35.94
35.80
33.92
30.95
27.65
24.74
22.79
22.01
22.25
23.08
23.93
24.22
23.51
21.54
18.30
13.98
8.92
3.42
-2.31
-8.21
-14.27
-20.48
-26.80
-33.29
-40.20
-47.95
-56.92
-67.05
-77.51
-86.63
-92.32
-92.75
-87.00
-75.47
-59.70
-41.86
-24.08
-7.88
5.94
17.23
26.15
32.95
37.84
41.03
42.85
43.74
44.23
44.74
45.46
46.20
46.59
46.30
45.22
43.57
41.70
39.90
38.12
35.95
32.84
28.35
22.43
15.35
7.66
-0.08
-7.48
-14.36
-20.75
-26.95
-33.48
-41.00
-50.02
-60.50
-71.57
-81.44
-87.81
-88.65
-82.96
-71.23
-55.30
-37.64
-20.50
-5.29
7.60
18.47
27.77
35.71
42.21
47.10
50.37
52.33
53.50
54.43
55.45
56.62
57.73
58.50
58.60
57.88
56.31
54.05
51.38
48.54
45.64
42.48
38.65
33.71
27.45
19.99
11.87
3.73
-3.84
-10.56
-16.48
-21.97
-27.59
-33.94
-41.53
-50.61
-60.99
-71.84
-81.74
-88.89
-91.61
-88.83
-80.46
-67.46
-51.51
-34.50
-17.97
-2.87
10.51
22.22
32.38
40.93
47.70
52.57
55.64
57.35
58.29
59.02
59.85
60.80
61.74
62.51
63.04
63.34
63.37
62.98
61.92
59.88
56.68
52.39
47.33
41.89
36.44
31.05
25.57
19.64
13.06
5.81
-1.73
-9.06
-15.77
-21.76
-27.31
-32.94
-39.22
-46.60
-55.28
-65.07
-75.42
-85.18
-92.79
-96.51
-94.90
-87.40
-74.58
-58.06
-40.04
-22.62
-7.17
5.80
16.47
25.34
32.76
38.79
43.25
46.03
47.30
47.61
47.65
48.04
49.06
50.51
51.97
52.95
53.16
52.57
51.32
49.53
47.18
44.16
40.34
35.80
30.79
25.60
20.48
15.47
10.44
5.25
-0.14
-5.65
-11.10
-16.43
-21.64
-26.94
-32.59
-38.88
-46.06
-54.27
-63.37
-72.76
-81.19
-86.94
-88.28
-84.05
-74.21
-59.94
-43.27
-26.42
-11.06
1.98
12.70
21.53
28.82
34.65
38.84
41.18
41.80
41.17
40.07
39.28
39.29
40.16
41.57
42.99
43.98
44.29
43.91
43.00
41.71
40.11
38.14
35.64
32.47
28.54
23.88
18.66
13.05
7.24
1.34
-4.58
-10.47
-16.30
-22.01
-27.64
-33.39
-39.61
-46.69
-54.80
-63.62
-72.09
-78.60
-81.39
-79.17
-71.64
-59.66
-44.99
-29.67
-15.37
-3.02
7.12
15.23
21.51
26.03
28.83
30.09
30.26
29.98
29.91
30.45
31.66
33.30
35.00
36.43
37.35
37.62
37.11
35.79
33.62
30.78
27.49
24.04
20.64
17.29
13.81
9.90
5.31
0.01
-5.75
-11.56
-17.07
-22.14
-27.01
-32.16
-38.19
-45.47
-54.00
-63.19
-71.93
-78.69
-81.95
-80.51
-73.97
-62.82
-48.44
-32.70
-17.46
-4.08
6.77
15.08
21.19
25.49
28.26
29.69
30.01
29.60
28.95
28.55
28.69
29.36
30.34
31.31
32.03
32.44
32.59
32.55
32.36
31.98
31.22
29.85
27.55
24.08
19.32
13.48
7.01
0.58
-5.24
-10.23
-14.55
-18.67
-23.09
-28.13
-33.85
-40.24
-47.26
-54.87
-62.82
-70.44
-76.48
-79.39
-77.90
-71.45
-60.54
-46.56
-31.36
-16.65
-3.62
7.17
15.63
21.97
26.51
29.58
31.51
32.65
33.29
33.71
34.10
34.56
35.06
35.50
35.67
35.39
34.59
33.28
31.67
29.96
28.23
26.45
24.34
21.58
17.88
13.11
7.40
1.06
-5.48
-11.82
-17.71
-23.20
-28.64
-34.58
-41.59
-49.96
-59.50
-69.35
-78.13
-84.16
-86.00
-82.84
-74.70
-62.48
-47.56
-31.55
-15.86
-1.55
10.75
20.74
28.35
33.68
36.96
38.52
38.81
38.34
37.61
37.04
36.85
37.12
37.70
38.41
39.07
39.50
39.61
39.26
38.35
36.84
34.73
32.05
28.75
24.68
19.68
13.71
7.02
0.10
-6.47
-12.36
-17.68
-23.04
-29.24
-36.95
-46.37
-56.98
-67.68
-76.89
-82.95
-84.53
-80.92
-72.29
-59.64
-44.50
-28.54
-13.17
0.62
12.33
21.72
28.72
33.39
35.94
36.71
36.27
35.23
34.18
33.55
33.56
34.08
34.84
35.42
35.57
35.21
34.52
33.69
32.85
31.84
30.25
27.64
23.68
18.37
12.04
5.23
-1.52
-7.83
-13.56
-18.90
-24.24
-30.08
-36.89
-44.96
-54.21
-64.04
-73.35
-80.64
-84.35
-83.21
-76.74
-65.42
-50.61
-34.21
-18.06
-3.54
8.63
18.26
25.46
30.38
33.16
34.05
33.49
32.18
30.86
30.09
30.06
30.57
31.22
31.69
31.90
31.96
32.00
31.96
31.54
30.22
27.51
23.21
17.48
10.87
4.06
-2.28
-7.86
-12.70
-17.29
-22.32
-28.49
-36.14
-44.99
-54.01
-61.51
-65.63
-64.85
-58.57
-47.35
-32.77
-16.92
-1.78
11.21
21.42
28.79
33.59
36.16
36.85
36.09
34.41
32.41
30.60
29.29
28.47
27.97
27.61
27.35
27.30
27.57
28.10
28.53
28.24
26.61
23.22
18.09
11.66
4.65
-2.25
-8.61
-14.39
-19.94
-25.79
-32.53
-40.55
-49.88
-59.98
-69.68
-77.32
-81.15
-79.82
-72.88
-60.98
-45.66
-28.93
-12.68
1.73
13.56
22.66
29.22
33.58
36.16
37.45
37.92
38.00
38.01
38.08
38.17
38.16
37.92
37.45
36.84
36.24
35.76
35.36
34.80
33.76
31.86
28.83
24.61
19.31
13.24
6.73
0.08
-6.58
-13.32
-20.38
-28.15
-36.93
-46.70
-56.91
-66.36
-73.44
-76.50
-74.41
-66.92
-54.88
-39.97
-24.17
-9.17
3.99
14.98
23.92
31.08
36.58
40.42
42.56
43.20
42.79
41.99
41.41
41.40
41.93
42.71
43.37
43.66
43.57
43.25
42.86
42.37
41.52
39.81
36.71
31.92
25.57
18.17
10.51
3.33
-3.00
-8.46
-13.46
-18.60
-24.47
-31.48
-39.83
-49.33
-59.31
-68.60
-75.56
-78.54
-76.35
-68.75
-56.63
-41.75
-26.13
-11.44
1.36
12.06
20.86
28.07
33.77
37.86
40.26
41.12
40.93
40.40
40.20
40.67
41.69
42.77
43.34
43.01
41.81
40.06
38.16
36.38
34.62
32.48
29.47
25.24
19.84
13.61
7.14
0.97
-4.60
-9.62
-14.41
-19.46
-25.21
-31.94
-39.68
-48.13
-56.66
-64.31
-69.86
-72.09
-70.08
-63.56
-53.07
-39.91
-25.70
-12.02
0.02
9.90
17.61
23.41
27.59
30.39
32.01
32.71
32.87
32.89
33.09
33.60
34.29
34.87
35.08
34.83
34.22
33.45
32.63
31.61
30.01
27.40
23.46
18.24
12.13
5.73
-0.39
-5.94
-10.98
-15.91
-21.26
-27.56
-35.16
-44.00
-53.57
-62.81
-70.17
-73.99
-72.96
-66.58
-55.45
-41.17
-25.84
-11.38
0.90
10.61
17.99
23.57
27.70
30.53
32.05
32.35
31.78
30.89
30.24
30.15
30.55
31.07
31.24
30.77
29.67
28.28
26.99
25.97
25.03
23.60
21.02
16.84
11.10
4.35
-2.60
-9.02
-14.55
-19.28
-23.69
-28.41
-33.98
-40.74
-48.81
-57.98
-67.64
-76.68
-83.61
-86.80
-84.97
-77.71
-65.68
-50.44
-34.05
-18.33
-4.46
7.19
16.80
24.73
31.20
36.22
39.72
41.73
42.52
42.59
42.38
42.20
42.09
41.92
41.52
40.83
39.92
38.96
38.11
37.38
36.58
35.37
33.29
29.98
25.26
19.31
12.58
5.67
-0.88
-6.80
-12.20
-17.55
-23.43
-30.35
-38.55
-47.87
-57.65
-66.81
-73.90
-77.46
-76.33
-70.05
-59.08
-44.74
-28.88
-13.34
0.56
12.18
21.56
29.07
35.08
39.75
43.02
44.78
45.18
44.62
43.79
43.37
43.70
44.67
45.71
46.12
45.41
43.57
41.00
38.28
35.81
33.61
31.31
28.31
24.16
18.73
12.26
5.26
-1.77
-8.47
-14.76
-20.73
-26.55
-32.47
-38.77
-45.75
-53.61
-62.23
-70.89
-78.27
-82.65
-82.56
-77.25
-67.13
-53.53
-38.25
-23.00
-8.94
3.26
13.38
21.37
27.20
30.95
32.84
33.30
32.88
32.17
31.63
31.50
31.83
32.42
32.96
33.15
32.81
31.99
30.89
29.77
28.67
27.40
25.57
22.78
18.83
13.79
7.97
1.84
-4.17
-9.79
-15.00
-20.09
-25.57
-32.05
-39.99
-49.29
-59.15
-68.05
-74.12
-75.68
-71.87
-62.93
-50.13
-35.27
-20.19
-6.30
5.66
15.39
22.96
28.49
32.13
34.12
34.80
34.67
34.22
33.88
33.92
34.33
35.00
35.66
36.08
36.06
35.61
34.81
33.78
32.53
30.88
28.44
24.80
19.72
13.31
6.03
-1.51
-8.86
-15.89
-22.83
-30.14
-38.28
-47.49
-57.67
-68.22
-78.07
-85.74
-89.59
-88.32
-81.37
-69.29
-53.59
-36.33
-19.50
-4.52
7.97
17.88
25.40
30.77
34.18
35.92
36.42
36.26
36.02
36.11
36.67
37.50
38.26
38.61
38.37
37.61
36.60
35.57
34.61
33.50
31.77
28.90
24.57
18.85
12.25
5.50
-0.71
-6.07
-10.72
-15.23
-20.43
-27.06
-35.46
-45.30
-55.45
-64.11
-69.27
-69.25
-63.39
-52.14
-37.01
-19.95
-2.80
13.11
27.06
38.69
47.79
54.18
57.75
58.66
57.41
54.81
51.72
48.79
46.31
44.25
42.37
40.50
38.69
37.13
36.00
35.28
34.60
33.31
30.78
26.67
21.04
14.38
7.33
0.44
-6.03
-12.15
-18.24
-24.74
-32.17
-40.90
-51.06
-62.18
-73.03
-81.70
-86.07
-84.47
-76.39
-62.76
-45.71
-27.87
-11.49
2.08
12.52
20.21
25.75
29.62
32.06
33.19
33.21
32.43
31.22
29.89
28.62
27.47
26.53
25.84
25.44
25.16
24.62
23.27
20.60
16.44
11.01
4.87
-1.39
-7.38
-13.12
-18.90
-25.08
-31.95
-39.64
-48.15
-57.31
-66.59
-74.91
-80.62
-81.94
-77.51
-67.09
-51.78
-33.79
-15.67
0.50
13.60
23.52
30.75
35.89
39.34
41.26
41.74
40.99
39.36
37.32
35.25
33.36
31.75
30.40
29.31
28.41
27.53
26.41
24.67
21.98
18.12
13.14
7.26
0.85
-5.77
-12.36
-18.93
-25.73
-33.21
-41.87
-52.01
-63.37
-74.91
-84.84
-90.98
-91.47
-85.39
-73.17
-56.50
-37.72
-19.11
-2.27
12.03
23.63
32.63
39.12
43.14
44.86
44.71
43.42
41.82
40.57
40.02
40.08
40.41
40.58
40.32
39.57
38.47
37.21
35.87
34.32
32.23
29.18
24.82
19.06
12.11
4.44
-3.39
-10.90
-17.91
-24.54
-31.27
-38.72
-47.46
-57.65
-68.82
-79.74
-88.60
-93.48
-92.87
-86.19
-74.01
-57.94
-40.02
-22.21
-5.94
8.06
19.55
28.58
35.20
39.47
41.60
42.05
41.44
40.46
39.57
38.96
38.46
37.78
36.72
35.31
33.82
32.61
31.89
31.55
31.09
29.81
27.04
22.40
16.01
8.45
0.55
-6.92
-13.52
-19.33
-24.89
-30.98
-38.39
-47.50
-58.05
-68.98
-78.55
-84.70
-85.68
-80.55
-69.57
-54.15
-36.42
-18.55
-2.25
11.59
22.75
31.34
37.59
41.62
43.60
43.86
43.00
41.68
40.50
39.76
39.40
39.17
38.82
38.28
37.61
36.89
35.99
34.58
32.24
28.66
23.87
18.16
12.01
5.81
-0.23
-6.18
-12.19
-18.54
-25.55
-33.50
-42.55
-52.38
-62.05
-69.96
-74.20
-73.13
-66.10
-53.76
-37.89
-20.88
-4.87
8.73
19.50
27.72
33.91
38.44
41.46
42.91
42.79
41.28
38.79
35.88
33.14
31.03
29.83
29.54
29.89
30.40
30.46
29.61
27.61
24.48
20.47
15.85
10.80
5.33
-0.57
-6.97
-13.96
-21.67
-30.35
-40.18
-50.95
-61.75
-70.93
-76.40
-76.37
-70.01
-57.90
-41.88
-24.40
-7.73
6.63
18.08
26.62
32.44
35.71
36.61
35.50
33.14
30.45
28.34
27.30
27.28
27.84
28.39
28.52
28.03
26.89
24.97
22.10
18.23
13.76
9.72
7.63
9.14
15.41
26.74
42.18
59.61
75.83
87.04
89.59
80.91
60.21
29.03
-9.00
-48.87
-85.26
-113.81
-132.07
-139.98
-139.68
-134.61
-128.31
-123.07
-119.39
-116.00
-110.86
-102.44
-90.59
-76.70
-63.05
-51.69
-43.59
-38.38
-34.83
-31.70
-28.49
-25.85
-25.34
-28.74
-37.21
-50.68
-67.84
-86.63
-105.00
-121.48
-135.23
-145.73
-152.34
-154.19
-150.43
-140.82
-126.05
-107.53
-86.87
-65.32
-43.67
-22.66
-3.57
11.64
20.74
22.42
17.17
7.61
-2.23
-8.18
-7.14
2.23
19.57
43.12
70.36
98.30
124.01
144.97
159.46
166.86
167.65
163.14
155.26
146.05
137.29
130.26
125.52
122.82
121.13
118.83
114.21
106.07
93.97
78.15
59.48
39.49
20.25
4.48
-5.14
-6.65
0.65
15.55
34.94
54.77
71.31
82.12
86.76
86.21
82.06
76.75
72.25
69.59
68.92
69.96
71.97
74.81
78.15
81.32
85.41
91.35
99.08
107.20
113.63
115.71
112.96
105.90
95.82
87.73
86.46
94.71
112.30
137.21
165.59
195.70
225.42
251.94
276.47
300.73
325.72
351.12
376.12
398.55
419.35
439.20
434.39
390.96
310.66
211.16
113.68
41.99
-9.93
-49.73
-82.26
-110.01
-130.99
-142.22
-143.72
-139.14
-133.49
-132.25
-135.88
-143.32
-153.47
-162.60
-167.83
-168.70
-166.95
-164.96
-165.39
-167.40
-169.55
-171.14
-170.45
-166.73
-160.75
-154.46
-149.84
-148.68
-150.27
-153.38
-157.00
-159.66
-160.37
-159.19
-157.09
-155.46
-155.97
-159.16
-165.06
-173.31
-182.83
-192.30
-200.63
-207.17
-211.69
-214.30
-214.80
-212.98
-208.59
-201.42
-191.37
-178.56
-163.31
-146.15
-127.82
-109.30
-91.69
-76.00
-62.88
-52.44
-44.25
-37.57
-31.68
-26.26
-21.49
-18.00
-16.47
-17.29
-20.14
-23.83
-26.36
-25.30
-18.37
-4.10
17.72
45.88
77.91
110.59
140.69
165.58
183.67
194.50
198.51
196.62
189.83
178.95
164.63
147.44
128.12
107.68
87.34
68.27
51.37
36.93
24.84
14.75
6.43
-0.04
-4.40
-6.54
-6.91
-6.64
-7.35
-10.56
-17.17
-27.22
-39.97
-54.06
-67.78
-79.15
-86.12
-86.86
-80.38
-66.90
-48.04
-26.30
-4.27
16.21
34.51
50.92
66.14
80.51
93.82
105.48
115.04
122.66
129.36
136.92
147.31
161.84
180.35
200.69
218.89
230.24
230.67
218.11
193.08
158.37
117.98
76.04
36.00
0.28
-29.71
-53.44
-71.16
-83.62
-91.82
-96.48
-97.60
-94.56
-86.57
-73.59
-56.95
-39.45
-24.59
-15.35
-13.09
-16.96
-24.23
-31.39
-35.47
-35.12
-30.94
-25.01
-19.95
-17.83
-19.51
-24.58
-31.77
-39.65
-47.19
-53.96
-60.05
-65.56
-70.17
-73.07
-73.30
-70.54
-65.72
-61.10
-59.62
-63.77
-74.49
-90.70
-109.86
-129.13
-146.61
-161.91
-175.76
-188.89
-200.85
-209.60
-212.06
-205.53
-189.01
-163.96
-133.95
-103.54
-76.80
-56.32
-42.89
-35.93
-34.25
-36.61
-41.97
-49.42
-57.91
-66.25
-73.20
-77.77
-79.45
-78.20
-74.31
-68.12
-59.86
-49.65
-37.70
-24.59
-11.30
0.93
11.03
18.39
23.06
25.60
26.69
26.78
25.88
23.58
19.23
12.33
2.86
-8.42
-19.98
-29.62
-35.05
-34.50
-27.25
-13.91
3.81
23.59
43.05
60.31
74.14
83.95
89.67
91.53
90.01
85.71
79.32
71.52
62.91
53.89
44.64
35.16
25.40
15.41
5.55
-3.65
-11.63
-18.17
-23.66
-29.09
-35.59
-43.82
-53.37
-62.57
-68.96
-70.24
-65.23
-54.41
-39.52
-22.65
-5.16
12.84
32.26
54.23
79.35
107.34
137.09
166.96
194.67
217.10
230.38
230.68
215.70
186.29
146.99
105.00
67.93
41.14
26.17
20.89
21.03
22.31
21.96
19.30
15.17
10.99
7.92
6.39
6.10
6.13
5.19
1.91
-4.97
-16.20
-31.73
-50.29
-69.34
-85.24
-94.02
-92.48
-79.31
-55.78
-25.67
5.67
32.80
51.53
59.80
57.66
46.79
29.62
8.58
-14.26
-37.41
-59.63
-79.82
-96.75
-109.16
-116.10
-117.21
-113.05
-104.91
-94.46
-83.17
-71.91
-60.91
-49.99
-38.91
-27.56
-16.06
-4.67
6.22
16.09
24.13
29.41
31.19
29.31
24.53
18.47
13.17
10.38
10.98
14.78
20.71
27.51
34.15
40.20
45.50
49.83
52.60
52.87
49.93
43.73
35.29
26.43
19.05
14.31
12.10
11.21
9.93
6.98
2.06
-4.00
-9.80
-13.97
-15.80
-15.46
-13.91
-12.57
-12.86
-15.88
-22.03
-30.74
-40.25
-47.70
-49.74
-43.51
-27.68
-3.18
26.93
58.33
86.86
109.55
125.27
134.44
138.29
138.19
135.23
130.30
124.27
118.15
112.76
108.44
104.73
100.40
93.81
83.48
68.57
49.05
25.36
-2.01
-32.97
-67.77
-106.50
-148.34
-190.92
-230.51
-262.91
-284.70
-294.23
-291.76
-278.67
-256.32
-225.31
-185.73
-138.22
-85.11
-30.84
18.93
58.99
86.16
99.99
102.19
95.32
81.49
61.92
37.38
9.21
-20.00
-46.56
-66.71
-77.91
-79.92
-74.70
-65.66
-56.19
-48.54
-43.37
-40.07
-37.64
-35.52
-34.05
-34.41
-38.14
-46.53
-60.17
-78.63
-100.43
-123.06
-143.29
-157.71
-163.53
-159.47
-146.39
-127.36
-107.00
-90.10
-80.23
-78.64
-84.09
-93.63
-103.93
-112.53
-118.43
-121.65
-122.42
-120.31
-114.03
-101.97
-83.22
-58.24
-28.99
1.77
31.50
58.79
83.44
106.11
127.46
147.58
165.76
180.69
190.84
194.70
191.02
179.11
159.35
133.61
105.49
79.78
61.13
52.55
54.23
63.41
75.35
85.11
89.10
86.03
76.66
62.94
46.99
30.52
14.77
1.19
-8.57
-12.75
-10.05
-0.14
15.87
35.67
56.34
75.29
91.18
103.81
113.57
120.71
124.96
125.38
120.92
110.74
94.71
74.03
50.63
26.99
6.05
-8.82
-14.25
-7.83
10.91
40.09
77.15
118.18
158.54
193.61
219.84
235.22
239.23
232.52
217.01
198.34
182.09
171.63
167.15
166.77
167.99
168.66
167.29
163.68
162.74
168.82
182.90
201.93
221.25
236.98
247.18
251.19
249.86
249.82
256.54
271.16
290.48
310.52
329.23
347.00
364.63
347.68
277.48
159.57
21.17
-108.54
-213.31
-290.29
-342.95
-376.77
-392.81
-389.26
-363.44
-316.23
-253.71
-184.26
-116.08
-55.29
-16.25
-8.44
-29.58
-68.45
-110.89
-146.55
-169.72
-184.70
-195.82
-205.93
-214.42
-217.20
-211.53
-196.69
-177.57
-160.78
-151.32
-149.78
-153.72
-157.84
-155.74
-143.07
-119.49
-88.90
-56.95
-28.86
-7.24
7.51
17.33
25.13
32.97
40.84
46.64
47.81
42.67
31.53
15.88
-1.90
-19.58
-35.47
-48.41
-57.91
-63.79
-66.37
-66.26
-64.54
-62.35
-60.48
-59.39
-59.19
-60.03
-62.17
-65.92
-71.48
-79.03
-88.71
-100.55
-114.01
-127.49
-138.05
-141.80
-135.12
-116.06
-85.59
-47.51
-7.39
29.35
58.95
80.04
93.15
99.70
101.05
98.25
92.19
84.10
75.62
68.46
63.86
62.10
62.56
64.03
65.34
65.70
64.82
62.68
59.34
54.78
48.88
41.55
32.76
22.66
11.56
-0.08
-11.75
-23.21
-34.68
-46.78
-60.07
-74.27
-87.66
-97.09
-98.94
-90.63
-71.91
-45.25
-15.04
13.86
37.69
54.50
63.99
66.90
64.37
57.82
48.96
39.74
31.97
26.74
24.01
22.65
20.87
16.78
8.76
-4.54
-24.26
-51.32
-85.99
-127.24
-172.28
-216.70
-255.29
-283.37
-298.18
-299.64
-290.22
-274.14
-256.11
-240.13
-228.62
-221.99
-218.74
-215.89
-209.98
-198.00
-178.41
-151.61
-119.80
-86.12
-53.58
-24.19
1.47
24.00
44.61
64.53
84.66
105.53
127.44
150.70
175.68
202.80
232.18
263.36
294.99
324.97
350.92
370.91
384.09
390.74
391.96
388.95
382.37
372.32
358.56
341.07
320.27
296.89
271.44
243.68
212.68
177.43
138.03
96.42
56.50
23.16
0.59
-9.23
-7.36
2.49
15.30
26.51
33.17
34.39
30.80
23.63
14.05
2.87
-9.12
-20.86
-30.94
-37.98
-41.12
-40.52
-37.34
-33.31
-29.91
-27.87
-27.07
-26.82
-26.54
-26.06
-25.71
-26.08
-27.60
-30.31
-33.87
-37.66
-41.08
-43.67
-45.25
-46.12
-47.18
-49.85
-55.61
-65.35
-78.68
-93.76
-107.82
-118.25
-123.64
-124.22
-121.42
-116.87
-111.43
-104.85
-96.24
-84.99
-71.42
-56.82
-42.95
-31.20
-22.10
-15.34
-10.13
-5.75
-1.75
2.06
5.76
9.35
12.78
15.72
17.57
17.56
15.06
9.88
2.47
-6.25
-15.09
-22.98
-29.30
-34.19
-38.57
-43.97
-52.11
-64.14
-79.94
-97.58
-113.42
-122.95
-122.21
-109.23
-85.00
-53.36
-19.92
9.62
31.16
43.07
46.18
42.91
36.05
27.84
19.54
11.72
4.73
-0.90
-4.37
-4.86
-1.95
3.95
11.56
18.88
23.74
24.36
19.85
10.45
-2.57
-17.25
-31.60
-44.04
-53.82
-61.02
-66.31
-70.68
-75.10
-80.37
-87.01
-95.36
-105.43
-116.75
-128.12
-137.55
-142.58
-141.03
-131.82
-115.46
-93.88
-69.63
-44.83
-20.47
3.57
28.01
53.49
80.09
107.43
134.98
162.35
189.31
215.47
240.12
262.11
280.19
293.31
300.79
302.20
297.04
284.66
264.38
236.03
200.25
158.60
113.21
66.24
19.38
-26.29
-70.16
-111.70
-150.26
-185.04
-215.43
-241.06
-261.83
-277.41
-286.97
-289.11
-282.14
-264.84
-237.15
-200.60
-158.18
-113.75
-71.14
-33.30
-1.91
22.55
40.35
52.05
58.24
59.60
56.95
51.37
44.06
36.20
28.71
22.31
17.41
14.15
12.15
10.51
7.95
3.30
-3.89
-13.02
-22.54
-30.62
-36.02
-38.55
-39.22
-39.63
-41.31
-45.24
-51.65
-60.05
-69.37
-78.02
-83.91
-84.72
-78.45
-64.16
-42.58
-16.30
10.73
34.24
50.88
59.06
59.22
53.39
44.36
34.78
26.43
20.18
16.04
13.62
12.46
12.18
12.47
12.99
13.35
13.15
12.09
9.99
6.74
2.26
-3.53
-10.49
-18.26
-26.17
-33.37
-39.22
-43.55
-46.83
-50.12
-54.75
-61.90
-72.12
-84.82
-98.01
-108.41
-112.16
-106.02
-88.57
-61.05
-27.10
8.22
40.03
64.93
81.58
90.45
92.99
90.91
85.71
78.80
71.65
65.76
62.42
62.18
64.66
68.61
72.56
75.40
76.91
77.62
78.29
79.23
79.88
78.98
75.15
67.72
57.17
45.11
33.57
24.21
17.80
14.13
12.55
12.20
12.07
10.62
5.87
-3.98
-19.51
-39.28
-60.23
-79.15
-94.46
-107.26
-120.69
-137.96
-160.08
-184.81
-207.32
-222.24
-225.78
-216.91
-196.99
-168.65
-134.60
-97.16
-58.40
-20.43
14.46
44.13
67.07
82.95
92.73
98.25
101.53
103.87
105.45
105.32
102.09
94.84
83.90
70.91
58.39
48.73
43.23
41.61
42.11
42.12
38.98
30.92
17.61
0.56
-17.05
-30.95
-36.97
-32.34
-16.72
7.68
36.79
66.04
91.78
111.90
125.84
133.86
136.48
134.22
127.86
118.86
109.31
101.41
96.51
94.33
93.06
90.16
83.83
74.15
63.29
54.37
49.72
49.44
51.04
50.79
45.48
34.13
18.31
1.07
-14.64
-27.33
-37.23
-45.70
-54.23
-63.90
-75.18
-87.98
-101.63
-114.47
-123.78
-126.15
-118.63
-100.18
-72.56
-40.06
-8.17
18.33
36.80
47.17
51.08
50.68
47.60
42.66
36.26
28.97
21.73
15.67
11.49
9.10
7.75
6.51
4.94
3.33
2.39
2.65
3.94
5.37
5.78
4.43
1.44
-2.26
-5.39
-7.05
-7.21
-6.73
-7.19
-10.23
-16.94
-27.26
-39.71
-51.42
-58.80
-58.49
-48.48
-28.83
-1.79
28.90
59.12
85.59
106.68
122.40
133.88
142.15
147.28
147.93
141.94
127.36
103.66
72.20
35.94
-1.59
-37.47
-70.04
-98.78
-123.60
-144.18
-159.70
-169.17
-172.12
-169.05
-161.51
-151.60
-141.24
-131.71
-123.43
-116.26
-109.92
-104.49
-100.48
-98.52
-98.65
-99.65
-98.98
-93.36
-80.03
-58.10
-29.24
2.65
32.80
57.27
74.12
83.62
87.54
87.91
86.24
83.17
78.93
73.79
68.30
63.13
58.86
55.69
53.58
52.29
51.54
50.84
49.48
46.58
41.33
33.38
23.01
11.08
-1.33
-13.25
-24.04
-33.40
-41.28
-47.88
-53.73
-59.68
-66.59
-74.63
-82.56
-87.63
-86.19
-75.19
-53.65
-23.36
11.57
46.18
76.38
100.01
116.88
127.98
134.59
137.73
138.35
137.63
136.99
137.43
138.86
139.51
136.33
125.95
106.04
76.11
37.86
-5.52
-50.11
-92.21
-128.75
-157.54
-177.28
-187.56
-188.84
-182.47
-170.41
-154.93
-138.34
-122.56
-109.04
-98.63
-91.56
-87.53
-85.77
-85.18
-84.29
-81.47
-75.11
-64.01
-47.88
-27.57
-5.05
17.19
36.86
52.63
64.41
73.15
80.17
86.41
91.99
96.15
97.76
96.03
91.09
84.18
77.38
72.88
72.16
75.40
81.37
87.96
92.99
94.97
93.40
88.64
81.57
73.18
64.41
56.11
49.05
43.76
40.32
38.22
36.48
34.00
30.17
25.10
19.62
14.79
11.39
9.58
8.91
8.59
7.72
5.48
1.14
-5.90
-16.12
-29.74
-46.79
-67.03
-90.02
-115.01
-140.74
-165.15
-185.48
-198.70
-202.50
-196.11
-180.72
-159.12
-134.61
-109.88
-86.41
-64.55
-44.20
-25.55
-9.50
2.59
9.51
10.84
7.26
0.34
-8.03
-16.25
-23.33
-28.95
-33.23
-36.56
-39.48
-42.69
-47.00
-53.14
-61.19
-70.13
-77.68
-80.76
-76.43
-63.10
-41.37
-14.10
14.33
39.36
57.49
67.13
68.64
63.93
55.60
46.24
37.87
31.73
28.33
27.48
28.62
30.97
33.78
36.46
38.59
39.95
40.41
39.84
38.09
34.94
30.26
24.08
16.74
8.88
1.35
-5.04
-9.90
-13.40
-16.52
-20.78
-27.72
-38.06
-50.97
-63.79
-72.49
-72.97
-62.52
-40.99
-10.95
23.00
55.64
82.62
101.33
111.08
112.61
107.46
97.41
84.23
69.66
55.39
42.93
33.39
27.20
24.07
23.06
23.03
23.06
22.83
22.63
23.04
24.44
26.65
28.79
29.66
28.12
23.63
16.44
7.48
-1.95
-10.76
-18.50
-25.47
-32.62
-41.14
-51.92
-64.98
-79.22
-92.38
-101.49
-103.70
-97.11
-81.54
-58.63
-31.47
-3.66
21.68
42.61
58.48
69.61
76.65
80.09
80.11
76.68
69.96
60.50
49.16
36.98
24.91
13.70
3.89
-4.14
-10.06
-13.82
-15.67
-16.28
-16.52
-17.32
-19.25
-22.43
-26.52
-30.89
-35.03
-38.61
-41.78
-45.12
-49.34
-55.02
-62.03
-69.19
-74.30
-74.68
-68.01
-53.31
-31.47
-5.13
22.09
46.75
66.50
80.52
89.24
93.77
95.25
94.56
92.24
88.76
84.70
80.74
77.60
75.83
75.71
77.15
79.73
82.82
85.65
87.53
87.90
86.51
83.37
78.60
72.37
64.78
55.90
45.72
34.14
20.97
6.04
-10.40
-27.25
-42.22
-52.11
-53.71
-45.07
-26.50
-0.74
27.79
54.46
75.78
90.17
97.73
99.55
96.86
90.68
81.89
71.48
60.70
50.74
42.40
35.79
30.41
25.53
20.52
15.08
9.12
2.60
-4.58
-12.48
-20.98
-29.73
-38.30
-46.42
-54.25
-62.22
-70.95
-80.90
-92.26
-104.93
-118.48
-131.99
-143.90
-151.89
-153.27
-145.81
-128.71
-103.28
-72.81
-41.65
-13.83
8.14
23.67
33.68
39.62
42.61
43.11
41.20
37.15
31.79
26.45
22.44
20.47
20.39
21.22
21.65
20.47
17.05
11.39
4.06
-4.21
-12.77
-21.38
-30.31
-40.20
-51.78
-65.53
-81.44
-98.94
-116.96
-133.93
-147.76
-156.00
-156.19
-146.65
-127.13
-99.23
-66.10
-31.61
0.73
28.56
50.87
67.74
79.66
87.09
90.42
90.00
86.49
80.93
74.64
69.00
65.08
63.39
63.78
65.49
67.44
68.59
68.14
65.82
61.74
56.23
49.54
41.72
32.50
21.39
7.79
-8.81
-28.71
-51.80
-77.40
-104.00
-129.21
-149.91
-162.87
-165.55
-157.11
-138.86
-114.06
-87.03
-61.76
-40.86
-25.13
-13.96
-6.21
-1.11
1.40
0.86
-3.06
-10.05
-19.09
-28.75
-37.83
-45.79
-52.76
-59.26
-65.67
-71.95
-77.60
-82.01
-84.66
-85.38
-84.31
-81.87
-78.69
-75.75
-74.43
-76.22
-82.09
-91.63
-102.48
-110.55
-111.12
-100.53
-77.64
-44.32
-4.82
35.75
73.07
104.59
129.57
148.40
161.74
170.05
173.71
173.44
170.64
167.34
165.67
167.10
172.02
179.60
188.31
196.53
203.01
206.99
208.05
205.77
199.61
189.05
173.76
153.77
129.56
101.80
71.26
38.80
5.62
-26.44
-54.79
-76.42
-88.51
-89.22
-78.20
-56.83
-27.94
4.76
37.44
66.77
90.41
107.14
116.70
119.63
117.04
110.36
101.22
91.23
81.62
73.06
65.45
58.09
50.06
40.58
29.33
16.36
1.95
-13.60
-29.98
-46.79
-63.41
-79.09
-93.19
-105.41
-115.94
-125.37
-134.47
-143.81
-153.35
-162.07
-167.91
-168.12
-160.12
-142.55
-116.10
-83.47
-48.60
-15.33
13.80
37.91
57.39
72.84
84.21
90.64
91.00
84.91
73.45
59.13
45.19
34.47
28.44
26.95
28.54
31.33
33.75
35.00
35.04
34.13
32.50
30.13
26.85
22.56
17.49
12.11
6.98
2.39
-1.89
-6.50
-12.11
-18.79
-25.58
-30.49
-31.16
-25.89
-14.54
1.22
18.38
33.66
44.46
49.52
48.80
43.00
32.96
19.30
2.38
-17.38
-39.35
-62.39
-84.96
-105.16
-121.15
-131.51
-135.63
-133.90
-127.56
-118.24
-107.45
-96.14
-84.66
-73.02
-61.25
-49.60
-38.72
-29.40
