1536946604.00
64.000000
-0.00
-0.00
-0.00
-0.00
-0.00
-0.00
-0.00
-0.00
-0.00
-0.00
0.00
0.01
0.01
-0.00
-0.03
-0.05
-0.05
0.00
0.13
0.36
0.66
1.01
1.37
1.72
2.06
2.40
2.79
3.24
3.80
4.42
5.06
5.66
6.20
6.68
7.15
7.68
8.31
9.14
10.09
11.04
11.88
12.56
13.14
13.76
14.65
15.96
17.91
20.32
22.90
25.38
27.58
29.57
31.68
34.32
37.81
42.54
48.15
54.10
59.83
64.97
69.58
74.15
79.35
85.71
93.76
102.99
112.61
121.74
129.79
136.80
143.35
150.76
157.70
166.45
177.62
191.34
206.44
220.00
227.69
224.81
207.97
176.25
132.03
79.19
22.10
-35.96
-93.45
-150.12
-206.17
-261.36
-314.90
-365.31
-411.60
-452.94
-488.67
-517.89
-539.27
-551.22
-552.13
-541.02
-517.62
-482.99
-438.97
-387.98
-332.60
-275.22
-217.89
-162.21
-109.44
-60.37
-15.69
24.22
59.11
88.83
113.28
132.43
146.38
155.47
160.38
162.01
161.32
159.16
156.01
151.99
146.93
140.57
132.69
123.10
111.71
98.90
85.83
74.55
67.62
67.15
73.70
85.73
99.90
112.26
119.86
121.60
118.31
111.80
103.82
95.34
86.58
77.64
68.68
60.26
53.03
47.34
42.99
39.33
35.57
31.26
26.43
21.59
17.47
14.65
13.30
13.09
13.35
13.36
12.63
11.07
8.95
6.77
5.02
3.94
3.47
3.27
2.95
2.17
0.87
-0.85
-2.69
-4.28
-5.24
-5.27
-4.27
-2.46
-0.38
1.26
1.87
1.24
-0.34
-2.26
-3.88
-4.87
-5.24
-5.33
-5.42
-5.63
-5.86
-5.91
-5.70
-5.31
-4.92
-4.71
-4.71
-4.82
-4.83
-4.59
-4.00
-3.19
-2.34
-1.73
-1.55
-1.87
-2.59
-3.47
-4.21
-4.53
-4.28
-3.44
-2.16
-0.67
0.82
2.14
3.25
4.17
4.97
5.68
6.31
6.89
7.39
7.86
8.28
8.65
8.90
9.06
9.16
9.33
9.62
9.97
10.20
10.01
9.24
7.83
5.97
3.80
1.48
-0.85
-3.16
-5.34
-7.32
-8.96
-10.17
-10.96
-11.39
-11.58
-11.58
-11.49
-11.31
-11.08
-10.80
-10.47
-10.06
-9.58
-9.03
-8.45
-7.90
-7.42
-7.03
-6.73
-6.46
-6.20
-5.88
-5.46
-4.88
-4.07
-2.97
-1.59
-0.03
1.53
2.85
3.76
4.17
4.18
3.92
3.58
3.27
3.02
2.80
2.51
2.17
1.81
1.51
1.31
1.23
1.20
1.19
1.16
1.14
1.15
1.20
1.27
1.31
1.25
1.07
0.77
0.37
-0.10
-0.56
-0.99
-1.34
-1.65
-1.94
-2.24
-2.61
-3.13
-3.84
-4.75
-5.82
-6.94
-7.94
-8.76
-9.37
-9.89
-10.49
-11.33
-12.51
-13.99
-15.61
-17.12
-18.25
-18.75
-18.44
-17.25
-15.23
-12.59
-9.60
-6.54
-3.60
-0.86
1.72
4.16
6.44
8.48
10.18
11.47
12.33
12.84
13.07
13.12
13.11
13.13
13.27
13.56
13.98
14.39
14.63
14.60
14.26
13.72
13.09
12.47
11.87
11.25
10.54
9.72
8.84
7.98
7.13
6.24
5.21
3.98
2.59
1.16
-0.20
-1.40
-2.46
-3.47
-4.52
-5.65
-6.84
-8.06
-9.32
-10.67
-12.20
-13.96
-15.92
-17.94
-19.81
-21.29
-22.14
-22.23
-21.48
-19.95
-17.74
-15.00
-11.87
-8.50
-5.03
-1.62
1.60
4.50
6.96
8.89
10.26
11.07
11.41
11.44
11.34
11.25
11.27
11.40
11.60
11.78
11.86
11.79
11.50
10.95
10.12
9.08
7.95
6.86
5.94
5.17
4.48
3.71
2.77
1.59
0.24
-1.21
-2.64
-3.99
-5.26
-6.48
-7.70
-9.00
-10.42
-11.99
-13.72
-15.55
-17.44
-19.28
-20.89
-22.00
-22.33
-21.60
-19.70
-16.73
-13.03
-9.03
-5.17
-1.74
1.20
3.76
6.10
8.30
10.28
11.86
12.86
13.24
13.16
12.88
12.67
12.65
12.76
12.83
12.72
12.40
11.98
11.57
11.24
10.90
10.38
9.50
8.18
6.46
4.52
2.58
0.86
-0.54
-1.68
-2.73
-3.89
-5.34
-7.13
-9.19
-11.36
-13.50
-15.45
-17.07
-18.20
-18.62
-18.11
-16.55
-14.00
-10.69
-6.99
-3.23
0.31
3.51
6.32
8.74
10.77
12.40
13.59
14.32
14.60
14.51
14.13
13.60
13.06
12.56
12.11
11.67
11.19
10.69
10.22
9.82
9.47
9.07
8.41
7.33
5.84
4.05
2.24
0.66
-0.60
-1.60
-2.54
-3.66
-5.09
-6.82
-8.69
-10.47
-11.89
-12.72
-12.76
-11.89
-10.11
-7.52
-4.33
-0.81
2.83
6.41
9.87
13.14
16.17
18.84
21.02
22.64
23.71
24.37
24.85
25.36
26.01
26.74
27.36
27.63
27.38
26.59
25.38
23.96
22.52
21.15
19.86
18.63
17.46
16.37
15.37
14.44
13.49
12.48
11.40
10.29
9.20
8.11
6.87
5.26
3.10
0.34
-2.90
-6.35
-9.73
-12.80
-15.47
-17.78
-19.84
-21.73
-23.49
-24.99
-26.02
-26.35
-25.86
-24.57
-22.63
-20.28
-17.73
-15.16
-12.68
-10.38
-8.36
-6.73
-5.50
-4.65
-4.06
-3.64
-3.30
-2.98
-2.62
-2.13
-1.48
-0.67
0.22
1.03
1.65
2.03
2.21
2.28
2.26
2.10
1.68
0.91
-0.24
-1.64
-3.06
-4.29
-5.21
-5.84
-6.33
-6.86
-7.54
-8.42
-9.39
-10.33
-11.13
-11.75
-12.21
-12.63
-13.11
-13.74
-14.57
-15.58
-16.67
-17.65
-18.27
-18.31
-17.60
-16.14
-14.04
-11.51
-8.77
-6.02
-3.42
-1.07
1.00
2.74
4.16
5.26
6.07
6.64
7.02
7.29
7.50
7.71
7.95
8.24
8.57
8.85
8.97
8.80
8.20
7.17
5.78
4.22
2.71
1.39
0.28
-0.67
-1.54
-2.41
-3.26
-4.07
-4.85
-5.66
-6.58
-7.65
-8.85
-10.05
-11.11
-11.98
-12.66
-13.27
-13.92
-14.70
-15.68
-16.84
-18.08
-19.26
-20.11
-20.36
-19.74
-18.16
-15.71
-12.66
-9.39
-6.24
-3.44
-1.03
1.04
2.91
4.66
6.33
7.86
9.14
10.10
10.68
10.95
11.04
11.08
11.18
11.36
11.61
11.88
12.14
12.40
12.65
12.85
12.91
12.76
12.34
11.70
10.96
10.25
9.72
9.44
9.40
9.51
9.62
9.58
9.27
8.69
7.95
7.21
6.63
6.30
6.16
6.08
5.92
5.65
5.34
5.12
5.10
5.24
5.40
5.37
5.06
4.54
4.06
3.94
4.43
5.61
7.29
9.10
10.59
11.40
11.31
10.29
8.46
5.99
3.15
0.21
-2.56
-4.92
-6.69
-7.81
-8.30
-8.34
-8.11
-7.79
-7.55
-7.50
-7.66
-8.00
-8.44
-8.88
-9.29
-9.70
-10.23
-11.00
-12.07
-13.41
-14.84
-16.20
-17.34
-18.23
-18.95
-19.59
-20.20
-20.80
-21.38
-21.94
-22.50
-23.08
-23.66
-24.18
-24.61
-25.00
-25.47
-26.21
-27.34
-28.82
-30.48
-32.02
-33.19
-33.77
-33.71
-33.01
-31.74
-30.00
-27.88
-25.49
-22.91
-20.24
-17.57
-15.02
-12.70
-10.67
-8.92
-7.32
-5.67
-3.79
-1.59
0.93
3.64
6.45
9.25
12.00
14.68
17.27
19.79
22.26
24.69
27.03
29.17
30.88
31.94
32.14
31.44
29.96
27.98
25.81
23.67
21.67
19.72
17.68
15.39
12.83
10.04
7.17
4.31
1.49
-1.33
-4.22
-7.19
-10.18
-13.14
-16.01
-18.74
-21.23
-23.29
-24.65
-24.99
-24.04
-21.73
-18.18
-13.66
-8.58
-3.35
1.66
6.17
10.00
13.07
15.42
17.15
18.42
19.39
20.18
20.86
21.44
21.87
22.10
22.13
22.02
21.86
21.72
21.61
21.48
21.25
20.87
20.33
19.66
18.86
17.92
16.79
15.47
14.01
12.50
11.02
9.58
8.11
6.53
4.79
2.95
1.14
-0.50
-1.95
-3.27
-4.64
-6.16
-7.83
-9.52
-11.03
-12.26
-13.24
-14.18
-15.35
-17.00
-19.15
-21.62
-24.00
-25.81
-26.58
-26.02
-24.08
-20.92
-16.84
-12.24
-7.47
-2.83
1.47
5.31
8.61
11.36
13.58
15.34
16.74
17.84
18.71
19.36
19.78
19.97
19.95
19.78
19.51
19.20
18.88
18.50
18.04
17.43
16.66
15.77
14.84
13.93
13.10
12.33
11.54
10.67
9.69
8.61
7.52
6.47
5.47
4.45
3.25
1.74
-0.12
-2.28
-4.57
-6.77
-8.72
-10.36
-11.78
-13.13
-14.59
-16.25
-18.06
-19.88
-21.46
-22.53
-22.84
-22.19
-20.51
-17.82
-14.32
-10.34
-6.26
-2.43
0.93
3.78
6.19
8.23
9.92
11.19
11.96
12.20
11.97
11.41
10.68
9.91
9.20
8.59
8.12
7.77
7.50
7.21
6.79
6.16
5.36
4.51
3.77
3.23
2.88
2.60
2.27
1.82
1.31
0.81
0.37
-0.03
-0.57
-1.35
-2.44
-3.74
-5.07
-6.26
-7.24
-8.09
-8.95
-9.99
-11.31
-12.93
-14.78
-16.76
-18.74
-20.50
-21.74
-22.12
-21.39
-19.48
-16.51
-12.85
-8.93
-5.13
-1.66
1.43
4.18
6.66
8.86
10.72
12.18
13.25
14.01
14.60
15.15
15.74
16.37
17.00
17.61
18.20
18.83
19.50
20.16
20.70
20.97
20.84
20.29
19.35
18.12
16.75
15.35
14.02
12.85
11.83
10.97
10.19
9.42
8.59
7.68
6.68
5.57
4.34
2.98
1.54
0.11
-1.17
-2.27
-3.23
-4.21
-5.33
-6.64
-8.07
-9.48
-10.81
-12.09
-13.49
-15.14
-17.07
-19.14
-21.02
-22.40
-22.97
-22.58
-21.22
-19.00
-16.12
-12.85
-9.46
-6.17
-3.18
-0.56
1.65
3.49
5.04
6.38
7.62
8.81
9.95
10.95
11.68
12.07
12.09
11.86
11.54
11.25
11.07
10.98
10.89
10.75
10.53
10.23
9.87
9.40
8.81
8.07
7.26
6.45
5.74
5.16
4.66
4.20
3.69
3.10
2.41
1.57
0.59
-0.52
-1.69
-2.87
-3.99
-5.08
-6.23
-7.52
-8.93
-10.35
-11.59
-12.54
-13.26
-13.95
-14.87
-16.16
-17.78
-19.49
-20.96
-21.91
-22.12
-21.50
-20.06
-17.84
-15.03
-11.88
-8.73
-5.90
-3.57
-1.72
-0.20
1.22
2.67
4.16
5.58
6.79
7.74
8.41
8.92
9.34
9.72
10.03
10.25
10.38
10.48
10.62
10.80
10.97
10.98
10.71
10.11
9.25
8.30
7.41
6.72
6.20
5.75
5.25
4.58
3.73
2.76
1.75
0.74
-0.28
-1.37
-2.61
-4.06
-5.69
-7.39
-9.00
-10.37
-11.38
-12.09
-12.65
-13.27
-14.16
-15.43
-17.02
-18.71
-20.19
-21.15
-21.35
-20.65
-19.02
-16.56
-13.44
-9.92
-6.35
-3.06
-0.34
1.69
3.09
4.07
4.84
5.55
6.23
6.88
7.45
7.97
8.49
9.07
9.70
10.35
10.88
11.20
11.22
10.92
10.39
9.74
9.12
8.63
8.31
8.05
7.71
7.18
6.49
5.73
5.07
4.57
4.13
3.58
2.74
1.61
0.29
-1.00
-2.08
-2.90
-3.55
-4.21
-5.04
-6.12
-7.37
-8.63
-9.77
-10.73
-11.59
-12.51
-13.68
-15.20
-17.03
-19.01
-20.92
-22.52
-23.60
-23.96
-23.47
-22.02
-19.66
-16.54
-12.97
-9.28
-5.78
-2.67
-0.03
2.19
4.02
5.55
6.87
8.01
9.03
9.96
10.82
11.61
12.30
12.88
13.34
13.67
13.88
14.00
14.08
14.10
14.07
13.94
13.67
13.26
12.75
12.18
11.61
11.02
10.36
9.59
8.68
7.70
6.76
5.94
5.29
4.78
4.31
3.77
3.06
2.14
1.02
-0.26
-1.59
-2.89
-4.07
-5.11
-6.05
-6.92
-7.81
-8.78
-9.86
-11.13
-12.61
-14.27
-16.04
-17.78
-19.30
-20.42
-20.97
-20.84
-19.96
-18.33
-16.02
-13.18
-10.05
-6.86
-3.83
-1.10
1.28
3.29
4.97
6.37
7.55
8.54
9.37
10.03
10.53
10.88
11.18
11.54
12.04
12.66
13.26
13.63
13.60
13.13
12.34
11.43
10.56
9.81
9.14
8.41
7.53
6.48
5.30
4.08
2.87
1.70
0.61
-0.41
-1.37
-2.30
-3.25
-4.33
-5.58
-7.01
-8.55
-10.07
-11.43
-12.62
-13.66
-14.68
-15.87
-17.34
-19.16
-21.29
-23.54
-25.58
-26.96
-27.24
-26.15
-23.67
-20.10
-15.99
-11.91
-8.31
-5.38
-3.00
-0.91
1.18
3.39
5.68
7.88
9.81
11.36
12.55
13.49
14.32
15.09
15.82
16.46
16.99
17.43
17.79
18.09
18.31
18.37
18.17
17.68
16.91
15.96
14.96
13.98
13.02
12.01
10.82
9.42
7.86
6.28
4.84
3.65
2.65
1.72
0.72
-0.49
-1.94
-3.57
-5.31
-7.05
-8.67
-10.10
-11.35
-12.49
-13.69
-15.11
-16.86
-18.92
-21.14
-23.28
-25.04
-26.09
-26.16
-25.10
-22.88
-19.73
-15.97
-12.01
-8.17
-4.62
-1.37
1.62
4.37
6.81
8.86
10.48
11.73
12.73
13.61
14.42
15.12
15.62
15.84
15.80
15.58
15.33
15.12
14.97
14.81
14.55
14.11
13.47
12.64
11.62
10.45
9.17
7.89
6.71
5.70
4.86
4.06
3.09
1.78
0.11
-1.78
-3.61
-5.13
-6.22
-6.98
-7.68
-8.58
-9.81
-11.28
-12.79
-14.13
-15.22
-16.14
-17.10
-18.29
-19.82
-21.67
-23.66
-25.53
-26.92
-27.42
-26.69
-24.54
-21.08
-16.69
-11.90
-7.24
-3.04
0.65
3.92
6.85
9.42
11.49
12.94
13.83
14.37
14.85
15.50
16.33
17.17
17.73
17.82
17.45
16.79
16.10
15.61
15.36
15.24
15.06
14.62
13.82
12.64
11.19
9.58
7.94
6.36
4.87
3.46
2.12
0.81
-0.49
-1.80
-3.11
-4.40
-5.64
-6.83
-8.02
-9.29
-10.78
-12.61
-14.81
-17.26
-19.67
-21.62
-22.67
-22.51
-21.06
-18.46
-15.03
-11.16
-7.20
-3.39
0.14
3.37
6.31
9.02
11.50
13.70
15.56
17.00
17.99
18.63
19.04
19.36
19.64
19.87
19.96
19.91
19.76
19.62
19.58
19.64
19.66
19.43
18.77
17.64
16.12
14.44
12.81
11.36
10.09
8.86
7.53
5.98
4.22
2.41
0.73
-0.62
-1.62
-2.34
-3.00
-3.84
-5.04
-6.68
-8.69
-10.91
-13.11
-15.13
-16.86
-18.32
-19.60
-20.87
-22.31
-24.09
-26.32
-28.94
-31.75
-34.35
-36.23
-36.88
-35.99
-33.57
-29.98
-25.84
-21.78
-18.28
-15.45
-13.17
-11.15
-9.17
-7.17
-5.28
-3.70
-2.55
-1.87
-1.49
-1.20
-0.74
0.10
1.45
3.35
5.76
8.63
11.89
15.46
19.21
22.97
26.51
29.60
32.12
34.01
35.30
36.06
36.32
36.03
35.11
33.53
31.34
28.74
25.96
23.23
20.66
18.31
16.15
14.11
12.17
10.29
8.42
6.50
4.46
2.28
0.04
-2.15
-4.20
-6.09
-7.92
-9.85
-12.06
-14.55
-17.19
-19.74
-21.90
-23.38
-23.94
-23.45
-21.85
-19.25
-15.92
-12.26
-8.65
-5.40
-2.60
-0.20
1.94
3.91
5.72
7.32
8.64
9.69
10.53
11.24
11.84
12.31
12.57
12.63
12.59
12.61
12.80
13.18
13.57
13.74
13.48
12.76
11.70
10.55
9.50
8.61
7.79
6.88
5.77
4.48
3.14
1.91
0.87
-0.01
-0.90
-1.97
-3.30
-4.85
-6.50
-8.08
-9.50
-10.78
-12.01
-13.29
-14.69
-16.26
-17.99
-19.89
-21.97
-24.11
-26.14
-27.72
-28.43
-27.95
-26.14
-23.15
-19.39
-15.40
-11.63
-8.35
-5.57
-3.14
-0.90
1.25
3.24
4.97
6.30
7.19
7.69
7.94
8.08
8.31
8.74
9.46
10.49
11.76
13.14
14.50
15.70
16.63
17.23
17.47
17.30
16.77
15.91
14.86
13.74
12.69
11.82
11.11
10.43
9.61
8.50
7.08
5.44
3.82
2.38
1.22
0.25
-0.70
-1.80
-3.17
-4.76
-6.48
-8.19
-9.83
-11.39
-12.90
-14.46
-16.11
-17.95
-19.98
-22.16
-24.31
-26.09
-27.11
-27.06
-25.76
-23.28
-19.93
-16.09
-12.17
-8.49
-5.27
-2.58
-0.45
1.19
2.46
3.49
4.44
5.37
6.33
7.27
8.17
9.03
9.95
11.02
12.32
13.84
15.47
17.06
18.44
19.51
20.20
20.52
20.52
20.20
19.55
18.58
17.31
15.85
14.34
12.96
11.79
10.88
10.16
9.56
9.01
8.48
8.00
7.58
7.21
6.84
6.41
5.83
5.03
4.00
2.75
1.33
-0.16
-1.63
-3.09
-4.62
-6.36
-8.47
-11.00
-13.81
-16.60
-18.98
-20.56
-21.10
-20.58
-19.15
-17.04
-14.49
-11.67
-8.72
-5.82
-3.13
-0.84
0.99
2.40
3.55
4.59
5.60
6.51
7.18
7.55
7.67
7.70
7.86
8.25
8.82
9.41
9.79
9.81
9.47
8.88
8.23
7.69
7.30
7.00
6.62
5.99
5.03
3.83
2.54
1.35
0.33
-0.57
-1.48
-2.50
-3.66
-4.87
-6.05
-7.11
-8.06
-8.96
-9.91
-10.96
-12.15
-13.47
-14.89
-16.43
-18.06
-19.75
-21.38
-22.79
-23.76
-24.04
-23.43
-21.82
-19.30
-16.07
-12.47
-8.82
-5.36
-2.22
0.60
3.13
5.39
7.35
8.94
10.14
10.96
11.50
11.87
12.20
12.53
12.85
13.10
13.20
13.16
13.03
12.95
13.03
13.27
13.52
13.50
12.93
11.71
9.97
8.10
6.53
5.56
5.20
5.17
5.09
4.62
3.68
2.41
1.06
-0.13
-1.10
-1.94
-2.84
-3.93
-5.28
-6.83
-8.47
-10.11
-11.69
-13.15
-14.46
-15.60
-16.61
-17.60
-18.72
-20.13
-21.84
-23.70
-25.34
-26.29
-26.13
-24.64
-21.89
-18.23
-14.12
-10.06
-6.37
-3.17
-0.43
1.98
4.14
6.05
7.69
9.02
10.07
10.93
11.68
12.41
13.14
13.85
14.48
14.99
15.35
15.58
15.70
15.73
15.65
15.44
15.06
14.49
13.74
12.86
11.94
11.05
10.21
9.40
8.61
7.79
6.95
6.08
5.15
4.14
3.03
1.84
0.61
-0.60
-1.75
-2.89
-4.07
-5.37
-6.77
-8.20
-9.53
-10.69
-11.74
-12.85
-14.17
-15.85
-17.85
-20.01
-22.14
-24.00
-25.39
-26.10
-25.96
-24.82
-22.70
-19.73
-16.19
-12.41
-8.66
-5.13
-1.92
0.95
3.45
5.60
7.41
8.97
10.35
11.65
12.87
14.00
14.98
15.73
16.23
16.52
16.73
17.00
17.45
18.03
18.61
18.92
18.77
18.10
17.02
15.73
14.45
13.27
12.18
11.08
9.93
8.72
7.53
6.42
5.39
4.36
3.25
2.00
0.61
-0.83
-2.23
-3.54
-4.73
-5.86
-6.99
-8.14
-9.32
-10.49
-11.61
-12.67
-13.71
-14.82
-16.11
-17.63
-19.35
-21.10
-22.63
-23.59
-23.70
-22.78
-20.86
-18.11
-14.79
-11.21
-7.57
-4.05
-0.75
2.25
4.91
7.24
9.25
10.96
12.36
13.41
14.07
14.34
14.29
14.08
13.88
13.78
13.82
13.92
13.96
13.83
13.51
13.01
12.41
11.78
11.16
10.55
9.90
9.19
8.37
7.46
6.47
5.40
4.28
3.15
2.08
1.18
0.50
0.01
-0.41
-0.94
-1.74
-2.85
-4.22
-5.73
-7.25
-8.69
-9.99
-11.15
-12.18
-13.17
-14.21
-15.45
-16.98
-18.83
-20.89
-22.99
-24.95
-26.58
-27.77
-28.37
-28.26
-27.31
-25.49
-22.96
-20.04
-17.10
-14.47
-12.25
-10.37
-8.67
-7.05
-5.51
-4.18
-3.21
-2.65
-2.48
-2.57
-2.76
-2.92
-2.89
-2.53
-1.71
-0.36
1.51
3.79
6.26
8.68
10.77
12.29
13.11
13.27
13.00
12.70
12.88
13.98
16.26
19.78
24.32
29.46
34.64
39.25
42.76
44.89
45.67
45.44
44.76
44.20
44.19
44.87
46.12
47.72
49.48
51.31
53.21
55.19
57.16
58.86
59.93
59.96
58.54
55.36
50.19
43.00
33.95
23.50
12.38
1.46
-8.48
-16.98
-24.03
-29.97
-35.28
-40.25
-44.81
-48.57
-51.11
-52.18
-51.90
-50.69
-49.01
-47.16
-45.14
-42.81
-40.04
-36.94
-33.79
-30.93
-28.55
-26.58
-24.78
-22.94
-20.98
-19.02
-17.24
-15.73
-14.45
-13.24
-11.97
-10.60
-9.23
-8.04
-7.13
-6.53
-6.18
-6.02
-6.01
-6.15
-6.46
-6.90
-7.41
-7.87
-8.22
-8.44
-8.58
-8.77
-9.14
-9.77
-10.69
-11.82
-13.04
-14.23
-15.29
-16.19
-16.86
-17.23
-17.14
-16.48
-15.20
-13.41
-11.35
-9.25
-7.32
-5.62
-4.14
-2.86
-1.77
-0.86
-0.08
0.68
1.55
2.64
3.88
5.13
6.16
6.84
7.16
7.27
7.37
7.61
8.04
8.57
9.08
9.42
9.54
9.40
9.07
8.61
8.09
7.56
7.07
6.60
6.12
5.60
5.04
4.48
3.93
3.43
2.98
2.55
2.07
1.52
0.89
0.18
-0.58
-1.40
-2.30
-3.31
-4.46
-5.73
-7.05
-8.37
-9.61
-10.74
-11.79
-12.78
-13.77
-14.81
-15.93
-17.07
-18.09
-18.79
-18.95
-18.40
-17.08
-15.08
-12.56
-9.74
-6.78
-3.81
-0.94
1.73
4.12
6.22
8.08
9.81
11.51
13.20
14.80
16.16
17.17
17.82
18.23
18.59
19.04
19.67
20.42
21.19
21.85
22.28
22.37
22.02
21.18
19.82
18.00
15.80
13.34
10.70
7.91
5.01
2.03
-0.92
-3.72
-6.23
-8.40
-10.27
-11.93
-13.54
-15.18
-16.83
-18.36
-19.63
-20.54
-21.12
-21.51
-21.89
-22.46
-23.29
-24.38
-25.66
-27.01
-28.36
-29.59
-30.58
-31.13
-31.08
-30.31
-28.81
-26.67
-24.06
-21.16
-18.12
-14.99
-11.78
-8.49
-5.14
-1.82
1.34
4.24
6.80
9.06
11.10
12.98
14.73
16.28
17.52
18.37
18.79
18.86
18.73
18.52
18.30
18.07
17.77
17.32
16.68
15.87
14.95
14.03
13.19
12.47
11.80
11.06
10.11
8.85
7.30
5.59
3.89
2.35
1.05
-0.04
-1.02
-1.98
-3.00
-4.10
-5.30
-6.61
-8.06
-9.70
-11.51
-13.49
-15.57
-17.74
-20.00
-22.41
-25.09
-28.09
-31.39
-34.80
-38.02
-40.63
-42.25
-42.61
-41.61
-39.39
-36.25
-32.60
-28.80
-25.07
-21.42
-17.73
-13.81
-9.55
-4.92
0.00
5.13
10.44
15.89
21.45
26.93
32.08
36.58
40.22
42.91
44.72
45.83
46.41
46.55
46.28
45.55
44.38
42.80
40.93
38.89
36.79
34.67
32.53
30.34
28.02
25.51
22.77
19.81
16.66
13.43
10.22
7.16
4.31
1.64
-0.90
-3.41
-5.97
-8.64
-11.48
-14.48
-17.54
-20.38
-22.56
-23.62
-23.25
-21.46
-18.59
-15.16
-11.67
-8.39
-5.35
-2.43
0.45
3.21
5.60
7.29
8.07
7.94
7.12
6.00
4.91
4.12
3.74
3.74
4.04
4.53
5.12
5.74
6.31
6.84
7.35
7.90
8.50
9.10
9.56
9.69
9.37
8.54
7.27
5.71
4.03
2.39
0.91
-0.32
-1.25
-1.92
-2.42
-2.92
-3.58
-4.52
-5.75
-7.19
-8.75
-10.36
-12.05
-13.87
-15.88
-17.99
-20.01
-21.66
-22.63
-22.74
-21.93
-20.28
-17.94
-15.04
-11.68
-7.99
-4.07
-0.13
3.62
6.96
9.74
11.89
13.43
14.43
15.01
15.28
15.33
15.25
15.07
14.83
14.55
14.33
14.28
14.46
14.84
15.22
15.32
14.90
13.89
12.45
10.88
9.48
8.38
7.47
6.49
5.17
3.37
1.15
-1.28
-3.74
-6.12
-8.48
-10.90
-13.47
-16.21
-19.00
-21.66
-24.00
-25.80
-26.93
-27.31
-26.95
-25.91
-24.32
-22.32
-20.02
-17.53
-14.90
-12.22
-9.56
-7.04
-4.77
-2.79
-1.14
0.21
1.26
2.02
2.45
2.60
2.54
2.44
2.47
2.71
3.20
3.86
4.63
5.49
6.49
7.62
8.82
9.96
10.85
11.37
11.49
11.26
10.80
10.15
9.29
8.13
6.62
4.77
2.67
0.45
-1.75
-3.84
-5.81
-7.72
-9.67
-11.80
-14.19
-16.77
-19.35
-21.54
-22.93
-23.15
-21.98
-19.45
-15.79
-11.40
-6.75
-2.22
1.89
5.42
8.32
10.57
12.18
13.21
13.76
14.00
14.17
14.43
14.85
15.37
15.86
16.22
16.45
16.60
16.74
16.83
16.80
16.51
15.88
14.94
13.80
12.60
11.49
10.52
9.67
8.87
8.01
7.02
5.87
4.60
3.31
2.13
1.11
0.26
-0.46
-1.14
-1.87
-2.72
-3.84
-5.41
-7.59
-10.47
-13.90
-17.46
-20.54
-22.46
-22.78
-21.35
-18.43
-14.49
-10.02
-5.39
-0.78
3.77
8.24
12.51
16.37
19.59
21.99
23.56
24.40
24.69
24.60
24.24
23.73
23.20
22.83
22.81
23.23
24.01
24.90
25.56
25.73
25.30
24.36
23.07
21.56
19.87
17.94
15.74
13.34
10.95
8.86
7.33
6.45
6.06
5.82
5.30
4.11
2.03
-0.92
-4.54
-8.45
-12.20
-15.36
-17.56
-18.57
-18.32
-16.88
-14.52
-11.56
-8.36
-5.21
-2.35
0.04
1.79
2.80
3.03
2.57
1.63
0.49
-0.60
-1.45
-2.01
-2.31
-2.39
-2.26
-1.87
-1.20
-0.35
0.49
1.02
1.05
0.57
-0.23
-0.97
-1.37
-1.35
-1.12
-1.05
-1.49
-2.52
-3.98
-5.56
-6.94
-8.04
-8.99
-10.03
-11.34
-12.95
-14.67
-16.27
-17.60
-18.64
-19.46
-20.13
-20.56
-20.47
-19.48
-17.23
-13.54
-8.50
-2.39
4.37
11.37
18.23
24.60
30.12
34.43
37.21
38.28
37.69
35.76
33.00
29.96
27.03
24.36
21.83
19.23
16.37
13.27
10.10
7.08
4.36
1.90
-0.42
-2.74
-5.03
-7.09
-8.66
-9.53
-9.71
-9.43
-9.04
-8.89
-9.16
-9.77
-10.46
-10.81
-10.44
-9.08
-6.64
-3.26
0.80
5.13
9.29
12.86
15.51
16.97
17.16
16.09
13.91
10.88
7.33
3.69
0.37
-2.28
-4.07
-4.98
-5.18
-4.89
-4.28
-3.40
-2.21
-0.65
1.16
2.95
4.31
4.88
4.47
3.19
1.33
-0.73
-2.68
-4.41
-5.90
-7.23
-8.44
-9.51
-10.34
-10.86
-11.04
-10.94
-10.70
-10.52
-10.57
-10.92
-11.53
-12.27
-12.99
-13.58
-14.00
-14.22
-14.16
-13.63
-12.45
-10.47
-7.77
-4.60
-1.40
1.48
3.84
5.70
7.24
8.67
10.14
11.63
13.06
14.27
15.22
15.86
16.22
16.29
16.02
15.34
14.22
12.67
10.73
8.38
5.57
2.25
-1.59
-5.79
-10.01
-13.86
-17.05
-19.52
-21.45
-23.20
-25.07
-27.20
-29.55
-31.95
-34.16
-36.03
-37.39
-38.17
-38.30
-37.83
-36.92
-35.76
-34.56
-33.42
-32.30
-31.02
-29.40
-27.29
-24.66
-21.63
-18.39
-15.18
-12.22
-9.67
-7.57
-5.93
-4.64
-3.60
-2.72
-1.94
-1.19
-0.40
0.46
1.40
2.36
3.23
3.94
4.50
5.06
5.80
6.85
8.26
9.94
11.77
13.63
15.42
17.06
18.50
19.65
20.45
20.86
20.86
20.48
19.73
18.67
17.33
15.78
14.10
12.36
10.60
8.91
7.39
6.16
5.36
5.04
5.18
5.65
6.31
7.02
7.72
8.35
8.83
9.06
8.93
8.37
7.42
6.23
4.95
3.74
2.69
1.78
0.99
0.29
-0.32
-0.81
-1.13
-1.26
-1.24
-1.14
-1.05
-1.03
-1.12
-1.34
-1.69
-2.17
-2.75
-3.38
-4.00
-4.56
-5.08
-5.61
-6.25
-6.99
-7.76
-8.43
-8.90
-9.16
-9.27
-9.33
-9.30
-9.05
-8.39
-7.19
-5.46
-3.37
-1.17
0.90
2.67
4.08
5.10
5.81
6.27
6.57
6.74
6.75
6.52
5.98
5.12
4.05
2.92
1.85
0.87
-0.08
-1.05
-2.06
-3.06
-3.91
-4.50
-4.83
-5.00
-5.22
-5.66
-6.42
-7.46
-8.66
-9.85
-10.92
-11.87
-12.78
-13.71
-14.74
-15.83
-16.90
-17.85
-18.61
-19.14
-19.40
-19.35
-18.88
-17.91
-16.38
-14.35
-11.95
-9.38
-6.77
-4.22
-1.76
0.59
2.76
4.57
5.88
6.57
6.73
6.59
6.48
6.70
7.31
8.20
9.11
9.77
10.01
9.84
9.36
8.73
8.06
7.40
6.70
5.88
4.92
3.85
2.76
1.76
0.88
0.07
-0.78
-1.79
-3.02
-4.39
-5.76
-7.00
-8.02
-8.88
-9.64
-10.32
-10.86
-11.05
-10.71
-9.66
-7.92
-5.60
-2.98
-0.36
1.96
3.79
5.07
5.85
6.22
6.29
6.12
5.72
5.10
4.37
3.65
3.11
2.79
2.66
2.56
2.31
1.82
1.12
0.35
-0.35
-0.85
-1.16
-1.33
-1.46
-1.59
-1.73
-1.86
-1.94
-1.96
-1.93
-1.92
-1.95
-2.05
-2.18
-2.29
-2.37
-2.44
-2.59
-2.87
-3.26
-3.62
-3.73
-3.37
-2.47
-1.15
0.32
1.64
2.60
3.19
3.55
3.85
4.21
4.63
4.97
5.08
4.83
4.23
3.36
2.40
1.49
0.77
0.27
-0.02
-0.14
-0.17
-0.15
-0.14
-0.19
-0.34
-0.68
-1.29
-2.22
-3.44
-4.87
-6.36
-7.72
-8.85
-9.70
-10.34
-10.90
-11.51
-12.27
-13.21
-14.25
-15.27
-16.10
-16.55
-16.49
-15.84
-14.59
-12.78
-10.53
-7.96
-5.21
-2.43
0.26
2.75
4.95
6.84
8.41
9.65
10.55
11.11
11.33
11.26
11.00
10.66
10.35
10.13
9.98
9.86
9.72
9.53
9.26
8.88
8.36
7.64
6.72
5.67
4.59
3.60
2.75
2.00
1.26
0.42
-0.58
-1.74
-2.99
-4.26
-5.50
-6.68
-7.82
-9.01
-10.35
-11.93
-13.76
-15.72
-17.57
-18.98
-19.65
-19.39
-18.18
-16.12
-13.41
-10.30
-7.03
-3.83
-0.90
1.60
3.58
5.04
6.06
6.75
7.25
7.66
8.05
8.43
8.81
9.17
9.47
9.75
10.04
10.41
10.91
11.50
12.08
12.50
12.66
12.49
11.99
11.20
10.17
8.97
7.64
6.20
4.66
2.98
1.16
-0.83
-2.92
-4.99
-6.90
-8.48
-9.60
-10.14
-10.05
-9.34
-8.05
-6.29
-4.21
-1.95
0.37
2.62
4.69
6.44
7.76
8.55
8.78
8.50
7.81
6.86
5.79
4.72
3.77
2.96
2.29
1.71
1.16
0.56
-0.17
-1.08
-2.16
-3.33
-4.51
-5.58
-6.47
-7.16
-7.70
-8.16
-8.60
-9.06
-9.57
-10.22
-11.12
-12.35
-13.85
-15.41
-16.60
-16.99
-16.24
-14.27
-11.25
-7.55
-3.54
0.54
4.65
8.82
13.15
17.55
21.83
25.71
28.98
31.59
33.66
35.39
36.99
38.58
40.13
41.53
42.63
43.31
43.50
43.18
42.38
41.11
39.41
37.29
34.80
31.93
28.72
25.20
21.45
17.62
13.86
10.35
7.14
4.19
1.34
-1.60
-4.74
-8.10
-11.60
-15.09
-18.47
-21.65
-24.61
-27.36
-29.87
-32.11
-33.97
-35.33
-36.00
-35.79
-34.58
-32.35
-29.21
-25.45
-21.41
-17.39
-13.60
-10.06
-6.71
-3.47
-0.34
2.59
5.16
7.23
8.81
10.04
11.13
12.26
13.42
14.41
14.93
14.74
13.81
12.40
10.89
9.65
8.85
8.36
7.86
6.99
5.56
3.56
1.20
-1.29
-3.75
-6.12
-8.42
-10.68
-12.91
-15.04
-17.03
-18.85
-20.55
-22.17
-23.64
-24.75
-25.16
-24.56
-22.78
-19.95
-16.45
-12.75
-9.25
-6.14
-3.41
-0.93
1.37
3.46
5.19
6.47
7.34
7.97
8.55
9.22
9.94
10.61
11.10
11.35
11.40
11.34
11.23
11.07
10.80
10.31
9.55
8.52
7.29
5.95
4.61
3.35
2.16
1.01
-0.17
-1.47
-2.94
-4.62
-6.51
-8.62
-10.89
-13.16
-15.19
-16.65
-17.23
-16.74
-15.18
-12.72
-9.68
-6.47
-3.46
-0.90
1.11
2.64
3.90
5.12
6.44
7.90
9.35
10.59
11.44
11.80
11.72
11.35
10.91
10.58
10.47
10.57
10.78
10.96
10.96
10.67
10.07
9.20
8.07
6.78
5.37
3.96
2.65
1.53
0.64
-0.12
-0.91
-1.89
-3.13
-4.59
-6.11
-7.51
-8.68
-9.62
-10.44
-11.31
-12.41
-13.84
-15.60
-17.49
-19.22
-20.43
-20.77
-20.07
-18.33
-15.79
-12.77
-9.59
-6.47
-3.47
-0.59
2.20
4.83
7.18
9.05
10.37
11.15
11.53
11.72
11.86
12.00
12.12
12.20
12.23
12.23
12.24
12.21
12.08
11.77
11.27
10.61
9.86
9.09
8.31
7.49
6.57
5.54
4.42
3.30
2.26
1.35
0.56
-0.20
-1.02
-2.00
-3.10
-4.22
-5.21
-6.00
-6.60
-7.14
-7.72
-8.45
-9.34
-10.34
-11.38
-12.39
-13.22
-13.69
-13.57
-12.73
-11.13
-8.95
-6.46
-3.95
-1.59
0.57
2.60
4.50
6.24
7.67
8.66
9.11
9.06
8.63
8.03
7.43
6.95
6.64
6.49
6.49
6.61
6.81
7.01
7.11
6.94
6.43
5.56
4.46
3.29
2.20
1.22
0.34
-0.56
-1.54
-2.60
-3.69
-4.75
-5.76
-6.73
-7.68
-8.66
-9.67
-10.74
-11.91
-13.22
-14.65
-16.02
-17.07
-17.45
-16.88
-15.22
-12.54
-9.12
-5.32
-1.51
2.01
5.09
7.70
9.91
11.78
13.36
14.64
15.61
16.27
16.66
16.85
16.91
16.86
16.71
16.47
16.16
15.81
15.48
15.19
14.93
14.66
14.32
13.80
12.99
11.82
10.28
8.45
6.47
4.50
2.63
0.89
-0.73
-2.27
-3.71
-5.01
-6.12
-7.09
-8.03
-9.12
-10.50
-12.22
-14.16
-16.16
-17.99
-19.48
-20.50
-20.96
-20.79
-19.96
-18.45
-16.31
-13.67
-10.73
-7.67
-4.65
-1.73
1.04
3.62
5.93
7.85
9.30
10.28
10.86
11.22
11.47
11.67
11.82
11.88
11.86
11.82
11.85
12.01
12.22
12.35
12.23
11.76
10.94
9.89
8.75
7.63
6.61
5.72
4.95
4.31
3.77
3.29
2.79
2.12
1.15
-0.19
-1.83
-3.58
-5.15
-6.34
-7.09
-7.53
-7.90
-8.45
-9.32
-10.49
-11.82
-13.09
-14.07
-14.52
-14.27
-13.19
-11.29
-8.73
-5.78
-2.76
0.06
2.55
4.69
6.54
8.13
9.44
10.40
10.98
11.17
11.09
10.88
10.69
10.59
10.60
10.64
10.66
10.64
10.58
10.50
10.42
10.28
10.03
9.63
9.11
8.49
7.79
6.97
5.98
4.82
3.56
2.32
1.21
0.26
-0.65
-1.64
-2.79
-4.04
-5.22
-6.16
-6.76
-7.08
-7.30
-7.60
-8.12
-8.91
-9.93
-11.14
-12.45
-13.69
-14.68
-15.17
-14.94
-13.90
-12.09
-9.75
-7.20
-4.79
-2.78
-1.25
-0.15
0.67
1.35
1.94
2.41
2.74
2.94
3.08
3.26
3.51
3.77
3.91
3.78
3.39
2.83
2.28
1.85
1.56
1.33
1.06
0.70
0.29
-0.14
-0.57
-1.05
-1.69
-2.56
-3.63
-4.80
-5.90
-6.84
-7.65
-8.45
-9.36
-10.44
-11.56
-12.48
-12.98
-12.92
-12.30
-11.26
-9.87
-8.19
-6.18
-3.85
-1.34
1.10
3.14
4.55
5.31
5.55
5.55
5.56
5.71
5.96
6.19
6.27
6.11
5.76
5.27
4.78
4.36
4.07
3.91
3.80
3.64
3.28
2.66
1.76
0.67
-0.52
-1.68
-2.77
-3.79
-4.78
-5.74
-6.66
-7.52
-8.35
-9.23
-10.28
-11.55
-12.94
-14.19
-14.96
-14.94
-13.98
-12.16
-9.76
-7.09
-4.44
-1.94
0.37
2.47
4.37
6.01
7.33
8.29
8.93
9.33
9.54
9.62
9.59
9.48
9.32
9.15
8.97
8.77
8.51
8.18
7.75
7.20
6.55
5.78
4.93
4.06
3.22
2.46
1.75
1.03
0.21
-0.78
-1.95
-3.27
-4.66
-6.06
-7.35
-8.50
-9.48
-10.34
-11.20
-12.11
-13.12
-14.16
-15.11
-15.79
-16.02
-15.62
-14.50
-12.65
-10.18
-7.35
-4.47
-1.87
0.27
1.93
3.22
4.30
5.28
6.18
6.92
7.43
7.71
7.86
8.01
8.23
8.52
8.77
8.86
8.77
8.55
8.32
8.16
8.08
7.96
7.66
7.11
6.32
5.42
4.54
3.78
3.19
2.69
2.15
1.46
0.53
-0.65
-1.96
-3.23
-4.27
-4.99
-5.42
-5.73
-6.11
-6.71
-7.60
-8.78
-10.17
-11.66
-13.09
-14.28
-15.02
-15.17
-14.63
-13.41
-11.61
-9.32
-6.66
-3.74
-0.73
2.20
4.86
7.08
8.81
10.09
11.03
11.78
12.50
13.27
14.11
14.97
15.72
16.22
16.33
16.02
15.31
14.29
13.11
11.91
10.80
9.89
9.18
8.61
8.04
7.33
6.38
5.16
3.72
2.16
0.59
-0.94
-2.37
-3.68
-4.85
-5.86
-6.74
-7.50
-8.18
-8.83
-9.46
-10.08
-10.73
-11.44
-12.28
-13.28
-14.39
-15.47
-16.31
-16.69
-16.44
-15.50
-13.93
-11.88
-9.56
-7.14
-4.80
-2.64
-0.75
0.84
2.18
3.35
4.42
5.44
6.37
7.11
7.55
7.67
7.51
7.22
6.98
6.86
6.90
7.02
7.11
7.11
7.04
6.89
6.66
6.29
5.71
4.90
3.88
2.77
1.69
0.75
-0.01
-0.60
-1.12
-1.70
-2.42
-3.35
-4.45
-5.63
-6.79
-7.89
-8.96
-10.06
-11.23
-12.36
-13.24
-13.57
-13.13
-11.86
-9.93
-7.62
-5.26
-3.04
-1.06
0.70
2.28
3.69
4.86
5.74
6.28
6.52
6.54
6.47
6.38
6.31
6.27
6.30
6.45
6.76
7.22
7.68
7.93
7.75
7.07
5.96
4.68
3.48
2.54
1.88
1.42
0.99
0.50
-0.07
-0.69
-1.31
-1.96
-2.69
-3.58
-4.66
-5.87
-7.07
-8.19
-9.16
-10.05
-10.93
-11.84
-12.67
-13.23
-13.25
-12.55
-11.07
-8.98
-6.55
-4.07
-1.77
0.24
1.96
3.41
4.66
5.71
6.59
7.28
7.82
8.22
8.53
8.76
8.90
8.96
8.89
8.71
8.45
8.17
7.94
7.80
7.72
7.59
7.31
6.78
6.02
5.11
4.19
3.38
2.69
2.06
1.40
0.63
-0.25
-1.18
-2.11
-2.99
-3.80
-4.56
-5.27
-5.90
-6.47
-7.03
-7.70
-8.63
-9.91
-11.46
-13.01
-14.17
-14.56
-13.89
-12.13
-9.46
-6.23
-2.86
0.28
2.94
5.04
6.61
7.80
8.80
9.76
10.78
11.88
12.99
14.05
14.94
15.54
15.77
15.59
15.06
14.32
13.56
12.88
12.31
11.73
10.99
9.95
8.58
6.92
5.07
3.11
1.09
-0.91
-2.84
-4.59
-6.13
-7.49
-8.81
-10.22
-11.83
-13.63
-15.50
-17.28
-18.82
-20.07
-21.04
-21.81
-22.44
-22.99
-23.48
-23.92
-24.28
-24.47
-24.39
-23.94
-23.05
-21.67
-19.82
-17.52
-14.80
-11.71
-8.36
-4.92
-1.65
1.24
3.61
5.45
6.89
8.08
9.15
10.17
11.15
12.12
13.16
14.30
15.56
16.85
18.02
18.91
19.40
19.47
19.19
18.67
18.02
17.26
16.34
15.19
13.71
11.89
9.79
7.53
5.26
3.08
1.00
-1.05
-3.19
-5.50
-7.94
-10.41
-12.72
-14.70
-16.24
-17.31
-17.89
-18.00
-17.60
-16.66
-15.21
-13.35
-11.29
-9.23
-7.30
-5.46
-3.59
-1.52
0.83
3.37
5.91
8.26
10.29
12.00
13.50
14.91
16.35
17.80
19.15
20.20
20.75
20.76
20.33
19.72
19.20
18.93
18.88
18.86
18.65
18.15
17.38
16.43
15.39
14.22
12.82
11.10
9.12
7.00
4.91
2.93
1.00
-0.99
-3.14
-5.44
-7.71
-9.67
-11.05
-11.64
-11.39
-10.39
-8.83
-6.92
-4.88
-2.88
-1.09
0.38
1.43
2.09
2.42
2.61
2.84
3.29
4.02
4.97
6.03
7.03
7.85
8.41
8.70
8.74
8.60
8.39
8.22
8.18
8.25
8.36
8.37
8.17
7.71
6.99
6.06
4.98
3.81
2.62
1.46
0.40
-0.55
-1.41
-2.29
-3.32
-4.61
-6.20
-8.04
-9.98
-11.82
-13.40
-14.63
-15.54
-16.29
-17.05
-17.94
-18.97
-19.98
-20.78
-21.21
-21.22
-20.87
-20.28
-19.52
-18.60
-17.45
-16.03
-14.34
-12.48
-10.58
-8.79
-7.21
-5.84
-4.70
-3.73
-2.89
-2.13
-1.43
-0.77
-0.16
0.42
0.97
1.46
1.82
1.98
1.90
1.58
1.12
0.65
0.28
0.02
-0.20
-0.50
-0.98
-1.67
-2.49
-3.33
-4.05
-4.62
-5.02
-5.31
-5.57
-5.88
-6.32
-6.95
-7.83
-8.96
-10.29
-11.65
-12.79
-13.44
-13.37
-12.51
-10.99
-9.06
-7.04
-5.17
-3.52
-2.05
-0.62
0.86
2.39
3.89
5.22
6.31
7.18
7.90
8.56
9.17
9.67
9.99
10.11
10.10
10.08
10.13
10.29
10.51
10.68
10.70
10.54
10.20
9.73
9.15
8.47
7.69
6.84
5.98
5.23
4.63
4.15
3.70
3.12
2.37
1.51
0.69
0.12
-0.14
-0.16
-0.12
-0.20
-0.46
-0.81
-1.15
-1.39
-1.57
-1.77
-2.07
-2.44
-2.77
-2.95
-2.92
-2.72
-2.49
-2.36
-2.36
-2.45
-2.48
-2.29
-1.85
-1.19
-0.47
0.16
0.65
1.04
1.47
2.01
2.64
3.24
3.64
3.74
3.54
3.13
2.61
2.05
1.41
0.67
-0.16
-0.99
-1.75
-2.36
-2.87
-3.36
-3.92
-4.58
-5.26
-5.91
-6.54
-7.22
-8.06
-9.12
-10.32
-11.50
-12.52
-13.35
-14.09
-14.89
-15.80
-16.68
-17.22
-17.08
-16.06
-14.19
-11.66
-8.78
-5.83
-3.03
-0.50
1.67
3.46
4.88
5.97
6.83
7.53
8.10
8.56
8.92
9.23
9.54
9.89
10.28
10.65
10.91
10.98
10.86
10.59
10.22
9.78
9.24
8.57
7.75
6.85
5.96
5.14
4.42
3.78
3.18
2.59
1.98
1.30
0.47
-0.55
-1.78
-3.13
-4.46
-5.62
-6.57
-7.35
-8.08
-8.90
-9.91
-11.10
-12.39
-13.62
-14.53
-14.88
-14.38
-12.90
-10.46
-7.33
-3.95
-0.78
1.82
3.74
5.07
6.08
7.00
7.99
9.03
10.00
10.75
11.23
11.46
11.51
11.48
11.38
11.17
10.82
10.37
9.92
9.60
9.49
9.50
9.43
9.04
8.22
7.05
5.77
4.65
3.85
3.33
2.89
2.33
1.53
0.51
-0.58
-1.65
-2.63
-3.61
-4.68
-5.91
-7.26
-8.63
-9.96
-11.21
-12.43
-13.59
-14.63
-15.35
-15.52
-14.97
-13.68
-11.79
-9.53
-7.13
-4.75
-2.45
-0.28
1.72
3.44
4.79
5.72
6.28
6.62
6.90
7.24
7.64
8.02
8.28
8.37
8.30
8.16
8.07
8.08
8.19
8.32
8.40
8.35
8.12
7.71
7.14
6.46
5.72
5.00
4.33
3.73
3.18
2.60
1.91
1.06
0.07
-1.00
-2.08
-3.11
-4.08
-4.99
-5.87
-6.73
-7.61
-8.58
-9.71
-11.05
-12.51
-13.90
-14.92
-15.32
-14.94
-13.80
-12.05
-9.89
-7.53
-5.11
-2.77
-0.63
1.21
2.68
3.79
4.64
5.34
6.01
6.69
7.34
7.93
8.38
8.66
8.73
8.59
8.30
7.95
7.64
7.44
7.34
7.27
7.11
6.80
6.33
5.76
5.18
4.61
4.01
3.29
2.39
1.31
0.14
-1.00
-2.03
-2.94
-3.78
-4.61
-5.47
-6.35
-7.21
-8.04
-8.83
-9.66
-10.64
-11.81
-13.17
-14.59
-15.87
-16.77
-17.05
-16.58
-15.35
-13.47
-11.10
-8.43
-5.60
-2.75
-0.05
2.34
4.26
5.66
6.59
7.23
7.78
8.39
9.04
9.60
9.94
9.94
9.66
9.23
8.84
8.60
8.54
8.60
8.63
8.52
8.18
7.60
6.81
5.91
4.95
3.98
3.00
1.94
0.76
-0.57
-2.01
-3.48
-4.90
-6.25
-7.58
-9.00
-10.56
-12.27
-13.98
-15.49
-16.59
-17.13
-17.07
-16.41
-15.26
-13.68
-11.75
-9.50
-7.03
-4.42
-1.84
0.57
2.72
4.56
6.10
7.39
8.41
9.15
9.59
9.77
9.80
9.81
9.93
10.19
10.53
10.83
10.98
10.95
10.76
10.44
10.04
9.56
8.93
8.11
7.03
5.73
4.26
2.75
1.29
-0.04
-1.23
-2.29
-3.27
-4.18
-5.04
-5.89
-6.83
-7.98
-9.48
-11.35
-13.49
-15.68
-17.59
-18.88
-19.31
-18.76
-17.29
-15.09
-12.44
-9.57
-6.66
-3.75
-0.84
2.06
4.86
7.41
9.52
11.11
12.19
12.92
13.46
13.99
14.53
15.08
15.56
15.89
16.05
16.07
16.01
15.90
15.75
15.52
15.16
14.65
13.98
13.17
12.23
11.17
10.02
8.83
7.69
6.69
5.82
5.01
4.12
3.00
1.57
-0.13
-1.98
-3.79
-5.43
-6.83
-8.02
-9.08
-10.10
-11.19
-12.43
-13.89
-15.58
-17.42
-19.18
-20.56
-21.19
-20.83
-19.41
-17.07
-14.13
-10.96
-7.86
-5.05
-2.59
-0.48
1.36
3.02
4.56
6.01
7.36
8.56
9.53
10.21
10.58
10.64
10.49
10.26
10.08
10.04
10.14
10.31
10.41
10.33
10.02
9.47
8.76
7.98
7.20
6.47
5.77
5.09
4.37
3.58
2.66
1.62
0.49
-0.64
-1.70
-2.68
-3.64
-4.67
-5.90
-7.38
-9.07
-10.88
-12.71
-14.49
-16.14
-17.53
-18.45
-18.65
-17.85
-15.96
-13.10
-9.61
-5.95
-2.56
0.36
2.77
4.82
6.65
8.33
9.85
11.14
12.13
12.82
13.25
13.52
13.68
13.77
13.76
13.64
13.38
13.00
12.57
12.16
11.83
11.60
11.44
11.21
10.78
10.05
9.01
7.75
6.45
5.29
4.39
3.74
3.22
2.65
1.88
0.83
-0.46
-1.92
-3.42
-4.90
-6.32
-7.69
-9.01
-10.33
-11.71
-13.22
-14.88
-16.62
-18.24
-19.42
-19.84
-19.27
-17.71
-15.35
-12.51
-9.52
-6.59
-3.79
-1.13
1.45
3.90
6.16
8.11
9.69
10.86
11.69
12.25
12.64
12.96
13.30
13.68
14.11
14.49
14.71
14.67
14.33
13.77
13.13
12.53
12.01
11.49
10.87
10.03
8.96
7.73
6.47
5.31
4.29
3.40
2.55
1.67
0.70
-0.35
-1.41
-2.46
-3.50
-4.58
-5.74
-6.99
-8.29
-9.60
-10.85
-12.06
-13.28
-14.59
-16.00
-17.38
-18.51
-19.10
-18.95
-17.95
-16.21
-13.93
-11.37
-8.73
-6.11
-3.57
-1.11
1.23
3.42
5.39
7.10
8.52
9.64
10.47
11.03
11.41
11.70
11.99
12.30
12.59
12.76
12.72
12.43
11.96
11.38
10.82
10.29
9.78
9.21
8.52
7.64
6.61
5.49
4.40
3.41
2.55
1.77
0.96
0.01
-1.12
-2.40
-3.73
-5.01
-6.21
-7.32
-8.39
-9.43
-10.42
-11.39
-12.40
-13.55
-14.93
-16.47
-17.95
-18.95
-19.09
-18.14
-16.13
-13.38
-10.32
-7.30
-4.53
-2.03
0.25
2.35
4.21
5.75
6.94
7.82
8.50
9.11
9.71
10.28
10.76
11.06
11.12
10.99
10.74
10.47
10.24
10.06
9.85
9.51
8.98
8.25
7.43
6.63
5.92
5.29
4.66
3.91
2.99
1.95
0.88
-0.11
-1.01
-1.89
-2.85
-3.99
-5.30
-6.66
-7.93
-9.01
-9.90
-10.75
-11.77
-13.14
-14.85
-16.71
-18.31
-19.24
-19.21
-18.16
-16.25
-13.78
-11.04
-8.23
-5.46
-2.78
-0.25
1.99
3.84
5.23
6.19
6.89
7.49
8.17
8.95
9.77
10.45
10.85
10.87
10.55
10.05
9.56
9.25
9.14
9.11
9.01
8.70
8.14
7.40
6.58
5.76
4.95
4.10
3.17
2.15
1.15
0.24
-0.52
-1.20
-1.95
-2.93
-4.19
-5.65
-7.12
-8.37
-9.30
-9.93
-10.45
-11.10
-12.04
-13.30
-14.80
-16.33
-17.67
-18.64
-19.07
-18.86
-17.98
-16.46
-14.41
-11.98
-9.33
-6.62
-3.97
-1.47
0.86
2.99
4.90
6.54
7.86
8.83
9.46
9.85
10.13
10.41
10.75
11.14
11.49
11.71
11.73
11.56
11.26
10.92
10.58
10.25
9.85
9.30
8.50
7.42
6.10
4.71
3.39
2.29
1.42
0.72
0.05
-0.74
-1.72
-2.89
-4.14
-5.34
-6.39
-7.24
-7.96
-8.65
-9.44
-10.45
-11.71
-13.21
-14.84
-16.41
-17.63
-18.22
-17.92
-16.64
-14.47
-11.67
-8.58
-5.50
-2.62
-0.01
2.30
4.27
5.88
7.10
8.01
8.69
9.28
9.84
10.37
10.80
11.04
11.09
10.96
10.74
10.48
10.21
9.95
9.68
9.43
9.22
9.06
8.86
8.52
7.88
6.87
5.54
4.05
2.63
1.40
0.39
-0.53
-1.52
-2.65
-3.86
-5.02
-6.03
-6.87
-7.67
-8.58
-9.68
-10.97
-12.39
-13.85
-15.30
-16.68
-17.91
-18.80
-19.09
-18.55
-17.10
-14.82
-11.99
-8.97
-6.03
-3.32
-0.85
1.44
3.64
5.77
7.75
9.49
10.90
11.94
12.65
13.15
13.54
13.86
14.11
14.18
14.02
13.62
13.09
12.59
12.26
12.11
12.02
11.81
11.32
10.48
9.33
8.01
6.66
5.44
4.42
3.58
2.89
2.22
1.50
0.66
-0.31
-1.39
-2.56
-3.82
-5.15
-6.49
-7.75
-8.82
-9.62
-10.20
-10.71
-11.35
-12.28
-13.55
-15.03
-16.54
-17.81
-18.61
-18.75
-18.13
-16.73
-14.64
-12.03
-9.10
-6.06
-3.07
-0.26
2.31
4.57
6.50
8.08
9.29
10.17
10.75
11.13
11.42
11.70
12.02
12.37
12.66
12.82
12.79
12.54
12.11
11.56
10.96
10.38
9.88
9.49
9.21
8.95
8.60
8.06
7.30
6.36
5.36
4.39
3.49
2.62
1.74
0.82
-0.14
-1.09
-2.05
-3.03
-4.08
-5.21
-6.39
-7.52
-8.54
-9.41
-10.21
-11.07
-12.18
-13.62
-15.28
-16.94
-18.21
-18.77
-18.43
-17.20
-15.28
-12.95
-10.44
-7.85
-5.26
-2.71
-0.31
1.79
3.48
4.73
5.60
6.26
6.81
7.33
7.85
8.36
8.84
9.28
9.63
9.83
9.84
9.70
9.46
9.22
9.04
8.88
8.68
8.36
7.88
7.23
6.46
5.59
4.66
3.68
2.70
1.71
0.69
-0.45
-1.76
-3.25
-4.83
-6.34
-7.64
-8.68
-9.57
-10.48
-11.58
-12.95
-14.50
-16.02
-17.25
-17.93
-17.91
-17.10
-15.54
-13.37
-10.78
-8.01
-5.27
-2.71
-0.39
1.70
3.62
5.40
7.00
8.32
9.22
9.65
9.68
9.53
9.46
9.66
10.17
10.85
11.47
11.81
11.81
11.53
11.14
10.77
10.46
10.12
9.60
8.82
7.76
6.54
5.35
4.34
3.54
2.89
2.26
1.53
0.67
-0.29
-1.27
-2.23
-3.19
-4.22
-5.33
-6.50
-7.66
-8.72
-9.68
-10.65
-11.79
-13.22
-14.92
-16.68
-18.20
-19.14
-19.25
-18.48
-16.91
-14.73
-12.17
-9.41
-6.62
-3.91
-1.34
1.04
3.17
5.00
6.47
7.60
8.45
9.15
9.81
10.46
10.98
11.24
11.18
10.87
10.53
10.35
10.45
10.71
10.93
10.87
10.47
9.81
9.07
8.41
7.90
7.47
6.97
6.30
5.43
4.43
3.43
2.52
1.76
1.11
0.47
-0.28
-1.21
-2.34
-3.56
-4.76
-5.86
-6.82
-7.74
-8.74
-9.96
-11.42
-13.08
-14.79
-16.37
-17.68
-18.57
-18.91
-18.58
-17.48
-15.57
-12.95
-9.86
-6.63
-3.61
-1.01
1.10
2.75
4.06
5.16
6.12
6.97
7.73
8.37
8.88
9.26
9.56
9.82
10.09
10.39
10.69
10.95
11.13
11.18
11.08
10.78
10.23
9.38
8.29
7.08
5.94
5.00
4.31
3.77
3.22
2.50
1.53
0.33
-1.05
-2.53
-4.01
-5.41
-6.64
-7.67
-8.53
-9.32
-10.22
-11.41
-12.91
-14.59
-16.15
-17.25
-17.62
-17.17
-16.01
-14.32
-12.30
-10.08
-7.67
-5.08
-2.40
0.23
2.60
4.53
5.96
6.97
7.74
8.42
9.10
9.77
10.35
10.73
10.89
10.85
10.68
10.48
10.33
10.27
10.27
10.29
10.22
10.01
9.57
8.91
8.04
7.04
6.00
5.00
4.10
3.28
2.52
1.75
0.92
-0.03
-1.13
-2.36
-3.69
-5.01
-6.24
-7.26
-8.08
-8.74
-9.42
-10.26
-11.39
-12.83
-14.47
-16.14
-17.60
-18.65
-19.06
-18.68
-17.44
-15.39
-12.70
-9.62
-6.44
-3.44
-0.77
1.52
3.45
5.09
6.51
7.76
8.85
9.80
10.59
11.21
11.64
11.89
11.98
11.96
11.91
11.87
11.87
11.92
11.98
12.01
11.92
11.65
11.16
10.41
9.44
8.35
7.25
6.25
5.42
4.73
4.11
3.46
2.75
1.97
1.18
0.43
-0.34
-1.21
-2.31
-3.71
-5.33
-7.00
-8.50
-9.68
-10.50
-11.11
-11.70
-12.49
-13.59
-15.01
-16.58
-18.04
-19.04
-19.25
-18.48
-16.74
-14.26
-11.37
-8.43
-5.65
-3.13
-0.79
1.42
3.49
5.36
6.87
7.94
8.61
9.00
9.30
9.66
10.08
10.46
10.68
10.67
10.47
10.22
10.05
10.01
10.02
9.97
9.75
9.32
8.76
8.16
7.58
7.02
6.42
5.72
4.90
3.99
3.09
2.26
1.54
0.90
0.21
-0.66
-1.78
-3.12
-4.51
-5.75
-6.75
-7.54
-8.32
-9.31
-10.61
-12.13
-13.57
-14.55
-14.77
-14.13
-12.70
-10.69
-8.37
-5.96
-3.63
-1.44
0.60
2.51
4.32
5.95
7.34
8.39
9.05
9.37
9.49
9.54
9.60
9.65
9.65
9.55
9.35
9.09
8.82
8.57
8.30
8.01
7.69
7.36
7.00
6.57
5.97
5.16
4.17
3.09
2.05
1.15
0.35
-0.41
-1.22
-2.11
-3.05
-3.95
-4.73
-5.39
-5.97
-6.58
-7.32
-8.24
-9.29
-10.41
-11.52
-12.59
-13.60
-14.56
-15.42
-16.06
-16.33
-16.09
-15.27
-13.87
-11.94
-9.56
-6.82
-3.86
-0.88
1.89
4.28
6.21
7.77
9.10
10.33
11.53
12.68
13.71
14.56
15.20
15.65
15.90
15.98
15.86
15.54
15.05
14.47
13.90
13.46
13.19
13.05
12.93
12.66
12.08
11.13
9.83
8.28
6.61
4.96
3.43
2.08
0.92
-0.07
-0.98
-1.85
-2.70
-3.49
-4.17
-4.75
-5.33
-6.01
-6.92
-8.01
-9.14
-10.08
-10.72
-11.11
-11.49
-12.16
-13.30
-14.85
-16.46
-17.69
-18.11
-17.54
-16.07
-14.00
-11.67
-9.34
-7.12
-5.01
-2.96
-0.98
0.89
2.53
3.87
4.85
5.50
5.85
5.99
6.03
6.07
6.20
6.44
6.73
7.00
7.14
7.05
6.72
6.20
5.57
4.96
4.47
4.15
3.95
3.78
3.51
3.06
2.41
1.62
0.81
0.07
-0.51
-0.93
-1.21
-1.43
-1.71
-2.15
-2.82
-3.73
-4.85
-6.08
-7.27
-8.32
-9.17
-9.85
-10.44
-11.07
-11.82
-12.71
-13.62
-14.35
-14.66
-14.36
-13.37
-11.75
-9.70
-7.47
-5.29
-3.32
-1.63
-0.19
1.07
2.21
3.25
4.18
5.02
5.78
6.49
7.16
7.78
8.30
8.65
8.79
8.73
8.51
8.21
7.91
7.68
7.51
7.33
7.04
6.57
5.90
5.08
4.25
3.51
2.91
2.41
1.95
1.44
0.86
0.23
-0.41
-1.05
-1.72
-2.45
-3.28
-4.16
-5.06
-5.88
-6.61
-7.25
-7.91
-8.70
-9.71
-10.96
-12.37
-13.77
-14.96
-15.75
-16.03
-15.74
-14.90
-13.56
-11.78
-9.65
-7.31
-4.92
-2.63
-0.57
1.21
2.71
3.96
5.01
5.87
6.58
7.17
7.65
8.01
8.21
8.20
7.96
7.55
7.06
6.60
6.24
6.02
5.95
6.01
6.14
6.23
6.21
5.95
5.45
4.76
3.99
3.29
2.72
2.29
1.91
1.52
1.05
0.50
-0.08
-0.62
-1.09
-1.51
-1.94
-2.49
-3.22
-4.13
-5.14
-6.10
-6.93
-7.59
-8.16
-8.78
-9.59
-10.67
-11.98
-13.36
-14.60
-15.44
-15.68
-15.21
-14.07
-12.41
-10.40
-8.21
-5.93
-3.59
-1.23
1.06
3.18
4.99
6.41
7.43
8.10
8.53
8.84
9.12
9.43
9.77
10.14
10.47
10.73
10.85
10.80
10.55
10.13
9.62
9.13
8.77
8.60
8.55
8.45
8.06
7.23
5.96
4.44
2.98
1.85
1.14
0.76
0.48
0.03
-0.70
-1.74
-2.96
-4.25
-5.51
-6.69
-7.77
-8.73
-9.55
-10.24
-10.84
-11.47
-12.22
-13.13
-14.11
-14.97
-15.46
-15.35
-14.52
-12.99
-10.93
-8.53
-6.00
-3.51
-1.16
0.97
2.82
4.34
5.49
6.32
6.88
7.26
7.54
7.75
7.87
7.89
7.84
7.75
7.68
7.67
7.68
7.66
7.56
7.31
6.91
6.37
5.70
4.94
4.10
3.19
2.25
1.34
0.46
-0.41
-1.37
-2.50
-3.83
-5.27
-6.69
-7.94
-8.97
-9.85
-10.75
-11.86
-13.26
-14.88
-16.50
-17.80
-18.50
-18.40
-17.48
-15.85
-13.75
-11.38
-8.93
-6.47
-4.02
-1.60
0.72
2.83
4.60
5.99
7.05
7.90
8.66
9.38
10.01
10.47
10.71
10.76
10.72
10.75
10.97
11.40
11.96
12.47
12.72
12.55
11.91
10.87
9.57
8.19
6.89
5.76
4.89
4.32
4.05
3.99
3.97
3.76
3.16
2.08
0.60
-1.06
-2.65
-3.99
-5.02
-5.84
-6.61
-7.51
-8.64
-10.06
-11.76
-13.69
-15.72
-17.64
-19.18
-20.01
-19.93
-18.85
-16.94
-14.50
-11.91
-9.43
-7.18
-5.09
-2.99
-0.72
1.78
4.39
6.91
9.14
10.89
12.13
12.93
13.45
13.81
14.11
14.33
14.43
14.36
14.16
13.91
13.74
13.68
13.68
13.56
13.07
12.09
10.64
8.94
7.33
6.11
5.38
5.04
4.81
4.44
3.81
2.98
2.10
1.32
0.63
-0.10
-1.05
-2.31
-3.85
-5.47
-6.96
-8.21
-9.20
-10.09
-11.05
-12.22
-13.64
-15.24
-16.79
-18.02
-18.65
-18.50
-17.52
-15.79
-13.53
-10.95
-8.26
-5.57
-2.95
-0.45
1.87
3.91
5.61
6.96
8.02
8.91
9.70
10.41
10.97
11.28
11.30
11.12
10.88
10.78
10.90
11.13
11.27
11.10
10.49
9.52
8.41
7.41
6.68
6.21
5.83
5.29
4.44
3.21
1.73
0.19
-1.27
-2.54
-3.64
-4.62
-5.56
-6.53
-7.58
-8.76
-10.14
-11.72
-13.36
-14.79
-15.62
-15.46
-14.10
-11.64
-8.44
-5.01
-1.83
0.80
2.86
4.50
5.94
7.32
8.63
9.79
10.65
11.13
11.23
11.07
10.78
10.48
10.22
9.99
9.77
9.55
9.37
9.28
9.27
9.28
9.18
8.81
8.09
7.05
5.83
4.64
3.67
3.00
2.54
2.16
1.67
0.97
0.03
-1.07
-2.23
-3.40
-4.52
-5.60
-6.65
-7.64
-8.54
-9.34
-10.07
-10.85
-11.82
-13.07
-14.54
-16.02
-17.18
-17.67
-17.29
-16.01
-14.01
-11.56
-8.92
-6.24
-3.59
-1.01
1.49
3.79
5.77
7.34
8.49
9.31
9.97
10.64
11.39
12.20
12.92
13.33
13.29
12.79
12.03
11.24
10.65
10.31
10.12
9.88
9.44
8.73
7.85
6.93
6.11
5.39
4.74
4.04
3.24
2.30
1.29
0.28
-0.64
-1.43
-2.09
-2.68
-3.31
-4.08
-5.06
-6.22
-7.46
-8.62
-9.60
-10.38
-11.02
-11.69
-12.53
-13.64
-15.05
-16.67
-18.35
-19.81
-20.73
-20.82
-19.90
-18.02
-15.42
-12.43
-9.43
-6.61
-4.03
-1.65
0.59
2.69
4.58
6.21
7.60
8.78
9.84
10.79
11.59
12.13
12.34
12.22
11.89
11.55
11.40
11.57
12.03
12.61
13.01
13.01
12.48
11.48
10.22
8.96
7.86
6.96
6.19
5.44
4.64
3.76
2.83
1.87
0.86
-0.24
-1.48
-2.85
-4.32
-5.80
-7.20
-8.43
-9.47
-10.37
-11.18
-12.06
-13.10
-14.35
-15.74
-17.06
-18.00
-18.28
-17.74
-16.41
-14.47
-12.15
-9.71
-7.28
-4.92
-2.60
-0.34
1.81
3.75
5.36
6.58
7.41
7.96
8.35
8.73
9.13
9.54
9.93
10.26
10.58
10.93
11.31
11.63
11.78
11.65
11.23
10.64
10.01
9.46
9.00
8.53
7.98
7.31
6.53
5.74
4.99
4.29
3.57
2.76
1.82
0.77
-0.34
-1.44
-2.50
-3.53
-4.62
-5.89
-7.38
-9.06
-10.79
-12.42
-13.85
-15.07
-16.12
-17.04
-17.76
-18.11
-17.88
-16.91
-15.21
-12.97
-10.46
-7.91
-5.50
-3.24
-1.10
0.96
2.92
4.70
6.22
7.47
8.49
9.37
10.16
10.85
11.37
11.66
11.70
11.58
11.42
11.32
11.30
11.31
11.26
11.07
10.73
10.26
9.72
9.16
8.58
7.98
7.35
6.66
5.92
5.13
4.31
3.46
2.63
1.84
1.14
0.50
-0.13
-0.83
-1.68
-2.69
-3.84
-5.03
-6.22
-7.39
-8.59
-9.88
-11.33
-12.91
-14.54
-16.09
-17.39
-18.25
-18.49
-18.00
-16.74
-14.80
-12.42
-9.87
-7.45
-5.32
-3.55
-2.05
-0.66
0.75
2.26
3.83
5.32
6.56
7.41
7.87
7.97
7.85
7.60
7.33
7.07
6.87
6.72
6.65
6.61
6.56
6.44
6.17
5.69
4.97
4.04
2.92
1.73
0.57
-0.47
-1.37
-2.21
-3.09
-4.12
-5.29
-6.52
-7.66
-8.62
-9.39
-10.05
-10.68
-11.27
-11.71
-11.74
-11.13
-9.78
-7.76
-5.35
-2.87
-0.57
1.47
3.29
4.99
6.59
8.00
9.01
9.49
9.47
9.15
8.83
8.75
8.99
9.42
9.81
9.94
9.75
9.29
8.70
8.10
7.48
6.75
5.83
4.69
3.41
2.16
1.05
0.10
-0.76
-1.65
-2.69
-3.86
-5.13
-6.43
-7.72
-8.97
-10.17
-11.23
-12.00
-12.27
-11.87
-10.73
-8.93
-6.62
-4.02
-1.35
1.21
3.54
5.55
7.21
8.52
9.50
10.18
10.59
10.77
10.74
10.55
10.27
9.99
9.76
9.61
9.48
9.27
8.90
8.34
7.65
6.96
6.41
6.05
5.78
5.42
4.76
3.72
2.34
0.81
-0.65
-1.91
-2.97
-3.91
-4.86
-5.88
-6.96
-8.06
-9.16
-10.33
-11.61
-13.01
-14.40
-15.52
-16.06
-15.80
-14.69
-12.87
-10.64
-8.29
-6.04
-3.96
-2.05
-0.29
1.29
2.62
3.58
4.16
4.41
4.48
4.54
4.67
4.83
4.94
4.88
4.62
4.23
3.84
3.57
3.47
3.42
3.27
2.85
2.08
1.00
-0.28
-1.61
-2.91
-4.14
-5.30
-6.42
-7.53
-8.68
-9.97
-11.45
-13.16
-14.99
-16.67
-17.90
-18.34
-17.82
-16.34
-14.08
-11.34
-8.41
-5.57
-2.98
-0.68
1.32
3.06
4.56
5.83
6.84
7.61
8.14
8.49
8.74
9.00
9.32
9.68
10.00
10.12
9.94
9.46
8.80
8.15
7.66
7.35
7.09
6.66
5.89
4.72
3.29
1.83
0.53
-0.45
-1.14
-1.65
-2.16
-2.82
-3.71
-4.83
-6.13
-7.57
-9.14
-10.81
-12.49
-13.96
-14.89
-14.98
-14.06
-12.20
-9.71
-6.95
-4.25
-1.71
0.68
3.05
5.40
7.69
9.80
11.62
13.13
14.35
15.32
16.05
16.53
16.74
16.69
16.42
16.03
15.63
15.31
15.10
14.95
14.76
14.42
13.86
13.09
12.19
11.24
10.33
9.48
8.64
7.75
6.79
5.73
4.61
3.49
2.44
1.47
0.59
-0.25
-1.10
-2.04
-3.07
-4.16
-5.26
-6.30
-7.27
-8.24
-9.32
-10.60
-12.11
-13.81
-15.57
-17.24
-18.60
-19.46
-19.60
-18.90
-17.32
-15.01
-12.24
-9.38
-6.74
-4.48
-2.59
-0.92
0.70
2.35
4.01
5.55
6.88
7.93
8.71
9.29
9.75
10.12
10.42
10.64
10.73
10.68
10.49
10.22
9.91
9.61
9.29
8.91
8.42
7.81
7.12
6.44
5.85
5.37
4.96
4.50
3.91
3.15
2.25
1.31
0.39
-0.45
-1.17
-1.77
-2.26
-2.69
-3.12
-3.62
-4.23
-4.92
-5.68
-6.42
-7.16
-7.92
-8.77
-9.76
-10.89
-12.11
-13.31
-14.35
-15.10
-15.42
-15.22
-14.45
-13.10
-11.23
-8.97
-6.54
-4.14
-1.97
-0.14
1.35
2.58
3.65
4.61
5.46
6.17
6.67
6.96
7.09
7.15
7.19
7.28
7.42
7.62
7.86
8.12
8.35
8.51
8.52
8.33
7.89
7.21
6.34
5.36
4.41
3.54
2.79
2.12
1.48
0.81
0.07
-0.74
-1.62
-2.57
-3.60
-4.69
-5.81
-6.92
-7.95
-8.88
-9.70
-10.48
-11.26
-12.09
-12.99
-13.90
-14.76
-15.46
-15.91
-15.97
-15.55
-14.60
-13.10
-11.18
-8.98
-6.69
-4.45
-2.33
-0.35
1.50
3.15
4.52
5.50
6.08
6.32
6.40
6.47
6.69
7.10
7.65
8.27
8.84
9.30
9.60
9.75
9.78
9.73
9.63
9.47
9.26
9.02
8.77
8.55
8.30
7.93
7.35
6.52
5.50
4.47
3.60
2.95
2.46
1.95
1.29
0.42
-0.57
-1.52
-2.33
-2.97
-3.52
-4.12
-4.88
-5.85
-6.98
-8.17
-9.31
-10.38
-11.43
-12.52
-13.68
-14.79
-15.60
-15.84
-15.30
-13.95
-11.99
-9.65
-7.17
-4.72
-2.35
-0.15
1.80
3.35
4.45
5.12
5.54
5.91
6.41
7.08
7.83
8.52
9.01
9.23
9.25
9.15
9.05
9.02
9.03
9.01
8.88
8.58
8.13
7.58
6.98
6.37
5.76
5.14
4.54
4.00
3.56
3.20
2.87
2.46
1.86
1.05
0.11
-0.84
-1.67
-2.31
-2.81
-3.23
-3.70
-4.25
-4.88
-5.54
-6.18
-6.82
-7.45
-8.11
-8.77
-9.43
-10.13
-10.94
-11.95
-13.17
-14.47
-15.56
-16.12
-15.90
-14.87
-13.18
-11.10
-8.90
-6.76
-4.78
-2.99
-1.41
-0.07
1.02
1.90
2.65
3.35
4.04
4.71
5.29
5.70
5.94
6.03
6.09
6.20
6.42
6.75
7.12
7.45
7.65
7.68
7.51
7.12
6.55
5.82
5.01
4.21
3.53
3.01
2.62
2.29
1.91
1.43
0.89
0.35
-0.07
-0.37
-0.60
-0.89
-1.39
-2.19
-3.26
-4.51
-5.81
-7.01
-8.07
-8.97
-9.78
-10.59
-11.47
-12.45
-13.49
-14.48
-15.24
-15.58
-15.35
-14.44
-12.89
-10.85
-8.57
-6.33
-4.36
-2.76
-1.49
-0.43
0.54
1.51
2.50
3.50
4.47
5.36
6.11
6.62
6.87
6.94
6.95
7.07
7.39
7.85
8.28
8.52
8.49
8.24
7.88
7.48
7.03
6.47
5.73
4.87
4.02
3.32
2.82
2.45
2.07
1.52
0.73
-0.27
-1.38
-2.52
-3.66
-4.82
-6.01
-7.24
-8.45
-9.61
-10.71
-11.74
-12.71
-13.57
-14.21
-14.45
-14.13
-13.17
-11.62
-9.65
-7.51
-5.39
-3.40
-1.55
0.20
1.88
3.47
4.90
6.12
7.08
7.78
8.26
8.57
8.77
8.93
9.12
9.41
9.80
10.24
10.59
10.73
10.58
10.15
9.54
8.85
8.18
7.58
7.07
6.61
6.14
5.61
4.94
4.07
3.01
1.85
0.69
-0.34
-1.18
-1.87
-2.50
-3.17
-4.00
-4.99
-6.14
-7.34
-8.46
-9.43
-10.26
-11.05
-11.99
-13.23
-14.78
-16.49
-18.00
-18.92
-18.95
-17.99
-16.14
-13.67
-10.90
-8.13
-5.57
-3.32
-1.39
0.26
1.74
3.13
4.52
5.92
7.31
8.59
9.66
10.46
11.00
11.34
11.64
12.07
12.73
13.60
14.54
15.34
15.80
15.83
15.41
14.66
13.73
12.76
11.86
11.05
10.31
9.57
8.79
7.95
7.03
6.06
5.05
4.02
3.02
2.06
1.15
0.26
-0.67
-1.71
-2.88
-4.19
-5.56
-6.88
-8.05
-8.97
-9.65
-10.14
-10.60
-11.23
-12.18
-13.54
-15.21
-16.90
-18.24
-18.87
-18.59
-17.41
-15.49
-13.12
-10.52
-7.88
-5.31
-2.92
-0.81
0.97
2.44
3.68
4.81
5.89
6.89
7.71
8.29
8.63
8.88
9.19
9.66
10.26
10.85
11.24
11.33
11.10
10.65
10.13
9.68
9.39
9.28
9.28
9.26
9.08
8.61
7.80
6.71
5.51
4.37
3.39
2.59
1.89
1.15
0.29
-0.70
-1.78
-2.86
-3.91
-4.95
-6.03
-7.19
-8.42
-9.66
-10.89
-12.08
-13.26
-14.41
-15.40
-15.96
-15.76
-14.56
-12.39
-9.51
-6.41
-3.55
-1.21
0.57
1.97
3.24
4.55
5.89
7.16
8.21
8.97
9.50
9.92
10.34
10.82
11.30
11.72
12.00
12.12
12.13
12.05
11.94
11.75
11.46
11.04
10.49
9.91
9.37
8.94
8.64
8.39
8.12
7.70
7.07
6.16
5.04
3.81
2.64
1.63
0.87
0.30
-0.21
-0.78
-1.51
-2.42
-3.49
-4.66
-5.89
-7.14
-8.37
-9.53
-10.55
-11.45
-12.31
-13.27
-14.46
-15.89
-17.42
-18.77
-19.61
-19.60
-18.61
-16.66
-14.02
-11.02
-8.03
-5.30
-2.96
-1.01
0.60
1.94
3.10
4.14
5.12
6.10
7.08
8.02
8.85
9.47
9.85
10.01
10.04
10.01
10.05
10.18
10.42
10.67
10.84
10.81
10.52
9.96
9.18
8.28
7.33
6.45
5.71
5.16
4.80
4.55
4.33
4.00
3.51
2.79
1.89
0.88
-0.13
-1.07
-1.86
-2.52
-3.12
-3.74
-4.48
-5.36
-6.38
-7.49
-8.70
-10.04
-11.55
-13.19
-14.82
-16.15
-16.89
-16.86
-16.04
-14.59
-12.77
-10.79
-8.78
-6.73
-4.62
-2.45
-0.30
1.67
3.29
4.47
5.24
5.69
5.98
6.24
6.53
6.86
7.22
7.59
7.89
8.08
8.08
7.90
7.56
7.11
6.63
6.16
5.72
5.33
4.98
4.65
4.31
3.91
3.40
2.72
1.88
0.90
-0.16
-1.23
-2.24
-3.14
-3.96
-4.72
-5.50
-6.35
-7.28
-8.27
-9.28
-10.29
-11.37
-12.58
-13.95
-15.39
-16.64
-17.40
-17.39
-16.53
-14.93
-12.88
-10.69
-8.55
-6.50
-4.44
-2.33
-0.18
1.85
3.56
4.81
5.63
6.20
6.73
7.38
8.15
8.95
9.64
10.16
10.53
10.82
11.11
11.36
11.48
11.40
11.09
10.62
10.10
9.64
9.28
8.99
8.66
8.21
7.58
6.78
5.87
4.92
3.99
3.09
2.18
1.23
0.24
-0.78
-1.78
-2.75
-3.70
-4.68
-5.69
-6.75
-7.81
-8.85
-9.89
-11.03
-12.35
-13.90
-15.58
-17.17
-18.42
-19.08
-19.04
-18.28
-16.90
-15.03
-12.81
-10.38
-7.84
-5.32
-2.90
-0.65
1.41
3.28
4.93
6.35
7.51
8.43
9.11
9.63
10.05
10.40
10.70
10.94
11.13
11.28
11.41
11.52
11.61
11.62
11.47
11.11
10.52
9.74
8.89
8.06
7.36
6.78
6.27
5.75
5.14
4.43
3.66
2.86
2.07
1.29
0.49
-0.35
-1.23
-2.11
-2.99
-3.86
-4.78
-5.82
-7.00
-8.34
-9.78
-11.22
-12.61
-13.93
-15.22
-16.54
-17.84
-19.00
-19.77
-19.87
-19.13
-17.55
-15.29
-12.64
-9.89
-7.24
-4.74
-2.32
0.04
2.31
4.40
6.14
7.44
8.32
8.91
9.41
9.99
10.68
11.41
12.02
12.39
12.47
12.34
12.15
12.02
11.97
11.91
11.70
11.22
10.46
9.51
8.58
7.83
7.35
7.09
6.88
6.52
5.86
4.85
3.55
2.06
0.47
-1.19
-2.91
-4.63
-6.29
-7.77
-9.02
-10.13
-11.22
-12.52
-14.14
-16.02
-17.91
-19.44
-20.27
-20.23
-19.37
-17.89
-16.02
-13.86
-11.42
-8.63
-5.55
-2.35
0.69
3.31
5.40
7.02
8.33
9.49
10.56
11.51
12.28
12.87
13.32
13.72
14.10
14.44
14.67
14.78
14.79
14.75
14.71
14.66
14.56
14.33
13.89
13.22
12.34
11.31
10.20
9.08
8.01
7.00
6.11
5.32
4.63
4.01
3.36
2.64
1.77
0.72
-0.49
-1.82
-3.23
-4.68
-6.11
-7.48
-8.75
-9.86
-10.86
-11.81
-12.84
-14.06
-15.53
-17.16
-18.74
-19.95
-20.49
-20.13
-18.79
-16.53
-13.55
-10.15
-6.60
-3.18
-0.07
2.64
4.93
6.86
8.50
9.89
11.09
12.11
12.98
13.74
14.41
14.94
15.26
15.26
14.90
14.20
13.32
12.44
11.74
11.32
11.13
11.04
10.87
10.50
9.89
9.11
8.26
7.46
6.76
6.15
5.59
5.04
4.52
4.04
3.64
3.32
3.01
2.65
2.13
1.41
0.46
-0.71
-2.06
-3.57
-5.15
-6.76
-8.35
-9.94
-11.54
-13.19
-14.82
-16.28
-17.35
-17.83
-17.66
-16.91
-15.73
-14.28
-12.61
-10.68
-8.46
-5.99
-3.45
-1.06
1.01
2.70
4.11
5.37
6.58
7.75
8.78
9.55
10.00
10.13
10.05
9.88
9.72
9.56
9.36
9.04
8.56
7.99
7.45
7.11
6.96
6.89
6.61
5.89
4.65
2.99
1.19
-0.46
-1.79
-2.77
-3.55
-4.29
-5.11
-6.05
-7.10
-8.21
-9.34
-10.49
-11.71
-13.02
-14.43
-15.84
-17.08
-17.92
-18.17
-17.71
-16.54
-14.79
-12.61
-10.18
-7.66
-5.14
-2.71
-0.38
1.82
3.86
5.67
7.13
8.11
8.54
8.48
8.13
7.74
7.53
7.59
7.89
8.29
8.68
8.99
9.19
9.24
9.12
8.78
8.21
7.44
6.53
5.56
4.58
3.61
2.68
1.81
0.97
0.13
-0.79
-1.87
-3.08
-4.33
-5.47
-6.40
-7.14
-7.78
-8.48
-9.33
-10.36
-11.52
-12.78
-14.10
-15.49
-16.87
-18.06
-18.78
-18.76
-17.83
-16.01
-13.49
-10.55
-7.49
-4.51
-1.71
0.86
3.21
5.33
7.21
8.86
10.30
11.55
12.61
13.43
13.95
14.11
13.97
13.61
13.21
12.97
13.00
13.31
13.75
14.10
14.16
13.77
12.95
11.83
10.60
9.45
8.48
7.75
7.24
6.90
6.65
6.41
6.07
5.50
4.66
3.55
2.30
1.10
0.13
-0.51
-0.86
-1.09
-1.41
-2.01
-2.94
-4.16
-5.56
-7.02
-8.44
-9.75
-10.92
-11.88
-12.60
-13.09
-13.45
-13.84
-14.44
-15.35
-16.51
-17.65
-18.38
-18.35
-17.32
-15.39
-12.85
-10.08
-7.42
-5.00
-2.79
-0.64
1.50
3.54
5.30
6.61
7.43
7.90
8.21
8.56
9.05
9.62
10.16
10.56
10.75
10.72
10.51
10.21
9.94
9.76
9.67
9.60
9.43
9.04
8.40
7.56
6.62
5.72
4.96
4.38
3.94
3.60
3.28
2.91
2.43
1.81
1.07
0.25
-0.59
-1.44
-2.33
-3.30
-4.38
-5.49
-6.53
-7.42
-8.14
-8.79
-9.53
-10.53
-11.85
-13.38
-14.89
-16.09
-16.73
-16.70
-16.03
-14.86
-13.35
-11.62
-9.77
-7.83
-5.87
-3.93
-2.06
-0.26
1.48
3.12
4.58
5.75
6.53
6.90
6.94
6.82
6.71
6.74
6.93
7.28
7.68
8.03
8.20
8.15
7.85
7.40
6.92
6.49
6.13
5.78
5.33
4.71
3.97
3.22
2.55
2.04
1.64
1.26
0.83
0.27
-0.42
-1.24
-2.19
-3.26
-4.40
-5.56
-6.64
-7.54
-8.23
-8.74
-9.18
-9.71
-10.50
-11.59
-12.94
-14.37
-15.64
-16.47
-16.62
-15.92
-14.34
-12.02
-9.20
-6.20
-3.37
-0.90
1.10
2.67
3.95
5.07
6.16
7.26
8.34
9.35
10.20
10.79
11.08
11.09
10.90
10.59
10.26
9.95
9.69
9.42
9.09
8.67
8.15
7.55
6.92
6.32
5.75
5.18
4.60
3.98
3.37
2.78
2.25
1.72
1.14
0.43
-0.39
-1.28
-2.16
-2.98
-3.73
-4.47
-5.20
-5.94
-6.66
-7.37
-8.13
-9.02
-10.08
-11.27
-12.51
-13.68
-14.73
-15.64
-16.45
-17.11
-17.48
-17.34
-16.46
-14.78
-12.44
-9.74
-6.99
-4.45
-2.20
-0.21
1.57
3.17
4.53
5.62
6.45
7.06
7.53
7.89
8.13
8.21
8.16
8.05
7.96
7.96
8.04
8.14
8.17
8.12
7.99
7.80
7.49
6.97
6.14
5.06
3.89
2.89
2.24
1.96
1.84
1.59
0.96
-0.09
-1.42
-2.79
-3.98
-4.90
-5.61
-6.26
-6.97
-7.79
-8.75
-9.83
-11.01
-12.28
-13.49
-14.44
-14.86
-14.51
-13.32
-11.42
-9.10
-6.68
-4.45
-2.52
-0.89
0.55
1.86
3.05
4.05
4.82
5.39
5.86
6.40
7.12
7.98
8.85
9.51
9.83
9.80
9.55
9.27
9.07
8.92
8.68
8.20
7.40
6.34
5.16
4.01
3.00
2.13
1.39
0.73
0.12
-0.46
-1.07
-1.78
-2.66
-3.74
-5.00
-6.39
-7.80
-9.13
-10.34
-11.44
-12.51
-13.64
-14.87
-16.14
-17.27
-17.99
-18.04
-17.25
-15.63
-13.33
-10.62
-7.78
-5.00
-2.37
0.09
2.36
4.43
6.22
7.68
8.79
9.60
10.22
10.75
11.27
11.78
12.22
12.51
12.60
12.52
12.35
12.19
12.13
12.17
12.25
12.23
11.97
11.41
10.56
9.55
8.53
7.61
6.82
6.09
5.32
4.44
3.46
2.48
1.63
0.98
0.44
-0.18
-1.08
-2.36
-3.98
-5.71
-7.29
-8.56
-9.51
-10.32
-11.23
-12.40
-13.88
-15.58
-17.33
-18.93
-20.20
-20.95
-21.00
-20.20
-18.49
-15.97
-12.89
-9.60
-6.44
-3.65
-1.32
0.58
2.19
3.65
5.11
6.63
8.23
9.87
11.44
12.84
13.96
14.74
15.17
15.33
15.31
15.21
15.07
14.90
14.65
14.27
13.74
13.11
12.41
11.67
10.89
10.04
9.09
8.01
6.89
5.77
4.72
3.74
2.80
1.82
0.77
-0.34
-1.50
-2.67
-3.89
-5.16
-6.50
-7.90
-9.25
-10.49
-11.57
-12.56
-13.54
-14.63
-15.79
-16.86
-17.51
-17.43
-16.43
-14.55
-12.06
-9.32
-6.60
-4.01
-1.49
1.08
3.71
6.26
8.52
10.28
11.47
12.15
12.49
12.64
12.67
12.61
12.44
12.20
11.90
11.59
11.26
10.87
10.42
9.88
9.25
8.54
7.73
6.81
5.83
4.84
3.92
3.10
2.38
1.65
0.83
-0.16
-1.31
-2.56
-3.79
-4.96
-6.07
-7.21
-8.46
-9.92
-11.62
-13.49
-15.40
-17.12
-18.39
-18.95
-18.62
-17.39
-15.39
-12.91
-10.25
-7.63
-5.16
-2.78
-0.41
1.98
4.33
6.46
8.19
9.43
10.20
10.64
10.89
11.06
11.21
11.37
11.57
11.85
12.21
12.61
12.93
13.04
12.87
12.41
11.75
10.97
10.14
9.28
8.39
7.51
6.73
6.12
5.67
5.30
4.85
4.19
3.28
2.19
1.07
0.04
-0.84
-1.64
-2.45
-3.38
-4.43
-5.54
-6.65
-7.70
-8.72
-9.78
-10.95
-12.27
-13.72
-15.21
-16.61
-17.73
-18.33
-18.21
-17.23
-15.44
-13.01
-10.22
-7.34
-4.57
-2.01
0.32
2.43
4.32
5.95
7.27
8.28
9.02
9.52
9.84
10.05
10.24
10.52
10.91
11.39
11.84
12.09
12.03
11.66
11.04
10.33
9.65
9.08
8.62
8.21
7.76
7.24
6.63
5.97
5.31
4.67
4.07
3.51
2.98
2.47
1.95
1.39
0.72
-0.12
-1.15
-2.37
-3.70
-5.09
-6.42
-7.61
-8.58
-9.28
-9.73
-10.05
-10.44
-11.09
-12.13
-13.54
-15.17
-16.75
-17.98
-18.61
-18.47
-17.53
-15.85
-13.56
-10.84
-7.90
-4.93
-2.12
0.34
2.33
3.78
4.68
5.17
5.40
5.58
5.85
6.29
6.89
7.56
8.18
8.63
8.86
8.89
8.79
8.63
8.49
8.35
8.18
7.95
7.64
7.29
6.93
6.56
6.12
5.54
4.76
3.83
2.84
1.92
1.17
0.58
0.06
-0.52
-1.26
-2.17
-3.18
-4.19
-5.11
-5.92
-6.65
-7.39
-8.21
-9.15
-10.23
-11.46
-12.79
-14.14
-15.35
-16.19
-16.43
-15.94
-14.70
-12.84
-10.57
-8.12
-5.66
-3.29
-1.08
0.96
2.77
4.31
5.57
6.57
7.39
8.10
8.75
9.36
9.91
10.33
10.57
10.62
10.48
10.21
9.89
9.57
9.30
9.06
8.82
8.51
8.08
7.48
6.69
5.76
4.72
3.65
2.61
1.68
0.87
0.18
-0.42
-0.98
-1.53
-2.12
-2.76
-3.46
-4.17
-4.86
-5.48
-6.04
-6.59
-7.19
-7.94
-8.87
-10.00
-11.27
-12.61
-13.88
-14.88
-15.40
-15.20
-14.17
-12.33
-9.88
-7.17
-4.57
-2.30
-0.43
1.19
2.77
4.49
6.38
8.30
9.96
11.11
11.61
11.47
10.89
10.15
9.47
9.04
8.90
8.97
9.15
9.31
9.38
9.33
9.15
8.83
8.31
7.53
6.45
5.14
3.79
2.64
1.86
1.46
1.26
1.02
0.49
-0.39
-1.56
-2.81
-3.98
-4.95
-5.74
-6.44
-7.16
-7.96
-8.86
-9.85
-10.90
-11.99
-13.12
-14.24
-15.20
-15.75
-15.64
-14.69
-12.95
-10.66
-8.21
-5.90
-3.84
-2.00
-0.24
1.49
3.12
4.49
5.49
6.10
6.45
6.71
7.03
7.46
7.93
8.34
8.61
8.69
8.57
8.29
7.90
7.47
7.09
6.81
6.66
6.58
6.44
6.12
5.51
4.60
3.46
2.21
0.97
-0.19
-1.22
-2.15
-2.99
-3.80
-4.62
-5.54
-6.65
-7.95
-9.39
-10.83
-12.15
-13.29
-14.30
-15.22
-16.02
-16.52
-16.45
-15.59
-13.85
-11.42
-8.65
-5.91
-3.48
-1.41
0.34
1.90
3.33
4.62
5.73
6.64
7.35
7.93
8.47
9.05
9.67
10.28
10.77
11.04
11.06
10.88
10.62
10.41
10.26
10.08
9.71
9.10
8.30
7.52
6.95
6.67
6.52
6.23
5.53
4.35
2.85
1.35
0.12
-0.72
-1.25
-1.69
-2.26
-3.03
-3.96
-4.94
-5.87
-6.73
-7.57
-8.46
-9.46
-10.56
-11.72
-12.88
-14.00
-15.01
-15.84
-16.36
-16.42
-15.89
-14.71
-12.93
-10.69
-8.19
-5.62
-3.12
-0.80
1.29
3.06
4.45
5.42
6.01
6.32
6.52
6.74
7.06
7.48
7.97
8.44
8.85
9.20
9.48
9.74
10.00
10.25
10.47
10.58
10.48
10.13
9.54
8.77
7.96
7.21
6.54
5.88
5.12
4.15
3.02
1.84
0.78
-0.07
-0.75
-1.43
-2.29
-3.40
-4.68
-5.95
-7.05
-7.94
-8.70
-9.55
-10.64
-12.02
-13.58
-15.07
-16.20
-16.73
-16.48
-15.44
-13.70
-11.49
-9.06
-6.65
-4.41
-2.40
-0.62
0.91
2.16
3.08
3.66
4.00
4.25
4.54
4.91
5.30
5.60
5.75
5.79
5.79
5.83
5.89
5.91
5.78
5.48
5.04
4.50
3.86
3.12
2.24
1.24
0.19
-0.81
-1.68
-2.42
-3.07
-3.71
-4.39
-5.12
-5.89
-6.68
-7.52
-8.48
-9.59
-10.82
-12.03
-12.98
-13.41
-13.13
-12.07
-10.32
-8.09
-5.65
-3.18
-0.82
1.43
3.56
5.55
7.31
8.74
9.75
10.33
10.60
10.69
10.78
10.97
11.24
11.51
11.68
11.68
11.53
11.25
10.89
10.48
10.03
9.57
9.15
8.82
8.58
8.36
8.04
7.54
6.81
5.90
4.89
3.86
2.83
1.77
0.62
-0.62
-1.91
-3.12
-4.17
-5.04
-5.82
-6.67
-7.78
-9.25
-11.00
-12.89
-14.69
-16.25
-17.43
-18.19
-18.45
-18.13
-17.13
-15.45
-13.19
-10.58
-7.89
-5.33
-3.01
-0.93
0.95
2.68
4.23
5.58
6.71
7.63
8.41
9.14
9.86
10.57
11.19
11.66
11.93
12.00
11.90
11.69
11.43
11.15
10.87
10.57
10.24
9.87
9.41
8.87
8.21
7.45
6.59
5.67
4.70
3.77
2.93
2.25
1.75
1.38
1.01
0.47
-0.35
-1.47
-2.83
-4.27
-5.63
-6.80
-7.76
-8.60
-9.44
-10.45
-11.72
-13.27
-15.02
-16.78
-18.24
-19.10
-19.11
-18.20
-16.49
-14.25
-11.80
-9.41
-7.20
-5.17
-3.23
-1.30
0.67
2.62
4.45
6.10
7.49
8.65
9.60
10.40
11.09
11.68
12.14
12.42
12.47
12.28
11.88
11.37
10.86
10.44
10.13
9.88
9.58
9.12
8.44
7.57
6.57
5.51
4.47
3.47
2.52
1.64
0.79
-0.03
-0.83
-1.65
-2.54
-3.50
-4.56
-5.71
-6.95
-8.25
-9.57
-10.85
-12.06
-13.24
-14.45
-15.72
-16.98
-18.01
-18.52
-18.25
-17.14
-15.32
-13.10
-10.79
-8.58
-6.54
-4.58
-2.66
-0.75
1.03
2.57
3.75
4.59
5.17
5.67
6.24
6.97
7.87
8.86
9.78
10.51
10.96
11.14
11.08
10.85
10.51
10.09
9.62
9.08
8.50
7.85
7.15
6.37
5.49
4.50
3.42
2.29
1.18
0.18
-0.70
-1.50
-2.29
-3.17
-4.18
-5.33
-6.56
-7.83
-9.13
-10.48
-11.89
-13.37
-14.83
-16.11
-17.01
-17.31
-16.86
-15.63
-13.76
-11.46
-8.98
-6.57
-4.32
-2.23
-0.20
1.85
3.94
6.00
7.93
9.64
11.08
12.23
13.14
13.79
14.19
14.30
14.17
13.88
13.54
13.25
13.05
12.89
12.67
12.33
11.82
11.17
10.47
9.83
9.29
8.88
8.56
8.23
7.83
7.24
6.47
5.53
4.51
3.51
2.62
1.90
1.36
0.95
0.58
0.12
-0.56
-1.49
-2.67
-4.02
-5.43
-6.81
-8.09
-9.28
-10.44
-11.66
-12.97
-14.37
-15.74
-16.91
-17.69
-17.89
-17.41
-16.25
-14.48
-12.26
-9.77
-7.16
-4.57
-2.08
0.26
2.42
4.38
6.16
7.75
9.15
10.38
11.45
12.38
13.18
13.88
14.49
15.02
15.45
15.71
15.67
15.27
14.49
13.44
12.28
11.18
10.23
9.40
8.62
7.87
7.14
6.49
5.92
5.37
4.72
3.87
2.83
1.71
0.67
-0.23
-1.01
-1.78
-2.61
-3.52
-4.43
-5.25
-5.98
-6.69
-7.55
-8.64
-9.97
-11.41
-12.71
-13.58
-13.82
-13.34
-12.19
-10.58
-8.76
-6.93
-5.19
-3.52
-1.84
-0.10
1.62
3.18
4.40
5.21
5.64
5.80
5.84
5.86
5.94
6.08
6.30
6.53
6.72
6.76
6.60
6.25
5.80
5.39
5.12
4.95
4.77
4.42
3.80
2.96
1.99
1.02
0.10
-0.75
-1.59
-2.43
-3.24
-3.98
-4.63
-5.26
-5.95
-6.77
-7.75
-8.81
-9.85
-10.82
-11.72
-12.62
-13.61
-14.65
-15.58
-16.12
-15.99
-15.03
-13.31
-11.05
-8.61
-6.27
-4.16
-2.30
-0.59
1.00
2.47
3.69
4.61
5.20
5.54
5.76
5.98
6.27
6.59
6.89
7.09
7.13
7.01
6.78
6.49
6.22
6.01
5.83
5.67
5.49
5.26
5.00
4.71
4.40
4.00
3.47
2.76
1.93
1.06
0.32
-0.17
-0.38
-0.39
-0.40
-0.61
-1.16
-2.07
-3.22
-4.43
-5.52
-6.36
-7.00
-7.53
-8.16
-9.01
-10.17
-11.54
-12.98
-14.21
-14.99
-15.12
-14.52
-13.21
-11.32
-9.06
-6.69
-4.43
-2.47
-0.87
0.44
1.60
2.76
4.02
5.34
6.64
7.74
8.55
9.07
9.37
9.57
9.77
10.02
10.33
10.65
10.94
11.18
11.34
11.39
11.32
11.08
10.70
10.18
9.53
8.83
8.11
7.47
6.93
6.45
5.95
5.29
4.40
3.27
2.02
0.82
-0.19
-0.94
-1.49
-1.97
-2.51
-3.16
-3.92
-4.70
-5.45
-6.18
-6.97
-7.94
-9.15
-10.60
-12.16
-13.67
-14.96
-15.88
-16.33
-16.25
-15.61
-14.45
-12.84
-10.89
-8.76
-6.62
-4.57
-2.64
-0.84
0.86
2.41
3.73
4.71
5.31
5.56
5.63
5.71
5.94
6.36
6.91
7.46
7.89
8.15
8.22
8.15
7.95
7.65
7.27
6.81
6.30
5.71
5.05
4.35
3.68
3.10
2.63
2.21
1.71
1.03
0.11
-0.97
-2.06
-3.04
-3.87
-4.60
-5.36
-6.23
-7.24
-8.34
-9.43
-10.44
-11.27
-11.88
-12.24
-12.28
-11.94
-11.13
-9.79
-7.99
-5.86
-3.66
-1.60
0.15
1.54
2.65
3.57
4.40
5.14
5.74
6.15
6.36
6.39
6.31
6.17
6.02
5.90
5.82
5.78
5.78
5.79
5.75
5.62
5.37
5.01
4.55
4.04
3.51
2.96
2.34
1.65
0.84
-0.05
-1.00
-1.96
-2.93
-3.90
-4.84
-5.72
-6.46
-7.04
-7.47
-7.92
-8.56
-9.49
-10.63
-11.69
-12.29
-12.11
-11.05
-9.24
-6.97
-4.55
-2.17
0.11
2.30
4.41
6.39
8.11
9.44
10.28
10.64
10.61
10.36
10.08
9.91
9.90
10.05
10.27
10.47
10.54
10.41
10.05
9.50
8.86
8.24
7.73
7.38
7.16
6.99
6.74
6.33
5.70
4.83
3.80
2.69
1.66
0.84
0.32
0.02
-0.23
-0.64
-1.33
-2.27
-3.33
-4.33
-5.24
-6.09
-7.02
-8.09
-9.25
-10.37
-11.33
-12.10
-12.77
-13.46
-14.21
-14.95
-15.44
-15.41
-14.68
-13.25
-11.28
-9.03
-6.79
-4.74
-2.92
-1.27
0.31
1.84
3.25
4.41
5.16
5.48
5.44
5.26
5.11
5.14
5.34
5.62
5.86
5.99
5.99
5.87
5.68
5.46
5.20
4.91
4.57
4.20
3.80
3.44
3.13
2.89
2.65
2.33
1.89
1.31
0.69
0.12
-0.32
-0.63
-0.91
-1.30
-1.87
-2.65
-3.55
-4.44
-5.25
-5.95
-6.59
-7.22
-7.90
-8.64
-9.43
-10.26
-11.13
-12.01
-12.84
-13.45
-13.59
-13.04
-11.70
-9.69
-7.31
-4.91
-2.73
-0.86
0.79
2.32
3.75
5.00
5.94
6.50
6.77
6.96
7.26
7.73
8.27
8.70
8.83
8.63
8.21
7.76
7.44
7.32
7.34
7.34
7.19
6.84
6.33
5.77
5.29
4.93
4.65
4.32
3.84
3.19
2.46
1.74
1.09
0.48
-0.23
-1.16
-2.32
-3.58
-4.77
-5.74
-6.47
-7.08
-7.73
-8.52
-9.40
-10.23
-10.83
-11.02
-10.70
-9.85
-8.51
-6.79
-4.84
-2.85
-1.03
0.47
1.57
2.32
2.79
3.08
3.26
3.33
3.25
3.00
2.62
2.16
1.74
1.45
1.30
1.23
1.16
1.02
0.82
0.63
0.50
0.42
0.32
0.07
-0.41
-1.12
-1.94
-2.73
-3.37
-3.86
-4.29
-4.81
-5.50
-6.40
-7.49
-8.71
-10.03
-11.39
-12.74
-13.98
-14.97
-15.52
-15.48
-14.74
-13.31
-11.28
-8.86
-6.25
-3.68
-1.29
0.87
2.77
4.41
5.78
6.82
7.51
7.88
8.04
8.12
8.25
8.47
8.75
9.02
9.19
9.28
9.34
9.43
9.63
9.93
10.22
10.39
10.29
9.88
9.20
8.37
7.53
6.75
6.04
5.33
4.56
3.70
2.82
1.93
1.05
0.10
-0.99
-2.23
-3.51
-4.69
-5.66
-6.45
-7.23
-8.22
-9.53
-11.11
-12.70
-13.95
-14.57
-14.40
-13.46
-11.89
-9.89
-7.66
-5.38
-3.20
-1.21
0.52
1.95
3.10
3.98
4.65
5.15
5.54
5.90
6.27
6.62
6.92
7.07
7.01
6.76
6.42
6.10
5.86
5.68
5.46
5.07
4.44
3.57
2.55
1.49
0.46
-0.51
-1.41
-2.26
-3.06
-3.85
-4.72
-5.77
-7.05
-8.52
-9.99
-11.15
-11.71
-11.50
-10.51
-8.91
-6.94
-4.86
-2.82
-0.93
0.78
2.32
3.67
4.86
5.90
6.79
7.53
8.11
8.54
8.81
8.94
8.91
8.74
8.44
8.04
7.58
7.06
6.46
5.75
4.91
4.00
3.08
2.27
1.58
1.01
0.49
-0.06
-0.71
-1.48
-2.43
-3.58
-4.95
-6.50
-8.08
-9.47
-10.41
-10.71
-10.27
-9.14
-7.47
-5.50
-3.44
-1.48
0.30
1.89
3.29
4.52
5.58
6.46
7.10
7.51
7.69
7.72
7.64
7.50
7.34
7.17
6.99
6.83
6.73
6.70
6.73
6.76
6.68
6.34
5.70
4.79
3.76
2.81
2.09
1.64
1.35
1.00
0.40
-0.52
-1.68
-2.87
-3.86
-4.54
-4.95
-5.27
-5.74
-6.49
-7.48
-8.45
-9.05
-8.95
-8.02
-6.37
-4.29
-2.12
-0.08
1.75
3.41
4.93
6.31
7.46
8.28
8.77
9.03
9.24
9.57
10.05
10.58
10.96
11.00
10.62
9.87
8.92
8.00
7.24
6.68
6.21
5.68
4.96
3.99
2.83
1.58
0.35
-0.78
-1.85
-2.91
-4.00
-5.10
-6.18
-7.22
-8.22
-9.24
-10.29
-11.32
-12.14
-12.50
-12.22
-11.28
-9.81
-8.02
-6.09
-4.14
-2.19
-0.28
1.50
3.01
4.10
4.77
5.09
5.24
5.43
5.77
6.25
6.77
7.20
7.43
7.42
7.15
6.64
5.97
5.20
4.44
3.74
3.13
2.57
2.03
1.51
1.05
0.70
0.51
0.40
0.26
-0.04
-0.58
-1.32
-2.18
-3.02
-3.79
-4.51
-5.27
-6.13
-7.13
-8.21
-9.32
-10.39
-11.42
-12.42
-13.36
-14.15
-14.58
-14.44
-13.58
-12.02
-9.99
-7.80
-5.77
-4.04
-2.57
-1.18
0.32
1.97
3.64
5.12
6.18
6.77
6.97
6.95
6.90
6.89
6.93
6.98
7.00
7.01
7.00
6.96
6.86
6.62
6.24
5.77
5.31
4.93
4.66
4.45
4.21
3.90
3.51
3.09
2.68
2.27
1.81
1.26
0.60
-0.15
-0.92
-1.67
-2.37
-3.04
-3.70
-4.33
-4.90
-5.41
-5.91
-6.49
-7.25
-8.21
-9.33
-10.48
-11.52
-12.34
-12.85
-12.94
-12.48
-11.37
-9.61
-7.37
-4.96
-2.74
-0.94
0.36
1.34
2.20
3.10
4.06
4.99
5.75
6.28
6.59
6.73
6.77
6.75
6.69
6.59
6.51
6.49
6.57
6.73
6.88
6.89
6.68
6.20
5.53
4.77
4.08
3.51
3.06
2.67
2.25
1.75
1.14
0.46
-0.27
-1.04
-1.84
-2.65
-3.44
-4.12
-4.67
-5.11
-5.51
-6.01
-6.70
-7.61
-8.63
-9.59
-10.28
-10.54
-10.29
-9.58
-8.49
-7.16
-5.69
-4.13
-2.55
-1.00
0.44
1.74
2.83
3.70
4.37
4.82
5.08
5.17
5.14
5.04
4.92
4.77
4.55
4.22
3.77
3.28
2.83
2.51
2.34
2.25
2.18
2.09
1.96
1.78
1.51
1.07
0.40
-0.54
-1.69
-2.96
-4.23
-5.40
-6.40
-7.22
-7.87
-8.39
-8.85
-9.32
-9.78
-10.15
-10.25
-9.89
-8.96
-7.51
-5.71
-3.77
-1.87
-0.11
1.53
3.07
4.51
5.73
6.59
6.98
6.94
6.59
6.16
5.85
5.75
5.84
6.01
6.18
6.29
6.34
6.34
6.26
6.07
5.72
5.22
4.65
4.09
3.61
3.23
2.89
2.51
2.01
1.35
0.57
-0.28
-1.12
-1.92
-2.69
-3.45
-4.25
-5.10
-5.99
-6.90
-7.86
-8.91
-10.06
-11.28
-12.45
-13.39
-13.92
-13.89
-13.22
-11.90
-10.00
-7.67
-5.12
-2.59
-0.31
1.61
3.15
4.39
5.43
6.33
7.11
7.74
8.16
8.35
8.33
8.17
7.96
7.81
7.80
7.93
8.14
8.32
8.35
8.23
7.99
7.72
7.47
7.23
6.91
6.43
5.74
4.90
3.97
3.07
2.20
1.36
0.47
-0.49
-1.52
-2.57
-3.55
-4.39
-5.04
-5.50
-5.79
-5.95
-6.06
-6.24
-6.69
-7.54
-8.85
-10.48
-12.13
-13.43
-14.05
-13.87
-12.96
-11.52
-9.76
-7.84
-5.81
-3.70
-1.57
0.46
2.22
3.59
4.51
5.03
5.27
5.37
5.44
5.56
5.74
5.97
6.22
6.46
6.64
6.75
6.81
6.84
6.86
6.91
7.00
7.12
7.24
7.33
7.31
7.11
6.66
5.96
5.07
4.11
3.23
2.51
1.94
1.45
0.91
0.24
-0.55
-1.42
-2.32
-3.24
-4.17
-5.12
-6.04
-6.88
-7.56
-8.09
-8.54
-9.04
-9.74
-10.66
-11.69
-12.59
-13.05
-12.80
-11.76
-10.04
-7.88
-5.57
-3.37
-1.39
0.31
1.73
2.89
3.77
4.39
4.79
5.05
5.22
5.37
5.51
5.66
5.83
6.03
6.25
6.47
6.66
6.81
6.91
6.93
6.85
6.63
6.20
5.53
4.63
3.60
2.53
1.59
0.84
0.28
-0.18
-0.70
-1.43
-2.42
-3.62
-4.86
-5.96
-6.80
-7.42
-7.96
-8.62
-9.53
-10.68
-11.86
-12.79
-13.19
-12.89
-11.89
-10.31
-8.33
-6.11
-3.78
-1.44
0.75
2.65
4.10
5.04
5.54
5.80
6.04
6.41
6.90
7.39
7.73
7.81
7.65
7.36
7.08
6.91
6.90
6.99
7.14
7.27
7.37
7.38
7.27
6.97
6.42
5.56
4.42
3.13
1.82
0.66
-0.26
-0.90
-1.37
-1.79
-2.34
-3.12
-4.14
-5.37
-6.68
-7.97
-9.23
-10.44
-11.61
-12.71
-13.57
-13.96
-13.67
-12.62
-10.92
-8.76
-6.42
-4.07
-1.80
0.38
2.42
4.27
5.82
7.00
7.79
8.29
8.60
8.84
9.05
9.23
9.31
9.27
9.11
8.87
8.62
8.42
8.26
8.13
7.95
7.70
7.40
7.09
6.84
6.61
6.32
5.86
5.16
4.25
3.25
2.29
1.46
0.74
0.04
-0.73
-1.61
-2.55
-3.41
-4.13
-4.72
-5.29
-6.04
-7.08
-8.42
-9.92
-11.37
-12.61
-13.58
-14.36
-15.05
-15.66
-16.03
-15.93
-15.14
-13.60
-11.44
-8.94
-6.39
-3.99
-1.85
0.08
1.84
3.43
4.76
5.75
6.36
6.67
6.88
7.24
7.89
8.80
9.76
10.51
10.88
10.87
10.61
10.28
9.99
9.74
9.50
9.22
8.92
8.63
8.36
8.07
7.72
7.28
6.78
6.25
5.68
4.99
4.11
3.07
1.97
1.01
0.32
-0.10
-0.41
-0.85
-1.62
-2.74
-4.07
-5.37
-6.44
-7.23
-7.81
-8.40
-9.21
-10.38
-11.88
-13.54
-15.08
-16.20
-16.64
-16.29
-15.14
-13.31
-10.99
-8.41
-5.80
-3.37
-1.28
0.40
1.68
2.66
3.45
4.18
4.90
5.63
6.34
7.01
7.64
8.24
8.76
9.17
9.40
9.42
9.27
9.06
8.95
9.03
9.31
9.66
9.89
9.84
9.39
8.57
7.50
6.34
5.24
4.30
3.53
2.90
2.37
1.85
1.25
0.49
-0.52
-1.78
-3.22
-4.67
-5.94
-6.92
-7.62
-8.19
-8.77
-9.52
-10.46
-11.54
-12.68
-13.78
-14.72
-15.36
-15.52
-15.04
-13.87
-12.04
-9.77
-7.33
-5.02
-3.02
-1.41
-0.11
1.04
2.25
3.64
5.20
6.76
8.07
8.91
9.20
9.06
8.75
8.50
8.50
8.74
9.11
9.44
9.62
9.55
9.27
8.87
8.43
8.04
7.69
7.27
6.69
5.86
4.81
3.65
2.52
1.53
0.70
-0.04
-0.76
-1.54
-2.42
-3.41
-4.50
-5.67
-6.87
-8.05
-9.13
-10.13
-11.07
-12.05
-13.10
-14.15
-15.02
-15.49
-15.38
-14.61
-13.28
-11.55
-9.62
-7.63
-5.61
-3.53
-1.38
0.75
2.69
4.23
5.23
5.71
5.83
5.86
6.01
6.39
6.93
7.50
7.94
8.20
8.32
8.35
8.36
8.30
8.06
7.57
6.80
5.88
5.00
4.31
3.85
3.48
2.98
2.19
1.09
-0.19
-1.45
-2.56
-3.53
-4.46
-5.47
-6.59
-7.77
-8.93
-10.07
-11.25
-12.53
-13.86
-15.06
-15.81
-15.82
-14.93
-13.19
-10.85
-8.24
-5.64
-3.21
-0.93
1.26
3.42
5.53
7.47
9.06
10.19
10.84
11.14
11.31
11.56
12.04
12.73
13.54
14.31
14.93
15.33
15.55
15.61
15.51
15.19
14.58
13.65
12.45
11.13
9.87
8.83
8.03
7.35
6.61
5.65
4.42
3.01
1.60
0.37
-0.62
-1.41
-2.16
-3.05
-4.19
-5.55
-6.96
-8.26
-9.35
-10.30
-11.30
-12.59
-14.30
-16.36
-18.48
-20.25
-21.31
-21.41
-20.55
-18.83
-16.44
-13.61
-10.55
-7.48
-4.61
-2.08
0.04
1.83
3.44
5.04
6.69
8.35
9.89
11.13
11.97
12.36
12.37
12.13
11.81
11.55
11.48
11.62
11.90
12.22
12.41
12.42
12.17
11.70
11.03
10.21
9.33
8.48
7.78
7.26
6.86
6.47
5.94
5.20
4.26
3.20
2.12
1.09
0.14
-0.75
-1.60
-2.45
-3.35
-4.39
-5.61
-6.97
-8.33
-9.50
-10.37
-10.98
-11.55
-12.38
-13.70
-15.48
-17.48
-19.29
-20.46
-20.69
-19.91
-18.24
-15.90
-13.16
-10.26
-7.37
-4.59
-2.00
0.31
2.29
3.92
5.24
6.35
7.36
8.36
9.32
10.14
10.70
10.94
10.93
10.82
10.75
10.80
10.94
11.06
11.10
11.06
10.96
10.79
10.49
9.96
9.19
8.25
7.30
6.51
5.91
5.37
4.67
3.65
2.27
0.67
-0.91
-2.25
-3.30
-4.13
-4.90
-5.77
-6.79
-7.92
-9.09
-10.25
-11.45
-12.81
-14.40
-16.15
-17.80
-18.96
-19.23
-18.42
-16.58
-14.03
-11.16
-8.28
-5.54
-2.94
-0.44
1.97
4.18
6.11
7.69
8.95
9.98
10.88
11.69
12.39
12.95
13.31
13.46
13.44
13.31
13.14
13.02
12.99
13.04
13.08
12.97
12.59
11.92
11.04
10.12
9.30
8.63
8.02
7.30
6.33
5.11
3.80
2.63
1.76
1.24
0.91
0.54
-0.06
-0.98
-2.19
-3.59
-5.08
-6.56
-8.01
-9.40
-10.70
-11.91
-13.06
-14.20
-15.39
-16.63
-17.77
-18.63
-18.94
-18.48
-17.15
-15.01
-12.28
-9.26
-6.28
-3.53
-1.07
1.15
3.20
5.09
6.76
8.08
8.98
9.47
9.67
9.78
9.99
10.36
10.82
11.19
11.32
11.15
10.79
10.45
10.34
10.50
10.82
11.05
10.96
10.45
9.63
8.69
7.81
7.07
6.39
5.68
4.85
3.93
3.00
2.17
1.53
1.06
0.71
0.34
-0.15
-0.82
-1.69
-2.72
-3.84
-4.98
-6.07
-7.07
-7.98
-8.79
-9.56
-10.34
-11.21
-12.23
-13.41
-14.66
-15.78
-16.49
-16.54
-15.78
-14.24
-12.08
-9.58
-6.99
-4.51
-2.22
-0.14
1.76
3.48
4.98
6.21
7.15
7.76
8.07
8.13
8.03
7.85
7.69
7.56
7.46
7.33
7.17
6.99
6.83
6.72
6.63
6.49
6.20
5.71
5.07
4.40
3.79
3.28
2.77
2.14
1.29
0.21
-0.96
-2.09
-3.07
-3.91
-4.67
-5.44
-6.23
-7.03
-7.79
-8.51
-9.27
-10.16
-11.29
-12.61
-14.00
-15.26
-16.15
-16.52
-16.23
-15.27
-13.66
-11.54
-9.09
-6.55
-4.13
-1.96
-0.10
1.51
2.96
4.32
5.66
6.95
8.11
9.03
9.63
9.90
9.89
9.72
9.52
9.39
9.36
9.41
9.45
9.44
9.30
9.05
8.69
8.26
7.75
7.16
6.50
5.80
5.11
4.48
3.94
3.41
2.78
1.97
0.96
-0.15
-1.20
-2.07
-2.73
-3.29
-3.91
-4.73
-5.76
-6.94
-8.12
-9.24
-10.27
-11.34
-12.53
-13.91
-15.41
-16.83
-17.91
-18.35
-18.02
-16.90
-15.14
-12.95
-10.55
-8.07
-5.57
-3.10
-0.71
1.49
3.40
4.98
6.24
7.21
7.96
8.53
8.93
9.23
9.50
9.83
10.24
10.71
11.10
11.27
11.15
10.79
10.35
10.00
9.88
9.96
10.09
10.06
9.74
9.09
8.21
7.25
6.37
5.62
5.05
4.57
4.14
3.67
3.09
2.35
1.43
0.32
-0.89
-2.11
-3.26
-4.27
-5.13
-5.86
-6.49
-7.04
-7.58
-8.17
-8.92
-9.92
-11.24
-12.83
-14.58
-16.28
-17.66
-18.50
-18.66
-18.09
-16.87
-15.13
-13.00
-10.65
-8.20
-5.79
-3.52
-1.47
0.36
2.01
3.52
4.90
6.12
7.13
7.92
8.55
9.11
9.62
10.07
10.32
10.24
9.81
9.09
8.27
7.57
7.15
7.06
7.25
7.59
7.89
8.01
7.80
7.20
6.24
5.01
3.67
2.36
1.20
0.23
-0.52
-1.12
-1.69
-2.34
-3.20
-4.28
-5.51
-6.72
-7.73
-8.45
-8.93
-9.32
-9.87
-10.73
-11.93
-13.33
-14.64
-15.56
-15.81
-15.25
-13.91
-11.90
-9.47
-6.84
-4.18
-1.64
0.68
2.73
4.44
5.79
6.81
7.55
8.08
8.47
8.76
8.95
9.07
9.15
9.26
9.42
9.63
9.83
9.91
9.77
9.39
8.82
8.17
7.57
7.10
6.73
6.37
5.90
5.28
4.56
3.87
3.28
2.79
2.32
1.69
0.82
-0.29
-1.57
-2.90
-4.19
-5.38
-6.47
-7.47
-8.42
-9.37
-10.38
-11.49
-12.69
-13.93
-15.14
-16.27
-17.24
-17.98
-18.35
-18.14
-17.19
-15.47
-13.14
-10.51
-7.90
-5.53
-3.46
-1.60
0.17
1.85
3.37
4.63
5.58
6.29
6.91
7.53
8.22
8.92
9.54
9.98
10.20
10.23
10.15
10.05
10.01
10.02
10.01
9.89
9.56
9.00
8.27
7.47
6.72
6.05
5.44
4.81
4.15
3.45
2.75
2.08
1.42
0.71
-0.08
-0.96
-1.91
-2.90
-3.93
-4.99
-6.09
-7.20
-8.30
-9.40
-10.53
-11.77
-13.17
-14.69
-16.16
-17.31
-17.86
-17.61
-16.52
-14.68
-12.28
-9.51
-6.55
-3.53
-0.59
2.13
4.49
6.44
7.96
9.10
9.93
10.52
10.92
11.16
11.34
11.53
11.81
12.19
12.54
12.70
12.55
12.08
11.41
10.74
10.22
9.90
9.68
9.41
8.94
8.25
7.39
6.49
5.65
4.91
4.25
3.57
2.80
1.89
0.84
-0.29
-1.44
-2.53
-3.55
-4.50
-5.46
-6.49
-7.65
-8.96
-10.40
-11.89
-13.33
-14.62
-15.61
-16.19
-16.23
-15.62
-14.34
-12.47
-10.16
-7.63
-5.07
-2.64
-0.40
1.65
3.48
5.05
6.29
7.10
7.44
7.38
7.11
6.86
6.83
7.09
7.57
8.10
8.49
8.67
8.63
8.48
8.22
7.84
7.21
6.28
5.10
3.87
2.88
2.30
2.12
2.08
1.84
1.14
-0.06
-1.61
-3.23
-4.65
-5.76
-6.60
-7.28
-7.98
-8.83
-9.96
-11.43
-13.23
-15.18
-17.01
-18.35
-18.87
-18.41
-16.99
-14.85
-12.28
-9.57
-6.93
-4.47
-2.17
-0.03
1.99
3.83
5.44
6.75
7.76
8.55
9.23
9.91
10.66
11.41
12.03
12.40
12.51
12.38
12.15
11.92
11.77
11.68
11.58
11.37
11.00
10.43
9.68
8.79
7.86
6.97
6.15
5.38
4.62
3.76
2.76
1.67
0.59
-0.35
-1.13
-1.81
-2.55
-3.49
-4.69
-6.07
-7.43
-8.65
-9.66
-10.55
-11.47
-12.57
-13.93
-15.51
-17.24
-18.98
-20.56
-21.78
-22.42
-22.28
-21.25
-19.36
-16.76
-13.65
-10.31
-6.95
-3.75
-0.88
1.58
3.58
5.18
6.51
7.69
8.79
9.79
10.63
11.27
11.74
12.15
12.60
13.10
13.57
13.89
13.99
13.90
13.73
13.56
13.39
13.16
12.75
12.11
11.34
10.60
10.01
9.62
9.36
9.10
8.75
8.30
7.77
7.17
6.45
5.57
4.48
3.22
1.95
0.82
-0.07
-0.72
-1.26
-1.91
-2.80
-4.00
-5.42
-6.92
-8.32
-9.54
-10.57
-11.52
-12.52
-13.68
-15.01
-16.45
-17.87
-19.16
-20.21
-20.94
-21.21
-20.81
-19.55
-17.33
-14.28
-10.77
-7.29
-4.25
-1.83
0.09
1.77
3.43
5.13
6.75
8.12
9.17
9.98
10.71
11.49
12.29
12.94
13.26
13.18
12.82
12.41
12.20
12.32
12.70
13.12
13.33
13.19
12.70
11.99
11.22
10.51
9.91
9.39
8.87
8.32
7.73
7.11
6.47
5.79
5.07
4.35
3.66
3.05
2.50
1.96
1.33
0.49
-0.61
-1.93
-3.35
-4.70
-5.87
-6.82
-7.62
-8.38
-9.21
-10.19
-11.36
-12.72
-14.25
-15.87
-17.43
-18.67
-19.33
-19.15
-18.08
-16.20
-13.76
-11.01
-8.13
-5.24
-2.42
0.22
2.49
4.25
5.43
6.14
6.61
7.08
7.65
8.27
8.77
9.01
8.99
8.90
8.97
9.33
9.92
10.51
10.82
10.70
10.18
9.47
8.82
8.37
8.07
7.78
7.31
6.63
5.83
5.10
4.59
4.30
4.10
3.81
3.31
2.58
1.74
0.92
0.19
-0.48
-1.23
-2.17
-3.35
-4.70
-6.07
-7.31
-8.35
-9.20
-9.96
-10.71
-11.50
-12.38
-13.41
-14.64
-16.08
-17.64
-19.08
-20.08
-20.32
-19.63
-18.02
-15.72
-12.99
-10.10
-7.18
-4.31
-1.51
1.16
3.64
5.82
7.64
9.04
10.06
10.73
11.18
11.53
11.88
12.27
12.66
12.95
13.04
12.93
12.67
12.40
12.22
12.18
12.19
12.15
11.93
11.49
10.84
10.02
9.13
8.23
7.36
6.54
5.77
5.04
4.35
3.71
3.12
2.57
2.03
1.43
0.69
-0.19
-1.16
-2.12
-2.93
-3.55
-4.04
-4.55
-5.23
-6.14
-7.22
-8.34
-9.33
-10.08
-10.63
-11.07
-11.59
-12.31
-13.30
-14.50
-15.82
-17.12
-18.22
-18.94
-19.06
-18.43
-17.01
-14.94
-12.49
-9.95
-7.57
-5.40
-3.39
-1.43
0.56
2.54
4.36
5.85
6.93
7.60
7.95
8.15
8.36
8.67
9.14
9.74
10.37
10.92
11.30
11.45
11.38
11.15
10.87
10.60
10.34
10.03
9.59
8.99
8.29
7.61
7.10
6.78
6.60
6.37
5.96
5.33
4.60
3.92
3.39
2.96
2.46
1.72
0.65
-0.65
-1.97
-3.11
-3.96
-4.57
-5.11
-5.74
-6.52
-7.43
-8.32
-9.09
-9.69
-10.19
-10.79
-11.67
-12.91
-14.47
-16.11
-17.52
-18.38
-18.47
-17.73
-16.21
-14.05
-11.45
-8.64
-5.86
-3.35
-1.25
0.40
1.73
2.87
3.96
5.03
6.04
6.91
7.60
8.14
8.58
8.95
9.23
9.37
9.34
9.20
9.03
8.95
9.03
9.24
9.45
9.49
9.20
8.55
7.64
6.69
5.91
5.41
5.12
4.87
4.45
3.74
2.76
1.66
0.61
-0.28
-1.00
-1.62
-2.26
-3.00
-3.83
-4.70
-5.58
-6.46
-7.36
-8.32
-9.35
-10.45
-11.57
-12.72
-13.92
-15.18
-16.48
-17.65
-18.47
-18.68
-18.12
-16.81
-14.88
-12.55
-10.01
-7.37
-4.70
-2.07
0.40
2.58
4.37
5.71
6.68
7.36
7.85
8.24
8.54
8.75
8.90
9.02
9.15
9.32
9.59
9.96
10.43
10.94
11.40
11.73
11.84
11.73
11.44
11.02
10.53
10.00
9.45
8.91
8.41
7.97
7.55
7.10
6.56
5.91
5.19
4.51
3.96
3.61
3.40
3.18
2.81
2.17
1.28
0.27
-0.66
-1.35
-1.73
-1.88
-1.97
-2.18
-2.61
-3.27
-4.13
-5.12
-6.16
-7.12
-7.78
-7.84
-7.05
-5.32
-2.77
0.22
3.22
5.84
7.90
9.41
10.51
11.42
12.30
13.24
14.19
15.04
15.64
15.85
15.61
14.98
14.14
13.30
12.58
12.01
11.45
10.74
9.74
8.47
7.08
5.74
4.58
3.59
2.74
1.93
1.14
0.40
-0.23
-0.69
-0.99
-1.19
-1.42
-1.79
-2.34
-3.08
-3.89
-4.65
-5.23
-5.60
-5.84
-6.12
-6.62
-7.40
-8.38
-9.39
-10.30
-11.03
-11.64
-12.24
-12.86
-13.49
-14.06
-14.54
-14.99
-15.52
-16.21
-16.98
-17.61
-17.78
-17.28
-16.08
-14.32
-12.31
-10.34
-8.59
-7.12
-5.84
-4.63
-3.35
-1.96
-0.51
0.90
2.14
3.11
3.76
4.11
4.22
4.13
3.88
3.49
3.02
2.60
2.36
2.39
2.66
3.00
3.16
2.92
2.17
1.03
-0.26
-1.42
-2.31
-2.94
-3.47
-4.11
-4.96
-5.94
-6.88
-7.59
-8.01
-8.24
-8.47
-8.88
-9.58
-10.51
-11.56
-12.58
-13.51
-14.29
-14.93
-15.37
-15.53
-15.21
-14.27
-12.65
-10.43
-7.89
-5.37
-3.19
-1.51
-0.29
0.64
1.46
2.31
3.19
4.04
4.78
5.37
5.85
6.25
6.65
7.04
7.41
7.68
7.80
7.80
7.75
7.74
7.88
8.13
8.41
8.57
8.51
8.19
7.68
7.07
6.40
5.68
4.89
4.07
3.29
2.65
2.19
1.89
1.60
1.13
0.35
-0.81
-2.27
-3.91
-5.56
-7.09
-8.43
-9.57
-10.59
-11.58
-12.62
-13.79
-15.08
-16.44
-17.73
-18.74
-19.22
-19.00
-17.96
-16.19
-13.88
-11.30
-8.70
-6.23
-3.94
-1.83
0.12
1.89
3.43
4.66
5.54
6.10
6.44
6.67
6.93
7.30
7.79
8.39
9.06
9.75
10.42
11.05
11.59
12.03
12.33
12.46
12.39
12.11
11.68
11.18
10.71
10.35
10.06
9.72
9.17
8.31
7.15
5.91
4.82
4.06
3.63
3.33
2.89
2.08
0.86
-0.65
-2.23
-3.67
-4.87
-5.86
-6.77
-7.67
-8.63
-9.63
-10.72
-12.03
-13.68
-15.72
-17.98
-20.07
-21.50
-21.86
-20.99
-19.02
-16.29
-13.24
-10.22
-7.47
-5.09
-3.09
-1.43
-0.00
1.30
2.57
3.84
5.07
6.16
7.08
7.81
8.43
9.00
9.58
10.18
10.81
11.45
12.07
12.63
13.05
13.22
13.09
12.58
11.75
10.70
9.60
8.62
7.84
7.28
6.88
6.52
6.10
5.55
4.86
4.04
3.09
2.04
0.89
-0.31
-1.50
-2.64
-3.67
-4.64
-5.59
-6.57
-7.62
-8.77
-9.98
-11.27
-12.65
-14.14
-15.74
-17.35
-18.79
-19.78
-20.01
-19.25
-17.46
-14.79
-11.57
-8.19
-4.98
-2.14
0.27
2.30
4.03
5.54
6.86
7.97
8.89
9.65
10.31
10.97
11.67
12.39
13.06
13.60
13.97
14.16
14.23
14.25
14.23
14.13
13.90
13.49
12.92
12.20
11.40
10.58
9.78
9.06
8.43
7.89
7.43
7.03
6.65
6.27
5.84
5.28
4.53
3.56
2.44
1.30
0.33
-0.41
-0.99
-1.62
-2.51
-3.74
-5.21
-6.70
-7.99
-9.04
-9.96
-10.98
-12.28
-13.91
-15.73
-17.47
-18.86
-19.66
-19.74
-19.06
-17.66
-15.66
-13.22
-10.50
-7.67
-4.87
-2.21
0.21
2.36
4.20
5.77
7.05
8.07
8.83
9.33
9.62
9.78
9.91
10.09
10.35
10.69
11.08
11.49
11.87
12.19
12.36
12.30
11.93
11.23
10.26
9.15
8.05
7.08
6.30
5.69
5.19
4.72
4.22
3.67
3.04
2.37
1.64
0.85
-0.03
-1.02
-2.10
-3.25
-4.41
-5.53
-6.60
-7.60
-8.55
-9.51
-10.55
-11.76
-13.22
-14.90
-16.64
-18.08
-18.84
-18.57
-17.18
-14.85
-11.97
-8.99
-6.22
-3.79
-1.67
0.25
2.00
3.55
4.83
5.80
6.50
7.02
7.45
7.85
8.23
8.55
8.81
9.04
9.23
9.38
9.45
9.41
9.27
9.07
8.88
8.69
8.48
8.16
7.68
7.06
6.36
5.65
5.00
4.42
3.88
3.37
2.85
2.32
1.77
1.15
0.43
-0.42
-1.44
-2.60
-3.87
-5.18
-6.51
-7.82
-9.09
-10.36
-11.64
-13.03
-14.56
-16.26
-18.05
-19.73
-21.00
-21.53
-21.08
-19.63
-17.36
-14.60
-11.71
-8.94
-6.37
-3.99
-1.77
0.27
2.06
3.57
4.83
5.94
7.01
8.08
9.10
10.01
10.72
11.26
11.65
11.95
12.17
12.26
12.26
12.16
12.04
11.93
11.83
11.67
11.38
10.91
10.26
9.52
8.77
8.07
7.40
6.72
5.95
5.05
4.05
3.01
2.07
1.30
0.71
0.24
-0.28
-0.99
-1.99
-3.23
-4.56
-5.77
-6.74
-7.49
-8.16
-8.97
-10.06
-11.45
-13.05
-14.75
-16.49
-18.22
-19.86
-21.20
-21.89
-21.56
-20.03
-17.41
-14.12
-10.65
-7.46
-4.74
-2.46
-0.46
1.42
3.22
4.94
6.48
7.81
8.90
9.77
10.41
10.85
11.13
11.32
11.53
11.83
12.24
12.69
13.05
13.19
13.04
12.58
11.86
10.94
9.92
8.87
7.85
6.92
6.12
5.43
4.83
4.25
3.63
2.89
1.99
0.93
-0.25
-1.46
-2.64
-3.79
-4.92
-6.11
-7.41
-8.82
-10.30
-11.78
-13.25
-14.74
-16.26
-17.72
-18.93
-19.59
-19.41
-18.22
-16.09
-13.29
-10.15
-6.95
-3.87
-0.96
1.73
4.10
6.01
7.37
8.18
8.61
8.94
9.43
10.21
11.20
12.16
12.82
13.01
12.74
12.18
11.61
11.25
11.20
11.37
11.55
11.56
11.29
10.76
10.07
9.32
8.50
7.57
6.45
5.12
3.67
2.27
1.05
0.07
-0.75
-1.57
-2.56
-3.81
-5.31
-6.93
-8.56
-10.08
-11.51
-12.89
-14.32
-15.88
-17.58
-19.35
-21.01
-22.31
-22.94
-22.65
-21.23
-18.69
-15.26
-11.32
-7.30
-3.56
-0.27
2.56
5.03
7.25
9.28
11.11
12.68
13.96
14.92
15.55
15.85
15.87
15.65
15.33
15.01
14.80
14.70
14.67
14.63
14.54
14.38
14.17
13.88
13.48
12.89
12.11
11.22
10.34
9.57
8.92
8.26
7.43
6.30
4.85
3.20
1.53
-0.01
-1.34
-2.47
-3.48
-4.45
-5.45
-6.55
-7.76
-9.07
-10.39
-11.64
-12.80
-13.88
-15.03
-16.44
-18.23
-20.39
-22.72
-24.82
-26.26
-26.71
-26.05
-24.41
-22.08
-19.35
-16.41
-13.32
-10.08
-6.72
-3.37
-0.27
2.39
4.50
6.15
7.53
8.81
10.08
11.34
12.48
13.42
14.14
14.64
15.00
15.31
15.61
15.90
16.13
16.19
16.02
15.57
14.89
14.10
13.35
12.70
12.15
11.59
10.90
10.01
8.92
7.75
6.65
5.67
4.81
3.95
2.97
1.79
0.43
-1.03
-2.51
-3.94
-5.33
-6.65
-7.83
-8.78
-9.50
-10.07
-10.76
-11.86
-13.58
-15.89
-18.50
-20.92
-22.64
-23.29
-22.71
-21.01
-18.43
-15.29
-11.85
-8.37
-5.04
-2.01
0.60
2.75
4.46
5.82
6.92
7.87
8.73
9.53
10.31
11.06
11.79
12.43
12.88
13.09
13.07
12.90
12.69
12.52
12.37
12.16
11.79
11.17
10.29
9.17
7.93
6.70
5.59
4.68
3.94
3.24
2.42
1.32
-0.06
-1.62
-3.14
-4.44
-5.48
-6.32
-7.14
-8.10
-9.30
-10.69
-12.22
-13.85
-15.58
-17.45
-19.38
-21.13
-22.30
-22.49
-21.46
-19.26
-16.21
-12.79
-9.38
-6.18
-3.19
-0.33
2.47
5.18
7.69
9.86
11.63
12.99
13.99
14.71
15.23
15.58
15.80
15.87
15.82
15.64
15.38
15.09
14.83
14.59
14.31
13.92
13.37
12.68
11.93
11.21
10.61
10.12
9.68
9.20
8.60
7.82
6.82
5.65
4.39
3.17
2.09
1.22
0.52
-0.11
-0.83
-1.79
-3.05
-4.57
-6.21
-7.79
-9.17
-10.33
-11.31
-12.25
-13.29
-14.54
-16.02
-17.65
-19.28
-20.69
-21.67
-21.95
-21.38
-19.90
-17.59
-14.70
-11.52
-8.32
-5.25
-2.36
0.41
3.07
5.59
7.81
9.60
10.90
11.76
12.35
12.87
13.44
14.08
14.68
15.13
15.34
15.31
15.15
14.94
14.77
14.59
14.30
13.79
13.00
12.01
10.94
9.97
9.17
8.53
7.92
7.23
6.38
5.37
4.26
3.12
2.00
0.90
-0.19
-1.27
-2.30
-3.27
-4.17
-5.06
-6.02
-7.07
-8.21
-9.36
-10.45
-11.41
-12.29
-13.16
-14.13
-15.26
-16.59
-18.08
-19.60
-21.03
-22.18
-22.86
-22.85
-21.99
-20.24
-17.69
-14.61
-11.34
-8.17
-5.27
-2.69
-0.37
1.76
3.70
5.39
6.77
7.82
8.58
9.11
9.50
9.80
10.01
10.12
10.14
10.07
9.93
9.72
9.50
9.29
9.16
9.10
9.05
8.88
8.45
7.69
6.66
5.47
4.26
3.11
2.03
0.96
-0.16
-1.35
-2.59
-3.85
-5.09
-6.31
-7.49
-8.62
-9.71
-10.77
-11.89
-13.17
-14.69
-16.41
-18.15
-19.62
-20.48
-20.46
-19.41
-17.39
-14.62
-11.40
-8.06
-4.85
-1.97
0.49
2.51
4.12
5.43
6.55
7.60
8.57
9.45
10.17
10.72
11.14
11.51
11.89
12.29
12.63
12.81
12.77
12.53
12.20
11.88
11.61
11.31
10.90
10.27
9.43
8.45
7.43
6.45
5.48
4.46
3.33
2.07
0.74
-0.56
-1.77
-2.90
-4.02
-5.22
-6.55
-7.97
-9.41
-10.81
-12.19
-13.62
-15.21
-16.96
-18.69
-20.09
-20.82
-20.64
-19.52
-17.61
-15.21
-12.59
-9.91
-7.25
-4.56
-1.86
0.82
3.35
5.59
7.39
8.72
9.62
10.21
10.67
11.09
11.47
11.75
11.86
11.80
11.70
11.74
12.02
12.50
13.01
13.31
13.24
12.79
12.08
11.26
10.44
9.56
8.53
7.31
5.92
4.56
3.44
2.68
2.27
1.99
1.57
0.83
-0.32
-1.76
-3.33
-4.91
-6.43
-7.88
-9.25
-10.47
-11.47
-12.22
-12.79
-13.40
-14.31
-15.69
-17.50
-19.43
-21.01
-21.79
-21.45
-19.94
-17.48
-14.41
-11.11
-7.88
-4.88
-2.19
0.17
2.19
3.92
5.40
6.70
7.95
9.19
10.42
11.53
12.40
12.94
13.16
13.17
13.14
13.20
13.37
13.56
13.62
13.44
13.02
12.42
11.75
11.09
10.46
9.83
9.15
8.40
7.59
6.77
5.98
5.20
4.41
3.55
2.58
1.50
0.32
-0.88
-2.06
-3.19
-4.26
-5.27
-6.24
-7.19
-8.16
-9.19
-10.33
-11.65
-13.15
-14.81
-16.49
-18.00
-19.08
-19.46
-18.92
-17.37
-14.91
-11.81
-8.48
-5.28
-2.46
-0.09
1.90
3.64
5.19
6.53
7.58
8.30
8.67
8.79
8.82
8.90
9.14
9.54
10.04
10.52
10.85
10.97
10.88
10.66
10.35
9.96
9.42
8.66
7.64
6.44
5.21
4.11
3.24
2.55
1.91
1.17
0.23
-0.94
-2.23
-3.52
-4.70
-5.70
-6.55
-7.32
-8.15
-9.17
-10.49
-12.14
-14.09
-16.20
-18.19
-19.76
-20.60
-20.49
-19.38
-17.40
-14.83
-11.97
-9.10
-6.40
-3.93
-1.68
0.40
2.34
4.17
5.87
7.35
8.55
9.42
10.00
10.41
10.79
11.24
11.75
12.19
12.45
12.45
12.23
11.88
11.50
11.17
10.88
10.64
10.42
10.20
9.93
9.52
8.88
7.97
6.88
5.76
4.80
4.07
3.55
3.08
2.50
1.68
0.62
-0.62
-1.92
-3.21
-4.46
-5.67
-6.83
-7.91
-8.83
-9.57
-10.21
-10.87
-11.75
-12.97
-14.54
-16.35
-18.20
-19.83
-21.00
-21.52
-21.23
-20.07
-18.09
-15.47
-12.44
-9.28
-6.22
-3.38
-0.80
1.50
3.53
5.22
6.55
7.50
8.12
8.55
8.94
9.39
9.93
10.49
10.97
11.29
11.44
11.45
11.43
11.42
11.47
11.56
11.61
11.56
11.32
10.84
10.12
9.21
8.22
7.28
6.46
5.78
5.18
4.60
3.97
3.29
2.57
1.84
1.07
0.20
-0.82
-1.99
-3.23
-4.41
-5.45
-6.35
-7.17
-8.05
-9.09
-10.34
-11.79
-13.39
-15.06
-16.67
-18.06
-19.00
-19.28
-18.71
-17.25
-15.00
-12.22
-9.21
-6.30
-3.70
-1.52
0.26
1.75
3.08
4.37
5.65
6.89
8.00
8.87
9.41
9.62
9.55
9.31
9.07
8.95
8.98
9.11
9.23
9.24
9.11
8.88
8.58
8.23
7.74
7.04
6.08
5.00
4.01
3.30
2.93
2.75
2.50
1.89
0.82
-0.60
-2.13
-3.52
-4.68
-5.69
-6.73
-7.95
-9.38
-10.92
-12.44
-13.88
-15.26
-16.67
-18.10
-19.40
-20.22
-20.19
-19.03
-16.76
-13.65
-10.16
-6.76
-3.77
-1.27
0.77
2.49
3.95
5.15
6.04
6.62
6.96
7.24
7.64
8.27
9.14
10.12
10.99
11.59
11.87
11.89
11.80
11.74
11.81
11.94
12.01
11.90
11.53
10.91
10.14
9.30
8.45
7.56
6.59
5.50
4.32
3.11
1.94
0.86
-0.18
-1.26
-2.45
-3.73
-4.99
-6.13
-7.09
-7.93
-8.84
-10.00
-11.56
-13.51
-15.67
-17.77
-19.50
-20.54
-20.69
-19.83
-18.02
-15.41
-12.26
-8.88
-5.55
-2.50
0.13
2.31
4.09
5.59
6.95
8.28
9.61
10.87
11.98
12.82
13.37
13.66
13.80
13.86
13.90
13.89
13.81
13.63
13.35
13.01
12.63
12.21
11.71
11.06
10.26
9.34
8.37
7.42
6.51
5.62
4.68
3.66
2.60
1.58
0.70
-0.03
-0.70
-1.48
-2.60
-4.13
-5.99
-7.93
-9.67
-10.99
-11.90
-12.59
-13.33
-14.38
-15.82
-17.56
-19.38
-21.04
-22.28
-22.91
-22.75
-21.72
-19.80
-17.15
-14.04
-10.83
-7.81
-5.18
-2.93
-0.96
0.83
2.46
3.88
4.99
5.79
6.33
6.77
7.21
7.72
8.28
8.83
9.34
9.80
10.19
10.51
10.70
10.72
10.52
10.14
9.62
9.00
8.28
7.44
6.48
5.47
4.44
3.42
2.36
1.18
-0.15
-1.59
-3.02
-4.29
-5.32
-6.16
-6.94
-7.86
-9.06
-10.59
-12.41
-14.43
-16.47
-18.28
-19.56
-20.04
-19.51
-17.96
-15.54
-12.51
-9.16
-5.76
-2.51
0.48
3.14
5.48
7.56
9.45
11.18
12.73
14.01
14.93
15.43
15.54
15.37
15.09
14.84
14.69
14.65
14.62
14.48
14.12
13.53
12.77
11.97
11.24
10.64
10.12
9.57
8.87
7.97
6.89
5.70
4.52
3.41
2.39
1.45
0.52
-0.47
-1.60
-2.91
-4.40
-5.98
-7.55
-8.98
-10.21
-11.27
-12.27
-13.39
-14.77
-16.44
-18.28
-20.01
-21.25
-21.65
-21.00
-19.32
-16.79
-13.75
-10.52
-7.31
-4.28
-1.51
0.92
2.95
4.56
5.81
6.83
7.73
8.58
9.38
10.06
10.56
10.86
11.03
11.15
11.31
11.60
12.03
12.56
13.04
13.29
13.17
12.62
11.74
10.74
9.83
9.16
8.77
8.55
8.35
7.99
7.35
6.39
5.14
3.71
2.22
0.81
-0.45
-1.53
-2.46
-3.32
-4.20
-5.17
-6.27
-7.47
-8.69
-9.83
-10.81
-11.66
-12.53
-13.62
-15.07
-16.85
-18.76
-20.41
-21.40
-21.41
-20.34
-18.25
-15.39
-12.12
-8.84
-5.85
-3.31
-1.20
0.59
2.26
3.89
5.47
6.90
8.07
8.92
9.45
9.72
9.79
9.75
9.66
9.65
9.82
10.22
10.80
11.39
11.79
11.81
11.41
10.64
9.68
8.69
7.79
7.00
6.31
5.61
4.81
3.82
2.59
1.16
-0.36
-1.86
-3.20
-4.33
-5.26
-6.01
-6.67
-7.29
-7.98
-8.88
-10.15
-11.88
-14.01
-16.25
-18.14
-19.17
-18.96
-17.39
-14.69
-11.34
-7.86
-4.72
-2.13
-0.08
1.58
3.04
4.43
5.75
6.95
7.95
8.69
9.16
9.37
9.43
9.41
9.44
9.58
9.85
10.21
10.58
10.86
11.03
11.07
10.99
10.76
10.28
9.50
8.38
7.01
5.55
4.16
2.96
1.96
1.09
0.20
-0.78
-1.92
-3.18
-4.48
-5.77
-7.00
-8.22
-9.48
-10.82
-12.30
-13.87
-15.51
-17.14
-18.67
-19.97
-20.86
-21.16
-20.71
-19.48
-17.53
-15.03
-12.20
-9.28
-6.41
-3.74
-1.30
0.88
2.84
4.58
6.11
7.37
8.36
9.12
9.77
10.46
11.27
12.16
12.93
13.35
13.34
12.98
12.51
12.21
12.24
12.51
12.80
12.84
12.51
11.82
10.95
10.05
9.23
8.47
7.69
6.79
5.77
4.74
3.83
3.13
2.60
2.09
1.39
0.38
-0.94
-2.44
-3.94
-5.28
-6.45
-7.47
-8.42
-9.42
-10.52
-11.83
-13.40
-15.27
-17.34
-19.38
-21.05
-22.03
-22.03
-20.99
-18.98
-16.25
-13.11
-9.85
-6.72
-3.84
-1.29
0.95
2.89
4.54
5.88
6.94
7.77
8.46
9.09
9.73
10.39
11.05
11.67
12.22
12.66
12.96
13.10
13.07
12.93
12.73
12.52
12.34
12.16
11.92
11.58
11.09
10.41
9.51
8.36
6.99
5.51
4.06
2.79
1.80
1.10
0.64
0.29
-0.08
-0.60
-1.41
-2.57
-4.08
-5.80
-7.52
-9.04
-10.26
-11.23
-12.13
-13.21
-14.58
-16.28
-18.10
-19.75
-20.89
-21.24
-20.64
-19.08
-16.69
-13.76
-10.58
-7.48
-4.69
-2.36
-0.53
0.89
2.07
3.15
4.29
5.49
6.70
7.81
8.75
9.53
10.20
10.81
11.34
11.72
11.87
11.74
11.40
10.99
10.64
10.42
10.28
10.11
9.81
9.30
8.60
7.72
6.69
5.55
4.35
3.20
2.15
1.20
0.27
-0.79
-2.07
-3.57
-5.18
-6.73
-8.08
-9.20
-10.19
-11.19
-12.38
-13.84
-15.57
-17.50
-19.44
-21.14
-22.30
-22.60
-21.85
-20.05
-17.40
-14.24
-10.95
-7.82
-4.98
-2.41
-0.04
2.21
4.26
6.03
7.39
8.35
9.03
9.60
10.24
10.99
11.79
12.51
13.03
13.34
13.46
13.50
13.54
13.63
13.75
13.84
13.81
13.57
13.07
12.30
11.36
10.35
9.42
8.63
7.96
7.30
6.57
5.68
4.64
3.49
2.30
1.13
0.02
-1.00
-1.96
-2.91
-3.91
-5.00
-6.18
-7.40
-8.64
-9.90
-11.24
-12.76
-14.53
-16.51
-18.58
-20.49
-22.00
-22.86
-22.88
-21.94
-20.04
-17.34
-14.16
-10.88
-7.89
-5.37
-3.28
-1.39
0.51
2.55
4.63
6.54
8.07
9.11
9.74
10.14
10.46
10.83
11.25
11.71
12.21
12.71
13.21
13.66
13.99
14.13
14.03
13.70
13.20
12.54
11.77
10.92
10.04
9.20
8.48
7.88
7.37
6.87
6.30
5.62
4.86
4.05
3.22
2.38
1.52
0.67
-0.19
-1.09
-2.10
-3.30
-4.74
-6.35
-7.97
-9.43
-10.63
-11.61
-12.60
-13.87
-15.58
-17.66
-19.81
-21.57
-22.49
-22.28
-20.88
-18.49
-15.47
-12.20
-9.04
-6.18
-3.67
-1.51
0.35
1.95
3.30
4.43
5.39
6.23
7.02
7.80
8.57
9.32
10.02
10.63
11.15
11.56
11.82
11.91
11.81
11.51
11.06
10.52
9.93
9.31
8.67
8.02
7.35
6.68
5.98
5.22
4.35
3.33
2.15
0.88
-0.41
-1.64
-2.75
-3.72
-4.60
-5.44
-6.33
-7.32
-8.43
-9.71
-11.18
-12.85
-14.72
-16.66
-18.45
-19.74
-20.19
-19.55
-17.77
-15.06
-11.82
-8.55
-5.61
-3.20
-1.27
0.36
1.94
3.59
5.32
7.01
8.52
9.77
10.78
11.61
12.33
12.93
13.34
13.48
13.39
13.16
12.97
12.91
13.00
13.13
13.18
13.06
12.76
12.35
11.89
11.43
10.93
10.35
9.63
8.75
7.74
6.65
5.56
4.52
3.57
2.69
1.82
0.87
-0.26
-1.64
-3.25
-4.99
-6.71
-8.25
-9.54
-10.59
-11.52
-12.52
-13.73
-15.24
-17.02
-18.91
-20.69
-22.08
-22.81
-22.63
-21.47
-19.37
-16.56
-13.35
-10.04
-6.88
-3.97
-1.30
1.13
3.32
5.24
6.79
7.94
8.73
9.29
9.81
10.44
11.24
12.12
12.90
13.40
13.49
13.21
12.75
12.32
12.10
12.10
12.21
12.25
12.11
11.75
11.26
10.73
10.21
9.69
9.11
8.44
7.72
7.04
6.46
5.98
5.51
4.90
4.08
3.04
1.85
0.60
-0.65
-1.91
-3.25
-4.68
-6.18
-7.64
-8.98
-10.15
-11.23
-12.37
-13.72
-15.34
-17.16
-18.98
-20.49
-21.41
-21.55
-20.84
-19.36
-17.28
-14.81
-12.18
-9.57
-7.07
-4.69
-2.41
-0.22
1.85
3.71
5.29
6.56
7.56
8.37
9.08
9.71
10.25
10.66
10.94
11.16
11.38
11.65
11.91
12.07
12.06
11.85
11.50
11.07
10.58
10.03
9.41
8.72
8.00
7.26
6.54
5.79
4.98
4.08
3.14
2.22
1.36
0.57
-0.20
-1.02
-1.98
-3.15
-4.56
-6.13
-7.74
-9.22
-10.46
-11.46
-12.41
-13.56
-15.10
-16.99
-18.93
-20.48
-21.16
-20.69
-19.07
-16.54
-13.51
-10.37
-7.44
-4.86
-2.61
-0.60
1.31
3.21
5.10
6.93
8.58
9.96
11.02
11.75
12.19
12.37
12.37
12.28
12.22
12.31
12.61
13.10
13.65
14.07
14.18
13.89
13.23
12.31
11.31
10.35
9.44
8.55
7.62
6.63
5.66
4.78
4.05
3.42
2.79
2.03
1.08
-0.03
-1.21
-2.36
-3.41
-4.37
-5.29
-6.28
-7.37
-8.60
-9.93
-11.25
-12.49
-13.58
-14.59
-15.62
-16.80
-18.12
-19.44
-20.50
-21.00
-20.77
-19.75
-18.06
-15.83
-13.18
-10.24
-7.15
-4.11
-1.34
0.98
2.80
4.20
5.35
6.40
7.40
8.32
9.09
9.70
10.20
10.69
11.25
11.92
12.61
13.25
13.72
13.93
13.84
13.48
12.92
12.25
11.55
10.87
10.19
9.47
8.66
7.77
6.84
5.94
5.10
4.31
3.52
2.70
1.86
1.07
0.38
-0.24
-0.91
-1.79
-2.98
-4.46
-6.04
-7.50
-8.68
-9.60
-10.45
-11.45
-12.80
-14.51
-16.40
-18.21
-19.64
-20.46
-20.54
-19.84
-18.43
-16.40
-13.93
-11.17
-8.29
-5.46
-2.77
-0.32
1.85
3.73
5.30
6.57
7.54
8.23
8.68
8.96
9.15
9.37
9.68
10.12
10.62
11.05
11.27
11.15
10.66
9.91
9.07
8.33
7.79
7.42
7.08
6.60
5.86
4.90
3.84
2.81
1.91
1.09
0.23
-0.75
-1.90
-3.12
-4.30
-5.31
-6.13
-6.82
-7.50
-8.32
-9.37
-10.65
-12.12
-13.74
-15.47
-17.23
-18.87
-20.11
-20.60
-20.00
-18.18
-15.31
-11.87
-8.40
-5.35
-2.86
-0.80
1.05
2.86
4.60
6.12
7.28
8.08
8.68
9.28
9.98
10.72
11.36
11.73
11.83
11.74
11.66
11.72
11.95
12.28
12.53
12.53
12.14
11.37
10.32
9.17
8.11
7.27
6.61
6.03
5.38
4.57
3.60
2.53
1.45
0.42
-0.58
-1.61
-2.69
-3.82
-4.97
-6.08
-7.15
-8.24
-9.46
-10.93
-12.70
-14.72
-16.79
-18.66
-20.11
-20.91
-20.95
-20.21
-18.72
-16.58
-13.98
-11.14
-8.25
-5.41
-2.63
0.13
2.88
5.53
7.89
9.77
11.04
11.72
11.96
12.00
12.01
12.11
12.29
12.52
12.74
12.92
13.05
13.12
13.11
12.94
12.57
11.99
11.25
10.46
9.73
9.11
8.55
7.98
7.31
6.50
5.57
4.55
3.45
2.28
1.02
-0.31
-1.68
-3.07
-4.46
-5.86
-7.24
-8.51
-9.56
-10.34
-10.89
-11.42
-12.22
-13.51
-15.31
-17.40
-19.39
-20.89
-21.60
-21.41
-20.35
-18.52
-16.03
-13.00
-9.57
-5.98
-2.51
0.54
3.05
5.04
6.71
8.25
9.77
11.23
12.46
13.32
13.78
13.98
14.14
14.43
14.85
15.24
15.40
15.18
14.61
13.87
13.15
12.56
12.09
11.59
10.93
10.03
8.91
7.67
6.43
5.28
4.26
3.38
2.58
1.80
0.98
0.09
-0.90
-1.98
-3.14
-4.37
-5.66
-6.96
-8.20
-9.34
-10.37
-11.39
-12.53
-13.91
-15.53
-17.23
-18.65
-19.40
-19.19
-17.93
-15.81
-13.16
-10.35
-7.65
-5.23
-3.07
-1.14
0.60
2.15
3.44
4.45
5.19
5.74
6.25
6.85
7.59
8.45
9.27
9.84
10.03
9.83
9.39
8.94
8.67
8.65
8.78
8.81
8.53
7.84
6.81
5.63
4.56
3.74
3.17
2.73
2.22
1.47
0.35
-1.14
-2.92
-4.81
-6.60
-8.12
-9.30
-10.20
-10.98
-11.87
-13.03
-14.52
-16.25
-17.99
-19.45
-20.30
-20.31
-19.40
-17.62
-15.17
-12.32
-9.31
-6.31
-3.42
-0.66
1.90
4.22
6.21
7.79
8.96
9.76
10.29
10.68
11.05
11.46
11.93
12.43
12.88
13.23
13.41
13.40
13.16
12.73
12.15
11.50
10.92
10.51
10.25
10.06
9.74
9.12
8.15
6.90
5.55
4.32
3.28
2.43
1.63
0.78
-0.20
-1.28
-2.41
-3.55
-4.69
-5.87
-7.14
-8.52
-10.01
-11.56
-13.08
-14.52
-15.87
-17.12
-18.28
-19.27
-19.94
-20.03
-19.33
-17.73
-15.38
-12.54
-9.55
-6.67
-4.00
-1.53
0.80
2.98
4.92
6.52
7.71
8.59
9.30
10.01
10.81
11.63
12.32
12.77
12.91
12.84
12.67
12.51
12.35
12.10
11.69
11.12
10.47
9.86
9.36
8.94
8.46
7.79
6.87
5.74
4.53
3.38
2.39
1.57
0.87
0.17
-0.59
-1.47
-2.44
-3.47
-4.50
-5.50
-6.52
-7.65
-8.99
-10.56
-12.33
-14.17
-15.95
-17.53
-18.78
-19.57
-19.77
-19.24
-17.96
-15.99
-13.53
-10.85
-8.18
-5.67
-3.38
-1.24
0.82
2.81
4.65
6.21
7.37
8.11
8.55
8.91
9.40
10.12
10.96
11.72
12.17
12.22
11.96
11.59
11.29
11.11
10.92
10.52
9.74
8.61
7.28
6.02
4.98
4.21
3.57
2.90
2.03
0.94
-0.34
-1.68
-3.00
-4.26
-5.45
-6.60
-7.73
-8.85
-9.97
-11.14
-12.42
-13.84
-15.38
-16.87
-18.05
-18.57
-18.20
-16.87
-14.74
-12.16
-9.46
-6.90
-4.57
-2.42
-0.35
1.70
3.70
5.55
7.14
8.42
9.39
10.15
10.82
11.51
12.20
12.84
13.31
13.52
13.49
13.27
13.00
12.75
12.53
12.26
11.84
11.21
10.43
9.57
8.73
7.92
7.10
6.20
5.19
4.11
3.07
2.15
1.39
0.68
-0.12
-1.17
-2.50
-4.03
-5.59
-7.02
-8.27
-9.42
-10.62
-12.03
-13.68
-15.55
-17.48
-19.29
-20.75
-21.68
-21.85
-21.13
-19.50
-17.09
-14.18
-11.15
-8.30
-5.80
-3.64
-1.67
0.30
2.34
4.44
6.43
8.13
9.45
10.37
10.99
11.42
11.70
11.88
11.93
11.86
11.71
11.57
11.50
11.54
11.63
11.68
11.58
11.24
10.68
9.99
9.28
8.64
8.09
7.53
6.84
5.93
4.81
3.61
2.50
1.59
0.84
0.13
-0.72
-1.84
-3.22
-4.73
-6.22
-7.56
-8.74
-9.83
-10.95
-12.19
-13.61
-15.21
-16.93
-18.65
-20.21
-21.37
-21.87
-21.51
-20.21
-18.06
-15.27
-12.14
-8.96
-5.95
-3.23
-0.87
1.12
2.79
4.22
5.47
6.56
7.47
8.19
8.75
9.22
9.76
10.45
11.28
12.10
12.73
13.00
12.87
12.43
11.78
11.02
10.18
9.25
8.21
7.10
6.01
5.05
4.25
3.61
3.04
2.42
1.68
0.77
-0.30
-1.49
-2.75
-4.00
-5.21
-6.40
-7.63
-9.01
-10.62
-12.49
-14.53
-16.55
-18.27
-19.45
-19.86
-19.40
-18.08
-15.99
-13.33
-10.37
-7.42
-4.70
-2.33
-0.28
1.56
3.33
5.08
6.75
8.24
9.46
10.41
11.15
11.78
12.34
12.80
13.07
13.08
12.83
12.41
11.99
11.67
11.49
11.37
11.15
10.70
9.97
9.01
7.92
6.83
5.81
4.88
4.07
3.37
2.77
2.19
1.53
0.67
-0.45
-1.80
-3.23
-4.55
-5.63
-6.46
-7.16
-7.93
-8.95
-10.30
-11.94
-13.71
-15.47
-17.10
-18.47
-19.50
-20.05
-19.97
-19.13
-17.48
-15.11
-12.26
-9.23
-6.32
-3.71
-1.42
0.61
2.51
4.33
6.07
7.64
8.95
9.93
10.64
11.18
11.68
12.19
12.69
13.09
13.28
13.24
13.02
12.69
12.31
11.89
11.39
10.77
10.05
9.29
8.61
8.04
7.55
7.02
6.33
5.42
4.34
3.20
2.13
1.19
0.34
-0.54
-1.58
-2.83
-4.27
-5.75
-7.13
-8.35
-9.43
-10.46
-11.58
-12.90
-14.48
-16.26
-18.10
-19.76
-20.94
-21.36
-20.87
-19.50
-17.43
-14.93
-12.25
-9.54
-6.87
-4.27
-1.79
0.48
2.47
4.14
5.52
6.67
7.64
8.50
9.26
9.95
10.57
11.14
11.64
12.07
12.38
12.54
12.52
12.33
12.00
11.60
11.20
10.84
10.49
10.07
9.43
8.52
7.35
6.08
4.87
3.82
2.91
2.03
1.05
-0.09
-1.32
-2.51
-3.57
-4.48
-5.36
-6.32
-7.45
-8.74
-10.08
-11.37
-12.58
-13.77
-15.03
-16.36
-17.65
-18.60
-18.89
-18.27
-16.71
-14.37
-11.55
-8.56
-5.58
-2.69
0.07
2.65
4.94
6.81
8.20
9.11
9.63
9.91
10.09
10.26
10.46
10.67
10.85
10.98
11.06
11.12
11.17
11.19
11.14
10.97
10.64
10.14
9.48
8.70
7.77
6.72
5.55
4.37
3.29
2.40
1.71
1.09
0.34
-0.71
-2.13
-3.80
-5.53
-7.10
-8.39
-9.42
-10.33
-11.32
-12.54
-14.09
-15.92
-17.89
-19.79
-21.32
-22.16
-22.07
-20.91
-18.77
-15.91
-12.71
-9.55
-6.66
-4.11
-1.83
0.30
2.34
4.25
5.95
7.33
8.41
9.28
10.09
10.95
11.85
12.68
13.27
13.50
13.41
13.12
12.81
12.61
12.51
12.39
12.08
11.47
10.59
9.56
8.52
7.60
6.79
6.01
5.17
4.21
3.15
2.07
1.04
0.11
-0.76
-1.63
-2.58
-3.68
-4.92
-6.29
-7.71
-9.12
-10.44
-11.66
-12.87
-14.22
-15.87
-17.86
-20.00
-21.90
-23.07
-23.13
-21.95
-19.70
-16.77
-13.56
-10.34
-7.23
-4.20
-1.22
1.66
4.30
6.54
8.26
9.45
10.23
10.74
11.16
11.58
12.08
12.67
13.34
14.04
14.68
15.18
15.43
15.34
14.92
14.23
13.40
12.53
11.69
10.87
10.03
9.10
8.06
6.93
5.77
4.67
3.71
2.88
2.11
1.27
0.21
-1.12
-2.69
-4.34
-5.90
-7.29
-8.48
-9.58
-10.74
-12.05
-13.52
-15.09
-16.68
-18.22
-19.67
-20.96
-21.95
-22.42
-22.17
-21.08
-19.17
-16.61
-13.66
-10.55
-7.45
-4.43
-1.56
1.12
3.47
5.36
6.71
7.55
8.05
8.41
8.82
9.36
10.00
10.64
11.20
11.60
11.85
11.96
11.93
11.75
11.42
10.92
10.29
9.55
8.73
7.81
6.77
5.56
4.15
2.57
0.90
-0.71
-2.15
-3.33
-4.28
-5.13
-6.03
-7.11
-8.42
-9.96
-11.73
-13.74
-15.95
-18.24
-20.31
-21.72
-22.07
-21.11
-18.92
-15.82
-12.28
-8.70
-5.31
-2.18
0.73
3.46
5.99
8.22
10.06
11.45
12.37
12.90
13.17
13.34
13.58
13.97
14.50
15.07
15.51
15.72
15.68
15.47
15.19
14.91
14.59
14.14
13.47
12.58
11.52
10.41
9.32
8.23
7.10
5.87
4.56
3.26
2.02
0.88
-0.22
-1.39
-2.70
-4.18
-5.76
-7.38
-9.01
-10.65
-12.38
-14.25
-16.29
-18.46
-20.64
-22.64
-24.21
-25.04
-24.90
-23.71
-21.51
-18.52
-15.02
-11.29
-7.56
-4.01
-0.76
2.11
4.59
6.72
8.57
10.22
11.69
12.96
13.99
14.78
15.33
15.72
16.00
16.19
16.28
16.25
16.08
15.80
15.46
15.12
14.80
14.45
14.00
13.36
12.52
11.50
10.39
9.27
8.16
7.03
5.86
4.63
3.41
2.24
1.13
0.01
-1.26
-2.79
-4.61
-6.58
-8.52
-10.23
-11.65
-12.85
-14.01
-15.32
-16.95
-18.92
-21.17
-23.46
-25.47
-26.80
-27.06
-26.02
-23.64
-20.18
-16.06
-11.74
-7.61
-3.87
-0.57
2.37
5.00
7.40
9.56
11.47
13.06
14.29
15.18
15.78
16.21
16.63
17.10
17.59
18.00
18.16
18.00
17.57
17.00
16.45
15.98
15.56
15.03
14.27
13.24
12.02
10.73
9.49
8.36
7.28
6.18
4.95
3.59
2.13
0.66
-0.75
-2.10
-3.44
-4.80
-6.24
-7.76
-9.31
-10.87
-12.44
-14.06
-15.85
-17.90
-20.21
-22.59
-24.66
-25.94
-26.05
-24.81
-22.37
-19.12
-15.49
-11.83
-8.29
-4.89
-1.60
1.50
4.24
6.40
7.90
8.79
9.30
9.71
10.22
10.87
11.57
12.17
12.56
12.73
12.73
12.67
12.55
12.32
11.85
11.07
9.96
8.62
7.19
5.79
4.42
3.04
1.55
-0.10
-1.86
-3.63
-5.31
-6.89
-8.47
-10.22
-12.29
-14.68
-17.21
-19.52
-21.22
-22.02
-21.77
-20.52
-18.46
-15.82
-12.81
-9.59
-6.28
-2.96
0.26
3.29
5.99
8.26
10.00
11.18
11.82
12.04
12.02
11.95
12.04
12.36
12.87
13.43
13.82
13.85
13.43
12.62
11.54
10.33
9.07
7.76
6.32
4.73
3.02
1.28
-0.35
-1.82
-3.16
-4.49
-5.97
-7.72
-9.80
-12.17
-14.70
-17.21
-19.42
-21.02
-21.67
-21.18
-19.51
-16.84
-13.50
-9.88
-6.31
-2.98
0.01
2.68
5.04
7.11
8.89
10.34
11.48
12.32
12.93
13.37
13.74
14.07
14.37
14.58
14.66
14.54
14.24
13.79
13.26
12.69
12.06
11.36
10.51
9.47
8.24
6.86
5.46
4.11
2.86
1.66
0.39
-1.12
-2.95
-5.04
-7.19
-9.12
-10.65
-11.82
-12.85
-14.11
-15.88
-18.19
-20.81
-23.29
-25.12
-25.87
-25.30
-23.36
-20.23
-16.20
-11.68
-7.11
-2.88
0.73
3.61
5.77
7.33
8.44
9.25
9.90
10.47
10.99
11.49
11.99
12.46
12.85
13.08
13.07
12.73
12.05
11.12
10.10
9.17
8.43
7.87
7.32
6.52
5.27
3.50
1.36
-0.89
-2.99
-4.78
-6.28
-7.66
-9.11
-10.77
-12.71
-14.88
-17.18
-19.50
-21.65
-23.35
-24.29
-24.15
-22.78
-20.25
-16.87
-13.02
-9.05
-5.17
-1.44
2.16
5.58
8.70
11.33
13.30
14.56
15.23
15.56
15.80
16.11
16.53
16.96
17.27
17.38
17.29
17.10
16.91
16.75
16.58
16.27
15.67
14.68
13.29
11.59
9.77
8.03
6.50
5.20
4.01
2.72
1.16
-0.72
-2.81
-4.88
-6.70
-8.20
-9.46
-10.68
-12.11
-13.88
-16.07
-18.64
-21.50
-24.44
-27.12
-29.08
-29.83
-29.01
-26.53
-22.69
-18.03
-13.18
-8.63
-4.58
-0.95
2.47
5.85
9.21
12.35
14.98
16.84
17.80
18.00
17.72
17.32
17.09
17.17
17.47
17.81
17.97
17.82
17.35
16.65
15.85
15.07
14.38
13.74
13.08
12.30
11.32
10.12
8.75
7.30
5.85
4.43
3.03
1.62
0.17
-1.33
-2.86
-4.42
-6.01
-7.64
-9.29
-10.96
-12.62
-14.28
-15.98
-17.83
-19.90
-22.22
-24.66
-26.95
-28.67
-29.39
-28.82
-26.86
-23.67
-19.61
-15.07
-10.42
-5.94
-1.82
1.82
4.89
7.39
9.36
10.90
12.14
13.18
14.03
14.69
15.14
15.38
15.46
15.40
15.27
15.10
14.92
14.74
14.53
14.21
13.70
12.92
11.85
10.55
9.10
7.62
6.18
4.84
3.62
2.46
1.28
-0.03
-1.57
-3.33
-5.23
-7.07
-8.69
-10.00
-11.14
-12.33
-13.85
-15.84
-18.18
-20.58
-22.59
-23.77
-23.84
-22.74
-20.54
-17.44
-13.68
-9.47
-5.06
-0.69
3.35
6.83
9.63
11.76
13.36
14.55
15.41
15.94
16.16
16.16
16.11
16.21
16.57
17.08
17.51
17.62
17.30
16.64
15.83
15.04
14.29
13.45
12.36
10.94
9.28
7.56
5.97
4.57
3.31
2.07
0.72
-0.82
-2.52
-4.30
-6.07
-7.74
-9.27
-10.67
-12.01
-13.39
-14.93
-16.72
-18.82
-21.17
-23.60
-25.83
-27.50
-28.25
-27.75
-25.92
-22.88
-18.98
-14.67
-10.36
-6.29
-2.49
1.11
4.57
7.83
10.71
12.97
14.48
15.28
15.57
15.65
15.79
16.15
16.72
17.31
17.69
17.64
17.10
16.18
15.10
14.11
13.33
12.74
12.17
11.43
10.40
9.07
7.55
5.99
4.53
3.28
2.26
1.42
0.68
-0.13
-1.15
-2.48
-4.10
-5.88
-7.65
-9.24
-10.61
-11.81
-12.98
-14.28
-15.80
-17.62
-19.70
-21.92
-24.00
-25.58
-26.22
-25.58
-23.51
-20.16
-15.89
-11.21
-6.60
-2.43
1.08
3.91
6.08
7.76
9.13
10.34
11.52
12.67
13.70
14.46
14.88
14.93
14.72
14.37
14.00
13.70
13.48
13.36
13.32
13.30
13.23
12.99
12.47
11.62
10.46
9.10
7.65
6.19
4.78
3.45
2.21
1.09
0.02
-1.07
-2.31
-3.77
-5.43
-7.16
-8.80
-10.22
-11.38
-12.34
-13.24
-14.24
-15.45
-16.89
-18.52
-20.16
-21.57
-22.44
-22.46
-21.41
-19.21
-16.01
-12.12
-7.98
-4.00
-0.47
2.49
4.93
6.95
8.63
9.96
10.89
11.37
11.46
11.31
11.15
11.14
11.36
11.72
12.09
12.35
12.46
12.43
12.31
12.09
11.71
11.07
10.14
9.02
7.94
7.17
6.88
7.05
7.45
7.72
7.56
6.86
5.72
4.38
3.06
1.85
0.67
-0.63
-2.14
-3.79
-5.42
-6.83
-7.90
-8.61
-8.95
-8.91
-8.39
-7.27
-5.53
-3.28
-0.73
1.82
4.18
6.25
8.03
9.56
10.84
11.81
12.43
12.71
12.74
12.63
12.48
12.26
11.91
11.28
10.32
9.06
7.63
6.22
4.92
3.75
2.65
1.54
0.40
-0.74
-1.81
-2.83
-3.84
-4.91
-6.06
-7.27
-8.44
-9.51
-10.42
-11.19
-11.86
-12.49
-13.12
-13.81
-14.58
-15.46
-16.44
-17.48
-18.56
-19.63
-20.67
-21.59
-22.23
-22.35
-21.75
-20.26
-17.89
-14.83
-11.37
-7.86
-4.58
-1.68
0.80
2.89
4.62
5.98
6.95
7.57
7.90
8.10
8.27
8.49
8.73
8.93
9.03
9.06
9.08
9.15
9.27
9.33
9.15
8.60
7.61
6.27
4.80
3.45
2.38
1.64
1.14
0.72
0.18
-0.57
-1.56
-2.71
-3.93
-5.20
-6.52
-7.93
-9.41
-10.90
-12.27
-13.44
-14.43
-15.33
-16.28
-17.27
-18.13
-18.53
-18.14
-16.81
-14.63
-11.88
-8.93
-6.07
-3.48
-1.23
0.64
2.08
3.08
3.70
4.04
4.28
4.56
4.97
5.47
5.95
6.28
6.34
6.07
5.49
4.70
3.87
3.16
2.66
2.31
1.97
1.44
0.58
-0.63
-2.11
-3.72
-5.33
-6.86
-8.26
-9.55
-10.76
-11.94
-13.19
-14.61
-16.21
-17.90
-19.43
-20.46
-20.68
-19.88
-18.06
-15.34
-12.00
-8.36
-4.71
-1.33
1.60
3.99
5.90
7.43
8.67
9.69
10.48
11.00
11.26
11.32
11.28
11.22
11.17
11.07
10.87
10.57
10.24
9.96
9.72
9.41
8.87
7.96
6.67
5.16
3.68
2.44
1.48
0.70
-0.14
-1.24
-2.68
-4.36
-6.09
-7.67
-9.02
-10.22
-11.49
-13.09
-15.14
-17.55
-20.01
-22.05
-23.22
-23.25
-22.07
-19.84
-16.80
-13.25
-9.43
-5.58
-1.91
1.42
4.32
6.78
8.87
10.64
12.12
13.33
14.27
14.97
15.49
15.89
16.19
16.37
16.38
16.23
15.98
15.74
15.62
15.68
15.87
16.02
15.96
15.52
14.62
13.32
11.74
10.08
8.47
6.98
5.64
4.42
3.32
2.33
1.41
0.49
-0.54
-1.78
-3.29
-5.04
-6.92
-8.76
-10.40
-11.79
-12.96
-14.04
-15.23
-16.69
-18.41
-20.26
-21.89
-22.94
-23.06
-22.03
-19.85
-16.66
-12.75
-8.45
-4.13
-0.12
3.33
6.09
8.19
9.72
10.85
11.69
12.31
12.74
13.04
13.31
13.62
14.03
14.48
14.84
14.97
14.80
14.33
13.68
13.00
12.41
11.94
11.55
11.14
10.60
9.85
8.86
7.66
6.34
4.99
3.64
2.28
0.84
-0.73
-2.42
-4.15
-5.77
-7.12
-8.16
-8.98
-9.75
-10.68
-11.91
-13.47
-15.29
-17.24
-19.20
-21.05
-22.65
-23.85
-24.40
-24.07
-22.68
-20.21
-16.83
-12.90
-8.84
-5.02
-1.64
1.28
3.80
5.96
7.74
9.08
9.91
10.32
10.48
10.64
10.98
11.52
12.12
12.56
12.68
12.46
12.03
11.61
11.32
11.15
10.96
10.54
9.76
8.61
7.25
5.87
4.64
3.63
2.78
1.96
1.01
-0.16
-1.56
-3.09
-4.61
-5.97
-7.14
-8.15
-9.15
-10.32
-11.79
-13.59
-15.67
-17.86
-19.94
-21.68
-22.78
-22.97
-22.07
-20.01
-16.92
-13.12
-9.03
-5.07
-1.53
1.51
4.10
6.33
8.25
9.83
11.01
11.79
12.26
12.61
13.00
13.49
14.00
14.37
14.48
14.32
14.03
13.74
13.54
13.34
13.00
12.32
11.25
9.82
8.20
6.60
5.22
4.17
3.44
2.86
2.18
1.15
-0.36
-2.30
-4.42
-6.45
-8.17
-9.56
-10.78
-12.08
-13.67
-15.64
-17.95
-20.44
-22.93
-25.19
-26.97
-27.94
-27.79
-26.28
-23.41
-19.41
-14.74
-9.91
-5.40
-1.46
1.83
4.57
6.87
8.83
10.51
11.92
13.10
14.12
15.07
16.00
16.90
17.69
18.27
18.58
18.62
18.45
18.14
17.75
17.26
16.69
16.00
15.19
14.25
13.16
11.91
10.55
9.16
7.88
6.77
5.83
4.92
3.87
2.56
0.95
-0.87
-2.78
-4.63
-6.35
-7.92
-9.38
-10.78
-12.16
-13.61
-15.26
-17.22
-19.52
-22.06
-24.52
-26.43
-27.33
-26.89
-25.05
-22.04
-18.28
-14.20
-10.13
-6.22
-2.48
1.11
4.48
7.50
10.02
11.91
13.20
14.03
14.58
14.98
15.31
15.55
15.68
15.68
15.61
15.55
15.54
15.53
15.40
14.98
14.16
12.94
11.42
9.79
8.22
6.86
5.73
4.79
3.95
3.09
2.12
0.95
-0.47
-2.13
-3.99
-5.97
-7.94
-9.80
-11.47
-12.94
-14.27
-15.61
-17.11
-18.93
-21.06
-23.30
-25.25
-26.37
-26.18
-24.44
-21.23
-16.93
-12.08
-7.21
-2.66
1.41
4.97
8.03
10.55
12.42
13.59
14.13
14.24
14.23
14.36
14.75
15.35
15.99
16.44
16.61
16.47
16.14
15.72
15.30
14.86
14.33
13.62
12.67
11.47
10.10
8.66
7.23
5.87
4.55
3.20
1.76
0.20
-1.46
-3.17
-4.87
-6.53
-8.12
-9.64
-11.17
-12.76
-14.53
-16.60
-19.03
-21.79
-24.65
-27.22
-29.02
-29.57
-28.61
-26.17
-22.54
-18.20
-13.58
-9.04
-4.73
-0.71
3.00
6.33
9.17
11.44
13.14
14.35
15.25
16.00
16.68
17.33
17.91
18.37
18.68
18.86
18.93
18.91
18.78
18.49
17.99
17.28
16.40
15.43
14.42
13.36
12.19
10.88
9.41
7.85
6.32
4.90
3.69
2.68
1.84
1.08
0.27
-0.70
-1.91
-3.35
-4.95
-6.58
-8.13
-9.57
-10.93
-12.31
-13.84
-15.61
-17.70
-20.07
-22.58
-24.92
-26.66
-27.31
-26.55
-24.34
-20.93
-16.85
-12.64
-8.73
-5.28
-2.20
0.67
3.45
6.12
8.48
10.33
11.55
12.24
12.63
13.02
13.58
14.28
14.94
15.31
15.29
14.96
14.52
14.16
13.96
13.83
13.61
13.19
12.52
11.67
10.70
9.63
8.45
7.18
5.85
4.55
3.34
2.22
1.12
-0.05
-1.34
-2.75
-4.20
-5.63
-7.05
-8.51
-10.09
-11.80
-13.66
-15.61
-17.61
-19.67
-21.80
-23.91
-25.75
-26.96
-27.10
-25.86
-23.20
-19.36
-14.82
-10.10
-5.66
-1.75
1.60
4.47
6.94
9.04
10.77
12.11
13.12
13.95
14.76
15.67
16.65
17.59
18.29
18.62
18.60
18.36
18.06
17.82
17.61
17.35
16.91
16.24
15.38
14.43
13.41
12.33
11.11
9.70
8.12
6.48
4.95
3.62
2.52
1.54
0.53
-0.66
-2.06
-3.63
-5.29
-6.95
-8.62
-10.28
-11.99
-13.75
-15.62
-17.63
-19.85
-22.28
-24.78
-27.04
-28.62
-29.07
-28.08
-25.65
-22.06
-17.75
-13.24
-8.88
-4.88
-1.28
1.95
4.83
7.37
9.55
11.40
12.99
14.39
15.62
16.67
17.46
17.90
17.99
17.80
17.46
17.13
16.92
16.87
16.95
17.06
17.06
16.86
16.40
15.70
14.80
13.79
12.70
11.54
10.28
8.89
7.36
5.71
4.02
2.35
0.77
-0.66
-1.94
-3.09
-4.18
-5.31
-6.57
-7.98
-9.50
-11.02
-12.45
-13.76
-15.01
-16.41
-18.13
-20.20
-22.47
-24.51
-25.83
-25.98
-24.78
-22.32
-18.94
-15.03
-10.93
-6.84
-2.84
1.00
4.54
7.57
9.90
11.42
12.18
12.43
12.48
12.63
13.05
13.72
14.49
15.11
15.42
15.36
14.97
14.39
13.73
13.06
12.38
11.64
10.81
9.86
8.81
7.69
6.53
5.32
4.03
2.66
1.18
-0.34
-1.86
-3.32
-4.68
-5.91
-7.01
-8.01
-8.93
-9.89
-11.02
-12.50
-14.45
-16.85
-19.50
-22.04
-24.04
-25.13
-25.08
-23.90
-21.73
-18.83
-15.48
-11.87
-8.19
-4.60
-1.23
1.76
4.30
6.33
7.89
9.05
9.88
10.42
10.74
10.93
11.09
11.31
11.62
11.93
12.11
12.05
11.73
11.23
10.70
10.24
9.84
9.42
8.81
7.92
6.76
5.45
4.12
2.86
1.69
0.51
-0.79
-2.28
-3.96
-5.72
-7.47
-9.14
-10.74
-12.34
-14.01
-15.82
-17.76
-19.82
-21.96
-24.05
-25.92
-27.26
-27.74
-27.10
-25.27
-22.40
-18.84
-14.98
-11.17
-7.56
-4.18
-0.94
2.21
5.25
8.04
10.36
12.03
12.98
13.29
13.20
13.02
12.98
13.17
13.53
13.97
14.41
14.84
15.23
15.58
15.75
15.65
15.18
14.38
13.34
12.15
10.87
9.50
8.05
6.58
5.17
3.94
2.89
1.96
1.06
0.09
-0.94
-1.97
-2.98
-3.98
-5.03
-6.24
-7.68
-9.37
-11.34
-13.61
-16.17
-18.93
-21.63
-23.86
-25.09
-24.88
-23.02
-19.61
-15.08
-9.99
-4.88
-0.13
4.08
7.78
11.05
13.95
16.54
18.81
20.74
22.32
23.51
24.29
24.61
24.47
23.95
23.18
22.34
21.58
20.93
20.37
19.80
19.14
18.30
17.26
16.00
14.49
12.75
10.83
8.85
7.02
5.50
4.34
3.42
2.48
1.26
-0.40
-2.45
-4.65
-6.74
-8.51
-9.95
-11.17
-12.37
-13.67
-15.11
-16.66
-18.29
-20.05
-21.95
-23.94
-25.75
-26.97
-27.15
-26.03
-23.61
-20.22
-16.33
-12.41
-8.75
-5.48
-2.60
-0.08
2.09
3.93
5.43
6.62
7.57
8.32
8.90
9.30
9.51
9.51
9.33
9.02
8.73
8.55
8.54
8.65
8.74
8.65
8.22
7.46
6.42
5.24
4.01
2.78
1.48
0.04
-1.55
-3.27
-4.98
-6.60
-8.05
-9.39
-10.75
-12.27
-14.09
-16.21
-18.56
-20.98
-23.20
-24.90
-25.72
-25.40
-23.80
-21.06
-17.51
-13.56
-9.57
-5.72
-2.00
1.62
5.13
8.36
11.06
13.03
14.22
14.81
15.05
15.22
15.45
15.75
16.04
16.25
16.37
16.45
16.53
16.64
16.66
16.47
15.95
15.04
13.83
12.45
11.07
9.77
8.57
7.40
6.20
4.91
3.52
2.07
0.61
-0.82
-2.22
-3.59
-4.98
-6.41
-7.90
-9.41
-10.89
-12.27
-13.54
-14.80
-16.21
-17.95
-20.11
-22.58
-25.06
-27.09
-28.16
-27.92
-26.25
-23.28
-19.34
-14.85
-10.17
-5.59
-1.29
2.61
6.05
9.00
11.48
13.55
15.29
16.74
17.94
18.82
19.37
19.59
19.54
19.32
19.03
18.74
18.50
18.32
18.17
18.00
17.67
17.04
16.00
14.56
12.87
11.19
9.73
8.61
7.75
6.96
6.00
4.76
3.26
1.62
0.04
-1.37
-2.61
-3.75
-4.93
-6.23
-7.66
-9.15
-10.56
-11.78
-12.80
-13.73
-14.77
-16.14
-17.97
-20.23
-22.69
-24.95
-26.59
-27.21
-26.57
-24.62
-21.51
-17.56
-13.19
-8.81
-4.74
-1.16
1.85
4.37
6.50
8.33
9.94
11.36
12.56
13.51
14.15
14.48
14.56
14.48
14.36
14.23
14.06
13.76
13.26
12.59
11.87
11.24
10.79
10.44
10.01
9.33
8.29
6.97
5.56
4.24
3.10
2.09
1.07
-0.12
-1.56
-3.26
-5.08
-6.88
-8.50
-9.87
-10.98
-11.97
-13.01
-14.26
-15.86
-17.82
-20.04
-22.29
-24.23
-25.43
-25.47
-24.08
-21.25
-17.31
-12.81
-8.37
-4.43
-1.11
1.68
4.18
6.49
8.56
10.23
11.40
12.07
12.43
12.74
13.16
13.73
14.36
14.88
15.14
15.08
14.72
14.16
13.53
12.93
12.47
12.16
11.94
11.72
11.42
10.99
10.37
9.53
8.45
7.10
5.51
3.78
2.06
0.52
-0.73
-1.73
-2.57
-3.45
-4.52
-5.84
-7.37
-8.94
-10.40
-11.68
-12.80
-13.88
-15.12
-16.67
-18.58
-20.76
-22.98
-24.88
-26.07
-26.22
-25.14
-22.85
-19.54
-15.52
-11.15
-6.74
-2.52
1.35
4.77
7.71
10.18
12.21
13.83
15.09
16.03
16.71
17.21
17.62
17.99
18.32
18.57
18.64
18.50
18.14
17.66
17.15
16.68
16.25
15.81
15.28
14.57
13.65
12.56
11.36
10.11
8.86
7.61
6.28
4.84
3.29
1.71
0.21
-1.13
-2.32
-3.48
-4.76
-6.26
-7.96
-9.74
-11.42
-12.87
-14.05
-15.02
-15.90
-16.86
-18.02
-19.43
-20.97
-22.37
-23.26
-23.28
-22.24
-20.20
-17.41
-14.21
-10.86
-7.52
-4.24
-1.08
1.86
4.43
6.49
7.99
8.98
9.57
9.87
9.97
9.93
9.80
9.67
9.65
9.79
10.10
10.51
10.89
11.10
11.03
10.67
10.03
9.16
8.12
6.95
5.69
4.43
3.26
2.27
1.45
0.75
0.00
-0.97
-2.28
-3.89
-5.63
-7.25
-8.57
-9.55
-10.32
-11.14
-12.20
-13.60
-15.28
-17.07
-18.80
-20.29
-21.41
-22.01
-21.93
-21.00
-19.12
-16.36
-12.94
-9.15
-5.32
-1.73
1.42
4.03
6.03
7.40
8.19
8.53
8.60
8.61
8.71
8.96
9.32
9.69
9.96
10.05
9.96
9.74
9.42
9.01
8.45
7.67
6.63
5.39
4.10
2.91
1.89
1.03
0.19
-0.78
-2.00
-3.47
-5.13
-6.89
-8.69
-10.49
-12.32
-14.21
-16.20
-18.29
-20.44
-22.52
-24.28
-25.40
-25.58
-24.67
-22.70
-19.83
-16.32
-12.41
-8.29
-4.15
-0.25
3.15
5.84
7.76
9.06
10.02
10.89
11.78
12.65
13.35
13.78
13.97
14.07
14.23
14.50
14.78
14.91
14.74
14.23
13.48
12.62
11.75
10.86
9.82
8.54
7.02
5.44
4.04
3.03
2.38
1.80
0.90
-0.62
-2.79
-5.29
-7.66
-9.48
-10.65
-11.36
-12.04
-13.06
-14.62
-16.68
-19.08
-21.59
-24.06
-26.30
-28.07
-29.04
-28.83
-27.15
-23.96
-19.49
-14.29
-9.00
-4.18
-0.15
3.09
5.75
8.12
10.35
12.41
14.18
15.51
16.40
16.99
17.53
18.19
18.99
19.81
20.44
20.77
20.81
20.69
20.55
20.48
20.41
20.21
19.72
18.86
17.68
16.28
14.77
13.23
11.68
10.10
8.50
6.91
5.36
3.86
2.42
1.01
-0.38
-1.76
-3.13
-4.47
-5.85
-7.32
-8.93
-10.71
-12.60
-14.54
-16.46
-18.34
-20.24
-22.25
-24.41
-26.60
-28.51
-29.64
-29.48
-27.73
-24.43
-20.01
-15.09
-10.25
-5.89
-2.10
1.25
4.29
7.09
9.60
11.74
13.45
14.77
15.77
16.56
17.17
17.61
17.88
18.05
18.17
18.30
18.43
18.50
18.39
18.05
17.44
16.56
15.42
14.05
12.47
10.77
9.06
7.49
6.13
4.97
3.85
2.58
1.00
-0.90
-2.99
-5.08
-6.96
-8.56
-9.92
-11.17
-12.51
-14.11
-16.09
-18.50
-21.18
-23.83
-25.97
-27.09
-26.79
-24.95
-21.77
-17.71
-13.27
-8.87
-4.72
-0.92
2.45
5.30
7.54
9.17
10.31
11.17
11.97
12.79
13.59
14.26
14.72
14.97
15.09
15.19
15.28
15.33
15.28
15.08
14.74
14.27
13.66
12.82
11.74
10.45
9.06
7.69
6.39
5.09
3.69
2.06
0.21
-1.72
-3.57
-5.19
-6.57
-7.85
-9.18
-10.69
-12.44
-14.40
-16.53
-18.83
-21.29
-23.84
-26.28
-28.20
-29.14
-28.64
-26.52
-22.92
-18.27
-13.13
-8.02
-3.29
0.90
4.48
7.45
9.82
11.63
13.00
14.08
15.04
15.94
16.76
17.39
17.76
17.85
17.74
17.53
17.34
17.23
17.21
17.24
17.21
16.99
16.44
15.48
14.11
12.46
10.75
9.17
7.82
6.67
5.62
4.51
3.24
1.80
0.27
-1.28
-2.77
-4.20
-5.64
-7.15
-8.80
-10.56
-12.36
-14.12
-15.87
-17.67
-19.67
-21.95
-24.46
-26.99
-29.16
-30.57
-30.85
-29.84
-27.56
-24.20
-20.08
-15.55
-10.90
-6.38
-2.10
1.85
5.44
8.62
11.34
13.54
15.21
16.37
17.09
17.48
17.70
17.87
18.14
18.56
19.10
19.65
20.03
20.11
19.81
19.15
18.20
17.08
15.91
14.79
13.75
12.75
11.76
10.69
9.50
8.18
6.77
5.31
3.87
2.48
1.12
-0.21
-1.57
-3.00
-4.52
-6.15
-7.89
-9.72
-11.62
-13.56
-15.49
-17.42
-19.37
-21.38
-23.48
-25.60
-27.55
-28.98
-29.50
-28.83
-26.87
-23.75
-19.78
-15.37
-10.87
-6.55
-2.61
0.88
3.85
6.29
8.23
9.71
10.81
11.60
12.25
12.86
13.54
14.26
14.92
15.35
15.47
15.33
15.07
14.90
14.91
15.01
15.00
14.63
13.77
12.46
10.85
9.13
7.42
5.76
4.10
2.39
0.61
-1.20
-2.95
-4.57
-6.02
-7.32
-8.55
-9.86
-11.40
-13.33
-15.73
-18.53
-21.49
-24.28
-26.51
-27.81
-27.94
-26.75
-24.24
-20.55
-15.99
-10.99
-5.99
-1.43
2.45
5.58
8.04
9.98
11.52
12.74
13.67
14.38
14.97
15.56
16.24
17.01
17.80
18.47
18.86
18.87
18.46
17.74
16.84
15.94
15.18
14.60
14.14
13.63
12.88
11.74
10.18
8.34
6.44
4.72
3.35
2.31
1.41
0.39
-0.94
-2.62
-4.55
-6.54
-8.45
-10.22
-11.91
-13.64
-15.45
-17.36
-19.38
-21.50
-23.74
-26.07
-28.31
-30.10
-30.95
-30.43
-28.36
-24.89
-20.49
-15.72
-11.06
-6.76
-2.90
0.59
3.75
6.53
8.85
10.66
12.01
13.02
13.89
14.73
15.56
16.26
16.72
16.87
16.78
16.60
16.48
16.45
16.45
16.29
15.86
15.14
14.22
13.26
12.36
11.50
10.55
9.37
7.94
6.36
4.83
3.55
2.59
1.88
1.21
0.34
-0.89
-2.50
-4.37
-6.30
-8.17
-9.90
-11.56
-13.26
-15.09
-17.11
-19.34
-21.74
-24.24
-26.68
-28.78
-30.15
-30.43
-29.33
-26.81
-23.09
-18.61
-13.87
-9.31
-5.14
-1.41
1.97
5.07
7.87
10.27
12.20
13.64
14.72
15.61
16.44
17.25
17.99
18.57
18.96
19.17
19.27
19.30
19.26
19.08
18.65
17.91
16.87
15.59
14.19
12.78
11.44
10.20
9.03
7.86
6.66
5.42
4.16
2.92
1.64
0.28
-1.27
-3.04
-5.01
-7.10
-9.20
-11.23
-13.16
-15.02
-16.86
-18.80
-20.95
-23.33
-25.80
-28.02
-29.48
-29.64
-28.17
-25.07
-20.69
-15.67
-10.63
-6.07
-2.19
1.04
3.74
6.02
7.91
9.37
10.41
11.08
11.52
11.86
12.25
12.77
13.39
14.02
14.56
14.89
14.97
14.84
14.60
14.32
14.00
13.57
12.93
11.99
10.73
9.23
7.59
5.91
4.23
2.56
0.89
-0.78
-2.42
-4.03
-5.60
-7.14
-8.67
-10.21
-11.81
-13.57
-15.62
-18.05
-20.80
-23.60
-26.02
-27.57
-27.85
-26.69
-24.17
-20.56
-16.24
-11.55
-6.82
-2.31
1.79
5.32
8.21
10.50
12.32
13.85
15.22
16.50
17.62
18.48
19.03
19.32
19.49
19.73
20.12
20.61
21.03
21.18
20.93
20.27
19.28
18.11
16.88
15.67
14.47
13.26
12.01
10.70
9.30
7.82
6.26
4.67
3.09
1.56
0.12
-1.28
-2.68
-4.18
-5.82
-7.57
-9.37
-11.13
-12.81
-14.41
-16.03
-17.79
-19.82
-22.16
-24.71
-27.22
-29.29
-30.48
-30.43
-28.96
-26.14
-22.30
-17.88
-13.30
-8.86
-4.72
-0.95
2.41
5.30
7.69
9.56
10.99
12.12
13.10
14.04
14.96
15.80
16.43
16.79
16.91
16.88
16.86
16.93
17.12
17.30
17.30
17.02
16.42
15.56
14.59
13.57
12.52
11.36
10.06
8.60
7.07
5.59
4.20
2.88
1.56
0.14
-1.39
-3.00
-4.62
-6.19
-7.73
-9.28
-10.88
-12.52
-14.16
-15.78
-17.41
-19.18
-21.19
-23.51
-26.04
-28.52
-30.56
-31.73
-31.64
-30.11
-27.18
-23.10
-18.28
-13.17
-8.19
-3.67
0.19
3.29
5.66
7.42
8.76
9.83
10.79
11.72
12.61
13.47
14.26
14.96
15.51
15.92
16.15
16.23
16.19
16.06
15.83
15.47
14.91
14.13
13.10
11.85
10.41
8.86
7.29
5.80
4.45
3.23
2.05
0.80
-0.62
-2.21
-3.88
-5.49
-6.92
-8.16
-9.27
-10.37
-11.57
-12.96
-14.58
-16.50
-18.72
-21.15
-23.54
-25.47
-26.45
-26.09
-24.22
-21.01
-16.89
-12.40
-8.03
-4.08
-0.63
2.41
5.19
7.80
10.25
12.44
14.22
15.48
16.19
16.46
16.47
16.45
16.55
16.84
17.31
17.83
18.27
18.47
18.32
17.80
16.96
15.94
14.91
13.97
13.11
12.22
11.17
9.88
8.38
6.80
5.25
3.81
2.46
1.10
-0.36
-1.99
-3.75
-5.57
-7.35
-9.00
-10.52
-11.96
-13.40
-14.94
-16.64
-18.56
-20.71
-23.04
-25.39
-27.54
-29.13
-29.80
-29.27
-27.42
-24.36
-20.39
-15.90
-11.27
-6.79
-2.61
1.18
4.58
7.56
10.10
12.19
13.81
14.98
15.79
16.32
16.70
17.04
17.38
17.76
18.11
18.39
18.51
18.42
18.13
17.70
17.19
16.68
16.17
15.60
14.87
13.89
12.62
11.13
9.55
8.03
6.65
5.40
4.21
3.03
1.84
0.68
-0.36
-1.27
-2.14
-3.16
-4.52
-6.33
-8.51
-10.82
-12.97
-14.80
-16.29
-17.65
-19.17
-21.09
-23.47
-26.16
-28.80
-30.93
-32.06
-31.84
-30.09
-26.91
-22.60
-17.66
-12.60
-7.87
-3.73
-0.27
2.61
5.03
7.10
8.88
10.38
11.58
12.55
13.39
14.25
15.24
16.34
17.42
18.28
18.73
18.73
18.39
17.88
17.44
17.13
16.91
16.63
16.15
15.43
14.53
13.54
12.53
11.50
10.39
9.16
7.79
6.36
4.91
3.51
2.18
0.92
-0.32
-1.60
-3.00
-4.58
-6.35
-8.24
-10.13
-11.84
-13.32
-14.63
-15.93
-17.43
-19.26
-21.43
-23.75
-25.91
-27.52
-28.17
-27.55
-25.51
-22.14
-17.77
-12.93
-8.17
-3.93
-0.44
2.34
4.58
6.47
8.15
9.62
10.82
11.75
12.45
13.03
13.60
14.20
14.78
15.21
15.38
15.25
14.88
14.43
14.04
13.78
13.60
13.33
12.81
11.93
10.72
9.33
7.95
6.70
5.55
4.38
3.00
1.35
-0.55
-2.56
-4.51
-6.30
-7.87
-9.21
-10.36
-11.36
-12.31
-13.42
-14.91
-16.97
-19.62
-22.62
-25.47
-27.54
-28.25
-27.31
-24.76
-20.98
-16.51
-11.89
-7.50
-3.53
0.01
3.14
5.83
8.04
9.74
10.94
11.78
12.42
13.00
13.53
13.93
14.11
14.04
13.82
13.61
13.60
13.85
14.32
14.80
15.07
14.97
14.44
13.55
12.41
11.17
9.97
8.90
7.98
7.19
6.44
5.60
4.59
3.38
2.00
0.55
-0.89
-2.30
-3.74
-5.33
-7.15
-9.17
-11.24
-13.20
-14.92
-16.40
-17.81
-19.40
-21.38
-23.82
-26.59
-29.36
-31.69
-33.16
-33.44
-32.38
-30.06
-26.75
-22.88
-18.86
-15.06
-11.67
-8.76
-6.34
-4.36
-2.84
-1.77
-1.10
-0.74
-0.57
-0.49
-0.46
-0.50
-0.68
-0.98
-1.31
-1.47
-1.26
-0.55
0.68
2.32
4.25
6.38
8.70
11.27
14.11
17.15
20.16
22.86
24.99
26.38
27.03
27.01
26.41
25.32
23.81
21.96
19.90
17.77
15.65
13.55
11.36
8.94
6.19
3.18
0.07
-2.87
-5.45
-7.65
-9.66
-11.76
-14.21
-17.04
-20.03
-22.71
-24.53
-25.07
-24.17
-21.96
-18.79
-15.10
-11.24
-7.42
-3.73
-0.20
3.08
5.95
8.24
9.83
10.78
11.30
11.68
12.14
12.72
13.34
13.86
14.12
14.12
13.94
13.68
13.44
13.27
13.15
13.07
12.97
12.79
12.41
11.75
10.72
9.35
7.72
6.05
4.52
3.29
2.36
1.62
0.88
-0.05
-1.29
-2.80
-4.51
-6.27
-8.00
-9.65
-11.28
-12.96
-14.78
-16.81
-19.08
-21.53
-24.00
-26.24
-27.86
-28.47
-27.72
-25.46
-21.80
-17.12
-11.96
-6.91
-2.42
1.25
4.13
6.41
8.31
9.98
11.47
12.72
13.70
14.47
15.15
15.88
16.67
17.42
17.99
18.28
18.27
18.06
17.75
17.40
17.03
16.60
16.08
15.49
14.79
13.98
13.00
11.81
10.42
8.91
7.37
5.93
4.67
3.61
2.70
1.82
0.79
-0.57
-2.35
-4.48
-6.80
-9.09
-11.18
-13.07
-14.83
-16.62
-18.53
-20.58
-22.75
-24.95
-27.04
-28.89
-30.24
-30.80
-30.28
-28.51
-25.52
-21.59
-17.16
-12.66
-8.45
-4.63
-1.18
1.96
4.81
7.29
9.28
10.70
11.63
12.26
12.86
13.58
14.49
15.46
16.35
17.00
17.35
17.43
17.30
17.04
16.67
16.23
15.74
15.25
14.83
14.49
14.21
13.92
13.53
12.96
12.14
11.09
9.83
8.45
7.05
5.68
4.39
3.15
1.90
0.59
-0.82
-2.36
-4.05
-5.88
-7.79
-9.72
-11.56
-13.28
-14.90
-16.54
-18.40
-20.62
-23.21
-25.93
-28.34
-29.87
-30.05
-28.65
-25.74
-21.71
-17.05
-12.28
-7.76
-3.69
-0.11
3.02
5.74
8.07
10.03
11.65
12.97
14.05
14.96
15.69
16.23
16.56
16.69
16.67
16.63
16.67
16.83
17.07
17.28
17.32
17.12
16.64
15.92
15.00
13.89
12.61
11.19
9.66
8.10
6.58
5.16
3.86
2.67
1.57
0.50
-0.54
-1.62
-2.77
-4.06
-5.51
-7.13
-8.88
-10.71
-12.58
-14.50
-16.54
-18.78
-21.26
-23.92
-26.56
-28.85
-30.41
-30.81
-29.81
-27.34
-23.65
-19.19
-14.50
-9.99
-5.87
-2.15
1.24
4.34
7.06
9.26
10.89
12.05
12.96
13.88
14.92
16.04
17.05
17.75
18.04
17.99
17.79
17.60
17.54
17.57
17.57
17.40
16.96
16.22
15.24
14.10
12.89
11.64
10.38
9.11
7.87
6.66
5.51
4.37
3.20
1.95
0.60
-0.85
-2.36
-3.92
-5.54
-7.24
-9.02
-10.82
-12.55
-14.06
-15.30
-16.33
-17.35
-18.62
-20.40
-22.77
-25.59
-28.46
-30.78
-31.96
-31.61
-29.61
-26.17
-21.75
-16.88
-12.00
-7.42
-3.26
0.48
3.85
6.87
9.59
12.00
14.12
15.95
17.50
18.72
19.60
20.15
20.43
20.55
20.64
20.79
21.05
21.37
21.69
21.92
22.00
21.89
21.57
21.02
20.22
19.18
17.96
16.68
15.48
14.46
13.63
12.91
12.13
11.16
9.92
8.44
6.84
5.25
3.76
2.34
0.89
-0.71
-2.49
-4.43
-6.39
-8.25
-9.94
-11.47
-12.88
-14.23
-15.56
-16.90
-18.34
-19.99
-21.92
-24.08
-26.22
-27.83
-28.35
-27.34
-24.67
-20.62
-15.79
-10.87
-6.39
-2.62
0.46
3.04
5.28
7.26
8.93
10.21
11.05
11.51
11.71
11.77
11.76
11.68
11.50
11.17
10.70
10.13
9.48
8.80
8.11
7.44
6.81
6.23
5.68
5.16
4.61
3.99
3.24
2.34
1.27
0.04
-1.32
-2.77
-4.27
-5.81
-7.34
-8.88
-10.40
-11.89
-13.32
-14.69
-16.05
-17.48
-19.08
-20.89
-22.90
-25.01
-27.06
-28.80
-29.94
-30.15
-29.14
-26.83
-23.31
-18.96
-14.24
-9.59
-5.27
-1.32
2.33
5.75
8.85
11.44
13.33
14.45
14.94
15.09
15.23
15.52
15.95
16.37
16.60
16.53
16.20
15.73
15.24
14.75
14.18
13.45
12.51
11.40
10.22
9.09
8.00
6.88
5.58
3.99
2.09
-0.05
-2.30
-4.51
-6.62
-8.60
-10.45
-12.23
-14.01
-15.90
-18.04
-20.51
-23.24
-25.94
-28.16
-29.41
-29.29
-27.63
-24.57
-20.49
-15.88
-11.18
-6.71
-2.61
1.11
4.49
7.54
10.19
12.33
13.85
14.74
15.12
15.24
15.35
15.63
16.12
16.71
17.24
17.58
17.67
17.51
17.14
16.60
15.95
15.22
14.42
13.56
12.65
11.70
10.68
9.62
8.49
7.27
5.95
4.50
2.92
1.23
-0.48
-2.14
-3.71
-5.22
-6.73
-8.30
-9.92
-11.56
-13.14
-14.60
-15.97
-17.37
-18.95
-20.88
-23.21
-25.85
-28.47
-30.58
-31.69
-31.37
-29.44
-26.00
-21.37
-16.05
-10.52
-5.20
-0.36
3.87
7.50
10.56
13.15
15.33
17.16
18.63
19.74
20.47
20.84
20.92
20.80
20.58
20.39
20.29
20.33
20.48
20.67
20.79
20.71
20.32
19.60
18.53
17.22
15.75
14.28
12.90
11.64
10.51
9.41
8.26
6.99
5.62
4.25
3.01
1.96
1.10
0.29
-0.62
-1.76
-3.15
-4.74
-6.39
-7.97
-9.39
-10.65
-11.80
-12.97
-14.35
-16.07
-18.15
-20.45
-22.59
-24.08
-24.39
-23.21
-20.50
-16.54
-11.84
-6.99
-2.47
1.41
4.58
7.14
9.27
11.12
12.74
14.12
15.14
15.72
15.84
15.57
15.09
14.58
14.14
13.77
13.36
12.78
11.94
10.89
9.74
8.64
7.67
6.81
5.93
4.93
3.77
2.49
1.19
-0.06
-1.26
-2.44
-3.65
-4.94
-6.27
-7.63
-8.94
-10.21
-11.42
-12.56
