1539792117.00
64.000000
-0.00
-0.00
-0.00
-0.00
-0.00
-0.00
-0.00
-0.00
-0.00
-0.00
0.00
0.01
0.01
-0.00
-0.03
-0.05
-0.05
0.00
0.13
0.36
0.66
1.01
1.37
1.72
2.06
2.40
2.79
3.24
3.80
4.42
5.06
5.66
6.20
6.68
7.15
7.68
8.31
9.14
10.09
11.04
11.88
12.56
13.14
13.76
14.65
15.96
17.91
20.32
22.90
25.38
27.58
29.57
31.68
34.32
37.81
42.54
48.15
54.10
59.83
64.97
69.58
74.14
79.34
85.71
93.76
103.00
112.62
121.73
129.77
136.75
143.30
150.75
157.77
166.64
177.95
191.79
206.97
220.57
228.25
225.36
208.53
176.87
132.76
80.05
23.07
-34.94
-92.44
-149.16
-205.23
-260.37
-313.74
-363.87
-409.83
-450.91
-486.50
-515.74
-537.23
-549.22
-549.96
-538.37
-514.21
-478.67
-433.88
-382.45
-327.02
-269.84
-212.63
-156.66
-102.95
-52.37
-5.90
35.58
71.43
101.35
125.50
144.38
158.69
169.15
176.37
180.75
182.57
182.07
179.51
175.23
169.65
163.18
156.15
148.81
141.30
133.69
126.02
118.33
110.69
103.16
95.80
88.68
81.83
75.25
68.95
62.95
57.25
51.86
46.78
42.03
37.59
33.45
29.61
26.07
22.81
19.83
17.11
14.67
12.48
10.54
8.83
7.35
6.07
4.97
4.05
3.27
2.62
2.09
1.65
1.30
1.01
0.79
0.60
0.47
0.38
0.31
0.27
0.22
0.14
0.05
-0.06
-0.16
-0.23
-0.26
-0.24
-0.20
-0.16
-0.15
-0.19
-0.26
-0.32
-0.35
-0.33
-0.25
-0.17
-0.12
-0.16
-0.29
-0.49
-0.68
-0.79
-0.75
-0.58
-0.39
-0.30
-0.44
-0.83
-1.39
-1.94
-2.26
-2.23
-1.88
-1.42
-1.14
-1.31
-2.01
-3.05
-4.10
-4.73
-4.71
-4.08
-3.21
-2.59
-2.69
-3.63
-5.18
-6.74
-7.77
-7.89
-7.13
-5.86
-4.63
-3.99
-4.31
-5.87
-8.68
-12.33
-15.67
-16.93
-14.24
-6.54
5.66
20.13
33.63
43.19
47.35
46.29
41.56
35.08
28.24
21.58
15.06
8.63
2.58
-2.50
-6.10
-8.09
-8.85
-9.09
-9.55
-10.57
-12.07
-13.57
-14.42
-14.17
-12.64
-10.07
-6.99
-4.01
-1.59
0.06
1.04
1.56
1.87
2.06
2.09
1.81
1.13
0.08
-1.18
-2.41
-3.44
-4.19
-4.73
-5.16
-5.58
-6.04
-6.52
-6.97
-7.30
-7.47
-7.51
-7.54
-7.73
-8.22
-9.06
-10.20
-11.49
-12.78
-13.94
-14.93
-15.80
-16.67
-17.68
-18.94
-20.52
-22.33
-24.12
-25.53
-26.01
-25.09
-22.48
-18.15
-12.36
-5.64
1.35
7.93
13.59
18.10
21.57
24.33
26.73
28.96
30.96
32.47
33.38
33.84
34.32
35.40
37.39
40.12
42.95
45.07
45.84
45.10
43.16
40.61
38.04
35.83
34.04
32.53
31.05
29.41
27.52
25.41
23.09
20.55
17.73
14.61
11.23
7.72
4.28
1.02
-2.12
-5.34
-8.88
-12.86
-17.22
-21.66
-25.82
-29.40
-32.29
-34.68
-36.88
-39.26
-42.02
-45.09
-48.09
-50.42
-51.49
-50.88
-48.47
-44.45
-39.18
-33.09
-26.59
-19.97
-13.50
-7.46
-2.09
2.43
6.04
8.83
11.02
12.81
14.40
15.80
16.98
17.90
18.56
19.06
19.49
19.91
20.26
20.42
20.32
19.96
19.50
19.13
18.92
18.81
18.55
17.87
16.62
14.90
12.94
11.07
9.52
8.32
7.34
6.40
5.38
4.23
3.02
1.80
0.58
-0.60
-1.73
-2.73
-3.54
-4.16
-4.73
-5.45
-6.57
-8.21
-10.33
-12.69
-14.99
-16.95
-18.44
-19.62
-20.83
-22.47
-24.84
-27.92
-31.34
-34.40
-36.39
-36.74
-35.22
-32.01
-27.56
-22.43
-17.14
-12.06
-7.40
-3.27
0.29
3.27
5.73
7.76
9.53
11.19
12.82
14.36
15.61
16.33
16.34
15.70
14.69
13.71
13.15
13.16
13.69
14.48
15.24
15.76
15.89
15.65
15.06
14.21
13.20
12.18
11.26
10.50
9.82
9.03
7.94
6.41
4.48
2.32
0.14
-1.88
-3.66
-5.18
-6.53
-7.80
-9.12
-10.61
-12.36
-14.32
-16.43
-18.54
-20.60
-22.60
-24.57
-26.46
-28.01
-28.81
-28.42
-26.58
-23.40
-19.31
-14.92
-10.75
-7.06
-3.84
-0.90
1.94
4.72
7.35
9.70
11.66
13.22
14.35
15.10
15.44
15.42
15.14
14.84
14.77
15.09
15.78
16.66
17.47
18.04
18.31
18.31
18.12
17.74
17.10
16.15
14.98
13.74
12.64
11.82
11.19
10.52
9.52
7.99
5.99
3.79
1.76
0.15
-1.00
-1.88
-2.75
-3.81
-5.12
-6.56
-7.99
-9.39
-10.86
-12.55
-14.56
-16.84
-19.22
-21.53
-23.71
-25.88
-28.20
-30.66
-33.01
-34.82
-35.54
-34.85
-32.72
-29.40
-25.35
-20.99
-16.60
-12.31
-8.13
-4.06
-0.19
3.37
6.43
8.90
10.79
12.19
13.27
14.13
14.81
15.25
15.40
15.29
15.07
14.99
15.22
15.87
16.81
17.80
18.56
18.86
18.67
18.06
17.22
16.29
15.34
14.32
13.15
11.77
10.17
8.45
6.72
5.12
3.73
2.52
1.44
0.37
-0.83
-2.25
-3.90
-5.71
-7.48
-9.09
-10.50
-11.80
-13.24
-15.04
-17.30
-20.01
-23.00
-26.03
-28.79
-30.88
-31.90
-31.52
-29.56
-26.14
-21.60
-16.44
-11.17
-6.17
-1.69
2.15
5.28
7.71
9.46
10.64
11.41
11.96
12.43
12.91
13.42
13.85
14.09
14.03
13.64
13.03
12.38
11.88
11.65
11.72
12.00
12.35
12.60
12.58
12.14
11.16
9.64
7.68
5.51
3.36
1.40
-0.38
-2.10
-3.90
-5.84
-7.88
-9.89
-11.78
-13.54
-15.25
-17.03
-18.97
-21.06
-23.24
-25.36
-27.25
-28.68
-29.44
-29.26
-27.92
-25.28
-21.31
-16.23
-10.43
-4.49
1.05
5.72
9.32
11.89
13.63
14.83
15.67
16.25
16.56
16.60
16.40
16.11
15.87
15.79
15.93
16.18
16.44
16.56
16.48
16.22
15.84
15.47
15.10
14.66
14.01
13.09
11.91
10.60
9.29
8.07
6.90
5.64
4.17
2.46
0.61
-1.30
-3.21
-5.12
-7.10
-9.17
-11.27
-13.28
-15.10
-16.74
-18.28
-19.96
-21.98
-24.52
-27.59
-30.94
-34.08
-36.42
-37.36
-36.57
-34.04
-30.07
-25.14
-19.73
-14.17
-8.66
-3.42
1.36
5.43
8.64
11.02
12.77
14.14
15.38
16.56
17.65
18.57
19.26
19.71
19.97
20.06
20.01
19.88
19.77
19.80
20.07
20.61
21.33
22.06
22.63
22.87
22.69
22.02
20.84
19.16
17.10
14.89
12.77
10.92
9.35
7.93
6.44
4.78
2.96
1.17
-0.42
-1.69
-2.70
-3.63
-4.63
-5.87
-7.39
-9.19
-11.25
-13.55
-16.05
-18.71
-21.48
-24.33
-27.27
-30.32
-33.43
-36.39
-38.85
-40.35
-40.49
-39.03
-35.99
-31.62
-26.30
-20.46
-14.49
-8.72
-3.46
1.08
4.74
7.54
9.59
11.16
12.47
13.68
14.84
15.91
16.83
17.51
17.95
18.18
18.31
18.47
18.78
19.31
20.01
20.77
21.41
21.80
21.90
21.75
21.38
20.76
19.87
18.66
17.22
15.70
14.27
13.02
11.86
10.57
8.94
6.91
4.65
2.47
0.69
-0.57
-1.44
-2.26
-3.37
-4.95
-6.99
-9.29
-11.63
-13.86
-15.99
-18.15
-20.48
-23.11
-26.04
-29.12
-32.04
-34.40
-35.77
-35.81
-34.40
-31.59
-27.66
-22.95
-17.79
-12.48
-7.29
-2.43
1.85
5.39
8.11
10.08
11.43
12.41
13.19
13.91
14.55
15.01
15.14
14.89
14.33
13.72
13.34
13.40
13.89
14.59
15.14
15.19
14.58
13.31
11.58
9.67
7.87
6.49
5.79
5.98
7.11
9.09
11.61
14.26
16.62
18.34
19.21
19.24
18.58
17.49
16.25
15.07
14.06
13.19
12.38
11.54
10.66
9.83
9.18
8.82
8.79
8.97
9.25
9.47
9.55
9.43
9.08
8.47
7.56
6.38
5.04
3.76
2.71
2.04
1.71
1.52
1.18
0.49
-0.64
-2.07
-3.56
-4.88
-5.93
-6.82
-7.78
-9.06
-10.77
-12.85
-15.09
-17.32
-19.43
-21.46
-23.52
-25.71
-28.06
-30.55
-33.13
-35.81
-38.59
-41.41
-44.02
-46.02
-46.91
-46.23
-43.75
-39.49
-33.78
-27.13
-20.16
-13.44
-7.40
-2.29
1.87
5.24
8.07
10.57
12.83
14.78
16.26
17.16
17.53
17.58
17.60
17.79
18.19
18.68
19.12
19.47
19.84
20.39
21.18
22.11
22.86
23.13
22.76
21.83
20.61
19.43
18.44
17.61
16.72
15.57
14.11
12.41
10.65
8.98
7.41
5.84
4.11
2.11
-0.14
-2.48
-4.72
-6.74
-8.58
-10.40
-12.33
-14.43
-16.64
-18.87
-21.09
-23.42
-26.04
-29.05
-32.30
-35.34
-37.50
-38.15
-36.93
-33.82
-29.24
-23.79
-18.06
-12.48
-7.28
-2.54
1.73
5.52
8.76
11.38
13.39
14.86
15.95
16.80
17.46
17.96
18.27
18.40
18.42
18.45
18.56
18.72
18.85
18.85
18.68
18.40
18.12
17.87
17.59
17.11
16.27
15.05
13.58
12.07
10.68
9.45
8.26
6.95
5.43
3.72
1.93
0.18
-1.51
-3.23
-5.11
-7.20
-9.41
-11.59
-13.59
-15.39
-17.12
-19.04
-21.41
-24.40
-27.92
-31.66
-35.03
-37.38
-38.12
-36.95
-33.90
-29.34
-23.80
-17.85
-11.93
-6.36
-1.34
2.99
6.56
9.33
11.40
12.91
14.07
14.98
15.65
16.01
16.03
15.74
15.31
14.98
14.96
15.34
16.08
17.01
17.91
18.57
18.90
18.87
18.57
18.06
17.45
16.72
15.88
14.87
13.68
12.30
10.79
9.24
7.69
6.14
4.49
2.61
0.41
-2.05
-4.57
-6.91
-8.87
-10.42
-11.65
-12.79
-14.01
-15.48
-17.31
-19.58
-22.41
-25.79
-29.54
-33.22
-36.15
-37.63
-37.15
-34.55
-30.07
-24.30
-17.95
-11.70
-6.02
-1.16
2.87
6.20
8.97
11.28
13.15
14.58
15.63
16.42
17.15
17.95
18.90
19.88
20.73
21.29
21.50
21.52
21.57
21.88
22.55
23.44
24.28
24.75
24.66
23.99
22.91
21.61
20.29
19.01
17.75
16.47
15.18
13.96
12.91
12.09
11.48
10.97
10.43
9.78
9.09
8.44
7.99
7.76
7.67
7.51
7.13
6.49
5.69
4.93
4.37
4.08
3.97
3.90
3.71
3.33
2.81
2.20
1.59
1.03
0.54
0.14
-0.22
-0.60
-1.13
-1.94
-3.08
-4.49
-6.01
-7.40
-8.55
-9.46
-10.35
-11.52
-13.19
-15.44
-18.06
-20.76
-23.21
-25.24
-26.87
-28.25
-29.60
-31.15
-33.10
-35.56
-38.50
-41.73
-44.77
-47.00
-47.74
-46.47
-42.99
-37.54
-30.68
-23.15
-15.66
-8.78
-2.89
1.86
5.45
8.04
9.86
11.25
12.47
13.69
14.92
16.04
16.92
17.50
17.88
18.20
18.65
19.31
20.15
21.10
22.05
22.90
23.54
23.81
23.54
22.61
21.07
19.16
17.20
15.52
14.26
13.37
12.65
11.87
10.82
9.44
7.80
6.02
4.21
2.43
0.72
-0.95
-2.58
-4.24
-5.99
-7.92
-10.08
-12.51
-15.15
-17.90
-20.61
-23.16
-25.51
-27.75
-30.12
-32.89
-36.27
-40.19
-44.28
-47.89
-50.28
-50.86
-49.37
-46.06
-41.53
-36.57
-31.84
-27.79
-24.62
-22.35
-20.99
-20.53
-21.00
-22.33
-24.34
-26.74
-29.27
-31.77
-34.20
-36.61
-38.95
-41.02
-42.38
-42.48
-40.80
-36.99
-31.01
-23.08
-13.64
-3.17
7.88
19.19
30.49
41.52
51.95
61.29
69.02
74.69
78.04
79.11
78.22
75.85
72.48
68.51
64.15
59.52
54.67
49.64
44.52
39.40
34.35
29.40
24.55
19.80
15.16
10.66
6.28
1.94
-2.54
-7.34
-12.48
-17.76
-22.63
-26.35
-28.25
-27.94
-25.47
-21.35
-16.30
-11.04
-6.05
-1.57
2.35
5.71
8.45
10.48
11.73
12.27
12.35
12.28
12.34
12.66
13.22
13.90
14.57
15.18
15.73
16.27
16.79
17.29
17.69
17.96
18.06
17.96
17.58
16.87
15.81
14.46
12.93
11.33
9.72
8.06
6.32
4.50
2.68
0.97
-0.59
-2.10
-3.72
-5.61
-7.77
-10.03
-12.12
-13.83
-15.11
-16.19
-17.44
-19.29
-21.96
-25.37
-29.14
-32.64
-35.19
-36.23
-35.48
-32.99
-29.09
-24.22
-18.85
-13.34
-8.00
-3.07
1.29
4.97
7.94
10.27
12.06
13.39
14.33
14.95
15.30
15.48
15.57
15.63
15.73
15.88
16.14
16.58
17.21
17.96
18.64
19.02
18.90
18.22
17.00
15.42
13.67
11.91
10.30
8.90
7.73
6.72
5.80
4.81
3.64
2.18
0.37
-1.79
-4.20
-6.76
-9.34
-11.93
-14.69
-17.86
-21.66
-26.10
-30.85
-35.30
-38.65
-40.20
-39.55
-36.73
-32.11
-26.30
-19.94
-13.55
-7.45
-1.82
3.23
7.56
11.05
13.62
15.35
16.46
17.25
17.98
18.78
19.58
20.24
20.68
20.94
21.16
21.48
21.94
22.45
22.87
23.02
22.85
22.37
21.65
20.79
19.84
18.85
17.79
16.59
15.15
13.39
11.35
9.19
7.14
5.41
4.05
2.94
1.80
0.40
-1.37
-3.44
-5.67
-7.92
-10.19
-12.54
-15.08
-17.86
-20.84
-23.99
-27.32
-30.91
-34.73
-38.58
-41.94
-44.15
-44.56
-42.83
-38.98
-33.47
-26.95
-20.12
-13.57
-7.69
-2.67
1.52
5.04
8.06
10.76
13.21
15.36
17.13
18.48
19.47
20.24
20.91
21.56
22.18
22.76
23.34
24.03
24.91
25.98
27.08
27.93
28.23
27.81
26.70
25.11
23.31
21.54
19.87
18.23
16.48
14.50
12.24
9.77
7.17
4.53
1.89
-0.72
-3.30
-5.76
-8.07
-10.16
-12.06
-13.82
-15.51
-17.24
-19.11
-21.30
-23.91
-26.93
-30.20
-33.25
-35.50
-36.28
-35.17
-32.01
-27.07
-20.82
-13.91
-6.93
-0.31
5.68
10.90
15.28
18.83
21.52
23.40
24.57
25.22
25.56
25.74
25.87
25.93
25.91
25.78
25.60
25.46
25.42
25.50
25.62
25.64
25.41
24.82
23.79
22.30
20.37
18.03
15.32
12.32
9.16
6.04
3.23
0.94
-0.70
-1.77
-2.50
-3.18
-4.02
-5.05
-6.18
-7.30
-8.40
-9.61
-11.11
-13.05
-15.40
-18.01
-20.69
-23.30
-25.90
-28.60
-31.58
-34.97
-38.79
-42.88
-46.95
-50.49
-52.84
-53.31
-51.43
-47.05
-40.47
-32.31
-23.39
-14.52
-6.38
0.62
6.28
10.70
14.12
16.97
19.58
22.11
24.47
26.37
27.49
27.64
26.89
25.49
23.80
22.17
20.87
20.06
19.77
19.97
20.47
20.99
21.25
21.05
20.33
19.22
17.94
16.71
15.66
14.78
14.01
13.21
12.33
11.37
10.36
9.31
8.20
7.00
5.70
4.34
3.04
1.92
1.03
0.24
-0.64
-1.86
-3.56
-5.75
-8.26
-10.83
-13.24
-15.38
-17.28
-19.08
-20.97
-23.12
-25.61
-28.51
-31.80
-35.41
-39.11
-42.51
-45.03
-46.02
-44.95
-41.58
-36.09
-29.04
-21.21
-13.36
-6.02
0.46
6.00
10.55
14.09
16.60
18.17
19.00
19.40
19.66
20.01
20.55
21.22
21.93
22.60
23.17
23.66
24.06
24.38
24.62
24.82
24.96
25.04
24.95
24.52
23.60
22.19
20.42
18.57
16.92
15.57
14.45
13.32
11.91
10.12
8.04
5.90
3.93
2.31
1.02
-0.09
-1.23
-2.61
-4.34
-6.43
-8.76
-11.19
-13.57
-15.80
-17.85
-19.79
-21.70
-23.73
-26.07
-28.85
-32.04
-35.36
-38.30
-40.17
-40.41
-38.71
-35.12
-30.00
-23.82
-17.06
-10.13
-3.46
2.56
7.55
11.29
13.77
15.16
15.74
15.78
15.46
14.88
14.21
13.62
13.33
13.48
14.08
14.95
15.87
16.60
17.01
17.02
16.65
15.88
14.70
13.11
11.17
9.01
6.84
4.83
3.15
1.79
0.59
-0.75
-2.49
-4.80
-7.59
-10.59
-13.43
-15.80
-17.64
-19.15
-20.72
-22.79
-25.62
-29.12
-32.84
-35.99
-37.77
-37.61
-35.33
-31.21
-25.76
-19.56
-13.09
-6.67
-0.59
4.87
9.46
12.97
15.47
17.17
18.39
19.35
20.06
20.39
20.16
19.37
18.21
17.01
16.16
15.89
16.25
17.04
17.94
18.58
18.72
18.23
17.15
15.64
13.84
11.89
9.88
7.86
5.91
4.09
2.38
0.72
-1.05
-3.09
-5.52
-8.32
-11.35
-14.39
-17.20
-19.65
-21.73
-23.60
-25.59
-28.02
-31.13
-34.86
-38.77
-42.08
-43.84
-43.31
-40.19
-34.78
-27.83
-20.26
-12.87
-6.11
-0.14
5.09
9.61
13.36
16.23
18.22
19.43
20.15
20.69
21.27
21.89
22.42
22.67
22.58
22.26
21.96
21.93
22.31
22.95
23.55
23.72
23.22
22.02
20.36
18.54
16.80
15.22
13.73
12.24
10.70
9.14
7.65
6.26
4.92
3.47
1.77
-0.27
-2.63
-5.16
-7.68
-10.03
-12.11
-13.94
-15.62
-17.30
-19.12
-21.18
-23.46
-25.94
-28.59
-31.47
-34.71
-38.34
-42.13
-45.49
-47.54
-47.42
-44.65
-39.35
-32.31
-24.57
-17.14
-10.65
-5.20
-0.59
3.47
7.14
10.45
13.29
15.62
17.51
19.10
20.58
22.01
23.34
24.35
24.85
24.73
24.10
23.28
22.68
22.60
23.08
23.89
24.58
24.71
24.03
22.58
20.67
18.66
16.86
15.33
13.93
12.44
10.70
8.64
6.33
3.83
1.20
-1.57
-4.46
-7.41
-10.24
-12.72
-14.67
-16.04
-16.99
-17.85
-18.93
-20.49
-22.51
-24.82
-27.17
-29.33
-31.26
-32.95
-34.33
-35.14
-34.95
-33.26
-29.63
-23.85
-15.85
-5.75
6.13
19.20
32.61
45.31
56.31
64.89
70.76
74.06
75.19
74.64
72.81
70.04
66.63
62.81
58.85
54.93
51.21
47.84
44.91
42.46
40.46
38.73
37.02
35.06
32.57
29.42
25.62
21.31
16.76
12.18
7.74
3.47
-0.65
-4.58
-8.18
-11.28
-13.78
-15.79
-17.66
-19.81
-22.53
-25.82
-29.45
-33.10
-36.55
-39.68
-42.45
-44.80
-46.60
-47.79
-48.52
-49.24
-50.56
-53.04
-56.83
-61.52
-66.23
-69.88
-71.47
-70.48
-66.87
-61.10
-53.93
-46.25
-38.92
-32.61
-27.68
-24.13
-21.64
-19.66
-17.68
-15.40
-12.84
-10.26
-7.98
-6.13
-4.60
-3.11
-1.36
0.78
3.21
5.71
8.03
10.03
11.70
13.07
14.19
15.07
15.77
16.37
16.94
17.53
18.07
18.42
18.48
18.21
17.71
17.10
16.47
15.83
15.12
14.29
13.43
12.70
12.20
11.93
11.62
10.95
9.68
7.80
5.57
3.30
1.19
-0.78
-2.79
-5.04
-7.58
-10.25
-12.77
-14.93
-16.68
-18.18
-19.71
-21.58
-23.97
-26.85
-30.00
-32.92
-34.98
-35.57
-34.22
-30.85
-25.75
-19.59
-13.17
-7.19
-2.09
2.05
5.39
8.21
10.79
13.23
15.47
17.39
18.86
19.86
20.51
20.98
21.36
21.70
21.98
22.19
22.42
22.78
23.38
24.18
25.06
25.78
26.17
26.10
25.55
24.54
23.13
21.45
19.65
17.96
16.52
15.40
14.46
13.48
12.23
10.62
8.73
6.79
5.02
3.55
2.32
1.14
-0.26
-2.07
-4.37
-7.06
-9.90
-12.58
-14.87
-16.68
-18.11
-19.43
-20.98
-23.06
-25.86
-29.39
-33.37
-37.34
-40.64
-42.58
-42.61
-40.51
-36.41
-30.84
-24.48
-18.01
-11.96
-6.60
-2.00
1.90
5.25
8.14
10.67
12.87
14.77
16.36
17.65
18.70
19.54
20.26
20.89
21.48
22.01
22.46
22.83
23.12
23.38
23.58
23.76
23.83
23.70
23.21
22.24
20.75
18.81
16.66
14.55
12.72
11.28
10.19
9.29
8.43
7.52
6.59
5.72
4.95
4.23
3.39
2.28
0.84
-0.86
-2.63
-4.27
-5.69
-6.98
-8.26
-9.70
-11.33
-13.10
-14.94
-16.78
-18.73
-20.94
-23.58
-26.76
-30.48
-34.57
-38.70
-42.42
-45.18
-46.46
-45.86
-43.25
-38.81
-33.00
-26.45
-19.80
-13.64
-8.42
-4.49
-2.03
-1.05
-1.30
-2.38
-3.80
-5.07
-5.91
-6.18
-5.85
-4.92
-3.31
-0.90
2.38
6.44
10.98
15.55
19.65
22.81
24.76
25.34
24.62
22.79
20.18
17.26
14.48
12.25
10.75
9.97
9.73
9.79
9.99
10.20
10.36
10.39
10.11
9.40
8.23
6.73
5.09
3.53
2.14
0.85
-0.53
-2.16
-4.10
-6.31
-8.68
-11.09
-13.52
-16.00
-18.64
-21.57
-24.85
-28.42
-32.03
-35.18
-37.26
-37.63
-35.84
-31.71
-25.36
-17.15
-7.62
2.56
12.62
21.74
29.25
34.67
37.83
38.97
38.51
37.02
35.02
32.88
30.78
28.75
26.72
24.62
22.50
20.50
18.88
17.86
17.54
17.80
18.35
18.87
19.08
18.94
18.50
17.89
17.13
16.18
14.93
13.33
11.48
9.60
7.99
6.83
6.15
5.76
5.42
4.96
4.36
3.75
3.31
3.14
3.13
3.03
2.57
1.54
-0.08
-2.12
-4.33
-6.49
-8.48
-10.34
-12.18
-14.07
-16.11
-18.31
-20.76
-23.52
-26.72
-30.35
-34.25
-37.99
-40.94
-42.44
-42.00
-39.47
-35.13
-29.55
-23.45
-17.44
-11.98
-7.24
-3.22
0.15
3.00
5.38
7.35
8.94
10.15
10.97
11.36
11.33
11.01
10.63
10.49
10.82
11.68
12.94
14.32
15.53
16.42
17.00
17.42
17.84
18.33
18.79
19.03
18.88
18.22
17.03
15.35
13.30
11.02
8.67
6.37
4.24
2.31
0.60
-0.88
-2.17
-3.26
-4.24
-5.26
-6.53
-8.23
-10.41
-12.99
-15.74
-18.46
-21.10
-23.84
-26.94
-30.58
-34.66
-38.75
-42.11
-43.96
-43.75
-41.28
-36.83
-30.93
-24.28
-17.49
-11.00
-5.07
0.19
4.80
8.80
12.25
15.16
17.55
19.44
20.88
21.87
22.47
22.66
22.44
21.91
21.22
20.64
20.40
20.60
21.15
21.81
22.28
22.39
22.12
21.58
20.93
20.23
19.43
18.43
17.13
15.50
13.62
11.65
9.77
8.12
6.72
5.52
4.37
3.13
1.76
0.29
-1.15
-2.53
-3.85
-5.27
-6.98
-9.08
-11.56
-14.26
-16.93
-19.36
-21.50
-23.43
-25.40
-27.58
-30.10
-32.97
-36.11
-39.42
-42.71
-45.68
-47.91
-48.89
-48.16
-45.50
-41.06
-35.31
-28.86
-22.26
-15.91
-9.97
-4.56
0.23
4.27
7.41
9.66
11.13
12.04
12.63
13.08
13.55
14.12
14.87
15.85
17.08
18.43
19.72
20.70
21.23
21.32
21.12
20.78
20.36
19.74
18.69
17.00
14.65
11.86
9.02
6.49
4.50
2.96
1.62
0.17
-1.56
-3.51
-5.52
-7.39
-9.06
-10.65
-12.36
-14.40
-16.87
-19.71
-22.81
-26.12
-29.61
-33.28
-36.94
-40.16
-42.25
-42.46
-40.29
-35.69
-29.17
-21.63
-14.08
-7.28
-1.60
2.98
6.65
9.56
11.70
12.94
13.28
12.89
12.16
11.60
11.54
12.11
13.10
14.17
14.97
15.30
15.16
14.75
14.32
14.04
13.93
13.87
13.63
13.03
12.04
10.77
9.37
8.02
6.73
5.46
4.06
2.44
0.56
-1.55
-3.81
-6.06
-8.19
-10.18
-12.11
-14.20
-16.73
-19.85
-23.62
-27.81
-32.04
-35.84
-38.71
-40.24
-40.06
-37.98
-33.99
-28.37
-21.65
-14.53
-7.73
-1.73
3.28
7.38
10.78
13.70
16.12
17.94
18.99
19.22
18.86
18.29
17.93
18.05
18.64
19.44
20.10
20.38
20.21
19.70
19.02
18.25
17.34
16.13
14.47
12.28
9.63
6.71
3.76
0.99
-1.50
-3.72
-5.82
-8.01
-10.49
-13.42
-16.80
-20.43
-24.02
-27.21
-29.64
-30.98
-30.95
-29.32
-26.02
-21.18
-15.26
-8.90
-2.85
2.36
6.53
9.80
12.47
14.80
16.85
18.49
19.51
19.83
19.51
18.80
18.00
17.35
16.97
16.87
16.98
17.22
17.47
17.62
17.49
16.88
15.61
13.59
10.92
7.85
4.77
1.99
-0.36
-2.45
-4.61
-7.26
-10.68
-14.87
-19.57
-24.23
-28.18
-30.72
-31.36
-29.86
-26.38
-21.37
-15.46
-9.31
-3.41
1.94
6.65
10.74
14.27
17.31
19.90
22.09
23.89
25.31
26.30
26.82
26.83
26.42
25.79
25.25
25.15
25.68
26.82
28.25
29.46
30.01
29.68
28.63
27.27
26.04
25.18
24.67
24.27
23.66
22.67
21.25
19.54
17.69
15.82
13.99
12.25
10.62
9.13
7.79
6.60
5.49
4.32
2.97
1.28
-0.82
-3.33
-6.08
-8.86
-11.41
-13.57
-15.36
-16.91
-18.47
-20.25
-22.32
-24.68
-27.28
-30.17
-33.47
-37.27
-41.44
-45.46
-48.49
-49.54
-47.92
-43.48
-36.74
-28.70
-20.44
-12.80
-6.18
-0.58
4.18
8.26
11.70
14.45
16.55
18.16
19.52
20.88
22.33
23.76
24.94
25.63
25.82
25.68
25.56
25.79
26.52
27.64
28.83
29.71
30.01
29.66
28.80
27.67
26.51
25.46
24.47
23.40
22.11
20.54
18.78
17.05
15.55
14.39
13.51
12.73
11.87
10.82
9.57
8.19
6.69
5.09
3.35
1.44
-0.58
-2.60
-4.53
-6.34
-8.10
-9.93
-11.98
-14.27
-16.71
-19.12
-21.26
-23.02
-24.49
-25.96
-27.87
-30.59
-34.27
-38.65
-43.03
-46.47
-48.03
-47.08
-43.53
-37.80
-30.66
-23.00
-15.53
-8.71
-2.77
2.24
6.34
9.61
12.21
14.36
16.32
18.25
20.17
21.89
23.18
23.83
23.83
23.35
22.78
22.49
22.77
23.69
25.04
26.43
27.45
27.81
27.50
26.72
25.76
24.86
24.08
23.33
22.45
21.39
20.21
19.03
17.93
16.88
15.78
14.53
13.09
11.53
9.94
8.39
6.92
5.51
4.18
2.96
1.92
1.06
0.33
-0.39
-1.25
-2.41
-3.96
-5.94
-8.32
-10.97
-13.68
-16.26
-18.56
-20.56
-22.35
-24.10
-26.01
-28.25
-30.96
-34.14
-37.66
-41.13
-43.97
-45.50
-45.19
-42.77
-38.38
-32.45
-25.64
-18.62
-12.00
-6.21
-1.43
2.38
5.41
7.97
10.23
12.24
13.84
14.88
15.28
15.21
14.96
14.84
15.04
15.55
16.23
16.83
17.18
17.14
16.64
15.72
14.50
13.19
12.10
11.47
11.37
11.70
12.20
12.55
12.51
12.05
11.24
10.25
9.20
8.11
7.00
5.87
4.76
3.79
3.06
2.60
2.32
2.07
1.64
0.88
-0.32
-1.94
-3.91
-6.13
-8.47
-10.85
-13.21
-15.51
-17.77
-20.08
-22.55
-25.17
-27.79
-30.01
-31.25
-30.95
-28.77
-24.72
-19.17
-12.74
-6.13
0.04
5.29
9.34
12.17
13.94
14.97
15.60
16.10
16.56
16.96
17.22
17.32
17.33
17.37
17.54
17.86
18.29
18.73
19.20
19.73
20.39
21.21
22.19
23.21
24.17
24.93
25.42
25.56
25.33
24.71
23.79
22.74
21.81
21.14
20.72
20.31
19.60
18.41
16.84
15.24
14.00
13.26
12.68
11.70
9.72
6.53
2.38
-2.14
-6.41
-10.13
-13.34
-16.32
-19.35
-22.55
-25.87
-29.19
-32.45
-35.60
-38.57
-41.19
-43.12
-43.90
-43.11
-40.51
-36.21
-30.64
-24.41
-18.22
-12.61
-7.89
-4.15
-1.35
0.59
1.76
2.24
2.25
2.05
1.97
2.26
2.95
3.92
4.89
5.67
6.14
6.36
6.58
7.09
8.16
9.92
12.31
15.09
17.88
20.26
21.81
22.24
21.38
19.29
16.18
12.43
8.46
4.65
1.19
-1.90
-4.82
-7.80
-11.02
-14.51
-18.19
-21.95
-25.64
-29.20
-32.55
-35.60
-38.36
-40.83
-43.10
-45.31
-47.56
-49.90
-52.30
-54.64
-56.75
-58.41
-59.29
-59.04
-57.28
-53.81
-48.65
-42.13
-34.88
-27.59
-20.88
-15.11
-10.36
-6.44
-3.10
-0.13
2.57
4.98
7.04
8.76
10.22
11.56
12.85
14.12
15.24
16.09
16.59
16.80
16.86
16.89
16.96
17.02
16.97
16.77
16.39
15.84
15.12
14.15
12.91
11.36
9.58
7.70
5.87
4.21
2.75
1.47
0.30
-0.85
-2.06
-3.35
-4.69
-5.96
-6.99
-7.64
-7.91
-7.97
-8.10
-8.55
-9.44
-10.64
-11.91
-13.06
-14.02
-14.94
-16.02
-17.47
-19.26
-21.18
-22.82
-23.69
-23.40
-21.70
-18.58
-14.22
-8.94
-3.14
2.84
8.63
13.95
18.52
22.10
24.51
25.76
26.01
25.61
24.98
24.44
24.12
23.93
23.66
23.16
22.46
21.83
21.54
21.78
22.46
23.31
23.98
24.24
24.02
23.38
22.43
21.20
19.71
17.96
16.07
14.20
12.53
11.13
9.98
8.95
7.94
6.86
5.67
4.34
2.89
1.36
-0.12
-1.48
-2.65
-3.69
-4.76
-6.03
-7.58
-9.32
-11.07
-12.67
-14.09
-15.48
-17.12
-19.23
-21.86
-24.81
-27.71
-30.10
-31.59
-31.87
-30.77
-28.24
-24.34
-19.26
-13.38
-7.24
-1.46
3.40
7.01
9.34
10.68
11.44
11.97
12.46
12.85
13.05
13.02
12.85
12.79
13.07
13.72
14.61
15.46
16.08
16.41
16.56
16.68
16.85
16.97
16.81
16.13
14.81
12.88
10.55
8.13
5.91
4.06
2.58
1.30
-0.01
-1.58
-3.49
-5.66
-7.88
-9.95
-11.77
-13.42
-15.15
-17.24
-19.93
-23.24
-26.97
-30.77
-34.17
-36.68
-37.93
-37.66
-35.76
-32.30
-27.49
-21.73
-15.54
-9.51
-4.14
0.31
3.87
6.80
9.39
11.78
13.92
15.59
16.60
16.95
16.82
16.52
16.32
16.43
16.87
17.61
18.58
19.69
20.84
21.86
22.59
22.86
22.59
21.80
20.63
19.23
17.77
16.33
14.88
13.30
11.44
9.21
6.66
3.98
1.43
-0.75
-2.45
-3.78
-4.98
-6.28
-7.87
-9.78
-11.96
-14.31
-16.76
-19.24
-21.81
-24.54
-27.55
-30.90
-34.51
-38.06
-41.03
-42.78
-42.78
-40.75
-36.74
-31.21
-24.82
-18.22
-11.96
-6.32
-1.37
2.92
6.63
9.76
12.25
14.06
15.20
15.83
16.21
16.59
17.14
17.90
18.82
19.81
20.74
21.48
21.94
22.05
21.85
21.47
21.03
20.59
20.11
19.45
18.49
17.17
15.59
13.91
12.27
10.70
9.09
7.28
5.12
2.62
-0.11
-2.85
-5.36
-7.50
-9.29
-10.85
-12.36
-13.99
-15.84
-17.97
-20.38
-23.11
-26.16
-29.43
-32.58
-35.02
-36.04
-35.07
-31.92
-26.88
-20.70
-14.18
-7.99
-2.39
2.67
7.37
11.79
15.75
18.97
21.20
22.40
22.79
22.73
22.52
22.38
22.32
22.34
22.41
22.57
22.86
23.30
23.87
24.42
24.78
24.76
24.18
22.95
21.13
18.94
16.62
14.43
12.46
10.67
8.93
7.14
5.32
3.49
1.72
-0.08
-2.03
-4.26
-6.82
-9.61
-12.41
-15.06
-17.45
-19.59
-21.66
-23.85
-26.40
-29.46
-33.04
-36.91
-40.58
-43.42
-44.70
-43.94
-40.98
-36.05
-29.72
-22.66
-15.51
-8.72
-2.57
2.78
7.29
10.99
13.99
16.43
18.46
20.14
21.41
22.18
22.43
22.32
22.12
22.12
22.48
23.19
24.01
24.75
25.25
25.49
25.56
25.48
25.25
24.77
23.96
22.77
21.32
19.77
18.27
16.89
15.51
13.94
12.01
9.69
7.13
4.64
2.54
0.94
-0.24
-1.33
-2.67
-4.53
-6.91
-9.66
-12.48
-15.13
-17.50
-19.66
-21.86
-24.36
-27.33
-30.79
-34.51
-38.11
-41.08
-42.96
-43.32
-41.88
-38.53
-33.38
-26.83
-19.46
-12.02
-5.14
0.70
5.34
8.87
11.57
13.74
15.62
17.32
18.84
20.11
21.06
21.68
22.03
22.25
22.46
22.75
23.10
23.48
23.84
24.22
24.65
25.16
25.63
25.87
25.63
24.80
23.42
21.71
19.96
18.41
17.12
15.90
14.46
12.56
10.13
7.32
4.36
1.45
-1.37
-4.23
-7.26
-10.49
-13.71
-16.61
-18.88
-20.41
-21.34
-22.05
-22.96
-24.42
-26.58
-29.37
-32.50
-35.42
-37.52
-38.19
-37.02
-33.94
-29.15
-23.11
-16.35
-9.39
-2.68
3.39
8.52
12.49
15.26
16.96
17.91
18.46
18.90
19.40
19.97
20.49
20.88
21.13
21.30
21.51
21.89
22.41
22.95
23.33
23.40
23.12
22.57
21.86
21.05
20.13
18.99
17.56
15.81
13.83
11.76
9.75
7.86
6.05
4.23
2.30
0.25
-1.83
-3.82
-5.64
-7.37
-9.16
-11.20
-13.57
-16.19
-18.87
-21.50
-24.13
-26.97
-30.21
-33.82
-37.39
-40.16
-41.32
-40.24
-36.83
-31.48
-24.95
-18.03
-11.33
-5.20
0.26
4.99
8.92
11.96
14.06
15.34
16.12
16.78
17.65
18.81
20.13
21.29
22.04
22.29
22.23
22.16
22.32
22.82
23.51
24.15
24.48
24.40
23.94
23.23
22.43
21.57
20.64
19.51
18.05
16.19
13.96
11.46
8.90
6.43
4.16
2.16
0.42
-1.09
-2.44
-3.73
-5.16
-6.93
-9.13
-11.73
-14.53
-17.20
-19.53
-21.47
-23.26
-25.20
-27.60
-30.54
-33.84
-37.08
-39.65
-40.91
-40.32
-37.63
-32.92
-26.63
-19.47
-12.23
-5.57
0.08
4.61
8.11
10.77
12.82
14.39
15.60
16.50
17.13
17.52
17.72
17.84
17.97
18.23
18.72
19.45
20.39
21.41
22.37
23.09
23.43
23.30
22.69
21.73
20.60
19.46
18.38
17.31
16.06
14.50
12.56
10.34
8.03
5.83
3.84
2.04
0.34
-1.35
-3.13
-5.01
-6.99
-9.02
-11.05
-13.02
-14.90
-16.67
-18.36
-20.05
-21.81
-23.66
-25.53
-27.30
-28.73
-29.55
-29.40
-27.92
-24.83
-20.05
-13.85
-6.74
0.58
7.54
13.78
19.23
24.05
28.39
32.32
35.78
38.64
40.81
42.26
43.02
43.06
42.34
40.77
38.38
35.38
32.09
28.93
26.16
23.87
21.85
19.80
17.45
14.75
11.84
8.97
6.32
3.94
1.72
-0.45
-2.59
-4.62
-6.40
-7.89
-9.20
-10.54
-12.18
-14.23
-16.63
-19.14
-21.54
-23.70
-25.66
-27.65
-29.93
-32.69
-35.87
-39.23
-42.28
-44.46
-45.28
-44.40
-41.77
-37.55
-32.19
-26.19
-20.06
-14.16
-8.69
-3.68
0.89
5.00
8.58
11.47
13.61
15.03
15.85
16.27
16.47
16.64
16.93
17.48
18.40
19.68
21.25
22.92
24.45
25.70
26.59
27.14
27.42
27.47
27.31
26.93
26.36
25.62
24.79
23.90
22.96
21.90
20.66
19.15
17.32
15.14
12.63
9.87
6.93
3.86
0.67
-2.66
-6.14
-9.71
-13.26
-16.64
-19.71
-22.51
-25.13
-27.79
-30.67
-33.86
-37.23
-40.46
-43.14
-44.80
-45.11
-43.87
-41.05
-36.78
-31.35
-25.21
-18.87
-12.93
-7.85
-3.97
-1.29
0.43
1.57
2.48
3.33
4.14
4.79
5.22
5.49
5.78
6.28
7.07
8.11
9.22
10.19
10.92
11.39
11.66
11.73
11.57
11.04
10.05
8.58
6.71
4.60
2.38
0.11
-2.23
-4.69
-7.29
-9.93
-12.48
-14.80
-16.80
-18.48
-19.90
-21.18
-22.44
-23.80
-25.38
-27.29
-29.59
-32.27
-35.26
-38.33
-41.18
-43.38
-44.45
-43.99
-41.75
-37.80
-32.47
-26.31
-19.88
-13.66
-7.93
-2.82
1.62
5.36
8.37
10.66
12.33
13.51
14.44
15.31
16.29
17.42
18.65
19.83
20.80
21.40
21.57
21.41
21.10
20.88
20.91
21.19
21.55
21.78
21.70
21.27
20.60
19.81
18.95
17.94
16.61
14.83
12.65
10.34
8.16
6.35
4.93
3.74
2.54
1.12
-0.57
-2.50
-4.50
-6.44
-8.21
-9.76
-11.07
-12.17
-13.15
-14.14
-15.31
-16.91
-19.14
-22.17
-25.96
-30.20
-34.32
-37.56
-39.16
-38.64
-35.92
-31.36
-25.62
-19.50
-13.67
-8.52
-4.23
-0.78
1.99
4.23
6.07
7.60
8.93
10.08
11.11
12.00
12.72
13.21
13.41
13.36
13.17
13.04
13.16
13.65
14.50
15.57
16.64
17.48
17.88
17.75
17.11
16.13
15.03
14.04
13.26
12.72
12.29
11.79
11.03
9.92
8.46
6.75
4.92
3.10
1.43
-0.05
-1.33
-2.52
-3.74
-5.14
-6.83
-8.79
-10.97
-13.28
-15.58
-17.83
-19.98
-22.09
-24.22
-26.52
-29.15
-32.16
-35.42
-38.54
-40.87
-41.72
-40.57
-37.32
-32.36
-26.38
-20.22
-14.48
-9.44
-5.09
-1.26
2.16
5.18
7.69
9.59
10.89
11.75
12.39
13.00
13.70
14.48
15.24
15.90
16.42
16.83
17.19
17.57
18.00
18.43
18.79
18.95
18.82
18.40
17.76
17.02
16.24
15.36
14.26
12.75
10.82
8.61
6.40
4.46
2.86
1.46
-0.01
-1.71
-3.66
-5.70
-7.71
-9.65
-11.62
-13.74
-16.04
-18.39
-20.65
-22.75
-24.84
-27.19
-30.02
-33.25
-36.41
-38.78
-39.58
-38.34
-35.01
-30.03
-24.07
-17.81
-11.75
-6.19
-1.24
3.00
6.47
9.11
10.97
12.21
13.05
13.67
14.18
14.61
14.95
15.20
15.39
15.56
15.74
16.00
16.36
16.90
17.62
18.44
19.22
19.76
19.95
19.74
19.21
18.45
17.54
16.52
15.32
13.86
12.07
9.95
7.60
5.16
2.78
0.56
-1.45
-3.31
-5.09
-6.86
-8.63
-10.44
-12.28
-14.14
-16.02
-17.95
-20.00
-22.30
-25.02
-28.27
-32.05
-36.09
-39.95
-43.00
-44.64
-44.40
-42.08
-37.81
-31.99
-25.21
-18.12
-11.31
-5.20
-0.00
4.19
7.44
9.84
11.56
12.79
13.72
14.51
15.31
16.18
17.12
18.07
18.96
19.73
20.37
20.94
21.52
22.10
22.60
22.90
22.92
22.67
22.25
21.80
21.36
20.81
19.95
18.60
16.75
14.60
12.44
10.50
8.88
7.41
5.89
4.08
1.93
-0.47
-2.92
-5.24
-7.33
-9.20
-10.95
-12.72
-14.63
-16.80
-19.38
-22.51
-26.29
-30.69
-35.42
-39.90
-43.37
-45.07
-44.45
-41.41
-36.33
-29.94
-23.09
-16.49
-10.54
-5.38
-0.94
2.93
6.30
9.21
11.65
13.63
15.17
16.32
17.12
17.55
17.61
17.30
16.76
16.27
16.16
16.75
18.14
20.09
22.10
23.55
23.98
23.29
21.76
19.88
18.07
16.51
15.04
13.44
11.57
9.51
7.52
5.81
4.38
2.99
1.28
-1.02
-3.91
-7.17
-10.44
-13.48
-16.21
-18.80
-21.48
-24.46
-27.77
-31.37
-35.10
-38.77
-42.10
-44.73
-46.18
-45.98
-43.75
-39.44
-33.37
-26.23
-18.92
-12.25
-6.74
-2.49
0.80
3.59
6.28
9.03
11.72
14.11
16.00
17.32
18.25
19.05
19.97
21.10
22.30
23.42
24.26
24.84
25.30
25.79
26.37
26.88
27.04
26.60
25.51
23.95
22.22
20.61
19.18
17.80
16.20
14.18
11.75
9.11
6.57
4.31
2.40
0.62
-1.32
-3.68
-6.51
-9.62
-12.69
-15.43
-17.82
-20.12
-22.84
-26.36
-30.78
-35.80
-40.77
-44.97
-47.74
-48.66
-47.54
-44.37
-39.39
-32.99
-25.78
-18.45
-11.67
-5.87
-1.18
2.52
5.51
8.06
10.36
12.50
14.43
16.10
17.45
18.53
19.45
20.36
21.35
22.48
23.68
24.92
26.12
27.23
28.18
28.90
29.28
29.22
28.67
27.62
26.15
24.36
22.39
20.38
18.42
16.52
14.65
12.69
10.51
8.06
5.46
2.91
0.68
-1.13
-2.60
-4.00
-5.70
-7.93
-10.70
-13.82
-17.09
-20.38
-23.81
-27.59
-31.80
-36.16
-39.94
-42.21
-42.16
-39.53
-34.63
-28.21
-21.13
-14.04
-7.31
-1.11
4.39
8.99
12.46
14.75
16.07
16.78
17.28
17.81
18.35
18.76
18.96
18.98
19.02
19.29
19.90
20.78
21.77
22.70
23.49
24.14
24.71
25.19
25.50
25.56
25.27
24.63
23.65
22.37
20.82
19.01
16.97
14.77
12.48
10.18
7.88
5.57
3.22
0.78
-1.74
-4.32
-6.92
-9.50
-12.02
-14.45
-16.84
-19.28
-21.94
-25.02
-28.68
-32.90
-37.46
-41.82
-45.30
-47.21
-47.03
-44.62
-40.17
-34.13
-27.05
-19.44
-11.73
-4.31
2.45
8.22
12.83
16.31
18.88
20.81
22.37
23.64
24.62
25.27
25.64
25.86
26.09
26.47
27.05
27.83
28.74
29.67
30.49
31.12
31.47
31.51
31.24
30.66
29.75
28.50
26.94
25.20
23.48
21.97
20.73
19.65
18.48
17.01
15.13
12.99
10.82
8.87
7.25
5.83
4.39
2.65
0.52
-1.91
-4.44
-6.81
-8.89
-10.69
-12.39
-14.19
-16.26
-18.63
-21.28
-24.20
-27.44
-31.17
-35.45
-40.06
-44.40
-47.57
-48.68
-47.14
-42.96
-36.65
-29.06
-21.04
-13.30
-6.29
-0.32
4.40
7.81
10.07
11.52
12.68
13.98
15.65
17.63
19.65
21.36
22.55
23.22
23.55
23.80
24.19
24.82
25.59
26.36
26.97
27.30
27.35
27.19
26.88
26.46
25.87
25.00
23.75
22.10
20.15
18.15
16.35
14.94
13.93
13.16
12.36
11.31
9.95
8.40
6.90
5.59
4.43
3.19
1.56
-0.69
-3.57
-6.83
-10.09
-13.02
-15.53
-17.74
-19.89
-22.21
-24.79
-27.60
-30.56
-33.65
-36.85
-40.08
-43.00
-45.02
-45.42
-43.60
-39.39
-33.19
-25.83
-18.32
-11.41
-5.48
-0.50
3.78
7.52
10.68
13.00
14.29
14.52
14.01
13.22
12.63
12.48
12.78
13.32
13.88
14.33
14.72
15.24
16.01
17.04
18.16
19.13
19.72
19.81
19.40
18.68
17.81
16.92
16.06
15.12
13.96
12.50
10.81
9.10
7.65
6.63
6.06
5.68
5.14
4.11
2.52
0.51
-1.63
-3.67
-5.58
-7.51
-9.65
-12.10
-14.78
-17.50
-20.09
-22.57
-25.14
-28.10
-31.63
-35.62
-39.64
-43.00
-44.99
-45.10
-43.13
-39.20
-33.71
-27.17
-20.15
-13.17
-6.68
-1.01
3.68
7.37
10.21
12.39
14.12
15.50
16.56
17.28
17.68
17.87
18.03
18.28
18.68
19.19
19.78
20.45
21.28
22.34
23.59
24.88
25.87
26.26
25.87
24.80
23.36
21.93
20.81
20.12
19.73
19.40
18.89
18.01
16.73
15.12
13.30
11.38
9.45
7.53
5.62
3.70
1.75
-0.25
-2.37
-4.63
-7.08
-9.70
-12.38
-15.02
-17.51
-19.86
-22.18
-24.69
-27.64
-31.18
-35.31
-39.80
-44.20
-47.91
-50.36
-51.05
-49.76
-46.44
-41.36
-34.94
-27.73
-20.36
-13.39
-7.24
-2.08
2.15
5.66
8.71
11.45
13.88
15.90
17.39
18.29
18.73
18.88
19.00
19.32
19.94
20.88
21.99
23.06
23.92
24.48
24.71
24.66
24.31
23.59
22.49
21.02
19.40
17.86
16.65
15.88
15.43
15.09
14.59
13.76
12.55
11.03
9.36
7.67
6.04
4.51
3.06
1.65
0.22
-1.21
-2.64
-4.07
-5.54
-7.17
-9.08
-11.34
-13.89
-16.58
-19.21
-21.70
-24.10
-26.63
-29.50
-32.75
-36.10
-38.91
-40.39
-39.82
-36.94
-31.96
-25.63
-18.85
-12.38
-6.64
-1.64
2.79
6.78
10.25
12.97
14.73
15.55
15.72
15.70
15.86
16.27
16.75
17.03
16.99
16.83
16.92
17.64
19.07
20.92
22.66
23.81
24.08
23.53
22.45
21.09
19.62
18.02
16.28
14.45
12.67
11.16
10.02
9.21
8.46
7.47
6.03
4.14
2.00
-0.12
-2.04
-3.80
-5.55
-7.55
-9.89
-12.52
-15.25
-17.83
-20.12
-22.11
-23.97
-25.97
-28.38
-31.38
-34.98
-38.92
-42.61
-45.34
-46.37
-45.22
-41.83
-36.53
-29.94
-22.75
-15.58
-8.84
-2.82
2.40
6.78
10.33
13.11
15.22
16.83
18.06
19.06
19.88
20.54
21.00
21.28
21.43
21.57
21.84
22.30
22.92
23.54
24.02
24.25
24.25
24.11
23.88
23.51
22.85
21.77
20.22
18.30
16.24
14.29
12.64
11.28
10.07
8.79
7.29
5.52
3.54
1.49
-0.50
-2.37
-4.18
-6.04
-8.06
-10.31
-12.76
-15.32
-17.90
-20.40
-22.84
-25.24
-27.67
-30.23
-33.05
-36.23
-39.82
-43.68
-47.42
-50.49
-52.20
-52.01
-49.71
-45.45
-39.70
-33.07
-26.08
-19.13
-12.47
-6.31
-0.88
3.62
7.12
9.74
11.79
13.60
15.45
17.35
19.12
20.51
21.36
21.80
22.08
22.60
23.62
25.20
27.18
29.29
31.21
32.70
33.60
33.78
33.23
32.00
30.27
28.24
26.19
24.26
22.46
20.69
18.76
16.54
14.03
11.35
8.69
6.23
4.05
2.10
0.21
-1.76
-3.92
-6.25
-8.64
-10.97
-13.20
-15.34
-17.48
-19.76
-22.28
-25.14
-28.35
-31.82
-35.33
-38.47
-40.73
-41.54
-40.54
-37.60
-32.90
-26.85
-20.01
-12.94
-6.21
-0.27
4.56
8.20
10.72
12.35
13.32
13.80
13.85
13.47
12.70
11.69
10.71
10.01
9.68
9.69
9.79
9.77
9.46
8.87
8.13
7.38
6.62
5.75
4.58
2.92
0.71
-1.92
-4.79
-7.73
-10.58
-13.25
-15.56
-17.20
-17.81
-17.14
-15.23
-12.49
-9.64
-7.37
-6.19
-6.19
-7.15
-8.77
-10.84
-13.33
-16.36
-20.06
-24.35
-28.97
-33.42
-37.13
-39.54
-40.24
-39.00
-35.86
-31.07
-25.00
-18.13
-10.85
-3.59
3.28
9.40
14.46
18.29
20.93
22.63
23.75
24.64
25.50
26.38
27.20
27.85
28.27
28.47
28.54
28.63
28.89
29.43
30.22
31.14
31.93
32.41
32.43
32.04
31.34
30.45
29.50
28.61
27.97
27.82
28.36
29.63
31.49
33.62
35.67
37.43
38.88
40.12
41.23
42.22
42.95
43.31
43.21
42.75
42.10
41.33
40.29
38.49
35.25
29.94
22.32
12.64
1.67
-9.60
-20.27
-29.72
-37.72
-44.35
-49.81
-54.31
-57.96
-60.68
-62.16
-61.88
-59.23
-53.87
-45.95
-36.33
-26.33
-17.39
-10.51
-5.95
-3.24
-1.43
0.41
2.94
6.33
10.42
14.93
19.57
24.14
28.38
31.97
34.47
35.47
34.72
32.29
28.55
24.02
19.19
14.34
9.45
4.38
-1.07
-6.89
-12.83
-18.39
-22.89
-25.53
-25.62
-22.67
-16.66
-8.09
2.03
12.55
22.51
31.47
39.52
47.08
54.63
62.51
71.04
80.55
91.31
103.42
116.48
129.55
141.38
150.74
156.70
158.62
155.91
147.90
134.03
114.25
89.37
61.07
31.48
2.47
-24.70
-49.36
-71.32
-90.49
-106.92
-120.84
-132.66
-142.93
-152.29
-161.65
-172.41
-186.02
-203.02
-221.72
-237.66
-244.59
-237.01
-213.06
-175.98
-133.30
-93.83
-64.13
-46.36
-38.60
-36.87
-37.73
-39.61
-42.57
-47.04
-52.56
-57.62
-60.41
-59.87
-56.37
-51.62
-47.74
-46.21
-47.08
-49.02
-49.93
-47.91
-42.10
-32.96
-22.00
-11.08
-1.65
5.66
11.12
15.55
19.79
24.28
28.89
33.10
36.33
38.30
39.15
39.34
39.41
39.73
40.42
41.43
42.70
44.23
46.05
48.10
50.16
51.95
53.21
53.82
53.85
53.44
52.69
51.61
50.18
48.43
46.47
44.46
42.51
40.65
38.77
36.73
34.50
32.14
29.88
27.92
26.35
25.05
23.75
22.08
19.77
16.73
13.09
9.17
5.33
1.90
-0.98
-3.31
-5.31
-7.28
-9.54
-12.36
-15.78
-19.66
-23.63
-27.17
-29.71
-30.64
-29.40
-25.61
-19.23
-10.67
-0.86
8.97
17.56
24.01
27.91
29.38
28.98
27.40
25.37
23.49
22.23
21.75
21.99
22.60
23.08
22.98
22.07
20.37
18.18
15.86
13.72
11.92
10.44
9.12
7.68
5.83
3.29
-0.07
-4.15
-8.66
-13.18
-17.28
-20.68
-23.26
-25.07
-26.20
-26.72
-26.78
-26.50
-26.09
-25.75
-25.60
-25.64
-25.76
-25.85
-25.85
-25.81
-25.87
-26.15
-26.68
-27.36
-28.03
-28.60
-29.16
-29.96
-31.37
-33.63
-36.71
-40.18
-43.33
-45.34
-45.56
-43.70
-39.79
-34.14
-27.14
-19.22
-10.82
-2.46
5.25
11.73
16.60
19.86
21.94
23.53
25.33
27.75
30.77
33.96
36.67
38.38
38.84
38.22
36.91
35.43
34.14
33.24
32.74
32.56
32.62
32.84
33.15
33.39
33.39
33.03
32.33
31.51
30.91
30.86
31.52
32.84
34.64
36.72
39.04
41.67
44.68
47.98
51.24
54.00
55.86
56.79
57.10
57.35
57.94
58.85
59.55
59.44
58.21
56.10
53.84
52.15
51.28
50.77
49.71
47.23
42.94
37.15
30.57
24.01
17.93
12.36
6.99
1.34
-5.15
-12.95
-22.40
-33.55
-46.03
-59.19
-72.16
-84.17
-94.72
-103.62
-110.79
-116.21
-119.81
-121.53
-121.42
-119.75
-116.99
-113.80
-110.83
-108.59
-107.30
-106.89
-106.93
-106.85
-105.99
-103.71
-99.47
-92.86
-83.73
-72.24
-59.02
-45.09
-31.78
-20.38
-11.83
-6.49
-4.11
-3.88
-4.68
-5.25
-4.49
-1.65
3.53
10.74
19.32
28.45
37.57
46.54
55.63
65.22
75.43
85.74
95.00
101.68
104.30
101.96
94.51
82.62
67.49
50.55
33.12
16.28
0.82
-12.68
-23.76
-32.18
-37.98
-41.70
-44.35
-47.18
-51.23
-56.82
-63.25
-68.94
-72.10
-71.58
-67.56
-61.62
-56.11
-52.96
-52.73
-54.24
-55.08
-52.96
-46.84
-37.65
-27.91
-20.52
-17.57
-19.63
-25.83
-34.35
-42.77
-48.11
-47.09
-37.02
-17.49
8.12
32.46
46.42
43.08
21.52
-11.93
-46.06
-69.81
-77.11
-69.11
-52.27
-34.15
-19.28
-7.77
3.13
15.74
29.73
42.09
49.26
49.76
45.46
40.65
39.69
44.75
55.07
67.80
79.97
90.02
98.41
106.91
117.34
130.48
145.56
160.46
172.47
179.14
179.12
172.56
161.13
147.40
134.04
122.86
114.33
107.59
101.13
93.54
84.21
73.54
62.60
52.65
44.51
38.33
33.67
29.84
26.31
22.89
19.80
17.43
16.09
15.89
16.66
18.13
19.87
21.45
22.40
22.29
20.80
17.85
13.55
8.12
1.79
-5.40
-13.61
-23.06
-33.93
-46.09
-58.98
-71.65
-82.88
-91.54
-96.89
-98.80
-97.70
-94.40
-89.73
-84.36
-78.73
-73.15
-67.92
-63.22
-59.09
-55.27
-51.34
-46.85
-41.57
-35.68
-29.61
-23.91
-18.93
-14.80
-11.48
-8.90
-6.97
-5.64
-4.73
-3.95
-2.96
-1.59
0.07
1.62
2.60
2.68
1.81
0.23
-1.73
-3.78
-5.81
-7.85
-9.96
-12.21
-14.61
-17.19
-20.05
-23.35
-27.12
-31.17
-35.01
-37.94
-39.27
-38.51
-35.62
-31.00
-25.32
-19.31
-13.52
-8.17
-3.30
1.17
5.28
8.99
12.30
15.18
17.68
19.78
21.39
22.35
22.50
21.85
20.62
19.22
18.09
17.57
17.71
18.38
19.26
20.04
20.49
20.49
20.06
19.25
18.08
16.56
14.67
12.49
10.16
7.92
5.97
4.31
2.72
0.89
-1.51
-4.55
-8.03
-11.52
-14.60
-17.01
-18.81
-20.37
-22.17
-24.58
-27.68
-31.21
-34.64
-37.36
-38.84
-38.76
-36.99
-33.57
-28.68
-22.66
-15.98
-9.25
-3.05
2.19
6.33
9.51
12.01
14.07
15.73
16.92
17.55
17.64
17.43
17.15
17.01
16.95
16.78
16.24
15.23
13.94
12.76
12.11
12.20
12.90
13.78
14.32
14.17
13.30
11.93
10.42
9.00
7.68
6.33
4.78
3.00
1.09
-0.78
-2.46
-3.93
-5.26
-6.58
-7.92
-9.34
-10.91
-12.74
-15.01
-17.80
-21.05
-24.40
-27.28
-29.02
-29.01
-26.98
-23.03
-17.71
-11.78
-6.10
-1.30
2.38
5.06
7.14
8.98
10.79
12.43
13.60
14.00
13.54
12.45
11.17
10.11
9.43
9.05
8.70
8.24
7.72
7.36
7.37
7.63
7.76
7.29
5.98
4.08
2.24
1.20
1.41
2.83
4.97
7.22
9.15
10.58
11.52
12.00
11.95
11.24
9.87
8.01
6.04
4.39
3.36
3.03
3.24
3.67
3.98
3.91
3.42
2.65
1.83
1.18
0.82
0.71
0.72
0.75
0.70
0.60
0.41
0.11
-0.40
-1.19
-2.30
-3.65
-5.11
-6.49
-7.66
-8.54
-9.14
-9.54
-9.86
-10.31
-11.08
-12.30
-14.02
-16.12
-18.42
-20.72
-22.80
-24.59
-26.10
-27.48
-28.93
-30.63
-32.62
-34.73
-36.52
-37.44
-36.98
-34.84
-31.05
-25.97
-20.16
-14.20
-8.54
-3.50
0.74
4.10
6.58
8.31
9.49
10.35
11.09
11.79
12.44
12.98
13.29
13.30
13.01
12.50
11.95
11.58
11.56
11.91
12.45
12.86
12.80
12.11
10.87
9.36
7.86
6.52
5.32
4.11
2.80
1.43
0.10
-1.13
-2.29
-3.53
-5.03
-6.85
-8.89
-10.95
-12.88
-14.63
-16.28
-17.99
-19.92
-22.13
-24.55
-26.95
-29.00
-30.38
-30.81
-30.19
-28.52
-25.83
-22.22
-17.82
-12.87
-7.80
-3.14
0.61
3.23
4.82
5.84
6.77
7.89
9.11
10.07
10.44
10.07
9.19
8.19
7.50
7.32
7.57
7.97
8.27
8.34
8.21
8.03
7.87
7.66
7.23
6.42
5.20
3.75
2.31
1.07
0.03
-0.98
-2.18
-3.64
-5.24
-6.78
-8.10
-9.27
-10.54
-12.23
-14.51
-17.29
-20.18
-22.65
-24.14
-24.29
-22.97
-20.31
-16.65
-12.43
-8.10
-4.02
-0.41
2.63
5.03
6.80
7.97
8.69
9.15
9.51
9.84
10.04
9.91
9.31
8.28
7.11
6.24
6.03
6.62
7.84
9.32
10.62
11.43
11.62
11.23
10.30
8.98
7.39
5.72
4.21
3.04
2.27
1.79
1.30
0.46
-0.96
-2.94
-5.25
-7.59
-9.76
-11.76
-13.87
-16.37
-19.40
-22.76
-25.88
-28.06
-28.67
-27.46
-24.57
-20.50
-15.84
-11.08
-6.51
-2.27
1.53
4.84
7.54
9.55
10.90
11.69
12.11
12.38
12.64
12.92
13.17
13.31
13.30
13.16
13.04
13.07
13.33
13.80
14.31
14.65
14.68
14.38
13.84
13.14
12.30
11.21
9.79
8.01
5.95
3.84
1.85
0.08
-1.51
-3.06
-4.67
-6.43
-8.33
-10.39
-12.63
-15.13
-17.93
-20.99
-24.04
-26.65
-28.29
-28.51
-27.10
-24.18
-20.17
-15.64
-11.05
-6.69
-2.60
1.25
4.90
8.18
10.87
12.76
13.81
14.23
14.37
14.55
14.90
15.37
15.79
15.99
15.99
15.91
15.95
16.21
16.62
16.97
16.98
16.53
15.70
14.77
13.96
13.35
12.73
11.78
10.25
8.11
5.64
3.23
1.16
-0.49
-1.90
-3.33
-4.99
-6.91
-9.03
-11.25
-13.62
-16.21
-19.12
-22.32
-25.50
-28.15
-29.63
-29.37
-27.15
-23.15
-17.96
-12.35
-7.05
-2.44
1.38
4.57
7.32
9.71
11.66
13.11
14.05
14.61
15.01
15.40
15.80
16.14
16.29
16.26
16.20
16.34
16.84
17.72
18.75
19.62
20.00
19.76
18.99
17.87
16.68
15.55
14.51
13.41
12.13
10.57
8.73
6.77
4.81
3.00
1.36
-0.16
-1.62
-3.08
-4.53
-5.99
-7.56
-9.42
-11.81
-14.89
-18.54
-22.42
-25.99
-28.69
-30.18
-30.30
-29.14
-26.83
-23.52
-19.29
-14.31
-8.87
-3.39
1.67
5.94
9.26
11.70
13.47
14.79
15.79
16.52
16.96
17.15
17.23
17.39
17.79
18.50
19.42
20.40
21.23
21.81
22.12
22.21
22.16
21.99
21.68
21.09
20.19
19.00
17.66
16.42
15.43
14.76
14.22
13.54
12.41
10.68
8.41
5.83
3.20
0.70
-1.60
-3.74
-5.71
-7.48
-9.01
-10.31
-11.54
-13.04
-15.13
-17.98
-21.43
-24.99
-28.01
-29.84
-30.13
-28.84
-26.17
-22.48
-18.07
-13.20
-8.13
-3.12
1.49
5.37
8.33
10.40
11.76
12.69
13.44
14.10
14.68
15.12
15.39
15.58
15.79
16.14
16.70
17.41
18.17
18.84
19.34
19.63
19.76
19.74
19.56
19.19
18.53
17.60
16.43
15.14
13.82
12.54
11.27
9.96
8.55
7.01
5.31
3.44
1.36
-0.91
-3.28
-5.57
-7.61
-9.29
-10.66
-11.91
-13.30
-15.09
-17.42
-20.30
-23.55
-26.77
-29.40
-30.87
-30.70
-28.74
-25.14
-20.35
-14.95
-9.47
-4.23
0.60
4.96
8.83
12.10
14.65
16.40
17.34
17.57
17.28
16.73
16.16
15.74
15.57
15.67
16.00
16.51
17.18
17.99
18.88
19.77
20.51
20.95
21.00
20.65
20.01
19.22
18.39
17.66
17.08
16.66
16.34
16.02
15.54
14.76
13.62
12.19
10.62
9.09
7.66
6.34
5.05
3.77
2.61
1.77
1.48
1.76
2.47
3.29
3.85
3.92
3.41
2.42
1.09
-0.42
-2.01
-3.54
-4.90
-5.99
-6.90
-7.91
-9.36
-11.36
-13.51
-14.91
-14.45
-11.34
-5.55
2.08
10.14
17.30
22.73
26.38
28.74
30.44
31.88
33.13
34.11
34.77
35.33
36.25
38.06
41.13
45.43
50.47
55.36
59.10
60.91
60.44
57.95
54.18
50.09
46.60
44.27
43.18
42.91
42.58
41.15
37.69
31.70
23.24
12.94
1.84
-8.88
-18.16
-25.30
-30.05
-32.70
-33.99
-35.02
-36.93
-40.65
-46.57
-54.44
-63.48
-72.67
-80.94
-87.50
-91.79
-93.45
-92.27
-88.18
-81.34
-72.31
-61.97
-51.34
-41.40
-32.83
-25.93
-20.65
-16.84
-14.34
-12.97
-12.52
-12.61
-12.81
-12.70
-12.08
-11.13
-10.30
-10.18
-11.22
-13.52
-16.76
-20.31
-23.47
-25.78
-27.17
-27.91
-28.45
-29.20
-30.35
-31.87
-33.56
-35.11
-36.21
-36.47
-35.38
-32.44
-27.27
-19.99
-11.36
-2.52
5.25
11.10
14.72
16.33
16.41
15.47
13.88
11.81
9.27
6.27
2.95
-0.23
-2.41
-2.47
0.68
7.48
17.31
28.52
38.91
46.44
49.90
49.17
45.23
40.07
36.19
36.05
41.34
52.13
66.28
79.63
87.31
85.68
74.02
54.62
31.54
9.11
-9.32
-21.98
-28.41
-29.05
-24.81
-16.82
-7.15
1.23
5.47
4.28
-1.55
-9.64
-16.92
-20.49
-17.82
-7.97
7.78
26.24
43.19
54.44
57.00
50.12
32.83
9.21
-12.79
-26.12
-29.20
-25.33
-19.14
-13.55
-9.12
-4.86
0.63
7.56
14.48
19.18
20.08
16.98
10.97
3.79
-3.14
-8.64
-12.37
-15.25
-18.75
-24.07
-31.67
-41.51
-53.15
-65.65
-77.36
-85.68
-87.89
-82.12
-68.17
-47.98
-25.30
-4.58
12.77
24.58
30.30
30.85
27.75
22.09
14.11
3.42
-10.30
-26.46
-43.55
-58.78
-69.29
-73.05
-69.65
-60.18
-46.72
-31.53
-16.47
-3.20
7.33
14.46
17.89
18.02
16.15
14.22
13.95
16.04
19.73
23.61
26.57
28.58
30.83
34.99
42.06
51.51
61.30
68.74
71.94
70.71
66.60
62.07
59.27
59.09
60.85
62.74
62.87
60.19
54.98
48.55
42.61
38.47
36.60
36.83
38.56
41.11
43.48
44.15
40.84
31.20
14.00
-9.42
-34.73
-55.76
-66.87
-65.59
-53.76
-36.81
-21.24
-11.76
-9.70
-13.26
-19.19
-24.62
-28.23
-29.94
-30.08
-28.55
-24.62
-17.48
-6.93
6.09
19.79
32.08
41.37
47.19
50.28
52.02
53.74
55.88
57.71
57.85
55.14
49.64
43.01
37.82
36.17
38.54
43.34
47.77
49.55
48.30
45.87
45.27
48.66
55.84
63.82
68.02
64.24
50.37
27.10
-2.67
-35.10
-66.76
-95.26
-119.28
-138.28
-152.13
-161.26
-166.78
-170.48
-174.23
-179.07
-184.43
-188.08
-187.13
-179.49
-165.30
-147.25
-129.50
-115.79
-107.72
-104.06
-101.51
-96.50
-86.82
-72.52
-55.54
-38.49
-23.46
-11.30
-1.76
5.83
11.81
15.99
17.89
17.39
15.22
12.80
11.61
12.36
14.47
16.32
16.01
12.36
5.59
-2.70
-10.30
-15.30
-16.86
-15.40
-12.20
-8.69
-5.98
-4.60
-4.50
-5.40
-6.92
-8.80
-10.99
-13.60
-16.81
-20.73
-25.22
-29.80
-33.76
-36.33
-37.06
-35.98
-33.60
-30.61
-27.52
-24.40
-20.94
-16.74
-11.65
-6.00
-0.54
3.91
6.79
8.14
8.59
9.02
10.19
12.37
15.29
18.37
21.09
23.19
24.80
26.19
27.57
28.92
29.99
30.47
30.17
29.10
27.50
25.73
24.07
22.67
21.55
20.69
20.06
19.71
19.64
19.76
19.84
19.55
18.65
17.06
14.94
12.59
10.38
8.57
7.38
6.90
7.03
7.45
7.62
6.95
5.17
2.48
-0.40
-2.64
-3.79
-4.23
-4.93
-7.02
-10.99
-16.23
-21.18
-23.95
-23.21
-18.73
-11.48
-3.06
4.93
11.57
16.67
20.60
23.80
26.47
28.52
29.70
29.87
29.10
27.67
25.90
24.13
22.63
21.67
21.44
22.00
23.21
24.81
26.48
28.06
29.55
31.00
32.40
33.53
34.09
33.86
32.87
31.41
29.87
28.52
27.48
26.72
26.26
26.15
26.42
26.90
27.20
26.74
25.02
21.82
17.33
11.99
6.27
0.48
-5.32
-11.24
-17.32
-23.51
-29.62
-35.43
-40.81
-45.70
-50.01
-53.52
-55.77
-56.26
-54.60
-50.76
-45.22
-38.81
-32.49
-26.96
-22.52
-18.94
-15.69
-12.21
-8.25
-3.91
0.33
3.99
6.73
8.57
9.80
10.79
11.77
12.81
13.83
14.83
15.91
17.20
18.72
20.23
21.23
21.24
20.15
18.44
17.06
17.13
19.38
23.74
29.40
35.03
39.37
41.66
41.89
40.75
39.21
38.21
38.17
38.96
39.88
39.99
38.46
34.84
29.26
22.29
14.75
7.37
0.64
-5.23
-10.19
-14.18
-17.11
-18.89
-19.54
-19.26
-18.42
-17.35
-16.27
-15.13
-13.61
-11.40
-8.36
-4.83
-1.63
0.22
-0.15
-2.96
-7.65
-13.09
-18.07
-21.68
-23.57
-23.78
-22.48
-19.77
-15.65
-10.30
-4.13
2.07
7.54
11.81
14.99
17.71
20.78
24.75
29.53
34.49
38.78
41.81
43.54
44.46
45.29
46.48
48.04
49.51
50.21
49.64
47.68
44.47
40.35
35.74
31.09
26.95
23.91
22.41
22.54
23.93
25.90
27.63
28.42
27.80
25.48
21.32
15.32
7.81
-0.52
-8.62
-15.35
-19.89
-21.96
-21.86
-20.15
-17.37
-13.79
-9.48
-4.47
0.97
6.24
10.57
13.33
14.24
13.52
11.77
9.70
7.89
6.64
5.93
5.57
5.14
4.08
1.68
-2.75
-9.53
-18.38
-28.41
-38.44
-47.53
-55.36
-62.30
-68.84
-75.00
-80.00
-82.57
-81.64
-77.04
-69.72
-61.32
-53.34
-46.48
-40.55
-34.82
-28.68
-22.04
-15.41
-9.66
-5.56
-3.53
-3.48
-4.83
-6.72
-8.23
-8.66
-7.76
-5.77
-3.18
-0.52
1.99
4.38
6.85
9.40
11.82
13.78
15.11
16.03
17.10
18.96
21.89
25.66
29.59
32.90
35.05
35.98
36.02
35.68
35.46
35.68
36.51
37.98
39.99
42.26
44.33
45.62
45.62
44.17
41.55
38.42
35.63
33.92
33.80
35.45
38.81
43.56
49.24
55.18
60.58
64.57
66.41
65.77
62.87
58.58
54.22
51.13
50.17
51.40
54.19
57.63
61.28
65.48
71.07
78.42
86.18
90.69
86.52
68.29
32.99
-18.05
-78.95
-140.94
-194.98
-234.37
-256.22
-261.50
-254.44
-241.66
-231.22
-231.02
-246.58
-278.56
-321.53
-365.18
-397.84
-411.02
-402.48
-376.42
-340.60
-302.37
-265.86
-231.60
-198.39
-165.45
-133.42
-103.78
-77.31
-53.00
-28.12
0.52
35.17
76.40
123.06
172.68
222.07
267.72
306.18
334.59
351.35
356.46
351.45
338.59
319.93
296.67
269.22
237.90
203.76
168.94
136.28
108.53
87.60
74.11
67.53
66.52
69.34
74.11
79.16
83.13
85.03
84.31
80.86
74.96
67.38
59.31
52.19
47.33
45.48
46.48
49.35
52.75
55.58
57.53
59.09
61.34
65.33
71.45
78.99
86.19
90.65
90.13
83.44
71.07
55.15
38.64
24.07
12.49
3.03
-6.63
-19.15
-36.52
-59.25
-86.31
-115.39
-143.39
-166.94
-182.95
-189.33
-185.51
-172.79
-154.20
-133.69
-115.08
-101.03
-92.55
-89.08
-89.02
-90.34
-91.16
-90.08
-86.29
-79.52
-70.01
-58.49
-46.08
-34.17
-24.11
-16.86
-12.47
-9.94
-7.49
-3.19
4.20
14.78
27.39
40.23
51.58
60.54
67.13
71.92
75.46
77.77
78.28
76.22
71.12
63.21
53.46
43.23
33.80
25.91
19.64
14.40
9.35
3.89
-2.00
-7.62
-11.84
-13.67
-12.65
-9.20
-4.21
1.32
6.77
12.09
17.52
23.23
29.06
34.60
39.41
43.36
46.65
49.65
52.74
56.08
59.71
63.70
68.13
73.09
78.61
84.61
90.88
97.00
102.08
104.75
103.16
95.47
80.37
57.45
27.05
-10.26
-53.95
-103.31
-156.37
-209.08
-255.15
-287.33
-299.82
-290.48
-261.93
-220.69
-174.81
-131.38
-94.73
-66.25
-45.22
-30.16
-19.59
-12.30
-7.06
-2.45
2.92
9.92
18.45
27.34
34.73
38.93
39.28
36.54
32.64
29.81
29.53
31.77
35.04
36.99
35.49
29.60
19.83
8.01
-3.43
-12.30
-17.15
-17.52
-13.79
-6.88
2.07
12.00
22.13
32.08
41.78
51.29
60.48
68.80
75.30
78.94
78.99
75.41
68.97
60.99
53.00
46.25
41.58
39.35
39.65
42.35
47.12
53.39
60.27
66.77
72.01
75.54
77.49
78.53
79.51
81.19
83.87
87.27
90.55
92.60
92.45
89.61
84.30
77.44
70.23
63.72
58.41
54.12
50.19
45.96
41.03
35.55
30.02
24.92
20.47
16.55
12.82
9.08
5.46
2.32
-0.10
-2.12
-4.82
-9.82
-18.56
-31.73
-48.81
-68.27
-87.99
-105.90
-120.45
-130.86
-137.33
-141.27
-145.32
-153.24
-169.06
-195.66
-233.11
-277.63
-321.86
-356.74
-374.50
-371.64
-350.40
-317.91
-283.23
-253.72
-232.25
-216.89
-202.67
-184.45
-159.15
-126.50
-88.21
-46.67
-4.14
37.21
74.91
106.11
128.20
139.90
142.07
137.64
130.54
124.15
120.17
118.22
116.42
112.37
104.31
91.63
75.00
55.90
36.07
17.02
-0.28
-15.28
-27.83
-37.95
-45.40
-49.41
-48.45
-40.54
-24.13
0.83
32.03
64.94
94.01
114.46
123.88
122.77
113.88
100.71
86.04
71.37
57.12
43.46
30.86
20.20
12.34
7.60
5.52
4.94
4.51
3.16
0.56
-2.85
-6.12
-8.18
-8.30
-6.42
-3.06
0.95
4.88
8.39
11.68
15.18
19.23
23.84
28.60
32.91
36.19
38.10
38.49
37.44
35.15
31.95
28.22
24.36
20.64
17.00
13.20
8.85
3.76
-1.92
-7.58
-12.37
-15.55
-16.70
-16.01
-13.99
-11.33
-8.50
-5.66
-2.80
0.11
2.84
5.02
6.28
6.57
6.30
6.17
6.87
8.62
11.11
13.53
15.03
15.08
13.76
11.64
9.54
8.16
7.81
8.34
9.30
10.13
10.37
9.78
8.43
6.61
4.67
2.83
1.08
-0.82
-3.13
-5.98
-9.39
-13.51
-18.85
-26.16
-35.99
-48.15
-61.44
-74.00
-84.00
-90.39
-93.13
-92.85
-90.25
-85.76
-79.54
-71.90
-63.81
-57.13
-54.36
-57.76
-68.39
-85.20
-104.93
-122.97
-134.72
-137.21
-130.00
-114.91
-94.79
-72.10
-48.07
-22.93
3.06
28.71
51.76
69.74
81.13
86.14
86.60
84.97
83.31
82.50
82.14
81.19
78.80
74.89
70.18
65.79
62.46
60.21
58.27
55.46
50.75
43.68
34.40
23.46
11.64
-0.04
-10.30
-17.58
-20.49
-18.40
-11.90
-2.78
6.56
14.06
18.74
20.86
21.56
21.96
22.61
23.24
23.16
21.79
19.05
15.33
11.20
6.98
2.65
-2.06
-7.39
-13.19
-18.78
-23.03
-24.74
-22.93
-17.16
-7.71
4.24
16.59
26.52
31.21
28.87
19.81
6.65
-6.31
-14.56
-15.04
-7.11
7.57
26.09
45.59
64.12
80.70
94.93
106.46
114.81
119.61
120.82
118.90
114.61
108.74
101.85
94.13
85.43
75.45
63.96
51.05
37.13
22.99
9.48
-2.68
-13.10
-21.56
-27.69
-30.78
-29.90
-24.48
-14.88
-2.69
9.73
20.05
26.89
30.26
31.23
31.09
30.63
29.91
28.57
26.43
23.89
21.83
21.18
22.29
24.76
27.58
29.64
30.16
29.00
26.67
23.92
21.46
19.63
18.29
17.07
15.58
13.75
11.88
10.50
10.02
10.46
11.38
12.07
11.95
10.81
8.92
6.81
4.97
3.58
2.54
1.61
0.62
-0.43
-1.37
-2.10
-2.63
-3.21
-4.09
-5.40
-6.99
-8.54
-9.69
-10.27
-10.33
-10.10
-9.76
-9.39
-8.95
-8.53
-8.47
-9.32
-11.69
-15.95
-21.93
-28.96
-36.11
-42.49
-47.39
-50.40
-51.31
-50.00
-46.48
-40.87
-33.47
-24.77
-15.44
-6.16
2.37
9.60
15.11
18.61
20.01
19.47
17.48
14.92
13.01
13.02
15.85
21.65
29.57
38.02
45.10
49.27
49.84
47.04
41.79
35.18
28.10
21.05
14.35
8.31
3.41
0.12
-1.35
-1.41
-1.06
-1.55
-3.74
-7.70
-12.60
-17.24
-20.59
-22.37
-23.09
-23.62
-24.65
-26.40
-28.60
-30.86
-32.89
-34.61
-36.02
-37.04
-37.55
-37.46
-36.90
-36.17
-35.64
-35.44
-35.38
-34.97
-33.69
-31.16
-27.37
-22.63
-17.45
-12.36
-7.77
-3.92
-0.84
1.58
3.54
5.19
6.69
8.12
9.52
10.88
12.15
13.24
14.07
14.58
14.78
14.73
14.53
14.24
13.86
13.31
12.57
11.62
10.48
9.23
7.91
6.48
4.83
2.87
0.52
-2.10
-4.78
-7.20
-9.13
-10.51
-11.49
-12.40
-13.58
-15.26
-17.47
-20.13
-23.05
-26.10
-29.19
-32.28
-35.30
-38.07
-40.29
-41.55
-41.54
-40.15
-37.56
-34.18
-30.49
-26.84
-23.36
-20.01
-16.73
-13.57
-10.63
-8.04
-5.82
-3.83
-1.88
0.12
2.08
3.73
4.77
5.06
4.76
4.25
4.07
4.60
5.96
7.93
10.04
11.76
12.69
12.72
11.99
10.81
9.52
8.40
7.57
6.99
6.51
5.90
4.96
3.56
1.78
-0.18
-2.04
-3.56
-4.73
-5.71
-6.76
-8.11
-9.86
-11.93
-14.14
-16.33
-18.48
-20.75
-23.35
-26.41
-29.87
-33.40
-36.50
-38.72
-39.77
-39.64
-38.65
-37.22
-35.81
-34.69
-33.89
-33.21
-32.43
-31.43
-30.39
-29.79
-30.27
-32.32
-35.99
-40.87
-46.09
-50.78
-54.24
-56.22
-56.95
-57.15
-57.96
-60.82
-66.97
-76.93
-89.97
-104.12
-116.77
-125.61
-129.49
-128.66
-124.32
-117.66
-109.05
-97.83
-82.80
-63.07
-38.67
-10.78
18.75
48.11
76.00
101.90
125.82
147.89
167.90
185.05
198.10
205.71
207.07
202.21
192.11
178.27
162.27
145.27
127.99
110.81
94.17
78.66
65.03
53.85
45.38
39.40
35.38
32.60
30.33
27.95
25.06
21.56
17.68
13.90
10.71
8.33
6.59
5.09
3.46
1.70
0.18
-0.56
-0.24
0.90
2.07
2.37
1.24
-1.18
-4.11
-6.55
-7.77
-7.77
-7.18
-6.86
-7.42
-8.87
-10.62
-11.89
-12.15
-11.36
-10.00
-8.74
-8.10
-8.35
-9.53
-11.55
-14.20
-17.09
-19.47
-20.22
-18.26
-13.16
-5.85
1.27
4.91
2.22
-7.83
-23.63
-41.36
-56.37
-65.04
-66.07
-60.56
-51.09
-40.24
-29.57
-19.43
-9.60
-0.05
8.60
15.26
19.04
19.76
18.16
15.50
13.02
11.40
10.65
10.29
9.74
8.69
7.12
5.33
3.69
2.43
1.59
0.98
0.29
-0.74
-2.19
-3.94
-5.72
-7.20
-8.13
-8.49
-8.42
-8.21
-8.17
-8.49
-9.22
-10.25
-11.35
-12.37
-13.33
-14.45
-16.07
-18.42
-21.42
-24.68
-27.53
-29.33
-29.73
-28.70
-26.59
-23.84
-20.88
-17.99
-15.29
-12.88
-10.77
-9.04
-7.66
-6.61
-5.78
-5.09
-4.54
-4.19
-4.16
-4.49
-5.13
-5.85
-6.41
-6.61
-6.42
-5.98
-5.53
-5.27
-5.32
-5.63
-6.10
-6.65
-7.23
-7.89
-8.68
-9.59
-10.55
-11.39
-11.96
-12.16
-12.04
-11.72
-11.35
-10.97
-10.49
-9.78
-8.74
-7.39
-5.95
-4.64
-3.56
-2.66
-1.73
-0.57
0.87
2.40
3.65
4.18
3.65
1.97
-0.69
-3.92
-7.25
-10.20
-12.41
-13.56
-13.43
-11.88
-8.88
-4.63
0.46
5.76
10.65
14.63
17.58
19.68
21.35
22.96
24.70
26.50
28.09
29.22
29.73
29.61
29.00
28.10
27.08
26.08
25.16
24.39
23.82
23.49
23.31
23.21
23.01
22.66
22.19
21.80
21.70
22.04
22.74
23.53
24.03
23.85
22.85
21.13
19.07
17.20
15.99
15.70
16.22
17.11
17.64
17.12
15.12
11.57
6.90
1.76
-3.18
-7.43
-10.84
-13.51
-15.70
-17.70
-19.71
-21.75
-23.70
-25.29
-26.22
-26.22
-25.19
-23.24
-20.62
-17.63
-14.52
-11.42
-8.42
-5.50
-2.67
0.03
2.52
4.72
6.60
8.22
9.68
11.11
12.57
13.93
14.99
15.45
15.08
13.85
11.91
9.61
7.32
5.33
3.83
2.78
2.09
1.59
1.22
1.05
1.30
2.17
3.71
5.72
7.71
9.19
9.75
9.31
8.05
6.30
4.39
2.51
0.73
-1.00
-2.68
-4.34
-5.87
-7.17
-8.16
-8.75
-8.97
-8.92
-8.74
-8.51
-8.26
-7.92
-7.41
-6.77
-6.08
-5.56
-5.31
-5.37
-5.62
-5.93
-6.16
-6.20
-6.07
-5.84
-5.72
-5.93
-6.67
-8.01
-9.78
-11.66
-13.28
-14.44
-15.19
-15.84
-16.73
-18.09
-19.90
-21.93
-23.91
-25.66
-27.16
-28.52
-29.86
-31.30
-32.98
-35.00
-37.34
-39.77
-41.73
-42.40
-40.91
-36.69
-29.65
-20.28
-9.54
1.48
11.83
20.79
27.92
32.97
35.82
36.56
35.56
33.40
30.79
28.34
26.33
24.68
23.03
20.97
18.23
14.90
11.38
8.25
6.11
5.40
6.33
8.78
12.35
16.38
20.11
22.91
24.25
23.96
22.09
18.96
15.08
11.08
7.67
5.47
4.85
5.73
7.61
9.62
10.90
10.85
9.40
6.94
4.11
1.52
-0.62
-2.43
-4.31
-6.62
-9.47
-12.58
-15.49
-17.80
-19.37
-20.41
-21.30
-22.40
-23.86
-25.60
-27.48
-29.37
-31.27
-33.16
-34.89
-36.04
-36.08
-34.59
-31.50
-27.16
-22.20
-17.32
-12.92
-9.10
-5.71
-2.55
0.42
3.09
5.25
6.78
7.67
8.08
8.18
8.10
7.89
7.59
7.33
7.27
7.65
8.54
9.84
11.26
12.42
13.08
13.19
12.94
12.59
12.28
11.93
11.33
10.27
8.74
6.96
5.21
3.75
2.57
1.49
0.22
-1.46
-3.55
-5.87
-8.08
-9.92
-11.28
-12.28
-13.19
-14.34
-15.93
-17.97
-20.24
-22.40
-24.05
-24.91
-24.73
-23.31
-20.48
-16.18
-10.66
-4.51
1.36
6.09
9.22
10.89
11.80
12.88
14.81
17.80
21.57
25.67
29.85
34.14
38.68
43.32
47.39
49.75
49.29
45.54
38.95
30.81
22.71
15.86
10.73
7.09
4.39
2.15
0.22
-1.30
-2.34
-3.00
-3.63
-4.67
-6.38
-8.73
-11.43
-14.06
-16.29
-17.96
-19.16
-20.09
-20.95
-21.81
-22.59
-23.17
-23.53
-23.89
-24.65
-26.16
-28.49
-31.30
-33.94
-35.68
-36.01
-34.84
-32.39
-29.08
-25.27
-21.14
-16.85
-12.53
-8.46
-4.91
-2.03
0.21
2.00
3.59
5.10
6.48
7.57
8.20
8.32
8.04
7.63
7.44
7.70
8.52
9.82
11.37
12.90
14.16
15.06
15.60
15.85
15.87
15.66
15.20
14.46
13.57
12.73
12.13
11.81
11.62
11.26
10.48
9.21
7.63
6.03
4.66
3.59
2.69
1.71
0.40
-1.34
-3.49
-6.01
-8.85
-11.94
-15.06
-17.78
-19.44
-19.40
-17.29
-13.15
-7.54
-1.35
4.50
9.33
12.86
15.21
16.80
18.16
19.67
21.49
23.46
25.29
26.61
27.26
27.24
26.81
26.29
25.94
25.88
26.04
26.27
26.39
26.32
26.04
25.60
25.06
24.53
24.11
23.90
23.93
24.08
24.15
23.89
23.15
21.95
20.48
18.98
17.55
16.17
14.69
12.99
11.03
8.95
6.89
4.87
2.71
0.04
-3.54
-8.34
-14.50
-21.85
-30.08
-38.74
-47.41
-55.75
-63.64
-71.05
-78.04
-84.68
-91.02
-97.14
-103.06
-108.56
-113.12
-115.87
-115.84
-112.43
-105.64
-96.24
-85.49
-74.66
-64.62
-55.72
-47.91
-41.02
-35.05
-30.14
-26.35
-23.48
-20.94
-17.92
-13.68
-7.88
-0.71
7.17
14.90
21.84
27.70
32.66
37.06
41.21
45.17
48.71
51.44
53.01
53.30
52.40
50.59
48.15
45.27
42.00
38.31
34.23
29.96
25.93
22.67
20.60
19.80
19.91
20.24
20.14
19.24
17.57
15.40
12.97
10.35
7.43
4.14
0.58
-3.03
-6.50
-9.88
-13.40
-17.33
-21.64
-25.94
-29.52
-31.74
-32.24
-31.03
-28.36
-24.48
-19.60
-13.84
-7.45
-0.81
5.57
11.20
15.73
18.97
20.94
21.80
21.81
21.31
20.64
20.10
19.90
20.17
20.91
22.07
23.55
25.20
26.83
28.25
29.32
29.92
30.02
29.62
28.77
27.61
26.33
25.15
24.20
23.45
22.69
21.66
20.15
18.15
15.83
13.44
11.23
9.31
7.68
6.27
5.02
3.86
2.71
1.39
-0.30
-2.47
-5.08
-7.84
-10.38
-12.31
-13.46
-13.90
-13.95
-13.99
-14.43
-15.57
-17.56
-20.39
-23.83
-27.43
-30.46
-32.15
-31.83
-29.25
-24.74
-19.07
-13.15
-7.60
-2.57
2.28
7.48
13.23
19.24
24.80
29.12
31.72
32.65
32.44
31.72
30.99
30.42
29.96
29.46
28.90
28.31
27.76
27.26
26.73
26.05
25.12
23.89
22.45
20.86
19.23
17.65
16.12
14.59
12.93
11.02
8.81
6.37
3.86
1.44
-0.80
-2.90
-4.97
-7.10
-9.33
-11.63
-13.99
-16.39
-18.83
-21.27
-23.60
-25.69
-27.46
-28.99
-30.45
-32.13
-34.29
-37.03
-40.33
-43.89
-47.27
-49.88
-51.12
-50.45
-47.58
-42.46
-35.35
-26.74
-17.29
-7.70
1.41
9.53
16.36
21.77
25.77
28.48
30.06
30.82
31.15
31.54
32.40
33.98
36.22
38.85
41.44
43.60
45.16
46.20
46.92
47.54
48.13
48.50
48.35
47.44
45.68
43.26
40.50
37.69
34.97
32.26
29.40
26.26
22.89
19.40
15.98
12.69
9.51
6.35
3.17
-0.03
-3.18
-6.22
-9.19
-12.22
-15.45
-18.94
-22.62
-26.31
-29.78
-32.93
-35.83
-38.74
-41.93
-45.48
-49.15
-52.39
-54.53
-55.02
-53.58
-50.22
-45.17
-38.79
-31.54
-23.98
-16.68
-10.18
-4.80
-0.60
2.59
4.98
6.73
7.89
8.55
8.93
9.47
10.64
12.75
15.77
19.34
22.93
26.07
28.50
30.09
30.76
30.39
28.89
26.37
23.30
20.41
18.50
18.04
19.04
20.99
23.12
24.70
25.33
24.99
23.93
22.42
20.66
18.68
16.44
13.89
11.14
8.35
5.76
3.48
1.56
-0.19
-2.08
-4.50
-7.79
-12.09
-17.25
-22.84
-28.23
-32.69
-35.59
-36.49
-35.24
-31.94
-26.96
-20.87
-14.33
-7.98
-2.27
2.56
6.50
9.67
12.25
14.36
16.09
17.41
18.22
18.34
17.69
16.32
14.57
13.00
12.18
12.48
13.89
16.01
18.28
20.17
21.40
21.91
21.78
21.09
19.91
18.27
16.26
14.04
11.81
9.76
7.97
6.44
5.05
3.60
1.87
-0.34
-3.03
-6.07
-9.15
-11.94
-14.25
-16.08
-17.66
-19.33
-21.43
-24.10
-27.33
-30.92
-34.63
-38.17
-41.17
-43.27
-44.07
-43.27
-40.73
-36.60
-31.29
-25.37
-19.45
-14.00
-9.29
-5.34
-2.03
0.82
3.41
5.95
8.63
11.59
14.91
18.44
21.95
25.13
27.83
30.15
32.38
34.85
37.64
40.49
42.86
44.13
43.83
41.82
38.30
33.78
28.98
24.79
22.01
21.16
22.27
24.82
27.83
30.18
31.06
30.16
27.75
24.43
20.83
17.32
13.95
10.48
6.65
2.32
-2.38
-7.06
-11.34
-14.95
-18.01
-20.93
-24.23
-28.25
-33.00
-38.09
-42.85
-46.54
-48.55
-48.56
-46.54
-42.67
-37.33
-31.01
-24.28
-17.72
-11.86
-7.09
-3.58
-1.23
0.23
1.16
1.89
2.64
3.42
4.16
4.72
5.01
5.06
4.95
4.76
4.46
3.96
3.24
2.42
1.84
1.90
2.79
4.35
6.03
7.15
7.25
6.40
5.25
4.68
5.48
7.88
11.48
15.41
18.59
20.02
18.91
14.86
7.98
-0.99
-10.67
-19.32
-25.32
-27.74
-26.72
-23.38
-19.29
-15.89
-13.84
-12.96
-12.44
-11.37
-9.20
-5.87
-1.72
2.80
7.36
11.82
16.14
20.15
23.52
25.78
26.56
25.83
23.95
21.59
19.48
18.05
17.35
17.04
16.67
15.93
14.81
13.55
12.51
11.91
11.77
11.89
11.96
11.70
10.91
9.55
7.72
5.57
3.27
0.99
-1.17
-3.09
-4.72
-6.07
-7.20
-8.31
-9.57
-11.16
-13.08
-15.14
-17.08
-18.70
-20.06
-21.49
-23.43
-26.18
-29.69
-33.57
-37.22
-40.11
-41.93
-42.57
-42.03
-40.32
-37.42
-33.38
-28.50
-23.21
-18.02
-13.29
-9.19
-5.63
-2.51
0.26
2.63
4.52
5.87
6.79
7.42
7.95
8.50
9.14
9.87
10.74
11.77
12.97
14.19
15.21
15.77
15.71
15.02
13.81
12.26
10.49
8.56
6.41
3.95
1.11
-2.14
-5.72
-9.45
-13.08
-16.34
-19.05
-21.15
-22.81
-24.31
-25.90
-27.63
-29.27
-30.43
-30.80
-30.42
-29.71
-29.34
-29.87
-31.44
-33.73
-36.00
-37.51
-37.69
-36.26
-33.08
-28.07
-21.16
-12.49
-2.50
8.02
18.10
26.93
34.03
39.28
42.79
44.71
45.17
44.30
42.39
39.86
37.21
34.80
32.86
31.42
30.43
29.82
29.45
29.16
28.69
27.79
26.29
24.17
21.50
18.44
15.18
11.86
8.63
5.66
3.06
0.92
-0.80
-2.23
-3.56
-4.94
-6.42
-7.95
-9.45
-10.83
-12.10
-13.37
-14.79
-16.47
-18.44
-20.60
-22.84
-25.09
-27.40
-29.84
-32.51
-35.33
-38.00
-40.09
-41.05
-40.49
-38.20
-34.34
-29.28
-23.61
-17.88
-12.62
-8.21
-4.81
-2.48
-1.12
-0.54
-0.51
-0.79
-1.20
-1.65
-2.19
-2.88
-3.75
-4.68
-5.31
-5.22
-4.09
-1.91
0.92
3.80
6.21
7.94
9.18
10.42
12.09
14.43
17.40
20.80
24.31
27.55
30.02
31.15
30.48
27.85
23.55
18.32
13.06
8.50
4.94
2.28
0.11
-2.00
-4.32
-6.82
-9.20
-11.00
-11.80
-11.35
-9.75
-7.30
-4.42
-1.47
1.42
4.22
6.90
9.35
11.33
12.61
13.07
12.84
12.23
11.59
11.19
11.06
11.03
10.87
10.40
9.65
8.82
8.21
7.94
7.96
7.99
7.70
6.94
5.80
4.59
3.64
3.11
2.90
2.79
2.51
1.97
1.15
0.06
-1.36
-3.19
-5.48
-8.04
-10.47
-12.25
-13.03
-12.80
-11.94
-11.03
-10.59
-10.79
-11.42
-12.09
-12.34
-11.91
-10.74
-8.90
-6.56
-3.91
-1.17
1.41
3.66
5.58
7.40
9.53
12.30
15.79
19.62
23.14
25.66
26.72
26.37
25.04
23.37
21.86
20.73
19.83
18.78
17.25
15.05
12.28
9.23
6.20
3.38
0.69
-2.12
-5.36
-9.19
-13.47
-17.83
-21.84
-25.23
-28.04
-30.56
-33.10
-35.77
-38.51
-41.11
-43.45
-45.63
-47.80
-50.00
-51.90
-52.81
-51.91
-48.63
-42.95
-35.47
-27.20
-19.14
-12.07
-6.23
-1.60
2.05
4.84
6.77
7.82
8.11
7.95
7.81
8.13
9.07
10.43
11.73
12.45
12.30
11.39
10.17
9.20
8.91
9.42
10.49
11.71
12.61
12.89
12.52
11.71
10.82
10.18
9.96
10.10
10.34
10.34
9.84
8.78
7.25
5.45
3.53
1.58
-0.40
-2.44
-4.58
-6.89
-9.55
-12.73
-16.56
-21.00
-25.78
-30.43
-34.38
-37.06
-38.03
-37.06
-34.16
-29.59
-23.87
-17.66
-11.65
-6.34
-2.02
1.35
3.97
6.10
7.91
9.44
10.68
11.63
12.47
13.54
15.19
17.67
20.89
24.46
27.85
30.65
32.80
34.56
36.33
38.33
40.41
42.17
43.08
42.87
41.57
39.50
36.98
34.22
31.23
27.93
24.39
20.89
17.83
15.49
13.87
12.55
11.02
8.91
6.20
3.16
0.19
-2.48
-4.91
-7.34
-10.02
-13.04
-16.34
-19.82
-23.46
-27.33
-31.45
-35.68
-39.55
-42.40
-43.57
-42.67
-39.67
-34.98
-29.30
-23.42
-18.01
-13.47
-9.90
-7.18
-5.14
-3.64
-2.67
-2.24
-2.32
-2.69
-3.05
-3.09
-2.64
-1.75
-0.64
0.44
1.36
2.11
2.88
3.82
4.98
6.28
7.47
8.31
8.66
8.55
8.17
7.78
7.55
7.49
7.50
7.43
7.25
7.05
7.01
7.26
7.77
8.30
8.57
8.42
7.83
7.01
6.15
5.36
4.54
3.46
1.91
-0.10
-2.36
-4.53
-6.31
-7.63
-8.64
-9.69
-11.07
-13.00
-15.53
-18.56
-21.93
-25.47
-28.92
-31.92
-34.04
-34.84
-33.99
-31.30
-26.84
-20.89
-13.98
-6.77
-0.00
5.75
10.18
13.32
15.48
17.07
18.52
20.17
22.25
24.90
28.11
31.64
35.04
37.80
39.60
40.51
40.93
41.41
42.27
43.43
44.44
44.82
44.30
43.02
41.39
39.85
38.70
38.06
37.86
38.00
38.30
38.49
38.14
36.82
34.22
30.45
25.95
21.35
17.15
13.57
10.48
7.62
4.85
2.19
-0.18
-2.10
-3.69
-5.27
-7.28
-10.03
-13.52
-17.46
-21.38
-24.88
-27.77
-30.16
-32.40
-34.89
-37.91
-41.44
-45.08
-48.14
-49.83
-49.54
-47.08
-42.76
-37.25
-31.35
-25.65
-20.43
-15.68
-11.32
-7.34
-3.93
-1.35
0.21
0.81
0.73
0.39
0.17
0.30
0.79
1.53
2.35
3.20
4.07
5.01
6.02
7.02
7.81
8.21
8.07
7.37
6.21
4.67
2.83
0.72
-1.62
-4.09
-6.55
-8.83
-10.84
-12.58
-14.09
-15.44
-16.57
-17.37
-17.67
-17.38
-16.49
-15.22
-13.91
-12.98
-12.81
-13.53
-15.12
-17.22
-19.40
-21.23
-22.54
-23.43
-24.21
-25.18
-26.33
-27.28
-27.28
-25.42
-21.02
-13.87
-4.42
6.23
16.58
25.06
30.41
32.12
30.51
26.57
21.65
16.92
13.05
10.22
8.34
7.36
7.37
8.48
10.50
12.89
14.84
15.69
15.29
14.12
12.93
12.37
12.58
13.12
13.35
12.77
11.40
9.68
8.25
7.59
7.76
8.48
9.27
9.65
9.39
8.48
7.06
5.25
3.17
0.85
-1.65
-4.19
-6.52
-8.43
-9.90
-11.06
-12.24
-13.73
-15.65
-17.90
-20.17
-22.18
-23.83
-25.28
-26.89
-29.08
-32.07
-35.80
-39.86
-43.65
-46.54
-48.05
-47.88
-45.94
-42.28
-37.10
-30.64
-23.28
-15.44
-7.66
-0.42
5.93
11.27
15.76
19.63
23.16
26.39
29.21
31.41
32.89
33.80
34.41
35.04
35.76
36.43
36.69
36.26
35.06
33.29
31.33
29.55
28.17
27.23
26.62
26.15
25.65
25.00
24.12
23.03
21.83
20.62
19.48
18.43
17.44
16.54
15.90
15.73
16.26
17.41
18.75
19.40
18.31
14.54
7.68
-1.94
-13.32
-25.06
-35.75
-44.32
-50.18
-53.25
-53.78
-52.24
-49.13
-44.99
-40.28
-35.44
-30.84
-26.74
-23.29
-20.44
-18.01
-15.68
-13.19
-10.42
-7.49
-4.69
-2.37
-0.72
0.30
0.98
1.67
2.61
3.82
5.14
6.34
7.28
8.01
8.69
9.50
10.49
11.57
12.50
13.06
13.11
12.61
11.62
10.22
8.44
6.35
4.10
1.90
0.08
-1.14
-1.68
-1.74
-1.76
-2.22
-3.42
-5.38
-7.81
-10.24
-12.28
-13.81
-15.07
-16.48
-18.42
-20.96
-23.87
-26.69
-29.00
-30.58
-31.45
-31.64
-31.10
-29.56
-26.70
-22.38
-16.85
-10.70
-4.70
0.54
4.80
8.27
11.33
14.30
17.25
19.96
22.14
23.69
24.81
26.01
27.76
30.22
33.05
35.51
36.85
36.66
35.20
33.27
31.88
31.77
33.05
35.31
37.69
39.33
39.55
37.95
34.30
28.51
20.64
11.05
0.46
-10.13
-19.66
-27.31
-32.80
-36.35
-38.51
-39.82
-40.52
-40.55
-39.65
-37.75
-35.07
-32.15
-29.63
-27.98
-27.40
-27.80
-28.93
-30.46
-31.92
-32.63
-31.76
-28.54
-22.60
-14.28
-4.58
5.09
13.49
19.85
24.12
26.73
28.35
29.52
30.50
31.34
31.97
32.33
32.40
32.18
31.69
30.92
29.87
28.56
27.08
25.61
24.38
23.55
23.15
23.01
22.74
21.90
20.09
17.17
13.32
9.00
4.81
1.28
-1.32
-3.07
-4.31
-5.47
-6.91
-8.77
-10.92
-13.08
-14.95
-16.31
-17.18
-17.80
-18.50
-19.57
-21.14
-23.14
-25.38
-27.68
-29.94
-32.21
-34.55
-36.97
-39.38
-41.52
-43.07
-43.76
-43.41
-41.93
-39.32
-35.66
-31.09
-25.87
-20.35
-14.98
-10.19
-6.26
-3.32
-1.30
-0.01
0.81
1.40
2.01
2.84
3.99
5.46
7.07
8.64
10.06
11.53
13.51
16.54
20.98
26.69
33.02
38.91
43.27
45.31
44.74
41.83
37.23
31.76
26.22
21.21
17.18
14.36
12.82
12.42
12.81
13.42
13.59
12.79
10.72
7.36
2.97
-2.11
-7.58
-13.21
-18.84
-24.35
-29.59
-34.38
-38.46
-41.55
-43.30
-43.40
-41.74
-38.53
-34.27
-29.57
-25.00
-20.88
-17.29
-14.18
-11.58
-9.59
-8.35
-7.83
-7.78
-7.86
-7.71
-7.23
-6.53
-5.82
-5.11
-4.21
-2.72
-0.32
3.02
6.99
11.09
14.89
18.28
21.39
24.53
27.90
31.50
35.19
38.70
41.79
44.20
45.73
46.22
45.56
43.73
40.76
36.77
31.81
25.99
19.44
12.47
5.49
-1.05
-6.81
-11.71
-15.83
-19.30
-22.08
-23.87
-24.34
-23.26
-20.82
-17.52
-14.04
-10.90
-8.17
-5.51
-2.39
1.54
6.26
11.33
16.15
20.24
23.44
25.84
27.65
29.06
30.11
30.80
31.11
31.18
31.24
31.64
32.65
34.38
36.70
39.25
41.56
43.23
44.13
44.41
44.44
44.54
44.72
44.57
43.30
40.08
34.33
26.04
15.73
4.42
-6.70
-16.42
-23.76
-28.04
-29.01
-26.86
-22.31
-16.64
-11.49
-8.61
-9.36
-14.16
-22.21
-31.48
-39.42
-43.78
-43.55
-39.29
-32.86
-26.54
-22.12
-20.31
-20.74
-22.43
-24.30
-25.50
-25.39
-23.48
-19.36
-12.89
-4.43
5.10
14.39
22.11
27.32
29.59
29.06
26.14
21.37
15.29
8.45
1.39
-5.40
-11.63
-17.32
-22.81
-28.70
-35.57
-43.79
-53.16
-62.72
-70.72
-74.99
-73.67
-66.02
-52.96
-37.02
-21.56
-9.63
-2.93
-1.41
-3.61
-7.39
-10.91
-13.04
-13.41
-12.15
-9.47
-5.51
-0.34
5.99
13.37
21.63
30.55
39.81
49.05
57.79
65.47
71.60
75.77
77.75
77.52
75.24
71.29
66.19
60.58
55.04
49.99
45.61
41.82
38.38
34.95
31.24
27.04
22.26
17.04
11.80
7.14
3.68
1.83
1.54
2.39
3.67
4.71
5.08
4.64
3.47
1.60
-1.04
-4.69
-9.58
-15.91
-23.77
-33.03
-43.30
-53.83
-63.50
-71.09
-75.59
-76.57
-74.31
-69.73
-63.99
-58.16
-52.90
-48.35
-44.30
-40.36
-36.23
-31.86
-27.48
-23.40
-19.96
-17.20
-14.88
-12.54
-9.79
-6.55
-3.07
0.10
2.53
4.07
4.86
5.25
5.50
5.74
5.92
6.03
6.13
6.46
7.21
8.49
10.23
12.20
14.05
15.37
15.77
14.98
12.90
9.78
6.18
2.84
0.43
-0.70
-0.56
0.60
2.52
5.01
7.95
11.07
13.94
16.00
16.85
16.50
15.46
14.54
14.57
16.07
19.13
23.56
28.96
34.99
41.34
47.69
53.80
59.45
64.44
68.47
70.98
71.15
68.12
61.37
51.26
39.09
26.98
17.09
10.91
8.65
9.33
11.27
12.83
13.04
11.71
9.12
5.57
1.09
-4.57
-11.69
-20.27
-29.88
-39.72
-48.90
-56.64
-62.51
-66.41
-68.63
-69.72
-70.36
-71.24
-72.76
-74.94
-77.39
-79.55
-80.90
-81.23
-80.65
-79.55
-78.38
-77.55
-77.37
-77.98
-79.38
-81.27
-83.17
-84.33
-83.98
-81.58
-76.88
-70.11
-61.82
-52.75
-43.66
-35.13
-27.58
-21.12
-15.73
-11.21
-7.42
-4.26
-1.70
0.29
1.84
3.06
4.12
5.06
5.87
6.58
7.29
8.19
9.47
11.15
12.99
14.57
15.42
15.25
14.02
12.01
9.64
7.34
5.37
3.76
2.20
0.25
-2.60
-6.70
-12.13
-18.61
-25.68
-32.72
-39.06
-44.02
-46.92
-47.11
-44.20
-38.27
-29.95
-20.28
-10.47
-1.51
6.01
11.87
16.03
18.41
18.79
16.95
12.83
6.75
-0.62
-8.40
-15.85
-22.54
-28.34
-33.35
-37.65
-41.16
-43.72
-45.20
-45.69
-45.44
-44.84
-44.10
-43.16
-41.67
-39.25
-35.75
-31.51
-27.24
-23.69
-21.19
-19.40
-17.42
-14.21
-9.15
-2.31
5.73
14.32
23.08
32.05
41.42
51.14
60.76
69.55
76.99
83.03
88.13
92.83
97.37
101.40
104.30
105.54
105.20
103.93
102.66
102.14
102.54
103.48
104.38
104.68
104.11
102.62
100.24
96.88
92.48
87.10
81.07
74.93
69.24
64.28
60.01
56.13
52.35
48.63
45.16
42.32
40.34
39.23
38.77
38.66
38.63
38.59
38.50
38.32
37.92
37.11
35.70
33.59
30.78
27.35
23.39
18.95
14.05
8.72
3.07
-2.76
-8.58
-14.16
-19.34
-24.01
-28.21
-32.04
-35.67
-39.16
-42.40
-45.03
-46.52
-46.35
-44.18
-40.05
-34.31
-27.56
-20.45
-13.53
-7.16
-1.56
3.17
6.94
9.68
11.33
11.89
11.50
10.40
8.86
7.11
5.30
3.52
1.83
0.35
-0.73
-1.25
-1.23
-0.89
-0.65
-0.86
-1.73
-3.21
-5.08
-7.09
-9.14
-11.24
-13.49
-15.93
-18.50
-21.18
-23.97
-27.04
-30.60
-34.72
-39.11
-43.10
-45.80
-46.37
-44.43
-40.10
-34.01
-26.96
-19.67
-12.63
-6.08
-0.23
4.68
8.33
10.49
11.17
10.68
9.52
8.19
7.02
6.01
4.99
3.75
2.18
0.40
-1.29
-2.60
-3.33
-3.57
-3.68
-4.15
-5.36
-7.46
-10.27
-13.42
-16.57
-19.57
-22.53
-25.70
-29.32
-33.45
-37.99
-42.73
-47.33
-51.30
-53.95
-54.38
-51.73
-45.45
-35.61
-22.98
-8.83
5.54
19.10
31.29
41.86
50.70
57.62
62.50
65.35
66.54
66.73
66.61
66.57
66.50
65.89
64.10
60.80
56.06
50.36
44.27
38.13
32.01
25.76
19.24
12.53
5.91
-0.28
-5.82
-10.81
-15.64
-20.82
-26.81
-33.84
-41.84
-50.47
-59.16
-67.14
-73.55
-77.51
-78.30
-75.52
-69.28
-60.12
-49.04
-37.20
-25.73
-15.39
-6.51
1.05
7.70
13.85
19.66
24.93
29.22
32.12
33.51
33.73
33.40
33.20
33.53
34.41
35.56
36.63
37.36
37.74
37.92
38.04
38.09
37.90
37.16
35.62
33.25
30.28
27.10
24.17
21.78
20.02
18.72
17.59
16.26
14.26
11.09
6.27
-0.52
-9.24
-19.39
-30.04
-40.11
-48.61
-55.01
-59.28
-61.83
-63.30
-64.33
-65.45
-67.13
-69.74
-73.65
-79.10
-86.10
-94.30
-102.94
-110.93
-116.99
-119.91
-118.84
-113.41
-103.89
-91.07
-76.12
-60.25
-44.53
-29.69
-16.26
-4.63
4.78
11.56
15.40
16.36
15.02
12.41
9.91
8.72
9.56
12.41
16.52
20.86
24.57
27.45
29.93
32.81
36.67
41.40
46.12
49.47
50.30
48.26
43.93
38.59
33.60
29.79
27.15
24.91
22.06
17.80
11.96
5.11
-1.71
-7.33
-10.83
-11.81
-10.37
-7.01
-2.41
2.83
8.15
13.13
17.40
20.60
22.44
22.82
21.78
19.62
16.66
13.28
9.83
6.60
3.94
2.12
1.32
1.52
2.55
4.20
6.27
8.74
11.55
14.63
17.67
20.26
21.99
22.61
22.19
21.06
19.70
18.54
17.84
17.62
17.78
18.09
18.40
18.69
19.02
19.48
20.06
20.67
21.15
21.45
21.62
21.84
22.24
22.78
23.25
23.27
22.59
21.18
19.27
17.31
15.66
14.52
13.82
13.26
12.52
11.43
10.02
8.52
7.22
6.26
5.55
4.75
3.52
1.66
-0.67
-3.06
-4.99
-6.08
-6.21
-5.59
-4.49
-3.14
-1.65
-0.01
1.81
3.74
5.71
7.59
9.34
10.88
12.14
12.98
13.28
13.04
12.44
11.86
11.73
12.29
13.45
14.73
15.41
14.85
12.84
9.71
6.25
3.35
1.58
1.00
1.14
1.24
0.43
-2.00
-6.52
-13.24
-21.82
-31.39
-40.64
-48.14
-52.72
-53.89
-51.90
-47.72
-42.46
-37.07
-32.03
-27.39
-22.91
-18.40
-13.88
-9.67
-6.28
-4.13
-3.49
-4.55
-7.76
-14.06
-24.76
-40.98
-62.76
-88.45
-114.69
-137.29
-152.57
-158.53
-155.37
-145.04
-130.29
-113.58
-96.44
-79.43
-62.57
-45.92
-29.85
-15.10
-2.39
7.97
16.18
22.76
28.26
32.87
36.41
38.51
38.99
38.13
36.68
35.63
35.78
37.58
41.04
45.82
51.33
56.88
61.62
64.59
64.86
61.72
54.93
44.88
32.60
19.50
6.99
-3.85
-12.49
-18.98
-23.73
-27.29
-30.15
-32.60
-34.67
-36.09
-36.38
-34.93
-31.14
-24.80
-16.10
-5.74
5.18
15.41
23.73
29.26
31.63
31.05
28.28
24.44
20.73
18.25
17.88
20.18
25.36
33.22
43.01
53.47
63.04
70.29
74.39
75.35
73.96
71.29
68.22
65.04
61.49
57.08
51.46
44.80
37.71
31.00
25.27
20.71
17.03
13.70
10.31
6.77
3.30
0.23
-2.25
-4.26
-6.20
-8.51
-11.52
-15.28
-19.66
-24.53
-29.92
-35.98
-42.82
-50.31
-57.90
-64.72
-69.83
-72.54
-72.71
-70.76
-67.52
-64.03
-61.19
-59.60
-59.47
-60.65
-62.74
-65.16
-67.28
-68.52
-68.47
-66.90
-63.74
-59.05
-52.93
-45.42
-36.56
-26.48
-15.51
-4.25
6.52
15.99
23.50
28.72
31.68
32.70
32.48
32.00
32.48
35.22
41.28
51.10
64.37
79.94
96.13
111.16
123.50
132.25
137.22
138.77
137.68
134.74
130.60
125.58
119.81
113.37
106.50
99.59
93.06
87.11
81.55
75.90
69.61
62.29
53.92
44.77
35.33
26.06
17.28
9.03
1.19
-6.53
-14.50
-23.05
-32.46
-42.86
-54.10
-65.68
-76.81
-86.59
-94.45
-100.52
-105.78
-111.78
-119.97
-131.03
-144.40
-158.35
-170.40
-177.95
-179.01
-172.67
-159.33
-140.51
-118.48
-95.56
-73.56
-53.48
-35.58
-19.87
-6.37
4.69
13.21
19.50
24.46
29.23
34.56
40.36
45.79
49.69
51.40
51.12
49.83
48.80
48.87
50.14
52.00
53.59
54.21
53.60
51.90
49.36
46.17
42.34
37.82
32.69
27.25
21.91
17.04
12.76
8.87
4.88
0.25
-5.41
-12.09
-19.30
-26.15
-31.58
-34.70
-35.07
-32.81
-28.56
-23.16
-17.42
-11.88
-6.85
-2.45
1.20
3.94
5.65
6.26
5.93
4.88
3.44
1.85
0.37
-0.74
-1.15
-0.49
1.49
4.84
9.31
14.44
19.72
24.74
29.31
33.37
36.89
39.76
41.84
43.02
43.31
42.79
41.59
39.76
37.24
34.04
30.23
26.06
21.90
18.05
14.71
11.83
9.25
6.78
4.23
1.52
-1.47
-4.86
-8.90
-13.86
-19.85
-26.71
-33.90
-40.54
-45.67
-48.51
-48.65
-46.12
-41.32
-34.81
-27.18
-18.98
-10.74
-2.99
3.84
9.52
14.05
17.67
20.64
23.15
25.27
26.92
28.09
28.88
29.55
30.41
31.69
33.44
35.51
37.63
39.54
41.04
42.03
42.47
42.35
41.65
40.34
38.42
35.97
33.14
30.20
27.43
25.04
23.10
21.51
20.07
18.58
16.97
15.41
14.16
13.37
12.98
12.65
11.92
10.51
8.51
6.40
4.82
4.20
4.54
5.39
6.10
6.16
5.51
4.49
3.61
3.25
3.49
4.09
4.73
5.17
5.37
5.38
5.22
4.76
3.78
2.09
-0.27
-3.02
-5.70
-7.85
-9.21
-9.80
-9.91
-9.85
-9.86
-10.00
-10.13
-10.17
-10.12
-10.21
-10.81
-12.19
-14.41
-17.16
-19.93
-22.17
-23.48
-23.76
-23.10
-21.68
-19.64
-17.05
-13.96
-10.52
-6.93
-3.50
-0.43
2.18
4.48
6.74
9.19
11.98
14.96
17.89
20.57
22.96
25.30
27.82
30.59
33.29
35.28
35.84
34.53
31.47
27.23
22.63
18.30
14.53
11.13
7.79
4.18
0.20
-4.02
-8.34
-12.61
-16.91
-21.39
-26.21
-31.42
-36.91
-42.50
-47.96
-53.16
-57.90
-61.96
-65.02
-66.74
-67.02
-66.05
-64.36
-62.58
-61.09
-59.75
-57.88
-54.53
-48.93
-40.93
-31.02
-20.13
-9.26
0.86
9.91
17.87
24.81
30.68
35.30
38.48
40.17
40.51
39.76
38.22
36.09
33.47
30.38
26.92
23.32
19.87
16.92
14.66
13.13
12.18
11.61
11.16
10.65
9.97
9.14
8.30
7.69
7.60
8.21
9.50
11.20
12.88
14.11
14.55
14.10
12.81
10.82
8.28
5.35
2.24
-0.84
-3.68
-6.19
-8.39
-10.47
-12.64
-14.99
-17.50
-19.98
-22.16
-23.83
-24.84
-25.08
-24.55
-23.20
-20.96
-17.83
-13.92
-9.48
-4.92
-0.63
3.09
6.15
8.55
10.34
11.42
11.59
10.73
8.89
6.43
3.90
1.77
0.24
-0.85
-1.84
-2.92
-4.01
-4.77
-4.91
-4.41
-3.64
-3.17
-3.53
-4.85
-6.88
-9.08
-10.95
-12.25
-13.12
-13.90
-15.02
-16.77
-19.32
-22.69
-26.80
-31.58
-36.88
-42.47
-48.04
-53.17
-57.33
-60.04
-60.84
-59.36
-55.41
-49.07
-40.73
-31.14
-21.19
-11.67
-3.07
4.59
11.59
18.27
24.77
30.85
36.00
39.67
41.61
41.95
41.14
39.75
38.26
36.95
35.92
35.21
34.88
34.98
35.53
36.40
37.39
38.21
38.66
38.64
38.16
37.26
35.94
34.27
32.40
30.62
29.21
28.26
27.49
26.32
24.15
20.69
16.18
11.30
6.75
2.93
-0.36
-3.69
-7.73
-12.81
-18.85
-25.48
-32.28
-38.94
-45.28
-51.04
-55.74
-58.78
-59.58
-57.92
-54.04
-48.64
-42.58
-36.58
-31.10
-26.30
-22.24
-18.99
-16.79
-15.85
-16.25
-17.73
-19.73
-21.53
-22.50
-22.37
-21.27
-19.62
-17.84
-16.20
-14.67
-13.02
-11.07
-8.78
-6.33
-4.03
-2.14
-0.75
0.28
1.19
2.28
3.61
5.04
6.11
6.32
5.26
2.82
-0.78
-5.09
-9.60
-13.92
-17.83
-21.22
-23.99
-25.96
-27.01
-27.21
-27.05
-27.48
-29.62
-34.42
-42.12
-52.03
-62.57
-71.80
-77.99
-80.14
-78.15
-72.66
-64.67
-55.15
-44.87
-34.40
-24.21
-14.76
-6.44
0.50
6.08
10.48
14.03
17.03
19.70
22.14
24.34
26.33
28.18
30.01
31.97
34.15
36.49
38.79
40.77
42.20
42.93
42.90
42.14
40.63
38.39
35.42
31.77
27.55
22.88
17.86
12.57
7.03
1.30
-4.51
-10.26
-15.84
-21.26
-26.62
-32.09
-37.74
-43.47
-49.04
-54.16
-58.71
-62.83
-66.88
-71.20
-75.98
-81.10
-86.14
-90.51
-93.56
-94.70
-93.40
-89.31
-82.21
-72.14
-59.42
-44.64
-28.51
-11.87
4.52
19.89
33.64
45.31
54.76
62.14
67.92
72.77
77.43
82.61
88.80
96.23
104.69
113.49
121.58
127.73
130.96
130.79
127.37
121.39
113.80
105.48
97.07
88.97
81.35
74.21
67.47
61.04
54.84
48.88
43.35
38.48
34.47
31.37
29.01
27.10
25.35
23.60
21.86
20.24
18.80
17.53
16.31
15.02
13.68
12.35
11.18
10.21
9.36
8.41
7.05
5.06
2.37
-0.89
-4.41
-7.83
-10.85
-13.31
-15.25
-16.77
-18.00
-18.97
-19.59
-19.70
-19.22
-18.28
-17.18
-16.35
-16.02
-16.19
-16.53
-16.62
-16.12
-15.04
-13.67
-12.36
-11.35
-10.58
-9.79
-8.67
-7.13
-5.33
-3.63
-2.34
-1.61
-1.27
-0.97
-0.43
0.35
0.99
0.94
-0.29
-2.72
-6.02
-9.59
-13.06
-16.39
-19.87
-23.70
-27.64
-30.95
-32.68
-32.31
-30.14
-27.27
-25.14
-24.89
-26.85
-30.55
-35.09
-39.66
-43.78
-47.37
-50.55
-53.37
-55.71
-57.35
-58.14
-58.06
-57.29
-56.06
-54.56
-52.70
-50.19
-46.62
-41.65
-35.19
-27.44
-18.74
-9.54
-0.22
8.93
17.65
25.72
32.97
39.27
44.54
48.70
51.67
53.42
53.95
53.45
52.19
50.59
48.95
47.38
45.77
43.87
41.48
38.60
35.44
32.31
29.51
27.14
25.10
23.14
20.98
18.40
15.30
11.72
7.75
3.58
-0.59
-4.49
-7.79
-10.14
-11.25
-10.94
-9.27
-6.53
-3.23
0.03
2.72
4.51
5.30
5.26
4.69
4.01
3.60
3.67
4.17
4.83
5.24
5.03
4.00
2.19
-0.20
-2.92
-5.69
-8.20
-9.98
-10.38
-8.85
-5.19
0.13
6.07
11.42
15.25
17.41
18.43
19.23
20.48
22.30
24.22
25.48
25.46
23.95
21.21
17.74
13.96
10.02
5.87
1.38
-3.40
-8.16
-12.41
-15.67
-17.72
-18.64
-18.77
-18.60
-18.51
-18.71
-19.20
-19.88
-20.61
-21.28
-21.79
-22.05
-21.93
-21.39
-20.47
-19.26
-17.87
-16.39
-14.82
-13.12
-11.28
-9.41
-7.72
-6.51
-6.08
-6.59
-8.02
-10.17
-12.73
-15.37
-17.86
-20.13
-22.21
-24.21
-26.18
-28.07
-29.64
-30.58
-30.58
-29.40
-26.97
-23.35
-18.72
-13.31
-7.37
-1.16
5.13
11.29
17.09
22.31
26.75
30.38
33.29
35.67
37.74
39.59
41.20
42.48
43.34
43.77
43.79
43.44
42.69
41.45
39.67
37.34
34.67
31.91
29.34
27.13
25.35
23.89
22.62
21.25
19.48
16.97
13.55
9.21
4.17
-1.24
-6.78
-12.35
-18.02
-23.87
-29.80
-35.58
-40.86
-45.34
-48.99
-51.98
-54.61
-57.19
-59.90
-62.92
-66.41
-70.57
-75.50
-81.08
-86.78
-91.75
-95.04
-95.93
-94.21
-90.21
-84.64
-78.19
-71.35
-64.28
-56.96
-49.42
-41.86
-34.73
-28.49
-23.45
-19.65
-16.81
-14.50
-12.38
-10.31
-8.38
-6.77
-5.57
-4.61
-3.39
-1.34
2.03
6.90
13.17
20.43
28.15
35.74
42.55
47.94
51.38
52.65
51.91
49.75
46.98
44.44
42.82
42.52
43.69
46.28
50.10
54.91
60.52
66.85
73.90
81.60
89.63
97.29
103.59
107.56
108.63
106.88
102.92
97.62
91.71
85.60
79.41
73.21
67.23
61.93
57.83
55.22
54.00
53.70
53.69
53.42
52.60
51.21
49.41
47.31
44.98
42.40
39.57
36.55
33.45
30.40
27.45
24.53
21.47
18.11
14.32
10.13
5.68
1.17
-3.22
-7.42
-11.45
-15.39
-19.25
-23.01
-26.47
-29.43
-31.74
-33.38
-34.49
-35.30
-35.98
-36.52
-36.72
-36.29
-34.93
-32.61
-29.51
-26.01
-22.50
-19.28
-16.43
-13.93
-11.78
-9.95
-8.52
-7.45
-6.57
-5.64
-4.45
-2.93
-1.24
0.34
1.54
2.16
2.23
1.92
1.47
1.15
1.04
1.10
1.17
1.03
0.54
-0.30
-1.30
-2.21
-2.84
-3.14
-3.19
-3.07
-2.79
-2.26
-1.38
-0.15
1.25
2.57
3.54
4.03
4.05
3.74
3.29
2.85
2.49
2.08
1.36
0.02
-2.14
-5.09
-8.60
-12.36
-16.22
-20.25
-24.68
-29.78
-35.62
-42.11
-49.00
-56.10
-63.35
-70.78
-78.44
-86.34
-94.49
-102.85
-111.38
-119.83
-127.60
-133.72
-137.08
-136.71
-132.22
-123.96
-112.86
-100.28
-87.53
-75.66
-65.31
-56.73
-49.88
-44.56
-40.49
-37.28
-34.48
-31.46
-27.62
-22.45
-15.81
-7.98
0.38
8.45
15.60
21.51
26.32
30.32
33.81
36.81
39.18
40.67
41.19
40.84
39.94
38.80
37.62
36.40
34.95
33.01
30.39
27.02
23.01
18.59
14.09
9.87
6.20
3.17
0.69
-1.50
-3.66
-5.94
-8.35
-10.86
-13.53
-16.66
-20.65
-25.80
-32.11
-39.20
-46.38
-52.92
-58.18
-61.69
-63.06
-61.95
-58.19
-51.90
-43.66
-34.46
-25.43
-17.43
-10.79
-5.28
-0.35
4.44
9.21
13.67
17.31
19.75
20.91
21.10
20.93
21.04
21.89
23.65
26.25
29.40
32.83
36.35
39.91
43.48
47.02
50.32
53.02
54.70
54.99
53.78
51.29
48.01
44.64
41.88
40.27
40.13
41.45
43.89
46.92
49.90
52.27
53.64
53.81
52.79
50.77
48.02
44.85
41.61
38.62
36.16
34.35
33.12
32.17
31.06
29.39
26.98
24.00
20.88
18.18
16.29
15.34
15.08
15.14
15.17
14.99
14.67
14.38
14.24
14.20
14.01
13.36
12.03
10.00
7.45
4.65
1.89
-0.66
-2.87
-4.66
-5.95
-6.74
-7.28
-8.19
-10.34
-14.57
-21.26
-30.13
-40.11
-49.76
-57.77
-63.47
-67.00
-69.17
-70.98
-73.27
-76.42
-80.56
-85.66
-91.68
-98.40
-105.15
-110.66
-113.29
-111.51
-104.64
-93.14
-78.45
-62.38
-46.50
-31.66
-18.13
-5.96
4.79
13.85
21.10
26.65
31.01
34.81
38.53
42.30
45.97
49.28
52.14
54.74
57.45
60.60
64.29
68.35
72.42
76.06
78.89
80.67
81.32
80.85
79.32
76.82
73.51
69.59
65.32
61.00
56.79
52.79
48.91
45.06
41.03
36.67
31.83
26.50
20.89
15.43
10.74
7.35
5.45
4.68
4.18
2.88
-0.09
-5.08
-11.82
-19.58
-27.59
-35.28
-42.39
-49.01
-55.38
-61.84
-68.70
-76.22
-84.36
-92.73
-100.39
-105.94
-107.91
-105.21
-97.68
-86.13
-72.25
-57.90
-44.63
-33.20
-23.58
-15.36
-8.07
-1.53
4.18
8.89
12.52
15.23
17.28
18.93
20.26
21.25
21.78
21.79
21.37
20.69
19.99
19.44
19.11
18.88
18.47
17.44
15.42
12.20
7.85
2.81
-2.35
-7.11
-11.11
-14.16
-16.09
-16.69
-15.68
-12.83
-8.15
-1.94
5.31
13.05
20.85
28.40
35.51
41.98
47.55
52.02
55.30
57.49
58.88
59.82
60.65
61.58
62.69
63.96
65.35
66.80
68.26
69.71
71.10
72.32
73.19
73.43
72.79
71.12
68.44
64.96
60.99
56.80
52.57
48.37
44.25
40.29
36.64
33.47
30.85
28.73
26.84
24.87
22.55
19.71
16.38
12.58
8.37
3.78
-1.11
-6.11
-10.86
-15.01
-18.36
-21.00
-23.36
-25.95
-29.17
-33.01
-37.11
-40.94
-44.17
-46.88
-49.54
-52.79
-57.17
-62.89
-69.76
-77.20
-84.39
-90.27
-93.76
-93.89
-90.15
-82.69
-72.38
-60.58
-48.70
-37.80
-28.39
-20.48
-13.84
-8.23
-3.52
0.34
3.41
5.88
7.98
10.01
12.24
14.86
17.98
21.62
25.62
29.65
33.26
36.11
38.00
39.05
39.56
39.86
40.17
40.50
40.70
40.56
39.92
38.75
37.17
35.33
33.44
31.61
29.87
28.18
26.45
24.61
22.59
20.41
18.06
15.58
12.98
10.29
7.54
4.72
1.83
-1.27
-4.65
-8.37
-12.33
-16.26
-19.86
-22.82
-25.09
-26.80
-28.32
-30.09
-32.57
-36.07
-40.65
-46.03
-51.49
-55.95
-58.20
-57.21
-52.48
-44.19
-33.17
-20.59
-7.70
4.50
15.35
24.53
31.95
37.69
41.95
44.94
46.91
48.08
48.63
48.65
48.19
47.23
45.76
43.85
41.65
39.43
37.51
36.17
35.50
35.30
35.18
34.67
33.50
31.59
29.16
26.51
23.88
21.35
18.84
16.26
13.56
10.81
8.10
5.49
2.93
0.33
-2.40
-5.24
-8.15
-11.04
-13.91
-16.79
-19.78
-22.95
-26.34
-29.89
-33.46
-36.89
-40.05
-42.92
-45.58
-48.22
-51.05
-54.25
-57.93
-62.03
-66.32
-70.33
-73.41
-74.84
-73.94
-70.27
-63.74
-54.66
-43.65
-31.62
-19.56
-8.44
0.96
8.30
13.60
17.35
20.18
22.62
24.89
26.95
28.62
29.78
30.48
30.86
31.06
31.19
31.34
31.61
32.15
33.08
34.31
35.57
36.45
36.56
35.72
34.01
31.75
29.36
27.15
25.19
23.33
21.27
18.76
15.77
12.64
10.11
9.10
10.46
14.57
21.12
29.15
37.28
44.19
48.89
50.93
50.35
47.46
42.69
36.49
29.26
21.50
13.79
6.73
0.83
-3.73
-7.13
-9.81
-12.29
-14.85
-17.42
-19.55
-20.72
-20.61
-19.33
-17.38
-15.41
-13.99
-13.34
-13.40
-13.87
-14.53
-15.32
-16.31
-17.60
-19.17
-20.81
-22.19
-23.03
-23.22
-22.85
-22.15
-21.36
-20.65
-20.08
-19.69
-19.50
-19.58
-19.97
-20.68
-21.65
-22.81
-24.07
-25.28
-26.28
-26.82
-26.72
-25.99
-24.90
-23.89
-23.40
-23.69
-24.67
-26.05
-27.49
-28.76
-29.94
-31.26
-33.06
-35.63
-39.10
-43.38
-48.16
-52.85
-56.66
-58.72
-58.28
-54.93
-48.74
-40.15
-29.93
-18.87
-7.66
3.21
13.36
22.50
30.33
36.54
40.87
43.20
43.66
42.66
40.78
38.70
36.91
35.62
34.68
33.76
32.47
30.65
28.39
25.92
23.47
21.08
18.56
15.68
12.28
8.44
4.47
0.77
-2.32
-4.69
-6.40
-7.74
-9.03
-10.61
-12.81
-15.91
-20.01
-25.02
-30.52
-35.93
-40.69
-44.43
-47.19
-49.31
-51.35
-53.75
-56.68
-59.92
-62.84
-64.62
-64.42
-61.70
-56.31
-48.62
-39.39
-29.60
-20.23
-11.97
-5.15
0.28
4.56
8.01
10.92
13.51
16.00
18.61
21.51
24.77
28.28
31.78
35.01
37.78
40.13
42.26
44.37
46.55
48.68
50.57
52.08
53.27
54.40
55.68
57.15
58.52
59.33
59.19
57.98
55.93
53.40
50.71
47.91
44.89
41.50
37.82
34.16
30.94
28.38
26.34
24.33
21.76
18.26
13.87
8.99
4.18
-0.10
-3.63
-6.37
-8.33
-9.47
-9.62
-8.68
-6.66
-3.86
-0.72
2.30
4.88
6.86
8.25
9.12
9.49
9.39
8.81
7.84
6.62
5.38
4.37
3.74
3.50
3.47
3.38
2.96
2.14
1.11
0.28
0.07
0.67
1.89
3.25
4.20
4.37
3.74
2.56
1.18
-0.18
-1.49
-2.89
-4.52
-6.37
-8.32
-10.12
-11.61
-12.77
-13.77
-14.87
-16.30
-18.19
-20.48
-23.04
-25.74
-28.56
-31.60
-34.96
-38.57
-42.12
-45.05
-46.73
-46.68
-44.66
-40.80
-35.55
-29.50
-23.32
-17.64
-12.94
-9.51
-7.38
-6.39
-6.17
-6.29
-6.37
-6.25
-5.98
-5.80
-5.99
-6.75
-8.01
-9.50
-10.88
-11.94
-12.68
-13.41
-14.51
-16.28
-18.73
-21.61
-24.52
-27.19
-29.59
-31.89
-34.32
-36.95
-39.66
-42.23
-44.55
-46.77
-49.25
-52.40
-56.40
-61.16
-66.23
-70.97
-74.64
-76.54
-76.04
-72.70
-66.41
-57.58
-47.04
-35.94
-25.32
-15.90
-7.95
-1.41
3.96
8.34
11.91
14.90
17.63
20.46
23.68
27.27
30.95
34.27
36.80
38.35
39.07
39.32
39.52
39.96
40.75
41.80
42.92
43.96
44.84
45.57
46.21
46.77
47.13
47.02
46.15
44.31
41.49
37.89
33.90
29.88
26.06
22.46
18.97
15.47
11.90
8.28
4.67
1.08
-2.49
-6.05
-9.53
-12.81
-15.77
-18.40
-20.85
-23.42
-26.27
-29.30
-31.98
-33.45
-32.90
-29.91
-24.72
-18.13
-11.23
-4.89
0.44
4.76
8.29
11.05
12.81
13.09
11.50
8.09
3.49
-1.22
-4.82
-6.41
-5.68
-2.96
0.97
5.23
9.14
12.35
14.80
16.53
17.53
17.72
17.09
15.76
14.05
12.37
11.03
10.11
9.46
8.78
7.79
6.38
4.58
2.51
0.35
-1.83
-4.12
-6.75
-10.02
-14.22
-19.43
-25.48
-31.85
-37.71
-42.04
-43.84
-42.37
-37.41
-29.37
-19.26
-8.41
1.91
10.81
18.00
23.70
28.40
32.50
36.18
39.33
41.78
43.41
44.27
44.54
44.41
44.02
43.46
42.78
42.05
41.30
40.54
39.69
38.61
37.21
35.44
33.43
31.29
29.14
27.05
25.01
22.97
20.87
18.61
16.13
13.42
10.49
7.45
4.39
1.28
-1.98
-5.55
-9.50
-13.77
-18.11
-22.35
-26.42
-30.46
-34.73
-39.43
-44.59
-50.11
-55.82
-61.51
-66.93
-71.63
-74.89
-75.91
-73.98
-68.90
-61.07
-51.45
-41.21
-31.36
-22.48
-14.69
-7.88
-1.92
3.10
7.01
9.65
11.16
11.95
12.69
13.99
16.19
19.25
22.80
26.32
29.38
31.75
33.40
34.48
35.22
35.84
36.50
37.18
37.76
38.03
37.79
36.97
35.66
34.07
32.32
30.52
28.62
26.56
24.32
21.95
19.57
17.23
14.97
12.74
10.46
8.00
5.20
1.86
-2.25
-7.24
-13.05
-19.36
-25.70
-31.58
-36.69
-41.08
-45.14
-49.45
-54.49
-60.36
-66.67
-72.55
-76.82
-78.32
-76.20
-70.13
-60.38
-47.80
-33.56
-18.95
-5.08
7.24
17.63
26.03
32.61
37.67
41.52
44.50
46.87
48.80
50.28
51.17
51.29
50.56
49.13
47.32
45.52
44.03
42.96
42.20
41.54
40.83
39.95
38.86
37.53
35.94
34.11
32.18
30.34
28.82
27.66
26.71
25.62
24.05
21.82
19.08
16.28
13.89
12.26
11.38
10.93
10.43
9.44
7.77
5.48
2.87
0.26
-2.14
-4.23
-6.04
-7.65
-9.19
-10.88
-13.00
-15.89
-19.80
-24.74
-30.26
-35.57
-39.61
-41.46
-40.60
-37.02
-31.23
-24.00
-16.17
-8.42
-1.22
5.14
10.49
14.76
17.88
19.89
20.89
21.02
20.46
19.34
17.73
15.72
13.49
11.28
9.44
8.22
7.75
7.90
8.37
8.81
9.04
9.06
9.00
8.99
9.03
8.96
8.58
7.75
6.48
4.91
3.18
1.41
-0.42
-2.32
-4.25
-6.09
-7.67
-8.95
-10.09
-11.41
-13.27
-15.83
-19.03
-22.51
-25.87
-28.86
-31.43
-33.82
-36.31
-39.16
-42.49
-46.27
-50.38
-54.58
-58.52
-61.61
-63.16
-62.51
-59.26
-53.48
-45.70
-36.82
-27.80
-19.41
-12.15
-6.14
-1.28
2.65
5.86
8.56
10.82
12.69
14.19
15.38
16.43
17.56
18.96
20.69
22.65
24.67
26.58
28.33
29.98
31.63
33.30
34.89
36.13
36.77
36.62
35.65
33.99
31.85
29.46
27.01
24.62
22.35
20.19
18.12
16.10
14.11
12.10
10.02
7.87
5.66
3.50
1.59
0.08
-1.06
-2.00
-3.08
-4.67
-6.90
-9.71
-12.84
-16.02
-19.10
-22.13
-25.26
-28.66
-32.38
-36.28
-40.10
-43.52
-46.25
-48.07
-48.81
-48.35
-46.56
-43.35
-38.74
-32.95
-26.46
-20.00
-14.32
-9.98
-7.16
-5.56
-4.67
-3.93
-3.04
-1.98
-0.88
0.09
0.97
1.99
3.44
5.58
8.53
12.26
16.63
21.43
26.39
31.23
35.65
39.39
42.32
44.37
45.59
46.03
45.77
44.88
43.41
41.48
39.19
36.65
33.97
31.21
28.43
25.62
22.80
19.97
17.19
14.63
12.46
10.81
9.67
8.84
8.03
6.95
5.47
3.63
1.54
-0.73
-3.26
-6.14
-9.49
-13.22
-17.01
-20.45
-23.15
-24.89
-25.66
-25.61
-24.96
-23.88
-22.51
-20.91
-19.14
-17.21
-15.11
-12.86
-10.49
-8.05
-5.68
-3.51
-1.68
-0.27
0.72
1.32
1.63
1.79
2.00
2.47
3.31
4.50
5.83
7.03
7.88
8.28
8.31
8.12
7.89
7.70
7.58
7.49
7.35
7.05
6.40
5.27
3.64
1.66
-0.31
-1.93
-3.04
-3.75
-4.45
-5.58
-7.45
-10.08
-13.18
-16.32
-19.05
-21.08
-22.43
-23.32
-24.13
-25.17
-26.55
-28.06
-29.30
-29.80
-29.26
-27.61
-25.01
-21.69
-17.87
-13.66
-9.20
-4.65
-0.22
3.95
7.84
11.59
15.38
19.33
23.30
26.95
29.84
31.67
32.40
32.22
31.46
30.46
29.45
28.59
27.96
27.60
27.49
27.51
27.43
26.97
25.94
24.30
22.14
19.63
16.94
14.22
11.57
9.10
6.82
4.72
2.61
0.26
-2.57
-6.05
-10.15
-14.70
-19.46
-24.24
-28.90
-33.44
-37.93
-42.52
-47.42
-52.72
-58.29
-63.65
-68.06
-70.60
-70.61
-67.82
-62.57
-55.61
-47.89
-40.25
-33.27
-27.25
-22.24
-18.15
-14.74
-11.63
-8.43
-4.85
-0.85
3.32
7.20
10.37
12.61
13.99
14.75
15.19
15.51
15.84
16.23
16.74
17.42
18.24
19.02
19.48
19.40
18.64
17.23
15.33
13.18
11.08
9.25
7.91
7.10
6.71
6.43
5.93
4.96
3.53
1.81
0.02
-1.66
-3.21
-4.71
-6.24
-7.81
-9.34
-10.79
-12.17
-13.57
-15.00
-16.29
-17.07
-16.85
-15.28
-12.33
-8.31
-3.79
0.64
4.62
8.08
11.10
13.83
16.23
18.18
19.54
20.28
20.56
20.63
20.74
20.99
21.31
21.50
21.34
20.71
19.69
18.50
17.42
16.59
15.89
14.97
13.40
10.89
7.51
3.61
-0.33
-3.99
-7.33
-10.56
-13.89
-17.37
-20.82
-23.99
-26.74
-29.23
-31.78
-34.70
-38.15
-42.04
-46.20
-50.49
-54.91
-59.54
-64.43
-69.44
-74.23
-78.43
-81.72
-83.95
-85.06
-85.00
-83.64
-80.80
-76.34
-70.38
-63.31
-55.66
-47.91
-40.20
-32.25
-23.49
-13.31
-1.36
12.26
27.00
42.06
56.55
69.76
81.21
90.70
98.15
103.62
107.17
108.92
109.00
107.56
104.80
100.87
96.02
90.63
85.25
80.55
77.09
75.12
74.28
73.74
72.29
68.79
62.60
53.82
43.42
32.97
24.23
18.66
16.94
18.77
22.90
27.45
30.48
30.48
26.76
19.52
9.74
-1.19
-11.87
-21.19
-28.51
-33.62
-36.54
-37.30
-35.90
-32.39
-27.11
-20.73
-14.20
-8.46
-4.12
-1.30
0.35
1.42
2.41
3.58
4.95
6.41
7.88
9.31
10.70
11.98
12.99
13.52
13.32
12.28
10.43
8.03
5.39
2.81
0.46
-1.71
-3.85
-6.14
-8.64
-11.27
-13.81
-16.08
-18.09
-20.04
-22.33
-25.28
-29.07
-33.49
-38.06
-42.19
-45.45
-47.78
-49.56
-51.42
-53.98
-57.52
-61.80
-66.14
-69.62
-71.38
-70.80
-67.64
-61.96
-54.17
-44.92
-35.22
-26.26
-19.20
-14.67
-12.46
-11.48
-10.26
-7.61
-3.32
1.86
6.60
9.80
11.18
11.20
10.68
10.20
9.77
9.03
7.61
5.51
3.15
1.07
-0.38
-1.15
-1.43
-1.37
-0.93
0.13
2.06
5.04
9.02
13.86
19.30
25.02
30.64
35.68
39.64
42.13
43.05
42.65
41.47
40.22
39.43
39.33
39.73
40.14
39.98
38.77
36.32
32.73
28.39
23.79
19.43
15.69
12.81
10.89
9.93
9.94
10.88
12.73
15.31
18.39
21.68
24.96
28.19
31.39
34.51
37.25
39.07
39.32
37.60
33.99
29.10
23.91
19.39
16.13
14.18
13.21
12.78
12.57
12.50
12.55
12.52
11.83
9.60
4.92
-2.67
-12.92
-24.85
-37.11
-48.55
-58.53
-67.03
-74.34
-80.60
-85.53
-88.59
-89.35
-87.85
-84.74
-81.01
-77.49
-74.48
-71.69
-68.61
-65.00
-61.29
-58.48
-57.80
-60.11
-65.44
-72.84
-80.62
-86.81
-89.74
-88.48
-82.99
-73.98
-62.49
-49.54
-35.90
-22.09
-8.54
4.25
15.69
25.22
32.55
37.84
41.72
45.02
48.48
52.48
56.90
61.26
65.05
67.98
70.08
71.64
72.97
74.23
75.37
76.22
76.61
76.45
75.72
74.40
72.38
69.62
66.17
62.28
58.21
54.18
50.16
45.96
41.40
36.47
31.42
26.60
22.26
18.40
14.76
10.98
6.87
2.51
-1.74
-5.55
-8.80
-11.70
-14.73
-18.39
-22.98
-28.52
-34.84
-41.77
-49.22
-57.12
-65.18
-72.75
-78.82
-82.33
-82.53
-79.26
-73.00
-64.72
-55.46
-46.08
-37.04
-28.50
-20.42
-12.86
-6.01
-0.29
3.85
6.14
6.74
6.29
5.76
6.08
7.83
11.02
15.24
19.96
24.84
29.78
34.80
39.75
44.22
47.59
49.31
49.23
47.71
45.43
43.11
41.17
39.62
38.18
36.53
34.46
31.97
29.14
26.04
22.67
19.01
15.10
11.10
7.27
3.79
0.69
-2.18
-5.11
-8.33
-11.91
-15.73
-19.61
-23.36
-26.96
-30.53
-34.24
-38.25
-42.56
-47.03
-51.29
-54.86
-57.16
-57.60
-55.71
-51.28
-44.51
-35.98
-26.54
-17.06
-8.15
-0.14
6.91
13.07
18.33
22.56
25.52
27.01
27.07
26.08
24.67
23.63
23.58
24.75
26.97
29.69
32.26
34.17
35.28
35.74
35.86
35.91
36.00
36.11
36.22
36.35
36.59
37.04
37.67
38.34
38.77
38.69
37.89
36.36
34.25
31.81
29.30
26.88
24.58
22.32
19.92
17.26
14.28
11.01
7.56
4.09
0.68
-2.56
-5.61
-8.48
-11.24
-14.03
-17.06
-20.50
-24.38
-28.60
-32.85
-36.72
-39.76
-41.57
-41.86
-40.44
-37.23
-32.30
-25.90
-18.46
-10.54
-2.77
4.31
10.35
15.17
18.76
21.21
22.67
23.29
23.24
22.70
21.93
21.15
20.55
20.22
20.10
20.10
20.11
20.04
19.88
19.56
18.98
17.96
16.34
14.00
10.99
7.49
3.70
-0.15
-3.95
-7.65
-11.25
-14.68
-17.83
-20.55
-22.71
-24.36
-25.64
-26.89
-28.37
-30.20
-32.27
-34.30
-36.02
-37.31
-38.35
-39.53
-41.29
-43.96
-47.57
-51.94
-56.60
-60.94
-64.26
-65.87
-65.22
-62.00
-56.28
-48.52
-39.54
-30.26
-21.50
-13.82
-7.36
-1.93
2.83
7.18
11.17
14.54
16.95
18.16
18.21
17.42
16.25
15.15
14.36
13.96
13.92
14.24
14.91
15.98
17.48
19.33
21.31
23.09
24.23
24.38
23.39
21.44
18.93
16.34
13.92
11.67
9.30
6.54
3.26
-0.40
-4.15
-7.78
-11.16
-14.28
-17.08
-19.37
-20.91
-21.54
-21.33
-20.58
-19.74
-19.25
-19.31
-19.94
-20.84
-21.56
-21.50
-20.15
-17.19
-12.68
-7.07
-1.11
4.35
8.67
11.58
13.19
13.89
14.08
14.01
13.71
13.00
11.63
9.46
6.51
3.10
-0.29
-3.12
-5.05
-6.06
-6.32
-6.18
-5.85
-5.39
-4.76
-3.92
-2.99
-2.18
-1.75
-1.74
-1.99
-2.17
-2.01
-1.44
-0.59
0.35
1.29
2.35
3.72
5.56
7.78
10.05
11.86
12.78
12.61
11.53
9.98
8.53
7.67
7.57
8.09
8.80
9.26
9.15
8.47
7.56
6.79
6.47
6.62
7.00
7.28
7.28
7.03
6.75
6.68
6.92
7.41
7.95
8.38
8.60
8.65
8.70
8.88
9.30
9.96
10.83
11.86
13.09
14.56
16.31
18.27
20.21
21.83
22.74
22.73
21.78
20.12
18.07
15.94
13.90
12.02
10.30
8.79
7.54
6.55
5.67
4.64
3.14
0.94
-1.97
-5.42
-9.12
-12.89
-16.72
-20.69
-24.88
-29.14
-33.08
-36.16
-37.87
-37.90
-36.21
-33.04
-28.78
-23.85
-18.70
-13.70
-9.11
-5.09
-1.60
1.46
4.17
6.54
8.48
9.81
10.42
10.33
9.70
8.80
7.94
7.34
7.16
7.40
7.96
8.64
9.24
9.60
9.61
9.25
8.46
7.17
5.22
2.47
-1.07
-5.24
-9.71
-14.09
-18.04
-21.47
-24.42
-27.07
-29.57
-31.96
-34.20
-36.14
-37.66
-38.68
-39.22
-39.33
-39.08
-38.61
-38.11
-37.94
-38.48
-40.07
-42.72
-46.07
-49.29
-51.28
-51.03
-47.88
-41.79
-33.29
-23.30
-12.79
-2.52
7.09
15.91
23.88
30.95
36.95
41.73
45.22
47.55
49.02
49.93
50.52
50.87
50.93
50.73
50.35
49.98
49.74
49.65
49.46
48.83
47.44
45.24
42.42
39.37
36.47
33.88
31.47
28.97
26.09
22.71
18.94
14.99
11.09
7.33
3.65
-0.08
-3.92
-7.79
-11.52
-14.94
-18.03
-20.93
-23.93
-27.26
-31.06
-35.34
-40.01
-44.96
-50.01
-54.79
-58.68
-60.86
-60.51
-57.13
-50.78
-42.10
-32.09
-21.78
-11.88
-2.74
5.55
13.03
19.65
25.27
29.71
32.95
35.18
36.77
38.12
39.51
41.02
42.51
43.76
44.64
45.18
45.53
45.88
46.30
46.65
46.70
46.15
44.85
42.80
40.15
37.11
33.82
30.31
26.56
22.57
18.40
14.17
10.02
5.97
1.95
-2.21
-6.59
-11.16
-15.78
-20.26
-24.62
-29.04
-33.89
-39.41
-45.54
-51.89
-57.81
-62.70
-66.13
-67.98
-68.23
-66.89
-63.88
-59.11
-52.62
-44.63
-35.61
-26.09
-16.57
-7.41
1.11
8.76
15.31
20.55
24.42
26.99
28.56
29.56
30.42
31.41
32.58
33.76
34.56
34.73
34.15
33.00
31.65
30.47
29.66
29.19
28.85
28.34
27.52
26.28
24.64
22.63
20.30
17.67
14.92
12.24
9.87
8.03
6.87
6.42
6.65
7.40
8.39
9.31
9.82
9.75
9.12
8.19
7.22
6.38
5.58
4.64
3.40
1.92
0.43
-0.81
-1.75
-2.60
-3.73
-5.44
-7.71
-10.26
-12.68
-14.59
-15.90
-16.66
-16.97
-16.84
-16.17
-14.88
-12.96
-10.62
-8.11
-5.75
-3.70
-2.08
-0.94
-0.37
-0.45
-1.21
-2.54
-4.21
-5.91
-7.35
-8.37
-8.98
-9.33
-9.57
-9.76
-9.87
-9.76
-9.35
-8.68
-7.93
-7.37
-7.27
-7.71
-8.67
-9.92
-11.28
-12.58
-13.85
-15.25
-17.11
-19.75
-23.46
-28.32
-34.17
-40.58
-46.92
-52.45
-56.45
-58.30
-57.60
-54.26
-48.61
-41.37
-33.56
-26.22
-20.08
-15.43
-12.04
-9.37
-6.87
-4.17
-1.17
2.07
5.47
9.06
12.87
16.90
20.97
24.70
27.74
29.84
31.05
31.64
31.96
32.27
32.63
32.92
32.97
32.69
32.12
31.43
30.77
30.29
30.04
30.01
30.17
30.46
30.76
30.79
30.19
28.49
25.38
20.78
14.93
8.35
1.66
-4.61
-10.23
-15.20
-19.74
-24.14
-28.62
-33.24
-37.91
-42.41
-46.44
-49.70
-51.93
-53.05
-53.25
-52.94
-52.64
-52.81
-53.79
-55.65
-58.33
-61.62
-65.22
-68.68
-71.36
-72.46
-71.18
-67.02
-59.88
-50.22
-38.87
-26.76
-14.68
-3.10
7.74
17.73
26.74
34.54
40.97
46.00
49.82
52.77
55.16
57.08
58.39
58.79
58.07
56.28
53.80
51.23
49.17
47.95
47.59
47.77
48.08
48.12
47.66
46.58
44.88
42.57
39.65
36.16
32.19
27.91
23.49
19.10
14.86
10.73
6.54
1.96
-3.37
-9.73
-17.15
-25.33
-33.68
-41.42
-47.88
-52.60
-55.42
-56.47
-56.08
-54.75
-53.06
-51.57
-50.65
-50.33
-50.10
-49.09
-46.31
-41.00
-32.96
-22.61
-10.80
1.44
13.24
24.06
33.64
41.88
48.66
53.85
57.31
59.10
59.48
58.90
57.88
56.86
56.03
55.35
54.66
53.77
52.58
51.13
49.56
48.01
46.48
44.81
42.78
40.10
36.67
32.55
27.94
23.09
18.19
13.24
8.11
2.64
-3.27
-9.58
-16.16
-22.79
-29.23
-35.17
-40.29
-44.27
-46.91
-48.18
-48.31
-47.68
-46.76
-45.99
-45.71
-46.09
-47.11
-48.51
-49.80
-50.29
-49.23
-45.96
-40.15
-31.93
-21.86
-10.86
0.05
9.96
18.25
24.64
29.20
32.16
33.90
34.80
35.23
35.49
35.78
36.21
36.72
37.25
37.70
38.13
38.68
39.47
40.52
41.56
42.12
41.68
39.96
36.96
33.01
28.58
23.93
19.08
13.81
7.88
1.26
-5.76
-12.72
-19.19
-24.97
-30.14
-34.91
-39.45
-43.64
-47.20
-49.77
-51.25
-51.82
-51.98
-52.33
-53.29
-54.99
-57.25
-59.68
-61.77
-62.98
-62.80
-60.79
-56.67
-50.43
-42.37
-33.11
-23.35
-13.79
-4.94
2.88
9.59
15.19
19.73
23.27
25.91
27.80
29.16
30.23
31.23
32.28
33.28
33.95
33.97
33.02
30.95
27.82
23.89
19.59
15.39
11.82
9.36
8.41
9.12
11.35
14.71
18.62
22.53
26.00
28.81
30.95
32.58
33.89
35.01
35.90
36.33
35.88
34.11
30.70
25.61
19.03
11.35
3.03
-5.55
-14.16
-22.67
-31.01
-39.02
-46.46
-52.90
-57.88
-60.88
-61.55
-59.76
-55.75
-50.04
-43.35
-36.38
-29.67
-23.54
-18.03
-13.12
-8.78
-5.09
-2.19
-0.16
1.03
1.64
2.05
2.63
3.60
4.98
6.61
8.33
10.05
11.78
13.59
15.47
17.26
18.68
19.47
19.52
18.91
17.95
16.95
16.05
15.20
14.20
12.80
10.91
8.60
6.11
3.64
1.28
-0.97
-3.21
-5.51
-7.90
-10.32
-12.73
-15.18
-17.78
-20.77
-24.39
-28.77
-33.78
-38.90
-43.35
-46.18
-46.66
-44.44
-39.71
-33.09
-25.43
-17.50
-9.87
-2.86
3.37
8.76
13.25
16.79
19.41
21.16
22.14
22.46
22.25
21.65
20.80
19.88
19.03
18.37
18.05
18.15
18.72
19.70
20.98
22.33
23.43
24.02
23.90
23.01
21.45
19.41
17.13
14.77
12.37
9.84
7.05
3.87
0.32
-3.47
-7.26
-10.85
-14.15
-17.24
-20.32
-23.67
-27.49
-31.82
-36.44
-40.87
-44.44
-46.47
-46.34
-43.78
-38.84
-31.94
-23.80
-15.25
-7.09
0.11
6.11
10.94
14.80
17.90
20.36
22.16
23.26
23.71
23.69
23.52
23.47
23.69
24.10
24.57
24.93
25.15
25.34
25.62
26.09
26.65
27.12
27.25
26.86
25.87
24.37
22.53
20.50
18.37
16.11
13.67
10.99
8.15
5.29
2.53
-0.07
-2.58
-5.18
-8.01
-11.07
-14.21
-17.21
-19.96
-22.61
-25.46
-28.92
-33.18
-38.07
-43.07
-47.40
-50.25
-51.00
-49.36
-45.37
-39.32
-31.72
-23.12
-14.15
-5.39
2.54
9.19
14.29
17.85
20.15
21.60
22.55
23.19
23.53
23.48
23.03
22.34
21.69
21.37
21.51
22.07
22.84
23.62
24.24
24.61
24.68
24.41
23.75
22.68
21.19
19.31
17.04
14.41
11.43
8.17
4.66
0.96
-2.97
-7.18
-11.69
-16.46
-21.28
-25.97
-30.40
-34.58
-38.58
-42.39
-45.84
-48.59
-50.40
-51.23
-51.35
-51.21
-51.21
-51.40
-51.46
-50.86
-49.14
-46.15
-42.13
-37.47
-32.43
-26.98
-20.80
-13.55
-5.13
4.20
13.89
23.34
32.06
39.78
46.34
51.54
55.15
57.01
57.24
56.35
55.10
54.26
54.26
55.18
56.73
58.53
60.26
61.76
62.88
63.48
63.35
62.32
60.35
57.63
54.46
51.14
47.85
44.57
41.22
37.75
34.23
30.83
27.75
25.06
22.69
20.39
17.87
14.86
11.27
7.17
2.80
-1.54
-5.62
-9.37
-12.92
-16.55
-20.55
-25.09
-30.09
-35.20
-39.83
-43.37
-45.26
-45.14
-42.88
-38.50
-32.21
-24.40
-15.64
-6.68
1.68
8.78
14.30
18.30
21.13
23.19
24.79
26.10
27.17
28.10
29.09
30.35
31.99
33.90
35.86
37.63
39.15
40.51
41.84
43.18
44.34
45.02
44.93
43.98
42.30
40.23
38.09
36.12
34.36
32.67
30.83
28.62
25.94
22.79
19.32
15.67
11.98
8.28
4.50
0.59
-3.54
-7.86
-12.32
-16.81
-21.10
-24.80
-27.41
-28.38
-27.25
-23.88
-18.43
-11.43
-3.59
4.37
11.93
18.79
24.87
30.18
34.70
38.38
41.17
43.10
44.34
45.22
46.12
47.29
48.79
50.49
52.14
53.53
54.55
55.10
55.03
54.09
51.97
48.45
43.60
37.81
31.66
25.72
20.33
15.51
11.01
6.49
1.77
-3.19
-8.23
-13.21
-18.04
-22.75
-27.43
-32.17
-36.92
-41.48
-45.63
-49.20
-52.19
-54.80
-57.26
-59.65
-61.80
-63.33
-63.81
-63.03
-61.06
-58.25
-54.98
-51.53
-47.99
-44.44
-41.06
-38.29
-36.68
-36.59
-38.01
-40.48
-43.25
-45.56
-46.91
-47.17
-46.58
-45.59
-44.65
-44.02
-43.71
-43.53
-43.22
-42.62
-41.82
-41.09
-40.77
-40.99
-41.69
-42.49
-42.98
-42.95
-42.41
-41.53
-40.48
-39.26
-37.74
-35.89
-33.90
-32.23
-31.37
-31.53
-32.37
-33.10
-32.77
-30.73
-27.02
-22.28
-17.59
-13.90
-11.71
-10.92
-10.94
-11.05
-10.72
-9.73
-8.16
-6.25
-4.24
-2.21
-0.17
1.81
3.59
4.79
5.00
3.88
1.41
-2.18
-6.38
-10.69
-14.71
-18.23
-21.15
-23.28
-24.34
-23.94
-21.78
-17.78
-12.17
-5.38
2.14
9.92
17.61
24.80
31.02
35.74
38.58
39.45
38.64
36.67
34.11
31.41
28.88
26.70
25.00
23.88
23.31
23.09
22.92
22.45
21.51
20.08
18.40
16.78
15.52
14.85
14.85
15.53
16.80
18.55
20.59
22.66
24.52
25.85
26.39
25.88
24.16
21.06
16.52
10.60
3.51
-4.31
-12.25
-19.53
-25.41
-29.28
-30.89
-30.38
-28.24
-25.23
-22.11
-19.52
-17.76
-16.89
-16.84
-17.50
-18.78
-20.70
-23.24
-26.31
-29.75
-33.30
-36.76
-40.02
-43.07
-45.85
-48.32
-50.42
-52.12
-53.56
-55.02
-56.89
-59.43
-62.65
-66.14
-69.12
-70.59
-69.70
-66.02
-59.74
-51.55
-42.43
-33.31
-24.81
-17.23
-10.62
-4.90
-0.04
3.93
7.01
9.26
10.88
12.11
13.19
14.19
15.15
15.98
16.68
17.32
18.02
18.93
20.12
21.55
23.07
24.50
25.62
26.30
26.42
25.98
25.00
23.56
21.74
19.66
17.38
14.94
12.40
9.83
7.26
4.78
2.38
0.06
-2.27
-4.70
-7.34
-10.18
-13.15
-16.17
-19.15
-22.17
-25.37
-28.97
-33.06
-37.41
-41.44
-44.29
-45.11
-43.35
-39.03
-32.64
-24.97
-16.85
-8.88
-1.41
5.38
11.33
16.29
20.08
22.67
24.21
25.01
25.43
25.72
26.00
26.18
26.23
26.14
26.11
26.35
27.08
28.31
29.85
31.36
32.43
32.83
32.55
31.76
30.70
29.55
28.36
27.01
25.35
23.32
20.96
18.43
15.93
13.60
11.44
9.34
7.14
4.69
1.97
-0.92
-3.83
-6.59
-9.14
-11.50
-13.84
-16.34
-19.23
-22.68
-26.77
-31.37
-36.11
-40.31
-43.16
-43.89
-42.03
-37.59
-31.06
-23.28
-15.15
-7.37
-0.38
5.68
10.83
15.14
18.64
21.37
23.37
24.76
25.65
26.13
26.28
26.13
25.80
25.50
25.52
26.09
27.28
28.95
30.71
32.13
32.86
32.82
32.12
31.03
29.78
28.46
27.05
25.43
23.51
21.32
18.98
16.62
14.33
12.08
9.75
7.21
4.36
1.24
-2.02
-5.30
-8.51
-11.66
-14.88
-18.24
-21.73
-25.23
-28.66
-32.08
-35.85
-40.41
-46.05
-52.59
-59.28
-64.93
-68.35
-68.71
-65.81
-60.06
-52.18
-43.02
-33.31
-23.71
-14.84
-7.20
-1.14
3.30
6.43
8.80
10.94
13.21
15.64
18.05
20.16
21.76
22.83
23.53
24.09
24.81
25.91
27.47
29.40
31.45
33.29
34.59
35.13
34.86
33.86
32.32
30.41
28.23
25.84
23.34
20.87
18.61
16.71
15.15
13.80
12.41
10.80
8.91
6.81
4.67
2.62
0.70
-1.14
-2.99
-4.93
-7.02
-9.28
-11.78
-14.67
-18.09
-22.07
-26.39
-30.53
-33.73
-35.29
-34.71
-31.91
-27.17
-21.06
-14.20
-7.16
-0.39
5.80
11.23
15.84
19.61
22.60
24.87
26.46
27.40
27.79
27.82
27.75
27.83
28.20
28.80
29.54
30.31
31.10
32.05
33.27
34.78
36.39
37.72
38.35
38.01
36.69
34.65
32.29
29.95
27.75
25.61
23.30
20.65
17.65
14.44
11.28
8.32
5.66
3.22
0.94
-1.24
-3.29
-5.22
-7.21
-9.56
-12.69
-16.88
-22.00
-27.42
-32.06
-34.78
-34.70
-31.60
-25.92
-18.54
-10.43
-2.30
5.46
12.71
19.33
25.13
29.87
33.37
35.71
37.17
38.10
38.74
39.04
38.81
37.86
36.25
34.25
32.29
30.69
29.56
28.73
27.91
26.85
25.44
23.74
21.84
19.85
17.78
15.62
13.32
10.85
8.20
5.41
2.62
-0.03
-2.38
-4.38
-6.15
-7.88
-9.82
-12.11
-14.74
-17.54
-20.32
-22.95
-25.40
-27.71
-29.96
-32.25
-34.68
-37.39
-40.53
-44.04
-47.60
-50.52
-51.98
-51.24
-48.02
-42.53
-35.48
-27.67
-19.80
-12.32
-5.43
0.72
5.95
10.10
13.09
15.07
16.32
17.22
18.02
18.77
19.39
19.76
19.84
19.73
19.58
19.57
19.82
20.36
21.19
22.22
23.31
24.28
24.88
24.91
24.23
22.90
21.12
19.18
17.30
15.66
14.22
12.82
11.26
9.39
7.20
4.80
2.35
-0.04
-2.34
-4.64
-7.00
-9.46
-11.96
-14.41
-16.73
-18.97
-21.29
-23.95
-27.16
-30.96
-35.20
-39.39
-42.91
-45.10
-45.42
-43.69
-40.04
-34.87
-28.71
-22.07
-15.36
-8.87
-2.84
2.56
7.18
10.94
13.81
15.85
17.13
17.81
18.03
17.99
17.91
17.98
18.36
19.08
20.09
21.24
22.37
23.31
24.00
24.45
24.71
24.85
24.87
24.75
24.37
23.60
22.31
20.46
18.12
15.49
12.83
10.37
8.24
6.41
4.81
3.32
1.80
0.16
-1.71
-3.88
-6.38
-9.10
-11.82
-14.29
-16.39
-18.26
-20.28
-22.92
-26.43
-30.67
-35.13
-39.08
-41.76
-42.64
-41.47
-38.26
-33.30
-27.04
-20.07
-13.01
-6.47
-0.86
3.65
7.11
9.74
11.77
13.35
14.52
15.24
15.49
15.31
14.89
14.39
13.98
13.77
13.78
14.01
14.43
15.03
15.76
16.51
17.12
17.40
17.23
16.51
15.26
13.56
11.61
9.59
7.68
5.90
4.16
2.27
0.11
-2.30
-4.75
-7.01
-8.95
-10.66
-12.40
-14.44
-16.94
-19.89
-23.14
-26.51
-29.87
-33.05
-35.75
-37.53
-37.87
-36.39
-33.06
-28.21
-22.46
-16.42
-10.51
-4.93
0.29
5.09
9.30
12.65
14.93
16.07
16.27
15.86
15.23
14.63
14.21
13.93
13.75
13.62
13.56
13.62
13.86
14.29
14.92
15.66
16.46
17.16
17.64
17.71
17.24
16.17
14.59
12.67
10.66
8.78
7.11
5.58
4.00
2.16
-0.08
-2.75
-5.72
-8.79
-11.68
-14.20
-16.29
-18.07
-19.86
-22.03
-24.85
-28.38
-32.32
-36.15
-39.21
-40.87
-40.71
-38.58
-34.61
-29.17
-22.83
-16.17
-9.77
-3.99
0.99
5.13
8.48
11.08
12.93
14.05
14.52
14.50
14.21
13.90
13.70
13.68
13.83
14.12
14.55
15.12
15.85
16.72
17.62
18.42
18.95
19.08
18.76
18.01
16.94
15.71
14.43
13.12
11.74
10.20
8.44
6.49
4.43
2.35
0.27
-1.84
-4.05
-6.37
-8.74
-11.03
-13.13
-15.04
-16.85
-18.77
-20.95
-23.55
-26.57
-29.90
-33.33
-36.51
-39.02
-40.36
-40.07
-37.84
-33.65
-27.84
-21.11
-14.25
-7.96
-2.65
1.64
5.11
7.98
10.35
12.20
13.44
14.04
14.13
13.95
13.78
13.81
14.11
14.61
15.19
15.76
16.26
16.75
17.28
17.87
18.45
18.86
18.90
18.46
17.51
16.18
14.65
13.05
11.42
9.73
7.95
6.11
4.34
2.74
1.38
0.15
-1.15
-2.77
-4.76
-7.09
-9.54
-11.90
-14.03
-15.93
-17.75
-19.72
-22.04
-24.79
-27.92
-31.16
-34.11
-36.29
-37.23
-36.51
-33.95
-29.67
-24.08
-17.83
-11.66
-6.15
-1.61
1.98
4.91
7.46
9.81
11.88
13.49
14.49
14.91
14.99
14.98
15.08
15.26
15.42
15.53
15.66
16.03
16.84
18.05
19.33
20.27
20.53
20.03
19.00
17.76
16.54
15.31
13.90
12.12
9.98
7.67
5.47
3.60
2.05
0.65
-0.88
-2.74
-4.98
-7.47
-9.97
-12.26
-14.22
-15.91
-17.53
-19.37
-21.71
-24.70
-28.29
-32.29
-36.31
-39.86
-42.41
-43.47
-42.69
-39.91
-35.26
-29.15
-22.17
-15.04
-8.35
-2.54
2.20
5.91
8.76
10.96
12.70
14.09
15.18
16.02
16.66
17.16
17.56
17.85
18.03
18.12
18.23
18.52
19.13
20.08
21.23
22.28
22.98
23.13
22.72
21.84
20.66
19.26
17.72
16.03
14.21
12.32
10.43
8.58
6.74
4.88
2.88
0.73
-1.56
-3.91
-6.21
-8.37
-10.35
-12.15
-13.86
-15.58
-17.46
-19.67
-22.35
-25.63
-29.49
-33.72
-37.89
-41.40
-43.58
-43.96
-42.34
-38.88
-34.01
-28.28
-22.15
-15.96
-9.92
-4.20
0.99
5.41
8.92
11.49
13.29
14.50
15.32
15.80
15.95
15.80
15.53
15.40
15.71
16.62
18.09
19.87
21.59
22.95
23.74
23.90
23.54
22.78
21.80
20.68
19.46
18.07
16.52
14.79
12.98
11.23
9.63
8.13
6.59
4.79
2.58
-0.00
-2.76
-5.43
-7.84
-10.00
-12.08
-14.28
-16.75
-19.50
-22.47
-25.58
-28.83
-32.25
-35.74
-38.96
-41.33
-42.13
-40.84
-37.34
-32.00
-25.59
-18.95
-12.71
-7.15
-2.21
2.31
6.49
10.22
13.23
15.30
16.40
16.74
16.72
16.69
16.86
17.26
17.81
18.43
19.11
19.89
20.80
21.80
22.73
23.45
23.86
23.94
23.71
23.19
22.39
21.30
19.94
18.38
16.69
14.96
13.22
11.44
9.53
7.41
5.03
2.46
-0.17
-2.71
-5.08
-7.30
-9.49
-11.78
-14.24
-16.86
-19.62
-22.58
-25.89
-29.73
-34.07
-38.56
-42.51
-45.07
-45.53
-43.60
-39.50
-33.85
-27.37
-20.72
-14.30
-8.31
-2.81
2.16
6.53
10.24
13.25
15.63
17.48
18.91
20.02
20.86
21.47
21.91
22.33
22.87
23.66
24.67
25.76
26.69
27.24
27.34
27.04
26.52
25.92
25.31
24.57
23.53
22.09
20.25
18.18
16.10
14.20
12.54
11.06
9.57
7.94
6.07
3.98
1.74
-0.61
-3.03
-5.53
-8.08
-10.65
-13.16
-15.65
-18.23
-21.09
-24.46
-28.39
-32.76
-37.19
-41.07
-43.76
-44.66
-43.43
-40.05
-34.84
-28.40
-21.46
-14.68
-8.53
-3.21
1.31
5.17
8.55
11.51
14.05
16.06
17.46
18.21
18.39
18.17
17.77
17.44
17.38
17.73
18.54
19.77
21.23
22.68
23.84
24.56
24.76
24.51
23.95
23.15
22.15
20.92
19.44
17.72
15.86
13.94
12.04
10.15
8.23
6.20
4.05
1.78
-0.58
-3.03
-5.59
-8.27
-11.07
-13.98
-16.99
-20.15
-23.54
-27.18
-30.94
-34.44
-37.10
-38.28
-37.55
-34.82
-30.41
-24.87
-18.81
-12.72
-6.83
-1.25
3.98
8.70
12.69
15.76
17.83
19.00
19.53
19.70
19.74
19.77
19.77
19.76
19.76
19.90
20.32
21.14
22.34
23.74
25.08
26.06
26.47
26.28
25.59
24.60
23.50
22.36
21.13
19.71
18.01
16.04
13.87
11.60
9.32
7.02
4.68
2.29
-0.14
-2.54
-4.90
-7.25
-9.67
-12.19
-14.76
-17.27
-19.70
-22.14
-24.86
-28.19
-32.24
-36.80
-41.24
-44.74
-46.52
-46.10
-43.47
-39.05
-33.40
-27.14
-20.69
-14.36
-8.35
-2.85
1.98
6.05
9.37
12.00
14.04
15.55
16.57
17.14
17.38
17.46
17.63
18.04
18.75
19.65
20.56
21.29
21.79
22.11
22.37
22.66
22.98
23.24
23.27
22.98
22.34
21.40
20.26
18.94
17.42
15.63
13.56
11.33
9.12
7.20
5.67
4.52
3.53
2.41
0.89
-1.13
-3.59
-6.31
-9.02
-11.49
-13.65
-15.56
-17.41
-19.39
-21.66
-24.28
-27.29
-30.63
-34.23
-37.83
-41.04
-43.25
-43.85
-42.41
-38.82
-33.44
-26.89
-19.94
-13.25
-7.22
-2.07
2.18
5.54
8.09
9.97
11.37
12.55
13.65
14.75
15.72
16.38
16.59
16.35
15.85
15.37
15.16
15.43
16.22
17.42
18.86
20.28
21.43
22.12
22.19
21.61
20.47
18.99
17.39
15.82
14.34
12.89
11.39
9.76
8.02
6.20
4.40
2.68
1.06
-0.51
-2.19
-4.10
-6.31
-8.77
-11.32
-13.70
-15.70
-17.28
-18.60
-20.00
-21.83
-24.32
-27.41
-30.78
-33.91
-36.28
-37.45
-37.13
-35.21
-31.76
-27.02
-21.39
-15.38
-9.55
-4.39
-0.18
3.04
5.43
7.19
8.52
9.53
10.24
10.69
10.94
11.07
11.16
11.23
11.27
11.31
11.39
11.64
12.14
12.88
13.75
14.57
15.14
15.35
15.15
14.59
13.74
12.65
11.38
10.01
8.62
7.30
6.06
4.87
3.64
2.31
0.86
-0.67
-2.22
-3.75
-5.28
-6.87
-8.62
-10.66
-13.11
-16.05
-19.48
-23.16
-26.65
-29.33
-30.59
-30.05
-27.68
-23.84
-19.09
-14.02
-9.10
-4.57
-0.56
2.87
5.66
7.78
9.24
10.14
10.65
10.93
11.08
11.13
11.09
10.99
10.89
10.92
11.20
11.72
12.40
13.13
13.83
14.46
15.06
15.57
15.83
15.65
14.90
13.58
11.88
10.08
8.33
6.63
4.83
2.76
0.39
-2.14
-4.60
-6.83
-8.82
-10.72
-12.70
-14.85
-17.12
-19.40
-21.67
-24.04
-26.74
-29.89
-33.38
-36.73
-39.25
-40.21
-39.18
-36.15
-31.52
-25.98
-20.19
-14.67
-9.65
-5.19
-1.30
2.06
4.80
6.90
8.38
9.37
10.04
10.58
11.14
11.79
12.53
13.28
13.97
14.58
15.12
15.70
16.43
17.34
18.34
19.25
19.85
19.98
19.62
18.90
18.02
17.17
16.38
15.56
14.56
13.25
11.58
9.62
7.44
5.16
2.90
0.77
-1.13
-2.71
-4.02
-5.18
-6.40
-7.90
-9.81
-12.12
-14.67
-17.22
-19.68
-22.05
-24.51
-27.27
-30.42
-33.86
-37.24
-40.04
-41.74
-41.90
-40.33
-37.11
-32.55
-27.13
-21.40
-15.82
-10.72
-6.27
-2.49
0.69
3.37
5.64
7.61
9.29
10.72
11.91
12.84
13.57
14.15
14.63
15.10
15.64
16.28
17.07
17.94
18.78
19.48
19.91
20.04
19.95
19.75
19.54
19.39
19.26
19.05
18.64
17.87
16.65
14.93
12.84
10.59
8.46
6.69
5.34
4.25
3.13
1.71
-0.11
-2.21
-4.42
-6.59
-8.72
-10.92
-13.28
-15.82
-18.44
-21.04
-23.59
-26.11
-28.61
-30.89
-32.55
-33.05
-31.95
-29.11
-24.81
-19.68
-14.40
-9.50
-5.25
-1.65
1.39
3.91
5.86
7.15
7.78
7.90
7.83
7.90
8.31
9.01
9.79
10.43
10.77
10.87
10.92
11.12
11.56
12.15
12.65
12.87
12.73
12.28
11.68
11.02
10.24
9.22
7.84
6.08
4.13
2.23
0.54
-0.95
-2.45
-4.23
-6.42
-8.91
-11.44
-13.74
-15.72
-17.58
-19.64
-22.14
-25.01
-27.88
-30.11
-31.09
-30.49
-28.31
-24.84
-20.52
-15.72
-10.71
-5.69
-0.82
3.64
7.41
10.25
12.07
12.99
13.31
13.39
13.52
13.77
14.03
14.14
14.02
13.75
13.55
13.67
14.22
15.14
16.19
17.10
17.67
17.84
17.65
17.15
16.37
15.27
13.79
11.93
9.82
7.59
5.40
3.30
1.23
-0.95
-3.31
-5.82
-8.34
-10.68
-12.76
-14.68
-16.66
-19.02
-21.91
-25.31
-28.97
-32.44
-35.22
-36.81
-36.82
-35.10
-31.73
-27.07
-21.68
-16.19
-11.06
-6.50
-2.46
1.23
4.73
8.00
10.86
13.06
14.46
15.17
15.47
15.70
16.12
16.77
17.58
18.39
19.17
19.94
20.81
21.84
22.97
24.06
24.89
25.27
25.10
24.42
23.36
22.16
21.01
20.01
19.10
18.07
16.69
14.85
12.63
10.22
7.86
5.65
3.54
1.39
-0.86
-3.14
-5.24
-7.07
-8.68
-10.36
-12.43
-15.08
-18.25
-21.70
-25.21
-28.75
-32.45
-36.38
-40.31
-43.61
-45.40
-44.94
-41.96
-36.84
-30.44
-23.72
-17.42
-11.80
-6.80
-2.18
2.20
6.28
9.88
12.78
14.88
16.31
17.30
18.11
18.91
19.66
20.23
20.51
20.55
20.58
20.89
21.69
22.95
24.41
25.69
26.48
26.64
26.26
25.58
24.77
23.94
23.01
21.82
20.29
18.43
16.42
14.47
12.78
11.33
10.01
8.57
6.83
4.72
2.32
-0.21
-2.72
-5.08
-7.27
-9.25
-11.04
-12.75
-14.55
-16.74
-19.60
-23.20
-27.33
-31.54
-35.15
-37.52
-38.22
-37.07
-34.23
-30.01
-24.86
-19.26
-13.58
-8.11
-3.00
1.63
5.73
9.18
11.80
13.47
14.18
14.17
13.86
13.71
14.05
14.92
16.13
17.36
18.37
19.07
19.53
19.88
20.20
20.52
20.81
21.02
21.10
20.94
20.36
19.22
17.50
15.36
13.11
11.08
9.42
8.05
6.70
5.08
3.06
0.74
-1.69
-4.06
-6.35
-8.70
-11.29
-14.22
-17.43
-20.75
-23.96
-26.98
-29.72
-32.13
-33.96
-34.80
-34.20
-31.83
-27.70
-22.21
-16.00
-9.74
-3.93
1.22
5.66
9.40
12.41
14.57
15.86
16.39
16.47
16.50
16.73
17.20
17.69
17.96
17.92
17.72
17.76
18.37
19.63
21.23
22.63
23.29
22.96
21.75
20.07
18.38
16.92
15.72
14.53
13.14
11.41
9.39
7.23
5.06
2.99
1.01
-0.98
-3.10
-5.44
-7.98
-10.61
-13.13
-15.47
-17.68
-20.00
-22.78
-26.27
-30.43
-34.91
-39.11
-42.32
-44.00
-43.82
-41.74
-37.92
-32.71
-26.57
-20.01
-13.58
-7.71
-2.62
1.71
5.43
8.75
11.75
14.39
16.57
18.18
19.23
19.86
20.21
20.44
20.62
20.83
21.12
21.60
22.31
23.25
24.26
25.10
25.56
25.54
25.12
24.41
23.53
22.48
21.16
19.46
17.40
15.08
12.72
10.50
8.50
6.72
5.07
3.45
1.78
-0.01
-2.02
-4.28
-6.77
-9.37
-11.88
-14.15
-16.16
-18.05
-20.08
-22.55
-25.67
-29.45
-33.70
-37.93
-41.52
-43.75
-44.05
-42.12
-38.09
-32.42
-25.83
-19.05
-12.63
-6.90
-1.92
2.37
6.06
9.21
11.81
13.82
15.23
16.09
16.50
16.62
16.58
16.50
16.48
16.59
16.91
17.46
18.19
19.00
19.72
20.20
20.39
20.30
20.02
19.59
19.01
18.25
17.26
16.00
14.52
12.84
11.00
9.02
6.94
4.83
2.77
0.84
-0.98
-2.74
-4.52
-6.39
-8.33
-10.32
-12.35
-14.52
-17.03
-20.07
-23.69
-27.69
-31.58
-34.63
-36.13
-35.55
-32.78
-28.18
-22.42
-16.25
-10.29
-4.85
-0.02
4.22
7.86
10.80
12.89
14.07
14.47
14.37
14.12
13.95
13.91
13.91
13.85
13.69
13.58
13.75
14.37
15.46
16.79
18.00
18.76
18.86
18.34
17.41
16.31
15.24
14.22
13.14
11.84
10.21
8.26
6.11
3.93
1.82
-0.21
-2.26
-4.42
-6.71
-9.07
-11.37
-13.53
-15.55
-17.60
-19.90
-22.68
-26.03
-29.91
-34.08
-38.11
-41.48
-43.64
-44.15
-42.77
-39.61
-35.06
-29.73
-24.23
-19.02
-14.36
-10.33
-6.88
-3.92
-1.41
0.73
2.59
4.29
5.94
7.60
9.27
10.98
12.75
14.69
16.94
19.64
22.79
26.25
29.76
32.99
35.65
37.57
38.70
39.10
38.81
37.86
36.26
34.07
31.45
28.68
26.02
23.63
21.48
19.36
17.08
14.53
11.89
9.43
7.43
5.95
4.79
3.57
1.97
-0.10
-2.47
-4.82
-6.86
-8.54
-10.09
-11.93
-14.39
-17.56
-21.18
-24.65
-27.27
-28.44
-27.89
-25.65
-22.00
-17.26
-11.71
-5.54
1.02
7.65
13.93
19.46
24.05
27.81
31.09
34.28
37.60
40.96
44.08
46.70
48.74
50.35
51.81
53.35
54.97
56.46
57.56
58.01
57.74
56.85
55.52
53.90
52.06
49.90
47.33
44.24
40.70
36.88
33.06
29.47
26.18
23.02
19.61
15.50
10.37
4.20
-2.71
-9.89
-16.88
-23.50
-29.82
-36.08
-42.50
-49.12
-55.78
-62.18
-68.00
-72.93
-76.64
-78.79
-79.04
-77.19
-73.29
-67.72
-61.09
-53.99
-46.94
-40.14
-33.61
-27.22
-20.84
-14.42
-8.15
-2.41
2.23
5.32
6.68
6.58
5.68
4.81
4.67
5.61
7.50
9.94
12.42
14.54
16.02
16.64
16.20
14.50
11.47
7.26
2.24
-3.10
-8.38
-13.35
-17.95
-22.17
-25.95
-29.17
-31.67
-33.38
-34.38
-34.74
-34.55
-33.68
-31.97
-29.23
-25.37
-20.42
-14.47
-7.72
-0.50
6.70
13.27
18.56
22.13
23.88
24.07
23.23
21.89
20.39
18.80
16.94
14.56
11.53
7.99
4.37
1.19
-1.22
-2.85
-4.04
-5.23
-6.69
-8.29
-9.66
-10.44
-10.58
-10.45
-10.61
-11.40
-12.69
-13.77
-13.69
-11.67
-7.46
-1.39
5.76
13.11
19.99
25.95
30.80
34.39
36.58
37.17
35.98
33.01
28.50
22.94
16.83
10.49
3.93
-3.06
-10.61
-18.40
-25.53
-30.83
-33.35
-32.97
-30.55
-27.60
-25.61
-25.42
-26.95
-29.43
-32.02
-34.27
-36.20
-38.18
-40.49
-43.16
-45.88
-48.31
-50.24
-51.69
-52.86
-53.93
-54.90
-55.59
-55.66
-54.85
-53.09
-50.57
-47.61
-44.51
-41.39
-38.19
-34.74
-30.88
-26.58
-21.84
-16.70
-11.20
-5.33
0.80
6.92
12.65
17.54
21.23
23.52
24.36
23.81
21.97
18.99
15.05
10.41
5.38
0.37
-4.12
-7.60
-9.62
-9.94
-8.54
-5.79
-2.32
1.13
3.94
5.78
6.58
6.51
5.74
4.41
2.59
0.36
-2.13
-4.65
-6.87
-8.42
-8.89
-7.95
-5.45
-1.49
3.54
9.01
14.25
18.70
22.09
24.34
25.57
25.88
25.34
23.89
21.41
17.72
12.65
6.15
-1.69
-10.53
-19.86
-29.10
-37.70
-45.27
-51.49
-56.09
-58.85
-59.68
-58.66
-56.07
-52.29
-47.61
-42.15
-35.91
-28.85
-21.12
-13.09
-5.27
1.92
8.28
13.89
18.93
23.64
28.07
32.15
35.76
38.84
41.41
43.54
45.26
46.41
46.73
45.97
44.15
41.58
38.87
36.57
34.96
33.95
33.17
32.25
31.02
29.63
28.37
27.48
26.96
26.48
25.61
23.94
21.28
17.71
13.48
8.83
3.92
-1.19
-6.56
-12.15
-17.86
-23.56
-29.13
-34.52
-39.75
-44.75
-49.22
-52.57
-54.15
-53.41
-50.20
-44.88
-38.19
-30.98
-23.99
-17.70
-12.35
-8.04
-4.79
-2.58
-1.24
-0.58
-0.36
-0.42
-0.78
-1.53
-2.72
-4.23
-5.70
-6.69
-6.82
-5.95
-4.14
-1.62
1.35
4.54
7.73
10.58
12.67
13.64
13.30
11.80
9.63
7.48
5.95
5.36
5.66
6.43
7.12
7.20
6.42
4.79
2.61
0.23
-2.05
-4.12
-6.12
-8.31
-11.04
-14.50
-18.66
-23.16
-27.39
-30.59
-32.05
-31.29
-28.17
-22.97
-16.30
-8.93
-1.57
5.22
11.19
16.34
20.83
24.84
28.49
31.79
34.66
37.02
38.83
40.16
41.20
42.13
43.11
44.17
45.27
46.34
47.36
48.39
49.58
51.03
52.75
54.57
56.18
57.18
57.26
56.30
54.41
51.91
49.17
46.50
43.95
41.39
38.59
35.38
31.76
27.92
24.10
20.48
17.07
13.68
10.00
5.64
0.26
-6.35
-14.12
-22.62
-31.06
-38.46
-43.89
-46.76
-46.99
-45.00
-41.53
-37.33
-33.01
-28.92
-25.20
-21.98
-19.33
-17.37
-16.10
-15.42
-15.11
-14.86
-14.47
-13.90
-13.28
-12.75
-12.40
-12.08
-11.55
-10.62
-9.26
-7.68
-6.18
-5.01
-4.29
-3.97
-3.98
-4.31
-5.01
-6.09
-7.45
-8.86
-10.04
-10.91
-11.68
-12.78
-14.62
-17.34
-20.70
-24.13
-27.02
-29.04
-30.27
-31.21
-32.51
-34.67
-37.85
-41.76
-45.83
-49.28
-51.47
-51.90
-50.35
-46.76
-41.24
-34.04
-25.59
-16.48
-7.44
0.81
7.81
13.41
17.78
21.28
24.14
26.42
27.99
28.71
28.62
28.03
27.38
27.05
27.24
27.83
28.61
29.39
30.12
30.88
31.69
32.40
32.70
32.27
30.97
28.99
26.74
24.60
22.76
21.10
19.32
17.16
14.49
11.45
8.26
5.12
2.08
-0.86
-3.80
-6.75
-9.72
-12.67
-15.64
-18.76
-22.24
-26.29
-30.99
-36.14
-41.25
-45.59
-48.41
-49.11
-47.42
-43.36
-37.28
-29.70
-21.23
-12.51
-4.12
3.41
9.67
14.46
17.73
19.57
20.21
19.93
19.03
17.82
16.56
15.45
14.60
14.08
13.91
14.08
14.63
15.58
16.99
18.96
21.53
24.63
27.98
31.14
33.64
35.15
35.62
35.26
34.47
33.57
32.69
31.76
30.57
28.93
26.77
24.14
21.15
17.88
14.30
10.31
5.81
0.75
-4.85
-10.91
-17.30
-23.83
-30.16
-35.84
-40.20
-42.55
-42.35
-39.36
-33.82
-26.39
-17.92
-9.28
-1.11
6.17
12.41
17.47
21.27
23.68
24.68
24.48
23.48
22.17
20.97
20.02
19.22
18.34
17.25
16.05
15.04
14.56
14.76
15.41
16.07
16.25
15.70
14.47
12.86
11.12
9.26
7.07
4.21
0.53
-3.80
-8.29
-12.36
-15.66
-18.21
-20.40
-22.79
-25.84
-29.72
-34.29
-39.13
-43.70
-47.39
-49.57
-49.61
-47.01
-41.61
-33.66
-23.93
-13.47
-3.39
5.50
12.85
18.75
23.48
27.35
30.44
32.62
33.71
33.64
32.61
31.05
29.51
28.49
28.24
28.71
29.62
30.57
31.21
31.32
30.91
30.17
29.42
28.96
28.97
29.42
30.08
30.57
30.53
29.85
28.73
27.72
27.46
28.41
30.38
32.43
32.93
30.02
22.08
8.27
-11.09
-34.37
-58.69
-80.41
-95.90
-102.54
-99.42
-87.65
-69.87
-49.33
-28.84
-10.19
5.82
18.88
28.41
33.25
32.00
23.67
8.27
-12.98
-38.06
-64.83
-91.62
-117.50
-141.96
-164.27
-182.93
-195.51
-199.19
-191.69
-172.15
-141.45
-102.06
-57.39
-11.26
32.51
70.33
99.23
117.52
125.46
125.49
121.37
116.51
112.40
107.98
100.71
88.61
72.14
54.55
40.45
33.38
33.85
39.01
44.13
44.93
39.52
28.83
15.74
3.50
-5.24
-8.58
-5.03
6.76
27.73
57.70
94.69
134.76
172.88
204.14
224.93
233.49
229.75
214.84
190.66
159.80
125.57
91.75
61.95
38.63
22.47
12.31
5.94
1.05
-3.76
-8.87
-13.91
-18.44
-22.38
-26.08
-29.88
-33.74
-37.08
-39.07
-39.24
-37.94
-36.43
-36.43
-39.27
-45.36
-53.82
-62.95
-70.87
-76.18
-78.32
-77.44
-74.03
-68.63
-61.76
-54.09
-46.57
-40.28
-36.19
-34.69
-35.36
-37.19
-38.90
-39.47
-38.43
-35.89
-32.36
-28.51
-24.91
-21.91
-19.62
-17.94
-16.66
-15.47
-14.16
-12.59
-10.81
-9.00
-7.32
-5.93
-4.87
-4.10
-3.57
-3.28
-3.26
-3.66
-4.74
-6.89
-10.59
-16.19
-23.69
-32.53
-41.56
-49.29
-54.35
-55.90
-53.95
-49.25
-43.05
-36.64
-31.01
-26.60
-23.38
-20.94
-18.76
-16.43
-13.80
-11.01
-8.37
-6.16
-4.48
-3.25
-2.27
-1.29
-0.15
1.31
3.26
5.81
8.98
12.56
16.08
18.92
20.55
20.70
19.50
17.33
14.69
11.98
9.43
7.12
4.97
2.86
0.57
-2.15
-5.56
-9.70
-14.34
-18.90
-22.58
-24.70
-24.85
-23.08
-19.72
-15.28
-10.14
-4.56
1.26
7.09
12.62
17.56
21.75
25.20
28.06
30.44
32.29
33.45
33.79
33.33
32.32
31.17
30.29
29.90
30.00
30.37
30.75
30.97
30.95
30.69
30.15
29.25
27.86
25.94
23.59
21.04
18.58
16.36
14.31
12.16
9.63
6.52
2.95
-0.80
-4.40
-7.68
-10.77
-13.95
-17.53
-21.67
-26.29
-31.07
-35.61
-39.47
-42.23
-43.51
-43.03
-40.65
-36.51
-31.03
-24.82
-18.56
-12.71
-7.41
-2.61
1.85
5.99
9.69
12.71
14.89
16.27
17.09
17.70
18.32
19.09
19.96
20.80
21.53
22.09
22.53
22.89
23.22
23.46
23.56
23.36
22.72
21.58
19.96
17.99
15.83
13.61
11.32
8.90
6.28
3.54
0.86
-1.56
-3.62
-5.46
-7.33
-9.61
-12.47
-15.87
-19.62
-23.48
-27.22
-30.69
-33.65
-35.76
-36.55
-35.59
-32.70
-28.08
-22.29
-16.04
-9.99
-4.52
0.21
4.26
7.67
10.46
12.60
14.10
15.10
15.79
16.37
16.92
17.38
17.65
17.67
17.50
17.32
17.31
17.52
17.84
18.03
17.86
17.20
16.08
14.64
13.04
11.39
9.71
8.01
6.28
4.48
2.56
0.45
-1.90
-4.51
-7.21
-9.79
-12.03
-13.92
-15.66
-17.62
-20.23
-23.65
-27.78
-32.12
-35.96
-38.57
-39.42
-38.28
-35.28
-30.81
-25.40
-19.63
-13.99
-8.76
-4.03
0.26
4.19
7.75
10.82
13.22
14.85
15.74
16.05
15.96
15.65
15.24
14.90
14.89
15.46
16.71
18.47
20.30
21.69
22.28
22.08
21.33
20.38
19.41
18.40
17.10
15.33
13.04
10.40
7.75
5.38
3.43
1.85
0.42
-1.12
-2.95
-5.13
-7.58
-10.16
-12.74
-15.21
-17.50
-19.53
-21.26
-22.81
-24.44
-26.57
-29.46
-33.09
-36.95
-40.15
-41.76
-41.12
-38.15
-33.32
-27.38
-21.11
-15.04
-9.42
-4.37
0.04
3.75
6.68
8.87
10.46
11.70
12.83
14.00
15.21
16.30
17.12
17.57
17.68
17.65
17.68
17.94
18.41
18.95
19.34
19.42
19.17
18.69
18.14
17.62
17.16
16.60
15.80
14.67
13.24
11.62
9.98
8.38
6.75
4.97
2.90
0.65
-1.55
-3.38
-4.74
-5.77
-6.85
-8.36
-10.49
-13.08
-15.75
-18.14
-20.11
-21.83
-23.69
-26.11
-29.27
-33.05
-36.94
-40.25
-42.21
-42.28
-40.21
-36.23
-30.87
-24.81
-18.68
-12.87
-7.62
-3.02
0.83
3.88
6.16
7.83
9.14
10.33
11.50
12.63
13.59
14.30
14.79
15.23
15.75
16.42
17.21
18.04
18.90
19.78
20.67
21.43
21.83
21.63
20.81
19.62
18.41
17.53
17.04
16.68
16.01
14.62
12.38
9.50
6.41
3.57
1.35
-0.22
-1.32
-2.30
-3.51
-5.19
-7.40
-9.99
-12.70
-15.26
-17.46
-19.26
-20.75
-22.13
-23.68
-25.68
-28.29
-31.46
-34.81
-37.67
-39.31
-39.16
-37.10
-33.46
-28.83
-23.82
-18.83
-13.95
-9.06
-4.15
0.63
4.90
8.23
10.33
11.20
11.14
10.57
9.95
9.51
9.36
9.50
9.95
10.76
12.00
13.64
15.46
17.08
18.09
18.28
17.74
16.85
16.02
15.52
15.30
15.08
14.52
13.41
11.81
9.96
8.11
6.40
4.83
3.29
1.72
0.16
-1.32
-2.70
-4.11
-5.79
-7.93
-10.55
-13.46
-16.29
-18.74
-20.74
-22.56
-24.63
-27.27
-30.45
-33.69
-36.26
-37.40
-36.66
-34.08
-30.03
-25.08
-19.75
-14.37
-9.16
-4.22
0.32
4.28
7.54
10.01
11.76
12.96
13.83
14.54
15.14
15.59
15.79
15.72
15.49
15.26
15.27
15.61
16.23
16.98
17.65
18.08
18.20
17.99
17.47
16.66
15.62
14.44
13.26
12.19
11.26
10.35
9.33
8.04
6.45
4.60
2.57
0.43
-1.82
-4.17
-6.56
-8.91
-11.08
-12.99
-14.71
-16.39
-18.24
-20.39
-22.87
-25.64
-28.58
-31.56
-34.37
-36.68
-38.05
-38.02
-36.35
-33.08
-28.58
-23.35
-17.84
-12.34
-6.95
-1.79
2.95
7.02
10.22
12.56
14.28
15.63
16.76
17.58
17.89
17.55
16.72
15.75
15.09
15.03
15.58
16.50
17.51
18.42
19.15
19.74
20.16
20.35
20.20
19.72
19.01
18.23
17.45
16.63
15.56
14.04
11.99
9.60
7.20
5.17
3.65
2.54
1.49
0.06
-2.01
-4.71
-7.72
-10.63
-13.08
-14.96
