1540569823.00
64.000000
-0.00
-0.00
-0.00
-0.00
-0.00
-0.00
-0.00
-0.00
-0.00
-0.00
0.00
0.01
0.01
-0.00
-0.03
-0.05
-0.05
0.00
0.13
0.36
0.66
1.01
1.37
1.72
2.06
2.40
2.79
3.24
3.80
4.42
5.06
5.66
6.20
6.68
7.15
7.68
8.31
9.14
10.09
11.04
11.88
12.56
13.14
13.76
14.65
15.96
17.91
20.32
22.90
25.38
27.58
29.57
31.68
34.32
37.81
42.54
48.15
54.10
59.83
64.97
69.58
74.14
79.34
85.71
93.76
103.00
112.62
121.73
129.77
136.75
143.30
150.75
157.77
166.64
177.95
191.79
206.97
220.57
228.25
225.36
208.53
176.87
132.76
80.05
23.07
-34.94
-92.44
-149.16
-205.23
-260.37
-313.74
-363.87
-409.83
-450.91
-486.50
-515.74
-537.23
-549.22
-549.96
-538.37
-514.21
-478.67
-433.88
-382.45
-327.02
-269.84
-212.63
-156.66
-102.95
-52.37
-5.90
35.58
71.43
101.35
125.50
144.38
158.69
169.15
176.37
180.75
182.57
182.07
179.51
175.23
169.65
163.18
156.15
148.81
141.30
133.69
126.02
118.33
110.69
103.16
95.80
88.68
81.83
75.25
68.95
62.95
57.25
51.86
46.78
42.03
37.59
33.45
29.61
26.07
22.81
19.83
17.11
14.67
12.48
10.54
8.83
7.35
6.07
4.97
4.05
3.27
2.62
2.09
1.65
1.30
1.01
0.79
0.61
0.47
0.37
0.28
0.22
0.18
0.15
0.12
0.11
0.11
0.12
0.13
0.15
0.18
0.21
0.25
0.29
0.33
0.38
0.43
0.48
0.53
0.59
0.65
0.71
0.77
0.83
0.90
0.99
1.09
1.21
1.33
1.43
1.49
1.53
1.57
1.63
1.75
1.94
2.20
2.50
2.80
3.09
3.34
3.61
3.92
4.33
4.86
5.47
6.13
6.75
7.29
7.75
8.19
8.71
9.41
10.36
11.48
12.64
13.66
14.41
14.88
15.24
15.71
16.54
17.79
19.29
20.61
21.23
20.74
18.98
16.19
12.79
9.25
5.85
2.39
-1.57
-6.56
-12.88
-20.35
-28.24
-35.51
-41.31
-45.17
-47.30
-48.39
-49.30
-50.72
-53.12
-56.71
-61.35
-66.27
-69.89
-69.97
-64.39
-52.22
-34.58
-14.58
3.81
17.34
24.74
27.00
26.43
25.26
24.54
23.94
22.45
19.42
15.16
10.88
7.93
7.03
7.97
9.80
11.24
11.45
10.32
8.47
6.81
6.05
6.31
7.33
8.72
10.18
11.62
13.13
14.80
16.64
18.65
20.96
23.82
27.58
32.30
37.61
42.81
47.25
50.61
53.07
55.22
56.74
57.78
58.38
58.49
58.10
57.21
55.79
53.65
50.34
45.36
38.53
30.14
21.01
12.20
4.64
-1.34
-6.10
-10.49
-15.29
-20.73
-26.59
-32.37
-37.61
-42.14
-46.12
-49.73
-53.04
-55.83
-57.67
-58.14
-56.99
-54.23
-50.03
-44.71
-38.67
-32.44
-26.53
-21.36
-17.23
-14.21
-12.26
-11.18
-10.74
-10.64
-10.57
-10.21
-9.32
-7.84
-5.80
-3.47
-1.10
1.07
2.90
4.36
5.51
6.49
7.41
8.35
9.28
10.08
10.55
10.59
10.16
9.30
8.08
6.50
4.54
2.19
-0.33
-2.68
-4.39
-5.07
-4.59
-3.16
-1.22
0.70
2.19
3.09
3.48
3.56
3.57
3.65
3.84
3.99
3.94
3.43
2.28
0.48
-1.79
-4.06
-5.81
-6.54
-6.15
-4.94
-3.57
-2.78
-3.11
-4.70
-7.31
-10.62
-14.31
-18.29
-22.57
-27.10
-31.65
-35.81
-39.19
-41.41
-42.37
-42.07
-40.59
-37.96
-34.09
-28.86
-22.19
-14.27
-5.62
2.91
10.39
16.07
19.68
21.49
22.15
22.49
23.09
24.23
25.83
27.63
29.30
30.64
31.44
31.58
30.99
29.63
27.67
25.36
23.11
21.25
20.04
19.53
19.55
19.79
19.86
19.44
18.28
16.20
13.06
8.79
3.52
-2.40
-8.22
-13.13
-16.40
-17.78
-17.55
-16.41
-15.14
-14.24
-13.85
-13.81
-13.85
-13.79
-13.62
-13.48
-13.45
-13.54
-13.59
-13.45
-12.96
-12.20
-11.51
-11.33
-12.02
-13.58
-15.63
-17.49
-18.63
-18.86
-18.47
-17.90
-17.48
-17.16
-16.62
-15.58
-14.18
-13.01
-12.87
-14.34
-17.35
-21.22
-24.90
-27.46
-28.36
-27.57
-25.30
-21.90
-17.61
-12.59
-7.04
-1.20
4.54
9.81
14.26
17.69
20.08
21.51
22.09
21.93
21.10
19.72
17.96
16.12
14.51
13.38
12.67
12.08
11.15
9.50
7.08
4.20
1.33
-1.20
-3.34
-5.34
-7.50
-9.93
-12.54
-15.09
-17.49
-19.78
-22.09
-24.38
-26.35
-27.38
-26.87
-24.46
-20.24
-14.66
-8.25
-1.40
5.73
12.97
20.07
26.55
31.93
35.91
38.50
39.94
40.51
40.22
38.91
36.37
32.66
28.20
23.66
19.72
16.79
14.87
13.70
12.92
12.19
11.30
10.08
8.36
6.04
3.12
-0.20
-3.61
-6.78
-9.56
-12.01
-14.38
-17.00
-20.07
-23.52
-26.94
-29.65
-30.89
-30.09
-27.16
-22.56
-17.20
-12.08
-7.89
-4.88
-2.79
-1.20
0.18
1.37
2.15
2.26
1.65
0.42
-1.10
-2.56
-3.76
-4.58
-5.00
-5.05
-4.68
-3.83
-2.50
-0.75
1.21
3.10
4.58
5.40
5.46
4.82
3.69
2.29
0.87
-0.43
-1.58
-2.68
-3.93
-5.60
-7.95
-11.15
-15.18
-19.72
-24.13
-27.53
-29.04
-28.08
-24.56
-18.99
-12.29
-5.52
0.54
5.58
9.72
13.24
16.33
18.93
20.80
21.69
21.56
20.61
19.24
17.89
16.91
16.37
16.14
15.96
15.52
14.62
13.24
11.53
9.78
8.27
7.13
6.28
5.40
4.19
2.44
0.17
-2.38
-4.98
-7.49
-9.95
-12.53
-15.35
-18.30
-21.07
-23.11
-23.93
-23.10
-20.39
-15.77
-9.47
-2.04
5.71
12.91
18.77
22.92
25.40
26.61
26.99
26.89
26.43
25.61
24.48
23.16
21.88
20.83
20.07
19.42
18.67
17.65
16.31
14.72
13.00
11.18
9.22
7.07
4.66
1.98
-0.96
-4.19
-7.78
-11.76
-16.04
-20.37
-24.29
-27.30
-29.01
-29.13
-27.60
-24.46
-19.89
-14.19
-7.81
-1.34
4.54
9.31
12.79
15.13
16.76
18.03
19.05
19.63
19.44
18.26
16.19
13.66
11.21
9.27
7.96
7.14
6.53
5.91
5.21
4.48
3.72
2.85
1.66
-0.06
-2.40
-5.26
-8.41
-11.67
-14.96
-18.39
-22.07
-25.93
-29.57
-32.34
-33.45
-32.36
-28.95
-23.58
-16.96
-9.91
-3.12
2.98
8.22
12.63
16.27
19.22
21.52
23.20
24.27
24.80
24.88
24.58
23.90
22.83
21.38
19.63
17.80
16.09
14.63
13.37
12.19
10.92
9.46
7.86
6.16
4.33
2.29
-0.14
-3.01
-6.25
-9.69
-13.23
-16.92
-20.91
-25.35
-30.10
-34.62
-38.11
-39.66
-38.66
-34.98
-29.10
-21.86
-14.22
-6.98
-0.60
4.82
9.40
13.33
16.79
19.76
22.17
23.90
24.90
25.17
24.92
24.37
23.70
23.05
22.36
21.56
20.58
19.45
18.28
17.16
16.10
14.96
13.53
11.59
9.04
5.94
2.45
-1.16
-4.55
-7.44
-9.70
-11.36
-12.67
-14.12
-16.23
-19.40
-23.68
-28.63
-33.38
-36.83
-37.98
-36.32
-31.90
-25.40
-17.83
-10.19
-3.18
2.87
7.95
12.17
15.62
18.24
19.93
20.59
20.30
19.38
18.24
17.37
17.06
17.29
17.86
18.46
18.85
18.97
18.86
18.56
18.02
17.05
15.41
13.03
10.01
6.61
3.16
-0.09
-2.96
-5.42
-7.54
-9.54
-11.79
-14.70
-18.56
-23.43
-28.97
-34.52
-39.20
-42.14
-42.74
-40.75
-36.29
-29.82
-21.96
-13.50
-5.31
1.81
7.25
10.73
12.42
12.82
12.58
12.24
12.06
12.02
12.02
12.00
12.10
12.57
13.58
15.06
16.68
18.02
18.69
18.54
17.63
16.10
14.08
11.61
8.66
5.16
1.18
-3.08
-7.29
-11.21
-14.72
-17.93
-21.01
-24.01
-26.65
-28.40
-28.59
-26.69
-22.60
-16.66
-9.54
-2.09
4.90
10.80
15.24
18.08
19.50
19.80
19.48
18.94
18.43
17.99
17.50
16.89
16.19
15.57
15.24
15.32
15.76
16.35
16.81
16.84
16.18
14.60
11.97
8.27
3.63
-1.60
-6.94
-11.79
-15.69
-18.41
-20.15
-21.39
-22.71
-24.43
-26.32
-27.70
-27.65
-25.52
-21.24
-15.41
-8.99
-2.89
2.42
6.92
10.88
14.52
17.84
20.70
22.96
24.63
25.76
26.34
26.26
25.35
23.61
21.32
18.94
16.90
15.31
14.01
12.66
11.04
9.17
7.19
5.14
2.75
-0.41
-4.77
-10.36
-16.72
-23.07
-28.50
-32.37
-34.40
-34.81
-34.14
-33.11
-32.34
-31.99
-31.70
-30.63
-27.85
-22.85
-15.82
-7.69
0.34
7.27
12.77
17.09
20.69
23.89
26.60
28.44
29.04
28.36
26.78
24.97
23.58
22.99
23.17
23.79
24.40
24.60
24.21
23.15
21.46
19.15
16.27
12.88
9.13
5.22
1.37
-2.23
-5.45
-8.31
-10.89
-13.36
-16.00
-19.07
-22.68
-26.64
-30.36
-32.94
-33.52
-31.60
-27.27
-21.23
-14.52
-8.16
-2.93
0.85
3.22
4.44
4.78
4.43
3.51
2.08
0.28
-1.68
-3.45
-4.72
-5.26
-5.01
-4.10
-2.73
-1.00
1.02
3.33
5.85
8.29
10.26
11.32
11.23
10.00
7.92
5.41
2.80
0.20
-2.57
-5.91
-10.21
-15.56
-21.51
-27.12
-31.16
-32.62
-31.01
-26.58
-20.15
-12.76
-5.34
1.49
7.42
12.32
16.19
19.03
20.91
21.97
22.40
22.37
22.01
21.44
20.73
19.98
19.20
18.32
17.24
15.93
14.51
13.23
12.34
11.79
11.21
10.06
7.88
4.61
0.66
-3.37
-6.87
-9.57
-11.56
-13.18
-14.86
-16.95
-19.67
-23.00
-26.63
-29.92
-32.04
-32.17
-29.81
-25.06
-18.61
-11.52
-4.84
0.76
5.13
8.51
11.30
13.74
15.76
17.15
17.71
17.55
17.03
16.66
16.76
17.33
18.08
18.56
18.52
18.01
17.30
16.76
16.62
16.78
16.87
16.35
14.74
11.86
7.90
3.39
-1.02
-4.80
-7.71
-9.87
-11.54
-13.07
-14.71
-16.66
-19.10
-22.21
-25.95
-29.98
-33.62
-35.91
-36.01
-33.45
-28.41
-21.62
-14.10
-6.84
-0.52
4.57
8.47
11.37
13.46
14.89
15.79
16.34
16.80
17.34
18.02
18.67
19.00
18.74
17.83
16.50
15.16
14.22
13.85
13.91
14.02
13.74
12.75
10.97
8.52
5.67
2.65
-0.32
-3.07
-5.47
-7.44
-8.97
-10.20
-11.44
-13.05
-15.34
-18.42
-22.06
-25.73
-28.78
-30.48
-30.29
-27.94
-23.54
-17.56
-10.83
-4.24
1.41
5.72
8.78
11.10
13.26
15.63
18.15
20.38
21.78
22.01
21.14
19.56
17.84
16.43
15.53
15.07
14.84
14.70
14.56
14.44
14.30
13.99
13.24
11.84
9.70
6.99
4.09
1.46
-0.56
-1.85
-2.57
-3.06
-3.69
-4.72
-6.30
-8.39
-10.80
-13.27
-15.46
-17.02
-17.61
-16.98
-15.05
-11.93
-7.95
-3.61
0.54
4.05
6.61
8.12
8.62
8.21
7.00
5.10
2.68
0.03
-2.43
-4.28
-5.33
-5.62
-5.50
-5.34
-5.33
-5.31
-4.82
-3.48
-1.31
1.22
3.35
4.42
4.21
3.00
1.32
-0.39
-1.99
-3.61
-5.48
-7.77
-10.49
-13.63
-17.15
-20.98
-24.82
-28.09
-30.06
-30.09
-27.99
-24.10
-19.18
-14.02
-9.17
-4.79
-0.77
3.01
6.49
9.38
11.36
12.21
11.99
10.99
9.61
8.19
6.93
5.95
5.28
4.92
4.88
5.00
5.00
4.55
3.39
1.53
-0.71
-2.85
-4.46
-5.33
-5.60
-5.71
-6.18
-7.44
-9.58
-12.33
-15.06
-16.95
-17.33
-15.85
-12.74
-8.63
-4.32
-0.43
2.86
5.74
8.58
11.61
14.74
17.57
19.58
20.38
19.94
18.52
16.62
14.77
13.35
12.54
12.24
12.27
12.36
12.31
12.05
11.54
10.81
9.81
8.48
6.75
4.64
2.23
-0.37
-3.08
-5.91
-8.84
-11.78
-14.46
-16.42
-17.12
-16.09
-13.18
-8.57
-2.90
2.95
8.04
11.66
13.52
13.79
13.03
11.95
11.13
10.84
10.97
11.20
11.15
10.56
9.37
7.70
5.79
3.87
2.13
0.65
-0.62
-1.75
-2.84
-3.89
-4.95
-6.10
-7.50
-9.44
-12.21
-15.88
-20.27
-24.87
-28.94
-31.70
-32.59
-31.37
-28.15
-23.34
-17.44
-11.02
-4.56
1.55
6.99
11.54
15.07
17.56
19.09
19.80
19.82
19.28
18.30
17.02
15.59
14.12
12.67
11.21
9.74
8.26
6.86
5.58
4.36
2.96
1.13
-1.26
-4.14
-7.24
-10.23
-12.99
-15.60
-18.35
-21.44
-24.81
-28.04
-30.50
-31.55
-30.79
-28.20
-24.10
-19.06
-13.73
-8.65
-4.14
-0.29
2.97
5.79
8.24
10.26
11.76
12.66
13.03
13.11
13.16
13.42
13.83
14.20
14.19
13.56
12.29
10.63
8.96
7.62
6.74
6.15
5.51
4.46
2.90
1.00
-0.87
-2.35
-3.38
-4.19
-5.21
-6.83
-9.21
-12.21
-15.49
-18.60
-21.06
-22.54
-22.80
-21.80
-19.62
-16.51
-12.84
-8.94
-5.14
-1.67
1.37
3.87
5.81
7.20
8.09
8.56
8.65
8.37
7.71
6.70
5.44
4.14
3.02
2.27
1.99
2.13
2.50
2.83
2.76
2.07
0.71
-1.10
-2.97
-4.50
-5.40
-5.67
-5.54
-5.43
-5.82
-7.06
-9.31
-12.43
-15.95
-19.14
-21.17
-21.33
-19.28
-15.22
-9.74
-3.70
2.09
7.10
11.10
14.09
16.19
17.62
18.55
19.16
19.55
19.80
19.87
19.76
19.41
18.80
17.97
16.96
15.86
14.77
13.76
12.85
11.98
10.97
9.65
7.87
5.65
3.10
0.43
-2.16
-4.55
-6.71
-8.69
-10.62
-12.63
-14.94
-17.66
-20.75
-23.86
-26.34
-27.38
-26.35
-23.03
-17.78
-11.48
-5.20
0.12
3.93
6.22
7.37
8.01
8.65
9.58
10.72
11.76
12.34
12.27
11.61
10.70
9.88
9.33
9.04
8.77
8.33
7.62
6.74
5.87
5.15
4.54
3.84
2.82
1.32
-0.63
-2.83
-5.02
-7.00
-8.75
-10.37
-12.11
-14.16
-16.64
-19.46
-22.46
-25.37
-27.88
-29.66
-30.34
-29.62
-27.34
-23.59
-18.66
-13.05
-7.30
-1.93
2.64
6.12
8.38
9.47
9.67
9.35
8.92
8.67
8.71
8.98
9.43
10.02
10.71
11.40
11.89
11.89
11.26
10.12
8.83
7.78
7.13
6.62
5.74
4.02
1.38
-1.81
-4.96
-7.56
-9.48
-10.98
-12.51
-14.45
-16.94
-19.88
-22.97
-25.82
-27.95
-28.83
-27.97
-25.05
-20.15
-13.80
-6.86
-0.24
5.36
9.63
12.64
14.65
15.93
16.63
16.81
16.56
16.01
15.40
14.92
14.63
14.42
14.09
13.54
12.87
12.32
12.12
12.20
12.16
11.46
9.70
6.87
3.44
0.09
-2.56
-4.35
-5.60
-6.92
-8.88
-11.67
-14.92
-17.87
-19.68
-19.70
-17.76
-14.16
-9.48
-4.37
0.66
5.24
9.21
12.38
14.71
16.20
17.03
17.42
17.59
17.61
17.36
16.67
15.49
13.99
12.56
11.57
11.18
11.21
11.26
10.91
9.97
8.51
6.73
4.82
2.81
0.65
-1.73
-4.27
-6.78
-9.12
-11.27
-13.32
-15.45
-17.63
-19.61
-20.87
-20.84
-19.13
-15.65
-10.73
-4.95
0.91
6.11
10.08
12.62
13.83
14.13
14.05
13.98
14.08
14.25
14.30
14.07
13.62
13.12
12.77
12.58
12.37
11.83
10.75
9.17
7.34
5.58
4.00
2.47
0.67
-1.60
-4.33
-7.17
-9.74
-11.85
-13.73
-15.87
-18.70
-22.28
-26.05
-29.05
-30.17
-28.75
-24.75
-18.82
-11.94
-5.13
0.84
5.67
9.30
11.85
13.38
13.94
13.62
12.60
11.26
10.01
9.22
9.02
9.31
9.80
10.11
10.01
9.45
8.61
7.79
7.27
7.12
7.10
6.79
5.73
3.67
0.72
-2.72
-6.14
-9.12
-11.61
-13.82
-16.20
-19.10
-22.59
-26.35
-29.71
-31.87
-32.18
-30.33
-26.45
-21.07
-14.91
-8.72
-3.08
1.61
5.12
7.42
8.52
8.58
7.77
6.37
4.68
2.98
1.49
0.36
-0.46
-1.12
-1.78
-2.52
-3.34
-4.07
-4.57
-4.77
-4.78
-4.80
-5.13
-5.91
-7.24
-9.08
-11.32
-13.93
-16.95
-20.59
-25.08
-30.56
-36.80
-43.17
-48.64
-52.12
-52.90
-50.90
-46.74
-41.41
-35.96
-31.11
-27.20
-24.28
-22.28
-21.14
-20.78
-21.13
-22.01
-23.18
-24.37
-25.31
-25.84
-25.94
-25.73
-25.35
-24.89
-24.32
-23.52
-22.35
-20.83
-19.20
-17.76
-16.73
-16.11
-15.63
-14.91
-13.69
-11.99
-10.09
-8.34
-6.93
-5.76
-4.41
-2.33
0.94
5.54
11.21
17.29
23.01
27.76
31.35
34.08
36.52
39.14
41.96
44.49
45.95
45.76
43.95
41.30
39.01
38.23
39.54
42.82
47.44
52.65
57.76
62.36
66.21
69.24
71.48
73.13
74.54
76.02
77.66
79.22
80.27
80.38
79.36
77.38
74.79
71.86
68.47
64.12
58.08
49.70
38.87
26.30
13.64
3.27
-2.21
-0.76
8.36
24.23
44.29
65.14
83.39
96.56
103.51
104.31
99.80
91.14
79.48
65.99
51.85
38.17
25.76
14.83
4.98
-4.69
-15.19
-27.17
-40.66
-55.09
-69.51
-82.80
-93.92
-101.97
-106.29
-106.54
-102.84
-95.83
-86.70
-76.90
-67.78
-60.21
-54.36
-49.67
-45.19
-39.96
-33.43
-25.62
-17.14
-8.93
-1.93
3.22
6.35
7.72
7.85
7.17
5.98
4.25
1.91
-1.06
-4.45
-7.89
-11.01
-13.61
-15.72
-17.53
-19.28
-21.21
-23.43
-25.85
-28.27
-30.25
-31.29
-30.96
-29.06
-25.73
-21.36
-16.49
-11.56
-6.85
-2.48
1.52
5.04
7.92
10.02
11.32
11.94
12.10
12.03
11.84
11.52
10.96
10.08
8.93
7.69
6.64
5.98
5.73
5.71
5.67
5.33
4.59
3.46
1.96
0.14
-2.06
-4.78
-8.09
-11.92
-15.96
-19.67
-22.34
-23.39
-22.43
-19.46
-14.85
-9.27
-3.52
1.72
5.99
9.14
11.29
12.68
13.55
14.09
14.35
14.38
14.24
14.00
13.77
13.54
13.26
12.77
11.96
10.84
9.50
8.09
6.74
5.49
4.23
2.85
1.25
-0.60
-2.70
-5.05
-7.59
-10.27
-12.89
-15.13
-16.59
-16.88
-15.76
-13.32
-9.89
-5.98
-2.15
1.12
3.58
5.19
6.12
6.67
7.08
7.51
7.88
7.96
7.59
6.78
5.79
5.00
4.70
4.88
5.21
5.23
4.60
3.31
1.66
0.00
-1.43
-2.67
-3.97
-5.61
-7.79
-10.57
-13.89
-17.53
-21.14
-24.12
-25.76
-25.44
-22.94
-18.60
-13.26
-7.93
-3.38
0.12
2.77
4.96
7.00
8.92
10.55
11.70
12.24
12.25
11.84
11.21
10.51
9.89
9.48
9.24
9.07
8.76
8.15
7.20
5.98
4.60
3.14
1.56
-0.23
-2.28
-4.58
-7.07
-9.69
-12.42
-15.18
-17.73
-19.64
-20.42
-19.70
-17.41
-13.78
-9.32
-4.54
0.09
4.29
7.84
10.59
12.46
13.40
13.54
13.08
12.32
11.52
10.92
10.63
10.65
10.84
11.05
11.10
10.90
10.41
9.61
8.50
7.02
5.17
3.00
0.66
-1.63
-3.64
-5.26
-6.56
-7.78
-9.28
-11.36
-14.13
-17.42
-20.74
-23.44
-24.87
-24.61
-22.58
-19.09
-14.67
-9.88
-5.22
-0.99
2.66
5.65
7.93
9.52
10.41
10.72
10.69
10.68
11.02
11.93
13.29
14.73
15.75
15.93
15.14
13.54
11.54
9.63
8.19
7.39
7.13
7.04
6.66
5.56
3.56
0.78
-2.37
-5.39
-7.85
-9.60
-10.76
-11.59
-12.42
-13.51
-15.01
-16.98
-19.31
-21.65
-23.43
-23.97
-22.73
-19.61
-14.98
-9.60
-4.31
0.16
3.53
5.82
7.24
8.07
8.48
8.59
8.52
8.44
8.47
8.65
8.87
8.96
8.81
8.44
7.96
7.49
7.09
6.68
6.18
5.51
4.68
3.79
2.90
1.99
0.96
-0.32
-1.91
-3.76
-5.75
-7.83
-10.03
-12.46
-15.19
-18.13
-20.97
-23.22
-24.31
-23.81
-21.57
-17.78
-12.90
-7.64
-2.67
1.40
4.27
5.95
6.73
7.03
7.17
7.26
7.20
6.81
5.96
4.77
3.51
2.55
2.12
2.27
2.78
3.35
3.71
3.72
3.40
2.85
2.20
1.45
0.56
-0.58
-2.01
-3.63
-5.28
-6.81
-8.27
-9.87
-11.94
-14.64
-17.75
-20.60
-22.32
-22.11
-19.67
-15.30
-9.79
-4.15
0.80
4.65
7.38
9.18
10.31
10.91
11.07
10.81
10.27
9.67
9.24
9.12
9.29
9.60
9.79
9.64
9.07
8.11
6.93
5.68
4.47
3.35
2.26
1.11
-0.22
-1.84
-3.77
-5.87
-7.93
-9.74
-11.21
-12.50
-13.99
-16.01
-18.75
-21.99
-25.17
-27.53
-28.42
-27.46
-24.73
-20.59
-15.59
-10.34
-5.36
-1.12
2.06
3.97
4.65
4.27
3.20
1.85
0.61
-0.27
-0.72
-0.86
-0.93
-1.14
-1.64
-2.35
-3.05
-3.50
-3.49
-3.01
-2.22
-1.40
-0.73
-0.29
-0.04
0.20
0.59
1.24
2.18
3.33
4.52
5.51
6.04
5.93
5.13
3.71
1.92
0.07
-1.45
-2.22
-1.84
0.05
3.61
8.72
14.91
21.47
27.58
32.58
36.22
38.68
40.48
42.18
44.15
46.33
48.32
49.56
49.42
47.35
42.96
36.08
26.97
16.41
5.59
-4.13
-11.72
-16.72
-19.43
-20.62
-21.31
-22.60
-25.61
-31.46
-41.11
-54.95
-72.33
-91.45
-109.67
-124.27
-133.22
-135.62
-131.80
-122.90
-110.40
-95.53
-79.03
-61.31
-42.81
-24.49
-7.94
5.00
13.11
16.69
17.62
18.77
22.51
29.31
37.39
43.65
45.53
42.46
36.18
29.44
24.20
20.49
16.56
10.45
1.61
-8.29
-16.02
-18.54
-14.76
-6.11
4.10
12.43
16.85
17.31
15.14
12.00
8.92
6.07
3.30
0.69
-1.04
-0.71
2.67
9.34
18.59
28.96
38.78
46.76
52.23
55.31
56.70
57.42
58.36
60.01
62.21
64.17
64.90
63.55
59.84
54.11
47.07
39.54
32.12
24.91
17.50
9.08
-1.30
-14.20
-29.34
-45.43
-60.49
-72.62
-81.02
-86.50
-91.23
-97.58
-106.70
-117.58
-127.27
-132.22
-130.08
-120.84
-106.80
-91.30
-77.06
-65.10
-54.81
-45.10
-35.37
-26.05
-17.82
-10.65
-3.31
6.05
18.57
33.65
48.92
61.52
69.80
74.21
76.87
80.00
84.38
88.86
91.31
90.08
85.22
78.42
71.85
66.89
63.39
60.05
55.33
48.49
39.95
30.96
22.75
15.96
10.42
5.47
0.59
-4.17
-8.08
-10.04
-9.13
-5.07
1.65
9.92
18.48
26.29
32.71
37.57
40.95
43.12
44.48
45.53
46.73
48.34
50.23
51.91
52.87
52.77
51.67
49.93
47.92
45.76
43.27
40.17
36.28
31.77
27.01
22.32
17.79
13.19
8.14
2.45
-3.76
-10.02
-15.72
-20.29
-23.47
-25.28
-26.14
-26.72
-27.86
-30.31
-34.50
-40.27
-46.81
-52.84
-56.89
-57.85
-55.16
-49.00
-40.16
-29.80
-19.15
-9.29
-1.03
5.16
9.20
11.37
12.20
12.28
12.11
11.91
11.64
11.11
10.22
9.06
7.95
7.29
7.29
7.84
8.50
8.67
7.90
6.08
3.40
0.25
-2.99
-6.08
-8.88
-11.37
-13.50
-15.30
-16.88
-18.53
-20.51
-22.89
-25.43
-27.52
-28.47
-27.71
-25.11
-20.94
-15.78
-10.25
-4.92
-0.18
3.78
6.92
9.33
11.22
12.78
14.09
15.12
15.66
15.54
14.64
13.04
10.95
8.72
6.75
5.36
4.82
5.19
6.27
7.62
8.63
8.77
7.79
5.82
3.33
0.85
-1.24
-2.99
-4.84
-7.41
-11.15
-16.06
-21.54
-26.58
-30.08
-31.22
-29.70
-25.77
-20.04
-13.27
-6.19
0.64
6.80
12.02
16.16
19.14
21.03
21.98
22.24
22.14
21.97
21.94
22.04
22.10
21.84
21.10
19.86
18.40
17.09
16.23
15.90
15.84
15.59
14.59
12.47
9.13
4.82
0.01
-4.74
-8.94
-12.38
-15.02
-17.10
-18.90
-20.79
-23.03
-25.69
-28.62
-31.31
-33.10
-33.26
-31.33
-27.28
-21.59
-15.02
-8.32
-2.06
3.51
8.31
12.29
15.42
17.67
19.12
19.97
20.45
20.70
20.78
20.67
20.38
20.02
19.74
19.62
19.48
19.08
18.21
16.88
15.41
14.17
13.35
12.78
12.03
10.55
8.11
4.83
1.16
-2.38
-5.42
-7.88
-9.92
-11.78
-13.74
-16.00
-18.69
-21.83
-25.25
-28.56
-31.21
-32.55
-32.09
-29.64
-25.38
-19.80
-13.57
-7.32
-1.62
3.16
6.78
9.26
10.73
11.50
11.94
12.28
12.61
12.86
12.93
12.85
12.83
13.14
13.93
15.02
15.95
16.22
15.55
14.07
12.20
10.38
8.78
7.22
5.36
3.03
0.35
-2.29
-4.47
-6.07
-7.26
-8.46
-10.00
-11.96
-14.24
-16.67
-19.19
-21.80
-24.43
-26.78
-28.33
-28.48
-26.86
-23.55
-19.03
-14.03
-9.30
-5.27
-2.09
0.33
2.17
3.55
4.46
4.84
4.64
3.83
2.50
0.79
-1.15
-3.14
-4.99
-6.48
-7.44
-7.78
-7.61
-7.19
-6.88
-7.00
-7.65
-8.64
-9.57
-9.96
-9.39
-7.77
-5.26
-2.39
0.07
1.17
0.10
-3.50
-9.19
-15.70
-21.27
-24.24
-23.71
-19.93
-14.26
-8.55
-4.47
-2.87
-3.57
-5.48
-7.11
-7.06
-4.49
0.73
8.12
16.87
26.09
35.10
43.39
50.56
56.13
59.59
60.54
58.88
54.93
49.36
42.89
36.08
29.13
21.98
14.52
6.83
-0.78
-7.86
-14.02
-19.13
-23.41
-27.24
-30.96
-34.62
-37.95
-40.41
-41.40
-40.46
-37.44
-32.50
-26.03
-18.61
-10.90
-3.56
2.78
7.67
10.91
12.60
13.08
12.88
12.53
12.42
12.63
12.99
13.16
12.70
11.39
9.24
6.59
4.03
2.21
1.66
2.54
4.53
6.94
8.94
9.88
9.48
7.86
5.33
2.23
-1.28
-5.08
-9.04
-12.80
-15.75
-17.29
-16.99
-14.90
-11.53
-7.65
-4.08
-1.32
0.51
1.61
2.42
3.30
4.41
5.64
6.71
7.28
7.13
6.19
4.64
2.75
0.86
-0.77
-1.97
-2.71
-3.00
-2.95
-2.71
-2.45
-2.43
-2.90
-4.03
-5.86
-8.23
-10.82
-13.30
-15.44
-17.21
-18.79
-20.53
-22.76
-25.62
-28.96
-32.34
-35.06
-36.39
-35.81
-33.08
-28.37
-22.18
-15.15
-8.10
-1.76
3.25
6.58
8.25
8.63
8.39
8.15
8.28
8.80
9.38
9.62
9.26
8.38
7.26
6.35
5.97
6.25
7.06
8.04
8.76
8.82
8.04
6.46
4.37
2.20
0.29
-1.17
-2.24
-3.15
-4.24
-5.79
-7.99
-10.87
-14.24
-17.75
-20.85
-22.92
-23.38
-21.80
-18.08
-12.55
-5.88
1.07
7.40
12.47
15.94
17.78
18.22
17.58
16.26
14.65
13.13
11.93
11.14
10.67
10.33
9.95
9.48
9.06
8.80
8.73
8.70
8.43
7.65
6.29
4.52
2.60
0.85
-0.62
-1.95
-3.42
-5.33
-7.83
-10.95
-14.51
-18.29
-21.96
-25.05
-26.98
-27.10
-24.93
-20.40
-14.07
-6.93
-0.22
5.15
8.83
11.06
12.45
13.53
14.56
15.39
15.71
15.30
14.21
12.81
11.59
10.99
11.17
11.95
12.91
13.53
13.43
12.53
11.10
9.56
8.27
7.30
6.39
5.11
3.05
0.21
-3.12
-6.42
-9.34
-11.83
-14.20
-16.87
-20.17
-24.12
-28.42
-32.53
-35.79
-37.61
-37.48
-35.16
-30.73
-24.62
-17.54
-10.32
-3.69
1.96
6.54
10.16
12.95
14.99
16.26
16.79
16.70
16.24
15.66
15.15
14.73
14.36
14.03
13.83
13.91
14.38
15.18
16.08
16.78
17.04
16.75
15.97
14.83
13.42
11.71
9.61
6.98
3.72
-0.09
-4.23
-8.29
-11.84
-14.58
-16.47
-17.81
-19.08
-20.75
-23.01
-25.67
-28.14
-29.60
-29.27
-26.57
-21.25
-13.45
-3.72
6.98
17.37
26.12
32.18
35.13
35.26
33.48
30.91
28.53
26.88
26.00
25.66
25.51
25.26
24.70
23.68
22.07
19.84
17.10
14.12
11.21
8.59
6.28
4.18
2.06
-0.17
-2.48
-4.69
-6.59
-8.04
-8.99
-9.50
-9.71
-9.81
-10.06
-10.75
-12.19
-14.56
-17.76
-21.43
-24.83
-27.05
-27.25
-24.98
-20.35
-14.00
-6.89
0.03
6.08
10.93
14.47
16.72
17.70
17.54
16.48
14.99
13.57
12.59
12.15
12.02
11.88
11.46
10.68
9.68
8.62
7.60
6.58
5.44
4.02
2.22
0.05
-2.42
-5.06
-7.75
-10.38
-12.79
-14.84
-16.46
-17.71
-18.89
-20.45
-22.81
-26.09
-29.93
-33.47
-35.64
-35.63
-33.17
-28.71
-23.17
-17.65
-12.98
-9.50
-7.05
-5.15
-3.25
-1.02
1.56
4.14
6.23
7.35
7.32
6.29
4.73
3.20
2.15
1.77
2.00
2.63
3.40
4.21
4.98
5.72
6.37
6.78
6.75
6.11
4.82
2.88
0.31
-2.98
-7.11
-12.01
-17.29
-22.09
-25.31
-25.97
-23.71
-18.92
-12.66
-6.20
-0.56
3.82
6.97
9.25
10.94
12.11
12.68
12.64
12.15
11.59
11.34
11.58
12.22
12.86
13.12
12.77
11.87
10.69
9.48
8.28
6.92
5.17
3.00
0.70
-1.12
-1.86
-1.26
0.49
2.68
4.41
4.85
3.48
0.18
-4.80
-10.96
-17.61
-23.97
-29.28
-32.92
-34.51
-33.97
-31.44
-27.21
-21.60
-15.01
-7.87
-0.70
5.99
11.78
16.45
20.02
22.64
24.51
25.82
26.67
27.17
27.44
27.59
27.70
27.82
27.90
27.84
27.56
27.06
26.44
25.89
25.60
25.63
25.79
25.60
24.33
21.20
15.58
7.30
-3.25
-15.02
-26.57
-36.27
-42.83
-45.51
-44.35
-40.09
-33.87
-26.92
-20.27
-14.62
-10.36
-7.71
-6.72
-7.20
-8.69
-10.44
-11.52
-11.18
-9.04
-5.23
-0.33
4.93
9.94
14.38
18.23
21.59
24.56
27.12
29.12
30.32
30.48
29.43
27.12
23.62
19.16
14.08
8.84
3.91
-0.27
-3.50
-5.83
-7.73
-9.83
-12.82
-17.14
-22.80
-29.32
-35.82
-41.24
-44.48
-44.71
-41.34
-34.21
-23.55
-10.03
5.37
21.54
37.38
51.94
64.38
74.02
80.30
82.86
81.77
77.54
71.15
63.74
56.40
49.77
43.98
38.73
33.61
28.32
22.79
17.18
11.68
6.38
1.27
-3.69
-8.51
-13.10
-17.22
-20.68
-23.38
-25.44
-27.18
-28.94
-31.03
-33.50
-36.11
-38.37
-39.73
-39.72
-38.22
-35.38
-31.60
-27.28
-22.71
-18.08
-13.59
-9.59
-6.56
-5.04
-5.34
-7.31
-10.39
-13.76
-16.66
-18.64
-19.64
-19.87
-19.62
-19.09
-18.33
-17.37
-16.21
-15.04
-14.04
-13.51
-13.63
-14.53
-16.12
-18.20
-20.51
-22.77
-24.90
-26.93
-29.07
-31.55
-34.53
-38.02
-41.91
-46.00
-49.96
-53.37
-55.67
-56.27
-54.77
-51.10
-45.65
-39.17
-32.54
-26.43
-21.15
-16.56
-12.21
-7.62
-2.37
3.64
10.20
16.90
23.27
28.86
33.51
37.27
40.36
43.07
45.51
47.63
49.23
50.13
50.28
49.83
49.04
48.08
46.93
45.34
42.96
39.53
35.02
29.70
24.01
18.42
13.17
8.31
3.64
-1.09
-6.09
-11.42
-17.01
-22.61
-27.83
-32.18
-35.08
-36.04
-34.77
-31.29
-26.02
-19.64
-12.96
-6.71
-1.43
2.64
5.49
7.37
8.59
9.47
10.22
10.81
11.07
10.78
9.78
8.21
6.41
4.89
4.08
4.21
5.16
6.57
8.01
9.11
9.78
10.09
10.20
10.21
10.06
9.57
8.61
7.22
5.66
4.28
3.31
2.67
2.02
0.95
-0.79
-3.14
-5.80
-8.49
-11.05
-13.47
-15.77
-17.78
-19.07
-19.07
-17.34
-13.77
-8.64
-2.57
3.73
9.61
14.57
18.30
20.72
21.83
21.82
20.96
19.55
17.93
16.44
15.34
14.77
14.68
14.85
14.94
14.69
14.11
13.38
12.84
12.73
13.05
13.52
13.74
13.36
12.27
10.72
9.14
8.04
7.68
8.03
8.75
9.21
8.79
7.01
3.80
-0.53
-5.18
-9.07
-11.21
-10.91
-8.05
-3.10
3.08
9.51
15.33
20.06
23.47
25.55
26.37
26.04
24.71
22.65
20.26
17.95
16.08
14.80
14.00
13.46
12.85
12.02
10.97
9.80
8.61
7.38
5.98
4.18
1.89
-0.93
-4.16
-7.63
-11.19
-14.73
-18.22
-21.63
-25.03
-28.49
-32.15
-36.09
-40.21
-44.15
-47.30
-48.95
-48.46
-45.58
-40.48
-33.73
-26.13
-18.47
-11.40
-5.32
-0.42
3.32
5.95
7.62
8.59
9.17
9.69
10.40
11.37
12.45
13.34
13.74
13.53
12.82
11.94
11.31
11.18
11.53
12.05
12.20
11.50
9.69
6.78
3.07
-1.01
-5.06
-8.76
-11.95
-14.59
-16.83
-18.94
-21.35
-24.44
-28.30
-32.64
-36.68
-39.38
-39.77
-37.35
-32.27
-25.30
-17.56
-10.11
-3.69
1.44
5.43
8.57
11.11
13.13
14.58
15.42
15.74
15.79
15.86
16.13
16.54
16.92
17.04
16.84
16.38
15.85
15.38
14.95
14.40
13.52
12.19
10.40
8.31
6.10
3.99
2.12
0.53
-0.86
-2.27
-3.99
-6.26
-9.23
-12.83
-16.72
-20.32
-22.91
-23.77
-22.43
-18.82
-13.25
-6.40
0.91
7.90
14.01
18.89
22.40
24.56
25.45
25.27
24.35
23.11
21.89
20.90
20.10
19.35
18.42
17.20
15.72
14.11
12.58
11.26
10.22
9.38
8.59
7.61
6.17
4.05
1.13
-2.49
-6.55
-10.67
-14.58
-18.18
-21.58
-24.97
-28.34
-31.44
-33.68
-34.39
-33.06
-29.57
-24.29
-18.03
-11.69
-6.06
-1.57
1.72
4.00
5.60
6.74
7.51
7.89
7.87
7.49
6.94
6.42
6.05
5.83
5.60
5.23
4.65
3.99
3.45
3.14
2.99
2.69
1.83
0.12
-2.44
-5.46
-8.43
-10.93
-12.93
-14.81
-17.16
-20.44
-24.66
-29.22
-33.12
-35.28
-35.01
-32.21
-27.33
-21.17
-14.56
-8.13
-2.33
2.57
6.34
8.80
9.86
9.64
8.49
6.96
5.60
4.75
4.48
4.60
4.76
4.68
4.29
3.70
3.15
2.91
3.07
3.55
4.08
4.37
4.14
3.33
2.00
0.35
-1.42
-3.25
-5.23
-7.53
-10.33
-13.66
-17.38
-21.09
-24.25
-26.22
-26.46
-24.61
-20.63
-14.76
-7.58
0.21
7.84
14.62
20.07
23.97
26.39
27.56
27.88
27.76
27.51
27.40
27.47
27.73
28.08
28.38
28.45
28.14
27.38
26.21
24.80
23.29
21.77
20.18
18.32
16.02
13.26
10.16
6.97
3.90
1.05
-1.60
-4.17
-6.82
-9.67
-12.83
-16.38
-20.35
-24.53
-28.45
-31.36
-32.45
-31.12
-27.22
-21.19
-13.87
-6.30
0.59
6.18
10.24
12.87
14.34
15.02
15.27
15.29
15.14
14.81
14.23
13.44
12.59
11.83
11.28
10.87
10.51
10.19
10.00
10.15
10.69
11.42
11.83
11.33
9.57
6.63
3.01
-0.61
-3.66
-5.95
-7.64
-9.09
-10.69
-12.69
-15.27
-18.44
-22.09
-25.90
-29.40
-31.85
-32.57
-30.98
-26.93
-20.72
-13.12
-5.19
2.06
7.87
11.97
14.50
15.88
16.55
16.84
16.87
16.64
16.13
15.40
14.62
13.98
13.64
13.62
13.82
14.06
14.15
13.95
13.41
12.55
11.42
9.99
8.22
6.04
3.52
0.82
-1.78
-4.06
-5.96
-7.66
-9.57
-12.08
-15.40
-19.39
-23.47
-26.77
-28.39
-27.57
-24.09
-18.28
-11.02
-3.43
3.45
8.97
13.00
15.75
17.53
18.52
18.76
18.21
16.99
15.41
13.93
12.97
12.72
13.07
13.71
14.31
14.60
14.49
14.01
13.27
12.35
11.26
9.94
8.26
6.12
3.52
0.57
-2.52
-5.51
-8.25
-10.70
-13.03
-15.47
-18.34
-21.79
-25.81
-29.99
-33.63
-35.88
-35.94
-33.45
-28.56
-21.94
-14.55
-7.33
-0.93
4.30
8.29
11.11
12.84
13.63
13.67
13.27
12.76
12.44
12.43
12.65
12.92
13.00
12.75
12.20
11.50
10.91
10.67
10.88
11.43
12.00
12.10
11.26
9.22
6.05
2.15
-1.94
-5.68
-8.81
-11.35
-13.51
-15.59
-17.82
-20.32
-23.18
-26.35
-29.59
-32.41
-34.08
-33.84
-31.21
-26.24
-19.52
-12.06
-4.87
1.29
6.03
9.31
11.34
12.37
12.78
12.91
13.07
13.43
13.94
14.41
14.68
14.74
14.74
14.88
15.28
15.85
16.33
16.46
16.17
15.48
14.54
13.38
11.88
9.86
7.21
4.02
0.60
-2.70
-5.58
-7.98
-10.05
-12.17
-14.77
-18.21
-22.56
-27.52
-32.44
-36.37
-38.40
-37.89
-34.72
-29.35
-22.65
-15.59
-9.00
-3.39
0.97
4.00
5.70
6.23
5.95
5.51
5.64
6.94
9.48
12.81
16.09
18.51
19.66
19.70
19.24
18.95
19.27
20.19
21.40
22.42
22.94
22.83
22.17
21.10
19.70
17.98
15.86
13.22
9.96
6.00
1.34
-3.92
-9.36
-14.24
-17.52
-18.12
-15.43
-9.56
-1.50
7.22
15.10
21.14
25.16
27.59
29.23
30.77
32.59
34.52
35.85
35.45
32.06
24.78
13.45
-1.04
-16.97
-32.28
-45.24
-55.01
-61.67
-66.02
-69.09
-71.68
-74.12
-76.36
-78.05
-78.82
-78.35
-76.52
-73.34
-69.06
-64.00
-58.60
-53.19
-47.94
-42.83
-37.59
-31.82
-25.06
-16.99
-7.57
2.88
13.61
23.61
31.89
37.70
40.82
41.59
40.79
39.32
37.90
36.92
36.35
35.96
35.50
34.91
34.30
33.86
33.72
33.76
33.70
33.16
31.85
29.73
26.95
23.78
20.51
17.33
14.42
11.96
10.09
8.80
7.86
6.83
5.20
2.63
-1.01
-5.63
-11.03
-17.05
-23.52
-30.08
-36.19
-41.13
-44.25
-45.10
-43.54
-39.79
-34.43
-28.18
-21.86
-16.31
-12.30
-10.47
-11.13
-14.16
-19.07
-25.06
-31.14
-36.25
-39.44
-40.11
-38.06
-33.58
-27.02
-19.16
-10.98
-3.29
3.48
9.38
14.78
20.17
26.03
33.20
41.80
51.29
60.66
68.86
75.08
79.01
80.96
82.24
85.59
93.11
105.58
122.29
141.49
160.85
178.04
191.08
198.76
201.49
198.92
190.04
173.93
150.85
122.71
92.60
63.77
33.10
2.51
-23.87
-42.90
-55.32
-65.28
-77.17
-93.15
-113.65
-138.02
-161.00
-178.19
-186.57
-185.26
-175.55
-160.36
-143.34
-127.56
-114.37
-102.64
-91.45
-80.83
-71.87
-65.92
-63.62
-64.45
-66.89
-69.00
-68.63
-65.12
-59.02
-51.55
-43.62
-35.51
-27.01
-17.84
-8.07
2.14
11.90
20.08
25.78
28.70
29.20
28.09
26.28
24.51
23.33
22.74
22.51
22.28
21.85
21.26
20.63
20.09
19.62
19.09
18.24
16.78
14.48
11.27
7.24
2.58
-2.38
-7.46
-12.60
-17.93
-23.60
-29.56
-35.31
-39.98
-42.58
-42.36
-39.28
-33.94
-27.45
-20.91
-15.17
-10.73
-7.78
-6.38
-6.56
-8.27
-11.33
-15.48
-20.44
-26.05
-32.21
-38.76
-45.34
-51.24
-55.68
-57.94
-57.65
-54.86
-49.84
-42.97
-34.51
-24.79
-14.31
-3.96
5.13
11.80
15.27
15.45
12.89
8.55
3.38
-1.89
-6.72
-10.57
-12.60
-11.80
-7.21
1.51
13.78
28.09
42.57
55.56
66.08
73.96
79.47
83.01
84.78
84.89
83.49
81.00
77.94
74.72
71.46
67.92
63.72
58.69
53.02
47.33
42.34
38.68
36.59
35.90
36.12
36.61
36.80
36.35
35.16
33.41
31.36
29.21
26.93
24.20
20.58
15.67
9.42
2.23
-5.05
-11.29
-15.45
-16.88
-15.47
-11.61
-6.04
0.32
6.63
12.15
16.45
19.35
21.00
21.73
21.88
21.59
20.74
19.17
16.86
14.18
11.90
10.77
11.16
12.79
14.81
16.24
16.48
15.60
14.31
13.52
13.86
15.32
17.30
18.89
19.15
17.43
13.42
7.15
-0.99
-10.27
-19.63
-27.95
-34.43
-38.93
-42.10
-45.00
-48.54
-52.85
-57.14
-60.08
-60.49
-57.97
-52.99
-46.61
-39.83
-33.20
-26.79
-20.51
-14.52
-9.31
-5.48
-3.35
-2.59
-2.31
-1.44
0.73
4.21
8.31
12.00
14.43
15.27
14.77
13.52
12.13
10.95
10.01
9.13
8.00
6.39
4.19
1.51
-1.33
-3.85
-5.53
-5.93
-4.96
-2.87
-0.30
1.90
2.92
2.20
-0.48
-4.86
-10.43
-16.57
-22.76
-28.70
-34.31
-39.59
-44.40
-48.44
-51.26
-52.41
-51.70
-49.34
-45.91
-42.13
-38.70
-36.02
-34.16
-32.94
-32.04
-31.23
-30.33
-29.26
-27.93
-26.20
-23.87
-20.81
-17.01
-12.60
-7.85
-2.96
1.97
6.94
11.94
16.84
21.31
25.05
28.00
30.43
32.94
36.08
40.05
44.47
48.64
51.79
53.51
53.93
53.50
52.76
51.99
51.17
50.08
48.46
46.24
43.47
40.30
36.83
33.08
29.07
24.77
20.23
15.50
10.64
5.71
0.80
-3.96
-8.42
-12.49
-16.15
-19.40
-22.19
-24.21
-24.97
-23.91
-20.68
-15.41
-8.80
-1.93
4.14
8.76
11.82
13.62
14.62
15.14
15.27
14.95
14.15
12.97
11.69
10.61
9.95
9.69
9.65
9.57
9.22
8.48
7.37
5.95
4.29
2.43
0.44
-1.60
-3.58
-5.43
-7.22
-9.21
-11.76
-15.09
-19.07
-23.10
-26.30
-27.73
-26.83
-23.63
-18.73
-13.07
-7.59
-2.91
0.76
3.55
5.71
7.52
9.11
10.47
11.50
12.08
12.09
11.46
10.17
8.27
5.89
3.21
0.46
-2.10
-4.22
-5.75
-6.64
-7.05
-7.21
-7.34
-7.52
-7.66
-7.56
-7.07
-6.21
-5.25
-4.49
-4.17
-4.31
-4.69
-5.04
-5.05
-4.60
-3.77
-2.76
-1.95
-1.71
-2.27
-3.57
-5.26
-6.80
-7.75
-7.99
-7.81
-7.70
-8.00
-8.71
-9.45
-9.71
-9.24
-8.23
-7.23
-6.80
-7.14
-7.91
-8.40
-7.90
-6.05
-3.10
0.23
3.11
4.90
5.37
4.68
3.18
1.19
-1.09
-3.50
-5.78
-7.51
-8.19
-7.38
-4.98
-1.30
2.98
7.07
10.25
12.09
12.56
11.93
10.64
9.17
7.86
6.89
6.34
6.21
6.53
7.30
8.54
10.11
11.83
13.40
14.53
15.07
14.97
14.36
13.40
12.19
10.68
8.64
5.70
1.54
-3.98
-10.64
-17.77
-24.40
-29.43
-31.92
-31.43
-28.08
-22.56
-15.89
-9.07
-2.88
2.25
6.17
8.81
10.12
10.02
8.58
6.12
3.15
0.32
-1.93
-3.37
-4.08
-4.18
-3.79
-2.87
-1.33
0.81
3.27
5.52
6.92
6.96
5.45
2.59
-1.11
-5.02
-8.57
-11.40
-13.40
-14.61
-15.10
-14.78
-13.26
-9.99
-4.44
3.59
13.81
25.38
37.10
47.83
56.72
63.43
68.04
70.83
72.19
72.50
72.25
71.93
72.02
72.71
73.77
74.58
74.33
72.40
68.65
63.39
57.15
50.41
43.42
36.28
29.17
22.55
16.99
12.92
10.34
8.71
7.24
5.18
2.22
-1.47
-5.40
-9.02
-11.88
-13.75
-14.59
-14.57
-14.14
-13.89
-14.36
-15.78
-17.98
-20.45
-22.75
-24.80
-26.96
-29.82
-33.71
-38.46
-43.37
-47.55
-50.32
-51.51
-51.50
-50.87
-50.10
-49.28
-48.20
-46.51
-44.03
-40.93
-37.63
-34.68
-32.41
-30.86
-29.70
-28.49
-26.84
-24.63
-21.99
-19.24
-16.69
-14.52
-12.80
-11.48
-10.54
-10.04
-9.96
-10.28
-10.85
-11.38
-11.61
-11.39
-10.68
-9.63
-8.34
-7.00
-5.70
-4.60
-3.81
-3.42
-3.41
-3.63
-3.81
-3.79
-3.56
-3.33
-3.40
-4.02
-5.28
-7.01
-8.98
-10.92
-12.72
-14.25
-15.43
-16.14
-16.25
-15.76
-14.78
-13.64
-12.70
-12.31
-12.64
-13.63
-15.03
-16.51
-17.77
-18.58
-18.95
-19.02
-19.07
-19.33
-19.91
-20.74
-21.63
-22.40
-22.89
-23.03
-22.82
-22.28
-21.49
-20.48
-19.39
-18.35
-17.61
-17.36
-17.73
-18.75
-20.30
-22.16
-24.09
-25.84
-27.24
-28.17
-28.50
-28.07
-26.61
-23.81
-19.52
-13.86
-7.30
-0.57
5.58
10.59
14.32
16.96
18.91
20.48
21.79
22.67
22.92
22.50
21.60
20.67
20.07
19.87
19.73
19.13
17.68
15.46
12.98
11.06
10.37
11.09
12.90
15.12
17.09
18.39
18.87
18.63
17.73
16.30
14.41
12.30
10.28
8.76
8.02
8.15
9.00
10.20
11.23
11.58
10.86
8.97
6.07
2.60
-0.91
-4.08
-6.78
-9.10
-11.29
-13.39
-15.26
-16.61
-17.17
-17.07
-16.74
-16.84
-17.87
-19.93
-22.68
-25.52
-27.94
-29.72
-31.06
-32.40
-34.13
-36.38
-38.95
-41.34
-42.96
-43.23
-41.78
-38.51
-33.61
-27.54
-20.95
-14.56
-8.95
-4.49
-1.29
0.87
2.27
3.26
4.06
4.76
5.35
5.78
6.14
6.58
7.38
8.66
10.36
12.16
13.55
14.08
13.57
12.20
10.41
8.64
7.10
5.63
3.91
1.60
-1.35
-4.77
-8.35
-11.90
-15.32
-18.47
-21.01
-22.26
-21.53
-18.37
-13.00
-6.26
0.65
6.65
11.25
14.52
16.96
18.99
20.80
22.22
22.99
23.02
22.52
21.93
21.62
21.73
21.96
21.89
21.19
19.82
18.16
16.69
15.83
15.63
15.79
15.78
15.13
13.58
11.17
8.20
5.08
2.16
-0.39
-2.67
-5.01
-7.88
-11.68
-16.52
-22.08
-27.64
-32.21
-34.85
-34.88
-32.07
-26.72
-19.50
-11.34
-3.23
3.99
9.76
13.85
16.39
17.84
18.74
19.60
20.65
21.85
22.91
23.55
23.59
23.13
22.50
22.03
21.93
22.22
22.71
23.16
23.32
23.09
22.45
21.44
20.09
18.41
16.37
13.96
11.22
8.22
5.11
2.02
-0.93
-3.71
-6.33
-8.83
-11.21
-13.41
-15.37
-17.22
-19.19
-21.60
-24.62
-27.95
-30.87
-32.30
-31.25
-27.26
-20.62
-12.27
-3.43
4.81
11.85
17.59
22.22
25.96
28.90
30.99
32.14
32.37
31.84
30.83
29.66
28.58
27.79
27.31
27.04
26.72
26.08
24.93
23.29
21.41
19.65
18.31
17.46
16.87
16.11
14.82
12.87
10.46
7.97
5.76
4.00
2.50
0.98
-0.89
-3.27
-6.10
-9.16
-12.28
-15.38
-18.50
-21.67
-24.79
-27.44
-29.03
-28.90
-26.69
-22.44
-16.71
-10.34
-4.16
1.24
5.60
8.94
11.42
13.19
14.38
15.09
15.50
15.75
16.01
16.26
16.38
16.26
15.83
15.24
14.74
14.58
14.85
15.39
15.89
15.91
15.14
13.46
10.98
8.06
5.08
2.36
0.03
-1.97
-3.89
-6.03
-8.70
-12.02
-15.88
-19.95
-23.67
-26.33
-27.22
-25.85
-22.10
-16.34
-9.46
-2.56
3.31
7.52
9.96
11.05
11.42
11.63
12.01
12.53
12.98
13.13
12.94
12.56
12.26
12.22
12.40
12.64
12.68
12.48
12.12
11.84
11.72
11.64
11.22
10.09
8.14
5.64
3.15
1.20
-0.03
-0.82
-1.75
-3.47
-6.35
-10.37
-15.19
-20.23
-24.82
-28.40
-30.45
-30.68
-28.98
-25.48
-20.61
-15.00
-9.36
-4.40
-0.63
1.73
2.78
2.94
2.79
2.86
3.44
4.52
5.73
6.62
6.92
6.64
6.15
5.92
6.29
7.25
8.45
9.36
9.49
8.60
6.74
4.20
1.29
-1.70
-4.60
-7.34
-9.90
-12.26
-14.46
-16.64
-19.04
-21.93
-25.38
-29.03
-32.10
-33.51
-32.38
-28.36
-21.87
-13.96
-5.89
1.31
7.15
11.57
14.85
17.20
18.74
19.40
19.16
18.13
16.54
14.73
12.96
11.44
10.21
9.23
8.47
7.87
7.39
7.01
6.69
6.36
5.92
5.25
4.24
2.82
1.02
-1.07
-3.29
-5.53
-7.86
-10.53
-13.92
-18.22
-23.21
-28.17
-31.93
-33.31
-31.57
-26.70
-19.49
-11.25
-3.36
3.17
7.93
11.08
13.10
14.49
15.57
16.36
16.80
16.81
16.42
15.83
15.23
14.72
14.27
13.80
13.28
12.78
12.53
12.62
13.01
13.37
13.27
12.41
10.75
8.48
5.90
3.11
0.01
-3.75
-8.48
-14.23
-20.57
-26.67
-31.48
-33.99
-33.61
-30.28
-24.55
-17.31
-9.58
-2.25
4.14
9.41
13.59
16.72
18.83
19.81
19.61
18.30
16.16
13.65
11.24
9.28
7.80
6.65
5.49
4.14
2.63
1.16
0.01
-0.79
-1.45
-2.37
-3.82
-5.92
-8.53
-11.45
-14.63
-18.21
-22.40
-27.12
-31.87
-35.74
-37.71
-37.05
-33.63
-27.93
-20.80
-13.27
-6.15
0.05
5.06
8.83
11.37
12.83
13.35
13.23
12.75
12.18
11.72
11.46
11.40
11.44
11.49
11.36
10.94
10.13
8.97
7.63
6.35
5.35
4.62
3.87
2.62
0.41
-3.00
-7.54
-12.83
-18.34
-23.47
-27.59
-30.07
-30.24
-27.67
-22.29
-14.61
-5.71
3.06
10.49
15.87
19.19
20.95
21.83
22.28
22.42
22.11
21.18
19.68
17.89
16.24
14.97
14.07
13.31
12.42
11.26
9.83
8.24
6.52
4.65
2.58
0.31
-2.02
-4.38
-6.88
-9.89
-13.72
-18.47
-23.75
-28.68
-32.15
-33.16
-31.12
-25.99
-18.26
-8.77
1.38
11.05
19.27
25.39
29.24
31.10
31.58
31.30
30.76
30.12
29.34
28.30
26.91
25.22
23.40
21.65
20.16
19.00
18.09
17.23
16.11
14.49
12.30
9.62
6.69
3.74
0.87
-1.95
-4.91
-8.16
-11.84
-15.95
-20.36
-24.77
-28.72
-31.65
-32.94
-32.14
-29.08
-23.95
-17.24
-9.66
-1.95
5.24
11.38
16.18
19.50
21.46
22.32
22.45
22.18
21.78
21.34
20.83
20.14
19.15
17.85
16.30
14.74
13.40
12.46
11.90
11.45
10.74
9.41
7.29
4.58
1.65
-1.11
-3.47
-5.49
-7.45
-9.64
-12.24
-15.27
-18.67
-22.40
-26.42
-30.52
-34.18
-36.56
-36.73
-34.08
-28.58
-20.92
-12.26
-3.81
3.50
9.27
13.50
16.45
18.43
19.65
20.28
20.46
20.35
20.14
19.99
19.93
19.91
19.78
19.34
18.49
17.27
15.86
14.52
13.42
12.57
11.75
10.65
8.98
6.61
3.67
0.47
-2.60
-5.24
-7.39
-9.29
-11.37
-14.04
-17.55
-21.85
-26.54
-30.99
-34.42
-36.09
-35.39
-32.09
-26.41
-19.00
-10.91
-3.18
3.38
8.40
11.98
14.48
16.29
17.60
18.36
18.41
17.63
16.16
14.33
12.59
11.30
10.60
10.32
10.21
10.06
9.83
9.68
9.69
9.83
9.83
9.36
8.31
6.84
5.33
4.16
3.45
2.98
2.43
1.55
0.32
-1.07
-2.40
-3.58
-4.78
-6.16
-7.80
-9.48
-10.80
-11.37
-10.98
-9.67
-7.70
-5.39
-3.01
-0.73
1.40
3.38
5.17
6.67
7.73
8.22
8.07
7.36
6.35
5.38
4.78
4.72
5.10
5.67
6.09
6.15
5.82
5.27
4.73
4.44
4.41
4.56
4.72
4.70
4.44
3.95
3.32
2.59
1.86
1.22
0.80
0.69
0.92
1.43
2.09
2.77
3.36
3.81
4.06
4.02
3.63
2.89
1.94
1.04
0.41
0.15
0.18
0.30
0.37
0.37
0.37
0.44
0.55
0.53
0.26
-0.27
-0.87
-1.31
-1.42
-1.28
-1.12
-1.23
-1.75
-2.60
-3.56
-4.34
-4.79
-4.93
-4.94
-5.01
-5.30
-5.79
-6.32
-6.71
-6.85
-6.78
-6.58
-6.39
-6.24
-6.05
-5.69
-5.04
-4.21
-3.44
-3.09
-3.42
-4.47
-6.07
-7.93
-9.82
-11.61
-13.33
-15.04
-16.77
-18.46
-20.07
-21.60
-23.13
-24.73
-26.41
-28.08
-29.58
-30.95
-32.37
-34.21
-36.83
-40.47
-45.10
-50.35
-55.60
-60.03
-62.73
-62.87
-59.99
-54.09
-45.80
-36.22
-26.57
-17.86
-10.60
-4.85
-0.40
2.98
5.38
6.76
7.13
6.68
5.83
5.07
4.81
5.21
6.13
7.19
7.98
8.14
7.55
6.30
4.61
2.77
0.96
-0.81
-2.75
-5.21
-8.56
-12.96
-18.29
-24.12
-29.70
-34.20
-36.84
-37.03
-34.54
-29.54
-22.55
-14.36
-5.86
2.16
9.13
14.73
18.90
21.72
23.40
24.17
24.26
23.84
23.03
21.90
20.50
18.92
17.23
15.54
13.88
12.20
10.42
8.46
6.29
3.98
1.63
-0.69
-3.02
-5.57
-8.63
-12.49
-17.25
-22.65
-28.07
-32.56
-35.10
-34.88
-31.61
-25.62
-17.80
-9.28
-1.12
5.91
11.44
15.44
18.11
19.70
20.50
20.76
20.73
20.66
20.77
21.19
21.94
22.93
24.02
25.07
26.01
26.82
27.56
28.22
28.73
28.96
28.71
27.82
26.20
23.84
20.76
17.04
12.67
7.65
2.03
-4.01
-9.96
-15.11
-18.61
-19.76
-18.21
-14.14
-8.15
-1.11
6.09
12.72
18.22
22.24
24.61
25.34
24.61
22.80
20.36
17.69
15.17
13.07
11.56
10.75
10.62
10.96
11.41
11.54
11.09
10.12
8.99
8.17
7.90
8.02
7.94
6.93
4.43
0.21
-5.54
-12.36
-19.65
-26.61
-32.27
-35.47
-35.14
-30.68
-22.32
-11.26
0.65
11.47
19.81
25.19
27.95
28.99
29.23
29.27
29.27
29.08
28.47
27.23
25.39
23.12
20.69
18.35
16.22
14.22
12.18
9.88
7.24
4.32
1.37
-1.41
-3.93
-6.38
-9.06
-12.35
-16.41
-21.21
-26.52
-31.99
-37.13
-41.35
-43.84
-43.80
-40.60
-34.18
-25.17
-14.84
-4.71
3.90
10.23
14.23
16.40
17.46
18.04
18.49
18.82
18.88
18.55
17.90
17.23
16.92
17.30
18.37
19.86
21.27
22.11
22.13
21.37
20.17
18.83
17.54
16.15
14.37
11.87
8.50
4.28
-0.61
-5.92
-11.40
-16.69
-21.25
-24.38
-25.29
-23.46
-18.90
-12.26
-4.67
2.62
8.77
13.53
17.13
20.03
22.58
24.80
26.46
27.29
27.25
26.54
25.51
24.47
23.49
22.38
20.91
18.92
16.50
13.85
11.28
8.95
6.87
4.88
2.76
0.40
-2.17
-4.80
-7.33
-9.71
-12.13
-14.92
-18.39
-22.61
-27.26
-31.63
-34.83
-36.01
-34.66
-30.77
-24.82
-17.57
-9.89
-2.51
4.04
9.47
13.67
16.63
18.50
19.49
19.95
20.23
20.53
20.89
21.08
20.87
20.11
18.91
17.55
16.36
15.58
15.19
15.02
14.79
14.25
13.17
11.41
8.94
5.88
2.49
-0.91
-4.10
-7.05
-10.01
-13.30
-17.20
-21.71
-26.48
-30.89
-34.14
-35.46
-34.29
-30.50
-24.39
-16.69
-8.38
-0.39
6.57
12.22
16.62
19.98
22.44
23.95
24.32
23.37
21.14
17.96
14.34
10.87
7.94
5.75
4.27
3.34
2.80
2.50
2.28
1.91
1.16
-0.12
-1.93
-4.05
-6.17
-8.03
-9.57
-11.03
-12.76
-15.09
-18.14
-21.66
-25.12
-27.83
-29.12
-28.55
-25.96
-21.49
-15.56
-8.81
-1.95
4.35
9.58
13.47
16.01
17.33
17.61
17.00
15.61
13.58
11.10
8.39
5.74
3.40
1.55
0.35
-0.17
-0.07
0.44
1.02
1.29
0.96
-0.03
-1.55
-3.31
-5.07
-6.78
-8.59
-10.84
-13.79
-17.58
-22.06
-26.81
-31.19
-34.40
-35.74
-34.68
-31.10
-25.29
-17.92
-9.90
-2.13
4.63
9.88
13.47
15.53
16.40
16.54
16.36
16.17
16.04
15.82
15.26
14.18
12.59
10.75
8.99
7.58
6.61
5.91
5.21
4.31
3.13
1.71
0.16
-1.50
-3.35
-5.54
-8.24
-11.53
-15.43
-19.87
-24.63
-29.24
-33.01
-35.14
-34.87
-31.85
-26.27
-18.87
-10.76
-3.03
3.47
8.39
11.78
13.93
15.17
15.76
15.87
15.59
15.07
14.45
13.81
13.16
12.43
11.51
10.46
9.42
8.62
8.21
8.16
8.15
7.75
6.58
4.47
1.64
-1.46
-4.35
-6.75
-8.80
-10.88
-13.48
-16.88
-21.01
-25.42
-29.41
-32.24
-33.26
-32.05
-28.50
-22.87
-15.76
-8.05
-0.74
5.35
9.80
12.67
14.31
15.24
15.85
16.27
16.50
16.39
15.91
15.08
14.10
13.21
12.63
12.48
12.73
13.15
13.45
13.33
12.56
11.06
8.89
6.17
3.11
-0.05
-3.06
-5.67
-7.77
-9.45
-10.96
-12.71
-15.09
-18.32
-22.35
-26.83
-31.08
-34.23
-35.38
-33.85
-29.48
-22.73
-14.64
-6.47
0.63
6.07
9.82
12.31
14.08
15.52
16.70
17.49
17.74
17.45
16.84
16.26
16.01
16.20
16.61
16.87
16.67
15.89
14.76
13.68
12.91
12.45
11.92
10.80
8.70
5.57
1.74
-2.25
-5.89
-8.91
-11.30
-13.27
-15.15
-17.30
-19.96
-23.24
-26.90
-30.37
-32.85
-33.50
-31.74
-27.49
-21.26
-13.94
-6.55
0.04
5.35
9.24
11.89
13.51
14.29
14.37
13.95
13.33
12.91
12.98
13.60
14.49
15.24
15.51
15.26
14.73
14.23
13.87
13.41
12.40
10.50
7.71
4.46
1.32
-1.31
-3.44
-5.41
-7.71
-10.72
-14.48
-18.79
-23.20
-27.16
-30.07
-31.37
-30.59
-27.57
-22.49
-15.93
-8.73
-1.77
4.28
9.02
12.35
14.43
15.56
16.08
16.30
16.39
16.32
15.93
15.02
13.55
11.70
9.86
8.47
7.74
7.61
7.74
7.71
7.20
6.11
4.54
2.62
0.50
-1.76
-4.08
-6.39
-8.69
-11.06
-13.74
-17.01
-21.06
-25.66
-30.15
-33.53
-34.76
-33.19
-28.78
-22.15
-14.35
-6.54
0.42
6.07
10.36
13.45
15.61
17.05
17.89
18.25
18.17
17.74
17.02
16.07
14.94
13.74
12.60
11.68
11.14
11.05
11.32
11.69
11.76
11.16
9.61
7.12
3.92
0.46
-2.80
-5.47
-7.47
-9.00
-10.56
-12.78
-16.17
-20.86
-26.46
-32.03
-36.29
-38.03
-36.52
-31.72
-24.34
-15.60
-6.87
0.75
6.65
10.82
13.63
15.60
17.14
18.32
19.06
19.23
18.89
18.28
17.71
17.35
17.15
16.88
16.31
15.38
14.21
13.07
12.19
11.63
11.27
10.79
9.89
8.34
6.11
3.40
0.52
-2.30
-4.99
-7.67
-10.58
-13.88
-17.45
-21.09
-24.57
-27.76
-30.65
-33.17
-34.97
-35.40
-33.72
-29.48
-22.83
-14.58
-5.96
1.82
7.98
12.36
15.32
17.42
19.11
20.48
21.34
21.38
20.51
18.94
17.24
16.06
15.77
16.32
17.23
17.86
17.75
16.80
15.28
13.66
12.37
11.57
11.13
10.71
9.88
8.38
6.10
3.18
-0.08
-3.35
-6.32
-8.85
-11.00
-13.03
-15.21
-17.86
-21.11
-24.94
-29.06
-32.92
-35.72
-36.66
-35.08
-30.77
-24.10
-15.88
-7.17
1.10
8.29
14.19
18.85
22.39
24.96
26.64
27.63
28.18
28.63
29.25
30.21
31.46
32.82
34.04
34.96
35.47
35.55
35.23
34.56
33.65
32.66
31.79
31.17
30.78
30.45
29.89
28.84
27.17
24.95
22.42
19.88
17.59
15.64
13.95
12.31
10.42
8.03
4.96
1.31
-2.59
-6.12
-8.51
-8.95
-6.81
-1.84
5.76
15.34
25.94
36.49
46.03
53.80
59.42
62.74
63.93
63.29
61.20
58.03
53.99
49.12
43.27
36.27
28.11
18.96
9.20
-0.85
-11.05
-21.44
-32.15
-43.22
-54.45
-65.46
-75.75
-84.86
-92.46
-98.36
-102.45
-104.73
-105.36
-104.75
-103.50
-102.30
-101.69
-101.86
-102.49
-102.84
-101.90
-98.76
-92.93
-84.61
-74.63
-64.25
-54.66
-46.60
-40.05
-34.36
-28.51
-21.66
-13.48
-4.35
4.84
12.95
19.05
22.69
24.02
23.63
22.36
21.00
20.09
19.90
20.41
21.47
22.80
24.13
25.15
25.56
25.08
23.61
21.21
18.13
14.78
11.56
8.67
6.06
3.45
0.47
-2.94
-6.42
-9.01
-9.46
-6.73
-0.40
9.12
20.68
32.83
44.32
54.41
62.90
70.02
76.08
81.31
85.74
89.35
92.14
94.22
95.88
97.46
99.25
101.36
103.56
105.31
105.73
103.86
98.81
90.06
77.69
62.46
45.74
29.22
14.42
2.20
-7.61
-16.16
-25.16
-36.20
-50.13
-66.67
-84.48
-101.58
-115.96
-126.22
-131.96
-133.90
-133.55
-132.76
-133.11
-135.47
-139.93
-145.83
-152.03
-156.95
-158.79
-155.56
-145.52
-127.68
-102.40
-71.66
-38.82
-7.80
18.02
36.62
47.65
52.13
51.79
48.36
43.17
37.09
30.69
24.45
18.82
14.09
10.26
6.96
3.65
-0.11
-4.38
-8.88
-13.26
-17.38
-21.49
-26.04
-31.19
-36.49
-40.80
-42.62
-40.76
-34.90
-25.70
-14.59
-3.26
6.94
15.19
21.31
25.58
28.44
30.42
31.93
33.32
34.81
36.51
38.47
40.60
42.72
44.58
45.93
46.69
46.92
46.85
46.67
46.54
46.36
45.89
44.78
42.74
39.67
35.62
30.77
25.37
19.62
13.60
7.26
0.43
-7.12
-15.51
-24.56
-33.69
-41.98
-48.38
-52.13
-52.98
-51.30
-47.88
-43.51
-38.76
-33.82
-28.61
-23.09
-17.44
-12.03
-7.31
-3.61
-0.99
0.73
1.86
2.64
3.25
3.81
4.45
5.40
6.81
8.74
10.92
12.88
13.98
13.74
12.01
9.06
5.53
2.11
-0.66
-2.66
-4.18
-5.78
-8.04
-11.26
-15.31
-19.61
-23.22
-25.09
-24.30
-20.34
-13.27
-3.80
6.93
17.53
26.79
33.97
38.83
41.62
42.79
42.81
42.07
40.92
39.64
38.43
37.38
36.34
35.10
33.40
31.24
28.85
26.64
24.93
23.72
22.74
21.52
19.66
16.99
13.65
9.96
6.20
2.54
-1.01
-4.52
-8.06
-11.66
-15.45
-19.66
-24.63
-30.53
-37.09
-43.46
-48.33
-50.40
-48.81
-43.54
-35.43
-25.73
-15.73
-6.36
1.91
8.93
14.67
19.15
22.38
24.45
25.63
26.21
26.48
26.59
26.63
26.59
26.51
26.47
26.52
26.68
26.84
26.85
26.52
25.74
24.48
22.79
20.71
18.22
15.32
11.96
8.18
4.16
0.10
-3.79
-7.40
-10.69
-13.75
-16.66
-19.62
-22.92
-26.86
-31.55
-36.66
-41.30
-44.18
-44.06
-40.30
-33.14
-23.74
-13.68
-4.43
3.08
8.49
11.80
13.08
12.43
10.10
6.63
2.92
-0.04
-1.48
-1.18
0.50
2.87
5.26
7.30
8.91
10.18
11.13
11.74
11.89
11.54
10.76
9.64
8.25
6.52
4.29
1.40
-2.19
-6.30
-10.64
-14.83
-18.57
-21.66
-24.12
-26.09
-27.90
-29.87
-32.20
-34.97
-37.91
-40.49
-41.99
-41.60
-38.67
-32.88
-24.49
-14.22
-3.13
7.74
17.61
26.16
33.36
39.40
44.41
48.40
51.38
53.41
54.69
55.43
55.78
55.73
55.11
53.77
51.71
49.13
46.35
43.61
40.93
38.13
34.94
31.23
27.18
23.18
19.64
16.70
14.14
11.49
8.32
4.42
-0.16
-5.16
-10.46
-16.08
-22.20
-28.94
-36.07
-43.07
-49.14
-53.46
-55.45
-54.90
-51.96
-47.06
-40.75
-33.59
-26.07
-18.56
-11.38
-4.78
0.90
5.36
8.41
10.03
10.44
10.09
9.49
9.10
9.28
10.13
11.60
13.49
15.60
17.79
19.97
22.03
23.78
24.86
24.91
23.73
21.43
18.45
15.43
13.00
11.55
11.20
11.75
12.80
13.77
13.93
12.59
9.31
4.26
-1.74
-7.36
-11.25
-12.59
-11.31
-8.09
-3.97
0.16
3.77
6.76
9.22
11.25
12.83
13.89
14.43
14.53
14.38
14.05
13.44
12.34
10.49
7.89
4.80
1.72
-0.81
-2.44
-3.10
-3.04
-2.68
-2.55
-3.10
-4.60
-7.02
-10.11
-13.46
-16.67
-19.51
-21.95
-24.19
-26.45
-28.94
-31.69
-34.51
-36.98
-38.52
-38.53
-36.55
-32.51
-26.78
-20.11
-13.38
-7.27
-2.05
2.36
6.20
9.65
12.63
15.00
16.61
17.52
18.00
18.38
18.87
19.50
20.08
20.29
19.87
18.67
16.74
14.25
11.40
8.38
5.30
2.21
-0.92
-4.08
-7.28
-10.46
-13.52
-16.41
-19.17
-21.96
-25.07
-28.79
-33.27
-38.42
-43.73
-48.37
-51.43
-52.10
-50.04
-45.46
-39.04
-31.71
-24.38
-17.67
-11.88
-7.05
-3.07
0.18
2.78
4.80
6.30
7.37
8.10
8.61
8.99
9.33
9.71
10.18
10.74
11.35
11.92
12.31
12.46
12.29
11.75
10.77
9.28
7.19
4.50
1.37
-1.97
-5.23
-8.23
-10.96
-13.64
-16.58
-20.10
-24.33
-29.16
-34.16
-38.63
-41.76
-42.78
-41.24
-37.20
-31.16
-24.04
-16.76
-9.98
-4.02
1.19
5.79
9.85
13.21
15.65
17.03
17.48
17.41
17.26
17.37
17.79
18.33
18.63
18.49
17.89
17.01
16.14
15.42
14.86
14.21
13.19
11.49
9.07
6.06
2.75
-0.62
-4.02
-7.58
-11.59
-16.29
-21.72
-27.55
-33.16
-37.73
-40.46
-40.78
-38.47
-33.68
-26.90
-18.82
-10.23
-1.92
5.46
11.50
16.06
19.30
21.47
22.88
23.74
24.13
24.17
24.00
23.85
23.89
24.09
24.24
23.89
22.82
21.02
18.86
16.87
15.47
14.66
14.09
13.13
11.25
8.27
4.37
0.03
-4.29
-8.29
-11.98
-15.57
-19.39
-23.74
-28.69
-34.06
-39.36
-43.79
-46.42
-46.48
-43.56
-37.87
-30.17
-21.53
-13.01
-5.27
1.46
7.27
12.33
16.71
20.33
23.00
24.72
25.65
26.10
26.43
26.84
27.31
27.65
27.65
27.19
26.34
25.27
24.25
23.42
22.73
21.94
20.71
18.76
15.98
12.56
8.82
5.15
1.80
-1.16
-3.89
-6.65
-9.72
-13.32
-17.55
-22.44
-27.90
-33.65
-39.17
-43.64
-46.14
-45.86
-42.43
-36.06
-27.58
-18.14
-8.91
-0.69
6.19
11.79
16.40
20.22
23.35
25.70
27.19
27.88
27.96
27.78
27.72
27.96
28.49
29.03
29.21
28.81
27.88
26.70
25.63
24.87
24.25
23.39
21.88
19.52
16.42
12.90
9.27
5.67
2.11
-1.46
-5.01
-8.41
-11.61
-14.71
-18.04
-22.05
-27.06
-33.05
-39.45
-45.26
-49.28
-50.43
-48.14
-42.53
-34.37
-24.84
-15.08
-5.96
2.07
8.85
14.36
18.64
21.67
23.55
24.46
24.63
24.30
23.72
23.15
22.82
22.83
23.10
23.34
23.20
22.49
21.34
20.13
19.22
18.71
18.27
17.29
15.28
12.10
8.12
3.97
0.23
-2.90
-5.62
-8.42
-11.84
-16.19
-21.50
-27.45
-33.48
-38.83
-42.63
-44.07
-42.55
-37.94
-30.65
-21.62
-12.07
-3.17
4.27
9.92
13.88
16.49
18.12
19.04
19.41
19.28
18.73
17.89
16.94
16.00
15.14
14.29
13.34
12.23
10.97
9.65
8.40
7.24
6.08
4.70
2.91
0.59
-2.20
-5.33
-8.68
-12.20
-15.97
-20.14
-24.86
-30.25
-36.24
-42.63
-48.88
-54.28
-57.95
-59.04
-56.98
-51.67
-43.60
-33.67
-23.01
-12.59
-3.08
5.20
12.20
17.93
22.31
25.25
26.70
26.79
25.95
24.66
23.41
22.52
22.12
22.19
22.70
23.56
24.65
25.77
26.59
26.81
26.21
24.69
22.32
19.29
15.88
12.45
9.38
7.01
5.53
4.83
4.54
4.13
3.09
1.11
-1.78
-5.26
-8.73
-11.43
-12.60
-11.66
-8.40
-3.08
3.57
10.54
16.84
21.71
24.89
26.55
27.23
27.58
28.08
28.92
29.88
30.53
30.47
29.51
27.76
25.63
23.54
21.84
20.64
19.84
19.25
18.63
17.80
16.60
14.93
12.72
9.93
6.59
2.84
-1.13
-5.05
-8.63
-11.74
-14.51
-17.28
-20.62
-24.93
-30.26
-36.07
-41.37
-44.94
-45.75
-43.34
-37.94
-30.44
-21.99
-13.77
-6.58
-0.77
3.69
7.10
9.77
11.93
13.67
14.99
15.88
16.40
16.61
16.55
16.24
15.67
14.81
13.68
12.37
11.00
9.67
8.41
7.16
5.76
3.99
1.66
-1.26
-4.61
-8.05
-11.25
-13.98
-16.29
-18.52
-21.16
-24.68
-29.23
-34.42
-39.38
-42.91
-43.87
-41.58
-36.08
-28.12
-18.86
-9.48
-0.90
6.41
12.32
16.85
20.11
22.23
23.41
23.94
24.10
24.04
23.81
23.34
22.61
21.71
20.84
20.18
19.75
19.36
18.65
17.27
15.08
12.17
8.85
5.49
2.34
-0.58
-3.41
-6.44
-9.93
-14.07
-18.85
-24.08
-29.37
-34.13
-37.65
-39.19
-38.13
-34.18
-27.52
-18.85
-9.29
-0.14
7.56
13.27
17.06
19.57
21.57
23.65
25.92
28.06
29.52
29.86
29.01
27.24
25.06
22.88
20.94
19.24
17.64
16.03
14.36
12.58
10.60
8.25
5.33
1.79
-2.16
-6.14
-9.71
-12.68
-15.14
-17.57
-20.55
-24.56
-29.54
-34.90
-39.53
-42.22
-42.05
-38.72
-32.67
-24.82
-16.27
-8.04
-0.81
5.05
9.41
12.34
14.12
15.14
15.90
16.75
17.86
19.12
20.21
20.82
20.76
20.06
18.88
17.45
15.95
14.51
13.22
12.06
10.89
9.47
7.49
4.75
1.29
-2.66
-6.67
-10.43
-13.81
-17.04
-20.52
-24.71
-29.82
-35.69
-41.75
-47.14
-50.87
-52.10
-50.36
-45.69
-38.69
-30.35
-21.83
-14.10
-7.72
-2.80
0.96
3.92
6.42
8.60
10.44
11.92
13.08
14.05
14.94
15.76
16.36
16.50
16.10
15.25
14.24
13.41
12.95
12.77
12.49
11.67
9.96
7.28
3.88
0.22
-3.20
-6.05
-8.28
-10.09
-11.86
-14.07
-17.13
-21.25
-26.35
-32.00
-37.33
-41.23
-42.62
-40.81
-35.81
-28.30
-19.41
-10.39
-2.13
4.91
10.65
15.19
18.61
20.93
22.24
22.71
22.59
22.20
21.77
21.48
21.47
21.81
22.50
23.41
24.30
24.93
25.14
24.99
24.67
24.37
24.07
23.48
22.17
19.75
16.14
11.55
6.38
0.94
-4.63
-10.37
-16.29
-22.09
-26.99
-29.97
-30.10
-26.95
-20.87
-12.91
-4.41
3.46
9.97
14.93
18.53
21.00
22.56
23.24
23.15
22.40
21.21
19.80
18.29
16.76
15.20
13.64
12.15
10.84
9.83
9.15
8.72
8.30
7.58
6.24
4.12
1.22
-2.24
-6.03
-9.97
-14.06
-18.51
-23.52
-29.22
-35.36
-41.33
-46.15
-48.74
-48.22
-44.26
-37.22
-28.09
-18.17
-8.65
-0.30
6.63
12.28
16.86
20.51
23.16
24.75
25.34
25.18
24.65
24.06
23.52
22.90
21.96
20.59
18.86
17.09
15.65
14.81
14.48
14.26
13.57
11.92
9.12
5.37
1.13
-3.12
-7.12
-10.97
-15.02
-19.72
-25.35
-31.87
-38.87
-45.62
-51.16
-54.51
-54.87
-51.84
-45.54
-36.58
-25.97
-14.85
-4.28
4.98
12.50
18.24
22.39
25.28
27.26
28.63
29.53
30.04
30.17
29.94
29.41
28.64
27.72
26.67
25.57
24.46
23.52
22.88
22.60
22.56
22.44
21.80
20.22
17.54
13.91
9.78
5.73
2.27
-0.36
-2.22
-3.65
-5.15
-7.30
-10.61
-15.43
-21.73
-28.96
-36.00
-41.39
-43.75
-42.32
-37.19
-29.37
-20.32
-11.47
-3.77
2.47
7.34
11.13
14.05
16.16
17.49
18.13
18.27
18.11
17.84
17.56
17.32
17.12
16.94
16.78
16.58
16.30
15.87
15.18
14.06
12.30
9.74
6.34
2.32
-1.89
-5.77
-8.98
-11.49
-13.64
-15.99
-19.03
-23.16
-28.40
-34.46
-40.62
-45.85
-48.93
-48.81
-44.99
-37.70
-27.99
-17.32
-7.16
1.42
7.97
12.63
15.88
18.24
20.10
21.53
22.41
22.55
21.85
20.46
18.72
17.16
16.20
16.05
16.63
17.62
18.52
18.89
18.42
16.95
14.58
11.49
7.96
4.25
0.57
-2.95
-6.36
-9.82
-13.70
-18.31
-23.77
-29.69
-35.16
-38.94
-39.90
-37.45
-31.80
-23.88
-14.99
-6.34
1.28
7.56
12.47
16.11
18.53
19.78
19.94
19.23
17.97
16.49
15.07
13.83
12.79
11.90
11.08
10.37
9.81
9.44
9.19
8.85
8.11
6.70
4.49
1.58
-1.78
-5.34
-9.03
-12.94
-17.30
-22.30
-27.97
-34.09
-40.05
-45.01
-47.98
-48.08
-44.82
-38.33
-29.39
-19.27
-9.33
-0.62
6.38
11.73
15.85
19.19
21.94
24.10
25.45
25.85
25.28
23.94
22.09
20.03
18.02
16.26
14.92
14.09
13.81
13.89
13.95
13.49
12.10
9.58
6.13
2.16
-1.84
-5.55
-8.97
-12.47
-16.60
-21.82
-28.25
-35.46
-42.44
-47.86
-50.46
-49.41
-44.65
-36.81
-27.04
-16.60
-6.61
2.20
9.45
15.11
19.31
22.31
24.38
25.78
26.70
27.19
27.24
26.77
25.75
24.29
22.61
21.02
19.80
19.11
18.88
18.86
18.67
17.93
16.37
13.95
10.79
7.15
3.35
-0.38
-3.92
-7.33
-10.80
-14.58
-18.93
-24.01
-29.76
-35.77
-41.29
-45.18
-46.33
-43.97
-38.00
-29.09
-18.50
-7.73
1.95
9.72
15.39
19.17
21.55
23.09
24.20
25.08
25.69
25.84
25.33
24.20
22.65
21.08
19.82
19.04
18.67
18.49
18.25
17.77
16.92
15.58
13.62
10.89
7.40
3.31
-1.01
-5.18
-8.93
-12.27
-15.56
-19.30
-23.90
-29.37
-35.17
-40.17
-43.06
-42.75
-38.76
-31.53
-22.21
-12.30
-3.13
4.51
10.51
15.16
18.92
21.98
24.22
25.33
25.03
23.33
20.59
17.50
14.73
12.79
11.83
11.72
12.13
12.71
13.11
13.08
12.46
11.17
9.19
6.62
3.61
0.43
-2.74
-5.81
-8.90
-12.28
-16.32
-21.21
-26.86
-32.72
-37.88
-41.22
-41.76
-39.04
-33.24
-25.16
-15.92
-6.59
2.04
9.56
15.83
20.83
24.53
26.88
27.87
27.63
26.48
24.80
22.96
21.17
19.48
17.81
16.10
14.38
12.83
11.69
11.08
10.91
10.80
10.25
8.82
6.35
3.03
-0.79
-4.70
-8.44
-11.98
-15.48
-19.19
-23.36
-28.07
-33.15
-38.13
-42.18
-44.39
-43.95
-40.44
-34.04
-25.43
-15.64
-5.73
3.43
11.31
17.73
22.71
26.42
29.05
30.84
31.96
32.60
32.85
32.78
32.37
31.58
30.40
28.91
27.27
25.72
24.42
23.34
22.33
21.08
19.33
16.93
13.80
10.07
5.99
1.87
-2.01
-5.43
-8.44
-11.20
-14.00
-17.16
-20.95
-25.52
-30.81
-36.44
-41.66
-45.41
-46.62
-44.52
-39.01
-30.74
-20.98
-11.24
-2.73
3.88
8.56
11.73
13.95
15.75
17.40
19.01
20.52
21.85
22.89
23.58
23.85
23.61
22.80
21.44
19.74
18.06
16.78
16.10
15.95
15.89
15.38
13.92
11.32
7.75
3.71
-0.21
-3.51
-6.04
-7.94
-9.64
-11.61
-14.24
-17.68
-21.83
-26.34
-30.64
-34.06
-35.92
-35.66
-32.95
-27.85
-20.87
-12.85
-4.83
2.24
7.72
11.45
13.70
15.06
16.10
17.17
18.26
19.10
19.25
18.48
16.88
14.81
12.85
11.41
10.67
10.50
10.57
10.52
10.00
8.79
6.75
3.89
0.31
-3.73
-7.87
-11.76
-15.14
-18.01
-20.61
-23.36
-26.71
-30.92
-35.85
-40.89
-45.02
-47.06
-46.03
-41.55
-33.96
-24.25
-13.79
-3.84
4.67
11.29
16.03
19.08
20.73
21.26
20.90
19.98
18.81
17.72
16.92
16.39
15.95
15.32
14.39
13.30
12.46
12.24
12.79
13.84
14.74
14.82
13.65
11.28
8.15
4.90
2.05
-0.19
-2.02
-3.88
-6.31
-9.70
-14.14
-19.36
-24.70
-29.27
-32.12
-32.52
-30.07
-24.88
-17.54
-8.99
-0.34
7.45
13.75
18.42
21.67
23.91
25.48
26.52
27.04
27.04
26.50
25.47
23.92
21.78
18.90
15.31
11.24
7.22
3.88
1.64
0.49
-0.03
-0.69
-2.23
-5.07
-9.18
-14.12
-19.28
-24.11
-28.30
-31.81
-34.84
-37.71
-40.71
-44.06
-47.71
-51.32
-54.27
-55.65
-54.56
-50.35
-42.86
-32.52
-20.32
-7.54
4.53
14.92
23.21
29.45
34.02
37.36
39.77
41.27
41.71
41.03
39.43
37.41
35.55
34.22
33.32
32.32
30.55
27.61
23.66
19.34
15.51
12.78
11.24
10.58
10.25
9.86
9.29
8.62
7.94
7.20
6.16
4.54
2.27
-0.44
-3.16
-5.50
-7.29
-8.68
-10.00
-11.48
-13.08
-14.39
-14.89
-14.20
-12.37
-9.93
-7.71
-6.49
-6.66
-8.13
-10.31
-12.43
-13.82
-14.05
-13.02
-10.92
-8.06
-4.74
-1.20
2.37
5.81
8.97
11.66
13.76
15.21
16.01
16.26
16.05
15.49
14.65
13.61
12.38
10.90
9.07
6.83
4.20
1.34
-1.46
-3.88
-5.61
-6.51
-6.65
-6.25
-5.66
-5.12
-4.83
-4.81
-5.01
-5.35
-5.74
-6.16
-6.59
-7.08
-7.61
-8.07
-8.34
-8.32
-7.96
-7.27
-6.31
-5.02
-3.31
-0.99
2.07
5.96
10.65
16.02
21.88
27.89
33.56
38.18
40.98
41.31
38.86
33.81
26.83
18.93
11.15
4.26
-1.38
-5.87
-9.62
-13.14
-16.70
-20.27
-23.51
-25.88
-26.93
-26.43
-24.47
-21.33
-17.45
-13.27
-9.16
-5.48
-2.48
-0.31
1.05
1.82
2.30
2.80
3.52
4.53
5.78
7.17
8.58
9.86
10.83
11.23
10.82
9.39
6.86
3.35
-0.75
-4.97
-8.88
-12.29
-15.26
-18.00
-20.79
-23.80
-27.10
-30.69
-34.61
-38.97
-43.73
-48.66
-53.17
-56.45
-57.74
-56.57
-52.97
-47.37
-40.38
-32.66
-24.76
-17.18
-10.37
-4.68
-0.33
2.75
4.80
6.22
7.34
8.30
9.13
9.79
10.36
10.99
11.79
12.73
13.55
13.86
13.36
12.02
10.07
7.93
5.91
4.10
2.34
0.35
-2.05
-4.90
-8.07
-11.40
-14.86
-18.54
-22.52
-26.80
-31.04
-34.65
-36.87
-37.01
-34.64
-29.84
-23.06
-15.12
-6.89
0.84
7.58
13.11
17.46
20.71
22.98
24.34
24.88
24.75
24.13
23.28
22.39
21.55
20.73
19.88
19.02
18.20
17.57
17.19
16.98
16.62
15.71
13.92
11.15
7.61
3.76
0.05
-3.21
-6.05
-8.80
-11.93
-15.83
-20.65
-26.21
-31.96
-37.08
-40.66
-41.93
-40.37
-35.92
-28.97
-20.34
-11.01
-1.94
6.07
12.56
17.34
20.49
22.22
22.91
22.93
22.70
22.52
22.51
22.67
22.84
22.84
22.58
22.05
21.31
20.47
19.58
18.60
17.44
15.96
14.04
11.58
8.53
4.99
1.16
-2.70
-6.32
-9.60
-12.72
-16.08
-20.19
-25.31
-31.41
-37.95
-44.07
-48.75
-51.10
-50.54
-46.90
-40.48
-31.95
-22.26
-12.36
-3.07
5.14
12.09
17.81
22.44
26.05
28.66
30.29
31.05
31.18
30.95
30.64
30.39
30.23
30.00
29.55
28.73
27.52
26.06
24.55
23.14
21.89
20.68
19.24
17.33
14.77
11.59
7.94
4.09
0.30
-3.33
-6.80
-10.32
-14.09
-18.32
-23.09
-28.23
-33.36
-37.86
-40.99
-42.03
-40.47
-36.17
-29.40
-20.90
-11.65
-2.74
5.00
11.11
15.63
18.83
21.09
22.67
23.60
23.87
23.49
22.69
21.83
21.27
21.20
21.51
21.92
22.07
21.75
20.88
19.56
17.92
16.07
14.10
12.00
9.70
7.04
3.91
0.31
-3.57
-7.35
-10.64
-13.20
-15.15
-16.87
-18.97
-22.03
-26.40
-32.04
-38.50
-44.89
-50.03
-52.75
-52.15
-47.93
-40.46
-30.68
-19.84
-9.12
0.59
8.80
15.37
20.41
24.14
26.77
28.43
29.18
29.07
28.17
26.68
24.95
23.34
22.18
21.65
21.75
22.33
23.07
23.65
23.67
22.83
20.92
17.98
14.18
9.84
5.25
0.70
-3.65
-7.68
-11.41
-14.97
-18.62
-22.59
-26.86
-31.06
-34.40
-35.88
-34.68
-30.50
-23.73
-15.28
-6.32
2.17
9.59
15.75
20.70
24.53
27.24
28.75
29.07
28.34
26.87
25.08
23.34
21.88
20.71
19.70
18.71
17.68
16.73
15.96
15.39
14.80
13.78
11.93
9.06
5.36
1.31
-2.55
-5.90
-8.78
-11.57
-14.76
-18.76
-23.81
-29.96
-36.98
-44.35
-51.15
-56.11
-57.93
-55.73
-49.44
-39.92
-28.70
-17.39
-7.16
1.51
8.73
14.81
19.92
24.02
26.95
28.67
29.36
29.44
29.27
29.08
28.82
28.29
27.32
25.92
24.29
22.74
21.52
20.67
19.99
19.11
17.63
15.22
11.84
7.66
3.00
-1.75
-6.29
-10.48
-14.29
-17.84
-21.34
-25.07
-29.39
-34.62
-40.74
-47.27
-53.13
-56.91
-57.23
-53.28
-45.22
-34.15
-21.80
-9.94
0.18
8.07
13.97
18.45
22.07
25.13
27.61
29.42
30.52
31.06
31.30
31.51
31.84
32.29
32.69
32.87
32.71
32.16
31.27
30.18
29.00
27.79
26.48
24.81
22.43
19.01
14.50
9.14
3.45
-1.93
-6.59
-10.40
-13.59
-16.53
-19.56
-22.87
-26.61
-30.86
-35.65
-40.78
-45.65
-49.22
-50.29
-47.98
-42.08
-33.19
-22.51
-11.36
-0.81
8.57
16.50
22.96
28.00
31.77
34.53
36.61
38.19
39.25
39.58
39.00
37.54
35.59
33.72
32.41
31.81
31.74
31.82
31.78
31.51
31.00
30.20
28.89
26.78
23.67
19.68
15.28
11.09
7.58
4.80
2.47
0.09
-2.70
-5.96
-9.46
-12.89
-16.08
-19.09
-22.04
-24.91
-27.36
-28.78
-28.54
-26.30
-22.12
-16.52
-10.28
-4.13
1.34
5.73
8.91
10.86
11.73
11.84
11.57
11.27
11.22
11.49
12.02
12.70
13.41
14.09
14.75
15.41
16.06
16.67
17.21
17.61
17.82
17.74
17.18
15.99
14.07
11.52
8.59
5.61
2.87
0.49
-1.58
-3.49
-5.36
-7.21
-8.94
-10.30
-11.07
-11.05
-10.12
-8.33
-5.82
-2.80
0.49
3.82
6.99
9.70
11.62
12.32
11.50
9.11
5.47
1.28
-2.62
-5.54
-7.19
-7.70
-7.59
-7.46
-7.79
-8.76
-10.27
-11.98
-13.45
-14.31
-14.32
-13.52
-12.15
-10.63
-9.34
-8.51
-8.17
-8.22
-8.60
-9.29
-10.39
-11.98
-14.06
-16.44
-18.79
-20.75
-21.95
-22.07
-20.83
-18.11
-14.00
-8.91
-3.57
1.14
4.44
5.94
5.76
4.50
2.91
1.66
1.04
0.98
1.15
1.20
0.93
0.39
-0.30
-0.96
-1.55
-2.19
-3.05
-4.27
-5.84
-7.57
-9.17
-10.47
-11.51
-12.55
-14.01
-16.19
-19.08
-22.33
-25.30
-27.40
-28.39
-28.47
-28.26
-28.46
-29.60
-31.80
-34.74
-37.79
-40.20
-41.27
-40.47
-37.55
-32.53
-25.72
-17.66
-9.05
-0.65
6.90
13.10
17.78
21.03
23.14
24.49
25.42
26.10
26.55
26.68
26.36
25.53
24.32
22.96
21.79
21.00
20.63
20.46
20.13
19.32
17.94
16.15
14.23
12.41
10.65
8.71
6.31
3.38
0.14
-3.00
-5.63
-7.62
-9.09
-10.41
-11.96
-14.02
-16.67
-19.88
-23.39
-26.81
-29.58
-31.02
-30.60
-28.08
-23.63
-17.80
-11.30
-4.77
1.29
6.50
10.62
13.46
15.01
15.41
15.05
14.36
13.69
13.20
12.80
12.32
11.62
10.75
9.89
9.29
9.06
9.15
9.35
9.36
8.99
8.16
6.98
5.59
4.11
2.61
1.10
-0.38
-1.81
-3.20
-4.71
-6.73
-9.63
-13.59
-18.20
-22.48
-25.12
-24.99
-21.67
-15.66
-8.24
-0.91
5.11
9.26
11.68
12.90
13.50
13.88
14.06
13.88
13.13
11.76
9.94
8.00
6.36
5.29
4.85
4.88
5.05
4.99
4.48
3.45
1.99
0.23
-1.72
-3.86
-6.20
-8.79
-11.56
-14.41
-17.29
-20.30
-23.69
-27.67
-32.17
-36.64
-40.07
-41.25
-39.33
-34.14
-26.39
-17.36
-8.45
-0.62
5.78
10.93
15.19
18.80
21.77
24.00
25.39
25.98
25.89
25.25
24.12
22.55
20.70
18.86
17.38
16.45
16.03
15.83
15.48
14.79
13.77
12.56
11.27
9.78
7.85
5.24
1.89
-2.01
-6.18
-10.39
-14.49
-18.40
-21.85
-24.38
-25.37
-24.27
-20.90
-15.58
-9.11
-2.45
3.49
8.19
11.54
13.77
15.23
16.18
16.76
16.99
16.93
16.76
16.82
17.45
18.80
20.73
22.80
24.51
25.44
25.48
24.75
23.56
22.13
20.53
18.65
16.30
13.43
10.24
7.10
4.45
2.51
1.23
0.26
-0.87
-2.50
-4.62
-6.93
-8.93
-10.03
-9.86
-8.17
-4.98
-0.48
4.99
11.00
17.11
22.92
28.12
32.46
35.73
37.72
38.27
37.30
34.85
31.01
25.91
19.69
12.59
5.06
-2.23
-8.46
-12.93
-15.46
-16.45
-16.80
-17.54
-19.40
-22.58
-26.73
-31.22
-35.42
-38.91
-41.52
-43.25
-44.17
-44.46
-44.28
-43.84
-43.41
-43.23
-43.47
-44.12
-44.85
-45.01
-43.75
-40.32
-34.45
-26.60
-17.82
-9.46
-2.59
2.36
5.59
7.70
9.24
10.43
11.14
11.09
10.21
8.77
7.25
6.21
5.99
6.59
7.69
8.77
9.38
9.20
8.20
6.61
4.77
2.98
1.38
-0.13
-1.82
-3.96
-6.77
-10.23
-14.23
-18.50
-22.70
-26.40
-28.98
-29.66
-27.74
-22.84
-15.18
-5.66
4.37
13.52
20.76
25.75
28.70
30.15
30.70
30.75
30.50
30.01
29.29
28.43
27.51
26.58
25.59
24.41
22.88
20.86
18.35
15.42
12.22
8.92
5.63
2.34
-0.98
-4.34
-7.58
-10.38
-12.31
-13.01
-12.40
-10.73
-8.48
-6.16
-4.14
-2.47
-0.93
0.67
2.36
3.78
4.37
3.47
0.77
-3.54
-8.78
-13.93
-18.11
-20.79
-21.96
-21.99
-21.34
-20.35
-19.09
-17.49
-15.54
-13.43
-11.51
-10.19
-9.59
-9.59
-9.81
-9.81
-9.37
-8.59
-7.80
-7.46
-7.90
-9.14
-10.99
-13.08
-15.12
-16.97
-18.66
-20.44
-22.58
-25.32
-28.67
-32.32
-35.64
-37.72
-37.75
-35.18
-30.06
-22.99
-14.95
-6.98
0.12
6.00
10.70
14.46
17.60
20.29
22.55
24.31
25.45
26.00
26.09
25.93
25.69
25.42
25.01
24.37
23.53
22.68
22.12
22.10
22.57
23.23
23.62
23.35
22.29
20.60
18.62
16.68
14.93
13.39
11.96
10.63
9.36
8.12
6.74
4.86
2.13
-1.53
-5.78
-9.76
-12.34
-12.55
-9.97
-4.96
1.54
8.38
14.62
19.74
23.69
26.61
28.72
30.05
30.58
30.34
29.46
28.21
26.86
25.61
24.45
23.28
21.90
20.21
18.20
16.02
13.86
11.85
10.03
8.36
6.84
5.43
4.12
2.77
1.15
-0.92
-3.53
-6.44
-9.29
-11.66
-13.34
-14.41
-15.15
-15.85
-16.71
-17.75
-18.94
-20.24
-21.53
-22.55
-22.88
-22.06
-19.91
-16.61
-12.81
-9.26
-6.47
-4.54
-3.13
-1.71
0.14
2.52
5.15
7.52
9.11
9.59
8.90
7.37
5.56
4.11
3.53
4.05
5.54
7.55
9.44
10.46
9.93
7.47
3.15
-2.32
-7.78
-11.82
-13.32
-11.81
-7.66
-1.88
4.26
9.64
13.58
15.83
16.41
15.44
13.12
9.80
6.14
3.10
1.75
2.92
6.79
12.80
19.75
26.25
31.14
33.83
34.24
32.64
29.43
25.02
19.80
14.13
8.37
2.78
-2.52
-7.54
-12.34
-16.89
-21.13
-24.96
-28.35
-31.27
-33.75
-35.78
-37.35
-38.54
-39.42
-40.09
-40.56
-40.82
-40.85
-40.78
-41.00
-41.99
-44.16
-47.59
-51.91
-56.27
-59.63
-60.95
-59.63
-55.52
-49.02
-40.96
-32.29
-23.89
-16.28
-9.66
-3.95
1.01
5.36
9.19
12.52
15.46
18.11
20.62
23.10
25.62
28.19
30.75
33.17
35.25
36.78
37.60
37.67
37.08
35.96
34.42
32.38
29.78
26.55
22.89
19.24
16.16
14.11
13.16
12.92
12.68
11.77
9.79
6.85
3.47
0.35
-1.90
-2.98
-2.86
-1.72
0.23
2.79
5.76
8.83
11.51
13.21
13.36
11.59
7.89
2.68
-3.30
-9.22
-14.36
-18.40
-21.34
-23.52
-25.37
-27.24
-29.23
-31.20
-32.81
-33.72
-33.74
-32.94
-31.64
-30.32
-29.40
-29.08
-29.33
-29.99
-30.89
-31.92
-33.05
-34.32
-35.68
-37.12
-38.70
-40.60
-43.05
-46.09
-49.34
-51.89
-52.59
-50.41
-44.90
-36.54
-26.48
-16.21
-6.94
0.77
7.00
12.19
16.73
20.76
24.12
26.63
28.32
29.50
30.59
31.89
33.34
34.58
35.17
34.84
33.72
32.27
31.04
30.37
30.26
30.37
30.24
29.51
27.98
25.66
22.69
19.23
15.52
11.75
8.09
4.67
1.40
-1.90
-5.54
-9.74
-14.52
-19.57
-24.25
-27.72
-29.14
-27.94
-23.99
-17.70
-9.85
-1.41
6.71
13.89
19.77
24.24
27.25
28.92
29.45
29.16
28.48
27.78
27.33
27.22
27.34
27.52
27.60
27.58
27.61
27.96
28.81
30.23
32.01
33.73
34.90
35.14
34.34
32.64
30.41
28.00
25.57
22.98
19.85
15.80
10.65
4.63
-1.65
-7.28
-11.39
-13.30
-12.83
-10.23
-6.12
-1.28
3.58
7.89
11.36
13.90
15.63
16.68
17.20
17.24
16.79
15.90
14.63
13.16
11.57
9.95
8.23
6.28
3.95
1.18
-1.90
-5.03
-7.88
-10.23
-12.05
-13.51
-14.88
-16.36
-18.01
-19.77
-21.51
-23.15
-24.68
-26.16
-27.72
-29.53
-31.73
-34.45
-37.63
-40.99
-43.94
-45.73
-45.64
-43.25
-38.64
-32.37
-25.28
-18.16
-11.55
-5.62
-0.35
4.27
8.16
11.07
12.86
13.55
13.43
12.99
12.65
12.66
12.92
13.18
13.16
12.77
12.08
11.37
10.90
10.82
11.07
11.37
11.35
10.65
9.08
6.68
3.69
0.50
-2.55
-5.25
-7.60
-9.85
-12.45
-15.85
-20.26
-25.53
-30.99
-35.55
-38.09
-37.79
-34.44
-28.52
-20.98
-12.88
-5.05
2.07
8.36
13.94
18.88
23.16
26.61
29.06
30.47
30.96
30.83
30.38
29.86
29.37
28.85
28.22
27.37
26.24
24.85
23.26
21.55
19.76
17.96
16.14
14.21
12.07
9.57
6.56
3.01
-1.00
-5.26
-9.47
-13.33
-16.66
-19.50
-22.05
-24.68
-27.70
-31.29
-35.32
-39.30
-42.48
-43.97
-43.11
-39.58
-33.56
-25.73
-17.07
-8.61
-1.18
4.74
9.12
12.15
14.19
15.60
16.67
17.58
18.44
19.28
19.97
20.42
20.49
20.14
19.42
18.54
17.74
17.27
17.26
17.64
18.21
18.58
18.35
17.20
15.02
12.00
8.50
4.94
1.63
-1.32
-4.03
-6.70
-9.56
-12.77
-16.38
-20.38
-24.57
-28.51
-31.52
-32.80
-31.69
-28.01
-22.25
-15.42
-8.84
-3.54
-0.01
1.93
2.91
3.64
4.55
5.67
6.69
7.28
7.29
6.87
6.37
6.12
6.25
6.65
7.03
7.15
6.91
6.39
5.73
5.02
4.30
3.47
2.45
1.23
-0.18
-1.75
-3.53
-5.63
-8.30
-11.80
-16.28
-21.65
-27.39
-32.55
-35.96
-36.58
-33.92
-28.22
-20.43
-11.82
-3.57
3.58
9.40
14.00
17.55
20.15
21.77
22.44
22.37
21.98
21.74
21.95
22.63
23.39
23.75
23.33
22.07
20.29
18.50
17.20
16.60
16.60
16.85
16.98
16.69
15.86
14.48
12.58
10.25
7.68
5.14
2.93
1.23
-0.03
-1.22
-2.82
-5.21
-8.37
-11.93
-15.15
-17.29
-17.84
-16.69
-14.08
-10.40
-6.12
-1.53
3.20
8.01
12.88
17.66
22.15
26.07
29.23
31.59
33.32
34.70
36.01
37.34
38.42
38.72
37.56
34.45
29.35
22.80
15.74
9.08
3.39
-1.37
-5.71
-10.22
-15.18
-20.38
-25.24
-29.19
-31.98
-33.80
-35.20
-36.71
-38.73
-41.38
-44.57
-48.10
-51.54
-54.26
-55.42
-54.21
-50.16
-43.50
-35.12
-26.28
-18.21
-11.61
-6.59
-2.82
0.17
2.69
4.86
6.64
8.07
9.22
10.28
11.32
12.29
13.09
13.62
13.92
14.11
14.36
14.71
15.11
15.35
15.20
14.46
13.09
11.16
8.87
6.39
3.85
1.31
-1.24
-3.82
-6.38
-8.84
-11.19
-13.54
-16.21
-19.51
-23.51
-27.80
-31.50
-33.49
-32.91
-29.54
-23.93
-17.13
-10.24
-4.00
1.39
6.08
10.35
14.21
17.45
19.72
20.86
20.96
20.41
19.62
18.89
18.28
17.67
16.95
16.10
15.22
14.56
14.26
14.37
14.73
15.01
14.78
13.71
11.62
8.61
5.05
1.46
-1.70
-4.25
-6.29
-8.15
-10.18
-12.58
-15.32
-18.26
-21.25
-24.15
-26.76
-28.66
-29.27
-27.99
-24.50
-19.01
-12.24
-5.19
1.22
6.35
10.00
12.24
13.38
13.71
13.56
13.17
12.68
12.20
11.78
11.45
11.21
11.00
10.71
10.20
9.42
8.44
7.41
6.48
5.66
4.82
3.68
2.05
-0.10
-2.59
-5.24
-7.84
-10.31
-12.67
-14.99
-17.51
-20.50
-24.12
-28.19
-32.06
-34.68
-34.99
-32.35
-26.91
-19.58
-11.69
-4.43
1.49
5.96
9.24
11.70
13.48
14.62
15.03
14.75
14.01
13.15
12.53
12.32
12.46
12.67
12.63
12.13
11.23
10.10
8.93
7.76
6.40
4.58
2.15
-0.83
-4.06
-7.16
-9.87
-12.22
-14.49
-17.14
-20.61
-25.12
-30.45
-35.96
-40.61
-43.26
-43.05
-39.66
-33.50
-25.55
-16.97
-8.80
-1.61
4.39
9.26
13.04
15.73
17.32
17.98
18.09
18.12
18.49
19.32
20.42
21.39
21.85
21.61
20.79
19.69
18.62
17.74
16.91
15.85
14.25
11.97
9.13
6.05
3.15
0.70
-1.28
-3.05
-5.05
-7.74
-11.42
-16.11
-21.50
-26.91
-31.45
-34.09
-34.00
-30.83
-24.79
-16.68
-7.59
1.46
9.82
17.20
23.58
28.97
33.19
36.02
37.32
37.23
36.23
34.95
33.94
33.45
33.39
33.45
33.33
32.80
31.86
30.56
29.03
27.37
25.64
23.86
21.90
19.61
16.77
13.30
9.27
5.01
0.98
-2.38
-4.86
-6.61
-8.11
-10.04
-12.96
-17.12
-22.24
-27.59
-32.16
-34.87
-35.02
-32.42
-27.51
-21.18
-14.52
-8.44
-3.40
0.50
3.50
5.80
7.53
8.64
9.07
8.93
8.45
7.98
7.71
7.59
7.28
6.41
4.77
2.54
0.24
-1.51
-2.21
-1.86
-0.88
0.02
0.20
-0.66
-2.35
-4.34
-6.03
-7.12
-7.78
-8.48
-9.81
-12.13
-15.40
-19.30
-23.34
-27.04
-29.89
-31.40
-31.01
-28.24
-22.95
-15.55
-6.98
1.50
8.73
14.03
17.28
18.86
19.30
19.10
18.58
17.90
17.21
16.61
16.24
16.14
16.26
16.50
16.74
16.94
17.08
17.21
17.31
17.29
17.04
16.38
15.16
13.27
10.69
7.51
3.90
0.05
-3.82
-7.63
-11.44
-15.36
-19.45
-23.52
-27.00
-29.01
-28.70
-25.53
-19.63
-11.80
-3.22
4.96
12.00
17.77
22.52
26.58
30.09
32.90
34.71
35.33
34.87
33.73
32.41
31.29
30.36
29.26
27.43
24.41
20.08
14.73
8.96
3.41
-1.51
-5.61
-8.96
-11.68
-13.86
-15.47
-16.41
-16.63
-16.20
-15.33
-14.35
-13.56
-13.14
-13.05
-13.03
-12.83
-12.34
-11.75
-11.45
-11.82
-12.98
-14.59
-16.13
-17.05
-17.12
-16.54
-15.72
-15.10
-14.85
-14.84
-14.75
-14.30
-13.39
-12.17
-10.92
-9.94
-9.42
-9.36
-9.65
-10.10
-10.46
-10.64
-10.63
-10.57
-10.68
-11.21
-12.28
-13.82
-15.59
-17.24
-18.52
-19.37
-19.99
-20.75
-22.03
-24.09
-26.98
-30.58
-34.54
-38.39
-41.41
-42.82
-41.87
-38.15
-31.80
-23.49
-14.28
-5.20
2.94
9.74
15.11
19.15
22.09
24.22
25.85
27.24
28.55
29.74
30.64
31.11
31.06
30.56
29.70
28.52
27.07
25.41
23.68
22.10
20.85
19.87
18.87
17.42
15.17
12.00
8.09
3.90
-0.12
-3.65
-6.69
-9.47
-12.44
-16.03
-20.56
-26.11
-32.50
-39.32
-45.84
-51.27
-54.63
-55.08
-52.09
-45.66
-36.40
-25.43
-14.12
-3.72
4.92
11.49
16.18
19.46
21.90
23.87
25.59
26.99
28.03
28.67
29.02
29.27
29.59
30.03
30.52
30.88
30.96
30.75
30.29
29.66
28.89
27.87
26.50
24.67
22.40
19.80
17.01
14.16
11.33
8.51
5.64
2.68
-0.44
-3.79
-7.45
-11.49
-15.91
-20.51
-24.77
-27.91
-28.97
-27.09
-21.83
-13.42
-2.77
8.75
19.63
28.69
35.23
39.15
40.77
40.64
39.42
37.66
35.81
34.21
33.00
32.15
31.44
30.51
29.01
26.74
23.71
20.17
16.41
12.60
8.76
4.77
0.49
-4.14
-8.96
-13.72
-18.09
-21.84
-24.85
-27.21
-29.20
-31.24
-33.86
-37.52
-42.39
-48.24
-54.35
-59.73
-63.32
-64.39
-62.65
-58.30
-51.91
-44.18
-35.85
-27.52
-19.74
-12.95
-7.48
-3.47
-0.90
0.47
1.04
1.23
1.48
2.11
3.27
4.89
6.67
8.26
9.27
9.64
9.50
9.15
8.79
8.34
7.45
5.74
3.02
-0.48
-4.26
-7.69
-10.48
-12.77
-15.12
-18.25
-22.66
-28.26
-34.36
-39.74
-43.05
-43.24
-39.91
-33.38
-24.64
-14.95
-5.49
2.92
9.93
15.56
20.03
23.51
26.10
27.82
28.69
28.86
28.58
28.22
28.02
28.05
28.13
28.00
27.41
26.41
25.18
24.02
23.13
22.41
21.53
20.07
17.69
14.34
10.30
6.00
1.84
-1.93
-5.38
-8.84
-12.73
-17.47
-23.21
-29.72
-36.27
-41.76
-44.92
-44.73
-40.77
-33.43
-23.81
-13.42
-3.61
4.70
11.29
16.40
20.44
23.74
26.36
28.20
29.22
29.52
29.37
29.08
28.85
28.64
28.29
27.56
26.38
24.92
23.41
22.14
21.19
20.40
19.43
17.92
15.67
12.67
9.09
5.14
1.09
-2.85
-6.52
-9.92
-13.19
-16.68
-20.78
-25.74
-31.40
-37.06
-41.63
-43.93
-43.06
-38.79
-31.57
-22.36
-12.32
-2.46
6.53
14.31
20.78
25.88
29.55
31.74
32.54
32.23
31.30
30.27
29.53
29.20
29.12
29.01
28.65
28.00
27.19
26.39
25.63
24.70
23.24
20.87
17.45
13.17
8.45
3.76
-0.51
-4.31
-7.78
-11.15
-14.63
-18.30
-22.06
-25.59
-28.39
-29.82
-29.32
-26.53
-21.56
-14.94
-7.51
-0.12
6.63
12.39
17.01
20.46
22.73
23.90
24.16
23.84
23.25
22.54
21.74
20.81
19.75
18.74
17.96
17.46
17.07
16.37
14.93
12.57
9.39
5.80
2.34
-0.66
-3.17
-5.52
-8.26
-11.94
-16.88
-23.00
-29.87
-36.68
-42.42
-46.11
-46.96
-44.66
-39.40
-31.93
-23.30
-14.61
-6.79
-0.35
4.56
8.08
10.44
11.88
12.61
12.80
12.65
12.34
12.05
11.90
11.97
12.19
12.43
12.49
12.14
11.30
10.06
8.63
7.25
6.04
4.81
3.16
0.63
-3.10
-8.07
-14.07
-20.75
-27.67
-34.33
-40.10
-44.23
-45.95
-44.75
-40.58
-33.95
-25.77
-17.08
-8.78
-1.43
4.73
9.70
13.55
16.44
18.51
19.83
20.50
20.62
20.33
19.85
19.35
18.98
18.67
18.25
17.47
16.21
14.51
12.58
10.69
9.01
7.48
5.87
3.86
1.12
-2.59
-7.32
-13.00
-19.28
-25.55
-30.97
-34.57
-35.55
-33.50
-28.61
-21.65
-13.78
-6.19
0.23
5.09
8.48
10.74
12.20
13.05
13.32
13.00
12.27
11.52
11.22
11.69
12.88
14.38
15.60
16.09
15.75
14.91
14.06
13.61
13.69
14.15
14.69
15.01
14.90
14.14
12.53
9.82
5.82
0.56
-5.54
-11.65
-16.66
-19.50
-19.49
-16.62
-11.57
-5.43
0.60
5.65
9.36
11.89
13.69
15.27
16.90
18.60
20.17
21.33
21.89
21.81
21.21
20.24
18.99
17.51
15.72
13.60
11.22
8.76
6.46
4.44
2.70
1.03
-0.86
-3.19
-5.99
-9.11
-12.29
-15.34
-18.31
-21.46
-25.13
-29.45
-34.09
-38.29
-41.08
-41.65
-39.68
-35.45
-29.70
-23.37
-17.22
-11.75
-7.13
-3.28
-0.09
2.52
4.52
5.81
6.25
5.77
4.40
2.29
-0.29
-3.13
-5.94
-8.51
-10.65
-12.21
-13.24
-13.91
-14.60
-15.60
-17.10
-18.98
-20.92
-22.54
-23.67
-24.36
-24.92
-25.78
-27.29
-29.63
-32.72
-36.23
-39.57
-41.97
-42.71
-41.19
-37.22
-31.06
-23.36
-14.98
-6.77
0.60
6.78
11.66
15.27
17.78
19.37
20.29
20.78
21.05
21.19
21.14
20.76
19.92
18.64
17.11
15.64
14.51
13.80
13.38
12.89
12.01
10.54
8.54
6.19
3.70
1.18
-1.48
-4.57
-8.37
-13.01
-18.24
-23.39
-27.46
-29.38
-28.38
-24.27
-17.49
-9.04
-0.16
8.02
14.76
19.80
23.23
25.40
26.62
27.18
27.20
26.76
25.88
24.68
23.29
21.85
20.46
19.11
17.79
16.46
15.10
13.73
12.31
10.74
8.86
6.53
3.74
0.61
-2.64
-5.83
-8.99
-12.36
-16.30
-21.08
-26.61
-32.38
-37.43
-40.66
-41.13
-38.44
-32.84
-25.16
-16.54
-8.03
-0.35
6.18
11.54
15.84
19.15
21.54
23.08
23.96
24.46
24.81
25.10
25.20
24.82
23.72
21.86
19.51
17.17
15.33
14.26
13.79
13.39
12.42
10.51
7.64
4.24
0.82
-2.22
-4.83
-7.27
-9.92
-13.14
-17.12
-21.93
-27.38
-33.11
-38.41
-42.35
-43.90
-42.32
-37.41
-29.68
-20.22
-10.28
-1.03
6.81
12.91
17.35
20.37
22.29
23.41
23.96
24.15
24.12
23.98
23.81
23.59
23.28
22.78
22.07
21.19
20.31
19.60
19.08
18.64
17.96
16.67
14.45
11.23
7.14
2.47
-2.42
-7.20
-11.65
-15.64
-19.22
-22.68
-26.41
-30.78
-35.84
-41.20
-45.98
-49.06
-49.53
-46.89
-41.36
-33.64
-24.75
-15.64
-7.01
0.70
7.32
12.73
16.91
19.87
21.75
22.80
23.35
23.74
24.18
24.70
25.24
25.66
25.81
25.65
25.18
24.46
23.63
22.77
21.90
20.93
19.63
17.74
15.09
11.68
7.72
3.58
-0.37
-3.93
-7.08
-9.91
-12.65
-15.55
-18.89
-22.96
-27.93
-33.67
-39.61
-44.77
-47.93
-48.08
-44.74
-38.22
-29.48
-19.74
-10.15
-1.49
5.90
11.98
16.84
20.61
23.39
25.33
26.62
27.46
28.02
28.40
28.61
28.63
28.41
27.90
27.10
26.04
24.87
23.74
22.84
22.19
21.64
20.83
19.39
17.03
13.77
9.90
5.83
1.92
-1.67
-5.02
-8.37
-11.97
-16.05
-20.68
-25.68
-30.62
-34.78
-37.29
-37.37
-34.63
-29.20
-21.75
-13.32
-4.91
2.65
8.96
13.92
17.61
20.20
21.80
22.55
22.60
22.10
21.22
20.11
18.88
17.65
16.54
15.65
15.02
14.56
14.10
13.41
12.31
10.74
8.78
6.57
4.26
1.94
-0.41
-2.82
-5.42
-8.38
-11.97
-16.45
-21.93
-28.17
-34.50
-39.84
-42.95
-42.82
-39.02
-31.83
-22.30
-11.85
-1.90
6.53
13.01
17.70
21.06
23.54
25.32
26.39
26.63
26.08
24.98
23.74
22.69
21.96
21.43
20.84
20.04
19.10
18.28
17.86
17.92
18.22
18.30
17.66
16.04
13.57
10.65
7.82
5.50
3.81
2.43
0.72
-2.10
-6.60
-12.84
-20.20
-27.39
-32.92
-35.49
-34.52
-30.26
-23.61
-15.70
-7.47
0.48
7.88
14.46
19.88
23.74
25.78
26.01
24.78
22.69
20.31
18.05
16.11
14.50
13.16
12.03
11.08
10.28
9.61
9.02
8.40
7.58
6.36
4.60
2.29
-0.43
-3.33
-6.23
-9.12
-12.13
-15.52
-19.52
-24.20
-29.60
-35.59
-41.98
-48.34
-54.03
-58.15
-59.83
-58.48
-54.07
-47.26
-39.01
-30.37
-22.05
-14.30
-7.00
0.06
6.96
13.53
19.35
23.90
26.75
27.73
27.02
25.12
22.71
20.40
18.54
17.18
16.09
14.99
13.65
12.07
10.38
8.70
7.01
5.08
2.64
-0.50
-4.24
-8.19
-11.84
-14.82
-16.94
-18.45
-19.75
-21.34
-23.60
-26.67
-30.42
-34.47
-38.30
-41.21
-42.42
-41.25
-37.27
-30.50
-21.46
-11.11
-0.59
8.98
16.87
22.73
26.65
28.95
30.10
30.53
30.52
30.29
29.94
29.49
28.89
28.09
27.08
25.90
24.74
23.69
22.90
22.30
21.77
21.10
20.11
18.62
16.51
13.69
10.18
6.11
1.78
-2.40
-6.12
-9.28
-12.07
-14.91
-18.24
-22.28
-26.90
-31.54
-35.31
-37.25
-36.59
-32.96
-26.62
-18.36
-9.30
-0.59
6.98
13.01
17.62
21.06
23.61
25.33
26.13
25.90
24.70
22.78
20.54
18.36
16.44
14.81
13.41
12.21
11.28
10.72
10.51
10.45
10.10
8.99
6.80
3.53
-0.47
-4.69
-8.69
-12.27
-15.62
-19.13
-23.30
-28.32
-33.92
-39.36
-43.58
-45.56
-44.67
-40.91
-34.81
-27.27
-19.19
-11.32
-4.14
2.03
6.91
10.34
12.25
12.86
12.60
12.07
11.77
11.90
12.35
12.74
12.72
12.17
11.30
10.48
9.99
9.76
9.37
8.27
6.09
2.97
-0.57
-3.87
-6.53
-8.66
-10.79
-13.60
-17.53
-22.56
-28.24
-33.86
-38.67
-41.97
-43.17
-41.86
-37.78
-31.05
-22.18
-12.09
-1.92
7.28
14.75
20.15
23.52
25.20
25.63
25.28
24.54
23.76
23.11
22.63
22.18
21.61
20.81
19.84
18.87
18.02
17.25
16.35
14.99
13.01
10.44
7.52
4.50
1.52
-1.53
-4.89
-8.79
-13.30
-18.40
-23.93
-29.66
-35.18
-39.85
-42.78
-43.07
-40.11
-33.93
-25.27
-15.44
-5.86
2.37
8.74
13.37
16.74
19.39
21.64
23.58
25.09
26.01
26.23
25.72
24.58
23.01
21.31
19.75
18.57
17.84
17.38
16.90
16.04
14.58
12.47
9.82
6.82
3.66
0.47
-2.62
-5.51
-8.09
-10.38
-12.54
-14.99
-18.25
-22.68
-28.22
-34.20
-39.36
-42.27
-41.83
-37.69
-30.45
-21.42
-12.14
-3.83
2.91
8.15
12.33
15.92
19.16
22.02
24.34
25.96
26.86
27.18
27.12
26.82
26.31
25.48
24.22
22.57
20.75
19.13
18.03
17.52
17.29
16.75
15.30
12.59
8.81
4.46
0.21
-3.49
-6.56
-9.27
-11.98
-15.04
-18.59
-22.63
-27.00
-31.41
-35.27
-37.76
-38.02
-35.39
-29.78
-21.83
-12.67
-3.58
4.44
10.88
15.69
19.04
21.16
22.19
22.26
21.59
20.46
19.18
18.01
17.00
16.10
15.25
14.51
13.99
13.84
13.99
14.19
13.97
12.91
10.82
7.84
4.37
0.86
-2.39
-5.32
-8.08
-10.90
-14.02
-17.57
-21.67
-26.31
-31.28
-35.99
-39.50
-40.71
-38.78
-33.48
-25.39
-15.77
-6.05
2.55
9.38
14.36
17.76
19.99
21.38
22.17
22.48
22.42
22.07
21.47
20.63
19.61
18.48
17.37
16.41
15.61
14.89
14.11
13.16
11.94
10.37
8.39
5.88
2.78
-0.88
-4.88
-8.90
-12.63
-15.94
-19.00
-22.24
-26.17
-30.99
-36.44
-41.63
-45.28
-46.16
-43.53
-37.52
-28.99
-19.30
-9.76
-1.32
5.66
11.20
15.51
18.79
21.12
22.57
23.28
23.54
23.67
23.90
24.27
24.57
24.53
23.96
22.85
21.40
19.95
18.78
18.01
17.57
17.17
16.43
15.00
12.67
9.48
5.66
1.56
-2.52
-6.41
-10.13
-13.78
-17.47
-21.27
-25.26
-29.50
-34.09
-38.86
-43.29
-46.49
-47.39
-45.25
-39.95
-32.10
-22.81
-13.26
-4.41
3.12
9.11
13.53
16.51
18.30
19.26
19.80
20.32
21.02
21.93
22.88
23.63
23.96
23.73
22.89
21.50
19.74
17.90
16.24
14.92
13.97
13.19
12.28
10.96
9.06
6.59
3.66
0.46
-2.84
-6.07
-9.11
-11.83
-14.27
-16.60
-19.17
-22.35
-26.41
-31.27
-36.46
-41.09
-44.07
-44.38
-41.42
-35.19
-26.39
-16.24
-6.15
2.71
9.72
14.98
19.02
22.45
25.63
28.59
31.11
32.94
34.05
34.65
35.10
35.70
36.59
37.65
38.53
38.88
38.52
37.56
36.33
35.28
34.58
34.04
33.10
31.11
27.71
23.03
17.67
12.38
7.71
3.76
0.27
-3.20
-6.92
-10.90
-14.95
-18.96
-23.02
-27.39
-32.23
-37.36
-42.07
-45.31
-46.08
-43.90
-38.99
-32.33
-25.19
-18.70
-13.57
-9.94
-7.55
-5.99
-4.81
-3.68
-2.37
-0.71
1.33
3.67
6.10
8.27
9.88
10.64
10.47
9.46
7.84
5.90
3.86
1.81
-0.32
-2.60
-5.06
-7.58
-10.01
-12.16
-13.98
-15.61
-17.33
-19.51
-22.41
-26.11
-30.32
-34.32
-37.06
-37.39
-34.47
-28.11
-18.94
-8.17
2.84
12.99
21.78
29.12
35.08
39.70
42.87
44.50
44.70
43.85
42.43
40.89
39.32
37.60
35.48
32.83
29.74
26.52
23.48
20.80
18.41
15.97
13.10
9.53
5.21
0.41
-4.46
-8.96
-12.82
-16.02
-18.72
-21.13
-23.49
-25.92
-28.45
-31.01
-33.29
-34.85
-35.16
-33.75
-30.50
-25.72
-20.14
-14.62
-9.92
-6.39
-3.97
-2.36
-1.20
-0.33
0.24
0.34
-0.09
-0.96
-1.93
-2.57
-2.55
-1.72
-0.32
1.24
2.42
2.85
2.30
0.80
-1.44
-4.13
-6.92
-9.60
-12.09
-14.58
-17.41
-21.08
-25.98
-32.31
-39.96
-48.41
-56.77
-63.84
-68.33
-69.20
-66.00
-59.09
-49.55
-38.96
-28.81
-20.12
-13.24
-8.01
-3.97
-0.60
2.48
5.52
8.58
11.64
14.52
17.01
18.92
20.21
20.97
21.41
21.76
22.06
22.23
22.08
21.39
20.08
18.21
15.91
13.31
10.50
7.50
4.36
1.17
-2.02
-5.23
-8.69
-12.73
-17.58
-23.10
-28.59
-32.91
-34.72
-33.06
-27.74
-19.49
-9.70
-0.00
8.35
14.76
19.34
22.66
25.33
27.65
29.59
30.95
31.68
31.99
32.28
32.93
34.08
35.49
36.70
37.25
36.97
36.07
35.00
34.25
34.05
34.21
34.18
33.30
31.13
27.64
23.32
18.78
14.54
10.66
6.77
2.30
-3.11
-9.44
-16.34
-23.28
-29.88
-35.85
-40.93
-44.73
-46.70
-46.35
-43.50
-38.43
-31.92
-24.92
-18.31
-12.59
-7.92
-4.15
-1.05
1.58
3.83
5.76
7.43
8.89
10.27
11.61
12.91
14.12
15.19
16.09
16.89
17.71
18.66
19.63
20.28
20.05
18.34
14.81
9.54
3.19
-3.36
-9.26
-14.11
-18.08
-21.82
-26.10
-31.45
-37.79
-44.39
-49.99
-53.22
-53.05
-49.13
-42.00
-32.88
-23.26
-14.36
-6.79
-0.50
4.94
9.90
14.39
18.08
20.56
21.70
21.87
21.74
22.04
23.11
24.78
26.53
27.84
28.47
28.56
28.44
28.26
27.86
26.77
24.56
21.15
16.88
12.41
8.37
4.99
2.08
-0.87
-4.47
-9.10
-14.79
-21.15
-27.43
-32.59
-35.59
-35.57
-32.15
-25.64
-16.90
-7.16
2.34
10.65
17.31
22.27
25.72
27.94
29.25
29.93
30.27
30.49
30.69
30.76
30.49
29.68
28.34
26.73
25.24
24.23
23.79
23.70
23.49
22.70
21.03
18.40
14.97
10.96
6.61
2.07
-2.51
-7.00
-11.28
-15.32
-19.33
-23.68
-28.77
-34.67
-40.92
-46.48
-49.97
-50.34
-47.16
-40.96
-32.89
-24.39
-16.53
-9.86
-4.37
0.23
4.21
7.71
10.78
13.41
15.70
17.82
19.96
22.20
24.48
26.53
28.01
28.64
28.22
26.71
24.18
20.79
16.72
12.16
7.30
2.34
-2.51
-7.06
-11.08
-14.34
-16.68
-18.14
-18.89
-19.38
-20.09
-21.43
-23.52
-26.18
-29.06
-31.83
-34.29
-36.31
-37.66
-37.92
-36.48
-32.84
-26.82
-18.86
-9.88
-0.99
6.87
13.24
18.17
22.04
25.19
27.83
29.89
31.24
31.81
31.66
31.09
30.40
29.89
29.63
29.52
29.37
29.04
28.53
27.93
27.33
26.68
25.80
24.41
22.32
19.54
16.26
12.76
9.24
5.81
2.50
-0.62
-3.50
-6.13
-8.64
-11.36
-14.67
-18.87
-23.92
-29.42
-34.59
-38.49
-40.27
-39.31
-35.51
-29.29
-21.59
-13.66
-6.69
-1.45
1.91
3.77
4.77
5.42
5.89
6.01
5.46
4.09
2.04
-0.28
-2.38
-3.96
-5.05
-5.92
-6.91
-8.25
-9.88
-11.58
-13.02
-14.02
-14.60
-14.98
-15.43
-16.10
-17.03
-18.17
-19.52
-21.24
-23.59
-26.73
-30.57
-34.52
-37.65
-38.88
-37.41
-32.99
-26.02
-17.48
-8.56
-0.32
6.62
12.16
16.54
20.12
23.02
25.14
26.19
25.98
24.61
22.52
20.35
18.61
17.54
17.01
16.70
16.28
15.61
14.71
13.59
12.25
10.58
8.53
6.17
3.67
1.24
-1.10
-3.53
-6.52
-10.53
-15.86
-22.34
-29.25
-35.43
-39.55
-40.52
-37.87
-31.91
-23.61
-14.33
-5.28
2.73
9.32
14.50
18.31
20.82
22.04
22.08
21.19
19.71
18.00
16.30
14.78
13.55
12.74
12.38
12.41
12.59
12.60
12.20
11.26
9.83
8.06
6.08
3.98
1.73
-0.74
-3.66
-7.30
-11.99
-17.89
-24.82
-32.10
-38.56
-42.86
-43.88
-41.14
-34.99
-26.47
-16.93
-7.60
0.71
7.71
13.42
18.03
21.64
24.37
26.31
27.69
28.72
29.53
30.06
30.09
29.42
28.03
26.17
24.17
22.27
20.48
18.56
16.26
13.42
10.18
6.77
3.44
0.31
-2.77
-6.05
-9.82
-14.27
-19.53
-25.53
-32.05
-38.60
-44.39
-48.52
-50.10
-48.53
-43.69
-36.05
-26.54
-16.31
-6.47
2.22
9.44
15.13
19.47
22.62
24.72
25.91
26.39
26.42
26.19
25.83
25.35
24.65
23.73
22.63
21.49
20.49
19.69
19.03
18.33
17.34
15.80
13.50
10.33
6.35
1.84
-2.77
-7.02
-10.62
-13.62
-16.41
-19.62
-23.85
-29.40
-36.08
-43.12
-49.29
-53.20
-53.67
-50.15
-42.88
-32.87
-21.55
-10.36
-0.33
8.13
15.06
20.75
25.44
29.23
32.05
33.89
34.87
35.28
35.47
35.69
36.05
36.47
36.78
36.90
36.96
37.24
38.06
39.51
41.29
42.69
42.89
41.30
37.78
32.68
26.53
19.84
12.83
5.55
-1.94
-9.35
-16.20
-21.99
-26.48
-29.87
-32.75
-35.85
-39.72
-44.58
-50.12
-55.62
-60.06
-62.36
-61.70
-57.73
-50.76
-41.59
-31.28
-20.82
-10.93
-2.02
5.70
12.03
16.79
19.89
21.41
21.73
21.41
21.02
20.92
21.19
21.64
21.98
21.94
21.44
20.60
19.60
18.62
17.69
16.68
15.38
13.59
11.28
8.54
5.62
2.72
0.03
-2.35
-4.36
-5.99
-7.34
-8.62
-10.28
-12.77
-16.38
-20.90
-25.55
-29.15
-30.49
-28.81
-24.03
-16.80
-8.17
0.77
9.17
16.56
22.71
27.57
31.09
33.28
34.22
34.11
33.31
32.24
31.29
30.64
30.24
29.83
29.06
27.66
25.65
23.35
21.31
19.99
19.52
19.60
19.54
18.67
16.57
13.33
9.38
5.22
1.21
-2.57
-6.21
-9.77
-13.21
-16.46
-19.58
-22.90
-26.90
-31.99
-38.06
-44.36
-49.59
-52.31
-51.49
-46.98
-39.45
-30.20
-20.59
-11.63
-3.78
2.89
8.45
12.88
16.06
18.04
19.11
19.82
20.74
22.07
23.60
24.82
25.20
24.60
23.27
21.74
20.49
19.73
19.37
19.16
18.80
18.07
16.85
15.07
12.76
9.99
6.94
3.78
0.68
-2.34
-5.29
-8.24
-11.25
-14.41
-17.86
-21.80
-26.33
-31.20
-35.73
-38.84
-39.38
-36.63
-30.63
-22.23
-12.79
-3.71
4.04
10.08
14.59
17.97
20.57
22.50
23.71
24.12
23.84
23.16
22.49
22.18
22.28
22.55
22.53
21.76
20.08
17.64
14.89
12.29
10.11
8.30
6.48
4.25
1.37
-2.13
-5.97
-9.77
-13.23
-16.25
-18.82
-21.02
-22.94
-24.71
-26.59
-28.96
-32.24
-36.66
-42.14
-48.06
-53.42
-57.04
-57.99
-55.88
-51.00
-44.18
-36.48
-28.80
-21.64
-15.06
-8.89
-3.04
2.33
6.82
9.97
11.57
11.78
11.08
10.03
9.01
8.17
7.41
6.65
5.99
5.69
6.13
7.49
9.63
12.03
14.01
14.93
14.44
12.54
9.54
5.98
2.33
-1.07
-4.19
-7.25
-10.65
-14.77
-19.84
-25.81
-32.35
-38.92
-44.79
-49.19
-51.31
-50.56
-46.64
-39.79
-30.83
-20.89
-11.21
-2.76
3.98
9.01
12.63
15.26
17.24
18.69
19.64
19.96
19.63
18.79
17.77
17.00
16.85
17.48
18.67
20.07
21.29
22.10
22.44
22.30
21.62
20.24
17.97
14.73
10.71
6.24
1.69
-2.71
-6.96
-11.30
-16.01
-21.24
-26.70
-31.65
-35.00
-35.63
-32.80
-26.52
-17.54
-7.12
3.37
12.90
20.91
27.26
32.01
35.28
37.14
37.58
36.68
34.63
31.68
28.26
24.81
21.81
19.57
18.17
17.40
16.84
16.03
14.65
12.59
9.91
6.79
3.38
-0.18
-3.80
-7.36
-10.81
-14.12
-17.42
-20.95
-24.99
-29.69
-34.87
-39.89
-43.75
-45.37
-43.97
-39.46
-32.42
-23.95
-15.26
-7.23
-0.27
5.68
10.84
15.35
19.08
21.79
23.32
23.78
23.61
23.30
23.17
23.21
23.12
22.67
21.83
20.86
20.10
19.72
19.42
18.63
16.71
13.38
8.85
3.76
-1.14
-5.41
-8.96
-12.10
-15.31
-19.02
-23.46
-28.56
-33.92
-38.82
-42.43
-43.92
-42.76
-38.86
-32.59
-24.69
-16.06
-7.56
0.15
6.68
11.90
15.81
18.49
20.08
20.75
20.77
20.43
20.02
19.71
19.52
19.33
18.96
18.29
17.33
16.25
15.25
14.49
13.95
13.47
12.80
11.69
9.99
7.64
4.74
1.44
-2.02
-5.48
-8.80
-12.05
-15.38
-19.05
-23.23
-27.89
-32.68
-36.91
-39.69
-40.19
-37.87
-32.71
-25.14
-15.99
-6.21
3.33
12.03
19.62
26.06
31.46
35.93
39.47
42.06
43.72
44.61
45.02
45.22
45.29
45.08
44.25
42.59
40.13
37.23
34.35
31.76
29.35
26.71
23.40
19.25
14.45
9.41
4.45
-0.38
-5.30
-10.56
-16.16
-21.83
-27.10
-31.62
-35.36
-38.61
-41.92
-45.76
-50.38
-55.62
-60.86
-65.15
-67.39
-66.67
-62.61
-55.51
-46.30
-36.25
-26.56
-18.00
-10.77
-4.75
0.32
4.54
7.83
10.10
11.35
11.93
12.28
12.91
14.04
15.57
17.09
18.17
18.57
18.41
18.05
17.91
18.19
18.72
19.12
18.91
17.81
15.77
13.03
9.95
6.84
3.90
1.23
-1.24
-3.73
-6.51
-9.85
-13.96
-18.78
-24.02
-29.06
-33.09
-35.23
-34.73
-31.27
-25.04
-16.85
-7.81
0.92
8.50
14.63
19.42
23.22
26.30
28.69
30.25
30.87
30.61
29.74
28.66
27.66
26.90
26.28
25.63
24.80
23.79
22.75
21.94
21.52
21.43
21.30
20.55
18.67
15.51
11.40
7.00
3.04
-0.12
-2.64
-5.08
-8.12
-12.20
-17.29
-22.93
-28.37
-32.73
-35.19
-35.13
-32.24
-26.71
-19.16
-10.58
-2.04
5.59
11.81
16.54
19.94
22.27
23.71
24.32
24.10
23.05
21.29
19.08
16.66
14.22
11.83
9.52
7.33
5.41
3.99
3.22
3.09
3.32
3.46
3.04
1.76
-0.43
-3.36
-6.74
-10.25
-13.65
-16.81
-19.76
-22.68
-25.93
-29.88
-34.71
-40.24
-45.76
-50.20
-52.34
-51.31
-46.90
-39.63
-30.58
-20.94
-11.71
-3.46
3.63
9.57
14.47
18.37
21.38
23.60
25.24
26.50
27.53
28.34
28.85
28.92
28.44
27.39
25.97
24.53
23.45
22.93
22.76
22.40
21.11
18.42
14.31
9.31
4.19
-0.39
-4.16
-7.25
-10.08
-13.11
-16.61
-20.76
-25.60
-31.10
-37.03
-42.87
-47.77
-50.67
-50.67
-47.31
-40.83
-32.11
-22.36
-12.80
-4.31
2.69
8.17
12.33
15.39
17.47
18.67
19.06
18.81
18.19
17.43
16.72
16.19
15.88
15.73
15.71
15.75
15.74
15.63
15.35
14.93
14.36
13.64
12.63
11.18
9.18
6.55
3.43
-0.02
-3.66
-7.44
-11.46
-15.91
-20.92
-26.44
-32.14
-37.43
-41.47
-43.41
-42.64
-39.05
-33.06
-25.62
-17.87
-10.81
-5.01
-0.61
2.65
5.11
7.01
8.47
9.51
10.11
10.27
10.03
9.40
8.45
7.34
6.28
5.52
5.26
5.54
6.20
6.97
7.49
7.44
6.61
4.94
2.60
-0.13
-2.95
-5.73
-8.56
-11.77
-15.72
-20.51
-25.94
-31.36
-35.90
-38.71
-39.12
-36.79
-31.75
-24.38
-15.40
-5.76
3.52
11.63
18.15
23.11
26.84
29.75
32.08
33.85
34.83
34.82
33.73
31.70
29.13
26.50
24.27
22.69
21.77
21.24
20.63
19.51
17.54
14.65
11.04
7.07
3.12
-0.53
-3.90
-7.30
-11.23
-16.11
-22.08
-28.83
-35.50
-41.01
-44.27
-44.55
-41.70
-36.09
-28.48
-19.76
-10.82
-2.40
4.91
10.80
15.18
18.22
20.33
21.88
23.19
24.33
25.20
25.59
25.40
24.75
23.94
23.33
23.15
23.42
23.85
24.00
23.41
21.76
19.00
15.24
10.75
5.79
0.65
-4.52
-9.66
-14.99
-20.94
-28.02
-36.51
-46.08
-55.68
-63.59
-68.03
-67.67
-62.14
-52.13
-39.11
-24.92
-11.14
1.11
11.35
19.59
26.07
31.10
34.83
37.39
38.80
39.22
38.91
38.09
36.87
35.19
32.96
30.21
27.24
24.48
22.37
20.92
19.71
18.05
15.25
11.07
5.83
0.22
-5.04
-9.53
-13.25
-16.60
-20.03
-23.97
-28.65
-34.10
-40.02
-45.77
-50.36
-52.64
-51.68
-47.10
-39.39
-29.71
-19.53
-10.04
-1.83
5.14
11.16
16.50
21.21
25.10
28.01
30.01
31.28
32.13
32.73
33.06
33.01
32.52
31.63
30.60
29.67
28.91
28.16
27.06
25.18
22.27
18.36
13.71
8.71
3.75
-0.90
-5.09
-8.77
-11.97
-14.89
-17.85
-21.34
-25.83
-31.61
-38.59
-46.15
-53.18
-58.32
-60.28
-58.31
-52.38
-43.34
-32.54
-21.47
-11.25
-2.43
5.02
11.39
16.96
21.81
25.84
28.93
31.17
32.88
34.46
36.22
38.19
40.04
41.32
41.67
41.00
39.57
37.89
36.47
35.56
35.05
34.52
33.46
31.52
28.64
25.09
21.27
17.60
14.31
11.41
8.85
6.51
4.33
2.13
-0.33
-3.49
-7.77
-13.23
-19.36
-25.00
-28.63
-28.96
-25.42
-18.45
-9.33
0.42
9.53
17.36
23.81
29.04
33.19
36.22
38.05
38.77
38.66
38.17
37.61
37.04
36.20
34.74
32.44
29.32
25.70
22.02
18.66
15.72
13.06
10.34
7.21
3.46
-0.88
-5.55
-10.17
-14.46
-18.31
-21.84
-25.27
-28.83
-32.61
-36.60
-40.78
-45.15
-49.59
-53.86
-57.29
-59.02
-58.14
-54.18
-47.32
-38.47
-28.97
-20.11
-12.79
-7.31
-3.47
-0.91
0.80
1.94
2.68
3.13
3.43
3.64
3.85
4.15
4.58
5.20
5.92
6.63
7.17
7.50
7.72
8.07
8.77
9.83
10.99
11.74
11.64
10.47
8.38
5.74
2.95
0.24
-2.41
-5.15
-8.14
-11.45
-15.12
-19.18
-23.65
-28.45
-33.26
-37.46
-40.25
-40.86
-38.87
-34.35
-27.86
-20.28
-12.53
-5.33
0.96
6.23
10.59
14.17
17.01
19.14
20.55
21.27
21.39
21.08
20.51
19.84
19.24
18.83
18.68
18.76
18.91
18.88
18.50
17.65
16.43
15.00
13.48
11.86
9.97
7.58
4.55
0.92
-3.00
-6.82
-10.13
-12.70
-14.58
-16.09
-17.68
-19.75
-22.54
-26.08
-30.18
-34.44
-38.23
-40.77
-41.17
-38.79
-33.49
-25.84
-16.98
-8.25
-0.72
5.15
9.56
13.03
16.05
18.80
21.19
23.03
24.28
25.06
25.63
26.19
26.85
27.52
27.98
28.01
27.44
26.28
24.68
22.92
21.26
19.79
18.44
17.01
15.29
13.23
10.96
8.73
6.74
5.06
3.54
1.93
-0.02
-2.34
-4.93
-7.48
-9.65
-11.27
-12.24
-12.68
-12.77
-12.67
-12.39
-11.91
-11.08
-9.79
-8.01
-5.75
-3.11
-0.25
2.67
5.43
7.84
9.77
11.16
12.05
12.56
12.76
12.76
12.61
12.38
12.13
11.85
11.44
10.75
9.59
7.85
5.66
3.32
1.22
-0.29
-1.12
-1.50
-1.84
-2.58
-3.97
-5.93
-8.14
-10.16
-11.65
-12.48
-12.77
-12.82
-13.00
-13.61
-14.83
-16.62
-18.74
-20.75
-22.18
-22.56
-21.63
-19.40
-16.18
-12.50
-8.94
-6.02
-4.00
-2.89
-2.44
-2.30
-2.10
-1.69
-1.14
-0.73
-0.74
-1.32
-2.36
-3.58
-4.67
-5.50
-6.13
-6.78
-7.64
-8.80
-10.18
-11.66
-13.18
-14.75
-16.42
-18.19
-19.97
-21.59
-22.93
-24.01
-25.03
-26.32
-28.17
-30.66
-33.51
-36.05
-37.42
-36.84
-33.90
-28.75
-22.04
-14.73
-7.80
-1.97
2.47
5.57
7.67
9.07
10.00
10.48
10.48
10.02
9.23
8.44
7.88
7.67
7.69
7.67
7.35
6.69
5.80
4.87
4.01
3.09
1.90
0.31
-1.65
-3.74
-5.72
-7.49
-9.25
-11.38
-14.28
-18.10
-22.64
-27.31
-31.27
-33.65
-33.79
-31.53
-27.12
-21.17
-14.40
-7.44
-0.66
5.70
11.46
16.36
20.04
22.30
23.17
23.01
22.39
21.82
21.55
21.47
21.29
20.74
19.75
18.46
17.13
15.97
14.99
14.01
12.74
11.03
8.91
6.60
4.37
2.35
0.48
-1.45
-3.71
-6.49
-9.88
-13.90
-18.43
-23.12
-27.40
-30.40
-31.25
-29.30
-24.44
-17.21
-8.60
0.19
8.18
14.80
19.90
23.66
26.35
28.28
29.64
30.55
31.04
31.11
30.80
30.18
29.41
28.62
27.93
27.39
27.04
26.88
26.91
27.04
27.10
26.78
25.76
23.86
21.13
17.93
14.72
11.87
9.45
7.19
4.63
1.28
-3.08
-8.37
-14.15
-19.71
-24.20
-26.82
-26.99
-24.51
-19.68
-13.18
-5.97
1.03
7.12
11.86
15.05
16.70
16.91
15.95
14.17
11.98
9.74
7.62
5.50
3.14
0.33
-2.95
-6.41
-9.68
-12.45
-14.66
-16.48
-18.20
-20.03
-21.95
-23.80
-25.37
-26.66
-27.86
-29.34
-31.45
-34.44
-38.27
-42.63
-46.94
-50.39
-52.12
-51.40
-47.91
-41.85
-33.93
-25.15
-16.49
-8.64
-1.90
3.74
8.38
12.11
14.88
16.59
17.22
16.90
15.95
14.79
13.76
13.04
12.53
11.97
11.07
9.69
7.84
5.67
3.37
1.00
-1.47
-4.14
-7.05
-10.14
-13.34
-16.61
-20.01
-23.70
-27.88
-32.65
-37.95
-43.43
-48.34
-51.70
-52.42
-49.71
-43.45
-34.28
-23.40
-12.13
-1.47
8.04
16.19
22.85
27.76
30.69
31.62
30.98
29.65
28.52
28.18
28.60
29.33
29.86
29.91
29.62
29.39
29.54
30.08
30.62
30.50
29.10
26.11
21.68
16.40
11.06
6.31
2.37
-1.06
-4.61
-8.98
-14.63
-21.54
-29.20
-36.73
-43.05
-47.14
-48.21
-45.82
-40.07
-31.50
-21.09
-9.93
0.87
10.53
18.61
25.07
30.15
34.23
37.73
40.94
43.91
46.49
48.41
49.49
49.67
49.08
47.95
46.51
44.93
43.38
41.96
40.70
39.56
38.29
36.55
33.99
30.48
26.12
21.24
16.25
11.40
6.76
2.14
-2.68
-7.95
-13.84
-20.41
-27.42
-34.31
-40.19
-43.98
-44.80
-42.27
-36.71
-29.03
-20.36
-11.71
-3.74
3.30
9.40
14.58
18.81
21.98
24.08
25.17
25.45
25.16
24.46
23.44
22.12
20.53
18.71
16.88
15.23
13.92
12.92
11.98
10.73
8.88
6.31
3.23
0.01
-2.88
-5.11
-6.55
-7.38
-7.95
-8.74
-10.14
-12.42
-15.52
-19.08
-22.48
-25.06
-26.38
-26.40
-25.50
-24.33
-23.44
-23.06
-23.08
-23.21
-23.23
-23.26
-23.60
-24.61
-26.33
-28.41
-30.20
-30.99
-30.35
-28.25
-25.11
-21.64
-18.52
-16.28
-15.10
-14.84
-15.15
-15.75
-16.53
-17.59
-19.20
-21.59
-24.84
-28.93
-33.74
-39.10
-44.62
-49.64
-53.13
-53.98
-51.34
-44.99
-35.50
-24.01
-11.89
-0.32
9.90
18.41
25.18
30.36
34.22
37.07
39.16
40.62
41.52
41.84
41.65
41.09
40.42
39.85
39.48
39.23
38.92
38.28
37.08
35.20
32.69
29.74
26.69
23.80
21.21
18.76
16.09
12.77
8.52
3.32
-2.68
-9.19
-15.95
-22.51
-28.21
-32.09
-33.21
-31.00
-25.61
-17.96
-9.34
-0.95
6.53
13.00
18.66
23.71
28.05
31.40
33.51
34.42
34.54
34.53
35.03
36.42
38.68
41.29
43.49
44.53
43.93
41.70
38.30
34.43
30.59
26.96
23.21
18.88
13.63
7.50
0.93
-5.53
-11.51
-17.00
-22.38
-28.21
-35.04
-43.10
-52.30
-62.09
-71.50
-79.30
-84.24
-85.33
-82.12
-74.89
-64.51
-52.30
-39.62
-27.66
-17.19
-8.47
-1.35
4.54
9.53
13.80
17.28
19.89
21.59
22.62
23.42
24.42
25.83
27.48
28.94
29.75
29.75
29.19
28.55
28.30
28.50
28.75
28.36
26.69
23.49
19.07
14.12
9.38
5.30
1.90
-1.19
-4.44
-8.19
-12.60
-17.61
-23.19
-29.27
-35.78
-42.42
-48.43
-52.77
-54.25
-51.96
-45.66
-35.98
-24.27
-12.13
-1.00
8.30
15.63
21.35
25.96
29.79
32.86
34.93
35.81
35.48
34.26
32.69
31.24
30.19
29.54
29.11
28.68
28.22
27.80
27.55
27.49
27.43
27.03
25.84
23.61
20.26
16.07
11.49
6.98
2.93
-0.59
-3.70
-6.70
-9.84
-13.31
-17.19
-21.50
-26.21
-31.12
-35.81
-39.48
-41.22
-40.19
-35.95
-28.75
-19.47
-9.35
0.37
8.84
15.76
21.20
25.36
28.38
30.20
30.69
29.84
27.92
25.42
22.98
21.12
20.07
19.78
19.93
20.12
20.01
19.47
18.56
17.49
16.42
15.37
14.10
12.25
9.50
5.78
1.35
-3.27
-7.57
-11.25
-14.38
-17.31
-20.59
-24.67
-29.74
-35.65
-41.82
-47.34
-51.16
-52.23
-49.84
-43.80
-34.59
-23.32
-11.46
-0.49
8.49
15.04
19.35
22.05
23.81
25.10
26.04
26.55
26.58
26.22
25.69
25.17
24.71
24.14
23.30
22.15
20.87
19.79
19.17
19.05
19.18
19.10
18.38
16.73
14.08
10.53
6.28
1.60
-3.16
-7.70
-11.71
-15.07
-17.96
-20.83
-24.28
-28.79
-34.43
-40.63
-46.21
-49.79
-50.19
-46.94
-40.41
-31.68
-22.04
-12.62
-4.10
3.30
9.54
14.59
18.34
20.75
21.98
22.44
22.62
22.88
23.29
23.66
23.73
23.35
22.63
21.86
21.32
21.18
21.31
21.44
21.26
20.56
19.32
17.66
15.70
13.43
10.67
7.27
3.21
-1.28
-5.71
-9.64
-12.92
-15.81
-18.85
-22.61
-27.32
-32.71
-38.03
-42.28
-44.54
-44.17
-40.95
-35.10
-27.21
-18.16
-8.91
-0.35
6.93
12.70
17.07
20.27
22.54
23.99
24.66
24.60
23.97
23.05
22.11
21.37
20.86
20.47
20.07
19.56
18.93
18.22
17.47
16.62
15.49
13.85
11.54
8.61
5.29
1.93
-1.14
-3.81
-6.18
-8.46
-10.90
-13.63
-16.72
-20.24
-24.30
-28.97
-34.12
-39.18
-43.12
-44.81
-43.42
-38.77
-31.53
-22.94
-14.36
-6.77
-0.58
4.30
8.18
11.28
13.57
14.88
15.08
14.27
12.84
11.37
10.39
10.13
10.54
11.28
11.90
12.10
11.78
11.03
10.01
8.78
7.34
5.61
3.60
1.38
-0.87
-3.03
-5.12
-7.30
-9.83
-12.98
-16.87
-21.42
-26.29
-30.89
-34.47
-36.23
-35.60
-32.40
-26.95
-20.02
-12.55
-5.43
0.81
5.95
10.03
13.20
15.46
16.77
17.08
16.50
15.30
13.88
12.58
11.55
10.76
10.07
9.42
8.91
8.68
8.81
9.06
9.00
8.11
6.10
3.05
-0.56
-4.15
-7.27
-9.80
-12.03
-14.41
-17.33
-21.02
-25.43
-30.33
-35.36
-40.02
-43.65
-45.56
-45.07
-41.85
-36.06
-28.42
-19.96
-11.74
-4.59
1.15
5.44
8.51
10.63
12.00
12.84
13.38
13.87
14.49
15.25
16.00
16.52
16.63
16.30
15.71
15.07
14.56
14.19
13.82
13.20
12.06
10.23
7.71
4.65
1.35
-1.83
-4.62
-6.89
-8.76
-10.54
-12.67
-15.58
-19.44
-24.05
-28.74
-32.53
-34.34
-33.41
-29.57
-23.32
-15.63
-7.59
0.00
6.81
12.83
18.22
22.99
27.01
30.06
32.04
33.08
33.51
33.67
33.77
33.84
33.73
33.33
32.63
31.75
30.86
30.02
29.26
28.48
27.63
26.60
25.32
23.71
21.70
19.30
16.56
13.62
10.62
7.70
4.93
2.37
-0.01
-2.27
-4.61
-7.25
-10.32
-13.68
-16.78
-18.79
-18.92
-16.80
-12.69
-7.42
-2.00
2.74
6.43
9.10
10.94
12.00
12.13
11.05
8.61
5.02
0.84
-3.25
-6.68
-9.14
-10.70
-11.57
-11.97
-11.95
-11.45
-10.36
-8.70
-6.69
-4.74
-3.31
-2.76
-3.23
-4.61
-6.57
-8.69
-10.61
-12.19
-13.55
-15.00
-16.97
-19.82
-23.68
-28.31
-33.20
-37.56
-40.58
-41.59
-40.25
-36.63
-31.17
-24.57
-17.63
-11.04
-5.26
-0.50
3.24
6.09
8.18
9.61
10.43
10.70
10.49
9.91
9.13
8.29
7.54
6.96
6.61
6.46
6.43
6.39
6.13
5.45
4.25
2.56
0.53
-1.65
-3.89
-6.23
-8.81
-11.84
-15.47
-19.70
-24.35
-29.08
-33.36
-36.55
-37.98
-37.07
-33.64
-27.93
-20.70
-12.97
-5.75
0.29
4.97
8.53
11.42
13.96
16.22
18.01
19.06
19.28
18.89
18.30
17.94
18.02
18.38
18.65
18.39
17.41
15.83
14.02
12.36
10.95
9.59
7.84
5.32
1.91
-2.11
-6.27
-10.14
-13.63
-17.05
-20.89
-25.61
-31.28
-37.46
-43.22
-47.42
-49.08
-47.67
-43.25
-36.40
-28.01
-19.00
-10.16
-2.09
4.89
10.59
15.03
18.39
20.92
22.91
24.48
25.61
26.20
26.17
25.66
24.99
24.52
24.51
24.97
25.69
26.37
26.74
26.71
26.29
25.53
24.42
22.89
20.79
18.00
14.53
10.52
6.29
2.18
-1.50
-4.65
-7.39
-10.08
-13.23
-17.27
-22.44
-28.50
-34.72
-40.05
-43.42
-44.02
-41.62
-36.51
-29.43
-21.28
-12.82
-4.66
2.83
9.41
14.87
19.11
22.14
24.13
25.41
26.37
27.32
28.37
29.45
30.33
30.80
30.73
30.20
29.44
28.69
28.15
27.85
27.60
27.11
26.14
24.60
22.64
20.51
18.46
16.48
14.40
11.86
8.62
4.67
0.30
-4.10
-8.10
-11.49
-14.29
-16.69
-19.00
-21.55
-24.65
-28.52
-33.26
-38.73
-44.33
-49.11
-51.89
-51.63
-47.77
-40.56
-30.95
-20.40
-10.31
-1.69
5.05
10.08
13.85
16.81
19.27
21.32
22.97
24.21
25.09
25.69
26.14
26.44
26.57
26.47
26.09
25.50
24.92
24.58
24.58
24.85
25.01
24.58
23.10
20.44
16.85
12.86
9.09
5.97
3.62
1.80
0.13
-1.74
-4.04
-6.79
-9.96
-13.59
-17.84
-22.88
-28.60
-34.45
-39.45
-42.43
-42.45
-39.22
-33.21
-25.51
-17.34
-9.64
-2.81
3.16
8.43
13.03
16.78
19.41
20.75
20.93
20.42
19.78
19.49
19.75
20.42
21.18
21.64
21.61
21.10
20.30
19.45
18.73
18.12
17.50
16.69
15.52
13.91
11.82
9.20
6.01
2.26
-1.94
-6.31
-10.56
-14.42
-17.89
-21.19
-24.75
-28.96
-33.91
-39.23
-44.03
-47.17
-47.59
-44.74
-38.77
-30.52
-21.24
-12.12
-3.98
2.91
8.66
13.45
17.39
20.35
22.15
22.74
22.36
21.45
20.55
19.97
19.76
19.72
19.60
19.27
18.84
18.50
18.39
18.39
18.24
17.60
16.33
14.48
12.28
9.87
7.23
4.21
0.69
-3.19
-7.07
-10.53
-13.32
-15.61
-17.87
-20.73
-24.62
-29.63
-35.35
-41.09
-45.88
-48.81
-49.18
-46.66
-41.42
-34.03
-25.35
-16.22
-7.36
0.76
7.81
13.60
18.00
20.97
22.63
23.25
23.26
23.05
22.93
23.00
23.14
23.18
22.98
22.51
21.90
21.31
20.85
20.51
20.15
19.55
18.52
16.91
14.69
11.91
8.70
5.19
1.58
-1.98
-5.42
-8.71
-11.90
-15.12
-18.54
-22.45
-27.04
-32.38
-38.10
-43.42
-47.16
-48.14
-45.63
-39.66
-31.07
-21.19
-11.41
-2.71
4.39
9.85
13.84
16.57
18.22
19.00
19.23
19.26
19.41
19.81
20.34
20.75
20.73
20.14
19.07
17.82
16.76
16.18
16.11
16.24
16.14
15.35
13.60
10.90
7.49
3.73
-0.08
-3.74
-7.23
-10.69
-14.26
-18.15
-22.52
-27.37
-32.49
-37.34
-41.12
-42.90
-41.92
-37.87
-30.99
-22.09
-12.33
-2.93
5.13
11.27
15.38
17.70
18.72
18.91
18.71
18.32
17.84
17.32
16.76
16.22
15.79
15.54
15.46
15.42
15.22
14.64
13.52
11.80
9.55
6.92
4.08
1.13
-1.90
-5.04
-8.29
-11.65
-15.16
-18.93
-23.18
-28.01
-33.28
-38.37
-42.25
-43.76
-42.06
-36.95
-29.03
-19.50
-9.74
-0.88
6.44
12.14
16.44
19.63
21.91
23.30
23.79
23.42
22.42
21.14
19.95
19.04
18.37
17.71
16.86
15.78
14.70
13.90
13.46
13.18
12.53
10.94
8.08
4.06
-0.58
-5.20
-9.23
-12.52
-15.27
-18.02
-21.36
-25.73
-31.22
-37.32
-43.06
-47.10
-48.24
-45.81
-39.90
-31.34
-21.40
-11.38
-2.29
5.29
11.19
15.51
18.50
20.53
21.96
23.12
24.15
25.07
25.70
25.85
25.37
24.29
22.76
21.08
19.57
18.45
17.79
17.43
17.09
16.47
15.30
13.41
10.72
7.29
3.28
-1.06
-5.41
-9.49
-13.23
-16.82
-20.62
-25.05
-30.25
-35.88
-41.10
-44.71
-45.55
-42.85
-36.64
-27.75
-17.63
-7.82
0.50
6.90
11.59
15.18
18.24
20.95
23.18
24.65
25.25
25.19
24.97
25.02
25.51
26.20
26.62
26.42
25.53
24.26
23.12
22.47
22.37
22.42
21.95
20.32
17.28
12.99
8.04
3.12
-1.28
-4.98
-8.13
-11.04
-14.03
-17.40
-21.33
-25.97
-31.33
-37.17
-42.92
-47.54
-49.92
-49.07
-44.59
-36.89
-27.10
-16.72
-7.14
0.75
6.75
11.12
14.35
16.78
18.57
19.72
20.23
20.25
19.98
19.61
19.20
18.74
18.19
17.64
17.25
17.18
17.44
17.75
17.75
17.04
15.43
12.91
9.69
6.04
2.25
-1.48
-5.08
-8.62
-12.37
-16.67
-21.75
-27.47
-33.14
-37.56
-39.38
-37.67
-32.26
-24.01
-14.42
-5.10
2.81
8.91
13.44
16.89
19.65
21.83
23.30
23.95
23.83
23.16
22.23
21.23
20.20
19.17
18.19
17.42
16.99
16.85
16.72
16.18
14.82
12.49
9.32
5.66
1.84
-1.93
-5.61
-9.32
-13.16
-17.28
-21.82
-26.95
-32.70
-38.80
-44.52
-48.78
-50.43
-48.62
-43.25
-34.93
-24.83
-14.32
-4.52
3.91
10.75
16.06
20.02
22.77
24.43
25.21
25.38
25.29
25.19
25.18
25.14
24.85
24.14
23.02
21.70
20.45
19.48
18.76
18.05
17.02
15.36
12.92
9.74
6.02
1.96
-2.17
-6.23
-10.10
-13.76
-17.36
-21.16
-25.52
-30.69
-36.63
-42.77
-48.06
-51.23
-51.20
-47.54
-40.62
-31.53
-21.62
-12.01
-3.36
4.20
10.78
16.56
21.50
25.46
28.22
29.72
30.07
29.62
28.83
28.14
27.80
27.82
27.97
27.88
27.31
26.23
24.91
23.69
22.75
21.92
20.76
18.74
15.60
11.54
7.08
2.86
-0.76
-3.80
-6.64
-9.74
-13.43
-17.73
-22.47
-27.41
-32.30
-36.94
-41.02
-43.99
-45.09
-43.61
-39.16
-31.97
-22.82
-12.96
-3.59
4.45
10.84
15.71
19.40
22.16
24.02
24.96
24.99
24.34
23.43
22.72
22.48
22.76
23.34
23.88
24.11
23.90
23.28
22.34
21.19
19.83
18.15
16.03
13.32
9.99
6.21
2.25
-1.55
-4.95
-7.93
-10.71
-13.67
-17.19
-21.49
-26.51
-31.88
-36.94
-40.88
-42.83
-42.14
-38.49
-32.11
-23.71
-14.36
-5.19
2.87
9.29
13.98
17.17
19.23
20.51
21.25
21.56
21.40
20.74
19.55
17.91
16.06
14.27
12.87
12.04
11.81
12.03
12.43
12.63
12.30
11.20
9.28
6.65
3.61
0.49
-2.46
-5.23
-7.99
-11.07
-14.81
-19.39
-24.78
-30.69
-36.52
-41.46
-44.50
-44.72
-41.53
-34.92
-25.68
-15.10
-4.70
4.25
11.04
15.64
18.48
20.12
21.04
21.47
21.52
21.27
20.93
20.73
20.84
21.19
21.47
21.34
20.62
19.46
18.26
17.47
17.28
17.46
17.45
16.58
14.43
10.95
6.50
1.64
-3.08
-7.32
-10.99
-14.30
-17.62
-21.47
-26.19
-31.87
-38.05
-43.78
-47.80
-48.92
-46.46
-40.52
-31.94
-21.98
-11.93
-2.76
5.04
11.34
16.21
19.79
22.21
23.65
24.32
24.44
24.20
23.72
23.13
22.54
22.09
21.87
21.83
21.83
21.65
21.18
20.44
19.53
18.52
17.27
15.58
13.23
10.23
6.79
3.22
-0.22
-3.48
-6.69
-10.05
-13.73
-17.77
-22.21
-27.07
-32.34
-37.80
-42.95
-46.94
-48.78
-47.67
-43.30
-36.05
-26.87
-16.98
-7.56
0.61
7.22
12.38
16.36
19.43
21.75
23.36
24.32
24.75
24.83
24.78
24.69
24.59
24.44
24.22
23.98
23.78
23.66
23.54
23.30
22.77
21.88
20.61
19.01
17.06
14.64
11.63
7.97
3.82
-0.48
-4.51
-7.98
-10.88
-13.51
-16.40
-19.99
-24.55
-29.92
-35.55
-40.61
-44.15
-45.37
-43.80
-39.39
-32.56
-24.12
-15.09
-6.48
0.91
6.70
10.86
13.70
15.58
16.73
17.27
17.22
16.70
15.95
15.32
15.01
15.02
15.11
14.99
14.57
13.99
13.51
13.24
13.09
12.72
11.79
10.17
7.98
5.47
2.80
-0.05
-3.18
-6.67
-10.41
-14.19
-17.85
-21.46
-25.20
-29.25
-33.41
-37.06
-39.20
-38.90
-35.63
-29.51
-21.44
-12.63
-4.33
2.61
7.90
11.69
14.38
16.35
17.78
18.61
18.73
18.07
16.77
15.14
13.50
12.15
11.15
10.44
9.85
9.26
8.62
7.92
7.21
6.41
5.42
4.02
2.09
-0.43
-3.43
-6.72
-10.15
-13.63
-17.30
-21.31
-25.79
-30.60
-35.18
-38.65
-40.00
-38.53
-34.08
-27.21
-18.89
-10.28
-2.32
4.46
9.87
13.99
16.94
18.87
19.94
20.32
20.20
19.70
18.93
17.92
16.82
15.69
14.70
13.91
13.33
12.90
12.49
11.98
11.17
9.93
8.10
5.63
2.58
-0.86
-4.44
-7.93
-11.20
-14.38
-17.75
-21.72
-26.62
-32.43
-38.67
-44.31
-48.05
-48.69
-45.63
-39.11
-30.17
-20.29
-10.87
-2.86
3.42
8.16
11.79
14.67
17.02
18.90
20.33
21.40
22.21
22.86
23.31
23.40
22.97
22.00
20.68
19.36
18.38
17.88
17.68
17.41
16.62
14.99
12.43
9.08
5.17
1.00
-3.14
-7.07
-10.73
-14.29
-18.09
-22.52
-27.82
-33.84
-39.97
-45.21
-48.42
-48.68
-45.56
-39.19
-30.35
-20.17
-9.92
-0.65
7.00
12.87
17.23
20.47
22.94
24.79
26.01
26.56
26.46
25.93
25.22
24.57
24.00
23.46
22.82
22.10
21.47
21.13
21.11
21.23
21.06
20.12
18.07
14.92
10.95
6.61
2.30
-1.71
-5.34
-8.60
-11.56
-14.33
-17.13
-20.23
-23.99
-28.61
-33.96
-39.43
-43.99
-46.43
-45.82
-41.81
-34.83
-25.90
-16.34
-7.29
0.52
6.88
11.94
16.02
19.36
22.03
23.96
25.08
25.41
25.16
24.65
24.23
24.06
24.07
24.01
23.64
22.83
21.76
20.73
19.99
19.60
19.29
18.61
17.21
14.93
11.92
8.54
5.11
1.79
-1.46
-4.82
-8.48
-12.51
-16.88
-21.50
-26.34
-31.36
-36.45
-41.28
-45.16
-47.17
-46.38
-42.30
-35.09
-25.69
-15.49
-5.95
1.94
7.83
11.97
14.89
17.03
18.59
19.52
19.75
19.32
18.49
17.54
16.66
15.91
15.16
14.30
13.34
12.44
11.83
11.63
11.70
11.66
11.01
9.37
6.72
3.41
-0.01
-3.04
-5.53
-7.73
-10.21
-13.55
-18.12
-23.79
-29.98
-35.74
-40.01
-41.88
-40.73
-36.46
-29.41
-20.38
-10.44
-0.73
7.75
14.39
18.97
21.76
23.26
24.06
24.53
24.79
24.73
24.18
23.06
21.52
19.85
18.33
17.14
16.34
15.87
15.61
15.42
15.09
14.44
13.25
11.43
8.96
5.95
2.52
-1.18
-4.99
-8.75
-12.32
-15.66
-18.94
-22.53
-26.84
-32.08
-37.97
-43.63
-47.80
-49.19
-46.96
-41.08
-32.32
-21.99
-11.53
-2.07
5.79
11.93
16.57
20.01
22.52
24.20
25.10
25.29
24.98
24.42
23.86
23.38
22.92
22.36
21.60
20.78
20.08
19.65
19.49
19.35
18.87
17.75
15.87
13.29
10.20
6.77
3.15
-0.56
-4.27
-7.94
-11.65
-15.56
-19.89
-24.87
-30.47
-36.37
-41.89
-46.11
-48.08
-47.08
-42.89
-35.89
-26.98
-17.30
-7.95
0.28
7.01
12.24
16.15
18.99
21.03
22.46
23.47
24.21
24.79
25.25
25.62
25.81
25.74
25.34
24.57
23.51
22.36
21.36
20.71
20.49
20.51
20.34
19.40
17.23
13.66
8.94
3.65
-1.57
-6.29
-10.38
-14.08
-17.71
-21.58
-25.82
-30.36
-34.94
-39.05
-42.02
-43.10
-41.72
-37.71
-31.45
-23.77
-15.74
-8.25
-1.83
3.40
7.55
10.75
13.13
14.78
15.84
16.51
16.96
17.28
17.44
17.32
16.88
16.19
15.45
14.83
14.48
14.25
13.95
13.28
12.00
10.01
7.35
4.10
0.43
-3.50
-7.50
-11.41
-15.19
-18.97
-23.01
-27.67
-33.15
-39.25
-45.34
-50.40
-53.31
-53.24
-49.98
-43.98
-36.18
-27.72
-19.49
-12.04
-5.57
-0.08
4.43
7.96
10.50
12.11
12.97
13.32
13.43
13.50
13.73
14.20
14.98
16.01
17.15
18.14
18.73
18.77
18.18
16.99
15.18
12.74
9.62
5.89
1.66
-2.90
-7.71
-12.89
-18.64
-24.98
-31.54
-37.48
-41.60
-42.79
-40.44
-34.66
-26.28
-16.51
-6.57
2.62
10.57
17.15
22.40
26.46
29.42
31.34
32.27
32.25
31.38
29.78
27.63
25.19
22.71
20.44
18.52
16.97
15.73
14.69
13.71
12.64
11.29
9.40
6.77
3.26
-1.04
-5.84
-10.84
-15.89
-21.12
-26.78
-33.01
-39.45
-45.15
-48.80
-49.14
-45.57
-38.37
-28.70
-18.06
-7.93
0.73
7.52
12.55
16.16
18.75
20.67
22.08
23.01
23.40
23.18
22.37
21.13
19.72
18.42
17.44
16.80
16.36
15.83
14.94
13.50
11.47
8.92
6.03
2.91
-0.44
-4.15
-8.50
-13.75
-20.01
-27.14
-34.62
-41.59
-47.00
-49.77
-49.08
-44.61
-36.67
-26.16
-14.39
-2.69
7.83
16.51
23.15
27.89
31.01
32.85
33.67
33.65
32.93
31.63
29.96
28.18
26.53
25.14
23.93
22.60
20.84
18.48
15.67
12.79
10.23
8.13
6.18
3.81
0.45
-4.23
-10.17
-17.00
-24.21
-31.30
-37.76
-42.91
-45.95
-46.05
-42.62
-35.57
-25.46
-13.46
-1.03
10.39
19.70
26.39
30.59
32.93
34.18
34.94
35.38
35.34
34.50
32.81
30.59
28.49
27.10
26.61
26.72
26.75
26.09
24.46
22.05
19.26
16.41
13.55
10.46
6.86
2.63
-2.07
-6.93
-11.75
-16.60
-21.82
-27.73
-34.30
-40.92
-46.36
-49.16
-48.13
-42.84
-33.83
-22.47
-10.42
0.83
10.42
18.11
24.05
28.51
31.57
33.23
33.49
32.57
30.93
29.12
27.59
26.48
25.66
24.78
23.62
22.16
20.60
19.26
18.28
17.50
16.52
14.89
12.38
9.11
5.52
2.06
-1.09
-4.06
-7.26
-11.16
-16.04
-21.96
-28.64
-35.44
-41.48
-45.62
-46.79
-44.26
-38.00
-28.75
-17.85
-6.83
3.10
11.21
17.34
21.66
24.44
25.93
26.33
25.85
24.74
23.22
21.53
19.85
18.34
17.15
16.44
16.34
16.82
17.59
18.20
18.08
16.83
14.34
10.93
7.09
3.31
-0.24
-3.71
-7.43
-11.72
-16.68
-22.16
-27.87
-33.38
-38.19
-41.65
-43.02
-41.67
-37.25
-30.00
-20.77
-10.73
-1.07
7.38
14.28
19.64
23.64
26.38
27.88
28.17
27.41
25.95
24.25
22.75
21.68
21.06
20.75
20.51
20.17
19.58
18.72
17.55
16.03
14.09
11.66
8.67
5.15
1.24
-2.88
-7.03
-11.12
-15.19
-19.39
-23.95
-29.03
-34.57
-40.18
-45.10
-48.34
-48.90
-46.13
-39.95
-30.98
-20.36
-9.41
0.70
9.25
15.95
20.84
24.08
25.87
26.46
26.20
25.57
25.02
24.86
25.12
25.56
25.79
25.48
24.54
23.13
21.56
20.13
19.00
18.08
17.10
15.74
13.75
11.00
7.61
3.82
-0.06
-3.74
-7.16
-10.43
-13.82
-17.64
-22.07
-27.06
-32.38
-37.60
-42.14
-45.34
-46.48
-44.96
-40.50
-33.33
-24.24
-14.37
-4.89
3.35
9.99
15.04
18.71
21.22
22.70
23.32
23.32
23.04
22.76
22.59
22.46
22.25
21.96
21.70
21.57
21.59
21.60
21.37
20.76
19.79
18.60
17.29
15.73
13.66
10.80
7.07
2.73
-1.69
-5.70
-9.04
-11.77
-14.24
-16.89
-20.09
-24.02
-28.61
-33.56
-38.32
-42.14
-44.15
-43.66
-40.34
-34.37
-26.49
-17.73
-9.13
-1.47
4.84
9.74
13.33
15.75
17.08
17.41
16.94
15.99
14.98
14.26
14.03
14.18
14.42
14.38
13.86
12.93
11.89
11.07
10.66
10.49
10.13
9.08
7.03
4.05
0.55
-2.91
-5.88
-8.22
-10.13
-12.02
-14.32
-17.31
-21.08
-25.42
-30.00
-34.21
-37.32
-38.57
-37.32
-33.37
-27.06
-19.24
-10.99
-3.34
3.08
8.07
11.74
14.30
15.94
16.78
16.87
16.35
15.37
14.21
13.08
12.11
11.36
10.76
10.23
9.71
9.22
8.79
8.45
8.15
7.71
6.93
5.63
3.73
1.33
-1.44
-4.48
-7.81
-11.51
-15.69
-20.38
-25.39
-30.41
-34.93
-38.36
-40.07
-39.55
-36.53
-31.16
-23.98
-15.84
-7.69
-0.28
5.98
10.99
14.82
17.53
19.06
19.32
18.36
16.46
14.16
12.02
10.49
9.67
9.37
9.25
9.03
8.59
7.99
7.38
6.78
6.06
5.02
3.44
1.30
-1.28
-4.04
-6.73
-9.24
-11.60
-14.08
-16.99
-20.63
-25.09
-30.20
-35.44
-40.05
-43.11
-43.87
-41.86
-37.14
-30.21
-21.92
-13.26
-5.07
2.02
7.70
11.95
14.95
17.00
18.38
19.34
20.03
20.46
20.55
20.20
19.42
18.29
16.99
15.73
14.63
13.73
13.01
12.43
11.99
11.67
11.37
10.85
9.72
7.59
4.25
-0.15
-5.10
-9.94
-14.04
-17.19
-19.61
-21.89
-24.72
-28.52
-33.15
-37.95
-41.83
-43.69
-42.75
-38.83
-32.40
-24.38
-15.82
-7.61
-0.32
5.84
10.87
14.82
17.73
19.63
20.63
20.93
20.78
20.42
20.06
19.82
19.78
19.96
20.29
20.59
20.59
20.08
19.00
17.54
16.03
14.71
13.59
12.39
10.66
8.06
4.55
0.45
-3.73
-7.54
-10.74
-13.37
-15.66
-18.04
-20.85
-24.36
-28.62
-33.34
-38.00
-41.79
-43.85
-43.48
-40.30
-34.43
-26.47
-17.40
-8.31
-0.17
6.35
11.02
13.98
15.58
16.23
16.30
16.03
15.63
15.30
15.18
15.33
15.68
16.05
16.25
16.18
15.86
15.41
14.88
14.19
13.13
11.51
9.27
6.54
3.64
0.87
-1.67
-4.08
-6.60
-9.43
-12.64
-16.19
-20.02
-24.13
-28.40
-32.47
-35.63
-36.91
-35.46
-30.94
-23.81
-15.24
-6.69
0.65
6.23
10.19
13.05
15.34
17.29
18.76
19.46
19.17
17.96
16.17
14.26
12.67
11.61
11.07
10.89
10.89
10.87
10.63
10.04
9.00
7.45
5.42
2.94
0.06
-3.15
-6.61
-10.17
-13.65
-17.02
-20.46
-24.33
-28.86
-33.87
-38.59
-41.82
-42.34
-39.53
-33.57
-25.46
-16.51
-7.86
-0.20
6.28
11.58
15.71
18.63
20.30
20.84
20.55
19.82
18.99
18.28
17.74
17.36
17.12
17.04
17.17
17.48
17.86
18.06
17.72
16.54
14.31
11.08
7.11
2.79
-1.50
-5.52
-9.19
-12.61
-15.98
-19.60
-23.77
-28.69
-34.33
-40.26
-45.63
-49.30
-50.13
-47.41
-41.06
-31.73
-20.68
-9.33
1.04
9.60
16.08
20.68
23.88
26.18
27.98
29.39
30.35
30.75
30.54
29.79
28.72
27.55
26.45
25.49
24.73
24.20
23.89
23.74
23.53
22.86
21.29
18.52
14.57
9.85
4.96
0.48
-3.35
-6.62
-9.78
-13.31
-17.67
-23.03
-29.27
-35.89
-42.00
-46.50
-48.30
-46.73
-41.73
-33.95
-24.45
-14.42
-4.83
3.75
11.10
17.24
22.30
26.41
29.64
32.01
33.53
34.17
34.05
33.39
32.56
31.88
31.51
31.43
31.42
31.29
30.86
30.11
29.07
27.77
26.15
24.08
21.40
17.98
13.86
9.24
4.52
0.15
-3.58
-6.57
-9.13
-11.74
-14.95
-19.12
-24.35
-30.36
-36.52
-41.98
-45.74
-46.96
-45.13
-40.27
-32.96
-24.21
-15.15
-6.73
0.46
6.22
10.59
13.73
15.79
16.95
17.42
17.45
17.29
17.09
16.89
16.66
16.36
16.04
15.76
15.64
15.68
15.76
15.61
14.99
13.71
11.80
9.43
6.87
4.30
1.75
-0.91
-3.86
-7.30
-11.32
-15.96
-21.12
-26.54
-31.70
-35.83
-38.01
-37.44
-33.71
-27.06
-18.38
-8.95
-0.06
7.37
12.99
16.92
19.54
21.24
22.29
22.79
22.82
22.44
21.75
20.90
20.05
19.30
18.70
18.26
17.95
17.71
17.45
17.08
16.43
15.33
13.55
10.90
7.28
2.83
-2.05
-6.83
-11.07
-14.68
-17.98
-21.59
-26.11
-31.79
-38.29
-44.71
-49.73
-52.02
-50.66
-45.45
-36.99
-26.51
-15.53
-5.37
3.15
9.84
14.94
18.87
21.94
24.24
25.75
26.45
26.47
26.04
25.41
24.76
24.13
23.58
23.20
23.11
23.41
24.07
24.79
25.13
24.61
22.91
20.01
16.13
11.66
6.98
2.39
-1.95
-6.00
-9.86
-13.68
-17.65
-22.00
-26.95
-32.61
-38.78
-44.93
-50.03
-52.89
-52.48
-48.39
-41.06
-31.64
-21.57
-12.05
-3.72
3.43
9.68
15.25
20.09
23.88
26.37
27.54
27.70
27.42
27.15
27.13
27.22
27.17
26.83
26.25
25.68
25.38
25.37
25.37
24.92
23.62
21.27
18.00
14.12
9.96
5.83
1.92
-1.66
-4.89
-7.88
-10.85
-14.13
-18.04
-22.81
-28.45
-34.74
-41.19
-47.03
-51.30
-53.00
-51.38
-46.27
-38.18
-28.26
-17.89
-8.24
0.00
6.74
12.19
16.63
20.21
22.91
24.76
25.83
26.31
26.41
26.25
25.86
25.22
24.42
23.63
23.04
22.74
22.66
22.64
22.47
21.97
20.95
19.21
16.61
13.11
8.86
4.29
-0.14
-4.06
-7.38
-10.35
-13.41
-16.97
-21.29
-26.39
-32.04
-37.77
-42.89
-46.47
-47.56
-45.46
-39.98
-31.66
-21.61
-11.19
-1.58
6.50
12.84
17.53
20.77
22.72
23.45
23.14
22.06
20.67
19.39
18.51
18.04
17.80
17.47
16.82
15.83
14.65
13.55
12.72
12.11
11.41
10.21
8.21
5.37
1.97
-1.57
-4.91
-8.02
-11.16
-14.80
-19.34
-24.88
-31.12
-37.36
-42.67
-46.05
-46.72
-44.27
-38.76
-30.71
-20.97
-10.58
-0.58
8.17
15.09
19.91
22.73
23.90
23.94
23.41
22.73
22.15
21.75
21.42
21.01
20.37
19.50
18.51
17.63
17.02
16.67
16.33
15.59
14.05
11.57
8.29
4.54
0.74
-2.83
-6.09
-9.13
-12.20
-15.57
-19.61
-24.57
-30.58
-37.38
-44.27
-50.15
-53.71
-53.91
-50.23
-43.00
-33.26
-22.48
-12.02
-2.78
4.92
11.25
16.52
20.86
24.19
26.30
27.10
26.77
25.79
24.67
23.81
23.30
23.01
22.76
22.38
21.86
21.22
20.57
19.88
19.10
18.08
16.57
14.33
11.20
7.29
2.91
-1.46
-5.43
-8.87
-12.02
-15.37
-19.45
-24.57
-30.62
-37.07
-43.07
-47.59
-49.69
-48.67
-44.30
-36.87
-27.22
-16.49
-5.92
3.48
11.10
16.79
20.78
23.52
25.53
27.19
28.62
29.70
30.20
29.95
29.03
27.79
26.66
26.01
25.86
25.94
25.89
25.45
24.64
23.66
22.68
21.62
20.12
17.72
14.15
9.54
4.48
-0.27
-4.10
-6.86
-8.97
-11.21
-14.33
-18.81
-24.59
-31.20
-37.87
-43.78
-48.16
-50.34
-49.83
-46.37
-40.10
-31.63
-21.94
-12.15
-3.24
4.18
9.96
14.25
17.32
19.38
20.56
21.03
21.03
20.89
20.93
21.25
21.72
22.00
21.81
21.04
19.89
18.74
17.91
17.48
17.21
16.64
15.35
13.14
10.08
6.46
2.58
-1.27
-4.91
-8.32
-11.57
-14.87
-18.56
-22.94
-28.01
-33.30
-37.81
-40.27
-39.62
-35.50
-28.36
-19.38
-9.89
-1.01
6.68
13.00
17.97
21.53
23.58
24.08
23.22
21.48
19.46
17.69
16.40
15.57
14.95
14.34
13.67
13.07
12.72
12.66
12.73
12.55
11.71
9.94
7.32
4.17
0.91
-2.18
-5.10
-8.04
-11.28
-15.04
-19.37
-24.22
-29.47
-34.86
-39.88
-43.74
-45.47
-44.19
-39.51
-31.80
-22.12
-11.94
-2.56
5.22
11.26
15.88
19.49
22.34
24.39
25.52
25.75
25.38
24.85
24.55
24.57
24.73
24.68
24.19
23.29
22.24
21.30
20.60
19.98
19.13
17.66
15.32
12.04
8.00
3.48
-1.15
-5.58
-9.59
-13.14
-16.42
-19.72
-23.44
-27.90
-33.14
-38.88
-44.38
-48.61
-50.46
-49.08
-44.23
-36.38
-26.67
-16.48
-7.12
0.61
6.53
10.92
14.30
17.10
19.52
21.52
22.96
23.82
24.24
24.51
24.84
25.30
25.69
25.75
25.32
24.47
23.45
22.50
21.71
20.92
19.84
18.25
16.09
13.47
10.51
7.31
3.93
0.42
-3.12
-6.52
-9.66
-12.59
-15.57
-18.99
-23.18
-28.27
-33.96
-39.62
-44.39
-47.31
-47.62
-44.88
-39.20
-31.15
-21.76
-12.22
-3.56
3.50
8.78
12.50
15.12
17.13
18.85
20.31
21.40
21.98
22.09
21.95
21.91
22.18
22.67
23.07
22.97
22.21
20.98
19.78
19.13
19.19
19.59
19.57
18.36
15.51
11.20
6.10
1.08
-3.17
-6.37
-8.75
-10.84
-13.21
-16.28
-20.15
-24.69
-29.61
-34.48
-38.81
-41.92
-43.13
-41.78
-37.61
-30.88
-22.42
-13.39
-4.87
2.35
8.00
12.14
15.02
16.88
17.89
18.22
18.02
17.51
16.82
16.08
15.29
14.48
13.69
12.97
12.41
12.04
11.83
11.70
11.52
11.10
10.25
8.77
6.57
3.69
0.33
-3.19
-6.57
-9.61
-12.40
-15.25
-18.56
-22.70
-27.71
-33.11
-37.97
-41.05
-41.28
-38.09
-31.75
-23.25
-13.92
-4.96
2.82
9.12
14.00
17.54
19.82
20.90
20.96
20.39
19.61
18.97
18.58
18.22
17.60
16.52
15.03
13.44
12.17
11.53
11.57
12.03
12.45
12.26
11.06
8.67
5.20
1.05
-3.24
-7.18
-10.43
-12.99
-15.24
-17.76
-21.21
-26.01
-32.12
-38.92
-45.22
-49.57
-50.73
-47.99
-41.53
-32.38
-22.05
-12.05
-3.47
3.27
8.31
12.07
14.93
17.05
18.43
19.05
19.04
18.72
18.43
18.45
18.78
19.20
19.40
19.09
18.28
17.21
16.24
15.64
15.38
15.06
14.13
12.08
8.79
4.57
0.07
-4.04
-7.34
-9.84
-11.93
-14.21
-17.27
-21.48
-26.88
-33.11
-39.36
-44.51
-47.34
-46.94
-43.01
-36.04
-27.14
-17.64
-8.70
-0.97
5.41
10.59
14.76
18.00
20.36
21.86
22.68
23.04
23.12
23.00
22.68
22.13
21.38
20.58
19.85
19.24
18.76
18.30
17.79
17.17
16.37
15.25
13.60
11.24
8.10
4.37
0.46
-3.25
-6.55
-9.54
-12.67
-16.46
-21.35
-27.37
-34.08
-40.57
-45.71
-48.41
-47.88
-43.87
-36.73
-27.35
-16.95
-6.84
1.88
8.56
13.06
15.69
17.04
17.71
18.12
18.49
18.80
18.97
18.90
18.61
18.15
17.67
17.27
17.03
16.93
16.89
16.70
16.19
15.23
13.75
11.78
9.37
6.53
3.28
-0.37
-4.36
-8.59
-12.92
-17.31
-21.76
-26.26
-30.66
-34.52
-37.17
-37.81
-35.84
-31.06
-23.82
-15.03
-5.88
2.47
9.19
14.03
17.16
19.11
20.34
21.11
21.45
21.21
20.31
18.92
17.38
16.11
15.41
15.31
15.55
15.78
15.68
15.07
13.93
12.29
10.14
7.42
4.08
0.19
-4.03
-8.21
-12.06
-15.51
-18.87
-22.63
-27.22
-32.67
-38.31
-42.98
-45.33
-44.38
-39.85
-32.32
-22.90
-12.90
-3.38
5.00
11.94
17.36
21.19
23.46
24.30
24.08
23.34
22.66
22.45
22.77
23.35
23.71
23.49
22.59
21.28
20.04
19.27
19.09
19.15
18.86
17.70
15.45
12.34
8.93
5.79
3.20
0.98
-1.42
-4.58
-8.93
-14.44
-20.74
-27.15
-32.97
-37.52
-40.22
-40.61
-38.46
-33.79
-27.03
-18.91
-10.41
-2.43
4.44
9.99
14.36
17.87
20.74
23.02
24.63
25.49
25.60
25.16
24.47
23.84
23.43
23.24
23.12
22.93
22.59
22.10
21.52
20.88
20.13
19.02
17.24
14.47
10.58
5.75
0.41
-4.79
-9.37
-13.11
-16.15
-18.97
-22.10
-25.98
-30.68
-35.85
-40.78
-44.56
-46.29
-45.33
-41.50
-35.14
-27.04
-18.12
-9.28
-1.12
6.00
11.99
16.85
20.65
23.48
25.40
26.50
26.83
26.49
25.70
24.79
24.10
23.88
24.16
24.72
25.19
25.27
24.82
23.94
22.81
21.54
20.07
18.22
15.76
12.61
8.87
4.78
0.73
-2.90
-5.88
-8.19
-10.16
-12.28
-15.12
-19.08
-24.21
-30.16
-36.22
-41.44
-44.91
-45.91
-44.02
-39.32
-32.29
-23.74
-14.64
-5.90
1.81
8.15
13.04
16.58
18.92
20.21
20.65
20.44
19.85
19.07
18.26
17.50
16.83
16.28
15.91
15.72
15.69
15.77
15.84
15.78
15.40
14.51
12.87
10.36
6.98
3.01
-1.05
-4.72
-7.65
-9.90
-11.89
-14.32
-17.84
-22.71
-28.67
-34.81
-39.89
-42.61
-42.17
-38.43
-32.04
-24.12
-15.89
-8.23
-1.53
4.22
9.25
13.64
17.33
20.11
21.80
22.40
22.10
21.30
20.44
19.94
20.03
20.77
21.96
23.26
24.23
24.53
24.04
22.85
21.20
19.28
17.19
14.89
12.25
9.21
5.79
2.10
-1.72
-5.49
-9.09
-12.41
-15.46
-18.33
-21.29
-24.66
-28.68
-33.40
-38.49
-43.31
-47.07
-48.94
-48.39
-45.23
-39.67
-32.23
-23.60
-14.53
-5.73
2.19
8.85
14.03
17.82
20.39
22.04
23.00
23.41
23.32
22.81
22.06
21.27
20.71
20.52
20.69
21.08
21.43
21.47
21.05
20.10
18.64
16.82
14.76
12.51
10.07
7.30
4.16
0.75
-2.72
-5.90
-8.56
-10.64
-12.32
-13.91
-15.77
-18.24
-21.53
-25.67
-30.38
-35.01
-38.57
-40.02
-38.62
-34.22
-27.37
-19.12
-10.66
-2.91
3.65
8.97
13.17
16.43
18.87
20.53
21.49
21.89
21.92
21.76
21.59
21.53
21.57
21.62
21.50
21.12
20.45
19.60
18.73
17.98
17.39
16.87
16.18
15.06
13.31
10.87
7.93
4.80
1.85
-0.64
-2.58
-4.10
-5.41
-6.86
-8.72
-11.29
-14.72
-18.97
-23.66
-28.02
-31.01
-31.69
-29.61
-25.01
-18.84
-12.26
-6.29
-1.45
2.26
5.10
7.35
9.10
10.30
10.87
10.82
10.26
9.39
8.41
7.46
6.67
6.11
5.82
5.77
5.93
6.21
6.51
6.68
6.56
5.99
4.87
3.21
1.11
-1.18
-3.51
-5.74
-7.92
-10.25
-12.95
-16.20
-19.99
-23.96
-27.46
-29.58
-29.51
-26.79
-21.51
-14.34
-6.21
1.97
9.53
16.11
21.57
25.87
29.00
31.04
32.16
32.64
32.77
32.77
32.67
32.42
31.92
31.08
29.92
28.52
27.02
25.55
24.18
22.88
21.49
19.77
17.44
14.34
10.50
6.09
1.43
-3.14
-7.41
-11.31
-14.97
-18.63
-22.65
-27.26
-32.49
-38.02
-43.12
-46.89
-48.40
-47.07
-42.88
-36.38
-28.50
-20.27
-12.48
-5.52
0.52
5.68
9.96
13.25
15.46
16.66
17.10
17.21
17.34
17.63
18.00
18.19
18.01
17.46
16.71
15.97
15.32
14.57
13.34
11.22
8.07
4.02
-0.47
-4.94
-9.01
-12.58
-15.81
-19.10
-22.84
-27.39
-32.85
-39.02
-45.29
-50.82
-54.58
-55.75
-53.83
-48.86
-41.38
-32.42
-23.19
-14.91
-8.48
-4.24
-1.91
-0.75
0.19
1.54
3.54
5.98
8.44
10.64
12.52
14.18
15.72
17.07
17.93
18.01
17.13
15.37
13.06
10.65
8.46
6.61
4.96
3.25
1.26
-1.12
-3.81
-6.65
-9.45
-12.21
-15.12
-18.48
-22.54
-27.33
-32.58
-37.78
-42.31
-45.59
-47.23
-46.92
-44.50
-39.97
-33.56
-25.78
-17.45
-9.44
-2.54
2.86
6.84
9.78
12.14
14.22
16.03
17.39
18.12
18.21
17.79
17.18
16.62
16.27
16.18
16.35
16.78
17.42
18.11
18.54
18.29
17.04
14.72
11.57
8.01
4.46
1.16
-1.93
-5.05
-8.50
-12.54
-17.31
-22.71
-28.36
-33.51
-37.17
-38.34
-36.42
-31.44
-24.16
-15.69
-7.17
0.66
7.53
13.49
18.70
23.12
26.59
28.83
29.76
29.53
28.51
27.12
25.71
24.43
23.25
22.11
20.95
19.87
18.98
18.29
17.68
16.81
15.28
12.79
9.33
5.21
0.97
-2.87
-6.05
-8.69
-11.25
-14.32
-18.38
-23.60
-29.78
-36.35
-42.51
-47.33
-49.97
-49.83
-46.70
-40.83
-32.94
-23.92
-14.72
-6.05
1.64
8.18
13.55
17.85
21.25
23.92
26.02
27.56
28.51
28.84
28.61
28.01
27.30
26.71
26.35
26.14
25.94
25.64
25.22
24.68
24.00
23.01
21.43
19.00
15.64
11.48
6.87
2.23
-2.13
-6.13
-9.90
-13.79
-18.19
-23.38
-29.42
-35.99
-42.39
-47.65
-50.70
-50.72
-47.40
-41.05
-32.52
-22.93
-13.31
-4.43
3.27
9.64
14.71
18.64
21.69
24.12
26.10
27.72
28.93
29.64
29.87
29.77
29.56
29.47
29.55
29.65
29.58
29.15
28.39
27.36
26.22
24.96
23.42
21.34
18.54
15.02
10.99
6.84
2.93
-0.55
-3.62
-6.56
-9.66
-13.14
-17.07
-21.39
-26.03
-31.00
-36.30
-41.73
-46.71
-50.28
-51.39
-49.26
-43.79
-35.68
-26.07
-16.25
-7.13
0.83
7.53
12.97
17.14
19.98
21.52
22.01
21.90
21.72
21.83
22.36
23.14
23.86
24.20
24.00
23.34
22.51
21.86
21.65
21.87
22.20
22.16
21.25
19.14
15.87
11.71
7.15
2.68
-1.42
-5.11
-8.59
-12.20
-16.26
-20.93
-26.17
-31.69
-36.93
-41.19
-43.68
-43.72
-40.98
-35.57
-28.09
-19.46
-10.64
-2.45
4.65
10.45
14.91
18.06
19.92
20.56
20.13
18.94
17.43
16.06
15.22
15.06
15.47
16.10
16.55
16.56
16.07
15.25
14.30
13.32
12.15
10.56
8.34
5.46
2.11
-1.46
-5.10
-8.87
-12.97
-17.73
-23.33
-29.61
-36.06
-41.75
-45.67
-46.89
-44.96
-40.07
-32.92
-24.57
-16.00
-7.91
-0.62
5.79
11.31
15.84
19.27
21.55
22.79
23.26
23.27
23.05
22.69
22.14
21.39
20.45
19.46
18.61
18.07
17.83
17.71
17.34
16.37
14.52
11.73
8.16
4.11
-0.05
-4.03
-7.67
-10.98
-14.21
-17.75
-22.11
-27.68
-34.36
-41.40
-47.46
-51.06
-51.08
-47.33
-40.55
-32.06
-23.13
-14.57
-6.65
0.71
7.51
13.48
18.24
21.53
23.42
24.33
24.80
25.17
25.54
25.79
25.76
25.44
24.91
24.29
23.70
23.19
22.71
22.23
21.65
20.82
19.51
17.49
14.62
10.93
6.67
2.16
-2.28
