1553540542.00
64.000000
-0.00
-0.00
-0.00
-0.00
-0.00
-0.00
-0.00
-0.00
-0.00
-0.00
0.00
0.01
0.01
-0.00
-0.03
-0.05
-0.05
0.00
0.13
0.36
0.66
1.01
1.37
1.72
2.06
2.40
2.79
3.24
3.80
4.42
5.06
5.66
6.20
6.68
7.15
7.68
8.31
9.14
10.09
11.04
11.88
12.56
13.14
13.76
14.65
15.96
17.91
20.32
22.90
25.38
27.58
29.57
31.68
34.32
37.81
42.54
48.15
54.10
59.83
64.97
69.58
74.14
79.34
85.71
93.76
103.00
112.62
121.73
129.77
136.75
143.30
150.75
157.77
166.64
177.95
191.79
206.97
220.57
228.25
225.36
208.53
176.87
132.76
80.05
23.07
-34.94
-92.44
-149.16
-205.23
-260.37
-313.74
-363.87
-409.83
-450.91
-486.50
-515.74
-537.23
-549.22
-549.96
-538.37
-514.21
-478.67
-433.88
-382.45
-327.02
-269.84
-212.63
-156.66
-102.95
-52.37
-5.90
35.58
71.43
101.35
125.50
144.38
158.69
169.15
176.37
180.75
182.57
182.07
179.51
175.23
169.65
163.18
156.15
148.81
141.30
133.69
126.02
118.33
110.69
103.16
95.80
88.68
81.83
75.25
68.95
62.95
57.25
51.86
46.78
42.03
37.59
33.45
29.61
26.07
22.81
19.83
17.11
14.67
12.48
10.54
8.83
7.35
6.07
4.97
4.05
3.27
2.62
2.09
1.65
1.30
1.01
0.79
0.61
0.47
0.37
0.28
0.23
0.18
0.15
0.13
0.13
0.13
0.14
0.16
0.18
0.21
0.25
0.29
0.33
0.37
0.42
0.47
0.51
0.56
0.62
0.67
0.73
0.79
0.86
0.93
1.01
1.09
1.19
1.30
1.43
1.56
1.72
1.89
2.08
2.30
2.53
2.80
3.09
3.41
3.76
4.14
4.56
5.01
5.50
6.03
6.60
7.21
7.86
8.56
9.31
10.09
10.93
11.81
12.73
13.70
14.74
15.83
16.99
18.21
19.48
20.78
22.06
23.24
24.25
24.97
25.26
25.01
24.11
22.49
20.13
17.04
13.29
9.03
4.45
-0.26
-4.87
-9.15
-12.93
-16.04
-18.37
-19.89
-20.60
-20.58
-19.98
-18.91
-17.53
-15.95
-14.26
-12.49
-10.66
-8.77
-6.88
-5.03
-3.26
-1.58
0.04
1.66
3.38
5.26
7.42
9.73
12.11
14.46
16.73
18.91
21.09
23.39
25.98
29.04
32.30
35.54
38.56
41.21
43.52
45.66
47.96
50.75
54.33
58.23
62.00
65.20
67.51
68.93
69.77
70.53
71.79
73.96
76.37
78.21
78.59
76.73
72.09
64.39
53.23
37.61
20.77
3.39
-14.52
-33.36
-53.90
-77.03
-103.41
-132.81
-163.51
-192.04
-214.60
-227.45
-228.60
-218.70
-200.90
-179.61
-158.83
-140.84
-126.01
-113.91
-103.69
-94.88
-87.55
-81.97
-78.27
-76.23
-75.53
-75.85
-77.16
-78.94
-80.00
-78.35
-71.80
-58.70
-38.74
-13.29
14.90
42.34
66.05
84.22
96.42
103.28
105.96
105.61
103.11
99.19
94.39
89.35
84.74
81.09
78.60
77.09
76.03
74.78
72.90
70.27
67.08
63.64
60.11
56.33
51.87
46.14
38.71
29.54
19.05
8.02
-2.65
-12.31
-20.75
-28.28
-35.55
-43.36
-52.41
-63.08
-75.20
-87.93
-99.67
-108.17
-111.00
-106.23
-93.19
-72.81
-47.61
-20.93
3.93
24.57
39.83
49.65
54.62
55.48
52.98
47.91
41.33
34.60
29.19
26.32
26.50
29.43
34.03
38.92
42.90
45.35
46.32
46.35
46.05
45.71
45.11
43.63
40.55
35.48
28.60
20.62
12.54
5.23
-0.93
-6.16
-11.14
-16.68
-23.54
-32.13
-42.34
-53.44
-63.95
-71.85
-74.95
-71.51
-60.91
-44.03
-23.11
-1.18
18.82
34.88
46.13
52.82
55.73
55.68
53.34
49.17
43.71
37.75
32.21
27.97
25.52
24.79
25.20
26.01
26.64
26.88
26.89
26.98
27.28
27.59
27.37
25.96
22.84
17.85
11.29
3.84
-3.76
-10.87
-17.13
-22.61
-27.73
-33.18
-39.74
-47.92
-57.60
-67.78
-76.57
-81.65
-80.97
-73.50
-59.63
-41.15
-20.59
-0.50
17.18
31.41
41.80
48.34
51.12
50.31
46.30
39.86
32.18
24.63
18.36
14.05
11.70
10.74
10.45
10.25
9.97
9.84
10.13
10.83
11.49
11.30
9.40
5.37
-0.60
-7.70
-14.88
-21.32
-26.65
-31.17
-35.57
-40.68
-47.24
-55.55
-65.35
-75.59
-84.49
-89.82
-89.44
-82.08
-67.80
-48.13
-25.63
-3.14
17.01
33.44
45.69
53.92
58.47
59.65
57.81
53.52
47.67
41.39
35.77
31.55
28.95
27.70
27.31
27.36
27.58
27.93
28.32
28.46
27.78
25.55
21.16
14.48
5.93
-3.58
-12.98
-21.43
-28.63
-34.94
-41.21
-48.48
-57.45
-68.15
-79.60
-89.85
-96.40
-96.83
-89.67
-74.95
-54.31
-30.55
-6.85
14.10
30.65
42.31
49.39
52.58
52.64
50.26
46.22
41.39
36.70
32.98
30.65
29.69
29.60
29.69
29.31
28.15
26.21
23.75
21.06
18.25
15.21
11.64
7.32
2.20
-3.52
-9.49
-15.41
-21.15
-26.95
-33.34
-41.03
-50.68
-62.50
-75.99
-89.71
-101.45
-108.65
-109.08
-101.60
-86.56
-65.79
-42.12
-18.58
2.29
18.89
30.66
37.79
40.95
40.97
38.69
34.93
30.46
25.99
22.21
19.58
18.36
18.48
19.68
21.55
23.68
25.66
27.19
27.93
27.53
25.70
22.25
17.26
11.03
4.12
-2.92
-9.73
-16.32
-23.14
-30.93
-40.46
-51.98
-64.85
-77.30
-86.72
-90.35
-86.19
-73.80
-54.55
-31.28
-7.34
14.37
32.15
45.50
54.71
60.32
62.66
61.98
58.66
53.53
47.85
42.97
39.86
38.71
39.04
39.92
40.52
40.52
40.04
39.51
39.20
38.94
38.10
35.82
31.44
24.77
16.26
6.78
-2.65
-11.29
-18.91
-25.82
-32.75
-40.61
-50.13
-61.49
-74.15
-86.61
-96.73
-102.10
-100.77
-91.88
-75.99
-55.01
-31.67
-8.84
11.22
27.13
38.46
45.40
48.49
48.36
45.69
41.24
35.93
30.72
26.51
23.82
22.69
22.62
22.90
22.89
22.39
21.61
21.08
21.10
21.57
21.77
20.64
17.24
11.24
3.05
-6.32
-15.64
-24.01
-31.04
-37.01
-42.64
-48.80
-56.21
-65.05
-74.65
-83.41
-89.00
-88.92
-81.35
-65.87
-43.80
-17.86
8.51
32.18
51.00
64.00
71.19
73.17
70.82
65.24
57.73
49.90
43.37
39.48
38.86
41.19
45.24
49.35
51.97
52.22
50.12
46.47
42.34
38.50
35.07
31.48
26.86
20.49
12.25
2.65
-7.40
-17.03
-25.81
-33.81
-41.60
-49.97
-59.72
-71.37
-84.95
-99.68
-113.82
-124.74
-129.52
-125.79
-112.64
-91.08
-63.91
-34.87
-7.60
15.32
32.77
44.92
52.73
57.31
59.59
60.18
59.50
57.96
56.09
54.48
53.69
54.00
55.27
56.99
58.40
58.79
57.81
55.51
52.31
48.70
44.96
40.96
36.24
30.26
22.74
13.90
4.43
-4.81
-13.10
-20.24
-26.47
-32.43
-38.89
-46.52
-55.79
-66.84
-79.26
-91.90
-102.80
-109.45
-109.46
-101.28
-84.89
-61.95
-35.30
-8.24
16.38
36.72
52.05
62.55
68.95
72.13
72.91
71.95
69.77
66.90
63.93
61.49
60.14
60.17
61.43
63.32
65.00
65.69
64.94
62.81
59.71
56.16
52.48
48.61
44.19
38.70
31.82
23.55
14.30
4.70
-4.60
-13.18
-20.97
-28.19
-35.29
-42.72
-50.96
-60.38
-71.16
-83.02
-94.94
-105.09
-111.04
-110.47
-102.01
-85.85
-63.85
-39.05
-14.75
6.46
23.18
35.22
43.12
47.68
49.57
49.27
47.24
43.99
40.26
36.84
34.47
33.63
34.46
36.71
39.90
43.32
46.28
48.28
49.00
48.41
46.63
43.83
40.13
35.53
30.04
23.66
16.50
8.83
0.94
-6.84
-14.27
-21.22
-27.79
-34.24
-41.08
-48.91
-58.35
-69.61
-82.28
-95.02
-105.65
-111.64
-110.77
-101.90
-85.47
-63.46
-38.84
-14.81
6.02
22.12
33.06
39.23
41.50
40.80
38.04
34.14
30.06
26.83
25.40
26.43
30.07
35.81
42.69
49.58
55.52
60.05
63.13
65.03
65.96
66.02
65.07
62.88
59.33
54.44
48.41
41.55
34.20
26.65
19.18
11.89
4.75
-2.48
-10.16
-18.75
-28.61
-39.86
-52.14
-64.42
-75.00
-81.79
-82.77
-76.71
-63.72
-45.32
-24.10
-2.95
15.77
30.71
41.54
48.63
52.49
53.53
51.99
48.15
42.56
36.13
29.96
25.04
21.98
20.82
21.09
22.05
23.01
23.55
23.62
23.32
22.78
21.87
20.22
17.30
12.75
6.57
-0.75
-8.42
-15.59
-21.70
-26.65
-30.72
-34.47
-38.51
-43.41
-49.62
-57.32
-66.23
-75.44
-83.32
-87.78
-86.83
-79.25
-65.10
-45.80
-23.75
-1.67
18.11
34.07
45.64
52.91
56.37
56.59
54.14
49.63
43.85
37.73
32.25
28.25
26.10
25.65
26.27
27.20
27.83
27.96
27.74
27.41
27.00
26.14
24.17
20.40
14.49
6.62
-2.49
-11.93
-20.90
-29.02
-36.44
-43.76
-51.82
-61.40
-72.91
-86.14
-100.08
-112.94
-122.41
-126.31
-123.09
-112.50
-95.57
-74.44
-51.74
-29.95
-10.97
4.05
14.57
20.56
22.33
20.63
16.56
11.50
6.83
3.60
2.34
2.94
4.83
7.27
9.58
11.40
12.62
13.35
13.55
12.98
11.17
7.52
1.64
-6.48
-16.27
-26.70
-36.53
-44.64
-50.42
-53.97
-56.15
-58.28
-61.76
-67.47
-75.24
-83.57
-89.86
-91.12
-84.92
-70.28
-48.11
-20.95
7.78
34.81
57.69
75.17
87.02
93.62
95.57
93.56
88.40
81.06
72.74
64.68
57.99
53.40
51.20
51.25
53.10
56.18
59.90
63.69
66.86
68.52
67.57
62.87
53.67
39.99
22.90
4.28
-13.63
-28.95
-40.73
-49.22
-55.71
-61.93
-69.52
-79.26
-90.83
-102.68
-112.44
-117.62
-116.37
-108.08
-93.59
-74.94
-54.69
-35.29
-18.53
-5.41
3.84
9.46
12.02
12.27
11.09
9.42
8.03
7.51
8.06
9.61
11.86
14.45
17.09
19.63
22.09
24.56
27.05
29.37
31.02
31.27
29.46
25.30
19.11
11.75
4.31
-2.35
-7.98
-13.05
-18.60
-25.84
-35.68
-48.24
-62.55
-76.50
-87.15
-91.51
-87.38
-74.22
-53.33
-27.61
-0.66
24.24
44.78
59.90
69.52
74.16
74.58
71.68
66.54
60.44
54.69
50.36
48.02
47.53
48.20
49.08
49.36
48.63
46.93
44.57
41.79
38.60
34.64
29.43
22.58
14.03
4.18
-6.18
-16.09
-24.67
-31.39
-36.19
-39.60
-42.56
-46.20
-51.36
-58.08
-65.22
-70.60
-71.50
-65.62
-51.91
-31.05
-5.30
22.16
48.14
70.19
86.84
97.62
102.78
102.97
99.13
92.42
84.12
75.59
68.04
62.33
58.80
57.17
56.68
56.38
55.46
53.64
51.11
48.39
45.86
43.46
40.59
36.31
29.87
21.09
10.55
-0.59
-11.06
-20.02
-27.37
-33.71
-40.06
-47.49
-56.72
-67.81
-80.01
-91.64
-100.31
-103.37
-98.71
-85.50
-64.70
-38.94
-11.81
13.16
33.43
47.91
56.78
60.98
61.63
59.70
55.96
51.25
46.56
42.95
41.31
41.99
44.71
48.61
52.69
56.11
58.54
60.09
61.07
61.71
61.90
61.18
58.92
54.63
48.16
39.82
30.32
20.54
11.29
3.10
-3.86
-9.81
-15.31
-21.16
-28.15
-36.89
-47.31
-58.49
-68.52
-74.91
-75.28
-68.18
-53.79
-33.87
-11.31
10.81
30.07
45.09
55.54
61.62
63.71
62.14
57.35
50.07
41.43
32.79
25.33
19.75
16.08
13.83
12.34
11.09
9.92
9.00
8.63
8.93
9.74
10.45
10.32
8.60
4.99
-0.30
-6.56
-12.87
-18.49
-23.13
-27.10
-31.08
-35.92
-42.35
-50.68
-60.66
-71.32
-80.93
-87.21
-87.85
-81.25
-67.07
-46.64
-22.55
1.93
23.85
41.19
53.14
59.84
62.02
60.57
56.37
50.24
43.04
35.67
28.97
23.59
19.83
17.60
16.52
16.10
15.88
15.49
14.59
12.79
9.71
4.97
-1.54
-9.58
-18.53
-27.51
-35.68
-42.45
-47.80
-52.30
-57.03
-63.18
-71.49
-81.78
-92.57
-101.36
-105.27
-101.99
-90.61
-72.01
-48.56
-23.39
0.48
20.86
36.57
47.38
53.58
55.74
54.54
50.80
45.50
39.70
34.43
30.35
27.71
26.22
25.33
24.49
23.44
22.25
21.23
20.56
20.03
19.05
16.77
12.55
6.22
-1.74
-10.50
-19.23
-27.45
-35.24
-43.12
-51.78
-61.82
-73.38
-85.95
-98.22
-108.07
-113.02
-110.85
-100.38
-82.04
-57.98
-31.46
-5.96
15.84
32.53
44.01
51.06
54.83
56.36
56.43
55.61
54.27
52.69
51.04
49.36
47.54
45.41
42.79
39.66
36.20
32.78
29.82
27.56
25.89
24.27
21.91
18.05
12.38
5.17
-2.70
-10.11
-16.10
-20.36
-23.30
-26.00
-29.78
-35.78
-44.45
-55.22
-66.40
-75.49
-79.74
-76.95
-66.19
-48.18
-25.20
-0.39
23.11
42.99
58.13
68.47
74.52
76.90
76.08
72.43
66.47
59.02
51.21
44.21
38.86
35.43
33.62
32.75
32.17
31.56
30.97
30.67
30.86
31.33
31.47
30.38
27.30
21.93
14.59
6.06
-2.73
-11.05
-18.67
-25.79
-32.94
-40.77
-49.90
-60.63
-72.82
-85.48
-96.75
-104.09
-104.96
-97.75
-82.44
-60.85
-36.12
-11.72
9.57
26.20
37.85
44.99
48.30
48.34
45.52
40.38
33.70
26.61
20.31
15.74
13.29
12.68
13.26
14.25
15.18
16.00
16.91
18.11
19.42
20.21
19.53
16.59
11.07
3.38
-5.50
-14.37
-22.28
-28.89
-34.54
-40.18
-46.94
-55.75
-66.88
-79.62
-92.21
-102.12
-106.67
-103.81
-92.80
-74.52
-51.26
-26.05
-1.83
19.19
35.81
47.66
54.95
58.11
57.64
54.18
48.58
41.90
35.20
29.33
24.77
21.49
19.14
17.25
15.47
13.74
12.20
11.02
10.18
9.36
7.95
5.20
0.53
-6.26
-14.91
-24.75
-34.93
-44.70
-53.61
-61.62
-69.06
-76.62
-85.07
-94.83
-105.62
-116.09
-123.91
-126.38
-121.36
-108.16
-87.91
-63.32
-37.70
-13.86
6.70
23.77
38.00
50.08
60.24
68.10
73.12
75.02
74.17
71.57
68.46
65.89
64.32
63.57
63.09
62.29
60.89
59.02
57.09
55.44
54.02
52.30
49.36
44.33
36.81
27.05
15.95
4.63
-5.94
-15.33
-23.74
-31.79
-40.34
-50.19
-61.91
-75.66
-90.82
-105.86
-118.27
-125.10
-123.75
-112.97
-93.43
-67.70
-39.47
-12.38
10.90
29.21
42.68
52.12
58.38
61.96
63.09
62.02
59.28
55.78
52.55
50.46
49.82
50.33
51.29
51.90
51.68
50.61
49.08
47.65
46.66
46.02
45.13
43.16
39.31
33.22
25.08
15.58
5.64
-3.99
-12.90
-21.13
-29.00
-36.99
-45.57
-55.22
-66.30
-78.90
-92.41
-105.27
-115.00
-118.80
-114.40
-101.00
-79.72
-53.34
-25.49
0.51
22.36
39.15
51.01
58.61
62.73
63.96
62.84
59.90
55.85
51.45
47.47
44.43
42.59
41.87
41.97
42.48
43.00
43.21
42.97
42.34
41.45
40.38
39.00
36.92
33.60
28.56
21.66
13.20
3.90
-5.42
-14.04
-21.63
-28.30
-34.50
-40.85
-48.06
-56.71
-67.13
-79.04
-91.32
-101.94
-108.27
-107.81
-99.13
-82.48
-59.89
-34.54
-9.76
11.91
29.20
41.97
50.70
55.89
57.79
56.56
52.53
46.52
39.79
33.74
29.42
27.25
26.93
27.69
28.68
29.39
29.79
30.17
30.85
31.85
32.69
32.55
30.56
26.21
19.59
11.33
2.38
-6.38
-14.43
-21.75
-28.78
-36.24
-44.88
-55.32
-67.79
-81.85
-96.21
-108.68
-116.59
-117.49
-109.92
-94.07
-71.79
-46.10
-20.25
3.11
22.52
37.57
48.55
55.85
59.73
60.25
57.65
52.55
46.02
39.41
33.91
30.21
28.33
27.76
27.74
27.67
27.31
26.81
26.46
26.47
26.66
26.44
24.96
21.40
15.36
6.98
-3.02
-13.70
-24.17
-33.90
-42.89
-51.50
-60.31
-69.98
-81.09
-93.93
-108.18
-122.58
-134.89
-142.16
-141.67
-131.89
-113.15
-87.75
-59.24
-31.25
-6.56
13.45
28.62
39.50
46.75
50.85
52.17
51.14
48.51
45.29
42.62
41.35
41.89
43.99
46.95
50.01
52.65
54.85
57.00
59.60
62.78
66.06
68.40
68.56
65.59
59.18
49.88
38.74
27.01
15.64
5.08
-4.77
-14.40
-24.42
-35.52
-48.20
-62.68
-78.47
-94.18
-107.42
-115.23
-114.94
-105.14
-86.35
-60.96
-32.57
-4.85
19.49
39.13
54.01
64.72
71.89
75.88
76.90
75.26
71.67
67.19
62.97
59.89
58.28
57.88
58.02
58.02
57.45
56.35
55.06
53.95
53.14
52.31
50.73
47.60
42.36
34.99
26.00
16.25
6.61
-2.35
-10.54
-18.23
-25.92
-34.24
-43.80
-55.08
-68.15
-82.36
-96.12
-106.95
-112.11
-109.39
-97.98
-78.87
-54.65
-28.67
-4.06
16.97
33.42
45.25
52.82
56.56
56.78
53.87
48.46
41.50
34.13
27.37
21.86
17.80
15.04
13.40
12.84
13.50
15.50
18.66
22.37
25.58
27.12
26.11
22.33
16.25
8.86
1.22
-5.89
-12.31
-18.44
-25.08
-33.07
-42.92
-54.53
-66.94
-78.36
-86.45
-88.89
-84.08
-71.74
-53.09
-30.62
-7.32
14.08
31.71
44.74
53.19
57.56
58.45
56.44
52.08
45.97
38.81
31.38
24.41
18.54
14.20
11.59
10.76
11.48
13.38
15.84
18.06
19.21
18.54
15.62
10.43
3.42
-4.68
-13.07
-21.15
-28.75
-36.20
-44.28
-53.97
-65.99
-80.23
-95.33
-108.70
-117.02
-117.28
-107.86
-89.21
-63.81
-35.40
-7.76
16.21
35.02
48.39
56.78
60.89
61.34
58.83
54.13
48.27
42.29
37.07
33.07
30.27
28.33
26.76
25.28
23.88
22.75
22.09
21.75
21.18
19.49
15.81
9.71
1.44
-8.11
-17.78
-26.66
-34.52
-41.90
-49.98
-60.07
-73.05
-88.83
-105.94
-121.65
-132.50
-135.24
-127.90
-110.51
-85.19
-55.48
-25.28
2.20
25.00
42.46
54.81
62.67
66.81
67.99
67.06
64.89
62.30
59.87
57.82
56.04
54.20
52.06
49.59
47.10
45.01
43.70
43.13
42.86
42.01
39.63
35.07
28.19
19.43
9.59
-0.44
-10.00
-18.87
-27.32
-36.08
-46.14
-58.40
-73.20
-89.76
-105.95
-118.48
-123.75
-119.04
-103.59
-79.03
-48.92
-17.60
11.18
35.12
53.58
67.11
76.64
82.92
86.29
86.93
85.17
81.76
77.74
74.18
71.76
70.51
69.85
68.99
67.31
64.72
61.65
58.76
56.51
54.78
52.84
49.64
44.26
36.37
26.39
15.34
4.37
-5.61
-14.34
-22.22
-30.15
-39.20
-50.27
-63.77
-79.31
-95.51
-110.01
-119.90
-122.35
-115.55
-99.41
-75.78
-47.98
-19.85
5.41
25.97
41.43
52.42
59.80
64.21
65.92
65.09
62.14
57.89
53.50
50.05
48.18
47.89
48.57
49.43
49.82
49.52
48.77
48.01
47.55
47.26
46.52
44.38
39.93
32.82
23.39
12.66
1.96
-7.67
-15.80
-22.77
-29.45
-36.92
-46.13
-57.57
-71.09
-85.69
-99.51
-110.06
-114.69
-111.38
-99.45
-79.97
-55.56
-29.62
-5.34
15.13
30.94
42.33
49.97
54.45
56.03
54.78
50.95
45.26
38.88
33.18
29.29
27.61
27.77
28.85
29.74
29.65
28.35
26.15
23.65
21.33
19.29
17.13
14.16
9.71
3.51
-4.17
-12.55
-20.69
-27.83
-33.72
-38.73
-43.70
-49.67
-57.55
-67.79
-80.14
-93.46
-105.75
-114.32
-116.50
-110.30
-95.19
-72.43
-44.86
-16.13
10.39
32.39
49.03
60.67
68.28
72.82
74.94
75.01
73.36
70.57
67.43
64.85
63.48
63.50
64.63
66.20
67.51
68.02
67.53
66.10
64.01
61.49
58.65
55.38
51.31
46.03
39.19
30.74
20.98
10.53
0.16
-9.52
-18.23
-26.16
-33.86
-42.13
-51.70
-63.11
-76.40
-90.90
-105.04
-116.45
-122.35
-120.29
-109.01
-89.02
-62.67
-33.55
-5.44
18.69
37.30
50.36
58.81
63.95
66.85
68.11
67.98
66.59
64.23
61.42
58.80
56.89
55.92
55.71
55.77
55.60
54.81
53.32
51.25
48.82
46.17
43.24
39.77
35.37
29.68
22.46
13.71
3.77
-6.82
-17.47
-27.69
-37.33
-46.52
-55.63
-65.10
-75.40
-86.94
-99.86
-113.80
-127.53
-138.94
-145.26
-143.92
-133.43
-114.09
-88.08
-58.86
-30.09
-4.73
15.61
30.61
40.78
47.02
50.20
51.08
50.34
48.68
46.82
45.43
45.01
45.78
47.66
50.33
53.30
56.12
58.35
59.68
59.89
58.85
56.54
53.02
48.48
43.15
37.21
30.77
23.80
16.19
7.93
-0.77
-9.48
-17.65
-24.81
-30.82
-35.96
-40.97
-46.78
-54.32
-64.10
-75.83
-88.19
-98.85
-104.95
-103.86
-94.15
-76.13
-51.97
-25.08
0.89
23.03
39.80
50.98
57.35
60.04
60.15
58.52
55.80
52.56
49.35
46.70
45.05
44.66
45.52
47.39
49.87
52.45
54.70
56.23
56.76
56.15
54.37
51.51
47.74
43.25
38.18
32.51
26.18
19.02
11.05
2.44
-6.36
-14.84
-22.49
-29.12
-34.86
-40.22
-46.04
-53.22
-62.47
-73.84
-86.40
-98.14
-106.27
-107.98
-101.36
-86.19
-64.15
-38.43
-12.68
9.93
27.59
39.94
47.75
52.27
54.62
55.56
55.45
54.47
52.85
50.94
49.18
47.91
47.28
47.15
47.26
47.29
47.04
46.47
45.71
44.86
43.90
42.59
40.52
37.26
32.47
26.17
18.73
10.74
2.90
-4.26
-10.47
-15.76
-20.41
-24.88
-29.68
-35.38
-42.43
-50.97
-60.55
-69.92
-77.14
-79.99
-76.67
-66.51
-50.30
-30.10
-8.64
11.54
28.67
41.90
51.15
56.65
58.72
57.54
53.46
47.03
39.17
31.06
23.86
18.41
15.03
13.48
13.15
13.41
13.82
14.29
14.91
15.80
16.78
17.34
16.80
14.56
10.38
4.51
-2.40
-9.57
-16.35
-22.44
-27.88
-33.03
-38.42
-44.65
-52.26
-61.52
-72.12
-83.01
-92.36
-97.96
-97.82
-90.85
-77.23
-58.46
-36.90
-15.15
4.55
20.69
32.54
40.04
43.50
43.45
40.52
35.36
28.77
21.62
14.78
9.06
4.99
2.72
2.06
2.60
3.86
5.42
6.98
8.32
9.15
9.20
8.08
5.45
1.16
-4.73
-11.83
-19.59
-27.51
-35.36
-43.33
-52.00
-61.99
-73.44
-85.64
-96.82
-104.52
-106.26
-100.48
-87.08
-67.62
-44.85
-21.83
-1.13
15.67
28.09
36.36
40.90
42.13
40.32
35.89
29.54
22.33
15.41
9.74
5.82
3.65
2.93
3.30
4.44
6.10
7.86
9.13
9.15
7.38
3.62
-1.78
-8.18
-14.86
-21.39
-27.84
-34.72
-42.84
-53.06
-65.84
-80.88
-96.79
-111.13
-120.84
-123.09
-116.14
-100.08
-76.85
-49.75
-22.42
2.04
21.78
36.22
45.72
51.10
53.23
52.83
50.53
46.93
42.66
38.38
34.61
31.66
29.65
28.55
28.27
28.70
29.59
30.54
30.91
29.99
27.23
22.40
15.67
7.56
-1.31
-10.41
-19.52
-28.71
-38.42
-49.34
-62.04
-76.68
-92.48
-107.52
-118.89
-123.47
-118.93
-104.67
-82.16
-54.52
-25.61
1.11
23.38
40.37
52.33
60.10
64.63
66.67
66.83
65.54
63.25
60.40
57.43
54.70
52.46
50.79
49.64
48.89
48.38
47.98
47.41
46.29
44.02
39.99
33.81
25.48
15.55
4.91
-5.46
-14.95
-23.57
-32.05
-41.52
-53.10
-67.24
-83.21
-98.97
-111.44
-117.30
-114.02
-100.79
-78.87
-51.27
-21.90
5.59
28.65
46.20
58.37
65.94
69.80
70.69
69.19
65.97
61.85
57.73
54.34
51.96
50.39
49.15
47.78
46.15
44.45
42.98
41.83
40.64
38.67
35.10
29.42
21.68
12.47
2.71
-6.80
-15.60
-23.77
-31.92
-40.91
-51.61
-64.43
-78.93
-93.56
-105.80
-112.63
-111.45
-101.00
-81.85
-56.40
-28.12
-0.49
23.82
43.46
58.20
68.45
74.75
77.55
77.30
74.66
70.64
66.45
63.18
61.40
61.02
61.38
61.65
61.27
60.12
58.54
56.93
55.45
53.74
51.11
46.83
40.46
32.20
22.71
12.94
3.66
-4.71
-12.35
-19.91
-28.30
-38.43
-50.62
-64.30
-77.70
-88.11
-92.50
-88.55
-75.54
-54.72
-29.03
-2.16
22.60
43.15
58.82
69.96
77.37
81.65
83.13
81.95
78.42
73.24
67.45
62.18
58.28
56.06
55.26
55.22
55.18
54.60
53.31
51.45
49.35
47.23
45.02
42.32
38.53
33.08
25.73
16.75
6.83
-3.12
-12.28
-20.25
-27.04
-33.14
-39.25
-46.21
-54.71
-65.19
-77.45
-90.41
-102.01
-109.59
-110.54
-103.26
-87.81
-66.00
-40.85
-15.63
7.01
25.57
39.64
49.50
55.58
58.23
57.70
54.42
49.18
43.12
37.57
33.64
31.86
32.08
33.54
35.23
36.36
36.62
36.23
35.64
35.16
34.67
33.56
30.99
26.31
19.37
10.73
1.37
-7.62
-15.52
-22.20
-28.12
-34.11
-41.11
-49.87
-60.75
-73.50
-87.04
-99.41
-108.06
-110.41
-104.70
-90.71
-69.97
-45.40
-20.40
2.17
20.61
34.50
44.32
50.80
54.52
55.78
54.74
51.75
47.50
43.00
39.30
37.22
36.99
38.29
40.34
42.27
43.41
43.51
42.73
41.44
39.93
38.16
35.80
32.27
27.09
20.09
11.50
1.87
-8.10
-17.79
-26.84
-35.17
-43.00
-50.79
-59.20
-68.94
-80.55
-93.93
-108.05
-120.79
-129.25
-130.58
-122.92
-106.17
-82.16
-54.26
-26.25
-1.34
18.65
33.38
43.62
50.56
55.18
58.08
59.47
59.54
58.63
57.25
56.00
55.33
55.34
55.81
56.33
56.50
56.13
55.25
54.06
52.73
51.24
49.37
46.71
42.84
37.50
30.66
22.58
13.66
4.38
-4.79
-13.58
-21.84
-29.61
-37.13
-44.81
-53.19
-62.87
-74.20
-86.91
-99.83
-110.81
-117.18
-116.51
-107.49
-90.50
-67.60
-41.92
-16.69
5.53
23.35
36.48
45.33
50.62
53.05
53.21
51.65
48.94
45.71
42.58
40.06
38.51
38.01
38.44
39.47
40.71
41.76
42.28
42.06
40.94
38.93
36.02
32.25
27.65
22.27
16.17
9.44
2.18
-5.49
-13.42
-21.45
-29.37
-37.01
-44.32
-51.46
-58.85
-67.17
-77.04
-88.65
-101.38
-113.53
-122.59
-125.91
-121.47
-108.70
-88.78
-64.30
-38.54
-14.55
5.65
21.27
32.48
39.97
44.42
46.27
45.81
43.42
39.78
35.86
32.72
31.16
31.46
33.30
35.98
38.69
40.82
42.10
42.53
42.29
41.55
40.34
38.53
35.85
31.98
26.65
19.75
11.50
2.40
-6.81
-15.44
-23.00
-29.46
-35.15
-40.74
-47.01
-54.65
-64.00
-74.80
-85.95
-95.52
-101.09
-100.33
-91.88
-75.80
-53.80
-28.74
-3.83
18.19
35.70
48.22
56.19
60.44
61.82
60.93
58.23
54.19
49.47
44.90
41.40
39.64
39.92
42.01
45.29
48.98
52.40
55.09
56.82
57.59
57.37
56.10
53.57
49.55
43.87
36.61
28.15
19.08
10.11
1.71
-5.89
-12.87
-19.65
-26.74
-34.63
-43.63
-53.81
-64.82
-75.73
-84.96
-90.54
-90.50
-83.55
-69.58
-49.89
-26.83
-3.26
18.26
35.94
49.00
57.46
61.78
62.59
60.52
56.19
50.39
43.96
37.84
32.75
29.08
26.82
25.60
24.95
24.46
23.94
23.34
22.72
22.10
21.37
20.25
18.38
15.38
10.99
5.19
-1.69
-9.06
-16.19
-22.52
-27.85
-32.45
-36.99
-42.33
-49.19
-57.91
-68.19
-79.01
-88.65
-95.01
-96.13
-90.71
-78.70
-61.34
-40.90
-20.05
-1.07
14.54
26.22
34.06
38.49
39.97
39.00
36.15
32.09
27.56
23.13
19.11
15.54
12.34
9.48
7.18
5.78
5.52
6.33
7.72
8.94
9.20
8.05
5.42
1.57
-3.05
-8.11
-13.49
-19.30
-25.78
-33.23
-41.87
-51.70
-62.31
-72.61
-80.89
-85.06
-83.22
-74.44
-59.21
-39.51
-18.20
1.82
18.45
30.74
38.80
43.26
44.79
43.86
40.74
35.78
29.52
22.71
16.12
10.39
5.91
2.87
1.29
1.11
2.09
3.75
5.35
6.04
5.08
2.09
-2.85
-9.26
-16.47
-23.93
-31.34
-38.76
-46.62
-55.58
-66.33
-79.22
-93.80
-108.49
-120.63
-127.07
-125.15
-113.67
-93.50
-67.38
-39.08
-12.27
10.46
27.91
40.16
47.95
52.18
53.63
52.90
50.57
47.26
43.63
40.25
37.46
35.29
33.59
32.14
30.86
29.78
29.00
28.44
27.70
26.10
22.86
17.48
9.99
0.95
-8.75
-18.25
-27.13
-35.60
-44.45
-54.77
-67.44
-82.60
-99.22
-115.04
-126.95
-131.84
-127.51
-113.48
-91.20
-63.65
-34.46
-6.90
16.85
35.90
50.32
60.73
67.81
72.05
73.87
73.72
72.19
69.99
67.77
65.93
64.52
63.28
61.87
60.09
58.12
56.32
55.08
54.40
53.79
52.28
48.82
42.72
33.94
23.21
11.71
0.62
-9.25
-17.83
-25.76
-34.11
-44.08
-56.60
-71.80
-88.71
-105.08
-117.69
-123.15
-118.90
-104.21
-80.59
-51.38
-20.69
7.80
31.83
50.72
64.88
75.12
82.04
85.92
86.93
85.48
82.39
78.70
75.35
72.83
71.07
69.59
67.79
65.32
62.20
58.80
55.59
52.99
51.07
49.53
47.80
45.18
41.11
35.34
27.98
19.44
10.31
1.09
-7.88
-16.47
-24.72
-32.84
-41.12
-50.07
-60.28
-72.15
-85.52
-99.23
-111.06
-118.21
-118.07
-109.28
-92.28
-69.24
-43.43
-18.05
4.54
23.26
38.03
49.24
57.26
62.18
64.03
63.08
60.06
56.09
52.47
50.17
49.59
50.48
52.16
53.91
55.24
56.06
56.51
56.83
56.95
56.49
54.78
51.11
45.04
36.54
26.10
14.58
2.89
-8.16
-18.07
-26.69
-34.16
-40.81
-47.19
-53.96
-61.82
-71.14
-81.54
-91.60
-98.93
-100.85
-95.18
-81.24
-60.15
-34.53
-7.72
17.34
38.73
55.75
68.49
77.34
82.53
84.17
82.39
77.77
71.30
64.27
57.79
52.43
48.05
44.04
39.74
34.89
29.79
25.17
21.82
20.14
19.92
20.39
20.47
19.16
15.87
10.48
3.35
-4.90
-13.62
-22.27
-30.55
-38.33
-45.76
-53.21
-61.26
-70.59
-81.55
-93.84
-106.12
-116.10
-120.93
-118.14
-106.45
-86.39
-60.22
-31.31
-3.15
21.60
41.54
56.49
67.03
73.97
77.98
79.51
78.99
76.90
73.96
70.93
68.43
66.81
66.09
66.09
66.51
67.08
67.55
67.70
67.22
65.83
63.25
59.35
54.16
47.85
40.65
32.77
24.37
15.48
6.08
-3.86
-14.23
-24.74
-34.99
-44.55
-53.20
-61.01
-68.49
-76.52
-86.07
-97.77
-111.37
-125.39
-137.20
-143.54
-141.54
-129.72
-108.66
-80.95
-50.40
-20.78
5.14
26.13
42.31
54.44
63.29
69.31
72.69
73.66
72.78
70.91
68.98
67.71
67.28
67.39
67.50
67.15
66.21
64.97
63.89
63.31
63.16
62.88
61.58
58.45
53.12
45.89
37.60
29.27
21.67
14.96
8.65
1.94
-5.86
-14.91
-24.75
-34.55
-43.44
-51.00
-57.35
-63.15
-69.36
-76.92
-86.46
-98.12
-111.24
-124.21
-134.57
-139.41
-136.21
-123.74
-102.64
-75.42
-45.73
-17.29
7.14
26.27
40.18
49.83
56.33
60.54
62.93
63.76
63.29
61.97
60.37
59.05
58.30
58.11
58.23
58.38
58.50
58.80
59.66
61.32
63.65
66.02
67.48
67.07
64.18
58.77
51.37
42.92
34.44
26.65
19.83
13.67
7.54
0.73
-7.13
-15.94
-25.11
-33.83
-41.45
-47.78
-53.23
-58.67
-65.14
-73.53
-84.24
-96.90
-110.19
-121.92
-129.40
-130.08
-122.30
-105.94
-82.59
-55.18
-27.15
-1.52
19.75
35.96
47.42
54.91
59.27
61.11
60.94
59.25
56.65
53.82
51.34
49.50
48.21
47.21
46.22
45.16
44.20
43.61
43.49
43.65
43.57
42.60
40.25
36.40
31.35
25.66
19.88
14.27
8.66
2.60
-4.43
-12.67
-21.90
-31.48
-40.56
-48.40
-54.68
-59.71
-64.27
-69.51
-76.46
-85.62
-96.55
-107.67
-116.53
-120.36
-116.93
-105.30
-86.23
-62.02
-35.78
-10.63
11.11
28.22
40.51
48.44
52.68
53.92
52.75
49.73
45.53
40.89
36.54
33.09
30.94
30.25
30.97
32.91
35.71
38.86
41.76
43.80
44.47
43.48
40.82
36.74
31.63
25.88
19.79
13.44
6.75
-0.49
-8.45
-17.11
-26.26
-35.48
-44.31
-52.44
-59.85
-66.98
-74.58
-83.50
-94.23
-106.38
-118.48
-128.04
-132.21
-128.61
-116.27
-95.99
-70.28
-42.55
-16.17
6.41
24.04
36.79
45.42
50.90
53.96
55.06
54.48
52.56
49.81
46.94
44.63
43.36
43.25
44.10
45.44
46.78
47.76
48.15
47.96
47.23
46.01
44.24
41.69
38.07
33.08
26.62
18.81
10.01
0.68
-8.69
-17.73
-26.27
-34.29
-42.00
-49.77
-58.16
-67.75
-78.80
-90.88
-102.60
-111.66
-115.35
-111.44
-98.99
-78.90
-53.68
-26.75
-1.36
20.25
37.15
49.46
57.83
62.92
65.13
64.76
62.23
58.28
53.92
50.18
47.76
46.96
47.58
49.18
51.23
53.29
55.00
56.18
56.76
56.74
56.15
54.97
53.04
50.10
45.86
40.17
33.10
24.99
16.33
7.56
-1.04
-9.43
-17.79
-26.46
-35.81
-46.25
-58.04
-71.04
-84.47
-96.69
-105.43
-108.25
-103.43
-90.55
-70.92
-47.16
-22.47
0.31
19.35
33.94
44.23
50.68
53.82
54.02
51.76
47.70
42.74
37.87
33.89
31.20
29.75
29.20
29.13
29.29
29.64
30.28
31.29
32.57
33.70
34.01
32.71
29.18
23.15
14.91
5.20
-5.00
-14.76
-23.51
-31.21
-38.24
-45.31
-53.19
-62.47
-73.34
-85.35
-97.22
-106.95
-112.14
-110.61
-101.14
-84.03
-61.04
-35.02
-9.03
14.35
33.54
47.90
57.44
62.47
63.42
60.79
55.33
48.09
40.35
33.37
28.04
24.68
23.06
22.64
22.85
23.45
24.46
26.08
28.39
31.12
33.62
35.02
34.50
31.59
26.36
19.32
11.33
3.24
-4.38
-11.36
-18.01
-25.02
-33.31
-43.65
-56.43
-71.16
-86.33
-99.46
-107.56
-107.99
-99.31
-81.90
-57.89
-30.59
-3.51
20.58
40.09
54.59
64.35
69.86
71.58
69.97
65.65
59.54
52.84
46.69
41.88
38.64
36.59
35.09
33.59
31.94
30.35
29.23
28.81
28.79
28.43
26.78
23.12
17.31
9.86
1.69
-6.26
-13.42
-19.80
-25.81
-32.17
-39.60
-48.71
-59.76
-72.43
-85.58
-97.20
-104.70
-105.61
-98.40
-83.09
-61.45
-36.42
-11.27
11.27
29.61
43.23
52.32
57.30
58.57
56.49
51.66
45.01
37.72
31.03
25.82
22.42
20.62
19.95
20.00
20.57
21.64
23.17
24.84
26.00
25.84
23.61
19.05
12.42
4.52
-3.65
-11.27
-18.04
-24.27
-30.80
-38.67
-48.70
-61.04
-74.88
-88.38
-98.95
-103.87
-101.03
-89.64
-70.65
-46.45
-20.26
4.79
26.41
43.44
55.69
63.47
67.19
67.22
64.00
58.25
51.06
43.76
37.57
33.22
30.75
29.65
29.16
28.68
27.99
27.25
26.74
26.52
26.18
24.93
21.78
16.09
7.78
-2.51
-13.67
-24.54
-34.38
-43.07
-51.21
-59.82
-69.99
-82.50
-97.33
-113.43
-128.60
-139.91
-144.29
-139.56
-125.20
-102.67
-75.01
-45.92
-18.71
4.52
22.97
36.82
46.64
52.97
56.18
56.64
54.96
52.09
49.14
47.09
46.42
47.00
48.21
49.23
49.41
48.63
47.25
45.87
45.02
44.73
44.46
43.25
40.12
34.42
26.14
15.94
4.86
-5.97
-15.77
-24.34
-32.09
-39.92
-48.90
-59.98
-73.52
-89.02
-104.92
-118.64
-127.04
-127.28
-117.71
-98.61
-72.29
-42.42
-13.00
12.85
33.53
48.94
59.90
67.45
72.37
75.06
75.79
74.94
73.10
70.99
69.21
68.02
67.39
67.00
66.52
65.73
64.65
63.38
62.07
60.74
59.20
57.11
54.06
49.73
43.91
36.60
27.97
18.35
8.22
-1.87
-11.42
-20.13
-28.00
-35.44
-43.14
-51.98
-62.60
-75.09
-88.62
-101.28
-110.37
-113.02
-107.12
-92.10
-69.30
-41.70
-13.02
13.35
35.17
51.66
63.21
70.74
75.19
77.26
77.45
76.24
74.20
71.92
69.90
68.38
67.28
66.40
65.50
64.47
63.33
62.12
60.78
59.14
56.93
53.97
50.19
45.71
40.66
35.13
29.02
22.08
14.11
5.08
-4.71
-14.69
-24.22
-32.76
-40.21
-46.84
-53.38
-60.75
-69.83
-81.03
-93.92
-106.95
-117.54
-122.68
-119.90
-108.19
-88.58
-63.88
-37.80
-13.78
6.00
20.84
31.26
38.19
42.36
44.00
43.03
39.41
33.56
26.45
19.35
13.46
9.43
7.19
5.94
4.52
1.85
-2.63
-8.83
-16.11
-23.70
-31.11
-38.46
-46.38
-55.65
-66.81
-79.90
-94.68
-110.86
-128.15
-146.03
-163.19
-177.70
-187.67
-192.57
-194.04
-195.55
-200.85
-211.95
-228.02
-245.61
-260.28
-268.43
-268.08
-258.50
-239.05
-208.58
-165.85
-110.80
-45.79
24.29
93.19
155.16
206.77
247.76
280.70
309.99
340.37
375.61
417.48
465.32
515.94
564.24
604.41
631.35
642.20
637.00
618.52
591.21
559.57
527.00
495.15
464.32
434.34
405.33
377.91
352.87
330.54
310.56
292.09
274.31
256.97
240.43
225.41
212.35
201.01
190.36
178.86
164.92
147.37
125.64
99.73
70.03
37.22
2.10
-34.47
-71.63
-108.59
-144.73
-179.67
-213.26
-245.68
-277.54
-309.72
-342.92
-377.03
-410.46
-440.10
-462.02
-472.78
-470.76
-456.80
-433.80
-405.45
-374.93
-344.14
-313.87
-284.50
-256.74
-231.77
-210.72
-193.99
-180.89
-169.89
-159.44
-148.74
-138.16
-129.04
-122.93
-120.73
-122.19
-125.94
-130.17
-133.26
-134.54
-134.34
-133.84
-134.53
-137.74
-144.24
-153.91
-165.52
-176.64
-183.97
-184.08
-174.44
-154.34
-125.33
-90.91
-55.45
-22.93
3.97
24.22
38.14
46.73
51.06
52.00
50.17
46.21
40.89
35.19
30.15
26.63
25.11
25.45
27.07
29.12
30.88
32.08
32.96
34.01
35.60
37.56
39.09
39.03
36.33
30.55
22.07
11.90
1.24
-8.97
-18.23
-26.56
-34.26
-41.80
-49.68
-58.46
-68.65
-80.41
-93.12
-105.14
-113.85
-116.28
-110.08
-94.51
-70.83
-42.04
-11.97
15.93
39.35
57.42
70.28
78.42
82.22
81.87
77.65
70.36
61.39
52.54
45.37
40.73
38.49
37.78
37.49
36.87
35.88
35.09
35.16
36.34
38.11
39.18
37.97
33.25
24.66
12.94
-0.42
-13.71
-25.66
-35.92
-45.02
-54.13
-64.59
-77.51
-93.34
-111.59
-130.60
-147.53
-158.81
-160.96
-151.75
-131.10
-101.31
-66.48
-31.21
0.69
27.01
47.11
61.39
70.56
75.12
75.46
72.08
65.92
58.36
50.89
44.73
40.46
37.97
36.75
36.24
36.15
36.50
37.43
39.01
40.85
42.07
41.53
38.14
31.38
21.53
9.61
-3.00
-15.02
-25.76
-35.39
-44.78
-55.30
-68.38
-84.93
-104.90
-126.75
-147.39
-162.58
-168.08
-160.95
-140.72
-109.70
-72.37
-33.92
1.24
30.42
52.79
68.82
79.46
85.57
87.72
86.40
82.25
76.24
69.45
62.91
57.19
52.31
47.75
42.86
37.17
30.68
23.82
17.19
11.13
5.44
-0.70
-8.43
-18.76
-32.10
-48.10
-65.78
-83.98
-101.77
-118.86
-135.66
-153.08
-172.21
-193.96
-218.72
-245.99
-274.15
-300.35
-320.99
-332.52
-332.54
-320.61
-298.41
-269.04
-235.91
-201.63
-167.52
-133.84
-100.45
-67.36
-34.98
-3.79
26.02
54.89
83.73
113.60
145.42
179.76
216.59
255.09
293.50
329.21
359.24
381.08
393.48
396.87
393.00
384.13
372.12
357.94
341.72
323.30
302.68
280.39
257.28
234.20
211.71
189.95
168.81
148.05
127.38
106.51
85.06
62.55
38.69
13.74
-10.96
-32.83
-48.40
-54.30
-48.49
-31.12
-4.77
26.29
57.30
84.27
104.65
117.34
122.14
119.31
109.39
93.47
73.39
51.82
31.68
15.46
4.52
-1.10
-2.34
-0.40
3.83
9.99
18.03
27.81
38.70
49.63
59.31
66.63
70.89
71.82
69.62
64.71
57.69
49.19
39.75
29.73
19.25
8.17
-3.89
-17.38
-32.74
-50.30
-69.96
-90.90
-111.30
-128.32
-138.73
-139.89
-130.69
-112.06
-86.69
-57.95
-28.85
-1.26
24.02
46.71
66.44
82.49
94.05
100.81
103.32
102.85
100.94
98.77
96.72
94.46
91.36
86.90
80.97
73.97
66.51
59.13
52.23
45.94
40.36
35.56
31.33
26.95
20.95
11.62
-2.04
-19.26
-37.30
-52.46
-61.93
-65.46
-65.68
-66.74
-72.09
-82.74
-97.15
-112.49
-126.45
-138.17
-147.74
-154.82
-157.72
-153.60
-139.83
-115.53
-82.45
-44.47
-6.08
28.98
58.93
83.77
104.53
122.25
137.26
149.05
156.77
159.87
158.69
154.47
148.82
142.99
137.41
131.78
125.45
118.01
109.48
100.23
90.74
81.47
72.83
65.26
58.99
53.94
49.45
44.52
38.14
29.86
19.91
9.01
-2.23
-13.69
-25.74
-38.77
-52.67
-66.81
-80.46
-93.41
-106.12
-119.16
-132.16
-142.90
-147.58
-142.26
-124.88
-96.81
-62.84
-29.55
-2.94
13.46
19.16
15.87
5.96
-8.57
-26.23
-45.38
-63.68
-78.08
-85.75
-85.28
-77.46
-65.07
-51.75
-40.54
-32.92
-28.56
-26.15
-24.37
-22.68
-21.57
-22.28
-26.19
-34.36
-47.24
-64.63
-85.79
-109.53
-134.35
-158.50
-180.15
-197.70
-210.10
-217.23
-219.95
-219.73
-217.90
-214.71
-208.86
-197.70
-178.30
-148.85
-109.75
-63.76
-15.28
31.09
71.77
104.90
130.19
148.34
160.21
166.41
167.24
162.94
153.91
141.03
125.69
109.73
95.12
83.51
75.87
72.19
71.59
72.70
74.21
75.31
75.81
75.78
75.13
73.30
69.22
61.73
50.25
35.11
17.65
-0.31
-17.18
-32.25
-45.98
-59.71
-75.11
-93.49
-115.34
-140.02
-165.71
-189.49
-207.74
-216.74
-213.64
-197.30
-168.85
-131.48
-89.71
-48.14
-10.56
20.71
44.75
61.72
72.38
77.69
78.65
76.27
71.62
65.82
60.01
55.17
51.90
50.27
49.82
49.79
49.49
48.55
47.03
45.28
43.61
42.02
40.05
36.97
32.09
25.07
16.14
6.07
-4.19
-13.79
-22.28
-29.73
-36.61
-43.67
-51.83
-62.06
-75.16
-91.34
-109.54
-127.19
-140.35
-144.76
-137.26
-117.11
-86.31
-49.13
-10.58
24.98
54.76
77.71
93.86
103.68
107.61
106.07
99.75
89.80
77.85
65.73
55.03
46.82
41.44
38.57
37.51
37.44
37.78
38.28
39.01
40.14
41.64
43.08
43.57
41.99
37.42
29.50
18.76
6.42
-6.01
-17.36
-27.16
-35.81
-44.25
-53.72
-65.38
-80.05
-97.91
-118.08
-138.25
-154.72
-163.14
-159.77
-142.88
-113.57
-75.54
-33.92
6.32
41.57
70.00
91.18
105.32
112.77
113.83
109.15
99.98
88.14
75.78
64.71
56.01
49.81
45.49
42.19
39.24
36.49
34.22
32.91
32.74
33.34
33.77
32.75
29.06
22.10
12.06
-0.07
-12.84
-24.92
-35.55
-44.78
-53.48
-63.05
-75.04
-90.64
-109.96
-131.58
-152.24
-167.36
-172.20
-163.37
-140.09
-104.69
-61.86
-17.17
24.49
59.97
87.94
108.28
121.33
127.45
127.10
121.21
111.38
99.78
88.62
79.45
72.82
68.19
64.47
60.61
56.21
51.60
47.64
45.06
44.00
43.63
42.41
38.61
31.02
19.48
4.95
-10.88
-26.24
-39.94
-51.76
-62.35
-73.06
-85.41
-100.78
-119.89
-142.27
-165.80
-186.63
-199.81
-200.65
-186.32
-157.05
-116.29
-69.65
-23.13
18.49
52.55
78.30
96.16
106.84
110.90
108.94
101.98
91.67
80.17
69.57
61.32
55.78
52.30
49.71
46.98
43.72
40.34
37.69
36.52
36.91
38.01
38.24
35.87
29.66
19.38
5.94
-8.98
-23.59
-36.63
-47.75
-57.65
-67.78
-79.86
-95.42
-115.13
-138.19
-161.95
-182.01
-193.13
-190.71
-172.42
-139.16
-94.99
-45.79
2.45
45.19
80.02
106.35
124.62
135.51
139.69
137.87
131.20
121.41
110.58
100.70
93.16
88.38
85.84
84.41
82.90
80.63
77.64
74.60
72.23
70.73
69.35
66.56
60.62
50.34
35.77
18.26
-0.07
-17.11
-31.59
-43.49
-53.82
-64.23
-76.39
-91.56
-110.13
-131.26
-152.56
-170.16
-179.41
-176.15
-158.17
-126.24
-84.11
-37.48
7.72
46.93
77.78
99.93
114.22
121.79
123.54
120.21
112.73
102.49
91.35
81.15
73.20
67.90
64.71
62.53
60.36
57.71
54.85
52.42
51.01
50.60
50.41
49.02
44.95
37.17
25.62
11.28
-4.20
-19.10
-32.24
-43.34
-53.09
-62.80
-73.99
-87.98
-105.32
-125.35
-145.74
-162.62
-171.21
-167.21
-148.26
-115.02
-71.06
-21.87
26.89
70.77
107.21
135.23
154.72
165.81
168.76
164.21
153.65
139.35
124.02
110.07
98.90
90.59
84.00
77.47
69.51
59.46
47.63
35.02
22.73
11.35
0.67
-10.16
-22.15
-35.97
-51.59
-68.25
-84.79
-100.15
-113.61
-125.06
-134.91
-144.00
-153.54
-164.90
-179.27
-196.98
-216.77
-235.39
-248.06
-249.81
-237.34
-210.55
-172.94
-130.58
-90.18
-56.83
-32.75
-17.24
-7.78
-1.51
3.58
8.36
13.03
17.67
22.20
25.91
27.06
23.28
13.04
-2.56
-19.06
-29.87
-29.21
-14.98
9.92
38.85
64.49
81.80
89.23
87.96
80.03
67.05
50.23
31.32
13.21
-0.51
-7.16
-6.14
0.74
10.02
18.31
23.73
26.48
28.57
33.13
43.48
62.04
89.44
123.96
161.59
196.95
224.73
241.28
245.56
239.22
225.67
208.63
190.83
173.43
156.42
139.57
123.44
109.78
101.16
99.85
106.79
121.07
140.24
160.94
179.79
194.01
201.54
201.21
193.03
178.28
159.17
138.14
116.89
95.92
74.74
52.56
29.05
4.61
-19.82
-43.29
-65.36
-86.18
-106.28
-126.24
-146.30
-166.24
-185.39
-202.59
-216.36
-225.06
-227.20
-221.64
-207.86
-186.18
-157.87
-125.27
-91.45
-59.83
-33.53
-14.89
-5.34
-5.51
-15.48
-34.71
-61.58
-93.13
-125.18
-153.31
-174.08
-185.88
-188.90
-184.25
-172.98
-155.65
-132.73
-105.56
-76.80
-50.28
-29.83
-18.06
-15.53
-20.87
-31.58
-44.94
-58.68
-71.15
-81.25
-88.36
-92.23
-92.78
-90.15
-84.45
-75.59
-62.99
-45.44
-21.37
10.55
50.36
96.16
144.31
190.34
230.42
262.26
285.29
299.89
306.66
305.99
298.35
284.87
267.46
248.40
229.46
211.27
193.27
174.34
153.56
131.09
108.81
90.71
82.51
90.07
116.83
161.16
215.35
267.24
304.18
317.61
305.98
274.41
231.63
185.87
142.20
102.14
65.24
30.93
-0.76
-29.74
-56.99
-84.77
-115.53
-150.09
-186.26
-219.09
-242.45
-251.54
-244.78
-224.40
-195.54
-164.36
-136.18
-114.38
-100.22
-93.38
-92.75
-96.98
-104.81
-114.95
-126.02
-136.58
-145.28
-151.17
-153.81
-153.36
-150.32
-145.21
-138.26
-129.37
-118.39
-105.45
-91.25
-76.98
-63.95
-53.17
-44.94
-38.92
-34.27
-30.02
-25.46
-20.25
-14.48
-8.66
-3.60
-0.22
0.67
-1.21
-5.38
-10.44
-14.40
-15.15
-11.14
-1.86
12.08
29.11
47.13
64.01
77.99
87.86
93.06
93.55
89.75
82.39
72.48
61.13
49.39
38.10
27.68
18.17
9.29
0.71
-7.69
-15.67
-22.64
-28.01
-31.55
-33.68
-35.46
-38.20
-42.81
-49.42
-57.28
-65.06
-71.55
-76.17
-79.19
-81.53
-84.30
-88.44
-94.47
-102.47
-111.92
-121.65
-129.74
-133.70
-131.07
-120.25
-101.05
-75.07
-45.18
-14.82
12.97
36.07
53.38
64.74
70.55
71.61
69.13
64.59
59.58
55.39
52.67
51.23
50.24
48.74
46.11
42.43
38.24
34.16
30.36
26.43
21.42
14.32
4.38
-8.43
-23.23
-38.38
-51.91
-62.24
-68.84
-72.54
-75.22
-79.05
-85.60
-95.20
-106.84
-118.49
-127.73
-132.33
-130.69
-122.15
-107.29
-87.88
-66.54
-46.05
-28.54
-15.16
-6.10
-1.08
0.08
-2.64
-9.27
-19.26
-30.95
-41.59
-47.94
-47.36
-38.88
-23.79
-5.15
13.25
28.27
38.21
42.96
43.36
40.44
35.05
27.84
19.68
11.68
5.13
0.83
-1.43
-2.90
-5.49
-10.91
-20.02
-32.49
-47.02
-61.80
-75.11
-85.54
-91.87
-92.98
-87.73
-75.29
-55.60
-29.85
-0.50
29.20
56.14
78.13
94.22
104.58
109.89
110.91
108.23
102.42
94.32
85.15
76.33
69.12
64.19
61.47
60.28
59.87
59.81
60.26
61.89
65.37
70.84
77.60
84.16
88.59
89.27
85.45
77.46
66.54
54.43
42.68
32.16
22.95
14.38
5.50
-4.51
-15.93
-28.24
-40.01
-49.18
-53.45
-50.91
-40.76
-23.75
-2.14
20.81
41.77
58.13
68.53
72.81
71.64
66.07
57.20
46.12
33.99
22.01
11.31
2.69
-3.54
-7.58
-9.99
-11.44
-12.45
-13.36
-14.31
-15.39
-16.74
-18.50
-20.87
-23.99
-27.84
-32.20
-36.70
-40.91
-44.50
-47.34
-49.58
-51.66
-54.14
-57.71
-62.86
-69.64
-77.30
-84.26
-88.33
-87.36
-79.96
-66.09
-47.12
-25.38
-3.49
16.37
32.74
44.98
52.86
56.41
55.71
51.09
43.21
33.16
22.31
12.03
3.34
-3.27
-7.87
-10.93
-12.99
-14.48
-15.51
-16.01
-15.93
-15.47
-15.12
-15.57
-17.46
-21.06
-26.13
-32.06
-38.07
-43.56
-48.30
-52.51
-56.71
-61.54
-67.64
-75.49
-85.13
-95.96
-106.49
-114.46
-117.30
-112.88
-100.27
-80.08
-54.35
-26.01
1.86
26.79
47.15
62.17
71.79
76.32
76.41
72.89
66.85
59.50
52.12
45.71
40.80
37.40
35.08
33.26
31.58
30.01
28.82
28.27
28.34
28.54
28.03
25.94
21.76
15.48
7.66
-0.87
-9.24
-16.93
-23.83
-30.34
-37.24
-45.48
-55.79
-68.36
-82.49
-96.38
-107.29
-112.10
-108.15
-94.16
-70.78
-40.44
-6.69
26.79
56.97
81.93
100.69
112.98
119.00
119.36
115.17
108.03
99.85
92.32
86.48
82.47
79.70
77.20
74.17
70.19
65.31
59.92
54.47
49.23
44.18
38.95
32.86
25.09
14.92
1.99
-13.54
-31.05
-49.63
-68.59
-87.60
-106.89
-127.10
-148.92
-172.71
-198.00
-223.11
-245.18
-260.64
-266.11
-259.34
-240.05
-210.00
-172.53
-131.57
-90.61
-52.19
-17.90
11.27
34.74
52.33
64.52
72.49
77.96
82.77
88.08
94.00
99.47
102.95
103.20
99.72
92.60
82.56
70.68
57.97
44.99
31.68
17.78
3.19
-11.84
-27.24
-42.33
-55.46
-64.58
-68.75
-69.32
-69.91
-74.88
-87.25
-107.73
-132.67
-154.29
-163.54
-153.93
-124.12
-77.40
-19.59
42.92
102.66
152.84
188.63
208.15
212.87
207.20
198.31
193.85
206.29
238.99
282.72
321.73
345.85
355.19
355.02
350.13
340.75
323.84
294.98
252.29
197.44
133.87
67.48
0.71
-66.76
-135.94
-208.08
-285.01
-367.35
-453.01
-536.43
-609.68
-664.61
-694.31
-693.65
-662.70
-607.94
-539.51
-466.88
-395.82
-328.07
-263.37
-201.03
-138.86
-76.33
-15.02
43.00
97.09
148.37
198.36
247.18
293.39
337.42
378.51
414.32
441.80
459.00
465.75
462.93
451.44
414.10
344.07
248.33
144.28
48.21
-31.31
-92.69
-138.02
-170.19
-193.73
-208.84
-215.86
-216.64
-214.36
-211.62
-209.29
-208.01
-207.64
-207.96
-206.39
-201.32
-193.01
-183.16
-173.60
-165.33
-158.58
-153.00
-148.19
-142.20
-133.74
-122.76
-110.35
-97.81
-86.12
-75.84
-67.11
-59.84
-52.93
-45.46
-37.07
-28.15
-19.60
-12.47
-7.87
-6.50
-8.50
-12.84
-17.75
-21.15
-21.11
-16.23
-5.85
10.04
31.06
56.74
86.75
120.93
159.04
200.86
246.08
294.29
344.42
394.07
439.07
473.89
493.22
493.97
476.80
446.12
408.56
370.39
335.49
304.63
276.27
248.28
219.31
189.35
159.28
130.14
102.63
77.13
54.00
33.75
16.95
4.01
-5.17
-11.35
-15.76
-19.77
-24.58
-30.87
-38.75
-47.81
-57.38
-66.84
-75.85
-84.38
-92.65
-101.00
-109.64
-118.70
-128.26
-138.52
-149.87
-162.62
-176.49
-190.05
-200.69
-205.00
-199.99
-184.12
-158.11
-124.70
-87.83
-51.29
-17.86
11.01
34.95
53.98
68.10
77.26
81.59
81.74
78.93
74.75
70.66
67.69
66.18
65.94
66.45
67.23
67.99
68.65
69.21
69.60
69.54
68.50
65.82
60.93
53.54
43.88
32.70
21.05
9.96
0.08
-8.60
-16.66
-25.06
-34.83
-46.74
-60.93
-76.65
-92.12
-104.74
-111.66
-110.55
-100.37
-81.75
-56.86
-28.68
-0.22
26.13
48.86
67.20
80.84
89.65
93.71
93.40
89.47
83.10
75.74
68.80
63.43
60.21
59.07
59.41
60.36
61.11
61.21
60.58
59.42
57.97
56.16
53.62
49.76
44.03
36.27
26.80
16.35
5.76
-4.29
-13.51
-22.10
-30.54
-39.52
-49.74
-61.79
-75.89
-91.64
-107.63
-121.45
-130.03
-130.47
-120.96
-101.58
-74.35
-42.74
-10.62
18.70
43.16
62.03
75.56
84.46
89.45
91.13
89.98
86.58
81.73
76.40
71.59
68.05
66.01
65.20
65.02
64.84
64.28
63.30
62.06
60.71
59.19
57.18
54.16
49.65
43.42
35.56
26.47
16.74
6.92
-2.57
-11.59
-20.19
-28.61
-37.13
-46.13
-55.99
-67.03
-79.28
-92.15
-104.14
-112.99
-116.13
-111.50
-98.35
-77.62
-51.76
-23.96
2.78
26.35
45.73
60.75
71.65
78.66
82.03
82.07
79.39
74.97
69.92
65.26
61.66
59.32
58.04
57.44
57.10
56.75
56.21
55.35
54.03
52.11
49.44
45.93
41.59
36.41
30.40
23.55
15.86
7.41
-1.54
-10.67
-19.64
-28.20
-36.37
-44.40
-52.77
-62.07
-72.84
-85.24
-98.73
-111.80
-122.11
-127.02
-124.41
-113.49
-95.18
-71.85
-46.61
-22.35
-1.07
16.28
29.55
38.94
44.66
46.87
45.86
42.21
36.88
31.06
25.86
22.06
19.98
19.43
19.91
20.84
21.70
22.20
22.24
21.82
20.94
19.42
16.95
13.15
7.74
0.70
-7.65
-16.70
-25.78
-34.33
-42.12
-49.21
-55.90
-62.66
-70.00
-78.38
-88.11
-99.00
-110.12
-119.72
-125.44
-124.97
-116.84
-100.99
-78.98
-53.41
-27.27
-3.00
17.90
34.88
48.02
57.58
63.81
66.85
67.00
64.79
61.10
56.92
53.19
50.51
49.06
48.65
48.83
49.17
49.39
49.37
49.14
48.66
47.82
46.39
44.06
40.58
35.81
29.77
22.61
14.59
6.04
-2.69
-11.27
-19.47
-27.25
-34.79
-42.51
-50.94
-60.65
-71.88
-84.30
-96.76
-107.33
-113.70
-113.74
-106.30
-91.59
-71.22
-47.71
-23.77
-1.65
17.23
32.28
43.48
51.11
55.52
57.11
56.37
53.94
50.56
46.98
43.87
41.65
40.48
40.31
40.88
41.88
42.97
43.85
44.29
44.10
43.22
41.60
39.24
36.10
32.07
27.02
20.87
13.68
5.67
-2.72
-11.06
-18.98
-26.34
-33.30
-40.27
-47.82
-56.50
-66.64
-77.95
-89.40
-99.19
-105.10
-105.13
-98.21
-84.65
-66.07
-44.94
-23.78
-4.57
11.59
24.35
33.78
40.07
43.40
44.00
42.26
38.83
34.56
30.31
26.76
24.31
23.02
22.65
22.84
23.26
23.70
24.12
24.50
24.78
24.77
24.12
22.46
19.50
15.16
9.63
3.28
-3.40
-10.00
-16.34
-22.45
-28.65
-35.34
-42.95
-51.75
-61.67
-72.15
-82.05
-89.71
-93.30
-91.35
-83.19
-69.37
-51.52
-31.87
-12.60
4.68
19.18
30.75
39.51
45.52
48.71
48.98
46.55
42.08
36.62
31.37
27.30
24.81
23.72
23.46
23.39
23.15
22.72
22.32
22.16
22.19
22.04
21.14
18.87
14.84
9.06
1.85
-6.19
-14.42
-22.33
-29.71
-36.72
-43.76
-51.41
-60.22
-70.49
-82.13
-94.36
-105.74
-114.27
-117.89
-115.02
-105.16
-89.14
-68.91
-46.99
-25.71
-6.73
9.13
21.70
31.10
37.48
40.97
41.78
40.38
37.57
34.32
31.58
29.97
29.66
30.36
31.50
32.54
33.16
33.37
33.41
33.53
33.76
33.80
33.07
30.96
27.09
21.53
14.73
7.38
0.06
-6.90
-13.58
-20.31
-27.54
-35.73
-45.21
-56.13
-68.22
-80.60
-91.72
-99.54
-102.05
-97.92
-87.01
-70.51
-50.57
-29.64
-9.82
7.59
22.06
33.60
42.40
48.55
52.11
53.19
52.14
49.64
46.58
43.82
41.95
41.11
41.04
41.26
41.35
41.15
40.78
40.54
40.61
40.90
40.92
39.94
37.23
32.42
25.65
17.54
8.95
0.66
-6.94
-13.92
-20.78
-28.19
-36.78
-46.95
-58.65
-71.25
-83.51
-93.60
-99.46
-99.35
-92.34
-78.79
-60.21
-39.00
-17.67
1.72
17.94
30.52
39.55
45.29
48.04
48.10
45.94
42.28
38.03
34.12
31.24
29.69
29.34
29.78
30.59
31.52
32.52
33.60
34.70
35.43
35.22
33.44
29.69
24.01
16.86
9.02
1.26
-5.92
-12.44
-18.69
-25.39
-33.34
-43.11
-54.72
-67.37
-79.44
-88.72
-93.04
-90.82
-81.65
-66.42
-47.03
-25.89
-5.20
13.37
28.96
41.24
50.22
55.97
58.61
58.42
55.95
52.09
47.96
44.60
42.72
42.49
43.56
45.28
46.98
48.20
48.79
48.82
48.39
47.40
45.53
42.31
37.38
30.65
22.37
13.03
3.19
-6.74
-16.50
-26.06
-35.47
-44.95
-54.86
-65.70
-77.83
-91.16
-104.80
-116.89
-125.02
-126.88
-121.10
-107.79
-88.50
-65.73
-42.08
-19.59
0.52
17.78
32.12
43.55
52.14
58.03
61.54
63.21
63.66
63.51
63.27
63.28
63.73
64.60
65.74
66.82
67.50
67.53
66.81
65.36
63.23
60.38
56.65
51.80
45.68
38.30
29.93
20.94
11.74
2.60
-6.33
-15.07
-23.68
-32.36
-41.35
-51.01
-61.69
-73.44
-85.76
-97.40
-106.43
-110.68
-108.46
-99.12
-83.44
-63.33
-41.28
-19.62
-0.05
16.58
30.06
40.51
48.14
53.15
55.80
56.46
55.74
54.35
52.97
52.14
52.09
52.69
53.60
54.38
54.71
54.44
53.68
52.59
51.28
49.69
47.56
44.53
40.26
34.59
27.58
19.57
11.05
2.55
-5.50
-12.87
-19.60
-25.99
-32.56
-39.92
-48.61
-58.83
-70.23
-81.69
-91.38
-97.16
-97.13
-90.30
-76.99
-58.79
-38.06
-17.27
1.70
17.84
30.90
41.07
48.62
53.74
56.55
57.32
56.58
55.03
53.40
52.21
51.65
51.58
51.74
51.92
52.06
52.24
52.47
52.61
52.30
51.09
48.64
44.91
40.21
34.99
29.62
24.14
18.32
11.82
4.51
-3.48
-11.66
-19.48
-26.58
-32.93
-38.85
-44.87
-51.60
-59.53
-68.83
-79.13
-89.35
-97.74
-102.22
-100.98
-93.15
-79.16
-60.75
-40.32
-20.35
-2.61
11.97
23.30
31.72
37.72
41.69
43.98
44.91
44.89
44.40
43.89
43.77
44.23
45.23
46.58
48.00
49.27
50.29
51.07
51.63
51.86
51.44
49.98
47.14
42.88
37.53
31.69
25.97
20.70
15.82
10.92
5.46
-0.91
-8.18
-15.96
-23.66
-30.74
-36.91
-42.21
-47.09
-52.25
-58.44
-66.25
-75.70
-86.03
-95.65
-102.49
-104.58
-100.71
-90.89
-76.39
-59.28
-41.76
-25.62
-11.85
-0.78
7.67
13.70
17.55
19.45
19.80
19.18
18.25
17.63
17.75
18.74
20.51
22.86
25.57
28.45
31.35
34.04
36.24
37.67
38.10
37.46
35.84
33.41
30.30
26.59
22.24
17.18
11.43
5.12
-1.49
-8.09
-14.40
-20.29
-25.81
-31.27
-37.11
-43.81
-51.66
-60.46
-69.37
-76.99
-81.64
-81.85
-76.87
-66.93
-53.21
-37.45
-21.50
-6.85
5.58
15.43
22.74
27.72
30.63
31.79
31.54
30.34
28.69
27.08
25.96
25.61
26.12
27.43
29.34
31.56
33.80
35.77
37.27
38.14
38.30
37.73
36.36
34.08
30.75
26.31
20.82
14.54
7.86
1.24
-5.01
-10.76
-16.13
-21.39
-26.88
-32.91
-39.77
-47.59
-56.24
-65.14
-73.16
-78.75
-80.30
-76.72
-67.91
-54.80
-39.17
-23.02
-8.06
4.74
15.09
23.10
29.01
32.96
34.98
35.13
33.68
31.15
28.27
25.74
24.07
23.45
23.76
24.68
25.89
27.16
28.41
29.63
30.76
31.65
32.01
31.56
30.06
27.41
23.68
19.02
13.63
7.77
1.70
-4.36
-10.25
-15.98
-21.71
-27.78
-34.54
-42.23
-50.70
-59.31
-66.89
-72.02
-73.42
-70.32
-62.80
-51.66
-38.29
-24.19
-10.64
1.48
11.66
19.61
25.17
28.21
28.79
27.25
24.22
20.57
17.17
14.65
13.24
12.79
12.90
13.18
13.42
13.64
14.01
14.68
15.54
16.30
16.45
15.53
13.27
9.71
5.11
-0.06
-5.37
-10.55
-15.53
-20.50
-25.84
-32.00
-39.29
-47.66
-56.50
-64.65
-70.65
-73.03
-70.85
-63.97
-53.08
-39.54
-24.98
-10.85
1.74
12.18
20.19
25.71
28.81
29.67
28.57
25.99
22.50
18.74
15.30
12.60
10.83
10.01
10.01
10.66
11.72
12.90
13.82
14.06
13.29
11.29
8.09
3.94
-0.79
-5.68
-10.46
-15.07
-19.73
-24.91
-31.16
-38.85
-47.93
-57.67
-66.66
-73.07
-75.17
-71.87
-63.12
-49.95
-34.17
-17.81
-2.64
10.22
20.29
27.55
32.22
34.47
34.48
32.48
28.94
24.50
19.98
16.06
13.22
11.58
11.00
11.21
11.94
12.92
13.85
14.35
13.97
12.31
9.18
4.66
-0.85
-6.88
-12.96
-18.91
-24.86
-31.26
-38.73
-47.72
-58.24
-69.52
-80.00
-87.61
-90.38
-87.04
-77.50
-62.92
-45.26
-26.78
-9.31
5.93
18.43
28.11
35.07
39.47
41.51
41.54
40.06
37.76
35.33
33.33
32.04
31.43
31.27
31.26
31.25
31.20
31.18
31.14
30.78
29.61
27.05
22.79
16.89
9.86
2.40
-4.90
-11.80
-18.49
-25.51
-33.54
-43.19
-54.63
-67.36
-80.10
-90.86
-97.43
-98.01
-91.79
-79.30
-62.18
-42.70
-23.07
-4.91
10.86
23.99
34.57
42.84
49.04
53.41
56.20
57.67
58.12
57.92
57.48
57.19
57.37
58.13
59.35
60.72
61.82
62.32
62.03
60.92
59.02
56.37
52.96
48.71
43.55
37.40
30.26
22.29
13.72
4.86
-3.96
-12.46
-20.56
-28.31
-36.03
-44.14
-53.19
-63.56
-75.23
-87.51
-98.91
-107.34
-110.64
-107.27
-96.91
-80.61
-60.55
-39.29
-19.06
-1.25
13.73
26.09
36.28
44.61
51.22
56.15
59.57
61.84
63.53
65.15
66.99
69.02
70.96
72.48
73.44
73.90
74.10
74.30
74.57
74.69
74.21
72.61
69.51
64.87
58.99
52.47
45.94
39.87
34.35
29.16
23.87
18.02
11.37
4.00
-3.80
-11.59
-18.98
-25.78
-32.01
-37.94
-44.00
-50.70
-58.59
-68.06
-79.09
-91.01
-102.36
-111.08
-114.99
-112.44
-102.94
-87.40
-67.82
-46.73
-26.43
-8.48
6.46
18.48
27.98
35.37
40.92
44.79
47.19
48.51
49.33
50.29
51.88
54.21
57.06
59.90
62.26
63.89
64.86
65.44
65.91
66.28
66.27
65.37
63.11
59.30
54.17
48.24
42.16
36.48
31.41
26.81
22.34
17.61
12.35
6.55
0.39
-5.82
-11.81
-17.46
-22.84
-28.13
-33.58
-39.47
-46.08
-53.65
-62.29
-71.75
-81.22
-89.29
-94.17
-94.22
-88.56
-77.45
-62.22
-44.93
-27.62
-11.83
1.71
12.89
21.93
29.08
34.47
38.18
40.37
41.34
41.57
41.60
41.86
42.56
43.68
45.02
46.35
47.55
48.60
49.58
50.50
51.23
51.49
50.87
49.05
45.91
41.64
36.65
31.44
26.42
21.74
17.34
12.97
8.34
3.21
-2.46
-8.51
-14.69
-20.67
-26.23
-31.30
-36.04
-40.79
-46.04
-52.26
-59.77
-68.47
-77.63
-85.97
-91.83
-93.61
-90.31
-81.87
-69.24
-54.08
-38.26
-23.28
-10.05
1.09
10.22
17.49
23.05
26.98
29.44
30.76
31.41
31.89
32.60
33.71
35.19
36.85
38.47
39.91
41.13
42.17
43.12
44.03
44.80
45.18
44.88
43.63
41.31
38.00
33.95
29.53
25.05
20.68
16.40
12.05
7.42
2.41
-2.98
-8.57
-14.08
-19.36
-24.30
-29.06
-33.91
-39.23
-45.34
-52.48
-60.55
-69.04
-76.99
-83.03
-85.78
-84.19
-77.95
-67.60
-54.44
-40.07
-25.97
-13.22
-2.39
6.39
13.16
18.06
21.23
22.87
23.30
22.96
22.36
22.01
22.27
23.27
24.90
26.92
29.07
31.20
33.26
35.18
36.86
38.05
38.43
37.77
36.01
33.29
29.88
26.05
22.02
17.87
13.57
9.09
4.39
-0.51
-5.48
-10.39
-15.05
-19.39
-23.43
-27.46
-31.87
-37.13
-43.54
-50.97
-58.74
-65.66
-70.26
-71.25
-67.89
-60.28
-49.38
-36.62
-23.51
-11.24
-0.50
8.46
15.61
20.96
24.43
25.99
25.78
24.22
21.99
19.82
18.28
17.65
17.84
18.58
19.60
20.75
22.09
23.66
25.42
27.15
28.50
29.09
28.69
27.26
24.91
21.81
18.02
13.59
8.58
3.18
-2.32
-7.53
-12.21
-16.34
-20.14
-24.07
-28.64
-34.21
-40.86
-48.18
-55.28
-60.87
-63.63
-62.56
-57.38
-48.62
-37.47
-25.35
-13.45
-2.55
6.93
14.79
20.81
24.76
26.51
26.19
24.25
21.37
18.24
15.41
13.20
11.70
10.88
10.62
10.80
11.31
12.05
12.90
13.73
14.40
14.66
14.25
12.87
10.29
6.42
1.36
-4.57
-10.91
-17.13
-22.84
-27.91
-32.58
-37.43
-43.16
-50.30
-58.89
-68.25
-77.01
-83.45
-85.96
-83.62
-76.43
-65.32
-51.82
-37.50
-23.66
-11.03
0.05
9.47
17.14
22.91
26.67
28.47
28.65
27.75
26.43
25.23
24.46
24.15
24.19
24.39
24.62
24.88
25.17
25.56
26.03
26.47
26.66
26.26
24.88
22.19
18.00
12.44
5.91
-1.05
-7.89
-14.32
-20.35
-26.28
-32.59
-39.79
-48.23
-57.92
-68.34
-78.37
-86.41
-90.78
-90.14
-84.05
-73.06
-58.64
-42.65
-26.80
-12.30
0.32
10.99
19.87
27.08
32.62
36.46
38.63
39.32
38.91
37.92
36.83
36.05
35.75
35.94
36.52
37.33
38.25
39.16
39.90
40.27
40.04
39.01
37.00
33.95
29.86
24.79
18.88
12.33
5.38
-1.69
-8.69
-15.55
-22.34
-29.34
-36.93
-45.53
-55.36
-66.20
-77.22
-86.91
-93.46
-95.14
-90.98
-81.05
-66.54
-49.34
-31.51
-14.73
-0.03
12.18
21.97
29.58
35.30
39.38
42.06
43.56
44.15
44.14
43.84
43.57
43.59
44.09
45.08
46.47
48.03
49.49
50.57
51.05
50.76
49.63
47.69
44.99
41.61
37.57
32.85
27.41
21.24
14.43
7.19
-0.22
-7.54
-14.61
-21.46
-28.30
-35.52
-43.59
-52.92
-63.50
-74.73
-85.30
-93.36
-96.99
-94.86
-86.64
-73.19
-56.26
-37.96
-20.14
-4.06
9.71
21.06
30.11
36.98
41.84
44.87
46.40
46.88
46.75
46.44
46.23
46.27
46.67
47.51
48.88
50.75
52.94
55.09
56.74
57.47
57.01
55.40
52.84
49.60
45.89
41.71
36.92
31.38
25.04
18.02
10.60
3.13
-4.15
-11.10
-17.77
-24.35
-31.14
-38.54
-46.89
-56.34
-66.59
-76.65
-84.95
-89.62
-89.10
-82.67
-70.77
-54.88
-37.05
-19.33
-3.21
10.50
21.65
30.42
37.06
41.74
44.50
45.41
44.65
42.69
40.21
38.02
36.75
36.72
37.80
39.53
41.35
42.87
43.97
44.75
45.35
45.75
45.69
44.75
42.58
39.00
34.14
28.31
21.95
15.36
8.76
2.23
-4.21
-10.56
-16.87
-23.32
-30.23
-37.97
-46.72
-56.15
-65.20
-72.20
-75.30
-73.14
-65.36
-52.80
-37.20
-20.65
-4.90
9.01
20.71
30.21
37.54
42.57
45.11
45.11
42.94
39.41
35.51
32.13
29.77
28.40
27.67
27.17
26.72
26.42
26.54
27.23
28.35
29.44
29.87
29.13
26.96
23.46
18.95
13.79
8.25
2.49
-3.47
-9.62
-15.97
-22.58
-29.60
-37.32
-46.03
-55.82
-66.23
-76.12
-83.79
-87.39
-85.60
-78.07
-65.65
-50.03
-33.20
-16.88
-2.16
10.47
20.90
29.11
35.03
38.53
39.62
38.60
36.04
32.78
29.63
27.20
25.69
24.94
24.51
24.02
23.26
22.32
21.47
20.90
20.58
20.15
19.06
16.75
12.87
7.39
0.60
-7.01
-14.95
-22.85
-30.59
-38.30
-46.29
-54.98
-64.77
-75.91
-88.35
-101.58
-114.58
-125.86
-133.77
-136.97
-134.86
-127.80
-117.08
-104.49
-91.82
-80.55
-71.66
-65.74
-63.06
-63.72
-67.54
-74.06
-82.57
-92.30
-102.67
-113.42
-124.68
-136.80
-150.15
-164.96
-181.05
-197.81
-214.15
-228.68
-239.88
-246.32
-246.90
-240.98
-228.43
-209.52
-184.63
-153.92
-117.20
-74.06
-24.38
31.21
91.21
153.47
215.76
276.25
333.66
386.93
434.80
475.56
507.34
528.80
539.77
541.54
536.49
527.44
517.04
507.34
499.53
493.94
490.00
486.39
481.30
472.82
459.23
439.23
412.23
378.85
341.22
303.04
268.89
242.87
227.11
220.66
219.68
218.80
213.08
199.54
177.72
149.03
115.57
79.30
41.80
4.49
-31.15
-63.90
-93.36
-120.35
-146.53
-173.41
-201.16
-228.26
-252.38
-271.77
-286.61
-299.08
-312.16
-327.92
-346.26
-364.87
-380.37
-389.80
-391.64
-385.91
-373.60
-355.90
-333.99
-309.03
-282.47
-255.93
-230.99
-208.76
-189.68
-173.61
-160.04
-148.41
-138.19
-129.01
-120.59
-112.70
-105.16
-97.85
-90.63
-83.29
-75.59
-67.31
-58.44
-49.24
-40.19
-31.91
-24.94
-19.59
-15.93
-13.82
-13.02
-13.26
-14.28
-15.85
-17.78
-19.95
-22.24
-24.55
-26.88
-29.32
-32.17
-35.93
-41.01
-47.48
-54.72
-61.35
-65.48
-65.35
-59.95
-49.45
-35.17
-19.11
-3.26
10.88
22.58
31.72
38.46
42.93
45.18
45.25
43.35
39.94
35.69
31.37
27.59
24.77
23.02
22.15
21.91
22.02
22.29
22.65
23.05
23.36
23.29
22.47
20.53
17.26
12.72
7.23
1.22
-4.94
-11.04
-17.05
-23.09
-29.30
-35.75
-42.56
-49.86
-57.88
-66.75
-76.25
-85.54
-93.11
-97.09
-95.87
-88.72
-76.23
-60.10
-42.64
-26.06
-11.93
-1.06
6.31
10.29
11.17
9.56
6.58
3.82
3.03
5.51
11.58
20.38
30.20
39.12
45.71
49.42
50.55
49.85
48.06
45.58
42.44
38.42
33.29
26.93
19.33
10.61
0.98
-9.19
-19.42
-29.18
-38.01
-45.76
-52.59
-59.08
-66.11
-74.65
-85.36
-98.07
-111.50
-123.13
-129.81
-128.70
-118.40
-99.66
-75.29
-49.22
-25.18
-5.63
8.63
18.03
23.41
25.33
23.96
19.42
12.27
3.66
-5.00
-12.56
-18.61
-23.55
-28.08
-32.69
-37.29
-41.26
-43.81
-44.44
-43.22
-40.78
-38.02
-35.77
-34.51
-34.22
-34.41
-34.29
-32.83
-28.84
-21.00
-7.82
12.20
40.23
76.62
120.46
169.50
220.56
270.28
315.85
355.16
386.59
408.45
418.76
415.60
397.91
366.27
323.23
272.84
219.56
167.21
118.38
74.52
36.42
4.87
-19.20
-34.74
-41.03
-37.88
-25.91
-6.51
18.16
45.33
72.05
95.51
113.61
125.25
130.41
129.94
125.14
117.45
108.18
98.43
89.01
80.42
72.70
65.44
57.97
49.66
40.18
29.72
18.90
8.49
-0.80
-8.59
-14.94
-20.25
-25.17
-30.33
-36.02
-42.11
-47.94
-52.60
-55.30
-55.68
-53.97
-50.83
-47.05
-43.23
-39.60
-36.23
-33.16
-30.54
-28.67
-27.82
-28.04
-29.13
-30.75
-32.51
-34.16
-35.65
-37.05
-38.44
-39.82
-41.12
-42.24
-43.12
-43.81
-44.42
-45.11
-45.94
-46.85
-47.70
-48.35
-48.73
-48.88
-48.94
-49.00
-49.04
-48.92
-48.48
-47.66
-46.61
-45.78
-45.73
-47.02
-49.93
-54.29
-59.39
-64.05
-66.94
-66.91
-63.45
-56.80
-47.98
-38.40
-29.41
-21.94
-16.30
-12.25
-9.27
-6.86
-4.71
-2.79
-1.22
-0.13
0.43
0.56
0.44
0.25
0.09
-0.03
-0.19
-0.47
-0.92
-1.54
-2.34
-3.40
-4.81
-6.68
-9.10
-12.08
-15.58
-19.55
-23.88
-28.37
-32.68
-36.45
-39.39
-41.52
-43.27
-45.40
-48.75
-53.87
-60.74
-68.75
-76.68
-82.91
-85.64
-83.25
-74.69
-59.90
-40.07
-17.51
4.93
24.58
39.73
49.98
56.09
59.39
61.14
62.06
62.19
61.21
58.81
54.94
49.99
44.58
39.37
34.81
31.09
28.23
26.17
24.89
24.37
24.41
24.62
24.42
23.23
20.68
16.80
11.91
6.49
0.96
-4.51
-9.92
-15.32
-20.73
-26.03
-31.06
-35.69
-39.92
-43.98
-48.27
-53.28
-59.41
-66.72
-74.67
-82.00
-86.89
-87.44
-82.36
-71.48
-55.97
-37.98
-19.92
-3.78
9.35
19.18
25.95
30.01
31.56
30.78
27.97
23.70
18.81
14.24
10.73
8.69
8.05
8.32
8.86
9.10
8.80
8.07
7.26
6.71
6.57
6.69
6.65
5.97
4.22
1.18
-3.18
-8.71
-15.06
-21.78
-28.35
-34.34
-39.53
-44.06
-48.37
-53.13
-59.01
-66.42
-75.19
-84.43
-92.46
-97.13
-96.46
-89.27
-75.66
-57.12
-36.10
-15.26
3.20
17.99
28.72
35.64
39.22
39.94
38.19
34.41
29.17
23.27
17.57
12.91
9.88
8.74
9.39
11.34
13.92
16.41
18.23
19.05
18.81
17.68
15.81
13.25
9.81
5.21
-0.79
-8.10
-16.22
-24.40
-31.92
-38.42
-44.03
-49.28
-54.87
-61.41
-69.28
-78.60
-89.17
-100.20
-110.30
-117.36
-119.01
-113.30
-99.54
-78.63
-53.02
-25.92
-0.42
21.31
38.25
50.32
57.99
61.85
62.45
60.33
56.16
50.80
45.28
40.56
37.36
35.89
35.87
36.65
37.48
37.83
37.56
36.87
36.07
35.36
34.51
32.97
29.95
24.90
17.70
8.80
-0.95
-10.62
-19.50
-27.33
-34.29
-40.83
-47.55
-55.10
-64.11
-75.02
-87.76
-101.34
-113.60
-121.55
-122.13
-113.30
-94.93
-69.04
-39.18
-9.40
17.04
38.27
53.93
64.62
71.18
74.25
74.18
71.24
65.99
59.39
52.73
47.25
43.73
42.24
42.25
42.95
43.66
44.08
44.32
44.65
45.12
45.45
44.95
42.85
38.53
31.86
23.18
13.27
3.08
-6.62
-15.42
-23.43
-31.15
-39.32
-48.73
-60.09
-73.77
-89.61
-106.59
-122.63
-134.80
-139.90
-135.49
-120.80
-97.20
-67.86
-36.88
-7.99
16.23
34.71
47.47
55.09
58.21
57.38
53.31
47.05
40.15
34.36
31.16
31.26
34.37
39.32
44.60
49.02
52.11
54.22
56.06
58.22
60.65
62.59
62.85
60.42
54.92
46.87
37.47
28.11
19.86
13.03
7.13
1.15
-6.15
-15.88
-28.75
-44.78
-63.01
-81.24
-96.15
-103.93
-101.37
-87.08
-62.16
-30.09
4.40
36.78
63.84
84.21
97.94
105.83
108.67
107.19
102.05
94.28
85.20
76.20
68.33
61.94
56.70
51.89
46.85
41.44
36.06
31.39
27.96
25.64
23.56
20.40
14.89
6.44
-4.55
-16.91
-29.17
-40.27
-49.86
-58.46
-67.12
-76.96
-88.74
-102.49
-117.20
-130.79
-140.32
-142.56
-135.02
-116.77
-89.07
-55.12
-19.20
14.47
42.75
64.03
78.06
85.48
87.26
84.47
78.22
69.66
60.03
50.50
42.02
35.21
30.28
27.25
25.99
26.36
28.08
30.66
33.35
35.13
34.95
32.02
26.10
17.55
7.25
-3.71
-14.39
-24.39
-33.95
-44.03
-55.98
-70.98
-89.23
-109.36
-128.24
-141.59
-145.25
-136.58
-115.54
-84.80
-48.98
-13.17
18.46
43.47
61.16
72.06
77.22
77.70
74.50
68.59
61.11
53.24
46.09
40.41
36.51
34.37
33.79
34.59
36.64
39.70
43.20
46.26
47.81
46.95
43.31
37.11
29.07
20.08
10.80
1.46
-8.23
-19.01
-31.89
-47.64
-66.27
-86.42
-105.19
-118.57
-122.51
-114.38
-93.99
-63.88
-28.59
6.79
37.98
62.39
79.23
88.94
92.56
91.23
86.03
78.05
68.50
58.55
49.22
41.18
34.71
29.77
26.12
23.50
21.56
19.87
17.83
14.72
9.96
3.28
-5.06
-14.33
-23.49
-31.53
-37.80
-42.23
-45.40
-48.39
-52.55
-58.88
-67.56
-77.33
-85.61
-88.95
-84.18
-69.49
-45.22
-13.86
20.72
54.39
83.83
106.99
123.09
132.14
134.50
130.71
121.50
107.96
91.59
74.24
57.70
43.42
32.20
24.10
18.65
15.02
12.27
9.57
6.18
1.44
-5.29
-14.52
-26.60
-41.52
-58.93
-78.17
-98.44
-118.99
-139.25
-158.73
-176.79
-192.30
-203.43
-207.83
-203.21
-188.16
-162.92
-129.57
-91.64
-53.10
-17.32
13.80
39.83
61.45
79.68
95.42
109.20
121.47
132.72
143.57
154.58
165.97
177.44
188.30
197.74
205.13
210.32
213.58
215.45
216.54
217.37
218.33
219.66
221.39
223.39
225.29
226.48
226.27
223.97
219.17
212.03
203.40
194.84
188.34
185.72
187.93
194.72
204.57
215.24
224.49
230.79
233.65
233.42
230.82
226.46
220.52
212.73
202.56
189.50
173.26
153.88
131.79
107.81
83.02
58.48
34.94
12.55
-9.19
-31.14
-54.02
-77.96
-102.27
-125.56
-146.21
-162.95
-175.35
-183.92
-190.01
-195.44
-202.03
-211.18
-223.47
-238.44
-254.52
-269.27
-279.87
-283.94
-280.13
-268.54
-250.63
-228.79
-205.75
-183.94
-165.11
-150.13
-139.06
-131.38
-126.22
-122.63
-119.83
-117.30
-114.82
-112.38
-110.13
-108.25
-106.90
-106.19
-106.12
-106.66
-107.68
-109.05
-110.63
-112.24
-113.64
-114.54
-114.65
-113.77
-111.84
-108.83
-104.68
-99.19
-92.21
-83.81
-74.51
-65.22
-57.02
-50.73
-46.66
-44.63
-44.24
-45.16
-47.18
-50.03
-53.11
-55.47
-56.01
-53.99
-49.32
-42.49
-34.22
-24.91
-14.38
-1.96
13.00
30.62
50.20
70.37
89.52
106.30
119.96
130.28
137.40
141.43
142.20
139.27
132.11
120.49
104.80
86.23
66.71
48.64
34.38
25.75
23.59
27.49
35.88
46.42
56.55
64.07
67.58
66.62
61.51
53.12
42.54
30.97
19.60
9.64
2.21
-1.92
-2.49
0.04
4.60
9.80
14.29
17.06
17.60
15.84
12.00
6.46
-0.36
-8.02
-16.10
-24.23
-32.16
-39.83
-47.36
-54.88
-62.39
-69.46
-75.22
-78.45
-77.87
-72.61
-62.64
-48.91
-33.20
-17.65
-4.19
6.04
12.83
16.82
19.07
20.67
22.30
24.25
26.39
28.44
30.15
31.36
32.04
32.23
32.00
31.40
30.50
29.24
27.48
24.99
21.49
16.82
11.10
4.77
-1.52
-7.17
-11.84
-15.66
-19.17
-23.10
-27.98
-33.80
-39.86
-44.89
-47.39
-46.15
-40.60
-31.10
-18.76
-5.17
7.98
19.34
28.09
33.98
37.18
38.10
37.19
34.86
31.50
27.54
23.54
20.04
17.51
16.01
15.20
14.37
12.71
9.60
4.85
-1.22
-7.95
-14.62
-20.64
-25.76
-30.06
-33.95
-38.01
-42.96
-49.46
-57.93
-68.22
-79.52
-90.28
-98.58
-102.55
-100.99
-93.69
-81.59
-66.53
-50.77
-36.41
-24.84
-16.40
-10.47
-5.84
-1.34
3.57
8.60
12.95
15.79
16.80
16.40
15.47
14.88
15.09
16.03
17.24
18.19
18.44
17.72
15.84
12.62
7.91
1.76
-5.61
-13.72
-22.07
-30.23
-38.10
-45.82
-53.70
-61.84
-69.84
-76.57
-80.42
-79.69
-73.31
-61.24
-44.75
-25.95
-7.31
9.09
21.94
30.89
36.35
39.12
40.09
39.97
39.19
37.95
36.27
34.18
31.70
28.96
26.10
23.33
20.85
18.87
17.49
16.57
15.57
13.66
9.89
3.62
-5.22
-16.06
-27.88
-39.62
-50.66
-60.91
-70.80
-80.81
-91.11
-101.07
-109.24
-113.60
-112.17
-103.71
-88.23
-67.14
-42.79
-17.81
5.67
26.38
43.89
58.22
69.41
77.34
81.71
82.41
79.82
74.79
68.66
62.89
58.75
57.10
58.06
61.03
64.74
67.62
68.28
65.89
60.42
52.51
43.12
33.24
23.61
14.73
6.95
0.50
-4.61
-8.74
-12.66
-17.54
-24.52
-34.38
-47.13
-61.77
-76.40
-88.45
-95.33
-95.08
-86.94
-71.63
-51.09
-27.95
-4.78
16.50
34.77
49.63
61.04
69.00
73.53
74.74
73.07
69.38
64.84
60.65
57.70
56.25
56.00
56.28
56.45
56.16
55.44
54.55
53.67
52.70
51.19
48.53
44.18
37.93
30.01
21.02
11.69
2.72
-5.44
-12.69
-19.26
-25.64
-32.56
-40.75
-50.68
-62.23
-74.39
-85.33
-92.71
-94.38
-89.08
-76.93
-59.32
-38.58
-17.17
2.92
20.45
34.96
46.40
54.95
60.71
63.87
64.75
63.96
62.47
61.32
61.39
63.02
66.00
69.60
72.91
75.34
76.71
77.35
77.75
78.19
78.52
78.14
76.27
72.34
66.16
58.01
48.53
38.43
28.36
18.84
10.17
2.51
-4.18
-10.16
-15.90
-21.93
-28.55
-35.61
-42.34
-47.56
-49.95
-48.56
-43.05
-33.89
-22.17
-9.33
3.18
14.18
22.88
28.87
32.07
32.66
31.02
27.75
23.64
19.50
16.06
13.64
12.14
11.05
9.71
7.64
4.78
1.51
-1.51
-3.66
-4.66
-4.65
-4.20
-4.02
-4.80
-7.00
-10.73
-15.70
-21.29
-26.69
-31.16
-34.26
-35.99
-36.77
-37.29
-38.20
-39.84
-42.00
-43.96
-44.78
-43.65
-40.39
-35.50
-30.06
-25.23
-21.86
-20.10
-19.53
-19.40
-19.03
-18.15
-16.81
-15.32
-13.91
-12.70
-11.70
-10.94
-10.49
-10.46
-10.89
-11.64
-12.43
-12.89
-12.71
-11.78
-10.24
-8.41
-6.69
-5.43
-4.77
-4.69
-5.06
-5.75
-6.74
-8.12
-10.10
-12.81
-16.26
-20.26
-24.42
-28.34
-31.70
-34.42
-36.73
-39.13
-42.25
-46.64
-52.54
-59.63
-66.96
-72.96
-75.80
-73.78
-65.92
-52.37
-34.54
-14.83
4.06
19.83
31.31
38.55
42.64
45.13
47.34
50.09
53.49
57.17
60.44
62.44
62.23
58.81
51.39
39.69
24.17
6.10
-12.75
-30.65
-46.43
-59.65
-70.55
-79.56
-86.99
-92.83
-96.92
-99.26
-100.14
-100.17
-100.01
-100.10
-100.50
-101.12
-101.85
-102.85
-104.40
-106.66
-109.28
-111.29
-111.22
-107.67
-99.78
-87.56
-71.70
-53.16
-32.76
-11.05
11.49
34.18
55.94
75.51
91.79
104.15
112.58
117.63
120.12
120.95
120.92
120.57
120.12
119.42
118.05
115.56
111.74
106.78
101.12
95.14
88.90
82.04
74.10
64.77
54.22
43.02
31.82
21.13
11.11
1.69
-7.26
-15.97
-24.72
-33.94
-44.07
-55.25
-66.83
-77.21
-84.08
-85.13
-78.91
-65.44
-46.27
-24.01
-1.49
18.96
35.89
48.76
57.63
62.81
64.66
63.61
60.21
55.25
49.70
44.51
40.39
37.63
36.09
35.33
34.86
34.30
33.53
32.70
32.03
31.68
31.60
31.37
30.38
27.99
23.80
17.88
10.77
3.24
-3.98
-10.54
-16.62
-22.84
-30.09
-39.15
-50.40
-63.44
-77.02
-89.07
-97.12
-98.92
-93.15
-79.93
-60.80
-38.35
-15.38
5.75
23.57
37.52
47.60
54.07
57.19
57.32
54.96
50.94
46.29
42.07
39.00
37.32
36.76
36.75
36.75
36.48
36.08
35.88
36.09
36.56
36.65
35.46
32.09
26.14
17.85
8.06
-2.09
-11.56
-19.82
-26.96
-33.65
-40.88
-49.60
-60.34
-72.92
-86.24
-98.43
-107.10
-110.03
-105.75
-93.98
-75.81
-53.35
-29.16
-5.56
15.69
33.61
47.76
58.07
64.59
67.55
67.42
65.00
61.36
57.56
54.43
52.31
51.03
50.08
48.94
47.37
45.46
43.54
41.93
40.62
39.23
37.10
33.60
28.35
21.43
13.31
4.68
-3.77
-11.65
-18.91
-25.95
-33.51
-42.40
-53.21
-65.84
-79.23
-91.31
-99.50
-101.37
-95.47
-81.89
-62.32
-39.48
-16.26
4.98
22.93
37.14
47.76
55.04
59.09
60.02
58.15
54.23
49.41
44.97
41.93
40.66
40.86
41.72
42.36
42.23
41.29
39.85
38.27
36.57
34.40
31.09
26.05
19.02
10.26
0.43
-9.68
-19.38
-28.30
-36.47
-44.23
-52.19
-61.04
-71.50
-83.94
-98.11
-112.83
-125.92
-134.63
-136.34
-129.52
-114.27
-92.42
-66.92
-40.92
-16.96
3.61
20.44
33.91
44.47
52.44
57.91
60.93
61.75
60.90
59.17
57.38
56.15
55.74
55.99
56.49
56.78
56.53
55.67
54.27
52.45
50.24
47.48
43.87
39.05
32.78
24.97
15.80
5.71
-4.74
-14.96
-24.48
-33.09
-40.90
-48.31
-55.94
-64.52
-74.70
-86.72
-100.07
-113.35
-124.20
-129.85
-127.87
-116.95
-97.43
-71.34
-41.79
-12.10
15.00
37.89
56.04
69.68
79.39
85.79
89.42
90.79
90.45
89.05
87.17
85.29
83.70
82.49
81.69
81.28
81.23
81.48
81.83
81.95
81.38
79.64
76.37
71.47
65.16
57.89
50.22
42.56
35.08
27.67
20.06
12.08
3.81
-4.41
-12.11
-18.97
-24.98
-30.57
-36.49
-43.70
-52.97
-64.60
-77.90
-91.11
-101.60
-106.59
-104.03
-93.32
-75.58
-53.32
-29.60
-7.14
12.16
27.48
38.68
46.09
50.12
51.24
50.01
47.09
43.26
39.24
35.64
32.88
31.11
30.23
29.96
29.80
29.17
27.46
24.21
19.23
12.61
4.69
-3.93
-12.52
-20.28
-26.53
-30.86
-33.34
-34.48
-35.09
-36.00
-37.68
-40.16
-43.05
-45.91
-48.57
-51.29
-54.83
-60.18
-68.27
-79.44
-93.07
-107.26
-119.09
-125.19
-122.82
-110.80
-90.05
-63.28
-34.18
-6.27
17.94
37.28
51.74
61.93
68.62
72.55
74.29
74.43
73.58
72.37
71.30
70.64
70.36
70.20
69.93
69.53
69.22
69.32
70.02
71.06
71.69
70.90
67.81
62.13
54.26
45.16
35.97
27.53
20.07
13.23
6.35
-1.16
-9.54
-18.54
-27.62
-36.16
-43.78
-50.46
-56.67
-63.24
-71.14
-81.09
-93.16
-106.39
-118.68
-127.24
-129.26
-122.86
-107.75
-85.37
-58.41
-30.02
-2.91
21.05
41.02
56.79
68.55
76.60
81.36
83.40
83.51
82.55
81.33
80.40
80.00
80.08
80.47
81.05
81.87
83.09
84.88
87.14
89.42
90.94
90.80
88.31
83.31
76.21
67.85
59.15
50.76
42.87
35.24
27.43
19.09
10.20
1.03
-7.94
-16.25
-23.68
-30.30
-36.56
-43.17
-50.90
-60.38
-71.64
-83.88
-95.32
-103.56
-106.16
-101.48
-89.32
-71.03
-49.14
-26.56
-5.75
11.82
25.67
36.01
43.22
47.62
49.32
48.42
45.27
40.51
35.11
30.12
26.42
24.51
24.36
25.55
27.41
29.23
30.54
31.07
30.80
29.82
28.20
25.96
23.05
19.39
14.99
9.95
4.54
-0.92
-6.07
-10.62
-14.46
-17.63
-20.31
-22.81
-25.48
-28.75
-32.98
-38.39
-44.70
-51.04
-55.88
-57.38
-54.02
-45.23
-31.75
-15.49
1.14
15.97
27.65
35.75
40.52
42.40
41.74
38.82
33.96
27.80
21.26
15.33
10.72
7.60
5.64
4.13
2.34
-0.26
-3.87
-8.36
-13.36
-18.37
-22.92
-26.63
-29.37
-31.26
-32.62
-33.89
-35.47
-37.66
-40.50
-43.86
-47.45
-50.97
-54.18
-56.98
-59.54
-62.20
-65.46
-69.82
-75.54
-82.41
-89.64
-95.77
-99.01
-97.71
-90.93
-78.88
-62.97
-45.42
-28.58
-14.20
-3.02
5.18
11.21
15.95
19.96
23.35
25.96
27.61
28.23
27.97
27.06
25.78
24.33
22.90
21.63
20.66
20.12
20.08
20.57
21.50
22.69
23.82
24.47
24.16
22.55
19.53
15.27
10.06
4.18
-2.25
-9.29
-17.00
-25.29
-33.94
-42.70
-51.52
-60.57
-69.91
-79.09
-86.94
-91.61
-91.32
-85.13
-73.44
-57.95
-41.02
-24.84
-10.85
0.46
9.31
16.25
21.98
27.20
32.66
39.08
46.93
56.23
66.38
76.24
84.39
89.48
90.59
87.44
80.55
71.16
60.89
51.40
43.84
38.57
35.04
32.04
28.09
21.98
13.15
1.91
-10.73
-23.35
-34.57
-43.47
-49.85
-54.26
-57.79
-61.80
-67.39
-75.11
-84.50
-94.12
-101.67
-104.67
-101.21
-90.69
-74.09
-53.73
-32.51
-13.05
2.99
15.06
23.42
28.66
31.32
31.79
30.50
28.16
25.76
24.35
24.64
26.73
30.04
33.65
36.73
38.89
40.32
41.54
42.96
44.58
45.86
46.01
44.32
40.51
34.92
28.33
21.63
15.48
10.04
4.93
-0.57
-7.28
-15.81
-26.35
-38.46
-51.03
-62.35
-70.34
-73.09
-69.39
-59.19
-43.62
-24.73
-4.97
13.51
29.14
41.13
49.30
53.82
55.04
53.53
49.98
45.35
40.76
37.25
35.48
35.55
36.90
38.50
39.24
38.39
35.75
31.68
26.81
21.66
16.37
10.63
3.93
-4.05
-13.07
-22.27
-30.41
-36.48
-40.26
-42.54
-44.99
-49.52
-57.64
-69.91
-85.84
-104.01
-122.36
-138.52
-150.06
-154.95
-151.91
-140.92
-123.28
-101.34
-77.87
-55.26
-35.04
-17.68
-2.89
9.87
21.01
30.59
38.34
44.03
47.61
49.49
50.40
51.17
52.41
54.31
56.64
58.88
60.56
61.40
61.45
60.88
59.85
58.35
56.19
53.12
48.97
43.79
37.79
31.28
24.49
17.53
10.35
2.83
-5.16
-13.71
-23.01
-33.33
-45.02
-58.26
-72.77
-87.43
-100.26
-108.86
-111.03
-105.61
-93.00
-75.04
-54.47
-34.04
-15.74
-0.39
12.18
22.66
31.72
39.72
46.68
52.49
57.15
60.76
63.52
65.57
66.98
67.82
68.21
68.42
68.71
69.20
69.74
69.93
69.29
67.42
64.19
59.67
54.03
47.46
40.07
31.99
23.40
14.67
6.40
-0.70
-5.96
-8.93
-9.69
-8.98
-8.11
-8.73
-12.46
-20.39
-32.75
-48.73
-66.50
-83.50
-96.91
-104.26
-104.06
-96.24
-82.12
-64.14
-44.99
-27.00
-11.48
1.27
11.64
20.25
27.53
33.51
38.00
40.85
42.19
42.44
42.21
42.13
42.61
43.87
45.95
48.70
51.90
55.18
58.03
59.87
60.14
58.50
54.94
49.84
43.80
37.46
31.22
25.14
18.94
12.21
4.67
-3.65
-12.36
-20.83
-28.48
-35.07
-40.88
-46.74
-53.74
-62.83
-74.24
-87.10
-99.35
-108.17
-110.78
-105.32
-91.56
-71.01
-46.42
-20.94
2.85
23.38
40.12
53.26
63.19
70.22
74.59
76.60
76.78
75.88
74.68
73.78
73.35
73.21
73.00
72.43
71.57
70.74
70.32
70.42
70.70
70.32
68.31
63.94
57.10
48.37
38.75
29.26
20.54
12.64
5.11
-2.68
-11.17
-20.44
-30.11
-39.57
-48.15
-55.44
-61.37
-66.35
-71.18
-76.92
-84.63
-94.85
-107.14
-119.82
-130.21
-135.30
-132.83
-122.15
-104.59
-82.93
-60.43
-39.73
-22.07
-7.32
5.46
17.30
28.70
39.54
49.30
57.44
63.73
68.37
71.79
74.56
77.17
79.95
83.03
86.43
90.01
93.51
96.52
98.56
99.07
97.59
93.84
87.82
79.85
70.49
60.48
50.61
41.47
33.33
26.06
19.16
11.96
3.91
-5.20
-15.05
-24.96
-34.09
-41.88
-48.28
-53.82
-59.34
-65.83
-74.07
-84.42
-96.66
-109.77
-121.98
-131.00
-134.46
-130.69
-119.25
-101.22
-78.85
-54.91
-31.92
-11.65
5.06
18.06
27.58
34.06
38.01
40.07
41.00
41.49
42.10
43.06
44.27
45.41
46.09
46.03
45.16
43.63
41.70
39.55
37.11
34.02
29.65
23.32
14.62
3.62
-9.03
-22.35
-35.39
-47.60
-59.02
-70.07
-81.19
-92.48
-103.54
-113.66
-122.18
-128.81
-133.76
-137.70
-141.52
-146.02
-151.72
-158.50
-165.41
-170.57
-171.42
-165.24
-150.03
-125.11
-91.51
-51.80
-9.37
32.29
70.30
102.69
128.50
147.51
160.11
167.14
169.76
169.35
167.29
164.74
162.38
160.29
158.09
155.14
150.98
145.56
139.30
132.88
126.86
121.39
116.06
110.15
102.94
94.03
83.55
72.06
60.23
48.58
37.23
25.97
14.41
2.27
-10.46
-23.43
-36.13
-48.10
-59.13
-69.45
-79.73
-90.81
-103.38
-117.53
-132.29
-145.74
-155.19
-157.96
-152.29
-137.94
-116.41
-90.52
-63.53
-38.31
-16.65
0.79
14.18
24.06
30.93
35.15
37.05
37.12
36.09
34.82
34.13
34.55
36.26
39.16
42.99
47.48
52.36
57.30
61.82
65.29
67.11
66.85
64.45
60.12
54.28
47.33
39.50
30.92
21.66
11.85
1.74
-8.39
-18.29
-27.73
-36.66
-45.14
-53.45
-62.19
-72.09
-83.78
-97.26
-111.40
-123.87
-131.56
-131.52
-122.11
-103.70
-78.66
-50.58
-23.12
1.00
20.54
35.49
46.51
54.25
59.08
61.06
60.33
57.35
52.98
48.35
44.48
41.99
40.96
41.02
41.62
42.28
42.77
43.10
43.35
43.49
43.28
42.27
39.95
35.93
30.14
22.80
14.36
5.38
-3.62
-12.30
-20.48
-28.19
-35.60
-42.98
-50.73
-59.36
-69.35
-80.90
-93.58
-106.03
-115.96
-120.71
-117.98
-106.77
-87.85
-63.63
-37.42
-12.41
9.12
26.16
38.71
47.25
52.30
54.17
53.23
50.13
45.93
41.97
39.50
39.27
41.30
44.96
49.25
53.22
56.29
58.28
59.36
59.78
59.61
58.63
56.42
52.42
46.22
37.70
27.17
15.32
3.09
-8.64
-19.25
-28.61
-37.08
-45.40
-54.48
-65.13
-77.81
-92.22
-107.14
-120.30
-128.74
-129.63
-121.19
-103.47
-78.52
-49.89
-21.52
3.35
22.93
36.90
46.02
51.37
53.88
54.08
52.30
48.93
44.69
40.60
37.73
36.84
38.09
40.94
44.41
47.49
49.53
50.43
50.52
50.19
49.60
48.52
46.43
42.77
37.23
29.89
21.21
11.85
2.43
-6.59
-15.04
-23.01
-30.75
-38.66
-47.21
-56.98
-68.50
-82.00
-96.91
-111.63
-123.44
-129.14
-125.99
-112.84
-90.67
-62.45
-32.21
-3.69
20.57
39.65
53.93
64.38
71.87
76.88
79.66
80.44
79.70
78.15
76.54
75.41
74.99
75.19
75.78
76.53
77.28
77.90
78.19
77.80
76.30
73.38
68.96
63.29
56.82
49.94
42.85
35.42
27.39
18.52
8.83
-1.28
-11.19
-20.21
-27.83
-33.92
-38.90
-43.66
-49.46
-57.49
-68.32
-81.30
-94.32
-104.12
-107.16
-100.92
-84.92
-60.98
-32.74
-4.46
20.28
39.35
52.26
59.69
62.81
62.72
60.26
56.13
51.01
45.72
41.11
37.87
36.30
36.24
37.08
38.03
38.43
38.08
37.32
36.89
37.52
39.50
42.45
45.36
46.93
46.08
42.25
35.55
26.57
16.09
4.83
-6.67
-18.06
-29.14
-39.77
-50.02
-60.24
-71.02
-83.01
-96.53
-111.09
-125.08
-135.92
-140.73
-137.23
-124.59
-103.89
-77.80
-49.77
-23.04
0.19
18.95
33.33
43.91
51.34
56.18
58.86
59.88
59.86
59.48
59.31
59.68
60.61
61.93
63.46
65.09
66.94
69.14
71.76
74.56
77.05
78.53
78.35
76.16
72.07
66.59
60.53
54.62
49.26
44.33
39.29
33.58
26.88
19.46
12.06
5.66
1.05
-1.50
-2.28
-2.00
-1.49
-1.39
-2.10
-3.71
-6.06
-8.68
-10.85
-11.67
-10.33
-6.36
0.08
8.25
17.04
25.33
32.28
37.47
40.84
42.48
42.51
41.07
38.38
34.71
30.39
25.75
20.98
16.16
11.38
6.76
2.51
-1.12
-3.97
-6.16
-8.00
-10.01
-12.64
-16.19
-20.57
-25.44
-30.36
-34.91
-38.92
-42.49
-45.90
-49.45
-53.30
-57.43
-61.62
-65.54
-68.86
-71.43
-73.36
-75.00
-76.93
-79.74
-83.75
-88.76
-93.89
-97.70
-98.46
-94.64
-85.49
-71.41
-53.97
-35.49
-18.40
-4.50
5.42
11.53
14.62
15.66
15.44
14.52
13.29
12.13
11.43
11.44
12.12
13.09
13.77
13.72
12.78
11.18
9.37
7.80
6.65
5.78
4.78
3.22
0.87
-2.20
-5.64
-9.05
-12.14
-14.84
-17.29
-19.69
-22.18
-24.71
-27.09
-29.10
-30.63
-31.84
-33.14
-35.16
-38.56
-43.80
-50.94
-59.38
-67.82
-74.36
-76.91
-73.73
-64.10
-48.55
-28.90
-7.67
12.63
30.08
43.77
53.63
60.13
63.85
65.28
64.76
62.57
59.08
54.74
50.05
45.47
41.30
37.68
34.64
32.12
29.97
27.99
25.82
23.01
19.02
13.41
6.07
-2.67
-11.98
-20.80
-28.21
-33.79
-37.81
-41.06
-44.43
-48.55
-53.55
-59.11
-64.76
-70.19
-75.44
-80.90
-87.18
-94.82
-104.07
-114.56
-125.05
-133.50
-137.36
-134.30
-123.03
-103.81
-78.58
-50.36
-22.36
2.82
23.67
39.76
51.32
58.91
63.10
64.46
63.58
61.21
58.12
55.03
52.44
50.58
49.43
48.80
48.46
48.20
47.83
47.15
45.87
43.64
40.11
35.11
28.75
21.41
13.62
5.77
-2.00
-9.82
-17.90
-26.31
-34.78
-42.83
-49.86
-55.53
-59.90
-63.48
-67.17
-72.05
-79.11
-88.93
-101.18
-114.38
-125.79
-132.02
-129.88
-117.57
-95.39
-65.78
-32.66
-0.23
28.01
49.97
65.00
73.49
76.39
74.77
69.63
61.93
52.64
42.90
33.97
27.20
23.67
23.95
27.81
34.32
42.03
49.50
55.67
60.00
62.47
63.22
62.34
59.67
54.93
47.91
38.70
27.79
15.98
4.23
-6.66
-16.20
-24.30
-31.24
-37.54
-43.82
-50.78
-59.05
-69.12
-80.90
-93.40
-104.49
-111.18
-110.36
-100.00
-79.96
-52.28
-20.62
10.92
38.95
61.54
78.22
89.42
95.90
98.39
97.55
94.14
89.16
83.75
78.91
75.36
73.35
72.76
73.24
74.39
75.85
77.34
78.57
79.30
79.29
78.43
76.66
73.90
70.06
64.90
58.24
50.06
40.69
30.84
21.39
13.11
6.24
0.38
-5.47
-12.51
-21.81
-33.98
-48.85
-65.39
-81.63
-94.79
-101.82
-100.12
-88.42
-67.35
-39.48
-8.61
21.27
47.00
66.85
80.50
88.58
92.06
91.90
88.85
83.63
76.95
69.59
62.26
55.48
49.48
44.17
39.25
34.45
29.61
24.77
20.11
15.74
11.65
7.60
3.23
-1.87
-8.06
-15.54
-24.36
-34.40
-45.36
-56.81
-68.21
-79.07
-89.03
-98.02
-106.30
-114.37
-122.95
-132.80
-144.38
-157.49
-170.92
-182.34
-188.70
-187.04
-175.49
-154.00
-124.52
-90.47
-55.70
-23.48
4.08
26.11
42.52
53.54
59.46
60.72
58.18
53.30
48.06
44.50
44.16
47.57
54.22
62.79
71.73
79.78
86.18
90.77
93.63
94.83
94.29
91.81
87.19
80.33
71.33
60.43
48.04
34.67
20.91
7.40
-5.25
-16.64
-26.72
-35.79
-44.60
-54.19
-65.58
-79.35
-95.16
-111.42
-125.35
-133.60
-133.21
-122.71
-102.68
-75.70
-45.52
-15.89
10.38
31.91
48.50
60.61
68.76
73.25
74.24
72.08
67.57
61.97
56.74
53.14
51.82
52.63
54.76
57.11
58.70
59.08
58.33
56.87
55.11
53.11
50.46
46.50
40.64
32.66
22.90
12.16
1.36
-8.76
-17.90
-26.22
-34.24
-42.61
-52.09
-63.32
-76.72
-92.16
-108.50
-123.51
-133.98
-136.66
-129.25
-111.48
-85.31
-54.45
-23.19
4.94
27.88
45.20
57.51
65.74
70.65
72.64
72.04
69.35
65.36
61.10
57.56
55.37
54.65
55.03
55.89
56.57
56.69
56.16
55.18
53.96
52.58
50.83
48.26
44.31
38.50
30.64
20.99
10.20
-0.82
-11.18
-20.32
-28.11
-34.90
-41.32
-48.15
-56.13
-65.84
-77.51
-90.48
-102.99
-112.11
-114.45
-107.20
-89.39
-62.47
-29.90
4.00
35.45
62.20
83.63
100.16
112.45
120.88
125.53
126.57
124.48
120.20
114.89
109.63
105.18
101.83
99.45
97.69
96.11
94.30
91.97
88.94
85.04
80.11
73.97
66.45
57.47
47.07
35.43
22.85
9.65
-3.78
-17.08
-29.93
-42.09
-53.46
-64.04
-74.01
-83.73
-93.74
-104.62
-116.60
-129.32
-141.52
-151.12
-155.71
-153.23
-142.72
-124.69
-101.08
-74.71
-48.53
-24.93
-5.28
9.98
21.19
28.95
33.83
36.21
36.39
34.74
31.90
28.82
26.50
25.71
26.71
29.13
32.19
35.05
37.21
38.64
39.62
40.44
41.03
40.93
39.37
35.70
29.76
21.95
13.17
4.39
-3.68
-10.88
-17.51
-24.20
-31.61
-40.28
-50.61
-62.69
-76.09
-89.57
-101.00
-107.63
-106.87
-97.21
-78.98
-54.39
-26.93
-0.27
22.72
40.53
52.91
60.40
63.76
63.64
60.63
55.40
48.82
41.96
35.92
31.50
29.04
28.37
28.91
29.97
30.99
31.66
31.97
32.01
31.86
31.44
30.50
28.66
25.48
20.63
13.96
5.62
-3.91
-13.92
-23.72
-32.76
-40.83
-48.01
-54.55
-60.78
-67.09
-74.03
-82.22
-92.10
-103.31
-114.33
-122.39
-124.21
-117.22
-100.59
-75.88
-46.48
-16.48
10.67
33.10
50.51
63.64
73.38
80.31
84.58
86.23
85.51
83.01
79.55
75.93
72.73
70.26
68.56
67.58
67.25
67.39
67.75
67.98
67.61
66.26
63.64
59.64
54.33
47.83
40.31
31.88
22.64
12.74
2.42
-7.97
-17.99
-27.30
-35.78
-43.68
-51.50
-59.92
-69.58
-80.75
-93.12
-105.54
-115.93
-121.56
-119.59
-108.03
-86.47
-56.54
-21.58
14.20
46.91
73.87
94.00
107.51
115.33
118.48
117.80
113.98
107.69
99.76
91.11
82.61
74.94
68.42
63.13
58.89
55.46
52.61
50.18
48.00
45.91
43.65
40.88
37.29
32.59
26.66
19.51
11.21
1.97
-7.95
-18.17
-28.18
-37.49
-45.75
-52.87
-59.12
-65.08
-71.48
-79.04
-88.22
-98.86
-109.93
-119.41
-124.60
-122.83
-112.43
-93.44
-67.82
-38.94
-10.57
14.16
33.36
46.49
53.93
56.41
54.76
49.76
42.33
33.68
25.11
17.93
13.04
10.80
10.91
12.63
15.05
17.35
19.02
19.89
19.98
19.46
18.46
17.02
15.07
12.44
8.84
3.98
-2.29
-9.92
-18.55
-27.62
-36.53
-44.88
-52.66
-60.23
-68.23
-77.34
-88.01
-100.10
-112.61
-123.54
-130.21
-129.91
-120.76
-102.57
-77.10
-47.61
-17.90
8.82
30.62
47.04
58.60
66.09
70.10
70.88
68.62
63.77
57.18
50.02
43.43
38.19
34.51
32.09
30.39
28.89
27.32
25.66
24.08
22.67
21.31
19.63
17.06
13.03
7.21
-0.35
-9.20
-18.60
-27.80
-36.20
-43.56
-49.97
-55.83
-61.66
-68.12
-75.84
-85.28
-96.44
-108.48
-119.53
-126.84
-127.45
-119.17
-101.48
-75.96
-45.90
-15.25
12.50
35.27
52.48
64.64
72.70
77.38
79.11
78.18
75.09
70.66
65.94
61.93
59.26
58.04
57.92
58.33
58.66
58.53
57.77
56.41
54.56
52.26
49.43
45.86
41.21
35.23
27.85
19.25
9.90
0.43
-8.58
-16.72
-23.92
-30.45
-36.83
-43.78
-52.05
-62.28
-74.66
-88.64
-102.68
-114.28
-120.54
-118.94
-108.26
-89.16
-64.04
-36.36
-9.61
13.60
31.96
45.34
54.24
59.24
60.74
59.05
54.59
48.21
41.09
34.52
29.50
26.42
25.03
24.63
24.46
24.03
23.27
22.42
21.79
21.41
20.94
19.71
16.93
12.07
5.10
-3.47
-12.72
-21.65
-29.57
-36.29
-42.14
-47.83
-54.20
-61.98
-71.65
-83.21
-95.96
-108.30
-117.81
-121.70
-117.57
-104.32
-82.69
-55.20
-25.46
2.96
27.38
46.45
59.99
68.44
72.37
72.20
68.37
61.61
53.11
44.35
36.79
31.38
28.33
27.16
27.06
27.22
27.22
26.99
26.71
26.51
26.27
25.55
23.72
20.16
14.49
6.74
-2.58
-12.63
-22.51
-31.47
-39.25
-46.05
-52.54
-59.64
-68.32
-79.27
-92.53
-107.23
-121.32
-131.86
-135.59
-129.96
-114.10
-89.22
-58.39
-25.67
5.15
31.39
51.83
66.46
75.89
80.85
81.94
79.71
74.86
68.36
61.37
55.02
50.18
47.17
45.81
45.48
45.48
45.22
44.43
43.17
41.65
40.03
38.18
35.65
31.76
25.92
17.88
7.93
-3.13
-14.30
-24.70
-33.89
-41.99
-49.61
-57.57
-66.68
-77.57
-90.55
-105.32
-120.72
-134.51
-143.59
-144.68
-135.40
-115.21
-85.87
-50.99
-14.99
18.24
46.15
67.82
83.56
94.13
100.32
102.65
101.58
97.79
92.27
86.23
80.79
76.70
74.19
73.04
72.81
73.02
73.28
73.31
72.87
71.76
69.85
67.02
63.16
58.12
51.69
43.72
34.19
23.42
11.96
0.56
-10.15
-19.75
-28.23
-35.90
-43.29
-51.05
-59.89
-70.36
-82.51
-95.53
-107.53
-115.70
-117.02
-109.26
-91.92
-66.62
-36.69
-6.16
21.38
43.75
60.28
71.45
78.08
80.85
80.13
76.21
69.66
61.57
53.29
46.12
40.85
37.48
35.41
33.78
31.93
29.70
27.36
25.39
24.12
23.45
22.78
21.22
17.94
12.46
4.90
-4.05
-13.34
-21.98
-29.33
-35.30
-40.36
-45.29
-50.98
-58.24
-67.54
-78.81
-91.14
-102.63
-110.61
-112.23
-105.42
-89.65
-66.33
-38.42
-9.59
16.89
38.82
55.32
66.54
73.10
75.71
74.94
71.39
65.71
58.79
51.64
45.24
40.35
37.29
35.92
35.70
35.88
35.74
34.78
32.86
30.12
26.82
23.21
19.27
14.76
9.31
2.59
-5.49
-14.64
-24.34
-33.93
-42.90
-50.96
-58.18
-64.92
-71.79
-79.54
-88.91
-100.30
-113.38
-126.68
-137.58
-142.77
-139.23
-125.31
-101.50
-70.45
-36.18
-2.92
26.09
49.13
65.99
77.39
84.34
87.68
88.00
85.77
81.55
76.04
70.14
64.73
60.54
57.95
56.93
57.13
57.96
58.82
59.19
58.80
57.49
55.19
51.83
47.30
41.50
34.33
25.83
16.19
5.73
-5.12
-15.89
-26.20
-35.81
-44.67
-52.94
-61.05
-69.64
-79.59
-91.70
-106.22
-122.35
-137.84
-149.29
-153.04
-146.41
-128.92
-102.61
-71.58
-40.56
-13.51
7.37
21.73
30.50
35.00
36.25
34.89
31.31
26.12
20.29
15.07
11.65
10.85
12.79
17.08
23.01
29.81
36.87
43.70
49.92
55.22
59.39
62.37
64.26
65.23
65.33
64.38
62.06
58.04
52.15
44.55
35.68
26.09
16.26
6.44
-3.51
-14.11
-26.14
-40.21
-56.23
-72.85
-87.35
-96.23
-96.29
-85.85
-65.57
-38.34
-8.38
20.18
44.34
62.75
75.40
82.94
86.04
85.12
80.52
72.88
63.32
53.36
44.57
38.01
34.01
32.05
31.13
30.24
28.75
26.63
24.28
22.25
20.76
19.47
17.55
13.96
7.90
-0.82
-11.62
-23.37
-34.75
-44.75
-53.00
-59.85
-66.20
-73.20
-81.97
-93.27
-107.25
-123.09
-138.79
-151.31
-157.10
-153.19
-138.23
-113.17
-81.12
-46.42
-13.34
15.04
37.29
53.42
64.15
70.29
72.42
70.96
66.47
59.88
52.49
45.70
40.54
37.41
36.00
35.51
35.08
34.23
33.06
32.03
31.65
32.01
32.50
31.99
29.20
23.28
14.24
3.02
-8.84
-19.77
-28.81
-35.89
-41.85
-48.09
-56.08
-66.88
-80.68
-96.54
-112.17
-124.21
-128.90
-123.17
-105.77
-77.91
-43.08
-5.96
28.97
58.66
81.88
98.82
110.29
117.02
119.38
117.69
112.57
105.16
96.95
89.38
83.39
79.17
76.27
73.88
71.27
68.17
64.78
61.62
59.16
57.34
55.51
52.48
47.06
38.60
27.30
14.25
0.97
-11.21
-21.69
-30.69
-39.17
-48.35
-59.36
-72.83
-88.60
-105.54
-121.34
-132.83
-136.63
-130.24
-112.95
-86.34
-53.86
-19.83
11.85
38.59
59.28
73.93
83.00
86.92
86.14
81.34
73.70
64.81
56.35
49.59
44.97
42.12
40.20
38.41
36.41
34.44
33.06
32.61
32.79
32.59
30.60
25.61
17.23
6.08
-6.43
-18.66
-29.40
-38.28
-45.85
-53.28
-61.97
-73.07
-87.00
-103.06
-119.27
-132.48
-139.07
-136.01
-121.93
-97.77
-66.61
-32.78
-0.51
27.10
48.52
63.55
72.65
76.42
75.43
70.37
62.33
52.88
43.75
36.35
31.31
28.32
26.46
24.73
22.65
20.41
18.68
18.08
18.64
19.54
19.39
16.75
10.81
1.69
-9.55
-21.40
-32.52
-42.17
-50.48
-58.34
-67.07
-78.08
-92.32
-109.81
-129.14
-147.34
-160.37
-164.16
-155.89
-135.12
-104.08
-66.98
-28.76
6.46
36.10
59.31
76.32
87.75
94.10
95.79
93.45
88.13
81.37
74.83
69.85
67.02
66.13
66.33
66.64
66.38
65.47
64.28
63.37
62.99
62.79
61.81
58.79
52.72
43.23
30.85
16.82
2.62
-10.47
-21.83
-31.63
-40.67
-50.16
-61.36
-75.21
-91.92
-110.51
-128.51
-142.27
-147.75
-141.77
-123.27
-93.90
-57.59
-19.34
16.30
46.36
69.75
86.73
98.20
104.95
107.52
106.41
102.32
96.33
89.81
84.07
80.05
78.09
77.93
78.82
79.92
80.50
80.23
79.21
77.73
76.07
74.15
71.47
67.24
60.63
51.23
39.27
25.63
11.58
-1.63
-13.27
-23.26
-32.23
-41.18
-51.22
-63.27
-77.88
-94.95
-113.42
-131.02
-144.41
-149.84
-144.28
-126.65
-98.41
-63.33
-26.36
7.83
36.09
57.22
71.61
80.34
84.48
84.66
81.31
74.96
66.55
57.41
48.99
42.43
38.21
36.10
35.36
35.05
34.45
33.23
31.50
29.54
27.58
25.48
22.75
18.69
12.67
4.49
-5.53
-16.55
-27.55
-37.69
-46.60
-54.46
-61.89
-69.76
-79.03
-90.53
-104.69
-121.24
-138.74
-154.47
-164.79
-166.09
-156.02
-134.50
-104.03
-69.03
-34.47
-4.43
18.89
35.25
45.76
51.91
54.94
55.52
54.07
51.12
47.61
44.77
43.80
45.43
49.70
55.96
63.15
70.16
76.10
80.44
83.03
83.95
83.49
81.92
79.43
75.99
71.37
65.27
57.56
48.48
38.67
28.97
20.09
12.31
5.41
-1.25
-8.47
-17.10
-27.79
-40.81
-55.72
-71.02
-84.17
-91.93
-91.35
-80.83
-60.96
-34.46
-5.41
22.15
45.28
62.83
75.21
83.66
89.49
93.44
95.56
95.47
92.69
87.14
79.25
70.04
60.85
53.00
47.51
44.80
44.73
46.56
49.33
51.97
53.66
53.85
52.33
49.16
44.45
38.35
30.94
22.32
12.74
2.54
-7.88
-18.15
-28.11
-37.77
-47.34
-57.15
-67.65
-79.37
-92.73
-107.59
-122.79
-135.92
-143.61
-142.53
-130.56
-107.90
-77.13
-42.59
-8.85
20.51
43.73
60.65
72.00
78.55
80.70
78.57
72.44
63.15
52.16
41.16
31.57
24.12
18.69
14.52
10.73
6.63
2.01
-2.91
-7.68
-11.95
-15.69
-19.22
-23.21
-28.39
-35.34
-44.20
-54.64
-65.82
-76.79
-86.75
-95.30
-102.52
-108.94
-115.28
-122.39
-130.97
-141.33
-153.03
-164.59
-173.51
-176.73
-171.50
-156.40
-132.01
-100.86
-66.72
-33.53
-4.34
19.09
36.26
47.39
52.99
53.58
49.84
42.78
33.78
24.44
16.22
9.97
5.89
3.51
2.11
1.03
-0.04
-1.13
-2.11
-3.01
-4.21
-6.37
-10.34
-16.75
-25.87
-37.43
-50.82
-65.31
-80.35
-95.78
-111.78
-128.69
-146.77
-166.06
-186.32
-206.93
-226.70
-243.71
-255.47
-259.26
-253.03
-236.10
-209.42
-175.22
-136.23
-94.87
-52.92
-11.79
27.08
62.01
91.30
113.86
129.72
140.16
147.25
153.22
159.87
168.33
179.02
191.67
205.43
219.02
230.92
239.85
245.09
246.73
245.41
241.94
236.80
229.96
220.93
209.13
194.20
176.39
156.35
135.06
113.46
92.32
72.09
52.98
34.85
17.30
-0.22
-18.08
-35.85
-52.03
-63.99
-68.69
-63.72
-48.33
-23.97
6.02
37.33
65.94
88.98
105.13
114.38
117.47
115.45
109.32
100.12
88.96
77.16
66.12
57.06
50.64
46.73
44.49
42.73
40.47
37.31
33.54
29.83
26.78
24.49
22.40
19.49
14.64
7.06
-3.44
-16.33
-30.53
-44.78
-57.99
-69.57
-79.54
-88.46
-97.22
-106.87
-118.29
-131.94
-147.37
-162.93
-175.71
-182.07
-178.66
-163.68
-137.64
-103.43
-65.42
-28.11
5.17
32.74
54.53
71.15
83.24
91.01
94.46
93.80
89.88
84.15
78.32
73.70
70.81
69.35
68.55
67.71
66.58
65.34
64.41
63.99
63.84
63.21
61.14
56.76
49.59
39.71
27.78
14.85
2.05
-9.73
-20.15
-29.51
-38.66
-48.71
-60.63
-74.86
-90.92
-107.21
-121.07
-129.23
-128.61
-117.27
-95.17
-64.39
-28.64
7.73
40.91
68.38
89.01
102.71
109.80
110.69
105.87
96.22
83.23
68.93
55.52
44.74
37.42
33.35
31.58
30.91
30.38
29.48
28.12
26.42
24.40
21.81
18.05
12.29
3.70
-8.24
-23.45
-41.07
-59.62
-77.39
-92.88
-105.33
-114.78
-122.00
-128.10
-134.16
-140.90
-148.41
-155.88
-161.62
-163.30
-158.50
-145.63
-124.56
-96.89
-65.57
-33.98
-4.95
19.79
39.67
54.85
65.72
72.64
75.92
76.04
73.86
70.48
67.05
64.45
63.04
62.62
62.65
62.50
61.73
60.21
58.12
55.72
53.22
50.55
47.37
43.15
37.40
29.91
20.89
11.02
1.13
-8.02
-16.11
-23.37
-30.49
-38.39
-47.91
-59.60
-73.48
-88.89
-104.35
-117.58
-125.82
-126.52
-118.09
-100.58
-75.86
-47.13
-18.03
8.31
29.92
46.02
56.74
62.59
64.12
61.89
56.63
49.30
41.14
33.36
26.85
21.91
18.25
15.29
12.53
9.86
7.73
7.04
8.81
13.80
22.12
33.08
45.23
56.65
65.39
69.92
69.45
64.11
54.76
42.72
29.44
16.15
3.70
-7.64
-18.11
-28.42
-39.36
-51.34
-63.85
-75.23
-83.04
-84.73
-78.71
-65.02
-45.46
-22.94
-0.58
19.25
35.25
47.01
54.61
58.18
57.84
53.91
47.22
39.04
30.94
24.24
19.62
17.00
15.64
14.53
12.80
10.08
6.51
2.59
-1.19
-4.67
-8.13
-12.25
-17.78
-25.18
-34.43
-44.97
-55.98
-66.64
-76.51
-85.58
-94.30
-103.34
-113.52
-125.45
-139.23
-154.04
-167.98
-178.18
-181.44
-175.20
-158.52
-132.50
-100.04
-65.00
-31.02
-0.72
24.61
44.73
59.91
70.53
76.97
79.77
79.82
78.43
76.99
76.70
78.24
81.67
86.60
92.47
98.79
105.37
112.15
119.15
126.18
132.76
138.17
141.50
142.01
139.28
133.43
125.05
114.98
103.96
92.33
79.94
66.21
50.41
32.00
10.92
-12.08
-35.33
-56.30
-72.02
-79.85
-78.15
-66.97
-48.12
-24.79
-0.69
20.91
37.76
48.88
54.22
54.30
49.81
41.49
30.21
17.14
3.64
-8.95
-19.67
-28.08
-34.35
-38.92
-42.19
-44.21
-44.75
-43.53
-40.66
-36.78
-33.09
-30.96
-31.54
-35.31
-41.97
-50.63
-60.17
-69.63
-78.51
-86.85
-95.21
-104.49
-115.66
-129.37
-145.41
-162.26
-177.03
-186.05
-185.96
-174.99
-153.65
-124.63
-91.89
-59.37
-29.92
-5.04
14.82
29.55
38.96
42.79
41.14
34.85
25.61
15.54
6.52
-0.31
-4.73
-7.23
-8.43
-8.72
-8.17
-6.81
-4.99
-3.59
-3.88
-7.07
-13.92
-24.34
-37.59
-52.49
-67.84
-82.70
-96.46
-108.87
-119.89
-129.70
-138.58
-146.62
-153.41
-157.67
-157.16
-149.13
-131.13
-102.01
-62.67
-16.10
33.26
80.71
122.43
156.11
180.99
197.34
205.91
207.57
203.35
194.59
183.03
170.67
159.27
150.04
143.27
138.48
134.85
131.57
128.18
124.51
120.49
115.87
110.14
102.68
93.01
81.12
67.58
53.33
39.40
26.37
14.24
2.34
-10.37
-24.86
-41.66
-60.43
-79.75
-97.14
-109.50
-113.93
-108.59
-93.46
-70.55
-43.38
-16.04
7.91
26.21
38.02
43.65
44.04
40.38
33.98
26.19
18.42
11.85
7.24
4.70
3.81
3.86
4.24
4.82
5.93
8.20
12.09
17.55
23.89
29.96
34.60
37.01
37.02
34.99
31.56
27.21
22.06
15.77
7.73
-2.74
-16.05
-31.96
-49.35
-66.09
-79.29
-85.93
-83.82
-72.40
-53.10
-28.98
-3.85
18.84
36.83
49.27
56.49
59.38
58.94
56.10
51.67
46.43
41.08
36.09
31.52
27.09
22.40
17.23
11.79
6.63
2.40
-0.56
-2.42
-3.88
-5.86
-9.14
-14.01
-20.24
-27.23
-34.31
-41.01
-47.28
-53.49
-60.35
-68.75
-79.44
-92.58
-107.25
-121.28
-131.45
-134.32
-127.43
-110.22
-84.42
-53.55
-21.73
7.51
32.04
51.12
64.94
73.92
78.47
79.00
76.23
71.30
65.69
60.70
57.07
54.70
52.79
50.30
46.55
41.53
35.91
30.70
26.65
23.79
21.37
18.10
12.83
5.04
-4.85
-15.74
-26.34
-35.73
-43.73
-50.91
-58.33
-67.21
-78.55
-92.77
-109.27
-126.19
-140.42
-148.27
-146.58
-133.96
-111.62
-83.25
-53.89
-28.32
-9.53
1.89
7.46
9.73
11.18
13.48
17.44
23.23
30.75
39.80
49.91
60.21
69.43
76.14
79.34
78.85
75.52
70.92
66.72
63.99
62.70
61.81
59.62
54.54
45.74
33.52
19.13
4.32
-9.35
-20.99
-30.60
-38.95
-47.22
-56.69
-68.38
-82.75
-99.24
-116.01
-129.91
-137.09
-134.09
-119.14
-93.01
-59.01
-21.96
13.24
43.02
65.70
81.26
90.56
94.58
94.01
89.35
81.22
70.69
59.21
48.27
38.98
31.71
26.10
21.36
16.77
12.11
7.73
4.37
2.62
2.53
3.49
4.44
4.26
2.31
-1.49
-6.72
-12.89
-19.90
-28.18
-38.60
-52.07
-69.21
-90.03
-114.23
-141.21
-170.17
-199.70
-227.55
-250.56
-265.30
-269.04
-260.78
-241.47
-213.48
-179.63
-142.28
-103.16
-63.79
-26.11
7.43
34.31
52.88
63.06
66.46
65.63
63.22
61.23
60.68
61.86
64.55
68.36
72.75
77.12
80.84
83.44
84.71
84.67
83.38
80.78
76.53
70.12
61.20
49.83
36.58
22.33
7.89
-6.26
-20.13
-34.11
-48.81
-64.94
-83.10
-103.52
-125.57
-147.23
-165.07
-174.70
-172.01
-154.42
-121.81
-76.58
-22.72
35.28
93.45
148.65
198.44
240.81
274.12
297.38
310.62
314.97
312.36
304.99
294.69
282.73
269.73
255.91
241.23
225.52
208.61
190.35
170.86
150.57
130.30
110.96
93.24
77.34
62.87
49.04
35.02
20.29
4.83
-10.94
-26.44
-41.14
-54.82
-67.57
-79.70
-91.72
-104.19
-117.73
-132.68
-148.72
-164.47
-177.36
-184.07
-181.48
-167.81
-143.36
-110.65
-73.70
-36.86
-3.72
23.55
44.24
58.65
67.58
71.90
72.38
69.79
64.95
58.82
52.46
46.86
42.76
40.52
40.13
41.26
43.50
46.44
49.77
53.30
56.83
60.17
63.04
65.18
66.37
66.52
65.64
63.82
61.14
57.65
53.39
48.50
43.31
38.33
34.12
30.98
28.75
26.75
23.98
19.71
13.93
7.72
2.97
1.72
5.36
13.99
26.40
40.51
54.12
65.51
73.78
78.68
80.38
79.14
75.21
68.85
60.43
50.49
39.73
28.88
18.62
9.42
1.45
-5.44
-11.52
-17.07
-22.20
-26.85
-31.00
-34.88
-39.11
-44.53
-51.90
-61.52
-73.05
-85.61
-98.07
-109.48
-119.32
-127.60
-134.76
-141.52
-148.70
-157.11
-167.35
-179.46
-192.60
-204.86
-213.40
-215.17
-207.85
-190.73
-165.11
-133.87
-100.55
-68.30
-39.11
-13.70
7.92
25.93
40.25
50.60
56.81
59.21
58.83
57.12
55.56
55.15
56.09
57.83
59.43
60.05
59.38
57.79
56.07
55.13
55.77
58.51
63.62
71.04
80.09
89.35
96.74
99.92
97.07
87.50
71.86
51.76
29.13
5.37
-18.81
-43.22
-67.51
-90.49
-109.92
-122.90
-126.74
-120.02
-103.28
-79.01
-50.90
-22.64
3.06
24.95
43.05
57.86
69.75
78.60
83.96
85.55
83.63
79.17
73.61
68.38
64.51
62.26
61.28
60.82
60.21
59.17
57.83
56.50
55.38
54.22
52.33
48.77
42.73
33.92
22.74
10.17
-2.47
-14.05
-23.94
-32.21
-39.52
-46.94
-55.58
-66.27
-79.25
-93.83
-108.21
-119.60
-124.81
-121.11
-107.25
-84.04
-54.24
-21.76
9.54
36.82
58.72
75.08
86.34
92.99
95.31
93.59
88.46
81.00
72.70
65.02
58.88
54.43
51.06
47.83
44.03
39.54
34.88
30.85
28.05
26.38
24.99
22.57
17.89
10.33
0.23
-11.37
-23.05
-33.63
-42.58
-50.08
-56.88
-64.00
-72.41
-82.78
-95.22
-108.99
-122.21
-131.99
-134.93
-128.18
-110.48
-82.95
-48.86
-12.70
21.18
49.68
71.47
86.61
95.86
99.99
99.50
94.82
86.74
76.61
66.21
57.34
51.24
48.22
47.73
48.70
50.13
51.50
52.89
54.69
57.15
60.00
62.34
62.96
60.83
55.60
47.81
38.75
29.90
22.44
16.78
12.60
9.07
5.20
0.07
-7.01
-16.33
-27.41
-38.73
-47.62
-50.80
-45.47
-30.51
-7.27
20.76
49.01
73.39
91.44
102.52
107.37
107.09
102.57
94.33
82.95
69.35
54.97
41.34
29.57
19.96
11.89
4.24
-4.16
-14.00
-25.27
-37.32
-49.14
-59.78
-68.61
-75.59
-81.17
-86.10
-91.02
-96.21
-101.39
-105.90
-109.02
-110.35
-110.00
-108.61
-107.15
-106.61
-107.79
-111.14
-116.60
-123.48
-130.30
-134.95
-135.11
-128.94
-115.77
-96.46
-73.23
-48.96
-26.38
-7.37
7.30
17.84
24.95
29.42
31.84
32.48
31.41
28.60
24.11
18.13
11.05
3.45
-4.07
-10.95
-16.86
-21.63
-25.34
-28.21
-30.53
-32.63
-34.84
-37.45
-40.70
-44.80
-49.86
-55.86
-62.54
-69.46
-76.02
-81.69
-86.19
-89.65
-92.64
-95.96
-100.53
-107.05
-115.73
-126.00
-136.28
-143.98
-145.94
-139.24
-122.29
-95.56
-61.68
-24.77
10.78
41.56
65.80
83.35
95.02
101.88
104.70
104.00
100.28
94.34
87.33
80.57
75.14
71.49
69.33
67.80
65.91
62.98
58.93
54.23
49.59
45.54
42.04
38.49
33.88
27.34
18.45
7.57
-4.30
-15.83
-25.90
-33.95
-40.18
-45.47
-51.06
-58.15
-67.67
-79.94
-94.42
-109.55
-122.67
-130.38
-129.42
-117.74
-95.43
-65.04
-30.91
2.13
30.27
51.53
65.82
74.16
77.70
77.19
72.98
65.50
55.78
45.49
36.53
30.33
27.37
26.97
27.77
28.38
27.99
26.63
24.97
23.81
23.56
23.90
23.80
21.94
17.21
9.19
-1.63
-14.01
-26.42
-37.59
-46.90
-54.54
-61.37
-68.61
-77.56
-89.23
-103.90
-120.63
-137.03
-149.38
-153.46
-145.89
-125.46
-93.82
-55.17
-14.90
22.03
52.42
75.18
90.85
100.68
105.78
106.80
104.15
98.41
90.58
82.11
74.47
68.77
65.36
63.83
63.20
62.47
60.97
58.57
55.59
52.46
49.38
46.15
42.23
36.89
29.61
20.23
9.11
-2.99
-15.15
-26.53
-36.72
-45.75
-54.12
-62.64
-72.21
-83.74
-97.90
-114.71
-133.10
-150.50
-162.99
-166.25
-156.93
-134.13
-100.04
-59.49
-18.45
17.82
46.14
65.74
77.71
83.90
86.08
85.42
82.73
78.64
73.91
69.47
66.23
64.83
65.49
67.90
71.40
75.17
78.51
81.00
82.50
83.05
82.69
81.30
78.61
74.26
67.93
59.49
49.05
36.97
23.85
10.41
-2.64
-14.74
-25.58
-35.28
-44.36
-53.76
-64.65
-78.16
-94.69
-113.34
-131.43
-144.81
-148.85
-140.02
-117.33
-82.89
-41.47
1.09
39.53
70.49
92.75
106.69
113.39
113.95
109.36
100.65
89.29
77.09
65.95
57.36
52.01
49.71
49.62
50.68
52.07
53.40
54.74
56.38
58.46
60.72
62.43
62.52
59.98
54.21
45.37
34.33
22.33
10.43
-1.01
-12.62
-25.74
-41.90
-62.17
-86.76
-114.76
-144.32
-172.71
-196.65
-212.74
-218.30
-212.30
-196.05
-173.20
-148.70
-127.27
-111.79
-102.60
-97.83
-94.64
-90.50
-84.13
-75.49
-65.21
-53.98
-42.12
-29.62
-16.36
-2.39
11.99
26.25
39.73
51.74
61.73
69.31
74.34
76.90
77.18
75.27
71.11
64.55
55.59
44.78
33.21
22.31
13.39
7.07
3.11
0.56
-1.82
-5.09
-10.06
-17.37
-27.65
-41.44
-58.65
-77.93
-96.26
-109.46
-113.34
-105.13
-84.65
-54.47
-19.11
16.44
48.19
73.99
93.47
107.32
116.33
120.78
120.50
115.42
106.28
94.83
83.51
74.63
69.61
68.52
70.37
73.74
77.47
80.99
84.23
87.27
89.89
91.50
91.29
88.44
82.48
73.32
61.34
47.19
31.77
15.92
0.38
-14.34
-28.02
-40.70
-52.74
-64.81
-77.87
-92.99
-110.86
-131.03
-151.38
-168.11
-176.58
-172.74
-154.70
-123.63
-83.52
-39.96
1.60
37.27
65.26
85.57
99.06
106.73
109.35
107.57
102.21
94.42
85.61
77.18
70.25
65.46
62.92
62.36
63.30
65.24
67.80
70.70
73.79
76.83
79.34
80.62
79.81
76.17
69.41
59.86
48.41
36.26
24.46
13.64
3.84
-5.35
-14.64
-24.79
-36.56
-50.61
-67.16
-85.51
-103.66
-118.29
-125.45
-121.81
-105.96
-79.13
-44.91
-8.03
27.02
57.22
81.23
99.01
111.04
117.74
119.37
116.30
109.31
99.78
89.45
80.06
72.88
68.42
66.34
65.74
65.51
64.80
63.30
61.21
59.01
57.05
55.24
53.00
49.45
43.76
35.55
25.04
13.03
0.58
-11.37
-22.28
-32.13
-41.40
-50.88
-61.48
-74.12
-89.39
-107.20
-126.23
-143.79
-156.08
-159.17
-150.31
-129.08
-97.71
-60.56
-22.66
11.67
39.79
60.89
75.46
84.47
88.85
89.30
86.47
81.14
74.32
67.16
60.61
55.32
51.51
49.02
47.55
46.79
46.49
46.52
46.72
46.82
46.48
45.27
42.78
38.70
32.84
25.15
15.76
4.95
-6.82
-18.99
-30.98
-42.35
-52.83
-62.43
-71.52
-80.70
-90.85
-102.90
-117.46
-134.23
-151.54
-166.26
-174.44
-172.45
-158.37
-132.82
-98.93
-61.37
-24.86
7.03
32.49
51.22
63.82
71.14
73.97
73.06
69.25
63.62
57.26
51.14
45.89
41.83
39.01
37.32
36.64
36.78
37.51
38.49
39.31
39.54
38.81
36.86
33.55
28.82
22.65
15.08
6.22
-3.70
-14.33
-25.23
-35.96
-46.12
-55.49
-64.01
-71.84
-79.45
-87.58
-97.16
-108.96
-123.00
-137.99
-151.17
-158.78
-157.20
-144.27
-120.27
-87.91
-51.58
-15.85
15.73
41.26
60.43
73.79
82.23
86.50
87.29
85.27
81.30
76.31
71.15
66.47
62.58
59.59
57.49
56.27
55.97
56.51
57.68
58.99
59.78
59.41
57.42
53.74
48.59
42.35
35.30
27.50
18.80
9.00
-1.95
-13.79
-25.95
-37.79
-48.83
-58.94
-68.47
-78.15
-88.94
-101.72
-116.85
-133.70
-150.38
-163.87
-170.68
-167.92
-154.38
-131.11
-101.16
-68.61
-37.35
-10.03
12.19
29.34
41.93
50.40
54.96
55.82
53.49
48.94
43.54
38.75
35.69
34.95
36.45
39.67
43.92
48.62
53.43
58.25
63.01
67.48
71.14
73.26
73.08
70.10
64.29
56.17
46.68
36.81
27.35
18.57
10.25
1.77
-7.54
-18.19
-30.46
-44.28
-59.16
-73.99
-86.92
-95.43
-96.87
-89.24
-71.99
-46.39
-15.33
17.48
48.57
75.47
96.94
112.84
123.52
129.41
130.89
128.36
122.52
114.43
105.48
97.03
90.09
85.11
81.93
79.97
78.46
76.76
74.57
71.95
69.36
67.45
66.79
67.58
69.46
71.50
72.43
71.07
66.69
59.17
48.96
36.82
23.51
9.62
-4.59
-19.23
-34.75
-51.66
-70.12
-89.44
-107.75
-122.15
-129.46
-127.26
-114.92
-94.00
-67.81
-40.32
-14.99
6.11
22.35
34.10
42.01
46.59
48.09
46.80
43.31
38.62
33.92
30.29
28.35
28.20
29.54
31.86
34.77
38.01
41.50
45.24
49.14
52.97
56.35
58.74
59.58
58.39
55.01
49.65
42.91
35.60
28.45
21.93
16.07
10.50
4.61
-2.32
-10.90
-21.38
-33.34
-45.37
-55.07
-59.44
-55.69
-42.17
-18.98
11.87
47.02
82.64
115.22
142.14
161.86
173.78
178.12
175.71
167.89
156.31
142.68
128.57
115.09
102.80
91.67
81.22
70.74
59.60
47.55
34.73
21.63
8.83
-3.20
-14.15
-23.77
-31.88
-38.42
-43.50
-47.56
-51.07
-54.37
-57.46
-60.09
-62.09
-63.81
-66.31
-71.01
-79.18
-91.22
-106.40
-123.02
-138.89
-151.97
-160.71
-164.10
-161.72
-153.62
-140.45
-123.45
-104.34
-84.95
-66.92
-51.35
-38.67
-28.88
-21.67
-16.65
-13.41
-11.40
-9.97
-8.42
-6.23
-3.26
0.23
3.63
6.31
7.92
8.47
8.29
7.82
7.38
6.96
6.23
4.71
1.98
-2.10
-7.26
-12.95
-18.49
-23.34
-27.29
-30.50
-33.49
-37.00
-41.83
-48.55
-57.27
-67.27
-76.78
-83.21
-83.78
-76.54
-61.35
-40.16
-16.58
5.29
22.20
32.63
36.87
36.29
32.54
26.78
19.62
11.37
2.44
-6.45
-14.38
-20.57
-24.66
-26.81
-27.67
-28.02
-28.54
-29.56
-31.05
-32.71
-34.20
-35.35
-36.31
-37.55
-39.67
-43.13
-48.01
-53.96
-60.21
-65.91
-70.35
-73.25
-74.81
-75.68
-76.75
-79.02
-83.33
-90.15
-99.24
-109.34
-118.12
-122.59
-119.89
-108.32
-88.09
-61.35
-31.53
-2.26
23.66
44.69
60.42
71.07
76.95
78.28
75.37
68.85
59.81
49.75
40.22
32.46
27.18
24.40
23.55
23.64
23.58
22.45
19.81
15.72
10.62
4.99
-0.93
-7.26
-14.41
-22.87
-32.85
-44.28
-56.98
-70.83
-85.95
-102.59
-120.96
-140.98
-162.32
-184.69
-208.08
-232.79
-258.91
-285.58
-310.50
-330.06
-340.34
-338.50
-323.77
-297.62
-262.94
-222.86
-179.90
-135.96
-92.81
-52.61
-17.95
8.88
26.79
36.42
39.94
40.14
39.46
39.41
40.50
42.64
45.53
48.96
52.75
56.68
60.48
63.84
66.56
68.53
69.69
69.91
69.07
67.11
64.24
61.13
58.76
58.23
60.45
65.75
73.72
83.21
92.41
99.29
101.94
99.05
90.55
77.84
63.76
52.08
46.36
48.89
59.87
77.31
97.81
117.66
134.03
145.53
152.09
154.42
153.13
148.46
140.26
128.50
113.77
97.42
81.31
67.27
56.43
48.99
44.27
41.16
38.63
36.08
33.36
30.50
27.47
23.95
19.39
13.26
5.22
-4.69
-16.07
-28.27
-40.55
-52.31
-63.16
-73.11
-82.44
-91.75
-101.77
-113.29
-126.90
-142.65
-159.69
-175.97
-188.32
-193.06
-187.01
-168.61
-138.60
-100.02
-57.34
-15.16
22.89
54.82
80.14
99.31
113.08
122.09
126.80
127.67
125.44
121.17
116.20
111.84
109.02
108.11
108.90
110.78
113.03
115.08
116.53
117.20
116.96
115.66
113.09
108.97
103.02
95.00
84.82
72.64
58.95
44.47
30.01
16.23
3.42
-8.59
-20.37
-32.75
-46.66
-62.89
-81.71
-102.36
-122.68
-139.21
-147.91
-145.41
-130.32
-103.90
-69.80
-32.84
2.48
33.09
57.73
76.51
90.16
99.36
104.51
105.86
103.82
99.16
92.97
86.51
80.86
76.72
74.16
72.82
72.02
71.12
69.78
68.00
65.95
63.72
61.11
57.62
52.64
45.61
36.34
25.02
12.12
-1.69
-15.78
-29.66
-43.07
-55.90
-68.26
-80.47
-93.12
-107.08
-123.22
-141.92
-162.44
-182.48
-198.31
-205.75
-201.46
-184.15
-155.08
-117.53
-75.65
-33.26
6.93
43.35
75.09
101.42
121.60
135.01
141.61
142.09
137.87
130.73
122.40
114.19
106.84
100.56
95.13
90.20
85.45
80.65
75.74
70.73
65.62
60.32
54.54
47.85
39.83
30.20
19.03
6.79
-5.79
-17.96
-29.17
-39.26
-48.41
-57.03
-65.71
-75.16
-86.11
-99.10
-113.97
-129.30
-142.31
-149.32
-146.83
-132.82
-107.68
-74.22
-36.80
0.03
32.74
59.44
79.77
94.32
103.97
109.51
111.61
110.88
108.07
104.07
99.88
96.38
94.24
93.81
95.10
97.91
101.93
106.90
112.56
118.60
124.56
129.87
133.87
136.16
136.64
135.56
133.33
130.27
126.48
121.84
116.14
109.22
101.00
91.46
80.56
68.36
55.13
41.52
28.53
17.37
9.15
4.70
4.56
8.82
17.16
28.71
42.02
55.22
66.36
73.91
77.13
76.15
71.82
65.30
57.72
49.93
42.53
35.95
30.62
26.83
24.49
22.96
21.00
17.06
9.84
-1.18
-15.41
-31.34
-47.01
-60.66
-71.12
-77.99
-81.50
-82.29
-81.21
-79.26
-77.46
-76.68
-77.47
-79.89
-83.50
-87.52
-91.16
-93.84
-95.48
-96.49
-97.62
-99.77
-103.58
-109.11
-115.56
-121.30
-124.18
-122.12
-113.81
-99.21
-79.69
-57.69
-35.93
-16.65
-1.10
10.51
18.64
23.89
26.67
27.09
25.22
21.34
16.16
10.67
5.88
2.43
0.40
-0.71
-1.66
-3.14
-5.46
-8.62
-12.37
-16.57
-21.28
-26.77
-33.29
-40.84
-49.02
-57.14
-64.40
-70.25
-74.56
-77.67
-80.31
-83.39
-87.83
-94.36
-103.24
-114.07
-125.38
-134.77
-139.29
-136.25
-124.26
-103.86
-77.47
-48.69
-21.12
2.65
21.50
35.54
45.49
52.01
55.41
55.79
53.35
48.73
43.03
37.56
33.44
31.21
30.73
31.32
32.11
32.41
31.98
31.01
29.90
28.95
28.05
26.71
24.12
19.54
12.63
3.69
-6.36
-16.34
-25.12
-32.06
-37.18
-41.19
-45.20
-50.53
-58.32
-69.11
-82.41
-96.28
-107.54
-112.40
-107.83
-92.71
-68.51
-38.91
-8.50
18.77
40.75
57.27
69.54
79.00
86.53
92.15
95.31
95.50
92.73
87.73
81.67
75.72
70.65
66.47
62.60
58.23
52.83
46.42
39.52
32.87
26.93
21.63
16.33
10.10
2.11
-8.01
-20.04
-33.17
-46.35
-58.58
-69.31
-78.49
-86.60
-94.49
-103.12
-113.39
-125.81
-140.13
-154.92
-167.44
-174.08
-171.32
-157.00
-131.44
-97.52
-59.95
-23.70
7.45
31.73
49.23
61.07
68.50
72.30
72.85
70.49
65.86
59.95
53.94
48.83
45.20
43.05
42.02
41.54
41.13
40.48
39.54
38.42
37.22
35.85
33.92
30.72
25.43
17.47
6.80
-5.88
-19.35
-32.25
-43.62
-53.16
-61.28
-68.89
-76.98
-86.49
-98.08
-112.11
-128.26
-145.05
-159.67
-168.23
-166.84
-153.00
-126.84
-91.32
-51.41
-12.43
21.46
48.17
67.47
80.16
87.20
89.25
86.76
80.42
71.46
61.56
52.45
45.36
40.70
38.02
36.37
34.79
32.76
30.30
27.85
25.84
24.25
22.45
19.26
13.44
4.11
-8.82
-24.63
-42.02
-59.69
-76.66
-92.66
-108.07
-123.78
-141.02
-161.12
-185.30
-214.15
-247.10
-281.97
-315.19
-342.66
-361.11
-369.24
-368.11
-360.47
-349.42
-337.11
-324.19
-310.12
-294.14
-276.08
-256.62
-236.83
-217.52
-198.69
-179.60
-159.28
-137.12
-113.34
-89.02
-65.57
-44.21
-25.35
-8.51
7.58
24.42
43.39
65.39
90.71
118.88
148.54
177.40
202.58
221.29
231.69
233.47
227.83
216.85
202.59
186.27
168.09
147.47
123.67
96.46
66.62
36.16
8.12
-13.95
-26.83
-28.57
-18.96
0.47
27.16
58.21
90.91
122.84
151.72
175.46
192.52
202.45
206.17
205.78
203.79
202.32
202.60
205.09
209.94
217.45
228.22
242.92
261.83
284.35
308.86
332.90
353.62
368.36
375.35
374.09
365.33
350.76
332.26
311.32
288.80
265.03
240.31
215.26
191.03
168.94
150.02
134.56
121.87
110.51
98.77
85.11
68.66
49.46
28.58
8.03
-9.63
-21.87
-26.94
-24.41
-15.36
-2.07
12.60
25.94
35.88
41.22
41.60
37.27
29.00
17.89
5.23
-7.64
-19.60
-29.86
-38.11
-44.51
-49.59
-54.09
-58.79
-64.29
-70.79
-78.08
-85.53
-92.36
-97.93
-101.89
-104.39
-106.00
-107.53
-109.80
-113.45
-118.82
-125.82
-134.07
-142.99
-151.89
-160.14
-167.25
-172.99
-177.63
-181.95
-187.11
-194.15
-203.17
-212.71
-219.69
-220.14
-210.56
-189.45
-158.02
-119.96
-80.19
-43.28
-12.16
12.19
30.29
43.25
52.02
57.07
58.61
57.01
53.14
48.31
44.03
41.52
41.31
43.17
46.26
49.51
52.05
53.54
54.11
54.14
53.97
53.64
52.78
50.81
47.15
41.41
33.63
24.23
13.91
3.48
-6.39
-15.41
-23.62
-31.47
-39.60
-48.81
-59.86
-73.24
-88.78
-105.18
-119.85
-129.21
-129.69
-118.93
-96.86
-65.89
-30.19
5.57
37.61
63.82
83.71
97.78
106.88
111.69
112.73
110.53
105.92
99.98
93.88
88.58
84.61
81.99
80.37
79.30
78.42
77.58
76.73
75.83
74.77
73.31
71.18
68.17
64.09
58.76
52.06
43.95
34.63
24.57
14.51
5.16
-3.02
-10.11
-16.68
-23.72
-32.34
-43.50
-57.71
-74.62
-92.64
-109.02
-120.15
-122.62
-114.30
-95.31
-68.00
-36.37
-4.67
23.71
46.85
64.27
76.31
83.60
86.69
86.10
82.53
76.94
70.46
64.17
58.82
54.78
52.06
50.49
49.78
49.68
49.84
49.89
49.39
47.94
45.31
41.50
36.65
30.94
24.40
16.94
8.46
-1.00
-11.07
-21.18
-30.70
-39.24
-46.79
-53.68
-60.47
-67.79
-76.29
-86.41
-98.20
-110.97
-122.93
-131.36
-133.24
-126.23
-109.71
-85.17
-55.88
-25.86
1.35
23.54
39.96
50.99
57.38
59.82
58.77
54.64
48.06
40.05
31.88
24.80
19.66
16.66
15.36
14.95
14.64
14.02
13.14
12.37
12.01
11.98
11.68
10.23
6.80
1.01
-6.92
-16.24
-25.94
-35.14
-43.29
-50.28
-56.38
-62.07
-67.97
-74.82
-83.30
-93.86
-106.26
-119.20
-130.29
-136.46
-134.94
-124.25
-104.95
-79.53
-51.63
-24.85
-1.79
16.37
29.63
38.50
43.47
44.78
42.58
37.25
29.71
21.30
13.50
7.43
3.57
1.67
1.00
0.74
0.29
-0.45
-1.27
-1.83
-2.06
-2.24
-3.12
-5.53
-10.13
-17.10
-26.08
-36.27
-46.76
-56.77
-65.90
-74.21
-82.15
-90.43
-99.86
-111.14
-124.52
-139.39
-154.07
-165.79
-171.31
-167.87
-154.12
-130.75
-100.31
-66.45
-32.77
-1.98
24.56
46.56
64.27
78.07
88.20
94.89
98.64
100.26
100.83
101.44
102.92
105.58
109.23
113.29
117.04
119.84
121.39
121.77
121.38
120.68
119.97
119.08
117.41
114.15
108.60
100.56
90.45
79.12
67.51
56.19
45.20
34.11
22.23
8.95
-6.08
-22.78
-40.53
-57.95
-72.89
-82.63
-84.59
-77.20
-60.64
-37.05
-9.97
16.76
40.03
58.11
70.65
78.27
81.95
82.66
81.24
78.40
74.76
70.83
66.94
63.25
59.82
56.62
53.68
50.94
48.28
45.41
42.00
37.73
32.33
25.60
17.34
7.38
-4.28
-17.26
-30.66
-43.20
-53.44
-60.33
-63.61
-63.91
-62.52
-61.03
-60.82
-62.85
-67.69
-75.56
-86.27
-98.85
-111.37
-120.91
-124.27
-119.02
-104.46
-82.13
-55.32
-28.04
-3.71
15.61
29.37
37.99
42.23
42.69
39.84
34.27
26.89
19.00
11.93
6.70
3.70
2.69
2.97
3.77
4.57
5.25
5.94
6.80
7.67
8.01
6.94
3.63
-2.37
-10.90
-21.13
-31.91
-42.10
-50.95
-58.32
-64.59
-70.55
-77.14
-85.22
-95.36
-107.47
-120.51
-132.32
-139.88
-140.11
-130.89
-111.97
-85.31
-54.56
-23.87
3.31
25.08
41.14
52.19
59.17
62.69
62.94
60.08
54.61
47.59
40.44
34.49
30.49
28.40
27.52
26.89
25.86
24.31
22.63
21.33
20.62
20.13
18.95
15.99
10.45
2.09
-8.59
-20.58
-32.71
-44.03
-54.09
-62.99
-71.34
-80.06
-90.24
-102.72
-117.76
-134.62
-151.27
-164.56
-170.90
-167.30
-152.39
-127.06
-94.27
-58.22
-23.04
8.12
33.74
53.57
68.18
78.23
84.20
86.45
85.43
81.91
77.03
72.09
68.16
65.81
65.00
65.19
65.73
66.16
66.42
66.78
67.56
68.79
69.96
70.09
67.95
62.56
53.63
41.73
28.15
14.49
2.09
-8.35
-16.98
-24.63
-32.50
-41.83
-53.55
-67.92
-84.21
-100.51
-113.83
-120.69
-118.06
-104.42
-80.41
-48.72
-13.34
21.60
52.87
78.64
98.28
112.04
120.45
124.18
124.00
121.00
116.62
112.49
110.16
110.61
114.04
119.67
126.05
131.43
134.33
133.90
130.05
123.37
114.77
105.13
95.06
84.79
74.28
63.29
51.59
39.05
25.67
11.55
-3.12
-18.18
-33.47
-48.87
-64.35
-80.00
-95.94
-111.99
-127.35
-140.31
-148.33
-148.64
-139.11
-119.22
-90.30
-55.41
-18.43
16.89
47.65
72.10
89.48
99.82
103.56
101.65
95.42
86.60
77.10
68.61
62.28
58.44
56.61
55.73
54.59
52.25
48.35
43.07
36.94
30.52
24.05
17.38
10.10
1.79
-7.65
-17.87
-28.19
-37.88
-46.50
-54.24
-61.89
-70.71
-82.01
-96.81
-115.28
-136.51
-158.42
-178.02
-192.03
-197.74
-193.68
-180.06
-158.67
-132.38
-104.34
-77.34
-53.43
-33.81
-19.00
-9.01
-3.51
-1.85
-3.07
-5.96
-9.09
-10.97
-10.30
-6.29
1.16
11.42
23.31
35.49
46.83
56.63
64.45
70.00
72.71
71.75
66.19
55.35
39.20
18.49
-5.37
-30.71
-56.00
-80.18
-102.71
-123.56
-143.04
-161.65
-179.78
-197.33
-213.26
-225.44
-230.86
-226.37
-209.73
-180.58
-140.72
-93.77
-44.14
4.00
47.51
84.52
114.20
136.44
151.48
159.88
162.54
160.74
156.04
150.12
144.52
140.37
138.20
137.97
139.11
140.81
142.36
143.40
143.96
144.33
144.73
144.99
144.47
142.25
137.54
130.05
120.18
108.84
97.05
85.43
74.00
62.21
49.17
34.04
16.28
-4.22
-26.93
-50.52
-72.79
-90.73
-101.16
-101.49
-90.75
-70.06
-42.50
-12.28
16.46
40.67
58.84
70.84
77.32
79.10
76.87
71.21
62.86
52.93
42.83
33.95
27.32
23.25
21.38
20.93
21.11
21.38
21.62
22.01
22.80
24.09
25.65
26.94
27.28
26.01
22.81
17.71
11.06
3.37
-4.91
-13.49
-22.14
-30.70
-38.95
-46.79
-54.38
-62.13
-70.45
-79.15
-86.87
-91.08
-88.70
-77.21
-55.86
-26.13
8.58
44.08
76.69
104.02
125.15
140.13
149.38
153.33
152.38
147.14
138.53
127.73
115.80
103.48
91.00
78.35
65.48
52.57
40.10
28.67
18.82
10.77
4.40
-0.73
-5.21
-9.68
-14.66
-20.51
-27.27
-34.73
-42.39
-49.60
-55.85
-60.89
-64.85
-68.21
-71.65
-75.85
-81.33
-88.22
-96.08
-103.81
-109.62
-111.45
-107.53
-97.04
-80.52
-59.80
-37.47
-16.12
2.27
16.72
27.00
33.34
36.13
35.71
32.59
27.47
21.35
15.29
10.08
6.06
3.00
0.32
-2.52
-5.68
-8.84
-11.39
-12.78
-12.91
-12.25
-11.70
-12.30
-14.76
-19.33
-25.70
-33.13
-40.81
-47.98
-54.20
-59.39
-63.87
-68.28
-73.45
-80.20
-88.95
-99.34
-109.94
-118.30
-121.44
-116.72
-102.84
-80.44
-52.06
-21.35
8.01
33.27
53.05
67.17
76.05
80.29
80.41
76.98
70.79
62.96
54.74
47.20
41.00
36.24
32.64
29.75
27.14
24.63
22.21
19.96
17.94
16.14
14.42
12.55
10.21
7.06
2.74
-2.93
-9.90
-17.81
-26.06
-34.03
-41.34
-48.06
-54.68
-61.96
-70.58
-80.86
-92.44
-104.11
-113.87
-119.22
-117.78
-108.07
-90.19
-66.00
-38.67
-11.72
11.88
30.44
43.50
51.48
55.03
54.74
51.19
45.14
37.73
30.32
24.10
19.67
16.89
14.98
13.04
10.44
7.18
3.75
0.82
-1.19
-2.52
-3.94
-6.56
-11.23
-18.20
-26.96
-36.44
-45.49
-53.32
-59.75
-65.23
-70.59
-76.72
-84.36
-93.83
-104.82
-116.19
-125.93
-131.47
-130.37
-121.11
-103.82
-80.35
-53.80
-27.57
-4.45
13.89
26.85
34.57
37.47
36.10
31.23
23.99
15.91
8.62
3.40
0.86
0.82
2.51
5.00
7.69
10.44
13.56
17.40
22.02
26.90
31.03
33.26
32.67
29.03
22.85
15.17
7.13
-0.48
-7.47
-14.24
-21.63
-30.61
-41.93
-55.75
-71.37
-86.92
-99.58
-106.10
-103.70
-91.11
-69.08
-40.32
-8.75
21.68
47.94
68.40
82.64
91.00
94.06
92.47
87.02
78.80
69.16
59.55
51.04
44.03
38.19
32.71
26.88
20.52
14.25
9.11
6.09
5.43
6.34
7.27
6.42
2.59
-4.43
-13.81
-24.12
-34.07
-42.99
-51.02
-58.99
-68.08
-79.49
-93.94
-111.21
-129.72
-146.44
-157.33
-158.44
-147.22
-123.59
-90.18
-51.52
-12.64
22.30
50.88
72.38
87.13
95.84
99.21
97.94
92.94
85.55
77.34
69.81
63.89
59.83
57.21
55.36
53.75
52.34
51.48
51.66
52.98
54.85
55.93
54.54
49.27
39.57
26.05
10.27
-5.77
-20.38
-32.76
-43.16
-52.72
-63.05
-75.75
-91.91
-111.63
-133.60
-154.86
-171.19
-178.07
-172.10
-152.31
-120.68
-81.59
-40.43
-1.92
30.99
57.29
77.24
91.53
100.67
104.89
104.62
100.72
94.69
88.26
82.90
79.41
77.77
77.36
77.39
77.33
77.04
76.78
76.89
77.49
78.23
78.30
76.60
72.10
64.27
53.29
40.10
26.05
12.46
0.18
-10.74
-20.97
-31.72
-44.40
-60.14
-79.36
-101.30
-123.61
-142.60
-153.91
-153.79
-140.41
-114.61
-79.74
-40.62
-2.12
32.09
60.04
81.26
96.13
105.24
109.13
108.40
103.84
96.63
88.28
80.29
73.87
69.67
67.68
67.38
67.99
68.76
69.27
69.42
69.35
69.18
68.74
67.42
64.34
58.64
49.89
38.41
25.23
11.75
-0.84
-11.95
-21.76
-31.06
-40.84
-52.04
-65.35
-81.06
-98.75
-116.95
-132.96
-143.18
-143.95
-132.88
-109.91
-77.57
-40.25
-2.78
30.91
58.61
79.71
94.49
103.45
106.88
105.09
98.78
89.28
78.51
68.41
60.40
55.01
51.83
49.97
48.55
47.18
46.05
45.67
46.40
48.02
49.56
49.52
46.48
39.67
29.35
16.72
3.49
-8.76
-19.20
-27.88
-35.73
-44.13
-54.45
-67.64
-83.79
-101.80
-119.26
-132.71
-138.40
-133.46
-116.94
-90.39
-57.52
-23.01
8.86
35.29
55.22
68.87
76.96
80.05
78.46
72.65
63.57
52.84
42.32
33.58
27.34
23.31
20.53
17.93
14.87
11.38
7.97
5.18
3.11
1.16
-1.80
-7.00
-15.27
-26.57
-40.06
-54.33
-67.94
-79.82
-89.56
-97.41
-104.10
-110.63
-118.02
-127.00
-137.55
-148.48
-157.21
-160.16
-153.72
-135.62
-106.04
-67.79
-25.52
15.75
52.23
82.08
105.34
123.02
136.07
144.89
149.39
149.56
145.92
139.67
132.32
125.16
118.91
113.52
108.53
103.40
97.85
91.98
86.04
80.24
74.54
68.62
61.89
53.70
43.49
30.99
16.29
-0.10
-17.32
-34.40
-50.55
-65.40
-79.09
-92.20
-105.57
-120.07
-136.41
-154.76
-174.38
-193.17
-207.81
-214.32
-209.32
-191.31
-161.43
-123.30
-81.80
-41.59
-5.88
23.95
47.94
66.75
81.02
91.24
97.86
101.59
103.39
104.24
104.87
105.61
106.44
107.21
107.86
108.54
109.40
110.50
111.59
112.15
111.51
109.12
104.79
98.64
91.11
82.62
73.46
63.65
53.07
41.58
29.24
16.36
3.44
-9.02
-20.70
-31.64
-42.25
-53.26
-65.55
-79.86
-96.38
-114.29
-131.40
-144.44
-149.76
-144.56
-127.99
-101.64
-69.13
-34.91
-3.00
24.09
45.44
61.27
72.26
78.95
81.75
81.14
77.90
73.15
68.15
63.91
60.89
58.99
57.70
56.40
54.72
52.67
50.61
48.96
47.97
47.38
46.51
44.45
40.54
34.71
27.62
20.39
14.12
9.45
6.27
3.91
1.53
-1.45
-5.04
-8.81
-12.18
-14.85
-16.91
-18.87
-21.43
-25.31
-31.17
-39.51
-50.47
-63.43
-76.71
-87.54
-92.60
-89.11
-75.86
-53.79
-25.78
4.36
33.10
58.07
78.27
93.67
104.60
111.31
113.93
112.70
108.29
101.90
95.05
89.23
85.53
84.35
85.47
88.20
91.68
95.16
98.13
100.32
101.52
101.53
100.13
97.12
92.46
86.37
79.20
71.36
63.18
54.80
46.30
37.70
29.15
20.84
12.98
5.71
-1.07
-7.69
-14.66
-22.56
-31.80
-42.20
-52.70
-61.19
-64.82
-60.73
-47.03
-23.63
7.60
43.29
79.50
112.79
140.82
162.48
177.55
186.26
188.99
186.25
178.81
167.81
154.72
141.08
128.18
116.77
106.98
98.47
90.63
82.95
75.04
66.72
57.82
48.14
37.36
25.20
11.53
-3.49
-19.49
-35.90
-52.16
-67.83
-82.61
-96.38
-109.10
-120.75
-131.26
-140.50
-148.41
-155.02
-160.62
-165.71
-170.96
-176.98
-183.98
-191.49
-198.19
-202.05
-200.78
-192.59
-176.88
-154.60
-128.07
-100.39
-74.53
-52.65
-35.68
-23.50
-15.33
-10.19
-7.25
-5.90
-5.70
-6.22
-7.02
-7.67
-7.84
-7.42
-6.49
-5.28
-4.05
-3.06
-2.48
-2.48
-3.15
-4.58
-6.72
-9.50
-12.79
-16.52
-20.70
-25.40
-30.66
-36.39
-42.32
-48.07
-53.32
-57.91
-61.90
-65.56
-69.33
-73.72
-79.32
-86.62
-95.73
-106.10
-116.24
-123.82
-126.23
-121.32
-108.26
-87.92
-62.71
-35.82
-10.42
11.14
27.65
38.91
45.41
47.92
47.27
44.21
39.46
33.77
27.93
22.72
18.71
16.20
15.11
15.00
15.29
15.49
15.32
14.86
14.42
14.32
14.62
15.02
14.85
13.38
10.08
4.93
-1.63
-8.85
-16.00
-22.69
-28.92
-35.03
-41.52
-48.87
-57.49
-67.56
-78.83
-90.33
-100.23
-106.09
-105.53
-97.10
-80.96
-58.99
-34.21
-9.86
11.55
28.70
41.30
49.72
54.38
55.56
53.44
48.36
41.08
32.76
24.74
18.15
13.60
11.05
9.97
9.68
9.70
9.93
10.62
12.05
14.20
16.48
17.88
17.29
14.01
8.07
0.31
-8.03
-15.78
-22.34
-27.83
-32.94
-38.59
-45.65
-54.67
-65.72
-78.20
-90.66
-100.89
-106.28
-104.59
-94.76
-77.37
-54.56
-29.36
-4.74
17.07
34.89
48.44
57.83
63.27
64.89
62.90
57.73
50.18
41.42
32.66
24.93
18.76
14.19
10.82
8.20
6.01
4.28
3.20
2.92
3.24
3.52
2.81
0.13
-5.07
-12.69
-22.02
-31.97
-41.52
-50.07
-57.63
-64.78
-72.43
-81.56
-92.90
-106.59
-121.89
-136.94
-148.96
-154.71
-151.51
-138.10
-115.20
-85.39
-52.32
-19.73
9.57
33.97
52.95
66.64
75.37
79.48
79.37
75.74
69.65
62.46
55.53
49.94
46.18
44.08
43.10
42.53
41.95
41.32
40.95
41.10
41.72
42.23
41.61
38.79
33.08
24.51
13.84
2.31
-8.88
-19.00
-27.98
-36.42
-45.30
-55.70
-68.50
-83.92
-101.20
-118.32
-132.13
-139.01
-135.93
-121.49
-96.60
-64.30
-28.84
5.46
35.39
59.21
76.56
87.82
93.63
94.57
91.28
84.64
75.98
66.89
58.88
52.98
49.39
47.55
46.56
45.64
44.60
43.79
43.77
44.81
46.39
47.30
46.03
41.43
33.24
22.26
9.96
-2.09
-12.80
-21.93
-29.98
-38.04
-47.36
-59.06
-73.66
-90.73
-108.52
-123.98
-133.35
-133.20
-121.55
-98.74
-67.42
-31.76
3.80
35.63
61.60
80.96
93.86
100.79
102.33
99.11
92.03
82.40
71.85
61.99
54.03
48.43
44.89
42.62
40.80
38.97
37.19
35.94
35.56
35.93
36.20
35.01
30.97
23.33
12.31
-0.93
-14.66
-27.40
-38.33
-47.68
-56.47
-66.18
-78.26
-93.59
-112.14
-132.50
-151.83
-166.12
-171.12
-163.63
-142.74
-110.43
-71.03
-29.99
7.87
39.49
63.87
81.47
93.29
100.13
102.35
100.29
94.68
86.86
78.56
71.39
66.34
63.46
62.13
61.39
60.57
59.48
58.45
57.99
58.37
59.24
59.60
58.10
53.53
45.31
33.77
20.11
5.92
-7.34
-18.89
-28.84
-38.07
-47.91
-59.76
-74.61
-92.64
-112.76
-132.42
-147.81
-154.66
-149.51
-131.02
-100.64
-62.31
-21.27
17.55
50.78
76.94
96.13
109.07
116.48
118.78
116.41
110.10
101.13
91.17
81.89
74.54
69.67
67.07
66.02
65.60
65.09
64.20
63.03
61.90
60.99
60.10
58.50
55.19
49.20
40.11
28.21
14.44
0.11
-13.62
-26.09
-37.21
-47.46
-57.66
-68.87
-82.06
-97.85
-115.98
-134.77
-151.08
-160.75
-159.82
-145.93
-119.39
-83.29
-42.61
-2.63
32.49
60.59
81.30
95.38
103.74
107.06
105.71
100.21
91.58
81.38
71.44
63.33
57.90
55.12
54.25
54.30
54.43
54.35
54.21
54.35
54.90
55.42
54.92
52.18
46.20
36.74
24.49
10.86
-2.55
-14.57
-24.81
-33.72
-42.26
-51.56
-62.61
-76.08
-92.07
-109.76
-127.10
-140.73
-146.66
-141.44
-123.51
-94.09
-56.94
-17.27
19.91
51.13
74.93
91.50
101.80
106.76
106.97
102.85
95.04
84.74
73.63
63.54
55.88
51.29
49.48
49.51
50.26
50.84
50.85
50.34
49.50
48.40
46.77
44.09
39.75
33.38
24.95
14.85
3.80
-7.43
-18.20
-28.20
-37.54
-46.68
-56.23
-66.87
-79.22
-93.71
-110.36
-128.39
-145.84
-159.55
-165.73
-161.12
-144.19
-115.98
-79.98
-41.09
-4.13
27.41
51.97
69.66
81.47
88.55
91.76
91.75
89.17
84.96
80.26
76.18
73.53
72.61
73.24
74.88
76.96
78.96
80.48
81.20
80.76
78.86
75.25
69.94
63.12
55.05
45.90
35.64
24.14
11.32
-2.51
-16.60
-29.87
-41.19
-49.94
-56.31
-61.48
-67.36
-76.08
-89.30
-107.44
-129.19
-151.33
-169.34
-178.40
-174.89
-157.55
-128.01
-90.32
-49.76
-11.31
21.50
47.05
65.34
77.23
83.83
86.11
84.95
81.30
76.22
70.81
65.94
62.10
59.32
57.42
56.18
55.53
55.52
56.17
57.28
58.36
58.72
57.69
54.88
50.33
44.38
37.46
29.92
21.76
12.77
2.67
-8.60
-20.77
-33.20
-45.10
-55.85
-65.24
-73.64
-81.96
-91.41
-103.02
-117.02
-132.23
-145.91
-154.20
-153.16
-140.23
-115.30
-80.97
-41.86
-3.15
30.95
58.08
77.72
90.59
97.72
99.91
97.68
91.63
82.74
72.46
62.44
54.12
48.30
45.04
43.81
43.82
44.33
44.89
45.35
45.75
46.16
46.44
46.16
44.67
41.23
35.33
26.85
16.25
4.44
-7.50
-18.66
-28.60
-37.42
-45.77
-54.52
-64.62
-76.78
-91.18
-107.16
-122.93
-135.57
-141.59
-137.90
-122.94
-97.46
-64.50
-28.49
6.04
35.75
58.97
75.59
86.24
91.69
92.40
88.76
81.33
71.20
59.88
49.02
39.99
33.53
29.63
27.69
26.84
26.30
25.60
24.67
23.67
22.77
21.89
20.64
18.29
14.09
7.49
-1.49
-12.29
-23.91
-35.27
-45.58
-54.59
-62.65
-70.50
-79.08
-89.33
-101.94
-117.09
-133.88
-150.08
-162.14
-165.99
-158.30
-137.80
-106.01
-66.93
-25.84
12.37
44.39
68.87
86.06
96.92
102.41
103.26
100.06
93.62
85.08
75.81
67.20
60.27
55.49
52.82
51.76
51.70
52.07
52.52
52.91
53.21
53.32
52.89
51.34
47.93
42.05
33.48
22.52
9.95
-3.19
-15.93
-27.67
-38.32
-48.18
-57.85
-68.05
-79.55
-93.02
-108.73
-126.00
-142.77
-155.57
-160.22
-153.22
-133.15
-101.46
-62.25
-20.93
17.40
49.35
73.58
90.42
100.90
106.03
106.42
102.56
95.16
85.40
74.84
65.04
57.17
51.70
48.40
46.62
45.66
45.07
44.75
44.79
45.25
45.93
46.25
45.39
42.47
36.82
28.28
17.21
4.51
-8.68
-21.27
-32.55
-42.39
-51.18
-59.71
-68.98
-80.01
-93.62
-110.07
-128.49
-146.55
-160.58
-166.39
-160.56
-141.83
-111.75
-74.36
-34.84
1.98
32.85
56.42
72.77
82.62
86.67
85.46
79.58
70.04
58.34
46.24
35.37
26.71
20.46
16.12
12.93
10.30
8.07
6.54
6.10
6.80
8.06
8.63
6.96
1.80
-7.29
-19.66
-33.77
-47.79
-60.23
-70.48
-78.88
-86.53
-94.71
-104.64
-116.95
-131.50
-146.98
-160.81
-169.34
-168.66
-155.84
-130.20
-93.82
-51.17
-7.62
32.11
65.25
91.07
110.33
124.11
133.17
137.78
138.13
134.93
129.62
124.14
120.37
119.60
122.22
127.83
135.68
145.08
155.72
167.63
181.02
195.82
211.51
227.08
241.33
253.18
262.04
267.89
271.12
272.16
271.11
267.55
260.59
249.20
232.52
210.20
182.46
150.16
114.92
79.26
46.70
21.50
7.90
9.04
25.71
55.79
94.49
135.40
172.05
199.20
213.69
214.46
202.30
179.25
148.11
111.99
73.89
36.33
0.89
-31.87
-62.30
-91.25
-119.47
-147.16
-173.78
-198.15
-218.88
-234.87
-245.65
-251.45
-253.03
-251.36
-247.26
-241.25
-233.58
-224.36
-213.71
-201.95
-189.61
-177.38
-166.03
-156.26
-148.63
-143.50
-141.05
-141.15
-143.41
-147.02
-150.82
-153.47
-153.73
-150.76
-144.42
-135.23
-124.26
-112.81
-102.06
-92.81
-85.37
-79.65
-75.27
-71.81
-68.92
-66.34
-63.88
-61.29
-58.17
-54.15
-48.98
-42.79
-36.07
-29.60
-24.18
-20.32
-18.19
-17.47
-17.67
-18.23
-18.80
-19.30
-19.93
-20.97
-22.68
-25.18
-28.36
-32.02
-35.95
-39.97
-44.11
-48.54
-53.65
-59.93
-67.89
-77.74
-89.23
-101.19
-111.56
-117.55
-116.28
-105.60
-84.80
-55.03
-19.03
19.53
56.87
89.85
116.32
135.09
145.82
148.78
144.85
135.51
122.70
108.57
95.00
83.19
73.47
65.48
58.54
52.09
45.91
40.10
34.77
29.75
24.46
18.03
9.65
-1.08
-13.92
-27.98
-42.06
-54.93
-65.79
-74.38
-81.07
-86.67
-92.28
-98.95
-107.34
-117.26
-127.51
-135.74
-139.05
-134.80
-121.60
-99.96
-72.26
-42.07
-12.97
12.37
32.76
48.23
59.49
67.24
71.82
73.32
71.91
68.18
63.24
58.46
55.11
53.80
54.35
55.85
57.11
57.13
55.48
52.37
48.45
44.39
40.49
36.54
31.88
25.70
17.50
7.40
-3.78
-14.73
-24.08
-30.88
-34.85
-36.45
-36.69
-36.96
-38.69
-43.14
-50.87
-61.24
-72.04
-79.66
-80.07
-70.28
-49.68
-20.66
12.12
43.25
68.46
85.68
95.10
98.28
97.06
92.76
86.12
77.69
68.28
58.97
50.85
44.56
40.04
36.55
33.11
28.86
23.50
17.21
10.60
4.33
-1.16
-5.84
-10.15
-14.82
-20.59
-27.83
-36.36
-45.41
-53.96
-61.18
-66.84
-71.40
-75.85
-81.25
-88.49
-98.15
-110.67
-126.46
-145.68
-167.67
-190.58
-211.27
-226.10
-232.12
-228.12
-214.96
-195.03
-171.22
-146.14
-121.90
-100.51
-84.24
-75.38
-75.53
-84.50
-99.80
-117.08
-131.37
-138.68
-137.12
-127.19
-111.16
-91.96
-72.06
-52.74
-34.16
-15.75
2.99
21.86
39.84
55.33
66.84
73.49
75.35
73.25
68.42
61.95
54.56
46.44
37.54
27.68
16.63
4.04
-10.53
-27.37
-46.18
-65.49
-82.61
-94.11
-96.89
-89.27
-71.55
-45.73
-14.45
19.98
56.06
92.72
128.56
161.42
188.51
207.40
216.89
217.65
211.84
202.35
191.85
182.23
174.40
168.52
164.29
161.19
158.69
156.23
153.34
149.66
144.86
138.62
130.58
120.51
108.30
94.09
78.23
61.24
43.61
25.69
7.61
-10.58
-28.88
-47.26
-65.67
-84.28
-103.68
-124.74
-148.10
-173.32
-198.21
-218.87
