1552684103.00
64.000000
-0.00
-0.00
-0.00
-0.00
-0.00
-0.00
-0.00
-0.00
-0.00
-0.00
0.00
0.01
0.01
-0.00
-0.03
-0.05
-0.05
0.00
0.13
0.36
0.66
1.01
1.37
1.72
2.06
2.40
2.79
3.24
3.80
4.42
5.06
5.66
6.20
6.68
7.15
7.68
8.31
9.14
10.09
11.04
11.88
12.56
13.14
13.76
14.65
15.96
17.91
20.32
22.90
25.38
27.58
29.57
31.68
34.32
37.81
42.54
48.15
54.10
59.83
64.97
69.58
74.14
79.34
85.71
93.76
103.00
112.62
121.73
129.77
136.75
143.30
150.75
157.77
166.64
177.95
191.79
206.97
220.57
228.25
225.36
208.53
176.87
132.76
80.05
23.07
-34.94
-92.44
-149.16
-205.23
-260.37
-313.74
-363.87
-409.83
-450.91
-486.50
-515.74
-537.23
-549.22
-549.96
-538.37
-514.21
-478.67
-433.88
-382.45
-327.02
-269.84
-212.63
-156.66
-102.95
-52.38
-5.91
35.58
71.42
101.35
125.51
144.39
158.72
169.19
176.43
180.84
182.70
182.23
179.72
175.50
169.97
163.56
156.59
149.31
141.86
134.32
126.71
119.09
111.51
104.05
96.77
89.73
82.96
76.48
70.29
64.40
58.83
53.59
48.69
44.12
39.90
36.01
32.44
29.20
26.28
23.66
21.36
19.36
17.66
16.25
15.13
14.27
13.66
13.28
13.12
13.17
13.39
13.79
14.34
15.02
15.83
16.76
17.79
18.92
20.16
21.51
22.95
24.49
26.10
27.70
29.23
30.57
31.55
31.99
31.71
30.55
28.38
25.15
20.89
15.65
9.65
3.15
-3.54
-10.07
-16.09
-21.33
-25.53
-28.53
-30.25
-30.71
-30.01
-28.29
-25.75
-22.59
-19.01
-15.21
-11.35
-7.55
-3.90
-0.50
2.58
5.32
7.71
9.77
11.55
13.12
14.57
16.01
17.47
18.99
20.65
22.49
24.58
26.98
29.73
32.90
36.55
40.56
44.85
49.35
54.02
58.82
63.77
68.85
74.14
79.75
85.47
91.24
97.02
102.82
108.64
114.54
120.56
126.76
133.24
139.65
145.74
151.26
155.93
159.40
161.22
160.77
157.10
151.93
145.80
139.05
131.91
124.55
117.08
109.64
102.33
95.32
88.79
82.53
76.45
70.51
64.70
59.05
53.62
48.47
43.70
39.46
35.61
32.05
28.78
25.79
23.08
20.70
18.65
16.97
15.68
14.59
13.57
12.50
11.33
10.05
8.67
7.23
5.79
4.41
3.03
1.62
0.19
-1.26
-2.68
-4.00
-5.18
-6.21
-7.11
-8.01
-9.03
-10.27
-11.73
-13.38
-15.08
-16.72
-18.25
-19.72
-21.31
-23.22
-25.59
-28.42
-31.51
-34.55
-37.30
-39.65
-41.82
-44.24
-47.47
-51.89
-57.61
-64.31
-71.49
-78.60
-85.39
-92.08
-99.25
-107.63
-117.75
-129.64
-142.76
-156.32
-169.51
-181.90
-193.63
-205.23
-217.58
-231.71
-248.64
-269.13
-293.07
-318.94
-343.46
-362.28
-371.20
-367.80
-352.44
-328.17
-299.53
-270.78
-244.59
-221.70
-201.47
-182.93
-165.52
-149.11
-133.73
-119.14
-104.86
-90.50
-76.16
-62.52
-50.57
-41.09
-34.27
-29.49
-25.66
-21.70
-17.13
-12.29
-8.24
-6.18
-6.89
-10.33
-15.57
-21.30
-26.43
-30.83
-35.50
-42.39
-53.56
-70.17
-91.65
-115.59
-138.26
-155.67
-164.84
-164.30
-154.41
-136.77
-113.51
-86.62
-57.38
-25.91
8.97
49.06
95.57
147.16
198.94
242.78
269.56
272.12
247.80
199.36
134.13
62.00
-6.97
-64.34
-104.59
-125.67
-128.95
-118.58
-100.12
-78.98
-59.07
-42.43
-29.53
-20.21
-14.34
-11.71
-11.84
-13.73
-16.17
-18.12
-19.11
-19.21
-18.53
-17.17
-14.86
-11.21
-5.83
1.47
10.65
21.32
32.80
44.11
54.19
62.29
68.15
72.14
74.89
77.06
78.89
80.23
80.77
80.44
79.71
79.45
80.52
83.27
87.27
91.35
94.19
94.78
92.90
89.11
84.44
79.92
76.27
73.75
72.26
71.68
71.94
73.10
75.18
77.98
80.98
83.54
85.09
85.42
84.75
83.61
82.51
81.61
80.57
78.69
75.32
70.22
63.66
56.32
48.97
42.23
36.56
32.27
29.63
28.67
28.98
29.70
29.65
27.79
23.72
17.89
11.38
5.37
0.58
-2.91
-5.44
-7.37
-8.84
-9.82
-10.38
-10.79
-11.58
-13.17
-15.74
-19.07
-22.80
-26.64
-30.50
-34.33
-37.99
-41.16
-43.41
-44.54
-44.83
-44.94
-45.68
-47.50
-50.31
-53.51
-56.28
-57.88
-57.85
-55.97
-52.20
-46.50
-38.84
-29.31
-18.27
-6.43
5.20
15.48
23.55
29.01
32.04
33.23
33.30
32.87
32.36
32.04
32.08
32.58
33.58
34.94
36.29
37.13
36.96
35.49
32.77
29.15
25.19
21.44
18.32
15.99
14.39
13.23
12.12
10.74
8.96
6.97
5.26
4.60
5.93
10.07
17.50
28.07
40.99
54.94
68.49
80.42
90.00
96.99
101.57
104.08
104.90
104.34
102.61
99.84
96.17
91.80
87.02
82.21
77.72
73.81
70.51
67.61
64.73
61.35
56.85
50.64
42.17
31.07
17.28
1.03
-17.13
-36.55
-56.49
-76.33
-95.47
-113.39
-129.50
-143.01
-152.97
-158.38
-158.50
-153.17
-143.00
-129.42
-114.31
-99.44
-86.11
-74.96
-66.18
-59.86
-56.09
-54.99
-56.51
-60.23
-65.46
-71.38
-77.42
-83.16
-88.35
-92.69
-95.88
-97.84
-98.79
-99.47
-100.82
-103.82
-109.12
-116.88
-126.83
-138.08
-149.13
-157.85
-161.81
-158.81
-147.75
-129.11
-105.08
-78.87
-53.74
-31.99
-14.49
-0.69
10.80
21.68
33.40
47.05
63.29
82.44
104.56
129.34
156.05
183.52
210.19
234.14
253.33
266.00
271.15
269.00
261.11
249.97
238.16
227.38
217.98
209.05
199.26
187.67
174.26
159.78
145.18
131.10
117.68
104.66
91.82
79.19
67.04
55.74
45.56
36.62
28.84
22.02
15.72
9.37
2.41
-5.54
-14.36
-23.32
-31.21
-36.69
-38.68
-36.70
-31.13
-23.09
-14.25
-6.44
-1.27
0.29
-1.72
-6.12
-10.93
-13.97
-13.79
-10.16
-4.13
2.57
8.25
11.95
13.50
13.24
11.49
8.40
3.99
-1.57
-7.76
-13.78
-18.81
-22.24
-23.90
-23.87
-22.40
-19.88
-16.85
-13.89
-11.61
-10.56
-11.06
-13.27
-17.18
-22.69
-29.55
-37.32
-45.26
-52.50
-58.31
-62.29
-64.55
-65.53
-65.72
-65.47
-64.79
-63.62
-61.99
-60.27
-59.13
-59.35
-61.51
-65.79
-71.93
-79.32
-87.17
-94.72
-101.39
-107.03
-111.93
-116.73
-122.18
-128.72
-136.14
-143.50
-149.34
-152.22
-151.21
-146.40
-138.86
-130.31
-122.56
-116.96
-114.06
-113.62
-114.82
-116.61
-117.97
-118.23
-117.07
-114.67
-111.56
-108.35
-105.42
-102.58
-98.81
-92.41
-81.48
-64.62
-41.47
-13.00
18.72
51.22
82.39
110.90
136.33
158.77
178.26
194.45
206.62
214.09
216.73
215.18
210.69
204.72
198.40
192.10
185.50
177.64
167.24
152.95
133.66
108.74
78.28
43.07
4.43
-36.27
-77.97
-120.00
-161.83
-202.50
-240.27
-272.60
-296.79
-310.90
-314.51
-309.02
-297.01
-281.26
-263.68
-244.83
-224.15
-200.82
-174.54
-145.86
-115.86
-85.47
-55.13
-24.96
4.60
32.21
55.67
72.71
81.95
83.64
79.50
71.97
63.28
54.82
47.20
40.67
35.50
32.00
30.32
30.14
30.59
30.50
28.89
25.26
19.74
12.99
5.88
-0.80
-6.61
-11.53
-16.01
-20.66
-26.01
-32.07
-38.23
-43.34
-46.03
-45.24
-40.54
-32.33
-21.62
-9.69
2.29
13.46
23.32
31.65
38.40
43.63
47.53
50.49
53.09
55.93
59.47
63.79
68.56
73.09
76.57
78.29
77.91
75.47
71.41
66.41
61.19
56.44
52.67
50.09
48.67
47.99
47.43
46.31
44.13
40.81
36.70
32.58
29.39
28.03
29.18
33.16
39.85
48.67
58.52
67.92
75.27
79.24
79.24
75.55
69.20
61.59
53.95
47.00
40.85
35.23
29.81
24.42
19.22
14.59
11.03
9.02
8.92
11.02
15.42
21.95
30.03
38.50
45.82
50.44
51.35
48.52
43.12
37.18
32.78
31.33
33.00
36.77
41.03
44.35
46.10
46.56
46.65
47.40
49.52
53.23
58.26
64.12
70.16
75.66
79.78
81.57
80.11
74.69
65.12
51.78
35.65
18.11
0.72
-15.08
-28.21
-38.05
-44.46
-47.64
-48.10
-46.50
-43.63
-40.39
-37.67
-36.21
-36.40
-38.23
-41.23
-44.78
-48.30
-51.57
-54.65
-57.74
-60.82
-63.38
-64.43
-62.75
-57.31
-47.70
-34.30
-18.21
-0.86
16.35
32.37
46.64
59.01
69.51
78.16
84.87
89.47
91.81
91.98
90.34
87.57
84.54
82.02
80.55
80.18
80.55
81.00
80.88
79.82
77.94
75.75
74.03
73.55
74.75
77.57
81.30
84.65
85.83
82.97
74.67
60.65
42.26
22.55
5.65
-4.34
-4.56
5.71
24.94
50.04
77.47
104.30
128.84
150.64
169.92
187.13
202.65
216.72
229.49
240.83
250.09
255.86
256.26
249.47
234.62
212.22
184.14
153.03
121.42
91.09
62.87
36.90
13.14
-8.32
-27.25
-43.52
-57.39
-69.56
-80.98
-92.41
-103.97
-114.94
-123.87
-129.12
-129.51
-124.69
-115.37
-102.95
-89.14
-75.38
-62.70
-51.70
-42.69
-35.84
-31.17
-28.47
-27.41
-27.49
-28.10
-28.72
-28.94
-28.56
-27.61
-26.29
-24.87
-23.64
-22.84
-22.62
-23.00
-23.92
-25.19
-26.61
-28.01
-29.28
-30.38
-31.36
-32.36
-33.59
-35.30
-37.61
-40.40
-43.13
-44.84
-44.41
-40.94
-34.19
-24.81
-14.13
-3.70
5.31
12.50
18.23
23.17
27.85
32.26
35.78
37.59
37.13
34.51
30.71
27.19
25.41
26.08
28.78
32.00
33.77
32.41
27.01
17.48
4.03
-13.41
-35.47
-62.75
-95.02
-130.34
-165.10
-194.80
-215.20
-223.19
-216.95
-195.59
-159.01
-108.40
-47.31
17.47
76.35
119.09
138.19
132.05
105.80
69.27
32.79
3.18
-17.93
-32.86
-44.60
-54.19
-59.90
-58.95
-50.20
-35.83
-20.66
-9.78
-5.95
-8.35
-13.54
-17.75
-18.91
-17.42
-15.29
-14.65
-16.36
-19.74
-23.04
-24.51
-23.32
-19.92
-15.77
-12.42
-10.84
-10.88
-11.42
-11.01
-8.59
-3.88
2.48
9.43
15.92
21.26
25.25
28.00
29.72
30.55
30.61
30.01
28.87
27.30
25.37
23.11
20.64
18.22
16.24
15.06
14.89
15.68
17.18
18.96
20.62
21.85
22.50
22.61
22.34
21.86
21.28
20.64
19.79
18.51
16.57
13.73
9.93
5.27
0.02
-5.37
-10.34
-14.37
-17.12
-18.66
-19.42
-20.01
-20.94
-22.37
-24.00
-25.20
-25.37
-24.19
-21.87
-18.99
-16.32
-14.55
-14.07
-14.99
-17.13
-20.08
-23.28
-26.14
-28.12
-28.89
-28.45
-27.16
-25.71
-24.93
-25.59
-28.20
-32.95
-39.75
-48.21
-57.69
-67.37
-76.35
-83.77
-89.02
-91.86
-92.48
-91.46
-89.53
-87.24
-84.89
-82.44
-79.64
-76.33
-72.56
-68.71
-65.35
-62.94
-61.69
-61.37
-61.45
-61.36
-60.80
-59.85
-58.91
-58.48
-58.84
-60.00
-61.54
-62.91
-63.46
-62.67
-60.12
-55.45
-48.43
-39.02
-27.48
-14.42
-0.75
12.47
24.25
33.91
41.15
45.98
48.58
49.22
48.18
45.75
42.24
38.01
33.37
28.62
23.99
19.77
16.23
13.64
12.01
11.04
10.15
8.62
5.94
1.90
-3.29
-9.25
-15.58
-22.08
-28.67
-35.34
-42.06
-48.66
-54.81
-59.92
-63.14
-63.33
-59.39
-50.57
-37.02
-19.93
-1.38
16.15
30.59
40.79
46.82
49.63
50.59
50.97
51.55
52.55
53.82
55.04
55.89
56.21
55.92
54.97
53.42
51.40
49.21
47.22
45.81
45.04
44.45
43.16
40.04
34.27
25.89
15.93
6.19
-1.55
-6.40
-8.81
-10.31
-12.93
-18.27
-26.98
-38.91
-53.51
-70.14
-88.01
-105.83
-121.75
-133.84
-140.86
-143.02
-141.80
-139.00
-135.46
-130.46
-122.17
-108.94
-90.64
-69.16
-47.71
-29.47
-16.34
-8.33
-4.01
-1.38
1.34
5.39
11.51
20.12
31.43
45.51
62.09
80.29
98.40
114.02
124.46
127.59
122.60
110.45
93.68
75.63
59.62
48.12
42.03
40.66
41.69
41.48
35.86
21.05
-4.87
-40.60
-80.94
-117.54
-140.72
-142.23
-117.89
-69.45
-4.81
63.62
122.22
160.26
172.99
162.85
138.00
109.04
84.98
70.58
65.57
65.95
66.34
62.22
51.18
32.91
8.83
-18.51
-45.85
-69.69
-87.05
-96.40
-98.23
-95.27
-91.81
-92.17
-99.07
-112.29
-128.50
-142.41
-148.74
-144.42
-129.88
-108.88
-87.06
-69.69
-59.76
-57.19
-59.29
-62.20
-62.58
-58.86
-51.54
-42.73
-35.20
-31.30
-32.33
-38.32
-48.18
-60.25
-72.73
-84.25
-93.97
-101.72
-107.80
-112.61
-116.45
-119.07
-119.69
-117.17
-110.41
-98.86
-82.84
-63.63
-43.28
-23.97
-7.46
5.50
15.38
23.76
32.69
43.91
58.22
75.07
92.67
108.72
121.06
128.30
130.13
127.07
120.20
110.68
99.54
87.50
75.05
62.53
50.21
38.42
27.48
17.76
9.60
3.36
-0.76
-2.75
-2.91
-1.90
-0.54
0.39
0.47
-0.21
-1.14
-1.79
-1.89
-1.90
-2.83
-5.82
-11.57
-19.85
-29.33
-37.93
-43.39
-43.94
-38.60
-27.36
-11.13
8.36
28.80
47.70
62.99
73.67
80.02
83.39
85.52
87.69
90.27
92.85
94.75
95.59
95.47
94.77
93.69
91.92
88.88
84.05
77.46
69.81
62.16
55.58
50.73
47.70
46.19
45.69
45.57
45.23
44.13
41.86
38.28
33.47
27.82
21.84
16.13
11.32
8.14
7.40
9.89
16.21
26.38
39.64
54.31
67.97
77.81
81.20
76.24
62.27
40.08
11.81
-19.53
-50.66
-78.58
-100.75
-115.21
-120.61
-116.60
-104.25
-86.25
-66.53
-49.12
-36.91
-30.80
-29.68
-31.33
-33.58
-35.23
-36.20
-36.97
-37.92
-38.85
-39.11
-38.14
-35.85
-32.90
-30.28
-28.99
-29.55
-31.91
-35.41
-39.08
-41.85
-42.80
-41.29
-36.99
-29.87
-20.25
-8.71
3.96
16.87
29.22
40.28
49.58
56.80
61.87
64.93
66.32
66.52
66.01
65.11
63.89
62.18
59.68
56.23
51.96
47.31
42.99
39.58
37.41
36.37
36.05
35.87
35.33
34.13
32.23
29.77
26.85
23.43
19.17
13.53
5.98
-3.71
-15.08
-26.91
-37.37
-44.40
-46.35
-42.43
-32.93
-19.06
-2.66
14.20
29.57
42.00
50.65
55.35
56.46
54.59
50.35
44.24
36.61
27.85
18.57
9.54
1.54
-4.99
-10.21
-14.75
-19.51
-25.15
-31.82
-39.09
-46.07
-51.82
-55.56
-56.92
-55.85
-52.62
-47.75
-41.95
-36.12
-31.13
-27.55
-25.30
-23.66
-21.42
-17.37
-10.78
-1.71
9.08
20.39
31.08
40.36
47.86
53.53
57.50
59.91
60.88
60.52
58.91
56.17
52.49
48.24
43.90
40.07
37.24
35.62
35.05
35.06
35.06
34.56
33.36
31.48
29.05
26.15
22.77
18.77
14.03
8.54
2.31
-4.68
-12.52
-21.43
-31.49
-42.41
-53.30
-62.73
-69.02
-70.82
-67.64
-60.01
-49.40
-37.67
-26.56
-17.15
-9.85
-4.47
-0.59
2.28
4.54
6.51
8.51
10.85
13.70
16.98
20.33
23.20
25.02
25.47
24.56
22.64
20.24
17.82
15.62
13.58
11.44
8.85
5.57
1.45
-3.44
-8.89
-14.60
-20.26
-25.67
-30.83
-35.78
-40.42
-44.40
-47.11
-47.78
-45.81
-40.95
-33.42
-23.86
-13.14
-2.15
8.36
17.85
25.93
32.33
36.90
39.61
40.58
40.15
38.82
37.21
35.86
35.07
34.81
34.82
34.71
34.30
33.64
33.06
32.86
33.11
33.47
33.30
31.92
28.93
24.39
18.80
12.92
7.40
2.55
-1.83
-6.27
-11.54
-18.20
-26.42
-35.70
-44.89
-52.45
-56.80
-56.89
-52.50
-44.42
-34.16
-23.50
-13.92
-6.29
-0.77
2.91
5.04
5.63
4.41
1.10
-4.22
-10.79
-17.40
-22.74
-25.97
-27.27
-27.68
-28.69
-31.58
-36.80
-43.82
-51.32
-57.61
-61.05
-60.19
-54.06
-42.60
-27.31
-11.65
-0.52
1.23
-8.95
-29.81
-56.46
-82.25
-101.77
-112.85
-116.87
-117.04
-116.14
-115.01
-112.68
-107.39
-97.62
-82.38
-61.02
-33.23
0.17
36.25
69.76
94.19
103.90
96.24
72.31
36.52
-4.85
-45.09
-77.91
-98.36
-103.59
-93.94
-73.18
-47.43
-22.77
-2.40
14.36
31.05
51.15
75.42
100.46
119.96
127.38
118.97
95.36
61.30
23.61
-11.32
-39.38
-58.99
-70.16
-73.17
-68.21
-55.98
-38.72
-20.60
-6.72
-0.85
-3.33
-10.17
-14.54
-9.96
6.63
33.28
64.10
91.93
111.32
120.21
120.01
114.15
106.40
99.63
95.26
93.58
94.43
97.62
102.98
110.11
117.94
124.72
128.43
127.44
121.13
110.03
95.66
79.84
64.15
49.63
36.71
25.46
15.74
7.39
0.18
-6.28
-12.56
-19.40
-27.40
-36.85
-47.44
-58.23
-67.78
-74.52
-77.10
-74.83
-67.94
-57.43
-44.91
-32.16
-20.76
-11.79
-5.73
-2.43
-1.27
-1.34
-1.67
-1.48
-0.39
1.52
3.70
5.35
5.73
4.60
2.42
0.35
-0.22
1.80
6.59
13.20
19.90
24.82
26.78
25.71
22.70
19.42
17.33
17.02
17.81
18.13
16.05
10.18
0.28
-12.59
-26.26
-38.18
-46.14
-48.82
-46.14
-39.15
-29.86
-20.78
-14.41
-12.61
-16.05
-23.94
-34.26
-44.55
-53.01
-59.12
-63.86
-68.82
-75.22
-83.16
-91.57
-98.90
-104.03
-106.69
-107.33
-106.50
-104.40
-100.94
-96.25
-91.13
-87.07
-85.62
-87.50
-92.06
-97.40
-101.25
-102.17
-100.19
-96.97
-95.12
-97.09
-104.13
-115.67
-129.32
-141.43
-148.11
-146.22
-134.08
-111.68
-80.53
-43.16
-2.81
36.92
72.43
100.67
119.77
129.44
130.96
126.62
118.84
109.48
99.56
89.51
79.67
70.46
62.31
55.20
48.44
40.87
31.47
20.00
7.28
-5.03
-15.05
-21.40
-23.68
-22.37
-18.60
-13.75
-9.13
-5.86
-4.82
-6.46
-10.61
-16.40
-22.27
-26.35
-26.99
-23.23
-15.03
-3.16
11.18
26.69
42.30
57.15
70.57
81.99
90.97
97.31
101.08
102.66
102.65
101.68
100.33
99.01
97.91
97.09
96.47
95.89
95.23
94.47
93.70
93.10
92.80
92.71
92.52
91.68
89.66
86.14
81.19
75.30
69.15
63.33
57.97
52.60
46.39
38.57
29.01
18.50
8.68
1.46
-1.57
0.19
6.28
15.42
25.97
36.40
45.56
52.73
57.60
60.16
60.66
59.49
57.11
53.90
50.16
46.16
42.21
38.66
35.94
34.36
33.93
34.24
34.58
34.19
32.51
29.45
25.29
20.47
15.20
9.23
1.98
-7.18
-18.40
-31.18
-44.47
-57.07
-68.27
-78.13
-87.50
-97.54
-109.14
-122.40
-136.43
-149.58
-159.92
-165.74
-165.97
-160.30
-149.14
-133.51
-114.81
-94.71
-75.01
-57.24
-42.29
-29.91
-18.67
-6.41
8.81
27.74
49.60
72.40
94.12
113.55
130.81
146.73
162.02
176.48
188.96
197.94
202.39
202.40
199.03
193.92
188.61
184.26
181.37
179.85
179.07
177.89
175.05
169.42
160.34
147.94
133.00
116.86
101.04
87.08
76.01
68.31
63.63
60.96
58.99
56.63
53.35
49.17
44.29
38.63
31.54
22.01
9.10
-7.48
-27.14
-48.57
-70.09
-90.27
-108.19
-123.57
-136.59
-147.56
-156.63
-163.63
-168.11
-169.48
-167.32
-161.53
-152.50
-140.96
-127.77
-113.74
-99.49
-85.48
-72.07
-59.71
-48.85
-39.93
-33.13
-28.29
-24.91
-22.27
-19.71
-16.71
-13.13
-9.09
-4.94
-1.14
1.89
3.90
4.91
5.27
5.59
6.58
8.82
12.59
17.69
23.52
29.19
33.72
36.23
36.13
33.22
27.79
20.48
12.14
3.60
-4.61
-12.30
-19.68
-27.18
-35.28
-44.27
-54.14
-64.46
-74.51
-83.39
-90.36
-95.11
-97.93
-99.62
-101.18
-103.30
-105.96
-108.36
-109.24
-107.43
-102.35
-94.32
-84.28
-73.42
-62.71
-52.63
-43.26
-34.42
-25.97
-17.83
-10.01
-2.43
5.01
12.46
19.97
27.41
34.46
40.75
46.03
50.32
54.00
57.66
61.80
66.68
72.02
77.11
81.03
83.05
82.83
80.53
76.69
71.99
67.03
62.16
57.53
53.11
48.77
44.32
39.54
34.14
27.92
20.93
13.53
6.46
0.64
-3.07
-4.10
-2.47
1.31
6.31
11.43
15.64
18.16
18.56
16.83
13.41
9.05
4.75
1.48
-0.05
0.40
2.61
5.98
9.73
13.18
15.92
17.82
19.03
19.79
20.35
20.86
21.37
21.85
22.16
22.06
21.22
19.31
16.03
11.28
5.24
-1.65
-8.82
-15.74
-22.08
-27.79
-33.08
-38.36
-44.05
-50.45
-57.50
-64.73
-71.16
-75.62
-77.01
-74.81
-69.27
-61.43
-52.80
-44.78
-38.26
-33.40
-29.75
-26.63
-23.53
-20.21
-16.70
-13.17
-9.70
-6.22
-2.65
0.94
4.27
6.89
8.41
8.76
8.26
7.54
7.34
8.21
10.31
13.37
16.84
20.00
22.19
22.99
22.26
20.18
17.14
13.59
9.91
6.23
2.49
-1.48
-5.72
-9.98
-13.73
-16.19
-16.64
-14.64
-10.29
-4.06
3.19
10.56
17.29
22.97
27.47
30.94
33.56
35.44
36.56
36.81
36.07
34.37
31.93
29.14
26.49
24.36
22.92
22.09
21.55
20.85
19.53
17.24
13.83
9.36
4.05
-1.76
-7.70
-13.46
-18.78
-23.54
-27.77
-31.59
-35.17
-38.65
-42.05
-45.26
-48.14
-50.52
-52.37
-53.80
-55.07
-56.47
-58.26
-60.49
-62.96
-65.20
-66.50
-66.03
-63.09
-57.23
-48.46
-37.31
-24.76
-12.04
-0.38
9.39
16.95
22.55
26.74
30.06
32.83
34.98
36.25
36.37
35.32
33.31
30.75
28.04
25.39
22.88
20.40
17.83
15.07
12.03
8.69
5.08
1.35
-2.16
-4.92
-6.39
-6.22
-4.40
-1.38
2.02
4.86
6.39
6.20
4.32
1.04
-3.27
-8.30
-13.93
-20.27
-27.52
-35.84
-45.17
-55.02
-64.46
-72.19
-76.88
-77.53
-73.87
-66.38
-56.17
-44.67
-33.15
-22.51
-13.16
-5.10
1.90
8.11
13.70
18.67
22.90
26.29
28.82
30.69
32.26
33.99
36.27
39.31
43.10
47.41
51.78
55.65
58.47
59.87
59.91
59.03
58.06
57.94
59.38
62.53
66.93
71.47
74.79
75.51
72.66
65.85
55.40
42.22
27.64
13.12
-0.12
-11.37
-20.57
-28.22
-35.13
-41.91
-48.63
-54.72
-59.13
-60.80
-59.13
-54.18
-46.69
-37.70
-28.20
-18.99
-10.54
-3.13
3.09
8.08
11.92
14.83
17.04
18.74
19.98
20.65
20.58
19.60
17.66
14.86
11.47
7.88
4.58
1.94
0.15
-0.95
-1.90
-3.47
-6.30
-10.73
-16.54
-23.11
-29.68
-35.66
-40.80
-45.24
-49.28
-53.17
-57.02
-60.77
-64.32
-67.58
-70.42
-72.51
-73.28
-71.93
-67.75
-60.34
-49.91
-37.30
-23.75
-10.53
1.42
11.59
19.99
26.75
32.03
35.89
38.28
39.24
39.01
38.03
36.80
35.79
35.16
34.81
34.41
33.61
32.22
30.27
27.96
25.46
22.85
19.98
16.63
12.67
8.15
3.36
-1.32
-5.62
-9.48
-13.11
-16.89
-21.30
-26.69
-33.18
-40.43
-47.60
-53.39
-56.38
-55.47
-50.30
-41.45
-30.25
-18.37
-7.28
2.12
9.54
15.05
18.90
21.26
22.17
21.66
19.88
17.20
14.14
11.23
8.86
7.15
5.90
4.72
3.19
1.07
-1.61
-4.63
-7.58
-10.20
-12.39
-14.31
-16.27
-18.61
-21.52
-25.01
-28.89
-32.85
-36.56
-39.75
-42.35
-44.44
-46.30
-48.27
-50.73
-53.90
-57.79
-62.05
-65.96
-68.51
-68.62
-65.41
-58.54
-48.36
-35.86
-22.42
-9.44
2.05
11.57
19.16
25.18
30.04
34.07
37.44
40.12
42.03
43.11
43.39
43.04
42.36
41.65
41.12
40.79
40.52
40.10
39.34
38.23
36.87
35.42
33.99
32.56
31.06
29.44
27.71
25.99
24.39
22.95
21.59
20.23
18.78
17.23
15.66
14.14
12.67
11.17
9.43
7.31
4.71
1.76
-1.33
-4.27
-6.82
-8.90
-10.66
-12.33
-14.26
-16.66
-19.53
-22.68
-25.81
-28.61
-30.95
-32.94
-34.85
-37.12
-40.23
-44.55
-50.22
-56.86
-63.49
-68.62
-70.59
-68.12
-60.84
-49.44
-35.46
-20.78
-6.97
5.05
15.00
23.12
29.70
34.98
39.12
42.24
44.48
46.04
47.09
47.77
48.17
48.29
48.16
47.82
47.33
46.78
46.24
45.68
45.01
44.07
42.71
40.88
38.64
36.11
33.44
30.74
28.08
25.58
23.43
21.83
20.90
20.56
20.53
20.41
19.78
18.34
16.00
12.87
9.19
5.29
1.43
-2.23
-5.70
-9.18
-12.91
-17.10
-21.78
-26.75
-31.58
-35.86
-39.29
-41.89
-43.93
-45.91
-48.43
-51.87
-56.36
-61.53
-66.49
-69.95
-70.53
-67.17
-59.51
-48.17
-34.50
-20.27
-7.05
4.19
13.08
19.77
24.60
27.91
29.94
30.89
31.06
30.74
30.25
29.65
28.85
27.64
25.85
23.54
20.98
18.59
16.77
15.75
15.48
15.68
15.97
15.99
15.55
14.62
13.32
11.76
10.02
8.05
5.76
3.00
-0.29
-4.05
-8.11
-12.17
-15.89
-18.97
-21.29
-23.00
-24.51
-26.49
-29.58
-34.21
-40.33
-47.30
-53.97
-58.94
-60.99
-59.47
-54.49
-46.85
-37.73
-28.27
-19.26
-11.08
-3.79
2.61
8.01
12.24
15.18
16.96
17.92
18.48
18.97
19.43
19.66
19.36
18.33
16.67
14.71
12.88
11.48
10.58
10.02
9.53
8.96
8.22
7.31
6.14
4.48
2.07
-1.25
-5.38
-9.89
-14.26
-18.07
-21.23
-24.02
-26.90
-30.33
-34.51
-39.20
-43.64
-46.74
-47.38
-44.75
-38.70
-29.85
-19.38
-8.62
1.32
9.82
16.69
21.99
25.76
28.03
28.84
28.37
27.00
25.24
23.56
22.22
21.30
20.69
20.21
19.70
19.06
18.26
17.28
16.15
14.92
13.60
12.22
10.73
9.05
7.10
4.79
2.12
-0.93
-4.31
-7.96
-11.79
-15.62
-19.21
-22.38
-25.02
-27.26
-29.51
-32.36
-36.33
-41.59
-47.70
-53.56
-57.62
-58.35
-54.75
-46.77
-35.43
-22.52
-10.03
0.56
8.60
14.35
18.61
22.19
25.57
28.68
31.24
32.89
33.64
33.80
33.91
34.39
35.36
36.64
37.82
38.56
38.69
38.30
37.67
37.10
36.80
36.81
37.00
37.19
37.17
36.78
35.98
34.79
33.39
31.94
30.62
29.51
28.65
27.96
27.29
26.45
25.26
23.55
21.27
18.51
15.50
12.55
9.87
7.39
4.83
1.70
-2.42
-7.66
-13.79
-20.28
-26.55
-32.18
-37.06
-41.42
-45.70
-50.39
-55.81
-62.07
-68.78
-75.08
-79.61
-80.88
-77.73
-69.83
-57.84
-43.29
-28.04
-13.70
-1.31
8.79
16.64
22.51
26.63
29.26
30.72
31.41
31.74
31.99
32.26
32.45
32.48
32.25
31.80
31.28
30.86
30.65
30.65
30.77
30.75
30.35
29.35
27.68
25.40
22.73
19.90
17.12
14.48
11.99
9.65
7.44
5.41
3.56
1.82
0.03
-2.01
-4.45
-7.28
-10.35
-13.45
-16.37
-19.07
-21.65
-24.33
-27.36
-31.03
-35.60
-41.20
-47.73
-54.76
-61.34
-66.21
-68.01
-65.80
-59.35
-49.36
-37.21
-24.58
-12.84
-2.76
5.58
12.48
18.30
23.20
27.05
29.66
30.89
30.88
29.97
28.58
27.06
25.60
24.28
23.05
21.83
20.45
18.77
16.61
13.92
10.80
7.47
4.23
1.33
-1.16
-3.35
-5.51
-7.94
-10.89
-14.40
-18.34
-22.40
-26.17
-29.31
-31.68
-33.47
-35.16
-37.45
-40.96
-45.91
-51.92
-57.94
-62.47
-64.01
-61.54
-54.89
-44.80
-32.67
-20.09
-8.34
1.84
10.24
17.00
22.22
25.98
28.32
29.42
29.72
29.75
30.05
30.79
31.79
32.55
32.56
31.51
29.46
26.80
24.02
21.62
19.83
18.67
17.90
17.19
16.11
14.34
11.70
8.19
4.09
-0.27
-4.46
-8.26
-11.60
-14.70
-17.93
-21.76
-26.60
-32.67
-39.90
-47.72
-55.16
-60.87
-63.53
-62.26
-56.86
-48.11
-37.36
-26.21
-15.89
-6.99
0.53
7.05
12.93
18.29
22.97
26.75
29.53
31.43
32.74
33.79
34.73
35.50
35.92
35.73
34.78
33.11
30.94
28.56
26.28
24.27
22.51
20.83
18.98
16.77
14.08
10.88
7.17
2.98
-1.62
-6.45
-11.25
-15.73
-19.69
-23.20
-26.60
-30.43
-35.22
-41.16
-47.90
-54.51
-59.71
-62.17
-61.01
-56.03
-47.80
-37.41
-26.19
-15.28
-5.45
2.95
9.95
15.75
20.60
24.68
28.05
30.71
32.68
34.04
35.07
36.04
37.17
38.48
39.81
40.94
41.80
42.54
43.43
44.67
46.14
47.35
47.70
46.76
44.57
41.63
38.65
36.20
34.52
33.47
32.72
31.95
30.98
29.78
28.36
26.68
24.72
22.43
19.88
17.22
14.64
12.34
10.40
8.69
6.91
4.72
1.89
-1.55
-5.32
-9.02
-12.43
-15.61
-18.98
-23.12
-28.59
-35.67
-44.18
-53.38
-61.98
-68.36
-70.95
-68.80
-61.92
-51.38
-38.93
-26.39
-15.06
-5.40
2.75
9.88
16.34
22.17
27.21
31.32
34.48
36.82
38.46
39.57
40.26
40.68
40.97
41.24
41.53
41.79
41.86
41.63
41.02
40.06
38.77
37.17
35.24
32.99
30.52
28.03
25.72
23.80
22.26
20.91
19.40
17.35
14.53
10.92
6.77
2.50
-1.44
-4.78
-7.46
-9.74
-12.04
-14.75
-18.05
-21.80
-25.66
-29.26
-32.42
-35.22
-38.09
-41.56
-46.22
-52.31
-59.61
-67.32
-74.10
-78.44
-79.02
-75.24
-67.40
-56.65
-44.52
-32.52
-21.70
-12.55
-5.16
0.56
4.73
7.53
9.19
10.15
10.90
11.86
13.19
14.72
16.11
17.02
17.38
17.40
17.50
18.15
19.55
21.68
24.27
26.95
29.35
31.15
32.07
31.95
30.76
28.68
26.17
23.79
22.03
21.14
21.00
21.10
20.81
19.63
17.36
14.33
11.16
8.52
6.85
6.12
5.79
5.05
3.08
-0.74
-6.53
-13.97
-22.32
-30.55
-37.48
-42.01
-43.34
-41.19
-35.95
-28.51
-20.10
-11.93
-4.79
0.96
5.38
8.78
11.43
13.47
14.93
15.72
15.81
15.25
14.23
13.00
11.88
11.08
10.65
10.50
10.36
9.98
9.22
8.03
6.39
4.28
1.64
-1.57
-5.25
-9.21
-13.16
-16.89
-20.36
-23.69
-27.00
-30.30
-33.31
-35.59
-36.73
-36.46
-34.86
-32.32
-29.47
-27.10
-26.03
-27.00
-30.40
-36.06
-43.02
-49.62
-53.91
-54.24
-49.99
-41.73
-31.12
-20.25
-10.79
-3.48
1.96
6.44
10.85
15.63
20.52
24.85
27.98
29.69
30.41
31.05
32.53
35.38
39.39
43.72
47.26
49.13
49.04
47.29
44.59
41.62
38.73
35.89
32.82
29.23
24.95
20.07
14.82
9.51
4.43
-0.24
-4.37
-7.99
-11.19
-14.15
-17.15
-20.54
-24.75
-30.05
-36.33
-42.96
-48.75
-52.28
-52.30
-48.31
-40.72
-30.75
-19.99
-9.77
-0.88
6.51
12.59
17.63
21.75
24.94
27.22
28.66
29.49
29.97
30.31
30.54
30.62
30.44
29.95
29.14
28.07
26.83
25.52
24.22
22.94
21.58
19.89
17.55
14.27
9.94
4.74
-0.86
-6.25
-10.96
-14.79
-17.90
-20.71
-23.73
-27.42
-32.04
-37.56
-43.65
-49.60
-54.46
-57.14
-56.79
-52.99
-46.06
-36.85
-26.52
-16.11
-6.30
2.59
10.42
17.04
22.23
25.84
27.85
28.55
28.44
28.02
27.59
27.18
26.60
25.66
24.26
22.55
20.80
19.34
18.33
17.76
17.35
16.68
15.29
12.88
9.40
5.16
0.64
-3.54
-6.99
-9.58
-11.57
-13.53
-16.16
-20.04
-25.43
-32.15
-39.52
-46.45
-51.72
-54.32
-53.63
-49.60
-42.71
-33.79
-23.75
-13.41
-3.44
5.69
13.57
19.97
24.71
27.85
29.61
30.37
30.52
30.35
30.02
29.54
28.84
27.87
26.64
25.27
23.93
22.85
22.20
22.06
22.22
22.24
21.43
19.11
14.88
8.91
1.91
-4.99
-10.67
-14.56
-16.77
-18.10
-19.65
-22.40
-26.82
-32.82
-39.83
-47.02
-53.48
-58.33
-60.72
-59.99
-55.82
-48.38
-38.39
-27.03
-15.58
-5.20
3.37
9.84
14.27
16.91
18.10
18.18
17.43
16.22
14.94
14.07
14.09
15.35
17.98
21.72
26.03
30.27
33.99
36.98
39.30
41.04
42.15
42.45
41.73
40.05
37.76
35.42
33.44
31.76
29.75
26.37
20.67
12.17
0.99
-12.01
-25.53
-38.03
-48.04
-54.35
-56.31
-53.91
-47.79
-39.02
-28.85
-18.37
-8.35
0.83
9.08
16.47
23.08
28.89
33.82
37.76
40.62
42.52
43.69
44.44
45.08
45.66
46.03
45.84
44.75
42.60
39.54
35.87
31.86
27.56
22.71
17.03
10.40
3.20
-3.81
-9.74
-14.01
-16.61
-18.18
-19.77
-22.35
-26.57
-32.44
-39.41
-46.47
-52.46
-56.21
-56.83
-53.89
-47.47
-38.31
-27.52
-16.43
-6.23
2.28
8.78
13.41
16.52
18.51
19.68
20.27
20.46
20.58
20.92
21.71
22.96
24.42
25.66
26.28
26.15
25.39
24.27
23.05
21.71
19.97
17.47
13.96
9.57
4.80
0.35
-3.17
-5.50
-6.89
-7.97
-9.51
-12.19
-16.42
-22.25
-29.42
-37.24
-44.69
-50.45
-53.27
-52.32
-47.54
-39.69
-30.08
-20.13
-10.91
-3.00
3.37
8.16
11.34
12.93
13.16
12.55
11.82
11.62
12.27
13.67
15.38
16.86
17.76
18.08
18.11
18.32
19.13
20.59
22.35
23.60
23.42
21.12
16.58
10.42
3.72
-2.36
-7.07
-10.37
-12.91
-15.71
-19.67
-25.23
-32.07
-39.25
-45.36
-48.95
-48.90
-44.77
-36.92
-26.40
-14.75
-3.47
6.27
13.83
19.07
22.25
23.82
24.27
24.19
24.13
24.65
26.08
28.38
31.12
33.55
34.93
34.84
33.38
31.13
28.88
27.17
26.04
25.01
23.28
20.21
15.56
9.60
2.90
-3.94
-10.45
-16.36
-21.59
-26.20
-30.41
-34.64
-39.26
-44.37
-49.51
-53.54
-55.05
-52.91
-46.86
-37.68
-26.89
-16.17
-6.68
1.17
7.60
12.99
17.51
20.97
23.00
23.32
22.04
19.68
16.98
14.68
13.16
12.45
12.20
11.98
11.37
10.17
8.36
6.09
3.50
0.77
-1.95
-4.55
-6.93
-9.09
-11.12
-13.27
-15.91
-19.43
-24.11
-29.82
-35.93
-41.36
-44.79
-45.08
-41.66
-34.73
-25.22
-14.46
-3.77
5.80
13.65
19.56
23.61
25.97
26.87
26.56
25.25
23.17
20.52
17.54
14.50
11.67
9.27
7.48
6.27
5.52
4.98
4.42
3.63
2.57
1.34
0.09
-1.02
-1.96
-2.93
-4.29
-6.53
-10.12
-15.30
-21.87
-29.16
-36.00
-41.01
-43.00
-41.29
-35.99
-27.86
-18.05
-7.74
2.17
11.08
18.59
24.42
28.38
30.36
30.52
29.22
27.01
24.36
21.65
19.04
16.56
14.21
12.01
10.04
8.38
7.01
5.80
4.48
2.74
0.32
-2.82
-6.58
-10.60
-14.58
-18.24
-21.58
-24.82
-28.37
-32.69
-38.01
-44.11
-50.18
-54.98
-57.09
-55.47
-49.86
-40.91
-29.95
-18.52
-7.83
1.52
9.48
16.24
21.93
26.47
29.66
31.38
31.85
31.52
30.98
30.63
30.58
30.57
30.22
29.21
27.51
25.44
23.46
22.04
21.36
21.17
20.90
19.79
17.29
13.26
8.13
2.72
-2.09
-5.72
-8.18
-10.06
-12.35
-16.05
-21.68
-29.03
-37.10
-44.31
-49.01
-49.94
-46.61
-39.41
-29.44
-18.07
-6.58
4.16
13.71
21.92
28.75
34.16
38.06
40.34
40.99
40.12
37.94
34.83
31.16
27.25
23.32
19.40
15.48
11.63
8.07
5.15
3.29
2.68
3.25
4.57
5.92
6.58
6.10
4.39
1.74
-1.28
-4.21
-6.82
-9.19
-11.63
-14.47
-17.92
-22.06
-26.80
-32.01
-37.40
-42.37
-46.03
-47.29
-45.23
-39.47
-30.45
-19.29
-7.43
3.78
13.46
21.30
27.35
31.80
34.84
36.52
37.01
36.60
35.72
34.86
34.46
34.63
35.24
35.84
35.91
35.10
33.38
31.10
28.80
26.97
25.90
25.45
25.19
24.55
23.08
20.59
17.22
13.30
9.21
5.28
1.68
-1.59
-4.67
-7.82
-11.40
-15.78
-21.16
-27.41
-33.89
-39.49
-42.86
-42.93
-39.24
-32.18
-22.81
-12.47
-2.36
6.77
14.53
20.76
25.26
27.83
28.37
27.12
24.78
22.29
20.59
20.15
20.91
22.21
23.19
23.21
22.05
20.01
17.65
15.45
13.61
11.90
9.87
7.10
3.51
-0.66
-4.89
-8.73
-11.97
-14.80
-17.64
-20.93
-24.89
-29.52
-34.64
-40.00
-45.23
-49.82
-52.96
-53.72
-51.22
-45.06
-35.56
-23.74
-11.00
1.22
11.85
20.36
26.61
30.77
33.07
33.76
33.05
31.22
28.62
25.59
22.47
19.46
16.59
13.75
10.88
8.02
5.44
3.44
2.21
1.65
1.29
0.46
-1.37
-4.36
-8.21
-12.26
-15.93
-18.93
-21.48
-24.23
-27.88
-32.77
-38.60
-44.36
-48.60
-49.98
-47.71
-41.82
-33.14
-22.93
-12.42
-2.49
6.41
14.11
20.44
25.17
28.03
28.85
27.80
25.32
22.05
18.58
15.27
12.25
9.50
7.03
4.90
3.22
2.04
1.25
0.61
-0.17
-1.25
-2.72
-4.48
-6.42
-8.44
-10.54
-12.86
-15.69
-19.45
-24.46
-30.72
-37.66
-44.07
-48.40
-49.30
-46.15
-39.29
-29.90
-19.49
-9.34
-0.21
7.63
14.14
19.20
22.60
24.05
23.54
21.36
18.11
14.51
11.15
8.38
6.32
4.84
3.73
2.81
1.92
0.99
0.03
-0.96
-2.03
-3.34
-5.04
-7.26
-9.96
-13.02
-16.31
-19.87
-24.03
-29.14
-35.34
-42.15
-48.49
-52.77
-53.57
-50.15
-42.69
-32.33
-20.64
-9.13
1.20
9.86
16.83
22.21
26.00
28.18
28.66
27.61
25.43
22.76
20.22
18.32
17.19
16.67
16.40
15.93
15.01
13.52
11.49
9.07
6.39
3.56
0.61
-2.46
-5.68
-9.12
-12.85
-17.01
-21.79
-27.34
-33.70
-40.49
-46.89
-51.61
-53.31
-51.03
-44.64
-34.95
-23.45
-11.79
-1.32
7.33
14.11
19.32
23.33
26.32
28.31
29.31
29.42
28.95
28.28
27.72
27.42
27.25
27.01
26.43
25.45
24.09
22.47
20.67
18.56
15.93
12.56
8.36
3.48
-1.73
-6.90
-11.83
-16.57
-21.44
-26.84
-32.97
-39.69
-46.36
-51.94
-55.23
-55.29
-51.74
-44.94
-35.89
-25.85
-15.96
-6.94
0.93
7.66
13.28
17.72
20.81
22.49
22.94
22.66
22.28
22.32
22.98
24.14
25.42
26.44
26.95
26.91
26.43
25.65
24.57
23.02
20.78
17.66
13.73
9.29
4.90
1.04
-2.00
-4.36
-6.57
-9.36
-13.42
-19.04
-25.92
-33.14
-39.37
-43.15
-43.41
-39.76
-32.63
-23.05
-12.34
-1.68
8.15
16.79
24.12
30.02
34.31
36.79
37.49
36.74
35.22
33.67
32.66
32.31
32.33
32.16
31.29
29.57
27.28
25.00
23.34
22.57
22.49
22.46
21.71
19.71
16.30
11.83
6.86
1.96
-2.51
-6.49
-10.17
-13.81
-17.68
-22.07
-27.14
-32.99
-39.47
-46.09
-51.96
-56.04
-57.29
-55.10
-49.45
-40.88
-30.39
-19.07
-7.97
2.15
10.72
17.44
22.17
24.96
26.09
25.99
25.20
24.29
23.67
23.55
23.90
24.45
24.94
25.14
25.03
24.70
24.27
23.72
22.86
21.42
19.22
16.33
13.05
9.80
6.95
4.65
2.75
0.96
-1.16
-3.94
-7.68
-12.49
-18.37
-25.08
-32.05
-38.38
-42.97
-44.87
-43.54
-39.14
-32.39
-24.34
-15.98
-7.96
-0.54
6.26
12.43
17.73
21.81
24.39
25.46
25.34
24.64
23.98
23.74
23.99
24.53
25.02
25.18
24.89
24.13
22.94
21.29
19.07
16.17
12.57
8.44
4.12
0.04
-3.52
-6.48
-9.11
-11.97
-15.72
-20.91
-27.73
-35.79
-44.06
-51.08
-55.40
-55.99
-52.59
-45.80
-36.79
-26.91
-17.23
-8.30
-0.25
7.05
13.62
19.33
23.88
27.02
28.73
29.21
28.91
28.27
27.64
27.10
26.57
25.84
24.83
23.55
22.15
20.80
19.55
18.29
16.70
14.37
10.96
6.41
0.91
-5.08
-10.97
-16.31
-20.85
-24.68
-28.14
-31.76
-36.07
-41.45
-47.96
-55.12
-61.95
-67.09
-69.17
-67.29
-61.33
-52.00
-40.61
-28.60
-17.10
-6.72
2.46
10.62
17.97
24.53
30.19
34.73
38.04
40.19
41.41
42.06
42.39
42.45
42.11
41.09
39.21
36.55
33.47
30.47
28.04
26.36
25.20
24.04
22.24
19.34
15.36
10.81
6.40
2.74
-0.09
-2.62
-5.74
-10.28
-16.66
-24.64
-33.53
-42.38
-50.17
-55.97
-58.95
-58.59
-54.81
-48.16
-39.68
-30.48
-21.31
-12.35
-3.32
6.02
15.38
23.86
30.23
33.56
33.76
31.74
29.12
27.55
28.21
31.34
36.20
41.23
44.43
43.93
38.62
28.76
16.17
3.91
-4.61
-6.84
-2.11
7.96
19.89
29.56
33.68
30.92
22.34
10.60
-1.16
-10.75
-17.65
-23.00
-28.75
-36.45
-46.27
-56.70
-65.12
-68.91
-66.58
-58.28
-45.56
-30.56
-15.14
-0.45
12.87
24.18
32.52
36.82
36.66
32.84
27.54
23.48
22.70
25.58
30.80
36.15
39.81
41.37
41.82
42.90
45.85
50.51
54.95
56.15
51.22
38.77
19.95
-1.51
-20.32
-31.57
-32.75
-25.04
-13.03
-2.88
0.22
-5.65
-18.47
-33.37
-44.92
-49.44
-46.13
-36.76
-24.26
-11.20
1.12
12.49
23.15
33.10
41.91
48.81
53.12
54.51
53.00
48.96
42.96
35.63
27.59
19.48
12.05
6.35
3.73
5.54
12.32
23.06
34.87
43.63
45.51
38.60
23.98
5.44
-12.00
-24.16
-29.17
-27.98
-23.50
-19.14
-17.44
-19.21
-23.60
-28.69
-32.40
-33.22
-30.70
-25.39
-18.51
-11.45
-5.21
-0.14
4.11
8.35
13.42
19.79
27.29
35.15
42.29
47.75
50.99
52.11
51.62
50.04
47.54
43.81
38.26
30.49
20.70
9.69
-1.42
-11.71
-20.84
-29.04
-36.91
-44.93
-53.33
-62.05
-71.00
-80.08
-89.14
-97.65
-104.44
-107.82
-106.08
-98.25
-84.58
-66.67
-47.04
-28.40
-12.92
-1.76
4.94
7.82
7.98
6.60
4.81
3.55
3.52
5.08
8.14
12.17
16.26
19.37
20.65
19.72
16.93
13.25
9.89
7.86
7.53
8.45
9.61
9.80
8.01
3.80
-2.57
-10.22
-17.73
-23.41
-25.69
-23.55
-16.92
-6.76
4.98
16.04
24.39
28.89
29.53
27.26
23.51
19.65
16.49
14.16
12.30
10.25
7.46
3.47
-2.10
-9.67
-19.54
-31.63
-44.89
-57.22
-65.88
-68.26
-63.05
-50.91
-34.40
-17.17
-2.85
5.95
8.12
3.84
-5.82
-19.12
-33.84
-47.32
-56.94
-60.62
-57.39
-47.59
-32.56
-14.16
5.76
25.41
43.01
56.77
65.14
67.41
64.08
56.91
48.34
40.69
35.45
32.92
32.34
32.22
30.78
26.26
17.15
2.57
-17.41
-41.51
-67.25
-91.35
-110.65
-123.10
-128.59
-129.06
-127.99
-129.07
-134.71
-144.88
-156.87
-166.10
-167.88
-159.24
-140.22
-114.00
-85.88
-61.53
-45.21
-38.65
-40.92
-49.04
-58.98
-66.64
-68.59
-62.65
-48.38
-27.21
-2.29
22.18
42.02
54.19
57.61
53.47
44.79
35.49
29.19
28.21
32.94
41.96
52.59
61.82
67.15
67.15
61.74
52.14
40.75
30.74
25.40
27.22
36.94
53.18
72.67
91.40
105.87
114.17
116.31
113.83
109.09
104.46
101.77
102.05
105.47
111.41
118.68
125.76
131.11
133.49
132.16
126.87
117.88
105.83
91.66
76.45
61.24
46.83
33.70
21.95
11.36
1.51
-8.12
-17.91
-27.98
-38.05
-47.43
-55.04
-59.71
-60.40
-56.54
-48.19
-36.03
-21.31
-5.50
9.88
23.62
34.86
43.26
48.99
52.60
54.94
56.86
58.99
61.48
64.00
65.91
66.48
65.26
62.24
57.78
52.37
46.37
39.80
32.26
23.24
12.29
-0.59
-14.84
-29.33
-42.62
-53.32
-60.44
-63.62
-63.25
-60.26
-55.87
-51.23
-47.13
-43.94
-41.65
-40.10
-39.15
-38.71
-38.72
-39.00
-39.19
-38.84
-37.46
-34.77
-30.73
-25.58
-19.65
-13.39
-7.16
-1.30
3.92
8.27
11.50
13.33
13.40
11.30
6.76
-0.06
-8.44
-17.04
-24.09
-27.91
-27.34
-22.13
-12.96
-1.17
11.68
24.26
35.63
45.24
52.71
57.72
60.05
59.68
57.03
52.90
48.32
44.18
40.92
38.42
36.20
33.71
30.66
27.13
23.39
19.69
16.00
11.97
6.98
0.47
-7.84
-17.79
-28.71
-39.51
-48.91
-55.70
-58.97
-58.35
-54.01
-46.65
-37.32
-27.09
-16.94
-7.59
0.45
6.82
11.21
13.40
13.27
11.00
7.05
2.06
-3.28
-8.60
-13.89
-19.50
-25.89
-33.37
-41.81
-50.66
-59.15
-66.63
-72.83
-78.06
-83.12
-89.07
-96.96
-107.46
-120.72
-136.18
-152.58
-168.12
-180.85
-189.16
-192.13
-189.82
-183.16
-173.64
-162.85
-152.05
-141.97
-132.85
-124.56
-116.87
-109.59
-102.67
-96.05
-89.69
-83.41
-77.00
-70.30
-63.26
-55.97
-48.53
-40.89
-32.86
-24.23
-14.97
-5.50
3.38
10.73
15.89
18.77
20.00
20.72
22.17
25.18
29.79
35.15
39.75
41.93
40.51
35.17
26.60
16.18
5.46
-4.28
-12.30
-18.30
-22.22
-23.94
-23.28
-20.03
-14.13
-5.82
4.26
15.20
25.89
35.19
42.09
45.72
45.48
41.19
33.35
23.23
12.87
4.74
1.11
3.46
11.95
25.47
42.06
59.59
76.34
91.35
104.41
115.84
126.01
135.10
142.74
148.07
149.92
147.30
139.85
128.16
113.86
99.27
86.94
79.10
77.24
81.76
91.94
105.96
121.22
134.98
144.99
150.16
150.85
148.69
146.03
145.14
147.48
153.23
161.29
169.61
175.83
177.97
175.06
167.51
157.10
146.50
138.52
135.21
137.27
143.84
152.77
161.44
167.64
170.26
169.53
166.62
163.03
159.77
157.04
154.14
150.06
144.03
136.10
127.19
118.79
112.43
109.11
108.99
111.36
114.93
118.24
120.11
119.80
117.02
111.75
104.02
93.91
81.54
67.20
51.43
35.01
18.92
4.22
-7.98
-16.66
-21.07
-21.03
-17.20
-11.09
-4.79
-0.24
1.29
-0.50
-5.11
-11.77
-20.09
-30.23
-42.67
-57.68
-74.80
-92.72
-109.53
-123.42
-133.21
-138.70
-140.57
-140.03
-138.27
-136.23
-134.40
-133.06
-132.42
-132.91
-135.14
-139.71
-146.88
-156.30
-166.99
-177.44
-186.07
-191.53
-192.99
-190.11
-183.00
-172.13
-158.28
-142.52
-126.20
-110.71
-97.18
-86.22
-77.80
-71.36
-66.02
-60.91
-55.38
-48.97
-41.59
-33.41
-24.88
-16.66
-9.47
-3.90
-0.09
2.23
3.73
5.15
7.05
9.58
12.54
15.53
18.19
20.39
22.17
23.64
24.78
25.33
24.82
22.82
19.08
13.78
7.40
0.67
-5.78
-11.55
-16.57
-21.00
-25.09
-29.13
-33.31
-37.80
-42.64
-47.71
-52.66
-56.89
-59.62
-60.17
-58.12
-53.50
-46.82
-38.92
-30.75
-23.09
-16.44
-10.96
-6.58
-3.09
-0.25
2.15
4.35
6.61
9.18
12.19
15.53
18.91
21.90
24.18
25.63
26.41
26.86
27.24
27.63
27.95
27.97
27.59
26.82
25.84
24.82
23.83
22.74
21.31
19.35
16.82
13.88
10.79
7.79
5.00
2.33
-0.43
-3.54
-7.16
-11.29
-15.60
-19.45
-22.07
-22.76
-21.13
-17.28
-11.74
-5.27
1.39
7.76
13.65
19.02
23.83
27.91
31.00
32.86
33.39
32.65
30.88
28.40
25.55
22.65
19.92
17.53
15.59
14.18
13.34
13.05
13.24
13.78
14.48
15.14
15.55
15.58
15.08
13.99
12.32
10.14
7.64
5.02
2.47
0.12
-1.99
-3.97
-5.99
-8.22
-10.73
-13.41
-15.97
-17.95
-18.79
-18.06
-15.49
-10.99
-4.70
3.06
11.85
21.12
30.25
38.65
45.84
51.59
56.02
59.43
62.20
64.48
66.13
66.67
65.53
62.24
56.65
49.04
40.10
30.73
21.94
14.58
9.15
5.71
3.82
2.73
1.54
-0.51
-3.84
-8.52
-14.28
-20.57
-26.74
-32.14
-36.27
-38.89
-40.15
-40.48
-40.53
-40.95
-42.22
-44.55
-47.85
-51.85
-56.07
-59.97
-62.92
-64.29
-63.53
-60.21
-54.24
-45.99
-36.35
-26.58
-17.97
-11.45
-7.34
-5.36
-4.90
-5.33
-6.24
-7.46
-8.90
-10.49
-12.06
-13.46
-14.59
-15.52
-16.35
-17.17
-18.03
-18.99
-20.06
-21.33
-22.89
-24.79
-27.08
-29.84
-33.11
-36.93
-41.20
-45.62
-49.74
-53.06
-55.25
-56.27
-56.39
-56.11
-55.90
-56.03
-56.53
-57.28
-58.09
-58.88
-59.54
-59.88
-59.50
-57.81
-54.20
-48.27
-40.05
-30.06
-19.19
-8.45
1.27
9.32
15.40
19.45
21.63
22.25
21.69
20.35
18.55
16.50
14.37
12.25
10.24
8.46
7.03
6.00
5.38
5.13
5.12
5.21
5.19
4.79
3.79
2.06
-0.26
-2.87
-5.30
-7.17
-8.28
-8.74
-8.86
-9.00
-9.45
-10.37
-11.81
-13.70
-15.96
-18.43
-20.93
-23.41
-25.88
-28.55
-31.58
-34.93
-38.25
-40.89
-42.06
-41.16
-37.94
-32.48
-25.14
-16.34
-6.46
4.14
15.04
25.73
35.54
43.73
49.61
52.55
52.19
48.45
41.71
32.82
22.99
13.63
6.08
1.38
0.07
2.08
6.65
12.41
17.66
20.80
20.83
17.66
12.13
5.63
-0.36
-4.78
-7.26
-7.94
-7.29
-5.86
-4.18
-2.85
-2.65
-4.38
-8.67
-15.55
-24.23
-33.08
-40.08
-43.50
-42.53
-37.54
-29.87
-21.23
-12.99
-5.80
0.26
5.34
9.39
11.98
12.45
10.47
6.36
1.28
-3.26
-5.94
-6.28
-4.91
-3.24
-2.84
-4.70
-8.77
-13.91
-18.50
-21.13
-21.24
-19.38
-16.81
-14.91
-14.53
-15.68
-17.75
-19.92
-21.68
-23.02
-24.40
-26.22
-28.70
-31.77
-35.36
-39.43
-43.66
-46.89
-46.83
-40.55
-25.83
-2.86
24.85
51.26
69.87
76.47
70.87
56.71
39.54
24.29
13.34
6.39
1.63
-2.64
-6.99
-10.86
-13.46
-14.51
-14.62
-14.86
-15.96
-17.80
-19.29
-19.01
-15.85
-9.80
-2.10
5.17
9.94
11.07
8.83
4.72
0.76
-1.49
-1.63
-0.44
0.66
0.35
-1.83
-5.49
-9.60
-13.03
-14.99
-15.09
-13.27
-9.63
-4.42
1.99
8.98
15.83
21.73
26.10
28.76
29.89
29.94
29.30
28.18
26.53
24.23
21.25
17.73
13.92
9.95
5.83
1.36
-3.53
-8.76
-13.95
-18.67
-22.64
-25.85
-28.63
-31.43
-34.61
-38.41
-42.82
-47.56
-52.13
-55.77
-57.72
-57.47
-55.04
-50.98
-46.25
-41.74
-38.00
-34.99
-32.21
-29.07
-25.08
-19.99
-13.53
-5.26
5.44
18.99
35.24
53.07
70.45
84.90
94.26
97.32
94.10
85.85
74.56
62.35
51.03
41.74
34.90
30.32
27.49
25.77
24.62
23.67
22.61
21.17
19.18
16.58
13.52
10.29
7.22
4.40
1.69
-1.21
-4.47
-8.07
-11.67
-14.89
-17.45
-19.36
-20.91
-22.48
-24.43
-26.99
-30.23
-34.10
-38.40
-42.82
-46.82
-49.73
-50.78
-49.39
-45.29
-38.72
-30.42
-21.37
-12.66
-5.06
1.05
5.69
9.12
11.62
13.40
14.59
15.31
15.77
16.34
17.40
19.17
21.59
24.31
26.85
28.73
29.65
29.52
28.31
26.00
22.51
17.74
11.76
4.83
-2.48
-9.47
-15.54
-20.37
-24.06
-27.03
-29.74
-32.54
-35.47
-38.34
-40.78
-42.42
-42.96
-42.22
-40.15
-36.94
-33.06
-29.37
-26.86
-26.39
-28.25
-31.90
-36.04
-38.95
-39.08
-35.50
-28.18
-17.83
-5.58
7.35
19.95
31.48
41.48
49.61
55.77
59.99
62.45
63.38
62.83
60.63
56.44
50.14
42.31
34.49
28.90
27.64
31.65
39.92
49.71
57.43
60.20
57.10
49.37
39.77
31.17
25.32
22.34
21.11
20.24
18.85
16.85
14.66
12.62
10.57
8.01
4.37
-0.37
-5.59
-10.24
-13.32
-14.39
-13.83
-12.58
-11.78
-12.22
-14.12
-17.17
-20.77
-24.28
-27.32
-29.68
-31.42
-32.74
-33.92
-35.23
-37.00
-39.42
-42.57
-46.29
-50.19
-53.68
-56.09
-56.80
-55.33
-51.58
-45.74
-38.38
-30.18
-21.87
-13.97
-6.89
-0.98
3.34
5.56
5.37
2.97
-0.75
-4.33
-6.26
-5.56
-2.23
2.80
8.02
12.01
13.94
13.94
13.06
12.82
14.68
19.34
26.46
34.67
42.00
46.60
47.42
44.58
39.32
33.48
28.84
26.44
26.26
27.33
28.08
27.02
23.49
18.09
12.61
9.43
10.40
16.03
24.99
34.59
41.72
44.14
41.19
33.89
24.23
14.18
4.93
-3.22
-10.57
-17.32
-23.24
-27.77
-30.46
-31.56
-32.02
-33.20
-36.14
-40.92
-46.46
-50.92
-52.47
-50.09
-44.00
-35.56
-26.60
-18.70
-12.59
-8.03
-4.11
0.12
5.20
10.87
16.29
20.47
22.71
22.93
21.64
19.65
17.73
16.40
15.84
15.95
16.57
17.58
18.97
20.77
22.93
25.28
27.46
29.01
29.53
28.80
26.88
24.03
20.58
16.72
12.50
7.89
2.97
-2.00
-6.62
-10.47
-13.26
-15.00
-15.94
-16.48
-17.04
-17.88
-19.15
-20.78
-22.58
-24.29
-25.70
-26.75
-27.48
-28.18
-29.11
-30.46
-32.24
-34.23
-36.07
-37.39
-37.84
-37.21
-35.38
-32.36
-28.22
-23.11
-17.33
-11.25
-5.35
-0.10
4.13
7.22
9.29
10.58
11.36
11.80
11.88
11.59
10.92
9.92
8.73
7.52
6.33
5.15
4.02
3.10
2.71
3.18
4.62
6.81
9.23
11.30
12.57
12.99
12.80
12.36
11.92
11.47
10.85
9.87
8.47
6.78
5.01
3.33
1.79
0.30
-1.30
-3.18
-5.44
-8.05
-10.89
-13.81
-16.72
-19.67
-22.80
-26.38
-30.52
-35.06
-39.41
-42.67
-43.81
-42.02
-36.98
-28.93
-18.68
-7.40
3.70
13.61
21.77
28.05
32.68
36.04
38.43
39.97
40.64
40.34
39.15
37.34
35.32
33.50
32.19
31.35
30.78
30.16
29.25
27.95
26.42
24.88
23.50
22.32
21.17
19.82
18.13
16.15
14.16
12.45
11.16
10.17
9.15
7.70
5.64
3.00
0.07
-2.83
-5.42
-7.61
-9.47
-11.18
-12.95
-14.97
-17.39
-20.33
-23.78
-27.63
-31.59
-35.33
-38.53
-41.04
-42.97
-44.65
-46.60
-49.23
-52.65
-56.48
-59.83
-61.45
-60.13
-55.05
-46.01
-33.55
-18.76
-3.09
12.01
25.24
35.72
43.09
47.63
50.07
51.36
52.35
53.36
54.22
54.37
53.25
50.67
46.94
42.84
39.28
37.01
36.25
36.79
37.99
39.11
39.57
39.03
37.43
34.92
31.74
28.08
24.20
20.40
17.02
14.41
12.73
11.79
11.08
9.93
7.77
4.43
0.23
-4.14
-7.95
-10.74
-12.49
-13.59
-14.58
-15.92
-17.80
-20.11
-22.60
-24.99
-27.18
-29.20
-31.22
-33.46
-36.12
-39.30
-42.93
-46.70
-50.09
-52.36
-52.81
-50.90
-46.44
-39.72
-31.43
-22.47
-13.78
-6.04
0.41
5.55
9.63
12.95
15.72
18.08
19.99
21.33
22.07
22.17
21.69
20.70
19.28
17.52
15.61
13.82
12.41
11.56
11.28
11.34
11.43
11.28
10.80
10.10
9.41
8.90
8.58
8.33
7.98
7.47
6.79
6.04
5.28
4.49
3.60
2.52
1.26
-0.08
-1.30
-2.30
-3.09
-3.88
-4.98
-6.62
-8.91
-11.73
-14.85
-17.94
-20.78
-23.18
-25.16
-26.86
-28.51
-30.31
-32.29
-34.27
-35.77
-36.17
-34.97
-31.95
-27.36
-21.83
-16.17
-11.06
-6.91
-3.75
-1.41
0.55
2.58
5.16
8.70
13.41
19.12
25.30
31.23
36.12
39.48
41.31
42.06
42.49
43.24
44.56
46.15
47.29
47.12
45.07
41.03
35.41
28.96
22.50
16.68
11.76
7.66
4.05
0.54
-3.18
-7.20
-11.39
-15.33
-18.35
-19.50
-17.90
-13.14
-5.66
3.02
10.66
14.96
14.52
9.38
0.96
-8.60
-17.42
-24.59
-30.24
-35.15
-40.17
-45.82
-52.16
-58.96
-65.89
-72.62
-78.84
-84.14
-88.00
-89.80
-89.04
-85.56
-79.76
-72.56
-65.24
-58.93
-53.91
-49.15
-42.28
-30.29
-10.87
15.99
47.38
77.80
100.86
111.46
107.37
89.75
62.46
30.80
0.36
-23.87
-38.24
-41.02
-32.97
-17.25
1.35
18.10
30.01
36.96
41.62
47.98
59.50
77.34
99.74
122.74
141.66
152.82
154.80
148.53
136.30
120.23
101.27
79.22
53.97
26.64
0.03
-22.37
-38.10
-47.16
-52.05
-56.40
-62.88
-71.69
-80.55
-85.95
-85.17
-77.81
-66.09
-53.83
-44.78
-41.13
-42.78
-47.76
-53.39
-57.56
-59.53
-60.05
-60.80
-63.79
-70.85
-83.49
-102.64
-128.15
-158.31
-189.61
-217.40
-237.38
-247.21
-247.56
-241.79
-234.54
-229.89
-230.07
-235.23
-244.11
-255.11
-266.87
-278.43
-288.78
-296.75
-300.99
-300.49
-294.96
-285.08
-272.16
-257.75
-243.04
-228.56
-214.20
-199.46
-183.89
-167.39
-150.37
-133.60
-117.95
-104.03
-92.02
-81.66
-72.34
-63.42
-54.36
-44.91
-35.06
-24.99
-14.98
-5.25
4.10
13.07
21.80
30.47
39.31
48.39
57.71
67.04
76.08
84.54
92.28
99.51
106.68
114.43
123.35
133.72
145.39
157.84
170.46
182.70
194.36
205.67
217.12
229.45
243.54
260.20
279.85
302.00
324.95
345.87
361.47
369.15
367.89
358.67
343.95
326.55
308.58
290.85
273.06
254.51
234.76
213.94
192.54
171.02
149.58
128.13
106.59
85.12
64.14
44.29
26.16
10.18
-3.41
-14.50
-22.93
-28.56
-31.31
-31.29
-28.93
-24.86
-19.81
-14.43
-9.20
-4.30
0.25
4.63
9.09
13.91
19.28
25.26
31.68
38.16
44.28
49.69
54.31
58.33
62.12
66.00
70.04
74.01
77.45
79.89
81.11
81.25
80.77
80.15
79.66
79.15
78.07
75.75
71.68
65.78
58.45
50.33
42.03
33.79
25.42
16.24
5.36
-7.98
-24.09
-42.58
-62.31
-81.56
-98.31
-110.64
-117.16
-117.27
-111.28
-100.33
-86.05
-70.25
-54.52
-40.08
-27.69
-17.83
-10.72
-6.41
-4.62
-4.71
-5.75
-6.73
-6.89
-5.97
-4.19
-2.07
-0.05
1.73
3.43
5.42
8.07
11.55
15.74
20.29
24.63
28.19
30.53
31.51
31.38
30.75
30.32
30.62
31.79
33.52
35.29
36.62
37.33
37.57
37.64
37.73
37.73
37.30
36.00
33.63
30.41
26.92
23.93
22.05
21.49
21.97
22.87
23.42
23.06
21.53
18.99
15.82
12.51
9.51
7.13
5.58
4.83
4.55
4.16
2.99
0.62
-2.91
-6.85
-10.16
-11.79
-11.21
-8.59
-4.68
-0.40
3.52
6.71
9.11
10.76
11.69
11.97
11.77
11.51
11.75
13.00
15.48
18.99
22.94
26.61
29.45
31.29
32.33
32.97
33.67
34.70
36.12
37.82
39.66
41.55
43.36
44.89
45.73
45.36
43.30
39.37
33.85
27.50
21.43
16.67
13.91
13.25
14.18
15.82
17.20
17.49
16.21
13.23
8.63
2.62
-4.57
-12.81
-21.85
-31.30
-40.53
-48.71
-55.08
-59.10
-60.67
-60.10
-57.96
-54.82
-51.10
-46.98
-42.55
-37.85
-32.99
-28.10
-23.25
-18.39
-13.41
-8.21
-2.85
2.42
7.25
11.30
14.47
16.92
19.05
21.32
24.03
27.18
30.49
33.58
36.10
37.96
39.25
40.31
41.44
42.92
44.93
47.64
51.24
55.86
61.51
68.00
74.90
81.65
87.74
92.97
97.46
101.63
106.04
111.06
116.80
122.95
128.99
134.30
138.29
140.53
140.88
139.69
137.91
136.95
138.22
142.42
148.89
155.53
159.32
157.43
148.34
132.39
111.61
88.90
67.01
47.84
32.25
20.33
11.84
6.55
4.23
4.65
7.34
11.60
16.38
20.40
22.26
20.74
15.08
5.18
-8.52
-25.25
-44.16
-64.65
-86.44
-109.48
-133.69
-158.78
-184.38
-210.20
-236.14
-261.83
-286.21
-307.09
-321.58
-327.01
-322.21
-308.28
-288.52
-267.25
-248.10
-232.68
-220.43
-209.89
-200.20
-191.96
-186.68
-185.46
-187.56
-190.15
-189.31
-181.53
-165.27
-141.43
-112.61
-81.64
-50.24
-18.67
13.52
46.31
78.47
107.72
131.94
150.58
165.27
179.33
196.13
217.14
240.90
263.44
280.03
287.19
284.01
272.15
254.78
235.24
215.99
198.35
182.78
169.09
156.57
144.09
130.32
114.30
96.00
76.59
58.01
42.19
30.03
20.94
13.18
4.72
-5.50
-16.99
-27.85
-35.93
-39.94
-40.11
-37.94
-35.11
-32.67
-30.79
-29.42
-29.04
-30.94
-36.45
-45.72
-56.84
-66.28
-70.68
-68.79
-62.52
-56.02
-53.49
-56.91
-65.07
-74.55
-81.50
-83.55
-80.16
-72.18
-61.03
-48.30
-36.01
-26.76
-23.17
-26.52
-35.77
-47.48
-57.35
-62.42
-62.34
-59.21
-55.80
-53.71
-52.46
-50.26
-45.53
-38.34
-30.44
-24.18
-21.14
-21.35
-23.66
-26.74
-29.99
-33.59
-37.92
-42.98
-48.06
-52.21
-54.79
-55.91
-56.29
-56.81
-57.92
-59.38
-60.43
-60.14
-57.88
-53.43
-46.92
-38.66
-29.05
-18.68
-8.35
0.94
8.28
13.17
15.76
16.75
17.10
17.54
18.38
19.44
20.34
20.72
20.44
19.67
18.64
17.54
16.35
14.93
13.13
10.85
8.08
4.81
1.05
-3.15
-7.61
-12.02
-15.99
-19.23
-21.71
-23.74
-25.79
-28.27
-31.46
-35.34
-39.63
-43.96
-47.81
-50.62
-51.85
-51.11
-48.34
-43.84
-38.26
-32.33
-26.58
-21.26
-16.29
-11.45
-6.63
-1.92
2.39
5.94
8.48
9.91
10.38
10.19
9.74
9.40
9.41
9.86
10.68
11.74
12.83
13.78
14.42
14.60
14.18
13.04
11.10
8.38
5.02
1.30
-2.41
-5.80
-8.65
-10.98
-13.02
-15.11
-17.61
-20.76
-24.66
-29.36
-34.77
-40.61
-46.27
-50.82
-53.14
-52.31
-47.95
-40.46
-30.95
-20.88
-11.51
-3.63
2.56
7.29
10.87
13.51
15.24
16.04
15.93
15.08
13.85
12.63
11.82
11.62
12.03
12.85
13.75
14.43
14.69
14.50
13.94
13.13
12.13
10.90
9.35
7.39
4.98
2.16
-0.97
-4.33
-7.85
-11.49
-15.18
-18.80
-22.28
-25.57
-28.86
-32.51
-36.99
-42.52
-48.80
-54.84
-59.13
-60.10
-56.77
-49.11
-38.17
-25.64
-13.27
-2.42
6.25
12.66
17.05
19.74
21.01
21.16
20.54
19.58
18.71
18.27
18.38
18.95
19.76
20.56
21.23
21.77
22.32
22.92
23.46
23.71
23.32
22.13
20.23
17.94
15.66
13.64
11.81
9.80
7.11
3.39
-1.43
-7.04
-12.97
-18.60
-23.55
-27.68
-31.15
-34.39
-37.99
-42.45
-47.98
-54.20
-60.06
-64.13
-64.96
-61.63
-54.12
-43.37
-30.88
-18.28
-6.83
2.78
10.38
16.15
20.37
23.28
25.14
26.24
26.87
27.31
27.76
28.23
28.62
28.77
28.55
28.02
27.35
26.83
26.69
26.93
27.32
27.49
26.99
25.60
23.36
20.59
17.73
15.15
12.97
11.07
9.13
6.92
4.35
1.62
-0.96
-3.13
-4.84
-6.33
-8.02
-10.26
-13.23
-16.87
-20.89
-24.97
-28.86
-32.46
-35.80
-38.98
-42.19
-45.74
-49.97
-55.21
-61.48
-68.26
-74.32
-77.97
-77.48
-71.78
-60.95
-46.35
-30.17
-14.72
-1.74
8.01
14.76
19.22
22.16
24.05
25.02
25.08
24.25
22.75
20.87
18.90
17.01
15.36
14.07
13.36
13.39
14.25
15.83
17.82
19.86
21.77
23.53
25.40
27.59
30.06
32.48
34.27
34.84
33.90
31.57
28.28
24.57
20.86
17.37
14.07
10.85
7.54
4.03
0.21
-4.00
-8.67
-13.79
-19.16
-24.47
-29.35
-33.53
-37.04
-40.32
-44.10
-49.10
-55.68
-63.38
-70.85
-76.08
-77.09
-72.61
-62.75
-48.89
-33.25
-18.15
-5.28
4.67
11.87
16.93
20.50
22.97
24.50
25.18
25.23
24.97
24.85
25.17
26.04
27.39
28.94
30.36
31.31
31.57
31.07
29.91
28.35
26.71
25.22
23.97
22.83
21.62
20.14
18.39
16.48
14.52
12.59
10.66
8.52
6.04
3.11
-0.21
-3.69
-7.10
-10.20
-12.93
-15.36
-17.72
-20.33
-23.54
-27.61
-32.73
-38.81
-45.43
-51.76
-56.58
-58.56
-56.74
-50.87
-41.59
-30.22
-18.38
-7.37
2.09
9.84
16.04
20.81
24.21
26.12
26.66
26.13
25.05
23.95
23.14
22.67
22.32
21.91
21.29
20.63
20.14
20.03
20.34
20.82
21.09
20.64
19.15
16.58
13.25
9.66
6.36
3.70
1.69
0.03
-1.78
-4.13
-7.14
-10.68
-14.39
-17.91
-20.99
-23.64
-26.12
-28.83
-32.26
-36.76
-42.33
-48.42
-53.94
-57.41
-57.53
-53.63
-46.01
-35.95
-25.21
-15.46
-7.71
-2.09
1.94
5.23
8.50
12.08
15.89
19.67
23.12
26.09
28.59
30.67
32.37
33.62
34.33
34.51
34.37
34.18
34.23
34.60
35.07
35.19
34.42
32.47
29.32
25.30
20.89
16.55
12.54
8.91
5.54
2.22
-1.23
-4.88
-8.73
-12.70
-16.69
-20.67
-24.67
-28.80
-33.17
-37.80
-42.50
-46.83
-50.09
-51.47
-50.25
-46.06
-38.94
-29.43
-18.39
-6.91
3.92
13.17
20.28
25.09
27.82
28.97
29.10
28.71
28.14
27.51
26.83
26.18
25.63
25.25
25.15
25.33
25.70
26.18
26.59
26.72
26.35
25.27
23.37
20.74
17.66
14.47
11.49
8.86
6.46
4.08
1.47
-1.46
-4.61
-7.79
-10.78
-13.42
-15.68
-17.68
-19.63
-21.82
-24.62
-28.31
-32.96
-38.16
-43.01
-46.33
-47.01
-44.44
-38.69
-30.48
-20.86
-10.86
-1.27
7.37
14.73
20.55
24.66
27.03
27.81
27.35
26.07
24.36
22.55
20.94
19.75
19.15
19.13
19.55
20.16
20.67
20.93
20.96
20.92
20.99
21.28
21.77
22.37
22.92
23.24
23.06
22.12
20.16
17.09
13.06
8.46
3.78
-0.50
-4.08
-6.92
-9.14
-11.09
-13.10
-15.48
-18.43
-22.06
-26.34
-31.06
-35.88
-40.38
-44.13
-46.70
-47.73
-46.74
-43.24
-36.80
-27.30
-15.17
-1.52
11.96
23.49
31.62
35.77
36.29
34.30
31.25
28.40
26.51
25.75
25.81
26.15
26.34
26.12
25.55
24.90
24.44
24.38
24.63
24.96
24.96
24.22
22.42
19.46
15.57
11.18
6.85
3.09
0.19
-1.80
-3.14
-4.21
-5.43
-7.12
-9.46
-12.44
-15.92
-19.78
-23.98
-28.54
-33.55
-38.94
-44.34
-49.07
-52.21
-52.91
-50.63
-45.40
-37.83
-28.86
-19.62
-11.02
-3.63
2.36
7.13
10.92
13.94
16.27
17.87
18.73
18.88
18.50
17.84
17.21
16.82
16.79
17.04
17.41
17.59
17.37
16.63
15.40
13.79
11.91
9.76
7.22
4.24
0.83
-2.80
-6.30
-9.38
-11.91
-14.10
-16.29
-18.90
-22.20
-26.28
-31.05
-36.40
-42.18
-48.20
-54.07
-59.19
-62.73
-63.92
-62.25
-57.62
-50.53
-41.84
-32.59
-23.77
-16.10
-9.97
-5.53
-2.61
-0.91
-0.00
0.59
1.42
3.02
5.82
10.00
15.37
21.35
27.11
31.91
35.29
37.30
38.38
39.07
39.79
40.53
41.00
40.72
39.42
37.10
34.03
30.56
26.99
23.48
20.05
16.65
13.12
9.26
4.77
-0.60
-6.96
-13.98
-20.93
-26.76
-30.43
-31.21
-28.92
-23.92
-17.02
-9.15
-1.19
6.27
12.85
18.48
23.18
27.11
30.32
32.76
34.36
34.99
34.66
33.58
32.09
30.58
29.36
28.53
28.03
27.72
27.51
27.41
27.41
27.45
27.28
26.53
24.76
21.74
17.56
12.53
7.21
2.07
-2.62
-6.86
-10.98
-15.42
-20.61
-26.81
-34.16
-42.37
-50.90
-58.94
-65.54
-69.91
-71.62
-70.70
-67.66
-63.27
-58.31
-53.41
-48.97
-45.20
-42.29
-40.44
-39.85
-40.75
-43.27
-47.52
-53.51
-61.19
-70.27
-80.24
-90.44
-100.31
-109.58
-118.42
-127.11
-135.81
-144.05
-150.78
-154.75
-155.21
-152.49
-148.09
-144.34
-143.61
-147.63
-157.07
-171.62
-190.24
-211.57
-234.10
-256.22
-276.22
-292.41
-303.30
-307.85
-305.75
-297.50
-284.28
-267.52
-248.61
-228.51
-207.72
-186.43
-164.80
-143.20
-122.31
-102.98
-85.84
-71.15
-58.50
-47.04
-35.80
-24.10
-11.90
0.23
11.41
20.88
28.50
34.84
41.05
48.32
57.40
68.28
80.38
92.89
105.26
117.59
130.57
145.35
163.33
186.20
215.62
252.60
296.28
342.87
385.54
415.79
425.97
412.19
375.90
323.63
264.97
209.66
165.23
136.05
123.63
127.57
146.17
176.42
213.55
251.08
281.82
299.84
302.50
291.44
272.03
251.10
234.09
222.99
215.92
208.59
196.72
177.94
152.49
122.72
91.82
62.65
37.20
16.61
1.32
-8.72
-13.86
-14.76
-12.21
-6.86
0.88
10.98
23.61
38.79
55.96
73.43
88.10
95.77
92.35
75.58
46.75
11.04
-23.79
-50.19
-63.66
-64.25
-55.88
-43.90
-32.30
-21.84
-10.15
6.82
32.53
68.08
111.44
157.95
201.59
236.63
259.19
267.97
264.25
250.84
230.73
206.17
178.45
148.45
117.41
87.19
59.84
36.85
18.51
4.04
-7.91
-18.42
-27.90
-36.13
-42.68
-47.42
-50.71
-53.33
-56.12
-59.76
-64.48
-70.10
-76.10
-81.72
-86.21
-89.05
-90.16
-89.98
-89.41
-89.32
-90.28
-92.23
-94.50
-96.16
-96.27
-94.17
-89.43
-81.83
-71.25
-57.76
-41.78
-24.15
-6.09
11.08
26.21
38.60
47.97
54.52
58.72
61.17
62.50
63.13
63.24
62.78
61.57
59.46
56.51
53.03
49.47
46.21
43.33
40.59
37.52
33.62
28.65
22.68
16.08
9.28
2.60
-3.93
-10.47
-17.27
-24.45
-32.02
-39.83
-47.72
-55.57
-63.19
-70.21
-76.01
-79.76
-80.66
-78.28
-72.80
-64.98
-56.01
-47.02
-38.85
-31.86
-25.97
-20.95
-16.61
-12.94
-10.09
-8.15
-7.04
-6.36
-5.58
-4.26
-2.28
0.11
2.43
4.23
5.33
5.92
6.34
6.80
7.13
6.81
5.22
1.99
-2.70
-8.20
-13.66
-18.42
-22.27
-25.44
-28.29
-31.13
-34.08
-37.03
-39.83
-42.37
-44.53
-46.17
-46.95
-46.49
-44.45
-40.70
-35.47
-29.31
-22.99
-17.27
-12.68
-9.45
-7.47
-6.46
-6.03
-5.85
-5.69
-5.48
-5.23
-5.10
-5.29
-5.92
-7.06
-8.54
-10.07
-11.34
-12.14
-12.47
-12.54
-12.71
-13.38
-14.83
-17.12
-20.12
-23.44
-26.60
-29.25
-31.25
-32.74
-34.08
-35.71
-37.95
-40.91
-44.42
-48.01
-51.03
-52.65
-52.10
-48.83
-42.77
-34.35
-24.47
-14.22
-4.54
3.88
10.81
16.26
20.35
23.21
24.89
25.46
25.06
23.98
22.58
21.23
20.10
19.24
18.54
17.86
17.15
16.45
15.80
15.09
14.07
12.40
9.79
6.24
2.00
-2.43
-6.58
-10.15
-13.14
-15.80
-18.49
-21.66
-25.64
-30.61
-36.45
-42.67
-48.34
-52.36
-53.72
-51.91
-47.09
-40.01
-31.75
-23.30
-15.30
-8.07
-1.75
3.55
7.62
10.23
11.37
11.26
10.37
9.26
8.32
7.69
7.22
6.70
5.94
4.95
3.94
3.16
2.76
2.69
2.73
2.54
1.86
0.54
-1.38
-3.75
-6.34
-9.00
-11.62
-14.26
-17.08
-20.30
-24.09
-28.42
-32.99
-37.17
-40.20
-41.30
-39.95
-36.00
-29.74
-21.80
-13.00
-4.20
3.88
10.72
16.03
19.69
21.72
22.34
21.79
20.44
18.64
16.71
14.89
13.27
11.86
10.58
9.34
8.12
6.95
5.89
4.90
3.87
2.56
0.74
-1.77
-4.92
-8.48
-12.08
-15.39
-18.23
-20.69
-23.04
-25.69
-28.94
-32.83
-37.03
-40.81
-43.24
-43.48
-41.00
-35.82
-28.45
-19.68
-10.44
-1.49
6.55
13.26
18.33
21.57
22.98
22.83
21.57
19.75
17.80
16.00
14.35
12.82
11.34
9.97
8.82
7.98
7.42
6.94
6.20
4.86
2.74
-0.13
-3.48
-6.93
-10.16
-12.98
-15.42
-17.70
-20.12
-22.93
-26.30
-30.15
-34.14
-37.70
-40.05
-40.46
-38.42
-33.88
-27.22
-19.21
-10.70
-2.44
5.06
11.48
16.61
20.25
22.24
22.58
21.46
19.30
16.70
14.19
12.16
10.77
9.99
9.70
9.79
10.20
10.84
11.49
11.78
11.27
9.57
6.59
2.60
-1.88
-6.25
-10.07
-13.21
-15.85
-18.37
-21.20
-24.65
-28.77
-33.25
-37.39
-40.28
-41.02
-39.02
-34.22
-27.05
-18.28
-8.79
0.63
9.39
16.99
23.03
27.17
29.30
29.61
28.57
26.79
24.88
23.28
22.24
21.79
21.88
22.39
23.09
23.72
23.95
23.51
22.21
20.02
16.98
13.24
9.08
4.77
0.70
-2.92
-6.03
-8.85
-11.84
-15.50
-20.12
-25.65
-31.62
-37.26
-41.73
-44.31
-44.50
-42.09
-37.14
-29.96
-21.04
-11.11
-0.97
8.54
16.76
23.19
27.63
30.10
30.79
30.00
28.03
25.26
22.09
18.95
16.20
14.10
12.67
11.72
10.95
10.02
8.68
6.85
4.55
1.94
-0.82
-3.61
-6.41
-9.35
-12.63
-16.40
-20.64
-25.12
-29.46
-33.21
-36.18
-38.39
-40.18
-42.04
-44.45
-47.77
-52.00
-56.78
-61.30
-64.47
-65.07
-62.12
-55.19
-44.64
-31.56
-17.51
-4.11
7.37
16.26
22.53
26.59
29.00
30.28
30.73
30.56
29.91
28.98
27.96
27.01
26.19
25.43
24.67
23.91
23.28
22.89
22.81
22.88
22.83
22.35
21.26
19.61
17.63
15.65
13.89
12.43
11.22
10.11
8.94
7.58
5.93
3.87
1.31
-1.81
-5.43
-9.39
-13.42
-17.28
-20.83
-24.05
-27.09
-30.22
-33.71
-37.72
-42.16
-46.60
-50.22
-51.93
-50.69
-45.81
-37.30
-25.96
-13.20
-0.62
10.47
19.32
25.81
30.20
32.94
34.40
34.85
34.57
33.84
33.08
32.65
32.82
33.63
34.88
36.21
37.22
37.58
37.21
36.22
34.87
33.43
32.03
30.57
28.80
26.41
23.26
19.45
15.33
11.35
7.89
5.14
3.00
1.18
-0.72
-2.97
-5.74
-8.98
-12.52
-16.25
-20.07
-24.02
-28.23
-32.82
-37.86
-43.42
-49.47
-55.91
-62.46
-68.46
-72.92
-74.66
-72.61
-66.29
-56.01
-42.92
-28.69
-15.05
-3.18
6.40
13.90
19.80
24.53
28.22
30.76
32.04
32.19
31.66
31.02
30.79
31.12
31.88
32.67
33.19
33.37
33.29
33.16
33.06
32.90
32.38
31.17
28.97
25.71
21.62
17.06
12.55
8.42
4.78
1.47
-1.91
-5.68
-9.97
-14.56
-19.06
-23.04
-26.37
-29.21
-32.05
-35.43
-39.75
-45.12
-51.24
-57.51
-63.05
-66.86
-67.91
-65.45
-59.16
-49.36
-37.01
-23.51
-10.38
1.23
10.70
17.99
23.47
27.59
30.68
32.87
34.26
34.97
35.27
35.48
35.81
36.29
36.70
36.74
36.22
35.22
33.94
32.68
31.56
30.44
29.05
27.06
24.38
21.17
17.78
14.56
11.71
9.20
6.88
4.62
2.33
0.05
-2.19
-4.43
-6.82
-9.60
-12.84
-16.49
-20.29
-23.94
-27.21
-30.11
-32.88
-35.92
-39.63
-44.23
-49.74
-55.74
-61.54
-66.07
-68.16
-66.77
-61.36
-52.05
-39.67
-25.56
-11.21
2.03
13.28
22.10
28.49
32.75
35.36
36.87
37.77
38.36
38.79
39.03
38.96
38.49
37.57
36.21
34.50
32.56
30.59
28.79
27.34
26.21
25.17
23.81
21.74
18.80
15.14
11.20
7.51
4.44
2.04
0.05
-1.98
-4.44
-7.47
-10.94
-14.53
-17.93
-21.00
-23.86
-26.77
-30.09
-34.06
-38.75
-44.06
-49.71
-55.25
-60.03
-63.17
-63.70
-60.78
-54.02
-43.76
-31.02
-17.34
-4.25
7.10
16.18
23.08
28.24
32.17
35.21
37.47
38.94
39.61
39.58
39.10
38.46
37.87
37.43
37.11
36.81
36.47
36.11
35.76
35.45
35.12
34.65
33.85
32.66
31.08
29.23
27.27
25.27
23.21
20.95
18.29
15.02
11.06
6.50
1.61
-3.25
-7.70
-11.52
-14.70
-17.44
-20.10
-23.00
-26.41
-30.47
-35.18
-40.49
-46.13
-51.60
-56.05
-58.44
-57.79
-53.54
-45.78
-35.32
-23.43
-11.49
-0.64
8.32
14.96
19.15
20.90
20.48
18.36
15.22
11.87
9.07
7.36
6.94
7.68
9.25
11.18
13.16
14.98
16.68
18.35
20.04
21.65
22.93
23.61
23.52
22.68
21.32
19.69
17.98
16.21
14.34
12.29
10.10
7.92
5.96
4.38
3.16
2.08
0.80
-1.04
-3.69
-7.14
-11.15
-15.31
-19.18
-22.52
-25.38
-28.07
-30.96
-34.42
-38.58
-43.36
-48.56
-53.83
-58.63
-62.28
-63.88
-62.55
-57.73
-49.43
-38.36
-25.80
-13.28
-2.10
6.95
13.68
18.38
21.55
23.69
25.11
25.90
26.07
25.63
24.73
23.65
22.71
22.14
22.05
22.33
22.77
23.15
23.33
23.27
23.00
22.52
21.74
20.53
18.76
16.37
13.49
10.37
7.33
4.66
2.53
0.91
-0.41
-1.78
-3.55
-5.91
-8.90
-12.37
-15.99
-19.46
-22.61
-25.43
-28.13
-31.03
-34.42
-38.55
-43.48
-49.00
-54.63
-59.51
-62.48
-62.35
-58.31
-50.20
-38.75
-25.32
-11.54
1.15
11.87
20.36
26.73
31.35
34.50
36.46
37.48
37.84
37.84
37.77
37.79
37.98
38.24
38.45
38.51
38.36
38.07
37.67
37.19
36.54
35.50
33.84
31.47
28.44
25.00
21.50
18.23
15.30
12.56
9.73
6.48
2.70
-1.52
-5.81
-9.73
-12.96
-15.43
-17.41
-19.34
-21.72
-24.93
-29.17
-34.41
-40.44
-46.84
-52.84
-57.48
-59.65
-58.49
-53.67
-45.63
-35.39
-24.26
-13.52
-4.01
3.90
10.26
15.34
19.40
22.65
25.24
27.26
28.80
30.03
31.10
32.12
33.07
33.85
34.28
34.30
34.05
33.79
33.80
34.22
34.92
35.53
35.63
34.91
33.27
30.96
28.30
25.67
23.26
21.14
19.14
17.01
14.49
11.40
7.84
4.10
0.61
-2.24
-4.27
-5.58
-6.52
-7.49
-8.86
-10.77
-13.19
-15.94
-18.84
-21.73
-24.56
-27.35
-30.21
-33.30
-36.88
-41.22
-46.59
-53.04
-60.31
-67.57
-73.48
-76.49
-75.25
-69.16
-58.68
-45.26
-30.86
-17.33
-5.85
3.24
10.25
15.78
20.33
24.15
27.35
29.92
31.92
33.44
34.57
35.31
35.64
35.55
35.12
34.55
34.09
33.93
34.17
34.71
35.40
36.02
36.40
36.40
35.98
35.12
33.87
32.38
30.84
29.51
28.54
27.92
27.45
26.77
25.57
23.66
21.10
18.12
15.03
12.05
9.23
6.50
3.70
0.68
-2.69
-6.43
-10.51
-14.80
-19.08
-23.15
-26.85
-30.13
-33.18
-36.32
-39.97
-44.48
-49.95
-56.08
-62.08
-66.79
-68.90
-67.35
-61.68
-52.25
-40.13
-26.86
-13.95
-2.55
6.76
13.97
19.37
23.32
26.05
27.65
28.20
27.87
27.02
26.08
25.45
25.32
25.64
26.18
26.69
27.04
27.30
27.56
27.92
28.33
28.62
28.58
28.07
27.08
25.76
24.33
23.01
21.93
21.09
20.39
19.68
18.78
17.63
16.22
14.61
12.87
11.03
9.04
6.83
4.30
1.38
-1.92
-5.46
-9.04
-12.46
-15.67
-18.82
-22.32
-26.73
-32.47
-39.65
-47.88
-56.20
-63.26
-67.67
-68.32
-64.77
-57.37
-47.13
-35.47
-23.69
-12.79
-3.25
4.81
11.43
16.71
20.73
23.57
25.38
26.38
26.84
26.99
27.03
27.07
27.23
27.58
28.19
29.01
29.98
30.90
31.57
31.78
31.42
30.48
29.07
27.41
25.63
23.81
21.84
19.61
17.02
14.08
10.97
7.85
4.83
1.93
-0.96
-3.92
-7.00
-10.10
-13.09
-15.88
-18.45
-20.88
-23.30
-25.89
-28.87
-32.49
-36.90
-42.09
-47.64
-52.75
-56.35
-57.43
-55.33
-49.96
-41.86
-31.94
-21.30
-10.91
-1.49
6.56
13.10
18.21
22.02
24.69
26.37
27.17
27.30
26.98
26.49
26.04
25.77
25.64
25.62
25.68
25.81
26.05
26.37
26.63
26.61
26.05
24.74
22.60
19.70
16.27
12.65
9.22
6.19
3.53
0.94
-2.03
-5.71
-10.14
-14.99
-19.71
-23.77
-26.98
-29.51
-31.85
-34.55
-38.07
-42.65
-48.22
-54.43
-60.57
-65.66
-68.50
-68.03
-63.69
-55.65
-44.86
-32.73
-20.73
-9.94
-0.86
6.51
12.46
17.33
21.33
24.58
27.18
29.22
30.76
31.86
32.50
32.71
32.55
32.16
31.67
31.22
30.79
30.35
29.84
29.23
28.52
27.68
26.59
25.06
22.90
20.03
16.54
12.63
8.61
4.74
1.19
-2.06
-5.16
-8.32
-11.72
-15.50
-19.56
-23.77
-27.94
-31.99
-35.99
-40.14
-44.72
-49.98
-56.10
-63.04
-70.57
-78.10
-84.73
-89.31
-90.79
-88.50
-82.52
-73.73
-63.53
-53.50
-44.77
-37.95
-33.02
-29.61
-27.28
-25.65
-24.50
-23.77
-23.55
-23.93
-25.02
-26.79
-29.00
-31.19
-32.77
-33.25
-32.31
-29.97
-26.46
-22.25
-17.88
-13.90
-10.69
-8.32
-6.49
-4.63
-2.25
0.76
3.97
6.59
7.88
7.50
5.73
3.19
0.48
-2.14
-4.78
-7.73
-11.04
-14.38
-17.23
-19.22
-20.48
-21.69
-23.87
-27.77
-33.59
-40.68
-47.92
-54.12
-58.57
-61.39
-63.44
-65.90
-69.64
-74.63
-79.74
-82.89
-81.73
-74.43
-60.37
-40.34
-16.16
10.06
36.80
63.52
90.87
120.12
152.86
190.40
233.48
281.75
333.23
383.95
428.30
460.31
475.48
472.51
453.83
424.80
391.61
359.25
330.31
305.17
283.01
262.95
244.60
227.71
211.63
194.96
175.67
151.76
121.93
86.11
45.69
3.60
-36.13
-69.24
-92.28
-103.77
-104.72
-98.37
-89.03
-80.70
-75.89
-75.28
-78.21
-83.40
-89.79
-96.72
-103.78
-110.55
-116.42
-120.80
-123.40
-124.50
-124.87
-125.52
-127.13
-129.64
-132.15
-133.16
-131.30
-125.93
-117.45
-107.10
-96.37
-86.35
-77.28
-68.72
-59.95
-50.53
-40.65
-31.02
-22.67
-16.49
-12.94
-11.85
-12.54
-13.99
-15.13
-15.20
-14.00
-11.88
-9.54
-7.66
-6.51
-5.85
-5.04
-3.50
-1.02
2.14
5.31
7.77
9.10
9.18
8.17
6.33
3.85
0.87
-2.44
-5.79
-8.87
-11.36
-13.22
-14.60
-15.83
-17.22
-18.98
-21.10
-23.39
-25.62
-27.61
-29.27
-30.64
-31.85
-33.13
-34.77
-37.03
-39.95
-43.30
-46.43
-48.59
-49.04
-47.40
-43.78
-38.77
-33.20
-27.89
-23.32
-19.63
-16.64
-14.04
-11.63
-9.33
-7.21
-5.39
-3.91
-2.82
-2.00
-1.39
-0.87
-0.38
0.16
0.77
1.50
2.32
3.17
3.96
4.52
4.70
4.40
3.49
2.06
0.26
-1.59
-3.14
-4.11
-4.46
-4.35
-4.14
-4.23
-4.88
-6.19
-8.03
-10.19
-12.43
-14.55
-16.44
-18.06
-19.45
-20.67
-21.85
-23.09
-24.44
-25.89
-27.37
-28.79
-30.02
-30.93
-31.39
-31.31
-30.64
-29.36
-27.44
-24.92
-21.77
-18.02
-13.77
-9.18
-4.56
-0.20
3.61
6.73
9.09
10.68
11.56
11.77
11.43
10.72
9.89
9.21
8.81
8.74
8.98
9.49
10.35
11.77
13.86
16.53
19.30
21.26
21.50
19.39
14.90
8.61
1.44
-5.63
-11.74
-16.35
-19.19
-20.20
-19.70
-18.35
-17.07
-16.88
-18.59
-22.44
-28.05
-34.50
-40.64
-45.49
-48.50
-49.65
-49.42
-48.67
-48.31
-49.18
-51.83
-56.32
-62.31
-69.14
-76.00
-82.14
-87.12
-90.90
-93.76
-96.15
-98.42
-100.65
-102.68
-104.20
-105.03
-105.17
-104.98
-104.80
-104.96
-105.41
-105.66
-104.77
-101.54
-94.85
-83.90
-68.51
-49.22
-27.32
-4.59
17.11
36.37
52.60
65.99
77.01
85.87
91.92
93.72
89.67
78.92
62.22
42.05
21.80
4.53
-8.18
-16.63
-22.42
-27.34
-32.46
-37.69
-42.13
-44.85
-45.58
-45.09
-45.03
-47.43
-54.14
-66.27
-83.72
-104.89
-126.72
-145.21
-156.43
-157.85
-149.22
-132.61
-111.68
-90.23
-70.98
-54.89
-41.37
-28.96
-16.25
-2.20
13.85
32.36
53.67
77.70
103.62
129.66
153.52
172.97
186.63
194.35
196.99
195.97
192.66
188.15
183.12
178.05
173.20
168.54
163.76
158.35
151.81
144.00
135.24
126.19
117.61
110.01
103.46
97.56
91.76
85.61
78.95
72.00
65.18
58.91
53.39
48.53
44.03
39.52
34.78
29.87
24.91
20.06
15.29
10.42
5.22
-0.33
-6.02
-11.46
-16.34
-20.66
-24.79
-29.19
-34.15
-39.62
-45.24
-50.57
-55.34
-59.40
-62.58
-64.39
-64.18
-61.28
-55.47
-47.28
-37.81
-28.36
-19.90
-12.79
-6.86
-1.69
2.95
7.04
10.32
12.56
13.75
14.21
14.41
14.83
15.75
17.15
18.82
20.53
22.08
23.39
24.48
25.36
25.95
26.07
25.51
24.12
21.97
19.30
16.48
13.81
11.48
9.44
7.56
5.67
3.64
1.42
-0.99
-3.64
-6.56
-9.79
-13.29
-16.90
-20.41
-23.60
-26.36
-28.71
-30.83
-33.04
-35.69
-39.14
-43.56
-48.83
-54.38
-59.18
-61.97
-61.58
-57.37
-49.51
-38.95
-27.09
-15.40
-4.98
3.62
10.36
15.54
19.58
22.86
25.73
28.38
30.83
33.03
34.86
36.29
37.33
38.06
38.54
38.85
39.01
39.08
39.15
39.30
39.51
39.62
39.39
38.56
36.96
34.65
31.75
28.46
24.95
21.41
18.01
14.94
12.31
10.04
7.89
5.49
2.58
-0.96
-5.02
-9.45
-14.14
-19.05
-24.04
-28.78
-32.83
-35.84
-37.98
-39.93
-42.68
-46.80
-51.97
-56.86
-59.56
-58.45
-52.94
-43.67
-32.15
-20.05
-8.54
1.94
11.43
20.05
27.70
34.06
38.80
41.84
43.44
44.13
44.49
44.93
45.54
46.15
46.41
46.00
44.78
42.89
40.78
38.93
37.71
37.12
36.76
36.05
34.41
31.55
27.55
22.77
17.68
12.77
8.46
5.10
2.87
1.68
1.12
0.50
-0.88
-3.52
-7.45
-12.29
-17.46
-22.47
-27.12
-31.47
-35.76
-40.18
-44.89
-49.97
-55.47
-61.28
-66.96
-71.65
-74.11
-73.15
-68.02
-58.90
-46.81
-33.37
-20.17
-8.36
1.65
9.90
16.63
22.01
26.08
28.87
30.54
31.43
31.95
32.40
32.90
33.39
33.78
33.99
34.15
34.41
34.91
35.67
36.52
37.19
37.36
36.88
35.68
33.90
31.73
29.37
26.95
24.49
22.04
19.63
17.34
15.22
13.31
11.54
9.82
8.03
6.04
3.88
1.59
-0.71
-2.91
-4.97
-6.99
-9.17
-11.74
-14.88
-18.53
-22.48
-26.38
-29.93
-33.03
-35.78
-38.55
-41.77
-45.88
-51.02
-56.93
-62.80
-67.38
-69.36
-67.74
-62.22
-53.32
-42.20
-30.24
-18.73
-8.53
-0.06
6.57
11.44
14.78
16.90
18.15
18.90
19.39
19.72
19.91
19.97
19.97
20.02
20.23
20.54
20.80
20.76
20.20
19.06
17.43
15.43
13.14
10.41
7.02
2.73
-2.52
-8.58
-15.12
-21.81
-28.47
-35.09
-41.72
-48.27
-54.41
-59.67
-63.68
-66.44
-68.42
-70.36
-72.89
-76.26
-80.31
-84.66
-89.15
-93.90
-99.20
-105.18
-111.58
-117.72
-123.09
-127.63
-132.01
-137.18
-143.76
-151.50
-159.10
-164.84
-167.34
-166.24
-162.29
-156.98
-151.77
-147.59
-144.49
-141.78
-138.31
-132.77
-124.07
-111.51
-94.88
-74.54
-51.20
-25.71
1.17
28.88
56.91
84.75
111.78
137.56
162.13
186.28
211.42
239.13
270.46
305.44
342.92
380.72
415.99
445.67
466.82
477.07
475.04
460.75
435.81
403.21
366.72
330.09
296.31
267.11
242.90
223.12
206.48
191.36
176.01
158.58
137.15
110.01
76.50
38.01
-1.62
-36.87
-62.48
-75.62
-77.14
-71.03
-62.49
-55.63
-52.07
-51.06
-50.99
-50.88
-51.00
-52.36
-55.60
-60.26
-64.94
-68.08
-68.79
-67.11
-63.70
-59.38
-54.93
-50.78
-47.10
-43.70
-40.27
-36.50
-32.34
-28.29
-25.28
-24.39
-26.23
-30.41
-35.49
-39.41
-40.35
-37.50
-31.37
-23.48
-15.54
-8.71
-3.36
0.77
4.03
6.50
7.86
7.69
5.71
2.03
-2.91
-8.57
-14.52
-20.43
-25.97
-30.73
-34.25
-36.16
-36.39
-35.20
-33.09
-30.50
-27.70
-24.80
-21.84
-18.95
-16.41
-14.49
-13.33
-12.85
-12.76
-12.78
-12.76
-12.73
-12.94
-13.68
-15.15
-17.39
-20.25
-23.53
-27.01
-30.54
-33.96
-37.15
-39.98
-42.37
-44.16
-45.33
-45.90
-45.99
-45.82
-45.62
-45.54
-45.65
-45.93
-46.36
-46.95
-47.71
-48.60
-49.47
-50.11
-50.27
-49.82
-48.75
-47.11
-45.03
-42.49
-39.50
-36.09
-32.36
-28.54
-24.92
-21.73
-19.07
-16.94
-15.21
-13.71
-12.24
-10.64
-8.80
-6.77
-4.77
-3.05
-1.87
-1.37
-1.52
-2.13
-3.00
-3.90
-4.76
-5.55
-6.27
-6.94
-7.56
-8.07
-8.46
-8.70
-8.86
-8.98
-9.09
-9.20
-9.21
-9.02
-8.61
-8.14
-7.85
-8.03
-8.82
-10.06
-11.35
-12.08
-11.71
-9.91
-6.82
-2.94
0.91
3.96
5.66
5.93
5.06
3.51
1.71
-0.13
-1.95
-3.73
-5.34
-6.57
-7.16
-7.07
-6.51
-5.91
-5.66
-5.97
-6.73
-7.58
-8.11
-8.08
-7.47
-6.53
-5.62
-5.05
-5.04
-5.56
-6.38
-7.19
-7.64
-7.52
-6.77
-5.50
-3.88
-2.17
-0.67
0.36
0.72
0.39
-0.46
-1.49
-2.32
-2.70
-2.60
-2.17
-1.61
-1.03
-0.35
0.69
2.30
4.55
7.19
9.70
11.38
11.63
10.29
7.74
4.96
3.04
2.83
4.48
7.38
10.38
12.32
12.40
10.47
6.96
2.55
-2.06
-6.30
-9.79
-12.30
-13.72
-14.09
-13.60
-12.60
-11.53
-10.74
-10.49
-10.81
-11.54
-12.41
-13.08
-13.36
-13.22
-12.88
-12.66
-12.85
-13.59
-14.73
-15.91
-16.75
-16.91
-16.25
-14.90
-13.08
-11.04
-9.01
-7.08
-5.32
-3.72
-2.35
-1.18
-0.20
0.64
1.36
1.88
2.11
1.88
1.11
-0.14
-1.64
-3.07
-4.01
-4.16
-3.45
-2.02
-0.28
1.18
1.79
1.13
-0.97
-4.25
-8.14
-11.92
-14.86
-16.60
-17.13
-16.83
-16.26
-15.83
-15.65
-15.54
-15.27
-14.65
-13.83
-13.18
-13.13
-14.01
-15.90
-18.62
-21.78
-24.74
-26.68
-26.73
-24.25
-19.03
-11.44
-2.34
7.16
16.01
23.35
28.68
31.87
33.12
32.93
31.88
30.53
29.11
27.58
25.57
22.79
19.15
14.96
10.79
7.20
4.55
2.85
1.86
1.28
0.84
0.41
-0.00
-0.39
-0.75
-1.13
-1.61
-2.25
-3.04
-3.92
-4.85
-5.76
-6.62
-7.35
-7.85
-8.00
-7.79
-7.33
-6.84
-6.61
-6.85
-7.61
-8.79
-10.18
-11.49
-12.51
-13.05
-13.03
-12.40
-11.21
-9.60
-7.83
-6.26
-5.23
-4.92
-5.26
-5.98
-6.72
-7.23
-7.48
-7.58
-7.73
-7.99
-8.30
-8.48
-8.40
-8.09
-7.66
-7.30
-7.07
-6.90
-6.52
-5.67
-4.22
-2.33
-0.38
1.03
1.40
0.54
-1.32
-3.57
-5.49
-6.58
-6.78
-6.37
-5.87
-5.62
-5.69
-5.90
-6.09
-6.30
-6.80
-7.88
-9.58
-11.49
-12.95
-13.36
-12.42
-10.33
-7.56
-4.57
-1.65
1.21
4.04
6.85
9.49
11.81
13.71
15.21
16.40
17.31
18.02
18.65
19.38
20.41
21.81
23.44
25.03
26.30
27.03
27.23
26.89
26.02
24.61
22.67
20.41
18.18
16.26
14.77
13.42
11.72
9.17
5.58
1.06
-3.92
-8.87
-13.32
-17.01
-19.75
-21.50
-22.20
-21.88
-20.72
-19.09
-17.42
-16.18
-15.63
-15.74
-16.28
-16.86
-17.10
-16.81
-15.92
-14.48
-12.57
-10.24
-7.58
-4.78
-2.14
-0.03
1.26
1.64
1.41
1.07
1.18
2.03
3.64
5.67
7.68
9.33
10.45
11.14
11.58
11.97
12.42
12.91
13.35
13.64
13.60
13.16
12.29
11.16
10.03
9.13
8.57
8.26
7.96
7.43
6.66
5.84
5.25
5.12
5.39
5.71
5.60
4.61
2.50
-0.71
-4.74
-9.08
-12.96
-15.52
-15.99
-14.01
-9.85
-4.50
0.74
4.57
6.33
6.12
4.72
3.17
2.27
2.32
3.10
4.08
4.73
4.76
4.17
3.05
1.54
-0.31
-2.48
-4.81
-6.94
-8.45
-8.96
-8.44
-7.19
-5.82
-4.86
-4.63
-5.01
-5.57
-5.81
-5.42
-4.42
-3.12
-1.91
-1.14
-1.02
-1.55
-2.66
-4.24
-6.17
-8.20
-10.06
-11.35
-11.79
-11.28
-9.96
-8.20
-6.38
-4.76
-3.43
-2.36
-1.40
-0.49
0.43
1.29
2.03
2.67
3.23
3.78
4.31
4.74
4.88
4.61
3.96
3.09
2.34
2.03
2.35
3.22
4.33
5.24
5.55
5.07
3.84
2.12
0.26
-1.45
-2.86
-3.95
-4.74
-5.19
-5.19
-4.62
-3.44
-1.86
-0.19
1.15
1.83
1.67
0.62
-1.21
-3.59
-6.11
-8.32
-9.75
-10.09
-9.31
-7.66
-5.53
-3.31
-1.29
0.41
1.72
2.64
3.22
3.55
3.70
3.76
3.71
3.47
2.93
2.01
0.80
-0.56
-1.79
-2.71
-3.21
-3.26
-2.96
-2.47
-1.98
-1.62
-1.42
-1.33
-1.20
-0.90
-0.32
0.53
1.58
2.74
3.95
5.10
6.10
6.80
6.99
6.49
5.19
3.19
0.76
-1.65
-3.57
-4.57
-4.42
-3.14
-0.96
1.69
4.36
6.66
8.34
9.32
9.70
9.71
9.54
9.40
9.48
9.86
10.57
11.52
12.47
13.14
13.26
12.67
11.43
9.76
7.93
6.16
4.56
3.09
1.68
0.26
-1.15
-2.47
-3.59
-4.40
-4.86
-4.95
-4.78
-4.50
-4.35
-4.55
-5.32
-6.79
-8.92
-11.41
-13.78
-15.45
-16.00
-15.20
-13.11
-9.98
-6.13
-1.89
2.44
6.52
9.87
12.03
12.64
11.71
9.58
6.91
4.37
2.47
1.37
1.00
1.17
1.68
2.39
3.15
3.82
4.17
4.04
3.37
2.32
1.16
0.21
-0.30
-0.30
0.15
0.88
1.65
2.24
2.51
2.42
2.01
1.37
0.63
-0.14
-0.91
-1.68
-2.38
-2.91
-3.15
-3.01
-2.53
-1.80
-0.93
-0.03
0.90
1.83
2.77
3.72
4.73
5.86
7.24
8.87
10.63
12.28
13.49
14.06
13.94
13.33
12.44
11.45
10.41
9.24
7.83
6.13
4.25
2.33
0.53
-1.14
-2.71
-4.26
-5.76
-7.01
-7.74
-7.74
-7.05
-5.94
-4.87
-4.32
-4.59
-5.73
-7.57
-9.80
-12.01
-13.79
-14.77
-14.71
-13.51
-11.30
-8.33
-4.84
-0.93
3.42
8.30
13.66
19.14
24.06
27.67
29.35
29.01
27.04
24.18
21.19
18.48
16.05
13.63
10.99
8.22
5.74
4.10
3.62
4.19
5.25
5.97
5.67
4.10
1.51
-1.49
-4.22
-6.12
-7.02
-7.06
-6.64
-6.20
-6.04
-6.34
-7.05
-8.05
-9.15
-10.24
-11.27
-12.23
-13.05
-13.55
-13.46
-12.51
-10.64
-8.08
-5.33
-2.90
-1.17
-0.16
0.37
0.79
1.38
2.20
3.08
3.78
4.14
4.16
3.95
3.64
3.32
3.03
2.76
2.47
2.09
1.54
0.71
-0.50
-2.08
-3.87
-5.55
-6.76
-7.22
-6.88
-5.93
-4.72
-3.60
-2.86
-2.69
-3.11
-4.02
-5.21
-6.34
-7.08
-7.09
-6.22
-4.49
-2.01
1.00
4.35
7.86
11.34
14.54
17.24
19.29
20.62
21.20
21.11
20.46
19.51
18.53
17.78
17.38
17.19
16.83
15.81
13.74
10.49
6.35
1.93
-2.02
-4.95
-6.71
-7.71
-8.69
-10.45
-13.41
-17.39
-21.73
-25.59
-28.22
-29.29
-28.87
-27.25
-24.79
-21.87
-18.80
-15.87
-13.40
-11.61
-10.60
-10.27
-10.34
-10.35
-9.81
-8.35
-5.82
-2.42
1.38
5.00
7.91
9.80
10.60
10.46
9.61
8.30
6.85
5.57
4.79
4.73
5.43
6.62
7.75
8.17
7.36
5.13
1.78
-2.10
-5.81
-8.79
-10.84
-12.02
-12.58
-12.77
-12.70
-12.34
-11.66
-10.56
-9.06
-7.19
-5.07
-2.84
-0.69
1.19
2.62
3.44
3.61
3.19
2.33
1.30
0.40
-0.13
-0.24
-0.03
0.26
0.41
0.40
0.41
0.80
1.90
3.90
6.67
9.84
12.89
15.33
16.82
17.24
16.59
15.04
12.81
10.15
7.34
4.70
2.48
0.97
0.26
0.37
1.10
2.16
3.18
3.81
3.81
3.01
1.39
-0.96
-3.84
-6.94
-9.84
-12.15
-13.61
-14.14
-13.92
-13.20
-12.25
-11.15
-9.82
-8.20
-6.33
-4.42
-2.81
-1.83
-1.53
-1.78
-2.21
-2.42
-2.20
-1.45
-0.25
1.36
3.30
5.55
7.98
10.36
12.38
13.67
14.04
13.49
12.29
10.87
9.73
9.17
9.23
9.59
9.71
9.11
7.49
4.88
1.61
-1.83
-4.96
-7.47
-9.23
-10.34
-11.09
-11.93
-13.34
-15.60
-18.57
-21.65
-23.90
-24.42
-22.89
-19.75
-16.17
-13.57
-12.99
-14.71
-18.19
-22.38
-26.29
-29.38
-31.74
-33.96
-36.80
-40.83
-46.20
-52.66
-59.65
-66.65
-73.44
-80.14
-87.27
-95.50
-105.36
-117.04
-130.28
-144.55
-159.22
-173.83
-188.27
-202.67
-217.45
-233.25
-251.02
-271.75
-295.90
-322.62
-349.25
-371.60
-385.05
-386.31
-374.65
-352.35
-323.63
-293.00
-263.70
-237.11
-213.21
-191.42
-171.47
-153.51
-137.75
-123.98
-111.41
-99.03
-86.08
-72.53
-58.93
-46.27
-35.36
-26.46
-19.25
-12.95
-6.74
-0.13
6.89
13.92
20.38
25.93
30.56
34.68
38.83
43.39
48.48
53.82
59.00
63.68
67.88
71.93
76.37
81.66
87.97
95.04
102.38
109.57
116.52
123.58
131.45
140.84
152.12
165.10
179.16
193.47
207.39
220.73
233.79
247.26
262.01
279.08
299.39
323.30
349.96
376.84
399.92
414.69
417.69
407.86
387.06
359.23
328.92
299.60
272.91
248.86
226.86
206.48
187.84
171.29
156.93
144.33
132.70
121.27
109.78
98.54
88.23
79.52
72.66
67.36
62.90
58.42
53.32
47.46
41.22
35.25
30.16
26.25
23.38
21.08
18.86
16.38
13.60
10.69
7.90
5.38
3.15
1.17
-0.62
-2.16
-3.33
-3.99
-4.10
-3.79
-3.32
-3.00
-3.08
-3.61
-4.43
-5.27
-5.87
-6.07
-5.91
-5.55
-5.24
-5.15
-5.39
-5.99
-6.89
-8.00
-9.20
-10.33
-11.20
-11.64
-11.51
-10.82
-9.68
-8.30
-6.94
-5.77
-4.86
-4.15
-3.52
-2.87
-2.21
-1.59
-1.12
-0.82
-0.65
-0.55
-0.45
-0.39
-0.42
-0.61
-0.93
-1.28
-1.57
-1.75
-1.83
-1.94
-2.11
-2.35
-2.57
-2.69
-2.73
-2.79
-3.05
-3.63
-4.53
-5.64
-6.71
-7.55
-8.01
-8.06
-7.84
-7.55
-7.38
-7.48
-7.83
-8.30
-8.66
-8.76
-8.53
-8.06
-7.44
-6.73
-5.93
-5.00
-3.96
-2.94
-2.08
-1.51
-1.23
-1.19
-1.29
-1.49
-1.80
-2.28
-2.94
-3.73
-4.49
-5.05
-5.28
-5.11
-4.58
-3.75
-2.70
-1.52
-0.31
0.79
1.65
2.16
2.25
1.99
1.52
0.98
0.45
-0.08
-0.72
-1.52
-2.50
-3.60
-4.70
-5.75
-6.72
-7.63
-8.47
-9.25
-9.89
-10.28
-10.34
-10.05
-9.50
-8.84
-8.18
-7.54
-6.82
-5.85
-4.48
-2.79
-0.94
0.80
2.22
3.23
3.88
4.26
4.46
4.52
4.40
4.08
3.53
2.78
1.88
0.95
0.08
-0.64
-1.19
-1.59
-1.91
-2.21
-2.54
-2.89
-3.29
-3.76
-4.34
-4.99
-5.67
-6.30
-6.84
-7.30
-7.73
-8.18
-8.63
-9.04
-9.33
-9.38
-9.17
-8.68
-7.97
-7.11
-6.14
-5.10
-3.97
-2.76
-1.49
-0.17
1.17
2.48
3.66
4.51
4.83
4.49
3.52
2.17
0.83
-0.13
-0.55
-0.48
-0.19
0.06
0.14
0.08
-0.06
-0.31
-0.73
-1.42
-2.36
-3.37
-4.15
-4.47
-4.31
-3.79
-3.20
-2.75
-2.55
-2.58
-2.81
-3.20
-3.76
-4.45
-5.22
-5.95
-6.57
-7.01
-7.24
-7.24
-7.02
-6.60
-6.07
-5.58
-5.26
-5.11
-4.98
-4.64
-3.90
-2.76
-1.38
-0.06
0.98
1.70
2.19
2.61
2.98
3.15
2.90
1.95
0.28
-1.95
-4.38
-6.56
-8.13
-8.87
-8.77
-7.91
-6.53
-4.86
-3.19
-1.82
-0.98
-0.85
-1.45
-2.57
-3.88
-4.95
-5.36
-4.95
-3.82
-2.34
-1.02
-0.31
-0.49
-1.45
-2.88
-4.31
-5.36
-5.86
-5.90
-5.75
-5.72
-5.99
-6.53
-7.15
-7.56
-7.56
-7.05
-6.12
-4.91
-3.58
-2.25
-0.98
0.17
1.19
1.99
2.53
2.77
2.69
2.34
1.82
1.26
0.78
0.50
0.43
0.48
0.51
0.36
-0.05
-0.71
-1.57
-2.56
-3.60
-4.68
-5.71
-6.55
-7.00
-6.92
-6.30
-5.32
-4.36
-3.78
-3.83
-4.50
-5.57
-6.69
-7.50
-7.84
-7.67
-7.12
-6.31
-5.38
-4.38
-3.36
-2.38
-1.53
-0.94
-0.67
-0.76
-1.06
-1.45
-1.76
-1.91
-1.91
-1.90
-1.96
-2.10
-2.21
-2.04
-1.48
-0.54
0.50
1.26
1.47
1.07
0.31
-0.44
-0.89
-0.97
-0.89
-0.93
-1.32
-2.05
-2.93
-3.68
-4.09
-4.13
-3.89
-3.57
-3.35
-3.42
-4.02
-5.36
-7.55
-10.40
-13.31
-15.39
-15.76
-13.91
-9.98
-4.67
0.95
5.85
9.33
11.23
11.78
11.45
10.71
9.84
8.94
8.03
7.07
6.08
5.14
4.30
3.54
2.78
1.86
0.73
-0.47
-1.50
-2.07
-2.02
-1.43
-0.53
0.42
1.15
1.59
1.70
1.57
1.25
0.80
0.27
-0.26
-0.75
-1.15
-1.43
-1.67
-1.99
-2.52
-3.34
-4.47
-5.74
-6.94
-7.83
-8.23
-8.20
-7.93
-7.73
-7.80
-8.17
-8.64
-8.87
-8.66
-7.95
-6.93
-5.86
-4.89
-4.02
-3.11
-1.97
-0.54
1.05
2.55
3.64
4.12
3.98
3.38
2.59
1.89
1.46
1.33
1.38
1.41
1.30
1.04
0.76
0.58
0.58
0.70
0.73
0.51
-0.03
-0.81
-1.63
-2.28
-2.67
-2.85
-2.95
-3.15
-3.50
-3.96
-4.37
-4.59
-4.51
-4.19
-3.71
-3.28
-3.07
-3.18
-3.69
-4.57
-5.73
-7.01
-8.19
-9.09
-9.57
-9.60
-9.23
-8.58
-7.75
-6.79
-5.79
-4.83
-3.94
-3.14
-2.35
-1.42
-0.30
0.96
2.15
3.00
3.32
3.08
2.45
1.69
1.06
0.69
0.61
0.75
0.94
1.03
0.92
0.65
0.34
0.26
0.74
2.00
4.07
6.67
9.34
11.52
12.72
12.66
11.30
8.79
5.37
1.36
-2.97
-7.24
-11.07
-13.98
-15.59
-15.71
-14.41
-12.07
-9.22
-6.40
-3.99
-2.19
-1.02
-0.35
0.03
0.34
0.75
1.36
2.11
2.88
3.52
3.93
4.13
4.15
4.04
3.84
3.50
2.99
2.33
1.54
0.69
-0.20
-1.15
-2.20
-3.33
-4.49
-5.53
-6.36
-6.90
-7.15
-7.12
-6.90
-6.56
-6.18
-5.94
-5.96
-6.36
-7.09
-7.99
-8.71
-9.01
-8.71
-7.85
-6.63
-5.29
-4.00
-2.82
-1.74
-0.70
0.24
1.02
1.55
1.88
2.14
2.52
3.08
3.68
4.08
3.95
3.18
1.91
0.47
-0.76
-1.55
-1.92
-2.11
-2.33
-2.72
-3.20
-3.55
-3.61
-3.35
-2.98
-2.77
-2.95
-3.54
-4.34
-5.04
-5.40
-5.38
-5.07
-4.64
-4.21
-3.86
-3.62
-3.59
-3.91
-4.72
-6.03
-7.61
-9.03
-9.87
-9.84
-8.97
-7.50
-5.79
-4.10
-2.53
-1.05
0.37
1.71
2.82
3.56
3.91
4.01
4.12
4.47
5.13
5.94
6.60
6.80
6.38
5.35
3.93
2.38
0.97
-0.10
-0.71
-0.83
-0.52
-0.01
0.42
0.46
-0.06
-1.10
-2.43
-3.67
-4.48
-4.72
-4.45
-3.98
-3.68
-3.83
-4.56
-5.82
-7.41
-8.99
-10.30
-11.14
-11.46
-11.42
-11.20
-11.02
-10.97
-11.02
-11.05
-10.90
-10.43
-9.50
-8.11
-6.34
-4.39
-2.48
-0.87
0.28
0.90
1.08
0.95
0.67
0.31
-0.09
-0.57
-1.12
-1.70
-2.19
-2.52
-2.57
-2.27
-1.60
-0.60
0.65
2.00
3.25
4.21
4.68
4.59
3.92
2.81
1.57
0.61
0.36
1.15
2.98
5.52
8.16
10.33
11.79
12.73
13.65
15.06
17.17
19.70
22.04
23.56
23.95
23.27
21.87
20.12
18.24
16.30
14.30
12.31
10.51
9.18
8.46
8.45
8.98
9.79
10.49
10.69
10.12
8.69
6.63
4.34
2.32
0.83
-0.15
-0.94
-1.88
-3.19
-4.86
-6.71
-8.59
-10.39
-12.07
-13.62
-14.89
-15.70
-15.87
-15.33
-14.12
-12.38
-10.25
-7.84
-5.30
-2.70
-0.22
1.97
3.77
5.15
6.13
6.77
7.17
7.40
7.56
7.74
8.01
8.38
8.84
9.36
9.85
10.24
10.40
10.22
9.61
8.52
6.97
5.00
2.70
0.11
-2.64
-5.39
-7.91
-9.92
-11.27
-12.04
-12.52
-13.15
-14.25
-15.89
-17.84
-19.68
-20.98
-21.44
-20.97
-19.69
-17.76
-15.40
-12.75
-10.04
-7.57
-5.65
-4.52
-4.15
-4.22
-4.25
-3.79
-2.69
-1.17
0.26
1.14
1.18
0.49
-0.57
-1.63
-2.49
-3.22
-3.96
-4.79
-5.60
-6.12
-6.08
-5.42
-4.40
-3.52
-3.33
-4.17
-6.06
-8.64
-11.41
-13.84
-15.64
-16.76
-17.35
-17.59
-17.63
-17.49
-17.12
-16.43
-15.34
-13.86
-11.99
-9.75
-7.15
-4.27
-1.25
1.69
4.30
6.44
8.05
9.16
9.88
10.25
10.24
9.79
8.92
7.77
6.62
5.83
5.60
5.98
6.78
7.73
8.59
9.27
9.82
10.33
10.81
11.15
11.10
10.49
9.28
7.67
6.03
4.76
4.14
4.19
4.75
5.47
6.05
6.34
6.32
6.05
5.61
5.00
4.15
3.01
1.66
0.35
-0.62
-0.97
-0.59
0.37
1.61
2.79
3.69
4.24
4.48
4.46
4.09
3.20
1.52
-1.14
-4.75
-9.02
-13.46
-17.49
-20.59
-22.41
-22.78
-21.70
-19.28
-15.68
-11.22
-6.39
-1.82
1.75
3.78
3.99
2.58
0.17
-2.37
-4.20
-4.75
-3.88
-1.87
0.71
3.23
5.25
6.63
7.48
8.04
8.48
8.78
8.81
8.43
7.59
6.44
5.27
4.33
3.76
3.54
3.56
3.64
3.62
3.35
2.76
1.86
0.78
-0.25
-0.95
-1.13
-0.90
-0.60
-0.80
-2.06
-4.60
-8.16
-12.01
-15.12
-16.59
-15.95
-13.34
-9.49
-5.47
-2.32
-0.74
-0.93
-2.55
-4.91
-7.13
-8.34
-7.93
-5.67
-1.80
3.03
7.94
12.07
14.84
16.05
15.89
14.73
13.02
11.20
9.66
8.77
8.91
10.33
13.08
16.78
20.68
23.82
25.31
24.59
21.62
16.91
11.24
5.43
0.11
-4.37
-7.86
-10.30
-11.66
-11.87
-10.92
-9.02
-6.56
-4.09
-2.17
-1.17
-1.13
-1.82
-2.80
-3.70
-4.39
-5.03
-5.98
-7.63
-10.13
-13.34
-16.86
-20.14
-22.70
-24.14
-24.18
-22.72
-19.86
-16.02
-11.89
-8.27
-5.82
-4.85
-5.17
-6.27
-7.52
-8.47
-8.90
-8.89
-8.58
-8.07
-7.43
-6.65
-5.71
-4.65
-3.65
-2.82
-2.32
-2.14
-2.13
-2.08
-1.82
-1.22
-0.30
0.91
2.29
3.71
5.00
5.97
6.45
6.40
5.88
5.06
4.10
3.06
1.88
0.49
-1.17
-3.04
-5.03
-7.05
-9.02
-10.86
-12.43
-13.52
-13.90
-13.43
-12.16
-10.25
-7.93
-5.38
-2.74
-0.12
2.36
4.53
6.30
7.65
8.65
9.45
10.17
10.88
11.58
12.23
12.70
12.78
12.27
11.05
9.17
6.94
4.86
3.49
3.19
3.98
5.61
7.62
9.55
11.06
11.98
12.28
12.03
11.41
10.57
9.78
9.17
8.80
8.51
8.00
6.97
5.24
2.92
0.37
-1.97
-3.79
-5.09
-6.17
-7.44
-9.10
-11.10
-13.09
-14.60
-15.29
-15.00
-13.73
-11.49
-8.41
-4.71
-0.83
2.58
4.83
5.52
4.72
2.95
0.98
-0.54
-1.25
-1.16
-0.47
0.64
2.07
3.75
5.52
7.02
7.83
7.58
6.19
3.99
1.58
-0.35
-1.34
-1.33
-0.69
-0.00
0.25
-0.15
-1.05
-2.07
-2.87
-3.28
-3.37
-3.36
-3.52
-3.97
-4.67
-5.48
-6.20
-6.63
-6.69
-6.30
-5.50
-4.35
-3.00
-1.60
-0.30
0.75
1.56
2.16
2.60
2.96
3.28
3.58
3.83
4.00
4.05
3.89
3.43
2.64
1.63
0.62
-0.02
-0.02
0.76
2.11
3.63
4.82
5.28
4.88
3.74
2.18
0.53
-0.99
-2.37
-3.64
-4.86
-5.94
-6.64
-6.82
-6.40
-5.66
-5.03
-5.02
-5.92
-7.68
-9.96
-12.21
-13.90
-14.55
-13.81
-11.46
-7.48
-2.24
3.49
8.61
12.08
13.34
12.61
10.73
8.83
7.72
7.57
7.90
8.01
7.38
5.98
4.22
2.63
1.50
0.82
0.31
-0.23
-0.80
-1.20
-1.19
-0.73
0.01
0.58
0.65
0.05
-1.09
-2.41
-3.53
-4.17
-4.25
-3.84
-3.19
-2.60
-2.44
-2.99
-4.37
-6.44
-8.83
-10.99
-12.42
-12.86
-12.35
-11.14
-9.58
-7.88
-6.15
-4.37
-2.59
-0.84
0.74
2.04
3.00
3.64
4.01
4.11
3.95
3.52
2.83
1.97
1.08
0.32
-0.19
-0.36
-0.19
0.26
0.89
1.51
1.98
2.18
2.06
1.65
1.01
0.22
-0.61
-1.43
-2.18
-2.83
-3.38
-3.87
-4.39
-5.03
-5.90
-6.99
-8.22
-9.39
-10.27
-10.68
-10.49
-9.69
-8.32
-6.53
-4.48
-2.38
-0.46
1.11
2.19
2.72
2.77
2.45
1.89
1.23
0.54
-0.10
-0.59
-0.90
-1.03
-1.11
-1.38
-2.08
-3.32
-5.01
-6.84
-8.31
-8.93
-8.32
-6.36
-3.26
0.42
3.88
6.30
7.15
6.44
4.79
3.22
2.62
3.39
5.19
7.18
8.44
8.38
6.95
4.48
1.47
-1.74
-4.89
-7.72
-9.82
-10.61
-9.60
-6.68
-2.26
2.81
7.48
10.94
12.78
13.01
12.04
10.32
8.30
6.26
4.37
2.69
1.20
-0.07
-1.09
-1.77
-1.99
-1.58
-0.41
1.52
4.09
6.88
9.34
10.89
11.12
9.98
7.89
5.52
3.64
2.76
3.00
4.14
5.73
7.36
8.75
9.80
10.45
10.59
10.08
8.89
7.14
5.15
3.27
1.73
0.50
-0.58
-1.65
-2.66
-3.32
-3.27
-2.31
-0.60
1.38
2.99
3.70
3.38
2.28
0.88
-0.32
-1.08
-1.47
-1.71
-2.11
-2.78
-3.60
-4.33
-4.69
-4.54
-3.90
-2.97
-1.98
-1.11
-0.44
0.07
0.52
0.99
1.39
1.55
1.15
-0.06
-2.12
-4.82
-7.69
-10.24
-12.05
-12.94
-12.95
-12.24
-11.02
-9.50
-7.81
-6.07
-4.39
-2.87
-1.54
-0.39
0.58
1.38
1.93
2.18
2.09
1.79
1.52
1.62
2.39
3.92
6.03
8.24
9.95
10.65
10.11
8.44
6.03
3.36
0.84
-1.29
-2.95
-4.13
-4.85
-5.16
-5.13
-4.90
-4.62
-4.37
-4.15
-3.89
-3.54
-3.12
-2.80
-2.72
-2.96
-3.41
-3.79
-3.76
-3.10
-1.83
-0.12
1.72
3.40
4.75
5.70
6.35
6.85
7.35
7.96
8.70
9.54
10.36
11.00
11.30
11.09
10.24
8.68
6.45
3.74
0.88
-1.65
-3.40
-4.10
-3.70
-2.50
-0.98
0.36
1.26
1.69
1.90
2.15
2.61
3.16
3.44
3.00
1.54
-0.92
-4.00
-7.07
-9.49
-10.84
-10.99
-10.20
-8.79
-7.10
-5.26
-3.27
-1.08
1.29
3.70
5.96
7.90
9.51
10.86
11.94
12.63
12.64
11.75
9.96
7.64
5.40
3.83
3.17
3.21
3.40
3.14
2.08
0.27
-1.95
-4.10
-5.80
-6.91
-7.49
-7.67
-7.62
-7.46
-7.26
-7.14
-7.22
-7.71
-8.82
-10.63
-12.97
-15.44
-17.44
-18.41
-18.09
-16.56
-14.22
-11.55
-8.89
-6.30
-3.64
-0.65
2.81
6.58
10.35
13.73
16.35
17.98
18.53
17.96
16.43
14.25
11.83
9.62
7.91
6.71
5.78
4.78
3.54
2.15
0.84
-0.15
-0.74
-1.12
-1.55
-2.21
-3.06
-3.91
-4.63
-5.18
-5.69
-6.36
-7.30
-8.50
-9.77
-10.91
-11.74
-12.17
-12.14
-11.67
-10.79
-9.50
-7.86
-5.88
-3.64
-1.31
0.93
2.88
4.37
5.34
5.83
5.92
5.73
5.34
4.80
4.17
3.50
2.83
2.21
1.67
1.25
1.06
1.25
1.87
2.82
3.80
4.43
4.40
3.69
2.48
1.15
0.03
-0.79
-1.38
-1.91
-2.50
-3.09
-3.61
-4.01
-4.41
-5.02
-6.00
-7.32
-8.68
-9.65
-9.82
-9.02
-7.40
-5.39
-3.38
-1.67
-0.28
0.91
2.03
3.08
3.96
4.50
4.66
4.52
4.26
4.03
3.87
3.69
3.33
2.67
1.69
0.49
-0.77
-1.88
-2.65
-2.85
-2.38
-1.20
0.56
2.61
4.63
6.27
7.29
7.56
7.06
5.79
3.85
1.45
-1.15
-3.60
-5.67
-7.30
-8.60
-9.74
-10.77
-11.53
-11.71
-11.10
-9.66
-7.72
-5.71
-4.01
-2.73
-1.75
-0.84
0.14
1.16
2.05
2.58
2.70
2.44
2.01
1.62
1.50
1.80
2.60
3.78
5.02
5.88
6.00
5.37
4.40
3.87
4.41
6.26
9.11
12.18
14.66
15.98
15.99
14.80
12.70
10.03
7.32
5.26
4.57
5.62
7.98
10.50
11.69
10.52
6.91
1.83
-3.21
-6.96
-8.94
-9.47
-9.25
-8.87
-8.46
-7.85
-6.88
-5.69
-4.75
-4.50
-5.16
-6.43
-7.68
-8.21
-7.58
-5.74
-3.14
-0.46
1.61
2.71
2.84
2.34
1.71
1.27
1.10
1.03
0.82
0.33
-0.41
-1.24
-2.07
-2.84
-3.67
-4.60
-5.58
-6.42
-6.94
-7.09
-7.08
-7.31
-8.14
-9.72
-11.78
-13.75
-14.94
-14.86
-13.42
-10.88
-7.77
-4.59
-1.69
0.82
2.93
4.71
6.19
7.43
8.47
9.30
9.89
10.10
9.79
8.84
7.28
5.30
3.21
1.34
-0.05
-0.79
-0.89
-0.42
0.47
1.59
2.81
4.00
5.17
6.39
7.76
9.31
10.88
12.04
12.26
11.02
8.10
3.69
-1.58
-6.84
-11.19
-14.09
-15.38
-15.33
-14.40
-13.05
-11.52
-9.85
-7.92
-5.62
-3.01
-0.27
2.28
4.41
6.08
7.42
8.72
10.19
11.86
13.55
14.92
15.69
15.73
15.19
14.33
13.40
12.51
11.55
10.25
8.44
6.12
3.56
1.18
-0.63
-1.63
-1.80
-1.26
-0.28
0.82
1.75
2.22
2.07
1.31
0.09
-1.34
-2.75
-3.99
-4.99
-5.78
-6.42
-7.01
-7.67
-8.50
-9.56
-10.75
-11.85
-12.53
-12.56
-11.92
-10.75
-9.33
-7.87
-6.48
-5.16
-3.87
-2.64
-1.52
-0.57
0.22
0.89
1.43
1.81
1.94
1.75
1.25
0.55
-0.26
-1.07
-1.83
-2.48
-2.96
-3.17
-3.08
-2.76
-2.35
-2.03
-1.83
-1.68
-1.43
-0.97
-0.38
0.12
0.28
-0.09
-0.90
-1.87
-2.61
-2.94
-2.86
-2.66
-2.62
-2.95
-3.54
-4.09
-4.26
-3.87
-2.99
-1.88
-0.82
0.05
0.80
1.60
2.59
3.79
5.05
6.12
6.83
7.19
7.38
7.72
8.49
9.83
11.63
13.60
15.33
16.54
17.15
17.34
17.45
17.71
18.06
18.19
17.67
16.19
13.82
10.94
8.08
5.67
3.78
2.19
0.56
-1.34
-3.51
-5.65
-7.52
-8.94
-10.02
-11.04
-12.27
-13.89
-15.78
-17.65
-19.08
-19.72
-19.34
-17.96
-15.76
-13.07
-10.23
-7.56
-5.27
-3.47
-2.18
-1.31
-0.72
-0.23
0.32
1.06
2.00
3.04
4.05
4.88
5.42
5.68
5.71
5.59
5.38
5.11
4.75
4.30
3.77
3.27
2.92
2.83
3.06
3.53
4.07
4.43
4.41
3.87
2.86
1.51
0.05
-1.34
-2.53
-3.52
-4.35
-5.13
-5.94
-6.83
-7.83
-8.94
-10.20
-11.65
-13.30
-15.08
-16.72
-17.84
-18.10
-17.28
-15.40
-12.76
-9.79
-6.86
-4.19
-1.86
0.16
1.88
3.31
4.48
5.49
6.46
7.50
8.53
9.34
9.64
9.23
8.13
6.69
5.40
4.69
4.76
5.37
6.07
6.35
5.96
4.93
3.53
2.08
0.75
-0.45
-1.58
-2.68
-3.66
-4.42
-4.93
-5.25
-5.55
-5.91
-6.38
-6.91
-7.51
-8.20
-9.05
-9.99
-10.79
-10.98
-10.13
-7.99
-4.68
-0.64
3.53
7.27
10.27
12.43
13.86
14.80
15.47
15.99
16.34
16.35
15.75
14.40
12.34
9.89
7.57
5.85
4.97
4.82
5.04
5.15
4.77
3.66
1.73
-1.03
-4.55
-8.57
-12.51
-15.55
-16.79
-15.64
-12.10
-6.86
-1.05
4.14
7.90
10.04
10.83
10.75
10.20
9.28
7.93
6.15
4.06
2.03
0.43
-0.42
-0.49
0.05
1.00
2.16
3.54
5.21
7.24
9.52
11.73
13.38
13.98
13.27
11.33
8.67
6.08
4.36
4.07
5.28
7.62
10.38
12.88
14.59
15.36
15.26
14.46
13.20
11.63
9.96
8.50
7.62
7.59
8.41
9.60
10.30
9.61
7.02
2.75
-2.35
-7.21
-11.08
-13.78
-15.67
-17.21
-18.45
-18.99
-18.20
-15.69
-11.79
-7.41
-3.77
-1.74
-1.54
-2.69
-4.41
-5.99
-7.09
-7.83
-8.48
-9.30
-10.35
-11.47
-12.44
-13.16
-13.66
-14.16
-14.83
-15.69
-16.58
-17.14
-17.08
-16.24
-14.75
-12.92
-11.21
-10.02
-9.56
-9.82
-10.63
-11.71
-12.74
-13.44
-13.62
-13.14
-11.98
-10.22
-8.04
-5.61
-3.10
-0.57
1.95
4.46
6.90
9.13
11.05
12.53
13.55
14.09
14.17
13.81
13.00
11.77
10.21
8.52
6.89
5.52
4.47
3.67
2.97
2.14
1.07
-0.23
-1.61
-2.86
-3.81
-4.39
-4.67
-4.72
-4.60
-4.34
-4.00
-3.70
-3.58
-3.79
-4.31
-4.99
-5.58
-5.95
-6.13
-6.38
-7.00
-8.09
-9.48
-10.73
-11.33
-10.96
-9.65
-7.69
-5.46
-3.23
-1.04
1.16
3.42
5.62
7.49
8.75
9.26
9.07
8.45
7.66
6.85
6.08
5.29
4.48
3.69
3.04
2.56
2.24
1.99
1.74
1.48
1.30
1.29
1.49
1.87
2.32
2.73
3.06
3.31
3.52
3.69
3.77
3.69
3.39
2.93
2.48
2.30
2.50
3.04
3.59
3.83
3.48
2.53
1.23
-0.11
-1.25
-2.24
-3.24
-4.42
-5.68
-6.70
-7.04
-6.43
-4.90
-2.74
-0.38
1.89
3.98
5.92
7.72
9.24
10.23
10.51
10.20
9.71
9.63
10.35
11.87
13.70
15.14
15.58
14.74
12.80
10.20
7.44
4.79
2.31
-0.08
-2.49
-4.84
-6.92
-8.45
-9.27
-9.42
-9.10
-8.63
-8.26
-8.12
-8.08
-8.00
-7.72
-7.19
-6.49
-5.74
-5.09
-4.63
-4.39
-4.39
-4.59
-4.87
-5.11
-5.17
-4.91
-4.39
-3.76
-3.33
-3.42
-4.24
-5.70
-7.51
-9.20
-10.33
-10.67
-10.28
-9.46
-8.55
-7.84
-7.35
-6.91
-6.22
-5.08
-3.42
-1.41
0.68
2.53
3.89
4.68
4.90
4.67
4.14
3.45
2.77
2.31
2.25
2.64
3.36
4.15
4.68
4.76
4.36
3.72
3.16
2.94
3.15
3.65
4.16
4.45
4.47
4.28
4.10
4.09
4.24
4.42
4.49
4.33
3.99
3.59
3.25
2.94
2.45
1.50
-0.11
-2.33
-4.86
-7.24
-9.02
-9.94
-10.00
-9.47
-8.71
-8.07
-7.78
-7.83
-8.07
-8.23
-8.14
-7.71
-7.00
-6.13
-5.19
-4.22
-3.21
-2.11
-0.93
0.30
1.49
2.59
3.60
4.56
5.57
6.70
7.94
9.20
10.31
11.08
11.35
11.02
10.08
8.65
6.91
5.07
3.30
1.81
0.76
0.30
0.53
1.43
2.77
4.19
5.26
5.64
5.18
3.97
2.29
0.50
-1.05
-2.13
-2.60
-2.47
-1.85
-1.03
-0.34
-0.14
-0.71
-2.15
-4.36
-7.09
-9.98
-12.70
-14.95
-16.53
-17.29
-17.16
-16.14
-14.27
-11.70
-8.65
-5.37
-2.14
0.80
3.28
5.24
6.73
7.85
8.73
9.42
9.95
10.27
10.39
10.29
10.05
9.70
9.25
8.74
8.23
7.75
7.31
6.82
6.14
5.13
3.69
1.83
-0.34
-2.67
-5.02
-7.24
-9.14
-10.46
-10.92
-10.41
-9.07
-7.34
-5.78
-4.89
-4.85
-5.48
-6.35
-6.93
-6.89
-6.11
-4.74
-3.09
-1.50
-0.17
0.78
1.41
1.87
2.38
3.11
4.17
5.53
7.07
8.59
9.85
10.64
10.88
10.60
10.00
9.39
9.08
9.16
9.59
10.12
10.43
10.27
9.56
8.38
6.98
5.61
4.42
3.45
2.55
1.55
0.32
-1.17
-2.78
-4.32
-5.68
-6.80
-7.68
-8.40
-8.98
-9.50
-10.07
-10.90
-12.12
-13.75
-15.50
-16.89
-17.41
-16.74
-14.85
-12.03
-8.72
-5.36
-2.30
0.21
2.04
3.11
3.53
3.55
3.47
3.55
3.84
4.18
4.25
3.92
3.28
2.75
2.76
3.57
5.06
6.82
8.32
9.21
9.45
9.22
8.83
8.47
8.15
7.75
7.10
6.15
4.87
3.35
1.64
-0.23
-2.23
-4.28
-6.18
-7.67
-8.42
-8.21
-6.99
-5.08
-3.13
-1.90
-2.04
-3.75
-6.63
-9.78
-12.22
-13.17
-12.45
-10.39
-7.68
-4.99
-2.70
-0.83
0.88
2.69
4.70
6.88
8.99
10.85
12.35
13.48
14.28
14.81
15.07
15.09
14.89
14.51
14.08
13.68
13.45
13.36
13.31
13.07
12.33
10.95
8.97
6.75
4.74
3.35
2.73
2.81
3.40
4.40
5.83
7.66
9.52
10.53
9.50
5.41
-2.06
-12.08
-22.82
-31.92
-37.38
-38.14
-34.50
-27.82
-19.96
-12.72
-7.27
-4.11
-3.04
-3.57
-5.06
-6.89
-8.62
-9.86
-10.35
-9.94
-8.61
-6.51
-4.02
-1.64
0.06
0.65
0.03
-1.50
-3.30
-4.65
-5.08
-4.47
-3.16
-1.66
-0.43
0.33
0.72
0.98
1.33
1.83
2.35
2.70
2.67
2.18
1.25
0.01
-1.38
-2.80
-4.22
-5.71
-7.36
-9.19
-11.18
-13.11
-14.66
-15.52
-15.45
-14.38
-12.45
-9.89
-7.05
-4.24
-1.67
0.49
2.24
3.63
4.80
5.82
6.72
7.47
8.02
8.33
8.40
8.33
8.23
8.27
8.52
9.03
9.69
10.33
10.79
10.94
10.72
10.13
9.23
8.12
6.97
6.00
5.46
5.50
6.11
7.06
7.93
8.31
7.96
6.89
5.41
3.90
2.72
2.08
2.06
2.57
3.45
4.46
5.26
5.54
5.06
3.84
2.22
0.77
0.09
0.54
2.13
4.50
7.09
9.33
10.74
10.95
9.87
7.58
4.39
0.81
-2.62
-5.45
-7.44
-8.58
-9.01
-8.88
-8.37
-7.62
-6.82
-6.26
-6.11
-6.48
-7.28
-8.27
-9.19
-9.90
-10.40
-10.89
-11.58
-12.69
-14.26
-16.12
-17.92
-19.16
-19.40
-18.40
-16.19
-13.10
-9.58
-6.04
-2.79
0.01
2.18
3.53
3.81
2.92
1.01
-1.44
-3.68
-4.98
-4.93
-3.59
-1.39
1.06
3.27
4.98
6.26
7.26
8.18
9.00
9.54
9.57
8.93
7.70
6.23
5.07
4.76
5.70
8.01
11.33
15.03
18.31
20.38
20.86
19.80
17.80
15.75
14.55
14.72
16.17
18.23
19.97
20.56
19.62
17.33
14.28
11.19
8.61
6.79
5.77
5.41
5.53
5.88
6.07
5.60
4.04
1.24
-2.38
-6.00
-8.71
-9.90
-9.72
-8.97
-8.83
-10.29
-13.75
-18.88
-24.75
-30.22
-34.22
-36.14
-35.77
-33.33
-29.26
-24.02
-17.98
-11.42
-4.67
1.86
7.54
11.74
13.96
14.06
12.36
9.55
6.50
4.01
2.62
2.49
3.44
4.97
6.52
7.64
8.17
8.23
8.02
7.74
7.41
7.03
6.55
6.03
5.63
5.43
5.41
5.38
5.08
4.25
2.81
0.87
-1.35
-3.51
-5.24
-6.25
-6.37
-5.69
-4.54
-3.41
-2.74
-2.72
-3.30
-4.23
-5.21
-6.12
-6.98
-7.88
-8.87
-9.89
-10.80
-11.39
-11.55
-11.26
-10.55
-9.51
-8.19
-6.63
-4.88
-2.97
-0.96
1.04
2.94
4.60
5.96
6.97
7.64
7.95
7.85
7.27
6.16
4.58
2.73
0.91
-0.59
-1.59
-2.04
-2.01
-1.56
-0.72
0.55
2.27
4.31
6.36
7.98
8.71
8.23
6.50
3.82
0.70
-2.23
-4.39
-5.50
-5.62
-5.08
-4.45
-4.24
-4.81
-6.19
-8.14
-10.22
-11.98
-13.11
-13.47
-13.07
-12.06
-10.61
-8.92
-7.20
-5.56
-4.07
-2.66
-1.21
0.44
2.38
4.58
6.88
9.03
10.78
11.93
12.38
12.13
11.28
10.01
8.62
7.41
6.65
6.53
7.07
8.21
9.73
11.50
13.34
15.20
16.97
18.44
19.20
18.78
16.91
13.56
9.14
4.27
-0.39
-4.42
-7.71
-10.30
-12.24
-13.40
-13.58
-12.62
-10.68
-8.21
-5.87
-4.23
-3.52
-3.53
-3.73
-3.55
-2.62
-1.04
0.85
2.62
4.04
5.23
6.45
7.87
9.34
10.41
10.49
9.23
6.75
3.63
0.62
-1.71
-3.17
-3.98
-4.51
-5.13
-6.07
-7.29
-8.67
-9.92
-10.71
-10.70
-9.68
-7.64
-4.80
-1.59
1.58
4.33
6.50
7.95
8.58
8.26
6.96
4.88
2.46
0.32
-1.11
-1.61
-1.39
-0.91
-0.68
-1.09
-2.30
-4.29
-6.81
-9.49
-11.82
-13.37
-13.78
-12.98
-11.16
-8.81
-6.48
-4.56
-3.12
-1.98
-0.83
0.55
2.20
3.97
5.71
7.31
8.72
9.84
10.47
10.32
9.23
7.33
5.12
3.23
2.13
1.84
1.95
1.82
0.99
-0.53
-2.30
-3.71
-4.27
-3.90
-2.86
-1.65
-0.63
-0.02
0.20
0.12
-0.19
-0.74
-1.59
-2.78
-4.22
-5.72
-7.04
-8.04
-8.68
-9.12
-9.51
-9.93
-10.28
-10.31
-9.79
-8.63
-6.98
-5.15
-3.49
-2.14
-1.12
-0.28
0.50
1.33
2.20
3.08
3.99
4.89
5.82
6.74
7.65
8.45
9.06
9.42
9.49
9.30
8.90
8.36
7.72
7.00
6.19
5.37
4.69
4.32
4.39
4.87
5.54
6.02
5.95
5.05
3.23
0.63
-2.45
-5.54
-8.17
-9.94
-10.69
-10.54
-9.84
-9.10
-8.78
-9.13
-10.16
-11.72
-13.57
-15.45
-17.11
-18.25
-18.65
-18.13
-16.70
-14.51
-11.83
-8.89
-5.88
-2.81
0.37
3.61
6.78
9.57
11.63
12.74
12.87
12.22
11.11
9.84
8.58
7.30
5.90
4.34
2.76
1.43
0.61
0.36
0.46
0.57
0.37
-0.24
-1.10
-1.93
-2.58
-3.04
-3.47
-4.06
-4.79
-5.49
-5.87
-5.74
-5.12
-4.27
-3.59
-3.43
-3.96
-5.05
-6.32
-7.37
-7.96
-8.05
-7.80
-7.35
-6.67
-5.45
-3.23
0.35
5.28
11.02
16.70
21.36
24.36
25.54
25.20
23.91
22.17
20.30
18.42
16.58
14.79
13.11
11.60
10.22
8.92
7.63
6.45
5.54
5.11
5.24
5.91
6.92
7.98
8.81
9.22
9.11
8.53
7.59
6.43
5.10
3.61
1.90
-0.03
-2.11
-4.21
-6.17
-7.91
-9.42
-10.73
-11.84
-12.65
-12.97
-12.68
-11.76
-10.35
-8.66
-6.85
-5.05
-3.30
-1.65
-0.18
0.95
1.57
1.58
0.98
-0.05
-1.29
-2.47
-3.43
-4.13
-4.64
-5.05
-5.43
-5.78
-6.05
-6.21
-6.27
-6.30
-6.40
-6.65
-7.11
-7.73
-8.39
-8.97
-9.36
-9.57
-9.65
-9.73
-9.89
-10.15
-10.46
-10.76
-11.00
-11.18
-11.33
-11.45
-11.41
-11.01
-9.95
-7.97
-4.92
-0.92
3.72
8.52
12.98
16.76
19.66
21.69
22.98
23.69
23.92
23.70
23.01
21.80
20.06
17.82
15.24
12.55
10.02
7.88
6.25
5.13
4.40
3.84
3.20
2.23
0.80
-1.08
-3.25
-5.37
-7.04
-7.89
-7.69
-6.50
-4.66
-2.77
-1.44
-1.09
-1.83
-3.38
-5.19
-6.59
-7.09
-6.50
-5.02
-3.08
-1.14
0.51
1.86
3.11
4.51
6.22
8.13
10.02
11.60
12.73
13.45
13.96
14.44
14.92
15.30
15.36
14.91
13.90
12.40
10.57
8.65
6.84
5.29
4.07
3.15
2.38
1.59
0.64
-0.58
-2.02
-3.56
-4.98
-6.03
-6.50
-6.34
-5.73
-5.09
-4.99
-5.98
-8.37
-12.00
-16.27
-20.25
-23.05
-24.12
-23.39
-21.31
-18.64
-16.13
-14.28
-13.23
-12.78
-12.55
-12.11
-11.12
-9.36
-6.80
-3.55
0.05
3.51
6.34
8.20
8.98
8.87
8.21
7.39
6.67
6.15
5.79
5.44
4.93
4.10
2.79
1.04
-0.98
-2.89
-4.27
-4.84
-4.57
-3.75
-2.87
-2.37
-2.55
-3.39
-4.64
-5.93
-6.90
-7.32
-7.17
-6.58
-5.87
-5.38
-5.45
-6.28
-7.84
-9.92
-12.15
-14.06
-15.27
-15.52
-14.78
-13.21
-11.12
-8.82
-6.51
-4.29
-2.17
-0.14
1.77
3.50
5.01
6.38
7.81
9.57
11.85
14.63
17.63
20.42
22.55
23.72
23.91
23.33
22.34
21.29
20.38
19.60
18.88
18.04
16.94
15.55
13.91
12.13
10.32
8.55
6.84
5.16
3.42
1.55
-0.49
-2.63
-4.67
-6.41
-7.67
-8.42
-8.83
-9.20
-9.82
-10.91
-12.47
-14.37
-16.39
-18.29
-19.91
-21.10
-21.79
-21.94
-21.64
-21.13
-20.62
-20.28
-20.06
-19.78
-19.14
-17.92
-16.04
-13.59
-10.73
-7.60
-4.33
-1.00
2.24
5.19
7.61
9.36
10.43
10.97
11.23
11.42
11.70
12.08
12.49
12.75
12.73
12.33
11.57
10.60
9.59
8.76
8.26
8.14
8.35
8.73
9.12
9.34
9.28
8.87
8.15
7.18
6.08
4.98
3.93
2.95
2.01
1.13
0.33
-0.25
-0.50
-0.38
0.01
0.44
0.62
0.40
-0.19
-0.92
-1.46
-1.58
-1.19
-0.45
0.42
1.16
1.57
1.57
1.06
-0.02
-1.66
-3.76
-6.04
-8.06
-9.39
-9.81
-9.39
-8.53
-7.69
-7.21
-7.11
-7.16
-6.99
-6.34
-5.18
-3.67
-2.08
-0.54
1.00
2.67
4.56
6.56
8.38
9.60
9.93
9.33
8.01
6.38
4.87
3.78
3.26
3.24
3.59
4.12
4.69
5.21
5.58
5.72
5.54
4.98
4.01
2.72
1.26
-0.12
-1.19
-1.84
-2.08
-2.09
-2.06
-2.07
-2.07
-1.88
-1.33
-0.43
0.63
1.54
2.02
1.92
1.27
0.28
-0.86
-1.96
-2.94
-3.76
-4.41
-4.93
-5.37
-5.85
-6.44
-7.27
-8.32
-9.49
-10.57
-11.30
-11.50
-11.07
-10.02
-8.47
-6.56
-4.43
-2.21
-0.03
1.96
3.68
5.09
6.20
7.04
7.63
7.92
7.84
7.39
6.67
5.90
5.32
5.05
5.01
5.02
4.88
4.52
4.03
3.55
3.20
2.97
2.82
2.71
2.67
2.74
2.89
2.99
2.83
2.26
1.22
-0.16
-1.67
-3.09
-4.23
-4.96
-5.26
-5.12
-4.66
-4.07
-3.59
-3.38
-3.49
-3.82
-4.24
-4.66
-5.04
-5.41
-5.84
-6.30
-6.76
-7.19
-7.53
-7.74
-7.82
-7.74
-7.55
-7.32
-7.15
-7.14
-7.26
-7.34
-7.15
-6.60
-5.75
-4.87
-4.27
-3.99
-3.83
-3.41
-2.35
-0.59
1.55
3.57
4.97
5.52
5.36
4.75
4.09
3.76
4.23
5.97
9.29
14.03
19.45
24.34
27.60
28.68
27.97
26.53
25.54
25.67
26.70
27.79
27.87
26.15
22.41
16.89
10.21
3.14
-3.41
-8.58
-11.66
-12.45
-11.33
-9.17
-7.01
-5.67
-5.49
-6.35
-7.96
-10.04
-12.42
-15.00
-17.47
-19.39
-20.30
-19.93
-18.36
-16.03
-13.52
-11.30
-9.56
-8.19
-7.01
-5.82
-4.62
-3.47
-2.50
-1.72
-1.11
-0.55
0.04
0.64
1.16
1.49
1.57
1.45
1.35
1.45
1.87
2.56
3.32
3.95
4.35
4.48
4.42
4.24
3.96
3.54
2.96
2.22
1.35
0.46
-0.40
-1.10
-1.54
-1.67
-1.45
-1.02
-0.59
-0.39
-0.52
-0.99
-1.70
-2.49
-3.30
-4.07
-4.73
-5.31
-5.90
-6.81
-8.44
-11.13
-14.93
-19.33
-23.34
-25.74
-25.51
-22.24
-16.23
-8.48
-0.42
6.46
10.96
12.48
11.09
7.49
2.81
-1.70
-5.00
-6.39
-5.65
-2.92
1.41
6.77
12.55
18.12
22.93
26.55
28.79
29.65
29.29
27.87
25.46
22.08
17.80
12.84
7.70
3.06
-0.44
-2.46
-3.15
-3.09
-2.91
-3.07
-3.63
-4.27
-4.63
-4.50
-4.01
-3.51
-3.40
-3.90
-4.97
-6.34
-7.68
-8.70
-9.28
-9.49
-9.55
-9.70
-10.12
-10.76
-11.48
-11.95
-11.92
-11.27
-10.02
-8.39
-6.55
-4.67
-2.83
-1.12
0.39
1.64
2.64
3.55
4.56
5.86
7.40
8.94
10.04
10.26
9.31
7.18
4.17
0.77
-2.33
-4.46
-5.14
-4.16
-1.77
1.41
4.54
6.79
7.55
6.60
4.04
0.31
-4.04
-8.39
-12.15
-14.92
-16.52
-16.98
-16.53
-15.44
-14.02
-12.49
-10.99
-9.63
-8.43
-7.35
-6.30
-5.18
-3.89
-2.45
-0.85
0.76
2.23
3.42
4.17
4.43
4.30
3.95
3.62
3.49
3.60
3.93
4.44
5.12
5.95
6.92
7.95
8.87
9.51
9.70
9.41
8.74
7.86
6.99
6.29
5.82
5.55
5.38
5.18
4.86
4.41
3.91
3.44
3.14
3.11
3.45
4.28
5.61
7.34
9.23
10.87
11.83
11.75
10.50
8.21
5.25
2.09
-0.80
-3.05
-4.53
-5.30
-5.48
-5.32
-5.03
-4.76
-4.61
-4.55
-4.57
-4.59
-4.56
-4.37
-3.96
-3.30
-2.43
-1.47
-0.61
-0.07
-0.01
-0.53
-1.63
-3.15
-4.84
-6.38
-7.55
-8.24
-8.54
-8.64
-8.74
-8.98
-9.37
-9.81
-10.14
-10.24
-10.01
-9.45
-8.55
-7.37
-6.00
-4.50
-2.93
-1.28
0.47
2.34
4.29
6.19
7.86
9.08
9.72
9.69
9.07
8.06
6.98
6.11
5.65
5.60
5.75
5.75
5.31
4.31
2.86
1.31
0.02
-0.74
-0.95
-0.74
-0.38
-0.09
-0.02
-0.16
-0.40
-0.58
-0.59
-0.38
-0.01
0.41
0.73
0.76
0.32
-0.71
-2.31
-4.30
-6.31
-7.92
-8.75
-8.63
-7.60
-5.93
-3.97
-1.98
-0.12
1.60
3.26
4.94
6.70
8.57
10.45
12.18
13.55
14.27
14.20
13.24
11.48
9.11
6.45
3.84
1.62
0.03
-0.77
-0.81
-0.27
0.54
1.32
1.85
2.08
2.10
2.08
2.12
2.26
2.41
2.46
2.31
2.00
1.62
1.24
0.91
0.62
0.38
0.20
0.13
0.16
0.13
-0.38
-1.86
-4.68
-8.83
-13.79
-18.69
-22.54
-24.63
-24.65
-22.68
-19.05
-14.16
-8.42
-2.25
3.78
9.05
12.95
15.07
15.30
13.90
11.40
8.41
5.55
3.30
1.93
1.44
1.64
2.22
2.81
3.14
3.09
2.71
2.18
1.68
1.29
1.02
0.75
0.32
-0.36
-1.27
-2.24
-3.03
-3.39
-3.15
-2.32
-1.13
0.03
0.71
0.58
-0.43
-2.08
-3.90
-5.45
-6.41
-6.75
-6.66
-6.37
-6.07
-5.77
-5.38
-4.74
-3.78
-2.56
-1.22
0.04
1.05
1.71
2.03
2.05
1.92
1.77
1.75
2.02
2.65
3.65
4.92
6.32
7.63
8.71
9.40
9.61
9.24
8.29
6.85
5.13
3.47
2.23
1.64
1.74
2.27
2.76
2.76
1.93
0.21
-2.11
-4.61
-6.80
-8.39
-9.31
-9.77
-10.09
-10.60
-11.44
-12.56
-13.78
-14.87
-15.67
-16.10
-16.07
-15.47
-14.09
-11.72
-8.27
-3.92
0.86
5.45
9.30
12.14
13.95
14.98
15.51
15.70
15.65
15.38
15.00
14.73
14.87
15.58
16.80
18.18
19.12
19.05
17.60
14.81
11.05
6.95
3.14
0.04
-2.21
-3.78
-4.98
-6.06
-7.06
-7.85
-8.24
-8.11
-7.55
-6.84
-6.41
-6.55
-7.37
-8.76
-10.38
-11.84
-12.77
-12.93
-12.24
-10.81
-8.91
-6.85
-4.96
-3.40
-2.16
-1.13
-0.17
0.83
1.88
2.97
4.10
5.23
6.31
7.25
7.86
7.93
7.38
6.22
4.60
2.73
0.85
-0.76
-1.95
-2.56
-2.60
-2.14
-1.36
-0.48
0.30
0.84
1.09
1.10
0.95
0.77
0.68
0.73
0.87
1.01
0.98
0.70
0.17
-0.53
-1.36
-2.29
-3.37
-4.62
-5.98
-7.33
-8.50
-9.30
-9.62
-9.40
-8.69
-7.61
-6.36
-5.17
-4.24
-3.60
-3.06
-2.25
-0.86
1.27
3.96
6.77
9.19
10.90
11.82
12.10
11.97
11.54
10.79
9.66
8.11
6.24
4.27
2.49
1.09
0.19
-0.16
-0.08
0.23
0.47
0.33
-0.43
-1.87
-3.80
-5.86
-7.64
-8.81
-9.24
-8.97
-8.19
-7.15
-6.18
-5.50
-5.18
-5.08
-4.82
-3.99
-2.30
0.22
3.20
6.16
8.71
10.76
12.42
13.96
15.55
17.23
18.98
20.75
22.53
24.30
25.92
27.12
27.62
27.28
26.14
24.50
22.65
20.80
18.98
17.14
15.23
13.32
11.54
9.99
8.64
7.33
5.84
4.00
1.87
-0.28
-2.08
-3.20
-3.48
-3.10
-2.49
-2.18
-2.55
-3.73
-5.61
-7.87
-10.20
-12.35
-14.21
-15.79
-17.24
-18.72
-20.41
-22.46
-24.85
-27.50
-30.17
-32.55
-34.31
-35.09
-34.58
-32.56
-28.99
-24.09
-18.40
-12.66
-7.64
-3.91
-1.68
-0.78
-0.78
-1.18
-1.52
-1.55
-1.21
-0.50
0.54
1.91
3.55
5.29
6.84
7.87
8.12
7.54
6.34
4.84
3.41
2.27
1.50
1.04
0.81
0.68
0.54
0.24
-0.44
-1.73
-3.72
-6.31
-9.19
-11.88
-13.91
-14.96
-14.93
-13.92
-12.18
-10.02
-7.68
-5.31
-3.00
-0.78
1.35
3.35
5.13
6.60
7.69
8.40
8.84
9.15
9.45
9.70
9.75
9.36
8.42
6.95
5.17
3.43
2.00
0.98
0.32
-0.18
-0.77
-1.60
-2.64
-3.80
-4.89
-5.73
-6.20
-6.27
-6.03
-5.64
-5.29
-5.13
-5.21
-5.49
-5.85
-6.21
-6.57
-6.98
-7.50
-8.12
-8.72
-9.05
-8.89
-8.14
-6.93
-5.60
-4.46
-3.73
-3.36
-3.12
-2.71
-1.85
-0.43
1.53
3.91
6.55
9.25
11.79
13.89
15.21
15.46
14.49
12.39
9.51
6.33
3.39
1.10
-0.28
-0.72
-0.32
0.65
1.91
3.12
4.03
4.47
4.42
4.00
3.36
2.69
2.09
1.57
1.10
0.66
0.26
-0.18
-0.77
-1.71
-3.15
-5.09
-7.26
-9.17
-10.27
-10.20
-8.98
-6.98
-4.74
-2.80
-1.37
-0.37
0.51
1.60
3.06
4.80
6.60
8.17
9.31
9.97
10.18
9.96
9.31
8.20
6.67
4.93
3.28
2.06
1.44
1.38
1.62
1.85
1.86
1.66
1.44
1.40
1.67
2.26
3.06
3.99
5.02
6.00
6.67
6.61
5.35
2.63
-1.37
-6.02
-10.38
-13.55
-15.04
-14.85
-13.49
-11.67
-9.94
-8.56
-7.54
-6.70
-5.88
-5.03
-4.19
-3.41
-2.74
-2.14
-1.56
-0.96
-0.32
0.28
0.70
0.82
0.55
-0.09
-0.84
-1.32
-1.14
-0.11
1.70
3.89
5.92
7.29
7.72
7.28
6.23
4.97
3.78
2.80
2.05
1.40
0.79
0.12
-0.65
-1.57
-2.71
-4.00
-5.24
-6.06
-6.11
-5.17
-3.37
-1.10
1.11
2.88
4.17
5.19
6.28
7.65
9.28
10.90
12.22
13.03
13.34
13.34
13.19
12.92
12.35
11.20
9.26
6.56
3.44
0.42
-1.99
-3.54
-4.31
-4.59
-4.72
-4.85
-4.97
-4.90
-4.51
-3.79
-2.85
-1.81
-0.81
0.08
0.77
1.11
0.82
-0.37
-2.57
-5.71
-9.41
-13.19
-16.53
-19.09
-20.69
-21.30
-20.93
-19.60
-17.34
-14.29
-10.77
-7.23
-4.24
-2.24
-1.40
-1.53
-2.20
-2.79
-2.72
-1.55
0.93
4.67
9.39
14.58
19.55
23.52
25.82
26.16
24.74
22.37
20.16
19.05
19.28
20.38
21.36
21.22
19.54
16.53
12.83
9.05
5.42
1.78
-2.13
-6.32
-10.44
-13.99
-16.64
-18.34
-19.37
-19.96
-20.21
-19.93
-18.90
-16.99
-14.34
-11.32
-8.38
-5.94
-4.23
-3.30
-2.96
-2.92
-2.82
-2.36
-1.45
-0.16
1.25
2.50
3.48
4.22
4.86
5.49
6.11
6.56
6.67
6.32
5.52
4.39
3.15
2.03
1.24
1.00
1.36
2.25
3.36
4.33
4.77
4.50
3.50
2.02
0.35
-1.23
-2.52
-3.45
-4.03
-4.39
-4.74
-5.30
-6.26
-7.63
-9.22
-10.70
-11.72
-12.07
-11.72
-10.84
-9.70
-8.51
-7.37
-6.32
-5.30
-4.22
-3.00
-1.52
0.30
2.47
4.88
7.36
9.64
11.39
12.34
12.33
11.40
9.82
8.08
6.75
6.27
6.75
7.90
9.17
9.96
9.91
9.02
7.59
5.97
4.42
3.00
1.60
0.11
-1.53
-3.24
-4.86
-6.20
-7.14
-7.66
-7.82
-7.81
-7.77
-7.83
-8.01
-8.27
-8.54
-8.82
-9.15
-9.56
-10.03
-10.45
-10.59
-10.26
-9.34
-7.89
-6.12
-4.29
-2.57
-1.03
0.40
1.77
3.10
4.27
5.15
5.59
5.60
5.33
4.95
4.60
4.32
4.01
3.56
2.89
2.07
1.23
0.53
0.07
-0.18
-0.38
-0.73
-1.36
-2.29
-3.43
-4.65
-5.87
-7.05
-8.17
-9.17
-9.93
-10.29
-10.12
-9.37
-8.13
-6.60
-5.02
-3.65
-2.64
-2.06
-1.88
-2.01
-2.41
-3.01
-3.82
-4.86
-6.09
-7.37
-8.45
-9.04
-8.94
-8.05
-6.45
-4.33
-1.97
0.30
2.20
3.56
4.44
5.07
5.84
7.08
8.95
11.38
14.12
16.81
19.11
20.73
21.48
21.31
20.41
19.19
18.27
18.24
19.37
21.50
23.90
25.60
25.71
23.79
19.98
14.97
9.73
5.21
2.02
0.36
0.08
0.77
1.86
2.74
2.87
1.82
-0.49
-3.76
-7.34
-10.39
-12.20
-12.39
-10.99
-8.40
-5.14
-1.77
1.25
3.54
4.89
5.24
4.73
3.65
2.41
1.31
0.59
0.32
0.57
1.33
2.56
4.12
5.70
6.97
7.62
7.54
6.83
5.80
4.80
4.06
3.72
3.75
4.08
4.63
5.41
6.43
7.68
9.07
10.37
11.27
11.51
10.93
9.66
8.05
6.53
5.39
4.76
4.51
4.38
4.12
3.53
2.61
1.49
0.43
-0.30
-0.49
-0.22
0.10
-0.20
-1.82
-5.08
-9.73
-14.92
-19.53
-22.66
-24.02
-23.95
-23.14
-22.25
-21.50
-20.75
-19.56
-17.58
-14.72
-11.23
-7.60
-4.29
-1.69
0.01
0.70
0.31
-1.17
-3.71
-7.11
-11.11
-15.44
-19.92
-24.52
-29.26
-34.10
-38.67
-42.18
-43.55
-41.76
-36.35
-27.73
-17.21
-6.64
2.14
7.82
10.00
9.11
6.16
2.31
-1.42
-4.31
-5.92
-6.01
-4.53
-1.66
2.18
6.35
10.09
12.76
13.92
13.46
11.69
9.19
6.67
4.80
3.95
4.16
5.13
6.46
7.75
8.81
9.63
10.30
10.87
11.46
12.09
12.83
13.66
14.53
15.27
15.71
15.82
15.73
15.71
15.96
16.37
16.47
15.63
13.41
9.85
5.50
1.20
-2.31
-4.77
-6.40
-7.70
-9.12
-10.75
-12.29
-13.29
-13.39
-12.52
-10.94
-8.92
-6.61
-4.09
-1.49
0.77
1.96
1.29
-1.51
-5.90
-10.53
-13.76
-14.35
-12.06
-7.62
-2.31
2.72
6.84
10.02
12.48
14.36
15.53
15.77
14.91
13.15
11.00
9.05
7.75
7.19
7.23
7.49
7.69
7.68
7.50
7.36
7.54
8.14
9.12
10.25
11.14
11.41
10.81
9.29
6.98
4.22
1.35
-1.25
-3.31
-4.74
-5.58
-5.96
-6.08
-6.13
-6.15
-6.04
-5.51
-4.29
-2.24
0.50
3.53
6.33
8.41
9.51
9.61
8.85
7.47
5.63
3.47
1.12
-1.24
-3.40
-5.05
-6.00
-6.20
-5.76
-5.02
-4.35
-4.10
-4.44
-5.31
-6.52
-7.79
-8.94
-9.82
-10.34
-10.50
-10.37
-10.10
-9.87
-9.86
-10.09
-10.44
-10.71
-10.72
-10.42
-9.88
-9.25
-8.63
-8.04
-7.45
-6.76
-5.91
-4.81
-3.41
-1.69
0.33
2.56
4.92
7.29
9.60
11.72
13.45
14.45
14.43
13.17
10.77
7.64
4.47
1.91
0.41
0.06
0.55
1.40
2.08
2.29
1.98
1.33
0.62
0.06
-0.27
-0.53
-0.90
-1.56
-2.52
-3.65
-4.73
-5.62
-6.30
-6.91
-7.60
-8.49
-9.57
-10.69
-11.69
-12.41
-12.74
-12.70
-12.35
-11.75
-10.93
-9.87
-8.53
-6.83
-4.73
-2.20
0.72
3.97
7.43
10.89
14.06
16.64
18.37
19.16
19.06
18.28
17.04
15.57
14.05
12.61
11.37
10.41
9.71
9.11
8.34
7.09
5.18
2.62
-0.36
-3.43
-6.29
-8.68
-10.56
-11.94
-12.91
-13.55
-13.97
-14.32
-14.75
-15.39
-16.38
-17.75
-19.43
-21.23
-22.82
-23.83
-23.92
-22.96
-21.16
-19.05
-17.24
-16.21
-15.95
-15.98
-15.53
-13.86
-10.62
-5.89
-0.10
6.28
12.86
19.25
24.92
29.30
31.77
32.10
30.54
27.79
24.76
22.13
20.14
18.68
17.45
16.24
15.08
14.20
13.79
13.86
14.28
14.74
14.98
14.77
14.08
12.99
11.67
10.30
8.97
7.68
6.34
4.87
3.24
1.47
-0.42
-2.49
-4.86
-7.58
-10.60
-13.56
-16.00
-17.36
-17.23
-15.51
-12.37
-8.28
-3.80
0.52
4.28
7.25
9.41
10.84
11.67
12.04
12.00
11.53
10.56
9.13
7.44
5.90
4.98
5.10
6.43
8.74
11.49
13.89
15.22
15.02
13.23
10.22
6.63
3.10
0.08
-2.37
-4.47
-6.54
-8.82
-11.32
-13.79
-15.87
-17.27
-17.90
-17.84
-17.29
-16.45
-15.53
-14.72
-14.22
-14.18
-14.65
-15.53
-16.55
-17.38
-17.74
-17.38
-16.18
-14.12
-11.31
-7.99
-4.47
-1.08
1.90
4.35
6.27
7.72
8.80
9.47
9.73
9.59
9.13
8.54
8.01
7.69
7.68
8.03
8.71
9.60
10.52
11.24
11.51
11.17
10.18
8.67
6.88
5.07
3.43
2.03
0.87
-0.10
-0.95
-1.68
-2.37
-3.05
-3.85
-4.84
-6.10
-7.62
-9.32
-11.03
-12.54
-13.67
-14.25
-14.21
-13.52
-12.22
-10.41
-8.14
-5.55
-2.68
0.37
3.47
6.38
8.85
10.59
11.40
11.28
10.43
9.24
8.19
7.69
7.91
8.67
9.59
10.23
10.30
9.77
8.84
7.81
6.89
6.13
5.48
4.83
4.11
3.39
2.76
2.30
1.99
1.71
1.38
0.90
0.22
-0.67
-1.81
-3.18
-4.73
-6.38
-7.95
-9.32
-10.35
-10.97
-11.20
-11.01
-10.39
-9.33
-7.86
-6.09
-4.25
-2.55
-1.12
0.06
1.18
2.39
3.74
5.05
6.03
6.41
6.03
5.00
3.55
1.99
0.51
-0.72
-1.64
-2.20
-2.42
-2.42
-2.38
-2.49
-2.84
-3.38
-3.86
-4.03
-3.75
-3.06
-2.21
-1.52
-1.35
-1.91
-3.25
-5.18
-7.35
-9.35
-10.84
-11.67
-11.92
-11.91
-12.06
-12.82
-14.54
-17.33
-20.90
-24.48
-26.95
-27.09
-24.10
-17.94
-9.38
0.33
9.99
18.89
26.82
33.67
38.97
41.76
40.88
35.74
26.86
15.99
5.53
-2.35
-6.53
-7.11
-5.16
-2.08
0.97
3.31
4.71
5.10
4.49
2.88
0.41
-2.54
-5.44
-7.71
-8.99
-9.23
-8.73
-8.02
-7.59
-7.71
-8.31
-8.98
-9.27
-8.77
-7.33
-5.02
-2.12
1.03
4.12
6.91
9.19
10.82
11.70
11.82
11.24
10.11
8.66
7.11
5.70
4.62
4.09
4.23
5.03
6.26
7.51
8.32
8.32
7.40
5.72
3.62
1.49
-0.38
-1.90
-3.07
-3.91
-4.43
-4.59
-4.38
-3.87
-3.25
-2.74
-2.47
-2.44
-2.53
-2.64
-2.82
-3.27
-4.35
-6.24
-8.86
-11.75
-14.26
-15.79
-16.04
-15.06
-13.15
-10.73
-8.13
-5.60
-3.22
-1.08
0.73
2.19
3.33
4.33
5.43
6.91
8.92
11.41
14.08
16.48
18.16
18.85
18.58
17.64
16.49
15.51
14.93
14.75
14.80
14.92
14.96
14.86
14.61
14.14
13.37
12.24
10.65
8.71
6.58
4.46
2.58
1.10
0.08
-0.42
-0.45
-0.13
0.33
0.62
0.47
-0.26
-1.51
-3.04
-4.48
-5.57
-6.26
-6.71
-7.25
-8.20
-9.72
-11.77
-14.12
-16.44
-18.42
-19.82
-20.48
-20.34
-19.44
-17.87
-15.88
-13.79
-11.97
-10.78
-10.42
-10.83
-11.79
-12.92
-13.85
-14.35
-14.30
-13.67
-12.46
-10.70
-8.43
-5.79
-3.10
-0.73
0.88
1.47
1.02
-0.23
-1.84
-3.26
-4.03
-3.87
-2.72
-0.86
1.25
3.02
3.92
3.65
2.22
0.06
-2.15
-3.68
-4.03
-3.11
-1.26
0.86
2.54
3.31
3.05
1.93
0.37
-1.19
-2.36
-2.76
-2.12
-0.32
2.52
5.96
9.34
11.96
13.34
13.33
12.12
10.08
7.65
5.23
3.06
1.31
0.07
-0.65
-1.05
-1.40
-2.06
-3.26
-5.09
-7.36
-9.66
-11.50
-12.42
-12.19
-10.80
-8.47
-5.50
-2.19
1.16
4.36
7.24
9.73
11.79
13.48
14.82
15.83
16.49
16.78
16.70
16.37
15.90
15.36
14.74
13.93
12.81
11.35
9.62
7.81
6.13
4.74
3.67
2.78
1.85
0.60
-1.13
-3.31
-5.66
-7.72
-8.97
-9.15
-8.36
-7.04
-5.91
-5.59
-6.34
-8.03
-10.10
-11.85
-12.70
-12.42
-11.15
-9.30
-7.36
-5.68
-4.36
-3.26
-2.10
-0.51
1.77
4.83
8.50
12.26
15.30
16.63
15.44
11.56
5.80
-0.10
-3.97
-4.16
-0.21
6.78
14.63
21.03
24.40
24.51
22.29
19.29
16.82
15.55
15.46
15.99
16.47
16.29
14.98
12.24
7.99
2.42
-4.02
-10.57
-16.34
-20.47
-22.38
-22.01
-19.84
-16.72
-13.60
-11.11
-9.47
-8.46
-7.56
-6.25
-4.25
-1.60
1.28
3.70
5.00
4.74
2.93
0.11
-2.85
-4.98
-5.63
-4.64
-2.41
0.39
2.98
4.78
5.51
5.20
4.10
2.62
1.20
0.32
0.31
1.41
3.59
6.67
10.26
13.85
16.89
18.88
19.54
18.78
16.77
13.73
9.96
5.68
1.15
-3.26
-7.11
-10.01
-11.85
-12.83
-13.49
-14.29
-15.50
-16.88
-17.91
-18.05
-17.09
-15.29
-13.26
-11.57
-10.48
-9.92
-9.49
-8.91
-8.12
-7.31
-6.82
-6.83
-7.31
-8.02
-8.64
-8.96
-8.91
-8.61
-8.19
-7.78
-7.53
-7.55
-7.95
-8.82
-10.09
-11.59
-13.03
-14.18
-14.90
-15.24
-15.32
-15.19
-14.83
-14.11
-12.95
-11.38
-9.61
-7.99
-6.79
-6.03
-5.46
-4.55
-2.76
0.25
4.36
9.02
13.41
16.75
18.62
19.06
18.53
17.63
16.83
16.27
15.86
15.35
14.56
13.48
12.23
10.99
9.76
8.48
7.00
5.30
3.53
2.04
1.15
1.01
1.42
1.87
1.80
0.87
-0.84
-2.84
-4.56
-5.53
-5.67
-5.20
-4.55
-4.09
-4.05
-4.45
-5.20
-6.17
-7.19
-8.04
-8.49
-8.38
-7.62
-6.29
-4.55
-2.52
-0.29
2.18
4.87
7.69
10.48
12.98
14.99
16.41
17.30
17.72
17.74
17.32
16.40
14.94
12.97
10.71
8.44
6.53
5.20
4.50
4.25
4.15
3.89
3.27
2.31
1.19
0.18
-0.53
-0.93
-1.13
-1.34
-1.71
-2.35
-3.28
-4.44
-5.77
-7.15
-8.42
-9.44
-10.05
-10.14
-9.65
-8.59
-7.05
-5.23
-3.33
-1.53
0.09
1.50
2.72
3.79
4.67
5.33
5.73
5.92
5.95
5.82
5.54
4.99
4.13
2.96
1.58
0.15
-1.14
-2.17
-2.93
-3.39
-3.59
-3.60
-3.54
-3.54
-3.77
-4.34
-5.26
-6.38
-7.48
-8.27
-8.59
-8.50
-8.26
-8.27
-8.82
-9.90
-11.21
-12.29
-12.74
-12.41
-11.44
-10.10
-8.60
-6.98
-5.15
-3.07
-0.85
1.29
3.07
4.38
5.31
6.11
7.03
8.16
9.36
10.35
10.85
10.72
9.98
8.86
7.64
6.57
5.87
5.64
5.85
6.42
7.16
7.80
8.04
7.62
6.44
4.64
2.58
0.70
-0.68
-1.48
-1.94
-2.48
-3.48
-5.10
-7.17
-9.25
-10.86
-11.67
-11.58
-10.73
-9.36
-7.66
-5.68
-3.40
-0.81
1.94
4.49
6.44
7.46
7.51
6.88
6.11
5.75
6.14
7.29
8.85
10.35
11.32
11.47
10.74
9.25
7.25
5.13
3.29
2.10
1.80
2.34
3.33
4.21
4.40
3.58
1.84
-0.47
-2.88
-5.04
-6.89
-8.60
-10.31
-12.04
-13.53
-14.33
-14.03
-12.36
-9.36
-5.40
-1.14
2.64
5.18
6.10
5.48
3.92
2.33
1.56
2.06
3.77
6.10
8.26
9.59
9.81
9.01
7.57
5.92
4.35
3.02
1.95
1.13
0.59
0.40
0.49
0.72
0.81
0.48
-0.34
-1.52
-2.74
-3.67
-4.07
-3.95
-3.51
-3.07
-2.96
-3.45
-4.61
-6.35
-8.38
-10.31
-11.80
-12.64
-12.83
-12.48
-11.77
-10.83
-9.77
-8.62
-7.38
-6.00
-4.40
-2.57
-0.57
1.45
3.29
4.77
5.80
6.46
6.87
7.18
7.43
7.57
7.42
6.92
6.03
4.84
3.53
2.28
1.25
0.52
0.05
-0.34
-0.89
-1.89
-3.48
-5.60
-7.96
-10.11
-11.59
-12.16
-11.78
-10.70
-9.36
-8.18
-7.48
-7.41
-7.88
-8.62
-9.24
-9.39
-8.85
-7.59
-5.74
-3.52
-1.19
1.03
2.96
4.55
5.82
6.91
8.01
9.29
10.81
12.47
14.06
15.35
16.16
16.48
16.40
16.11
15.72
15.26
14.67
13.85
12.78
11.54
10.28
9.20
8.40
7.88
7.49
6.96
6.04
4.51
2.28
-0.57
-3.79
-7.01
-9.78
-11.76
-12.82
-13.11
-12.95
-12.77
-12.82
-13.16
-13.63
-13.96
-13.96
-13.55
-12.76
-11.67
-10.29
-8.58
-6.52
-4.19
-1.84
0.23
1.82
2.93
3.80
4.71
5.90
7.36
8.94
10.35
11.36
11.76
11.48
10.55
9.20
7.76
6.57
5.86
5.56
5.30
4.63
3.19
0.98
-1.62
-3.99
-5.61
-6.14
-5.67
-4.56
-3.29
-2.32
-2.02
-2.55
-3.88
-5.79
-7.92
-9.86
-11.26
-11.94
-11.88
-11.22
-10.10
-8.67
-7.05
-5.30
-3.51
-1.75
0.03
1.89
3.97
6.28
8.69
10.91
12.57
13.40
13.32
12.51
11.23
9.83
8.53
7.44
6.56
5.90
5.44
5.24
5.38
5.89
6.67
7.51
8.12
8.27
7.83
6.77
5.16
3.07
0.52
-2.41
-5.66
-9.06
-12.33
-15.08
-16.97
-17.78
-17.54
-16.51
-15.11
-13.68
-12.40
-11.08
-9.39
-6.99
-3.81
-0.18
3.38
6.30
8.31
9.52
10.23
10.81
11.40
11.86
11.94
11.46
10.43
9.15
7.94
7.06
6.58
6.34
6.06
5.55
4.71
3.59
2.30
0.93
-0.49
-1.97
-3.43
-4.72
-5.63
-6.04
-6.02
-5.83
-5.84
-6.36
-7.52
-9.23
-11.21
-13.14
-14.70
-15.60
-15.63
-14.68
-12.79
-10.16
-7.12
-4.00
-1.04
1.73
4.32
6.80
9.12
11.17
12.80
13.91
14.47
14.51
14.08
13.21
11.96
10.39
8.64
6.84
5.12
3.55
2.08
0.65
-0.76
-2.05
-3.08
-3.69
-3.87
-3.75
-3.56
-3.54
-3.81
-4.39
-5.17
-6.05
-7.00
-8.00
-9.02
-9.94
-10.70
-11.25
-11.64
-11.95
-12.22
-12.33
-12.08
-11.31
-10.00
-8.33
-6.55
-4.94
-3.50
-2.08
-0.39
1.79
4.47
7.45
10.33
12.73
14.41
15.29
15.53
15.31
14.81
14.09
13.19
12.06
10.77
9.44
8.26
7.38
6.88
6.68
6.65
6.65
6.62
6.58
6.65
6.90
7.31
7.72
7.90
7.58
6.65
5.18
3.40
1.66
0.29
-0.56
-0.93
-1.08
-1.30
-1.93
-3.11
-4.85
-6.91
-8.94
-10.51
-11.33
-11.39
-10.97
-10.56
-10.67
-11.59
-13.25
-15.25
-17.03
-18.08
-18.16
-17.30
-15.78
-13.91
-11.98
-10.12
-8.33
-6.49
-4.55
-2.57
-0.68
0.95
2.32
3.49
4.61
5.80
7.00
8.04
8.68
8.80
8.46
7.90
7.39
7.15
7.24
7.57
8.06
8.61
9.19
9.80
10.38
10.81
10.93
10.61
9.81
8.64
7.28
5.96
4.80
3.84
3.08
2.50
2.11
1.88
1.75
1.61
1.36
0.95
0.42
-0.10
-0.49
-0.77
-1.12
-1.77
-2.92
-4.58
-6.55
-8.49
-10.14
-11.42
-12.44
-13.36
-14.28
-15.10
-15.62
-15.62
-15.08
-14.13
-13.02
-11.92
-10.75
-9.22
-7.00
-3.94
-0.23
3.59
6.90
9.25
10.57
11.16
11.45
11.78
12.20
12.55
12.61
12.24
11.48
10.48
9.37
8.21
7.01
5.76
4.51
3.35
2.43
1.89
1.77
2.02
2.48
2.90
3.06
2.82
2.21
1.44
0.78
0.45
0.48
0.77
1.10
1.28
1.22
0.89
0.33
-0.46
-1.52
-2.91
-4.58
-6.33
-7.78
-8.54
-8.49
-7.81
-7.02
-6.74
-7.39
-9.02
-11.23
-13.39
-14.86
-15.31
-14.74
-13.46
-11.84
-10.12
-8.38
-6.52
-4.42
-2.08
0.35
2.65
4.63
6.24
7.54
8.65
9.66
10.57
11.31
11.81
12.01
11.89
11.41
10.59
9.51
8.33
7.28
6.49
5.99
5.65
5.32
4.87
4.31
3.73
3.20
2.79
2.42
2.03
1.59
1.13
0.72
0.45
0.41
0.63
1.11
1.78
2.45
2.90
2.91
2.33
1.16
-0.39
-1.95
-3.12
-3.68
-3.67
-3.42
-3.40
-3.97
-5.27
-7.07
-8.89
-10.21
-10.64
-10.11
-8.83
-7.24
-5.80
-4.87
-4.61
-4.86
-5.29
-5.49
-5.20
-4.35
-3.09
-1.64
-0.13
1.40
3.01
4.71
6.24
7.26
7.39
6.46
4.67
2.53
0.64
-0.55
-0.92
-0.69
-0.30
-0.17
-0.52
-1.31
-2.25
-3.05
-3.44
-3.34
-2.82
-2.10
-1.41
-0.92
-0.67
-0.59
-0.52
-0.24
0.47
1.84
3.94
6.64
9.53
11.94
13.09
12.37
9.59
5.17
0.06
-4.55
-7.62
-8.65
-7.77
-5.65
-3.22
-1.39
-0.68
-1.23
-2.79
-4.91
-7.06
-8.85
-10.07
-10.63
-10.62
-10.13
-9.34
-8.35
-7.29
-6.26
-5.33
-4.49
-3.62
-2.57
-1.13
0.76
2.98
5.20
7.03
8.08
8.21
7.53
6.40
5.35
4.82
5.09
6.09
7.51
8.89
9.82
10.07
9.66
8.80
7.67
6.41
4.99
3.36
1.58
-0.12
-1.47
-2.23
-2.33
-1.89
-1.19
-0.56
-0.34
-0.73
-1.85
-3.64
-5.87
-8.10
-9.79
-10.38
-9.53
-7.27
-3.97
-0.33
2.79
4.65
4.79
3.20
0.44
-2.55
-4.70
-5.22
-3.91
-1.22
2.00
4.84
6.79
7.89
8.54
9.28
10.47
12.19
14.24
16.25
17.71
18.11
17.03
14.20
9.69
3.92
-2.34
-8.28
-13.12
-16.37
-17.85
-17.65
-16.11
-13.73
-11.05
-8.56
-6.59
-5.24
-4.41
-3.86
-3.39
-2.91
-2.49
-2.37
-2.71
-3.53
-4.70
-5.87
-6.73
-7.05
-6.83
-6.27
-5.69
-5.40
-5.58
-6.23
-7.21
-8.41
-9.73
-11.15
-12.66
-14.19
-15.59
-16.66
-17.30
-17.43
-17.17
-16.61
-15.77
-14.64
-13.15
-11.30
-9.25
-7.28
-5.65
-4.54
-3.89
-3.56
-3.36
-3.22
-3.19
-3.50
-4.32
-5.65
-7.16
-8.21
-7.97
-5.75
-1.23
5.31
13.08
21.01
28.01
33.17
35.85
35.61
32.21
25.67
16.58
6.23
-3.41
-10.22
-12.75
-10.89
-6.03
-0.58
3.07
3.54
0.94
-3.29
-7.30
-9.62
-9.72
-7.99
-5.24
-2.20
0.84
3.95
7.40
11.31
15.60
19.95
23.99
27.49
30.39
32.72
34.44
35.30
34.87
32.74
28.83
23.46
17.34
11.27
5.89
1.49
-1.93
-4.50
-6.35
-7.57
-8.22
-8.32
-7.87
-6.74
-4.76
-1.79
2.06
6.32
10.25
13.06
14.24
13.65
11.60
8.65
5.43
2.48
0.23
-1.14
-1.68
-1.74
-1.99
-3.21
-5.89
-10.00
-14.79
-19.11
-21.83
-22.40
-20.96
-18.29
-15.35
-12.86
-11.04
-9.64
-8.22
-6.40
-4.05
-1.26
1.78
4.89
7.85
10.52
12.77
14.51
15.70
16.33
16.38
15.86
14.87
13.55
12.14
10.86
9.71
8.51
6.90
4.64
1.79
-1.22
-3.79
-5.53
-6.50
-7.18
-8.24
-9.99
-12.30
-14.60
-16.35
-17.33
-17.84
-18.43
-19.60
-21.39
-23.37
-24.82
-25.15
-24.11
-21.95
-19.25
-16.62
-14.42
-12.64
-11.00
-9.11
-6.77
-4.03
-1.21
1.33
3.33
4.78
5.92
7.04
8.31
9.68
10.84
11.44
11.22
10.24
8.86
7.60
6.90
6.92
7.48
8.13
8.36
7.88
6.71
5.17
3.74
2.84
2.65
3.04
3.63
4.01
3.85
3.06
1.80
0.34
-1.08
-2.28
-3.30
-4.26
-5.32
-6.63
-8.28
-10.22
-12.32
-14.32
-15.90
-16.81
-17.01
-16.60
-15.85
-14.91
-13.71
-11.97
-9.34
-5.61
-0.94
4.18
9.12
13.36
16.62
18.91
20.38
21.20
21.52
21.44
21.12
20.72
20.43
20.29
20.24
20.08
19.58
18.62
17.29
15.85
14.58
13.67
13.06
12.51
11.68
10.37
8.60
6.57
4.52
2.58
0.66
-1.43
-3.86
-6.64
-9.65
-12.67
-15.57
-18.24
-20.60
-22.47
-23.53
-23.49
-22.27
-20.16
-17.74
-15.69
-14.43
-13.95
-13.80
-13.41
-12.39
-10.74
-8.80
-6.96
-5.35
-3.76
-1.77
0.97
4.46
8.29
11.87
14.58
16.17
16.65
16.32
15.57
14.70
13.94
13.36
12.88
12.31
11.41
9.99
8.00
5.56
2.83
0.06
-2.50
-4.48
-5.43
-4.74
-1.97
2.82
8.75
14.28
17.55
17.21
12.92
5.59
-3.11
-11.37
-17.86
-21.86
-23.14
-21.60
-17.22
-10.36
-2.12
5.63
10.72
11.52
7.74
0.58
-7.68
-14.70
-18.92
-20.01
-18.60
-15.77
-12.39
-8.92
-5.53
-2.29
0.57
2.65
3.59
3.33
2.14
0.52
-0.92
-1.80
-2.08
-1.97
-1.80
-1.84
-2.19
-2.82
-3.60
-4.43
-5.21
-5.83
-6.13
-5.90
-4.96
-3.24
-0.90
1.68
4.01
5.52
5.82
4.81
2.75
0.16
-2.28
-4.11
-5.15
-5.65
-6.07
-6.92
-8.42
-10.46
-12.58
-14.24
-15.02
-14.77
-13.58
-11.70
-9.31
-6.52
-3.40
-0.11
3.11
5.94
8.13
9.58
10.40
10.82
11.15
11.58
12.25
13.13
14.10
14.95
15.43
15.33
14.58
13.29
11.75
10.29
9.18
8.51
8.25
8.26
8.41
8.66
8.97
9.34
9.65
9.75
9.47
8.68
7.42
5.85
4.37
3.44
3.40
4.37
6.01
7.58
8.28
7.58
5.47
2.55
-0.30
-2.23
-2.73
-1.80
0.07
2.01
3.01
2.20
-0.86
-5.90
-11.95
-17.58
-21.43
-22.69
-21.34
-18.05
-13.84
-9.67
-6.18
-3.69
-2.24
-1.79
-2.09
-2.74
-3.21
-2.95
-1.64
0.71
3.74
6.86
9.39
10.82
10.92
9.83
8.01
6.09
4.64
4.02
4.24
5.08
6.12
6.95
7.24
6.84
5.79
4.29
2.58
0.98
-0.34
-1.26
-1.85
-2.25
-2.70
-3.43
-4.52
-6.00
-7.68
-9.20
-10.15
-10.19
-9.25
-7.67
-6.06
-5.11
-5.34
-6.77
-9.00
-11.36
-13.22
-14.22
-14.37
-13.95
-13.31
-12.71
-12.14
-11.43
-10.39
-8.93
-7.09
-5.06
-3.04
-1.15
0.59
2.21
3.78
5.17
6.19
6.59
6.19
5.05
3.44
1.82
0.67
0.30
0.76
1.77
2.94
3.90
4.55
5.02
5.60
6.49
7.68
8.91
9.79
10.07
9.60
8.57
7.23
5.85
4.60
3.49
2.40
1.23
-0.11
-1.58
-3.12
-4.56
-5.78
-6.69
-7.23
-7.38
-7.14
-6.53
-5.59
-4.39
-2.94
-1.19
0.98
3.70
6.94
10.39
13.41
15.22
15.13
12.92
8.98
4.30
0.21
-2.04
-1.68
1.29
6.09
11.44
15.96
18.52
18.64
16.57
13.12
9.37
6.24
4.18
3.13
2.67
2.31
1.66
0.61
-0.84
-2.53
-4.33
-6.11
-7.66
-8.76
-9.18
-8.82
-7.76
-6.22
-4.47
-2.70
-1.11
0.06
0.49
-0.10
-1.82
-4.41
-7.36
-9.95
-11.59
-11.92
-10.93
-8.81
-5.96
-2.84
0.06
2.20
3.18
2.80
1.21
-1.17
-3.70
-5.81
-7.10
-7.48
-7.17
-6.57
-6.18
-6.32
-7.16
-8.57
-10.31
-12.08
-13.59
-14.66
-15.14
-14.89
-13.86
-12.11
-9.82
-7.39
-5.24
-3.81
-3.37
-4.04
-5.67
-8.00
-10.67
-13.31
-15.66
-17.54
-18.90
-19.79
-20.27
-20.46
-20.47
-20.43
-20.36
-20.23
-19.95
-19.42
-18.65
-17.76
-16.91
-16.21
-15.61
-14.90
-13.90
-12.39
-10.27
-7.40
-3.56
1.53
7.96
15.37
22.83
29.02
32.73
33.37
31.22
27.42
23.42
20.51
19.42
20.25
22.56
25.70
28.92
31.51
32.81
32.32
29.77
25.28
19.32
12.60
5.82
-0.46
-5.94
-10.59
-14.59
-18.14
-21.32
-23.90
-25.41
-25.23
-22.97
-18.76
-13.26
-7.57
-2.63
0.99
3.39
5.08
6.71
8.78
11.53
15.00
19.14
23.93
29.25
34.84
40.23
44.85
48.25
50.17
50.63
49.84
48.06
45.55
42.59
39.43
36.29
33.21
29.97
26.18
21.43
15.58
8.97
2.34
-3.32
-7.26
-9.29
-9.84
-9.75
-9.85
-10.69
-12.34
-14.58
-17.07
-19.60
-22.11
-24.55
-26.81
-28.60
-29.59
-29.53
-28.47
-26.70
-24.63
-22.58
-20.59
-18.48
-15.94
-12.80
-9.04
-4.86
-0.51
3.71
7.56
10.86
13.44
15.19
16.01
15.87
14.79
12.90
10.37
7.48
4.53
1.79
-0.55
-2.36
-3.53
-3.98
-3.63
-2.53
-0.91
0.82
2.16
2.71
2.37
1.35
0.01
-1.25
-2.23
-2.94
-3.56
-4.22
-4.94
-5.62
-6.05
-6.10
-5.69
-4.94
-4.05
-3.30
-2.92
-3.05
-3.74
-4.96
-6.63
-8.58
-10.62
-12.38
-13.49
-13.59
-12.54
-10.45
-7.73
-4.94
-2.55
-0.74
0.67
2.06
3.85
6.22
9.01
11.75
13.79
14.63
14.07
12.30
9.84
7.26
5.10
3.57
2.61
2.01
1.55
1.14
0.87
0.86
1.17
1.67
2.08
2.08
1.53
0.49
-0.78
-1.98
-2.89
-3.53
-4.13
-4.96
-6.25
-8.00
-10.01
-11.96
-13.48
-14.27
-14.22
-13.33
-11.72
-9.59
-7.05
-4.25
-1.31
1.62
4.31
6.58
8.34
9.63
10.56
11.20
11.48
11.23
10.22
8.37
5.77
2.72
-0.37
-3.13
-5.26
-6.61
-7.14
-6.94
-6.20
-5.18
-4.22
-3.59
-3.43
-3.80
-4.62
-5.72
-6.92
-8.05
-8.99
-9.63
-10.02
-10.30
-10.72
-11.58
-13.05
-15.10
-17.48
-19.74
-21.45
-22.27
-22.17
-21.35
-20.14
-18.84
-17.53
-16.14
-14.48
-12.44
-10.06
-7.51
-4.93
-2.38
0.20
2.93
5.84
8.81
11.55
13.82
15.44
16.41
16.91
17.10
17.11
16.97
16.70
16.40
16.26
16.54
17.49
19.15
21.33
23.60
25.34
26.04
25.38
23.43
20.61
17.45
14.46
11.87
9.68
7.65
5.52
3.12
0.36
-2.76
-6.25
-10.13
-14.42
-19.00
-23.60
-27.75
-30.95
-32.73
-32.78
-31.13
-28.03
-23.97
-19.60
-15.54
-12.31
-10.20
-9.19
-8.99
-9.12
-9.07
-8.43
-7.04
-4.95
-2.33
0.60
3.71
6.96
10.32
13.79
17.30
20.81
24.24
27.53
30.53
32.95
34.33
34.06
31.73
27.37
21.63
15.68
10.74
7.52
5.86
4.75
2.86
-0.76
-6.13
-12.29
-17.74
-21.16
-21.97
-20.51
-17.76
-14.83
-12.47
-10.96
-10.17
-9.87
-9.93
-10.39
-11.35
-12.69
-13.99
-14.48
-13.40
-10.30
-5.28
1.00
7.50
13.20
17.42
19.99
21.18
21.56
21.64
21.74
21.92
22.01
21.82
21.16
20.01
18.49
16.81
15.20
13.79
12.62
11.59
10.46
8.98
6.87
4.01
0.44
-3.52
-7.37
-10.61
-12.88
-14.09
-14.53
-14.70
-15.11
-16.09
-17.74
-19.86
-22.11
-24.12
-25.53
-26.07
-25.49
-23.72
-20.81
-17.03
-12.79
-8.55
-4.65
-1.24
1.70
4.32
6.67
8.70
10.23
11.09
11.20
10.68
9.80
8.79
7.86
7.01
6.19
5.33
4.50
3.87
3.70
4.19
5.31
6.83
8.34
9.46
9.95
