1536950204.00
64.000000
-0.00
-0.00
-0.00
-0.00
-0.00
-0.00
-0.00
-0.00
-0.00
-0.00
0.00
0.01
0.01
-0.00
-0.03
-0.05
-0.05
0.00
0.13
0.36
0.66
1.01
1.37
1.72
2.06
2.40
2.79
3.24
3.80
4.42
5.06
5.66
6.20
6.68
7.15
7.68
8.31
9.14
10.09
11.04
11.88
12.56
13.14
13.76
14.65
15.96
17.91
20.32
22.90
25.38
27.58
29.57
31.68
34.32
37.81
42.54
48.15
54.10
59.83
64.97
69.58
74.14
79.34
85.71
93.76
103.00
112.62
121.73
129.77
136.75
143.30
150.75
157.77
166.64
177.95
191.79
206.97
220.57
228.25
225.36
208.53
176.87
132.76
80.04
23.06
-34.94
-92.41
-149.11
-205.19
-260.37
-313.82
-364.07
-410.17
-451.36
-487.02
-516.28
-537.76
-549.73
-550.48
-538.95
-514.89
-479.48
-434.78
-383.39
-327.93
-270.70
-213.46
-157.55
-104.02
-53.73
-7.58
33.65
69.39
99.38
123.66
142.60
156.73
166.68
173.11
176.61
177.71
176.86
174.35
170.35
164.93
158.15
150.16
141.28
132.02
122.95
114.50
106.81
99.63
92.44
84.71
76.15
66.92
57.60
48.96
41.57
35.62
30.78
26.43
21.84
16.45
9.87
2.01
-6.70
-15.03
-20.94
-22.02
-16.50
-4.20
12.99
31.57
47.71
58.66
63.65
63.67
60.60
56.06
50.83
45.00
38.54
31.85
25.84
21.51
19.29
18.89
19.31
19.33
18.14
15.62
12.28
8.97
6.47
5.25
5.40
6.57
8.13
9.32
9.45
8.17
5.61
2.38
-0.65
-2.78
-3.80
-4.06
-4.24
-4.97
-6.44
-8.26
-9.70
-10.03
-8.80
-6.07
-2.28
1.88
5.67
8.61
10.42
11.08
10.71
9.49
7.65
5.37
2.91
0.49
-1.67
-3.34
-4.36
-4.64
-4.20
-3.16
-1.83
-0.53
0.47
1.06
1.38
1.67
2.19
3.03
4.13
5.30
6.30
7.01
7.43
7.67
7.91
8.27
8.80
9.43
10.02
10.38
10.32
9.76
8.69
7.15
5.31
3.13
0.65
-2.08
-4.90
-7.55
-9.84
-11.60
-12.85
-13.71
-14.33
-14.77
-15.01
-15.02
-14.79
-14.36
-13.85
-13.33
-12.86
-12.46
-12.10
-11.77
-11.45
-11.09
-10.64
-10.06
-9.38
-8.77
-8.44
-8.53
-8.95
-9.31
-9.02
-7.54
-4.57
-0.29
4.67
9.49
13.40
15.95
17.11
17.16
16.45
15.26
13.68
11.77
9.68
7.72
6.35
5.93
6.64
8.33
10.65
13.19
15.64
17.91
20.11
22.49
25.25
28.52
32.36
36.76
41.69
47.20
52.97
58.70
63.86
67.70
69.36
68.14
63.81
56.86
48.33
39.52
31.52
24.84
19.40
14.81
10.69
6.87
3.33
-0.01
-3.42
-7.21
-11.50
-16.03
-20.12
-22.97
-24.15
-23.77
-22.52
-21.31
-20.77
-21.04
-21.78
-22.44
-22.60
-22.15
-21.34
-20.56
-20.12
-20.12
-20.45
-20.85
-21.15
-21.28
-21.34
-21.45
-21.67
-21.93
-22.00
-21.68
-20.91
-19.89
-18.97
-18.51
-18.69
-19.39
-20.32
-21.17
-21.75
-22.05
-22.17
-22.24
-22.44
-22.92
-23.92
-25.62
-28.01
-30.83
-33.54
-35.57
-36.57
-36.54
-35.77
-34.62
-33.35
-32.01
-30.57
-29.11
-27.89
-27.27
-27.53
-28.60
-30.05
-31.25
-31.54
-30.62
-28.59
-25.82
-22.79
-19.83
-17.00
-14.14
-11.03
-7.56
-3.75
0.28
4.47
8.87
13.53
18.36
23.09
27.29
30.58
32.89
34.53
36.06
37.97
40.41
43.06
45.22
46.16
45.33
42.58
38.12
32.37
25.85
19.03
12.26
5.74
-0.48
-6.48
-12.48
-18.71
-25.43
-32.75
-40.56
-48.47
-55.80
-61.72
-65.44
-66.40
-64.49
-60.09
-54.02
-47.31
-40.89
-35.36
-30.89
-27.24
-24.00
-20.75
-17.26
-13.50
-9.61
-5.78
-2.21
0.91
3.42
5.29
6.63
7.83
9.43
11.91
15.48
19.94
24.83
29.57
33.74
37.17
39.89
41.93
43.25
43.65
42.96
41.19
38.59
35.66
32.89
30.62
28.88
27.47
26.06
24.38
22.32
20.00
17.64
15.44
13.46
11.62
9.74
7.65
5.21
2.35
-1.02
-5.02
-9.77
-15.28
-21.30
-27.31
-32.62
-36.64
-39.04
-39.97
-39.95
-39.71
-39.94
-41.08
-43.20
-45.99
-48.84
-50.90
-51.36
-49.62
-45.49
-39.29
-31.71
-23.63
-15.79
-8.68
-2.46
2.87
7.37
10.99
13.64
15.26
15.88
15.75
15.25
14.85
14.87
15.47
16.55
17.88
19.21
20.45
21.62
22.84
24.11
25.30
26.17
26.49
26.24
25.59
24.81
24.08
23.39
22.55
21.34
19.66
17.64
15.53
13.57
11.84
10.24
8.58
6.70
4.64
2.55
0.64
-0.93
-2.21
-3.43
-4.86
-6.72
-9.03
-11.63
-14.25
-16.62
-18.61
-20.26
-21.78
-23.44
-25.56
-28.38
-31.98
-36.18
-40.45
-43.98
-45.82
-45.17
-41.62
-35.34
-26.98
-17.47
-7.79
1.27
9.20
15.71
20.72
24.17
26.15
26.82
26.49
25.57
24.47
23.51
22.83
22.46
22.34
22.45
22.83
23.57
24.69
26.14
27.76
29.32
30.60
31.43
31.69
31.35
30.39
28.83
26.75
24.34
21.84
19.50
17.49
15.82
14.29
12.60
10.43
7.62
4.22
0.57
-2.95
-5.99
-8.45
-10.47
-12.38
-14.53
-17.14
-20.20
-23.57
-27.03
-30.43
-33.69
-36.85
-40.03
-43.39
-47.15
-51.55
-56.70
-62.37
-67.94
-72.36
-74.43
-73.14
-68.08
-59.52
-48.37
-35.78
-22.81
-10.22
1.57
12.31
21.83
29.90
36.38
41.22
44.58
46.80
48.23
49.18
49.84
50.27
50.52
50.60
50.58
50.51
50.44
50.36
50.20
49.86
49.20
48.12
46.57
44.52
42.02
39.17
36.07
32.83
29.57
26.43
23.54
20.95
18.62
16.36
13.95
11.21
8.16
5.00
2.03
-0.49
-2.46
-3.99
-5.36
-6.85
-8.66
-10.81
-13.21
-15.66
-18.03
-20.20
-22.17
-23.99
-25.82
-27.90
-30.53
-33.91
-37.94
-42.05
-45.21
-46.18
-43.95
-38.20
-29.40
-18.69
-7.45
3.11
12.21
19.52
24.98
28.62
30.51
30.78
29.72
27.74
25.36
23.06
21.21
20.00
19.44
19.45
19.89
20.66
21.70
22.98
24.45
25.96
27.29
28.12
28.22
27.52
26.11
24.19
22.01
19.82
17.77
15.98
14.46
13.17
11.98
10.68
9.09
7.11
4.76
2.14
-0.53
-3.06
-5.29
-7.14
-8.67
-10.01
-11.37
-12.93
-14.80
-16.95
-19.26
-21.58
-23.80
-26.00
-28.39
-31.28
-34.90
-39.25
-43.86
-47.87
-50.16
-49.68
-45.86
-38.82
-29.35
-18.64
-7.95
1.78
10.01
16.52
21.32
24.47
26.05
26.17
25.08
23.14
20.82
18.57
16.76
15.64
15.22
15.43
16.09
17.06
18.23
19.55
20.97
22.35
23.51
24.19
24.22
23.53
22.23
20.54
18.70
16.89
15.15
13.46
11.75
9.99
8.22
6.49
4.84
3.32
1.93
0.69
-0.35
-1.18
-1.81
-2.40
-3.13
-4.21
-5.73
-7.62
-9.70
-11.71
-13.53
-15.12
-16.58
-18.05
-19.62
-21.38
-23.42
-25.96
-29.16
-33.01
-37.09
-40.51
-42.13
-40.96
-36.55
-29.28
-20.18
-10.56
-1.55
6.23
12.64
17.82
21.90
24.84
26.53
26.84
25.89
23.97
21.56
19.13
17.04
15.50
14.59
14.29
14.54
15.27
16.37
17.70
19.05
20.18
20.87
20.91
20.24
18.96
17.25
15.42
13.71
12.26
11.04
9.91
8.69
7.23
5.45
3.42
1.27
-0.80
-2.63
-4.14
-5.38
-6.49
-7.69
-9.18
-11.09
-13.40
-15.95
-18.49
-20.80
-22.72
-24.26
-25.55
-26.81
-28.27
-30.11
-32.45
-35.26
-38.30
-41.12
-43.06
-43.43
-41.69
-37.66
-31.57
-24.06
-15.94
-8.03
-0.96
4.88
9.32
12.37
14.14
14.82
14.60
13.73
12.50
11.22
10.24
9.85
10.17
11.12
12.45
13.83
14.99
15.82
16.35
16.67
16.80
16.71
16.29
15.48
14.33
13.04
11.82
10.85
10.14
9.57
9.00
8.29
7.43
6.51
5.61
4.77
3.96
3.06
1.95
0.53
-1.20
-3.19
-5.29
-7.31
-9.09
-10.54
-11.70
-12.72
-13.81
-15.09
-16.63
-18.40
-20.42
-22.76
-25.52
-28.61
-31.65
-33.91
-34.57
-32.98
-28.95
-22.88
-15.57
-7.96
-0.87
5.16
9.91
13.37
15.65
16.93
17.35
17.07
16.23
15.05
13.79
12.75
12.20
12.24
12.75
13.43
13.95
14.16
14.09
13.96
14.00
14.25
14.56
14.61
14.14
13.08
11.58
9.95
8.56
7.62
7.19
7.14
7.25
7.29
7.13
6.74
6.15
5.44
4.62
3.65
2.42
0.83
-1.10
-3.27
-5.48
-7.51
-9.21
-10.55
-11.60
-12.54
-13.62
-15.14
-17.34
-20.38
-24.22
-28.60
-32.99
-36.68
-38.90
-39.00
-36.63
-31.89
-25.27
-17.63
-9.91
-2.98
2.60
6.59
9.09
10.34
10.60
10.11
9.03
7.58
6.04
4.71
3.86
3.65
4.04
4.90
6.09
7.50
9.10
10.83
12.56
14.03
14.95
15.10
14.48
13.29
11.83
10.41
9.17
8.10
7.03
5.77
4.19
2.30
0.24
-1.80
-3.64
-5.25
-6.69
-8.11
-9.62
-11.23
-12.92
-14.60
-16.22
-17.78
-19.32
-20.88
-22.50
-24.21
-26.11
-28.35
-31.06
-34.20
-37.40
-39.93
-40.89
-39.47
-35.34
-28.76
-20.57
-11.83
-3.52
3.73
9.68
14.35
17.81
20.07
21.12
21.02
20.01
18.51
17.01
15.93
15.47
15.68
16.42
17.52
18.81
20.19
21.56
22.90
24.15
25.24
26.08
26.53
26.45
25.75
24.45
22.75
20.93
19.32
18.07
17.15
16.31
15.25
13.78
11.91
9.89
8.00
6.48
5.28
4.20
2.86
0.93
-1.74
-5.07
-8.75
-12.43
-15.79
-18.70
-21.21
-23.52
-25.90
-28.60
-31.81
-35.60
-39.80
-43.97
-47.36
-49.04
-48.18
-44.35
-37.70
-28.96
-19.24
-9.68
-1.15
5.83
11.11
14.77
16.96
17.91
17.85
17.07
15.92
14.70
13.71
13.13
13.04
13.43
14.24
15.32
16.52
17.70
18.74
19.58
20.22
20.66
20.86
20.75
20.18
19.09
17.48
15.53
13.55
11.84
10.58
9.73
9.04
8.21
6.97
5.26
3.20
1.03
-1.01
-2.77
-4.24
-5.48
-6.62
-7.82
-9.25
-11.01
-13.11
-15.44
-17.73
-19.77
-21.44
-22.83
-24.26
-26.09
-28.63
-31.91
-35.77
-39.77
-43.32
-45.70
-46.15
-44.03
-39.08
-31.53
-22.23
-12.33
-3.04
4.81
10.92
15.46
18.75
21.10
22.59
23.18
22.86
21.82
20.42
19.14
18.33
18.13
18.48
19.18
20.05
20.96
21.90
22.86
23.79
24.59
25.04
24.97
24.31
23.15
21.72
20.28
19.01
17.96
17.03
16.10
15.04
13.82
12.42
10.88
9.21
7.52
5.94
4.63
3.66
2.93
2.22
1.27
-0.05
-1.70
-3.46
-5.12
-6.59
-7.94
-9.35
-10.98
-12.90
-15.05
-17.34
-19.64
-21.85
-23.93
-25.87
-27.80
-29.97
-32.67
-36.09
-40.19
-44.47
-48.12
-50.11
-49.58
-46.08
-39.73
-31.19
-21.41
-11.41
-2.04
6.11
12.70
17.59
20.79
22.37
22.54
21.64
20.08
18.36
16.86
15.87
15.44
15.47
15.82
16.32
16.89
17.53
18.22
18.90
19.43
19.61
19.22
18.20
16.60
14.59
12.38
10.15
7.95
5.75
3.49
1.09
-1.43
-4.02
-6.55
-8.91
-11.08
-13.06
-14.91
-16.64
-18.19
-19.38
-19.97
-19.68
-18.36
-16.00
-12.82
-9.15
-5.43
-2.02
0.80
2.90
4.24
4.89
4.92
4.42
3.42
1.83
-0.53
-3.85
-8.21
-13.36
-18.62
-22.99
-25.38
-24.98
-21.55
-15.53
-7.89
0.22
7.82
14.29
19.42
23.25
25.88
27.42
27.86
27.24
25.71
23.63
21.46
19.67
18.56
18.15
18.26
18.61
19.04
19.51
20.11
20.88
21.74
22.46
22.80
22.58
21.75
20.44
18.81
17.07
15.36
13.81
12.50
11.46
10.60
9.78
8.81
7.58
6.10
4.46
2.83
1.31
-0.09
-1.40
-2.73
-4.11
-5.53
-6.95
-8.36
-9.79
-11.31
-12.98
-14.81
-16.70
-18.54
-20.21
-21.68
-23.06
-24.55
-26.40
-28.83
-31.95
-35.59
-39.20
-41.96
-42.89
-41.21
-36.65
-29.55
-20.79
-11.50
-2.71
4.88
10.95
15.43
18.41
19.95
20.23
19.48
18.04
16.34
14.77
13.61
13.02
13.00
13.45
14.24
15.24
16.38
17.61
18.85
19.99
20.87
21.35
21.32
20.84
20.03
19.06
18.08
17.13
16.20
15.19
14.06
12.76
11.31
9.78
8.26
6.81
5.49
4.27
3.11
1.89
0.53
-0.99
-2.57
-4.07
-5.35
-6.40
-7.37
-8.50
-10.03
-12.05
-14.42
-16.80
-18.86
-20.38
-21.47
-22.49
-23.94
-26.20
-29.41
-33.30
-37.26
-40.46
-42.05
-41.38
-38.16
-32.53
-25.06
-16.57
-7.96
-0.02
6.72
11.96
15.62
17.75
18.48
18.04
16.78
15.12
13.49
12.19
11.38
11.07
11.17
11.57
12.19
12.99
13.90
14.86
15.81
16.67
17.38
17.87
18.02
17.72
16.89
15.53
13.79
11.87
9.98
8.25
6.73
5.41
4.28
3.37
2.69
2.19
1.74
1.13
0.18
-1.20
-2.90
-4.73
-6.48
-8.05
-9.49
-10.90
-12.41
-14.05
-15.80
-17.56
-19.27
-20.93
-22.62
-24.40
-26.37
-28.60
-31.17
-34.04
-37.04
-39.73
-41.47
-41.52
-39.27
-34.48
-27.45
-18.92
-9.96
-1.60
5.35
10.53
13.94
15.83
16.57
16.46
15.78
14.70
13.42
12.15
11.10
10.48
10.43
11.00
12.14
13.73
15.54
17.38
19.04
20.38
21.31
21.75
21.69
21.10
20.03
18.60
16.97
15.36
13.89
12.59
11.39
10.15
8.72
7.05
5.19
3.27
1.49
-0.03
-1.19
-2.05
-2.77
-3.58
-4.69
-6.26
-8.27
-10.61
-13.06
-15.43
-17.54
-19.35
-20.89
-22.30
-23.81
-25.69
-28.17
-31.31
-34.86
-38.27
-40.72
-41.35
-39.50
-34.98
-28.08
-19.57
-10.49
-1.83
5.63
11.45
15.53
18.04
19.27
19.50
19.00
17.99
16.71
15.43
14.43
13.96
14.10
14.81
15.90
17.10
18.23
19.21
20.06
20.84
21.58
22.15
22.40
22.12
21.26
19.94
18.43
17.00
15.87
15.07
14.48
13.92
13.22
12.34
11.31
10.21
9.08
7.88
6.54
4.97
3.13
1.08
-1.03
-3.01
-4.70
-6.02
-7.04
-7.96
-9.07
-10.55
-12.49
-14.76
-17.15
-19.43
-21.46
-23.22
-24.82
-26.45
-28.35
-30.76
-33.76
-37.12
-40.27
-42.29
-42.23
-39.41
-33.71
-25.70
-16.39
-6.96
1.61
8.70
14.10
17.84
20.02
20.83
20.48
19.27
17.61
15.92
14.55
13.68
13.31
13.31
13.56
14.01
14.70
15.66
16.84
18.09
19.16
19.87
20.11
19.94
19.49
18.84
17.96
16.77
15.18
13.23
11.11
9.11
7.50
6.38
5.66
5.12
4.51
3.68
2.64
1.49
0.39
-0.61
-1.55
-2.57
-3.80
-5.32
-7.10
-9.08
-11.13
-13.17
-15.12
-16.94
-18.59
-20.07
-21.47
-22.97
-24.82
-27.26
-30.31
-33.71
-36.85
-38.88
-38.95
-36.50
-31.44
-24.23
-15.70
-6.86
1.33
8.20
13.37
16.79
18.58
18.98
18.24
16.69
14.63
12.44
10.49
9.11
8.51
8.70
9.55
10.80
12.21
13.58
14.79
15.81
16.60
17.14
17.39
17.31
16.84
15.91
14.45
12.47
10.13
7.66
5.40
3.57
2.23
1.20
0.14
-1.24
-3.13
-5.45
-7.96
-10.36
-12.42
-14.10
-15.51
-16.86
-18.37
-20.20
-22.43
-25.09
-28.14
-31.42
-34.58
-37.01
-37.98
-36.76
-32.99
-26.85
-19.07
-10.73
-2.89
3.78
9.05
13.06
16.03
18.07
19.16
19.26
18.47
17.08
15.51
14.16
13.28
12.93
13.03
13.50
14.26
15.30
16.60
18.03
19.40
20.50
21.10
21.09
20.46
19.30
17.81
16.21
14.70
13.40
12.32
11.34
10.24
8.83
6.99
4.81
2.49
0.34
-1.37
-2.54
-3.32
-4.03
-5.04
-6.60
-8.74
-11.25
-13.80
-16.11
-18.07
-19.81
-21.57
-23.63
-26.16
-29.24
-32.78
-36.50
-39.86
-42.13
-42.52
-40.41
-35.59
-28.45
-19.78
-10.65
-1.97
5.62
11.78
16.46
19.64
21.38
21.79
21.13
19.79
18.23
16.87
15.97
15.63
15.80
16.35
17.12
17.97
18.84
19.68
20.50
21.31
22.07
22.72
23.10
23.06
22.53
21.56
20.30
19.03
17.96
17.19
16.68
16.23
15.61
14.65
13.29
11.63
9.90
8.36
7.21
6.51
6.16
5.95
5.59
4.81
3.47
1.60
-0.61
-2.82
-4.72
-6.15
-7.17
-8.08
-9.22
-10.91
-13.14
-15.71
-18.25
-20.46
-22.27
-23.83
-25.44
-27.41
-29.95
-33.05
-36.51
-39.86
-42.42
-43.44
-42.22
-38.43
-32.16
-24.03
-15.00
-6.07
1.93
8.49
13.41
16.68
18.36
18.58
17.56
15.69
13.48
11.46
10.04
9.37
9.39
9.87
10.65
11.71
13.18
15.25
17.94
21.05
24.15
26.71
28.29
28.70
28.03
26.58
24.67
22.54
20.26
17.77
14.96
11.80
8.33
4.63
0.76
-3.16
-7.05
-10.66
-13.69
-15.82
-16.91
-17.08
-16.74
-16.34
-16.26
-16.59
-17.20
-17.82
-18.24
-18.44
-18.65
-19.18
-20.38
-22.41
-25.16
-28.18
-30.80
-32.23
-31.81
-29.21
-24.50
-18.15
-10.91
-3.58
3.12
8.67
12.78
15.42
16.74
17.02
16.58
15.66
14.42
12.97
11.43
9.93
8.66
7.76
7.30
7.22
7.47
7.94
8.52
9.10
9.47
9.38
8.56
6.85
4.26
1.01
-2.54
-5.96
-8.86
-11.03
-12.37
-12.97
-13.03
-12.78
-12.51
-12.41
-12.62
-13.13
-13.88
-14.78
-15.80
-17.05
-18.67
-20.79
-23.34
-25.94
-27.90
-28.44
-26.92
-23.05
-17.04
-9.51
-1.35
6.46
13.13
18.12
21.24
22.60
22.50
21.35
19.53
17.35
15.11
13.07
11.51
10.64
10.53
11.11
12.13
13.35
14.61
15.79
16.89
17.86
18.62
19.01
18.92
18.22
16.91
15.12
13.08
11.13
9.57
8.63
8.26
8.22
8.02
7.18
5.36
2.47
-1.29
-5.52
-9.82
-13.88
-17.59
-21.01
-24.35
-27.81
-31.48
-35.18
-38.44
-40.56
-40.78
-38.51
-33.58
-26.30
-17.41
-7.93
1.15
9.07
15.44
20.24
23.67
26.00
27.46
28.17
28.20
27.65
26.70
25.60
24.62
23.99
23.78
23.98
24.46
25.10
25.83
26.61
27.39
28.08
28.50
28.41
27.67
26.29
24.50
22.59
20.86
19.44
18.26
17.15
15.93
14.54
13.05
11.56
10.18
8.92
7.74
6.58
5.38
4.10
2.71
1.16
-0.54
-2.34
-4.13
-5.82
-7.32
-8.66
-9.91
-11.19
-12.62
-14.24
-16.05
-17.98
-19.99
-22.04
-24.11
-26.17
-28.24
-30.43
-32.94
-36.09
-40.03
-44.62
-49.21
-52.69
-53.84
-51.73
-46.11
-37.55
-27.30
-16.80
-7.30
0.47
6.33
10.45
13.17
14.77
15.45
15.41
14.88
14.14
13.46
13.07
13.01
13.25
13.69
14.26
14.98
15.88
17.02
18.31
19.56
20.51
20.93
20.72
19.93
18.70
17.19
15.54
13.86
12.23
10.76
9.55
8.58
7.73
6.79
5.54
3.91
1.99
0.10
-1.47
-2.48
-2.95
-3.11
-3.31
-3.90
-5.08
-6.87
-9.11
-11.54
-13.89
-15.95
-17.66
-19.06
-20.32
-21.60
-23.10
-25.02
-27.54
-30.71
-34.34
-37.86
-40.39
-40.93
-38.70
-33.53
-25.89
-16.83
-7.55
0.94
8.06
13.62
17.68
20.35
21.70
21.77
20.73
18.90
16.76
14.82
13.45
12.82
12.89
13.42
14.18
14.99
15.75
16.46
17.15
17.84
18.48
19.00
19.26
19.10
18.34
16.90
14.76
12.08
9.15
6.33
3.93
2.10
0.77
-0.29
-1.37
-2.75
-4.52
-6.67
-9.02
-11.36
-13.52
-15.39
-16.97
-18.34
-19.71
-21.30
-23.35
-26.03
-29.27
-32.73
-35.74
-37.47
-37.09
-34.09
-28.46
-20.77
-11.96
-3.17
4.63
10.78
15.07
17.62
18.76
18.96
18.58
17.92
17.15
16.35
15.59
14.94
14.49
14.37
14.63
15.26
16.18
17.26
18.36
19.34
20.10
20.50
20.44
19.86
18.79
17.38
15.82
14.29
12.89
11.55
10.13
8.51
6.61
4.52
2.36
0.29
-1.61
-3.31
-4.88
-6.45
-8.16
-10.12
-12.37
-14.81
-17.26
-19.46
-21.25
-22.67
-23.96
-25.51
-27.71
-30.75
-34.47
-38.31
-41.44
-42.96
-42.11
-38.57
-32.47
-24.48
-15.53
-6.61
1.43
8.05
13.02
16.34
18.10
18.54
17.92
16.62
15.08
13.75
12.91
12.68
12.97
13.59
14.36
15.16
16.01
16.94
18.00
19.14
20.25
21.09
21.44
21.16
20.24
18.86
17.29
15.90
14.89
14.31
13.99
13.66
13.07
12.11
10.87
9.49
8.13
6.87
5.71
4.60
3.47
2.25
0.90
-0.59
-2.15
-3.67
-5.05
-6.20
-7.20
-8.21
-9.46
-11.11
-13.20
-15.55
-17.95
-20.17
-22.13
-23.90
-25.66
-27.62
-29.94
-32.72
-35.89
-39.21
-42.19
-44.10
-44.11
-41.52
-36.10
-28.21
-18.81
-9.11
-0.26
7.02
12.49
16.30
18.69
19.89
20.03
19.22
17.72
15.94
14.35
13.35
13.12
13.62
14.60
15.76
16.87
17.80
18.55
19.18
19.73
20.15
20.38
20.29
19.82
18.95
17.76
16.34
14.82
13.27
11.73
10.17
8.56
6.87
5.10
3.25
1.39
-0.42
-2.09
-3.59
-4.90
-6.10
-7.29
-8.63
-10.24
-12.20
-14.48
-16.95
-19.38
-21.53
-23.28
-24.63
-25.75
-26.93
-28.52
-30.81
-33.90
-37.65
-41.58
-44.94
-46.86
-46.58
-43.67
-38.20
-30.75
-22.27
-13.78
-6.15
0.06
4.62
7.53
8.85
8.68
7.22
4.83
2.11
-0.15
-1.23
-0.64
1.63
5.17
9.34
13.47
17.16
20.37
23.28
26.14
29.09
32.10
34.92
37.28
38.88
39.63
39.55
38.85
37.77
36.53
35.28
34.07
32.90
31.75
30.68
29.75
29.04
28.55
28.19
27.81
27.26
26.53
25.74
25.21
25.28
26.20
27.91
30.01
31.78
32.51
31.80
29.80
27.18
24.90
23.77
24.09
25.47
27.02
27.57
26.01
21.56
13.81
2.88
-10.63
-25.58
-40.47
-53.81
-64.46
-71.98
-76.65
-79.18
-80.38
-80.75
-80.36
-79.02
-76.47
-72.59
-67.55
-61.73
-55.59
-49.56
-43.95
-38.90
-34.41
-30.38
-26.74
-23.42
-20.49
-18.00
-16.03
-14.52
-13.34
-12.33
-11.39
-10.51
-9.81
-9.43
-9.49
-10.03
-11.03
-12.35
-13.83
-15.31
-16.66
-17.81
-18.79
-19.75
-20.88
-22.44
-24.71
-27.84
-31.80
-36.22
-40.31
-43.01
-43.21
-40.19
-33.84
-24.84
-14.38
-3.82
5.75
13.72
19.93
24.53
27.71
29.59
30.23
29.72
28.27
26.28
24.26
22.70
21.97
22.18
23.26
24.93
26.86
28.78
30.54
32.10
33.44
34.44
34.90
34.60
33.38
31.35
28.87
26.43
24.42
23.01
21.97
20.87
19.30
17.08
14.32
11.41
8.73
6.54
4.84
3.46
2.10
0.50
-1.52
-3.96
-6.72
-9.62
-12.46
-15.12
-17.58
-19.91
-22.25
-24.83
-27.87
-31.51
-35.71
-40.10
-43.90
-46.07
-45.58
-41.80
-34.78
-25.25
-14.42
-3.58
6.24
14.45
20.87
25.52
28.47
29.75
29.45
27.81
25.29
22.53
20.19
18.72
18.30
18.78
19.87
21.26
22.74
24.28
25.87
27.44
28.82
29.77
30.05
29.56
28.37
26.64
24.57
22.34
20.07
17.81
15.58
13.36
11.10
8.79
6.47
4.22
2.15
0.28
-1.46
-3.22
-5.19
-7.47
-10.03
-12.76
-15.48
-18.08
-20.53
-22.94
-25.50
-28.48
-32.08
-36.37
-41.10
-45.60
-48.85
-49.70
-47.26
-41.25
-32.17
-21.12
-9.51
1.33
10.52
17.67
22.80
26.16
28.01
28.58
28.04
26.59
24.52
22.25
20.25
18.95
18.61
19.27
20.68
22.47
24.27
25.83
27.12
28.19
29.15
29.93
30.35
30.13
29.07
27.17
24.63
21.86
19.27
17.16
15.53
14.17
12.74
10.96
8.78
6.32
3.87
1.62
-0.35
-2.13
-3.92
-5.87
-8.04
-10.38
-12.83
-15.30
-17.77
-20.19
-22.51
-24.69
-26.74
-28.82
-31.19
-34.19
-38.04
-42.59
-47.22
-50.84
-52.17
-50.12
-44.26
-34.94
-23.29
-10.77
1.20
11.57
19.82
25.82
29.72
31.77
32.30
31.68
30.27
28.45
26.52
24.78
23.44
22.69
22.58
23.04
23.90
24.93
25.97
26.94
27.89
28.82
29.64
30.16
30.16
29.42
27.88
25.64
22.94
20.11
17.49
15.30
13.61
12.30
11.12
9.78
8.10
6.05
3.78
1.47
-0.70
-2.65
-4.44
-6.17
-7.94
-9.78
-11.69
-13.66
-15.70
-17.81
-19.99
-22.13
-24.09
-25.78
-27.23
-28.72
-30.65
-33.39
-36.94
-40.80
-43.96
-45.20
-43.51
-38.47
-30.34
-19.93
-8.27
3.70
15.24
25.72
34.56
41.13
44.93
45.77
44.02
40.44
36.01
31.54
27.49
23.96
20.86
18.11
15.75
13.86
12.37
10.97
9.13
6.28
2.11
-3.27
-9.26
-15.03
-19.71
-22.64
-23.45
-22.01
-18.49
-13.36
-7.43
-1.71
2.73
5.14
5.30
3.57
0.77
-2.15
-4.41
-5.63
-5.74
-4.98
-3.73
-2.39
-1.36
-0.98
-1.47
-2.92
-5.25
-8.10
-10.90
-12.89
-13.28
-11.49
-7.33
-1.08
6.58
14.78
22.63
29.34
34.31
37.11
37.49
35.45
31.24
25.46
18.89
12.38
6.61
2.00
-1.34
-3.46
-4.36
-3.90
-1.84
1.97
7.35
13.69
20.06
25.40
28.78
29.63
27.66
22.92
15.66
6.32
-4.48
-16.03
-27.70
-39.00
-49.69
-59.69
-68.89
-77.02
-83.56
-87.91
-89.75
-89.36
-87.71
-86.25
-86.35
-88.67
-92.78
-97.25
-100.15
-99.82
-95.56
-87.77
-77.71
-66.88
-56.38
-46.55
-36.91
-26.44
-13.96
1.32
19.49
39.48
59.12
75.60
86.31
89.96
87.36
81.45
76.36
75.96
82.38
95.28
112.19
129.46
143.64
152.40
154.93
151.75
144.32
134.59
124.79
117.03
112.94
113.19
117.28
123.59
129.83
133.65
133.19
127.43
116.21
100.04
79.85
56.77
32.07
7.00
-17.10
-38.97
-57.57
-72.26
-82.97
-90.12
-94.55
-97.31
-99.56
-102.42
-106.78
-113.08
-120.93
-129.00
-135.13
-136.97
-132.77
-122.10
-106.08
-87.01
-67.46
-49.38
-33.58
-19.72
-6.84
5.89
18.71
31.10
42.05
50.49
55.82
58.01
57.62
55.39
52.05
48.15
44.08
40.21
36.86
34.25
32.26
30.31
27.55
23.11
16.51
8.00
-1.49
-10.54
-17.77
-22.20
-23.46
-21.78
-17.73
-11.97
-5.02
2.79
11.14
19.55
27.16
32.72
34.77
32.04
23.76
10.02
-8.21
-29.37
-51.62
-73.34
-93.40
-111.23
-126.75
-140.14
-151.53
-160.90
-167.90
-171.97
-172.53
-169.22
-162.14
-151.91
-139.72
-127.23
-116.13
-107.55
-101.43
-96.26
-89.57
-79.08
-63.98
-45.69
-27.57
-13.52
-6.30
-6.35
-11.88
-19.97
-27.96
-34.41
-39.15
-42.44
-44.14
-43.39
-38.93
-29.84
-16.10
1.32
20.71
40.34
58.86
75.47
89.79
101.55
110.43
115.94
117.51
114.62
106.99
94.73
78.50
59.57
39.75
21.04
5.19
-6.83
-15.04
-20.32
-24.00
-27.28
-30.97
-35.43
-40.87
-47.46
-55.23
-63.71
-71.76
-77.69
-79.82
-77.15
-69.76
-58.76
-45.78
-32.38
-19.65
-8.14
2.10
11.30
19.92
28.48
37.38
46.68
55.96
64.51
71.68
77.17
81.18
84.15
86.47
88.27
89.45
89.89
89.56
88.51
86.69
83.81
79.37
72.89
64.17
53.44
41.31
28.61
16.18
4.85
-4.57
-11.20
-14.19
-12.97
-7.49
1.61
13.08
25.30
36.79
46.49
53.97
59.27
62.68
64.52
64.91
63.91
61.50
57.83
53.15
47.82
42.12
36.21
30.13
23.79
17.17
10.38
3.71
-2.45
-7.71
-11.79
-14.61
-16.28
-17.06
-17.27
-17.21
-17.15
-17.37
-18.25
-20.20
-23.58
-28.45
-34.37
-40.30
-44.82
-46.54
-44.55
-38.80
-30.03
-19.54
-8.69
1.46
10.37
17.89
24.07
29.00
32.71
35.23
36.65
37.19
37.10
36.59
35.79
34.78
33.55
32.14
30.58
28.95
27.29
25.60
23.84
21.91
19.73
17.21
14.42
11.51
8.71
6.22
4.11
2.25
0.42
-1.63
-4.05
-6.81
-9.78
-12.77
-15.64
-18.32
-20.79
-23.17
-25.67
-28.61
-32.21
-36.43
-40.81
-44.44
-46.28
-45.56
-42.09
-36.33
-29.19
-21.63
-14.33
-7.65
-1.68
3.58
8.06
11.69
14.45
16.45
17.92
19.13
20.28
21.46
22.60
23.53
24.05
24.01
23.40
22.38
21.29
20.50
20.33
20.89
22.09
23.67
25.30
26.68
27.62
28.03
27.87
27.13
25.82
23.94
21.48
18.49
15.05
11.27
7.31
3.37
-0.35
-3.64
-6.34
-8.42
-10.00
-11.35
-12.82
-14.71
-17.11
-19.90
-22.78
-25.45
-27.74
-29.70
-31.53
-33.54
-36.02
-39.10
-42.59
-45.99
-48.46
-49.06
-47.06
-42.23
-34.98
-26.26
-17.19
-8.66
-1.13
5.42
11.18
16.24
20.48
23.60
25.43
26.05
25.96
25.83
26.27
27.56
29.49
31.42
32.43
31.60
28.36
22.70
15.32
7.44
0.49
-4.43
-6.90
-7.29
-6.48
-5.50
-5.00
-5.16
-5.74
-6.42
-6.99
-7.50
-8.04
-8.66
-9.23
-9.52
-9.37
-8.86
-8.34
-8.30
-9.17
-11.09
-13.77
-16.63
-19.00
-20.43
-20.89
-20.76
-20.74
-21.48
-23.35
-26.20
-29.35
-31.79
-32.48
-30.74
-26.45
-20.07
-12.51
-4.76
2.41
8.60
13.74
17.90
21.15
23.40
24.55
24.57
23.62
22.01
20.14
18.31
16.68
15.31
14.25
13.61
13.57
14.23
15.58
17.30
18.92
19.94
20.00
19.11
17.51
15.61
13.74
12.08
10.60
9.18
7.73
6.19
4.62
3.07
1.56
0.06
-1.45
-3.03
-4.66
-6.34
-8.04
-9.76
-11.50
-13.23
-14.95
-16.58
-18.10
-19.47
-20.76
-22.14
-23.82
-25.96
-28.48
-31.04
-33.02
-33.75
-32.69
-29.67
-24.91
-18.93
-12.41
-6.01
-0.25
4.51
8.09
10.45
11.62
11.73
10.99
9.64
8.05
6.54
5.43
4.87
4.87
5.21
5.64
6.01
6.31
6.76
7.59
8.96
10.79
12.79
14.52
15.59
15.73
14.91
13.33
11.34
9.29
7.45
5.89
4.49
3.09
1.59
0.02
-1.51
-2.88
-4.09
-5.27
-6.66
-8.42
-10.56
-12.88
-15.06
-16.84
-18.10
-18.97
-19.72
-20.67
-22.08
-24.02
-26.37
-28.84
-30.99
-32.38
-32.61
-31.44
-28.80
-24.84
-19.87
-14.29
-8.58
-3.17
1.52
5.16
7.54
8.60
8.48
7.52
6.16
4.82
3.84
3.39
3.45
3.91
4.65
5.57
6.61
7.71
8.83
9.85
10.62
10.94
10.66
9.76
8.38
6.83
5.44
4.40
3.70
3.09
2.28
1.05
-0.63
-2.57
-4.50
-6.23
-7.69
-8.96
-10.18
-11.49
-12.98
-14.71
-16.73
-19.00
-21.35
-23.46
-24.85
-25.03
-23.64
-20.62
-16.26
-11.13
-5.91
-1.17
2.73
5.70
7.86
9.38
10.38
10.92
11.01
10.75
10.33
9.96
9.84
10.01
10.40
10.84
11.23
11.56
11.90
12.32
12.78
13.10
12.96
12.02
10.04
7.04
3.37
-0.40
-3.61
-5.76
-6.72
-6.77
-6.50
-6.56
-7.43
-9.23
-11.73
-14.52
-17.19
-19.54
-21.55
-23.34
-25.07
-26.81
-28.46
-29.78
-30.37
-29.85
-27.89
-24.45
-19.77
-14.32
-8.72
-3.58
0.71
3.99
6.28
7.69
8.31
8.20
7.42
6.13
4.65
3.37
2.64
2.68
3.46
4.80
6.41
8.01
9.40
10.50
11.33
11.94
12.40
12.75
12.96
12.98
12.72
12.15
11.32
10.40
9.55
8.85
8.18
7.30
5.92
3.93
1.40
-1.38
-4.09
-6.52
-8.65
-10.65
-12.74
-15.10
-17.80
-20.75
-23.76
-26.48
-28.43
-29.10
-28.10
-25.29
-20.85
-15.22
-8.98
-2.67
3.33
8.74
13.38
17.10
19.79
21.41
21.96
21.56
20.40
18.79
17.10
15.77
15.13
15.33
16.26
17.63
19.06
20.20
20.87
20.99
20.56
19.61
18.15
16.28
14.16
12.01
10.07
8.49
7.28
6.31
5.37
4.23
2.69
0.68
-1.75
-4.46
-7.24
-9.87
-12.22
-14.18
-15.75
-16.98
-18.02
-19.13
-20.60
-22.66
-25.33
-28.31
-30.98
-32.60
-32.52
-30.50
-26.70
-21.63
-15.90
-10.01
-4.25
1.21
6.15
10.27
13.18
14.64
14.64
13.57
12.07
10.83
10.37
10.86
12.08
13.60
14.96
15.92
16.40
16.51
16.30
15.76
14.77
13.34
11.62
9.97
8.77
8.21
8.15
8.14
7.63
6.26
3.99
1.15
-1.81
-4.56
-7.09
-9.62
-12.51
-15.90
-19.67
-23.37
-26.42
-28.25
-28.51
-27.07
-23.99
-19.47
-13.79
-7.35
-0.68
5.64
11.06
15.25
18.16
19.95
20.82
20.94
20.37
19.20
17.65
16.10
15.12
15.22
16.66
19.36
22.92
26.79
30.48
33.71
36.43
38.69
40.54
41.85
42.34
41.70
39.75
36.50
32.19
27.18
21.86
16.61
11.83
7.90
5.20
3.93
4.00
4.98
6.19
6.88
6.43
4.56
1.26
-3.26
-8.68
-14.69
-21.02
-27.49
-33.94
-40.26
-46.34
-52.08
-57.37
-62.03
-65.72
-67.91
-68.01
-65.60
-60.67
-53.72
-45.68
-37.58
-30.20
-23.79
-18.18
-12.95
-7.75
-2.51
2.54
7.03
10.66
13.32
15.12
16.36
17.44
18.77
20.60
22.98
25.73
28.44
30.68
32.12
32.67
32.58
32.35
32.60
33.76
35.92
38.70
41.45
43.50
44.51
44.65
44.55
45.01
46.63
49.42
52.71
55.39
56.33
54.99
51.80
48.14
45.79
46.11
49.23
53.76
57.25
57.08
51.66
41.16
27.63
14.38
4.86
1.11
2.63
5.86
4.76
-7.52
-36.14
-82.15
-141.41
-205.32
-263.29
-305.94
-327.81
-328.99
-315.02
-295.26
-279.99
-276.99
-288.80
-311.65
-336.90
-354.37
-356.22
-339.65
-306.85
-262.96
-213.04
-159.96
-104.19
-45.14
16.97
79.95
139.96
192.72
234.86
264.84
283.15
291.75
293.11
289.17
280.91
268.42
251.71
231.53
209.77
189.07
171.73
158.62
148.78
139.97
129.93
117.56
103.45
89.59
78.34
71.25
68.31
67.95
67.75
65.31
59.17
49.16
36.28
22.28
9.05
-1.88
-9.63
-14.07
-15.69
-15.35
-13.98
-12.29
-10.63
-9.00
-7.21
-5.16
-3.00
-1.22
-0.44
-1.20
-3.63
-7.35
-11.52
-15.04
-16.89
-16.42
-13.57
-9.00
-3.86
0.42
2.57
1.83
-1.71
-7.21
-13.33
-18.85
-22.94
-25.40
-26.56
-27.01
-27.39
-28.19
-29.66
-31.78
-34.24
-36.48
-37.99
-38.51
-38.22
-37.67
-37.37
-37.44
-37.37
-36.28
-33.51
-29.06
-23.78
-18.88
-15.34
-13.39
-12.47
-11.55
-9.73
-6.56
-2.13
3.24
9.34
16.14
23.73
32.03
40.63
48.73
55.41
59.93
61.93
61.63
59.62
56.70
53.56
50.68
48.23
46.10
44.12
42.20
40.45
39.11
38.41
38.41
38.87
39.34
39.32
38.45
36.68
34.19
31.25
28.11
24.85
21.48
18.00
14.44
10.91
7.50
4.21
0.94
-2.42
-5.91
-9.43
-12.74
-15.62
-17.92
-19.72
-21.27
-22.85
-24.65
-26.66
-28.68
-30.38
-31.39
-31.43
-30.28
-27.79
-23.98
-19.04
-13.39
-7.62
-2.35
1.90
4.85
6.47
6.92
6.42
5.20
3.48
1.47
-0.53
-2.19
-3.19
-3.32
-2.57
-1.12
0.71
2.58
4.24
5.61
6.74
7.71
8.55
9.21
9.60
9.62
9.28
8.62
7.71
6.56
5.12
3.34
1.22
-1.12
-3.53
-5.88
-8.15
-10.38
-12.66
-15.08
-17.68
-20.47
-23.36
-26.21
-28.68
-30.31
-30.60
-29.21
-26.14
-21.68
-16.38
-10.86
-5.66
-1.15
2.41
4.94
6.45
7.13
7.23
7.06
6.88
6.85
7.05
7.50
8.18
9.01
9.87
10.57
11.03
11.28
11.50
11.94
12.70
13.67
14.44
14.51
13.46
11.19
7.98
4.36
0.95
-1.86
-3.99
-5.65
-7.21
-8.98
-11.15
-13.71
-16.52
-19.37
-22.06
-24.46
-26.52
-28.37
-30.14
-31.95
-33.71
-35.10
-35.59
-34.71
-32.17
-28.06
-22.78
-16.89
-10.92
-5.20
0.03
4.59
8.27
10.80
11.97
11.78
10.52
8.68
6.88
5.56
4.98
5.11
5.79
6.84
8.08
9.42
10.71
11.78
12.44
12.61
12.31
11.70
10.92
9.97
8.70
6.88
4.40
1.34
-1.91
-4.92
-7.32
-9.01
-10.20
-11.30
-12.73
-14.78
-17.50
-20.64
-23.75
-26.21
-27.39
-26.79
-24.24
-19.91
-14.31
-8.18
-2.19
3.17
7.71
11.42
14.35
16.43
17.50
17.40
16.14
14.03
11.56
9.34
7.87
7.38
7.87
9.08
10.61
11.97
12.60
12.03
9.97
6.51
2.12
-2.41
-6.27
-8.84
-9.82
-9.27
-7.47
-4.75
-1.48
1.99
5.28
7.98
9.76
10.45
10.14
9.17
8.02
7.10
6.69
6.80
7.17
7.38
6.92
5.30
2.16
-2.57
-8.65
-15.43
-21.91
-26.98
-29.62
-29.20
-25.68
-19.59
-11.90
-3.76
3.76
9.97
14.55
17.56
19.30
20.14
20.43
20.39
20.17
19.87
19.56
19.31
19.17
19.10
19.00
18.72
18.10
17.11
15.80
14.39
13.12
12.20
11.75
11.76
12.13
12.70
13.32
13.80
13.99
13.77
13.15
12.22
11.20
10.28
9.60
9.14
8.84
8.60
8.42
8.39
8.65
9.29
10.30
11.52
12.74
13.73
14.33
14.38
13.73
12.26
9.84
6.53
2.60
-1.50
-5.23
-8.15
-10.14
-11.43
-12.48
-13.80
-15.71
-18.34
-21.67
-25.70
-30.42
-35.63
-40.71
-44.55
-45.81
-43.48
-37.41
-28.62
-19.04
-10.87
-5.78
-4.37
-6.12
-9.75
-13.80
-17.19
-19.31
-20.01
-19.39
-17.56
-14.58
-10.58
-5.83
-0.81
3.89
7.73
10.39
11.92
12.63
12.95
13.22
13.54
13.79
13.67
12.93
11.47
9.47
7.27
5.22
3.49
1.97
0.33
-1.83
-4.68
-8.09
-11.64
-14.81
-17.23
-18.82
-19.82
-20.66
-21.79
-23.55
-26.11
-29.47
-33.43
-37.55
-41.13
-43.31
-43.24
-40.36
-34.68
-26.80
-17.76
-8.69
-0.49
6.39
11.85
16.00
18.95
20.69
21.24
20.66
19.21
17.35
15.57
14.30
13.74
13.87
14.45
15.22
15.97
16.64
17.26
17.92
18.66
19.37
19.86
19.89
19.32
18.15
16.53
14.72
12.92
11.29
9.83
8.42
6.93
5.25
3.36
1.35
-0.68
-2.70
-4.75
-6.94
-9.34
-11.94
-14.61
-17.20
-19.70
-22.21
-24.97
-28.14
-31.63
-35.01
-37.55
-38.48
-37.15
-33.38
-27.45
-20.03
-12.01
-4.21
2.76
8.58
13.16
16.56
18.90
20.34
21.04
21.21
21.03
20.68
20.32
20.04
19.85
19.70
19.50
19.18
18.76
18.32
17.97
17.75
17.58
17.29
16.71
15.76
14.50
13.08
11.66
10.28
8.91
7.39
5.66
3.71
1.67
-0.27
-1.95
-3.38
-4.68
-6.06
-7.74
-9.86
-12.36
-15.10
-17.80
-20.22
-22.19
-23.70
-24.91
-26.16
-27.89
-30.46
-33.91
-37.77
-41.11
-42.74
-41.68
-37.50
-30.53
-21.65
-12.00
-2.65
5.70
12.67
18.10
21.95
24.25
25.13
24.87
23.91
22.69
21.61
20.87
20.52
20.52
20.82
21.44
22.42
23.76
25.34
26.96
28.36
29.37
29.90
29.94
29.52
28.61
27.19
25.27
22.98
20.56
18.25
16.20
14.45
12.90
11.41
9.91
8.39
6.94
5.68
4.72
4.10
3.75
3.44
2.84
1.56
-0.73
-4.16
-8.61
-13.70
-18.90
-23.65
-27.55
-30.42
-32.42
-34.00
-35.76
-38.26
-41.78
-46.08
-50.41
-53.55
-54.29
-51.74
-45.71
-36.83
-26.26
-15.37
-5.33
3.18
9.98
15.25
19.29
22.29
24.34
25.50
25.84
25.55
24.76
23.56
21.93
19.85
17.44
15.00
12.99
11.88
11.92
13.05
14.94
17.08
18.95
20.13
20.35
19.56
17.86
15.56
13.06
10.71
8.74
7.19
5.94
4.85
3.76
2.62
1.44
0.26
-0.86
-1.88
-2.82
-3.74
-4.79
-6.11
-7.81
-9.87
-12.14
-14.38
-16.35
-17.91
-19.10
-20.13
-21.35
-23.17
-25.88
-29.46
-33.48
-37.07
-39.11
-38.60
-34.93
-28.15
-18.96
-8.49
2.03
11.54
19.42
25.40
29.55
32.08
33.23
33.23
32.36
30.98
29.45
28.14
27.25
26.78
26.59
26.47
26.27
26.00
25.74
25.55
25.38
25.12
24.67
23.99
23.11
22.10
20.95
19.57
17.86
15.78
13.42
10.93
8.48
6.15
4.01
2.07
0.41
-0.91
-1.91
-2.72
-3.57
-4.68
-6.22
-8.17
-10.41
-12.73
-14.97
-17.07
-19.14
-21.44
-24.31
-28.12
-33.03
-38.87
-44.94
-50.14
-53.16
-52.91
-48.89
-41.36
-31.29
-20.08
-9.13
0.46
8.04
13.36
16.46
17.46
16.58
14.04
10.24
5.69
1.04
-3.02
-5.90
-7.25
-7.03
-5.45
-2.92
0.10
3.18
5.95
8.13
9.52
10.00
9.56
8.35
6.62
4.69
2.87
1.36
0.23
-0.59
-1.25
-1.92
-2.71
-3.66
-4.77
-6.02
-7.42
-8.97
-10.65
-12.40
-14.09
-15.54
-16.55
-17.04
-17.07
-16.93
-17.08
-18.06
-20.28
-23.79
-28.14
-32.34
-35.12
-35.25
-32.00
-25.42
-16.26
-5.77
4.75
14.29
22.29
28.63
33.42
36.82
38.96
39.95
39.91
39.10
37.86
36.63
35.81
35.67
36.29
37.48
38.77
39.51
38.93
36.38
31.49
24.40
15.79
6.80
-1.22
-7.08
-10.10
-10.32
-8.35
-5.14
-1.65
1.35
3.36
4.07
3.32
1.08
-2.39
-6.60
-10.82
-14.32
-16.59
-17.56
-17.55
-17.15
-16.99
-17.47
-18.69
-20.44
-22.36
-24.12
-25.54
-26.67
-27.75
-29.09
-31.01
-33.74
-37.36
-41.66
-46.10
-49.84
-51.82
-51.07
-47.02
-39.74
-30.01
-19.09
-8.39
0.95
8.27
13.46
16.80
18.74
19.70
19.94
19.61
18.81
17.71
16.58
15.74
15.39
15.56
16.00
16.40
16.52
16.40
16.31
16.63
17.58
19.06
20.64
21.72
21.79
20.67
18.59
16.01
13.51
11.46
9.97
8.87
7.85
6.63
5.07
3.19
1.13
-0.95
-2.97
-4.92
-6.84
-8.71
-10.44
-11.90
-12.98
-13.78
-14.53
-15.62
-17.31
-19.71
-22.70
-26.10
-29.88
-34.11
-38.84
-43.79
-48.12
-50.55
-49.74
-44.94
-36.35
-25.20
-13.35
-2.61
5.77
11.38
14.49
15.66
15.49
14.43
12.77
10.83
8.98
7.66
7.22
7.76
9.09
10.79
12.38
13.51
14.10
14.31
14.44
14.74
15.31
16.01
16.58
16.77
16.41
15.49
14.12
12.46
10.62
8.67
6.62
4.47
2.25
0.06
-2.02
-3.89
-5.55
-7.05
-8.51
-10.06
-11.82
-13.85
-16.12
-18.50
-20.80
-22.92
-24.85
-26.82
-29.17
-32.21
-35.96
-39.96
-43.32
-44.92
-43.81
-39.59
-32.52
-23.50
-13.65
-4.06
4.56
11.85
17.72
22.24
25.48
27.54
28.54
28.68
28.25
27.58
26.99
26.75
26.97
27.66
28.64
29.61
30.28
30.47
30.20
29.70
29.31
29.26
29.59
30.02
30.06
29.19
27.08
23.79
19.79
15.81
12.53
10.35
9.22
8.72
8.27
7.39
5.89
3.88
1.63
-0.58
-2.64
-4.57
-6.47
-8.42
-10.45
-12.53
-14.64
-16.79
-18.99
-21.25
-23.53
-25.79
-27.99
-30.19
-32.55
-35.33
-38.68
-42.52
-46.35
-49.29
-50.35
-48.65
-43.91
-36.51
-27.42
-17.87
-8.93
-1.26
4.92
9.72
13.35
15.92
17.53
18.29
18.40
18.18
17.94
17.92
18.19
18.67
19.21
19.71
20.18
20.71
21.44
22.46
23.75
25.13
26.33
27.06
27.15
26.57
25.43
23.92
22.25
20.57
18.94
17.43
16.04
14.75
13.46
12.08
10.53
8.81
6.99
5.20
3.49
1.79
-0.11
-2.47
-5.50
-9.29
-13.69
-18.39
-22.87
-26.53
-28.89
-29.78
-29.47
-28.70
-28.38
-29.23
-31.38
-34.24
-36.67
-37.46
-35.81
-31.60
-25.38
-18.08
-10.60
-3.57
2.78
8.43
13.43
17.72
21.11
23.36
24.33
24.09
22.88
21.12
19.25
17.64
16.49
15.91
15.92
16.50
17.58
19.01
20.58
21.91
22.66
22.52
21.40
19.46
17.04
14.59
12.47
10.83
9.53
8.30
6.80
4.88
2.62
0.25
-2.00
-4.04
-6.00
-8.13
-10.66
-13.65
-16.97
-20.30
-23.27
-25.52
-26.83
-27.19
-26.82
-26.22
-26.07
-27.07
-29.62
-33.68
-38.54
-43.06
-45.87
-45.85
-42.42
-35.75
-26.64
-16.22
-5.67
4.10
12.53
19.39
24.65
28.36
30.59
31.48
31.31
30.45
29.43
28.69
28.57
29.11
30.10
31.19
32.06
32.57
32.79
32.94
33.19
33.58
33.99
34.20
34.05
33.49
32.59
31.51
30.36
29.18
27.93
26.52
24.93
23.22
21.48
19.81
18.24
16.70
15.10
13.37
11.57
9.90
8.58
7.74
7.32
7.02
6.44
5.22
3.23
0.58
-2.46
-5.54
-8.39
-10.82
-12.73
-14.11
-15.05
-15.77
-16.53
-17.59
-19.11
-21.04
-23.18
-25.24
-26.98
-28.28
-29.18
-29.87
-30.61
-31.65
-33.10
-34.75
-36.00
-36.02
-34.00
-29.48
-22.58
-13.94
-4.49
4.83
13.31
20.48
26.00
29.59
30.97
29.98
26.68
21.47
15.02
8.13
1.56
-4.09
-8.43
-11.30
-12.67
-12.64
-11.39
-9.15
-6.20
-2.91
0.30
3.04
4.95
5.83
5.66
4.65
3.23
1.89
1.03
0.79
1.05
1.47
1.72
1.65
1.35
1.06
0.96
1.06
1.14
0.92
0.12
-1.30
-3.18
-5.28
-7.36
-9.33
-11.22
-13.19
-15.37
-17.88
-20.78
-24.10
-27.74
-31.45
-34.76
-36.96
-37.28
-35.06
-30.06
-22.62
-13.67
-4.46
3.74
10.10
14.38
16.87
18.21
18.97
19.46
19.67
19.47
18.81
17.89
17.09
16.82
17.28
18.44
20.10
22.11
24.43
27.06
29.87
32.37
33.80
33.42
30.79
26.04
19.77
12.78
5.76
-0.86
-6.85
-12.01
-16.07
-18.67
-19.51
-18.50
-15.83
-11.98
-7.61
-3.44
-0.18
1.64
1.74
0.21
-2.53
-5.82
-8.97
-11.41
-12.83
-13.23
-12.88
-12.23
-11.75
-11.85
-12.75
-14.48
-16.92
-19.91
-23.36
-27.26
-31.65
-36.45
-41.39
-45.90
-49.23
-50.51
-49.03
-44.52
-37.26
-28.12
-18.35
-9.20
-1.54
4.30
8.53
11.64
14.15
16.31
18.13
19.45
20.14
20.22
19.92
19.58
19.57
20.13
21.29
22.86
24.48
25.83
26.71
27.15
27.33
27.44
27.54
27.54
27.22
26.37
24.93
23.01
20.83
18.65
16.63
14.84
13.36
12.28
11.75
11.92
12.70
13.73
14.40
14.03
12.18
8.90
4.64
0.16
-3.88
-7.07
-9.37
-11.06
-12.45
-13.84
-15.35
-17.15
-19.46
-22.69
-27.21
-33.16
-40.17
-47.27
-53.11
-56.25
-55.76
-51.47
-44.06
-34.75
-24.88
-15.49
-7.15
-0.00
5.99
10.85
14.47
16.70
17.53
17.19
16.17
15.13
14.61
14.90
15.96
17.48
19.06
20.37
21.27
21.76
21.98
22.03
21.95
21.66
21.03
19.91
18.21
16.02
13.52
10.97
8.60
6.53
4.77
3.19
1.67
0.03
-1.80
-3.91
-6.28
-8.87
-11.60
-14.33
-16.91
-19.19
-21.15
-22.85
-24.51
-26.44
-28.96
-32.16
-35.76
-39.07
-41.12
-40.97
-38.03
-32.31
-24.44
-15.42
-6.34
1.92
8.79
13.96
17.35
19.00
19.16
18.29
17.04
16.05
15.79
16.34
17.48
18.79
19.88
20.57
20.90
21.06
21.20
21.41
21.65
21.81
21.81
21.63
21.26
20.73
20.06
19.24
18.27
17.18
16.06
15.00
14.07
13.26
12.48
11.58
10.47
9.19
7.89
6.84
6.22
6.02
6.01
5.82
5.08
3.64
1.62
-0.70
-2.94
-4.87
-6.47
-7.92
-9.50
-11.47
-13.91
-16.70
-19.55
-22.16
-24.34
-26.10
-27.71
-29.58
-32.17
-35.82
-40.53
-45.90
-51.06
-54.79
-55.85
-53.29
-46.86
-37.10
-25.25
-12.93
-1.66
7.49
14.09
18.24
20.43
21.32
21.53
21.61
21.94
22.78
24.17
26.00
27.92
29.51
30.35
30.22
29.19
27.64
26.12
25.13
24.88
25.29
25.99
26.54
26.59
25.97
24.68
22.83
20.60
18.15
15.71
13.47
11.58
10.08
8.88
7.78
6.56
5.08
3.30
1.37
-0.52
-2.25
-3.75
-5.16
-6.60
-8.23
-10.03
-11.89
-13.69
-15.31
-16.76
-18.11
-19.47
-20.94
-22.64
-24.75
-27.43
-30.71
-34.34
-37.70
-39.87
-39.94
-37.27
-31.75
-23.86
-14.55
-4.93
3.99
11.48
17.20
21.10
23.27
23.89
23.12
21.22
18.55
15.68
13.26
11.83
11.68
12.71
14.42
16.20
17.53
18.23
18.46
18.57
18.85
19.39
20.02
20.43
20.39
19.84
18.92
17.87
16.91
16.08
15.26
14.26
12.94
11.33
9.66
8.24
7.32
6.98
7.03
7.02
6.35
4.48
1.07
-3.87
-9.92
-16.31
-22.05
-26.17
-28.12
-28.06
-27.00
-26.61
-28.56
-33.77
-41.86
-51.00
-58.50
-61.70
-58.93
-50.03
-36.23
-19.75
-3.11
11.33
21.69
26.79
26.38
21.18
12.85
3.59
-4.51
-10.00
-12.40
-12.07
-9.81
-6.44
-2.53
1.57
5.59
9.30
12.46
14.97
16.88
18.37
19.60
20.60
21.21
21.15
20.20
18.33
15.81
13.10
10.76
9.15
8.34
8.05
7.81
7.20
5.96
4.16
2.03
-0.11
-2.06
-3.81
-5.49
-7.34
-9.51
-12.05
-14.85
-17.69
-20.33
-22.62
-24.59
-26.42
-28.45
-30.96
-34.09
-37.75
-41.56
-44.94
-47.14
-47.38
-45.03
-39.85
-32.10
-22.64
-12.66
-3.40
4.24
9.95
13.90
16.58
18.47
19.85
20.82
21.43
21.77
22.08
22.61
23.57
24.95
26.60
28.26
29.71
30.83
31.62
32.03
31.87
30.70
28.01
23.46
17.19
10.01
3.19
-1.92
-4.42
-4.16
-1.81
1.49
4.55
6.57
7.21
6.50
4.66
1.90
-1.53
-5.34
-9.12
-12.47
-15.07
-16.90
-18.21
-19.41
-20.88
-22.79
-25.08
-27.55
-30.02
-32.47
-35.04
-37.90
-41.04
-44.15
-46.52
-47.29
-45.68
-41.32
-34.37
-25.54
-15.82
-6.23
2.42
9.69
15.42
19.61
22.35
23.80
24.11
23.53
22.37
20.95
19.54
18.31
17.32
16.63
16.29
16.40
17.06
18.32
20.06
22.04
23.94
25.47
26.53
27.21
27.70
28.22
28.80
29.29
29.37
28.67
27.02
24.46
21.33
18.11
15.22
12.87
11.01
9.36
7.58
5.43
2.89
0.08
-2.81
-5.61
-8.24
-10.70
-13.06
-15.42
-17.98
-21.04
-24.87
-29.56
-34.77
-39.63
-42.93
-43.50
-40.72
-34.81
-26.85
-18.34
-10.79
-5.14
-1.74
-0.30
-0.21
-0.77
-1.32
-1.35
-0.47
1.46
4.43
8.18
12.35
16.50
20.19
23.05
24.85
25.53
25.27
24.46
23.59
23.08
23.10
23.50
23.89
23.85
23.11
21.62
19.59
17.32
15.13
13.23
11.66
10.41
9.39
8.51
7.71
6.95
6.17
5.30
4.21
2.79
1.00
-1.06
-3.15
-5.00
-6.39
-7.30
-7.90
-8.46
-9.26
-10.47
-12.07
-13.96
-15.95
-17.94
-19.85
-21.69
-23.49
-25.34
-27.35
-29.71
-32.58
-35.99
-39.66
-42.96
-44.97
-44.76
-41.69
-35.69
-27.27
-17.38
-7.10
2.66
11.25
18.29
23.60
27.14
29.10
29.88
30.15
30.67
32.08
34.64
38.09
41.67
44.35
45.08
43.19
38.54
31.57
23.22
14.57
6.55
-0.27
-5.76
-10.14
-13.65
-16.45
-18.48
-19.61
-19.73
-18.96
-17.64
-16.21
-15.08
-14.42
-14.21
-14.25
-14.42
-14.65
-15.07
-15.83
-17.05
-18.75
-20.80
-22.98
-25.02
-26.70
-27.93
-28.81
-29.63
-30.83
-32.86
-35.95
-39.96
-44.33
-48.13
-50.34
-50.09
-46.92
-40.93
-32.72
-23.21
-13.45
-4.34
3.48
9.67
14.18
17.07
18.50
18.69
17.98
16.77
15.54
14.68
14.45
14.91
15.91
17.26
18.71
20.11
21.42
22.66
23.89
25.11
26.26
27.20
27.77
27.83
27.34
26.34
24.95
23.29
21.40
19.26
16.79
13.90
10.57
6.87
2.97
-0.89
-4.53
-7.77
-10.56
-12.97
-15.13
-17.24
-19.53
-22.21
-25.45
-29.27
-33.45
-37.44
-40.39
-41.33
-39.50
-34.66
-27.31
-18.53
-9.67
-1.81
4.55
9.55
13.68
17.41
20.87
23.81
25.82
26.65
26.36
25.37
24.21
23.36
23.10
23.60
24.87
26.86
29.34
31.94
34.08
35.24
35.11
33.77
31.65
29.35
27.40
26.03
25.13
24.35
23.25
21.53
19.09
16.11
12.85
9.63
6.62
3.89
1.36
-0.98
-3.10
-4.82
-6.00
-6.59
-6.76
-6.79
-7.04
-7.79
-9.11
-10.97
-13.22
-15.73
-18.43
-21.29
-24.32
-27.46
-30.58
-33.45
-35.95
-38.08
-40.14
-42.56
-45.68
-49.38
-52.94
-55.13
-54.60
-50.49
-42.78
-32.32
-20.56
-9.01
1.17
9.40
15.61
20.05
23.08
25.00
26.10
26.60
26.67
26.47
26.10
25.73
25.49
25.51
25.77
26.07
26.09
25.55
24.36
22.75
21.17
20.02
19.46
19.28
19.06
18.37
17.00
15.05
12.82
10.66
8.79
7.33
6.36
5.93
6.11
6.91
8.27
9.98
11.84
13.62
15.17
16.39
17.14
17.23
16.43
14.51
11.31
6.82
1.19
-5.25
-12.09
-18.93
-25.52
-31.88
-38.24
-44.93
-52.06
-59.26
-65.59
-69.70
-70.36
-66.90
-59.63
-49.72
-38.85
-28.66
-20.31
-14.28
-10.47
-8.36
-7.29
-6.59
-5.59
-3.75
-0.70
3.65
9.12
15.30
21.63
27.53
32.51
36.23
38.64
39.93
40.59
41.23
42.42
44.42
47.11
49.92
52.09
52.83
51.60
48.26
43.03
36.44
29.14
21.75
14.75
8.41
2.81
-2.12
-6.43
-10.20
-13.44
-16.19
-18.55
-20.65
-22.67
-24.76
-27.04
-29.65
-32.77
-36.55
-40.96
-45.58
-49.50
-51.56
-50.65
-46.25
-38.63
-28.85
-18.37
-8.60
-0.51
5.60
9.96
13.07
15.45
17.48
19.35
21.10
22.78
24.44
26.15
27.95
29.75
31.32
32.40
32.80
32.50
31.72
30.78
29.95
29.33
28.79
28.02
26.69
24.61
21.78
18.37
14.67
10.95
7.38
4.07
1.03
-1.79
-4.42
-6.93
-9.37
-11.77
-14.11
-16.34
-18.38
-20.14
-21.59
-22.81
-23.97
-25.41
-27.51
-30.59
-34.81
-39.92
-45.22
-49.66
-52.01
-51.31
-47.14
-39.82
-30.36
-20.08
-10.23
-1.70
5.15
10.35
14.13
16.70
18.17
18.59
18.06
16.81
15.27
13.93
13.21
13.37
14.37
15.92
17.58
18.93
19.65
19.61
18.86
17.58
15.97
14.18
12.30
10.35
8.35
6.30
4.28
2.39
0.69
-0.81
-2.21
-3.68
-5.40
-7.52
-10.06
-12.89
-15.81
-18.55
-20.93
-22.83
-24.31
-25.57
-26.94
-28.83
-31.55
-35.19
-39.41
-43.50
-46.43
-47.19
-45.04
-39.82
-32.00
-22.55
-12.64
-3.35
4.62
10.91
15.58
18.87
21.12
22.69
23.85
24.83
25.75
26.65
27.48
28.13
28.50
28.55
28.37
28.11
28.02
28.26
28.90
29.85
30.91
31.79
32.19
31.90
30.82
28.99
26.62
23.95
21.19
18.45
15.74
13.01
10.22
7.37
4.57
1.88
-0.65
-3.09
-5.55
-8.18
-11.09
-14.29
-17.72
-21.22
-24.58
-27.62
-30.20
-32.37
-34.34
-36.49
-39.24
-42.87
-47.31
-51.98
-55.85
-57.66
-56.38
-51.52
-43.39
-32.97
-21.66
-10.78
-1.32
6.22
11.82
15.71
18.27
19.85
20.76
21.22
21.44
21.59
21.83
22.35
23.24
24.55
26.16
27.88
29.50
30.89
32.01
32.84
33.37
33.48
33.01
31.88
30.11
27.93
25.62
23.49
21.68
20.16
18.78
17.37
15.80
14.06
12.21
10.36
8.64
7.11
5.78
4.57
3.33
1.91
0.20
-1.81
-4.02
-6.28
-8.54
-10.83
-13.28
-15.98
-18.88
-21.76
-24.40
-26.65
-28.59
-30.51
-32.76
-35.61
-39.21
-43.49
-48.18
-52.77
-56.46
-58.30
-57.32
-52.92
-45.15
-34.79
-23.14
-11.66
-1.48
6.83
13.23
18.01
21.45
23.77
25.08
25.50
25.25
24.67
24.10
23.81
23.92
24.38
25.06
25.80
26.52
27.14
27.66
28.05
28.32
28.46
28.47
28.35
28.03
27.42
26.41
24.92
22.97
20.67
18.20
15.78
13.59
11.72
10.18
8.86
7.60
6.22
4.58
2.65
0.54
-1.48
-3.17
-4.39
-5.20
-5.90
-6.82
-8.25
-10.31
-12.92
-15.89
-19.06
-22.25
-25.38
-28.37
-31.25
-34.10
-37.14
-40.61
-44.49
-48.32
-51.13
-51.69
-48.95
-42.53
-33.05
-21.89
-10.75
-1.05
6.50
11.89
15.53
17.85
19.09
19.31
18.59
17.15
15.38
13.68
12.33
11.41
10.85
10.58
10.55
10.80
11.31
11.96
12.49
12.64
12.20
11.08
9.36
7.21
4.92
2.78
1.03
-0.14
-0.73
-0.90
-0.87
-0.86
-0.95
-1.04
-1.01
-0.76
-0.36
0.00
0.06
-0.34
-1.16
-2.22
-3.33
-4.40
-5.59
-7.17
-9.50
-12.85
-17.26
-22.44
-27.75
-32.24
-34.75
-34.29
-30.24
-22.72
-12.56
-1.13
10.02
19.61
26.84
31.45
33.58
33.63
32.08
29.45
26.27
23.11
20.52
18.96
18.72
19.96
22.63
26.54
31.33
36.50
41.42
45.47
48.13
49.08
48.30
45.93
42.25
37.53
32.00
25.89
19.50
13.19
7.32
2.17
-2.20
-5.94
-9.28
-12.41
-15.30
-17.70
-19.31
-19.96
-19.78
-19.20
-18.82
-19.17
-20.49
-22.65
-25.25
-27.79
-29.90
-31.45
-32.60
-33.66
-35.07
-37.20
-40.28
-44.23
-48.56
-52.41
-54.72
-54.51
-51.22
-44.85
-36.02
-25.73
-15.11
-5.12
3.54
10.48
15.55
18.78
20.34
20.48
19.58
18.09
16.51
15.30
14.81
15.18
16.31
17.86
19.42
20.59
21.17
21.16
20.76
20.19
19.64
19.19
18.78
18.34
17.75
16.91
15.77
14.33
12.63
10.82
9.10
7.63
6.53
5.72
5.01
4.16
3.01
1.54
-0.07
-1.62
-3.00
-4.26
-5.62
-7.32
-9.51
-12.13
-14.98
-17.76
-20.21
-22.21
-23.82
-25.25
-26.83
-28.97
-31.97
-36.01
-40.91
-46.02
-50.33
-52.59
-51.69
-47.03
-38.82
-28.00
-16.06
-4.55
5.33
12.95
18.34
21.89
24.12
25.42
25.95
25.77
24.98
23.76
22.44
21.32
20.65
20.49
20.77
21.39
22.22
23.23
24.36
25.52
26.55
27.21
27.26
26.55
25.10
23.08
20.78
18.47
16.34
14.41
12.58
10.65
8.48
6.02
3.34
0.61
-1.96
-4.19
-6.01
-7.54
-8.98
-10.61
-12.61
-14.99
-17.53
-19.87
-21.76
-23.17
-24.37
-25.85
-28.13
-31.45
-35.72
-40.43
-44.70
-47.52
-47.96
-45.40
-39.68
-31.21
-20.87
-9.78
0.87
10.17
17.56
22.90
26.39
28.33
29.06
28.88
28.02
26.74
25.29
23.96
23.03
22.74
23.25
24.62
26.83
29.75
33.14
36.59
39.48
41.09
40.68
37.69
32.01
23.98
14.43
4.48
-4.79
-12.67
-18.96
-23.91
-27.99
-31.45
-34.23
-36.01
-36.47
-35.58
-33.79
-31.81
-30.38
-29.94
-30.46
-31.56
-32.76
-33.74
-34.44
-35.04
-35.87
-37.22
-39.31
-42.19
-45.65
-49.14
-51.82
-52.65
-50.74
-45.57
-37.29
-26.64
-14.80
-3.04
7.61
16.52
23.39
28.22
31.16
32.44
32.39
31.42
30.05
28.74
27.84
27.47
27.53
27.84
28.23
28.61
29.05
29.65
30.45
31.36
32.17
32.58
32.34
31.33
29.61
27.39
24.99
22.73
20.79
19.19
17.78
16.27
14.44
12.22
9.71
7.18
4.86
2.88
1.17
-0.51
-2.42
-4.70
-7.30
-10.06
-12.77
-15.30
-17.66
-19.98
-22.45
-25.27
-28.63
-32.61
-37.16
-41.95
-46.33
-49.34
-49.93
-47.30
-41.22
-32.15
-21.21
-9.84
0.60
9.20
15.60
19.93
22.56
23.94
24.39
24.08
23.12
21.64
19.85
18.03
16.55
15.66
15.51
16.02
16.99
18.16
19.32
20.40
21.36
22.18
22.81
23.07
22.79
21.85
20.25
18.16
15.81
13.40
11.04
8.72
6.36
3.91
1.37
-1.16
-3.61
-5.94
-8.24
-10.67
-13.29
-16.09
-18.84
-21.29
-23.26
-24.82
-26.33
-28.28
-31.11
-34.95
-39.45
-43.79
-46.85
-47.57
-45.23
-39.73
-31.61
-21.86
-11.68
-2.14
6.02
12.39
16.92
19.72
21.02
21.07
20.16
18.60
16.74
14.91
13.42
12.55
12.49
13.29
14.88
17.00
19.31
21.40
22.97
23.84
24.00
23.54
22.58
21.21
19.50
17.54
15.46
13.38
11.41
9.61
7.95
6.38
4.81
3.14
1.21
-1.08
-3.79
-6.85
-10.07
-13.18
-15.99
-18.43
-20.61
-22.77
-25.14
-27.95
-31.33
-35.32
-39.78
-44.29
-48.11
-50.19
-49.48
-45.29
-37.62
-27.22
-15.50
-3.99
6.03
13.88
19.47
23.13
25.30
26.34
26.45
25.84
24.76
23.61
22.81
22.63
23.08
23.98
24.97
25.82
26.43
26.95
27.55
28.38
29.43
30.51
31.37
31.67
31.18
29.79
27.54
24.67
21.53
18.52
15.95
13.98
12.51
11.32
10.15
8.81
7.25
5.50
3.62
1.67
-0.31
-2.26
-4.12
-5.84
-7.45
-9.09
-10.98
-13.31
-16.13
-19.26
-22.38
-25.14
-27.38
-29.25
-31.15
-33.66
-37.24
-41.98
-47.42
-52.58
-56.12
-56.75
-53.69
-46.91
-37.18
-25.85
-14.36
-3.90
4.85
11.69
16.76
20.25
22.38
23.34
23.37
22.76
21.89
21.13
20.76
20.89
21.46
22.28
23.12
23.85
24.49
25.14
25.93
26.84
27.67
28.17
28.14
27.55
26.55
25.36
24.09
22.71
21.09
19.12
16.88
14.56
12.38
10.40
8.53
6.54
4.27
1.77
-0.72
-2.91
-4.64
-6.02
-7.37
-9.09
-11.44
-14.41
-17.69
-20.87
-23.56
-25.64
-27.20
-28.62
-30.33
-32.71
-35.99
-40.14
-44.83
-49.47
-53.21
-55.11
-54.32
-50.34
-43.24
-33.68
-22.77
-11.81
-1.89
6.26
12.43
16.71
19.41
20.81
21.15
20.66
19.60
18.30
17.13
16.38
16.15
16.39
16.94
17.71
18.65
19.86
21.39
23.17
24.96
26.36
26.98
26.63
25.38
23.47
21.24
19.00
16.89
14.97
13.21
11.55
9.89
8.14
6.20
4.07
1.83
-0.34
-2.28
-3.94
-5.46
-7.12
-9.20
-11.82
-14.92
-18.19
-21.30
-23.96
-26.14
-28.00
-29.89
-32.18
-35.19
-38.99
-43.36
-47.74
-51.30
-53.05
-52.17
-48.21
-41.30
-32.14
-21.80
-11.45
-2.01
5.98
12.36
17.25
20.84
23.31
24.77
25.34
25.11
24.25
23.01
21.70
20.68
20.23
20.48
21.34
22.57
23.87
25.00
25.90
26.58
27.08
27.30
27.05
26.14
24.48
22.21
19.67
17.24
15.23
13.75
12.64
11.63
10.39
8.69
6.44
3.80
1.03
-1.57
-3.79
-5.61
-7.19
-8.82
-10.72
-13.03
-15.68
-18.48
-21.24
-23.79
-26.08
-28.20
-30.35
-32.84
-35.95
-39.84
-44.32
-48.75
-52.10
-53.21
-51.16
-45.62
-36.99
-26.28
-14.81
-3.86
5.61
13.03
18.25
21.40
22.88
23.13
22.66
21.85
20.98
20.22
19.70
19.53
19.83
20.62
21.85
23.33
24.83
26.12
27.10
27.73
28.04
27.99
27.50
26.48
24.89
22.82
20.45
18.06
15.84
13.89
12.16
10.54
8.87
7.04
5.01
2.75
0.28
-2.36
-5.13
-7.98
-10.86
-13.73
-16.55
-19.24
-21.78
-24.17
-26.56
-29.18
-32.26
-35.84
-39.53
-42.57
-43.93
-42.68
-38.39
-31.29
-22.26
-12.55
-3.31
4.65
10.97
15.71
19.08
21.30
22.49
22.71
22.09
20.84
19.35
18.01
17.16
16.96
17.35
18.13
19.03
19.84
20.47
20.93
21.26
21.48
21.54
21.29
20.59
19.31
17.42
15.07
12.49
9.99
7.77
5.91
4.33
2.81
1.17
-0.74
-2.95
-5.39
-7.95
-10.49
-12.90
-15.14
-17.20
-19.15
-21.13
-23.37
-26.12
-29.56
-33.54
-37.57
-40.76
-42.04
-40.55
-35.92
-28.46
-19.13
-9.18
0.19
8.15
14.32
18.70
21.53
23.09
23.63
23.36
22.46
21.13
19.60
18.13
16.96
16.23
16.00
16.20
16.73
17.50
18.43
19.45
20.41
21.08
21.22
20.66
19.37
17.51
15.29
12.93
10.53
8.08
5.53
2.77
-0.24
-3.48
-6.88
-10.24
-13.39
-16.13
-18.42
-20.42
-22.48
-25.04
-28.34
-32.30
-36.34
-39.54
-40.88
-39.64
-35.62
-29.27
-21.45
-13.18
-5.32
1.60
7.30
11.74
14.90
16.79
17.45
16.99
15.61
13.64
11.51
9.69
8.58
8.41
9.14
10.46
11.90
13.04
13.62
13.67
13.38
12.95
12.41
11.64
10.35
8.36
5.71
2.63
-0.49
-3.34
-5.75
-7.76
-9.57
-11.43
-13.57
-16.14
-19.21
-22.78
-26.70
-30.57
-33.75
-35.42
-34.78
-31.42
-25.44
-17.57
-8.87
-0.41
6.99
12.97
17.44
20.47
22.15
22.49
21.59
19.69
17.19
14.58
12.33
10.75
9.93
9.80
10.15
10.74
11.35
11.78
11.91
11.71
11.21
10.46
9.44
8.08
6.27
3.95
1.16
-1.90
-4.96
-7.77
-10.21
-12.34
-14.42
-16.68
-19.33
-22.47
-26.03
-29.84
-33.57
-36.69
-38.54
-38.42
-35.84
-30.73
-23.54
-15.11
-6.45
1.59
8.50
14.08
18.35
21.34
23.06
23.56
22.97
21.64
20.04
18.63
17.75
17.49
17.70
18.14
18.56
18.87
19.09
19.30
19.49
19.55
19.23
18.32
16.70
14.49
11.96
9.46
7.22
5.28
3.50
1.60
-0.62
-3.27
-6.34
-9.68
-13.12
-16.45
-19.51
-22.21
-24.57
-26.79
-29.18
-32.07
-35.51
-39.14
-42.14
-43.43
-42.03
-37.48
-30.01
-20.57
-10.46
-0.95
7.07
13.31
17.92
21.24
23.59
25.08
25.67
25.36
24.33
22.99
21.87
21.40
21.73
22.69
23.91
25.01
25.79
26.29
26.67
27.08
27.54
27.89
27.90
27.33
26.07
24.18
21.86
19.36
16.95
14.82
13.03
11.53
10.12
8.57
6.73
4.61
2.40
0.34
-1.39
-2.81
-4.18
-5.80
-7.93
-10.57
-13.48
-16.26
-18.62
-20.44
-21.87
-23.23
-24.88
-27.10
-30.05
-33.68
-37.72
-41.66
-44.73
-46.05
-44.82
-40.62
-33.60
-24.49
-14.36
-4.39
4.47
11.62
16.86
20.25
22.11
22.80
22.74
22.28
21.63
20.92
20.17
19.47
18.95
18.81
19.17
20.00
21.08
22.12
22.88
23.28
23.43
23.44
23.33
22.98
22.21
20.88
19.09
17.10
15.23
13.69
12.46
11.36
10.14
8.67
6.95
5.11
3.28
1.54
-0.08
-1.61
-3.04
-4.35
-5.56
-6.78
-8.14
-9.76
-11.70
-13.89
-16.17
-18.34
-20.25
-21.84
-23.14
-24.31
-25.61
-27.40
-29.99
-33.51
-37.66
-41.68
-44.46
-44.84
-42.09
-36.19
-27.92
-18.55
-9.40
-1.41
4.99
9.84
13.35
15.70
16.99
17.29
16.75
15.62
14.22
12.89
11.83
11.17
10.93
11.07
11.49
12.08
12.77
13.53
14.35
15.14
15.75
15.94
15.46
14.22
12.32
10.08
7.82
5.81
4.09
2.55
1.03
-0.63
-2.45
-4.40
-6.40
-8.43
-10.53
-12.83
-15.40
-18.27
-21.32
-24.34
-27.13
-29.60
-31.87
-34.09
-36.33
-38.32
-39.44
-38.89
-35.95
-30.31
-22.14
-12.10
-1.12
9.74
19.43
27.01
31.69
33.04
31.06
26.38
20.10
13.64
8.36
5.26
4.80
6.90
11.06
16.57
22.71
28.88
34.66
39.76
43.99
47.21
49.29
50.20
50.00
48.95
47.33
45.46
43.48
41.26
38.47
34.58
29.14
21.93
13.14
3.42
-6.30
-14.90
-21.32
-24.80
-25.14
-22.84
-19.08
-15.41
-13.19
-13.03
-14.50
-16.31
-16.91
-15.20
-10.93
-4.78
1.83
7.01
8.68
5.23
-3.73
-16.64
-30.14
-40.19
-43.92
-41.13
-34.50
-28.24
-25.77
-27.95
-32.70
-36.37
-35.70
-29.22
-17.49
-2.20
14.74
31.71
47.12
59.19
66.17
66.85
61.40
51.56
40.10
29.74
22.08
17.22
13.95
10.70
6.25
-0.05
-8.77
-20.80
-37.63
-60.72
-90.50
-125.26
-160.72
-190.81
-209.43
-212.52
-199.43
-173.18
-139.37
-104.64
-74.86
-53.66
-41.51
-35.60
-30.66
-20.75
-1.55
27.58
63.05
98.16
125.69
140.77
142.66
134.71
122.32
110.31
101.06
94.02
86.59
75.70
59.20
36.62
9.20
-20.51
-49.18
-73.46
-90.53
-98.63
-97.50
-88.31
-73.45
-55.78
-37.90
-21.61
-7.68
3.84
13.14
20.20
24.65
25.94
23.60
17.55
8.21
-3.61
-16.70
-29.53
-40.29
-46.98
-47.85
-41.80
-28.84
-10.24
11.70
34.15
54.41
70.37
80.91
86.01
86.58
84.06
79.91
75.09
69.92
64.19
57.58
50.06
42.07
34.37
27.75
22.67
19.20
17.05
15.75
14.75
13.53
11.58
8.56
4.48
-0.31
-5.15
-9.36
-12.52
-14.68
-16.27
-17.83
-19.80
-22.32
-25.29
-28.48
-31.57
-34.15
-35.70
-35.59
-33.26
-28.43
-21.30
-12.56
-3.21
5.76
13.56
19.86
24.59
27.81
29.49
29.48
27.65
24.13
19.50
14.65
10.53
7.78
6.51
6.34
6.69
7.11
7.38
7.52
7.52
7.21
6.23
4.24
1.11
-2.93
-7.36
-11.53
-14.80
-16.83
-17.57
-17.38
-16.95
-17.14
-18.71
-22.01
-26.77
-32.07
-36.65
-39.24
-39.02
-35.81
-30.07
-22.68
-14.65
-6.87
0.07
5.81
10.26
13.39
15.23
15.81
15.19
13.59
11.43
9.34
7.98
7.78
8.77
10.51
12.34
13.67
14.22
14.11
13.67
13.23
12.96
12.77
12.48
11.91
10.98
9.74
8.24
6.49
4.45
2.02
-0.84
-4.15
-7.88
-12.06
-16.77
-22.11
-28.02
-34.09
-39.56
-43.44
-44.80
-43.16
-38.65
-31.98
-24.11
-15.96
-8.15
-0.96
5.49
11.09
15.67
19.03
21.07
21.95
21.99
21.62
21.11
20.57
19.90
19.04
18.06
17.24
16.92
17.36
18.55
20.18
21.71
22.58
22.40
21.13
19.08
16.76
14.69
13.16
12.15
11.30
10.14
8.27
5.52
1.98
-2.10
-6.43
-10.78
-14.99
-18.92
-22.52
-25.79
-28.87
-32.01
-35.40
-39.09
-42.76
-45.73
-47.14
-46.17
-42.34
-35.73
-26.93
-16.94
-6.94
2.05
9.27
14.42
17.60
19.18
19.67
19.55
19.10
18.51
17.90
17.42
17.31
17.76
18.76
20.14
21.57
22.82
23.83
24.73
25.67
26.65
27.50
27.99
27.98
27.55
26.93
26.33
25.83
25.28
24.49
23.30
21.70
19.85
17.94
16.17
14.70
13.58
12.77
12.11
11.43
10.58
9.53
8.34
7.06
5.61
3.78
1.33
-1.85
-5.61
-9.65
-13.63
-17.41
-20.95
-24.19
-26.91
-28.85
-30.22
-32.19
-37.04
-47.65
-66.43
-94.43
-130.77
-172.86
-217.01
-259.08
-295.01
-321.26
-335.21
-335.83
-324.23
-303.74
-279.17
-255.36
-235.74
-221.40
-211.13
-202.26
-191.91
-177.79
-158.70
-134.45
-105.44
-72.35
-35.72
4.36
48.38
97.03
150.45
207.12
263.21
312.93
350.06
370.03
371.67
357.64
333.23
304.32
275.50
248.97
224.96
202.71
181.50
161.11
141.69
123.37
106.06
89.61
74.00
59.58
46.90
36.59
28.94
23.69
20.03
16.75
12.66
7.00
-0.24
-8.26
-15.81
-21.67
-25.26
-27.02
-28.32
-31.05
-37.00
-47.03
-60.52
-75.17
-87.34
-92.97
-88.82
-73.68
-48.84
-17.76
15.06
45.34
69.92
87.04
96.13
97.35
91.37
79.35
63.03
44.74
27.05
12.28
1.94
-3.55
-4.89
-3.70
-2.14
-2.32
-5.86
-13.37
-24.33
-37.06
-49.10
-57.68
-60.39
-55.86
-44.33
-27.79
-9.42
7.33
19.93
27.55
31.04
32.24
32.92
34.01
35.45
36.63
37.05
36.71
36.04
35.49
35.17
34.66
33.31
30.63
26.66
22.03
17.69
14.50
12.88
12.66
13.23
13.85
13.94
13.32
12.20
11.04
10.21
9.85
9.76
9.50
8.59
6.79
4.17
1.13
-1.88
-4.47
-6.56
-8.30
-10.01
-12.03
-14.55
-17.64
-21.22
-25.18
-29.28
-33.23
-36.54
-38.63
-39.01
-37.42
-34.02
-29.39
-24.33
-19.57
-15.60
-12.58
-10.41
-8.98
-8.28
-8.43
-9.53
-11.47
-13.89
-16.20
-17.77
-18.09
-16.93
-14.38
-10.78
-6.65
-2.46
1.41
4.78
7.65
10.09
12.15
13.76
14.75
14.90
14.08
12.35
9.93
7.18
4.40
1.76
-0.76
-3.32
-6.15
-9.41
-13.20
-17.51
-22.24
-27.17
-31.84
-35.61
-37.67
-37.32
-34.19
-28.41
-20.66
-11.90
-3.19
4.61
10.97
15.66
18.62
19.98
19.96
18.91
17.33
15.80
14.84
14.84
15.89
17.81
20.22
22.72
25.02
27.03
28.84
30.55
32.15
33.40
33.89
33.20
31.10
27.67
23.30
18.50
13.70
9.13
4.75
0.43
-3.92
-8.24
-12.32
-15.92
-18.96
-21.51
-23.75
-25.87
-27.95
-29.97
-31.91
-33.78
-35.58
-37.17
-38.19
-38.09
-36.38
-32.77
-27.36
-20.63
-13.15
-5.51
1.89
8.77
14.89
20.00
23.85
26.25
27.12
26.55
24.78
22.21
19.36
16.77
14.90
14.04
14.19
15.13
16.51
17.98
19.28
20.23
20.67
20.46
19.54
17.94
15.85
13.62
11.59
9.98
8.79
7.81
6.78
5.43
3.68
1.51
-1.01
-3.77
-6.66
-9.57
-12.33
-14.81
-16.98
-18.90
-20.77
-22.81
-25.19
-27.97
-31.13
-34.60
-38.18
-41.61
-44.37
-45.78
-45.16
-42.07
-36.53
-29.13
-20.87
-12.82
-5.82
-0.26
3.93
7.04
9.40
11.23
12.55
13.32
13.58
13.47
13.30
13.42
14.14
15.59
17.67
20.04
22.28
24.02
25.09
25.53
25.54
25.29
24.89
24.27
23.35
22.08
20.57
19.00
17.53
16.11
14.56
12.60
10.11
7.16
4.05
1.09
-1.49
-3.74
-5.88
-8.19
-10.83
-13.81
-16.97
-20.09
-22.98
-25.49
-27.58
-29.30
-30.82
-32.40
-34.31
-36.68
-39.36
-41.81
-43.21
-42.68
-39.58
-33.76
-25.68
-16.27
-6.62
2.34
10.01
16.18
20.87
24.14
26.08
26.76
26.45
25.53
24.57
24.06
24.31
25.32
26.85
28.52
30.01
31.14
31.85
32.15
32.05
31.55
30.62
29.27
27.56
25.59
23.48
21.26
18.92
16.38
13.57
10.47
7.17
3.88
0.82
-1.84
-4.08
-6.02
-7.88
-9.89
-12.12
-14.56
-17.06
-19.48
-21.75
-23.89
-26.04
-28.33
-30.89
-33.81
-37.16
-40.95
-45.05
-49.05
-52.30
-53.97
-53.38
-50.24
-44.75
-37.66
-29.91
-22.43
-15.84
-10.39
-6.05
-2.64
0.04
2.16
3.89
5.48
7.25
9.52
12.53
16.31
20.64
25.10
29.20
32.54
34.91
36.32
36.92
36.91
36.40
35.42
33.95
31.97
29.53
26.80
23.94
21.13
18.47
16.02
13.78
11.72
9.80
7.92
5.93
3.69
1.09
-1.90
-5.21
-8.71
-12.24
-15.68
-18.99
-22.18
-25.39
-28.76
-32.38
-36.17
-39.74
-42.49
-43.73
-42.93
-39.94
-35.08
-29.02
-22.60
-16.58
-11.51
-7.68
-5.16
-3.89
-3.63
-4.07
-4.80
-5.45
-5.69
-5.36
-4.33
-2.61
-0.23
2.63
5.66
8.44
10.59
11.91
12.52
12.80
13.21
14.12
15.63
17.56
19.60
21.40
22.77
23.65
24.13
24.35
24.33
23.98
23.13
21.58
19.34
16.61
13.80
11.30
9.32
7.75
6.22
4.33
1.81
-1.31
-4.82
-8.50
-12.28
-16.23
-20.37
-24.45
-27.81
-29.59
-29.02
-25.80
-20.27
-13.27
-5.85
1.11
7.11
11.99
15.77
18.51
20.19
20.74
20.20
18.72
16.67
14.53
12.75
11.66
11.41
11.90
12.93
14.26
15.71
17.21
18.70
20.03
21.01
21.37
20.98
19.86
18.28
16.54
14.89
13.35
11.76
9.87
7.56
4.93
2.24
-0.20
-2.25
-3.98
-5.69
-7.69
-10.13
-12.92
-15.80
-18.46
-20.75
-22.76
-24.69
-26.83
-29.35
-32.31
-35.65
-39.21
-42.63
-45.38
-46.75
-46.03
-42.73
-36.82
-28.81
-19.66
-10.46
-2.12
4.80
10.13
13.98
16.60
18.22
19.08
19.38
19.38
19.32
19.45
19.92
20.75
21.87
23.09
24.24
25.18
25.84
26.27
26.52
26.65
26.66
26.46
25.93
25.00
23.66
22.06
20.37
18.80
17.42
16.15
14.85
13.42
11.88
10.38
9.09
8.08
7.25
6.42
5.36
3.98
2.31
0.59
-0.89
-1.87
-2.22
-1.97
-1.26
-0.46
-0.02
-0.28
-1.22
-2.25
-2.35
-0.31
4.88
13.64
25.33
38.49
51.47
63.15
73.29
82.29
90.83
99.46
108.29
116.45
122.55
125.39
124.62
120.78
114.46
105.87
94.70
80.42
62.12
39.32
12.76
-15.27
-41.63
-63.80
-80.39
-90.78
-94.83
-93.86
-90.53
-88.50
-91.56
-102.54
-123.33
-153.87
-191.91
-227.27
-248.21
-247.37
-226.92
-195.90
-163.02
-133.21
-107.84
-86.63
-69.43
-57.47
-51.88
-52.01
-55.95
-57.59
-51.63
-35.78
-11.54
16.14
39.73
51.91
48.21
28.56
-2.92
-40.48
-78.48
-110.68
-131.26
-136.37
-124.67
-97.64
-59.25
-15.18
27.91
64.30
90.95
107.89
117.20
121.85
124.25
125.70
126.62
126.77
126.00
124.42
122.11
118.75
113.78
106.79
97.98
88.47
79.67
72.65
67.58
63.57
59.22
53.43
45.94
37.38
28.65
20.41
12.86
5.92
-0.50
-6.31
-11.42
-16.04
-20.74
-26.26
-33.00
-40.66
-48.40
-55.27
-60.74
-64.94
-68.37
-71.39
-73.83
-75.07
-74.44
-71.65
-66.98
-61.14
-54.84
-48.51
-42.12
-35.36
-27.84
-19.33
-9.83
0.33
10.46
19.58
26.40
29.61
28.36
22.73
13.98
4.39
-3.31
-6.83
-5.22
0.71
8.55
15.20
18.09
16.31
11.08
5.24
1.96
3.27
9.10
17.35
25.01
29.53
29.94
27.03
22.53
18.12
14.51
11.35
7.87
3.37
-2.44
-9.71
-18.75
-29.91
-42.80
-55.32
-63.44
-62.29
-48.54
-22.77
9.50
39.24
57.44
58.92
44.47
20.18
-5.54
-25.53
-36.14
-37.31
-31.02
-19.61
-4.90
11.46
27.30
39.90
46.85
47.40
43.16
37.40
33.35
32.19
32.04
28.53
16.79
-6.00
-38.80
-76.55
-111.55
-136.00
-144.40
-135.11
-110.55
-76.17
-38.65
-4.09
23.22
41.38
50.70
53.09
51.26
48.03
45.61
45.15
46.64
49.08
50.98
51.03
48.56
43.74
37.40
30.53
23.79
17.33
10.97
4.54
-1.83
-7.77
-12.99
-17.58
-22.09
-27.35
-33.97
-42.08
-51.15
-60.25
-68.31
-74.52
-78.46
-80.11
-79.59
-76.92
-71.83
-63.81
-52.49
-38.08
-21.66
-5.02
9.95
22.13
31.59
39.62
47.91
57.63
68.74
79.97
89.48
95.79
98.46
98.13
96.03
93.29
90.41
87.28
83.49
78.77
73.18
67.05
60.74
54.43
48.12
41.81
35.66
29.99
25.10
20.99
17.33
13.54
9.22
4.35
-0.57
-4.82
-7.81
-9.38
-9.81
-9.58
-9.03
-8.24
-7.04
-5.28
-3.11
-0.93
0.60
0.93
-0.25
-2.92
-6.72
-11.01
-15.01
-17.88
-18.88
-17.53
-13.84
-8.32
-1.92
4.27
9.30
12.67
14.41
14.92
14.74
14.31
13.83
13.20
12.26
10.93
9.31
7.77
6.76
6.65
7.60
9.51
12.09
15.02
18.00
20.77
23.06
24.59
25.01
24.02
21.49
17.52
12.53
7.12
1.89
-2.71
-6.45
-9.35
-11.61
-13.45
-15.11
-16.80
-18.61
-20.54
-22.42
-23.99
-25.02
-25.49
-25.77
-26.59
-28.76
-32.87
-38.91
-46.13
-53.29
-59.03
-62.22
-62.27
-59.05
-52.83
-44.05
-33.31
-21.33
-8.99
2.76
13.08
21.36
27.37
31.20
33.09
33.35
32.24
30.04
27.10
23.86
20.84
18.44
16.88
16.16
16.06
16.28
16.54
16.62
16.34
15.55
14.11
11.94
9.06
5.71
2.21
-1.00
-3.62
-5.47
-6.63
-7.38
-8.10
-9.17
-10.87
-13.30
-16.42
-20.04
-23.89
-27.67
-31.10
-33.96
-36.18
-37.87
-39.40
-41.25
-43.84
-47.22
-50.90
-53.94
-55.26
-53.99
-49.89
-43.38
-35.34
-26.81
-18.61
-11.26
-5.00
0.06
3.84
6.31
7.55
7.80
7.45
6.94
6.64
6.72
7.23
8.08
9.20
10.54
12.12
13.93
15.84
17.64
19.04
19.81
19.76
18.90
17.33
15.22
12.85
10.45
8.26
6.42
4.94
3.72
2.60
1.39
-0.06
-1.81
-3.88
-6.26
-8.87
-11.56
-14.17
-16.49
-18.46
-20.16
-21.88
-23.97
-26.75
-30.24
-34.12
-37.66
-39.99
-40.36
-38.39
-34.20
-28.32
-21.46
-14.27
-7.20
-0.53
5.49
10.53
14.20
16.27
16.71
15.93
14.56
13.35
12.80
13.14
14.25
15.86
17.66
19.40
20.94
22.19
23.08
23.55
23.52
23.03
22.18
21.13
20.06
19.08
18.19
17.29
16.24
14.93
13.32
11.49
9.61
7.85
6.32
4.98
3.65
2.06
-0.02
-2.70
-5.86
-9.28
-12.65
-15.75
-18.48
-20.84
-22.99
-25.13
-27.51
-30.29
-33.53
-37.00
-40.19
-42.30
-42.49
-40.17
-35.20
-28.01
-19.50
-10.71
-2.57
4.34
9.80
13.86
16.63
18.25
18.76
18.29
17.11
15.68
14.55
14.15
14.68
15.99
17.69
19.33
20.60
21.44
21.98
22.36
22.61
22.63
22.20
21.22
19.77
18.16
16.72
15.66
14.91
14.16
13.03
11.26
8.86
6.07
3.28
0.79
-1.24
-2.85
-4.27
-5.74
-7.52
-9.68
-12.13
-14.67
-17.04
-19.14
-21.01
-22.93
-25.22
-28.16
-31.76
-35.76
-39.57
-42.38
-43.35
-41.84
-37.65
-31.03
-22.73
-13.77
-5.12
2.44
8.52
13.04
16.14
17.99
18.79
18.70
17.92
16.67
15.29
14.14
13.56
13.77
14.76
16.33
18.15
19.85
21.18
22.03
22.42
22.39
22.02
21.34
20.45
19.45
18.48
17.59
16.77
15.89
14.81
13.44
11.76
9.82
7.63
5.16
2.37
-0.76
-4.16
-7.61
-10.84
-13.63
-15.90
-17.72
-19.33
-21.02
-23.07
-25.62
-28.74
-32.35
-36.20
-39.86
-42.62
-43.69
-42.33
-38.20
-31.53
-23.18
-14.37
-6.30
0.27
5.14
8.64
11.28
13.52
15.49
17.08
18.08
18.38
18.07
17.40
16.68
16.19
16.07
16.40
17.21
18.53
20.33
22.50
24.73
26.65
27.80
27.90
26.87
24.92
22.40
19.71
17.19
14.95
12.96
11.03
8.96
6.65
4.15
1.67
-0.55
-2.31
-3.54
-4.27
-4.65
-4.90
-5.26
-5.99
-7.28
-9.13
-11.39
-13.77
-16.02
-18.04
-20.02
-22.33
-25.35
-29.20
-33.60
-37.86
-41.08
-42.34
-40.98
-36.72
-29.75
-20.69
-10.45
-0.09
9.40
17.28
23.17
27.04
29.13
29.80
29.35
28.04
26.06
23.67
21.20
19.04
17.53
16.78
16.74
17.15
17.78
18.48
19.23
20.03
20.81
21.40
21.57
21.15
20.20
18.90
17.52
16.25
15.13
14.04
12.86
11.46
9.78
7.83
5.63
3.30
0.98
-1.16
-2.94
-4.33
-5.43
-6.50
-7.84
-9.64
-11.91
-14.51
-17.15
-19.67
-22.02
-24.34
-26.90
-29.93
-33.57
-37.73
-42.07
-46.00
-48.74
-49.48
-47.60
-42.85
-35.52
-26.42
-16.67
-7.36
0.71
7.18
12.06
15.58
17.97
19.36
19.83
19.46
18.41
16.99
15.55
14.50
14.10
14.47
15.53
17.08
18.89
20.78
22.62
24.28
25.62
26.42
26.52
25.85
24.55
22.96
21.44
20.25
19.41
18.71
17.81
16.48
14.63
12.41
10.12
8.04
6.33
4.93
3.64
2.22
0.53
-1.44
-3.61
-5.93
-8.44
-11.26
-14.50
-18.06
-21.66
-24.87
-27.34
-29.00
-30.09
-31.10
-32.56
-34.88
-38.18
-42.31
-46.77
-50.79
-53.38
-53.58
-50.71
-44.68
-36.08
-26.00
-15.71
-6.27
1.72
8.09
12.94
16.44
18.69
19.79
19.86
19.16
18.04
16.86
15.95
15.56
15.81
16.71
18.17
19.99
21.94
23.82
25.49
26.83
27.74
28.10
27.80
26.79
25.20
23.27
21.32
19.63
18.31
17.26
16.21
14.90
13.16
11.01
8.61
6.21
4.05
2.27
0.84
-0.40
-1.73
-3.43
-5.70
-8.62
-12.12
-15.93
-19.66
-22.92
-25.43
-27.17
-28.38
-29.54
-31.20
-33.75
-37.31
-41.66
-46.19
-50.09
-52.46
-52.54
-49.88
-44.43
-36.61
-27.20
-17.20
-7.58
0.88
7.72
12.82
16.33
18.50
19.65
19.96
19.58
18.63
17.31
15.97
15.04
14.91
15.76
17.42
19.56
21.71
23.57
25.02
26.14
27.01
27.57
27.63
26.97
25.53
23.49
21.29
19.36
17.98
17.12
16.45
15.55
14.09
11.97
9.34
6.51
3.82
1.48
-0.46
-2.16
-3.89
-5.87
-8.20
-10.76
-13.32
-15.66
-17.68
-19.53
-21.44
-23.68
-26.39
-29.63
-33.31
-37.30
-41.28
-44.73
-46.91
-47.00
-44.37
-38.91
-31.09
-21.87
-12.36
-3.53
4.05
10.13
14.73
17.92
19.82
20.55
20.30
19.32
17.90
16.30
14.76
13.49
12.73
12.70
13.57
15.30
17.65
20.19
22.48
24.19
25.21
25.57
25.42
24.79
23.65
21.89
19.49
16.59
13.48
10.50
7.87
5.68
3.79
2.03
0.24
-1.65
-3.66
-5.78
-8.04
-10.46
-13.03
-15.67
-18.26
-20.69
-22.95
-25.20
-27.75
-30.88
-34.69
-38.92
-42.91
-45.74
-46.46
-44.45
-39.59
-32.35
-23.58
-14.32
-5.46
2.32
8.60
13.21
16.12
17.49
17.58
16.76
15.40
13.83
12.34
11.14
10.44
10.39
11.03
12.28
13.94
15.72
17.36
18.69
19.60
20.03
19.93
19.27
17.99
16.17
13.93
11.47
8.98
6.56
4.21
1.87
-0.55
-3.08
-5.62
-8.09
-10.40
-12.59
-14.81
-17.30
-20.29
-23.90
-28.08
-32.48
-36.55
-39.55
-40.72
-39.47
-35.60
-29.34
-21.37
-12.57
-3.88
3.97
10.47
15.42
18.81
20.77
21.50
21.23
20.14
18.40
16.21
13.88
11.80
10.39
9.96
10.54
11.86
13.46
14.78
15.46
15.30
14.38
12.88
10.98
8.81
6.42
3.83
0.98
-2.17
-5.63
-9.43
-13.49
-17.71
-21.93
-26.03
-29.97
-33.91
-38.15
-43.05
-48.89
-55.76
-63.41
-71.25
-78.43
-84.10
-87.59
-88.63
-87.19
-83.34
-76.99
-67.92
-56.09
-42.03
-27.06
-13.08
-1.88
5.44
8.80
8.77
6.01
0.91
-6.03
-13.68
-20.05
-22.85
-20.71
-14.02
-4.84
4.30
12.09
19.22
27.79
39.59
54.45
69.75
81.69
87.40
86.64
82.00
77.50
76.52
80.28
87.69
96.22
103.44
108.08
110.20
110.65
110.26
109.22
107.17
103.60
98.36
91.90
85.04
78.56
72.78
67.41
61.77
55.22
47.57
39.25
31.26
24.77
20.65
19.13
19.73
21.41
23.01
23.68
23.05
21.27
18.75
15.91
12.99
9.99
6.77
3.22
-0.64
-4.62
-8.44
-11.81
-14.54
-16.50
-17.66
-18.08
-17.87
-17.20
-16.42
-15.91
-16.03
-16.98
-18.74
-21.02
-23.44
-25.57
-27.09
-27.84
-27.81
-27.17
-26.17
-25.11
-24.22
-23.59
-23.14
-22.68
-22.05
-21.24
-20.47
-20.06
-20.29
-21.20
-22.62
-24.12
-25.21
-25.48
-24.67
-22.70
-19.70
-15.92
-11.73
-7.57
-3.80
-0.70
1.63
3.22
4.18
4.60
4.52
3.97
3.02
1.82
0.61
-0.42
-1.15
-1.56
-1.74
-1.78
-1.78
-1.76
-1.80
-2.00
-2.45
-3.20
-4.17
-5.20
-6.12
-6.86
-7.52
-8.35
-9.54
-11.14
-13.00
-14.85
-16.46
-17.74
-18.75
-19.66
-20.62
-21.72
-22.99
-24.46
-26.07
-27.70
-29.06
-29.69
-29.12
-27.08
-23.66
-19.31
-14.68
-10.36
-6.70
-3.79
-1.51
0.29
1.73
2.85
3.64
4.13
4.35
4.37
4.22
3.95
3.62
3.30
3.08
3.02
3.09
3.22
3.31
3.26
3.06
2.65
2.01
1.07
-0.21
-1.80
-3.59
-5.39
-7.03
-8.40
-9.48
-10.39
-11.28
-12.34
-13.72
-15.57
-17.93
-20.69
-23.44
-25.53
-26.22
-24.95
-21.62
-16.69
-10.96
-5.31
-0.37
3.67
6.89
9.46
11.43
12.71
13.16
12.84
12.02
11.09
10.46
10.31
10.58
11.04
11.45
11.66
11.69
11.63
11.60
11.62
11.66
11.62
11.39
10.96
10.32
9.49
8.47
7.21
5.64
3.75
1.54
-0.85
-3.30
-5.70
-8.00
-10.26
-12.54
-14.89
-17.30
-19.65
-21.76
-23.53
-24.93
-26.08
-27.26
-28.79
-30.88
-33.52
-36.31
-38.54
-39.35
-38.06
-34.43
-28.78
-21.85
-14.56
-7.65
-1.57
3.52
7.61
10.70
12.75
13.73
13.77
13.19
12.41
11.88
11.87
12.46
13.54
14.89
16.29
17.58
18.73
19.82
20.93
22.15
23.41
24.55
25.34
25.65
25.49
25.05
24.58
24.26
24.11
24.00
23.71
23.13
22.35
21.61
21.22
21.37
22.07
23.16
24.38
25.49
26.27
26.53
26.10
24.86
22.81
20.11
17.13
14.31
12.06
10.51
9.50
8.61
7.36
5.42
2.74
-0.46
-3.86
-7.13
-10.08
-12.60
-14.64
-16.12
-16.93
-16.97
-16.30
-15.18
-14.01
-13.23
-13.13
-13.74
-14.83
-16.02
-16.92
-17.31
-17.15
-16.56
-15.72
-14.82
-13.96
-13.24
-12.70
-12.40
-12.33
-12.40
-12.44
-12.23
-11.65
-10.65
-9.36
-7.98
-6.73
-5.76
-5.09
-4.65
-4.28
-3.90
-3.46
-3.01
-2.65
-2.46
-2.45
-2.54
-2.61
-2.52
-2.24
-1.82
-1.37
-0.98
-0.71
-0.53
-0.39
-0.24
-0.07
0.06
0.04
-0.21
-0.69
-1.32
-1.92
-2.29
-2.37
-2.26
-2.26
-2.65
-3.56
-4.89
-6.25
-7.25
-7.64
-7.53
-7.29
-7.38
-8.07
-9.31
-10.74
-11.90
-12.46
-12.32
-11.68
-10.90
-10.37
-10.40
-11.14
-12.58
-14.48
-16.39
-17.65
-17.61
-15.85
-12.43
-7.95
-3.46
-0.08
1.39
0.74
-1.62
-4.80
-7.81
-9.78
-10.21
-9.03
-6.57
-3.42
-0.35
1.93
2.98
2.72
1.43
-0.39
-2.22
-3.68
-4.52
-4.60
-3.84
-2.17
0.30
3.30
6.31
8.77
10.21
10.49
9.78
8.49
7.12
6.01
5.28
4.82
4.39
3.76
2.78
1.46
-0.10
-1.72
-3.29
-4.70
-5.87
-6.69
-7.01
-6.66
-5.58
-3.83
-1.60
0.81
3.18
5.32
7.20
8.88
10.45
11.98
13.50
14.94
16.23
17.32
18.19
18.90
19.52
20.06
20.44
20.51
20.11
19.21
17.99
16.75
15.79
15.23
14.93
14.58
13.86
12.61
10.92
9.11
7.50
6.30
5.50
4.84
3.99
2.66
0.79
-1.46
-3.80
-5.87
-7.47
-8.53
-9.13
-9.45
-9.63
-9.77
-9.89
-9.96
-9.93
-9.74
-9.41
-9.01
-8.65
-8.38
-8.24
-8.15
-7.98
-7.69
-7.31
-6.95
-6.72
-6.65
-6.67
-6.65
-6.51
-6.29
-6.17
-6.33
-6.90
-7.81
-8.89
-9.90
-10.69
-11.20
-11.51
-11.78
-12.21
-13.02
-14.36
-16.28
-18.71
-21.44
-24.28
-27.02
-29.58
-31.92
-34.05
-35.97
-37.62
-38.99
-40.05
-40.83
-41.34
-41.60
-41.60
-41.35
-40.97
-40.63
-40.42
-40.31
-40.06
-39.35
-37.90
-35.70
-33.04
-30.41
-28.39
-27.38
-27.56
-28.88
-31.05
-33.65
-36.23
-38.38
-39.78
-40.22
-39.56
-37.68
-34.45
-29.70
-23.29
-15.23
-5.77
4.52
14.89
24.48
32.58
38.82
43.22
46.14
48.15
49.85
51.70
53.86
56.15
57.97
58.47
56.72
52.08
44.43
34.36
23.03
11.83
2.01
-5.66
-10.94
-13.99
-15.17
-14.78
-13.10
-10.42
-7.13
-3.75
-0.79
1.39
2.71
3.30
3.40
3.18
2.67
1.82
0.58
-0.98
-2.72
-4.49
-6.33
-8.47
-11.23
-14.86
-19.34
-24.39
-29.60
-34.66
-39.42
-44.00
-48.54
-53.05
-57.32
-60.95
-63.53
-64.83
-64.90
-64.11
-63.00
-62.22
-62.32
-63.68
-66.28
-69.54
-72.36
-73.21
-70.65
-63.70
-52.23
-36.97
-19.25
-0.63
17.60
34.49
49.48
62.28
72.73
80.72
86.31
89.67
91.17
91.32
90.66
89.73
88.89
88.40
88.37
88.77
89.50
90.40
91.35
92.20
92.88
93.32
93.44
93.15
92.42
91.26
89.83
88.41
87.33
86.82
86.92
87.44
88.02
88.21
87.60
85.92
83.12
79.34
74.84
69.94
64.85
59.60
53.97
47.67
40.46
32.35
23.65
14.83
6.34
-1.54
-8.75
-15.44
-21.79
-28.05
-34.46
-41.29
-48.76
-56.84
-65.06
-72.42
-77.58
-79.24
-76.61
-69.75
-59.56
-47.48
-35.04
-23.39
-13.16
-4.47
2.76
8.62
13.12
16.23
18.09
19.06
19.73
20.69
22.28
24.44
26.77
28.78
30.17
30.97
31.48
32.07
32.86
33.71
34.22
34.03
32.93
31.04
28.61
25.95
23.30
20.77
18.39
16.13
13.91
11.61
9.11
6.40
3.53
0.70
-1.90
-4.17
-6.15
-8.07
-10.23
-12.85
-16.09
-19.96
-24.37
-29.14
-34.02
-38.72
-42.99
-46.71
-49.97
-53.03
-56.25
-59.89
-63.89
-67.73
-70.51
-71.14
-68.69
-62.77
-53.66
-42.26
-29.85
-17.69
-6.71
2.61
10.15
16.04
20.42
23.45
25.28
26.17
26.51
26.74
27.21
28.06
29.21
30.41
31.40
32.08
32.52
32.92
33.42
34.00
34.50
34.65
34.27
33.33
31.95
30.33
28.69
27.21
25.92
24.82
23.79
22.70
21.42
19.90
18.15
16.27
14.33
12.41
10.52
8.67
6.88
5.15
3.51
1.92
0.31
-1.35
-3.05
-4.69
-6.20
-7.53
-8.70
-9.83
-11.03
-12.42
-14.08
-16.02
-18.17
-20.36
-22.34
-23.81
-24.46
-24.13
-22.77
-20.54
-17.70
-14.54
-11.36
-8.34
-5.58
-3.13
-1.03
0.71
2.10
3.18
4.03
4.73
5.37
5.96
6.50
6.97
7.41
7.91
8.52
9.26
10.06
10.77
11.28
11.52
11.52
11.33
11.03
10.67
10.30
9.97
9.70
9.46
9.14
8.58
7.59
6.08
4.05
1.65
-0.92
-3.41
-5.64
-7.49
-8.91
-9.97
-10.78
-11.54
-12.37
-13.35
-14.44
-15.52
-16.49
-17.30
-17.95
-18.55
-19.24
-20.16
-21.36
-22.82
-24.38
-25.82
-26.87
-27.27
-26.87
-25.62
-23.63
-21.09
-18.28
-15.43
-12.74
-10.34
-8.27
-6.49
-4.98
-3.69
-2.58
-1.61
-0.74
0.08
0.93
1.86
2.91
4.08
5.28
6.38
7.21
7.65
7.66
7.33
6.84
6.39
6.13
6.07
6.15
6.21
6.09
5.71
5.09
4.34
3.59
2.92
2.34
1.78
1.22
0.64
0.10
-0.36
-0.78
-1.26
-1.88
-2.69
-3.63
-4.52
-5.22
-5.66
-5.92
-6.14
-6.52
-7.14
-8.00
-9.00
-10.01
-10.97
-11.87
-12.79
-13.80
-14.92
-16.05
-17.03
-17.63
-17.61
-16.86
-15.36
-13.24
-10.75
-8.17
-5.76
-3.68
-1.96
-0.53
0.67
1.66
2.38
2.78
2.87
2.81
2.81
3.06
3.62
4.39
5.20
5.85
6.23
6.29
6.06
5.60
5.03
4.45
3.96
3.62
3.43
3.33
3.22
3.00
2.58
1.95
1.14
0.27
-0.55
-1.12
-1.39
-1.40
-1.34
-1.44
-1.84
-2.54
-3.38
-4.13
-4.64
-4.93
-5.12
-5.39
-5.85
-6.45
-7.08
-7.59
-7.95
-8.27
-8.75
-9.54
-10.66
-11.97
-13.20
-14.11
-14.56
-14.58
-14.29
-13.77
-13.03
-11.99
-10.55
-8.72
-6.65
-4.58
-2.75
-1.30
-0.21
0.63
1.34
1.95
2.41
2.66
2.67
2.52
2.38
2.39
2.58
2.83
2.93
2.71
2.13
1.37
0.70
0.34
0.36
0.62
0.89
0.98
0.80
0.42
0.00
-0.30
-0.39
-0.24
0.09
0.48
0.80
0.95
0.87
0.60
0.24
-0.11
-0.36
-0.50
-0.59
-0.75
-1.05
-1.53
-2.20
-3.02
-3.95
-5.01
-6.18
-7.48
-8.88
-10.34
-11.74
-12.98
-13.92
-14.47
-14.58
-14.19
-13.27
-11.84
-9.95
-7.67
-5.16
-2.59
-0.15
1.99
3.69
4.94
5.79
6.35
6.76
7.11
7.44
7.72
7.94
8.09
8.18
8.23
8.21
8.06
7.75
7.28
6.78
6.41
6.33
6.52
6.87
7.14
7.12
6.72
6.02
5.21
4.46
3.84
3.31
2.75
2.11
1.42
0.76
0.24
-0.12
-0.44
-0.90
-1.63
-2.66
-3.85
-4.94
-5.69
-6.01
-5.98
-5.92
-6.17
-7.00
-8.42
-10.17
-11.81
-12.89
-13.17
-12.67
-11.61
-10.29
-8.93
-7.62
-6.34
-5.05
-3.73
-2.45
-1.35
-0.51
0.01
0.27
0.35
0.41
0.57
0.93
1.49
2.23
3.07
3.96
4.84
5.63
6.28
6.68
6.77
6.59
6.30
6.09
6.10
6.36
6.69
6.84
6.60
5.93
4.97
3.97
3.16
2.65
2.38
2.20
1.95
1.52
0.89
0.09
-0.82
-1.81
-2.85
-3.92
-5.03
-6.16
-7.33
-8.52
-9.72
-10.81
-11.62
-11.96
-11.69
-10.79
-9.37
-7.64
-5.88
-4.30
-3.07
-2.28
-1.91
-1.88
-2.03
-2.10
-1.89
-1.31
-0.45
0.44
1.08
1.34
1.29
1.16
1.20
1.53
2.08
2.63
2.99
3.05
2.84
2.49
2.09
1.66
1.16
0.54
-0.17
-0.85
-1.33
-1.48
-1.26
-0.81
-0.34
-0.07
-0.15
-0.57
-1.25
-2.05
-2.88
-3.71
-4.55
-5.45
-6.41
-7.40
-8.39
-9.31
-10.14
-10.87
-11.54
-12.24
-13.07
-14.09
-15.26
-16.45
-17.37
-17.75
-17.35
-16.07
-13.99
-11.33
-8.44
-5.63
-3.15
-1.09
0.59
2.06
3.44
4.76
5.96
6.92
7.56
7.94
8.24
8.65
9.27
10.01
10.68
11.08
11.15
11.01
10.88
10.94
11.19
11.49
11.59
11.34
10.74
9.92
9.07
8.31
7.69
7.18
6.77
6.41
6.06
5.66
5.12
4.38
3.42
2.29
1.05
-0.27
-1.66
-3.08
-4.46
-5.74
-6.83
-7.75
-8.61
-9.54
-10.65
-11.96
-13.40
-14.88
-16.32
-17.64
-18.68
-19.22
-18.97
-17.75
-15.54
-12.55
-9.22
-5.99
-3.16
-0.81
1.19
3.05
4.89
6.71
8.36
9.63
10.41
10.75
10.84
10.96
11.32
11.99
12.87
13.77
14.52
15.04
15.35
15.51
15.58
15.51
15.22
14.63
13.78
12.83
12.00
11.43
11.10
10.85
10.43
9.72
8.72
7.60
6.53
5.61
4.81
3.97
2.99
1.87
0.73
-0.27
-1.07
-1.72
-2.42
-3.37
-4.62
-6.11
-7.62
-8.97
-10.08
-11.05
-12.05
-13.27
-14.78
-16.51
-18.30
-19.91
-21.14
-21.74
-21.54
-20.34
-18.12
-14.97
-11.18
-7.13
-3.24
0.15
2.85
4.81
6.17
7.10
7.84
8.55
9.29
10.06
10.82
11.55
12.24
12.91
13.55
14.12
14.58
14.90
15.08
15.11
15.00
14.73
14.28
13.67
13.00
12.35
11.81
11.41
11.07
10.71
10.26
9.71
9.09
8.39
7.60
6.68
5.65
4.57
3.60
2.81
2.17
1.53
0.72
-0.38
-1.75
-3.20
-4.52
-5.57
-6.41
-7.18
-8.09
-9.26
-10.72
-12.40
-14.21
-16.09
-17.92
-19.57
-20.80
-21.36
-21.04
-19.76
-17.63
-14.91
-11.90
-8.86
-5.94
-3.19
-0.65
1.67
3.71
5.40
6.71
7.67
8.35
8.90
9.42
10.03
10.76
11.59
12.43
13.12
13.55
13.66
13.46
13.05
12.58
12.16
11.88
11.73
11.69
11.68
11.61
11.43
11.11
10.65
10.05
9.34
8.48
7.49
6.42
5.41
4.61
4.12
3.87
3.72
3.45
2.89
2.05
1.00
-0.17
-1.39
-2.69
-4.08
-5.54
-6.92
-8.09
-8.97
-9.65
-10.38
-11.42
-12.88
-14.69
-16.57
-18.14
-19.05
-19.05
-18.10
-16.31
-13.92
-11.26
-8.60
-6.14
-3.95
-2.02
-0.28
1.32
2.77
4.07
5.22
6.23
7.10
7.79
8.22
8.31
8.11
7.80
7.64
7.85
8.50
9.45
10.45
11.24
11.67
11.71
11.41
10.85
10.12
9.28
8.40
7.56
6.85
6.27
5.75
5.20
4.50
3.61
2.59
1.50
0.42
-0.58
-1.44
-2.12
-2.63
-3.02
-3.45
-4.09
-5.09
-6.47
-8.13
-9.85
-11.48
-12.89
-14.01
-14.81
-15.16
-14.93
-14.08
-12.69
-10.98
-9.25
-7.66
-6.22
-4.81
-3.26
-1.50
0.39
2.20
3.71
4.78
5.41
5.71
5.84
5.96
6.15
6.44
6.79
7.16
7.49
7.74
7.89
7.93
7.87
7.71
7.49
7.23
7.01
6.85
6.78
6.77
6.74
6.53
6.01
5.14
3.97
2.67
1.42
0.40
-0.34
-0.85
-1.28
-1.81
-2.55
-3.54
-4.71
-5.94
-7.11
-8.18
-9.21
-10.33
-11.68
-13.27
-14.99
-16.63
-17.94
-18.76
-19.01
-18.71
-17.85
-16.40
-14.33
-11.68
-8.57
-5.31
-2.27
0.22
1.94
2.89
3.24
3.32
3.44
3.83
4.53
5.44
6.38
7.21
7.89
8.49
9.07
9.63
10.11
10.38
10.42
10.27
10.08
9.94
9.88
9.84
9.72
9.49
9.20
8.91
8.63
8.26
7.68
6.83
5.73
4.47
3.19
1.95
0.79
-0.31
-1.33
-2.29
-3.22
-4.22
-5.39
-6.78
-8.34
-9.94
-11.45
-12.79
-14.04
-15.33
-16.79
-18.46
-20.27
-22.03
-23.47
-24.29
-24.25
-23.14
-20.95
-17.82
-14.08
-10.13
-6.34
-2.93
0.04
2.60
4.78
6.55
7.86
8.71
9.21
9.59
10.12
10.98
12.17
13.56
14.91
16.04
16.86
17.37
17.64
17.73
17.70
17.58
17.42
17.27
17.20
17.19
17.17
17.02
16.63
15.94
15.04
14.10
13.30
12.73
12.36
12.07
11.68
11.11
10.38
9.57
8.73
7.77
6.50
4.70
2.24
-0.76
-4.03
-7.22
-10.05
-12.44
-14.46
-16.27
-18.00
-19.79
-21.71
-23.87
-26.36
-29.18
-32.15
-34.92
-36.98
-37.81
-37.11
-34.79
-31.05
-26.30
-21.02
-15.67
-10.65
-6.20
-2.46
0.57
2.96
4.84
6.32
7.53
8.57
9.54
10.53
11.59
12.68
13.70
14.49
14.96
15.11
15.07
15.01
15.10
15.35
15.64
15.77
15.55
14.93
14.02
13.06
12.25
11.67
11.19
10.62
9.78
8.60
7.26
6.00
5.00
4.30
3.73
2.99
1.87
0.33
-1.47
-3.28
-4.89
-6.21
-7.30
-8.26
-9.24
-10.28
-11.41
-12.60
-13.77
-14.84
-15.70
-16.21
-16.27
-15.82
-14.82
-13.31
-11.34
-9.02
-6.52
-4.03
-1.69
0.39
2.17
3.66
4.84
5.70
6.21
6.36
6.24
5.95
5.67
5.54
5.65
6.02
6.63
7.40
8.21
8.93
9.43
9.63
9.53
9.17
8.60
7.91
7.20
6.58
6.15
5.91
5.77
5.56
5.09
4.25
3.00
1.44
-0.27
-1.93
-3.36
-4.47
-5.26
-5.83
-6.34
-6.97
-7.82
-8.98
-10.44
-12.17
-14.12
-16.13
-17.95
-19.25
-19.72
-19.18
-17.73
-15.61
-13.14
-10.58
-8.05
-5.54
-3.05
-0.62
1.68
3.77
5.62
7.29
8.81
10.24
11.54
12.63
13.45
13.99
14.28
14.45
14.62
14.93
15.45
16.18
17.06
17.97
18.76
19.30
19.53
19.47
19.23
18.96
18.80
18.84
19.04
19.23
19.21
18.76
17.76
16.18
14.10
11.66
8.97
6.11
3.11
-0.01
-3.18
-6.33
-9.37
-12.19
-14.73
-16.97
-18.91
-20.57
-21.98
-23.16
-24.15
-25.03
-25.88
-26.69
-27.41
-27.80
-27.58
-26.44
-24.24
-21.06
-17.21
-13.17
-9.37
-6.09
-3.36
-1.08
0.93
2.76
4.38
5.75
6.79
7.53
8.06
8.44
8.69
8.72
8.45
7.90
7.23
6.68
6.50
6.78
7.40
8.08
8.48
8.42
7.92
7.23
6.61
6.29
6.21
6.19
5.96
5.33
4.29
3.02
1.75
0.66
-0.21
-0.93
-1.65
-2.45
-3.36
-4.32
-5.29
-6.25
-7.22
-8.28
-9.48
-10.84
-12.34
-13.94
-15.58
-17.25
-18.94
-20.63
-22.20
-23.49
-24.21
-24.06
-22.83
-20.47
-17.15
-13.22
-9.07
-5.09
-1.48
1.64
4.27
6.39
7.94
8.85
9.14
8.95
8.53
8.25
8.38
9.05
10.19
11.59
13.01
14.25
15.24
15.94
16.37
16.54
16.46
16.13
15.57
14.87
14.10
13.39
12.77
12.24
11.66
10.87
9.73
8.17
6.30
4.35
2.58
1.14
-0.05
-1.17
-2.48
-4.08
-5.89
-7.72
-9.40
-10.92
-12.43
-14.13
-16.07
-18.06
-19.68
-20.48
-20.13
-18.61
-16.18
-13.24
-10.20
-7.35
-4.86
-2.80
-1.20
-0.05
0.69
1.12
1.38
1.67
2.16
2.87
3.73
4.51
4.99
5.05
4.76
4.34
4.05
4.06
4.36
4.78
5.07
5.07
4.74
4.16
3.50
2.91
2.43
2.02
1.54
0.89
0.03
-0.99
-2.06
-3.07
-4.02
-5.03
-6.26
-7.83
-9.73
-11.79
-13.77
-15.50
-16.94
-18.13
-19.10
-19.79
-19.97
-19.37
-17.79
-15.22
-11.86
-8.08
-4.31
-0.92
1.88
4.01
5.50
6.50
7.13
7.48
7.60
7.58
7.55
7.67
8.09
8.84
9.79
10.76
11.53
11.99
12.16
12.13
12.00
11.78
11.42
10.85
10.05
9.03
7.89
6.73
5.65
4.71
3.90
3.18
2.39
1.37
-0.05
-1.92
-4.19
-6.69
-9.22
-11.58
-13.68
-15.54
-17.33
-19.29
-21.65
-24.52
-27.78
-31.04
-33.70
-35.12
-34.81
-32.59
-28.63
-23.41
-17.55
-11.66
-6.19
-1.45
2.43
5.44
7.59
9.03
9.90
10.41
10.79
11.22
11.82
12.64
13.62
14.64
15.60
16.37
16.94
17.35
17.68
18.02
18.40
18.76
18.97
18.93
18.55
17.84
16.86
15.75
14.65
13.63
12.70
11.75
10.66
9.29
7.63
5.80
3.96
2.30
0.88
-0.37
-1.60
-2.92
-4.39
-5.98
-7.61
-9.25
-10.94
-12.77
-14.87
-17.29
-20.01
-22.93
-25.86
-28.53
-30.59
-31.68
-31.46
-29.73
-26.50
-21.99
-16.57
-10.76
-5.01
0.26
4.80
8.50
11.36
13.47
14.93
15.88
16.45
16.73
16.88
17.07
17.45
18.12
19.08
20.16
21.11
21.71
21.84
21.54
20.97
20.33
19.75
19.28
18.86
18.38
17.75
16.95
16.01
14.99
13.96
12.96
12.00
11.06
10.09
9.10
8.10
7.13
6.21
5.33
4.42
3.37
2.11
0.65
-0.92
-2.51
-4.04
-5.50
-6.99
-8.61
-10.41
-12.34
-14.25
-15.96
-17.42
-18.71
-20.05
-21.67
-23.62
-25.71
-27.50
-28.39
-27.93
-25.93
-22.57
-18.32
-13.69
-9.13
-4.86
-0.99
2.40
5.20
7.29
8.60
9.20
9.36
9.42
9.70
10.38
11.38
12.48
13.37
13.83
13.86
13.62
13.40
13.40
13.67
14.04
14.23
14.00
13.27
12.14
10.82
9.50
8.26
7.14
6.11
5.22
4.52
4.04
3.72
3.40
2.85
1.91
0.52
-1.24
-3.20
-5.18
-7.01
-8.62
-10.01
-11.28
-12.57
-14.01
-15.60
-17.27
-18.82
-20.07
-20.82
-20.94
-20.32
-18.85
-16.43
-13.07
-8.95
-4.45
-0.14
3.48
6.10
7.70
8.57
9.09
9.60
10.29
11.15
12.05
12.84
13.42
13.76
13.92
13.94
13.85
13.67
13.41
13.11
12.77
12.44
12.12
11.81
11.46
11.01
10.40
9.57
8.51
7.30
6.01
4.74
3.53
2.35
1.19
0.06
-1.00
-1.90
-2.60
-3.15
-3.72
-4.53
-5.73
-7.32
-9.21
-11.20
-13.10
-14.82
-16.36
-17.83
-19.34
-20.98
-22.71
-24.36
-25.71
-26.47
-26.40
-25.35
-23.28
-20.28
-16.53
-12.32
-7.96
-3.79
-0.10
2.93
5.25
6.92
8.08
8.86
9.38
9.70
9.88
9.99
10.16
10.52
11.11
11.89
12.72
13.42
13.88
14.10
14.15
14.13
14.10
14.03
13.82
13.40
12.77
11.97
11.11
10.25
9.39
8.48
7.45
6.27
4.95
3.56
2.15
0.78
-0.52
-1.74
-2.89
-3.99
-5.08
-6.21
-7.43
-8.74
-10.11
-11.47
-12.80
-14.19
-15.80
-17.80
-20.25
-23.00
-25.73
-27.99
-29.36
-29.53
-28.32
-25.79
-22.14
-17.75
-13.06
-8.51
-4.40
-0.90
2.02
4.47
6.59
8.48
10.15
11.56
12.66
13.39
13.75
13.79
13.64
13.51
13.65
14.24
15.33
16.72
18.08
19.03
19.34
19.01
18.27
17.40
16.58
15.82
14.98
13.94
12.71
11.44
10.36
9.59
9.06
8.55
7.81
6.71
5.27
3.65
1.99
0.33
-1.39
-3.26
-5.36
-7.67
-10.12
-12.64
-15.20
-17.81
-20.46
-23.10
-25.58
-27.67
-29.09
-29.56
-28.90
-27.02
-24.06
-20.29
-16.12
-11.94
-8.04
-4.56
-1.49
1.16
3.33
4.93
5.86
6.17
6.09
5.97
6.08
6.55
7.26
7.98
8.51
8.85
9.15
9.61
10.34
11.27
12.16
12.75
12.82
12.34
11.39
10.18
8.92
7.78
6.82
6.00
5.22
4.34
3.29
2.07
0.79
-0.45
-1.60
-2.72
-3.95
-5.38
-7.02
-8.80
-10.60
-12.38
-14.16
-16.02
-18.06
-20.30
-22.71
-25.17
-27.55
-29.70
-31.42
-32.47
-32.56
-31.40
-28.79
-24.74
-19.51
-13.58
-7.53
-1.92
2.88
6.77
9.83
12.21
14.02
15.29
16.02
16.26
16.22
16.18
16.43
17.09
17.99
18.84
19.30
19.21
18.68
17.99
17.53
17.50
17.89
18.42
18.71
18.43
17.47
15.98
14.31
12.78
11.61
10.78
10.08
9.26
8.13
6.62
4.86
3.07
1.47
0.14
-0.96
-2.02
-3.25
-4.82
-6.76
-8.94
-11.18
-13.28
-15.16
-16.86
-18.54
-20.39
-22.51
-24.92
-27.52
-30.10
-32.38
-33.98
-34.44
-33.33
-30.41
-25.72
-19.69
-12.97
-6.27
-0.17
5.01
9.17
12.38
14.74
16.36
17.37
17.97
18.40
18.92
19.68
20.69
21.81
22.85
23.67
24.19
24.48
24.60
24.65
24.65
24.55
24.29
23.78
23.02
22.06
20.99
19.91
18.86
17.86
16.86
15.80
14.62
13.30
11.90
10.49
9.18
7.98
6.86
5.70
4.39
2.91
1.32
-0.28
-1.76
-3.11
-4.37
-5.66
-7.06
-8.60
-10.26
-11.99
-13.81
-15.73
-17.80
-20.01
-22.33
-24.67
-26.90
-28.84
-30.29
-30.99
-30.69
-29.24
-26.63
-23.03
-18.73
-14.13
-9.59
-5.42
-1.82
1.04
3.10
4.36
4.96
5.13
5.17
5.33
5.78
6.57
7.61
8.77
9.90
10.89
11.69
12.32
12.86
13.38
13.91
14.44
14.89
15.17
15.23
15.05
14.72
14.33
13.95
13.58
13.20
12.73
12.14
11.42
10.57
9.57
8.42
7.11
5.66
4.11
2.41
0.51
-1.70
-4.29
-7.20
-10.26
-13.28
-16.14
-18.85
-21.59
-24.48
-27.48
-30.36
-32.68
-33.97
-33.84
-32.11
-28.85
-24.38
-19.16
-13.70
-8.50
-3.88
-0.03
3.03
5.29
6.79
7.58
7.80
7.69
7.56
7.62
7.92
8.33
8.64
8.73
8.64
8.55
8.66
9.02
9.54
9.93
9.91
9.30
8.12
6.56
4.92
3.43
2.19
1.15
0.15
-0.96
-2.28
-3.78
-5.34
-6.86
-8.27
-9.58
-10.87
-12.22
-13.71
-15.38
-17.23
-19.22
-21.23
-23.01
-24.28
-24.67
-23.88
-21.70
-18.15
-13.49
-8.19
-2.83
1.99
5.84
8.51
10.11
10.87
11.10
11.02
10.77
10.42
10.09
9.91
10.03
10.50
11.21
11.94
12.47
12.69
12.64
12.45
12.21
11.91
11.46
10.74
9.74
8.59
7.42
6.35
5.33
4.22
2.88
1.22
-0.72
-2.77
-4.81
-6.70
-8.43
-10.02
-11.59
-13.22
-15.04
-17.14
-19.54
-22.19
-24.89
-27.33
-29.17
-30.02
-29.59
-27.70
-24.30
-19.55
-13.82
-7.66
-1.71
3.47
7.53
10.42
12.30
13.46
14.16
14.60
14.87
15.06
15.29
15.65
16.18
16.78
17.32
17.66
17.74
17.62
17.40
17.21
17.07
16.96
16.78
16.44
15.85
14.97
13.78
12.35
10.80
9.25
7.85
6.62
5.50
4.33
2.92
1.19
-0.87
-3.14
-5.44
-7.64
-9.69
-11.59
-13.40
-15.17
-16.93
-18.77
-20.80
-23.15
-25.85
-28.75
-31.45
-33.36
-33.89
-32.63
-29.53
-24.93
-19.41
-13.60
-7.98
-2.79
1.93
6.17
9.93
13.07
15.43
16.93
17.61
17.71
17.53
17.34
17.28
17.35
17.47
17.54
17.57
17.62
17.82
18.23
18.82
19.44
19.90
20.06
19.85
19.32
18.53
17.53
16.27
14.72
12.87
10.82
8.75
6.86
5.25
3.92
2.72
1.50
0.14
-1.41
-3.13
-5.00
-7.00
-9.10
-11.20
-13.22
-15.09
-16.86
-18.71
-20.86
-23.47
-26.49
-29.61
-32.33
-34.09
-34.41
-33.00
-29.83
-25.12
-19.28
-12.88
-6.47
-0.56
4.50
8.54
11.53
13.51
14.57
14.82
14.39
13.52
12.52
11.73
11.44
11.75
12.58
13.65
14.65
15.39
15.83
16.07
16.22
16.34
16.33
16.02
15.29
14.13
12.68
11.16
9.76
8.58
7.59
6.64
5.57
4.22
2.52
0.50
-1.70
-3.89
-5.89
-7.62
-9.16
-10.66
-12.27
-14.14
-16.30
-18.70
-21.23
-23.72
-25.91
-27.48
-28.01
-27.14
-24.69
-20.73
-15.64
-10.04
-4.53
0.43
4.61
8.01
10.73
12.81
14.29
15.15
15.44
15.30
14.95
14.61
14.42
14.44
14.64
14.93
15.23
15.51
15.76
15.96
16.08
16.07
15.87
15.46
14.86
14.12
13.29
12.43
11.52
10.46
9.16
7.56
5.69
3.70
1.77
0.03
-1.48
-2.87
-4.33
-6.00
-7.92
-10.00
-12.04
-13.92
-15.60
-17.23
-19.04
-21.25
-23.97
-27.07
-30.27
-33.12
-35.08
-35.67
-34.53
-31.54
-26.82
-20.82
-14.16
-7.54
-1.56
3.38
7.15
9.90
11.83
13.16
14.03
14.46
14.50
14.26
13.98
13.89
14.18
14.80
15.62
16.40
16.97
17.29
17.38
17.32
17.15
16.86
16.45
15.91
15.28
14.58
13.85
13.08
12.28
11.41
10.46
9.41
8.24
6.90
5.38
3.65
1.69
-0.52
-2.95
-5.50
-8.01
-10.30
-12.25
-13.88
-15.29
-16.70
-18.30
-20.25
-22.61
-25.34
-28.26
-31.01
-33.07
-33.89
-32.99
-30.14
-25.48
-19.43
-12.70
-5.97
0.13
5.23
9.18
12.01
13.82
14.75
14.94
14.58
13.93
13.33
13.10
13.44
14.33
15.56
16.78
17.70
18.19
18.33
18.28
18.22
18.16
18.02
17.66
17.00
16.07
15.01
13.95
12.95
11.94
10.77
9.35
7.69
5.94
4.25
2.74
1.38
0.04
-1.37
-2.87
-4.37
-5.78
-7.10
-8.43
-9.95
-11.76
-13.84
-16.10
-18.36
-20.45
-22.21
-23.47
-24.06
-23.80
-22.61
-20.49
-17.58
-14.06
-10.16
-6.09
-2.10
1.54
4.59
6.84
8.22
8.78
8.67
8.08
7.27
6.47
5.88
5.59
5.59
5.73
5.84
5.83
5.70
5.54
5.47
5.52
5.67
5.84
5.98
6.07
6.07
5.94
5.57
4.86
3.80
2.49
1.15
-0.02
-0.94
-1.69
-2.48
-3.54
-5.01
-6.90
-9.08
-11.39
-13.62
-15.70
-17.58
-19.35
-21.14
-23.08
-25.24
-27.60
-29.97
-32.06
-33.44
-33.68
-32.36
-29.27
-24.47
-18.33
-11.51
-4.78
1.19
5.94
9.40
11.71
13.18
14.12
14.69
14.99
15.07
15.00
14.87
14.79
14.82
14.98
15.26
15.61
16.02
16.46
16.96
17.47
17.90
18.10
17.91
17.23
16.10
14.63
13.03
11.48
10.05
8.72
7.41
6.05
4.64
3.20
1.74
0.16
-1.67
-3.87
-6.45
-9.22
-11.92
-14.30
-16.25
-17.87
-19.44
-21.28
-23.62
-26.53
-29.78
-32.95
-35.49
-36.80
-36.43
-34.12
-29.92
-24.17
-17.41
-10.27
-3.32
2.95
8.25
12.38
15.25
16.91
17.51
17.34
16.76
16.14
15.73
15.64
15.80
16.11
16.45
16.79
17.17
17.65
18.27
18.95
19.56
19.87
19.70
18.96
17.69
16.09
14.37
12.72
11.15
9.62
8.04
6.37
4.64
2.93
1.27
-0.41
-2.23
-4.28
-6.56
-8.98
-11.34
-13.52
-15.55
-17.60
-19.86
-22.49
-25.45
-28.51
-31.31
-33.39
-34.30
-33.65
-31.21
-26.99
-21.24
-14.52
-7.51
-0.89
4.80
9.33
12.69
15.06
16.67
17.70
18.27
18.46
18.32
17.93
17.39
16.79
16.25
15.83
15.58
15.51
15.63
15.94
16.37
16.86
17.25
17.38
17.16
16.54
15.59
14.35
12.85
11.04
8.89
6.44
3.85
1.36
-0.81
-2.57
-4.03
-5.43
-7.01
-8.92
-11.14
-13.56
-16.05
-18.56
-21.11
-23.74
-26.47
-29.18
-31.60
-33.33
-33.94
-33.09
-30.59
-26.47
-21.03
-14.72
-8.10
-1.72
3.92
8.49
11.84
13.97
15.07
15.40
15.25
14.87
14.45
14.11
13.93
13.98
14.29
14.82
15.53
16.28
16.97
17.50
17.80
17.86
17.68
17.29
16.67
15.80
14.62
13.11
11.31
9.31
7.24
5.24
3.39
1.67
-0.01
-1.77
-3.73
-5.90
-8.19
-10.47
-12.62
-14.59
-16.50
-18.52
-20.87
-23.59
-26.53
-29.26
-31.15
-31.58
-30.13
-26.79
-21.89
-16.04
-9.89
-3.92
1.55
6.37
10.37
13.36
15.18
15.78
15.32
14.21
12.88
11.69
10.78
10.15
9.75
9.60
9.75
10.27
11.12
12.15
13.13
13.85
14.16
14.01
13.44
12.57
11.60
10.67
9.83
9.00
8.01
6.66
4.87
2.76
0.51
-1.64
-3.58
-5.30
-6.90
-8.45
-9.99
-11.52
-13.03
-14.61
-16.33
-18.25
-20.38
-22.65
-25.01
-27.40
-29.87
-32.51
-35.42
-38.63
-41.95
-44.93
-46.91
-47.17
-45.13
-40.60
-33.88
-25.72
-17.05
-8.79
-1.54
4.46
9.26
13.05
15.97
18.13
19.58
20.44
20.93
21.33
21.87
22.63
23.53
24.36
24.97
25.31
25.52
25.83
26.40
27.28
28.30
29.19
29.67
29.54
28.77
27.49
25.96
24.45
23.15
22.09
21.14
20.07
18.69
16.95
14.93
12.85
10.86
9.03
7.27
5.49
3.65
1.80
0.04
-1.56
-3.08
-4.67
-6.50
-8.66
-11.08
-13.57
-15.99
-18.21
-20.28
-22.30
-24.44
-26.83
-29.49
-32.39
-35.37
-38.21
-40.56
-41.99
-41.95
-39.96
-35.71
-29.29
-21.21
-12.34
-3.72
3.77
9.58
13.62
16.07
17.33
17.74
17.58
17.05
16.32
15.60
15.08
14.95
15.30
16.10
17.16
18.24
19.11
19.67
19.97
20.17
20.48
20.96
21.49
21.83
21.67
20.86
19.46
17.69
15.89
14.29
12.96
11.85
10.85
9.83
8.75
7.62
6.44
5.18
3.73
2.02
-0.00
-2.24
-4.51
-6.62
-8.48
-10.14
-11.78
-13.57
-15.59
-17.73
-19.77
-21.57
-23.10
-24.59
-26.34
-28.64
-31.60
-35.11
-38.85
-42.38
-45.14
-46.57
-46.16
-43.54
-38.66
-31.80
-23.58
-14.81
-6.29
1.39
7.84
12.90
16.57
18.94
20.15
20.40
19.97
19.18
18.35
17.77
17.62
17.99
18.84
20.08
21.48
22.81
23.85
24.47
24.65
24.52
24.20
23.79
23.27
22.57
21.63
20.45
19.13
17.77
16.38
14.87
13.08
10.96
8.58
6.19
4.04
2.30
0.91
-0.32
-1.67
-3.35
-5.44
-7.90
-10.58
-13.32
-15.96
-18.44
-20.79
-23.12
-25.61
-28.38
-31.46
-34.71
-37.75
-40.08
-41.13
-40.37
-37.53
-32.63
-26.02
-18.32
-10.27
-2.60
4.18
9.81
14.29
17.74
20.35
22.24
23.47
24.09
24.21
24.00
23.68
23.40
23.21
23.06
22.85
22.51
22.07
21.60
21.18
20.82
20.48
20.05
19.49
18.77
17.95
17.06
16.11
15.08
13.95
12.69
11.30
9.80
8.17
6.40
4.52
2.59
0.72
-1.04
-2.68
-4.28
-5.96
-7.81
-9.87
-12.09
-14.40
-16.70
-18.93
-21.02
-22.95
-24.74
-26.48
-28.35
-30.52
-33.13
-36.14
-39.34
-42.32
-44.54
-45.41
-44.44
-41.36
-36.23
-29.45
-21.64
-13.56
-5.85
0.99
6.70
11.23
14.61
16.97
18.46
19.26
19.53
19.42
19.07
18.62
18.26
18.14
18.36
18.94
19.78
20.76
21.78
22.77
23.68
24.41
24.76
24.57
23.78
22.48
20.94
19.44
18.16
17.02
15.82
14.32
12.42
10.23
7.96
5.85
3.98
2.37
0.88
-0.60
-2.20
-3.97
-5.94
-8.11
-10.40
-12.74
-15.02
-17.15
-19.09
-20.87
-22.63
-24.53
-26.76
-29.46
-32.68
-36.29
-39.93
-43.05
-44.99
-45.09
-42.89
-38.27
-31.53
-23.34
-14.60
-6.21
1.15
7.11
11.59
14.72
16.72
17.80
18.18
18.09
17.77
17.45
17.32
17.42
17.71
18.12
18.57
19.10
19.76
20.64
21.72
22.90
23.97
24.68
24.89
24.49
23.56
22.20
20.59
18.85
17.06
15.34
13.79
12.53
11.59
10.90
10.22
9.31
7.95
6.14
4.01
1.79
-0.35
-2.36
-4.32
-6.34
-8.50
-10.79
-13.12
-15.37
-17.44
-19.26
-20.90
-22.49
-24.29
-26.54
-29.42
-32.93
-36.84
-40.71
-43.91
-45.76
-45.64
-43.15
-38.18
-31.07
-22.57
-13.64
-5.25
1.85
7.34
11.25
13.88
15.57
16.65
17.32
17.69
17.81
17.73
17.52
17.29
17.18
17.36
17.90
18.80
19.94
21.14
22.28
23.22
23.93
24.33
24.29
23.71
22.54
20.92
19.15
17.57
16.46
15.84
15.49
15.04
14.14
12.56
10.31
7.62
4.82
2.29
0.25
-1.23
-2.30
-3.19
-4.18
-5.48
-7.20
-9.34
-11.84
-14.59
-17.42
-20.15
-22.57
-24.56
-26.18
-27.67
-29.42
-31.76
-34.79
-38.19
-41.26
-43.09
-42.88
-40.20
-35.15
-28.29
-20.46
-12.50
-5.13
1.21
6.28
10.06
12.63
14.15
14.86
15.02
14.90
14.71
14.60
14.61
14.76
14.97
15.23
15.52
15.84
16.25
16.80
17.48
18.25
18.95
19.41
19.49
19.12
18.32
17.22
15.96
14.66
13.37
12.08
10.75
9.34
7.82
6.21
4.56
2.84
1.07
-0.81
-2.79
-4.81
-6.76
-8.51
-9.99
-11.25
-12.47
-13.85
-15.54
-17.57
-19.88
-22.37
-24.98
-27.65
-30.26
-32.53
-34.02
-34.17
-32.57
-29.09
-24.00
-17.86
-11.40
-5.22
0.25
4.85
8.56
11.45
13.55
14.88
15.44
15.31
14.67
13.81
13.03
12.60
12.63
13.08
13.81
14.65
15.49
16.28
16.99
17.52
17.75
17.57
16.96
16.03
14.99
14.05
13.23
12.44
11.46
10.14
8.43
6.47
4.45
2.55
0.83
-0.82
-2.57
-4.60
-6.97
-9.60
-12.28
-14.81
-17.05
-19.00
-20.82
-22.72
-24.87
-27.38
-30.22
-33.27
-36.26
-38.81
-40.46
-40.66
-39.00
-35.29
-29.69
-22.67
-14.95
-7.30
-0.37
5.42
9.88
13.04
15.06
16.16
16.55
16.44
16.01
15.43
14.90
14.59
14.63
15.03
15.74
16.62
17.58
18.54
19.51
20.45
21.25
21.73
21.70
21.06
19.83
18.23
16.54
14.97
13.57
12.23
10.76
9.02
7.00
4.85
2.77
0.88
-0.89
-2.76
-4.99
-7.70
-10.78
-13.88
-16.60
-18.75
-20.42
-21.99
-23.96
-26.65
-30.10
-34.02
-37.94
-41.29
-43.55
-44.23
-42.95
-39.49
-33.88
-26.48
-17.99
-9.25
-1.09
5.90
11.42
15.45
18.17
19.83
20.66
20.90
20.75
20.41
20.08
19.88
19.90
20.16
20.64
21.27
22.00
22.74
23.44
24.05
24.49
24.73
24.71
24.40
23.72
22.70
21.37
19.84
18.23
16.62
15.00
13.26
11.32
9.14
6.84
4.64
2.75
1.23
-0.08
-1.48
-3.32
-5.81
-8.91
-12.31
-15.56
-18.29
-20.31
-21.75
-23.00
-24.58
-26.95
-30.30
-34.45
-38.89
-42.85
-45.55
-46.39
-45.00
-41.32
-35.50
-27.93
-19.16
-9.94
-1.09
6.61
12.62
16.76
19.20
20.33
20.59
20.29
19.63
18.75
17.85
17.19
17.03
17.53
18.68
20.24
21.87
23.23
24.10
24.42
24.26
23.78
23.09
22.26
21.29
20.19
18.92
17.47
15.81
13.94
11.93
9.84
7.76
5.70
3.64
1.45
-1.01
-3.78
-6.77
-9.79
-12.59
-15.04
-17.15
-19.08
-21.07
-23.33
-26.04
-29.28
-33.02
-37.03
-40.84
-43.74
-44.90
-43.59
-39.47
-32.76
-24.22
-14.91
-5.87
2.11
8.69
13.81
17.58
20.11
21.49
21.83
21.36
20.45
19.54
19.00
19.01
19.51
20.27
21.03
21.61
22.02
22.33
22.69
23.15
23.66
24.05
24.12
23.72
22.84
21.55
20.02
18.38
16.71
14.98
13.16
11.24
9.24
7.24
5.31
3.47
1.68
-0.16
-2.12
-4.25
-6.54
-8.97
-11.53
-14.24
-17.03
-19.84
-22.55
-25.04
-27.34
-29.57
-31.97
-34.75
-38.09
-41.93
-45.94
-49.55
-51.95
-52.32
-50.02
-44.85
-37.10
-27.58
-17.32
-7.31
1.75
9.52
15.92
20.96
24.61
26.86
27.74
27.47
26.48
25.25
24.22
23.64
23.56
23.91
24.53
25.30
26.12
26.94
27.68
28.28
28.68
28.82
28.65
28.11
27.16
25.79
24.07
22.12
20.14
18.24
16.47
14.75
12.93
10.89
8.56
5.99
3.34
0.82
-1.40
-3.24
-4.76
-6.14
-7.64
-9.48
-11.79
-14.55
-17.56
-20.63
-23.52
-26.17
-28.61
-31.02
-33.64
-36.71
-40.35
-44.51
-48.89
-52.90
-55.68
-56.37
-54.23
-48.99
-40.94
-30.91
-20.01
-9.36
0.24
8.34
14.86
19.88
23.55
25.95
27.18
27.41
26.94
26.12
25.32
24.76
24.50
24.52
24.75
25.17
25.82
26.71
27.80
28.91
29.82
30.37
30.45
30.06
29.23
27.99
26.31
24.24
21.86
19.38
16.99
14.83
12.86
10.96
8.96
6.72
4.29
1.80
-0.62
-2.89
-5.03
-7.20
-9.54
-12.15
-15.02
-18.00
-20.90
-23.51
-25.70
-27.49
-29.11
-30.90
-33.24
-36.40
-40.38
-44.79
-48.92
-51.83
-52.58
-50.51
-45.38
-37.54
-27.79
-17.15
-6.63
3.00
11.29
18.08
23.34
27.09
29.36
30.18
29.76
28.43
26.66
24.87
23.35
22.23
21.46
20.95
20.62
20.45
20.42
20.53
20.69
20.80
20.73
20.41
19.78
18.82
17.53
15.91
13.96
11.73
9.28
6.72
4.20
1.79
-0.51
-2.78
-5.18
-7.84
-10.75
-13.81
-16.77
-19.41
-21.64
-23.55
-25.42
-27.62
-30.43
-33.95
-37.95
-41.90
-45.00
-46.41
-45.47
-41.88
-35.79
-27.73
-18.49
-8.90
0.25
8.35
14.98
19.89
23.08
24.73
25.17
24.77
23.90
22.80
21.68
20.68
19.91
19.51
19.56
20.09
21.01
22.13
23.23
24.09
24.56
24.59
24.20
23.45
22.41
21.07
19.45
17.54
15.36
12.96
10.42
7.83
5.26
2.79
0.46
-1.71
-3.77
-5.80
-7.89
-10.14
-12.61
-15.31
-18.21
-21.22
-24.23
-27.12
-29.86
-32.59
-35.54
-38.99
-43.00
-47.25
-50.99
-53.14
-52.67
-48.94
-42.00
-32.57
-21.82
-10.98
-1.07
7.33
13.98
18.92
22.30
24.33
25.24
25.32
24.91
24.29
23.71
23.28
23.07
23.09
23.32
23.76
24.37
25.13
25.97
26.83
27.61
28.14
28.24
27.81
26.85
25.50
23.99
22.52
21.14
19.80
18.38
16.77
14.97
13.05
11.10
9.16
7.20
5.17
2.99
0.69
-1.70
-4.13
-6.61
-9.20
-12.02
-15.17
-18.63
-22.24
-25.72
-28.72
-31.06
-32.75
-34.07
-35.47
-37.42
-40.28
-44.09
-48.65
-53.37
-57.40
-59.72
-59.34
-55.63
-48.52
-38.61
-27.04
-15.14
-4.09
5.36
12.93
18.65
22.70
25.25
26.48
26.65
26.16
25.45
24.91
24.74
24.97
25.46
26.10
26.82
27.64
28.59
29.64
30.66
31.48
31.96
32.01
31.67
30.97
29.93
28.49
26.67
24.53
22.24
20.05
18.10
16.39
14.75
12.93
10.77
8.25
5.55
2.91
0.50
-1.62
-3.54
-5.44
-7.47
-9.70
-12.15
-14.79
-17.54
-20.34
-23.08
-25.68
-28.08
-30.33
-32.54
-34.89
-37.61
-40.90
-44.84
-49.22
-53.51
-56.78
-57.92
-55.94
-50.37
-41.46
-30.23
-18.12
-6.59
3.31
11.10
16.79
20.63
22.91
23.88
23.75
22.84
21.58
20.43
19.74
19.65
20.05
20.74
21.49
22.25
23.08
24.07
25.26
26.50
27.54
28.09
27.92
27.00
25.43
23.43
21.24
19.06
17.02
15.12
13.29
11.37
9.20
6.70
3.93
1.12
-1.47
-3.66
-5.46
-7.11
-8.88
-11.01
-13.52
-16.25
-18.96
-21.41
-23.56
-25.51
-27.51
-29.85
-32.78
-36.37
-40.44
-44.49
-47.66
-48.98
-47.60
-43.07
-35.55
-25.81
-14.98
-4.28
5.28
13.10
18.95
22.89
25.13
25.98
25.75
24.77
23.33
21.74
20.26
19.06
18.27
17.92
18.00
18.40
19.00
19.69
20.39
21.01
21.46
21.68
21.59
21.15
20.34
19.20
17.74
15.99
13.97
11.74
9.39
7.00
4.65
2.30
-0.17
-2.87
-5.86
-9.05
-12.21
-15.06
-17.44
-19.36
-21.03
-22.80
-25.04
-27.96
-31.58
-35.69
-39.90
-43.66
-46.37
-47.36
-46.05
-42.07
-35.44
-26.69
-16.77
-6.83
2.09
9.34
14.76
18.57
21.11
22.61
23.14
22.67
21.25
19.13
16.82
14.85
13.67
13.43
13.99
14.99
16.05
16.85
17.28
17.43
17.42
17.39
17.31
17.07
16.51
15.54
14.18
12.52
10.69
8.71
6.59
4.28
1.83
-0.67
-3.16
-5.63
-8.19
-11.01
-14.17
-17.56
-20.91
-23.91
-26.37
-28.39
-30.30
-32.59
-35.68
-39.75
-44.61
-49.66
-53.95
-56.37
-55.91
-51.91
-44.35
-33.87
-21.66
-9.12
2.48
12.30
20.02
25.68
29.51
31.70
32.45
31.97
30.55
28.68
26.85
25.49
24.82
24.81
25.25
25.87
26.53
27.14
27.72
28.25
28.65
28.77
28.46
27.68
26.50
25.05
23.42
21.62
19.55
17.10
14.30
11.33
8.45
5.83
3.52
1.32
-1.04
-3.76
-6.93
-10.44
-14.05
-17.48
-20.50
-23.05
-25.21
-27.26
-29.57
-32.52
-36.33
-41.00
-46.16
-51.08
-54.75
-56.04
-54.02
-48.28
-39.10
-27.52
-15.01
-3.07
7.21
15.34
21.38
25.64
28.36
29.63
29.47
28.02
25.74
23.30
21.41
20.50
20.61
21.38
22.33
23.11
23.61
23.97
24.36
24.89
25.47
25.87
25.79
25.03
23.50
21.33
18.77
16.13
13.65
11.42
9.35
7.21
4.79
1.95
-1.27
-4.68
-8.06
-11.25
-14.16
-16.79
-19.19
-21.44
-23.69
-26.13
-29.06
-32.71
-37.15
-42.05
-46.70
-50.01
-50.83
-48.34
-42.30
-33.25
-22.31
-10.82
0.00
9.39
17.04
22.95
27.20
29.86
30.94
30.56
29.04
26.88
24.67
22.82
21.54
20.81
20.47
20.40
20.55
20.95
21.58
22.35
23.09
23.58
23.68
23.35
22.57
21.35
19.68
17.53
15.00
12.32
9.77
7.56
5.74
4.12
2.43
0.45
-1.90
-4.50
-7.19
-9.80
-12.25
-14.46
-16.31
-17.65
-18.32
-18.28
-17.64
-16.61
-15.45
-14.33
-13.34
-12.45
-11.66
-10.92
-10.24
-9.60
-8.97
-8.33
-7.67
-6.98
-6.31
-5.69
-5.16
-4.71
-4.33
-3.99
-3.65
-3.30
-2.93
-2.55
-2.21
-1.91
-1.67
-1.48
-1.32
-1.17
-1.02
-0.86
-0.70
-0.55
-0.43
-0.34
-0.27
-0.23
-0.19
-0.16
-0.12
-0.08
-0.03
0.00
0.02
0.03
0.03
0.03
0.02
0.02
0.02
0.02
0.02
0.02
0.02
0.02
0.02
0.02
0.02
0.02
0.02
0.02
0.02
0.02
0.02
0.02
0.02
0.02
0.02
0.02
0.02
0.02
0.02
0.02
0.02
0.02
0.02
0.02
0.02
0.02
0.02
0.02
0.02
0.02
0.02
0.02
0.02
0.02
0.02
0.02
0.02
0.02
0.02
0.02
0.02
0.02
0.02
0.02
0.02
0.02
0.02
0.02
0.02
0.02
0.02
0.02
0.02
0.02
0.02
0.02
0.02
0.02
0.02
0.02
0.02
0.02
0.02
0.01
0.01
0.01
0.01
0.01
0.01
0.01
0.01
0.01
0.01
0.01
0.01
0.01
0.01
0.01
0.01
0.01
0.01
0.01
0.01
0.01
0.01
0.01
0.01
0.01
0.01
0.01
0.01
0.01
0.01
0.01
0.01
0.01
0.01
0.01
0.01
0.01
0.01
0.01
0.01
0.01
0.01
0.01
0.01
0.01
0.01
0.01
0.01
0.01
0.01
0.01
0.01
0.01
0.01
0.01
0.01
0.01
0.01
0.01
0.01
0.01
0.01
0.01
0.01
0.01
0.01
0.01
0.02
0.03
0.03
0.02
-0.01
-0.05
-0.11
-0.17
-0.22
-0.26
-0.28
-0.30
-0.32
-0.35
-0.39
-0.45
-0.50
-0.55
-0.56
-0.57
-0.57
-0.59
-0.66
-0.77
-0.92
-1.06
-1.17
-1.22
-1.24
-1.26
-1.33
-1.51
-1.81
-2.18
-2.56
-2.86
-3.03
-3.10
-3.15
-3.31
-3.67
-4.26
-5.01
-5.78
-6.40
-6.79
-6.96
-7.06
-7.30
-7.85
-8.76
-9.93
-11.13
-12.15
-12.84
-13.20
-13.37
-13.57
-14.04
-14.99
-16.56
-18.69
-21.07
-23.01
-23.58
-21.88
-17.41
-10.33
-1.49
7.83
16.38
23.28
28.22
31.34
32.96
33.40
32.87
31.50
29.48
27.10
24.70
22.60
20.98
19.89
19.25
18.90
18.71
18.59
18.49
18.39
18.25
17.92
17.22
15.96
14.07
11.62
8.81
5.92
3.18
0.70
-1.56
-3.78
-6.14
-8.78
-11.72
-14.86
-18.01
-21.03
-23.86
-26.63
-29.56
-32.90
-36.77
-40.96
-44.83
-47.46
-47.82
-45.14
-39.25
-30.59
-20.21
-9.37
0.76
9.34
16.00
20.69
23.60
24.94
24.96
23.91
22.08
19.79
17.39
15.20
13.43
12.20
11.51
11.29
11.43
11.81
12.28
12.74
13.12
13.31
13.22
12.76
11.85
10.46
8.63
6.48
4.11
1.65
-0.87
-3.49
-6.27
-9.18
-12.13
-14.99
-17.63
-20.12
-22.66
-25.58
-29.07
-33.08
-37.08
-40.18
-41.41
-39.96
-35.59
-28.66
-20.04
-10.80
-1.87
6.15
12.99
18.59
22.93
25.93
27.53
27.75
26.84
25.20
23.35
21.72
20.58
19.96
19.71
19.58
19.28
18.67
17.68
16.38
14.87
13.27
11.59
9.82
7.89
5.72
3.28
0.58
-2.37
-5.45
-8.53
-11.42
-14.02
-16.33
-18.58
-21.14
-24.43
-28.71
-33.89
-39.39
-44.17
-46.96
-46.64
-42.63
-35.14
-25.07
-13.78
-2.58
7.56
16.14
23.02
28.19
31.65
33.35
33.37
31.96
29.66
27.04
24.67
22.84
21.61
20.84
20.32
19.93
19.64
19.51
19.57
19.74
19.84
19.60
18.76
17.19
14.97
12.29
9.42
6.61
3.97
1.46
-1.04
-3.68
-6.59
-9.87
-13.53
-17.53
-21.63
-25.39
-28.17
-29.25
-28.05
-24.37
-18.45
-10.97
-2.80
5.19
12.35
18.25
22.67
25.53
26.82
26.68
25.40
23.42
21.25
19.34
17.98
17.18
16.78
16.57
16.37
16.17
16.05
16.11
16.34
16.57
16.51
15.88
14.56
12.61
10.21
7.58
4.88
2.20
-0.47
-3.11
-5.68
-8.11
-10.38
-12.51
-14.62
-16.78
-19.02
-21.26
-23.34
-25.03
-26.03
-26.08
-24.95
-22.56
-19.05
-14.75
-10.11
-5.61
-1.54
2.00
5.06
7.72
10.01
11.85
13.13
13.80
14.00
13.91
13.74
13.61
13.53
13.44
13.29
13.11
12.98
12.93
12.91
12.75
12.27
11.38
10.12
8.66
7.21
5.85
4.55
3.14
1.45
-0.57
-2.87
-5.27
-7.59
-9.78
-11.86
-13.94
-16.07
-18.23
-20.35
-22.38
-24.35
-26.38
-28.58
-30.92
-33.21
-35.15
-36.38
-36.66
-35.93
-34.38
-32.35
-30.30
-28.66
-27.68
-27.42
-27.67
-28.06
-28.31
-28.34
-28.34
-28.74
-29.93
-32.08
-34.91
-37.80
-39.90
-40.33
-38.43
-33.89
-26.91
-18.24
-9.15
-1.19
4.25
6.45
5.66
3.11
0.55
-0.33
1.48
6.07
12.75
20.48
28.38
35.95
43.18
50.29
57.41
64.42
70.77
75.69
78.38
78.25
75.04
68.88
60.22
49.75
38.42
27.44
18.18
11.91
9.39
10.57
14.50
19.63
24.33
27.37
28.25
27.07
24.33
20.60
16.36
11.96
7.69
3.82
0.55
-2.02
-3.92
-5.27
-6.18
-6.73
-6.99
-7.07
-7.15
-7.43
-8.00
-8.78
-9.46
-9.73
-9.38
-8.41
-6.95
-5.05
-2.52
1.08
6.14
12.64
19.90
26.71
31.69
33.89
33.09
29.80
24.90
19.20
13.14
6.86
0.45
-5.74
-11.07
-14.77
-16.26
-15.43
-12.64
-8.52
-3.60
1.81
7.69
14.03
20.62
26.92
32.27
36.09
38.14
38.64
38.00
36.71
35.08
33.30
31.49
29.88
28.79
28.48
29.00
30.13
31.47
32.63
33.33
33.43
32.81
31.36
28.93
25.42
20.79
15.09
8.28
0.28
-8.97
-19.38
-30.53
-41.71
-52.14
-61.26
-68.89
-75.24
-80.69
-85.60
-90.20
-94.60
-98.81
-102.74
-106.13
-108.44
-109.01
-107.23
-102.87
-96.22
-87.93
-78.69
-68.89
-58.63
-47.85
-36.69
-25.70
-15.67
-7.32
-0.94
3.69
7.18
10.13
12.86
15.35
17.44
19.01
20.14
21.08
22.01
22.91
23.53
23.49
22.48
20.36
17.23
13.37
9.14
4.96
1.15
-2.04
-4.53
-6.51
-8.37
-10.75
-14.22
-19.07
-24.98
-31.00
-35.79
-38.05
-36.92
-32.33
-24.87
-15.62
-5.74
3.82
12.37
19.50
25.00
28.78
30.87
31.41
30.66
28.90
26.45
23.56
20.45
17.34
14.39
11.75
9.51
7.66
6.11
4.75
3.42
1.99
0.42
-1.35
-3.33
-5.58
-8.12
-10.96
-14.05
-17.26
-20.46
-23.71
-27.23
-31.37
-36.37
-42.11
-47.94
-52.83
-55.61
-55.40
-51.91
-45.59
-37.38
-28.40
-19.66
-11.77
-5.02
0.54
4.93
8.17
10.30
11.39
11.60
11.14
10.25
9.10
7.84
6.56
5.35
4.34
3.61
3.25
3.26
3.63
4.34
5.29
6.28
7.03
7.29
6.90
5.91
4.45
2.73
0.85
-1.13
-3.00
-4.29
-4.20
-1.80
3.67
12.43
24.02
37.39
51.25
64.41
76.08
85.89
93.83
100.00
104.50
107.37
108.68
108.50
106.96
104.12
99.90
94.05
86.37
76.84
65.89
54.28
42.83
32.09
22.11
12.47
2.61
-7.78
-18.53
-29.11
-38.84
-47.31
-54.51
-60.86
-66.98
-73.42
-80.43
-87.80
-94.89
-100.81
-104.64
-105.72
-103.91
-99.70
-93.90
-87.44
-80.97
-74.76
-68.84
-63.22
-58.06
-53.51
-49.37
-45.05
-39.75
-32.93
-24.76
-16.12
-8.15
-1.72
3.01
6.44
9.13
11.31
12.75
13.01
11.87
9.58
6.74
3.96
1.51
-0.83
-3.55
-7.10
-11.64
-16.94
-22.26
-26.58
-28.76
-27.90
-23.62
-16.19
-6.44
4.57
15.90
26.92
37.34
46.97
55.56
62.73
68.05
71.23
72.24
71.28
68.73
64.91
60.11
54.54
48.42
41.94
35.27
28.47
21.48
14.15
6.34
-1.96
-10.64
-19.45
-27.98
-35.81
-42.60
-48.18
-52.64
-56.22
-59.14
-61.31
-62.26
-61.13
-57.03
-49.43
-38.45
-24.88
-10.02
4.80
18.50
30.48
40.59
48.92
55.63
60.81
64.48
66.70
67.66
67.68
67.16
66.39
65.48
64.34
62.75
60.55
57.69
54.23
50.27
45.85
40.96
35.58
29.79
23.77
17.74
11.79
5.80
-0.51
-7.45
-15.05
-22.90
-30.21
-35.91
-39.05
-39.14
-36.28
-31.14
-24.70
-17.88
-11.35
-5.43
-0.28
3.96
7.08
8.79
8.91
7.52
4.94
1.71
-1.66
-4.74
-7.32
-9.28
-10.64
-11.49
-11.98
-12.30
-12.63
-13.12
-13.87
-14.93
-16.38
-18.27
-20.60
-23.34
-26.39
-29.69
-33.16
-36.68
-39.93
-42.34
-43.16
-41.67
-37.52
-30.87
-22.42
-13.19
-4.19
3.82
10.48
15.73
19.73
22.63
24.43
25.07
24.43
22.53
19.67
16.44
13.50
11.39
10.34
10.16
10.39
10.54
10.28
9.55
8.50
7.36
6.24
5.15
3.91
2.34
0.29
-2.31
-5.52
-9.30
-13.53
-17.91
-21.89
-24.76
-25.71
-24.16
-19.95
-13.43
-5.45
2.99
10.92
17.68
22.89
26.45
28.34
28.64
27.47
25.06
21.76
17.99
14.16
10.57
7.39
4.72
2.57
0.95
-0.20
-0.97
-1.56
-2.22
-3.17
-4.59
-6.52
-8.85
-11.35
-13.82
-16.11
-18.26
-20.47
-23.06
-26.34
-30.37
-34.86
-39.10
-42.10
-42.87
-40.74
-35.60
-27.94
-18.68
-8.92
0.35
8.41
14.95
19.92
23.54
26.09
27.88
29.27
30.53
31.88
33.42
35.08
36.66
37.92
38.61
38.64
38.06
37.02
35.67
34.04
32.03
29.42
25.88
21.07
14.65
6.40
-3.75
-15.52
-28.29
-41.15
-53.04
-62.89
-69.87
-73.47
-73.57
-70.41
-64.50
-56.42
-46.59
-35.15
-21.96
-6.81
10.32
29.01
48.37
67.15
83.92
97.39
106.55
110.93
110.72
106.80
100.53
93.43
86.67
80.77
75.68
70.98
66.20
60.97
55.07
48.35
40.73
32.45
24.18
16.94
11.77
9.20
8.87
9.55
9.61
7.54
2.54
-5.36
-15.48
-26.75
-38.04
-48.42
-57.27
-64.26
-69.45
-73.14
-75.80
-77.90
-79.68
-81.06
-81.51
-80.15
-75.96
-68.13
-56.39
-41.15
-23.56
-5.18
12.33
27.59
39.72
48.29
53.13
54.18
51.44
45.02
35.46
23.80
11.64
0.80
-7.14
-11.31
-11.71
-9.15
-4.80
0.23
5.18
9.58
13.13
15.48
16.29
15.35
12.77
9.04
4.93
1.24
-1.45
-2.85
-3.02
-2.18
-0.70
0.92
2.11
2.20
0.58
-3.11
-8.75
-15.69
-22.78
-28.69
-32.19
-32.54
-29.59
-23.85
-16.24
-7.81
0.43
7.72
13.47
17.24
18.74
17.81
14.61
9.62
3.62
-2.47
-7.87
-12.12
-15.15
-17.19
-18.58
-19.58
-20.22
-20.34
-19.76
-18.37
-16.32
-13.95
-11.78
-10.35
-10.05
-10.94
-12.78
-15.10
-17.38
-19.27
-20.73
-21.95
-23.24
-24.87
-26.99
-29.61
-32.67
-36.05
-39.43
-42.25
-43.65
-42.75
-38.92
-32.12
-22.98
-12.63
-2.33
6.90
14.48
20.24
24.28
26.71
27.60
27.03
25.12
22.16
18.60
14.97
11.76
9.33
7.79
7.04
6.81
6.81
6.81
6.75
6.64
6.57
6.59
6.64
6.53
6.04
4.94
3.14
0.65
-2.36
-5.68
-9.08
-12.42
-15.58
-18.54
-21.31
-23.94
-26.63
-29.64
-33.32
-37.90
-43.20
-48.51
-52.59
-54.07
-51.84
-45.58
-35.86
-23.98
-11.53
0.10
10.03
17.91
23.75
27.70
29.89
30.45
29.56
27.56
24.92
22.14
19.65
17.66
16.18
15.11
14.37
14.01
14.16
14.93
16.26
17.89
19.34
20.12
19.91
18.66
16.56
13.90
10.91
7.70
4.26
0.59
-3.24
-7.08
-10.75
-14.08
-16.98
-19.46
-21.68
-23.89
-26.42
-29.60
-33.67
-38.67
-44.23
-49.54
-53.40
-54.57
-52.05
-45.51
-35.48
-23.14
-10.04
2.39
13.16
21.87
28.47
33.10
35.90
36.91
36.25
34.20
31.16
27.64
24.10
20.88
18.15
16.04
14.58
13.84
13.87
14.62
15.93
17.50
18.87
19.56
19.22
17.71
15.25
12.29
9.34
6.76
4.61
2.66
0.50
-2.16
-5.45
-9.25
-13.31
-17.34
-21.12
-24.52
-27.54
-30.34
-33.25
-36.71
-41.08
-46.34
-51.91
-56.63
-59.01
-57.72
-52.06
-42.27
-29.44
-15.20
-1.18
11.36
21.72
29.69
35.33
38.75
40.02
39.28
36.81
33.11
28.84
24.67
21.11
18.41
16.66
15.81
15.77
16.41
17.57
19.01
20.51
21.90
23.07
23.93
24.39
24.30
23.51
21.95
19.66
16.80
13.62
10.34
7.12
4.04
1.15
-1.55
-4.20
-7.03
-10.38
-14.56
-19.82
-26.30
-34.02
-42.90
-52.68
-62.74
-71.99
-79.01
-82.30
-80.71
-73.98
-62.74
-48.49
-33.14
-18.51
-5.96
3.76
10.47
14.37
15.85
15.35
13.34
10.35
6.93
3.73
1.38
0.44
1.29
3.99
8.33
13.89
20.14
26.59
32.79
38.45
43.33
47.24
49.99
51.40
51.35
49.82
46.89
42.65
37.17
30.47
22.57
13.56
3.75
-6.32
-16.02
-24.72
-32.01
-37.78
-42.27
-45.94
-49.39
-53.07
-57.09
-61.01
-63.85
-64.40
-61.62
-55.19
-45.61
-34.12
-22.25
-11.31
-2.04
5.44
11.35
15.98
19.40
21.56
22.38
22.01
20.92
19.75
19.13
19.46
20.82
23.07
25.97
29.35
33.15
37.38
41.95
46.65
51.18
55.23
58.65
61.48
63.92
66.23
68.62
71.10
73.47
75.36
76.30
75.88
73.85
70.18
65.02
58.61
51.16
42.82
33.74
24.18
14.65
5.88
-1.28
-6.14
-8.35
-8.01
-5.67
-2.05
2.01
5.77
8.59
10.00
9.69
7.61
3.96
-0.90
-6.50
-12.41
-18.20
-23.43
-27.65
-30.37
-31.26
-30.25
-27.63
-23.97
-19.94
-16.07
-12.69
-9.90
-7.66
-5.98
-4.86
-4.35
-4.37
-4.69
-5.00
-4.98
-4.51
-3.73
-2.98
-2.59
-2.70
-3.04
-3.04
-1.95
0.82
5.48
11.74
18.92
26.19
32.80
38.28
42.42
45.20
46.60
46.55
44.98
41.87
37.45
32.19
26.64
21.31
16.45
12.07
8.01
4.08
0.17
-3.67
-7.33
-10.71
-13.78
-16.55
-19.06
-21.35
-23.42
-25.30
-27.07
-28.94
-31.12
-33.85
-37.22
-41.08
-44.99
-48.27
-50.09
-49.79
-47.01
-41.95
-35.24
-27.78
-20.44
-13.88
-8.51
-4.49
-1.95
-0.94
-1.48
-3.38
-6.21
-9.41
-12.43
-14.97
-17.05
-18.87
-20.71
-22.65
-24.57
-26.17
-27.20
-27.55
-27.38
-27.05
-27.00
-27.59
-29.02
-31.29
-34.25
-37.63
-40.99
-43.73
-45.13
-44.49
-41.28
-35.45
-27.42
-18.06
-8.38
0.71
8.57
14.86
19.41
22.07
22.77
21.53
18.60
14.49
9.84
5.27
1.18
-2.27
-5.18
-7.74
-10.08
-12.19
-13.96
-15.23
-16.00
-16.52
-17.25
-18.79
-21.61
-25.89
-31.34
-37.19
-42.33
-45.54
-45.83
-42.64
-36.07
-26.81
-15.94
-4.66
6.02
15.40
23.11
29.03
33.12
35.39
35.83
34.59
31.92
28.22
23.96
19.67
15.80
12.65
10.31
8.63
7.28
5.90
4.23
2.13
-0.30
-2.90
-5.55
-8.24
-11.13
-14.52
-18.73
-23.96
-30.17
-36.97
-43.53
-48.71
-51.27
-50.16
-44.89
-35.68
-23.47
-9.60
4.47
17.54
28.75
37.66
44.13
48.24
50.25
50.51
49.44
47.45
44.86
41.92
38.83
35.75
32.89
30.50
28.75
27.72
27.29
27.19
27.06
26.56
25.47
23.69
21.24
18.19
14.58
10.45
5.79
0.68
-4.74
-10.27
-15.69
-20.84
-25.64
-30.13
-34.46
-38.89
-43.73
-49.32
-55.76
-62.80
-69.59
-74.80
-76.87
-74.52
-67.16
-55.15
-39.71
-22.54
-5.36
10.53
24.36
35.86
45.01
51.89
56.60
59.24
60.00
59.24
57.45
55.20
52.99
51.14
49.77
48.84
48.24
47.86
47.69
47.74
48.02
48.39
48.66
48.56
47.91
46.61
44.74
42.51
40.16
37.90
35.81
33.86
31.84
29.53
26.82
23.75
20.53
17.44
14.70
12.34
10.27
8.28
6.20
3.89
1.33
-1.44
-4.35
-7.29
-10.17
-12.93
-15.59
-18.24
-21.01
-24.04
-27.36
-30.92
-34.60
-38.24
-41.76
-45.13
-48.43
-51.90
-55.88
-60.77
-66.83
-73.85
-80.94
-86.56
-88.87
-86.30
-78.15
-64.93
-48.16
-29.90
-12.07
3.99
17.64
28.79
37.48
43.79
47.77
49.61
49.73
48.74
47.29
45.84
44.62
43.61
42.69
41.80
41.03
40.51
40.42
40.84
41.70
42.79
43.76
44.24
43.92
42.68
40.59
37.93
35.06
32.28
29.75
27.49
25.37
23.28
21.09
18.81
16.47
14.17
11.97
9.91
7.91
5.87
3.68
1.25
-1.39
-4.18
-6.98
-9.65
-12.15
-14.49
-16.82
-19.29
-22.04
-25.07
-28.25
-31.35
-34.16
-36.60
-38.81
-41.15
-44.04
-47.86
-52.67
-58.11
-63.33
-67.10
-68.11
-65.32
-58.36
-47.64
-34.32
-19.91
-5.87
6.67
17.09
25.12
30.77
34.19
35.68
35.64
34.59
33.10
31.58
30.31
29.31
28.49
27.78
27.19
26.82
26.78
27.16
27.89
28.83
29.70
30.24
30.20
29.46
28.04
26.09
23.88
21.68
19.71
18.05
16.61
15.20
13.62
11.80
9.80
7.78
5.90
4.22
2.70
1.17
-0.52
-2.45
-4.59
-6.79
-8.84
-10.63
-12.16
-13.63
-15.32
-17.49
-20.19
-23.25
-26.28
-28.86
-30.78
-32.12
-33.19
-34.49
-36.47
-39.37
-43.20
-47.55
-51.63
-54.40
-54.75
-51.86
-45.48
-36.09
-24.77
-12.96
-1.95
7.34
14.51
19.59
22.86
24.66
25.27
24.95
23.96
22.56
21.05
19.69
18.65
17.98
17.65
17.59
17.77
18.16
18.77
19.56
20.38
21.05
21.37
21.21
20.55
19.47
18.14
16.70
15.25
13.81
12.36
10.81
9.11
7.24
5.24
3.17
1.15
-0.74
-2.46
-4.03
-5.50
-6.92
-8.32
-9.65
-10.87
-11.93
-12.86
-13.74
-14.73
-16.04
-17.79
-20.01
-22.56
-25.14
-27.45
-29.30
-30.74
-32.04
-33.61
-35.81
-38.78
-42.28
-45.70
-48.21
-48.94
-47.21
-42.69
-35.61
-26.62
-16.73
-7.03
1.60
8.63
13.86
17.41
19.47
20.20
19.78
18.42
16.43
14.25
12.26
10.76
9.81
9.30
9.10
9.09
9.29
9.74
10.47
11.38
12.28
12.91
13.07
12.66
11.67
10.21
8.41
6.42
4.38
2.35
0.34
-1.68
-3.80
-6.03
-8.39
-10.81
-13.20
-15.48
-17.59
-19.55
-21.41
-23.22
-25.04
-26.92
-28.99
-31.41
-34.34
-37.72
-41.14
-43.78
-44.62
-42.74
-37.78
-30.05
-20.53
-10.49
-1.07
6.95
13.26
17.84
20.86
22.47
22.88
22.30
20.99
19.23
17.30
15.45
13.81
12.50
11.53
10.89
10.58
10.59
10.93
11.55
12.29
12.86
12.93
12.27
10.82
8.80
6.58
4.56
2.93
1.63
0.33
-1.40
-3.88
-7.16
-11.00
-14.98
-18.68
-21.82
-24.37
-26.50
-28.54
-30.86
-33.80
-37.54
-41.95
-46.44
-50.10
-51.77
-50.51
-45.86
-38.03
-27.89
-16.66
-5.57
4.45
12.80
19.28
23.88
26.71
27.95
27.83
26.62
24.66
22.34
20.04
18.16
16.97
16.58
16.91
17.72
18.74
19.75
20.65
21.44
22.14
22.73
23.09
23.03
22.41
21.19
19.38
17.08
14.43
11.56
8.65
5.83
3.16
0.62
-1.94
-4.68
-7.71
-11.02
-14.49
-18.00
-21.45
-24.81
-28.07
-31.17
-34.12
-37.04
-40.23
-44.06
-48.72
-53.93
-58.79
-61.89
-61.79
-57.53
-49.01
-37.12
-23.38
-9.45
3.33
14.15
22.74
29.09
33.31
35.53
35.94
34.91
33.02
30.90
29.07
27.81
27.14
26.89
26.92
27.22
27.87
28.95
30.45
32.17
33.80
35.00
35.48
35.10
33.89
32.01
29.68
27.09
24.39
21.60
18.72
15.73
12.65
9.53
6.40
3.23
-0.04
-3.45
-6.99
-10.52
-13.94
-17.15
-20.15
-23.03
-25.89
-28.84
-31.98
-35.51
-39.61
-44.44
-49.83
-55.17
-59.37
-61.06
-59.07
-52.83
-42.68
-29.74
-15.63
-1.95
10.14
20.09
27.82
33.52
37.37
39.45
39.78
38.43
35.72
32.22
28.66
25.72
23.82
23.05
23.18
23.91
24.98
26.28
27.78
29.41
30.90
31.86
31.93
30.94
29.06
26.74
24.46
22.52
20.90
19.31
17.37
14.83
11.69
8.23
4.82
1.76
-0.91
-3.35
-5.85
-8.64
-11.81
-15.25
-18.78
-22.23
-25.49
-28.56
-31.52
-34.49
-37.66
-41.29
-45.52
-50.26
-54.99
-58.75
-60.28
-58.41
-52.48
-42.64
-29.84
-15.55
-1.34
11.53
22.31
30.73
36.80
40.62
42.31
42.06
40.17
37.19
33.84
30.83
28.67
27.52
27.19
27.33
27.63
27.99
28.49
29.29
30.50
31.99
33.40
34.30
34.33
33.35
31.48
29.03
26.35
23.71
21.26
19.01
16.85
14.58
12.04
9.10
5.77
2.23
-1.24
-4.35
-6.96
-9.17
-11.30
-13.71
-16.63
-20.03
-23.61
-27.01
-29.95
-32.38
-34.50
-36.68
-39.32
-42.78
-47.24
-52.62
-58.38
-63.53
-66.73
-66.63
-62.26
-53.47
-41.00
-26.31
-11.20
2.78
14.57
23.80
30.53
35.02
37.54
38.26
37.41
35.34
32.61
29.86
27.61
26.12
25.34
25.03
25.05
25.40
26.27
27.75
29.77
31.95
33.76
34.72
34.61
33.53
31.78
29.71
27.58
25.49
23.45
21.38
19.16
16.69
13.87
10.71
7.28
3.83
0.63
-2.10
-4.28
-6.13
-8.01
-10.36
-13.49
-17.41
-21.81
-26.14
-29.85
-32.62
-34.43
-35.67
-36.95
-38.92
-42.12
-46.71
-52.42
-58.45
-63.53
-66.18
-65.07
-59.46
-49.53
-36.35
-21.59
-7.06
5.82
16.25
24.07
29.51
32.91
34.56
34.66
33.45
31.28
28.63
26.03
23.89
22.44
21.69
21.53
21.85
22.57
23.65
25.06
26.67
28.28
29.60
30.33
30.29
29.44
27.88
25.84
23.56
21.23
18.86
16.39
13.66
10.64
7.40
4.17
1.20
-1.37
-3.60
-5.68
-7.90
-10.48
-13.49
-16.86
-20.41
-23.93
-27.20
-30.10
-32.57
-34.73
-36.86
-39.39
-42.76
-47.25
-52.65
-58.22
-62.68
-64.58
-62.75
-56.70
-46.86
-34.40
-20.89
-7.77
3.93
13.71
21.45
27.22
31.11
33.15
33.39
32.05
29.56
26.53
23.64
21.42
20.14
19.80
20.21
21.15
22.47
24.09
25.95
27.87
29.59
30.72
30.98
30.27
28.76
26.78
24.71
22.77
21.01
19.29
17.37
15.10
12.43
9.47
6.43
3.47
0.67
-2.00
-4.68
-7.47
-10.43
-13.51
-16.60
-19.56
-22.30
-24.81
-27.17
-29.51
-31.98
-34.79
-38.14
-42.19
-46.86
-51.64
-55.55
-57.27
-55.56
-49.72
-40.00
-27.54
-14.04
-1.17
9.93
18.79
25.47
30.21
33.21
34.48
34.05
32.11
29.13
25.75
22.61
20.12
18.43
17.45
17.02
17.10
17.73
18.95
20.70
22.66
24.40
25.47
25.63
24.90
23.48
21.66
19.59
17.37
14.98
12.47
9.93
7.47
5.13
2.83
0.36
-2.49
-5.85
-9.68
-13.78
-17.85
-21.58
-24.79
-27.42
-29.65
-31.84
-34.46
-37.93
-42.40
-47.56
-52.59
-56.26
-57.27
-54.67
-48.16
-38.25
-26.09
-13.12
-0.71
10.10
18.75
25.05
29.09
31.08
31.32
30.13
27.90
25.06
22.06
19.35
17.25
15.89
15.27
15.21
15.54
16.08
16.75
17.49
18.22
18.84
19.15
19.01
18.28
16.91
14.96
12.55
9.88
7.13
4.47
1.93
-0.61
-3.40
-6.68
-10.48
-14.60
-18.54
-21.78
-23.97
-25.17
-25.81
-26.57
-28.09
-30.78
-34.66
-39.41
-44.39
-48.73
-51.40
-51.36
-47.80
-40.47
-29.80
-16.95
-3.49
9.03
19.44
27.21
32.39
35.39
36.69
36.68
35.56
33.46
30.57
27.22
23.85
20.98
18.98
17.99
17.94
18.60
19.73
21.15
22.70
24.17
25.30
25.78
25.38
24.06
21.94
19.29
16.35
13.28
10.10
6.73
3.13
-0.70
-4.68
-8.68
-12.55
-16.17
-19.48
-22.48
-25.32
-28.26
-31.63
-35.62
-40.08
-44.42
-47.59
-48.43
-45.99
-39.98
-30.84
-19.70
-7.97
3.04
12.44
19.78
25.03
28.32
29.82
29.71
28.18
25.51
22.12
18.57
15.45
13.22
12.04
11.81
12.17
12.74
13.28
13.80
14.41
15.19
16.05
16.66
16.60
15.52
13.35
10.33
7.00
3.88
1.31
-0.71
-2.53
-4.64
-7.40
-10.95
-15.05
-19.28
-23.21
-26.57
-29.38
-31.90
-34.57
-37.81
-41.88
-46.74
-51.96
-56.63
-59.58
-59.58
-55.77
-47.97
-36.75
-23.39
-9.48
3.42
14.21
22.33
27.79
30.94
32.26
32.22
31.17
29.41
27.22
24.97
23.03
21.74
21.31
21.68
22.65
23.88
25.08
26.11
26.93
27.59
28.12
28.46
28.46
27.95
26.77
24.83
22.15
18.89
15.31
11.72
8.41
5.54
3.07
0.75
-1.79
-4.86
-8.57
-12.72
-16.89
-20.62
-23.66
-26.07
-28.21
-30.57
-33.59
-37.52
-42.35
-47.79
-53.26
-57.89
-60.53
-60.04
-55.62
-47.13
-35.31
-21.61
-7.76
4.74
14.97
22.65
27.93
31.12
32.51
32.35
30.96
28.80
26.44
24.44
23.17
22.71
22.92
23.54
24.37
25.28
26.30
27.45
28.73
30.01
31.08
31.66
31.51
30.49
28.63
26.14
23.35
20.58
18.04
15.80
13.72
11.60
9.21
6.45
3.39
0.27
-2.64
-5.13
-7.15
-8.91
-10.75
-12.97
-15.71
-18.86
-22.13
-25.20
-27.91
-30.33
-32.75
-35.54
-39.04
-43.42
-48.56
-53.91
-58.56
-61.31
-60.99
-56.80
-48.68
-37.34
-24.14
-10.67
1.65
11.90
19.76
25.34
28.96
30.93
31.46
30.71
28.91
26.47
23.89
21.71
20.29
19.74
19.96
20.74
21.89
23.30
24.87
26.49
27.93
28.92
29.24
28.79
27.62
25.92
23.84
21.51
19.02
16.44
13.82
11.20
8.57
5.88
3.05
0.09
-2.95
-5.98
-8.90
-11.75
-14.61
-17.61
-20.74
-23.88
-26.76
-29.21
-31.29
-33.34
-35.92
-39.53
-44.33
-49.90
-55.24
-58.95
-59.65
-56.45
-49.19
-38.60
-26.00
-12.96
-0.82
9.53
17.75
23.85
28.00
30.35
31.04
30.30
28.50
26.17
23.87
22.03
20.87
20.38
20.46
21.01
22.00
23.48
25.43
27.71
29.95
31.70
32.51
32.16
30.72
28.52
25.95
23.34
20.85
18.48
16.14
13.72
11.15
8.39
5.48
2.49
-0.41
-3.09
-5.46
-7.62
-9.82
-12.35
-15.43
-19.02
-22.85
-26.51
-29.64
-32.11
-34.07
-36.01
-38.50
-42.07
-46.93
-52.75
-58.64
-63.29
-65.26
-63.44
-57.35
-47.33
-34.47
-20.28
-6.32
6.13
16.26
23.75
28.72
31.55
32.82
33.08
32.79
32.23
31.52
30.66
29.70
28.75
28.01
27.68
27.90
28.66
29.84
31.22
32.60
33.76
34.55
34.82
34.42
33.27
31.40
28.96
26.23
23.50
21.04
18.95
17.15
15.40
13.41
10.92
7.89
4.49
1.07
-1.98
-4.45
-6.31
-7.81
-9.26
-10.97
-13.10
-15.59
-18.28
-20.97
-23.52
-25.96
-28.41
-31.11
-34.30
-38.19
-42.90
-48.32
-54.00
-59.15
-62.65
-63.27
-60.08
-52.71
-41.64
-28.08
-13.69
-0.09
11.51
20.50
26.85
30.89
33.10
33.88
33.59
32.51
30.94
29.19
27.59
26.43
25.91
26.07
26.84
28.01
29.35
30.68
31.89
32.91
33.67
34.06
33.96
33.34
32.23
30.75
28.98
26.92
24.53
21.78
18.77
15.74
12.97
10.66
8.73
6.89
4.78
2.17
-0.89
-4.09
-7.05
-9.46
-11.28
-12.68
-14.02
-15.63
-17.73
-20.37
-23.45
-26.74
-30.01
-33.07
-35.85
-38.38
-40.86
-43.60
-46.94
-51.14
-56.08
-61.09
-65.02
-66.41
-64.05
-57.44
-47.03
-34.11
-20.39
-7.44
3.72
12.70
19.54
24.46
27.66
29.30
29.50
28.56
26.85
24.84
22.95
21.53
20.76
20.67
21.18
22.13
23.34
24.64
25.92
27.09
28.06
28.70
28.86
28.42
27.33
25.68
23.71
21.70
19.90
18.40
17.12
15.83
14.30
12.40
10.14
7.71
5.36
3.35
1.83
0.86
0.32
0.03
-0.23
-0.69
-1.51
-2.74
-4.20
-5.42
-5.64
-3.97
0.29
7.43
17.10
28.48
40.53
52.32
63.22
72.94
81.28
87.99
92.63
94.69
93.74
89.57
82.28
72.33
60.38
47.29
33.89
20.90
8.81
-2.23
-12.22
-21.31
-29.60
-37.16
-43.99
-50.08
-55.34
-59.64
-62.76
-64.48
-64.73
-63.60
-61.45
-58.75
-56.00
-53.61
-51.85
-50.80
-50.40
-50.43
-50.56
-50.44
-49.77
-48.49
-46.84
-45.34
-44.71
-45.51
-47.92
-51.46
-55.03
-57.16
-56.50
-52.28
-44.57
-34.26
-22.63
-10.98
-0.25
8.97
16.40
21.84
25.11
26.20
25.37
23.18
20.41
17.77
15.75
14.46
13.78
13.52
13.60
14.11
15.20
16.95
19.20
21.54
23.42
24.32
23.95
22.33
19.77
16.68
13.44
10.24
7.07
3.84
0.45
-3.06
-6.55
-9.90
-13.02
-15.98
-18.95
-22.08
-25.51
-29.34
-33.65
-38.56
-44.12
-50.10
-55.87
-60.39
-62.48
-61.21
-56.40
-48.72
-39.50
-30.26
-22.15
-15.71
-10.83
-7.19
-4.49
-2.69
-1.91
-2.19
-3.28
-4.68
-5.77
-6.03
-5.27
-3.61
-1.42
0.93
3.20
5.30
7.27
9.13
10.80
12.05
12.66
12.44
11.41
9.78
7.85
5.91
4.02
2.03
-0.30
-3.18
-6.59
-10.21
-13.60
-16.35
-18.35
-19.79
-21.17
-23.06
-25.92
-29.96
-35.07
-40.77
-46.25
-50.43
-52.15
-50.43
-44.86
-35.76
-24.19
-11.66
0.33
10.69
18.85
24.76
28.56
30.46
30.62
29.25
26.69
23.47
20.21
17.41
15.43
14.36
14.15
14.65
15.69
17.07
18.54
19.86
20.78
21.20
21.10
20.52
19.47
17.93
15.83
13.12
9.90
6.27
2.43
-1.48
-5.31
-8.98
-12.49
-15.93
-19.58
-23.76
-28.74
-34.50
-40.60
-46.15
-49.94
-50.85
-48.17
-41.87
-32.68
-21.77
-10.49
0.10
9.36
17.08
23.27
27.92
30.90
32.03
31.26
28.89
25.53
21.95
18.82
16.51
15.04
14.20
13.73
13.52
13.58
14.07
15.05
16.40
17.78
18.64
18.45
16.89
13.97
10.05
5.64
1.30
-2.67
-6.19
-9.43
-12.72
-16.43
-20.90
-26.37
-32.83
-39.87
-46.58
-51.65
-53.69
-51.62
-45.17
-34.99
-22.45
-9.24
3.18
13.89
22.56
29.24
34.11
37.27
38.74
38.58
36.99
34.41
31.36
28.39
25.89
24.13
23.19
23.04
23.53
24.41
25.38
26.13
26.44
26.24
25.58
24.60
23.34
21.76
19.62
16.67
12.74
7.90
2.49
-3.02
-8.18
-12.74
-16.75
-20.56
-24.67
-29.56
-35.52
-42.39
-49.56
-55.92
-60.12
-60.83
-57.19
-49.12
-37.34
-23.27
-8.58
5.22
17.07
26.51
33.56
38.48
41.57
43.06
43.14
41.99
39.93
37.42
35.01
33.21
32.36
32.52
33.48
34.92
36.47
37.92
39.18
40.24
41.07
41.56
41.49
40.61
38.76
35.96
32.39
28.39
24.34
20.55
17.18
14.21
11.45
8.64
5.52
1.99
-1.90
-5.94
-9.85
-13.39
-16.50
-19.19
-21.66
-24.15
-27.00
-30.54
-34.97
-40.06
-45.02
-48.42
-48.53
-43.89
-33.90
-19.17
-1.40
17.13
34.26
48.48
59.16
66.30
70.25
71.38
70.00
66.34
60.77
53.74
45.87
37.74
29.80
22.33
15.46
9.29
3.91
-0.44
-3.52
-5.15
-5.41
-4.66
-3.50
-2.56
-2.27
-2.70
-3.60
-4.55
-5.20
-5.41
-5.27
-4.99
-4.80
-4.84
-5.09
-5.49
-5.93
-6.34
-6.69
-6.98
-7.29
-7.69
-8.28
-9.14
-10.28
-11.63
-13.05
-14.42
-15.70
-16.99
-18.54
-20.62
-23.38
-26.70
-30.27
-33.62
-36.44
-38.69
-40.71
-43.13
-46.64
-51.69
-58.20
-65.39
-71.83
-75.72
-75.37
-69.73
-58.81
-43.69
-26.22
-8.46
7.79
21.38
31.79
39.01
43.34
45.24
45.28
44.05
42.13
40.00
38.02
36.39
35.27
34.75
34.93
35.79
37.24
39.06
40.99
42.76
44.19
45.14
45.50
45.20
44.17
42.40
39.97
37.06
33.92
30.82
27.94
25.28
22.73
20.10
17.22
14.03
10.61
7.15
3.88
0.97
-1.56
-3.80
-5.95
-8.21
-10.72
-13.51
-16.51
-19.60
-22.67
-25.66
-28.55
-31.38
-34.23
-37.20
-40.51
-44.42
-49.18
-54.81
-60.89
-66.43
-70.01
-70.20
-66.00
-57.27
-44.88
-30.39
-15.59
-2.00
9.44
18.40
24.94
29.27
31.59
32.10
31.06
28.88
26.08
23.21
20.71
18.85
17.75
17.46
17.94
19.15
21.00
23.29
25.72
27.89
29.41
29.99
29.55
28.22
26.29
24.09
21.87
19.69
17.44
14.97
12.15
8.96
5.55
2.12
-1.10
-4.00
-6.55
-8.90
-11.21
-13.66
-16.37
-19.29
-22.27
-25.10
-27.61
-29.89
-32.23
-35.09
-38.89
-43.73
-49.16
-54.13
-57.19
-56.98
-52.65
-44.21
-32.57
-19.20
-5.70
6.63
17.02
25.18
31.09
34.89
36.69
36.64
34.95
32.01
28.33
24.54
21.23
18.87
17.67
17.57
18.30
19.48
20.80
22.05
23.17
24.11
24.76
24.96
24.54
23.42
21.65
19.45
17.05
14.62
12.19
9.69
7.06
4.31
1.56
-1.05
-3.49
-5.87
-8.43
-11.34
-14.69
-18.30
-21.97
-25.48
-28.80
-31.99
-35.21
-38.58
-42.22
-46.28
-50.86
-55.87
-60.79
-64.64
-66.10
-63.99
-57.71
-47.54
-34.64
-20.62
-7.10
4.71
14.17
21.14
25.74
28.23
28.91
28.07
26.05
23.30
20.28
17.51
15.44
14.37
14.38
15.30
16.79
18.51
20.20
21.73
23.08
24.21
25.04
25.41
25.10
24.02
22.20
19.86
17.26
14.66
12.21
9.90
7.61
5.21
2.59
-0.32
-3.53
-7.00
-10.62
-14.21
-17.56
-20.48
-22.92
-24.97
-26.92
-29.10
-31.86
-35.41
-39.72
-44.44
-48.82
-51.75
-52.05
-48.83
-41.84
-31.65
-19.55
-7.07
4.41
14.10
21.72
27.35
31.12
33.07
33.19
31.58
28.63
24.94
21.22
18.08
15.82
14.49
13.89
13.81
14.10
14.73
15.77
17.25
19.03
20.72
21.81
21.80
20.47
17.98
14.83
11.66
8.97
6.89
5.20
3.44
1.17
-1.81
-5.45
-9.50
-13.63
