1552066703.00
64.000000
-0.00
-0.00
-0.00
-0.00
-0.00
-0.00
-0.00
-0.00
-0.00
-0.00
0.00
0.01
0.01
-0.00
-0.03
-0.05
-0.05
0.00
0.13
0.36
0.66
1.01
1.37
1.72
2.06
2.40
2.79
3.24
3.80
4.42
5.06
5.66
6.20
6.68
7.15
7.68
8.31
9.14
10.09
11.04
11.88
12.56
13.14
13.76
14.65
15.96
17.91
20.32
22.90
25.38
27.58
29.57
31.68
34.32
37.81
42.54
48.15
54.10
59.83
64.97
69.58
74.14
79.34
85.71
93.76
103.00
112.62
121.73
129.77
136.75
143.30
150.75
157.77
166.64
177.95
191.79
206.97
220.57
228.25
225.36
208.53
176.87
132.76
80.05
23.07
-34.94
-92.44
-149.16
-205.23
-260.37
-313.74
-363.87
-409.83
-450.91
-486.50
-515.74
-537.23
-549.22
-549.96
-538.37
-514.21
-478.67
-433.88
-382.45
-327.02
-269.84
-212.63
-156.66
-102.95
-52.37
-5.90
35.58
71.43
101.35
125.50
144.38
158.69
169.15
176.37
180.75
182.57
182.07
179.51
175.23
169.65
163.18
156.15
148.81
141.30
133.69
126.02
118.33
110.69
103.16
95.80
88.68
81.83
75.25
68.95
62.95
57.25
51.86
46.78
42.03
37.59
33.45
29.61
26.07
22.81
19.83
17.11
14.67
12.48
10.54
8.83
7.35
6.07
4.97
4.05
3.27
2.62
2.09
1.65
1.30
1.01
0.79
0.61
0.48
0.37
0.29
0.24
0.20
0.18
0.17
0.17
0.18
0.20
0.23
0.26
0.30
0.34
0.39
0.43
0.48
0.53
0.58
0.63
0.68
0.74
0.80
0.87
0.94
1.03
1.11
1.22
1.33
1.45
1.59
1.75
1.93
2.12
2.34
2.58
2.85
3.14
3.46
3.82
4.21
4.64
5.10
5.60
6.13
6.71
7.33
8.00
8.70
9.45
10.25
11.10
11.99
12.92
13.90
14.95
16.06
17.22
18.45
19.73
21.02
22.29
23.46
24.43
25.08
25.29
24.95
23.93
22.18
19.68
16.47
12.61
8.27
3.63
-1.09
-5.65
-9.85
-13.50
-16.45
-18.63
-20.01
-20.60
-20.50
-19.82
-18.66
-17.16
-15.43
-13.59
-11.70
-9.83
-7.95
-6.10
-4.24
-2.35
-0.40
1.64
3.72
5.84
7.97
10.17
12.34
14.51
16.71
18.98
21.33
23.74
26.19
28.69
31.37
34.11
36.94
39.96
43.24
46.77
50.43
54.10
57.73
61.50
65.22
69.07
73.24
77.86
82.83
87.77
92.26
95.97
98.92
100.84
101.92
102.46
102.51
101.58
98.55
91.73
78.86
62.49
43.66
23.50
3.15
-16.60
-35.59
-54.16
-73.00
-92.90
-114.52
-138.85
-165.95
-194.66
-222.42
-245.68
-260.85
-265.63
-259.96
-246.10
-228.37
-210.75
-195.60
-183.01
-171.32
-158.27
-142.26
-122.89
-100.83
-77.55
-54.25
-31.74
-10.55
8.72
25.31
38.27
46.90
51.18
51.72
49.84
47.17
45.12
44.43
45.17
46.78
48.46
49.55
49.66
48.90
47.63
46.26
44.94
43.50
41.46
38.38
33.94
28.06
20.77
12.16
2.41
-8.08
-18.39
-27.16
-32.81
-34.06
-30.45
-22.50
-11.48
1.04
13.74
25.75
36.54
45.69
52.73
57.12
58.53
57.02
53.17
47.94
42.41
37.47
33.60
30.82
28.81
27.06
25.12
22.67
19.63
16.03
12.01
7.63
2.89
-2.30
-8.02
-14.39
-21.47
-29.23
-37.51
-45.89
-53.57
-59.47
-62.43
-61.55
-56.50
-47.62
-35.83
-22.32
-8.24
5.46
18.04
28.91
37.48
43.32
46.20
46.35
44.42
41.36
38.21
35.72
34.20
33.48
33.07
32.39
31.07
29.07
26.68
24.34
22.47
21.24
20.47
19.59
17.74
13.98
7.62
-1.42
-12.38
-23.72
-33.47
-39.72
-41.19
-37.49
-29.19
-17.55
-4.17
9.31
21.48
31.23
37.84
40.98
40.75
37.71
32.75
27.02
21.63
17.39
14.60
13.00
11.92
10.52
8.23
4.87
0.62
-4.12
-9.03
-14.05
-19.33
-25.18
-31.86
-39.46
-47.82
-56.50
-64.76
-71.62
-76.00
-76.97
-73.92
-66.86
-56.37
-43.53
-29.59
-15.79
-3.08
7.86
16.62
23.04
27.12
29.05
29.27
28.41
27.21
26.33
26.14
26.66
27.50
28.09
27.90
26.66
24.45
21.56
18.32
14.95
11.40
7.43
2.74
-2.97
-9.75
-17.37
-25.13
-31.99
-36.68
-38.04
-35.45
-29.00
-19.60
-8.62
2.50
12.60
21.00
27.39
31.70
33.88
33.99
32.25
29.11
25.20
21.27
17.90
15.40
13.73
12.59
11.58
10.27
8.43
6.01
3.13
-0.03
-3.33
-6.77
-10.54
-14.93
-20.24
-26.62
-33.95
-41.73
-49.10
-54.92
-58.04
-57.62
-53.32
-45.46
-34.87
-22.68
-10.07
1.91
12.36
20.57
26.03
28.51
28.20
25.76
22.22
18.72
16.14
14.91
14.98
15.96
17.42
19.05
20.72
22.38
23.95
25.23
25.94
25.78
24.52
22.01
18.15
12.96
6.68
-0.14
-6.48
-11.04
-12.62
-10.44
-4.52
4.38
15.05
26.20
36.84
46.35
54.29
60.29
63.93
64.98
63.48
60.02
55.50
50.88
46.86
43.67
41.07
38.59
35.80
32.48
28.66
24.52
20.16
15.58
10.54
4.75
-2.03
-9.86
-18.66
-28.13
-37.85
-47.19
-55.32
-61.31
-64.30
-63.81
-59.95
-53.49
-45.60
-37.55
-30.37
-24.72
-20.95
-19.28
-19.92
-23.01
-28.46
-35.80
-44.19
-52.55
-59.92
-65.73
-69.97
-73.18
-76.19
-79.84
-84.60
-90.42
-96.60
-102.00
-105.28
-105.30
-101.39
-93.56
-82.55
-69.75
-56.86
-45.60
-37.10
-31.55
-28.08
-25.01
-20.51
-13.34
-3.24
9.01
22.13
34.78
46.11
55.60
62.96
67.78
69.62
68.30
64.19
58.35
52.15
46.87
43.16
40.88
39.33
37.67
35.39
32.42
29.10
25.89
23.05
20.54
18.02
15.03
11.16
6.11
-0.28
-7.97
-16.70
-25.79
-34.16
-40.47
-43.45
-42.34
-37.16
-28.70
-18.24
-7.16
3.50
13.07
21.15
27.39
31.39
32.79
31.50
27.94
22.95
17.63
13.02
9.75
7.89
7.03
6.55
5.79
4.39
2.28
-0.38
-3.27
-6.15
-8.92
-11.70
-14.79
-18.63
-23.54
-29.60
-36.45
-43.20
-48.65
-51.45
-50.67
-45.91
-37.57
-26.60
-14.24
-1.75
9.84
19.74
27.42
32.51
34.91
34.79
32.69
29.40
25.87
22.95
21.15
20.58
20.90
21.50
21.69
21.03
19.39
17.03
14.32
11.61
8.99
6.25
2.96
-1.37
-7.18
-14.58
-23.31
-32.59
-41.17
-47.60
-50.57
-49.25
-43.61
-34.34
-22.71
-10.14
2.10
13.06
22.11
28.85
33.04
34.62
33.80
31.10
27.32
23.35
19.98
17.63
16.31
15.61
15.05
14.21
12.97
11.42
9.73
7.94
5.92
3.37
-0.06
-4.61
-10.46
-17.63
-26.02
-35.18
-44.28
-52.02
-56.89
-57.57
-53.47
-44.88
-32.93
-19.20
-5.23
7.71
18.81
27.50
33.34
36.08
35.68
32.60
27.79
22.55
18.10
15.18
13.88
13.65
13.68
13.29
12.18
10.46
8.41
6.26
3.96
1.20
-2.46
-7.42
-13.95
-22.11
-31.57
-41.63
-51.05
-58.33
-61.92
-60.79
-54.72
-44.35
-31.02
-16.31
-1.67
11.74
23.04
31.54
36.71
38.32
36.66
32.60
27.46
22.58
18.91
16.74
15.74
15.20
14.51
13.39
11.88
10.20
8.50
6.71
4.53
1.57
-2.62
-8.46
-16.14
-25.60
-36.21
-46.77
-55.64
-61.12
-61.87
-57.42
-48.11
-35.05
-19.72
-3.59
11.95
25.79
36.95
44.73
48.76
49.19
46.71
42.36
37.36
32.73
29.12
26.72
25.29
24.41
23.55
22.37
20.66
18.48
15.94
13.13
9.92
5.98
0.81
-6.05
-14.82
-25.34
-36.84
-48.08
-57.39
-63.07
-63.74
-58.76
-48.42
-33.87
-16.90
0.64
17.07
31.26
42.50
50.49
55.13
56.54
55.10
51.46
46.53
41.37
36.89
33.67
31.76
30.78
29.99
28.75
26.65
23.71
20.21
16.50
12.73
8.68
3.86
-2.39
-10.54
-20.68
-32.35
-44.46
-55.42
-63.43
-66.88
-64.76
-56.93
-44.16
-27.95
-10.10
7.63
23.68
36.89
46.43
51.83
53.06
50.64
45.62
39.35
33.23
28.30
25.05
23.28
22.40
21.67
20.57
18.92
16.85
14.59
12.19
9.46
5.94
1.11
-5.45
-13.92
-24.12
-35.44
-46.78
-56.67
-63.41
-65.50
-62.06
-53.13
-39.72
-23.51
-6.38
10.02
24.42
36.00
44.23
48.84
49.96
48.06
44.10
39.33
34.97
31.91
30.49
30.48
31.23
32.00
32.20
31.54
30.02
27.84
25.16
22.00
18.14
13.16
6.55
-2.03
-12.51
-24.16
-35.60
-45.00
-50.59
-51.12
-46.25
-36.59
-23.46
-8.50
6.74
20.99
33.30
42.93
49.38
52.38
52.05
48.90
43.89
38.19
32.95
29.00
26.68
25.76
25.54
25.19
24.01
21.68
18.31
14.27
9.93
5.45
0.67
-4.84
-11.54
-19.77
-29.52
-40.32
-51.27
-61.05
-68.16
-71.17
-69.14
-61.81
-49.86
-34.60
-17.76
-1.00
14.33
27.31
37.36
44.19
47.73
48.15
46.03
42.26
37.95
34.11
31.38
29.87
29.21
28.83
28.21
27.02
25.24
22.95
20.28
17.26
13.79
9.72
4.85
-1.06
-8.26
-16.87
-26.69
-37.04
-46.69
-54.08
-57.74
-56.72
-50.89
-40.95
-28.24
-14.29
-0.48
12.10
22.71
30.77
35.85
37.71
36.47
32.70
27.45
22.00
17.48
14.57
13.33
13.26
13.60
13.66
13.07
11.80
10.08
8.14
6.04
3.57
0.32
-4.21
-10.36
-18.18
-27.21
-36.48
-44.61
-50.05
-51.52
-48.37
-40.70
-29.42
-15.94
-1.83
11.53
23.09
32.21
38.52
41.89
42.41
40.48
36.75
32.13
27.50
23.55
20.56
18.45
16.85
15.37
13.74
11.86
9.84
7.79
5.71
3.51
0.92
-2.41
-6.85
-12.70
-20.02
-28.38
-36.92
-44.35
-49.26
-50.55
-47.73
-41.04
-31.31
-19.71
-7.39
4.67
15.66
24.90
31.79
35.84
36.82
35.00
31.12
26.25
21.55
17.88
15.56
14.37
13.75
13.09
12.02
10.48
8.67
6.82
5.02
3.14
0.87
-2.23
-6.57
-12.47
-19.98
-28.76
-37.94
-46.16
-51.86
-53.69
-50.97
-43.91
-33.53
-21.25
-8.44
3.88
15.10
24.85
32.74
38.33
41.25
41.42
39.27
35.69
31.74
28.34
25.96
24.51
23.57
22.56
21.09
19.05
16.55
13.81
10.98
8.02
4.74
0.90
-3.73
-9.25
-15.66
-22.79
-30.30
-37.58
-43.84
-48.13
-49.59
-47.74
-42.53
-34.47
-24.46
-13.60
-2.97
6.56
14.31
19.91
23.17
24.15
23.15
20.70
17.49
14.26
11.69
10.15
9.63
9.80
10.10
10.01
9.15
7.48
5.19
2.54
-0.29
-3.29
-6.71
-10.91
-16.25
-22.87
-30.52
-38.49
-45.65
-50.68
-52.51
-50.57
-45.04
-36.67
-26.58
-15.87
-5.41
4.14
12.30
18.59
22.60
24.10
23.25
20.68
17.37
14.34
12.29
11.42
11.43
11.71
11.70
11.05
9.73
7.90
5.85
3.73
1.56
-0.86
-3.81
-7.63
-12.61
-18.76
-25.77
-32.91
-39.13
-43.24
-44.27
-41.65
-35.49
-26.44
-15.60
-4.16
6.82
16.60
24.72
30.91
34.95
36.68
36.18
33.80
30.23
26.33
22.87
20.26
18.48
17.18
15.94
14.48
12.75
10.88
9.01
7.17
5.26
3.08
0.38
-3.06
-7.41
-12.77
-19.16
-26.42
-34.11
-41.50
-47.60
-51.32
-51.78
-48.58
-41.97
-32.82
-22.36
-11.78
-1.98
6.59
13.76
19.44
23.42
25.45
25.40
23.51
20.41
16.99
14.12
12.33
11.66
11.75
11.98
11.80
10.90
9.24
7.00
4.43
1.70
-1.17
-4.28
-7.88
-12.18
-17.34
-23.43
-30.29
-37.50
-44.32
-49.73
-52.62
-52.08
-47.72
-39.83
-29.34
-17.59
-5.94
4.49
12.99
19.22
23.07
24.61
24.00
21.60
17.95
13.79
9.83
6.68
4.70
3.86
3.87
4.23
4.39
3.97
2.77
0.89
-1.41
-3.90
-6.49
-9.34
-12.79
-17.24
-22.91
-29.75
-37.31
-44.75
-50.97
-54.83
-55.44
-52.34
-45.69
-36.21
-25.00
-13.24
-2.03
7.81
15.66
21.10
23.87
24.02
21.91
18.26
14.05
10.29
7.70
6.56
6.59
7.13
7.46
7.09
5.95
4.32
2.55
0.84
-0.93
-3.08
-5.97
-9.86
-14.79
-20.78
-27.69
-35.22
-42.68
-48.99
-52.82
-52.99
-48.89
-40.79
-29.73
-17.15
-4.48
7.20
17.20
25.14
30.77
33.92
34.59
33.01
29.72
25.51
21.25
17.69
15.28
14.08
13.81
13.99
14.07
13.64
12.47
10.51
7.90
4.79
1.37
-2.29
-6.18
-10.52
-15.68
-22.09
-29.97
-39.00
-48.20
-55.99
-60.66
-60.92
-56.32
-47.41
-35.43
-21.88
-8.09
4.96
16.60
26.29
33.56
37.99
39.44
38.20
34.96
30.72
26.51
23.12
20.93
19.89
19.61
19.54
19.21
18.27
16.63
14.36
11.60
8.46
4.98
1.09
-3.30
-8.34
-14.24
-21.21
-29.38
-38.59
-48.22
-57.11
-63.71
-66.50
-64.42
-57.27
-45.72
-31.16
-15.27
0.37
14.51
26.32
35.28
41.19
44.03
44.07
41.77
37.87
33.22
28.71
25.06
22.68
21.57
21.35
21.43
21.19
20.28
18.58
16.18
13.29
10.03
6.41
2.31
-2.51
-8.32
-15.38
-23.81
-33.43
-43.58
-53.07
-60.37
-63.94
-62.73
-56.43
-45.64
-31.66
-16.10
-0.53
13.70
25.66
34.68
40.36
42.60
41.62
38.05
32.88
27.29
22.38
18.90
17.11
16.71
17.07
17.52
17.56
17.01
15.93
14.39
12.40
9.77
6.19
1.42
-4.68
-12.10
-20.73
-30.34
-40.42
-50.07
-58.01
-62.73
-62.90
-57.84
-47.70
-33.53
-16.96
0.19
16.29
30.12
40.88
48.12
51.73
51.87
49.07
44.17
38.29
32.63
28.17
25.44
24.40
24.44
24.73
24.48
23.27
21.07
18.15
14.81
11.21
7.24
2.60
-3.10
-10.26
-19.06
-29.36
-40.50
-51.19
-59.72
-64.26
-63.46
-56.85
-45.04
-29.48
-12.02
5.59
21.97
36.09
47.21
54.75
58.36
58.08
54.49
48.71
42.15
36.20
31.86
29.50
28.84
29.12
29.41
28.95
27.32
24.59
21.05
17.07
12.86
8.38
3.32
-2.68
-10.01
-18.89
-29.26
-40.64
-52.03
-61.89
-68.39
-69.86
-65.34
-54.92
-39.75
-21.72
-2.87
15.06
30.85
43.75
53.27
59.11
61.14
59.63
55.32
49.36
43.10
37.70
33.86
31.68
30.78
30.46
29.99
28.81
26.66
23.53
19.70
15.46
11.03
6.39
1.26
-4.79
-12.24
-21.37
-32.14
-44.00
-55.83
-66.02
-72.77
-74.51
-70.34
-60.30
-45.48
-27.67
-8.95
8.73
23.87
35.46
43.00
46.38
45.92
42.35
36.78
30.54
24.91
20.83
18.64
18.07
18.42
18.86
18.74
17.83
16.25
14.32
12.25
10.02
7.28
3.58
-1.52
-8.30
-16.79
-26.68
-37.25
-47.28
-55.19
-59.38
-58.67
-52.68
-41.93
-27.72
-11.71
4.53
19.64
32.56
42.49
48.77
51.08
49.63
45.21
39.13
32.88
27.73
24.36
22.78
22.44
22.49
22.21
21.15
19.21
16.52
13.28
9.60
5.46
0.68
-5.00
-11.93
-20.36
-30.23
-40.96
-51.39
-59.83
-64.52
-64.15
-58.23
-47.34
-32.85
-16.52
-0.08
15.12
28.11
38.26
45.11
48.44
48.33
45.22
40.05
34.03
28.41
24.14
21.60
20.49
20.09
19.52
18.15
15.79
12.65
9.11
5.50
1.83
-2.14
-6.82
-12.61
-19.82
-28.54
-38.49
-48.94
-58.58
-65.76
-68.88
-66.84
-59.47
-47.55
-32.57
-16.25
-0.11
14.71
27.45
37.54
44.56
48.30
48.84
46.69
42.79
38.24
34.06
30.94
29.04
28.09
27.56
26.90
25.73
23.93
21.57
18.82
15.78
12.44
8.68
4.25
-1.14
-7.78
-15.83
-25.10
-34.93
-44.11
-51.08
-54.33
-52.80
-46.30
-35.50
-21.76
-6.69
8.13
21.51
32.55
40.65
45.47
46.95
45.38
41.47
36.23
30.78
26.04
22.56
20.44
19.39
18.94
18.57
17.90
16.69
14.89
12.52
9.61
6.16
2.06
-2.86
-8.85
-16.12
-24.67
-34.12
-43.59
-51.79
-57.28
-58.86
-55.90
-48.59
-37.81
-24.89
-11.22
2.03
13.93
23.79
31.04
35.21
36.10
33.91
29.37
23.62
17.94
13.39
10.56
9.40
9.38
9.76
9.92
9.51
8.46
6.90
4.93
2.48
-0.63
-4.73
-10.11
-16.91
-25.07
-34.18
-43.41
-51.57
-57.28
-59.27
-56.74
-49.62
-38.60
-24.95
-10.17
4.32
17.36
28.10
35.91
40.39
41.43
39.32
34.86
29.24
23.72
19.32
16.51
15.16
14.68
14.39
13.75
12.58
10.94
9.00
6.83
4.35
1.30
-2.69
-7.97
-14.85
-23.34
-33.06
-43.05
-51.89
-57.96
-59.96
-57.20
-49.92
-39.05
-25.93
-11.95
1.73
14.23
24.84
32.94
38.07
40.02
38.98
35.59
30.84
25.82
21.53
18.55
17.00
16.60
16.77
16.93
16.58
15.51
13.71
11.34
8.58
5.48
1.95
-2.26
-7.49
-14.12
-22.30
-31.73
-41.53
-50.28
-56.30
-58.18
-55.18
-47.53
-36.29
-22.95
-9.01
4.35
16.34
26.47
34.32
39.55
41.93
41.55
38.89
34.76
30.21
26.20
23.37
21.88
21.42
21.33
20.95
19.82
17.84
15.21
12.30
9.32
6.25
2.87
-1.20
-6.24
-12.41
-19.69
-27.91
-36.69
-45.35
-52.84
-57.89
-59.32
-56.39
-49.10
-38.27
-25.26
-11.61
1.39
12.81
22.13
29.02
33.30
34.90
33.95
30.91
26.57
21.93
17.94
15.27
14.09
14.10
14.62
14.87
14.29
12.69
10.27
7.47
4.67
1.94
-0.94
-4.46
-9.10
-15.22
-22.82
-31.57
-40.80
-49.44
-56.21
-59.84
-59.36
-54.44
-45.50
-33.64
-20.34
-7.00
5.19
15.47
23.34
28.53
30.93
30.68
28.25
24.38
20.02
16.08
13.16
11.52
10.95
10.96
11.00
10.61
9.62
8.03
6.01
3.63
0.87
-2.41
-6.42
-11.41
-17.55
-24.91
-33.31
-42.18
-50.52
-56.90
-59.87
-58.33
-52.03
-41.62
-28.50
-14.39
-0.81
11.13
20.83
28.00
32.46
34.15
33.17
29.98
25.39
20.46
16.19
13.31
11.97
11.82
12.20
12.39
11.94
10.69
8.81
6.51
3.92
0.94
-2.70
-7.34
-13.23
-20.48
-28.98
-38.36
-47.86
-56.36
-62.48
-64.88
-62.67
-55.70
-44.71
-31.10
-16.53
-2.47
10.02
20.34
28.15
33.31
35.72
35.49
32.96
28.84
24.06
19.60
16.28
14.45
14.00
14.39
14.91
14.91
14.07
12.41
10.17
7.60
4.70
1.33
-2.85
-8.11
-14.61
-22.34
-31.14
-40.64
-50.10
-58.35
-63.89
-65.25
-61.48
-52.57
-39.54
-24.11
-8.19
6.60
19.19
29.01
35.82
39.58
40.39
38.58
34.85
30.16
25.56
21.93
19.77
19.10
19.46
20.16
20.48
19.93
18.30
15.71
12.45
8.77
4.77
0.35
-4.78
-11.00
-18.62
-27.72
-37.99
-48.56
-58.08
-64.92
-67.61
-65.23
-57.73
-45.98
-31.39
-15.64
-0.24
13.62
25.08
33.54
38.64
40.31
38.82
34.95
29.82
24.69
20.64
18.29
17.59
17.98
18.64
18.82
18.12
16.54
14.34
11.72
8.76
5.27
0.95
-4.49
-11.28
-19.48
-28.91
-39.05
-48.90
-57.06
-61.94
-62.21
-57.24
-47.31
-33.57
-17.68
-1.38
13.84
26.88
36.97
43.61
46.62
46.16
42.83
37.65
31.89
26.80
23.31
21.78
21.93
22.98
23.97
24.09
22.94
20.60
17.44
13.89
10.17
6.21
1.62
-4.07
-11.32
-20.31
-30.81
-41.95
-52.32
-60.13
-63.67
-61.79
-54.32
-42.08
-26.63
-9.78
6.83
21.97
34.75
44.54
50.94
53.76
53.23
49.98
45.06
39.69
34.96
31.63
29.89
29.44
29.62
29.67
28.94
27.12
24.21
20.51
16.36
11.98
7.41
2.47
-3.15
-9.79
-17.72
-27.02
-37.47
-48.34
-58.38
-65.95
-69.31
-67.18
-59.17
-45.95
-29.10
-10.70
7.26
23.18
36.11
45.61
51.59
54.18
53.71
50.76
46.11
40.81
35.89
32.23
30.25
29.84
30.47
31.31
31.55
30.62
28.33
24.83
20.45
15.58
10.44
5.13
-0.50
-6.62
-13.51
-21.43
-30.57
-40.84
-51.69
-61.94
-69.89
-73.70
-71.98
-64.30
-51.39
-34.90
-16.94
0.56
16.18
29.10
38.92
45.46
48.66
48.70
46.03
41.52
36.28
31.40
27.76
25.75
25.26
25.77
26.60
27.11
26.83
25.53
23.13
19.70
15.37
10.33
4.78
-1.09
-7.24
-13.81
-21.13
-29.56
-39.15
-49.42
-59.14
-66.64
-70.14
-68.41
-61.17
-49.16
-33.94
-17.35
-1.08
13.61
25.92
35.31
41.44
44.12
43.52
40.23
35.28
29.94
25.39
22.46
21.36
21.78
22.99
24.16
24.62
24.01
22.30
19.72
16.56
13.00
9.09
4.64
-0.54
-6.70
-13.99
-22.45
-31.94
-41.90
-51.36
-58.92
-63.02
-62.36
-56.40
-45.52
-31.06
-14.86
1.19
15.58
27.43
36.29
42.10
44.92
44.99
42.71
38.78
34.08
29.57
26.08
24.07
23.56
24.16
25.25
26.13
26.26
25.30
23.13
19.84
15.62
10.68
5.22
-0.69
-7.14
-14.38
-22.71
-32.26
-42.71
-53.18
-62.21
-68.12
-69.48
-65.52
-56.46
-43.36
-27.83
-11.64
3.72
17.14
28.00
35.96
40.99
43.23
43.01
40.86
37.44
33.50
29.73
26.68
24.60
23.45
22.98
22.84
22.68
22.16
21.04
19.12
16.26
12.46
7.84
2.65
-2.87
-8.55
-14.44
-20.77
-27.92
-36.15
-45.31
-54.68
-62.94
-68.46
-69.76
-66.02
-57.34
-44.80
-30.03
-14.83
-0.65
11.57
21.34
28.46
32.92
34.79
34.31
31.92
28.29
24.21
20.45
17.61
16.04
15.71
16.33
17.42
18.41
18.80
18.25
16.60
13.86
10.17
5.75
0.77
-4.62
-10.40
-16.68
-23.69
-31.64
-40.48
-49.72
-58.36
-65.04
-68.35
-67.28
-61.50
-51.51
-38.49
-23.88
-9.10
4.72
16.76
26.47
33.42
37.34
38.19
36.35
32.57
27.92
23.53
20.32
18.75
18.71
19.68
20.91
21.70
21.55
20.32
18.09
15.10
11.57
7.59
3.15
-1.81
-7.32
-13.41
-20.10
-27.39
-35.19
-43.12
-50.40
-55.81
-58.05
-56.08
-49.59
-39.12
-25.94
-11.63
2.39
15.04
25.66
33.88
39.47
42.32
42.51
40.40
36.68
32.23
27.95
24.61
22.59
21.86
22.06
22.61
22.89
22.47
21.12
18.84
15.76
12.05
7.81
3.11
-2.02
-7.57
-13.65
-20.43
-28.10
-36.66
-45.69
-54.21
-60.82
-64.03
-62.78
-56.75
-46.52
-33.43
-19.03
-4.85
8.05
19.02
27.73
34.06
37.95
39.43
38.75
36.39
33.04
29.47
26.33
24.06
22.76
22.32
22.49
22.88
23.10
22.76
21.50
19.12
15.66
11.36
6.60
1.69
-3.25
-8.34
-13.95
-20.47
-28.14
-36.94
-46.34
-55.42
-62.86
-67.27
-67.47
-62.82
-53.52
-40.55
-25.52
-10.22
3.79
15.44
24.24
30.13
33.31
34.09
32.91
30.29
26.88
23.42
20.54
18.70
17.96
18.12
18.65
19.02
18.76
17.67
15.73
13.11
10.00
6.53
2.67
-1.69
-6.67
-12.35
-18.77
-25.97
-33.94
-42.42
-50.77
-57.88
-62.37
-62.95
-58.89
-50.38
-38.41
-24.52
-10.26
3.10
14.74
24.17
31.03
35.01
35.98
34.12
30.09
24.89
19.75
15.66
13.20
12.33
12.59
13.28
13.77
13.72
13.02
11.78
10.10
8.01
5.38
2.05
-2.13
-7.27
-13.38
-20.49
-28.45
-36.93
-45.22
-52.23
-56.68
-57.41
-53.78
-45.87
-34.50
-21.00
-6.83
6.74
18.75
28.53
35.60
39.69
40.75
39.08
35.40
30.71
26.07
22.32
19.88
18.71
18.41
18.48
18.45
18.03
17.07
15.51
13.28
10.33
6.62
2.12
-3.15
-9.23
-16.25
-24.37
-33.54
-43.30
-52.58
-59.85
-63.53
-62.50
-56.48
-46.19
-33.03
-18.62
-4.37
8.79
20.30
29.81
36.95
41.32
42.67
41.10
37.21
32.08
26.98
23.05
20.91
20.50
21.23
22.20
22.67
22.22
20.85
18.78
16.21
13.20
9.63
5.31
0.08
-6.17
-13.52
-22.03
-31.58
-41.74
-51.56
-59.65
-64.47
-64.80
-60.12
-50.82
-38.10
-23.52
-8.66
5.26
17.41
27.28
34.54
38.97
40.51
39.39
36.20
31.85
27.34
23.55
20.95
19.58
19.09
18.99
18.81
18.25
17.16
15.53
13.36
10.60
7.19
3.00
-2.07
-8.14
-15.29
-23.52
-32.58
-41.89
-50.53
-57.27
-60.86
-60.37
-55.45
-46.41
-34.22
-20.18
-5.65
8.12
20.12
29.50
35.65
38.25
37.41
33.81
28.55
22.96
18.20
14.98
13.36
12.92
12.94
12.81
12.18
11.03
9.55
7.90
6.08
3.87
0.86
-3.32
-8.97
-16.15
-24.66
-33.99
-43.26
-51.27
-56.71
-58.32
-55.35
-47.79
-36.37
-22.43
-7.49
7.09
20.26
31.24
39.39
44.24
45.51
43.45
38.85
32.96
27.16
22.54
19.64
18.34
18.12
18.30
18.31
17.81
16.65
14.83
12.33
9.16
5.32
0.70
-4.85
-11.59
-19.74
-29.21
-39.41
-49.15
-56.81
-60.84
-60.11
-54.36
-44.24
-31.03
-16.26
-1.32
12.68
24.94
34.81
41.73
45.33
45.60
42.95
38.32
32.87
27.75
23.83
21.46
20.51
20.45
20.64
20.47
19.58
17.87
15.40
12.34
8.78
4.65
-0.25
-6.28
-13.74
-22.76
-33.07
-43.95
-54.18
-62.23
-66.55
-65.98
-60.10
-49.34
-34.91
-18.50
-1.84
13.59
26.78
37.12
44.30
48.24
49.09
47.29
43.57
38.92
34.33
30.64
28.22
26.99
26.47
26.02
25.13
23.50
21.09
18.07
14.65
10.97
7.03
2.61
-2.63
-9.07
-17.07
-26.74
-37.79
-49.38
-60.17
-68.45
-72.64
-71.65
-65.22
-54.04
-39.45
-23.18
-6.86
8.21
21.15
31.41
38.61
42.57
43.30
41.18
37.02
31.92
27.09
23.45
21.42
20.83
21.12
21.58
21.65
20.99
19.47
17.10
13.91
9.95
5.25
-0.14
-6.23
-13.15
-21.04
-30.01
-39.81
-49.75
-58.63
-64.96
-67.36
-64.94
-57.61
-46.06
-31.57
-15.68
0.12
14.64
26.90
36.21
42.07
44.24
42.92
38.78
32.99
26.93
21.88
18.68
17.50
17.84
18.89
19.81
20.02
19.34
17.81
15.59
12.75
9.23
4.89
-0.50
-7.13
-15.17
-24.57
-34.91
-45.28
-54.26
-60.20
-61.65
-57.83
-48.88
-35.82
-20.25
-3.87
11.86
25.83
37.30
45.78
50.96
52.79
51.53
47.87
42.79
37.46
32.91
29.77
28.15
27.65
27.65
27.45
26.59
24.82
22.13
18.66
14.54
9.89
4.78
-0.84
-7.12
-14.32
-22.75
-32.48
-43.19
-53.93
-63.22
-69.36
-70.88
-67.02
-57.90
-44.53
-28.46
-11.38
5.21
20.21
32.87
42.72
49.53
53.22
53.98
52.26
48.78
44.42
40.10
36.56
34.23
33.12
32.84
32.79
32.32
30.99
28.64
25.39
21.46
17.07
12.34
7.19
1.45
-5.14
-12.83
-21.80
-32.01
-43.06
-54.04
-63.57
-70.08
-72.14
-69.00
-60.70
-48.16
-32.81
-16.30
-0.12
14.58
26.94
36.40
42.60
45.43
45.12
42.28
37.92
33.19
29.11
26.35
24.99
24.69
24.83
24.88
24.44
23.41
21.78
19.55
16.65
12.94
8.34
2.85
-3.44
-10.49
-18.35
-27.15
-36.86
-47.06
-56.78
-64.57
-68.92
-68.64
-63.36
-53.57
-40.44
-25.49
-10.17
4.33
17.09
27.40
34.71
38.67
39.29
36.99
32.65
27.47
22.61
19.02
17.10
16.75
17.44
18.45
19.15
19.19
18.47
17.03
14.96
12.26
8.83
4.51
-0.81
-7.28
-14.96
-23.82
-33.52
-43.31
-51.95
-57.92
-59.76
-56.64
-48.58
-36.53
-22.01
-6.67
8.07
21.16
31.89
39.77
44.47
45.93
44.43
40.67
35.66
30.49
26.11
23.11
21.64
21.43
21.89
22.34
22.16
21.02
18.94
16.14
12.91
9.41
5.52
0.91
-4.87
-12.19
-21.16
-31.51
-42.43
-52.64
-60.54
-64.61
-63.82
-57.96
-47.73
-34.49
-19.81
-5.11
8.53
20.46
30.19
37.31
41.50
42.69
41.20
37.79
33.47
29.30
26.05
24.05
23.18
23.01
23.03
22.80
22.08
20.79
18.91
16.44
13.25
9.23
4.27
-1.57
-8.21
-15.57
-23.69
-32.56
-41.90
-50.98
-58.55
-63.13
-63.54
-59.30
-50.83
-39.22
-25.84
-11.93
1.54
13.87
24.38
32.43
37.50
39.32
38.10
34.54
29.68
24.68
20.51
17.73
16.37
15.98
15.87
15.46
14.46
12.90
11.04
9.05
6.91
4.29
0.80
-3.89
-9.89
-17.09
-25.23
-33.94
-42.63
-50.46
-56.36
-59.18
-58.07
-52.74
-43.59
-31.67
-18.29
-4.79
7.69
18.30
26.47
31.80
34.19
33.80
31.14
27.06
22.49
18.33
15.21
13.37
12.66
12.65
12.80
12.65
11.95
10.62
8.71
6.27
3.29
-0.34
-4.79
-10.27
-16.89
-24.64
-33.18
-41.76
-49.25
-54.37
-55.95
-53.37
-46.74
-36.80
-24.77
-11.87
0.81
12.46
22.37
29.92
34.59
36.07
34.59
30.83
25.91
21.02
17.10
14.59
13.40
13.03
12.84
12.31
11.19
9.55
7.66
5.74
3.80
1.57
-1.49
-5.92
-12.11
-20.06
-29.24
-38.65
-46.99
-52.88
-55.16
-53.22
-47.09
-37.41
-25.30
-12.02
1.22
13.41
23.70
31.44
36.11
37.57
36.11
32.48
27.77
23.10
19.32
16.78
15.34
14.58
13.98
13.17
11.96
10.38
8.48
6.30
3.80
0.81
-2.89
-7.59
-13.55
-20.95
-29.64
-39.01
-47.96
-55.04
-58.84
-58.43
-53.60
-44.92
-33.49
-20.56
-7.29
5.41
16.81
26.23
33.04
36.80
37.43
35.33
31.36
26.64
22.23
18.83
16.68
15.54
14.96
14.40
13.53
12.19
10.41
8.22
5.59
2.40
-1.51
-6.28
-12.10
-19.09
-27.32
-36.55
-46.11
-54.85
-61.35
-64.26
-62.78
-56.86
-47.20
-34.95
-21.42
-7.76
5.02
16.06
24.62
30.09
32.21
31.24
27.93
23.37
18.77
15.03
12.58
11.36
10.93
10.75
10.38
9.60
8.44
7.02
5.42
3.58
1.29
-1.80
-6.09
-11.91
-19.39
-28.30
-37.95
-47.16
-54.50
-58.60
-58.56
-54.10
-45.63
-34.07
-20.60
-6.42
7.34
19.63
29.53
36.30
39.58
39.49
36.63
32.00
26.77
21.94
18.20
15.80
14.62
14.28
14.35
14.44
14.32
13.82
12.82
11.17
8.63
4.94
-0.19
-7.01
-15.56
-25.56
-36.19
-46.14
-53.78
-57.58
-56.56
-50.57
-40.33
-27.09
-12.29
2.75
16.88
29.15
38.68
44.79
47.21
46.22
42.69
37.85
32.95
28.95
26.30
24.92
24.38
24.06
23.37
21.98
19.83
17.07
13.95
10.64
7.11
3.12
-1.79
-8.05
-15.97
-25.47
-35.97
-46.31
-54.94
-60.21
-60.87
-56.36
-46.98
-33.74
-18.13
-1.71
14.09
28.07
39.30
47.09
51.12
51.51
48.95
44.52
39.43
34.77
31.13
28.64
26.97
25.66
24.30
22.71
20.83
18.71
16.30
13.46
10.00
5.72
0.48
-5.91
-13.63
-22.76
-33.02
-43.61
-53.20
-60.13
-62.98
-60.93
-54.09
-43.30
-29.83
-15.04
-0.14
13.77
25.66
34.59
39.89
41.43
39.70
35.74
30.87
26.23
22.56
20.10
18.70
17.98
17.57
17.13
16.46
15.41
13.86
11.67
8.68
4.72
-0.37
-6.72
-14.40
-23.33
-33.11
-42.91
-51.54
-57.58
-59.76
-57.32
-50.20
-39.10
-25.19
-9.90
5.38
19.39
31.05
39.50
44.20
45.09
42.63
37.85
32.07
26.57
22.31
19.66
18.45
18.12
18.02
17.66
16.87
15.66
14.08
12.06
9.36
5.59
0.42
-6.33
-14.59
-24.02
-33.92
-43.26
-50.74
-55.00
-54.97
-50.16
-40.85
-28.02
-13.12
2.34
17.00
29.78
39.92
46.86
50.32
50.39
47.55
42.72
37.06
31.78
27.74
25.30
24.17
23.67
23.02
21.68
19.57
16.99
14.34
11.84
9.27
6.09
1.63
-4.60
-12.73
-22.50
-33.22
-43.90
-53.26
-59.88
-62.47
-60.20
-52.96
-41.43
-26.94
-11.09
4.61
18.93
30.96
40.10
45.94
48.40
47.71
44.60
40.07
35.24
31.02
27.91
25.89
24.62
23.55
22.27
20.52
18.29
15.64
12.69
9.43
5.73
1.38
-3.93
-10.48
-18.45
-27.74
-37.84
-47.76
-56.17
-61.59
-62.85
-59.37
-51.36
-39.75
-25.95
-11.42
2.57
15.08
25.46
33.23
38.02
39.67
38.35
34.71
29.79
24.82
20.82
18.32
17.26
17.05
16.98
16.41
15.11
13.18
10.90
8.51
5.95
2.89
-1.22
-6.89
-14.36
-23.46
-33.51
-43.43
-51.91
-57.66
-59.68
-57.47
-51.07
-41.07
-28.49
-14.56
-0.59
12.25
22.93
30.70
35.13
36.19
34.33
30.41
25.54
20.81
17.08
14.70
13.61
13.33
13.30
13.02
12.25
10.94
9.22
7.21
4.94
2.27
-1.13
-5.71
-11.84
-19.62
-28.64
-37.91
-45.97
-51.33
-52.83
-49.96
-42.96
-32.67
-20.24
-6.90
6.20
18.07
27.82
34.83
38.70
39.46
37.55
33.80
29.22
24.79
21.19
18.69
17.10
15.97
14.82
13.32
11.41
9.25
7.06
4.92
2.67
-0.05
-3.68
-8.65
-15.19
-23.24
-32.36
-41.66
-49.81
-55.38
-57.10
-54.33
-47.17
-36.52
-23.74
-10.23
2.89
14.85
25.16
33.38
39.07
41.85
41.70
39.12
35.08
30.78
27.25
25.02
23.96
23.49
22.89
21.63
19.61
17.01
14.16
11.20
8.05
4.47
0.17
-5.08
-11.40
-18.85
-27.38
-36.71
-46.13
-54.50
-60.39
-62.47
-59.97
-52.98
-42.34
-29.44
-15.74
-2.46
9.52
19.59
27.26
32.18
34.15
33.36
30.40
26.18
21.75
17.95
15.28
13.78
13.14
12.86
12.49
11.73
10.52
8.90
7.00
4.78
2.11
-1.32
-5.87
-11.83
-19.25
-27.79
-36.65
-44.68
-50.59
-53.32
-52.28
-47.50
-39.55
-29.31
-17.72
-5.73
5.85
16.14
24.34
29.76
32.06
31.39
28.46
24.35
20.19
16.85
14.71
13.67
13.29
13.08
12.69
11.97
10.99
9.77
8.28
6.33
3.59
-0.22
-5.36
-11.92
-19.77
-28.45
-37.10
-44.51
-49.38
-50.63
-47.78
-41.05
-31.30
-19.72
-7.53
4.20
14.66
23.22
29.40
32.91
33.78
32.36
29.32
25.57
21.93
19.01
17.00
15.75
14.87
14.02
13.02
11.83
10.52
9.03
7.19
4.72
1.28
-3.36
-9.32
-16.55
-24.84
-33.64
-42.06
-48.92
-52.94
-53.16
-49.20
-41.44
-30.84
-18.67
-6.14
5.79
16.41
25.22
31.77
35.69
36.82
35.36
31.89
27.40
22.93
19.38
17.19
16.27
16.06
15.90
15.28
13.98
12.10
9.84
7.38
4.71
1.63
-2.19
-7.10
-13.33
-20.96
-29.71
-38.87
-47.30
-53.61
-56.53
-55.23
-49.62
-40.37
-28.65
-15.82
-3.07
8.69
18.76
26.63
31.88
34.30
34.01
31.53
27.77
23.70
20.21
17.78
16.48
16.03
16.00
15.97
15.62
14.73
13.22
11.09
8.34
5.05
1.21
-3.27
-8.63
-15.14
-22.96
-31.89
-41.17
-49.54
-55.48
-57.67
-55.37
-48.70
-38.56
-26.25
-13.19
-0.54
10.81
20.18
27.06
31.06
32.12
30.59
27.27
23.24
19.56
16.93
15.56
15.17
15.14
14.86
13.91
12.17
9.84
7.23
4.56
1.85
-1.11
-4.78
-9.59
-15.87
-23.60
-32.31
-41.05
-48.55
-53.46
-54.71
-51.76
-44.76
-34.45
-21.96
-8.51
4.74
16.82
26.87
34.22
38.39
39.29
37.35
33.48
28.86
24.63
21.49
19.61
18.64
18.01
17.21
16.02
14.49
12.81
11.10
9.23
6.86
3.56
-1.06
-7.20
-14.84
-23.62
-32.90
-41.68
-48.72
-52.69
-52.58
-47.93
-39.03
-26.89
-12.94
1.28
14.45
25.57
34.04
39.57
42.15
42.04
39.77
36.11
31.92
28.04
25.02
23.06
21.98
21.34
20.66
19.58
17.95
15.77
13.08
9.91
6.19
1.81
-3.42
-9.68
-17.15
-25.79
-35.24
-44.59
-52.50
-57.46
-58.23
-54.26
-45.82
-33.88
-19.82
-5.06
9.17
21.88
32.30
39.84
44.20
45.43
43.99
40.68
36.49
32.36
28.98
26.67
25.35
24.66
24.11
23.25
21.83
19.78
17.19
14.20
10.89
7.17
2.79
-2.60
-9.35
-17.63
-27.25
-37.51
-47.26
-55.07
-59.54
-59.64
-55.03
-46.08
-33.83
-19.66
-5.02
8.77
20.74
30.15
36.59
39.88
40.15
37.87
33.84
29.11
24.69
21.35
19.38
18.59
18.44
18.33
17.85
16.83
15.29
13.35
11.01
8.15
4.58
0.07
-5.57
-12.42
-20.49
-29.46
-38.65
-46.97
-53.09
-55.74
-54.06
-47.92
-37.91
-25.23
-11.35
2.30
14.56
24.58
31.80
35.93
36.93
35.11
31.15
26.08
21.06
17.09
14.70
13.88
14.07
14.53
14.62
14.06
12.88
11.31
9.48
7.30
4.43
0.46
-4.99
-12.02
-20.37
-29.42
-38.14
-45.39
-49.98
-50.99
-47.96
-40.95
-30.53
-17.74
-3.85
9.77
21.83
31.31
37.57
40.44
40.20
37.50
33.32
28.69
24.53
21.49
19.73
19.01
18.73
18.30
17.35
15.79
13.81
11.61
9.22
6.45
2.93
-1.69
-7.63
-14.94
-23.48
-32.80
-42.09
-50.15
-55.56
-57.06
-53.96
-46.37
-35.21
-21.90
-7.88
5.62
17.72
27.81
35.45
40.26
42.08
41.08
37.83
33.29
28.50
24.43
21.61
20.13
19.61
19.46
19.09
18.15
16.53
14.33
11.69
8.63
5.07
0.76
-4.53
-11.02
-18.78
-27.64
-37.12
-46.32
-54.00
-58.80
-59.57
-55.77
-47.62
-36.09
-22.57
-8.49
4.94
16.84
26.64
33.90
38.33
39.84
38.67
35.46
31.16
26.80
23.19
20.78
19.51
19.04
18.89
18.57
17.79
16.36
14.23
11.43
8.04
4.19
-0.09
-4.84
-10.35
-16.95
-24.90
-34.04
-43.67
-52.53
-59.10
-61.97
-60.33
-54.18
-44.27
-31.84
-18.24
-4.69
7.89
18.74
27.22
32.81
35.23
34.68
31.84
27.82
23.81
20.71
18.89
18.17
17.98
17.70
16.94
15.57
13.70
11.47
8.96
6.13
2.82
-1.14
-5.94
-11.72
-18.60
-26.54
-35.24
-44.02
-51.81
-57.35
-59.47
-57.42
-51.12
-41.11
-28.47
-14.53
-0.64
12.05
22.66
30.57
35.46
37.31
36.41
33.38
29.13
24.67
20.90
18.41
17.31
17.27
17.68
17.96
17.71
16.81
15.31
13.31
10.78
7.57
3.48
-1.67
-8.03
-15.62
-24.28
-33.52
-42.47
-49.91
-54.55
-55.34
-51.80
-44.15
-33.27
-20.40
-6.83
6.22
17.80
27.17
33.82
37.46
38.13
36.20
32.39
27.72
23.25
19.88
18.07
17.73
18.31
18.99
19.08
18.20
16.35
13.79
10.84
7.62
4.07
-0.08
-5.14
-11.41
-19.05
-27.96
-37.71
-47.43
-55.80
-61.37
-62.84
-59.49
-51.41
-39.49
-25.11
-9.85
4.91
18.09
28.89
36.82
41.57
43.16
41.93
38.62
34.19
29.71
26.03
23.67
22.62
22.50
22.65
22.43
21.42
19.48
16.78
13.58
10.09
6.35
2.21
-2.62
-8.45
-15.53
-23.95
-33.49
-43.60
-53.24
-61.04
-65.55
-65.56
-60.56
-50.86
-37.56
-22.27
-6.68
7.72
19.85
29.05
34.97
37.59
37.14
34.17
29.56
24.40
19.76
16.46
14.86
14.74
15.47
16.25
16.37
15.50
13.59
10.89
7.70
4.21
0.41
-3.88
-8.96
-15.10
-22.49
-30.98
-40.10
-48.92
-56.15
-60.41
-60.54
-55.98
-46.94
-34.39
-19.79
-4.79
9.19
21.00
29.88
35.44
37.56
36.53
33.01
27.98
22.61
17.96
14.80
13.43
13.61
14.73
16.00
16.72
16.46
15.14
12.99
10.33
7.39
4.14
0.26
-4.72
-11.20
-19.22
-28.28
-37.31
-44.84
-49.36
-49.73
-45.49
-36.97
-25.24
-11.74
2.03
14.77
25.54
33.71
38.89
40.90
39.83
36.09
30.43
23.88
17.52
12.25
8.53
6.32
5.19
4.48
3.63
2.30
0.45
-1.81
-4.38
-7.38
-11.13
-16.05
-22.54
-30.75
-40.46
-51.09
-61.66
-70.89
-77.40
-79.92
-77.65
-70.50
-59.20
-45.11
-29.88
-15.03
-1.72
9.24
17.35
22.30
24.09
23.09
20.16
16.51
13.32
11.36
10.70
10.80
10.82
10.13
8.67
7.02
6.18
7.13
10.40
15.82
22.48
28.99
33.91
36.17
35.39
32.05
27.42
23.27
21.40
23.25
29.42
39.56
52.48
66.46
79.72
90.83
98.80
103.15
103.72
100.58
94.02
84.63
73.37
61.43
49.98
39.85
31.33
24.18
17.90
12.01
6.36
1.13
-3.27
-6.45
-8.41
-9.60
-10.93
-13.58
-18.58
-26.51
-37.13
-49.27
-60.95
-69.81
-73.74
-71.58
-63.44
-50.64
-35.33
-19.74
-5.68
5.85
14.53
20.49
23.94
25.02
23.86
20.80
16.49
11.84
7.81
5.13
4.22
5.23
8.20
13.17
20.11
28.75
38.34
47.70
55.49
60.53
62.11
60.00
54.28
45.23
33.37
19.63
5.53
-6.83
-15.06
-16.82
-10.39
4.95
28.64
58.63
91.54
123.01
148.45
163.89
166.80
156.48
134.16
102.58
65.49
26.88
-9.53
-40.92
-65.66
-83.29
-94.43
-100.28
-102.26
-101.71
-99.77
-97.48
-95.81
-95.63
-97.51
-101.46
-106.77
-112.20
-116.28
-117.78
-115.99
-110.88
-102.93
-92.88
-81.48
-69.33
-56.89
-44.52
-32.59
-21.44
-11.44
-2.89
4.08
9.68
14.50
19.37
25.09
32.06
40.11
48.63
56.87
64.14
69.88
73.50
74.37
71.95
66.08
57.21
46.41
34.86
23.49
12.71
2.70
-6.02
-12.26
-14.34
-10.82
-1.39
12.77
29.21
45.17
58.46
68.03
73.95
76.98
78.02
77.71
76.42
74.28
71.54
68.62
66.17
65.00
65.78
68.82
73.86
79.98
85.95
90.60
93.16
93.45
91.57
87.65
81.54
72.95
61.93
49.33
36.98
27.17
21.79
21.40
24.84
29.61
33.06
33.53
31.27
28.31
27.49
31.23
40.22
53.16
67.08
78.31
83.57
80.77
69.31
49.83
23.86
-6.83
-40.58
-76.10
-112.70
-150.33
-189.60
-231.28
-275.37
-320.05
-361.25
-393.40
-411.16
-411.63
-395.76
-368.02
-334.66
-301.19
-270.57
-242.83
-216.32
-189.34
-161.42
-133.39
-106.60
-81.96
-59.52
-38.84
-19.67
-2.46
11.64
21.39
26.20
26.70
24.63
22.18
21.17
22.32
25.21
28.55
30.99
31.72
30.70
28.59
26.29
24.44
23.18
22.07
20.32
17.08
11.80
4.51
-4.06
-12.54
-19.24
-22.54
-21.39
-15.67
-6.18
5.55
17.85
29.27
38.90
46.31
51.42
54.22
54.80
53.30
50.06
45.69
40.92
36.53
33.02
30.59
29.09
28.14
27.34
26.47
25.54
24.67
24.02
23.48
22.69
21.08
17.99
12.87
5.46
-4.17
-15.55
-27.83
-39.77
-50.06
-57.49
-61.41
-61.88
-59.53
-55.35
-50.27
-44.91
-39.57
-34.45
-29.84
-26.24
-24.19
-23.97
-25.40
-27.67
-29.64
-30.18
-28.69
-25.32
-20.97
-16.98
-14.56
-14.40
-16.43
-19.94
-23.86
-27.20
-29.31
-29.94
-29.29
-27.90
-26.60
-26.31
-27.82
-31.49
-36.86
-42.65
-47.00
-48.02
-44.46
-36.20
-24.12
-9.86
4.80
18.37
29.93
39.02
45.48
49.39
51.01
50.80
49.48
47.88
46.71
46.32
46.61
47.10
47.22
46.59
45.18
43.33
41.48
39.96
38.79
37.65
35.98
33.19
28.73
22.32
14.02
4.33
-5.74
-14.82
-21.43
-24.35
-22.91
-17.18
-7.92
3.72
16.42
28.95
40.29
49.62
56.33
60.09
60.87
59.06
55.40
50.84
46.26
42.34
39.30
37.08
35.41
34.00
32.63
31.26
29.80
28.20
26.32
24.00
21.08
17.31
12.48
6.35
-1.10
-9.58
-18.34
-26.24
-32.04
-34.68
-33.65
-29.01
-21.32
-11.45
-0.26
11.43
22.88
33.42
42.40
49.33
53.94
56.30
56.80
56.04
54.66
53.26
52.18
51.62
51.60
52.01
52.76
53.74
54.93
56.25
57.55
58.42
58.21
56.09
51.32
43.44
32.51
19.11
4.24
-10.95
-25.43
-38.39
-49.29
-57.72
-63.34
-65.88
-65.32
-62.00
-56.70
-50.47
-44.42
-39.41
-35.91
-33.97
-33.43
-34.06
-35.64
-37.90
-40.50
-42.97
-44.81
-45.64
-45.41
-44.35
-43.00
-41.93
-41.63
-42.45
-44.59
-48.21
-53.42
-60.09
-67.71
-75.20
-80.99
-83.45
-81.31
-74.17
-62.58
-47.71
-30.99
-13.63
3.36
19.07
32.53
42.66
48.57
49.98
47.43
42.22
36.01
30.35
26.19
23.83
22.82
22.18
20.62
16.91
10.29
0.82
-10.48
-21.90
-31.77
-39.05
-43.75
-46.87
-49.83
-53.80
-59.09
-65.01
-70.06
-72.43
-70.58
-63.64
-51.67
-35.58
-16.80
3.13
22.84
41.32
57.79
71.61
82.14
88.86
91.57
90.60
86.78
81.29
75.28
69.57
64.49
59.96
55.70
51.46
47.10
42.57
37.88
32.94
27.67
21.96
15.77
9.07
1.90
-5.84
-14.35
-23.91
-34.72
-46.64
-58.92
-70.19
-78.68
-82.57
-80.60
-72.45
-58.88
-41.52
-22.38
-3.37
14.09
29.12
41.32
50.54
56.79
60.20
61.15
60.31
58.55
56.77
55.63
55.38
55.82
56.47
56.77
56.34
55.04
52.94
50.23
47.10
43.67
39.93
35.74
30.89
25.03
17.83
9.02
-1.34
-12.73
-23.97
-33.37
-39.04
-39.46
-33.98
-23.09
-8.34
8.20
24.52
39.16
51.36
60.92
67.85
72.14
73.78
72.90
69.94
65.74
61.34
57.71
55.45
54.63
54.74
55.00
54.54
52.77
49.44
44.66
38.75
32.05
24.78
16.98
8.65
-0.24
-9.64
-19.53
-29.90
-40.63
-51.28
-60.87
-67.94
-70.83
-68.30
-60.04
-46.92
-30.80
-13.92
1.79
15.03
25.26
32.45
36.75
38.37
37.54
34.66
30.39
25.51
20.90
17.22
14.83
13.71
13.55
13.87
14.21
14.26
13.94
13.35
12.68
12.06
11.43
10.54
8.95
6.14
1.70
-4.59
-12.51
-21.31
-29.72
-36.13
-39.02
-37.32
-30.84
-20.31
-7.16
6.92
20.42
32.26
41.74
48.45
52.13
52.74
50.53
46.13
40.54
34.80
29.76
25.86
23.05
21.01
19.34
17.69
15.93
14.04
12.07
10.02
7.82
5.24
2.03
-2.05
-7.16
-13.34
-20.49
-28.31
-36.26
-43.48
-48.85
-51.14
-49.33
-43.04
-32.66
-19.38
-4.83
9.29
21.64
31.32
37.87
41.14
41.25
38.58
33.83
27.98
22.14
17.21
13.71
11.65
10.61
9.96
9.17
7.97
6.36
4.53
2.68
0.88
-1.00
-3.26
-6.31
-10.49
-16.00
-22.74
-30.21
-37.46
-43.25
-46.29
-45.58
-40.79
-32.30
-21.17
-8.79
3.45
14.47
23.54
30.24
34.31
35.64
34.28
30.61
25.36
19.56
14.26
10.21
7.65
6.29
5.51
4.69
3.48
1.91
0.20
-1.40
-2.80
-4.17
-5.80
-8.07
-11.32
-15.81
-21.64
-28.57
-35.95
-42.62
-47.20
-48.38
-45.41
-38.39
-28.22
-16.36
-4.32
6.67
15.79
22.66
27.08
28.97
28.35
25.52
21.11
16.02
11.25
7.59
5.37
4.43
4.24
4.19
3.82
2.98
1.79
0.47
-0.86
-2.21
-3.82
-5.96
-8.96
-13.04
-18.29
-24.57
-31.37
-37.80
-42.65
-44.71
-43.12
-37.71
-29.09
-18.45
-7.24
3.28
12.18
18.90
23.15
24.78
23.85
20.72
16.10
10.98
6.39
3.04
1.21
0.64
0.74
0.90
0.73
0.11
-0.80
-1.76
-2.63
-3.52
-4.69
-6.56
-9.47
-13.61
-18.86
-24.79
-30.66
-35.54
-38.48
-38.69
-35.81
-29.98
-21.82
-12.31
-2.60
6.24
13.38
18.29
20.75
20.83
18.83
15.23
10.70
5.95
1.69
-1.54
-3.54
-4.50
-4.94
-5.51
-6.71
-8.66
-11.13
-13.64
-15.86
-17.75
-19.64
-22.05
-25.46
-30.04
-35.48
-41.04
-45.66
-48.23
-47.87
-44.19
-37.44
-28.42
-18.27
-8.18
0.83
8.04
13.06
15.69
15.97
14.12
10.61
6.15
1.50
-2.62
-5.78
-7.83
-8.98
-9.64
-10.17
-10.81
-11.57
-12.30
-12.92
-13.50
-14.40
-16.09
-19.01
-23.33
-28.90
-35.15
-41.16
-45.81
-47.96
-46.75
-41.85
-33.58
-22.89
-11.15
0.23
10.05
17.55
22.31
24.25
23.55
20.64
16.23
11.24
6.59
3.03
0.91
0.14
0.30
0.84
1.29
1.35
0.92
0.01
-1.33
-3.15
-5.64
-9.04
-13.57
-19.30
-25.97
-32.95
-39.28
-43.87
-45.70
-44.12
-39.04
-30.92
-20.67
-9.45
1.58
11.45
19.43
25.03
28.01
28.36
26.42
22.83
18.50
14.40
11.27
9.42
8.68
8.56
8.45
7.96
6.96
5.53
3.86
2.01
-0.07
-2.64
-5.96
-10.34
-15.84
-22.31
-29.18
-35.50
-40.05
-41.62
-39.39
-33.18
-23.63
-12.00
0.14
11.35
20.59
27.29
31.32
32.77
31.97
29.35
25.52
21.18
16.98
13.43
10.76
8.95
7.79
7.10
6.70
6.46
6.27
5.90
5.07
3.50
0.94
-2.80
-7.83
-14.12
-21.36
-28.81
-35.33
-39.58
-40.36
-37.03
-29.77
-19.52
-7.69
4.21
14.91
23.46
29.27
32.03
31.74
28.75
23.83
18.04
12.55
8.25
5.53
4.24
3.82
3.62
3.22
2.52
1.70
0.92
0.20
-0.72
-2.37
-5.34
-10.08
-16.70
-24.77
-33.28
-40.78
-45.72
-46.81
-43.43
-35.77
-24.74
-11.76
1.65
14.11
24.55
32.22
36.71
37.92
36.16
32.09
26.70
21.01
15.92
11.92
9.11
7.26
6.01
5.10
4.37
3.74
3.07
2.07
0.33
-2.55
-6.85
-12.70
-20.09
-28.73
-38.02
-46.86
-53.76
-57.17
-55.89
-49.59
-38.94
-25.44
-10.96
2.81
14.67
23.91
30.15
33.28
33.37
30.80
26.32
20.97
15.81
11.67
8.88
7.29
6.45
5.77
4.86
3.55
1.84
-0.22
-2.59
-5.37
-8.78
-13.19
-19.00
-26.43
-35.27
-44.66
-53.07
-58.62
-59.64
-55.25
-45.67
-32.17
-16.56
-0.73
13.84
26.18
35.71
42.10
45.19
45.08
42.26
37.70
32.61
28.10
24.91
23.17
22.45
22.06
21.34
19.96
17.91
15.42
12.70
9.73
6.25
1.82
-4.00
-11.47
-20.52
-30.56
-40.52
-48.89
-54.07
-54.74
-50.29
-40.99
-27.94
-12.74
2.94
17.68
30.43
40.50
47.45
51.08
51.47
49.11
44.85
39.73
34.78
30.69
27.72
25.74
24.40
23.34
22.27
21.05
19.56
17.66
15.16
11.80
7.30
1.41
-6.05
-15.02
-25.01
-34.96
-43.34
-48.46
-48.93
-44.17
-34.63
-21.65
-6.99
7.58
20.68
31.39
39.17
43.72
44.98
43.21
39.05
33.51
27.76
22.82
19.30
17.31
16.48
16.22
15.96
15.32
14.18
12.50
10.31
7.48
3.78
-1.16
-7.65
-15.77
-25.11
-34.76
-43.24
-48.89
-50.28
-46.64
-38.15
-25.88
-11.40
3.57
17.60
29.65
38.99
45.12
47.79
47.06
43.47
38.03
31.96
26.45
22.24
19.50
17.91
16.86
15.82
14.47
12.76
10.77
8.57
6.08
3.02
-1.01
-6.47
-13.69
-22.65
-32.81
-43.02
-51.67
-57.01
-57.64
-52.94
-43.27
-29.82
-14.22
1.85
17.00
30.15
40.51
47.47
50.72
50.35
47.01
41.81
36.06
30.93
27.13
24.76
23.43
22.56
21.59
20.19
18.30
16.05
13.56
10.87
7.82
4.10
-0.72
-7.06
-15.19
-24.99
-35.78
-46.25
-54.73
-59.50
-59.36
-53.97
-43.94
-30.60
-15.62
-0.56
13.38
25.35
34.77
41.22
44.44
44.47
41.78
37.32
32.27
27.77
24.55
22.76
22.03
21.65
20.99
19.74
17.91
15.80
13.67
11.59
9.28
6.25
1.97
-3.97
-11.67
-20.87
-30.87
-40.53
-48.41
-53.04
-53.32
-48.81
-39.95
-27.85
-14.01
0.10
13.24
24.44
33.00
38.34
40.20
38.77
34.80
29.45
24.06
19.65
16.75
15.26
14.71
14.48
14.13
13.44
12.40
11.06
9.39
7.27
4.49
0.82
-3.98
-10.10
-17.55
-26.08
-34.98
-43.10
-49.02
-51.38
-49.34
-42.84
-32.64
-20.05
-6.57
6.48
18.12
27.63
34.52
38.43
39.25
37.25
33.11
27.85
22.57
18.17
15.11
13.34
12.39
11.74
10.92
9.77
8.31
6.69
4.94
2.87
0.11
-3.85
-9.47
-16.94
-26.01
-35.85
-45.14
-52.26
-55.77
-54.76
-49.18
-39.76
-27.76
-14.55
-1.28
11.18
22.18
31.07
37.29
40.39
40.37
37.76
33.54
28.89
24.78
21.72
19.69
18.27
16.94
15.34
13.34
11.05
8.66
6.27
3.86
1.21
-1.97
-6.05
-11.36
-18.10
-26.22
-35.18
-43.97
-51.19
-55.36
-55.31
-50.62
-41.72
-29.76
-16.26
-2.68
9.84
20.56
29.09
35.20
38.78
39.83
38.58
35.49
31.32
26.96
23.21
20.59
19.16
18.60
18.37
17.92
16.92
15.31
13.22
10.85
8.26
5.33
1.78
-2.68
-8.35
-15.30
-23.41
-32.18
-40.77
-47.99
-52.54
-53.36
-49.90
-42.33
-31.49
-18.68
-5.27
7.50
18.66
27.56
33.75
37.06
37.55
35.66
32.13
27.87
23.75
20.39
18.09
16.73
16.03
15.60
15.14
14.47
13.51
12.26
10.71
8.75
6.21
2.87
-1.56
-7.28
-14.35
-22.57
-31.36
-39.77
-46.61
-50.66
-50.96
-47.19
-39.64
-29.22
-17.09
-4.48
7.59
18.30
26.99
33.12
36.32
36.62
34.52
31.03
27.39
24.75
23.75
24.41
26.21
28.40
30.38
31.93
33.18
34.46
35.97
37.66
39.19
40.03
39.67
37.64
33.67
27.78
20.44
12.55
5.35
0.06
-2.55
-2.55
-0.78
1.37
2.60
2.09
-0.25
-3.94
-8.30
-12.81
-17.20
-21.43
-25.46
-29.15
-32.21
-34.39
-35.65
-36.22
-36.64
-37.55
-39.45
-42.50
-46.45
-50.75
-54.67
-57.63
-59.31
-59.80
-59.59
-59.43
-60.24
-62.71
-67.02
-72.64
-78.18
-81.73
-81.47
-76.34
-66.65
-54.03
-40.95
-29.80
-22.07
-18.05
-16.98
-17.74
-19.46
-21.80
-24.82
-28.51
-32.52
-36.14
-38.62
-39.59
-39.28
-38.36
-37.44
-36.68
-35.57
-33.29
-29.25
-23.54
-17.12
-11.42
-7.82
-7.16
-9.59
-14.61
-21.31
-28.52
-34.89
-38.88
-38.93
-33.85
-23.11
-7.12
12.84
34.88
56.97
77.21
94.17
106.88
114.87
118.13
117.05
112.47
105.55
97.64
90.05
83.73
79.12
76.01
73.75
71.53
68.70
64.93
60.29
55.02
49.34
43.26
36.52
28.78
19.70
9.11
-2.84
-15.65
-28.37
-39.70
-48.14
-52.31
-51.36
-45.17
-34.51
-20.77
-5.69
9.09
22.17
32.59
39.67
43.07
42.75
39.08
32.86
25.34
17.89
11.73
7.56
5.40
4.73
4.70
4.61
4.14
3.37
2.65
2.29
2.39
2.75
2.94
2.45
0.75
-2.60
-7.76
-14.50
-22.02
-29.03
-34.00
-35.63
-33.25
-27.05
-17.90
-7.13
3.92
14.15
22.73
29.12
33.03
34.40
33.49
30.89
27.43
23.98
21.24
19.58
18.99
19.15
19.62
19.89
19.63
18.65
16.93
14.57
11.63
8.14
3.89
-1.42
-8.10
-16.16
-25.13
-33.93
-41.10
-45.18
-45.19
-40.96
-33.11
-22.83
-11.49
-0.31
9.71
17.86
23.60
26.62
26.83
24.52
20.26
14.81
8.92
3.27
-1.57
-5.10
-6.89
-6.71
-4.71
-1.50
1.89
4.17
4.02
0.37
-7.43
-19.36
-34.51
-51.03
-66.34
-77.58
-82.37
-79.44
-68.87
-51.93
-30.60
-6.92
17.23
40.32
60.93
77.73
89.51
95.41
95.15
89.21
78.80
65.65
51.69
38.63
27.65
19.21
13.11
8.75
5.44
2.64
0.02
-2.59
-5.42
-8.78
-13.08
-18.76
-25.99
-34.60
-43.70
-51.84
-57.16
-57.96
-53.31
-43.43
-29.66
-14.00
1.65
16.06
28.72
39.62
48.62
55.16
58.37
57.41
52.08
43.05
31.67
19.43
7.47
-3.73
-14.25
-24.40
-34.32
-43.71
-52.01
-58.66
-63.43
-66.65
-69.03
-71.49
-74.76
-79.22
-84.77
-90.91
-96.76
-101.12
-102.72
-100.44
-93.60
-82.13
-66.65
-48.23
-28.20
-7.87
11.66
29.51
45.07
57.94
67.96
75.20
79.98
82.74
84.00
84.17
83.44
81.74
78.68
73.71
66.28
56.09
43.24
28.22
11.86
-4.97
-21.51
-37.26
-51.96
-65.41
-77.24
-86.81
-93.21
-95.60
-93.49
-87.02
-76.95
-64.48
-50.81
-36.98
-23.92
-12.63
-4.30
0.05
0.11
-3.08
-7.20
-9.33
-7.24
-0.45
9.54
19.94
28.01
32.29
33.13
32.10
30.89
30.31
29.91
28.40
24.51
17.79
8.81
-1.07
-10.29
-17.57
-22.13
-23.56
-21.68
-16.38
-7.75
3.77
17.26
31.39
44.68
55.81
63.91
68.63
70.11
68.91
65.79
61.58
57.03
52.64
48.65
45.04
41.64
38.27
34.87
31.52
28.37
25.46
22.76
20.10
17.36
14.48
11.50
8.44
5.20
1.52
-2.77
-7.50
-12.00
-15.18
-15.91
-13.58
-8.34
-1.08
6.89
14.36
20.47
24.83
27.34
28.06
27.10
24.69
21.22
17.23
13.27
9.77
6.92
4.72
3.05
1.88
1.23
1.25
2.00
3.44
5.36
7.39
9.04
9.74
8.89
5.93
0.45
-7.58
-17.69
-28.91
-39.79
-48.76
-54.54
-56.45
-54.58
-49.73
-43.13
-36.10
-29.80
-24.98
-22.01
-20.88
-21.27
-22.63
-24.37
-25.99
-27.28
-28.33
-29.46
-30.93
-32.74
-34.59
-36.05
-36.88
-37.19
-37.35
-37.66
-38.02
-37.94
-36.84
-34.63
-32.00
-30.26
-30.51
-32.99
-36.62
-39.29
-38.75
-33.48
-23.04
-8.14
9.51
27.27
41.75
49.39
47.71
36.64
19.17
0.68
-13.11
-18.56
-15.55
-7.22
1.93
8.22
10.25
8.74
5.41
1.61
-2.13
-5.84
-9.36
-11.97
-12.70
-10.92
-6.92
-2.09
1.54
2.13
-1.19
-7.91
-16.23
-23.71
-28.04
-27.85
-23.00
-14.56
-4.28
6.07
15.09
22.09
26.83
29.41
29.93
28.42
24.90
19.52
12.64
4.82
-3.21
-10.76
-17.31
-22.56
-26.47
-29.27
-31.38
-33.35
-35.74
-39.08
-43.72
-49.83
-57.38
-66.24
-76.21
-87.02
-98.27
-109.30
-119.10
-126.43
-130.03
-128.99
-123.06
-112.74
-99.25
-84.20
-69.24
-55.70
-44.37
-35.48
-28.83
-23.90
-20.06
-16.64
-12.98
-8.59
-3.18
3.21
10.21
17.19
23.49
28.64
32.58
35.58
38.13
40.62
43.13
45.33
46.65
46.46
44.31
40.13
34.27
27.49
20.79
15.30
11.93
11.25
13.31
17.66
23.47
29.80
35.80
40.83
44.50
46.59
47.00
45.81
43.27
39.87
36.27
33.08
30.73
29.29
28.51
27.98
27.35
26.47
25.49
24.62
24.06
23.82
23.71
23.38
22.46
20.52
17.20
12.31
5.98
-1.19
-8.10
-13.42
-15.97
-15.09
-10.85
-3.98
4.46
13.38
21.94
29.53
35.75
40.28
42.87
43.46
42.19
39.47
35.89
32.08
28.55
25.58
23.24
21.35
19.71
18.12
16.46
14.70
12.84
10.80
8.42
5.36
1.26
-4.22
-11.13
-19.17
-27.50
-34.94
-40.18
-42.14
-40.28
-34.79
-26.45
-16.42
-5.89
4.15
12.99
20.08
25.05
27.65
27.88
26.05
22.83
19.03
15.46
12.60
10.61
9.31
8.42
7.66
6.90
6.08
5.16
4.04
2.52
0.28
-3.07
-7.94
-14.50
-22.57
-31.34
-39.51
-45.44
-47.77
-45.73
-39.39
-29.62
-17.70
-4.98
7.36
18.41
27.47
33.96
37.59
38.36
36.71
33.45
29.51
25.71
22.57
20.19
18.40
16.91
15.46
13.88
12.12
10.12
7.79
5.02
1.65
-2.53
-7.72
-14.10
-21.64
-29.92
-38.05
-44.73
-48.55
-48.41
-43.83
-35.10
-23.20
-9.53
4.43
17.38
28.33
36.62
41.96
44.35
44.13
41.88
38.35
34.39
30.72
27.87
26.00
24.91
24.18
23.27
21.86
19.82
17.33
14.60
11.72
8.47
4.35
-1.22
-8.66
-17.90
-28.16
-37.99
-45.62
-49.38
-48.19
-41.91
-31.32
-17.88
-3.18
11.29
24.39
35.30
43.40
48.23
49.65
47.94
43.97
39.03
34.47
31.27
29.78
29.60
29.90
29.84
28.90
27.05
24.63
22.07
19.58
17.06
14.11
10.15
4.68
-2.63
-11.68
-21.92
-32.24
-41.13
-46.92
-48.33
-44.76
-36.55
-24.79
-11.00
3.32
16.92
28.86
38.41
45.03
48.41
48.66
46.31
42.36
37.89
33.83
30.70
28.58
27.21
26.24
25.31
24.23
22.91
21.34
19.43
17.07
13.98
9.85
4.38
-2.63
-11.14
-20.75
-30.65
-39.63
-46.31
-49.44
-48.20
-42.51
-33.01
-20.91
-7.68
5.30
16.88
26.20
32.71
36.17
36.66
34.62
30.80
26.07
21.27
17.02
13.72
11.47
10.19
9.66
9.58
9.65
9.62
9.31
8.55
7.15
4.79
1.07
-4.39
-11.72
-20.60
-30.12
-38.90
-45.36
-48.15
-46.53
-40.56
-30.97
-18.94
-5.79
7.31
19.31
29.28
36.45
40.30
40.70
38.10
33.44
27.94
22.77
18.73
16.08
14.64
13.89
13.37
12.74
11.89
10.84
9.58
7.94
5.64
2.32
-2.30
-8.41
-15.98
-24.72
-33.94
-42.52
-49.05
-52.08
-50.65
-44.57
-34.49
-21.74
-7.87
5.74
18.07
28.40
36.19
41.00
42.57
41.03
37.03
31.66
26.20
21.72
18.80
17.42
17.03
16.93
16.51
15.49
13.83
11.68
9.19
6.37
3.14
-0.68
-5.34
-11.08
-18.11
-26.34
-35.25
-43.80
-50.59
-54.19
-53.59
-48.56
-39.63
-27.95
-14.86
-1.66
10.66
21.38
29.94
35.93
39.12
39.50
37.42
33.62
29.04
24.66
21.19
18.92
17.67
16.98
16.36
15.47
14.28
12.83
11.15
9.12
6.47
2.91
-1.71
-7.35
-13.88
-21.09
-28.77
-36.53
-43.70
-49.29
-52.15
-51.36
-46.53
-38.05
-26.96
-14.66
-2.49
8.51
17.72
24.78
29.53
31.91
32.00
30.08
26.69
22.56
18.49
15.13
12.87
11.70
11.26
11.04
10.53
9.46
7.84
5.88
3.80
1.68
-0.68
-3.65
-7.64
-12.89
-19.39
-26.80
-34.52
-41.69
-47.32
-50.46
-50.39
-46.84
-40.08
-30.84
-20.12
-8.96
1.68
11.02
18.42
23.40
25.72
25.49
23.24
19.81
16.20
13.22
11.34
10.57
10.58
10.96
11.37
11.64
11.74
11.71
11.51
10.96
9.81
7.76
4.56
0.01
-5.97
-13.27
-21.43
-29.60
-36.61
-41.24
-42.56
-40.21
-34.52
-26.32
-16.68
-6.63
3.04
11.72
18.88
24.05
26.84
27.09
25.06
21.38
16.96
12.75
9.47
7.46
6.63
6.54
6.66
6.52
5.89
4.82
3.55
2.30
1.19
0.10
-1.20
-2.98
-5.37
-8.36
-11.73
-15.07
-17.72
-18.79
-17.18
-11.89
-2.34
11.31
28.03
46.18
63.81
79.13
90.79
97.98
100.38
98.05
91.40
81.10
68.01
53.16
37.63
22.39
8.30
-4.09
-14.53
-23.01
-29.81
-35.34
-40.04
-44.29
-48.40
-52.64
-57.29
-62.56
-68.66
-75.68
-83.63
-92.42
-101.95
-111.99
-122.19
-131.97
-140.55
-147.04
-150.61
-150.63
-146.75
-138.90
-127.36
-112.73
-96.05
-78.74
-62.24
-47.53
-34.67
-22.78
-10.44
3.54
19.50
36.74
53.96
69.94
84.05
96.31
107.07
116.45
124.21
129.84
132.96
133.53
131.90
128.50
123.52
116.85
108.29
97.89
86.29
74.74
64.73
57.46
53.34
51.79
51.50
50.98
49.14
45.60
40.65
34.76
28.13
20.41
10.77
-1.60
-16.89
-34.25
-51.81
-67.07
-77.64
-81.94
-79.68
-71.95
-60.87
-49.00
-38.56
-30.98
-26.57
-24.78
-24.71
-25.72
-27.82
-31.57
-37.68
-46.24
-56.35
-66.13
-73.36
-76.28
-74.07
-66.98
-55.96
-42.29
-27.23
-12.04
1.95
13.43
21.42
25.75
27.24
27.60
28.77
32.06
37.65
44.54
50.99
55.20
55.77
51.83
43.03
29.60
12.52
-6.34
-24.28
-38.53
-47.10
-49.62
-47.54
-43.40
-39.75
-38.00
-38.11
-38.83
-38.54
-36.09
-31.23
-24.56
-17.14
-10.09
-4.19
0.23
3.17
4.70
4.80
3.17
-0.60
-6.81
-15.26
-25.10
-34.97
-43.43
-49.47
-52.89
-54.24
-54.49
-54.42
-54.31
-53.82
-52.43
-49.84
-46.40
-43.12
-41.38
-42.45
-46.98
-54.72
-64.48
-74.36
-82.04
-85.16
-81.81
-70.94
-52.87
-29.47
-4.00
19.62
37.89
48.66
51.76
48.89
42.95
37.11
33.92
34.88
40.45
50.32
63.65
79.18
95.20
109.66
120.41
125.79
125.08
118.67
107.94
94.66
80.33
65.76
50.92
35.38
18.73
1.16
-16.42
-32.50
-45.38
-53.70
-56.78
-54.86
-48.96
-40.48
-30.86
-21.17
-11.97
-3.41
4.64
12.35
19.70
26.42
31.98
35.71
36.99
35.47
31.12
24.14
14.84
3.52
-9.47
-23.66
-38.27
-52.26
-64.43
-73.90
-80.29
-83.87
-85.33
-85.29
-83.92
-80.85
-75.35
-66.89
-55.66
-42.76
-29.97
-19.15
-11.48
-7.15
-5.47
-5.38
-6.14
-7.59
-9.97
-13.41
-17.48
-21.02
-22.59
-21.03
-16.07
-8.38
0.64
9.50
16.99
22.55
26.14
27.96
28.23
26.91
23.67
17.99
9.47
-1.87
-15.27
-29.22
-41.75
-50.93
-55.48
-55.03
-50.17
-42.11
-32.24
-21.85
-12.09
-4.02
1.35
3.26
1.49
-3.34
-9.61
-15.18
-17.96
-16.70
-11.43
-3.40
5.51
13.55
19.71
23.88
26.52
28.17
29.04
28.91
27.49
24.67
20.76
16.44
12.60
10.33
10.82
15.35
24.98
40.08
59.87
82.21
103.92
121.62
132.61
135.60
130.90
120.01
105.07
88.17
70.99
54.67
39.86
26.88
15.81
6.64
-0.78
-6.74
-11.53
-15.45
-18.65
-21.16
-22.91
-23.96
-24.62
-25.58
-27.84
-32.37
-39.70
-49.47
-60.29
-69.98
-76.23
-77.24
-72.40
-62.35
-48.70
-33.38
-18.14
-4.17
7.88
17.64
24.89
29.47
31.41
31.10
29.25
26.79
24.52
22.91
21.93
21.24
20.32
18.84
16.75
14.27
11.74
9.39
7.14
4.51
0.83
-4.62
-12.15
-21.38
-31.15
-39.66
-44.99
-45.58
-40.85
-31.27
-18.21
-3.43
11.39
24.98
36.57
45.69
52.05
55.50
56.07
54.14
50.42
45.87
41.39
37.60
34.64
32.24
29.97
27.47
24.66
21.76
19.06
16.73
14.67
12.48
9.54
5.24
-0.82
-8.72
-18.09
-27.98
-37.00
-43.51
-46.03
-43.64
-36.31
-24.90
-10.94
3.82
17.82
29.92
39.45
46.04
49.56
50.10
47.98
43.88
38.72
33.49
28.99
25.65
23.38
21.78
20.25
18.39
16.08
13.49
10.92
8.56
6.33
3.82
0.44
-4.39
-11.04
-19.40
-28.85
-38.26
-46.16
-51.05
-51.77
-47.81
-39.47
-27.77
-14.15
-0.10
13.13
24.65
33.83
40.19
43.40
43.39
40.50
35.55
29.70
24.14
19.77
16.93
15.41
14.63
13.94
12.91
11.40
9.52
7.42
5.18
2.65
-0.49
-4.63
-10.08
-16.87
-24.66
-32.68
-39.76
-44.60
-46.00
-43.27
-36.42
-26.24
-14.02
-1.18
11.04
21.77
30.53
36.97
40.81
41.86
40.14
36.11
30.66
24.94
20.03
16.58
14.63
13.77
13.26
12.46
11.03
9.00
6.66
4.31
2.11
-0.07
-2.59
-5.96
-10.62
-16.80
-24.24
-32.23
-39.57
-44.89
-46.98
-45.16
-39.49
-30.68
-19.91
-8.43
2.65
12.55
20.75
26.87
30.66
32.03
31.11
28.36
24.55
20.54
17.12
14.72
13.34
12.65
12.11
11.31
10.05
8.43
6.65
4.92
3.27
1.55
-0.49
-3.11
-6.54
-11.00
-16.56
-23.13
-30.26
-37.08
-42.43
-45.09
-44.20
-39.61
-31.90
-22.24
-11.97
-2.18
6.37
13.31
18.43
21.56
22.59
21.56
18.84
15.16
11.42
8.48
6.78
6.30
6.55
6.91
6.82
6.10
4.84
3.34
1.87
0.47
-1.06
-3.04
-5.80
-9.52
-14.24
-19.83
-25.95
-32.10
-37.48
-41.16
-42.23
-40.09
-34.70
-26.61
-16.84
-6.57
3.16
11.51
18.00
22.31
24.29
24.03
21.89
18.53
14.74
11.36
8.95
7.70
7.42
7.60
7.64
7.04
5.64
3.50
0.96
-1.64
-4.13
-6.55
-9.19
-12.41
-16.51
-21.59
-27.43
-33.47
-38.87
-42.61
-43.78
-41.83
-36.75
-29.16
-20.08
-10.61
-1.68
6.12
12.47
17.22
20.24
21.43
20.79
18.61
15.47
12.19
9.53
7.95
7.45
7.60
7.77
7.40
6.28
4.58
2.67
0.92
-0.51
-1.76
-3.19
-5.25
-8.37
-12.76
-18.42
-25.02
-31.87
-37.99
-42.30
-43.89
-42.28
-37.61
-30.49
-21.90
-12.83
-4.16
3.48
9.66
14.12
16.68
17.34
16.32
14.02
11.06
8.07
5.60
3.95
3.17
3.03
3.14
3.16
2.84
2.13
1.17
0.16
-0.78
-1.67
-2.75
-4.40
-7.02
-10.91
-16.10
-22.25
-28.69
-34.46
-38.56
-40.14
-38.78
-34.60
-28.13
-20.22
-11.75
-3.46
4.06
10.35
14.95
17.53
17.92
16.32
13.32
9.77
6.53
4.13
2.72
2.02
1.60
1.08
0.36
-0.47
-1.26
-1.93
-2.63
-3.70
-5.52
-8.35
-12.27
-17.20
-22.89
-28.93
-34.76
-39.66
-42.81
-43.46
-41.20
-36.08
-28.61
-19.69
-10.28
-1.25
6.74
13.25
17.97
20.68
21.33
20.10
17.43
13.98
10.48
7.52
5.40
4.14
3.48
3.11
2.71
2.12
1.28
0.17
-1.18
-2.88
-5.07
-7.99
-11.86
-16.82
-22.75
-29.29
-35.67
-40.87
-43.89
-43.99
-40.95
-35.15
-27.36
-18.50
-9.32
-0.38
7.90
15.09
20.68
24.21
25.43
24.53
22.12
19.05
16.08
13.71
12.02
10.87
9.97
9.12
8.23
7.25
6.16
4.86
3.20
0.99
-1.97
-5.85
-10.72
-16.55
-23.22
-30.35
-37.34
-43.34
-47.42
-48.75
-46.82
-41.62
-33.58
-23.48
-12.26
-0.89
9.73
18.85
25.81
30.23
31.99
31.34
28.85
25.27
21.42
18.01
15.48
14.00
13.44
13.47
13.63
13.52
12.81
11.37
9.22
6.42
3.02
-1.06
-6.02
-12.04
-19.11
-26.85
-34.43
-40.72
-44.53
-44.98
-41.71
-34.99
-25.55
-14.42
-2.68
8.65
18.63
26.49
31.63
33.77
33.00
29.91
25.41
20.58
16.32
13.24
11.50
10.83
10.80
10.91
10.83
10.37
9.47
8.10
6.18
3.48
-0.30
-5.44
-12.11
-20.07
-28.67
-36.81
-43.22
-46.73
-46.57
-42.54
-34.97
-24.60
-12.40
0.58
13.22
24.40
33.11
38.60
40.58
39.35
35.74
30.87
25.81
21.32
17.72
14.99
12.92
11.28
9.93
8.79
7.75
6.66
5.29
3.36
0.62
-3.16
-8.22
-14.67
-22.39
-30.84
-39.00
-45.49
-48.91
-48.22
-43.04
-33.80
-21.54
-7.66
6.44
19.54
30.64
39.02
44.21
46.06
44.82
41.15
36.01
30.47
25.40
21.37
18.55
16.80
15.82
15.25
14.81
14.24
13.35
11.97
9.86
6.78
2.40
-3.60
-11.30
-20.41
-30.07
-38.95
-45.52
-48.50
-47.18
-41.63
-32.55
-21.03
-8.27
4.63
16.62
26.72
34.02
37.84
37.97
34.78
29.26
22.72
16.45
11.36
7.84
5.81
4.87
4.60
4.66
4.81
4.83
4.43
3.29
1.05
-2.63
-8.00
-15.14
-23.78
-33.25
-42.35
-49.54
-53.25
-52.33
-46.40
-35.97
-22.22
-6.65
9.16
23.85
36.17
45.11
49.96
50.56
47.42
41.71
34.92
28.44
23.23
19.61
17.41
16.16
15.39
14.74
14.00
13.03
11.66
9.73
7.04
3.33
-1.67
-8.26
-16.58
-26.47
-37.20
-47.43
-55.38
-59.24
-57.74
-50.58
-38.50
-23.06
-6.11
10.68
26.10
39.33
49.80
57.01
60.58
60.48
57.13
51.50
44.91
38.69
33.81
30.64
28.96
28.11
27.34
26.02
23.84
20.82
17.20
13.21
8.97
4.39
-0.87
-7.27
-15.26
-25.07
-36.50
-48.68
-60.17
-69.10
-73.64
-72.55
-65.52
-53.23
-37.16
-19.10
-0.75
16.49
31.66
43.98
52.91
58.17
59.81
58.36
54.79
50.27
45.87
42.33
39.91
38.44
37.51
36.64
35.41
33.58
31.04
27.82
24.03
19.80
15.19
10.13
4.38
-2.45
-10.74
-20.65
-31.92
-43.68
-54.49
-62.62
-66.38
-64.69
-57.28
-44.86
-28.86
-11.05
6.87
23.49
37.82
49.23
57.33
61.97
63.30
61.78
58.18
53.52
48.79
44.79
41.95
40.26
39.37
38.75
37.93
36.55
34.48
31.70
28.24
24.14
19.39
14.03
8.13
1.78
-5.04
-12.50
-20.87
-30.30
-40.49
-50.45
-58.58
-63.06
-62.47
-56.24
-44.94
-30.03
-13.43
3.04
18.04
30.75
40.79
47.95
52.21
53.65
52.57
49.56
45.45
41.11
37.29
34.48
32.76
31.97
31.72
31.58
31.19
30.28
28.68
26.25
22.95
18.76
13.82
8.36
2.68
-2.92
-8.36
-13.82
-19.76
-26.68
-34.81
-43.76
-52.42
-59.13
-62.15
-60.26
-53.18
-41.70
-27.33
-11.89
3.05
16.31
27.18
35.22
40.24
42.25
41.58
38.96
35.33
31.68
28.75
26.89
26.08
26.02
26.33
26.71
26.97
26.99
26.70
25.92
24.45
22.05
18.65
14.38
9.63
4.85
0.36
-3.85
-8.20
-13.31
-19.71
-27.41
-35.75
-43.44
-48.88
-50.69
-48.08
-41.18
-30.90
-18.73
-6.27
5.08
14.33
20.97
24.85
26.08
24.95
21.98
17.84
13.35
9.32
6.40
4.89
4.78
5.71
7.14
8.51
9.33
9.29
8.22
6.17
3.32
-0.06
-3.67
-7.28
-10.81
-14.31
-17.95
-21.96
-26.53
-31.67
-37.19
-42.50
-46.74
-48.89
-48.10
-43.98
-36.83
-27.54
-17.32
-7.33
1.56
8.85
14.27
17.63
18.75
17.62
14.48
10.05
5.32
1.27
-1.42
-2.53
-2.35
-1.42
-0.29
0.65
1.24
1.43
1.24
0.68
-0.32
-1.78
-3.71
-6.08
-8.95
-12.40
-16.66
-21.85
-27.88
-34.23
-39.94
-43.76
-44.54
-41.71
-35.41
-26.57
-16.48
-6.41
2.70
10.32
16.20
20.13
21.90
21.35
18.60
14.22
9.14
4.46
1.03
-0.78
-1.14
-0.66
-0.03
0.19
-0.22
-1.14
-2.36
-3.67
-5.04
-6.59
-8.54
-11.05
-14.20
-17.95
-22.25
-26.99
-31.92
-36.56
-40.16
-41.81
-40.71
-36.48
-29.34
-20.09
-9.88
0.18
9.17
16.51
21.88
25.16
26.30
25.41
22.82
19.06
14.86
10.98
7.99
6.18
5.44
5.47
5.76
5.89
5.54
4.63
3.27
1.62
-0.20
-2.23
-4.72
-8.01
-12.37
-17.88
-24.28
-30.97
-37.14
-41.91
-44.52
-44.46
-41.51
-35.87
-28.04
-18.78
-9.02
0.30
8.34
14.41
18.08
19.21
18.00
14.98
10.92
6.67
2.95
0.22
-1.45
-2.23
-2.46
-2.49
-2.63
-3.10
-4.02
-5.43
-7.25
-9.40
-11.83
-14.59
-17.91
-22.06
-27.14
-32.90
-38.67
-43.41
-46.01
-45.59
-41.79
-34.89
-25.71
-15.37
-4.94
4.69
12.88
19.23
23.46
25.42
25.17
23.06
19.80
16.25
13.20
11.09
9.94
9.33
8.78
7.95
6.76
5.39
4.08
2.90
1.69
0.06
-2.47
-6.32
-11.67
-18.45
-26.21
-34.10
-40.98
-45.65
-47.13
-44.95
-39.30
-30.89
-20.77
-9.97
0.64
10.34
18.47
24.42
27.67
28.04
25.82
21.82
17.15
12.89
9.74
7.92
7.17
7.01
6.94
6.63
5.96
4.94
3.63
2.02
0.01
-2.59
-5.99
-10.44
-16.11
-22.97
-30.66
-38.36
-44.95
-49.11
-49.79
-46.45
-39.31
-29.20
-17.41
-5.24
6.21
16.17
24.18
29.92
33.20
33.99
32.53
29.40
25.46
21.66
18.72
16.98
16.27
16.15
16.08
15.67
14.80
13.48
11.82
9.86
7.53
4.61
0.78
-4.29
-10.83
-18.79
-27.66
-36.47
-43.89
-48.55
-49.48
-46.27
-39.24
-29.20
-17.27
-4.57
7.85
19.02
28.03
34.13
36.87
36.30
33.04
28.14
22.83
18.16
14.73
12.62
11.55
11.06
10.77
10.43
9.94
9.23
8.20
6.67
4.45
1.41
-2.57
-7.61
-13.83
-21.23
-29.48
-37.77
-44.82
-49.13
-49.46
-45.21
-36.69
-24.99
-11.61
1.92
14.34
24.73
32.45
37.08
38.45
36.78
32.77
27.52
22.24
17.97
15.19
13.89
13.58
13.67
13.72
13.46
12.84
11.90
10.57
8.74
6.16
2.56
-2.35
-8.78
-16.70
-25.69
-34.81
-42.72
-47.89
-49.08
-45.66
-37.79
-26.33
-12.60
1.96
16.03
28.47
38.32
44.85
47.63
46.69
42.64
36.63
30.11
24.42
20.40
18.24
17.50
17.39
17.15
16.29
14.70
12.54
10.04
7.37
4.48
1.10
-3.17
-8.77
-16.04
-24.93
-34.90
-44.81
-53.06
-58.00
-58.39
-53.72
-44.38
-31.45
-16.43
-0.87
13.85
26.61
36.55
43.07
45.92
45.32
41.94
36.88
31.37
26.51
23.02
21.09
20.49
20.63
20.87
20.69
19.82
18.26
16.16
13.69
10.86
7.49
3.19
-2.45
-9.69
-18.44
-28.17
-37.86
-46.17
-51.74
-53.40
-50.56
-43.20
-32.01
-18.16
-3.09
11.69
24.84
35.30
42.39
45.83
45.80
42.86
37.92
32.09
26.46
21.87
18.74
17.08
16.49
16.43
16.38
15.98
15.10
13.75
11.94
9.65
6.75
3.02
-1.79
-7.91
-15.47
-24.36
-34.05
-43.54
-51.38
-56.05
-56.30
-51.60
-42.33
-29.62
-15.02
-0.06
13.95
26.06
35.50
41.69
44.24
43.19
39.12
33.17
26.75
21.17
17.24
15.14
14.47
14.55
14.73
14.56
13.91
12.81
11.35
9.57
7.38
4.57
0.89
-3.99
-10.27
-17.98
-26.67
-35.45
-42.97
-47.78
-48.68
-45.02
-36.95
-25.26
-11.25
3.61
17.90
30.37
40.06
46.27
48.74
47.65
43.62
37.62
30.87
24.53
19.49
16.21
14.64
14.33
14.59
14.77
14.43
13.35
11.53
9.04
5.97
2.29
-2.12
-7.49
-14.14
-22.18
-31.34
-40.80
-49.16
-54.76
-56.19
-52.73
-44.56
-32.66
-18.43
-3.33
11.44
24.82
35.92
43.85
47.96
48.02
44.51
38.59
31.81
25.71
21.29
18.80
17.82
17.62
17.46
16.93
15.96
14.60
12.96
10.94
8.36
4.99
0.66
-4.73
-11.28
-19.01
-27.78
-37.04
-45.79
-52.66
-56.26
-55.59
-50.35
-41.02
-28.68
-14.67
-0.34
13.17
24.93
34.18
40.30
42.99
42.28
38.72
33.30
27.24
21.76
17.70
15.38
14.55
14.61
14.87
14.85
14.33
13.35
11.96
10.12
7.65
4.31
-0.12
-5.76
-12.65
-20.73
-29.70
-38.93
-47.40
-53.77
-56.75
-55.44
-49.68
-40.05
-27.67
-13.88
0.01
12.85
23.60
31.37
35.52
35.90
32.96
27.72
21.51
15.61
10.93
7.83
6.27
5.90
6.28
6.98
7.59
7.82
7.43
6.32
4.46
1.87
-1.47
-5.72
-11.09
-17.72
-25.39
-33.44
-40.68
-45.71
-47.23
-44.45
-37.38
-26.80
-14.02
-0.53
12.33
23.51
32.28
38.16
40.89
40.44
37.21
31.97
25.85
20.04
15.49
12.65
11.42
11.29
11.62
11.85
11.65
10.89
9.56
7.62
4.97
1.40
-3.28
-9.27
-16.56
-24.95
-33.82
-42.20
-48.82
-52.40
-51.97
-47.10
-38.10
-25.89
-11.84
2.55
15.89
27.02
35.13
39.82
41.10
39.41
35.55
30.52
25.36
20.92
17.74
15.93
15.20
15.04
14.86
14.28
13.15
11.58
9.77
7.85
5.72
3.08
-0.54
-5.56
-12.23
-20.40
-29.46
-38.32
-45.58
-49.85
-50.13
-46.09
-38.17
-27.39
-15.08
-2.53
9.17
19.14
26.73
31.46
33.16
32.06
28.79
24.30
19.63
15.63
12.81
11.26
10.66
10.53
10.35
9.77
8.66
7.11
5.30
3.31
1.05
-1.77
-5.51
-10.49
-16.79
-24.17
-32.01
-39.36
-45.12
-48.22
-47.92
-43.91
-36.44
-26.26
-14.40
-2.11
9.37
18.95
25.77
29.35
29.71
27.33
23.07
17.98
13.07
9.04
6.27
4.75
4.21
4.25
4.51
4.67
4.55
4.00
2.94
1.24
-1.21
-4.55
-8.93
-14.40
-20.92
-28.08
-35.11
-40.89
-44.22
-44.14
-40.26
-32.87
-22.82
-11.26
0.60
11.67
21.03
27.94
31.92
32.84
31.01
27.14
22.20
17.20
12.96
9.95
8.23
7.57
7.54
7.65
7.51
6.93
5.86
4.33
2.31
-0.35
-3.98
-8.92
-15.36
-23.10
-31.43
-39.21
-45.07
-47.79
-46.65
-41.57
-33.11
-22.29
-10.25
1.90
13.20
22.79
29.95
34.12
35.09
33.14
29.02
23.85
18.77
14.65
11.92
10.51
10.00
9.84
9.57
8.93
7.88
6.49
4.81
2.71
-0.08
-3.94
-9.20
-15.98
-24.03
-32.66
-40.88
-47.49
-51.36
-51.63
-48.00
-40.65
-30.33
-18.13
-5.34
6.79
17.17
25.00
29.80
31.57
30.67
27.83
23.95
19.90
16.35
13.65
11.85
10.74
10.00
9.33
8.46
7.24
5.63
3.68
1.36
-1.39
-4.81
-9.25
-15.03
-22.25
-30.61
-39.34
-47.29
-53.20
-55.93
-54.80
-49.78
-41.36
-30.52
-18.46
-6.39
4.61
13.63
19.99
23.32
23.59
21.26
17.19
12.51
8.34
5.47
4.19
4.33
5.38
6.77
8.03
8.87
9.09
8.59
7.23
4.95
1.66
-2.76
-8.45
-15.44
-23.55
-32.13
-40.02
-45.77
-48.01
-45.97
-39.70
-30.06
-18.41
-6.16
5.50
15.69
23.79
29.30
31.91
31.62
28.80
24.31
19.22
14.59
11.17
9.23
8.61
8.88
9.54
10.15
10.46
10.30
9.55
8.06
5.64
2.08
-2.79
-9.06
-16.60
-24.95
-33.25
-40.31
-44.80
-45.58
-42.08
-34.43
-23.50
-10.62
2.73
15.21
25.81
33.80
38.76
40.54
39.34
35.76
30.73
25.35
20.61
17.14
15.07
14.13
13.82
13.68
13.42
12.94
12.23
11.23
9.74
7.50
4.20
-0.43
-6.53
-14.08
-22.79
-31.95
-40.43
-46.74
-49.43
-47.48
-40.66
-29.66
-15.91
-1.18
12.86
24.88
34.02
39.81
42.12
41.12
37.36
31.67
25.19
19.06
14.17
10.99
9.50
9.23
9.53
9.80
9.65
8.99
7.86
6.34
4.38
1.70
-2.11
-7.43
-14.39
-22.64
-31.29
-39.02
-44.35
-46.02
-43.36
-36.50
-26.30
-14.09
-1.33
10.69
20.95
28.72
33.48
34.97
33.28
28.93
22.90
16.37
10.48
6.01
3.18
1.74
1.08
0.58
-0.26
-1.69
-3.77
-6.46
-9.69
-13.50
-17.97
-23.26
-29.54
-36.76
-44.58
-52.15
-58.26
-61.52
-60.77
-55.45
-45.77
-32.65
-17.47
-1.74
13.18
26.10
36.10
42.54
45.17
44.25
40.58
35.38
29.93
25.25
21.86
19.76
18.56
17.75
16.92
15.85
14.45
12.71
10.63
8.12
5.07
1.33
-3.33
-9.12
-16.17
-24.32
-32.87
-40.58
-45.86
-47.21
-43.73
-35.46
-23.34
-8.91
6.20
20.60
33.32
43.63
51.01
55.07
55.73
53.37
48.89
43.49
38.39
34.43
31.92
30.61
29.92
29.21
28.07
26.32
24.04
21.38
18.38
14.90
10.61
5.12
-1.89
-10.51
-20.40
-30.78
-40.46
-47.99
-52.02
-51.60
-46.46
-37.07
-24.53
-10.28
4.13
17.26
27.87
35.07
38.43
38.06
34.68
29.42
23.56
18.21
14.06
11.33
9.83
9.18
8.96
8.82
8.53
7.95
6.97
5.44
3.20
0.03
-4.36
-10.17
-17.43
-25.77
-34.35
-41.85
-46.73
-47.64
-43.88
-35.55
-23.60
-9.48
5.21
19.01
30.77
39.63
45.07
46.91
45.44
41.37
35.78
29.79
24.36
20.07
17.06
15.14
13.92
12.97
11.92
10.49
8.57
6.13
3.22
-0.22
-4.39
-9.66
-16.41
-24.69
-33.97
-43.05
-50.22
-53.77
-52.53
-46.23
-35.66
-22.24
-7.68
6.56
19.37
30.04
38.10
43.19
45.15
44.14
40.73
35.87
30.72
26.27
23.14
21.40
20.67
20.36
19.90
18.97
17.47
15.48
13.10
10.33
7.00
2.83
-2.50
-9.23
-17.32
-26.33
-35.29
-42.84
-47.49
-48.04
-43.97
-35.60
-23.97
-10.57
3.13
15.85
26.67
34.97
40.36
42.72
42.21
39.34
34.95
29.99
25.29
21.43
18.59
16.63
15.29
14.20
13.10
11.80
10.19
8.21
5.80
2.89
-0.66
-5.06
-10.58
-17.36
-25.27
-33.67
-41.47
-47.27
-49.74
-48.08
-42.17
-32.66
-20.70
-7.71
4.96
16.15
24.98
30.90
33.69
33.52
30.93
26.75
21.91
17.28
13.45
10.66
8.85
7.73
6.95
6.24
5.42
4.42
3.18
1.60
-0.53
-3.47
-7.49
-12.76
-19.21
-26.44
-33.68
-39.83
-43.73
-44.40
-41.33
-34.66
-25.09
-13.71
-1.75
9.64
19.57
27.37
32.62
35.09
34.84
32.23
27.97
22.96
18.14
14.25
11.60
10.12
9.36
8.81
8.04
6.86
5.26
3.27
0.91
-2.01
-5.74
-10.58
-16.71
-24.01
-32.00
-39.80
-46.25
-50.16
-50.63
-47.25
-40.23
-30.32
-18.62
-6.33
5.41
15.64
23.59
28.75
30.95
30.43
27.80
23.94
19.78
16.04
13.15
11.15
9.82
8.81
7.81
6.68
5.41
4.11
2.86
1.59
0.05
-2.20
-5.65
-10.67
-17.27
-24.96
-32.76
-39.37
-43.47
-44.07
-40.80
-34.00
-24.61
-13.89
-3.14
6.62
14.68
20.66
24.42
25.99
25.53
23.36
20.01
16.14
12.38
9.25
6.97
5.52
4.65
4.09
3.59
3.00
2.22
1.16
-0.28
-2.25
-4.91
-8.44
-13.03
-18.75
-25.35
-32.18
-38.13
-41.92
-42.46
-39.27
-32.62
-23.45
-13.05
-2.67
6.67
14.29
19.73
22.74
23.32
21.72
18.54
14.57
10.60
7.27
4.89
3.49
2.93
2.97
3.38
3.98
4.60
5.14
5.42
5.22
4.20
1.93
-1.97
-7.61
-14.61
-22.07
-28.62
-32.84
-33.70
-30.90
-24.91
-16.81
-7.83
0.92
8.66
14.88
19.21
21.41
21.37
19.25
15.47
10.60
5.16
-0.53
-6.33
-12.13
-17.72
-22.77
-27.00
-30.41
-33.41
-36.71
-41.12
-47.24
-55.23
-64.85
-75.46
-86.13
-95.86
-103.68
-108.85
-110.96
-109.97
-106.10
-99.67
-90.92
-79.98
-66.97
-52.13
-36.07
-19.74
-4.33
8.98
19.36
26.53
30.83
33.12
34.48
35.91
38.00
40.87
44.20
47.46
50.08
51.63
51.82
50.39
47.02
41.25
32.63
21.03
6.93
-8.32
-22.62
-33.43
-38.40
-36.01
-25.99
-9.40
11.65
34.49
56.49
75.45
89.89
99.13
103.17
102.61
98.35
91.44
82.84
73.44
63.94
54.91
46.78
39.81
34.05
29.39
25.61
22.39
19.48
16.60
13.45
9.59
4.52
-2.12
-10.22
-19.08
-27.34
-33.34
-35.66
-33.58
-27.29
-17.83
-6.63
4.82
15.33
24.01
30.30
33.83
34.48
32.47
28.36
23.01
17.38
12.21
7.93
4.62
2.13
0.28
-0.99
-1.73
-1.98
-1.98
-2.23
-3.37
-6.03
-10.64
-17.17
-25.09
-33.36
-40.67
-45.67
-47.30
-45.06
-39.11
-30.19
-19.45
-8.22
2.25
10.89
16.98
20.19
20.65
18.83
15.48
11.36
7.14
3.25
-0.03
-2.56
-4.31
-5.32
-5.76
-5.90
-6.06
-6.57
-7.74
-9.85
-13.22
-18.11
-24.58
-32.19
-39.92
-46.25
-49.53
-48.47
-42.58
-32.36
-19.11
-4.52
9.64
21.98
31.53
37.84
40.83
40.79
38.28
34.02
28.84
23.48
18.53
14.29
10.83
8.05
5.76
3.81
2.10
0.53
-1.09
-3.07
-5.89
-10.03
-15.82
-23.16
-31.36
-39.16
-44.99
-47.34
-45.22
-38.42
-27.59
-14.04
0.55
14.49
26.40
35.34
40.85
43.05
42.43
39.77
35.89
31.50
27.07
22.87
19.06
15.77
13.13
11.18
9.82
8.79
7.72
6.27
4.18
1.22
-2.83
-8.26
-15.19
-23.32
-31.70
-38.76
-42.68
-41.98
-36.12
-25.69
-12.22
2.31
16.03
27.60
36.23
41.64
43.91
43.36
40.59
36.35
31.51
26.79
22.66
19.30
16.65
14.57
12.95
11.69
10.71
9.83
8.78
7.17
4.62
0.77
-4.63
-11.57
-19.70
-28.13
-35.48
-40.12
-40.67
-36.45
-27.82
-16.07
-3.06
9.35
19.79
27.52
32.33
34.35
33.90
31.42
27.48
22.86
18.29
14.43
11.60
9.77
8.67
7.93
7.23
6.47
5.62
4.68
3.53
1.82
-0.92
-5.15
-11.06
-18.34
-26.05
-32.77
-36.95
-37.35
-33.47
-25.68
-15.11
-3.24
8.39
18.61
26.61
31.97
34.57
34.53
32.25
28.38
23.71
19.06
15.05
12.05
10.09
9.04
8.61
8.51
8.47
8.23
7.61
6.40
4.45
1.60
-2.31
-7.33
-13.31
-19.67
-25.47
-29.44
-30.43
-27.70
-21.24
-11.82
-0.78
10.35
20.21
27.88
32.91
35.25
35.17
33.10
29.64
25.43
21.09
17.15
13.92
11.48
9.73
8.49
7.53
6.70
5.90
5.01
3.92
2.46
0.43
-2.41
-6.22
-11.11
-16.97
-23.34
-29.39
-33.95
-35.78
-34.00
-28.43
-19.76
-9.37
1.01
9.85
16.11
19.43
19.97
18.26
14.98
10.89
6.73
3.12
0.52
-0.98
-1.60
-1.80
-2.05
-2.64
-3.65
-4.91
-6.20
-7.38
-8.52
-9.89
-11.87
-14.85
-19.01
-24.13
-29.51
-34.06
-36.59
-36.17
-32.49
-25.98
-17.64
-8.74
-0.44
6.40
11.28
13.99
14.57
13.18
10.28
6.49
2.57
-0.83
-3.35
-4.97
-5.96
-6.66
-7.35
-8.08
-8.81
-9.48
-10.15
-11.03
-12.38
-14.47
-17.42
-21.24
-25.71
-30.42
-34.73
-37.80
-38.79
-37.12
-32.73
-26.13
-18.36
-10.55
-3.67
1.64
5.17
6.87
6.88
5.37
2.74
-0.47
-3.57
-5.94
-7.21
-7.32
-6.55
-5.32
-4.06
-3.01
-2.28
-1.86
-1.77
-2.13
-3.19
-5.25
-8.51
-12.93
-18.07
-23.15
-27.17
-29.16
-28.50
-25.07
-19.30
-12.02
-4.18
3.31
9.84
15.01
18.60
20.51
20.71
19.30
16.59
13.12
9.59
6.64
4.68
3.82
3.84
4.33
4.83
5.00
4.70
3.93
2.77
1.19
-1.00
-4.22
-8.84
-14.97
-22.22
-29.61
-35.83
-39.57
-40.02
-37.05
-31.17
-23.32
-14.60
-6.01
1.57
7.44
11.12
12.38
11.40
8.68
5.02
1.37
-1.47
-2.95
-2.88
-1.39
1.14
4.26
7.61
10.86
13.84
16.36
18.24
19.22
18.96
17.14
13.54
8.27
1.87
-4.67
-10.03
-12.91
-12.43
-8.45
-1.58
7.02
15.93
23.86
29.83
33.18
33.62
31.14
26.09
19.16
11.32
3.61
-3.09
-8.27
-11.85
-14.06
-15.30
-15.92
-16.17
-16.20
-16.17
-16.31
-16.91
-18.31
-20.79
-24.52
-29.49
-35.44
-41.79
-47.69
-52.08
-53.97
-52.73
-48.31
-41.29
-32.70
-23.66
-15.09
-7.54
-1.26
3.65
7.11
9.04
9.50
8.81
7.58
6.51
6.12
6.55
7.51
8.48
8.96
8.72
7.83
6.54
5.08
3.53
1.75
-0.50
-3.47
-7.30
-11.91
-16.89
-21.53
-24.81
-25.73
-23.57
-18.15
-9.90
0.27
11.21
21.84
31.18
38.53
43.36
45.44
44.87
42.15
38.15
33.81
29.95
26.92
24.60
22.44
19.73
15.90
10.71
4.37
-2.55
-9.36
-15.52
-20.87
-25.65
-30.42
-35.80
-42.25
-49.78
-57.89
-65.64
-71.74
-74.96
-74.37
-69.66
-61.20
-50.00
-37.40
-24.84
-13.54
-4.39
2.08
5.71
6.70
5.60
3.29
0.77
-1.08
-1.69
-0.95
0.85
3.17
5.51
7.49
8.96
9.87
10.22
9.92
8.76
6.50
2.89
-2.17
-8.48
-15.46
-22.14
-27.29
-29.76
-28.75
-24.03
-16.03
-5.63
6.03
17.80
28.67
37.79
44.49
48.26
48.92
46.69
42.23
36.50
30.56
25.28
21.14
18.18
16.15
14.63
13.25
11.77
10.04
7.99
5.52
2.45
-1.44
-6.40
-12.70
-20.42
-29.31
-38.64
-47.12
-53.13
-55.15
-52.25
-44.43
-32.67
-18.59
-3.94
9.93
22.16
32.38
40.34
45.74
48.26
47.83
44.85
40.29
35.43
31.41
28.78
27.42
26.62
25.57
23.72
21.01
17.79
14.53
11.50
8.63
5.54
1.73
-3.23
-9.62
-17.40
-26.20
-35.21
-43.28
-48.97
-50.98
-48.41
-41.14
-29.85
-15.90
-0.96
13.39
25.84
35.56
42.11
45.37
45.54
43.12
38.89
33.85
29.04
25.24
22.78
21.51
20.90
20.34
19.38
17.96
16.22
14.37
12.46
10.28
7.31
2.99
-3.06
-10.85
-19.80
-28.76
-36.26
-40.75
-41.06
-36.77
-28.23
-16.54
-3.22
10.13
22.06
31.38
37.29
39.36
37.66
32.84
25.96
18.23
10.67
3.82
-2.37
-8.30
-14.39
-20.76
-27.09
-32.76
-37.16
-39.93
-41.15
-41.25
-40.92
-40.92
-41.99
-44.59
-48.71
-53.72
-58.23
-60.46
-58.58
-51.39
-38.70
-21.41
-1.21
19.79
39.63
56.70
69.83
78.34
82.03
81.32
77.18
71.09
64.69
59.33
55.82
54.25
54.16
54.82
55.54
55.86
55.57
54.60
52.95
50.61
47.49
43.40
37.96
30.71
21.31
9.91
-2.55
-14.34
-23.30
-27.50
-25.93
-18.81
-7.51
6.01
19.76
32.16
42.17
49.08
52.46
52.09
48.12
41.26
32.70
23.98
16.47
11.12
8.15
7.16
7.31
7.73
7.71
6.92
5.33
3.05
0.13
-3.52
-8.22
-14.42
-22.42
-32.18
-43.02
-53.67
-62.37
-67.39
-67.51
-62.35
-52.53
-39.42
-24.76
-10.25
2.79
13.49
21.32
26.08
27.74
26.56
23.14
18.37
13.31
8.88
5.68
3.82
2.98
2.67
2.43
2.04
1.45
0.73
-0.16
-1.47
-3.59
-7.02
-12.14
-19.04
-27.39
-36.28
-44.31
-49.81
-51.28
-47.79
-39.33
-26.82
-11.86
3.72
18.26
30.51
39.72
45.52
47.89
47.12
43.90
39.20
34.15
29.75
26.61
24.92
24.42
24.67
25.20
25.61
25.66
25.13
23.79
21.40
17.73
12.54
5.66
-2.98
-13.15
-24.21
-34.96
-43.80
-49.11
-49.69
-45.19
-36.21
-24.09
-10.46
3.12
15.43
25.55
32.91
37.14
38.15
36.26
32.17
26.88
21.46
16.81
13.43
11.36
10.21
9.38
8.30
6.64
4.38
1.76
-0.98
-3.81
-6.96
-10.95
-16.31
-23.37
-31.98
-41.41
-50.39
-57.33
-60.69
-59.43
-53.30
-42.98
-29.80
-15.43
-1.38
11.23
21.68
29.51
34.45
36.35
35.40
32.22
27.83
23.40
19.86
17.67
16.60
16.05
15.34
14.05
12.16
9.96
7.83
5.90
4.02
1.77
-1.36
-5.77
-11.59
-18.67
-26.50
-34.24
-40.78
-44.88
-45.49
-42.03
-34.57
-23.94
-11.44
1.41
13.22
22.92
29.83
33.67
34.51
32.79
29.26
24.82
20.41
16.71
14.10
12.55
11.81
11.48
11.18
10.62
9.64
8.16
6.14
3.57
0.38
-3.53
-8.36
-14.29
-21.29
-28.95
-36.33
-42.17
-45.14
-44.31
-39.49
-31.26
-20.76
-9.30
1.96
12.19
20.82
27.40
31.54
32.96
31.70
28.22
23.45
18.48
14.32
11.53
10.13
9.64
9.37
8.71
7.36
5.39
3.05
0.62
-1.86
-4.51
-7.71
-11.87
-17.28
-23.99
-31.57
-39.13
-45.35
-48.85
-48.54
-44.05
-35.81
-24.93
-12.79
-0.69
10.39
19.79
27.06
31.82
33.92
33.45
30.96
27.36
23.65
20.65
18.72
17.76
17.32
16.87
16.04
14.73
13.07
11.29
9.51
7.66
5.48
2.60
-1.36
-6.70
-13.48
-21.49
-30.12
-38.38
-45.01
-48.77
-48.73
-44.61
-36.82
-26.43
-14.78
-3.23
7.19
15.78
22.19
26.24
27.87
27.21
24.60
20.66
16.22
12.09
8.87
6.78
5.59
4.82
3.96
2.68
0.90
-1.25
-3.59
-6.16
-9.14
-12.95
-17.97
-24.39
-32.06
-40.37
-48.38
-54.90
-58.82
-59.32
-56.06
-49.29
-39.71
-28.34
-16.29
-4.69
5.50
13.45
18.57
20.65
19.92
17.07
13.11
9.10
5.83
3.74
2.85
2.87
3.37
3.96
4.38
4.48
4.24
3.65
2.67
1.18
-1.02
-4.19
-8.56
-14.22
-20.91
-27.94
-34.21
-38.40
-39.32
-36.25
-29.19
-18.87
-6.49
6.54
18.94
29.72
38.17
43.87
46.61
46.52
44.00
39.78
34.75
29.76
25.41
21.98
19.37
17.28
15.38
13.46
11.49
9.56
7.77
6.07
4.21
1.76
-1.77
-6.79
-13.42
-21.38
-29.96
-38.02
-44.23
-47.36
-46.58
-41.67
-33.11
-21.89
-9.31
3.33
14.93
24.65
31.88
36.29
37.77
36.56
33.27
28.79
24.12
20.10
17.14
15.15
13.71
12.26
10.47
8.32
6.02
3.84
1.86
-0.12
-2.50
-5.68
-10.00
-15.64
-22.59
-30.58
-39.02
-46.86
-52.71
-55.11
-53.04
-46.28
-35.56
-22.34
-8.42
4.61
15.56
23.77
29.01
31.29
30.91
28.35
24.37
19.81
15.50
12.07
9.74
8.40
7.60
6.78
5.46
3.44
0.90
-1.67
-3.65
-4.52
-4.17
-2.92
-1.48
-0.71
-1.28
-3.43
-6.83
-10.72
-14.11
-16.13
-16.22
-14.22
-10.30
-4.87
1.54
8.30
14.69
19.88
23.12
23.98
22.62
19.79
16.65
14.38
13.73
14.78
16.89
19.06
20.33
20.09
18.29
15.31
11.69
7.86
3.98
-0.11
-4.84
-10.64
-17.78
-26.04
-34.74
-42.68
-48.53
-51.11
-49.83
-44.77
-36.65
-26.53
-15.53
-4.61
5.41
13.83
20.06
23.63
24.49
23.11
20.39
17.41
15.08
13.84
13.56
13.79
13.98
13.74
12.93
11.60
9.86
7.78
5.34
2.45
-1.07
-5.39
-10.73
-17.15
-24.46
-32.02
-38.77
-43.42
-44.79
-42.16
-35.48
-25.36
-12.92
0.44
13.34
24.49
32.90
37.95
39.55
38.07
34.34
29.36
24.13
19.37
15.53
12.72
10.81
9.55
8.59
7.63
6.45
4.90
3.00
0.78
-1.74
-4.66
-8.26
-12.93
-18.99
-26.41
-34.64
-42.50
-48.47
-51.04
-49.24
-42.99
-33.06
-20.83
-7.90
4.38
14.94
23.15
28.58
31.04
30.60
27.72
23.21
18.11
13.42
9.83
7.53
6.29
5.58
4.83
3.72
2.13
0.21
-1.88
-4.08
-6.53
-9.62
-13.80
-19.44
-26.56
-34.69
-42.83
-49.59
-53.55
-53.62
-49.39
-41.21
-30.03
-17.22
-4.16
7.85
17.83
24.99
28.90
29.52
27.23
22.85
17.46
12.16
7.74
4.61
2.69
1.65
0.98
0.30
-0.64
-1.85
-3.25
-4.79
-6.55
-8.86
-12.22
-17.09
-23.67
-31.60
-39.91
-47.10
-51.54
-51.91
-47.59
-38.81
-26.58
-12.38
2.23
15.75
27.08
35.44
40.51
42.39
41.58
38.89
35.30
31.71
28.74
26.62
25.24
24.27
23.31
22.09
20.49
18.55
16.35
13.90
11.06
7.58
3.10
-2.75
-10.14
-18.92
-28.50
-37.78
-45.34
-49.72
-49.83
-45.25
-36.34
-24.19
-10.35
3.60
16.17
26.31
33.34
37.03
37.57
35.49
31.61
26.85
22.02
17.77
14.44
12.10
10.62
9.75
9.19
8.66
7.93
6.84
5.24
2.95
-0.32
-4.97
-11.40
-19.74
-29.54
-39.68
-48.44
-53.93
-54.72
-50.28
-41.16
-28.77
-14.88
-1.23
10.89
20.60
27.40
31.07
31.68
29.66
25.78
21.08
16.53
12.84
10.26
8.64
7.58
6.70
5.78
4.82
3.85
2.86
1.64
-0.20
-3.19
-7.82
-14.33
-22.51
-31.64
-40.41
-47.19
-50.38
-48.83
-42.22
-31.21
-17.21
-2.04
12.51
25.07
34.73
41.03
43.87
43.50
40.49
35.76
30.44
25.55
21.77
19.25
17.66
16.45
15.16
13.60
11.86
10.11
8.37
6.40
3.69
-0.36
-6.24
-14.10
-23.49
-33.38
-42.24
-48.34
-50.17
-46.93
-38.71
-26.53
-11.97
3.15
17.23
29.00
37.67
42.81
44.41
42.86
38.95
33.74
28.38
23.80
20.53
18.61
17.73
17.36
16.97
16.24
15.08
13.58
11.84
9.82
7.22
3.48
-2.00
-9.60
-19.24
-30.14
-40.89
-49.73
-54.99
-55.47
-50.80
-41.45
-28.63
-13.93
0.99
14.66
25.92
33.96
38.39
39.24
37.01
32.62
27.27
22.14
18.11
15.60
14.51
14.37
14.55
14.50
13.91
12.67
10.83
8.48
5.61
2.06
-2.45
-8.27
-15.63
-24.43
-34.03
-43.16
-50.16
-53.34
-51.58
-44.64
-33.31
-19.06
-3.68
11.19
24.20
34.35
40.91
43.48
42.20
37.78
31.50
24.88
19.26
15.43
13.46
12.89
12.99
13.13
12.94
12.33
11.40
10.20
8.64
6.46
3.15
-1.79
-8.68
-17.43
-27.25
-36.75
-44.10
-47.60
-46.05
-39.24
-27.90
-13.53
2.00
16.91
29.77
39.56
45.72
48.11
46.95
42.92
36.97
30.26
23.89
18.66
14.93
12.63
11.39
10.68
10.03
9.11
7.74
5.84
3.37
0.21
-3.90
-9.34
-16.47
-25.39
-35.65
-46.05
-54.80
-59.95
-60.00
-54.34
-43.54
-29.04
-12.73
3.57
18.40
30.75
39.94
45.56
47.47
46.03
42.09
36.95
32.02
28.35
26.40
25.91
26.17
26.34
25.81
24.36
22.13
19.38
16.32
12.93
9.06
4.46
-1.16
-8.01
-16.17
-25.41
-35.06
-43.87
-50.20
-52.42
-49.46
-41.18
-28.59
-13.43
2.26
16.69
28.62
37.33
42.51
44.11
42.41
38.05
32.04
25.66
20.05
15.96
13.54
12.42
12.01
11.76
11.38
10.78
10.01
9.02
7.65
5.56
2.34
-2.40
-8.92
-17.21
-26.87
-37.01
-46.29
-53.15
-56.16
-54.39
-47.72
-36.82
-23.01
-7.92
6.86
19.92
30.25
37.21
40.57
40.51
37.66
32.94
27.47
22.32
18.26
15.66
14.38
13.96
13.79
13.31
12.28
10.68
8.69
6.50
4.07
1.17
-2.68
-7.97
-14.98
-23.56
-32.96
-41.89
-48.71
-51.88
-50.39
-44.08
-33.73
-20.77
-6.88
6.40
17.93
26.93
32.93
35.69
35.32
32.31
27.60
22.37
17.69
14.23
12.10
10.96
10.21
9.38
8.26
6.89
5.40
3.86
2.15
-0.04
-3.12
-7.53
-13.56
-21.20
-30.00
-38.97
-46.67
-51.49
-52.16
-48.03
-39.44
-27.56
-14.06
-0.65
11.34
21.05
28.10
32.36
33.89
32.90
29.88
25.58
20.95
16.92
14.12
12.75
12.53
12.92
13.32
13.30
12.67
11.40
9.56
7.14
4.08
0.21
-4.68
-10.79
-18.16
-26.49
-35.06
-42.70
-48.02
-49.81
-47.44
-41.03
-31.46
-19.98
-7.95
3.45
13.31
20.91
25.72
27.49
26.37
22.99
18.36
13.58
9.55
6.65
4.75
3.44
2.24
0.90
-0.55
-1.90
-2.95
-3.73
-4.51
-5.83
-8.28
-12.30
-18.01
-25.09
-32.77
-39.87
-45.10
-47.30
-45.86
-40.83
-32.83
-22.95
-12.32
-1.96
7.32
14.85
20.07
22.61
22.38
19.76
15.54
10.74
6.31
2.83
0.45
-1.02
-1.91
-2.50
-2.92
-3.24
-3.57
-4.14
-5.31
-7.43
-10.80
-15.52
-21.56
-28.65
-36.27
-43.59
-49.48
-52.73
-52.34
-47.82
-39.43
-28.07
-15.05
-1.77
10.51
20.87
28.67
33.54
35.40
34.45
31.24
26.60
21.47
16.78
13.16
10.89
9.82
9.48
9.29
8.77
7.66
5.91
3.63
0.90
-2.32
-6.21
-10.99
-16.91
-24.04
-32.26
-41.09
-49.61
-56.50
-60.30
-59.74
-54.21
-44.04
-30.36
-14.93
0.46
14.32
25.73
34.17
39.49
41.72
41.09
38.09
33.52
28.36
23.61
19.93
17.58
16.24
15.31
14.16
12.43
10.12
7.53
5.02
2.66
0.17
-3.07
-7.79
-14.50
-23.33
-33.87
-45.16
-55.79
-64.09
-68.47
-67.78
-61.62
-50.49
-35.68
-18.90
-1.85
14.02
27.70
38.51
46.00
49.96
50.45
47.98
43.49
38.19
33.27
29.55
27.29
26.13
25.37
24.24
22.30
19.51
16.16
12.60
9.02
5.26
0.93
-4.46
-11.40
-20.22
-31.01
-43.48
-56.69
-69.01
-78.29
-82.43
-80.05
-71.00
-56.47
-38.55
-19.52
-1.19
15.35
29.52
40.96
49.23
53.88
54.68
51.98
46.78
40.53
34.74
30.57
28.49
28.24
29.03
29.88
29.95
28.81
26.50
23.41
20.03
16.72
13.51
10.12
6.00
0.58
-6.59
-15.59
-25.96
-36.64
-46.04
-52.28
-53.69
-49.29
-39.14
-24.32
-6.75
11.43
28.28
42.46
53.18
60.18
63.43
63.19
59.95
54.47
47.83
41.21
35.64
31.74
29.54
28.56
28.05
27.31
25.96
23.97
21.52
18.79
15.83
12.48
8.51
3.73
-2.02
-8.85
-16.88
-26.16
-36.36
-46.57
-55.24
-60.46
-60.59
-54.85
-43.67
-28.52
-11.47
5.47
20.76
33.37
42.68
48.25
49.81
47.41
41.64
33.72
25.23
17.79
12.55
9.95
9.63
10.69
12.08
13.00
13.12
12.52
11.45
10.11
8.44
6.13
2.79
-1.89
-8.09
-15.77
-24.67
-34.25
-43.54
-51.19
-55.66
-55.56
-50.17
-39.78
-25.71
-9.93
5.50
18.96
29.56
37.01
41.35
42.64
41.00
36.75
30.72
24.17
18.58
15.05
13.87
14.42
15.50
15.91
15.03
12.92
10.17
7.43
5.02
2.78
0.20
-3.37
-8.39
-15.04
-23.12
-32.04
-40.81
-48.10
-52.46
-52.59
-47.81
-38.22
-24.83
-9.30
6.49
20.81
32.31
40.17
44.04
43.99
40.55
34.63
27.48
20.40
14.51
10.44
8.27
7.55
7.56
7.59
7.19
6.25
4.87
3.24
1.46
-0.54
-2.97
-6.11
-10.24
-15.58
-22.21
-29.98
-38.28
-46.03
-51.70
-53.75
-51.08
-43.48
-31.73
-17.44
-2.53
11.27
22.76
31.27
36.59
38.70
37.75
34.11
28.45
21.79
15.30
10.03
6.56
4.93
4.63
4.92
5.13
4.91
4.26
3.37
2.44
1.47
0.21
-1.78
-4.98
-9.73
-16.11
-23.83
-32.18
-40.03
-46.05
-48.92
-47.72
-42.19
-32.84
-20.86
-7.77
4.91
15.89
24.29
29.59
31.66
30.67
27.18
22.01
16.18
10.63
6.05
2.78
0.77
-0.24
-0.61
-0.67
-0.69
-0.90
-1.46
-2.46
-3.94
-5.87
-8.23
-11.16
-14.92
-19.82
-26.02
-33.17
-40.35
-46.12
-48.91
-47.54
-41.62
-31.68
-19.03
-5.33
7.79
18.98
27.31
32.22
33.58
31.67
27.20
21.27
15.08
9.71
5.79
3.48
2.51
2.37
2.53
2.57
2.25
1.50
0.31
-1.25
-3.18
-5.56
-8.58
-12.50
-17.53
-23.64
-30.40
-36.97
-42.11
-44.59
-43.50
-38.53
-30.10
-19.26
-7.34
4.33
14.64
22.80
28.28
30.79
30.31
27.16
22.03
15.93
9.97
5.07
1.82
0.31
0.28
1.20
2.48
3.53
3.86
3.16
1.38
-1.31
-4.52
-7.92
-11.43
-15.34
-20.16
-26.19
-33.12
-39.90
-44.89
-46.52
-43.83
-36.87
-26.68
-14.82
-2.87
7.96
16.91
23.61
27.84
29.55
28.87
26.23
22.35
18.18
14.64
12.40
11.70
12.31
13.68
15.13
16.14
16.45
16.08
15.21
14.04
12.64
10.86
8.34
4.58
-0.84
-8.06
-16.63
-25.45
-32.97
-37.57
-38.15
-34.44
-27.07
-17.29
-6.51
3.95
13.05
19.94
24.01
24.89
22.63
17.83
11.55
5.06
-0.50
-4.42
-6.58
-7.32
-7.30
-7.20
-7.50
-8.39
-9.81
-11.54
-13.45
-15.47
-17.77
-20.63
-24.39
-29.29
-35.38
-42.29
-49.22
-54.95
-58.13
-57.66
-53.04
-44.54
-33.18
-20.39
-7.70
3.63
12.67
18.89
22.02
22.15
19.63
15.16
9.74
4.46
0.24
-2.34
-3.19
-2.68
-1.45
-0.12
0.85
1.27
1.16
0.58
-0.54
-2.42
-5.40
-9.80
-15.76
-23.00
-30.74
-37.80
-42.81
-44.57
-42.39
-36.32
-27.10
-15.94
-4.16
7.06
16.76
24.33
29.24
31.18
30.13
26.47
21.05
15.00
9.47
5.26
2.67
1.47
1.13
1.06
0.83
0.26
-0.70
-2.05
-3.85
-6.26
-9.55
-14.00
-19.85
-27.12
-35.44
-43.89
-51.12
-55.52
-55.73
-51.03
-41.64
-28.65
-13.78
1.15
14.59
25.45
33.14
37.42
38.35
36.25
31.80
25.95
19.87
14.59
10.72
8.35
7.01
6.03
4.90
3.49
2.06
0.97
0.33
-0.18
-1.29
-3.91
-8.74
-16.06
-25.52
-36.19
-46.70
-55.37
-60.55
-60.90
-55.76
-45.35
-30.84
-14.02
3.07
18.61
31.26
40.23
45.26
46.48
44.37
39.78
33.84
27.79
22.71
19.24
17.41
16.74
16.47
16.02
15.11
13.85
12.51
11.24
9.86
7.84
4.52
-0.72
-8.17
-17.68
-28.53
-39.50
-48.94
-55.06
-56.32
-51.86
-41.80
-27.22
-9.98
7.80
24.07
37.28
46.42
51.09
51.46
48.23
42.52
35.70
29.11
23.78
20.21
18.35
17.68
17.51
17.24
16.52
15.29
13.68
11.82
9.72
7.12
3.55
-1.59
-8.79
-18.09
-28.88
-39.78
-48.80
-53.88
-53.44
-46.96
-35.11
-19.58
-2.61
13.63
27.43
37.78
44.32
47.13
46.62
43.41
38.29
32.25
26.33
21.50
18.31
16.82
16.56
16.77
16.70
15.94
14.47
12.52
10.33
7.82
4.55
-0.25
-7.31
-16.96
-28.75
-41.27
-52.40
-59.68
-61.05
-55.48
-43.33
-26.25
-6.70
12.71
29.86
43.38
52.71
57.84
59.15
57.33
53.28
48.07
42.76
38.19
34.80
32.58
31.10
29.82
28.25
26.20
23.69
20.88
17.94
14.84
11.33
6.90
0.87
-7.36
-18.01
-30.56
-43.59
-54.92
-62.12
-63.22
-57.39
-45.17
-28.25
-8.93
10.53
28.30
43.01
53.74
59.88
61.27
58.33
52.21
44.59
37.25
31.52
27.91
26.07
25.10
24.07
22.41
20.02
17.16
14.18
11.24
8.18
4.65
0.10
-6.01
-14.12
-24.38
-36.39
-49.01
-60.42
-68.42
-71.10
-67.35
-57.25
-42.04
-23.68
-4.37
13.89
29.53
41.49
49.17
52.45
51.67
47.67
41.68
35.04
28.99
24.32
21.32
19.75
19.04
18.55
17.83
16.70
15.24
13.54
11.60
9.20
5.92
1.22
-5.34
-13.99
-24.52
-36.08
-47.19
-55.87
-60.14
-58.62
-50.98
-38.10
-21.72
-3.98
13.20
28.33
40.39
48.66
52.66
52.26
47.96
40.96
32.99
25.88
20.93
18.55
18.29
19.09
19.87
19.93
19.09
17.62
15.87
13.96
11.75
8.75
4.36
-1.95
-10.41
-20.71
-31.94
-42.55
-50.64
-54.41
-52.65
-45.15
-32.73
-17.04
-0.06
16.30
30.56
41.71
49.16
52.64
52.26
48.52
42.38
35.12
28.10
22.44
18.73
16.97
16.57
16.73
16.72
16.05
14.60
12.47
9.84
6.75
3.05
-1.64
-7.77
-15.73
-25.52
-36.55
-47.52
-56.62
-61.87
-61.74
-55.63
-44.16
-28.88
-11.93
4.65
19.30
31.04
39.37
44.13
45.30
43.22
38.62
32.60
26.50
21.51
18.36
17.05
17.04
17.46
17.53
16.81
15.30
13.23
10.87
8.33
5.45
1.94
-2.58
-8.41
-15.69
-24.30
-33.74
-43.05
-50.83
-55.55
-55.89
-51.19
-41.68
-28.47
-13.25
2.18
16.20
27.67
35.89
40.58
41.80
39.95
35.78
30.30
24.60
19.66
16.14
14.23
13.68
13.92
14.29
14.22
13.36
11.64
9.18
6.14
2.60
-1.55
-6.57
-12.87
-20.69
-29.94
-39.89
-49.22
-56.26
-59.42
-57.73
-51.21
-40.82
-28.11
-14.70
-1.85
9.65
19.36
26.84
31.61
33.20
31.57
27.26
21.51
15.83
11.55
9.29
8.92
9.67
10.60
10.99
10.56
9.47
7.95
6.18
4.10
1.40
-2.29
-7.30
-13.81
-21.67
-30.35
-38.90
-45.98
-50.17
-50.36
-46.06
-37.60
-26.02
-12.76
0.74
13.25
23.88
31.92
36.86
38.46
36.87
32.76
27.26
21.66
17.05
13.98
12.43
11.89
11.71
11.31
10.35
8.76
6.62
4.10
1.31
-1.69
-5.01
-8.87
-13.62
-19.60
-26.91
-35.19
-43.51
-50.46
-54.55
-54.63
-50.23
-41.74
-30.22
-17.15
-3.95
8.17
18.35
26.02
30.81
32.54
31.37
27.82
22.83
17.56
13.11
10.19
8.92
8.87
9.28
9.43
8.91
7.70
6.06
4.24
2.34
0.19
-2.53
-6.16
-10.97
-17.07
-24.37
-32.48
-40.64
-47.68
-52.23
-53.09
-49.59
-41.88
-30.93
-18.19
-5.22
6.71
16.74
24.37
29.31
31.41
30.69
27.52
22.68
17.25
12.38
8.90
7.15
6.84
7.29
7.76
7.74
7.08
5.91
4.49
2.91
1.07
-1.33
-4.60
-8.98
-14.55
-21.19
-28.50
-35.78
-42.00
-45.93
-46.51
-43.15
-35.99
-25.84
-13.99
-1.77
9.66
19.41
26.83
31.42
32.95
31.53
27.82
22.86
17.86
13.79
11.13
9.79
9.26
8.84
8.00
6.49
4.29
1.61
-1.32
-4.31
-7.36
-10.68
-14.62
-19.65
-26.00
-33.45
-41.19
-47.86
-51.96
-52.23
-48.07
-39.72
-28.13
-14.67
-0.80
12.09
22.89
30.71
34.99
35.61
32.94
27.88
21.64
15.54
10.59
7.36
5.86
5.64
6.02
6.38
6.28
5.57
4.35
2.75
0.91
-1.23
-3.87
-7.40
-12.20
-18.50
-26.21
-34.75
-43.06
-49.75
-53.51
-53.34
-48.90
-40.50
-29.04
-15.76
-2.04
10.80
21.53
29.26
33.41
33.98
31.49
26.92
21.44
16.18
11.90
9.00
7.46
7.03
7.30
7.85
8.33
8.49
8.26
7.67
6.72
5.27
2.95
-0.80
-6.51
-14.35
-23.86
-33.83
-42.50
-48.04
-49.13
-45.36
-37.37
-26.53
-14.40
-2.31
8.98
19.05
27.63
34.25
38.31
39.31
37.23
32.75
27.15
21.85
17.93
15.80
15.16
15.28
15.38
15.02
14.11
12.77
11.12
9.04
6.19
2.15
-3.31
-10.15
-18.05
-26.47
-34.74
-42.06
-47.48
-50.00
-48.77
-43.44
-34.41
-22.80
-10.09
2.22
13.07
21.79
27.96
31.28
31.53
28.77
23.63
17.26
11.05
6.20
3.27
2.08
1.98
2.19
2.14
1.60
0.52
-1.08
-3.24
-6.06
-9.67
-14.26
-20.11
-27.45
-36.27
-45.97
-55.26
-62.29
-65.24
-62.88
-55.11
-42.91
-28.00
-12.24
2.79
15.95
26.45
33.64
37.15
36.93
33.57
28.22
22.35
17.32
13.93
12.29
11.93
12.11
12.17
11.72
10.66
9.04
6.93
4.29
1.03
-3.06
-8.23
-14.71
-22.70
-32.04
-42.04
-51.37
-58.21
-60.75
-57.77
-49.14
-35.78
-19.48
-2.22
14.20
28.44
39.61
47.17
50.93
51.09
48.35
43.80
38.67
34.04
30.44
27.94
26.14
24.57
22.84
20.80
18.47
15.93
13.21
10.21
6.72
2.44
-2.97
-9.89
-18.54
-28.82
-40.07
-50.94
-59.59
-64.06
-62.93
-55.75
-43.25
-27.14
-9.59
7.34
22.03
33.49
41.15
44.84
44.69
41.26
35.54
28.84
22.55
17.68
14.61
13.05
12.21
11.26
9.68
7.43
4.87
2.39
0.16
-2.08
-4.97
-9.32
-15.78
-24.56
-35.22
-46.60
-56.99
-64.42
-67.11
-63.99
-55.01
-41.20
-24.38
-6.70
9.89
23.90
34.41
40.98
43.60
42.63
38.86
33.44
27.63
22.56
18.94
16.87
16.03
15.84
15.76
15.40
14.63
13.35
11.50
8.95
5.41
0.53
-6.09
-14.74
-25.37
-37.23
-48.81
-58.06
-62.86
-61.78
-54.52
-42.07
-26.20
-8.93
8.01
23.42
36.43
46.35
52.52
54.62
52.87
48.26
42.32
36.67
32.49
30.17
29.34
29.20
28.91
27.96
26.25
23.96
21.26
18.20
14.51
9.80
3.58
-4.47
-14.40
-25.73
-37.44
-47.98
-55.51
-58.41
-55.68
-47.28
-34.13
-17.83
-0.23
16.93
32.18
44.44
52.90
57.11
57.06
53.28
46.88
39.31
32.10
26.44
22.94
21.43
21.23
21.34
20.92
19.49
17.03
13.76
9.97
5.73
0.81
-5.20
-12.69
-21.80
-32.18
-42.84
-52.29
-58.76
-60.67
-57.07
-48.02
-34.56
-18.46
-1.75
13.85
27.10
37.35
44.31
47.87
48.07
45.29
40.30
34.26
28.52
24.16
21.68
20.89
21.06
21.29
20.98
19.90
18.18
16.02
13.46
10.28
6.07
0.37
-7.09
-16.28
-26.63
-37.06
-46.05
-51.88
-53.13
-49.03
-39.79
-26.52
-10.94
5.06
19.85
32.19
41.28
46.70
48.37
46.56
42.01
35.83
29.39
23.90
20.17
18.39
18.16
18.75
19.37
19.44
18.70
17.16
14.91
11.97
8.19
3.20
-3.36
-11.66
-21.37
-31.52
-40.60
-46.81
-48.62
-45.21
-36.72
-24.22
-9.32
6.25
20.86
33.26
42.49
47.96
49.49
47.42
42.67
36.54
30.41
25.34
21.79
19.59
18.15
16.75
14.85
12.25
9.02
5.39
1.59
-2.30
-6.38
-10.96
-16.47
-23.23
-31.33
-40.36
-49.39
-57.00
-61.56
-61.63
-56.44
-46.16
-31.95
-15.68
0.48
14.57
25.20
31.74
34.30
33.59
30.60
26.45
22.13
18.36
15.54
13.73
12.78
12.41
12.34
12.31
12.09
11.45
10.18
8.09
4.95
0.58
-5.27
-12.69
-21.50
-31.01
-40.04
-47.01
-50.39
-49.14
-43.03
-32.75
-19.65
-5.37
8.54
20.81
30.48
36.94
39.92
39.59
36.56
31.82
26.47
21.46
17.36
14.34
12.26
10.89
9.98
9.33
8.77
8.02
6.78
4.76
1.67
-2.72
-8.60
-16.01
-24.67
-33.82
-42.25
-48.48
-51.10
-49.31
-43.09
-33.27
-21.21
-8.45
3.62
13.97
21.84
26.76
28.48
27.10
23.06
17.23
10.73
4.66
-0.15
-3.32
-4.95
-5.44
-5.32
-5.04
-4.94
-5.24
-6.14
-7.88
-10.74
-15.01
-20.82
-28.05
-36.16
-44.17
-50.73
-54.46
-54.27
-49.72
-41.15
-29.61
-16.58
-3.59
8.06
17.39
23.79
26.99
27.05
24.44
19.98
14.76
9.82
5.88
3.18
1.56
0.61
-0.09
-0.79
-1.58
-2.49
-3.60
-5.12
-7.40
-10.82
-15.72
-22.23
-30.08
-38.51
-46.21
-51.61
-53.17
-49.94
-41.80
-29.54
-14.67
0.99
15.71
28.15
37.44
43.19
45.36
44.24
40.43
34.85
28.65
22.96
18.69
16.16
15.13
14.87
14.55
13.57
11.70
9.14
6.22
3.21
0.04
-3.67
-8.55
-15.23
-24.10
-34.96
-46.82
-57.93
-66.15
-69.52
-66.87
-58.29
-44.94
-28.73
-11.61
4.79
19.46
31.81
41.41
47.96
51.24
51.34
48.79
44.50
39.51
34.71
30.60
27.17
24.12
21.07
17.84
14.56
11.49
8.78
6.23
3.23
-0.98
-6.98
-14.92
-24.43
-34.81
-45.26
-54.92
-62.88
-68.00
-69.00
-64.77
-54.92
-40.10
-22.10
-3.26
14.14
28.54
39.32
46.57
50.70
52.11
51.11
48.07
43.61
38.57
33.81
29.93
27.01
24.68
22.38
19.67
16.42
12.81
9.17
5.73
2.41
-1.26
-6.02
-12.63
-21.48
-32.23
-43.65
-53.74
-60.32
-61.62
-56.90
-46.63
-32.27
-15.76
1.08
16.81
30.42
41.22
48.71
52.53
52.70
49.74
44.62
38.60
32.82
27.98
24.21
21.21
18.45
15.54
12.36
9.04
5.88
3.11
0.76
-1.40
-3.89
-7.43
-12.71
-20.16
-29.59
-39.94
-49.34
-55.52
-56.36
-50.72
-38.78
-22.08
-3.01
15.83
32.37
45.32
54.26
59.31
60.88
59.46
55.64
50.20
44.09
38.34
33.73
30.58
28.65
27.33
25.93
24.00
21.48
18.53
15.39
12.22
8.93
5.29
0.92
-4.61
-11.65
-20.29
-30.06
-39.78
-47.70
-51.94
-51.15
-45.00
-34.29
-20.62
-5.83
8.51
21.32
31.95
39.93
44.82
46.33
44.43
39.65
33.05
26.03
19.91
15.55
13.12
12.11
11.67
11.04
9.83
8.14
6.30
4.59
3.00
1.15
-1.61
-5.87
-12.02
-20.02
-29.35
-38.89
-47.13
-52.37
-53.18
-48.87
-39.74
-27.02
-12.53
1.95
15.01
25.77
33.75
38.69
40.46
39.14
35.26
29.72
23.72
18.40
14.47
12.12
10.98
10.46
10.00
9.23
8.08
6.64
5.04
3.32
1.37
-1.11
-4.55
-9.41
-15.91
-23.86
-32.44
-40.26
-45.69
-47.25
-44.13
-36.49
-25.36
-12.30
0.99
13.10
23.07
30.30
34.46
35.43
33.33
28.69
22.44
15.81
9.99
5.80
3.43
2.49
2.24
1.96
1.18
-0.14
-1.78
-3.48
-5.07
-6.65
-8.54
-11.20
-15.04
-20.30
-26.82
-33.91
-40.40
-44.83
-45.86
-42.68
-35.27
-24.52
-11.86
1.03
12.64
21.87
28.05
30.90
30.48
27.20
21.80
15.32
8.92
3.59
-0.14
-2.29
-3.34
-3.93
-4.59
-5.51
-6.58
-7.63
-8.62
-9.67
-11.08
-13.13
-16.04
-19.91
-24.71
-30.15
-35.57
-39.89
-41.80
-40.15
-34.42
-24.92
-12.86
0.14
12.40
22.59
29.86
33.81
34.45
32.13
27.55
21.69
15.63
10.28
6.19
3.43
1.62
0.20
-1.29
-3.07
-5.05
-6.97
-8.60
-9.93
-11.27
-13.16
-16.19
-20.71
-26.62
-33.28
-39.54
-44.04
-45.49
-43.04
-36.53
-26.46
-14.01
-0.66
12.05
22.77
30.52
34.78
35.50
33.05
28.25
22.10
15.64
9.72
4.87
1.28
-1.12
-2.53
-3.23
-3.47
-3.53
-3.63
-3.97
-4.73
-6.08
-8.24
-11.54
-16.25
-22.40
-29.57
-36.74
-42.46
-45.24
-44.04
-38.64
-29.72
-18.63
-6.97
3.77
12.54
18.70
22.03
22.63
20.87
17.32
12.72
7.87
3.43
-0.17
-2.71
-4.22
-4.86
-4.89
-4.61
-4.34
-4.38
-4.97
-6.24
-8.23
-11.02
-14.72
-19.46
-25.14
-31.27
-36.85
-40.56
-41.12
-37.76
-30.61
-20.61
-9.27
1.80
11.30
18.44
22.93
24.84
24.43
22.16
18.61
14.43
10.32
6.87
4.40
3.03
2.66
3.05
3.91
4.95
5.89
6.47
6.44
5.53
3.51
0.24
-4.16
-9.08
-13.52
-16.24
-16.19
-12.99
-7.11
0.32
7.91
14.55
19.58
22.75
23.91
22.84
19.28
13.21
5.04
-4.35
-13.85
-22.47
-29.60
-35.06
-38.89
-41.20
-42.16
-41.97
-40.96
-39.61
-38.41
-37.78
-38.03
-39.39
-42.05
-46.05
-51.08
-56.31
-60.43
-61.93
-59.59
-52.96
-42.57
-29.75
-16.20
-3.56
6.93
14.50
18.83
19.95
18.27
14.53
9.69
4.76
0.52
-2.62
-4.60
-5.63
-5.96
-5.83
-5.40
-4.87
-4.54
-4.72
-5.79
-8.04
-11.75
-17.02
-23.77
-31.49
-39.16
-45.30
-48.31
-46.94
-40.79
-30.49
-17.53
-3.79
8.98
19.54
27.23
31.85
33.52
32.53
29.39
24.79
19.58
14.59
10.51
7.72
6.30
5.98
6.36
6.91
7.16
6.78
5.59
3.55
0.57
-3.55
-9.11
-16.33
-24.95
-34.00
-41.82
-46.45
-46.25
-40.58
-30.04
-16.34
-1.72
11.69
22.36
29.51
33.05
33.24
30.50
25.37
18.38
10.14
1.24
-7.74
-16.30
-23.99
-30.33
-34.68
-36.28
-34.40
-28.73
-19.75
-9.03
0.93
7.27
7.71
1.49
-10.15
-24.09
-36.31
-43.10
-42.22
-33.47
-18.47
0.02
19.06
36.20
49.89
59.30
64.23
64.86
61.71
55.69
48.04
40.22
33.58
29.02
26.75
26.27
26.62
26.72
25.85
23.77
20.69
17.01
13.00
8.50
2.99
-4.05
-12.76
-22.47
-31.63
-38.20
-40.26
-36.69
-27.61
-14.34
1.02
16.23
29.46
39.53
45.91
48.53
47.69
43.92
38.01
30.96
23.81
17.47
12.54
9.25
7.49
6.91
7.01
7.26
7.10
6.06
3.73
-0.23
-6.10
-13.95
-23.49
-33.80
-43.32
-50.08
-52.20
-48.52
-39.05
-24.97
-8.31
8.65
23.91
36.07
44.33
48.48
48.73
45.67
40.20
33.45
26.53
20.38
15.57
12.27
10.31
9.28
8.68
7.99
6.81
4.85
1.94
-2.13
-7.63
-14.79
-23.69
-33.84
-44.00
-52.27
-56.48
-54.92
-46.98
-33.39
-16.05
2.56
20.10
34.77
45.46
51.74
53.70
51.86
47.13
40.72
33.91
27.83
23.15
20.00
18.10
16.94
16.04
15.06
13.81
12.20
10.08
7.20
3.11
-2.66
-10.51
-20.37
-31.38
-41.85
-49.45
-51.91
-47.77
-36.93
-20.80
-1.85
17.20
34.03
47.22
56.14
60.81
61.53
58.87
53.67
47.01
40.06
33.87
29.04
25.68
23.52
22.07
20.93
19.78
18.43
16.72
14.45
11.34
7.05
1.17
-6.60
-16.18
-26.80
-36.90
-44.34
-47.02
-43.57
-33.97
-19.57
-2.71
14.09
28.74
39.96
47.22
50.53
50.19
46.78
41.12
34.29
27.48
21.70
17.54
15.04
13.82
13.31
12.98
12.53
11.78
10.63
8.92
6.31
2.36
-3.40
-11.16
-20.60
-30.68
-39.66
-45.51
-46.41
-41.38
-30.64
-15.60
1.54
18.37
32.82
43.48
49.68
51.45
49.34
44.33
37.64
30.54
24.11
19.06
15.67
13.81
13.11
13.11
13.35
13.47
13.14
12.08
10.01
6.64
1.70
-4.99
-13.31
-22.56
-31.44
-38.13
-40.77
-38.02
-29.57
-16.31
-0.03
17.03
32.81
45.72
54.81
59.65
60.24
56.97
50.53
41.95
32.37
22.84
14.14
6.70
0.61
-4.29
-8.28
-11.67
-14.80
-17.92
-21.27
-25.06
-29.62
-35.34
-42.65
-51.63
-61.78
-71.82
-79.81
-83.71
-81.98
-74.10
-60.75
-43.69
-25.23
-7.79
6.70
17.01
22.73
24.19
22.24
17.99
12.56
6.97
1.97
-1.84
-4.15
-4.92
-4.44
-3.27
-2.03
-1.18
-0.93
-1.29
-2.23
-3.89
-6.69
-11.09
-17.32
-25.06
-33.22
-40.06
-43.62
-42.36
-35.58
-23.81
-8.60
7.99
23.93
37.69
48.44
55.94
60.30
61.83
60.90
58.08
54.01
49.40
44.87
40.79
37.28
34.24
31.51
29.00
26.72
24.73
23.03
21.44
19.61
17.01
13.12
7.55
0.25
-8.42
-17.56
-25.87
-31.81
-34.00
-31.68
-24.93
-14.85
-3.21
8.02
17.21
23.45
26.55
26.83
24.82
21.09
16.18
10.71
5.37
0.89
-2.12
-3.39
-3.02
-1.49
0.53
2.31
3.28
3.09
1.67
-0.86
-4.30
-8.56
-13.70
-19.79
-26.75
-33.96
-40.23
-43.99
-43.82
-39.00
-29.82
-17.56
-4.05
8.89
19.85
28.04
33.13
35.12
34.24
30.90
25.75
19.70
13.75
8.79
5.35
3.54
3.03
3.25
3.53
3.37
2.48
0.80
-1.60
-4.66
-8.47
-13.31
-19.50
-27.14
-35.71
-44.07
-50.55
-53.46
-51.67
-44.98
-34.21
-20.90
-6.82
6.43
17.70
26.24
31.68
33.92
33.23
30.21
25.76
20.97
16.74
13.64
11.77
10.82
10.30
9.78
9.05
8.06
6.87
5.40
3.47
0.74
-3.11
-8.32
-14.92
-22.70
-31.10
-39.13
-45.56
-49.06
-48.59
-43.77
-34.98
-23.30
-10.21
2.76
14.32
23.49
29.66
32.48
32.02
28.76
23.63
17.82
12.54
8.69
6.58
5.99
6.28
6.72
6.74
6.10
4.87
3.27
1.50
-0.40
-2.54
-5.22
-8.82
-13.72
-20.10
-27.72
-35.77
-42.81
-47.18
-47.39
-42.73
-33.55
-21.17
-7.52
5.49
16.36
24.16
28.51
29.45
27.31
22.75
16.78
10.60
5.40
1.99
0.57
0.70
1.54
2.25
2.26
1.50
0.21
-1.23
-2.65
-4.15
-6.18
-9.30
-14.06
-20.65
-28.78
-37.50
-45.36
-50.67
-51.96
-48.45
-40.27
-28.45
-14.59
-0.41
12.55
23.14
30.59
34.48
34.81
32.08
27.23
21.56
16.34
12.46
10.25
9.43
9.42
9.57
9.47
9.00
8.21
7.13
5.74
3.81
1.06
-2.84
-8.18
-15.10
-23.44
-32.55
-41.18
-47.68
-50.39
-48.18
-40.92
-29.55
-15.79
-1.56
11.55
22.49
30.72
35.94
38.02
36.91
32.99
27.13
20.61
14.82
10.75
8.69
8.23
8.50
8.63
8.12
6.94
5.38
3.79
2.29
0.66
-1.63
-5.17
-10.46
-17.70
-26.66
-36.54
-46.07
-53.64
-57.65
-57.01
-51.42
-41.49
-28.53
-14.18
0.00
12.81
23.38
31.09
35.57
36.68
34.65
30.25
24.65
19.18
14.95
12.52
11.80
12.19
12.89
13.21
12.82
11.72
10.07
8.05
5.67
2.72
-1.09
-6.09
-12.53
-20.42
-29.54
-39.26
-48.46
-55.66
-59.29
-58.12
-51.70
-40.61
-26.33
-10.86
3.86
16.35
25.71
31.61
34.02
33.15
29.49
23.85
17.37
11.36
6.98
4.85
4.90
6.37
8.22
9.48
9.58
8.52
6.64
4.35
1.86
-0.99
-4.67
-9.69
-16.36
-24.44
-33.08
-40.88
-46.23
-47.70
-44.49
-36.69
-25.22
-11.59
2.58
15.89
27.32
36.19
42.04
44.55
43.65
39.69
33.60
26.72
20.51
16.06
13.76
13.22
13.57
13.81
13.28
11.81
9.61
7.00
4.23
1.29
-2.08
-6.22
-11.49
-18.15
-26.22
-35.34
-44.56
-52.42
-57.20
-57.39
-52.26
-42.20
-28.58
-13.37
1.51
14.59
25.03
32.48
36.84
38.20
36.79
33.12
28.03
22.60
17.83
14.41
12.53
11.87
11.82
11.76
11.26
10.15
8.55
6.63
4.52
2.17
-0.62
-4.24
-9.14
-15.69
-24.03
-33.79
-43.98
-53.06
-59.14
-60.64
-56.67
-47.44
-34.17
-18.66
-2.85
11.68
23.85
33.03
38.88
41.25
40.27
36.43
30.67
24.25
18.47
14.34
12.28
12.06
12.96
14.05
14.53
13.96
12.32
9.88
6.97
3.76
0.15
-4.24
-9.86
-17.09
-25.94
-35.89
-45.82
-54.15
-59.18
-59.59
-54.81
-45.28
-32.27
-17.50
-2.68
10.79
21.89
29.95
34.53
35.54
33.31
28.77
23.21
17.98
14.10
11.95
11.34
11.68
12.30
12.70
12.66
12.08
10.96
9.28
6.95
3.88
-0.10
-5.18
-11.56
-19.27
-28.04
-37.06
-45.05
-50.42
-51.71
-48.08
-39.60
-27.21
-12.54
2.63
16.72
28.59
37.48
42.97
44.96
43.62
39.55
33.74
27.41
21.80
17.75
15.57
14.95
15.16
15.37
14.92
13.54
11.35
8.64
5.70
2.60
-0.85
-5.09
-10.73
-18.24
-27.69
-38.45
-49.14
-57.78
-62.36
-61.44
-54.66
-42.89
-27.82
-11.48
4.33
18.32
29.65
37.75
42.24
42.98
40.26
34.97
28.46
22.25
17.56
14.94
14.20
14.56
15.06
14.94
13.89
12.03
9.67
7.09
4.38
1.34
-2.35
-7.10
-13.24
-20.95
-30.12
-40.11
-49.71
-57.22
-60.87
-59.32
-52.17
-40.17
-25.00
-8.76
6.57
19.58
29.43
35.81
38.73
38.39
35.26
30.15
24.16
18.57
14.44
12.35
12.18
13.20
14.42
14.98
14.51
13.12
11.20
9.06
6.67
3.66
-0.52
-6.37
-14.03
-23.20
-33.06
-42.37
-49.65
-53.40
-52.52
-46.61
-36.13
-22.37
-7.01
8.18
21.72
32.54
39.96
43.67
43.76
40.73
35.55
29.53
23.97
19.88
17.63
16.97
17.18
17.43
17.11
15.98
14.10
11.73
9.00
5.93
2.26
-2.40
-8.42
-16.04
-25.11
-34.95
-44.37
-51.74
-55.42
-54.18
-47.58
-36.19
-21.38
-5.01
11.06
25.29
36.59
44.35
48.31
48.57
45.60
40.25
33.72
27.36
22.31
19.23
18.10
18.28
18.82
18.85
17.89
15.98
13.49
10.84
8.16
5.22
1.47
-3.68
-10.69
-19.59
-29.90
-40.56
-50.06
-56.65
-58.78
-55.56
-47.01
-34.09
-18.43
-1.88
13.89
27.61
38.34
45.50
48.79
48.38
44.93
39.62
33.85
28.89
25.54
23.94
23.66
23.92
23.92
23.15
21.49
19.14
16.49
13.82
11.18
8.31
4.74
-0.12
-6.71
-15.18
-25.16
-35.71
-45.33
-52.26
-54.93
-52.39
-44.67
-32.74
-18.26
-2.99
11.45
23.91
33.58
39.94
42.72
41.98
38.26
32.58
26.28
20.65
16.59
14.41
13.80
14.06
14.42
14.35
13.64
12.41
10.87
9.15
7.07
4.29
0.31
-5.24
-12.51
-21.21
-30.60
-39.50
-46.42
-49.91
-48.88
-42.99
-32.72
-19.38
-4.61
9.89
22.69
32.81
39.64
42.95
42.86
39.91
35.01
29.30
23.96
19.80
17.15
15.83
15.30
14.97
14.40
13.40
11.99
10.25
8.22
5.79
2.72
-1.31
-6.63
-13.44
-21.66
-30.80
-39.84
-47.34
-51.71
-51.67
-46.66
-37.09
-24.23
-9.83
4.37
16.98
27.11
34.28
38.31
39.25
37.43
33.52
28.50
23.49
19.45
16.92
15.86
15.77
15.92
15.70
14.78
13.16
11.07
8.75
6.28
3.51
0.13
-4.26
-10.01
-17.24
-25.75
-34.84
-43.32
-49.71
-52.55
-50.86
-44.46
-34.05
-20.99
-6.95
6.53
18.28
27.53
33.91
37.26
37.75
35.77
32.03
27.45
22.95
19.28
16.84
15.60
15.19
15.03
14.62
13.61
11.99
9.86
7.40
4.67
1.57
-2.13
-6.74
-12.49
-19.47
-27.48
-35.95
-43.80
-49.70
-52.28
-50.64
-44.61
-34.86
-22.68
-9.58
3.06
14.22
23.15
29.35
32.48
32.48
29.73
25.09
19.76
14.91
11.31
9.11
7.99
7.33
6.60
5.61
4.42
3.29
2.33
1.49
0.47
-1.11
-3.67
-7.56
-12.98
-19.89
-27.81
-35.75
-42.35
-46.15
-46.08
-41.79
-33.81
-23.33
-11.80
-0.60
9.26
17.08
22.43
25.11
25.15
22.97
19.41
15.67
12.99
12.34
14.14
18.09
23.28
28.53
32.67
34.91
34.94
32.91
29.26
24.58
19.37
14.02
8.64
3.14
-2.72
-9.09
-15.82
-22.28
-27.38
-29.93
-29.10
-24.77
-17.59
-8.80
0.29
8.63
15.68
21.19
25.07
27.23
27.63
26.43
24.12
21.53
19.48
18.55
18.91
20.27
22.13
23.98
25.50
26.63
27.48
28.17
28.70
28.99
28.86
28.17
26.76
24.51
21.30
17.11
12.07
6.50
0.92
-4.10
-8.04
-10.58
-11.63
-11.39
-10.28
-8.97
-8.29
-9.16
-12.39
-18.38
-26.92
-37.12
-47.64
-56.99
-63.97
-67.94
-68.90
-67.44
-64.47
-60.92
-57.55
-54.74
-52.56
-50.83
-49.39
-48.23
-47.59
-47.82
-49.33
-52.33
-56.77
-62.25
-68.03
-73.08
-76.21
-76.36
-72.87
-65.70
-55.50
-43.42
-30.85
-19.07
-9.08
-1.51
3.35
5.53
5.40
3.60
1.03
-1.48
-3.28
-4.05
-3.80
-2.75
-1.19
0.55
2.19
3.51
4.34
4.65
4.46
3.80
2.63
0.77
-2.02
-5.86
-10.52
-15.39
-19.40
-21.35
-20.21
-15.45
-7.18
3.81
16.28
28.94
40.56
50.25
57.42
61.72
63.04
61.52
57.68
52.29
46.36
40.74
35.94
32.04
28.71
25.56
22.37
19.18
16.20
13.64
11.44
9.30
6.73
3.23
-1.57
-7.86
-15.62
-24.49
-33.72
-42.14
-48.35
-51.05
-49.50
-43.76
-34.68
-23.63
-12.01
-0.94
8.88
16.97
22.99
26.61
27.62
26.17
22.86
18.71
14.83
12.07
10.77
10.72
11.29
11.79
11.75
10.99
9.67
8.08
6.43
4.75
2.80
0.13
-3.78
-9.37
-16.68
-25.25
-34.05
-41.62
-46.45
-47.42
-44.11
-36.95
-27.04
-15.71
-4.25
6.41
15.58
22.79
27.58
29.63
28.88
25.74
21.09
16.05
11.68
8.61
6.91
6.21
5.94
5.59
4.93
3.94
2.72
1.34
-0.23
-2.15
-4.67
-8.10
-12.81
-19.10
-27.05
-36.24
-45.66
-53.75
-58.85
-59.61
-55.54
-47.10
-35.55
-22.51
-9.58
1.99
11.32
17.84
21.25
21.52
19.05
14.64
9.42
4.56
0.98
-0.93
-1.29
-0.57
0.62
1.84
2.83
3.51
3.79
3.52
2.44
0.19
-3.55
-8.99
-16.07
-24.33
-32.86
-40.32
-45.14
-46.05
-42.33
-34.15
-22.52
-8.96
4.90
17.62
28.16
35.88
40.45
41.94
40.74
37.60
33.49
29.37
25.90
23.33
21.51
20.06
18.64
17.10
15.45
13.80
12.17
10.38
8.11
4.93
0.46
-5.65
-13.55
-23.18
-33.99
-44.85
-54.13
-60.00
-60.96
-56.32
-46.48
-32.76
-16.95
-0.79
14.37
27.54
38.00
45.17
48.63
48.37
44.98
39.70
34.05
29.43
26.59
25.53
25.52
25.58
24.91
23.13
20.36
17.01
13.43
9.74
5.71
0.88
-5.26
-13.11
-22.68
-33.52
-44.55
-54.26
-60.89
-62.96
-59.69
-51.21
-38.57
-23.35
-7.26
8.23
21.96
33.07
40.89
45.04
45.52
42.90
38.25
32.95
28.21
24.76
22.77
21.85
21.43
20.97
20.16
18.90
17.18
15.07
12.59
9.70
6.27
2.01
-3.57
-10.94
-20.25
-30.95
-41.61
-50.21
-54.62
-53.38
-46.14
-33.86
-18.34
-1.67
14.28
28.21
39.29
47.06
51.23
51.76
48.99
43.73
37.25
30.99
26.11
23.19
22.04
21.92
21.91
21.34
19.97
17.97
15.65
13.20
10.52
7.21
2.73
-3.46
-11.58
-21.44
-32.19
-42.39
-50.22
-53.95
-52.46
-45.53
-33.99
-19.35
-3.40
12.21
26.16
37.45
45.38
49.49
49.68
46.38
40.56
33.54
26.75
21.27
17.63
15.77
15.18
15.17
15.14
14.70
13.69
12.10
9.91
7.00
3.12
-2.07
-8.91
-17.49
-27.48
-37.97
-47.52
-54.41
-57.14
-54.75
-47.16
-35.15
-20.15
-3.83
12.20
26.56
38.20
46.41
50.78
51.37
48.68
43.66
37.54
31.56
26.69
23.40
21.65
20.97
20.72
20.30
19.33
17.66
15.32
12.44
9.00
4.82
-0.50
-7.33
-15.89
-25.87
-36.35
-45.83
-52.53
-54.90
-52.07
-44.11
-32.00
-17.35
-1.90
12.76
25.48
35.51
42.40
45.94
46.17
43.46
38.61
32.76
27.16
22.79
20.10
18.90
18.54
18.28
17.60
16.35
14.64
12.65
10.37
7.51
3.58
-1.92
-9.27
-18.33
-28.40
-38.29
-46.41
-51.20
-51.50
-46.84
-37.65
-25.05
-10.58
4.18
17.87
29.38
37.90
42.92
44.32
42.45
38.19
32.77
27.44
23.12
20.18
18.44
17.39
16.50
15.47
14.24
12.91
11.52
9.93
7.81
4.74
0.30
-5.74
-13.41
-22.39
-32.02
-41.25
-48.80
-53.35
-53.86
-49.90
-41.73
-30.30
-17.03
-3.45
9.03
19.32
26.66
30.63
31.21
28.76
24.10
18.36
12.78
8.36
5.65
4.62
4.78
5.45
6.04
6.23
5.93
5.19
4.05
2.43
0.06
-3.46
-8.52
-15.30
-23.57
-32.50
-40.65
-46.32
-48.00
-44.85
-37.00
-25.50
-11.90
2.15
15.30
26.58
35.27
40.90
43.14
42.01
38.03
32.22
25.97
20.59
16.99
15.40
15.46
16.41
17.44
17.88
17.36
15.80
13.30
10.10
6.53
2.83
-0.92
-4.93
-9.64
-15.61
-23.24
-32.50
-42.71
-52.60
-60.54
-64.89
-64.46
-58.78
-48.30
-34.21
-18.18
-2.00
12.82
25.15
34.33
40.15
42.71
42.42
39.96
36.20
32.04
28.26
25.43
23.79
23.27
23.51
24.04
24.31
23.87
22.44
19.96
16.53
12.43
7.88
3.02
-2.15
-7.68
-13.70
-20.32
-27.68
-35.86
-44.61
-53.26
-60.56
-65.00
-65.15
-60.28
-50.59
-37.21
-21.85
-6.22
8.25
20.68
30.57
37.66
41.84
43.18
41.99
38.90
34.80
30.64
27.26
25.11
24.17
24.00
23.98
23.51
22.34
20.43
17.96
15.05
11.72
7.88
3.46
-1.50
-6.89
-12.67
-19.01
-26.18
-34.30
-43.02
-51.31
-57.59
-60.19
-57.98
-50.77
-39.44
-25.54
-10.87
3.13
15.54
25.91
34.01
39.69
42.77
43.15
41.10
37.28
32.72
28.52
25.51
23.98
23.65
23.84
23.82
23.10
21.60
19.50
17.09
14.50
11.64
8.23
4.02
-1.12
-7.17
-14.06
-21.74
-30.03
-38.49
-46.20
-51.84
-54.03
-51.77
-44.92
-34.23
-21.19
-7.47
5.46
16.61
25.45
31.74
35.37
36.30
34.73
31.16
26.41
21.53
17.45
14.81
13.72
13.81
14.33
14.59
14.10
12.78
10.88
8.78
6.74
4.74
2.53
-0.30
-4.08
-8.97
-14.98
-21.87
-29.22
-36.33
-42.20
-45.70
-45.77
-41.88
-34.20
-23.67
-11.68
0.24
10.91
19.55
25.79
29.51
30.70
29.51
26.33
21.81
16.86
12.44
9.37
7.99
8.15
9.19
10.26
10.60
9.84
8.06
5.70
3.28
1.12
-0.77
-2.64
-4.88
-7.83
-11.70
-16.54
-22.21
-28.31
-34.08
-38.44
-40.20
-38.44
-32.89
-24.12
-13.36
-2.22
7.92
16.13
22.04
25.75
27.47
27.47
26.05
23.60
20.63
17.76
15.44
13.89
12.97
12.32
11.59
10.59
9.32
7.86
6.31
4.61
2.66
0.38
-2.25
-5.14
-8.20
-11.41
-14.93
-18.96
-23.65
-28.92
-34.25
-38.75
-41.31
-40.95
-37.20
-30.29
-21.10
-10.94
-1.11
7.36
13.86
18.26
20.64
21.25
20.39
18.37
15.59
12.53
9.72
7.65
6.69
6.88
7.96
9.39
10.56
11.04
10.63
9.49
7.87
6.02
4.04
1.88
-0.56
-3.34
-6.49
-10.01
-13.95
-18.34
-23.05
-27.66
-31.35
-33.09
-32.03
-27.82
-20.85
-12.20
-3.23
4.82
11.16
15.55
18.07
18.94
18.32
16.35
13.31
9.67
6.12
3.31
1.70
1.30
1.76
2.52
3.07
3.05
2.41
1.29
-0.11
-1.61
-3.15
-4.73
-6.46
-8.38
-10.52
-12.88
-15.48
-18.37
-21.53
-24.80
-27.76
-29.70
-29.83
-27.58
-22.79
-15.93
-7.96
-0.04
6.82
12.02
15.32
16.76
16.52
14.75
11.71
7.78
3.58
-0.13
-2.69
-3.72
-3.32
-2.02
-0.52
0.55
0.86
0.46
-0.41
-1.45
-2.53
-3.73
-5.24
-7.25
-9.82
-12.87
-16.23
-19.79
-23.47
-27.11
-30.34
-32.59
-33.10
-31.31
-27.01
-20.61
-12.93
-5.02
2.13
7.84
11.71
13.61
13.54
11.67
8.31
4.03
-0.38
-4.11
-6.48
-7.20
-6.40
-4.66
-2.70
-1.20
-0.52
-0.71
-1.57
-2.80
-4.12
-5.45
-6.83
-8.38
-10.25
-12.53
-15.23
-18.30
-21.58
-24.81
-27.59
-29.42
-29.72
-28.04
-24.16
-18.22
-10.81
-2.85
4.60
10.55
14.34
15.68
14.72
11.91
7.92
3.53
-0.46
-3.39
-4.86
-4.82
-3.58
-1.76
0.03
1.31
1.89
1.88
1.51
0.97
0.26
-0.79
-2.40
-4.76
-7.94
-11.90
-16.45
-21.26
-25.77
-29.28
-31.03
-30.46
-27.42
-22.24
-15.61
-8.41
-1.40
4.84
9.88
13.41
15.13
14.85
12.66
8.98
4.58
0.35
-2.95
-4.83
-5.20
-4.33
-2.74
-1.05
0.16
0.44
-0.41
-2.36
-5.08
-8.10
-11.00
-13.55
-15.83
-18.22
-21.17
-24.87
-29.07
-32.99
-35.60
-35.93
-33.50
-28.44
-21.47
-13.62
-5.89
0.94
6.36
10.05
11.81
11.55
9.36
5.65
1.15
-3.23
-6.67
-8.67
-9.26
-8.87
-8.10
-7.48
-7.28
-7.41
-7.72
-8.04
-8.34
-8.75
-9.42
-10.55
-12.34
-15.06
-18.90
-23.79
-29.17
-34.02
-37.02
-36.99
-33.37
-26.46
-17.33
-7.43
1.81
9.37
14.77
17.89
18.86
17.90
15.34
11.65
7.48
3.61
0.68
-0.99
-1.47
-1.27
-1.00
-1.20
-2.03
-3.36
-4.88
-6.32
-7.64
-9.03
-10.79
-13.25
-16.65
-21.08
-26.43
-32.30
-37.91
-42.21
-44.13
-42.86
-38.18
-30.55
-20.97
-10.65
-0.70
8.01
14.94
19.69
22.00
21.81
19.34
15.21
10.33
5.71
2.13
-0.03
-0.80
-0.58
0.19
1.10
1.88
2.43
2.66
2.50
1.82
0.42
-1.94
-5.57
-10.72
-17.34
-24.88
-32.19
-37.72
-39.90
-37.77
-31.38
-21.82
-10.87
-0.29
8.68
15.53
20.28
23.05
23.81
22.41
18.87
13.68
7.83
2.59
-1.02
-2.58
-2.35
-1.10
0.31
1.29
1.64
1.47
0.95
0.15
-1.12
-3.19
-6.50
-11.34
-17.74
-25.34
-33.34
-40.60
-45.83
-47.86
-45.86
-39.61
-29.47
-16.46
-1.98
12.35
24.99
34.69
40.68
42.77
41.39
37.46
32.17
26.71
22.01
18.56
16.46
15.48
15.25
15.41
15.67
15.81
15.67
15.06
13.79
11.61
8.21
3.25
-3.57
-12.30
-22.48
-32.97
-42.00
-47.58
-48.08
-42.86
-32.47
-18.50
-3.01
12.05
25.23
35.64
42.82
46.49
46.65
43.61
38.16
31.52
25.06
19.86
16.45
14.71
14.08
13.92
13.76
13.42
12.87
12.09
10.89
8.90
5.71
0.99
-5.41
-13.35
-22.34
-31.48
-39.56
-45.11
-46.81
-43.72
-35.71
-23.46
-8.43
7.55
22.62
35.24
44.38
49.52
50.67
48.32
43.34
36.86
30.07
24.01
19.38
16.46
15.12
14.92
15.33
15.86
16.15
16.00
15.29
13.89
11.60
8.08
2.94
-4.07
-12.80
-22.46
-31.63
-38.50
-41.30
-38.85
-30.94
-18.41
-3.01
13.12
27.94
39.90
48.15
52.44
53.10
50.70
46.02
39.97
33.49
27.54
22.87
19.87
18.52
18.38
18.77
19.05
18.77
17.76
16.03
13.59
10.29
5.76
-0.43
-8.52
-18.18
-28.33
-37.25
-42.93
-43.72
-38.82
-28.62
-14.52
1.47
17.30
31.30
42.33
49.84
53.68
54.03
51.36
46.42
40.22
33.86
28.32
24.24
21.75
20.56
20.08
19.73
19.09
17.97
16.30
14.03
10.94
6.66
0.80
-6.90
-16.21
-26.31
-35.81
-42.94
-45.99
-43.76
-36.05
-23.69
-8.38
7.70
22.53
34.55
42.91
47.38
48.20
45.95
41.40
35.54
29.44
24.12
20.28
18.15
17.46
17.59
17.84
17.73
16.99
15.60
13.57
10.76
6.87
1.44
-5.82
-14.80
-24.76
-34.28
-41.58
-44.91
-43.15
-36.14
-24.76
-10.67
4.11
17.81
29.08
37.12
41.58
42.47
40.13
35.25
28.87
22.21
16.39
12.17
9.76
8.86
8.88
9.17
9.31
9.03
8.24
6.80
4.46
0.86
-4.38
-11.35
-19.72
-28.57
-36.51
-41.87
-43.23
-39.72
-31.38
-19.07
-4.34
10.91
24.87
36.06
43.53
46.99
46.69
43.36
38.01
31.73
25.48
20.01
15.73
12.77
10.99
10.11
9.78
9.64
9.34
8.49
6.68
3.50
-1.36
-8.01
-16.25
-25.44
-34.54
-42.17
-46.87
-47.37
-42.97
-33.81
-20.91
-6.00
8.96
22.24
32.65
39.61
43.13
43.52
41.39
37.51
32.79
28.14
24.29
21.64
20.14
19.44
19.05
18.53
17.63
16.25
14.41
12.11
9.29
5.76
1.23
-4.67
-12.10
-20.85
-30.09
-38.33
-43.79
-44.88
-40.77
-31.77
-19.25
-5.16
8.53
20.29
29.27
35.17
38.04
38.15
35.93
32.00
27.22
22.53
18.74
16.30
15.18
14.89
14.76
14.19
12.84
10.74
8.14
5.35
2.50
-0.56
-4.23
-9.03
-15.32
-23.07
-31.68
-40.01
-46.53
-49.69
-48.45
-42.55
-32.66
-20.17
-6.80
5.81
16.43
24.32
29.14
30.90
29.90
26.70
22.14
17.21
12.86
9.79
8.28
8.17
8.94
9.90
10.48
10.32
9.38
7.82
5.85
3.51
0.56
-3.49
-9.14
-16.62
-25.46
-34.51
-42.04
-46.27
-45.94
-40.77
-31.49
-19.58
-6.80
5.32
15.70
23.69
29.00
31.51
31.31
28.76
24.60
19.81
15.38
12.02
9.93
8.83
8.19
7.56
6.70
5.72
4.77
3.95
3.09
1.78
-0.50
-4.26
-9.81
-17.14
-25.79
-34.84
-42.93
-48.49
-50.20
-47.29
-39.85
-28.87
-15.86
-2.50
9.77
20.02
27.70
32.66
34.92
34.69
32.36
28.57
24.19
20.11
17.05
15.31
14.78
14.90
15.07
14.78
13.81
12.23
10.21
7.88
5.22
2.08
-1.81
-6.68
-12.75
-20.04
-28.29
-36.80
-44.37
-49.60
-51.18
-48.43
-41.47
-31.22
-19.04
-6.36
5.63
16.09
24.38
30.06
32.83
32.71
30.09
25.73
20.68
15.93
12.25
9.93
8.83
8.42
8.07
7.31
5.99
4.30
2.58
1.10
-0.16
-1.54
-3.62
-6.94
-11.93
-18.70
-26.89
-35.72
-43.92
-49.96
-52.37
-50.20
-43.34
-32.63
-19.60
-6.08
6.28
16.32
23.45
27.54
28.78
27.46
24.03
19.09
13.41
7.82
3.13
-0.15
-1.87
-2.32
-2.01
-1.47
-1.03
-0.78
-0.64
-0.52
-0.49
-0.84
-2.01
-4.42
-8.40
-14.04
-21.03
-28.66
-35.81
-41.10
-43.27
-41.49
-35.63
-26.34
-14.80
-2.42
9.50
19.88
27.98
33.31
35.60
34.89
31.57
26.42
20.49
14.89
10.51
7.82
6.81
7.05
7.91
8.74
9.07
8.68
7.56
5.81
3.50
0.63
-2.96
-7.48
-13.16
-20.11
-28.10
-36.47
-44.08
-49.46
-51.26
-48.63
-41.56
-30.93
-18.26
-5.20
6.85
16.99
24.74
29.93
32.48
32.42
30.00
25.81
20.82
16.13
12.68
10.95
10.81
11.64
12.60
12.92
12.20
10.38
7.72
4.57
1.19
-2.40
-6.37
-11.05
-16.77
-23.74
-31.77
-40.27
-48.12
-53.94
-56.32
-54.30
-47.63
-36.91
-23.45
-8.89
5.11
17.25
26.66
32.89
35.86
35.75
32.99
28.32
22.74
17.33
13.08
10.56
9.76
10.17
10.97
11.41
11.03
9.83
8.10
6.18
4.22
2.14
-0.41
-3.88
-8.61
-14.80
-22.40
-31.00
-39.81
-47.64
-53.14
-55.07
-52.70
-46.00
-35.71
-23.12
-9.72
3.04
14.04
22.47
27.85
30.04
29.18
25.78
20.68
14.95
9.67
5.71
3.53
3.07
3.86
5.16
6.30
6.83
6.60
5.72
4.37
2.61
0.32
-2.77
-6.98
-12.59
-19.67
-27.87
-36.33
-43.75
-48.59
-49.54
-45.93
-37.93
-26.51
-13.18
0.48
13.09
23.60
31.26
35.64
36.58
34.34
29.64
23.57
17.39
12.21
8.68
6.92
6.54
6.84
7.14
6.99
6.21
4.92
3.29
1.43
-0.75
-3.56
-7.42
-12.76
-19.77
-28.21
-37.25
-45.58
-51.58
-53.77
-51.26
-44.00
-32.79
-19.05
-4.45
9.45
21.46
30.77
36.96
39.94
39.87
37.23
32.74
27.35
22.12
17.92
15.29
14.16
14.05
14.17
13.79
12.54
10.45
7.84
5.03
2.14
-1.02
-4.89
-10.00
-16.75
-25.26
-35.14
-45.36
-54.39
-60.40
-61.86
-57.98
-49.06
-36.37
-21.69
-6.80
6.97
18.81
28.23
34.91
38.55
39.04
36.67
32.19
26.72
21.49
17.45
15.03
14.14
14.21
14.53
14.49
13.77
12.39
10.52
8.37
5.98
3.18
-0.30
-4.71
-10.25
-17.00
-24.91
-33.64
-42.43
-50.07
-54.99
-55.77
-51.58
-42.58
-29.90
-15.27
-0.52
12.90
24.05
32.42
37.66
39.59
38.24
34.06
28.03
21.51
15.88
12.14
10.62
10.90
12.12
13.35
13.91
13.58
12.50
10.93
9.10
6.97
4.30
0.72
-4.14
-10.54
-18.50
-27.66
-37.19
-45.79
-51.88
-54.01
-51.29
-43.67
-31.98
-17.68
-2.51
11.87
24.13
33.29
38.78
40.39
38.38
33.51
26.93
20.04
14.12
10.08
8.20
8.16
9.16
10.25
10.64
9.97
8.32
6.08
3.62
1.07
-1.83
-5.65
-11.00
-18.28
-27.33
-37.38
-47.04
-54.57
-58.32
-57.18
-50.87
-40.06
-26.11
-10.73
4.50
18.28
29.65
37.94
42.72
43.87
41.71
37.13
31.40
25.91
21.72
19.34
18.59
18.82
19.18
19.00
17.89
15.86
13.14
10.05
6.78
3.32
-0.59
-5.31
-11.29
-18.79
-27.73
-37.43
-46.64
-53.68
-56.85
-54.96
-47.70
-35.81
-20.88
-4.84
10.52
23.92
34.60
42.22
46.61
47.75
45.78
41.27
35.21
28.95
23.77
20.54
19.44
19.91
20.98
21.66
21.32
19.89
17.66
15.12
12.52
9.81
6.57
2.29
-3.50
-10.99
-20.03
-30.11
-40.35
-49.54
-56.29
-59.23
-57.41
-50.55
-39.26
-24.86
-9.16
6.08
19.38
29.77
36.70
39.99
39.80
36.59
31.26
25.04
19.29
15.17
13.29
13.54
15.14
16.97
18.01
17.69
15.95
13.21
10.03
6.82
3.65
0.23
-3.99
-9.56
-16.66
-24.98
-33.61
-41.23
-46.46
-48.23
-46.05
-40.01
-30.69
-18.95
-5.77
7.71
20.29
30.69
37.82
41.07
40.53
36.94
31.63
25.96
21.13
17.79
16.05
15.57
15.74
15.90
15.60
14.60
12.92
10.76
8.24
5.33
1.80
-2.77
-8.81
-16.55
-25.80
-35.84
-45.36
-52.72
-56.31
-55.00
-48.49
-37.49
-23.51
-8.38
6.13
18.75
28.75
35.86
40.06
41.39
39.97
36.16
30.71
24.77
19.64
16.37
15.35
16.14
17.65
18.68
18.37
16.60
13.82
10.74
7.77
4.83
1.38
-3.30
-9.68
-17.81
-27.23
-37.01
-45.88
-52.39
-55.20
-53.40
-46.86
-36.23
-22.95
-8.67
5.08
17.18
26.98
34.11
38.33
39.50
37.76
33.68
28.28
22.87
18.64
16.24
15.66
16.29
17.16
17.45
16.71
14.94
12.50
9.82
7.12
4.34
1.13
-2.97
-8.39
-15.34
-23.69
-32.91
-42.03
-49.70
-54.52
-55.29
-51.45
-43.22
-31.58
-18.02
-4.15
8.56
18.99
26.47
30.68
31.66
29.81
25.90
20.93
16.01
12.09
9.77
9.11
9.68
10.77
11.65
11.79
11.04
9.49
7.35
4.80
1.85
-1.61
-5.85
-11.16
-17.74
-25.48
-33.76
-41.36
-46.73
-48.33
-45.28
-37.64
-26.44
-13.31
0.03
12.17
22.19
29.51
33.77
34.81
32.79
28.37
22.71
17.19
12.95
10.53
9.77
9.91
10.07
9.55
8.16
6.17
4.00
2.00
0.20
-1.74
-4.35
-8.22
-13.70
-20.76
-28.91
-37.15
-44.15
-48.44
-48.82
-44.65
-36.13
-24.26
-10.62
3.06
15.27
24.99
31.69
35.27
35.93
34.15
30.60
26.19
21.86
18.41
16.29
15.49
15.56
15.85
15.76
14.92
13.27
10.96
8.20
5.14
1.81
-1.96
-6.45
-12.04
-18.99
-27.23
-36.14
-44.52
-50.77
-53.36
-51.27
-44.40
-33.55
-20.16
-5.91
7.70
19.57
29.02
35.67
39.32
39.96
37.90
33.81
28.71
23.76
19.96
17.83
17.29
17.73
18.30
18.20
17.03
14.87
12.13
9.27
6.51
3.63
0.14
-4.60
-11.02
-19.15
-28.51
-38.16
-46.84
-53.20
-56.08
-54.73
-49.05
-39.59
-27.39
-13.83
-0.28
12.00
21.99
28.88
32.23
32.10
29.11
24.40
19.35
15.10
12.31
11.01
10.77
10.96
11.05
10.74
9.89
8.54
6.73
4.52
1.96
-0.96
-4.32
-8.36
-13.42
-19.72
-27.17
-35.14
-42.44
-47.63
-49.41
-46.99
-40.38
-30.27
-17.86
-4.48
8.55
20.03
28.93
34.51
36.42
34.94
31.00
26.04
21.55
18.64
17.64
18.12
19.11
19.61
18.97
17.15
14.63
12.08
9.98
8.37
6.71
4.17
-0.19
-6.99
-16.26
-27.30
-38.64
-48.32
-54.44
-55.57
-51.25
-42.02
-29.21
-14.56
0.24
13.80
25.09
33.42
38.38
39.84
38.12
34.00
28.65
23.40
19.31
16.92
16.12
16.29
16.56
16.21
14.92
12.78
10.17
7.48
4.88
2.23
-0.87
-4.95
-10.48
-17.69
-26.42
-36.00
-45.25
-52.61
-56.53
-55.87
-50.35
-40.57
-27.89
-13.97
-0.32
11.93
22.03
29.50
33.92
35.11
33.20
28.83
23.17
17.61
13.38
11.09
10.66
11.40
12.37
12.83
12.43
11.22
9.50
7.53
5.43
3.01
-0.07
-4.26
-9.91
-17.17
-25.79
-35.08
-43.83
-50.55
-53.78
-52.48
-46.40
-36.14
-22.99
-8.62
5.33
17.57
27.20
33.75
37.04
37.15
34.49
29.80
24.19
18.85
14.80
12.58
12.06
12.59
13.27
13.40
12.69
11.25
9.44
7.52
5.50
3.04
-0.40
-5.30
-11.93
-20.12
-29.23
-38.14
-45.41
-49.60
-49.58
-44.92
-35.99
-23.92
-10.24
3.44
15.76
25.72
32.67
36.38
36.96
34.93
31.11
26.53
22.15
18.66
16.35
15.14
14.61
14.23
13.52
12.13
10.02
7.40
4.62
1.97
-0.54
-3.28
-6.92
-12.17
-19.47
-28.59
-38.59
-47.88
-54.61
-57.18
-54.67
-47.12
-35.47
-21.29
-6.27
8.03
20.53
30.49
37.49
41.30
41.91
39.62
35.14
29.55
24.06
19.71
17.05
15.99
15.93
16.07
15.73
14.60
12.80
10.64
8.41
6.14
3.54
0.11
-4.61
-10.93
-18.84
-27.99
-37.66
-46.78
-54.02
-58.01
-57.63
-52.41
-42.66
-29.51
-14.58
0.38
13.85
24.73
32.38
36.54
37.32
35.19
30.96
25.68
20.50
16.36
13.79
12.78
12.83
13.17
13.10
12.20
10.40
7.95
5.16
2.23
-0.87
-4.46
-8.95
-14.72
-21.93
-30.33
-39.15
-47.13
-52.73
-54.55
-51.71
-44.17
-32.83
-19.17
-4.90
8.47
19.83
28.49
34.14
36.67
36.24
33.33
28.74
23.55
18.84
15.40
13.54
13.02
13.25
13.63
13.74
13.48
12.98
12.34
11.49
10.09
7.66
3.75
-1.87
-9.12
-17.54
-26.36
-34.53
-40.88
-44.34
-44.21
-40.27
-32.95
-23.11
-11.83
-0.22
10.78
20.35
27.80
32.52
34.12
32.63
28.60
23.09
17.46
12.90
10.16
9.34
9.93
11.16
12.26
12.74
12.38
11.19
9.21
6.44
2.84
-1.71
-7.31
-14.02
-21.79
-30.35
-39.05
-46.88
-52.53
-54.72
-52.57
-45.87
-35.21
-21.78
-7.15
7.18
19.90
30.01
36.88
40.24
40.25
37.51
33.00
27.90
23.34
20.12
18.48
18.16
18.53
18.88
18.68
17.72
16.05
13.90
11.41
8.59
5.26
1.13
-4.10
-10.60
-18.36
-27.02
-35.82
-43.59
-48.97
-50.69
-48.02
-41.00
-30.45
-17.80
-4.57
7.89
18.61
26.94
32.40
34.72
33.91
30.44
25.29
19.79
15.19
12.29
11.19
11.37
12.01
12.43
12.24
11.46
10.26
8.78
6.98
4.61
1.33
-3.17
-9.15
-16.58
-25.18
-34.19
-42.47
-48.62
-51.31
-49.64
-43.49
-33.50
-20.95
-7.44
5.53
16.67
25.07
30.20
31.92
30.58
26.93
22.06
17.13
13.07
10.39
9.14
8.96
9.32
9.70
9.67
9.05
7.79
6.01
3.81
1.25
-1.78
-5.65
-10.76
-17.35
-25.23
-33.59
-41.02
-45.89
-46.86
-43.29
-35.49
-24.56
-12.03
0.60
12.11
21.66
28.71
32.92
34.17
32.68
29.08
24.39
19.73
16.03
13.68
12.58
12.22
11.98
11.45
10.53
9.29
7.89
6.33
4.41
1.78
-1.95
-7.11
-13.86
-22.07
-31.24
-40.39
-48.16
-53.01
-53.67
-49.55
-40.93
-28.94
-15.18
-1.30
11.37
21.89
29.68
34.47
36.20
35.15
31.98
27.68
23.36
19.92
17.82
16.97
16.91
17.01
16.77
15.89
14.31
12.20
9.72
6.96
3.92
0.36
-4.07
-9.80
-17.08
-25.75
-35.09
-43.79
-50.18
-52.74
-50.53
-43.53
-32.68
-19.58
-6.02
6.43
16.73
24.33
29.10
31.12
30.70
28.33
24.73
20.83
17.52
15.44
14.75
15.10
15.78
16.08
15.56
14.23
12.38
10.42
8.52
6.54
4.02
0.43
-4.66
-11.35
-19.34
-27.91
-35.98
-42.23
-45.43
-44.66
-39.66
-30.96
-19.74
-7.60
3.87
13.38
20.07
23.60
24.12
22.17
18.65
14.56
10.81
7.98
6.22
5.30
4.88
4.63
4.42
4.21
4.06
3.87
3.46
2.58
1.00
-1.52
-5.20
-10.25
-16.74
-24.41
-32.43
-39.46
-43.86
-44.29
-40.14
-31.85
-20.70
-8.37
3.63
14.25
22.94
29.36
33.27
34.40
32.72
28.68
23.24
17.69
13.22
10.49
9.41
9.34
9.47
9.15
8.19
6.77
5.18
3.59
1.92
-0.23
-3.34
-7.89
-14.07
-21.67
-29.97
-37.84
-43.88
-46.79
-45.67
-40.33
-31.25
-19.49
-6.42
6.59
18.34
27.89
34.56
38.00
38.21
35.60
31.01
25.52
20.25
16.06
13.35
12.02
11.60
11.44
11.04
10.16
8.81
7.15
5.30
3.19
0.59
-2.89
-7.66
-13.94
-21.70
-30.38
-38.96
-45.98
-49.93
-49.71
-44.95
-36.21
-24.69
-11.92
0.70
12.11
21.58
28.56
32.66
33.68
31.82
27.76
22.56
17.36
13.10
10.24
8.75
8.26
8.26
8.31
8.12
7.53
6.49
4.95
2.85
0.10
-3.51
-8.20
-14.17
-21.43
-29.55
-37.54
-43.98
-47.37
-46.58
-41.27
-32.05
-20.24
-7.46
4.80
15.42
23.73
29.35
32.15
32.21
29.88
25.84
20.99
16.27
12.39
9.71
8.22
7.59
7.36
7.13
6.62
5.69
4.33
2.55
0.32
-2.54
-6.32
-11.38
-17.87
-25.51
-33.44
-40.28
-44.43
-44.64
-40.37
-31.99
-20.61
-7.70
5.29
17.14
26.95
34.05
37.99
38.64
36.34
31.88
26.44
21.23
17.14
14.51
13.16
12.50
11.91
10.96
9.52
7.71
5.75
3.71
1.50
-1.23
-4.97
-10.25
-17.33
-26.03
-35.50
-44.29
-50.64
-52.99
-50.48
-43.23
-32.23
-19.00
-5.09
8.20
19.92
29.38
36.04
39.55
39.90
37.52
33.28
28.30
23.62
19.96
17.52
16.08
15.17
14.27
13.09
11.50
9.57
7.45
5.16
2.57
-0.65
-4.95
-10.75
-18.23
-27.17
-36.76
-45.66
-52.21
-54.88
-52.71
-45.68
-34.68
-21.27
-7.19
6.04
17.35
26.08
31.88
34.65
34.51
31.90
27.59
22.57
17.82
14.09
11.71
10.64
10.50
10.80
11.06
10.90
10.11
8.61
6.42
3.53
-0.15
-4.79
-10.62
-17.76
-25.98
-34.57
-42.34
-47.85
-49.77
-47.32
-40.47
-29.99
-17.23
-3.75
8.99
19.84
27.99
33.01
34.80
33.66
30.24
25.54
20.65
16.52
13.67
12.10
11.45
11.14
10.72
9.93
8.82
7.54
6.14
4.49
2.26
-0.97
-5.58
-11.71
-19.19
-27.41
-35.34
-41.66
-44.96
-44.18
-38.87
-29.43
-17.00
-3.24
10.15
21.73
30.54
36.12
38.43
37.76
34.65
29.88
24.37
19.13
14.97
12.34
11.21
11.14
11.43
11.41
10.65
9.04
6.68
3.79
0.53
-3.07
-7.16
-11.99
-17.82
-24.63
-31.97
-38.82
-43.78
-45.46
-42.93
-36.02
-25.40
-12.31
1.78
15.47
27.59
37.22
43.64
46.45
45.70
42.02
36.49
30.45
25.10
21.19
18.90
17.90
17.55
17.22
16.41
14.91
12.68
9.77
6.22
2.05
-2.81
-8.45
-15.07
-22.83
-31.71
-41.28
-50.58
-58.18
-62.52
-62.41
-57.39
-47.91
-35.16
-20.75
-6.31
6.67
17.10
24.25
27.86
28.18
25.91
22.09
17.80
13.97
11.19
9.64
9.19
9.46
9.95
10.18
9.81
8.73
7.02
4.83
2.21
-1.02
-5.26
-10.96
-18.29
-26.89
-35.76
-43.41
-48.23
-48.90
-44.82
-36.23
-24.16
-10.13
4.18
17.23
27.84
35.22
39.05
39.47
37.05
32.73
27.61
22.81
19.11
16.83
15.81
15.51
15.30
14.65
13.34
11.39
9.06
6.55
3.87
0.77
-3.24
-8.78
-16.23
-25.45
-35.54
-44.90
-51.53
-53.61
-50.10
-41.14
-27.97
-12.57
2.98
16.99
28.45
36.82
41.91
43.68
42.27
38.19
32.41
26.28
21.09
17.72
16.31
16.28
16.69
16.65
15.71
13.89
11.56
9.11
6.68
4.04
0.67
-4.07
-10.68
-19.27
-29.35
-39.74
-48.76
-54.64
-55.96
-52.13
-43.50
-31.26
-16.98
-2.28
11.56
23.53
32.96
39.33
42.35
42.12
39.18
34.52
29.33
24.71
21.34
19.38
18.51
18.22
17.96
17.38
16.33
14.81
12.87
10.49
7.56
3.84
-1.01
-7.29
-15.15
-24.36
-34.21
-43.50
-50.72
-54.38
-53.48
-47.74
-37.68
-24.51
-9.82
4.73
17.69
27.95
34.83
38.10
37.98
35.10
30.43
25.10
20.16
16.38
14.05
13.00
12.73
12.69
12.45
11.81
10.78
9.38
7.55
5.13
1.83
-2.60
-8.42
-15.72
-24.32
-33.58
-42.35
-49.02
-52.01
-50.14
-43.14
-31.77
-17.62
-2.64
11.37
23.08
31.65
36.74
38.34
36.81
32.85
27.53
22.03
17.43
14.33
12.78
12.35
12.37
12.30
11.89
11.12
10.09
8.79
7.03
4.43
0.57
-4.92
-12.15
-20.90
-30.45
-39.61
-46.81
-50.50
-49.55
-43.64
-33.41
-20.20
-5.74
8.36
20.78
30.66
37.45
40.88
41.01
38.27
33.52
27.91
22.62
18.54
16.05
14.99
14.76
14.67
14.19
13.08
11.40
9.31
6.93
4.21
0.85
-3.58
-9.45
-16.93
-25.79
-35.22
-43.93
-50.32
-52.96
-50.93
-44.12
-33.29
-19.82
-5.32
8.73
21.15
31.06
37.85
41.19
41.13
38.18
33.37
27.95
23.13
19.66
17.67
16.77
16.28
15.59
14.38
12.64
10.55
8.29
5.90
3.21
-0.05
-4.23
-9.63
-16.45
-24.60
-33.52
-42.18
-49.12
-52.81
-52.08
-46.56
-36.78
-24.02
-9.89
4.02
16.44
26.44
33.41
36.99
37.14
34.27
29.29
23.42
17.96
13.88
11.63
11.03
11.45
12.12
12.40
11.94
10.75
8.99
6.83
4.32
1.27
-2.62
-7.69
-14.18
-21.95
-30.41
-38.43
-44.55
-47.32
-45.74
-39.60
-29.57
-16.96
-3.41
9.55
20.71
29.20
34.53
36.56
35.50
32.04
27.17
22.06
17.70
14.67
13.04
12.46
12.36
12.24
11.80
10.95
9.74
8.22
6.29
3.73
0.21
-4.58
-10.82
-18.37
-26.74
-35.00
-41.89
-46.11
-46.59
-42.81
-35.04
-24.23
-11.74
0.96
12.62
22.33
29.55
34.01
35.68
34.72
31.59
27.01
21.88
17.16
13.57
11.46
10.67
10.62
10.59
9.97
8.52
6.35
3.75
0.98
-2.01
-5.53
-10.09
-16.09
-23.56
-31.97
-40.31
-47.19
-51.23
-51.42
-47.35
-39.35
-28.35
-15.60
-2.41
10.04
20.77
29.01
34.26
36.32
35.44
32.29
27.84
23.14
19.08
16.19
14.55
13.90
13.75
13.57
12.96
11.74
9.97
7.85
5.58
3.22
0.58
-2.70
-7.06
-12.82
-20.06
-28.40
-36.98
-44.53
-49.59
-50.90
-47.78
-40.38
-29.69
-17.23
-4.62
6.78
16.02
22.59
26.24
26.94
24.96
20.90
15.72
10.54
6.33
3.64
2.41
2.10
2.01
1.59
0.71
-0.46
-1.58
-2.46
-3.18
-4.06
-5.51
-7.82
-11.19
-15.66
-21.09
-27.15
-33.15
-38.06
-40.63
-39.82
-35.12
-26.84
-16.04
-4.14
7.44
17.63
25.76
31.39
34.25
34.28
31.72
27.23
21.92
16.96
13.33
11.45
11.09
11.57
12.07
11.98
11.05
9.43
7.40
5.26
3.07
0.64
-2.47
-6.80
-12.69
-20.11
-28.43
-36.49
-42.86
