1543516695.00
64.000000
-0.00
-0.00
-0.00
-0.00
-0.00
-0.00
-0.00
-0.00
-0.00
-0.00
0.00
0.01
0.01
-0.00
-0.03
-0.05
-0.05
0.00
0.13
0.36
0.66
1.01
1.37
1.72
2.06
2.40
2.79
3.24
3.80
4.42
5.06
5.66
6.20
6.68
7.15
7.68
8.31
9.14
10.09
11.04
11.88
12.56
13.14
13.76
14.65
15.96
17.91
20.32
22.90
25.38
27.58
29.57
31.68
34.32
37.81
42.54
48.15
54.10
59.83
64.97
69.58
74.14
79.34
85.71
93.76
103.00
112.62
121.73
129.77
136.75
143.30
150.75
157.77
166.64
177.95
191.79
206.97
220.57
228.25
225.36
208.53
176.87
132.76
80.05
23.07
-34.94
-92.44
-149.16
-205.23
-260.37
-313.74
-363.87
-409.83
-450.91
-486.50
-515.74
-537.23
-549.22
-549.96
-538.37
-514.21
-478.67
-433.88
-382.45
-327.02
-269.84
-212.63
-156.66
-102.95
-52.37
-5.90
35.58
71.43
101.35
125.50
144.38
158.69
169.15
176.37
180.75
182.57
182.07
179.51
175.23
169.65
163.18
156.15
148.81
141.30
133.69
126.02
118.33
110.69
103.16
95.80
88.68
81.83
75.25
68.95
62.95
57.25
51.86
46.78
42.03
37.59
33.45
29.61
26.07
22.81
19.82
17.11
14.67
12.48
10.54
8.83
7.35
6.07
4.98
4.07
3.30
2.67
2.16
1.76
1.44
1.20
1.02
0.89
0.80
0.74
0.71
0.69
0.70
0.71
0.73
0.76
0.80
0.85
0.90
0.97
1.04
1.13
1.22
1.33
1.45
1.58
1.74
1.91
2.10
2.31
2.54
2.80
3.09
3.40
3.74
4.12
4.52
4.97
5.44
5.96
6.52
7.12
7.76
8.45
9.19
9.97
10.79
11.66
12.57
13.52
14.52
15.57
16.69
17.86
19.09
20.33
21.56
22.69
23.64
24.27
24.42
23.93
22.66
20.52
17.46
13.50
8.70
3.28
-2.51
-8.34
-13.91
-18.89
-22.99
-26.02
-27.86
-28.53
-28.11
-26.79
-24.79
-22.36
-19.69
-16.97
-14.32
-11.79
-9.36
-6.97
-4.56
-2.09
0.50
3.28
6.32
9.67
13.39
17.52
22.09
26.96
32.08
37.36
42.69
47.95
53.00
57.72
61.99
65.79
68.81
70.89
72.03
72.32
71.92
71.11
70.13
69.34
69.13
69.43
70.35
72.03
74.60
78.18
82.75
88.23
94.48
101.41
108.30
114.72
120.38
125.03
128.30
129.57
127.79
121.30
112.51
101.90
89.78
76.45
62.18
47.11
31.24
14.39
-3.65
-22.89
-43.78
-66.20
-89.73
-113.91
-138.42
-163.21
-188.50
-214.34
-240.53
-267.10
-293.76
-320.29
-346.55
-372.45
-397.55
-420.69
-439.94
-452.77
-456.78
-449.92
-431.09
-400.50
-360.01
-312.87
-263.04
-214.24
-168.87
-127.53
-88.98
-51.09
-11.72
30.53
76.34
125.89
178.60
232.45
283.64
326.99
357.52
372.80
373.97
365.14
351.24
335.42
317.91
296.77
270.08
237.72
201.77
164.97
128.68
91.73
50.97
4.03
-47.87
-98.65
-138.71
-158.91
-155.13
-130.88
-96.55
-65.49
-48.30
-48.65
-62.16
-78.86
-87.67
-80.71
-55.79
-16.38
30.21
75.45
111.99
135.16
143.55
138.61
123.47
101.62
76.10
49.38
23.78
1.38
-16.36
-29.35
-39.34
-49.17
-61.37
-76.58
-92.82
-106.37
-113.53
-112.59
-104.57
-92.70
-80.82
-71.67
-66.16
-63.71
-63.32
-64.32
-66.25
-68.22
-68.53
-65.05
-56.38
-42.85
-26.67
-10.88
2.27
12.52
21.41
31.01
42.41
54.98
66.89
76.30
82.46
85.92
87.83
89.06
89.59
88.73
85.83
80.63
73.66
65.93
58.36
51.38
44.86
38.26
31.05
23.04
14.42
5.77
-2.31
-9.46
-15.59
-20.77
-24.95
-27.91
-29.38
-29.57
-29.51
-31.14
-36.93
-48.95
-67.90
-92.63
-120.48
-148.08
-172.38
-191.19
-203.25
-207.68
-203.82
-191.14
-169.53
-139.67
-102.77
-59.86
-10.91
45.20
109.56
181.17
255.42
324.19
378.00
409.40
415.79
400.11
369.12
330.40
289.48
248.89
208.91
169.17
129.98
92.16
56.12
20.81
-16.19
-57.39
-103.46
-151.97
-197.74
-234.32
-256.66
-263.20
-256.54
-242.62
-228.66
-220.87
-222.49
-233.09
-248.84
-263.96
-272.60
-270.75
-257.47
-234.95
-207.46
-179.49
-154.06
-131.93
-112.07
-92.77
-72.66
-51.16
-27.98
-2.76
25.37
57.51
94.27
135.50
180.41
228.12
277.80
328.43
378.04
423.40
460.30
484.60
493.57
486.68
465.57
433.44
394.10
351.51
309.44
271.39
240.25
217.74
203.95
197.34
195.26
194.85
193.73
190.29
183.58
173.04
158.65
140.65
119.56
96.05
70.82
44.33
16.83
-11.61
-41.07
-71.77
-104.10
-138.33
-174.25
-210.68
-245.24
-274.63
-295.57
-305.85
-305.25
-295.57
-279.95
-261.64
-242.99
-225.12
-208.23
-192.26
-177.39
-164.12
-152.85
-143.54
-135.53
-127.81
-119.57
-110.55
-101.22
-92.45
-85.00
-79.07
-74.22
-69.56
-64.27
-58.07
-51.36
-45.05
-40.03
-36.81
-35.17
-34.36
-33.40
-31.50
-28.35
-24.10
-19.26
-14.39
-9.97
-6.34
-3.69
-2.08
-1.49
-1.73
-2.49
-3.41
-4.12
-4.46
-4.48
-4.47
-4.79
-5.72
-7.26
-9.08
-10.68
-11.59
-11.56
-10.70
-9.40
-8.12
-7.19
-6.71
-6.60
-6.60
-6.47
-5.98
-4.99
-3.49
-1.57
0.58
2.77
4.88
6.90
8.88
10.85
12.70
14.21
15.14
15.36
14.98
14.26
13.55
13.03
12.68
12.26
11.49
10.22
8.50
6.60
4.81
3.31
2.10
1.02
-0.12
-1.38
-2.74
-4.10
-5.38
-6.57
-7.67
-8.63
-9.33
-9.69
-9.75
-9.78
-10.14
-11.13
-12.75
-14.65
-16.29
-17.15
-16.99
-15.84
-14.02
-11.89
-9.79
-7.98
-6.60
-5.73
-5.33
-5.27
-5.31
-5.25
-4.95
-4.38
-3.57
-2.57
-1.39
-0.01
1.50
2.98
4.18
4.91
5.16
5.11
5.08
5.37
6.04
6.96
7.77
8.13
7.82
6.77
5.12
3.10
0.94
-1.18
-3.17
-5.00
-6.69
-8.29
-9.85
-11.43
-13.02
-14.63
-16.13
-17.33
-17.93
-17.69
-16.48
-14.40
-11.76
-9.01
-6.53
-4.51
-2.93
-1.66
-0.57
0.35
1.05
1.41
1.41
1.15
0.83
0.66
0.83
1.36
2.20
3.23
4.30
5.28
6.04
6.50
6.59
6.30
5.64
4.63
3.27
1.61
-0.29
-2.31
-4.28
-5.97
-7.21
-7.94
-8.27
-8.45
-8.79
-9.57
-10.92
-12.78
-14.90
-16.88
-18.26
-18.64
-17.78
-15.66
-12.53
-8.86
-5.23
-2.06
0.42
2.31
3.93
5.54
7.26
8.95
10.32
11.12
11.28
10.97
10.49
10.08
9.87
9.81
9.80
9.79
9.81
9.97
10.30
10.73
11.06
11.09
10.69
9.88
8.82
7.70
6.64
5.69
4.78
3.85
2.88
1.89
0.97
0.17
-0.53
-1.20
-1.93
-2.79
-3.78
-4.89
-6.08
-7.33
-8.63
-10.00
-11.49
-13.08
-14.65
-15.91
-16.48
-16.00
-14.33
-11.64
-8.36
-5.07
-2.20
0.03
1.63
2.80
3.77
4.73
5.79
6.98
8.17
9.21
9.96
10.37
10.53
10.66
10.98
11.56
12.36
13.22
13.97
14.47
14.68
14.56
14.09
13.27
12.20
11.07
10.09
9.41
9.04
8.86
8.63
8.19
7.40
6.32
5.09
3.91
2.96
2.31
1.85
1.34
0.51
-0.80
-2.51
-4.33
-5.86
-6.82
-7.15
-7.07
-7.05
-7.54
-8.84
-10.90
-13.39
-15.78
-17.47
-17.98
-17.08
-14.88
-11.69
-8.02
-4.39
-1.19
1.34
3.19
4.41
5.18
5.64
5.92
6.14
6.35
6.56
6.73
6.71
6.48
6.03
5.56
5.32
5.54
6.28
7.36
8.47
9.31
9.64
9.45
8.81
7.87
6.78
5.65
4.61
3.75
3.12
2.66
2.24
1.64
0.73
-0.52
-2.01
-3.56
-5.01
-6.20
-7.07
-7.66
-8.08
-8.53
-9.23
-10.36
-11.92
-13.69
-15.23
-16.08
-15.78
-14.17
-11.37
-7.77
-3.92
-0.41
2.35
4.17
5.18
5.67
6.00
6.42
7.02
7.68
8.29
8.83
9.36
9.95
10.63
11.24
11.58
11.55
11.26
10.90
10.70
10.65
10.58
10.21
9.42
8.28
7.05
5.97
5.17
4.54
3.93
3.19
2.38
1.63
1.10
0.80
0.62
0.36
-0.19
-1.06
-2.17
-3.36
-4.49
-5.49
-6.34
-7.12
-7.88
-8.75
-9.85
-11.30
-13.16
-15.35
-17.52
-19.16
-19.70
-18.73
-16.20
-12.48
-8.29
-4.45
-1.59
0.07
0.71
0.83
1.00
1.57
2.61
3.93
5.22
6.26
7.03
7.63
8.23
8.94
9.70
10.30
10.57
10.42
10.00
9.56
9.35
9.44
9.69
9.82
9.64
9.10
8.38
7.75
7.41
7.33
7.32
7.12
6.51
5.44
3.99
2.40
0.90
-0.40
-1.47
-2.42
-3.34
-4.28
-5.18
-5.94
-6.52
-6.98
-7.52
-8.37
-9.73
-11.59
-13.74
-15.81
-17.30
-17.80
-17.07
-15.12
-12.22
-8.80
-5.35
-2.24
0.28
2.16
3.42
4.15
4.47
4.56
4.62
4.87
5.37
6.06
6.78
7.37
7.75
7.97
8.08
8.16
8.19
8.09
7.83
7.37
6.80
6.19
5.62
5.11
4.65
4.21
3.85
3.61
3.53
3.55
3.53
3.20
2.37
1.00
-0.73
-2.48
-3.88
-4.73
-5.05
-5.09
-5.17
-5.58
-6.51
-8.02
-10.13
-12.70
-15.43
-17.82
-19.28
-19.29
-17.69
-14.70
-10.92
-7.03
-3.63
-1.02
0.82
2.08
3.01
3.84
4.68
5.55
6.40
7.22
7.98
8.73
9.53
10.39
11.24
11.94
12.36
12.47
12.31
11.96
11.54
11.01
10.32
9.42
8.36
7.33
6.54
6.16
6.20
6.46
6.70
6.65
6.19
5.34
4.22
2.97
1.76
0.68
-0.18
-0.82
-1.30
-1.75
-2.28
-2.98
-3.87
-4.91
-6.05
-7.27
-8.62
-10.16
-11.98
-14.15
-16.69
-19.47
-22.13
-24.15
-24.87
-23.82
-20.86
-16.43
-11.37
-6.61
-2.87
-0.42
0.95
1.73
2.39
3.20
4.19
5.27
6.32
7.31
8.26
9.18
9.97
10.48
10.60
10.34
9.87
9.44
9.24
9.34
9.64
9.94
10.06
9.96
9.68
9.34
9.07
8.86
8.63
8.25
7.57
6.55
5.30
4.07
3.15
2.74
2.84
3.19
3.38
3.06
2.07
0.54
-1.22
-2.88
-4.28
-5.41
-6.47
-7.63
-9.07
-10.83
-12.94
-15.38
-18.12
-21.00
-23.69
-25.64
-26.23
-25.04
-21.92
-17.21
-11.66
-6.19
-1.67
1.39
2.94
3.35
3.28
3.35
3.92
5.03
6.47
7.89
9.07
9.92
10.54
11.11
11.70
12.32
12.93
13.46
13.99
14.55
15.15
15.67
15.85
15.49
14.51
13.09
11.54
10.23
9.34
8.85
8.54
8.17
7.63
6.93
6.20
5.55
5.00
4.46
3.81
2.96
1.90
0.71
-0.53
-1.72
-2.87
-3.99
-5.19
-6.53
-8.06
-9.79
-11.68
-13.74
-15.98
-18.41
-20.98
-23.41
-25.28
-25.99
-25.06
-22.29
-17.97
-12.82
-7.78
-3.68
-0.95
0.45
1.04
1.43
2.09
3.20
4.59
5.96
7.05
7.78
8.26
8.67
9.19
9.83
10.51
11.11
11.52
11.74
11.83
11.82
11.72
11.55
11.32
11.07
10.85
10.63
10.38
9.97
9.35
8.48
7.40
6.17
4.82
3.39
1.93
0.50
-0.78
-1.82
-2.69
-3.52
-4.55
-5.99
-7.87
-10.07
-12.34
-14.49
-16.44
-18.27
-20.09
-21.89
-23.38
-24.10
-23.54
-21.45
-18.02
-13.82
-9.63
-6.07
-3.38
-1.37
0.42
2.36
4.60
6.95
9.03
10.57
11.50
12.07
12.67
13.52
14.64
15.77
16.54
16.76
16.47
15.96
15.58
15.56
15.86
16.27
16.54
16.46
16.01
15.26
14.33
13.29
12.15
10.91
9.56
8.15
6.73
5.39
4.19
3.13
2.14
1.15
0.03
-1.31
-2.88
-4.62
-6.38
-7.95
-9.16
-10.01
-10.66
-11.41
-12.58
-14.38
-16.82
-19.63
-22.35
-24.38
-25.14
-24.20
-21.50
-17.35
-12.41
-7.52
-3.41
-0.50
1.20
2.02
2.49
3.03
3.95
5.29
6.91
8.54
9.94
10.96
11.59
11.95
12.12
12.21
12.24
12.18
12.05
11.91
11.86
11.93
12.05
12.02
11.63
10.79
9.58
8.28
7.14
6.37
5.92
5.62
5.23
4.54
3.50
2.13
0.60
-0.94
-2.39
-3.70
-4.88
-6.02
-7.27
-8.78
-10.72
-13.17
-16.06
-19.18
-22.14
-24.46
-25.66
-25.38
-23.55
-20.42
-16.46
-12.26
-8.30
-4.84
-1.96
0.47
2.53
4.29
5.65
6.51
6.85
6.79
6.66
6.77
7.37
8.53
10.13
11.94
13.71
15.27
16.53
17.48
18.08
18.29
18.09
17.45
16.41
15.04
13.46
11.75
10.04
8.44
7.04
5.90
4.95
4.03
2.95
1.57
-0.11
-1.91
-3.64
-5.10
-6.27
-7.30
-8.43
-9.87
-11.77
-14.15
-16.93
-19.93
-22.88
-25.34
-26.84
-26.89
-25.25
-22.07
-17.90
-13.52
-9.65
-6.65
-4.49
-2.80
-1.14
0.75
2.87
5.00
6.90
8.45
9.71
10.82
11.93
13.08
14.20
15.22
16.11
16.87
17.59
18.23
18.72
18.95
18.79
18.21
17.31
16.20
15.03
13.88
12.79
11.80
10.94
10.26
9.74
9.34
8.95
8.54
8.11
7.73
7.35
6.96
6.35
5.42
4.10
2.47
0.75
-0.84
-2.22
-3.44
-4.61
-5.90
-7.35
-8.92
-10.52
-12.10
-13.71
-15.49
-17.61
-20.12
-22.93
-25.76
-28.09
-29.34
-28.99
-26.79
-22.90
-17.90
-12.59
-7.82
-4.15
-1.72
-0.24
0.77
1.80
3.16
4.85
6.73
8.62
10.31
11.75
12.91
13.85
14.66
15.39
16.07
16.70
17.22
17.58
17.75
17.77
17.65
17.44
17.04
16.36
15.40
14.23
13.10
12.19
11.65
11.45
11.40
11.25
10.84
10.16
9.30
8.39
7.52
6.71
5.92
5.12
4.35
3.59
2.85
1.99
0.83
-0.76
-2.80
-5.14
-7.44
-9.40
-10.82
-11.79
-12.64
-13.85
-15.78
-18.55
-21.85
-25.13
-27.72
-29.03
-28.78
-27.00
-24.00
-20.27
-16.31
-12.55
-9.23
-6.47
-4.21
-2.37
-0.81
0.58
1.87
3.11
4.34
5.54
6.68
7.69
8.52
9.15
9.62
9.97
10.22
10.28
10.05
9.47
8.59
7.50
6.41
5.42
4.61
3.87
3.00
1.77
-0.03
-2.44
-5.24
-8.05
-10.38
-11.79
-12.20
-11.95
-11.75
-12.46
-14.69
-18.64
-23.97
-29.74
-34.77
-38.15
-39.52
-39.14
-37.70
-36.00
-34.61
-33.67
-32.57
-30.33
-26.33
-20.65
-14.13
-7.99
-3.43
-1.10
-1.07
-2.42
-3.85
-4.68
-5.12
-6.15
-8.94
-14.50
-23.19
-34.63
-46.86
-56.86
-61.72
-59.66
-50.82
-37.34
-23.05
-12.18
-11.69
-25.97
-53.34
-86.23
-115.80
-136.75
-147.70
-151.53
-150.73
-146.27
-136.72
-118.94
-90.70
-50.74
0.93
62.92
131.59
200.81
261.71
304.75
321.89
308.97
267.71
205.94
136.16
72.05
24.99
1.06
0.68
19.53
50.63
86.67
121.54
150.98
172.12
183.16
183.06
172.21
153.00
129.83
108.31
93.66
89.00
94.22
106.21
120.01
130.77
135.29
132.43
122.74
107.42
87.64
64.30
38.56
12.27
-11.84
-30.91
-43.02
-47.97
-47.48
-44.40
-41.70
-41.44
-44.28
-49.63
-56.04
-61.87
-65.74
-66.97
-65.69
-62.73
-59.36
-56.83
-55.83
-56.22
-57.00
-56.64
-53.78
-47.79
-39.07
-28.99
-19.35
-11.77
-7.26
-5.98
-7.38
-10.39
-13.51
-15.03
-13.28
-7.23
2.90
15.22
26.53
33.27
32.93
24.94
10.69
-7.31
-26.65
-45.89
-64.65
-82.68
-98.89
-110.81
-115.24
-109.68
-94.22
-72.55
-51.47
-38.51
-38.83
-52.61
-74.59
-96.13
-109.05
-109.40
-99.10
-84.75
-74.12
-72.37
-79.99
-93.27
-106.82
-116.28
-119.93
-118.50
-113.76
-106.98
-98.41
-87.69
-74.73
-60.15
-45.32
-31.82
-20.92
-13.48
-10.11
-11.25
-16.90
-26.14
-36.92
-46.50
-52.34
-53.18
-49.40
-42.53
-34.18
-25.15
-15.15
-3.44
10.35
25.64
41.11
55.38
67.67
78.01
86.97
94.94
101.86
107.23
110.66
112.25
112.65
112.74
113.18
114.18
115.63
117.50
119.98
123.26
126.99
129.84
129.55
123.59
110.11
88.53
59.62
24.96
-13.53
-53.80
-93.44
-129.40
-157.99
-175.55
-179.50
-169.27
-146.71
-115.73
-81.19
-47.73
-18.75
4.07
20.62
31.78
38.82
43.04
45.65
48.02
51.73
58.33
68.67
82.15
96.54
108.50
114.92
114.09
106.45
94.23
80.20
66.53
53.96
42.15
30.45
18.83
8.07
-0.57
-6.22
-8.83
-9.10
-7.94
-5.81
-2.58
2.25
9.10
17.98
28.38
39.46
50.30
59.92
67.40
71.86
72.71
69.94
64.24
56.85
49.22
42.47
37.06
32.86
29.37
26.00
22.47
18.70
14.86
11.21
8.03
5.65
4.51
5.05
7.54
11.74
16.75
21.32
24.26
24.85
22.83
18.04
10.00
-2.02
-18.45
-38.73
-60.88
-81.87
-98.71
-109.36
-113.20
-110.60
-102.20
-88.47
-69.80
-47.11
-22.07
3.13
26.44
46.53
62.90
75.55
84.52
89.69
90.84
87.85
80.75
69.60
54.37
35.17
12.59
-11.89
-35.93
-56.93
-72.78
-82.50
-86.35
-85.51
-81.47
-75.65
-69.22
-63.02
-57.68
-53.44
-50.10
-47.11
-43.72
-39.45
-34.24
-28.56
-23.06
-18.35
-14.78
-12.52
-11.89
-13.47
-18.07
-26.13
-37.24
-49.88
-61.77
-70.61
-74.98
-74.81
-71.17
-65.69
-59.65
-53.74
-47.97
-42.11
-35.93
-29.07
-20.89
-10.36
3.45
20.79
40.56
60.50
77.92
90.82
98.63
102.23
103.21
103.00
102.27
101.02
98.97
96.09
92.65
89.09
85.68
82.46
79.33
76.31
73.72
72.19
72.15
73.55
75.42
75.90
72.61
63.23
46.00
20.04
-14.52
-56.42
-103.11
-150.81
-195.04
-231.55
-257.56
-272.46
-277.92
-277.00
-272.87
-267.74
-262.38
-256.35
-248.50
-237.47
-222.06
-201.53
-175.92
-146.25
-114.47
-82.99
-54.11
-29.51
-10.11
4.01
13.57
20.09
25.57
32.13
41.17
52.83
65.87
78.15
87.65
93.30
95.25
94.48
92.18
89.17
85.73
81.87
77.62
73.21
68.99
65.23
62.02
59.14
56.23
52.94
49.15
45.02
40.93
37.28
34.30
31.91
29.79
27.52
24.75
21.32
17.25
12.73
8.03
3.55
-0.32
-3.22
-4.93
-5.41
-4.77
-3.24
-1.06
1.50
4.19
6.79
9.11
11.10
12.80
14.36
15.83
17.23
18.40
19.23
19.70
19.87
19.90
19.88
19.83
19.66
19.28
18.69
17.95
17.18
16.40
15.55
14.53
13.30
11.97
10.70
9.60
8.62
7.59
6.33
4.75
3.06
1.53
0.34
-0.52
-1.38
-2.68
-4.71
-7.50
-10.66
-13.63
-15.84
-16.89
-16.65
-15.20
-12.76
-9.66
-6.25
-2.90
0.04
2.32
3.79
4.55
4.88
5.14
5.69
6.70
8.14
9.77
11.31
12.47
13.17
13.49
13.66
13.95
14.50
15.25
15.97
16.37
16.16
15.27
13.81
12.03
10.22
8.63
7.44
6.68
6.33
6.25
6.22
6.01
5.40
4.33
2.90
1.27
-0.40
-2.05
-3.77
-5.70
-7.91
-10.40
-13.03
-15.63
-17.94
-19.68
-20.55
-20.27
-18.72
-16.00
-12.47
-8.59
-4.83
-1.52
1.21
3.38
5.10
6.44
7.50
8.37
9.16
9.96
10.82
11.70
12.54
13.23
13.73
14.03
14.19
14.32
14.47
14.66
14.82
14.86
14.67
14.19
13.40
12.35
11.20
10.11
9.20
8.56
8.09
7.65
6.99
5.96
4.56
2.93
1.32
-0.08
-1.23
-2.29
-3.53
-5.08
-6.86
-8.63
-10.05
-10.92
-11.28
-11.44
-11.79
-12.63
-14.06
-15.97
-18.05
-19.90
-21.12
-21.33
-20.30
-17.95
-14.54
-10.53
-6.52
-3.01
-0.28
1.67
3.06
4.20
5.29
6.44
7.63
8.77
9.79
10.61
11.26
11.78
12.21
12.56
12.85
13.07
13.22
13.30
13.27
13.08
12.61
11.76
10.54
9.08
7.67
6.60
6.05
5.97
6.08
6.03
5.56
4.63
3.38
2.06
0.91
-0.02
-0.83
-1.66
-2.63
-3.74
-4.89
-5.95
-6.84
-7.56
-8.22
-9.01
-10.04
-11.36
-12.91
-14.53
-16.14
-17.61
-18.83
-19.63
-19.78
-18.98
-17.09
-14.18
-10.59
-6.82
-3.38
-0.59
1.49
2.98
4.09
4.97
5.72
6.35
6.86
7.29
7.67
8.06
8.49
9.00
9.56
10.08
10.41
10.45
10.14
9.62
9.16
9.05
9.39
10.00
10.55
10.65
10.20
9.29
8.24
7.27
6.42
5.55
4.44
3.03
1.46
0.01
-1.11
-1.86
-2.41
-2.95
-3.61
-4.40
-5.20
-5.95
-6.68
-7.50
-8.51
-9.75
-11.16
-12.64
-14.12
-15.57
-16.99
-18.29
-19.25
-19.56
-18.88
-17.06
-14.17
-10.58
-6.77
-3.24
-0.28
2.01
3.68
4.84
5.58
5.94
6.00
5.88
5.81
5.99
6.54
7.41
8.44
9.44
10.24
10.84
11.30
11.66
11.81
11.66
11.08
10.14
8.99
7.87
6.98
6.33
5.84
5.33
4.73
4.04
3.36
2.79
2.34
2.00
1.64
1.16
0.49
-0.38
-1.43
-2.64
-3.97
-5.37
-6.74
-7.99
-9.01
-9.81
-10.48
-11.21
-12.23
-13.68
-15.59
-17.74
-19.80
-21.36
-22.03
-21.52
-19.75
-16.80
-13.02
-8.89
-4.99
-1.85
0.29
1.49
2.05
2.44
3.07
4.16
5.62
7.24
8.67
9.67
10.21
10.38
10.35
10.30
10.31
10.38
10.50
10.62
10.67
10.64
10.44
10.08
9.55
8.89
8.17
7.47
6.80
6.17
5.53
4.84
4.04
3.14
2.17
1.29
0.66
0.34
0.28
0.28
0.04
-0.62
-1.78
-3.27
-4.81
-6.08
-6.95
-7.47
-7.88
-8.52
-9.57
-11.08
-12.96
-15.03
-17.15
-19.23
-21.12
-22.55
-23.09
-22.30
-19.97
-16.33
-11.99
-7.82
-4.52
-2.44
-1.42
-0.99
-0.59
0.15
1.32
2.80
4.28
5.55
6.45
7.03
7.39
7.71
8.10
8.58
9.14
9.70
10.22
10.65
10.96
11.07
10.94
10.49
9.75
8.77
7.66
6.55
5.56
4.77
4.19
3.81
3.55
3.30
2.92
2.35
1.55
0.60
-0.44
-1.49
-2.47
-3.43
-4.39
-5.49
-6.81
-8.47
-10.49
-12.79
-15.16
-17.23
-18.54
-18.66
-17.35
-14.71
-11.14
-7.28
-3.76
-1.01
0.84
1.93
2.58
3.08
3.60
4.21
4.89
5.64
6.41
7.24
8.11
8.94
9.61
10.01
10.08
9.88
9.58
9.34
9.27
9.34
9.39
9.21
8.62
7.58
6.15
4.55
3.01
1.74
0.81
0.13
-0.51
-1.39
-2.63
-4.23
-5.94
-7.55
-8.89
-10.05
-11.29
-12.91
-15.05
-17.59
-20.17
-22.31
-23.62
-23.83
-22.87
-20.78
-17.75
-14.07
-10.11
-6.29
-2.99
-0.39
1.52
2.95
4.16
5.36
6.65
7.98
9.21
10.22
10.93
11.36
11.63
11.86
12.15
12.57
13.05
13.48
13.73
13.73
13.48
13.05
12.49
11.77
10.84
9.62
8.10
6.35
4.54
2.86
1.50
0.55
0.00
-0.29
-0.57
-1.07
-1.91
-3.05
-4.34
-5.56
-6.61
-7.53
-8.54
-9.89
-11.76
-14.18
-16.96
-19.81
-22.40
-24.45
-25.76
-26.21
-25.65
-24.06
-21.41
-17.94
-14.01
-10.10
-6.64
-3.89
-1.82
-0.14
1.47
3.20
5.04
6.81
8.30
9.47
10.40
11.28
12.21
13.20
14.09
14.71
14.93
14.79
14.45
14.11
13.86
13.69
13.43
12.91
12.04
10.89
9.67
8.62
7.92
7.56
7.40
7.27
7.01
6.58
6.02
5.35
4.55
3.54
2.25
0.63
-1.23
-3.19
-5.09
-6.86
-8.51
-10.15
-11.91
-13.90
-16.18
-18.77
-21.61
-24.43
-26.77
-28.02
-27.66
-25.53
-21.96
-17.72
-13.71
-10.54
-8.32
-6.68
-5.04
-2.99
-0.48
2.21
4.74
6.90
8.75
10.49
12.25
13.97
15.47
16.50
17.05
17.27
17.45
17.79
18.34
18.91
19.23
19.07
18.38
17.37
16.25
15.25
14.42
13.66
12.85
11.91
10.89
9.89
9.02
8.32
7.71
7.00
5.99
4.59
2.84
0.91
-0.97
-2.63
-4.06
-5.39
-6.84
-8.69
-11.08
-14.00
-17.24
-20.52
-23.42
-25.62
-26.82
-26.84
-25.60
-23.11
-19.57
-15.31
-10.81
-6.56
-2.97
-0.25
1.69
3.12
4.43
5.90
7.65
9.56
11.39
12.91
13.96
14.54
14.77
14.79
14.72
14.64
14.58
14.53
14.52
14.55
14.59
14.57
14.42
14.05
13.43
12.56
11.46
10.20
8.87
7.58
6.41
5.35
4.24
2.86
1.00
-1.38
-4.08
-6.77
-9.07
-10.82
-12.20
-13.65
-15.63
-18.42
-21.90
-25.62
-28.91
-31.14
-31.94
-31.22
-29.14
-26.01
-22.23
-18.16
-14.10
-10.24
-6.67
-3.40
-0.38
2.46
5.17
7.76
10.18
12.40
14.36
16.01
17.34
18.40
19.31
20.24
21.30
22.53
23.80
24.88
25.52
25.56
25.02
24.09
23.04
22.09
21.33
20.69
20.01
19.12
17.94
16.46
14.79
13.04
11.35
9.84
8.57
7.56
6.70
5.85
4.82
3.46
1.70
-0.44
-2.83
-5.27
-7.57
-9.60
-11.36
-13.00
-14.81
-17.12
-20.18
-23.98
-28.15
-32.06
-34.91
-36.04
-35.13
-32.31
-28.11
-23.31
-18.65
-14.64
-11.49
-9.07
-7.04
-4.99
-2.60
0.22
3.35
6.52
9.43
11.96
14.12
16.05
17.84
19.45
20.72
21.52
21.93
22.14
22.43
22.92
23.51
23.93
23.87
23.23
22.08
20.68
19.31
18.16
17.29
16.63
16.02
15.29
14.31
13.07
11.69
10.35
9.22
8.31
7.45
6.36
4.84
2.83
0.54
-1.71
-3.67
-5.27
-6.64
-8.07
-9.85
-12.17
-15.11
-18.60
-22.49
-26.47
-30.11
-32.85
-34.13
-33.55
-31.11
-27.20
-22.53
-17.91
-13.97
-10.97
-8.74
-6.82
-4.66
-1.96
1.27
4.66
7.71
9.95
11.22
11.72
11.86
12.10
12.67
13.56
14.56
15.44
16.09
16.54
16.88
17.12
17.18
16.84
15.94
14.47
12.66
10.87
9.48
8.70
8.46
8.39
8.06
7.11
5.44
3.25
0.88
-1.31
-3.10
-4.51
-5.74
-7.14
-9.08
-11.79
-15.33
-19.49
-23.86
-27.84
-30.88
-32.45
-32.27
-30.28
-26.72
-22.01
-16.78
-11.68
-7.23
-3.71
-1.05
1.06
3.02
5.12
7.40
9.67
11.66
13.18
14.25
15.06
15.84
16.74
17.73
18.61
19.17
19.32
19.11
18.71
18.26
17.76
17.06
15.97
14.40
12.48
10.52
8.86
7.74
7.16
6.88
6.56
5.88
4.66
2.94
0.89
-1.28
-3.42
-5.45
-7.41
-9.37
-11.46
-13.77
-16.46
-19.63
-23.37
-27.56
-31.87
-35.64
-38.17
-38.83
-37.38
-34.05
-29.51
-24.64
-20.17
-16.47
-13.50
-10.93
-8.36
-5.50
-2.30
1.12
4.57
7.90
10.96
13.65
15.88
17.59
18.78
19.55
20.13
20.76
21.68
22.91
24.31
25.58
26.40
26.52
25.89
24.67
23.12
21.54
20.14
18.98
17.98
17.01
15.96
14.79
13.55
12.31
11.08
9.79
8.31
6.55
4.51
2.27
-0.01
-2.17
-4.17
-6.10
-8.11
-10.38
-13.09
-16.34
-20.15
-24.43
-28.92
-33.13
-36.48
-38.39
-38.45
-36.60
-33.09
-28.46
-23.37
-18.43
-14.03
-10.32
-7.21
-4.45
-1.77
1.03
3.99
6.98
9.80
12.28
14.38
16.14
17.68
19.05
20.29
21.41
22.42
23.38
24.33
25.22
25.90
26.16
25.82
24.87
23.48
21.96
20.60
19.55
18.76
18.01
17.08
15.83
14.31
12.63
10.97
9.40
7.89
6.31
4.52
2.44
0.16
-2.15
-4.33
-6.37
-8.42
-10.73
-13.58
-17.09
-21.17
-25.50
-29.66
-33.20
-35.75
-37.01
-36.79
-35.00
-31.76
-27.44
-22.57
-17.77
-13.53
-10.05
-7.20
-4.64
-2.01
0.84
3.85
6.79
9.41
11.51
13.07
14.20
15.02
15.68
16.27
16.86
17.42
17.88
18.12
18.00
17.46
16.53
15.36
14.10
12.87
11.70
10.54
9.33
8.03
6.61
5.07
3.39
1.55
-0.48
-2.72
-5.19
-7.90
-10.82
-13.94
-17.24
-20.64
-24.06
-27.33
-30.17
-32.21
-33.04
-32.38
-30.17
-26.64
-22.24
-17.57
-13.10
-9.08
-5.51
-2.22
0.99
4.14
7.10
9.61
11.48
12.73
13.56
14.31
15.25
16.44
17.74
18.94
19.83
20.36
20.57
20.57
20.46
20.30
20.08
19.70
19.00
17.81
16.10
14.07
12.09
10.62
9.89
9.74
9.65
8.97
7.21
4.33
0.70
-3.09
-6.56
-9.54
-12.18
-14.86
-18.01
-21.88
-26.45
-31.43
-36.26
-40.20
-42.54
-42.73
-40.60
-36.44
-30.94
-25.01
-19.47
-14.87
-11.29
-8.47
-5.88
-3.03
0.40
4.40
8.70
12.86
16.48
19.37
21.50
23.06
24.23
25.15
25.88
26.43
26.86
27.25
27.74
28.34
28.93
29.26
29.07
28.18
26.65
24.69
22.62
20.71
19.07
17.64
16.32
14.94
13.41
11.71
9.85
7.81
5.60
3.21
0.69
-1.89
-4.43
-6.93
-9.48
-12.21
-15.27
-18.74
-22.64
-26.87
-31.19
-35.22
-38.48
-40.36
-40.43
-38.52
-34.82
-29.92
-24.58
-19.46
-14.95
-11.06
-7.52
-4.02
-0.35
3.45
7.11
10.27
12.70
14.43
15.74
16.99
18.42
19.98
21.38
22.28
22.52
22.24
21.85
21.73
22.06
22.65
23.06
22.85
21.76
19.92
17.66
15.40
13.50
12.04
10.90
9.78
8.36
6.42
3.93
1.06
-1.91
-4.70
-7.19
-9.44
-11.65
-14.08
-16.95
-20.35
-24.22
-28.33
-32.32
-35.71
-37.91
-38.43
-36.94
-33.50
-28.52
-22.76
-17.01
-11.93
-7.80
-4.53
-1.80
0.75
3.32
5.94
8.48
10.77
12.74
14.41
15.85
17.13
18.25
19.19
19.86
20.22
20.25
20.00
19.59
19.10
18.58
18.02
17.32
16.35
15.01
13.26
11.14
8.75
6.21
3.64
1.15
-1.21
-3.38
-5.46
-7.58
-9.90
-12.57
-15.70
-19.31
-23.38
-27.83
-32.35
-36.48
-39.57
-40.96
-40.18
-37.14
-32.23
-26.18
-19.88
-14.05
-9.04
-4.80
-0.97
2.84
6.82
10.88
14.67
17.80
20.03
21.39
22.11
22.43
22.50
22.33
21.96
21.50
21.18
21.19
21.55
22.08
22.42
22.23
21.37
19.90
18.04
16.04
14.05
12.15
10.37
8.70
7.12
5.58
4.02
2.35
0.51
-1.50
-3.66
-5.88
-8.09
-10.25
-12.37
-14.57
-17.09
-20.21
-24.11
-28.70
-33.57
-37.99
-41.13
-42.27
-41.06
-37.57
-32.38
-26.30
-20.20
-14.71
-10.13
-6.40
-3.18
-0.07
3.20
6.67
10.15
13.36
16.07
18.15
19.66
20.77
21.67
22.51
23.31
24.04
24.61
24.98
25.15
25.18
25.15
25.03
24.76
24.25
23.48
22.47
21.32
20.14
18.93
17.73
16.48
15.15
13.70
12.03
10.05
7.73
5.07
2.19
-0.77
-3.72
-6.58
-9.31
-11.85
-14.13
-16.11
-17.86
-19.67
-21.91
-24.96
-29.00
-33.87
-39.06
-43.80
-47.27
-48.79
-47.99
-44.91
-39.99
-33.97
-27.73
-22.03
-17.39
-13.89
-11.21
-8.78
-5.96
-2.32
2.14
7.02
11.69
15.60
18.41
20.20
21.26
21.93
22.40
22.68
22.69
22.40
21.89
21.34
20.89
20.50
19.97
19.01
17.42
15.22
12.64
9.98
7.51
5.39
3.59
1.97
0.34
-1.48
-3.62
-6.12
-8.96
-12.14
-15.68
-19.61
-23.87
-28.15
-31.90
-34.35
-34.84
-33.00
-29.03
-23.57
-17.54
-11.80
-6.91
-3.04
0.00
2.47
4.66
6.68
8.55
10.17
11.42
12.27
12.77
13.06
13.30
13.58
13.88
14.11
14.21
14.17
14.04
13.91
13.73
13.32
12.41
10.75
8.27
5.12
1.65
-1.67
-4.48
-6.56
-7.98
-9.02
-10.09
-11.60
-13.87
-17.04
-21.08
-25.77
-30.67
-35.17
-38.50
-39.98
-39.17
-36.10
-31.28
-25.52
-19.68
-14.41
-9.96
-6.28
-3.06
0.04
3.24
6.56
9.82
12.67
14.81
16.13
16.76
17.12
17.65
18.59
19.91
21.31
22.43
23.02
23.01
22.46
21.39
19.74
17.50
14.77
11.79
8.97
6.65
4.99
3.89
3.01
1.95
0.38
-1.77
-4.37
-7.14
-9.80
-12.23
-14.53
-16.94
-19.75
-23.16
-27.11
-31.28
-35.12
-37.97
-39.16
-38.21
-35.00
-29.86
-23.56
-17.11
-11.41
-6.98
-3.80
-1.45
0.62
2.84
5.29
7.82
10.21
12.28
14.04
15.64
17.24
18.88
20.51
21.96
23.06
23.69
23.81
23.46
22.77
21.84
20.77
19.56
18.17
16.54
14.63
12.45
10.07
7.57
5.02
2.49
0.04
-2.33
-4.66
-7.13
-9.98
-13.46
-17.65
-22.38
-27.20
-31.40
-34.31
-35.41
-34.52
-31.80
-27.63
-22.53
-17.06
-11.67
-6.69
-2.29
1.51
4.75
7.46
9.66
11.35
12.58
13.49
14.27
15.10
16.06
17.09
18.04
18.79
19.31
19.64
19.85
19.88
19.58
18.71
17.07
14.61
11.47
7.96
4.43
1.22
-1.47
-3.63
-5.43
-7.23
-9.53
-12.74
-16.99
-22.02
-27.12
-31.37
-33.95
-34.38
-32.62
-29.06
-24.32
-19.03
-13.71
-8.72
-4.26
-0.42
2.85
5.73
8.43
11.11
13.79
16.32
18.40
19.79
20.40
20.40
20.15
20.03
20.26
20.82
21.41
21.69
21.40
20.54
19.25
17.72
16.05
14.17
11.97
9.37
6.44
3.39
0.49
-2.07
-4.20
-5.95
-7.49
-9.04
-10.86
-13.23
-16.34
-20.21
-24.66
-29.31
-33.64
-37.05
-39.03
-39.18
-37.37
-33.79
-28.99
-23.70
-18.63
-14.23
-10.49
-7.01
-3.26
1.20
6.35
11.77
16.80
20.79
23.45
24.87
25.50
25.91
26.55
27.60
28.94
30.28
31.31
31.86
31.91
31.55
30.85
29.82
28.45
26.72
24.80
22.88
21.18
19.74
18.38
16.79
14.74
12.24
9.55
7.01
4.90
3.18
1.57
-0.31
-2.71
-5.57
-8.59
-11.38
-13.73
-15.74
-17.76
-20.28
-23.66
-27.96
-32.98
-38.22
-43.03
-46.68
-48.55
-48.18
-45.45
-40.65
-34.43
-27.66
-21.21
-15.69
-11.24
-7.67
-4.51
-1.31
2.22
6.09
10.07
13.83
17.07
19.63
21.48
22.75
23.65
24.39
25.16
26.05
27.11
28.28
29.41
30.31
30.75
30.52
29.51
27.71
25.30
22.57
19.91
17.64
15.95
14.79
13.92
12.95
11.64
9.90
7.89
5.90
4.16
2.73
1.45
0.09
-1.62
-3.78
-6.33
-9.12
-11.99
-14.79
-17.52
-20.25
-23.18
-26.50
-30.36
-34.64
-38.94
-42.54
-44.58
-44.37
-41.65
-36.75
-30.45
-23.79
-17.64
-12.51
-8.42
-5.04
-1.91
1.29
4.64
7.94
10.89
13.27
15.01
16.32
17.48
18.74
20.15
21.59
22.85
23.74
24.23
24.47
24.63
24.80
24.90
24.70
23.96
22.66
20.97
19.25
17.81
16.79
16.05
15.28
14.17
12.56
10.50
8.19
5.86
3.67
1.65
-0.31
-2.37
-4.65
-7.25
-10.11
-13.14
-16.14
-19.06
-21.90
-24.82
-28.02
-31.63
-35.57
-39.48
-42.77
-44.74
-44.82
-42.78
-38.78
-33.36
-27.27
-21.20
-15.60
-10.68
-6.38
-2.53
1.00
4.29
7.32
10.07
12.54
14.79
16.89
18.91
20.85
22.62
24.11
25.21
25.96
26.45
26.79
26.98
26.95
26.52
25.60
24.24
22.59
20.85
19.22
17.81
16.66
15.71
14.82
13.79
12.42
10.60
8.39
6.02
3.76
1.82
0.18
-1.36
-3.06
-5.08
-7.41
-9.91
-12.40
-14.75
-16.93
-19.01
-21.13
-23.53
-26.49
-30.22
-34.67
-39.43
-43.73
-46.60
-47.23
-45.26
-40.93
-35.01
-28.49
-22.33
-17.11
-12.93
-9.55
-6.50
-3.40
-0.01
3.64
7.35
10.86
13.93
16.45
18.43
19.97
21.21
22.27
23.25
24.22
25.19
26.16
27.01
27.55
27.58
26.90
25.42
23.30
20.87
18.59
16.85
15.79
15.25
14.89
14.31
13.28
11.81
10.10
8.39
6.83
5.43
4.16
2.98
1.85
0.74
-0.49
-2.02
-4.08
-6.74
-9.82
-12.99
-15.84
-18.17
-20.07
-21.94
-24.26
-27.35
-31.25
-35.58
-39.72
-42.91
-44.50
-44.04
-41.40
-36.82
-30.85
-24.34
-18.07
-12.68
-8.44
-5.24
-2.71
-0.47
1.74
3.99
6.19
8.29
10.25
12.16
14.07
15.94
17.60
18.81
19.42
19.45
19.11
18.62
18.15
17.72
17.26
16.65
15.89
15.04
14.19
13.44
12.79
12.16
11.50
10.76
9.94
9.02
7.93
6.48
4.48
1.83
-1.38
-4.85
-8.17
-10.97
-13.15
-14.90
-16.62
-18.82
-21.85
-25.77
-30.23
-34.64
-38.18
-40.09
-39.84
-37.35
-33.03
-27.64
-22.01
-16.76
-12.16
-8.10
-4.37
-0.80
2.59
5.61
8.13
10.10
11.66
12.99
14.24
15.44
16.55
17.48
18.25
18.96
19.68
20.47
21.26
21.91
22.22
22.03
21.31
20.08
18.52
16.78
15.03
13.40
11.96
10.74
9.72
8.81
7.86
6.68
5.10
3.01
0.40
-2.61
-5.77
-8.86
-11.66
-14.12
-16.37
-18.78
-21.76
-25.68
-30.55
-35.90
-40.80
-44.14
-45.04
-43.23
-39.14
-33.67
-27.80
-22.24
-17.25
-12.78
-8.67
-4.86
-1.37
1.74
4.50
7.01
9.40
11.74
13.93
15.81
17.28
18.37
19.32
20.39
21.74
23.32
24.85
25.94
26.29
25.88
24.85
23.51
22.11
20.72
19.27
17.60
15.70
13.68
11.76
10.12
8.77
7.55
6.11
4.16
1.60
-1.45
-4.65
-7.59
-9.96
-11.73
-13.08
-14.50
-16.50
-19.46
-23.51
-28.36
-33.43
-37.91
-40.97
-41.99
-40.70
-37.28
-32.27
-26.48
-20.64
-15.30
-10.67
-6.66
-3.05
0.36
3.66
6.80
9.69
12.26
14.55
16.61
18.46
20.04
21.27
22.10
22.58
22.85
23.06
23.29
23.52
23.60
23.30
22.44
20.99
19.07
16.94
14.91
13.23
11.97
11.11
10.46
9.75
8.74
7.20
5.05
2.31
-0.87
-4.29
-7.72
-10.96
-13.97
-16.86
-19.94
-23.51
-27.73
-32.43
-37.04
-40.71
-42.58
-42.05
-39.04
-33.99
-27.71
-21.13
-15.02
-9.78
-5.48
-1.95
1.06
3.74
6.16
8.31
10.16
11.73
13.09
14.37
15.67
17.04
18.46
19.81
20.97
21.77
22.11
21.90
21.14
19.90
18.29
16.43
14.43
12.33
10.16
7.92
5.58
3.17
0.70
-1.78
-4.20
-6.50
-8.68
-10.87
-13.27
-16.15
-19.71
-23.98
-28.69
-33.31
-37.15
-39.52
-39.87
-38.01
-34.05
-28.46
-21.91
-15.16
-8.88
-3.50
0.86
4.31
7.13
9.55
11.76
13.79
15.69
17.48
19.25
21.03
22.76
24.27
25.34
25.83
25.75
25.29
24.71
24.22
23.86
23.48
22.86
21.84
20.42
18.74
17.01
15.36
13.78
12.11
10.17
7.84
5.09
2.04
-1.12
-4.19
-7.07
-9.72
-12.24
-14.83
-17.75
-21.24
-25.41
-30.20
-35.26
-40.04
-43.84
-45.96
-45.87
-43.38
-38.76
-32.66
-25.99
-19.56
-13.87
-9.03
-4.82
-0.92
2.96
6.88
10.77
14.47
17.81
20.68
23.06
24.98
26.52
27.78
28.80
29.64
30.33
30.92
31.44
31.86
32.05
31.82
31.00
29.57
27.72
25.77
24.05
22.75
21.83
21.11
20.33
19.33
18.04
16.45
14.58
12.45
10.03
7.33
4.41
1.35
-1.79
-4.93
-8.04
-11.09
-14.13
-17.26
-20.66
-24.56
-29.13
-34.34
-39.91
-45.25
-49.52
-51.89
-51.77
-49.02
-44.03
-37.55
-30.53
-23.76
-17.71
-12.48
-7.90
-3.69
0.36
4.32
8.14
11.74
15.03
17.98
20.56
22.71
24.37
25.51
26.23
26.70
27.19
27.90
28.86
29.88
30.66
30.91
30.48
29.42
27.91
26.18
24.36
22.50
20.63
18.79
17.03
15.43
14.01
12.73
11.49
10.12
8.40
6.16
3.31
-0.11
-3.90
-7.80
-11.53
-14.98
-18.18
-21.35
-24.75
-28.56
-32.78
-37.18
-41.36
-44.78
-46.94
-47.45
-46.08
-42.91
-38.23
-32.53
-26.36
-20.25
-14.57
-9.51
-5.09
-1.20
2.34
5.66
8.81
11.70
14.22
16.31
17.97
19.35
20.63
21.92
23.30
24.66
25.86
26.74
27.13
26.88
25.88
24.13
21.76
18.99
16.10
13.30
10.67
8.15
5.65
3.13
0.66
-1.64
-3.71
-5.59
-7.53
-9.87
-12.88
-16.76
-21.43
-26.62
-31.83
-36.37
-39.51
-40.61
-39.33
-35.79
-30.52
-24.38
-18.22
-12.65
-7.91
-3.91
-0.36
3.03
6.43
9.80
12.99
15.77
17.95
19.47
20.45
21.17
21.91
22.83
23.90
24.89
25.54
25.69
25.34
24.63
23.67
22.51
21.12
19.43
17.46
15.31
13.10
10.95
8.87
6.78
4.56
2.12
-0.58
-3.44
-6.34
-9.13
-11.84
-14.67
-17.97
-22.06
-27.04
-32.56
-37.88
-42.06
-44.29
-44.15
-41.75
-37.64
-32.54
-27.13
-21.89
-17.00
-12.45
-8.05
-3.62
0.97
5.66
10.23
14.31
17.63
20.01
21.55
22.46
23.04
23.52
24.02
24.54
25.04
25.48
25.89
26.24
26.55
26.67
26.41
25.57
24.06
21.92
19.40
16.79
14.31
12.04
9.92
7.78
5.52
3.16
0.80
-1.46
-3.61
-5.85
-8.46
-11.83
-16.22
-21.68
-27.94
-34.35
-39.97
-43.77
-45.01
-43.38
-39.17
-33.17
-26.36
-19.67
-13.73
-8.79
-4.72
-1.22
2.12
5.58
9.26
13.03
16.59
19.61
21.92
23.58
24.77
25.72
26.48
26.90
26.79
26.06
24.86
23.54
22.43
21.65
21.00
20.01
18.23
15.45
11.89
8.06
4.56
1.78
-0.27
-2.00
-4.01
-6.86
-10.88
-15.98
-21.72
-27.37
-32.09
-35.12
-35.95
-34.40
-30.76
-25.69
-20.07
-14.71
-10.13
-6.37
-3.11
0.10
3.59
7.31
10.89
13.84
15.85
16.94
17.47
17.94
18.72
19.89
21.25
22.47
23.28
23.58
23.37
22.77
21.76
20.32
18.34
15.80
12.77
9.45
6.06
2.84
-0.04
-2.54
-4.74
-6.89
-9.38
-12.60
-16.83
-22.10
-27.98
-33.68
-38.16
-40.48
-40.08
-37.00
-31.87
-25.67
-19.39
-13.72
-8.92
-4.85
-1.13
2.56
6.39
10.26
13.98
17.28
20.03
22.21
23.96
25.41
26.67
27.71
28.43
28.71
28.53
27.89
26.88
25.61
24.13
22.51
20.77
18.90
16.86
14.55
11.91
9.00
6.05
3.34
1.09
-0.70
-2.24
-3.98
-6.33
-9.60
-13.92
-19.17
-25.06
-31.08
-36.49
-40.43
-42.09
-41.02
-37.27
-31.45
-24.56
-17.61
-11.40
-6.30
-2.27
1.01
4.00
7.06
10.39
13.91
17.36
20.38
22.72
24.29
25.18
25.63
25.87
26.03
26.12
26.15
26.08
25.95
25.77
25.44
24.82
23.68
21.87
19.38
16.44
13.44
10.80
8.76
7.25
5.95
4.40
2.24
-0.63
-4.03
-7.62
-11.06
-14.20
-17.11
-20.04
-23.27
-27.02
-31.29
-35.85
-40.24
-43.84
-45.98
-46.12
-43.97
-39.61
-33.57
-26.64
-19.71
-13.54
-8.50
-4.59
-1.45
1.37
4.23
7.20
10.10
12.66
14.65
16.00
16.84
17.39
17.88
18.43
19.06
19.67
20.10
20.22
19.97
19.35
18.46
17.33
15.96
14.25
12.04
9.27
6.02
2.59
-0.62
-3.24
-5.13
-6.44
-7.62
-9.25
-11.86
-15.74
-20.79
-26.53
-32.17
-36.81
-39.59
-39.97
-37.81
-33.39
-27.34
-20.46
-13.57
-7.30
-2.05
2.08
5.24
7.72
9.85
11.88
13.89
15.80
17.49
18.87
19.96
20.84
21.60
22.32
22.98
23.53
23.89
24.03
23.88
23.41
22.54
21.21
19.40
17.25
14.92
12.64
10.59
8.82
7.29
5.83
4.22
2.25
-0.20
-3.18
-6.51
-9.94
-13.15
-15.95
-18.38
-20.76
-23.60
-27.32
-32.08
-37.55
-42.95
-47.21
-49.32
-48.67
-45.21
-39.50
-32.45
-25.10
-18.26
-12.37
-7.45
-3.22
0.68
4.57
8.55
12.58
16.49
20.09
23.19
25.71
27.56
28.76
29.36
29.46
29.20
28.74
28.21
27.71
27.30
27.01
26.77
26.42
25.70
24.33
22.14
19.15
15.68
12.21
9.25
7.11
5.80
4.94
4.00
2.46
0.06
-3.11
-6.62
-9.97
-12.73
-14.78
-16.33
-17.83
-19.79
-22.57
-26.26
-30.70
-35.47
-39.96
-43.45
-45.25
-44.81
-41.96
-36.98
-30.56
-23.61
-16.96
-11.17
-6.42
-2.54
0.74
3.65
6.30
8.67
10.71
12.42
13.83
15.04
16.12
17.07
17.92
18.61
19.14
19.46
19.59
19.46
19.04
18.24
17.05
15.51
13.79
12.12
10.68
9.55
8.58
7.51
6.01
3.87
1.11
-2.05
-5.24
-8.17
-10.71
-12.94
-15.13
-17.64
-20.80
-24.75
-29.34
-34.06
-38.12
-40.62
-40.86
-38.58
-34.05
-28.02
-21.39
-15.01
-9.36
-4.64
-0.72
2.60
5.50
8.07
10.31
12.23
13.76
14.92
15.76
16.41
17.05
17.81
18.77
19.85
20.87
21.59
21.80
21.35
20.19
18.38
16.08
13.53
10.99
8.68
6.76
5.22
3.91
2.56
0.95
-1.05
-3.45
-6.10
-8.79
-11.33
-13.62
-15.73
-17.93
-20.62
-24.17
-28.71
-33.94
-39.09
-43.10
-44.88
-43.69
-39.44
-32.75
-24.73
-16.62
-9.48
-3.84
0.26
3.23
5.65
7.99
10.48
13.04
15.42
17.31
18.60
19.37
19.87
20.35
20.97
21.71
22.46
23.08
23.48
23.66
23.62
23.31
22.57
21.25
19.26
16.70
13.85
11.08
8.75
6.96
5.58
4.26
2.60
0.35
-2.44
-5.52
-8.52
-11.18
-13.50
-15.72
-18.23
-21.42
-25.46
-30.26
-35.43
-40.27
-43.95
-45.62
-44.69
-41.02
-35.01
-27.50
-19.50
-11.92
-5.32
0.11
4.44
7.87
10.56
12.66
14.29
15.61
16.78
17.97
19.30
20.78
22.32
23.75
24.80
25.25
24.90
23.77
22.04
20.01
17.97
16.06
14.26
12.48
10.65
8.87
7.28
5.94
4.76
3.47
1.74
-0.62
-3.58
-6.89
-10.20
-13.22
-15.83
-18.09
-20.24
-22.60
-25.51
-29.21
-33.70
-38.59
-43.09
-46.16
-46.81
-44.42
-39.01
-31.29
-22.41
-13.62
-5.90
0.29
5.01
8.61
11.50
13.92
15.92
17.43
18.48
19.20
19.83
20.57
21.42
22.21
22.65
22.57
22.00
21.16
20.33
19.70
19.22
18.70
17.84
16.38
14.25
11.52
8.40
5.13
1.93
-1.04
-3.76
-6.27
-8.75
-11.43
-14.60
-18.52
-23.29
-28.74
-34.38
-39.39
-42.87
-44.05
-42.54
-38.47
-32.43
-25.34
-18.08
-11.36
-5.59
-0.83
3.07
6.38
9.29
11.89
14.15
15.95
17.26
18.13
18.79
19.47
20.36
21.50
22.76
23.89
24.67
24.94
24.68
23.94
22.84
21.47
19.89
18.11
16.12
13.89
11.39
8.62
5.65
2.56
-0.52
-3.49
-6.31
-9.01
-11.76
-14.72
-18.09
-21.99
-26.41
-31.09
-35.55
-39.02
-40.68
-39.85
-36.28
-30.31
-22.80
-14.87
-7.50
-1.26
3.79
7.97
11.63
14.93
17.75
19.80
20.88
21.09
20.76
20.38
20.28
20.53
20.95
21.27
21.34
21.18
20.97
20.82
20.67
20.25
19.19
17.24
14.38
10.88
7.17
3.74
0.90
-1.29
-3.07
-4.85
-7.12
-10.24
-14.29
-19.09
-24.17
-28.90
-32.64
-34.83
-35.08
-33.25
-29.52
-24.31
-18.25
-12.00
-6.11
-0.90
3.53
7.31
10.63
13.60
16.22
18.34
19.75
20.33
20.09
19.19
17.95
16.72
15.77
15.25
15.13
15.26
15.38
15.21
14.44
12.85
10.29
6.79
2.55
-2.04
-6.56
-10.57
-13.80
-16.20
-17.95
-19.53
-21.51
-24.36
-28.23
-32.62
-36.54
-38.71
-38.06
-34.19
-27.56
-19.36
-11.01
-3.69
2.09
6.49
10.02
13.22
16.27
19.05
21.24
22.66
23.36
23.66
23.91
24.31
24.81
25.16
25.09
24.53
23.60
22.58
21.67
20.91
20.06
18.81
16.87
14.11
10.69
6.93
3.19
-0.19
-3.14
-5.78
-8.44
-11.54
-15.45
-20.32
-25.98
-31.89
-37.19
-40.93
-42.29
-40.85
-36.70
-30.44
-23.04
-15.55
-8.78
-3.18
1.25
4.84
8.08
11.32
14.67
17.95
20.83
23.01
24.37
25.07
25.46
25.93
26.69
27.64
28.49
28.82
28.33
26.96
24.94
22.65
20.45
18.46
16.57
14.48
11.93
8.83
5.37
1.89
-1.33
-4.16
-6.72
-9.28
-12.09
-15.39
-19.26
-23.78
-28.91
-34.44
-39.88
-44.43
-47.13
-47.16
-44.19
-38.52
-31.04
-22.89
-15.09
-8.27
-2.56
2.28
6.61
10.68
14.54
18.04
20.94
23.04
24.30
24.91
25.20
25.55
26.23
27.30
28.58
29.74
30.49
30.61
30.02
28.73
26.83
24.41
21.63
18.67
15.70
12.84
10.09
7.29
4.29
1.04
-2.37
-5.72
-8.85
-11.72
-14.46
-17.30
-20.50
-24.23
-28.60
-33.57
-38.88
-43.96
-47.95
-49.86
-48.89
-44.75
-37.88
-29.34
-20.46
-12.41
-5.83
-0.69
3.48
7.28
11.13
15.08
18.91
22.29
24.96
26.91
28.28
29.32
30.18
30.95
31.58
32.05
32.38
32.67
33.05
33.53
34.00
34.18
33.80
32.64
30.75
28.41
26.01
23.90
22.23
20.89
19.62
18.12
16.22
13.92
11.39
8.86
6.42
4.05
1.62
-1.04
-3.98
-7.10
-10.18
-13.03
-15.58
-17.97
-20.45
-23.30
-26.73
-30.80
-35.43
-40.38
-45.20
-49.21
-51.54
-51.35
-48.09
-41.80
-33.19
-23.42
-13.80
-5.25
1.83
7.57
12.44
16.92
21.35
25.81
30.26
34.57
38.61
42.20
45.10
47.00
47.56
46.53
43.88
39.78
34.67
29.16
23.87
19.34
15.82
13.25
11.31
9.54
7.61
5.44
3.22
1.30
0.03
-0.50
-0.51
-0.42
-0.64
-1.43
-2.74
-4.32
-5.80
-6.92
-7.67
-8.28
-9.10
-10.44
-12.42
-14.89
-17.55
-20.06
-22.27
-24.22
-26.13
-28.28
-30.91
-34.12
-37.84
-41.86
-45.77
-48.95
-50.66
-50.22
-47.20
-41.73
-34.47
-26.53
-19.05
-12.87
-8.24
-4.86
-2.10
0.64
3.68
7.00
10.33
13.34
15.75
17.50
18.62
19.29
19.72
20.14
20.76
21.64
22.74
23.87
24.81
25.35
25.42
25.02
24.19
22.95
21.29
19.22
16.89
14.51
12.39
10.72
9.50
8.52
7.44
5.95
3.92
1.44
-1.22
-3.77
-6.04
-8.05
-9.98
-12.03
-14.39
-17.13
-20.29
-23.92
-28.01
-32.42
-36.75
-40.28
-42.12
-41.45
-37.93
-31.88
-24.24
-16.31
-9.27
-3.84
-0.13
2.28
3.99
5.56
7.24
9.01
10.62
11.87
12.68
13.17
13.57
14.09
14.83
15.69
16.52
17.14
17.45
17.44
17.14
16.50
15.43
13.82
11.65
9.07
6.30
3.63
1.27
-0.69
-2.30
-3.71
-5.06
-6.50
-8.10
-9.91
-11.92
-14.15
-16.62
-19.44
-22.70
-26.41
-30.34
-33.99
-36.64
-37.51
-36.12
-32.40
-26.77
-20.05
-13.10
-6.68
-1.22
3.18
6.62
9.30
11.39
13.02
14.27
15.25
16.04
16.75
17.41
18.01
18.51
18.86
19.08
19.24
19.40
19.56
19.66
19.58
19.16
18.27
16.85
14.94
12.69
10.29
7.95
5.82
3.93
2.18
0.39
-1.64
-4.03
-6.72
-9.50
-12.13
-14.40
-16.28
-17.92
-19.63
-21.77
-24.61
-28.19
-32.22
-36.14
-39.15
-40.47
-39.55
-36.22
-30.82
-24.06
-16.85
-10.08
-4.39
-0.07
2.98
5.13
6.86
8.57
10.37
12.19
13.82
15.08
15.99
16.70
17.42
18.21
19.00
19.59
19.90
19.97
19.99
20.15
20.46
20.75
20.69
19.96
18.40
16.09
13.35
10.58
8.17
6.36
5.12
4.14
2.99
1.26
-1.20
-4.26
-7.51
-10.51
-12.94
-14.79
-16.30
-17.87
-19.88
-22.59
-26.06
-30.14
-34.45
-38.38
-41.16
-42.08
-40.61
-36.67
-30.66
-23.39
-15.85
-8.96
-3.32
0.89
3.86
6.07
7.97
9.89
11.89
13.88
15.68
17.19
18.48
19.63
20.76
21.82
22.68
23.14
23.10
22.61
21.85
21.01
20.19
19.28
18.09
16.44
14.26
11.73
9.13
6.75
4.78
3.20
1.80
0.35
-1.44
-3.72
-6.52
-9.74
-13.16
-16.50
-19.59
-22.41
-25.20
-28.43
-32.57
-37.93
-44.46
-51.69
-58.94
-65.52
-71.01
-75.33
-78.67
-81.28
-83.27
-84.57
-84.96
-84.39
-83.17
-82.03
-82.06
-84.26
-89.18
-96.60
-105.59
-114.76
-122.81
-128.81
-132.54
-134.44
-135.39
-136.48
-138.66
-142.27
-146.72
-150.28
-150.20
-143.21
-126.62
-99.64
-64.41
-26.12
8.48
33.71
47.42
52.23
54.35
60.65
75.37
98.35
125.65
152.08
173.98
190.65
203.63
214.78
224.42
230.91
231.74
225.11
211.06
191.33
168.42
144.51
120.85
97.91
75.90
55.37
37.29
22.94
13.28
8.52
7.78
9.08
9.89
8.07
3.04
-3.45
-7.40
-3.81
11.44
39.87
79.77
126.83
175.56
220.59
257.35
282.18
292.57
287.74
269.37
241.80
211.14
183.52
163.06
150.91
145.49
144.10
144.45
145.67
148.07
152.23
158.08
164.61
170.39
174.28
176.08
176.47
176.39
176.29
175.61
172.83
166.15
154.43
137.73
117.33
95.12
72.70
50.83
29.32
7.41
-15.74
-40.70
-67.80
-97.17
-128.74
-161.87
-194.98
-225.37
-249.70
-264.99
-269.83
-265.08
-253.60
-239.20
-225.14
-213.11
-203.07
-193.91
-184.47
-174.18
-163.16
-151.87
-140.69
-129.78
-119.25
-109.44
-100.93
-94.39
-90.17
-87.96
-86.75
-85.22
-82.34
-77.77
-72.13
-66.66
-62.76
-61.33
-62.41
-65.20
-68.41
-70.84
-71.89
-71.82
-71.72
-73.03
-76.91
-83.76
-92.96
-103.07
-112.35
-119.37
-123.53
-125.19
-125.59
-126.36
-128.99
-134.35
-142.39
-152.24
-162.51
-171.91
-179.86
-186.95
-194.82
-205.42
-219.57
-235.89
-250.45
-257.78
-253.01
-233.77
-201.39
-160.23
-115.80
-72.63
-32.87
3.70
38.62
73.31
108.05
141.62
171.69
195.58
211.15
217.51
215.43
207.19
195.74
183.69
172.44
162.09
152.05
142.00
132.39
124.36
118.95
116.33
115.55
115.15
114.09
112.67
112.65
116.78
127.61
146.46
172.59
203.28
234.35
261.18
279.72
287.35
283.29
268.54
245.47
217.14
186.62
156.56
128.91
104.99
85.46
70.51
59.75
52.20
46.36
40.54
33.24
23.50
11.24
-2.89
-17.74
-32.07
-44.95
-55.87
-64.72
-71.65
-76.83
-80.46
-82.74
-83.97
-84.60
-85.16
-86.07
-87.51
-89.35
-91.23
-92.65
-93.17
-92.57
-90.88
-88.45
-85.80
-83.57
-82.20
-81.74
-81.79
-81.56
-80.14
-76.88
-71.67
-64.94
-57.50
-50.23
-43.78
-38.46
-34.25
-30.95
-28.24
-25.84
-23.46
-20.93
-18.16
-15.25
-12.43
-9.87
-7.73
-5.94
-4.40
-3.00
-1.69
-0.50
0.52
1.37
2.12
2.81
3.42
3.79
3.67
2.93
1.56
-0.25
-2.21
-4.06
-5.66
-6.99
-8.15
-9.24
-10.40
-11.73
-13.35
-15.33
-17.63
-20.14
-22.69
-25.09
-27.24
-29.11
-30.78
-32.37
-34.06
-36.08
-38.60
-41.69
-45.15
-48.47
-50.87
-51.56
-50.01
-46.18
-40.59
-34.12
-27.76
-22.23
-17.80
-14.36
-11.48
-8.69
-5.74
-2.64
0.43
3.13
5.24
6.68
7.57
8.14
8.71
9.49
10.63
12.08
13.67
15.17
16.40
17.23
17.62
17.56
17.01
15.94
14.40
12.56
10.74
9.32
8.49
8.24
8.27
8.15
7.42
5.81
3.25
-0.06
-3.80
-7.53
-10.87
-13.58
-15.62
-17.26
-18.91
-21.01
-23.85
-27.43
-31.49
-35.54
-38.99
-41.27
-41.90
-40.57
-37.24
-32.22
-26.09
-19.62
-13.53
-8.33
-4.15
-0.80
2.07
4.77
7.40
9.89
12.04
13.69
14.83
15.68
16.52
17.61
18.95
20.37
21.57
22.33
22.64
22.65
22.59
22.52
22.34
21.78
20.65
18.97
17.00
15.15
13.71
12.72
11.93
11.01
9.68
7.89
5.71
3.27
0.62
-2.24
-5.31
-8.46
-11.41
-13.93
-15.92
-17.56
-19.24
-21.38
-24.26
-27.86
-31.90
-35.82
-38.98
-40.74
-40.58
-38.29
-34.05
-28.41
-22.16
-16.10
-10.76
-6.33
-2.55
0.99
4.68
8.67
12.75
16.49
19.37
21.14
21.93
22.18
22.46
23.21
24.49
26.05
27.43
28.29
28.55
28.36
27.94
27.37
26.58
25.38
23.68
21.52
19.17
16.92
14.99
13.44
12.22
11.21
10.34
9.59
8.88
8.11
7.07
5.50
3.30
0.49
-2.72
-6.01
-9.04
-11.59
-13.64
-15.43
-17.32
-19.72
-22.94
-27.02
-31.74
-36.53
-40.63
-43.24
-43.64
-41.46
-36.81
-30.26
-22.75
-15.34
-8.89
-3.85
-0.11
2.75
5.27
7.84
10.52
13.18
15.53
17.36
18.58
19.37
19.95
20.59
21.51
22.79
24.33
25.87
27.06
27.60
27.30
26.17
24.35
22.09
19.59
17.04
14.53
12.20
10.13
8.43
7.07
5.97
4.97
3.85
2.44
0.62
-1.59
-4.08
-6.62
-9.00
-11.12
-13.06
-15.07
-17.47
-20.60
-24.56
-29.21
-34.06
-38.39
-41.36
-42.24
-40.58
-36.42
-30.27
-23.02
-15.68
-9.07
-3.62
0.64
4.02
6.91
9.58
12.14
14.49
16.48
17.99
19.01
19.63
20.03
20.43
20.94
21.62
22.40
23.14
23.63
23.74
23.36
22.51
21.26
19.72
18.01
16.27
14.58
12.98
11.40
9.81
8.15
6.53
5.09
3.96
3.05
2.13
0.83
-1.11
-3.66
-6.54
-9.33
-11.72
-13.66
-15.42
-17.42
-20.06
-23.58
-27.90
-32.61
-37.03
-40.37
-41.93
-41.24
-38.22
-33.18
-26.68
-19.46
-12.28
-5.78
-0.44
3.54
6.30
8.23
9.88
11.69
13.82
16.12
18.33
20.19
21.66
22.93
24.20
25.58
26.91
27.94
28.42
28.30
27.75
27.02
26.25
25.40
24.28
22.66
20.54
18.16
15.90
14.10
12.84
12.01
11.24
10.28
9.00
7.47
5.83
4.17
2.45
0.52
-1.75
-4.39
-7.25
-10.14
-12.91
-15.51
-18.08
-20.83
-24.05
-27.90
-32.33
-36.95
-41.10
-43.90
-44.61
-42.76
-38.44
-32.20
-24.95
-17.62
-10.95
-5.31
-0.73
2.98
6.08
8.82
11.34
13.73
16.01
18.19
20.22
22.08
23.74
25.19
26.48
27.63
28.68
29.60
30.35
30.86
31.01
30.71
29.90
28.58
26.83
24.77
22.59
20.43
18.40
16.54
14.83
13.20
11.62
10.03
8.40
6.69
4.90
2.99
0.92
-1.33
-3.84
-6.60
-9.53
-12.40
-14.91
-16.91
-18.43
-19.80
-21.50
-24.00
-27.48
-31.72
-36.17
-39.99
-42.36
-42.65
-40.61
-36.34
-30.39
-23.53
-16.59
-10.32
-5.16
-1.20
1.74
4.04
6.06
8.07
10.15
12.23
14.18
15.78
16.93
17.65
18.10
18.52
19.15
20.11
21.35
22.60
23.54
23.84
23.38
22.21
20.49
18.43
16.16
13.80
11.41
9.13
7.11
5.48
4.26
3.29
2.24
0.75
-1.39
-4.17
-7.36
-10.62
-13.71
-16.64
-19.65
-23.06
-27.11
-31.64
-36.14
-39.81
-41.82
-41.60
-38.99
-34.30
-28.17
-21.44
-14.87
-9.01
-4.12
-0.15
3.12
6.02
8.76
11.43
13.98
16.27
18.25
19.98
21.51
22.87
23.96
24.64
24.87
24.76
24.55
24.54
24.79
25.11
25.11
24.41
22.83
20.46
17.61
14.58
11.58
8.71
6.00
3.49
1.28
-0.56
-2.04
-3.30
-4.59
-6.09
-7.90
-9.94
-11.99
-13.90
-15.63
-17.37
-19.38
-21.94
-25.13
-28.81
-32.62
-36.02
-38.44
-39.32
-38.26
-35.11
-30.14
-23.95
-17.41
-11.37
-6.38
-2.54
0.50
3.32
6.42
9.97
13.78
17.41
20.44
22.62
23.97
24.75
25.25
25.75
26.36
27.12
27.94
28.69
29.21
29.34
28.92
27.86
26.17
23.96
21.38
18.69
16.14
14.01
12.49
11.66
11.36
11.28
10.97
10.06
8.40
6.07
3.33
0.51
-2.17
-4.66
-6.99
-9.26
-11.54
-13.83
-16.19
-18.70
-21.57
-24.96
-29.00
-33.56
-38.26
-42.47
-45.39
-46.31
-44.72
-40.57
-34.28
-26.75
-19.03
-12.03
-6.33
-1.97
1.37
4.18
6.88
9.68
12.58
15.42
18.01
20.18
21.86
23.06
23.82
24.21
24.34
24.26
24.00
23.53
22.76
21.69
20.33
18.75
17.07
15.36
13.70
12.09
10.50
8.84
7.04
5.03
2.83
0.55
-1.63
-3.58
-5.27
-6.80
-8.43
-10.45
-13.15
-16.67
-20.95
-25.68
-30.32
-34.12
-36.31
-36.28
-33.73
-28.90
-22.45
-15.33
-8.48
-2.61
1.97
5.26
7.54
9.20
10.61
12.01
13.47
14.91
16.19
17.19
17.92
18.45
18.89
19.29
19.59
19.69
19.47
18.96
18.21
17.29
16.28
15.09
13.65
11.87
9.80
7.56
5.34
3.29
1.41
-0.38
-2.26
-4.32
-6.54
-8.77
-10.83
-12.64
-14.32
-16.23
-18.78
-22.26
-26.69
-31.58
-36.13
-39.33
-40.37
-38.82
-34.86
-29.10
-22.40
-15.63
-9.34
-3.82
0.95
5.11
8.80
12.07
14.91
17.28
19.12
20.48
21.45
22.19
22.88
23.61
24.37
25.05
25.55
25.85
25.99
26.09
26.12
25.95
25.36
24.18
22.44
20.46
18.59
17.08
15.96
14.95
13.75
12.13
10.14
8.02
6.02
4.29
2.73
1.16
-0.61
-2.61
-4.81
-7.08
-9.34
-11.59
-13.85
-16.16
-18.51
-20.94
-23.56
-26.63
-30.38
-34.85
-39.67
-44.02
-46.82
-47.11
-44.42
-38.97
-31.64
-23.64
-16.07
-9.72
-4.84
-1.22
1.59
4.18
6.96
10.11
13.48
16.65
19.19
20.83
21.62
21.88
22.08
22.57
23.43
24.51
25.57
26.39
26.91
27.14
27.09
26.70
25.89
24.62
23.00
21.25
19.59
18.16
16.98
15.89
14.72
13.36
11.80
10.11
8.33
6.46
4.50
2.41
0.14
-2.33
-4.99
-7.83
-10.75
-13.59
-16.17
-18.39
-20.33
-22.27
-24.65
-27.84
-31.97
-36.77
-41.52
-45.22
-46.93
-46.01
-42.40
-36.64
-29.62
-22.35
-15.59
-9.76
-4.90
-0.88
2.52
5.46
8.07
10.42
12.59
14.60
16.43
18.00
19.26
20.21
20.88
21.37
21.73
21.98
22.11
22.09
21.91
21.61
21.18
20.60
19.75
18.52
16.85
14.78
12.50
10.22
8.12
6.24
4.45
2.54
0.37
-2.05
-4.55
-6.91
-8.91
-10.59
-12.14
-13.87
-16.15
-19.21
-23.14
-27.80
-32.78
-37.42
-40.88
-42.30
-41.13
-37.27
-31.21
-23.93
-16.54
-9.95
-4.61
-0.51
2.71
5.46
7.97
10.30
12.35
14.03
15.35
16.41
17.35
18.28
19.23
20.16
20.99
21.68
22.20
22.60
22.92
23.22
23.45
23.47
23.02
21.92
20.06
17.58
14.82
12.22
10.11
8.56
7.39
6.27
4.86
2.95
0.53
-2.25
-5.18
-8.03
-10.65
-12.97
-15.05
-17.09
-19.43
-22.42
-26.39
-31.39
-37.09
-42.76
-47.37
-49.81
-49.32
-45.72
-39.49
-31.69
-23.54
-16.12
-9.97
-5.13
-1.24
2.19
5.51
8.84
12.05
15.00
17.57
19.78
21.67
23.21
24.35
24.95
25.04
24.79
24.56
24.64
25.18
26.08
27.04
27.68
27.70
27.00
25.60
23.74
21.72
19.82
18.24
17.06
16.16
15.32
14.32
13.05
11.50
9.75
7.87
5.81
3.48
0.80
-2.21
-5.39
-8.54
-11.45
-13.98
-16.14
-18.06
-20.00
-22.25
-25.15
-28.86
-33.32
-38.04
-42.17
-44.70
-44.70
-41.72
-36.02
-28.46
-20.26
-12.55
-6.09
-1.04
2.81
5.91
8.56
10.95
13.04
14.81
16.25
17.48
18.59
19.66
20.71
21.73
22.69
23.58
24.33
24.84
24.98
24.77
24.27
23.62
22.91
22.12
21.08
19.58
17.54
15.05
12.41
9.95
7.92
6.33
4.94
3.43
1.50
-0.91
-3.61
-6.23
-8.45
-10.10
-11.42
-12.88
-15.02
-18.25
-22.58
-27.62
-32.56
-36.49
-38.49
-38.00
-34.90
-29.62
-23.00
-16.06
-9.69
-4.44
-0.46
2.41
4.54
6.22
7.65
8.92
10.00
10.87
11.52
12.04
12.54
13.10
13.73
14.37
14.87
15.13
15.09
14.75
14.19
13.44
12.48
11.26
9.69
7.73
5.40
2.78
0.03
-2.65
-5.07
-7.07
-8.69
-10.07
-11.57
-13.54
-16.28
-19.83
-23.99
-28.27
-32.01
-34.49
-35.13
-33.56
-29.78
-24.21
-17.54
-10.70
-4.48
0.59
4.38
7.18
9.40
11.43
13.35
15.02
16.19
16.74
16.74
16.50
16.34
16.42
16.69
16.98
17.13
17.10
16.98
16.83
16.61
16.15
15.22
13.71
11.67
9.35
7.00
4.77
2.67
0.54
-1.78
-4.34
-7.01
-9.61
-12.02
-14.33
-16.88
-20.10
-24.31
-29.54
-35.36
-40.93
-45.18
-47.10
-46.10
-42.10
-35.66
-27.75
-19.48
-11.79
-5.26
-0.02
4.10
7.42
10.17
12.46
14.30
15.74
16.94
18.14
19.55
21.20
22.93
24.38
25.23
25.38
24.98
24.43
24.05
24.02
24.21
24.32
24.02
23.15
21.73
19.92
17.95
16.00
14.15
12.39
10.63
8.77
6.69
4.29
1.61
-1.23
-4.09
-6.82
-9.39
-11.88
-14.48
-17.38
-20.77
-24.78
-29.42
-34.49
-39.48
-43.64
-46.06
-45.98
-43.05
-37.49
-30.04
-21.72
-13.51
-6.12
0.09
5.08
9.02
12.17
14.81
17.16
19.39
21.55
23.62
25.55
27.31
28.95
30.54
32.04
33.35
34.26
34.61
34.40
33.76
32.91
31.99
30.96
29.67
27.97
25.89
23.65
21.49
19.57
17.77
15.83
13.51
10.83
8.04
5.53
3.48
1.80
0.08
-2.04
-4.73
-7.82
-10.92
-13.61
-15.74
-17.46
-19.10
-21.02
-23.46
-26.53
-30.22
-34.44
-39.01
-43.45
-47.05
-48.86
-48.13
-44.51
-38.29
-30.38
-21.95
-14.13
-7.64
-2.70
0.89
3.56
5.74
7.78
9.82
11.88
13.83
15.53
16.92
18.06
19.16
20.37
21.77
23.23
24.52
25.39
25.72
25.50
24.83
23.81
22.47
20.79
18.76
16.48
14.13
11.97
10.25
9.00
8.10
7.18
5.84
3.76
0.97
-2.29
-5.58
-8.52
-10.97
-13.01
-14.95
-17.12
-19.75
-22.95
-26.69
-30.83
-35.02
-38.78
-41.38
-42.12
-40.48
-36.34
-30.13
-22.66
-14.91
-7.78
-1.89
2.57
5.75
8.01
9.77
11.30
12.72
13.97
14.94
15.56
15.96
16.37
17.06
18.20
19.77
21.55
23.25
24.60
25.48
25.90
25.92
25.62
24.97
23.83
22.08
19.72
16.91
14.03
11.46
9.47
8.03
6.81
5.33
3.18
0.27
-3.19
-6.74
-9.96
-12.62
-14.78
-16.74
-18.84
-21.37
-24.45
-28.12
-32.29
-36.74
-41.12
-44.83
-47.16
-47.40
-45.10
-40.26
-33.39
-25.41
-17.44
-10.44
-4.97
-1.06
1.79
4.29
7.09
10.52
14.44
18.44
22.03
24.83
26.79
28.09
28.97
29.66
30.30
30.93
31.55
32.15
32.60
32.72
32.26
31.12
29.34
27.19
24.97
22.94
21.18
19.59
18.00
16.27
14.34
12.23
10.00
7.70
5.41
3.20
1.10
-0.91
-2.97
-5.25
-7.87
-10.81
-13.87
-16.78
-19.38
-21.66
-23.85
-26.26
-29.23
-33.01
-37.58
-42.65
-47.55
-51.34
-53.02
-51.83
-47.60
-40.86
-32.65
-24.18
-16.45
-9.98
-4.84
-0.78
2.54
5.36
7.85
10.08
12.13
14.07
15.99
17.94
19.84
21.57
23.00
24.00
24.63
25.06
25.47
26.00
26.63
27.18
27.39
27.02
26.00
24.40
22.40
20.25
18.17
16.29
14.63
13.11
11.59
9.95
8.15
6.24
4.29
2.34
0.30
-2.00
-4.70
-7.77
-11.02
-14.20
-17.08
-19.60
-21.86
-24.08
-26.53
-29.42
-32.76
-36.35
-39.70
-42.09
-42.73
-41.04
-36.90
-30.82
-23.68
-16.55
-10.27
-5.24
-1.42
1.53
3.94
6.07
7.96
9.61
10.98
12.15
13.21
14.23
15.23
16.10
16.76
17.17
17.40
17.58
17.84
18.17
18.47
18.51
18.13
17.25
15.90
14.22
12.36
10.48
8.69
7.05
5.55
4.10
2.60
0.90
-1.04
-3.17
-5.37
-7.46
-9.40
-11.17
-12.97
-14.99
-17.43
-20.46
-24.14
-28.38
-32.89
-37.06
-40.08
-41.08
-39.44
-35.11
-28.63
-21.06
-13.64
-7.37
-2.72
0.47
2.69
4.61
6.67
9.04
11.63
14.22
16.59
18.62
20.25
21.48
22.31
22.82
23.08
23.24
23.50
23.92
24.48
24.99
25.22
24.97
24.15
22.82
21.09
19.08
16.98
14.94
13.17
11.79
10.80
10.05
9.31
8.35
7.04
5.43
3.59
1.57
-0.67
-3.29
-6.35
-9.74
-13.20
-16.39
-19.13
-21.51
-23.92
-26.90
-30.86
-35.80
-41.23
-46.18
-49.49
-50.19
-47.86
-42.73
-35.64
-27.77
-20.22
-13.81
-8.87
-5.25
-2.51
-0.10
2.44
5.33
8.51
11.72
14.68
17.16
19.14
20.73
22.10
23.33
24.47
25.47
26.29
26.92
27.43
27.82
28.01
27.89
27.26
26.01
24.19
21.99
19.80
18.03
16.94
16.51
16.45
16.23
15.34
13.49
10.73
7.43
4.05
0.98
-1.65
-4.03
-6.48
-9.28
-12.44
-15.82
-19.02
-21.77
-23.93
-25.67
-27.36
-29.49
-32.41
-36.24
-40.68
-45.02
-48.31
-49.53
-47.96
-43.40
-36.32
-27.66
-18.60
-10.19
-3.15
2.21
5.97
8.41
9.95
11.00
11.95
13.09
14.56
16.29
18.15
19.92
21.44
22.68
23.70
24.58
25.35
25.96
26.26
26.02
25.10
23.47
21.23
18.62
15.89
13.25
10.81
8.63
6.75
5.19
3.95
2.93
1.92
0.62
-1.20
-3.59
-6.39
-9.26
-11.90
-14.25
-16.50
-19.09
-22.43
-26.61
-31.21
-35.42
-38.22
-38.76
-36.67
-32.17
-25.96
-18.99
-12.16
-6.16
-1.28
2.53
5.54
8.03
10.20
12.10
13.65
14.82
15.62
16.22
16.87
17.72
18.76
19.79
20.56
20.92
20.92
20.77
20.63
20.45
19.93
18.69
16.48
13.39
9.89
6.63
4.14
2.57
1.67
0.99
0.03
-1.45
-3.43
-5.63
-7.80
-9.78
-11.62
-13.54
-15.83
-18.77
-22.52
-27.00
-31.95
-36.77
-40.71
-42.96
-42.90
-40.34
-35.61
-29.51
-22.97
-16.77
-11.34
-6.68
-2.62
1.06
4.43
7.46
10.06
12.19
13.93
15.45
16.88
18.33
19.81
21.28
22.66
23.84
24.74
25.27
25.41
25.20
24.73
24.10
23.33
22.38
21.19
19.68
17.90
16.00
14.17
12.57
11.29
10.12
8.78
6.91
4.29
0.93
-2.86
-6.66
-10.05
-12.84
-15.16
-17.39
-20.04
-23.49
-27.84
-32.84
-37.92
-42.30
-45.21
-46.00
-44.37
-40.41
-34.64
-27.83
-20.82
-14.33
-8.74
-4.06
-0.10
3.52
7.08
10.68
14.27
17.64
20.59
22.95
24.71
25.91
26.70
27.19
27.47
27.59
27.60
27.49
27.30
27.02
26.65
26.16
25.49
24.50
23.04
21.02
18.38
15.33
12.22
9.49
7.51
6.33
5.73
5.21
4.28
2.64
0.32
-2.40
-5.16
-7.75
-10.24
-12.89
-16.07
-20.01
-24.72
-29.94
-35.22
-40.00
-43.66
-45.66
-45.54
-43.11
-38.47
-32.08
-24.68
-17.15
-10.23
-4.35
0.34
4.06
7.07
9.62
11.81
13.70
15.29
16.66
17.90
19.12
20.38
21.64
22.79
23.73
24.42
24.82
24.95
24.80
24.33
23.52
22.40
21.05
19.56
18.07
16.58
15.08
13.48
11.72
9.78
7.70
5.50
3.13
0.58
-2.20
-5.16
-8.14
-11.04
-13.89
-16.89
-20.40
-24.76
-29.94
-35.54
-40.62
-44.09
-45.02
-43.03
-38.44
-32.06
-25.02
-18.24
-12.23
-7.06
-2.46
1.89
6.18
10.41
14.38
17.86
20.66
22.73
24.19
25.25
26.19
27.22
28.46
29.86
31.28
32.53
33.41
33.79
33.54
32.62
31.05
28.95
26.53
24.05
21.67
19.43
17.34
15.31
13.34
11.46
9.72
8.15
6.70
5.30
3.79
2.05
-0.01
-2.41
-5.10
-7.95
-10.76
-13.37
-15.77
-18.08
-20.53
-23.41
-26.97
-31.30
-36.29
-41.57
-46.51
-50.26
-51.95
-50.94
-47.09
-40.79
-32.95
-24.69
-17.08
-10.81
-6.11
-2.73
-0.08
2.52
5.54
9.16
13.13
17.03
20.36
22.84
24.53
25.68
26.61
27.50
28.33
28.96
29.26
29.24
29.03
28.77
28.52
28.13
27.38
26.06
24.20
22.05
19.99
18.37
17.29
16.58
15.88
14.88
13.40
11.58
9.69
8.02
6.69
5.60
4.48
2.94
0.73
-2.22
-5.75
-9.46
-12.95
-15.88
-18.14
-19.86
-21.41
-23.23
-25.72
-29.07
-33.18
-37.63
-41.77
-44.80
-45.98
-44.83
-41.27
-35.76
-29.08
-22.21
-15.97
-10.86
-6.91
-3.84
-1.21
1.38
4.10
6.95
9.71
12.17
14.21
15.83
17.18
18.44
19.74
21.17
22.67
24.12
25.39
26.37
26.97
27.16
26.92
26.27
25.24
23.87
22.30
20.60
18.87
17.09
15.18
13.08
10.76
8.37
6.09
4.15
2.67
1.58
0.67
-0.33
-1.67
-3.47
-5.71
-8.27
-10.96
-13.58
-15.97
-18.13
-20.22
-22.55
-25.49
-29.17
-33.35
-37.31
-40.08
-40.68
-38.62
-34.01
-27.59
-20.47
-13.69
-7.94
-3.43
0.00
2.69
4.90
6.76
8.26
9.39
10.22
10.91
11.65
12.60
13.80
15.17
16.61
17.95
19.14
20.08
20.75
21.06
20.95
20.34
19.19
17.55
15.58
13.47
11.40
9.52
7.84
6.37
5.02
3.75
2.44
0.98
-0.77
-2.95
-5.58
-8.50
-11.47
-14.23
-16.65
-18.86
-21.17
-24.00
-27.62
-32.00
-36.71
-41.01
-44.07
-45.14
-43.78
-39.97
-34.17
-27.08
-19.63
-12.62
-6.60
-1.76
2.07
5.21
8.00
10.60
13.02
15.17
17.03
18.65
20.21
21.87
23.68
25.49
26.99
27.91
28.13
27.71
26.88
25.83
24.70
23.49
22.12
20.47
18.50
16.26
13.92
11.71
9.86
8.49
7.54
6.81
5.98
4.73
2.87
0.38
-2.61
-5.86
-9.08
-12.12
-14.93
-17.56
-20.11
-22.69
-25.43
-28.48
-31.96
-35.84
-39.84
-43.33
-45.44
-45.33
-42.52
-37.14
-29.98
-22.28
-15.16
-9.38
-5.09
-1.96
0.51
2.79
5.09
7.47
9.84
12.09
14.15
15.99
17.56
18.86
19.91
20.84
21.81
22.97
24.36
25.84
27.14
27.87
27.74
26.68
24.84
22.62
20.53
18.97
18.10
17.80
17.75
17.54
16.86
15.56
13.72
11.49
9.06
6.54
4.00
1.42
-1.17
-3.75
-6.27
-8.71
-11.11
-13.55
-16.19
-19.10
-22.36
-25.98
-29.91
-34.05
-38.23
-42.10
-45.11
-46.62
-46.02
-43.01
-37.73
-30.82
-23.28
-16.08
-9.92
-5.05
-1.30
1.75
4.48
7.11
9.57
11.67
13.23
14.20
14.74
15.14
15.69
16.48
17.45
18.35
18.97
19.22
19.20
19.08
18.98
18.86
18.55
17.77
16.47
14.78
13.02
11.51
10.39
9.54
8.65
7.39
5.60
3.40
1.03
-1.21
-3.22
-5.05
-6.93
-9.12
-11.84
-15.21
-19.15
-23.35
-27.20
-29.96
-30.90
-29.53
-25.86
-20.37
-13.95
-7.60
-2.10
2.22
5.41
7.82
9.80
11.55
13.07
14.22
14.90
15.11
15.03
14.87
14.79
14.84
14.97
15.15
15.34
15.57
15.77
15.81
15.48
14.58
13.04
10.88
8.25
5.30
2.15
-1.14
-4.46
-7.66
-10.50
-12.78
-14.46
-15.70
-16.92
-18.58
-20.94
-23.94
-27.15
-29.93
-31.59
-31.64
-29.97
-26.71
-22.31
-17.25
-12.02
-6.97
-2.34
1.76
5.24
8.03
9.94
10.85
10.80
10.03
8.99
8.26
8.22
8.93
10.13
11.36
12.18
12.42
12.17
11.71
11.27
10.89
10.36
9.38
7.72
5.36
2.54
-0.40
-3.09
-5.36
-7.22
-8.82
-10.40
-12.14
-14.20
-16.67
-19.54
-22.72
-25.87
-28.45
-29.76
-29.17
-26.38
-21.60
-15.53
-9.16
-3.45
1.06
4.30
6.62
8.51
10.33
12.16
13.86
15.16
15.94
16.25
16.29
16.36
16.69
17.31
18.10
18.86
19.35
19.44
19.08
18.30
17.16
15.73
13.98
11.90
9.43
6.59
3.52
0.39
-2.58
-5.30
-7.80
-10.32
-13.06
-16.11
-19.38
-22.71
-26.02
-29.50
-33.49
-38.19
-43.34
-48.09
-51.18
-51.50
-48.59
-42.90
-35.62
-28.15
-21.60
-16.43
-12.44
-9.10
-5.84
-2.36
1.33
5.00
8.42
11.40
13.94
16.18
18.28
20.28
22.11
23.62
24.70
25.40
25.96
26.66
27.62
28.63
29.26
29.03
27.65
25.22
22.14
18.98
16.17
13.95
12.22
10.70
9.02
6.87
4.12
0.83
-2.73
-6.21
-9.37
-12.14
-14.65
-17.19
-20.12
-23.69
-27.98
-32.81
-37.75
-42.08
-44.93
-45.46
-43.22
-38.29
-31.42
-23.75
-16.44
-10.28
-5.44
-1.56
2.01
5.86
10.26
15.07
19.85
24.09
27.40
29.70
31.11
31.96
32.50
32.92
33.27
33.50
33.63
33.67
33.69
33.67
33.51
33.00
31.98
30.40
28.36
26.12
23.96
22.10
20.65
19.49
18.44
17.21
15.57
13.47
11.01
8.43
5.95
3.63
1.31
-1.22
-4.17
-7.48
-10.92
-14.13
-16.85
-19.11
-21.14
-23.33
-26.00
-29.34
-33.43
-38.22
-43.56
-48.99
-53.80
-57.00
-57.67
-55.23
-49.78
-42.06
-33.29
-24.73
-17.30
-11.38
-6.86
-3.24
0.08
3.58
7.51
11.78
16.04
19.87
22.95
25.21
26.82
28.12
29.43
30.85
32.31
33.62
34.59
35.14
35.26
35.01
34.38
33.41
32.10
30.52
28.80
27.13
25.66
24.47
23.54
22.71
21.77
20.49
18.76
16.62
14.25
11.93
9.90
8.29
6.98
5.70
4.09
1.90
-0.95
-4.29
-7.80
-11.16
-14.17
-16.83
-19.29
-21.79
-24.59
-27.88
-31.77
-36.23
-41.00
-45.61
-49.31
-51.23
-50.64
-47.18
-41.10
-33.20
-24.63
-16.52
-9.68
-4.40
-0.49
2.51
5.08
7.59
10.14
12.66
15.00
17.06
18.81
20.31
21.65
22.92
24.15
25.34
26.48
27.53
28.48
29.29
29.84
29.93
29.40
28.16
26.35
24.23
22.20
20.55
19.38
18.56
17.84
16.98
15.90
14.66
13.38
12.11
10.84
9.36
7.57
5.35
2.73
-0.16
-3.20
-6.23
-9.14
-11.86
-14.45
-17.07
-19.98
-23.40
-27.45
-31.96
-36.55
-40.59
-43.38
-44.30
-42.90
-39.08
-33.17
-25.95
-18.44
-11.58
-6.00
-1.80
1.33
3.85
6.08
8.05
9.60
10.58
11.07
11.34
11.83
12.80
14.25
15.96
17.56
18.86
19.81
20.58
21.40
22.33
23.30
24.01
24.19
23.66
22.48
20.92
19.38
18.14
17.36
16.92
16.56
15.99
14.99
13.53
11.71
9.72
7.71
5.79
3.93
2.04
0.00
-2.28
-4.79
-7.39
-9.91
-12.18
-14.16
-15.98
-17.91
-20.29
-23.34
-27.14
-31.49
-35.95
-39.81
-42.30
-42.75
-40.77
-36.49
-30.47
-23.63
-16.89
-10.94
-6.10
-2.27
0.77
3.34
5.58
7.54
9.17
10.48
11.51
12.37
13.18
14.04
15.05
16.24
17.58
18.98
20.30
21.39
22.14
22.48
22.35
21.70
20.54
18.96
17.15
15.38
13.86
12.71
11.88
11.11
10.18
8.92
7.37
5.68
4.11
2.76
1.65
0.67
-0.34
-1.49
-2.87
-4.51
-6.48
-8.76
-11.29
-13.92
-16.52
-19.06
-21.68
-24.64
-28.16
-32.09
-35.97
-38.98
-40.30
-39.38
-36.18
-31.13
-24.99
-18.64
-12.79
-7.85
-3.97
-0.97
1.48
3.69
5.85
7.96
9.86
11.37
12.41
13.05
13.52
14.02
14.67
15.45
16.23
16.87
17.28
17.38
17.19
16.71
15.97
15.01
13.89
12.68
11.41
10.11
8.78
7.46
6.25
5.23
4.43
3.83
3.23
2.43
1.20
-0.53
-2.63
-4.86
-6.89
-8.51
-9.68
-10.58
-11.54
-12.94
-15.05
-17.98
-21.63
-25.67
-29.55
-32.63
-34.32
-34.18
-32.12
-28.41
-23.57
-18.25
-13.06
-8.40
-4.49
-1.40
1.00
2.89
4.48
5.95
7.38
8.69
9.77
10.55
11.07
11.58
12.34
13.49
14.98
16.47
17.62
18.19
18.14
17.66
16.95
16.15
15.31
14.36
13.21
11.92
10.61
9.40
8.39
7.56
6.79
5.93
4.87
3.55
2.03
0.35
-1.36
-3.02
-4.62
-6.18
-7.82
-9.64
-11.68
-13.91
-16.23
-18.64
-21.20
-24.09
-27.42
-31.14
-34.88
-38.00
-39.80
-39.71
-37.48
-33.27
-27.59
-21.16
-14.75
-9.02
-4.39
-0.96
1.47
3.33
5.02
6.82
8.75
10.67
12.38
13.81
14.93
15.84
16.58
17.16
17.59
17.95
18.39
18.97
19.70
20.36
20.65
20.32
19.30
17.77
16.05
14.43
13.04
11.88
10.83
9.79
8.73
7.66
6.60
5.51
4.34
3.06
1.71
0.37
-0.82
-1.82
-2.65
-3.43
-4.32
-5.51
-7.12
-9.13
-11.45
-13.93
-16.48
-19.13
-22.05
-25.38
-29.15
-33.07
-36.50
-38.70
-39.02
-37.14
-33.28
-28.00
-22.10
-16.34
-11.28
-7.20
-4.14
-1.95
-0.32
1.03
2.37
3.88
5.54
7.25
8.83
10.20
11.40
12.59
13.97
15.64
17.49
19.25
20.60
21.36
21.50
21.16
20.56
19.81
18.95
17.96
16.84
15.68
14.62
13.79
13.21
12.74
12.19
11.38
10.20
8.68
6.89
4.92
2.82
0.62
-1.64
-3.87
-6.03
-8.05
-9.97
-11.89
-14.03
-16.58
-19.68
-23.34
-27.32
-31.13
-34.11
-35.53
-34.90
-32.14
-27.66
-22.23
-16.69
-11.69
-7.54
-4.25
-1.59
0.67
2.70
4.58
6.30
7.81
9.10
10.22
11.24
12.31
13.52
14.86
16.23
17.41
18.23
18.62
18.67
18.61
18.58
18.65
18.68
18.52
17.96
16.92
15.47
13.74
11.95
10.31
8.94
7.89
7.02
6.13
4.97
3.33
1.18
-1.36
-4.05
-6.66
-9.04
-11.27
-13.52
-16.04
-18.98
-22.40
-26.14
-29.88
-33.16
-35.43
-36.15
-34.89
-31.55
-26.40
-20.08
-13.45
-7.39
-2.49
1.07
3.47
5.14
6.47
7.77
9.11
10.38
11.46
12.31
12.97
13.54
14.16
14.85
15.56
16.16
16.54
16.63
16.46
16.09
15.56
14.88
13.94
12.66
10.99
9.02
7.00
5.25
4.03
3.40
3.20
3.05
2.59
1.52
-0.13
-2.12
-4.10
-5.81
-7.22
-8.62
-10.36
-12.77
-15.99
-19.91
-24.21
-28.44
-32.03
-34.41
-35.07
-33.70
-30.34
-25.43
-19.71
-14.04
-9.06
-5.13
-2.13
0.27
2.39
4.47
6.51
8.42
10.10
11.57
12.90
14.17
15.43
16.60
17.63
18.47
19.20
19.91
20.63
21.30
21.77
21.81
21.28
20.20
18.73
17.06
15.42
13.94
12.69
11.68
10.89
10.26
9.72
9.16
8.45
7.48
6.22
4.70
3.07
1.45
-0.12
-1.64
-3.26
-5.13
-7.33
-9.85
-12.57
-15.36
-18.17
-21.11
-24.36
-28.13
-32.34
-36.56
-40.01
-41.80
-41.20
-38.03
-32.73
-26.24
-19.68
-13.94
-9.44
-6.09
-3.50
-1.23
1.04
3.43
5.93
8.44
10.92
13.29
15.47
17.41
19.02
20.24
21.10
21.67
22.09
22.55
23.15
23.90
24.73
25.38
25.62
25.20
24.09
22.39
20.43
18.58
17.16
16.28
15.76
15.25
14.38
12.93
10.96
8.70
6.45
4.33
2.30
0.20
-2.07
-4.47
-6.79
-8.80
-10.41
-11.75
-13.11
-14.82
-17.10
-20.05
-23.60
-27.54
-31.45
-34.78
-36.79
-36.80
-34.41
-29.75
-23.51
-16.74
-10.56
-5.67
-2.28
-0.08
1.53
3.04
4.72
6.54
8.35
9.95
11.24
12.20
12.89
13.40
13.80
14.14
14.48
14.84
15.18
15.47
15.60
15.54
15.26
14.78
14.10
13.25
12.20
10.93
9.47
7.96
6.54
5.35
4.37
3.39
2.14
0.41
-1.79
-4.22
-6.44
-8.11
-9.17
-9.92
-10.84
-12.43
-14.94
-18.25
-21.93
-25.31
-27.77
-28.80
-28.20
-25.92
-22.24
-17.56
-12.41
-7.37
-2.93
0.62
3.21
5.02
6.35
7.53
8.74
10.00
11.13
11.98
12.41
12.52
12.55
12.79
13.39
14.35
15.40
16.23
16.57
16.38
15.84
15.18
14.58
13.95
13.10
11.83
10.14
8.28
6.61
5.41
4.68
4.16
3.45
2.22
0.43
-1.66
-3.65
-5.18
-6.13
-6.72
-7.45
-8.87
-11.39
-15.06
-19.53
-24.15
-28.11
-30.73
-31.53
-30.32
-27.26
-22.76
-17.43
-11.98
-7.07
-3.16
-0.40
1.36
2.52
3.52
4.71
6.22
7.99
9.86
11.65
13.24
14.55
15.59
16.35
16.88
17.27
17.63
18.08
18.66
19.29
19.72
19.63
18.72
16.89
14.27
11.19
8.06
5.27
3.03
1.43
0.42
-0.11
-0.33
-0.51
-0.90
-1.75
-3.20
-5.19
-7.50
-9.85
-12.06
-14.16
-16.38
-18.98
-22.09
-25.46
-28.51
-30.48
-30.64
-28.68
-24.83
-19.74
-14.29
-9.26
-5.07
-1.76
0.89
3.21
5.35
7.30
8.92
10.05
10.66
10.88
10.94
11.03
11.29
11.72
12.23
12.64
12.83
12.69
12.20
11.42
10.51
9.61
8.83
8.13
7.33
6.13
4.27
1.72
-1.25
-4.12
-6.34
-7.61
-8.02
-8.05
-8.34
-9.34
-11.25
-13.93
-17.06
-20.29
-23.33
-25.86
-27.45
-27.69
-26.19
-22.93
-18.26
-12.87
-7.52
-2.82
0.96
3.89
6.25
8.30
10.14
11.71
12.83
13.39
13.38
13.01
12.59
12.43
12.72
13.42
14.37
15.28
15.87
15.90
15.26
13.94
12.05
9.86
7.69
5.82
4.44
3.51
2.82
2.07
1.03
-0.36
-2.04
-3.87
-5.74
-7.65
-9.68
-12.00
-14.81
-18.20
-22.16
-26.43
-30.50
-33.62
-34.98
-34.00
-30.51
-24.92
-18.12
-11.19
-5.14
-0.57
2.47
4.32
5.62
6.94
8.59
10.58
12.67
14.56
16.07
17.20
18.07
18.85
19.61
20.29
20.80
21.06
21.06
20.88
20.59
20.25
19.84
19.27
18.37
17.05
15.27
13.18
11.00
9.07
7.58
6.48
5.53
4.41
2.87
0.87
-1.38
-3.61
-5.55
-7.16
-8.57
-10.10
-12.09
-14.80
-18.41
-22.82
-27.72
-32.48
-36.30
-38.36
-38.02
-35.15
-30.14
-23.78
-17.06
-10.82
-5.57
-1.43
1.78
4.39
6.66
8.78
10.82
12.80
14.74
16.63
18.50
20.33
22.08
23.67
24.94
25.77
26.05
25.82
25.21
24.49
23.85
23.40
22.99
22.33
21.11
19.24
16.90
14.52
12.57
11.28
10.53
9.93
8.92
7.10
4.34
0.81
-3.08
-6.82
-10.01
-12.39
-14.04
-15.29
-16.67
-18.78
-21.96
-26.21
-31.05
-35.67
-39.06
-40.34
-38.95
-34.86
-28.63
-21.22
-13.80
-7.31
-2.30
1.22
3.65
5.52
7.21
8.83
10.22
11.16
11.51
11.39
11.13
11.13
11.61
12.59
13.85
15.04
15.90
16.28
16.19
15.67
14.80
13.53
11.82
9.66
7.09
4.25
1.28
-1.67
-4.51
-7.09
-9.32
-11.15
-12.65
-14.00
-15.54
-17.68
-20.72
-24.74
-29.46
-34.22
-38.11
-40.15
-39.59
-36.21
-30.36
-22.97
-15.20
-8.13
-2.39
1.94
5.29
8.27
11.37
14.74
18.08
20.86
22.56
22.99
22.35
21.16
20.04
19.43
19.47
19.94
20.44
20.58
20.20
19.32
18.18
16.95
15.76
14.57
13.29
11.81
10.10
8.25
6.43
4.81
3.51
2.53
1.72
0.85
-0.41
-2.36
-5.10
-8.66
-12.85
-17.35
-21.67
-25.24
-27.40
-27.59
-25.46
-21.05
-14.86
-7.72
-0.64
5.54
10.30
13.65
15.97
17.84
19.78
22.01
24.46
26.85
28.80
30.06
30.58
30.45
29.79
28.80
27.55
26.11
24.50
22.75
20.88
18.92
16.85
14.65
12.29
9.75
7.10
4.42
1.79
-0.75
-3.20
-5.59
-7.91
-10.07
-12.01
-13.69
-15.14
-16.57
-18.21
-20.39
-23.36
-27.21
-31.70
-36.24
-39.93
-41.76
-41.00
-37.44
-31.57
-24.41
-17.11
-10.62
-5.42
-1.52
1.37
3.61
5.48
7.15
8.66
10.01
11.19
12.14
12.78
13.04
12.91
12.49
11.93
11.44
11.13
11.03
11.02
10.86
10.38
9.41
7.91
5.91
3.49
0.75
-2.17
-5.10
-7.79
-10.01
-11.66
-12.80
-13.76
-15.02
-17.09
-20.22
-24.31
-28.82
-32.79
-35.24
-35.38
-32.88
-28.06
-21.72
-14.87
-8.43
-3.03
1.19
4.36
6.76
8.69
10.32
11.67
12.75
13.56
14.15
14.69
15.31
16.12
17.10
18.08
18.79
18.97
18.48
17.39
15.96
14.50
13.26
12.29
11.37
10.19
8.46
6.05
3.11
-0.07
-3.20
-6.09
-8.72
-11.18
-13.64
-16.22
-19.08
-22.41
-26.34
-30.84
-35.55
-39.68
-42.20
-42.20
-39.23
-33.58
-26.19
-18.32
-11.04
-5.00
-0.24
3.55
6.78
9.72
12.38
14.66
16.42
17.69
18.60
19.39
20.21
21.12
22.02
22.78
23.29
23.44
23.26
22.80
22.12
21.24
20.16
18.81
17.11
15.07
12.70
10.13
7.47
4.82
2.25
-0.19
-2.52
-4.74
-6.90
-9.09
-11.44
-14.06
-17.07
-20.59
-24.66
-29.10
-33.49
-37.06
-38.93
-38.36
-35.08
-29.44
-22.32
-14.82
-7.86
-1.97
2.78
6.60
9.80
12.59
15.14
17.47
19.57
21.32
22.61
23.35
23.53
23.34
23.00
22.77
22.78
22.99
23.23
23.30
23.06
22.44
21.43
20.00
18.12
15.74
12.89
9.66
6.24
2.86
-0.35
-3.28
-5.93
-8.33
-10.53
-12.63
-14.77
-17.19
-20.16
-23.87
-28.25
-32.87
-36.95
-39.55
-39.85
-37.40
-32.35
-25.39
-17.55
-9.92
-3.30
1.91
5.79
8.65
10.90
12.83
14.57
16.15
17.51
18.56
19.30
19.73
19.89
19.88
19.83
19.84
19.97
20.23
20.51
20.61
20.35
19.54
18.05
15.87
13.14
10.07
6.92
3.93
1.27
-1.01
-2.92
-4.52
-5.88
-7.15
-8.53
-10.26
-12.62
-15.77
-19.80
-24.61
-29.93
-35.29
-39.99
-43.18
-44.02
-42.00
-37.12
-30.06
-21.90
-13.89
-6.96
-1.51
2.54
5.66
8.32
10.81
13.14
15.17
16.78
17.96
18.88
19.76
20.79
21.97
23.18
24.23
25.00
25.54
25.97
26.39
26.71
26.70
26.04
24.54
22.28
19.63
17.07
14.95
13.34
11.92
10.25
7.93
4.86
1.36
-2.12
-5.12
-7.44
-9.20
-10.74
-12.48
-14.78
-17.90
-21.94
-26.82
-32.15
-37.19
-40.88
-42.15
-40.27
-35.22
-27.68
-18.89
-10.18
-2.61
3.29
7.54
10.46
12.49
14.01
15.21
16.17
16.85
17.19
17.16
16.85
16.37
15.89
15.55
15.43
15.56
15.95
16.55
17.27
17.97
18.36
18.19
17.27
15.62
13.50
11.33
9.50
8.19
7.26
6.35
5.07
3.14
0.55
-2.48
-5.66
-8.69
-11.38
-13.70
-15.77
-17.85
-20.32
-23.53
-27.66
-32.50
-37.35
-41.19
-42.92
-41.76
-37.58
-30.90
-22.78
-14.44
-6.98
-1.09
3.07
5.77
7.52
8.84
10.02
11.17
12.16
12.92
13.46
13.90
14.39
15.01
15.69
16.32
16.76
17.00
17.08
17.02
16.77
16.20
15.17
13.61
11.56
9.15
6.52
3.76
0.94
-1.86
-4.54
-6.98
-9.09
-10.91
-12.61
-14.48
-16.82
-19.86
-23.57
-27.65
-31.46
-34.20
-35.11
-33.66
-29.78
-23.86
-16.69
-9.20
-2.27
3.53
7.99
11.16
13.26
14.52
15.10
15.09
14.61
13.79
12.91
12.30
12.22
12.82
14.07
15.71
17.47
19.03
20.19
20.83
20.88
20.31
19.15
17.50
15.49
13.30
11.07
8.88
6.71
4.52
2.27
0.00
-2.19
-4.27
-6.24
-8.21
-10.38
-12.98
-16.20
-20.16
-24.82
-29.85
-34.67
-38.38
-40.07
-39.04
-35.14
-28.85
-21.20
-13.40
-6.46
-0.95
3.11
6.05
8.31
10.24
12.01
13.53
14.64
15.23
15.29
14.96
14.52
14.26
14.35
14.82
15.55
16.30
16.88
17.16
17.12
16.84
16.35
15.58
14.34
12.49
10.00
7.02
3.89
0.94
-1.59
-3.68
-5.47
-7.22
-9.16
-11.51
-14.43
-18.05
-22.44
-27.48
-32.77
-37.58
-40.96
-42.01
-40.22
-35.62
-28.87
-21.02
-13.20
-6.26
-0.67
3.57
6.72
9.17
11.28
13.22
15.03
16.62
17.88
18.76
19.32
19.75
20.27
21.02
21.99
22.98
23.68
23.91
23.57
22.76
21.62
20.19
18.38
15.96
12.78
8.89
4.64
0.51
-3.01
-5.70
-7.72
-9.52
-11.71
-14.76
-18.87
-23.79
-28.90
-33.33
-36.18
-36.72
-34.64
-30.13
-23.83
-16.73
-9.83
-3.89
0.74
4.12
6.56
8.41
9.93
11.18
12.16
12.88
13.36
13.73
14.10
14.57
15.15
15.85
16.61
17.39
18.09
18.54
18.58
17.96
16.54
14.28
11.27
7.80
4.23
0.85
-2.18
-4.96
-7.79
-11.04
-14.95
-19.55
-24.51
-29.25
-33.04
-35.16
-35.03
-32.43
-27.54
-20.91
-13.41
-5.99
0.54
5.69
9.27
11.46
12.59
13.03
13.12
13.06
13.00
13.04
13.27
13.74
14.42
15.15
15.72
15.91
15.62
14.93
14.00
12.95
11.71
10.09
7.84
4.91
1.52
-1.92
-4.94
-7.33
-9.20
-10.98
-13.17
-16.25
-20.38
-25.36
-30.68
-35.49
-38.83
-39.84
-38.01
-33.43
-26.73
-18.93
-11.11
-4.08
1.76
6.44
10.25
13.49
16.33
18.72
20.48
21.47
21.73
21.54
21.36
21.59
22.39
23.62
24.85
25.59
25.52
24.63
23.20
21.61
20.13
18.77
17.37
15.62
13.35
10.51
7.27
3.89
0.62
-2.41
-5.22
-7.94
-10.74
-13.82
-17.38
-21.59
-26.51
-32.03
-37.74
-42.92
-46.66
-48.10
-46.64
-42.24
-35.41
-27.09
-18.44
-10.45
-3.67
1.82
6.27
10.10
13.62
16.87
19.69
21.84
23.14
23.72
23.92
24.17
24.77
25.75
26.89
27.86
28.48
28.77
28.88
28.94
28.89
28.44
27.29
25.32
22.65
19.65
16.72
14.14
11.96
10.05
8.20
6.17
3.83
1.10
-1.98
-5.20
-8.28
-10.96
-13.14
-15.06
-17.22
-20.17
-24.27
-29.48
-35.32
-40.88
-45.11
-47.11
-46.30
-42.65
-36.61
-28.97
-20.73
-12.81
-5.87
-0.25
4.06
7.32
9.86
12.00
13.92
15.75
17.53
19.25
20.88
22.39
23.68
24.66
25.30
25.62
25.76
25.85
26.03
26.27
26.42
26.30
25.73
24.66
23.03
20.96
18.55
15.99
13.49
11.22
9.24
7.46
5.64
3.50
0.85
-2.35
-5.92
-9.63
-13.21
-16.52
-19.57
-22.43
-25.24
-28.16
-31.35
-34.96
-39.04
-43.43
-47.64
-50.88
-52.27
-51.10
-47.09
-40.52
-32.14
-23.02
-14.20
-6.45
-0.20
4.52
7.96
10.51
12.54
14.33
16.00
17.53
18.86
19.92
20.71
21.32
21.87
22.55
23.43
24.53
25.73
26.77
27.37
27.30
26.53
25.22
23.65
22.09
20.70
19.50
18.38
17.24
15.97
14.54
12.90
11.06
9.03
6.88
4.72
2.68
0.81
-1.00
-3.00
-5.45
-8.48
-11.98
-15.61
-18.95
-21.72
-23.96
-26.03
-28.49
-31.86
-36.30
-41.52
-46.69
-50.71
-52.55
-51.52
-47.55
-41.15
-33.26
-24.95
-17.08
-10.20
-4.50
0.13
3.93
7.18
10.04
12.63
14.99
17.16
19.17
21.10
23.03
25.00
26.94
28.76
30.32
31.52
32.32
32.78
32.93
32.80
32.36
31.56
30.41
28.91
27.19
25.35
23.50
21.74
20.13
18.66
17.28
15.89
14.43
12.80
11.00
9.04
7.00
4.95
2.88
0.72
-1.67
-4.40
-7.50
-10.87
-14.29
-17.53
-20.41
-22.91
-25.14
-27.45
-30.23
-33.81
-38.25
-43.17
-47.73
-50.80
-51.36
-48.84
-43.44
-36.08
-27.99
-20.28
-13.61
-8.07
-3.42
0.66
4.34
7.59
10.29
12.45
14.18
15.78
17.45
19.30
21.28
23.25
25.03
26.51
27.69
28.59
29.25
29.62
29.62
29.11
28.05
26.52
24.69
22.79
20.92
19.06
17.11
15.00
12.76
10.59
8.67
7.08
5.64
4.03
1.92
-0.82
-4.07
-7.49
-10.72
-13.49
-15.76
-17.67
-19.53
-21.69
-24.49
-28.12
-32.55
-37.40
-41.99
-45.49
-47.12
-46.37
-43.14
-37.69
-30.63
-22.76
-14.91
-7.79
-1.91
2.51
5.55
7.47
8.64
9.40
9.98
10.53
11.17
12.02
13.17
14.67
16.42
18.18
19.68
20.69
21.12
21.04
20.62
20.03
19.33
18.48
17.37
15.93
14.17
12.21
10.23
8.39
6.72
5.14
3.41
1.29
-1.37
-4.52
-7.89
-11.07
-13.69
-15.63
-17.11
-18.64
-20.89
-24.34
-29.16
-34.98
-40.99
-46.14
-49.40
-50.06
-47.92
-43.28
-36.86
-29.54
-22.15
-15.30
-9.31
-4.26
-0.06
3.44
6.40
8.93
11.10
12.98
14.67
16.29
17.96
19.73
21.56
23.33
24.92
26.29
27.46
28.47
29.25
29.64
29.41
28.43
26.75
24.63
22.42
20.43
18.75
17.36
16.12
14.85
13.48
11.99
10.43
8.81
7.13
5.28
3.19
0.77
-2.00
-5.04
-8.21
-11.30
-14.18
-16.82
-19.35
-22.03
-25.13
-28.86
-33.24
-38.03
-42.76
-46.71
-49.08
-49.14
-46.48
-41.17
-33.87
-25.59
-17.47
-10.36
-4.68
-0.32
3.11
6.04
8.75
11.29
13.59
15.55
17.17
18.53
19.76
21.06
22.56
24.32
26.29
28.27
30.00
31.28
32.08
32.54
32.84
33.07
33.13
32.80
31.91
30.44
28.54
26.43
24.21
21.88
19.39
16.75
14.13
11.79
9.92
8.49
7.27
5.86
3.93
1.33
-1.89
-5.46
-9.08
-12.47
-15.49
-18.19
-20.79
-23.61
-27.04
-31.26
-36.26
-41.72
-46.93
-51.03
-53.08
-52.38
-48.70
-42.43
-34.40
-25.72
-17.38
-10.08
-4.07
0.72
4.52
7.57
10.03
12.00
13.52
14.67
15.61
16.51
17.53
18.75
20.12
21.50
22.73
23.63
24.17
24.35
24.22
23.77
22.97
21.77
20.17
18.23
16.01
13.71
11.48
9.56
8.13
7.28
6.92
6.80
6.48
5.62
4.03
1.86
-0.54
-2.78
-4.67
-6.32
-8.10
-10.53
-14.00
-18.59
-24.03
-29.62
-34.44
-37.55
-38.28
-36.47
-32.53
-27.40
-22.11
-17.54
-14.08
-11.69
-10.02
-8.74
-7.56
-6.40
-5.18
-3.77
-2.08
0.01
2.37
4.80
7.02
8.87
10.44
11.93
13.60
15.49
17.46
19.09
20.06
20.14
19.34
17.87
15.99
13.95
11.89
9.96
8.30
7.00
6.01
5.10
3.87
1.97
-0.72
-4.04
-7.55
-10.82
-13.58
-15.88
-18.09
-20.71
-24.23
-28.90
-34.60
-40.78
-46.55
-50.85
-52.76
-51.86
-48.27
-42.68
-36.06
-29.25
-22.88
-17.17
-12.09
-7.48
-3.19
0.91
4.88
8.71
12.33
15.61
18.44
20.80
22.81
24.66
26.56
28.60
30.69
32.66
34.29
35.50
36.28
36.63
36.55
35.96
34.80
33.13
31.08
28.85
26.65
24.58
22.65
20.78
18.90
16.98
15.00
12.95
10.74
8.30
5.52
2.40
-1.03
-4.62
-8.21
-11.66
-14.92
-18.10
-21.43
-25.24
-29.81
-35.15
-40.92
-46.42
-50.68
-52.83
-52.23
-48.83
-43.11
-35.95
-28.33
-21.13
-14.88
-9.77
-5.62
-2.06
1.29
4.72
8.31
11.91
15.28
18.20
20.58
22.52
24.17
25.66
27.02
28.16
28.99
29.48
29.65
29.60
29.39
29.03
28.40
27.35
25.77
23.68
21.29
18.94
16.96
15.49
14.37
13.18
11.38
8.57
4.75
0.28
-4.23
-8.18
-11.28
-13.65
-15.74
-18.15
-21.40
-25.76
-31.15
-37.09
-42.84
-47.52
-50.30
-50.62
-48.30
-43.55
-36.95
-29.29
-21.44
-14.18
-8.01
-3.14
0.58
3.54
6.19
8.83
11.55
14.14
16.33
17.90
18.90
19.58
20.28
21.29
22.67
24.30
25.92
27.30
28.29
28.89
29.07
28.79
27.88
26.19
23.70
20.58
17.22
14.01
11.19
8.78
6.49
4.03
1.19
-2.01
-5.32
-8.46
-11.23
-13.67
-16.07
-18.87
-22.47
-27.13
-32.83
-39.16
-45.36
-50.39
-53.18
-52.95
-49.40
-42.95
-34.58
-25.53
-16.98
-9.68
-3.81
0.90
4.92
8.67
12.38
16.02
19.48
22.60
25.31
27.61
29.54
31.18
32.62
34.01
35.44
36.95
38.39
39.48
39.88
39.34
37.87
35.65
33.03
30.37
27.86
25.62
23.67
22.04
20.72
19.65
18.70
17.63
16.27
14.52
12.46
10.20
7.81
5.29
2.46
-0.83
-4.62
-8.78
-13.00
-16.95
-20.36
-23.22
-25.73
-28.33
-31.56
-35.87
-41.42
-47.91
-54.56
-60.18
-63.51
-63.58
-60.03
-53.29
-44.35
-34.57
-25.20
-17.06
-10.45
-5.18
-0.80
3.19
7.16
11.20
15.24
19.12
22.66
25.75
28.32
30.26
31.51
32.05
32.04
31.75
31.52
31.57
31.90
32.29
32.49
32.30
31.67
30.68
29.39
27.84
26.01
23.90
21.62
19.32
17.17
15.24
13.48
11.78
10.03
8.15
6.11
3.91
1.56
-0.93
-3.56
-6.32
-9.23
-12.36
-15.81
-19.70
-24.15
-29.22
-34.82
-40.70
-46.33
-50.98
-53.73
-53.79
-50.67
-44.48
-36.00
-26.52
-17.46
-9.87
-4.12
0.14
3.72
7.34
11.29
15.26
18.60
20.77
21.66
21.71
21.62
21.95
22.88
24.10
25.09
25.49
25.29
24.77
24.32
24.15
24.14
23.92
23.12
21.56
19.36
16.86
14.42
12.24
10.36
8.69
7.10
5.55
4.03
2.48
0.81
-1.20
-3.65
-6.58
-9.86
-13.27
-16.61
-19.81
-22.97
-26.31
-30.15
-34.76
-40.26
-46.47
-52.82
-58.38
-62.03
-62.76
-60.02
-53.97
-45.43
-35.60
-25.75
-16.83
-9.33
-3.28
1.59
5.66
9.24
12.54
15.59
18.33
20.69
22.67
24.30
25.78
27.32
29.11
31.15
33.27
35.15
36.43
36.88
36.42
35.21
33.46
31.43
29.30
27.21
25.28
23.66
22.48
21.81
21.54
21.37
20.93
19.89
18.19
16.00
13.68
11.52
9.67
7.97
6.08
3.64
0.43
-3.50
-7.83
-12.13
-16.03
-19.31
-22.02
-24.47
-27.08
-30.33
-34.57
-39.86
-45.89
-51.96
-57.04
-60.04
-60.04
-56.65
-50.19
-41.62
-32.29
-23.52
-16.20
-10.60
-6.35
-2.82
0.62
4.32
8.25
12.18
15.81
18.93
21.53
23.68
25.48
26.99
28.29
29.41
30.41
31.36
32.24
32.94
33.24
32.93
31.89
30.26
28.29
26.34
24.63
23.16
21.77
20.20
18.33
16.17
13.93
11.83
9.96
8.24
6.41
4.24
1.62
-1.39
-4.58
-7.71
-10.64
-13.38
-16.11
-19.12
-22.71
-27.10
-32.28
-37.99
-43.72
-48.72
-52.20
-53.44
-52.00
-47.83
-41.35
-33.35
-24.86
-16.88
-10.12
-4.88
-1.04
1.87
4.36
6.77
9.22
11.63
13.80
15.62
17.09
18.27
19.26
20.12
20.89
21.62
22.40
23.30
24.30
25.19
25.67
25.39
24.12
21.86
18.86
15.54
12.34
9.60
7.47
5.86
4.49
3.04
1.19
-1.20
-4.08
-7.25
-10.40
-13.35
-16.13
-18.99
-22.32
-26.48
-31.58
-37.32
-42.98
-47.56
-50.02
-49.62
-46.17
-40.10
-32.35
-24.09
-16.28
-9.54
-3.99
0.56
4.47
8.03
11.38
14.48
17.22
19.45
21.13
22.30
23.11
23.79
24.51
25.36
26.31
27.26
28.07
28.63
28.84
28.66
28.04
26.97
25.50
23.76
21.94
20.21
18.65
17.23
15.85
14.35
12.68
10.80
8.78
6.68
4.55
2.39
0.19
-2.06
-4.34
-6.59
-8.80
-11.02
-13.39
-16.09
-19.29
-23.12
-27.65
-32.81
-38.43
-44.14
-49.30
-53.09
-54.66
-53.42
-49.24
-42.61
-34.51
-26.07
-18.27
-11.70
-6.44
-2.26
1.25
4.44
7.50
10.46
13.23
15.66
17.66
19.26
20.63
21.98
23.50
25.22
26.98
28.51
29.59
30.14
30.22
30.01
29.60
28.96
27.90
26.29
24.15
21.73
19.42
17.62
16.46
15.81
15.34
14.66
13.53
11.97
10.10
8.12
6.11
4.02
1.72
-0.93
-3.94
-7.15
-10.31
-13.21
-15.73
-18.01
-20.32
-22.99
-26.26
-30.21
-34.74
-39.58
-44.30
-48.36
-51.05
-51.64
-49.55
-44.69
-37.53
-29.11
-20.64
-13.17
-7.18
-2.57
1.12
4.40
7.59
10.79
13.82
16.53
18.77
20.51
21.79
22.82
23.81
25.00
26.47
28.11
29.61
30.65
30.98
30.64
29.79
28.68
27.43
26.04
24.44
22.63
20.72
18.87
17.19
15.67
14.19
12.59
10.78
8.79
6.65
4.44
2.12
-0.37
-3.06
-5.95
-8.90
-11.82
-14.66
-17.53
-20.57
-23.96
-27.79
-32.04
-36.45
-40.58
-43.74
-45.17
-44.18
-40.43
-34.22
-26.35
-18.05
-10.56
-4.68
-0.63
1.95
3.73
5.33
7.02
8.75
10.25
11.29
11.87
12.15
12.37
12.75
13.32
13.98
14.62
15.12
15.42
15.51
15.35
14.86
13.94
12.58
10.81
8.77
6.59
4.37
2.15
-0.08
-2.39
-4.81
-7.32
-9.82
-12.18
-14.32
-16.29
-18.32
-20.79
-24.06
-28.33
-33.34
-38.39
-42.48
-44.57
-44.00
-40.72
-35.26
-28.51
-21.44
-14.76
-8.81
-3.64
0.84
4.71
7.96
10.53
12.39
13.61
14.37
14.96
15.69
16.79
18.26
19.95
21.57
22.87
23.71
24.14
24.34
24.47
24.56
24.48
24.00
22.94
21.25
19.07
16.68
14.38
12.34
10.58
8.93
7.18
5.08
2.54
-0.44
-3.69
-7.01
-10.18
-13.11
-15.84
-18.58
-21.66
-25.46
-30.18
-35.75
-41.72
-47.28
-51.42
-53.22
-52.09
-47.98
-41.45
-33.49
-25.30
-17.93
-12.02
-7.61
-4.25
-1.26
1.95
5.64
9.64
13.47
16.68
19.01
20.55
21.62
22.53
23.50
24.57
25.65
26.71
27.71
28.69
29.60
30.29
30.52
30.10
28.97
27.28
25.31
23.39
21.82
20.73
20.09
19.72
19.38
18.80
17.87
16.59
15.11
13.64
12.29
11.03
9.73
8.18
6.25
3.86
1.05
-2.03
-5.21
-8.31
-11.19
-13.80
-16.23
-18.76
-21.77
-25.61
-30.34
-35.57
-40.43
-43.69
-44.18
-41.23
-34.86
-25.90
-15.75
-5.94
2.26
8.10
11.41
12.52
12.05
10.67
9.06
7.69
6.87
6.68
7.10
7.99
9.22
10.62
12.13
13.69
15.27
16.84
18.35
19.67
20.63
21.09
20.98
20.33
19.22
17.76
16.02
14.04
11.85
9.59
7.48
5.74
4.49
3.65
2.91
1.89
0.26
-2.07
-4.90
-7.91
-10.73
-13.17
-15.25
-17.14
-19.09
-21.34
-24.06
-27.41
-31.40
-35.88
-40.41
-44.22
-46.37
-46.06
-42.88
-37.12
-29.61
-21.50
-13.83
-7.27
-2.01
2.14
5.52
8.45
11.09
13.48
15.57
17.31
18.69
19.80
20.82
21.92
23.24
24.73
26.24
27.53
28.43
28.85
28.81
28.35
27.47
26.14
24.33
22.10
19.56
16.90
14.30
11.89
9.67
7.63
5.75
4.05
2.55
1.23
-0.05
-1.51
-3.37
-5.73
-8.52
-11.51
-14.47
-17.24
-19.84
-22.43
-25.18
-28.29
-31.85
-35.90
-40.29
-44.63
-48.19
-50.04
-49.32
-45.59
-39.13
-30.89
-22.23
-14.40
-8.23
-3.79
-0.63
1.97
4.67
7.76
11.23
14.75
17.96
20.59
22.56
23.97
24.96
25.71
26.32
26.88
27.45
28.10
28.82
29.56
30.14
30.40
30.17
29.40
28.17
26.63
25.01
23.51
22.28
21.33
20.58
19.82
18.85
17.47
15.62
13.44
11.17
9.08
7.30
5.74
4.05
1.80
-1.31
-5.23
-9.61
-13.86
-17.47
-20.26
-22.40
-24.38
-26.76
-29.96
-34.17
-39.24
-44.68
-49.76
-53.58
-55.28
-54.27
-50.38
-44.02
-35.98
-27.32
-19.05
-11.93
-6.31
-2.15
0.95
3.58
6.30
9.39
12.81
16.22
19.21
21.51
23.11
24.22
25.11
26.00
26.89
27.69
28.28
28.58
28.64
28.53
28.26
27.77
26.96
25.71
24.03
22.01
19.85
17.75
15.84
14.17
12.64
11.11
9.50
7.79
6.03
4.28
2.55
0.76
-1.22
-3.50
-6.15
-9.08
-12.08
-14.94
-17.52
-19.83
-22.16
-24.94
-28.57
-33.18
-38.47
-43.63
-47.62
-49.41
-48.35
-44.45
-38.30
-30.91
-23.38
-16.58
-10.96
-6.57
-3.17
-0.40
2.03
4.31
6.54
8.77
10.99
13.14
15.10
16.68
17.76
18.33
18.64
19.00
19.70
20.79
22.00
22.88
23.02
22.29
20.91
19.28
17.79
16.60
15.62
14.56
13.21
11.57
9.86
8.36
7.21
6.32
5.35
3.92
1.84
-0.81
-3.76
-6.68
-9.38
-11.91
-14.48
-17.35
-20.70
-24.61
-29.05
-33.86
-38.77
-43.36
-47.04
-49.12
-49.06
-46.61
-41.89
-35.42
-28.00
-20.50
-13.71
-8.15
-4.02
-1.09
1.09
3.10
5.40
8.11
11.07
13.92
16.34
18.23
19.68
20.91
22.09
23.32
24.58
25.86
27.12
28.31
29.27
29.81
29.69
28.85
27.41
25.63
23.81
22.10
20.50
18.90
17.21
15.41
13.56
11.76
10.05
8.39
6.65
4.70
2.43
-0.19
-3.06
-6.05
-8.98
-11.71
-14.17
-16.41
-18.60
-20.95
-23.75
-27.20
-31.34
-35.92
-40.37
-43.85
-45.53
-44.84
-41.70
-36.53
-30.11
-23.26
-16.61
-10.59
-5.38
-1.05
2.42
5.13
7.29
9.17
11.01
12.93
14.86
16.69
18.27
19.59
20.76
21.93
23.20
24.53
25.75
26.64
26.98
26.73
25.95
24.74
23.24
21.51
19.57
17.46
15.21
12.98
10.96
9.28
7.98
7.01
6.20
5.36
4.29
2.84
0.91
-1.45
-4.11
-6.85
-9.45
-11.82
-14.06
-16.40
-19.16
-22.59
-26.80
-31.72
-37.04
-42.23
-46.55
-49.17
-49.37
-46.79
-41.64
-34.66
-26.94
-19.51
-13.14
-8.05
-4.08
-0.85
1.95
4.52
6.86
8.91
10.63
12.08
13.37
14.59
15.80
16.98
18.08
19.04
19.88
20.63
21.32
21.89
22.21
22.07
21.29
19.80
17.76
15.39
12.99
10.76
8.73
6.85
4.97
2.96
0.78
-1.56
-3.99
-6.37
-8.61
-10.67
-12.66
-14.84
-17.58
-21.20
-25.75
-30.88
-35.83
-39.58
-41.15
-39.93
-35.93
-29.72
-22.31
-14.77
-7.98
-2.41
1.90
5.20
7.83
10.05
11.98
13.55
14.70
15.41
15.82
16.15
16.63
17.42
18.54
19.89
21.29
22.60
23.76
24.77
25.61
26.12
26.08
25.27
23.59
21.18
18.40
15.68
13.36
11.55
10.18
8.99
7.71
6.11
4.06
1.56
-1.31
-4.36
-7.34
-10.10
-12.61
-15.07
-17.88
-21.47
-26.10
-31.65
-37.56
-42.92
-46.66
-47.89
-46.15
-41.56
-34.81
-26.88
-18.86
-11.55
-5.35
-0.28
3.88
7.40
10.51
13.32
15.88
18.17
20.23
22.07
23.70
25.13
26.37
27.48
28.57
29.70
30.89
32.02
32.86
33.23
32.98
32.10
30.70
28.87
26.74
24.38
21.88
19.38
17.06
15.06
13.43
12.05
10.68
9.07
7.05
4.58
1.75
-1.24
-4.25
-7.13
-9.79
-12.20
-14.39
-16.50
-18.78
-21.52
-24.98
-29.30
-34.33
-39.66
-44.57
-48.16
-49.56
-48.19
-44.01
-37.59
-30.00
-22.45
-15.86
-10.67
-6.80
-3.86
-1.43
0.78
2.88
4.86
6.67
8.31
9.78
11.11
12.38
13.65
14.98
16.35
17.70
18.92
19.92
20.61
20.97
21.02
20.72
20.04
18.93
17.40
15.52
13.47
11.42
9.49
7.68
5.84
3.83
1.49
-1.14
-3.92
-6.63
-9.09
-11.33
-13.55
-16.16
-19.49
-23.70
-28.61
-33.63
-37.90
-40.40
-40.35
-37.37
-31.75
-24.31
-16.22
-8.58
-2.12
2.89
6.67
9.64
12.17
14.45
16.54
18.37
19.96
21.36
22.68
23.93
25.04
25.92
26.54
27.05
27.61
28.36
29.28
30.19
30.83
31.02
30.74
30.12
29.36
28.64
28.05
27.58
27.27
27.14
27.28
27.70
28.33
28.94
29.24
28.97
28.03
26.54
24.84
23.38
22.56
22.57
23.24
24.06
24.25
22.96
19.55
13.85
6.27
-2.24
-10.42
-17.05
-21.27
-22.76
-21.77
-18.97
-15.27
-11.54
-8.48
-6.46
-5.41
-5.00
-4.67
-3.98
-2.76
-1.14
0.52
1.92
2.88
3.49
3.89
4.17
4.29
4.05
3.35
2.16
0.67
-0.90
-2.37
-3.75
-5.16
-6.71
-8.40
-10.00
-11.20
-11.65
-11.24
-10.16
-8.91
-8.07
-8.13
-9.26
-11.23
-13.48
-15.43
-16.69
-17.26
-17.58
-18.28
-20.02
-23.21
-27.84
-33.53
-39.61
-45.23
-49.53
-51.73
-51.36
-48.33
-43.05
-36.33
-29.16
-22.48
-16.94
-12.72
-9.60
-7.15
-4.96
-2.74
-0.48
1.70
3.54
4.87
5.63
5.92
6.02
6.18
6.62
7.34
8.23
9.08
9.72
10.03
9.98
9.57
8.80
7.66
6.16
4.31
2.20
-0.08
-2.45
-4.88
-7.29
-9.60
-11.62
-13.16
-14.14
-14.67
-15.10
-15.92
-17.55
-20.23
-23.94
-28.27
-32.71
-36.53
-38.95
-39.29
-37.10
-32.43
-25.90
-18.57
-11.60
-5.88
-1.69
1.26
3.61
5.92
8.43
10.98
13.22
14.85
15.78
16.21
16.45
16.78
17.34
18.13
18.99
19.78
20.32
20.47
20.14
19.27
17.83
15.90
13.64
11.20
8.73
6.31
3.97
1.74
-0.38
-2.35
-4.23
-6.08
-8.02
-10.17
-12.58
-15.28
-18.30
-21.77
-25.80
-30.31
-34.94
-38.93
-41.29
-41.14
-38.07
-32.35
-24.91
-16.99
-9.72
-3.82
0.55
3.67
6.02
8.03
9.95
11.85
13.71
15.50
17.26
19.03
20.87
22.73
24.45
25.80
26.59
26.74
26.37
25.73
25.06
24.53
24.09
23.54
22.61
21.11
19.03
16.61
14.18
12.09
10.58
9.58
8.88
8.12
6.95
5.16
2.80
0.08
-2.67
-5.21
-7.51
-9.70
-12.07
-14.96
-18.60
-23.00
-27.84
-32.55
-36.34
-38.45
-38.36
-35.96
-31.55
-25.79
-19.49
-13.35
-7.93
-3.46
0.11
3.04
5.70
8.43
11.45
14.72
18.00
20.87
23.01
24.25
24.72
24.73
24.66
24.80
25.22
25.85
26.51
27.01
27.21
26.96
26.15
24.67
22.53
19.88
17.07
14.47
12.43
11.05
10.13
9.25
7.94
5.89
3.07
-0.28
-3.76
-6.97
-9.64
-11.74
-13.46
-15.14
-17.24
-20.19
-24.21
-29.22
-34.70
-39.75
-43.33
-44.55
-42.98
-38.79
-32.68
-25.60
-18.51
-12.06
-6.54
-1.95
1.88
5.11
7.86
10.12
11.87
13.08
13.74
14.02
14.18
14.53
15.39
16.84
18.71
20.54
21.78
21.96
20.97
18.99
16.45
13.83
11.46
9.45
7.65
5.85
3.87
1.65
-0.73
-3.09
-5.25
-7.19
-9.01
-10.90
-13.17
-16.07
-19.71
-24.01
-28.68
-33.16
-36.76
-38.77
-38.57
-35.92
-30.97
-24.29
-16.71
-9.12
-2.28
3.37
7.71
10.91
13.26
15.06
16.52
17.64
18.38
18.74
18.81
18.85
19.05
19.56
20.31
21.10
21.71
21.99
21.85
21.31
20.36
18.99
17.17
14.94
12.43
9.77
7.18
4.82
2.77
0.99
-0.65
-2.32
-4.13
-6.12
-8.16
-10.14
-11.95
-13.74
-15.79
-18.49
-22.15
-26.75
-31.93
-36.87
-40.57
-42.05
-40.74
-36.69
-30.56
-23.41
-16.33
-10.08
-4.93
-0.77
2.65
5.51
7.88
9.75
11.18
12.35
13.55
15.02
16.85
18.93
21.00
22.83
24.20
25.07
25.55
25.85
26.19
26.64
27.08
27.23
26.77
25.47
23.37
20.76
18.06
15.67
13.78
12.28
10.91
9.34
7.35
4.91
2.14
-0.77
-3.65
-6.41
-9.11
-11.90
-14.99
-18.62
-22.91
-27.84
-33.06
-37.96
-41.64
-43.19
-41.94
-37.75
-31.16
-23.25
-15.29
-8.36
-2.98
0.96
4.01
6.77
9.64
12.66
15.62
18.33
20.69
22.79
24.75
26.59
28.11
29.07
29.25
28.66
27.51
26.17
24.97
23.98
23.09
21.95
20.32
18.04
15.22
12.17
9.26
6.82
4.97
3.62
2.53
1.42
0.06
-1.63
-3.52
-5.43
-7.13
-8.59
-9.92
-11.41
-13.41
-16.19
-19.86
-24.36
-29.38
-34.34
-38.49
-40.90
-40.84
-37.98
-32.65
-25.71
-18.31
-11.54
-6.00
-1.84
1.19
3.43
5.14
6.46
7.43
8.16
8.80
9.49
10.36
11.40
12.56
13.77
15.00
16.16
17.15
17.83
18.09
17.94
17.44
16.71
15.77
14.59
13.11
11.32
9.33
7.29
5.30
3.38
1.49
-0.44
-2.35
-4.23
-6.00
-7.82
-9.93
-12.70
-16.39
-21.03
-26.38
-31.95
-37.01
-40.74
-42.35
-41.31
-37.52
-31.47
-24.10
-16.54
-9.77
-4.32
-0.20
2.93
5.54
7.91
10.14
12.13
13.81
15.14
16.27
17.30
18.31
19.27
20.12
20.79
21.30
21.75
22.26
22.87
23.46
23.78
23.56
22.60
20.92
18.72
16.32
14.02
11.97
10.15
8.40
6.53
4.39
1.95
-0.76
-3.64
-6.57
-9.44
-12.15
-14.66
-17.10
-19.71
-22.80
-26.59
-30.96
-35.39
-39.03
-40.94
-40.43
-37.38
-32.20
-25.68
-18.72
-12.03
-6.02
-0.86
3.49
7.12
10.14
12.64
14.75
16.51
17.91
18.99
19.78
20.46
21.25
22.30
23.63
25.06
26.32
27.16
27.53
27.49
27.21
26.76
26.08
25.05
23.59
21.73
19.64
17.49
15.44
13.55
11.80
10.13
8.46
6.68
4.64
2.20
-0.63
-3.74
-6.90
-9.89
-12.59
-14.99
-17.20
-19.43
-21.91
-24.86
-28.43
-32.52
-36.72
-40.37
-42.61
-42.78
-40.57
-36.17
-30.18
-23.35
-16.45
-10.05
-4.51
0.00
3.50
6.15
8.21
9.90
11.43
12.90
14.36
15.85
17.42
19.06
20.74
22.35
23.69
24.61
25.03
24.95
24.47
23.63
22.43
20.88
19.01
16.90
14.77
12.78
11.02
9.47
8.01
6.46
4.66
2.54
0.08
-2.65
-5.50
-8.26
-10.72
-12.78
-14.52
-16.28
-18.54
-21.72
-25.93
-30.80
-35.51
-39.01
-40.37
-39.06
-35.23
-29.54
-22.99
-16.50
-10.72
-5.91
-1.98
1.22
3.88
6.03
7.66
8.80
9.57
10.20
10.97
12.12
13.73
15.76
17.95
20.04
21.73
22.86
23.45
23.59
23.48
23.17
22.65
21.73
20.31
18.35
16.02
13.65
11.53
9.84
8.57
7.55
6.58
5.52
4.31
2.89
1.26
-0.64
-2.84
-5.36
-8.13
-11.07
-14.09
-17.17
-20.42
-23.98
-27.96
-32.34
-36.82
-40.88
-43.81
-44.96
-43.86
-40.44
-34.97
-28.08
-20.51
-13.01
-6.21
-0.53
3.84
6.93
8.98
10.32
11.34
12.36
13.57
14.99
16.50
18.00
19.38
20.63
21.77
22.81
23.70
24.40
24.82
24.94
24.77
24.31
23.50
22.24
20.47
18.16
15.48
12.77
10.45
8.84
8.03
7.77
7.57
6.88
5.33
2.83
-0.35
-3.78
-7.09
-10.09
-12.90
-15.77
-19.00
-22.80
-27.20
-32.01
-36.88
-41.22
-44.33
-45.52
-44.25
-40.43
-34.40
-26.97
-19.11
-11.77
-5.56
-0.69
2.96
5.79
8.24
10.53
12.71
14.62
16.02
16.83
17.19
17.37
17.66
18.19
18.90
19.58
20.05
20.29
20.40
20.49
20.52
20.28
19.46
17.90
15.75
13.31
10.96
8.90
7.05
5.15
2.97
0.42
-2.34
-5.02
-7.38
-9.35
-11.11
-12.98
-15.33
-18.47
-22.51
-27.29
-32.32
-36.80
-39.77
-40.41
-38.28
-33.50
-26.76
-19.06
-11.45
-4.74
0.61
4.55
7.25
9.03
10.17
10.95
11.50
11.96
12.39
12.92
13.67
14.72
16.02
17.43
18.70
19.61
20.09
20.18
20.03
19.72
19.24
18.42
17.08
15.13
12.68
9.95
7.18
4.55
2.08
-0.30
-2.68
-5.13
-7.62
-10.06
-12.32
-14.41
-16.46
-18.77
-21.71
-25.49
-30.05
-34.96
-39.47
-42.65
-43.73
-42.24
-38.25
-32.26
-25.10
-17.71
-10.88
-5.15
-0.69
2.59
4.99
6.85
8.49
10.14
11.85
13.62
15.37
17.05
18.61
20.07
21.41
22.58
23.52
24.17
24.50
24.54
24.26
23.63
22.56
21.01
18.99
16.72
14.48
12.57
11.17
10.20
9.43
8.49
7.03
4.82
1.85
-1.66
-5.35
-8.78
-11.60
-13.67
-15.10
-16.28
-17.76
-20.12
-23.73
-28.55
-34.00
-39.01
-42.29
-42.84
-40.24
-34.86
-27.77
-20.24
-13.37
-7.73
-3.37
0.06
2.94
5.60
8.16
10.63
12.95
15.07
17.00
18.76
20.41
21.99
23.47
24.78
25.86
26.64
27.15
27.41
27.44
27.23
26.71
25.80
24.50
22.87
21.05
19.20
17.44
15.84
14.49
13.41
12.57
11.81
10.83
9.32
7.05
4.07
0.58
-3.01
-6.37
-9.36
-12.04
-14.62
-17.32
-20.33
-23.73
-27.57
-31.75
-36.10
-40.21
-43.50
-45.27
-44.91
-42.11
-37.01
-30.23
-22.75
-15.56
-9.49
-4.84
-1.42
1.32
3.99
6.99
10.35
13.75
16.84
19.34
21.27
22.83
24.22
25.52
26.62
27.34
27.61
27.52
27.29
27.13
27.05
26.86
26.24
24.97
23.07
20.85
18.75
17.11
16.01
15.25
14.54
13.64
12.49
11.19
9.83
8.37
6.57
4.18
1.00
-2.86
-7.06
-11.10
-14.55
-17.23
-19.29
-21.12
-23.21
-25.90
-29.27
-33.10
-36.89
-40.02
-41.85
-41.88
-39.85
-35.78
-30.06
-23.32
-16.31
-9.83
-4.40
-0.30
2.55
4.43
5.76
6.95
8.27
9.83
11.59
13.35
14.94
16.32
17.58
18.98
20.67
22.62
24.52
25.92
26.46
26.05
24.91
23.42
21.85
20.23
18.40
16.12
13.40
10.53
7.94
6.03
4.91
4.39
4.03
3.44
2.34
0.67
-1.49
-4.02
-6.77
-9.65
-12.51
-15.22
-17.66
-19.89
-22.06
-24.51
-27.52
-31.17
-35.14
-38.75
-41.12
-41.44
-39.30
-34.83
-28.67
-21.75
-14.97
-9.03
-4.23
-0.50
2.47
5.03
7.45
9.82
12.02
13.88
15.28
16.35
17.30
18.38
19.65
20.94
21.97
22.52
22.64
22.56
22.61
22.94
23.45
23.79
23.60
22.74
21.33
19.67
18.12
16.82
15.69
14.51
13.08
11.37
9.51
7.69
6.09
4.69
3.29
1.59
-0.64
-3.43
-6.53
-9.53
-12.05
-13.86
-15.10
-16.18
-17.65
-20.06
-23.69
-28.42
-33.75
-38.83
-42.71
-44.53
-43.78
-40.45
-34.99
-28.22
-21.10
-14.45
-8.80
-4.31
-0.88
1.81
4.12
6.39
8.82
11.39
13.88
15.96
17.40
18.16
18.48
18.75
19.30
20.29
21.61
22.97
24.04
24.60
24.61
24.10
23.15
21.80
20.12
18.23
16.34
14.72
13.49
12.62
11.82
10.78
9.26
7.36
5.41
3.85
2.89
2.41
1.98
1.05
-0.72
-3.34
-6.52
-9.84
-12.93
-15.66
-18.12
-20.58
-23.37
-26.70
-30.58
-34.65
-38.30
-40.72
-41.20
-39.35
-35.27
-29.53
-22.98
-16.50
-10.73
-5.93
-2.06
1.10
3.76
6.01
7.80
9.09
9.93
10.57
11.34
12.43
13.84
15.30
16.47
17.12
17.30
17.21
17.12
17.14
17.20
17.08
16.62
15.77
14.59
13.20
11.69
10.16
8.75
7.59
6.79
6.33
6.03
5.53
4.53
2.80
0.37
-2.54
-5.62
-8.63
-11.42
-13.96
-16.39
-18.93
-21.88
-25.40
-29.48
-33.73
-37.50
-40.00
-40.58
-38.93
-35.25
-30.13
-24.33
-18.55
-13.26
-8.66
-4.71
-1.26
1.85
4.70
7.29
9.62
11.68
13.53
15.26
16.96
18.61
20.09
21.24
21.97
22.33
22.49
22.66
22.94
23.25
23.40
23.18
22.46
21.23
19.64
17.82
15.91
13.98
12.10
10.31
8.66
7.20
5.93
4.77
3.61
2.32
0.85
-0.84
-2.69
-4.64
-6.67
-8.80
-11.09
-13.56
-16.21
-18.99
-21.91
-25.04
-28.54
-32.43
-36.50
-40.23
-42.82
-43.44
-41.57
-37.25
-31.06
-24.05
-17.22
-11.33
-6.66
-3.05
-0.13
2.45
4.89
7.19
9.23
10.90
12.15
13.11
13.98
14.98
16.25
17.79
19.44
20.94
22.02
22.54
22.52
22.16
21.68
21.26
20.85
20.32
19.49
18.31
16.94
15.66
14.70
14.12
13.73
13.22
12.28
10.80
8.85
6.59
4.17
1.66
-0.95
-3.63
-6.29
-8.79
-11.05
-13.16
-15.42
-18.22
-21.87
-26.38
-31.30
-35.87
-39.17
-40.47
-39.43
-36.21
-31.31
-25.46
-19.35
-13.50
-8.24
-3.77
-0.12
2.73
4.96
6.77
8.41
10.07
11.81
13.55
15.13
16.44
17.49
18.42
19.36
20.39
21.41
22.20
22.58
22.44
21.79
20.65
19.04
16.99
14.52
11.81
9.14
6.79
4.90
3.40
2.05
0.51
-1.34
-3.49
-5.75
-7.92
-9.91
-11.82
-13.81
-16.01
-18.53
-21.34
-24.36
-27.40
-30.15
-32.13
-32.76
-31.54
-28.27
-23.16
-16.87
-10.30
-4.27
0.69
4.44
7.19
9.20
10.67
11.66
12.20
12.36
12.34
12.45
12.93
13.90
15.26
16.77
18.18
19.32
20.11
20.53
20.54
20.04
18.93
17.17
14.90
12.40
10.01
8.00
6.43
5.17
3.94
2.49
0.70
-1.39
-3.65
-5.97
-8.31
-10.68
-13.17
-15.83
-18.75
-21.97
-25.52
-29.29
-32.93
-35.84
-37.23
-36.46
-33.24
-27.91
-21.28
-14.43
-8.26
-3.21
0.76
3.97
6.84
9.53
12.04
14.26
16.09
17.58
18.81
19.89
20.82
21.57
22.11
22.46
22.69
22.83
22.88
22.81
22.60
22.26
21.79
21.17
20.33
19.18
17.68
15.96
14.22
12.67
11.45
10.47
9.46
8.10
6.15
3.53
0.47
-2.69
-5.48
-7.61
-9.04
-10.11
-11.45
-13.72
-17.47
-22.73
-29.07
-35.60
-41.23
-44.94
-46.08
-44.49
-40.50
-34.85
-28.39
-22.03
-16.37
-11.80
-8.32
-5.65
-3.41
-1.19
1.23
3.83
6.43
8.77
10.73
12.38
13.97
15.74
17.78
19.94
21.91
23.36
24.16
24.38
24.20
23.76
23.10
22.10
20.61
18.68
16.44
14.20
12.23
10.67
9.46
8.41
7.29
5.87
4.10
2.02
-0.26
-2.66
-5.14
-7.76
-10.60
-13.77
-17.37
-21.45
-25.94
-30.61
-34.97
-38.34
-39.97
-39.31
-36.18
-30.93
-24.35
-17.38
-10.91
-5.48
-1.25
1.98
4.55
6.80
8.91
10.86
12.49
13.61
14.21
14.43
14.58
14.92
15.59
16.46
17.28
17.73
17.56
16.77
15.50
13.96
12.32
10.61
8.70
6.43
3.62
0.28
-3.42
-7.22
-10.88
-14.30
-17.56
-20.86
-24.52
-28.75
-33.65
-39.22
-45.38
-52.11
-59.43
-67.42
-76.05
-85.14
-94.37
-103.54
-112.94
-123.43
-136.19
-152.04
-170.77
-190.79
-209.64
-225.05
-235.83
-242.20
-245.42
-246.66
-246.24
-243.45
-237.13
-226.60
-212.31
-195.77
-178.96
-163.52
-150.30
-139.22
-129.59
-120.44
-110.84
-100.10
-87.87
-74.12
-59.14
-43.20
-26.42
-8.52
11.13
33.46
59.46
90.09
126.02
167.29
212.59
258.59
299.98
330.58
345.31
342.25
323.62
295.08
263.45
234.28
210.28
191.41
176.34
163.98
154.27
147.71
144.32
142.96
141.39
137.27
129.23
117.35
102.94
87.67
72.78
58.42
43.85
27.82
9.41
-11.46
-33.81
-55.79
-75.27
-90.65
-101.41
-108.44
-113.78
-119.72
-127.72
-137.60
-147.31
-153.65
-153.56
-145.42
-129.60
-108.11
-83.69
-58.88
-35.61
-15.36
0.68
11.66
17.78
20.68
23.35
29.05
39.82
55.22
72.36
87.11
96.14
98.48
96.11
93.06
93.61
100.45
113.73
131.36
150.14
167.32
181.51
192.57
200.81
205.96
206.85
201.99
190.67
174.00
154.94
137.31
124.12
116.39
112.72
110.10
105.28
95.99
81.42
62.01
38.99
14.00
-10.84
-32.85
-48.99
-56.68
-54.93
-45.29
-31.76
-19.52
-13.02
-14.24
-22.12
-33.28
-43.73
-50.51
-52.64
-50.90
-46.99
-42.52
-38.45
-35.07
-32.32
-30.18
-28.79
-28.31
-28.64
-29.35
-29.69
-28.93
-26.69
-23.15
-19.06
-15.45
-13.25
-12.96
-14.48
-17.27
-20.65
-24.07
-27.29
-30.32
-33.23
-35.86
-37.86
-38.72
-37.93
-35.26
-30.77
-24.84
-18.08
-11.23
-5.03
-0.09
3.28
5.09
5.66
5.52
5.17
4.94
4.93
5.11
5.41
5.87
6.59
7.56
8.68
9.68
10.28
10.34
9.96
9.48
9.31
9.68
10.52
11.46
11.98
11.73
10.67
9.10
7.47
6.17
5.32
4.82
4.49
4.20
3.95
3.81
3.74
3.53
2.90
1.55
-0.61
-3.53
-6.97
-10.66
-14.24
-17.28
-19.32
-19.91
-18.83
-16.17
-12.41
-8.26
-4.43
-1.35
0.95
2.75
4.45
6.28
8.18
9.82
10.78
10.86
10.22
9.29
8.55
8.36
8.70
9.37
10.11
10.77
11.39
11.99
12.54
12.85
12.67
11.83
10.38
8.55
6.64
4.91
3.49
2.38
1.46
0.56
-0.50
-1.85
-3.50
-5.34
-7.10
-8.56
-9.64
-10.48
-11.41
-12.71
-14.42
-16.20
-17.43
-17.46
-15.92
-12.86
-8.78
-4.43
-0.50
2.60
4.81
6.30
7.33
8.11
8.72
9.17
9.46
9.65
9.84
10.10
10.49
10.99
11.52
11.98
12.31
12.48
12.57
12.66
12.78
12.88
12.75
12.14
10.85
8.91
6.57
4.25
2.37
1.13
0.47
0.11
-0.30
-1.01
-2.07
-3.42
-4.95
-6.52
-8.10
-9.67
-11.27
-13.02
-15.03
-17.40
-20.09
-22.80
-25.04
-26.27
-26.00
-24.10
-20.73
-16.44
-11.89
-7.76
-4.50
-2.29
-0.92
0.00
0.93
2.17
3.76
5.51
7.15
8.46
9.45
10.29
11.22
12.37
13.67
14.89
15.80
16.22
16.14
15.69
15.05
14.32
13.56
12.73
11.81
10.83
9.87
9.02
8.29
7.58
6.78
5.78
4.57
3.18
1.70
0.12
-1.58
-3.46
-5.52
-7.69
-9.86
-11.87
-13.68
-15.26
-16.69
-18.06
-19.48
-21.07
-22.87
-24.77
-26.52
-27.70
-27.82
-26.57
-23.87
-20.01
-15.52
-11.00
-6.96
-3.61
-0.92
1.30
3.26
5.09
6.80
8.33
9.60
10.63
11.47
12.27
13.11
14.02
14.92
15.72
16.35
16.80
17.09
17.20
17.11
16.73
16.01
14.96
13.62
12.11
10.53
8.99
7.56
6.32
5.26
4.32
3.36
2.23
0.82
-0.78
-2.40
-3.81
-4.88
-5.67
-6.33
-7.06
-7.97
-9.04
-10.16
-11.21
-12.16
-13.06
-14.01
-15.13
-16.52
-18.19
-20.01
-21.73
-22.92
-23.22
-22.32
-20.19
-17.06
-13.36
-9.58
-6.14
-3.22
-0.84
1.14
2.87
4.46
5.94
7.26
8.38
9.28
10.01
10.67
11.35
12.08
12.84
13.58
14.24
14.76
15.07
15.14
14.88
14.24
13.22
11.88
10.33
8.68
7.01
5.34
3.71
2.16
0.79
-0.34
-1.20
-1.86
-2.49
-3.29
-4.42
-5.91
-7.62
-9.28
-10.65
-11.56
-12.06
-12.37
-12.72
-13.34
-14.35
-15.73
-17.46
-19.45
-21.57
-23.61
-25.24
-26.02
-25.57
-23.69
-20.48
-16.31
-11.79
-7.52
-3.94
-1.21
0.82
2.47
4.01
5.56
7.02
8.19
8.87
9.08
8.98
8.89
9.02
9.45
10.08
10.71
11.17
11.38
11.32
11.03
10.57
9.93
9.07
7.92
6.44
4.69
2.79
1.01
-0.42
-1.37
-1.92
-2.32
-2.87
-3.76
-4.96
-6.25
-7.40
-8.30
-9.08
-10.04
-11.53
-13.70
-16.47
-19.55
-22.47
-24.73
-25.89
-25.64
-23.86
-20.67
-16.43
-11.67
-7.03
-3.03
-0.01
1.97
3.04
3.52
3.73
3.95
4.37
5.09
6.18
7.61
9.29
11.01
12.49
13.47
13.79
13.46
12.62
11.53
10.44
9.57
9.02
8.80
8.83
8.90
8.73
8.10
6.90
5.22
3.37
1.67
0.37
-0.52
-1.19
-1.87
-2.77
-3.88
-5.05
-6.11
-7.00
-7.82
-8.76
-9.93
-11.38
-13.00
-14.69
-16.41
-18.24
-20.29
-22.59
-24.94
-26.91
-27.95
-27.57
-25.52
-21.96
-17.42
-12.68
-8.51
-5.38
-3.32
-1.99
-0.85
0.52
2.22
4.03
5.54
6.43
6.60
6.23
5.67
5.23
5.07
5.19
5.42
5.58
5.55
5.27
4.77
4.06
3.19
2.16
1.02
-0.11
-1.12
-1.89
-2.40
-2.80
-3.38
-4.40
-5.95
-7.81
-9.51
-10.49
-10.35
-9.11
-7.16
-5.18
-3.86
-3.67
-4.75
-6.92
-9.73
-12.56
-14.71
-15.61
-14.92
-12.80
-9.89
-7.13
-5.43
-5.32
-6.85
-9.69
-13.37
-17.45
-21.64
-25.66
-29.17
-31.76
-33.05
-32.84
-31.12
-28.13
-24.24
-20.00
-16.14
-13.59
-13.31
-15.97
-21.60
-29.29
-37.37
-43.87
-47.24
-46.85
-43.20
-37.67
-31.87
-27.17
-24.33
-23.57
-24.78
-27.90
-33.04
-40.49
-50.55
-63.07
-77.08
-90.49
-100.17
-102.66
-95.15
-76.67
-48.68
-14.92
19.60
50.14
73.46
88.43
95.77
97.20
94.55
89.19
82.03
73.81
65.45
57.97
52.36
49.11
48.17
49.03
51.10
53.94
57.31
60.86
63.95
65.72
65.44
63.02
59.07
54.68
50.84
48.01
46.08
44.77
44.06
44.40
46.45
50.54
56.27
62.57
68.05
71.74
73.48
73.97
74.38
75.83
78.90
83.37
88.39
92.69
95.10
94.99
92.51
88.61
84.68
82.09
81.63
83.18
85.60
86.99
85.02
77.43
62.69
40.67
13.25
-15.77
-41.44
-59.32
-67.14
-65.80
-58.89
-51.13
-46.42
-46.48
-51.10
-59.25
-70.50
-85.13
-103.22
-123.09
-140.56
-150.04
-146.63
-128.42
-97.36
-58.58
-18.53
16.48
41.35
52.53
48.56
31.04
5.36
-19.69
-34.33
-31.56
-10.43
22.96
57.95
83.74
93.91
88.37
72.36
53.22
36.97
26.51
21.88
21.98
26.01
34.17
46.67
62.47
78.59
90.66
94.78
89.39
76.24
59.62
44.39
33.69
27.59
23.42
17.20
5.63
-12.56
-36.48
-63.85
-92.06
-119.04
-143.65
-165.46
-184.85
-203.02
-221.88
-243.27
-267.50
-292.03
-311.28
-318.02
-306.20
-273.62
-223.10
-161.48
-97.05
-36.91
14.30
54.02
80.53
92.08
87.39
66.78
33.36
-7.15
-47.82
-82.63
-108.10
-123.55
-130.44
-130.97
-126.89
-118.86
-106.76
-90.32
-69.83
-46.65
-22.98
-1.24
16.79
30.53
40.48
47.83
53.75
58.97
63.82
68.57
73.57
79.28
85.93
93.25
100.39
106.29
110.17
111.75
111.36
109.44
106.31
101.90
95.92
88.17
78.85
68.58
58.32
48.97
41.15
35.09
30.69
27.69
25.95
25.56
26.79
29.86
34.62
40.23
45.30
48.33
48.34
45.36
40.47
35.39
31.79
30.86
33.05
38.34
46.38
56.54
67.87
78.90
87.96
93.53
94.73
91.46
84.28
73.98
61.31
47.02
31.88
16.79
2.45
-10.88
-23.51
-36.08
-48.96
-61.76
-73.34
-82.35
-87.94
-90.24
-90.21
-89.00
-87.33
-85.13
-81.93
-77.32
-71.44
-65.03
-59.08
-54.39
-51.26
-49.50
-48.55
-47.75
-46.43
-43.97
-39.92
-34.08
-26.61
-18.04
-9.18
-0.82
6.44
12.36
16.95
20.41
22.99
24.84
26.03
26.60
26.55
25.99
25.06
23.99
23.00
22.27
21.95
22.06
22.48
22.99
23.27
23.08
22.27
20.79
18.76
16.32
13.62
10.82
8.04
5.42
3.02
0.79
-1.42
-3.81
-6.51
-9.57
-12.91
-16.36
-19.75
-22.95
-25.95
-28.79
-31.57
-34.44
-37.43
-40.53
-43.60
-46.49
-49.07
-51.39
-53.60
-55.90
-58.35
-60.76
-62.65
-63.36
-62.30
-59.14
-53.94
-47.13
-39.44
-31.65
-24.40
-18.00
-12.47
-7.57
-2.93
1.76
6.76
12.18
18.05
24.33
30.87
37.48
43.86
49.79
55.04
59.55
63.38
66.74
69.88
73.00
76.19
79.30
81.97
83.71
83.94
82.27
78.53
72.82
65.53
57.18
48.23
39.00
29.64
20.20
10.72
1.32
-7.78
-16.46
-24.74
-32.85
-41.15
-49.92
-59.12
-68.21
-76.25
-82.09
-84.78
-83.81
-79.31
-71.83
-62.10
-50.76
-38.27
-24.94
-11.14
2.60
15.57
27.05
36.66
44.36
50.55
55.74
60.38
64.70
68.70
72.29
75.28
77.48
78.63
78.50
76.91
73.90
69.74
64.90
59.83
54.76
49.63
44.13
37.94
30.98
23.45
15.78
8.37
1.46
-5.00
-11.14
-17.11
-22.89
-28.33
-33.23
-37.44
-40.96
-43.93
-46.51
-48.91
-51.24
-53.57
-55.90
-58.13
-60.04
-61.33
-61.62
-60.61
-58.13
-54.23
-49.16
-43.29
-37.07
-30.88
-25.02
-19.68
-14.87
-10.56
-6.62
-2.96
0.43
3.51
6.22
8.53
10.48
12.22
13.93
15.72
17.60
19.46
21.15
22.56
23.65
24.40
24.86
25.05
24.94
24.52
23.78
22.78
21.55
20.20
18.82
17.51
16.33
15.32
14.39
13.39
12.18
10.68
8.97
7.24
5.67
4.40
3.38
2.41
1.23
-0.35
-2.34
-4.61
-6.92
-9.02
-10.80
-12.27
-13.53
-14.77
-16.15
-17.83
-19.87
-22.18
-24.49
-26.33
-27.14
-26.45
-24.07
-20.21
-15.46
-10.54
-6.06
-2.32
0.71
3.27
5.60
7.84
9.92
11.70
13.05
13.95
14.53
14.99
15.48
16.10
16.81
17.53
18.17
18.63
18.88
18.90
18.70
18.32
17.77
17.11
16.37
15.56
14.70
13.80
12.92
12.09
11.31
10.55
9.70
8.69
7.49
6.16
4.87
3.76
2.90
2.25
1.66
0.99
0.14
-0.95
-2.32
-3.99
-5.93
-8.08
-10.26
-12.31
-14.06
-15.52
-16.90
-18.46
-20.41
-22.79
-25.31
-27.53
-28.93
-29.13
-27.97
-25.57
-22.23
-18.37
-14.47
-10.90
-7.85
-5.32
-3.19
-1.27
0.52
2.18
3.60
4.70
5.46
5.98
6.43
6.95
7.63
8.42
9.25
10.04
10.76
11.44
12.08
12.64
13.03
13.17
13.02
12.61
12.03
11.34
10.57
9.62
8.40
6.88
5.12
3.28
1.51
-0.06
-1.43
-2.62
-3.74
-4.86
-6.05
-7.31
-8.63
-9.97
-11.28
-12.55
-13.80
-15.10
-16.55
-18.21
-20.07
-22.07
-24.04
-25.74
-26.85
-27.04
-26.06
-23.82
-20.45
-16.35
-12.03
-8.03
-4.73
-2.23
-0.44
0.92
2.16
3.42
4.74
6.02
7.09
7.85
8.26
8.42
8.47
8.63
9.04
9.76
10.73
11.78
12.70
13.30
13.47
13.19
12.51
11.56
10.47
9.39
8.47
7.79
7.35
7.05
6.75
6.26
5.47
4.39
3.10
1.68
0.21
-1.29
-2.83
-4.38
-5.98
-7.62
-9.35
-11.20
-13.21
-15.42
-17.76
-20.17
-22.50
-24.59
-26.22
-27.16
-27.18
-26.08
-23.86
-20.63
-16.72
-12.53
-8.47
-4.84
-1.80
0.66
2.64
4.28
5.69
6.93
8.00
8.91
9.69
10.41
11.19
12.08
13.04
13.89
14.41
14.49
14.14
13.55
12.98
12.60
12.37
12.15
11.76
11.10
10.24
9.32
8.50
7.80
7.23
6.69
6.07
5.32
4.43
3.43
2.38
1.37
0.42
-0.49
-1.49
-2.71
-4.28
-6.14
-8.18
-10.21
-12.12
-13.91
-15.62
-17.33
-19.04
-20.74
-22.38
-23.91
-25.30
-26.39
-26.94
-26.61
-25.15
-22.49
-18.89
-14.84
-10.88
-7.45
-4.73
-2.66
-1.00
0.47
1.90
3.36
4.85
6.37
7.93
9.56
11.27
13.02
14.68
16.12
17.22
17.90
18.21
18.29
18.27
18.22
18.09
17.75
17.06
16.01
14.73
13.51
12.59
12.07
11.84
11.60
11.08
10.09
8.67
7.00
5.35
3.87
2.63
1.57
0.61
-0.31
-1.21
-2.14
-3.17
-4.42
-5.98
-7.87
-10.03
-12.29
-14.50
-16.58
-18.56
-20.55
-22.62
-24.76
-26.74
-28.22
-28.84
-28.31
-26.55
-23.72
-20.19
-16.39
-12.73
-9.47
-6.63
-4.09
-1.71
0.63
2.91
5.03
6.85
8.26
9.27
9.97
10.49
10.97
11.49
12.08
12.70
13.29
13.79
14.09
14.14
13.86
13.28
12.48
11.57
10.66
9.80
9.02
8.29
7.58
6.95
6.44
6.04
5.64
5.02
3.97
2.42
0.48
-1.56
-3.43
-4.99
-6.30
-7.61
-9.18
-11.18
-13.62
-16.38
-19.22
-21.88
-24.05
-25.41
-25.71
-24.76
-22.58
-19.43
-15.70
-11.86
-8.24
-5.00
-2.10
0.56
3.04
5.31
7.27
8.85
10.06
11.02
11.85
12.67
13.46
14.15
14.69
15.02
15.23
15.42
15.66
15.90
16.03
15.87
15.24
14.15
12.73
11.25
9.97
9.03
8.42
7.94
7.41
6.67
5.70
4.57
3.40
2.24
1.10
-0.06
-1.29
-2.60
-3.99
-5.46
-7.00
-8.59
-10.20
-11.79
-13.30
-14.79
-16.36
-18.19
-20.44
-23.09
-25.89
-28.37
-29.98
-30.26
-29.09
-26.67
-23.44
-19.88
-16.34
-12.98
-9.85
-6.93
-4.25
-1.84
0.30
2.21
4.00
5.78
7.65
9.65
11.73
13.79
15.70
17.30
18.46
19.16
19.49
19.63
19.78
19.97
20.12
19.99
19.36
18.16
16.51
14.66
12.88
11.35
10.12
9.10
8.19
7.34
6.52
5.72
4.94
4.11
3.14
2.00
0.69
-0.69
-2.03
-3.24
-4.32
-5.34
-6.40
-7.65
-9.18
-11.07
-13.35
-16.04
-19.11
-22.46
-25.88
-28.97
-31.31
-32.49
-32.30
-30.75
-28.06
-24.57
-20.60
-16.41
-12.17
-8.01
-4.03
-0.33
2.96
5.82
8.18
10.08
11.54
12.70
13.71
14.71
15.77
16.85
17.83
18.62
19.20
19.63
20.04
20.46
20.84
21.05
20.97
20.58
19.95
19.21
18.47
17.75
17.03
16.32
15.59
14.81
13.94
12.89
11.60
10.09
8.44
6.73
5.06
3.47
2.02
0.72
-0.40
-1.39
-2.34
-3.36
-4.57
-6.06
-7.89
-10.13
-12.85
-16.10
-19.84
-23.81
-27.58
-30.64
-32.55
-33.08
-32.27
-30.34
-27.61
-24.35
-20.82
-17.19
-13.64
-10.34
-7.40
-4.83
-2.58
-0.54
1.37
3.12
4.63
5.79
6.61
7.21
7.81
8.63
9.78
11.17
12.57
13.68
14.26
14.22
13.64
12.68
11.53
10.30
9.05
7.80
6.59
5.51
4.62
3.91
3.29
2.58
1.61
0.34
-1.16
-2.71
-4.19
-5.63
-7.23
-9.26
-11.87
-14.97
-18.16
-20.93
-22.75
-23.36
-22.76
-21.20
-19.04
-16.62
-14.12
-11.63
-9.10
-6.50
-3.82
-1.12
1.49
3.94
6.16
8.12
9.81
11.27
12.54
13.70
14.84
15.99
17.09
18.02
18.62
18.79
18.56
18.06
17.46
16.84
16.16
15.29
14.14
12.67
10.98
9.23
7.53
5.97
4.55
3.22
1.94
0.66
-0.68
-2.16
-3.82
-5.65
-7.52
-9.30
-10.89
-12.34
-13.83
-15.61
-17.87
-20.65
-23.80
-26.94
-29.59
-31.27
-31.55
-30.28
-27.56
-23.79
-19.51
-15.30
-11.53
-8.34
-5.62
-3.13
-0.65
1.98
4.70
7.38
9.81
11.78
13.18
14.03
14.50
14.82
15.23
15.92
16.92
18.16
19.51
20.74
21.68
22.17
22.13
21.55
20.53
19.25
17.90
16.65
15.57
14.66
13.86
13.06
12.21
11.27
10.20
8.99
7.59
6.05
4.38
2.64
0.87
-0.92
-2.82
-4.91
-7.27
-9.87
-12.58
-15.25
-17.75
-20.12
-22.50
-25.04
-27.80
-30.60
-33.04
-34.61
-34.85
-33.57
-30.86
-27.08
-22.77
-18.42
-14.38
-10.80
-7.61
-4.65
-1.83
0.87
3.38
5.60
7.52
9.18
10.67
12.05
13.32
14.42
15.33
16.08
16.76
17.42
18.07
18.67
19.10
19.30
19.23
18.89
18.28
17.40
16.28
14.98
13.63
12.36
11.27
10.32
9.41
8.33
6.93
5.13
2.94
0.49
-2.03
-4.45
-6.63
-8.55
-10.30
-12.04
-14.00
-16.33
-19.06
-21.99
-24.77
-26.97
-28.18
-28.13
-26.72
-24.05
-20.36
-16.04
-11.51
-7.20
-3.43
-0.35
2.06
3.97
5.55
7.01
8.45
9.90
11.31
12.62
13.76
14.75
15.68
16.64
17.68
18.73
19.65
20.24
20.41
20.16
19.62
18.91
18.12
17.24
16.27
15.24
14.22
13.31
12.48
11.68
10.72
9.53
8.10
6.56
5.10
3.82
2.70
1.58
0.30
-1.26
-3.13
-5.20
-7.37
-9.55
-11.74
-14.02
-16.50
-19.27
-22.37
-25.77
-29.30
-32.73
-35.75
-38.04
-39.28
-39.26
-37.91
-35.32
-31.71
-27.39
-22.75
-18.15
-13.88
-10.08
-6.72
-3.64
-0.65
2.38
5.45
8.43
11.11
13.28
14.88
16.01
16.87
17.73
18.71
19.82
20.96
21.95
22.68
23.15
23.39
23.46
23.34
22.90
22.04
20.78
19.29
17.84
16.73
16.12
15.91
15.85
15.60
14.92
13.72
12.10
10.27
8.45
6.74
5.16
3.64
2.08
0.43
-1.31
-3.10
-4.88
-6.60
-8.21
-9.71
-11.11
-12.48
-14.01
-15.91
-18.42
-21.58
-25.17
-28.69
-31.44
-32.77
-32.28
-29.99
-26.31
-21.82
-17.15
-12.70
-8.67
-5.02
-1.59
1.76
5.15
8.53
11.75
14.59
16.87
18.52
19.63
20.38
21.01
21.63
22.28
22.94
23.59
24.24
24.88
25.39
25.58
25.19
24.09
22.28
19.93
17.34
14.71
12.13
9.62
7.13
4.75
2.62
0.88
-0.49
-1.76
-3.35
-5.75
-9.26
-13.89
-19.46
-25.62
-32.05
-38.52
-44.78
-50.53
-55.37
-58.89
-60.76
-60.88
-59.32
-56.36
-52.31
-47.48
-42.16
-36.53
-30.77
-24.99
-19.20
-13.31
-7.27
-1.04
5.28
11.47
17.28
22.44
26.73
29.99
32.15
33.22
33.35
32.85
32.12
31.52
31.24
31.23
31.20
30.79
29.69
27.86
25.45
22.73
19.96
17.29
14.75
12.30
9.89
7.53
5.21
2.94
0.70
-1.50
-3.69
-5.87
-8.02
-10.13
-12.23
-14.38
-16.65
-19.17
-22.03
-25.22
-28.53
-31.51
-33.53
-33.98
-32.48
-29.09
-24.26
-18.71
-13.16
-8.14
-3.88
-0.32
2.69
5.29
7.55
9.47
11.09
12.52
13.90
15.37
16.95
18.51
19.90
20.96
21.70
22.22
22.77
23.50
24.44
25.42
26.15
26.31
25.70
24.30
22.25
19.80
17.23
14.81
12.71
11.00
9.60
8.35
7.08
5.70
4.17
2.53
0.82
-0.93
-2.76
-4.74
-6.93
-9.35
-11.99
-14.76
-17.49
-19.89
-21.57
-22.05
-20.93
-18.05
-13.54
-7.85
-1.63
4.47
9.93
14.53
18.22
21.11
23.36
25.05
26.29
27.18
27.92
28.71
29.75
31.14
32.87
34.86
37.05
39.44
42.06
44.89
47.76
50.31
52.01
52.30
50.71
47.00
41.27
33.99
25.88
17.73
10.24
3.87
-1.21
-5.10
-8.12
-10.71
-13.37
-16.51
-20.31
-24.66
-29.18
-33.40
-37.00
-39.98
-42.60
-45.22
-48.09
-51.18
-54.28
-57.04
-59.16
-60.35
-60.43
-59.17
-56.47
-52.36
-47.07
-41.06
-34.91
-29.14
-24.09
-19.86
-16.31
-13.18
-10.18
-7.16
-4.12
-1.23
1.25
3.17
4.54
5.56
6.53
7.77
9.43
11.44
13.62
15.72
17.49
18.78
19.63
20.08
20.25
20.14
19.68
18.67
16.95
14.43
11.25
7.73
4.32
1.37
-1.03
-3.11
-5.29
-8.00
-11.45
-15.52
-19.81
-23.82
-27.04
-29.12
-29.78
-28.90
-26.49
-22.75
-18.08
-13.07
-8.26
-4.03
-0.50
2.47
5.09
7.49
9.64
11.43
12.78
13.73
14.48
15.28
16.31
17.58
18.86
19.82
20.15
19.72
18.63
17.15
15.59
14.15
12.88
11.63
10.22
8.52
6.50
4.25
1.88
-0.51
-2.91
-5.36
-7.82
-10.28
-12.74
-15.24
-17.90
-20.92
-24.43
-28.43
-32.74
-36.97
-40.60
-43.06
-43.89
-42.83
-39.94
-35.62
-30.45
-25.05
-19.88
-15.11
-10.66
-6.40
-2.25
1.66
5.10
7.89
9.98
11.53
12.79
13.99
15.22
16.43
17.50
18.31
18.88
19.25
19.50
19.68
19.72
19.50
18.85
17.64
15.84
13.61
11.22
8.99
7.17
5.84
4.90
4.11
3.19
1.98
0.45
-1.32
-3.18
-5.04
-6.95
-9.04
-11.49
-14.46
-17.97
-21.87
-25.89
-29.56
-32.36
-33.69
-33.12
-30.45
-25.93
-20.17
-14.04
-8.37
-3.67
0.03
3.04
5.84
8.80
11.98
15.14
17.94
20.13
21.62
22.55
23.18
23.73
24.35
25.08
25.91
26.76
27.56
28.24
28.72
28.94
28.80
28.25
27.25
25.80
23.98
21.90
19.74
17.65
15.72
13.93
12.16
10.24
8.01
5.39
2.41
-0.82
-4.11
-7.26
-10.10
-12.52
-14.53
-16.26
-17.94
-19.81
-22.04
-24.74
-27.84
-31.17
-34.48
-37.31
-39.13
-39.37
-37.63
-33.87
-28.49
-22.24
-15.97
-10.35
-5.66
-1.82
1.42
4.25
6.74
8.86
10.56
11.90
12.98
13.93
14.76
15.47
16.06
16.56
17.09
17.74
18.48
19.17
19.62
19.68
19.26
18.39
17.12
15.50
13.61
11.59
9.59
7.75
6.09
4.47
2.68
0.56
-1.91
-4.50
-6.94
-9.05
-10.85
-12.57
-14.51
-16.87
-19.71
-22.93
-26.34
-29.67
-32.52
-34.37
-34.64
-32.92
-29.13
-23.71
-17.51
-11.47
-6.30
-2.27
0.81
3.31
5.57
7.71
9.68
11.42
12.92
14.30
15.68
17.08
18.42
19.53
20.28
20.62
20.63
20.45
20.22
20.08
20.07
20.16
20.20
20.00
19.33
18.09
16.29
14.12
11.87
9.73
7.84
6.12
4.42
2.57
0.47
-1.89
-4.40
-6.93
-9.38
-11.65
-13.70
-15.52
-17.13
-18.59
-20.04
-21.70
-23.80
-26.49
-29.74
-33.24
-36.35
-38.29
-38.31
-36.01
-31.55
-25.57
-19.07
-12.97
-7.84
-3.75
-0.42
2.52
5.30
7.88
10.08
11.72
12.83
13.60
14.35
15.29
16.49
17.86
19.24
20.46
21.52
22.47
23.37
24.22
24.88
25.08
24.60
23.39
21.59
19.49
17.40
15.51
13.83
12.23
10.60
8.91
7.23
5.68
4.31
3.00
1.62
-0.02
-1.95
-4.07
-6.24
-8.30
-10.18
-11.87
-13.45
-15.06
-16.86
-19.07
-21.83
-25.21
-29.05
-32.98
-36.43
-38.74
-39.37
-38.01
-34.72
-29.88
-24.10
-18.04
-12.29
-7.17
-2.76
1.08
4.48
7.50
10.08
12.05
13.38
14.19
14.72
15.21
15.79
16.41
16.89
17.10
17.00
16.71
16.40
16.21
16.16
16.16
16.06
15.76
15.17
14.31
13.20
11.91
10.48
9.01
7.55
6.14
4.79
3.48
2.15
0.72
-0.82
-2.44
-4.09
-5.71
-7.28
-8.83
-10.40
-12.03
-13.73
-15.56
-17.64
-20.12
-23.06
-26.30
-29.41
-31.71
-32.55
-31.55
-28.71
-24.47
-19.47
-14.30
-9.40
-5.00
-1.21
1.94
4.45
6.37
7.86
9.16
10.48
11.92
13.35
14.58
15.45
15.94
16.22
16.54
17.10
17.90
18.77
19.48
19.82
19.72
19.20
18.34
17.21
15.86
14.38
12.83
11.34
10.01
8.88
7.86
6.82
5.57
4.01
2.08
-0.14
-2.53
-4.90
-7.13
-9.16
-11.04
-12.86
-14.71
-16.62
-18.55
-20.50
-22.52
-24.75
-27.33
-30.26
-33.25
-35.70
-36.92
-36.25
-33.41
-28.61
-22.52
-16.08
-10.16
-5.33
-1.69
1.05
3.35
5.59
7.92
10.24
12.31
13.95
15.09
15.87
16.47
17.07
17.75
18.49
19.21
19.83
20.30
20.63
20.86
20.92
20.71
20.09
18.95
17.32
15.39
13.46
11.79
10.45
9.32
8.19
6.81
5.16
3.40
1.79
0.55
-0.33
-1.05
-1.97
-3.36
-5.31
-7.64
-10.02
-12.18
-14.04
-15.79
-17.69
-20.02
-22.83
-26.05
-29.43
-32.68
-35.50
-37.55
-38.42
-37.71
-35.16
-30.83
-25.17
-18.87
-12.73
-7.38
-3.13
0.05
2.44
4.42
6.30
8.27
10.30
12.24
13.92
15.28
16.33
17.14
17.82
18.36
18.75
18.93
18.92
18.80
18.67
18.57
18.43
18.11
17.48
16.49
15.19
13.69
12.16
10.73
9.49
8.44
7.57
6.76
5.85
4.69
3.18
1.31
-0.86
-3.18
-5.50
-7.67
-9.61
-11.29
-12.78
-14.25
-15.93
-18.05
-20.73
-23.87
-27.08
-29.76
-31.27
-31.07
-28.98
-25.21
-20.27
-14.85
-9.62
-5.04
-1.28
1.72
4.14
6.18
7.97
9.55
10.94
12.14
13.21
14.24
15.30
16.39
17.50
18.56
19.50
20.27
20.81
21.06
20.98
20.52
19.63
18.29
16.53
14.44
12.21
10.04
8.14
6.62
5.39
4.22
2.84
1.08
-1.07
-3.40
-5.67
-7.73
-9.51
-11.10
-12.57
-14.01
-15.50
-17.16
-19.17
-21.67
-24.67
-27.94
-31.04
-33.37
-34.44
-33.97
-31.96
-28.64
-24.33
-19.43
-14.31
-9.36
-4.93
-1.26
1.57
3.69
5.34
6.79
8.25
9.73
11.19
12.56
13.82
15.02
16.22
17.42
18.55
19.48
20.09
20.37
20.37
20.19
19.92
19.59
19.15
18.52
17.60
16.37
14.85
13.13
11.34
9.60
7.95
6.46
5.11
3.91
2.79
1.65
0.36
-1.27
-3.33
-5.80
-8.52
-11.24
-13.77
-16.08
-18.36
-20.89
-23.93
-27.53
-31.46
-35.16
-37.96
-39.15
-38.27
-35.20
-30.24
-24.07
-17.51
-11.31
-5.91
-1.42
2.28
5.35
7.88
9.83
11.22
12.17
12.93
13.78
14.89
16.22
17.59
18.76
19.61
20.19
20.64
21.06
21.49
21.84
21.96
21.70
21.05
20.04
18.80
17.47
16.15
14.91
13.81
12.85
12.04
11.32
10.62
9.80
8.75
7.37
5.61
3.53
1.23
-1.13
-3.42
-5.56
-7.56
-9.47
-11.31
-13.12
-14.92
-16.80
-18.90
-21.40
-24.39
-27.75
-31.05
-33.63
-34.81
-34.10
-31.42
-27.16
-22.01
-16.77
-12.06
-8.20
-5.13
-2.61
-0.31
1.97
4.27
6.47
8.39
9.92
11.09
12.03
12.93
13.93
15.03
16.12
17.08
17.79
18.27
18.59
18.80
18.84
18.60
17.91
16.71
15.06
13.16
11.22
9.46
7.96
6.68
5.48
4.15
2.53
0.56
-1.71
-4.09
-6.37
-8.43
-10.28
-12.05
-13.97
-16.25
-18.99
-22.17
-25.54
-28.72
-31.18
-32.36
-31.87
-29.62
-25.84
-21.00
-15.64
-10.22
-5.03
-0.25
4.00
7.65
10.63
12.96
14.77
16.17
17.28
18.15
18.78
19.22
19.56
19.88
20.28
20.71
21.07
21.20
20.99
20.44
19.65
18.75
17.87
17.07
16.31
15.53
14.66
13.70
12.67
11.59
10.45
9.17
7.68
5.94
3.97
1.88
-0.21
-2.21
-4.12
-6.01
-8.00
-10.15
-12.45
-14.84
-17.21
-19.55
-21.94
-24.61
-27.76
-31.44
-35.37
-38.95
-41.37
-41.93
-40.27
-36.52
-31.33
-25.57
-20.04
-15.18
-11.03
-7.33
-3.72
-0.03
3.63
6.96
9.65
11.57
12.86
13.81
14.68
15.61
16.56
17.49
18.39
19.37
20.51
21.78
23.00
23.90
24.25
23.98
23.27
22.38
21.54
20.83
20.20
19.56
18.87
18.17
17.50
16.87
16.20
15.29
13.98
12.18
9.95
7.50
5.07
2.84
0.85
-1.01
-2.93
-5.02
-7.31
-9.67
-11.96
-14.04
-15.95
-17.80
-19.77
-22.03
-24.69
-27.78
-31.18
-34.66
-37.82
-40.12
-41.01
-40.06
-37.19
-32.67
-27.11
-21.21
-15.62
-10.73
-6.70
-3.41
-0.61
1.96
4.55
7.20
9.81
12.12
13.92
15.09
15.75
16.21
16.77
17.60
18.65
19.73
20.62
21.16
21.35
21.26
20.96
20.46
19.68
18.51
16.93
15.00
12.91
10.87
9.07
7.59
6.36
5.19
3.83
2.13
0.06
-2.22
-4.53
-6.67
-8.62
-10.51
-12.53
-14.85
-17.51
-20.44
-23.41
-26.11
-28.13
-29.02
-28.40
-26.12
-22.35
-17.53
-12.30
-7.22
-2.64
1.32
4.72
7.63
10.05
11.93
13.23
13.98
14.36
14.62
14.97
15.55
16.38
17.38
18.41
19.35
20.12
20.59
20.70
20.37
19.52
18.17
16.41
14.36
12.16
9.87
7.50
5.03
2.41
-0.33
-3.07
-5.66
-7.96
-9.90
-11.50
-12.93
-14.43
-16.30
-18.79
-21.98
-25.79
-29.88
-33.69
-36.57
-37.89
-37.21
-34.47
-30.04
-24.59
-18.94
-13.75
-9.34
-5.63
-2.32
0.94
4.30
7.65
10.66
13.07
14.77
15.92
16.82
17.74
18.79
19.92
20.94
21.72
22.24
22.60
22.90
23.14
23.19
22.85
22.04
20.78
19.31
17.82
16.47
15.24
14.03
12.74
11.32
9.80
8.19
6.43
4.41
2.03
-0.71
-3.63
-6.48
-9.01
-11.10
-12.83
-14.43
-16.23
-18.51
-21.43
-24.99
-28.99
-33.01
-36.48
-38.77
-39.30
-37.74
-34.08
-28.78
-22.59
-16.39
-10.89
-6.46
-3.04
-0.23
2.44
5.28
8.34
11.43
14.23
16.57
18.44
19.97
21.37
22.72
23.98
25.00
25.68
26.03
26.17
26.28
26.44
26.62
26.61
26.20
25.23
23.69
21.71
19.51
17.35
15.40
13.75
12.36
11.12
9.90
8.59
7.14
5.53
3.74
1.76
-0.42
-2.79
-5.24
-7.62
-9.76
-11.64
-13.38
-15.26
-17.60
-20.64
-24.37
-28.55
-32.67
-36.10
-38.21
-38.51
-36.81
-33.27
-28.37
-22.77
-17.16
-12.05
-7.69
-4.07
-1.02
1.66
4.11
6.36
8.36
10.03
11.40
12.58
13.73
14.96
16.25
17.47
18.48
19.20
19.69
20.07
20.40
20.58
20.43
19.74
18.48
16.80
14.98
13.23
11.61
9.98
8.15
5.99
3.52
0.93
-1.57
-3.84
-5.91
-7.95
-10.20
-12.83
-15.95
-19.51
-23.41
-27.41
-31.20
-34.34
-36.24
-36.36
-34.29
-30.05
-24.12
-17.43
-10.96
-5.51
-1.36
1.68
4.10
6.38
8.70
10.99
13.04
14.68
15.98
17.08
18.15
19.23
20.20
20.91
21.31
21.51
21.70
22.08
22.62
23.21
23.62
23.68
23.28
22.39
20.98
19.06
16.70
14.05
11.38
8.93
6.80
4.93
3.08
1.01
-1.44
-4.22
-7.18
-10.12
-12.91
-15.48
-17.86
-20.09
-22.30
-24.70
-27.53
-30.98
-35.04
-39.34
-43.17
-45.63
-45.96
-43.75
-39.18
-32.91
-25.88
-19.01
-12.91
-7.79
-3.49
0.28
3.82
7.24
10.47
13.36
15.77
17.66
19.13
20.38
21.56
22.77
24.01
25.21
26.26
27.13
27.84
28.42
28.88
29.18
29.25
29.00
28.42
27.56
26.48
25.29
23.97
22.47
20.66
18.48
15.92
13.08
10.17
7.42
5.03
3.09
1.52
0.13
-1.40
-3.33
-5.80
-8.70
-11.73
-14.54
-16.90
-18.84
-20.60
-22.59
-25.13
-28.33
-32.00
-35.69
-38.78
-40.69
-40.95
-39.33
-35.96
-31.22
-25.69
-19.95
-14.52
-9.66
-5.47
-1.89
1.19
3.88
6.25
8.40
10.39
12.28
14.09
15.81
17.38
18.73
19.83
20.72
21.46
22.16
22.92
23.71
24.41
24.77
24.52
23.50
21.70
19.30
16.56
13.83
11.29
8.95
6.69
4.31
1.71
-1.06
-3.86
-6.49
-8.83
-10.88
-12.76
-14.70
-16.93
-19.66
-22.95
-26.65
-30.38
-33.50
-35.28
-35.08
-32.59
-28.01
-21.96
-15.33
-8.97
-3.49
0.89
4.24
6.80
8.81
10.40
11.63
12.55
13.24
13.82
14.42
15.12
15.85
16.50
16.96
17.17
17.17
17.09
17.02
16.94
16.65
15.89
14.42
12.21
9.47
6.60
3.99
1.83
0.05
-1.68
-3.75
-6.41
-9.70
-13.43
-17.28
-21.00
-24.51
-27.94
-31.57
-35.69
-40.51
-46.07
-52.17
-58.50
-64.68
-70.38
-75.28
-79.18
-81.91
-83.40
-83.65
-82.81
-81.18
-79.16
-77.20
-75.72
-75.03
-75.33
-76.82
-79.63
-83.72
-88.48
-92.60
-94.01
-90.47
-80.29
-63.19
-40.54
-15.12
9.86
31.80
49.40
62.78
73.00
81.20
87.89
92.82
95.22
94.45
90.47
83.93
75.89
67.21
58.24
48.85
38.90
28.65
19.00
11.16
5.98
3.48
2.81
2.67
1.94
0.17
-2.39
-5.16
-7.63
-9.77
-12.05
-15.16
-19.75
-25.97
-33.25
-40.37
-45.63
-47.45
-44.81
-37.71
-27.15
-14.82
-2.53
8.38
17.31
24.45
30.39
35.85
41.27
46.83
52.40
57.72
62.43
66.19
68.71
69.81
69.46
67.79
65.15
62.00
58.80
55.83
53.12
50.36
47.04
42.58
36.61
29.12
20.52
11.48
2.78
-5.02
-11.62
-17.09
-21.63
-25.49
-28.87
-31.91
-34.72
-37.41
-40.22
-43.38
-47.10
-51.46
-56.27
-61.03
-65.05
-67.50
-67.66
-65.09
-59.79
-52.19
-43.01
-33.13
-23.28
-13.97
-5.44
2.31
9.36
15.70
21.20
25.66
28.92
31.01
32.24
33.11
34.09
35.47
37.15
38.73
39.69
39.58
38.26
35.94
33.05
30.06
27.34
24.94
22.69
20.29
17.51
14.29
10.76
7.20
3.89
1.09
-1.03
-2.45
-3.25
-3.71
-4.27
-5.55
-8.07
-12.03
-17.08
-22.22
-26.07
-27.25
-24.92
-18.97
-10.19
0.15
10.67
20.29
28.42
34.89
39.82
43.34
45.61
46.71
46.79
46.10
44.95
43.71
42.65
41.95
41.62
41.51
41.34
40.81
39.62
37.64
34.91
31.60
27.97
24.30
20.75
17.38
14.12
10.87
7.53
4.03
0.44
-3.13
-6.54
-9.69
-12.58
-15.35
-18.24
-21.53
-25.45
-30.03
-35.14
-40.35
-45.03
-48.35
-49.54
-48.03
-43.66
-36.81
-28.29
-19.12
-10.26
-2.31
4.57
10.55
15.95
20.96
25.56
29.57
32.79
35.16
36.89
38.27
39.61
41.05
42.52
43.79
44.62
44.86
44.50
43.66
42.48
41.01
39.18
36.81
33.72
29.81
25.19
20.17
15.14
10.46
6.31
2.65
-0.74
-4.10
-7.52
-10.93
-14.10
-16.78
-18.85
-20.33
-21.48
-22.66
-24.25
-26.61
-29.90
-34.09
-38.80
-43.36
-46.83
-48.27
-47.00
-42.82
-36.14
-27.88
-19.12
-10.84
-3.63
2.35
7.25
11.38
15.02
18.35
21.44
24.30
26.87
29.09
30.91
32.32
33.39
34.24
35.00
35.75
36.47
37.02
37.23
37.00
36.27
35.01
33.21
30.80
27.78
24.26
20.51
16.95
13.91
11.48
9.40
7.22
4.49
1.06
-2.89
-6.91
-10.52
-13.45
-15.78
-17.94
-20.51
-23.97
-28.53
-33.96
-39.58
-44.39
-47.30
-47.50
-44.63
-38.98
-31.32
-22.68
-14.03
-6.06
0.94
6.98
12.23
16.89
21.03
24.61
27.54
29.78
31.40
32.60
33.61
34.58
35.61
36.68
37.74
38.74
39.65
40.38
40.84
40.89
40.43
39.38
37.74
35.57
33.03
30.30
27.64
25.24
23.17
21.31
19.40
17.17
14.47
11.34
8.02
4.76
1.66
-1.39
-4.66
-8.40
-12.69
-17.38
-22.20
-26.90
-31.35
-35.56
-39.69
-43.90
-48.30
-52.92
-57.74
-62.62
-67.26
-71.16
-73.64
-73.96
-71.55
-66.27
-58.53
-49.19
-39.40
-30.17
-22.11
-15.33
-9.54
-4.26
0.87
5.92
10.71
14.99
18.55
21.41
23.68
25.56
27.18
28.60
29.84
30.92
31.90
32.85
33.78
34.63
35.26
35.48
35.12
34.15
32.65
30.88
29.10
27.52
26.18
24.92
23.47
21.61
19.27
16.58
13.76
11.03
8.54
6.31
4.32
2.45
0.51
-1.73
-4.50
-7.95
-11.98
-16.30
-20.52
-24.33
-27.65
-30.69
-33.87
-37.60
-42.11
-47.30
-52.71
-57.57
-60.95
-61.99
-60.13
-55.36
-48.17
-39.52
-30.54
-22.19
-15.04
-9.19
-4.35
-0.11
3.81
7.52
10.92
13.84
16.22
18.11
19.66
21.00
22.23
23.31
24.22
24.90
25.34
25.56
25.57
25.40
25.03
24.41
23.43
21.98
20.00
17.53
14.81
12.11
9.74
7.82
6.27
4.87
3.35
1.49
-0.74
-3.29
-6.10
-9.05
-12.09
-15.12
-18.07
-20.92
-23.72
-26.65
-29.91
-33.67
-37.92
-42.39
-46.55
-49.65
-50.97
-49.92
-46.24
-40.15
-32.26
-23.49
-14.85
-7.16
-0.87
3.98
7.65
10.53
12.95
15.04
16.84
18.33
19.58
20.72
21.90
23.17
24.49
25.75
26.78
27.52
27.94
28.09
27.97
27.51
26.60
25.11
22.96
20.15
16.84
13.29
9.87
6.93
4.65
3.01
1.76
0.48
-1.20
-3.52
-6.49
-9.92
-13.54
-17.07
-20.34
-23.31
-26.06
-28.74
-31.58
-34.83
-38.70
-43.22
-48.19
-53.07
-57.08
-59.32
-59.06
-55.96
-50.19
-42.45
-33.72
-25.04
-17.21
-10.58
-5.08
-0.35
4.05
8.36
12.56
16.41
19.61
22.00
23.65
24.83
25.86
26.92
28.04
29.11
30.01
30.72
31.33
31.96
32.60
33.05
32.96
32.04
30.20
27.68
24.86
22.17
19.81
17.76
15.82
13.77
11.47
8.94
6.30
3.70
1.27
-0.92
-2.90
-4.79
-6.79
-9.09
-11.82
-14.91
-18.12
-21.18
-23.96
-26.52
-29.15
-32.24
-36.06
-40.64
-45.71
-50.73
-54.97
-57.68
-58.17
-56.02
-51.20
-44.13
-35.63
-26.72
-18.35
-11.14
-5.29
-0.60
3.35
7.01
10.66
14.38
18.04
21.39
24.24
26.47
28.12
29.31
30.21
30.95
31.63
32.29
32.97
33.69
34.40
34.99
35.23
34.88
33.75
31.86
29.41
26.77
24.33
22.36
20.88
19.71
18.54
17.00
14.88
12.24
9.33
6.49
4.02
1.99
0.23
-1.58
-3.76
-6.51
-9.81
-13.46
-17.18
-20.73
-23.97
-26.94
-29.81
-32.81
-36.12
-39.83
-43.82
-47.79
-51.23
-53.58
-54.28
-52.90
-49.26
-43.54
-36.25
-28.21
-20.29
-13.26
-7.55
-3.18
0.15
2.86
5.29
7.63
9.87
11.89
13.61
15.03
16.29
17.55
18.92
20.35
21.67
22.66
23.20
23.32
23.18
22.97
22.69
22.21
21.28
19.71
17.53
14.96
12.36
9.99
7.97
6.19
4.47
2.61
0.52
-1.80
-4.29
-6.91
-9.58
-12.27
-14.94
-17.58
-20.27
-23.17
-26.51
-30.50
-35.19
-40.34
-45.37
-49.45
-51.68
-51.39
-48.33
-42.72
-35.27
-26.89
-18.47
-10.70
-3.91
1.88
6.90
11.40
15.55
19.34
22.62
25.22
27.11
28.42
29.43
30.46
31.65
33.00
34.32
35.43
36.14
36.43
36.32
35.83
34.94
33.57
31.65
29.22
26.41
23.47
20.62
18.04
15.73
13.59
11.50
9.40
7.29
5.24
3.31
1.46
-0.40
-2.40
-4.63
-7.11
-9.84
-12.82
-16.04
-19.48
-23.10
-26.79
-30.48
-34.17
-38.03
-42.28
-47.08
-52.30
-57.41
-61.60
-63.93
-63.72
-60.71
-55.18
-47.81
-39.49
-31.05
-23.11
-16.01
-9.80
-4.35
0.55
5.10
9.42
13.51
17.31
20.77
