1553888264.00
64.000000
-0.00
-0.00
-0.00
-0.00
-0.00
-0.00
-0.00
-0.00
-0.00
-0.00
0.00
0.01
0.01
-0.00
-0.03
-0.05
-0.05
0.00
0.13
0.36
0.66
1.01
1.37
1.72
2.06
2.40
2.79
3.24
3.80
4.42
5.06
5.66
6.20
6.68
7.15
7.68
8.31
9.14
10.09
11.04
11.88
12.56
13.14
13.76
14.65
15.96
17.91
20.32
22.90
25.38
27.58
29.57
31.68
34.32
37.81
42.54
48.15
54.10
59.83
64.97
69.58
74.14
79.34
85.71
93.76
103.00
112.62
121.73
129.77
136.75
143.30
150.75
157.77
166.64
177.95
191.79
206.97
220.57
228.25
225.36
208.53
176.87
132.76
80.05
23.07
-34.94
-92.44
-149.16
-205.23
-260.37
-313.74
-363.88
-409.84
-450.91
-486.50
-515.73
-537.22
-549.20
-549.93
-538.32
-514.14
-478.58
-433.77
-382.31
-326.86
-269.66
-212.44
-156.45
-102.73
-52.15
-5.67
35.81
71.66
101.59
125.75
144.64
158.96
169.44
176.68
181.09
182.95
182.48
179.97
175.76
170.26
163.87
156.95
149.74
142.38
134.93
127.44
119.96
112.54
105.25
98.17
91.32
84.74
78.42
72.39
66.65
61.24
56.17
51.46
47.08
43.02
39.26
35.76
32.53
29.59
26.98
24.71
22.78
21.16
19.79
18.57
17.41
16.22
14.90
13.37
11.57
9.47
7.03
4.26
1.20
-1.98
-5.01
-7.52
-9.10
-9.38
-8.16
-5.45
-1.46
3.35
8.61
14.01
19.40
24.77
30.14
35.46
40.57
45.16
48.77
51.25
52.55
52.84
52.35
51.29
49.52
46.77
42.51
35.97
26.84
15.01
0.65
-15.67
-32.96
-49.73
-64.35
-74.88
-81.55
-85.61
-89.29
-94.59
-102.27
-111.16
-118.71
-122.61
-121.03
-114.61
-104.46
-92.32
-79.30
-65.42
-49.80
-31.59
-10.92
11.37
32.42
49.67
60.99
65.22
61.75
50.61
32.61
9.91
-13.48
-32.41
-41.86
-39.33
-25.71
-6.46
11.45
22.36
23.94
17.53
6.56
-5.30
-15.82
-24.48
-31.66
-37.61
-42.29
-45.62
-47.85
-49.57
-51.30
-53.04
-54.03
-52.92
-48.30
-39.44
-26.60
-10.63
7.31
26.21
45.51
65.11
85.27
106.59
129.57
153.91
176.73
193.98
200.24
190.81
164.20
123.82
77.35
34.07
1.26
-18.31
-26.38
-27.55
-26.21
-24.71
-23.25
-21.12
-18.15
-15.27
-13.94
-15.00
-18.13
-21.83
-24.22
-23.95
-20.99
-16.56
-12.57
-10.65
-11.37
-14.09
-17.23
-19.01
-18.35
-15.32
-11.13
-7.53
-5.98
-6.90
-9.59
-12.49
-13.93
-12.91
-9.67
-5.45
-2.08
-1.01
-2.66
-6.17
-9.76
-11.70
-10.85
-7.35
-2.40
2.22
4.71
3.68
-1.65
-11.04
-22.67
-32.87
-37.02
-31.22
-14.59
9.72
35.23
54.63
62.99
59.73
48.45
34.05
21.25
11.51
3.34
-5.58
-16.17
-27.14
-35.78
-39.51
-37.56
-31.01
-21.83
-11.89
-2.22
6.15
11.58
12.02
6.36
-3.94
-14.33
-18.96
-13.71
1.45
21.98
41.01
52.78
55.29
50.45
41.84
33.02
25.08
17.10
7.96
-2.11
-11.34
-17.45
-19.19
-16.84
-12.21
-7.94
-5.94
-6.85
-9.82
-13.14
-15.07
-14.66
-12.03
-8.24
-4.82
-2.95
-3.03
-4.55
-6.48
-7.75
-7.72
-6.40
-4.35
-2.43
-1.33
-1.30
-2.09
-3.15
-3.87
-3.85
-3.04
-1.75
-0.50
0.23
0.19
-0.56
-1.62
-2.47
-2.67
-2.01
-0.72
0.65
1.45
1.18
-0.21
-2.25
-4.09
-4.90
-4.25
-2.40
-0.25
1.00
0.42
-2.14
-5.94
-9.53
-11.50
-11.10
-8.71
-5.74
-3.86
-4.47
-7.93
-13.39
-19.28
-23.68
-24.78
-20.99
-11.45
3.28
20.39
34.76
40.42
32.77
11.10
-20.33
-53.37
-79.15
-91.63
-89.36
-75.68
-56.13
-35.58
-16.62
0.21
15.07
27.53
36.47
40.78
40.33
36.37
31.09
26.86
25.05
25.65
27.48
28.86
28.45
25.78
21.49
16.91
13.39
11.72
11.81
12.85
13.75
13.63
12.19
9.76
7.10
4.97
3.82
3.64
4.02
4.41
4.38
3.76
2.69
1.48
0.49
-0.10
-0.28
-0.19
-0.05
0.00
-0.12
-0.39
-0.73
-1.05
-1.31
-1.48
-1.58
-1.63
-1.64
-1.64
-1.61
-1.57
-1.52
-1.47
-1.41
-1.35
-1.30
-1.25
-1.20
-1.16
-1.11
-1.07
-1.03
-0.99
-0.96
-0.93
-0.91
-0.87
-0.82
-0.76
-0.69
-0.67
-0.70
-0.84
-1.03
-1.23
-1.36
-1.37
-1.25
-1.09
-0.97
-0.99
-1.18
-1.48
-1.76
-1.87
-1.73
-1.38
-0.96
-0.71
-0.83
-1.37
-2.22
-3.06
-3.52
-3.38
-2.67
-1.74
-1.12
-1.32
-2.50
-4.39
-6.29
-7.39
-7.17
-5.73
-3.87
-2.73
-3.36
-6.04
-10.12
-14.08
-16.26
-15.66
-12.54
-8.55
-6.01
-6.86
-11.63
-18.99
-26.09
-29.95
-28.92
-23.47
-16.31
-11.08
-10.67
-15.88
-25.45
-36.62
-46.16
-51.17
-49.24
-38.55
-18.65
8.62
38.37
63.61
78.25
80.16
72.83
63.78
60.22
64.98
74.77
81.84
78.43
61.11
32.80
1.61
-22.50
-31.73
-23.26
-0.27
29.11
54.70
67.94
64.84
47.17
21.42
-4.95
-26.90
-43.37
-56.08
-66.28
-72.35
-70.49
-57.43
-33.84
-6.04
16.21
24.08
14.18
-8.97
-34.65
-50.64
-48.40
-26.78
7.60
43.52
69.92
80.15
73.28
53.40
26.70
-0.85
-24.81
-42.46
-51.79
-51.21
-40.27
-20.92
1.95
21.76
32.93
33.51
25.90
15.20
6.02
-0.02
-4.56
-10.35
-18.66
-27.97
-34.69
-35.51
-29.15
-17.01
-2.23
12.33
25.11
35.53
43.09
46.81
45.63
39.53
29.94
19.16
9.37
1.74
-3.94
-8.35
-11.73
-13.52
-12.78
-9.19
-4.05
-0.21
-1.27
-10.21
-27.25
-48.93
-68.79
-79.63
-76.44
-58.87
-31.32
-1.15
24.04
39.37
43.71
38.96
28.32
14.67
-0.20
-15.71
-29.56
-39.59
-44.57
-44.80
-42.02
-38.88
-38.03
-41.42
-50.04
-63.53
-80.24
-96.87
-108.84
-111.47
-101.54
-78.56
-44.90
-4.66
38.00
79.89
119.23
154.92
185.67
209.84
226.32
235.78
241.22
247.22
257.74
274.32
295.24
316.35
333.12
342.51
343.84
338.38
328.09
314.21
296.92
275.55
249.14
216.92
178.39
133.25
81.36
23.14
-40.02
-105.41
-169.09
-226.58
-273.75
-307.84
-328.06
-335.78
-333.89
-325.79
-314.34
-301.14
-286.42
-269.49
-249.41
-225.47
-197.68
-166.92
-135.10
-104.87
-78.98
-59.22
-45.58
-35.96
-26.69
-13.97
4.52
28.81
57.00
86.30
114.19
138.86
159.00
173.32
180.42
179.35
170.36
155.15
136.40
116.68
97.58
79.33
61.32
42.66
22.57
0.25
-25.55
-56.87
-96.27
-145.63
-204.46
-268.57
-330.02
-378.91
-406.39
-407.80
-384.17
-341.60
-288.76
-233.84
-182.53
-137.62
-99.94
-69.68
-47.08
-32.13
-23.88
-20.19
-18.02
-14.37
-7.19
4.12
18.67
34.26
48.06
57.41
60.65
57.84
50.77
42.55
36.53
35.13
39.06
47.23
57.32
66.78
73.70
77.24
77.52
75.09
70.43
63.87
55.80
47.09
39.38
34.81
35.40
42.09
54.28
69.74
85.37
98.26
106.74
110.97
112.65
114.16
117.32
122.61
128.93
134.33
137.01
136.19
132.36
127.09
122.41
120.27
121.99
127.71
135.82
142.67
142.79
130.15
100.48
53.77
-4.16
-62.21
-107.05
-127.73
-120.01
-88.13
-43.47
-0.17
30.03
41.30
34.32
14.04
-13.92
-46.00
-81.29
-120.15
-162.66
-207.79
-253.78
-298.92
-341.58
-379.37
-408.07
-421.67
-414.30
-383.26
-331.44
-267.30
-202.31
-146.75
-106.30
-81.02
-66.94
-58.87
-52.54
-44.99
-33.71
-15.69
12.05
50.89
98.41
147.71
188.70
211.59
210.75
187.18
148.35
105.62
70.12
49.09
44.00
50.77
61.97
69.70
68.12
54.96
31.56
1.76
-29.78
-58.84
-82.49
-98.96
-107.53
-108.40
-102.76
-93.01
-82.44
-74.19
-69.68
-67.58
-64.04
-54.37
-35.63
-8.41
23.01
52.33
73.96
85.28
87.30
83.73
79.02
76.53
77.59
81.72
87.48
93.41
98.69
103.18
107.12
110.68
113.48
114.43
111.99
105.14
93.95
80.33
67.52
58.68
55.30
56.45
59.32
60.81
58.86
52.82
42.92
29.27
11.41
-11.31
-38.48
-67.70
-94.72
-114.83
-124.97
-124.41
-114.57
-98.11
-78.12
-57.74
-40.13
-28.34
-24.80
-31.24
-47.18
-69.29
-92.16
-109.86
-117.29
-111.77
-93.12
-63.64
-29.06
4.51
32.94
54.77
70.17
80.43
86.01
87.09
83.43
72.45
52.62
25.76
-3.72
-31.41
-53.48
-68.70
-76.53
-76.95
-73.44
-69.79
-67.52
-66.71
-68.18
-72.88
-82.96
-98.82
-99.65
-74.03
-29.32
16.16
49.12
59.81
55.63
43.07
28.24
16.08
11.63
15.75
27.95
46.15
65.99
83.34
93.92
96.35
91.72
80.01
61.61
39.43
18.05
1.41
-7.94
-10.96
-10.08
-8.08
-8.40
-13.20
-21.55
-30.59
-37.92
-42.22
-44.49
-46.27
-48.80
-53.22
-59.83
-67.62
-74.99
-80.93
-84.96
-87.27
-87.58
-84.79
-77.36
-63.59
-41.67
-9.70
34.16
91.36
161.54
241.01
321.68
391.82
439.15
455.22
438.94
397.13
341.80
285.33
236.17
197.08
166.18
139.97
116.06
94.21
75.47
60.60
48.87
38.08
25.53
9.38
-10.55
-32.63
-54.04
-72.04
-84.18
-89.62
-88.74
-82.39
-71.19
-55.31
-35.12
-12.23
9.67
26.09
32.50
26.42
8.58
-17.52
-46.88
-74.55
-96.34
-109.49
-110.52
-97.78
-71.84
-36.46
1.63
34.77
57.13
66.81
64.38
56.58
48.35
42.63
39.23
35.16
26.08
8.57
-17.73
-52.27
-83.31
-101.30
-98.64
-73.10
-29.69
20.75
65.31
93.91
97.37
84.82
63.65
41.78
24.40
12.63
4.51
-3.09
-12.46
-31.31
-51.27
-71.84
-93.17
-116.01
-141.02
-167.75
-194.52
-174.28
-162.08
-147.78
-132.27
-118.67
-111.25
-113.59
-126.39
-146.21
-166.07
-185.04
-189.79
-180.08
-160.72
-139.11
-121.54
-110.52
-104.38
-99.04
-95.75
-85.54
-66.66
-37.65
2.80
54.53
114.03
173.60
222.75
248.27
248.37
223.67
180.34
127.31
72.95
22.96
-20.13
-55.97
-86.34
-108.71
-121.15
-120.72
-104.39
-70.25
-18.95
45.06
113.41
174.42
217.68
235.20
224.63
189.80
139.52
84.74
35.57
-0.96
-21.70
-27.07
-20.08
-5.43
11.12
23.77
28.15
23.02
11.21
-1.27
-7.94
-4.90
7.03
22.79
35.76
41.40
39.57
34.57
32.47
37.72
50.71
67.79
83.27
92.31
92.98
86.35
75.24
62.23
48.36
33.11
15.33
-5.35
-27.62
-48.97
-66.73
-79.23
-86.32
-88.72
-87.23
-82.10
-73.18
-60.61
-45.66
-30.84
-19.56
-15.01
-19.10
-31.75
-50.93
-73.38
-95.70
-115.31
-130.93
-142.11
-148.53
-149.21
-142.49
-126.87
-102.07
-69.92
-34.38
-0.43
27.37
46.17
55.40
56.37
51.51
43.48
34.51
26.25
19.88
16.27
15.95
19.02
24.83
31.95
38.40
42.21
42.22
38.59
32.68
26.39
21.20
17.50
14.40
10.26
3.59
-5.99
-17.53
-29.01
-38.22
-43.51
-44.20
-40.57
-33.80
-25.94
-19.91
-19.02
-25.82
-40.70
-60.97
-81.41
-96.08
-100.83
-95.11
-81.95
-66.33
-52.67
-43.09
-37.22
-33.28
-29.66
-25.75
-21.86
-18.44
-15.48
-12.43
-8.60
-3.79
1.46
5.96
8.57
8.67
6.68
3.88
1.93
2.07
4.57
8.47
11.93
12.95
10.18
3.50
-5.95
-16.13
-24.97
-31.03
-33.94
-34.27
-33.04
-31.11
-28.69
-25.30
-20.01
-11.98
-0.86
12.94
28.53
44.82
60.82
75.83
89.37
101.09
110.68
117.88
122.57
124.71
124.37
121.68
116.79
109.87
101.10
90.61
78.52
65.07
50.68
36.12
22.40
10.58
1.59
-4.10
-6.42
-5.58
-2.13
3.10
8.82
13.34
14.83
11.83
3.71
-9.03
-24.77
-41.02
-54.96
-64.23
-67.62
-65.56
-59.83
-52.80
-46.35
-41.13
-36.51
-31.26
-24.31
-15.47
-5.34
5.17
15.37
24.82
33.10
39.15
41.13
36.92
25.21
6.79
-14.85
-34.08
-44.75
-42.39
-26.11
0.84
32.12
60.30
79.20
85.42
78.61
60.84
35.59
6.90
-21.17
-44.93
-61.49
-69.27
-68.36
-60.39
-47.99
-34.03
-20.80
-9.66
-1.05
5.17
9.34
11.70
12.42
11.66
9.73
7.17
4.54
2.35
0.83
-0.08
-0.64
-1.20
-2.02
-3.25
-4.91
-6.85
-8.83
-10.59
-11.86
-12.42
-12.21
-11.25
-9.76
-8.08
-6.60
-5.67
-5.47
-5.96
-6.87
-7.81
-8.47
-8.71
-8.67
-8.76
-9.39
-10.73
-12.37
-13.36
-12.49
-8.86
-2.43
5.87
14.30
21.09
25.04
25.93
24.40
21.50
18.12
14.75
11.53
8.62
6.32
5.15
5.60
7.73
11.05
14.59
17.21
18.05
16.79
13.77
9.67
5.15
0.71
-3.45
-7.16
-10.15
-11.87
-11.74
-9.42
-5.04
0.72
6.88
12.46
16.80
19.66
21.13
21.45
20.83
19.39
17.25
14.58
11.61
8.66
6.08
4.18
3.12
2.92
3.44
4.44
5.69
7.05
8.49
10.07
11.73
13.30
14.46
14.90
14.41
12.93
10.50
7.16
2.88
-2.32
-8.37
-14.95
-21.65
-27.97
-33.53
-38.08
-41.50
-43.80
-45.07
-45.49
-45.28
-44.65
-43.72
-42.42
-40.45
-37.55
-33.55
-28.53
-22.86
-17.03
-11.57
-6.89
-3.24
-0.70
0.80
1.47
1.55
1.40
1.34
1.61
2.39
3.61
5.12
6.55
7.56
7.93
7.65
6.91
5.97
5.03
4.16
3.35
2.62
2.06
1.84
2.02
2.48
2.92
3.01
2.67
2.06
1.58
1.59
2.18
3.04
3.66
3.55
2.37
0.17
-2.71
-5.75
-8.31
-9.88
-10.18
-9.20
-7.31
-5.01
-2.82
-1.11
0.02
0.67
1.05
1.34
1.71
2.26
3.12
4.28
5.68
7.08
8.22
8.90
9.08
8.89
8.49
8.06
7.65
7.25
6.80
6.32
5.82
5.32
4.75
3.99
2.90
1.43
-0.30
-2.10
-3.79
-5.27
-6.59
-7.88
-9.27
-10.77
-12.35
-13.99
-15.79
-17.84
-20.15
-22.46
-24.16
-24.59
-23.19
-19.84
-14.92
-9.13
-3.20
2.29
7.03
10.93
13.95
16.09
17.38
17.95
17.97
17.71
17.35
17.00
16.69
16.37
16.01
15.57
15.00
14.26
13.32
12.20
10.97
9.76
8.68
7.79
7.09
6.46
5.77
4.85
3.60
1.97
-0.02
-2.31
-4.76
-7.22
-9.47
-11.35
-12.70
-13.53
-13.99
-14.42
-15.20
-16.61
-18.72
-21.25
-23.69
-25.43
-25.89
-24.67
-21.61
-16.86
-10.84
-4.28
1.97
7.14
10.75
12.71
13.33
13.15
12.63
12.05
11.48
10.88
10.16
9.34
8.46
7.57
6.76
6.06
5.54
5.27
5.34
5.78
6.53
7.40
8.12
8.41
8.09
7.18
5.84
4.28
2.69
1.13
-0.39
-1.95
-3.55
-5.19
-6.94
-8.93
-11.32
-14.20
-17.28
-20.03
-21.65
-21.46
-19.14
-14.85
-9.24
-3.17
2.58
7.47
11.31
14.17
16.25
17.69
18.57
18.92
18.77
18.21
17.33
16.23
14.92
13.42
11.82
10.30
9.10
8.42
8.22
8.31
8.40
8.22
7.69
6.85
5.86
4.77
3.62
2.37
0.96
-0.58
-2.19
-3.79
-5.32
-6.77
-8.16
-9.62
-11.31
-13.40
-15.90
-18.55
-20.80
-21.90
-21.26
-18.53
-13.95
-8.12
-1.93
3.77
8.37
11.60
13.55
14.44
14.66
14.57
14.40
14.30
14.29
14.31
14.27
14.17
14.05
13.97
13.91
13.81
13.57
13.17
12.64
12.00
11.28
10.37
9.14
7.43
5.28
2.84
0.37
-1.89
-3.88
-5.59
-7.08
-8.33
-9.21
-9.66
-9.74
-9.70
-9.93
-10.73
-12.22
-14.32
-16.74
-19.09
-20.94
-21.84
-21.39
-19.27
-15.47
-10.25
-4.20
1.92
7.40
11.75
14.78
16.55
17.32
17.41
17.09
16.62
16.20
15.88
15.69
15.56
15.42
15.27
15.13
15.06
15.04
15.02
14.83
14.40
13.69
12.81
11.97
11.32
10.87
10.41
9.63
8.28
6.29
3.87
1.39
-0.79
-2.54
-3.99
-5.54
-7.55
-10.25
-13.49
-16.77
-19.51
-21.23
-21.79
-21.51
-20.99
-20.90
-21.72
-23.52
-25.94
-28.26
-29.65
-29.44
-27.22
-23.03
-17.27
-10.62
-3.88
2.20
7.04
10.31
11.95
12.18
11.42
10.19
8.94
8.02
7.54
7.50
7.78
8.26
8.80
9.27
9.55
9.64
9.65
9.84
10.43
11.50
12.86
14.13
14.93
15.03
14.43
13.30
11.83
10.13
8.21
6.10
3.90
1.74
-0.30
-2.26
-4.33
-6.74
-9.68
-13.20
-17.28
-21.71
-26.08
-29.76
-31.98
-32.03
-29.50
-24.61
-18.15
-11.30
-5.21
-0.68
2.08
3.43
4.03
4.60
5.65
7.40
9.77
12.44
15.00
17.18
18.78
19.79
20.25
20.25
19.89
19.26
18.46
17.65
16.91
16.27
15.64
14.86
13.80
12.42
10.81
9.14
7.54
6.02
4.42
2.52
0.17
-2.62
-5.64
-8.56
-11.10
-13.14
-14.83
-16.44
-18.26
-20.45
-22.99
-25.66
-28.08
-29.79
-30.24
-29.04
-25.93
-21.03
-14.81
-8.04
-1.49
4.23
8.81
12.20
14.46
15.67
15.92
15.35
14.23
12.91
11.75
10.93
10.43
10.10
9.78
9.44
9.18
9.19
9.58
10.34
11.31
12.26
12.97
13.28
13.14
12.60
11.76
10.76
9.73
8.71
7.70
6.61
5.38
3.96
2.41
0.72
-1.12
-3.19
-5.56
-8.18
-10.81
-13.08
-14.67
-15.48
-15.72
-15.87
-16.46
-17.86
-20.12
-22.98
-25.91
-28.33
-29.59
-29.17
-26.76
-22.35
-16.27
-9.14
-1.81
4.89
10.32
14.15
16.39
17.29
17.20
16.43
15.20
13.65
11.87
9.95
8.04
6.33
5.00
4.16
3.81
3.87
4.22
4.76
5.46
6.32
7.31
8.33
9.22
9.88
10.25
10.41
10.44
10.40
10.21
9.74
8.89
7.63
6.06
4.41
2.85
1.47
0.26
-0.96
-2.33
-3.93
-5.70
-7.46
-9.01
-10.31
-11.50
-12.85
-14.59
-16.70
-18.75
-20.12
-20.14
-18.41
-14.96
-10.19
-4.66
1.08
6.51
11.23
14.90
17.26
18.31
18.29
17.67
16.98
16.58
16.55
16.74
16.97
17.11
17.22
17.49
18.02
18.79
19.61
20.22
20.41
20.11
19.31
18.00
16.12
13.56
10.22
6.21
1.84
-2.43
-6.17
-9.11
-11.22
-12.64
-13.67
-14.53
-15.42
-16.38
-17.36
-18.31
-19.13
-19.79
-20.26
-20.62
-20.98
-21.46
-22.19
-23.28
-24.77
-26.64
-28.72
-30.61
-31.70
-31.27
-28.79
-24.14
-17.74
-10.46
-3.31
2.83
7.52
10.69
12.64
13.71
14.17
14.24
14.07
13.86
13.76
13.86
14.12
14.35
14.31
13.89
13.10
12.13
11.19
10.52
10.20
10.19
10.41
10.68
10.82
10.70
10.23
9.38
8.16
6.69
5.06
3.42
1.85
0.41
-0.85
-1.92
-2.78
-3.43
-3.92
-4.40
-5.07
-6.15
-7.73
-9.71
-11.79
-13.56
-14.71
-15.09
-14.84
-14.31
-13.88
-13.90
-14.59
-16.00
-18.04
-20.46
-22.82
-24.55
-24.96
-23.54
-20.16
-15.09
-9.04
-2.92
2.44
6.50
9.14
10.61
11.38
11.88
12.41
13.00
13.53
13.79
13.63
13.00
11.97
10.76
9.58
8.59
7.91
7.59
7.65
8.03
8.60
9.14
9.35
8.99
7.98
6.49
4.87
3.57
2.86
2.78
3.07
3.31
3.14
2.41
1.25
0.04
-0.86
-1.24
-1.20
-1.03
-1.16
-1.89
-3.28
-5.13
-7.14
-8.99
-10.44
-11.46
-12.18
-12.89
-13.92
-15.55
-17.87
-20.62
-23.29
-25.14
-25.47
-23.86
-20.30
-15.21
-9.26
-3.18
2.44
7.23
11.06
13.91
15.86
16.97
17.32
17.03
16.27
15.27
14.24
13.29
12.43
11.61
10.84
10.16
9.73
9.65
9.89
10.23
10.34
9.87
8.64
6.72
4.45
2.29
0.59
-0.45
-0.97
-1.29
-1.79
-2.78
-4.31
-6.20
-8.08
-9.64
-10.67
-11.19
-11.34
-11.36
-11.53
-12.13
-13.38
-15.36
-17.99
-20.81
-23.12
-24.12
-23.24
-20.33
-15.75
-10.29
-4.79
0.04
3.87
6.66
8.60
9.84
10.52
10.78
10.76
10.69
10.79
11.22
11.96
12.84
13.57
13.92
13.82
13.32
12.62
11.97
11.52
11.34
11.35
11.39
11.29
10.96
10.37
9.59
8.65
7.51
6.10
4.39
2.45
0.55
-1.01
-2.01
-2.51
-2.79
-3.29
-4.34
-5.99
-7.94
-9.75
-11.00
-11.52
-11.52
-11.37
-11.51
-12.24
-13.71
-15.96
-18.89
-22.20
-25.36
-27.60
-28.09
-26.23
-21.93
-15.70
-8.49
-1.40
4.68
9.27
12.29
13.99
14.74
14.92
14.87
14.83
14.97
15.32
15.76
16.16
16.37
16.33
16.08
15.75
15.43
15.21
15.04
14.85
14.61
14.31
13.99
13.69
13.32
12.73
11.74
10.28
8.40
6.34
4.38
2.77
1.58
0.75
0.09
-0.56
-1.35
-2.26
-3.20
-4.02
-4.62
-5.01
-5.37
-5.96
-6.98
-8.50
-10.31
-12.11
-13.60
-14.73
-15.67
-16.76
-18.35
-20.63
-23.56
-26.85
-30.00
-32.39
-33.29
-32.16
-28.76
-23.34
-16.61
-9.52
-2.97
2.46
6.58
9.56
11.68
13.23
14.37
15.16
15.63
15.87
15.93
15.87
15.78
15.64
15.44
15.08
14.45
13.46
12.12
10.59
9.16
8.17
7.81
8.00
8.27
7.98
6.63
4.08
0.71
-2.76
-5.63
-7.51
-8.49
-8.93
-9.20
-9.42
-9.40
-8.86
-7.70
-6.10
-4.53
-3.44
-3.09
-3.39
-4.03
-4.65
-5.06
-5.27
-5.38
-5.51
-5.73
-6.06
-6.62
-7.65
-9.42
-12.07
-15.42
-18.81
-21.28
-21.90
-20.04
-15.67
-9.41
-2.25
4.70
10.57
14.91
17.65
19.00
19.34
19.03
18.41
17.74
17.22
16.91
16.75
16.60
16.33
15.95
15.59
15.44
15.63
16.09
16.57
16.81
16.64
16.08
15.29
14.40
13.46
12.39
11.13
9.67
8.19
6.90
5.96
5.33
4.82
4.15
3.16
1.84
0.37
-1.04
-2.19
-2.99
-3.54
-4.02
-4.63
-5.52
-6.72
-8.15
-9.69
-11.22
-12.67
-14.10
-15.58
-17.30
-19.37
-21.87
-24.66
-27.42
-29.61
-30.62
-29.92
-27.26
-22.71
-16.71
-9.91
-3.11
3.03
7.96
11.44
13.49
14.36
14.37
13.93
13.31
12.69
12.11
11.60
11.15
10.82
10.70
10.80
11.06
11.36
11.57
11.74
11.95
12.37
13.02
13.78
14.30
14.26
13.46
11.99
10.22
8.61
7.50
7.01
6.97
7.05
6.94
6.43
5.49
4.21
2.74
1.25
-0.14
-1.35
-2.38
-3.25
-4.08
-4.98
-6.02
-7.30
-8.77
-10.37
-12.08
-13.92
-16.01
-18.43
-21.34
-24.70
-28.42
-32.22
-35.61
-37.88
-38.24
-36.05
-31.13
-23.89
-15.38
-6.91
0.24
5.37
8.41
9.86
10.40
10.58
10.64
10.59
10.34
9.89
9.44
9.15
9.18
9.49
9.95
10.45
11.00
11.72
12.73
14.07
15.57
16.99
18.04
18.48
18.16
17.08
15.37
13.27
11.11
9.22
7.85
7.06
6.64
6.28
5.69
4.74
3.51
2.20
1.01
0.02
-0.91
-2.11
-3.84
-6.18
-9.01
-11.93
-14.54
-16.55
-17.86
-18.67
-19.32
-20.22
-21.74
-24.04
-27.07
-30.45
-33.49
-35.30
-35.08
-32.35
-27.17
-20.11
-12.11
-4.11
3.06
8.89
13.13
15.78
17.01
17.15
16.64
15.92
15.39
15.23
15.48
16.01
16.66
17.28
17.77
18.13
18.32
18.31
18.04
17.44
16.55
15.59
14.77
14.30
14.18
14.20
14.01
13.30
11.97
10.17
8.25
6.56
5.36
4.60
4.07
3.46
2.49
1.13
-0.47
-2.00
-3.16
-3.81
-4.05
-4.17
-4.48
-5.21
-6.36
-7.80
-9.37
-10.97
-12.52
-13.94
-15.10
-15.89
-16.29
-16.53
-17.04
-18.24
-20.32
-22.93
-25.31
-26.46
-25.53
-22.17
-16.61
-9.57
-2.00
5.26
11.61
16.72
20.43
22.69
23.55
23.26
22.21
20.96
19.93
19.39
19.29
19.36
19.32
19.01
18.46
17.81
17.24
16.83
16.53
16.22
15.71
14.87
13.61
11.96
10.06
8.13
6.37
4.86
3.47
2.07
0.50
-1.28
-3.14
-4.95
-6.57
-7.96
-9.12
-10.01
-10.53
-10.58
-10.16
-9.37
-8.54
-7.99
-8.01
-8.76
-10.23
-12.33
-14.88
-17.66
-20.42
-22.93
-25.07
-26.90
-28.73
-30.92
-33.66
-36.71
-39.34
-40.52
-39.32
-35.35
-28.92
-20.97
-12.65
-5.01
1.42
6.45
10.19
12.71
14.08
14.41
13.95
13.11
12.38
12.10
12.35
12.93
13.48
13.67
13.39
12.73
11.99
11.47
11.40
11.88
12.84
14.12
15.45
16.52
17.07
16.94
16.19
15.04
13.82
12.77
12.01
11.39
10.69
9.65
8.19
6.39
4.43
2.54
0.83
-0.70
-2.12
-3.56
-5.09
-6.72
-8.43
-10.18
-11.94
-13.72
-15.51
-17.25
-18.91
-20.46
-22.00
-23.73
-25.86
-28.43
-31.26
-33.71
-34.94
-34.11
-30.75
-24.93
-17.30
-8.89
-0.81
6.04
11.12
14.34
15.96
16.45
16.46
16.56
17.10
18.14
19.42
20.56
21.22
21.24
20.75
20.08
19.56
19.43
19.68
20.11
20.41
20.30
19.64
18.47
16.98
15.35
13.70
11.98
10.07
7.94
5.66
3.51
1.75
0.52
-0.28
-0.94
-1.78
-2.95
-4.34
-5.62
-6.43
-6.65
-6.38
-5.96
-5.77
-6.02
-6.74
-7.83
-9.07
-10.37
-11.72
-13.16
-14.78
-16.59
-18.50
-20.43
-22.33
-24.32
-26.57
-29.08
-31.50
-33.10
-32.93
-30.23
-24.83
-17.33
-8.99
-1.20
4.98
9.14
11.44
12.46
12.83
13.04
13.33
13.76
14.24
14.61
14.76
14.67
14.43
14.23
14.24
14.56
15.15
15.87
16.52
16.94
17.05
16.86
16.38
15.66
14.74
13.68
12.55
11.48
10.66
10.22
10.19
10.42
10.59
10.32
9.30
7.42
4.85
1.97
-0.79
-3.12
-4.92
-6.33
-7.60
-9.00
-10.65
-12.57
-14.66
-16.78
-18.83
-20.79
-22.68
-24.57
-26.54
-28.71
-31.16
-33.84
-36.39
-38.15
-38.25
-35.96
-30.97
-23.61
-14.81
-5.87
2.07
8.23
12.41
14.91
16.23
16.97
17.59
18.34
19.30
20.38
21.31
21.85
21.77
21.03
19.75
18.21
16.67
15.36
14.31
13.38
12.36
11.03
9.29
7.15
4.70
2.07
-0.63
-3.31
-5.82
-7.95
-9.46
-10.15
-10.02
-9.28
-8.27
-7.36
-6.71
-6.28
-5.80
-5.01
-3.69
-1.85
0.34
2.69
5.06
7.39
9.70
11.95
13.93
15.25
15.41
14.01
10.83
5.94
-0.38
-7.61
-15.07
-22.00
-27.58
-31.06
-31.86
-29.73
-24.92
-18.13
-10.42
-2.94
3.34
7.88
10.64
11.98
12.36
12.19
11.70
10.96
10.06
9.15
8.52
8.36
8.71
9.36
9.98
10.29
10.23
10.02
9.94
10.23
10.85
11.54
11.92
11.69
10.72
9.15
7.20
5.12
3.12
1.34
-0.13
-1.30
-2.26
-3.19
-4.34
-5.86
-7.79
-10.02
-12.30
-14.42
-16.25
-17.81
-19.15
-20.42
-21.76
-23.31
-25.24
-27.65
-30.53
-33.53
-36.09
-37.37
-36.63
-33.42
-27.81
-20.36
-12.01
-3.75
3.65
9.69
14.24
17.37
19.27
20.24
20.57
20.59
20.55
20.59
20.74
20.89
20.90
20.63
20.05
19.16
18.13
17.15
16.54
16.47
17.02
17.96
18.83
19.08
18.29
16.42
13.81
11.05
8.63
6.81
5.47
4.25
2.79
0.88
-1.47
-4.00
-6.45
-8.57
-10.25
-11.52
-12.52
-13.44
-14.48
-15.68
-16.91
-17.94
-18.55
-18.69
-18.57
-18.63
-19.36
-21.15
-24.03
-27.69
-31.44
-34.29
-35.24
-33.53
-28.91
-21.77
-13.11
-4.20
3.85
10.26
14.85
17.78
19.41
20.12
20.20
19.92
19.53
19.28
19.32
19.65
20.12
20.52
20.71
20.75
20.87
21.37
22.47
24.18
26.30
28.40
30.05
30.91
30.83
29.87
28.21
26.09
23.71
21.15
18.39
15.36
12.03
8.44
4.78
1.35
-1.60
-3.91
-5.62
-6.98
-8.30
-9.88
-11.83
-14.10
-16.53
-18.96
-21.26
-23.41
-25.30
-26.86
-28.01
-28.83
-29.57
-30.66
-32.49
-35.13
-38.10
-40.43
-40.89
-38.52
-33.00
-24.91
-15.43
-5.94
2.43
9.09
14.00
17.46
19.87
21.52
22.55
23.05
23.05
22.58
21.73
20.60
19.33
18.03
16.81
15.64
14.51
13.37
12.28
11.38
10.82
10.63
10.63
10.51
9.87
8.50
6.46
4.03
1.66
-0.28
-1.63
-2.50
-3.17
-3.98
-5.14
-6.72
-8.61
-10.60
-12.49
-14.12
-15.44
-16.40
-17.00
-17.30
-17.52
-17.96
-19.03
-20.96
-23.65
-26.56
-28.81
-29.40
-27.55
-23.03
-16.21
-8.01
0.38
7.87
13.71
17.66
19.86
20.75
20.85
20.58
20.25
20.01
19.92
20.00
20.20
20.43
20.59
20.54
20.21
19.56
18.70
17.72
16.66
15.49
14.13
12.46
10.49
8.40
6.39
4.66
3.19
1.85
0.46
-1.01
-2.41
-3.43
-3.85
-3.68
-3.19
-2.80
-2.87
-3.56
-4.76
-6.26
-7.80
-9.26
-10.65
-12.13
-13.93
-16.27
-19.32
-23.08
-27.26
-31.24
-34.19
-35.13
-33.37
-28.72
-21.66
-13.22
-4.69
2.79
8.50
12.24
14.25
14.98
14.88
14.31
13.55
12.80
12.21
11.85
11.68
11.54
11.28
10.86
10.38
10.04
10.02
10.34
10.88
11.37
11.56
11.27
10.52
9.37
7.93
6.27
4.42
2.41
0.37
-1.60
-3.38
-4.99
-6.61
-8.42
-10.61
-13.17
-15.89
-18.37
-20.26
-21.41
-21.94
-22.31
-23.14
-24.93
-27.85
-31.54
-35.15
-37.54
-37.63
-34.79
-29.02
-21.03
-11.96
-3.13
4.42
10.11
13.89
16.17
17.52
18.48
19.43
20.53
21.74
22.97
24.08
24.93
25.38
25.31
24.65
23.39
21.65
19.68
17.82
16.38
15.55
15.28
15.26
15.12
14.46
13.11
11.12
8.76
6.33
4.05
2.00
0.20
-1.41
-2.85
-4.14
-5.35
-6.57
-7.89
-9.36
-10.96
-12.55
-14.00
-15.19
-16.11
-16.82
-17.38
-17.88
-18.35
-18.81
-19.28
-19.86
-20.69
-22.02
-24.09
-26.88
-30.08
-32.84
-34.06
-32.68
-28.18
-20.82
-11.60
-1.99
6.70
13.62
18.63
21.99
24.16
25.40
25.82
25.47
24.50
23.21
21.91
20.81
19.90
19.00
17.99
16.85
15.78
15.06
14.94
15.50
16.66
18.14
19.68
20.93
21.61
21.49
20.47
18.60
16.12
13.37
10.69
8.36
6.59
5.40
4.69
4.20
3.50
2.14
-0.14
-3.32
-7.00
-10.56
-13.45
-15.41
-16.60
-17.45
-18.44
-19.77
-21.31
-22.75
-23.77
-24.35
-24.74
-25.42
-26.72
-28.85
-31.68
-34.98
-38.38
-41.41
-43.54
-44.03
-42.17
-37.50
-30.07
-20.67
-10.57
-1.21
6.34
11.57
14.75
16.53
17.68
18.78
20.03
21.41
22.76
23.99
25.02
25.89
26.50
26.75
26.53
25.84
24.89
24.01
23.54
23.57
23.94
24.23
23.95
22.77
20.63
17.77
14.51
11.22
8.10
5.23
2.62
0.24
-1.90
-3.76
-5.29
-6.53
-7.58
-8.69
-10.14
-12.16
-14.81
-17.92
-21.09
-23.86
-25.87
-26.96
-27.27
-27.09
-26.84
-26.89
-27.56
-29.02
-31.20
-33.67
-35.54
-35.74
-33.30
-27.73
-19.32
-9.14
1.33
10.66
17.85
22.59
25.15
26.15
26.28
26.13
26.08
26.31
26.85
27.59
28.32
28.77
28.75
28.14
26.99
25.54
24.08
22.90
22.16
21.90
21.97
22.10
21.89
21.05
19.42
17.07
14.30
11.47
8.96
6.98
5.55
4.46
3.43
2.17
0.54
-1.39
-3.45
-5.39
-7.08
-8.54
-9.94
-11.45
-13.22
-15.23
-17.34
-19.38
-21.17
-22.62
-23.72
-24.62
-25.55
-26.83
-28.76
-31.49
-34.80
-38.14
-40.64
-41.28
-39.25
-34.19
-26.41
-16.83
-6.82
2.26
9.40
14.22
16.98
18.29
18.88
19.23
19.57
19.92
20.24
20.48
20.61
20.59
20.37
19.91
19.26
18.54
17.93
17.55
17.45
17.59
17.81
17.88
17.50
16.42
14.56
12.02
9.09
6.17
3.63
1.66
0.24
-0.84
-1.87
-3.19
-4.99
-7.35
-10.16
-13.18
-16.15
-18.82
-21.13
-23.14
-25.01
-26.93
-29.01
-31.30
-33.78
-36.29
-38.51
-39.81
-39.42
-36.57
-30.95
-22.80
-13.08
-3.03
6.11
13.52
18.90
22.39
24.38
25.28
25.46
25.25
24.92
24.68
24.58
24.51
24.25
23.62
22.58
21.27
20.00
19.06
18.65
18.76
19.18
19.59
19.60
18.90
17.33
14.95
11.99
8.80
5.68
2.89
0.52
-1.43
-3.05
-4.33
-5.30
-5.98
-6.48
-7.07
-8.08
-9.72
-11.96
-14.51
-16.94
-18.86
-20.15
-21.03
-21.93
-23.27
-25.40
-28.30
-31.78
-35.35
-38.31
-39.86
-39.19
-35.75
-29.51
-21.01
-11.31
-1.71
6.73
13.35
18.00
20.88
22.37
22.82
22.53
21.71
20.53
19.18
17.78
16.44
15.22
14.17
13.30
12.58
11.98
11.43
10.91
10.43
10.01
9.69
9.48
9.29
9.00
8.49
7.68
6.60
5.32
3.96
2.70
1.62
0.75
-0.08
-1.08
-2.59
-4.77
-7.63
-10.86
-14.03
-16.70
-18.67
-20.00
-21.05
-22.31
-24.16
-26.86
-30.34
-34.26
-37.97
-40.58
-41.12
-38.77
-33.20
-24.71
-14.32
-3.42
6.53
14.50
20.00
23.16
24.47
24.61
24.19
23.74
23.60
23.94
24.69
25.59
26.23
26.24
25.47
24.03
22.30
20.78
19.89
19.80
20.43
21.44
22.38
22.83
22.51
21.29
19.29
16.71
13.85
11.00
8.48
6.45
5.03
4.11
3.46
2.75
1.70
0.22
-1.60
-3.53
-5.43
-7.22
-9.02
-10.98
-13.18
-15.58
-18.06
-20.47
-22.70
-24.67
-26.32
-27.66
-28.81
-30.04
-31.73
-34.25
-37.64
-41.45
-44.75
-46.30
-44.98
-40.14
-31.89
-21.10
-9.12
2.55
12.69
20.56
26.04
29.49
31.56
32.91
33.95
34.80
35.30
35.19
34.29
32.58
30.27
27.71
25.26
23.23
21.80
21.02
20.74
20.77
20.86
20.80
20.50
19.92
19.10
18.08
16.92
15.72
14.62
13.72
13.02
12.41
11.73
10.86
9.79
8.63
7.51
6.45
5.36
4.01
2.18
-0.24
-3.23
-6.64
-10.15
-13.48
-16.32
-18.60
-20.40
-22.08
-24.09
-26.90
-30.81
-35.84
-41.64
-47.50
-52.44
-55.34
-55.28
-51.76
-44.89
-35.34
-24.16
-12.53
-1.49
8.09
15.57
20.57
23.13
23.70
23.14
22.43
22.32
22.98
24.04
24.78
24.50
22.96
20.40
17.50
15.19
14.32
15.45
18.67
23.51
28.99
33.80
36.62
36.47
33.02
26.57
18.03
8.66
-0.31
-7.86
-13.48
-17.12
-19.24
-20.43
-21.27
-22.13
-23.17
-24.31
-25.50
-26.71
-27.96
-29.20
-30.30
-31.05
-31.28
-30.95
-30.23
-29.45
-29.05
-29.44
-30.96
-33.67
-37.29
-41.13
-44.13
-45.17
-43.42
-38.54
-31.00
-21.77
-12.07
-2.98
4.79
10.99
15.68
19.08
21.44
22.99
23.89
24.34
24.54
24.71
24.97
25.29
25.48
25.36
24.77
23.79
22.63
21.60
20.91
20.63
20.66
20.82
20.90
20.78
20.40
19.68
18.60
17.11
15.22
13.00
10.59
8.15
5.82
3.72
1.95
0.60
-0.34
-0.99
-1.61
-2.61
-4.31
-6.85
-10.10
-13.66
-17.09
-20.05
-22.44
-24.36
-26.09
-27.94
-30.24
-33.23
-36.94
-41.14
-45.10
-47.69
-47.69
-44.17
-36.96
-26.84
-15.27
-3.96
5.76
13.25
18.56
22.24
24.86
26.89
28.59
30.12
31.59
33.07
34.58
35.98
36.94
37.17
36.48
34.97
32.99
31.02
29.49
28.60
28.30
28.26
28.05
27.22
25.47
22.76
19.28
15.43
11.73
8.60
6.28
4.71
3.61
2.55
1.18
-0.67
-2.85
-5.07
-6.98
-8.40
-9.36
-10.17
-11.20
-12.76
-14.95
-17.65
-20.58
-23.43
-25.90
-27.84
-29.17
-29.98
-30.45
-30.91
-31.75
-33.34
-35.87
-39.14
-42.48
-44.81
-44.92
-41.87
-35.42
-26.15
-15.35
-4.56
4.88
12.20
17.28
20.46
22.20
22.90
22.89
22.41
21.76
21.13
20.65
20.28
19.82
19.16
18.30
17.41
16.76
16.54
16.75
17.21
17.64
17.76
17.45
16.65
15.42
13.83
11.93
9.77
7.43
5.04
2.78
0.83
-0.67
-1.68
-2.26
-2.59
-2.92
-3.52
-4.59
-6.24
-8.49
-11.17
-14.06
-16.94
-19.68
-22.29
-24.90
-27.70
-30.80
-34.09
-37.27
-39.78
-40.91
-40.02
-36.69
-30.93
-23.16
-14.20
-5.00
3.60
11.10
17.40
22.71
27.34
31.47
35.13
38.14
40.33
41.58
41.83
41.17
39.72
37.58
34.95
32.05
29.25
26.96
25.60
25.47
26.58
28.66
31.14
33.34
34.60
34.51
32.88
29.82
25.59
20.57
15.19
9.94
5.36
2.06
0.57
1.13
3.56
7.24
11.22
14.49
16.33
16.43
14.90
12.10
8.37
4.03
-0.80
-6.02
-11.60
-17.49
-23.56
-29.57
-35.05
-39.32
-41.70
-41.90
-40.15
-37.21
-33.99
-31.12
-28.66
-26.08
-22.76
-18.38
-13.23
-8.03
-3.64
-0.60
1.04
1.56
1.36
0.71
-0.27
-1.58
-3.06
-4.50
-5.60
-6.15
-6.14
-5.72
-5.22
-4.89
-4.95
-5.43
-6.36
-7.70
-9.35
-11.17
-12.93
-14.36
-15.30
-15.80
-16.18
-16.95
-18.59
-21.24
-24.54
-27.62
-29.54
-29.76
-28.55
-26.99
-26.60
-28.68
-33.64
-40.83
-48.75
-55.70
-60.44
-62.63
-62.81
-62.15
-61.80
-62.57
-64.77
-67.96
-71.09
-72.71
-71.37
-66.50
-59.26
-53.23
-53.75
-66.16
-92.92
-131.46
-173.79
-208.64
-225.23
-216.95
-183.46
-130.36
-67.02
-3.68
50.95
90.99
113.93
120.34
113.36
97.78
78.88
61.23
47.81
39.61
36.08
35.70
36.44
36.25
33.46
27.30
18.28
8.18
-0.56
-5.95
-7.25
-5.34
-2.10
0.53
1.60
1.41
1.20
2.32
5.43
10.22
15.58
20.22
23.21
24.31
24.00
23.25
23.34
25.39
30.18
37.78
47.57
58.40
69.03
78.32
85.52
90.19
92.13
91.38
88.18
83.10
76.97
70.71
65.13
60.69
57.43
55.11
53.43
52.17
51.39
51.25
51.95
53.52
55.69
57.89
59.30
59.16
56.99
52.83
47.36
41.56
36.38
32.33
29.30
26.66
23.73
20.07
15.81
11.48
7.61
4.53
2.10
-0.06
-2.42
-5.22
-8.46
-11.97
-15.57
-19.17
-22.74
-26.28
-29.73
-33.06
-36.34
-39.75
-43.54
-47.80
-52.41
-56.86
-60.41
-62.16
-61.31
-57.27
-49.85
-39.38
-26.67
-12.93
0.64
13.08
23.98
33.35
41.42
48.27
53.76
57.56
59.51
59.89
59.42
59.00
59.29
60.42
62.00
63.35
63.88
63.32
61.83
59.72
57.29
54.61
51.61
48.23
44.60
41.12
38.28
36.39
35.33
34.49
32.95
29.99
25.40
19.72
14.00
9.38
6.58
5.62
5.83
6.15
5.57
3.46
-0.27
-5.21
-10.57
-15.45
-18.96
-20.44
-19.62
-16.65
-12.13
-6.89
-1.77
2.60
5.93
8.24
9.68
10.36
10.35
9.57
8.01
5.71
2.89
-0.12
-2.92
-5.17
-6.68
-7.41
-7.56
-7.47
-7.50
-7.92
-8.80
-9.94
-11.03
-11.84
-12.33
-12.74
-13.40
-14.62
-16.39
-18.47
-20.43
-21.94
-23.01
-23.96
-25.34
-27.64
-31.03
-35.33
-40.06
-44.69
-48.85
-52.46
-55.72
-59.00
-62.56
-66.47
-70.44
-73.87
-76.03
-76.18
-73.79
-68.65
-60.84
-50.84
-39.31
-27.06
-14.93
-3.66
6.18
14.30
20.62
25.28
28.46
30.37
31.20
31.20
30.62
29.82
29.05
28.45
27.97
27.46
26.76
25.79
24.65
23.46
22.36
21.37
20.40
19.33
18.00
16.34
14.26
11.71
8.75
5.50
2.18
-0.95
-3.73
-6.16
-8.38
-10.61
-13.03
-15.63
-18.30
-20.86
-23.16
-25.18
-27.00
-28.81
-30.90
-33.60
-37.21
-41.88
-47.39
-53.12
-58.03
-60.80
-60.29
-55.80
-47.39
-35.87
-22.60
-9.12
3.13
13.13
20.40
24.99
27.32
28.03
27.75
27.00
26.16
25.35
24.59
23.85
23.09
22.30
21.51
20.71
19.92
19.20
18.61
18.28
18.31
18.66
19.14
19.41
19.15
18.12
16.31
13.81
10.91
7.82
4.70
1.62
-1.46
-4.67
-8.17
-12.09
-16.48
-21.29
-26.27
-31.09
-35.46
-39.22
-42.44
-45.40
-48.53
-52.23
-56.77
-62.06
-67.64
-72.61
-75.83
-76.10
-72.59
-65.04
-53.88
-40.22
-25.50
-11.18
1.50
11.80
19.41
24.44
27.22
28.26
28.06
27.05
25.64
24.15
22.80
21.79
21.25
21.30
22.06
23.56
25.79
28.65
31.88
35.15
38.08
40.23
41.20
40.69
38.61
35.12
30.67
25.81
21.12
17.00
13.58
10.72
8.09
5.35
2.27
-1.21
-5.00
-8.87
-12.52
-15.68
-18.19
-20.04
-21.46
-22.80
-24.41
-26.59
-29.48
-33.05
-37.06
-41.09
-44.47
-46.35
-45.82
-42.10
-34.83
-24.28
-11.19
3.49
18.94
34.59
49.89
63.88
75.00
81.16
80.54
72.38
57.63
38.88
19.61
3.06
-8.66
-14.77
-15.64
-12.01
-4.73
5.37
17.26
29.65
41.07
50.20
56.11
58.36
56.87
51.78
43.39
32.21
18.97
4.62
-9.99
-24.24
-37.80
-50.49
-61.97
-71.62
-78.71
-82.69
-83.57
-82.01
-79.13
-76.19
-74.30
-74.20
-76.24
-80.17
-85.20
-89.96
-92.72
-91.83
-86.17
-75.62
-61.10
-44.32
-27.24
-11.55
1.68
12.11
19.89
25.47
29.26
31.63
32.90
33.37
33.43
33.52
33.96
34.88
36.16
37.51
38.55
39.05
38.95
38.37
37.56
36.84
36.45
36.49
36.91
37.48
37.86
37.70
36.74
34.91
32.29
29.09
25.52
21.73
17.75
13.52
9.01
4.27
-0.48
-4.95
-8.84
-12.13
-15.10
-18.30
-22.42
-27.94
-34.95
-42.99
-51.08
-57.94
-62.21
-62.77
-59.06
-51.15
-39.82
-26.33
-12.20
1.23
12.97
22.51
29.78
35.00
38.54
40.81
42.20
43.09
43.79
44.49
45.29
46.13
46.89
47.47
47.77
47.86
47.87
48.02
48.43
49.12
49.86
50.23
49.74
47.95
44.75
40.34
35.26
30.14
25.45
21.32
17.56
13.76
9.59
4.91
-0.13
-5.26
-10.10
-14.41
-18.11
-21.35
-24.48
-28.06
-32.72
-38.93
-46.72
-55.46
-63.84
-70.13
-72.67
-70.40
-63.18
-51.86
-37.89
-22.99
-8.67
3.95
14.23
21.95
27.16
30.20
31.51
31.56
30.74
29.42
27.91
26.65
26.13
26.70
28.43
30.95
33.58
35.68
36.91
37.39
37.52
37.63
37.73
37.44
36.20
33.72
30.13
25.96
21.91
18.45
15.57
12.90
9.88
6.03
1.28
-4.08
-9.49
-14.40
-18.50
-21.88
-24.94
-28.28
-32.53
-38.16
-45.29
-53.52
-61.88
-68.90
-72.89
-72.47
-67.00
-56.86
-43.41
-28.56
-14.14
-1.46
8.89
16.98
23.17
27.87
31.37
33.90
35.65
36.87
37.79
38.50
38.99
39.14
38.90
38.37
37.86
37.70
38.16
39.22
40.59
41.83
42.51
42.41
41.53
40.01
38.01
35.59
32.75
29.48
25.84
21.99
18.09
14.22
10.31
6.31
2.23
-1.72
-5.16
-7.70
-9.16
-9.67
-9.64
-9.61
-10.06
-11.29
-13.36
-16.16
-19.57
-23.46
-27.75
-32.20
-36.28
-39.09
-39.48
-36.39
-29.27
-18.44
-5.10
8.99
22.11
33.10
41.73
48.53
54.37
59.97
65.44
70.33
73.87
75.50
75.27
73.98
72.99
73.72
77.05
82.96
90.49
98.04
103.98
107.12
107.10
104.45
100.38
96.66
95.25
98.10
106.63
121.04
139.70
159.03
174.13
180.27
174.36
155.91
126.72
89.80
48.01
3.49
-41.86
-85.46
-123.46
-151.35
-165.58
-165.22
-152.70
-133.11
-112.48
-95.68
-85.23
-80.98
-80.90
-82.06
-81.81
-78.38
-71.21
-60.85
-48.65
-36.26
-25.20
-16.50
-10.69
-7.94
-8.15
-11.06
-16.21
-22.95
-30.51
-38.18
-45.41
-51.89
-57.65
-62.99
-68.23
-73.23
-76.95
-77.43
-72.25
-59.59
-39.18
-12.86
15.79
42.63
64.21
78.69
85.86
86.50
81.65
72.20
58.93
42.82
25.16
7.46
-8.99
-23.39
-35.61
-46.03
-55.27
-63.85
-72.01
-79.67
-86.50
-92.04
-95.91
-98.00
-98.54
-98.00
-96.88
-95.37
-93.18
-89.62
-83.94
-75.81
-65.59
-54.35
-43.52
-34.31
-27.32
-22.31
-18.55
-15.16
-11.54
-7.59
-3.62
-0.05
2.81
4.85
6.11
6.70
6.68
6.17
5.39
4.73
4.60
5.27
6.72
8.68
10.74
12.62
14.30
15.95
17.77
19.77
21.66
23.02
23.48
22.99
21.78
20.30
18.92
17.85
17.05
16.39
15.65
14.60
12.92
10.31
6.68
2.33
-1.88
-4.61
-4.59
-1.10
5.51
13.93
22.28
28.78
32.27
32.45
29.68
24.67
18.24
11.23
4.51
-1.14
-5.20
-7.78
-9.64
-11.97
-16.05
-22.64
-31.77
-42.72
-54.36
-65.48
-75.20
-83.17
-89.60
-95.19
-100.81
-107.21
-114.74
-123.21
-131.98
-140.28
-147.56
-153.78
-159.42
-165.17
-171.57
-178.66
-185.81
-191.90
-195.67
-196.21
-193.32
-187.63
-180.43
-173.35
-167.81
-164.80
-164.57
-166.85
-171.01
-176.34
-182.10
-187.48
-191.45
-192.81
-190.40
-183.40
-171.71
-155.78
-136.30
-113.71
-88.09
-59.38
-28.08
4.42
36.21
65.71
92.73
118.71
145.91
175.85
208.00
239.36
265.50
282.43
288.26
284.01
273.15
260.31
249.77
244.43
245.28
251.48
260.81
270.28
276.99
278.80
274.81
265.41
251.92
235.99
219.12
202.31
186.01
170.14
154.29
137.88
120.50
102.19
83.53
65.53
49.20
35.05
22.83
11.67
0.60
-10.91
-22.68
-34.03
-44.17
-52.68
-59.62
-65.38
-70.35
-74.77
-78.70
-82.21
-85.39
-88.23
-90.46
-91.42
-90.20
-85.96
-78.32
-67.58
-54.70
-40.96
-27.67
-15.82
-6.00
1.58
7.02
10.66
13.00
14.57
15.85
17.13
18.50
19.87
21.06
21.97
22.59
23.07
23.56
24.22
25.14
26.25
27.44
28.55
29.43
29.94
29.99
29.47
28.30
26.38
23.62
20.05
15.80
11.24
6.82
2.96
-0.10
-2.37
-4.14
-5.82
-7.77
-10.19
-13.06
-16.23
-19.53
-22.86
-26.23
-29.75
-33.54
-37.70
-42.32
-47.37
-52.59
-57.45
-61.09
-62.52
-60.98
-56.16
-48.51
-39.08
-29.17
-19.87
-11.77
-4.90
1.00
6.19
10.75
14.53
17.31
18.97
19.65
19.58
19.01
18.01
16.56
14.60
12.21
9.72
7.59
6.31
6.19
7.19
8.95
10.87
12.37
13.06
12.87
11.99
10.63
8.98
6.98
4.49
1.31
-2.56
-6.97
-11.56
-15.94
-19.80
-23.01
-25.59
-27.77
-29.87
-32.26
-35.33
-39.32
-44.21
-49.60
-54.70
-58.46
-59.79
-58.01
-52.95
-45.10
-35.48
-25.28
-15.58
-7.11
-0.15
5.37
9.65
12.90
15.21
16.58
17.05
16.74
15.99
15.29
15.19
16.12
18.28
21.52
25.43
29.49
33.20
36.23
38.41
39.71
40.12
39.64
38.25
35.92
32.79
29.07
25.13
21.33
17.88
14.72
11.61
8.16
4.01
-0.96
-6.64
-12.70
-18.71
-24.35
-29.43
-33.96
-38.11
-42.25
-46.79
-52.19
-58.71
-66.17
-73.71
-79.87
-82.88
-81.25
-74.32
-62.63
-47.75
-31.75
-16.49
-3.17
7.89
16.94
24.47
30.90
36.50
41.40
45.73
49.58
53.01
55.94
58.23
59.73
60.35
60.14
59.13
57.33
54.69
51.15
46.83
42.09
37.50
33.66
30.99
29.51
28.83
28.23
27.02
24.64
20.92
16.04
10.44
4.65
-0.80
-5.46
-9.09
-11.73
-13.70
-15.50
-17.70
-20.64
-24.40
-28.80
-33.48
-38.17
-42.75
-47.34
-52.23
-57.78
-64.19
-71.35
-78.64
-84.89
-88.60
-88.27
-82.97
-72.67
-58.33
-41.66
-24.61
-8.91
4.35
14.72
22.33
27.67
31.30
33.79
35.64
37.30
39.14
41.53
44.63
48.38
52.44
56.29
59.47
61.72
63.13
64.07
64.89
65.73
66.46
66.73
66.21
64.72
62.30
59.08
55.23
50.87
46.15
41.27
36.52
32.09
28.11
24.48
20.97
17.29
13.20
8.60
3.54
-1.80
-7.20
-12.48
-17.53
-22.35
-27.09
-32.01
-37.42
-43.62
-50.67
-58.32
-65.86
-72.21
-76.10
-76.40
-72.57
-64.74
-53.73
-40.80
-27.29
-14.30
-2.57
7.48
15.70
22.10
26.80
30.03
32.07
33.29
34.02
34.54
35.02
35.52
36.04
36.52
36.95
37.34
37.69
37.96
38.05
37.79
36.96
35.41
33.05
29.91
26.12
21.99
17.87
14.16
11.12
8.75
6.76
4.68
2.05
-1.35
-5.40
-9.79
-14.13
-18.26
-22.22
-26.27
-30.77
-36.04
-42.27
-49.42
-57.06
-64.27
-69.69
-71.84
-69.57
-62.52
-51.36
-37.60
-23.09
-9.45
2.28
11.73
18.98
24.29
27.92
30.09
30.98
30.89
30.15
29.23
28.57
28.52
29.26
30.71
32.64
34.71
36.72
38.61
40.50
42.40
44.09
45.08
44.78
42.85
39.38
34.94
30.28
25.98
22.14
18.46
14.38
9.45
3.51
-3.24
-10.30
-17.17
-23.45
-28.97
-33.79
-38.16
-42.45
-47.10
-52.52
-58.98
-66.43
-74.29
-81.42
-86.23
-87.10
-82.97
-73.70
-60.25
-44.39
-28.13
-13.11
-0.29
10.06
18.11
24.17
28.55
31.53
33.48
34.79
35.86
36.89
37.91
38.77
39.30
39.49
39.54
39.78
40.50
41.82
43.57
45.36
46.74
47.24
46.63
44.82
41.97
38.42
34.56
30.74
27.17
23.87
20.71
17.47
13.97
10.14
5.99
1.60
-2.92
-7.52
-12.14
-16.70
-21.11
-25.23
-28.98
-32.34
-35.48
-38.73
-42.56
-47.44
-53.63
-60.96
-68.73
-75.67
-80.22
-80.94
-76.93
-68.17
-55.55
-40.64
-25.26
-10.95
1.27
11.03
18.46
23.94
27.95
30.86
32.96
34.48
35.58
36.39
36.98
37.39
37.64
37.73
37.68
37.59
37.56
37.69
38.02
38.44
38.74
38.64
37.87
36.30
34.03
31.34
28.61
26.16
24.12
22.40
20.73
18.81
16.48
13.71
10.64
7.43
4.25
1.15
-1.87
-4.81
-7.72
-10.66
-13.75
-17.11
-20.77
-24.62
-28.48
-32.17
-35.63
-39.03
-42.72
-47.09
-52.33
-58.30
-64.34
-69.42
-72.35
-72.04
-67.87
-59.89
-48.79
-35.77
-22.23
-9.47
1.57
10.38
16.83
21.06
23.42
24.28
24.12
23.34
22.35
21.45
20.82
20.52
20.50
20.67
21.00
21.45
22.08
22.91
23.86
24.77
25.36
25.35
24.55
22.98
20.79
18.24
15.51
12.69
9.73
6.55
3.14
-0.37
-3.81
-7.04
-10.08
-13.15
-16.56
-20.56
-25.18
-30.27
-35.48
-40.48
-45.05
-49.18
-53.06
-57.03
-61.45
-66.72
-73.09
-80.61
-88.80
-96.60
-102.34
-104.08
-100.21
-90.10
-74.45
-55.21
-34.95
-16.05
0.02
12.87
22.89
30.78
37.04
41.83
45.21
47.35
48.66
49.78
51.28
53.44
56.24
59.36
62.42
65.15
67.48
69.52
71.47
73.44
75.38
77.06
78.14
78.38
77.72
76.26
74.28
71.98
69.48
66.82
64.03
61.14
58.29
55.57
52.98
50.44
47.81
45.04
42.16
39.26
36.37
33.36
29.93
25.72
20.33
13.50
5.05
-4.92
-16.10
-27.82
-39.03
-48.43
-54.60
-56.46
-53.53
-46.18
-35.60
-23.45
-11.45
-1.06
6.83
11.80
13.83
13.16
10.20
5.51
-0.28
-6.43
-12.33
-17.51
-21.70
-24.81
-26.78
-27.65
-27.44
-26.32
-24.62
-22.78
-21.31
-20.58
-20.75
-21.67
-23.03
-24.46
-25.74
-26.90
-28.14
-29.72
-31.82
-34.45
-37.44
-40.55
-43.51
-46.12
-48.22
-49.83
-51.13
-52.44
-54.22
-56.85
-60.35
-64.17
-67.20
-68.06
-65.47
-58.85
-48.50
-35.57
-21.68
-8.43
3.08
12.36
19.55
25.04
29.21
32.27
34.21
35.00
34.68
33.51
31.87
30.18
28.74
27.65
26.82
26.06
25.23
24.26
23.17
22.01
20.83
19.63
18.35
16.85
14.97
12.54
9.52
5.96
2.05
-1.98
-5.94
-9.81
-13.72
-17.94
-22.78
-28.50
-35.23
-42.83
-50.86
-58.50
-64.66
-68.11
-67.82
-63.26
-54.65
-42.92
-29.56
-16.20
-4.19
5.65
13.19
18.72
22.76
25.76
27.97
29.48
30.36
30.71
30.70
30.46
30.04
29.42
28.60
27.69
26.89
26.40
26.26
26.30
26.21
25.68
24.59
23.01
21.12
19.02
16.69
14.02
10.80
6.92
2.44
-2.45
-7.52
-12.46
-17.04
-21.10
-24.62
-27.76
-30.85
-34.35
-38.74
-44.30
-50.90
-57.89
-64.09
-68.06
-68.49
-64.57
-56.34
-44.67
-31.03
-17.08
-4.18
6.76
15.40
21.84
26.46
29.70
31.94
33.46
34.45
35.08
35.53
35.97
36.51
37.14
37.69
37.94
37.76
37.14
36.28
35.41
34.66
33.93
32.96
31.43
29.13
26.08
22.44
18.53
14.63
10.96
7.55
4.29
1.00
-2.56
-6.50
-10.83
-15.33
-19.75
-23.84
-27.49
-30.78
-33.98
-37.52
-41.83
-47.22
-53.65
-60.66
-67.31
-72.29
-74.28
-72.26
-65.93
-55.80
-43.10
-29.39
-16.15
-4.48
5.06
12.40
17.77
21.56
24.18
25.99
27.31
28.35
29.23
30.06
30.89
31.75
32.69
33.73
34.86
36.06
37.36
38.73
40.10
41.29
41.98
41.87
40.70
38.48
35.49
32.22
29.15
26.51
24.24
21.99
19.40
16.21
12.52
8.65
5.00
1.80
-0.97
-3.56
-6.32
-9.46
-13.05
-16.93
-20.93
-24.87
-28.70
-32.41
-36.03
-39.69
-43.53
-47.81
-52.77
-58.50
-64.72
-70.62
-74.98
-76.42
-73.87
-66.94
-56.07
-42.50
-27.84
-13.69
-1.22
8.91
16.62
22.20
26.14
28.91
30.91
32.37
33.44
34.25
34.96
35.74
36.71
37.88
39.10
40.19
41.04
41.73
42.43
43.34
44.47
45.61
46.35
46.35
45.45
43.79
41.76
39.78
38.15
36.89
35.80
34.50
32.66
30.11
26.93
23.39
19.93
16.92
14.59
12.91
11.56
10.13
8.19
5.61
2.50
-0.73
-3.53
-5.45
-6.36
-6.54
-6.58
-7.14
-8.65
-11.12
-14.04
-16.60
-17.99
-17.82
-16.21
-13.88
-11.54
-9.18
-5.58
1.93
16.76
41.90
78.27
123.68
172.71
217.86
251.41
267.36
262.91
239.20
201.29
157.33
116.87
88.30
76.20
79.72
92.70
105.86
110.21
100.20
75.31
39.45
-1.22
-40.64
-74.57
-100.99
-119.37
-130.16
-134.27
-132.96
-127.89
-121.12
-114.71
-110.29
-108.53
-108.94
-110.04
-109.97
-107.24
-101.36
-92.98
-83.50
-74.43
-66.83
-61.03
-56.70
-53.19
-49.93
-46.62
-43.41
-40.66
-38.83
-38.11
-38.27
-38.79
-38.97
-38.35
-36.90
-35.02
-33.37
-32.47
-32.54
-33.33
-34.32
-34.88
-34.52
-33.04
-30.52
-27.30
-23.75
-20.23
-16.95
-14.11
-11.91
-10.72
-10.99
-12.99
-16.70
-21.49
-26.40
-30.29
-32.31
-32.14
-30.06
-26.77
-23.10
-19.72
-17.02
-15.04
-13.66
-12.68
-11.97
-11.41
-10.92
-10.39
-9.72
-8.91
-8.07
-7.38
-7.05
-7.15
-7.55
-7.89
-7.75
-6.89
-5.34
-3.50
-1.97
-1.32
-1.93
-3.80
-6.59
-9.72
-12.59
-14.75
-16.05
-16.67
-16.96
-17.26
-17.76
-18.43
-19.06
-19.36
-19.00
-17.66
-15.03
-10.89
-5.28
1.40
8.29
14.39
18.80
21.17
21.69
20.93
19.53
17.87
16.04
14.00
11.79
9.77
8.39
8.00
8.62
9.84
10.98
11.43
10.97
9.79
8.44
7.42
6.92
6.74
6.40
5.51
3.96
1.98
-0.03
-1.80
-3.31
-4.79
-6.43
-8.29
-10.19
-11.85
-13.10
-13.91
-14.32
-14.31
-13.69
-12.22
-9.80
-6.54
-2.85
0.82
4.05
6.69
8.72
10.29
11.46
12.28
12.79
13.06
13.19
13.33
13.57
13.90
14.26
14.47
14.33
13.68
12.48
10.93
9.37
8.24
7.82
8.12
8.80
9.35
9.26
8.13
5.84
2.41
-1.92
-6.81
-11.85
-16.55
-20.52
-23.49
-25.38
-26.21
-26.12
-25.19
-23.41
-20.75
-17.23
-13.07
-8.67
-4.62
-1.52
0.16
0.38
-0.46
-1.54
-2.03
-1.35
0.51
3.08
5.66
7.70
9.13
10.29
11.78
13.99
17.01
20.42
23.62
26.06
27.38
27.63
27.15
26.62
26.99
29.45
35.26
45.30
59.34
75.57
90.65
100.55
102.02
93.93
77.82
57.33
36.74
19.25
6.15
-3.24
-10.53
-17.14
-23.59
-29.45
-33.89
-36.48
-37.60
-38.42
-40.24
-43.60
-47.57
-50.00
-48.66
-42.50
-32.29
-19.96
-7.22
5.70
20.11
37.52
57.64
77.35
91.49
95.01
85.52
64.37
35.93
5.43
-22.96
-47.08
-66.28
-80.28
-88.63
-90.77
-86.81
-78.09
-67.14
-57.02
-50.19
-47.69
-48.95
-52.32
-55.83
-57.97
-58.05
-56.18
-52.85
-48.61
-43.81
-38.68
-33.45
-28.47
-24.17
-20.98
-19.11
-18.49
-18.73
-19.32
-19.78
-19.83
-19.40
-18.57
-17.53
-16.44
-15.50
-14.85
-14.59
-14.75
-15.29
-16.03
-16.73
-17.13
-17.06
-16.53
-15.70
-14.89
-14.37
-14.26
-14.37
-14.31
-13.62
-12.04
-9.65
-6.86
-4.23
-2.30
-1.39
-1.52
-2.43
-3.69
-4.82
-5.48
-5.49
-4.96
-4.13
-3.23
-2.36
-1.41
-0.20
1.31
2.98
4.50
5.62
6.26
6.61
6.91
7.38
8.03
8.69
9.19
9.41
9.33
8.94
8.28
7.40
6.33
5.26
4.34
3.71
3.46
3.61
4.08
4.74
5.42
5.89
6.03
5.78
5.26
4.70
4.33
4.27
4.54
5.02
5.55
6.04
6.49
6.91
7.24
7.35
6.99
5.97
4.24
2.01
-0.25
-2.04
-2.99
-3.04
-2.41
-1.47
-0.48
0.50
1.61
2.97
4.53
6.02
7.13
7.61
7.53
7.19
6.92
6.88
6.97
6.95
6.62
6.01
5.36
4.96
5.00
5.40
5.83
5.97
5.66
4.97
4.21
3.63
3.40
3.38
3.35
3.01
2.28
1.25
0.28
-0.26
-0.11
0.70
1.86
2.95
3.59
3.71
3.47
3.25
3.28
3.61
4.05
4.34
4.24
3.75
3.03
2.28
1.66
1.22
0.96
0.89
1.05
1.51
2.27
3.26
4.24
4.97
5.24
5.02
4.41
3.67
3.07
2.79
2.88
3.24
3.72
4.12
4.29
4.16
3.76
3.13
2.34
1.54
0.86
0.48
0.56
1.19
2.30
3.66
4.99
5.98
6.56
6.77
6.83
6.92
7.09
7.31
7.40
7.28
6.92
6.39
5.73
5.02
4.25
3.45
2.73
2.19
1.93
1.96
2.16
2.40
2.58
2.67
2.64
2.53
2.34
2.16
2.08
2.26
2.81
3.68
4.63
5.32
5.49
5.05
4.13
3.04
2.04
1.28
0.76
0.35
-0.04
-0.45
-0.86
-1.16
-1.19
-0.82
0.03
1.32
2.85
4.28
5.25
5.53
5.14
4.34
3.50
2.89
2.59
2.43
2.15
1.58
0.74
-0.15
-0.83
-1.15
-1.14
-1.01
-1.00
-1.26
-1.74
-2.27
-2.62
-2.65
-2.40
-2.07
-1.94
-2.22
-2.97
-4.01
-5.04
-5.83
-6.26
-6.43
-6.52
-6.62
-6.61
-6.25
-5.22
-3.40
-0.91
1.88
4.51
6.58
7.90
8.50
8.56
8.34
8.11
8.04
8.20
8.51
8.81
8.92
8.75
8.29
7.62
6.91
6.26
5.76
5.39
5.09
4.82
4.54
4.26
4.01
3.79
3.53
3.10
2.41
1.40
0.18
-1.02
-1.93
-2.37
-2.25
-1.73
-1.02
-0.36
0.09
0.31
0.34
0.29
0.25
0.19
0.12
-0.05
-0.39
-0.97
-1.78
-2.73
-3.69
-4.46
-4.91
-4.93
-4.62
-4.16
-3.82
-3.79
-4.11
-4.54
-4.78
-4.46
-3.46
-1.89
-0.08
1.54
2.71
3.31
3.46
3.28
2.92
2.40
1.75
1.05
0.48
0.20
0.29
0.69
1.23
1.69
1.87
1.67
1.14
0.40
-0.34
-0.94
-1.30
-1.49
-1.64
-1.86
-2.17
-2.41
-2.40
-1.98
-1.21
-0.32
0.44
0.90
1.10
1.14
1.20
1.29
1.34
1.27
1.04
0.68
0.30
-0.02
-0.27
-0.47
-0.68
-0.94
-1.26
-1.65
-2.06
-2.46
-2.79
-2.97
-2.92
-2.54
-1.79
-0.65
0.83
2.51
4.19
5.61
6.52
6.79
6.41
5.57
4.51
3.47
2.64
2.07
1.78
1.77
2.04
2.54
3.19
3.81
4.18
4.21
3.85
3.27
2.65
2.19
1.99
1.96
1.94
1.78
1.43
0.91
0.39
-0.02
-0.26
-0.38
-0.46
-0.54
-0.62
-0.62
-0.48
-0.16
0.29
0.77
1.16
1.39
1.41
1.22
0.90
0.51
0.17
-0.04
-0.13
-0.11
-0.02
0.11
0.24
0.35
0.42
0.46
0.48
0.52
0.64
0.81
1.00
1.14
1.24
1.37
1.59
2.00
2.55
3.17
3.74
4.14
4.30
4.17
3.69
2.87
1.79
0.72
0.02
-0.04
0.61
1.74
2.93
3.80
4.13
4.01
3.64
3.25
2.95
2.73
2.51
2.27
2.04
1.94
2.06
2.33
2.65
2.80
2.68
2.25
1.67
1.16
0.93
1.06
1.45
1.88
2.08
1.92
1.36
0.57
-0.28
-1.04
-1.67
-2.16
-2.59
-2.95
-3.26
-3.48
-3.59
-3.60
-3.50
-3.36
-3.23
-3.19
-3.28
-3.43
-3.49
-3.25
-2.50
-1.21
0.54
2.43
4.13
5.32
5.84
5.71
5.11
4.29
3.50
2.93
2.63
2.58
2.70
2.90
3.17
3.59
4.20
4.94
5.62
5.93
5.66
4.74
3.42
2.03
0.94
0.28
-0.07
-0.30
-0.58
-0.96
-1.27
-1.35
-1.12
-0.70
-0.29
-0.13
-0.33
-0.83
-1.42
-1.93
-2.23
-2.33
-2.34
-2.36
-2.47
-2.69
-2.96
-3.20
-3.31
-3.21
-2.83
-2.22
-1.47
-0.75
-0.24
-0.04
-0.10
-0.22
-0.21
0.10
0.72
1.60
2.55
3.41
4.08
4.50
4.71
4.71
4.51
4.09
3.43
2.55
1.54
0.53
-0.28
-0.80
-1.01
-1.00
-0.87
-0.72
-0.55
-0.35
-0.10
0.12
0.28
0.37
0.39
0.32
0.11
-0.32
-1.00
-1.81
-2.50
-2.80
-2.59
-1.92
-1.15
-0.59
-0.44
-0.71
-1.24
-1.86
-2.52
-3.21
-3.87
-4.35
-4.42
-3.90
-2.81
-1.37
0.08
1.16
1.69
1.59
0.97
0.03
-1.07
-2.18
-3.18
-3.93
-4.26
-4.03
-3.16
-1.69
0.22
2.31
4.39
6.36
8.23
10.00
11.65
13.01
13.84
13.98
13.46
12.49
11.37
10.38
9.65
9.10
8.60
8.02
7.31
6.56
5.88
5.37
5.07
4.91
4.74
4.41
3.83
3.04
2.17
1.39
0.85
0.58
0.52
0.53
0.51
0.40
0.20
-0.07
-0.42
-0.87
-1.49
-2.35
-3.43
-4.75
-6.24
-7.79
-9.23
-10.34
-10.96
-11.12
-11.07
-11.27
-12.10
-13.71
-15.81
-17.80
-18.95
-18.69
-16.94
-14.12
-11.07
-8.76
-8.03
-9.22
-11.95
-15.03
-16.75
-15.28
-9.27
1.71
16.94
34.68
52.51
67.96
79.02
84.71
85.25
81.89
76.40
70.38
64.85
60.06
55.73
51.51
47.31
43.31
39.71
36.40
32.75
27.87
20.92
11.66
0.59
-11.18
-22.31
-31.74
-38.89
-43.77
-46.70
-48.06
-48.22
-47.49
-46.22
-44.89
-44.07
-44.13
-45.00
-46.09
-46.41
-45.09
-41.67
-36.37
-30.02
-23.69
-18.32
-14.42
-11.97
-10.60
-9.84
-9.32
-8.81
-8.23
-7.53
-6.70
-5.74
-4.70
-3.70
-2.86
-2.23
-1.84
-1.57
-1.29
-0.93
-0.43
0.12
0.64
1.02
1.20
1.16
0.91
0.49
-0.12
-0.86
-1.61
-2.22
-2.52
-2.42
-2.01
-1.53
-1.26
-1.40
-1.97
-2.85
-3.84
-4.77
-5.62
-6.42
-7.24
-8.11
-9.04
-9.98
-10.87
-11.61
-12.05
-11.95
-11.07
-9.25
-6.55
-3.25
0.20
3.28
5.59
6.95
7.43
7.28
6.78
6.20
5.62
5.04
4.46
3.92
3.53
3.44
3.67
4.09
4.47
4.57
4.25
3.62
2.91
2.44
2.38
2.72
3.19
3.45
3.20
2.36
1.10
-0.24
-1.36
-2.12
-2.49
-2.63
-2.66
-2.69
-2.81
-3.10
-3.58
-4.20
-4.76
-4.94
-4.58
-3.73
-2.78
-2.24
-2.52
-3.69
-5.44
-7.30
-8.73
-9.43
-9.18
-7.98
-5.85
-3.01
0.24
3.44
6.11
7.91
8.74
8.74
8.15
7.30
6.44
5.75
5.31
5.10
5.00
4.90
4.71
4.38
4.02
3.70
3.53
3.53
3.70
4.03
4.44
4.87
5.19
5.31
5.15
4.68
3.94
2.99
1.90
0.72
-0.44
-1.47
-2.32
-2.95
-3.42
-3.82
-4.24
-4.69
-5.12
-5.48
-5.74
-5.90
-5.99
-6.03
-6.03
-6.02
-6.08
-6.33
-6.88
-7.71
-8.64
-9.37
-9.53
-8.87
-7.29
-4.88
-1.87
1.39
4.45
7.02
8.86
9.89
10.20
9.99
9.49
8.93
8.51
8.26
8.15
8.01
7.67
7.02
6.14
5.24
4.67
4.65
5.15
5.87
6.30
6.10
5.19
3.91
2.70
1.97
1.80
1.99
2.22
2.19
1.84
1.23
0.52
-0.23
-1.05
-2.00
-3.07
-4.10
-4.86
-5.10
-4.74
-3.90
-3.00
-2.45
-2.63
-3.57
-5.08
-6.72
-8.10
-9.05
-9.64
-10.09
-10.55
-10.97
-11.09
-10.54
-9.06
-6.67
-3.71
-0.70
1.85
3.69
4.85
5.59
6.18
6.72
7.12
7.13
6.60
5.58
4.38
3.38
2.89
3.03
3.62
4.39
5.04
5.38
5.39
5.16
4.84
4.56
4.39
4.32
4.33
4.32
4.26
4.11
3.85
3.48
2.96
2.31
1.55
0.68
-0.31
-1.41
-2.57
-3.67
-4.52
-5.01
-5.11
-4.94
-4.75
-4.73
-4.93
-5.22
-5.36
-5.15
-4.55
-3.77
-3.14
-2.95
-3.35
-4.25
-5.42
-6.59
-7.53
-8.11
-8.33
-8.10
-7.35
-5.96
-3.90
-1.22
1.80
4.83
7.50
9.52
10.77
11.28
11.15
10.56
9.71
8.77
7.93
7.25
6.76
6.38
5.97
5.44
4.82
4.22
3.84
3.75
3.80
3.59
2.59
0.37
-3.23
-7.94
-13.14
-18.06
-22.04
-24.89
-26.82
-28.42
-30.29
-32.83
-36.10
-39.95
-44.20
-48.76
-53.72
-59.18
-65.06
-71.02
-76.58
-81.16
-84.20
-84.90
-81.95
-73.59
-58.17
-35.03
-5.32
27.84
60.07
87.04
105.75
115.34
116.96
113.03
106.16
98.39
90.92
84.13
77.99
72.35
67.09
62.18
57.44
52.47
46.63
39.33
30.45
20.70
11.64
5.11
2.61
4.50
9.77
16.35
21.85
24.51
23.67
19.87
14.46
8.86
4.06
0.38
-2.46
-4.93
-7.33
-9.63
-11.55
-12.78
-13.32
-13.48
-13.74
-14.59
-16.19
-18.36
-20.60
-22.37
-23.31
-23.35
-22.78
-22.08
-21.70
-21.84
-22.39
-23.00
-23.36
-23.31
-22.97
-22.55
-22.14
-21.57
-20.46
-18.47
-15.59
-12.22
-9.08
-6.85
-5.96
-6.37
-7.63
-9.22
-10.65
-11.72
-12.48
-13.14
-13.94
-15.00
-16.29
-17.63
-18.75
-19.47
-19.76
-19.71
-19.55
-19.34
-18.99
-18.21
-16.68
-14.22
-10.91
-7.00
-2.72
1.82
6.70
12.17
18.52
25.95
34.40
43.46
52.28
59.73
64.57
65.90
63.39
57.38
48.81
38.84
28.59
18.88
10.34
3.36
-1.79
-5.07
-6.72
-7.15
-6.86
-6.14
-5.05
-3.46
-1.27
1.46
4.32
6.69
7.94
7.63
5.68
2.34
-1.82
-6.11
-9.95
-12.89
-14.80
-15.79
-16.21
-16.48
-17.00
-18.07
-19.77
-22.03
-24.58
-27.04
-28.95
-29.94
-29.69
-28.01
-24.74
-19.81
-13.24
-5.24
3.63
12.48
20.18
25.65
28.19
27.76
25.10
21.65
19.18
19.40
23.37
31.10
41.28
51.51
58.93
61.18
57.21
47.77
35.14
22.19
11.29
3.37
-2.24
-7.47
-14.46
-24.84
-38.87
-55.14
-70.70
-81.67
-84.36
-76.53
-58.29
-32.16
-2.26
26.95
51.86
70.15
80.65
83.04
77.72
66.05
50.65
35.08
22.88
16.21
14.98
17.02
19.13
18.78
15.11
9.26
3.48
-0.06
-0.24
2.45
6.21
8.49
6.97
0.22
-11.77
-27.65
-45.08
-61.52
-74.91
-84.16
-89.28
-90.98
-90.40
-88.66
-86.69
-85.23
-84.90
-86.07
-88.88
-93.03
-97.81
-102.42
-106.25
-109.21
-111.84
-115.25
-120.80
-129.61
-142.08
-157.17
-172.26
-183.20
-185.15
-174.00
-148.21
-109.96
-64.95
-20.56
17.08
45.36
65.82
82.65
100.27
121.46
146.93
176.13
208.02
241.14
272.69
297.89
310.76
306.25
283.05
244.98
200.08
157.50
124.07
102.26
90.55
85.29
82.94
81.36
79.71
77.66
74.63
69.73
62.18
51.82
39.60
27.02
15.66
6.48
-0.49
-5.93
-10.78
-15.71
-20.85
-25.85
-30.20
-33.63
-36.27
-38.63
-41.28
-44.44
-47.83
-50.77
-52.39
-52.09
-49.74
-45.75
-40.94
-36.19
-32.29
-29.67
-28.41
-28.23
-28.63
-29.12
-29.39
-29.54
-30.00
-31.40
-34.15
-38.14
-42.58
-46.19
-47.55
-45.57
-39.90
-30.97
-19.84
-7.79
3.99
14.60
23.34
29.65
33.08
33.28
30.31
24.69
17.42
9.73
2.73
-2.81
-6.58
-8.58
-8.99
-8.03
-6.01
-3.32
-0.50
1.93
3.54
4.12
3.68
2.39
0.45
-1.97
-4.72
-7.58
-10.27
-12.50
-14.12
-15.17
-15.87
-16.50
-17.27
-18.30
-19.60
-21.22
-23.16
-25.38
-27.59
-29.22
-29.52
-27.80
-23.76
-17.65
-10.26
-2.61
4.33
9.99
14.16
16.94
18.47
18.84
18.06
16.15
13.37
10.12
6.95
4.30
2.38
1.11
0.16
-0.84
-2.07
-3.53
-5.03
-6.29
-7.10
-7.44
-7.48
-7.51
-7.79
-8.47
-9.52
-10.80
-12.05
-13.09
-13.79
-14.16
-14.36
-14.65
-15.26
-16.36
-17.92
-19.65
-21.21
-22.29
-22.84
-23.11
-23.61
-24.79
-26.86
-29.51
-31.91
-32.98
-31.62
-27.14
-19.48
-9.33
2.04
13.14
22.59
29.49
33.50
34.79
33.93
31.57
28.37
24.87
21.51
18.56
16.21
14.45
13.23
12.44
11.96
11.71
11.63
11.63
11.61
11.45
10.99
10.08
8.60
6.48
3.83
0.88
-2.06
-4.69
-6.79
-8.30
-9.27
-9.84
-10.17
-10.47
-10.90
-11.63
-12.79
-14.43
-16.49
-18.87
-21.40
-23.84
-25.89
-27.19
-27.42
-26.45
-24.40
-21.75
-19.15
-17.18
-16.11
-15.66
-15.08
-13.45
-10.01
-4.53
2.56
10.30
17.57
23.46
27.53
29.93
31.20
32.00
32.77
33.68
34.50
34.82
34.31
32.88
30.77
28.35
26.01
23.94
22.10
20.34
18.57
16.83
15.23
13.87
12.68
11.47
10.03
8.26
6.23
4.11
2.08
0.24
-1.35
-2.65
-3.61
-4.26
-4.74
-5.30
-6.20
-7.51
-9.03
-10.35
-11.10
-11.18
-10.90
-10.81
-11.40
-12.84
-14.80
-16.69
-17.98
-18.44
-18.26
-17.93
-17.95
-18.54
-19.72
-21.24
-22.76
-23.87
-24.12
-23.03
-20.17
-15.35
-8.78
-1.09
6.77
13.83
19.39
23.17
25.24
25.94
25.63
24.66
23.32
21.84
20.41
19.16
18.12
17.30
16.75
16.55
16.75
17.34
18.20
19.10
19.83
20.21
20.18
19.78
19.12
18.30
17.44
16.58
15.72
14.75
13.46
11.60
8.91
5.20
0.50
-5.03
-11.00
-16.96
-22.41
-27.00
-30.53
-33.00
-34.57
-35.40
-35.66
-35.53
-35.18
-34.78
-34.48
-34.32
-34.17
-33.68
-32.41
-29.94
-25.92
-20.22
-12.96
-4.53
4.36
12.85
20.05
25.35
28.49
29.64
29.17
27.59
25.40
23.00
20.75
18.96
17.75
17.08
16.66
16.09
15.04
13.36
11.17
8.72
6.21
3.63
0.92
-2.00
-5.01
-7.75
-9.80
-10.88
-11.04
-10.68
-10.34
-10.44
-11.05
-11.88
-12.44
-12.34
-11.47
-10.07
-8.58
-7.46
-6.85
-6.72
-6.77
-6.74
-6.50
-6.13
-5.78
-5.64
-5.75
-6.03
-6.29
-6.33
-6.07
-5.58
-5.05
-4.77
-5.02
-5.93
-7.51
-9.62
-11.95
-14.12
-15.58
-15.69
-13.85
-9.67
-3.23
4.83
13.35
20.96
26.44
29.16
29.18
27.12
23.82
19.99
16.07
12.16
8.19
4.20
0.31
-3.19
-5.98
-7.86
-8.78
-8.79
-7.86
-5.95
-2.94
1.10
5.76
10.33
14.01
16.16
16.68
15.94
14.63
13.38
12.41
11.54
10.26
8.09
4.78
0.41
-4.70
-10.07
-15.23
-19.75
-23.35
-25.89
-27.43
-28.12
-28.11
-27.50
-26.26
-24.35
-21.90
-19.17
-16.64
-14.89
-14.34
-15.18
-17.26
-20.18
-23.27
-25.75
-26.79
-25.68
-21.97
-15.77
-7.77
0.89
8.96
15.51
20.14
23.01
24.60
25.41
25.69
25.46
24.65
23.31
21.64
19.95
18.56
17.62
17.15
16.99
16.97
16.88
16.56
15.99
15.27
14.66
14.44
14.77
15.60
16.56
17.17
17.02
15.94
14.10
11.96
9.96
8.45
7.47
6.88
6.44
6.02
5.53
5.00
4.52
4.15
3.95
3.97
4.19
4.49
4.73
4.77
4.60
4.29
3.88
3.33
2.52
1.33
-0.22
-1.88
-3.28
-4.19
-4.67
-5.05
-5.85
-7.44
-9.85
-12.80
-15.84
-18.58
-20.78
-22.32
-23.16
-23.22
-22.49
-20.98
-18.75
-15.93
-12.72
-9.31
-5.94
-2.83
-0.15
2.07
3.91
5.49
6.94
8.24
9.27
9.80
9.67
8.90
7.60
6.02
4.36
2.78
1.38
0.21
-0.70
-1.38
-1.94
-2.54
-3.31
-4.32
-5.45
-6.58
-7.61
-8.58
-9.78
-11.53
-14.10
-17.52
-21.39
-24.98
-27.38
-27.64
-25.20
-20.00
-12.57
-3.97
4.61
12.02
17.60
21.18
23.00
23.50
23.06
21.91
20.24
18.19
16.00
13.97
12.30
10.96
9.73
8.28
6.40
4.09
1.56
-0.96
-3.43
-6.07
-9.26
-13.47
-18.95
-25.66
-33.24
-41.04
-48.31
-54.39
-58.98
-62.29
-65.10
-68.45
-73.30
-80.05
-88.34
-97.18
-105.30
-111.64
-115.60
-117.20
-116.95
-115.75
-114.62
-114.37
-115.12
-115.91
-114.57
-108.25
-94.43
-72.03
-42.24
-8.31
25.46
55.08
78.09
93.91
103.40
107.94
108.58
105.79
99.72
90.88
80.55
70.74
63.56
60.40
61.35
65.16
69.83
73.56
75.47
75.71
75.26
75.21
76.34
78.91
82.81
87.59
92.50
96.38
97.59
94.36
85.42
70.81
52.33
33.32
17.73
8.59
6.86
10.87
16.84
20.34
17.78
7.64
-9.31
-30.61
-52.99
-73.20
-88.51
-96.90
-97.23
-89.45
-74.73
-55.34
-34.06
-13.43
4.92
20.46
33.53
44.83
54.83
63.51
70.49
75.28
77.60
77.64
76.02
73.71
71.76
71.08
72.24
75.30
79.81
84.89
89.29
91.75
91.18
86.98
79.08
68.05
54.80
40.46
26.06
12.38
-0.14
-11.33
-21.25
-30.02
-37.80
-44.75
-51.01
-56.69
-61.76
-66.06
-69.29
-71.21
-71.92
-71.89
-72.00
-73.22
-76.33
-81.56
-88.48
-95.97
-102.28
-105.43
-103.65
-95.98
-82.81
-65.95
-48.20
-32.49
-20.90
-14.15
-11.58
-11.85
-13.66
-16.20
-19.31
-23.09
-27.59
-32.63
-37.75
-42.38
-45.97
-48.03
-48.09
-45.84
-41.10
-34.12
-25.58
-16.52
-8.07
-1.12
3.90
7.05
8.71
9.42
9.84
10.72
12.97
17.65
25.79
37.94
53.98
72.85
92.73
111.37
126.59
136.80
141.34
140.63
136.02
129.41
122.65
117.07
113.01
109.89
106.55
101.75
94.79
85.70
75.26
64.50
54.39
45.42
37.53
30.27
23.11
15.67
7.97
0.59
-5.49
-9.14
-9.49
-6.39
-0.74
5.68
10.59
11.98
8.67
0.67
-10.77
-23.39
-34.57
-41.85
-43.80
-40.40
-33.12
-24.36
-16.54
-11.26
-8.85
-8.71
-9.83
-11.66
-14.13
-17.53
-22.01
-27.23
-32.34
-36.44
-38.89
-39.50
-38.49
-36.24
-33.21
-29.73
-26.11
-22.66
-19.65
-17.35
-15.97
-15.62
-16.39
-18.29
-21.32
-25.38
-30.32
-35.78
-41.43
-46.89
-51.80
-55.64
-57.66
-56.87
-52.38
-43.92
-32.19
-18.97
-6.64
2.63
7.64
8.53
6.53
3.32
0.33
-1.58
-2.28
-2.11
-1.64
-1.52
-2.27
-4.10
-6.76
-9.56
-11.60
-12.25
-11.61
-10.46
-9.86
-10.39
-11.77
-12.88
-12.40
-9.50
-4.22
2.62
9.75
15.49
17.73
13.81
1.33
-20.52
-49.65
-80.59
-105.73
-117.78
-112.49
-90.30
-56.12
-17.50
17.98
44.77
60.41
65.26
61.67
52.71
41.26
29.44
18.44
8.79
0.64
-5.86
-10.55
-13.32
-14.23
-13.38
-10.88
-6.68
-0.70
6.94
15.73
24.71
32.68
38.49
41.46
41.49
39.10
35.12
30.56
26.23
22.66
19.99
18.15
16.93
16.14
15.71
15.60
15.82
16.30
16.98
17.77
18.62
19.53
20.51
21.50
22.35
22.89
22.85
21.87
19.45
15.12
8.71
0.57
-8.33
-16.70
-23.57
-28.84
-33.48
-39.18
-47.39
-58.52
-71.46
-83.79
-92.66
-95.77
-92.09
-82.19
-67.99
-52.12
-37.29
-25.66
-18.35
-15.25
-15.08
-15.82
-15.28
-11.75
-4.50
6.00
18.35
30.62
41.01
48.26
51.96
52.44
50.55
47.33
43.67
40.18
37.16
34.65
32.59
30.84
29.29
27.79
26.20
24.42
22.41
20.30
18.27
16.44
14.75
12.99
10.87
8.19
5.01
1.55
-1.86
-5.01
-7.84
-10.44
-12.83
-14.95
-16.61
-17.60
-17.85
-17.37
-16.42
-15.32
-14.43
-13.99
-14.13
-14.79
-15.78
-16.90
-17.97
-18.97
-20.04
-21.45
-23.42
-26.01
-28.97
-31.61
-32.88
-31.54
-26.58
-17.60
-5.09
9.63
24.61
37.96
48.22
54.70
57.47
57.11
54.46
50.40
45.71
41.03
36.74
33.10
30.16
27.87
26.10
24.66
23.27
21.67
19.78
17.76
16.16
15.63
16.57
18.68
20.89
21.67
19.79
14.98
8.25
1.46
-3.57
-5.97
-6.20
-5.79
-6.64
-10.20
-17.05
-26.90
-38.86
-51.70
-64.03
-74.30
-81.12
-83.60
-81.91
-77.66
-73.44
-71.88
-74.37
-80.09
-86.12
-88.48
-83.89
-71.18
-51.87
-29.44
-7.93
9.62
21.84
29.06
32.47
33.45
33.04
31.99
30.92
30.45
31.05
32.81
35.33
37.81
39.41
39.57
38.31
36.18
34.00
32.48
31.91
32.09
32.43
32.27
31.12
28.87
25.79
22.29
18.83
15.69
12.97
10.66
8.75
7.26
6.22
5.67
5.40
5.07
4.06
1.76
-2.37
-8.53
-16.45
-25.31
-33.74
-39.93
-42.12
-39.15
-31.05
-19.25
-6.40
4.51
11.06
12.23
8.63
2.16
-4.89
-10.58
-13.79
-14.32
-12.59
-9.35
-5.31
-1.23
2.23
4.51
5.35
4.88
3.70
2.76
2.96
4.76
7.90
11.55
14.56
16.06
15.75
13.97
11.50
9.12
7.39
6.39
5.83
5.14
3.80
1.51
-1.62
-5.05
-8.03
-9.86
-10.20
-9.18
-7.33
-5.35
-3.88
-3.35
-3.99
-5.80
-8.60
-11.81
-14.51
-15.54
-13.94
-9.31
-2.23
5.87
13.22
18.36
20.71
20.45
18.17
14.28
8.62
0.70
-9.73
-22.08
-34.73
-45.40
-52.04
-53.48
-49.85
-42.32
-32.49
-21.78
-11.15
-1.11
7.99
15.77
21.79
25.70
27.34
26.83
24.60
21.24
17.30
13.28
9.49
6.05
2.97
0.19
-2.27
-4.23
-5.48
-5.84
-5.51
-5.09
-5.51
-7.57
-11.49
-16.64
-21.55
-24.42
-23.71
-18.72
-9.86
1.47
13.35
23.88
31.71
36.27
37.79
37.09
35.20
32.94
30.72
28.59
26.29
23.61
20.47
17.06
13.83
11.25
9.64
9.05
9.16
9.49
9.61
9.41
9.15
9.32
10.37
12.38
14.99
17.61
19.70
20.93
20.97
19.32
15.27
8.37
-0.95
-11.02
-19.27
-23.30
-21.97
-16.06
-7.92
-0.42
4.27
5.31
2.99
-1.87
-8.56
-16.57
-25.26
-33.48
-39.70
-42.41
-40.82
-35.26
-27.10
-18.25
-10.44
-4.75
-1.29
0.55
1.73
3.02
4.76
6.79
8.60
9.76
10.14
10.03
9.98
10.41
11.39
12.49
12.96
12.04
9.45
5.55
1.30
-2.17
-4.04
-4.22
-3.39
-2.74
-3.46
-6.20
-10.79
-16.25
-21.03
-23.51
-22.36
-17.08
-8.06
3.25
14.77
24.38
30.62
33.12
32.69
30.88
29.34
29.06
29.92
30.69
29.52
24.75
15.63
2.65
-12.55
-27.71
-40.63
-49.70
-54.14
-53.87
-49.34
-41.39
-31.23
-20.42
-10.66
-3.44
0.46
1.15
-0.46
-3.06
-5.58
-7.46
-8.76
-9.90
-11.31
-13.10
-14.97
-16.51
-17.44
-17.83
-18.25
-19.40
-21.75
-25.17
-28.76
-31.07
-30.61
-26.46
-18.53
-7.72
4.46
16.31
26.34
33.59
37.56
38.36
36.49
32.86
28.55
24.61
21.72
20.01
19.18
18.88
19.08
20.33
23.35
28.41
34.93
41.48
46.38
48.51
47.69
44.52
39.84
34.13
27.45
19.75
11.41
3.34
-3.31
-7.81
-10.35
-11.90
-13.72
-16.70
-21.19
-27.00
-33.86
-41.45
-49.37
-56.96
-63.10
-66.64
-66.78
-63.68
-58.57
-53.34
-49.69
-48.35
-48.69
-48.85
-46.60
-40.17
-29.10
-14.33
2.10
17.90
31.28
41.38
48.35
52.87
55.71
57.27
57.65
56.79
54.82
52.23
49.71
47.93
47.22
47.47
48.16
48.67
48.44
47.13
44.63
40.87
35.77
29.23
21.15
11.45
0.09
-12.99
-27.75
-43.87
-60.48
-75.98
-88.22
-94.99
-94.80
-87.47
-74.29
-57.77
-40.90
-26.38
-15.95
-10.23
-8.74
-10.35
-13.64
-17.30
-20.39
-22.49
-23.67
-24.39
-25.29
-27.04
-29.93
-33.75
-37.59
-39.88
-38.85
-33.09
-22.14
-6.85
10.76
28.06
42.60
52.78
58.19
59.47
57.92
55.02
51.98
49.54
47.94
47.05
46.57
46.24
45.94
45.66
45.40
45.08
44.47
43.28
41.30
38.44
34.80
30.65
26.31
22.10
18.30
15.09
12.58
10.75
9.45
8.50
7.58
6.36
4.52
1.86
-1.64
-5.80
-10.29
-14.73
-18.81
-22.29
-25.00
-26.76
-27.41
-26.88
-25.38
-23.46
-21.93
-21.54
-22.57
-24.61
-26.50
-26.69
-23.84
-17.34
-7.65
3.79
15.00
24.11
30.02
32.69
33.11
32.92
33.92
37.44
43.90
52.46
61.10
66.99
67.41
60.62
46.62
27.06
4.66
-17.76
-38.14
-55.42
-69.16
-79.17
-85.14
-86.86
-84.63
-79.45
-72.95
-66.71
-61.74
-58.10
-55.10
-51.78
-47.41
-41.83
-35.48
-29.12
-23.56
-19.35
-16.63
-15.16
-14.44
-13.93
-13.22
-12.15
-10.78
-9.38
-8.38
-8.33
-9.73
-12.81
-17.17
-21.66
-24.52
-23.94
-18.69
-8.70
4.82
19.75
33.74
44.97
52.53
56.42
57.34
56.17
53.71
50.43
46.53
42.08
37.18
32.10
27.23
22.95
19.53
16.95
14.97
13.31
11.77
10.48
9.75
9.88
10.87
12.24
13.14
12.60
10.03
5.39
-0.63
-6.90
-12.12
-15.24
-15.62
-13.25
-8.53
-2.26
4.64
11.27
16.79
20.39
21.45
19.76
15.83
10.97
6.87
4.82
4.93
5.81
5.07
0.46
-9.12
-23.05
-39.40
-55.89
-70.73
-82.74
-91.01
-94.33
-91.15
-80.38
-62.33
-39.30
-15.19
5.80
20.69
28.72
31.29
31.01
30.38
30.84
32.49
34.60
36.30
37.15
37.29
37.13
36.99
36.78
36.07
34.31
31.23
27.07
22.48
18.33
15.22
13.20
11.79
10.20
7.84
4.62
1.07
-2.08
-4.32
-5.85
-7.66
-11.07
-17.08
-25.80
-36.37
-47.35
-57.29
-64.98
-69.47
-69.88
-65.36
-55.61
-41.37
-24.78
-8.90
3.29
10.18
12.09
11.10
9.99
10.90
14.39
19.58
24.68
28.07
29.04
27.84
25.40
22.78
20.60
19.07
18.04
17.38
17.15
17.59
18.91
21.06
23.67
26.21
28.11
29.01
28.69
27.07
24.06
19.64
14.00
7.53
0.91
-5.09
-9.88
-13.32
-15.71
-17.63
-19.55
-21.50
-23.11
-23.77
-23.12
-21.30
-19.00
-17.15
-16.47
-17.20
-19.02
-21.18
-22.87
-23.41
-22.58
-20.61
-18.27
-16.71
-17.02
-19.93
-25.23
-31.73
-37.47
-40.42
-39.21
-33.63
-24.62
-13.75
-2.61
7.72
16.67
24.14
30.03
34.19
36.48
36.97
36.14
34.77
33.71
33.50
34.17
35.28
36.18
36.29
35.26
33.12
30.10
26.66
23.30
20.47
18.43
17.10
15.93
14.19
11.17
6.61
0.82
-5.38
-11.11
-15.75
-19.24
-21.98
-24.64
-27.76
-31.78
-36.82
-42.65
-48.63
-53.59
-55.92
-54.04
-46.87
-34.38
-17.77
0.82
18.96
34.57
46.43
54.26
58.48
59.83
58.98
56.40
52.55
47.93
43.24
39.27
36.51
34.98
34.17
33.20
31.27
28.13
24.13
20.13
17.05
15.50
15.54
16.82
18.78
20.82
22.39
22.89
21.57
17.74
11.03
1.81
-8.81
-19.26
-28.26
-35.42
-41.60
-48.41
-57.42
-69.18
-82.85
-96.41
-107.55
-114.55
-116.88
-115.22
-110.89
-105.38
-99.84
-94.94
-90.80
-86.92
-82.26
-75.33
-64.56
-48.88
-28.24
-3.87
21.89
46.26
66.80
82.00
91.60
96.29
97.34
96.11
93.62
90.48
86.88
82.67
77.62
71.64
64.92
58.02
51.74
47.00
44.48
44.42
46.43
49.63
52.81
54.73
54.52
51.82
46.85
40.26
32.96
25.81
19.34
13.78
8.94
4.52
0.33
-3.53
-6.56
-7.95
-6.90
-2.96
3.46
10.97
17.52
21.01
20.17
14.89
6.15
-4.63
-16.42
-28.92
-42.55
-57.86
-75.06
-93.74
-112.88
-130.92
-145.77
-154.84
-155.42
-145.54
-124.93
-95.55
-61.42
-27.39
2.40
25.55
41.56
51.23
55.80
56.40
54.02
49.77
44.99
41.06
39.03
39.17
40.97
43.41
45.42
46.28
45.83
44.49
43.00
42.10
42.29
43.50
45.18
46.48
46.52
44.86
41.51
36.92
31.77
26.90
23.09
21.07
21.13
22.81
24.74
24.88
21.32
13.29
1.66
-11.25
-22.79
-31.26
-36.76
-41.02
-46.43
-54.81
-66.60
-80.85
-95.78
-109.37
-119.68
-124.89
-123.24
-113.47
-95.42
-70.51
-41.90
-13.76
9.94
26.52
35.34
37.59
35.60
31.89
28.39
26.10
25.23
25.43
26.15
26.85
27.20
27.00
26.29
25.22
24.05
23.11
22.66
22.81
23.44
24.13
24.31
23.39
21.03
17.34
12.81
8.23
4.34
1.62
0.12
-0.50
-0.75
-1.10
-1.81
-2.82
-3.89
-4.89
-5.79
-6.92
-8.63
-11.10
-14.11
-17.10
-19.38
-20.53
-20.74
-20.70
-21.46
-23.92
-28.50
-34.96
-42.31
-48.95
-52.94
-52.50
-46.53
-35.02
-19.21
-1.34
16.08
30.90
41.82
48.56
51.56
51.66
49.75
46.64
43.00
39.35
35.96
33.00
30.43
28.15
26.06
24.15
22.45
21.03
20.02
19.45
19.27
19.33
19.29
18.73
17.31
14.85
11.47
7.55
3.56
-0.06
-3.13
-5.71
-8.00
-10.29
-12.71
-15.22
-17.61
-19.62
-21.05
-21.99
-22.71
-23.65
-25.13
-27.31
-30.02
-32.89
-35.50
-37.56
-38.99
-40.04
-41.13
-42.85
-45.79
-50.35
-56.34
-62.83
-68.07
-69.87
-66.27
-56.27
-40.32
-20.26
1.26
21.56
38.68
51.64
60.38
65.31
67.02
66.10
63.12
58.72
53.65
48.56
43.94
39.99
36.66
33.77
31.17
28.88
27.08
26.01
25.82
26.43
27.40
28.06
27.67
25.70
22.10
17.30
12.20
7.65
4.25
2.03
0.49
-1.11
-3.33
-6.30
-9.68
-12.88
-15.46
-17.31
-18.71
-20.16
-22.11
-24.70
-27.79
-31.00
-33.94
-36.38
-38.25
-39.64
-40.81
-42.11
-44.00
-46.94
-51.06
-55.91
-60.25
-62.25
-60.01
-52.37
-39.50
-22.91
-5.05
11.54
25.09
34.86
41.05
44.36
45.47
44.88
42.97
40.14
36.88
33.69
30.94
28.75
27.10
25.99
25.50
25.78
26.92
28.74
30.83
32.61
33.56
33.44
32.23
30.08
27.15
23.50
19.14
14.12
8.58
2.84
-2.73
-7.91
-12.61
-16.99
-21.24
-25.41
-29.38
-32.96
-36.16
-39.28
-42.95
-47.85
-54.37
-62.34
-70.97
-79.08
-85.56
-89.84
-92.09
-93.25
-94.72
-97.92
-103.80
-112.35
-122.56
-132.50
-139.97
-143.27
-142.01
-137.59
-132.94
-131.62
-136.46
-148.21
-164.67
-181.12
-191.62
-190.98
-176.36
-148.00
-108.89
-63.75
-17.60
25.25
61.76
90.43
111.06
124.75
133.54
139.99
146.62
155.17
166.15
178.81
191.69
203.29
212.66
219.58
224.29
227.07
227.83
226.17
221.61
214.02
203.61
190.81
175.94
159.19
140.76
121.23
101.68
83.50
67.97
55.70
46.58
39.95
35.06
31.42
28.73
26.79
25.17
23.32
20.64
16.95
12.49
7.90
3.83
0.57
-1.94
-4.07
-6.15
-8.30
-10.31
-11.94
-13.08
-13.85
-14.52
-15.38
-16.52
-17.72
-18.53
-18.50
-17.35
-15.09
-12.25
-9.66
-8.34
-9.20
-12.67
-18.45
-25.62
-32.76
-38.45
-41.59
-41.77
-39.23
-34.71
-29.13
-23.19
-17.32
-11.43
-5.35
0.96
7.11
12.25
15.29
15.31
12.14
6.44
-0.19
-5.58
-7.29
-3.04
8.75
28.30
53.94
81.94
107.26
124.96
131.67
126.57
111.14
87.99
59.52
27.00
-9.21
-48.91
-91.16
-133.96
-174.71
-210.94
-240.94
-263.58
-277.96
-282.90
-277.04
-259.40
-230.34
-192.09
-148.63
-104.91
-65.55
-33.62
-10.03
6.30
17.68
26.72
35.50
45.24
56.18
67.74
78.68
87.29
92.06
92.21
88.31
82.30
76.86
74.41
76.02
81.04
87.42
92.69
95.14
94.33
91.03
86.48
81.60
76.48
70.49
62.72
52.67
40.56
27.29
14.02
1.68
-9.31
-19.09
-28.06
-36.50
-44.36
-51.30
-57.02
-61.46
-64.97
-68.27
-72.13
-77.16
-83.66
-91.53
-100.29
-108.96
-115.91
-119.08
-116.34
-106.12
-88.07
-63.38
-34.58
-4.93
22.34
44.82
61.23
71.48
76.23
76.65
73.87
68.98
62.82
56.10
49.51
43.79
39.60
37.40
37.22
38.52
40.52
42.47
43.88
44.75
45.19
45.15
44.29
41.93
37.52
31.09
23.33
15.42
8.52
3.16
-0.95
-4.69
-9.10
-14.77
-21.55
-28.66
-35.04
-39.82
-42.70
-44.04
-44.73
-45.94
-48.75
-53.86
-61.31
-70.25
-78.94
-85.08
-86.40
-81.37
-69.84
-53.12
-33.66
-14.32
2.54
15.44
23.99
28.64
30.37
30.32
29.58
29.01
29.07
29.75
30.66
31.23
31.00
29.90
28.22
26.45
25.04
24.17
23.76
23.56
23.27
22.67
21.62
19.98
17.67
14.63
10.93
6.75
2.37
-1.89
-5.81
-9.29
-12.37
-15.16
-17.85
-20.64
-23.73
-27.27
-31.34
-35.81
-40.51
-45.17
-49.58
-53.66
-57.45
-61.23
-65.43
-70.45
-76.41
-82.78
-88.23
-90.78
-88.31
-79.42
-63.97
-43.30
-19.88
3.43
24.17
40.72
52.46
59.59
62.87
63.41
62.40
60.98
59.99
59.89
60.68
61.98
63.25
64.04
64.07
63.31
61.94
60.18
58.29
56.33
54.23
51.80
48.80
45.08
40.65
35.61
30.08
24.17
17.97
11.68
5.56
-0.00
-4.60
-8.00
-10.23
-11.65
-12.83
-14.43
-16.99
-20.84
-26.03
-32.28
-39.02
-45.49
-50.97
-54.97
-57.53
-59.11
-60.67
-63.22
-67.57
-73.99
-81.91
-89.81
-95.38
-95.98
-89.46
-74.87
-53.05
-26.49
1.23
26.57
46.84
60.91
69.04
72.44
72.65
70.98
68.28
65.02
61.43
57.65
53.93
50.54
47.79
45.90
44.98
45.01
45.85
47.30
49.05
50.76
52.05
52.62
52.34
51.21
49.40
47.06
44.25
40.88
36.87
32.15
26.84
21.33
16.18
12.07
9.54
8.82
9.61
11.03
11.71
10.13
5.13
-3.74
-15.96
-30.35
-45.43
-60.03
-73.64
-86.41
-98.94
-111.83
-125.11
-137.93
-148.46
-154.20
-152.71
-142.32
-122.90
-96.01
-64.75
-32.80
-3.59
20.51
38.54
50.78
58.37
62.62
64.66
65.22
64.63
63.10
60.86
58.36
56.15
54.73
54.34
55.01
56.54
58.65
61.13
63.72
66.11
67.84
68.44
67.56
65.18
61.68
57.74
54.15
51.36
49.25
46.99
43.14
36.25
25.32
10.44
-7.23
-25.69
-42.79
-56.74
-66.52
-71.86
-73.00
-70.54
-65.29
-58.13
-49.92
-41.24
-32.35
-23.41
-15.03
-8.53
-6.00
-9.63
-20.73
-38.92
-61.78
-85.13
-103.95
-113.50
-110.56
-94.32
-66.83
-32.70
1.97
31.33
51.42
61.18
62.41
58.73
53.97
50.88
50.61
52.97
57.05
61.99
67.19
72.42
77.57
82.64
87.55
92.15
95.98
98.16
97.44
92.37
81.84
65.71
44.94
21.55
-2.19
-24.41
-44.23
-61.69
-77.36
-91.75
-104.93
-116.60
-126.27
-133.59
-138.46
-140.89
-140.76
-137.72
-131.28
-121.25
-108.05
-93.01
-78.09
-65.43
-56.61
-52.19
-51.70
-53.90
-57.34
-60.78
-63.18
-63.58
-60.85
-53.75
-41.42
-23.85
-2.26
21.00
43.05
61.27
73.88
80.38
81.37
78.30
73.07
67.54
63.16
60.70
60.12
60.76
61.72
62.22
61.94
60.97
59.66
58.32
57.03
55.66
53.99
51.93
49.60
47.31
45.26
43.45
41.53
38.95
35.23
30.22
24.28
18.12
12.55
8.10
4.89
2.66
0.94
-0.71
-2.59
-4.84
-7.54
-10.69
-14.23
-18.03
-21.81
-25.33
-28.37
-30.93
-33.27
-35.90
-39.45
-44.50
-51.16
-58.89
-66.30
-71.27
-71.50
-65.13
-51.55
-31.84
-8.64
14.46
34.00
47.67
54.81
56.47
54.68
51.76
49.64
49.46
51.62
55.76
60.63
64.21
63.94
57.63
44.55
26.24
6.31
-10.71
-21.16
-23.78
-20.08
-13.55
-8.15
-6.71
-10.18
-17.74
-27.64
-38.05
-47.62
-55.47
-60.93
-63.34
-62.10
-57.02
-48.68
-38.53
-28.60
-20.87
-16.48
-15.47
-16.81
-19.05
-20.95
-21.90
-21.98
-21.80
-22.15
-23.85
-27.43
-32.85
-39.12
-44.28
-45.63
-40.70
-28.31
-9.17
14.12
37.89
58.61
73.91
83.03
86.59
86.02
82.81
78.12
72.59
66.44
59.74
52.70
45.86
40.12
36.65
36.43
39.99
47.18
57.19
68.48
78.86
85.68
86.26
78.66
62.35
38.71
10.70
-17.98
-43.98
-65.15
-80.87
-91.73
-98.89
-103.52
-106.49
-108.37
-109.45
-109.75
-109.14
-107.26
-103.80
-98.62
-91.93
-84.36
-76.82
-70.48
-66.49
-65.64
-68.03
-72.68
-77.64
-80.21
-77.82
-68.79
-52.96
-31.78
-7.85
15.87
36.91
53.81
66.16
74.30
79.00
81.06
81.24
80.19
78.44
76.31
73.93
71.31
68.44
65.37
62.28
59.38
56.86
54.75
52.98
51.40
49.84
48.13
46.10
43.60
40.47
36.64
32.05
26.73
20.80
14.50
8.20
2.31
-2.82
-7.05
-10.52
-13.65
-16.95
-20.81
-25.38
-30.59
-36.14
-41.65
-46.67
-50.77
-53.71
-55.48
-56.54
-57.67
-59.80
-63.46
-68.44
-73.43
-76.33
-74.84
-67.33
-53.53
-34.76
-13.61
7.01
24.61
37.77
46.32
50.92
52.61
52.38
50.95
48.78
46.19
43.51
41.01
38.97
37.54
36.75
36.42
36.32
36.15
35.71
34.99
34.05
33.04
31.87
30.25
27.76
24.07
19.13
13.43
7.74
2.86
-0.64
-2.69
-3.78
-4.68
-6.17
-8.76
-12.49
-16.98
-21.62
-25.86
-29.43
-32.50
-35.56
-39.24
-44.08
-50.37
-58.02
-66.43
-74.45
-80.44
-82.54
-79.11
-69.41
-53.91
-34.45
-13.70
5.55
21.30
32.68
40.01
44.32
46.67
47.80
47.96
47.15
45.38
42.93
40.26
37.89
36.11
34.88
33.97
33.05
31.98
30.84
29.88
29.29
29.07
28.92
28.38
27.05
24.81
21.88
18.69
15.65
12.99
10.57
8.16
5.47
2.44
-0.72
-3.69
-6.16
-8.06
-9.59
-11.18
-13.30
-16.28
-20.15
-24.59
-28.99
-32.75
-35.50
-37.30
-38.77
-40.70
-43.96
-49.02
-55.88
-63.92
-71.98
-78.39
-81.27
-78.84
-69.98
-54.71
-34.38
-11.45
11.10
30.56
45.19
54.44
58.79
59.47
57.96
55.76
54.03
53.45
54.23
56.09
58.44
60.52
61.44
60.25
56.16
48.83
38.78
27.52
17.28
10.04
6.81
7.01
8.92
10.56
10.76
9.57
7.89
6.55
5.55
3.98
0.63
-5.17
-12.91
-21.04
-27.70
-31.51
-32.19
-30.45
-27.57
-24.85
-23.18
-22.98
-24.27
-26.70
-29.83
-33.06
-35.91
-38.18
-40.07
-42.36
-46.00
-51.75
-59.54
-68.24
-75.69
-79.31
-76.92
-67.60
-52.00
-32.07
-10.54
10.05
27.78
41.64
51.30
56.89
58.75
57.45
53.80
48.85
43.68
39.28
36.27
35.04
35.77
38.52
43.09
48.86
54.58
58.58
59.10
54.86
45.38
31.07
13.03
-7.08
-27.17
-44.62
-56.61
-60.56
-55.02
-40.35
-18.99
5.19
27.89
45.68
56.64
60.50
58.04
50.50
39.11
25.05
9.54
-6.04
-20.31
-32.22
-41.45
-48.52
-54.70
-61.47
-69.85
-79.70
-89.39
-96.13
-96.84
-89.34
-73.30
-50.54
-24.39
1.46
24.15
42.29
55.84
65.49
71.88
75.33
75.91
73.86
69.82
64.80
59.76
55.31
51.47
47.95
44.44
40.93
37.74
35.28
33.77
33.04
32.51
31.49
29.45
26.34
22.53
18.64
15.27
12.68
10.79
9.21
7.42
5.01
1.76
-2.30
-6.94
-11.71
-16.12
-19.73
-22.32
-23.95
-24.88
-25.41
-25.63
-25.31
-24.05
-21.50
-17.68
-13.03
-8.22
-3.93
-0.54
1.74
2.85
2.75
1.62
-0.02
-1.41
-2.00
-1.95
-2.48
-5.48
-12.71
-24.78
-40.70
-58.11
-74.19
-86.55
-93.91
-96.00
-93.25
-86.36
-76.09
-63.35
-49.21
-34.85
-21.30
-9.23
1.11
9.81
17.16
23.45
28.90
33.61
37.51
40.43
42.00
41.94
40.06
36.53
31.81
26.57
21.47
16.88
12.79
8.85
4.67
0.07
-4.75
-9.27
-12.97
-15.62
-17.52
-19.36
-22.00
-26.16
-32.14
-39.74
-48.19
-56.20
-62.05
-63.86
-60.15
-50.31
-35.02
-16.22
3.45
21.36
35.58
45.30
50.66
52.44
51.61
49.03
45.40
41.22
36.85
32.57
28.58
25.02
22.08
19.96
18.85
18.86
19.84
21.41
22.91
23.74
23.37
21.53
18.30
14.00
9.19
4.49
0.48
-2.38
-3.89
-4.19
-3.69
-2.92
-2.32
-2.08
-2.16
-2.44
-2.93
-3.81
-5.34
-7.65
-10.56
-13.60
-16.19
-17.99
-19.04
-19.83
-21.12
-23.69
-28.00
-34.00
-40.92
-47.23
-50.86
-49.66
-42.09
-27.91
-8.43
13.59
34.72
51.81
62.89
67.52
66.73
62.47
56.95
52.15
49.44
49.49
52.16
56.41
60.40
61.90
59.00
50.86
38.22
23.20
8.54
-3.45
-11.76
-16.86
-20.25
-23.65
-28.19
-34.12
-40.93
-47.77
-53.76
-58.16
-60.41
-60.16
-57.32
-52.17
-45.47
-38.32
-31.99
-27.55
-25.57
-25.98
-28.16
-31.15
-33.97
-35.90
-36.60
-36.27
-35.50
-35.12
-36.06
-38.97
-44.05
-50.68
-57.40
-62.11
-62.58
-57.15
-45.39
-28.32
-8.22
12.12
30.14
44.18
53.63
58.84
60.54
59.62
56.78
52.59
47.52
42.00
36.53
31.58
27.51
24.55
22.77
22.06
22.22
23.03
24.19
25.41
26.27
26.34
25.21
22.69
18.90
14.31
9.53
5.15
1.45
-1.66
-4.59
-7.88
-11.90
-16.64
-21.71
-26.48
-30.38
-33.23
-35.34
-37.45
-40.45
-44.98
-51.08
-58.01
-64.25
-67.85
-66.88
-60.05
-47.27
-29.70
-9.49
10.85
29.11
43.93
54.76
61.73
65.27
65.89
64.22
60.95
56.84
52.55
48.44
44.57
40.82
37.07
33.36
29.94
27.13
25.14
23.98
23.47
23.32
23.18
22.75
21.76
20.00
17.31
13.70
9.32
4.48
-0.41
-4.91
-8.67
-11.56
-13.72
-15.51
-17.36
-19.68
-22.65
-26.17
-30.00
-33.77
-37.14
-39.87
-41.93
-43.53
-45.14
-47.41
-50.99
-56.19
-62.53
-68.64
-72.35
-71.33
-63.93
-49.89
-30.59
-8.78
12.37
30.16
43.07
50.88
54.39
54.77
53.20
50.59
47.56
44.58
41.98
39.97
38.54
37.50
36.56
35.55
34.46
33.46
32.76
32.51
32.63
32.85
32.70
31.78
29.80
26.71
22.76
18.33
13.86
9.62
5.77
2.26
-0.97
-3.99
-6.76
-9.24
-11.36
-13.14
-14.71
-16.25
-18.03
-20.25
-23.05
-26.39
-30.02
-33.56
-36.63
-38.96
-40.54
-41.73
-43.15
-45.59
-49.70
-55.60
-62.51
-68.65
-71.64
-69.14
-59.87
-44.15
-24.01
-2.49
17.24
32.88
43.48
49.30
51.45
51.14
49.39
46.83
43.76
40.32
36.62
32.82
29.15
25.91
23.33
21.60
20.77
20.80
21.50
22.69
24.13
25.52
26.51
26.66
25.60
23.16
19.44
14.93
10.25
5.96
2.34
-0.75
-3.70
-6.90
-10.51
-14.39
-18.18
-21.57
-24.42
-26.84
-29.10
-31.38
-33.66
-35.74
-37.32
-38.27
-38.72
-39.20
-40.45
-43.27
-48.00
-54.26
-60.75
-65.43
-66.04
-60.89
-49.45
-32.71
-12.90
7.22
25.09
39.08
48.66
54.22
56.67
56.97
55.87
53.85
51.19
48.13
45.00
42.17
40.13
39.29
39.80
41.46
43.67
45.72
47.05
47.50
47.39
47.29
47.75
49.05
51.08
53.43
55.39
56.05
54.28
48.86
38.81
23.80
4.53
-17.22
-38.95
-58.10
-72.77
-82.25
-86.97
-88.14
-87.12
-84.84
-81.66
-77.61
-72.64
-66.97
-61.13
-55.72
-51.19
-47.70
-45.20
-43.71
-43.65
-45.65
-50.25
-57.19
-65.00
-71.06
-72.44
-66.95
-54.16
-35.63
-14.45
5.94
22.94
35.58
44.49
51.24
57.37
63.68
69.99
75.43
78.89
79.60
77.38
72.59
65.98
58.39
50.55
43.05
36.33
30.82
26.86
24.65
24.09
24.73
25.85
26.71
26.70
25.52
23.18
19.91
16.00
11.76
7.50
3.54
0.17
-2.50
-4.64
-6.70
-9.22
-12.68
-17.15
-22.40
-27.98
-33.43
-38.42
-42.84
-46.59
-49.63
-52.00
-54.00
-56.20
-59.22
-63.26
-67.64
-70.70
-70.18
-64.09
-51.59
-33.48
-12.14
9.34
28.11
42.40
51.75
56.78
58.62
58.35
56.73
54.18
50.88
47.05
42.92
38.85
35.24
32.44
30.70
30.08
30.44
31.42
32.56
33.40
33.60
33.04
31.73
29.74
27.07
23.67
19.48
14.60
9.25
3.87
-1.11
-5.35
-8.74
-11.39
-13.62
-15.84
-18.49
-21.85
-26.01
-30.73
-35.57
-40.02
-43.62
-46.16
-47.77
-48.89
-50.19
-52.41
-56.12
-61.45
-67.77
-73.60
-76.76
-75.00
-66.69
-51.59
-31.03
-7.69
15.25
34.95
49.61
58.72
62.77
62.90
60.38
56.39
51.85
47.53
43.92
41.29
39.57
38.43
37.39
35.98
33.98
31.40
28.58
25.97
23.88
22.43
21.43
20.47
19.07
16.96
14.19
11.11
8.21
5.86
4.09
2.48
0.43
-2.54
-6.48
-10.94
-15.17
-18.50
-20.77
-22.45
-24.40
-27.43
-31.87
-37.30
-42.75
-47.10
-49.61
-50.26
-49.74
-49.26
-50.13
-53.41
-59.64
-68.65
-79.45
-90.26
-98.73
-102.46
-99.78
-90.32
-75.31
-57.19
-38.72
-21.94
-7.58
4.93
16.81
29.03
41.84
54.76
66.92
77.66
86.69
94.02
99.69
103.51
105.14
104.37
101.34
96.75
91.58
86.78
82.83
79.58
76.29
71.97
65.76
57.30
46.86
35.16
23.17
11.74
1.46
-7.41
-14.82
-20.88
-25.82
-29.88
-33.37
-36.55
-39.60
-42.50
-45.07
-47.10
-48.42
-49.14
-49.64
-50.58
-52.75
-56.80
-63.02
-70.88
-79.00
-85.13
-86.74
-81.74
-69.25
-50.17
-26.92
-2.83
18.85
35.85
47.28
53.55
55.78
55.25
52.87
49.20
44.53
39.14
33.52
28.24
23.93
20.99
19.53
19.32
19.90
20.85
21.83
22.71
23.41
23.86
23.76
22.73
20.34
16.34
10.88
4.47
-1.97
-7.44
-11.14
-12.75
-12.62
-11.63
-10.99
-11.73
-14.39
-18.85
-24.48
-30.45
-36.06
-40.98
-45.21
-49.05
-52.82
-56.80
-61.23
-66.25
-71.75
-77.26
-81.74
-83.58
-81.02
-72.69
-58.25
-38.71
-16.16
6.74
27.70
45.24
58.87
68.73
75.21
78.70
79.65
78.74
76.93
75.20
74.14
73.79
73.72
73.49
73.08
73.14
74.59
78.11
83.57
90.01
95.95
99.78
100.14
95.93
86.39
71.12
50.41
25.38
-2.06
-29.62
-55.20
-77.31
-95.19
-108.39
-116.49
-119.04
-115.76
-107.12
-94.58
-80.49
-67.33
-57.03
-50.33
-46.76
-45.13
-44.19
-43.30
-42.54
-42.62
-44.41
-48.51
-54.81
-62.44
-69.78
-74.81
-75.50
-70.34
-58.88
-41.94
-21.53
-0.28
19.20
35.05
46.46
53.58
57.18
58.13
57.00
53.98
49.00
42.04
33.50
24.40
16.25
10.80
9.41
12.74
20.46
31.35
43.55
54.80
62.85
65.88
63.07
55.03
43.73
31.90
21.92
14.85
9.85
4.67
-3.40
-16.18
-33.62
-53.69
-72.92
-87.55
-94.63
-92.87
-82.85
-66.68
-47.38
-28.06
-11.41
0.61
6.64
5.97
-1.34
-14.08
-29.62
-44.17
-53.49
-54.22
-44.97
-26.85
-3.08
22.15
45.07
63.27
76.09
84.13
88.55
90.29
89.81
87.20
82.52
76.07
68.50
60.57
52.96
46.08
40.07
34.93
30.72
27.59
25.71
25.13
25.55
26.38
26.78
25.93
23.33
19.08
13.69
8.04
2.91
-1.20
-4.17
-6.21
-7.55
-8.32
-8.49
-8.05
-7.22
-6.60
-7.15
-9.76
-14.85
-21.93
-29.60
-36.07
-39.80
-40.27
-38.26
-35.62
-34.60
-37.17
-44.43
-56.53
-72.63
-90.96
-108.75
-122.40
-128.10
-122.85
-105.61
-77.97
-43.96
-8.86
22.36
46.37
62.09
70.36
73.05
72.13
69.20
65.30
61.07
57.00
53.38
50.36
47.86
45.72
43.74
41.85
40.10
38.58
37.39
36.41
35.45
34.11
32.01
28.80
24.22
18.21
10.96
2.92
-5.24
-12.81
-19.29
-24.50
-28.73
-32.55
-36.55
-41.15
-46.31
-51.58
-56.26
-59.63
-61.29
-61.32
-60.35
-59.37
-59.52
-61.64
-65.91
-71.66
-77.30
-80.63
-79.46
-72.19
-58.44
-39.32
-17.16
5.11
24.82
40.38
51.62
59.56
65.71
71.39
77.22
83.10
88.44
92.49
94.72
94.94
93.44
90.78
87.44
83.28
77.34
67.98
53.66
33.85
9.73
-15.87
-39.42
-57.76
-69.16
-73.52
-72.01
-66.26
-57.85
-48.11
-38.15
-29.02
-21.66
-16.81
-14.86
-15.74
-18.98
-23.72
-28.90
-33.37
-36.31
-37.39
-36.98
-35.96
-35.50
-36.55
-39.64
-44.70
-51.15
-57.86
-63.28
-65.62
-63.17
-54.82
-40.47
-21.33
0.29
21.52
39.79
53.44
62.00
66.12
67.03
66.08
64.30
62.35
60.46
58.63
56.69
54.47
51.95
49.23
46.58
44.33
42.82
42.25
42.57
43.44
44.21
44.02
42.01
37.68
31.09
23.00
14.68
7.44
2.22
-0.80
-2.10
-2.59
-3.10
-4.09
-5.60
-7.35
-9.10
-10.78
-12.59
-14.92
-18.16
-22.25
-26.66
-30.36
-32.21
-31.66
-29.06
-25.78
-23.73
-24.53
-28.82
-35.88
-43.75
-49.75
-50.93
-44.81
-29.97
-6.69
22.66
53.88
81.80
101.71
110.66
108.13
95.73
76.31
52.91
28.17
4.21
-17.17
-34.46
-46.65
-53.47
-55.46
-53.69
-49.28
-43.10
-35.79
-27.87
-19.97
-12.84
-7.22
-3.50
-1.76
-1.68
-2.88
-4.94
-7.58
-10.53
-13.57
-16.49
-19.14
-21.45
-23.36
-24.82
-25.78
-26.25
-26.38
-26.48
-26.95
-28.06
-29.79
-31.82
-33.64
-34.86
-35.39
-35.63
-36.47
-39.05
-44.26
-52.17
-61.63
-70.12
-74.25
-70.80
-57.82
-35.51
-6.29
25.79
55.99
80.11
95.19
100.02
95.16
82.70
65.74
47.65
31.11
17.45
6.56
-2.63
-11.12
-18.97
-24.94
-26.98
-23.22
-12.97
2.68
21.10
38.93
53.24
62.30
65.87
64.82
60.48
54.00
46.16
37.46
28.43
19.93
12.99
8.43
6.42
6.20
6.33
5.27
2.02
-3.45
-10.17
-16.72
-21.79
-24.79
-26.02
-26.57
-27.73
-30.61
-35.72
-42.91
-51.39
-59.89
-66.67
-69.76
-67.30
-58.04
-41.86
-19.95
5.39
31.35
55.35
75.61
91.26
102.08
108.06
109.13
105.12
95.98
82.06
64.26
44.02
23.16
3.55
-13.22
-26.07
-34.66
-39.30
-40.79
-40.06
-37.96
-35.11
-31.96
-28.88
-26.21
-24.30
-23.35
-23.35
-24.09
-25.17
-26.27
-27.19
-27.86
-28.29
-28.47
-28.27
-27.46
-25.87
-23.49
-20.63
-17.81
-15.68
-14.73
-15.11
-16.62
-18.80
-21.21
-23.66
-26.33
-29.74
-34.45
-40.67
-47.89
-54.66
-58.82
-58.03
-50.66
-36.53
-17.22
4.33
24.73
41.22
52.44
58.48
60.42
59.61
57.08
53.42
48.93
43.95
39.00
34.71
31.51
29.52
28.43
27.76
27.13
26.49
26.08
26.22
27.11
28.52
29.86
30.37
29.34
26.48
21.95
16.26
10.18
4.40
-0.60
-4.70
-8.05
-11.04
-14.07
-17.37
-20.94
-24.55
-27.91
-30.80
-33.22
-35.41
-37.91
-41.38
-46.47
-53.47
-61.91
-70.47
-76.96
-78.92
-74.30
-62.31
-43.82
-21.24
2.17
23.33
40.15
51.84
58.81
62.09
62.84
61.98
60.10
57.58
54.69
51.66
48.74
46.11
43.94
42.42
41.78
42.25
43.90
46.49
49.39
51.66
52.23
50.26
45.42
38.02
28.92
19.17
9.72
1.13
-6.37
-12.81
-18.26
-22.77
-26.33
-29.00
-30.95
-32.47
-33.93
-35.60
-37.66
-40.15
-43.02
-46.24
-49.81
-53.78
-58.25
-63.38
-69.38
-76.39
-84.44
-93.16
-101.59
-107.97
-110.11
-105.79
-93.66
-73.92
-48.55
-20.90
5.34
27.13
42.90
52.64
57.41
58.66
57.79
55.84
53.55
51.48
50.00
49.29
49.23
49.50
49.75
49.70
49.31
48.76
48.32
48.29
48.74
49.46
49.85
49.10
46.42
41.36
34.03
25.09
15.55
6.45
-1.43
-7.61
-11.97
-14.62
-15.79
-15.77
-14.96
-13.85
-13.15
-13.68
-16.25
-21.31
-28.64
-37.36
-46.03
-53.26
-58.22
-61.07
-62.88
-65.32
-69.97
-77.78
-88.61
-101.08
-112.66
-120.17
-120.76
-112.72
-96.25
-73.57
-48.17
-23.72
-3.00
12.79
23.87
31.37
36.58
40.63
44.20
47.75
51.50
55.53
59.79
64.08
68.20
71.97
75.36
78.40
81.17
83.70
85.97
87.96
89.56
90.63
90.95
90.20
88.07
84.31
78.79
71.56
62.92
53.44
43.86
34.96
27.35
21.22
16.34
12.24
8.51
5.19
2.71
1.49
1.36
1.14
-1.23
-8.03
-20.98
-40.69
-66.51
-96.83
-129.25
-160.54
-186.45
-202.00
-202.55
-185.48
-151.60
-105.71
-55.25
-8.07
30.01
56.60
72.65
81.12
85.31
87.74
89.64
91.23
92.11
91.66
89.31
84.69
77.80
69.12
59.47
49.87
41.17
33.98
28.60
25.01
22.97
22.01
21.48
20.61
18.88
16.12
12.63
8.93
5.50
2.45
-0.51
-3.83
-7.87
-12.64
-17.88
-23.16
-28.19
-32.95
-37.60
-42.37
-47.34
-52.44
-57.45
-62.12
-66.31
-70.01
-73.39
-76.85
-80.89
-85.99
-92.23
-98.98
-104.66
-107.02
-103.69
-93.12
-75.35
-52.16
-26.57
-1.98
18.96
34.82
45.44
51.52
54.08
54.12
52.48
49.88
46.94
44.08
41.60
39.57
38.01
36.87
36.09
35.59
35.33
35.26
35.45
35.95
36.72
37.49
37.77
37.05
34.93
31.45
26.94
22.02
17.26
13.07
9.63
6.91
4.76
2.94
1.11
-1.14
-4.16
-8.15
-13.00
-18.31
-23.47
-27.88
-31.23
-33.61
-35.60
-38.14
-42.23
-48.54
-57.00
-66.49
-74.93
-79.68
-78.37
-69.70
-54.00
-33.25
-10.52
11.03
28.91
41.92
50.13
54.36
55.76
55.28
53.61
51.25
48.65
46.23
44.34
43.15
42.57
42.39
42.38
42.47
42.79
43.54
44.83
46.53
48.16
49.09
48.67
46.58
42.92
38.14
32.91
27.79
23.04
18.64
14.33
9.86
5.18
0.52
-3.86
-7.75
-11.22
-14.59
-18.25
-22.49
-27.31
-32.48
-37.64
-42.48
-46.84
-50.76
-54.49
-58.40
-63.04
-68.90
-76.26
-84.73
-92.99
-98.81
-99.61
-93.32
-79.29
-58.69
-34.24
-9.32
13.06
31.04
44.13
52.85
58.24
61.32
62.93
63.66
63.82
63.55
62.81
61.42
59.30
56.50
53.33
50.31
47.94
46.60
46.36
47.02
48.16
49.23
49.71
49.15
47.31
44.14
39.86
34.88
29.69
24.68
20.08
15.82
11.73
7.59
3.29
-0.98
-4.90
-8.12
-10.57
-12.47
-14.40
-16.99
-20.66
-25.36
-30.64
-35.75
-40.08
-43.43
-46.04
-48.57
-51.78
-56.33
-62.43
-69.74
-77.19
-82.94
-84.71
-80.36
-68.69
-50.07
-26.58
-1.45
21.89
40.88
54.38
62.59
66.49
67.14
65.34
61.56
56.26
50.05
43.76
38.19
33.84
30.77
28.68
27.12
25.83
24.89
24.65
25.57
27.95
31.71
36.40
41.30
45.53
48.21
48.51
45.72
39.38
29.57
16.90
2.53
-12.27
-26.52
-39.76
-52.02
-63.37
-73.64
-82.27
-88.63
-92.46
-94.07
-94.25
-93.68
-92.58
-90.51
-86.72
-80.76
-72.87
-64.13
-56.13
-50.50
-48.24
-49.29
-52.30
-54.95
-54.43
-48.52
-36.32
-18.77
1.65
21.82
39.00
51.65
59.54
63.37
64.06
62.23
58.17
52.09
44.49
36.33
28.89
23.36
20.45
20.20
21.99
24.86
27.82
30.15
31.50
31.85
31.30
29.91
27.56
23.99
18.99
12.54
4.98
-2.97
-10.37
-16.40
-20.69
-23.40
-25.27
-27.26
-30.13
-34.15
-39.00
-43.99
-48.36
-51.69
-54.00
-55.81
-57.85
-60.90
-65.55
-72.05
-80.15
-88.81
-96.25
-100.08
-97.94
-88.31
-71.17
-48.23
-22.47
2.81
24.91
42.40
55.14
63.80
69.40
72.73
74.37
74.70
74.09
72.88
71.45
70.03
68.75
67.68
66.83
66.24
65.93
65.83
65.79
65.59
65.02
64.01
62.58
60.91
59.12
57.20
54.87
51.62
46.86
40.21
31.67
21.82
11.77
2.89
-3.67
-7.44
-8.96
-9.76
-11.77
-16.50
-24.25
-33.81
-42.97
-49.64
-52.97
-53.82
-54.59
-58.19
-66.94
-81.68
-101.63
-124.34
-146.19
-162.79
-169.85
-164.20
-144.92
-113.93
-75.75
-36.31
-1.16
25.94
43.77
53.18
56.19
55.06
51.60
47.11
42.41
38.13
34.69
32.29
30.83
29.99
29.32
28.51
27.56
26.82
26.86
28.13
30.66
33.92
36.97
38.87
39.00
37.33
34.36
30.78
27.05
23.25
19.12
14.32
8.71
2.55
-3.66
-9.35
-14.15
-18.15
-21.81
-25.89
-31.22
-38.26
-46.87
-56.05
-63.99
-68.48
-67.55
-60.10
-46.44
-28.17
-7.76
12.23
29.75
43.66
53.66
60.04
63.29
64.03
62.75
60.00
56.40
52.60
49.27
46.91
45.79
45.88
46.86
48.33
49.83
51.06
51.84
52.08
51.61
50.13
47.21
42.37
35.37
26.27
15.55
3.93
-7.70
-18.63
-28.43
-37.06
-44.78
-52.02
-59.11
-66.16
-72.88
-78.68
-82.81
-84.79
-84.61
-82.93
-80.96
-80.10
-81.51
-85.72
-92.35
-100.03
-106.50
-109.02
-105.15
-93.44
-74.00
-48.70
-20.64
6.67
30.27
48.36
60.50
67.29
69.95
69.85
68.22
66.05
64.04
62.50
61.38
60.31
58.88
56.76
54.01
50.95
48.05
45.73
44.20
43.35
42.81
42.09
40.71
38.34
34.91
30.59
25.75
20.79
16.03
11.64
7.59
3.77
0.10
-3.42
-6.76
-9.90
-12.90
-15.92
-19.17
-22.74
-26.58
-30.47
-34.07
-37.15
-39.61
-41.64
-43.68
-46.35
-50.32
-56.15
-63.96
-73.19
-82.39
-89.37
-91.62
-87.17
-75.31
-57.04
-34.87
-12.02
8.54
24.86
36.35
43.45
47.20
48.69
48.79
48.09
47.03
45.89
44.82
43.84
42.86
41.78
40.67
39.75
39.32
39.61
40.64
42.15
43.64
44.60
44.66
43.65
41.61
38.73
35.16
31.08
26.66
22.15
17.84
14.05
11.00
8.72
6.94
5.17
2.82
-0.56
-5.07
-10.37
-15.76
-20.46
-23.89
-25.99
-27.21
-28.43
-30.59
-34.45
-40.23
-47.45
-54.90
-60.73
-62.81
-59.22
-48.85
-31.83
-9.68
15.14
39.91
62.59
82.17
98.63
112.28
123.11
130.56
133.88
132.74
127.81
120.71
113.26
106.59
100.46
93.26
82.81
67.44
46.90
22.51
-3.25
-27.67
-48.66
-65.23
-77.51
-86.41
-93.04
-98.19
-102.02
-104.12
-103.82
-100.78
-95.18
-87.86
-79.95
-72.49
-65.98
-60.33
-55.11
-49.86
-44.53
-39.47
-35.38
-32.87
-32.26
-33.43
-35.88
-38.91
-41.88
-44.50
-46.84
-49.32
-52.45
-56.56
-61.61
-67.11
-72.07
-75.24
-75.15
-70.49
-60.40
-44.86
-24.86
-2.36
20.14
40.16
55.90
66.51
72.15
73.65
72.17
68.82
64.54
60.07
55.92
52.36
49.46
47.13
45.23
43.61
42.30
41.37
41.02
41.43
42.66
44.57
46.72
48.44
49.03
48.06
45.52
41.92
37.97
34.30
31.06
27.93
24.39
19.94
14.43
7.94
0.67
-7.28
-15.79
-24.56
-33.06
-40.65
-46.86
-51.65
-55.46
-58.86
-62.29
-65.81
-69.21
-72.19
-74.58
-76.37
-77.47
-77.62
-76.31
-73.05
-67.69
-60.57
-52.55
-44.69
-37.86
-32.43
-28.08
-23.88
-18.57
-10.95
-0.33
13.20
28.66
44.38
58.44
69.20
75.80
78.39
77.89
75.70
72.99
70.37
67.89
65.22
62.15
58.79
55.58
53.00
51.28
50.25
49.33
47.93
45.61
42.35
38.41
34.17
29.88
25.59
21.25
16.79
12.49
8.76
6.13
4.94
5.10
6.16
7.42
8.21
8.07
6.80
4.42
1.07
-2.99
-7.41
-11.76
-15.61
-18.74
-21.10
-22.85
-24.20
-25.29
-26.16
-26.73
-27.01
-27.08
-27.11
-27.14
-27.13
-26.83
-26.01
-24.55
-22.48
-19.99
-17.37
-14.88
-12.67
-10.82
-9.29
-7.95
-6.70
-5.52
-4.47
-3.72
-3.42
-3.65
-4.32
-5.17
-5.90
-6.28
-6.21
-5.75
-5.01
-4.17
-3.33
-2.63
-2.13
-1.89
-1.95
-2.28
-2.78
-3.30
-3.71
-3.91
-3.87
-3.64
-3.28
-2.85
-2.36
-1.85
-1.35
-0.96
-0.73
-0.76
-1.04
-1.50
-2.05
-2.60
-3.08
-3.47
-3.74
-3.87
-3.85
-3.72
-3.55
-3.43
-3.39
-3.46
-3.60
-3.80
-4.10
-4.50
-4.93
-5.19
-5.05
-4.41
-3.39
-2.36
-1.75
-1.77
-2.32
-2.95
-3.20
-2.79
-1.80
-0.66
0.15
0.31
-0.19
-1.12
-2.14
-2.94
-3.44
-3.72
-3.90
-4.09
-4.29
-4.45
-4.50
-4.42
-4.32
-4.32
-4.52
-4.96
-5.54
-6.05
-6.28
-6.16
-5.70
-5.06
-4.45
-4.05
-3.95
-4.07
-4.28
-4.38
-4.23
-3.80
-3.19
-2.52
-1.87
-1.25
-0.59
0.20
1.14
2.21
3.33
4.39
5.24
5.74
5.81
5.45
4.73
3.86
3.04
2.37
1.88
1.49
1.17
1.00
1.20
1.89
3.09
4.50
5.71
6.36
6.35
5.88
5.38
5.34
5.99
7.35
9.08
10.74
11.88
12.24
11.84
10.96
10.09
9.64
9.96
11.06
12.78
14.83
16.87
18.64
20.00
20.94
21.57
22.22
23.20
24.80
27.10
29.89
32.73
35.06
36.31
36.19
34.64
31.90
28.31
24.22
19.89
15.35
10.47
5.05
-1.03
-7.64
-14.42
-20.76
-26.03
-29.74
-31.65
-31.84
-30.57
-28.23
-25.22
-22.03
-19.13
-17.01
-16.03
-16.20
-17.26
-18.70
-20.07
-21.15
-22.09
-23.22
-24.87
-27.11
-29.71
-32.27
-34.49
-36.31
-37.93
-39.61
-41.43
-43.10
-44.12
-44.03
-42.67
-40.40
-37.96
-36.21
-35.88
-37.38
-40.69
-45.36
-50.45
-54.50
-55.70
-52.29
-43.27
-28.85
-10.71
8.50
25.91
39.35
47.90
51.80
52.15
50.25
47.17
43.58
39.85
36.14
32.61
29.46
26.82
24.83
23.57
23.10
23.39
24.33
25.66
26.90
27.52
26.91
24.71
20.85
15.67
9.90
4.39
-0.21
-3.60
-6.02
-8.06
-10.40
-13.45
-17.26
-21.38
-25.25
-28.37
-30.50
-31.81
-32.77
-34.03
-36.16
-39.43
-43.49
-47.32
-49.31
-47.76
-41.50
-30.49
-15.91
0.11
15.18
27.40
35.80
40.39
41.93
41.37
39.54
36.99
34.00
30.72
27.30
23.95
20.95
18.45
16.52
15.10
14.04
13.25
12.81
12.89
13.61
14.86
16.20
16.94
16.40
14.22
10.50
5.83
0.98
-3.29
-6.53
-8.68
-10.01
-10.98
-12.02
-13.36
-14.87
-16.12
-16.54
-15.72
-13.71
-11.06
-8.74
-7.81
-9.13
-13.02
-19.20
-26.78
-34.33
-40.08
-42.24
-39.46
-31.28
-18.46
-2.88
12.92
26.55
36.40
42.04
44.01
43.36
41.14
38.11
34.74
31.30
27.99
24.97
22.28
19.81
17.33
14.65
11.78
8.91
6.43
4.78
4.29
4.98
6.56
8.39
9.59
9.31
7.01
2.78
-2.63
-8.03
-12.22
-14.58
-15.26
-15.21
-15.63
-17.52
-21.16
-26.10
-31.41
-36.11
-39.55
-41.54
-42.41
-42.82
-43.67
-45.90
-50.20
-56.66
-64.39
-71.53
-75.57
-74.11
-65.73
-50.58
-30.42
-8.01
13.69
32.40
46.88
57.01
63.23
66.24
66.68
65.05
61.84
57.53
52.66
47.66
42.81
38.30
34.35
31.34
29.81
30.20
32.65
36.78
41.69
46.17
48.97
49.11
45.88
38.99
28.64
15.58
1.19
-12.74
-24.45
-32.71
-37.18
-38.39
-37.34
-35.07
-32.31
-29.46
-26.77
-24.65
-23.66
-24.43
-27.25
-31.91
-37.57
-42.87
-46.27
-46.25
-41.77
-32.48
-18.91
-2.35
15.29
31.90
45.63
55.18
60.07
60.67
58.04
53.59
48.64
44.06
40.01
36.21
32.17
27.71
23.13
19.05
16.15
14.96
15.61
18.03
21.99
27.10
32.68
37.67
40.62
40.07
35.09
25.64
12.72
-1.89
-16.28
-28.77
-38.29
-44.37
-47.02
-46.60
-43.84
-39.72
-35.43
-32.17
-30.83
-31.66
-34.16
-37.30
-39.91
-41.18
-41.05
-40.19
-39.79
-41.09
-44.99
-51.68
-60.49
-69.85
-77.47
-80.80
-77.58
-66.70
-48.56
-25.31
-0.24
23.11
41.99
55.03
62.36
65.03
64.35
61.48
57.18
52.05
46.63
41.46
36.94
33.19
30.03
27.16
24.41
21.88
19.91
18.85
18.72
19.12
19.23
18.16
15.33
10.77
5.11
-0.69
-5.72
-9.51
-12.04
-13.66
-14.76
-15.51
-15.86
-15.68
-14.94
-13.84
-12.75
-12.10
-12.27
-13.45
-15.59
-18.49
-21.72
-24.83
-27.50
-29.80
-32.32
-35.92
-41.33
-48.46
-55.98
-61.39
-61.79
-54.89
-40.09
-18.92
5.51
29.46
49.93
65.45
76.18
83.31
88.07
91.05
92.16
91.11
87.96
83.54
79.18
76.08
74.81
75.05
75.92
76.33
75.41
72.52
67.24
59.39
49.32
38.05
27.09
17.88
10.81
4.75
-2.62
-13.81
-30.15
-50.95
-73.65
-94.85
-111.68
-122.64
-127.69
-127.62
-123.40
-115.83
-105.73
-94.26
-83.16
-74.36
-69.23
-68.05
-69.62
-71.89
-72.68
-70.77
-66.29
-60.60
-55.71
-53.20
-53.47
-55.31
-56.23
-53.23
-43.96
-27.66
-5.51
19.68
44.58
66.35
83.42
95.54
103.29
107.40
108.27
106.10
101.05
93.67
84.98
76.23
68.60
62.88
59.28
57.41
56.42
55.16
52.54
47.76
40.69
31.97
22.91
14.98
9.32
6.26
5.23
5.00
4.19
1.72
-2.77
-8.93
-15.83
-22.31
-27.38
-30.79
-33.08
-35.34
-38.66
-43.42
-49.00
-53.92
-56.54
-55.75
-51.44
-44.38
-35.78
-26.84
-18.61
-11.95
-7.55
-5.72
-5.92
-6.87
-6.81
-4.42
0.56
7.24
14.17
20.22
25.16
29.72
34.95
41.47
49.00
56.50
62.69
66.50
67.42
65.40
60.70
53.77
45.14
35.47
25.45
15.82
7.15
-0.07
-5.62
-9.52
-12.09
-13.97
-15.88
-18.44
-21.83
-25.71
-29.41
-32.23
-33.93
-34.77
-35.37
-36.19
-37.12
-37.46
-36.26
-32.86
-27.37
-20.76
-14.55
-10.29
-8.99
-10.93
-15.48
-21.41
-27.28
-32.03
-35.40
-38.07
-41.39
-46.58
-53.99
-62.32
-68.87
-70.26
-63.77
-48.55
-26.14
-0.01
25.56
46.81
61.40
68.62
69.10
64.24
55.75
45.47
35.18
26.35
19.81
15.44
12.34
9.26
5.32
0.32
-5.14
-10.21
-14.23
-16.96
-18.57
-19.22
-18.75
-16.73
-12.76
-6.88
0.22
7.35
13.39
17.67
20.22
21.65
22.77
24.19
26.28
29.32
33.54
39.07
45.56
51.85
56.05
55.99
50.02
37.56
19.41
-2.55
-25.88
-48.08
-67.06
-81.42
-90.61
-94.87
-94.95
-91.69
-85.65
-76.95
-65.47
-51.39
-35.45
-19.01
-3.61
9.54
19.83
27.22
31.90
34.03
33.71
31.29
27.48
23.27
19.51
16.40
13.42
9.82
5.30
0.54
-2.91
-3.47
-0.41
5.61
12.91
19.67
24.88
28.45
30.85
32.39
32.71
31.02
26.73
19.98
11.83
3.81
-2.69
-6.98
-9.14
-9.96
-10.56
-12.19
-15.76
-21.56
-28.97
-36.37
-41.54
-42.27
-37.15
-26.10
-10.46
7.32
24.52
38.90
49.27
55.58
58.48
58.76
56.88
52.93
46.98
39.46
31.34
23.83
17.81
13.48
10.39
7.91
5.81
4.35
4.10
5.32
7.79
10.79
13.72
16.35
18.67
20.46
20.88
18.56
12.44
2.67
-9.03
-19.86
-27.19
-29.75
-28.12
-24.27
-20.48
-18.24
-17.81
-18.51
-19.45
-20.20
-21.06
-22.74
-25.97
-31.12
-38.12
-46.54
-55.90
-65.52
-74.44
-81.24
-84.11
-81.23
-71.50
-55.11
-33.86
-10.61
11.43
29.71
42.92
50.98
54.74
55.38
54.24
52.49
51.16
50.80
51.23
51.40
49.60
44.14
34.14
20.18
4.27
-10.72
-22.10
-27.98
-27.71
-21.62
-10.69
3.66
19.76
35.54
48.87
57.87
61.50
59.75
53.58
44.46
33.96
23.43
13.94
6.38
1.28
-1.28
-1.83
-1.30
-0.77
-0.97
-1.98
-3.33
-4.16
-3.83
-2.16
0.40
2.89
4.15
3.18
-0.57
-7.00
-15.22
-23.79
-30.89
-34.79
-34.26
-29.01
-19.80
-8.27
3.46
13.51
20.72
24.93
26.79
27.15
26.67
25.48
23.28
19.71
14.71
8.65
2.34
-3.35
-7.75
-10.61
-12.08
-12.55
-12.45
-11.94
-11.06
-9.65
-7.75
-5.76
-4.39
-4.44
-6.48
-10.37
-15.22
-19.76
-22.77
-23.75
-23.15
-22.15
-22.05
-23.68
-26.93
-30.89
-34.33
-36.29
-36.56
-35.69
-34.74
-34.82
-36.58
-39.92
-43.95
-47.05
-47.17
-42.39
-31.70
-15.49
4.23
24.28
41.42
53.29
59.23
60.17
57.85
53.94
49.45
44.65
39.45
33.91
28.44
23.59
19.81
17.11
15.12
13.34
11.45
9.41
7.46
5.93
5.14
5.24
6.17
7.57
8.93
9.60
9.10
7.33
4.55
1.28
-2.01
-5.15
-8.28
-11.66
-15.38
-19.12
-22.22
-24.06
-24.27
-23.12
-21.34
-19.90
-19.60
-20.74
-23.13
-26.12
-29.00
-31.17
-32.44
-33.05
-33.49
-34.39
-36.23
-39.20
-42.88
-46.31
-47.83
-45.58
-38.04
-24.80
-7.01
12.71
31.08
45.26
53.73
56.62
55.31
51.63
47.12
42.68
38.63
35.01
31.83
29.00
26.39
23.80
21.02
17.95
14.55
10.84
6.81
2.50
-1.88
-5.92
-9.07
-10.96
-11.56
-11.27
-10.72
-10.54
-11.07
-12.16
-13.31
-13.76
-12.85
-10.17
-5.61
0.52
7.69
15.20
22.25
28.10
32.01
33.37
31.78
27.29
20.44
12.34
4.28
-2.63
-7.87
-11.57
-14.28
-16.53
-18.58
-20.29
-21.40
-21.78
-21.45
-20.36
-18.18
-14.21
-7.74
1.40
12.45
23.66
32.90
38.36
39.25
35.88
29.43
21.39
13.09
5.53
-0.57
-4.74
-6.71
-6.50
-4.59
-1.82
0.80
2.40
2.62
1.72
0.41
-0.50
-0.61
-0.12
0.17
-0.71
-3.50
-8.29
-14.43
-20.83
-26.29
-30.07
-32.09
-32.90
-33.55
-35.14
-38.36
-43.32
-49.29
-54.87
-58.39
-58.42
-54.41
-47.01
-38.02
-29.87
-24.85
-24.32
-28.41
-36.09
-45.75
-55.75
-64.85
-72.22
-77.39
-80.17
-80.67
-79.34
-76.80
-73.60
-69.89
-65.54
-60.57
-55.75
-52.76
-53.20
-57.40
-63.27
-66.22
-60.66
-41.97
-8.00
40.63
101.27
170.04
242.00
310.67
367.91
405.06
415.31
396.49
352.47
292.12
226.33
164.34
111.47
68.85
34.97
7.61
-14.76
-32.82
-46.94
-57.77
-66.20
-73.02
-78.51
-82.35
-83.77
-82.22
-77.77
-71.41
-64.73
-59.66
-57.89
-60.44
-67.23
-76.91
-87.01
-94.53
-96.94
-93.02
-83.34
-70.03
-55.89
-43.37
-33.89
-27.77
-24.82
-24.76
-27.45
-32.53
-38.92
-44.53
-46.82
-43.78
-34.94
-21.76
-7.13
5.85
15.23
20.80
23.78
25.82
27.76
29.24
28.83
25.05
17.22
5.72
-8.06
-22.36
-35.34
-45.26
-50.43
-49.34
-41.04
-25.88
-5.80
15.78
34.85
47.91
52.97
50.15
41.31
29.56
18.35
10.64
8.23
11.21
18.12
26.43
33.50
37.48
37.75
34.99
30.56
26.08
22.84
21.72
23.11
26.83
32.03
37.17
40.36
39.94
35.11
26.23
14.81
2.86
-7.71
-15.67
-20.61
-22.84
-23.15
-22.36
-21.17
-19.94
-18.83
-17.89
-17.21
-16.97
-17.42
-18.67
-20.56
-22.59
-24.03
-24.23
-22.87
-20.18
-16.82
-13.67
-11.54
-10.88
-11.84
-14.14
-17.25
-20.42
-22.75
-23.44
-22.02
-18.57
-13.81
-8.86
-4.87
-2.69
-2.59
-4.39
-7.42
-10.82
-13.61
-14.87
-14.07
-11.31
-7.42
-3.71
-1.44
-1.22
-2.75
-4.95
-6.52
-6.50
-4.66
-1.49
2.23
5.75
8.59
10.49
11.29
10.99
9.87
8.70
8.63
10.84
15.89
23.25
31.28
37.78
40.93
40.01
35.71
29.50
22.83
16.47
10.39
4.33
-1.64
-6.83
-10.16
-10.85
-8.89
-5.12
-0.84
2.86
5.43
6.98
7.95
8.66
9.28
9.66
9.61
8.87
7.25
4.65
1.07
-3.20
-7.65
-11.64
-14.62
-16.35
-16.96
-16.77
-16.22
-15.66
-15.30
-15.29
-15.89
-17.41
-20.20
-24.50
-30.28
-37.09
-44.28
-51.04
-56.68
-60.57
-62.47
-62.36
-60.57
-57.71
-54.49
-51.48
-48.71
-45.71
-41.50
-35.00
-25.17
-11.32
6.68
28.26
51.99
75.64
96.42
111.78
119.97
120.77
115.32
105.78
94.55
83.54
73.91
66.08
59.89
54.91
50.58
46.40
42.02
37.44
32.86
28.50
24.55
20.97
17.54
14.04
10.37
6.70
3.43
1.09
0.09
0.65
2.55
5.30
8.26
10.83
12.68
13.68
13.73
12.61
10.00
5.58
-0.64
-8.08
-15.57
-21.64
-25.02
-25.12
-22.31
-17.80
-13.15
-9.82
-8.76
-10.34
-14.35
-20.10
-26.62
-32.75
-37.44
-40.05
-40.50
-39.20
-36.81
-33.71
-29.86
-24.87
-18.56
-11.35
-4.41
0.81
3.17
2.52
-0.20
-3.36
-5.37
-5.39
-3.60
-1.12
0.70
0.83
-0.86
-3.56
-6.01
-7.10
-6.68
-5.88
-6.85
-11.80
-22.02
-36.95
-54.27
-70.82
-83.79
-91.88
-95.58
-96.68
-97.05
-97.67
-97.97
-96.09
-89.80
-77.56
-59.52
-37.92
-16.70
-0.30
7.65
5.64
-5.06
-20.57
-35.33
-43.34
-39.48
-20.46
14.52
63.31
120.89
179.97
232.29
270.51
289.88
289.17
270.43
237.93
196.68
151.41
106.04
63.70
26.82
-2.91
-24.76
-39.14
-47.51
-51.82
-54.00
-55.28
-56.15
-56.52
-56.03
-54.46
-51.93
-48.87
-45.87
-43.41
-41.66
-40.48
-39.51
-38.57
-37.74
-37.30
-37.41
-37.78
-37.56
-35.72
-31.70
-25.78
-19.24
-13.86
-11.28
-12.34
-16.83
-23.63
-31.03
-37.01
-39.71
-37.76
-30.93
-20.28
-8.23
2.27
8.59
9.34
4.73
-3.50
-12.86
-20.82
-25.72
-27.36
-27.09
-27.24
-29.95
-35.67
-42.49
-46.57
-43.98
-32.94
-15.17
4.70
21.21
30.69
32.70
29.72
25.48
23.27
25.09
31.97
44.56
63.12
86.82
112.84
136.30
151.72
155.14
145.81
126.55
102.43
78.67
58.81
44.00
33.55
25.84
19.24
12.37
4.23
-5.85
-18.01
-31.56
-44.95
-56.01
-62.70
-63.91
-59.95
-52.54
-44.25
-37.57
-34.11
-34.11
-36.55
-39.80
-42.35
-43.44
-43.22
-42.53
-42.39
-43.43
-45.79
-48.98
-52.33
-55.21
-57.31
-58.66
-59.47
-60.05
-60.60
-61.21
-61.90
-62.49
-62.67
-62.17
-61.02
-59.82
-59.85
-62.59
-69.00
-78.51
-88.62
-95.28
-94.14
-82.08
-58.19
-24.15
16.23
57.72
94.50
121.03
133.19
129.37
111.29
83.80
53.63
27.41
9.66
1.85
2.82
9.90
20.41
32.33
44.26
54.93
62.95
66.96
66.20
60.94
52.56
43.04
34.18
27.08
21.74
17.37
13.04
8.27
3.38
-0.63
-2.71
-2.42
-0.32
2.06
2.84
0.67
-4.65
-11.94
-19.05
-23.54
-23.53
-18.30
-8.57
3.74
16.12
26.11
32.02
33.22
30.11
23.70
15.10
5.04
-6.20
-18.57
-31.88
-45.48
-58.24
-68.79
-75.87
-78.66
-76.88
-70.67
-60.40
-46.50
-29.56
-10.43
9.68
29.07
45.88
58.55
66.09
68.39
66.09
60.12
51.21
39.57
24.98
7.15
-13.68
-36.31
-58.48
-77.32
-90.25
-95.73
-93.98
-86.87
-77.43
-68.99
-64.51
-65.87
-73.36
-85.16
-97.12
-103.34
-97.80
-76.58
-39.64
8.78
61.41
110.27
149.02
174.25
185.45
184.11
172.74
154.50
132.99
112.19
95.75
85.96
82.87
84.11
85.77
83.73
75.23
59.56
38.19
14.07
-9.26
-28.70
-41.97
-47.96
-46.65
-39.03
-26.95
-12.71
1.39
13.57
22.76
28.45
30.32
27.75
19.91
6.15
-13.16
-35.99
-58.56
-76.25
-84.94
-82.74
-70.81
-53.20
-35.37
-22.15
-15.93
-16.24
-20.54
-25.79
-29.91
-32.20
-32.77
-31.49
-27.37
-18.88
-4.97
13.95
35.60
56.56
73.52
84.48
89.39
89.65
87.25
83.59
79.10
73.39
65.83
56.18
44.94
33.07
21.59
11.17
2.09
-5.58
-11.75
-16.27
-19.10
-20.53
-21.25
-22.23
-24.22
-27.45
-31.55
-35.74
-39.31
-41.98
-43.96
-45.83
-48.22
-51.50
-55.63
-60.08
-63.86
-65.67
-64.10
-58.04
-47.03
-31.55
-12.88
7.35
27.47
46.17
62.43
75.30
83.79
86.92
84.18
75.86
63.28
48.35
33.05
18.77
6.18
-4.49
-12.87
-18.21
-19.53
-16.28
-8.98
0.49
9.39
15.11
16.17
12.87
7.19
2.04
0.29
3.88
13.24
27.06
42.67
56.57
65.40
66.86
60.27
46.76
28.79
9.32
-9.00
-24.42
-36.21
-44.50
-49.94
-53.34
-55.52
-57.10
-58.49
-59.89
-61.21
-62.18
-62.40
-61.36
-58.70
-54.42
-49.01
-43.43
-38.84
-36.13
-35.59
-36.62
-38.01
-38.39
-36.88
-33.42
-28.86
-24.47
-21.43
-20.27
-20.78
-22.13
-23.32
-23.53
-22.48
-20.43
-18.13
-16.59
-16.72
-19.01
-23.13
-27.83
-31.01
-30.33
-24.11
-12.08
4.35
22.35
38.62
50.25
55.57
54.56
48.76
40.81
33.81
30.34
31.77
37.77
46.45
55.14
61.41
63.96
62.88
59.27
54.38
49.03
43.46
37.75
32.22
27.68
25.07
24.88
26.79
29.61
31.73
31.79
29.10
23.78
16.60
8.49
0.29
-7.45
-14.42
-20.52
-25.64
-29.66
-32.46
-33.98
-34.35
-33.89
-33.12
-32.56
-32.61
-33.39
-34.78
-36.49
-38.30
-40.16
-42.16
-44.45
-46.91
-49.11
-50.24
-49.41
-45.95
-39.84
-31.82
-23.24
-15.63
-10.11
-7.00
-5.75
-5.32
-4.71
-3.45
-1.70
0.09
1.59
3.01
5.05
8.54
13.91
20.95
28.77
36.21
42.23
46.23
48.15
48.23
46.75
43.89
39.65
34.01
27.11
19.29
11.12
3.14
-4.32
-11.20
-17.60
-23.62
-29.08
-33.60
-36.79
-38.56
-39.35
-39.98
-41.43
-44.34
-48.79
-54.34
-60.08
-65.12
-68.88
-71.37
-73.41
-76.62
-83.08
-94.48
-111.17
-131.19
-150.25
-162.70
-163.29
-148.92
-119.60
-78.30
-30.06
19.16
63.65
98.98
122.97
136.38
142.76
147.26
154.68
167.42
184.55
202.41
216.39
222.86
220.19
208.49
188.82
162.54
131.33
97.59
64.64
36.09
14.73
1.67
-4.04
-4.73
-3.13
-1.36
-0.48
-0.58
-1.24
-2.03
-2.86
-4.09
-6.50
-10.97
-18.11
-27.75
-38.69
-48.85
-55.96
-58.43
-56.15
-50.53
-43.93
-38.52
-35.40
-34.44
-34.64
-35.02
-35.19
-35.60
-36.95
-39.70
-43.54
-47.54
-50.52
-51.51
-50.08
-46.34
-40.71
-33.70
-25.78
-17.39
-9.05
-1.40
4.82
8.94
10.48
9.30
5.60
-0.16
-7.32
-15.14
-22.68
-28.75
-31.96
-30.94
-24.93
-14.30
-0.90
12.38
22.52
27.52
27.14
22.85
17.11
12.19
9.24
8.13
7.76
6.96
5.11
2.45
-0.18
-1.77
-1.56
0.83
5.30
11.46
18.72
26.19
32.85
37.66
39.64
38.13
33.10
25.40
16.97
10.59
9.07
14.21
25.82
41.49
57.27
69.09
74.07
71.28
61.69
47.15
29.69
11.01
-7.42
-24.06
-37.27
-45.72
-48.85
-47.24
-42.34
-35.97
-29.68
-24.43
-20.53
-17.87
-16.29
-15.49
-15.25
-15.36
-15.57
-15.72
-15.75
-15.63
-15.28
-14.59
-13.39
-11.66
-9.55
-7.48
-5.94
-5.27
-5.49
-6.27
-7.17
-7.81
-8.13
-8.36
-8.77
-9.54
-10.56
-11.54
-12.19
-12.35
-12.18
-11.95
-11.91
-12.17
-12.64
-13.15
-13.51
-13.58
-13.29
-12.55
-11.25
-9.25
-6.48
-2.95
1.18
5.64
9.98
13.70
16.27
17.32
16.84
15.08
12.61
9.96
7.43
4.96
2.27
-1.01
-5.09
-10.06
-16.08
-23.53
-32.59
-42.80
-52.23
-57.74
-55.85
-44.50
-24.28
1.34
27.33
48.88
63.02
68.97
67.33
59.11
45.35
27.76
9.46
-4.87
-10.50
-4.72
11.42
33.16
53.82
67.47
71.00
64.68
51.20
33.97
15.87
-1.24
-16.24
-28.28
-36.60
-40.78
-41.12
-38.58
-34.54
-30.23
-26.33
-22.99
-20.02
-17.24
-14.73
-12.72
-11.42
-10.81
-10.69
-10.69
-10.55
-10.08
-9.25
-8.14
-6.85
-5.49
-4.19
-3.06
-2.04
-0.98
0.43
2.46
5.04
7.74
9.73
10.10
8.14
3.72
-2.66
-9.93
-16.74
-21.95
-24.93
-25.80
-25.27
-24.37
-23.97
-24.45
-25.62
-26.86
-27.42
-26.60
-23.97
-19.18
-12.16
-3.11
7.24
17.63
26.76
33.83
38.99
43.16
47.54
52.71
58.23
62.75
64.77
63.43
58.99
52.48
45.19
37.99
31.08
24.27
17.47
10.95
5.38
1.35
-0.82
-1.40
-1.06
-0.66
-0.92
-2.23
-4.64
-7.88
-11.63
-15.47
-18.97
-21.75
-23.51
-24.26
-24.40
-24.58
-25.47
-27.40
-30.01
-32.44
-33.72
-33.26
-31.28
-28.79
-27.32
-28.22
-32.03
-38.08
-44.65
-49.48
-50.67
-47.56
-41.07
-33.47
-27.56
-25.69
-28.75
-35.70
-43.49
-47.44
-42.22
-23.26
11.51
59.98
115.46
167.93
207.00
225.43
221.34
198.39
163.56
124.10
85.14
49.07
16.64
-11.48
-33.94
-49.03
-55.96
-55.80
-51.46
-46.48
-43.62
-43.82
-46.12
-48.56
-49.36
-47.87
-44.77
-41.63
-40.02
-40.76
-43.56
-47.26
-50.43
-51.95
-51.44
-49.11
-45.56
-41.35
-36.90
-32.43
-28.20
-24.49
-21.50
-19.33
-17.80
-16.53
-14.93
-12.43
-8.56
-3.09
3.89
11.96
20.51
28.80
36.18
42.15
46.27
48.16
47.56
44.35
38.92
32.21
25.66
20.87
19.05
20.61
24.90
30.40
35.16
37.41
36.10
31.22
23.64
14.80
6.22
-0.86
-5.62
-7.58
-6.60
-2.98
2.43
8.17
12.41
13.52
10.69
4.15
-4.80
-14.43
-23.05
-29.56
-33.55
-35.22
-35.21
-34.34
-33.37
-32.79
-32.65
-32.56
-31.91
-30.26
-27.70
-24.88
-22.80
-22.31
-23.68
-26.44
-29.54
-31.78
-32.23
-30.47
-26.65
-21.30
-15.23
-9.25
-4.14
-0.40
1.73
2.42
2.14
1.48
0.94
0.74
0.83
1.05
1.32
1.63
2.04
2.45
2.52
1.76
-0.25
-3.53
-7.64
-11.73
-14.95
-16.71
-16.89
-15.78
-13.78
-11.13
-7.78
-3.50
1.82
7.99
14.50
20.65
25.92
30.10
33.29
35.74
37.60
38.77
39.09
38.40
36.80
34.57
32.04
29.46
26.81
24.02
21.02
17.90
14.85
12.06
9.63
7.57
5.80
4.20
2.79
1.60
0.68
0.07
-0.21
-0.17
0.13
0.62
1.20
1.71
2.06
2.19
2.15
2.03
1.95
1.96
2.09
2.31
2.63
2.99
3.40
3.80
4.07
4.07
3.65
2.79
1.65
0.46
-0.49
-1.00
-1.03
-0.72
-0.29
0.00
0.01
-0.32
-0.93
-1.74
-2.68
-3.66
-4.56
-5.25
-5.52
-5.29
-4.58
-3.58
-2.55
-1.73
-1.28
-1.20
-1.39
-1.73
-2.12
-2.44
-2.58
-2.44
-2.00
-1.36
-0.75
-0.43
-0.50
-0.89
-1.32
-1.44
-0.97
0.16
1.89
4.06
6.37
8.40
9.60
9.46
7.78
4.77
1.14
-2.31
-4.99
-6.70
-7.62
-8.07
-8.35
-8.67
-9.20
-10.10
-11.49
-13.21
-14.72
-15.31
-14.35
-11.72
-7.89
-3.80
-0.38
1.83
2.69
2.50
1.62
0.34
-1.13
-2.60
-3.82
-4.44
-4.23
-3.19
-1.59
0.09
1.37
2.02
2.15
2.09
2.20
2.72
3.61
4.67
5.64
6.36
6.82
7.09
7.24
7.25
7.07
6.71
6.29
5.96
5.85
5.92
6.02
5.94
5.55
4.95
4.37
4.06
4.08
4.28
4.29
3.78
2.65
1.06
-0.62
-2.06
-3.04
-3.59
-3.81
-3.82
-3.64
-3.27
-2.79
-2.38
-2.31
-2.72
-3.63
-4.80
-5.87
-6.63
-6.96
-6.96
-6.79
-6.55
-6.29
-5.96
-5.56
-5.09
-4.61
-4.13
-3.68
-3.22
-2.84
-2.58
-2.47
-2.43
-2.33
-2.02
-1.46
-0.79
-0.21
0.12
0.16
0.06
0.00
0.11
0.37
0.60
0.63
0.40
-0.00
-0.40
-0.66
-0.73
-0.64
-0.43
-0.11
0.38
1.01
1.68
2.15
2.21
1.78
0.98
0.12
-0.44
-0.45
0.05
0.91
1.85
2.70
3.43
4.06
4.63
5.04
5.12
4.66
3.64
2.25
0.93
0.14
0.11
0.78
1.81
2.75
3.31
3.43
3.28
3.05
2.92
2.95
3.10
3.27
3.39
3.37
3.14
2.66
1.96
1.15
0.30
-0.44
-1.03
-1.47
-1.79
-2.05
-2.33
-2.70
-3.20
-3.81
-4.39
-4.73
-4.65
-4.12
-3.29
-2.37
-1.60
-1.05
-0.67
-0.28
0.25
0.91
1.60
2.11
2.31
2.21
1.93
1.65
1.51
1.53
1.62
1.65
1.54
1.32
1.06
0.86
0.72
0.62
0.51
0.40
0.38
0.54
0.88
1.28
1.58
1.64
1.42
0.99
0.46
-0.06
-0.53
-0.87
-0.96
-0.68
0.02
1.02
1.99
2.53
2.30
1.32
-0.06
-1.32
-1.93
-1.71
-0.80
0.41
1.47
2.09
2.20
1.92
1.43
0.91
0.44
0.03
-0.32
-0.64
-0.91
-1.11
-1.25
-1.39
-1.61
-2.00
-2.49
-2.97
-3.26
-3.18
-2.73
-2.05
-1.39
-0.97
-0.92
-1.17
-1.54
-1.84
-1.99
-1.98
-1.91
-1.84
-1.78
-1.66
-1.35
-0.82
-0.14
0.55
1.04
1.19
0.98
0.52
0.02
-0.34
-0.47
-0.41
-0.25
-0.14
-0.14
-0.21
-0.33
-0.43
-0.47
-0.42
-0.25
0.08
0.62
1.35
2.19
2.94
3.42
3.49
3.09
2.31
1.33
0.34
-0.51
-1.13
-1.45
-1.45
-1.11
-0.45
0.45
1.42
2.30
2.91
3.16
2.99
2.43
1.57
0.56
-0.40
-1.13
-1.43
-1.25
-0.62
0.26
1.09
1.56
1.47
0.77
-0.33
-1.48
-2.34
-2.61
-2.28
-1.47
-0.43
0.63
1.54
2.16
2.46
2.38
1.93
1.21
0.37
-0.37
-0.87
-1.08
-1.04
-0.88
-0.69
-0.48
-0.26
0.01
0.29
0.53
0.62
0.46
0.03
-0.62
-1.38
-2.08
-2.55
-2.75
-2.69
-2.50
-2.38
-2.43
-2.64
-2.89
-2.98
-2.72
-2.09
-1.19
-0.25
0.52
1.01
1.26
1.41
1.60
1.89
2.14
2.18
1.80
0.98
-0.12
-1.13
-1.64
-1.42
-0.58
0.52
1.39
1.68
1.38
0.76
0.21
0.03
0.25
0.68
1.06
1.26
1.34
1.44
1.74
2.21
2.64
2.76
2.34
1.39
0.10
-1.18
-2.12
-2.51
-2.42
-2.07
-1.73
-1.59
-1.63
-1.68
-1.54
-1.13
-0.52
0.05
0.29
0.06
-0.61
-1.45
-2.15
-2.44
-2.21
-1.56
-0.67
0.25
1.06
1.70
2.14
2.36
2.30
1.99
1.56
1.20
1.13
1.42
1.94
2.45
2.68
2.51
2.03
1.46
1.06
0.96
1.16
1.54
1.96
2.26
2.32
2.05
1.44
0.60
-0.22
-0.81
-1.06
-1.02
-0.89
-0.87
-1.02
-1.28
-1.47
-1.48
-1.31
-1.08
-0.89
-0.79
-0.74
-0.62
-0.38
-0.04
0.29
0.47
0.36
-0.19
-1.17
-2.51
-4.01
-5.40
-6.45
-7.04
-7.18
-6.96
-6.51
-5.95
-5.32
-4.70
-4.09
-3.51
-2.88
-2.16
-1.34
-0.44
0.45
1.23
1.84
2.18
2.21
1.93
1.38
0.75
0.28
0.20
0.62
1.42
2.33
3.06
3.42
3.40
3.14
2.88
2.76
2.84
3.10
3.41
3.67
3.77
3.73
3.59
3.40
3.26
3.17
3.12
3.00
2.75
2.36
1.90
1.54
1.49
1.92
2.85
4.12
5.38
6.12
5.81
4.13
1.04
-3.11
-7.66
-11.79
-14.76
-16.10
-15.73
-13.92
-11.26
-8.39
-5.90
-4.15
-3.28
-3.17
-3.52
-3.94
-4.05
-3.66
-2.78
-1.63
-0.54
0.20
0.47
0.31
-0.08
-0.48
-0.61
-0.30
0.49
1.70
3.10
4.41
5.38
5.87
5.87
5.56
5.18
4.96
5.05
5.47
6.12
6.83
7.44
7.81
7.91
7.82
7.72
7.71
7.83
8.01
8.05
7.76
7.07
6.03
4.86
3.84
3.17
2.93
2.98
3.05
2.76
1.85
0.23
-1.96
-4.28
-6.27
-7.56
-7.92
-7.41
-6.21
-4.66
-3.06
-1.74
-0.92
-0.68
-0.95
-1.47
-1.93
-2.06
-1.74
-1.07
-0.28
0.39
0.77
0.91
0.92
0.99
1.26
1.82
2.62
3.51
4.27
4.62
4.33
3.26
1.48
-0.79
-3.19
-5.34
-6.90
-7.63
-7.49
-6.61
-5.35
-4.12
-3.34
-3.26
-3.92
-5.10
-6.39
-7.53
-8.43
-9.30
-10.48
-12.25
-14.57
-17.04
-18.97
-19.64
-18.57
-15.61
-11.08
-5.61
0.05
5.16
9.18
11.88
13.24
13.43
12.71
11.34
9.57
7.72
6.11
5.05
4.71
5.07
5.88
6.81
7.52
7.85
7.77
7.41
6.92
6.41
5.92
5.38
4.72
3.89
2.93
1.99
1.23
0.76
0.53
0.30
-0.14
-0.92
-1.97
-2.99
-3.71
-4.01
-4.08
-4.27
-4.92
-6.09
-7.53
-8.78
-9.43
-9.41
-8.97
-8.56
-8.56
-9.11
-10.02
-11.06
-12.03
-12.81
-13.30
-13.26
-12.27
-9.92
-6.04
-0.91
4.80
10.26
14.77
17.97
19.83
20.52
20.21
19.05
17.15
14.70
12.06
9.66
7.91
7.03
6.99
7.51
8.17
8.64
8.72
8.42
7.84
7.09
6.20
5.22
4.11
2.94
1.77
0.69
-0.26
-1.13
-1.93
-2.69
-3.39
-4.05
-4.65
-5.20
-5.66
-5.95
-5.92
-5.51
-4.76
-3.90
-3.25
-3.12
-3.62
-4.56
-5.60
-6.31
-6.49
-6.15
-5.58
-5.18
-5.31
-6.17
-7.67
-9.65
-11.72
-13.46
-14.37
-13.99
-12.00
-8.41
-3.63
1.58
6.37
10.04
12.25
13.04
12.78
11.93
10.93
10.08
9.52
9.19
8.97
8.70
8.35
7.92
7.47
7.06
6.68
6.29
5.84
5.31
4.70
3.97
3.09
1.98
0.70
-0.62
-1.77
-2.56
-2.91
-2.89
-2.67
-2.37
-2.08
-1.78
-1.50
-1.33
-1.43
-1.92
-2.83
-4.06
-5.35
-6.47
-7.29
-7.82
-8.22
-8.69
-9.41
-10.42
-11.71
-13.24
-14.97
-16.71
-18.15
-18.79
-18.08
-15.62
-11.32
-5.56
0.93
7.22
12.52
16.30
18.48
19.31
19.17
18.47
17.45
16.20
14.69
12.90
10.92
8.97
7.32
6.15
5.49
5.17
4.89
4.41
3.62
2.65
1.75
1.15
0.92
0.90
0.81
0.39
-0.44
-1.55
-2.68
-3.58
-4.10
-4.32
-4.41
-4.59
-4.95
-5.48
-6.09
-6.63
-7.03
-7.34
-7.64
-8.06
-8.65
-9.31
-9.84
-9.99
-9.58
-8.67
-7.52
-6.60
-6.31
-6.93
-8.36
-10.29
-12.17
-13.46
-13.75
-12.73
-10.35
-6.69
-1.99
3.27
8.49
12.97
16.16
17.72
17.77
16.70
15.08
13.41
12.01
10.99
10.25
9.67
9.11
8.57
8.07
7.63
7.24
6.83
6.32
5.64
4.82
3.95
3.15
2.48
1.95
1.42
0.77
-0.06
-0.96
-1.73
-2.19
-2.26
-2.06
-1.86
-1.92
-2.30
-2.87
-3.31
-3.38
-3.06
-2.57
-2.30
-2.56
-3.39
-4.56
-5.71
-6.55
-7.01
-7.24
-7.51
-8.03
-8.81
-9.81
-10.93
-12.21
-13.68
-15.25
-16.59
-17.14
-16.31
-13.78
-9.76
-4.88
-0.06
3.89
6.50
7.77
8.02
7.71
7.23
6.82
6.53
6.38
6.31
6.33
6.43
6.62
6.86
7.11
7.31
7.40
7.37
7.27
7.21
7.34
7.77
8.42
9.03
9.23
8.65
7.08
4.65
1.77
-0.99
-3.17
-4.53
-5.14
-5.29
-5.35
-5.65
-6.35
-7.49
-8.90
-10.35
-11.56
-12.37
-12.75
-12.88
-13.10
-13.73
-14.97
-16.75
-18.70
-20.24
-20.70
-19.51
-16.32
-11.19
-4.50
3.05
10.61
17.41
22.81
26.47
28.34
28.58
27.50
25.51
22.99
20.24
17.49
14.87
12.46
10.34
8.59
7.29
6.50
6.21
6.33
6.67
7.05
7.23
7.07
6.42
5.26
3.62
1.69
-0.32
-2.12
-3.48
-4.31
-4.67
-4.78
-4.89
-5.22
-5.88
-6.84
-7.98
-9.16
-10.32
-11.47
-12.66
-13.89
-15.10
-16.13
-16.81
-17.07
-16.94
-16.66
-16.54
-16.93
-18.01
-19.69
-21.50
-22.61
-22.10
-19.16
-13.50
-5.50
3.87
13.32
21.60
27.87
31.80
33.50
33.41
32.02
29.78
27.08
24.18
21.35
18.81
16.75
15.23
14.20
13.45
12.71
11.75
10.51
9.08
7.68
6.52
5.63
4.85
3.87
2.37
0.19
-2.55
-5.46
-8.04
-9.86
-10.80
-11.06
-11.09
-11.34
-12.02
-12.98
-13.84
-14.15
-13.74
-12.78
-11.74
-11.11
-11.19
-11.93
-12.96
-13.86
-14.29
-14.22
-13.86
-13.58
-13.74
-14.63
-16.29
-18.48
-20.67
-22.06
-21.72
-18.88
-13.23
-5.16
4.27
13.58
21.33
26.57
29.16
29.53
28.54
26.93
25.11
23.11
20.80
18.13
15.36
12.88
11.06
9.99
9.43
8.92
8.08
6.78
5.18
3.63
2.40
1.49
0.66
-0.42
-2.00
-4.06
-6.29
-8.33
-9.82
-10.67
-11.00
-11.11
-11.36
-11.96
-12.94
-14.11
-15.19
-15.86
-15.95
-15.50
-14.82
-14.44
-14.94
-16.71
-19.74
-23.44
-26.69
-28.18
-26.77
-21.89
-13.82
-3.57
7.40
17.63
25.96
31.83
35.20
36.40
35.89
34.15
31.61
28.57
25.36
22.23
19.39
16.97
15.01
13.48
12.28
11.33
10.55
9.87
9.22
8.52
7.65
6.51
5.07
3.31
1.28
-0.91
-3.05
-4.89
-6.20
-6.88
-7.05
-7.08
-7.42
-8.45
-10.22
-12.41
-14.48
-15.90
-16.42
-16.16
-15.58
-15.17
-15.31
-16.01
-17.04
-17.98
-18.54
-18.63
-18.42
-18.28
-18.60
-19.67
-21.52
-23.89
-26.27
-27.85
-27.73
-25.10
-19.49
-11.05
-0.62
10.42
20.53
28.45
33.61
36.21
36.94
36.66
35.99
35.14
34.01
32.42
30.34
27.90
25.32
22.86
20.66
18.70
16.96
15.39
13.95
12.63
11.33
9.91
8.18
6.10
3.71
1.18
-1.28
-3.56
-5.61
-7.38
-8.84
-9.89
-10.47
-10.66
-10.66
-10.69
-10.90
-11.28
-11.68
-11.96
-12.09
-12.24
-12.63
-13.39
-14.51
-15.79
-17.02
-17.97
-18.55
-18.70
-18.45
-17.88
-17.18
-16.64
-16.60
-17.37
-19.02
-21.29
-23.54
-24.87
-24.26
-20.99
-14.89
-6.47
3.12
12.46
20.23
25.66
28.63
29.59
29.21
28.16
26.86
25.42
23.83
22.02
20.00
17.94
16.02
14.44
13.23
12.31
11.45
10.50
9.39
8.24
7.21
6.44
5.85
5.24
4.31
2.87
0.97
-1.21
-3.32
-5.11
-6.45
-7.37
-8.02
-8.56
-9.14
-9.76
-10.36
-10.81
-10.97
-10.86
-10.62
-10.53
-10.88
-11.83
-13.29
-14.95
-16.37
-17.18
-17.24
-16.74
-16.11
-15.90
-16.55
-18.21
-20.65
-23.31
-25.31
-25.76
-23.90
-19.34
-12.21
-3.17
6.71
16.14
23.92
29.24
31.85
32.14
30.88
29.00
27.23
25.84
24.76
23.65
22.26
20.54
18.71
17.05
15.78
14.91
14.31
13.81
13.28
12.74
12.18
11.56
10.69
9.39
7.44
4.82
1.71
-1.52
-4.41
-6.60
-7.90
-8.39
-8.35
-8.13
-8.06
-8.31
-8.93
-9.86
-10.98
-12.12
-13.07
-13.60
-13.60
-13.10
-12.42
-11.95
-12.01
-12.70
-13.79
-14.86
-15.58
-15.76
-15.56
-15.29
-15.31
-15.90
-17.20
-19.13
-21.33
-23.09
-23.44
-21.42
-16.48
-8.80
0.68
10.39
18.79
24.86
28.36
29.79
29.93
29.49
28.77
27.73
26.17
24.01
21.40
18.68
16.20
14.19
12.65
11.42
10.25
9.01
7.76
6.69
6.01
5.77
5.78
5.62
4.86
3.29
1.00
-1.59
-3.99
-5.81
-6.88
-7.37
-7.55
-7.66
-7.83
-8.07
-8.34
-8.57
-8.73
-8.75
-8.61
-8.35
-8.07
-7.98
-8.24
-8.91
-9.88
-10.92
-11.73
-12.12
-12.05
-11.63
-11.09
-10.73
-10.80
-11.50
-12.93
-15.00
-17.34
-19.27
-19.93
-18.51
-14.57
-8.33
-0.59
7.43
14.52
19.86
23.18
24.69
24.86
24.16
22.87
21.10
18.93
16.47
13.97
11.66
9.73
8.23
7.12
6.30
5.70
5.23
4.84
4.47
4.02
3.42
2.63
1.68
0.66
-0.33
-1.17
-1.78
-2.21
-2.53
-2.86
-3.32
-4.03
-4.98
-6.12
-7.31
-8.34
-9.03
-9.30
-9.23
-9.04
-9.01
-9.42
-10.36
-11.74
-13.29
-14.65
-15.54
-15.83
-15.59
-15.06
-14.60
-14.59
-15.39
-17.06
-19.33
-21.52
-22.67
-21.83
-18.39
-12.36
-4.42
4.27
12.44
19.02
23.52
25.93
26.72
26.50
25.79
24.91
23.95
22.84
21.54
20.10
18.63
17.31
16.19
15.24
14.32
13.34
12.25
11.15
10.14
9.33
8.64
7.90
6.91
5.54
3.82
1.95
0.21
-1.17
-2.10
-2.66
-3.05
-3.51
-4.17
-5.06
-6.13
-7.28
-8.46
-9.65
-10.82
-11.96
-12.96
-13.75
-14.30
-14.68
-14.98
-15.33
-15.80
-16.35
-16.85
-17.20
-17.43
-17.73
-18.41
-19.77
-21.86
-24.37
-26.60
-27.57
-26.34
-22.31
-15.59
-6.86
2.72
11.87
19.65
25.51
29.38
31.45
32.12
31.74
30.67
29.20
27.50
25.68
23.72
21.62
19.44
17.34
15.54
14.22
13.41
13.02
12.84
12.66
12.28
11.57
10.48
8.94
6.97
4.68
2.30
0.09
-1.76
-3.14
-4.13
-4.89
-5.66
-6.60
-7.77
-9.15
-10.59
-11.92
-12.95
-13.61
-13.93
-14.04
-14.08
-14.11
-14.05
-13.83
-13.36
-12.75
-12.19
-11.94
-12.22
-13.13
-14.70
-16.89
-19.43
-21.75
-23.03
-22.35
-19.11
-13.31
-5.67
2.62
10.21
16.18
20.10
22.03
22.32
21.29
19.27
16.54
13.54
10.75
8.66
7.51
7.27
7.63
8.14
8.41
8.29
7.82
7.21
6.62
6.10
5.51
4.64
3.30
1.42
-0.82
-3.09
-5.00
-6.31
-7.03
-7.44
-7.98
-9.02
-10.67
-12.67
-14.63
-16.18
-17.17
-17.72
-18.19
-18.96
-20.22
-21.98
-24.03
-26.04
-27.54
-28.03
-26.90
-23.60
-17.82
-9.73
-0.02
10.14
19.43
26.73
31.43
33.60
33.84
32.97
31.63
30.13
28.46
26.49
24.14
21.61
19.26
17.44
16.38
15.99
16.00
16.04
15.81
15.17
14.14
12.88
11.52
10.10
8.52
6.58
4.15
1.24
-1.85
-4.68
-6.84
-8.21
-8.98
-9.60
-10.51
-11.85
-13.48
-15.02
-16.16
-16.75
-16.97
-17.22
-17.87
-19.16
-20.98
-22.93
-24.44
-25.00
-24.43
-23.06
-21.54
-20.72
-21.29
-23.44
-26.87
-30.82
-34.32
-36.37
-36.13
-33.00
-26.71
-17.49
-6.12
6.15
17.74
27.26
33.79
37.19
38.07
37.48
36.46
35.72
35.45
35.41
35.21
34.55
33.38
31.87
30.30
28.84
27.56
26.37
25.13
23.76
22.24
20.62
18.90
17.05
14.90
12.28
9.12
5.57
1.96
-1.21
-3.60
-5.11
-6.03
-6.86
-8.04
-9.69
-11.51
-12.95
-13.55
-13.24
-12.39
-11.69
-11.74
-12.74
-14.40
-16.09
-17.24
-17.52
-17.06
-16.27
-15.71
-15.74
-16.40
-17.47
-18.52
-19.17
-19.20
-18.69
-17.88
-17.17
-16.92
-17.43
-18.77
-20.82
-23.16
-25.03
-25.47
-23.57
-18.83
-11.41
-2.22
7.36
15.92
22.50
26.81
29.23
30.37
30.84
31.00
30.95
30.68
30.20
29.49
28.60
27.47
26.02
24.26
22.29
20.40
18.81
17.66
16.88
16.28
15.61
14.72
13.46
11.71
9.34
6.25
2.50
-1.54
-5.35
-8.42
-10.46
-11.52
-11.90
-11.91
-11.72
-11.29
-10.52
-9.41
-8.16
-7.17
-6.73
-6.95
-7.67
-8.56
-9.34
-9.95
-10.53
-11.35
-12.60
-14.27
-16.13
-17.87
-19.19
-19.99
-20.38
-20.71
-21.33
-22.52
-24.24
-26.11
-27.41
-27.36
-25.27
-20.90
-14.50
-6.82
1.06
8.07
13.39
16.65
18.00
17.87
16.89
15.53
14.14
12.87
11.83
11.20
11.15
11.83
13.13
14.75
16.23
17.13
17.21
16.54
15.37
14.03
12.82
11.88
11.25
10.83
10.49
10.06
9.38
8.34
6.87
5.00
2.82
0.48
-1.89
-4.14
-6.20
-8.05
-9.69
-11.09
-12.18
-12.89
-13.23
-13.29
-13.24
-13.25
-13.42
-13.66
-13.81
-13.65
-13.19
-12.53
-12.02
-12.02
-12.81
-14.51
-17.04
-20.21
-23.60
-26.60
-28.42
-28.21
-25.36
-19.77
-11.94
-2.89
6.14
14.08
20.26
24.45
26.72
27.33
26.57
24.82
22.58
20.40
18.73
17.77
17.38
17.20
16.79
15.91
14.54
12.91
11.39
10.29
9.76
9.74
10.02
10.25
10.07
9.24
7.64
5.38
2.73
0.03
-2.40
-4.35
-5.72
-6.54
-6.97
-7.20
-7.44
-7.82
-8.38
-9.05
-9.63
-9.97
-9.96
-9.62
-9.13
-8.71
-8.57
-8.83
-9.48
-10.39
-11.36
-12.20
-12.76
-13.03
-13.15
-13.36
-14.02
-15.38
-17.45
-19.91
-22.08
-23.08
-22.06
-18.46
-12.32
-4.26
4.64
13.10
20.05
24.85
27.38
28.02
27.36
26.05
24.57
23.16
21.89
20.71
19.51
18.20
16.74
15.12
13.46
11.92
10.73
10.06
9.88
10.01
10.08
9.71
8.65
6.91
4.69
2.34
0.20
-1.52
-2.74
-3.57
-4.18
-4.82
-5.68
-6.90
-8.42
-10.04
-11.39
-12.14
-12.08
-11.37
-10.42
-9.75
-9.81
-10.71
-12.22
-13.80
-14.89
-15.16
-14.70
-13.90
-13.29
-13.28
-14.09
-15.59
-17.21
-18.18
-17.71
-15.27
-10.76
-4.50
2.81
10.18
16.76
22.11
26.17
29.05
30.87
31.69
31.57
30.59
28.56
25.57
22.22
19.41
17.79
17.42
17.91
18.55
18.68
17.18
13.75
9.55
6.54
6.13
8.43
12.45
16.72
19.99
20.60
18.30
14.77
12.77
13.99
18.34
24.45
30.33
33.87
31.30
19.57
-1.80
-30.59
-63.07
-94.89
-121.66
-140.31
-140.02
-117.68
-82.90
-50.74
-29.68
-19.29
-15.08
-12.87
-10.78
-8.76
-9.08
-12.94
-18.97
-24.14
-26.38
-25.55
-22.84
-19.98
-18.24
-19.32
-23.75
-30.13
-36.04
-39.75
-40.91
-40.04
-38.01
-35.45
-33.38
-32.16
-31.06
-28.64
-23.98
-17.13
-8.30
1.79
12.34
22.17
30.37
36.64
41.41
45.17
48.29
51.17
53.98
56.72
59.02
60.45
60.77
60.27
59.30
58.27
57.71
58.14
60.12
64.17
70.34
77.87
85.15
89.51
88.24
79.82
64.59
44.92
24.26
6.02
-9.23
-20.53
-28.08
-32.83
-35.71
-37.43
-38.39
-39.01
-39.83
-41.30
-43.21
-44.97
-45.57
-43.94
-39.47
-32.43
-23.89
-15.32
-8.10
-2.78
0.64
2.73
4.26
5.87
7.75
9.64
11.06
11.53
10.98
9.60
7.86
6.43
5.87
6.45
7.90
9.57
10.63
10.54
9.16
6.82
4.06
1.42
-0.87
-2.86
-4.70
-6.42
-7.85
-8.75
-9.01
-8.74
-8.25
-7.84
-7.65
-7.60
-7.51
-7.26
-6.93
-6.74
-6.96
-7.82
-9.30
-11.18
-13.05
-14.49
-15.32
-15.61
-15.76
-16.18
-17.09
-18.29
-19.25
-19.28
-17.86
-14.83
-10.38
-4.95
0.96
6.87
12.29
16.78
19.99
21.82
22.39
21.98
20.98
19.59
17.92
16.02
14.04
12.19
10.80
10.02
9.72
9.62
9.37
8.84
8.07
7.33
6.80
6.51
6.31
5.96
5.30
4.32
3.16
1.96
0.84
-0.23
-1.34
-2.49
-3.59
-4.49
-5.05
-5.24
-5.22
-5.23
-5.47
-6.04
-6.90
-7.90
-8.91
-9.86
-10.73
-11.47
-12.05
-12.42
-12.60
-12.67
-12.81
-13.28
-14.23
-15.73
-17.68
-19.80
-21.71
-22.87
-22.71
-20.76
-16.79
-10.98
-3.96
3.36
10.09
15.62
19.78
22.69
24.55
25.47
25.45
24.51
22.78
20.58
18.31
16.25
14.51
13.03
11.71
10.52
9.57
8.97
8.81
9.01
9.36
9.59
9.46
8.81
7.55
5.76
3.63
1.42
-0.63
-2.32
-3.59
-4.46
-5.02
-5.37
-5.54
-5.58
-5.53
-5.50
-5.71
-6.30
-7.35
-8.76
-10.31
-11.75
-12.90
-13.75
-14.37
-14.87
-15.37
-15.93
-16.66
-17.64
-18.87
-20.13
-20.91
-20.48
-18.17
-13.72
-7.50
-0.42
6.34
11.83
15.54
17.56
18.39
18.54
18.32
17.76
16.73
15.14
13.06
10.80
8.74
7.23
6.47
6.44
6.93
7.63
8.21
8.47
8.34
7.97
7.56
7.21
6.83
6.25
5.28
3.86
2.14
0.39
-1.17
-2.49
-3.69
-4.88
-6.06
-7.09
-7.84
-8.22
-8.42
-8.73
-9.40
-10.49
-11.80
-12.95
-13.62
-13.69
-13.40
-13.20
-13.61
-14.91
-17.04
-19.67
-22.31
-24.43
-25.63
-25.48
-23.62
-19.74
-13.84
-6.34
1.86
9.63
16.02
20.53
23.25
24.62
25.17
25.20
24.77
23.87
22.58
21.09
19.65
18.46
17.64
17.10
16.75
16.43
16.00
15.35
14.45
13.38
12.32
11.42
10.71
10.05
9.22
8.03
6.40
4.49
2.48
0.54
-1.30
-3.11
-4.96
-6.84
-8.59
-10.04
-11.02
-11.46
-11.43
-11.09
-10.63
-10.25
-10.13
-10.37
-10.95
-11.74
-12.57
-13.28
-13.76
-13.95
-13.86
-13.57
-13.22
-13.12
-13.63
-15.14
-17.67
-20.86
-23.81
-25.42
-24.75
-21.30
-15.33
-7.63
0.71
8.58
15.11
19.77
22.39
23.20
22.70
21.56
20.32
19.30
18.47
17.63
16.57
15.25
13.81
12.47
11.33
10.42
9.67
9.03
8.52
8.11
7.75
7.30
6.65
5.77
4.73
3.65
2.53
1.34
0.05
-1.30
-2.46
-3.26
-3.64
-3.79
-3.98
-4.45
-5.17
-5.97
-6.65
-7.19
-7.79
-8.71
-10.06
-11.62
-12.97
-13.64
-13.51
-12.82
-12.14
-12.15
-13.31
-15.65
-18.75
-21.71
-23.51
-23.25
-20.45
-15.27
-8.32
-0.57
6.93
13.38
18.26
21.35
22.68
22.44
20.94
18.62
15.98
13.50
11.51
10.18
9.48
9.30
9.42
9.62
9.72
9.63
9.33
8.92
8.49
8.15
7.84
7.39
6.55
5.16
3.25
1.10
-0.91
-2.48
-3.53
-4.22
-4.78
-5.40
-6.12
-6.86
-7.54
-8.10
-8.57
-8.99
-9.37
-9.58
-9.44
-8.93
-8.24
-7.77
-7.89
-8.72
-10.03
-11.26
-11.94
-11.95
-11.77
-12.19
-13.91
-17.08
-21.10
-24.72
-26.56
-25.63
-21.70
-15.29
-7.48
0.55
7.79
13.62
17.84
20.61
22.22
23.00
23.18
22.82
21.95
20.59
18.85
16.97
15.31
14.14
13.54
13.36
13.29
13.05
12.50
11.70
10.83
9.95
9.03
7.98
6.77
5.46
4.21
3.14
2.29
1.55
