1555527756.00
64.000000
-0.00
-0.00
-0.00
-0.00
-0.00
-0.00
-0.00
-0.00
-0.00
-0.00
0.00
0.01
0.01
-0.00
-0.03
-0.05
-0.05
0.00
0.13
0.36
0.66
1.01
1.37
1.72
2.06
2.40
2.79
3.24
3.80
4.42
5.06
5.66
6.20
6.68
7.15
7.68
8.31
9.14
10.09
11.04
11.88
12.56
13.14
13.76
14.65
15.96
17.91
20.32
22.90
25.38
27.58
29.57
31.68
34.32
37.81
42.54
48.15
54.10
59.83
64.97
69.58
74.14
79.34
85.71
93.76
103.00
112.62
121.73
129.77
136.75
143.30
150.75
157.77
166.64
177.95
191.79
206.97
220.57
228.25
225.36
208.53
176.87
132.76
80.05
23.07
-34.94
-92.44
-149.16
-205.23
-260.37
-313.74
-363.87
-409.83
-450.91
-486.50
-515.74
-537.23
-549.22
-549.96
-538.37
-514.21
-478.67
-433.88
-382.45
-327.02
-269.84
-212.63
-156.66
-102.95
-52.37
-5.90
35.58
71.43
101.35
125.50
144.38
158.69
169.15
176.37
180.75
182.57
182.07
179.51
175.23
169.65
163.18
156.15
148.81
141.30
133.69
126.02
118.33
110.69
103.16
95.80
88.68
81.83
75.25
68.95
62.95
57.25
51.86
46.78
42.03
37.59
33.45
29.61
26.07
22.81
19.83
17.11
14.67
12.48
10.54
8.83
7.35
6.07
4.97
4.05
3.27
2.62
2.09
1.65
1.30
1.01
0.79
0.61
0.48
0.37
0.30
0.24
0.21
0.19
0.18
0.19
0.20
0.22
0.25
0.28
0.32
0.36
0.41
0.45
0.49
0.54
0.59
0.64
0.70
0.76
0.82
0.89
0.97
1.06
1.15
1.26
1.38
1.51
1.66
1.83
2.02
2.22
2.45
2.71
2.99
3.29
3.63
4.00
4.40
4.84
5.32
5.83
6.38
6.97
7.61
8.29
9.01
9.78
10.59
11.45
12.36
13.31
14.31
15.39
16.52
17.72
18.97
20.26
21.53
22.73
23.76
24.52
24.90
24.76
24.01
22.56
20.40
17.53
14.06
10.07
5.79
1.39
-2.89
-6.88
-10.43
-13.43
-15.82
-17.56
-18.63
-19.05
-18.89
-18.26
-17.29
-16.14
-14.94
-13.80
-12.72
-11.68
-10.58
-9.39
-8.09
-6.72
-5.33
-4.00
-2.78
-1.60
-0.34
1.19
3.01
5.06
7.19
9.14
10.65
11.61
12.11
12.50
13.28
14.58
16.40
18.48
20.32
21.41
21.47
20.66
19.57
19.11
19.54
20.91
22.74
24.18
24.32
22.61
19.17
14.79
10.63
7.07
4.21
1.51
-2.18
-8.40
-18.97
-35.88
-61.09
-91.05
-122.65
-151.38
-172.01
-180.15
-173.95
-154.95
-127.63
-97.69
-69.86
-47.23
-30.12
-17.14
-6.58
2.67
10.99
18.46
25.37
32.40
39.76
47.49
55.17
61.95
66.85
69.20
68.93
66.64
63.34
59.76
56.32
52.91
49.00
44.08
38.16
31.99
26.82
23.82
23.30
24.61
26.37
27.10
25.79
22.25
16.97
10.70
4.09
-2.60
-9.32
-16.00
-22.47
-28.38
-33.33
-37.01
-39.28
-40.20
-39.99
-38.97
-37.39
-35.47
-33.35
-31.18
-29.06
-27.12
-25.44
-24.06
-23.02
-22.36
-22.28
-23.04
-24.91
-27.98
-32.06
-36.68
-41.27
-45.35
-48.71
-51.48
-54.11
-57.12
-60.94
-65.63
-70.76
-75.36
-78.16
-77.86
-73.62
-65.40
-53.90
-40.41
-26.34
-12.91
-0.84
9.55
18.25
25.31
30.89
35.15
38.31
40.64
42.40
43.83
45.07
46.25
47.41
48.56
49.65
50.56
51.14
51.36
51.30
51.13
51.10
51.41
52.13
53.14
54.21
55.05
55.39
55.12
54.21
52.70
50.60
47.85
44.41
40.21
35.29
29.73
23.68
17.27
10.80
4.72
-0.23
-3.18
-3.45
-0.84
4.18
10.59
17.19
23.03
27.73
31.34
34.17
36.37
37.85
38.25
37.23
34.67
30.75
25.90
20.62
15.40
10.64
6.70
3.94
2.67
3.00
4.75
7.36
9.93
11.54
11.47
9.43
5.63
0.58
-5.13
-11.07
-17.01
-22.87
-28.56
-33.86
-38.55
-42.53
-45.98
-49.37
-53.28
-58.18
-64.21
-71.04
-77.88
-83.67
-87.26
-87.71
-84.53
-77.85
-68.36
-57.16
-45.43
-34.21
-24.20
-15.80
-9.24
-4.69
-2.29
-2.07
-3.75
-6.71
-10.01
-12.68
-13.98
-13.64
-11.84
-9.01
-5.66
-2.15
1.36
4.78
8.00
10.80
12.84
13.79
13.36
11.41
8.08
3.75
-0.94
-5.26
-8.52
-10.40
-10.94
-10.62
-10.16
-10.20
-11.04
-12.42
-13.46
-12.89
-9.47
-2.37
8.39
21.89
36.53
50.51
62.40
71.63
78.54
84.22
89.97
96.69
104.48
112.58
119.57
124.00
124.96
122.42
117.32
111.10
105.17
100.40
96.97
94.53
92.64
91.12
90.14
90.11
91.27
93.43
95.93
97.79
98.09
96.28
92.53
87.72
83.38
81.25
82.78
88.51
97.81
109.01
120.08
129.41
136.57
142.44
148.99
158.87
174.66
197.98
228.49
263.14
296.24
320.59
329.74
320.14
292.53
251.47
203.37
154.02
106.93
63.07
21.95
-16.96
-53.49
-86.93
-116.79
-143.53
-168.45
-193.20
-219.02
-246.37
-275.17
-305.28
-336.73
-369.47
-402.62
-433.93
-459.93
-476.86
-482.12
-475.29
-458.34
-434.86
-408.73
-383.05
-359.63
-339.13
-321.40
-305.74
-290.88
-275.15
-256.74
-234.30
-207.54
-177.45
-145.97
-115.37
-87.47
-63.13
-42.24
-24.01
-7.50
7.92
22.37
35.42
46.44
54.95
60.97
65.07
68.16
71.16
74.61
78.45
82.16
85.12
86.98
87.85
88.18
88.41
88.63
88.44
87.15
84.15
79.19
72.63
65.18
57.69
50.79
44.71
39.31
34.16
28.79
22.86
16.35
9.55
3.15
-1.97
-4.88
-4.90
-1.78
4.20
12.28
21.40
30.48
38.62
45.18
49.79
52.35
52.92
51.74
49.25
46.00
42.61
39.57
37.15
35.24
33.51
31.53
28.98
25.73
21.87
17.56
12.87
7.72
1.96
-4.47
-11.46
-18.65
-25.59
-31.92
-37.45
-42.23
-46.38
-50.08
-53.42
-56.52
-59.49
-62.45
-65.41
-68.16
-70.25
-71.03
-69.87
-66.37
-60.58
-53.00
-44.47
-35.97
-28.26
-21.75
-16.42
-11.98
-8.07
-4.44
-1.06
1.95
4.42
6.16
6.85
5.91
2.65
-3.37
-11.93
-21.98
-31.78
-39.54
-43.98
-44.60
-41.66
-35.69
-27.19
-16.53
-4.19
9.04
21.93
33.07
41.26
45.91
47.06
45.40
42.05
38.42
36.00
36.08
39.39
45.82
54.36
63.45
71.49
77.43
81.07
82.98
84.09
85.21
86.67
88.31
89.81
90.92
91.69
92.43
93.51
95.10
97.06
98.99
100.31
100.47
99.06
95.86
90.89
84.37
76.69
68.33
59.68
50.98
42.27
33.43
24.29
14.80
5.07
-4.56
-13.54
-21.13
-26.50
-28.91
-27.95
-23.82
-17.38
-9.93
-2.92
2.61
6.28
8.35
9.45
10.01
9.96
8.69
5.40
-0.31
-8.13
-17.03
-25.69
-33.04
-38.71
-43.03
-46.70
-50.44
-54.62
-59.25
-64.11
-68.98
-73.72
-78.23
-82.44
-86.29
-89.76
-93.05
-96.40
-100.11
-104.21
-108.32
-111.66
-113.27
-112.20
-107.89
-100.26
-89.70
-76.99
-63.01
-48.66
-34.71
-21.69
-9.94
0.39
9.29
16.76
22.82
27.47
30.75
32.82
34.04
34.89
35.83
37.19
38.99
40.98
42.65
43.52
43.23
41.81
39.59
37.08
34.77
32.89
31.39
30.00
28.37
26.22
23.38
19.87
15.94
12.26
9.85
10.01
13.89
22.12
34.45
49.78
66.52
83.03
98.05
110.82
121.09
128.77
133.85
136.22
135.76
132.44
126.41
118.06
107.98
96.83
85.21
73.57
62.26
51.58
41.88
33.52
26.75
21.51
17.37
13.58
9.38
4.29
-1.66
-7.97
-13.90
-18.85
-22.53
-25.14
-27.32
-30.03
-34.35
-41.19
-50.83
-62.66
-75.09
-85.90
-92.92
-94.85
-91.72
-84.80
-76.09
-67.51
-60.25
-54.69
-50.65
-47.95
-46.69
-47.22
-49.77
-54.06
-59.17
-63.80
-66.82
-67.74
-66.91
-65.27
-63.85
-63.23
-63.26
-63.19
-62.08
-59.30
-54.79
-49.10
-43.06
-37.49
-32.87
-29.30
-26.55
-24.33
-22.41
-20.78
-19.61
-19.19
-19.82
-21.73
-24.95
-29.26
-34.14
-38.67
-41.71
-42.11
-39.00
-32.08
-21.72
-8.88
5.18
19.27
32.52
44.50
55.20
64.80
73.49
81.36
88.34
94.31
99.12
102.69
105.06
106.37
106.84
106.76
106.32
105.76
105.22
104.86
104.78
105.01
105.45
105.78
105.45
103.90
100.64
95.45
88.44
79.99
70.58
60.67
50.60
40.60
30.70
20.81
10.63
-0.20
-11.95
-24.46
-37.02
-48.34
-56.90
-61.51
-61.65
-57.73
-50.94
-42.78
-34.68
-27.71
-22.41
-18.92
-17.14
-16.80
-17.61
-19.23
-21.36
-23.69
-25.96
-28.01
-29.75
-31.25
-32.68
-34.24
-36.11
-38.35
-40.97
-43.96
-47.41
-51.48
-56.28
-61.75
-67.57
-73.20
-77.99
-81.44
-83.36
-83.96
-83.77
-83.52
-83.86
-85.11
-87.00
-88.65
-88.72
-85.80
-78.90
-67.84
-53.34
-36.78
-19.81
-3.84
10.21
22.02
31.66
39.42
45.61
50.50
54.40
57.62
60.50
63.33
66.21
69.02
71.45
73.13
73.84
73.65
72.85
71.85
70.94
70.09
69.08
67.53
65.25
62.36
59.23
56.36
54.09
52.49
51.26
49.86
47.67
44.21
39.39
33.65
28.07
24.09
23.23
26.56
34.32
45.71
59.18
72.93
85.51
96.23
105.20
113.12
120.73
128.42
135.99
142.67
147.59
150.28
151.24
152.01
154.74
161.08
171.13
182.82
192.33
195.68
190.49
176.92
157.33
135.29
114.62
99.23
92.98
99.15
119.03
150.27
186.32
218.08
237.05
238.86
224.80
200.71
173.77
149.34
129.45
113.52
100.23
89.18
80.99
76.43
75.37
76.45
77.72
77.47
75.08
71.20
67.23
64.47
63.52
63.91
64.33
63.22
59.44
52.76
43.88
34.02
24.41
15.73
7.84
-0.06
-9.04
-19.92
-32.88
-47.42
-62.50
-77.05
-90.30
-102.16
-113.07
-123.86
-135.28
-147.73
-161.05
-174.65
-187.81
-200.09
-211.59
-223.00
-235.39
-249.78
-266.76
-286.28
-307.80
-330.44
-353.50
-376.69
-400.16
-424.51
-450.69
-480.04
-513.95
-553.24
-597.29
-643.25
-686.14
-719.83
-738.91
-740.43
-724.81
-695.47
-657.38
-615.35
-573.03
-532.72
-495.82
-463.27
-435.73
-413.11
-394.32
-377.34
-359.83
-339.96
-317.07
-291.80
-265.69
-240.45
-217.23
-196.25
-176.93
-158.25
-139.21
-119.28
-98.38
-76.78
-54.87
-32.84
-10.79
11.25
33.02
53.94
73.13
89.55
102.43
111.47
117.03
120.01
121.55
122.67
124.03
125.81
127.95
130.38
133.32
137.37
143.30
151.77
162.94
176.38
191.19
206.30
220.88
234.65
247.88
261.32
276.10
293.53
314.71
339.97
368.08
395.81
418.37
430.67
429.06
412.74
384.12
347.90
309.38
272.84
240.65
213.42
190.73
171.87
156.22
143.12
131.74
120.95
109.63
97.04
83.13
68.59
54.71
42.88
34.05
28.38
25.19
23.25
21.55
19.84
18.90
20.25
25.35
34.70
47.52
61.95
75.75
87.14
95.34
100.36
102.53
101.99
98.88
93.91
88.86
86.49
89.53
99.27
114.56
131.98
147.09
156.13
157.27
150.81
138.27
121.37
101.42
79.88
59.18
43.14
36.19
41.46
59.01
85.04
112.90
135.32
146.94
145.89
133.91
114.92
93.02
71.00
49.66
28.30
5.77
-18.49
-43.98
-69.28
-92.81
-113.44
-131.01
-146.08
-159.31
-170.91
-180.47
-187.43
-191.79
-194.48
-197.13
-201.17
-206.85
-212.81
-216.49
-215.19
-207.17
-192.35
-172.10
-148.65
-124.20
-100.33
-77.85
-57.04
-38.02
-21.03
-6.44
5.42
14.57
21.49
27.16
32.70
38.92
45.95
53.20
59.60
64.13
66.25
66.03
64.00
60.59
55.95
49.99
42.75
34.79
27.22
21.38
18.25
18.11
20.49
24.63
29.90
36.18
43.76
52.98
63.80
75.50
86.73
95.90
101.63
103.11
100.28
93.74
84.53
73.74
62.25
50.63
39.17
28.07
17.58
7.95
-0.57
-7.98
-14.53
-20.78
-27.45
-35.09
-44.01
-54.11
-65.00
-76.32
-87.82
-99.25
-110.08
-119.20
-124.92
-125.37
-119.28
-106.55
-88.50
-67.46
-45.93
-25.84
-8.12
7.26
20.77
32.80
43.50
52.72
60.21
65.93
70.02
72.72
74.27
74.74
74.04
72.07
68.87
64.62
59.66
54.20
48.20
41.36
33.19
23.28
11.53
-1.74
-15.76
-29.33
-40.99
-49.16
-52.42
-49.87
-41.38
-27.81
-10.86
7.31
24.67
39.73
51.78
60.83
67.33
71.79
74.53
75.62
75.04
72.79
69.11
64.41
59.26
54.17
49.51
45.42
41.86
38.63
35.51
32.30
28.87
25.09
20.82
15.84
9.84
2.61
-5.73
-14.55
-22.66
-28.60
-31.21
-30.09
-25.75
-19.25
-11.64
-3.44
5.36
14.90
24.94
34.60
42.62
47.91
50.09
49.61
47.45
44.47
41.11
37.34
32.94
27.90
22.63
17.78
13.92
11.30
9.58
7.98
5.51
1.37
-4.80
-12.78
-21.81
-30.82
-38.65
-44.32
-47.06
-46.40
-42.17
-34.51
-23.92
-11.21
2.48
15.91
27.83
37.22
43.30
45.68
44.39
39.92
33.25
25.66
18.55
13.10
10.03
9.43
10.85
13.45
16.28
18.50
19.61
19.44
18.12
15.90
12.96
9.34
4.85
-0.62
-6.85
-13.11
-18.16
-20.69
-19.78
-15.31
-8.11
0.45
8.97
16.59
23.12
28.91
34.37
39.53
43.98
47.05
48.16
47.14
44.37
40.57
36.45
32.45
28.63
24.75
20.57
16.01
11.31
6.87
3.08
0.05
-2.49
-5.15
-8.67
-13.67
-20.43
-28.79
-38.12
-47.40
-55.38
-60.76
-62.59
-60.46
-54.73
-46.34
-36.53
-26.34
-16.38
-6.79
2.50
11.45
19.69
26.63
31.69
34.55
35.32
34.49
32.69
30.42
27.92
25.17
21.96
18.16
13.90
9.57
5.85
3.38
2.54
3.20
4.65
5.72
5.01
1.29
-6.19
-17.37
-31.18
-45.66
-58.31
-66.75
-69.33
-65.64
-56.48
-43.61
-29.11
-14.80
-2.01
8.52
16.46
21.73
24.44
24.89
23.61
21.26
18.53
15.93
13.75
12.04
10.71
9.62
8.64
7.65
6.55
5.29
3.81
2.10
0.18
-1.95
-4.32
-7.04
-10.23
-14.06
-18.69
-24.20
-30.54
-37.35
-43.96
-49.31
-52.20
-51.61
-47.00
-38.65
-27.60
-15.40
-3.64
6.47
14.39
20.11
24.01
26.46
27.68
27.69
26.53
24.44
21.83
19.22
17.01
15.31
13.92
12.49
10.74
8.59
6.20
3.77
1.48
-0.70
-2.94
-5.49
-8.56
-12.30
-16.83
-22.28
-28.73
-36.05
-43.73
-50.74
-55.75
-57.40
-54.86
-48.09
-37.98
-26.03
-13.84
-2.71
6.64
14.01
19.52
23.39
25.79
26.82
26.64
25.46
23.54
21.18
18.62
16.11
13.81
11.83
10.23
8.97
7.96
7.06
6.12
5.02
3.60
1.70
-0.85
-4.17
-8.34
-13.35
-19.15
-25.70
-32.87
-40.40
-47.74
-53.99
-58.05
-58.83
-55.66
-48.49
-38.06
-25.67
-12.87
-1.00
9.03
16.88
22.65
26.67
29.27
30.73
31.21
30.84
29.80
28.32
26.60
24.80
23.01
21.27
19.59
18.01
16.54
15.13
13.63
11.76
9.25
5.90
1.74
-3.02
-8.01
-12.96
-17.76
-22.57
-27.75
-33.62
-40.33
-47.62
-54.72
-60.47
-63.60
-63.09
-58.49
-50.14
-39.01
-26.53
-14.09
-2.79
6.76
14.35
20.07
24.08
26.62
27.97
28.41
28.25
27.70
26.89
25.83
24.50
22.94
21.26
19.65
18.30
17.28
16.52
15.76
14.62
12.71
9.77
5.71
0.74
-4.79
-10.45
-15.92
-21.09
-26.09
-31.23
-36.83
-43.00
-49.50
-55.65
-60.41
-62.66
-61.50
-56.56
-48.13
-37.07
-24.65
-12.22
-0.90
8.58
15.96
21.34
25.07
27.54
29.04
29.76
29.77
29.12
27.95
26.45
24.86
23.43
22.31
21.59
21.29
21.30
21.37
21.14
20.20
18.25
15.22
11.26
6.71
1.96
-2.70
-7.14
-11.43
-15.84
-20.77
-26.64
-33.70
-41.82
-50.29
-57.87
-63.01
-64.34
-61.09
-53.45
-42.48
-29.82
-17.22
-6.07
2.89
9.53
14.21
17.49
19.88
21.71
23.09
24.01
24.42
24.31
23.77
22.94
21.99
21.04
20.17
19.37
18.54
17.51
15.98
13.58
10.05
5.31
-0.36
-6.44
-12.31
-17.46
-21.77
-25.43
-28.96
-32.89
-37.50
-42.60
-47.49
-51.07
-52.17
-49.89
-43.93
-34.76
-23.47
-11.46
-0.02
9.92
17.97
24.10
28.50
31.39
32.99
33.53
33.22
32.34
31.11
29.69
28.19
26.63
25.05
23.48
21.94
20.42
18.85
17.06
14.85
12.03
8.50
4.30
-0.36
-5.20
-9.98
-14.60
-19.17
-23.99
-29.39
-35.61
-42.57
-49.79
-56.28
-60.76
-61.91
-58.85
-51.48
-40.58
-27.69
-14.55
-2.60
7.38
15.32
21.55
26.48
30.33
33.09
34.71
35.24
34.88
33.92
32.57
30.97
29.15
27.20
25.27
23.56
22.24
21.31
20.54
19.50
17.73
14.90
10.94
6.12
0.90
-4.24
-9.04
-13.47
-17.82
-22.44
-27.66
-33.60
-40.12
-46.77
-52.74
-56.98
-58.37
-56.12
-49.99
-40.55
-29.00
-16.79
-5.21
4.89
13.25
19.91
25.03
28.70
30.97
31.96
31.94
31.30
30.46
29.73
29.16
28.65
28.02
27.11
25.93
24.61
23.30
22.08
20.80
19.14
16.70
13.28
8.92
3.99
-0.97
-5.49
-9.36
-12.79
-16.29
-20.51
-25.94
-32.78
-40.78
-49.18
-56.85
-62.42
-64.67
-62.81
-56.74
-47.16
-35.32
-22.71
-10.58
0.22
9.39
16.94
23.05
27.80
31.20
33.21
33.88
33.47
32.38
31.12
30.03
29.29
28.80
28.32
27.61
26.56
25.25
23.86
22.52
21.16
19.51
17.17
13.76
9.21
3.75
-2.08
-7.67
-12.56
-16.63
-20.16
-23.65
-27.70
-32.72
-38.85
-45.85
-53.07
-59.45
-63.77
-64.77
-61.62
-54.24
-43.38
-30.47
-17.21
-5.00
5.32
13.60
20.13
25.30
29.35
32.27
34.02
34.59
34.21
33.23
32.06
30.92
29.88
28.83
27.65
26.30
24.87
23.54
22.45
21.56
20.61
19.12
16.60
12.74
7.63
1.72
-4.30
-9.78
-14.42
-18.37
-22.18
-26.49
-31.81
-38.20
-45.20
-51.92
-57.20
-59.93
-59.22
-54.71
-46.68
-36.04
-24.10
-12.33
-1.95
6.25
12.07
15.81
18.08
19.58
20.84
22.09
23.27
24.15
24.50
24.26
23.67
23.09
22.93
23.38
24.33
25.34
25.74
24.90
22.35
18.03
12.25
5.63
-1.01
-6.98
-11.80
-15.35
-17.89
-19.97
-22.32
-25.70
-30.54
-36.76
-43.56
-49.54
-52.97
-52.44
-47.33
-38.04
-25.96
-12.95
-0.73
9.58
17.58
23.50
27.81
30.92
33.02
34.06
33.94
32.68
30.49
27.79
25.09
22.87
21.44
20.93
21.24
22.08
23.03
23.58
23.26
21.75
18.96
15.05
10.39
5.45
0.61
-3.99
-8.54
-13.48
-19.39
-26.63
-35.12
-44.16
-52.45
-58.45
-60.80
-58.78
-52.55
-43.13
-31.93
-20.40
-9.57
0.10
8.58
16.02
22.52
27.99
32.13
34.64
35.36
34.45
32.35
29.67
26.96
24.57
22.57
20.83
19.16
17.47
15.78
14.12
12.46
10.56
8.04
4.48
-0.44
-6.77
-14.30
-22.53
-30.76
-38.16
-43.82
-46.93
-46.89
-43.42
-36.68
-27.30
-16.20
-4.45
6.94
17.18
25.71
32.16
36.35
38.16
37.64
35.08
31.05
26.32
21.76
18.03
15.48
14.00
13.19
12.45
11.24
9.22
6.28
2.60
-1.52
-5.72
-9.77
-13.58
-17.35
-21.45
-26.36
-32.43
-39.63
-47.44
-54.78
-60.20
-62.33
-60.27
-53.92
-44.00
-31.84
-18.97
-6.67
4.26
13.49
21.05
27.09
31.70
34.94
36.83
37.46
37.05
35.92
34.41
32.72
30.93
28.95
26.65
23.99
21.04
17.91
14.69
11.33
7.66
3.52
-1.16
-6.33
-11.84
-17.59
-23.58
-29.84
-36.25
-42.33
-47.25
-49.97
-49.56
-45.50
-38.00
-27.83
-16.24
-4.51
6.31
15.57
23.08
28.92
33.28
36.31
38.04
38.44
37.59
35.73
33.30
30.85
28.79
27.26
26.11
24.98
23.56
21.71
19.55
17.30
15.11
12.90
10.36
7.05
2.60
-3.17
-10.20
-18.15
-26.55
-34.67
-41.62
-46.38
-47.98
-45.79
-39.73
-30.46
-19.23
-7.57
3.09
11.85
18.40
23.01
26.25
28.58
30.25
31.18
31.11
29.84
27.41
24.10
20.40
16.81
13.69
11.16
9.18
7.60
6.23
4.97
3.70
2.33
0.73
-1.31
-4.03
-7.67
-12.39
-18.24
-25.07
-32.50
-39.89
-46.39
-51.04
-52.92
-51.37
-46.19
-37.71
-26.78
-14.60
-2.42
8.71
18.12
25.54
31.05
34.87
37.29
38.55
38.84
38.34
37.17
35.52
33.59
31.66
30.00
28.82
28.20
28.00
27.85
27.27
25.87
23.39
19.90
15.64
10.92
5.95
0.82
-4.53
-10.17
-16.19
-22.59
-29.23
-35.82
-41.76
-46.22
-48.18
-46.82
-41.76
-33.40
-22.78
-11.36
-0.56
8.68
16.04
21.74
26.24
29.98
33.07
35.37
36.55
36.37
34.84
32.39
29.83
28.19
28.41
31.06
36.09
42.83
50.16
56.83
61.67
63.89
63.09
59.28
52.82
44.39
34.87
25.28
16.49
9.11
3.27
-1.33
-5.25
-9.16
-13.53
-18.50
-23.72
-28.38
-31.39
-31.61
-28.28
-21.24
-11.14
0.74
12.78
23.57
32.24
38.65
43.16
46.34
48.56
49.77
49.63
47.71
43.85
38.33
31.89
25.47
19.84
15.37
11.98
9.27
6.77
4.19
1.54
-1.02
-3.22
-4.99
-6.46
-7.99
-9.94
-12.50
-15.60
-18.89
-21.96
-24.53
-26.73
-29.03
-32.14
-36.68
-42.92
-50.58
-58.89
-66.75
-72.96
-76.45
-76.49
-72.87
-65.91
-56.41
-45.44
-34.06
-23.12
-13.16
-4.47
2.86
8.77
13.25
16.35
18.24
19.15
19.41
19.30
19.06
18.79
18.52
18.16
17.67
17.04
16.38
15.90
15.79
16.10
16.62
16.88
16.32
14.51
11.28
6.89
1.85
-3.21
-7.75
-11.61
-14.98
-18.45
-22.67
-28.18
-35.07
-42.86
-50.55
-56.84
-60.46
-60.52
-56.78
-49.67
-40.17
-29.47
-18.75
-8.88
-0.42
6.43
11.67
15.48
18.06
19.61
20.30
20.21
19.43
18.06
16.31
14.52
13.08
12.29
12.23
12.73
13.41
13.81
13.56
12.41
10.28
7.19
3.26
-1.26
-5.98
-10.46
-14.34
-17.42
-19.87
-22.03
-24.40
-27.34
-31.06
-35.67
-41.19
-47.61
-54.68
-61.75
-67.64
-70.89
-70.18
-64.84
-55.18
-42.45
-28.43
-14.84
-2.88
6.87
14.43
20.01
23.80
25.88
26.35
25.41
23.53
21.32
19.38
18.10
17.55
17.52
17.66
17.72
17.64
17.61
17.84
18.43
19.15
19.41
18.48
15.77
11.09
4.78
-2.44
-9.77
-16.70
-23.17
-29.48
-36.13
-43.37
-51.11
-58.84
-65.70
-70.68
-72.77
-71.14
-65.38
-55.60
-42.61
-27.68
-12.41
1.72
13.57
22.48
28.23
30.91
30.88
28.64
24.82
20.17
15.41
11.19
8.04
6.26
5.98
7.09
9.26
11.89
14.18
15.27
14.34
10.79
4.35
-4.69
-15.45
-26.55
-36.41
-43.73
-47.94
-49.43
-49.37
-49.34
-50.64
-53.81
-58.39
-63.08
-66.22
-66.34
-62.67
-55.39
-45.53
-34.54
-23.92
-14.73
-7.39
-1.74
2.76
6.76
10.76
15.06
19.69
24.44
28.99
32.99
36.26
38.80
40.83
42.66
44.47
46.29
47.83
48.67
48.36
46.69
43.76
40.09
36.55
34.00
33.05
33.69
35.23
36.36
35.69
32.14
25.37
15.81
4.49
-7.26
-18.12
-26.93
-32.78
-35.13
-33.87
-29.36
-22.28
-13.34
-3.05
8.38
20.77
33.56
45.30
53.79
56.59
52.07
40.03
22.07
0.86
-20.63
-40.13
-56.51
-69.58
-79.71
-87.46
-93.69
-99.82
-107.78
-119.27
-134.74
-152.57
-169.23
-180.51
-183.31
-176.92
-163.24
-145.78
-128.06
-112.31
-99.08
-87.60
-76.58
-64.89
-51.81
-37.04
-20.68
-3.31
13.93
29.56
42.12
50.74
55.49
57.39
58.15
59.66
63.27
69.51
78.00
87.63
97.08
105.16
111.23
115.15
117.20
117.80
117.40
116.38
115.06
113.70
112.54
111.73
111.35
111.35
111.53
111.47
110.57
108.10
103.44
96.21
86.55
75.11
63.11
52.08
43.61
39.00
38.87
42.99
50.14
58.42
65.70
70.15
70.61
66.71
58.74
47.23
32.80
16.06
-2.22
-20.90
-38.44
-53.11
-63.38
-68.38
-68.27
-64.16
-57.89
-51.50
-46.74
-44.67
-45.44
-48.45
-52.56
-56.50
-59.27
-60.37
-59.90
-58.46
-56.89
-56.02
-56.33
-57.79
-59.75
-61.02
-60.15
-55.82
-47.28
-34.66
-18.92
-1.68
15.33
30.65
43.28
52.73
58.87
61.92
62.37
61.02
58.75
56.30
53.89
51.15
47.28
41.51
33.59
24.07
14.20
5.56
-0.50
-3.19
-2.63
0.22
3.78
6.26
6.15
2.69
-3.91
-12.55
-21.55
-29.19
-34.08
-35.52
-33.55
-28.93
-22.83
-16.53
-10.92
-6.22
-1.83
3.39
10.49
19.86
30.84
41.90
51.22
57.59
60.95
62.51
64.25
68.12
75.20
85.41
97.65
110.43
122.45
133.01
141.86
148.94
154.07
157.04
157.92
157.49
157.16
158.64
163.30
172.01
185.44
204.56
230.51
263.57
301.61
339.17
367.99
379.43
367.56
331.52
275.74
208.02
136.50
67.19
3.05
-55.20
-107.71
-154.47
-195.18
-229.88
-259.60
-286.48
-313.12
-341.40
-371.39
-400.99
-426.55
-444.28
-451.82
-449.17
-438.49
-422.84
-404.61
-384.44
-361.25
-333.33
-299.75
-261.41
-220.96
-181.87
-147.15
-118.31
-95.21
-76.58
-60.90
-47.07
-34.69
-23.81
-14.51
-6.60
0.37
6.88
13.13
18.91
23.74
27.12
28.75
28.69
27.18
24.49
20.75
15.97
10.13
3.45
-3.40
-9.27
-12.63
-12.07
-6.74
3.25
16.72
31.81
46.45
58.90
68.10
73.70
75.92
75.32
72.58
68.40
63.42
58.16
52.97
48.07
43.58
39.56
36.01
32.88
30.05
27.41
24.78
22.03
19.01
15.44
10.94
5.00
-2.66
-11.85
-21.58
-30.17
-35.68
-36.48
-31.96
-22.70
-10.29
3.27
16.15
27.14
35.69
41.74
45.46
47.07
46.88
45.30
42.84
40.06
37.35
34.84
32.39
29.72
26.57
22.94
19.06
15.32
12.10
9.48
7.23
4.73
1.19
-4.10
-11.47
-20.57
-30.38
-39.22
-45.20
-46.74
-43.08
-34.59
-22.64
-9.15
4.06
15.75
25.43
33.17
39.22
43.69
46.49
47.47
46.72
44.64
41.91
39.16
36.81
34.86
33.04
31.00
28.55
25.73
22.72
19.64
16.36
12.54
7.70
1.48
-6.24
-15.11
-24.40
-32.99
-39.69
-43.34
-43.21
-39.04
-31.18
-20.41
-7.76
5.68
18.86
30.80
40.54
47.26
50.41
49.90
46.22
40.38
33.64
27.22
21.96
18.22
15.95
14.82
14.41
14.36
14.36
14.13
13.42
12.01
9.61
5.97
0.77
-6.36
-15.77
-27.62
-41.56
-56.53
-70.65
-81.50
-86.62
-84.29
-74.11
-57.21
-36.03
-13.67
6.97
23.85
36.07
43.78
47.95
50.05
51.81
55.03
61.25
71.43
85.48
102.15
119.12
133.69
143.66
148.14
147.95
145.25
142.57
141.76
143.42
147.19
152.52
159.43
168.47
180.07
193.61
207.14
217.97
223.92
224.16
219.23
209.95
196.13
176.15
147.64
109.09
61.37
7.96
-46.13
-96.19
-139.45
-175.50
-205.63
-231.55
-254.24
-273.54
-288.54
-298.45
-303.29
-303.93
-301.59
-297.10
-290.36
-280.44
-266.17
-246.93
-223.22
-196.65
-169.45
-143.81
-121.35
-102.97
-88.91
-79.03
-72.94
-69.83
-68.42
-66.95
-63.48
-56.42
-45.01
-29.71
-11.94
6.33
23.24
37.54
48.68
56.67
61.77
64.26
64.44
62.74
59.87
56.75
54.30
53.10
53.14
53.80
54.13
53.20
50.52
46.17
40.69
34.79
29.05
23.72
18.67
13.50
7.73
0.91
-7.18
-16.43
-26.29
-35.69
-43.24
-47.48
-47.30
-42.31
-32.99
-20.53
-6.54
7.42
20.14
30.85
39.17
44.99
48.31
49.25
48.13
45.41
41.75
37.83
34.22
31.23
28.91
27.05
25.34
23.54
21.54
19.35
17.10
14.90
12.68
10.17
6.91
2.33
-3.99
-12.10
-21.46
-30.97
-39.08
-44.18
-45.04
-41.15
-32.88
-21.37
-8.19
5.11
17.32
27.69
35.88
41.78
45.37
46.68
45.89
43.41
39.91
36.17
32.86
30.33
28.51
26.98
25.23
22.90
19.98
16.75
13.53
10.49
7.45
3.90
-0.77
-7.04
-14.99
-24.18
-33.70
-42.25
-48.37
-50.81
-48.84
-42.52
-32.69
-20.77
-8.33
3.36
13.59
22.14
29.06
34.33
37.78
39.17
38.43
35.87
32.26
28.58
25.64
23.79
22.83
22.10
20.91
18.81
15.85
12.42
9.03
5.98
3.20
0.20
-3.69
-9.07
-16.23
-24.92
-34.34
-43.18
-49.89
-53.02
-51.67
-45.82
-36.32
-24.70
-12.61
-1.39
8.31
16.40
23.12
28.65
32.97
35.86
37.11
36.77
35.17
32.90
30.51
28.45
26.82
25.51
24.22
22.66
20.62
18.09
15.18
12.11
9.00
5.85
2.47
-1.43
-6.16
-11.94
-18.81
-26.57
-34.77
-42.54
-48.72
-52.02
-51.37
-46.31
-37.23
-25.32
-12.21
0.49
11.61
20.59
27.35
32.06
34.87
35.93
35.36
33.44
30.61
27.43
24.40
21.91
20.08
18.83
17.89
16.97
15.80
14.24
12.21
9.78
7.00
3.92
0.59
-3.00
-6.86
-11.06
-15.74
-21.10
-27.33
-34.38
-41.85
-48.81
-53.95
-55.92
-53.73
-47.21
-37.09
-24.87
-12.29
-0.86
8.53
15.65
20.82
24.53
27.23
29.13
30.30
30.74
30.44
29.57
28.30
26.88
25.49
24.21
23.05
21.94
20.79
19.58
18.33
17.04
15.66
14.01
11.85
8.98
5.29
0.88
-4.07
-9.42
-15.17
-21.51
-28.66
-36.59
-44.78
-52.17
-57.31
-58.84
-56.00
-48.96
-38.86
-27.33
-16.05
-6.14
1.99
8.50
13.79
18.07
21.37
23.55
24.58
24.69
24.28
23.78
23.47
23.38
23.35
23.19
22.80
22.18
21.32
20.14
18.44
15.97
12.62
8.49
3.86
-0.85
-5.34
-9.46
-13.33
-17.26
-21.63
-26.81
-32.98
-39.99
-47.22
-53.65
-57.94
-58.87
-55.65
-48.27
-37.61
-25.21
-12.76
-1.68
7.33
14.25
19.49
23.54
26.67
28.95
30.35
30.93
30.90
30.56
30.11
29.60
28.95
28.14
27.24
26.42
25.78
25.23
24.46
23.04
20.66
17.25
13.06
8.53
4.06
-0.19
-4.41
-9.06
-14.76
-21.98
-30.81
-40.85
-51.21
-60.65
-67.81
-71.52
-71.02
-66.12
-57.31
-45.62
-32.52
-19.51
-7.76
2.06
9.86
15.98
20.91
24.95
28.23
30.63
32.02
32.44
32.11
31.42
30.75
30.30
30.07
29.89
29.54
28.89
27.93
26.66
25.08
23.03
20.30
16.70
12.22
7.04
1.44
-4.35
-10.34
-16.76
-23.96
-32.14
-41.29
-51.00
-60.63
-69.30
-76.01
-79.77
-79.74
-75.51
-67.27
-55.88
-42.68
-29.11
-16.32
-4.91
4.98
13.56
20.98
27.24
32.27
35.91
38.21
39.41
39.85
39.86
39.66
39.25
38.53
37.39
35.84
34.01
32.16
30.48
28.97
27.37
25.21
22.01
17.50
11.81
5.43
-0.88
-6.45
-10.89
-14.31
-17.23
-20.42
-24.65
-30.40
-37.66
-45.86
-53.89
-60.29
-63.60
-62.77
-57.52
-48.50
-37.11
-25.07
-13.94
-4.69
2.42
7.66
11.48
14.23
15.98
16.66
16.24
14.88
12.99
11.07
9.52
8.44
7.65
6.76
5.44
3.55
1.24
-1.15
-3.30
-5.15
-6.99
-9.43
-13.11
-18.47
-25.38
-33.22
-40.97
-47.51
-51.93
-53.76
-53.03
-50.25
-46.26
-42.02
-38.33
-35.47
-32.96
-29.54
-23.46
-13.13
2.15
21.69
43.52
65.00
83.72
98.28
108.49
115.07
118.91
120.55
120.04
117.16
112.11
105.69
99.36
94.62
92.45
92.83
94.82
97.08
98.49
98.73
98.37
98.60
100.64
105.09
111.67
119.29
126.52
132.21
136.07
138.75
141.59
145.89
152.36
160.57
169.10
175.94
179.14
177.41
170.33
158.49
143.35
127.15
112.52
101.80
96.00
94.02
92.54
86.96
73.04
48.60
14.24
-27.12
-71.76
-116.75
-160.70
-203.41
-244.64
-283.05
-316.00
-340.46
-354.35
-357.62
-352.35
-341.86
-329.32
-316.67
-304.24
-291.27
-276.94
-261.07
-244.37
-228.06
-213.14
-200.00
-188.36
-177.73
-167.87
-159.03
-151.86
-146.80
-143.64
-141.20
-137.58
-130.78
-119.36
-103.08
-82.93
-60.83
-38.94
-19.06
-2.19
11.52
22.53
31.58
39.27
46.00
51.86
56.75
60.50
63.02
64.29
64.46
63.72
62.31
60.46
58.31
56.00
53.51
50.72
47.36
43.18
38.01
31.99
25.48
18.97
12.86
7.27
1.97
-3.54
-9.81
-17.32
-26.19
-36.14
-46.33
-55.41
-61.76
-63.84
-60.74
-52.55
-40.39
-26.02
-11.31
2.31
14.09
23.89
31.88
38.28
43.22
46.81
49.17
50.53
51.13
51.21
50.97
50.55
50.10
49.77
49.61
49.60
49.55
49.15
48.08
46.06
42.97
38.88
34.01
28.68
23.22
17.85
12.64
7.46
2.03
-4.03
-11.02
-19.01
-27.66
-36.06
-42.83
-46.34
-45.26
-39.04
-28.24
-14.34
0.65
14.88
27.14
36.97
44.42
49.75
53.11
54.50
53.99
51.80
48.39
44.36
40.18
36.16
32.39
28.89
25.69
22.85
20.40
18.31
16.39
14.42
12.18
9.61
6.78
3.89
1.07
-1.65
-4.48
-7.78
-12.03
-17.66
-24.88
-33.48
-42.65
-50.99
-56.76
-58.31
-54.58
-45.54
-32.25
-16.59
-0.67
13.74
25.61
34.73
41.49
46.47
50.13
52.71
54.24
54.66
54.03
52.56
50.58
48.47
46.54
44.98
43.84
43.08
42.53
41.97
41.06
39.47
36.88
33.12
28.17
22.16
15.34
7.97
0.23
-7.79
-16.18
-25.08
-34.60
-44.55
-54.23
-62.45
-67.61
-68.26
-63.57
-53.81
-40.30
-25.08
-10.22
2.74
13.11
20.99
26.88
31.32
34.63
36.89
38.05
38.07
37.10
35.45
33.58
31.99
31.10
31.14
32.02
33.42
34.77
35.52
35.29
34.04
31.98
29.49
26.91
24.39
21.84
18.96
15.27
10.28
3.60
-4.80
-14.37
-23.86
-31.57
-35.71
-35.14
-29.77
-20.84
-10.46
-1.10
5.31
7.83
6.69
3.00
-1.78
-6.44
-10.16
-12.61
-13.67
-13.17
-10.88
-6.64
-0.55
6.73
14.18
20.61
25.10
27.22
27.09
25.10
21.68
17.13
11.60
5.26
-1.60
-8.56
-15.24
-21.51
-27.55
-33.79
-40.66
-48.17
-55.67
-61.90
-65.33
-64.67
-59.37
-49.84
-37.33
-23.50
-9.94
2.21
12.47
20.83
27.60
33.07
37.36
40.40
42.03
42.16
40.93
38.80
36.47
34.67
33.97
34.52
36.07
38.07
39.82
40.65
40.14
38.04
34.37
29.34
23.32
16.73
9.99
3.40
-2.95
-9.14
-15.30
-21.34
-26.78
-30.74
-32.12
-30.04
-24.23
-15.23
-4.30
6.99
17.23
25.55
31.66
35.69
37.96
38.65
37.91
35.85
32.73
29.06
25.52
22.77
21.23
20.95
21.49
22.20
22.37
21.53
19.59
16.78
13.57
10.30
7.11
3.78
-0.04
-4.78
-10.69
-17.79
-25.74
-33.86
-41.18
-46.55
-48.90
-47.53
-42.39
-34.09
-23.84
-13.03
-2.93
5.64
12.31
17.08
20.07
21.37
21.08
19.35
16.54
13.23
10.09
7.66
6.10
5.19
4.39
3.17
1.32
-1.03
-3.44
-5.47
-6.99
-8.26
-9.86
-12.52
-16.75
-22.74
-30.23
-38.49
-46.37
-52.49
-55.53
-54.52
-49.25
-40.32
-28.97
-16.71
-4.86
5.72
14.65
21.81
27.14
30.49
31.79
31.15
28.97
25.97
22.92
20.44
18.82
17.99
17.64
17.40
17.02
16.38
15.57
14.75
14.03
13.31
12.26
10.30
6.82
1.41
-5.82
-14.07
-21.89
-27.45
-28.95
-25.20
-16.03
-2.53
13.21
28.55
41.08
49.27
52.69
51.93
48.03
42.05
34.74
26.57
17.99
9.58
2.08
-3.87
-8.08
-10.91
-13.14
-15.60
-18.78
-22.68
-26.87
-30.85
-34.43
-37.81
-41.54
-46.23
-52.25
-59.49
-67.31
-74.63
-80.13
-82.59
-81.17
-75.76
-66.95
-56.04
-44.49
-33.56
-23.89
-15.47
-7.91
-0.82
5.85
11.85
16.76
20.40
22.96
24.93
26.87
29.08
31.48
33.70
35.22
35.71
35.09
33.55
31.38
28.86
26.08
22.98
19.36
14.93
9.41
2.62
-5.50
-14.73
-24.51
-33.91
-41.66
-46.40
-47.00
-42.97
-34.63
-23.12
-10.03
3.01
14.81
24.81
33.01
39.71
45.14
49.32
52.01
52.92
51.97
49.39
45.79
41.88
38.25
35.20
32.70
30.61
28.79
27.28
26.19
25.48
24.85
23.69
21.26
17.08
11.06
3.62
-4.53
-12.79
-20.92
-28.98
-37.09
-44.99
-51.82
-56.20
-56.76
-52.69
-44.26
-32.75
-20.01
-7.87
2.43
10.38
16.09
19.92
22.22
23.21
23.05
21.93
20.22
18.39
16.87
15.95
15.64
15.74
15.86
15.71
15.03
13.71
11.72
9.05
5.67
1.59
-3.05
-8.00
-12.90
-17.45
-21.57
-25.41
-29.47
-34.29
-40.35
-47.67
-55.73
-63.41
-69.24
-71.80
-70.19
-64.36
-55.13
-43.90
-32.21
-21.27
-11.69
-3.52
3.55
9.86
15.59
20.66
24.89
28.04
30.00
30.90
30.90
30.34
29.44
28.34
27.04
25.50
23.63
21.45
19.04
16.51
13.93
11.21
8.13
4.44
-0.04
-5.36
-11.43
-18.06
-25.10
-32.31
-39.29
-45.38
-49.63
-51.00
-48.67
-42.45
-32.90
-21.26
-9.06
2.36
12.16
20.06
26.18
30.79
34.07
36.08
36.85
36.51
35.34
33.80
32.29
31.09
30.31
29.84
29.49
29.09
28.48
27.55
26.19
24.21
21.44
17.76
13.18
7.88
2.18
-3.60
-9.29
-14.91
-20.68
-26.91
-33.75
-41.05
-48.19
-54.17
-57.77
-57.98
-54.31
-46.94
-36.83
-25.31
-13.83
-3.48
5.22
12.25
17.94
22.63
26.49
29.44
31.30
31.94
31.49
30.35
29.13
28.42
28.67
29.95
32.08
34.68
37.33
39.69
41.61
42.97
43.69
43.59
42.41
39.88
35.85
30.42
23.97
17.15
10.68
5.18
0.95
-2.08
-4.41
-6.84
-10.27
-15.44
-22.71
-31.85
-41.96
-51.63
-59.24
-63.40
-63.36
-59.22
-51.87
-42.66
-32.98
-23.81
-15.53
-8.07
-1.05
5.79
12.45
18.62
23.85
27.76
30.22
31.43
31.82
31.88
31.96
32.14
32.29
32.19
31.66
30.68
29.33
27.72
25.84
23.53
20.57
16.83
12.34
7.36
2.28
-2.54
-6.91
-10.84
-14.49
-18.09
-21.83
-25.92
-30.54
-35.83
-41.73
-47.85
-53.30
-56.91
-57.49
-54.30
-47.37
-37.54
-26.14
-14.58
-3.95
5.17
12.58
18.32
22.44
25.02
26.20
26.29
25.70
24.87
24.18
23.78
23.64
23.62
23.50
23.14
22.48
21.59
20.64
19.79
19.10
18.38
17.28
15.38
12.43
8.47
3.88
-0.79
-5.05
-8.64
-11.64
-14.36
-17.26
-20.81
-25.38
-31.15
-37.91
-44.99
-51.26
-55.31
-55.95
-52.56
-45.37
-35.41
-24.09
-12.79
-2.50
6.36
13.68
19.50
23.79
26.46
27.50
27.11
25.80
24.22
22.99
22.44
22.52
22.87
23.03
22.60
21.45
19.69
17.61
15.45
13.33
11.10
8.53
5.39
1.65
-2.47
-6.61
-10.38
-13.57
-16.26
-18.75
-21.45
-24.69
-28.57
-32.88
-37.16
-40.65
-42.51
-41.88
-38.21
-31.41
-22.06
-11.21
-0.25
9.60
17.48
23.10
26.68
28.67
29.60
29.85
29.68
29.23
28.65
28.12
27.75
27.62
27.62
27.59
27.29
26.61
25.57
24.26
22.74
20.87
18.37
14.95
10.52
5.32
-0.11
-5.18
-9.55
-13.22
-16.51
-19.88
-23.66
-27.95
-32.61
-37.31
-41.63
-45.07
-47.03
-46.90
-44.23
-38.93
-31.35
-22.33
-12.94
-4.29
2.83
8.04
11.32
13.00
13.51
13.32
12.80
12.22
11.72
11.33
11.04
10.78
10.57
10.43
10.39
10.45
10.49
10.32
9.73
8.57
6.77
4.35
1.40
-1.93
-5.53
-9.22
-12.90
-16.49
-20.03
-23.67
-27.58
-31.84
-36.27
-40.26
-42.92
-43.28
-40.69
-35.14
-27.28
-18.32
-9.52
-1.88
4.15
8.58
11.66
13.71
14.90
15.27
14.87
13.78
12.16
10.22
8.19
6.27
4.69
3.57
2.96
2.73
2.62
2.32
1.56
0.19
-1.75
-4.06
-6.55
-9.04
-11.48
-13.96
-16.65
-19.72
-23.30
-27.41
-31.82
-36.00
-39.17
-40.46
-39.21
-35.17
-28.71
-20.70
-12.32
-4.66
1.57
6.11
9.15
11.07
12.21
12.72
12.59
11.76
10.29
8.45
6.60
5.11
4.18
3.77
3.63
3.46
2.99
2.11
0.83
-0.75
-2.47
-4.25
-6.04
-7.90
-9.97
-12.47
-15.63
-19.60
-24.31
-29.39
-34.10
-37.50
-38.67
-37.02
-32.48
-25.60
-17.38
-8.98
-1.38
4.84
9.52
12.86
15.14
16.63
17.46
17.63
17.11
15.94
14.29
12.50
10.96
9.92
9.45
9.30
9.08
8.45
7.23
5.53
3.54
1.52
-0.47
-2.51
-4.78
-7.43
-10.49
-13.98
-17.86
-22.14
-26.78
-31.59
-36.03
-39.32
-40.58
-39.15
-34.80
-27.91
-19.37
-10.25
-1.60
5.90
11.94
16.52
19.79
21.90
22.97
23.17
22.77
22.15
21.72
21.69
22.09
22.71
23.30
23.68
23.82
23.79
23.62
23.20
22.27
20.56
17.92
14.39
10.24
5.82
1.49
-2.54
-6.25
-9.87
-13.80
-18.53
-24.45
-31.68
-39.86
-48.10
-55.08
-59.43
-60.08
-56.68
-49.64
-40.01
-29.05
-17.90
-7.35
2.18
10.44
17.22
22.34
25.71
27.46
27.98
27.82
27.46
27.26
27.29
27.46
27.55
27.30
26.51
25.09
23.12
20.80
18.35
15.85
13.24
10.30
6.88
2.97
-1.19
-5.20
-8.74
-11.69
-14.26
-16.89
-20.09
-24.26
-29.51
-35.55
-41.72
-47.04
-50.39
-50.86
-47.95
-41.78
-33.05
-22.83
-12.30
-2.38
6.33
13.57
19.30
23.56
26.36
27.74
27.91
27.18
26.07
25.05
24.49
24.48
24.84
25.24
25.34
24.95
24.08
22.87
21.51
20.12
18.71
17.15
15.29
12.93
9.98
6.45
2.47
-1.71
-5.83
-9.70
-13.34
-16.92
-20.76
-25.14
-30.22
-35.86
-41.57
-46.55
-49.79
-50.39
-47.74
-41.85
-33.31
-23.24
-12.92
-3.45
4.54
10.93
15.96
19.95
23.14
25.57
27.21
28.10
28.46
28.56
28.72
29.12
29.73
30.35
30.70
30.54
29.81
28.58
27.09
25.59
24.21
22.93
21.55
19.78
17.35
14.16
10.28
5.99
1.62
-2.52
-6.29
-9.75
-13.16
-16.94
-21.52
-27.12
-33.62
-40.42
-46.51
-50.74
-52.12
-50.11
-44.82
-36.91
-27.43
-17.52
-8.10
0.24
7.31
13.18
18.01
21.93
24.92
26.96
28.02
28.29
28.07
27.75
27.63
27.83
28.27
28.75
29.07
29.11
28.82
28.20
27.29
26.08
24.59
22.78
20.63
18.07
15.07
11.66
7.96
4.18
0.54
-2.86
-6.06
-9.27
-12.78
-16.89
-21.76
-27.38
-33.52
-39.62
-44.88
-48.29
-48.96
-46.35
-40.52
-32.16
-22.37
-12.35
-3.09
4.87
11.36
16.49
20.44
23.37
25.37
26.54
27.03
27.06
26.89
26.74
26.77
27.00
27.34
27.62
27.69
27.49
27.05
26.43
25.63
24.56
22.97
20.66
17.55
13.77
9.59
5.38
1.46
-2.01
-5.03
-7.77
-10.53
-13.65
-17.45
-22.15
-27.65
-33.52
-38.93
-42.84
-44.30
-42.76
-38.24
-31.33
-22.97
-14.21
-5.92
1.33
7.27
11.75
14.69
16.04
15.80
14.23
11.82
9.30
7.45
6.78
7.43
9.12
11.35
13.59
15.54
17.13
18.42
19.47
20.14
20.20
19.33
17.35
14.26
10.28
5.78
1.15
-3.28
-7.30
-10.89
-14.15
-17.32
-20.77
-24.81
-29.68
-35.24
-40.99
-45.94
-48.95
-49.02
-45.68
-39.25
-30.69
-21.36
-12.47
-4.80
1.42
6.41
10.48
13.85
16.53
18.44
19.56
20.07
20.24
20.35
20.50
20.62
20.58
20.30
19.85
19.45
19.27
19.33
19.45
19.27
18.44
16.76
14.17
10.84
6.98
2.88
-1.27
-5.28
-9.14
-12.98
-17.11
-21.92
-27.67
-34.25
-41.02
-46.88
-50.46
-50.71
-47.19
-40.30
-31.17
-21.23
-11.76
-3.51
3.29
8.84
13.44
17.31
20.48
22.92
24.64
25.75
26.45
26.94
27.33
27.58
27.65
27.50
27.23
26.97
26.80
26.65
26.16
24.84
22.22
18.21
13.13
7.75
2.98
-0.51
-2.52
-3.43
-3.99
-5.12
-7.55
-11.69
-17.52
-24.58
-32.04
-38.76
-43.51
-45.27
-43.54
-38.50
-30.97
-22.13
-13.18
-4.92
2.27
8.46
13.85
18.58
22.57
25.59
27.39
27.90
27.33
26.14
24.89
24.03
23.74
23.88
24.12
24.08
23.53
22.40
20.79
18.78
16.37
13.49
10.06
6.13
1.94
-2.16
-5.82
-8.89
-11.51
-14.14
-17.39
-21.79
-27.50
-34.18
-40.94
-46.55
-49.76
-49.67
-46.03
-39.24
-30.28
-20.35
-10.56
-1.70
5.84
11.99
16.87
20.60
23.25
24.87
25.58
25.61
25.34
25.19
25.48
26.29
27.42
28.46
29.02
28.84
28.00
26.81
25.71
24.99
24.65
24.39
23.70
22.15
19.51
15.88
11.58
7.01
2.43
-2.03
-6.42
-10.91
-15.69
-20.91
-26.64
-32.65
-38.39
-42.96
-45.31
-44.56
-40.36
-33.06
-23.66
-13.48
-3.80
4.53
11.17
16.21
19.92
22.54
24.23
25.05
25.08
24.55
23.78
23.12
22.87
23.14
23.89
24.94
26.06
27.00
27.58
27.67
27.21
26.20
24.68
22.67
20.15
17.11
13.53
9.48
5.15
0.72
-3.66
-7.90
-12.07
-16.29
-20.69
-25.38
-30.41
-35.68
-40.94
-45.70
-49.34
-51.15
-50.53
-47.14
-41.03
-32.65
-22.76
-12.26
-2.10
6.99
14.55
20.41
24.69
27.62
29.44
30.33
30.40
29.84
28.98
28.25
28.05
28.56
29.64
30.86
31.70
31.79
31.08
29.75
28.07
26.19
23.99
21.18
17.49
12.87
7.57
2.08
-3.11
-7.64
-11.48
-14.86
-18.16
-21.86
-26.35
-31.85
-38.29
-45.25
-51.86
-56.97
-59.37
-58.16
-53.08
-44.60
-33.82
-22.17
-10.98
-1.16
6.86
13.11
17.81
21.24
23.62
25.06
25.74
25.85
25.65
25.43
25.35
25.46
25.67
25.82
25.82
25.64
25.35
24.94
24.29
23.12
21.08
17.94
13.68
8.58
3.12
-2.23
-7.11
-11.45
-15.43
-19.48
-24.09
-29.68
-36.33
-43.70
-50.83
-56.34
-58.74
-56.97
-50.82
-41.10
-29.38
-17.43
-6.68
2.24
9.37
15.17
20.01
23.99
26.90
28.49
28.75
27.99
26.75
25.54
24.68
24.20
23.94
23.75
23.55
23.35
23.11
22.67
21.69
19.81
16.78
12.61
7.61
2.30
-2.80
-7.35
-11.29
-14.83
-18.35
-22.36
-27.31
-33.44
-40.65
-48.39
-55.66
-61.11
-63.45
-61.75
-55.83
-46.28
-34.39
-21.74
-9.79
0.45
8.56
14.65
19.14
22.52
25.16
27.21
28.67
29.45
29.56
29.14
28.42
27.67
27.05
26.58
26.10
25.47
24.57
23.39
22.00
20.41
18.47
15.92
12.46
7.98
2.63
-3.09
-8.56
-13.26
-17.08
-20.47
-24.28
-29.39
-36.24
-44.45
-52.72
-59.21
-62.13
-60.41
-54.06
-44.10
-32.18
-19.91
-8.47
1.55
10.03
17.00
22.54
26.65
29.46
31.20
32.24
32.95
33.51
33.93
34.02
33.63
32.74
31.47
30.09
28.88
27.95
27.22
26.45
25.25
23.27
20.28
16.24
11.33
5.89
0.33
-5.03
-9.96
-14.50
-18.85
-23.44
-28.66
-34.81
-41.82
-49.09
-55.54
-59.80
-60.63
-57.28
-49.86
-39.28
-27.04
-14.72
-3.53
5.88
13.53
19.75
24.92
29.19
32.47
34.55
35.37
35.15
34.39
33.64
33.32
33.48
33.85
34.02
33.64
32.66
31.28
29.84
28.52
27.31
25.94
24.01
21.16
17.20
12.18
6.41
0.31
-5.63
-11.05
-15.76
-19.85
-23.67
-27.67
-32.37
-38.06
-44.69
-51.72
-58.18
-62.81
-64.40
-62.07
-55.58
-45.49
-32.99
-19.65
-6.97
3.98
12.70
19.23
23.93
27.26
29.57
31.09
31.98
32.37
32.46
32.43
32.43
32.50
32.61
32.69
32.68
32.52
32.16
31.58
30.74
29.61
28.06
25.93
23.03
19.19
14.45
9.05
3.46
-1.83
-6.49
-10.50
-14.13
-17.78
-21.85
-26.61
-32.21
-38.69
-45.94
-53.55
-60.66
-66.01
-68.19
-66.16
-59.63
-49.26
-36.52
-23.10
-10.55
0.21
8.92
15.79
21.27
25.74
29.39
32.21
34.07
34.93
34.91
34.37
33.78
33.54
33.82
34.50
35.21
35.53
35.16
34.03
32.31
30.28
28.17
26.00
23.59
20.62
16.85
12.22
6.95
1.41
-4.02
-9.12
-13.89
-18.50
-23.17
-28.08
-33.34
-39.07
-45.33
-52.06
-58.81
-64.68
-68.40
-68.68
-64.70
-56.48
-44.98
-31.76
-18.50
-6.51
3.53
11.52
17.70
22.38
25.77
28.01
29.27
29.80
29.90
29.91
30.08
30.55
31.29
32.10
32.73
32.92
32.51
31.50
30.03
28.33
26.57
24.75
22.63
19.85
16.07
11.20
5.52
-0.37
-5.89
-10.66
-14.71
-18.49
-22.59
-27.57
-33.69
-40.94
-48.92
-56.91
-63.87
-68.53
-69.66
-66.45
-58.85
-47.72
-34.64
-21.34
-9.21
1.02
9.33
16.08
21.64
26.19
29.74
32.22
33.71
34.39
34.55
34.41
34.10
33.62
32.97
32.17
31.31
30.50
29.75
28.97
27.97
26.42
24.05
20.66
16.26
11.01
5.27
-0.54
-6.04
-11.01
-15.46
-19.64
-23.98
-29.00
-35.07
-42.25
-50.08
-57.54
-63.23
-65.71
-64.01
-57.94
-48.22
-36.24
-23.57
-11.54
-0.92
8.08
15.61
21.89
27.02
30.94
33.61
35.08
35.65
35.75
35.84
36.24
36.97
37.84
38.49
38.61
38.00
36.71
34.94
32.91
30.76
28.47
25.83
22.52
18.30
13.11
7.14
0.79
-5.43
-11.14
-16.18
-20.67
-25.00
-29.64
-35.06
-41.50
-48.89
-56.70
-64.01
-69.57
-72.11
-70.70
-65.03
-55.58
-43.47
-30.21
-17.25
-5.63
4.17
12.21
18.79
24.23
28.68
32.13
34.46
35.67
35.94
35.60
35.01
34.49
34.15
33.96
33.82
33.62
33.29
32.84
32.25
31.45
30.24
28.36
25.54
21.64
16.75
11.21
5.48
0.04
-4.83
-9.11
-13.05
-17.05
-21.60
-27.10
-33.80
-41.64
-50.13
-58.30
-64.79
-68.17
-67.36
-62.03
-52.71
-40.68
-27.56
-14.80
-3.37
6.38
14.54
21.36
27.00
31.46
34.65
36.55
37.35
37.46
37.36
37.42
37.75
38.13
38.18
37.54
36.07
33.97
31.61
29.38
27.44
25.64
23.55
20.71
16.79
11.79
6.04
0.05
-5.69
-10.88
-15.48
-19.65
-23.66
-27.78
-32.32
-37.56
-43.75
-50.90
-58.56
-65.66
-70.68
-72.07
-68.75
-60.64
-48.71
-34.68
-20.44
-7.51
3.35
12.12
19.23
25.19
30.28
34.48
37.61
39.47
40.10
39.80
39.05
38.33
37.93
37.88
37.98
37.93
37.50
36.59
35.30
33.77
32.14
30.42
28.46
25.96
22.64
18.34
13.12
7.34
1.46
-4.07
-8.99
-13.34
-17.38
-21.56
-26.35
-32.10
-38.97
-46.79
-55.00
-62.56
-68.12
-70.29
-68.05
-61.10
-50.12
-36.57
-22.25
-8.78
2.83
12.30
19.87
25.98
30.88
34.65
37.16
38.36
38.41
37.63
36.45
35.17
33.83
32.23
30.07
27.12
23.46
19.48
15.73
12.73
10.66
9.28
8.02
6.27
3.65
0.19
-3.78
-7.78
-11.49
-14.89
-18.28
-22.21
-27.28
-33.92
-42.17
-51.49
-60.74
-68.38
-72.79
-72.73
-67.78
-58.41
-45.86
-31.76
-17.68
-4.85
6.06
14.88
21.77
27.05
31.01
33.79
35.47
36.13
35.96
35.29
34.54
34.06
33.96
34.12
34.25
34.11
33.61
32.87
32.08
31.29
30.30
28.67
25.85
21.50
15.62
8.68
1.40
-5.42
-11.30
-16.22
-20.60
-25.17
-30.65
-37.46
-45.48
-54.07
-62.06
-68.04
-70.70
-69.11
-63.05
-53.11
-40.55
-26.97
-13.85
-2.22
7.48
15.25
21.34
25.96
29.28
31.46
32.72
33.37
33.67
33.81
33.81
33.61
33.13
32.43
31.61
30.82
30.10
29.42
28.62
27.51
25.87
23.45
20.05
15.57
10.13
4.07
-2.17
-8.21
-13.94
-19.61
-25.75
-32.91
-41.36
-50.76
-60.07
-67.74
-72.07
-71.72
-66.21
-56.10
-42.88
-28.47
-14.66
-2.65
7.14
14.91
21.17
26.36
30.66
34.00
36.30
37.60
38.14
38.29
38.33
38.37
38.33
38.07
37.48
36.62
35.58
34.47
33.21
31.52
28.98
25.25
20.21
14.03
7.18
0.24
-6.28
-12.14
-17.52
-22.90
-28.92
-36.06
-44.42
-53.42
-61.90
-68.37
-71.32
-69.74
-63.41
-53.01
-39.95
-25.95
-12.62
-1.00
8.51
16.08
22.15
27.08
31.02
33.97
35.90
36.93
37.35
37.47
37.55
37.62
37.53
37.13
36.35
35.30
34.19
33.18
32.27
31.24
29.70
27.22
23.54
18.57
12.54
5.87
-0.90
-7.26
-12.88
-17.75
-22.27
-27.08
-32.91
-40.24
-48.96
-58.25
-66.61
-72.26
-73.63
-69.94
-61.46
-49.43
-35.65
-21.89
-9.39
1.34
10.37
18.02
24.51
29.87
33.95
36.70
38.30
39.12
39.62
40.07
40.46
40.52
39.98
38.74
37.00
35.19
33.72
32.72
31.93
30.71
28.28
24.05
17.92
10.35
2.23
-5.47
-12.00
-17.17
-21.31
-25.10
-29.36
-34.75
-41.56
-49.61
-58.19
-66.03
-71.61
-73.46
-70.65
-63.13
-51.84
-38.39
-24.58
-11.88
-1.03
7.84
15.03
20.90
25.66
29.34
31.93
33.47
34.21
34.47
34.58
34.79
35.11
35.42
35.55
35.37
34.90
34.27
33.57
32.77
31.61
29.62
26.33
21.53
15.36
8.37
1.28
-5.32
-11.18
-16.48
-21.73
-27.65
-34.79
-43.33
-52.85
-62.26
-69.95
-74.17
-73.54
-67.62
-57.08
-43.51
-28.91
-14.98
-2.69
7.75
16.65
24.35
30.93
36.21
39.87
41.80
42.19
41.48
40.21
38.83
37.57
36.49
35.55
34.76
34.10
33.63
33.30
32.95
32.26
30.79
28.11
23.97
18.39
11.76
4.69
-2.21
-8.55
-14.32
-19.83
-25.57
-32.07
-39.59
-48.10
-57.12
-65.69
-72.47
-75.95
-74.89
-68.85
-58.35
-44.90
-30.39
-16.52
-4.31
6.02
14.79
22.41
29.05
34.61
38.78
41.43
42.71
43.06
43.01
42.94
42.91
42.76
42.19
40.99
39.21
37.05
34.81
32.67
30.58
28.29
25.45
21.77
17.14
11.74
5.93
0.17
-5.14
-9.84
-14.06
-18.15
-22.62
-27.95
-34.42
-42.04
-50.48
-58.97
-66.37
-71.35
-72.64
-69.49
-61.88
-50.63
-37.21
-23.29
-10.30
0.86
9.94
17.15
22.93
27.63
31.41
34.26
36.10
36.93
36.92
36.36
35.60
34.85
34.17
33.45
32.58
31.49
30.22
28.77
27.02
24.75
21.62
17.45
12.29
6.47
0.55
-4.92
-9.64
-13.74
-17.76
-22.52
-28.71
-36.58
-45.68
-54.82
-62.33
-66.50
-66.16
-61.03
-51.80
-39.91
-27.06
-14.74
-3.93
5.00
12.12
17.73
22.10
25.39
27.71
29.17
29.93
30.22
30.24
30.12
29.87
29.46
28.84
28.04
27.18
26.35
25.57
24.64
23.22
20.84
17.21
12.30
6.41
0.11
-5.98
-11.51
-16.46
-21.22
-26.33
-32.33
-39.43
-47.43
-55.60
-62.79
-67.64
-68.88
-65.70
-58.09
-46.87
-33.58
-19.97
-7.53
2.86
11.07
17.44
22.51
26.68
30.09
32.75
34.56
35.61
36.02
35.99
35.68
35.17
34.47
33.60
32.65
31.74
30.95
30.22
29.28
27.67
24.93
20.76
15.24
8.83
2.20
-3.96
-9.21
-13.54
-17.29
-21.14
-25.80
-31.77
-39.07
-47.06
-54.49
-59.72
-61.24
-58.17
-50.60
-39.59
-26.84
-14.05
-2.53
7.15
15.00
21.33
26.46
30.53
33.47
35.25
35.96
35.86
35.36
34.78
34.28
33.78
33.08
32.08
30.86
29.66
28.75
28.16
27.60
26.49
24.18
20.32
14.98
8.70
2.23
-3.75
-8.92
-13.45
-17.82
-22.65
-28.48
-35.52
-43.53
-51.82
-59.29
-64.59
-66.49
-64.16
-57.55
-47.41
-35.12
-22.28
-10.25
0.19
8.86
15.97
21.83
26.62
30.36
32.96
34.44
34.99
34.92
34.60
34.30
34.11
33.99
33.83
33.50
32.93
32.06
30.87
29.32
27.33
24.77
21.45
17.21
11.98
5.93
-0.53
-6.84
-12.44
-17.08
-20.89
-24.43
-28.45
-33.61
-40.10
-47.56
-54.95
-60.87
-63.91
-63.04
-57.97
-49.23
-38.01
-25.77
-13.89
-3.24
5.76
13.12
18.97
23.36
26.27
27.63
27.55
26.45
24.89
23.48
22.62
22.36
22.48
22.67
22.73
22.65
22.54
22.43
22.16
21.36
19.60
16.63
12.49
7.58
2.44
-2.42
-6.73
-10.55
-14.22
-18.23
-23.08
-29.08
-36.28
-44.33
-52.42
-59.35
-63.69
-64.21
-60.28
-52.12
-40.84
-28.10
-15.57
-4.50
4.52
11.57
16.99
21.18
24.34
26.51
27.69
27.96
27.56
26.81
26.03
25.44
25.11
25.03
25.09
25.20
25.23
25.05
24.50
23.35
21.40
18.45
14.39
9.30
3.50
-2.56
-8.34
-13.50
-18.01
-22.26
-26.87
-32.46
-39.31
-47.13
-54.98
-61.51
-65.22
-64.99
-60.39
-51.84
-40.47
-27.81
-15.35
-4.19
5.10
12.43
18.02
22.14
25.02
26.84
27.76
27.98
27.71
27.13
26.37
25.53
24.71
24.01
23.54
23.33
23.31
23.27
22.85
21.67
19.43
15.97
11.39
5.99
0.19
-5.59
-11.08
-16.29
-21.51
-27.17
-33.64
-41.01
-48.86
-56.27
-61.96
-64.53
-62.97
-56.93
-46.97
-34.42
-21.07
-8.57
1.94
10.13
16.32
21.09
24.95
28.10
30.45
31.82
32.16
31.68
30.79
29.88
29.21
28.85
28.68
28.53
28.21
27.52
26.24
24.15
21.12
17.17
12.51
7.50
2.50
-2.28
-6.85
-11.46
-16.49
-22.34
-29.21
-36.97
-44.98
-52.10
-56.91
-58.14
-55.00
-47.57
-36.81
-24.27
-11.63
-0.27
9.09
16.30
21.64
25.59
28.56
30.80
32.42
33.43
33.77
33.45
32.55
31.25
29.84
28.63
27.84
27.48
27.36
27.08
26.20
24.38
21.53
17.78
13.43
8.74
3.98
-0.80
-5.65
-10.71
-16.18
-22.35
-29.41
-37.38
-45.81
-53.72
-59.63
-62.00
-59.69
-52.52
-41.36
-27.92
-14.18
-1.78
8.40
16.26
22.13
26.55
29.83
32.11
33.43
33.85
33.59
32.96
32.26
31.70
31.37
31.19
31.05
30.85
30.45
29.76
28.62
26.80
24.04
20.21
15.32
9.65
3.60
-2.46
-8.34
-14.15
-20.21
-26.97
-34.63
-43.06
-51.57
-59.01
-63.93
-65.04
-61.55
-53.51
-41.82
-28.02
-13.88
-0.89
9.98
18.39
24.48
28.66
31.29
32.71
33.16
32.86
32.05
30.98
29.83
28.71
27.67
26.71
25.92
25.34
24.95
24.61
23.98
22.63
20.18
16.49
11.69
6.21
0.55
-4.85
-9.82
-14.46
-19.09
-24.09
-29.77
-36.13
-42.83
-49.12
-53.96
-56.25
-55.11
-50.19
-41.84
-31.05
-19.21
-7.71
2.39
10.57
16.83
21.47
24.87
27.28
28.84
29.63
29.80
29.58
29.21
28.94
28.80
28.75
28.60
28.20
27.47
26.41
25.02
23.25
20.93
17.89
13.99
9.27
4.00
-1.42
-6.61
-11.37
-15.72
-19.99
-24.59
-30.01
-36.52
-44.00
-51.80
-58.74
-63.30
-64.12
-60.42
-52.39
-41.09
-28.17
-15.24
-3.57
6.29
14.23
20.37
24.87
27.81
29.28
29.52
28.95
28.04
27.17
26.56
26.22
26.04
25.87
25.59
25.15
24.51
23.58
22.22
20.23
17.44
13.76
9.27
4.18
-1.18
-6.49
-11.55
-16.41
-21.37
-26.88
-33.26
-40.48
-47.88
-54.27
-58.18
-58.34
-54.15
-45.91
-34.79
-22.41
-10.36
0.20
8.73
15.21
19.91
23.15
25.16
26.09
26.03
25.15
23.70
21.98
20.35
19.08
18.34
18.13
18.23
18.31
17.99
16.94
15.05
12.37
9.09
5.42
1.48
-2.70
-7.20
-12.09
-17.46
-23.40
-29.94
-36.92
-43.87
-49.87
-53.70
-54.19
-50.64
-43.15
-32.64
-20.53
-8.35
2.74
12.11
19.58
25.25
29.29
31.88
33.15
33.30
32.54
31.15
29.39
27.58
25.93
24.59
23.62
22.90
22.24
21.40
20.15
18.35
15.96
13.01
9.55
5.63
1.28
-3.46
-8.64
-14.31
-20.61
-27.61
-35.17
-42.78
-49.44
-53.85
-54.76
-51.45
-44.02
-33.48
-21.37
-9.30
1.47
10.34
17.27
22.53
26.42
29.15
30.80
31.42
31.19
30.34
29.18
27.96
26.88
26.00
25.32
24.74
24.12
23.27
21.97
20.08
17.52
14.32
10.61
6.59
2.43
-1.77
-6.09
-10.73
-15.97
-22.07
-29.05
-36.60
-43.93
-49.87
-53.17
-52.81
-48.41
-40.39
-29.85
-18.27
-7.07
2.72
10.67
16.80
21.42
24.87
27.33
28.85
29.40
29.07
28.05
26.66
25.24
24.06
23.25
22.79
22.54
22.31
21.86
20.92
19.29
16.87
13.73
10.08
6.25
2.48
-1.13
-4.69
-8.49
-12.89
-18.12
-24.15
-30.49
-36.24
-40.19
-41.21
-38.53
-32.03
-22.33
-10.61
1.72
13.42
23.61
31.89
38.25
42.91
46.23
48.58
50.35
51.75
52.86
53.52
53.43
52.32
50.12
47.07
43.63
40.32
37.45
34.96
32.44
29.26
24.96
19.42
13.05
6.71
1.62
-0.94
0.14
5.53
15.10
27.50
40.11
49.47
52.28
46.68
33.25
14.95
-3.85
-18.97
-27.87
-30.32
-27.87
-22.81
-16.98
-11.24
-5.63
-0.03
5.24
9.31
11.07
9.81
5.67
-0.41
-7.02
-12.88
-17.30
-20.27
-22.23
-23.70
-24.95
-25.96
-26.39
-25.70
-23.18
-18.22
-10.62
-1.04
8.78
16.23
18.48
13.40
0.36
-19.67
-44.40
-70.87
-96.17
-117.86
-134.11
-143.77
-146.46
-142.52
-133.13
-120.01
-105.13
-90.30
-76.75
-65.00
-54.90
-45.87
-37.29
-28.83
-20.60
-13.13
-7.13
-3.14
-1.27
-1.05
-1.56
-1.72
-0.56
2.49
7.53
14.21
21.87
29.69
36.87
42.77
47.03
49.59
50.66
50.55
49.51
47.64
44.91
41.36
37.31
33.64
31.83
33.80
41.53
56.19
77.38
102.57
127.38
146.60
155.73
152.55
137.84
115.12
89.45
65.92
48.33
38.66
37.11
42.63
53.32
66.75
80.24
90.98
96.59
95.50
87.51
73.80
56.77
39.44
24.62
14.27
9.17
9.07
13.05
20.09
29.29
39.78
50.58
60.38
67.73
71.56
71.54
68.13
62.25
54.59
45.21
33.63
19.48
3.20
-13.74
-29.24
-41.54
-49.98
-55.31
-59.13
-63.03
-67.83
-73.30
-78.52
-82.50
-84.62
-84.83
-83.41
-80.66
-76.78
-71.89
-66.21
-60.17
-54.35
-49.32
-45.45
-42.76
-40.92
-39.52
-38.19
-36.87
-35.90
-35.95
-37.87
-42.44
-50.03
-60.31
-72.07
-83.38
-92.02
-96.10
-94.66
-87.89
-76.96
-63.44
-48.72
-33.63
-18.41
-3.00
12.57
27.86
42.01
53.99
62.95
68.49
70.81
70.56
68.63
65.96
63.32
61.12
59.48
58.13
56.60
54.34
50.94
46.25
40.44
33.89
27.12
20.53
14.31
8.29
2.00
-5.36
-14.65
-26.38
-40.24
-54.72
-67.19
-74.56
-74.28
-65.37
-48.87
-27.64
-5.44
14.19
28.81
37.51
40.76
39.97
37.01
33.81
32.05
32.94
37.06
44.49
54.76
67.04
80.02
91.99
100.83
104.36
100.67
88.41
66.96
36.38
-2.60
-48.51
-99.05
-151.15
-201.35
-246.62
-285.14
-316.83
-343.20
-366.55
-388.91
-410.88
-431.07
-446.19
-451.93
-444.44
-421.80
-384.99
-337.73
-285.44
-233.45
-185.61
-143.56
-107.20
-75.56
-47.85
-23.80
-3.55
12.88
25.90
36.32
45.14
53.12
60.73
68.04
74.98
81.55
87.82
93.93
99.97
105.70
110.49
113.33
113.14
109.14
101.18
89.93
76.68
62.78
49.06
35.51
21.39
5.92
-10.90
-27.85
-42.57
-52.32
-54.94
-49.71
-37.55
-20.70
-1.90
16.43
32.84
47.07
59.91
72.82
87.42
105.03
126.28
150.91
177.73
204.81
229.89
250.82
265.98
274.62
276.78
273.07
264.19
250.60
232.33
209.22
181.38
149.62
115.72
82.17
51.60
25.94
5.72
-10.23
-24.55
-40.62
-61.42
-88.38
-120.67
-155.11
-187.03
-211.53
-225.03
-226.16
-215.98
-197.42
-174.15
-149.63
-126.34
-105.77
-88.58
-74.94
-64.74
-57.55
-52.62
-48.92
-45.38
-41.21
-36.08
-30.13
-23.83
-17.66
-11.91
-6.63
-1.76
2.68
6.51
9.30
10.61
10.15
7.91
4.19
-0.56
-5.86
-11.45
-17.36
-23.96
-31.78
-41.19
-52.01
-63.16
-72.74
-78.34
-77.79
-69.95
-55.14
-35.22
-12.99
8.61
27.30
41.91
52.36
59.28
63.60
66.14
67.52
68.09
68.03
67.41
66.28
64.72
62.85
60.85
58.94
57.30
55.96
54.71
53.14
50.71
47.00
41.83
35.37
28.10
20.63
13.51
6.95
0.81
-5.47
-12.60
-21.24
-31.52
-42.85
-53.75
-62.07
-65.60
-62.72
-53.07
-37.75
-19.02
0.41
18.22
33.05
44.58
53.23
59.58
63.97
66.38
66.64
64.75
61.23
56.96
53.04
50.29
48.99
48.76
48.86
48.44
46.94
44.22
40.52
36.28
31.86
27.41
22.81
17.75
11.87
4.86
-3.48
-13.16
-23.88
-34.87
-44.81
-51.92
-54.40
-50.99
-41.52
-27.05
-9.66
8.26
24.70
38.51
49.38
57.49
63.11
66.31
67.05
65.43
61.96
57.50
53.10
49.61
47.38
46.24
45.54
44.57
42.76
39.91
36.22
32.08
27.85
23.60
19.15
14.06
7.86
0.19
-9.09
-19.72
-31.03
-41.85
-50.59
-55.49
-55.09
-48.75
-36.93
-21.20
-3.70
13.42
28.64
41.26
51.23
58.78
64.05
66.97
67.44
65.49
61.58
56.56
51.43
47.02
43.70
41.30
39.23
36.84
33.71
29.85
25.57
21.26
17.18
13.27
9.23
4.69
-0.66
-6.98
-14.29
-22.43
-31.00
-39.19
-45.75
-49.21
-48.28
-42.37
-31.87
-18.14
-3.10
11.38
24.03
34.32
42.35
48.43
52.78
55.36
56.03
54.82
52.07
48.47
44.80
41.70
39.40
37.72
36.19
34.32
31.72
28.32
24.21
19.69
15.03
10.45
5.96
1.42
-3.50
-9.19
-15.94
-23.86
-32.69
-41.75
-49.96
-55.94
-58.32
-56.12
-49.11
-38.04
-24.48
-10.39
2.44
12.91
20.77
26.39
30.34
33.08
34.72
35.16
34.32
32.37
29.73
26.97
24.58
22.82
21.64
20.78
19.90
18.68
16.94
14.59
11.67
8.29
4.60
0.74
-3.23
-7.29
-11.53
-16.13
-21.28
-27.18
-33.85
-41.02
-47.91
-53.34
-55.92
-54.49
-48.60
-38.73
-26.27
-13.02
-0.76
9.32
16.77
21.79
24.86
26.45
26.86
26.19
24.52
22.06
19.18
16.40
14.19
12.81
12.27
12.29
12.49
12.48
12.02
10.98
9.39
7.28
4.67
1.54
-2.12
-6.33
-11.02
-16.10
-21.53
-27.28
-33.35
-39.56
-45.42
-50.06
-52.36
-51.30
-46.36
-37.83
-26.76
-14.74
-3.29
6.45
13.99
19.39
23.04
25.30
26.44
26.56
25.69
24.02
21.81
19.49
17.41
15.78
14.58
13.61
12.61
11.38
9.81
7.96
5.89
3.64
1.19
-1.53
-4.62
-8.14
-12.16
-16.79
-22.13
-28.20
-34.83
-41.45
-47.10
-50.58
-50.77
-47.03
-39.52
-29.18
-17.44
-5.84
4.44
12.77
19.02
23.38
26.17
27.64
27.98
27.34
25.91
23.90
21.54
19.09
16.79
14.81
13.25
12.14
11.42
10.93
10.41
9.58
8.15
5.93
2.96
-0.54
-4.20
-7.68
-10.86
-13.90
-17.23
-21.36
-26.63
-32.89
-39.49
-45.27
-48.95
-49.41
-46.09
-39.17
-29.51
-18.43
-7.33
2.64
10.75
16.78
20.86
23.29
24.43
24.56
23.94
22.76
21.28
19.72
18.31
17.12
16.16
15.30
14.46
13.54
12.56
11.50
10.28
8.71
6.56
3.64
-0.07
-4.36
-8.90
-13.33
-17.41
-21.11
-24.64
-28.39
-32.83
-38.30
-44.81
-51.82
-58.23
-62.50
-63.20
-59.45
-51.36
-40.07
-27.39
-15.22
-4.91
2.95
8.56
12.48
15.27
17.24
18.43
18.76
18.23
17.01
15.39
13.72
12.27
11.20
10.60
10.38
10.42
10.46
10.18
9.28
7.57
5.05
1.89
-1.66
-5.33
-8.93
-12.43
-15.88
-19.43
-23.32
-27.82
-33.17
-39.33
-45.85
-51.70
-55.46
-55.74
-51.73
-43.57
-32.46
-20.20
-8.61
1.08
8.50
13.94
18.01
21.14
23.42
24.70
24.80
23.78
21.98
19.92
18.08
16.75
15.95
15.53
15.30
15.05
14.59
13.71
12.24
10.06
7.22
3.93
0.50
-2.80
-5.81
-8.56
-11.30
-14.34
-18.03
-22.67
-28.28
-34.55
-40.62
-45.29
-47.21
-45.34
-39.39
-29.95
-18.36
-6.27
4.79
13.86
20.57
25.10
27.90
29.46
30.14
30.13
29.47
28.19
26.39
24.32
22.31
20.66
19.53
18.88
18.48
18.05
17.34
16.17
14.43
12.08
9.09
5.48
1.38
-2.98
-7.33
-11.43
-15.29
-19.17
-23.59
-29.11
-36.02
-44.11
-52.48
-59.71
-64.17
-64.57
-60.39
-52.08
-40.91
-28.57
-16.64
-6.20
2.34
9.14
14.56
18.99
22.52
25.09
26.58
27.02
26.60
25.75
24.83
24.07
23.46
22.83
22.05
21.09
20.04
19.03
18.05
16.88
15.14
12.52
8.88
4.40
-0.54
-5.50
-10.20
-14.59
-18.88
-23.47
-28.75
-34.98
-42.07
-49.36
-55.70
-59.63
-59.80
-55.49
-46.87
-35.06
-21.73
-8.60
3.08
12.72
20.29
26.04
30.22
32.95
34.31
34.46
33.69
32.46
31.16
30.08
29.30
28.74
28.30
27.93
27.62
27.40
27.18
26.72
25.62
23.52
20.21
15.79
10.63
5.22
-0.02
-4.85
-9.27
-13.54
-18.02
-23.14
-29.21
-36.23
-43.72
-50.64
-55.60
-57.16
-54.37
-47.17
-36.45
-23.83
-11.15
0.12
9.19
16.01
21.03
24.82
27.78
29.98
31.30
31.63
31.04
29.88
28.61
27.62
27.06
26.87
26.85
26.81
26.64
26.24
25.46
24.03
21.66
18.18
13.69
8.60
3.43
-1.34
-5.50
-9.18
-12.82
-17.03
-22.36
-28.98
-36.56
-44.13
-50.24
-53.36
-52.32
-46.81
-37.46
-25.67
-13.15
-1.35
8.80
16.99
23.32
28.04
31.32
33.28
34.08
33.95
33.26
32.41
31.65
31.04
30.42
29.61
28.55
27.35
26.28
25.55
25.14
24.74
23.81
21.86
18.62
14.20
9.04
3.71
-1.31
-5.82
-9.96
-14.12
-18.82
-24.51
-31.38
-39.20
-47.26
-54.38
-59.16
-60.30
-56.98
-49.23
-37.93
-24.62
-11.05
1.22
11.26
18.78
24.04
27.51
29.68
30.90
31.36
31.20
30.51
29.50
28.33
27.23
26.35
25.76
25.44
25.28
25.08
24.61
23.65
22.02
19.65
16.56
12.86
8.74
4.44
0.19
-3.80
-7.53
-11.20
-15.28
-20.29
-26.60
-34.03
-41.64
-47.88
-51.00
-49.72
-43.69
-33.77
-21.72
-9.56
1.00
9.13
14.82
18.64
21.23
23.02
24.07
24.26
23.53
22.02
20.12
18.26
16.82
15.92
15.50
15.32
15.17
14.89
14.38
13.55
12.26
10.33
7.64
4.20
0.16
-4.20
-8.59
-12.83
-16.97
-21.29
-26.21
-32.09
-38.93
-46.20
-52.72
-56.96
-57.44
-53.35
-44.84
-33.05
-19.71
-6.61
4.96
14.32
21.45
26.61
30.16
32.37
33.44
33.58
32.99
31.92
30.62
29.27
28.01
26.94
26.07
25.34
24.65
23.81
22.64
20.96
18.69
15.78
12.27
8.28
3.99
-0.39
-4.71
-8.91
-13.13
-17.67
-22.86
-28.88
-35.55
-42.17
-47.61
-50.50
-49.70
-44.77
-36.05
-24.73
-12.44
-0.78
9.10
16.69
22.07
25.64
27.78
28.74
28.58
27.31
25.11
22.33
19.49
17.07
15.44
14.73
14.92
15.82
17.11
18.35
19.04
18.72
17.12
14.28
10.52
6.33
2.15
-1.82
-5.63
-9.46
-13.58
-18.26
-23.68
-29.93
-36.87
-43.91
-49.94
-53.54
-53.29
-48.38
-38.96
-26.24
-12.15
1.30
12.58
21.00
26.64
30.07
31.95
32.80
32.86
32.23
30.96
29.13
26.92
24.59
22.45
20.78
19.72
19.21
19.04
18.83
18.20
16.85
14.60
11.39
7.31
2.56
-2.57
-7.68
-12.41
-16.56
-20.26
-23.98
-28.38
-34.02
-40.93
-48.39
-54.99
-58.97
-58.83
-53.92
-44.67
-32.53
-19.41
-7.11
3.16
11.06
16.92
21.49
25.55
29.66
34.01
38.36
42.25
45.12
46.58
46.55
45.24
43.05
40.36
37.34
33.95
30.07
25.57
20.50
14.99
9.32
3.72
-1.60
-6.47
-10.77
-14.45
-17.60
-20.52
-23.67
-27.54
-32.36
-37.86
-43.15
-46.88
-47.62
-44.39
-37.02
-26.31
-13.80
-1.25
9.89
18.87
25.64
30.62
34.32
37.07
38.92
39.81
39.73
38.86
37.49
35.90
34.23
32.51
30.70
28.88
27.20
25.80
24.65
23.44
21.68
18.91
14.93
9.95
4.47
-0.88
-5.64
-9.70
-13.27
-16.85
-21.02
-26.26
-32.77
-40.31
-48.14
-55.05
-59.62
-60.60
-57.31
-49.88
-39.31
-27.19
-15.22
-4.75
3.51
9.54
13.75
16.66
18.64
19.76
20.00
19.38
18.18
16.89
16.03
15.91
16.46
17.24
17.74
17.61
16.83
15.73
14.70
13.94
13.26
12.17
10.13
6.85
2.58
-1.91
-5.64
-7.73
-7.84
-6.37
-4.38
-3.23
-4.20
-7.88
-13.98
-21.15
-27.41
-30.67
-29.42
-23.35
-13.36
-1.44
10.12
19.27
24.69
25.85
22.74
15.52
4.23
-11.19
-30.68
-53.68
-78.80
-103.85
-126.12
-143.23
-153.89
-158.45
-158.81
-157.52
-156.55
-156.12
-154.38
-147.96
-133.43
-108.86
-75.00
-35.60
3.34
35.22
54.81
60.21
53.82
41.91
32.74
33.95
50.18
81.91
125.91
176.63
228.07
275.12
314.12
342.77
359.72
364.08
355.16
332.40
296.10
248.53
194.95
143.70
104.70
86.70
94.21
125.61
173.34
226.33
273.42
306.35
321.18
318.05
299.60
269.25
229.94
183.88
132.96
79.33
25.88
-23.74
-65.67
-96.75
-115.37
-122.02
-119.10
-110.39
-100.07
-91.85
-88.19
-90.10
-97.29
-108.62
-122.57
-137.61
-152.27
-165.20
-175.22
-181.45
-183.61
-182.22
-178.52
-174.17
-170.76
-169.40
-170.36
-173.17
-176.81
-180.18
-182.47
-183.67
-184.74
-187.61
-194.88
-208.84
-230.31
-257.60
-286.21
-309.74
-321.71
-317.90
-297.75
-264.29
-222.51
-176.96
-130.09
-82.09
-32.23
19.40
71.05
119.82
163.04
199.49
229.49
253.78
272.26
283.33
284.50
273.79
250.87
217.14
174.96
126.80
75.01
22.45
-27.02
-68.81
-99.14
-116.91
-124.59
-127.42
-130.87
-138.07
-148.33
-157.87
-162.22
-158.77
-148.18
-133.73
-119.41
-107.76
-98.86
-90.88
-81.55
-69.63
-55.51
-40.79
-27.12
-15.30
-5.15
3.86
11.93
18.69
23.83
28.02
33.45
43.42
60.81
86.50
118.43
151.99
181.40
201.57
209.32
203.79
185.85
157.27
120.27
77.65
33.31
-7.50
-39.13
-57.25
-60.90
-53.65
-42.89
-37.15
-42.77
-61.25
-89.15
-120.11
-148.12
-170.08
-186.39
-199.48
-211.72
-223.78
-234.67
-242.83
-247.56
-249.56
-250.40
-251.29
-251.95
-250.34
-243.25
-227.54
-201.35
-164.95
-120.67
-72.43
-24.61
19.15
56.80
88.23
114.79
138.25
159.63
178.49
192.94
200.51
199.35
189.20
171.63
149.53
126.20
104.44
85.94
71.08
59.08
48.42
37.48
25.16
11.41
-2.70
-15.36
-24.80
-30.09
-31.53
-30.47
-28.70
-27.83
-28.86
-32.25
-38.07
-46.13
-55.86
-66.23
-75.68
-82.43
-84.99
-82.57
-75.42
-64.61
-51.69
-38.14
-25.05
-13.06
-2.48
6.45
13.44
18.17
20.36
20.04
17.63
13.96
10.11
7.17
5.87
6.51
8.87
12.54
17.21
22.92
30.04
39.12
50.56
64.36
80.05
96.79
113.63
129.74
144.64
158.30
171.09
183.53
195.97
208.36
220.09
230.23
237.71
241.73
241.68
237.10
227.52
212.51
191.91
166.23
136.84
105.81
75.34
47.05
21.41
-2.38
-25.93
-50.95
-78.35
-107.73
-137.44
-165.11
-188.47
-206.08
-217.64
-223.92
-226.23
-225.99
-224.30
-221.67
-218.01
-212.56
-204.06
-191.00
-172.08
-146.76
-115.65
-80.57
-44.08
-8.89
22.89
50.08
72.43
90.36
104.49
115.48
123.91
130.30
135.07
138.51
140.67
141.36
140.31
137.31
132.24
125.10
115.90
104.69
91.66
77.20
62.02
46.99
32.95
20.46
9.72
0.56
-7.50
-15.05
-22.63
-30.56
-38.68
-46.22
-51.84
-54.00
-51.48
-43.90
-31.95
-17.25
-1.90
12.16
23.53
31.59
36.38
38.32
37.98
35.90
32.57
28.47
24.15
20.16
17.03
15.20
14.87
16.02
18.28
21.04
23.54
25.09
25.29
24.05
21.61
18.31
14.47
10.25
5.67
0.70
-4.68
-10.48
-16.76
-23.71
-31.51
-40.11
-48.92
-56.70
-61.70
-62.15
-56.89
-45.95
-30.58
-13.00
4.36
19.57
31.62
40.45
46.57
50.62
52.99
53.80
53.09
51.05
48.18
45.16
42.63
40.99
40.25
40.09
40.09
39.92
39.42
38.53
37.22
35.32
32.64
29.01
24.43
19.18
13.74
8.57
3.90
-0.42
-4.94
-10.39
-17.26
-25.50
-34.23
-41.85
-46.43
-46.36
-40.90
-30.52
-16.72
-1.60
12.84
25.20
34.84
41.78
46.36
48.96
49.82
49.11
47.06
44.02
40.48
36.98
33.97
31.71
30.27
29.52
29.20
28.99
28.56
27.64
26.02
23.59
20.38
16.53
12.29
7.97
3.84
-0.02
-3.77
-7.84
-12.75
-18.87
-26.21
-34.14
-41.49
-46.69
-48.26
-45.26
-37.67
-26.45
-13.30
-0.13
11.42
20.38
26.53
30.22
32.04
32.56
32.11
30.83
28.81
26.17
23.19
20.23
17.62
15.56
14.03
12.80
11.56
10.00
7.89
5.17
1.88
-1.85
-5.81
-9.86
-13.91
-18.00
-22.33
-27.18
-32.85
-39.49
-47.02
-54.99
-62.58
-68.70
-72.23
-72.34
-68.81
-62.17
-53.60
-44.43
-35.77
-28.09
-21.23
-14.69
-8.00
-1.11
5.54
11.22
15.30
17.61
18.65
19.50
21.53
25.89
33.12
42.88
53.90
64.30
72.09
75.65
74.12
67.53
56.69
42.94
27.89
13.09
-0.17
-11.06
-19.32
-25.28
-29.75
-33.71
-37.92
-42.57
-47.09
-50.33
-50.89
-47.75
-40.68
-30.36
-18.26
-6.11
4.57
12.95
18.90
22.86
25.44
27.09
28.01
28.18
27.59
26.39
24.95
23.73
23.16
23.37
24.25
25.54
26.96
28.33
29.55
30.64
31.62
32.46
33.17
33.79
34.41
35.08
35.85
36.64
37.29
37.70
38.01
38.66
40.41
44.09
50.27
58.99
69.72
81.41
92.81
102.74
110.22
114.61
115.53
112.87
106.78
97.68
86.28
73.54
60.57
48.42
37.94
29.60
23.38
18.76
14.88
10.73
5.54
-1.03
-8.80
-17.25
-25.79
-34.04
-41.93
-49.57
-57.16
-64.82
-72.55
-80.26
-87.75
-94.68
-100.44
-104.24
-105.33
-103.34
-98.59
-92.07
-85.23
-79.33
-75.11
-72.56
-71.02
-69.67
-67.83
-65.26
-62.16
-58.98
-56.13
-53.75
-51.68
-49.54
-47.02
-44.02
-40.81
-37.96
-36.04
-35.45
-36.17
-37.85
-39.96
-42.06
-43.99
-45.88
-48.01
-50.63
-53.83
-57.46
-61.25
-64.87
-67.95
-69.96
-70.26
-68.08
-62.85
-54.42
-43.36
-30.84
-18.39
-7.42
1.20
7.23
10.98
12.98
13.73
13.55
12.66
11.23
9.54
7.91
6.61
5.79
5.31
4.93
4.31
3.19
1.43
-0.92
-3.63
-6.47
-9.22
-11.88
-14.64
-17.85
-21.77
-26.42
-31.51
-36.55
-41.10
-44.82
-47.53
-48.97
-48.69
-46.05
-40.48
-31.92
-21.04
-9.13
2.26
11.86
19.06
23.89
26.83
28.38
28.88
28.42
27.00
24.70
21.73
18.47
15.37
12.79
10.96
9.84
9.18
8.53
7.45
5.59
2.95
-0.17
-3.24
-5.70
-7.21
-7.79
-7.83
-7.91
-8.64
-10.41
-13.32
-17.10
-21.18
-24.72
-26.71
-26.28
-22.87
-16.48
-7.77
2.10
11.77
20.07
26.31
30.39
32.64
33.63
33.80
33.37
32.32
30.55
28.10
25.17
22.18
19.54
17.50
15.97
14.62
13.02
10.85
8.03
4.73
1.30
-1.94
-4.78
-7.28
-9.68
-12.32
-15.56
-19.61
-24.51
-30.12
-36.03
-41.61
-45.98
-48.15
-47.31
-43.11
-35.96
-26.97
-17.71
-9.67
-3.83
-0.38
1.13
1.48
1.34
1.07
0.75
0.34
-0.11
-0.37
-0.12
0.88
2.71
5.22
8.08
10.95
13.48
15.42
16.59
16.87
16.17
14.50
11.89
8.40
4.02
-1.24
-7.39
-14.31
-21.74
-29.18
-35.96
-41.29
-44.36
-44.51
-41.43
-35.29
-26.77
-16.99
-7.16
1.66
8.83
14.18
17.86
20.13
21.23
21.31
20.47
18.91
16.88
14.76
12.89
11.53
10.76
10.50
10.48
10.34
9.69
8.24
5.94
2.96
-0.37
-3.72
-6.85
-9.75
-12.59
-15.65
-19.21
-23.50
-28.57
-34.25
-40.03
-45.06
-48.26
-48.55
-45.23
-38.27
-28.45
-17.15
-5.92
3.93
11.70
17.31
21.11
23.53
24.91
25.39
24.99
23.83
22.12
20.24
18.54
17.26
16.49
16.14
16.03
15.94
15.65
14.92
13.55
11.42
8.57
5.21
1.67
-1.69
-4.62
-7.10
-9.40
-11.96
-15.25
-19.60
-24.97
-30.88
-36.42
-40.41
-41.71
-39.56
-33.81
-25.02
-14.26
-2.89
7.79
16.81
23.67
28.36
31.13
32.43
32.69
32.25
31.40
30.33
29.26
28.37
27.78
27.55
27.61
27.83
28.07
28.20
28.19
27.96
27.39
26.34
24.62
22.13
18.87
15.01
10.78
6.47
2.30
-1.68
-5.57
-9.68
-14.38
-19.96
-26.27
-32.69
-38.05
-40.99
-40.39
-35.80
-27.68
-17.24
-6.09
4.35
13.14
19.92
24.83
28.20
30.33
31.43
31.60
30.91
29.49
27.61
25.56
23.67
22.08
20.80
19.74
18.79
17.96
17.40
17.22
17.36
17.43
16.77
14.71
10.88
5.44
-0.91
-7.21
-12.57
-16.60
-19.47
-21.87
-24.67
-28.57
-33.79
-39.92
-46.01
-50.72
-52.76
-51.17
-45.66
-36.61
-25.03
-12.21
0.58
12.36
22.56
30.98
37.60
42.55
45.93
47.91
48.66
48.39
47.33
45.64
43.46
40.90
38.08
35.15
32.25
29.53
27.03
24.69
22.33
19.70
16.60
12.89
8.57
3.84
-0.98
-5.55
-9.63
-13.15
-16.28
-19.36
-22.79
-26.94
-31.94
-37.54
-43.04
-47.33
-49.26
-47.90
-42.97
-34.93
-24.88
-14.15
-4.01
4.76
11.84
17.26
21.21
23.85
25.32
25.78
25.49
24.72
23.78
22.89
22.08
21.31
20.47
19.53
18.60
17.81
17.29
17.04
16.83
16.29
15.01
12.73
9.44
5.44
1.21
-2.76
-6.16
-9.02
-11.70
-14.76
-18.82
-24.21
-30.73
-37.57
-43.40
-46.73
-46.44
-42.13
-34.31
-24.23
-13.41
-3.21
5.52
12.45
17.72
21.56
24.19
25.71
26.17
25.72
24.63
23.28
22.06
21.25
20.86
20.68
20.45
19.91
19.06
18.06
17.14
16.42
15.79
14.90
13.32
10.76
7.20
3.01
-1.26
-5.06
-8.08
-10.31
-12.12
-14.01
-16.56
-20.15
-24.87
-30.38
-35.88
-40.21
-42.17
-40.80
-35.79
-27.62
-17.40
-6.58
3.53
12.12
18.91
24.04
27.76
30.26
31.56
31.65
30.59
28.70
26.46
24.41
22.96
22.21
21.98
21.96
21.84
21.49
21.02
20.69
20.71
21.03
21.31
21.02
19.63
16.89
12.95
8.31
3.57
-0.84
-4.84
-8.71
-12.92
-17.86
-23.74
-30.45
-37.62
-44.56
-50.43
-54.20
-54.94
-52.06
-45.58
-36.28
-25.46
-14.62
-4.99
2.72
8.37
12.24
14.65
15.92
16.30
16.01
15.31
14.48
13.77
13.27
12.95
12.73
12.50
12.25
12.01
11.82
11.64
11.28
10.47
8.89
6.32
2.75
-1.58
-6.23
-10.70
-14.59
-17.79
-20.50
-23.23
-26.62
-31.14
-36.90
-43.45
-49.75
-54.41
-55.97
-53.48
-46.73
-36.53
-24.35
-11.94
-0.80
8.26
15.10
20.10
23.71
26.26
27.82
28.34
27.84
26.59
25.02
23.57
22.50
21.85
21.44
21.07
20.63
20.12
19.59
19.00
18.13
16.70
14.43
11.19
7.14
2.57
-2.10
-6.56
-10.70
-14.69
-18.92
-23.88
-29.93
-37.12
-44.92
-52.26
-57.70
-59.85
-57.77
-51.36
-41.36
-29.15
-16.34
-4.34
5.88
13.89
19.72
23.65
26.05
27.23
27.46
26.95
25.90
24.57
23.22
22.04
21.15
20.51
20.03
19.57
19.09
18.60
18.12
17.56
16.76
15.40
13.19
10.02
6.00
1.48
-3.10
-7.37
-11.19
-14.74
-18.39
-22.70
-28.15
-34.97
-42.97
-51.37
-58.81
-63.63
-64.34
-60.13
-51.26
-39.04
-25.36
-12.09
-0.50
8.89
16.24
21.95
26.41
29.71
31.85
32.83
32.83
32.21
31.43
30.85
30.55
30.41
30.12
29.49
28.52
27.44
26.58
26.12
25.90
25.36
23.86
20.89
16.39
10.79
4.79
-0.87
-5.77
-9.89
-13.61
-17.51
-22.17
-27.99
-35.06
-43.04
-51.10
-57.98
-62.20
-62.47
-58.09
-49.31
-37.31
-23.86
-10.77
0.66
9.85
16.88
22.17
26.11
28.87
30.50
31.07
30.82
30.15
29.48
29.09
29.01
29.04
28.95
28.54
27.84
27.01
26.19
25.40
24.40
22.80
20.14
16.20
11.12
5.35
-0.46
-5.77
-10.30
-14.22
-18.01
-22.37
-27.94
-35.07
-43.57
-52.60
-60.68
-66.07
-67.27
-63.53
-55.14
-43.32
-29.82
-16.35
-4.15
6.20
14.58
21.12
26.00
29.37
31.43
32.47
32.86
32.93
32.91
32.88
32.80
32.59
32.27
31.91
31.63
31.49
31.42
31.22
30.56
29.09
26.56
22.95
18.46
13.53
8.64
4.26
0.53
-2.72
-6.01
-10.04
-15.41
-22.34
-30.38
-38.41
-44.79
-47.93
-46.70
-40.95
-31.53
-20.02
-8.25
2.26
10.66
16.80
20.99
23.71
25.34
26.08
26.03
25.32
24.24
23.20
22.63
22.78
23.67
25.06
26.59
27.94
29.00
29.78
30.36
30.73
30.68
29.83
27.84
24.53
20.10
15.03
9.95
5.37
1.49
-1.90
-5.33
-9.54
-15.20
-22.69
-31.91
-42.12
-52.00
-59.77
-63.69
-62.49
-55.82
-44.37
-29.74
-13.95
1.17
14.36
25.10
33.42
39.63
44.04
46.85
48.24
48.50
48.10
47.55
47.28
47.41
47.71
47.73
47.06
45.52
43.24
40.57
37.81
35.01
31.94
28.18
23.39
17.51
10.86
4.05
-2.37
-8.03
-12.96
-17.49
-22.13
-27.41
-33.73
-41.24
-49.70
-58.35
-65.92
-70.76
-71.36
-66.79
-57.22
-43.94
-29.00
-14.56
-2.27
7.15
13.78
18.23
21.14
22.91
23.65
23.35
22.03
19.89
17.32
14.74
12.53
10.88
9.79
9.14
8.75
8.43
7.98
7.22
5.92
3.86
0.90
-2.93
-7.40
-12.13
-16.72
-20.93
-24.87
-28.95
-33.82
-40.04
-47.73
-56.31
-64.50
-70.51
-72.63
-69.72
-61.76
-49.80
-35.69
-21.50
-8.88
1.26
8.84
14.32
18.31
21.34
23.67
25.33
26.26
26.42
25.85
24.72
23.23
21.62
20.07
18.71
17.58
16.63
15.72
14.59
12.91
10.39
6.82
2.26
-3.03
-8.62
-14.13
-19.39
-24.54
-30.03
-36.43
-44.10
-52.88
-61.92
-69.68
-74.24
-73.88
-67.58
-55.49
-39.02
-20.35
-1.90
14.39
27.44
37.05
43.67
47.93
50.41
51.45
51.24
49.94
47.76
44.99
41.95
38.97
36.33
34.21
32.73
31.90
31.56
31.41
31.00
29.83
27.43
23.55
18.19
11.71
4.71
-2.17
-8.47
-14.08
-19.36
-25.02
-31.81
-40.12
-49.68
-59.32
-67.26
-71.54
-70.70
-64.27
-53.04
-38.76
-23.58
-9.39
2.64
12.21
19.64
25.49
30.19
33.85
36.35
37.56
37.51
36.51
35.07
33.69
32.66
31.93
31.23
30.21
28.79
27.11
25.54
24.31
23.35
22.23
20.27
17.02
12.40
6.89
1.26
-3.78
-7.94
-11.54
-15.37
-20.37
-27.24
-36.17
-46.67
-57.55
-67.18
-73.77
-75.82
-72.56
-64.15
-51.73
-37.07
-22.09
-8.34
3.26
12.51
19.65
25.11
29.21
32.11
33.86
34.56
34.45
33.87
33.17
32.57
32.07
31.52
30.74
29.72
28.57
27.47
26.47
25.38
23.79
21.20
17.31
12.15
6.14
-0.06
-5.82
-10.68
-14.57
-17.85
-21.25
-25.62
-31.67
-39.58
-48.79
-57.95
-65.19
-68.61
-66.84
-59.58
-47.71
-33.05
-17.82
-3.90
7.59
16.46
23.14
28.30
32.40
35.52
37.50
38.23
37.84
36.73
35.39
34.18
33.19
32.31
31.36
30.29
29.19
28.23
27.41
26.51
25.04
22.48
18.46
13.03
6.65
0.08
-5.95
-11.05
-15.32
-19.34
-23.97
-29.97
-37.64
-46.66
-55.93
-63.81
-68.46
-68.38
-62.92
-52.52
-38.68
-23.42
-8.73
3.99
14.24
22.20
28.40
33.28
37.01
39.54
40.81
40.98
40.44
39.64
38.93
38.36
37.75
36.80
35.40
33.67
31.94
30.50
29.41
28.38
26.89
24.36
20.48
15.26
9.08
2.49
-3.97
-9.87
-15.05
-19.59
-23.83
-28.34
-33.83
-40.85
-49.49
-59.08
-68.12
-74.62
-76.62
-72.95
-63.66
-50.08
-34.37
-18.72
-4.75
6.84
16.14
23.59
29.55
34.06
36.95
38.07
37.61
36.15
34.48
33.33
33.06
33.57
34.37
34.91
34.84
34.11
32.96
31.71
30.50
29.20
27.43
24.70
20.69
15.44
9.42
3.38
-1.94
-6.15
-9.34
-12.11
-15.35
-19.89
-26.29
-34.68
-44.68
-55.42
-65.53
-73.35
-77.17
-75.75
-68.72
-56.85
-41.94
-26.23
-11.76
0.24
9.51
16.50
21.87
26.11
29.30
31.34
32.17
31.99
31.30
30.64
30.37
30.53
30.79
30.75
30.13
28.96
27.52
26.16
25.01
23.84
22.09
19.12
14.59
8.61
1.84
-4.82
-10.59
-15.14
-18.76
-22.19
-26.39
-32.14
-39.71
-48.72
-58.15
-66.47
-71.99
-73.31
-69.64
-61.11
-48.69
-34.04
-18.97
-5.05
6.75
16.09
23.15
28.35
32.09
34.67
36.27
36.99
36.96
36.42
35.62
34.78
33.99
33.21
32.32
31.27
30.11
28.94
27.84
26.70
25.16
22.70
18.88
13.58
7.11
0.19
-6.36
-11.92
-16.39
-20.23
-24.23
-29.30
-36.05
-44.59
-54.38
-64.21
-72.39
-77.09
-76.84
-71.00
-60.03
-45.41
-29.25
-13.64
-0.04
10.94
19.55
26.47
32.35
37.49
41.78
44.89
46.53
46.72
45.88
44.61
43.49
42.76
42.31
41.81
40.97
39.76
38.42
37.25
36.33
35.34
33.61
30.41
25.31
18.39
10.29
1.96
-5.71
-12.18
-17.46
-22.06
-26.79
-32.48
-39.69
-48.45
-58.24
-67.89
-75.88
-80.54
-80.56
-75.32
-65.14
-51.26
-35.49
-19.73
-5.52
6.30
15.55
22.53
27.72
31.52
34.20
35.90
36.75
36.89
36.55
35.93
35.22
34.49
33.71
32.83
31.81
30.65
29.40
28.04
26.41
24.22
21.12
16.85
11.41
5.13
-1.40
-7.54
-12.81
-17.22
-21.21
-25.59
-31.20
-38.57
-47.48
-56.94
-65.28
-70.56
-71.23
-66.54
-56.89
-43.64
-28.69
-13.92
-0.72
10.23
18.82
25.25
29.83
32.79
34.36
34.77
34.36
33.49
32.40
31.24
30.00
28.63
27.21
25.90
24.91
24.31
23.93
23.33
21.97
19.41
15.52
10.50
4.79
-1.08
-6.67
-11.75
-16.33
-20.68
-25.23
-30.55
-37.13
-45.17
-54.22
-63.11
-70.08
-73.19
-71.04
-63.27
-50.78
-35.46
-19.62
-5.26
6.45
15.27
21.68
26.45
30.18
33.18
35.41
36.69
36.95
36.34
35.22
34.04
33.08
32.45
32.03
31.63
31.13
30.48
29.66
28.51
26.74
23.93
19.79
14.31
7.88
1.19
-5.06
-10.42
-14.98
-19.30
-24.27
-30.72
-38.98
-48.59
-58.19
-65.82
-69.48
-67.74
-60.27
-47.99
-32.79
-16.89
-2.21
10.11
19.79
27.17
32.77
36.98
39.97
41.78
42.56
42.59
42.26
41.88
41.51
41.02
40.15
38.73
36.80
34.59
32.34
30.13
27.80
25.00
21.28
16.31
10.04
2.78
-4.85
-12.14
-18.49
-23.71
-28.05
-32.13
-36.76
-42.60
-49.97
-58.60
-67.66
-75.70
-81.00
-81.94
-77.50
-67.70
-53.66
-37.35
-20.94
-6.26
5.77
15.09
22.23
27.89
32.50
36.20
38.85
40.30
40.58
39.98
38.91
37.72
36.65
35.68
34.71
33.60
32.30
30.86
29.31
27.57
25.42
22.54
18.64
13.67
7.87
1.74
-4.13
-9.30
-13.70
-17.72
-22.15
-27.82
-35.34
-44.63
-54.83
-64.28
-70.94
-73.00
-69.45
-60.46
-47.39
-32.27
-17.20
-3.72
7.42
16.23
23.10
28.51
32.76
35.96
38.14
39.34
39.66
39.26
38.34
37.08
35.66
34.26
33.02
32.02
31.28
30.63
29.74
28.18
25.51
21.49
16.20
10.05
3.66
-2.41
-7.84
-12.67
-17.29
-22.29
-28.27
-35.64
-44.39
-53.85
-62.71
-69.12
-71.23
-67.75
-58.54
-44.78
-28.58
-12.35
2.02
13.60
22.38
28.99
34.09
38.08
41.00
42.75
43.25
42.65
41.28
39.55
37.78
36.13
34.63
33.21
31.87
30.61
29.48
28.39
27.03
24.97
21.66
16.78
10.41
3.14
-4.18
-10.70
-15.97
-20.09
-23.69
-27.73
-33.10
-40.35
-49.40
-59.37
-68.65
-75.22
-77.13
-73.21
-63.50
-49.36
-33.02
-16.79
-2.40
9.44
18.92
26.61
33.03
38.32
42.36
44.95
46.15
46.28
45.85
45.35
45.07
44.97
44.81
44.24
43.06
41.28
39.10
36.84
34.73
32.74
30.55
27.69
23.69
18.37
11.94
4.96
-1.87
-7.97
-13.14
-17.59
-21.90
-26.78
-32.87
-40.54
-49.76
-59.95
-69.99
-78.24
-82.88
-82.43
-76.22
-64.76
-49.66
-33.10
-17.20
-3.38
7.83
16.64
23.57
29.07
33.33
36.32
38.02
38.59
38.42
38.04
37.86
38.02
38.32
38.38
37.87
36.73
35.17
33.61
32.30
31.15
29.68
27.21
23.22
17.62
10.87
3.78
-2.79
-8.29
-12.64
-16.30
-20.06
-24.74
-30.98
-38.97
-48.39
-58.32
-67.34
-73.73
-75.90
-72.79
-64.30
-51.37
-35.76
-19.58
-4.63
7.98
17.99
25.74
31.78
36.51
40.04
42.21
42.88
42.10
40.17
37.58
34.83
32.22
29.80
27.49
25.18
22.91
20.81
19.02
17.48
15.84
13.55
10.05
5.06
-1.22
-8.11
-14.74
-20.38
-24.77
-28.25
-31.65
-35.91
-41.79
-49.48
-58.55
-67.90
-76.00
-81.18
-81.99
-77.56
-67.96
-54.22
-38.11
-21.67
-6.65
5.89
15.74
23.28
29.10
33.68
37.21
39.69
41.08
41.47
41.14
40.44
39.68
38.96
38.22
37.31
36.09
34.62
33.00
31.37
29.68
27.64
24.81
20.75
15.28
8.65
1.49
-5.38
-11.30
-16.08
-20.13
-24.29
-29.52
-36.48
-45.19
-54.84
-63.95
-70.63
-73.14
-70.40
-62.31
-49.86
-34.82
-19.23
-4.82
7.32
16.89
24.14
29.53
33.48
36.28
38.06
38.99
39.30
39.29
39.26
39.36
39.58
39.77
39.70
39.20
38.25
36.95
35.46
33.88
32.08
29.71
26.32
21.55
15.34
8.05
0.34
-7.02
-13.50
-18.98
-23.82
-28.67
-34.27
-41.21
-49.67
-59.28
-69.02
-77.27
-82.14
-81.98
-75.99
-64.57
-49.28
-32.39
-16.15
-2.16
8.93
17.29
23.53
28.26
31.76
34.08
35.21
35.29
34.65
33.75
32.96
32.41
31.96
31.33
30.37
29.15
27.92
26.97
26.37
25.77
24.53
21.96
17.67
11.77
4.88
-2.15
-8.60
-14.14
-18.98
-23.73
-29.12
-35.81
-44.08
-53.75
-64.08
-73.79
-81.25
-84.73
-82.92
-75.28
-62.36
-45.70
-27.49
-9.88
5.54
18.07
27.83
35.39
41.32
45.94
49.25
51.11
51.48
50.56
48.75
46.54
44.28
42.16
40.17
38.28
36.49
34.81
33.23
31.55
29.39
26.25
21.77
15.90
9.04
1.88
-4.85
-10.75
-15.91
-20.91
-26.61
-33.70
-42.44
-52.32
-62.04
-69.81
-73.75
-72.47
-65.59
-53.87
-39.06
-23.34
-8.67
3.69
13.35
20.61
26.04
30.16
33.19
35.18
36.12
36.17
35.67
35.11
34.81
34.85
35.00
34.86
34.15
32.87
31.27
29.71
28.35
26.97
24.96
21.67
16.66
10.05
2.51
-5.01
-11.71
-17.22
-21.79
-26.13
-31.15
-37.59
-45.78
-55.41
-65.47
-74.35
-80.10
-81.01
-76.07
-65.48
-50.62
-33.68
-16.96
-2.20
9.81
19.13
26.31
31.89
36.16
39.13
40.73
41.08
40.50
39.53
38.63
37.98
37.45
36.75
35.61
34.00
32.19
30.57
29.40
28.59
27.62
25.77
22.40
17.29
10.71
3.37
-3.88
-10.38
-15.91
-20.74
-25.55
-31.15
-38.22
-47.00
-57.04
-67.09
-75.33
-79.78
-78.93
-72.23
-60.38
-45.09
-28.55
-12.83
0.73
11.62
20.05
26.57
31.67
35.62
38.45
40.11
40.68
40.42
39.71
38.97
38.39
37.97
37.46
36.64
35.42
33.97
32.54
31.28
30.04
28.32
25.45
20.95
14.75
7.35
-0.37
-7.52
-13.56
-18.46
-22.74
-27.24
-32.88
-40.32
-49.66
-60.20
-70.38
-78.07
-81.13
-78.19
-69.15
-55.27
-38.77
-22.01
-6.79
5.95
16.05
23.83
29.71
33.99
36.88
38.58
39.37
39.59
39.56
39.54
39.58
39.59
39.32
38.56
37.23
35.52
33.76
32.30
31.16
30.01
28.22
25.14
20.45
14.34
7.42
0.46
-5.90
-11.40
-16.15
-20.65
-25.56
-31.63
-39.41
-49.04
-59.90
-70.60
-79.05
-83.07
-81.09
-72.81
-59.34
-42.86
-25.88
-10.47
2.32
12.44
20.51
27.23
33.06
38.01
41.82
44.25
45.30
45.27
44.68
44.07
43.71
43.66
43.69
43.50
42.92
41.92
40.69
39.43
38.21
36.82
34.87
31.84
27.37
21.40
14.24
6.52
-1.04
-7.89
-13.79
-18.91
-23.73
-28.88
-34.94
-42.30
-50.97
-60.49
-69.80
-77.35
-81.41
-80.56
-74.26
-63.07
-48.59
-32.95
-18.07
-5.14
5.56
14.38
21.85
28.26
33.51
37.27
39.34
39.82
39.22
38.26
37.62
37.66
38.28
39.07
39.55
39.37
38.50
37.19
35.77
34.42
33.05
31.29
28.67
24.83
19.65
13.37
6.43
-0.64
-7.35
-13.43
-18.87
-23.92
-28.97
-34.57
-41.21
-49.20
-58.41
-68.14
-76.96
-83.01
-84.46
-80.14
-70.04
-55.35
-38.21
-20.95
-5.43
7.37
17.36
25.01
30.90
35.43
38.66
40.52
41.05
40.53
39.46
38.44
37.84
37.64
37.53
37.08
36.07
34.59
33.04
31.76
30.78
29.65
27.63
24.03
18.61
11.73
4.22
-2.90
-8.92
-13.64
-17.45
-21.16
-25.69
-31.76
-39.70
-49.21
-59.36
-68.63
-75.20
-77.36
-74.09
-65.35
-52.26
-36.72
-20.86
-6.43
5.59
15.09
22.51
28.47
33.39
37.35
40.21
41.80
42.14
41.53
40.47
39.42
38.64
38.10
37.55
36.73
35.53
34.01
32.35
30.65
28.77
26.28
22.72
17.78
11.52
4.45
-2.70
-9.21
-14.76
-19.50
-24.10
-29.47
-36.39
-45.22
-55.60
-66.32
-75.54
-81.23
-81.70
-76.20
-65.19
-50.22
-33.44
-16.92
-2.13
10.26
20.28
28.24
34.45
39.03
41.99
43.43
43.64
43.11
42.33
41.64
41.14
40.72
40.24
39.55
38.64
37.58
36.44
35.19
33.67
31.63
28.75
24.80
19.73
13.70
7.13
0.52
-5.67
-11.20
-16.17
-20.98
-26.26
-32.65
-40.60
-50.12
-60.55
-70.56
-78.31
-81.93
-80.08
-72.52
-60.15
-44.81
-28.63
-13.43
-0.24
10.66
19.45
26.43
31.74
35.37
37.35
37.90
37.46
36.56
35.68
34.99
34.45
33.86
33.10
32.19
31.32
30.70
30.32
29.90
28.87
26.65
22.83
17.43
10.90
3.95
-2.71
-8.67
-14.00
-19.15
-24.83
-31.68
-40.06
-49.86
-60.34
-70.15
-77.49
-80.51
-77.87
-69.21
-55.46
-38.61
-21.10
-5.13
7.95
17.79
24.82
29.77
33.22
35.51
36.74
37.04
36.64
35.88
35.02
34.23
33.45
32.59
31.61
30.58
29.66
28.94
28.27
27.21
25.22
21.84
16.94
10.83
4.10
-2.59
-8.83
-14.57
-20.17
-26.21
-33.32
-41.86
-51.70
-62.04
-71.41
-77.91
-79.71
-75.67
-65.81
-51.41
-34.60
-17.71
-2.58
9.85
19.52
26.89
32.52
36.82
39.91
41.85
42.73
42.79
42.35
41.69
40.92
40.05
38.96
37.58
35.96
34.23
32.53
30.88
29.05
26.65
23.21
18.39
12.17
4.95
-2.63
-9.85
-16.23
-21.72
-26.78
-32.19
-38.80
-47.16
-57.07
-67.47
-76.45
-81.76
-81.49
-74.79
-62.26
-45.84
-28.14
-11.54
2.46
13.51
22.10
28.95
34.53
38.86
41.75
43.10
43.17
42.58
41.95
41.69
41.69
41.55
40.81
39.26
37.14
34.95
33.21
32.11
31.32
30.10
27.63
23.37
17.34
10.14
2.64
-4.28
-10.17
-15.02
-19.34
-23.86
-29.36
-36.44
-45.29
-55.55
-66.10
-75.20
-80.74
-80.89
-74.71
-62.59
-46.20
-28.00
-10.47
4.58
16.33
24.92
30.97
35.18
37.99
39.56
39.90
39.10
37.46
35.42
33.44
31.78
30.42
29.15
27.74
26.15
24.54
23.12
21.99
20.92
19.38
16.74
12.58
6.95
0.37
-6.35
-12.45
-17.51
-21.70
-25.69
-30.49
-37.00
-45.73
-56.38
-67.74
-77.83
-84.38
-85.46
-80.18
-68.99
-53.65
-36.54
-20.00
-5.60
6.03
15.11
22.15
27.67
31.87
34.75
36.23
36.40
35.54
34.05
32.28
30.39
28.36
26.02
23.23
20.03
16.62
13.27
10.09
6.85
2.96
-2.33
-9.60
-19.04
-30.25
-42.41
-54.64
-66.22
-76.95
-87.15
-97.59
-109.22
-122.90
-139.04
-157.32
-176.51
-194.59
-209.13
-217.92
-219.65
-214.37
-203.47
-189.17
-173.78
-158.88
-144.95
-131.42
-117.14
-101.08
-82.86
-62.95
-42.45
-22.65
-4.54
11.44
25.33
37.42
47.88
56.67
63.58
68.55
71.85
74.11
76.03
77.97
79.75
80.65
79.78
76.57
71.07
63.97
56.32
49.09
42.75
37.14
31.55
24.89
16.07
4.31
-10.48
-27.42
-44.69
-59.72
-69.83
-72.81
-67.59
-54.48
-35.04
-11.64
13.16
37.09
58.50
76.42
90.42
100.46
106.71
109.56
109.63
107.79
105.16
102.88
101.85
102.48
104.62
107.60
110.44
112.12
111.84
109.13
103.98
96.80
88.30
79.35
70.76
63.13
56.76
51.62
47.30
43.00
37.57
29.75
18.68
4.31
-12.12
-28.24
-41.19
-48.58
-49.31
-43.95
-34.41
-23.07
-11.94
-2.06
6.51
14.23
21.56
28.58
34.96
40.11
43.69
45.73
46.77
47.56
48.67
50.18
51.63
52.19
51.10
48.03
43.25
37.49
31.55
26.00
20.95
16.09
10.86
4.72
-2.67
-11.40
-21.15
-31.20
-40.39
-47.30
-50.52
-49.05
-42.71
-32.21
-19.04
-4.97
8.45
20.27
30.27
38.68
45.80
51.71
56.14
58.71
59.26
58.07
55.91
53.74
52.33
51.91
52.13
52.20
51.22
48.56
43.90
37.24
28.67
18.29
6.20
-7.46
-22.32
-37.90
-53.55
-68.58
-82.26
-93.58
-101.28
-103.90
-100.24
-89.86
-73.45
-52.92
-30.83
-9.69
8.73
23.75
35.55
44.69
51.61
56.43
59.02
59.38
57.88
55.35
52.74
50.85
49.95
49.78
49.74
49.17
47.70
45.32
42.28
38.94
35.51
31.95
27.99
23.25
17.36
10.02
1.09
-9.43
-21.22
-33.58
-45.27
-54.73
-60.38
-61.14
-56.85
-48.38
-37.35
-25.57
-14.49
-4.90
3.09
9.71
15.20
19.59
22.70
24.33
24.44
23.29
21.43
19.53
18.13
17.56
17.70
18.13
18.29
17.67
16.05
13.58
10.58
7.40
4.21
0.91
-2.73
-6.97
-11.95
-17.74
-24.34
-31.81
-40.04
-48.55
-56.35
-61.99
-63.90
-60.97
-53.04
-40.99
-26.53
-11.62
2.10
13.64
22.72
29.54
34.44
37.76
39.67
40.30
39.84
38.57
36.83
34.95
33.13
31.40
29.67
27.87
25.94
23.94
21.86
19.62
17.01
13.71
9.51
4.39
-1.44
-7.62
-13.75
-19.64
-25.34
-31.11
-37.37
-44.43
-52.23
-60.16
-67.01
-71.21
-71.29
-66.45
-56.88
-43.76
-28.94
-14.30
-1.27
9.42
17.73
24.02
28.76
32.30
34.83
36.42
37.06
36.82
35.83
34.34
32.64
31.04
29.77
28.89
28.27
27.63
26.63
24.96
22.45
19.07
14.93
10.25
5.30
0.35
-4.43
-9.03
-13.62
-18.57
-24.32
-31.16
-39.03
-47.32
-54.86
-60.14
-61.75
-58.77
-51.17
-39.80
-26.20
-12.16
0.78
11.60
19.98
26.07
30.33
33.28
35.27
36.47
36.89
36.48
35.27
33.41
31.22
29.08
27.34
26.19
25.54
25.09
24.42
23.10
20.85
17.61
13.49
8.72
3.57
-1.67
-6.76
-11.54
-16.00
-20.33
-24.89
-30.12
-36.28
-43.09
-49.61
-54.34
-55.67
-52.40
-44.31
-32.25
-17.89
-3.19
10.22
21.42
30.23
36.94
41.99
45.64
47.95
48.84
48.35
46.66
44.19
41.41
38.65
36.07
33.66
31.33
29.04
26.82
24.74
22.74
20.60
17.92
14.36
9.70
4.08
-2.09
-8.18
-13.70
-18.42
-22.52
-26.61
-31.45
-37.68
-45.43
-54.07
-62.20
-68.05
-69.92
-66.84
-58.91
-47.31
-33.85
-20.43
-8.51
1.21
8.71
14.34
18.56
21.67
23.81
25.05
25.50
25.33
24.76
23.98
23.12
22.24
21.36
20.58
19.99
19.64
19.49
19.31
18.77
17.51
15.31
12.15
8.27
4.02
-0.22
-4.15
-7.70
-11.06
-14.60
-18.84
-24.11
-30.35
-36.84
-42.25
-44.88
-43.19
-36.38
-24.71
-9.46
7.40
23.84
38.34
50.15
59.31
66.31
71.82
76.27
79.75
82.11
83.08
82.55
80.77
78.33
76.06
74.68
74.60
75.72
77.53
79.37
80.63
80.98
80.34
78.73
76.07
72.22
67.02
60.53
53.09
45.14
36.98
28.63
20.06
11.53
3.99
-1.02
-1.82
2.49
11.39
22.91
34.24
42.79
47.14
47.35
44.68
40.70
36.65
32.93
29.30
25.26
20.53
15.31
10.28
6.27
3.97
3.58
4.73
6.66
8.41
9.11
8.15
5.26
0.43
-6.18
-14.34
-23.80
-34.27
-45.49
-57.27
-69.59
-82.56
-96.26
-110.45
-124.42
-136.96
-146.77
-152.89
-155.15
-154.16
-150.93
-146.40
-141.00
-134.62
-127.01
-118.16
-108.58
-99.18
-90.84
-84.01
-78.49
-73.47
-68.00
-61.38
-53.50
-44.83
-36.16
-28.27
-21.60
-16.17
-11.68
-7.77
-4.26
-1.25
0.96
1.96
1.48
-0.68
-4.53
-9.98
-16.74
-24.16
-31.21
-36.56
-38.91
-37.44
-32.19
-24.05
-14.57
-5.40
2.20
7.55
10.59
11.65
11.10
9.25
6.39
2.83
-0.96
-4.47
-7.22
-8.99
-9.88
-10.28
-10.70
-11.57
-13.03
-14.89
-16.69
-17.94
-18.35
-18.02
-17.40
-17.12
-17.78
-19.77
-23.19
-27.83
-33.18
-38.46
-42.67
-44.82
-44.11
-40.33
-33.91
-25.89
-17.53
-9.86
-3.43
1.75
5.91
9.34
12.10
14.07
15.12
15.25
14.66
13.69
12.71
11.93
11.33
10.68
9.66
7.96
5.57
2.66
-0.42
-3.30
-5.90
-8.40
-11.27
-15.02
-20.06
-26.42
-33.75
-41.20
-47.50
-51.23
-51.13
-46.58
-37.86
-26.12
-13.06
-0.35
10.86
20.10
27.44
33.16
37.40
40.12
41.18
40.61
38.76
36.20
33.60
31.52
30.19
29.53
29.19
28.72
27.73
26.00
23.60
20.78
17.85
15.00
12.18
9.07
5.22
0.14
-6.47
-14.61
-23.80
-33.08
-41.05
-46.10
-46.93
-42.88
-34.33
-22.53
-9.30
3.64
15.09
24.62
32.44
38.98
44.51
48.99
52.06
53.39
52.94
51.08
48.53
46.05
44.17
42.98
42.23
41.53
40.64
39.57
38.55
37.77
37.18
36.44
34.99
32.28
27.79
21.12
11.84
-0.43
-15.82
-33.89
-53.33
-72.09
-87.78
-98.41
-102.98
-101.76
-96.08
-87.76
-78.49
-69.45
-61.17
-53.81
-47.37
-41.92
-37.56
-34.34
-32.11
-30.50
-29.03
-27.19
-24.71
-21.58
-18.12
-14.81
-12.10
-10.28
-9.41
-9.33
-9.77
-10.49
-11.42
-12.63
-14.37
-16.96
-20.72
-25.81
-32.15
-39.31
-46.45
-52.31
-55.52
-54.90
-49.85
-40.63
-28.31
-14.45
-0.68
11.76
22.25
30.70
37.31
42.26
45.56
47.14
46.95
45.13
42.15
38.65
35.30
32.59
30.64
29.26
28.01
26.39
24.11
21.11
17.60
13.87
10.16
6.49
2.71
-1.48
-6.28
-11.82
-18.10
-25.06
-32.58
-40.36
-47.70
-53.50
-56.33
-54.93
-48.70
-38.01
-24.22
-9.26
5.02
17.34
27.17
34.62
40.03
43.75
45.97
46.77
46.36
45.01
43.12
41.08
39.15
37.46
36.05
34.88
33.88
32.90
31.78
30.24
28.08
25.17
21.57
17.45
13.07
8.63
4.20
-0.33
-5.18
-10.59
-16.77
-23.72
-31.22
-38.65
-45.06
-49.21
-49.86
-46.21
-38.20
-26.64
-13.07
0.78
13.52
24.34
33.10
39.96
45.13
48.60
50.29
50.21
48.68
46.30
43.69
41.36
39.43
37.66
35.71
33.30
30.47
27.47
24.61
22.03
19.53
16.70
13.04
8.27
2.53
-3.71
-9.75
-14.98
-19.12
-22.33
-25.20
-28.53
-33.07
-39.23
-46.80
-54.86
-61.88
-66.07
-65.88
-60.50
-50.25
-36.43
-20.95
-5.75
7.72
18.76
27.30
33.62
38.07
40.81
41.90
41.40
39.49
36.53
33.00
29.30
25.75
22.51
19.70
17.43
15.78
14.68
13.87
12.86
11.09
8.13
3.91
-1.23
-6.71
-11.91
-16.47
-20.41
-24.13
-28.25
-33.42
-39.98
-47.79
-56.08
-63.47
-68.24
-68.86
-64.42
-55.05
-41.89
-26.77
-11.68
1.80
12.82
21.18
27.21
31.34
33.93
35.16
35.14
34.05
32.21
30.08
28.08
26.50
25.38
24.58
23.93
23.26
22.47
21.46
20.10
18.16
15.46
11.89
7.52
2.64
-2.47
-7.55
-12.58
-17.69
-23.18
-29.41
-36.59
-44.65
-53.02
-60.60
-65.90
-67.39
-64.00
-55.55
-42.95
-27.87
-12.39
1.73
13.38
22.25
28.61
32.98
35.81
37.35
37.72
37.02
35.52
33.58
31.60
29.89
28.54
27.48
26.53
25.56
24.49
23.29
21.89
20.05
17.48
13.90
9.27
3.83
-1.87
-7.29
-12.07
-16.25
-20.22
-24.61
-30.02
-36.69
-44.34
-52.05
-58.43
-61.95
-61.31
-55.97
-46.31
-33.63
-19.72
-6.32
5.28
14.54
21.49
26.44
29.77
31.70
32.43
32.18
31.26
30.02
28.72
27.49
26.33
25.14
23.93
22.82
22.01
21.65
21.71
21.89
21.74
20.75
18.63
15.38
11.32
6.93
2.67
-1.27
-4.96
-8.81
-13.31
-18.97
-26.04
-34.32
-43.09
-51.08
-56.70
-58.44
-55.37
-47.48
-35.77
-21.96
-7.95
4.75
15.33
23.79
30.57
36.24
41.14
45.20
48.12
49.58
49.47
47.97
45.52
42.56
39.42
36.26
33.14
30.11
27.31
24.87
22.79
20.79
18.46
15.33
11.20
6.20
0.80
-4.44
-9.18
-13.42
-17.59
-22.35
-28.32
-35.80
-44.53
-53.56
-61.40
-66.30
-66.80
-62.23
-52.94
-40.32
-26.30
-12.81
-1.21
7.90
14.68
19.58
23.10
25.51
26.90
27.28
26.71
25.37
23.55
21.61
19.84
18.42
17.45
16.94
16.78
16.77
16.58
15.81
14.11
11.26
7.27
2.41
-2.87
-8.11
-13.01
-17.54
-21.95
-26.70
-32.32
-39.13
-47.03
-55.31
-62.64
-67.37
-67.95
-63.54
-54.32
-41.52
-27.06
-12.89
-0.47
9.61
17.42
23.44
28.13
31.65
33.94
34.89
34.59
33.38
31.80
30.37
29.37
28.79
28.47
28.21
27.99
27.86
27.92
28.13
28.22
27.76
26.35
23.77
20.09
15.69
11.02
6.45
2.06
-2.40
-7.46
-13.67
-21.39
-30.54
-40.45
-49.86
-57.23
-61.06
-60.39
-55.09
-45.87
-34.14
-21.56
-9.63
0.67
8.92
15.21
19.87
23.27
25.67
27.21
27.95
28.00
27.47
26.59
25.58
24.62
23.85
23.33
23.08
22.98
22.89
22.50
21.46
19.47
16.34
12.14
7.17
1.90
-3.22
-7.86
-11.99
-15.88
-20.08
-25.25
-31.93
-40.20
-49.40
-58.12
-64.42
-66.47
-63.17
-54.51
-41.72
-26.78
-11.83
1.48
12.28
20.44
26.30
30.37
33.07
34.66
35.34
35.27
34.66
33.73
32.73
31.83
31.17
30.82
30.75
30.84
30.88
30.50
29.33
27.01
23.42
18.69
13.24
7.61
2.34
-2.26
-6.14
-9.55
-12.95
-16.96
-22.21
-29.14
-37.68
-47.07
-55.79
-61.90
-63.64
-60.04
-51.34
-38.93
-24.80
-10.86
1.53
11.82
20.03
26.47
31.41
35.01
37.39
38.67
39.06
38.82
38.23
37.47
36.61
35.61
34.40
32.94
31.30
29.64
28.12
26.80
25.47
23.70
20.98
16.96
11.65
5.42
-1.11
-7.34
-12.92
-17.80
-22.27
-26.81
-32.05
-38.47
-46.25
-54.94
-63.41
-69.96
-72.81
-70.71
-63.41
-51.82
-37.70
-23.02
-9.39
2.39
12.21
20.37
27.20
32.80
37.08
39.90
41.27
41.44
40.76
39.60
38.20
36.68
35.08
33.46
31.92
30.62
29.68
29.14
28.83
28.39
27.35
25.22
21.69
16.76
10.85
4.58
-1.36
-6.54
-10.89
-14.76
-18.76
-23.59
-29.83
-37.69
-46.90
-56.49
-64.90
-70.27
-70.98
-66.24
-56.48
-43.19
-28.48
-14.34
-2.09
7.81
15.59
21.69
26.47
30.05
32.39
33.50
33.61
33.09
32.35
31.59
30.84
29.95
28.82
27.52
26.29
25.44
25.11
25.16
25.14
24.44
22.59
19.40
15.12
10.28
5.49
1.17
-2.58
-6.02
-9.73
-14.37
-20.52
-28.45
-37.90
-48.02
-57.32
-64.03
-66.48
-63.67
-55.64
-43.56
-29.36
-15.20
-2.77
7.07
14.34
19.62
23.61
26.76
29.17
30.69
31.21
30.80
29.78
28.56
27.45
26.46
25.44
24.18
22.64
20.96
19.42
18.20
17.19
15.98
14.03
10.91
6.59
1.46
-3.81
-8.55
-12.38
-15.41
-18.21
-21.66
-26.65
-33.71
-42.70
-52.71
-62.13
-69.05
-71.75
-69.26
-61.64
-49.98
-36.03
-21.66
-8.33
3.13
12.57
20.18
26.30
31.14
34.82
37.37
38.89
39.58
39.66
39.38
38.81
37.94
36.64
34.83
32.55
30.02
27.64
25.68
24.21
22.94
21.24
18.47
14.21
8.53
1.92
-4.84
-11.09
-16.46
-21.06
-25.33
-29.94
-35.48
-42.21
-49.91
-57.69
-64.16
-67.70
-66.86
-60.94
-50.19
-35.80
-19.59
-3.45
11.06
23.03
32.11
38.43
42.26
43.90
43.67
41.95
39.20
35.99
32.84
30.09
27.86
26.04
24.43
22.93
21.55
20.39
19.50
18.74
17.77
16.12
13.38
9.36
4.24
-1.52
-7.34
-12.74
-17.53
-21.95
-26.51
-31.88
-38.59
-46.74
-55.76
-64.42
-71.02
-73.84
-71.72
-64.45
-52.85
-38.56
-23.50
-9.30
3.06
13.25
21.43
27.93
32.96
36.57
38.73
39.47
39.00
37.65
35.88
34.08
32.53
31.30
30.30
29.41
28.55
27.71
26.83
25.77
24.24
21.86
18.32
13.56
7.87
1.80
-4.01
-9.13
-13.53
-17.70
-22.43
-28.52
-36.36
-45.62
-55.14
-63.13
-67.64
-67.14
-61.13
-50.25
-36.10
-20.73
-5.94
7.08
17.95
26.83
34.02
39.70
43.80
46.16
46.78
46.02
44.43
42.68
41.20
40.02
38.86
37.37
35.38
33.04
30.80
29.06
27.95
27.09
25.77
23.19
18.89
12.95
5.96
-1.19
-7.73
-13.25
-17.82
-21.91
-26.15
-31.20
-37.49
-45.15
-53.75
-62.31
-69.32
-73.03
-72.05
-65.74
-54.62
-40.18
-24.40
-9.16
4.27
15.36
24.15
30.89
35.86
39.17
40.94
41.40
40.97
40.14
39.32
38.71
38.25
37.72
36.88
35.69
34.23
32.67
31.14
29.58
27.73
25.23
21.76
17.18
11.65
5.59
-0.46
-5.97
-10.68
-14.72
-18.62
-23.22
-29.32
-37.36
-47.05
-57.24
-66.07
-71.48
-71.82
-66.41
-55.81
-41.65
-26.10
-11.24
1.55
11.74
19.56
25.57
30.33
34.09
36.90
38.61
39.14
38.57
37.13
35.08
32.64
29.97
27.15
24.33
21.69
19.45
17.68
16.21
14.63
12.37
8.98
4.34
-1.27
-7.23
-12.83
-17.60
-21.42
-24.63
-27.90
-32.00
-37.63
-45.06
-53.90
-63.03
-70.69
-74.93
-74.18
-67.79
-56.32
-41.32
-24.83
-8.80
5.45
17.29
26.71
33.94
39.23
42.82
44.97
46.02
46.48
46.82
47.32
47.91
48.12
47.29
44.82
40.53
34.73
28.11
21.46
15.31
9.81
4.72
-0.28
-5.40
-10.59
-15.61
-20.25
-24.50
-28.66
-33.25
-38.84
-45.85
-54.34
-63.82
-73.18
-80.80
-84.85
-83.85
-77.16
-65.33
-49.96
-33.27
-17.34
-3.59
7.50
16.14
22.91
28.27
32.40
35.24
36.75
37.04
36.52
35.62
34.72
33.96
33.26
32.47
31.54
30.58
29.76
29.21
28.81
28.19
26.84
24.31
20.43
15.37
9.63
3.83
-1.50
-6.14
-10.32
-14.61
-19.78
-26.46
-34.89
-44.59
-54.34
-62.39
-66.83
-66.26
-60.20
-49.38
-35.47
-20.55
-6.48
5.63
15.48
23.39
29.84
35.18
39.44
42.50
44.26
44.79
44.35
43.30
42.01
40.68
39.44
38.35
37.44
36.73
36.20
35.71
34.91
33.36
30.62
26.40
20.77
14.14
7.13
0.34
-5.89
-11.65
-17.35
-23.62
-31.00
-39.67
-49.20
-58.49
-65.91
-69.74
-68.70
-62.44
-51.74
-38.30
-24.18
-11.19
-0.45
7.78
13.84
18.29
21.57
23.89
25.26
25.65
25.19
24.16
22.95
21.88
21.09
20.58
20.19
19.81
19.40
18.97
18.43
17.53
15.87
13.05
8.91
3.65
-2.23
-8.10
-13.50
-18.36
-23.02
-28.12
-34.32
-42.01
-50.95
-60.16
-68.01
-72.59
-72.33
-66.54
-55.71
-41.44
-25.88
-11.05
1.74
12.02
20.04
26.30
31.19
34.83
37.13
37.98
37.47
35.86
33.61
31.17
28.92
27.10
25.82
25.03
24.61
24.31
23.79
22.67
20.62
17.47
13.27
8.27
2.88
-2.52
-7.71
-12.78
-18.03
-23.94
-30.92
-39.11
-48.12
-56.96
-64.11
-67.87
-66.88
-60.57
-49.47
-35.10
-19.47
-4.51
8.46
18.93
27.06
33.26
37.96
41.34
43.41
44.21
43.89
42.77
41.27
39.71
38.28
37.01
35.83
34.69
33.66
32.76
32.04
31.33
30.28
28.42
25.36
20.96
15.39
9.14
2.81
-3.15
-8.62
-13.88
-19.54
-26.28
-34.53
-44.17
-54.36
-63.57
-69.89
-71.58
-67.64
-58.17
-44.46
-28.59
-12.75
1.33
12.79
21.59
28.14
32.91
36.18
38.02
38.53
38.06
37.21
36.68
36.95
38.14
39.90
41.65
42.83
43.14
42.57
41.29
39.43
36.89
33.35
28.46
22.07
14.41
6.09
-2.08
-9.43
-15.64
-20.87
-25.69
-30.87
-37.11
-44.82
-53.91
-63.69
-72.90
-79.84
-82.81
-80.56
-72.78
-60.26
-44.78
-28.58
-13.72
-1.57
7.46
13.70
17.92
20.79
22.72
23.78
23.90
23.10
21.60
19.76
18.03
16.69
15.82
15.33
15.07
14.87
14.59
14.03
12.93
11.01
8.02
3.95
-0.94
-6.09
-10.90
-14.98
-18.35
-21.53
-25.41
-30.86
-38.32
-47.46
-57.04
-65.08
-69.49
-68.63
-61.98
-50.27
-35.28
-19.27
-4.24
8.51
18.57
26.15
31.69
35.63
38.15
39.29
39.07
37.65
35.33
32.54
29.72
27.25
25.34
24.04
23.23
22.61
21.78
20.33
17.97
14.58
10.27
5.34
0.17
-4.95
-9.87
-14.68
-19.63
-25.09
-31.42
-38.79
-47.02
-55.39
-62.62
-67.07
-67.16
-61.90
-51.34
-36.65
-19.77
-2.85
12.41
25.06
34.96
42.46
48.03
52.02
54.59
55.84
55.87
54.92
53.28
51.27
49.16
47.13
45.29
43.68
42.24
40.87
39.37
37.51
35.00
31.58
27.10
21.58
15.22
8.46
1.81
-4.32
-9.81
-14.96
-20.42
-27.00
-35.25
-45.07
-55.44
-64.57
-70.29
-70.80
-65.29
-54.28
-39.52
-23.34
-7.93
5.27
15.76
23.73
29.68
33.96
36.74
38.07
38.12
37.28
36.08
34.98
34.12
33.35
32.39
31.04
29.40
27.80
26.59
25.87
25.32
24.34
22.27
18.73
13.80
7.97
1.91
-3.83
-8.98
-13.63
-18.16
-23.06
-28.85
-35.91
-44.27
-53.44
-62.27
-69.07
-71.97
-69.55
-61.33
-48.06
-31.53
-14.05
2.29
16.14
27.04
35.22
41.18
45.29
47.67
48.26
47.11
44.54
41.14
37.58
34.39
31.79
29.70
27.90
26.21
24.63
23.24
22.10
21.11
19.93
18.04
14.96
10.50
4.90
-1.21
-7.01
-11.88
-15.65
-18.78
-22.22
-27.06
-34.09
-43.36
-53.97
-64.22
-71.93
-75.11
-72.58
-64.33
-51.55
-36.21
-20.48
-6.09
5.92
15.32
22.37
27.47
31.01
33.18
34.12
33.95
32.87
31.16
29.16
27.17
25.41
24.06
23.16
22.72
22.61
22.62
22.36
21.41
19.35
15.95
11.25
5.56
-0.67
-6.90
-12.75
-18.08
-23.07
-28.16
-34.01
-41.16
-49.75
-59.21
-68.13
-74.60
-76.67
-73.08
-63.71
-49.71
-33.09
-16.09
-0.57
12.40
22.54
30.08
35.43
38.99
41.04
41.82
41.62
40.81
39.77
38.81
38.10
37.64
37.33
37.05
36.74
36.42
36.14
35.89
35.46
34.43
32.28
28.53
23.06
16.17
8.55
1.04
-5.68
-11.39
-16.38
-21.37
-27.27
-34.79
-44.16
-54.81
-65.46
-74.17
-79.00
-78.48
-72.22
-60.98
-46.50
-30.90
-15.99
-2.89
8.06
17.04
24.38
30.28
34.71
37.62
39.09
39.42
39.13
38.63
38.20
37.74
36.96
35.56
33.48
30.91
28.28
25.98
24.08
22.30
20.04
16.71
11.96
5.90
-0.95
-7.82
-14.04
-19.29
-23.67
-27.71
-32.17
-37.83
-45.15
-54.02
-63.65
-72.52
-78.70
-80.40
-76.51
-67.03
-53.23
-37.13
-20.96
-6.45
5.51
14.86
22.04
27.61
31.94
35.14
37.18
38.05
37.79
36.62
34.81
32.72
30.67
28.93
27.69
26.97
26.61
26.29
25.54
23.90
21.07
16.97
11.83
6.11
0.29
-5.25
-10.44
-15.52
-20.99
-27.48
-35.42
-44.78
-54.85
-64.19
-70.87
-73.04
-69.54
-60.36
-46.74
-30.75
-14.65
-0.18
11.74
21.06
28.21
33.67
37.71
40.34
41.48
41.16
39.63
37.32
34.74
32.31
30.24
28.54
27.12
25.81
24.45
22.90
21.01
18.63
15.66
12.04
7.86
3.32
-1.30
-5.74
-9.85
-13.75
-17.89
-22.94
-29.62
-38.30
-48.57
-59.06
-67.65
-72.03
-70.47
-62.55
-49.30
-32.82
-15.58
0.42
14.06
25.13
33.94
40.81
45.86
49.00
50.19
49.63
47.83
45.46
43.10
40.99
39.04
36.96
34.53
31.84
29.22
27.13
25.77
24.92
23.95
22.03
18.52
13.31
6.85
-0.06
-6.58
-12.29
-17.27
-22.10
-27.55
-34.34
-42.79
-52.66
-63.07
-72.50
-79.11
-81.08
-77.23
-67.39
-52.63
-34.99
-16.96
-0.73
12.33
21.85
28.31
32.55
35.39
37.29
38.36
38.53
37.76
36.19
34.16
32.03
30.13
28.59
27.40
26.43
25.51
24.49
23.19
21.38
18.79
15.21
10.63
5.24
-0.57
-6.38
-11.93
-17.29
-22.83
-29.15
-36.72
-45.62
-55.22
-64.18
-70.64
-72.81
-69.52
-60.73
-47.62
-32.24
-16.85
-3.24
7.69
15.92
21.95
26.35
29.46
31.39
32.17
31.95
31.08
29.99
29.06
28.47
28.21
28.18
28.29
28.45
28.54
28.26
27.22
25.01
21.40
16.48
10.64
4.42
-1.74
-7.65
-13.47
-19.60
-26.53
-34.68
-44.09
-54.28
-64.11
-71.91
-75.81
-74.37
-67.04
-54.58
-38.78
-21.96
-6.22
7.12
17.62
25.56
31.39
35.52
38.10
39.22
39.06
37.97
36.43
34.90
33.65
32.78
32.22
31.88
31.65
31.50
31.30
30.87
29.91
28.11
25.24
21.31
16.59
11.51
6.52
1.89
-2.48
-6.99
-12.29
-19.05
-27.72
-38.34
-50.31
-62.27
-72.31
-78.29
-78.50
-72.22
-60.10
-44.03
-26.55
-10.08
3.82
14.65
22.85
29.20
34.35
38.52
41.61
43.39
43.86
43.30
42.15
40.85
39.63
38.46
37.20
35.73
34.10
32.48
31.04
29.73
28.18
25.77
21.87
16.20
8.97
0.96
-6.84
-13.60
-18.93
-23.09
-26.88
-31.31
-37.21
-44.96
-54.18
-63.75
-71.97
-76.93
-77.03
-71.53
-60.77
-46.21
-29.92
-13.99
0.01
11.35
19.95
26.19
30.52
33.23
34.57
34.73
34.03
32.82
31.43
30.04
28.66
27.19
25.58
23.90
22.39
21.26
20.60
20.12
19.27
17.29
13.57
7.87
0.56
-7.50
-15.22
-21.64
-26.23
-29.09
-30.82
-32.38
-34.75
-38.62
-44.06
-50.39
-56.15
-59.46
-58.64
-52.80
-42.26
-28.48
-13.56
0.46
12.23
21.33
28.08
33.10
36.93
39.78
41.67
42.54
42.49
41.81
40.85
39.87
38.93
37.87
36.47
34.62
32.43
30.24
28.40
27.00
25.70
23.85
20.73
15.93
9.56
2.27
-5.02
-11.52
-16.90
-21.39
-25.66
-30.57
-36.87
-44.87
-54.29
-64.14
-72.84
-78.57
-79.76
-75.54
-66.15
-52.79
-37.34
-21.76
-7.57
4.45
14.18
21.93
28.08
32.90
36.49
38.83
39.97
40.09
39.46
38.36
37.02
35.55
33.95
32.27
30.57
29.00
27.66
26.53
25.44
23.98
21.71
18.24
13.49
7.73
1.49
-4.56
-9.99
-14.74
-19.19
-24.06
-30.08
-37.61
-46.39
-55.44
-63.17
-67.83
-67.99
-63.04
-53.39
-40.41
-25.95
-11.81
0.77
11.32
19.87
26.73
32.07
35.86
37.99
38.46
37.55
35.85
34.00
32.47
31.46
30.83
30.32
29.73
29.01
28.30
27.75
27.37
26.97
26.08
24.21
20.95
16.24
10.39
4.07
-2.02
-7.34
-11.78
-15.63
-19.53
-24.27
-30.50
-38.62
-48.42
-59.09
-69.13
-76.59
-79.60
-76.93
-68.47
-55.37
-39.70
-23.73
-9.20
3.09
13.19
21.64
28.89
35.01
39.72
42.69
43.85
43.56
42.44
41.15
40.14
39.54
39.20
38.93
38.62
38.28
37.92
37.47
36.62
34.92
31.98
27.66
22.21
16.31
10.71
5.97
2.18
-1.18
-5.03
-10.41
-18.12
-28.45
-41.13
-55.26
-69.42
-81.76
-90.31
-93.34
-89.94
-80.29
-65.72
-48.38
-30.61
-14.35
-0.69
10.14
18.50
24.97
30.01
33.79
36.32
37.59
37.74
37.07
35.94
34.74
33.70
32.90
32.25
31.66
31.04
30.35
29.51
28.33
26.49
23.61
19.44
13.99
7.63
0.96
-5.34
-10.84
-15.51
-19.84
-24.63
-30.72
-38.59
-48.02
-58.03
-66.97
-72.90
-74.19
-69.98
-60.53
-47.10
-31.61
-16.09
-2.09
9.56
18.76
25.87
31.36
35.54
38.54
40.37
41.13
41.08
40.59
40.01
39.54
39.14
38.62
37.75
36.49
34.96
33.38
31.89
30.41
28.57
25.89
21.98
16.71
10.32
3.36
-3.53
-9.84
-15.39
-20.38
-25.36
-30.99
-37.89
-46.25
-55.61
-64.78
-72.02
-75.50
-73.85
-66.79
-55.18
-40.79
-25.68
-11.54
0.71
10.91
19.35
26.33
31.88
35.82
37.96
38.34
37.36
35.62
33.68
31.88
30.22
28.57
26.79
25.02
23.56
22.81
22.93
23.69
24.42
24.20
22.19
17.97
11.79
4.41
-3.13
-9.95
-15.64
-20.38
-24.78
-29.64
-35.62
-43.03
-51.69
-60.88
-69.31
-75.36
-77.34
-74.05
-65.19
-51.68
-35.37
-18.54
-3.20
9.48
19.31
26.82
32.77
37.68
41.69
44.62
46.29
46.74
46.31
45.45
44.54
43.67
42.61
40.99
38.60
35.48
31.90
28.20
24.48
20.51
15.90
10.28
3.66
-3.50
-10.50
-16.70
-21.85
-26.27
-30.68
-35.98
-42.84
-51.37
-60.98
-70.36
-77.75
-81.35
-79.81
-72.70
-60.68
-45.35
-28.78
-12.96
0.76
11.81
20.32
26.75
31.61
35.21
37.67
39.05
39.43
38.98
37.91
36.48
34.84
33.13
31.41
29.78
28.38
27.30
26.53
25.90
24.99
23.33
20.50
16.35
11.06
5.06
-1.07
-6.90
-12.32
-17.59
-23.27
-30.01
-38.20
-47.70
-57.59
-66.27
-71.74
-72.24
-66.78
-55.65
-40.34
-23.10
-6.21
8.62
20.64
29.88
36.77
41.72
44.94
46.41
46.20
44.64
42.28
39.84
37.90
36.74
36.31
36.36
36.56
36.74
36.85
36.93
36.94
36.64
35.58
33.26
29.32
23.71
16.82
9.30
1.86
-5.01
-11.27
-17.27
-23.70
-31.23
-40.21
-50.47
-61.11
-70.66
-77.26
-79.25
-75.57
-66.24
-52.38
-35.90
-18.97
-3.37
9.82
20.32
28.33
34.20
38.17
40.35
40.83
39.88
37.99
35.75
33.61
31.73
29.94
28.00
25.69
23.08
20.40
17.93
15.81
13.82
11.57
8.59
4.62
-0.33
-5.90
-11.65
-17.15
-22.17
-26.77
-31.24
-36.07
-41.77
-48.70
-56.79
-65.35
-72.96
-77.73
-77.86
-72.21
-60.89
-45.30
-27.72
-10.56
4.38
16.27
25.20
31.72
36.42
39.58
41.19
41.17
39.56
36.67
33.05
29.35
26.10
23.58
21.79
20.49
19.35
18.03
16.32
14.15
11.46
8.23
4.42
0.06
-4.75
-9.84
-15.06
-20.38
-26.05
-32.49
-40.13
-49.01
-58.50
-67.17
-73.07
-74.33
-69.80
-59.51
-44.79
-27.83
-10.94
4.03
16.14
25.35
32.14
37.10
40.62
42.78
43.51
42.81
40.82
37.94
34.70
31.63
29.06
27.14
25.73
24.57
23.32
21.66
19.37
16.37
12.67
8.37
3.62
-1.43
-6.68
-12.17
-18.07
-24.69
-32.30
-40.95
-50.17
-58.85
-65.43
-68.17
-65.84
-58.12
-45.80
-30.60
-14.59
0.37
13.06
23.08
30.66
36.27
40.39
43.25
44.87
45.23
44.38
42.56
40.14
37.57
35.25
33.43
32.21
31.50
31.05
30.50
29.44
27.50
24.50
20.47
15.68
10.50
5.27
0.22
-4.71
-9.75
-15.38
-22.09
-30.27
-39.90
-50.32
-60.20
-67.69
-70.91
-68.53
-60.27
-47.05
-30.78
-13.74
2.08
15.33
25.55
32.89
37.84
40.92
42.51
42.84
42.13
40.65
38.72
36.66
34.68
32.87
31.21
29.70
28.34
27.18
26.21
25.25
23.95
21.83
18.56
14.02
8.44
2.29
-3.87
-9.67
-15.04
-20.26
-25.94
-32.75
-41.19
-51.26
-62.20
-72.48
-80.06
-82.95
-79.87
-70.74
-56.79
-40.13
-23.10
-7.55
5.54
16.03
24.27
30.74
35.67
39.11
41.02
41.43
40.63
39.00
36.92
34.71
32.55
30.53
28.74
27.24
26.02
24.93
23.70
21.91
19.20
15.32
10.29
4.42
-1.87
-8.12
-14.09
-19.83
-25.65
-32.04
-39.46
-48.14
-57.84
-67.67
-76.15
-81.42
-81.82
-76.41
-65.45
-50.43
-33.53
-16.96
-2.23
10.13
20.40
29.18
36.87
43.45
48.58
51.95
53.54
53.70
53.01
51.99
50.94
49.84
48.54
46.85
44.73
42.28
39.60
36.68
33.30
29.09
23.75
17.22
9.78
2.02
-5.40
-11.97
-17.60
-22.67
-27.97
-34.40
-42.60
-52.54
-63.32
-73.16
-79.82
-81.31
-76.54
-65.79
-50.63
-33.39
-16.37
-1.19
11.43
21.48
29.25
35.04
38.94
41.07
41.62
41.04
39.89
38.62
37.48
36.44
35.34
34.14
32.89
31.84
31.17
30.90
30.72
30.12
28.49
25.44
20.86
15.12
8.81
2.52
-3.31
-8.60
-13.59
-18.77
-24.69
-31.78
-40.11
-49.17
-57.82
-64.42
-67.20
-64.87
-57.03
-44.50
-28.97
-12.58
2.77
15.90
26.45
34.64
40.89
45.53
48.67
50.31
50.51
49.51
47.79
45.86
44.08
42.57
41.17
39.63
37.78
35.71
33.63
31.74
29.95
27.83
24.74
20.09
13.69
5.85
-2.70
-11.10
-18.75
-25.54
-31.84
-38.34
-45.76
-54.51
-64.42
-74.61
-83.51
-89.22
-89.98
-84.82
-73.90
-58.58
-40.98
-23.33
-7.38
5.96
16.57
24.77
30.96
35.46
38.46
40.10
40.55
40.04
38.83
37.20
35.40
33.66
32.18
31.03
30.17
29.34
28.19
26.34
23.45
19.30
13.90
7.43
0.28
-7.11
-14.27
-20.95
-27.15
-33.18
-39.55
-46.77
-55.04
-64.00
-72.44
-78.60
-80.55
-76.90
-67.39
-53.11
-36.18
-19.03
-3.71
8.72
18.16
25.14
30.28
33.94
36.19
36.94
36.22
34.26
31.54
28.60
25.88
23.65
21.96
20.66
19.56
18.38
16.84
14.71
11.86
8.23
3.88
-1.05
-6.41
-12.03
-17.85
-23.91
-30.43
-37.68
-45.92
-55.07
-64.54
-73.05
-78.85
-80.16
-75.81
-65.76
-51.23
-34.37
-17.56
-2.71
9.19
18.08
24.49
29.08
32.30
34.32
35.21
35.11
34.37
33.46
32.80
32.62
32.89
33.43
34.00
34.45
34.70
34.67
34.18
32.93
30.59
26.88
21.77
15.48
8.50
1.30
-5.76
-12.67
-19.71
-27.38
-36.11
-45.95
-56.35
-66.09
-73.42
-76.50
-73.99
-65.54
-52.02
-35.31
-17.69
-1.24
12.77
23.95
32.60
39.26
44.37
48.07
50.38
51.30
51.00
49.85
48.27
46.61
45.01
43.43
41.70
39.74
37.54
35.20
32.78
30.23
27.28
23.60
18.94
13.31
7.07
0.74
-5.23
-10.66
-15.74
-21.01
-27.10
-34.57
-43.56
-53.63
-63.65
-71.85
-76.30
-75.45
-68.68
-56.62
-40.93
-23.82
-7.37
6.97
18.60
27.57
34.24
39.00
42.13
43.84
44.38
44.09
43.30
42.32
41.29
40.22
39.05
37.71
36.19
34.53
32.76
30.72
28.19
24.86
20.50
15.05
8.70
1.83
-5.15
-11.89
-18.21
-24.27
-30.51
-37.53
-45.84
-55.51
-65.84
-75.29
-81.76
-83.24
-78.48
-67.52
-51.78
-33.59
-15.49
0.51
13.36
22.97
29.79
34.47
37.39
38.70
38.43
36.71
33.88
30.42
26.87
23.65
20.99
19.04
17.86
17.46
17.76
18.45
19.01
18.75
17.05
13.63
8.67
2.78
-3.24
-8.75
-13.52
-17.81
-22.33
-27.90
-35.15
-44.17
-54.27
-64.00
-71.37
-74.37
-71.60
-62.75
-48.80
-31.76
-14.04
2.27
15.92
26.63
34.89
41.44
46.85
51.19
54.03
54.67
52.46
47.27
39.61
30.63
21.81
14.59
9.94
8.11
8.68
10.76
13.24
15.14
15.77
14.79
12.24
8.45
3.82
-1.22
-6.42
-11.69
-17.17
-23.19
-30.13
-38.25
-47.34
-56.48
-64.04
-68.02
-66.64
-59.06
-45.85
-28.79
-10.46
6.70
21.00
31.84
39.53
44.79
48.29
50.39
51.18
50.70
49.18
47.01
44.68
42.52
40.68
39.04
37.46
35.90
34.43
33.23
32.29
31.39
30.04
27.70
24.02
18.98
12.92
6.39
-0.09
-6.26
-12.21
-18.48
-25.79
-34.86
-46.02
-58.86
-72.08
-83.64
-91.23
-92.96
-87.97
-76.79
-61.14
-43.43
-25.96
-10.39
2.50
12.70
20.60
26.63
31.05
33.98
35.52
35.84
35.21
33.96
32.35
30.53
28.61
26.69
24.93
23.50
22.48
21.72
20.80
19.11
16.15
11.74
6.13
-0.03
-5.98
-11.13
-15.21
-18.42
-21.29
-24.55
-29.02
-35.26
-43.40
-52.90
-62.39
-69.90
-73.31
-71.03
-62.58
-48.93
-32.15
-14.80
0.91
13.72
23.41
30.52
35.81
39.83
42.67
44.15
44.09
42.55
39.96
36.98
34.23
32.09
30.60
29.55
28.67
27.72
26.57
25.13
23.29
20.83
17.49
13.11
7.78
1.85
-4.24
-10.14
-15.83
-21.71
-28.41
-36.53
-46.19
-56.81
-67.00
-74.84
-78.36
-76.19
-68.01
-54.70
-38.15
-20.62
-4.14
9.98
21.29
29.98
36.51
41.26
44.46
46.18
46.54
45.80
44.33
42.46
40.40
38.20
35.84
33.43
31.16
29.31
28.01
27.06
25.94
23.95
20.53
15.51
9.23
2.39
-4.19
-9.89
-14.57
-18.52
-22.44
-27.20
-33.50
-41.60
-51.03
-60.55
-68.28
-72.21
-70.82
-63.62
-51.37
-35.93
-19.56
-4.28
8.73
19.21
27.53
34.22
39.56
43.50
45.77
46.29
45.33
43.52
41.60
40.11
39.15
38.44
37.56
36.19
34.39
32.49
30.85
29.60
28.44
26.71
23.70
19.04
12.89
5.93
-0.91
-6.80
-11.39
-14.84
-17.76
-20.92
-25.01
-30.49
-37.47
-45.61
-54.03
-61.31
-65.69
-65.52
-59.81
-48.64
-33.26
-15.70
1.80
17.52
30.56
40.74
48.35
53.75
57.12
58.53
58.13
56.31
53.71
51.02
48.83
47.36
46.52
45.97
45.37
44.44
43.11
41.34
39.19
36.64
33.62
29.93
25.33
19.57
12.53
4.24
-5.06
-15.05
-25.44
-36.16
-47.28
-58.99
-71.24
-83.52
-94.72
-103.19
-107.12
-105.10
-96.66
-82.49
-64.32
-44.51
-25.31
-8.36
5.65
16.78
25.51
32.38
37.71
41.57
43.91
44.74
44.19
42.53
40.08
37.23
34.30
31.56
29.15
27.07
25.13
23.00
20.34
16.91
12.65
7.66
2.19
-3.51
-9.30
-15.13
-21.12
-27.53
-34.69
-42.96
-52.45
-62.83
-73.07
-81.48
-86.08
-85.16
-77.95
-65.00
-48.12
-29.84
-12.65
1.65
12.36
19.77
24.74
28.22
30.82
32.74
33.80
33.76
32.56
30.43
27.85
25.37
23.37
21.93
20.85
19.82
18.52
16.72
14.28
11.03
6.86
1.69
-4.34
-10.93
-17.64
-24.11
-30.20
-36.20
-42.68
-50.25
-59.13
-68.83
-77.92
-84.40
-86.18
-81.88
-71.37
-55.90
-37.71
-19.27
-2.57
11.33
22.31
30.75
37.17
41.84
44.81
46.04
45.64
43.95
41.47
38.68
35.95
33.50
31.43
29.86
28.91
28.61
28.79
28.95
28.39
26.39
22.49
16.72
9.61
1.95
-5.47
-12.13
-18.00
-23.49
-29.30
-36.22
-44.74
-54.78
-65.45
-75.05
-81.43
-82.57
-77.27
-65.71
-49.37
-30.68
-12.18
4.19
17.47
27.66
35.28
40.93
44.94
47.36
48.19
47.56
45.88
43.69
41.54
39.73
38.33
37.19
36.17
35.18
34.18
33.10
31.66
29.47
26.12
21.39
15.40
8.59
1.58
-5.11
-11.19
-16.84
-22.52
-28.96
-36.83
-46.47
-57.48
-68.60
-77.85
-82.94
-82.06
-74.44
-60.80
-43.07
-23.82
-5.45
10.43
23.23
33.14
40.65
46.16
49.79
51.47
51.23
49.32
46.26
42.78
39.53
36.94
35.16
34.07
33.41
32.95
32.41
31.50
29.92
27.34
23.50
18.37
12.16
5.32
-1.61
-8.20
-14.31
-20.14
-26.27
-33.43
-42.25
-52.82
-64.42
-75.40
-83.47
-86.38
-82.67
-72.25
-56.49
-37.75
-18.61
-1.11
13.61
25.31
34.25
40.81
45.30
47.92
48.93
48.66
47.53
45.88
43.91
41.67
39.20
36.55
33.94
31.62
29.77
28.38
27.18
25.71
23.45
20.03
15.26
9.31
2.59
-4.36
-11.01
-17.15
-22.92
-28.87
-35.80
-44.42
-54.92
-66.66
-78.10
-87.01
-91.16
-88.96
-80.05
-65.49
-47.41
-28.38
-10.60
4.58
16.84
26.54
34.30
40.61
45.62
49.29
51.60
52.70
52.94
52.76
52.45
52.16
51.86
51.42
50.78
49.97
49.07
48.14
47.08
45.58
43.15
39.33
33.88
26.94
19.06
11.03
3.60
-2.77
-8.11
-12.92
-17.93
-23.96
-31.53
-40.65
-50.66
-60.24
-67.63
-71.13
-69.63
-63.04
-52.38
-39.38
-25.99
-13.75
-3.48
4.72
11.09
15.94
19.42
21.55
22.38
22.15
21.28
20.25
19.42
18.88
18.51
18.10
17.59
17.11
16.90
17.08
17.48
17.55
16.56
13.91
9.38
3.29
-3.64
-10.53
-16.75
-22.05
-26.72
-31.39
-36.81
-43.63
-52.04
-61.63
-71.18
-78.90
-82.70
-80.88
-72.67
-58.65
-40.60
-21.01
-2.34
13.69
26.35
35.75
42.53
47.36
50.69
52.72
53.48
52.98
51.38
49.01
46.33
43.80
41.77
40.41
39.64
39.23
38.80
37.91
36.14
33.16
28.76
22.96
15.98
8.28
0.33
-7.45
-14.91
-22.19
-29.75
-38.16
-47.87
-58.82
-70.17
-80.25
-86.87
-87.99
-82.40
-70.34
-53.44
-34.25
-15.42
1.05
14.24
24.16
31.39
36.59
40.16
42.33
43.28
43.26
42.60
41.60
40.40
38.93
37.08
34.82
32.34
30.01
28.19
27.00
26.18
25.13
23.14
19.61
14.36
7.70
0.28
-7.12
-13.92
-19.96
-25.59
-31.51
-38.56
-47.41
-58.07
-69.71
-80.59
-88.33
-90.67
-86.18
-74.89
-58.29
-38.87
-19.28
-1.51
13.42
25.39
34.71
41.72
46.64
49.58
50.77
50.60
49.61
48.25
46.82
45.34
43.69
41.73
39.41
36.86
34.35
32.20
30.55
29.28
27.97
25.99
22.76
17.99
11.87
4.97
-1.96
-8.34
-13.98
-19.14
-24.49
-30.77
-38.62
-48.25
-59.19
-70.22
-79.47
-84.80
-84.44
-77.58
-64.73
-47.61
-28.65
-10.18
6.11
19.50
29.99
38.00
43.92
47.96
50.26
51.04
50.68
49.72
48.63
47.66
46.79
45.76
44.38
42.58
40.56
38.61
36.93
35.45
33.80
31.40
27.77
22.69
16.35
9.32
2.29
-4.13
-9.68
-14.53
-19.35
-24.97
-32.22
-41.51
-52.50
-63.94
-73.74
-79.47
-79.12
-71.82
-58.21
-40.34
-20.96
-2.68
12.82
24.98
34.14
41.00
46.06
49.54
51.41
51.67
50.55
48.54
46.22
44.06
42.25
40.69
39.18
37.51
35.60
33.47
31.09
28.25
24.57
19.59
13.01
4.91
-4.23
-13.63
-22.53
-30.48
-37.42
-43.72
-50.08
-57.25
-65.80
-75.76
-86.36
-95.97
-102.38
-103.47
-97.92
-85.80
-68.64
-48.96
-29.44
-12.08
2.13
13.20
21.73
28.33
33.36
36.85
38.71
38.94
37.85
35.96
33.98
32.48
31.78
31.84
32.38
32.92
33.05
32.46
31.03
28.70
25.47
21.23
15.81
9.04
0.90
-8.48
-18.85
-29.91
-41.35
-52.78
-63.43
-72.10
-77.12
-76.87
-70.30
-57.52
-39.98
-20.07
-0.42
16.90
30.82
41.20
48.56
53.47
56.28
57.11
55.98
53.04
48.72
43.65
38.53
33.96
30.32
27.64
25.70
24.04
22.18
19.70
16.38
12.23
7.40
2.07
-3.69
-9.85
-16.50
-23.73
-31.74
-40.76
-50.97
-62.28
-74.03
-84.84
-92.78
-95.90
-92.87
-83.57
-69.19
-51.89
-34.03
-17.56
-3.50
7.95
17.08
24.24
29.57
33.04
34.66
34.70
33.76
32.53
31.55
31.01
30.75
30.42
29.77
28.79
27.63
26.43
25.07
23.11
19.98
15.24
8.81
1.07
-7.30
-15.56
-23.28
-30.47
-37.59
-45.44
-54.84
-66.40
-80.11
-95.16
-109.86
-121.90
-128.92
-129.18
-122.21
-109.03
-91.84
-73.43
-56.28
-41.96
-30.85
-22.42
-15.69
-9.75
-4.12
1.33
6.46
11.17
15.57
19.92
24.46
29.22
33.94
38.18
41.54
43.88
45.30
46.07
46.34
46.00
44.69
42.05
37.92
32.58
26.68
21.00
16.06
11.94
8.13
3.77
-2.13
-10.30
-20.87
-33.16
-45.65
-56.21
-62.63
-63.27
-57.60
-46.45
-31.78
-16.03
-1.36
10.88
20.37
27.55
33.09
37.51
41.01
43.52
45.04
45.75
46.10
46.56
47.49
48.96
50.85
52.99
55.30
57.82
60.58
63.34
65.56
66.51
65.59
62.65
58.15
52.96
47.98
43.81
40.47
37.54
34.37
30.34
25.15
18.91
12.25
6.33
2.75
3.26
9.33
21.64
39.76
62.20
86.88
111.72
135.20
156.53
175.39
191.46
203.98
211.73
213.51
208.76
198.13
183.53
167.66
153.13
141.63
133.52
127.92
123.25
117.84
110.39
100.14
86.85
70.72
52.33
32.62
12.73
-6.18
-23.22
-37.98
-50.60
-61.71
-72.21
-83.03
-94.79
-107.51
-120.33
-131.60
-139.24
-141.34
-136.95
-126.45
-111.59
-94.90
-78.94
-65.59
-55.72
-49.34
-45.88
-44.68
-45.24
-47.23
-50.47
-54.68
-59.45
-64.17
-68.15
-70.77
-71.63
-70.70
-68.31
-65.03
-61.52
-58.39
-56.11
-54.98
-55.19
-56.75
-59.61
-63.58
-68.47
-74.15
-80.60
-88.02
-96.70
-106.79
-118.01
-129.42
-139.32
-145.56
-146.08
-139.62
-126.21
-107.29
-85.27
-62.89
-42.41
-25.15
-11.42
-0.87
7.13
13.01
16.93
18.86
18.82
17.03
14.00
10.41
6.92
3.99
1.76
0.03
-1.58
-3.59
-6.46
-10.56
-16.05
-22.93
-31.00
-39.95
-49.42
-59.22
-69.32
-79.99
-91.72
-105.05
-120.19
-136.68
-153.18
-167.61
-177.70
-181.91
-180.05
-173.42
-164.43
-155.48
-148.12
-142.59
-138.01
-133.02
-126.16
-116.29
-102.65
-85.07
-64.06
-40.97
-17.73
3.73
22.15
37.34
49.98
60.99
70.91
79.59
86.48
91.19
93.82
94.95
95.21
94.84
93.51
90.52
85.27
77.53
67.64
56.52
45.52
36.19
29.98
28.04
30.86
38.13
48.77
61.21
73.76
85.08
94.40
101.45
106.26
108.85
109.11
106.86
102.17
95.47
87.67
79.95
73.31
68.28
64.66
61.69
58.50
54.46
49.54
44.17
38.92
34.13
29.66
24.96
19.38
12.47
4.16
-5.28
-15.42
-25.69
-35.35
-43.39
-48.53
-49.51
-45.53
-36.62
-23.71
-8.44
7.38
22.30
35.44
46.48
55.42
62.27
66.96
69.40
69.63
67.98
65.11
61.86
59.00
56.93
55.56
54.36
52.64
49.92
46.12
41.62
36.98
32.61
28.50
24.20
18.99
12.23
3.65
-6.44
-17.17
-27.23
-35.11
-39.46
-39.39
-34.71
-26.00
-14.38
-1.28
11.94
24.25
34.93
43.57
49.89
53.72
55.00
53.91
50.91
46.76
42.31
38.31
35.15
32.80
30.82
28.70
26.02
22.70
19.04
15.47
12.29
9.48
6.60
2.95
-2.17
-9.20
-18.06
-28.08
-37.99
-46.19
-51.03
-51.26
-46.36
-36.75
-23.68
-8.88
5.87
19.18
30.25
38.84
45.03
48.99
50.84
50.66
48.62
45.15
40.93
36.74
33.23
30.67
28.85
27.25
25.23
22.40
18.74
14.59
10.42
6.57
3.06
-0.41
-4.37
-9.38
-15.85
-23.94
-33.34
-43.28
-52.46
-59.24
-61.96
-59.42
-51.42
-38.89
-23.73
-8.25
5.58
16.67
24.89
30.78
35.02
37.99
39.68
39.87
38.52
35.89
32.64
29.57
27.29
26.03
25.57
25.36
24.78
23.36
20.90
17.53
13.54
9.25
4.85
0.36
-4.34
-9.52
-15.44
-22.36
-30.43
-39.54
-49.09
-57.91
-64.36
-66.75
-63.96
-55.83
-43.38
-28.46
-13.20
0.67
12.16
21.01
27.50
32.00
34.78
35.91
35.47
33.62
30.72
27.29
23.88
20.91
18.58
16.81
15.34
13.79
11.83
9.28
6.16
2.63
-1.09
-4.89
-8.78
-12.96
-17.71
-23.34
-30.03
-37.72
-46.01
-54.02
-60.47
-63.86
-62.92
-57.07
-46.72
-33.17
-18.31
-3.99
8.49
18.52
26.15
31.64
35.25
37.01
36.84
34.79
31.21
26.79
22.41
18.97
17.05
16.77
17.73
19.21
20.38
20.67
19.84
18.01
15.46
12.43
9.00
5.04
0.41
-5.03
-11.34
-18.54
-26.56
-35.13
-43.59
-50.74
-55.09
-55.19
-50.30
-40.67
-27.63
-13.16
0.78
12.79
22.27
29.33
34.35
37.71
39.55
39.88
38.74
36.38
33.24
29.93
27.01
24.84
23.50
22.83
22.51
22.21
21.64
20.58
18.95
16.69
13.85
10.47
6.66
2.58
-1.68
-6.05
-10.68
-15.95
-22.31
-30.09
-39.06
-48.30
-56.17
-60.85
-60.92
-55.91
-46.52
-34.37
-21.40
-9.29
0.96
9.05
15.14
19.50
22.33
23.79
24.02
23.28
21.92
20.33
18.85
17.70
17.00
16.75
16.87
17.17
17.37
17.09
16.00
13.94
10.94
7.29
3.40
-0.42
-4.01
-7.46
-11.03
-15.04
-19.76
-25.39
-31.88
-38.94
-45.80
-51.28
-53.94
-52.48
-46.19
-35.36
-21.24
-5.68
9.56
23.31
35.35
46.17
56.54
66.94
77.35
87.19
95.72
102.38
107.12
110.37
112.81
115.02
117.08
118.56
118.56
116.22
110.98
102.92
92.76
81.55
70.50
60.61
52.63
46.93
43.53
41.93
41.04
39.33
35.12
27.21
15.46
1.15
-13.15
-24.24
-29.20
-26.37
-15.81
0.59
19.75
38.14
52.80
61.93
65.13
63.16
57.35
49.09
39.36
28.75
17.58
6.24
-4.73
-14.65
-22.99
-29.59
-34.64
-38.60
-41.88
-44.67
-46.89
-48.35
-48.93
-48.86
-48.65
-49.05
-50.73
-54.10
-59.25
-65.99
-74.00
-82.88
-92.07
-100.66
-107.28
-110.15
-107.66
-98.90
-84.27
-65.51
-45.27
-26.29
-10.55
1.17
9.20
14.46
17.85
19.80
20.27
18.98
15.81
11.03
5.31
-0.49
-5.58
-9.58
-12.48
-14.62
-16.41
-18.18
-20.14
-22.29
-24.64
-27.25
-30.26
-33.84
-38.12
-43.11
-48.73
-54.90
-61.55
-68.75
-76.53
-84.67
-92.54
-98.96
-102.52
-101.98
-96.85
-87.61
-75.66
-62.85
-50.95
-41.12
-33.83
-29.01
-26.32
-25.44
-26.13
-28.10
-30.91
-33.86
-36.17
-37.20
-36.65
-34.70
-31.89
-28.83
-25.98
-23.46
-21.11
-18.64
-15.86
-12.84
-9.79
-7.07
-5.00
-3.84
-3.81
-5.10
-7.85
-12.04
-17.28
-22.68
-26.74
-27.59
-23.45
-13.20
3.19
24.57
48.91
74.04
98.30
120.98
142.25
162.67
182.56
201.48
218.16
230.67
236.97
235.47
225.48
207.39
182.68
153.53
122.38
91.53
62.75
37.27
15.75
-1.45
-14.29
-22.98
-28.15
-30.85
-32.43
-34.31
-37.57
-42.82
-50.04
-58.83
-68.43
-77.93
-86.31
-92.50
-95.60
-95.16
-91.39
-85.26
-78.15
-71.51
-66.22
-62.52
-60.02
-58.18
-56.69
-55.63
-55.33
-56.02
-57.52
-59.19
-60.15
-59.68
-57.59
-54.34
-50.86
-48.16
-46.88
-47.09
-48.31
-49.85
-51.12
-51.95
-52.55
-53.38
-54.92
-57.47
-61.13
-65.82
-71.33
-77.23
-82.75
-86.76
-87.92
-85.03
-77.44
-65.30
-49.58
-31.79
-13.59
3.59
18.76
31.35
41.18
48.30
52.96
55.61
56.91
57.66
58.69
60.65
63.78
67.77
71.88
75.03
76.25
74.94
70.99
64.74
56.75
47.52
37.32
26.06
13.50
-0.56
-16.01
-32.19
-47.85
-61.31
-70.75
-74.65
-72.22
-63.66
-50.15
-33.62
-16.24
0.04
13.85
24.52
32.04
36.81
39.48
40.70
41.02
40.80
40.18
39.09
37.31
34.68
31.20
27.10
22.72
18.41
14.33
10.38
6.35
1.96
-2.87
-8.07
-13.46
-18.87
-24.31
-29.89
-35.87
-42.52
-50.12
-58.82
-68.57
-78.88
-88.68
-96.38
-100.10
-98.32
-90.43
-77.03
-59.91
-41.49
-24.08
-9.32
2.07
10.26
15.89
19.64
21.99
23.15
23.15
22.06
20.14
17.82
15.65
14.13
13.54
13.88
14.87
16.01
16.71
16.41
14.61
11.06
5.76
-0.99
-8.60
-16.42
-23.85
-30.55
-36.49
-41.97
-47.46
-53.42
-60.02
-66.87
-72.94
-76.71
-76.55
-71.35
-60.98
-46.49
-29.81
-13.23
1.40
13.09
21.80
28.13
32.81
36.33
38.79
40.08
40.11
39.03
37.26
35.38
33.89
33.02
32.70
32.58
32.20
31.12
29.06
25.90
21.68
16.62
10.94
4.84
-1.52
-8.06
-14.78
-21.76
-29.20
-37.35
-46.36
-56.05
-65.62
-73.55
-77.94
-77.08
-70.11
-57.54
-41.15
-23.43
-6.77
7.30
18.30
26.57
32.77
37.40
40.63
42.36
42.55
41.28
38.89
35.79
32.30
28.64
24.99
21.55
18.53
16.07
14.05
12.05
9.50
5.95
1.39
-3.68
-8.43
-12.08
-14.33
-15.58
-16.89
-19.73
-25.52
-35.19
-48.71
-64.83
-81.11
-94.36
-101.45
-100.26
-90.45
-73.77
-53.70
-34.40
-19.46
-10.77
-8.04
-9.26
-11.59
-12.63
-11.11
-7.12
-1.58
4.40
10.15
15.49
20.54
25.33
29.66
33.15
35.55
36.93
37.69
38.26
38.83
39.13
38.50
36.23
31.87
25.60
18.20
10.78
4.33
-0.77
-4.95
-9.33
-15.33
-24.04
-35.59
-48.87
-61.62
-71.00
-74.46
-70.60
-59.62
-43.27
-24.18
-5.01
12.29
26.84
38.56
47.90
55.29
60.97
64.99
67.38
68.26
67.86
66.48
64.33
61.59
58.39
54.96
51.59
48.60
46.16
44.19
42.29
39.84
36.28
31.22
24.69
17.08
8.96
0.97
-6.46
-13.19
-19.44
-25.77
-32.96
-41.71
-52.21
-63.89
-75.17
-83.72
-87.12
-83.59
-72.78
-55.93
-35.59
-14.76
4.06
19.48
31.33
40.26
47.11
52.37
56.08
58.01
58.03
56.41
53.77
50.97
48.70
47.35
46.90
47.02
47.24
47.11
46.22
44.25
41.03
36.55
30.98
24.62
17.88
11.14
4.63
-1.68
-8.15
-15.38
-24.01
-34.36
-46.01
-57.65
-67.19
-72.26
-71.03
-62.88
-48.72
-30.70
-11.55
6.32
21.39
33.16
41.88
48.10
52.27
54.63
55.31
54.50
52.58
50.04
47.39
44.96
42.93
41.26
39.94
38.88
38.02
37.17
35.96
33.91
30.48
25.36
18.63
10.82
2.73
-4.86
-11.46
-17.13
-22.43
-28.21
-35.29
-44.06
-54.19
-64.50
-73.09
-77.79
-76.72
-68.96
-54.96
-36.52
-16.25
3.18
19.76
32.57
41.73
47.93
52.01
54.51
55.72
55.82
55.03
53.72
52.29
51.00
49.93
48.95
47.97
46.93
45.92
45.00
44.09
42.82
40.59
36.76
30.88
22.91
13.27
2.76
-7.68
-17.35
-26.02
-34.02
-42.17
-51.38
-62.15
-74.09
-85.76
-94.86
-98.93
-96.12
-85.92
-69.37
-48.78
-26.99
-6.55
10.87
24.65
34.93
42.27
47.22
50.18
51.47
51.35
50.20
48.41
46.34
44.19
42.01
39.72
37.25
34.63
31.98
29.43
26.97
24.35
21.16
16.96
11.53
4.97
-2.30
-9.73
-16.91
-23.66
-30.20
-37.01
-44.76
-53.87
-64.28
-75.15
-84.80
-91.02
-91.73
-85.69
-73.06
-55.44
-35.35
-15.51
2.01
16.16
26.91
34.82
40.55
44.53
46.84
47.33
45.95
42.90
38.77
34.35
30.44
27.49
25.58
24.31
23.11
21.40
18.77
15.02
10.05
3.83
-3.65
-12.27
-21.75
-31.57
-41.18
-50.13
-58.32
-66.13
-74.20
-83.04
-92.48
-101.35
-107.59
-108.85
-103.36
-90.65
-71.83
-49.21
-25.55
-3.16
16.56
33.17
46.77
57.57
65.59
70.74
73.01
72.69
70.44
67.07
63.37
59.81
56.63
53.84
51.41
49.30
47.42
45.51
43.14
39.85
35.32
29.57
22.97
16.07
9.35
3.04
-2.94
-8.91
-15.31
-22.62
-31.10
-40.71
-50.74
-59.83
-66.06
-67.46
-62.72
-51.75
-35.89
-17.54
0.65
16.60
29.30
38.78
45.68
50.67
54.11
56.06
56.46
55.46
53.43
50.91
48.34
45.95
43.69
41.46
39.26
37.20
35.49
34.20
33.07
31.54
28.98
24.87
19.18
12.34
5.09
-1.82
-8.04
-13.69
-19.39
-25.99
-34.22
-44.36
-55.92
-67.56
-77.25
-82.67
-81.99
-74.43
-60.65
-42.60
-22.91
-4.10
12.12
25.06
34.84
41.98
46.96
50.08
51.47
51.36
50.12
48.24
46.12
44.00
41.84
39.55
37.11
34.72
32.69
31.24
30.26
29.28
27.56
24.39
19.38
12.63
4.62
-3.94
-12.37
-20.20
-27.27
-33.77
-40.21
-47.36
-55.92
-66.11
-77.21
-87.51
-94.55
-95.93
-90.16
-77.31
-59.07
-38.12
-17.28
1.28
16.44
28.06
36.53
42.40
46.13
48.08
48.58
47.98
46.64
44.79
42.58
40.10
37.48
35.01
33.08
32.07
32.13
33.02
34.11
34.60
33.77
31.30
27.33
22.36
17.01
11.66
6.36
0.79
-5.59
-13.37
-23.00
-34.63
-47.81
-61.34
-73.27
-81.30
-83.41
-78.56
-67.24
-51.32
-33.50
-16.40
-1.86
9.36
17.45
23.07
26.89
29.35
30.66
30.91
30.18
28.65
26.60
24.39
22.38
20.90
20.12
19.97
20.21
20.47
20.32
19.45
17.63
14.78
10.90
6.14
0.78
-4.84
-10.38
-15.69
-20.95
-26.68
-33.55
-41.98
-51.76
-61.81
-70.23
-74.81
-73.71
-66.09
-52.54
-34.81
-15.36
3.42
19.79
32.99
43.10
50.72
56.47
60.73
63.51
64.71
64.29
62.48
59.81
56.84
54.01
51.48
49.20
46.98
44.70
42.35
39.95
37.39
34.41
30.56
25.46
18.97
11.30
2.97
-5.37
-13.19
-20.30
-26.94
-33.73
-41.47
-50.79
-61.72
-73.40
-84.03
-91.29
-92.96
-87.74
-75.76
-58.64
-38.95
-19.40
-2.04
12.11
22.99
31.07
36.91
40.83
43.04
43.71
43.15
41.82
40.16
38.48
36.86
35.26
33.65
32.08
30.70
29.61
28.73
27.65
25.77
22.45
17.28
10.30
2.11
-6.39
-14.25
-20.83
-26.03
-30.37
-34.83
-40.55
-48.35
-58.34
-69.63
-80.39
-88.22
-90.90
-87.09
-76.79
-61.37
-43.13
-24.49
-7.48
6.79
18.02
26.42
32.45
36.48
38.77
39.47
38.81
37.12
34.85
32.46
30.34
28.65
27.38
26.33
25.25
23.92
22.16
19.83
16.79
12.91
8.14
2.54
-3.65
-10.12
-16.55
-22.74
-28.78
-35.03
-42.15
-50.77
-61.13
-72.70
-83.99
-92.78
-96.70
-94.07
-84.55
-69.40
-51.02
-32.24
-15.44
-1.95
8.04
15.06
19.93
23.27
25.34
26.21
25.93
24.72
22.99
21.21
19.76
18.81
18.25
17.87
17.43
16.79
15.81
14.41
12.37
9.43
5.36
0.14
-5.98
-12.49
-18.79
-24.45
-29.41
-34.08
-39.20
-45.53
-53.43
-62.54
-71.58
-78.61
-81.51
-78.69
-69.67
-55.26
-37.32
-18.17
0.15
16.28
29.64
40.20
48.21
53.90
57.49
59.27
59.60
58.95
57.77
56.41
55.02
53.67
52.34
51.04
49.82
48.68
47.62
46.46
44.93
42.65
39.25
34.47
28.30
21.02
13.14
5.28
-2.09
-8.78
-14.98
-21.25
-28.34
-36.84
-46.85
-57.63
-67.59
-74.59
-76.55
-72.18
-61.53
-45.97
-27.83
-9.61
6.76
20.27
30.81
38.72
44.47
48.30
50.33
50.69
49.67
47.74
45.41
43.02
40.69
38.33
35.87
33.36
31.02
29.10
27.66
26.46
24.96
22.51
18.68
13.41
7.04
0.20
-6.50
-12.69
-18.41
-24.11
-30.49
-38.22
-47.63
-58.41
-69.45
-79.01
-85.02
-85.74
-80.25
-68.83
-52.94
-34.76
-16.57
-0.16
13.56
24.46
32.93
39.40
44.13
47.12
48.35
47.95
46.37
44.26
42.25
40.72
39.71
39.03
38.41
37.69
36.81
35.71
34.19
31.93
28.55
23.86
17.93
11.17
4.21
-2.41
-8.38
-13.83
-19.34
-25.75
-33.86
-44.00
-55.68
-67.44
-77.09
-82.29
-81.22
-73.26
-59.19
-41.00
-21.22
-2.15
14.62
28.44
39.31
47.56
53.49
57.27
59.01
58.93
57.43
54.98
52.06
48.98
45.88
42.82
39.87
37.16
34.82
32.81
30.88
28.59
25.41
21.02
15.40
8.87
1.93
-4.95
-11.51
-17.77
-23.98
-30.55
-38.00
-46.75
-56.88
-67.85
-78.34
-86.36
-89.75
-86.92
-77.45
-62.41
-43.96
-24.70
-6.91
8.12
20.01
29.07
35.77
40.46
43.27
44.29
43.75
42.09
39.90
37.68
35.65
33.85
32.14
30.49
28.98
27.80
26.95
26.24
25.13
23.01
19.38
14.12
7.54
0.24
-7.11
-14.00
-20.27
-26.16
-32.19
-39.03
-47.22
-56.83
-67.24
-77.04
-84.31
-87.08
-84.01
-74.81
-60.50
-43.01
-24.63
-7.35
7.59
19.75
29.22
36.33
41.37
44.57
46.18
46.55
46.17
45.53
45.00
44.68
44.40
43.88
42.85
41.24
39.20
37.04
35.08
33.39
31.71
29.52
26.24
21.50
15.41
8.53
1.58
-4.86
-10.68
-16.36
-22.75
-30.75
-40.85
-52.78
-65.42
-76.94
-85.19
-88.28
-85.11
-75.75
-61.43
-44.20
-26.33
-9.72
4.47
15.84
24.50
30.80
35.08
37.58
38.56
38.32
37.15
35.38
33.27
31.00
28.78
26.81
25.31
24.35
23.81
23.34
22.41
20.54
17.37
12.85
7.17
0.71
-6.10
-12.79
-19.05
-24.76
-30.08
-35.55
-41.86
-49.61
-58.88
-68.85
-77.78
-83.42
-83.71
-77.51
-65.13
-48.20
-29.21
-10.65
5.66
18.94
29.27
37.22
43.33
47.84
50.72
51.87
51.39
49.69
47.36
44.95
42.76
40.82
38.99
37.21
35.58
34.34
33.52
32.83
31.56
28.89
24.30
17.82
10.17
2.41
-4.48
-9.98
-14.21
-17.80
-21.61
-26.44
-32.75
-40.47
-48.93
-56.86
-62.55
-64.30
-60.89
-52.09
-38.80
-22.84
-6.39
8.68
21.24
31.00
38.25
43.47
47.01
49.00
49.47
48.52
46.50
43.93
41.39
39.33
37.87
36.84
35.89
34.78
33.44
31.98
30.53
28.95
26.80
23.44
18.32
11.35
2.96
-6.03
-14.75
-22.65
-29.76
-36.58
-43.92
-52.50
-62.66
-74.05
-85.52
-95.30
-101.33
-101.84
-95.94
-83.94
-67.37
-48.42
-29.41
-12.12
2.49
14.20
23.28
30.15
35.15
38.51
40.38
40.98
40.56
39.47
38.01
36.43
34.90
33.52
32.35
31.39
30.53
29.50
27.92
25.39
21.58
16.40
10.04
2.91
-4.44
-11.51
-18.00
-23.89
-29.53
-35.58
-42.80
-51.64
-61.95
-72.62
-81.71
-86.93
-86.38
-79.27
-66.24
-49.17
-30.56
-12.75
2.73
15.31
25.19
32.89
38.91
43.45
46.52
48.05
48.06
46.77
44.56
41.89
39.23
36.91
35.10
33.75
32.68
31.61
30.15
27.92
24.61
20.08
14.41
7.96
1.25
-5.19
-11.02
-16.22
