1543520081.00
64.000000
-0.00
-0.00
-0.00
-0.00
-0.00
-0.00
-0.00
-0.00
-0.00
-0.00
0.00
0.01
0.01
-0.00
-0.03
-0.05
-0.05
0.00
0.13
0.36
0.66
1.01
1.37
1.72
2.06
2.40
2.79
3.24
3.80
4.42
5.06
5.66
6.20
6.68
7.15
7.68
8.31
9.14
10.09
11.04
11.88
12.56
13.14
13.76
14.65
15.96
17.91
20.32
22.90
25.38
27.58
29.57
31.68
34.32
37.81
42.54
48.15
54.10
59.83
64.97
69.58
74.14
79.34
85.71
93.76
103.00
112.62
121.73
129.77
136.75
143.30
150.75
157.77
166.64
177.95
191.79
206.97
220.57
228.25
225.36
208.53
176.87
132.76
80.05
23.07
-34.94
-92.44
-149.16
-205.23
-260.37
-313.74
-363.87
-409.83
-450.91
-486.50
-515.74
-537.23
-549.22
-549.96
-538.37
-514.21
-478.67
-433.88
-382.45
-327.02
-269.84
-212.63
-156.66
-102.95
-52.37
-5.90
35.58
71.43
101.35
125.50
144.38
158.69
169.15
176.37
180.75
182.57
182.07
179.50
175.23
169.65
163.17
156.14
148.81
141.31
133.72
126.07
118.40
110.79
103.30
96.00
88.92
82.11
75.58
69.33
63.38
57.73
52.38
47.34
42.58
38.09
33.88
29.97
26.39
23.16
20.28
17.71
15.40
13.30
11.40
9.68
8.19
6.97
6.03
5.37
4.91
4.58
4.29
4.00
3.71
3.51
3.50
3.76
4.29
4.96
5.59
6.00
6.11
5.96
5.81
5.94
6.59
7.75
9.17
10.44
11.15
11.10
10.44
9.67
9.42
10.14
11.84
14.07
16.00
16.80
15.93
13.34
9.60
5.46
1.46
-2.48
-6.70
-11.87
-18.33
-25.89
-33.93
-41.57
-47.94
-51.94
-51.96
-45.99
-32.67
-12.46
11.78
34.57
50.66
57.36
55.73
49.91
44.87
43.84
47.07
52.15
56.10
57.24
55.72
52.99
50.64
49.35
48.60
47.10
43.23
35.62
24.11
9.38
-7.06
-23.28
-37.61
-49.06
-56.96
-62.57
-67.34
-72.64
-79.48
-88.52
-99.41
-110.28
-117.98
-117.56
-104.77
-77.53
-37.77
7.99
49.90
77.79
84.70
69.48
37.28
-2.69
-40.49
-68.56
-83.55
-86.30
-80.20
-69.22
-56.56
-44.09
-32.91
-23.80
-17.60
-14.97
-15.84
-19.42
-24.55
-30.40
-36.82
-44.94
-56.43
-72.38
-91.62
-110.08
-121.38
-119.39
-101.24
-69.21
-30.42
5.70
31.03
41.88
39.52
28.86
15.30
2.49
-8.23
-17.02
-24.22
-29.82
-32.90
-32.74
-28.99
-22.53
-15.08
-8.36
-3.26
0.47
3.43
7.08
12.62
21.18
32.89
46.93
62.32
78.42
95.27
112.74
131.66
147.73
159.70
167.22
169.89
167.52
160.24
153.41
147.00
140.89
135.13
130.76
129.34
132.03
139.27
150.42
163.42
174.47
180.47
179.67
168.22
146.64
117.91
86.41
56.71
32.45
14.90
3.76
-3.19
-9.30
-17.53
-29.92
-46.44
-64.87
-81.86
-94.85
-102.36
-104.31
-101.36
-94.03
-83.28
-70.66
-58.46
-49.09
-44.35
-44.25
-47.33
-51.68
-55.81
-59.76
-64.82
-72.36
-82.84
-95.72
-109.89
-124.44
-139.41
-155.55
-173.98
-195.30
-218.30
-239.21
-251.78
-248.90
-225.93
-184.37
-133.63
-89.37
-67.72
-77.99
-117.79
-173.24
-224.77
-255.34
-257.06
-232.63
-191.89
-145.49
-100.08
-56.97
-14.23
30.30
76.75
123.69
169.69
214.22
256.98
296.34
327.98
345.68
343.90
320.54
278.76
226.24
172.71
126.94
94.48
76.63
70.58
70.19
67.32
54.13
25.61
-18.08
-70.75
-121.65
-159.10
-174.63
-165.95
-137.03
-95.77
-50.50
-7.38
30.56
62.58
88.70
108.91
123.09
132.00
137.80
143.65
152.34
164.41
177.26
185.91
185.21
172.48
148.91
119.22
89.37
63.91
44.40
29.28
15.62
1.29
-13.85
-28.06
-39.05
-45.49
-47.73
-47.50
-46.79
-46.77
-47.23
-46.96
-44.64
-39.79
-33.13
-26.33
-21.14
-18.44
-17.50
-15.93
-10.43
1.75
21.42
46.75
73.71
97.55
114.66
123.79
126.23
124.76
122.45
121.73
124.25
131.16
143.28
160.99
183.70
209.50
235.34
257.80
274.00
282.31
282.44
275.25
262.30
245.33
226.04
205.63
184.62
162.74
139.21
113.40
85.47
56.67
28.94
4.07
-17.24
-35.95
-54.36
-75.16
-100.14
-129.37
-160.97
-191.87
-219.15
-241.30
-259.11
-275.79
-296.17
-325.22
-365.91
-417.18
-473.19
-524.03
-558.25
-566.16
-542.96
-490.62
-418.19
-340.14
-272.95
-230.56
-220.07
-239.20
-276.97
-317.46
-345.51
-351.80
-335.05
-300.60
-256.53
-209.62
-163.09
-116.98
-69.98
-21.01
30.56
85.96
147.84
219.46
302.24
393.26
484.27
563.40
618.85
643.29
636.42
604.69
558.34
506.83
456.22
408.38
362.34
316.48
270.05
223.52
178.04
134.56
91.61
46.80
-2.10
-55.74
-111.87
-165.42
-209.41
-236.87
-242.89
-230.00
-205.54
-179.05
-158.63
-147.65
-144.66
-145.57
-146.79
-146.65
-150.68
-164.30
-188.64
-218.93
-246.21
-263.11
-268.36
-267.35
-268.02
-283.93
-324.04
-390.42
-479.26
-583.27
-695.99
-812.59
-928.19
-1002.79
-1003.48
-911.11
-732.01
-497.10
-246.25
-13.21
183.14
330.49
443.65
534.06
608.92
672.53
721.96
756.31
775.19
779.04
769.89
750.27
718.93
675.86
622.33
560.88
496.02
432.42
374.45
325.31
287.35
256.47
226.12
189.63
142.85
86.40
24.07
-38.87
-97.95
-150.64
-199.33
-248.73
-304.22
-370.07
-447.82
-536.11
-629.81
-720.55
-797.85
-852.73
-879.95
-879.75
-857.15
-819.55
-773.89
-723.47
-668.18
-606.09
-535.78
-457.84
-375.29
-291.19
-207.72
-126.00
-45.05
35.72
115.21
190.73
258.60
314.65
357.78
389.23
411.52
429.84
448.75
470.73
495.95
522.93
547.88
569.49
587.53
601.76
614.66
628.26
642.91
657.48
669.90
675.71
673.86
664.61
628.66
554.57
440.88
297.57
142.55
9.56
-93.48
-167.30
-215.72
-243.12
-254.29
-251.27
-236.39
-213.15
-185.69
-159.63
-135.26
-109.25
-77.45
-35.81
14.38
64.45
101.60
114.88
99.44
63.05
21.12
-10.74
-21.84
-10.27
18.33
55.92
95.25
129.25
152.17
157.26
138.04
93.03
28.71
-41.10
-98.70
-129.87
-129.44
-101.04
-54.42
-0.96
50.49
94.29
126.94
147.67
157.47
159.33
158.52
160.88
170.42
187.67
209.29
223.81
221.82
198.69
156.90
104.63
51.49
4.57
-32.72
-58.59
-75.21
-84.21
-87.69
-88.92
-92.39
-102.56
-121.84
-147.57
-173.17
-189.56
-186.88
-158.90
-105.82
-35.08
40.49
106.76
152.86
174.14
172.58
155.66
132.14
108.68
88.17
70.22
52.96
35.16
16.84
-1.22
-18.28
-35.01
-53.53
-76.34
-104.95
-138.99
-176.33
-214.16
-250.31
-283.78
-314.66
-343.24
-369.13
-390.86
-406.47
-414.39
-414.24
-406.92
-393.80
-375.84
-353.29
-326.20
-295.29
-262.51
-230.54
-201.62
-176.28
-152.88
-128.33
-99.48
-64.66
-24.67
17.42
57.51
92.37
121.24
146.16
170.84
198.40
229.22
260.27
286.52
303.57
310.02
308.01
301.58
293.72
284.38
270.54
248.43
216.31
176.09
132.75
92.12
58.58
33.80
16.92
5.83
-1.66
-7.17
-11.93
-17.19
-24.43
-35.02
-49.67
-67.87
-87.88
-107.36
-124.34
-137.93
-148.51
-157.19
-165.07
-172.66
-179.77
-185.80
-190.14
-192.19
-191.32
-186.70
-177.23
-161.99
-140.49
-112.65
-78.52
-38.13
7.95
57.44
105.31
143.90
164.57
160.39
128.75
72.70
0.45
-76.68
-146.92
-200.40
-230.68
-235.39
-215.98
-176.96
-124.69
-66.35
-9.00
41.15
79.49
103.80
114.96
117.02
115.67
115.69
118.21
119.41
111.76
87.55
43.06
-18.72
-88.28
-152.74
-200.45
-224.69
-225.03
-206.16
-174.72
-136.34
-93.63
-46.07
8.80
73.70
149.75
235.32
325.62
413.33
490.22
549.34
587.04
603.79
603.37
590.91
570.72
545.14
514.91
480.38
442.64
403.60
365.02
327.37
289.30
248.34
202.38
151.08
96.48
42.51
-6.25
-46.06
-75.15
-94.15
-105.75
-113.97
-123.27
-137.72
-160.10
-190.90
-227.76
-265.52
-297.42
-317.26
-321.64
-311.29
-290.61
-265.61
-241.34
-220.22
-202.08
-185.52
-169.66
-155.08
-143.37
-135.84
-132.37
-131.19
-129.62
-125.51
-118.22
-108.93
-100.18
-94.56
-93.43
-96.20
-100.43
-102.96
-101.47
-95.90
-88.91
-85.03
-89.16
-104.94
-133.83
-174.88
-224.88
-278.49
-328.46
-366.58
-385.62
-381.91
-357.66
-321.28
-284.97
-260.32
-253.61
-263.52
-282.07
-298.62
-304.42
-295.79
-274.29
-244.54
-211.13
-176.60
-141.14
-103.80
-63.90
-21.70
21.91
66.25
111.15
156.61
201.69
243.97
279.80
305.50
318.91
320.61
314.03
304.34
296.65
294.14
297.12
303.15
308.29
308.86
302.77
290.10
272.53
252.25
231.01
209.74
188.98
169.32
151.73
137.19
126.03
117.62
110.60
103.59
95.87
87.62
79.42
71.70
64.28
56.56
48.13
39.41
31.59
26.06
23.44
22.91
22.30
19.05
11.58
0.11
-13.35
-26.10
-36.14
-43.03
-47.92
-52.45
-57.65
-63.37
-68.58
-72.34
-74.57
-76.20
-78.36
-81.39
-84.23
-84.85
-81.37
-73.26
-61.81
-49.58
-39.19
-32.09
-28.18
-26.11
-24.30
-21.82
-18.65
-15.37
-12.48
-9.99
-7.47
-4.47
-1.06
2.21
4.58
5.62
5.49
4.98
5.08
6.66
10.20
15.71
22.79
30.65
38.27
44.62
48.88
50.69
50.18
47.90
44.54
40.69
36.70
32.74
28.91
25.37
22.29
19.83
18.05
16.84
16.02
15.32
14.46
13.26
11.73
10.08
8.67
7.84
7.79
8.50
9.77
11.39
13.22
15.24
17.45
19.76
21.92
23.60
24.53
24.74
24.57
24.55
25.16
26.61
28.69
30.95
32.95
34.55
35.98
37.73
40.24
43.68
47.80
52.11
56.14
59.74
63.16
66.95
71.74
78.02
86.05
95.91
107.43
120.01
132.50
143.28
150.73
153.82
152.57
148.01
141.55
134.08
125.33
113.99
98.42
77.81
52.90
25.90
-0.29
-23.13
-41.27
-54.69
-64.32
-71.53
-77.67
-83.92
-91.21
-100.17
-110.94
-123.06
-135.54
-147.21
-157.25
-165.41
-172.11
-178.05
-183.84
-189.71
-195.62
-201.35
-206.80
-211.96
-216.95
-221.98
-227.54
-234.51
-244.01
-256.77
-272.46
-289.12
-303.45
-311.81
-311.63
-302.38
-285.76
-264.84
-242.60
-220.88
-199.91
-178.85
-156.65
-132.79
-107.51
-81.50
-55.42
-29.58
-3.93
21.69
47.33
73.03
98.91
125.44
153.23
182.56
212.67
241.40
265.48
281.47
286.94
281.39
266.34
244.73
219.91
194.68
170.97
149.82
131.70
116.75
104.77
95.19
87.17
79.78
72.40
64.93
57.68
51.22
46.06
42.34
39.89
38.37
37.48
37.06
37.15
37.81
38.97
40.36
41.52
41.95
41.31
39.59
37.20
34.80
33.12
32.67
33.59
35.58
37.93
39.80
40.44
39.58
37.66
35.82
35.53
37.94
43.13
49.90
56.03
59.21
58.01
52.45
43.86
34.20
25.15
17.60
11.63
6.87
2.88
-0.71
-4.37
-8.65
-14.09
-20.88
-28.51
-35.80
-41.31
-44.08
-44.14
-42.61
-41.12
-41.04
-42.76
-45.59
-48.23
-49.61
-49.41
-48.23
-47.02
-46.48
-46.60
-46.82
-46.49
-45.48
-44.30
-43.76
-44.39
-45.98
-47.60
-48.10
-46.75
-43.60
-39.42
-35.19
-31.61
-28.83
-26.52
-24.26
-21.78
-19.10
-16.51
-14.31
-12.75
-11.86
-11.51
-11.33
-10.83
-9.53
-7.14
-3.69
0.49
4.78
8.61
11.57
13.54
14.62
15.04
14.97
14.49
13.58
12.14
10.13
7.60
4.80
2.14
0.07
-1.01
-0.95
0.18
2.03
4.19
6.23
7.76
8.47
8.22
7.10
5.52
4.13
3.69
4.81
7.67
11.90
16.76
21.34
24.91
27.06
27.70
26.87
24.82
21.79
17.99
13.64
8.92
3.97
-1.15
-6.46
-12.09
-17.71
-23.00
-27.81
-32.20
-36.42
-40.81
-45.52
-50.43
-55.25
-58.76
-59.99
-58.45
-54.26
-47.78
-39.18
-28.28
-14.79
1.20
20.12
41.58
64.50
87.74
110.66
133.45
156.93
182.22
210.33
243.84
284.84
333.82
388.66
444.46
494.57
532.73
555.23
550.63
513.86
445.89
353.74
248.48
141.68
42.20
-44.73
-117.00
-174.54
-216.75
-243.86
-257.32
-259.66
-253.97
-243.70
-232.08
-221.85
-214.93
-211.19
-209.25
-207.84
-206.08
-203.65
-200.92
-198.77
-198.38
-201.14
-207.80
-219.03
-235.08
-254.64
-273.77
-286.66
-287.59
-273.40
-245.14
-207.56
-165.65
-124.87
-91.37
-68.50
-55.94
-50.95
-50.41
-52.27
-55.39
-59.02
-62.43
-64.87
-65.60
-64.48
-61.83
-58.45
-54.93
-51.30
-47.12
-41.72
-34.52
-24.97
-12.76
2.12
19.54
39.75
63.86
92.02
125.07
163.29
205.40
247.83
285.09
311.31
322.34
317.31
298.73
271.51
240.80
210.67
183.56
160.55
142.13
128.63
120.21
116.55
116.84
119.98
125.11
132.23
142.09
155.85
174.35
197.41
223.39
249.37
271.66
286.81
292.86
289.66
278.81
262.24
241.78
218.53
192.96
165.46
136.71
108.12
80.62
54.61
28.64
0.87
-30.05
-64.12
-99.65
-133.87
-163.44
-187.18
-205.69
-222.66
-242.22
-267.62
-300.31
-339.17
-380.99
-420.08
-451.86
-472.31
-480.99
-479.44
-471.10
-460.60
-451.75
-446.54
-443.18
-440.07
-419.67
-369.23
-283.33
-167.78
-38.01
88.80
190.41
266.69
322.41
361.95
385.14
390.17
378.33
351.39
313.45
269.93
227.42
188.81
154.63
122.15
88.27
50.63
8.06
-38.52
-86.93
-133.29
-175.35
-211.18
-239.82
-260.27
-271.93
-275.33
-271.88
-264.17
-254.62
-246.35
-241.33
-240.14
-241.55
-243.11
-242.08
-235.86
-222.52
-200.85
-171.39
-136.08
-98.15
-61.50
-29.71
-5.12
12.04
23.56
32.65
42.61
55.67
72.63
92.66
113.93
134.17
151.30
163.83
171.06
173.13
170.88
165.83
159.59
153.54
148.46
144.45
141.05
137.60
133.52
128.48
122.42
115.45
107.73
99.49
90.96
82.47
74.37
66.96
60.33
54.43
49.05
44.04
39.33
35.03
31.29
28.19
25.68
23.53
21.46
19.19
16.49
13.19
9.17
4.38
-1.10
-7.00
-12.89
-18.17
-22.31
-24.93
-25.88
-25.32
-23.58
-21.11
-18.30
-15.47
-12.78
-10.31
-8.12
-6.26
-4.82
-3.89
-3.42
-3.28
-3.19
-2.84
-2.06
-0.83
0.67
2.11
3.19
3.69
3.58
2.97
2.11
1.21
0.43
-0.23
-0.88
-1.71
-2.95
-4.74
-7.05
-9.61
-11.98
-13.59
-13.96
-12.87
-10.44
-7.09
-3.40
0.11
3.15
5.73
8.04
10.25
12.35
14.16
15.37
15.76
15.29
14.15
12.70
11.22
9.91
8.80
7.80
6.75
5.60
4.40
3.28
2.40
1.87
1.62
1.45
1.12
0.39
-0.80
-2.40
-4.28
-6.34
-8.45
-10.49
-12.17
-13.07
-12.77
-10.99
-7.80
-3.57
1.10
5.62
9.56
12.71
14.98
16.30
16.58
15.77
13.88
11.15
7.97
4.84
2.23
0.43
-0.55
-0.87
-0.88
-0.91
-1.18
-1.78
-2.65
-3.70
-4.79
-5.90
-7.02
-8.14
-9.27
-10.36
-11.39
-12.38
-13.44
-14.70
-16.26
-18.04
-19.74
-20.92
-21.04
-19.76
-17.00
-13.02
-8.33
-3.54
0.85
4.50
7.28
9.20
10.34
10.79
10.61
9.95
8.98
7.94
7.06
6.45
6.08
5.83
5.51
5.04
4.48
3.93
3.50
3.19
2.86
2.38
1.60
0.53
-0.73
-2.08
-3.46
-4.90
-6.49
-8.25
-10.07
-11.66
-12.60
-12.51
-11.18
-8.68
-5.35
-1.67
1.90
5.06
7.66
9.66
11.05
11.74
11.66
10.83
9.40
7.67
5.98
4.60
3.68
3.21
3.06
3.08
3.11
3.01
2.69
2.10
1.28
0.27
-0.89
-2.21
-3.78
-5.68
-7.98
-10.63
-13.44
-16.07
-18.09
-19.08
-18.71
-16.84
-13.61
-9.38
-4.63
0.09
4.35
7.83
10.35
11.84
12.32
11.92
10.83
9.33
7.71
6.23
5.08
4.30
3.87
3.59
3.27
2.74
1.94
0.92
-0.18
-1.22
-2.12
-2.87
-3.57
-4.37
-5.43
-6.90
-8.81
-11.01
-13.15
-14.72
-15.22
-14.29
-11.91
-8.40
-4.28
-0.11
3.68
6.84
9.28
10.95
11.82
11.84
11.04
9.62
7.84
6.02
4.47
3.33
2.62
2.25
2.09
1.97
1.83
1.65
1.46
1.25
1.03
0.72
0.29
-0.32
-1.11
-2.10
-3.38
-5.03
-7.14
-9.58
-12.02
-13.88
-14.49
-13.38
-10.46
-6.11
-1.09
3.72
7.63
10.29
11.77
12.34
12.37
12.12
11.66
10.95
9.97
8.79
7.63
6.72
6.26
6.33
6.87
7.73
8.72
9.56
9.86
9.17
7.12
3.61
-0.97
-5.89
-10.22
-13.26
-14.73
-14.90
-14.41
-13.97
-14.10
-14.97
-16.37
-17.79
-18.64
-18.45
-17.00
-14.40
-11.03
-7.36
-3.78
-0.48
2.47
5.00
6.92
7.96
7.91
6.76
4.82
2.62
0.73
-0.43
-0.70
-0.21
0.72
1.72
2.48
2.85
2.86
2.62
2.27
1.85
1.32
0.54
-0.65
-2.38
-4.64
-7.33
-10.22
-12.97
-15.15
-16.27
-15.97
-14.10
-10.82
-6.59
-2.09
2.07
5.45
7.92
9.61
10.70
11.35
11.56
11.22
10.24
8.67
6.78
4.93
3.49
2.64
2.30
2.19
2.02
1.62
1.00
0.33
-0.25
-0.67
-1.02
-1.47
-2.18
-3.19
-4.48
-6.01
-7.76
-9.75
-11.96
-14.18
-15.98
-16.76
-16.00
-13.45
-9.30
-4.15
1.22
6.07
9.98
12.79
14.60
15.54
15.72
15.20
14.09
12.56
10.87
9.29
7.99
7.07
6.49
6.15
5.90
5.63
5.24
4.68
3.96
3.08
2.07
0.95
-0.26
-1.54
-2.86
-4.22
-5.70
-7.43
-9.55
-12.02
-14.62
-16.86
-18.14
-17.96
-16.08
-12.61
-8.04
-3.04
1.72
5.71
8.64
10.39
11.05
10.79
9.83
8.47
7.00
5.71
4.78
4.26
4.06
4.04
4.03
3.96
3.84
3.67
3.45
3.12
2.61
1.89
1.00
0.04
-0.88
-1.72
-2.53
-3.35
-4.24
-5.23
-6.34
-7.65
-9.22
-11.02
-12.83
-14.23
-14.68
-13.82
-11.53
-8.12
-4.12
-0.10
3.54
6.61
9.04
10.81
11.82
12.02
11.44
10.30
8.93
7.68
6.75
6.20
5.96
5.90
5.91
5.92
5.85
5.65
5.26
4.65
3.81
2.76
1.51
0.08
-1.49
-3.15
-4.75
-6.14
-7.21
-7.93
-8.46
-9.03
-9.92
-11.32
-13.21
-15.40
-17.46
-18.92
-19.29
-18.25
-15.73
-11.95
-7.36
-2.58
1.75
5.21
7.62
9.07
9.80
10.08
10.10
9.95
9.66
9.33
9.08
9.02
9.19
9.49
9.70
9.59
9.03
8.07
6.92
5.83
5.00
4.42
3.97
3.45
2.70
1.68
0.44
-0.91
-2.31
-3.77
-5.38
-7.16
-9.05
-10.83
-12.12
-12.56
-11.86
-9.94
-6.99
-3.42
0.24
3.51
6.09
7.91
9.14
10.03
10.74
11.31
11.63
11.54
10.98
10.04
8.91
7.84
7.01
6.46
6.09
5.71
5.15
4.36
3.43
2.54
1.85
1.41
1.10
0.70
-0.01
-1.16
-2.74
-4.64
-6.73
-8.87
-10.89
-12.55
-13.52
-13.45
-12.10
-9.42
-5.68
-1.35
2.94
6.63
9.38
11.12
12.02
12.36
12.38
12.21
11.87
11.39
10.88
10.54
10.60
11.14
12.12
13.35
14.62
15.86
17.07
18.27
19.38
20.16
20.27
19.46
17.80
15.67
13.67
12.40
12.18
12.97
14.48
16.37
18.41
20.60
23.09
25.97
29.19
32.55
35.73
38.49
40.69
42.22
43.04
43.02
42.06
40.20
37.64
34.79
32.13
30.12
29.08
29.22
30.73
33.81
38.61
44.90
51.86
58.01
61.51
60.89
55.80
47.37
37.84
29.51
23.66
20.01
17.12
13.23
7.21
-1.22
-11.90
-24.62
-39.33
-55.56
-71.93
-86.19
-96.20
-101.14
-102.14
-101.60
-101.67
-102.70
-102.96
-99.69
-91.03
-77.42
-61.70
-47.90
-39.60
-38.49
-44.18
-54.62
-67.07
-78.87
-87.83
-92.41
-91.75
-85.77
-75.09
-61.08
-45.51
-30.32
-17.32
-7.75
-2.14
-0.24
-1.21
-3.97
-7.62
-11.64
-15.94
-20.67
-25.85
-31.07
-35.48
-37.90
-37.26
-33.10
-25.74
-16.28
-6.23
3.07
10.84
17.03
22.22
27.20
32.56
38.43
44.43
49.90
54.23
57.20
58.93
59.72
59.72
58.66
56.01
51.32
44.68
36.82
28.78
21.18
13.50
4.06
-9.44
-28.87
-54.68
-85.56
-118.97
-152.12
-182.83
-209.72
-231.70
-247.17
-253.70
-248.75
-230.97
-201.37
-163.50
-122.20
-81.67
-44.00
-9.23
23.27
52.97
77.51
93.58
99.02
94.59
84.13
73.01
65.64
63.81
66.51
71.25
75.74
78.87
80.51
80.70
79.10
75.16
68.74
60.61
52.47
46.21
43.27
44.24
48.64
55.13
61.74
66.34
67.36
64.73
60.49
58.42
62.58
75.31
95.84
120.22
143.16
160.33
170.17
173.90
173.98
172.14
168.25
160.82
148.55
131.73
112.67
94.71
80.51
70.74
63.99
57.77
50.04
40.25
29.39
19.30
11.56
6.75
4.28
2.86
1.13
-1.91
-6.79
-13.82
-23.37
-35.97
-52.09
-71.69
-93.74
-116.19
-136.35
-151.62
-160.32
-162.19
-158.37
-150.90
-141.91
-132.86
-124.06
-114.75
-103.60
-89.44
-71.99
-52.30
-32.55
-15.54
-3.86
0.82
-1.86
-11.05
-24.98
-41.44
-58.13
-72.91
-84.00
-90.25
-91.22
-87.30
-79.65
-69.98
-60.10
-51.63
-45.51
-41.90
-40.16
-39.14
-37.60
-34.57
-29.56
-22.64
-14.25
-4.98
4.65
14.34
23.99
33.58
43.06
52.18
60.51
67.47
72.54
75.34
75.88
74.50
71.82
68.56
65.32
62.42
59.85
57.36
54.62
51.43
47.84
44.06
40.35
36.81
33.36
29.78
25.88
21.71
17.49
13.52
10.01
6.97
4.30
1.99
0.23
-0.54
0.16
2.59
6.53
11.27
15.80
19.19
20.90
20.90
19.58
17.50
15.06
12.38
9.39
6.01
2.41
-0.95
-3.51
-4.83
-4.90
-4.10
-3.05
-2.37
-2.36
-2.95
-3.84
-4.67
-5.26
-5.59
-5.70
-5.57
-5.03
-3.91
-2.22
-0.27
1.41
2.29
2.14
1.25
0.29
0.02
0.96
3.10
6.00
8.99
11.50
13.29
14.39
14.89
14.80
13.98
12.25
9.70
6.71
3.91
1.90
0.96
0.86
1.06
0.88
-0.09
-1.84
-3.97
-5.92
-7.28
-7.89
-7.90
-7.54
-7.05
-6.57
-6.14
-5.84
-5.75
-5.94
-6.37
-6.81
-6.89
-6.24
-4.68
-2.35
0.34
2.90
4.94
6.27
6.91
6.94
6.45
5.48
4.13
2.60
1.17
0.14
-0.38
-0.46
-0.36
-0.38
-0.75
-1.54
-2.66
-3.94
-5.23
-6.41
-7.42
-8.27
-9.03
-9.79
-10.67
-11.80
-13.23
-14.87
-16.51
-17.81
-18.42
-18.03
-16.51
-13.94
-10.63
-7.01
-3.58
-0.73
1.27
2.36
2.63
2.27
1.51
0.60
-0.24
-0.85
-1.15
-1.12
-0.82
-0.33
0.21
0.69
0.99
1.02
0.70
0.03
-0.87
-1.78
-2.44
-2.68
-2.50
-2.10
-1.79
-1.89
-2.56
-3.74
-5.16
-6.39
-6.99
-6.61
-5.13
-2.71
0.28
3.32
5.93
7.74
8.62
8.59
7.82
6.49
4.81
2.97
1.20
-0.31
-1.41
-2.10
-2.42
-2.51
-2.49
-2.46
-2.51
-2.71
-3.14
-3.83
-4.75
-5.73
-6.57
-7.06
-7.12
-6.86
-6.56
-6.55
-7.03
-8.05
-9.40
-10.72
-11.55
-11.48
-10.20
-7.65
-4.06
0.08
4.13
7.52
9.84
11.02
11.22
10.71
9.73
8.37
6.69
4.74
2.68
0.74
-0.84
-1.88
-2.37
-2.44
-2.31
-2.21
-2.30
-2.63
-3.12
-3.66
-4.16
-4.58
-4.99
-5.45
-6.02
-6.71
-7.48
-8.27
-9.08
-9.98
-10.99
-12.04
-12.85
-13.00
-12.07
-9.82
-6.37
-2.16
2.14
5.88
8.58
10.11
10.56
10.18
9.22
7.84
6.18
4.32
2.40
0.66
-0.71
-1.56
-1.90
-1.91
-1.85
-1.97
-2.38
-3.01
-3.68
-4.20
-4.44
-4.42
-4.26
-4.16
-4.30
-4.82
-5.74
-6.98
-8.34
-9.54
-10.19
-9.91
-8.50
-5.96
-2.57
1.20
4.85
7.96
10.27
11.65
12.05
11.49
9.96
7.60
4.70
1.69
-0.90
-2.64
-3.28
-2.86
-1.65
-0.11
1.28
2.17
2.43
2.19
1.73
1.32
1.05
0.81
0.37
-0.48
-1.83
-3.58
-5.49
-7.38
-9.04
-10.29
-10.85
-10.43
-8.81
-6.02
-2.43
1.35
4.65
6.96
8.12
8.21
7.46
6.12
4.36
2.33
0.25
-1.60
-2.94
-3.68
-3.93
-3.97
-4.11
-4.56
-5.28
-6.04
-6.57
-6.64
-6.28
-5.68
-5.14
-4.90
-5.03
-5.45
-6.02
-6.64
-7.31
-8.03
-8.68
-8.96
-8.40
-6.62
-3.47
0.75
5.41
9.78
13.24
15.50
16.54
16.56
15.78
14.41
12.65
10.70
8.75
7.06
5.82
5.16
5.14
5.67
6.56
7.54
8.32
8.73
8.71
8.35
7.79
7.12
6.33
5.34
4.08
2.56
0.85
-0.97
-2.83
-4.62
-6.11
-6.90
-6.49
-4.51
-0.95
3.72
8.65
12.88
15.66
16.61
15.76
13.42
10.00
5.97
1.78
-2.04
-5.00
-6.79
-7.37
-7.08
-6.47
-6.10
-6.30
-7.05
-8.07
-8.98
-9.50
-9.53
-9.14
-8.48
-7.68
-6.85
-6.10
-5.55
-5.31
-5.40
-5.78
-6.31
-6.74
-6.83
-6.28
-4.84
-2.35
1.11
5.17
9.24
12.64
14.87
15.73
15.40
14.24
12.58
10.65
8.49
6.10
3.57
1.15
-0.79
-1.97
-2.28
-1.89
-1.16
-0.51
-0.22
-0.36
-0.81
-1.32
-1.68
-1.81
-1.74
-1.62
-1.61
-1.81
-2.30
-3.09
-4.02
-4.76
-4.82
-3.69
-1.08
2.88
7.63
12.28
16.00
18.31
19.17
18.88
17.87
16.52
15.03
13.50
11.99
10.55
9.21
7.98
6.93
6.15
5.77
5.85
6.25
6.57
6.26
4.89
2.30
-1.24
-5.18
-8.96
-12.14
-14.56
-16.29
-17.49
-18.38
-19.14
-19.95
-20.88
-21.91
-22.75
-23.01
-22.31
-20.52
-17.85
-14.82
-12.00
-9.76
-8.09
-6.74
-5.32
-3.71
-2.05
-0.68
0.04
0.01
-0.58
-1.34
-1.85
-1.89
-1.53
-1.06
-0.84
-1.10
-1.78
-2.63
-3.31
-3.67
-3.81
-4.10
-4.97
-6.65
-9.09
-11.93
-14.69
-17.02
-18.71
-19.63
-19.62
-18.44
-15.84
-11.85
-6.82
-1.52
3.22
6.72
8.68
9.26
8.87
7.98
6.94
6.00
5.28
4.86
4.76
4.96
5.38
5.94
6.55
7.12
7.55
7.71
7.47
6.74
5.56
4.07
2.45
0.85
-0.70
-2.21
-3.68
-4.99
-6.00
-6.60
-6.90
-7.27
-8.11
-9.66
-11.71
-13.58
-14.36
-13.26
-10.03
-5.03
0.87
6.61
11.29
14.38
15.75
15.60
14.24
11.99
9.19
6.20
3.38
1.12
-0.27
-0.63
-0.04
1.24
2.84
4.32
5.37
5.77
5.48
4.55
3.13
1.43
-0.33
-1.94
-3.27
-4.29
-5.11
-5.91
-6.92
-8.33
-10.19
-12.30
-14.20
-15.25
-14.80
-12.45
-8.17
-2.42
4.04
10.32
15.59
19.28
21.06
20.97
19.30
16.53
13.27
10.06
7.29
5.09
3.49
2.46
1.97
2.02
2.52
3.27
3.98
4.33
4.13
3.35
2.11
0.62
-0.92
-2.38
-3.69
-4.84
-5.83
-6.72
-7.66
-8.84
-10.46
-12.53
-14.77
-16.51
-16.90
-15.17
-10.97
-4.59
3.05
10.70
17.15
21.58
23.72
23.78
22.27
19.74
16.68
13.50
10.48
7.89
5.91
4.69
4.22
4.39
4.96
5.64
6.14
6.24
5.83
4.90
3.52
1.84
-0.02
-1.89
-3.57
-4.92
-5.80
-6.23
-6.38
-6.60
-7.29
-8.71
-10.85
-13.34
-15.53
-16.65
-16.07
-13.50
-9.09
-3.39
2.78
8.53
13.13
16.16
17.57
17.57
16.53
14.80
12.64
10.24
7.80
5.54
3.72
2.56
2.11
2.25
2.68
3.10
3.25
3.04
2.50
1.76
0.94
0.16
-0.52
-1.09
-1.57
-2.02
-2.47
-2.97
-3.52
-4.14
-4.91
-5.99
-7.53
-9.56
-11.90
-14.02
-15.25
-14.91
-12.64
-8.53
-3.19
2.49
7.58
11.38
13.60
14.28
13.73
12.32
10.35
8.10
5.77
3.59
1.77
0.51
-0.08
-0.02
0.54
1.36
2.12
2.55
2.45
1.78
0.66
-0.67
-1.94
-2.95
-3.61
-3.97
-4.14
-4.33
-4.73
-5.55
-6.92
-8.86
-11.07
-13.04
-14.05
-13.47
-11.00
-6.81
-1.54
3.97
8.89
12.67
15.05
16.02
15.75
14.47
12.46
10.04
7.57
5.37
3.70
2.68
2.25
2.29
2.62
3.05
3.41
3.61
3.59
3.34
2.88
2.21
1.33
0.28
-0.86
-2.01
-3.08
-4.04
-4.93
-5.83
-6.91
-8.30
-10.08
-12.16
-14.18
-15.57
-15.65
-13.91
-10.28
-5.18
0.56
5.95
10.21
12.93
14.09
14.00
13.03
11.51
9.68
7.74
5.81
4.02
2.47
1.23
0.42
0.10
0.32
0.98
1.87
2.68
3.09
2.92
2.14
0.90
-0.56
-1.96
-3.11
-3.91
-4.40
-4.68
-4.94
-5.41
-6.28
-7.68
-9.53
-11.50
-13.04
-13.50
-12.35
-9.43
-4.98
0.33
5.64
10.13
13.26
14.82
14.87
13.69
11.57
8.86
5.90
3.10
0.83
-0.61
-1.12
-0.79
0.07
1.09
1.98
2.53
2.72
2.55
2.05
1.28
0.28
-0.83
-1.91
-2.82
-3.48
-3.90
-4.16
-4.39
-4.68
-5.16
-5.93
-7.08
-8.60
-10.26
-11.61
-12.03
-10.96
-8.15
-3.81
1.45
6.69
11.01
13.72
14.56
13.64
11.39
8.40
5.29
2.55
0.48
-0.90
-1.75
-2.34
-2.89
-3.50
-4.12
-4.62
-4.87
-4.84
-4.60
-4.36
-4.32
-4.68
-5.54
-6.87
-8.49
-10.12
-11.39
-11.92
-11.46
-10.02
-8.03
-6.28
-5.74
-7.14
-10.51
-14.94
-18.79
-20.26
-18.17
-12.52
-4.54
3.82
10.71
15.06
16.79
16.57
15.25
13.47
11.53
9.55
7.71
6.31
5.70
6.05
7.21
8.79
10.34
11.51
12.18
12.37
12.18
11.67
10.84
9.68
8.18
6.28
3.99
1.38
-1.36
-3.94
-6.07
-7.56
-8.34
-8.37
-7.51
-5.49
-2.02
2.90
8.84
14.91
20.15
23.96
26.43
28.13
29.68
31.22
32.17
31.66
29.07
24.55
19.03
13.78
9.75
7.16
5.57
4.31
2.95
1.51
0.37
-0.11
0.14
0.85
1.55
1.72
0.95
-1.06
-4.52
-9.43
-15.46
-21.78
-27.13
-30.15
-29.71
-25.38
-17.55
-7.45
3.22
12.64
19.32
22.45
22.06
18.89
14.18
9.16
4.63
0.82
-2.54
-5.85
-9.31
-12.73
-15.64
-17.61
-18.47
-18.47
-18.06
-17.65
-17.42
-17.31
-17.21
-17.09
-17.11
-17.54
-18.57
-20.26
-22.51
-25.08
-27.65
-29.79
-30.96
-30.58
-28.17
-23.60
-17.19
-9.73
-2.29
4.13
8.82
11.50
12.27
11.49
9.59
6.95
3.92
0.81
-1.99
-4.10
-5.20
-5.18
-4.28
-3.01
-1.95
-1.53
-1.75
-2.25
-2.52
-2.25
-1.48
-0.59
-0.05
-0.12
-0.79
-1.83
-2.97
-3.97
-4.62
-4.64
-3.70
-1.53
1.95
6.45
11.33
15.79
19.05
20.56
20.17
18.05
14.66
10.55
6.25
2.20
-1.26
-3.78
-5.08
-4.93
-3.37
-0.81
2.01
4.25
5.34
5.25
4.42
3.50
2.94
2.72
2.43
1.52
-0.37
-3.15
-6.28
-8.99
-10.42
-9.88
-7.05
-2.06
4.52
11.77
18.66
24.28
28.09
30.03
30.40
29.64
28.13
26.18
23.96
21.67
19.61
18.10
17.34
17.30
17.63
17.79
17.28
15.81
13.43
10.43
7.24
4.22
1.61
-0.50
-2.09
-3.23
-4.06
-4.75
-5.43
-6.04
-6.34
-5.96
-4.59
-2.20
0.86
3.97
6.49
8.00
8.44
8.06
7.20
6.12
4.90
3.48
1.86
0.13
-1.47
-2.68
-3.35
-3.50
-3.33
-3.20
-3.46
-4.39
-6.09
-8.40
-10.96
-13.34
-15.19
-16.42
-17.20
-17.91
-18.94
-20.51
-22.54
-24.72
-26.53
-27.43
-26.92
-24.73
-20.83
-15.50
-9.31
-3.03
2.57
6.84
9.44
10.29
9.55
7.53
4.60
1.18
-2.24
-5.16
-7.17
-8.06
-7.89
-7.03
-5.97
-5.19
-4.92
-5.14
-5.60
-6.03
-6.30
-6.42
-6.61
-7.13
-8.21
-9.96
-12.35
-15.11
-17.71
-19.42
-19.44
-17.16
-12.41
-5.65
2.18
9.89
16.45
21.23
24.11
25.33
25.22
24.07
22.06
19.29
15.98
12.47
9.21
6.64
5.02
4.33
4.30
4.46
4.37
3.69
2.34
0.49
-1.54
-3.45
-5.02
-6.26
-7.31
-8.42
-9.83
-11.75
-14.19
-16.95
-19.50
-21.03
-20.69
-17.85
-12.42
-4.95
3.45
11.48
18.01
22.39
24.48
24.53
22.98
20.32
17.00
13.43
9.95
6.84
4.32
2.48
1.37
0.91
0.93
1.20
1.38
1.20
0.49
-0.76
-2.39
-4.16
-5.85
-7.32
-8.53
-9.53
-10.42
-11.30
-12.30
-13.56
-15.22
-17.34
-19.69
-21.72
-22.55
-21.29
-17.37
-10.89
-2.66
6.03
13.88
19.94
23.85
25.72
25.90
24.69
22.30
18.95
14.97
10.93
7.41
4.86
3.44
2.95
2.99
3.11
3.06
2.77
2.38
2.04
1.76
1.41
0.74
-0.45
-2.16
-4.16
-6.08
-7.59
-8.50
-8.89
-9.02
-9.24
-9.90
-11.25
-13.39
-16.14
-18.95
-20.96
-21.20
-18.92
-13.95
-6.86
1.19
8.88
15.13
19.44
21.84
22.66
22.29
20.95
18.72
15.71
12.21
8.68
5.63
3.44
2.25
1.84
1.86
1.93
1.80
1.43
0.90
0.32
-0.33
-1.14
-2.23
-3.68
-5.41
-7.25
-8.98
-10.41
-11.49
-12.34
-13.15
-14.11
-15.39
-16.97
-18.69
-20.21
-21.04
-20.61
-18.44
-14.22
-8.05
-0.45
7.68
15.26
21.31
25.20
26.81
26.39
24.50
21.68
18.40
14.98
11.66
8.63
6.07
4.15
2.92
2.32
2.21
2.34
2.49
2.46
2.13
1.41
0.26
-1.31
-3.18
-5.17
-6.98
-8.34
-9.04
-9.04
-8.49
-7.71
-7.14
-7.18
-8.10
-9.83
-11.90
-13.48
-13.57
-11.36
-6.61
0.19
7.94
15.25
20.92
24.28
25.30
24.43
22.31
19.49
16.31
12.92
9.44
6.07
3.11
0.90
-0.38
-0.70
-0.33
0.33
0.82
0.78
0.09
-1.20
-2.86
-4.66
-6.44
-8.10
-9.60
-10.92
-12.02
-12.90
-13.64
-14.41
-15.42
-16.71
-18.04
-18.85
-18.39
-15.99
-11.38
-4.81
2.96
10.79
17.61
22.61
25.45
26.22
25.31
23.19
20.26
16.83
13.12
9.37
5.85
2.91
0.79
-0.40
-0.77
-0.64
-0.42
-0.44
-0.94
-1.92
-3.22
-4.60
-5.81
-6.72
-7.36
-7.83
-8.35
-9.11
-10.28
-11.93
-14.08
-16.62
-19.23
-21.38
-22.40
-21.62
-18.64
-13.51
-6.80
0.52
7.37
12.83
16.40
17.93
17.58
15.57
12.19
7.73
2.56
-2.82
-7.88
-12.13
-15.30
-17.32
-18.41
-18.91
-19.22
-19.65
-20.38
-21.42
-22.60
-23.74
-24.72
-25.52
-26.29
-27.17
-28.24
-29.38
-30.41
-31.15
-31.54
-31.58
-31.16
-29.97
-27.51
-23.35
-17.42
-10.19
-2.58
4.35
9.82
13.55
15.74
16.79
17.10
16.87
16.24
15.30
14.30
13.60
13.59
14.48
16.27
18.66
21.13
23.12
24.20
24.18
23.20
21.61
19.80
18.07
16.55
15.17
13.77
12.12
10.05
7.45
4.34
1.00
-2.05
-4.06
-4.28
-2.25
1.94
7.64
13.85
19.52
23.93
26.81
28.21
28.35
27.39
25.41
22.49
18.90
15.06
11.53
8.77
7.02
6.17
5.84
5.56
4.90
3.67
1.97
0.11
-1.59
-2.91
-3.88
-4.71
-5.69
-7.08
-9.00
-11.47
-14.42
-17.59
-20.52
-22.51
-22.81
-20.87
-16.65
-10.73
-4.14
2.06
7.09
10.72
13.10
14.52
15.21
15.21
14.47
13.00
11.02
8.86
6.93
5.55
4.80
4.55
4.51
4.32
3.76
2.79
1.58
0.39
-0.55
-1.24
-1.81
-2.55
-3.67
-5.27
-7.30
-9.68
-12.35
-15.27
-18.28
-20.99
-22.77
-22.91
-20.90
-16.68
-10.73
-3.94
2.71
8.40
12.75
15.67
17.30
17.83
17.41
16.23
14.53
12.67
11.01
9.82
9.19
8.99
9.00
8.95
8.75
8.39
7.96
7.50
6.97
6.19
5.00
3.32
1.20
-1.16
-3.50
-5.59
-7.37
-8.93
-10.48
-12.34
-14.75
-17.79
-21.26
-24.60
-26.99
-27.55
-25.70
-21.40
-15.21
-8.16
-1.36
4.36
8.68
11.77
13.99
15.65
16.77
17.22
16.81
15.54
13.73
11.86
10.42
9.65
9.49
9.61
9.67
9.47
9.05
8.65
8.50
8.66
8.95
9.04
8.48
7.08
4.89
2.23
-0.41
-2.65
-4.32
-5.50
-6.49
-7.65
-9.24
-11.43
-14.20
-17.39
-20.65
-23.39
-24.91
-24.52
-21.87
-17.08
-10.80
-3.96
2.53
8.06
12.43
15.69
17.99
19.39
19.88
19.41
18.11
16.32
14.54
13.23
12.67
12.86
13.54
14.34
14.95
15.24
15.29
15.23
15.20
15.18
15.00
14.49
13.54
12.13
10.35
8.38
6.36
4.44
2.70
1.16
-0.29
-1.83
-3.71
-6.13
-9.19
-12.74
-16.41
-19.62
-21.75
-22.26
-20.91
-17.81
-13.43
-8.46
-3.60
0.69
4.17
6.84
8.69
9.62
9.45
8.03
5.42
1.98
-1.70
-4.99
-7.40
-8.80
-9.34
-9.40
-9.32
-9.36
-9.55
-9.79
-10.06
-10.37
-10.90
-11.80
-13.15
-14.80
-16.49
-17.94
-18.99
-19.69
-20.26
-21.00
-22.18
-23.88
-25.92
-27.82
-28.83
-28.15
-25.16
-19.71
-12.26
-3.75
4.67
12.01
17.70
21.61
23.89
24.82
24.68
23.70
22.19
20.50
19.00
17.97
17.50
17.53
17.87
18.34
18.78
19.14
19.44
19.77
20.23
20.77
21.13
20.85
19.37
16.29
11.62
5.86
-0.16
-5.64
-10.07
-13.45
-16.11
-18.50
-20.87
-23.20
-25.22
-26.55
-26.82
-25.76
-23.22
-19.22
-14.01
-8.04
-1.92
3.69
8.28
11.55
13.42
14.02
13.51
12.11
10.07
7.71
5.42
3.59
2.47
2.10
2.27
2.58
2.67
2.28
1.40
0.14
-1.36
-3.07
-5.04
-7.31
-9.77
-12.09
-13.87
-14.81
-14.88
-14.33
-13.63
-13.20
-13.31
-14.05
-15.28
-16.74
-17.98
-18.41
-17.41
-14.50
-9.59
-3.09
4.18
11.22
17.16
21.50
24.07
24.95
24.32
22.37
19.38
15.73
11.96
8.59
6.02
4.37
3.52
3.18
3.03
2.85
2.52
2.04
1.39
0.59
-0.34
-1.41
-2.63
-3.98
-5.45
-6.94
-8.32
-9.42
-10.12
-10.46
-10.61
-10.90
-11.65
-13.05
-15.02
-17.07
-18.48
-18.42
-16.30
-11.94
-5.71
1.57
8.84
15.14
19.80
22.56
23.52
22.96
21.22
18.61
15.42
11.97
8.62
5.76
3.67
2.47
2.07
2.16
2.39
2.48
2.32
1.95
1.50
1.04
0.55
-0.07
-0.91
-2.03
-3.33
-4.66
-5.87
-6.92
-7.91
-9.06
-10.54
-12.35
-14.18
-15.46
-15.51
-13.83
-10.33
-5.39
0.23
5.67
10.21
13.40
15.14
15.50
14.63
12.71
9.94
6.63
3.18
-0.02
-2.61
-4.36
-5.20
-5.21
-4.57
-3.59
-2.62
-2.02
-2.00
-2.56
-3.51
-4.51
-5.30
-5.74
-5.91
-6.01
-6.24
-6.79
-7.79
-9.36
-11.55
-14.23
-16.98
-19.09
-19.68
-18.03
-13.88
-7.64
-0.27
7.00
13.09
17.38
19.72
20.36
19.64
17.81
15.02
11.37
7.13
2.78
-1.12
-4.05
-5.75
-6.28
-5.99
-5.39
-4.98
-5.18
-6.28
-8.36
-11.29
-14.63
-17.79
-20.13
-21.23
-21.05
-20.02
-18.85
-18.24
-18.67
-20.20
-22.44
-24.64
-25.86
-25.23
-22.17
-16.57
-8.90
-0.10
8.70
16.47
22.56
26.81
29.37
30.58
30.67
29.87
28.28
26.06
23.42
20.59
17.79
15.23
13.10
11.57
10.81
10.81
11.35
12.01
12.26
11.73
10.38
8.44
6.36
4.48
2.91
1.48
-0.15
-2.26
-5.02
-8.37
-12.14
-16.02
-19.52
-21.97
-22.60
-20.83
-16.56
-10.31
-3.13
3.76
9.48
13.68
16.66
18.99
21.16
23.24
24.83
25.29
24.12
21.25
17.22
12.94
9.39
7.19
6.43
6.67
7.22
7.52
7.28
6.52
5.37
3.89
1.94
-0.66
-3.95
-7.69
-11.33
-14.23
-15.89
-16.23
-15.56
-14.55
-13.90
-14.22
-15.72
-18.21
-21.11
-23.55
-24.58
-23.48
-19.95
-14.23
-7.06
0.55
7.63
13.45
17.64
20.09
20.81
19.93
17.66
14.34
10.54
6.90
4.01
2.23
1.60
1.85
2.56
3.28
3.70
3.70
3.33
2.74
2.09
1.42
0.63
-0.45
-1.99
-4.01
-6.34
-8.69
-10.75
-12.35
-13.52
-14.48
-15.55
-17.07
-19.22
-21.95
-24.90
-27.39
-28.53
-27.49
-23.82
-17.72
-9.99
-1.80
5.68
11.64
15.83
18.38
19.59
19.72
18.88
17.10
14.59
11.70
8.96
6.85
5.67
5.41
5.79
6.41
6.86
6.91
6.45
5.52
4.18
2.52
0.58
-1.54
-3.75
-5.93
-7.97
-9.83
-11.54
-13.18
-14.88
-16.78
-19.02
-21.69
-24.74
-27.77
-30.09
-30.76
-29.00
-24.52
-17.75
-9.75
-1.81
5.00
10.13
13.61
15.78
16.99
17.44
17.17
16.26
14.93
13.52
12.39
11.82
11.85
12.38
13.17
14.00
14.67
15.10
15.27
15.16
14.75
13.95
12.62
10.68
8.16
5.26
2.33
-0.34
-2.55
-4.36
-6.05
-7.99
-10.53
-13.92
-18.15
-22.91
-27.52
-31.07
-32.59
-31.43
-27.46
-21.24
-13.75
-6.12
0.72
6.30
10.51
13.50
15.42
16.37
16.39
15.61
14.28
12.74
11.35
10.33
9.71
9.41
9.32
9.36
9.54
9.93
10.49
11.05
11.26
10.75
9.28
6.91
3.94
0.80
-2.14
-4.71
-6.92
-8.91
-10.91
-13.11
-15.72
-18.82
-22.30
-25.66
-28.07
-28.56
-26.39
-21.46
-14.39
-6.37
1.30
7.63
12.21
15.14
16.79
17.50
17.42
16.61
15.15
13.23
11.23
9.53
8.43
8.02
8.18
8.64
9.10
9.31
9.11
8.48
7.51
6.32
5.05
3.78
2.50
1.18
-0.26
-1.89
-3.76
-5.96
-8.57
-11.56
-14.72
-17.52
-19.17
-18.83
-15.94
-10.56
-3.35
4.50
11.79
17.64
21.76
24.37
25.95
26.88
27.23
26.76
25.22
22.49
18.89
15.03
11.66
9.32
8.13
7.72
7.46
6.69
5.09
2.71
-0.05
-2.77
-5.12
-7.01
-8.58
-10.03
-11.57
-13.36
-15.55
-18.21
-21.29
-24.50
-27.18
-28.37
-27.19
-23.12
-16.36
-7.86
0.96
8.70
14.44
17.94
19.56
19.85
19.28
18.00
15.97
13.16
9.76
6.24
3.21
1.17
0.34
0.59
1.47
2.47
3.17
3.36
3.08
2.51
1.89
1.31
0.70
-0.13
-1.39
-3.23
-5.64
-8.58
-11.92
-15.47
-18.86
-21.49
-22.60
-21.45
-17.70
-11.57
-3.96
3.88
10.78
15.98
19.27
20.85
21.08
20.18
18.31
15.57
12.18
8.58
5.30
2.81
1.35
0.92
1.24
1.86
2.37
2.40
1.77
0.52
-1.18
-3.05
-4.85
-6.48
-7.97
-9.45
-11.07
-12.90
-15.02
-17.50
-20.36
-23.55
-26.71
-29.17
-29.99
-28.30
-23.69
-16.44
-7.49
1.82
10.26
17.00
21.75
24.58
25.73
25.43
23.86
21.29
18.12
14.87
12.04
9.93
8.56
7.72
7.15
6.64
6.17
5.80
5.55
5.25
4.60
3.28
1.11
-1.74
-4.92
-7.94
-10.46
-12.37
-13.82
-15.10
-16.48
-18.18
-20.36
-23.04
-26.11
-29.13
-31.32
-31.76
-29.62
-24.59
-17.05
-8.01
1.21
9.41
15.85
20.27
22.84
23.84
23.56
22.19
20.01
17.40
14.87
12.93
11.88
11.68
12.01
12.42
12.50
12.14
11.49
10.76
10.05
9.23
7.98
5.97
3.16
-0.19
-3.57
-6.44
-8.55
-9.93
-10.97
-12.15
-13.91
-16.51
-19.94
-23.84
-27.55
-30.10
-30.53
-28.15
-22.88
-15.37
-6.73
1.73
9.01
14.58
18.37
20.57
21.38
20.96
19.48
17.23
14.66
12.27
10.42
9.23
8.56
8.13
7.75
7.37
7.12
7.19
7.65
8.35
8.92
8.90
7.85
5.67
2.55
-1.01
-4.43
-7.25
-9.31
-10.78
-12.07
-13.69
-16.02
-19.22
-22.99
-26.64
-29.19
-29.64
-27.39
-22.45
-15.51
-7.68
-0.10
6.40
11.45
15.04
17.34
18.51
18.64
17.83
16.27
14.23
12.06
10.11
8.64
7.81
7.67
8.09
8.86
9.71
10.38
10.73
10.68
10.17
9.09
7.35
4.88
1.79
-1.58
-4.81
-7.49
-9.47
-10.90
-12.21
-13.90
-16.35
-19.70
-23.66
-27.59
-30.47
-31.31
-29.35
-24.42
-17.11
-8.51
0.03
7.46
13.22
17.31
20.03
21.72
22.52
22.41
21.33
19.40
16.96
14.53
12.61
11.47
11.06
11.05
11.02
10.67
9.96
9.11
8.41
8.01
7.78
7.34
6.26
4.28
1.52
-1.61
-4.58
-6.97
-8.66
-9.82
-10.82
-12.08
-13.95
-16.62
-20.06
-23.96
-27.61
-30.04
-30.23
-27.52
-21.90
-14.08
-5.34
3.04
10.08
15.43
19.16
21.55
22.79
22.89
21.79
19.61
16.69
13.57
10.82
8.85
7.80
7.54
7.80
8.25
8.58
8.59
8.20
7.42
6.30
4.89
3.17
1.06
-1.47
-4.32
-7.26
-9.95
-12.13
-13.74
-15.01
-16.36
-18.25
-20.97
-24.46
-28.24
-31.43
-33.00
-32.07
-28.23
-21.72
-13.41
-4.47
4.02
11.40
17.53
22.56
26.61
29.55
31.02
30.60
28.19
24.15
19.26
14.51
10.69
8.19
6.93
6.51
6.45
6.40
6.24
6.07
5.95
5.87
5.61
4.88
3.46
1.34
-1.23
-3.86
-6.23
-8.19
-9.85
-11.50
-13.50
-16.12
-19.50
-23.50
-27.64
-31.08
-32.75
-31.70
-27.43
-20.24
-11.19
-1.75
6.66
13.17
17.54
20.06
21.19
21.32
20.65
19.30
17.43
15.31
13.29
11.63
10.44
9.65
9.10
8.65
8.25
7.98
7.87
7.90
7.89
7.51
6.45
4.52
1.76
-1.54
-4.96
-8.03
-10.45
-12.15
-13.29
-14.28
-15.56
-17.51
-20.29
-23.68
-27.12
-29.70
-30.45
-28.59
-23.87
-16.68
-8.08
0.62
8.26
14.15
18.20
20.75
22.21
22.78
22.47
21.17
18.96
16.17
13.38
11.20
10.00
9.82
10.36
11.18
11.87
12.21
12.21
11.96
11.55
10.94
9.99
8.50
6.35
3.59
0.43
-2.82
-5.85
-8.41
-10.40
-11.84
-12.89
-13.80
-14.86
-16.40
-18.66
-21.69
-25.22
-28.60
-30.86
-30.98
-28.26
-22.64
-14.79
-5.88
2.76
10.13
15.77
19.73
22.32
23.83
24.40
23.93
22.40
19.89
16.79
13.66
11.14
9.71
9.48
10.23
11.36
12.28
12.54
12.08
11.07
9.82
8.52
7.14
5.48
3.32
0.58
-2.61
-5.90
-8.95
-11.49
-13.42
-14.84
-15.91
-16.86
-17.85
-19.03
-20.51
-22.40
-24.77
-27.48
-30.08
-31.80
-31.71
-29.06
-23.64
-15.87
-6.77
2.39
10.53
16.98
21.53
24.30
25.51
25.36
24.00
21.64
18.63
15.43
12.55
10.36
9.08
8.64
8.79
9.21
9.59
9.78
9.76
9.58
9.23
8.59
7.41
5.47
2.73
-0.60
-4.09
-7.25
-9.75
-11.56
-12.90
-14.18
-15.80
-18.04
-20.97
-24.42
-27.96
-30.87
-32.26
-31.32
-27.56
-21.13
-12.81
-3.76
4.80
12.05
17.60
21.47
23.82
24.73
24.19
22.20
19.00
15.11
11.28
8.18
6.23
5.42
5.44
5.77
5.97
5.78
5.16
4.24
3.21
2.21
1.30
0.49
-0.29
-1.15
-2.23
-3.60
-5.25
-7.08
-8.87
-10.45
-11.73
-12.86
-14.13
-15.94
-18.55
-21.85
-25.23
-27.65
-27.98
-25.43
-19.92
-12.18
-3.55
4.46
10.77
14.96
17.28
18.30
18.56
18.34
17.67
16.53
15.04
13.57
12.56
12.37
13.04
14.26
15.48
16.20
16.12
15.31
14.11
12.91
11.92
11.08
10.06
8.46
6.03
2.85
-0.72
-4.17
-7.07
-9.27
-10.87
-12.19
-13.61
-15.45
-17.95
-21.15
-24.91
-28.75
-31.85
-33.26
-32.14
-28.11
-21.47
-13.16
-4.42
3.59
10.15
15.06
18.51
20.75
21.94
22.05
21.07
19.12
16.59
14.09
12.19
11.27
11.36
12.15
13.14
13.85
13.97
13.46
12.56
11.58
10.75
10.12
9.47
8.43
6.70
4.18
1.07
-2.21
-5.24
-7.78
-9.85
-11.66
-13.48
-15.52
-17.97
-20.90
-24.27
-27.76
-30.68
-32.07
-30.98
-26.91
-20.07
-11.39
-2.21
6.23
13.14
18.29
21.80
23.88
24.64
24.08
22.29
19.56
16.43
13.54
11.36
10.07
9.52
9.32
9.10
8.68
8.17
7.85
8.04
8.88
10.21
11.61
12.47
12.29
10.85
8.29
5.08
1.73
-1.36
-4.10
-6.67
-9.37
-12.45
-15.99
-19.93
-24.05
-27.99
-31.20
-32.99
-32.65
-29.70
-24.21
-16.79
-8.51
-0.54
6.23
11.38
14.95
17.17
18.31
18.52
17.86
16.43
14.44
12.24
10.21
8.67
7.74
7.35
7.27
7.22
7.06
6.77
6.44
6.16
5.86
5.24
3.90
1.56
-1.76
-5.66
-9.50
-12.70
-14.92
-16.26
-17.16
-18.22
-19.98
-22.73
-26.40
-30.43
-33.93
-35.78
-35.04
-31.26
-24.69
-16.22
-7.10
1.49
8.76
14.40
18.47
21.17
22.67
23.06
22.41
20.87
18.73
16.38
14.27
12.76
12.03
11.97
12.31
12.69
12.84
12.67
12.29
11.84
11.40
10.85
9.93
8.39
6.06
3.00
-0.52
-4.10
-7.37
-10.04
-12.04
-13.47
-14.58
-15.71
-17.18
-19.26
-22.09
-25.64
-29.63
-33.40
-36.01
-36.42
-33.89
-28.25
-20.08
-10.56
-1.06
7.24
13.67
18.14
20.88
22.26
22.63
22.21
21.23
19.90
18.49
17.22
16.23
15.60
15.30
15.31
15.56
15.98
16.47
16.85
16.93
16.51
15.44
13.70
11.41
8.80
6.12
3.55
1.11
-1.29
-3.82
-6.55
-9.37
-12.04
-14.28
-15.94
-17.10
-18.06
-19.20
-20.82
-23.13
-26.17
-29.73
-33.36
-36.26
-37.45
-35.98
-31.39
-23.94
-14.65
-4.96
3.83
10.94
16.31
20.29
23.32
25.55
26.84
26.92
25.75
23.63
21.16
18.99
17.53
16.81
16.54
16.33
15.88
15.18
14.41
13.78
13.39
13.11
12.65
11.70
10.02
7.56
4.43
0.86
-2.85
-6.37
-9.43
-11.86
-13.61
-14.77
-15.58
-16.32
-17.32
-18.90
-21.31
-24.55
-28.24
-31.58
-33.46
-32.85
-29.19
-22.66
-14.18
-5.01
3.58
10.76
16.16
19.80
21.86
22.56
22.12
20.77
18.85
16.67
14.57
12.78
11.48
10.78
10.69
11.13
11.81
12.42
12.63
12.31
11.53
10.53
9.53
8.57
7.46
5.87
3.50
0.32
-3.41
-7.15
-10.40
-12.79
-14.34
-15.33
-16.16
-17.24
-18.86
-21.16
-24.11
-27.47
-30.63
-32.69
-32.56
-29.44
-23.10
-14.16
-3.91
6.09
14.56
20.86
25.06
27.65
29.17
29.90
29.85
28.92
27.12
24.71
22.16
19.95
18.42
17.62
17.33
17.20
16.93
16.35
15.50
14.52
13.53
12.56
11.48
10.08
8.12
5.44
2.05
-1.83
-5.90
-9.75
-13.03
-15.55
-17.30
-18.48
-19.39
-20.36
-21.72
-23.73
-26.55
-30.19
-34.37
-38.45
-41.44
-42.27
-40.13
-34.79
-26.79
-17.24
-7.48
1.36
8.62
14.11
17.96
20.38
21.49
21.35
20.08
17.99
15.56
13.39
11.96
11.51
11.96
12.90
13.85
14.36
14.26
13.59
12.55
11.30
9.89
8.17
5.91
2.97
-0.60
-4.53
-8.36
-11.64
-14.12
-15.76
-16.87
-17.89
-19.25
-21.22
-23.84
-26.88
-29.84
-32.07
-32.80
-31.34
-27.31
-20.82
-12.57
-3.63
4.80
11.82
17.01
20.46
22.49
23.43
23.45
22.58
20.87
18.44
15.67
12.98
10.77
9.30
8.62
8.57
8.92
9.39
9.75
9.84
9.53
8.71
7.27
5.17
2.47
-0.64
-3.84
-6.83
-9.37
-11.44
-13.17
-14.80
-16.59
-18.79
-21.55
-24.86
-28.43
-31.62
-33.46
-32.97
-29.52
-23.16
-14.67
-5.35
3.47
10.82
16.34
20.14
22.56
23.83
24.00
23.06
21.10
18.45
15.65
13.29
11.75
11.10
11.11
11.39
11.55
11.41
11.02
10.51
10.05
9.61
8.98
7.81
5.79
2.82
-0.91
-4.94
-8.75
-11.91
-14.30
-16.08
-17.57
-19.18
-21.19
-23.80
-27.03
-30.72
-34.34
-37.04
-37.69
-35.29
-29.38
-20.35
-9.40
1.87
11.91
19.73
25.00
27.95
29.02
28.63
27.09
24.59
21.39
17.84
14.44
11.66
9.86
9.13
9.31
9.98
10.68
11.04
10.96
10.54
10.02
9.60
9.31
8.97
8.29
6.97
4.85
2.00
-1.29
-4.59
-7.47
-9.65
-11.10
-12.02
-12.77
-13.73
-15.24
-17.55
-20.77
-24.70
-28.80
-32.08
-33.37
-31.70
-26.72
-19.00
-9.82
-0.75
6.98
12.76
16.72
19.27
20.83
21.54
21.33
20.13
18.13
15.74
13.54
11.98
11.29
11.40
12.00
12.73
13.26
13.47
13.44
13.32
13.22
13.08
12.60
11.39
9.10
5.70
1.52
-2.85
-6.74
-9.68
-11.57
-12.67
-13.47
-14.51
-16.18
-18.65
-21.89
-25.66
-29.51
-32.77
-34.58
-34.16
-30.99
-25.15
-17.31
-8.60
-0.23
6.90
12.42
16.37
19.03
20.64
21.25
20.84
19.42
17.27
14.87
12.77
11.42
10.98
11.29
11.98
12.62
12.90
12.74
12.23
11.59
10.95
10.31
9.45
8.07
5.95
3.06
-0.35
-3.88
-7.08
-9.68
-11.60
-12.97
-14.02
-14.97
-16.11
-17.71
-20.05
-23.23
-26.93
-30.35
-32.30
-31.64
-27.69
-20.67
-11.60
-2.01
6.66
13.51
18.29
21.31
23.04
23.83
23.86
23.17
21.84
20.09
18.27
16.73
15.68
15.17
15.09
15.21
15.28
15.14
14.68
13.93
12.98
11.96
10.94
9.87
8.58
6.86
4.52
1.52
-1.93
-5.51
-8.79
-11.47
-13.46
-14.91
-16.11
-17.43
-19.19
-21.62
-24.81
-28.67
-32.78
-36.36
-38.36
-37.74
-33.92
-27.03
-17.96
-8.07
1.25
9.03
14.86
18.77
20.92
21.44
20.39
17.94
14.50
10.78
7.61
5.65
5.17
5.92
7.29
8.63
9.48
9.75
9.70
9.75
10.19
11.03
11.96
12.52
12.24
10.95
8.74
5.98
3.12
0.46
-1.92
-4.14
-6.43
-9.03
-12.13
-15.79
-20.01
-24.59
-29.01
-32.44
-33.89
-32.54
-28.11
-21.08
-12.54
-3.84
3.90
10.05
14.46
17.34
18.90
19.32
18.68
17.19
15.19
13.17
11.57
10.67
10.40
10.53
10.72
10.77
10.70
10.70
10.98
11.58
12.33
12.80
12.54
11.26
8.91
5.77
2.32
-0.98
-3.76
-5.92
-7.63
-9.26
-11.22
-13.88
-17.37
-21.58
-26.04
-29.99
-32.51
-32.75
-30.21
-24.94
-17.61
-9.24
-0.96
6.35
12.22
16.54
19.37
20.81
20.89
19.73
17.59
14.91
12.26
10.15
8.90
8.52
8.83
9.49
10.20
10.77
11.17
11.43
11.58
11.55
11.20
10.30
8.73
6.47
3.70
0.71
-2.20
-4.83
-7.11
-9.13
-11.03
-13.01
-15.28
-18.03
-21.38
-25.20
-28.96
-31.79
-32.62
-30.65
-25.69
-18.28
-9.57
-0.88
6.72
12.69
16.98
19.82
21.47
22.08
21.70
20.44
18.53
16.32
14.27
12.78
12.08
12.17
12.82
13.71
14.48
14.94
15.06
14.92
14.61
14.13
13.30
11.89
9.67
6.58
2.75
-1.49
-5.70
-9.43
-12.34
-14.30
-15.45
-16.19
-17.15
-19.01
-22.24
-26.82
-32.10
-36.86
-39.70
-39.49
-35.80
-29.09
-20.49
-11.44
-3.11
3.85
9.34
13.63
17.04
19.67
21.37
21.86
20.94
18.80
15.95
13.23
11.44
11.11
12.24
14.33
16.63
18.41
19.26
19.07
18.06
16.52
14.63
12.42
9.82
6.79
3.42
0.03
-3.03
-5.50
-7.34
-8.78
-10.25
-12.16
-14.82
-18.29
-22.38
-26.66
-30.45
-32.91
-33.30
-31.11
-26.39
-19.70
-11.99
-4.24
2.81
8.85
13.78
17.64
20.34
21.69
21.57
20.09
17.67
14.96
12.65
11.23
10.89
11.47
12.59
13.80
14.76
15.30
15.44
15.27
14.87
14.19
13.03
11.12
8.27
4.46
-0.04
-4.71
-8.93
-12.21
-14.46
-15.99
-17.42
-19.35
-22.15
-25.77
-29.85
-33.81
-36.97
-38.68
-38.32
-35.49
-30.16
-22.76
-14.14
-5.36
2.63
9.24
14.27
17.81
20.01
20.98
20.78
19.51
17.47
15.12
12.95
11.40
10.70
10.80
11.41
12.16
12.70
12.89
12.76
12.50
12.22
11.89
11.27
10.02
7.85
4.76
1.05
-2.71
-5.95
-8.29
-9.70
-10.53
-11.31
-12.61
-14.77
-17.87
-21.71
-25.85
-29.59
-32.06
-32.37
-29.81
-24.23
-16.17
-6.79
2.45
10.31
16.08
19.76
21.74
22.53
22.46
21.66
20.13
17.94
15.34
12.74
10.54
9.08
8.47
8.60
9.16
9.79
10.17
10.13
9.70
9.01
8.15
7.07
5.57
3.40
0.43
-3.18
-7.02
-10.59
-13.50
-15.60
-17.03
-18.08
-19.13
-20.49
-22.42
-25.03
-28.28
-31.76
-34.71
-36.13
-35.01
-30.82
-23.71
-14.56
-4.71
4.49
12.09
17.67
21.32
23.39
24.20
23.96
22.81
20.89
18.48
15.94
13.67
11.91
10.73
10.04
9.65
9.43
9.35
9.43
9.64
9.82
9.65
8.75
6.85
3.95
0.31
-3.60
-7.27
-10.35
-12.75
-14.65
-16.46
-18.64
-21.51
-25.08
-28.92
-32.15
-33.73
-32.72
-28.73
-22.05
-13.69
-4.95
2.94
9.20
13.62
16.35
17.79
18.25
17.98
17.11
15.74
14.05
12.25
10.55
9.17
8.24
7.83
7.93
8.49
9.48
10.89
12.67
14.71
16.71
18.23
18.79
18.06
15.96
12.76
8.93
4.97
1.32
-1.75
-4.21
-6.23
-8.08
-10.00
-12.01
-13.80
-14.84
-14.57
-12.72
-9.47
-5.41
-1.20
2.68
6.15
9.41
12.70
16.02
19.07
21.37
22.56
22.66
22.04
21.28
20.81
20.78
20.96
20.92
20.34
19.11
17.42
15.59
13.84
12.20
10.51
8.52
6.06
3.10
-0.22
-3.68
-7.06
-10.18
-12.95
-15.38
-17.61
-19.93
-22.73
-26.40
-31.16
-36.90
-43.11
-48.79
-52.68
-53.61
-50.90
-44.70
-36.00
-26.32
-17.16
-9.50
-3.66
0.65
3.96
6.61
8.70
10.12
10.78
10.75
10.32
9.80
9.43
9.21
9.01
8.70
8.24
7.74
7.44
7.54
8.07
8.84
9.39
9.21
7.86
5.23
1.57
-2.57
-6.51
-9.67
-11.80
-13.00
-13.73
-14.61
-16.22
-18.94
-22.76
-27.26
-31.55
-34.50
-34.99
-32.28
-26.33
-17.87
-8.15
1.38
9.58
15.91
20.35
23.22
24.83
25.27
24.51
22.54
19.65
16.43
13.68
12.06
11.83
12.76
14.23
15.52
16.13
15.91
15.01
13.68
12.09
10.23
7.88
4.80
0.79
-4.12
-9.67
-15.37
-20.61
-24.82
-27.66
-29.06
-29.32
-28.93
-28.46
-28.42
-29.11
-30.53
-32.32
-33.73
-33.73
-31.32
-25.89
-17.54
-7.16
3.86
14.10
22.52
28.67
32.56
34.39
34.30
32.37
28.78
23.94
18.60
13.64
9.83
7.58
6.87
7.30
8.36
9.58
10.67
11.51
12.04
12.15
11.60
10.10
7.43
3.65
-0.86
-5.44
-9.35
-12.14
-13.74
-14.54
-15.20
-16.37
-18.52
-21.79
-25.95
-30.40
-34.19
-36.17
-35.29
-30.91
-23.21
-13.15
-2.25
7.94
16.29
22.34
26.19
28.19
28.67
27.82
25.74
22.63
18.90
15.18
12.12
10.29
9.98
11.13
13.33
15.95
18.27
19.76
20.12
19.28
17.32
14.30
10.25
5.28
-0.30
-5.96
-11.05
-15.05
-17.77
-19.50
-20.83
-22.48
-24.99
-28.62
-33.31
-38.72
-44.17
-48.69
-51.08
-50.15
-45.20
-36.34
-24.62
-11.73
0.50
10.74
18.42
23.68
27.00
28.82
29.34
28.56
26.57
23.68
20.47
17.65
15.76
15.07
15.46
16.56
17.82
18.77
19.08
18.69
17.73
16.46
15.08
13.62
12.00
10.00
7.52
4.58
1.44
-1.58
-4.17
-6.21
-7.74
-8.98
-10.21
-11.67
-13.57
-16.02
-18.98
-22.08
-24.62
-25.59
-23.99
-19.24
-11.45
-1.54
9.06
18.88
26.82
32.37
35.59
36.83
36.50
34.93
32.38
29.13
25.51
21.98
19.02
17.02
16.16
16.31
17.02
17.62
17.52
16.37
14.24
11.47
8.52
5.72
3.15
0.64
-1.99
-4.81
-7.67
-10.26
-12.28
-13.63
-14.38
-14.81
-15.22
-15.86
-16.84
-18.27
-20.19
-22.57
-25.14
-27.33
-28.21
-26.80
-22.43
-15.09
-5.53
4.87
14.57
22.28
27.28
29.43
29.10
26.84
23.36
19.33
15.41
12.14
9.83
8.51
7.89
7.56
7.18
6.68
6.25
6.24
6.90
8.26
10.00
11.60
12.54
12.46
11.29
9.14
6.19
2.56
-1.73
-6.67
-12.14
-17.88
-23.55
-28.81
-33.36
-36.91
-39.12
-39.55
-37.83
-33.92
-28.29
-22.00
-16.30
-12.22
-10.12
-9.61
-9.92
-10.41
-10.91
-11.74
-13.26
-15.47
-17.73
-19.11
-18.80
-16.58
-12.97
-8.94
-5.43
-2.90
-1.27
-0.14
0.90
2.00
3.00
3.62
3.65
3.11
2.23
1.32
0.56
-0.11
-0.99
-2.51
-4.95
-8.18
-11.56
-14.02
-14.37
-11.80
-6.27
1.38
9.66
17.00
22.31
25.33
26.47
26.53
26.10
25.37
24.11
21.99
18.89
15.07
11.08
7.56
4.96
3.35
2.47
1.85
1.07
-0.16
-1.86
-3.87
-5.99
-8.07
-10.09
-12.02
-13.80
-15.27
-16.24
-16.60
-16.47
-16.16
-16.00
-16.07
-16.02
-15.02
-12.10
-6.62
1.43
11.24
21.40
30.41
37.14
41.16
42.71
42.41
40.86
38.38
35.06
30.85
25.90
20.62
15.61
11.48
8.65
7.15
6.71
6.85
7.06
7.00
6.48
5.42
3.82
1.72
-0.80
-3.60
-6.42
-9.04
-11.30
-13.20
-14.95
-16.89
-19.29
-22.12
-24.88
-26.66
-26.33
-23.04
-16.50
-7.33
3.20
13.44
21.94
27.81
30.89
31.54
30.38
27.98
24.71
20.83
16.60
12.38
8.59
5.65
3.79
2.99
2.98
3.38
3.81
4.01
3.83
3.22
2.12
0.54
-1.52
-3.95
-6.58
-9.18
-11.52
-13.43
-14.91
-16.05
-17.12
-18.47
-20.40
-22.99
-25.87
-28.21
-28.86
-26.81
-21.54
-13.40
-3.51
6.65
15.66
22.63
27.25
29.61
29.92
28.39
25.21
20.66
15.29
9.87
5.20
1.86
0.06
-0.38
0.05
0.83
1.53
1.99
2.23
2.29
2.15
1.63
0.49
-1.43
-4.06
-7.08
-9.97
-12.31
-13.86
-14.72
-15.20
-15.71
-16.66
-18.33
-20.82
-23.89
-26.97
-29.18
-29.51
-27.16
-21.87
-14.03
-4.66
4.92
13.46
20.05
24.27
26.07
25.70
23.49
19.90
15.43
10.71
6.36
2.88
0.58
-0.52
-0.59
0.08
1.14
2.34
3.43
4.21
4.47
4.02
2.72
0.64
-1.98
-4.72
-7.16
-9.06
-10.39
-11.38
-12.33
-13.50
-15.06
-17.10
-19.57
-22.27
-24.73
-26.14
-25.53
-22.09
-15.59
-6.60
3.66
13.61
21.92
27.84
31.21
32.28
31.40
28.88
24.97
19.98
14.50
9.29
5.15
2.60
1.76
2.26
3.44
4.61
5.32
5.46
5.17
4.61
3.81
2.57
0.61
-2.21
-5.71
-9.42
-12.72
-15.12
-16.47
-16.97
-17.07
-17.31
-18.15
-19.88
-22.56
-25.87
-29.05
-30.96
-30.35
-26.39
-18.96
-8.93
2.18
12.70
21.36
27.61
31.47
33.27
33.31
31.70
28.51
23.97
18.64
13.32
8.84
5.76
4.25
4.04
4.63
5.50
6.30
6.83
7.11
7.12
6.79
5.94
4.37
1.98
-1.10
-4.52
-7.80
-10.48
-12.28
-13.23
-13.58
-13.76
-14.24
-15.42
-17.56
-20.72
-24.55
-28.31
-30.84
-30.91
-27.65
-20.91
-11.44
-0.73
9.56
18.10
24.24
27.95
29.59
29.50
27.86
24.74
20.34
15.22
10.23
6.31
4.09
3.69
4.67
6.24
7.60
8.25
8.09
7.35
6.37
5.37
4.37
3.17
1.51
-0.72
-3.44
-6.32
-8.99
-11.10
-12.52
-13.36
-13.91
-14.48
-15.35
-16.73
-18.71
-21.32
-24.34
-27.25
-29.21
-29.19
-26.38
-20.47
-11.98
-2.05
7.85
16.47
22.99
27.21
29.24
29.31
27.58
24.18
19.41
13.83
8.29
3.71
0.78
-0.31
0.16
1.53
3.05
4.19
4.69
4.55
3.87
2.76
1.24
-0.70
-2.95
-5.31
-7.50
-9.30
-10.61
-11.57
-12.44
-13.54
-15.12
-17.33
-20.14
-23.37
-26.56
-28.96
-29.65
-27.73
-22.77
-14.97
-5.30
4.81
13.95
21.11
25.91
28.44
29.00
27.87
25.23
21.31
16.56
11.72
7.62
4.89
3.79
4.05
5.05
6.10
6.72
6.78
6.38
5.74
4.93
3.87
2.35
0.20
-2.53
-5.58
-8.56
-11.15
-13.19
-14.76
-16.06
-17.37
-18.96
-21.08
-23.89
-27.28
-30.73
-33.25
-33.63
-30.80
-24.41
-15.03
-4.06
6.80
16.12
23.10
27.71
30.30
31.34
31.08
29.55
26.69
22.63
17.84
13.05
9.11
6.66
5.93
6.65
8.13
9.53
10.19
9.86
8.70
7.12
5.51
4.03
2.53
0.70
-1.74
-4.79
-8.17
-11.42
-14.09
-15.92
-16.95
-17.47
-17.89
-18.59
-19.84
-21.80
-24.47
-27.62
-30.65
-32.57
-32.27
-28.85
-22.05
-12.44
-1.35
9.64
19.13
26.30
31.00
33.50
34.21
33.46
31.45
28.34
24.43
20.22
16.31
13.23
11.29
10.46
10.37
10.48
10.29
9.51
8.16
6.48
4.78
3.30
2.07
0.93
-0.44
-2.33
-4.85
-7.84
-10.89
-13.50
-15.32
-16.24
-16.49
-16.46
-16.57
-17.06
-18.07
-19.65
-21.81
-24.45
-27.19
-29.26
-29.59
-27.24
-21.75
-13.51
-3.59
6.54
15.58
22.72
27.67
30.53
31.44
30.51
27.84
23.70
18.65
13.53
9.17
6.18
4.75
4.63
5.33
6.29
7.08
7.50
7.48
7.11
6.41
5.33
3.75
1.59
-1.12
-4.18
-7.19
-9.79
-11.74
-13.05
-13.98
-14.89
-16.13
-17.95
-20.43
-23.49
-26.79
-29.69
-31.25
-30.40
-26.38
-19.11
-9.38
1.35
11.43
19.58
25.27
28.59
30.08
30.19
29.09
26.79
23.33
18.99
14.41
10.39
7.61
6.39
6.56
7.55
8.62
9.15
8.86
7.91
6.71
5.70
5.02
4.46
3.54
1.78
-1.02
-4.64
-8.53
-12.00
-14.55
-16.03
-16.62
-16.73
-16.82
-17.25
-18.29
-20.12
-22.80
-26.13
-29.58
-32.21
-32.86
-30.52
-24.77
-16.05
-5.58
5.05
14.43
21.74
26.80
29.91
31.41
31.48
30.10
27.23
23.10
18.30
13.72
10.23
8.41
8.35
9.58
11.37
12.90
13.63
13.37
12.25
10.60
8.72
6.77
4.69
2.29
-0.60
-3.98
-7.59
-10.99
-13.68
-15.38
-16.12
-16.25
-16.29
-16.68
-17.74
-19.56
-22.07
-25.05
-28.08
-30.42
-31.13
-29.26
-24.24
-16.21
-6.11
4.59
14.30
21.80
26.61
28.86
29.16
28.17
26.43
24.18
21.52
18.54
15.41
12.53
10.32
9.09
8.85
9.22
9.65
9.58
8.72
7.19
5.36
3.68
2.41
1.53
0.76
-0.31
-1.99
-4.36
-7.25
-10.26
-12.92
-14.86
-15.90
-16.18
-16.01
-15.82
-15.94
-16.63
-18.02
-20.16
-22.87
-25.62
-27.52
-27.39
-24.23
-17.69
-8.34
2.43
12.85
21.39
27.21
30.22
30.81
29.52
26.78
22.90
18.18
13.08
8.22
4.22
1.53
0.28
0.19
0.71
1.18
1.11
0.29
-1.14
-2.88
-4.64
-6.32
-8.06
-10.07
-12.48
-15.17
-17.82
-20.04
-21.58
-22.44
-22.87
-23.28
-24.07
-25.50
-27.53
-29.70
-31.16
-30.80
-27.65
-21.35
-12.39
-2.06
8.03
16.55
22.92
27.42
30.77
33.65
36.29
38.37
39.35
38.87
37.07
34.52
31.87
29.55
27.55
25.56
23.19
20.28
16.99
13.68
10.64
7.99
5.57
3.15
0.69
-1.57
-3.11
-3.39
-2.15
0.38
3.51
6.32
7.95
7.95
6.28
3.33
-0.28
-3.74
-6.17
-6.69
-4.68
0.01
6.93
14.98
22.79
29.10
33.11
34.61
33.86
31.34
27.53
22.88
17.73
12.53
7.77
3.94
1.43
0.33
0.39
1.12
1.86
2.12
1.68
0.64
-0.63
-1.77
-2.61
-3.23
-3.93
-4.98
-6.52
-8.36
-10.19
-11.63
-12.47
-12.75
-12.79
-13.01
-13.86
-15.61
-18.19
-21.17
-23.74
-24.93
-23.98
-20.60
-15.20
-8.81
-2.72
1.96
4.65
5.36
4.51
2.61
0.07
-2.87
-5.99
-9.03
-11.59
-13.28
-13.94
-13.64
-12.79
-11.96
-11.66
-12.14
-13.38
-15.03
-16.61
-17.65
-17.88
-17.35
-16.41
-15.48
-14.96
-14.94
-15.26
-15.55
-15.40
-14.54
-12.97
-10.95
-8.92
-7.36
-6.73
-7.26
-8.95
-11.42
-13.98
-15.69
-15.59
-13.04
-7.95
-0.86
7.11
14.63
20.56
24.23
25.51
24.68
22.25
18.70
14.49
10.07
5.97
2.77
0.93
0.65
1.74
3.65
5.66
7.16
7.79
7.56
6.70
5.50
4.09
2.41
0.34
-2.23
-5.15
-8.07
-10.51
-12.08
-12.66
-12.46
-11.93
-11.57
-11.79
-12.77
-14.41
-16.36
-18.06
-18.78
-17.79
-14.57
-9.02
-1.58
6.83
15.08
22.15
27.40
30.65
31.97
31.47
29.19
25.10
19.39
12.60
5.59
-0.63
-5.29
-8.14
-9.49
-10.00
-10.33
-10.83
-11.48
-12.02
-12.19
-11.95
-11.56
-11.45
-11.97
-13.29
-15.26
-17.53
-19.68
-21.47
-22.84
-23.98
-25.18
-26.77
-28.98
-31.92
-35.40
-38.89
-41.45
-41.96
-39.42
-33.45
-24.45
-13.58
-2.37
7.79
16.11
22.38
26.86
29.92
31.79
32.46
31.88
30.06
27.27
24.03
20.92
18.45
16.91
16.29
16.34
16.71
17.07
17.24
17.19
16.89
16.26
15.10
13.13
10.19
6.32
1.83
-2.72
-6.72
-9.76
-11.70
-12.78
-13.47
-14.38
-16.03
-18.78
-22.67
-27.39
-32.13
-35.72
-36.85
-34.57
-28.65
-19.81
-9.50
0.67
9.44
16.29
21.35
25.03
27.61
29.07
29.13
27.56
24.48
20.46
16.41
13.23
11.52
11.43
12.59
14.33
15.93
16.85
16.87
16.10
14.82
13.31
11.66
9.72
7.24
3.98
-0.06
-4.57
-9.04
-12.89
-15.75
-17.61
-18.75
-19.69
-20.94
-22.87
-25.63
-29.08
-32.75
-35.82
-37.25
-36.05
-31.65
-24.18
-14.49
-3.90
6.24
14.92
21.67
26.46
29.44
30.72
30.31
28.25
24.80
20.48
16.07
12.34
9.83
8.70
8.66
9.20
9.77
10.00
9.83
9.35
8.68
7.80
6.53
4.62
1.93
-1.47
-5.26
-8.97
-12.15
-14.57
-16.29
-17.68
-19.30
-21.71
-25.21
-29.55
-33.88
-36.83
-37.00
-33.46
-26.20
-16.19
-5.08
5.46
14.23
20.81
25.39
28.47
30.36
31.09
30.47
28.43
25.23
21.51
18.10
15.64
14.38
14.09
14.26
14.32
13.98
13.24
12.28
11.30
10.28
9.01
7.16
4.53
1.17
-2.54
-6.12
-9.13
-11.38
-13.02
-14.43
-16.02
-18.10
-20.78
-24.03
-27.68
-31.47
-34.84
-36.98
-36.93
-33.93
-27.74
-18.95
-8.78
1.33
10.17
17.12
22.15
25.54
27.57
28.33
27.77
25.88
22.90
19.35
15.92
13.28
11.90
11.85
12.81
14.23
15.50
16.24
16.38
16.13
15.73
15.24
14.41
12.75
9.85
5.62
0.48
-4.79
-9.37
-12.70
-14.74
-15.87
-16.71
-17.85
-19.69
-22.42
-25.98
-30.04
-33.91
-36.56
-36.84
-33.84
-27.33
-17.97
-7.13
3.54
12.67
19.57
24.27
27.21
28.87
29.49
29.01
27.25
24.19
20.09
15.56
11.39
8.24
6.52
6.24
7.04
8.39
9.78
10.84
11.34
11.16
10.21
8.36
5.52
1.73
-2.73
-7.43
-11.76
-15.16
-17.28
-18.10
-18.02
-17.65
-17.71
-18.75
-21.04
-24.49
-28.60
-32.51
-35.07
-35.12
-31.85
-25.11
-15.60
-4.65
6.17
15.55
22.80
27.80
30.85
32.27
32.23
30.78
28.01
24.29
20.17
16.37
13.44
11.61
10.76
10.52
10.51
10.50
10.48
10.55
10.73
10.77
10.22
8.54
5.44
1.10
-3.86
-8.59
-12.35
-14.81
-16.14
-16.84
-17.57
-18.86
-21.04
-24.23
-28.26
-32.63
-36.42
-38.40
-37.38
-32.61
-24.20
-13.23
-1.39
9.62
18.50
24.80
28.70
30.72
31.32
30.72
28.94
26.00
22.12
17.78
13.61
10.22
8.02
7.12
7.39
8.49
9.99
11.44
12.41
12.48
11.35
8.94
5.38
1.10
-3.37
-7.47
-10.85
-13.41
-15.34
-17.00
-18.86
-21.29
-24.52
-28.43
-32.50
-35.74
-36.94
-35.02
-29.45
-20.58
-9.64
1.66
11.70
19.43
24.55
27.42
28.60
28.56
27.53
25.55
22.68
19.15
15.36
11.82
8.97
7.06
6.16
6.09
6.59
7.31
7.95
8.20
7.83
6.70
4.75
2.05
-1.23
-4.83
-8.46
-11.84
-14.81
-17.37
-19.74
-22.18
-24.92
-27.80
-30.22
-31.20
-29.69
-25.09
-17.55
-8.03
2.03
11.19
18.47
23.53
26.50
27.70
27.44
25.92
23.32
19.97
16.33
12.96
10.30
8.58
7.71
7.42
7.37
7.28
7.06
6.73
6.32
5.76
4.85
3.36
1.14
-1.75
-5.01
-8.26
-11.14
-13.44
-15.23
-16.78
-18.48
-20.71
-23.69
-27.18
-30.47
-32.43
-31.85
-27.91
-20.58
-10.70
0.27
10.76
19.57
26.15
30.45
32.69
33.11
31.81
28.92
24.75
19.86
15.06
11.08
8.37
6.95
6.45
6.36
6.24
5.92
5.40
4.77
4.01
2.91
1.24
-1.15
-4.12
-7.33
-10.34
-12.86
-14.85
-16.52
-18.18
-20.13
-22.56
-25.55
-28.88
-32.05
-34.15
-34.10
-30.96
-24.42
-15.01
-4.04
6.83
16.14
23.09
27.59
30.05
30.94
30.55
28.92
26.02
21.98
17.29
12.63
8.72
6.06
4.80
4.73
5.40
6.28
6.92
7.02
6.42
5.09
3.09
0.52
-2.46
-5.68
-8.92
-11.97
-14.67
-16.91
-18.77
-20.54
-22.63
-25.35
-28.66
-31.94
-34.03
-33.58
-29.63
-22.08
-11.83
-0.49
10.21
19.03
25.47
29.68
32.08
32.93
32.22
29.88
26.01
21.16
16.20
12.09
9.45
8.42
8.67
9.55
10.48
11.10
11.26
11.01
10.37
9.26
7.51
5.02
1.81
-1.90
-5.75
-9.36
-12.43
-14.88
-16.83
-18.58
-20.53
-23.05
-26.39
-30.34
-34.21
-36.82
-36.86
-33.38
-26.24
-16.27
-5.04
5.72
14.69
21.35
25.87
28.80
30.58
31.30
30.76
28.77
25.43
21.28
17.20
14.04
12.33
12.05
12.69
13.53
13.89
13.46
12.25
10.50
8.35
5.80
2.66
-1.20
-5.71
-10.49
-14.93
-18.47
-20.84
-22.16
-22.89
-23.60
-24.79
-26.75
-29.52
-32.84
-36.14
-38.45
-38.66
-35.76
-29.35
-19.89
-8.64
2.73
12.69
20.34
25.50
28.45
29.61
29.22
27.32
23.97
19.49
14.56
10.09
6.87
5.31
5.30
6.29
7.57
8.60
9.15
9.25
9.07
8.62
7.71
6.06
3.47
0.00
-3.94
-7.81
-11.05
-13.39
-14.82
-15.66
-16.42
-17.68
-19.90
-23.25
-27.41
-31.50
-34.18
-34.06
-30.24
-22.69
-12.43
-1.08
9.57
18.25
24.43
28.26
30.16
30.53
29.52
27.18
23.67
19.41
15.06
11.30
8.64
7.22
6.86
7.20
7.82
8.43
8.83
8.82
8.25
6.95
4.77
1.76
-1.85
-5.69
-9.28
-12.26
-14.46
-15.96
-17.07
-18.25
-19.98
-22.62
-26.19
-30.24
-33.75
-35.42
-34.03
-28.94
-20.48
-9.84
1.31
11.41
19.48
25.33
29.26
31.74
32.98
32.91
31.31
28.16
23.84
19.06
14.70
11.44
9.56
8.89
8.99
9.34
9.56
9.49
9.11
8.41
7.26
5.48
2.84
-0.69
-4.92
-9.36
-13.43
-16.64
-18.74
-19.86
-20.46
-21.18
-22.64
-25.22
-28.88
-33.03
-36.58
-38.19
-36.68
-31.53
-23.13
-12.64
-1.68
8.33
16.51
22.69
27.10
30.06
31.67
31.83
30.39
27.40
23.25
18.62
14.34
11.13
9.38
9.08
9.88
11.14
12.27
12.84
12.73
12.06
11.02
9.71
8.00
5.67
2.55
-1.30
-5.50
-9.47
-12.66
-14.70
-15.66
-15.93
-16.15
-16.92
-18.68
-21.54
-25.25
-29.23
-32.56
-34.15
-33.02
-28.61
-21.08
-11.35
-0.84
8.94
16.97
22.88
26.87
29.40
30.77
30.93
29.63
26.69
22.35
17.31
12.59
9.08
7.32
7.22
8.21
9.53
10.54
10.91
10.71
10.17
9.46
8.57
7.25
5.14
2.04
-1.97
-6.48
-10.82
-14.35
-16.70
-17.81
-18.07
-18.06
-18.45
-19.70
-22.05
-25.39
-29.21
-32.69
-34.72
-34.23
-30.44
-23.27
-13.42
-2.25
8.67
18.01
25.04
29.63
32.00
32.42
31.03
27.91
23.33
17.88
12.46
8.01
5.18
4.06
4.20
4.87
5.36
5.27
4.58
3.48
2.23
0.90
-0.64
-2.67
-5.34
-8.61
-12.10
-15.26
-17.61
-18.96
-19.45
-19.57
-19.89
-20.91
-22.94
-25.91
-29.41
-32.57
-34.25
-33.31
-28.98
-21.32
-11.20
-0.12
10.35
19.06
25.53
29.86
32.37
33.28
32.62
30.39
26.71
22.08
17.23
12.99
10.04
8.71
8.87
10.02
11.42
12.38
12.50
11.71
10.27
8.53
6.63
4.49
1.81
-1.64
-5.79
-10.18
-14.16
-17.14
-18.85
-19.50
-19.62
-19.86
-20.81
-22.79
-25.84
-29.62
-33.38
-36.00
-36.29
-33.35
-26.98
-17.81
-7.15
3.47
12.78
20.11
25.33
28.65
30.31
30.42
29.07
26.42
22.88
19.11
15.86
13.71
12.92
13.32
14.41
15.54
16.18
16.06
15.22
13.97
12.62
11.33
10.02
8.37
6.03
2.77
-1.31
-5.82
-10.13
-13.64
-16.01
-17.28
-17.86
-18.41
-19.59
-21.86
-25.31
-29.59
-33.80
-36.71
-37.03
-33.87
-27.16
-17.70
-6.99
3.33
12.03
18.60
23.19
26.25
28.13
28.86
28.25
26.17
22.81
18.79
14.96
12.13
10.74
10.69
11.47
12.36
12.79
12.57
11.84
10.96
10.19
9.48
8.49
6.74
3.93
0.07
-4.41
-8.85
-12.62
-15.32
-16.94
-17.79
-18.36
-19.13
-20.52
-22.78
-25.91
-29.66
-33.37
-36.05
-36.58
-34.08
-28.28
-19.68
-9.49
0.81
9.92
17.08
22.10
25.20
26.71
26.81
25.56
23.01
19.41
15.29
11.36
8.28
6.48
6.01
6.59
7.77
9.13
10.36
11.29
11.78
11.62
10.56
8.40
5.15
1.16
-3.03
-6.78
-9.68
-11.66
-13.02
-14.29
-15.99
-18.45
-21.68
-25.38
-28.90
-31.34
-31.72
-29.34
-24.02
-16.27
-7.18
1.96
10.06
16.55
21.35
24.69
26.75
27.58
27.03
25.08
21.91
18.01
14.10
10.88
8.80
7.92
7.96
8.46
8.97
9.24
9.29
9.22
9.07
8.65
7.54
5.31
1.83
-2.61
-7.34
-11.58
-14.77
-16.86
-18.19
-19.35
-20.91
-23.22
-26.35
-30.05
-33.75
-36.55
-37.40
-35.37
-30.04
-21.76
-11.58
-0.98
8.67
16.47
22.15
25.84
27.84
28.35
27.47
25.33
22.22
18.70
15.42
12.95
11.56
11.14
11.33
11.70
11.99
12.15
12.33
12.67
13.07
13.16
12.40
10.33
6.82
2.20
-2.82
-7.43
-10.99
-13.30
-14.59
-15.49
-16.75
-18.98
-22.48
-27.03
-31.88
-35.83
-37.54
-35.95
-30.68
-22.26
-11.96
-1.42
7.97
15.36
20.63
24.08
26.17
27.18
27.13
25.95
23.68
20.58
17.21
14.25
12.26
11.52
11.90
12.93
14.04
14.78
14.94
14.57
13.84
12.81
11.35
9.18
6.04
1.93
-2.83
-7.60
-11.72
-14.71
-16.51
-17.40
-17.94
-18.70
-20.14
-22.51
-25.79
-29.72
-33.68
-36.71
-37.71
-35.74
-30.42
-22.16
-12.07
-1.58
8.02
15.93
21.88
25.94
28.26
28.91
27.91
25.42
21.84
17.84
14.14
11.34
9.70
9.13
9.25
9.61
9.87
9.86
9.65
9.35
8.98
8.41
7.33
5.40
2.50
-1.18
-5.14
-8.75
-11.52
-13.26
-14.19
-14.78
-15.62
-17.25
-19.99
-23.88
-28.53
-33.12
-36.43
-37.18
-34.44
-28.04
-18.73
-8.00
2.44
11.22
17.70
21.96
24.54
26.03
26.75
26.68
25.63
23.53
20.55
17.15
13.96
11.52
10.13
9.75
10.09
10.76
11.36
11.70
11.71
11.40
10.70
9.47
7.52
4.70
1.07
-3.07
-7.22
-10.87
-13.61
-15.35
-16.29
-16.83
-17.45
-18.55
-20.44
-23.24
-26.88
-30.95
-34.68
-36.96
-36.63
-32.90
-25.72
-15.89
-4.89
5.68
14.55
21.17
25.62
28.37
29.85
30.28
29.64
27.84
24.94
21.32
17.59
14.46
12.52
12.01
12.77
14.25
15.82
16.92
17.26
16.83
15.77
14.19
12.12
9.48
6.20
2.35
-1.80
-5.86
-9.45
-12.33
-14.44
-15.92
-17.00
-17.90
-18.76
-19.71
-20.84
-22.35
-24.44
-27.24
-30.51
-33.52
-35.14
-34.13
-29.68
-21.79
-11.38
-0.06
10.45
18.88
24.72
28.14
29.66
29.76
28.69
26.51
23.32
19.48
15.64
12.54
10.76
10.43
11.22
12.47
13.45
13.70
13.15
12.02
10.66
9.38
8.26
7.15
5.74
3.74
0.96
-2.50
-6.35
-10.13
-13.41
-15.93
-17.66
-18.81
-19.71
-20.71
-22.08
-24.01
-26.57
-29.55
-32.42
-34.24
-33.93
-30.61
-24.04
-14.86
-4.39
5.81
14.48
21.00
25.37
27.91
28.88
28.33
26.25
22.78
18.43
13.96
10.20
7.67
6.44
6.20
6.44
6.73
6.91
7.00
7.09
7.17
6.99
6.21
4.52
1.82
-1.63
-5.30
-8.64
-11.21
-12.93
-14.04
-14.99
-16.26
-18.24
-21.11
-24.76
-28.65
-31.86
-33.23
-31.65
-26.58
-18.32
-8.03
2.66
12.17
19.51
24.47
27.38
28.73
28.84
27.76
25.43
21.95
17.76
13.54
10.02
7.67
6.57
6.46
6.86
7.36
7.69
7.79
7.73
7.52
7.05
6.06
4.25
1.44
-2.26
-6.41
-10.33
-13.40
-15.32
-16.25
-16.77
-17.61
-19.42
-22.45
-26.48
-30.78
-34.31
-35.84
-34.38
-29.47
-21.37
-11.14
-0.28
9.69
17.69
23.35
26.88
28.73
29.25
28.49
26.43
23.09
18.87
14.43
10.57
7.88
6.63
6.62
7.41
8.48
9.44
10.09
10.44
10.48
10.18
9.37
7.82
5.37
2.08
-1.76
-5.65
-9.08
-11.66
-13.33
-14.32
-15.14
-16.33
-18.35
-21.37
-25.18
-29.13
-32.20
-33.25
-31.36
-26.22
-18.27
-8.65
1.26
10.25
17.64
23.28
27.38
30.09
31.38
31.02
28.84
24.99
20.05
14.89
10.43
7.29
5.64
5.21
5.42
5.71
5.71
5.35
4.77
4.14
3.47
2.56
1.09
-1.14
-4.12
-7.53
-10.87
-13.70
-15.76
-17.08
-17.96
-18.82
-20.05
-21.93
-24.55
-27.77
-31.07
-33.63
-34.40
-32.42
-27.19
-18.96
-8.71
2.07
11.91
19.73
25.07
28.05
29.10
28.71
27.23
24.83
21.69
18.04
14.24
10.74
7.96
6.20
5.48
5.61
6.23
6.96
7.46
7.54
7.08
6.05
4.43
2.24
-0.41
-3.34
-6.31
-9.06
-11.47
-13.54
-15.48
-17.65
-20.46
-24.05
-28.12
-31.74
-33.60
-32.36
-27.30
-18.64
-7.65
3.82
13.98
21.64
26.51
28.98
29.69
29.12
27.47
24.76
21.07
16.76
12.45
8.79
6.23
4.88
4.53
4.80
5.32
5.86
6.33
6.65
6.67
6.13
4.75
2.35
-0.98
-4.90
-8.89
-12.38
-15.03
-16.77
-17.85
-18.74
-20.03
-22.25
-25.63
-29.87
-34.06
-36.80
-36.64
-32.65
-24.84
-14.29
-2.76
7.96
16.61
22.77
26.67
28.81
29.58
29.05
27.19
24.05
20.00
15.70
11.90
9.19
7.83
7.66
8.26
9.10
9.79
10.15
10.16
9.92
9.42
8.54
7.04
4.73
1.59
-2.18
-6.13
-9.76
-12.72
-14.93
-16.57
-18.02
-19.66
-21.83
-24.70
-28.11
-31.53
-34.00
-34.33
-31.55
-25.33
-16.24
-5.64
4.80
13.70
20.35
24.82
27.57
29.00
29.28
28.29
25.99
22.59
18.70
15.09
12.47
11.18
11.13
11.87
12.79
13.38
13.39
12.87
12.05
11.17
10.32
9.34
7.94
5.81
2.79
-0.98
-5.11
-9.05
-12.31
-14.61
-16.00
-16.80
-17.48
-18.57
-20.44
-23.34
-27.19
-31.55
-35.48
-37.68
-36.88
-32.33
-24.19
-13.58
-2.28
7.95
15.95
21.37
24.58
26.21
26.74
26.31
24.78
22.06
18.28
13.90
9.66
6.24
4.15
3.50
4.00
5.13
6.31
7.11
7.39
7.20
6.66
5.81
4.55
2.70
0.17
-2.87
-6.07
-8.95
-11.09
-12.33
-12.78
-12.79
-12.81
-13.24
-14.37
-16.32
-19.09
-22.42
-25.75
-28.17
-28.67
-26.39
-21.03
-13.04
-3.48
6.31
15.19
22.43
27.83
31.44
33.32
33.45
31.77
28.42
23.85
18.81
14.12
10.45
8.08
6.90
6.54
6.52
6.46
6.20
5.73
5.19
4.64
4.02
3.14
1.74
-0.36
-3.09
-6.15
-9.06
-11.37
-12.86
-13.64
-14.08
-14.70
-15.95
-18.09
-21.19
-25.00
-28.96
-32.17
-33.52
-31.96
-26.97
-18.81
-8.53
2.34
12.28
20.29
26.01
29.61
31.44
31.75
30.59
27.98
24.14
19.55
14.96
11.10
8.51
7.33
7.30
7.95
8.75
9.28
9.40
9.10
8.47
7.54
6.24
4.40
1.93
-1.11
-4.46
-7.74
-10.54
-12.62
-14.00
-14.96
-15.98
-17.54
-19.96
-23.24
-27.06
-30.71
-33.23
-33.59
-31.00
-25.20
-16.66
-6.52
3.76
12.78
19.69
24.26
26.79
27.73
27.44
26.03
23.52
20.01
15.86
11.62
7.95
5.36
4.03
3.84
4.44
5.41
6.39
7.17
7.64
7.71
7.22
5.88
3.40
-0.37
-5.28
-10.81
-16.18
-20.63
-23.71
-25.48
-26.46
-27.45
-29.13
-31.66
-34.47
-36.40
-36.05
-32.38
-25.20
-15.31
-4.22
6.32
14.98
21.18
25.06
27.18
28.08
28.01
26.92
24.63
21.16
16.83
12.31
8.32
5.44
3.94
3.67
4.24
5.16
6.00
6.52
6.58
6.12
5.02
3.17
0.52
-2.80
-6.45
-9.97
-12.97
-15.29
-17.13
-19.01
-21.52
-24.99
-29.16
-33.03
-35.15
-34.12
-29.18
-20.63
-9.77
1.57
11.71
19.59
24.96
28.18
29.72
29.97
28.98
26.80
23.56
19.71
15.80
12.42
9.88
8.23
7.37
7.10
7.31
7.86
8.54
9.02
8.90
7.79
5.53
2.25
-1.67
-5.71
-9.41
-12.51
-14.94
-16.84
-18.46
-20.15
-22.28
-25.14
-28.70
-32.43
-35.36
-36.23
-33.97
-28.18
-19.29
-8.57
2.40
12.18
19.87
25.20
28.32
29.57
29.27
27.65
24.98
21.64
18.19
15.19
13.10
12.09
12.04
12.54
13.13
13.49
13.52
13.34
13.12
12.85
12.28
10.97
8.49
4.70
-0.08
-5.17
-9.77
-13.25
-15.46
-16.70
-17.55
-18.67
-20.48
-23.20
-26.75
-30.72
-34.40
-36.78
-36.75
-33.50
-26.86
-17.52
-6.82
3.68
12.69
19.57
24.33
27.31
28.87
29.18
28.22
26.01
22.75
18.96
15.34
12.52
10.88
10.38
10.66
11.16
11.41
11.21
10.63
9.91
9.20
8.41
7.17
5.07
1.85
-2.33
-6.93
-11.13
-14.27
-16.04
-16.68
-16.83
-17.28
-18.68
-21.33
-25.10
-29.46
-33.53
-36.22
-36.49
-33.63
-27.52
-18.76
-8.50
1.86
11.14
18.63
24.14
27.86
30.04
30.84
30.25
28.31
25.15
21.20
17.08
13.48
10.97
9.74
9.66
10.28
11.07
11.62
11.75
11.52
11.01
10.25
9.12
7.44
5.11
2.24
-0.88
-3.81
-6.19
-7.88
-8.99
-9.87
-10.96
-12.68
-15.26
-18.62
-22.22
-25.15
-26.22
-24.39
-19.20
-11.02
-1.05
9.05
17.69
23.84
27.15
27.91
26.68
23.97
20.21
15.79
11.16
6.90
3.62
1.72
1.25
1.94
3.19
4.38
5.02
4.93
4.21
3.16
2.04
0.96
-0.18
-1.64
-3.57
-5.91
-8.34
-10.38
-11.65
-11.99
-11.57
-10.75
-9.94
-9.49
-9.65
-10.52
-12.02
-13.83
-15.30
-15.52
-13.61
-9.11
-2.21
6.16
14.64
21.87
26.92
29.48
29.76
28.29
25.57
22.01
17.95
13.79
10.02
7.20
5.70
5.56
6.41
7.49
7.98
7.21
4.94
1.37
-2.91
-7.22
-11.05
-14.22
-16.91
-19.43
-22.02
-24.57
-26.69
-27.87
-27.75
-26.42
-24.41
-22.51
-21.39
-21.40
-22.40
-23.86
-24.98
-24.95
-23.06
-18.93
-12.65
-4.80
3.62
11.49
17.85
22.23
24.57
25.21
24.55
22.93
20.53
17.47
13.94
10.28
6.97
4.45
3.00
2.64
3.12
4.04
5.01
5.79
6.32
6.63
6.71
6.37
5.33
3.36
0.47
-2.98
-6.41
-9.19
-10.93
-11.59
-11.54
-11.30
-11.45
-12.33
-14.05
-16.43
-19.06
-21.36
-22.61
-22.17
-19.61
-14.89
-8.50
-1.32
5.54
11.08
14.67
16.19
15.92
14.38
12.11
9.51
6.89
4.46
2.41
0.91
0.04
-0.20
0.07
0.66
1.44
2.31
3.21
4.04
4.60
4.67
4.00
2.57
0.57
-1.60
-3.50
-4.83
-5.55
-5.90
-6.30
-7.21
-8.95
-11.62
-15.06
-18.75
-21.88
-23.49
-22.70
-19.09
-12.83
-4.77
3.85
11.81
18.13
22.33
24.28
24.17
22.29
19.07
15.01
10.67
6.58
3.16
0.62
-1.06
-2.00
-2.39
-2.39
-2.13
-1.69
-1.13
-0.53
-0.04
0.11
-0.33
-1.53
-3.50
-6.01
-8.71
-11.26
-13.42
-15.16
-16.59
-17.95
-19.43
-21.27
-23.55
-26.16
-28.67
-30.31
-30.12
-27.35
-21.78
-13.90
-4.81
4.18
11.95
17.95
22.12
24.67
25.85
25.70
24.24
21.57
18.10
14.50
11.53
9.78
9.42
10.22
11.59
12.94
13.87
14.26
14.22
13.91
13.34
12.41
10.94
8.88
6.45
4.05
2.15
1.02
0.58
0.42
-0.03
-1.29
-3.67
-7.12
-11.31
-15.53
-18.83
-20.20
-18.77
-14.20
-6.83
2.32
11.82
20.28
26.70
30.63
32.10
31.39
28.85
24.87
19.96
14.79
10.08
6.42
4.07
2.88
2.49
2.44
2.47
2.48
2.53
2.67
2.79
2.70
2.14
0.97
-0.78
-2.89
-5.03
-6.91
-8.33
-9.29
-9.97
-10.65
-11.64
-13.19
-15.40
-18.14
-20.97
-23.13
-23.72
-21.95
-17.49
-10.71
-2.60
5.53
12.52
17.68
20.90
22.42
22.57
21.53
19.32
16.06
12.09
8.04
4.60
2.33
1.39
1.57
2.47
3.60
4.64
5.40
5.74
5.55
4.78
3.40
1.49
-0.71
-2.96
-5.01
-6.81
-8.44
-10.17
-12.28
-14.92
-18.01
-21.12
-23.56
-24.57
-23.58
-20.46
-15.60
-9.81
-4.05
0.85
4.42
6.54
7.36
7.09
5.92
4.02
1.57
-1.13
-3.65
-5.51
-6.34
-6.01
-4.71
-2.97
-1.39
-0.54
-0.66
-1.63
-3.04
-4.42
-5.42
-5.93
-6.13
-6.33
-6.86
-7.93
-9.60
-11.78
-14.20
-16.36
-17.63
-17.31
-14.93
-10.39
-4.15
2.92
9.76
15.42
19.38
21.50
21.91
20.85
18.55
15.23
11.23
7.08
3.41
0.85
-0.31
-0.13
0.89
2.05
2.70
2.43
1.22
-0.66
-2.76
-4.72
-6.30
-7.52
-8.53
-9.57
-10.83
-12.50
-14.69
-17.36
-20.28
-22.86
-24.28
-23.63
-20.33
-14.39
-6.51
2.05
9.95
16.13
20.10
21.92
21.98
20.70
18.35
15.07
11.00
6.53
2.21
-1.27
-3.40
-3.99
-3.31
-1.96
-0.62
0.17
0.23
-0.28
-1.03
-1.71
-2.17
-2.52
-3.07
-4.18
-6.19
-9.34
-13.68
-19.06
-24.96
-30.46
-34.33
-35.29
-32.46
-25.74
-15.96
-4.70
6.22
15.28
21.65
25.22
26.40
25.73
23.63
20.42
16.37
11.92
7.68
4.31
2.34
1.93
2.86
4.54
6.27
7.42
7.57
6.65
4.82
2.40
-0.27
-2.91
-5.41
-7.74
-9.94
-12.07
-14.26
-16.70
-19.61
-23.12
-26.93
-30.28
-31.99
-30.87
-26.20
-18.16
-7.86
3.04
12.88
20.55
25.65
28.39
29.24
28.58
26.61
23.44
19.36
14.93
10.93
8.10
6.84
7.05
8.18
9.48
10.28
10.33
9.74
8.88
8.05
7.32
6.44
5.02
2.76
-0.39
-4.12
-7.95
-11.33
-13.92
-15.63
-16.65
-17.37
-18.26
-19.79
-22.27
-25.75
-29.75
-33.27
-34.98
-33.57
-28.38
-19.73
-8.83
2.56
12.82
20.95
26.70
30.30
32.11
32.31
30.93
28.01
23.87
19.17
14.76
11.39
9.48
9.02
9.59
10.59
11.41
11.68
11.25
10.26
8.96
7.57
6.19
4.72
2.98
0.81
-1.86
-4.91
-8.06
-10.93
-13.22
-14.75
-15.61
-16.11
-16.67
-17.71
-19.54
-22.25
-25.69
-29.39
-32.53
-34.09
-32.99
-28.59
-20.85
-10.58
0.77
11.56
20.40
26.56
29.95
30.98
30.19
28.05
24.89
21.05
16.93
13.08
10.06
8.25
7.77
8.42
9.76
11.28
12.50
13.12
12.98
12.11
10.62
8.67
6.37
3.77
0.87
-2.29
-5.62
-8.85
-11.70
-13.90
-15.37
-16.23
-16.77
-17.32
-18.15
-19.42
-21.28
-23.74
-26.62
-29.36
-31.02
-30.46
-26.74
-19.62
-9.75
1.42
12.20
21.14
27.46
31.08
32.37
31.80
29.72
26.42
22.21
17.58
13.16
9.62
7.42
6.72
7.30
8.63
10.01
10.86
10.85
10.03
8.75
7.46
6.44
5.65
4.74
3.25
0.92
-2.21
-5.70
-8.98
-11.56
-13.20
-14.03
-14.35
-14.58
-15.08
-16.13
-17.88
-20.32
-23.19
-25.91
-27.56
-27.14
-23.86
-17.51
-8.60
1.68
11.88
20.62
27.06
30.86
32.21
31.50
29.14
25.52
20.98
16.00
11.15
7.08
4.27
2.92
2.85
3.57
4.54
5.32
5.74
5.86
5.76
5.47
4.83
3.61
1.69
-0.86
-3.70
-6.39
-8.56
-10.11
-11.17
-12.08
-13.30
-15.15
-17.80
-21.12
-24.60
-27.39
-28.40
-26.65
-21.68
-13.80
-4.07
6.01
14.98
21.91
26.49
28.90
29.48
28.51
26.07
22.33
17.63
12.63
8.13
4.85
3.09
2.74
3.31
4.19
4.90
5.17
5.04
4.66
4.18
3.60
2.73
1.33
-0.73
-3.40
-6.32
-9.05
-11.19
-12.62
-13.53
-14.33
-15.53
-17.53
-20.43
-24.04
-27.70
-30.45
-31.15
-28.83
-23.07
-14.29
-3.66
7.21
16.76
23.93
28.31
30.08
29.71
27.67
24.38
20.22
15.63
11.17
7.44
4.90
3.77
3.90
4.87
6.14
7.23
7.85
7.96
7.66
7.04
6.05
4.57
2.43
-0.42
-3.78
-7.30
-10.53
-13.10
-14.82
-15.74
-16.17
-16.63
-17.68
-19.73
-22.74
-26.10
-28.65
-29.02
-26.15
-19.76
-10.57
-0.02
10.21
18.75
24.90
28.57
30.08
29.78
27.88
24.54
20.03
14.90
9.93
5.94
3.48
2.60
2.93
3.88
4.89
5.62
6.01
6.08
5.85
5.22
4.04
2.17
-0.35
-3.32
-6.35
-9.08
-11.23
-12.75
-13.83
-14.85
-16.26
-18.44
-21.50
-25.18
-28.77
-31.24
-31.43
-28.51
-22.21
-13.12
-2.50
8.04
17.06
23.67
27.68
29.43
29.44
28.18
25.91
22.81
19.07
15.00
11.02
7.55
4.92
3.34
2.84
3.33
4.52
5.95
7.09
7.44
6.65
4.67
1.78
-1.58
-4.92
-7.87
-10.25
-12.14
-13.73
-15.35
-17.33
-19.92
-23.13
-26.57
-29.39
-30.46
-28.69
-23.44
-14.95
-4.33
6.77
16.60
23.91
28.24
29.82
29.30
27.34
24.37
20.62
16.25
11.59
7.13
3.46
1.00
-0.10
-0.10
0.55
1.29
1.70
1.57
0.91
-0.15
-1.46
-2.89
-4.42
-6.07
-7.88
-9.89
-12.12
-14.55
-17.25
-20.30
-23.73
-27.30
-30.37
-31.88
-30.66
-25.94
-17.77
-7.19
4.10
14.31
22.22
27.41
30.17
31.02
30.34
28.25
24.77
20.17
15.06
10.31
6.68
4.55
3.77
3.86
4.24
4.60
4.85
5.06
5.28
5.33
4.93
3.77
1.72
-1.07
-4.23
-7.31
-9.95
-11.98
-13.46
-14.64
-15.93
-17.77
-20.48
-24.05
-27.91
-31.02
-32.03
-29.87
-24.17
-15.48
-5.14
5.22
14.25
21.23
26.05
29.01
30.41
30.35
28.82
25.88
21.86
17.43
13.35
10.25
8.39
7.64
7.59
7.85
8.11
8.29
8.43
8.54
8.49
8.00
6.75
4.54
1.37
-2.40
-6.24
-9.53
-11.83
-13.03
-13.42
-13.58
-14.18
-15.76
-18.50
-22.05
-25.53
-27.70
-27.29
-23.48
-16.21
-6.31
4.73
15.24
23.83
29.75
32.82
33.34
31.71
28.33
23.61
18.06
12.32
7.14
3.14
0.64
-0.44
-0.49
-0.09
0.29
0.38
0.21
-0.05
-0.27
-0.53
-1.04
-2.09
-3.85
-6.17
-8.70
-10.94
-12.49
-13.23
-13.29
-13.08
-13.10
-13.79
-15.42
-17.92
-20.80
-23.14
-23.89
-22.11
-17.43
-10.21
-1.50
7.28
14.85
20.41
23.74
25.05
24.72
23.06
20.24
16.46
12.02
7.50
3.56
0.81
-0.47
-0.39
0.56
1.75
2.64
2.95
2.74
2.21
1.56
0.80
-0.25
-1.85
-4.10
-6.81
-9.53
-11.73
-13.10
-13.67
-13.84
-14.16
-15.14
-17.04
-19.86
-23.29
-26.74
-29.34
-30.06
-27.99
-22.68
-14.46
-4.40
5.93
15.04
21.93
26.33
28.49
28.87
27.80
25.40
21.78
17.24
12.43
8.24
5.48
4.58
5.41
7.27
9.26
10.56
10.74
9.81
8.16
6.25
4.44
2.85
1.35
-0.23
-2.11
-4.29
-6.66
-9.03
-11.19
-13.04
-14.60
-15.94
-17.16
-18.31
-19.45
-20.73
-22.36
-24.49
-27.07
-29.54
-30.96
-30.16
-26.26
-19.11
-9.44
1.31
11.43
19.60
25.17
28.17
29.09
28.47
26.70
23.99
20.51
16.62
12.81
9.69
7.75
7.18
7.81
9.22
10.84
12.20
12.93
12.93
12.25
11.05
9.56
7.89
6.09
4.06
1.67
-1.16
-4.34
-7.61
-10.60
-12.93
-14.43
-15.15
-15.41
-15.65
-16.29
-17.63
-19.74
-22.52
-25.63
-28.55
-30.47
-30.50
-27.83
-22.09
-13.62
-3.44
6.95
16.09
22.97
27.27
29.24
29.44
28.35
26.27
23.33
19.72
15.78
12.03
9.06
7.31
6.92
7.69
9.13
10.63
11.63
11.81
11.12
9.77
8.04
6.19
4.29
2.23
-0.13
-2.90
-5.97
-9.06
-11.79
-13.87
-15.20
-15.92
-16.37
-16.87
-17.72
-19.07
-21.00
-23.51
-26.43
-29.33
-31.48
-31.92
-29.77
-24.62
-16.75
-7.15
2.81
11.77
18.84
23.72
26.51
27.54
27.02
25.08
21.86
17.66
13.06
8.83
5.70
4.12
4.10
5.19
6.73
8.09
8.89
9.11
8.91
8.47
7.79
6.68
4.88
2.23
-1.14
-4.78
-8.17
-10.83
-12.58
-13.57
-14.20
-14.93
-16.12
-18.02
-20.67
-23.92
-27.32
-30.10
-31.22
-29.72
-25.01
-17.25
-7.39
3.10
12.75
20.47
25.86
29.03
30.36
30.17
28.56
25.54
21.24
16.13
10.97
6.65
3.88
2.97
3.63
5.20
6.84
7.92
8.15
7.68
6.85
5.97
5.12
4.14
2.70
0.55
-2.30
-5.56
-8.75
-11.38
-13.19
-14.24
-14.87
-15.53
-16.61
-18.32
-20.63
-23.36
-26.22
-28.73
-30.24
-29.92
-27.04
-21.27
-12.96
-3.13
6.78
15.43
22.00
26.32
28.71
29.58
29.18
27.55
24.68
20.84
16.57
12.62
9.71
8.23
8.17
9.16
10.67
12.14
13.15
13.49
13.13
12.16
10.73
8.95
6.85
4.41
1.62
-1.44
-4.55
-7.43
-9.84
-11.69
-13.07
-14.19
-15.29
-16.58
-18.18
-20.17
-22.56
-25.21
-27.69
-29.31
-29.17
-26.55
-21.18
-13.45
-4.38
4.72
12.70
18.89
23.11
25.57
26.54
26.14
24.37
21.25
17.02
12.25
7.76
4.30
2.39
2.05
2.86
4.13
5.24
5.79
5.77
5.38
4.90
4.41
3.73
2.53
0.51
-2.40
-5.91
-9.48
-12.51
-14.65
-15.87
-16.51
-17.12
-18.14
-19.84
-22.20
-24.97
-27.74
-29.90
-30.70
-29.38
-25.33
-18.50
-9.45
0.65
10.34
18.39
24.12
27.47
28.75
28.35
26.48
23.28
18.97
14.06
9.37
5.78
3.89
3.77
4.95
6.62
8.02
8.71
8.72
8.33
7.88
7.45
6.88
5.80
3.90
1.11
-2.35
-6.03
-9.40
-12.05
-13.83
-14.86
-15.49
-16.18
-17.33
-19.26
-22.02
-25.38
-28.75
-31.17
-31.52
-28.88
-22.90
-14.08
-3.65
6.77
15.73
22.39
26.64
28.84
29.42
28.64
26.50
23.05
18.60
13.83
9.65
6.84
5.75
6.23
7.68
9.33
10.54
10.90
10.36
9.12
7.52
5.82
4.18
2.56
0.77
-1.40
-4.01
-6.95
-9.89
-12.44
-14.29
-15.39
-15.96
-16.41
-17.16
-18.56
-20.74
-23.64
-26.92
-29.95
-31.81
-31.46
-28.06
-21.33
-11.84
-0.87
9.96
19.28
26.29
30.94
33.55
34.53
34.06
32.15
28.84
24.40
19.49
14.91
11.42
9.43
8.87
9.28
10.03
10.57
10.54
9.89
8.77
7.39
5.97
4.56
3.08
1.39
-0.61
-2.93
-5.40
-7.74
-9.69
-11.08
-12.04
-12.87
-14.05
-15.94
-18.74
-22.32
-26.28
-29.98
-32.53
-33.02
-30.68
-25.19
-16.87
-6.73
3.85
13.43
20.98
26.07
28.79
29.51
28.59
26.29
22.81
18.44
13.74
9.41
6.15
4.36
4.03
4.74
5.84
6.74
7.12
6.93
6.38
5.72
5.04
4.30
3.25
1.65
-0.61
-3.45
-6.58
-9.58
-12.08
-13.93
-15.17
-16.10
-17.05
-18.29
-19.99
-22.18
-24.79
-27.48
-29.67
-30.50
-29.05
-24.71
-17.49
-8.19
1.85
11.22
18.88
24.40
27.89
29.65
29.86
28.51
25.57
21.24
16.11
11.12
7.22
5.03
4.64
5.60
7.12
8.44
9.10
8.98
8.28
7.28
6.14
4.82
3.14
0.88
-2.01
-5.34
-8.71
-11.67
-13.90
-15.33
-16.17
-16.82
-17.73
-19.22
-21.46
-24.37
-27.58
-30.38
-31.80
-30.82
-26.80
-19.78
-10.62
-0.73
8.42
15.85
21.31
25.11
27.70
29.26
29.58
28.27
25.14
20.50
15.18
10.33
6.91
5.39
5.64
7.01
8.68
9.98
10.62
10.70
10.49
10.20
9.75
8.79
6.89
3.83
-0.24
-4.73
-8.81
-11.81
-13.41
-13.81
-13.62
-13.56
-14.28
-16.19
-19.36
-23.46
-27.77
-31.18
-32.45
-30.53
-24.99
-16.32
-5.81
4.82
14.04
20.97
25.50
28.10
29.27
29.30
28.14
25.66
21.93
17.42
12.93
9.27
7.03
6.28
6.67
7.60
8.49
8.95
8.87
8.38
7.69
6.94
6.13
5.11
3.62
1.50
-1.27
-4.43
-7.57
-10.28
-12.32
-13.68
-14.60
-15.40
-16.36
-17.66
-19.37
-21.51
-24.04
-26.71
-29.00
-30.09
-29.07
-25.29
-18.65
-9.75
0.25
9.96
18.21
24.27
27.96
29.39
28.85
26.58
22.93
18.34
13.44
8.97
5.58
3.59
2.93
3.26
4.04
4.87
5.53
5.95
6.19
6.22
5.92
5.05
3.42
0.96
-2.14
-5.47
-8.56
-10.99
-12.61
-13.56
-14.18
-14.96
-16.35
-18.61
-21.72
-25.29
-28.52
-30.35
-29.68
-25.83
-18.80
-9.43
0.90
10.69
18.79
24.63
28.19
29.71
29.46
27.62
24.37
20.07
15.30
10.77
7.18
4.93
4.03
4.19
4.88
5.63
6.12
6.26
6.13
5.81
5.26
4.30
2.70
0.33
-2.67
-5.89
-8.81
-11.03
-12.47
-13.37
-14.21
-15.45
-17.47
-20.35
-23.91
-27.66
-30.74
-32.14
-30.85
-26.30
-18.62
-8.79
1.70
11.29
18.84
23.96
26.84
27.99
27.86
26.63
24.33
21.03
17.06
13.05
9.72
7.63
6.93
7.33
8.24
9.08
9.53
9.58
9.47
9.39
9.28
8.80
7.44
4.83
0.98
-3.62
-8.22
-12.02
-14.54
-15.75
-16.07
-16.17
-16.77
-18.36
-21.12
-24.75
-28.56
-31.51
-32.47
-30.51
-25.29
-17.17
-7.19
3.24
12.79
20.57
26.21
29.75
31.39
31.26
29.42
26.00
21.43
16.44
11.95
8.72
7.08
6.86
7.47
8.27
8.78
8.87
8.64
8.30
7.92
7.38
6.39
4.67
2.07
-1.28
-4.99
-8.53
-11.40
-13.32
-14.35
-14.81
-15.21
-16.04
-17.63
-20.09
-23.22
-26.47
-29.01
-29.85
-28.10
-23.36
-15.83
-6.45
3.47
12.62
20.01
25.16
28.03
28.76
27.55
24.62
20.32
15.28
10.33
6.37
4.00
3.31
3.90
4.98
5.82
6.03
5.63
4.94
4.32
3.86
3.32
2.27
0.33
-2.54
-6.01
-9.48
-12.35
-14.29
-15.33
-15.84
-16.39
-17.51
-19.57
-22.55
-26.02
-29.12
-30.76
-29.84
-25.67
-18.29
-8.52
2.21
12.28
20.38
25.83
28.59
29.11
27.96
25.61
22.37
18.47
14.25
10.17
6.71
4.23
2.85
2.40
2.53
2.92
3.32
3.68
3.98
4.20
4.11
3.44
1.94
-0.42
-3.42
-6.59
-9.44
-11.65
-13.19
-14.34
-15.57
-17.33
-19.93
-23.35
-27.14
-30.41
-32.05
-30.96
-26.49
-18.75
-8.67
2.24
12.36
20.48
26.08
29.24
30.39
29.90
28.01
24.84
20.63
15.89
11.33
7.70
5.45
4.60
4.78
5.45
6.14
6.58
6.78
6.82
6.72
6.29
5.24
3.31
0.45
-3.08
-6.77
-10.04
-12.50
-14.03
-14.89
-15.54
-16.55
-18.37
-21.19
-24.84
-28.59
-31.32
-31.74
-28.88
-22.54
-13.45
-3.11
6.79
14.97
20.89
24.68
26.81
27.64
27.24
25.48
22.35
18.20
13.75
9.87
7.22
6.03
6.04
6.66
7.34
7.66
7.58
7.27
6.98
6.81
6.60
5.95
4.47
1.93
-1.54
-5.45
-9.14
-12.06
-13.98
-15.08
-15.83
-16.82
-18.56
-21.27
-24.86
-28.92
-32.64
-35.02
-35.00
-31.83
-25.40
-16.32
-5.84
4.64
13.87
21.16
26.31
29.44
30.73
30.33
28.34
25.02
20.91
16.75
13.32
11.18
10.51
11.04
12.20
13.36
14.00
13.94
13.27
12.24
11.07
9.87
8.55
6.90
4.75
2.00
-1.25
-4.79
-8.27
-11.36
-13.76
-15.36
-16.26
-16.77
-17.37
-18.56
-20.67
-23.73
-27.34
-30.66
-32.56
-31.95
-28.09
-21.00
-11.47
-0.89
9.18
17.45
23.29
26.69
28.08
27.98
26.71
24.38
21.08
17.05
12.90
9.41
7.31
6.91
7.92
9.52
10.74
10.92
9.94
8.23
6.49
5.24
4.57
4.07
3.14
1.26
-1.68
-5.37
-9.20
-12.53
-14.95
-16.42
-17.20
-17.77
-18.60
-20.07
-22.34
-25.28
-28.48
-31.19
-32.44
-31.29
-27.09
-19.87
-10.36
0.15
10.18
18.56
24.66
28.46
30.28
30.49
29.29
26.79
23.15
18.76
14.30
10.57
8.22
7.53
8.25
9.69
11.06
11.70
11.35
10.17
8.61
7.07
5.76
4.55
3.10
1.06
-1.64
-4.78
-7.86
-10.38
-12.09
-13.10
-13.80
-14.71
-16.20
-18.42
-21.27
-24.45
-27.47
-29.70
-30.31
-28.59
-24.11
-17.03
-8.16
1.29
10.05
17.24
22.52
25.99
27.87
28.30
27.24
24.63
20.67
15.96
11.42
7.95
6.14
6.01
7.02
8.35
9.28
9.44
8.90
8.03
7.14
6.34
5.40
3.94
1.72
-1.25
-4.63
-7.88
-10.52
-12.31
-13.35
-14.02
-14.77
-16.02
-18.01
-20.78
-24.15
-27.71
-30.72
-32.23
-31.24
-27.02
-19.55
-9.60
1.37
11.67
19.90
25.38
28.15
28.73
27.76
25.71
22.82
19.26
15.29
11.36
7.97
5.56
4.30
4.06
4.53
5.31
6.09
6.64
6.82
6.48
5.51
3.81
1.43
-1.39
-4.34
-7.04
-9.28
-11.06
-12.56
-14.10
-16.02
-18.58
-21.82
-25.52
-29.05
-31.46
-31.62
-28.64
-22.23
-12.95
-2.11
8.60
17.66
24.13
27.79
28.97
28.20
25.98
22.67
18.57
14.10
9.78
6.19
3.76
2.66
2.72
3.53
4.59
5.51
6.07
6.20
5.93
5.25
4.10
2.40
0.14
-2.54
-5.39
-8.04
-10.25
-11.92
-13.18
-14.34
-15.78
-17.84
-20.64
-24.04
-27.47
-29.96
-30.41
-27.87
-22.02
-13.34
-3.10
7.09
15.81
22.22
26.18
28.01
28.15
26.91
24.46
20.98
16.87
12.72
9.22
6.86
5.77
5.67
6.09
6.55
6.74
6.63
6.32
5.95
5.59
5.13
4.34
2.96
0.84
-1.99
-5.20
-8.36
-10.97
-12.76
-13.74
-14.25
-14.80
-15.91
-17.94
-20.95
-24.59
-28.12
-30.48
-30.53
-27.42
-20.95
-11.77
-1.22
9.06
17.67
23.90
27.71
29.56
29.97
29.20
27.31
24.25
20.23
15.77
11.66
8.62
7.05
6.88
7.62
8.60
9.26
9.33
8.83
8.02
7.12
6.20
5.12
3.56
1.31
-1.67
-5.07
-8.40
-11.14
-13.00
-13.98
-14.42
-14.81
-15.70
-17.53
-20.44
-24.19
-28.09
-31.11
-32.10
-30.17
-25.08
-17.32
-8.01
1.49
10.07
17.02
22.11
25.28
26.55
25.85
23.25
19.08
14.03
9.05
5.08
2.75
2.21
3.18
5.06
7.22
9.16
10.60
11.43
11.59
11.02
9.60
7.27
4.07
0.25
-3.75
-7.45
-10.39
-12.35
-13.37
-13.75
-13.95
-14.54
-16.02
-18.63
-22.21
-26.07
-29.09
-30.01
-27.83
-22.26
-13.87
-3.89
6.13
14.91
21.67
26.19
28.62
29.13
27.83
24.86
20.51
15.41
10.48
6.65
4.53
4.23
5.29
6.91
8.31
9.04
9.02
8.50
7.81
7.12
6.28
4.98
2.92
0.02
-3.45
-7.00
-10.05
-12.24
-13.53
-14.24
-14.88
-15.94
-17.76
-20.44
-23.81
-27.44
-30.62
-32.41
-31.81
-28.15
-21.35
-12.13
-1.84
7.99
16.12
21.99
25.66
27.52
27.93
27.03
24.79
21.32
17.06
12.77
9.33
7.37
7.04
7.96
9.44
10.80
11.60
11.78
11.50
11.01
10.34
9.31
7.62
4.98
1.38
-2.85
-7.09
-10.70
-13.22
-14.61
-15.22
-15.63
-16.41
-17.97
-20.43
-23.60
-27.03
-30.00
-31.58
-30.82
-27.07
-20.28
-11.13
-0.93
8.86
17.04
23.02
26.81
28.71
29.04
27.92
25.40
21.64
17.10
12.53
8.77
6.49
5.90
6.73
8.30
9.85
10.75
10.75
9.97
8.78
7.50
6.23
4.76
2.70
-0.24
-3.98
-8.06
-11.76
-14.43
-15.83
-16.16
-16.04
-16.14
-17.00
-18.85
-21.56
-24.70
-27.55
-29.20
-28.72
-25.40
-19.09
-10.36
-0.43
9.24
17.35
23.14
26.50
27.75
27.35
25.68
22.98
19.46
15.44
11.44
8.00
5.53
4.18
3.77
3.89
4.10
4.12
3.91
3.62
3.42
3.37
3.25
2.70
1.30
-1.14
-4.49
-8.26
-11.78
-14.45
-16.02
-16.63
-16.77
-17.07
-18.07
-20.09
-23.09
-26.68
-30.13
-32.43
-32.57
-29.80
-23.93
-15.47
-5.51
4.60
13.69
21.05
26.44
29.90
31.46
31.09
28.73
24.56
19.19
13.60
8.89
5.89
4.85
5.44
6.91
8.44
9.46
9.80
9.59
9.11
8.51
7.77
6.66
4.93
2.42
-0.80
-4.39
-7.90
-10.90
-13.11
-14.56
-15.52
-16.35
-17.41
-18.95
-21.08
-23.73
-26.59
-29.02
-30.12
-28.93
-24.76
-17.59
-8.23
1.96
11.49
19.26
24.80
28.24
29.93
30.11
28.79
25.93
21.72
16.76
11.96
8.24
6.19
5.80
6.58
7.79
8.75
9.07
8.77
8.08
7.31
6.64
5.98
5.08
3.58
1.27
-1.86
-5.51
-9.16
-12.27
-14.46
-15.68
-16.20
-16.55
-17.34
-19.01
-21.77
-25.43
-29.30
-32.36
-33.42
-31.51
-26.23
-17.98
-7.93
2.39
11.58
18.75
23.65
26.45
27.47
26.92
24.90
21.57
17.36
12.96
9.24
6.84
6.02
6.45
7.45
8.26
8.37
7.68
6.55
5.46
4.78
4.50
4.26
3.48
1.75
-0.99
-4.32
-7.60
-10.23
-11.96
-12.98
-13.80
-15.03
-17.14
-20.28
-24.13
-28.02
-30.92
-31.81
-29.83
-24.66
-16.71
-7.01
3.02
12.04
19.16
24.05
26.85
27.89
27.41
25.50
22.27
18.02
13.42
9.34
6.56
5.47
5.89
7.13
8.40
9.09
8.99
8.30
7.44
6.71
6.12
5.43
4.23
2.20
-0.68
-4.11
-7.56
-10.48
-12.57
-13.87
-14.73
-15.64
-17.02
-19.11
-21.92
-25.22
-28.54
-31.14
-32.14
-30.71
-26.35
-19.24
-10.16
-0.40
8.80
16.51
22.34
26.33
28.65
29.39
28.50
26.01
22.15
17.51
12.94
9.28
7.13
6.63
7.47
9.02
10.58
11.60
11.83
11.33
10.38
9.27
8.13
6.87
5.27
3.08
0.21
-3.17
-6.68
-9.88
-12.44
-14.20
-15.27
-15.90
-16.44
-17.29
-18.82
-21.26
-24.57
-28.18
-31.11
-32.06
-29.91
-24.18
-15.31
-4.62
6.18
15.51
22.42
26.69
28.61
28.66
27.23
24.53
20.77
16.39
12.02
8.45
6.31
5.77
6.56
8.02
9.36
10.02
9.81
8.89
7.64
6.37
5.16
3.85
2.10
-0.32
-3.38
-6.73
-9.87
-12.32
-13.87
-14.67
-15.14
-15.79
-17.02
-19.06
-21.90
-25.29
-28.67
-31.21
-31.86
-29.75
-24.50
-16.50
-6.84
3.02
11.76
18.63
23.48
26.54
28.09
28.19
26.74
23.72
19.44
14.60
10.13
6.85
5.18
5.00
5.77
6.78
7.44
7.54
7.15
6.59
6.12
5.78
5.34
4.40
2.61
-0.14
-3.58
-7.16
-10.26
-12.46
-13.70
-14.32
-14.86
-15.89
-17.80
-20.71
-24.39
-28.21
-31.24
-32.35
-30.59
-25.49
-17.37
-7.33
3.15
12.60
20.06
25.22
28.22
29.37
28.84
26.72
23.15
18.59
13.84
9.84
7.35
6.61
7.28
8.61
9.76
10.24
9.97
9.32
8.73
8.48
8.42
8.12
7.03
4.80
1.48
-2.46
-6.40
-9.70
-12.03
-13.39
-14.05
-14.52
-15.31
-16.85
-19.37
-22.76
-26.48
-29.57
-30.84
-29.22
-24.18
-16.03
-5.87
4.71
14.16
21.48
26.35
29.09
30.23
30.20
29.12
26.90
23.45
18.98
14.01
9.29
5.49
3.04
1.95
1.89
2.39
2.96
3.33
3.38
3.14
2.66
1.93
0.89
-0.57
-2.53
-4.98
-7.70
-10.39
-12.66
-14.21
-14.97
-15.18
-15.27
-15.76
-17.04
-19.29
-22.39
-25.89
-29.10
-31.09
-30.97
-28.04
-22.13
-13.71
-3.84
6.13
14.97
21.89
26.63
29.29
30.13
29.33
27.02
23.37
18.74
13.76
9.20
5.74
3.82
3.47
4.30
5.71
7.08
7.95
8.15
7.77
6.97
5.83
4.33
2.34
-0.15
-2.97
-5.77
-8.19
-10.01
-11.30
-12.37
-13.62
-15.44
-18.02
-21.34
-25.05
-28.43
-30.51
-30.21
-26.79
-20.14
-10.97
-0.62
9.37
17.76
23.92
27.79
29.66
29.78
28.28
25.19
20.74
15.45
10.16
5.79
2.98
1.90
2.23
3.33
4.58
5.61
6.33
6.84
7.24
7.41
7.05
5.84
3.60
0.51
-2.98
-6.26
-8.88
-10.66
-11.77
-12.61
-13.63
-15.18
-17.50
-20.63
-24.39
-28.28
-31.39
-32.57
-30.75
-25.46
-17.03
-6.67
4.00
13.47
20.84
25.84
28.73
29.83
29.31
27.24
23.72
19.13
14.19
9.81
6.72
5.25
5.21
6.04
7.07
7.79
8.01
7.85
7.55
7.26
6.92
6.28
4.99
2.85
-0.08
-3.49
-6.88
-9.75
-11.83
-13.16
-14.03
-14.89
-16.16
-18.14
-20.90
-24.29
-27.86
-30.81
-32.12
-30.81
-26.28
-18.63
-8.75
1.95
11.95
20.11
25.90
29.33
30.68
30.27
28.30
24.99
20.71
16.06
11.80
8.62
6.93
6.68
7.39
8.40
9.10
9.20
8.72
7.97
7.22
6.61
5.96
4.91
3.13
0.44
-2.96
-6.66
-10.10
-12.84
-14.71
-15.83
-16.55
-17.29
-18.44
-20.21
-22.66
-25.57
-28.43
-30.43
-30.60
-28.11
-22.61
-14.48
-4.71
5.33
14.34
21.43
26.25
28.85
29.45
28.32
25.64
21.75
17.11
12.41
8.37
5.53
4.12
3.96
4.60
5.50
6.24
6.61
6.60
6.31
5.81
5.05
3.86
2.08
-0.37
-3.37
-6.62
-9.71
-12.30
-14.21
-15.49
-16.40
-17.38
-18.89
-21.24
-24.41
-27.91
-30.75
-31.67
-29.58
-24.02
-15.41
-5.01
5.55
14.78
21.77
26.30
28.58
28.99
27.79
25.14
21.25
16.57
11.84
7.87
5.30
4.35
4.75
5.87
7.01
7.65
7.67
7.29
6.88
6.70
6.66
6.34
5.21
2.90
-0.51
-4.53
-8.40
-11.44
-13.33
-14.18
-14.52
-15.03
-16.34
-18.86
-22.58
-27.06
-31.33
-34.09
-34.08
-30.48
-23.31
-13.53
-2.69
7.57
16.05
22.26
26.32
28.58
29.32
28.59
26.35
22.77
18.38
14.01
10.57
8.66
8.36
9.25
10.58
11.66
12.06
11.75
10.99
10.13
9.32
8.46
7.22
5.21
2.25
-1.50
-5.58
-9.36
-12.34
-14.32
-15.47
-16.18
-16.94
-18.14
-20.06
-22.77
-26.11
-29.58
-32.32
-33.26
-31.40
-26.31
-18.27
-8.38
1.91
11.18
18.52
23.65
26.71
28.02
27.82
26.25
23.39
19.53
15.19
11.11
8.03
6.40
6.29
7.27
8.68
9.82
10.26
9.97
9.21
8.32
7.47
6.51
5.13
2.97
-0.04
-3.63
-7.24
-10.24
-12.26
-13.25
-13.54
-13.64
-14.09
-15.24
-17.26
-20.14
-23.68
-27.43
-30.60
-32.16
-31.07
-26.66
-18.98
-8.93
2.06
12.41
20.95
27.07
30.71
32.06
31.32
28.66
24.34
18.83
12.87
7.40
3.28
1.05
0.80
2.11
4.26
6.47
8.14
8.94
8.90
8.21
7.07
5.56
3.61
1.16
-1.76
-4.91
-7.91
-10.33
-11.97
-12.92
-13.57
-14.52
-16.34
-19.37
-23.56
-28.34
-32.67
-35.30
-35.04
-31.20
-23.86
-13.90
-2.77
7.99
17.18
24.16
28.86
31.52
32.34
31.41
28.76
24.62
19.51
14.27
9.81
6.83
5.58
5.79
6.81
7.91
8.59
8.66
8.27
7.68
7.06
6.36
5.33
3.65
1.18
-1.97
-5.42
-8.69
-11.41
-13.43
-14.90
-16.10
-17.37
-19.02
-21.23
-24.04
-27.17
-29.99
-31.55
-30.75
-26.84
-19.70
-10.04
0.75
11.10
19.69
25.85
29.48
30.89
30.40
28.26
24.67
20.00
14.86
10.09
6.47
4.42
3.91
4.48
5.47
6.30
6.70
6.66
6.35
5.93
5.39
4.57
3.21
1.12
-1.65
-4.79
-7.86
-10.43
-12.29
-13.52
-14.50
-15.71
-17.57
-20.27
-23.70
-27.40
-30.62
-32.41
-31.86
-28.36
-21.85
-12.96
-2.84
7.12
15.75
22.32
26.58
28.65
28.75
27.11
23.99
19.79
15.12
10.72
7.25
5.12
4.35
4.60
5.37
6.22
6.85
7.23
7.38
7.32
6.93
5.99
4.33
1.92
-0.98
-4.02
-6.80
-9.10
-10.91
-12.46
-14.08
-16.16
-19.00
-22.70
-26.99
-31.13
-33.93
-34.09
-30.67
-23.52
-13.49
-2.18
8.61
17.45
23.64
27.19
28.52
28.09
26.25
23.22
19.26
14.82
10.48
6.87
4.42
3.28
3.25
3.92
4.79
5.49
5.84
5.83
5.57
5.09
4.33
3.12
1.30
-1.14
-4.02
-6.95
-9.59
-11.73
-13.45
-15.11
-17.21
-20.11
-23.81
-27.74
-30.78
-31.62
-29.14
-22.97
-13.67
-2.68
8.17
17.20
23.35
26.42
26.84
25.39
22.78
19.51
15.86
12.03
8.29
4.94
2.33
0.66
-0.03
0.11
0.84
1.88
3.02
4.06
4.84
5.22
5.03
4.17
2.62
0.46
-2.09
-4.74
-7.24
-9.42
-11.31
-13.07
-14.90
-16.77
-18.35
-18.92
-17.65
-13.97
-7.89
-0.12
8.08
15.39
20.76
23.77
24.58
23.72
21.79
19.27
16.41
13.37
10.36
7.71
5.82
5.04
5.46
6.86
8.63
10.05
10.46
9.52
7.31
4.24
0.92
-2.12
-4.55
-6.30
-7.47
-8.24
-8.82
-9.39
-10.18
-11.45
-13.39
-15.98
-18.84
-21.19
-22.03
-20.47
-16.16
-9.40
-1.21
7.06
14.08
18.96
21.42
21.64
20.12
17.38
13.84
9.82
5.65
1.78
-1.28
-3.04
-3.22
-1.88
0.60
3.60
6.47
8.72
10.08
10.43
9.78
8.15
5.66
2.53
-0.81
-3.85
-6.12
-7.37
-7.68
-7.45
-7.26
-7.65
-8.90
-10.83
-12.81
-13.91
-13.27
-10.35
-5.33
1.01
7.46
12.82
16.25
17.49
16.76
14.56
11.43
7.80
4.03
0.43
-2.65
-4.96
-6.36
-6.89
-6.72
-6.04
-5.06
-3.95
-2.90
-2.13
-1.88
-2.22
-3.07
-4.19
-5.29
-6.21
-6.97
-7.77
-8.90
-10.52
-12.65
-15.10
-17.49
-19.28
-19.84
-18.57
-15.10
-9.51
-2.40
5.16
12.00
17.18
20.29
21.47
21.21
20.04
18.32
16.16
13.57
10.62
7.59
4.92
3.04
2.20
2.40
3.29
4.38
5.16
5.30
4.68
3.38
1.64
-0.33
-2.34
-4.36
-6.41
-8.49
-10.57
-12.56
-14.45
-16.33
-18.38
-20.61
-22.66
-23.70
-22.56
-18.30
-10.68
-0.55
10.40
20.18
27.21
30.88
31.53
30.10
27.60
24.62
21.28
17.41
12.94
8.09
3.43
-0.39
-2.92
-4.19
-4.63
-4.83
-5.35
-6.37
-7.84
-9.51
-11.16
-12.70
-14.14
-15.50
-16.73
-17.70
-18.34
-18.71
-19.10
-19.87
-21.25
-23.04
-24.56
-24.79
-22.70
-17.75
-10.21
-1.10
8.13
16.05
21.75
24.91
25.75
24.74
22.46
19.42
16.09
12.88
10.16
8.16
6.92
6.28
5.96
5.65
5.18
4.52
3.81
3.20
2.74
2.28
1.49
0.03
-2.20
-5.02
-7.95
-10.41
-12.00
-12.64
-12.64
-12.52
-12.83
-13.95
-15.92
-18.38
-20.54
-21.40
-20.00
-15.84
-9.11
-0.82
7.57
14.60
19.34
21.59
21.79
20.64
18.74
16.39
13.67
10.70
7.77
5.36
3.94
3.70
4.45
5.70
6.82
7.32
7.10
6.37
5.51
4.84
4.42
4.01
3.25
1.82
-0.34
-2.96
-5.62
-7.85
-9.40
-10.25
-10.63
-10.87
-11.30
-12.16
-13.58
-15.55
-17.86
-20.01
-21.25
-20.77
-17.97
-12.77
-5.72
2.12
9.42
15.05
18.37
19.30
18.25
15.81
12.53
8.87
5.18
1.86
-0.67
-2.06
-2.19
-1.25
0.28
1.82
2.94
3.52
3.70
3.76
3.86
3.91
3.65
2.76
1.08
-1.29
-4.09
-7.05
-9.94
-12.69
-15.30
-17.81
-20.28
-22.83
-25.61
-28.71
-31.97
-34.79
-36.21
-35.19
-31.06
-23.85
-14.45
-4.24
5.36
13.33
19.25
23.15
25.31
25.93
25.13
23.01
19.88
16.24
12.84
10.37
9.32
9.71
11.18
13.12
14.90
16.09
16.53
16.24
15.30
13.70
11.36
8.26
4.60
0.77
-2.70
-5.42
-7.24
-8.26
-8.79
-9.12
-9.49
-10.11
-11.15
-12.74
-14.81
-16.88
-18.13
-17.59
-14.59
-9.08
-1.84
5.88
12.77
17.94
21.12
22.56
22.65
21.71
19.84
17.05
13.52
9.70
6.27
3.84
2.70
2.73
3.41
4.12
4.42
4.17
3.55
2.84
2.26
1.85
1.48
0.93
0.02
-1.28
-2.86
-4.48
-5.91
-6.99
-7.71
-8.23
-8.87
-9.99
-11.93
-14.82
-18.47
-22.25
-25.17
-26.10
-24.17
-19.19
-11.85
-3.57
4.01
9.54
12.43
12.91
11.74
9.75
7.52
5.29
3.06
0.83
-1.23
-2.81
-3.59
-3.40
-2.30
-0.62
1.22
2.83
3.94
4.46
4.39
3.76
2.60
0.91
-1.28
-3.89
-6.76
-9.64
-12.27
-14.49
-16.35
-18.14
-20.29
-23.02
-26.12
-28.74
-29.64
-27.63
-22.16
-13.57
-3.11
7.52
16.79
23.70
27.95
29.69
29.28
27.08
23.47
18.89
13.93
9.27
5.47
2.86
1.46
1.06
1.32
1.93
2.63
3.23
3.53
3.34
2.56
1.23
-0.47
-2.30
-4.04
-5.64
-7.14
-8.68
-10.39
-12.35
-14.69
-17.48
-20.78
-24.36
-27.59
-29.49
-28.91
-25.07
-17.92
-8.29
2.33
12.33
20.46
26.10
29.23
30.15
29.22
26.72
22.93
18.24
13.19
8.47
4.70
2.25
1.24
1.44
2.48
3.90
5.32
6.44
7.04
7.04
6.34
4.95
2.94
0.45
-2.27
-4.96
-7.37
-9.39
-11.06
-12.58
-14.27
-16.46
-19.38
-22.96
-26.65
-29.46
-30.18
-27.79
-21.93
-13.13
-2.72
7.66
16.61
23.36
27.80
30.22
30.95
30.14
27.79
23.99
19.14
13.97
9.38
6.08
4.38
4.10
4.73
5.61
6.27
6.50
6.35
5.97
5.40
4.58
3.29
1.40
-1.06
-3.82
-6.46
-8.64
-10.17
-11.22
-12.13
-13.32
-15.13
-17.70
-20.92
-24.44
-27.66
-29.71
-29.68
-26.78
-20.76
-12.00
-1.58
9.05
18.54
25.93
30.80
33.17
33.23
31.27
27.59
22.68
17.23
12.11
8.12
5.76
5.09
5.81
7.33
9.10
10.66
11.71
12.09
11.77
10.78
9.18
7.12
4.74
2.26
-0.14
-2.26
-3.95
-5.22
-6.21
-7.18
-8.49
-10.41
-13.09
-16.36
-19.71
-22.31
-23.18
-21.45
-16.73
-9.33
-0.32
8.75
16.33
21.30
23.30
22.64
20.10
16.52
12.57
8.62
4.84
1.37
-1.68
-4.13
-5.83
-6.73
-6.93
-6.60
-5.94
-5.10
-4.18
-3.25
-2.46
-1.97
-1.97
-2.56
-3.61
-4.91
-6.13
-7.07
-7.68
-8.10
-8.60
-9.46
-10.92
-13.04
-15.58
-17.94
-19.20
-18.42
-14.93
-8.73
-0.59
8.15
16.00
21.80
25.06
25.92
24.91
22.67
19.68
16.24
12.56
8.86
5.43
2.61
0.65
-0.36
-0.54
-0.13
0.53
1.18
1.61
1.66
1.24
0.30
-1.12
-2.88
-4.77
-6.54
-7.99
-9.05
-9.81
-10.49
-11.44
-12.96
-15.23
-18.11
-21.06
-23.19
-23.46
-21.06
-15.74
-7.97
1.09
9.98
17.32
22.21
24.38
24.10
22.01
18.79
15.03
11.14
7.40
4.03
1.28
-0.58
-1.36
-1.06
0.06
1.62
3.19
4.45
5.23
5.42
4.95
3.72
1.69
-1.00
-3.98
-6.72
-8.75
-9.86
-10.21
-10.23
-10.51
-11.54
-13.55
-16.43
-19.65
-22.35
-23.45
-22.01
-17.55
-10.24
-1.04
8.64
17.32
23.82
27.58
28.57
27.18
23.97
19.57
14.55
9.53
5.09
1.76
-0.17
-0.71
-0.19
0.88
1.98
2.81
3.27
3.47
3.53
3.43
3.04
2.15
0.60
-1.55
-4.05
-6.51
-8.54
-9.91
-10.60
-10.86
-11.18
-12.08
-13.93
-16.71
-19.81
-22.18
-22.61
-20.19
-14.69
-6.71
2.55
11.60
19.20
24.54
27.37
27.80
26.16
22.84
18.30
13.11
7.93
3.48
0.36
-1.10
-0.99
0.27
1.97
3.42
4.16
4.09
3.46
2.67
1.98
1.35
0.48
-0.96
-3.10
-5.71
-8.31
-10.38
-11.63
-12.13
-12.27
-12.62
-13.73
-15.91
-19.09
-22.71
-25.77
-27.06
-25.49
-20.52
-12.45
-2.37
8.14
17.51
24.56
28.77
30.17
29.20
26.42
22.44
17.78
12.95
8.46
4.72
2.06
0.66
0.52
1.43
3.00
4.77
6.26
7.16
7.29
6.68
5.42
3.66
1.52
-0.84
-3.27
-5.59
-7.63
-9.29
-10.60
-11.82
-13.32
-15.45
-18.26
-21.25
-23.43
-23.55
-20.66
-14.54
-5.89
3.83
12.91
19.97
24.27
25.83
25.18
22.98
19.82
16.07
12.02
7.94
4.17
1.07
-1.03
-1.98
-1.84
-0.87
0.55
2.02
3.19
3.82
3.77
2.99
1.52
-0.51
-2.88
-5.31
-7.48
-9.20
-10.37
-11.15
-11.83
-12.87
-14.68
-17.44
-20.91
-24.29
-26.36
-25.85
-21.92
-14.51
-4.54
6.38
16.42
24.10
28.63
29.98
28.69
25.52
21.25
16.50
11.79
7.58
4.28
2.18
1.33
1.57
2.46
3.48
4.23
4.51
4.42
4.15
3.86
3.49
2.76
1.31
-1.03
-4.11
-7.47
-10.47
-12.64
-13.85
-14.35
-14.71
-15.53
-17.27
-20.02
-23.41
-26.61
-28.47
-27.80
-23.84
-16.53
-6.71
4.13
14.33
22.58
28.18
31.09
31.62
30.17
27.07
22.66
17.46
12.21
7.73
4.73
3.46
3.71
4.86
6.16
7.02
7.17
6.66
5.77
4.77
3.80
2.79
1.53
-0.20
-2.47
-5.13
-7.84
-10.19
-11.85
-12.73
-13.01
-13.13
-13.62
-14.94
-17.34
-20.66
-24.31
-27.29
-28.41
-26.66
-21.60
-13.57
-3.67
6.59
15.70
22.61
26.88
28.58
28.06
25.75
22.04
17.39
12.34
7.51
3.52
0.78
-0.61
-0.87
-0.40
0.41
1.27
2.02
2.53
2.70
2.35
1.33
-0.39
-2.70
-5.33
-7.97
-10.29
-12.13
-13.42
-14.27
-14.91
-15.72
-17.18
-19.61
-22.96
-26.60
-29.30
-29.62
-26.42
-19.42
-9.35
2.20
13.32
22.39
28.50
31.52
31.80
29.93
26.48
21.95
16.85
11.79
7.37
4.12
2.26
1.69
2.05
2.84
3.60
4.08
4.19
4.01
3.63
3.02
2.07
0.66
-1.27
-3.58
-6.00
-8.17
-9.86
-11.08
-12.10
-13.40
-15.44
-18.41
-22.00
-25.30
-26.97
-25.68
-20.60
-11.84
-0.55
11.42
22.11
30.09
34.74
36.26
35.23
32.29
27.96
22.63
16.78
11.05
6.17
2.72
0.90
0.48
0.92
1.61
2.09
2.21
2.03
1.65
1.10
0.25
-1.11
-3.06
-5.50
-8.11
-10.48
-12.26
-13.28
-13.65
-13.69
-13.82
-14.49
-15.96
-18.17
-20.60
-22.32
-22.22
-19.43
-13.69
-5.60
3.48
11.94
18.38
22.09
23.10
22.01
19.61
16.49
13.05
9.51
6.13
3.25
1.27
0.41
0.62
1.51
2.50
3.09
3.02
2.39
1.49
0.64
0.05
-0.34
-0.77
-1.49
-2.65
-4.22
-5.97
-7.67
-9.17
-10.52
-11.93
-13.69
-16.07
-19.14
-22.64
-25.89
-27.92
-27.70
-24.45
-18.00
-8.91
1.63
12.17
21.38
28.37
32.77
34.59
34.02
31.37
27.04
21.60
15.83
10.55
6.46
3.93
2.91
3.04
3.81
4.75
5.55
6.07
6.20
5.82
4.78
3.00
0.52
-2.42
-5.51
-8.37
-10.77
-12.62
-13.96
-14.98
-15.95
-17.22
-19.09
-21.67
-24.64
-27.21
-28.23
-26.61
-21.74
-13.91
-4.28
5.48
13.74
19.44
22.29
22.67
21.29
18.77
15.54
11.82
7.85
3.97
0.68
-1.56
-2.49
-2.18
-1.00
0.55
2.02
3.19
4.02
4.52
4.61
4.14
2.92
0.94
-1.55
-4.14
-6.37
-7.97
-8.93
-9.53
-10.22
-11.48
-13.62
-16.65
-20.09
-23.01
-24.18
-22.52
-17.52
-9.56
0.13
9.80
17.81
23.05
25.20
24.58
21.93
18.04
13.59
9.14
5.13
1.86
-0.42
-1.66
-1.94
-1.49
-0.60
0.43
1.40
2.16
2.66
2.83
2.63
1.95
0.73
-1.01
-3.13
-5.36
-7.43
-9.14
-10.44
-11.51
-12.69
-14.36
-16.73
-19.64
-22.46
-24.17
-23.71
-20.33
-13.97
-5.29
4.46
13.87
21.70
27.15
29.92
30.12
28.11
24.44
19.71
14.62
9.83
5.93
3.33
2.12
2.15
3.00
4.20
5.37
6.24
6.77
6.95
6.80
6.23
5.11
3.42
1.25
-1.14
-3.44
-5.41
-6.97
-8.15
-9.11
-10.05
-11.22
-12.82
-14.96
-17.49
-19.90
-21.45
-21.35
-19.10
-14.72
-8.83
-2.46
3.31
7.64
10.18
11.02
10.56
9.26
7.48
5.50
3.50
1.69
0.28
-0.53
-0.68
-0.24
0.60
1.65
2.74
3.84
4.90
5.81
6.33
6.13
4.97
2.83
-0.05
-3.21
-6.14
-8.50
-10.16
-11.23
-11.99
-12.78
-13.95
-15.76
-18.19
-20.89
-23.05
-23.63
-21.61
-16.46
-8.41
1.51
11.77
20.83
27.51
31.23
31.95
30.07
26.19
21.03
15.41
10.11
5.76
2.75
1.16
0.80
1.28
2.20
3.22
4.12
4.79
5.23
5.52
5.68
5.66
5.30
4.41
2.87
0.72
-1.83
-4.40
-6.67
-8.37
-9.49
-10.16
-10.74
-11.63
-13.16
-15.49
-18.34
-20.93
-22.18
-20.98
-16.73
-9.61
-0.68
8.46
16.14
21.15
22.92
21.57
17.64
11.90
5.22
-1.51
-7.42
-11.79
-14.20
-14.67
-13.60
-11.69
-9.63
-7.93
-6.77
-5.96
-5.14
-3.94
-2.26
-0.31
1.45
2.57
2.87
2.52
1.92
1.51
1.44
1.52
1.32
0.38
-1.51
-4.26
-7.44
-10.39
-12.34
-12.63
-10.80
-6.83
-1.14
5.45
11.96
17.49
21.46
23.69
24.28
23.52
21.71
19.15
16.12
12.94
9.92
7.37
5.50
4.36
3.88
3.89
4.17
4.54
4.84
4.95
4.78
4.27
3.40
2.23
0.81
-0.72
-2.26
-3.72
-4.99
-6.05
-6.92
-7.71
-8.70
-10.18
-12.33
-14.98
-17.53
-18.99
-18.40
-15.17
-9.48
-2.20
5.30
11.72
16.19
18.45
18.76
17.58
15.38
12.46
9.09
5.53
2.18
-0.58
-2.41
-3.18
-2.97
-2.01
-0.62
0.90
2.32
3.46
4.21
4.49
4.21
3.35
1.91
-0.04
-2.35
-4.80
-7.13
-9.11
-10.63
-11.74
-12.73
-13.97
-15.80
-18.16
-20.58
-22.10
-21.67
-18.52
-12.53
-4.38
4.67
13.17
19.95
24.30
26.10
25.60
23.25
19.54
15.02
10.25
5.84
2.32
0.05
-0.90
-0.70
0.29
1.67
3.13
4.48
5.60
6.40
6.74
6.47
5.47
3.77
1.57
-0.84
-3.11
-5.02
-6.48
-7.59
-8.54
-9.62
-11.06
-13.06
-15.65
-18.52
-21.04
-22.25
-21.21
-17.36
-10.77
-2.33
6.65
14.69
20.72
24.21
25.24
24.24
21.77
18.32
14.29
10.08
6.07
2.69
0.26
-1.03
-1.23
-0.61
0.43
1.53
2.46
3.12
3.53
3.67
3.45
2.71
1.32
-0.74
-3.26
-5.87
-8.17
-9.86
-10.92
-11.58
-12.29
-13.57
-15.79
-18.93
-22.47
-25.45
-26.68
-25.16
-20.49
-13.04
-3.87
5.57
13.88
20.02
23.50
24.38
23.05
20.13
16.32
12.22
8.39
5.22
2.89
1.45
0.81
0.82
1.27
1.97
2.73
3.42
3.91
4.12
3.94
3.27
2.03
0.24
-1.96
-4.32
-6.61
-8.67
-10.44
-12.00
-13.51
-15.13
-17.04
-19.30
-21.73
-23.83
-24.84
-23.89
-20.37
-14.18
-5.92
3.31
12.20
19.64
24.91
27.76
28.29
26.76
23.51
18.99
13.75
8.50
3.94
0.66
-1.03
-1.22
-0.24
1.38
3.14
4.67
5.75
6.28
6.21
5.54
4.27
2.48
0.34
-1.90
-4.04
-5.88
-7.35
-8.47
-9.38
-10.30
-11.49
-13.23
-15.67
-18.69
-21.81
-24.19
-24.89
-23.06
-18.31
-10.89
-1.71
7.94
16.74
23.66
28.15
30.10
29.73
27.40
23.54
18.71
13.54
8.73
4.94
2.53
1.59
1.87
2.93
4.26
5.45
6.28
6.58
6.35
5.59
4.36
2.70
0.67
-1.63
-4.06
-6.40
-8.41
-9.92
-10.99
-11.88
-13.00
-14.82
-17.51
-20.86
-24.17
-26.38
-26.38
-23.38
-17.27
-8.66
1.19
10.74
18.62
23.93
26.41
26.35
24.33
21.04
17.05
12.79
8.61
4.84
1.80
-0.23
-1.11
-0.91
0.07
1.39
2.60
3.36
3.50
3.00
1.92
0.39
-1.44
-3.40
-5.29
-7.00
-8.47
-9.75
-11.06
-12.66
-14.83
-17.70
-21.11
-24.45
-26.74
-26.81
-23.75
-17.33
-8.19
2.29
12.41
20.67
26.22
28.82
28.83
26.81
23.37
19.01
14.21
9.40
5.01
1.38
-1.25
-2.76
-3.15
-2.56
-1.25
0.42
1.99
3.03
3.22
2.43
0.73
-1.60
-4.21
-6.72
-8.85
-10.45
-11.55
-12.35
-13.17
-14.38
-16.34
-19.20
-22.72
-26.21
-28.55
-28.47
-25.01
-18.02
-8.27
2.72
13.12
21.51
27.14
29.98
30.44
29.04
26.14
22.10
17.33
12.42
8.07
4.85
3.07
2.62
3.13
4.12
5.19
6.03
6.49
6.46
5.85
4.58
2.70
0.34
-2.23
-4.68
-6.73
-8.28
-9.45
-10.55
-11.98
-14.11
-17.11
-20.82
-24.72
-27.96
-29.51
-28.41
-24.18
-16.95
-7.56
2.69
12.38
20.39
26.07
29.22
29.97
28.57
25.35
20.78
15.46
10.23
5.90
3.06
1.88
2.09
3.13
4.37
5.39
6.01
6.33
6.43
6.32
5.86
4.75
2.83
0.13
-3.06
-6.22
-8.86
-10.68
-11.68
-12.12
-12.39
-12.90
-13.96
-15.76
-18.31
-21.26
-23.89
-25.12
-23.84
-19.42
-11.95
-2.45
7.55
16.49
23.28
27.49
29.28
29.05
27.21
24.06
19.88
15.04
10.10
5.73
2.55
0.92
0.84
1.90
3.45
4.81
5.52
5.44
4.78
3.85
2.86
1.80
0.46
-1.37
-3.75
-6.43
-8.99
-11.01
-12.26
-12.83
-13.09
-13.52
-14.53
-16.34
-18.88
-21.71
-24.11
-25.13
-23.88
-19.79
-12.90
-3.93
5.82
14.90
22.07
26.57
28.22
27.26
24.24
19.77
14.58
9.39
4.92
1.66
-0.14
-0.56
0.03
1.21
2.51
3.62
4.33
4.54
4.20
3.34
2.00
0.27
-1.71
-3.80
-5.84
-7.71
-9.34
-10.72
-11.98
-13.34
-15.10
-17.44
-20.30
-23.16
-25.10
-25.01
-22.01
-15.83
-7.02
3.16
13.10
21.36
27.05
29.90
30.11
28.13
24.49
19.74
14.46
9.31
4.91
1.72
-0.10
-0.69
-0.43
0.22
0.91
1.41
1.64
1.61
1.27
0.55
-0.61
-2.19
-4.09
-6.06
-7.86
-9.37
-10.66
-11.93
-13.46
-15.50
-18.13
-21.26
-24.48
-27.11
-28.23
-26.87
-22.42
-14.92
-5.24
5.18
14.67
21.96
26.42
28.11
27.53
25.30
21.93
17.84
13.44
9.20
5.59
2.98
1.54
1.15
1.54
2.37
3.30
4.11
4.59
4.61
4.09
2.99
1.35
-0.64
-2.80
-4.90
-6.79
-8.38
-9.72
-10.93
-12.21
-13.84
-16.09
-19.07
-22.52
-25.65
-27.29
-26.23
-21.72
-13.88
-3.77
6.92
16.46
23.65
28.07
29.94
29.74
27.94
24.79
20.50
15.45
10.29
5.82
2.75
1.37
1.47
2.46
3.64
4.50
4.85
4.82
4.63
4.36
3.94
3.13
1.74
-0.23
-2.56
-4.92
-7.02
-8.69
-10.03
-11.25
-12.70
-14.69
-17.46
-20.95
-24.75
-28.02
-29.66
-28.64
-24.38
-17.05
-7.55
2.75
12.43
20.35
25.87
28.78
29.21
27.48
24.04
19.50
14.51
9.75
5.75
2.81
0.96
0.07
-0.10
0.22
0.82
1.57
2.33
2.95
3.25
3.05
2.20
0.66
-1.46
-3.89
-6.29
-8.35
-9.90
-11.00
-11.99
-13.32
-15.42
-18.40
-21.91
-25.03
-26.54
-25.31
-20.74
-13.05
-3.27
7.08
16.41
23.56
27.90
29.37
28.29
25.17
20.65
15.46
10.35
6.01
2.90
1.18
0.70
1.04
1.73
2.41
2.82
2.88
2.58
1.93
0.97
-0.26
-1.69
-3.22
-4.74
-6.16
-7.47
-8.74
-10.10
-11.71
-13.78
-16.46
-19.80
-23.51
-26.97
-29.18
-29.07
-25.76
-19.06
-9.57
1.36
12.09
21.06
27.29
30.45
30.76
28.78
25.14
20.47
15.36
10.35
5.97
2.64
0.57
-0.26
-0.13
0.58
1.45
2.17
2.56
2.60
2.29
1.62
0.58
-0.82
-2.48
-4.23
-5.89
-7.38
-8.75
-10.17
-11.87
-14.01
-16.63
-19.62
-22.66
-25.17
-26.37
-25.41
-21.71
-15.19
-6.52
3.10
12.25
19.76
24.96
27.74
28.35
27.18
24.66
21.17
17.18
13.21
9.77
7.23
5.68
5.01
4.94
5.20
5.60
6.09
6.62
7.13
7.44
7.29
6.44
4.73
2.18
-0.94
-4.25
-7.31
-9.79
-11.54
-12.68
-13.61
-14.85
-16.87
-19.80
-23.23
-26.24
-27.60
-26.23
-21.56
-13.89
-4.20
6.03
15.35
22.67
27.41
29.46
29.03
26.48
22.34
17.23
11.86
6.92
2.96
0.24
-1.23
-1.65
-1.29
-0.48
0.51
1.40
1.92
1.91
1.29
0.15
-1.38
-3.12
-4.96
-6.82
-8.64
-10.32
-11.75
-12.99
-14.26
-15.90
-18.11
-20.73
-23.04
-23.93
-22.36
-17.76
-10.40
-1.31
8.05
16.31
22.52
26.31
27.75
27.14
24.83
21.16
16.53
11.41
6.42
2.18
-0.78
-2.24
-2.27
-1.27
0.16
1.40
1.98
1.72
0.68
-0.82
-2.42
-3.79
-4.78
-5.47
-6.11
-7.00
-8.44
-10.65
-13.70
-17.49
-21.65
-25.54
-28.18
-28.53
-25.75
-19.64
-10.78
-0.45
9.73
18.32
24.44
27.85
28.80
27.76
25.24
21.69
17.53
13.16
9.04
5.57
3.05
1.63
1.31
1.87
2.98
4.13
4.87
4.89
4.08
2.58
0.65
-1.45
-3.58
-5.69
-7.80
-9.89
-11.94
-13.94
-16.00
-18.32
-21.08
-24.22
-27.21
-29.11
-28.84
-25.57
-19.20
-10.39
-0.45
9.18
17.33
23.44
27.45
29.56
30.01
28.89
26.27
22.29
17.41
12.35
7.97
4.95
3.64
3.89
5.13
6.62
7.69
7.98
7.47
6.39
5.03
3.54
1.90
-0.02
-2.31
-4.88
-7.51
-9.85
-11.65
-12.82
-13.51
-14.03
-14.73
-15.94
-17.83
-20.42
-23.44
-26.32
-28.21
-28.12
-25.26
-19.38
-10.91
-0.95
9.07
17.89
24.69
29.23
31.66
32.24
31.12
28.35
24.05
18.62
12.76
7.42
3.46
1.42
1.30
2.60
4.50
6.18
7.08
7.07
6.38
5.41
4.46
3.55
2.45
0.84
-1.41
-4.13
-6.88
-9.21
-10.82
-11.74
-12.27
-12.80
-13.64
-14.98
-16.91
-19.43
-22.36
-25.26
-27.31
-27.48
-24.93
-19.33
-11.15
-1.54
8.01
16.19
22.23
25.95
27.53
27.28
25.45
22.21
17.88
13.00
8.32
4.58
2.30
1.50
1.78
2.51
3.14
3.37
3.28
3.09
2.99
2.96
2.73
1.92
0.29
-2.12
-4.96
-7.71
-9.93
-11.40
-12.20
-12.67
-13.30
-14.54
-16.69
-19.74
-23.26
-26.40
-28.00
-26.97
-22.67
-15.25
-5.66
4.58
13.92
21.26
26.18
28.80
29.51
28.58
26.15
22.30
17.37
12.03
7.18
3.64
1.82
1.63
2.49
3.68
4.63
5.09
5.09
4.82
4.41
3.80
2.81
1.28
-0.87
-3.46
-6.14
-8.55
-10.42
-11.71
-12.57
-13.22
-13.91
-14.84
-16.18
-18.09
-20.60
-23.42
-25.84
-26.80
-25.26
-20.56
-12.85
-3.06
7.37
16.92
24.47
29.48
31.88
31.94
30.06
26.64
22.16
17.14
12.22
8.00
4.97
3.32
2.95
3.47
4.39
5.27
5.87
6.19
6.30
6.26
5.94
5.08
3.44
0.99
-2.03
-5.17
-7.94
-10.06
-11.52
-12.55
-13.47
-14.55
-16.01
-17.99
-20.53
-23.47
-26.25
-27.98
-27.56
-24.16
-17.59
-8.52
1.70
11.48
19.50
25.02
27.93
28.46
27.01
23.97
19.74
14.86
9.94
5.63
2.46
0.66
0.18
0.69
1.76
2.93
3.87
4.40
4.46
4.08
3.31
2.15
0.64
-1.17
-3.15
-5.16
-7.03
-8.68
-10.14
-11.53
-13.12
-15.18
-17.90
-21.20
-24.55
-27.07
-27.64
-25.35
-19.87
-11.67
-1.89
7.99
16.59
23.00
26.81
28.08
27.14
24.46
20.57
15.98
11.22
6.77
3.02
0.26
-1.35
-1.77
-1.16
0.15
1.67
2.92
3.55
3.40
2.55
1.24
-0.28
-1.81
-3.25
-4.60
-5.93
-7.30
-8.81
-10.57
-12.73
-15.43
-18.68
-22.21
-25.36
-27.14
-26.52
-22.79
-15.92
-6.73
3.36
12.76
20.19
25.02
27.26
27.28
25.55
22.46
18.36
13.71
9.14
5.34
2.82
1.75
1.87
2.64
3.53
4.25
4.80
5.30
5.86
6.39
6.59
6.16
4.93
2.98
0.59
-1.86
-4.11
-6.03
-7.72
-9.39
-11.32
-13.80
-17.00
-20.88
-25.04
-28.69
-30.73
-30.08
-26.10
-18.89
-9.36
1.00
10.62
18.30
23.51
26.31
27.11
26.33
24.26
21.13
17.20
12.97
9.03
5.95
4.04
3.29
3.39
3.95
4.65
5.34
5.93
6.36
6.49
6.11
5.05
3.27
0.89
-1.76
-4.33
-6.48
-8.04
-9.09
-9.95
-11.07
-12.86
-15.53
-18.88
-22.31
-24.88
-25.51
-23.34
-17.95
-9.63
0.69
11.65
21.79
29.92
35.28
37.68
37.34
34.69
30.30
24.78
18.82
13.10
8.26
4.70
2.50
1.42
1.05
0.96
0.90
0.77
0.55
0.17
-0.54
-1.81
-3.84
-6.63
-9.93
-13.29
-16.19
-18.24
-19.29
-19.47
-19.20
-19.04
-19.57
-21.24
-24.07
-27.62
-30.89
-32.62
-31.64
-27.25
-19.57
-9.55
1.28
11.31
19.24
24.36
26.58
26.26
23.99
20.37
16.01
11.45
7.22
3.76
1.39
0.24
0.19
0.99
2.25
3.63
4.83
5.65
5.94
5.59
4.52
2.71
0.28
-2.55
-5.46
-8.15
-10.46
-12.41
-14.20
-16.16
-18.60
-21.65
-25.10
-28.29
-30.19
-29.74
-26.15
-19.34
-10.02
0.46
10.50
18.79
24.56
27.69
28.44
27.20
24.34
20.24
15.43
10.61
6.59
3.98
2.98
3.28
4.30
5.38
6.12
6.46
6.56
6.59
6.54
6.23
5.36
3.73
1.37
-1.47
-4.38
-7.03
-9.17
-10.87
-12.37
-14.04
-16.22
-19.10
-22.58
-26.21
-29.18
-30.47
-29.13
-24.58
-16.93
-7.06
3.65
13.64
21.72
27.23
30.12
30.67
29.30
26.33
22.14
17.18
12.09
7.61
4.37
2.66
2.37
3.06
4.15
5.17
5.88
6.28
6.50
6.63
6.64
6.34
5.49
3.91
1.65
-1.07
-3.85
-6.34
-8.28
-9.67
-10.69
-11.65
-12.88
-14.69
-17.28
-20.60
-24.24
-27.41
-29.01
-28.00
-23.78
-16.44
-6.91
3.40
12.98
20.71
26.00
28.79
29.32
27.89
24.81
20.42
15.25
10.00
5.47
2.33
0.88
1.02
2.25
3.91
5.41
6.42
6.84
6.80
6.42
5.76
4.72
3.18
1.01
-1.72
-4.77
-7.78
-10.37
-12.31
-13.60
-14.43
-15.15
-16.13
-17.71
-20.01
-22.87
-25.72
-27.67
-27.62
-24.69
-18.60
-9.84
0.29
10.22
18.50
24.25
27.28
27.87
26.50
23.66
19.72
15.08
10.24
5.82
2.38
0.28
-0.41
0.01
1.07
2.25
3.20
3.74
3.88
3.68
3.20
2.42
1.26
-0.28
-2.09
-3.99
-5.77
-7.28
-8.54
-9.74
-11.16
-13.13
-15.86
-19.28
-22.97
-26.04
-27.38
-25.97
-21.29
-13.59
-3.90
6.27
15.45
22.54
27.06
29.00
28.70
26.56
23.03
18.58
13.71
8.98
4.88
1.80
-0.09
-0.78
-0.45
0.66
2.19
3.82
5.23
6.15
6.35
5.67
4.08
1.71
-1.15
-4.11
-6.76
-8.83
-10.27
-11.24
-12.10
-13.28
-15.16
-17.89
-21.24
-24.53
-26.66
-26.49
-23.11
-16.37
-6.98
3.62
13.66
21.64
26.75
28.94
28.75
26.93
24.12
20.75
17.10
13.42
10.01
7.20
5.25
4.21
3.93
4.12
4.50
4.88
5.17
5.32
5.23
4.73
3.67
1.99
-0.21
-2.67
-5.12
-7.35
-9.32
-11.10
-12.88
-14.86
-17.22
-20.09
-23.38
-26.70
-29.25
-30.01
-28.01
-22.79
-14.64
-4.63
5.70
14.84
21.72
25.90
27.52
27.01
24.88
21.55
17.37
12.70
7.96
3.65
0.23
-1.99
-2.91
-2.66
-1.61
-0.19
1.18
2.12
2.39
1.91
0.72
-0.97
-2.90
-4.79
-6.46
-7.88
-9.16
-10.48
-12.07
-14.13
-16.77
-19.92
-23.19
-25.81
-26.79
-25.13
-20.24
-12.25
-2.09
8.73
18.56
26.05
30.54
32.04
31.01
28.11
23.95
19.05
13.90
9.00
4.89
2.03
0.71
0.85
2.11
3.94
5.76
7.09
7.64
7.26
5.91
3.69
0.84
-2.31
-5.34
-7.90
-9.81
-11.20
-12.45
-14.11
-16.68
-20.33
-24.70
-28.94
-31.78
-31.99
-28.76
-22.08
-12.72
-2.10
8.21
16.88
23.16
26.86
28.21
27.62
25.51
22.24
18.22
13.88
9.71
6.18
3.60
2.13
1.72
2.19
3.28
4.62
5.83
6.48
6.22
4.84
2.41
-0.73
-4.03
-6.94
-9.13
-10.55
-11.48
-12.37
-13.73
-15.94
-19.15
-23.18
-27.47
-31.06
-32.76
-31.53
-26.79
-18.84
-8.73
2.00
11.86
19.80
25.42
28.79
30.19
29.83
27.89
24.57
20.28
15.67
11.49
8.35
6.52
5.91
6.13
6.74
7.38
7.88
8.17
8.25
8.03
7.32
5.95
3.80
0.99
-2.12
-5.08
-7.48
-9.11
-10.11
-10.89
-12.03
-14.10
-17.41
-21.89
-26.93
-31.41
-33.99
-33.48
-29.21
-21.37
-10.96
0.48
11.32
20.29
26.74
30.56
31.99
31.31
28.79
24.72
19.58
14.09
9.13
5.50
3.62
3.41
4.37
5.84
7.25
8.30
8.96
9.29
9.25
8.72
7.42
5.22
2.17
-1.40
-5.01
-8.16
-10.59
-12.29
-13.45
-14.46
-15.70
-17.49
-20.07
-23.40
-27.15
-30.55
-32.51
-31.91
-27.98
-20.66
-10.71
0.55
11.55
20.96
27.85
31.75
32.56
30.50
26.09
20.19
13.94
8.56
4.98
3.62
4.21
6.05
8.21
9.92
10.76
10.69
9.92
8.67
7.07
5.12
2.79
0.10
-2.80
-5.69
-8.33
-10.61
-12.60
-14.50
-16.61
-19.19
-22.40
-26.11
-29.82
-32.63
-33.43
-31.27
-25.73
-17.20
-6.84
3.80
13.26
20.59
25.44
27.97
28.47
27.24
24.51
20.57
15.95
11.33
7.42
4.71
3.34
3.09
3.57
4.40
5.29
6.14
6.84
7.28
7.22
6.39
4.63
1.96
-1.34
-4.82
-7.96
-10.40
-12.04
-13.05
-13.87
-15.04
-17.08
-20.21
-24.23
-28.41
-31.57
-32.38
-29.81
-23.58
-14.31
-3.38
7.46
16.75
23.64
27.95
29.97
30.12
28.75
26.08
22.38
18.05
13.66
9.82
7.00
5.36
4.71
4.70
4.98
5.35
5.81
6.40
7.11
7.71
7.83
7.04
5.08
2.03
-1.70
-5.51
-8.82
-11.32
-13.04
-14.27
-15.45
-16.97
-19.09
-21.86
-25.08
-28.28
-30.65
-31.22
-29.11
-23.86
-15.73
-5.69
4.81
14.39
22.04
27.36
30.39
31.34
30.33
27.45
22.94
17.34
11.50
6.43
2.88
1.12
0.96
1.88
3.33
4.93
6.51
7.93
8.97
9.27
8.44
6.29
2.93
-1.19
-5.40
-9.09
-11.91
-13.84
-15.12
-16.11
-17.17
-18.59
-20.50
-22.87
-25.33
-27.23
-27.64
-25.69
-20.90
-13.45
-4.27
5.30
13.86
20.45
24.66
26.62
26.66
25.18
22.48
18.84
14.64
10.40
6.71
4.04
2.60
2.27
2.71
3.49
4.27
4.87
5.20
5.17
4.63
3.43
1.53
-0.91
-3.59
-6.12
-8.22
-9.85
-11.15
-12.42
-14.00
-16.19
-19.20
-22.96
-27.02
-30.50
-32.19
-30.95
-26.10
-17.87
-7.31
3.93
14.18
22.21
27.46
29.92
29.96
28.01
24.54
20.02
15.01
10.12
5.98
3.00
1.37
0.95
1.43
2.37
3.43
4.38
5.10
5.54
5.62
5.13
3.87
1.71
-1.18
-4.38
-7.29
-9.40
-10.52
-10.89
-11.08
-11.72
-13.32
-16.10
-19.89
-24.16
-28.00
-30.30
-29.97
-26.28
-19.24
-9.64
1.04
11.16
19.35
24.92
27.86
28.56
27.57
25.27
21.91
17.79
13.34
9.15
5.89
4.01
3.57
4.22
5.32
6.25
6.63
6.40
5.71
4.81
3.80
2.62
1.10
-0.91
-3.39
-6.16
-8.88
-11.25
-13.06
-14.31
-15.20
-16.12
-17.53
-19.77
-22.81
-26.16
-28.82
-29.58
-27.40
-21.92
-13.56
-3.56
6.50
15.18
21.54
25.26
26.53
25.81
23.60
20.36
16.57
12.76
9.46
7.09
5.80
5.42
5.58
5.84
5.91
5.70
5.30
4.83
4.34
3.77
2.99
1.86
0.31
-1.63
-3.89
-6.35
-8.88
-11.32
-13.54
-15.46
-17.17
-18.92
-20.96
-23.34
-25.69
-27.20
-26.82
-23.71
-17.60
-9.03
0.86
10.68
19.20
25.65
29.78
31.60
31.27
28.98
25.05
19.98
14.53
9.56
5.84
3.77
3.31
4.00
5.20
6.30
6.95
7.04
6.60
5.72
4.41
2.65
0.45
-2.03
-4.57
-6.88
-8.78
-10.27
-11.52
-12.81
-14.44
-16.66
-19.55
-23.02
-26.66
-29.74
-31.28
-30.37
-26.48
-19.70
-10.85
-1.18
7.99
15.70
21.50
25.31
27.27
27.43
25.84
22.64
18.28
13.52
9.30
6.41
5.19
5.48
6.66
8.03
9.03
9.44
9.32
8.90
8.31
7.53
6.36
4.60
2.15
-0.82
-3.92
-6.70
-8.85
-10.29
-11.24
-12.11
-13.33
-15.25
-18.01
-21.46
-25.05
-27.93
-29.03
-27.39
-22.55
-14.77
-5.07
5.08
14.22
21.31
25.96
28.27
28.56
27.15
24.27
20.18
15.30
10.31
5.94
2.80
1.20
1.01
1.82
3.05
4.21
4.95
5.15
4.85
4.15
3.18
1.96
0.46
-1.40
-3.61
-6.02
-8.35
-10.31
-11.75
-12.79
-13.82
-15.33
-17.75
-21.16
-25.15
-28.81
-30.98
-30.50
-26.72
-19.70
-10.30
0.09
9.93
18.03
23.72
26.89
27.79
26.81
24.32
20.69
16.36
11.86
7.75
4.52
2.49
1.71
2.01
3.04
4.40
5.67
6.53
6.81
6.42
5.39
3.79
1.75
-0.54
-2.89
-5.06
-6.89
-8.35
-9.58
-10.88
-12.67
-15.34
-19.01
-23.35
-27.47
-30.09
-29.90
-26.15
-18.89
-9.18
1.39
11.15
18.92
24.25
27.21
28.18
27.43
25.14
21.52
16.98
12.19
7.92
4.82
3.13
2.70
3.11
3.85
4.55
5.06
5.30
5.25
4.81
3.86
2.35
0.30
-2.08
-4.54
-6.83
-8.82
-10.52
-12.00
-13.44
-15.01
-16.95
-19.45
-22.61
-26.21
-29.59
-31.67
-31.25
-27.46
-20.22
-10.38
0.51
10.71
18.88
24.41
27.37
28.20
27.40
25.31
22.13
18.13
13.75
9.58
6.24
4.16
3.43
3.83
4.89
6.12
7.12
7.67
7.73
7.32
6.42
4.95
2.82
0.00
-3.34
-6.78
-9.82
-12.02
-13.28
-13.85
-14.31
-15.29
-17.26
-20.30
-24.00
-27.56
-29.93
-30.05
-27.23
-21.34
-12.97
-3.27
6.35
14.68
20.98
25.01
26.93
26.99
25.39
22.35
18.23
13.70
9.60
6.75
5.61
6.09
7.61
9.45
10.98
11.90
12.27
12.25
11.94
11.21
9.76
7.30
3.77
-0.49
-4.88
-8.66
-11.30
-12.62
-12.84
-12.49
-12.22
-12.62
-14.06
-16.64
-20.11
-23.80
-26.69
-27.59
-25.56
-20.26
-12.20
-2.57
7.11
15.52
21.83
25.81
27.57
27.38
25.45
21.99
17.35
12.06
6.89
2.56
-0.33
-1.54
-1.16
0.48
2.92
5.62
8.05
9.71
10.13
9.03
6.39
2.54
-1.85
-5.97
-9.05
-10.69
-10.94
-10.37
-9.80
-10.09
-11.82
-15.14
-19.64
-24.38
-28.10
-29.50
-27.62
-22.19
-13.76
-3.55
6.83
15.91
22.69
26.77
28.29
27.62
25.21
21.52
17.05
12.38
8.17
5.01
3.16
2.59
2.93
3.70
4.51
5.14
5.51
5.61
5.32
4.49
2.98
0.84
-1.73
-4.38
-6.76
-8.72
-10.32
-11.79
-13.47
-15.70
-18.68
-22.40
-26.49
-30.22
-32.52
-32.30
-28.84
-22.13
-12.94
-2.66
7.18
15.42
21.42
25.14
26.83
26.85
25.43
22.78
19.15
14.95
10.79
7.28
4.90
3.86
4.02
4.95
6.16
7.21
7.85
8.03
7.76
6.97
5.56
3.42
0.61
-2.55
-5.61
-8.09
-9.74
-10.71
-11.39
-12.32
-13.98
-16.67
-20.37
-24.71
-28.88
-31.76
-32.15
-29.19
-22.75
-13.60
-3.17
6.88
15.25
21.28
24.99
26.76
27.00
25.96
23.73
20.50
16.66
12.79
9.52
7.25
6.07
5.79
6.07
6.63
7.28
7.98
8.68
9.25
9.43
8.93
7.50
5.11
1.97
-1.48
-4.76
-7.44
-9.34
-10.56
-11.45
-12.50
-14.18
-16.83
-20.43
-24.55
-28.31
-30.53
-30.09
-26.35
-19.42
-10.21
-0.19
9.14
16.67
21.90
24.87
25.88
25.21
23.10
19.80
15.70
11.44
7.75
5.19
4.00
4.01
4.71
5.57
6.16
6.34
6.23
5.96
5.62
5.08
4.07
2.38
-0.02
-2.87
-5.69
-8.00
-9.57
-10.48
-11.09
-11.89
-13.30
-15.59
-18.76
-22.45
-26.00
-28.39
-28.56
-25.70
-19.65
-11.05
-1.22
8.31
16.27
21.99
25.37
26.69
26.30
24.42
21.28
17.16
12.59
8.28
4.94
3.05
2.70
3.56
5.05
6.54
7.53
7.79
7.32
6.19
4.51
2.31
-0.34
-3.27
-6.14
-8.57
-10.29
-11.27
-11.79
-12.34
-13.46
-15.48
-18.49
-22.20
-26.03
-29.10
-30.40
-29.04
-24.58
-17.25
-7.95
1.91
10.95
18.10
22.91
25.45
26.10
25.26
23.22
20.22
16.52
12.60
9.01
6.29
4.76
4.45
5.07
6.18
7.35
8.28
8.82
8.89
8.40
7.24
5.31
2.58
-0.75
-4.36
-7.80
-10.65
-12.71
-14.02
-14.92
-15.93
-17.63
-20.43
-24.32
-28.72
-32.45
-34.09
-32.39
-26.88
-18.08
-7.36
3.50
12.95
20.12
24.88
27.59
28.79
28.81
27.81
25.86
23.15
20.01
16.90
14.21
12.14
10.65
9.60
8.78
8.16
7.79
7.73
7.95
8.18
8.02
7.06
5.10
2.27
-1.06
-4.43
-7.43
-9.91
-11.89
-13.55
-15.11
-16.83
-18.96
-21.63
-24.75
-27.81
-29.90
-29.95
-27.12
-21.16
-12.68
-2.92
6.65
14.79
20.83
24.62
26.42
26.48
24.99
22.10
18.09
13.52
9.17
5.80
3.87
3.36
3.88
4.82
5.67
6.18
6.33
6.18
5.71
4.77
3.17
0.88
-1.90
-4.77
-7.27
-9.11
-10.26
-10.99
-11.74
-12.94
-14.98
-17.99
-21.80
-25.83
-29.15
-30.62
-29.23
-24.50
-16.72
-6.92
3.36
12.60
19.70
24.25
26.38
26.55
25.20
22.65
19.13
14.96
10.62
6.75
3.94
2.51
2.43
3.30
4.54
5.66
6.33
6.47
6.13
5.35
4.16
2.54
0.50
-1.86
-4.33
-6.64
-8.54
-9.91
-10.83
-11.58
-12.59
-14.33
-17.13
-20.93
-25.21
-28.96
-30.90
-29.91
-25.44
-17.83
-8.20
1.89
10.96
18.01
22.74
25.33
26.15
25.52
23.60
20.55
16.65
12.42
8.53
5.56
3.84
3.34
3.74
4.58
5.49
6.24
6.75
7.00
6.91
6.34
5.12
3.21
0.70
-2.16
-5.02
-7.57
-9.63
-11.22
-12.54
-13.95
-15.83
-18.49
-21.94
-25.82
-29.33
-31.37
-30.88
-27.23
-20.52
-11.57
-1.70
7.78
15.85
22.05
26.29
28.69
29.34
28.27
25.60
21.63
17.02
12.55
9.00
6.83
6.05
6.29
6.98
7.62
7.98
8.09
8.14
8.22
8.25
7.93
6.85
4.78
1.75
-1.91
-5.65
-8.94
-11.40
-12.99
-13.98
-14.84
-16.08
-18.06
-20.85
-24.13
-27.23
-29.21
-29.16
-26.42
-20.84
-12.92
-3.67
5.65
13.85
20.17
24.29
26.29
26.39
24.79
21.73
17.50
12.64
7.91
4.07
1.69
0.90
1.36
2.50
3.75
4.70
5.22
5.33
5.08
4.43
3.35
1.79
-0.18
-2.41
-4.66
-6.77
-8.57
-10.07
-11.38
-12.79
-14.62
-17.19
-20.52
-24.22
-27.45
-29.07
-28.03
-23.75
-16.37
-6.84
3.38
12.78
20.14
24.86
26.93
26.75
24.88
21.82
18.03
13.88
9.81
6.21
3.46
1.80
1.29
1.75
2.83
4.11
5.18
5.73
5.59
4.76
3.34
1.50
-0.59
-2.77
-4.89
-6.87
-8.64
-10.19
-11.61
-13.12
-15.01
-17.58
-20.93
-24.74
-28.22
-30.16
-29.38
-25.16
-17.61
-7.78
2.68
12.08
19.25
23.82
26.07
26.55
25.72
23.78
20.79
16.93
12.61
8.49
5.24
3.30
2.70
3.13
4.07
5.05
5.77
6.13
6.19
5.99
5.48
4.50
2.84
0.46
-2.48
-5.56
-8.30
-10.34
-11.64
-12.52
-13.53
-15.21
-17.94
-21.68
-25.93
-29.70
-31.72
-30.82
-26.36
-18.57
-8.55
2.05
11.60
19.04
24.05
26.85
27.91
27.51
25.73
22.61
18.43
13.84
9.73
6.86
5.59
5.75
6.73
7.89
8.71
9.00
8.80
8.27
7.44
6.32
4.79
2.80
0.41
-2.17
-4.71
-6.99
-8.88
-10.41
-11.73
-13.08
-14.77
-17.06
-20.09
-23.69
-27.24
-29.77
-30.14
-27.44
-21.43
-12.68
-2.49
7.53
16.00
22.10
25.73
27.19
26.95
25.30
22.42
18.48
13.86
9.18
5.21
2.54
1.42
1.63
2.64
3.87
4.90
5.56
5.87
5.84
5.41
4.37
2.59
0.08
-2.88
-5.82
-8.31
-10.08
-11.21
-12.02
-13.02
-14.67
-17.25
-20.71
-24.54
-27.80
-29.33
-28.07
-23.46
-15.79
-6.12
3.98
12.98
19.87
24.29
26.46
26.83
25.80
23.60
20.39
16.40
12.10
8.14
5.14
3.49
3.17
3.81
4.86
5.86
6.54
6.88
6.94
6.70
6.00
4.56
2.28
-0.74
-4.09
-7.25
-9.75
-11.44
-12.51
-13.36
-14.53
-16.46
-19.37
-23.18
-27.37
-31.04
-33.01
-32.18
-27.88
-20.25
-10.24
0.65
10.78
18.92
24.49
27.48
28.26
27.25
24.77
21.11
16.63
11.88
7.57
4.37
2.66
2.43
3.32
4.75
6.23
7.45
8.34
8.92
9.20
9.05
8.26
6.67
4.23
1.19
-2.05
-5.05
-7.46
-9.20
-10.48
-11.70
-13.32
-15.70
-18.97
-22.89
-26.83
-29.81
-30.72
-28.63
-23.18
-14.83
-4.73
5.57
14.59
21.40
25.69
27.69
27.81
26.45
23.84
20.20
15.89
11.45
7.54
4.72
3.27
3.10
3.84
4.95
5.96
6.56
6.68
6.37
5.73
4.78
3.47
1.72
-0.45
-2.94
-5.48
-7.79
-9.66
-11.08
-12.28
-13.59
-15.43
-18.08
-21.51
-25.27
-28.47
-29.99
-28.77
-24.25
-16.68
-7.07
3.10
12.33
19.57
24.43
26.99
27.62
26.57
24.01
20.08
15.12
9.81
4.97
1.36
-0.61
-1.00
-0.26
1.05
2.44
3.61
4.41
4.77
4.55
3.64
2.02
-0.16
-2.57
-4.84
-6.70
-8.08
-9.12
-10.11
-11.41
-13.32
-16.04
-19.60
-23.66
-27.52
-30.16
-30.44
-27.50
-21.20
-12.21
-1.91
8.08
16.41
22.35
25.85
27.28
27.07
25.51
22.74
18.93
14.50
10.14
6.57
4.35
3.55
3.84
4.61
5.33
5.70
5.78
5.76
5.77
5.78
5.43
4.36
2.30
-0.69
-4.18
-7.58
-10.34
-12.16
-13.14
-13.65
-14.21
-15.32
-17.30
-20.16
-23.47
-26.39
-27.79
-26.59
-22.17
-14.67
-5.11
5.03
14.18
21.26
25.86
28.14
28.50
27.28
24.70
20.94
16.36
11.58
7.35
4.37
2.92
2.88
3.73
4.83
5.67
6.02
5.94
5.61
5.19
4.70
3.99
2.79
0.93
-1.58
-4.47
-7.33
-9.72
-11.37
-12.32
-12.92
-13.74
-15.36
-18.13
-21.94
-26.11
-29.53
-30.91
-29.27
-24.24
-16.26
-6.47
3.69
12.89
20.20
25.21
27.88
28.39
26.96
23.89
19.61
14.72
9.95
5.99
3.27
1.92
1.72
2.26
3.13
4.03
4.80
5.37
5.66
5.49
4.71
3.21
1.02
-1.62
-4.35
-6.76
-8.60
-9.87
-10.82
-11.90
-13.58
-16.18
-19.68
-23.59
-26.99
-28.74
-27.83
-23.76
-16.72
-7.65
2.08
11.09
18.34
23.36
26.13
26.90
26.00
23.68
20.21
15.96
11.46
7.31
4.00
1.88
1.00
1.18
2.06
3.28
4.44
5.22
5.39
4.79
3.37
1.24
-1.40
-4.24
-6.95
-9.26
-11.05
-12.36
-13.40
-14.50
-16.02
-18.25
-21.28
-24.77
-27.95
-29.73
-28.99
-25.03
-17.89
-8.47
1.72
11.08
18.40
23.21
25.69
26.39
25.79
24.18
21.59
18.07
13.91
9.72
6.23
4.06
3.44
4.08
5.38
6.68
7.54
7.86
7.77
7.39
6.69
5.47
3.52
0.86
-2.21
-5.18
-7.53
-9.07
-9.98
-10.78
-12.01
-14.10
-17.18
-20.98
-24.86
-27.93
-29.14
-27.61
-22.91
-15.31
-5.81
4.19
13.28
20.45
25.31
27.97
28.79
28.12
26.21
23.30
19.73
16.02
12.79
10.53
9.48
9.54
10.34
11.42
12.44
13.19
13.67
13.88
13.77
13.25
12.18
10.55
8.49
6.27
4.17
2.40
0.96
-0.29
-1.61
-3.27
-5.50
-8.42
-11.91
-15.58
-18.70
-20.36
-19.71
-16.35
-10.57
-3.33
4.04
10.27
14.57
16.77
17.20
16.38
14.78
12.60
9.94
6.83
3.47
0.25
-2.37
-4.03
-4.59
-4.22
-3.35
-2.47
-1.96
-1.99
-2.59
-3.64
-5.08
-6.90
-9.11
-11.64
-14.29
-16.70
-18.50
-19.42
-19.45
-18.89
-18.30
-18.32
-19.49
-21.90
-25.04
-27.81
-28.83
-26.94
-21.71
-13.67
-4.16
5.07
12.55
17.46
19.78
20.02
18.83
16.72
13.99
10.79
7.38
4.11
1.45
-0.23
-0.78
-0.29
0.92
2.47
4.05
5.45
6.59
7.43
7.86
7.67
6.66
4.72
1.96
-1.24
-4.33
-6.86
-8.64
-9.88
-11.13
-13.06
-16.14
-20.35
-25.07
-29.14
-31.18
-30.04
-25.26
-17.30
-7.44
2.61
11.19
17.20
20.27
20.66
19.04
16.19
12.77
9.30
6.14
3.57
1.79
0.93
0.98
1.81
3.10
4.49
5.69
6.57
7.12
7.42
7.49
7.23
6.45
5.02
2.96
0.56
-1.77
-3.61
-4.73
-5.16
-5.18
-5.29
-5.97
-7.64
-10.34
-13.68
-16.77
-18.45
-17.70
-14.01
-7.67
0.33
8.57
15.66
20.66
23.19
23.42
21.76
18.72
14.79
10.45
6.25
2.71
0.23
-0.96
-0.95
-0.06
1.23
2.47
3.33
3.71
3.74
3.63
3.53
3.45
3.17
2.38
0.82
-1.54
-4.44
-7.37
-9.85
-11.54
-12.44
-12.91
-13.49
-14.71
-16.90
-19.92
-23.12
-25.45
-25.72
-23.02
-17.07
-8.34
2.04
12.60
21.97
29.17
33.70
35.52
34.81
32.00
27.53
22.02
16.12
10.58
6.01
2.81
1.08
0.54
0.72
1.08
1.22
0.98
0.44
-0.22
-0.88
-1.56
-2.42
-3.69
-5.45
-7.61
-9.91
-11.95
-13.43
-14.23
-14.51
-14.65
-15.13
-16.38
-18.54
-21.35
-24.16
-26.02
-26.02
-23.55
-18.53
-11.49
-3.34
4.83
12.00
17.47
20.85
22.03
21.20
18.68
14.97
10.66
6.35
2.59
-0.26
-2.02
-2.73
-2.56
-1.77
-0.66
0.50
1.48
2.10
2.23
1.82
0.89
-0.45
-2.02
-3.60
-5.03
-6.24
-7.25
-8.21
-9.32
-10.81
-12.91
-15.72
-19.11
-22.52
-25.06
-25.61
-23.28
-17.79
-9.63
0.00
9.57
17.73
23.64
27.07
28.23
27.46
25.05
21.17
16.12
10.39
4.78
0.21
-2.57
-3.24
-2.00
0.50
3.47
6.19
8.21
9.33
9.48
8.58
6.61
3.59
-0.19
-4.25
-7.98
-10.85
-12.62
-13.40
-13.60
-13.79
-14.51
-16.13
-18.65
-21.75
-24.71
-26.56
-26.35
-23.42
-17.64
-9.55
-0.21
9.08
17.10
23.03
26.51
27.63
26.67
24.01
20.05
15.29
10.37
6.07
3.14
2.07
2.95
5.41
8.80
12.37
15.56
17.97
19.33
19.44
18.09
15.23
11.01
5.92
0.65
-4.13
-7.96
-10.79
-12.88
-14.71
-16.81
-19.55
-23.05
-26.98
-30.55
-32.63
-32.01
-27.89
-20.31
-10.26
0.61
10.52
18.15
23.01
25.35
25.80
24.91
22.98
20.07
16.27
11.89
7.53
3.87
1.43
0.40
0.61
1.64
2.98
4.19
4.93
5.03
4.44
3.22
1.51
-0.50
-2.62
-4.70
-6.65
-8.42
-10.08
-11.78
-13.77
-16.35
-19.65
-23.38
-26.74
-28.55
-27.64
-23.35
-15.89
-6.32
3.81
12.93
19.98
24.54
26.75
27.04
25.82
23.43
20.09
16.06
11.71
7.52
4.02
1.65
0.64
0.86
1.95
3.32
4.38
4.71
4.12
2.73
0.82
-1.31
-3.39
-5.32
-7.12
-8.91
-10.83
-13.02
-15.59
-18.62
-22.01
-25.46
-28.33
-29.73
-28.74
-24.74
-17.76
-8.52
1.66
11.31
19.22
24.73
27.80
28.77
28.12
26.17
23.14
19.21
14.64
9.94
5.72
2.61
0.98
0.84
1.83
3.36
4.77
5.51
5.25
3.93
1.73
-1.01
-3.86
-6.43
-8.45
-9.87
-10.83
-11.69
-12.94
-14.98
