1542384227.00
64.000000
-0.00
-0.00
-0.00
-0.00
-0.00
-0.00
-0.00
-0.00
-0.00
-0.00
0.00
0.01
0.01
-0.00
-0.03
-0.05
-0.05
0.00
0.13
0.36
0.66
1.01
1.37
1.72
2.06
2.40
2.79
3.24
3.80
4.42
5.06
5.66
6.20
6.68
7.15
7.68
8.31
9.14
10.09
11.04
11.88
12.56
13.14
13.76
14.65
15.96
17.91
20.32
22.90
25.38
27.58
29.57
31.68
34.32
37.81
42.54
48.15
54.10
59.83
64.97
69.58
74.14
79.34
85.71
93.76
103.00
112.62
121.73
129.77
136.75
143.30
150.75
157.77
166.64
177.95
191.79
206.97
220.57
228.25
225.36
208.53
176.87
132.76
80.05
23.07
-34.94
-92.44
-149.16
-205.23
-260.37
-313.74
-363.87
-409.83
-450.91
-486.50
-515.74
-537.23
-549.22
-549.96
-538.37
-514.21
-478.67
-433.88
-382.45
-327.02
-269.84
-212.63
-156.66
-102.95
-52.37
-5.90
35.58
71.43
101.35
125.50
144.38
158.69
169.15
176.37
180.75
182.57
182.07
179.51
175.23
169.65
163.18
156.15
148.81
141.30
133.69
126.02
118.33
110.69
103.16
95.80
88.68
81.83
75.25
68.95
62.95
57.25
51.86
46.78
42.03
37.59
33.45
29.61
26.07
22.81
19.83
17.11
14.67
12.48
10.54
8.83
7.35
6.07
4.97
4.05
3.27
2.62
2.09
1.65
1.30
1.01
0.79
0.61
0.47
0.37
0.28
0.22
0.18
0.15
0.13
0.12
0.13
0.14
0.15
0.17
0.20
0.24
0.27
0.31
0.35
0.40
0.45
0.49
0.54
0.59
0.65
0.70
0.76
0.83
0.90
0.97
1.06
1.15
1.26
1.38
1.51
1.66
1.82
2.01
2.22
2.44
2.69
2.97
3.28
3.62
3.99
4.39
4.83
5.31
5.82
6.37
6.97
7.60
8.28
9.00
9.76
10.58
11.43
12.33
13.27
14.28
15.34
16.47
17.65
18.90
20.17
21.43
22.62
23.64
24.41
24.77
24.64
23.87
22.42
20.24
17.34
13.81
9.75
5.35
0.81
-3.66
-7.84
-11.56
-14.66
-17.04
-18.67
-19.57
-19.78
-19.40
-18.54
-17.30
-15.78
-14.07
-12.26
-10.43
-8.65
-6.94
-5.35
-3.82
-2.30
-0.71
1.02
2.87
4.79
6.75
8.74
10.65
12.52
14.43
16.50
18.80
21.30
23.93
26.59
29.31
31.90
34.44
37.14
40.26
43.90
47.95
52.11
56.05
59.63
62.52
64.95
67.46
70.61
74.68
79.38
83.98
87.61
89.78
89.90
88.37
86.09
83.94
82.04
79.39
73.73
61.84
45.36
24.77
1.52
-22.47
-45.35
-66.08
-84.86
-102.80
-121.49
-142.54
-168.00
-199.08
-235.39
-273.96
-308.96
-332.62
-337.65
-320.16
-281.58
-229.09
-172.42
-120.39
-78.22
-46.78
-23.95
-6.94
5.98
15.30
20.70
22.70
23.05
24.24
28.39
36.37
47.60
60.31
72.50
82.57
89.96
95.04
98.60
101.22
102.82
102.69
99.94
94.10
85.44
75.09
64.58
55.23
47.66
41.63
36.35
30.94
24.98
18.69
12.79
8.04
4.82
2.86
1.29
-0.88
-4.38
-9.29
-15.04
-20.82
-26.02
-30.61
-35.20
-40.76
-48.07
-57.37
-68.13
-79.31
-89.75
-98.69
-106.07
-112.54
-119.38
-128.12
-140.12
-155.93
-174.54
-192.91
-206.13
-208.59
-195.71
-165.86
-121.24
-67.53
-12.06
38.38
79.31
109.10
128.42
139.07
142.93
141.56
136.23
128.25
119.07
110.09
102.43
96.71
93.04
91.21
91.00
92.33
95.18
99.48
104.90
110.72
115.89
119.25
119.83
117.09
111.15
102.66
92.62
82.05
71.71
61.91
52.60
43.48
34.36
25.29
16.60
8.75
2.12
-3.24
-7.66
-11.77
-16.17
-21.16
-26.57
-31.88
-36.48
-40.08
-42.93
-45.76
-49.52
-54.91
-62.03
-70.40
-79.15
-87.36
-94.54
-100.72
-106.52
-113.03
-121.59
-133.45
-149.11
-167.70
-186.38
-200.53
-204.74
-194.50
-168.02
-127.09
-76.86
-24.21
24.31
64.10
93.26
112.10
122.16
125.24
122.86
116.25
106.63
95.37
83.95
73.75
65.80
60.73
58.68
59.49
62.80
68.13
74.79
81.96
88.54
93.35
95.32
93.73
88.49
80.12
69.76
58.73
48.14
38.61
30.04
21.83
13.27
3.96
-5.91
-15.66
-24.44
-31.75
-37.76
-43.28
-49.34
-56.64
-65.26
-74.53
-83.45
-91.18
-97.45
-102.71
-108.07
-114.96
-124.81
-138.41
-155.36
-173.48
-188.75
-196.07
-190.74
-170.13
-134.91
-89.19
-39.24
8.42
48.80
79.47
100.35
112.87
118.86
119.91
117.21
111.77
104.61
96.83
89.56
83.72
79.92
78.39
79.07
81.69
85.82
90.98
96.58
102.01
106.59
109.66
110.59
108.85
104.19
96.74
87.01
75.89
64.47
53.72
44.29
36.35
29.56
23.26
16.72
9.45
1.37
-7.16
-15.45
-22.83
-28.84
-33.58
-37.59
-41.79
-47.09
-54.07
-62.71
-72.43
-82.30
-91.36
-99.06
-105.47
-111.39
-118.19
-127.50
-140.73
-158.33
-179.08
-199.66
-215.00
-219.38
-208.25
-179.97
-136.67
-83.83
-28.62
22.20
63.98
94.82
115.15
126.61
131.11
130.22
125.19
117.22
107.60
97.76
89.01
82.33
78.21
76.59
77.06
79.03
81.96
85.43
89.14
92.73
95.68
97.18
96.30
92.18
84.40
73.19
59.55
44.99
31.14
19.18
9.42
1.27
-6.55
-15.37
-25.94
-38.06
-50.67
-62.29
-71.73
-78.57
-83.40
-87.61
-93.00
-101.33
-113.74
-130.21
-149.09
-166.87
-178.69
-179.56
-166.05
-137.68
-97.40
-50.84
-4.48
36.13
67.75
89.59
102.67
108.80
109.73
106.75
100.84
92.85
83.72
74.53
66.43
60.40
57.08
56.58
58.48
61.97
66.12
70.10
73.26
75.15
75.40
73.64
69.51
62.73
53.16
40.92
26.42
10.40
-6.10
-21.90
-35.99
-47.77
-57.31
-65.37
-73.21
-82.26
-93.74
-108.11
-124.66
-141.15
-153.92
-158.66
-151.63
-131.08
-98.13
-56.66
-12.26
29.43
64.18
89.87
106.43
115.04
117.32
114.78
108.58
99.68
88.96
77.37
66.04
56.08
48.58
44.35
43.63
46.04
50.58
55.88
60.51
63.31
63.56
61.04
55.89
48.52
39.33
28.65
16.63
3.41
-10.85
-25.81
-40.94
-55.54
-68.97
-80.78
-90.95
-99.95
-108.86
-119.07
-131.96
-148.09
-166.46
-183.98
-195.85
-196.82
-182.97
-153.39
-110.80
-60.89
-10.53
34.28
69.87
95.21
111.34
120.19
123.68
123.23
119.87
114.42
107.81
100.97
94.83
90.07
87.03
85.72
85.88
87.16
89.27
91.98
95.06
98.10
100.46
101.24
99.52
94.66
86.58
75.85
63.65
51.33
40.13
30.63
22.72
15.68
8.50
0.38
-8.89
-18.83
-28.40
-36.50
-42.46
-46.38
-49.22
-52.41
-57.29
-64.57
-73.96
-84.42
-94.50
-103.06
-109.69
-114.97
-120.28
-127.45
-138.26
-153.74
-173.50
-195.10
-214.08
-224.65
-221.28
-200.59
-162.79
-112.00
-55.10
0.32
48.10
84.82
109.97
125.08
132.52
134.49
132.60
128.00
121.63
114.45
107.51
101.71
97.70
95.67
95.41
96.49
98.47
101.01
103.89
106.83
109.32
110.61
109.83
106.32
99.95
91.21
81.05
70.55
60.53
51.32
42.82
34.72
26.85
19.29
12.33
6.29
1.21
-3.13
-7.25
-11.58
-16.28
-21.16
-25.76
-29.80
-33.38
-37.15
-42.05
-48.90
-58.00
-68.87
-80.43
-91.43
-100.94
-108.77
-115.50
-122.35
-130.80
-142.25
-157.46
-176.02
-195.71
-212.37
-220.62
-215.28
-193.28
-155.09
-104.94
-49.63
3.54
48.89
83.39
106.78
120.49
126.55
126.79
122.60
115.13
105.55
95.13
85.13
76.64
70.47
67.00
66.27
68.00
71.66
76.63
82.20
87.65
92.21
95.14
95.70
93.42
88.19
80.42
70.89
60.63
50.57
41.29
32.99
25.52
18.57
11.90
5.33
-1.20
-7.73
-14.29
-20.83
-27.20
-33.09
-38.18
-42.29
-45.65
-48.86
-52.79
-58.24
-65.58
-74.56
-84.39
-94.07
-102.73
-110.03
-116.25
-122.31
-129.54
-139.51
-153.42
-171.44
-191.86
-210.84
-222.84
-222.09
-204.58
-169.75
-121.04
-64.93
-8.97
40.43
79.45
107.14
124.57
133.72
136.52
134.52
129.03
121.28
112.56
104.08
96.78
91.19
87.49
85.66
85.67
87.51
91.14
96.26
102.26
108.14
112.76
115.03
114.27
110.34
103.64
94.96
85.24
75.34
65.79
56.73
48.04
39.44
30.79
22.19
13.95
6.39
-0.38
-6.60
-12.73
-19.19
-26.11
-33.13
-39.70
-45.34
-50.03
-54.33
-59.17
-65.45
-73.55
-83.14
-93.30
-102.92
-111.11
-117.67
-123.12
-128.68
-135.95
-146.52
-161.33
-179.95
-199.93
-216.77
-224.80
-218.77
-195.82
-156.76
-106.14
-50.85
1.97
46.92
81.32
105.02
119.36
126.09
126.73
122.46
114.40
103.83
92.23
81.06
71.58
64.68
60.83
60.13
62.44
67.34
74.25
82.40
90.77
98.23
103.54
105.57
103.58
97.47
87.87
76.08
63.72
52.24
42.41
34.17
26.68
18.82
9.72
-0.73
-11.82
-22.23
-30.70
-36.52
-39.98
-42.23
-44.92
-49.48
-56.53
-65.69
-75.78
-85.41
-93.53
-99.95
-105.40
-111.34
-119.56
-131.66
-148.32
-168.60
-189.46
-205.97
-212.38
-203.86
-178.30
-137.30
-85.93
-31.14
20.32
63.56
96.36
118.67
131.76
137.23
136.54
130.98
121.84
110.54
98.59
87.41
78.17
71.67
68.31
68.17
71.04
76.46
83.73
91.92
99.96
106.69
111.05
112.21
109.75
103.71
94.64
83.45
71.23
59.11
47.94
38.16
29.66
21.89
14.08
5.54
-3.95
-14.17
-24.39
-33.81
-41.74
-48.01
-53.02
-57.58
-62.70
-69.15
-77.24
-86.73
-96.90
-106.89
-116.00
-123.97
-131.14
-138.55
-147.70
-160.26
-177.26
-198.22
-220.43
-239.18
-248.63
-243.65
-221.41
-182.48
-130.66
-71.86
-12.58
41.53
86.44
120.00
141.83
152.95
155.44
151.85
144.68
135.88
126.73
118.00
110.30
104.27
100.63
99.92
102.25
107.23
113.94
121.27
128.01
133.16
135.89
135.67
132.30
125.90
116.91
106.08
94.22
82.10
70.29
59.09
48.63
38.98
30.19
22.29
15.27
9.01
3.24
-2.30
-7.84
-13.38
-18.78
-23.85
-28.53
-33.04
-37.90
-43.76
-51.14
-60.25
-70.82
-82.23
-93.62
-104.19
-113.47
-121.51
-129.01
-137.37
-148.35
-163.52
-183.16
-205.42
-226.04
-239.17
-238.90
-221.31
-185.86
-135.75
-76.98
-16.75
38.39
83.75
116.98
137.94
147.96
149.30
144.42
135.62
124.83
113.57
103.06
94.31
88.10
84.91
84.79
87.41
92.09
98.08
104.56
110.88
116.37
120.30
121.89
120.33
115.14
106.37
94.76
81.64
68.53
56.60
46.29
37.17
28.28
18.68
8.03
-3.19
-13.81
-22.53
-28.52
-31.94
-33.89
-36.06
-39.95
-46.33
-54.90
-64.49
-73.64
-81.27
-87.13
-91.90
-97.00
-104.18
-115.03
-130.36
-149.59
-170.18
-187.68
-196.55
-191.73
-170.48
-133.58
-85.39
-32.60
17.81
60.42
92.41
113.44
124.74
128.05
124.98
116.79
104.67
89.94
74.15
59.00
46.15
36.92
32.10
31.91
35.94
43.24
52.51
62.22
70.80
76.77
78.94
76.63
69.82
59.21
46.04
31.77
17.51
3.79
-9.58
-23.22
-37.72
-53.17
-68.98
-84.06
-97.27
-107.94
-116.20
-123.11
-130.47
-140.26
-153.78
-170.69
-188.32
-201.93
-205.77
-195.04
-167.78
-125.88
-74.65
-21.11
28.15
68.70
98.79
118.85
130.40
135.05
134.15
128.78
120.01
109.17
97.77
87.30
79.03
73.76
71.71
72.59
75.73
80.31
85.54
90.75
95.29
98.44
99.33
97.00
90.76
80.36
66.30
49.76
32.35
15.70
0.99
-11.39
-21.86
-31.49
-41.46
-52.65
-65.21
-78.49
-91.33
-102.50
-111.26
-117.72
-122.89
-128.53
-136.69
-149.22
-166.81
-188.32
-210.31
-227.42
-233.64
-224.12
-196.89
-153.71
-99.66
-41.73
13.14
59.77
95.51
120.19
135.37
143.44
146.75
147.13
145.78
143.31
140.09
136.47
132.92
129.93
127.89
126.95
127.03
127.96
129.50
131.40
133.24
134.44
134.18
131.64
126.27
117.97
107.24
95.06
82.64
71.10
61.20
53.15
46.66
41.16
36.05
31.00
26.08
21.63
18.05
15.55
13.95
12.71
11.17
8.81
5.38
1.02
-3.88
-8.84
-13.55
-17.98
-22.41
-27.28
-33.00
-39.71
-47.24
-55.09
-62.73
-69.80
-76.28
-82.57
-89.27
-96.89
-105.70
-115.56
-126.01
-136.42
-146.23
-155.17
-163.40
-171.75
-181.68
-194.76
-211.88
-232.19
-252.45
-267.46
-271.41
-259.77
-230.82
-186.20
-130.32
-69.03
-8.29
46.80
92.51
126.68
148.84
160.25
163.52
161.84
158.05
153.91
150.05
146.42
142.93
139.83
137.67
136.98
137.91
140.18
143.19
146.21
148.51
149.49
148.55
145.16
138.98
129.96
118.55
105.56
92.14
79.38
68.10
58.67
50.99
44.65
39.19
34.27
29.83
26.01
23.01
20.89
19.48
18.33
16.87
14.61
11.28
6.92
1.87
-3.40
-8.50
-13.32
-18.13
-23.37
-29.49
-36.65
-44.50
-52.34
-59.38
-65.22
-70.07
-74.82
-80.57
-88.19
-97.82
-108.79
-119.85
-129.76
-137.77
-144.01
-149.42
-155.64
-164.58
-177.78
-195.56
-216.28
-236.05
-249.31
-250.18
-234.32
-200.50
-151.16
-91.87
-29.77
28.15
76.67
112.95
136.57
148.93
152.50
150.04
144.03
136.33
128.16
120.31
113.36
107.90
104.40
103.16
104.21
107.23
111.69
116.93
122.24
126.83
129.86
130.45
127.93
121.99
112.89
101.40
88.69
76.01
64.31
54.07
45.22
37.23
29.50
21.59
13.53
5.82
-0.76
-5.53
-8.27
-9.42
-9.99
-11.18
-13.90
-18.43
-24.22
-30.33
-35.82
-40.28
-44.08
-48.24
-53.91
-61.83
-71.93
-83.32
-94.61
-104.53
-112.45
-118.61
-124.10
-130.55
-139.73
-152.90
-170.16
-189.71
-207.63
-218.46
-216.54
-197.99
-162.29
-112.88
-56.26
0.00
49.40
88.05
114.89
131.01
138.38
138.96
134.30
125.58
114.02
100.95
87.85
76.16
67.00
61.10
58.72
59.74
63.74
70.08
77.89
86.16
93.74
99.43
102.16
101.21
96.34
87.83
76.49
63.43
49.84
36.79
24.91
14.40
5.04
-3.70
-12.39
-21.38
-30.70
-40.02
-48.78
-56.45
-62.79
-67.99
-72.64
-77.56
-83.51
-90.95
-99.89
-109.95
-120.65
-131.48
-142.15
-152.55
-162.77
-173.10
-184.14
-196.85
-212.12
-230.13
-249.43
-266.71
-277.26
-276.44
-261.32
-231.68
-189.97
-140.13
-86.36
-32.21
19.42
65.96
105.07
135.10
155.84
168.90
177.26
184.08
191.47
199.86
208.52
216.53
223.78
231.17
240.09
251.54
265.35
280.05
293.30
302.73
306.70
304.88
298.18
288.21
276.60
264.25
251.15
236.64
220.06
201.32
181.14
160.81
141.59
124.17
108.37
93.31
77.79
60.92
42.56
23.47
5.11
-10.92
-23.40
-32.02
-37.43
-40.86
-43.60
-46.26
-48.43
-48.80
-45.80
-38.39
-26.67
-11.91
3.94
18.75
30.79
39.01
43.48
46.02
51.02
65.44
97.42
153.30
234.01
333.00
437.21
531.16
602.42
645.61
663.02
661.77
649.31
630.05
604.62
571.73
530.71
483.17
432.55
382.07
333.26
285.39
236.52
184.45
128.46
69.86
11.83
-42.16
-90.14
-132.20
-170.39
-207.66
-247.01
-290.02
-336.16
-382.99
-427.65
-468.92
-507.25
-544.63
-583.40
-626.90
-678.22
-739.59
-811.68
-893.19
-982.26
-1072.99
-1155.54
-1217.01
-1249.29
-1250.08
-1222.83
-1173.93
-1110.16
-1040.86
-971.03
-901.19
-826.67
-748.59
-670.75
-597.48
-530.05
-467.34
-414.28
-373.60
-344.97
-321.38
-303.36
-292.77
-290.39
-292.24
-292.25
-293.52
-296.79
-298.16
-285.01
-255.31
-212.15
-162.61
-113.53
-15.68
145.89
351.51
510.14
604.79
639.52
636.91
605.37
550.98
480.04
392.11
292.64
212.93
184.41
209.55
267.14
327.44
370.85
391.92
389.01
367.08
334.42
301.85
270.03
236.98
202.49
170.46
144.82
125.39
110.94
100.76
96.17
94.10
91.62
88.37
86.56
88.84
95.00
104.31
116.63
133.09
153.80
172.71
187.97
200.07
210.50
220.29
230.36
241.35
253.38
265.04
275.76
285.95
296.07
306.52
317.96
331.34
348.02
369.41
396.92
432.73
476.71
523.93
565.24
590.32
591.57
566.63
519.22
457.39
392.49
333.21
283.01
241.12
205.51
175.41
151.04
133.44
108.53
70.62
22.14
-28.25
-71.69
-103.46
-122.74
-132.72
-137.10
-138.87
-136.44
-130.33
-122.39
-115.08
-110.22
-108.06
-110.17
-117.34
-129.39
-143.92
-156.86
-167.43
-177.26
-188.62
-202.83
-223.37
-252.23
-289.29
-331.32
-375.61
-421.77
-471.17
-525.57
-563.57
-570.59
-544.54
-496.28
-438.58
-377.66
-312.70
-240.54
-160.64
-77.21
-1.53
55.70
89.52
102.81
103.33
99.00
94.81
92.32
90.88
87.05
78.96
67.45
55.36
45.29
38.00
32.57
27.55
22.14
15.15
6.74
-1.64
-7.81
-10.15
-8.37
-3.94
2.14
8.93
15.19
20.27
24.12
27.01
28.94
29.59
28.26
24.43
17.96
9.02
-1.75
-13.47
-25.28
-36.67
-47.29
-57.17
-66.50
-75.48
-84.20
-92.60
-100.64
-108.39
-116.08
-123.61
-130.96
-137.99
-144.48
-150.04
-154.07
-155.80
-154.19
-150.94
-146.58
-141.43
-135.60
-129.02
-121.55
-113.01
-103.39
-92.93
-82.17
-71.42
-61.04
-51.21
-41.81
-32.43
-22.58
-11.97
-0.67
10.75
21.81
32.01
41.24
49.89
58.86
69.12
81.35
95.52
110.94
126.71
141.91
156.10
169.46
182.78
197.20
214.08
234.60
259.35
287.70
317.17
343.44
361.28
366.22
356.30
332.96
300.51
264.56
229.88
198.98
171.95
147.39
123.79
100.51
77.99
57.38
39.93
26.63
18.08
14.57
16.07
22.11
31.68
43.15
54.42
63.33
68.13
67.94
62.94
54.30
43.78
33.11
23.54
15.61
9.22
3.92
-0.67
-4.62
-7.70
-9.49
-9.69
-8.31
-5.79
-2.93
-0.71
-0.02
-1.42
-5.03
-10.41
-16.81
-23.29
-29.11
-33.80
-37.34
-39.98
-42.13
-44.17
-46.37
-48.86
-51.70
-55.04
-59.07
-63.95
-69.57
-75.38
-80.26
-82.72
-81.35
-75.31
-64.77
-50.89
-35.42
-20.20
-6.50
5.16
14.81
22.68
28.88
33.25
35.54
35.75
34.21
31.61
28.73
26.15
24.15
22.72
21.74
21.19
21.17
21.81
23.12
24.86
26.60
27.79
27.96
26.76
24.06
19.92
14.60
8.60
2.55
-2.98
-7.70
-11.72
-15.53
-19.69
-24.53
-29.97
-35.45
-40.31
-44.02
-46.47
-48.04
-49.49
-51.73
-55.57
-61.36
-68.72
-76.42
-82.44
-84.53
-80.91
-70.87
-55.16
-35.73
-15.11
4.29
20.83
33.79
43.23
49.72
53.93
56.50
57.88
58.39
58.24
57.58
56.52
55.17
53.65
52.09
50.66
49.54
48.89
48.88
49.58
50.89
52.52
53.87
54.16
52.54
48.30
41.10
31.09
18.94
5.68
-7.50
-19.40
-29.04
-35.69
-38.94
-38.82
-35.81
-30.85
-25.10
-19.70
-15.44
-12.68
-11.32
-11.08
-11.72
-13.10
-15.21
-18.02
-21.40
-25.13
-28.98
-32.79
-36.56
-40.32
-44.07
-47.69
-51.08
-54.20
-57.24
-60.62
-64.89
-70.43
-77.12
-84.13
-89.93
-92.61
-90.49
-82.66
-69.36
-52.00
-32.72
-13.78
3.01
16.64
26.91
34.19
39.10
42.23
44.09
45.03
45.30
45.10
44.63
44.06
43.57
43.32
43.46
44.05
45.16
46.76
48.75
50.91
52.90
54.30
54.75
54.08
52.34
49.79
46.83
43.83
41.05
38.57
36.31
34.11
31.78
29.19
26.38
23.54
21.05
19.32
18.63
19.03
20.21
21.60
22.60
22.80
22.07
20.61
18.83
17.15
15.84
14.89
14.06
12.89
10.84
7.40
2.19
-4.93
-13.87
-24.22
-35.40
-46.82
-58.06
-69.04
-79.88
-90.75
-101.51
-111.39
-119.07
-122.91
-121.52
-114.26
-101.57
-84.83
-66.00
-47.10
-29.77
-15.06
-3.42
5.18
11.07
14.77
16.83
17.78
18.09
18.04
17.84
17.62
17.50
17.66
18.24
19.40
21.20
23.63
26.53
29.64
32.63
35.06
36.59
36.96
36.13
34.24
31.55
28.40
25.13
22.01
19.22
16.80
14.65
12.59
10.38
7.88
5.10
2.21
-0.54
-3.00
-5.15
-7.20
-9.33
-11.64
-13.99
-16.13
-17.80
-18.97
-19.86
-20.92
-22.63
-25.26
-28.77
-32.82
-36.92
-40.65
-43.79
-46.41
-48.88
-51.81
-55.85
-61.44
-68.47
-76.10
-82.71
-86.32
-85.17
-78.38
-66.24
-50.13
-32.05
-14.01
2.43
16.28
27.06
34.62
39.04
40.63
39.95
37.74
34.73
31.52
28.45
25.70
23.41
21.77
21.10
21.64
23.51
26.47
30.07
33.69
36.72
38.71
39.46
39.00
37.55
35.45
33.03
30.49
27.89
25.15
22.20
19.03
15.78
12.65
9.82
7.33
5.10
2.99
0.86
-1.33
-3.57
-5.83
-8.09
-10.35
-12.58
-14.69
-16.63
-18.48
-20.40
-22.64
-25.39
-28.62
-32.11
-35.55
-38.72
-41.65
-44.71
-48.47
-53.49
-60.06
-67.83
-75.75
-82.12
-85.04
-82.95
-75.17
-62.18
-45.47
-27.11
-9.19
6.69
19.63
29.36
36.09
40.23
42.24
42.57
41.60
39.70
37.20
34.44
31.78
29.59
28.19
27.82
28.55
30.27
32.73
35.60
38.50
41.03
42.85
43.68
43.41
42.10
39.99
37.40
34.64
31.87
29.12
26.33
23.42
20.39
17.33
14.30
11.40
8.65
6.04
3.52
1.06
-1.38
-3.81
-6.22
-8.61
-10.99
-13.38
-15.90
-18.73
-22.03
-25.90
-30.25
-34.79
-39.15
-43.06
-46.40
-49.42
-52.59
-56.54
-61.83
-68.63
-76.50
-84.29
-90.26
-92.55
-89.69
-81.06
-67.17
-49.51
-30.16
-11.23
5.58
19.23
29.42
36.34
40.47
42.35
42.42
40.96
38.28
34.74
30.90
27.50
25.23
24.51
25.41
27.59
30.54
33.73
36.82
39.63
42.05
43.90
44.94
44.90
43.66
41.31
38.19
34.76
31.42
28.40
25.71
23.17
20.56
17.78
14.85
12.01
9.54
7.58
6.11
4.83
3.41
1.63
-0.51
-2.72
-4.67
-6.12
-7.20
-8.30
-9.99
-12.69
-16.51
-21.18
-26.19
-31.01
-35.35
-39.19
-42.81
-46.68
-51.31
-57.11
-64.19
-72.14
-79.95
-85.98
-88.35
-85.49
-76.65
-62.34
-44.18
-24.46
-5.46
11.11
24.33
34.05
40.56
44.31
45.73
45.21
43.14
40.00
36.33
32.72
29.75
27.85
27.29
28.09
30.07
32.94
36.34
39.93
43.33
46.15
47.98
48.51
47.59
45.37
42.19
38.51
34.73
31.07
27.55
24.09
20.65
17.25
14.02
11.06
8.39
5.94
3.56
1.10
-1.54
-4.40
-7.42
-10.45
-13.30
-15.82
-17.97
-19.92
-22.00
-24.58
-27.93
-32.00
-36.49
-40.93
-44.96
-48.45
-51.58
-54.84
-58.84
-64.17
-71.12
-79.37
-87.86
-94.78
-97.97
-95.52
-86.43
-71.06
-51.10
-29.07
-7.63
11.15
26.08
36.91
44.05
48.16
49.95
49.96
48.69
46.61
44.23
42.04
40.47
39.72
39.81
40.56
41.75
43.23
44.95
46.89
48.98
50.99
52.53
53.15
52.51
50.53
47.42
43.66
39.79
36.26
33.23
30.59
28.03
25.19
21.90
18.20
14.35
10.69
7.49
4.88
2.78
0.96
-0.87
-2.96
-5.44
-8.31
-11.38
-14.38
-17.04
-19.25
-21.15
-23.11
-25.61
-28.98
-33.24
-38.06
-42.88
-47.17
-50.71
-53.72
-56.77
-60.65
-66.00
-72.99
-81.08
-88.88
-94.44
-95.62
-90.85
-79.68
-63.01
-42.86
-21.76
-1.99
14.92
28.28
38.06
44.49
47.95
48.84
47.66
45.10
41.96
38.98
36.74
35.55
35.44
36.29
37.94
40.20
42.92
45.90
48.89
51.56
53.52
54.41
54.01
52.26
49.37
45.74
41.81
37.95
34.38
31.16
28.22
25.44
22.68
19.88
17.03
14.22
11.56
9.18
7.18
5.53
4.14
2.84
1.48
-0.04
-1.73
-3.50
-5.22
-6.79
-8.20
-9.58
-11.16
-13.24
-16.04
-19.56
-23.56
-27.63
-31.31
-34.25
-36.46
-38.28
-40.37
-43.46
-48.15
-54.60
-62.32
-70.15
-76.39
-79.23
-77.22
-69.77
-57.35
-41.42
-23.98
-7.08
7.69
19.42
27.85
33.11
35.62
35.81
34.18
31.25
27.57
23.65
19.95
16.81
14.60
13.63
14.15
16.25
19.74
24.10
28.65
32.66
35.62
37.25
37.52
36.48
34.30
31.21
27.51
23.52
19.56
15.74
12.01
8.19
4.09
-0.30
-4.74
-8.87
-12.30
-14.87
-16.72
-18.22
-19.87
-22.05
-24.87
-28.15
-31.56
-34.71
-37.39
-39.66
-41.88
-44.60
-48.49
-53.96
-60.96
-68.68
-75.56
-79.60
-78.94
-72.49
-60.36
-43.95
-25.38
-6.98
9.44
22.84
32.96
40.01
44.40
46.54
46.74
45.35
42.76
39.46
35.98
32.84
30.48
29.17
29.05
30.09
32.13
34.88
37.97
40.95
43.36
44.79
45.01
43.99
41.85
38.83
35.17
31.09
26.81
22.53
18.49
14.80
11.53
8.60
5.84
3.07
0.16
-2.93
-6.15
-9.33
-12.29
-14.85
-16.95
-18.75
-20.55
-22.78
-25.80
-29.72
-34.32
-39.18
-43.81
-47.88
-51.38
-54.56
-57.82
-61.67
-66.56
-72.81
-80.41
-88.83
-96.77
-102.31
-103.26
-97.90
-85.64
-67.35
-45.27
-22.27
-1.04
16.61
29.91
39.00
44.53
47.26
47.94
47.28
45.97
44.61
43.58
43.01
42.81
42.80
42.94
43.36
44.26
45.80
47.95
50.44
52.91
54.96
56.25
56.56
55.74
53.75
50.70
46.89
42.75
38.73
35.11
31.96
29.10
26.32
23.45
20.56
17.85
15.53
13.73
12.39
11.33
10.34
9.33
8.30
7.27
6.19
4.90
3.20
0.94
-1.86
-5.00
-8.17
-11.15
-13.85
-16.40
-19.05
-22.10
-25.74
-30.02
-34.79
-39.74
-44.53
-48.83
-52.48
-55.54
-58.28
-61.24
-65.07
-70.40
-77.44
-85.70
-93.72
-99.33
-100.13
-94.36
-81.62
-63.08
-41.23
-19.00
1.06
17.40
29.55
37.86
43.07
45.88
46.91
46.64
45.48
43.87
42.16
40.63
39.42
38.65
38.39
38.74
39.78
41.51
43.80
46.34
48.72
50.47
51.22
50.79
49.20
46.65
43.43
39.83
36.09
32.37
28.73
25.23
21.82
18.48
15.19
12.01
9.09
6.62
4.74
3.47
2.57
1.67
0.38
-1.45
-3.75
-6.14
-8.26
-9.95
-11.40
-13.08
-15.43
-18.68
-22.66
-26.88
-30.73
-33.84
-36.16
-38.05
-40.10
-43.03
-47.38
-53.38
-60.81
-68.75
-75.66
-79.61
-78.75
-72.00
-59.46
-42.56
-23.63
-5.15
10.90
23.46
32.36
38.01
40.96
41.69
40.57
37.96
34.32
30.24
26.34
23.18
21.10
20.28
20.68
22.18
24.55
27.53
30.85
34.15
37.06
39.21
40.26
39.98
38.30
35.38
31.52
27.16
22.74
18.58
14.83
11.40
8.07
4.59
0.78
-3.29
-7.41
-11.21
-14.37
-16.72
-18.37
-19.69
-21.16
-23.26
-26.29
-30.25
-34.86
-39.63
-44.06
-47.81
-50.82
-53.35
-56.02
-59.58
-64.76
-71.93
-80.78
-90.05
-97.73
-101.35
-98.85
-89.29
-73.23
-52.69
-30.49
-9.33
8.83
23.16
33.72
41.09
45.90
48.67
49.78
49.61
48.55
47.08
45.61
44.44
43.72
43.50
43.76
44.53
45.77
47.47
49.54
51.75
53.80
55.31
55.84
55.11
52.99
49.66
45.51
41.08
36.83
32.99
29.53
26.23
22.84
19.26
15.59
12.10
9.10
6.77
5.11
3.94
2.95
1.79
0.22
-1.87
-4.39
-7.12
-9.77
-12.16
-14.34
-16.61
-19.39
-23.06
-27.72
-33.14
-38.84
-44.25
-49.01
-53.07
-56.71
-60.42
-64.81
-70.40
-77.44
-85.63
-93.86
-100.29
-102.63
-98.85
-87.95
-70.47
-48.48
-24.94
-2.81
15.74
29.77
39.33
45.15
48.10
48.96
48.31
46.62
44.35
41.98
39.92
38.51
37.96
38.32
39.52
41.37
43.71
46.38
49.25
52.16
54.84
56.90
57.89
57.47
55.48
52.12
47.82
43.18
38.69
34.67
31.14
27.90
24.73
21.45
18.12
14.96
12.24
10.19
8.81
7.91
7.15
6.17
4.73
2.76
0.39
-2.10
-4.43
-6.44
-8.18
-9.95
-12.20
-15.37
-19.58
-24.68
-30.16
-35.42
-40.02
-43.82
-47.11
-50.44
-54.52
-59.97
-67.03
-75.32
-83.70
-90.37
-93.21
-90.46
-81.28
-66.23
-47.13
-26.54
-7.00
9.64
22.50
31.58
37.36
40.40
41.19
40.07
37.46
33.84
29.83
26.01
22.96
21.08
20.59
21.55
23.82
27.09
30.91
34.74
38.09
40.53
41.79
41.67
40.10
37.11
32.89
27.72
22.02
16.18
10.55
5.33
0.60
-3.66
-7.53
-11.13
-14.62
-18.11
-21.66
-25.26
-28.78
-32.06
-34.93
-37.37
-39.53
-41.77
-44.59
-48.55
-54.07
-61.14
-69.13
-76.63
-81.73
-82.44
-77.41
-66.36
-50.32
-31.33
-11.81
6.10
20.99
32.30
40.18
45.13
47.73
48.43
47.60
45.57
42.68
39.42
36.32
33.91
32.56
32.38
33.23
34.85
36.93
39.27
41.61
43.69
45.03
45.16
43.71
40.66
36.41
31.58
26.84
22.52
18.64
14.91
10.96
6.59
1.87
-2.91
-7.36
-11.19
-14.30
-16.85
-19.19
-21.75
-24.86
-28.60
-32.81
-37.12
-41.12
-44.60
-47.63
-50.64
-54.31
-59.37
-66.33
-75.11
-84.81
-93.60
-99.13
-99.09
-92.03
-77.91
-58.26
-35.71
-13.21
6.82
22.99
35.00
43.34
48.81
52.09
53.60
53.59
52.32
50.17
47.70
45.50
44.03
43.52
43.90
44.94
46.38
48.07
49.91
51.80
53.50
54.64
54.79
53.61
51.01
47.23
42.68
37.83
33.10
28.69
24.68
21.05
17.73
14.62
11.59
8.46
5.07
1.36
-2.56
-6.40
-9.80
-12.51
-14.53
-16.24
-18.15
-20.83
-24.48
-28.97
-33.81
-38.39
-42.30
-45.45
-48.21
-51.16
-54.98
-60.22
-67.10
-75.35
-84.06
-91.61
-95.97
-95.06
-87.52
-73.22
-53.48
-30.81
-8.13
12.04
28.16
39.80
47.36
51.68
53.58
53.77
52.79
51.12
49.16
47.25
45.66
44.58
44.14
44.50
45.77
47.99
51.03
54.54
58.02
60.90
62.66
62.98
61.76
59.18
55.61
51.60
47.68
44.21
41.24
38.42
35.12
30.70
24.79
17.52
9.63
2.10
-4.19
-8.95
-12.55
-15.93
-20.15
-25.92
-33.29
-41.69
-50.35
-58.67
-66.61
-74.66
-83.54
-93.64
-104.67
-115.64
-125.15
-131.97
-135.55
-136.06
-134.27
-131.06
-127.13
-122.89
-118.48
-113.68
-107.74
-99.18
-86.07
-66.68
-40.49
-8.93
24.68
56.01
81.23
98.20
106.91
108.94
106.42
101.09
94.01
85.90
77.62
70.31
65.06
62.31
61.49
61.23
60.19
57.85
54.89
52.85
53.03
55.57
59.10
61.21
59.73
53.87
44.72
34.67
26.04
19.86
15.08
9.09
-1.14
-17.39
-39.24
-64.00
-87.87
-107.49
-121.10
-128.69
-131.05
-128.64
-120.76
-105.83
-82.33
-49.75
-8.79
39.13
92.44
149.23
206.54
259.40
301.13
324.93
326.45
305.73
267.41
218.89
167.52
118.29
72.95
30.64
-10.67
-52.78
-96.21
-139.70
-180.27
-213.83
-236.27
-244.94
-239.74
-223.22
-199.52
-172.90
-146.47
-121.94
-100.18
-81.99
-68.35
-59.91
-56.16
-55.15
-54.05
-50.31
-42.86
-32.45
-21.10
-11.11
-3.94
0.33
2.76
4.90
7.94
12.24
17.29
22.08
25.52
26.92
26.22
23.89
20.71
17.47
14.62
12.13
9.64
6.62
2.84
-1.57
-6.13
-10.32
-13.85
-16.93
-20.01
-23.63
-28.02
-32.98
-38.04
-42.76
-46.94
-50.79
-54.79
-59.34
-64.64
-70.48
-76.30
-81.47
-85.49
-88.17
-89.78
-90.89
-92.19
-94.30
-97.53
-101.64
-105.71
-108.20
-107.16
-100.76
-87.83
-68.34
-43.43
-15.14
14.21
42.53
68.31
90.64
109.09
123.45
133.75
140.21
143.40
144.09
143.19
141.53
139.72
138.11
136.73
135.35
133.61
131.22
128.08
124.34
120.29
116.13
111.76
106.73
100.47
92.58
83.17
72.92
62.88
54.04
47.01
41.78
37.90
34.72
31.68
28.46
25.01
21.45
18.00
14.90
12.39
10.59
9.44
8.64
7.79
6.51
4.67
2.35
-0.21
-2.79
-5.34
-7.99
-10.90
-14.13
-17.52
-20.78
-23.61
-25.89
-27.69
-29.22
-30.77
-32.60
-34.90
-37.81
-41.29
-45.06
-48.36
-50.04
-48.74
-43.31
-33.32
-19.35
-2.93
13.89
29.23
41.79
51.11
57.39
61.08
62.61
62.20
59.97
56.15
51.09
45.25
39.04
32.72
26.40
20.12
14.06
8.47
3.72
0.12
-2.09
-2.87
-2.36
-0.89
0.99
2.63
3.34
2.71
0.75
-2.07
-4.93
-7.05
-8.00
-7.96
-7.59
-7.75
-9.10
-11.76
-15.33
-19.13
-22.58
-25.49
-28.08
-30.79
-34.08
-38.30
-43.81
-51.14
-61.05
-74.19
-90.64
-109.46
-128.79
-146.30
-159.95
-168.55
-171.78
-169.74
-162.60
-150.54
-134.22
-115.16
-95.67
-78.15
-63.99
-52.69
-41.71
-27.24
-5.66
24.81
63.09
105.03
144.49
175.20
192.75
196.01
187.17
170.65
151.13
131.93
114.35
98.18
82.79
68.04
54.36
42.09
30.70
18.68
4.15
-14.00
-35.13
-56.69
-74.98
-86.59
-89.79
-85.30
-76.19
-66.78
-61.09
-61.36
-67.38
-76.68
-85.71
-91.16
-91.23
-86.03
-77.33
-67.62
-59.14
-53.27
-50.46
-50.46
-52.68
-56.37
-60.33
-62.77
-61.18
-52.71
-34.72
-5.59
34.60
83.58
137.03
189.08
233.39
264.60
279.53
278.10
263.19
239.69
212.90
186.94
163.87
143.81
125.78
108.76
92.41
77.12
63.42
51.44
40.61
29.96
18.68
6.74
-5.00
-15.12
-22.27
-25.80
-25.95
-23.73
-20.42
-17.12
-14.49
-12.76
-11.87
-11.71
-12.23
-13.48
-15.51
-18.23
-21.42
-24.60
-27.22
-28.75
-28.92
-27.85
-26.08
-24.37
-23.49
-23.80
-25.13
-26.78
-27.82
-27.36
-24.96
-20.67
-15.00
-8.70
-2.52
2.99
7.43
10.69
12.76
13.76
13.86
13.29
12.26
10.95
9.48
7.91
6.33
4.84
3.57
2.64
2.11
1.96
2.03
2.09
1.88
1.28
0.26
-1.05
-2.47
-3.87
-5.31
-6.92
-8.94
-11.45
-14.32
-17.23
-19.81
-21.80
-23.18
-24.17
-25.11
-26.30
-27.94
-30.08
-32.70
-35.68
-38.73
-41.37
-42.94
-42.71
-40.14
-35.06
-27.83
-19.22
-10.24
-1.90
5.02
10.13
13.37
14.93
15.11
14.16
12.28
9.67
6.60
3.44
0.67
-1.33
-2.35
-2.51
-2.10
-1.53
-1.11
-0.97
-1.07
-1.29
-1.60
-2.10
-3.02
-4.63
-7.06
-10.20
-13.69
-17.07
-19.93
-22.10
-23.71
-25.19
-27.03
-29.70
-33.42
-38.07
-43.15
-47.81
-50.95
-51.45
-48.49
-41.81
-31.93
-20.01
-7.61
3.77
13.05
19.78
24.09
26.44
27.35
27.20
26.17
24.37
21.93
19.09
16.16
13.44
11.15
9.34
7.98
6.99
6.35
6.04
6.08
6.42
6.92
7.34
7.36
6.72
5.23
2.91
-0.08
-3.38
-6.62
-9.44
-11.72
-13.58
-15.42
-17.79
-21.20
-25.91
-31.82
-38.33
-44.37
-48.58
-49.66
-46.62
-39.26
-28.24
-15.05
-1.60
10.29
19.42
25.38
28.51
29.56
29.30
28.27
26.75
24.82
22.54
20.00
17.33
14.70
12.33
10.39
9.09
8.51
8.66
9.33
10.21
10.89
11.03
10.41
8.96
6.77
4.03
0.97
-2.23
-5.42
-8.58
-11.78
-15.10
-18.56
-22.05
-25.39
-28.38
-30.98
-33.29
-35.63
-38.43
-42.10
-46.80
-52.22
-57.50
-61.22
-61.77
-57.88
-49.08
-36.09
-20.64
-4.98
8.84
19.58
26.93
31.32
33.47
34.03
33.38
31.73
29.35
26.64
24.05
22.02
20.69
20.01
19.71
19.57
19.51
19.61
20.00
20.75
21.72
22.57
22.82
22.03
19.93
16.59
12.38
7.87
3.62
0.06
-2.77
-5.19
-7.79
-11.13
-15.51
-20.80
-26.45
-31.74
-36.03
-39.10
-41.16
-42.78
-44.71
-47.59
-51.73
-56.91
-62.29
-66.45
-67.68
-64.47
-56.08
-42.92
-26.55
-9.28
6.55
19.29
28.26
33.69
36.31
36.89
35.99
33.98
31.17
27.93
24.67
21.83
19.68
18.33
17.74
17.80
18.42
19.48
20.87
22.42
23.95
25.22
25.97
25.92
24.84
22.60
19.31
15.28
10.99
6.93
3.45
0.69
-1.52
-3.48
-5.55
-8.01
-10.94
-14.25
-17.71
-21.03
-24.02
-26.64
-29.04
-31.52
-34.43
-38.10
-42.77
-48.58
-55.33
-62.37
-68.48
-71.96
-71.12
-64.88
-53.30
-37.68
-20.21
-3.31
11.14
22.18
29.75
34.39
36.80
37.57
37.10
35.65
33.44
30.76
27.93
25.27
23.07
21.56
20.87
21.03
22.00
23.61
25.66
27.83
29.80
31.18
31.63
30.99
29.26
26.66
23.47
20.00
16.40
12.76
9.05
5.32
1.70
-1.64
-4.52
-6.96
-9.11
-11.27
-13.73
-16.64
-19.93
-23.36
-26.59
-29.33
-31.46
-33.11
-34.66
-36.67
-39.69
-44.03
-49.58
-55.61
-60.84
-63.66
-62.54
-56.56
-45.76
-31.27
-15.00
0.84
14.42
24.65
31.36
35.02
36.42
36.27
35.06
33.09
30.52
27.61
24.67
22.10
20.19
19.13
18.91
19.36
20.26
21.40
22.62
23.80
24.80
25.44
25.48
24.62
22.70
19.77
16.12
12.27
8.73
5.88
3.77
2.14
0.52
-1.58
-4.47
-8.22
-12.53
-16.95
-20.99
-24.31
-26.88
-29.02
-31.29
-34.29
-38.48
-43.93
-50.25
-56.57
-61.62
-63.92
-62.17
-55.59
-44.32
-29.50
-13.05
2.81
16.23
26.12
32.44
35.76
36.96
36.76
35.54
33.48
30.67
27.39
24.08
21.26
19.35
18.50
18.63
19.45
20.70
22.15
23.72
25.35
26.91
28.20
28.92
28.79
27.66
25.58
22.81
19.75
16.72
13.93
11.34
8.70
5.77
2.36
-1.44
-5.34
-8.94
-11.95
-14.35
-16.40
-18.54
-21.09
-24.17
-27.51
-30.70
-33.35
-35.34
-36.91
-38.52
-40.76
-44.05
-48.59
-54.13
-59.96
-64.89
-67.41
-66.02
-59.81
-48.78
-34.08
-17.74
-2.07
11.08
20.65
26.63
29.68
30.71
30.49
29.46
27.83
25.73
23.42
21.25
19.65
18.91
19.10
20.12
21.78
23.88
26.29
28.89
31.49
33.78
35.38
35.86
34.99
32.77
29.43
25.42
21.24
17.35
14.04
11.39
9.23
7.19
4.88
2.02
-1.37
-4.97
-8.31
-10.95
-12.73
-13.86
-14.86
-16.34
-18.70
-21.92
-25.60
-29.16
-32.14
-34.41
-36.24
-38.26
-41.19
-45.60
-51.68
-59.04
-66.58
-72.66
-75.34
-73.02
-65.00
-51.78
-35.10
-17.32
-0.75
13.05
23.44
30.63
35.17
37.65
38.42
37.72
35.80
33.08
30.06
27.32
25.26
24.15
24.07
24.95
26.58
28.75
31.14
33.49
35.56
37.15
38.11
38.29
37.61
36.01
33.56
30.37
26.67
22.75
18.92
15.46
12.54
10.15
8.06
5.98
3.63
0.94
-1.93
-4.69
-7.03
-8.90
-10.41
-11.95
-13.87
-16.45
-19.69
-23.38
-27.16
-30.64
-33.57
-35.98
-38.15
-40.59
-43.87
-48.46
-54.53
-61.83
-69.49
-76.04
-79.56
-78.20
-70.77
-57.36
-39.47
-19.66
-0.75
15.11
26.86
34.62
39.14
41.28
41.62
40.44
37.98
34.59
30.90
27.60
25.22
24.07
24.13
25.18
26.93
29.09
31.43
33.79
36.05
38.10
39.80
40.88
41.05
40.00
37.61
34.01
29.63
25.10
21.05
17.82
15.37
13.31
11.11
8.39
5.10
1.55
-1.75
-4.37
-6.18
-7.43
-8.62
-10.31
-12.83
-16.16
-20.01
-23.93
-27.55
-30.69
-33.44
-36.07
-38.95
-42.47
-47.01
-52.71
-59.31
-65.93
-71.07
-72.88
-69.75
-60.94
-47.01
-29.72
-11.57
5.05
18.51
28.23
34.49
38.02
39.45
39.19
37.40
34.28
30.22
25.85
21.97
19.26
18.14
18.64
20.48
23.23
26.42
29.69
32.75
35.35
37.18
37.93
37.34
35.38
32.31
28.60
24.77
21.19
17.94
14.86
11.58
7.84
3.61
-0.91
-5.28
-9.11
-12.22
-14.76
-17.17
-19.98
-23.51
-27.72
-32.18
-36.28
-39.53
-41.84
-43.57
-45.43
-48.21
-52.56
-58.75
-66.50
-74.83
-82.04
-86.02
-84.75
-77.01
-62.98
-44.37
-23.91
-4.55
11.53
23.38
31.27
36.13
38.94
40.35
40.61
39.81
38.14
36.05
34.16
33.08
33.18
34.51
36.80
39.55
42.27
44.59
46.30
47.36
47.82
47.70
46.93
45.41
43.02
39.80
35.91
31.69
27.55
23.80
20.56
17.75
15.15
12.48
9.54
6.29
2.81
-0.70
-4.01
-6.90
-9.27
-11.22
-13.04
-15.12
-17.84
-21.40
-25.65
-30.15
-34.39
-37.98
-40.89
-43.49
-46.38
-50.23
-55.59
-62.66
-71.19
-80.26
-88.24
-93.01
-92.44
-85.16
-71.17
-52.12
-30.84
-10.44
6.61
19.18
27.38
32.07
34.22
34.45
33.03
30.11
26.07
21.54
17.32
14.05
12.00
11.08
10.91
11.06
11.24
11.32
11.28
11.09
10.59
9.46
7.17
3.17
-2.98
-11.40
-21.75
-33.18
-44.44
-54.13
-61.10
-64.74
-65.07
-62.68
-58.39
-53.04
-47.25
-41.53
-36.35
-32.32
-30.02
-29.86
-31.80
-35.32
-39.48
-43.31
-46.18
-47.96
-49.10
-50.35
-52.60
-56.54
-62.52
-70.24
-78.67
-86.04
-90.11
-88.73
-80.59
-65.63
-45.25
-21.87
1.78
23.41
41.59
55.86
66.41
73.63
77.88
79.41
78.42
75.34
70.86
65.94
61.63
58.84
58.11
59.56
62.85
67.37
72.38
77.22
81.28
84.14
85.51
85.27
83.50
80.42
76.35
71.60
66.38
60.75
54.74
48.37
41.82
35.32
29.17
23.52
18.36
13.46
8.55
3.38
-2.10
-7.76
-13.34
-18.62
-23.49
-28.08
-32.74
-38.01
-44.54
-52.86
-63.11
-74.69
-86.02
-94.74
-98.17
-94.18
-82.07
-62.91
-39.30
-14.57
8.22
27.08
41.27
51.10
57.36
60.89
62.32
62.04
60.25
57.12
52.91
48.06
43.25
39.32
37.05
36.78
38.26
40.64
42.71
43.40
42.19
39.22
35.15
30.77
26.68
23.14
20.15
17.50
14.72
11.03
5.40
-3.05
-14.60
-28.50
-43.09
-56.37
-66.82
-73.91
-78.03
-80.03
-80.64
-80.12
-78.40
-75.39
-71.19
-66.10
-60.44
-54.33
-47.56
-39.58
-29.46
-15.99
2.01
25.16
52.96
83.42
113.34
139.20
158.19
169.02
172.16
169.24
162.34
153.23
143.02
132.31
121.39
110.57
100.28
90.97
82.98
76.41
71.04
66.51
62.41
58.46
54.58
50.79
47.13
43.52
39.69
35.32
30.12
24.03
17.28
10.36
3.86
-1.69
-6.07
-9.36
-11.96
-14.45
-17.39
-21.20
-25.97
-31.47
-37.26
-42.78
-47.52
-51.22
-53.91
-56.00
-58.13
-61.08
-65.56
-71.85
-79.52
-87.21
-92.82
-94.00
-88.94
-77.14
-59.67
-38.91
-17.71
1.45
17.14
29.02
37.49
43.14
46.39
47.42
46.35
43.51
39.56
35.34
31.68
29.12
27.81
27.53
27.84
28.29
28.61
28.69
28.58
28.36
27.97
27.20
25.73
23.22
19.60
15.10
10.24
5.62
1.77
-1.17
-3.40
-5.40
-7.70
-10.60
-14.10
-17.91
-21.58
-24.73
-27.19
-29.03
-30.54
-32.22
-34.60
-38.24
-43.43
-49.99
-57.03
-62.96
-65.78
-63.70
-55.86
-42.66
-25.82
-7.78
9.05
22.97
33.25
40.06
44.00
45.70
45.60
43.95
40.96
36.95
32.43
28.01
24.23
21.47
19.80
19.10
19.12
19.61
20.41
21.42
22.49
23.36
23.55
22.56
19.96
15.60
9.72
2.92
-4.03
-10.44
-15.91
-20.44
-24.37
-28.25
-32.61
-37.82
-43.90
-50.47
-56.67
-61.24
-62.81
-60.21
-52.88
-41.14
-26.19
-9.83
6.01
19.75
30.40
37.66
41.70
42.91
41.70
38.46
33.55
27.46
20.78
14.20
8.41
3.96
1.22
0.33
1.17
3.38
6.37
9.32
11.40
11.90
10.49
7.25
2.66
-2.62
-8.01
-13.14
-17.97
-22.72
-27.78
-33.63
-40.52
-48.29
-56.01
-62.08
-64.51
-61.59
-52.62
-38.34
-20.82
-2.79
13.25
25.78
34.50
40.04
43.36
45.22
45.94
45.53
43.95
41.37
38.26
35.19
32.66
30.94
30.03
29.77
29.95
30.47
31.24
32.18
33.12
33.83
34.02
33.41
31.82
29.19
25.67
21.54
17.20
13.05
9.42
6.41
3.92
1.67
-0.69
-3.41
-6.58
-10.07
-13.57
-16.76
-19.44
-21.64
-23.62
-25.78
-28.53
-32.05
-36.28
-40.84
-45.23
-48.98
-51.88
-54.12
-56.24
-59.05
-63.35
-69.61
-77.62
-86.30
-93.76
-97.65
-95.85
-87.23
-72.14
-52.38
-30.73
-10.07
7.45
20.77
29.99
35.87
39.41
41.50
42.78
43.69
44.52
45.41
46.33
47.09
47.40
47.07
46.07
44.66
43.25
42.28
42.07
42.65
43.79
44.99
45.63
45.18
43.32
40.07
35.78
30.98
26.26
22.00
18.30
14.93
11.53
7.79
3.63
-0.74
-4.95
-8.64
-11.68
-14.25
-16.76
-19.67
-23.24
-27.37
-31.71
-35.74
-39.10
-41.71
-43.82
-45.93
-48.64
-52.50
-57.83
-64.58
-72.06
-78.93
-83.36
-83.47
-78.02
-66.88
-51.26
-33.35
-15.68
-0.31
11.63
20.04
25.56
29.11
31.45
33.11
34.33
35.23
35.88
36.36
36.73
36.98
37.06
36.93
36.66
36.45
36.53
37.08
38.06
39.22
40.12
40.32
39.50
37.58
34.73
31.27
27.55
23.85
20.35
17.09
14.01
11.05
8.14
5.29
2.55
-0.02
-2.41
-4.72
-7.14
-9.91
-13.14
-16.85
-20.81
-24.71
-28.23
-31.19
-33.67
-35.96
-38.60
-42.13
-46.91
-52.82
-59.06
-64.22
-66.59
-64.71
-57.91
-46.67
-32.53
-17.62
-3.97
7.01
14.85
19.85
22.78
24.43
25.38
25.91
26.06
25.84
25.28
24.47
23.63
22.99
22.73
22.98
23.78
25.10
26.79
28.65
30.43
31.82
32.56
32.39
31.18
28.96
25.90
22.30
18.49
14.74
11.19
7.86
4.69
1.63
-1.32
-4.09
-6.62
-8.93
-11.14
-13.43
-15.95
-18.74
-21.69
-24.60
-27.24
-29.50
-31.46
-33.39
-35.73
-38.92
-43.23
-48.56
-54.29
-59.31
-62.20
-61.65
-56.86
-47.94
-35.83
-22.16
-8.74
2.98
12.16
18.68
22.89
25.37
26.63
26.99
26.64
25.72
24.39
22.85
21.35
20.09
19.27
19.05
19.51
20.64
22.31
24.25
26.08
27.43
27.97
27.54
26.15
23.92
21.10
17.90
14.50
10.97
7.32
3.60
-0.11
-3.62
-6.68
-9.13
-10.98
-12.44
-13.86
-15.58
-17.80
-20.50
-23.41
-26.17
-28.50
-30.30
-31.70
-33.06
-34.84
-37.45
-41.12
-45.75
-50.79
-55.27
-57.92
-57.54
-53.39
-45.48
-34.64
-22.29
-9.98
1.00
9.89
16.46
20.88
23.48
24.58
24.55
23.70
22.33
20.78
19.32
18.20
17.58
17.53
18.05
19.09
20.53
22.28
24.22
26.17
27.92
29.17
29.64
29.11
27.56
25.16
22.20
19.01
15.80
12.67
9.61
6.57
3.57
0.66
-2.07
-4.58
-6.92
-9.27
-11.78
-14.59
-17.73
-21.10
-24.50
-27.72
-30.63
-33.19
-35.54
-37.93
-40.71
-44.20
-48.59
-53.74
-59.02
-63.36
-65.32
-63.60
-57.48
-47.22
-34.05
-19.79
-6.28
5.16
13.98
20.29
24.56
27.28
28.80
29.34
29.05
28.13
26.85
25.47
24.29
23.55
23.37
23.81
24.78
26.16
27.79
29.51
31.15
32.47
33.13
32.74
31.08
28.16
24.32
20.15
16.22
12.92
10.30
8.08
5.88
3.36
0.43
-2.71
-5.75
-8.32
-10.23
-11.54
-12.52
-13.59
-15.13
-17.35
-20.18
-23.36
-26.47
-29.24
-31.62
-33.86
-36.47
-39.99
-44.77
-50.63
-56.83
-62.08
-64.85
-63.83
-58.35
-48.67
-35.93
-21.83
-8.17
3.63
12.80
19.19
23.14
25.20
25.89
25.65
24.78
23.48
21.97
20.49
19.28
18.60
18.66
19.51
21.09
23.18
25.51
27.81
29.84
31.40
32.31
32.38
31.43
29.39
26.36
22.63
18.67
14.92
11.68
8.97
6.55
4.09
1.35
-1.63
-4.57
-7.08
-8.93
-10.19
-11.29
-12.75
-14.96
-17.96
-21.41
-24.81
-27.72
-29.96
-31.73
-33.49
-35.84
-39.29
-44.13
-50.23
-56.94
-63.01
-66.83
-66.84
-62.01
-52.34
-38.95
-23.76
-8.94
3.79
13.52
20.23
24.48
26.99
28.28
28.63
28.14
26.91
25.24
23.54
22.31
21.90
22.45
23.88
25.92
28.27
30.66
32.93
34.92
36.52
37.60
37.94
37.35
35.64
32.80
29.02
24.71
20.40
16.58
13.51
11.09
8.98
6.71
3.97
0.71
-2.78
-6.07
-8.82
-10.90
-12.50
-14.01
-15.82
-18.16
-21.07
-24.35
-27.72
-30.88
-33.70
-36.24
-38.75
-41.66
-45.44
-50.44
-56.61
-63.36
-69.46
-73.25
-73.09
-67.90
-57.68
-43.54
-27.44
-11.54
2.41
13.48
21.53
26.94
30.25
31.88
32.14
31.27
29.56
27.44
25.33
23.61
22.60
22.49
23.34
25.12
27.62
30.55
33.56
36.32
38.57
40.14
40.88
40.65
39.33
36.92
33.53
29.50
25.29
21.38
18.09
15.45
13.20
10.86
8.02
4.50
0.50
-3.53
-7.06
-9.76
-11.66
-13.06
-14.49
-16.45
-19.19
-22.69
-26.62
-30.54
-34.07
-37.04
-39.65
-42.33
-45.66
-50.13
-55.90
-62.71
-69.69
-75.52
-78.59
-77.44
-71.19
-59.87
-44.61
-27.34
-10.29
4.65
16.34
24.53
29.69
32.64
34.17
34.82
34.85
34.29
33.16
31.57
29.80
28.31
27.60
28.06
29.79
32.62
36.13
39.83
43.23
45.94
47.73
48.41
47.90
46.21
43.45
39.87
35.81
31.66
27.78
24.35
21.38
18.69
16.02
13.13
9.92
6.44
2.88
-0.48
-3.39
-5.78
-7.76
-9.64
-11.84
-14.70
-18.35
-22.61
-27.09
-31.32
-34.97
-37.93
-40.37
-42.64
-45.27
-48.80
-53.71
-60.17
-67.72
-75.10
-80.34
-81.33
-76.49
-65.51
-49.55
-30.97
-12.46
3.75
16.42
25.44
31.35
34.87
36.57
36.79
35.70
33.60
30.92
28.18
25.88
24.36
23.79
24.21
25.57
27.80
30.75
34.16
37.59
40.51
42.43
43.00
42.13
39.99
36.97
33.51
29.98
26.57
23.31
20.09
16.78
13.30
9.71
6.16
2.82
-0.25
-3.11
-5.94
-8.99
-12.41
-16.16
-20.05
-23.80
-27.18
-30.14
-32.83
-35.65
-39.05
-43.53
-49.32
-56.23
-63.36
-69.18
-71.75
-69.38
-61.22
-47.82
-30.92
-13.02
3.50
17.01
26.92
33.51
37.43
39.30
39.48
38.14
35.49
31.90
27.95
24.33
21.68
20.46
20.86
22.76
25.79
29.38
32.91
35.84
37.79
38.55
38.06
36.39
33.66
30.06
25.79
21.17
16.50
12.09
8.10
4.57
1.36
-1.75
-4.99
-8.53
-12.45
-16.72
-21.25
-25.82
-30.20
-34.14
-37.49
-40.23
-42.60
-45.07
-48.31
-52.98
-59.50
-67.68
-76.49
-84.06
-88.16
-86.78
-78.95
-65.16
-47.26
-27.85
-9.46
6.16
18.31
27.16
33.32
37.46
40.02
41.27
41.41
40.70
39.48
38.13
37.06
36.56
36.81
37.82
39.50
41.63
44.02
46.44
48.70
50.52
51.58
51.55
50.19
47.48
43.69
39.29
34.86
30.84
27.42
24.50
21.76
18.83
15.43
11.52
7.27
2.99
-0.93
-4.25
-6.92
-9.13
-11.29
-13.87
-17.26
-21.59
-26.65
-32.00
-37.09
-41.52
-45.19
-48.34
-51.51
-55.38
-60.56
-67.39
-75.64
-84.30
-91.62
-95.37
-93.55
-85.09
-70.44
-51.45
-30.90
-11.52
4.77
17.24
26.16
32.34
36.61
39.53
41.41
42.42
42.77
42.68
42.35
41.99
41.78
41.94
42.67
44.17
46.48
49.42
52.62
55.59
57.85
58.98
58.80
57.27
54.57
50.99
46.87
42.56
38.32
34.32
30.64
27.26
24.16
21.28
18.50
15.68
12.65
9.33
5.81
2.36
-0.73
-3.24
-5.24
-7.08
-9.29
-12.32
-16.36
-21.20
-26.36
-31.23
-35.41
-38.79
-41.63
-44.43
-47.80
-52.29
-58.26
-65.65
-73.84
-81.51
-86.76
-87.56
-82.42
-70.97
-54.32
-34.76
-15.04
2.42
16.24
26.16
32.68
36.56
38.39
38.51
37.10
34.46
31.09
27.67
24.88
23.21
22.82
23.62
25.33
27.63
30.23
32.96
35.67
38.18
40.18
41.23
40.87
38.77
34.94
29.78
24.04
18.56
13.92
10.22
7.09
3.89
0.08
-4.47
-9.42
-14.14
-18.04
-20.87
-22.86
-24.57
-26.75
-30.06
-34.88
-41.23
-48.61
-55.99
-61.84
-64.45
-62.40
-55.10
-43.06
-27.86
-11.64
3.56
16.28
25.88
32.44
36.35
38.06
37.86
35.96
32.63
28.29
23.60
19.31
16.12
14.50
14.61
16.25
19.03
22.43
25.97
29.19
31.70
33.14
33.16
31.57
28.35
23.77
18.31
12.62
7.26
2.56
-1.49
-5.22
-9.10
-13.50
-18.48
-23.76
-28.81
-33.12
-36.43
-38.90
-41.16
-44.05
-48.42
-54.72
-62.70
-71.20
-78.31
-81.76
-79.68
-71.27
-57.20
-39.50
-20.91
-4.00
9.55
19.29
25.72
29.86
32.70
34.80
36.37
37.38
37.81
37.75
37.46
37.28
37.50
38.32
39.75
41.69
43.91
46.23
48.41
50.28
51.62
52.19
51.75
50.11
47.20
43.16
38.33
33.18
28.22
23.80
20.04
16.87
13.99
11.14
8.08
4.76
1.28
-2.10
-5.13
-7.61
-9.49
-10.95
-12.38
-14.26
-17.02
-20.86
-25.62
-30.87
-36.04
-40.64
-44.45
-47.61
-50.61
-54.11
-58.85
-65.39
-73.85
-83.63
-93.21
-100.33
-102.51
-97.86
-85.86
-67.69
-45.98
-23.97
-4.45
10.93
21.90
29.22
34.02
37.29
39.65
41.36
42.55
43.40
44.06
44.66
45.24
45.76
46.21
46.67
47.31
48.32
49.79
51.60
53.46
54.94
55.63
55.25
53.68
51.01
47.45
43.27
38.73
34.10
29.58
25.40
21.70
18.50
15.70
13.05
10.30
7.26
3.98
0.68
-2.34
-4.85
-6.84
-8.58
-10.46
-12.89
-16.08
-19.95
-24.18
-28.33
-32.01
-35.04
-37.56
-39.98
-42.90
-47.00
-52.77
-60.37
-69.31
-78.34
-85.54
-88.67
-85.88
-76.38
-60.87
-41.47
-21.06
-2.38
12.71
23.57
30.64
34.83
37.08
37.99
37.76
36.50
34.38
31.75
29.12
27.05
26.02
26.23
27.69
30.14
33.21
36.45
39.47
41.89
43.46
43.93
43.17
41.20
38.21
34.48
30.34
26.05
21.72
17.42
13.14
8.93
4.83
0.83
-3.12
-7.18
-11.47
-16.02
-20.69
-25.26
-29.51
-33.36
-36.86
-40.17
-43.55
-47.27
-51.66
-57.09
-63.79
-71.58
-79.57
-86.10
-89.06
-86.57
-77.73
-63.10
-44.65
-25.11
-7.08
7.71
18.73
26.39
31.55
35.06
37.42
38.85
39.45
39.33
38.72
37.90
37.19
36.82
36.99
37.78
39.16
40.99
43.09
45.20
47.13
48.66
49.59
49.64
48.51
45.98
42.07
37.06
31.57
26.27
21.69
18.02
15.01
12.22
9.14
5.50
1.34
-3.06
-7.29
-11.00
-14.07
-16.67
-19.17
-22.09
-25.85
-30.65
-36.35
-42.57
-48.80
-54.64
-59.96
-64.93
-69.98
-75.72
-82.73
-91.38
-101.63
-112.71
-123.00
-130.24
-132.10
-126.93
-114.51
-96.26
-74.86
-53.37
-34.34
-19.09
-7.62
0.93
7.68
13.49
18.80
23.77
28.49
33.24
38.29
43.76
49.42
54.74
59.11
62.21
64.21
65.69
67.38
69.73
72.69
75.73
78.06
78.95
78.08
75.47
71.53
66.88
62.16
57.85
54.15
50.94
47.80
44.19
39.70
34.13
27.69
20.91
14.46
8.97
4.78
1.76
-0.58
-2.98
-6.12
-10.31
-15.43
-20.98
-26.38
-31.22
-35.50
-39.63
-44.28
-50.12
-57.56
-66.56
-76.42
-85.69
-92.35
-94.22
-89.59
-77.85
-59.84
-37.72
-14.31
7.65
26.21
40.45
50.32
56.30
59.01
59.06
57.03
53.49
49.05
44.21
39.42
35.01
31.25
28.38
26.61
26.04
26.62
28.12
30.20
32.41
34.28
35.35
35.19
33.51
30.21
25.51
19.91
14.12
8.84
4.46
0.97
-2.07
-5.24
-9.01
-13.44
-18.20
-22.71
-26.39
-29.02
-30.75
-32.16
-34.03
-37.13
-41.99
-48.73
-56.80
-64.99
-71.48
-74.29
-71.83
-63.46
-49.79
-32.55
-14.10
3.25
17.81
28.82
36.30
40.78
42.94
43.36
42.43
40.41
37.56
34.23
30.86
28.00
26.13
25.64
26.66
29.05
32.40
36.05
39.34
41.60
42.44
41.67
39.39
35.88
31.52
26.69
21.69
16.67
11.65
6.51
1.11
-4.65
-10.68
-16.77
-22.56
-27.79
-32.35
-36.44
-40.50
-45.18
-51.03
-58.18
-66.05
-73.18
-77.57
-77.15
-70.57
-57.82
-40.33
-20.64
-1.54
14.74
27.17
35.87
41.77
45.92
49.10
51.56
53.22
53.91
53.59
52.46
50.86
49.14
47.58
46.36
45.56
45.21
45.30
45.77
46.45
47.09
47.33
46.78
45.11
42.09
37.70
32.08
25.61
18.80
12.19
6.26
1.32
-2.58
-5.64
-8.26
-10.91
-14.04
-17.87
-22.35
-27.22
-32.09
-36.61
-40.53
-43.87
-46.86
-50.01
-53.96
-59.35
-66.39
-74.60
-82.57
-88.15
-89.09
-83.79
-71.95
-54.88
-35.04
-15.31
1.92
15.39
24.98
31.42
35.70
38.62
40.54
41.53
41.60
40.91
39.79
38.64
37.81
37.40
37.36
37.56
38.04
38.95
40.51
42.82
45.65
48.42
50.35
50.71
49.16
45.87
41.47
36.82
32.71
29.60
27.49
26.08
24.86
23.36
21.30
18.65
15.56
12.34
9.33
6.73
4.54
2.49
0.10
-3.12
-7.51
-13.06
-19.40
-25.94
-32.16
-37.84
-43.12
-48.46
-54.47
-61.59
-69.90
-78.92
-87.47
-93.81
-96.01
-92.50
-82.72
-67.44
-48.71
-29.25
-11.60
2.56
12.72
19.33
23.27
25.37
26.14
25.87
24.82
23.39
22.12
21.48
21.75
22.85
24.47
26.26
28.01
29.71
31.52
33.55
35.75
37.84
39.33
39.71
38.60
35.95
32.03
27.41
22.78
18.67
15.31
12.55
9.96
7.11
3.73
-0.09
-4.00
-7.53
-10.36
-12.41
-13.92
-15.33
-17.11
-19.61
-22.93
-26.95
-31.29
-35.51
-39.23
-42.27
-44.77
-47.17
-50.13
-54.34
-60.17
-67.37
-74.87
-80.86
-83.26
-80.41
-71.68
-57.76
-40.56
-22.51
-5.89
7.73
17.74
24.28
27.94
29.39
29.17
27.71
25.37
22.49
19.44
16.58
14.22
12.57
11.67
11.44
11.66
12.14
12.69
13.19
13.54
13.51
12.77
10.95
7.76
3.15
-2.56
-8.75
-14.68
-19.73
-23.66
-26.60
-28.91
-31.00
-32.93
-34.41
-34.85
-33.58
-30.11
-24.34
-16.62
-7.72
1.35
9.47
15.62
19.06
19.41
16.69
11.29
3.80
-5.20
-15.37
-26.63
-39.13
-52.93
-67.68
-82.32
-95.16
-104.30
-108.27
-106.60
-100.07
-90.38
-79.50
-68.97
-59.58
-51.41
-44.27
-38.09
-33.17
-29.96
-28.77
-29.49
-31.47
-33.69
-35.11
-34.87
-32.49
-27.76
-20.75
-11.73
-1.16
10.29
21.81
32.52
41.73
49.02
54.39
58.23
61.12
63.62
66.09
68.63
71.15
73.51
75.68
77.79
80.15
83.10
86.95
91.84
97.71
104.23
110.87
116.87
121.36
123.56
122.94
119.43
113.40
105.59
96.80
87.64
78.41
68.92
58.64
46.81
32.78
16.32
-1.96
-20.44
-36.64
-47.79
-51.70
-47.58
-36.45
-20.82
-3.90
11.41
23.29
31.22
35.63
37.38
37.25
35.75
33.19
29.84
26.03
22.11
18.38
15.03
12.17
9.90
8.32
7.49
7.39
7.91
8.72
9.36
9.26
7.89
4.90
0.24
-5.77
-12.56
-19.48
-26.00
-31.82
-36.85
-41.12
-44.67
-47.56
-49.88
-51.73
-53.18
-54.18
-54.49
-53.79
-51.88
-48.80
-44.99
-41.11
-37.86
-35.80
-35.16
-35.91
-37.78
-40.44
-43.57
-46.90
-50.30
-53.71
-57.26
-61.21
-65.88
-71.51
-77.98
-84.68
-90.42
-93.67
-93.11
-88.01
-78.67
-66.22
-52.30
-38.40
-25.46
-13.73
-3.05
6.67
15.18
21.75
25.55
26.06
23.48
18.71
13.07
7.84
3.89
1.36
-0.13
-1.29
-2.86
-5.40
-9.24
-14.45
-20.85
-28.01
-35.23
-41.70
-46.58
-49.24
-49.35
-47.01
-42.67
-37.03
-30.98
-25.41
-21.14
-18.75
-18.42
-19.85
-22.31
-24.81
-26.37
-26.41
-24.91
-22.46
-20.03
-18.60
-18.78
-20.54
-23.27
-25.87
-27.04
-25.53
-20.37
-11.08
2.15
18.41
36.19
53.71
69.38
82.13
91.61
98.09
102.17
104.52
105.71
106.10
105.90
105.06
103.27
100.03
94.80
87.31
77.82
67.21
56.71
47.57
40.54
35.66
32.28
29.38
26.02
21.69
16.48
10.98
5.93
1.90
-0.84
-2.35
-2.83
-2.62
-2.17
-2.06
-2.97
-5.47
-9.79
-15.61
-22.14
-28.50
-34.14
-39.20
-44.45
-50.87
-59.01
-68.53
-78.03
-85.45
-88.72
-86.45
-78.43
-65.69
-50.06
-33.66
-18.32
-5.21
5.11
12.57
17.27
19.42
19.30
17.29
13.99
10.16
6.74
4.58
4.25
5.91
9.23
13.56
18.12
22.30
25.77
28.45
30.39
31.53
31.62
30.27
27.06
21.81
14.73
6.38
-2.41
-10.87
-18.45
-24.92
-30.47
-35.50
-40.53
-46.03
-52.38
-59.72
-67.84
-76.03
-83.03
-87.24
-87.11
-81.64
-70.88
-55.97
-38.80
-21.45
-5.66
7.53
17.71
24.92
29.38
31.36
31.21
29.43
26.66
23.63
20.98
19.16
18.41
18.75
20.09
22.24
24.92
27.84
30.66
33.10
34.90
35.90
36.02
35.25
33.64
31.28
28.22
24.55
20.35
15.79
11.14
6.75
2.85
-0.58
-3.81
-7.37
-11.77
-17.39
-24.38
-32.65
-41.86
-51.34
-60.04
-66.45
-68.80
-65.45
-55.47
-39.11
-17.91
5.60
28.53
48.43
63.79
74.25
80.27
82.67
82.14
79.06
73.71
66.63
58.88
51.99
47.47
46.23
48.25
52.63
58.08
63.44
68.08
71.86
74.77
76.60
76.83
74.84
70.32
63.53
55.28
46.69
38.68
31.72
25.72
20.25
14.81
9.09
3.01
-3.29
-9.61
-15.73
-21.49
-26.77
-31.58
-36.02
-40.41
-45.18
-50.78
-57.40
-64.69
-71.65
-76.79
-78.44
-75.37
-67.15
-54.40
-38.63
-21.73
-5.53
8.63
20.05
28.44
33.76
35.99
35.13
31.37
25.17
17.37
9.02
1.21
-5.18
-9.60
-11.89
-12.23
-10.97
-8.56
-5.42
-1.92
1.61
4.80
7.22
8.39
7.86
5.47
1.46
-3.49
-8.46
-12.67
-15.70
-17.72
-19.34
-21.40
-24.64
-29.41
-35.47
-41.92
-47.31
-49.99
-48.54
-42.24
-31.38
-17.20
-1.59
13.50
26.52
36.65
43.72
48.02
49.96
49.92
48.21
45.09
40.92
36.15
31.29
26.84
23.20
20.65
19.31
19.13
19.91
21.30
22.86
24.11
24.72
24.53
23.58
21.91
19.56
16.39
12.27
7.18
1.32
-4.83
-10.72
-15.89
-20.16
-23.65
-26.64
-29.52
-32.58
-36.12
-40.32
-45.19
-50.41
-55.15
-58.13
-57.93
-53.51
-44.59
-31.94
-17.19
-2.38
10.57
20.42
26.80
30.12
31.19
30.90
29.77
27.96
25.34
21.77
17.30
12.35
7.57
3.75
1.56
1.54
3.95
8.78
15.72
24.06
32.80
40.72
46.77
50.19
50.75
48.69
44.61
39.25
33.34
27.44
21.90
16.87
12.34
8.26
4.61
1.43
-1.26
-3.51
-5.58
-7.91
-11.03
-15.37
-21.03
-27.69
-34.68
-41.18
-46.60
-50.85
-54.37
-58.06
-62.83
-69.27
-77.24
-85.76
-93.09
-97.15
-96.03
-88.66
-75.22
-57.25
-37.22
-17.91
-1.56
10.66
18.75
23.52
26.10
27.45
28.15
28.45
28.48
28.39
28.39
28.69
29.46
30.81
32.77
35.38
38.63
42.41
46.47
50.39
53.62
55.59
55.81
54.07
50.45
45.37
39.50
33.72
28.90
25.72
24.48
24.99
26.51
28.05
28.64
27.74
25.32
21.88
18.06
14.43
11.18
8.16
4.98
1.26
-3.17
-8.20
-13.50
-18.72
-23.63
-28.29
-33.08
-38.58
-45.38
-53.80
-63.54
-73.62
-82.30
-87.50
-87.28
-80.49
-67.20
-48.81
-27.73
-6.70
11.98
26.93
37.82
45.18
49.88
52.79
54.55
55.59
56.15
56.41
56.46
56.39
56.28
56.22
56.35
56.74
57.35
58.03
58.51
58.53
57.93
56.63
54.60
51.82
48.19
43.65
38.24
32.13
25.61
18.91
12.12
5.15
-2.17
-10.01
-18.39
-27.29
-36.65
-46.44
-56.58
-66.87
-76.84
-85.84
-93.23
-98.59
-101.92
-103.63
-104.47
-105.28
-106.78
-109.41
-113.07
-117.03
-119.83
-119.59
-114.49
-103.48
-86.81
-66.05
-43.70
-22.36
-3.97
10.59
21.40
29.09
34.35
37.61
39.05
38.77
37.00
34.21
31.06
28.20
26.21
25.38
25.80
27.40
30.08
33.75
38.33
43.54
48.93
53.81
57.44
59.24
58.94
56.63
52.70
47.69
42.16
36.57
31.25
26.35
21.90
17.75
13.75
9.73
5.71
1.91
-1.42
-4.10
-6.23
-8.16
-10.40
-13.38
-17.21
-21.66
-26.23
-30.47
-34.12
-37.28
-40.36
-43.87
-48.32
-54.14
-61.46
-69.98
-78.77
-86.15
-90.01
-88.36
-80.04
-65.24
-45.61
-23.74
-2.42
16.11
30.64
40.98
47.62
51.39
53.01
53.03
51.82
49.71
47.07
44.34
42.02
40.46
39.92
40.36
41.64
43.48
45.62
47.83
49.89
51.57
52.59
52.66
51.51
49.02
45.29
40.65
35.58
30.61
26.16
22.45
19.40
16.76
14.10
11.08
7.49
3.37
-1.07
-5.50
-9.62
-13.28
-16.49
-19.41
-22.26
-25.33
-28.80
-32.76
-37.11
-41.62
-45.98
-49.97
-53.60
-57.19
-61.32
-66.66
-73.66
-82.29
-91.72
-100.36
-106.10
-106.86
-101.26
-89.11
-71.61
-51.04
-30.14
-11.36
3.73
14.59
21.52
25.30
26.81
26.76
25.68
23.97
22.00
20.11
18.69
18.12
18.67
20.50
23.58
27.66
32.40
37.37
42.19
46.48
49.93
52.24
53.12
52.42
50.19
46.78
42.76
38.85
35.57
33.08
31.13
29.16
26.56
22.93
18.22
12.74
7.06
1.83
-2.41
-5.36
-7.00
-7.63
-7.72
-7.77
-8.20
-9.22
-10.88
-13.04
-15.51
-18.14
-20.87
-23.84
-27.34
-31.78
-37.51
-44.45
-51.83
-58.17
-61.48
-59.97
-52.70
-39.98
-23.42
-5.40
11.66
26.00
36.80
44.10
48.49
50.61
50.94
49.77
47.31
43.89
39.98
36.20
33.11
31.12
30.44
31.04
32.72
35.18
38.06
41.01
43.65
45.64
46.65
46.39
44.72
41.73
37.75
33.37
29.20
25.73
23.08
21.00
18.98
16.56
13.42
9.60
5.41
1.29
-2.39
-5.39
-7.76
-9.78
-11.89
-14.52
-17.91
-21.96
-26.28
-30.31
-33.60
-36.10
-38.21
-40.69
-44.50
-50.37
-58.47
-68.18
-78.06
-86.07
-90.06
-88.46
-80.80
-67.90
-51.74
-34.76
-19.27
-6.85
1.84
6.92
8.97
8.70
6.71
3.46
-0.65
-5.12
-9.30
-12.40
-13.75
-12.96
-10.11
-5.65
-0.28
5.32
10.70
15.62
19.99
23.69
26.47
27.98
27.83
25.84
22.12
17.07
11.33
5.53
0.23
-4.30
-8.04
-11.21
-14.07
-16.83
-19.48
-21.83
-23.66
-24.80
-25.29
-25.43
-25.62
-26.34
-28.04
-31.10
-35.82
-42.25
-49.92
-57.66
-63.70
-65.96
-62.81
-53.67
-39.35
-21.83
-3.67
12.84
26.22
35.98
42.48
46.44
48.48
48.99
48.08
45.78
42.30
38.09
33.83
30.22
27.72
26.51
26.40
27.05
28.13
29.39
30.66
31.76
32.40
32.19
30.78
28.00
23.98
19.14
14.08
9.38
5.37
2.04
-0.93
-3.98
-7.45
-11.40
-15.61
-19.59
-22.88
-25.21
-26.64
-27.54
-28.38
-29.63
-31.50
-33.94
-36.66
-39.31
-41.62
-43.59
-45.49
-47.90
-51.47
-56.74
-63.82
-72.12
-80.23
-86.16
-87.80
-83.58
-73.02
-57.02
-37.61
-17.30
1.63
17.63
30.10
39.18
45.38
49.24
51.25
51.77
51.19
49.95
48.51
47.30
46.67
46.78
47.70
49.32
51.47
53.91
56.45
58.87
60.97
62.50
63.19
62.73
60.93
57.73
53.36
48.27
43.06
38.29
34.27
30.99
28.07
25.02
21.39
17.02
12.07
7.00
2.31
-1.64
-4.80
-7.44
-10.03
-13.04
-16.73
-21.05
-25.72
-30.33
-34.55
-38.28
-41.66
-45.11
-49.16
-54.41
-61.28
-69.83
-79.49
-88.95
-96.23
-99.18
-96.05
-86.13
-70.10
-49.89
-28.10
-7.33
10.53
24.55
34.71
41.62
46.09
48.82
50.26
50.64
50.11
48.86
47.23
45.68
44.66
44.44
45.05
46.29
47.84
49.41
50.79
51.89
52.66
52.94
52.52
51.16
48.71
45.25
41.10
36.72
32.58
28.86
25.46
21.99
18.02
13.32
7.98
2.47
-2.57
-6.58
-9.17
-10.36
-10.43
-9.90
-9.38
-9.52
-10.83
-13.56
-17.60
-22.51
-27.64
-32.46
-36.76
-40.73
-44.89
-49.80
-55.85
-63.04
-70.86
-78.31
-83.96
-86.29
-83.97
-76.34
-63.69
-47.29
-29.15
-11.44
4.07
16.32
25.08
30.66
33.63
34.53
33.81
31.83
28.99
25.79
22.83
20.71
19.93
20.73
23.08
26.77
31.42
36.62
41.92
46.88
51.06
54.05
55.54
55.36
53.55
50.40
46.36
42.02
37.95
34.59
32.04
30.14
28.44
26.41
23.63
20.00
15.77
11.38
7.19
3.29
-0.65
-5.27
-11.31
-19.37
-29.64
-41.74
-54.62
-66.62
-75.80
-80.34
-79.19
-72.35
-60.98
-47.11
-32.99
-20.60
-11.17
-5.09
-2.12
-1.63
-2.88
-5.21
-8.09
-11.15
-14.00
-16.19
-17.14
-16.34
-13.43
-8.44
-1.86
5.53
12.87
19.41
24.72
28.53
30.79
31.48
30.65
28.43
25.07
20.92
16.37
11.79
7.43
3.42
-0.32
-3.99
-7.94
-12.50
-17.83
-23.78
-29.81
-35.19
-39.27
-41.81
-43.17
-44.17
-45.89
-49.24
-54.71
-62.11
-70.62
-78.78
-84.74
-86.63
-83.01
-73.34
-58.24
-39.48
-19.49
-0.72
15.03
26.96
35.19
40.42
43.46
44.95
45.22
44.44
42.76
40.48
37.99
35.76
34.17
33.43
33.53
34.25
35.33
36.43
37.27
37.63
37.33
36.20
34.07
30.80
26.30
20.65
14.20
7.46
1.00
-4.69
-9.38
-13.11
-16.05
-18.47
-20.57
-22.46
-24.17
-25.63
-26.77
-27.53
-27.94
-28.14
-28.33
-28.69
-29.19
-29.62
-29.65
-29.02
-27.71
-25.98
-24.25
-22.90
-22.21
-22.46
-23.92
-26.89
-31.33
-36.62
-41.34
-43.55
-41.43
-34.02
-21.71
-6.15
10.27
25.22
37.12
45.36
50.22
52.43
52.73
51.73
49.73
46.97
43.68
40.21
37.00
34.42
32.69
31.84
31.84
32.66
34.42
37.22
40.99
45.30
49.41
52.47
53.80
53.12
50.59
46.66
41.83
36.53
31.08
25.70
20.60
15.92
11.76
8.12
4.97
2.22
-0.28
-2.74
-5.44
-8.68
-12.65
-17.38
-22.70
-28.31
-33.82
-38.84
-42.93
-45.68
-46.70
-45.74
-42.85
-38.44
-33.30
-28.40
-24.78
-23.20
-24.03
-27.08
-31.58
-36.20
-39.27
-39.14
-34.57
-25.16
-11.55
4.65
21.26
36.12
47.62
55.09
58.76
59.49
58.27
55.79
52.34
47.85
42.16
35.35
27.80
20.18
13.23
7.60
3.70
1.69
1.54
3.07
5.93
9.69
13.89
18.16
22.30
26.36
30.49
34.81
39.14
43.02
45.71
46.44
44.66
40.28
33.69
25.75
17.56
10.20
4.52
0.94
-0.59
-0.54
0.32
1.10
1.09
-0.12
-2.53
-5.81
-9.49
-13.20
-16.91
-20.92
-25.82
-32.10
-39.88
-48.67
-57.29
-64.14
-67.64
-66.69
-61.01
-51.25
-38.76
-25.25
-12.37
-1.35
7.10
12.78
15.94
17.05
16.71
15.48
13.85
12.16
10.68
9.57
8.94
8.89
9.49
10.76
12.58
14.75
16.94
18.81
20.04
20.45
19.94
18.59
16.55
14.02
11.17
8.14
5.02
1.87
-1.25
-4.26
-7.07
-9.61
-11.88
-13.92
-15.80
-17.57
-19.23
-20.80
-22.33
-23.96
-25.82
-28.01
-30.49
-33.14
-35.91
-38.91
-42.47
-47.01
-52.73
-59.34
-65.85
-70.77
-72.45
-69.64
-61.96
-50.05
-35.43
-20.04
-5.71
6.31
15.48
21.91
26.06
28.48
29.66
29.92
29.51
28.64
27.55
26.49
25.72
25.41
25.67
26.48
27.75
29.37
31.18
33.07
34.89
36.46
37.47
37.53
36.31
33.62
29.64
24.85
19.88
15.26
11.24
7.72
4.37
0.90
-2.76
-6.43
-9.75
-12.43
-14.34
-15.61
-16.56
-17.57
-18.97
-20.97
-23.59
-26.70
-30.01
-33.23
-36.18
-38.86
-41.53
-44.62
-48.59
-53.76
-60.01
-66.69
-72.60
-76.20
-76.06
-71.28
-61.86
-48.76
-33.56
-18.10
-3.89
8.06
17.36
24.05
28.40
30.79
31.64
31.43
30.63
29.63
28.65
27.78
27.06
26.54
26.37
26.77
27.88
29.71
32.07
34.67
37.13
39.11
40.35
40.64
39.84
37.93
35.04
31.44
27.49
23.52
19.73
16.16
12.70
9.24
5.69
2.06
-1.54
-5.00
-8.25
-11.32
-14.36
-17.58
-21.11
-24.92
-28.76
-32.12
-34.37
-34.97
-33.66
-30.66
-26.65
-22.75
-20.25
-20.33
-23.72
-30.43
-39.62
-49.72
-58.75
-64.70
-66.07
-62.20
-53.43
-40.95
-26.50
-11.93
1.18
11.90
19.94
25.58
29.36
31.77
33.16
33.66
33.37
32.48
31.25
30.05
29.26
29.11
29.76
31.24
33.52
36.45
39.72
42.91
45.45
46.86
46.78
45.09
41.91
37.53
32.37
26.87
21.47
16.44
11.96
8.03
4.60
1.57
-1.19
-3.77
-6.21
-8.49
-10.52
-12.19
-13.43
-14.32
-15.10
-16.16
-17.90
-20.56
-24.10
-28.24
-32.55
-36.65
-40.37
-43.77
-47.22
-51.17
-56.08
-62.05
-68.74
-75.19
-80.01
-81.68
-78.95
-71.34
-59.24
-43.87
-26.96
-10.28
4.68
16.96
26.13
32.25
35.67
36.94
36.63
35.29
33.42
31.40
29.55
28.06
27.10
26.70
26.85
27.46
28.43
29.65
31.02
32.41
33.60
34.32
34.21
32.98
30.54
27.06
22.96
18.78
14.93
11.57
8.57
5.63
2.45
-1.01
-4.57
-7.92
-10.81
-13.23
-15.38
-17.66
-20.48
-24.13
-28.73
-34.13
-39.86
-45.08
-48.66
-49.42
-46.51
-39.66
-29.46
-17.13
-4.24
7.79
17.95
25.78
31.18
34.32
35.39
34.59
32.17
28.55
24.32
20.23
17.04
15.36
15.51
17.43
20.75
24.89
29.26
33.35
36.85
39.59
41.49
42.47
42.45
41.49
39.91
38.34
37.48
37.89
39.69
42.55
45.98
49.62
53.51
57.98
63.26
69.21
75.14
80.11
83.21
83.80
81.51
76.08
67.31
55.32
41.00
26.20
13.50
5.44
3.56
7.80
16.55
27.32
37.72
46.08
51.66
54.44
54.71
52.74
48.70
42.80
35.30
26.64
17.38
8.19
-0.24
-7.20
-12.24
-15.35
-17.03
-18.11
-19.37
-21.29
-23.84
-26.77
-29.84
-33.00
-36.30
-39.66
-42.69
-44.75
-45.30
-44.24
-42.09
-39.79
-38.34
-38.36
-39.90
-42.54
-45.60
-48.48
-50.74
-52.24
-53.04
-53.38
-53.54
-53.75
-54.13
-54.61
-54.98
-54.98
-54.48
-53.58
-52.58
-51.95
-52.13
-53.47
-56.14
-60.15
-65.24
-70.83
-75.90
-79.08
-78.96
-74.60
-65.94
-53.91
-40.17
-26.48
-14.19
-3.88
4.50
11.30
16.68
20.58
22.76
23.11
21.88
19.66
17.26
15.39
14.47
14.59
15.53
17.04
18.85
20.82
22.87
24.95
26.97
28.75
30.04
30.59
30.20
28.87
26.80
24.32
21.83
19.56
17.53
15.51
13.18
10.27
6.78
2.97
-0.74
-3.93
-6.43
-8.41
-10.32
-12.71
-16.00
-20.23
-25.08
-30.04
-34.56
-38.35
-41.49
-44.37
-47.61
-51.76
-57.21
-63.88
-71.21
-78.02
-82.88
-84.31
-81.29
-73.63
-62.00
-47.83
-32.85
-18.63
-6.25
3.83
11.69
17.73
22.38
25.94
28.49
30.04
30.54
30.13
29.13
28.03
27.33
27.36
28.22
29.77
31.73
33.89
36.05
38.13
39.99
41.40
42.09
41.84
40.57
38.40
35.59
32.48
29.37
26.45
23.81
21.34
18.85
16.06
12.82
9.16
5.38
1.90
-0.91
-2.98
-4.55
-6.16
-8.31
-11.26
-14.94
-18.99
-22.98
-26.60
-29.76
-32.56
-35.28
-38.23
-41.74
-46.13
-51.65
-58.33
-65.75
-72.93
-78.37
-80.48
-78.05
-70.71
-59.14
-44.82
-29.61
-15.18
-2.62
7.67
15.81
22.16
27.04
30.63
33.00
34.17
34.30
33.69
32.81
32.09
31.84
32.11
32.77
33.61
34.51
35.48
36.64
38.05
39.61
41.03
41.90
41.91
40.90
38.95
36.30
33.22
29.96
26.64
23.38
20.21
17.16
14.18
11.20
8.12
4.94
1.72
-1.35
-4.09
-6.38
-8.31
-10.14
-12.22
-14.88
-18.24
-22.18
-26.41
-30.59
-34.52
-38.15
-41.61
-45.17
-49.13
-53.81
-59.44
-65.95
-72.89
-79.23
-83.51
-84.26
-80.45
-71.88
-59.28
-44.18
-28.37
-13.49
-0.67
9.60
17.33
22.92
26.87
29.62
31.43
32.43
32.63
32.12
31.19
30.25
29.75
29.97
30.93
32.42
34.22
36.22
38.37
40.65
42.91
44.76
45.74
45.48
43.84
41.03
37.50
33.72
30.08
26.78
23.82
21.07
18.39
15.60
12.57
9.30
5.83
2.31
-1.10
-4.26
-7.10
-9.70
-12.24
-15.00
-18.23
-22.01
-26.25
-30.67
-34.93
-38.72
-41.98
-44.91
-47.99
-51.84
-57.00
-63.63
-71.26
-78.73
-84.34
-86.32
-83.41
-75.33
-62.87
-47.66
-31.63
-16.38
-2.97
8.25
17.35
24.55
30.04
33.92
36.18
36.89
36.25
34.65
32.64
30.82
29.69
29.54
30.39
32.05
34.24
36.69
39.17
41.51
43.49
44.88
45.51
45.23
44.03
42.00
39.32
36.20
32.88
29.58
26.44
23.47
20.59
17.60
14.38
10.86
7.17
3.53
0.17
-2.75
-5.27
-7.64
-10.16
-13.15
-16.73
-20.86
-25.28
-29.64
-33.66
-37.23
-40.48
-43.75
-47.50
-52.21
-58.26
-65.72
-74.21
-82.81
-90.08
-94.28
-93.86
-87.96
-76.71
-61.29
-43.67
-25.99
-9.95
3.45
14.02
22.03
27.96
32.15
34.80
36.05
36.15
35.45
34.46
33.66
33.42
33.90
35.07
36.84
39.09
41.70
44.57
47.55
50.37
52.63
53.90
53.76
52.04
48.84
44.61
40.02
35.71
32.06
29.07
26.37
23.45
19.91
15.66
11.00
6.40
2.31
-1.06
-3.83
-6.37
-9.14
-12.45
-16.36
-20.67
-25.05
-29.20
-33.00
-36.53
-40.06
-43.97
-48.62
-54.33
-61.27
-69.27
-77.72
-85.41
-90.72
-92.00
-88.08
-78.75
-64.91
-48.29
-30.94
-14.63
-0.43
11.29
20.60
27.75
32.90
36.09
37.38
37.00
35.40
33.27
31.36
30.28
30.38
31.64
33.81
36.48
39.31
42.06
44.59
46.80
48.50
49.43
49.26
47.77
44.91
40.86
36.02
30.92
26.02
21.61
17.72
14.13
10.48
6.41
1.73
-3.45
-8.86
-14.06
-18.69
-22.58
-25.81
-28.74
-31.90
-35.83
-41.01
-47.62
-55.38
-63.47
-70.55
-75.05
-75.52
-71.16
-61.99
-48.98
-33.66
-17.76
-2.75
10.39
21.19
29.57
35.69
39.79
42.12
42.95
42.59
41.38
39.73
38.11
36.95
36.53
36.96
38.11
39.78
41.77
43.93
46.14
48.19
49.74
50.35
49.64
47.47
44.05
39.87
35.52
31.47
27.89
24.63
21.34
17.69
13.55
9.08
4.67
0.69
-2.59
-5.22
-7.54
-9.99
-13.04
-16.91
-21.56
-26.68
-31.84
-36.69
-41.11
-45.28
-49.66
-54.85
-61.35
-69.32
-78.31
-87.17
-94.17
-97.38
-95.26
-87.17
-73.69
-56.43
-37.57
-19.25
-3.00
10.43
20.97
28.95
34.81
38.95
41.68
43.29
44.03
44.17
43.93
43.52
43.20
43.18
43.69
44.83
46.61
48.95
51.60
54.26
56.52
57.92
58.07
56.72
53.89
49.89
45.25
40.55
36.24
32.47
29.06
25.68
21.96
17.73
13.12
8.47
4.18
0.53
-2.51
-5.22
-8.08
-11.52
-15.69
-20.48
-25.52
-30.43
-34.94
-39.02
-42.93
-47.09
-52.00
-58.05
-65.34
-73.38
-81.06
-86.71
-88.58
-85.35
-76.69
-63.37
-47.10
-29.93
-13.65
0.55
12.19
21.34
28.33
33.57
37.45
40.24
42.12
43.13
43.33
42.82
41.90
41.04
40.72
41.28
42.76
44.94
47.47
49.98
52.20
53.91
54.89
54.92
53.76
51.34
47.80
43.47
38.82
34.26
30.02
26.10
22.35
18.53
14.49
10.22
5.93
1.94
-1.41
-3.95
-5.81
-7.41
-9.29
-11.96
-15.59
-19.97
-24.60
-28.90
-32.50
-35.44
-38.15
-41.30
-45.62
-51.54
-59.06
-67.56
-75.82
-82.25
-85.20
-83.43
-76.50
-64.94
-50.16
-34.05
-18.50
-4.87
6.15
14.52
20.63
24.96
27.85
29.44
29.80
29.07
27.54
25.70
24.09
23.15
23.13
24.06
25.82
28.17
30.84
33.52
35.87
37.56
38.26
37.72
35.84
32.69
28.52
23.76
18.81
13.96
9.27
4.55
-0.45
-5.87
-11.56
-17.13
-22.06
-26.01
-29.00
-31.47
-34.16
-37.82
-42.98
-49.64
-57.18
-64.38
-69.64
-71.37
-68.46
-60.69
-48.77
-34.18
-18.76
-4.11
8.68
19.19
27.46
33.79
38.47
41.68
43.51
44.07
43.54
42.20
40.48
38.83
37.65
37.19
37.56
38.67
40.32
42.25
44.16
45.72
46.62
46.55
45.28
42.75
39.09
34.58
29.57
24.43
19.38
14.55
9.99
5.74
1.85
-1.71
-5.02
-8.24
-11.61
-15.27
-19.20
-23.22
-27.06
-30.53
-33.60
-36.54
-39.78
-43.83
-49.15
-55.87
-63.64
-71.53
-78.03
-81.38
-80.14
-73.62
-62.27
-47.54
-31.43
-15.87
-2.25
8.80
17.29
23.62
28.23
31.45
33.43
34.23
33.88
32.54
30.51
28.27
26.33
25.11
24.87
25.61
27.15
29.17
31.28
33.06
34.16
34.31
33.38
31.42
28.63
25.28
21.60
17.77
13.80
9.66
5.23
0.48
-4.54
-9.63
-14.51
-18.91
-22.73
-26.17
-29.71
-33.97
-39.43
-46.13
-53.45
-60.14
-64.65
-65.54
-62.02
-54.17
-42.91
-29.72
-16.13
-3.40
7.74
17.00
24.39
29.94
33.63
35.41
35.30
33.59
30.82
27.74
25.09
23.39
22.85
23.40
24.79
26.67
28.72
30.57
31.79
31.94
30.72
28.09
24.34
19.96
15.45
11.06
6.73
2.19
-2.87
-8.56
-14.68
-20.86
-26.68
-31.91
-36.52
-40.74
-44.92
-49.52
-54.92
-61.34
-68.57
-75.85
-81.81
-84.80
-83.39
-76.84
-65.53
-50.79
-34.60
-18.83
-4.88
6.69
15.99
23.49
29.70
34.93
39.25
42.57
44.84
46.04
46.32
45.95
45.20
44.36
43.73
43.53
43.95
45.09
46.84
48.91
50.81
51.93
51.79
50.14
47.12
43.17
38.84
34.63
30.72
27.03
23.28
19.23
14.81
10.21
5.76
1.78
-1.62
-4.54
-7.32
-10.37
-14.04
-18.48
-23.68
-29.35
-35.16
-40.74
-45.87
-50.54
-55.08
-60.05
-66.13
-73.72
-82.63
-91.82
-99.46
-103.35
-101.71
-93.76
-80.13
-62.66
-43.75
-25.61
-9.65
3.69
14.64
23.75
31.40
37.72
42.65
46.10
48.10
48.86
48.69
47.96
47.00
46.16
45.73
45.94
46.87
48.46
50.43
52.42
54.06
55.05
55.22
54.47
52.74
50.05
46.48
42.28
37.79
33.41
29.43
25.92
22.76
19.69
16.45
12.90
9.09
5.25
1.68
-1.37
-3.86
-6.04
-8.40
-11.46
-15.52
-20.49
-25.91
-31.14
-35.71
-39.48
-42.72
-45.97
-49.89
-55.03
-61.74
-70.01
-79.28
-88.40
-95.66
-99.14
-97.29
-89.51
-76.37
-59.50
-41.05
-23.02
-6.81
6.94
18.17
27.13
34.06
39.15
42.57
44.51
45.29
45.25
44.74
44.08
43.56
43.40
43.76
44.71
46.22
48.14
50.27
52.34
54.06
55.10
55.22
54.21
52.05
48.89
44.99
40.74
36.43
32.32
28.51
24.98
21.70
18.56
15.47
12.36
9.19
5.94
2.68
-0.50
-3.51
-6.33
-9.08
-11.96
-15.24
-19.11
-23.59
-28.49
-33.46
-38.13
-42.25
-45.84
-49.22
-52.94
-57.61
-63.72
-71.32
-79.78
-87.75
-93.38
-94.80
-90.75
-81.06
-66.72
-49.56
-31.70
-14.95
-0.46
11.33
20.50
27.40
32.40
35.84
37.94
38.85
38.76
37.91
36.63
35.38
34.61
34.64
35.62
37.48
39.99
42.83
45.64
48.11
49.94
50.88
50.77
49.58
47.42
44.52
41.19
37.70
34.26
30.95
27.77
24.67
21.53
18.27
14.80
11.14
7.37
3.72
0.43
-2.33
-4.52
-6.34
-8.18
-10.47
-13.57
-17.57
-22.30
-27.37
-32.34
-36.93
-41.08
-45.00
-49.07
-53.76
-59.44
-66.32
-74.16
-82.16
-88.93
-92.70
-91.83
-85.35
-73.43
-57.41
-39.40
-21.61
-5.72
7.42
17.75
25.61
31.38
35.25
37.33
37.75
36.85
35.13
33.19
31.55
30.53
30.26
30.69
31.76
33.38
35.51
38.04
40.78
43.35
45.27
46.05
45.37
43.21
39.87
35.86
31.74
27.88
24.32
20.89
17.30
13.41
9.30
5.22
1.49
-1.71
-4.40
-6.84
-9.31
-12.05
-15.14
-18.50
-21.96
-25.37
-28.61
-31.66
-34.63
-37.74
-41.37
-45.95
-51.75
-58.54
-65.41
-70.85
-73.08
-70.66
-63.05
-50.87
-35.67
-19.48
-4.12
9.15
19.81
27.88
33.61
37.31
39.21
39.48
38.33
36.09
33.23
30.32
27.91
26.36
25.84
26.25
27.36
28.90
30.66
32.49
34.25
35.68
36.44
36.16
34.63
31.94
28.46
24.74
21.24
18.11
15.16
11.99
8.25
3.85
-0.92
-5.61
-9.78
-13.31
-16.37
-19.40
-22.78
-26.67
-30.97
-35.37
-39.57
-43.41
-46.94
-50.42
-54.20
-58.69
-64.26
-71.09
-79.08
-87.49
-95.01
-99.83
-100.18
-94.92
-84.02
-68.63
-50.78
-32.64
-15.98
-1.75
9.79
18.88
25.86
30.99
34.43
36.37
37.05
36.83
36.11
35.31
34.75
34.72
35.39
36.86
39.09
41.90
45.01
48.05
50.65
52.48
53.23
52.70
50.83
47.76
43.80
39.32
34.66
29.99
25.30
20.51
15.53
10.42
5.39
0.66
-3.65
-7.59
-11.36
-15.21
-19.29
-23.56
-27.86
-32.00
-35.82
-39.35
-42.76
-46.43
-50.78
-56.26
-63.17
-71.37
-80.17
-88.16
-93.49
-94.30
-89.42
-78.77
-63.54
-45.75
-27.69
-11.16
2.86
14.23
23.32
30.60
36.34
40.59
43.26
44.37
44.14
43.01
41.58
40.41
39.95
40.40
41.76
43.82
46.33
48.99
51.53
53.67
55.07
55.40
54.39
51.95
48.28
43.80
39.06
34.49
30.24
26.15
21.89
17.25
12.22
7.16
2.50
-1.43
-4.62
-7.39
-10.27
-13.68
-17.79
-22.47
-27.33
-31.99
-36.19
-39.97
-43.71
-47.99
-53.48
-60.63
-69.39
-78.95
-87.77
-93.85
-95.29
-90.90
-80.59
-65.41
-47.31
-28.47
-10.82
4.35
16.55
25.85
32.71
37.60
40.87
42.71
43.23
42.60
41.15
39.39
37.89
37.10
37.31
38.53
40.59
43.22
46.11
48.91
51.26
52.78
53.14
52.13
49.75
46.21
41.91
37.26
32.54
27.84
22.99
17.76
12.07
6.12
0.38
-4.61
-8.47
-11.22
-13.25
-15.16
-17.50
-20.51
-24.04
-27.70
-31.00
-33.67
-35.75
-37.65
-40.02
-43.52
-48.65
-55.51
-63.66
-71.96
-78.83
-82.44
-81.29
-74.69
-62.99
-47.53
-30.27
-13.24
2.05
14.74
24.68
32.10
37.35
40.70
42.32
42.39
41.15
39.03
36.58
34.34
32.77
32.12
32.42
33.56
35.32
37.49
39.82
41.99
43.64
44.31
43.60
41.30
37.49
32.56
27.14
21.81
16.97
12.63
8.47
4.04
-0.99
-6.63
-12.52
-18.10
-22.84
-26.60
-29.62
-32.54
-36.14
-41.06
-47.50
-55.06
-62.68
-68.76
-71.57
-69.74
-62.67
-50.88
-35.82
-19.47
-3.70
10.16
21.50
30.33
36.92
41.61
44.57
45.94
45.84
44.48
42.21
39.48
36.80
34.66
33.50
33.54
34.77
36.91
39.48
41.97
43.94
45.15
45.48
44.91
43.41
40.94
37.46
33.05
27.95
22.51
17.09
11.97
7.19
2.61
-2.05
-6.99
-12.28
-17.79
-23.26
-28.40
-33.02
-37.10
-40.79
-44.37
-48.20
-52.67
-58.13
-64.77
-72.49
-80.64
-87.95
-92.69
-93.10
-87.99
-77.25
-62.01
-44.29
-26.41
-10.26
3.12
13.63
21.81
28.35
33.74
38.10
41.32
43.24
43.85
43.49
42.68
41.99
41.87
42.51
43.82
45.57
47.54
49.53
51.42
53.06
54.22
54.61
53.97
52.12
49.15
45.31
40.99
36.57
32.34
28.45
24.87
21.47
18.07
14.50
10.70
6.75
2.88
-0.61
-3.56
-6.02
-8.27
-10.75
-13.86
-17.83
-22.59
-27.82
-33.08
-38.01
-42.46
-46.52
-50.57
-55.08
-60.60
-67.49
-75.72
-84.70
-93.09
-99.03
-100.57
-96.31
-85.95
-70.49
-51.98
-32.82
-15.11
-0.10
11.84
21.02
28.00
33.25
37.11
39.72
41.21
41.73
41.50
40.82
39.99
39.30
38.98
39.22
40.10
41.68
43.89
46.49
49.15
51.39
52.80
53.06
52.05
49.83
46.60
42.68
38.46
34.32
30.60
27.44
24.74
22.19
19.38
16.04
12.11
7.87
3.71
0.02
-2.98
-5.41
-7.57
-9.94
-12.95
-16.83
-21.54
-26.77
-32.03
-36.86
-41.02
-44.52
-47.74
-51.26
-55.74
-61.69
-69.23
-77.84
-86.23
-92.50
-94.63
-91.10
-81.49
-66.70
-48.69
-29.85
-12.26
2.80
14.90
24.27
31.33
36.46
39.87
41.69
42.05
41.27
39.76
37.99
36.38
35.28
34.87
35.25
36.45
38.43
41.08
44.19
47.31
49.90
51.38
51.33
49.68
46.67
42.84
38.74
34.73
30.88
27.03
22.95
18.52
13.81
9.06
4.56
0.47
-3.24
-6.74
-10.28
-14.07
-18.24
-22.72
-27.34
-31.84
-35.94
-39.49
-42.55
-45.47
-48.80
-53.20
-59.12
-66.55
-74.72
-82.17
-86.96
-87.26
-81.99
-71.21
-56.15
-38.87
-21.53
-5.87
7.20
17.51
25.33
31.07
35.00
37.31
38.24
38.06
37.15
35.87
34.52
33.27
32.26
31.62
31.51
32.10
33.42
35.33
37.43
39.18
40.03
39.55
37.60
34.39
30.31
25.88
21.51
17.36
13.34
9.16
4.53
-0.72
-6.53
-12.62
-18.61
-24.19
-29.23
-33.83
-38.34
-43.26
-49.09
-56.05
-63.86
-71.59
-77.78
-80.80
-79.37
-73.03
-62.28
-48.49
-33.40
-18.64
-5.37
5.81
14.69
21.28
25.63
27.77
27.82
26.06
23.01
19.33
15.71
12.69
10.60
9.49
9.24
9.64
10.47
11.60
12.96
14.46
15.99
17.32
18.09
17.89
16.38
13.45
9.35
4.61
-0.12
-4.40
-8.17
-11.85
-16.12
-21.64
-28.76
-37.34
-46.70
-55.67
-62.79
-66.56
-65.83
-60.11
-49.79
-36.17
-21.05
-6.27
6.75
17.28
25.27
31.08
35.20
38.04
39.80
40.62
40.62
40.06
39.29
38.71
38.60
39.05
40.02
41.37
42.98
44.81
46.73
48.50
49.62
49.49
47.53
43.48
37.48
30.04
21.82
13.43
5.26
-2.54
-9.94
-16.96
-23.54
-29.61
-35.14
-40.29
-45.39
-50.98
-57.61
-65.53
-74.47
-83.43
-90.81
-94.84
-94.17
-88.37
-78.05
-64.67
-49.98
-35.52
-22.29
-10.71
-0.81
7.53
14.42
20.00
24.40
27.83
30.53
32.72
34.60
36.32
38.03
39.88
41.99
44.45
47.26
50.40
53.74
57.13
60.36
63.08
64.90
65.43
64.40
61.78
57.84
53.05
47.91
42.77
37.73
32.69
27.54
22.24
16.90
11.73
6.85
2.21
-2.40
-7.24
-12.53
-18.25
-24.21
-30.11
-35.66
-40.73
-45.37
-49.80
-54.42
-59.69
-66.15
-74.15
-83.60
-93.65
-102.65
-108.38
-108.66
-102.21
-89.08
-70.81
-49.83
-28.71
-9.35
7.29
21.12
32.47
41.71
49.07
54.64
58.55
61.06
62.50
63.25
63.63
63.90
64.24
64.82
65.73
67.02
68.60
70.30
71.92
73.18
73.83
73.55
72.11
69.32
65.23
60.07
54.29
48.42
42.89
37.91
33.44
29.20
24.88
20.28
15.43
10.60
6.16
2.40
-0.72
-3.54
-6.57
-10.28
-14.79
-19.84
-24.88
-29.39
-33.11
-36.21
-39.17
-42.59
-46.99
-52.72
-59.88
-68.26
-77.21
-85.59
-91.74
-93.95
-90.92
-82.30
-68.93
-52.61
-35.46
-19.32
-5.29
6.27
15.53
22.77
28.13
31.63
33.32
33.42
32.39
30.82
29.35
28.42
28.30
29.00
30.40
32.33
34.61
37.06
39.51
41.68
43.23
43.80
43.05
40.81
37.17
32.48
27.28
22.15
17.48
13.36
9.53
5.56
0.99
-4.46
-10.68
-17.29
-23.65
-29.19
-33.57
-36.84
-39.42
-42.03
-45.43
-50.26
-56.83
-64.93
-73.77
-82.03
-88.03
-90.17
-87.39
-79.51
-67.34
-52.46
-36.74
-21.86
-8.95
1.52
9.60
15.66
20.12
23.31
25.46
26.71
27.17
26.99
26.35
25.44
24.50
23.64
22.99
22.55
22.33
22.26
22.22
22.02
21.39
20.01
17.67
14.28
9.97
5.02
-0.17
-5.18
-9.71
-13.64
-17.05
-20.22
-23.49
-27.05
-30.84
-34.46
-37.28
-38.66
-38.15
-35.65
-31.46
-26.11
-20.25
-14.51
-9.38
-5.19
-2.13
-0.25
0.50
0.18
-1.27
-4.00
-8.27
-14.25
-21.73
-30.08
-38.16
-44.58
-48.07
-47.81
-43.66
-36.19
-26.43
-15.54
-4.52
5.95
15.50
23.96
31.20
37.12
41.69
45.03
47.39
49.15
50.62
52.02
53.45
54.96
56.60
58.45
60.56
62.91
65.36
67.65
69.54
70.79
71.23
70.83
69.61
67.68
65.21
62.34
59.18
55.77
52.13
48.25
44.22
40.14
36.14
32.34
28.81
25.51
22.37
19.24
15.97
12.45
8.64
4.58
0.34
-4.06
-8.67
-13.60
-18.85
-24.30
-29.65
-34.55
-38.78
-42.37
-45.66
-49.12
-53.25
-58.34
-64.22
-70.28
-75.46
-78.52
-78.34
-74.30
-66.49
-55.65
-43.02
-29.94
-17.60
-6.79
2.13
9.12
14.35
18.09
20.54
21.89
22.33
22.04
21.37
20.70
20.37
20.63
21.48
22.77
24.29
25.83
27.29
28.57
29.56
30.08
29.96
28.98
27.09
24.31
20.82
16.90
12.86
8.96
5.34
2.03
-1.04
-3.97
-6.81
-9.56
-12.19
-14.74
-17.33
-20.11
-23.21
-26.68
-30.40
-34.18
-37.74
-40.82
-43.27
-45.12
-46.64
-48.37
-50.99
-55.17
-61.24
-68.97
-77.42
-85.01
-89.95
-90.73
-86.62
-77.92
-65.86
-52.21
-38.73
-26.74
-16.95
-9.56
-4.46
-1.51
-0.60
-1.67
-4.61
-9.14
-14.76
-20.85
-26.78
-32.04
-36.39
-39.84
-42.59
-44.89
-46.84
-48.44
-49.55
-49.98
-49.62
-48.48
-46.66
-44.34
-41.78
-39.28
-37.14
-35.58
-34.71
-34.52
-34.88
-35.59
-36.54
-37.73
-39.30
-41.52
-44.66
-48.84
-53.95
-59.61
-65.14
-69.46
-71.06
-68.00
-58.20
-40.05
-13.10
21.45
60.79
101.07
138.36
169.50
192.64
207.19
213.62
213.03
206.96
197.15
185.36
173.04
161.02
149.57
138.46
127.41
116.34
105.53
95.43
86.36
78.35
71.08
64.12
57.07
49.81
42.51
35.42
28.70
22.33
16.11
9.85
3.49
-2.79
-8.72
-14.09
-18.92
-23.50
-28.34
-33.88
-40.33
-47.44
-54.56
-60.77
-65.13
-66.99
-66.15
-62.88
-57.84
-51.83
-45.57
-39.58
-34.14
-29.38
-25.32
-22.00
-19.48
-17.79
-16.97
-16.96
-17.63
-18.72
-19.84
-20.51
-20.24
-18.69
-15.69
-11.37
-6.11
-0.49
4.84
9.22
12.15
13.38
12.94
11.14
8.42
5.24
1.90
-1.51
-5.12
-9.18
-13.93
-19.46
-25.64
-32.13
-38.52
-44.43
-49.68
-54.35
-58.79
-63.55
-69.24
-76.23
-84.35
-92.72
-99.79
-103.64
-102.57
-95.71
-83.32
-66.80
-48.24
-29.77
-13.07
0.82
11.56
19.28
24.43
27.72
29.98
32.04
34.54
37.79
41.75
46.13
50.54
54.73
58.57
62.06
65.24
68.10
70.62
72.69
74.20
74.95
74.75
73.50
71.21
68.07
64.35
60.31
56.10
51.72
47.09
42.08
36.67
30.96
25.12
19.41
14.04
9.18
4.85
0.92
-2.90
-6.90
-11.28
-15.99
-20.74
-25.16
-29.00
-32.30
-35.46
-39.15
-44.09
-50.84
-59.47
-69.44
-79.43
-87.55
-91.66
-90.04
-81.93
-67.95
-49.90
-30.27
-11.46
4.87
18.03
28.12
35.63
41.03
44.60
46.43
46.59
45.32
43.05
40.40
38.05
36.57
36.25
37.11
38.92
41.33
44.07
46.91
49.69
52.14
53.87
54.35
53.15
50.10
45.40
39.58
33.31
27.20
21.62
16.66
12.18
7.88
3.43
-1.41
-6.71
-12.30
-17.83
-22.87
-27.08
-30.40
-33.10
-35.76
-39.07
-43.63
-49.69
-56.98
-64.63
-71.26
-75.24
-75.07
-69.81
-59.41
-44.80
-27.72
-10.25
5.69
18.80
28.51
34.98
38.78
40.55
40.76
39.67
37.42
34.25
30.64
27.26
24.85
23.94
24.62
26.55
29.11
31.64
33.63
34.89
35.42
35.30
34.53
32.98
30.41
26.62
21.55
15.41
8.68
1.92
-4.34
-9.82
-14.57
-18.94
-23.39
-28.42
-34.38
-41.30
-48.86
-56.26
-62.32
-65.58
-64.75
-59.09
-48.74
-34.79
-19.02
-3.38
10.52
21.72
29.96
35.43
38.52
39.51
38.65
36.12
32.25
27.56
22.77
18.63
15.78
14.52
14.86
16.46
18.78
21.20
23.24
24.52
24.91
24.40
23.09
21.06
18.38
15.04
11.05
6.45
1.35
-4.06
-9.54
-14.88
-19.90
-24.53
-28.78
-32.77
-36.74
-41.07
-46.20
-52.44
-59.63
-66.96
-72.90
-75.57
-73.31
-65.39
-52.31
-35.74
-17.97
-1.19
13.11
24.29
32.45
38.02
41.49
43.21
43.43
42.39
40.37
37.72
34.88
32.24
30.18
28.93
28.66
29.41
31.08
33.46
36.21
38.89
41.01
42.15
42.02
40.60
38.09
34.86
31.36
27.94
24.75
21.78
18.85
15.74
12.27
8.38
4.17
-0.20
-4.56
-8.84
-13.02
-17.15
-21.20
-25.07
-28.58
-31.63
-34.22
-36.54
-38.89
-41.68
-45.30
-50.11
-56.32
-63.77
-71.76
-78.93
-83.47
-83.58
-78.10
-67.05
-51.71
-34.21
-16.88
-1.58
10.69
19.79
26.11
30.20
32.51
33.26
32.64
30.91
28.54
26.11
24.26
23.37
23.56
24.68
26.40
28.43
30.63
32.92
35.25
37.43
39.09
39.80
39.24
37.32
34.21
30.28
26.06
21.95
18.24
15.03
12.29
9.89
7.70
5.56
3.37
1.07
-1.33
-3.72
-5.95
-7.92
-9.65
-11.31
-13.19
-15.61
-18.73
-22.46
-26.50
-30.43
-33.94
-36.98
-39.76
-42.72
-46.38
-51.23
-57.48
-64.90
-72.65
-79.24
-82.86
-81.80
-75.09
-62.96
-46.77
-28.70
-11.01
4.52
16.98
26.22
32.61
36.64
38.72
39.20
38.36
36.48
33.94
31.12
28.44
26.32
25.06
24.88
25.83
27.79
30.48
33.54
36.54
39.08
40.82
41.48
40.94
39.20
36.43
32.95
29.16
25.42
22.01
18.96
16.08
13.08
9.65
5.66
1.29
-3.07
-6.96
-10.02
-12.18
-13.70
-15.02
-16.59
-18.75
-21.57
-24.88
-28.35
-31.66
-34.55
-36.98
-39.15
-41.46
-44.47
-48.68
-54.39
-61.37
-68.79
-75.19
-78.83
-78.13
-72.26
-61.45
-46.91
-30.49
-14.03
1.02
13.92
24.46
32.75
38.95
43.17
45.50
46.12
45.34
43.58
41.28
38.83
36.60
34.93
34.10
34.34
35.63
37.73
40.15
42.28
43.51
43.39
41.76
38.75
34.69
30.02
25.13
20.28
15.59
11.01
6.45
1.82
-2.91
-7.64
-12.24
-16.60
-20.60
-24.29
-27.74
-31.11
-34.53
-38.08
-41.76
-45.42
-48.87
-52.00
-54.94
-58.06
-61.94
-67.09
-73.59
-80.77
-87.19
-90.92
-90.14
-83.84
-72.13
-56.36
-38.57
-20.93
-5.14
7.84
17.77
24.90
29.67
32.50
33.75
33.74
32.79
31.28
29.65
28.32
27.67
27.99
29.38
31.80
35.09
38.98
43.13
47.15
50.60
53.03
54.12
53.72
51.92
49.07
45.55
41.73
37.84
33.99
30.22
26.56
23.06
19.71
16.42
13.00
9.31
5.31
1.20
-2.72
-6.13
-8.96
-11.35
-13.71
-16.48
-19.94
-24.07
-28.62
-33.17
-37.37
-41.05
-44.33
-47.48
-50.90
-54.99
-60.17
-66.71
-74.63
-83.45
-91.98
-98.42
-100.70
-97.16
-87.15
-71.41
-51.94
-31.35
-12.08
4.18
16.75
25.79
31.86
35.66
37.71
38.41
38.06
36.95
35.40
33.79
32.50
31.88
32.18
33.54
35.93
39.17
42.95
46.84
50.40
53.16
54.76
54.96
53.74
51.26
47.88
43.98
39.94
36.06
32.46
29.15
26.00
22.87
19.69
16.50
13.43
10.70
8.36
6.34
4.40
2.29
-0.11
-2.71
-5.31
-7.72
-9.96
-12.33
-15.19
-18.86
-23.33
-28.29
-33.21
-37.64
-41.37
-44.55
-47.58
-51.00
-55.33
-60.87
-67.57
-74.80
-81.33
-85.43
-85.32
-79.75
-68.47
-52.48
-33.75
-14.63
2.85
17.44
28.73
36.93
42.44
45.61
46.60
45.56
42.76
38.70
34.12
29.80
26.46
24.58
24.38
25.80
28.60
32.44
36.90
41.49
45.69
48.97
50.88
51.07
49.47
46.28
41.94
37.03
32.10
27.52
23.37
19.45
15.47
11.16
6.47
1.59
-3.10
-7.20
-10.40
-12.58
-13.94
-14.87
-15.91
-17.53
-20.03
-23.42
-27.41
-31.56
-35.43
-38.84
-41.88
-45.01
-48.84
-53.99
-60.76
-68.89
-77.40
-84.65
-88.66
-87.66
-80.68
-67.89
-50.64
-31.05
-11.43
6.31
20.97
32.06
39.65
44.14
46.07
46.01
44.57
42.27
39.56
36.80
34.29
32.33
31.22
31.18
32.35
34.67
37.86
41.50
45.12
48.24
50.49
51.63
51.59
50.43
48.33
45.50
42.16
38.48
34.59
30.64
26.72
22.96
19.46
16.27
13.40
10.78
8.31
5.90
3.50
1.15
-1.07
-3.07
-4.89
-6.69
-8.73
-11.32
-14.64
-18.69
-23.23
-27.91
-32.36
-36.34
-39.86
-43.11
-46.46
-50.40
-55.41
-61.83
-69.63
-78.10
-85.77
-90.63
-90.63
-84.43
-71.97
-54.58
-34.62
-14.67
3.17
17.70
28.68
36.43
41.47
44.26
45.18
44.52
42.65
39.97
36.88
33.84
31.25
29.52
28.95
29.73
31.81
34.94
38.70
42.59
46.12
48.83
50.36
50.47
49.07
46.27
42.34
37.70
32.82
28.08
23.71
19.72
15.96
12.22
8.28
4.11
-0.19
-4.33
-8.00
-10.95
-13.11
-14.69
-16.02
-17.50
-19.40
-21.80
-24.52
-27.23
-29.63
-31.55
-33.10
-34.59
-36.57
-39.58
-44.05
-50.05
-57.08
-63.96
-69.04
-70.54
-67.12
-58.36
-44.96
-28.58
-11.32
4.89
18.65
29.38
37.09
42.13
44.85
45.51
44.26
41.29
36.96
31.93
27.04
23.18
21.02
20.81
22.39
25.21
28.65
32.20
35.53
38.46
40.80
42.28
42.53
41.30
38.64
34.95
30.88
27.03
23.78
21.04
18.39
15.31
11.48
6.90
1.90
-3.04
-7.47
-11.12
-13.98
-16.22
-18.20
-20.36
-23.03
-26.39
-30.34
-34.53
-38.53
-41.95
-44.65
-46.86
-49.13
-52.27
-56.99
-63.57
-71.52
-79.42
-85.14
-86.44
-81.71
-70.60
-54.27
-34.97
-15.38
2.18
16.26
26.35
32.70
35.96
36.84
35.99
33.92
31.06
27.74
24.32
21.11
18.42
16.46
15.34
15.04
15.48
16.54
18.15
20.23
22.59
24.96
26.90
28.02
28.03
26.88
24.72
21.88
18.73
15.54
12.46
9.48
6.49
3.35
-0.01
-3.50
-6.89
-9.88
-12.21
-13.83
-14.90
-15.80
-17.00
-18.89
-21.65
-25.18
-29.16
-33.14
-36.78
-39.92
-42.75
-45.74
-49.56
-54.81
-61.73
-69.92
-78.21
-84.78
-87.63
-85.17
-76.73
-62.85
-45.15
-25.83
-7.10
9.37
22.64
32.51
39.24
43.32
45.30
45.67
44.85
43.21
41.13
38.92
36.97
35.60
35.05
35.46
36.83
39.06
41.98
45.33
48.82
52.01
54.42
55.53
54.96
52.65
48.89
44.24
39.36
34.77
30.67
26.93
23.21
19.17
14.64
9.72
4.74
0.06
-4.02
-7.42
-10.31
-13.05
-15.98
-19.41
-23.39
-27.73
-32.06
-35.98
-39.25
-41.97
-44.63
-47.98
-52.75
-59.26
-67.04
-74.78
-80.51
-82.21
-78.40
-68.74
-54.15
-36.54
-18.19
-1.16
13.22
24.40
32.46
37.77
40.73
41.67
40.82
38.50
35.15
31.35
27.78
25.07
23.71
23.90
25.55
28.37
31.90
35.71
39.39
42.54
44.84
46.02
45.94
44.64
42.32
39.30
35.90
32.29
28.53
24.56
20.26
15.61
10.73
5.85
1.23
-2.96
-6.71
-10.23
-13.79
-17.61
-21.71
-25.93
-29.96
-33.58
-36.80
-39.92
-43.48
-48.01
-53.94
-61.25
-69.45
-77.45
-83.73
-86.54
-84.46
-76.78
-63.88
-47.19
-28.86
-11.12
4.23
16.26
24.85
30.42
33.54
34.67
34.07
32.00
28.76
24.87
21.01
17.87
16.01
15.71
16.97
19.54
23.04
27.04
31.13
34.87
37.86
39.66
39.91
38.40
35.20
30.68
25.49
20.31
15.62
11.50
7.65
3.56
-1.22
-6.77
-12.81
-18.77
-24.09
-28.41
-31.75
-34.54
-37.47
-41.24
-46.35
-52.84
-60.06
-66.70
-70.97
-71.15
-66.07
-55.64
-40.83
-23.51
-5.85
10.28
23.66
33.83
40.84
45.02
46.74
46.31
44.01
40.19
35.33
29.98
24.81
20.47
17.50
16.27
16.90
19.25
22.89
27.19
31.37
34.65
36.35
36.06
33.69
29.52
24.09
18.07
12.02
6.27
0.84
-4.52
-10.11
-16.12
-22.45
-28.75
-34.54
-39.45
-43.41
-46.79
-50.28
-54.75
-60.80
-68.48
-76.99
-84.63
-89.19
-88.54
-81.37
-67.72
-49.07
-27.94
-7.06
11.34
26.01
36.72
43.88
48.13
50.01
49.94
48.28
45.44
41.99
38.55
35.71
33.91
33.37
34.11
35.96
38.65
41.81
45.03
47.93
50.11
51.29
51.22
49.79
46.98
42.85
37.61
31.59
25.18
18.83
12.87
7.50
2.65
-1.93
-6.59
-11.58
-17.03
-22.75
-28.40
-33.56
-37.88
-41.29
-44.04
-46.74
-50.23
-55.32
-62.53
-71.74
-81.90
-91.17
-97.16
-97.60
-91.13
-77.72
-58.85
-37.00
-14.99
4.85
21.13
33.47
42.22
48.01
51.47
53.03
53.03
51.75
49.59
47.07
44.76
43.16
42.59
43.13
44.64
46.86
49.54
52.47
55.38
57.95
59.70
60.08
58.68
55.39
50.54
44.79
38.88
33.40
28.57
24.25
20.09
15.81
11.31
6.74
2.38
-1.52
-4.92
-7.97
-10.97
-14.24
-17.96
-22.14
-26.63
-31.13
-35.36
-39.15
-42.52
-45.74
-49.32
-53.94
-60.27
-68.54
-78.24
-87.89
-95.21
-97.66
-93.31
-81.57
-63.57
-41.84
-19.46
0.86
17.45
29.86
38.52
44.17
47.52
49.00
48.92
47.58
45.40
42.84
40.42
38.54
37.47
37.34
38.12
39.73
42.03
44.86
47.98
51.02
53.48
54.73
54.24
51.75
47.47
42.02
36.24
30.87
26.30
22.49
18.98
15.25
10.96
6.09
0.99
-3.80
-7.87
-11.06
-13.56
-15.88
-18.50
-21.75
-25.65
-29.94
-34.25
-38.26
-41.85
-45.18
-48.68
-52.93
-58.58
-65.94
-74.72
-83.67
-90.72
-93.44
-89.88
-79.29
-62.59
-42.03
-20.53
-0.75
15.65
28.09
36.88
42.67
46.08
47.51
47.22
45.51
42.84
39.81
37.10
35.25
34.59
35.15
36.77
39.17
42.03
45.08
48.05
50.62
52.38
52.90
51.81
48.96
44.55
39.09
33.30
27.87
23.24
19.44
16.17
12.91
9.24
4.99
0.37
-4.17
-8.07
-11.00
-12.94
-14.21
-15.36
-16.91
-19.16
-22.06
-25.34
-28.63
-31.78
-34.85
-38.22
-42.39
-47.80
-54.72
-63.03
-72.13
-80.78
-87.22
-89.49
-86.03
-76.25
-60.90
-41.91
-21.80
-2.98
12.92
25.25
34.12
40.07
43.59
45.05
44.71
42.87
39.94
36.50
33.13
30.38
28.64
28.06
28.64
30.23
32.60
35.49
38.62
41.68
44.24
45.86
46.14
44.87
42.12
38.27
33.92
29.66
25.85
22.48
19.22
15.58
11.24
6.20
0.85
-4.21
-8.43
-11.60
-13.91
-15.88
-18.08
-20.82
-24.10
-27.62
-30.97
-33.85
-36.16
-38.10
-40.03
-42.52
-46.16
-51.44
-58.39
-66.30
-73.65
-78.34
-78.37
-72.50
-60.82
-44.79
-26.73
-9.07
6.37
18.65
27.67
33.75
37.35
38.76
38.22
35.99
32.51
28.35
24.18
20.67
18.31
17.43
18.05
19.97
22.77
25.93
28.95
31.50
33.38
34.44
34.55
33.48
31.06
27.23
22.25
16.65
11.09
6.16
2.11
-1.21
-4.28
-7.69
-11.83
-16.75
-22.13
-27.41
-32.09
-35.88
-38.86
-41.42
-44.15
-47.65
-52.43
-58.64
-65.85
-73.03
-78.54
-80.57
-77.60
-69.05
-55.48
-38.54
-20.42
-3.23
11.52
23.17
31.73
37.56
41.13
42.81
42.92
41.74
39.60
36.90
34.06
31.49
29.59
28.66
28.90
30.38
32.96
36.29
39.87
43.08
45.34
46.25
45.60
43.51
40.31
36.47
32.42
28.47
24.70
21.01
17.20
13.09
8.62
3.90
-0.85
-5.36
-9.45
-13.05
-16.26
-19.32
-22.50
-26.00
-29.87
-34.04
-38.30
-42.43
-46.30
-49.93
-53.47
-57.31
-61.91
-67.66
-74.74
-82.73
-90.41
-95.91
-97.07
-92.17
-80.65
-63.41
-42.66
-21.21
-1.63
14.42
26.42
34.70
40.00
43.06
44.36
44.22
42.95
40.95
38.71
36.74
35.41
34.94
35.36
36.57
38.45
40.86
43.63
46.51
49.20
51.35
52.68
52.97
52.09
50.05
46.89
42.81
38.10
33.11
28.21
23.67
19.58
15.82
12.18
8.45
4.56
0.67
-2.97
-6.06
-8.49
-10.40
-12.15
-14.24
-17.11
-20.99
-25.77
-31.06
-36.31
-41.06
-45.06
-48.45
-51.73
-55.65
-60.99
-68.21
-77.17
-86.85
-95.38
-100.46
-99.99
-92.74
-78.90
-60.01
-38.57
-17.30
1.59
16.80
27.98
35.53
40.12
42.47
43.12
42.47
40.84
38.57
36.09
33.87
32.37
31.90
32.59
34.35
37.03
40.41
44.28
48.33
52.13
55.17
56.89
56.87
54.98
51.46
46.79
41.59
36.37
31.43
26.77
22.18
17.40
12.31
7.03
1.88
-2.74
-6.56
-9.62
-12.20
-14.74
-17.59
-20.95
-24.70
-28.58
-32.29
-35.62
-38.58
-41.36
-44.34
-48.08
-53.10
-59.76
-67.86
-76.46
-83.86
-87.89
-86.60
-78.94
-65.19
-47.03
-26.98
-7.64
9.01
21.99
31.26
37.31
40.69
41.82
40.94
38.28
34.27
29.52
24.79
20.82
18.19
17.21
17.92
20.09
23.31
27.14
31.15
34.99
38.34
40.87
42.17
41.89
39.83
36.06
31.04
25.39
19.78
14.66
10.08
5.80
1.40
-3.46
-8.92
-14.72
-20.39
-25.35
-29.20
-31.95
-34.07
-36.31
-39.53
-44.33
-50.80
-58.36
-65.80
-71.43
-73.56
-70.85
-62.81
-49.99
-33.87
-16.44
0.35
15.00
26.77
35.51
41.41
44.77
45.80
44.68
41.63
37.06
31.59
26.05
21.30
18.10
16.90
17.74
20.32
24.06
28.32
32.58
36.39
39.39
41.23
41.49
39.85
36.20
30.77
24.17
17.19
10.55
4.67
-0.52
-5.41
-10.56
-16.37
-22.89
-29.79
-36.52
-42.51
-47.41
-51.17
-54.12
-56.82
-60.01
-64.45
-70.60
-78.39
-86.87
-94.23
-98.15
-96.50
-88.18
-73.55
-54.40
-33.38
-13.10
4.60
18.83
29.59
37.29
42.42
45.38
46.52
46.25
45.03
43.37
41.62
40.08
38.99
38.56
39.02
40.52
43.02
46.25
49.75
52.94
55.26
56.31
55.83
53.79
50.34
45.76
40.47
34.84
29.18
23.61
18.19
12.91
7.79
2.92
-1.67
-6.04
-10.34
-14.81
-19.56
-24.52
-29.44
-33.99
-37.89
-41.16
-44.09
-47.25
-51.32
-56.93
-64.39
-73.51
-83.28
-91.94
-97.25
-97.12
-90.27
-76.82
-58.31
-37.29
-16.49
1.90
16.75
27.96
36.08
41.86
45.83
48.24
49.16
48.66
47.02
44.70
42.36
40.63
39.96
40.50
42.10
44.43
47.09
49.73
52.07
53.87
54.87
54.83
53.56
51.02
47.38
42.98
38.19
33.30
28.45
23.67
18.92
14.20
9.59
5.21
1.16
-2.53
-5.97
-9.36
-12.93
-16.82
-21.10
-25.64
-30.24
-34.65
-38.69
-42.40
-46.03
-50.12
-55.35
-62.30
-71.03
-80.75
-89.67
-95.36
-95.43
-88.36
-74.19
-54.62
-32.47
-10.79
8.08
22.96
33.84
41.38
46.38
49.37
50.55
50.00
47.93
44.83
41.47
38.65
36.98
36.76
37.93
40.22
43.26
46.64
49.94
52.74
54.60
55.20
54.34
52.07
48.63
44.43
39.82
35.06
30.23
25.28
20.17
14.93
9.77
4.97
0.76
-2.84
-6.08
-9.31
-12.90
-16.95
-21.28
-25.53
-29.33
-32.53
-35.25
-37.87
-40.91
-44.93
-50.37
-57.37
-65.55
-73.89
-80.68
-83.91
-81.82
-73.58
-59.65
-41.72
-22.23
-3.64
12.29
24.73
33.70
39.67
43.08
44.24
43.27
40.38
35.99
30.85
25.87
21.92
19.62
19.15
20.33
22.70
25.72
28.93
31.95
34.47
36.08
36.38
35.00
31.80
27.04
21.36
15.55
10.23
5.56
1.22
-3.44
-8.95
-15.46
-22.58
-29.62
-35.87
-40.96
-45.00
-48.47
-52.08
-56.54
-62.32
-69.48
-77.46
-84.91
-89.91
-90.40
-84.86
-72.92
-55.68
-35.36
-14.56
4.45
20.29
32.50
41.30
47.19
50.68
52.15
51.95
50.49
48.18
45.51
43.00
41.10
40.17
40.34
41.47
43.19
45.03
46.62
47.77
48.40
48.50
47.99
46.69
44.43
41.10
36.80
31.75
26.29
20.70
15.21
9.94
4.95
0.24
-4.24
-8.62
-13.10
-17.84
-22.89
-28.08
-33.08
-37.50
-41.06
-43.85
-46.27
-49.06
-53.04
-58.91
-66.92
-76.66
-86.87
-95.56
-100.39
-99.27
-91.12
-76.26
-56.46
-34.39
-12.90
5.81
20.61
31.39
38.77
43.58
46.52
48.04
48.38
47.74
46.38
44.69
43.11
42.05
41.78
42.32
43.53
45.17
47.06
49.08
51.14
53.07
54.55
55.10
54.28
51.85
47.95
43.07
37.89
33.05
28.84
25.20
21.75
18.00
13.64
8.65
3.34
-1.78
-6.22
-9.70
-12.27
-14.32
-16.42
-19.07
-22.57
-26.88
-31.67
-36.45
-40.85
-44.70
-48.14
-51.60
-55.67
-61.02
-68.11
-76.96
-86.84
-96.16
-102.70
-104.12
-98.76
-86.23
-67.70
-45.54
-22.66
-1.67
15.72
28.87
38.02
43.86
47.17
48.56
48.45
47.13
44.93
42.24
39.61
37.59
36.59
36.79
38.09
40.22
42.86
45.74
48.67
51.43
53.72
55.16
55.34
54.07
51.36
47.48
42.88
38.00
33.22
28.74
24.56
20.58
16.58
12.38
7.84
3.05
-1.71
-6.00
-9.45
-11.88
-13.48
-14.76
-16.36
-18.87
-22.54
-27.20
-32.32
-37.27
-41.57
-45.11
-48.24
-51.61
-55.95
-61.87
-69.56
-78.58
-87.76
-95.22
-98.78
-96.51
-87.43
-71.91
-51.72
-29.44
-7.81
11.07
26.09
37.06
44.37
48.59
50.26
49.81
47.70
44.44
40.62
36.88
33.77
31.77
31.11
31.83
33.80
36.73
40.27
44.03
47.68
50.88
53.29
54.56
54.36
52.51
49.05
44.32
38.91
33.49
28.59
24.41
20.78
17.25
13.37
8.90
3.99
-0.94
-5.33
-8.80
-11.28
-13.12
-14.94
-17.35
-20.77
-25.19
-30.22
-35.24
-39.65
-43.14
-45.83
-48.24
-51.18
-55.47
-61.63
-69.62
-78.61
-87.01
-92.72
-93.62
-88.27
-76.43
-59.22
-38.82
-17.87
1.31
17.22
29.36
37.92
43.43
46.39
47.11
45.82
42.80
38.51
33.54
28.65
24.55
21.79
20.72
21.46
23.88
27.66
32.26
37.03
41.24
44.26
45.75
45.62
44.07
41.39
37.84
33.57
28.69
23.32
17.66
12.02
6.64
1.62
-3.11
-7.80
-12.68
-17.84
-23.17
-28.44
-33.31
-37.58
-41.19
-44.30
-47.19
-50.21
-53.74
-58.16
-63.81
-70.80
-78.80
-86.75
-92.84
-94.90
-91.08
-80.57
-64.07
-43.64
-22.07
-1.94
14.98
28.04
37.36
43.46
46.82
47.81
46.77
44.15
40.55
36.68
33.15
30.44
28.82
28.45
29.36
31.49
34.65
38.51
42.67
46.66
50.05
52.41
53.43
52.87
50.67
46.98
42.23
36.99
31.86
27.19
23.04
19.16
15.12
10.58
5.43
-0.10
-5.54
-10.39
-14.37
-17.50
-20.16
-22.90
-26.21
-30.32
-35.09
-40.08
-44.81
-48.86
-52.15
-54.92
-57.77
-61.46
-66.72
-73.99
-83.06
-92.85
-101.47
-106.49
-105.67
-97.70
-82.77
-62.57
-39.80
-17.33
2.58
18.71
30.83
39.35
44.90
48.01
49.10
48.50
46.55
43.66
40.36
37.19
34.72
33.48
33.79
35.76
39.15
43.43
47.95
52.03
55.19
57.12
57.67
56.86
54.79
51.66
47.72
43.31
38.72
34.22
29.94
25.87
21.88
17.90
13.85
9.83
5.95
2.34
-0.95
-3.90
-6.55
-8.84
-10.73
-12.26
-13.61
-15.19
-17.47
-20.76
-25.08
-30.06
-35.13
-39.78
-43.78
-47.33
-50.92
-55.23
-60.92
-68.42
-77.74
-88.22
-98.39
-106.11
-108.99
-105.10
-93.69
-75.55
-52.93
-28.79
-6.02
13.36
28.41
39.18
46.23
50.23
51.71
51.11
48.88
45.56
41.76
38.08
35.04
33.05
32.39
33.25
35.66
39.46
44.24
49.40
54.23
58.12
60.58
61.36
60.40
57.83
53.93
49.13
43.91
38.73
33.89
29.49
25.45
21.64
17.95
14.32
10.75
7.22
3.71
0.21
-3.23
-6.45
-9.29
-11.68
-13.69
-15.60
-17.80
-20.65
-24.33
-28.78
-33.69
-38.61
-43.18
-47.24
-50.94
-54.72
-59.18
-64.91
-72.24
-80.92
-89.98
-97.67
-101.80
-100.31
-92.01
-77.05
-56.99
-34.43
-12.11
7.73
23.86
36.02
44.54
49.96
52.68
52.97
51.14
47.67
43.27
38.78
34.93
32.28
31.02
31.16
32.50
34.84
37.97
41.66
45.64
49.49
52.69
54.67
54.95
53.29
49.76
44.84
39.23
33.72
28.85
24.80
21.34
17.92
14.02
9.38
4.12
-1.25
-6.12
-10.05
-12.98
-15.21
-17.28
-19.71
-22.77
-26.43
-30.39
-34.27
-37.74
-40.71
-43.36
-46.13
-49.66
-54.55
-61.12
-69.08
-77.29
-83.91
-86.79
-84.17
-75.30
-60.77
-42.33
-22.38
-3.20
13.54
27.04
37.20
44.24
48.49
50.14
49.33
46.32
41.54
35.67
29.60
24.29
20.54
18.92
19.55
22.16
26.14
30.76
35.30
39.24
42.23
44.08
44.66
43.87
41.67
38.12
33.48
28.12
22.47
16.85
11.36
5.95
0.41
-5.40
-11.55
-17.97
-24.50
-30.90
-36.97
-42.50
-47.35
-51.46
-54.94
-58.13
-61.54
-65.79
-71.41
-78.60
-86.99
-95.44
-102.16
-105.01
-102.12
-92.56
-76.73
-56.40
-34.17
-12.71
5.91
20.69
31.60
39.23
44.31
47.42
48.90
48.96
47.80
45.76
43.29
40.91
39.11
38.27
38.57
40.07
42.64
46.06
49.96
53.92
57.42
59.93
60.98
60.29
57.85
53.96
49.10
43.80
38.52
33.48
28.64
23.80
18.68
13.15
7.31
1.52
-3.72
-8.03
-11.33
-13.96
-16.54
-19.74
-23.96
-29.18
-34.94
-40.58
-45.58
-49.71
-53.19
-56.63
-60.86
-66.69
-74.64
-84.49
-95.11
-104.41
-109.74
-108.71
-100.01
-84.01
-62.71
-39.09
-16.18
3.81
19.82
31.84
40.41
46.15
49.54
50.93
50.66
49.16
46.95
44.54
42.36
40.72
39.84
39.89
41.02
43.28
46.55
50.50
54.58
58.18
60.66
61.57
60.71
58.14
54.18
49.29
43.99
38.76
33.92
29.52
25.43
21.34
16.99
12.29
7.36
2.55
-1.82
-5.49
-8.53
-11.19
-13.95
-17.24
-21.29
-26.04
-31.16
-36.11
-40.49
-44.18
-47.51
-51.18
-56.07
-62.89
-71.82
-82.15
-92.26
-99.80
-102.34
-98.07
-86.54
-68.85
-47.34
-24.92
-4.12
13.44
27.20
37.38
44.49
48.96
51.11
51.21
49.64
46.95
43.78
40.69
38.13
36.43
35.80
36.43
38.41
41.68
45.89
50.53
54.91
58.39
60.44
60.77
59.31
56.20
51.78
46.53
40.99
35.61
30.62
25.92
21.26
16.33
11.07
5.68
0.61
-3.69
-6.96
-9.31
-11.19
-13.22
-15.94
-19.58
-23.98
-28.69
-33.11
-36.82
-39.77
-42.31
-45.19
-49.25
-55.18
-63.15
-72.62
-82.24
-89.98
-93.64
-91.44
-82.60
-67.70
-48.51
-27.55
-7.28
10.42
24.57
34.93
41.77
45.45
46.31
44.70
41.05
36.04
30.51
25.37
21.39
19.07
18.53
19.60
21.94
25.15
28.83
32.57
35.95
38.44
39.52
38.79
36.11
31.74
26.22
20.32
14.70
9.74
5.39
1.22
-3.38
-8.83
-15.18
-22.03
-28.66
-34.42
-38.92
-42.35
-45.33
-48.76
-53.50
-60.05
-68.22
-77.01
-84.65
-89.00
-88.12
-80.94
-67.66
-49.76
-29.55
-9.47
8.56
23.42
34.79
42.89
48.12
50.92
51.74
51.02
49.27
46.98
44.64
42.71
41.53
41.40
42.50
44.81
48.14
52.13
56.34
60.27
63.47
65.53
66.17
65.29
63.01
59.66
55.68
51.47
47.21
42.85
38.14
32.86
26.94
20.53
13.97
7.61
1.68
-3.87
-9.27
-14.85
-20.80
-27.10
-33.48
-39.53
-44.98
-49.77
-54.19
-58.84
-64.49
-71.82
-81.13
-92.06
-103.31
-112.76
-117.89
-116.49
-107.44
-91.21
-69.81
-46.18
-23.30
-3.43
12.31
23.86
31.75
36.78
39.63
40.81
40.77
39.90
38.61
37.30
36.34
36.04
36.58
38.02
40.31
43.23
46.53
49.89
53.04
55.66
57.48
58.18
57.56
55.49
52.05
47.45
42.03
36.20
30.39
24.93
20.06
15.84
12.18
8.85
5.59
2.21
-1.32
-4.84
-8.11
-10.90
-13.11
-14.90
-16.57
-18.56
-21.24
-24.81
-29.16
-33.96
-38.78
-43.28
-47.36
-51.19
-55.18
-59.85
-65.71
-73.11
-81.98
-91.65
-100.59
-106.67
-107.56
-101.56
-88.25
-68.81
-45.79
-22.28
-1.00
16.34
29.22
38.05
43.65
46.84
48.26
48.33
47.42
45.88
44.06
42.30
40.91
40.11
40.08
40.93
42.68
45.23
48.33
51.63
54.71
57.20
58.75
59.10
58.13
55.83
52.39
48.16
43.59
39.09
34.91
31.05
27.38
23.68
19.81
15.81
11.84
8.10
4.70
1.68
-1.05
-3.57
-5.94
-8.17
-10.31
-12.47
-14.86
-17.76
-21.36
-25.68
-30.50
-35.42
-40.03
-44.03
-47.45
-50.57
-53.96
-58.25
-64.03
-71.49
-80.22
-88.95
-95.70
-98.14
-94.37
-83.60
-66.61
-45.51
-23.20
-2.41
14.97
28.11
37.17
42.77
45.65
46.42
45.50
43.24
39.99
36.17
32.31
28.94
26.59
25.63
26.16
28.03
30.85
34.10
37.25
39.85
41.50
41.86
40.64
37.73
33.27
27.75
21.90
16.44
11.86
8.27
5.34
2.55
-0.57
-4.21
-8.20
-12.14
-15.55
-18.18
-20.08
-21.67
-23.46
-25.88
-29.03
-32.61
-36.13
-39.16
-41.57
-43.63
-45.96
-49.28
-54.24
-61.07
-69.42
-78.18
-85.52
-89.23
-87.31
-78.71
-63.76
-44.19
-22.68
-1.99
15.77
29.57
39.36
45.70
49.28
50.63
50.07
47.87
44.38
40.17
35.91
32.32
29.94
29.08
29.78
31.89
35.11
39.09
43.43
47.66
51.27
53.73
54.59
53.61
50.87
46.73
41.77
36.63
31.77
27.38
23.33
19.26
14.81
9.76
4.14
-1.76
-7.48
-12.54
-16.64
-19.79
-22.30
-24.76
-27.78
-31.77
-36.71
-42.20
-47.58
-52.27
-56.05
-59.19
-62.38
-66.60
-72.71
-81.15
-91.53
-102.42
-111.54
-116.21
-114.12
-104.21
-87.09
-64.88
-40.57
-17.11
3.33
19.71
31.93
40.49
46.09
49.41
51.03
51.42
50.86
49.58
47.78
45.73
43.88
42.72
42.70
44.08
46.76
50.35
54.29
57.97
60.88
62.64
63.08
62.14
59.84
56.32
51.75
46.41
40.67
34.92
29.55
24.75
20.54
16.69
12.89
8.88
4.58
0.16
-4.03
-7.56
-10.17
-11.90
-13.16
-14.61
-16.95
-20.59
-25.55
-31.40
-37.47
-43.16
-48.14
-52.45
-56.47
-60.82
-66.14
-72.98
-81.49
-91.22
-100.83
-108.22
-110.93
-106.91
-95.29
-76.82
-53.80
-29.28
-6.18
13.48
28.87
40.16
48.00
53.04
55.74
56.35
55.08
52.26
48.41
44.19
40.28
37.32
35.75
35.77
37.37
40.30
44.12
48.31
52.37
55.80
58.17
59.17
58.60
56.44
52.90
48.33
43.24
38.12
33.37
29.17
25.43
21.85
18.03
13.74
8.94
3.94
-0.76
-4.65
-7.43
-9.20
-10.39
-11.68
-13.71
-16.88
-21.26
-26.53
-32.20
-37.72
-42.70
-47.05
-50.98
-55.00
-59.79
-66.05
-74.15
-83.84
-94.00
-102.56
-107.01
-105.06
-95.47
-78.62
-56.53
-32.20
-8.73
11.55
27.50
39.10
46.95
51.77
54.07
54.14
52.25
48.79
44.40
39.90
36.06
33.49
32.47
33.03
34.99
38.09
42.02
46.42
50.88
54.85
57.73
59.00
58.33
55.75
51.61
46.51
41.17
36.17
31.73
27.73
23.78
19.38
14.26
8.43
2.35
-3.33
-7.98
-11.29
-13.42
-14.92
-16.50
-18.69
-21.64
-25.11
-28.65
-31.79
-34.38
-36.54
-38.72
-41.50
-45.47
-51.12
-58.53
-67.24
-75.96
-82.74
-85.37
-82.07
-72.18
-56.46
-36.90
-16.11
3.47
20.14
33.11
42.36
48.21
51.05
51.14
48.66
43.92
37.47
30.15
23.02
17.13
13.31
12.00
13.12
16.22
20.55
25.35
29.93
33.80
36.67
38.38
38.78
37.75
35.27
31.41
26.48
20.93
15.30
9.95
5.07
0.51
-4.00
-8.80
-14.15
-20.05
-26.32
-32.60
-38.51
-43.69
-47.97
-51.40
-54.29
-57.16
-60.66
-65.48
-72.05
-80.22
-89.02
-96.57
-100.47
-98.53
-89.52
-73.75
-53.07
-30.28
-8.23
10.92
26.07
37.18
44.76
49.49
51.92
52.41
51.29
48.97
45.99
42.96
40.48
38.98
38.70
39.63
41.62
44.43
47.80
51.45
55.02
58.10
60.24
61.01
60.13
57.51
53.32
48.00
42.11
36.23
30.83
26.11
21.99
18.16
14.19
9.78
4.84
-0.42
-5.56
-10.13
-13.80
-16.57
-18.70
-20.69
-23.07
-26.25
-30.39
-35.34
-40.69
-45.97
-50.77
-54.99
-58.93
-63.28
-68.94
-76.61
-86.40
-97.41
-107.68
-114.55
-115.40
-108.56
-93.93
-73.09
-48.83
-24.29
-2.04
16.37
30.49
40.63
47.44
51.56
53.53
53.74
52.61
50.55
48.02
45.45
43.23
41.67
40.98
41.34
42.82
45.42
49.01
53.25
57.60
61.38
63.90
64.64
63.45
60.57
56.54
52.01
47.46
43.11
38.88
34.54
29.94
25.09
20.24
15.70
11.76
8.46
5.65
3.00
0.17
-3.07
-6.72
-10.64
-14.65
-18.68
-22.84
-27.39
-32.55
-38.36
-44.52
-50.52
-55.87
-60.28
-63.86
-67.03
-70.38
-74.57
-80.14
-87.37
-96.01
-104.98
-112.39
-115.74
-112.72
-102.01
-83.94
-60.55
-34.93
-10.30
10.95
27.68
39.88
48.17
53.31
55.89
56.31
54.96
52.33
49.01
45.68
42.91
41.15
40.67
41.61
43.90
47.35
51.59
56.16
60.52
64.21
66.79
67.96
67.53
65.49
61.95
57.24
51.77
46.00
40.33
35.04
30.26
25.97
22.00
18.16
14.26
10.22
6.08
2.07
-1.57
-4.62
-7.02
-8.91
-10.60
-12.49
-14.95
-18.21
-22.28
-26.93
-31.79
-36.48
-40.78
-44.65
-48.34
-52.28
-57.00
-62.99
-70.55
-79.50
-88.96
-97.26
-102.17
-101.49
-93.85
-79.29
-59.43
-37.01
-14.98
4.29
19.54
30.63
38.13
42.79
45.16
45.53
44.01
40.81
36.30
31.13
26.09
21.95
19.31
18.46
19.36
21.72
25.17
29.27
33.58
37.57
40.61
42.03
41.27
38.12
32.88
26.26
19.26
12.82
7.50
3.31
-0.21
-3.83
-8.23
-13.76
-20.26
-27.10
-33.47
-38.61
-42.23
-44.54
-46.25
-48.35
-51.72
-56.90
-63.69
-71.05
-77.20
-80.04
-77.74
-69.40
-55.47
-37.58
-18.11
0.64
16.92
29.90
39.50
46.05
49.95
51.51
50.99
48.74
45.22
41.06
36.96
33.56
31.39
30.78
31.78
34.20
37.60
41.41
45.04
48.00
49.97
50.81
50.46
48.93
46.25
42.48
37.74
32.28
26.38
20.35
14.42
8.74
3.34
-1.76
-6.66
-11.43
-16.19
-21.09
-26.25
-31.67
-37.25
-42.74
-47.84
-52.39
-56.51
-60.66
-65.59
-72.05
-80.44
-90.41
-100.61
-108.82
-112.48
-109.41
-98.70
-81.00
-58.50
-34.20
-11.06
8.75
24.23
35.42
43.00
47.81
50.60
51.92
52.16
51.64
50.62
49.43
48.36
47.75
47.87
48.90
50.83
53.48
56.49
59.45
61.96
63.74
64.53
64.17
62.45
59.24
54.51
48.49
41.65
34.66
28.23
22.80
18.44
14.83
11.42
7.73
3.59
-0.82
-4.99
-8.40
-10.74
-12.11
-13.04
-14.27
-16.46
-19.94
-24.56
-29.81
-35.03
-39.71
-43.67
-47.16
-50.71
-55.01
-60.76
-68.45
-78.10
-89.01
-99.55
-107.37
-109.84
-105.00
-92.22
-72.62
-48.80
-24.06
-1.36
17.35
31.41
41.17
47.47
51.12
52.72
52.65
51.21
48.81
45.98
43.31
41.32
40.35
40.52
41.78
44.02
47.06
50.74
54.76
58.67
61.91
63.91
64.19
62.62
59.36
54.88
49.75
44.46
39.33
34.52
30.01
25.72
21.64
17.79
14.21
10.93
7.92
5.04
2.22
-0.57
-3.26
-5.72
-7.89
-9.81
-11.72
-13.99
-16.98
-20.87
-25.61
-30.87
-36.17
-41.08
-45.37
-49.09
-52.63
-56.57
-61.59
-68.20
-76.54
-86.02
-95.25
-102.11
-104.27
-99.85
-88.21
-70.24
-48.19
-25.00
-3.43
14.61
28.36
37.95
44.00
47.20
48.04
46.88
44.03
39.89
35.00
30.01
25.61
22.40
20.85
21.17
23.30
26.89
31.35
35.97
40.09
43.17
44.92
45.24
44.14
41.70
38.02
33.27
27.74
21.85
16.11
10.91
6.47
2.69
-0.78
-4.35
-8.39
-13.00
-17.99
-22.98
-27.46
-31.10
-33.78
-35.71
-37.38
-39.46
-42.65
-47.52
-54.30
-62.59
-71.28
-78.57
-82.31
-80.61
-72.49
-58.31
-39.72
-19.26
0.46
17.35
30.36
39.33
44.75
47.30
47.59
46.03
42.89
38.54
33.52
28.56
24.46
21.94
21.38
22.78
25.79
29.86
34.39
38.86
42.85
45.99
47.95
48.45
47.38
44.80
41.03
36.54
31.81
27.16
22.67
18.23
13.60
8.64
3.42
-1.77
-6.55
-10.66
-14.14
-17.31
-20.63
-24.44
-28.84
-33.59
-38.29
-42.55
-46.18
-49.36
-52.52
-56.35
-61.57
-68.57
-77.16
-86.25
-93.92
-97.78
-95.73
-86.70
-71.18
-51.09
-29.24
-8.42
9.32
23.02
32.71
39.00
42.68
44.42
44.73
43.98
42.48
40.54
38.47
36.64
35.38
34.97
35.63
37.42
40.25
43.87
47.85
51.71
54.92
57.05
57.77
56.95
54.66
51.14
46.76
41.96
37.18
32.72
28.70
25.08
21.66
18.28
14.77
11.11
7.35
3.57
-0.12
-3.60
-6.77
-9.54
-11.96
-14.30
-16.97
-20.41
-24.91
-30.38
-36.38
-42.28
-47.54
-51.93
-55.65
-59.18
-63.18
-68.26
-74.87
-83.10
-92.49
-101.84
-109.21
-112.26
-108.98
-98.37
-81.04
-59.03
-35.27
-12.64
6.82
22.17
33.45
41.26
46.27
49.04
50.00
49.53
47.99
45.79
43.30
40.93
39.04
38.02
38.15
39.50
41.92
45.06
48.46
51.66
54.26
55.96
56.51
55.78
53.72
50.46
46.28
41.56
36.69
31.97
27.57
23.49
19.69
16.03
12.36
8.59
4.70
0.78
-2.99
-6.34
-9.09
-11.12
-12.52
-13.62
-14.90
-16.88
-19.89
-23.95
-28.67
-33.52
-37.95
-41.74
-45.07
-48.37
-52.22
-57.12
-63.42
-71.20
-80.07
-89.03
-96.33
-99.80
-97.42
-88.11
-72.26
-51.79
-29.51
-8.30
9.77
23.80
33.88
40.67
44.81
46.75
46.69
44.84
41.58
37.50
33.30
29.65
27.03
25.70
25.70
26.99
29.45
32.91
37.08
41.52
45.62
48.71
50.23
49.91
47.79
44.30
40.03
35.55
31.28
27.37
23.72
20.05
16.11
11.71
6.91
1.95
-2.79
-6.94
-10.31
-12.98
-15.29
-17.68
-20.55
-24.01
-27.86
-31.68
-35.10
-37.99
-40.61
-43.54
-47.50
-53.07
-60.47
-69.32
-78.55
-86.45
-90.98
-90.25
-83.17
-69.88
-51.81
-31.31
-10.98
7.08
21.67
32.53
40.04
44.78
47.20
47.57
46.10
43.00
38.71
33.83
29.12
25.36
23.17
22.89
24.54
27.76
32.01
36.65
41.13
44.98
47.89
49.57
49.82
48.49
45.62
41.49
36.65
31.73
27.25
23.41
20.02
16.57
12.54
7.60
1.89
-4.03
-9.44
-13.72
-16.66
-18.55
-20.09
-22.07
-25.09
-29.30
-34.43
-39.85
-44.92
-49.16
-52.51
-55.36
-58.42
-62.60
-68.62
-76.72
-86.29
-95.79
-102.94
-105.30
-100.99
-89.42
-71.57
-49.71
-26.70
-5.21
12.93
26.95
36.90
43.35
46.95
48.29
47.90
46.21
43.68
40.75
37.83
35.36
33.66
33.02
33.57
35.31
38.11
41.70
45.72
49.70
53.18
55.65
56.75
56.31
54.44
51.45
47.78
43.84
39.86
35.90
31.90
27.81
23.67
19.63
15.87
12.45
9.32
6.28
3.19
0.01
-3.12
-5.98
-8.40
-10.45
-12.41
-14.73
-17.82
-21.92
-26.91
-32.44
-37.98
-43.09
-47.58
-51.55
-55.38
-59.69
-65.11
-72.12
-80.76
-90.38
-99.48
-105.87
-107.21
-101.75
-89.03
-70.14
-47.51
-24.07
-2.50
15.46
29.17
38.84
45.11
48.68
50.11
49.83
48.21
45.67
42.68
39.77
37.39
35.94
35.61
36.46
38.43
41.35
44.99
49.06
53.12
56.65
59.08
60.00
59.27
57.05
53.74
49.80
45.64
41.45
37.31
33.17
29.00
24.81
20.71
16.81
13.18
9.84
6.71
3.67
0.61
-2.54
-5.72
-8.82
-11.70
-14.33
-16.78
-19.26
-22.05
-25.36
-29.32
-33.82
-38.62
-43.35
-47.71
-51.57
-55.12
-58.86
-63.50
-69.78
-78.05
-87.91
-97.96
-105.91
-109.15
-105.55
-94.26
-76.16
-53.64
-29.80
-7.54
11.22
25.76
36.32
43.52
48.00
50.20
50.42
49.03
46.52
43.45
40.35
37.64
35.61
34.52
34.57
35.89
38.45
42.06
46.30
50.62
54.45
57.32
58.87
58.98
57.70
55.23
51.86
47.89
43.60
39.18
34.76
30.45
26.34
22.42
18.59
14.66
10.46
5.94
1.26
-3.23
-7.19
-10.33
-12.70
-14.64
-16.67
-19.33
-23.00
-27.68
-33.06
-38.64
-43.82
-48.26
-51.91
-55.09
-58.43
-62.65
-68.36
-75.85
-84.77
-93.96
-101.51
-105.06
-102.55
-92.86
-76.39
-54.98
-31.43
-8.63
11.21
27.00
38.62
46.58
51.52
53.97
54.26
52.70
49.65
45.61
41.20
37.06
33.77
31.78
31.35
32.57
35.31
39.28
43.96
48.74
52.92
55.92
57.37
57.19
55.51
52.61
48.81
44.37
39.55
34.57
29.68
25.05
20.76
16.70
12.64
8.39
3.88
-0.70
-5.02
-8.68
-11.43
-13.32
-14.64
-15.90
-17.60
-20.08
-23.38
-27.24
-31.30
-35.17
-38.62
-41.66
-44.47
-47.44
-51.08
-55.97
-62.55
-70.90
-80.37
-89.40
-95.75
-96.99
-91.44
-78.79
-60.40
-38.80
-16.94
2.75
18.89
31.11
39.75
45.33
48.29
48.88
47.38
44.18
39.93
35.32
31.02
27.57
25.27
24.30
24.77
26.72
30.06
34.51
39.55
44.40
48.27
50.46
50.71
49.11
46.14
42.34
38.14
33.73
29.08
24.04
18.50
12.43
5.99
-0.51
-6.69
-12.14
-16.63
-20.16
-23.02
-25.67
-28.50
-31.71
-35.16
-38.48
-41.24
-43.25
-44.65
-45.97
-48.03
-51.67
-57.44
-65.21
-73.97
-81.81
-86.35
-85.42
-77.80
-63.75
-44.97
-24.05
-3.74
13.86
27.65
37.48
43.82
47.31
48.50
47.80
45.55
42.10
37.90
33.48
29.43
26.30
24.49
24.24
25.58
28.34
32.19
36.75
41.55
46.06
49.65
51.70
51.72
49.56
45.50
40.22
34.57
29.23
24.56
20.43
16.43
12.11
7.19
1.75
-3.81
-8.96
-13.26
-16.53
-19.01
-21.20
-23.71
-26.97
-31.06
-35.77
-40.62
-45.20
-49.28
-52.96
-56.61
-60.80
-66.15
-73.14
-81.75
-91.26
-100.05
-105.82
-106.20
-99.56
-85.67
-65.96
-43.12
-20.17
0.39
17.16
29.89
39.05
45.38
49.41
51.46
51.73
50.44
47.97
44.89
41.83
39.39
38.01
37.88
38.95
41.01
43.71
46.76
49.87
52.83
55.35
57.10
57.64
56.66
54.04
49.99
45.00
39.64
34.41
29.60
25.22
21.17
17.27
13.43
9.60
5.79
2.06
-1.49
-4.69
-7.36
-9.38
-10.86
-12.16
-13.86
-16.51
-20.41
-25.47
-31.20
-36.95
-42.15
-46.53
-50.24
-53.76
-57.81
-63.11
-70.20
-79.18
-89.34
-99.13
-106.20
-108.04
-102.76
-89.85
-70.48
-47.23
-23.25
-1.36
16.66
30.26
39.77
45.92
49.46
50.93
50.79
49.43
47.26
44.71
42.19
40.04
38.56
38.01
38.59
40.41
43.42
47.39
51.85
56.16
59.64
61.72
62.10
60.76
57.98
54.18
49.80
45.14
40.40
35.68
31.05
26.55
22.18
17.98
13.91
9.94
6.06
2.29
-1.33
-4.76
-7.92
-10.76
-13.25
-15.43
-17.48
-19.65
-22.28
-25.56
-29.51
-33.89
-38.30
-42.32
-45.74
-48.68
-51.56
-55.03
-59.77
-66.31
-74.70
-84.35
-93.77
-100.75
-102.85
-98.16
-86.05
-67.56
-45.14
-21.93
-0.72
16.69
29.77
38.86
44.70
47.91
48.93
48.04
45.63
42.18
38.29
34.52
31.38
29.25
28.43
29.10
31.29
34.81
39.22
43.92
48.24
51.61
53.58
53.91
52.53
49.59
45.47
40.69
35.87
31.43
27.48
23.76
19.87
15.39
10.28
4.88
-0.19
-4.33
-7.32
-9.41
-11.23
-13.46
-16.55
-20.50
-24.87
-29.12
-32.79
-35.78
-38.33
-40.93
-44.14
-48.43
-54.11
-61.05
-68.63
-75.51
-79.93
-80.03
-74.49
-63.07
-46.77
-27.62
-8.04
9.83
24.61
35.74
43.35
47.81
49.52
48.89
46.26
42.14
37.10
31.87
27.12
23.49
21.44
21.22
22.87
26.14
30.57
35.47
40.12
43.86
46.21
46.90
45.93
43.47
39.85
35.42
30.54
25.49
20.34
15.07
9.54
3.63
-2.53
-8.65
-14.25
-18.96
-22.65
-25.56
-28.26
-31.31
-34.99
-39.22
-43.52
-47.36
-50.43
-52.83
-55.09
-58.00
-62.36
-68.67
-76.89
-86.19
-94.90
-100.78
-101.58
-95.72
-82.98
-64.60
-43.04
-21.15
-1.37
14.80
26.97
35.48
41.05
44.41
46.11
46.53
45.92
44.50
42.52
40.29
38.27
36.95
36.78
37.98
40.51
44.06
48.13
52.19
55.74
58.37
59.75
59.66
58.00
54.83
50.37
45.03
39.32
33.71
28.58
24.11
20.26
16.76
13.30
9.60
5.58
1.40
-2.59
-6.07
-8.87
-11.11
-13.13
-15.41
-18.35
-22.21
-26.96
-32.39
-38.11
-43.70
-48.83
-53.35
-57.41
-61.55
-66.56
-73.25
-81.95
-92.09
-101.98
-109.12
-110.85
-105.35
-92.27
-72.95
-49.98
-26.38
-4.74
13.28
27.07
36.82
43.13
46.72
48.26
48.29
47.31
45.73
43.89
42.10
40.65
39.79
39.81
40.90
43.14
46.42
50.43
54.71
58.69
61.87
63.86
64.41
63.41
60.90
57.03
52.10
46.53
40.78
35.32
30.43
26.22
22.57
19.26
16.06
12.82
9.51
6.20
3.05
0.20
-2.24
-4.27
-6.06
-7.93
-10.28
-13.46
-17.65
-22.76
-28.51
-34.45
-40.20
-45.59
-50.70
-55.84
-61.53
-68.27
-76.39
-85.73
-95.41
-103.71
-108.41
-107.33
-99.16
-84.00
-63.50
-40.37
-17.51
2.81
19.37
31.98
41.11
47.40
51.33
53.20
53.21
51.68
49.07
45.95
42.89
40.41
38.92
38.64
39.66
41.90
45.10
48.84
52.58
55.76
57.92
58.75
58.19
56.30
53.28
49.35
44.75
39.73
34.62
29.76
25.39
21.64
18.44
15.59
12.86
10.10
7.27
4.50
1.90
-0.43
-2.51
-4.40
-6.25
-8.25
-10.62
-13.55
-17.14
-21.32
-25.81
-30.22
-34.23
-37.72
-40.86
-44.10
-48.01
-53.11
-59.74
-67.80
-76.62
-84.82
-90.45
-91.49
-86.42
-74.88
-57.88
-37.64
-16.86
2.06
17.56
29.14
37.06
41.94
44.32
44.61
43.01
39.78
35.30
30.13
25.00
20.65
17.75
16.74
17.71
20.36
24.13
28.35
32.44
35.94
38.61
40.25
40.69
39.75
37.30
33.36
28.23
22.41
16.51
11.05
6.30
2.22
-1.51
-5.34
-9.66
-14.66
-20.22
-25.98
-31.46
-36.24
-40.15
-43.26
-45.95
-48.72
-52.17
-56.84
-63.02
-70.49
-78.37
-85.05
-88.51
-86.88
-79.08
-65.31
-47.09
-26.82
-7.04
10.23
23.92
33.90
40.64
44.84
47.06
47.69
46.95
45.08
42.41
39.44
36.71
34.69
33.70
33.82
34.96
36.94
39.55
42.52
45.59
48.37
50.43
51.28
50.54
48.12
44.22
39.39
34.29
29.53
25.47
22.06
18.97
15.73
11.97
7.57
2.77
-2.00
-6.27
-9.73
-12.38
-14.55
-16.75
-19.50
-23.13
-27.62
-32.64
-37.69
-42.25
-46.10
-49.36
-52.52
-56.29
-61.45
-68.46
-77.23
-86.82
-95.45
-100.80
-100.62
-93.47
-79.31
-59.63
-37.03
-14.44
5.71
22.00
34.13
42.53
47.98
51.16
52.50
52.19
50.41
47.41
43.61
39.58
35.87
32.95
31.14
30.60
31.37
33.37
36.37
39.98
43.61
46.55
48.15
47.97
46.00
42.60
38.41
34.10
30.13
26.67
23.62
20.71
17.77
14.72
11.68
8.82
6.31
4.18
2.34
0.63
-1.11
-2.97
-4.93
-6.90
-8.78
-10.55
-12.38
-14.55
-17.42
-21.20
-25.85
-31.07
-36.36
-41.21
-45.37
-48.91
-52.27
-56.13
-61.20
-68.03
-76.61
-86.22
-95.20
-101.31
-102.23
-96.33
-83.30
-64.43
-42.16
-19.46
1.13
18.02
30.71
39.47
44.97
47.87
48.76
48.12
46.38
43.94
41.12
38.20
35.43
33.16
31.76
31.67
33.15
36.18
40.45
45.33
50.08
54.02
56.64
57.68
57.15
55.22
52.17
48.30
43.88
39.19
34.50
30.04
25.96
22.24
18.71
15.14
11.34
7.31
3.25
-0.49
-3.60
-5.96
-7.69
-9.14
-10.74
-12.86
-15.66
-19.10
-22.96
-26.95
-30.78
-34.29
-37.48
-40.54
-43.88
-48.04
-53.52
-60.54
-68.70
-76.86
-83.18
-85.62
-82.53
-73.33
-58.74
-40.60
-21.33
-3.14
12.41
24.65
33.60
39.57
42.91
43.85
42.61
39.45
34.80
29.22
23.40
18.00
13.60
10.68
9.56
10.32
12.82
16.62
21.00
25.13
28.20
29.63
29.24
27.23
24.02
20.14
15.94
11.56
6.98
2.10
-3.10
-8.50
-13.97
-19.32
-24.46
-29.35
-34.05
-38.69
-43.52
-48.86
-54.99
-61.89
-69.01
-75.08
-78.41
-77.28
-70.66
-58.64
-42.50
-24.35
-6.45
9.40
22.23
31.84
38.56
42.82
44.99
45.30
43.96
41.22
37.53
33.39
29.37
25.98
23.67
22.72
23.20
24.99
27.76
31.07
34.40
37.24
39.18
39.90
39.26
37.28
34.11
30.02
25.31
20.22
14.94
9.60
4.33
-0.79
-5.77
-10.73
-15.86
-21.27
-26.96
-32.66
-37.96
-42.51
-46.16
-49.10
-51.80
-54.86
-58.85
-64.19
-71.04
-79.07
-87.36
-94.30
-97.83
-96.04
-87.80
-73.28
-54.00
-32.43
-11.16
7.76
23.23
35.02
43.48
49.17
52.63
54.31
54.62
53.91
52.51
50.77
48.99
47.50
46.59
46.48
47.27
48.97
51.43
54.39
57.56
60.48
62.67
63.67
63.15
61.03
57.60
53.36
48.88
44.56
40.55
36.74
32.83
28.59
23.85
18.61
12.93
6.94
0.77
-5.41
-11.37
-16.81
-21.48
-25.16
-27.90
-30.03
-32.06
-34.56
-37.95
-42.29
-47.28
-52.41
-57.15
-61.13
-64.31
-67.01
-69.76
-73.30
-78.32
-85.22
-93.73
-102.66
-109.91
-112.94
-109.51
-98.58
-80.79
-58.30
-34.14
-11.25
8.36
23.85
35.38
43.58
49.14
52.53
54.08
54.17
53.28
51.89
50.41
49.07
47.95
47.10
46.66
46.89
48.06
50.31
53.48
57.12
60.55
63.08
64.18
63.66
61.60
58.35
54.39
50.23
46.20
42.45
38.92
35.42
31.74
27.77
23.60
19.47
15.70
12.51
9.89
7.63
5.35
2.78
-0.20
-3.48
-6.85
-10.15
-13.37
-16.65
-20.23
-24.26
-28.78
-33.66
-38.69
-43.63
-48.32
-52.71
-56.95
-61.41
-66.68
-73.34
-81.70
-91.39
-101.13
-108.82
-112.04
-108.78
-98.19
-80.94
-59.13
-35.62
-13.21
6.09
21.41
32.79
40.87
46.31
49.62
51.06
50.82
49.21
46.67
43.76
41.02
38.86
37.55
37.26
38.10
40.16
43.34
47.35
51.62
55.41
58.02
58.98
58.16
55.79
52.31
48.22
43.93
39.73
35.71
31.85
28.02
24.13
20.09
15.91
11.69
7.59
3.73
0.19
-3.01
-5.90
-8.48
-10.76
-12.78
-14.69
-16.71
-19.15
-22.24
-26.04
-30.44
-35.13
-39.75
-44.02
-47.88
-51.51
-55.33
-59.93
-65.88
-73.51
-82.65
-92.34
-100.80
-105.76
-105.10
-97.50
-83.09
-63.40
-41.03
-18.79
1.04
17.15
29.26
37.75
43.26
46.42
47.64
47.30
45.75
43.37
40.64
37.99
35.82
34.42
34.02
34.72
36.52
39.31
42.88
46.83
50.69
53.87
55.86
56.30
55.08
52.41
48.71
44.48
40.13
35.87
31.70
27.54
23.31
19.04
14.85
10.84
6.98
3.18
-0.64
-4.47
-8.07
-11.16
-13.55
-15.33
-16.90
-18.82
-21.56
-25.28
-29.77
-34.56
-39.18
-43.33
-46.98
-50.36
-53.86
-57.93
-63.06
-69.55
-77.39
-85.94
-93.77
-98.78
-98.81
-92.34
-79.11
-60.39
-38.59
-16.49
3.51
20.00
32.54
41.39
47.17
50.45
51.65
51.07
49.01
45.80
41.91
37.91
34.43
32.08
31.32
32.30
34.89
38.74
43.34
48.20
52.84
56.73
59.33
60.13
58.76
55.19
49.82
43.34
36.55
30.07
24.21
18.93
14.04
9.35
4.85
0.62
-3.20
-6.54
-9.50
-12.23
-14.81
-17.17
-19.14
-20.51
-21.27
-21.72
-22.37
-23.78
-26.33
-30.00
-34.49
-39.26
-43.86
-48.06
-51.94
-55.82
-60.21
-65.67
-72.59
-80.88
-89.75
-97.58
-102.18
-101.34
-93.69
-79.21
-59.42
-36.91
-14.53
5.46
21.77
34.15
42.98
48.87
52.31
53.64
53.13
51.12
48.04
44.43
40.85
37.84
35.89
35.38
36.52
39.26
43.25
47.86
52.42
56.28
59.03
60.46
60.52
59.28
56.83
53.31
48.95
44.05
38.96
34.04
29.53
25.50
21.85
18.32
14.53
10.13
4.91
-1.03
-7.29
-13.28
-18.44
-22.49
-25.55
-28.04
-30.47
-33.26
-36.55
-40.19
-43.91
-47.43
-50.61
-53.52
-56.43
-59.73
-63.92
-69.43
-76.48
-84.76
-93.29
-100.32
-103.68
-101.41
-92.47
-77.24
-57.42
-35.57
-14.27
4.57
20.01
31.91
40.57
46.34
49.49
50.31
49.21
46.76
43.58
40.28
37.29
34.98
33.59
33.33
34.29
36.40
39.42
42.99
46.68
50.09
52.85
54.67
55.28
54.58
52.56
49.42
45.50
41.14
36.69
32.34
28.15
24.07
20.04
15.98
11.84
7.68
3.63
-0.10
-3.35
-6.04
-8.29
-10.36
-12.64
-15.38
-18.73
-22.61
-26.77
-30.94
-34.89
-38.53
-41.96
-45.44
-49.41
-54.41
-60.90
-68.98
-78.12
-86.98
-93.60
-95.85
-92.12
-81.89
-66.05
-46.61
-26.13
-6.91
9.49
22.50
32.24
39.14
43.56
45.66
45.54
43.37
39.56
34.76
29.80
25.49
22.44
21.01
21.25
22.96
25.75
29.17
32.78
36.15
38.93
40.80
41.51
40.85
38.71
35.16
30.47
25.10
19.57
14.32
9.59
5.29
1.06
-3.54
-8.86
-14.94
-21.47
-27.88
-33.58
-38.19
-41.69
-44.48
-47.22
-50.68
-55.50
-61.99
-70.00
-78.77
-86.90
-92.51
-93.69
-89.05
-78.23
-62.18
-42.90
-22.85
-4.21
11.63
24.20
33.64
40.39
44.75
46.90
47.02
45.36
42.42
38.89
35.52
33.03
31.94
32.51
34.68
38.11
42.32
46.78
51.04
54.78
57.79
59.79
60.48
59.59
57.02
52.97
47.97
42.72
37.81
33.52
29.74
26.04
21.97
17.25
11.95
6.43
1.16
-3.53
-7.53
-11.07
-14.55
-18.41
-22.87
-27.90
-33.20
-38.36
-43.05
-47.17
-50.96
-54.95
-59.83
-66.26
-74.62
-84.70
-95.42
-104.87
-110.58
-110.23
-102.47
-87.44
-66.89
-43.64
-20.71
-0.45
15.92
28.23
37.02
42.94
46.57
48.28
48.36
47.18
45.16
42.85
40.76
39.35
38.93
39.66
41.49
44.27
47.74
51.57
55.43
58.94
61.67
63.16
63.03
61.10
57.47
52.57
47.01
41.40
36.13
31.32
26.80
22.26
17.43
12.19
6.67
1.21
-3.77
-7.93
-11.19
-13.81
-16.30
-19.23
-22.93
-27.39
-32.25
-36.99
-41.21
-44.83
-48.13
-51.69
-56.23
-62.44
-70.64
-80.57
-91.08
-100.17
-105.34
-104.33
-95.89
-80.34
-59.57
-36.41
-13.81
6.04
22.02
34.09
42.74
48.65
52.28
53.91
53.76
52.14
49.56
46.63
44.00
42.18
41.42
41.74
43.04
45.15
47.92
51.21
54.77
58.21
60.96
62.44
62.20
60.11
56.40
51.61
46.37
41.22
36.45
32.05
27.78
23.31
18.37
12.93
7.16
1.49
-3.61
-7.78
-10.99
-13.56
-16.06
-19.06
-22.90
-27.52
-32.49
-37.22
-41.27
-44.52
-47.29
-50.21
-54.06
-59.47
-66.73
-75.50
-84.66
-92.35
-96.36
-94.70
-86.35
-71.71
-52.54
-31.46
-11.14
6.42
20.25
30.28
36.97
40.95
42.71
42.62
40.98
38.15
34.57
30.74
27.19
24.39
22.74
22.49
23.73
26.31
29.99
34.34
38.79
42.68
45.26
45.95
44.46
40.98
36.09
30.59
25.14
20.06
15.25
10.34
4.98
-0.96
-7.35
-13.80
-19.88
-25.30
-29.95
-34.03
-38.02
-42.53
-48.18
-55.18
-63.08
-70.61
-75.92
-77.04
-72.56
-62.14
-46.71
-28.20
-8.99
8.78
23.64
34.98
42.86
47.71
49.99
50.04
48.08
44.41
39.50
34.08
28.97
24.96
22.53
21.78
22.50
24.29
26.72
29.52
32.47
35.38
37.95
39.66
39.92
38.26
34.50
28.94
22.29
15.44
9.14
3.72
-1.04
-5.77
-11.14
-17.55
-24.90
-32.63
-39.92
-46.10
-50.91
-54.56
-57.71
-61.21
-65.88
-72.30
-80.52
-89.85
-98.75
-105.03
-106.37
-101.11
-88.90
-70.87
-49.37
-27.17
-6.67
10.67
24.37
34.70
42.20
47.43
50.78
52.54
52.93
52.18
50.57
48.46
46.29
44.51
43.53
43.61
44.81
46.99
49.84
52.93
55.75
57.79
58.61
57.97
55.84
52.45
48.18
43.47
38.66
33.91
29.17
24.29
19.11
13.59
7.90
2.37
-2.62
-6.85
-10.35
-13.45
-16.65
-20.39
-24.90
-30.08
-35.58
-40.98
-45.97
-50.48
-54.76
-59.32
-64.82
-71.85
-80.63
-90.60
-100.24
-107.24
-109.12
-104.02
-91.47
-72.69
-50.22
-27.06
-5.84
11.86
25.53
35.53
42.51
47.10
49.76
50.85
50.70
49.68
48.22
46.72
45.57
45.04
45.35
46.57
48.68
51.49
54.70
57.89
60.62
62.42
62.96
62.08
59.82
56.39
52.11
47.27
42.18
37.04
32.03
27.30
22.93
18.93
15.26
11.80
8.46
5.22
2.11
-0.74
-3.22
-5.29
-7.08
-8.88
-11.01
-13.76
-17.22
-21.28
-25.66
-30.04
-34.21
-38.18
-42.18
-46.56
-51.79
-58.30
-66.46
-76.32
-87.40
-98.43
-107.41
-112.00
-110.22
-101.16
-85.44
-65.04
-42.68
-21.03
-2.01
13.45
25.26
33.78
39.50
42.82
44.06
43.54
41.70
39.05
36.19
33.72
32.13
31.74
32.66
34.82
38.04
42.05
46.51
50.98
54.91
57.68
58.76
57.84
55.01
50.71
45.55
40.06
34.59
29.16
23.58
17.60
11.06
4.04
-3.21
-10.34
-17.00
-23.05
-28.51
-33.60
-38.55
-43.52
-48.46
-53.18
-57.49
-61.30
-64.80
-68.41
-72.68
-78.10
-84.82
-92.50
-100.10
-106.03
-108.43
-105.76
-97.33
-83.63
-66.21
-47.19
-28.64
-11.99
2.06
13.49
22.52
29.37
34.15
36.95
38.02
37.76
36.75
35.63
35.00
35.36
37.09
40.32
45.02
50.87
57.46
64.27
70.84
76.67
81.31
84.22
84.86
82.92
78.48
72.15
64.85
57.54
50.76
44.44
37.98
30.73
22.37
13.12
3.71
-5.07
-12.64
-19.00
-24.58
-30.08
-36.24
-43.59
-52.26
-61.86
-71.33
-79.01
-83.03
-81.85
-74.91
-62.96
-47.89
-32.06
-17.60
-5.74
3.28
9.92
14.85
18.47
20.85
21.80
21.29
19.54
17.19
15.01
13.76
13.88
15.42
18.13
21.57
25.31
28.99
32.38
35.32
37.63
39.11
39.57
38.88
37.07
34.28
30.82
26.98
23.06
19.18
15.35
11.42
7.23
2.64
-2.36
-7.65
-13.02
-18.22
-23.02
-27.28
-31.01
-34.35
-37.61
-41.15
-45.42
-50.79
-57.35
-64.70
-71.84
-77.23
-79.18
-76.37
-68.32
-55.66
-39.97
-23.26
-7.43
6.27
17.37
25.98
32.50
37.35
40.74
42.79
43.57
43.22
42.03
40.39
38.73
37.46
36.83
36.92
37.64
38.82
40.29
41.93
43.62
45.20
46.41
46.90
46.33
44.52
41.50
37.59
33.28
29.08
25.31
22.08
19.20
16.35
13.19
9.56
5.55
1.45
-2.29
-5.33
-7.55
-9.18
-10.68
-12.60
-15.30
-18.90
-23.13
-27.56
-31.77
-35.48
-38.68
-41.60
-44.63
-48.22
-52.84
-58.84
-66.25
-74.55
-82.51
-88.37
-90.20
-86.60
-77.22
-62.95
-45.70
-27.72
-11.02
3.14
14.38
22.91
29.25
33.86
37.02
38.87
39.46
38.91
37.45
35.46
33.44
31.85
31.09
31.38
32.72
35.01
38.00
41.35
44.67
47.51
49.43
50.11
49.42
47.50
44.65
41.29
37.76
34.27
30.87
27.55
24.25
20.93
17.56
14.12
10.60
7.03
3.50
0.15
-2.87
-5.48
-7.68
-9.65
-11.62
-13.87
-16.62
-19.95
-23.78
-27.88
-31.93
-35.66
-38.97
-41.96
-44.96
-48.45
-52.95
-58.80
-66.00
-73.96
-81.43
-86.65
-87.78
-83.49
-73.48
-58.65
-40.90
-22.49
-5.42
9.02
20.38
28.75
34.52
38.09
39.82
40.05
39.15
37.47
35.32
32.98
30.71
28.85
27.73
27.65
28.71
30.79
33.53
36.55
39.49
42.08
44.08
45.26
45.38
44.30
42.08
39.07
35.73
32.50
29.62
26.99
24.32
21.29
17.70
13.59
9.17
4.72
0.54
-3.18
-6.32
-8.92
-11.09
-13.04
-15.03
-17.28
-19.95
-23.02
-26.39
-29.87
-33.27
-36.50
-39.56
-42.69
-46.24
-50.66
-56.26
-63.01
-70.29
-76.78
-80.75
-80.49
-74.96
-64.26
-49.59
-32.95
-16.43
-1.61
10.69
20.37
27.68
32.89
36.13
37.42
36.88
34.80
31.66
28.03
24.47
21.42
19.24
18.19
18.45
20.04
22.83
26.53
30.63
34.61
37.87
39.92
40.45
39.43
37.09
33.91
30.46
27.17
24.20
21.39
18.41
14.95
10.90
6.43
1.94
-2.18
-5.69
-8.62
-11.23
-13.88
-16.84
-20.26
-24.05
-27.99
-31.78
-35.14
-37.94
-40.27
-42.47
-45.06
-48.63
-53.54
-59.70
-66.38
-72.20
-75.42
-74.46
-68.39
-57.33
-42.45
-25.65
-9.03
5.71
17.62
26.51
32.73
36.81
39.17
40.02
39.42
37.44
34.31
30.49
26.57
23.20
20.86
19.84
20.13
21.59
23.96
26.99
30.37
33.73
36.57
38.36
38.67
37.35
34.61
30.98
27.13
23.65
20.80
18.49
16.35
13.94
10.93
7.28
3.22
-0.88
-4.63
-7.82
-10.44
-12.70
-14.96
-17.53
-20.61
-24.21
-28.14
-32.11
-35.81
-39.03
-41.78
-44.29
-47.06
-50.70
-55.78
-62.56
-70.59
-78.73
-85.14
-87.85
-85.28
-76.88
-63.35
-46.46
-28.43
-11.36
3.34
15.06
23.86
30.14
34.40
37.08
38.49
38.84
38.23
36.71
34.43
31.65
28.89
26.77
25.88
26.55
28.72
31.99
35.74
39.38
42.40
44.51
45.49
45.28
43.92
41.60
38.63
35.38
32.16
29.11
26.23
23.37
20.40
17.23
13.89
10.48
7.10
3.83
0.69
-2.30
-5.16
-7.86
-10.36
-12.61
-14.69
-16.76
-19.04
-21.75
-24.98
-28.65
-32.49
-36.15
-39.42
-42.32
-45.09
-48.22
-52.26
-57.67
-64.59
-72.59
-80.50
-86.58
-88.85
-85.71
-76.61
-62.31
-44.69
-26.19
-8.98
5.55
17.00
25.61
31.91
36.29
38.91
39.84
39.19
37.31
34.72
32.02
29.73
28.19
27.58
27.94
29.24
31.37
34.16
37.39
40.69
43.66
45.94
47.25
47.42
46.45
44.48
41.75
38.54
35.13
31.72
28.43
25.27
22.24
19.33
16.47
13.57
10.52
7.22
3.67
0.02
-3.47
-6.48
-8.87
-10.69
-12.26
-14.00
-16.26
-19.16
-22.54
-26.09
-29.45
-32.44
-35.07
-37.56
-40.24
-43.52
-47.76
-53.25
-59.95
-67.29
-74.06
-78.52
-78.90
-73.98
-63.69
-49.15
-32.41
-15.67
-0.68
11.64
21.17
28.18
33.04
35.93
36.90
36.03
33.56
29.97
25.88
21.99
18.92
17.13
16.78
17.81
19.90
22.67
25.74
28.79
31.56
33.79
35.12
35.22
33.85
31.03
27.10
22.59
18.04
13.79
9.86
6.03
1.94
-2.69
-7.92
-13.57
-19.28
-24.63
-29.26
-33.02
-35.97
-38.46
-41.05
-44.38
-48.98
-55.00
-61.95
-68.65
-73.43
-74.57
-70.84
-62.04
-49.07
-33.67
-17.91
-3.47
8.67
18.26
25.55
30.88
34.46
36.38
36.71
35.61
33.44
30.65
27.76
25.20
23.42
22.75
23.46
25.58
28.94
33.08
37.37
41.18
44.03
45.63
45.94
45.01
43.01
40.14
36.68
32.89
29.00
25.09
21.10
16.87
12.28
7.40
2.45
-2.21
-6.31
-9.83
-13.04
-16.36
-20.14
-24.49
-29.17
-33.75
-37.81
-41.15
-43.90
-46.54
-49.77
-54.32
-60.68
-68.87
-78.11
-86.84
-92.98
-94.43
-89.82
-79.04
-63.33
-44.88
-26.16
-9.14
5.08
16.29
24.82
31.17
35.76
38.84
40.59
41.23
41.02
40.26
39.26
38.36
37.83
37.96
38.89
40.68
43.23
46.34
49.70
52.97
55.73
57.56
58.11
57.18
54.81
51.28
47.03
42.58
38.29
34.36
30.74
27.29
23.83
20.32
16.89
13.76
11.13
9.04
7.33
5.69
3.77
1.42
-1.37
-4.37
-7.30
-10.00
-12.47
-14.88
-17.51
-20.61
-24.32
-28.60
-33.22
-37.87
-42.27
-46.19
-49.64
-52.89
-56.45
-60.99
-67.09
-74.82
-83.49
-91.50
-96.74
-97.17
-91.53
-79.87
-63.47
-44.51
-25.36
-7.94
6.60
17.91
26.25
32.17
36.25
38.92
40.41
40.86
40.34
39.08
37.48
36.05
35.30
35.57
36.92
39.22
42.17
45.43
48.69
51.69
54.15
55.78
56.31
55.56
53.54
50.47
46.72
42.77
39.00
35.63
32.63
29.77
26.75
23.37
19.69
16.01
12.74
10.22
8.49
7.25
5.99
4.25
1.80
-1.20
-4.32
-7.15
-9.49
-11.50
-13.59
-16.24
-19.68
-23.86
-28.46
-33.08
-37.39
-41.28
-44.84
-48.26
-51.83
-55.92
-60.86
-66.97
-74.18
-81.82
-88.50
-92.26
-91.17
-84.06
-71.05
-53.64
-34.28
-15.52
0.68
13.45
22.92
29.73
34.58
37.87
39.67
39.99
38.95
36.93
34.49
32.23
30.61
29.89
30.15
31.45
33.72
36.92
40.81
45.00
48.89
51.89
53.46
53.38
51.74
48.88
45.30
41.41
37.53
33.79
30.23
26.83
23.58
20.47
17.42
14.33
11.08
7.64
4.08
0.59
-2.56
-5.17
-7.18
-8.80
-10.34
-12.25
-14.80
-18.07
-21.90
-25.92
-29.72
-32.98
-35.60
-37.74
-39.81
-42.42
-46.23
-51.71
-58.79
-66.67
-73.71
-77.93
-77.52
-71.60
-60.52
-45.76
-29.41
-13.45
0.72
12.45
21.64
28.47
33.14
35.79
36.56
35.65
33.36
30.09
26.37
22.75
19.89
18.34
18.39
20.04
22.93
26.51
30.20
33.52
36.12
37.82
38.50
38.09
36.56
33.99
30.53
26.43
21.94
17.30
12.70
8.20
3.85
-0.41
-4.66
-8.99
-13.49
-18.17
-22.98
-27.75
-32.28
-36.37
-39.91
-42.92
-45.64
-48.47
-51.94
-56.51
-62.34
-69.02
-75.44
-79.92
-80.66
-76.36
