1543247973.00
64.000000
-0.00
-0.00
-0.00
-0.00
-0.00
-0.00
-0.00
-0.00
-0.00
-0.00
0.00
0.01
0.01
-0.00
-0.03
-0.05
-0.05
0.00
0.13
0.36
0.66
1.01
1.37
1.72
2.06
2.40
2.79
3.24
3.80
4.42
5.06
5.66
6.20
6.68
7.15
7.68
8.31
9.14
10.09
11.04
11.88
12.56
13.14
13.76
14.65
15.96
17.91
20.32
22.90
25.38
27.58
29.57
31.68
34.32
37.81
42.54
48.15
54.10
59.83
64.97
69.58
74.14
79.34
85.71
93.76
103.00
112.62
121.73
129.77
136.75
143.30
150.75
157.77
166.64
177.95
191.79
206.97
220.57
228.25
225.36
208.53
176.87
132.76
80.05
23.07
-34.94
-92.44
-149.16
-205.23
-260.37
-313.74
-363.87
-409.83
-450.91
-486.50
-515.74
-537.23
-549.22
-549.96
-538.37
-514.21
-478.67
-433.88
-382.45
-327.02
-269.84
-212.63
-156.66
-102.95
-52.37
-5.90
35.58
71.43
101.35
125.50
144.38
158.69
169.15
176.37
180.75
182.57
182.07
179.51
175.23
169.65
163.18
156.15
148.81
141.30
133.69
126.02
118.33
110.69
103.16
95.80
88.68
81.83
75.25
68.95
62.95
57.25
51.86
46.78
42.03
37.59
33.45
29.61
26.07
22.81
19.83
17.11
14.67
12.48
10.54
8.83
7.35
6.07
4.97
4.05
3.27
2.62
2.09
1.65
1.30
1.01
0.79
0.61
0.47
0.37
0.28
0.22
0.18
0.15
0.13
0.12
0.13
0.14
0.15
0.18
0.20
0.24
0.28
0.32
0.36
0.41
0.45
0.50
0.55
0.60
0.65
0.71
0.77
0.83
0.90
0.98
1.07
1.16
1.27
1.39
1.52
1.67
1.83
2.02
2.23
2.46
2.71
3.00
3.31
3.65
4.02
4.43
4.87
5.35
5.87
6.43
7.02
7.66
8.34
9.07
9.84
10.66
11.52
12.43
13.38
14.39
15.46
16.59
17.79
19.04
20.32
21.59
22.78
23.81
24.57
24.92
24.76
23.98
22.50
20.28
17.34
13.78
9.68
5.25
0.68
-3.80
-7.98
-11.69
-14.77
-17.13
-18.74
-19.58
-19.72
-19.25
-18.31
-17.03
-15.55
-13.97
-12.35
-10.71
-9.03
-7.28
-5.50
-3.69
-1.90
-0.17
1.52
3.17
4.83
6.57
8.48
10.47
12.48
14.42
16.26
17.98
19.64
21.40
23.43
25.98
28.87
31.92
34.94
37.76
40.29
42.62
44.98
47.73
51.25
55.25
59.37
63.17
66.27
68.47
69.83
70.75
71.79
73.52
75.50
77.08
77.46
75.71
71.13
63.23
51.54
35.10
17.28
-1.10
-19.87
-39.34
-60.01
-82.50
-107.38
-134.90
-164.46
-194.09
-221.23
-242.37
-254.37
-255.67
-246.86
-230.38
-209.36
-186.37
-162.63
-138.81
-114.93
-91.31
-68.78
-48.42
-31.01
-16.55
-4.34
6.61
16.71
25.93
33.81
39.76
43.48
45.21
45.64
45.72
46.22
47.33
48.92
50.59
51.91
52.64
52.68
52.06
50.77
48.86
46.39
43.51
40.45
37.36
34.24
30.98
27.42
23.52
19.38
15.19
11.13
7.28
3.66
0.23
-3.02
-6.14
-9.25
-12.61
-16.47
-20.98
-25.94
-30.69
-34.32
-35.91
-34.81
-30.88
-24.52
-16.46
-7.55
1.46
10.04
17.83
24.59
30.13
34.29
36.98
38.31
38.45
37.77
36.60
35.25
33.90
32.64
31.48
30.42
29.45
28.51
27.48
26.23
24.61
22.59
20.25
17.77
15.31
12.99
10.85
8.82
6.84
4.84
2.76
0.51
-2.08
-5.09
-8.53
-12.24
-15.93
-19.35
-22.50
-25.63
-29.16
-33.38
-38.12
-42.71
-46.10
-47.31
-45.75
-41.44
-34.91
-26.89
-18.11
-9.09
-0.28
7.89
14.96
20.53
24.35
26.46
27.17
26.88
26.04
25.01
24.02
23.24
22.71
22.40
22.16
21.82
21.20
20.19
18.76
16.94
14.80
12.37
9.68
6.74
3.58
0.22
-3.27
-6.78
-10.17
-13.33
-16.21
-18.90
-21.64
-24.68
-28.27
-32.54
-37.43
-42.70
-47.85
-52.15
-54.73
-54.75
-51.66
-45.45
-36.70
-26.39
-15.62
-5.29
4.04
12.16
19.02
24.59
28.84
31.74
33.37
33.93
33.73
33.06
32.11
30.98
29.74
28.53
27.49
26.74
26.26
25.87
25.25
24.06
22.15
19.58
16.60
13.47
10.33
7.19
3.92
0.40
-3.35
-7.21
-10.93
-14.29
-17.20
-19.73
-22.13
-24.81
-28.16
-32.49
-37.76
-43.59
-49.16
-53.42
-55.33
-54.17
-49.78
-42.53
-33.28
-23.06
-12.83
-3.28
5.26
12.69
19.02
24.27
28.44
31.55
33.66
34.89
35.40
35.36
34.96
34.36
33.66
32.96
32.23
31.39
30.31
28.89
27.15
25.17
23.11
21.03
18.90
16.60
13.98
11.04
7.83
4.53
1.27
-1.90
-5.00
-8.12
-11.27
-14.43
-17.60
-20.87
-24.45
-28.66
-33.68
-39.44
-45.43
-50.79
-54.46
-55.44
-53.14
-47.50
-39.06
-28.82
-17.94
-7.51
1.71
9.38
15.56
20.52
24.54
27.76
30.19
31.80
32.60
32.79
32.57
32.19
31.72
31.16
30.41
29.48
28.44
27.40
26.45
25.55
24.52
23.14
21.27
18.92
16.15
13.12
9.87
6.42
2.73
-1.13
-5.01
-8.67
-11.91
-14.66
-17.06
-19.48
-22.37
-26.14
-30.96
-36.58
-42.31
-47.16
-50.04
-50.10
-46.88
-40.52
-31.65
-21.26
-10.43
-0.18
8.78
16.01
21.43
25.21
27.65
29.11
29.92
30.28
30.35
30.21
29.97
29.71
29.50
29.32
29.08
28.63
27.85
26.69
25.18
23.46
21.66
19.84
17.95
15.83
13.33
10.34
6.97
3.42
-0.02
-3.12
-5.80
-8.17
-10.52
-13.20
-16.53
-20.74
-25.84
-31.61
-37.58
-43.06
-47.24
-49.34
-48.81
-45.40
-39.26
-30.91
-21.15
-10.90
-1.09
7.57
14.61
19.87
23.39
25.38
26.12
25.88
24.98
23.77
22.53
21.43
20.49
19.57
18.51
17.25
15.91
14.66
13.60
12.67
11.63
10.20
8.19
5.55
2.43
-0.96
-4.36
-7.59
-10.50
-13.02
-15.23
-17.40
-19.95
-23.29
-27.72
-33.12
-39.00
-44.48
-48.62
-50.58
-49.88
-46.46
-40.64
-32.99
-24.21
-15.00
-5.90
2.64
10.28
16.75
21.75
25.12
26.80
27.05
26.31
25.15
23.98
22.99
22.12
21.19
20.09
18.88
17.73
16.79
16.02
15.25
14.21
12.72
10.68
8.16
5.21
1.88
-1.78
-5.64
-9.50
-13.13
-16.39
-19.34
-22.27
-25.57
-29.63
-34.66
-40.51
-46.67
-52.26
-56.19
-57.48
-55.49
-50.16
-42.04
-32.07
-21.32
-10.70
-0.85
7.89
15.31
21.33
25.89
29.04
30.99
32.04
32.51
32.66
32.61
32.31
31.70
30.73
29.43
27.91
26.36
24.90
23.59
22.34
20.97
19.26
17.03
14.24
11.00
7.54
4.06
0.74
-2.44
-5.52
-8.60
-11.75
-15.03
-18.56
-22.58
-27.36
-33.03
-39.39
-45.73
-50.91
-53.68
-53.09
-48.84
-41.40
-31.76
-21.09
-10.41
-0.38
8.67
16.52
22.98
27.84
31.03
32.71
33.28
33.23
33.02
32.87
32.79
32.68
32.43
32.00
31.40
30.60
29.51
28.05
26.17
23.92
21.45
18.88
16.28
13.57
10.62
7.29
3.54
-0.61
-4.97
-9.27
-13.26
-16.75
-19.79
-22.60
-25.66
-29.42
-34.18
-39.86
-45.91
-51.38
-55.14
-56.20
-53.96
-48.37
-39.94
-29.55
-18.27
-7.07
3.24
12.17
19.45
25.02
29.01
31.68
33.35
34.36
35.00
35.47
35.85
36.14
36.24
36.05
35.45
34.40
32.92
31.19
29.36
27.58
25.89
24.21
22.44
20.47
18.27
15.83
13.17
10.32
7.25
4.00
0.62
-2.82
-6.28
-9.75
-13.28
-17.00
-20.99
-25.35
-30.15
-35.37
-40.81
-46.00
-50.20
-52.51
-52.12
-48.60
-42.05
-33.15
-22.88
-12.31
-2.29
6.64
14.22
20.37
25.11
28.48
30.61
31.66
31.89
31.56
30.95
30.24
29.54
28.86
28.12
27.22
26.10
24.78
23.32
21.83
20.38
18.90
17.25
15.17
12.46
9.04
4.99
0.61
-3.75
-7.75
-11.22
-14.18
-16.81
-19.36
-22.07
-25.13
-28.68
-32.81
-37.41
-42.14
-46.29
-48.96
-49.21
-46.46
-40.64
-32.27
-22.29
-11.76
-1.61
7.53
15.22
21.25
25.54
28.12
29.17
29.01
28.04
26.64
25.14
23.69
22.32
20.94
19.47
17.92
16.37
14.97
13.85
12.94
12.04
10.79
8.87
6.06
2.42
-1.84
-6.30
-10.55
-14.27
-17.32
-19.84
-22.23
-25.03
-28.67
-33.32
-38.61
-43.74
-47.70
-49.50
-48.54
-44.65
-38.13
-29.59
-19.78
-9.55
0.31
9.10
16.31
21.70
25.27
27.29
28.11
28.13
27.74
27.22
26.76
26.42
26.11
25.67
24.94
23.89
22.58
21.15
19.80
18.58
17.45
16.19
14.52
12.21
9.16
5.43
1.23
-3.22
-7.73
-12.12
-16.27
-20.11
-23.64
-27.09
-30.88
-35.45
-41.10
-47.54
-53.83
-58.57
-60.37
-58.34
-52.55
-43.82
-33.45
-22.64
-12.19
-2.44
6.55
14.67
21.67
27.21
31.02
33.17
33.98
34.01
33.78
33.61
33.53
33.38
32.88
31.88
30.36
28.54
26.70
25.08
23.74
22.57
21.25
19.44
16.90
13.57
9.58
5.18
0.64
-3.80
-8.05
-12.05
-15.86
-19.59
-23.48
-27.82
-32.88
-38.72
-45.00
-50.92
-55.36
-57.15
-55.53
-50.33
-42.08
-31.82
-20.70
-9.70
0.57
9.80
17.85
24.57
29.79
33.40
35.43
36.15
36.01
35.53
35.08
34.80
34.62
34.35
33.81
32.94
31.81
30.55
29.26
27.94
26.49
24.78
22.72
20.27
17.50
14.45
11.15
7.59
3.78
-0.19
-4.20
-8.08
-11.70
-15.10
-18.42
-21.97
-26.04
-30.85
-36.35
-42.10
-47.30
-50.89
-51.88
-49.60
-44.06
-35.84
-25.91
-15.34
-5.00
4.55
13.02
20.18
25.80
29.68
31.74
32.12
31.27
29.80
28.33
27.25
26.71
26.59
26.60
26.47
26.01
25.13
23.86
22.24
20.33
18.18
15.85
13.32
10.54
7.40
3.78
-0.25
-4.50
-8.64
-12.32
-15.36
-17.85
-20.15
-22.73
-26.00
-30.13
-34.97
-40.01
-44.53
-47.74
-48.90
-47.54
-43.44
-36.78
-28.04
-17.95
-7.42
2.63
11.45
18.49
23.51
26.56
27.90
27.88
26.91
25.42
23.83
22.50
21.60
21.06
20.58
19.81
18.54
16.82
14.91
13.11
11.50
9.90
7.96
5.36
2.09
-1.65
-5.54
-9.29
-12.82
-16.14
-19.30
-22.39
-25.49
-28.80
-32.62
-37.21
-42.61
-48.37
-53.54
-56.89
-57.28
-54.08
-47.40
-38.06
-27.26
-16.20
-5.78
3.54
11.60
18.38
23.83
27.84
30.40
31.63
31.83
31.41
30.78
30.17
29.69
29.29
28.84
28.16
27.14
25.75
24.09
22.32
20.55
18.78
16.77
14.21
10.87
6.79
2.24
-2.29
-6.41
-9.97
-13.13
-16.25
-19.71
-23.80
-28.68
-34.24
-40.21
-46.02
-50.90
-53.94
-54.29
-51.45
-45.37
-36.62
-26.16
-15.12
-4.51
5.00
13.08
19.68
24.86
28.72
31.33
32.82
33.35
33.16
32.58
31.86
31.24
30.82
30.57
30.33
29.85
28.90
27.38
25.37
23.16
21.10
19.35
17.84
16.21
14.04
11.02
7.12
2.62
-2.08
-6.60
-10.77
-14.62
-18.36
-22.33
-26.83
-32.08
-38.01
-44.27
-50.18
-54.82
-57.23
-56.54
-52.34
-44.72
-34.34
-22.31
-9.90
1.74
11.81
19.94
26.17
30.79
34.12
36.43
37.87
38.53
38.51
37.98
37.15
36.27
35.48
34.81
34.11
33.15
31.72
29.79
27.53
25.20
23.03
21.02
18.93
16.42
13.22
9.37
5.23
1.25
-2.23
-5.18
-7.88
-10.76
-14.21
-18.38
-23.26
-28.71
-34.51
-40.34
-45.63
-49.54
-51.09
-49.44
-44.22
-35.84
-25.33
-14.07
-3.35
5.97
13.59
19.57
24.17
27.55
29.76
30.76
30.63
29.61
28.14
26.69
25.58
24.86
24.38
23.85
23.05
21.91
20.53
19.05
17.59
16.18
14.73
13.08
11.07
8.58
5.55
2.05
-1.75
-5.61
-9.32
-12.77
-16.07
-19.49
-23.42
-28.15
-33.72
-39.79
-45.62
-50.28
-52.81
-52.54
-49.23
-43.13
-34.90
-25.42
-15.53
-5.98
2.69
10.11
16.02
20.30
22.99
24.35
24.78
24.72
24.51
24.25
23.88
23.21
22.10
20.55
18.66
16.64
14.69
12.96
11.53
10.35
9.26
8.03
6.39
4.09
1.04
-2.70
-6.87
-11.13
-15.08
-18.47
-21.24
-23.66
-26.32
-29.93
-34.98
-41.42
-48.47
-54.74
-58.63
-58.93
-55.14
-47.63
-37.44
-25.87
-14.14
-3.11
6.66
14.88
21.35
25.98
28.85
30.18
30.42
30.07
29.61
29.29
29.15
28.95
28.46
27.53
26.21
24.69
23.20
21.83
20.50
18.98
17.05
14.59
11.60
8.16
4.37
0.32
-3.88
-8.11
-12.18
-15.94
-19.31
-22.43
-25.62
-29.33
-33.92
-39.41
-45.43
-51.10
-55.28
-56.85
-55.07
-49.82
-41.57
-31.27
-20.00
-8.75
1.81
11.22
19.27
25.82
30.81
34.28
36.39
37.41
37.71
37.64
37.49
37.37
37.26
36.96
36.28
35.03
33.20
30.93
28.52
26.18
24.06
22.08
20.03
17.72
15.03
11.97
8.61
5.02
1.28
-2.60
-6.52
-10.41
-14.23
-18.09
-22.34
-27.30
-33.05
-39.23
-44.87
-48.75
-49.75
-47.23
-41.25
-32.51
-22.10
-11.17
-0.64
8.85
16.97
23.54
28.48
31.74
33.37
33.57
32.69
31.23
29.75
28.66
28.16
28.12
28.16
27.83
26.80
25.04
22.75
20.26
17.81
15.38
12.83
9.93
6.59
2.93
-0.81
-4.43
-7.86
-11.13
-14.35
-17.63
-21.02
-24.62
-28.59
-33.03
-37.95
-42.95
-47.33
-50.14
-50.44
-47.65
-41.70
-33.13
-22.84
-11.96
-1.47
7.90
15.66
21.64
25.76
28.09
28.75
27.98
26.16
23.76
21.32
19.27
17.86
17.05
16.58
16.08
15.27
14.04
12.55
11.02
9.52
7.90
5.80
2.89
-0.91
-5.29
-9.69
-13.60
-16.81
-19.54
-22.26
-25.50
-29.58
-34.57
-40.29
-46.34
-52.16
-56.96
-59.83
-59.97
-56.84
-50.47
-41.43
-30.68
-19.27
-8.15
2.10
11.09
18.65
24.65
29.02
31.77
33.02
33.08
32.36
31.33
30.38
29.68
29.16
28.60
27.73
26.43
24.76
22.90
21.01
19.06
16.88
14.18
10.76
6.62
2.00
-2.73
-7.16
-11.01
-14.18
-16.76
-19.07
-21.56
-24.79
-29.23
-35.03
-41.82
-48.63
-54.09
-56.76
-55.68
-50.63
-42.23
-31.71
-20.38
-9.33
0.84
9.91
17.80
24.40
29.51
32.98
34.86
35.44
35.23
34.68
34.09
33.51
32.84
31.91
30.68
29.21
27.62
26.04
24.55
23.14
21.68
19.98
17.82
14.99
11.45
7.37
3.07
-1.10
-4.93
-8.35
-11.52
-14.66
-18.04
-21.90
-26.47
-31.86
-37.89
-43.97
-49.01
-51.69
-50.86
-45.99
-37.45
-26.41
-14.40
-2.88
7.22
15.57
22.29
27.71
32.04
35.29
37.36
38.26
38.20
37.60
36.94
36.51
36.27
35.95
35.20
33.80
31.83
29.53
27.25
25.21
23.39
21.63
19.66
17.23
14.18
10.50
6.33
1.93
-2.41
-6.52
-10.39
-14.20
-18.23
-22.74
-27.81
-33.40
-39.23
-44.83
-49.48
-52.29
-52.34
-48.98
-42.10
-32.29
-20.75
-8.91
1.98
11.12
18.27
23.58
27.28
29.63
30.74
30.78
30.00
28.79
27.56
26.65
26.16
25.92
25.61
24.89
23.61
21.87
19.93
18.10
16.49
14.99
13.24
10.84
7.52
3.34
-1.41
-6.24
-10.71
-14.60
-17.93
-20.97
-24.10
-27.70
-32.02
-37.02
-42.37
-47.40
-51.24
-52.99
-52.00
-48.00
-41.20
-32.31
-22.19
-11.76
-1.70
7.50
15.51
22.06
26.83
29.67
30.61
30.03
28.57
26.96
25.71
24.97
24.51
23.97
23.02
21.57
19.75
17.77
15.81
13.92
12.01
9.96
7.62
4.89
1.70
-1.93
-5.87
-9.98
-14.08
-18.03
-21.83
-25.58
-29.55
-34.05
-39.32
-45.32
-51.62
-57.29
-61.15
-62.08
-59.45
-53.33
-44.42
-33.79
-22.49
-11.28
-0.68
8.97
17.33
24.01
28.78
31.67
33.05
33.51
33.63
33.80
34.11
34.37
34.30
33.66
32.42
30.73
28.87
27.09
25.44
23.78
21.82
19.30
16.08
12.25
8.03
3.62
-0.84
-5.29
-9.68
-13.94
-18.02
-21.95
-25.92
-30.31
-35.49
-41.64
-48.51
-55.32
-60.91
-64.02
-63.66
-59.40
-51.51
-40.86
-28.62
-16.02
-4.02
6.76
16.05
23.72
29.77
34.23
37.27
39.13
40.12
40.57
40.70
40.61
40.22
39.44
38.17
36.46
34.49
32.47
30.60
28.96
27.43
25.78
23.76
21.17
17.99
14.34
10.34
6.11
1.66
-2.97
-7.66
-12.18
-16.28
-19.90
-23.23
-26.76
-31.06
-36.55
-43.20
-50.43
-57.17
-62.10
-64.04
-62.24
-56.59
-47.59
-36.25
-23.78
-11.33
0.22
10.39
18.96
25.94
31.40
35.46
38.27
40.04
41.06
41.66
42.07
42.39
42.55
42.42
41.87
40.94
39.79
38.66
37.67
36.74
35.64
34.04
31.73
28.64
24.95
20.91
16.74
12.55
8.29
3.94
-0.45
-4.73
-8.67
-12.17
-15.29
-18.30
-21.54
-25.30
-29.75
-34.93
-40.80
-47.08
-53.28
-58.53
-61.68
-61.63
-57.67
-49.85
-39.03
-26.57
-13.99
-2.45
7.41
15.42
21.73
26.48
29.82
31.84
32.69
32.62
31.94
30.97
29.90
28.85
27.79
26.65
25.31
23.65
21.57
18.98
15.85
12.26
8.34
4.22
-0.02
-4.42
-9.04
-13.97
-19.22
-24.70
-30.27
-35.83
-41.31
-46.74
-52.19
-57.74
-63.50
-69.59
-76.20
-83.42
-91.14
-98.80
-105.35
-109.39
-109.62
-105.26
-96.30
-83.58
-68.41
-52.29
-36.41
-21.55
-8.07
3.92
14.38
23.38
30.98
37.36
42.77
47.46
51.57
55.16
58.18
60.57
62.35
63.62
64.52
65.17
65.65
65.86
65.66
64.90
63.48
61.48
59.10
56.73
54.82
53.78
53.77
54.52
55.45
55.81
54.98
52.70
49.09
44.44
39.06
33.10
26.63
19.72
12.58
5.57
-0.96
-6.66
-11.33
-14.75
-16.72
-17.05
-15.63
-12.61
-8.42
-3.71
0.86
4.75
7.71
9.75
11.03
11.75
12.01
11.88
11.40
10.67
9.85
9.12
8.52
7.94
7.13
5.83
3.98
1.74
-0.57
-2.65
-4.47
-6.25
-8.43
-11.30
-14.91
-18.95
-22.93
-26.39
-29.12
-31.25
-33.20
-35.50
-38.63
-42.87
-48.13
-53.97
-59.66
-64.24
-66.76
-66.41
-62.77
-55.93
-46.47
-35.24
-23.24
-11.28
0.04
10.33
19.34
26.83
32.64
36.71
39.22
40.56
41.22
41.63
41.91
41.97
41.57
40.59
39.15
37.57
36.16
35.04
34.01
32.67
30.66
27.83
24.35
20.55
16.79
13.27
10.01
6.96
4.03
1.10
-1.96
-5.34
-9.23
-13.71
-18.72
-24.14
-29.78
-35.62
-41.60
-47.57
-53.05
-57.22
-59.05
-57.65
-52.59
-44.15
-33.22
-21.02
-8.75
2.70
12.81
21.34
28.19
33.30
36.68
38.43
38.80
38.22
37.19
36.10
35.23
34.58
34.09
33.59
32.93
32.02
30.88
29.53
28.03
26.41
24.62
22.60
20.27
17.56
14.43
10.87
6.88
2.52
-2.10
-6.85
-11.51
-15.92
-19.91
-23.44
-26.66
-29.83
-33.33
-37.49
-42.40
-47.75
-52.82
-56.57
-57.99
-56.42
-51.74
-44.41
-35.26
-25.17
-14.92
-5.06
4.10
12.30
19.30
24.86
28.78
31.01
31.66
31.05
29.61
27.83
26.08
24.60
23.41
22.36
21.27
19.98
18.47
16.77
15.01
13.20
11.28
9.08
6.44
3.25
-0.40
-4.29
-8.19
-11.83
-15.13
-18.07
-20.87
-23.77
-27.11
-31.22
-36.31
-42.38
-49.05
-55.55
-60.72
-63.33
-62.41
-57.60
-49.25
-38.43
-26.41
-14.46
-3.39
6.43
14.94
22.15
27.93
32.16
34.75
35.86
35.86
35.25
34.43
33.57
32.65
31.54
30.20
28.72
27.28
25.98
24.82
23.63
22.19
20.36
18.12
15.56
12.76
9.76
6.54
3.08
-0.57
-4.37
-8.25
-12.20
-16.20
-20.22
-24.20
-28.12
-32.09
-36.35
-41.18
-46.67
-52.48
-57.71
-61.14
-61.57
-58.33
-51.47
-41.81
-30.55
-18.91
-7.75
2.48
11.63
19.62
26.30
31.47
34.97
36.87
37.47
37.26
36.73
36.21
35.82
35.51
35.17
34.73
34.14
33.38
32.37
31.02
29.22
26.95
24.26
21.26
18.06
14.76
11.35
7.82
4.15
0.33
-3.56
-7.45
-11.28
-15.05
-18.84
-22.89
-27.47
-32.83
-38.99
-45.63
-52.08
-57.40
-60.66
-61.11
-58.39
-52.52
-43.93
-33.30
-21.49
-9.42
2.10
12.39
21.02
27.83
32.89
36.38
38.60
39.89
40.60
41.07
41.53
42.05
42.52
42.72
42.48
41.67
40.37
38.72
36.79
34.65
32.24
29.53
26.52
23.32
20.06
16.85
13.72
10.54
7.20
3.61
-0.20
-4.13
-8.07
-12.01
-16.00
-20.15
-24.56
-29.30
-34.42
-39.89
-45.56
-51.06
-55.77
-58.83
-59.36
-56.78
-50.89
-42.09
-31.17
-19.10
-6.86
4.72
15.00
23.53
30.01
34.37
36.73
37.40
36.78
35.30
33.42
31.50
29.84
28.52
27.49
26.54
25.45
24.09
22.47
20.76
19.11
17.60
16.08
14.28
11.89
8.69
4.77
0.43
-3.85
-7.69
-10.90
-13.62
-16.21
-19.09
-22.62
-26.96
-32.14
-38.04
-44.35
-50.52
-55.72
-58.92
-59.19
-55.99
-49.39
-40.11
-29.22
-17.83
-6.80
3.35
12.31
19.89
25.89
30.13
32.58
33.41
32.91
31.49
29.57
27.53
25.64
24.04
22.72
21.54
20.36
19.04
17.55
15.96
14.37
12.76
10.99
8.84
6.06
2.55
-1.58
-6.05
-10.50
-14.63
-18.30
-21.55
-24.59
-27.68
-31.13
-35.19
-40.04
-45.69
-51.92
-58.17
-63.51
-66.82
-67.09
-63.72
-56.80
-47.09
-35.75
-23.96
-12.56
-1.99
7.61
16.20
23.57
29.45
33.58
35.96
36.97
37.21
37.31
37.63
38.21
38.72
38.81
38.19
36.82
34.88
32.61
30.21
27.77
25.23
22.50
19.54
16.36
12.98
9.47
5.81
1.93
-2.22
-6.65
-11.21
-15.67
-19.78
-23.44
-26.80
-30.25
-34.33
-39.41
-45.46
-51.96
-57.99
-62.37
-64.13
-62.66
-57.87
-50.13
-40.12
-28.65
-16.62
-4.85
5.99
15.46
23.39
29.77
34.67
38.17
40.26
41.02
40.64
39.50
38.04
36.63
35.49
34.59
33.82
33.03
32.17
31.19
30.04
28.58
26.70
24.33
21.56
18.58
15.64
12.89
10.37
7.93
5.35
2.40
-1.07
-5.07
-9.46
-14.03
-18.60
-23.14
-27.75
-32.70
-38.30
-44.65
-51.45
-57.97
-63.13
-65.75
-64.95
-60.33
-52.15
-41.26
-28.83
-16.09
-4.06
6.63
15.68
23.10
29.06
33.72
37.19
39.55
40.90
41.38
41.24
40.75
40.10
39.39
38.64
37.86
37.07
36.29
35.48
34.49
33.16
31.35
29.04
26.42
23.73
21.17
18.73
16.19
13.21
9.51
4.99
-0.13
-5.46
-10.49
-14.82
-18.27
-20.96
-23.34
-26.01
-29.62
-34.56
-40.83
-47.83
-54.54
-59.70
-62.23
-61.38
-57.00
-49.33
-39.01
-26.83
-13.74
-0.74
11.19
21.20
28.80
33.93
36.91
38.33
38.75
38.59
38.03
37.15
36.05
34.95
34.13
33.81
34.00
34.44
34.65
34.14
32.68
30.36
27.55
24.70
22.05
19.53
16.82
13.54
9.55
5.01
0.31
-4.15
-8.15
-11.74
-15.17
-18.65
-22.25
-25.97
-29.80
-33.87
-38.41
-43.59
-49.20
-54.62
-58.82
-60.66
-59.30
-54.40
-46.24
-35.61
-23.62
-11.37
0.19
10.40
18.88
25.48
30.27
33.31
34.77
34.78
33.60
31.62
29.34
27.24
25.61
24.46
23.60
22.73
21.63
20.28
18.78
17.29
15.88
14.51
12.98
11.05
8.53
5.31
1.42
-2.99
-7.71
-12.50
-17.15
-21.50
-25.50
-29.24
-32.95
-36.97
-41.59
-46.82
-52.22
-56.87
-59.66
-59.64
-56.32
-49.86
-40.94
-30.46
-19.27
-8.05
2.66
12.39
20.67
27.13
31.55
34.01
34.82
34.42
33.27
31.77
30.25
28.90
27.82
27.01
26.31
25.47
24.29
22.64
20.58
18.30
15.97
13.62
11.09
8.07
4.33
-0.14
-5.09
-10.08
-14.68
-18.64
-22.00
-25.04
-28.16
-31.74
-36.08
-41.35
-47.55
-54.39
-61.22
-67.00
-70.51
-70.67
-66.87
-59.29
-48.74
-36.48
-23.79
-11.64
-0.58
9.20
17.68
24.83
30.53
34.67
37.24
38.46
38.69
38.39
37.96
37.61
37.34
37.01
36.40
35.34
33.79
31.86
29.71
27.52
25.32
23.00
20.39
17.25
13.47
9.08
4.25
-0.79
-5.81
-10.64
-15.19
-19.45
-23.43
-27.33
-31.42
-36.08
-41.68
-48.32
-55.62
-62.75
-68.50
-71.62
-71.26
-67.16
-59.72
-49.76
-38.24
-26.00
-13.61
-1.48
10.00
20.40
29.31
36.43
41.73
45.47
48.02
49.72
50.77
51.16
50.80
49.66
47.89
45.78
43.71
41.98
40.65
39.55
38.36
36.73
34.48
31.55
28.09
24.24
20.10
15.68
10.93
5.87
0.67
-4.39
-9.06
-13.19
-16.92
-20.56
-24.49
-29.01
-34.27
-40.26
-46.86
-53.82
-60.68
-66.72
-70.97
-72.43
-70.31
-64.35
-54.90
-42.85
-29.40
-15.71
-2.68
9.06
19.22
27.67
34.41
39.53
43.17
45.56
47.00
47.83
48.32
48.63
48.72
48.47
47.69
46.37
44.70
43.04
41.69
40.78
40.11
39.18
37.51
34.78
31.10
26.87
22.68
18.99
15.90
13.20
10.41
7.09
3.05
-1.65
-6.66
-11.57
-16.11
-20.25
-24.12
-27.99
-32.09
-36.65
-41.82
-47.69
-54.17
-60.80
-66.74
-70.84
-71.97
-69.29
-62.61
-52.43
-39.76
-25.81
-11.76
1.46
13.23
23.17
31.08
36.91
40.76
42.88
43.64
43.53
43.01
42.42
41.93
41.52
41.09
40.55
39.90
39.25
38.74
38.45
38.29
38.10
37.62
36.58
34.89
32.59
29.84
26.83
23.78
20.73
17.66
14.48
11.06
7.34
3.29
-1.03
-5.53
-10.06
-14.46
-18.61
-22.50
-26.29
-30.19
-34.51
-39.45
-45.09
-51.24
-57.43
-62.93
-66.79
-68.08
-66.07
-60.52
-51.71
-40.43
-27.79
-14.88
-2.64
8.33
17.66
25.24
31.03
35.07
37.43
38.22
37.70
36.25
34.39
32.65
31.41
30.75
30.45
30.15
29.55
28.58
27.38
26.14
24.96
23.70
22.09
19.87
17.01
13.65
10.05
6.41
2.77
-0.96
-4.82
-8.80
-12.72
-16.42
-19.84
-23.10
-26.48
-30.32
-34.86
-40.18
-46.11
-52.16
-57.56
-61.42
-62.88
-61.32
-56.58
-48.93
-39.02
-27.72
-15.95
-4.54
5.83
14.62
21.56
26.53
29.66
31.17
31.42
30.77
29.61
28.31
27.16
26.38
26.03
26.07
26.33
26.65
26.81
26.63
25.97
24.74
22.93
20.63
18.00
15.18
12.17
8.87
5.12
0.85
-3.83
-8.62
-13.22
-17.41
-21.13
-24.55
-27.83
-31.20
-34.89
-39.11
-44.03
-49.59
-55.37
-60.48
-63.81
-64.25
-61.15
-54.51
-45.05
-33.91
-22.41
-11.56
-1.92
6.48
13.89
20.55
26.46
31.34
34.73
36.40
36.43
35.31
33.71
32.20
31.07
30.34
29.89
29.61
29.50
29.52
29.58
29.35
28.45
26.56
23.58
19.70
15.35
10.98
6.87
3.14
-0.31
-3.65
-6.99
-10.38
-13.82
-17.27
-20.74
-24.19
-27.64
-31.17
-35.05
-39.61
-45.14
-51.48
-57.89
-63.12
-65.76
-64.74
-59.77
-51.32
-40.39
-28.18
-15.67
-3.58
7.60
17.47
25.66
31.87
36.02
38.34
39.30
39.45
39.26
38.92
38.43
37.68
36.60
35.30
34.04
33.08
32.53
32.26
31.87
30.98
29.35
26.98
24.11
21.00
17.82
14.58
11.18
7.55
3.77
0.01
-3.55
-6.83
-9.85
-12.79
-15.80
-18.96
-22.32
-25.97
-30.11
-34.95
-40.56
-46.58
-52.19
-56.19
-57.46
-55.30
-49.68
-41.20
-30.88
-19.69
-8.39
2.52
12.73
21.92
29.74
35.81
39.87
41.97
42.41
41.75
40.60
39.47
38.63
38.09
37.70
37.21
36.44
35.28
33.68
31.69
29.39
26.90
24.33
21.81
19.35
16.91
14.33
11.46
8.20
4.52
0.55
-3.60
-7.71
-11.61
-15.14
-18.21
-20.90
-23.46
-26.39
-30.24
-35.38
-41.72
-48.58
-54.80
-59.04
-60.23
-57.80
-51.93
-43.25
-32.69
-21.18
-9.56
1.46
11.33
19.62
26.12
30.81
33.79
35.30
35.52
34.69
33.10
31.08
29.06
27.36
26.20
25.52
25.08
24.57
23.70
22.37
20.58
18.47
16.15
13.65
10.88
7.72
4.05
-0.15
-4.75
-9.49
-14.08
-18.27
-21.95
-25.25
-28.43
-31.90
-36.00
-40.91
-46.46
-52.17
-57.21
-60.71
-61.85
-60.08
-55.25
-47.56
-37.54
-25.99
-13.79
-1.90
8.87
17.94
25.00
30.06
33.30
34.99
35.44
34.96
33.88
32.53
31.17
29.97
28.92
27.86
26.61
24.98
22.96
20.68
18.31
15.98
13.66
11.16
8.20
4.63
0.46
-4.05
-8.50
-12.62
-16.35
-19.90
-23.57
-27.56
-31.94
-36.63
-41.59
-46.94
-52.75
-58.90
-64.82
-69.49
-71.71
-70.52
-65.55
-57.15
-46.23
-33.95
-21.33
-9.17
2.05
12.00
20.45
27.22
32.23
35.55
37.41
38.22
38.37
38.18
37.81
37.24
36.39
35.19
33.65
31.86
29.94
28.00
26.03
24.03
21.94
19.71
17.29
14.59
11.45
7.77
3.58
-0.92
-5.41
-9.66
-13.62
-17.48
-21.65
-26.47
-32.15
-38.66
-45.81
-53.29
-60.69
-67.46
-72.83
-75.94
-75.92
-72.19
-64.71
-54.05
-41.15
-27.22
-13.34
-0.29
11.45
21.62
30.06
36.66
41.37
44.37
45.97
46.68
46.97
47.10
47.06
46.64
45.62
43.98
41.92
39.84
38.04
36.56
35.15
33.45
31.16
28.17
24.64
20.83
16.93
12.97
8.78
4.19
-0.84
-6.11
-11.28
-15.97
-20.07
-23.78
-27.53
-31.89
-37.31
-43.97
-51.63
-59.64
-66.94
-72.31
-74.63
-73.13
-67.55
-58.26
-46.10
-32.20
-17.72
-3.69
9.06
20.06
29.10
36.23
41.65
45.64
48.46
50.24
51.09
51.11
50.47
49.38
48.03
46.63
45.28
44.05
42.93
41.88
40.72
39.22
37.07
34.10
30.36
26.17
22.05
18.42
15.52
13.20
11.07
8.70
5.73
2.10
-2.08
-6.52
-10.99
-15.32
-19.54
-23.82
-28.47
-33.83
-40.17
-47.51
-55.39
-62.90
-68.72
-71.43
-69.95
-63.83
-53.50
-40.11
-25.18
-10.23
3.60
15.61
25.50
33.18
38.68
42.13
43.81
44.16
43.71
42.96
42.22
41.59
40.93
40.12
39.07
37.87
36.68
35.60
34.64
33.58
32.13
30.04
27.19
23.71
19.84
15.80
11.71
7.51
3.10
-1.53
-6.27
-10.91
-15.21
-19.09
-22.61
-26.02
-29.65
-33.89
-39.01
-45.05
-51.66
-58.03
-63.00
-65.35
-64.20
-59.30
-51.09
-40.44
-28.40
-15.91
-3.67
7.79
18.02
26.56
33.07
37.44
39.80
40.51
39.98
38.64
36.83
34.83
32.86
31.08
29.59
28.43
27.60
26.99
26.40
25.56
24.16
22.02
19.19
15.87
12.38
8.88
5.31
1.48
-2.82
-7.57
-12.52
-17.27
-21.47
-25.03
-28.14
-31.20
-34.67
-38.95
-44.31
-50.70
-57.75
-64.62
-70.11
-72.90
-71.91
-66.59
-57.18
-44.58
-30.22
-15.63
-2.11
9.51
18.91
26.16
31.61
35.60
38.38
40.13
40.95
41.00
40.52
39.76
38.92
38.10
37.28
36.41
35.47
34.45
33.34
32.11
30.66
28.91
26.80
24.37
21.69
18.76
15.56
11.96
7.90
3.39
-1.43
-6.33
-11.10
-15.62
-19.89
-24.01
-28.11
-32.41
-37.22
-42.79
-49.21
-56.10
-62.53
-67.12
-68.48
-65.69
-58.62
-47.97
-35.05
-21.34
-8.10
3.78
13.85
21.91
27.99
32.22
34.88
36.36
37.11
37.58
38.08
38.77
39.52
40.05
40.07
39.44
38.28
36.90
35.69
34.83
34.22
33.50
32.23
30.14
27.26
23.89
20.41
17.05
13.76
10.31
6.44
2.07
-2.60
-7.23
-11.42
-15.00
-18.06
-20.93
-23.98
-27.61
-32.08
-37.48
-43.68
-50.19
-56.17
-60.53
-62.18
-60.36
-54.91
-46.34
-35.63
-23.90
-12.11
-0.93
9.20
17.95
25.01
30.15
33.36
34.91
35.35
35.26
35.05
34.88
34.64
34.22
33.65
33.14
32.90
33.04
33.33
33.33
32.64
31.11
28.95
26.55
24.27
22.22
20.20
17.96
15.26
12.08
8.52
4.74
0.84
-3.11
-7.00
-10.70
-14.09
-17.22
-20.42
-24.24
-29.17
-35.39
-42.42
-49.20
-54.34
-56.50
-54.88
-49.38
-40.58
-29.57
-17.54
-5.53
5.64
15.47
23.62
29.84
34.05
36.31
36.90
36.27
34.92
33.28
31.60
29.99
28.42
26.87
25.35
23.95
22.74
21.74
20.94
20.20
19.38
18.27
16.66
14.38
11.35
7.58
3.24
-1.44
-6.22
-10.84
-15.13
-18.99
-22.43
-25.60
-28.77
-32.29
-36.49
-41.50
-47.12
-52.76
-57.51
-60.38
-60.52
-57.45
-51.19
-42.19
-31.27
-19.40
-7.54
3.52
13.21
21.22
27.37
31.64
34.04
34.70
33.92
32.16
29.97
27.89
26.19
24.89
23.80
22.60
21.15
19.42
17.52
15.56
13.60
11.64
9.63
7.46
4.95
1.95
-1.68
-5.86
-10.37
-14.82
-18.86
-22.33
-25.33
-28.23
-31.49
-35.52
-40.54
-46.45
-52.78
-58.72
-63.16
-65.04
-63.56
-58.52
-50.34
-39.96
-28.44
-16.71
-5.39
5.14
14.56
22.54
28.71
32.88
35.10
35.72
35.30
34.36
33.30
32.26
31.24
30.15
28.89
27.42
25.79
24.06
22.31
20.57
18.75
16.71
14.24
11.21
7.57
3.41
-1.09
-5.77
-10.49
-15.08
-19.37
-23.24
-26.71
-30.03
-33.65
-38.11
-43.77
-50.50
-57.63
-64.00
-68.29
-69.42
-66.85
-60.70
-51.61
-40.62
-28.76
-16.95
-5.84
4.23
13.09
20.71
27.12
32.39
36.55
39.61
41.55
42.41
42.32
41.56
40.45
39.33
38.36
37.50
36.55
35.21
33.27
30.63
27.41
23.89
20.34
16.93
13.69
10.43
6.88
2.78
-1.94
-7.11
-12.39
-17.36
-21.72
-25.41
-28.61
-31.74
-35.29
-39.74
-45.34
-51.91
-58.78
-64.78
-68.56
-68.99
-65.51
-58.29
-48.15
-36.22
-23.61
-11.12
0.77
11.74
21.52
29.83
36.40
41.15
44.21
45.96
46.81
47.12
47.11
46.87
46.35
45.50
44.30
42.79
41.09
39.43
37.99
36.81
35.72
34.33
32.12
28.73
24.20
19.01
13.89
9.49
5.99
3.05
-0.02
-3.79
-8.43
-13.56
-18.55
-22.85
-26.32
-29.24
-32.22
-35.84
-40.51
-46.29
-52.83
-59.40
-64.98
-68.39
-68.57
-64.83
-57.10
-45.99
-32.59
-18.18
-3.97
9.07
20.30
29.39
36.23
40.95
43.82
45.25
45.64
45.44
44.99
44.56
44.13
43.61
42.76
41.47
39.83
38.15
36.75
35.84
35.33
34.85
33.98
32.37
30.02
27.14
24.05
20.92
17.77
14.43
10.69
6.48
1.91
-2.79
-7.36
-11.65
-15.66
-19.58
-23.65
-28.17
-33.38
-39.39
-46.12
-53.16
-59.80
-65.00
-67.69
-66.98
-62.46
-54.25
-43.04
-29.92
-16.13
-2.84
9.04
18.96
26.76
32.51
36.47
38.81
39.73
39.39
38.02
36.01
33.82
31.85
30.32
29.18
28.27
27.37
26.40
25.39
24.43
23.51
22.48
21.12
19.20
16.63
13.48
9.93
6.17
2.33
-1.51
-5.33
-9.07
-12.69
-16.20
-19.64
-23.11
-26.72
-30.57
-34.84
-39.75
-45.45
-51.89
-58.55
-64.47
-68.35
-69.01
-65.80
-58.85
-49.01
-37.45
-25.35
-13.50
-2.34
7.91
17.03
24.70
30.55
34.34
36.14
36.35
35.59
34.45
33.34
32.35
31.37
30.23
28.83
27.21
25.54
23.93
22.43
20.94
19.31
17.40
15.13
12.48
9.50
6.21
2.59
-1.35
-5.59
-10.00
-14.41
-18.62
-22.52
-26.20
-29.96
-34.26
-39.49
-45.76
-52.76
-59.67
-65.38
-68.81
-69.14
-66.05
-59.69
-50.56
-39.37
-26.88
-13.90
-1.24
10.36
20.27
28.13
33.86
37.66
39.87
40.90
41.17
40.98
40.54
39.99
39.39
38.75
38.08
37.34
36.44
35.25
33.61
31.43
28.73
25.64
22.39
19.16
16.00
12.81
9.40
5.58
1.26
-3.49
-8.47
-13.36
-17.91
-21.98
-25.67
-29.25
-33.10
-37.57
-42.94
-49.28
-56.37
-63.68
-70.34
-75.24
-77.19
-75.30
-69.18
-59.16
-46.24
-31.80
-17.25
-3.70
8.18
18.17
26.30
32.70
37.50
40.85
43.01
44.28
45.02
45.51
45.79
45.81
45.43
44.57
43.33
41.90
40.42
38.96
37.39
35.51
33.14
30.25
26.91
23.32
19.63
15.90
12.08
8.00
3.46
-1.61
-7.09
-12.69
-18.03
-22.79
-26.90
-30.52
-34.15
-38.34
-43.56
-49.95
-57.16
-64.34
-70.26
-73.58
-73.23
-68.70
-60.22
-48.64
-35.22
-21.26
-7.79
4.49
15.19
24.16
31.33
36.71
40.47
42.85
44.17
44.72
44.73
44.31
43.52
42.47
41.33
40.31
39.55
39.03
38.60
37.98
36.94
35.33
33.21
30.67
27.87
24.87
21.73
18.42
14.91
11.19
7.25
3.11
-1.18
-5.56
-9.96
-14.34
-18.70
-23.12
-27.75
-32.79
-38.48
-45.00
-52.29
-59.87
-66.76
-71.65
-73.19
-70.47
-63.35
-52.52
-39.28
-25.11
-11.25
1.46
12.65
22.21
30.05
36.10
40.30
42.69
43.55
43.33
42.56
41.70
41.00
40.44
39.89
39.16
38.20
37.08
35.94
34.85
33.74
32.44
30.72
28.50
25.78
22.74
19.59
16.50
13.52
10.57
7.52
4.20
0.56
-3.37
-7.49
-11.65
-15.76
-19.84
-24.05
-28.60
-33.69
-39.41
-45.63
-51.89
-57.43
-61.28
-62.46
-60.22
-54.23
-44.74
-32.57
-18.91
-5.12
7.57
18.28
26.56
32.41
36.07
37.96
38.50
38.06
36.97
35.57
34.19
33.13
32.52
32.33
32.29
32.09
31.46
30.32
28.76
26.99
25.21
23.42
21.47
19.11
16.18
12.67
8.71
4.50
0.24
-4.00
-8.23
-12.44
-16.63
-20.69
-24.60
-28.44
-32.53
-37.29
-42.99
-49.49
-56.11
-61.71
-64.95
-64.73
-60.55
-52.63
-41.85
-29.33
-16.22
-3.38
8.51
18.95
27.49
33.75
37.58
39.11
38.85
37.46
35.62
33.79
32.13
30.57
28.99
27.35
25.70
24.19
22.89
21.75
20.64
19.33
17.65
15.52
12.93
9.87
6.34
2.33
-2.15
-7.00
-12.03
-16.94
-21.52
-25.65
-29.46
-33.22
-37.35
-42.21
-47.99
-54.44
-60.81
-65.91
-68.43
-67.30
-62.07
-53.08
-41.31
-28.05
-14.51
-1.58
10.13
20.25
28.50
34.66
38.66
40.65
41.06
40.43
39.25
37.89
36.47
35.00
33.41
31.68
29.85
27.97
26.11
24.26
22.40
20.43
18.27
15.86
13.12
10.02
6.47
2.47
-1.97
-6.69
-11.52
-16.28
-20.84
-25.21
-29.51
-33.93
-38.73
-44.15
-50.30
-57.07
-63.91
-69.85
-73.62
-74.07
-70.50
-62.92
-52.09
-39.21
-25.53
-12.14
0.28
11.27
20.58
28.03
33.61
37.42
39.76
41.01
41.52
41.56
41.26
40.65
39.77
38.67
37.42
36.07
34.63
33.04
31.24
29.20
26.96
24.58
22.08
19.38
16.34
12.82
8.79
4.31
-0.45
-5.31
-10.11
-14.77
-19.30
-23.81
-28.48
-33.56
-39.29
-45.75
-52.70
-59.57
-65.41
-69.16
-69.88
-67.00
-60.46
-50.70
-38.61
-25.31
-12.00
0.31
10.91
19.55
26.33
31.56
35.58
38.61
40.73
41.96
42.39
42.20
41.63
40.85
39.93
38.84
37.50
35.95
34.31
32.70
31.16
29.55
27.61
25.05
21.73
17.76
13.43
9.08
4.94
1.04
-2.76
-6.68
-10.85
-15.28
-19.85
-24.39
-28.73
-32.81
-36.72
-40.73
-45.17
-50.28
-56.00
-61.81
-66.77
-69.77
-69.87
-66.56
-59.82
-50.02
-37.66
-23.41
-8.02
7.48
21.89
34.04
43.16
49.10
52.34
53.72
54.04
53.76
53.05
51.90
50.40
48.80
47.45
46.53
46.02
45.62
44.95
43.65
41.65
39.05
36.09
33.03
30.00
26.97
23.80
20.33
16.42
12.07
7.40
2.58
-2.18
-6.73
-10.98
-14.95
-18.71
-22.44
-26.36
-30.77
-35.92
-41.83
-48.14
-54.05
-58.46
-60.22
-58.49
-52.97
-43.94
-32.20
-18.84
-5.00
8.29
20.19
30.16
37.95
43.52
47.01
48.69
48.86
47.83
45.93
43.46
40.77
38.14
35.80
33.90
32.42
31.23
30.12
28.78
26.98
24.60
21.70
18.42
14.97
11.47
7.95
4.34
0.61
-3.25
-7.18
-11.13
-15.05
-18.92
-22.76
-26.56
-30.37
-34.35
-38.77
-43.95
-49.95
-56.41
-62.44
-66.74
-68.02
-65.35
-58.56
-48.21
-35.44
-21.61
-7.98
4.48
15.08
23.42
29.39
33.07
34.82
35.16
34.66
33.80
32.88
32.01
31.18
30.33
29.40
28.37
27.18
25.76
24.10
22.21
20.16
17.88
15.27
12.10
8.22
3.67
-1.25
-6.14
-10.63
-14.58
-18.14
-21.63
-25.45
-29.93
-35.28
-41.59
-48.73
-56.27
-63.45
-69.18
-72.31
-71.97
-67.78
-60.05
-49.65
-37.69
-25.27
-13.22
-2.04
7.97
16.58
23.58
28.80
32.22
33.97
34.39
33.91
32.98
31.91
30.90
30.06
29.34
28.66
27.90
26.96
25.75
24.25
22.47
20.37
17.92
15.01
11.59
7.65
3.27
-1.39
-6.19
-10.99
-15.71
-20.28
-24.72
-29.14
-33.85
-39.19
-45.45
-52.56
-60.03
-66.85
-71.77
-73.60
-71.64
-65.78
-56.54
-44.85
-31.77
-18.24
-5.03
7.35
18.50
28.09
35.86
41.67
45.57
47.79
48.69
48.70
48.15
47.24
46.04
44.51
42.65
40.49
38.11
35.62
33.08
30.57
28.06
25.53
22.85
19.85
16.37
12.26
7.51
2.24
-3.27
-8.69
-13.70
-18.16
-22.12
-25.83
-29.77
-34.43
-40.27
-47.34
-55.13
-62.52
-68.02
-70.14
-67.91
-61.21
-50.75
-37.88
-24.07
-10.54
1.97
13.14
22.90
31.17
37.80
42.64
45.61
46.91
46.96
46.31
45.49
44.76
44.15
43.38
42.17
40.37
38.08
35.60
33.20
31.03
28.97
26.68
23.79
20.11
15.73
10.97
6.24
1.80
-2.28
-6.11
-9.85
-13.54
-17.18
-20.75
-24.42
-28.55
-33.62
-39.94
-47.39
-55.25
-62.21
-66.77
-67.65
-64.22
-56.64
-45.78
-32.87
-19.18
-5.74
6.72
17.75
27.01
34.28
39.50
42.80
44.56
45.26
45.34
45.10
44.63
43.92
42.96
41.84
40.75
39.81
39.08
38.37
37.41
35.88
33.63
30.69
27.27
23.63
19.97
16.35
12.68
8.78
4.50
-0.14
-4.97
-9.69
-14.04
-17.92
-21.46
-25.02
-29.07
-34.00
-39.93
-46.61
-53.36
-59.20
-63.02
-63.83
-61.00
-54.37
-44.37
-31.85
-18.00
-4.02
8.98
20.18
29.13
35.64
39.76
41.68
41.65
40.04
37.28
33.98
30.76
28.16
26.54
25.88
25.85
25.91
25.51
24.36
22.47
20.17
17.81
15.60
13.43
10.97
7.87
3.93
-0.71
-5.71
-10.67
-15.33
-19.63
-23.69
-27.71
-31.92
-36.52
-41.69
-47.45
-53.57
-59.42
-64.09
-66.56
-65.96
-61.87
-54.40
-44.15
-32.04
-19.08
-6.24
5.64
15.90
24.06
29.86
33.29
34.57
34.18
32.78
31.05
29.56
28.64
28.33
28.38
28.39
27.93
26.71
24.64
21.86
18.69
15.44
12.36
9.49
6.71
3.82
0.65
-2.87
-6.75
-10.87
-15.13
-19.44
-23.72
-27.93
-32.12
-36.47
-41.24
-46.67
-52.77
-59.10
-64.78
-68.63
-69.49
-66.59
-59.80
-49.63
-37.09
-23.40
-9.72
3.02
14.16
23.28
30.23
35.01
37.80
38.95
38.90
38.15
37.14
36.23
35.59
35.22
35.00
34.66
33.99
32.77
31.02
28.91
26.70
24.60
22.60
20.40
17.55
13.68
8.79
3.28
-2.19
-7.01
-10.96
-14.27
-17.53
-21.36
-26.18
-32.09
-38.94
-46.36
-53.85
-60.68
-65.86
-68.31
-67.10
-61.71
-52.32
-39.78
-25.38
-10.60
3.26
15.28
25.03
32.47
37.89
41.66
44.11
45.42
45.71
45.07
43.74
42.07
40.44
39.10
38.11
37.28
36.34
35.09
33.44
31.51
29.48
27.46
25.44
23.24
20.59
17.30
13.29
8.74
3.95
-0.70
-4.96
-8.78
-12.38
-16.19
-20.64
-26.10
-32.65
-40.08
-47.79
-54.92
-60.40
-63.20
-62.50
-57.96
-49.73
-38.51
-25.37
-11.59
1.68
13.51
23.32
30.81
35.99
39.03
40.24
40.00
38.73
36.84
34.72
32.70
31.00
29.68
28.69
27.81
26.81
25.49
23.78
21.72
19.39
16.79
13.85
10.44
6.49
2.08
-2.55
-7.06
-11.11
-14.56
-17.51
-20.23
-23.20
-26.86
-31.59
-37.45
-44.17
-51.03
-56.99
-60.83
-61.48
-58.37
-51.51
-41.56
-29.53
-16.60
-3.80
7.98
18.13
26.15
31.79
34.98
35.98
35.28
33.53
31.37
29.24
27.37
25.82
24.47
23.20
21.85
20.29
18.45
16.38
14.26
12.28
10.57
9.07
7.43
5.21
2.00
-2.29
-7.36
-12.66
-17.62
-21.93
-25.71
-29.42
-33.67
-38.94
-45.37
-52.65
-60.07
-66.60
-71.09
-72.55
-70.28
-64.17
-54.59
-42.45
-28.90
-15.12
-2.10
9.50
19.30
27.22
33.27
37.55
40.16
41.29
41.23
40.35
39.11
37.88
36.90
36.10
35.33
34.35
33.04
31.43
29.66
27.80
25.83
23.56
20.72
17.08
12.60
7.41
1.84
-3.72
-8.98
-13.78
-18.19
-22.42
-26.82
-31.81
-37.77
-44.85
-52.84
-61.01
-68.17
-72.90
-73.97
-70.62
-62.91
-51.60
-38.00
-23.58
-9.60
3.09
14.10
23.38
31.00
37.01
41.40
44.15
45.39
45.44
44.77
43.89
43.07
42.37
41.62
40.60
39.18
37.39
35.37
33.24
31.03
28.70
26.18
23.32
19.98
16.05
11.49
6.41
1.10
-3.97
-8.44
-12.13
-15.20
-18.17
-21.71
-26.46
-32.77
-40.51
-49.09
-57.43
-64.16
-67.93
-67.67
-62.89
-53.84
-41.47
-27.16
-12.39
1.55
13.83
24.03
32.09
38.12
42.29
44.81
45.95
46.04
45.44
44.52
43.53
42.60
41.74
40.91
40.09
39.27
38.45
37.55
36.50
35.14
33.41
31.30
28.87
26.15
23.13
19.66
15.63
10.98
5.84
0.44
-4.89
-9.91
-14.51
-18.79
-23.07
-27.71
-33.10
-39.37
-46.37
-53.51
-59.77
-63.91
-64.73
-61.41
-53.82
-42.56
-28.87
-14.29
-0.21
12.33
22.80
31.03
37.07
41.05
43.11
43.48
42.55
40.88
39.09
37.63
36.68
36.10
35.49
34.49
32.87
30.67
28.07
25.31
22.54
19.75
16.82
13.58
9.88
5.66
0.98
-4.01
-9.04
-13.80
-18.03
-21.70
-25.01
-28.42
-32.53
-37.74
-44.12
-51.20
-58.07
-63.50
-66.35
-65.71
-61.17
-52.91
-41.68
-28.63
-15.05
-2.18
9.06
18.16
24.93
29.46
31.95
32.68
32.04
30.50
28.60
26.83
25.51
24.71
24.26
23.86
23.20
22.10
20.49
18.48
16.25
13.97
11.73
9.44
6.85
3.64
-0.43
-5.39
-10.99
-16.77
-22.24
-27.12
-31.40
-35.44
-39.77
-44.93
-51.21
-58.49
-66.16
-73.24
-78.52
-80.87
-79.50
-74.17
-65.27
-53.72
-40.70
-27.38
-14.71
-3.36
6.31
14.11
19.99
24.03
26.37
27.31
27.26
26.66
25.92
25.32
24.83
24.19
22.94
20.68
17.34
13.24
9.05
5.45
2.79
0.82
-1.20
-4.16
-8.73
-14.96
-22.25
-29.54
-35.62
-39.54
-40.92
-40.33
-39.36
-40.30
-45.32
-55.43
-69.67
-85.01
-97.24
-102.40
-98.00
-83.80
-61.66
-34.81
-7.12
17.61
36.20
46.58
48.44
43.51
35.12
27.05
22.02
20.71
21.79
23.09
23.02
21.52
19.82
19.41
20.97
23.89
26.75
28.32
28.31
27.38
26.54
26.23
25.92
24.48
20.87
14.90
7.42
-0.10
-6.31
-10.60
-13.20
-14.99
-17.05
-20.34
-25.58
-33.09
-42.82
-54.35
-67.14
-80.73
-94.83
-109.16
-122.91
-134.29
-140.39
-137.67
-123.15
-95.73
-57.33
-12.98
30.10
64.32
83.90
86.63
74.27
51.73
24.98
-1.16
-24.39
-44.69
-63.00
-79.45
-92.58
-99.67
-98.13
-86.94
-67.30
-42.15
-15.05
10.98
34.23
54.37
72.22
89.39
107.87
129.63
155.94
186.85
220.87
255.24
286.70
312.49
331.21
343.12
349.74
353.08
354.63
354.73
352.44
345.97
333.43
313.54
286.07
251.80
212.02
168.11
121.03
71.10
18.11
-37.93
-95.88
-152.69
-203.60
-243.10
-266.88
-273.60
-265.57
-247.94
-226.60
-206.15
-188.64
-173.91
-160.85
-148.71
-137.70
-128.55
-121.60
-116.26
-111.17
-104.94
-96.92
-87.53
-78.04
-69.95
-64.23
-60.97
-59.41
-58.43
-57.11
-55.26
-53.39
-52.36
-52.76
-54.35
-56.01
-56.04
-52.92
-45.87
-35.12
-21.82
-7.48
6.46
19.04
29.82
38.73
45.89
51.50
55.79
58.95
61.14
62.45
62.86
62.37
60.96
58.75
55.90
52.65
49.21
45.72
42.23
38.76
35.26
31.73
28.11
24.38
20.50
16.36
11.96
7.29
2.45
-2.40
-7.08
-11.42
-15.40
-19.23
-23.33
-28.30
-34.70
-42.85
-52.47
-62.63
-71.83
-78.32
-80.64
-78.09
-70.99
-60.50
-48.30
-36.00
-24.83
-15.33
-7.47
-0.78
5.35
11.41
17.56
23.64
29.23
33.91
37.40
39.68
40.88
41.18
40.71
39.56
37.84
35.79
33.68
31.74
30.02
28.40
26.64
24.54
22.01
18.99
15.49
11.51
7.05
2.21
-2.84
-7.82
-12.46
-16.52
-19.96
-22.88
-25.58
-28.51
-32.15
-36.85
-42.59
-48.87
-54.71
-58.89
-60.20
-57.83
-51.58
-41.86
-29.63
-16.06
-2.28
10.79
22.57
32.72
41.13
47.78
52.76
56.16
58.12
58.84
58.55
57.55
56.07
54.34
52.48
50.56
48.59
46.61
44.68
42.84
41.05
39.13
36.87
34.06
30.72
27.02
23.24
19.58
16.01
12.39
8.53
4.42
0.17
-4.01
-7.96
-11.71
-15.41
-19.25
-23.39
-28.00
-33.22
-39.13
-45.58
-52.01
-57.41
-60.52
-60.23
-55.96
-47.86
-36.74
-23.78
-10.19
3.08
15.32
26.07
34.98
41.87
46.67
49.53
50.78
50.84
50.10
48.85
47.26
45.40
43.41
41.46
39.70
38.23
37.00
35.82
34.43
32.66
30.44
27.78
24.78
21.45
17.80
13.79
9.44
4.86
0.20
-4.34
-8.66
-12.70
-16.57
-20.46
-24.69
-29.61
-35.51
-42.44
-50.09
-57.74
-64.31
-68.63
-69.73
-67.10
-60.85
-51.70
-40.73
-29.17
-18.04
-8.05
0.42
7.24
12.42
16.01
18.08
18.78
18.38
17.27
15.92
14.76
14.02
13.74
13.69
13.56
13.06
12.09
10.71
9.16
7.66
6.25
4.77
2.86
0.19
-3.34
-7.40
-11.31
-14.32
-15.92
-16.12
-15.48
-14.89
-15.21
-16.94
-20.17
-24.61
-29.71
-34.70
-38.53
-39.89
-37.45
-30.16
-17.78
-1.17
17.85
36.96
53.92
67.08
75.53
78.99
77.57
71.57
61.48
48.02
32.12
14.83
-2.91
-20.38
-37.18
-53.15
-68.17
-82.02
-94.22
-104.04
-110.50
-112.57
-109.43
-100.84
-87.42
-70.79
-53.26
-37.26
-24.69
-16.42
-12.11
-10.59
-10.31
-9.99
-8.86
-6.85
-4.41
-2.28
-1.33
-2.25
-5.40
-10.61
-17.11
-23.71
-29.06
-32.09
-32.22
-29.64
-25.07
-19.59
-14.26
-9.90
-7.04
-5.89
-6.39
-8.25
-10.97
-13.84
-16.12
-17.21
-16.83
-15.17
-12.69
-9.91
-7.06
-3.97
-0.02
5.56
13.32
23.47
35.78
49.74
64.59
79.14
91.58
99.70
101.53
96.53
86.43
74.95
66.47
63.91
67.34
74.00
79.86
81.72
78.62
71.81
63.47
55.22
47.60
40.48
34.12
29.84
29.55
34.59
44.73
57.79
70.51
79.76
83.69
82.10
75.98
66.86
56.16
44.96
34.16
24.48
16.46
10.22
5.27
0.74
-4.21
-9.86
-15.67
-20.55
-23.54
-24.56
-24.57
-25.26
-28.16
-33.91
-41.98
-50.97
-59.42
-66.48
-72.16
-77.12
-82.07
-87.30
-92.55
-97.30
-101.10
-103.73
-105.15
-105.13
-103.12
-98.36
-90.28
-78.91
-65.05
-50.10
-35.55
-22.58
-11.70
-2.81
4.39
10.23
14.73
17.71
18.96
18.43
16.37
13.32
9.97
7.00
4.90
3.87
3.85
4.59
5.77
7.08
8.29
9.15
9.45
9.00
7.69
5.59
2.97
0.18
-2.43
-4.74
-6.89
-9.31
-12.56
-17.06
-22.79
-29.14
-34.86
-38.34
-38.05
-33.14
-23.76
-11.05
3.26
17.40
30.09
40.72
49.17
55.42
59.40
60.91
59.94
56.89
52.58
48.03
44.11
41.22
39.23
37.60
35.68
32.99
29.36
24.93
20.06
15.06
10.10
5.04
-0.41
-6.60
-13.72
-21.67
-30.16
-38.76
-47.26
-55.76
-64.69
-74.58
-85.66
-97.53
-108.92
-117.84
-121.97
-119.30
-108.70
-90.34
-65.72
-37.42
-8.52
17.97
39.69
55.35
64.95
69.58
70.96
70.68
69.69
67.97
64.79
59.22
50.71
39.51
26.70
14.04
3.51
-3.25
-5.35
-2.94
2.86
10.38
17.89
24.13
28.44
30.67
30.89
29.15
25.53
20.27
13.99
7.63
2.25
-1.16
-1.86
0.52
6.03
14.26
24.40
35.18
45.25
53.38
58.82
61.35
61.21
58.89
54.94
49.94
44.46
39.07
34.27
30.38
27.46
25.28
23.39
21.31
18.60
15.03
10.61
5.57
0.25
-5.01
-10.05
-14.92
-19.89
-25.23
-31.11
-37.48
-44.10
-50.69
-57.00
-63.04
-68.89
-74.58
-79.79
-83.79
-85.50
-83.88
-78.37
-69.11
-57.07
-43.68
-30.42
-18.40
-8.14
0.41
7.59
13.73
18.98
23.23
26.20
27.65
27.52
26.02
23.60
20.85
18.29
16.27
14.83
13.77
12.76
11.45
9.65
7.35
4.65
1.67
-1.54
-5.00
-8.81
-12.98
-17.56
-22.55
-28.03
-34.00
-40.25
-46.14
-50.60
-52.44
-50.70
-45.15
-36.35
-25.54
-14.15
-3.43
5.89
13.55
19.55
24.02
27.03
28.64
28.92
28.00
26.13
23.63
20.85
18.07
15.49
13.15
10.93
8.65
6.13
3.32
0.28
-2.88
-6.00
-9.01
-11.92
-14.79
-17.75
-20.98
-24.67
-29.05
-34.29
-40.32
-46.73
-52.65
-56.93
-58.37
-56.08
-49.88
-40.30
-28.47
-15.81
-3.63
7.20
16.26
23.53
29.13
33.27
36.07
37.65
38.18
37.80
36.68
34.96
32.75
30.16
27.39
24.66
22.16
20.05
18.25
16.60
14.83
12.70
10.12
7.15
3.94
0.60
-2.82
-6.40
-10.28
-14.73
-20.04
-26.50
-34.20
-42.84
-51.53
-58.83
-63.01
-62.63
-56.99
-46.48
-32.48
-16.93
-1.79
11.48
22.04
29.61
34.27
36.31
36.14
34.35
31.73
29.16
27.39
26.83
27.33
28.29
28.94
28.59
26.92
24.08
20.44
16.47
12.43
8.44
4.50
0.68
-2.87
-5.93
-8.32
-10.07
-11.39
-12.69
-14.48
-17.28
-21.52
-27.33
-34.38
-41.75
-48.04
-51.67
-51.38
-46.64
-37.84
-26.14
-13.07
-0.10
11.70
21.66
29.50
35.08
38.43
39.71
39.28
37.75
35.79
33.98
32.58
31.58
30.67
29.53
27.96
26.02
23.93
21.95
20.21
18.59
16.78
14.45
11.34
7.50
3.18
-1.16
-5.16
-8.63
-11.66
-14.55
-17.72
-21.56
-26.34
-32.06
-38.38
-44.47
-49.16
-51.16
-49.47
-43.76
-34.58
-23.15
-11.02
0.47
10.49
18.71
25.14
29.86
32.92
34.36
34.37
33.29
31.61
29.76
28.06
26.67
25.54
24.58
23.64
22.60
21.38
19.95
18.34
16.55
14.56
12.27
9.55
6.35
2.80
-0.81
-4.12
-6.90
-9.21
-11.41
-14.04
-17.61
-22.27
-27.65
-32.88
-36.68
-37.83
-35.50
-29.61
-20.80
-10.28
0.63
10.80
19.54
26.55
31.77
35.22
36.90
36.91
35.49
33.13
30.36
27.65
25.23
23.13
21.23
19.40
17.65
16.02
14.56
13.20
11.80
10.10
8.00
5.49
2.78
0.07
-2.50
-4.94
-7.42
-10.18
-13.44
-17.33
-21.80
-26.65
-31.38
-35.26
-37.40
-37.02
-33.68
-27.46
-19.05
-9.51
-0.02
8.42
15.18
20.01
22.96
24.27
24.26
23.30
21.74
19.89
18.03
16.28
14.72
13.38
12.27
11.39
10.66
9.88
8.75
7.01
4.49
1.25
-2.51
-6.53
-10.57
-14.53
-18.33
-21.88
-25.12
-28.03
-30.72
-33.41
-36.23
-38.99
-41.15
-41.90
-40.45
-36.40
-29.85
-21.43
-12.04
-2.56
6.29
14.03
20.37
25.11
28.08
29.17
28.42
26.04
22.53
18.57
14.90
12.09
10.36
9.57
9.31
9.12
8.60
7.54
5.94
3.79
1.15
-1.91
-5.27
-8.77
-12.19
-15.35
-18.21
-20.92
-23.80
-27.20
-31.30
-35.92
-40.35
-43.52
-44.25
-41.67
-35.61
-26.73
-16.22
-5.52
4.21
12.29
18.48
22.86
25.52
26.59
26.23
24.74
22.58
20.27
18.22
16.63
15.41
14.34
13.17
11.79
10.24
8.67
7.20
5.82
4.39
2.63
0.33
-2.53
-5.84
-9.26
-12.52
-15.53
-18.47
-21.70
-25.62
-30.34
-35.51
-40.29
-43.59
-44.32
-41.81
-36.05
-27.65
-17.71
-7.44
2.14
10.36
16.90
21.65
24.55
25.61
24.94
22.96
20.25
17.52
15.36
14.01
13.36
13.02
12.62
11.93
10.97
9.84
8.61
7.18
5.29
2.72
-0.52
-4.18
-7.77
-10.87
-13.29
-15.21
-17.05
-19.36
-22.53
-26.69
-31.70
-37.14
-42.34
-46.36
-48.17
-46.90
-42.12
-34.12
-23.80
-12.54
-1.66
7.85
15.52
21.33
25.46
28.11
29.40
29.44
28.44
26.78
24.89
23.21
21.99
21.24
20.75
20.20
19.29
17.93
16.24
14.45
12.75
11.09
9.23
6.85
3.76
0.11
-3.66
-7.02
-9.66
-11.65
-13.42
-15.61
-18.74
-22.98
-28.07
-33.32
-37.79
-40.47
-40.55
-37.63
-31.87
-23.92
-14.76
-5.37
3.46
11.26
17.75
22.75
26.12
27.76
27.77
26.47
24.41
22.15
20.19
18.77
17.92
17.47
17.24
17.00
16.63
16.00
15.06
13.71
11.96
9.84
7.47
4.99
2.56
0.27
-1.85
-3.90
-6.06
-8.60
-11.76
-15.73
-20.59
-26.14
-31.95
-37.25
-41.06
-42.42
-40.62
-35.51
-27.56
-17.77
-7.38
2.46
10.96
17.68
22.52
25.51
26.82
26.71
25.55
23.82
21.98
20.34
19.03
17.95
16.93
15.81
14.52
13.17
11.90
10.80
9.77
8.56
6.87
4.47
1.36
-2.20
-5.84
-9.17
-12.02
-14.45
-16.77
-19.44
-22.92
-27.44
-32.87
-38.60
-43.56
-46.47
-46.30
-42.50
-35.33
-25.73
-14.97
-4.36
5.18
13.12
19.29
23.68
26.34
27.33
26.85
25.29
23.14
20.92
18.91
17.19
15.63
14.09
12.57
11.22
10.18
9.45
8.81
7.88
6.29
3.93
0.91
-2.47
-5.90
-9.24
-12.53
-15.98
-19.84
-24.30
-29.45
-35.21
-41.18
-46.70
-50.82
-52.53
-51.01
-45.97
-37.74
-27.20
-15.58
-4.07
6.31
14.92
21.46
25.91
28.43
29.30
28.86
27.44
25.37
22.93
20.39
17.95
15.76
13.85
12.13
10.43
8.55
6.35
3.76
0.78
-2.52
-6.08
-9.82
-13.64
-17.48
-21.32
-25.25
-29.42
-34.10
-39.55
-45.91
-52.92
-59.88
-65.67
-68.93
-68.54
-63.93
-55.34
-43.74
-30.49
-16.98
-4.27
7.00
16.50
24.08
29.61
33.09
34.66
34.74
33.84
32.57
31.35
30.39
29.61
28.83
27.82
26.44
24.69
22.67
20.44
18.00
15.21
11.89
7.92
3.31
-1.72
-6.82
-11.67
-16.14
-20.47
-25.23
-31.04
-38.28
-46.64
-55.04
-61.78
-65.12
-63.84
-57.72
-47.63
-35.08
-21.72
-8.83
2.86
13.11
21.82
28.92
34.31
37.98
40.12
41.16
41.58
41.73
41.74
41.51
40.90
39.77
38.16
36.26
34.26
32.32
30.45
28.51
26.18
23.17
19.28
14.54
9.24
3.81
-1.35
-6.01
-10.25
-14.44
-19.08
-24.67
-31.51
-39.42
-47.71
-55.15
-60.19
-61.40
-57.95
-49.89
-38.22
-24.52
-10.48
2.62
14.08
23.73
31.73
38.22
43.25
46.80
48.87
49.64
49.47
48.82
48.07
47.44
46.92
46.35
45.55
44.40
42.88
41.06
38.99
36.70
34.20
31.44
28.33
24.84
20.96
16.76
12.34
7.86
3.40
-1.01
-5.42
-9.89
-14.51
-19.37
-24.64
-30.52
-37.17
-44.46
-51.82
-58.19
-62.23
-62.76
-59.10
-51.35
-40.26
-27.03
-12.87
1.13
14.17
25.64
35.07
42.17
46.87
49.47
50.53
50.74
50.69
50.71
50.81
50.79
50.42
49.58
48.34
46.87
45.39
43.97
42.55
40.98
39.04
36.61
33.63
30.22
26.58
22.94
19.46
16.17
12.94
9.52
5.67
1.30
-3.51
-8.53
-13.42
-17.97
-22.13
-26.00
-29.89
-34.18
-39.30
-45.49
-52.60
-59.94
-66.27
-70.05
-69.90
-65.11
-55.86
-43.23
-28.77
-14.04
-0.19
12.11
22.56
31.02
37.35
41.45
43.41
43.51
42.30
40.44
38.51
36.93
35.85
35.12
34.51
33.71
32.52
30.87
28.83
26.54
24.13
21.62
18.97
16.05
12.69
8.83
4.44
-0.34
-5.27
-10.03
-14.40
-18.23
-21.58
-24.69
-27.88
-31.55
-36.04
-41.52
-47.85
-54.47
-60.30
-63.93
-64.07
-59.92
-51.55
-39.88
-26.45
-12.86
-0.40
10.28
19.02
26.01
31.48
35.58
38.38
39.91
40.38
40.06
39.31
38.44
37.61
36.82
35.96
34.89
33.55
31.94
30.10
28.10
25.97
23.70
21.28
18.61
15.61
12.15
8.13
3.59
-1.36
-6.46
-11.46
-16.22
-20.70
-25.04
-29.33
-33.67
-38.13
-42.82
-47.93
-53.61
-59.72
-65.67
-70.30
-72.19
-70.09
-63.38
-52.43
-38.39
-22.95
-7.70
6.20
18.15
28.01
35.88
41.86
46.02
48.42
49.21
48.71
47.39
45.73
44.06
42.53
41.11
39.70
38.21
36.67
35.11
33.50
31.72
29.56
26.82
23.48
19.69
15.75
11.93
8.37
5.00
1.61
-2.09
-6.27
-10.94
-15.91
-20.85
-25.38
-29.26
-32.45
-35.23
-38.13
-41.74
-46.44
-52.10
-57.92
-62.63
-64.81
-63.36
-57.87
-48.77
-37.10
-24.25
-11.53
0.02
9.77
17.44
23.12
27.10
29.82
31.79
33.33
34.55
35.30
35.31
34.32
32.30
29.42
26.04
22.60
19.47
16.92
15.07
13.88
13.20
12.73
12.21
11.43
10.30
8.90
7.42
6.01
4.75
3.57
2.30
0.79
-1.05
-3.19
-5.52
-7.87
-10.08
-12.13
-14.14
-16.35
-19.04
-22.36
-26.09
-29.61
-31.95
-32.07
-29.33
-23.66
-15.70
-6.54
2.64
10.89
17.76
23.17
27.23
30.07
31.74
32.24
31.65
30.20
28.32
26.52
25.20
24.55
24.47
24.60
24.45
23.68
22.20
20.21
18.07
16.05
14.20
12.35
10.24
7.74
4.93
2.07
-0.58
-2.93
-5.02
-7.06
-9.22
-11.60
-14.21
-17.06
-20.24
-23.93
-28.32
-33.46
-39.11
-44.65
-49.12
-51.47
-50.83
-46.86
-39.86
-30.68
-20.43
-10.14
-0.56
7.88
14.97
20.55
24.42
26.41
26.53
25.06
22.64
20.02
17.90
16.64
16.21
16.17
16.02
15.33
14.01
12.24
10.30
8.40
6.49
4.38
1.83
-1.29
-4.90
-8.83
-12.86
-16.82
-20.61
-24.16
-27.48
-30.62
-33.75
-37.14
-41.07
-45.66
-50.65
-55.37
-58.80
-59.86
-57.79
-52.39
-44.05
-33.64
-22.17
-10.53
0.69
11.19
20.80
29.32
36.46
41.93
45.52
47.25
47.40
46.39
44.68
42.62
40.40
38.01
35.39
32.47
29.20
25.62
21.83
17.97
14.16
10.53
7.08
3.76
0.37
-3.28
-7.27
-11.53
-15.79
-19.72
-23.09
-25.84
-28.18
-30.52
-33.29
-36.90
-41.50
-46.92
-52.58
-57.54
-60.69
-60.98
-57.82
-51.19
-41.74
-30.54
-18.79
-7.50
2.69
11.44
18.67
24.34
28.44
30.99
32.10
32.03
31.16
29.92
28.65
27.52
26.50
25.41
24.06
22.33
20.25
17.99
15.74
13.69
11.87
10.21
8.49
6.46
3.91
0.78
-2.85
-6.73
-10.59
-14.19
-17.42
-20.35
-23.18
-26.20
-29.71
-33.94
-38.91
-44.33
-49.56
-53.64
-55.57
-54.52
-50.13
-42.64
-32.78
-21.64
-10.32
0.27
9.58
17.34
23.53
28.19
31.39
33.20
33.76
33.26
32.00
30.35
28.64
27.16
26.05
25.31
24.86
24.47
23.92
23.00
21.61
19.76
17.56
15.20
12.79
10.38
7.92
5.28
2.37
-0.91
-4.57
-8.53
-12.63
-16.68
-20.44
-23.80
-26.84
-29.81
-33.18
-37.31
-42.28
-47.70
-52.64
-55.87
-56.27
-53.20
-46.77
-37.71
-27.10
-16.05
-5.41
4.29
12.71
19.58
24.72
27.99
29.48
29.47
28.41
26.75
24.92
23.23
21.86
20.86
20.18
19.63
19.03
18.22
17.15
15.90
14.55
13.17
11.65
9.82
7.45
4.51
1.10
-2.50
-5.96
-9.10
-11.97
-14.81
-17.97
-21.80
-26.45
-31.88
-37.78
-43.57
-48.47
-51.53
-51.94
-49.17
-43.19
-34.52
-24.05
-12.87
-1.93
8.07
16.72
23.78
29.13
32.66
34.36
34.39
33.13
31.19
29.18
27.57
26.53
25.87
25.24
24.27
22.85
21.04
19.08
17.13
15.19
13.07
10.48
7.21
3.18
-1.45
-6.35
-11.15
-15.53
-19.34
-22.66
-25.79
-29.17
-33.27
-38.38
-44.48
-51.15
-57.56
-62.54
-64.91
-63.72
-58.61
-49.94
-38.66
-26.08
-13.39
-1.49
9.15
18.36
26.07
32.26
36.84
39.86
41.53
42.23
42.49
42.72
43.11
43.53
43.62
42.97
41.38
38.91
35.94
32.93
30.20
27.77
25.41
22.74
19.50
15.59
11.18
6.53
1.94
-2.36
-6.29
-9.95
-13.56
-17.47
-22.09
-27.77
-34.61
-42.33
-50.12
-56.74
-60.75
-61.00
-56.94
-48.90
-37.98
-25.65
-13.32
-1.97
7.96
16.37
23.30
28.72
32.57
34.87
35.83
35.85
35.39
34.82
34.35
33.96
33.49
32.72
31.49
29.76
27.68
25.55
23.75
22.45
21.58
20.77
19.47
17.22
13.86
9.59
4.86
0.18
-4.08
-7.81
-11.13
-14.34
-17.90
-22.27
-27.80
-34.55
-42.04
-49.28
-54.82
-57.25
-55.54
-49.43
-39.59
-27.30
-14.13
-1.47
9.76
19.13
26.61
32.36
36.56
39.41
41.10
41.80
41.74
41.13
40.15
38.95
37.61
36.12
34.44
32.49
30.26
27.83
25.36
23.09
21.09
19.25
17.24
14.70
11.36
7.27
2.74
-1.76
-5.86
-9.37
-12.38
-15.16
-18.01
-21.21
-25.04
-29.65
-35.05
-40.94
-46.58
-50.83
-52.41
-50.39
-44.52
-35.40
-24.26
-12.55
-1.50
8.16
16.13
22.32
26.65
29.00
29.40
28.17
25.98
23.68
21.97
21.15
21.03
21.05
20.67
19.59
17.91
15.96
14.14
12.67
11.46
10.22
8.54
6.13
2.88
-1.09
-5.52
-10.06
-14.45
-18.54
-22.38
-26.15
-30.17
-34.71
-39.81
-45.18
-50.06
-53.37
-53.92
-50.83
-43.84
-33.45
-20.78
-7.21
5.96
17.80
27.76
35.63
41.31
44.76
45.97
45.12
42.58
38.95
34.99
31.36
28.50
26.51
25.16
24.07
22.88
21.43
19.72
17.76
15.43
12.44
8.45
3.31
-2.77
-9.26
-15.43
-20.79
-25.27
-29.32
-33.63
-39.00
-45.91
-54.48
-64.33
-74.65
-84.21
-91.58
-95.34
-94.47
-88.69
-78.57
-65.41
-50.85
-36.36
-22.90
-10.83
-0.03
9.67
18.26
25.47
30.93
34.50
36.47
37.52
38.43
39.71
41.35
42.87
43.61
43.14
41.43
38.86
35.97
33.09
30.25
27.17
23.53
19.12
14.02
8.54
3.14
-1.75
-5.82
-9.01
-11.56
-13.91
-16.56
-19.94
-24.10
-28.70
-32.92
-35.68
-35.89
-32.85
-26.45
-17.18
-6.01
5.94
17.65
28.44
37.91
45.91
52.39
57.32
60.69
62.57
63.21
62.97
62.29
61.54
60.91
60.37
59.73
58.71
57.11
54.87
52.05
48.85
45.45
41.91
38.17
34.06
29.34
23.87
17.66
10.95
4.11
-2.43
-8.39
-13.72
-18.64
-23.50
-28.66
-34.36
-40.68
-47.48
-54.33
-60.49
-64.96
-66.65
-64.68
-58.83
-49.62
-38.30
-26.40
-15.22
-5.55
2.43
8.92
14.10
18.04
20.60
21.77
21.68
20.82
19.75
18.97
18.68
18.75
18.82
18.55
17.73
16.43
14.83
13.22
11.78
10.59
9.55
8.51
7.22
5.56
3.42
0.80
-2.19
-5.44
-8.83
-12.30
-15.87
-19.55
-23.25
-26.84
-30.22
-33.43
-36.70
-40.19
-43.70
-46.52
-47.55
-45.72
-40.50
-32.22
-21.99
-11.30
-1.40
7.06
14.03
19.73
24.36
27.85
29.94
30.47
29.61
27.87
26.00
24.64
24.05
24.03
24.07
23.67
22.59
20.91
18.99
17.16
15.55
14.04
12.32
10.11
7.23
3.75
-0.10
-3.98
-7.58
-10.73
-13.46
-15.95
-18.48
-21.31
-24.62
-28.53
-33.04
-38.03
-43.22
-48.06
-51.73
-53.29
-51.96
-47.38
-39.78
-30.01
-19.19
-8.49
1.17
9.27
15.53
19.94
22.47
23.21
22.36
20.42
18.15
16.40
15.81
16.46
17.86
19.12
19.45
18.45
16.39
13.85
11.49
9.61
8.08
6.48
4.40
1.68
-1.56
-5.03
-8.41
-11.60
-14.61
-17.64
-20.87
-24.45
-28.40
-32.61
-36.81
-40.52
-43.10
-43.85
-42.23
-38.00
-31.41
-23.10
-13.97
-4.93
3.42
10.70
16.79
21.61
25.07
27.07
27.64
27.03
25.68
24.10
22.66
21.54
20.68
19.97
19.34
18.83
18.54
18.42
18.29
17.70
16.20
13.45
9.36
4.18
-1.58
-7.33
-12.55
-16.94
-20.49
-23.46
-26.26
-29.31
-32.99
-37.50
-42.71
-48.12
-52.84
-55.69
-55.60
-51.89
-44.61
-34.51
-22.84
-10.93
0.18
9.87
17.92
24.27
28.90
31.75
32.85
32.36
30.66
28.31
25.85
23.70
21.99
20.59
19.16
17.42
15.27
12.95
10.85
9.32
8.36
7.63
6.53
4.52
1.40
-2.65
-7.10
-11.44
-15.34
-18.78
-21.97
-25.25
-28.97
-33.48
-39.01
-45.52
-52.50
-58.93
-63.46
-64.77
-62.09
-55.49
-45.91
-34.83
-23.76
-13.83
-5.59
0.88
5.71
9.06
10.93
11.23
9.96
7.25
3.52
-0.68
-4.77
-8.36
-11.37
-14.05
-16.85
-20.12
-23.98
-28.20
-32.29
-35.68
-38.01
-39.17
-39.31
-38.57
-36.88
-33.89
-29.09
-22.08
-12.84
-1.87
9.86
21.04
30.28
36.27
37.99
34.99
27.70
17.62
7.13
-1.19
-5.40
-5.17
-1.97
1.52
2.50
-0.67
-7.83
-17.24
-26.48
-33.40
-36.84
-36.60
-33.01
-26.58
-17.66
-6.69
5.66
18.40
30.41
40.77
49.01
55.20
59.77
63.24
66.02
68.22
69.72
70.17
69.09
65.98
60.49
52.59
42.77
32.09
22.02
14.02
9.07
7.29
7.92
9.58
10.83
10.75
9.19
6.71
4.23
2.53
2.11
3.38
6.92
13.65
24.38
39.25
57.14
75.87
92.95
106.70
116.94
124.72
131.32
137.08
141.12
141.91
138.64
132.22
125.19
120.54
120.11
123.73
129.50
135.15
139.40
142.52
145.60
149.26
152.60
153.10
147.89
135.19
115.33
90.40
62.92
34.26
3.95
-29.88
-68.77
-112.29
-157.21
-197.99
-228.57
-244.40
-243.79
-228.15
-201.17
-167.57
-132.08
-98.84
-71.02
-50.67
-38.49
-33.75
-34.48
-38.02
-41.87
-44.20
-44.12
-41.41
-36.09
-28.26
-18.07
-6.02
6.99
19.91
31.98
43.05
53.59
64.30
75.63
87.40
98.83
109.00
117.19
123.32
127.77
131.05
133.36
134.38
133.23
128.85
120.34
107.20
89.46
67.57
42.20
14.11
-15.97
-47.39
-79.58
-112.04
-144.25
-175.53
-204.83
-230.63
-251.10
-264.44
-269.58
-266.78
-257.96
-246.43
-235.99
-229.88
-229.79
-235.64
-245.84
-258.05
-269.94
-279.65
-285.88
-287.68
-284.43
-275.67
-261.37
-241.98
-218.53
-192.47
-165.44
-139.00
-114.31
-92.04
-72.33
-54.98
-39.74
-26.42
-15.01
-5.45
2.56
9.57
16.15
22.44
28.06
32.27
34.60
35.33
35.55
36.61
39.33
43.47
47.90
51.44
53.78
55.96
60.03
67.98
80.69
97.31
115.49
132.25
145.05
152.61
155.18
154.32
152.27
151.07
151.88
154.69
158.48
161.80
163.46
163.01
160.67
156.95
152.11
145.91
137.76
127.20
114.35
100.07
85.76
72.90
62.61
55.55
52.07
52.31
56.21
63.29
72.28
81.14
87.37
88.88
84.68
75.25
62.18
47.27
31.68
15.51
-1.87
-20.97
-41.20
-60.61
-76.28
-85.40
-86.34
-79.35
-66.33
-50.07
-33.20
-17.53
-3.82
7.83
17.50
25.12
30.47
33.42
34.21
33.51
32.23
31.20
30.82
30.99
31.27
31.12
30.18
28.38
25.98
23.36
20.88
18.71
16.79
14.84
12.52
9.49
5.59
0.85
-4.47
-9.89
-14.83
-18.74
-21.32
-22.64
-23.15
-23.59
-24.68
-26.97
-30.70
-35.76
-41.81
-48.30
-54.52
-59.60
-62.68
-63.00
-60.22
-54.53
-46.56
-37.27
-27.59
-18.21
-9.47
-1.49
5.73
12.14
17.64
22.12
25.52
27.87
29.30
29.97
30.04
29.64
28.85
27.73
26.28
24.45
22.24
19.68
16.93
14.15
11.55
9.20
6.98
4.70
2.13
-0.84
-4.09
-7.43
-10.71
-13.92
-17.22
-20.83
-24.86
-29.29
-33.96
-38.76
-43.64
-48.56
-53.33
-57.41
-59.97
-60.05
-57.00
-50.73
-41.79
-31.24
-20.29
-9.97
-0.83
7.01
13.69
19.42
24.27
28.08
30.68
31.99
32.18
31.64
30.83
30.14
29.64
29.21
28.60
27.55
25.95
23.82
21.31
18.57
15.78
13.07
10.49
8.00
5.45
2.65
-0.52
-4.01
-7.60
-11.04
-14.16
-16.97
-19.69
-22.66
-26.23
-30.60
-35.85
-41.75
-47.72
-52.82
-55.93
-56.01
-52.46
-45.38
-35.59
-24.32
-12.85
-2.16
7.27
15.33
22.18
27.97
32.82
36.73
39.66
41.62
42.63
42.77
42.21
41.09
39.60
37.90
36.16
34.50
33.00
31.67
30.36
28.86
26.95
24.50
21.60
18.49
15.40
12.45
9.54
6.43
2.93
-1.00
-5.21
-9.46
-13.61
-17.71
-21.98
-26.64
-31.78
-37.36
-43.25
-49.28
-55.25
-60.76
-65.10
-67.28
-66.30
-61.51
-52.97
-41.49
-28.41
-15.22
-3.15
7.07
15.26
21.63
26.62
30.66
34.04
36.74
38.46
38.75
37.29
34.12
29.71
24.92
20.72
17.91
16.90
17.60
19.43
21.38
22.08
20.26
15.24
7.47
-1.16
-7.87
-9.94
-6.09
2.84
13.94
23.37
27.91
26.15
18.86
8.48
-2.08
-10.50
-15.79
-18.26
-19.24
-20.34
-22.91
-27.51
-33.68
-40.11
-45.11
-47.19
-45.62
-40.53
-32.77
-23.47
-13.63
-3.97
5.07
13.14
19.89
25.02
28.46
30.43
31.40
31.90
32.26
32.55
32.58
32.08
30.94
29.29
27.46
25.86
24.79
24.32
24.19
23.95
23.12
21.41
18.81
15.60
12.17
8.88
5.90
3.21
0.64
-1.96
-4.70
-7.60
-10.57
-13.51
-16.35
-19.11
-21.91
-25.02
-28.67
-32.94
-37.64
-42.14
-45.61
-47.13
-46.12
-42.45
-36.56
-29.23
-21.37
-13.70
-6.62
-0.19
5.64
10.95
15.74
19.84
23.07
25.29
26.50
26.85
26.54
25.81
24.87
23.91
23.02
22.26
21.60
20.92
20.13
19.14
17.94
16.56
15.04
13.32
11.27
8.72
5.60
1.95
-2.01
-6.00
-9.75
-13.19
-16.29
-19.20
-22.05
-25.05
-28.37
-32.22
-36.70
-41.68
-46.74
-51.09
-53.82
-54.15
-51.67
-46.50
-39.22
-30.71
-21.81
-13.16
-5.11
2.24
8.93
14.96
20.32
24.90
28.62
31.38
33.15
33.93
33.79
32.84
31.35
29.63
27.98
26.63
25.61
24.78
23.90
22.77
21.24
19.32
17.04
14.46
11.61
8.52
5.21
1.71
-1.94
-5.70
-9.54
-13.37
-17.12
-20.71
-24.11
-27.45
-30.94
-34.83
-39.28
-44.20
-49.17
-53.44
-56.15
-56.50
-54.04
-48.80
-41.29
-32.33
-22.79
-13.40
-4.59
3.47
10.78
17.35
23.16
28.02
31.72
34.11
35.16
35.08
34.23
33.00
31.68
30.39
29.13
27.87
26.60
25.39
24.30
23.29
22.20
20.80
18.87
16.37
13.44
10.26
7.00
3.69
0.25
-3.38
-7.18
-11.01
-14.68
-18.07
-21.18
-24.12
-27.12
-30.43
-34.28
-38.82
-44.01
-49.56
-54.80
-58.85
-60.78
-59.88
-55.92
-49.19
-40.41
-30.43
-20.10
-9.99
-0.52
8.04
15.52
21.77
26.71
30.34
32.72
33.97
34.24
33.72
32.61
31.15
29.58
28.09
26.85
25.92
25.22
24.65
23.98
22.96
21.36
19.03
15.98
12.39
8.62
5.04
1.96
-0.52
-2.52
-4.30
-6.20
-8.48
-11.32
-14.74
-18.66
-22.95
-27.42
-32.00
-36.68
-41.63
-46.99
-52.74
-58.49
-63.37
-66.23
-65.98
-62.04
-54.62
-44.68
-33.59
-22.69
-12.78
-4.06
3.77
11.16
18.40
25.46
31.98
37.45
41.44
43.77
44.56
44.25
43.43
42.66
42.27
42.22
42.19
41.68
40.19
37.37
33.21
28.04
22.51
17.46
13.64
11.49
10.92
11.36
11.88
11.58
9.93
6.89
2.90
-1.47
-5.75
-9.78
-13.64
-17.49
-21.47
-25.65
-29.99
-34.45
-38.92
-43.07
-46.34
-47.94
-47.07
-43.24
-36.48
-27.44
-17.16
-6.81
2.71
10.89
17.56
22.84
26.85
29.70
31.43
32.08
31.76
30.68
29.14
27.49
26.05
24.96
24.19
23.58
22.87
21.90
20.63
19.15
17.58
15.97
14.24
12.16
9.49
6.16
2.24
-1.95
-6.12
-10.06
-13.77
-17.37
-21.04
-24.81
-28.64
-32.40
-36.06
-39.64
-43.10
-46.22
-48.47
-49.07
-47.29
-42.72
-35.47
-26.16
-15.72
-5.02
5.24
14.65
22.93
29.87
35.27
38.98
41.05
41.77
41.66
41.24
40.93
40.94
41.15
41.25
40.79
39.39
36.83
33.16
28.75
24.12
19.84
16.18
13.06
10.02
6.50
2.09
-3.21
-8.96
-14.46
-19.12
-22.63
-25.09
-26.92
-28.68
-30.92
-34.06
-38.32
-43.61
-49.44
-54.89
-58.72
-59.70
-56.97
-50.41
-40.69
-29.05
-16.91
-5.40
4.82
13.60
21.07
27.34
32.39
36.08
38.28
39.00
38.51
37.25
35.75
34.44
33.54
33.01
32.64
32.15
31.35
30.17
28.67
26.90
24.92
22.73
20.30
17.66
14.82
11.83
8.74
5.56
2.30
-1.04
-4.47
-8.02
-11.73
-15.80
-20.45
-25.95
-32.47
-40.03
-48.33
-56.69
-64.06
-69.13
-70.70
-67.97
-60.90
-50.25
-37.37
-23.83
-10.99
0.24
9.52
16.89
22.68
27.25
30.87
33.72
35.81
37.07
37.41
36.81
35.35
33.32
31.06
28.90
27.10
25.72
24.64
23.60
22.26
20.31
17.48
13.68
8.95
3.55
-2.14
-7.68
-12.65
-16.73
-19.79
-21.97
-23.61
-25.15
-26.94
-29.15
-31.68
-34.33
-37.05
-40.07
-43.83
-48.68
-54.53
-60.51
-65.15
-66.73
-63.94
-56.39
-44.71
-30.37
-15.08
-0.38
12.80
24.07
33.46
41.11
47.09
51.37
53.85
54.59
53.87
52.18
50.10
48.09
46.39
44.99
43.76
42.61
41.55
40.64
39.91
39.23
38.31
36.82
34.44
31.08
26.78
21.69
15.96
9.77
3.34
-3.03
-8.95
-14.04
-18.07
-21.10
-23.47
-25.78
-28.72
-32.89
-38.60
-45.73
-53.60
-61.03
-66.54
-68.78
-66.86
-60.65
-50.84
-38.65
-25.43
-12.36
-0.23
10.51
19.62
26.93
32.44
36.29
38.87
40.74
42.45
44.35
46.46
48.57
50.33
51.44
51.71
51.12
49.66
47.28
43.94
39.66
34.63
29.23
23.91
18.91
14.25
9.59
4.49
-1.36
-7.92
-14.74
-21.18
-26.64
-30.93
-34.33
-37.46
-41.06
-45.61
-51.28
-57.72
-64.30
-70.06
-74.02
-75.21
-72.96
-67.02
-57.71
-45.83
-32.53
-19.01
-6.26
5.03
14.56
22.22
28.04
32.19
34.93
36.66
37.79
38.73
39.75
40.94
42.20
43.29
43.95
44.04
43.57
42.71
41.67
40.55
39.28
37.63
35.32
32.25
28.53
24.44
20.29
16.21
12.12
7.78
2.98
-2.33
-7.96
-13.56
-18.78
-23.39
-27.45
-31.27
-35.34
-40.13
-45.83
-52.13
-58.15
-62.56
-63.97
-61.39
-54.59
-44.23
-31.66
-18.45
-6.06
4.56
12.98
19.22
23.52
26.25
27.78
28.50
28.76
28.79
28.68
28.36
27.74
26.78
25.64
24.57
23.82
23.48
23.36
23.11
22.34
20.78
18.44
15.48
12.22
8.92
5.80
3.00
0.60
-1.37
-2.96
-4.31
-5.65
-7.24
-9.34
-12.12
-15.70
-20.14
-25.50
-31.81
-38.90
-46.39
-53.54
-59.42
-63.01
-63.49
-60.33
-53.54
-43.59
-31.32
-17.84
-4.28
8.32
19.13
27.58
33.41
36.70
37.79
37.25
35.71
33.75
31.79
30.02
28.41
26.83
25.16
23.27
21.12
18.74
16.24
13.86
11.86
10.43
9.63
9.22
8.78
7.81
5.98
3.21
-0.29
-4.25
-8.46
-12.91
-17.65
-22.74
-28.08
-33.50
-38.85
-44.06
-49.17
-54.01
-58.08
-60.39
-59.84
-55.56
-47.50
-36.50
-24.10
-12.00
-1.46
6.97
13.46
18.50
22.56
25.83
28.32
29.95
30.77
31.03
31.05
31.07
31.10
31.00
30.51
29.49
27.98
26.22
24.50
23.04
21.87
20.85
19.67
18.02
15.63
12.40
8.44
3.96
-0.69
-5.24
-9.50
-13.47
-17.26
-21.12
-25.21
-29.71
-34.70
-40.13
-45.78
-51.10
-55.27
-57.27
-56.20
-51.56
-43.49
-32.80
-20.75
-8.68
2.34
11.71
19.29
25.22
29.76
33.11
35.38
36.61
36.85
36.26
35.10
33.77
32.60
31.78
31.28
30.88
30.31
29.39
28.07
26.39
24.33
21.87
18.89
15.40
11.52
7.50
3.58
-0.15
-3.77
-7.46
-11.38
-15.48
-19.58
-23.41
-26.83
-29.93
-33.04
-36.58
-40.91
-46.07
-51.62
-56.64
-59.96
-60.47
-57.50
-51.06
-41.79
-30.76
-19.09
-7.70
2.84
12.29
20.52
27.41
32.81
36.52
38.46
38.75
37.76
36.00
34.04
32.28
30.84
29.60
28.30
26.77
24.98
23.11
21.37
19.91
18.66
17.39
15.80
13.68
10.93
7.60
3.80
-0.33
-4.64
-8.93
-13.04
-16.85
-20.38
-23.81
-27.54
-31.95
-37.28
-43.39
-49.67
-55.12
-58.59
-59.09
-56.12
-49.77
-40.73
-30.02
-18.75
-7.84
2.07
10.65
17.77
23.39
27.52
30.26
31.76
32.27
32.06
31.40
30.45
29.28
27.84
26.16
24.26
22.31
20.50
18.96
17.67
16.46
15.03
13.11
10.56
7.36
3.67
-0.35
-4.52
-8.67
-12.71
-16.54
-20.16
-23.69
-27.37
-31.53
-36.45
-42.20
-48.51
-54.75
-59.97
-63.16
-63.44
-60.32
-53.82
-44.46
-33.13
-20.85
-8.62
2.83
12.94
21.39
28.04
32.88
36.05
37.86
38.69
38.91
38.80
38.50
38.03
37.32
36.32
35.00
33.36
31.47
29.38
27.22
25.06
22.95
20.83
18.52
15.83
12.58
8.72
4.30
-0.49
-5.42
-10.34
-15.16
-19.89
-24.62
-29.53
-34.87
-40.92
-47.78
-55.28
-62.71
-68.88
-72.35
-71.95
-67.18
-58.41
-46.79
-33.82
-20.86
-8.77
2.06
11.57
19.78
26.71
32.31
36.59
39.65
41.63
42.62
42.68
41.85
40.22
38.00
35.54
33.21
31.34
30.09
29.37
28.90
28.26
27.06
25.04
22.15
18.55
14.54
10.46
6.48
2.65
-1.12
-4.98
-8.97
-13.02
-17.01
-20.77
-24.23
-27.44
-30.59
-34.02
-38.09
-43.12
-49.14
-55.73
-61.94
-66.43
-67.84
-65.17
-58.26
-47.79
-35.12
-21.79
-9.04
2.39
12.30
20.80
28.04
34.10
38.90
42.40
44.65
45.85
46.35
46.51
46.58
46.67
46.72
46.61
46.26
45.67
44.91
44.07
43.10
41.84
40.05
37.54
34.31
30.55
26.57
22.59
18.71
14.78
10.57
5.94
0.91
-4.23
-9.14
-13.57
-17.48
-21.06
-24.68
-28.74
-33.58
-39.40
-46.14
-53.41
-60.44
-66.10
-69.17
-68.61
-63.97
-55.55
-44.34
-31.66
-18.87
-6.93
3.65
12.69
20.24
26.34
31.04
34.42
36.60
37.78
38.20
38.08
37.59
36.84
35.91
34.96
34.08
33.36
32.80
32.31
31.74
30.90
29.63
27.88
25.67
23.10
20.32
17.39
14.31
10.98
7.27
3.19
-1.14
-5.48
-9.57
-13.26
-16.58
-19.75
-23.13
-27.15
-32.12
-38.06
-44.56
-50.75
-55.43
-57.35
-55.70
-50.28
-41.62
-30.74
-18.84
-6.96
4.17
14.08
22.58
29.55
34.98
38.90
41.38
42.54
42.54
41.57
39.96
38.10
36.38
35.10
34.37
34.04
33.81
33.30
32.24
30.50
28.12
25.21
21.89
18.27
14.44
10.48
6.48
2.46
-1.62
-5.85
-10.30
-14.97
-19.68
-24.24
-28.45
-32.34
-36.14
-40.27
-45.16
-50.95
-57.30
-63.32
-67.73
-69.26
-67.00
-60.83
-51.37
-39.82
-27.48
-15.39
-4.18
5.89
14.70
22.14
28.04
32.33
35.16
36.80
37.66
38.01
37.97
37.56
36.74
35.59
34.28
32.96
31.72
30.46
29.03
27.27
25.12
22.62
19.90
17.06
14.13
11.03
7.69
4.04
0.06
-4.17
-8.58
-13.04
-17.42
-21.64
-25.62
-29.36
-33.04
-36.96
-41.48
-46.85
-52.88
-58.88
-63.66
-65.87
-64.51
-59.21
-50.43
-39.19
-26.78
-14.33
-2.64
7.83
16.88
24.42
30.48
35.16
38.69
41.28
43.16
44.40
45.05
45.12
44.72
44.02
43.26
42.58
41.97
41.22
40.04
38.23
35.76
32.82
29.72
26.66
23.67
20.57
17.15
13.23
8.83
4.11
-0.70
-5.43
-10.02
-14.43
-18.64
-22.55
-26.09
-29.32
-32.50
-36.14
-40.69
-46.35
-52.70
-58.73
-63.01
-64.16
-61.37
-54.64
-44.79
-33.08
-20.80
-8.92
1.98
11.60
19.73
26.25
31.04
34.19
35.97
36.80
37.09
37.14
37.05
36.78
36.21
35.27
33.99
32.53
31.15
30.03
29.26
28.66
27.86
26.49
24.31
21.36
17.92
14.36
10.90
7.57
4.17
0.49
-3.56
-7.85
-12.10
-16.02
-19.45
-22.49
-25.39
-28.46
-31.97
-36.02
-40.58
-45.57
-50.83
-56.03
-60.58
-63.62
-64.16
-61.36
-54.95
-45.37
-33.70
-21.36
-9.54
1.03
10.16
17.96
24.58
30.03
34.16
36.78
37.93
37.84
36.93
35.70
34.49
33.44
32.50
31.58
30.61
29.68
28.91
28.36
27.92
27.27
25.97
23.69
20.35
16.18
11.65
7.26
3.33
-0.09
-3.18
-6.24
-9.51
-13.07
-16.84
-20.64
-24.32
-27.88
-31.54
-35.67
-40.64
-46.59
-53.18
-59.57
-64.55
-66.90
-65.75
-60.86
-52.66
-42.09
-30.26
-18.20
-6.68
3.81
12.96
20.66
26.90
31.76
35.38
37.91
39.48
40.13
39.94
39.02
37.54
35.77
33.96
32.36
31.14
30.34
29.90
29.59
29.08
28.10
26.47
24.21
21.48
18.48
15.34
12.06
8.54
4.72
0.63
-3.56
-7.65
-11.50
-15.09
-18.51
-21.89
-25.40
-29.19
-33.46
-38.45
-44.35
-51.04
-57.96
-64.06
-68.00
-68.66
-65.50
-58.85
-49.70
-39.24
-28.48
-17.95
-7.75
2.11
11.45
19.91
26.98
32.30
35.83
37.87
38.88
39.33
39.53
39.59
39.44
38.94
37.95
36.50
34.77
33.04
31.57
30.43
29.41
28.14
26.27
23.70
20.58
17.20
13.85
10.58
7.26
3.72
-0.15
-4.30
-8.59
-12.84
-16.95
-20.89
-24.63
-28.12
-31.34
-34.36
-37.49
-41.14
-45.81
-51.79
-58.97
-66.66
-73.67
-78.53
-80.02
-77.53
-71.30
-62.33
-51.84
-40.91
-30.06
-19.37
-8.66
2.06
12.47
21.97
29.97
36.06
40.18
42.54
43.46
43.19
41.90
39.71
36.72
33.10
29.10
24.98
20.98
17.31
14.02
11.07
8.20
5.04
1.25
-3.36
-8.73
-14.38
-19.62
-23.67
-25.92
-26.08
-24.22
-20.70
-15.96
-10.35
-4.04
3.03
10.92
19.52
28.32
36.44
42.68
45.83
44.91
39.56
30.24
18.22
5.33
-6.59
-16.16
-22.94
-27.52
-31.19
-35.27
-40.45
-46.28
-51.13
-52.74
-49.08
-39.35
-24.45
-6.91
9.97
23.23
31.28
34.24
33.59
31.21
28.53
26.12
23.81
21.26
18.50
16.08
14.78
15.07
16.67
18.53
19.12
17.02
11.51
2.99
-7.08
-16.64
-23.84
-27.76
-28.97
-29.43
-31.80
-38.39
-50.07
-65.76
-82.69
-96.96
-104.49
-101.76
-86.75
-59.80
-24.29
13.49
45.68
65.28
68.82
57.74
37.74
16.24
-0.69
-10.44
-13.77
-13.09
-10.26
-5.42
2.42
13.96
28.26
42.75
54.35
61.06
62.97
62.04
60.99
61.84
65.00
69.55
73.96
77.11
78.65
78.70
77.28
73.98
68.20
59.78
49.46
38.77
29.37
22.28
17.59
14.66
12.74
11.42
10.67
10.42
10.18
9.01
5.85
0.17
-7.82
-17.21
-26.83
-35.63
-42.88
-48.17
-51.34
-52.33
-51.16
-47.88
-42.57
-35.39
-26.56
-16.47
-5.75
4.90
14.70
23.06
29.61
34.20
36.82
37.59
36.73
34.67
32.03
29.56
27.84
27.10
27.10
27.22
26.77
25.21
22.46
18.80
14.84
11.18
8.26
6.16
4.65
3.26
1.47
-1.15
-4.84
-9.58
-15.14
-21.10
-26.95
-32.19
-36.48
-39.79
-42.49
-45.30
-49.02
-54.14
-60.48
-67.07
-72.38
-74.74
-72.95
-66.68
-56.50
-43.59
-29.38
-15.21
-2.03
9.52
19.08
26.49
31.80
35.31
37.47
38.83
39.78
40.47
40.80
40.57
39.55
37.77
35.47
33.07
31.00
29.54
28.69
28.18
27.59
26.44
24.40
21.33
17.28
12.48
7.24
1.87
-3.37
-8.33
-12.95
-17.30
-21.50
-25.73
-30.16
-34.89
-39.95
-45.35
-51.05
-56.99
-62.97
-68.53
-72.92
-75.22
-74.57
-70.42
-62.78
-52.20
-39.56
-25.89
-12.10
1.06
13.06
23.47
31.99
38.40
42.63
44.80
45.26
44.55
43.38
42.36
41.91
42.07
42.58
43.03
43.08
42.64
41.82
40.75
39.45
37.78
35.46
32.33
28.41
23.93
19.30
14.83
10.73
6.92
3.17
-0.79
-5.11
-9.76
-14.50
-19.08
-23.35
-27.44
-31.73
-36.73
-42.81
-50.02
-57.91
-65.62
-71.99
-75.91
-76.51
-73.39
-66.75
-57.20
-45.68
-33.16
-20.48
-8.23
3.20
13.52
22.47
29.79
35.32
39.06
41.25
42.31
42.66
42.55
42.02
40.96
39.33
37.23
34.98
32.95
31.32
29.99
28.66
26.93
24.62
21.77
18.67
15.63
12.78
10.05
7.19
3.96
0.21
-4.05
-8.68
-13.47
-18.28
-22.99
-27.60
-32.14
-36.71
-41.47
-46.59
-52.13
-57.85
-63.14
-67.01
-68.38
-66.43
-60.85
-52.08
-41.08
-29.08
-17.15
-5.93
4.30
13.52
21.69
28.61
33.94
37.36
38.85
38.74
37.61
36.18
34.96
34.14
33.63
33.09
32.21
30.78
28.77
26.33
23.67
21.02
18.48
16.07
13.68
11.17
8.36
5.09
1.27
-3.07
-7.77
-12.58
-17.24
-21.59
-25.59
-29.42
-33.41
-37.92
-43.17
-49.02
-54.89
-59.82
-62.68
-62.51
-58.78
-51.59
-41.59
-29.81
-17.40
-5.36
5.60
15.05
22.83
28.98
33.65
37.01
39.22
40.44
40.79
40.40
39.52
38.38
37.21
36.13
35.13
34.13
33.01
31.69
30.15
28.39
26.44
24.28
21.81
18.90
15.45
11.39
6.76
1.69
-3.58
-8.76
-13.59
-17.97
-21.97
-25.82
-29.84
-34.34
-39.55
-45.53
-52.18
-59.12
-65.65
-70.80
-73.50
-72.80
-68.24
-59.95
-48.69
-35.61
-21.93
-8.70
3.46
14.21
23.49
31.27
37.53
42.25
45.48
47.39
48.24
48.31
47.83
46.83
45.31
43.27
40.90
38.50
36.48
35.07
34.25
33.65
32.82
31.32
29.00
25.99
22.59
19.10
15.66
12.25
8.67
4.75
0.36
-4.47
-9.59
-14.76
-19.71
-24.30
-28.46
-32.34
-36.22
-40.52
-45.65
-51.83
-58.87
-66.09
-72.37
-76.37
-76.96
-73.53
-66.18
-55.70
-43.26
-30.08
-17.14
-5.08
5.80
15.37
23.62
30.53
36.10
40.37
43.44
45.48
46.69
47.28
47.44
47.31
46.97
46.45
45.74
44.85
43.84
42.78
41.76
40.79
39.75
38.46
36.63
34.02
30.52
26.23
21.41
16.44
11.71
7.43
3.63
0.12
-3.36
-7.05
-11.03
-15.23
-19.49
-23.66
-27.73
-31.83
-36.19
-41.09
-46.72
-53.13
-60.10
-67.05
-73.10
-77.15
-78.17
-75.49
-69.02
-59.23
-47.04
-33.44
-19.38
-5.64
7.19
18.60
28.17
35.64
40.98
44.41
46.32
47.19
47.41
47.25
46.83
46.21
45.38
44.35
43.13
41.82
40.52
39.34
38.38
37.61
36.88
35.90
34.36
32.02
28.85
25.04
20.91
16.81
12.97
9.44
6.07
2.64
-1.04
-5.03
-9.27
-13.63
-17.98
-22.23
-26.36
-30.39
-34.35
-38.32
-42.47
-47.04
-52.27
-58.22
-64.51
-70.32
-74.40
-75.53
-72.80
-66.03
-55.78
-43.16
-29.50
-15.93
-3.27
8.00
17.63
25.51
31.56
35.83
38.52
39.98
40.65
40.84
40.74
40.34
39.54
38.31
36.71
34.99
33.42
32.23
31.45
30.94
30.37
29.38
27.71
25.29
22.28
18.92
15.47
12.03
8.48
4.64
0.37
-4.30
-9.14
-13.85
-18.19
-22.08
-25.64
-29.13
-32.84
-37.11
-42.18
-48.14
-54.77
-61.41
-66.95
-70.08
-69.65
-65.12
-56.75
-45.52
-32.81
-19.91
-7.73
3.27
12.94
21.24
28.13
33.51
37.38
39.87
41.21
41.69
41.60
41.09
40.27
39.14
37.74
36.12
34.44
32.89
31.66
30.83
30.27
29.65
28.53
26.59
23.74
20.21
16.41
12.71
9.27
5.95
2.43
-1.57
-6.05
-10.81
-15.48
-19.76
-23.57
-27.09
-30.56
-34.24
-38.30
-42.90
-48.16
-54.11
-60.53
-66.77
-71.80
-74.41
-73.60
-68.90
-60.53
-49.32
-36.43
-23.05
-10.18
1.55
11.75
20.30
27.19
32.47
36.25
38.73
40.15
40.84
41.11
41.20
41.19
40.99
40.48
39.59
38.39
37.13
36.05
35.26
34.61
33.78
32.37
30.13
27.05
23.40
19.50
15.59
11.73
7.70
3.32
-1.50
-6.59
-11.62
-16.24
-20.27
-23.82
-27.19
-30.84
-35.10
-40.24
-46.31
-53.13
-60.30
-67.05
-72.39
-75.19
-74.54
-69.99
-61.75
-50.67
-37.95
-24.78
-12.09
-0.45
9.85
18.70
26.02
31.80
36.05
38.95
40.71
41.60
41.85
41.71
41.34
40.90
40.44
39.95
39.32
38.43
37.23
35.76
34.15
32.53
30.90
29.05
26.75
23.76
20.05
15.76
11.16
6.54
2.07
-2.20
-6.28
-10.23
-14.07
-17.80
-21.44
-25.05
-28.77
-32.87
-37.64
-43.34
-49.94
-57.01
-63.68
-68.81
-71.26
-70.26
-65.52
-57.36
-46.51
-33.91
-20.58
-7.46
4.65
15.18
23.77
30.33
34.96
37.92
39.44
39.81
39.34
38.37
37.24
36.21
35.40
34.76
34.17
33.52
32.72
31.77
30.61
29.15
27.30
24.97
22.17
19.00
15.57
11.97
8.21
4.25
0.06
-4.33
-8.88
-13.58
-18.45
-23.57
-28.97
-34.68
-40.73
-47.10
-53.70
-60.24
-66.11
-70.34
-71.87
-69.82
-63.83
-54.27
-42.14
-28.78
-15.45
-3.10
7.80
17.11
24.86
31.11
35.90
39.29
41.40
42.42
42.59
42.17
41.32
40.13
38.68
37.03
35.29
33.59
32.06
30.74
29.57
28.32
26.75
24.63
21.88
18.60
14.97
11.15
7.14
2.83
-1.95
-7.23
-12.85
-18.48
-23.78
-28.57
-32.97
-37.32
-42.13
-47.79
-54.37
-61.54
-68.53
-74.26
-77.57
-77.55
-73.77
-66.34
-55.91
-43.46
-29.98
-16.41
-3.41
8.46
18.84
27.46
34.19
39.11
42.43
44.49
45.63
46.10
46.09
45.71
45.10
44.40
43.75
43.20
42.70
42.15
41.43
40.48
39.26
37.70
35.67
33.01
29.58
25.44
20.77
15.84
10.86
5.90
0.88
-4.28
-9.52
-14.71
-19.63
-24.19
-28.53
-33.02
-38.10
-44.17
-51.36
-59.39
-67.53
-74.61
-79.29
-80.36
-77.07
-69.44
-58.26
-44.82
-30.52
-16.53
-3.51
8.21
18.60
27.62
35.15
41.01
45.12
47.54
48.52
48.47
47.79
46.82
45.77
44.72
43.73
42.84
42.08
41.43
40.82
40.03
38.82
36.99
34.45
31.27
27.63
23.75
19.80
15.85
11.80
7.57
3.05
-1.73
-6.67
-11.61
-16.45
-21.18
-25.90
-30.75
-35.89
-41.51
-47.74
-54.60
-61.80
-68.64
-74.00
-76.61
-75.42
-69.95
-60.51
-48.09
-34.05
-19.69
-6.03
6.32
17.06
26.07
33.26
38.56
41.98
43.69
44.03
43.48
42.53
41.56
40.69
39.90
39.08
38.14
37.10
36.07
35.10
34.19
33.20
31.93
30.22
27.97
25.16
21.82
17.96
13.57
8.59
2.99
-3.13
-9.51
-15.79
-21.62
-26.80
-31.41
-35.79
-40.40
-45.67
-51.79
-58.50
-65.11
-70.55
-73.61
-73.32
-69.10
-61.04
-49.80
-36.46
-22.28
-8.38
4.34
15.38
24.50
31.69
37.12
40.93
43.28
44.28
44.08
42.95
41.31
39.67
38.49
38.01
38.15
38.63
39.02
38.94
38.19
36.66
34.37
31.33
27.59
23.25
18.50
13.62
8.89
4.52
0.50
-3.31
-7.13
-11.11
-15.24
-19.37
-23.35
-27.09
-30.67
-34.37
-38.57
-43.65
-49.75
-56.69
-63.78
-69.93
-73.80
-74.18
-70.37
-62.41
-51.09
-37.69
-23.58
-9.90
2.67
13.81
23.40
31.38
37.71
42.39
45.55
47.47
48.50
48.97
49.09
48.94
48.52
47.87
47.06
46.28
45.63
45.10
44.43
43.26
41.26
38.28
34.47
30.21
25.86
21.61
17.36
12.81
7.73
2.10
-3.77
-9.43
-14.48
-18.81
-22.66
-26.52
-30.97
-36.39
-42.88
-50.11
-57.42
-63.83
-68.26
-69.72
-67.51
-61.42
-51.80
-39.53
-25.81
-11.90
1.14
12.58
22.16
30.00
36.38
41.61
45.79
48.85
50.64
51.11
50.49
49.18
47.67
46.33
45.28
44.41
43.56
42.58
41.42
40.06
38.41
36.35
33.78
30.62
27.01
23.13
19.14
15.09
10.95
6.60
2.02
-2.67
-7.27
-11.53
-15.30
-18.65
-21.86
-25.43
-29.94
-35.80
-43.11
-51.47
-60.02
-67.54
-72.74
-74.55
-72.30
-65.90
-55.77
-42.84
-28.29
-13.42
0.61
12.93
23.03
30.82
36.42
40.15
42.28
43.00
42.50
40.99
38.76
36.21
33.73
31.62
30.00
28.81
27.84
26.87
25.73
24.35
22.71
20.83
18.68
16.14
13.05
9.32
4.93
0.10
-4.80
-9.29
-13.01
-15.78
-17.73
-19.19
-20.63
-22.53
-25.28
-29.19
-34.27
-40.24
-46.29
-51.30
-53.98
-53.26
-48.69
-40.59
-29.95
-18.05
-6.13
4.99
14.90
23.54
30.87
36.84
41.30
44.15
45.53
45.84
45.66
45.49
45.56
45.77
45.76
45.17
43.81
41.74
39.17
36.29
33.17
29.69
25.67
20.96
15.51
9.46
3.06
-3.33
-9.41
-14.96
-19.96
-24.59
-29.16
-33.95
-39.19
-44.99
-51.37
-58.23
-65.27
-71.85
-76.97
-79.46
-78.30
-73.03
-63.96
-52.13
-38.92
-25.66
-13.29
-2.26
7.34
15.55
22.31
27.53
31.08
33.01
33.56
33.16
32.27
31.26
30.23
29.13
27.82
26.27
24.56
22.83
21.25
19.82
18.41
16.84
14.94
12.64
9.95
6.92
3.59
-0.03
-3.94
-8.13
-12.58
-17.27
-22.20
-27.38
-32.90
-38.83
-45.25
-51.99
-58.59
-64.16
-67.55
-67.64
-63.79
-56.07
-45.35
-32.91
-20.05
-7.72
3.67
13.97
23.15
30.98
37.08
41.13
43.03
43.10
41.93
40.20
38.39
36.68
34.96
33.02
30.70
28.10
25.47
23.15
21.29
19.82
18.46
16.83
14.64
11.79
8.37
4.50
0.31
-4.16
-8.90
-13.81
-18.71
-23.39
-27.79
-32.08
-36.68
-42.09
-48.55
-55.81
-62.95
-68.61
-71.38
-70.28
-65.14
-56.56
-45.74
-33.91
-22.03
-10.65
0.05
9.92
18.69
25.89
31.08
34.07
35.04
34.52
33.19
31.60
30.01
28.38
26.49
24.17
21.37
18.19
14.77
11.17
7.35
3.28
-0.97
-5.19
-9.13
-12.62
-15.72
-18.70
-21.92
-25.63
-29.87
-34.47
-39.18
-43.82
-48.38
-53.02
-58.04
-63.59
-69.58
-75.43
-80.21
-82.78
-82.18
-77.94
-70.21
-59.68
-47.29
-33.92
-20.24
-6.75
6.04
17.54
27.10
34.26
38.96
41.61
42.91
43.58
44.12
44.73
45.39
46.03
46.63
47.28
48.13
49.29
50.77
52.48
54.22
55.69
56.52
56.41
55.12
52.60
48.86
44.04
38.33
32.02
25.52
19.28
13.64
8.56
3.56
-2.04
-8.75
-16.46
-24.26
-30.73
-34.47
-34.71
-31.59
-26.06
-19.33
-12.43
-5.88
0.28
6.14
11.62
16.34
19.76
21.51
21.53
20.22
18.16
15.93
13.92
12.16
10.50
8.73
6.72
4.58
2.58
1.14
0.59
1.06
2.38
4.05
5.47
6.08
5.59
3.96
1.41
-1.81
-5.46
-9.40
-13.53
-17.82
-22.32
-27.17
-32.71
-39.20
-46.66
-54.62
-62.04
-67.55
-69.87
-68.26
-62.77
-54.11
-43.37
-31.55
-19.38
-7.32
4.35
15.30
25.15
33.46
39.91
44.37
46.98
48.01
47.85
46.86
45.37
43.60
41.70
39.75
37.77
35.79
33.83
31.91
30.00
28.04
25.90
23.36
20.26
16.46
11.91
6.71
1.04
-4.85
-10.72
-16.37
-21.75
-26.94
-32.16
-37.73
-43.94
-51.00
-58.80
-66.88
-74.33
-79.96
-82.55
-81.27
-75.88
-66.81
-54.99
-41.56
-27.59
-13.84
-0.82
11.25
22.17
31.74
39.70
45.77
49.80
51.84
52.19
51.40
50.13
48.91
47.96
47.17
46.22
44.83
42.94
40.78
38.67
36.78
35.01
32.95
30.08
26.09
21.01
15.19
9.10
3.17
-2.45
-7.75
-12.86
-17.91
-23.02
-28.28
-33.94
-40.31
-47.62
-55.80
-64.26
-71.80
-76.94
-78.27
-74.97
-67.15
-55.76
-42.25
-28.08
-14.28
-1.35
10.63
21.63
31.54
40.04
46.76
51.51
54.34
55.58
55.68
55.10
54.19
53.12
51.96
50.72
49.41
48.01
46.47
44.67
42.44
39.61
36.13
32.08
27.66
23.09
18.54
13.98
9.28
4.28
-1.12
-6.87
-12.74
-18.44
-23.74
-28.59
-33.26
-38.25
-44.07
-51.03
-58.86
-66.64
-72.95
-76.27
-75.48
-70.22
-61.01
-48.89
-35.16
-20.88
-6.79
6.61
18.95
29.84
38.83
45.59
49.97
52.16
52.59
51.78
50.26
48.38
46.38
44.37
42.40
40.53
38.78
37.15
35.61
34.11
32.57
30.83
28.69
25.93
22.35
17.89
12.65
6.90
0.95
-4.94
-10.57
-15.92
-21.05
-26.07
-31.19
-36.67
-42.77
-49.53
-56.67
-63.37
-68.51
-70.89
-69.63
-64.47
-55.80
-44.41
-31.32
-17.47
-3.62
9.54
21.42
31.47
39.19
44.38
47.16
47.94
47.34
45.93
44.14
42.17
39.98
37.44
34.41
30.87
26.84
22.43
17.78
13.03
8.29
3.63
-0.96
-5.55
-10.27
-15.25
-20.60
-26.48
-33.22
-41.36
-51.54
-64.11
-78.66
-93.69
-106.76
-115.16
-116.82
-111.23
-99.82
-85.62
-72.24
-62.61
-57.98
-57.68
-59.56
-61.01
-59.92
-55.32
-47.47
-37.51
-26.94
-17.18
-9.14
-3.24
0.69
3.30
5.49
8.14
11.92
17.23
24.29
33.42
45.21
60.42
79.55
102.45
127.80
152.99
174.47
188.60
192.73
186.23
170.78
149.93
127.86
108.02
92.14
80.09
70.66
62.67
55.87
51.13
49.82
52.71
59.13
66.63
71.59
70.33
60.47
41.93
17.09
-9.84
-34.04
-51.34
-59.20
-57.21
-47.02
-31.82
-15.67
-2.64
4.14
3.02
-5.95
-21.39
-41.19
-63.17
-85.26
-105.51
-122.03
-133.25
-138.61
-139.13
-137.59
-137.56
-141.98
-151.70
-164.84
-177.36
-184.61
-183.08
-171.60
-151.58
-126.13
-98.78
-72.31
-48.10
-26.41
-7.00
9.95
23.51
32.28
35.16
32.40
25.90
18.98
15.31
17.64
26.77
41.12
57.14
70.23
75.96
71.41
56.13
32.53
5.48
-18.92
-35.17
-39.90
-32.79
-16.35
5.31
27.99
48.51
65.18
77.54
85.83
90.59
92.50
92.43
91.33
89.99
88.77
87.60
86.22
84.51
82.69
81.25
80.56
80.53
80.40
78.90
74.54
66.21
53.66
37.79
20.64
4.90
-6.90
-13.49
-15.50
-15.61
-18.03
-27.37
-47.14
-78.51
-119.59
-165.63
-210.08
-246.25
-268.82
-274.74
-263.34
-235.78
-194.44
-142.73
-85.11
-27.00
25.83
68.57
98.73
116.81
125.97
130.52
134.28
139.37
146.01
153.09
159.07
162.78
163.76
162.31
159.19
155.28
151.16
146.85
141.73
134.84
125.35
112.98
98.17
81.76
64.60
47.13
29.35
11.14
-7.22
-24.84
-40.29
-52.20
-59.82
-63.36
-63.79
-62.25
-59.45
-55.44
-49.84
-42.50
-33.95
-25.50
-18.71
-14.56
-12.86
-12.33
-11.21
-8.12
-2.70
4.39
11.94
18.86
24.56
28.98
32.40
35.15
37.70
40.65
44.82
50.91
59.16
69.05
79.36
88.68
96.09
101.43
105.16
107.55
108.11
105.43
97.74
83.92
64.26
40.56
15.53
-8.19
-28.85
-45.83
-59.45
-70.27
-78.64
-84.40
-86.94
-85.50
-79.67
-69.71
-56.82
-43.02
-30.78
-22.32
-18.98
-20.78
-26.28
-32.88
-37.38
-36.90
-29.72
-15.92
2.63
22.80
41.28
55.56
64.47
68.11
67.35
63.27
56.76
48.61
39.52
30.28
21.59
13.84
6.97
0.53
-6.02
-12.93
-20.00
-26.59
-32.03
-36.16
-39.61
-43.80
-50.52
-61.22
-76.27
-94.68
-114.22
-132.06
-145.54
-152.73
-152.83
-146.14
-133.87
-117.84
-100.01
-82.13
-65.38
-50.37
-37.29
-26.22
-17.35
-11.09
-7.82
-7.58
-9.78
-13.24
-16.48
-18.20
-17.74
-15.26
-11.47
-7.31
-3.53
-0.50
1.73
3.23
3.99
3.83
2.62
0.41
-2.49
-5.55
-8.25
-10.33
-11.88
-13.28
-15.11
-17.84
-21.79
-26.89
-32.72
-38.48
-43.23
-46.04
-46.28
-43.81
-38.95
-32.31
-24.62
-16.52
-8.48
-0.83
6.20
12.40
17.66
21.97
25.46
28.41
31.09
33.71
36.28
38.58
40.26
40.90
40.30
38.46
35.66
32.32
28.84
25.47
22.32
19.40
16.65
14.05
11.55
9.09
6.53
3.66
0.25
-3.85
-8.66
-14.13
-20.12
-26.48
-33.04
-39.46
-45.21
-49.51
-51.53
-50.61
-46.52
-39.55
-30.40
-19.94
-9.03
1.66
11.62
20.44
27.70
33.11
36.47
37.86
37.59
36.17
34.17
32.08
30.17
28.52
26.99
25.48
23.90
22.31
20.79
19.38
17.96
16.31
14.20
11.52
8.37
4.95
1.50
-1.86
-5.16
-8.53
-12.11
-16.04
-20.48
-25.59
-31.54
-38.25
-45.20
-51.37
-55.44
-56.22
-53.11
-46.35
-36.84
-25.83
-14.44
-3.40
6.88
16.09
23.90
29.91
33.82
35.63
35.70
34.68
33.19
31.71
30.42
29.27
28.07
26.65
24.94
23.04
21.15
19.45
18.02
16.73
15.23
13.13
10.12
6.18
1.54
-3.37
-8.13
-12.47
-16.41
-20.16
-24.04
-28.41
-33.49
-39.35
-45.70
-51.85
-56.72
-59.06
-57.80
-52.43
-43.28
-31.41
-18.31
-5.48
6.01
15.55
22.96
28.20
31.33
32.41
31.71
29.74
27.23
24.91
23.27
22.36
21.87
21.38
20.60
19.56
18.46
17.50
16.64
15.57
13.85
11.13
7.35
2.78
-2.16
-7.02
-11.49
-15.51
-19.22
-22.90
-26.97
-31.79
-37.57
-44.13
-50.78
-56.42
-59.72
-59.56
-55.38
-47.33
-36.26
-23.48
-10.40
1.77
12.22
20.53
26.64
30.76
33.20
34.30
34.41
33.80
32.71
31.27
29.57
27.65
25.57
23.46
21.56
20.07
19.05
18.33
17.49
16.01
13.51
9.92
5.47
0.59
-4.30
-8.97
-13.45
-17.92
-22.62
-27.76
-33.57
-40.15
-47.37
-54.69
-61.09
-65.17
-65.59
-61.55
-53.08
-41.13
-27.24
-13.00
0.30
11.92
21.55
29.16
34.76
38.40
40.18
40.35
39.32
37.54
35.46
33.34
31.29
29.30
27.38
25.59
24.06
22.94
22.21
21.64
20.80
19.18
16.44
12.58
7.90
2.94
-1.84
-6.24
-10.41
-14.72
-19.64
-25.50
-32.36
-39.95
-47.60
-54.31
-58.87
-60.10
-57.20
-50.03
-39.27
-26.26
-12.63
0.18
11.23
20.16
27.07
32.19
35.70
37.67
38.18
37.42
35.74
33.62
31.51
29.64
28.02
26.46
24.79
22.96
21.12
19.49
18.17
17.03
15.66
13.64
10.64
6.63
1.89
-3.13
-8.02
-12.56
-16.72
-20.74
-24.97
-29.80
-35.51
-42.01
-48.71
-54.55
-58.23
-58.65
-55.24
-48.14
-38.02
-25.80
-12.43
1.26
14.48
26.38
36.18
43.28
47.52
49.21
49.06
47.80
45.96
43.81
41.41
38.82
36.21
33.81
31.85
30.31
29.07
27.81
26.20
24.04
21.20
17.68
13.59
9.06
4.26
-0.58
-5.33
-9.91
-14.38
-18.92
-23.77
-29.16
-35.25
-41.99
-49.00
-55.50
-60.34
-62.21
-60.04
-53.36
-42.55
-28.78
-13.69
1.11
14.39
25.44
33.99
40.00
43.51
44.74
44.04
42.03
39.42
36.88
34.79
33.22
31.96
30.73
29.38
27.92
26.50
25.29
24.26
23.20
21.70
19.37
15.96
11.49
6.28
0.81
-4.41
-9.11
-13.27
-17.16
-21.18
-25.79
-31.32
-37.83
-44.98
-51.95
-57.52
-60.30
-59.19
-53.70
-44.22
-31.92
-18.35
-5.00
7.07
17.33
25.60
31.83
35.98
37.99
37.98
36.37
33.83
31.16
28.92
27.34
26.20
25.13
23.81
22.22
20.60
19.23
18.21
17.28
15.93
13.63
10.14
5.60
0.53
-4.46
-8.87
-12.57
-15.75
-18.86
-22.50
-27.25
-33.43
-40.88
-48.80
-55.82
-60.24
-60.61
-56.16
-47.13
-34.65
-20.38
-6.03
7.07
18.12
26.80
33.07
37.05
38.90
38.91
37.52
35.28
32.79
30.51
28.65
27.08
25.55
23.82
21.83
19.83
18.14
17.00
16.33
15.72
14.54
12.20
8.43
3.37
-2.42
-8.20
-13.37
-17.68
-21.33
-24.88
-29.12
-34.66
-41.76
-49.93
-58.01
-64.32
-67.22
-65.56
-59.06
-48.45
-35.11
-20.63
-6.39
6.68
18.04
27.38
34.43
39.03
41.20
41.29
39.97
38.01
36.02
34.32
32.82
31.28
29.45
27.30
25.03
22.96
21.33
20.09
18.93
17.36
14.89
11.29
6.58
1.07
-4.75
-10.45
-15.73
-20.56
-25.17
-30.02
-35.63
-42.41
-50.51
-59.62
-68.97
-77.46
-83.83
-87.09
-86.65
-82.56
-75.33
-65.85
-55.15
-44.29
-34.32
-26.25
-20.92
-18.78
-19.73
-22.99
-27.38
-31.76
-35.57
-39.04
-43.05
-48.67
-56.36
-65.78
-75.63
-84.15
-89.63
-90.69
-86.49
-76.67
-61.41
-41.84
-20.35
-0.36
14.70
22.91
24.91
23.59
22.44
23.45
25.74
26.20
21.73
11.86
-0.26
-9.04
-9.50
-0.09
16.41
34.37
48.41
56.03
58.35
58.80
60.94
66.71
75.97
87.36
99.30
110.84
121.62
131.43
139.80
146.05
149.76
151.24
151.75
153.17
157.17
164.30
173.49
182.33
188.00
188.46
183.37
174.16
163.28
153.08
144.93
139.02
134.99
132.45
131.40
131.86
133.30
134.36
133.21
128.54
120.33
110.24
100.85
94.35
91.27
89.87
86.76
78.31
62.19
38.35
9.05
-22.05
-51.18
-75.53
-93.88
-106.66
-115.63
-123.30
-132.12
-143.55
-157.45
-171.89
-183.75
-189.98
-188.89
-180.93
-168.63
-155.44
-144.44
-137.24
-133.85
-133.03
-133.30
-133.40
-132.55
-130.20
-125.80
-118.86
-109.20
-97.16
-83.56
-69.52
-56.00
-43.63
-32.83
-23.94
-17.51
-14.19
-14.47
-18.28
-24.85
-32.84
-40.79
-47.58
-52.73
-56.33
-58.85
-60.78
-62.55
-64.52
-66.89
-69.55
-71.84
-72.31
-69.04
-60.28
-45.40
-25.44
-2.98
18.73
37.04
50.85
60.91
69.25
78.00
88.30
99.67
110.23
117.54
119.66
115.84
106.64
93.44
77.67
60.38
42.18
23.63
5.79
-9.56
-20.26
-24.53
-21.78
-13.00
-0.60
12.35
22.98
29.44
31.31
29.46
25.60
21.52
18.44
16.59
15.26
13.16
8.91
1.50
-9.33
-22.99
-38.02
-52.30
-63.38
-69.11
-68.18
-60.62
-48.01
-33.05
-18.87
-8.10
-2.10
-0.78
-2.84
-6.41
-9.58
-10.92
-9.62
-5.59
0.55
7.57
13.84
17.65
17.72
13.57
5.83
-3.90
-13.51
-20.91
-24.62
-24.11
-19.93
-13.45
-6.47
-0.71
2.64
3.23
1.50
-1.45
-4.43
-6.53
-7.46
-7.58
-7.71
-8.83
-11.82
-17.23
-25.15
-35.08
-45.92
-56.00
-63.43
-66.60
-64.64
-57.72
-46.91
-33.81
-19.93
-6.38
6.24
17.66
27.67
35.97
42.20
46.14
47.83
47.65
46.17
43.96
41.54
39.23
37.20
35.54
34.21
33.15
32.19
31.12
29.72
27.83
25.44
22.63
19.55
16.28
12.87
9.29
5.52
1.63
-2.32
-6.22
-10.08
-13.97
-18.05
-22.42
-27.16
-32.23
-37.63
-43.39
-49.48
-55.65
-61.27
-65.31
-66.58
-64.13
-57.61
-47.51
-35.04
-21.76
-9.14
1.82
10.68
17.51
22.62
26.30
28.77
30.15
30.60
30.39
29.85
29.25
28.69
28.05
27.16
25.91
24.40
22.87
21.58
20.68
20.12
19.67
19.08
18.15
16.81
15.04
12.83
10.16
7.02
3.38
-0.72
-5.14
-9.63
-13.88
-17.59
-20.64
-23.19
-25.60
-28.42
-32.11
-36.78
-42.18
-47.56
-51.90
-54.10
-53.28
-48.99
-41.34
-30.88
-18.48
-5.12
8.30
21.04
32.47
42.13
49.70
55.11
58.61
60.71
62.15
63.60
65.54
68.12
71.20
74.45
77.52
80.23
82.54
84.66
86.89
89.56
92.92
97.05
101.80
106.84
111.59
115.34
117.37
117.23
115.01
111.41
107.59
104.69
103.27
103.03
103.06
102.42
100.87
99.16
98.70
100.70
105.49
112.22
119.38
125.59
130.25
133.68
136.55
139.29
141.63
142.83
142.10
139.16
134.39
128.54
122.35
116.14
109.83
103.01
95.24
86.28
76.12
65.07
53.58
42.19
31.38
21.51
12.83
5.63
0.24
-2.99
-3.90
-2.73
-0.26
2.37
3.97
3.71
1.38
-2.79
-8.41
-15.40
-23.97
-34.55
-47.39
-62.44
-79.29
-97.42
-116.18
-134.78
-152.13
-166.73
-177.01
-181.76
-180.77
-174.91
-165.98
-156.07
-146.90
-139.62
-134.82
-132.84
-133.85
-137.81
-144.06
-151.17
-157.05
-159.48
-156.78
-148.47
-135.40
-119.52
-103.20
-88.61
-77.19
-69.49
-65.26
-63.69
-63.76
-64.48
-65.12
-65.29
-64.98
-64.46
-64.12
-64.22
-64.83
-65.79
-66.94
-68.17
-69.54
-71.31
-73.69
-76.98
-81.30
-86.61
-92.49
-98.02
-101.80
-102.28
-98.22
-89.27
-76.13
-60.43
-44.12
-28.81
-15.45
-4.27
4.89
12.14
17.38
20.29
20.68
18.63
14.69
9.63
4.19
-1.19
-6.52
-12.10
-18.30
-25.29
-32.90
-40.73
-48.36
-55.71
-63.13
-71.34
-81.07
-92.78
-106.33
-121.21
-136.69
-152.17
-167.38
-182.48
-197.89
-214.33
-232.71
-254.01
-278.82
-306.76
-336.01
-363.32
-384.65
-396.35
-396.24
-384.20
-362.01
-332.54
-298.82
-263.31
-227.70
-193.02
-159.93
-128.91
-100.39
-74.80
-52.63
-34.28
-20.00
-9.46
-1.65
4.92
11.89
20.67
32.04
45.72
60.04
71.96
77.79
74.55
61.41
40.59
16.84
-4.28
-18.60
-24.80
-24.52
-20.91
-16.90
-13.92
-11.89
-10.11
-8.30
-6.99
-7.01
-8.83
-12.07
-15.64
-18.42
-19.76
-19.98
-20.05
-21.02
-23.29
-26.23
-28.24
-27.28
-21.68
-10.72
5.03
24.00
44.11
63.53
80.98
96.02
108.88
120.19
130.78
141.34
152.36
163.98
176.04
188.27
200.41
212.46
224.72
237.76
252.25
268.90
288.46
311.51
338.03
366.73
394.78
417.99
431.95
433.51
422.08
399.80
370.69
339.02
307.90
278.68
251.42
225.70
201.46
179.04
158.82
140.62
123.56
106.33
87.84
67.94
47.61
28.96
14.39
5.79
3.67
6.99
13.47
20.57
26.39
30.19
32.40
33.89
35.32
36.67
37.33
36.55
34.00
30.08
25.68
21.80
19.07
17.52
16.70
15.94
14.75
12.91
10.48
7.64
4.62
1.58
-1.40
-4.22
-6.88
-9.39
-11.92
-14.67
-17.89
-21.66
-25.87
-30.25
-34.45
-38.23
-41.53
-44.55
-47.63
-51.22
-55.72
-61.39
-68.15
-75.43
-82.09
-86.60
-87.46
-83.73
-75.44
-63.69
-50.29
-37.14
-25.66
-16.53
-9.79
-5.16
-2.38
-1.35
-2.02
-4.29
-7.81
-12.12
-16.78
-21.48
-26.08
-30.57
-34.91
-38.99
-42.63
-45.66
-48.03
-49.83
-51.24
-52.47
-53.67
-54.84
-55.98
-57.04
-58.10
-59.36
-61.08
-63.45
-66.41
-69.64
-72.64
-74.98
-76.44
-77.13
-77.45
-77.90
-78.92
-80.76
-83.41
-86.37
-88.72
-89.15
-86.30
-79.19
-67.73
-52.91
-36.56
-20.86
-7.62
2.15
8.40
11.77
13.15
13.31
12.66
11.34
9.34
6.73
3.71
0.65
-2.09
-4.20
-5.59
-6.38
-6.89
-7.61
-9.04
-11.60
-15.46
-20.43
-25.95
-31.23
-35.53
-38.40
-39.90
-40.60
-41.39
-43.20
-46.61
-51.69
-57.91
-64.24
-69.50
-72.60
-72.94
-70.58
-66.20
-60.98
-56.12
-52.43
-49.95
-47.83
-44.51
-38.30
-28.08
-13.71
3.84
22.85
41.48
58.34
72.74
84.60
94.22
101.83
107.56
111.46
113.68
114.54
114.49
113.97
113.28
112.58
111.90
111.30
110.80
110.41
109.97
109.23
107.87
105.66
102.53
98.65
94.23
89.45
84.36
78.90
73.01
66.71
60.14
53.50
46.91
40.41
33.93
27.37
20.63
13.60
6.17
-1.89
-10.74
-20.33
-30.13
-39.01
-45.40
-47.76
-45.17
-37.72
-26.52
-13.33
0.06
12.35
22.93
31.74
38.92
44.57
48.63
51.05
51.93
51.64
50.72
49.74
49.09
48.87
48.92
48.88
48.39
47.26
45.53
43.45
41.39
39.55
37.92
36.20
33.97
30.88
26.82
21.88
16.36
10.56
4.76
-0.87
-6.24
-11.33
-16.28
-21.37
-27.04
-33.72
-41.54
-50.18
-58.70
-65.74
-69.78
-69.65
-64.82
-55.65
-43.24
-29.08
-14.67
-1.10
10.95
21.25
29.76
36.45
41.30
44.33
45.76
45.95
45.46
44.81
44.39
44.34
44.56
44.77
44.68
44.09
42.98
41.49
39.87
38.30
36.75
35.01
32.70
29.39
24.84
19.06
12.38
5.34
-1.49
-7.67
-13.07
-17.87
-22.57
-27.72
-33.84
-41.18
-49.63
-58.60
-67.01
-73.34
-76.06
-73.99
-66.81
-55.22
-40.80
-25.49
-11.01
1.61
12.11
20.79
28.09
34.28
39.37
43.16
45.52
46.46
46.28
45.45
44.45
43.58
42.92
42.30
41.50
40.32
38.73
36.86
34.94
33.12
31.41
29.68
27.66
25.12
21.91
18.01
13.56
8.77
3.92
-0.77
-5.22
-9.52
-13.92
-18.77
-24.40
-31.03
-38.72
-47.22
-55.86
-63.56
-68.86
-70.31
-66.89
-58.46
-45.89
-30.94
-15.67
-1.82
9.57
18.37
25.01
30.15
34.25
37.47
39.75
41.01
41.30
40.87
40.11
39.28
38.53
37.77
36.87
35.74
34.45
33.14
31.94
30.82
29.58
27.93
25.68
22.81
19.47
15.92
12.35
8.80
5.17
1.30
-2.87
-7.29
-11.83
-16.35
-20.83
-25.36
-30.18
-35.62
-41.92
-49.08
-56.64
-63.57
-68.39
-69.63
-66.28
-58.28
-46.59
-32.86
-18.89
-6.07
4.93
14.02
21.39
27.19
31.40
34.00
35.09
35.06
34.47
33.85
33.53
33.54
33.71
33.84
33.76
33.47
33.02
32.44
31.74
30.87
29.81
28.52
26.97
25.07
22.66
19.65
16.03
12.02
8.02
4.45
1.56
-0.60
-2.25
-3.79
-5.71
-8.46
-12.37
-17.46
-23.29
-28.83
-32.62
-33.16
-29.37
-21.08
-9.16
4.76
18.78
31.35
41.63
49.52
55.40
59.77
62.90
64.62
64.49
61.96
56.73
48.90
39.12
28.35
17.58
7.60
-1.19
-8.74
-15.25
-20.85
-25.62
-29.55
-32.54
-34.63
-35.97
-36.89
-37.81
-39.17
-41.30
-44.37
-48.30
-52.82
-57.55
-62.22
-66.76
-71.42
-76.69
-83.12
-91.02
-100.25
-110.00
-118.87
-125.12
-127.06
-123.52
-114.13
-99.49
-80.96
-60.44
-39.83
-20.73
-4.16
9.47
20.24
28.54
34.81
39.50
42.99
45.58
47.49
48.90
49.88
50.41
50.44
49.97
49.07
47.93
46.76
45.68
44.61
43.35
41.60
39.20
36.11
32.51
28.62
24.63
20.63
16.58
12.42
8.13
3.76
-0.54
-4.70
-8.68
-12.59
-16.63
-21.05
-26.15
-32.15
-39.01
-46.36
-53.30
-58.54
-60.71
-58.80
-52.57
-42.70
-30.62
-18.05
-6.41
3.52
11.59
18.13
23.50
27.89
31.23
33.39
34.32
34.21
33.41
32.30
31.18
30.15
29.20
28.29
27.39
26.58
25.91
25.40
24.94
24.28
23.10
21.15
18.32
14.74
10.77
6.81
3.18
-0.06
-3.11
-6.32
-9.91
-13.91
-18.00
-21.79
-24.97
-27.56
-29.88
-32.49
-35.95
-40.57
-46.20
-52.21
-57.50
-60.75
-60.80
-57.00
-49.54
-39.36
-27.87
-16.49
-6.24
2.43
9.51
15.23
19.79
23.26
25.70
27.17
27.87
28.04
27.88
27.51
26.95
26.19
25.25
24.18
23.08
22.01
20.96
19.82
18.42
16.62
14.36
11.73
8.96
6.25
3.77
1.50
-0.76
-3.29
-6.29
-9.81
-13.67
-17.57
-21.19
-24.38
-27.21
-29.93
-32.89
-36.46
-40.86
-46.08
-51.70
-56.87
-60.41
-61.09
-58.06
-51.17
-41.14
-29.28
-17.11
-5.80
4.02
12.24
18.95
24.23
28.02
30.20
30.83
30.20
28.87
27.39
26.18
25.41
25.01
24.80
24.65
24.50
24.29
23.96
23.38
22.42
21.03
19.24
17.21
15.10
12.98
10.79
8.37
5.55
2.28
-1.29
-4.91
-8.27
-11.20
-13.75
-16.16
-18.82
-22.12
-26.30
-31.31
-36.72
-41.72
-45.20
-46.05
-43.42
-37.12
-27.60
-15.96
-3.52
8.51
19.27
28.39
35.79
41.60
45.95
48.96
50.66
51.05
50.08
47.66
43.77
38.55
32.36
25.73
19.19
13.20
8.01
3.70
0.34
-2.03
-3.38
-3.85
-3.82
-3.94
-4.92
-7.29
-11.11
-15.98
-21.09
-25.61
-28.97
-31.08
-32.29
-33.19
-34.32
-36.11
-38.79
-42.57
-47.55
-53.64
-60.26
-66.27
-70.10
-70.28
-65.97
-57.38
-45.77
-32.96
-20.70
-10.09
-1.41
5.70
11.77
17.17
21.89
25.67
28.29
29.74
30.29
30.39
30.40
30.47
30.50
30.24
29.54
28.44
27.12
25.73
24.26
22.56
20.38
17.64
14.53
11.37
8.44
5.76
3.00
-0.27
-4.29
-8.96
-13.82
-18.35
-22.26
-25.63
-28.90
-32.59
-37.06
-42.41
-48.44
-54.75
-60.70
-65.51
-68.22
-67.91
-64.03
-56.66
-46.54
-34.96
-23.21
-12.26
-2.51
6.12
13.83
20.74
26.72
31.56
35.13
37.54
39.10
40.17
40.99
41.55
41.58
40.77
38.88
35.87
31.93
27.39
22.60
17.83
13.22
8.78
4.48
0.28
-3.87
-8.01
-12.21
-16.57
-21.12
-25.84
-30.64
-35.37
-39.96
-44.38
-48.71
-53.15
-57.98
-63.60
-70.45
-78.79
-88.50
-98.83
-108.28
-114.98
-117.14
-113.81
-105.14
-92.44
-77.61
-62.43
-48.00
-34.61
-22.06
-10.18
0.82
10.35
17.74
22.77
25.82
27.74
29.44
31.44
33.70
35.84
37.43
38.35
38.88
39.45
40.42
41.78
43.13
43.88
43.51
41.81
38.89
35.17
31.10
26.98
22.89
18.69
14.24
9.43
4.29
-1.05
-6.42
-11.77
-17.15
-22.75
-28.72
-35.05
-41.32
-46.70
-50.00
-50.08
-46.21
-38.39
-27.41
-14.60
-1.37
11.17
22.31
31.75
39.33
44.88
48.25
49.39
48.43
45.84
42.29
38.54
35.22
32.69
30.88
29.45
27.90
25.86
23.27
20.42
17.80
15.86
14.80
14.44
14.37
14.08
13.20
11.57
9.22
6.32
3.09
-0.32
-3.83
-7.48
-11.44
-15.93
-21.22
-27.46
-34.50
-41.73
-48.14
-52.40
-53.30
-50.16
-43.06
-32.89
-21.04
-8.94
2.29
12.10
20.40
27.35
33.09
37.65
41.00
43.11
44.16
44.46
44.34
44.04
43.61
42.93
41.84
40.23
38.15
35.81
33.45
31.31
29.52
28.02
26.60
24.88
22.47
19.10
14.72
9.64
4.34
-0.65
-5.00
-8.67
-11.95
-15.30
-19.22
-24.13
-30.24
-37.43
-45.06
-52.03
-56.91
-58.29
-55.32
-48.03
-37.43
-25.13
-12.84
-1.83
7.36
14.85
21.08
26.43
31.04
34.78
37.43
38.88
39.26
38.92
38.24
37.52
36.81
36.02
34.96
33.59
31.99
30.35
28.83
27.41
25.90
24.04
21.57
18.36
14.45
9.97
5.17
0.28
-4.47
-8.92
-13.03
-16.93
-20.83
-25.05
-29.86
-35.41
-41.63
-48.11
-54.06
-58.41
-60.06
-58.18
-52.52
-43.56
-32.38
-20.28
-8.47
2.26
11.52
19.25
25.49
30.27
33.53
35.32
35.80
35.36
34.51
33.81
33.61
34.04
34.95
35.95
36.65
36.70
35.95
34.44
32.41
30.13
27.84
25.60
23.26
20.56
17.25
13.27
8.76
4.07
-0.42
-4.47
-8.06
-11.31
-14.38
-17.45
-20.60
-24.03
-28.02
-32.89
-38.72
-45.06
-50.82
-54.53
-54.80
-50.90
-43.10
-32.57
-20.90
-9.56
0.54
9.07
16.18
22.05
26.75
30.23
32.42
33.46
33.61
33.25
32.69
32.08
31.38
30.47
29.27
27.80
26.24
24.75
23.44
22.27
21.13
19.82
18.21
16.21
13.79
10.94
7.68
4.04
0.10
-3.98
-8.01
-11.78
-15.16
-18.19
-21.03
-23.99
-27.47
-31.81
-37.18
-43.39
-49.82
-55.41
-58.95
-59.35
-56.03
-49.13
-39.51
-28.45
-17.27
-7.05
1.67
8.73
14.26
18.47
21.51
23.54
24.70
25.26
25.51
25.75
26.12
26.59
26.94
26.86
26.13
24.71
22.79
20.71
18.86
17.42
16.32
15.23
13.69
11.36
8.15
4.25
0.09
-3.85
-7.26
-10.04
-12.32
-14.43
-16.72
-19.54
-23.20
-27.80
-33.19
-38.71
-43.28
-45.60
-44.54
-39.60
-31.14
-20.27
-8.40
3.16
13.69
23.00
31.25
38.54
44.70
49.26
51.73
51.88
49.98
46.77
43.34
40.78
39.96
41.31
44.77
49.80
55.45
60.50
63.68
63.89
60.41
53.11
42.47
29.40
15.03
0.35
-13.91
-27.39
-39.83
-50.97
-60.37
-67.52
-72.06
-74.07
-74.18
-73.54
-73.41
-74.78
-77.98
-82.60
-87.50
-91.19
-92.15
-89.29
-82.17
-71.22
-57.51
-42.55
-27.75
-14.16
-2.26
7.92
16.58
23.81
29.49
33.45
35.55
36.00
35.34
34.23
33.21
32.44
31.77
30.86
29.47
27.63
25.64
23.86
22.49
21.51
20.61
19.41
17.59
15.00
11.72
7.97
4.06
0.22
-3.42
-6.84
-10.15
-13.48
-16.91
-20.46
-24.15
-28.05
-32.38
-37.32
-42.82
-48.34
-52.84
-55.03
-53.81
-48.75
-40.34
-29.73
-18.38
-7.50
2.22
10.63
17.88
24.12
29.28
33.16
35.59
36.59
36.41
35.48
34.22
32.89
31.60
30.35
29.14
27.98
26.92
25.92
24.83
23.45
21.61
19.33
16.79
14.26
11.91
9.71
7.43
4.75
1.44
-2.51
-6.84
-11.13
-14.97
-18.12
-20.62
-22.81
-25.21
-28.35
-32.57
-37.80
-43.48
-48.65
-52.16
-52.94
-50.38
-44.44
-35.73
-25.30
-14.39
-4.10
4.83
12.06
17.62
21.77
24.76
26.78
27.95
28.36
28.17
27.64
27.04
26.57
26.25
25.95
25.46
24.62
23.39
21.90
20.31
18.77
17.29
15.77
14.01
11.81
9.04
5.73
2.04
-1.77
-5.43
-8.79
-11.83
-14.66
-17.41
-20.24
-23.29
-26.71
-30.62
-35.07
-39.84
-44.33
-47.57
-48.46
-46.18
-40.54
-32.14
-22.14
-11.82
-2.21
6.18
13.28
19.23
24.05
27.59
29.62
30.02
29.04
27.25
25.35
23.96
23.38
23.54
24.06
24.47
24.33
23.43
21.73
19.45
16.90
14.39
12.17
10.26
8.51
6.59
4.20
1.19
-2.39
-6.27
-10.17
-13.86
-17.26
-20.45
-23.58
-26.90
-30.72
-35.27
-40.62
-46.41
-51.75
-55.39
-56.07
-53.03
-46.30
-36.80
-25.93
-15.09
-5.22
3.30
10.55
16.72
21.89
25.95
28.69
30.09
30.35
29.92
29.29
28.80
28.54
28.36
27.98
27.23
26.03
24.47
22.71
20.87
19.00
17.06
14.94
12.57
9.89
6.92
3.70
0.27
-3.30
-6.95
-10.61
-14.18
-17.58
-20.79
-23.90
-27.12
-30.74
-35.06
-40.23
-46.11
-52.17
-57.49
-60.93
-61.45
-58.43
-51.87
-42.48
-31.40
-19.92
-9.08
0.46
8.52
15.19
20.64
24.93
28.09
30.06
30.91
30.84
30.18
29.31
28.54
27.98
27.58
27.15
26.55
25.69
24.64
23.49
22.28
20.95
19.33
17.24
14.60
11.49
8.11
4.75
1.61
-1.27
-3.98
-6.75
-9.72
-13.01
-16.58
-20.38
-24.46
-28.92
-34.00
-39.80
-46.16
-52.44
-57.59
-60.33
-59.58
-54.91
-46.66
-35.97
-24.30
-12.97
-2.79
5.97
13.47
19.88
25.27
29.48
32.40
34.06
34.76
34.93
34.96
35.03
35.08
34.92
34.42
33.58
32.55
31.46
30.39
29.22
27.80
25.98
23.73
21.17
18.43
15.58
12.57
9.23
5.43
1.15
-3.40
-7.89
-12.00
-15.57
-18.70
-21.73
-25.07
-29.05
-33.88
-39.57
-45.86
-52.19
-57.70
-61.30
-61.90
-58.78
-51.94
-42.09
-30.54
-18.72
-7.77
1.73
9.71
16.40
21.99
26.55
30.02
32.36
33.64
34.06
33.90
33.43
32.85
32.27
31.75
31.27
30.78
30.18
29.38
28.30
26.92
25.27
23.37
21.22
18.76
15.97
12.84
9.45
5.91
2.38
-1.04
-4.31
-7.46
-10.54
-13.66
-16.90
-20.39
-24.34
-28.99
-34.50
-40.78
-47.24
-52.87
-56.37
-56.57
-52.93
-45.70
-35.90
-24.97
-14.21
-4.46
3.97
11.15
17.24
22.23
26.00
28.40
29.48
29.54
29.06
28.53
28.31
28.49
28.90
29.30
29.42
29.10
28.31
27.06
25.46
23.59
21.49
19.20
16.72
13.99
10.96
7.57
3.88
0.00
-3.87
-7.55
-10.98
-14.23
-17.53
-21.11
-25.24
-30.03
-35.48
-41.38
-47.29
-52.47
-55.94
-56.73
-54.11
-47.92
-38.72
-27.68
-16.18
-5.44
3.86
11.59
18.06
23.69
28.66
32.90
36.17
38.29
39.34
39.67
39.80
40.18
40.93
41.89
42.66
42.90
42.43
41.40
40.14
38.99
38.14
37.50
36.74
35.45
33.36
30.42
26.81
22.83
18.73
14.57
10.29
5.73
0.82
-4.44
-10.02
-15.95
-22.33
-29.20
-36.36
-43.22
-48.80
-52.01
-52.00
-48.54
-42.08
-33.65
-24.49
-15.66
-7.71
-0.69
5.66
11.55
16.95
21.42
24.31
25.05
23.45
19.78
14.69
8.94
3.12
-2.49
-7.84
-12.95
-17.75
-21.97
-25.27
-27.26
-27.68
-26.43
-23.66
-19.77
-15.44
-11.45
-8.59
-7.31
-7.66
-9.25
-11.42
-13.60
-15.51
-17.26
-19.19
-21.72
-25.20
-29.73
-35.28
-41.53
-47.84
-53.29
-56.75
-57.23
-54.15
-47.55
-38.13
-26.96
-15.21
-3.88
6.27
14.77
21.35
25.99
28.89
30.55
31.62
32.78
34.51
37.04
40.25
43.77
47.10
49.69
51.08
50.97
49.31
46.28
42.34
38.01
33.80
30.07
26.90
24.16
21.56
18.82
15.77
12.41
8.85
5.25
1.73
-1.69
-5.04
-8.40
-11.84
-15.45
-19.41
-23.99
-29.54
-36.20
-43.71
-51.18
-57.23
-60.36
-59.46
-54.31
-45.75
-35.38
-25.04
-16.24
-9.69
-5.25
-2.14
0.57
3.56
6.86
9.89
11.70
11.46
8.92
4.64
-0.20
-4.20
-6.31
-6.09
-3.82
-0.25
3.46
5.89
5.68
2.01
-4.72
-12.33
-16.94
-14.05
-0.21
25.21
59.24
95.88
127.98
149.28
155.97
147.06
123.85
88.99
45.62
-3.18
-54.44
-105.26
-152.75
-194.20
-227.48
-251.45
-266.14
-272.64
-272.43
-266.69
-255.78
-239.18
-216.17
-186.68
-152.03
-115.00
-79.11
-47.51
-21.93
-2.39
12.46
24.50
35.33
45.85
56.27
66.50
76.35
85.58
93.70
99.86
103.06
102.74
99.25
93.96
88.77
85.21
83.68
83.31
82.60
80.23
75.70
69.45
62.38
55.36
48.80
42.67
36.65
30.42
23.71
16.29
8.07
-0.81
-9.81
-17.95
-24.01
-26.92
-26.12
-21.83
-14.95
-6.74
1.67
9.51
16.55
22.86
28.61
33.83
38.41
42.11
44.79
46.46
47.32
47.64
47.70
47.59
47.28
46.66
45.72
44.56
43.38
42.34
41.42
40.29
38.44
35.30
30.56
24.31
17.08
9.67
2.80
-3.17
-8.40
-13.50
-19.19
-25.97
-33.90
-42.57
-51.33
-59.46
-66.29
-71.20
-73.57
-72.91
-69.05
-62.35
-53.84
-44.86
-36.66
-29.85
-24.30
-19.27
-13.90
-7.73
-0.92
5.85
11.63
15.65
17.61
17.82
17.18
16.90
18.18
21.86
28.12
36.32
45.09
52.60
56.92
56.58
50.86
40.10
25.64
9.48
-6.23
-19.77
-30.17
-37.38
-41.96
-44.78
-46.72
-48.52
-50.80
-53.95
-58.08
-62.76
-67.05
-69.64
-69.31
-65.36
-57.94
-47.99
-36.84
-25.82
-15.85
-7.28
-0.04
6.16
11.55
16.18
19.97
22.81
24.67
25.70
26.19
26.51
26.94
27.63
28.51
29.38
30.06
30.50
30.87
31.50
32.67
34.42
36.39
37.98
38.53
37.73
35.67
32.69
29.10
24.77
19.22
11.83
2.30
-9.03
-21.20
-32.97
-43.16
-50.98
-55.95
-57.83
-56.48
-51.94
-44.55
-35.12
-24.76
-14.63
-5.46
2.62
10.13
17.81
26.28
35.70
45.63
55.33
63.97
71.05
76.46
80.41
83.23
85.16
86.19
86.21
85.18
83.22
80.69
78.02
75.50
73.11
70.47
66.97
62.12
55.69
47.93
39.49
31.17
23.66
17.30
11.98
7.21
2.32
-3.31
-10.08
-18.10
-27.11
-36.55
-45.59
-53.33
-58.94
-61.91
-62.08
-59.74
-55.41
-49.74
-43.33
-36.54
-29.50
-22.14
-14.36
-6.11
2.39
10.70
18.18
24.18
28.21
29.99
29.57
27.30
23.82
19.98
16.68
14.69
14.45
15.88
18.43
21.26
23.49
24.46
23.83
21.64
18.16
13.89
9.30
4.87
0.82
-2.88
-6.53
-10.60
-15.55
-21.51
-28.12
-34.49
-39.42
-41.73
-40.60
-35.80
-27.73
-17.23
-5.40
6.65
17.94
27.73
35.58
41.40
45.47
48.26
50.31
51.97
53.36
54.34
54.75
54.54
53.86
53.02
52.30
51.86
51.55
50.90
49.27
45.92
40.18
31.71
20.75
8.25
-4.12
-14.51
-21.48
-24.72
-25.36
-25.64
-28.02
-34.25
-44.61
-57.85
-71.69
-83.67
-91.84
-95.15
-93.38
-86.90
-76.39
-62.74
-47.06
-30.70
-15.10
-1.52
9.18
16.85
21.92
25.20
27.52
29.43
31.13
32.52
33.45
33.80
33.55
32.69
31.19
29.09
26.47
23.57
20.68
18.05
15.78
13.72
11.53
8.74
4.92
-0.19
-6.53
-13.73
-21.18
-28.28
-34.66
-40.33
-45.62
-50.92
-56.34
-61.50
-65.58
-67.62
-66.93
-63.36
-57.32
-49.46
-40.45
-30.66
-20.30
-9.51
1.38
11.73
20.82
28.04
33.17
36.48
38.63
40.30
41.95
43.59
44.91
45.43
44.86
43.25
41.06
38.97
37.69
37.78
39.50
42.81
47.35
52.47
57.37
61.21
63.36
63.59
62.12
59.48
56.22
52.53
48.14
42.45
34.90
25.43
14.68
3.82
-5.95
-13.90
-19.95
-24.61
-28.49
-31.89
-34.69
-36.51
-37.15
-37.03
-37.24
-39.21
-43.98
-51.55
-60.66
-69.10
-74.49
-75.15
-70.63
-61.70
-49.91
-36.92
-24.18
-12.82
-3.49
3.97
11.01
20.40
35.29
57.48
85.85
115.85
140.91
154.94
154.90
141.85
119.96
94.26
68.39
43.68
19.86
-3.34
-25.06
-43.28
-55.95
-62.25
-63.24
-61.33
-59.16
-58.32
-58.74
-58.98
-57.29
-52.58
-45.16
-36.60
-29.08
-24.57
-24.12
-27.61
-33.71
-40.19
-44.34
-43.69
-36.63
-23.03
-4.24
17.42
39.62
60.79
80.31
98.07
113.66
126.09
134.07
136.73
134.34
128.12
119.42
108.71
95.44
78.83
59.18
38.66
20.71
8.48
3.10
3.12
5.32
6.62
5.67
3.19
0.99
0.36
1.06
1.40
-0.49
-5.38
-12.29
-19.01
-23.37
-24.34
-22.43
-19.21
-16.42
-15.05
-15.13
-15.97
-16.67
-16.62
-15.68
-14.06
-12.13
-10.27
-8.83
-8.17
-8.68
-10.70
-14.44
-19.85
-26.65
-34.29
-42.14
-49.57
-56.09
-61.45
-65.75
-69.37
-72.95
-77.09
-82.12
-87.81
-93.30
-97.33
-98.59
-96.27
-90.27
-81.25
-70.33
-58.59
-46.80
-35.33
-24.26
-13.67
-3.80
5.01
12.38
18.06
22.00
24.33
25.26
25.04
23.92
22.22
20.27
18.46
17.05
16.17
15.70
15.35
14.76
13.68
12.07
10.03
7.70
5.13
2.15
-1.47
-5.92
-11.13
-16.76
-22.38
-27.66
-32.64
-37.63
-43.03
-48.92
-54.85
-59.79
-62.43
-61.58
-56.60
-47.62
-35.51
-21.61
-7.32
6.16
18.09
28.18
36.48
43.15
48.33
52.08
54.36
55.16
54.59
52.91
50.46
47.52
44.25
40.68
36.75
32.46
27.91
23.29
18.83
14.70
10.94
7.47
4.21
1.08
-1.94
-4.90
-7.95
-11.36
-15.47
-20.53
-26.57
-33.26
-39.96
-45.92
-50.53
-53.61
-55.49
-56.89
-58.52
-60.62
-62.72
-63.66
-62.08
-56.97
-48.09
-36.20
-22.70
-9.14
3.21
13.73
22.36
29.32
34.81
38.73
40.73
40.36
37.36
31.96
24.87
17.12
9.73
3.39
-1.64
-5.44
-8.11
-9.60
-9.77
-8.53
-6.02
-2.78
0.57
3.53
5.94
8.01
10.10
12.45
14.99
17.44
19.34
20.33
20.20
18.97
16.78
13.87
10.40
6.32
1.34
-4.93
-12.75
-21.85
-31.25
-39.38
-44.55
-45.56
-42.18
-35.29
-26.52
-17.66
-10.15
-4.70
-1.40
0.03
-0.10
-1.63
-4.73
-9.64
-16.60
-25.58
-36.20
-47.65
-58.84
-68.57
-75.83
-80.09
-81.42
-80.42
-78.02
-75.08
-72.04
-68.74
-64.61
-58.96
-51.51
-42.73
-33.71
-25.86
-20.29
-17.39
-16.78
-17.60
-19.02
-20.60
-22.45
-24.96
-28.62
-33.73
-40.43
-48.74
-58.47
-69.08
-79.51
-88.10
-92.96
-92.51
-85.98
-73.78
-57.35
-38.68
-19.75
-2.12
13.32
26.26
36.82
45.33
52.19
57.76
62.25
65.72
68.15
69.48
69.81
69.29
68.15
66.57
64.64
62.40
59.91
57.27
54.62
51.97
49.24
46.18
42.55
38.29
33.60
28.84
24.45
20.68
17.51
14.75
12.12
9.42
6.60
3.62
0.40
-3.30
-7.76
-13.09
-18.92
-24.25
-27.64
-27.60
-23.16
-14.29
-1.89
12.50
27.28
41.26
53.94
65.35
75.71
85.09
93.26
99.77
104.21
106.49
106.84
105.72
103.61
100.73
97.12
92.67
87.35
81.38
75.18
69.25
63.94
59.31
55.09
50.79
45.94
40.22
33.57
26.15
18.27
10.30
2.64
-4.30
-10.18
-14.81
-18.30
-21.22
-24.49
-29.15
-35.85
-44.50
-54.02
-62.64
-68.45
-70.12
-67.33
-60.83
-52.08
-42.66
-33.71
-25.77
-18.85
-12.80
-7.57
-3.32
-0.38
0.99
0.79
-0.68
-2.96
-5.67
-8.63
-11.95
-15.82
-20.32
-25.22
-29.97
-33.92
-36.62
-38.05
-38.64
-39.07
-39.99
-41.72
-44.14
-46.83
-49.25
-50.91
-51.56
-51.24
-50.24
-49.04
-48.13
-47.97
-48.86
-50.90
-53.86
-57.14
-59.78
-60.55
-58.32
-52.36
-42.68
-30.08
-15.86
-1.34
12.53
25.40
37.27
48.22
58.01
66.16
72.05
75.36
76.19
75.04
72.53
69.10
64.86
59.66
53.31
45.87
37.81
29.97
23.25
18.31
15.22
13.47
12.12
10.18
7.03
2.62
-2.50
-7.53
-11.75
-14.84
-16.93
-18.53
-20.28
-22.80
-26.55
-31.84
-38.72
-46.92
-55.63
-63.47
-68.71
-69.72
-65.56
-56.39
-43.39
-28.40
-13.26
0.66
12.73
22.84
31.13
37.71
42.64
45.99
47.96
48.89
49.14
48.97
48.44
47.47
45.94
43.75
40.92
37.65
34.24
31.05
28.41
26.46
25.10
23.94
22.47
20.20
16.81
12.18
6.44
-0.15
-7.22
-14.30
-20.93
-26.75
-31.72
-36.19
-40.92
-46.74
-54.12
-62.71
-71.23
-77.67
-79.97
-76.70
-67.57
-53.62
-36.76
-19.19
-2.72
11.65
23.70
33.74
42.21
49.38
55.28
59.79
62.81
64.34
64.47
63.29
60.86
57.28
52.73
47.60
42.49
38.00
34.52
32.06
30.25
28.52
26.34
23.45
19.93
16.06
12.13
8.30
4.52
0.59
-3.73
-8.49
-13.62
-18.88
-24.03
-28.93
-33.58
-38.19
-43.05
-48.51
-54.79
-61.76
-68.83
-74.81
-78.19
-77.52
-71.95
-61.59
-47.60
-31.80
-16.10
-1.92
10.06
19.74
27.38
33.18
37.25
39.60
40.34
39.76
38.32
36.52
34.69
32.94
31.16
29.19
26.94
24.51
22.18
20.23
18.80
17.71
16.48
14.51
11.29
6.61
0.69
-5.92
-12.49
-18.41
-23.29
-27.11
-30.14
-32.83
-35.68
-39.12
-43.41
-48.53
-54.14
-59.49
-63.50
-64.98
-62.93
-56.94
-47.38
-35.30
-22.13
-9.22
2.59
13.05
22.34
30.74
38.31
44.78
49.69
52.61
53.39
52.25
49.69
46.34
42.70
39.05
35.39
31.61
27.52
23.03
18.26
13.44
8.90
4.85
1.29
-2.06
-5.64
-9.83
-14.73
-20.11
-25.51
-30.51
-34.92
-38.84
-42.55
-46.44
-50.83
-56.00
-62.11
-69.01
-76.12
-82.23
-85.76
-85.18
-79.66
-69.46
-55.96
-41.12
-26.79
-14.16
-3.54
5.33
12.87
19.32
24.71
28.98
32.23
34.82
37.29
40.16
43.70
47.86
52.21
56.06
58.56
58.92
56.69
51.98
45.59
38.95
33.89
32.15
35.00
42.71
54.42
68.13
81.27
91.45
97.24
98.72
97.39
95.64
95.80
99.14
105.42
112.84
118.84
121.17
118.84
112.59
104.68
97.99
94.86
96.11
100.78
106.55
110.83
111.81
109.08
103.52
96.67
89.90
83.78
77.99
71.58
63.71
54.19
43.70
33.48
24.68
17.74
12.21
7.08
1.40
-5.17
-12.23
-19.12
-25.52
-31.83
-39.16
-48.67
-60.94
-75.53
-91.13
-106.13
-119.33
-130.41
-139.97
-149.11
-158.82
-169.48
-180.77
-191.93
-202.27
-211.68
-220.62
-229.70
-239.00
-247.48
-253.01
-253.02
-245.52
-229.93
-207.37
-180.24
-151.28
-122.66
-95.34
-69.26
-44.02
-19.60
3.18
22.90
38.15
48.35
54.01
56.59
57.87
59.16
60.92
62.76
63.89
63.69
62.11
59.74
57.42
55.91
55.39
55.39
54.97
53.22
49.67
44.57
38.64
32.70
27.11
21.70
15.96
9.53
2.55
-4.37
-10.46
-15.28
-19.02
-22.41
-26.48
-32.08
-39.60
-48.90
-59.22
-69.40
-77.96
-83.45
-84.69
-81.17
-73.16
-61.68
-48.14
-33.99
-20.35
-7.87
3.18
12.72
20.74
27.18
32.00
35.28
37.27
38.41
39.16
39.91
40.83
41.88
42.90
43.79
44.58
45.48
46.66
48.10
49.47
50.14
49.50
47.20
43.40
38.73
34.03
29.98
26.78
24.13
21.37
17.84
13.16
7.38
0.86
-5.93
-12.63
-19.01
-25.04
-30.77
-36.36
-42.15
-48.60
-56.15
-64.85
-74.00
-82.13
-87.30
-87.80
-82.78
-72.58
-58.64
-42.86
-27.08
-12.53
0.21
11.07
20.24
28.01
34.65
40.37
45.28
49.34
52.38
54.14
54.45
53.37
51.15
48.21
45.01
41.93
39.32
37.43
36.40
36.12
36.22
36.06
34.95
32.48
28.69
24.09
19.47
15.45
12.21
9.39
6.36
2.54
-2.19
-7.47
-12.60
-16.99
-20.41
-23.19
-26.02
-29.69
-34.85
-41.87
-50.73
-61.06
-71.97
-82.01
-89.36
-92.25
-89.46
-80.87
-67.54
-51.36
-34.41
-18.36
-4.11
8.19
18.76
27.80
35.28
40.95
44.61
46.33
46.57
46.03
45.34
44.83
44.39
43.67
42.32
40.34
38.12
36.29
35.39
35.61
36.60
37.64
37.92
36.81
34.15
30.17
25.43
20.51
15.82
11.46
7.21
2.78
-2.03
-7.14
-12.25
-17.03
-21.27
-25.14
-28.98
-33.24
-38.22
-44.04
-50.70
-58.18
-66.40
-75.01
-83.17
-89.49
-92.33
-90.35
-83.08
-71.15
-56.03
-39.50
-23.05
-7.65
6.26
18.37
28.38
35.94
40.92
43.56
44.53
44.68
44.74
45.08
45.57
45.85
45.48
44.26
42.27
39.80
37.23
34.82
32.64
30.63
28.56
26.26
23.59
20.51
17.00
13.03
8.55
3.54
-1.95
-7.73
-13.49
-18.87
-23.50
-27.17
-29.90
-31.99
-34.00
-36.67
-40.65
-46.32
-53.43
-61.09
-67.82
-71.94
-71.98
-67.18
-57.62
-44.23
-28.45
-11.85
4.26
18.94
31.64
42.09
50.18
55.95
59.60
61.46
61.97
61.52
60.36
58.59
56.24
53.40
50.32
47.36
44.86
43.04
41.88
41.19
40.66
39.99
38.94
37.26
34.71
31.01
25.96
19.52
11.89
3.58
-4.81
-12.68
-19.68
-25.79
-31.27
-36.63
-42.38
-49.06
-57.02
-66.33
-76.55
-86.65
-95.02
-99.77
-99.29
-92.77
-80.51
-63.89
-44.97
-25.81
-7.96
7.78
21.31
32.88
42.80
51.20
58.05
63.23
66.70
68.58
69.07
68.47
66.99
64.85
62.23
59.34
56.42
53.63
51.03
48.51
45.78
42.51
38.45
33.58
28.13
22.45
16.88
11.53
6.21
0.54
-5.82
-12.93
-20.51
-28.10
-35.33
-42.24
-49.39
-57.68
-67.99
-80.81
-95.91
-112.27
-128.20
-141.53
-150.13
-152.24
-147.02
-134.74
-116.83
-95.37
-72.64
-50.44
-29.88
-11.35
5.22
20.02
33.23
44.93
55.19
64.08
71.60
77.71
82.27
85.20
86.64
87.02
87.07
87.65
89.42
92.62
96.92
101.45
105.03
106.54
105.19
100.79
93.76
84.87
75.00
64.79
54.53
44.14
33.39
22.09
10.25
-1.88
-13.92
-25.54
-36.56
-47.05
-57.32
-67.85
-79.17
-91.76
-105.72
-120.55
-134.88
-146.57
-153.17
-152.70
-144.32
-128.75
-107.95
-84.45
-60.53
-37.72
-16.73
2.17
18.73
32.63
43.54
51.44
56.69
60.02
62.13
63.51
64.30
64.42
63.77
62.42
60.65
58.83
57.27
56.07
55.11
54.06
52.55
50.34
47.41
43.91
40.14
36.36
32.62
28.73
24.40
19.29
13.27
6.47
-0.74
-7.92
-14.70
-21.01
-27.03
-33.15
-39.88
-47.59
-56.46
-66.31
-76.43
-85.61
-92.28
-94.86
-92.25
-84.19
-71.41
-55.45
-38.17
-21.26
-5.82
7.71
19.38
29.43
37.98
45.02
50.42
54.14
56.36
57.45
57.87
58.01
58.04
57.91
57.52
56.71
55.48
53.87
51.94
49.70
47.09
43.99
40.31
36.05
31.31
26.27
21.07
15.74
10.20
4.29
-2.11
-8.91
-15.87
-22.65
-29.01
-34.97
-40.93
-47.52
-55.35
-64.72
-75.26
-85.83
-94.73
-100.07
-100.37
-95.06
-84.63
-70.35
-53.83
-36.49
-19.27
-2.72
12.76
26.78
38.89
48.65
55.90
60.75
63.62
65.04
65.57
65.61
65.41
65.04
64.44
63.56
62.42
61.17
59.97
58.98
58.13
57.17
55.74
53.53
50.48
46.77
42.71
38.57
34.37
29.84
24.58
18.30
10.99
3.06
-4.89
-12.33
-18.97
-24.87
-30.35
-35.85
-41.84
-48.74
-56.94
-66.55
-77.27
-88.13
-97.55
-103.69
-104.96
-100.57
-90.81
-76.87
-60.49
-43.42
-27.02
-12.11
1.00
12.37
22.17
30.57
37.68
43.48
47.98
51.24
53.40
54.67
55.25
55.27
54.77
53.83
52.60
51.38
50.50
50.16
50.32
50.64
50.56
49.54
47.29
43.81
39.43
34.54
29.51
24.49
19.54
14.62
9.75
5.02
0.48
-3.86
-8.11
-12.45
-17.05
-22.00
-27.26
-32.81
-38.72
-45.23
-52.58
-60.80
-69.41
-77.28
-82.81
-84.36
-80.85
-72.16
-59.22
-43.73
-27.50
-11.99
1.99
14.27
24.96
34.17
41.83
47.71
51.75
54.12
55.29
55.83
56.11
56.18
55.82
54.74
52.90
50.59
48.34
46.67
45.78
45.43
45.08
44.08
41.98
38.68
34.42
29.62
24.71
19.98
15.49
11.18
6.86
2.38
-2.30
-7.14
-12.06
-16.96
-21.84
-26.70
-31.55
-36.40
-41.19
-45.93
-50.71
-55.78
-61.48
-68.08
-75.57
-83.40
-90.43
-95.18
-96.15
-92.36
-83.70
-70.99
-55.71
-39.50
-23.66
-8.96
4.39
16.39
26.99
35.90
42.78
47.40
49.93
50.94
51.17
51.21
51.34
51.47
51.38
50.90
50.08
49.10
48.12
47.12
45.83
43.88
40.96
37.03
32.26
27.02
21.67
16.49
11.61
7.01
2.58
-1.87
-6.53
-11.54
-16.85
-22.30
-27.58
-32.51
-37.11
-41.78
-47.12
-53.68
-61.58
-70.27
-78.51
-84.72
-87.44
-85.77
-79.58
-69.48
-56.53
-41.97
-26.94
-12.34
1.20
13.30
23.76
32.50
39.50
44.79
48.49
50.84
52.16
52.81
53.08
53.04
52.67
51.84
50.56
48.96
47.31
45.83
44.58
43.38
41.87
39.65
36.47
32.27
27.28
21.90
16.60
11.71
7.36
3.41
-0.46
-4.57
-9.17
-14.24
-19.61
-24.95
-29.96
-34.51
-38.67
-42.82
-47.46
-53.12
-60.07
-68.16
-76.74
-84.63
-90.43
-92.78
-90.78
-84.14
-73.30
-59.27
-43.39
-27.00
-11.17
3.45
16.62
28.35
38.81
47.99
55.76
61.84
66.00
68.19
68.63
67.73
65.86
63.33
60.26
56.72
52.85
48.93
45.35
42.45
40.45
39.35
38.90
38.72
38.33
37.27
35.14
31.77
27.17
21.57
15.35
8.90
2.63
-3.13
-8.19
-12.54
-16.36
-19.96
-23.69
-27.72
-32.07
-36.62
-41.31
-46.21
-51.64
-58.03
-65.64
-74.40
-83.73
-92.54
-99.42
-102.98
-102.21
-96.73
-86.93
-73.74
-58.45
-42.31
-26.37
-11.39
2.16
14.04
24.18
32.67
39.67
45.38
49.98
53.54
56.11
57.71
58.36
58.16
57.27
55.97
54.57
53.39
52.53
51.91
51.31
50.43
49.15
47.46
45.40
42.89
39.73
35.67
30.62
24.90
19.03
13.51
8.51
3.77
-1.26
-6.96
-13.36
-20.06
-26.45
-32.07
-36.84
-41.08
-45.31
-50.12
-56.00
-63.23
-71.79
-81.16
-90.24
-97.51
-101.36
-100.70
-95.30
-85.94
-73.99
-61.02
-48.29
-36.58
-26.35
-17.94
-11.63
-7.58
-5.65
-5.26
-5.61
-5.86
-5.51
-4.51
-3.11
-1.63
-0.27
0.93
1.99
2.78
3.18
3.03
2.34
1.27
0.12
-0.81
-1.21
-0.78
0.66
3.07
6.06
8.83
10.36
9.76
6.61
1.08
-6.20
-14.55
-23.52
-32.97
-42.91
-53.39
-64.33
-75.48
-86.32
-95.94
-103.03
-106.01
-103.54
-95.04
-81.08
-63.27
-43.70
-24.23
-5.99
10.68
25.94
39.94
52.61
63.65
72.77
79.92
85.27
89.07
91.36
92.03
91.03
88.60
85.52
82.88
81.64
82.17
84.04
86.27
87.86
88.37
88.07
87.74
88.08
89.28
90.91
92.28
93.08
93.59
94.66
97.19
101.65
107.81
114.98
122.35
129.33
135.54
140.70
144.44
146.36
146.17
143.79
139.28
132.71
123.99
113.07
100.15
85.86
71.08
56.49
42.02
26.76
9.32
-11.47
-35.88
-63.10
-91.47
-119.12
-144.53
-166.84
-185.96
-202.42
-217.16
-231.18
-245.13
-259.01
-271.92
-282.24
-288.01
-287.43
-279.31
-263.37
-240.35
-212.03
-180.98
-150.21
-122.52
-99.84
-82.73
-70.28
-60.59
-51.51
-41.45
-29.84
-17.08
-4.11
8.03
18.62
27.34
34.19
39.38
43.23
46.18
48.65
51.05
53.51
55.73
56.94
55.94
51.57
43.08
30.64
15.49
-0.20
-13.88
-23.26
-26.91
-24.59
-17.17
-6.27
6.23
18.65
29.83
39.20
46.78
53.00
58.43
63.54
68.48
73.08
76.90
79.47
80.49
79.90
77.90
74.87
71.21
67.35
63.66
60.45
57.90
56.03
54.68
53.50
52.09
50.06
47.22
43.64
39.57
35.31
30.97
26.32
20.93
14.49
7.06
-0.80
-8.24
-14.57
-19.59
-23.70
-27.66
-32.17
-37.66
-44.26
-51.93
-60.65
-70.21
-79.95
-88.58
-94.25
-95.14
-90.12
-79.39
-64.46
-47.68
-31.38
-17.21
-5.71
3.45
10.97
17.42
22.99
27.66
31.45
34.61
37.56
40.69
43.96
46.96
49.06
49.79
49.22
47.84
46.30
45.00
43.89
42.54
40.48
37.48
33.68
29.42
25.04
20.68
16.27
11.68
6.81
1.80
-3.07
-7.41
-10.97
-13.73
-16.01
-18.43
-21.77
-26.74
-33.79
-42.98
-53.95
-65.89
-77.53
-87.24
-93.24
-94.04
-88.89
-78.14
-63.25
-46.30
-29.40
-14.03
-0.80
10.49
20.40
29.47
37.95
45.72
52.47
57.92
61.97
64.81
66.79
68.21
69.17
69.45
68.75
66.97
64.42
61.81
59.84
58.83
58.42
57.73
55.80
52.11
46.89
40.91
35.02
29.72
24.91
20.05
14.60
8.37
1.68
-4.87
-10.70
-15.52
-19.51
-23.13
-27.02
-31.77
-37.94
-45.93
-55.88
-67.51
-79.86
-91.29
-99.75
-103.35
-100.90
-92.40
-79.03
-62.78
-45.76
-29.61
-15.13
-2.34
9.21
19.91
29.83
38.64
45.82
51.04
54.45
56.61
58.27
59.91
61.43
62.18
61.33
58.48
53.93
48.73
44.13
40.98
39.24
38.07
36.34
33.27
28.87
23.84
19.09
15.19
12.00
8.92
5.20
0.43
-5.32
-11.58
-17.84
-23.70
-29.02
-33.82
-38.25
-42.53
-47.05
-52.33
-58.87
-66.85
-75.84
-84.65
-91.57
-94.83
-93.10
-85.99
-74.13
-58.96
-42.30
-25.81
-10.64
2.68
14.11
23.80
31.87
38.33
43.18
46.51
48.59
49.81
50.45
50.63
50.25
49.14
47.29
44.98
42.76
41.26
40.84
41.43
42.45
43.07
42.51
40.36
36.75
32.22
27.44
22.88
18.64
14.48
10.09
5.23
-0.04
-5.53
-11.01
-16.34
-21.54
-26.73
-32.13
-38.01
-44.68
-52.33
-60.80
-69.34
-76.60
-80.91
-80.80
-75.54
-65.51
-52.04
-36.98
-22.07
-8.43
3.52
13.93
23.09
31.13
37.91
43.16
46.69
48.60
49.25
49.18
48.81
48.37
47.83
47.07
46.02
44.74
43.42
42.27
41.32
40.36
38.98
36.76
33.52
29.42
24.92
20.50
16.40
12.49
8.37
3.62
-1.86
-7.75
-13.48
-18.56
-22.88
-26.75
-30.75
-35.39
-40.96
-47.50
-54.94
-63.08
-71.58
-79.74
-86.49
-90.57
-90.91
-86.99
-79.06
-68.04
-55.08
-41.20
-27.06
-13.05
0.54
13.22
24.39
33.45
40.12
44.58
47.42
49.45
51.24
53.01
54.43
55.03
54.35
52.35
49.44
46.31
43.68
41.96
41.12
40.76
40.29
39.13
36.99
33.85
29.97
25.71
21.41
17.16
12.85
8.21
3.10
-2.37
-7.82
-12.83
-17.15
-20.96
-24.79
-29.30
-34.93
-41.73
-49.46
-57.71
-66.10
-74.22
-81.45
-86.74
-88.77
-86.40
-79.11
-67.43
-52.80
-37.09
-21.91
-8.18
4.00
14.92
24.84
33.64
40.85
46.00
48.93
50.06
50.13
49.92
49.88
49.97
49.86
49.20
47.91
46.19
44.45
43.05
42.06
41.25
40.19
38.50
35.98
32.73
29.04
25.28
21.66
18.25
14.92
11.44
7.56
3.18
-1.66
-6.70
-11.62
-16.15
-20.11
-23.59
-26.82
-30.11
-33.77
-38.06
-43.25
-49.61
-57.21
-65.73
-74.17
-80.90
-84.06
-82.21
-74.90
-62.91
-47.99
-32.10
-16.84
-3.05
9.04
19.48
28.17
34.86
39.30
41.58
42.20
41.97
41.60
41.46
41.43
41.17
40.37
39.08
37.62
36.43
35.76
35.40
34.83
33.40
30.70
26.77
22.08
17.29
12.97
9.33
6.15
2.93
-0.89
-5.65
-11.39
-17.76
-24.23
-30.22
-35.32
-39.42
-42.75
-45.81
-49.24
-53.56
-59.02
-65.29
-71.54
-76.45
-78.62
-76.89
-70.75
-60.57
-47.51
-33.17
-19.13
-6.53
4.12
12.82
19.82
25.30
29.30
31.69
32.45
31.76
30.02
27.77
25.45
23.32
21.51
20.05
18.92
18.09
17.30
16.18
14.27
11.30
7.28
2.55
-2.44
-7.39
-12.30
-17.46
-23.25
-29.94
-37.48
-45.60
-53.87
-61.89
-69.41
-76.38
-83.02
-89.84
-97.54
-106.79
-117.89
-130.38
-142.92
-153.50
-159.91
-160.34
-153.93
-140.82
-122.08
-99.30
-74.21
-48.50
-23.67
-0.98
18.61
34.61
47.07
56.61
64.18
70.72
76.86
82.75
88.09
92.40
95.27
96.55
96.37
95.01
92.72
89.62
85.65
80.72
74.81
68.05
60.80
53.55
46.82
41.04
36.37
32.70
29.67
26.84
23.86
20.63
17.32
14.23
11.58
9.28
6.94
3.86
-0.65
-7.14
-15.65
-25.62
-35.86
-44.70
-50.35
-51.31
-46.94
-37.62
-24.74
-10.22
4.00
16.47
26.47
33.90
38.98
42.00
43.20
42.75
40.81
37.79
34.35
31.34
29.57
29.37
30.43
31.83
32.49
31.73
29.63
26.94
24.58
23.03
22.06
20.86
18.60
14.89
9.91
4.18
-1.83
-7.91
-14.01
-20.01
-25.63
-30.58
-34.77
-38.44
-42.02
-45.80
-49.79
-53.74
-57.47
-61.11
-65.21
-70.45
-77.25
-85.50
-94.56
-103.38
-110.69
-115.20
-115.68
-111.24
-101.60
-87.29
-69.59
-50.14
-30.36
-10.93
8.19
27.51
47.39
67.66
87.53
105.83
121.52
134.05
143.50
150.45
155.63
159.69
163.01
165.80
168.22
170.52
172.85
175.05
176.32
175.26
170.31
160.47
145.95
128.28
109.77
92.53
77.70
65.23
54.16
43.50
32.62
21.45
10.09
-1.49
-13.45
-25.78
-37.84
-48.34
-55.83
-59.45
-59.71
-58.51
-58.59
-62.43
-71.25
-84.52
-100.15
-115.22
-126.94
-133.33
-133.59
-128.01
-117.76
-104.40
-89.55
-74.61
-60.61
-48.15
-37.53
-28.87
-22.20
-17.45
-14.37
-12.46
-11.14
-9.91
-8.56
-7.20
-6.17
-5.72
-5.95
-6.83
-8.26
-10.07
-11.88
-12.87
-11.88
-7.90
-0.72
8.54
17.71
24.35
26.83
24.97
19.92
13.40
6.74
0.44
-5.71
-12.12
-18.93
-25.91
-32.81
-39.67
-46.92
-54.97
-63.67
-71.98
-78.21
-80.63
-78.21
-71.12
-60.65
-48.63
-36.68
-25.63
-15.32
-5.00
6.14
18.37
31.22
43.60
54.30
62.44
67.82
70.88
72.36
72.91
72.82
71.98
70.25
67.78
65.09
62.91
61.81
61.80
62.33
62.50
61.51
59.02
55.22
50.61
45.76
41.03
36.49
32.03
27.46
22.60
17.34
11.70
5.80
-0.25
-6.54
-13.52
-22.04
-32.98
-46.98
-64.01
-83.34
-103.72
-123.70
-141.75
-156.18
-165.02
-166.13
-157.63
-138.81
-110.75
-76.48
-40.25
-6.36
22.13
44.07
60.14
72.11
81.92
90.97
99.89
108.69
117.09
124.71
131.12
135.87
138.41
138.21
135.00
128.87
120.36
110.31
99.63
89.14
79.37
70.62
62.93
56.11
49.72
43.18
36.01
28.07
19.71
11.74
5.04
0.15
-3.19
-5.96
-9.48
-14.76
-22.02
-30.57
-39.28
-47.18
-54.11
-60.80
-68.55
-78.40
-90.40
-103.24
-114.46
-121.26
-121.41
-114.04
-99.87
-80.85
-59.45
-37.89
-17.71
0.35
16.17
30.02
42.38
53.80
64.76
75.24
84.49
90.98
93.01
89.50
80.72
68.50
55.60
44.63
37.13
33.13
31.56
30.98
30.30
28.94
26.57
22.75
16.82
8.12
-3.50
-17.34
-31.71
-44.32
-52.99
-56.44
-54.69
-48.97
-41.04
-32.51
-24.34
-16.93
-10.50
-5.52
-2.84
-3.35
-7.52
-15.06
-24.86
-35.38
-45.01
-52.48
-57.00
-58.24
-56.39
-52.08
-46.20
-39.64
-33.05
-26.77
-20.91
-15.57
-10.95
-7.22
-4.40
-2.29
-0.58
1.04
2.64
4.18
5.60
6.97
8.54
10.54
13.00
15.64
18.04
19.81
20.88
21.46
21.90
22.39
22.78
22.62
21.36
18.60
14.34
8.90
2.84
-3.33
-9.26
-14.88
-20.20
-25.31
-30.27
-35.19
-40.35
-46.16
-53.02
-60.94
-69.31
-76.76
-81.50
-81.87
-77.04
-67.35
-54.23
-39.67
-25.54
-13.00
-2.36
6.66
14.47
21.19
26.61
30.39
32.37
32.78
32.22
31.33
30.54
29.91
29.17
28.02
26.38
24.55
23.10
22.61
23.28
24.81
26.39
27.06
26.13
23.49
19.63
15.32
11.23
7.55
3.94
-0.14
-5.10
-10.88
-17.02
-22.92
-28.16
-32.70
-36.81
-40.87
-45.13
-49.63
-54.23
-58.76
-62.99
-66.56
-68.82
-68.85
-65.63
-58.54
-47.69
-34.07
-19.28
-5.00
7.62
18.17
26.88
34.22
40.47
45.59
49.31
51.46
52.13
51.70
50.62
49.17
47.30
44.79
41.45
37.40
33.08
29.13
26.08
24.04
22.63
21.12
18.75
15.12
10.35
5.03
-0.11
-4.49
-8.04
-11.09
-14.28
-18.21
-23.32
-29.76
-37.45
-46.17
-55.50
-64.75
-73.00
-79.36
-83.26
-84.74
-84.45
-83.29
-81.83
-79.91
-76.63
-70.74
-61.35
-48.46
-33.07
-16.83
-1.38
12.19
23.58
33.05
41.03
47.82
53.54
58.30
62.38
66.29
70.49
75.05
79.41
82.55
83.47
81.79
78.06
73.51
69.50
66.83
65.46
64.65
63.41
61.00
57.21
52.26
46.53
40.37
33.95
27.40
20.85
14.56
8.76
3.63
-0.77
-4.47
-7.54
-10.19
-12.78
-15.93
-20.38
-26.83
-35.60
-46.41
-58.33
-69.95
-79.74
-86.32
-88.82
-86.87
-80.69
-70.96
-58.72
-45.23
-31.79
-19.54
-9.22
-1.15
4.86
9.27
12.62
15.26
17.22
18.27
18.13
16.73
14.45
12.08
10.49
10.26
11.51
13.96
17.27
21.25
25.96
31.42
37.41
43.36
48.56
52.55
55.31
57.22
58.62
59.54
59.52
57.79
53.70
47.01
38.05
27.54
16.21
4.62
-6.94
