1539205240.00
64.000000
-0.00
-0.00
-0.00
-0.00
-0.00
-0.00
-0.00
-0.00
-0.00
-0.00
0.00
0.01
0.01
-0.00
-0.03
-0.05
-0.05
0.00
0.13
0.36
0.66
1.01
1.37
1.72
2.06
2.40
2.79
3.24
3.80
4.42
5.06
5.66
6.20
6.68
7.15
7.68
8.31
9.14
10.09
11.04
11.88
12.56
13.14
13.76
14.65
15.96
17.91
20.32
22.90
25.38
27.58
29.57
31.68
34.32
37.81
42.54
48.15
54.10
59.83
64.97
69.58
74.14
79.34
85.71
93.76
103.00
112.62
121.73
129.77
136.75
143.30
150.75
157.77
166.64
177.95
191.79
206.97
220.57
228.25
225.36
208.53
176.87
132.76
80.05
23.07
-34.94
-92.44
-149.16
-205.23
-260.37
-313.74
-363.87
-409.83
-450.91
-486.50
-515.74
-537.23
-549.22
-549.96
-538.37
-514.21
-478.67
-433.88
-382.45
-327.02
-269.84
-212.63
-156.66
-102.95
-52.37
-5.90
35.58
71.43
101.35
125.50
144.38
158.69
169.15
176.37
180.75
182.57
182.07
179.51
175.23
169.65
163.18
156.15
148.81
141.30
133.69
126.02
118.33
110.69
103.16
95.80
88.68
81.83
75.25
68.95
62.95
57.25
51.86
46.78
42.03
37.59
33.45
29.61
26.07
22.81
19.83
17.11
14.67
12.48
10.54
8.83
7.35
6.07
4.97
4.05
3.27
2.62
2.09
1.65
1.30
1.01
0.79
0.61
0.48
0.38
0.31
0.27
0.24
0.23
0.23
0.25
0.28
0.31
0.35
0.39
0.43
0.48
0.53
0.58
0.63
0.69
0.74
0.80
0.87
0.94
1.02
1.10
1.20
1.30
1.42
1.56
1.71
1.88
2.07
2.28
2.52
2.78
3.07
3.39
3.74
4.12
4.54
4.99
5.49
6.02
6.59
7.21
7.87
8.58
9.33
10.13
10.98
11.87
12.81
13.79
14.83
15.93
17.09
18.32
19.61
20.95
22.30
23.61
24.78
25.72
26.28
26.32
25.71
24.32
22.10
19.03
15.18
10.62
5.59
0.31
-4.98
-9.98
-14.46
-18.22
-21.10
-23.04
-24.05
-24.16
-23.51
-22.23
-20.49
-18.43
-16.20
-13.94
-11.73
-9.64
-7.64
-5.75
-3.92
-2.10
-0.24
1.68
3.66
5.69
7.79
10.03
12.34
14.74
17.22
19.81
22.44
25.06
27.62
30.10
32.65
35.17
37.74
40.46
43.39
46.50
49.68
52.78
55.80
58.96
62.18
65.66
69.62
74.13
79.00
83.81
88.08
91.52
94.28
96.20
97.55
98.56
99.15
98.64
95.79
88.92
75.97
59.53
40.74
20.74
0.50
-19.46
-39.22
-59.25
-80.21
-102.84
-127.76
-155.99
-187.51
-220.82
-252.60
-278.30
-293.41
-295.07
-283.15
-260.20
-230.81
-199.27
-168.35
-139.09
-111.53
-85.81
-62.78
-43.72
-29.50
-20.19
-14.51
-10.44
-6.21
-0.97
5.11
11.16
16.40
20.60
24.02
27.26
30.76
34.56
38.27
41.28
43.10
43.58
42.93
41.48
39.67
37.84
36.23
34.93
33.90
32.95
31.75
29.88
26.94
22.68
17.10
10.54
3.64
-2.73
-7.64
-10.36
-10.49
-8.19
-4.11
0.78
5.50
9.33
12.07
13.91
15.23
16.43
17.71
19.10
20.51
21.81
22.86
23.51
23.62
23.04
21.75
19.86
17.64
15.43
13.65
12.60
12.43
13.05
14.10
14.94
14.82
13.10
9.38
3.72
-3.44
-11.45
-19.62
-27.37
-34.24
-39.79
-43.49
-44.82
-43.37
-39.09
-32.43
-24.23
-15.54
-7.20
0.34
7.06
13.21
18.98
24.35
29.00
32.53
34.61
35.18
34.52
33.08
31.32
29.50
27.64
25.56
23.03
19.90
16.23
12.25
8.23
4.47
1.09
-1.99
-5.06
-8.47
-12.52
-17.37
-22.93
-28.89
-34.80
-40.12
-44.31
-46.88
-47.38
-45.59
-41.53
-35.56
-28.39
-20.83
-13.63
-7.22
-1.68
3.14
7.38
11.04
13.96
15.94
16.96
17.23
17.22
17.40
18.08
19.27
20.75
22.23
23.36
23.96
23.90
23.18
21.87
20.11
18.03
15.75
13.24
10.33
6.84
2.55
-2.62
-8.58
-15.03
-21.48
-27.25
-31.61
-33.85
-33.56
-30.77
-25.98
-20.02
-13.73
-7.73
-2.28
2.66
7.24
11.53
15.56
19.24
22.43
25.00
26.82
27.81
27.92
27.21
25.83
23.92
21.65
19.10
16.34
13.51
10.76
8.28
6.14
4.20
2.19
-0.22
-3.34
-7.37
-12.37
-18.37
-25.27
-32.90
-40.87
-48.58
-55.23
-60.03
-62.31
-61.75
-58.47
-53.02
-46.27
-39.15
-32.50
-26.90
-22.63
-19.74
-18.19
-17.85
-18.52
-19.88
-21.45
-22.62
-22.76
-21.41
-18.43
-14.03
-8.70
-2.98
2.75
8.38
14.00
19.75
25.58
31.19
36.04
39.60
41.57
41.98
41.18
39.64
37.68
35.32
32.24
28.07
22.72
16.65
10.87
6.66
5.10
6.64
10.89
16.86
23.30
29.16
33.78
36.92
38.62
39.01
38.28
36.64
34.47
32.21
30.34
29.19
28.89
29.31
30.12
30.90
31.33
31.30
30.92
30.47
30.23
30.23
30.20
29.60
27.80
24.40
19.32
12.88
5.67
-1.70
-8.67
-14.89
-20.19
-24.61
-28.33
-31.55
-34.35
-36.56
-37.79
-37.54
-35.47
-31.51
-25.92
-19.12
-11.54
-3.48
4.77
12.89
20.43
26.91
31.93
35.46
37.78
39.41
40.91
42.60
44.49
46.28
47.50
47.72
46.77
44.84
42.39
40.03
38.28
37.39
37.33
37.82
38.40
38.54
37.62
35.03
30.32
23.37
14.54
4.66
-5.27
-14.38
-22.20
-28.68
-33.96
-38.06
-40.75
-41.55
-40.02
-36.11
-30.20
-23.12
-15.87
-9.41
-4.42
-1.34
-0.32
-1.30
-4.01
-7.98
-12.65
-17.48
-21.99
-25.85
-28.79
-30.61
-31.22
-30.66
-29.10
-26.86
-24.37
-22.03
-20.06
-18.54
-17.46
-16.84
-16.72
-17.16
-18.16
-19.89
-22.40
-25.63
-29.44
-33.75
-38.51
-43.63
-48.78
-53.33
-56.91
-59.03
-59.32
-57.65
-54.33
-50.05
-45.55
-41.30
-37.43
-34.35
-32.15
-30.60
-29.41
-28.48
-28.10
-28.73
-30.70
-33.81
-38.08
-42.77
-46.60
-48.22
-46.80
-42.64
-36.84
-30.70
-19.93
-2.79
19.32
42.34
62.74
79.22
91.76
100.46
105.01
104.92
99.18
88.04
73.58
59.00
48.35
44.60
48.17
56.56
65.43
69.59
65.51
51.92
30.61
5.36
-19.16
-38.73
-50.72
-54.40
-51.19
-39.96
-23.52
-7.08
4.99
11.61
14.65
16.88
20.14
24.28
27.30
25.97
18.19
4.35
-13.39
-31.36
-46.11
-55.26
-58.11
-55.70
-50.21
-43.54
-36.65
-30.06
-24.34
-20.50
-19.73
-21.44
-24.90
-28.81
-31.43
-31.11
-27.11
-19.88
-10.88
-1.88
5.76
11.15
14.13
15.21
15.20
14.91
14.76
14.92
15.31
15.85
16.34
16.66
16.78
16.79
16.80
16.83
16.87
16.78
16.45
15.71
14.56
13.12
11.54
9.97
8.45
6.94
5.32
3.52
1.42
-1.00
-3.78
-6.89
-10.36
-14.14
-18.24
-22.69
-27.44
-32.37
-37.14
-41.13
-43.57
-43.80
-41.48
-36.87
-30.78
-24.28
-18.39
-13.73
-10.38
-8.09
-6.44
-5.17
-4.14
-3.37
-2.88
-2.66
-2.65
-2.80
-3.09
-3.55
-4.19
-5.00
-5.91
-6.80
-7.58
-8.22
-8.90
-10.02
-12.16
-15.79
-21.04
-27.46
-34.00
-39.39
-42.55
-43.07
-41.33
-38.19
-34.66
-31.51
-29.28
-28.40
-29.44
-32.96
-39.16
-47.36
-55.84
-62.15
-64.05
-60.35
-51.46
-39.16
-25.79
-13.35
-2.87
5.54
12.27
17.61
21.51
23.69
23.93
22.37
19.49
16.00
12.65
10.26
9.64
11.61
16.66
24.68
34.73
45.21
54.30
60.57
63.46
63.26
60.87
57.40
53.80
50.80
48.78
47.72
47.13
46.15
43.89
39.76
33.76
26.38
18.28
10.02
2.11
-4.83
-9.80
-11.58
-9.20
-2.48
7.64
19.36
30.72
40.35
47.87
53.70
58.53
62.79
66.50
69.42
71.30
72.14
72.18
71.69
70.81
69.40
67.14
63.67
58.80
52.76
46.15
39.88
34.81
31.34
29.02
26.60
22.31
14.52
2.48
-13.37
-31.50
-49.96
-67.12
-82.12
-94.87
-105.64
-114.51
-121.08
-124.60
-124.29
-119.79
-111.38
-99.92
-86.53
-72.22
-57.75
-43.63
-30.34
-18.45
-8.56
-1.13
3.78
6.68
8.46
10.04
11.97
14.20
16.11
16.84
15.69
12.45
7.44
1.35
-5.06
-11.33
-17.54
-24.30
-32.50
-42.93
-55.86
-70.95
-87.26
-103.48
-118.11
-129.82
-137.59
-141.04
-140.40
-136.45
-130.15
-122.30
-113.24
-102.88
-90.90
-76.93
-60.77
-42.68
-23.69
-5.95
7.52
13.70
11.00
0.28
-15.19
-31.12
-44.12
-53.06
-58.92
-63.55
-68.08
-72.47
-76.18
-79.32
-83.26
-89.85
-100.13
-113.27
-126.95
-138.81
-147.95
-155.26
-162.38
-170.18
-177.64
-182.22
-181.17
-173.04
-158.32
-139.07
-117.83
-96.62
-76.46
-57.58
-39.87
-23.22
-7.57
7.22
21.47
35.53
49.61
63.58
77.01
89.37
100.31
109.97
119.00
128.51
139.61
152.92
167.98
183.05
195.48
202.57
202.53
195.34
182.70
167.33
151.94
138.12
125.97
114.33
101.50
86.21
68.27
48.98
30.89
17.28
11.15
14.30
26.67
46.36
70.21
94.91
117.88
137.72
153.99
166.68
175.77
181.13
182.76
181.15
177.33
172.52
167.62
162.85
157.65
151.11
142.58
132.09
120.38
108.56
97.41
86.87
75.97
63.22
47.29
27.67
5.02
-18.94
-41.87
-61.53
-76.20
-85.05
-88.13
-86.24
-80.77
-73.29
-65.17
-57.17
-49.05
-39.58
-26.89
-9.12
14.79
44.59
78.57
114.06
148.19
178.71
204.32
224.66
239.80
249.82
254.60
253.98
248.18
238.07
225.16
211.21
197.65
185.16
173.64
162.51
151.19
139.45
127.39
115.15
102.58
89.12
74.09
57.02
38.08
18.10
-1.79
-20.62
-38.04
-54.52
-71.13
-89.08
-109.07
-130.79
-152.59
-171.74
-184.97
-189.59
-184.32
-169.95
-149.10
-125.47
-102.69
-83.35
-68.61
-58.45
-52.19
-48.97
-47.99
-48.42
-49.36
-49.85
-49.18
-47.21
-44.54
-42.26
-41.21
-41.77
-43.81
-46.84
-50.31
-54.00
-58.14
-63.39
-70.42
-79.06
-88.47
-97.37
-104.59
-109.40
-111.79
-112.38
-112.33
-112.95
-114.58
-117.02
-119.41
-120.08
-116.23
-104.23
-80.75
-44.44
2.93
58.70
117.91
174.41
222.46
258.71
283.35
299.35
310.47
319.61
332.37
351.88
377.47
404.81
428.61
445.48
454.61
456.70
452.56
449.41
452.32
461.18
469.92
470.04
455.47
424.82
381.52
333.16
299.60
299.75
343.75
427.82
536.73
650.62
751.27
826.42
814.39
683.46
444.93
152.71
-129.56
-361.80
-533.94
-653.44
-732.22
-780.55
-796.91
-780.54
-737.04
-679.57
-623.20
-578.10
-547.05
-527.22
-514.04
-496.40
-466.92
-425.39
-379.09
-337.82
-308.24
-291.66
-284.96
-283.54
-278.38
-263.25
-237.28
-205.27
-174.59
-151.12
-137.17
-131.76
-132.58
-134.16
-132.00
-124.01
-111.12
-96.57
-85.05
-82.16
-88.79
-106.25
-131.65
-158.74
-178.07
-179.48
-155.56
-104.84
-33.16
48.07
124.78
185.17
220.12
226.54
208.10
173.84
134.64
99.49
73.66
57.99
50.58
44.79
34.62
17.79
-3.79
-26.38
-47.57
-66.73
-84.64
-102.06
-123.84
-154.44
-195.90
-247.92
-309.67
-381.17
-461.17
-544.75
-594.10
-577.86
-489.61
-353.62
-206.51
-76.95
20.74
84.94
122.68
144.76
157.23
163.11
166.15
171.14
182.95
203.14
229.05
254.30
270.66
268.21
241.86
194.79
135.11
77.30
34.19
13.55
15.24
29.03
38.33
31.55
8.28
-22.56
-49.34
-65.14
-69.29
-65.85
-60.07
-55.95
-54.12
-52.88
-50.23
-45.10
-38.51
-32.70
-28.75
-26.95
-26.61
-26.01
-23.11
-16.26
-4.67
10.84
28.68
46.56
62.05
74.22
84.25
94.77
108.22
125.67
140.32
146.69
141.58
125.57
103.32
81.58
65.87
58.13
56.44
58.63
60.64
59.74
54.60
44.60
29.68
10.40
-11.93
-35.44
-58.28
-78.99
-95.43
-105.70
-109.48
-108.07
-103.90
-99.87
-98.62
-101.53
-107.62
-114.49
-117.71
-113.63
-100.80
-80.43
-55.66
-30.05
-6.16
15.10
32.68
45.90
54.03
56.85
55.11
50.57
45.51
41.70
39.61
38.27
36.16
31.79
24.65
15.32
4.99
-5.30
-15.05
-24.31
-33.28
-41.84
-49.72
-56.70
-62.87
-68.78
-75.46
-83.92
-94.75
-107.56
-120.63
-131.22
-136.07
-132.47
-119.13
-96.83
-68.25
-37.16
-7.25
18.87
40.04
56.30
68.24
76.52
81.58
83.80
83.76
82.23
80.12
78.08
76.23
74.15
71.16
66.74
60.96
54.44
48.18
43.08
39.41
36.69
33.78
29.28
21.99
11.29
-2.78
-19.39
-37.02
-53.52
-66.40
-73.34
-72.83
-64.67
-50.16
-31.80
-12.49
5.31
20.07
31.37
39.51
45.07
48.48
49.96
49.55
47.37
43.73
39.04
33.70
27.88
21.49
14.32
6.25
-2.57
-11.59
-20.04
-27.21
-32.73
-36.76
-40.05
-43.73
-49.03
-56.91
-67.59
-80.24
-92.93
-102.92
-107.47
-104.62
-93.94
-76.55
-54.77
-31.34
-8.56
12.01
29.69
44.28
55.80
64.28
69.83
72.78
73.76
73.54
72.88
72.30
72.01
71.94
71.84
71.49
70.86
70.06
69.39
69.11
69.25
69.48
69.04
66.84
61.70
52.74
39.85
23.98
7.27
-7.36
-16.83
-18.91
-12.78
0.65
19.20
40.11
60.92
79.88
96.12
109.33
119.50
126.67
130.92
132.41
131.43
128.42
123.81
117.94
110.94
102.79
93.35
82.49
70.18
56.51
41.61
25.55
8.28
-10.33
-30.43
-52.09
-75.23
-99.71
-125.35
-151.79
-178.29
-203.38
-224.89
-240.18
-246.82
-243.34
-229.73
-207.43
-178.92
-146.96
-113.92
-81.54
-50.98
-23.12
1.23
21.28
36.60
47.39
54.53
59.37
63.30
67.15
70.94
73.89
74.85
72.81
67.33
58.74
47.96
36.15
24.38
13.29
3.03
-6.63
-16.22
-26.28
-37.20
-48.90
-60.58
-70.65
-76.96
-77.30
-70.13
-55.22
-33.82
-8.44
17.99
42.94
64.82
83.15
98.09
110.01
119.06
125.20
128.31
128.60
126.65
123.30
119.37
115.28
110.96
105.92
99.51
91.23
80.92
68.86
55.70
42.23
29.17
16.92
5.51
-5.37
-16.27
-27.74
-40.06
-52.98
-65.51
-76.03
-82.53
-83.25
-77.27
-64.84
-47.35
-26.91
-5.71
14.50
32.62
48.10
60.65
70.06
76.15
78.90
78.55
75.69
71.05
65.38
59.18
52.59
45.40
37.19
27.59
16.53
4.36
-8.22
-20.43
-31.74
-42.07
-51.80
-61.57
-72.06
-83.78
-96.95
-111.43
-126.56
-141.00
-152.85
-159.91
-160.39
-153.52
-140.05
-122.03
-102.16
-82.91
-65.81
-51.26
-38.79
-27.72
-17.63
-8.50
-0.58
5.91
11.06
15.25
18.98
22.66
26.47
30.35
34.19
37.92
41.59
45.24
48.76
51.82
53.93
54.73
54.16
52.59
50.56
48.55
46.64
44.55
42.02
39.19
36.88
36.42
39.14
45.71
55.78
67.97
80.43
91.40
99.73
104.96
107.20
106.61
103.30
97.16
88.13
76.40
62.65
47.98
33.69
20.88
10.24
1.90
-4.48
-9.47
-13.68
-17.58
-21.52
-25.68
-30.13
-34.75
-39.21
-43.04
-45.77
-47.19
-47.59
-47.78
-48.80
-51.49
-55.89
-61.07
-65.17
-66.09
-62.16
-52.86
-38.95
-22.21
-4.72
11.68
25.72
36.72
44.26
47.99
47.67
43.22
35.01
23.85
10.85
-2.89
-16.61
-29.96
-42.99
-55.82
-68.45
-80.54
-91.45
-100.33
-106.32
-108.77
-107.42
-102.49
-94.90
-86.24
-78.58
-73.96
-73.75
-78.11
-85.81
-94.45
-101.07
-102.95
-98.27
-86.38
-67.95
-44.67
-18.97
6.50
29.35
47.95
61.65
70.86
76.67
80.39
83.05
85.11
86.41
86.35
84.32
80.03
73.72
66.17
58.36
51.11
44.75
39.15
33.90
28.71
23.64
19.08
15.52
13.25
12.13
11.59
10.83
9.06
5.71
0.69
-5.52
-11.72
-16.19
-17.02
-12.74
-2.93
11.50
28.47
45.50
60.49
72.40
81.32
88.06
93.48
98.01
101.44
103.17
102.54
99.16
93.08
84.69
74.59
63.40
51.58
39.34
26.72
13.78
0.73
-11.94
-23.64
-33.89
-42.62
-50.19
-57.20
-64.25
-71.66
-79.51
-87.76
-96.35
-105.16
-113.72
-121.03
-125.52
-125.54
-119.91
-108.46
-92.29
-73.29
-53.54
-34.71
-17.74
-2.86
10.07
21.36
31.23
39.62
46.36
51.28
54.39
55.90
56.20
55.69
54.68
53.23
50.95
47.49
42.83
37.48
32.31
28.09
25.17
23.18
21.21
17.64
11.43
2.64
-7.64
-18.03
-27.71
-36.75
-45.84
-55.56
-66.86
-79.23
-90.77
-99.00
-102.40
-101.36
-98.04
-95.31
-95.57
-101.81
-115.08
-134.29
-156.80
-179.85
-201.51
-220.78
-237.10
-249.86
-260.69
-270.33
-278.08
-281.96
-280.02
-271.33
-256.18
-235.38
-194.88
-128.89
-42.11
50.99
134.41
198.32
240.60
264.11
273.63
273.67
265.29
249.27
227.56
204.09
182.69
166.37
156.35
151.97
151.19
149.86
145.17
136.68
126.18
116.03
107.60
100.52
94.11
87.11
77.63
65.16
50.82
36.74
24.82
15.79
9.10
3.71
-1.28
-6.51
-11.88
-16.78
-20.63
-23.20
-24.46
-24.32
-22.32
-17.93
-11.17
-2.77
5.86
13.08
17.50
18.37
15.48
9.00
-0.95
-13.97
-29.16
-44.65
-57.71
-65.26
-64.84
-55.53
-38.28
-15.69
9.02
32.92
54.09
71.61
85.11
94.36
99.06
99.05
94.63
86.80
77.03
66.79
57.10
48.29
40.16
32.37
24.77
17.47
10.66
4.25
-2.22
-9.45
-18.05
-28.21
-39.61
-51.57
-63.28
-74.05
-83.40
-91.02
-96.77
-100.77
-103.50
-105.86
-108.84
-113.03
-118.03
-122.26
-123.38
-119.19
-108.62
-92.26
-72.19
-51.08
-31.18
-13.67
1.40
14.58
26.31
36.57
44.96
51.08
54.96
57.11
58.30
59.17
59.91
60.34
60.18
59.38
58.32
57.70
58.12
59.77
62.17
64.39
65.29
64.01
60.10
53.56
44.67
33.81
21.41
7.90
-6.17
-20.27
-33.88
-46.49
-57.55
-66.32
-71.80
-73.10
-69.73
-62.05
-51.40
-39.74
-29.08
-20.85
-15.54
-12.71
-11.39
-10.57
-9.56
-8.06
-6.10
-3.77
-1.12
1.87
5.25
8.98
12.91
16.74
20.11
22.68
24.16
24.37
23.29
21.08
18.02
14.53
11.04
7.86
5.13
2.73
0.39
-2.31
-5.84
-10.67
-17.02
-24.61
-32.51
-39.14
-42.60
-41.33
-34.79
-23.81
-10.44
2.69
13.31
20.12
23.15
23.30
21.84
19.73
17.43
14.84
11.70
7.78
3.06
-2.25
-7.86
-13.48
-18.93
-24.08
-28.85
-33.13
-36.83
-39.85
-42.13
-43.70
-44.65
-45.10
-45.17
-44.97
-44.72
-44.81
-45.87
-48.68
-53.80
-61.18
-69.85
-77.92
-83.14
-83.49
-78.02
-67.09
-52.30
-35.90
-20.06
-6.33
4.64
12.90
18.90
23.15
26.13
28.21
29.74
31.00
32.17
33.19
33.70
33.12
30.81
26.31
19.59
11.04
1.52
-7.94
-16.38
-23.14
-28.19
-32.01
-35.59
-40.11
-46.61
-55.70
-67.34
-80.65
-93.93
-104.82
-110.76
-109.63
-100.43
-83.69
-61.43
-36.63
-12.27
9.38
27.24
41.28
52.08
60.25
66.10
69.64
70.83
69.79
67.01
63.20
59.11
55.36
52.27
49.92
48.16
46.63
44.86
42.30
38.49
33.24
26.69
19.34
11.72
4.16
-3.43
-11.53
-20.88
-32.11
-45.40
-60.18
-74.87
-87.04
-93.90
-93.11
-83.68
-66.45
-43.94
-19.59
3.34
22.63
37.37
47.79
54.66
58.86
61.12
62.06
62.13
61.64
60.67
59.14
57.03
54.48
51.87
49.66
48.06
46.88
45.56
43.54
40.48
36.48
31.95
27.33
22.92
18.72
14.59
10.35
5.79
0.69
-5.18
-11.77
-18.39
-23.49
-24.83
-20.14
-7.97
11.58
36.66
64.09
90.15
111.49
125.76
132.04
130.90
124.13
114.34
104.21
95.73
89.75
85.80
82.64
78.94
73.97
67.78
60.99
54.24
47.62
40.57
32.14
21.48
8.38
-6.57
-22.13
-36.92
-49.95
-61.01
-70.71
-80.20
-90.69
-102.94
-116.84
-131.24
-144.09
-152.88
-155.35
-150.13
-137.29
-118.28
-95.50
-71.63
-48.85
-28.48
-11.02
3.55
15.36
24.51
31.07
35.25
37.49
38.42
38.68
38.72
38.74
38.63
38.12
36.95
34.96
32.23
29.04
25.77
22.77
20.15
17.77
15.24
12.09
7.88
2.26
-5.00
-13.96
-24.38
-35.43
-45.54
-52.58
-54.36
-49.39
-37.47
-19.85
1.12
22.82
43.07
60.49
74.53
85.08
92.20
96.00
96.68
94.64
90.53
85.03
78.76
72.09
65.22
58.21
51.13
44.13
37.43
31.25
25.72
20.84
16.44
12.25
7.93
3.15
-2.36
-8.82
-16.43
-25.36
-35.66
-47.06
-58.73
-69.14
-76.24
-77.94
-72.86
-60.93
-43.55
-23.26
-2.87
15.30
30.02
41.15
49.23
54.91
58.61
60.40
60.18
57.94
53.92
48.53
42.36
35.97
29.83
24.24
19.24
14.65
10.09
5.11
-0.68
-7.48
-15.29
-23.97
-33.22
-42.63
-51.72
-60.04
-67.32
-73.69
-79.65
-85.73
-92.03
-97.80
-101.44
-100.93
-94.60
-81.94
-63.90
-42.77
-21.42
-2.63
11.60
20.32
23.52
22.02
17.12
10.38
3.40
-2.45
-6.23
-7.60
-6.75
-4.31
-1.04
2.46
5.92
9.32
12.84
16.62
20.64
24.71
28.50
31.73
34.29
36.17
37.47
38.25
38.52
38.18
37.01
34.77
31.28
26.56
20.99
15.45
11.19
9.52
11.40
16.96
25.41
35.18
44.43
51.66
56.10
57.92
57.97
57.39
57.19
58.01
60.05
63.19
67.18
71.60
75.97
79.74
82.53
84.25
85.16
85.67
85.90
85.35
82.84
77.00
66.90
52.71
35.75
17.98
1.28
-13.30
-25.72
-36.74
-47.44
-58.74
-71.17
-84.70
-98.57
-111.33
-120.96
-125.33
-122.98
-113.75
-99.08
-81.63
-64.40
-49.79
-38.88
-31.44
-26.36
-22.43
-18.88
-15.51
-12.50
-10.04
-8.14
-6.61
-5.26
-4.16
-3.62
-4.14
-6.05
-9.34
-13.51
-17.86
-21.73
-24.78
-27.12
-29.09
-31.08
-33.30
-35.77
-38.42
-41.37
-44.96
-49.64
-55.68
-62.76
-69.76
-75.01
-76.67
-73.41
-64.82
-51.59
-35.21
-17.53
-0.25
15.38
28.61
39.08
46.66
51.37
53.44
53.21
51.19
47.86
43.52
38.24
31.94
24.54
16.18
7.37
-1.08
-8.35
-13.90
-17.69
-20.17
-22.01
-23.72
-25.52
-27.34
-29.06
-30.72
-32.66
-35.35
-39.07
-43.69
-48.54
-52.49
-54.22
-52.53
-46.71
-36.62
-22.85
-6.56
10.70
27.33
41.93
53.59
61.93
67.10
69.58
69.97
68.90
66.85
64.30
61.68
59.47
58.08
57.72
58.35
59.67
61.30
62.92
64.34
65.54
66.44
66.88
66.66
65.60
63.70
61.04
57.80
54.03
49.65
44.44
38.04
30.09
20.27
8.44
-5.13
-19.69
-33.93
-46.27
-55.37
-60.55
-62.10
-61.11
-59.06
-57.18
-56.05
-55.65
-55.62
-55.75
-56.26
-57.79
-61.04
-66.44
-73.74
-82.07
-90.12
-96.62
-100.66
-101.99
-100.99
-98.47
-95.41
-92.60
-90.57
-89.49
-89.26
-89.64
-90.32
-90.97
-91.23
-90.87
-89.85
-88.58
-87.84
-88.52
-91.10
-95.12
-99.06
-100.65
-97.70
-89.00
-74.80
-56.77
-37.37
-18.90
-2.84
10.39
21.15
30.07
37.57
43.74
48.44
51.57
53.29
53.97
54.09
53.97
53.70
53.19
52.29
51.02
49.57
48.25
47.36
47.08
47.40
48.19
49.21
50.13
50.49
49.70
47.09
42.03
34.09
23.25
9.99
-4.56
-18.63
-30.02
-36.50
-36.46
-29.43
-16.38
0.50
18.48
35.04
48.60
58.62
65.44
69.68
71.85
72.11
70.31
66.31
60.14
52.12
42.73
32.53
21.93
11.17
0.46
-9.96
-19.69
-28.28
-35.38
-40.97
-45.39
-49.22
-52.96
-56.74
-60.25
-62.96
-64.50
-65.09
-65.58
-67.13
-70.59
-75.95
-82.08
-87.00
-88.51
-84.93
-75.64
-61.13
-42.74
-22.13
-0.93
19.60
38.54
55.27
69.42
80.83
89.55
95.94
100.54
104.02
107.01
109.81
112.50
114.90
116.80
118.05
118.62
118.41
117.08
114.02
108.42
99.66
87.58
72.69
56.13
39.27
23.40
9.33
-2.73
-13.19
-22.95
-33.14
-44.72
-57.99
-72.20
-85.47
-95.11
-98.44
-93.80
-81.18
-62.40
-40.46
-18.54
0.99
17.08
29.81
39.86
47.84
53.99
58.38
61.19
63.00
64.74
67.28
70.99
75.50
79.90
83.14
84.61
84.35
82.96
81.28
79.87
78.83
77.69
75.61
71.67
65.13
55.64
43.46
29.36
14.56
0.36
-12.16
-22.47
-30.59
-36.89
-41.76
-45.31
-47.43
-47.86
-46.51
-43.58
-39.54
-34.82
-29.65
-23.96
-17.61
-10.66
-3.57
2.88
7.87
10.94
12.28
12.49
12.30
12.16
12.09
11.85
11.29
10.54
9.94
9.88
10.43
11.41
12.46
13.32
13.84
13.80
12.76
10.00
4.73
-3.39
-13.99
-25.95
-38.00
-49.17
-59.25
-68.63
-77.76
-86.52
-93.91
-98.35
-98.36
-93.33
-83.81
-71.35
-57.84
-44.86
-33.21
-23.02
-14.04
-6.02
1.01
6.80
11.03
13.47
14.09
13.17
11.21
8.84
6.72
5.33
4.85
5.12
5.72
6.14
5.97
4.97
3.16
0.69
-2.19
-5.24
-8.26
-11.15
-14.00
-17.02
-20.54
-24.93
-30.38
-36.85
-43.87
-50.54
-55.59
-57.59
-55.37
-48.38
-36.91
-22.10
-5.65
10.64
25.29
37.47
47.00
54.13
59.33
62.98
65.32
66.41
66.26
64.87
62.29
58.73
54.53
50.10
45.82
41.95
38.42
34.93
31.02
26.32
20.76
14.53
8.04
1.66
-4.47
-10.47
-16.61
-23.16
-30.30
-38.07
-46.37
-54.87
-62.90
-69.40
-73.06
-72.75
-67.87
-58.82
-46.86
-33.80
-21.37
-10.80
-2.53
3.55
7.85
10.74
12.37
12.78
11.96
10.07
7.60
5.08
2.85
1.05
-0.36
-1.54
-2.60
-3.62
-4.64
-5.58
-6.51
-7.75
-9.60
-12.24
-15.70
-19.87
-24.83
-30.76
-37.58
-45.33
-54.11
-63.56
-72.77
-80.39
-84.82
-85.26
-81.48
-73.16
-61.20
-47.62
-34.43
-23.08
-14.13
-7.17
-2.15
1.48
6.04
12.47
19.59
25.63
28.95
28.69
25.27
18.38
8.58
-0.37
-6.21
-9.11
-9.42
-7.61
-4.51
-1.53
-2.69
-11.17
-24.52
-39.72
-54.97
-68.36
-79.27
-89.10
-86.94
-68.20
-54.85
-55.04
-61.59
-70.05
-76.84
-79.68
-77.64
-70.76
-61.92
-53.78
-44.71
-34.20
-23.85
-14.57
-6.55
0.53
7.21
12.32
14.97
17.46
21.00
24.74
28.02
30.39
31.63
31.86
30.62
28.10
26.69
27.70
30.51
34.23
37.74
39.87
39.85
37.16
32.23
27.03
23.09
20.69
20.13
21.13
22.84
24.06
23.81
22.16
20.59
21.20
25.91
37.18
56.57
84.09
117.92
155.35
193.69
230.87
265.79
290.92
299.88
290.25
265.37
231.92
196.01
161.44
129.71
101.36
76.42
55.78
40.18
29.84
23.49
20.02
18.64
18.36
18.12
16.44
12.32
4.72
-7.38
-24.76
-47.50
-71.50
-92.44
-106.30
-110.86
-106.07
-94.46
-80.22
-67.77
-60.11
-57.96
-60.47
-65.59
-71.09
-74.93
-75.64
-72.46
-65.38
-55.04
-42.55
-29.69
-18.21
-9.54
-4.36
-2.53
-3.25
-5.26
-7.26
-8.18
-7.72
-6.13
-4.02
-2.12
-0.99
-0.82
-1.52
-2.79
-4.35
-6.08
-7.97
-10.02
-12.22
-14.49
-16.73
-18.82
-20.67
-22.21
-23.51
-24.78
-26.37
-28.74
-32.22
-36.82
-41.99
-46.74
-49.82
-50.15
-47.17
-41.02
-32.47
-22.60
-12.52
-3.08
5.16
11.91
17.10
20.80
23.16
24.43
24.81
24.49
23.55
22.01
19.92
17.44
14.81
12.35
10.26
8.55
7.05
5.46
3.52
1.12
-1.68
-4.68
-7.74
-10.77
-13.82
-17.02
-20.53
-24.50
-29.05
-34.17
-39.70
-45.20
-49.91
-52.95
-53.44
-50.90
-45.40
-37.65
-28.75
-19.91
-12.09
-5.78
-1.10
2.12
4.04
4.69
3.94
1.69
-1.96
-6.65
-11.82
-16.91
-21.60
-25.90
-30.20
-35.04
-40.91
-48.06
-56.33
-65.12
-73.45
-80.21
-84.43
-85.61
-83.96
-80.38
-76.17
-72.81
-71.52
-73.17
-78.03
-85.63
-94.50
-102.19
-105.76
-102.56
-91.28
-72.56
-48.81
-23.32
0.78
21.50
38.03
50.40
58.94
63.97
65.93
65.65
64.50
64.09
65.71
69.78
75.62
81.75
86.46
88.42
87.12
82.76
76.04
67.76
58.63
49.14
39.71
30.73
22.49
15.11
8.33
1.54
-6.11
-15.48
-27.19
-41.35
-57.36
-73.83
-88.63
-99.26
-103.52
-100.21
-89.58
-73.33
-53.99
-34.19
-15.92
-0.31
12.38
22.27
29.61
34.55
37.34
38.33
38.12
37.38
36.67
36.27
36.12
35.97
35.55
34.72
33.49
31.92
30.04
27.74
24.88
21.28
16.93
11.95
6.59
1.12
-4.26
-9.46
-14.58
-19.88
-25.88
-33.16
-42.26
-53.29
-65.57
-77.54
-86.92
-91.34
-89.09
-79.80
-64.67
-46.08
-26.83
-9.27
5.24
16.45
24.79
30.90
35.15
37.59
38.19
37.05
34.60
31.50
28.37
25.59
23.21
21.04
18.96
17.07
15.71
15.28
15.97
17.62
19.67
21.38
22.14
21.65
20.05
17.78
15.37
13.21
11.35
9.48
6.92
2.89
-3.23
-11.53
-21.30
-31.07
-38.75
-42.25
-40.11
-31.93
-18.61
-2.01
15.58
32.08
46.08
57.03
64.99
70.40
73.71
75.27
75.33
74.19
72.21
69.78
67.27
64.79
62.25
59.42
56.14
52.44
48.57
44.85
41.48
38.39
35.17
31.35
26.53
20.63
13.89
6.85
0.11
-5.90
-11.01
-15.48
-19.83
-24.76
-30.81
-38.12
-46.11
-53.48
-58.44
-59.09
-54.13
-43.26
-27.46
-8.64
10.88
29.09
44.76
57.49
67.47
75.01
80.34
83.47
84.39
83.24
80.31
76.10
71.07
65.60
59.95
54.29
48.72
43.27
37.91
32.51
26.94
21.12
15.11
9.02
3.00
-2.88
-8.62
-14.31
-20.09
-26.19
-32.87
-40.33
-48.52
-56.84
-64.07
-68.52
-68.51
-62.93
-51.79
-36.22
-18.22
-0.01
16.56
30.43
41.31
49.45
55.26
59.10
61.16
61.54
60.34
57.74
53.91
49.02
43.19
36.55
29.29
21.66
14.02
6.70
-0.10
-6.32
-12.10
-17.66
-23.21
-28.91
-34.79
-40.71
-46.48
-51.89
-56.92
-61.78
-67.01
-73.25
-80.90
-89.70
-98.57
-105.76
-109.30
-107.70
-100.44
-88.16
-72.46
-55.32
-38.56
-23.41
-10.35
0.75
10.43
19.38
28.24
37.47
47.36
57.87
68.63
78.89
87.67
94.02
97.41
98.11
97.21
96.27
96.66
98.87
102.16
104.92
105.36
102.44
96.27
88.14
79.80
72.76
67.74
64.56
62.38
60.10
56.49
50.36
40.70
27.08
10.26
-7.53
-22.83
-32.03
-32.73
-24.81
-10.47
6.80
23.78
38.75
51.77
63.84
75.70
86.84
95.46
99.24
96.54
87.14
72.46
54.90
37.02
20.81
7.29
-3.43
-11.65
-17.84
-22.32
-25.31
-27.08
-28.10
-29.09
-30.77
-33.59
-37.49
-41.92
-46.05
-49.24
-51.40
-53.02
-55.10
-58.66
-64.40
-72.24
-81.25
-89.72
-95.56
-96.86
-92.44
-82.33
-67.73
-50.69
-33.40
-17.60
-4.20
6.63
15.13
21.55
25.95
28.35
28.89
28.02
26.39
24.69
23.39
22.68
22.45
22.46
22.46
22.27
21.78
20.95
19.85
18.68
17.76
17.41
17.89
19.22
21.21
23.55
25.93
28.28
30.75
33.65
37.08
40.66
43.42
44.06
41.43
35.08
25.73
15.33
6.80
3.51
8.69
24.91
53.57
94.25
144.18
198.00
248.35
287.44
309.25
311.18
295.20
267.08
234.17
202.91
177.01
157.21
142.30
130.62
120.84
112.42
105.25
98.99
92.70
85.13
75.20
62.66
48.15
32.27
15.86
-0.39
-16.17
-31.85
-48.28
-66.48
-87.23
-110.98
-139.43
-173.05
-210.23
-247.23
-279.48
-303.24
-316.61
-319.92
-315.42
-309.80
-308.33
-312.72
-321.13
-330.54
-338.92
-345.76
-351.40
-356.19
-365.50
-382.38
-405.88
-431.85
-456.24
-477.24
-494.96
-510.20
-523.50
-542.14
-570.38
-606.72
-644.14
-674.57
-692.58
-696.60
-688.48
-627.11
-496.88
-312.72
-113.19
65.22
204.89
305.42
374.49
420.87
451.65
464.82
459.60
438.83
411.18
384.94
364.86
352.11
345.54
343.19
337.76
324.61
303.95
280.41
259.30
242.49
229.86
220.07
211.72
200.56
184.34
163.80
142.18
122.62
106.54
93.97
84.13
76.33
68.60
59.87
50.22
40.66
32.01
24.45
17.91
12.20
7.29
2.59
-2.34
-7.64
-13.04
-18.31
-23.53
-28.99
-35.13
-42.17
-49.71
-56.57
-61.03
-61.35
-56.46
-46.36
-32.07
-15.18
2.66
20.16
36.48
51.01
63.23
72.78
79.68
84.59
88.74
93.50
99.93
108.35
118.17
128.09
136.44
141.55
142.23
138.15
130.03
119.56
108.94
100.08
93.88
89.88
86.54
82.13
75.56
66.84
56.80
46.38
35.83
24.48
10.95
-6.14
-27.37
-52.10
-78.46
-103.90
-126.00
-143.14
-154.88
-161.80
-165.07
-165.99
-165.62
-164.79
-164.16
-164.30
-165.59
-167.90
-170.46
-172.01
-171.27
-167.49
-160.88
-152.52
-143.70
-135.28
-127.22
-118.77
-108.96
-97.19
-83.42
-68.01
-51.18
-32.80
-12.55
9.49
32.28
53.72
71.19
82.59
87.21
85.92
80.65
73.47
66.04
59.51
54.83
53.31
56.59
66.01
81.63
101.78
123.49
143.82
160.96
174.50
184.98
192.79
197.36
197.18
190.69
177.42
159.06
138.67
119.35
102.92
89.32
77.09
64.51
50.69
36.17
23.57
15.35
12.44
13.71
16.93
19.94
21.60
21.79
20.91
21.29
24.23
29.14
34.03
37.02
37.75
37.58
38.86
43.82
57.12
80.87
113.17
148.62
180.76
205.01
219.68
225.70
225.21
225.05
230.36
242.58
259.30
276.51
290.97
300.85
305.58
280.28
213.05
109.39
-9.11
-119.27
-208.17
-273.15
-316.37
-339.09
-346.48
-338.57
-316.99
-286.79
-255.31
-229.06
-210.73
-200.64
-196.22
-194.36
-188.71
-174.95
-151.95
-121.63
-87.94
-54.91
-25.62
-1.58
16.90
32.83
48.68
64.97
80.02
90.28
92.39
84.84
68.60
46.36
22.87
1.91
-17.08
-33.43
-46.68
-56.93
-64.93
-71.70
-78.53
-86.30
-97.00
-111.67
-129.64
-149.13
-167.49
-181.98
-190.87
-194.27
-191.50
-184.89
-177.66
-172.41
-170.72
-172.60
-176.26
-178.69
-176.61
-167.63
-151.58
-129.85
-104.73
-79.01
-55.00
-34.08
-16.72
-2.68
8.51
17.06
23.56
29.15
35.07
42.28
51.09
61.09
72.05
83.61
95.20
106.32
116.70
126.02
133.88
139.72
143.09
145.12
146.99
149.04
150.83
151.63
151.01
148.95
145.40
139.93
133.53
126.54
118.40
108.65
98.40
90.75
89.34
96.35
111.23
133.64
161.84
193.01
223.90
251.66
274.00
288.87
294.62
275.01
224.37
150.45
70.15
-1.80
-60.12
-107.20
-147.32
-182.23
-210.22
-227.38
-230.65
-220.60
-201.59
-179.33
-158.28
-140.85
-127.89
-119.51
-114.28
-110.80
-107.99
-104.93
-100.66
-94.40
-85.86
-75.50
-64.30
-52.38
-40.09
-28.71
-20.16
-15.89
-15.65
-17.55
-18.93
-17.69
-12.91
-5.61
1.48
5.27
4.10
-1.20
-7.69
-11.89
-11.41
-6.21
1.20
6.89
7.12
-0.07
-14.43
-33.85
-55.08
-73.55
-84.35
-83.22
-68.56
-43.52
-16.27
1.87
1.21
-21.23
-58.54
-96.94
-121.90
-124.89
-106.96
-76.74
-45.76
-22.61
-9.67
-3.12
2.35
9.62
17.93
24.17
26.49
25.63
24.72
27.62
37.99
56.39
80.31
106.34
127.69
141.69
148.94
151.86
145.76
128.81
102.27
69.65
35.26
1.93
-28.13
-52.99
-71.16
-81.85
-84.44
-79.44
-68.78
-54.21
-37.31
-18.47
2.73
26.76
53.62
83.26
115.72
150.09
186.83
226.91
266.72
303.88
336.97
365.87
391.65
416.38
428.85
419.60
382.25
316.69
229.23
131.27
38.77
-41.97
-106.67
-154.87
-188.93
-215.02
-234.89
-252.32
-271.26
-294.89
-324.92
-358.85
-390.90
-411.67
-412.37
-388.53
-342.79
-283.94
-223.80
-173.43
-138.74
-120.88
-116.82
-122.37
-133.64
-147.98
-162.86
-175.51
-183.54
-184.90
-179.18
-167.11
-150.46
-131.40
-112.12
-94.00
-77.41
-61.98
-46.70
-30.95
-14.76
0.98
15.06
26.53
35.35
42.15
47.55
51.63
53.79
53.42
50.51
45.99
41.66
39.52
40.96
46.40
55.43
67.25
81.26
96.79
113.02
129.22
144.85
159.63
173.51
186.63
199.12
211.26
222.81
232.95
240.71
245.21
245.59
241.04
231.02
215.68
196.38
174.56
151.06
126.09
99.25
69.94
37.82
3.25
-35.08
-73.99
-108.47
-134.91
-152.79
-163.72
-169.76
-172.53
-173.14
-172.37
-172.44
-173.01
-172.71
-169.53
-161.27
-146.40
-124.60
-96.89
-65.27
-30.77
1.93
27.67
43.74
51.39
54.77
58.57
65.68
76.16
87.95
97.93
104.13
106.49
106.40
105.31
103.72
100.99
96.11
89.99
82.30
73.83
65.79
58.89
53.01
47.44
41.50
35.06
28.69
23.06
19.11
17.60
18.66
21.88
26.44
31.32
35.42
37.76
38.70
38.61
38.03
37.34
36.69
36.02
35.07
33.51
31.16
27.98
24.39
21.08
18.39
16.44
15.06
13.76
11.85
8.64
3.76
-2.74
-10.42
-19.72
-30.97
-44.13
-58.80
-74.43
-90.28
-105.01
-116.53
-122.22
-121.68
-115.00
-102.66
-85.94
-67.32
-50.00
-36.62
-28.39
-25.20
-29.33
-41.92
-62.08
-87.22
-114.62
-142.43
-169.54
-195.36
-219.81
-247.31
-280.78
-319.29
-358.05
-390.94
-412.71
-420.08
-412.40
-367.31
-280.47
-167.66
-55.90
34.51
97.91
138.86
164.77
181.49
192.23
194.50
187.19
172.79
156.76
143.96
136.66
134.76
137.02
142.19
146.37
147.26
145.09
141.68
138.39
135.48
132.82
130.49
128.80
126.01
120.81
112.28
102.09
92.34
84.81
80.42
78.90
78.91
77.72
73.50
66.76
59.26
52.91
49.28
49.10
51.92
56.22
59.53
59.69
55.64
47.92
37.47
26.22
16.36
9.42
5.47
3.14
0.20
-5.67
-14.69
-27.49
-43.24
-59.83
-74.73
-86.16
-93.72
-98.20
-101.24
-104.88
-112.25
-124.63
-140.67
-156.74
-168.51
-172.38
-166.64
-151.87
-123.33
-83.62
-40.83
-3.66
23.74
42.07
53.83
60.75
63.35
61.55
54.99
45.32
35.96
30.56
31.43
38.98
51.90
67.25
80.39
85.83
79.64
61.14
33.49
2.69
-24.40
-42.30
-46.69
-38.47
-22.73
-4.77
12.33
27.88
42.13
54.75
64.49
69.91
70.33
66.55
61.15
57.15
56.49
58.85
62.06
63.28
60.33
52.45
40.57
26.63
12.80
0.09
-11.91
-24.61
-39.65
-58.22
-79.56
-103.37
-127.48
-147.69
-158.57
-155.27
-135.79
-102.64
-62.51
-24.07
5.29
22.46
28.93
28.95
26.83
24.96
23.48
21.39
18.16
14.30
11.30
10.42
11.72
14.07
15.80
15.48
12.76
8.44
3.87
0.47
-0.99
-0.72
0.31
0.84
-0.06
-2.62
-6.35
-10.37
-13.76
-16.04
-17.30
-18.10
-19.25
-21.22
-24.13
-27.65
-31.22
-34.21
-36.17
-36.93
-36.54
-35.21
-33.13
-30.38
-26.96
-22.78
-17.73
-11.73
-4.96
2.28
9.52
16.21
21.88
26.23
29.22
31.09
32.29
33.24
34.20
35.16
35.87
35.95
35.18
33.59
31.57
29.78
28.75
28.68
29.34
30.15
30.56
30.20
29.15
27.85
27.04
27.31
29.06
32.51
37.68
44.05
50.32
54.27
53.28
45.54
30.70
10.35
-12.32
-33.64
-50.71
-62.09
-67.75
-68.26
-63.58
-53.19
-36.53
-13.82
13.36
41.97
68.29
88.93
99.87
100.15
91.26
76.23
58.61
41.91
29.04
21.91
21.05
25.30
32.28
38.60
40.98
37.40
28.80
17.30
5.68
-3.81
-10.31
-14.45
-18.20
-23.85
-33.13
-45.60
-58.46
-67.64
-68.95
-59.39
-38.21
-7.80
26.95
56.81
72.34
67.54
41.81
0.65
-46.06
-87.50
-115.65
-127.64
-126.02
-117.85
-107.82
-98.91
-92.28
-87.74
-84.37
-81.19
-75.45
-66.16
-52.75
-35.17
-14.82
6.00
24.68
39.23
48.59
52.72
52.19
48.48
43.96
41.05
42.01
48.19
59.45
73.61
86.77
95.04
96.44
91.34
81.14
66.91
48.48
25.09
-3.61
-36.05
-68.52
-96.26
-115.42
-124.78
-125.76
-122.41
-116.75
-109.52
-100.46
-89.20
-75.97
-61.88
-48.53
-37.20
-28.25
-20.95
-14.19
-7.18
0.38
8.32
16.54
25.30
35.29
47.03
60.40
74.12
86.14
94.65
99.00
99.90
99.03
98.07
97.89
97.63
96.79
96.16
98.53
107.71
126.38
153.73
184.75
211.63
226.89
226.58
211.32
185.07
152.30
115.57
75.24
31.22
-14.59
-57.22
-89.94
-107.60
-109.53
-100.48
-88.67
-82.31
-86.34
-101.05
-122.98
-147.34
-170.30
-189.96
-205.81
-217.43
-223.56
-222.25
-211.90
-192.67
-167.19
-140.26
-117.34
-102.43
-96.37
-96.38
-96.95
-91.73
-75.85
-47.58
-8.93
34.97
77.64
113.19
137.97
151.29
155.04
152.54
147.17
141.35
136.15
131.70
127.79
124.51
122.24
121.20
120.80
119.41
114.74
104.79
88.86
68.00
44.53
21.11
-0.16
-18.08
-31.94
-41.21
-45.49
-45.04
-41.39
-37.29
-35.75
-38.50
-44.82
-51.60
-54.72
-50.93
-39.30
-21.38
-0.37
20.11
37.03
48.16
52.27
49.12
39.81
26.82
13.57
3.56
-0.64
1.91
10.49
23.21
37.68
51.48
62.35
68.39
68.38
62.16
50.90
36.80
22.36
9.34
-1.81
-11.91
-22.41
-34.40
-47.95
-61.99
-74.70
-84.37
-90.08
-92.02
-91.40
-89.98
-89.37
-90.55
-93.71
-98.34
-103.67
-109.01
-114.00
-118.65
-123.11
-127.47
-131.62
-135.19
-137.71
-138.75
-138.11
-135.91
-132.52
-128.37
-123.75
-118.75
-113.35
-107.61
-101.81
-96.31
-91.42
-87.14
-83.26
-79.63
-76.46
-74.56
-74.98
-78.58
-85.14
-93.17
-99.91
-101.97
-96.35
-81.31
-57.13
-26.13
7.81
40.54
68.63
90.46
106.22
117.31
125.45
131.92
137.33
141.95
146.38
151.27
157.34
164.81
173.23
181.81
189.98
197.81
203.58
205.66
202.06
191.40
173.59
150.21
124.10
98.23
74.69
54.33
38.41
26.23
17.29
11.28
7.80
6.34
6.42
8.00
11.46
17.46
25.33
33.72
40.27
42.45
38.70
29.10
15.29
-0.55
-16.51
-31.88
-46.47
-60.28
-72.98
-83.83
-92.13
-97.69
-101.12
-103.48
-105.90
-108.80
-111.84
-114.08
-114.51
-112.51
-108.20
-102.47
-96.58
-91.73
-88.33
-85.78
-82.59
-76.87
-67.14
-53.04
-35.59
-16.76
1.30
17.15
30.40
41.53
51.36
60.44
68.87
76.51
83.25
89.29
94.95
100.42
105.53
109.90
113.31
115.91
118.18
120.42
122.26
122.57
119.80
112.90
102.00
88.55
74.81
62.85
53.82
47.65
43.46
40.18
36.98
33.47
29.38
24.42
18.18
10.34
0.98
-9.20
-18.98
-27.04
-32.44
-35.05
-35.66
-35.74
-36.96
-40.61
-47.13
-55.93
-65.47
-73.69
-78.56
-78.64
-73.54
-64.04
-51.84
-39.09
-27.67
-18.88
-13.09
-9.99
-8.86
-8.91
-9.39
-9.69
-9.19
-7.29
-3.39
2.83
11.35
21.64
32.76
43.64
53.44
61.79
68.83
74.84
79.85
83.29
84.09
81.17
73.98
62.91
49.27
34.80
21.12
9.43
0.40
-5.64
-8.55
-8.28
-4.97
1.11
9.51
19.79
31.52
44.29
57.63
70.92
83.43
94.60
104.10
111.82
117.68
121.36
122.28
119.74
113.31
103.12
89.99
75.15
59.84
44.89
30.59
16.80
3.25
-10.20
-23.47
-36.28
-48.32
-59.38
-69.45
-78.78
-87.88
-97.29
-107.35
-117.88
-128.00
-136.22
-140.83
-140.45
-134.56
-123.72
-109.35
-93.30
-77.28
-62.52
-49.59
-38.63
-29.55
-22.34
-17.11
-14.03
-13.14
-14.16
-16.40
-18.92
-20.76
-21.22
-20.08
-17.65
-14.62
-11.80
-9.91
-9.45
-10.61
-13.37
-17.56
-22.94
-29.17
-35.86
-42.58
-49.02
-55.14
-61.10
-67.12
-73.10
-78.39
-81.77
-81.80
-77.41
-68.42
-55.78
-41.29
-27.01
-14.69
-5.34
0.80
4.00
4.81
3.76
1.32
-2.01
-5.64
-8.83
-10.70
-10.38
-7.15
-0.72
8.65
20.01
31.82
42.34
50.08
54.31
55.38
54.59
53.88
55.14
59.58
67.25
76.99
86.71
93.98
96.70
93.65
84.84
71.37
55.02
37.67
20.68
4.79
-9.90
-23.54
-36.23
-47.89
-58.31
-67.40
-75.22
-81.92
-87.56
-91.93
-94.62
-95.31
-94.07
-91.42
-88.26
-85.40
-83.26
-81.65
-79.93
-77.38
-73.60
-68.72
-63.34
-58.27
-54.25
-51.78
-51.21
-52.77
-56.66
-62.90
-71.02
-79.91
-88.04
-93.93
-96.78
-96.69
-94.34
-90.13
-83.47
-72.65
-55.45
-30.15
3.63
44.69
90.60
138.28
184.36
225.28
257.51
277.93
284.71
278.17
260.92
237.25
211.67
187.30
164.97
143.34
120.15
93.83
64.75
35.32
9.19
-10.32
-21.60
-25.27
-23.88
-20.84
-19.40
-21.92
-29.64
-42.76
-60.39
-80.51
-99.97
-115.07
-122.56
-120.94
-111.09
-95.99
-79.45
-64.61
-52.85
-43.70
-35.65
-27.22
-17.71
-7.38
2.93
12.39
20.38
26.58
30.79
32.81
32.63
30.49
27.10
23.47
20.69
19.66
20.82
24.07
28.79
34.03
38.81
42.44
44.59
45.33
44.83
43.12
39.94
34.72
26.83
15.86
1.80
-14.90
-33.44
-52.91
-72.44
-91.34
-109.01
-124.85
-138.08
-147.63
-152.32
-151.14
-143.66
-130.24
-112.07
-90.74
-67.87
-44.66
-21.74
0.73
22.71
43.99
64.02
81.97
97.05
108.71
116.91
122.04
124.74
125.70
125.40
124.12
122.04
119.41
116.58
113.90
111.57
109.46
107.16
104.19
100.25
95.25
89.21
82.02
73.32
62.67
49.77
34.78
18.46
1.98
-13.43
-26.77
-37.44
-45.20
-50.12
-52.53
-52.97
-52.21
-51.20
-50.83
-51.65
-53.72
-56.57
-59.47
-61.61
-62.43
-61.76
-59.82
-57.05
-53.96
-50.92
-48.06
-45.31
-42.47
-39.44
-36.27
-33.24
-30.67
-28.83
-27.82
-27.54
-27.71
-28.12
-28.67
-29.44
-30.73
-32.88
-36.22
-40.95
-47.04
-54.12
-61.43
-67.91
-72.35
-73.83
-71.95
-67.05
-60.14
-52.56
-45.61
-40.20
-36.75
-35.30
-35.70
-37.79
-41.43
-46.46
-52.55
-59.23
-65.89
-71.82
-76.35
-78.96
-79.40
-77.72
-74.27
-69.55
-64.01
-57.95
-51.38
-44.11
-35.79
-26.08
-14.66
-1.41
13.52
29.51
45.46
59.83
71.00
77.73
79.66
77.60
73.39
69.49
68.16
70.84
77.64
87.51
98.64
109.14
117.57
123.21
125.95
126.12
124.15
120.50
115.54
109.59
102.93
95.78
88.22
80.21
71.60
62.18
51.79
40.43
28.26
15.64
3.02
-9.14
-20.38
-30.16
-37.79
-42.38
-43.04
-39.20
-30.94
-19.25
-5.86
7.06
17.48
24.02
26.28
24.84
21.10
16.95
14.23
14.33
17.81
24.25
32.34
40.27
46.27
49.09
48.36
44.59
38.93
32.74
27.13
22.72
19.57
17.36
15.68
14.23
12.86
11.51
10.05
8.27
5.94
2.95
-0.54
-4.14
-7.38
-10.04
-12.20
-14.33
-16.92
-20.29
-24.43
-29.02
-33.66
-38.14
-42.48
-46.84
-51.36
-55.93
-60.18
-63.57
-65.59
-65.78
-63.84
-59.53
-52.77
-43.67
-32.64
-20.38
-7.80
4.25
15.06
24.20
31.42
36.65
39.83
41.06
40.55
38.71
36.05
33.04
30.06
27.23
24.55
21.94
19.33
16.79
14.43
12.40
10.81
9.67
8.82
7.98
6.84
5.16
2.81
-0.10
-3.31
-6.46
-9.27
-11.61
-13.62
-15.64
-18.13
-21.52
-25.98
-31.28
-36.72
-41.18
-43.35
-42.15
-37.07
-28.37
-17.03
-4.41
8.14
19.63
29.57
37.86
44.63
50.03
54.18
57.17
59.19
60.51
61.44
62.25
63.02
63.67
64.01
63.86
63.18
62.12
60.92
59.77
58.72
57.62
56.18
54.13
51.23
47.44
42.85
37.70
32.30
27.01
22.02
17.35
12.73
7.83
2.47
-3.03
-7.82
-10.72
-10.68
-7.25
-0.83
7.52
16.46
24.88
32.14
38.05
42.69
46.11
48.32
49.33
49.32
48.72
47.92
47.01
45.54
42.62
37.39
29.53
19.50
8.34
-2.84
-13.51
-23.80
-34.27
-45.31
-56.77
-67.92
-77.98
-86.66
-94.43
-102.35
-111.44
-122.20
-134.39
-147.19
-159.55
-170.50
-179.12
-184.38
-185.15
-180.31
-169.21
-152.16
-130.57
-106.79
-83.51
-63.04
-46.74
-34.92
-27.08
-22.32
-19.87
-19.17
-19.89
-21.78
-24.58
-28.01
-31.87
-36.11
-40.79
-46.07
-52.05
-58.68
-65.85
-73.42
-81.21
-89.07
-96.80
-104.12
-110.73
-116.51
-121.53
-126.15
-130.93
-136.41
-142.83
-149.87
-156.34
-160.31
-159.39
-151.51
-135.59
-112.13
-83.25
-52.20
-22.45
3.17
23.10
37.18
46.29
51.79
54.95
56.70
57.54
57.71
57.37
56.71
56.05
55.71
55.88
56.56
57.45
58.12
58.10
57.10
55.03
52.08
48.55
44.70
40.62
36.25
31.40
25.95
19.92
13.43
6.61
-0.51
-7.98
-15.76
-23.48
-30.25
-34.81
-35.92
-32.89
-25.88
-16.02
-4.93
5.76
14.90
21.98
27.02
30.35
32.32
33.26
33.45
33.21
32.92
32.88
33.27
34.05
35.05
35.98
36.66
37.07
37.24
37.33
37.40
37.41
37.27
36.86
36.16
35.21
34.13
33.07
32.18
31.65
31.65
32.30
33.58
35.40
37.66
40.43
44.02
48.91
55.53
63.92
73.53
83.23
91.58
97.22
99.28
97.55
92.50
85.11
76.49
67.61
59.04
50.89
42.93
34.87
26.58
18.31
10.62
4.16
-0.63
-3.70
-5.39
-6.26
-6.81
-7.42
-8.28
-9.54
-11.37
-13.96
-17.50
-21.96
-27.24
-33.09
-39.27
-45.45
-51.14
-55.58
-57.82
-57.07
-52.98
-45.92
-36.84
-26.98
-17.45
-8.87
-1.47
4.88
10.34
14.99
18.84
21.91
24.31
26.24
27.92
29.53
31.16
32.85
34.57
36.27
37.85
39.21
40.33
41.24
42.05
42.88
43.81
44.78
45.66
46.27
46.38
45.75
44.15
41.45
37.75
33.59
29.88
27.75
28.19
31.70
38.12
46.67
56.28
65.94
74.83
82.43
88.35
92.27
93.93
93.21
90.18
85.19
78.73
71.38
63.64
55.97
48.66
41.94
35.88
30.47
25.64
21.30
17.35
13.73
10.38
7.20
4.05
0.71
-3.02
-7.31
-12.24
-17.77
-23.80
-30.10
-36.28
-41.70
-45.51
-46.81
-45.01
-40.14
-32.98
-24.91
-17.49
-11.95
-8.76
-7.71
-8.09
-9.15
-10.47
-11.97
-13.82
-16.16
-18.92
-21.73
-24.03
-25.19
-24.77
-22.58
-18.81
-14.00
-8.94
-4.48
-1.35
-0.03
-0.68
-3.14
-7.05
-11.95
-17.36
-22.83
-28.07
-32.90
-37.34
-41.53
-45.60
-49.54
-52.96
-55.19
-55.36
-52.74
-47.13
-38.95
-29.18
-19.07
-9.74
-1.84
4.50
9.57
13.79
17.48
20.69
23.36
25.31
26.46
26.79
26.34
25.16
23.26
20.66
17.46
13.84
10.03
6.24
2.60
-0.91
-4.39
-7.97
-11.73
-15.58
-19.30
-22.57
-25.06
-26.60
-27.29
-27.43
-27.49
-27.74
-28.12
-28.10
-26.84
-23.56
-17.90
-10.12
-1.10
8.02
16.21
22.85
27.85
31.43
33.91
35.49
36.29
36.38
36.00
35.51
35.35
35.76
36.76
38.08
39.32
40.16
40.45
40.20
39.42
38.05
35.86
32.65
28.41
23.43
18.30
13.68
10.07
7.59
5.97
4.72
3.36
1.60
-0.62
-3.14
-5.64
-7.65
-8.65
-8.13
-5.78
-1.64
3.78
9.63
14.98
19.12
21.78
23.14
23.71
24.10
24.82
26.11
28.01
30.33
32.78
35.05
36.86
38.01
38.45
38.23
37.58
36.80
36.17
35.86
35.79
35.60
34.68
32.37
28.14
21.72
13.21
2.96
-8.45
-20.42
-32.42
-44.09
-55.32
-66.17
-76.67
-86.59
-95.28
-101.69
-104.72
-103.72
-98.88
-91.25
-82.41
-73.81
-66.35
-60.11
-54.59
-49.20
-43.65
-38.09
-33.01
-28.95
-26.08
-24.23
-22.88
-21.34
-19.21
-16.43
-13.21
-10.03
-7.41
-5.49
-4.32
-3.65
-2.90
-1.85
-0.57
0.49
0.59
-0.94
-4.03
-8.51
-13.85
-19.29
-24.73
-30.22
-35.54
-39.98
-42.59
-42.44
-40.79
-40.79
-46.22
-60.60
-84.97
-117.24
-153.04
-187.44
-215.92
-236.82
-250.31
-251.45
-236.20
-202.24
-150.99
-88.36
-27.40
26.29
71.07
107.85
138.90
165.88
189.30
208.94
224.16
234.30
239.56
239.54
234.04
223.73
209.53
192.88
175.29
157.72
140.42
123.58
106.55
88.90
71.15
54.24
39.35
27.26
17.86
10.19
3.23
-4.40
-13.62
-24.42
-36.21
-48.05
-59.11
-68.98
-77.66
-85.16
-91.65
-97.20
-101.72
-105.22
-107.89
-110.11
-112.26
-114.46
-116.32
-117.14
-116.13
-112.79
-107.23
-100.32
-93.46
-88.13
-85.27
-84.91
-86.05
-87.11
-86.50
-83.37
-77.84
-70.97
-64.21
-58.69
-54.69
-51.57
-47.99
-42.56
-34.40
-23.43
-10.41
3.47
17.05
29.48
40.39
49.71
57.50
63.73
68.34
71.31
72.83
73.34
73.39
73.44
73.73
74.20
74.60
74.65
74.18
73.25
72.07
70.93
69.99
69.18
68.22
66.68
64.12
60.28
55.14
48.88
41.81
34.24
26.40
18.29
9.77
0.55
-9.59
-20.65
-32.21
-43.40
-53.00
-59.78
-62.87
-62.06
-57.85
-51.26
-43.56
-35.83
-28.85
-23.01
-18.40
-14.96
-12.57
-11.04
-10.10
-9.36
-8.33
-6.55
-3.73
0.18
4.89
9.88
14.59
18.57
21.64
23.90
25.61
27.05
28.36
29.49
30.23
30.32
29.62
28.17
26.20
24.03
21.99
20.26
18.88
17.75
16.63
15.26
13.34
10.66
7.17
3.20
-0.54
-3.04
-3.25
-0.40
5.70
14.65
25.57
37.47
49.47
60.89
71.20
79.85
86.15
89.40
89.07
85.11
78.04
68.89
58.92
49.26
40.70
33.56
27.86
23.45
20.14
17.67
15.63
13.46
10.53
6.39
0.89
-5.70
-12.81
-19.84
-26.34
-32.04
-36.79
-40.44
-42.79
-43.73
-43.35
-42.15
-40.96
-40.78
-42.32
-45.71
-50.28
-54.69
-57.24
-56.51
-51.80
-43.39
-32.38
-20.32
-8.57
2.03
11.24
19.26
26.36
32.58
37.76
41.62
44.02
45.10
45.24
44.88
44.36
43.79
43.05
41.96
40.43
38.57
36.65
34.96
33.63
32.55
31.40
29.79
27.40
24.14
20.16
15.72
11.10
6.47
1.89
-2.70
-7.41
-12.40
-17.85
-23.96
-30.88
-38.49
-46.35
-53.62
-59.30
-62.44
-62.54
-59.67
-54.48
-47.90
-40.91
-34.24
-28.31
-23.27
-19.16
-15.96
-13.64
-12.06
-10.96
-9.93
-8.57
-6.57
-3.91
-0.88
2.05
4.44
6.05
6.98
7.60
8.30
9.30
10.49
11.46
11.72
10.88
8.86
5.84
2.24
-1.48
-4.99
-8.11
-10.94
-13.72
-16.80
-20.44
-24.60
-28.87
-32.43
-34.30
-33.67
-30.18
-24.11
-16.27
-7.70
0.66
8.19
14.68
20.11
24.55
27.95
30.15
31.01
30.58
29.13
27.14
25.10
23.33
21.89
20.55
18.91
16.55
13.01
7.89
0.93
-7.78
-17.69
-27.73
-36.59
-43.12
-46.73
-47.48
-45.94
-42.93
-39.28
-35.76
-33.13
-32.07
-33.01
-35.75
-39.40
-42.54
-43.71
-41.97
-37.26
-30.25
-22.06
-13.83
-6.43
-0.36
4.23
7.44
9.52
10.86
11.78
12.55
13.24
13.80
14.15
14.29
14.29
14.30
14.38
14.57
14.81
15.04
15.16
15.05
14.50
13.29
11.26
8.45
5.23
2.15
-0.17
-1.40
-1.65
-1.49
-1.71
-3.01
-5.64
-9.30
-13.15
-16.12
-17.23
-15.94
-12.27
-6.73
-0.13
6.71
13.14
18.73
23.22
26.47
28.38
28.92
28.18
26.42
24.04
21.47
19.08
17.07
15.40
13.90
12.38
10.75
9.05
7.47
6.18
5.23
4.48
3.62
2.27
0.13
-2.91
-6.68
-10.79
-14.74
-18.08
-20.60
-22.42
-23.94
-25.78
-28.52
-32.47
-37.47
-42.81
-47.35
-49.84
-49.31
-45.39
-38.49
-29.62
-20.05
-10.88
-2.80
3.99
9.54
14.03
17.48
19.89
21.26
21.74
21.62
21.25
20.91
20.73
20.65
20.49
20.08
19.31
18.22
16.97
15.75
14.72
13.89
13.15
12.24
10.90
8.93
6.27
3.07
-0.40
-3.84
-7.02
-9.93
-12.71
-15.65
-19.12
-23.40
-28.56
-34.38
-40.16
-44.89
-47.36
-46.58
-42.16
-34.50
-24.67
-14.12
-4.17
4.38
11.27
16.65
20.75
23.67
25.36
25.80
25.13
23.78
22.32
21.27
20.88
21.07
21.41
21.47
20.89
19.66
18.01
16.31
14.89
13.84
13.02
12.04
10.52
8.18
4.98
1.17
-2.90
-6.84
-10.41
-13.54
-16.35
-19.07
-21.97
-25.33
-29.36
-34.08
-39.20
-44.00
-47.44
-48.45
-46.28
-40.80
-32.58
-22.70
-12.43
-2.84
5.36
11.93
16.91
20.51
22.94
24.38
25.02
25.09
24.86
24.66
24.74
25.17
25.86
26.48
26.64
26.08
24.77
22.93
20.96
19.28
18.12
17.48
17.10
16.62
15.73
14.23
12.19
9.86
7.56
5.58
4.07
2.98
2.10
1.12
-0.33
-2.61
-5.89
-10.07
-14.58
-18.48
-20.64
-20.12
-16.56
-10.32
-2.38
6.06
13.98
20.73
26.12
30.16
32.87
34.20
34.12
32.81
30.73
28.51
26.73
25.63
24.98
24.22
22.69
19.96
16.00
11.15
5.93
0.79
-4.02
-8.52
-12.89
-17.34
-21.94
-26.62
-31.13
-35.21
-38.67
-41.54
-44.02
-46.46
-49.24
-52.62
-56.65
-61.04
-65.14
-67.94
-68.35
-65.48
-58.93
-48.99
-36.65
-23.28
-10.27
1.32
10.93
18.44
24.05
28.02
30.64
32.18
32.90
33.05
32.88
32.56
32.17
31.70
31.12
30.39
29.51
28.43
27.12
25.45
23.30
20.57
17.28
13.55
9.62
5.74
2.11
-1.18
-4.23
-7.32
-10.87
-15.30
-20.87
-27.34
-33.96
-39.45
-42.39
-41.69
-36.99
-28.82
-18.51
-7.69
2.20
10.25
16.21
20.34
23.09
24.84
25.69
25.56
24.26
21.73
18.08
13.72
9.20
5.07
1.74
-0.60
-2.05
-2.89
-3.56
-4.52
-6.15
-8.72
-12.24
-16.47
-21.02
-25.44
-29.42
-32.92
-36.15
-39.54
-43.51
-48.26
-53.60
-58.80
-62.70
-63.99
-61.58
-55.05
-44.79
-32.05
-18.53
-5.89
4.66
12.58
17.95
21.16
22.67
22.82
21.78
19.70
16.77
13.27
9.54
5.92
2.67
-0.01
-2.00
-3.27
-3.86
-3.93
-3.72
-3.52
-3.53
-3.84
-4.39
-5.05
-5.78
-6.69
-8.06
-10.27
-13.69
-18.58
-24.98
-32.60
-40.77
-48.32
-53.79
-55.68
-52.97
-45.47
-33.99
-20.12
-5.74
7.57
18.85
27.85
34.79
40.05
43.93
46.56
47.99
48.36
47.88
46.89
45.70
44.48
43.25
41.93
40.41
38.71
36.94
35.26
33.71
32.19
30.42
28.11
25.07
21.31
17.04
12.56
8.14
3.88
-0.33
-4.76
-9.84
-15.99
-23.43
-31.94
-40.76
-48.55
-53.68
-54.70
-50.84
-42.30
-30.20
-16.25
-2.22
10.57
21.38
30.07
36.78
41.71
45.03
46.87
47.39
46.91
45.86
44.62
43.46
42.43
41.40
40.21
38.78
37.15
35.49
33.94
32.49
30.94
28.95
26.18
22.46
17.85
12.70
7.47
2.60
-1.67
-5.37
-8.87
-12.76
-17.64
-23.82
-31.10
-38.53
-44.65
-47.76
-46.53
-40.44
-29.99
-16.56
-1.97
12.07
24.34
34.23
41.71
46.96
50.28
51.89
52.04
51.04
49.31
47.32
45.43
43.83
42.47
41.17
39.73
38.06
36.20
34.25
32.31
30.37
28.32
25.94
23.08
19.67
15.76
11.49
6.96
2.12
-3.23
-9.46
-16.94
-25.87
-36.10
-47.02
-57.51
-66.13
-71.38
-72.11
-67.90
-59.21
-47.28
-33.76
-20.29
-8.12
2.05
10.00
15.83
19.73
21.90
22.52
21.80
20.04
17.63
15.00
12.52
10.45
8.88
7.76
6.91
6.19
5.46
4.65
3.62
2.23
0.26
-2.49
-6.07
-10.35
-15.02
-19.69
-24.12
-28.31
-32.45
-36.79
-41.32
-45.55
-48.50
-49.00
-46.06
-39.33
-29.31
-17.19
-4.49
7.35
17.41
25.30
31.12
35.21
37.89
39.35
39.66
38.91
37.27
35.12
32.93
31.10
29.76
28.74
27.65
26.04
23.66
20.51
16.84
12.99
9.23
5.64
2.17
-1.34
-5.08
-9.21
-13.85
-19.11
-25.05
-31.49
-37.97
-43.63
-47.37
-48.08
-45.07
-38.33
-28.63
-17.29
-5.80
4.66
13.42
20.41
25.86
30.10
33.28
35.37
36.24
35.86
34.42
32.28
29.89
27.59
25.49
23.51
21.46
19.13
16.39
13.20
9.61
5.77
1.93
-1.62
-4.64
-7.03
-8.93
-10.68
-12.70
-15.40
-19.09
-23.84
-29.50
-35.52
-41.06
-44.98
-46.25
-44.22
-38.97
-31.35
-22.65
-14.25
-7.14
-1.82
1.69
3.59
4.04
3.13
0.94
-2.32
-6.23
-10.22
-13.70
-16.26
-17.69
-18.07
-17.60
-16.49
-15.00
-13.34
-11.81
-10.74
-10.44
-11.07
-12.54
-14.46
-16.27
-17.33
-17.19
-15.70
-13.11
-10.04
-7.34
-5.87
-6.17
-8.21
-11.24
-13.88
-14.50
-11.76
-5.02
5.38
18.31
32.19
45.52
57.19
66.74
74.19
79.90
84.36
88.00
91.13
93.93
96.51
98.89
101.01
102.67
103.55
103.20
101.22
97.35
91.57
84.14
75.47
66.07
56.44
46.98
38.04
29.80
22.25
15.16
8.18
0.98
-6.61
-14.63
-23.01
-31.62
-40.36
-48.95
-56.89
-63.35
-67.31
-67.91
-64.79
-58.37
-49.78
-40.63
-32.50
-26.61
-23.50
-23.15
-25.13
-28.86
-33.83
-39.69
-46.19
-53.07
-59.96
-66.43
-72.02
-76.38
-79.32
-80.86
-81.17
-80.66
-79.84
-79.32
-79.64
-81.14
-83.67
-86.61
-89.01
-89.93
-88.92
-86.18
-82.57
-79.33
-77.60
-77.99
-80.41
-84.02
-87.39
-88.86
-87.01
-81.03
-71.06
-58.09
-43.65
-29.31
-16.18
-4.74
5.04
13.43
20.59
26.58
31.39
35.08
37.89
40.11
41.94
43.43
44.50
45.03
45.05
44.75
44.51
44.75
45.74
47.47
49.57
51.40
52.26
51.71
49.83
47.29
45.13
44.28
45.13
47.15
49.00
48.91
45.24
37.06
24.50
8.74
-8.22
-24.04
-36.65
-44.82
-48.41
-48.33
-46.13
-43.43
-41.35
-40.21
-39.58
-38.60
-36.36
-32.27
-26.29
-18.94
-11.26
-4.59
-0.19
1.17
-0.36
-3.54
-6.31
-6.23
-1.14
10.27
28.25
52.09
80.34
111.06
141.94
170.51
194.39
211.92
222.56
227.18
227.72
226.47
225.24
224.82
224.85
224.06
220.76
213.32
200.53
181.94
158.11
130.59
101.65
73.71
48.62
27.20
9.22
-6.17
-19.80
-32.06
-42.78
-51.43
-57.48
-60.66
-61.26
-60.07
-58.26
-57.05
-57.46
-60.00
-64.56
-70.38
-75.96
-79.09
-77.19
-68.14
-51.67
-30.55
-10.84
-0.37
-5.61
-28.23
-63.25
-99.94
-125.73
-131.25
-114.15
-79.76
-38.50
-1.34
24.21
35.96
36.18
29.18
18.85
7.44
-4.18
-15.61
-26.22
-35.22
-42.42
-48.67
-55.52
-64.19
-74.32
-83.62
-89.08
-88.81
-83.58
-76.80
-72.65
-73.51
-78.33
-82.95
-82.10
-71.97
-51.78
-23.69
8.50
40.89
70.25
94.03
109.92
115.84
110.75
95.78
74.70
53.24
37.10
29.74
31.01
37.40
43.96
46.74
44.69
39.75
35.39
34.36
36.99
41.37
44.72
45.35
43.75
42.16
43.13
47.98
56.05
65.02
72.17
75.51
74.48
69.84
63.06
55.51
47.98
40.60
33.09
25.24
17.13
9.29
2.45
-2.77
-6.13
-7.91
-8.64
-8.99
-9.49
-10.56
-12.51
-15.44
-19.28
-23.67
-28.09
-32.07
-35.30
-37.61
-38.84
-38.73
-36.99
-33.75
-29.81
-26.67
-26.16
-29.71
-37.76
-49.57
-63.61
-78.19
-92.15
-105.09
-117.12
-128.28
-138.09
-145.36
-148.55
-146.49
-138.97
-127.02
-112.63
-98.06
-85.13
-74.73
-66.77
-60.70
-55.89
-52.02
-49.03
-46.87
-45.30
-43.79
-41.75
-38.83
-35.13
-31.28
-28.04
-26.06
-25.46
-25.84
-26.58
-27.14
-27.40
-27.62
-28.18
-29.18
-30.23
-30.45
-28.89
-24.89
-18.44
-10.22
-1.46
6.45
12.37
15.73
16.60
15.58
13.48
11.03
8.62
6.29
3.89
1.19
-1.85
-5.09
-8.21
-10.82
-12.55
-13.13
-12.45
-10.68
-8.30
-6.04
-4.67
-4.75
-6.40
-9.22
-12.45
-15.32
-17.25
-18.19
-18.39
-18.34
-18.43
-18.87
-19.61
-20.44
-21.07
-21.25
-20.86
-19.92
-18.53
-16.79
-14.70
-12.09
-8.70
-4.56
-0.14
3.57
5.32
4.10
-0.39
-7.67
-16.57
-25.69
-33.80
-39.94
-43.53
-44.47
-43.32
-41.39
-40.51
-42.51
-48.32
-57.47
-68.13
-77.95
-85.08
-89.07
-90.81
-91.73
-92.74
-93.51
-92.64
-88.52
-80.33
-68.55
-54.62
-40.21
-26.25
-12.56
1.85
18.04
36.28
55.68
74.32
89.97
100.68
105.49
104.59
99.15
90.79
80.99
70.60
59.90
48.84
37.60
26.77
17.26
9.88
4.90
1.91
0.13
-1.20
-2.38
-3.36
-4.06
-4.80
-6.34
-9.46
-14.29
-19.94
-24.50
-25.66
-21.47
-11.26
3.82
20.83
35.93
45.86
49.32
47.53
43.31
39.26
36.10
32.38
25.80
15.34
2.54
-9.09
-16.11
-17.47
-15.28
-13.58
-15.96
-23.50
-34.44
-45.63
-54.55
-60.53
-64.57
-68.20
-72.26
-76.55
-80.27
-82.91
-84.71
-86.62
-89.63
-94.22
-100.02
-106.03
-111.06
-114.28
-115.42
-114.74
-112.72
-109.68
-105.50
-99.35
-89.75
-74.78
-52.55
-22.03
16.23
59.78
104.73
146.93
183.36
213.06
237.18
258.11
278.20
298.71
319.62
339.93
358.40
374.01
386.00
393.59
395.83
391.59
379.96
360.76
334.67
303.00
267.37
229.21
189.86
150.65
113.07
78.66
48.68
23.74
3.64
-12.39
-25.39
-36.47
-46.59
-56.49
-66.58
-76.88
-86.99
-96.20
-103.90
-109.82
-114.15
-117.21
-119.13
-119.67
-118.29
-114.69
-109.09
-102.31
-95.34
-88.91
-83.18
-77.85
-72.54
-67.20
-62.28
-58.51
-56.54
-56.46
-57.73
-59.23
-59.74
-58.37
-54.90
-49.85
-44.23
-39.17
-35.45
-33.36
-32.63
-32.65
-32.75
-32.34
-31.16
-29.22
-26.81
-24.36
-22.22
-20.57
-19.26
-17.89
-16.01
-13.33
-9.90
-6.01
-2.12
1.45
4.58
7.27
9.53
11.24
12.19
12.21
11.36
9.90
8.24
6.74
5.64
5.00
4.75
4.72
4.69
4.33
3.28
1.21
-1.94
-5.87
-9.96
-13.44
-15.74
-16.72
-16.77
-16.61
-17.04
-18.64
-21.61
-25.72
-30.45
-35.10
-38.90
-41.16
-41.35
-39.30
-35.23
-29.77
-23.75
-17.92
-12.75
-8.41
-4.87
-2.08
-0.16
0.70
0.37
-1.05
-3.17
-5.40
-7.22
-8.29
-8.58
-8.32
-7.83
-7.43
-7.34
-7.62
-8.22
-9.03
-9.87
-10.59
-11.07
-11.30
-11.43
-11.68
-12.39
-13.84
-16.19
-19.30
-22.71
-25.64
-27.15
-26.45
-23.16
-17.54
-10.39
-2.92
3.71
8.67
11.68
12.92
12.88
12.11
11.01
9.91
9.04
8.58
8.60
8.98
9.41
9.44
8.75
7.26
5.18
2.89
0.73
-1.12
-2.69
-4.05
-5.32
-6.48
-7.52
-8.41
-9.18
-9.91
-10.66
-11.52
-12.60
-14.06
-15.99
-18.28
-20.56
-22.17
-22.34
-20.47
-16.39
-10.46
-3.50
3.51
9.69
14.48
17.72
19.54
20.23
20.09
19.35
18.18
16.73
15.09
13.37
11.67
10.02
8.46
6.95
5.47
3.98
2.51
1.13
-0.16
-1.39
-2.69
-4.20
-5.99
-7.98
-9.94
-11.63
-12.91
-13.85
-14.70
-15.81
-17.44
-19.68
-22.41
-25.28
-27.73
-29.05
-28.56
-25.80
-20.79
-14.08
-6.66
0.41
6.34
10.85
14.07
16.35
17.94
18.90
19.16
18.65
17.48
15.92
14.29
12.79
11.43
9.99
8.23
6.03
3.50
0.93
-1.29
-2.94
-4.03
-4.87
-5.92
-7.57
-9.95
-12.86
-15.91
-18.70
-21.07
-23.14
-25.29
-27.95
-31.42
-35.68
-40.42
-45.08
-49.00
-51.63
-52.69
-52.17
-50.37
-47.74
-44.75
-41.78
-39.04
-36.58
-34.30
-32.07
-29.74
-27.25
-24.73
-22.47
-20.85
-20.29
-20.97
-22.79
-25.37
-28.16
-30.66
-32.56
-33.84
-34.70
-35.50
-36.59
-38.25
-40.52
-43.13
-45.53
-46.95
-46.65
-44.19
-39.71
-34.01
-28.32
-23.95
-21.82
-22.22
-24.78
-28.64
-32.77
-36.12
-37.70
-36.59
-32.08
-23.99
-12.95
-0.50
11.28
20.45
26.02
28.22
28.35
28.03
28.47
30.01
32.21
34.25
35.52
35.92
35.87
36.01
36.83
38.48
40.61
42.54
43.47
42.79
40.32
36.31
31.30
25.92
20.56
15.34
10.28
5.43
0.95
-3.01
-6.46
-9.66
-12.92
-16.29
-19.38
-21.38
-21.40
-18.85
-13.74
-6.63
1.63
10.23
18.62
26.46
33.57
39.75
44.75
48.42
50.69
51.61
51.41
50.30
48.56
46.44
44.14
41.85
39.72
37.82
36.13
34.55
32.90
31.02
28.75
26.05
22.99
19.76
16.52
13.42
10.44
7.39
3.98
-0.07
-4.94
-10.46
-16.10
-20.99
-24.15
-24.73
-22.28
-16.85
-8.95
0.62
10.94
21.14
30.48
38.48
44.94
49.95
53.84
57.01
59.84
62.61
65.62
69.29
74.14
80.37
87.28
92.92
94.30
88.42
73.59
50.40
21.64
-8.77
-37.36
-62.12
-82.63
-99.04
-111.01
-117.22
-115.98
-106.51
-90.05
-69.94
-50.64
-36.09
-28.38
-27.17
-30.21
-34.37
-36.89
-36.11
-31.66
-24.23
-14.96
-5.09
4.51
13.27
20.99
27.55
32.93
37.10
40.18
42.44
44.27
46.00
47.71
49.16
49.83
49.26
47.28
44.15
40.50
37.05
34.34
32.56
31.48
30.55
29.15
26.78
23.24
18.68
13.55
8.45
3.89
0.09
-3.14
-6.29
-10.03
-14.85
-20.89
-27.75
-34.51
-39.92
-42.78
-42.29
-38.34
-31.54
-23.02
-13.97
-5.33
2.46
9.35
15.44
20.74
25.15
28.43
30.46
31.34
31.33
30.81
30.11
29.43
28.79
28.11
27.29
26.27
25.10
23.83
22.53
21.15
19.53
17.44
14.70
11.29
7.40
3.40
-0.32
-3.50
-6.14
-8.51
-11.09
-14.36
-18.73
-24.36
-30.99
-38.01
-44.42
-49.14
-51.24
-50.26
-46.34
-40.11
-32.39
-23.94
-15.28
-6.84
0.99
7.72
12.93
16.37
18.19
18.87
19.02
19.10
19.26
19.33
19.03
18.16
16.76
15.04
13.27
11.61
10.03
8.32
6.23
3.57
0.36
-3.20
-6.80
-10.16
-13.22
-16.18
-19.42
-23.35
-28.21
-33.95
-40.15
-46.21
-51.41
-55.05
-56.55
-55.58
-52.08
-46.35
-39.01
-30.81
-22.50
-14.57
-7.14
-0.04
6.94
13.89
20.65
26.87
32.15
36.18
38.83
40.10
40.13
39.11
37.38
35.26
33.08
30.99
28.97
26.78
24.21
21.23
18.02
14.89
12.10
9.63
7.18
4.28
0.53
-4.26
-9.88
-15.75
-21.10
-25.19
-27.48
-27.74
-26.05
-22.69
-18.03
-12.47
-6.34
0.08
6.54
12.78
18.54
23.51
27.42
30.09
31.47
31.70
31.04
29.81
28.27
26.64
25.07
23.67
22.50
21.51
20.52
19.21
17.31
14.68
11.44
7.94
4.63
1.82
-0.44
-2.39
-4.51
-7.38
-11.45
-16.88
-23.35
-30.11
-36.09
-40.23
-41.79
-40.49
-36.53
-30.39
-22.65
-13.91
-4.80
4.03
11.88
18.21
22.75
25.61
27.17
27.86
27.97
27.57
26.61
25.05
23.04
20.89
19.03
17.74
17.10
16.90
16.72
16.11
14.67
12.23
8.85
4.79
0.43
-3.89
-7.89
-11.45
-14.66
-17.78
-21.18
-25.20
-30.00
-35.45
-41.07
-46.06
-49.54
-50.73
-49.14
-44.75
-37.93
-29.33
-19.67
-9.58
0.43
9.98
18.69
26.23
32.29
36.67
39.40
40.73
41.02
40.60
39.74
38.53
37.06
35.51
34.13
33.19
32.82
32.96
33.31
33.57
33.61
33.61
33.92
34.88
36.51
38.42
39.96
40.43
39.42
36.80
32.67
27.11
20.27
12.48
4.54
-2.16
-5.91
-5.20
0.65
11.19
24.94
39.91
54.33
67.00
77.44
85.60
91.64
95.69
97.95
98.74
98.47
97.52
96.00
93.73
90.40
85.78
79.94
73.25
66.16
59.00
51.84
44.66
37.51
30.69
24.64
19.76
16.15
13.58
11.50
9.27
6.35
2.36
-2.87
-9.37
-17.11
-26.09
-36.24
-47.35
-58.83
-69.67
-78.52
-84.13
-85.72
-83.41
-78.21
-71.67
-65.22
-59.73
-55.25
-51.32
-47.34
-43.03
-38.54
-34.32
-30.82
-28.20
-26.30
-24.76
-23.24
-21.59
-19.87
-18.27
-16.95
-15.95
-15.18
-14.51
-13.90
-13.50
-13.61
-14.51
-16.31
-18.80
-21.46
-23.72
-25.25
-26.12
-26.80
-27.97
-30.26
-33.96
-38.94
-44.62
-50.02
-53.97
-55.37
-53.49
-48.27
-40.33
-30.87
-21.22
-12.47
-5.21
0.50
4.90
8.31
10.98
13.02
14.45
15.22
15.28
14.61
13.24
11.28
8.96
6.56
4.37
2.60
1.35
0.56
0.09
-0.25
-0.65
-1.15
-1.59
-1.71
-1.17
0.17
2.11
3.99
4.86
3.66
-0.32
-7.19
-16.25
-26.10
-35.02
-41.38
-44.16
-43.10
-38.73
-32.04
-24.20
-16.11
-8.38
-1.27
5.15
10.86
15.88
20.18
23.81
26.82
29.20
30.93
31.97
32.27
31.89
31.00
29.86
28.79
28.05
27.79
27.98
28.48
29.02
29.37
29.40
29.16
28.86
28.69
28.71
28.68
28.17
26.70
24.16
20.94
17.90
15.98
15.74
17.08
19.34
21.67
23.56
25.10
26.85
29.51
33.56
39.04
45.58
52.47
58.86
63.81
66.57
66.75
64.57
60.94
57.12
54.36
53.41
54.36
56.84
60.36
64.65
69.61
75.02
80.24
84.15
85.53
83.55
78.11
69.83
59.59
48.09
35.45
21.34
5.19
-13.57
-35.51
-61.39
-91.88
-126.90
-164.83
-202.02
-233.38
-253.92
-260.59
-253.45
-235.64
-211.98
-187.19
-164.52
-145.29
-129.35
-115.98
-104.49
-94.43
-85.54
-77.49
-69.97
-62.79
-55.92
-49.49
-43.74
-38.92
-35.20
-32.64
-31.15
-30.45
-30.13
-29.73
-28.98
-27.93
-26.92
-26.51
-27.19
-29.19
-32.42
-36.60
-41.35
-46.37
-51.26
-55.42
-57.95
-57.70
-53.65
-45.31
-33.01
-17.88
-1.56
14.27
28.31
39.87
48.78
55.21
59.41
61.64
62.15
61.30
59.57
57.50
55.49
53.73
52.04
50.09
47.56
44.36
40.71
37.08
33.88
31.28
29.15
27.02
24.38
20.80
16.19
10.74
4.87
-0.96
-6.38
-11.31
-15.93
-20.63
-25.91
-32.14
-39.34
-47.05
-54.26
-59.57
-61.54
-59.18
-52.34
-41.82
-29.17
-16.14
-4.16
6.02
14.31
20.98
26.34
30.51
33.44
35.08
35.54
35.11
34.13
32.89
31.45
29.72
27.53
24.77
21.48
17.89
14.38
11.37
9.18
7.90
7.34
7.11
6.73
5.89
4.51
2.73
0.74
-1.33
-3.55
-6.09
-9.21
-13.10
-17.84
-23.50
-30.03
-37.15
-44.21
-50.13
-53.54
-53.15
-48.27
-39.10
-26.83
-13.25
-0.20
10.95
19.66
26.10
30.88
34.58
37.49
39.58
40.64
40.61
39.66
38.19
36.66
35.34
34.18
32.86
31.02
28.46
25.33
22.06
19.13
16.79
14.88
12.87
10.12
6.21
1.22
-4.29
-9.50
-13.65
-16.49
-18.30
-19.77
-21.79
-25.06
-29.97
-36.54
-44.45
-53.06
-61.38
-68.15
-72.01
-71.80
-66.95
-57.72
-45.16
-30.86
-16.41
-3.00
8.80
18.96
27.68
35.16
41.44
46.54
50.62
54.04
57.24
60.55
64.00
67.25
69.86
71.49
72.19
72.42
72.80
73.87
75.82
78.35
80.79
82.20
81.69
78.69
73.13
65.54
56.88
48.24
40.47
33.86
28.16
22.79
17.19
11.29
5.65
1.32
-0.62
0.52
4.54
10.46
16.81
22.23
25.93
27.90
28.72
29.07
29.27
29.04
27.66
24.40
18.96
11.63
3.20
-5.49
-13.84
-21.69
-29.14
-36.34
-43.22
-49.55
-55.03
-59.53
-63.11
-66.00
-68.40
-70.35
-71.73
-72.42
-72.41
-71.96
-71.60
-71.99
-73.67
-76.88
-81.27
-85.90
-89.39
-90.32
-87.62
-80.93
-70.63
-57.67
-43.16
-28.14
-13.51
-0.03
11.51
20.41
26.29
29.36
30.46
30.83
31.64
33.54
36.39
39.53
42.15
43.82
44.68
45.20
45.90
46.93
47.93
48.29
47.50
45.53
42.88
40.45
39.09
39.19
40.46
42.07
43.01
42.49
40.23
36.57
32.27
28.44
26.34
27.20
31.88
40.26
50.74
60.17
64.43
59.76
44.19
18.48
-13.89
-47.86
-78.36
-101.70
-116.22
-122.18
-120.97
-114.45
-104.52
-92.93
-81.40
-71.47
-64.29
-60.25
-58.89
-59.04
-59.30
-58.57
-56.44
-53.15
-49.39
-45.80
-42.78
-40.34
-38.23
-36.08
-33.57
-30.54
-27.06
-23.52
-20.65
-19.35
-20.32
-23.69
-28.66
-33.61
-36.54
-35.75
-30.38
-20.72
-7.94
6.37
20.72
34.14
46.12
56.49
65.14
71.89
76.52
78.89
79.13
77.61
74.89
71.52
67.90
64.09
59.97
55.31
50.03
44.26
38.36
32.69
27.46
22.58
17.78
12.72
7.32
1.73
-3.69
-8.60
-12.80
-16.36
-19.43
-22.27
-25.15
-28.40
-32.38
-37.43
-43.54
-50.14
-56.06
-59.69
-59.54
-54.74
-45.36
-32.39
-17.42
-2.05
12.46
25.42
36.63
46.08
53.85
59.91
64.20
66.72
67.60
67.09
65.43
62.69
58.83
53.79
47.74
41.22
35.08
30.15
26.86
25.03
23.87
22.32
19.56
15.25
9.60
3.16
-3.50
-10.03
-16.37
-22.63
-29.01
-35.70
-42.82
-50.35
-57.98
-65.06
-70.61
-73.41
-72.34
-66.70
-56.57
-42.86
-27.16
-11.40
2.77
14.32
23.12
29.75
35.13
39.98
44.51
48.35
50.89
51.65
50.69
48.64
46.44
45.05
45.19
47.32
51.60
57.65
64.28
69.30
69.85
63.36
48.55
26.13
-1.40
-30.78
-59.22
-85.12
-108.01
-127.77
-143.97
-155.68
-161.88
-162.12
-156.85
-147.19
-134.44
-119.60
-103.25
-85.83
-67.84
-49.98
-33.06
-17.67
-4.08
7.78
18.15
27.27
35.25
41.98
47.23
50.69
52.15
51.67
49.60
46.53
43.12
39.92
37.18
34.91
32.94
31.03
28.94
26.51
23.60
20.17
16.25
12.05
7.86
3.99
0.61
-2.39
-5.46
-9.27
-14.43
-21.13
-28.80
-36.16
-41.51
-43.22
-40.37
-32.98
-22.06
-9.15
4.17
16.71
27.85
37.43
45.50
52.11
57.23
60.79
62.76
63.19
62.10
59.46
55.21
49.29
41.84
33.31
24.53
16.51
10.20
6.18
4.47
4.55
5.51
6.42
6.51
5.31
2.67
-1.41
-6.81
-13.27
-20.38
-27.62
-34.43
-40.60
-46.30
-52.08
-58.40
-65.16
-71.33
-75.17
-74.90
-69.44
-58.99
-44.94
-29.30
-13.94
0.01
12.23
22.91
32.29
40.36
46.86
51.44
53.96
54.57
53.72
51.99
49.91
47.81
45.73
43.44
40.63
37.09
32.88
28.35
23.97
20.14
16.94
14.14
11.32
8.11
4.38
0.24
-4.01
-8.05
-11.70
-14.95
-17.92
-20.80
-23.82
-27.26
-31.41
-36.48
-42.40
-48.67
-54.23
-57.61
-57.34
-52.47
-42.93
-29.69
-14.44
0.96
15.03
27.01
36.77
44.57
50.68
55.24
58.27
59.81
60.03
59.20
57.56
55.19
52.00
47.90
42.99
37.69
32.72
28.87
26.71
26.32
27.13
28.06
27.62
24.34
17.14
5.72
-9.29
-26.44
-43.86
-59.79
-73.04
-83.23
-90.62
-95.84
-99.49
-102.02
-103.61
-104.19
-103.43
-100.77
-95.47
-86.89
-74.81
-59.62
-42.40
-24.56
-7.47
7.88
20.98
31.69
40.07
46.16
49.99
51.69
51.59
50.19
48.07
45.75
43.53
41.49
39.59
37.77
36.03
34.36
32.71
30.87
28.53
25.36
21.22
16.24
10.84
5.61
1.05
-2.59
-5.45
-8.08
-11.26
-15.81
-22.17
-30.11
-38.64
-46.07
-50.53
-50.53
-45.41
-35.63
-22.50
-7.80
6.74
19.84
30.77
39.37
45.79
50.32
53.20
54.55
54.45
52.87
49.90
45.76
40.85
35.66
30.66
26.14
22.20
18.78
15.77
13.02
10.40
7.78
4.94
1.68
-2.14
-6.48
-11.17
-15.93
-20.51
-24.86
-29.14
-33.74
-39.02
-45.13
-51.70
-57.80
-62.05
-62.98
-59.54
-51.50
-39.62
-25.36
-10.52
3.39
15.43
25.29
33.13
39.23
43.80
46.93
48.65
49.11
48.57
47.40
45.86
44.05
41.88
39.15
35.78
31.92
27.96
24.38
21.51
19.39
17.71
16.00
13.77
10.79
7.04
2.74
-1.83
-6.42
-10.89
-15.15
-19.22
-23.17
-27.27
-31.93
-37.55
-44.28
-51.61
-58.33
-62.70
-63.04
-58.34
-48.68
-35.21
-19.82
-4.40
9.56
21.29
30.60
37.66
42.71
45.93
47.44
47.40
46.04
43.72
40.85
37.82
34.84
31.94
29.04
26.01
22.88
19.85
17.25
15.30
14.00
13.03
11.81
9.77
6.55
2.16
-3.04
-8.48
-13.59
-17.98
-21.57
-24.53
-27.18
-29.95
-33.24
-37.48
-43.00
-49.84
-57.57
-65.11
-70.90
-73.21
-70.77
-63.17
-51.06
-35.94
-19.67
-3.90
10.28
22.34
32.22
40.00
45.74
49.50
51.42
51.84
51.32
50.44
49.69
49.22
48.89
48.35
47.30
45.67
43.71
42.02
41.40
42.65
46.25
51.88
58.18
62.71
62.62
55.58
40.71
18.96
-7.23
-34.92
-61.58
-85.63
-106.29
-123.11
-135.69
-143.61
-146.81
-145.71
-141.18
-134.04
-124.75
-113.28
-99.42
-83.19
-65.17
-46.39
-28.08
-11.28
3.36
15.58
25.42
33.10
38.94
43.34
46.62
49.01
50.58
51.28
51.05
49.85
47.80
45.13
42.19
39.35
36.92
35.00
33.42
31.80
29.61
26.47
22.28
17.26
11.84
6.41
1.23
-3.72
-8.59
-13.66
-19.23
-25.59
-32.89
-40.91
-48.93
-55.68
-59.60
-59.32
-54.16
-44.40
-31.27
-16.49
-1.77
11.62
23.03
32.31
39.56
44.89
48.47
50.40
50.94
50.47
49.42
48.17
46.91
45.64
44.21
42.47
40.36
37.91
35.17
32.14
28.73
24.84
20.45
15.69
10.79
6.02
1.62
-2.32
-5.83
-9.08
-12.41
-16.25
-21.06
-27.03
-33.85
-40.59
-45.74
-47.66
-45.14
-37.86
-26.57
-12.85
1.46
14.85
26.47
36.12
43.92
49.96
54.05
55.91
55.36
52.62
48.31
43.27
38.18
33.36
28.75
24.11
19.33
14.52
9.98
6.06
2.92
0.38
-1.97
-4.62
-7.98
-12.13
-16.86
-21.70
-26.12
-29.74
-32.53
-34.86
-37.44
-41.09
-46.42
-53.47
-61.47
-68.95
-74.04
-75.07
-71.10
-62.24
-49.61
-34.86
-19.74
-5.60
6.79
17.16
25.51
31.88
36.32
38.83
39.59
38.93
37.37
35.43
33.52
31.76
29.99
27.91
25.26
22.10
18.75
15.75
13.50
12.11
11.25
10.33
8.72
6.08
2.45
-1.80
-6.14
-10.15
-13.59
-16.53
-19.18
-21.97
-25.42
-30.10
-36.32
-43.88
-51.87
-58.70
-62.58
-62.10
-56.79
-47.32
-35.18
-22.13
-9.58
1.68
11.45
19.79
26.80
32.49
36.88
40.01
42.03
43.16
43.56
43.31
42.32
40.51
37.76
34.06
29.50
24.38
19.17
14.50
10.95
8.84
8.06
8.03
7.92
6.86
4.40
0.54
-4.22
-9.15
-13.62
-17.30
-20.29
-23.08
-26.30
-30.54
-36.09
-42.75
-49.76
-55.86
-59.49
-59.23
-54.26
-44.64
-31.30
-15.76
0.34
15.69
29.52
41.57
51.89
60.56
67.62
73.04
76.86
79.33
80.88
82.09
83.44
85.21
87.39
89.82
92.28
94.62
96.80
98.71
100.11
100.52
99.33
96.05
90.46
82.71
73.22
62.51
50.95
38.72
25.87
12.40
-1.57
-15.80
-30.02
-44.07
-58.02
-72.16
-86.70
-101.47
-115.70
-127.89
-136.26
-139.33
-136.50
-128.37
-116.50
-102.84
-89.02
-75.89
-63.54
-51.68
-40.19
-29.40
-20.10
-13.20
-9.29
-8.42
-10.01
-13.13
-16.77
-20.17
-22.83
-24.57
-25.30
-24.98
-23.72
-21.81
-19.75
-18.27
-18.01
-19.31
-22.07
-25.69
-29.35
-32.20
-33.64
-33.48
-31.92
-29.49
-26.98
-25.19
-24.83
-26.32
-29.83
-35.21
-42.05
-49.59
-56.69
-61.91
-63.77
-61.18
-53.81
-42.34
-28.16
-12.95
1.80
15.23
26.99
37.06
45.45
52.02
56.58
59.00
59.48
58.53
56.93
55.47
54.73
54.87
55.66
56.58
57.08
56.81
55.76
54.20
52.44
50.71
48.88
46.64
43.64
39.68
34.91
29.76
24.86
20.77
17.74
15.61
13.85
11.73
8.60
4.08
-1.92
-9.20
-17.36
-25.79
-33.66
-39.86
-43.13
-42.38
-36.94
-27.01
-13.63
1.53
16.59
29.91
40.41
47.65
51.72
53.17
52.90
52.16
52.21
54.02
57.65
61.87
64.26
61.84
52.10
34.14
9.21
-19.54
-47.90
-71.85
-88.60
-97.01
-97.66
-92.30
-83.34
-73.22
-64.01
-57.00
-52.68
-50.72
-50.38
-50.80
-51.39
-51.98
-52.78
-54.25
-56.80
-60.57
-65.21
-69.83
-73.07
-73.53
-70.09
-62.30
-50.56
-35.94
-19.91
-3.90
10.91
23.72
34.06
41.71
46.64
49.07
49.47
48.50
46.84
45.08
43.48
42.01
40.40
38.36
35.79
32.79
29.67
26.70
23.96
21.30
18.44
15.15
11.38
7.29
3.14
-0.83
-4.51
-7.97
-11.44
-15.19
-19.54
-24.76
-30.99
-38.03
-45.25
-51.50
-55.34
-55.43
-50.96
-41.99
-29.46
-14.91
-0.04
13.74
25.53
35.03
42.27
47.47
50.86
52.66
53.05
52.21
50.33
47.60
44.19
40.37
36.41
32.57
29.09
26.04
23.29
20.63
17.75
14.40
10.44
5.92
0.99
-4.07
-8.95
-13.46
-17.51
-21.30
-25.27
-30.00
-36.05
-43.53
-51.92
-60.03
-66.24
-68.94
-67.08
-60.51
-49.99
-36.91
-22.84
-9.13
3.38
14.24
23.39
30.85
36.69
41.00
43.91
45.62
46.35
46.34
45.73
44.60
42.95
40.81
38.24
35.43
32.67
30.22
28.22
26.55
24.81
22.45
19.01
14.33
8.72
2.86
-2.44
-6.62
-9.53
-11.51
-13.20
-15.33
-18.53
-23.13
-29.04
-35.61
-41.64
-45.51
-45.64
-41.00
-31.53
-18.24
-2.84
12.79
27.22
39.66
50.00
58.52
65.53
71.24
75.68
78.88
80.99
82.47
84.01
86.36
89.96
94.56
99.17
102.28
102.34
98.22
89.50
76.39
59.60
40.08
19.04
-2.08
-21.72
-38.43
-51.21
-59.82
-64.80
-67.18
-68.20
-68.81
-69.67
-71.03
-72.98
-75.57
-78.89
-83.09
-88.16
-93.73
-98.91
-102.37
-102.65
-98.67
-90.12
-77.53
-62.09
-45.23
-28.22
-12.04
2.60
15.15
25.18
32.43
36.97
39.15
39.65
39.26
38.74
38.63
39.17
40.27
41.52
42.37
42.41
41.52
40.03
38.57
37.75
37.88
38.73
39.60
39.59
37.96
34.37
28.96
22.21
14.77
7.17
-0.27
-7.48
-14.57
-21.72
-29.09
-36.75
-44.59
-52.24
-59.08
-64.27
-66.90
-66.26
-62.03
-54.57
-44.75
-33.86
-23.17
-13.55
-5.33
1.67
7.85
13.50
18.60
22.89
26.05
27.96
28.83
29.05
29.01
28.92
28.78
28.48
27.99
27.36
26.75
26.23
25.76
25.11
24.03
22.31
19.90
16.93
13.68
10.47
7.54
5.02
2.79
0.56
-2.18
-5.95
-11.18
-18.13
-26.73
-36.52
-46.59
-55.69
-62.35
-65.26
-63.63
-57.45
-47.50
-35.19
-22.07
-9.51
1.59
10.81
18.12
23.59
27.32
29.44
30.22
30.10
29.68
29.55
30.08
31.21
32.57
33.55
33.59
32.37
29.91
26.49
22.57
18.56
14.78
11.35
8.14
4.87
1.16
-3.28
-8.45
-14.01
-19.39
-24.02
-27.58
-30.21
-32.46
-35.06
-38.50
-42.68
-46.77
-49.37
-49.01
-44.75
-36.60
-25.53
-13.06
-0.77
10.15
19.03
25.52
29.43
30.62
29.12
25.36
20.22
14.94
10.74
8.40
8.06
9.24
11.09
12.78
13.76
13.78
12.97
11.61
10.02
8.33
6.52
4.42
1.87
-1.18
-4.57
-8.03
-11.25
-14.03
-16.45
-18.74
-21.31
-24.53
-28.73
-34.08
-40.57
-47.76
-54.72
-59.97
-61.82
-58.94
-50.90
-38.47
-23.47
-8.08
5.85
17.33
26.30
33.23
38.59
42.60
45.13
45.97
45.15
43.03
40.20
37.24
34.55
32.21
30.02
27.71
25.11
22.25
19.37
16.84
14.94
13.73
12.98
12.23
10.94
8.75
5.59
1.69
-2.53
-6.63
-10.36
-13.69
-16.84
-20.23
-24.36
-29.67
-36.37
-44.20
-52.26
-59.10
-63.00
-62.50
-56.97
-46.89
-33.76
-19.55
-6.13
5.32
14.37
21.22
26.21
29.59
31.39
31.60
30.39
28.21
25.67
23.32
21.44
19.94
18.50
16.72
14.36
11.39
7.97
4.38
0.82
-2.61
-5.96
-9.28
-12.56
-15.62
-18.16
-19.86
-20.55
-20.32
-19.52
-18.66
-18.20
-18.49
-19.75
-22.13
-25.84
-31.05
-37.71
-45.30
-52.66
-58.13
-59.97
-57.00
-49.06
-37.08
-22.84
-8.30
4.96
16.14
25.08
32.05
37.26
40.76
42.50
42.54
41.23
39.18
37.00
35.07
33.39
31.64
29.37
26.36
22.66
18.67
14.85
11.58
8.87
6.48
3.91
0.72
-3.34
-8.27
-13.83
-19.65
-25.36
-30.70
-35.51
-39.78
-43.64
-47.35
-51.30
-55.78
-60.79
-65.83
-69.86
-71.50
-69.50
-63.16
-52.66
-38.99
-23.60
-7.98
6.66
19.55
30.32
38.81
45.03
49.19
51.70
53.17
54.24
55.31
56.37
57.07
56.88
55.46
52.87
49.54
45.99
42.57
39.26
35.70
31.45
26.32
20.48
14.46
8.95
4.54
1.48
-0.50
-2.25
-5.18
-10.97
-21.05
-35.98
-54.91
-75.49
-94.26
-107.64
-112.90
-109.01
-96.76
-78.46
-57.03
-35.25
-15.17
2.00
15.73
25.92
32.79
36.85
38.81
39.49
39.63
39.62
39.48
38.89
37.52
35.25
32.28
29.06
26.00
23.31
20.86
18.29
15.26
11.59
7.34
2.75
-1.86
-6.27
-10.39
-14.32
-18.35
-22.91
-28.50
-35.46
-43.64
-52.15
-59.42
-63.54
-62.89
-56.73
-45.55
-30.81
-14.46
1.69
16.42
29.13
39.65
47.99
54.13
58.09
60.04
60.36
59.63
58.45
57.20
55.95
54.46
52.33
49.22
45.05
40.03
34.63
29.28
24.22
19.41
14.58
9.49
4.12
-1.29
-6.30
-10.56
-13.95
-16.73
-19.44
-22.74
-27.21
-33.16
-40.52
-48.64
-56.26
-61.70
-63.19
-59.50
-50.41
-36.92
-20.96
-4.71
10.10
22.62
32.89
41.38
48.50
54.28
58.43
60.67
61.01
59.91
58.05
56.08
54.19
52.17
49.49
45.72
40.85
35.38
30.12
25.85
22.90
20.99
19.35
17.10
13.67
9.11
3.99
-0.92
-5.08
-8.46
-11.52
-14.89
-19.07
-24.21
-30.17
-36.68
-43.37
-49.67
-54.66
-57.05
-55.40
-48.77
-37.18
-21.81
-4.63
12.31
27.47
39.99
49.37
55.02
56.11
51.89
42.37
28.72
13.32
-0.97
-11.80
-18.02
-19.96
-18.98
-16.77
-14.66
-13.29
-12.65
-12.39
-12.15
-11.76
-11.32
-11.12
-11.43
-12.42
-14.08
-16.31
-18.93
-21.81
-24.85
-27.98
-31.27
-34.85
-39.00
-44.05
-50.21
-57.33
-64.66
-70.84
-74.12
-72.90
-66.28
-54.47
-38.81
-21.33
-4.13
11.26
24.08
34.27
42.04
47.52
50.62
51.18
49.23
45.22
40.01
34.63
29.98
26.46
23.93
21.82
19.46
16.43
12.78
8.93
5.42
2.56
0.17
-2.30
-5.56
-10.08
-15.83
-22.34
-28.93
-35.01
-40.39
-45.18
-49.71
-54.30
-59.12
-64.21
-69.53
-74.87
-79.66
-82.90
-83.12
-78.84
-69.10
-54.01
-34.88
-13.92
6.61
25.04
40.64
53.51
64.07
72.59
79.07
83.35
85.51
86.11
86.08
86.44
87.81
90.21
93.06
95.48
96.60
95.93
93.35
89.06
83.32
76.32
68.16
58.92
48.78
38.10
27.37
17.16
7.91
-0.12
-6.87
-12.51
-17.42
-22.15
-27.38
-33.62
-40.97
-48.80
-55.77
-60.18
-60.50
-56.02
-47.07
-34.93
-21.29
-7.75
4.63
15.24
23.80
30.09
33.89
35.09
33.89
30.86
26.93
23.05
19.95
17.96
16.98
16.54
16.11
15.28
13.87
11.93
9.67
7.35
5.05
2.79
0.47
-1.99
-4.55
-7.12
-9.53
-11.69
-13.67
-15.76
-18.45
-22.20
-27.11
-32.61
-37.44
-39.85
-38.20
-31.58
-20.16
-5.02
12.30
30.38
48.11
64.39
77.77
86.39
88.38
82.70
69.76
51.32
29.84
7.47
-14.53
-35.63
-55.36
-72.74
-86.05
-93.51
-94.15
-88.51
-78.66
-67.48
-57.69
-51.00
-47.78
-47.30
-48.36
-49.89
-51.37
-52.80
-54.45
-56.60
-59.37
-62.72
-66.47
-70.18
-73.13
-74.23
-72.15
-65.78
-54.74
-39.65
-22.06
-4.04
12.53
26.33
36.80
44.02
48.37
50.38
50.62
49.71
48.24
46.70
45.31
43.94
42.22
39.78
36.45
32.46
28.28
24.50
21.46
19.15
17.15
14.85
11.69
7.47
2.40
-3.02
-8.18
-12.70
-16.58
-20.28
-24.50
-29.96
-37.15
-45.96
-55.62
-64.67
-71.27
-73.58
-70.37
-61.39
-47.53
-30.64
-12.91
3.65
17.77
29.00
37.54
43.90
48.52
51.66
53.38
53.73
52.83
50.95
48.45
45.65
42.75
39.75
36.58
33.12
29.45
25.83
22.67
20.25
18.60
17.34
15.83
13.52
10.12
5.90
1.42
-2.67
-5.96
-8.43
-10.49
-12.83
-16.22
-21.39
-28.75
-38.08
-48.32
-57.56
-63.37
-63.57
-57.00
-43.99
-26.25
-6.26
13.57
31.43
46.39
58.11
66.54
71.71
73.78
73.16
70.71
67.51
64.58
62.51
61.22
60.10
58.34
55.30
50.73
44.84
38.06
30.87
23.59
16.37
9.28
2.36
-4.35
-10.78
-16.91
-22.78
-28.38
-33.67
-38.58
-43.08
-47.29
-51.44
-55.84
-60.84
-66.66
-73.26
-80.18
-86.38
-90.35
-90.37
-85.13
-74.25
-58.64
-40.26
-21.52
-4.42
9.97
21.63
31.09
38.88
45.12
49.49
51.67
51.62
49.87
47.25
44.56
42.20
40.09
37.75
34.72
30.83
26.31
21.71
17.57
14.21
11.58
9.33
6.96
4.11
0.69
-3.13
-7.00
-10.62
-13.85
-16.81
-19.77
-23.07
-27.03
-31.88
-37.84
-44.99
-53.16
-61.67
-69.24
-74.07
-74.34
-68.82
-57.42
-41.34
-22.75
-4.14
12.42
25.77
35.61
42.23
46.11
47.59
46.90
44.31
40.31
35.59
30.86
26.52
22.52
18.47
13.88
8.58
2.88
-2.52
-6.89
-9.75
-11.22
-11.91
-12.68
-14.29
-17.12
-21.09
-25.79
-30.64
-35.14
-39.09
-42.60
-46.06
-50.04
-55.03
-61.18
-68.13
-74.87
-79.83
-81.29
-77.85
-68.99
-55.26
-38.21
-19.87
-2.21
13.36
26.21
36.35
44.22
50.36
55.23
59.16
62.29
64.59
65.98
66.34
65.65
64.07
61.91
59.59
57.52
55.96
54.95
54.16
53.09
51.17
48.00
43.50
38.02
32.24
26.95
22.80
19.89
17.58
14.43
8.49
-2.02
-17.91
-38.33
-60.60
-80.81
-94.96
-100.33
-96.33
-84.56
-68.04
-49.93
-32.61
-17.22
-3.96
7.28
16.44
23.17
27.11
28.30
27.37
25.30
23.05
21.13
19.44
17.56
15.11
12.12
9.06
6.60
5.18
4.75
4.70
4.17
2.43
-0.74
-5.03
-9.73
-14.09
-17.70
-20.59
-23.30
-26.62
-31.31
-37.72
-45.57
-53.77
-60.55
-63.88
-62.10
-54.51
-41.69
-25.35
-7.81
8.78
22.99
34.32
43.02
49.66
54.72
58.44
60.83
61.81
61.46
59.99
57.73
55.00
52.00
48.77
45.30
41.61
37.88
34.38
31.38
28.94
26.75
24.28
20.91
16.29
10.43
3.69
-3.31
-10.05
-16.22
-21.84
-27.22
-32.85
-39.30
-46.99
-56.07
-66.14
-76.13
-84.41
-89.11
-88.63
-82.26
-70.39
-54.49
-36.63
-18.89
-2.83
10.79
21.91
30.85
37.95
43.34
47.02
48.93
49.28
48.54
47.34
46.18
45.25
44.33
43.01
40.98
38.25
35.21
32.36
30.03
28.13
26.16
23.46
19.57
14.43
8.37
1.96
-4.21
-9.78
-14.62
-18.84
-22.70
-26.65
-31.25
-37.16
-44.80
-54.03
-63.86
-72.40
-77.38
-76.81
-69.76
-56.75
-39.64
-20.96
-3.08
12.45
25.15
35.30
43.51
50.22
55.50
59.21
61.25
61.83
61.39
60.55
59.69
58.84
57.67
55.73
52.73
48.74
44.20
39.73
35.89
33.00
31.08
29.80
28.67
27.10
24.56
20.65
15.24
8.52
0.91
-6.97
-14.53
-21.32
-27.20
-32.38
-37.45
-43.27
-50.65
-59.88
-70.36
-80.35
-87.39
-88.97
-83.53
-71.18
-53.84
-34.71
-17.18
-3.78
4.51
8.32
9.29
9.24
9.45
10.35
11.72
13.03
13.92
14.32
14.41
14.43
14.45
14.37
13.96
13.06
11.64
9.87
8.03
6.41
5.20
4.34
3.57
2.45
0.61
-2.08
-5.37
-8.80
-11.89
-14.44
-16.68
-19.05
-22.03
-25.76
-30.10
-34.78
-39.71
-45.08
-51.20
-58.08
-65.00
-70.46
-72.55
-69.64
-61.10
-47.60
-30.97
-13.51
2.73
16.53
27.59
36.20
42.83
47.73
50.96
52.53
52.63
51.68
50.25
48.78
47.35
45.75
43.63
40.80
37.40
33.90
30.86
28.65
27.22
26.12
24.67
22.28
18.68
14.04
8.89
3.86
-0.57
-4.26
-7.42
-10.47
-13.92
-18.25
-23.84
-30.84
-39.01
-47.54
-55.04
-59.76
-60.11
-55.23
-45.32
-31.65
-16.16
-0.89
12.59
23.38
31.30
36.67
39.98
41.73
42.24
41.62
39.86
36.90
32.81
27.81
22.31
16.79
11.70
7.33
3.78
0.94
-1.45
-3.72
-6.20
-9.09
-12.44
-16.09
-19.77
-23.21
-26.24
-28.92
-31.56
-34.64
-38.68
-44.05
-50.74
-58.09
-64.84
-69.30
-69.80
-65.22
-55.38
-41.20
-24.39
-7.01
9.13
22.85
33.65
41.61
47.09
50.58
52.50
53.24
53.16
52.56
51.65
50.50
49.08
47.26
44.92
41.98
38.49
34.60
30.51
26.46
22.64
19.13
15.87
12.64
9.15
5.14
0.51
-4.71
-10.38
-16.49
-23.21
-30.80
-39.34
-48.35
-56.60
-62.30
-63.61
-59.31
-49.34
-34.82
-17.74
-0.25
15.93
29.86
41.33
50.58
57.97
63.73
67.93
70.51
71.44
70.78
68.76
65.76
62.20
58.47
54.82
51.44
48.53
46.24
44.49
42.73
39.71
33.74
23.24
7.38
-13.45
-37.56
-62.60
-86.26
-106.97
-124.23
-138.37
-149.98
-159.50
-166.88
-171.59
-172.89
-170.08
-162.64
-150.39
-133.47
-112.47
-88.48
-63.00
-37.84
-14.73
5.09
21.05
33.33
42.51
49.31
54.16
57.31
58.84
58.91
57.87
56.20
54.38
52.72
51.29
49.96
48.49
46.74
44.69
42.53
40.44
38.53
36.59
34.24
31.00
26.56
21.02
14.82
8.64
3.04
-1.78
-6.04
-10.30
-15.23
-21.37
-28.97
-37.89
-47.54
-56.83
-64.25
-68.14
-67.12
-60.52
-48.75
-33.18
-15.88
1.07
16.08
28.40
37.97
45.25
50.73
54.73
57.42
58.84
59.14
58.55
57.31
55.54
53.22
50.24
46.56
42.37
38.04
34.01
30.56
27.70
25.08
22.23
18.72
14.30
8.97
2.95
-3.37
-9.55
-15.16
-19.95
-23.89
-27.27
-30.59
-34.50
-39.55
-46.02
-53.66
-61.59
-68.35
-72.17
-71.50
-65.45
-54.20
-38.95
-21.56
-4.04
12.03
25.72
36.69
44.97
50.69
54.05
55.33
55.01
53.76
52.31
51.23
50.78
50.79
50.82
50.32
48.98
46.80
44.18
41.67
39.75
38.54
37.79
36.88
35.16
32.17
27.93
22.87
17.74
13.28
9.92
7.68
6.12
4.47
1.95
-2.11
-7.95
-15.19
-22.76
-28.94
-31.78
-29.67
-22.11
-10.21
3.39
15.16
21.83
21.47
13.97
1.00
-14.86
-30.99
-45.35
-56.69
-64.34
-67.96
-67.45
-63.06
-55.64
-46.61
-37.72
-30.46
-25.57
-22.78
-20.99
-18.90
-15.64
-11.21
-6.42
-2.51
-0.51
-0.81
-3.11
-6.63
-10.59
-14.54
-18.49
-22.85
-28.20
-34.86
-42.69
-50.73
-57.39
-60.78
-59.37
-52.59
-41.11
-26.67
-11.38
2.96
15.32
25.48
33.67
40.23
45.29
48.89
51.08
52.04
52.03
51.25
49.75
47.43
44.23
40.24
35.87
31.62
27.98
25.09
22.72
20.28
17.17
13.05
7.98
2.41
-3.05
-7.96
-12.20
-16.08
-20.23
-25.38
-32.12
-40.59
-50.32
-60.08
-68.09
-72.39
-71.45
-64.76
-53.02
-38.00
-21.91
-6.72
6.45
17.31
26.21
33.55
39.57
44.17
47.15
48.42
48.10
46.54
44.12
41.20
38.02
34.77
31.56
28.43
25.39
22.44
19.60
16.93
14.47
12.18
9.87
7.25
4.09
0.28
-4.05
-8.61
-13.15
-17.57
-21.99
-26.72
-32.03
-37.96
-44.10
-49.52
-52.93
-52.91
-48.40
-39.04
-25.46
-9.13
8.03
24.21
38.21
49.61
58.60
65.65
71.20
75.69
79.66
83.89
89.03
95.06
100.63
103.07
99.13
86.36
64.33
35.15
2.75
-28.42
-54.93
-74.99
-88.24
-95.06
-95.92
-91.22
-81.72
-68.91
-55.02
-42.50
-33.35
-28.48
-27.80
-30.59
-36.13
-43.88
-53.39
-63.83
-73.73
-80.95
-83.30
-79.37
-69.09
-53.88
-36.19
-18.61
-3.15
9.29
18.72
25.71
30.77
34.18
35.95
36.08
34.87
33.01
31.37
30.69
31.20
32.49
33.71
33.91
32.57
29.83
26.39
23.20
20.91
19.61
18.83
17.92
16.46
14.54
12.75
11.78
11.98
13.02
13.92
13.36
10.13
3.52
-6.44
-18.93
-32.49
-45.20
-54.96
-59.92
-58.85
-51.49
-38.67
-22.11
-3.96
13.73
29.43
42.31
52.08
58.81
62.71
64.02
63.00
59.97
55.31
49.45
42.79
35.70
28.50
21.44
14.81
8.95
4.23
0.99
-0.63
-0.91
-0.50
-0.31
-1.16
-3.51
-7.26
-11.81
-16.34
-20.12
-22.79
-24.47
-25.66
-27.14
-29.73
-34.03
-40.19
-47.63
-55.00
-60.43
-62.00
-58.30
-48.95
-34.66
-16.96
2.24
21.18
38.49
53.33
65.25
74.10
80.03
83.48
85.20
86.20
87.66
90.59
95.54
102.12
108.85
113.38
113.25
106.81
93.78
75.29
53.32
29.90
6.62
-15.51
-35.66
-52.92
-66.28
-75.00
-79.03
-79.31
-77.51
-75.63
-75.37
-77.82
-83.17
-90.71
-98.84
-105.40
-108.23
-105.69
-97.29
-83.79
-66.83
-48.45
-30.38
-13.81
0.70
12.92
22.75
30.04
34.70
36.80
36.66
34.79
31.78
28.20
24.50
21.05
18.13
15.90
14.36
13.23
12.10
10.48
7.96
4.40
-0.06
-5.09
-10.27
-15.22
-19.72
-23.67
-27.22
-30.74
-34.81
-40.06
-46.75
-54.49
-62.01
-67.38
-68.61
-64.34
-54.49
-40.28
-23.85
-7.47
7.17
19.29
28.96
36.67
42.89
47.88
51.70
54.29
55.51
55.17
52.99
48.72
42.45
34.77
26.81
19.96
15.26
13.07
12.85
13.40
13.41
11.93
8.61
3.63
-2.52
-9.32
-16.37
-23.44
-30.54
-37.93
-46.00
-55.06
-64.90
-74.50
-82.05
-85.34
-82.49
-72.73
-56.67
-36.28
-14.17
7.05
25.48
40.16
50.96
58.35
63.02
65.87
67.75
69.52
71.80
74.72
77.77
79.85
79.62
76.05
68.92
58.91
47.43
35.95
25.48
16.18
7.59
-0.97
-9.90
-18.99
-27.55
-34.73
-40.04
-43.62
-46.21
-48.90
-52.74
-58.43
-66.14
-75.44
-85.32
-94.24
-100.31
-101.66
-96.95
-85.87
-69.39
-49.48
-28.61
-8.94
8.18
22.26
33.51
42.36
49.16
54.12
57.39
59.18
59.80
59.63
58.94
57.84
56.29
54.24
51.83
49.49
47.92
47.76
49.26
51.94
54.61
55.65
53.61
47.78
38.54
27.23
15.69
5.60
-2.12
-7.52
-11.54
-15.58
-21.03
-28.78
-38.99
-50.91
-62.91
-72.86
-78.56
-78.36
-71.71
-59.32
-42.95
-24.91
-7.33
8.35
21.45
31.93
39.96
45.65
49.02
50.16
49.40
47.38
44.93
42.71
41.01
39.65
38.16
36.09
33.28
29.99
26.80
24.28
22.70
21.87
21.12
19.60
16.63
11.95
5.84
-1.00
-7.88
-14.30
-20.29
-26.23
-32.73
-40.28
-49.17
-59.36
-70.45
-81.61
-91.50
-98.40
-100.62
-97.02
-87.50
-73.06
-55.54
-36.94
-18.93
-2.53
11.74
23.61
32.82
39.13
42.49
43.10
41.52
38.49
34.72
30.78
26.96
23.34
19.82
16.28
12.73
9.39
6.64
4.84
4.10
4.08
4.07
3.21
0.83
-3.34
-9.09
-15.93
-23.30
-30.75
-38.05
-45.18
-52.23
-59.38
-66.71
-74.06
-80.87
-86.14
-88.62
-87.09
-80.86
-70.03
-55.56
-38.90
-21.54
-4.55
11.54
26.59
40.52
52.94
63.15
70.40
74.24
74.86
73.07
70.10
67.19
65.30
65.00
66.49
69.66
74.15
79.23
83.88
86.94
87.55
85.44
81.09
75.51
69.71
64.15
58.56
52.13
43.97
33.60
21.10
7.03
-7.67
-21.75
-33.55
-41.18
-42.93
-38.11
-27.62
-13.99
-0.64
9.26
13.77
12.45
5.99
-4.48
-17.81
-32.74
-47.68
-60.50
-68.95
-71.39
-67.52
-58.62
-47.16
-35.88
-26.90
-21.12
-18.24
-17.22
-16.90
-16.45
-15.66
-14.83
-14.42
-14.77
-15.91
-17.61
-19.53
-21.45
-23.38
-25.50
-28.10
-31.45
-35.72
-41.00
-47.16
-53.78
-59.99
-64.50
-65.78
-62.48
-53.88
-40.29
-22.96
-3.76
15.37
33.01
48.46
61.68
72.97
82.59
90.56
96.65
100.60
102.32
102.03
100.18
97.33
94.00
90.54
87.21
84.21
81.74
79.94
78.80
77.98
76.79
74.36
69.79
62.51
52.46
40.18
26.73
13.37
1.20
-9.11
-17.50
-24.44
-30.78
-37.40
-45.01
-53.92
-63.91
-74.15
-83.33
-89.82
-92.10
-89.16
-80.88
-68.21
-52.86
-36.91
-22.09
-9.50
0.60
8.45
14.45
18.85
21.65
22.81
22.38
20.68
18.24
15.64
13.23
11.07
8.97
6.70
4.20
1.68
-0.37
-1.55
-1.68
-1.12
-0.57
-0.88
-2.61
-5.77
-9.86
-14.10
-17.83
-20.71
-22.87
-24.70
-26.66
-29.21
-32.67
-37.26
-42.88
-48.98
-54.45
-57.86
-57.77
-53.33
-44.62
-32.65
-19.07
-5.65
6.28
16.02
23.43
28.72
32.15
33.89
34.08
32.87
30.54
27.54
24.37
21.41
18.88
16.76
14.93
13.32
11.93
10.93
10.44
10.44
10.70
10.75
10.11
8.42
5.60
1.89
-2.20
-6.13
-9.43
-11.93
-13.75
-15.31
-17.19
-19.92
-23.82
-28.90
-34.78
-40.72
-45.71
-48.66
-48.67
-45.25
-38.54
-29.32
-18.75
-8.15
1.38
9.16
14.92
18.68
20.65
21.09
20.28
18.53
16.19
13.60
11.08
8.81
6.86
5.17
3.62
2.06
0.45
-1.10
-2.44
-3.40
-3.98
-4.37
-4.90
-5.89
-7.53
-9.79
-12.43
-15.14
-17.65
-19.78
-21.53
-23.03
-24.61
-26.71
-29.73
-33.86
-38.80
-43.69
-47.16
-47.81
-44.67
-37.64
-27.55
-15.87
-4.21
6.16
14.66
21.23
26.14
29.58
31.58
32.05
31.04
28.84
26.06
23.34
21.17
19.61
18.36
16.94
15.01
12.55
9.85
7.32
5.24
3.61
2.09
0.26
-2.26
-5.55
-9.38
-13.29
-16.73
-19.42
-21.42
-23.18
-25.39
-28.71
-33.42
-39.24
-45.30
-50.31
-52.91
-52.04
-47.18
-38.58
-27.15
-14.30
-1.59
9.58
18.30
24.23
27.60
28.98
29.05
28.36
27.20
25.65
23.63
21.11
18.13
14.86
11.58
8.55
5.96
3.91
2.37
1.17
0.07
-1.24
-3.03
-5.45
-8.49
-12.01
-15.76
-19.49
-23.06
-26.38
-29.59
-32.97
-36.85
-41.46
-46.67
-51.77
-55.54
-56.55
-53.61
-46.32
-35.24
-21.71
-7.48
5.91
17.44
26.66
33.56
38.33
41.14
42.23
41.92
40.60
38.77
36.76
34.65
32.30
29.45
25.95
21.96
17.94
14.39
11.63
9.59
7.77
5.51
2.31
-1.96
-6.99
-12.25
-17.25
-21.86
-26.25
-30.79
-35.74
-41.20
-47.06
-53.14
-59.03
-63.98
-66.70
-65.53
-59.00
-46.70
-29.81
-11.00
6.54
20.39
29.81
35.85
40.50
45.42
51.08
56.70
60.93
62.71
61.86
59.04
55.21
51.13
46.98
42.56
37.66
32.34
27.15
22.80
19.86
18.39
17.81
17.05
15.01
11.06
5.23
-1.68
-8.51
-14.20
-18.27
-21.00
-23.30
-26.36
-31.17
-38.19
-47.09
-56.84
-65.78
-72.03
-73.87
-70.13
-60.62
-46.16
-28.48
-9.70
8.14
23.61
36.06
45.49
52.21
56.59
58.91
59.37
58.25
55.96
53.01
49.86
46.77
43.78
40.80
37.71
34.56
31.60
29.11
27.30
26.16
25.38
24.46
22.89
20.32
16.72
12.36
7.66
3.01
-1.44
-5.85
-10.56
-16.03
-22.57
-30.25
-38.68
-46.98
-53.80
-57.57
-56.89
-51.02
-40.21
-25.68
-9.35
6.80
21.23
33.14
42.42
49.40
54.50
58.00
59.96
60.34
59.11
56.49
52.88
48.80
44.64
40.58
36.53
32.26
27.67
22.94
18.47
14.70
11.76
9.30
6.59
2.83
-2.36
-8.82
-15.80
-22.34
-27.72
-31.67
-34.53
-37.00
-39.83
-43.50
-48.08
-53.12
-57.72
-60.72
-60.89
-57.34
-49.74
-38.54
-24.92
-10.47
3.19
14.85
23.86
30.12
33.89
35.59
35.68
34.65
33.03
31.36
30.01
29.09
28.43
27.66
26.44
24.69
22.60
20.53
18.80
17.43
16.13
14.36
11.59
7.51
2.16
-4.02
-10.43
-16.46
-21.72
-26.13
-29.87
-33.31
-36.81
-40.64
-44.87
-49.31
-53.42
-56.32
-56.97
-54.47
-48.43
-39.23
-27.99
-16.22
-5.37
3.66
10.52
15.38
18.55
20.34
20.89
20.34
18.85
16.70
14.22
11.64
9.12
6.68
4.36
2.22
0.39
-1.02
-2.04
-2.80
-3.60
-4.73
-6.40
-8.61
-11.22
-13.98
-16.66
-19.10
-21.32
-23.55
-26.17
-29.63
-34.19
-39.62
-45.07
-49.11
-50.15
-46.99
-39.39
-28.20
-15.11
-2.07
9.36
18.34
24.78
28.99
31.33
32.08
31.38
29.46
26.73
23.72
20.91
18.55
16.54
14.61
12.44
9.89
7.06
4.24
1.72
-0.36
-2.08
-3.69
-5.51
-7.78
-10.59
-13.85
-17.37
-20.92
-24.31
-27.55
-30.81
-34.45
-38.85
-44.12
-49.85
-54.98
-57.99
-57.33
-52.03
-42.14
-28.73
-13.59
1.43
14.97
26.35
35.49
42.56
47.67
50.79
51.86
51.02
48.73
45.66
42.47
39.55
36.88
34.13
30.88
26.94
22.47
17.97
14.01
10.92
8.65
6.74
4.54
1.58
-2.27
-6.77
-11.44
-15.77
-19.46
-22.50
-25.16
-27.95
-31.41
-36.07
-42.10
-49.19
-56.32
-61.97
-64.37
-62.11
-54.61
-42.44
-27.19
-10.97
4.26
17.20
27.39
35.05
40.65
44.59
47.02
47.88
47.19
45.14
42.21
39.00
35.96
33.27
30.78
28.13
25.02
21.38
17.50
13.84
10.80
8.57
6.91
5.27
3.05
-0.18
-4.45
-9.36
-14.30
-18.63
-21.99
-24.37
-26.13
-27.87
-30.31
-34.09
-39.53
-46.45
-53.93
-60.46
-64.14
-63.30
-57.05
-45.65
-30.48
-13.59
2.97
17.66
29.75
39.11
45.93
50.46
52.76
52.95
51.21
48.03
44.09
40.10
36.54
33.50
30.73
27.87
24.68
21.20
17.75
14.72
12.37
10.66
9.25
7.63
5.38
2.29
-1.54
-5.74
-9.87
-13.58
-16.69
-19.24
-21.46
-23.69
-26.35
-29.89
-34.71
-40.91
-48.07
-55.04
-60.11
-61.42
-57.60
-48.38
-34.72
-18.55
-2.11
12.73
24.93
34.23
40.92
45.33
47.69
48.07
46.62
43.74
40.06
36.34
33.12
30.51
28.21
25.72
22.66
19.00
15.11
11.53
8.69
6.70
5.27
3.88
2.02
-0.65
-4.16
-8.26
-12.54
-16.54
-19.90
-22.43
-24.28
-25.85
-27.78
-30.75
-35.27
-41.38
-48.53
-55.51
-60.69
-62.31
-59.08
-50.59
-37.51
-21.49
-4.66
11.00
24.13
34.18
41.30
45.91
48.45
49.19
48.32
46.12
43.00
39.52
36.21
33.31
30.79
28.36
25.67
22.55
19.09
15.63
12.57
10.17
8.41
6.99
5.37
3.08
-0.17
-4.32
-8.95
-13.47
-17.34
-20.34
-22.66
-24.90
-27.89
-32.33
-38.55
-46.20
-54.26
-61.10
-64.95
-64.31
-58.48
-47.77
-33.45
-17.40
-1.54
12.55
23.98
32.46
38.13
41.32
42.40
41.75
39.79
37.04
34.00
31.08
28.49
26.16
23.89
21.41
18.67
15.87
13.33
11.38
10.06
9.02
7.64
5.27
1.61
-3.18
-8.47
-13.44
-17.47
-20.45
-22.76
-25.17
-28.50
-33.33
-39.84
-47.67
-55.89
-63.08
-67.48
-67.43
-61.81
-50.51
-34.62
-16.19
2.31
18.72
31.73
40.97
46.86
50.17
51.59
51.52
50.16
47.59
43.97
39.53
34.65
29.70
25.05
20.97
17.63
15.00
12.91
11.01
8.91
6.25
2.88
-1.16
-5.62
-10.20
-14.58
-18.65
-22.47
-26.35
-30.83
-36.51
-43.75
-52.38
-61.35
-68.74
-72.24
-69.83
-60.64
-45.36
-26.10
-5.79
12.86
28.05
39.21
46.76
51.61
54.60
56.18
56.48
55.46
53.11
49.63
45.28
40.42
35.38
30.45
25.85
21.75
18.16
14.99
12.01
8.91
5.39
1.29
-3.35
-8.26
-13.06
-17.45
-21.34
-25.00
-29.00
-34.08
-40.84
-49.43
-59.16
-68.46
-75.07
-76.65
-71.53
-59.43
-41.70
-20.91
-0.07
18.33
32.91
43.49
50.66
55.19
57.57
58.02
56.70
53.99
50.48
46.81
43.40
40.25
37.05
33.45
29.33
24.94
20.73
17.16
14.42
12.23
10.02
7.09
2.95
-2.46
-8.70
-15.01
-20.62
-25.05
-28.41
-31.35
-34.86
-39.91
-47.13
-56.42
-66.85
-76.66
-83.50
-85.06
-79.72
-67.22
-48.90
-27.36
-5.64
13.74
29.45
41.35
50.06
56.27
60.30
62.04
61.38
58.54
54.27
49.64
45.58
42.51
40.18
37.91
35.04
31.28
26.93
22.74
19.44
17.44
16.43
15.60
13.87
10.44
5.12
-1.58
-8.65
-15.04
-20.07
-23.66
-26.36
-29.07
-32.77
-38.28
-46.02
-55.77
-66.53
-76.42
-82.99
-83.81
-77.34
-63.53
-44.03
-21.74
0.16
19.19
34.15
45.07
52.75
58.06
61.51
63.19
63.06
61.23
58.13
54.48
51.01
48.17
45.97
44.07
41.99
39.43
36.41
33.27
30.47
28.26
26.56
24.91
22.65
19.25
14.46
8.47
1.79
-4.96
-11.21
-16.60
-21.07
-24.80
-28.24
-31.97
-36.67
-42.88
-50.80
-60.08
-69.61
-77.61
-81.91
-80.59
-72.58
-58.16
-38.96
-17.57
3.31
21.58
36.14
46.94
54.54
59.59
62.57
63.69
63.03
60.85
57.61
53.94
50.45
47.46
44.91
42.46
39.67
36.30
32.45
28.58
25.21
22.68
20.90
19.31
17.14
13.73
8.85
2.80
-3.71
-9.91
-15.28
-19.74
-23.66
-27.63
-32.27
-38.01
-44.98
-52.89
-60.96
-67.93
-72.22
-72.27
-67.09
-56.58
-41.76
-24.47
-6.85
9.22
22.51
32.47
39.10
42.69
43.64
42.41
39.58
35.78
31.60
27.53
23.78
20.32
16.93
13.38
9.55
5.55
1.72
-1.56
-4.10
-6.04
-7.86
-10.21
-13.61
-18.16
-23.49
-28.90
-33.72
-37.54
-40.41
-42.80
-45.42
-48.99
-54.03
-60.64
-68.29
-75.80
-81.30
-82.73
-78.34
-67.43
-50.68
-30.13
-8.58
11.24
27.45
39.42
47.59
52.98
56.54
58.74
59.61
58.94
56.69
53.13
48.81
44.32
40.01
35.94
31.98
27.98
23.99
20.21
16.84
13.88
11.08
7.96
4.12
-0.59
-5.95
-11.52
-16.85
-21.79
-26.59
-31.87
-38.32
-46.32
-55.57
-64.90
-72.36
-75.74
-73.22
-64.06
-48.94
-29.83
-9.34
10.06
26.68
39.86
49.71
56.62
60.89
62.64
61.98
59.31
55.34
50.98
46.96
43.52
40.41
37.10
33.16
28.49
23.49
18.74
14.80
11.83
9.50
7.12
3.95
-0.49
-6.12
-12.34
-18.32
-23.40
-27.39
-30.72
-34.23
-38.83
-45.13
-53.14
-62.14
-70.75
-77.15
-79.46
-76.25
-66.97
-52.25
-33.80
-14.01
4.81
20.94
33.66
43.07
49.75
54.29
57.05
58.10
57.49
55.36
52.11
48.24
44.28
40.56
37.12
33.81
30.40
26.72
22.78
18.75
14.80
11.08
7.57
4.07
0.27
-4.10
-9.19
-14.84
-20.65
-26.05
-30.55
-33.98
-36.53
-38.78
-41.51
-45.44
-51.02
-58.20
-66.35
-74.25
-80.18
-82.35
-79.32
-70.55
-56.74
-39.64
-21.54
-4.60
9.81
21.27
30.04
36.64
41.39
44.38
45.55
44.98
43.05
40.35
37.55
35.03
32.84
30.75
28.43
25.69
22.63
19.53
16.71
14.36
12.38
10.51
8.37
5.70
2.33
-1.77
-6.50
-11.73
-17.23
-22.65
-27.64
-31.92
-35.47
-38.58
-41.80
-45.85
-51.34
-58.53
-67.04
-75.67
-82.46
-85.12
-81.68
-71.25
-54.42
-33.25
-10.60
10.75
28.83
42.88
53.09
60.17
64.84
67.55
68.53
67.96
66.14
63.56
60.73
58.08
55.75
53.66
51.52
49.05
46.15
42.97
39.86
37.23
35.26
33.83
32.47
30.63
27.81
23.82
18.72
12.84
6.56
0.31
-5.63
-11.10
-16.12
-20.90
-25.90
-31.73
-38.98
-47.95
-58.35
-69.10
-78.39
-83.99
-83.89
-76.95
-63.45
-45.08
-24.53
-4.67
12.23
25.06
33.74
38.86
41.13
40.95
38.53
34.12
28.29
21.97
16.25
11.98
9.43
8.21
7.51
6.43
4.36
1.18
-2.86
-7.28
-11.67
-15.89
-20.06
-24.57
-29.77
-35.85
-42.59
-49.39
-55.52
-60.40
-63.83
-66.06
-67.69
-69.36
-71.63
-74.90
-79.39
-85.13
-91.78
-98.36
-103.16
-103.99
-98.86
-86.71
-68.00
-44.63
-19.29
5.38
27.45
45.96
60.58
71.22
77.89
80.71
80.20
77.50
74.14
71.60
70.66
71.16
72.06
72.07
70.20
66.31
61.07
55.65
51.20
48.33
46.94
46.23
45.12
42.59
38.10
31.63
23.77
15.30
6.97
-0.82
-8.22
-15.83
-24.50
-34.92
-47.27
-60.87
-74.15
-84.82
-90.46
-89.18
-80.30
-64.58
-44.14
-21.73
-0.04
18.94
34.16
45.36
52.72
56.61
57.51
56.11
53.34
50.21
47.56
45.76
44.62
43.54
41.89
39.35
36.07
32.56
29.36
26.74
24.52
22.11
18.79
14.07
7.93
0.87
-6.32
-12.95
-18.76
-23.96
-29.21
-35.27
-42.73
-51.80
-62.19
-72.97
-82.52
-88.66
-89.10
-82.18
-67.60
-46.91
-23.12
0.20
20.16
35.41
46.26
54.08
60.36
65.95
70.89
74.62
76.59
76.57
74.72
71.42
67.07
61.97
56.35
50.47
44.71
39.41
34.80
30.80
27.06
23.04
18.22
12.30
5.37
-2.08
-9.39
-16.00
-21.71
-26.93
-32.51
-39.37
-47.98
-57.87
-67.53
-74.74
-77.18
-73.25
-62.59
-46.25
-26.37
-5.53
13.93
30.42
43.32
52.77
59.33
63.61
65.93
66.43
65.16
62.28
58.20
53.45
48.54
43.81
39.35
35.13
31.03
26.99
22.99
19.00
14.90
10.53
5.75
0.53
-4.98
-10.51
-15.86
-21.01
-26.21
-31.99
-38.89
-47.22
-56.68
-66.29
-74.40
-79.05
-78.61
-72.28
-60.39
-44.34
-26.19
-8.04
8.52
22.62
34.07
43.09
49.92
54.69
57.42
58.13
57.05
54.63
51.41
47.90
44.35
40.78
37.12
33.31
29.43
25.69
22.30
19.29
16.48
13.48
9.81
5.13
-0.63
-7.15
-13.86
-20.08
-25.31
-29.43
-32.81
-36.25
-40.70
-46.92
-55.11
-64.68
-74.20
-81.68
-85.09
-82.97
-74.96
-61.86
-45.40
-27.63
-10.38
5.09
18.22
28.87
37.16
43.26
47.36
49.68
50.57
50.38
49.45
48.03
46.21
43.98
41.27
38.11
34.59
30.97
27.57
24.65
22.26
20.21
18.11
15.50
12.10
7.79
2.69
-2.97
-8.90
-14.86
-20.62
-26.03
-31.01
-35.68
-40.35
-45.56
-51.86
-59.46
-68.03
-76.49
-83.16
-86.25
-84.40
-77.22
-65.38
-50.47
-34.44
-19.07
-5.61
5.40
13.87
20.04
24.20
26.60
27.44
26.91
25.29
22.99
20.49
18.24
16.52
15.38
14.62
13.92
13.07
12.06
11.06
10.26
9.71
9.23
8.39
6.76
4.09
0.37
-4.14
-9.06
-14.01
-18.72
-23.08
-27.12
-30.95
-34.75
-38.74
-43.28
-48.82
-55.84
-64.63
-74.88
-85.41
-94.10
-98.34
-95.80
-85.36
-67.61
-44.75
-19.86
4.05
24.93
41.97
55.33
65.66
73.49
79.07
82.42
83.57
82.76
80.46
77.23
73.56
69.69
65.70
61.56
57.29
52.98
48.79
44.78
40.92
37.04
32.90
28.36
23.46
18.31
12.94
7.22
0.83
-6.56
-15.00
-24.12
-33.18
-41.36
-48.15
-53.54
-58.11
-62.83
-68.74
-76.57
-86.43
-97.60
-108.41
-116.48
-119.28
-114.91
-102.83
-84.17
-61.45
-37.78
-15.81
2.88
17.95
29.88
39.33
46.67
51.95
55.07
56.22
55.98
55.25
54.85
55.19
56.05
56.79
56.63
55.11
52.28
48.72
45.19
42.29
40.06
37.96
35.04
30.35
23.39
14.42
4.32
-5.69
-14.49
-21.51
-26.84
-31.08
-35.18
-40.00
-46.23
-54.12
-63.40
-73.08
-81.47
-86.51
-86.25
-79.57
-66.64
-48.85
-28.39
-7.49
12.14
29.47
44.02
55.58
64.04
69.40
71.93
72.20
70.92
68.66
65.71
62.09
57.67
52.45
46.71
40.95
35.77
31.66
28.81
27.03
25.72
24.07
21.28
16.82
10.69
3.38
-4.25
-11.44
-17.77
-23.42
-29.03
-35.54
-43.74
-53.94
-65.62
-77.25
-86.45
-90.58
-87.53
-76.54
-58.54
-35.90
-11.65
11.43
31.49
47.72
60.06
68.78
74.17
76.60
76.56
74.78
72.08
69.18
66.43
63.76
60.78
57.06
52.32
46.61
40.32
34.02
28.26
23.28
18.91
14.59
9.67
3.72
-3.24
-10.68
-17.78
-23.84
-28.62
-32.50
-36.40
-41.53
-48.91
-59.07
-71.64
-85.21
-97.36
-105.21
-106.12
-98.64
-83.12
-61.68
-37.57
-14.02
6.63
23.41
36.49
46.50
53.94
58.89
61.29
61.29
59.53
57.03
54.85
53.60
53.22
53.05
52.18
49.93
46.16
41.30
36.13
31.42
27.60
24.56
21.73
18.32
13.68
7.48
-0.04
-8.28
-16.46
-23.91
-30.36
-35.96
-41.22
-46.87
-53.61
-62.00
-72.18
-83.64
-95.03
-104.20
-108.64
-106.15
-95.77
-78.17
-55.62
-31.22
-7.97
12.11
28.17
40.37
49.35
55.69
59.76
61.81
62.11
61.15
59.51
57.77
56.25
54.96
53.59
51.74
49.09
45.58
41.50
37.34
33.61
30.58
28.16
25.91
23.24
19.58
14.56
8.17
0.74
-7.14
-14.86
-21.94
-28.16
-33.66
-38.81
-44.27
-50.71
-58.74
-68.55
-79.59
-90.41
-98.68
-101.75
-97.45
-85.00
-65.36
-41.12
-15.62
8.02
27.74
42.83
53.60
60.86
65.41
67.80
68.38
67.52
65.69
63.39
61.05
58.87
56.78
54.54
51.90
48.75
45.16
41.36
37.63
34.15
31.00
28.07
25.15
21.95
18.19
13.65
8.16
1.75
-5.42
-12.96
-20.41
-27.33
-33.46
-38.84
-43.78
-48.82
-54.57
-61.55
-70.01
-79.55
-88.96
-96.17
-98.70
-94.40
-82.37
-63.41
-39.95
-15.27
7.58
26.62
41.26
51.94
59.50
64.58
67.44
68.17
66.92
64.18
60.64
57.05
53.85
51.12
48.55
45.67
42.13
37.83
33.05
28.29
24.07
20.65
17.83
14.99
11.29
6.05
-0.92
-9.24
-18.06
-26.49
-33.92
-40.29
-45.96
-51.54
-57.69
-64.85
-73.28
-82.87
-93.10
-102.77
-110.10
-112.98
-109.61
-99.13
-82.09
-60.48
-37.12
-14.93
3.91
18.28
28.10
33.98
36.72
37.13
35.82
33.27
29.89
26.00
21.81
17.41
12.85
8.12
3.35
-1.24
-5.30
-8.49
-10.65
-11.95
-12.89
-14.15
-16.39
-19.96
-24.77
-30.39
-36.24
-41.95
-47.53
-53.41
-60.26
-68.66
-78.70
-89.75
-100.31
-108.27
-111.36
-107.90
-97.39
-80.83
-60.43
-38.92
-18.72
-1.29
12.92
24.21
33.06
39.80
44.53
47.29
48.29
47.98
46.88
45.33
43.36
40.76
37.28
32.95
28.14
23.51
19.61
16.68
14.39
12.05
8.89
4.42
-1.38
-8.08
-15.06
-21.79
-28.10
-34.25
-40.77
-48.23
-56.88
-66.49
-76.15
-84.33
-89.20
-89.03
-82.78
-70.44
-53.11
-32.74
-11.53
8.64
26.60
41.89
54.50
64.56
72.14
77.27
80.10
81.03
80.62
79.44
77.81
75.76
73.11
69.69
65.64
61.37
57.49
54.49
52.49
51.06
49.39
46.57
42.00
35.58
27.80
19.46
11.31
3.79
-3.08
-9.65
-16.45
-24.05
-32.94
-43.29
-54.75
-66.22
-75.82
-81.35
-80.94
-73.77
-60.48
-42.95
-23.65
-4.85
11.99
26.33
38.20
47.85
55.40
60.82
64.10
65.42
65.28
64.34
63.23
62.33
61.68
60.98
59.83
57.96
55.40
52.50
49.71
47.36
45.39
43.33
40.44
36.12
30.07
22.55
14.16
5.67
-2.25
-9.33
-15.68
-21.77
-28.24
-35.79
-44.90
-55.67
-67.61
-79.50
-89.46
-95.36
-95.36
-88.56
-75.33
-57.31
-36.81
-16.14
3.03
19.91
34.41
46.66
56.70
64.30
69.27
71.64
71.89
70.82
69.29
67.88
66.70
65.48
63.80
61.37
58.21
54.65
51.14
48.07
45.54
43.40
41.24
38.66
35.35
31.27
26.59
21.65
16.77
12.11
7.66
3.21
-1.47
-6.57
-12.30
-18.84
-26.40
-34.96
-43.99
-52.21
-57.67
-58.23
-52.32
-39.64
-21.35
0.27
22.66
43.73
62.29
77.97
90.71
100.32
106.33
108.27
106.13
100.59
92.98
84.85
77.42
71.21
66.09
61.49
56.82
51.71
46.10
40.07
33.71
27.05
20.12
13.06
6.14
-0.35
-6.29
-11.87
-17.57
-23.97
-31.46
-40.00
-49.11
-58.12
-66.46
-73.95
-80.85
-87.72
-95.25
-103.97
-114.08
-125.17
-136.19
-145.42
-150.78
-150.38
-143.16
-129.31
-110.37
-88.68
-66.77
-46.61
-29.30
-15.17
-4.04
4.40
10.46
14.49
16.88
18.16
18.82
19.21
19.51
19.71
19.77
19.63
19.32
18.86
18.34
17.88
17.69
17.99
18.92
20.38
21.95
23.06
23.21
22.17
20.10
17.40
14.50
11.61
8.55
4.92
0.24
-5.83
-13.32
-21.77
-30.14
-36.80
-39.77
-37.13
-27.64
-11.27
10.65
35.70
61.04
84.16
103.34
117.83
127.69
133.48
136.02
136.06
134.06
130.13
123.97
115.08
103.15
88.45
71.97
55.28
40.08
27.55
18.19
11.54
6.42
1.34
-5.04
-13.55
-24.08
-35.78
-47.44
-57.61
-65.28
-70.27
-73.21
-75.38
-78.50
-83.77
-91.67
-101.88
-112.90
-122.80
-130.03
-134.07
-135.46
-135.73
-135.69
-135.13
-132.75
-126.10
-113.10
-93.35
-68.66
-42.50
-19.19
-1.64
8.91
8.85
-3.57
-27.81
-60.98
-98.66
-133.65
-163.91
-188.78
-207.99
-221.48
-229.57
-232.56
-231.32
-227.15
-221.53
-216.12
-211.60
-208.12
-205.65
-203.64
-201.45
-198.73
-195.38
-191.52
-187.62
-183.57
-178.88
-172.89
-164.59
-152.93
-137.27
-117.57
-94.49
-69.32
-43.18
-16.91
9.07
34.97
61.43
89.21
119.05
151.51
186.56
223.31
259.59
291.98
316.52
329.96
330.86
320.08
300.40
275.34
248.01
220.36
193.12
166.44
140.55
116.10
93.87
74.35
57.32
41.72
26.06
8.96
-10.31
-31.36
-52.66
-71.85
-86.43
-94.43
-94.95
-88.27
-75.54
-58.27
-37.88
-15.48
8.05
31.86
55.07
76.72
95.92
111.97
124.40
132.99
137.68
138.64
136.28
131.38
124.94
117.97
111.21
105.02
99.31
93.73
87.87
81.41
74.21
66.24
57.64
48.66
39.70
31.24
23.71
17.22
11.37
5.19
-2.65
-13.38
-27.66
-45.16
-64.40
-82.98
-97.99
-106.73
-107.27
-98.94
-82.35
-59.15
-31.55
-1.81
28.22
57.17
84.05
108.00
128.18
143.94
155.15
162.76
168.95
176.79
189.32
208.48
234.30
264.75
296.17
324.31
345.42
357.05
358.45
350.51
335.19
314.83
291.41
266.07
239.00
209.71
177.73
143.14
106.95
70.91
36.85
6.00
-21.52
-46.58
-70.52
-94.36
-118.07
-140.38
-159.22
-172.41
-178.38
-176.55
-167.37
-152.13
-132.66
-111.03
-89.04
-67.80
-47.45
-27.40
-6.95
13.87
33.74
50.03
59.48
59.41
48.83
28.82
2.04
-28.59
-61.04
-94.53
-128.56
-161.62
-190.52
-211.35
-221.62
-222.02
-216.49
-210.07
-205.96
-203.64
-199.50
-189.44
-171.76
-148.42
-123.92
-102.80
-87.52
-77.82
-71.69
-66.72
-61.05
-53.44
-43.18
-30.17
-15.31
-0.64
11.07
17.32
16.82
10.07
-0.84
-12.82
-22.69
-27.89
-27.09
-20.33
-8.88
5.24
19.81
32.96
43.47
50.86
55.29
57.48
58.52
59.65
61.87
65.41
69.43
72.02
70.90
64.37
52.19
36.00
18.69
3.48
-7.35
-13.16
-15.00
-14.95
-15.20
-17.15
-21.02
-25.94
-30.29
-32.41
-30.96
-25.26
-15.39
-2.14
13.11
28.65
42.62
53.45
60.09
62.37
60.87
56.76
51.28
45.44
39.79
34.48
29.63
25.42
22.16
20.16
19.48
19.83
20.62
21.09
20.48
18.26
14.20
8.50
1.78
-5.11
-11.32
-16.25
-19.76
-22.09
-23.76
-25.23
-26.72
-28.06
-28.76
-28.19
-25.77
-21.19
-14.49
-6.09
3.31
12.85
21.68
29.04
34.28
36.92
36.68
33.52
27.76
20.00
11.07
1.80
-7.02
-14.75
-20.84
-24.90
-26.80
-26.80
-25.64
-24.40
-24.21
-25.81
-29.28
-34.12
-39.44
-44.42
-48.62
-52.05
-55.12
-58.33
-62.12
-66.68
-71.88
-77.28
-82.17
-85.59
-86.56
-84.25
-78.22
-68.60
-56.12
-42.01
-27.69
-14.53
-3.48
5.04
11.08
15.03
17.33
18.34
18.31
17.42
15.87
13.91
11.74
9.47
7.03
4.25
1.03
-2.54
-6.18
-9.55
-12.32
-14.38
-15.84
-16.96
-18.12
-19.76
-22.30
-26.10
-31.33
-37.75
-44.63
-50.81
-54.86
-55.58
-52.31
-45.19
-35.17
-23.58
-11.82
-0.93
8.50
16.36
22.76
27.87
31.75
34.36
35.64
35.60
34.40
32.33
29.78
27.13
24.60
22.22
19.79
17.06
13.85
10.15
6.17
2.24
-1.44
-4.85
-8.21
-11.82
-15.97
-20.74
-26.18
-32.22
-38.74
-45.43
-51.53
-55.84
-56.98
-53.90
-46.35
-35.12
-21.83
-8.32
3.92
14.11
22.20
28.45
33.17
36.43
38.18
38.37
37.13
34.75
31.65
28.24
24.79
21.46
18.30
15.26
12.28
9.30
6.28
3.18
-0.06
-3.51
-7.25
-11.33
-15.69
-20.26
-24.93
-29.75
-34.93
-40.78
-47.51
-54.88
-62.01
-67.51
-69.73
-67.45
-60.30
-48.99
-35.08
-20.41
-6.57
5.47
15.39
23.27
29.30
33.65
36.44
37.88
38.28
38.00
37.34
36.43
35.20
33.51
31.26
28.50
25.40
22.19
19.08
16.10
13.15
10.02
6.53
2.66
-1.47
-5.59
-9.50
-13.10
-16.56
-20.26
-24.70
-30.36
-37.43
-45.61
-53.98
-61.00
-64.93
-64.27
-58.32
-47.46
-33.04
-16.97
-1.08
13.32
25.62
35.70
43.72
49.81
54.08
56.59
57.53
57.14
55.70
53.44
50.49
46.94
42.96
38.81
34.81
31.27
28.35
25.89
23.53
20.79
17.27
12.83
7.68
2.28
-2.92
-7.63
-11.90
-16.12
-20.81
-26.47
-33.46
-41.82
-51.30
-61.18
-70.21
-76.76
-79.14
-76.21
-67.78
-54.88
-39.46
-23.73
-9.53
2.11
10.91
17.01
20.52
21.33
19.28
14.48
7.47
-0.68
-8.81
-16.03
-21.98
-26.88
-31.23
-35.50
-39.83
-44.11
-48.10
-51.63
-54.77
-57.72
-60.66
-63.67
-66.71
-69.73
-72.89
-76.53
-81.24
-87.60
-96.06
-106.74
-119.27
-132.75
-145.72
-156.31
-162.59
-163.06
-157.13
-145.37
-129.39
-111.38
-93.50
-77.28
-63.36
-51.60
-41.40
-32.11
-23.31
-14.96
-7.26
-0.48
5.23
9.94
13.92
17.44
20.63
23.29
25.01
25.24
23.62
20.12
15.17
9.46
3.82
-1.08
-4.87
-7.54
-9.33
-10.64
-11.95
-13.85
-16.96
-21.86
-28.91
-37.90
-47.95
-57.48
-64.55
-67.36
-64.65
-56.04
-41.98
-23.61
-2.42
19.95
41.95
62.20
79.64
93.65
104.11
111.32
115.81
118.08
118.39
116.84
113.53
108.72
102.92
96.80
90.90
85.43
80.23
74.85
68.86
62.00
54.31
46.01
37.36
28.54
19.58
10.35
0.59
-9.97
-21.55
-34.17
-47.35
-60.13
-71.03
-78.36
-80.61
-76.76
-66.60
-50.77
-30.62
-7.93
15.40
37.66
57.55
74.27
87.49
97.26
103.86
107.65
109.02
108.36
106.07
102.48
97.90
92.56
86.65
80.37
73.96
67.66
61.60
55.70
49.66
43.00
35.31
26.45
16.72
6.75
-2.76
-11.34
-19.04
-26.48
-34.64
-44.45
-56.38
-70.11
-84.33
-96.92
-105.33
-107.11
-100.59
-85.35
-62.51
-34.47
-4.29
25.03
51.20
73.03
90.26
103.22
112.45
118.45
121.69
122.71
122.23
120.96
119.44
117.83
115.88
113.16
109.30
104.34
98.76
93.28
88.55
84.81
81.73
78.51
74.26
68.31
60.54
51.31
41.34
31.34
21.82
12.97
4.68
-3.30
-11.23
-19.27
-27.38
-35.21
-41.99
-46.65
-47.97
-45.09
-37.81
-26.82
-13.50
0.52
13.90
25.90
36.36
45.34
52.88
58.80
62.83
64.82
64.98
63.80
61.91
59.76
57.52
55.10
52.27
48.89
45.06
41.09
37.33
34.09
31.38
29.00
26.49
23.38
19.31
14.16
8.08
1.38
-5.62
-12.58
-19.31
-25.67
-31.73
-37.63
-43.67
-50.17
-57.28
-64.89
-72.41
-78.95
-83.43
-84.96
-83.11
-78.04
-70.44
-61.27
-51.39
-41.37
-31.48
-21.80
-12.48
-3.82
3.69
9.60
13.69
16.14
17.38
17.97
18.32
18.63
18.85
18.89
18.65
18.16
17.44
16.58
15.60
14.47
13.13
11.55
9.71
7.64
5.43
3.18
0.97
-1.23
-3.60
-6.40
-9.95
-14.48
-19.98
-26.20
-32.57
-38.33
-42.59
-44.56
-43.69
-39.85
-33.32
-24.81
-15.19
-5.33
4.08
12.64
20.18
26.67
32.16
36.71
40.36
43.17
45.16
46.36
46.85
46.68
46.01
45.04
44.00
43.02
42.08
40.93
39.14
36.20
31.77
25.83
18.63
10.59
2.07
-6.85
-16.31
-26.56
-37.76
-49.92
-62.84
-76.21
-89.59
-102.36
-113.64
-122.40
-127.79
-129.44
-127.72
-123.56
-118.08
-112.04
-105.60
-98.39
-89.93
-80.07
-69.14
-57.86
-46.92
-36.75
-27.43
-18.92
-11.32
-4.93
-0.15
2.77
3.97
4.03
3.72
3.77
4.51
5.77
7.03
7.63
7.03
4.97
1.56
-2.83
-7.73
-12.72
-17.62
-22.58
-28.00
-34.39
-42.09
-51.00
-60.47
-69.32
-76.05
-79.20
-77.75
-71.37
-60.53
-46.29
-30.05
-13.18
3.20
18.35
31.78
43.18
52.39
59.39
64.33
67.56
69.50
70.52
70.79
70.33
69.03
66.87
63.92
60.42
56.71
53.10
49.80
46.85
44.08
41.16
37.66
33.24
27.76
21.40
14.57
7.75
1.30
-4.71
-10.51
-16.56
-23.33
-31.14
-40.08
-49.81
-59.67
-68.63
-75.53
-79.23
-78.87
-74.07
-65.04
-52.57
-37.82
-22.06
-6.41
8.35
21.75
33.53
43.49
51.42
57.11
60.53
61.91
61.74
60.69
59.38
58.17
57.16
56.18
54.94
53.18
50.80
47.88
44.62
41.25
37.90
34.51
30.91
26.81
22.03
16.53
10.52
4.29
-1.92
-8.03
-14.12
-20.34
-26.82
-33.63
-40.88
-48.68
-57.12
-66.08
-74.98
-82.77
-88.05
-89.51
-86.33
-78.45
-66.58
-51.89
-35.71
-19.19
-3.19
11.67
24.96
36.38
45.78
53.13
58.62
62.53
65.20
66.92
67.85
68.06
67.61
66.54
64.99
63.10
61.01
58.83
56.57
54.29
51.99
49.72
47.51
45.34
43.17
40.93
38.55
36.00
33.26
30.35
27.29
24.07
20.64
17.02
13.25
9.46
5.73
2.00
-2.10
-7.13
-13.64
-21.76
-30.98
-40.24
-48.29
-54.19
-57.72
-59.32
-59.80
-59.98
-60.41
-61.43
-63.26
-65.98
-69.39
-72.75
-74.77
-73.86
-68.68
-58.69
-44.40
-27.24
-9.08
8.30
23.58
36.05
45.54
52.31
56.88
59.84
61.76
63.05
63.89
64.40
64.60
64.60
64.46
64.23
63.83
63.13
62.03
60.60
59.07
57.72
56.50
54.85
51.66
45.60
35.67
21.77
4.88
-13.07
-29.71
-42.93
-51.37
-54.67
-53.38
-48.72
-42.10
-34.88
-28.15
-22.64
-18.68
-16.22
-14.86
-13.92
-12.69
-10.59
-7.46
-3.59
0.22
2.97
3.81
2.35
-1.21
-6.17
-11.56
-16.45
-20.21
-22.58
-23.64
-23.73
-23.31
-22.93
-23.08
-24.15
-26.34
-29.59
-33.65
-38.10
-42.51
-46.54
-50.05
-53.14
-56.17
-59.62
-63.97
-69.36
-75.47
-81.46
-86.17
-88.40
-87.36
-82.85
-75.23
-65.24
-53.76
-41.60
-29.37
-17.60
-6.73
2.82
10.68
16.63
20.67
23.02
24.10
24.36
24.21
23.88
23.45
22.90
22.24
21.55
20.91
20.38
19.82
18.97
17.50
15.20
12.09
8.37
4.36
0.34
-3.58
-7.50
-11.64
-16.31
-21.80
-28.26
-35.60
-43.33
-50.60
-56.23
-59.02
-58.15
-53.41
-45.39
-35.18
-24.10
-13.23
-3.24
5.69
13.64
20.75
27.08
32.49
36.77
39.71
41.17
41.19
40.00
37.98
35.57
33.21
31.14
29.40
27.80
26.04
23.84
21.00
17.50
13.41
8.89
4.11
-0.81
-5.81
-10.94
-16.38
-22.37
-29.15
-36.69
-44.62
-52.06
-57.78
-60.52
-59.34
-53.94
-44.78
-32.93
-19.74
-6.49
5.88
16.84
26.21
33.93
40.07
44.64
47.68
49.30
49.71
49.18
47.98
46.36
44.47
42.45
40.35
38.20
35.91
33.34
30.23
26.41
21.83
16.59
10.94
5.15
-0.65
-6.44
-12.40
-18.78
-25.86
-33.76
-42.43
-51.42
-59.90
-66.68
-70.50
-70.35
-65.83
-57.29
-45.72
-32.46
-18.76
-5.56
6.57
17.37
26.68
34.40
40.45
44.86
47.79
49.53
50.37
50.47
49.91
48.64
46.67
44.12
41.23
38.30
35.54
32.97
30.41
27.56
24.07
19.80
14.79
9.30
3.67
-1.80
-7.07
-12.31
-17.89
-24.23
-31.63
-40.12
-49.33
-58.44
-66.26
-71.42
-72.69
-69.38
-61.52
-49.94
-35.95
-21.01
-6.32
7.38
19.75
30.68
40.02
47.58
53.16
56.70
58.41
58.74
58.28
57.52
56.75
55.95
54.94
53.50
51.49
49.02
46.29
43.56
40.93
38.30
35.40
31.87
27.49
22.23
16.35
10.21
4.15
-1.64
-7.23
-12.90
-19.08
-26.15
-34.37
-43.67
-53.57
-63.15
-71.16
-76.25
-77.37
-73.98
-66.25
-55.00
-41.42
-26.78
-12.16
1.63
14.14
25.10
34.35
41.82
47.46
51.28
53.47
54.39
54.50
54.20
53.76
53.18
52.34
51.08
49.38
47.38
45.28
43.21
41.15
38.89
36.13
32.63
28.31
23.29
17.82
12.23
6.80
1.65
-3.27
-8.23
-13.68
-20.08
-27.83
-37.01
-47.33
-58.02
-67.91
-75.61
-79.89
-79.90
-75.45
-67.02
-55.63
-42.54
-28.99
-15.99
-4.22
5.95
14.33
20.93
25.85
29.29
31.46
32.60
32.88
32.40
31.23
29.43
27.16
24.67
22.22
20.06
18.27
16.72
15.17
13.31
10.90
7.82
4.11
-0.07
-4.52
-9.02
-13.45
-17.77
-22.17
-26.97
-32.58
-39.32
-47.14
-55.46
-63.16
-68.77
-70.91
-68.69
-61.94
-51.32
-38.05
-23.51
-8.93
4.86
17.39
28.47
37.98
45.81
51.86
56.13
58.75
60.02
60.30
59.92
59.08
57.80
56.07
53.79
51.00
47.73
43.99
39.75
34.82
29.05
22.38
15.03
7.43
0.19
-6.22
-11.57
-16.00
-20.00
-24.17
-29.12
-35.25
-42.63
-50.92
-59.33
-66.67
-71.63
-73.05
-70.26
-63.32
-52.99
-40.42
-26.90
-13.46
-0.82
10.67
20.80
29.41
36.34
41.45
44.74
46.35
46.60
45.86
44.56
42.98
41.35
39.83
38.52
37.50
36.74
36.11
35.39
34.33
32.75
30.60
27.94
24.83
21.31
17.31
12.75
7.67
2.28
-3.08
-8.06
-12.46
-16.36
-20.05
-23.98
-28.61
-34.27
-41.01
-48.52
-56.04
-62.46
-66.50
-66.99
-63.26
-55.33
-43.92
-30.19
-15.39
-0.58
13.54
26.55
38.18
48.17
56.35
62.62
67.13
70.30
72.70
74.91
77.36
80.16
83.03
85.35
86.22
84.70
80.06
71.97
60.69
46.94
31.65
15.72
-0.22
-15.83
-30.91
-45.23
-58.43
-69.98
-79.45
-86.53
-91.26
-93.92
-94.94
-94.71
-93.48
-91.42
-88.67
-85.58
-82.72
-80.87
-80.78
-82.88
-87.02
-92.32
-97.39
-100.59
-100.55
-96.48
-88.36
-76.86
-63.12
-48.40
-33.76
-19.93
-7.23
4.23
14.47
23.48
31.18
37.47
42.33
45.86
48.30
49.96
51.08
51.80
52.21
52.36
52.35
52.33
52.44
52.64
52.72
52.34
51.22
49.30
46.70
43.70
40.52
37.24
33.77
29.99
25.82
21.38
16.87
12.51
8.41
4.54
0.75
-3.15
-7.38
-12.19
-17.83
-24.38
-31.57
-38.67
-44.47
-47.60
-46.94
-42.06
-33.39
-22.11
-9.71
2.49
13.67
23.57
32.32
40.19
47.32
53.68
59.14
63.53
66.74
68.70
69.38
68.70
66.57
62.99
58.08
52.20
45.82
39.48
33.55
28.16
23.24
18.58
14.03
9.57
5.25
1.07
-3.13
-7.61
-12.59
-18.10
-23.83
-29.33
-34.19
-38.26
-41.71
-44.97
-48.52
-52.67
-57.47
-62.63
-67.49
-71.13
-72.59
-71.13
-66.48
-58.99
-49.55
-39.32
-29.34
-20.28
-12.43
-5.76
-0.17
4.42
8.00
10.58
12.21
13.11
13.56
13.78
13.87
13.79
13.39
12.58
11.43
10.13
8.94
8.06
7.51
7.07
6.40
5.14
3.00
-0.06
-3.94
-8.30
-12.72
-16.84
-20.44
-23.62
-26.73
-30.37
-35.04
-40.97
-47.89
-55.01
-61.17
-65.18
-66.15
-63.72
-58.17
-50.26
-40.99
-31.29
-21.90
-13.29
-5.68
0.85
6.33
10.85
14.55
17.60
20.12
22.17
23.73
24.71
24.98
24.49
23.24
21.35
18.95
16.21
13.25
10.10
6.76
3.20
-0.56
-4.40
-8.14
-11.64
-14.84
-17.87
-21.03
-24.75
-29.46
-35.40
-42.51
-50.30
-57.83
-63.88
-67.23
-67.01
-62.92
-55.35
-45.22
-33.72
-22.01
-10.96
-1.07
7.45
14.62
20.48
25.08
28.48
30.75
31.98
32.31
31.84
30.64
28.83
26.57
24.18
22.04
20.49
19.68
19.42
19.27
18.65
17.13
14.57
11.13
7.16
2.93
-1.49
-6.38
-12.25
-19.68
-29.09
-40.53
-53.54
-67.08
-79.66
-89.70
-95.89
-97.64
-95.31
-90.06
-83.45
-76.79
-70.69
-64.89
-58.55
-50.68
-40.60
-28.17
-13.76
1.86
17.76
32.86
46.09
56.49
63.40
66.70
66.79
64.52
60.96
57.15
53.91
51.74
50.76
50.62
50.64
49.87
47.44
42.87
36.26
28.27
19.80
11.67
4.22
-2.81
-10.10
-18.47
-28.38
-39.61
-51.18
-61.50
-68.87
-71.96
-70.14
-63.60
-53.10
-39.64
-24.22
-7.75
8.91
24.90
39.36
51.62
61.31
68.42
73.32
76.47
78.32
79.17
79.10
78.09
76.07
73.05
69.21
64.86
60.37
56.06
52.00
48.01
43.70
38.66
32.68
25.88
18.66
11.53
4.85
-1.26
-7.01
-12.80
-19.10
-26.31
-34.62
-43.92
-53.74
-63.20
-71.19
-76.49
-78.07
-75.28
-68.06
-56.90
-42.77
-26.90
-10.46
5.58
20.60
34.24
46.30
56.60
64.94
71.22
75.55
78.29
79.96
81.05
81.79
82.14
81.91
80.97
79.41
77.56
75.89
74.70
74.02
73.46
72.41
70.20
66.40
61.03
54.56
47.74
41.25
35.49
30.36
25.32
19.62
12.52
3.55
-7.34
-19.62
-32.25
-43.89
-53.17
-59.09
-61.30
-60.20
-56.79
-52.31
-47.88
-44.28
-41.82
-40.49
-40.06
-40.25
-40.78
-41.51
-42.36
-43.25
-44.03
-44.41
-44.05
-42.67
-40.22
-36.90
-33.09
-29.21
-25.60
-22.40
-19.63
-17.24
-15.20
-13.58
-12.51
-12.15
-12.62
-13.94
-16.10
-19.01
-22.55
-26.59
-30.96
-35.45
-39.91
-44.26
-48.57
-53.17
-58.52
-65.12
-73.18
-82.40
-91.83
-99.90
-104.72
-104.55
-98.29
-85.84
-68.20
-47.16
-24.89
-3.30
16.36
33.55
48.31
60.92
71.53
80.14
86.62
90.94
93.31
94.23
94.32
94.09
93.78
93.29
92.36
90.73
88.33
85.35
82.10
78.84
75.62
72.19
68.17
63.22
57.18
50.20
42.60
34.77
26.97
19.35
11.91
4.61
-2.65
-10.02
-17.72
-25.96
-34.87
-44.28
-53.67
-62.12
-68.57
-71.99
-71.73
-67.55
-59.68
-48.75
-35.70
-21.63
-7.68
5.16
16.15
24.89
31.32
35.59
38.00
38.91
38.72
37.83
36.66
35.56
34.75
34.31
34.17
34.17
34.14
33.92
33.42
32.55
31.29
29.64
27.66
25.42
22.99
20.38
17.56
14.46
10.96
6.97
2.44
-2.57
-7.97
-13.64
-19.48
-25.50
-31.79
-38.47
-45.57
-52.84
-59.69
-65.25
-68.54
-68.73
-65.38
-58.61
-49.01
-37.53
-25.19
-12.92
-1.36
9.07
18.18
25.88
32.11
36.79
39.90
41.49
41.77
41.06
39.75
38.19
36.60
35.05
33.47
31.70
29.63
27.23
24.61
21.91
19.22
16.50
13.56
10.13
6.03
1.29
-3.81
-8.88
-13.58
-17.82
-21.81
-25.96
-30.75
-36.52
-43.30
-50.77
-58.21
-64.61
-68.92
-70.20
-67.96
-62.23
-53.55
-42.84
-31.17
-19.52
-8.68
0.81
8.62
14.67
19.09
22.19
24.36
25.92
27.03
27.65
27.62
26.78
25.12
22.82
20.25
17.74
15.49
13.51
11.58
9.43
6.81
3.58
-0.26
-4.63
-9.38
-14.36
-19.47
-24.70
-30.13
-35.96
-42.45
-49.81
-58.10
-67.03
-75.93
-83.81
-89.57
-92.22
-91.15
-86.29
-78.09
-67.39
-55.21
-42.52
-30.10
-18.52
-8.18
0.64
7.75
13.13
16.89
19.35
20.94
22.10
23.21
24.46
25.85
27.17
28.18
28.65
28.53
27.88
26.87
25.59
24.03
22.02
19.34
15.86
11.61
6.79
1.72
-3.40
-8.48
-13.63
-19.07
-25.06
-31.83
-39.46
-47.82
-56.40
-64.35
-70.53
-73.70
-72.74
-66.97
-56.21
-40.86
-21.86
-0.43
22.03
44.21
65.06
83.80
99.97
113.35
123.95
131.97
137.94
142.73
147.41
152.79
159.05
165.31
169.83
170.56
166.00
155.87
141.36
124.78
108.91
96.28
88.69
86.99
91.13
100.27
112.83
126.60
138.96
147.21
149.00
142.83
128.26
105.95
77.56
45.42
12.29
-19.04
-45.97
-66.42
-79.17
-84.01
-81.81
-74.34
-63.84
-52.54
-42.24
-34.04
-28.37
-25.12
-23.86
-24.01
-24.98
-26.25
-27.36
-27.98
-27.93
-27.19
-25.89
-24.34
-22.90
-21.92
-21.66
-22.15
-23.23
-24.59
-25.88
-26.87
-27.52
-28.00
-28.58
-29.50
-30.89
-32.77
-35.11
-37.98
-41.48
-45.78
-50.99
-57.04
-63.75
-70.73
-77.37
-82.75
-85.67
-84.86
-79.39
-69.06
-54.68
-37.90
-20.71
-4.81
8.77
19.85
28.73
35.75
41.03
44.37
45.57
44.72
42.33
39.27
36.39
34.21
32.75
31.61
30.23
28.21
25.55
22.53
19.63
17.23
15.43
14.07
12.73
10.91
8.13
4.11
-1.18
-7.39
-13.97
-20.25
-25.76
-30.37
-34.42
-38.49
-43.19
-48.82
-55.26
-61.91
-67.82
-71.89
-73.07
-70.59
-64.12
-53.95
-40.99
-26.62
-12.43
0.21
10.37
17.77
22.62
25.39
26.56
26.39
24.93
22.12
17.98
12.72
6.71
0.39
-5.89
-11.89
-17.41
-22.24
-26.03
-28.44
-29.31
-28.86
-27.75
-26.94
-27.31
-29.36
-32.96
-37.40
-41.73
-45.12
-47.24
-48.35
-49.15
-50.50
-53.12
-57.39
-63.24
-70.14
-77.11
-82.80
-85.63
-84.14
-77.46
-65.62
-49.69
-31.51
-13.20
3.42
17.20
27.69
35.02
39.60
41.90
42.40
41.58
39.91
37.84
35.74
33.77
31.90
29.92
27.62
24.91
21.90
18.82
15.94
13.32
10.82
8.08
4.80
0.87
-3.53
-8.06
-12.34
-16.25
-19.89
-23.64
-28.01
-33.40
-39.98
-47.53
-55.22
-61.68
-65.23
-64.30
-58.07
-46.82
-31.92
-15.47
0.41
14.14
24.99
32.88
38.16
41.21
42.31
41.70
39.66
36.59
32.91
29.06
25.33
21.89
18.80
16.04
13.55
11.21
8.93
6.58
4.09
1.42
-1.48
-4.58
-7.84
-11.18
-14.49
-17.73
-20.97
-24.49
-28.72
-34.15
-41.03
-49.16
-57.65
-65.06
-69.62
-69.83
-64.92
-55.10
-41.55
-26.06
-10.48
3.75
15.77
25.29
32.35
37.11
39.79
40.64
40.01
38.33
36.07
33.60
31.09
28.48
25.64
22.44
18.95
15.39
12.08
9.29
7.12
5.35
3.61
1.38
-1.74
-5.92
-11.00
-16.54
-22.02
-27.02
-31.39
-35.34
-39.45
-44.34
-50.46
-57.69
-65.27
-71.77
-75.45
-74.76
-68.83
-57.77
-42.70
-25.38
-7.74
8.59
22.55
33.71
42.05
47.74
50.98
51.99
51.10
48.80
45.78
42.72
40.17
38.27
36.75
35.05
32.66
29.34
25.31
21.14
17.42
14.48
12.23
10.12
7.45
3.70
-1.31
-7.28
-13.62
-19.67
-24.95
-29.37
-33.18
-36.93
-41.31
-46.90
-53.93
-62.00
-70.03
-76.32
-78.94
-76.30
-67.75
-53.86
-36.27
-17.24
1.14
17.35
30.76
41.38
49.50
55.39
59.16
60.78
60.33
58.04
54.40
50.06
45.71
41.82
38.61
35.96
33.54
31.00
28.12
24.99
21.96
19.39
17.47
16.02
14.48
12.16
8.54
3.49
-2.59
-8.96
-14.81
-19.63
-23.34
-26.33
-29.21
-32.66
-37.16
-42.92
-49.79
-57.22
-64.14
-69.03
-70.17
-66.12
-56.28
-41.23
-22.73
-3.20
15.06
30.42
42.28
50.81
56.53
59.87
61.03
60.07
57.20
52.94
48.11
43.50
39.64
36.57
33.87
30.98
27.52
23.51
19.31
15.38
12.00
9.11
6.32
3.18
-0.56
-4.88
-9.47
-14.02
-18.22
-21.96
-25.20
-28.01
-30.49
-32.89
-35.54
-38.86
-43.20
-48.69
-55.06
-61.57
-67.04
-70.05
-69.26
-63.83
-53.73
-39.83
-23.77
-7.41
7.56
20.06
29.67
36.49
40.84
43.09
43.58
42.65
40.72
38.23
35.57
32.98
30.48
27.97
25.25
22.22
18.93
15.62
12.63
10.16
8.27
6.70
5.06
2.91
-0.03
-3.74
-7.95
-12.27
-16.35
-20.03
-23.44
-26.99
-31.21
-36.63
-43.44
-51.31
-59.24
-65.64
-68.75
-67.10
-60.07
-48.12
-32.76
-15.99
0.16
14.32
25.82
34.69
41.29
45.97
48.96
50.30
50.06
48.40
45.63
42.16
38.34
34.43
30.53
26.69
22.94
19.37
16.10
13.20
10.64
8.24
5.72
2.78
-0.72
-4.77
-9.18
-13.72
-18.23
-22.80
-27.77
-33.61
-40.66
-48.78
-57.15
-64.25
-68.23
-67.46
-61.11
-49.47
-33.90
-16.39
0.98
16.56
29.38
39.14
46.00
50.33
52.56
53.05
52.10
49.92
46.75
42.83
38.41
33.72
28.99
24.44
20.24
16.58
13.54
11.07
8.95
6.75
4.05
0.53
-3.86
-8.88
-14.12
-19.19
-23.91
-28.38
-33.04
-38.47
-45.16
-53.14
-61.78
-69.65
-74.88
-75.64
-70.80
-60.34
-45.39
-27.88
-9.88
6.89
21.38
33.21
42.36
48.99
53.26
55.32
55.41
53.93
51.40
48.28
44.92
41.40
37.63
33.48
28.94
24.24
19.80
16.08
13.27
11.16
9.12
6.40
2.44
-2.84
-9.04
-15.33
-20.98
-25.54
-29.16
-32.45
-36.34
-41.69
-49.08
-58.44
-68.92
-78.90
-86.19
-88.57
-84.51
-73.71
-57.29
-37.45
-16.70
2.84
19.97
34.29
45.91
54.98
61.48
65.27
66.38
65.15
62.25
58.50
54.60
50.91
47.49
44.19
40.87
37.52
34.31
31.46
29.12
27.23
25.37
22.93
19.31
14.13
7.49
-0.10
-7.84
-14.98
-21.10
-26.26
-30.97
-36.01
-42.21
-50.12
-59.74
-70.38
-80.48
-87.92
-90.41
-86.22
-74.79
-57.04
-35.11
-11.67
10.83
30.78
47.50
60.97
71.35
78.72
83.02
84.30
82.95
79.73
75.64
71.54
67.86
64.46
60.85
56.43
50.93
44.54
37.91
31.80
26.75
22.78
19.36
15.60
10.62
3.97
-4.22
-13.23
-22.11
-30.01
-36.55
-41.92
-46.81
-52.14
-58.75
-67.10
-77.07
-87.77
-97.58
-104.29
-105.60
-99.82
-86.45
-66.59
-42.64
-17.71
5.36
24.74
39.81
50.94
58.91
64.39
67.69
68.85
67.99
65.51
62.13
58.67
55.73
53.41
51.32
48.83
45.44
41.13
36.30
31.63
27.67
24.53
21.81
18.70
14.37
8.36
0.71
-7.98
-16.79
-24.90
-31.80
-37.56
-42.71
-48.03
-54.32
-62.08
-71.36
-81.57
-91.48
-99.30
-102.95
-100.56
-91.05
-74.62
-52.79
-28.16
-3.60
18.43
36.39
49.81
59.02
64.74
67.71
68.48
67.50
65.12
61.76
57.82
53.68
49.59
45.63
41.79
38.04
34.41
31.00
27.95
25.26
22.74
20.01
16.61
12.24
6.94
1.08
-4.78
-10.24
-15.28
-20.38
-26.35
-34.06
-43.92
-55.52
-67.44
-77.40
-82.81
-81.50
-72.49
-56.32
-35.06
-11.64
11.03
30.78
46.61
58.52
67.09
72.91
76.33
77.49
76.48
73.53
69.04
63.50
57.29
50.68
43.86
37.11
30.76
25.19
20.57
16.75
13.24
9.39
4.64
-1.24
-8.07
-15.35
-22.51
-29.12
-35.08
-40.73
-46.66
-53.55
-61.78
-71.13
-80.58
-88.35
-92.31
-90.58
-82.23
-67.68
-48.67
-27.75
-7.45
10.39
24.98
36.36
44.99
51.28
55.41
57.44
57.53
56.10
53.74
50.97
48.01
44.75
40.91
36.33
31.19
25.97
21.22
17.25
13.92
10.64
6.68
1.44
-5.19
-12.85
-20.86
-28.51
-35.31
-41.13
-46.17
-50.89
-55.83
-61.57
-68.44
-76.36
-84.58
-91.60
-95.38
-93.98
-86.19
-72.09
-53.10
-31.57
-10.06
9.47
25.95
39.17
49.38
56.83
61.59
63.57
62.84
59.88
55.62
51.17
47.40
44.57
42.26
39.67
36.04
31.16
25.51
20.05
15.75
13.10
11.84
11.12
9.87
7.27
3.05
-2.51
-8.82
-15.27
-21.46
-27.28
-32.88
-38.56
-44.76
-51.92
-60.36
-70.01
-80.14
-89.12
-94.70
-94.59
-87.22
-72.43
-51.63
-27.42
-2.83
19.60
38.31
52.92
63.82
71.76
77.33
80.84
82.40
82.18
80.53
78.06
75.37
72.85
70.51
68.06
65.08
61.35
56.99
52.34
47.77
43.45
39.21
34.64
29.25
22.71
14.98
6.36
-2.62
-11.35
-19.29
-26.20
-32.13
-37.45
-42.73
-48.61
-55.56
-63.73
-72.74
-81.52
-88.45
-91.67
-89.56
-81.33
-67.36
-49.19
-29.10
-9.42
8.05
22.39
33.47
41.62
47.25
50.57
51.61
50.43
47.33
43.02
38.43
34.47
31.63
29.78
28.29
26.38
23.63
20.17
16.67
13.90
12.29
11.63
11.12
9.73
6.74
1.99
-3.96
-10.18
-15.75
-20.11
-23.24
-25.55
-27.71
-30.44
-34.40
-40.09
-47.59
-56.34
-64.95
-71.26
-72.86
-67.89
-55.83
-37.82
-16.36
5.56
25.36
41.50
53.55
61.78
66.61
68.30
67.06
63.18
57.37
50.63
44.07
38.47
34.04
30.45
27.02
23.13
18.57
13.57
8.71
4.55
1.36
-1.06
-3.28
-6.01
-9.75
-14.64
-20.34
-26.24
-31.69
-36.30
-40.10
-43.56
-47.49
-52.70
-59.72
-68.45
-77.99
-86.66
-92.35
-93.05
-87.40
-75.20
-57.49
-36.27
-13.97
7.21
25.69
40.66
51.91
59.61
64.05
65.61
64.75
62.05
58.13
53.57
48.75
43.86
38.96
34.10
29.45
25.22
21.57
18.49
15.68
12.69
9.06
4.57
-0.71
-6.39
-11.97
-17.03
-21.51
-25.71
-30.28
-35.99
-43.43
-52.68
-63.09
-73.20
-80.95
-84.20
-81.24
-71.44
-55.46
-35.14
-13.05
8.26
26.78
41.49
52.21
59.44
63.86
66.06
66.36
64.90
61.82
57.32
51.81
45.79
39.78
34.19
29.23
25.03
21.50
18.50
15.76
12.93
9.70
5.81
1.22
-3.88
-9.09
-13.98
-18.19
-21.63
-24.51
-27.37
-30.94
-35.97
-42.95
-51.75
-61.35
-69.89
-74.98
-74.49
-67.28
-53.69
-35.53
-15.43
4.11
21.39
35.78
47.42
56.69
63.72
68.28
70.05
68.98
65.49
60.40
54.62
48.87
43.48
38.41
33.46
28.51
23.58
18.86
14.59
10.95
7.97
5.44
2.98
0.09
-3.62
-8.31
-13.84
-19.77
-25.54
-30.74
-35.23
-39.24
-43.24
-47.73
-53.17
-59.80
-67.55
-75.93
-83.87
-89.72
-91.59
-87.82
-77.67
-61.63
-41.39
-19.38
1.98
20.92
36.63
49.13
58.81
66.05
71.02
73.67
73.99
72.21
68.83
64.54
60.00
55.66
51.70
48.10
44.68
41.27
37.73
33.99
30.07
26.04
22.03
18.09
14.17
9.99
5.23
-0.32
-6.62
-13.30
-19.80
-25.63
-30.61
-34.88
-38.90
-43.13
-47.99
-53.74
-60.53
-68.40
-77.08
-85.74
-92.87
-96.42
-94.37
-85.47
-69.81
-48.94
-25.46
-2.22
18.52
35.46
48.39
57.75
64.19
68.19
70.02
69.82
67.87
64.67
60.86
57.04
53.55
50.40
47.36
44.16
40.71
37.10
33.52
30.08
26.71
23.18
19.23
14.79
9.97
5.03
0.21
-4.38
-8.83
-13.37
-18.17
-23.33
-28.69
-34.00
-38.94
-43.35
-47.37
-51.52
-56.51
-63.01
-71.21
-80.53
-89.45
-95.74
-97.11
-91.86
-79.53
-61.09
-38.70
-15.02
7.51
27.19
43.25
55.63
64.63
70.52
73.48
73.64
71.33
67.19
62.17
57.23
53.04
49.75
47.02
44.30
41.13
37.43
33.49
29.78
26.69
24.26
22.19
19.95
16.99
12.93
7.65
1.38
-5.49
-12.39
-18.82
-24.47
-29.36
-33.86
-38.57
-44.21
-51.34
-60.12
-70.05
-79.85
-87.61
-91.10
-88.52
-79.01
-63.06
-42.46
-19.76
2.46
22.24
38.55
51.20
60.48
66.78
70.44
71.69
70.85
68.38
64.86
60.83
56.61
52.30
47.78
42.96
37.91
32.89
28.30
24.39
21.09
17.93
14.21
9.28
2.90
-4.69
-12.76
-20.48
-27.23
-32.95
-38.08
-43.48
-50.03
-58.34
-68.40
-79.44
-89.95
-97.87
-101.06
-97.88
-87.74
-71.38
-50.76
-28.48
-7.10
11.56
26.69
38.34
47.00
53.18
57.15
58.97
58.72
56.71
53.46
49.61
45.66
41.78
37.94
33.96
29.86
25.84
22.34
19.65
17.78
16.24
14.21
10.85
5.61
-1.40
-9.49
-17.56
-24.63
-30.28
-34.78
-39.11
-44.51
-52.01
-61.96
-73.73
-85.67
-95.37
-100.23
-98.10
-88.05
-70.67
-48.04
-23.15
1.02
22.24
39.47
52.72
62.58
69.69
74.37
76.72
76.80
74.88
71.54
67.46
63.23
59.11
55.07
50.86
46.31
41.42
36.44
31.70
27.48
23.84
20.57
17.24
13.33
8.43
2.36
-4.73
-12.45
-20.23
-27.54
-34.03
-39.65
-44.63
-49.48
-54.89
-61.55
-69.95
-80.09
-91.12
-101.28
-108.07
-108.96
-102.17
-87.41
-66.11
-40.99
-15.26
8.36
28.21
43.86
55.68
64.36
70.45
74.21
75.70
75.06
72.62
68.98
64.78
60.59
56.63
52.86
49.03
44.95
40.59
36.18
32.08
28.58
25.77
23.40
21.02
18.05
14.03
8.78
2.42
-4.67
-11.97
-19.04
-25.63
-31.76
-37.67
-43.69
-50.28
-57.85
-66.70
-76.81
-87.50
-97.31
-104.03
-105.25
-99.14
-85.19
-64.53
-39.75
-14.06
9.65
29.56
45.09
56.65
65.03
70.86
74.49
75.99
75.51
73.41
70.27
66.74
63.28
60.06
56.97
53.78
50.33
46.63
42.83
39.18
35.81
32.73
29.75
26.54
22.66
17.75
11.62
4.41
-3.42
-11.24
-18.48
-24.77
-30.14
-34.90
