1555610656.00
64.000000
-0.00
-0.00
-0.00
-0.00
-0.00
-0.00
-0.00
-0.00
-0.00
-0.00
0.00
0.01
0.01
-0.00
-0.03
-0.05
-0.05
0.00
0.13
0.36
0.66
1.01
1.37
1.72
2.06
2.40
2.79
3.24
3.80
4.42
5.06
5.66
6.20
6.68
7.15
7.68
8.31
9.14
10.09
11.04
11.88
12.56
13.14
13.76
14.65
15.96
17.91
20.32
22.90
25.38
27.58
29.57
31.68
34.32
37.81
42.54
48.15
54.10
59.83
64.97
69.58
74.14
79.34
85.71
93.76
103.00
112.62
121.73
129.77
136.75
143.30
150.75
157.77
166.64
177.95
191.79
206.97
220.57
228.25
225.36
208.53
176.87
132.76
80.05
23.07
-34.94
-92.44
-149.16
-205.23
-260.37
-313.74
-363.87
-409.83
-450.91
-486.50
-515.74
-537.23
-549.22
-549.96
-538.37
-514.21
-478.67
-433.88
-382.45
-327.02
-269.84
-212.63
-156.66
-102.95
-52.37
-5.90
35.58
71.43
101.35
125.50
144.38
158.69
169.15
176.37
180.75
182.57
182.07
179.51
175.23
169.65
163.18
156.15
148.81
141.30
133.69
126.02
118.33
110.69
103.16
95.80
88.68
81.83
75.25
68.95
62.95
57.25
51.86
46.78
42.03
37.59
33.45
29.61
26.07
22.81
19.83
17.11
14.67
12.48
10.54
8.83
7.35
6.07
4.97
4.05
3.27
2.62
2.09
1.65
1.30
1.01
0.79
0.61
0.47
0.37
0.29
0.23
0.20
0.17
0.16
0.16
0.17
0.19
0.22
0.25
0.28
0.32
0.36
0.41
0.45
0.50
0.55
0.60
0.65
0.71
0.77
0.83
0.91
0.98
1.07
1.16
1.27
1.39
1.52
1.67
1.84
2.03
2.23
2.47
2.72
3.00
3.31
3.65
4.03
4.44
4.88
5.36
5.88
6.43
7.03
7.67
8.35
9.08
9.85
10.67
11.53
12.44
13.39
14.40
15.47
16.61
17.81
19.06
20.34
21.61
22.81
23.84
24.59
24.96
24.81
24.04
22.57
20.36
17.44
13.89
9.79
5.36
0.78
-3.72
-7.93
-11.66
-14.77
-17.16
-18.79
-19.67
-19.84
-19.42
-18.50
-17.21
-15.64
-13.88
-12.02
-10.11
-8.19
-6.29
-4.44
-2.67
-0.94
0.78
2.53
4.33
6.20
8.14
10.19
12.26
14.34
16.44
18.62
20.91
23.36
25.95
28.70
31.70
34.73
37.77
40.89
44.20
47.77
51.63
55.71
59.95
64.36
68.58
72.56
76.46
80.51
84.87
89.52
94.24
98.72
102.77
105.73
107.43
108.00
107.63
106.24
103.19
97.12
85.82
71.49
54.59
35.77
15.88
-4.20
-23.88
-42.98
-61.74
-80.59
-99.99
-121.04
-144.57
-170.88
-199.30
-227.85
-253.23
-271.63
-279.96
-276.90
-264.09
-244.80
-222.88
-201.44
-182.17
-165.47
-151.20
-139.25
-129.73
-122.92
-118.27
-114.35
-109.13
-100.81
-88.50
-72.50
-54.14
-35.16
-17.22
-1.23
12.65
24.75
35.53
45.23
53.77
60.87
66.22
69.70
71.51
72.11
72.11
72.02
72.17
72.52
72.86
72.84
72.26
71.11
69.61
68.07
66.70
65.47
64.12
62.30
59.74
56.44
52.65
48.70
44.90
41.34
37.93
34.49
30.86
27.03
23.05
19.02
14.93
10.72
6.30
1.61
-3.28
-8.24
-13.06
-17.62
-21.88
-25.98
-30.21
-34.87
-40.25
-46.43
-53.24
-60.10
-66.14
-70.31
-71.64
-69.46
-63.68
-54.72
-43.47
-30.99
-18.34
-6.36
4.43
13.72
21.44
27.59
32.27
35.58
37.66
38.70
38.93
38.72
38.43
38.39
38.84
39.81
41.19
42.73
44.15
45.23
45.82
45.85
45.32
44.27
42.80
41.00
39.00
36.86
34.58
32.08
29.28
26.12
22.62
18.86
15.03
11.24
7.58
3.98
0.30
-3.61
-7.81
-12.18
-16.51
-20.57
-24.32
-27.86
-31.50
-35.57
-40.31
-45.81
-51.90
-58.23
-64.13
-68.82
-71.35
-70.94
-67.08
-59.84
-49.77
-37.85
-25.22
-12.90
-1.68
8.00
15.98
22.30
27.16
30.79
33.42
35.21
36.31
36.86
37.07
37.19
37.47
38.03
38.86
39.77
40.54
40.98
41.01
40.69
40.12
39.38
38.47
37.35
35.96
34.29
32.33
30.08
27.51
24.62
21.46
18.15
14.83
11.61
8.44
5.16
1.56
-2.53
-7.04
-11.73
-16.28
-20.47
-24.28
-27.94
-31.74
-35.92
-40.63
-45.87
-51.60
-57.64
-63.64
-68.95
-72.68
-73.79
-71.51
-65.58
-56.42
-44.99
-32.54
-20.18
-8.72
1.43
10.16
17.46
23.39
27.99
31.34
33.63
35.12
36.10
36.79
37.30
37.69
37.95
38.16
38.43
38.84
39.37
39.83
39.93
39.42
38.24
36.55
34.63
32.77
31.10
29.58
28.02
26.20
23.97
21.31
18.26
14.95
11.52
8.10
4.70
1.31
-2.20
-5.97
-10.05
-14.38
-18.80
-23.10
-27.13
-30.91
-34.60
-38.48
-42.85
-47.89
-53.63
-59.79
-65.80
-70.75
-73.60
-73.37
-69.47
-61.94
-51.45
-39.12
-26.25
-13.94
-2.93
6.43
14.14
20.32
25.15
28.78
31.38
33.10
34.11
34.65
34.91
35.14
35.50
36.07
36.86
37.80
38.81
39.76
40.52
40.95
40.90
40.30
39.12
37.45
35.42
33.15
30.67
27.98
25.07
21.97
18.81
15.69
12.68
9.74
6.77
3.65
0.36
-3.05
-6.51
-9.97
-13.40
-16.81
-20.23
-23.63
-26.96
-30.23
-33.47
-36.86
-40.66
-45.17
-50.54
-56.63
-62.87
-68.32
-71.86
-72.51
-69.70
-63.41
-54.23
-43.05
-30.93
-18.86
-7.64
2.19
10.35
16.75
21.56
25.01
27.37
28.85
29.63
29.88
29.87
29.95
30.41
31.40
32.85
34.43
35.77
36.52
36.55
35.93
34.92
33.76
32.65
31.55
30.39
28.99
27.21
25.06
22.62
20.03
17.42
14.86
12.28
9.56
6.52
3.02
-0.96
-5.34
-9.90
-14.40
-18.59
-22.37
-25.74
-28.88
-32.10
-35.83
-40.45
-46.13
-52.62
-59.16
-64.54
-67.48
-66.95
-62.56
-54.59
-43.93
-31.72
-19.05
-6.80
4.46
14.37
22.75
29.57
34.90
38.94
41.96
44.22
46.00
47.43
48.62
49.63
50.51
51.35
52.27
53.40
54.79
56.33
57.77
58.76
58.98
58.18
56.30
53.38
49.58
45.16
40.51
36.07
32.25
29.31
27.16
25.46
23.62
21.08
17.50
12.86
7.42
1.65
-4.07
-9.49
-14.63
-19.65
-24.73
-29.86
-34.79
-39.13
-42.57
-45.16
-47.40
-50.09
-53.92
-58.90
-64.08
-67.64
-67.34
-61.37
-49.07
-31.34
-10.44
10.70
29.48
44.51
56.02
65.82
76.47
90.48
109.05
131.37
154.23
172.50
180.08
171.48
143.76
98.18
40.99
-17.82
-67.28
-98.83
-108.96
-100.11
-79.43
-56.29
-39.57
-35.41
-46.23
-70.54
-103.79
-139.80
-172.34
-196.62
-210.04
-212.29
-204.71
-189.43
-168.52
-143.71
-116.52
-88.23
-59.77
-31.66
-4.34
21.23
43.08
58.36
64.14
58.73
42.80
19.53
-6.06
-28.60
-43.67
-48.89
-44.21
-31.76
-15.09
1.84
15.58
23.93
26.29
23.52
17.17
8.77
-0.63
-10.42
-19.86
-27.79
-32.90
-34.45
-32.84
-29.66
-26.74
-24.99
-23.72
-20.72
-13.51
-0.77
16.99
37.79
58.91
77.44
90.41
94.78
88.10
69.78
41.89
9.62
-19.91
-40.16
-47.82
-43.69
-31.96
-17.33
-2.96
9.52
19.59
26.83
30.20
28.12
19.82
6.07
-9.73
-22.38
-28.00
-25.27
-15.36
-0.73
15.86
32.69
48.47
62.83
75.57
84.22
84.74
73.92
51.74
21.46
-11.02
-40.34
-62.20
-65.84
-46.89
-12.49
20.92
38.51
30.19
2.03
-36.66
-77.66
-116.25
-147.09
-169.39
-184.29
-191.61
-189.79
-176.61
-152.23
-118.71
-79.56
-39.96
-0.05
36.96
67.52
89.99
106.03
118.14
128.22
136.57
141.44
140.37
131.96
117.82
101.90
88.47
79.73
74.92
71.72
67.25
58.95
45.32
26.58
4.76
-17.33
-37.34
-53.64
-65.32
-72.45
-76.18
-75.04
-68.84
-57.45
-40.79
-19.31
5.76
32.22
57.01
76.68
88.46
91.21
86.73
79.59
76.16
83.16
105.83
146.09
201.03
263.11
321.68
366.70
391.85
396.18
383.57
360.22
331.77
301.44
270.04
236.97
202.14
166.40
131.06
96.73
62.67
27.10
-11.81
-55.05
-102.42
-152.25
-201.54
-246.43
-283.05
-308.50
-321.95
-324.73
-319.48
-308.62
-293.18
-272.72
-246.91
-217.20
-187.57
-163.37
-148.83
-144.81
-148.24
-153.76
-156.38
-153.70
-146.19
-135.86
-124.49
-112.48
-98.97
-82.98
-64.53
-45.11
-27.32
-14.08
-7.72
-9.41
-18.85
-34.20
-52.27
-69.06
-80.61
-84.13
-78.87
-66.55
-51.13
-37.57
-30.30
-31.42
-39.83
-51.31
-60.01
-60.67
-50.79
-31.60
-7.55
15.69
33.75
45.34
52.43
58.87
68.12
81.31
96.64
110.47
119.26
121.52
118.37
112.87
108.11
105.44
103.72
99.95
91.09
75.83
55.56
33.89
15.12
2.35
-3.65
-4.48
-3.09
-2.32
-3.86
-7.83
-13.35
-19.24
-24.71
-29.58
-34.05
-38.32
-42.24
-45.24
-46.34
-44.44
-38.62
-28.59
-14.87
1.18
17.68
32.83
45.34
54.84
61.58
65.96
67.92
66.75
61.52
51.66
37.76
21.67
6.19
-5.97
-12.99
-14.53
-11.60
-5.93
0.70
6.93
11.89
15.05
15.95
14.24
9.86
3.14
-5.02
-13.59
-21.53
-28.13
-32.91
-35.49
-35.49
-32.51
-26.44
-17.55
-6.74
4.77
15.77
25.40
33.31
39.55
44.37
47.89
50.13
50.99
50.48
48.73
46.01
42.62
38.83
34.86
30.92
27.25
24.09
21.51
19.34
17.18
14.53
11.05
6.70
1.78
-3.18
-7.74
-11.63
-14.89
-17.73
-20.56
-23.79
-27.81
-32.83
-38.72
-44.83
-50.02
-52.89
-52.25
-47.55
-39.10
-27.98
-15.64
-3.44
7.69
17.30
25.23
31.46
35.97
38.71
39.81
39.56
38.43
36.94
35.50
34.29
33.23
32.12
30.75
29.07
27.16
25.21
23.43
21.92
20.62
19.30
17.64
15.39
12.42
8.88
5.10
1.56
-1.35
-3.47
-4.96
-6.20
-7.80
-10.23
-13.80
-18.54
-24.18
-30.41
-36.87
-43.22
-48.98
-53.53
-56.08
-55.88
-52.56
-46.39
-38.29
-29.49
-21.12
-13.64
-6.89
-0.33
6.46
13.43
20.06
25.59
29.51
31.69
32.37
31.87
30.40
27.93
24.45
20.14
15.59
11.49
8.43
6.60
5.67
5.13
4.56
3.91
3.48
3.60
4.37
5.35
5.74
4.61
1.35
-4.04
-10.99
-18.57
-25.93
-32.56
-38.51
-44.07
-49.49
-54.47
-58.00
-58.64
-55.06
-46.78
-34.48
-19.90
-5.18
7.80
18.04
25.39
30.28
33.14
34.14
33.23
30.37
25.84
20.35
14.80
10.02
6.44
4.01
2.40
1.21
0.12
-1.09
-2.59
-4.60
-7.23
-10.42
-13.78
-16.66
-18.45
-18.85
-17.99
-16.34
-14.57
-13.28
-13.03
-14.26
-17.24
-21.96
-27.85
-33.83
-38.46
-40.43
-39.02
-34.31
-27.04
-18.24
-8.88
0.30
8.71
15.85
21.24
24.58
25.86
25.41
23.73
21.31
18.56
15.87
13.59
12.16
11.98
13.17
15.50
18.28
20.65
21.87
21.52
19.65
16.60
12.93
9.13
5.70
3.07
1.63
1.77
3.82
7.94
14.02
21.66
30.15
38.62
46.11
51.73
54.77
54.85
51.96
46.49
39.12
30.79
22.56
15.49
10.34
7.28
5.67
4.11
0.87
-5.53
-15.67
-28.97
-43.92
-58.63
-71.53
-81.76
-89.17
-94.08
-96.91
-98.02
-97.73
-96.40
-94.45
-92.07
-89.10
-84.91
-78.60
-69.45
-57.31
-42.85
-27.31
-12.18
1.44
13.00
22.46
29.94
35.38
38.35
38.36
35.25
29.49
22.34
15.42
10.18
7.40
7.07
8.58
11.20
14.38
17.87
21.47
24.82
27.35
28.48
27.89
25.63
21.99
17.17
11.13
3.70
-5.01
-14.31
-22.93
-29.37
-32.42
-31.59
-27.26
-20.34
-12.01
-3.39
4.57
11.05
15.33
16.92
15.73
12.17
7.19
2.06
-1.88
-3.60
-2.67
0.59
5.10
9.28
11.55
10.80
6.80
0.37
-6.95
-13.42
-17.89
-20.23
-21.36
-22.64
-25.19
-29.15
-33.57
-36.75
-36.98
-33.33
-25.89
-15.78
-4.62
6.10
15.36
22.80
28.52
32.76
35.63
36.94
36.40
33.80
29.37
23.86
18.34
13.81
10.78
9.12
8.13
6.88
4.74
1.55
-2.37
-6.42
-10.10
-13.25
-16.10
-19.20
-23.18
-28.50
-35.33
-43.27
-51.39
-58.26
-62.27
-61.99
-56.67
-46.45
-32.36
-16.04
0.76
16.62
30.64
42.34
51.56
58.22
62.34
64.09
63.85
62.26
60.04
57.79
55.86
54.27
52.75
50.99
48.77
46.05
43.02
39.98
37.16
34.66
32.36
30.02
27.31
24.02
20.01
15.33
10.14
4.66
-0.87
-6.25
-11.31
-16.01
-20.39
-24.63
-29.00
-33.83
-39.45
-46.00
-53.34
-60.79
-67.15
-70.90
-70.53
-65.12
-54.63
-40.02
-22.98
-5.48
10.74
24.46
35.15
42.79
47.77
50.66
52.02
52.34
51.99
51.23
50.25
49.19
48.17
47.30
46.60
46.03
45.47
44.84
44.03
42.99
41.64
39.90
37.72
35.06
31.99
28.68
25.32
22.09
19.04
16.07
12.98
9.55
5.66
1.33
-3.25
-7.80
-12.08
-15.98
-19.61
-23.30
-27.46
-32.43
-38.19
-44.24
-49.51
-52.61
-52.18
-47.41
-38.36
-26.03
-12.04
1.76
13.92
23.55
30.40
34.65
36.65
36.79
35.39
32.79
29.40
25.75
22.33
19.61
17.81
16.88
16.53
16.33
15.94
15.17
14.07
12.85
11.70
10.70
9.76
8.65
7.08
4.85
1.93
-1.49
-5.12
-8.62
-11.76
-14.46
-16.86
-19.22
-21.93
-25.31
-29.54
-34.45
-39.44
-43.57
-45.62
-44.60
-39.95
-31.90
-21.43
-9.97
0.95
10.16
17.04
21.47
23.77
24.33
23.53
21.64
18.91
15.66
12.28
9.22
6.84
5.29
4.48
4.17
4.07
4.01
3.94
3.82
3.57
3.05
2.07
0.47
-1.74
-4.47
-7.45
-10.41
-13.14
-15.59
-17.90
-20.39
-23.34
-26.80
-30.36
-33.16
-34.09
-32.22
-27.17
-19.38
-10.00
-0.44
8.01
14.61
19.13
21.75
22.71
22.12
20.00
16.39
11.62
6.35
1.45
-2.22
-4.20
-4.55
-3.76
-2.53
-1.47
-0.85
-0.68
-0.79
-1.02
-1.43
-2.15
-3.39
-5.16
-7.39
-9.87
-12.43
-15.08
-17.99
-21.33
-25.04
-28.66
-31.25
-31.77
-29.36
-23.83
-15.77
-6.42
2.70
10.34
15.73
18.70
19.48
18.47
16.06
12.57
8.32
3.73
-0.72
-4.47
-7.09
-8.38
-8.43
-7.54
-6.15
-4.64
-3.26
-2.13
-1.27
-0.73
-0.59
-1.00
-2.10
-3.97
-6.61
-9.93
-13.80
-18.07
-22.57
-26.93
-30.57
-32.70
-32.50
-29.35
-23.20
-14.71
-5.04
4.35
12.21
17.78
20.88
21.79
21.02
19.08
16.40
13.34
10.26
7.50
5.35
3.99
3.42
3.43
3.73
4.02
4.06
3.77
3.29
2.80
2.49
2.30
1.90
0.77
-1.59
-5.37
-10.23
-15.56
-20.70
-25.40
-29.76
-34.08
-38.29
-41.71
-43.09
-41.19
-35.39
-26.23
-15.24
-4.42
4.50
10.67
14.12
15.46
15.34
14.13
11.85
8.42
3.93
-1.11
-5.89
-9.56
-11.58
-11.90
-10.98
-9.59
-8.45
-8.02
-8.41
-9.44
-10.88
-12.59
-14.58
-16.93
-19.75
-23.01
-26.64
-30.51
-34.55
-38.58
-42.35
-45.28
-46.58
-45.47
-41.38
-34.37
-25.11
-14.80
-4.77
3.88
10.54
15.08
17.68
18.64
18.20
16.60
14.11
11.24
8.54
6.56
5.60
5.61
6.23
6.92
7.20
6.73
5.39
3.21
0.39
-2.79
-6.02
-9.00
-11.52
-13.52
-15.08
-16.35
-17.61
-19.15
-21.36
-24.63
-29.16
-34.78
-40.69
-45.52
-47.68
-45.88
-39.69
-29.63
-17.04
-3.50
9.73
21.87
32.60
41.62
48.34
51.87
51.29
46.15
36.87
24.71
11.48
-1.09
-11.63
-19.47
-24.48
-26.81
-26.72
-24.53
-20.49
-15.00
-8.50
-1.53
5.20
10.97
15.13
17.34
17.73
16.94
15.85
15.14
15.05
15.28
15.24
14.42
12.55
9.58
5.49
0.17
-6.66
-15.20
-25.49
-37.56
-51.75
-68.72
-89.19
-113.20
-139.34
-164.65
-185.07
-196.55
-196.09
-182.56
-156.99
-122.48
-83.87
-47.01
-17.54
0.61
6.57
2.64
-6.66
-16.73
-24.48
-28.84
-29.89
-27.36
-19.85
-5.28
17.65
48.32
83.80
119.78
151.86
176.49
191.03
193.60
182.95
159.14
124.48
83.98
44.68
13.78
-3.61
-6.08
3.69
20.06
36.41
47.34
49.99
44.52
33.33
19.78
6.76
-4.20
-13.27
-21.78
-31.33
-42.79
-55.42
-66.66
-72.71
-69.79
-55.61
-30.58
1.91
36.36
66.72
88.38
99.42
100.87
95.94
88.46
81.54
76.67
73.85
72.13
70.27
67.16
61.94
54.02
43.22
30.11
16.26
4.15
-3.64
-5.45
-1.53
5.77
12.68
15.54
12.14
2.48
-11.42
-26.52
-39.90
-49.61
-54.83
-55.48
-51.82
-44.14
-32.84
-18.57
-2.39
14.33
30.23
44.23
55.59
63.88
68.71
69.80
66.89
60.06
49.99
37.95
25.76
15.39
8.46
5.77
7.00
10.81
15.20
18.17
18.39
15.68
11.05
6.30
3.31
3.24
5.88
9.57
11.78
9.99
2.66
-10.27
-27.38
-46.35
-64.45
-79.05
-87.82
-88.84
-80.97
-64.28
-40.42
-12.49
15.59
39.98
57.93
68.25
71.35
68.85
63.09
56.52
51.22
48.47
48.52
50.67
53.60
55.91
56.69
55.67
53.17
49.74
45.79
41.57
37.05
32.24
27.21
22.10
17.09
12.23
7.47
2.63
-2.50
-8.13
-14.45
-21.63
-29.66
-38.27
-46.69
-53.64
-57.62
-57.30
-52.08
-42.39
-29.61
-15.63
-2.27
9.23
18.36
25.22
30.14
33.41
35.18
35.52
34.65
33.02
31.21
29.80
29.08
28.99
29.10
28.86
27.78
25.69
22.75
19.37
16.04
13.10
10.63
8.44
6.16
3.41
-0.04
-4.22
-8.94
-13.78
-18.25
-21.83
-24.11
-24.81
-23.80
-20.97
-16.20
-9.28
-0.09
11.21
24.03
37.28
49.61
59.74
66.98
71.42
73.95
76.01
79.10
84.48
92.84
104.29
118.27
133.65
148.82
162.06
172.00
178.08
180.79
181.43
181.68
182.90
185.82
190.47
196.52
203.58
211.22
218.76
224.94
227.91
225.66
216.65
200.48
177.86
150.17
118.64
83.54
43.97
-1.94
-56.59
-122.26
-200.58
-291.73
-393.33
-499.56
-601.42
-688.36
-751.11
-784.64
-789.73
-772.23
-740.47
-702.12
-662.05
-622.09
-582.26
-542.49
-503.43
-466.27
-431.74
-399.48
-368.10
-335.97
-302.24
-267.24
-232.42
-199.61
-170.14
-144.34
-121.45
-100.15
-79.14
-57.83
-36.57
-16.50
0.99
14.79
24.51
30.58
33.97
35.79
36.87
37.54
37.57
36.49
33.86
29.65
24.33
18.89
14.53
12.33
12.94
16.37
22.06
29.14
36.80
44.68
53.02
62.53
74.06
88.14
104.67
122.86
141.49
159.41
175.95
191.19
205.94
221.50
239.43
261.11
287.26
317.15
348.20
376.02
395.35
401.66
392.67
369.27
335.32
296.39
258.15
224.92
199.07
181.11
170.33
165.41
164.98
167.68
172.15
176.90
180.25
180.56
176.59
168.08
155.91
141.84
127.68
114.47
101.99
89.00
74.12
56.84
38.07
19.82
4.32
-6.94
-13.81
-17.31
-18.95
-19.99
-21.04
-22.01
-22.45
-22.01
-20.75
-19.21
-18.40
-19.54
-23.71
-31.48
-42.43
-55.08
-67.09
-75.86
-79.25
-76.10
-66.41
-51.09
-31.60
-9.72
12.69
33.72
51.64
65.10
73.53
77.21
77.19
74.83
71.45
67.98
64.90
62.29
60.08
58.11
56.23
54.28
52.03
49.30
45.90
41.71
36.69
30.83
24.13
16.57
8.23
-0.74
-10.03
-19.28
-28.20
-36.70
-44.97
-53.31
-61.91
-70.52
-78.46
-84.64
-87.91
-87.38
-82.70
-74.08
-62.21
-48.06
-32.74
-17.41
-3.28
8.53
17.16
22.25
24.04
23.28
20.94
17.87
14.52
11.06
7.55
4.32
1.97
1.22
2.50
5.57
9.52
13.03
14.89
14.48
11.82
7.49
2.18
-3.59
-9.58
-15.74
-22.11
-28.64
-35.30
-42.11
-49.10
-56.11
-62.62
-67.58
-69.58
-67.28
-59.96
-47.85
-32.22
-14.93
2.06
17.19
29.57
38.94
45.41
49.26
50.74
50.15
47.81
44.23
39.99
35.67
31.70
28.26
25.28
22.57
19.92
17.23
14.43
11.56
8.55
5.30
1.72
-2.24
-6.56
-11.21
-16.25
-21.84
-28.29
-35.77
-44.16
-52.86
-60.79
-66.59
-68.88
-66.71
-59.75
-48.48
-34.07
-18.09
-2.24
12.04
23.76
32.52
38.39
41.77
43.20
43.22
42.23
40.50
38.25
35.62
32.80
29.96
27.25
24.76
22.48
20.27
17.94
15.29
12.13
8.44
4.30
-0.14
-4.71
-9.24
-13.72
-18.19
-22.83
-27.88
-33.61
-40.24
-47.74
-55.69
-63.11
-68.63
-70.73
-68.20
-60.58
-48.33
-32.78
-15.81
0.66
15.04
26.23
33.79
37.77
38.63
37.17
34.33
31.01
27.89
25.32
23.27
21.53
19.89
18.24
16.62
15.08
13.65
12.24
10.80
9.35
7.99
6.78
5.64
4.22
2.04
-1.32
-6.01
-11.84
-18.44
-25.50
-32.96
-40.91
-49.35
-57.81
-65.17
-69.78
-70.04
-64.93
-54.52
-39.99
-23.24
-6.24
9.51
23.21
34.66
43.88
50.83
55.31
57.19
56.57
54.01
50.35
46.51
43.17
40.58
38.60
36.85
35.06
33.10
31.10
29.26
27.61
25.95
23.85
20.83
16.61
11.30
5.34
-0.64
-6.09
-10.72
-14.69
-18.44
-22.59
-27.76
-34.42
-42.69
-52.24
-62.19
-71.17
-77.63
-80.19
-78.08
-71.39
-60.99
-48.25
-34.55
-20.95
-8.12
3.59
13.91
22.54
29.20
33.75
36.29
37.22
37.13
36.63
36.20
36.02
35.99
35.75
34.83
32.87
29.87
26.32
23.07
21.04
20.73
21.92
23.60
24.40
23.15
19.41
13.63
6.91
0.49
-4.82
-8.85
-12.12
-15.44
-19.57
-24.98
-31.71
-39.37
-47.19
-54.05
-58.64
-59.69
-56.31
-48.34
-36.52
-22.39
-7.86
5.26
15.75
23.12
27.54
29.54
29.75
28.69
26.79
24.46
22.14
20.27
19.13
18.84
19.16
19.70
20.00
19.74
18.88
17.64
16.38
15.47
15.07
15.10
15.26
15.19
14.61
13.37
11.49
9.08
6.16
2.78
-1.16
-5.77
-11.19
-17.50
-24.65
-32.45
-40.58
-48.65
-56.36
-63.53
-69.93
-75.16
-78.45
-78.73
-74.91
-66.40
-53.50
-37.42
-20.06
-3.42
10.93
22.14
30.07
35.05
37.58
38.16
37.26
35.35
32.99
30.80
29.29
28.78
29.25
30.41
31.82
33.04
33.79
33.97
33.65
32.98
32.01
30.67
28.79
26.25
23.02
19.29
15.38
11.64
8.21
4.94
1.44
-2.78
-8.13
-14.74
-22.46
-30.87
-39.34
-47.05
-53.02
-56.25
-55.93
-51.71
-43.83
-33.12
-20.77
-8.06
4.03
14.79
23.70
30.39
34.48
35.78
34.42
31.00
26.48
21.95
18.28
15.87
14.61
14.01
13.48
12.56
11.05
9.02
6.64
4.09
1.40
-1.53
-4.89
-8.76
-13.13
-17.82
-22.52
-27.01
-31.13
-34.91
-38.46
-41.98
-45.67
-49.73
-54.34
-59.60
-65.43
-71.32
-76.37
-79.36
-79.07
-74.65
-65.99
-53.80
-39.39
-24.35
-10.08
2.46
12.83
20.94
26.87
30.70
32.58
32.75
31.69
30.08
28.63
27.87
27.97
28.71
29.63
30.31
30.56
30.49
30.34
30.32
30.48
30.63
30.48
29.73
28.17
25.67
22.21
17.85
12.83
7.52
2.34
-2.43
-6.77
-11.03
-15.75
-21.41
-28.17
-35.72
-43.26
-49.72
-53.99
-55.18
-52.84
-47.03
-38.33
-27.75
-16.51
-5.80
3.40
10.46
15.14
17.51
17.91
16.80
14.76
12.37
10.15
8.42
7.31
6.76
6.53
6.39
6.16
5.78
5.30
4.75
4.13
3.24
1.82
-0.42
-3.57
-7.39
-11.43
-15.22
-18.56
-21.70
-25.27
-29.99
-36.35
-44.33
-53.31
-62.24
-69.82
-74.81
-76.14
-73.14
-65.66
-54.13
-39.65
-23.78
-8.25
5.42
16.18
23.58
27.74
29.24
28.87
27.43
25.56
23.67
21.92
20.32
18.84
17.53
16.52
15.96
15.91
16.16
16.34
15.95
14.55
11.96
8.25
3.76
-1.09
-5.91
-10.47
-14.74
-18.96
-23.49
-28.79
-35.21
-42.84
-51.25
-59.46
-65.99
-69.23
-67.89
-61.48
-50.49
-36.24
-20.52
-5.04
8.92
20.68
29.99
36.85
41.34
43.58
43.78
42.30
39.73
36.79
34.10
32.09
30.83
30.09
29.51
28.77
27.73
26.44
25.00
23.44
21.58
19.13
15.77
11.36
6.00
-0.01
-6.27
-12.46
-18.36
-23.93
-29.28
-34.67
-40.53
-47.31
-55.40
-64.73
-74.66
-83.78
-90.21
-92.02
-87.87
-77.47
-61.70
-42.40
-21.79
-1.95
15.65
30.27
41.78
50.42
56.54
60.54
62.86
64.05
64.75
65.63
67.25
69.92
73.66
78.20
83.13
88.03
92.51
96.23
98.86
100.09
99.57
97.06
92.49
86.01
78.08
69.42
60.77
52.63
45.02
37.40
28.90
18.68
6.40
-7.54
-22.11
-36.07
-48.52
-59.22
-68.63
-77.55
-86.59
-95.73
-104.11
-110.31
-112.73
-110.29
-102.69
-90.58
-75.28
-58.33
-41.08
-24.58
-9.51
3.60
14.31
22.28
27.39
29.86
30.28
29.49
28.36
27.61
27.66
28.50
29.87
31.28
32.30
32.70
32.52
32.06
31.67
31.52
31.54
31.38
30.62
28.96
26.39
23.21
19.88
16.80
14.15
11.80
9.39
6.51
2.89
-1.54
-6.58
-11.89
-17.17
-22.13
-26.65
-30.72
-34.44
-38.05
-41.86
-46.26
-51.61
-58.04
-65.29
-72.57
-78.59
-81.83
-80.91
-75.07
-64.41
-49.86
-33.01
-15.60
0.82
15.12
26.69
35.28
41.01
44.19
45.32
45.01
43.81
42.25
40.68
39.41
38.66
38.62
39.30
40.56
42.06
43.32
43.98
43.85
43.02
41.76
40.35
38.92
37.39
35.56
33.23
30.35
27.02
23.47
19.89
16.33
12.71
8.83
4.54
-0.20
-5.21
-10.21
-14.95
-19.30
-23.31
-27.17
-31.10
-35.31
-39.99
-45.35
-51.61
-58.81
-66.68
-74.38
-80.62
-83.86
-82.80
-76.82
-66.19
-51.99
-35.76
-19.17
-3.58
10.04
21.15
29.56
35.26
38.41
39.29
38.35
36.22
33.68
31.52
30.34
30.36
31.39
32.92
34.35
35.28
35.59
35.46
35.22
35.09
35.07
34.97
34.50
33.38
31.50
28.85
25.60
21.98
18.26
14.65
11.22
7.87
4.37
0.47
-3.96
-8.85
-13.88
-18.66
-22.93
-26.67
-30.16
-33.82
-38.05
-43.16
-49.30
-56.48
-64.47
-72.67
-80.01
-85.00
-86.05
-82.00
-72.62
-58.85
-42.55
-25.94
-10.93
1.36
10.77
17.80
23.17
27.47
31.01
33.89
36.24
38.32
40.54
43.19
46.28
49.47
52.22
54.04
54.73
54.40
53.28
51.53
49.20
46.17
42.38
37.95
33.23
28.62
24.46
20.81
17.52
14.28
10.90
7.30
3.59
-0.12
-3.77
-7.48
-11.35
-15.38
-19.36
-22.99
-26.03
-28.58
-31.11
-34.30
-38.77
-44.66
-51.53
-58.31
-63.65
-66.24
-65.14
-59.99
-50.98
-38.77
-24.27
-8.53
7.45
22.70
36.43
47.95
56.83
62.88
66.19
67.12
66.24
64.23
61.83
59.63
58.02
57.06
56.53
56.10
55.56
54.97
54.64
54.99
56.22
58.18
60.34
62.00
62.55
61.69
59.47
56.07
51.65
46.21
39.67
32.05
23.60
14.84
6.42
-1.13
-7.67
-13.55
-19.42
-26.05
-33.92
-42.96
-52.48
-61.26
-67.93
-71.32
-70.74
-66.14
-58.14
-47.84
-36.62
-25.91
-16.87
-10.29
-6.50
-5.42
-6.65
-9.69
-13.91
-18.68
-23.32
-27.21
-29.91
-31.27
-31.44
-30.74
-29.45
-27.74
-25.66
-23.28
-20.78
-18.51
-16.84
-15.99
-15.95
-16.53
-17.45
-18.51
-19.68
-21.05
-22.80
-25.01
-27.69
-30.71
-33.88
-36.96
-39.85
-42.53
-45.11
-47.82
-50.94
-54.81
-59.69
-65.56
-71.93
-77.78
-81.65
-82.09
-78.06
-69.43
-57.03
-42.38
-27.19
-12.91
-0.43
9.88
17.98
23.96
27.92
30.03
30.57
29.99
28.85
27.67
26.86
26.56
26.73
27.14
27.54
27.76
27.78
27.73
27.76
27.91
28.02
27.73
26.68
24.61
21.56
17.80
13.75
9.78
6.07
2.60
-0.82
-4.41
-8.33
-12.59
-17.10
-21.70
-26.21
-30.52
-34.65
-38.77
-43.21
-48.40
-54.67
-61.97
-69.72
-76.74
-81.52
-82.60
-79.10
-70.91
-58.81
-44.18
-28.55
-13.30
0.57
12.43
21.94
28.93
33.40
35.55
35.85
34.98
33.65
32.51
31.91
31.95
32.56
33.62
35.04
36.78
38.74
40.72
42.44
43.58
43.95
43.49
42.28
40.42
37.98
34.97
31.36
27.10
22.14
16.45
9.97
2.68
-5.47
-14.37
-23.79
-33.28
-42.19
-49.88
-55.78
-59.75
-62.04
-63.38
-64.67
-66.80
-70.42
-75.83
-82.91
-91.04
-99.15
-105.71
-108.97
-107.45
-100.29
-87.65
-70.67
-51.20
-31.26
-12.61
3.58
16.74
26.77
33.92
38.59
41.28
42.55
42.90
42.77
42.48
42.29
42.40
42.96
43.97
45.26
46.48
47.19
47.09
46.08
44.37
42.25
39.98
37.64
35.10
32.23
29.01
25.63
22.35
19.45
16.97
14.76
12.48
9.75
6.32
2.08
-2.86
-8.22
-13.70
-18.99
-23.93
-28.55
-33.08
-37.95
-43.68
-50.75
-59.31
-68.93
-78.54
-86.46
-90.87
-90.26
-83.95
-72.37
-56.87
-39.37
-21.71
-5.38
8.75
20.31
29.30
35.87
40.27
42.76
43.71
43.50
42.59
41.44
40.47
39.99
40.13
40.83
41.88
42.93
43.68
43.86
43.33
42.12
40.38
38.27
35.92
33.35
30.44
27.02
22.97
18.30
13.17
7.80
2.37
-3.07
-8.55
-14.15
-19.98
-26.21
-33.10
-40.92
-49.78
-59.28
-68.36
-75.31
-78.22
-75.65
-67.10
-53.33
-36.10
-17.61
0.10
15.65
28.42
38.33
45.62
50.51
53.13
53.65
52.34
49.72
46.52
43.51
41.29
40.10
39.78
39.88
39.94
39.62
38.85
37.77
36.57
35.29
33.79
31.78
28.90
24.97
20.00
14.22
8.01
1.71
-4.41
-10.28
-15.98
-21.76
-28.00
-35.15
-43.50
-53.02
-63.05
-72.28
-78.85
-80.90
-77.07
-67.08
-51.87
-33.34
-13.87
4.41
20.03
32.36
41.49
47.92
52.18
54.66
55.63
55.27
53.88
51.91
49.95
48.50
47.83
47.91
48.37
48.74
48.58
47.65
45.98
43.79
41.34
38.80
36.12
33.09
29.43
24.88
19.39
13.12
6.36
-0.52
-7.23
-13.63
-19.72
-25.69
-31.87
-38.71
-46.59
-55.75
-65.93
-76.19
-84.93
-90.16
-89.99
-83.32
-70.28
-52.28
-31.61
-10.71
8.43
24.67
37.69
47.67
54.95
59.85
62.66
63.74
63.67
63.08
62.53
62.33
62.48
62.74
62.82
62.56
61.98
61.22
60.41
59.56
58.50
57.04
54.97
52.28
49.07
45.49
41.65
37.55
33.12
28.33
23.26
18.07
13.00
8.19
3.62
-0.93
-5.67
-10.75
-16.16
-21.78
-27.43
-33.01
-38.56
-44.17
-50.09
-56.58
-63.97
-72.60
-82.55
-93.45
-104.19
-113.04
-117.91
-116.95
-109.20
-94.91
-75.51
-53.18
-30.28
-8.80
9.95
25.32
37.18
45.76
51.45
54.73
56.23
56.57
56.41
56.26
56.42
56.96
57.75
58.57
59.21
59.59
59.71
59.65
59.48
59.17
58.54
57.33
55.31
52.40
48.72
44.60
40.42
36.44
32.76
29.23
25.63
21.79
17.70
13.54
9.55
5.88
2.48
-0.91
-4.70
-9.24
-14.65
-20.78
-27.23
-33.53
-39.32
-44.44
-49.02
-53.41
-58.16
-63.81
-70.89
-79.53
-89.29
-98.92
-106.47
-109.78
-107.09
-97.70
-82.28
-62.68
-41.30
-20.44
-1.77
13.83
26.16
35.41
41.90
46.02
48.20
48.96
48.91
48.62
48.56
48.97
49.88
51.11
52.41
53.53
54.35
54.89
55.24
55.51
55.66
55.50
54.73
53.07
50.44
46.93
42.88
38.65
34.54
30.67
26.97
23.24
19.34
15.23
11.04
6.97
3.19
-0.29
-3.66
-7.24
-11.28
-15.89
-20.95
-26.16
-31.16
-35.74
-39.91
-43.98
-48.49
-54.01
-60.95
-69.21
-77.99
-85.82
-90.78
-91.09
-85.63
-74.37
-58.38
-39.52
-19.91
-1.43
14.56
27.35
36.74
42.88
46.16
47.06
46.18
44.16
41.63
39.15
37.17
35.89
35.32
35.28
35.48
35.73
35.91
36.04
36.14
36.18
36.02
35.37
33.95
31.57
28.21
24.08
19.59
15.18
11.16
7.59
4.23
0.67
-3.49
-8.44
-14.11
-20.17
-26.20
-31.87
-37.02
-41.72
-46.17
-50.75
-55.86
-61.91
-69.00
-76.78
-84.29
-90.04
-92.37
-89.95
-82.21
-69.57
-53.31
-35.21
-17.06
-0.35
13.93
25.25
33.45
38.61
41.05
41.29
40.03
38.04
36.02
34.51
33.76
33.71
34.12
34.68
35.17
35.48
35.65
35.69
35.56
35.13
34.11
32.30
29.54
25.90
21.61
17.01
12.35
7.75
3.18
-1.58
-6.71
-12.33
-18.35
-24.50
-30.46
-35.92
-40.81
-45.34
-50.02
-55.49
-62.24
-70.35
-79.19
-87.41
-93.20
-94.77
-90.89
-81.34
-66.92
-49.31
-30.59
-12.78
2.50
14.29
22.25
26.66
28.20
27.75
26.20
24.23
22.28
20.48
18.89
17.50
16.46
15.97
16.30
17.60
19.80
22.62
25.48
27.76
28.93
28.76
27.39
25.28
22.96
20.78
18.76
16.53
13.60
9.58
4.46
-1.40
-7.34
-12.79
-17.44
-21.42
-25.23
-29.54
-34.97
-41.83
-49.85
-58.13
-65.09
-68.82
-67.55
-60.22
-46.92
-28.99
-8.66
11.60
29.68
44.28
55.02
62.13
66.15
67.62
66.99
64.62
60.97
56.63
52.28
48.55
45.87
44.30
43.62
43.33
42.91
41.95
40.26
37.86
34.97
31.82
28.55
25.19
21.61
17.63
13.12
8.10
2.69
-2.89
-8.47
-14.01
-19.54
-25.13
-30.81
-36.61
-42.66
-49.22
-56.60
-64.89
-73.63
-81.61
-87.05
-88.15
-83.66
-73.42
-58.32
-40.00
-20.39
-1.19
16.30
31.14
42.75
50.83
55.46
57.17
56.76
55.19
53.23
51.38
49.88
48.82
48.30
48.37
49.07
50.23
51.47
52.28
52.17
50.86
48.31
44.66
40.10
34.71
28.44
21.12
12.68
3.16
-7.17
-17.97
-28.91
-39.72
-50.22
-60.26
-69.67
-78.39
-86.48
-94.08
-101.20
-107.48
-112.01
-113.55
-110.93
-103.56
-91.74
-76.64
-59.87
-43.02
-27.31
-13.49
-1.96
7.11
13.62
17.64
19.45
19.57
18.68
17.47
16.50
16.11
16.39
17.21
18.30
19.39
20.22
20.66
20.60
19.97
18.66
16.46
13.18
8.72
3.15
-3.26
-10.11
-17.02
-23.73
-30.17
-36.50
-43.02
-50.12
-58.02
-66.62
-75.27
-82.79
-87.64
-88.31
-83.86
-74.20
-60.12
-43.06
-24.56
-5.96
11.81
28.05
42.08
53.17
60.59
63.89
63.20
59.35
53.65
47.55
42.18
38.19
35.66
34.37
33.93
34.03
34.29
34.28
33.48
31.38
27.64
22.30
15.82
8.86
2.09
-4.19
-10.12
-16.32
-23.59
-32.60
-43.44
-55.40
-67.07
-76.49
-81.81
-81.71
-75.77
-64.62
-49.65
-32.70
-15.58
0.17
13.53
23.96
31.33
35.83
37.83
37.89
36.55
34.45
32.10
29.98
28.40
27.55
27.46
28.03
29.03
30.06
30.59
30.05
27.96
24.15
18.79
12.41
5.71
-0.65
-6.34
-11.38
-16.24
-21.58
-28.08
-36.16
-45.65
-55.68
-64.67
-70.60
-71.51
-66.14
-54.30
-37.15
-16.80
4.23
23.68
40.10
52.90
62.23
68.55
72.32
73.89
73.51
71.46
68.20
64.25
60.13
56.10
52.14
48.00
43.40
38.27
32.87
27.66
23.09
19.22
15.70
11.75
6.61
-0.11
-8.18
-16.80
-24.94
-31.81
-37.20
-41.53
-45.69
-50.67
-57.25
-65.73
-75.80
-86.51
-96.26
-103.05
-104.82
-100.06
-88.36
-70.70
-49.22
-26.60
-5.27
13.24
28.46
40.73
50.71
58.89
65.40
70.11
72.92
73.93
73.52
72.16
70.20
67.73
64.66
60.91
56.59
52.17
48.26
45.45
44.00
43.73
44.10
44.37
43.88
42.16
39.03
34.64
29.39
23.85
18.58
13.98
10.13
6.71
3.15
-1.16
-6.68
-13.56
-21.59
-30.33
-39.34
-48.26
-56.94
-65.46
-74.07
-83.12
-92.93
-103.56
-114.63
-125.10
-133.40
-137.62
-136.08
-127.85
-113.18
-93.49
-71.01
-48.18
-27.04
-8.88
5.75
16.91
24.94
30.28
33.42
34.93
35.54
36.03
37.08
39.11
42.06
45.44
48.62
51.05
52.51
53.16
53.41
53.61
53.86
53.97
53.56
52.31
50.06
46.91
43.09
38.83
34.35
29.80
25.38
21.27
17.58
14.26
11.07
7.63
3.66
-0.94
-5.96
-11.02
-15.82
-20.23
-24.50
-29.16
-34.86
-42.06
-50.79
-60.43
-69.63
-76.58
-79.38
-76.71
-68.15
-54.40
-37.03
-18.01
0.83
18.08
32.81
44.52
52.96
58.11
60.25
60.00
58.23
55.94
54.00
53.04
53.33
54.78
57.02
59.46
61.40
62.23
61.60
59.50
56.29
52.55
48.84
45.53
42.69
40.13
37.57
34.74
31.56
28.09
24.46
20.74
16.91
12.82
8.29
3.18
-2.49
-8.46
-14.33
-19.64
-24.09
-27.73
-31.00
-34.64
-39.46
-46.10
-54.71
-64.81
-75.24
-84.21
-89.72
-90.06
-84.32
-72.76
-56.89
-39.01
-21.55
-6.42
5.40
13.89
19.65
23.43
25.86
27.31
28.01
28.18
28.08
27.96
28.01
28.23
28.52
28.78
28.97
29.14
29.43
29.92
30.54
31.04
31.10
30.43
28.94
26.78
24.28
21.78
19.43
17.09
14.36
10.81
6.16
0.48
-5.80
-12.10
-17.90
-22.99
-27.50
-31.98
-37.08
-43.33
-50.85
-59.12
-66.97
-72.78
-74.91
-72.18
-64.22
-51.64
-35.75
-18.23
-0.62
15.94
30.80
43.63
54.27
62.61
68.59
72.26
73.90
73.92
72.89
71.41
70.00
69.01
68.55
68.43
68.27
67.56
65.89
63.09
59.21
54.50
49.22
43.53
37.40
30.70
23.19
14.61
4.84
-5.98
-17.44
-28.85
-39.46
-48.81
-56.88
-64.09
-70.98
-77.80
-84.15
-89.11
-91.50
-90.49
-85.88
-78.22
-68.52
-57.85
-47.06
-36.62
-26.72
-17.57
-9.47
-2.87
1.78
4.28
4.78
3.83
2.15
0.45
-0.81
-1.44
-1.45
-0.90
0.18
1.83
4.03
6.60
9.18
11.26
12.38
12.23
10.78
8.19
4.75
0.73
-3.70
-8.60
-14.19
-20.74
-28.45
-37.12
-46.05
-54.00
-59.46
-61.08
-58.06
-50.53
-39.43
-26.26
-12.61
0.21
11.44
20.77
28.18
33.77
37.64
39.94
40.88
40.79
40.06
39.05
38.04
37.10
36.20
35.20
33.92
32.15
29.72
26.53
22.60
18.13
13.48
9.07
5.21
2.01
-0.75
-3.54
-6.97
-11.66
-18.02
-26.02
-35.06
-43.91
-50.84
-54.08
-52.27
-45.00
-33.02
-18.00
-2.09
12.72
25.00
34.09
39.89
42.56
42.34
39.45
34.25
27.37
19.75
12.46
6.46
2.29
-0.03
-0.95
-1.13
-1.27
-1.92
-3.40
-5.92
-9.55
-14.26
-19.87
-26.02
-32.33
-38.45
-44.26
-49.85
-55.51
-61.61
-68.47
-76.15
-84.33
-92.08
-98.05
-100.67
-98.74
-91.85
-80.66
-66.70
-51.89
-37.90
-25.62
-15.23
-6.37
1.30
7.87
13.03
16.36
17.60
16.90
14.82
12.15
9.67
7.88
6.91
6.59
6.63
6.77
6.88
6.85
6.51
5.60
3.79
0.87
-3.06
-7.63
-12.24
-16.43
-20.03
-23.37
-27.16
-32.23
-39.12
-47.68
-56.93
-65.15
-70.39
-70.98
-66.16
-56.20
-42.32
-26.15
-9.27
7.11
22.14
35.30
46.17
54.40
59.82
62.54
62.99
61.82
59.72
57.25
54.83
52.67
50.88
49.52
48.59
48.01
47.63
47.14
46.14
44.23
41.07
36.56
30.83
24.23
17.19
10.13
3.32
-3.22
-9.68
-16.43
-23.92
-32.46
-41.97
-51.80
-60.69
-66.93
-68.84
-65.26
-55.98
-41.81
-24.40
-5.76
12.23
28.14
41.15
50.88
57.34
60.71
61.32
59.65
56.30
51.96
47.30
42.87
39.02
35.85
33.34
31.34
29.76
28.50
27.53
26.75
25.96
24.84
23.00
20.16
16.22
11.30
5.77
0.01
-5.64
-11.09
-16.45
-22.05
-28.37
-35.81
-44.46
-53.89
-62.99
-70.11
-73.45
-71.62
-64.13
-51.57
-35.46
-17.74
-0.29
15.50
28.76
39.06
46.29
50.57
52.29
52.09
50.75
49.01
47.40
46.15
45.26
44.66
44.32
44.27
44.50
44.89
45.19
45.12
44.49
43.28
41.57
39.47
37.01
34.15
30.76
26.67
21.59
15.15
6.97
-3.15
-14.98
-27.69
-39.83
-49.68
-55.61
-56.57
-52.39
-43.79
-32.11
-18.94
-5.67
6.75
17.78
27.21
34.93
40.84
44.88
47.10
47.75
47.27
46.12
44.73
43.36
42.19
41.35
40.88
40.71
40.60
40.14
38.86
36.38
32.58
27.51
21.48
14.86
8.07
1.52
-4.45
-9.65
-14.16
-18.38
-23.02
-28.84
-36.30
-45.16
-54.29
-61.86
-65.84
-64.69
-57.93
-46.35
-31.70
-16.13
-1.59
10.60
19.80
25.96
29.29
30.16
29.03
26.37
22.72
18.63
14.56
10.86
7.73
5.22
3.28
1.80
0.64
-0.37
-1.42
-2.80
-4.78
-7.60
-11.32
-15.84
-20.85
-26.04
-31.17
-36.24
-41.40
-46.97
-53.27
-60.52
-68.58
-76.83
-84.08
-88.74
-89.17
-84.25
-73.82
-58.82
-41.08
-22.77
-5.79
8.54
19.61
27.30
31.71
33.08
31.74
28.19
23.13
17.39
11.77
6.93
3.29
0.96
-0.18
-0.46
-0.31
-0.13
-0.25
-0.82
-1.88
-3.39
-5.29
-7.57
-10.14
-12.87
-15.62
-18.39
-21.40
-25.17
-30.35
-37.23
-45.42
-53.54
-59.55
-61.25
-57.16
-47.04
-32.07
-14.48
3.15
18.56
30.33
38.00
41.89
42.79
41.56
38.93
35.44
31.39
26.95
22.24
17.46
12.86
8.77
5.49
3.22
1.93
1.40
1.21
0.89
0.03
-1.69
-4.40
-8.07
-12.56
-17.59
-22.80
-27.92
-32.85
-37.84
-43.46
-50.20
-58.10
-66.32
-73.19
-76.61
-74.83
-67.06
-53.79
-36.63
-17.73
0.85
17.58
31.52
42.23
49.55
53.53
54.46
52.91
49.73
45.91
42.36
39.71
38.15
37.53
37.50
37.66
37.76
37.66
37.32
36.66
35.55
33.85
31.43
28.30
24.56
20.42
16.07
11.63
7.04
2.08
-3.65
-10.61
-19.05
-28.84
-39.17
-48.61
-55.43
-58.04
-55.62
-48.37
-37.52
-24.91
-12.41
-1.45
7.27
13.67
18.05
20.76
22.08
22.21
21.40
20.09
18.87
18.35
18.94
20.66
23.17
25.92
28.33
30.03
30.85
30.86
30.13
28.72
26.63
23.85
20.45
16.65
12.76
9.10
5.75
2.51
-1.20
-6.12
-12.75
-21.00
-29.88
-37.60
-42.06
-41.52
-35.29
-24.01
-9.44
6.16
20.74
32.94
42.17
48.41
51.91
52.87
51.47
47.89
42.52
35.99
29.06
22.51
16.95
12.64
9.40
6.69
3.83
0.25
-4.24
-9.43
-14.78
-19.76
-24.06
-27.78
-31.31
-35.17
-39.76
-45.34
-51.93
-59.35
-67.09
-74.33
-79.87
-82.41
-80.91
-75.01
-65.21
-52.73
-39.12
-25.76
-13.62
-3.15
5.45
12.03
16.41
18.45
18.27
16.37
13.59
10.86
8.96
8.27
8.78
10.10
11.72
13.18
14.20
14.70
14.78
14.59
14.25
13.76
12.91
11.42
8.93
5.20
0.12
-6.20
-13.33
-20.56
-26.81
-30.88
-31.69
-28.55
-21.50
-11.21
1.17
14.30
27.03
38.46
47.91
54.83
58.81
59.61
57.41
52.80
46.71
40.20
34.15
29.11
25.19
22.19
19.78
17.63
15.48
13.25
10.92
8.51
6.05
3.47
0.62
-2.83
-7.24
-13.04
-20.37
-28.97
-37.97
-45.95
-51.27
-52.52
-48.91
-40.53
-28.31
-13.67
1.76
16.54
29.54
40.01
47.52
51.92
53.32
52.11
48.89
44.44
39.55
34.90
30.90
27.58
24.68
21.76
18.40
14.37
9.76
4.84
-0.01
-4.54
-8.73
-12.77
-17.05
-22.04
-28.22
-35.94
-45.17
-55.34
-65.21
-73.01
-76.87
-75.43
-68.30
-56.31
-41.20
-25.08
-9.75
3.65
14.65
23.22
29.37
33.04
34.08
32.55
28.89
23.96
18.83
14.50
11.54
9.94
9.19
8.54
7.29
5.07
1.92
-1.81
-5.69
-9.44
-13.11
-17.05
-21.74
-27.59
-34.84
-43.45
-53.16
-63.44
-73.40
-81.79
-87.17
-88.11
-83.75
-74.03
-59.85
-42.80
-24.75
-7.37
8.11
20.98
30.96
38.09
42.60
44.92
45.61
45.26
44.48
43.75
43.31
43.23
43.37
43.50
43.48
43.24
42.88
42.49
42.01
41.20
39.64
36.99
33.18
28.48
23.45
18.67
14.48
10.81
7.31
3.51
-0.98
-6.22
-12.05
-18.12
-24.13
-29.92
-35.54
-41.24
-47.37
-54.41
-62.74
-72.46
-83.12
-93.57
-101.98
-106.27
-104.66
-96.34
-81.71
-62.32
-40.38
-18.09
2.84
21.36
36.99
49.57
59.00
65.29
68.65
69.56
68.80
67.30
65.89
65.08
64.94
65.19
65.41
65.21
64.45
63.20
61.68
60.10
58.55
56.91
54.92
52.24
48.63
44.03
38.67
32.97
27.41
22.33
17.79
13.50
9.03
3.98
-1.80
-8.07
-14.46
-20.54
-26.10
-31.23
-36.19
-41.31
-46.87
-53.11
-60.30
-68.64
-78.01
-87.66
-96.04
-101.06
-100.69
-93.68
-80.16
-61.62
-40.46
-19.15
0.35
16.95
30.33
40.64
48.12
53.03
55.62
56.25
55.44
53.83
52.04
50.57
49.69
49.38
49.44
49.58
49.56
49.28
48.73
47.97
47.01
45.81
44.21
41.99
39.00
35.19
30.68
25.74
20.72
15.91
11.45
7.33
3.37
-0.69
-5.09
-9.95
-15.30
-21.01
-26.90
-32.71
-38.24
-43.37
-48.13
-52.78
-57.71
-63.45
-70.44
-78.87
-88.40
-98.01
-106.01
-110.43
-109.54
-102.43
-89.39
-71.79
-51.76
-31.49
-12.76
3.34
16.39
26.37
33.47
37.92
40.05
40.33
39.42
38.08
36.96
36.45
36.59
37.10
37.62
37.87
37.82
37.61
37.54
37.76
38.17
38.40
37.94
36.35
33.49
29.58
25.18
20.91
17.16
13.94
10.82
7.17
2.53
-3.18
-9.56
-15.96
-21.77
-26.70
-30.89
-34.85
-39.21
-44.59
-51.43
-59.81
-69.38
-79.21
-87.80
-93.31
-94.03
-88.93
-78.01
-62.36
-43.79
-24.33
-5.66
11.03
25.06
36.10
43.97
48.70
50.56
50.20
48.44
46.19
44.15
42.73
41.96
41.68
41.68
41.81
42.06
42.45
42.99
43.54
43.77
43.33
41.89
39.34
35.83
31.72
27.42
23.21
19.17
15.15
10.90
6.15
0.85
-4.87
-10.74
-16.43
-21.69
-26.51
-31.11
-35.91
-41.50
-48.37
-56.63
-65.83
-74.74
-81.54
-84.23
-81.27
-72.11
-57.50
-39.28
-19.79
-1.22
14.93
28.03
38.05
45.24
49.83
51.97
51.86
49.92
46.82
43.41
40.43
38.33
37.17
36.71
36.59
36.57
36.54
36.46
36.31
35.93
35.12
33.69
31.54
28.71
25.29
21.37
16.97
12.04
6.57
0.64
-5.58
-11.83
-17.88
-23.60
-28.96
-34.13
-39.39
-45.18
-51.93
-59.92
-68.95
-78.16
-86.01
-90.54
-90.04
-83.56
-71.40
-54.99
-36.47
-18.04
-1.34
12.72
23.96
32.48
38.46
42.00
43.13
42.07
39.28
35.52
31.66
28.49
26.48
25.71
25.91
26.64
27.47
28.04
28.16
27.72
26.70
25.09
22.95
20.35
17.35
13.91
9.94
5.35
0.10
-5.62
-11.52
-17.27
-22.67
-27.74
-32.75
-38.06
-44.10
-51.18
-59.40
-68.45
-77.47
-85.06
-89.46
-89.03
-82.78
-70.79
-54.28
-35.19
-15.71
2.32
17.71
29.96
39.07
45.28
48.91
50.28
49.81
48.02
45.56
43.15
41.39
40.68
41.04
42.20
43.65
44.85
45.39
45.05
43.86
41.98
39.61
36.83
33.59
29.68
24.92
19.23
12.74
5.84
-1.06
-7.57
-13.60
-19.31
-25.00
-30.98
-37.45
-44.52
-52.26
-60.67
-69.46
-77.85
-84.44
-87.52
-85.44
-77.33
-63.48
-45.35
-25.14
-5.14
12.88
27.96
39.85
48.73
54.87
58.49
59.78
59.03
56.85
54.04
51.47
49.76
49.12
49.28
49.70
49.84
49.40
48.39
46.95
45.23
43.20
40.65
37.34
33.19
28.30
22.96
17.48
12.03
6.62
1.09
-4.70
-10.83
-17.19
-23.53
-29.52
-34.94
-39.75
-44.15
-48.62
-53.81
-60.35
-68.48
-77.72
-86.80
-93.74
-96.42
-93.27
-83.78
-68.73
-49.93
-29.64
-9.89
7.85
22.82
34.80
43.79
49.89
53.21
54.03
52.79
50.18
46.95
43.79
41.19
39.32
38.07
37.16
36.29
35.25
33.98
32.50
30.84
29.03
26.98
24.57
21.62
17.97
13.50
8.23
2.29
-3.97
-10.16
-15.93
-21.06
-25.56
-29.71
-33.88
-38.51
-43.99
-50.60
-58.31
-66.66
-74.60
-80.63
-83.06
-80.52
-72.48
-59.43
-42.82
-24.56
-6.53
9.85
23.74
34.80
42.91
48.09
50.43
50.25
48.11
44.83
41.30
38.24
36.09
34.91
34.44
34.25
33.96
33.32
32.33
31.11
29.77
28.28
26.39
23.71
19.86
14.68
8.38
1.47
-5.40
-11.69
-17.20
-22.10
-26.80
-31.93
-38.06
-45.61
-54.60
-64.42
-73.75
-80.77
-83.54
-80.69
-71.85
-57.82
-40.34
-21.50
-3.19
13.28
27.16
38.19
46.25
51.33
53.53
53.17
50.93
47.68
44.38
41.74
40.11
39.35
39.07
38.78
38.13
37.08
35.80
34.57
33.51
32.49
31.13
28.92
25.46
20.57
14.39
7.30
-0.21
-7.71
-14.88
-21.59
-27.91
-34.02
-40.27
-47.16
-55.14
-64.41
-74.55
-84.36
-91.92
-95.12
-92.27
-82.80
-67.44
-48.12
-27.23
-6.94
11.30
26.88
39.70
49.80
57.13
61.56
63.09
62.09
59.33
55.79
52.42
49.83
48.24
47.56
47.54
47.87
48.27
48.45
48.12
47.00
44.92
41.92
38.26
34.31
30.39
26.62
22.88
18.84
14.25
9.01
3.35
-2.24
-7.20
-11.18
-14.19
-16.76
-19.75
-24.17
-30.75
-39.61
-49.99
-60.26
-68.20
-71.59
-68.86
-59.61
-44.79
-26.40
-6.96
11.22
26.51
38.19
46.30
51.33
53.90
54.57
53.83
52.08
49.75
47.20
44.78
42.73
41.21
40.29
40.01
40.46
41.73
43.91
46.99
50.77
54.90
58.87
62.14
64.30
65.07
64.42
62.54
59.75
56.53
53.27
50.22
47.26
43.89
39.38
33.06
24.76
15.07
5.31
-2.84
-7.96
-9.41
-7.65
-4.03
-0.30
2.07
2.29
0.37
-3.10
-7.38
-11.93
-16.61
-21.68
-27.65
-35.11
-44.53
-56.06
-69.41
-83.80
-98.14
-111.26
-122.30
-130.86
-136.92
-140.72
-142.45
-142.17
-139.91
-135.80
-130.23
-123.80
-117.18
-110.94
-105.52
-101.24
-98.32
-96.71
-95.88
-94.67
-91.36
-84.12
-71.58
-53.38
-30.32
-4.16
22.93
48.93
72.34
92.31
108.48
120.81
129.36
134.26
135.74
134.21
130.28
124.72
118.40
112.00
105.93
100.27
94.76
88.99
82.52
75.02
66.29
56.34
45.35
33.61
21.50
9.31
-2.83
-15.00
-27.46
-40.55
-54.58
-69.64
-85.46
-101.15
-115.17
-125.42
-129.71
-126.32
-114.64
-95.38
-70.44
-42.45
-14.08
12.44
35.64
54.72
69.42
79.79
86.15
89.06
89.29
87.79
85.50
83.17
81.17
79.46
77.71
75.52
72.59
68.83
64.30
59.14
53.42
47.12
40.18
32.53
24.06
14.67
4.24
-7.30
-20.06
-34.06
-49.30
-65.77
-83.34
-101.77
-120.46
-138.37
-154.10
-166.01
-172.72
-173.40
-168.11
-157.82
-144.07
-128.58
-112.84
-97.83
-84.06
-71.75
-60.95
-51.66
-43.68
-36.61
-29.89
-22.94
-15.43
-7.39
0.81
8.65
15.70
21.74
26.78
30.91
34.12
36.23
36.92
35.90
33.15
28.96
23.90
18.61
13.54
8.81
4.22
-0.64
-6.30
-13.34
-22.29
-33.33
-46.04
-59.07
-70.19
-76.83
-76.92
-69.64
-55.75
-37.27
-16.72
3.68
22.38
38.51
51.54
61.06
66.78
68.73
67.54
64.32
60.39
56.80
54.00
51.79
49.52
46.49
42.25
36.84
30.59
24.01
17.55
11.44
5.70
0.19
-5.32
-11.03
-17.08
-23.48
-30.04
-36.44
-42.33
-47.45
-51.72
-55.32
-58.62
-62.14
-66.46
-71.98
-78.72
-85.90
-91.94
-94.52
-91.25
-80.41
-61.68
-36.35
-7.05
23.10
51.29
75.62
95.16
109.76
119.60
125.05
126.60
124.98
121.16
116.28
111.29
106.71
102.47
98.06
92.83
86.48
79.19
71.62
64.49
58.30
53.07
48.34
43.50
38.00
31.56
24.21
16.15
7.63
-1.08
-9.71
-18.00
-25.70
-32.66
-38.87
-44.48
-49.81
-55.35
-61.67
-69.28
-78.35
-88.31
-97.74
-104.58
-106.64
-102.41
-91.62
-75.41
-55.90
-35.55
-16.36
0.38
14.12
24.65
31.87
35.67
36.14
33.76
29.47
24.57
20.31
17.58
16.74
17.62
19.71
22.38
25.00
27.10
28.39
28.78
28.40
27.51
26.38
25.14
23.67
21.71
18.93
15.18
10.56
5.34
-0.10
-5.51
-10.76
-15.88
-20.97
-26.21
-31.91
-38.51
-46.42
-55.70
-65.62
-74.51
-79.95
-79.42
-71.17
-54.95
-32.20
-5.65
21.56
46.72
68.05
84.86
97.06
104.85
108.41
107.94
103.91
97.14
88.86
80.32
72.51
65.90
60.39
55.53
50.80
45.86
40.64
35.27
29.91
24.64
19.33
13.70
7.38
0.06
-8.38
-17.82
-27.96
-38.46
-49.21
-60.45
-72.74
-86.71
-102.45
-119.08
-134.52
-145.86
-150.22
-145.77
-132.42
-112.03
-87.72
-62.91
-40.38
-21.82
-7.98
0.99
5.22
5.20
1.93
-2.97
-7.83
-11.56
-14.40
-17.97
-24.53
-35.85
-52.25
-72.54
-94.80
-117.33
-138.79
-157.56
-170.77
-173.93
-161.86
-130.72
-80.14
-14.32
58.64
129.24
189.23
233.78
261.90
275.35
277.01
269.60
255.21
235.33
211.15
183.85
154.86
126.36
101.33
83.38
75.90
80.83
97.36
121.67
147.73
169.10
180.94
180.97
169.37
147.76
118.26
83.05
44.59
5.86
-29.84
-59.62
-81.99
-97.21
-107.14
-114.38
-121.17
-128.64
-136.73
-144.60
-151.19
-155.80
-158.23
-158.86
-158.43
-158.05
-158.97
-162.40
-168.99
-178.34
-188.64
-196.84
-199.37
-193.32
-177.52
-153.07
-123.04
-91.42
-61.77
-36.37
-15.93
-0.07
11.98
20.80
26.69
29.99
31.36
31.91
32.88
35.21
39.15
44.30
50.05
56.05
62.54
70.12
79.20
89.52
100.00
109.18
115.83
119.50
120.53
119.61
117.16
112.90
105.96
95.48
81.38
64.76
47.73
32.68
21.40
14.52
11.48
11.11
12.23
14.17
16.82
20.30
24.56
29.10
33.14
35.94
37.21
37.13
36.24
35.06
33.81
32.34
30.34
27.62
24.31
20.85
17.70
15.07
12.78
10.32
7.03
2.46
-3.42
-10.18
-17.02
-23.16
-28.04
-31.78
-35.17
-39.53
-46.20
-55.82
-67.84
-80.43
-91.11
-97.54
-98.46
-93.91
-85.08
-73.58
-60.84
-47.83
-35.13
-23.27
-12.84
-4.39
1.79
5.87
8.44
10.22
11.75
13.27
14.77
16.22
17.82
19.99
23.30
28.18
34.66
42.31
50.30
57.74
63.94
68.69
72.27
75.24
78.16
81.30
84.59
87.62
89.80
90.71
90.31
89.06
87.95
88.15
90.68
96.08
104.30
114.69
126.23
137.69
147.76
155.11
158.57
157.23
150.69
139.18
123.47
104.72
84.09
62.67
41.46
21.60
4.17
-9.96
-20.57
-28.31
-34.67
-41.11
-48.57
-56.99
-65.42
-73.01
-79.73
-86.69
-95.42
-106.84
-120.75
-136.04
-151.32
-165.44
-177.68
-187.56
-194.70
-198.89
-200.22
-198.99
-195.23
-188.21
-176.33
-157.90
-132.44
-102.00
-70.99
-44.88
-28.04
-22.08
-25.42
-34.24
-44.19
-51.49
-53.81
-50.41
-41.78
-29.32
-14.74
0.27
14.33
26.42
35.90
42.39
45.79
46.43
45.14
43.06
41.35
40.56
40.35
39.47
36.26
29.35
18.35
4.19
-11.02
-24.49
-33.51
-36.18
-31.95
-21.77
-7.74
7.54
21.92
34.32
44.79
54.03
62.56
70.14
75.71
77.96
76.17
70.76
63.21
55.38
48.66
43.46
39.29
35.42
31.56
28.06
25.70
24.97
25.65
26.68
26.59
24.15
18.73
10.40
-0.37
-13.06
-27.19
-42.09
-56.64
-69.10
-77.50
-80.17
-76.51
-67.18
-53.95
-39.05
-24.34
-10.96
0.68
10.56
18.52
24.19
27.10
27.10
24.61
20.60
16.23
12.35
9.28
6.81
4.48
2.01
-0.51
-2.73
-4.26
-5.01
-5.29
-5.73
-7.05
-9.83
-14.46
-21.07
-29.52
-39.19
-48.91
-56.97
-61.49
-60.97
-54.90
-43.90
-29.53
-13.69
2.01
16.53
29.35
40.11
48.42
53.75
55.76
54.59
50.99
46.12
41.21
37.03
33.75
30.95
27.96
24.25
19.72
14.74
9.87
5.61
2.07
-1.04
-4.32
-8.38
-13.71
-20.56
-28.90
-38.42
-48.36
-57.45
-64.01
-66.28
-63.04
-54.00
-40.10
-23.20
-5.54
10.95
25.04
36.31
44.84
50.85
54.49
55.78
54.79
51.80
47.43
42.53
37.95
34.27
31.60
29.62
27.71
25.30
22.08
18.12
13.74
9.31
5.01
0.67
-4.13
-9.91
-17.05
-25.71
-35.65
-46.28
-56.61
-65.30
-70.92
-72.10
-68.01
-58.57
-44.65
-27.83
-10.05
6.85
21.53
33.27
41.88
47.57
50.70
51.69
50.94
48.92
46.09
42.96
39.94
37.32
35.18
33.41
31.82
30.22
28.48
26.52
24.23
21.42
17.83
13.25
7.62
1.16
-5.73
-12.59
-19.13
-25.41
-31.87
-39.09
-47.53
-57.11
-67.00
-75.66
-81.20
-81.91
-76.84
-66.12
-50.93
-33.13
-14.76
2.49
17.52
29.82
39.27
45.95
49.97
51.55
51.05
49.04
46.28
43.51
41.26
39.71
38.68
37.82
36.76
35.32
33.54
31.63
29.75
27.89
25.86
23.32
19.91
15.43
9.88
3.50
-3.33
-10.21
-16.80
-22.97
-28.85
-34.79
-41.30
-48.84
-57.61
-67.27
-76.91
-85.11
-90.24
-90.98
-86.63
-77.37
-64.22
-48.72
-32.55
-17.13
-3.43
8.01
16.96
23.34
27.14
28.53
27.86
25.82
23.24
20.93
19.44
18.90
19.15
19.83
20.70
21.73
23.06
24.87
27.10
29.39
31.10
31.50
30.08
26.70
21.73
15.86
9.89
4.39
-0.52
-5.13
-10.01
-15.80
-22.92
-31.53
-41.38
-51.75
-61.47
-69.01
-72.82
-71.77
-65.55
-54.86
-41.19
-26.35
-11.93
0.98
11.88
20.61
27.19
31.61
33.93
34.31
33.15
30.98
28.42
25.98
24.00
22.57
21.64
21.01
20.50
19.95
19.24
18.21
16.69
14.47
11.43
7.59
3.13
-1.68
-6.68
-11.91
-17.70
-24.51
-32.65
-41.96
-51.59
-60.09
-65.79
-67.25
-63.81
-55.77
-44.30
-31.03
-17.62
-5.39
4.89
12.86
18.48
21.85
23.15
22.59
20.42
16.99
12.72
8.08
3.55
-0.44
-3.64
-5.98
-7.62
-8.85
-10.02
-11.45
-13.36
-15.81
-18.72
-21.86
-24.98
-27.89
-30.56
-33.23
-36.29
-40.13
-44.82
-49.90
-54.39
-56.96
-56.42
-52.08
-44.04
-33.11
-20.50
-7.49
4.88
15.92
25.21
32.46
37.45
40.06
40.34
38.58
35.28
31.13
26.81
22.89
19.67
17.15
15.06
13.01
10.65
7.86
4.75
1.57
-1.42
-4.15
-6.77
-9.57
-12.85
-16.75
-21.29
-26.41
-32.09
-38.39
-45.28
-52.37
-58.78
-63.15
-64.00
-60.28
-51.78
-39.33
-24.46
-8.92
5.88
19.16
30.63
40.26
47.96
53.56
56.85
57.89
57.06
55.00
52.38
49.69
47.18
44.86
42.68
40.63
38.68
36.74
34.61
32.03
28.71
24.51
19.50
13.89
8.00
2.06
-3.83
-9.76
-15.98
-22.85
-30.70
-39.64
-49.32
-58.78
-66.57
-71.07
-71.02
-65.92
-56.28
-43.39
-28.94
-14.50
-1.18
10.39
19.97
27.49
32.93
36.37
38.06
38.47
38.20
37.83
37.74
38.00
38.41
38.62
38.35
37.52
36.25
34.79
33.31
31.78
29.89
27.26
23.55
18.74
13.14
7.27
1.62
-3.57
-8.43
-13.42
-19.13
-25.99
-34.12
-43.12
-52.07
-59.62
-64.31
-64.91
-60.82
-52.23
-40.12
-25.94
-11.27
2.65
14.99
25.41
33.82
40.24
44.70
47.26
48.13
47.66
46.40
44.95
43.76
43.14
43.15
43.66
44.43
45.21
45.77
45.95
45.67
44.92
43.70
42.00
39.76
36.86
33.26
29.02
24.34
19.54
14.91
10.60
6.54
2.52
-1.67
-6.13
-10.84
-15.76
-20.94
-26.56
-32.77
-39.45
-45.93
-50.98
-53.02
-50.61
-42.93
-30.14
-13.35
5.59
24.65
41.99
56.40
67.39
75.16
80.41
84.00
86.71
89.00
90.88
91.77
90.26
84.10
70.59
47.54
14.68
-25.44
-67.54
-105.07
-132.46
-146.92
-149.04
-141.76
-128.69
-112.69
-95.54
-78.50
-63.04
-50.95
-43.67
-41.36
-42.61
-44.97
-46.21
-45.19
-42.12
-37.84
-32.91
-27.06
-19.34
-8.82
4.61
19.98
35.59
49.61
60.71
68.41
73.09
75.64
77.13
78.52
80.41
83.01
86.13
89.35
92.08
93.70
93.54
91.06
86.02
78.64
69.75
60.59
52.40
45.85
40.81
36.44
31.71
25.94
19.01
11.22
2.86
-6.12
-16.03
-27.20
-39.58
-52.67
-65.69
-77.78
-88.19
-96.25
-101.26
-102.54
-99.60
-92.50
-81.93
-69.20
-55.80
-43.04
-31.75
-22.24
-14.54
-8.54
-4.18
-1.35
0.14
0.62
0.52
0.23
-0.03
-0.20
-0.34
-0.48
-0.60
-0.59
-0.41
-0.16
-0.14
-0.67
-2.00
-4.11
-6.73
-9.51
-12.24
-15.02
-18.26
-22.50
-28.16
-35.16
-42.87
-50.05
-55.18
-56.86
-54.21
-47.14
-36.36
-23.17
-9.02
4.77
17.30
28.04
36.71
43.19
47.44
49.61
50.05
49.27
47.84
46.13
44.28
42.17
39.63
36.56
33.05
29.40
25.94
22.91
20.30
17.85
15.12
11.65
7.15
1.61
-4.64
-11.07
-17.15
-22.66
-27.77
-33.08
-39.30
-46.95
-56.01
-65.78
-74.91
-81.77
-84.87
-83.26
-76.80
-66.12
-52.49
-37.43
-22.41
-8.55
3.44
13.20
20.71
26.11
29.64
31.58
32.25
31.95
30.98
29.62
28.14
26.82
25.86
25.45
25.60
26.24
27.15
28.09
28.83
29.20
29.05
28.24
26.65
24.20
20.97
17.20
13.27
9.50
6.00
2.56
-1.29
-6.06
-11.98
-18.76
-25.54
-31.08
-34.13
-33.84
-29.98
-23.02
-13.88
-3.68
6.59
16.15
24.49
31.30
36.46
39.99
42.07
43.00
43.04
42.35
41.01
39.03
36.53
33.83
31.34
29.46
28.29
27.54
26.71
25.28
22.99
19.99
16.64
13.38
10.41
7.63
4.74
1.42
-2.53
-7.06
-12.00
-17.10
-22.18
-27.15
-31.99
-36.72
-41.43
-46.23
-51.33
-56.90
-63.07
-69.76
-76.48
-82.40
-86.40
-87.35
-84.41
-77.31
-66.45
-52.86
-37.89
-22.95
-9.18
2.64
12.13
19.24
24.16
27.25
28.97
29.81
30.19
30.46
30.79
31.18
31.52
31.61
31.27
30.41
29.07
27.42
25.63
23.85
22.01
19.93
17.27
13.76
9.28
3.96
-1.83
-7.69
-13.29
-18.51
-23.52
-28.66
-34.36
-40.92
-48.45
-56.63
-64.72
-71.59
-75.96
-76.74
-73.34
-65.85
-55.05
-42.14
-28.49
-15.29
-3.41
6.62
14.55
20.35
24.15
26.21
26.91
26.66
25.87
24.85
23.84
22.98
22.40
22.20
22.42
22.97
23.64
24.05
23.78
22.47
19.91
16.20
11.58
6.40
1.01
-4.40
-9.74
-14.99
-20.30
-25.89
-31.99
-38.78
-46.14
-53.46
-59.62
-63.26
-63.15
-58.68
-50.03
-38.20
-24.64
-10.80
2.22
13.71
23.34
30.95
36.38
39.59
40.66
39.99
38.21
36.05
34.13
32.77
31.96
31.46
30.95
30.19
29.10
27.75
26.28
24.73
23.03
20.90
17.97
13.95
8.77
2.68
-3.80
-10.04
-15.60
-20.43
-24.87
-29.61
-35.32
-42.48
-51.12
-60.71
-70.17
-78.00
-82.62
-82.75
-77.79
-68.06
-54.71
-39.30
-23.41
-8.25
5.47
17.39
27.33
35.16
40.84
44.45
46.29
46.84
46.67
46.25
45.91
45.77
45.84
45.98
46.07
46.04
45.79
45.27
44.34
42.83
40.54
37.37
33.40
28.91
24.23
19.61
15.05
10.30
5.06
-0.87
-7.44
-14.41
-21.42
-28.21
-34.69
-40.97
-47.35
-54.18
-61.81
-70.37
-79.61
-88.67
-96.10
-100.15
-99.27
-92.70
-80.79
-64.92
-47.01
-28.94
-12.03
3.14
16.48
28.10
37.98
45.96
51.88
55.74
57.77
58.44
58.25
57.64
56.94
56.37
56.12
56.31
57.00
58.12
59.42
60.55
61.15
60.94
59.84
57.90
55.28
52.11
48.46
44.33
39.71
34.69
29.47
24.28
19.26
14.36
9.31
3.78
-2.41
-9.13
-15.99
-22.48
-28.27
-33.29
-37.80
-42.17
-46.74
-51.71
-57.18
-63.17
-69.56
-75.96
-81.59
-85.34
-86.02
-82.79
-75.49
-64.75
-51.81
-38.02
-24.53
-11.99
-0.62
9.68
19.04
27.50
35.00
41.44
46.81
51.19
54.85
58.04
60.96
63.64
65.97
67.75
68.74
68.84
68.06
66.53
64.45
62.07
59.57
57.04
54.48
51.76
48.69
45.12
40.99
36.39
31.53
26.60
21.71
16.78
11.67
6.23
0.44
-5.57
-11.60
-17.43
-22.97
-28.29
-33.49
-38.78
-44.30
-50.23
-56.74
-63.94
-71.67
-79.35
-85.93
-90.15
-90.87
-87.46
-80.09
-69.56
-57.07
-43.77
-30.55
-17.96
-6.31
4.19
13.39
21.17
27.56
32.72
36.88
40.22
42.85
44.84
46.25
47.25
48.07
48.93
49.95
51.09
52.22
53.14
53.67
53.72
53.23
52.16
50.43
47.97
44.79
41.05
37.03
33.06
29.37
26.00
22.75
19.30
15.34
10.73
5.52
-0.09
-5.86
-11.64
-17.39
-23.09
-28.74
-34.27
-39.73
-45.29
-51.26
-57.97
-65.47
-73.31
-80.43
-85.38
-86.73
-83.60
-75.95
-64.62
-51.05
-36.76
-22.96
-10.32
0.92
10.80
19.33
26.46
32.09
36.22
39.04
40.83
41.96
42.69
43.20
43.54
43.79
44.04
44.36
44.81
45.32
45.73
45.83
45.45
44.47
42.86
40.67
37.97
34.86
31.43
27.80
24.07
20.35
16.71
13.17
9.61
5.84
1.65
-3.10
-8.35
-13.82
-19.14
-24.00
-28.35
-32.44
-36.71
-41.70
-47.74
-54.82
-62.55
-70.13
-76.43
-80.26
-80.58
-76.86
-69.19
-58.36
-45.60
-32.27
-19.45
-7.82
2.35
11.06
18.33
24.14
28.49
31.46
33.27
34.29
34.90
35.38
35.85
36.29
36.65
36.95
37.25
37.63
38.08
38.46
38.53
38.14
37.21
35.81
34.07
32.09
29.87
27.36
24.50
21.32
17.89
14.36
10.82
7.32
3.81
0.21
-3.61
-7.72
-12.16
-16.88
-21.72
-26.50
-31.05
-35.40
-39.73
-44.36
-49.59
-55.48
-61.74
-67.65
-72.18
-74.22
-72.92
-67.89
-59.40
-48.31
-35.78
-22.99
-10.81
0.25
10.01
18.42
25.49
31.22
35.63
38.93
41.38
43.29
44.88
46.19
47.15
47.65
47.64
47.19
46.40
45.35
44.09
42.54
40.67
38.46
35.98
33.30
30.39
27.16
23.47
19.17
14.33
9.16
3.97
-0.92
-5.38
-9.48
-13.40
-17.36
-21.42
-25.46
-29.26
-32.57
-35.34
-37.71
-39.97
-42.49
-45.50
-49.11
-53.29
-57.94
-62.79
-67.40
-71.05
-72.80
-71.74
-67.34
-59.71
-49.65
-38.35
-27.03
-16.51
-7.20
0.85
7.71
13.34
17.63
20.50
22.01
22.43
22.14
21.56
21.01
20.68
20.62
20.81
21.14
21.50
21.76
21.84
21.70
21.36
20.89
20.40
20.02
19.90
20.15
20.80
21.83
23.08
24.37
25.44
26.03
25.85
24.58
21.85
17.41
11.33
4.21
-2.80
-8.27
-10.93
-10.27
-6.69
-1.33
4.34
9.18
12.59
14.44
14.74
13.42
10.31
5.48
-0.60
-6.98
-12.57
-16.58
-18.81
-19.65
-19.76
-19.70
-19.64
-19.37
-18.57
-17.11
-15.26
-13.56
-12.60
-12.78
-14.12
-16.39
-19.22
-22.33
-25.61
-29.06
-32.76
-36.76
-41.15
-46.06
-51.62
-57.77
-64.13
-69.80
-73.58
-74.33
-71.28
-64.43
-54.50
-42.69
-30.36
-18.67
-8.43
-0.01
6.54
11.40
14.89
17.38
19.21
20.66
21.91
23.02
23.96
24.67
25.05
25.07
24.80
24.42
24.11
24.02
23.99
23.63
22.40
19.85
15.88
10.78
5.09
-0.66
-6.20
-11.60
-17.15
-23.17
-29.91
-37.44
-45.63
-54.13
-62.26
-69.02
-73.21
-73.76
-70.11
-62.46
-51.75
-39.41
-26.84
-15.07
-4.51
4.86
13.25
20.80
27.43
32.92
37.12
40.09
42.15
43.74
45.23
46.77
48.26
49.52
50.44
50.99
51.24
51.28
51.10
50.68
49.96
48.93
47.59
45.91
43.85
41.36
38.43
35.17
31.77
28.40
25.11
21.80
18.27
14.29
9.74
4.56
-1.14
-7.21
-13.45
-19.63
-25.59
-31.29
-36.83
-42.55
-48.87
-56.16
-64.52
-73.59
-82.50
-89.94
-94.45
-94.89
-90.65
-82.01
-69.98
-56.04
-41.65
-27.91
-15.43
-4.35
5.36
13.73
20.72
26.33
30.72
34.19
37.19
40.04
42.95
45.89
48.72
51.30
53.52
55.39
56.95
58.29
59.52
60.67
61.69
62.41
62.61
62.14
60.99
59.32
57.37
55.34
53.26
51.08
48.71
46.12
43.43
40.79
38.25
35.74
33.05
29.96
26.33
22.22
17.83
13.43
9.17
5.07
0.92
-3.50
-8.42
-13.91
-19.87
-26.08
-32.27
-38.23
-43.91
-49.52
-55.46
-62.35
-70.75
-80.91
-92.47
-104.37
-114.90
-122.18
-124.69
-121.71
-113.62
-101.69
-87.71
-73.44
-60.19
-48.62
-38.75
-30.24
-22.62
-15.66
-9.47
-4.43
-0.94
0.81
1.02
0.25
-0.84
-1.77
-2.34
-2.60
-2.66
-2.52
-1.91
-0.42
2.29
6.20
10.79
15.05
17.81
18.02
15.06
8.84
-0.28
-11.56
-24.01
-36.44
-47.54
-56.13
-61.44
-63.39
-62.55
-59.81
-55.74
-50.20
-42.57
-32.35
-20.01
-7.06
4.46
13.03
18.38
21.51
23.97
26.97
31.02
36.15
42.56
50.89
62.04
76.42
93.22
110.15
123.97
131.30
129.67
118.07
97.22
69.31
37.51
5.40
-23.82
-47.62
-64.40
-73.30
-74.08
-67.08
-53.45
-35.14
-14.76
5.18
22.85
37.51
49.29
58.61
65.66
70.26
72.18
71.45
68.72
64.90
60.80
56.71
52.24
46.65
39.34
30.20
19.74
8.93
-1.13
-9.50
-15.61
-19.29
-20.71
-20.26
-18.31
-15.28
-11.44
-7.12
-2.68
1.47
4.93
7.53
9.32
10.62
11.84
13.27
14.97
16.75
18.25
19.20
19.51
19.37
19.14
19.20
19.69
20.48
21.08
20.93
19.58
16.89
13.06
8.54
3.75
-1.02
-5.68
-10.31
-15.04
-20.00
-25.26
-30.94
-37.19
-44.25
-52.29
-61.18
-70.37
-78.85
-85.32
-88.57
-87.83
-83.03
-74.82
-64.27
-52.57
-40.69
-29.16
-18.24
-7.95
1.70
10.62
18.71
25.93
32.32
38.01
43.13
47.76
51.82
55.17
57.70
59.42
60.54
61.38
62.24
63.18
63.89
63.84
62.45
59.42
54.92
49.59
44.28
39.70
36.17
33.48
31.10
28.38
24.86
20.35
14.95
8.93
2.58
-3.81
-10.05
-16.02
-21.73
-27.30
-33.06
-39.45
-46.90
-55.63
-65.38
-75.26
-83.81
-89.31
-90.38
-86.36
-77.63
-65.44
-51.50
-37.40
-24.20
-12.37
-1.88
7.41
15.59
22.55
28.13
32.28
35.20
37.28
39.03
40.84
42.82
44.81
46.51
47.71
48.38
48.71
49.01
49.47
50.10
50.63
50.70
49.96
48.23
45.52
42.03
38.03
33.76
29.43
25.17
21.01
16.81
12.36
7.30
1.39
-5.42
-12.84
-20.27
-27.01
-32.54
-36.76
-40.10
-43.39
-47.60
-53.40
-60.98
-69.81
-78.71
-86.13
-90.50
-90.60
-85.90
-76.70
-64.12
-49.78
-35.38
-22.27
-11.09
-1.75
6.38
14.01
21.55
28.93
35.67
41.23
45.32
48.01
49.77
51.09
52.31
53.57
54.80
55.92
56.88
57.68
58.25
58.53
58.38
57.69
56.42
54.54
52.08
49.10
45.67
41.85
37.74
33.37
28.74
23.87
18.81
13.68
8.66
3.84
-0.78
-5.40
-10.23
-15.40
-20.86
-26.43
-31.92
-37.36
-42.99
-49.23
-56.46
-64.76
-73.77
-82.67
-90.28
-95.34
-96.80
-94.03
-86.98
-76.21
-62.76
-47.86
-32.78
-18.54
-5.82
5.06
14.06
21.30
26.97
31.29
34.49
36.83
38.62
40.13
41.59
43.08
44.57
46.02
47.41
48.75
50.05
51.22
52.06
52.36
51.98
50.91
49.26
47.16
44.59
41.45
37.65
33.23
28.49
23.83
19.60
15.95
12.75
9.72
6.58
3.15
-0.67
-4.86
-9.43
-14.31
-19.38
-24.47
-29.33
-33.86
-38.17
-42.59
-47.66
-53.85
-61.35
-69.87
-78.51
-85.85
-90.31
-90.58
-86.04
-76.98
-64.52
-50.24
-35.67
-21.96
-9.67
1.06
10.31
18.05
24.21
28.69
31.57
33.23
34.26
35.27
36.65
38.47
40.45
42.24
43.57
44.42
44.97
45.48
46.13
46.86
47.40
47.38
46.50
44.67
41.99
38.74
35.20
31.60
27.99
24.33
20.56
16.63
12.56
8.34
3.91
-0.84
-5.98
-11.49
-17.21
-22.86
-28.21
-33.16
-37.82
-42.45
-47.50
-53.32
-60.12
-67.75
-75.57
-82.50
-87.15
-88.21
-84.88
-77.16
-65.88
-52.41
-38.24
-24.62
-12.34
-1.73
7.12
14.29
19.84
23.90
26.63
28.29
29.21
29.72
30.11
30.56
31.13
31.81
32.60
33.55
34.75
36.28
38.06
39.78
40.93
40.94
39.45
36.46
32.47
28.17
24.26
21.10
18.55
16.07
12.95
8.68
3.17
-3.16
-9.66
-15.67
-20.90
-25.49
-29.98
-34.97
-40.90
-47.88
-55.68
-63.82
-71.69
-78.66
-84.03
-87.08
-87.12
-83.64
-76.50
-66.05
-53.19
-39.27
-25.79
-14.13
-5.13
1.05
4.79
6.67
6.96
5.50
1.87
-3.98
-11.12
-17.51
-20.72
-19.25
-13.12
-3.62
8.17
22.48
40.70
63.45
88.29
108.87
116.99
106.44
76.63
33.75
-11.63
-48.78
-70.64
-75.30
-64.83
-43.02
-13.72
19.31
51.91
79.43
97.72
104.83
102.04
93.68
85.59
82.99
88.48
100.92
115.42
124.60
121.20
100.92
64.70
18.91
-26.58
-61.95
-80.92
-82.50
-70.39
-50.71
-29.34
-10.20
4.94
15.63
21.80
23.30
20.21
13.40
4.72
-3.32
-8.44
-9.49
-6.95
-2.79
0.41
0.55
-3.05
-9.41
-16.48
-22.07
-24.94
-25.32
-24.70
-25.06
-27.89
-33.39
-40.23
-45.97
-47.85
-43.86
-33.59
-18.48
-1.29
14.87
27.75
36.79
42.95
47.79
52.19
55.33
54.82
47.87
33.04
11.55
-12.76
-34.86
-50.60
-58.37
-59.47
-57.18
-55.43
-57.84
-67.35
-85.98
-114.10
-149.35
-186.04
-215.96
-230.95
-226.21
-202.66
-166.87
-128.38
-95.78
-73.59
-61.33
-55.15
-50.43
-44.04
-35.06
-24.09
-11.97
1.05
15.30
30.91
47.06
61.71
72.21
76.38
73.75
65.94
56.18
48.00
43.81
44.02
47.31
51.44
54.49
55.65
55.22
54.03
52.76
51.41
49.38
45.94
40.67
33.72
25.75
17.53
9.55
1.76
-6.40
-15.70
-26.80
-39.77
-53.78
-67.19
-77.87
-83.79
-83.74
-77.66
-66.73
-52.95
-38.50
-25.17
-13.94
-4.95
2.20
8.09
13.13
17.48
21.12
24.05
26.50
28.88
31.58
34.80
38.40
41.97
45.11
47.63
49.60
51.21
52.49
53.20
52.94
51.40
48.58
44.84
40.71
36.60
32.62
28.57
24.19
19.34
14.16
9.01
4.25
0.12
-3.45
-6.77
-10.33
-14.55
-19.63
-25.31
-30.90
-35.33
-37.47
-36.45
-31.89
-24.12
-14.01
-2.80
8.27
18.22
26.47
32.89
37.69
41.20
43.73
45.45
46.39
46.53
45.88
44.58
42.87
41.01
39.27
37.81
36.73
36.05
35.75
35.72
35.80
35.64
34.86
33.05
29.98
25.70
20.53
14.98
9.50
4.35
-0.47
-5.14
-9.92
-14.96
-20.34
-26.05
-31.97
-37.91
-43.65
-49.01
-53.92
-58.58
-63.49
-69.28
-76.45
-85.04
-94.34
-102.87
-108.71
-110.01
-105.60
-95.45
-80.67
-63.17
-45.02
-27.91
-12.83
-0.05
10.53
19.13
25.93
31.05
34.69
37.14
38.78
39.94
40.83
41.55
42.10
42.51
42.85
43.23
43.71
44.28
44.76
44.88
44.36
43.01
40.83
37.99
34.69
31.09
27.18
22.85
17.97
12.51
6.63
0.65
-5.13
-10.51
-15.56
-20.61
-26.13
-32.59
-40.29
-49.27
-59.14
-69.08
-77.84
-83.91
-85.85
-82.68
-74.29
-61.53
-46.09
-29.92
-14.73
-1.50
9.54
18.70
26.39
32.78
37.84
41.47
43.76
45.14
46.19
47.47
49.23
51.34
53.45
55.20
56.42
57.16
57.60
57.97
58.34
58.64
58.70
58.27
57.14
55.13
52.21
48.48
44.20
39.73
35.34
31.11
26.79
22.02
16.44
9.94
2.82
-4.37
-11.01
-16.65
-21.22
-25.09
-28.82
-33.11
-38.52
-45.36
-53.58
-62.59
-71.27
-78.09
-81.37
-79.77
-72.65
-60.34
-44.04
-25.53
-6.70
10.87
26.14
38.69
48.54
56.02
61.50
65.22
67.24
67.51
65.98
62.86
58.71
54.33
50.45
47.45
45.23
43.27
40.97
38.02
34.49
30.79
27.41
24.62
22.39
20.46
18.45
16.09
13.25
9.94
6.27
2.47
-1.11
-4.09
-6.22
-7.61
-8.80
-10.70
-14.21
-19.76
-26.99
-34.83
-41.90
-47.30
-51.06
-54.26
-58.54
-65.37
-75.32
-87.80
-101.17
-113.18
-121.47
-124.11
-120.08
-109.86
-95.91
-82.58
-75.08
-77.45
-90.37
-110.08
-129.24
-139.73
-136.14
-118.07
-90.10
-59.49
-32.77
-13.21
-0.25
9.18
18.31
28.88
40.67
52.31
62.49
70.72
77.37
83.11
88.22
92.21
93.98
92.46
87.31
79.33
70.37
62.62
57.71
56.01
56.44
57.07
56.00
52.31
46.35
39.41
33.00
27.98
24.26
20.90
16.80
11.26
4.30
-3.37
-10.79
-17.15
-22.09
-25.68
-28.20
-29.94
-31.06
-31.63
-31.65
-31.16
-30.12
-28.37
-25.57
-21.36
-15.54
-8.26
-0.11
8.06
15.37
21.21
25.36
27.94
29.31
29.85
29.94
29.87
29.94
30.32
31.09
32.18
33.41
34.57
35.48
36.07
36.23
35.88
34.87
33.14
30.71
27.75
24.46
20.93
17.10
12.80
7.88
2.40
-3.36
-8.98
-14.12
-18.69
-22.88
-27.02
-31.41
-36.23
-41.54
-47.43
-54.02
-61.32
-68.99
-76.12
-81.28
-82.91
-79.85
-71.78
-59.45
-44.37
-28.34
-12.94
0.84
12.56
22.18
29.81
35.53
39.41
41.56
42.23
41.81
40.84
39.81
39.09
38.77
38.74
38.73
38.46
37.81
36.83
35.71
34.64
33.68
32.67
31.28
29.07
25.74
21.20
15.71
9.78
3.97
-1.31
-5.99
-10.32
-14.72
-19.68
-25.55
-32.51
-40.46
-48.99
-57.29
-64.16
-68.22
-68.27
-63.72
-54.81
-42.62
-28.70
-14.62
-1.56
9.80
19.20
26.57
31.86
35.00
36.04
35.28
33.26
30.71
28.28
26.39
25.12
24.32
23.69
23.03
22.32
21.65
21.17
20.94
20.77
20.31
19.11
16.85
13.41
8.99
3.97
-1.16
-6.02
-10.43
-14.41
-18.21
-22.23
-26.92
-32.65
-39.52
-47.12
-54.44
-60.08
-62.55
-60.85
-54.80
-45.08
-33.02
-20.10
-7.55
3.85
13.72
21.89
28.24
32.63
35.00
35.50
34.56
32.83
30.98
29.51
28.64
28.26
28.08
27.83
27.33
26.63
25.86
25.16
24.54
23.86
22.79
20.96
18.00
13.75
8.31
2.00
-4.66
-11.15
-17.16
-22.68
-27.98
-33.55
-39.85
-47.20
-55.59
-64.64
-73.47
-80.84
-85.28
-85.44
-80.56
-70.72
-56.92
-40.78
-24.06
-8.17
6.06
18.32
28.60
36.95
43.29
47.60
50.01
50.92
50.91
50.62
50.47
50.61
50.89
51.10
51.06
50.78
50.45
50.28
50.36
50.57
50.64
50.19
48.91
46.66
43.44
39.45
34.96
30.30
25.73
21.36
17.11
12.68
7.74
2.04
-4.37
-11.15
-17.81
-23.94
-29.35
-34.20
-38.89
-43.95
-49.82
-56.82
-64.88
-73.56
-81.84
-88.27
-91.19
-89.27
-81.93
-69.62
-53.71
-36.08
-18.51
-2.27
12.03
24.26
34.51
42.78
48.99
53.04
55.07
55.50
54.98
54.13
53.37
52.81
52.31
51.73
51.04
50.40
50.06
50.18
50.59
50.86
50.44
48.86
45.95
41.87
37.12
32.28
27.84
24.03
20.78
17.79
14.67
11.13
7.12
2.85
-1.30
-5.02
-8.24
-11.19
-14.29
-18.03
-22.65
-28.08
-33.97
-39.82
-45.18
-49.86
-53.99
-58.00
-62.56
-68.23
-75.26
-83.22
-90.96
-96.76
-98.81
-95.72
-87.00
-73.15
-55.63
-36.46
-17.81
-1.53
11.16
19.90
25.13
27.87
29.32
30.45
31.82
33.54
35.46
37.42
39.37
41.33
43.28
45.09
46.56
47.51
47.89
47.78
47.39
46.87
46.34
45.73
44.81
43.24
40.69
37.04
32.43
27.23
21.96
17.00
12.49
8.27
4.01
-0.63
-5.79
-11.42
-17.27
-23.03
-28.43
-33.39
-37.96
-42.38
-47.02
-52.31
-58.62
-66.14
-74.64
-83.32
-90.85
-95.59
-96.06
-91.34
-81.47
-67.39
-50.68
-33.12
-16.23
-1.09
11.69
21.86
29.42
34.52
37.47
38.64
38.45
37.32
35.65
33.83
32.23
31.21
30.95
31.42
32.37
33.42
34.14
34.25
33.61
32.20
30.09
27.36
24.09
20.38
16.30
11.95
7.37
2.60
-2.38
-7.55
-12.84
-18.16
-23.41
-28.55
-33.61
-38.72
-44.15
-50.16
-56.93
-64.29
-71.51
-77.32
-80.14
-78.61
-72.05
-60.87
-46.35
-30.32
-14.53
-0.21
12.03
22.04
29.83
35.44
38.84
40.15
39.68
38.02
35.90
34.00
32.73
32.22
32.26
32.52
32.68
32.59
32.31
31.99
31.76
31.47
30.77
29.15
26.21
21.83
16.28
10.10
3.88
-2.01
-7.49
-12.81
-18.34
-24.46
-31.43
-39.33
-48.02
-57.02
-65.43
-72.01
-75.33
-74.19
-68.04
-57.22
-42.92
-26.84
-10.69
4.12
16.81
27.07
34.93
40.56
44.11
45.78
45.81
44.61
42.70
40.63
38.92
37.83
37.40
37.43
37.59
37.57
37.10
36.10
34.58
32.72
30.65
28.46
26.08
23.24
19.64
15.10
9.64
3.54
-2.79
-9.02
-15.01
-20.83
-26.69
-32.80
-39.33
-46.47
-54.40
-63.14
-72.38
-81.26
-88.33
-91.91
-90.51
-83.45
-71.09
-54.83
-36.64
-18.50
-1.89
12.46
24.46
34.40
42.56
49.06
53.84
56.84
58.22
58.41
58.03
57.64
57.61
57.97
58.54
59.10
59.53
59.86
60.17
60.54
60.92
61.16
61.10
60.59
59.54
57.91
55.67
52.85
49.54
45.90
42.21
38.71
35.52
32.57
29.62
26.36
22.57
18.24
13.54
8.78
4.25
0.09
-3.70
-7.33
-11.12
-15.46
-20.69
-27.01
-34.36
-42.34
-50.16
-56.89
-61.77
-64.58
-65.83
-66.62
-68.22
-71.44
-76.16
-81.22
-84.79
-84.94
-80.45
-71.11
-57.81
-42.16
-25.93
-10.62
2.83
14.00
22.86
29.57
34.35
37.45
39.23
40.14
40.65
41.20
42.00
43.05
44.21
45.24
46.01
46.52
46.86
47.18
47.56
47.93
48.14
47.97
47.20
45.72
43.62
41.09
38.42
35.86
33.50
31.27
28.99
26.49
23.63
20.39
16.81
12.93
8.85
4.65
0.47
-3.55
-7.37
-11.03
-14.74
-18.74
-23.19
-28.07
-33.13
-38.05
-42.57
-46.68
-50.62
-54.86
-59.91
-66.09
-73.43
-81.49
-89.31
-95.49
-98.50
-97.01
-90.34
-78.76
-63.49
-46.34
-29.23
-13.64
-0.36
10.42
18.92
25.44
30.17
33.30
35.06
35.77
35.87
35.75
35.66
35.69
35.79
35.87
35.90
35.96
36.22
36.80
37.72
38.82
39.79
40.20
39.70
38.15
35.64
32.52
29.14
25.77
22.43
19.04
15.45
11.64
7.72
3.91
0.40
-2.76
-5.71
-8.72
-12.05
-15.87
-20.15
-24.69
-29.24
-33.58
-37.59
-41.37
-45.16
-49.29
-54.11
-59.86
-66.55
-73.79
-80.73
-86.10
-88.46
-86.57
-79.89
-68.71
-54.16
-37.87
-21.51
-6.41
6.66
17.35
25.68
31.76
35.81
38.13
39.11
39.20
38.92
38.61
38.51
38.64
38.90
39.17
39.39
39.61
39.92
40.36
40.89
41.30
41.33
40.75
39.53
37.76
35.67
33.45
31.18
28.80
26.15
23.09
19.54
15.61
11.48
7.38
3.49
-0.08
-3.43
-6.73
-10.20
-14.03
-18.26
-22.84
-27.61
-32.33
-36.76
-40.59
-43.61
-45.77
-47.36
-48.91
-50.99
-53.93
-57.46
-60.75
-62.55
-61.73
-57.65
-50.43
-40.79
-29.80
-18.48
-7.59
2.38
11.14
18.44
24.10
28.00
30.16
30.83
30.51
29.79
29.23
29.18
29.68
30.54
31.50
32.38
33.15
33.91
34.75
35.59
36.25
36.48
36.12
35.14
33.69
31.94
30.02
28.00
25.88
23.67
21.37
18.99
16.48
13.77
10.78
7.51
3.98
0.29
-3.51
-7.38
-11.36
-15.49
-19.80
-24.24
-28.75
-33.29
-37.93
-42.87
-48.43
-54.87
-62.26
-70.17
-77.68
-83.40
-85.88
-84.00
-77.37
-66.42
-52.37
-36.80
-21.30
-7.11
5.05
14.89
22.45
27.89
31.41
33.21
33.57
32.91
31.77
30.72
30.19
30.35
31.06
31.98
32.74
33.05
32.82
32.14
31.17
30.05
28.84
27.51
25.95
24.05
21.73
19.03
16.02
12.83
9.58
6.36
3.16
-0.06
-3.39
-6.93
-10.75
-14.91
-19.38
-24.08
-28.88
-33.61
-38.13
-42.41
-46.54
-50.79
-55.56
-61.26
-68.09
-75.78
-83.44
-89.63
-92.71
-91.38
-85.10
-74.32
-60.31
-44.74
-29.19
-14.80
-2.21
8.37
16.91
23.45
28.10
31.06
32.75
33.68
34.39
35.28
36.53
38.08
39.73
41.25
42.52
43.62
44.71
45.99
47.48
49.00
50.16
50.63
50.20
48.82
46.51
43.19
38.68
32.81
25.67
17.65
9.40
1.57
-5.47
-11.71
-17.35
-22.64
-27.64
-32.33
-36.76
-41.19
-46.13
-52.20
-59.66
-68.16
-76.69
-83.68
-87.46
-86.79
-81.25
-71.36
-58.37
-43.86
-29.27
-15.63
-3.54
6.72
14.99
21.17
25.23
27.30
27.70
26.94
25.54
23.94
22.42
21.11
20.00
19.08
18.45
18.24
18.62
19.62
21.09
22.55
23.44
23.16
21.39
18.15
13.78
8.81
3.79
-0.90
-5.09
-8.89
-12.58
-16.56
-21.24
-26.92
-33.60
-40.90
-47.97
-53.58
-56.42
-55.44
-50.27
-41.28
-29.62
-16.79
-4.30
6.77
15.82
22.76
27.76
31.06
32.92
33.56
33.23
32.18
30.70
29.04
27.37
25.82
24.46
23.40
22.75
22.56
22.78
23.15
23.18
22.44
20.59
17.68
14.13
10.54
7.45
5.05
3.06
0.87
-2.25
-6.88
-13.21
-20.93
-29.24
-36.85
-42.31
-44.29
-42.00
-35.51
-25.74
-14.17
-2.38
8.38
17.49
24.73
30.18
33.89
35.86
36.04
34.50
31.53
27.57
23.18
18.82
14.83
11.35
8.35
5.69
3.20
0.68
-1.98
-4.81
-7.82
-11.00
-14.38
-18.03
-22.11
-26.81
-32.38
-39.07
-46.95
-55.79
-64.82
-72.74
-77.94
-78.92
-74.79
-65.65
-52.60
-37.45
-22.08
-7.94
4.23
14.35
22.64
29.36
34.54
38.08
39.83
39.84
38.35
35.83
32.83
29.86
27.26
25.14
23.39
21.65
19.52
16.65
12.89
8.33
3.23
-2.09
-7.46
-12.86
-18.49
-24.65
-31.74
-40.08
-49.81
-60.69
-71.82
-81.71
-88.43
-90.16
-85.77
-75.26
-59.78
-41.32
-22.01
-3.66
12.67
26.52
37.89
46.89
53.67
58.41
61.36
62.90
63.41
63.18
62.39
61.13
59.55
57.84
56.32
55.23
54.64
54.38
54.12
53.46
52.14
50.10
47.41
44.26
40.71
36.81
32.45
27.54
22.06
16.06
9.68
3.07
-3.62
-10.27
-16.80
-23.19
-29.57
-36.28
-43.81
-52.57
-62.61
-73.18
-82.75
-89.22
-90.60
-85.69
-74.56
-58.53
-39.73
-20.40
-2.25
13.78
27.40
38.69
47.77
54.74
59.64
62.69
64.28
64.95
65.19
65.36
65.55
65.66
65.53
65.13
64.56
64.08
63.91
64.14
64.61
64.96
64.77
63.70
61.58
58.50
54.72
50.64
46.62
42.91
39.49
36.16
32.59
28.50
23.85
18.85
13.81
9.05
4.67
0.50
-3.82
-8.62
-14.14
-20.35
-26.99
-33.66
-39.93
-45.55
-50.50
-55.12
-60.05
-66.01
-73.60
-82.89
-93.15
-102.85
-109.91
-112.23
-108.39
-98.12
-82.41
-63.23
-42.91
-23.45
-6.16
8.35
20.01
28.98
35.49
39.79
42.32
43.63
44.38
45.14
46.25
47.79
49.64
51.54
53.28
54.72
55.82
56.62
57.14
57.42
57.41
57.05
56.24
54.90
52.98
50.53
47.67
44.53
41.22
37.77
34.12
30.17
25.87
21.24
16.41
11.58
6.91
2.52
-1.60
-5.54
-9.45
-13.50
-17.85
-22.58
-27.71
-33.08
-38.45
-43.58
-48.35
-52.92
-57.73
-63.38
-70.31
-78.45
-86.97
-94.32
-98.62
-98.22
-92.31
-81.21
-66.23
-49.23
-32.06
-16.11
-2.16
9.51
18.86
25.95
30.89
33.89
35.32
35.69
35.61
35.54
35.75
36.27
36.97
37.77
38.67
39.83
41.43
43.53
45.97
48.30
49.96
50.47
49.62
47.52
44.58
41.27
37.97
34.83
31.78
28.61
25.10
21.15
16.82
12.27
7.72
3.34
-0.84
-4.88
-8.93
-13.12
-17.61
-22.46
-27.60
-32.88
-38.08
-42.95
-47.40
-51.54
-55.72
-60.40
-65.96
-72.46
-79.41
-85.81
-90.28
-91.39
-88.05
-79.94
-67.57
-52.24
-35.66
-19.50
-4.99
7.26
17.22
25.19
31.49
36.34
39.83
42.00
42.97
43.05
42.64
42.11
41.69
41.40
41.11
40.70
40.14
39.54
39.02
38.57
38.03
37.08
35.41
32.90
29.64
25.88
21.87
17.74
13.52
9.16
4.70
0.25
-4.01
-7.95
-11.61
-15.09
-18.56
-22.14
-25.86
-29.66
-33.49
-37.28
-40.94
-44.38
-47.53
-50.41
-53.19
-56.22
-59.89
-64.40
-69.51
-74.43
-77.88
-78.46
-75.11
-67.53
-56.26
-42.60
-28.11
-14.26
-2.03
8.08
15.96
21.72
25.51
27.48
27.83
26.83
24.89
22.49
20.14
18.34
17.54
18.03
19.98
23.35
27.92
33.30
38.96
44.26
48.61
51.44
52.41
51.45
48.79
44.90
40.40
35.84
31.61
27.85
24.47
21.30
18.13
14.80
11.29
7.60
3.77
-0.17
-4.21
-8.32
-12.48
-16.64
-20.75
-24.78
-28.76
-32.87
-37.45
-42.93
-49.70
-57.86
-67.01
-76.15
-83.80
-88.32
-88.45
-83.63
-74.26
-61.55
-47.18
-32.78
-19.61
-8.36
0.73
7.73
12.82
16.19
18.09
18.86
18.93
18.77
18.75
19.04
19.63
20.46
21.49
22.80
24.56
26.88
29.69
32.68
35.38
37.29
38.09
37.62
35.95
33.27
29.83
25.88
21.65
17.31
12.96
8.58
4.06
-0.78
-6.01
-11.64
-17.48
-23.27
-28.80
-34.00
-38.99
-44.12
-49.76
-56.21
-63.45
-71.03
-77.98
-83.01
-84.73
-82.17
-75.04
-63.88
-49.95
-34.84
-20.06
-6.67
4.78
14.17
21.57
27.08
30.82
32.92
33.58
33.10
31.88
30.31
28.75
27.45
26.54
26.11
26.16
26.65
27.46
28.33
28.86
28.59
27.22
24.79
21.73
18.73
16.44
15.11
14.48
13.81
12.23
9.13
4.38
-1.63
-8.20
-14.61
-20.39
-25.44
-30.02
-34.58
-39.63
-45.49
-52.09
-58.86
-64.76
-68.51
-68.94
-65.36
-57.80
-47.04
-34.36
-21.16
-8.67
2.24
11.09
17.70
22.14
24.63
25.51
25.22
24.17
22.75
21.21
19.74
18.41
17.24
16.26
15.51
15.06
15.03
15.47
16.33
17.40
18.30
18.60
18.01
16.44
14.11
11.45
8.95
6.96
5.61
4.63
3.56
1.86
-0.81
-4.43
-8.68
-13.04
-17.13
-20.86
-24.57
-28.80
-34.24
-41.32
-50.14
-60.21
-70.45
-79.29
-85.00
-86.09
-81.78
-72.29
-58.70
-42.67
-26.00
-10.16
3.84
15.52
24.79
32.00
37.65
42.44
46.92
51.35
55.63
59.45
62.47
64.54
65.62
65.69
64.63
62.27
58.61
54.02
49.29
45.31
42.71
41.55
41.32
41.23
40.62
39.27
37.37
35.28
33.20
31.05
28.58
25.49
21.71
17.37
12.76
8.20
3.88
-0.13
-3.94
-7.77
-11.97
-16.88
-22.70
-29.41
-36.66
-43.98
-50.91
-57.28
-63.31
-69.58
-76.71
-85.06
-94.36
-103.62
-111.22
-115.36
-114.56
-108.12
-96.37
-80.53
-62.33
-43.53
-25.55
-9.23
5.00
17.06
27.00
34.98
41.18
45.86
49.38
52.08
54.33
56.39
58.47
60.60
62.72
64.70
66.36
67.58
68.32
68.65
68.63
68.25
67.32
65.55
62.75
58.89
54.25
49.36
44.77
40.85
37.64
34.89
32.17
29.14
25.64
21.74
17.64
13.60
9.75
6.11
2.54
-1.17
-5.30
-10.02
-15.31
-20.94
-26.53
-31.71
-36.35
-40.58
-44.87
-49.87
-56.20
-64.14
-73.43
-83.14
-91.72
-97.32
-98.32
-93.74
-83.64
-69.08
-51.82
-33.76
-16.49
-1.09
11.99
22.70
31.17
37.60
42.16
45.05
46.53
46.99
46.94
46.90
47.26
48.19
49.60
51.21
52.67
53.67
54.00
53.61
52.53
50.90
48.82
46.42
43.74
40.84
37.73
34.52
31.33
28.33
25.59
23.03
20.46
17.61
14.29
10.55
6.64
2.96
-0.16
-2.58
-4.46
-6.15
-8.08
-10.50
-13.41
-16.60
-19.81
-22.98
-26.32
-30.32
-35.48
-42.17
-50.48
-60.19
-70.75
-81.25
-90.43
-96.70
-98.52
-94.78
-85.28
-70.90
-53.43
-35.03
-17.61
-2.38
10.23
20.33
28.27
34.32
38.63
41.30
42.55
42.76
42.49
42.32
42.69
43.74
45.32
47.12
48.85
50.35
51.65
52.82
53.88
54.69
54.98
54.51
53.14
50.92
48.03
44.68
41.06
37.25
33.27
29.11
24.69
19.93
14.76
9.21
3.41
-2.38
-7.87
-12.83
-17.23
-21.20
-25.02
-29.07
-33.70
-39.21
-45.83
-53.50
-61.78
-69.73
-75.99
-79.02
-77.60
-71.23
-60.37
-46.35
-31.00
-16.04
-2.73
8.38
17.30
24.25
29.40
32.75
34.20
33.81
31.98
29.47
27.14
25.73
25.53
26.35
27.69
28.99
29.88
30.26
30.31
30.24
30.18
30.00
29.30
27.59
24.43
19.72
13.71
7.01
0.30
-5.88
-11.33
-16.27
-21.12
-26.39
-32.45
-39.45
-47.33
-55.73
-63.92
-70.82
-75.12
-75.56
-71.38
-62.67
-50.51
-36.69
-23.05
-10.90
-0.52
8.69
17.70
27.22
37.12
46.49
54.00
58.45
59.29
56.72
51.53
44.76
37.45
30.42
24.32
19.55
16.25
14.27
13.24
12.64
11.96
10.83
9.02
6.42
3.02
-1.11
-5.85
-11.03
-16.46
-21.99
-27.53
-33.09
-38.75
-44.58
-50.69
-57.16
-64.15
-71.76
-79.97
-88.31
-95.84
-101.18
-102.81
-99.61
-91.30
-78.55
-62.85
-45.98
-29.58
-14.71
-1.83
9.07
18.18
25.69
31.68
36.20
39.33
41.33
42.62
43.73
45.09
46.93
49.15
51.48
53.62
55.40
56.86
58.18
59.47
60.68
61.57
61.83
61.18
59.47
56.74
53.13
48.89
44.31
39.64
35.08
30.64
26.17
21.37
15.96
9.80
2.97
-4.18
-11.25
-17.85
-23.89
-29.49
-35.03
-41.04
-48.01
-56.29
-65.87
-76.22
-86.18
-94.12
-98.23
-97.09
-90.08
-77.61
-61.07
-42.32
-23.27
-5.43
10.26
23.41
33.99
42.20
48.34
52.77
55.87
58.07
59.79
61.48
63.42
65.65
67.87
69.52
70.06
69.26
67.32
64.79
62.21
59.84
57.40
54.36
50.26
45.08
39.35
33.89
29.39
26.06
23.54
21.14
18.19
14.42
10.03
5.56
1.52
-1.91
-4.93
-8.05
-11.77
-16.34
-21.68
-27.43
-33.18
-38.66
-43.80
-48.70
-53.58
-58.72
-64.42
-71.01
-78.63
-87.05
-95.39
-102.14
-105.47
-103.79
-96.31
-83.46
-66.74
-48.22
-29.98
-13.50
0.51
11.98
21.14
28.26
33.54
37.14
39.29
40.38
40.95
41.47
42.28
43.39
44.63
45.71
46.44
46.84
47.11
47.49
48.09
48.77
49.16
48.82
47.45
45.00
41.70
37.94
34.13
30.52
27.19
23.99
20.63
16.78
12.20
6.82
0.80
-5.51
-11.72
-17.50
-22.78
-27.78
-32.89
-38.62
-45.39
-53.30
-62.04
-70.71
-77.91
-82.01
-81.60
-75.94
-65.33
-51.05
-35.00
-19.14
-4.99
6.75
15.98
22.98
28.06
31.32
32.78
32.47
30.72
28.14
25.52
23.58
22.67
22.67
23.15
23.57
23.55
23.01
22.12
21.06
19.87
18.33
16.07
12.77
8.30
2.88
-3.06
-9.08
-14.78
-20.00
-24.77
-29.31
-33.85
-38.69
-44.12
-50.38
-57.56
-65.39
-73.12
-79.51
-83.09
-82.55
-77.20
-67.30
-53.95
-38.80
-23.54
-9.43
2.85
13.18
21.71
28.59
33.86
37.49
39.54
40.25
40.08
39.55
39.06
38.80
38.67
38.45
37.90
36.98
35.83
34.69
33.71
32.80
31.61
29.62
26.39
21.73
15.79
9.06
2.18
-4.33
-10.24
-15.66
-20.98
-26.77
-33.54
-41.57
-50.78
-60.54
-69.69
-76.65
-79.79
-77.92
-70.67
-58.70
-43.54
-27.04
-10.98
3.40
15.43
24.88
31.77
36.30
38.80
39.77
39.85
39.61
39.44
39.45
39.56
39.71
40.02
40.82
42.46
45.04
48.18
51.03
52.57
52.06
49.27
44.55
38.59
32.07
25.38
18.63
11.64
4.23
-3.83
-12.71
-22.65
-33.65
-45.33
-56.64
-65.89
-71.20
-71.04
-64.98
-53.76
-39.19
-23.49
-8.59
4.24
14.61
22.65
28.71
32.97
35.45
36.12
35.10
32.81
29.93
27.24
25.35
24.55
24.75
25.57
26.57
27.36
27.73
27.64
27.11
26.16
24.78
22.87
20.28
16.89
12.66
7.69
2.20
-3.51
-9.15
-14.51
-19.54
-24.41
-29.39
-34.83
-41.09
-48.44
-56.89
-66.09
-75.14
-82.63
-86.85
-86.30
-80.22
-68.95
-53.87
-37.03
-20.43
-5.52
7.09
17.47
25.98
32.97
38.55
42.72
45.48
47.06
47.80
48.14
48.43
48.85
49.44
50.19
51.08
52.04
52.97
53.72
54.04
53.78
52.87
51.39
49.57
47.60
45.59
43.55
41.43
39.21
36.99
34.91
33.09
31.56
30.23
28.90
27.42
25.67
23.66
21.46
19.19
17.02
15.14
13.77
13.03
13.00
13.60
14.50
15.14
14.84
12.80
8.49
1.73
-7.29
-18.06
-30.05
-42.81
-55.95
-68.92
-80.82
-90.33
-96.04
-96.84
-92.41
-83.44
-71.34
-57.83
-44.44
-32.16
-21.41
-12.24
-4.56
1.66
6.42
9.73
11.79
13.02
13.99
15.25
17.16
19.80
22.96
26.24
29.28
31.80
33.74
35.14
36.10
36.68
36.85
36.50
35.55
33.98
31.89
29.46
26.86
24.21
21.48
18.62
15.56
12.30
8.98
5.74
2.64
-0.40
-3.61
-7.27
-11.53
-16.33
-21.43
-26.46
-31.13
-35.36
-39.30
-43.32
-47.90
-53.50
-60.34
-68.27
-76.52
-83.76
-88.28
-88.53
-83.62
-73.68
-59.86
-43.92
-27.64
-12.41
0.97
12.18
21.08
27.58
31.64
33.41
33.33
32.10
30.51
29.19
28.52
28.71
29.80
31.82
34.74
38.36
42.31
46.11
49.16
50.93
51.03
49.25
45.64
40.44
34.15
27.38
20.67
14.35
8.45
2.74
-3.06
-9.09
-15.25
-21.23
-26.70
-31.49
-35.64
-39.49
-43.42
-47.90
-53.25
-59.62
-66.75
-73.89
-79.79
-82.88
-81.78
-75.77
-65.09
-50.97
-35.23
-19.73
-5.88
5.61
14.61
21.33
26.04
28.96
30.21
30.03
28.79
26.96
25.07
23.58
22.73
22.57
22.95
23.66
24.47
25.24
25.86
26.23
26.22
25.68
24.49
22.63
20.21
17.47
14.61
11.71
8.70
5.34
1.42
-3.12
-8.17
-13.39
-18.43
-23.10
-27.43
-31.66
-36.22
-41.53
-47.85
-55.09
-62.67
-69.47
-74.03
-74.92
-71.15
-62.57
-49.97
-34.81
-18.88
-3.78
9.43
20.21
28.51
34.52
38.48
40.65
41.35
40.95
39.87
38.58
37.42
36.62
36.22
36.11
36.17
36.27
36.39
36.56
36.82
37.13
37.33
37.18
36.39
34.73
32.12
28.65
24.57
20.25
16.01
12.04
8.29
4.52
0.40
-4.28
-9.51
-15.00
-20.36
-25.24
-29.50
-33.32
-37.11
-41.43
-46.78
-53.48
-61.40
-69.91
-77.83
-83.60
-85.67
-82.94
-75.12
-62.85
-47.49
-30.79
-14.40
0.40
12.84
22.56
29.62
34.29
37.03
38.37
38.86
38.86
38.61
38.19
37.69
37.28
37.19
37.62
38.63
40.08
41.66
43.08
44.11
44.58
44.36
43.36
41.66
39.65
38.04
37.67
39.03
42.02
45.76
48.91
50.06
48.27
43.18
35.04
24.46
12.28
-0.61
-13.24
-24.74
-34.47
-42.18
-48.09
-52.78
-57.04
-61.62
-67.16
-74.00
-82.03
-90.58
-98.31
-103.48
-104.38
-99.90
-90.00
-75.71
-58.90
-41.61
-25.54
-11.67
-0.33
8.63
15.51
20.53
23.86
25.62
26.07
25.59
24.68
23.84
23.45
23.67
24.45
25.57
26.81
28.00
29.14
30.26
31.42
32.58
33.54
33.95
33.48
31.87
29.11
25.44
21.27
17.06
13.12
9.52
6.13
2.65
-1.16
-5.37
-9.92
-14.62
-19.31
-23.88
-28.27
-32.52
-36.67
-40.86
-45.32
-50.35
-56.27
-63.14
-70.57
-77.59
-82.72
-84.38
-81.35
-73.26
-60.76
-45.33
-28.85
-13.03
0.98
12.70
22.15
29.56
35.08
38.75
40.59
40.78
39.76
38.18
36.74
35.99
36.09
36.89
38.02
39.13
40.02
40.75
41.49
42.42
43.46
44.37
44.71
44.10
42.39
39.69
36.38
32.89
29.59
26.59
23.74
20.67
16.97
12.37
6.88
0.77
-5.48
-11.42
-16.80
-21.58
-25.90
-29.98
-34.09
-38.54
-43.72
-49.97
-57.31
-65.11
-72.02
-76.24
-76.10
-70.79
-60.69
-47.21
-32.22
-17.36
-3.65
8.54
19.12
27.89
34.51
38.58
40.01
39.24
37.10
34.61
32.57
31.38
30.98
31.09
31.37
31.61
31.80
32.04
32.45
33.01
33.50
33.53
32.66
30.61
27.39
23.40
19.21
15.33
11.94
8.82
5.48
1.41
-3.64
-9.52
-15.84
-22.07
-27.78
-32.80
-37.22
-41.33
-45.58
-50.44
-56.36
-63.61
-72.06
-81.07
-89.35
-95.26
-97.15
-93.94
-85.44
-72.49
-56.68
-39.79
-23.37
-8.43
4.56
15.41
24.08
30.53
34.77
36.97
37.54
37.02
36.03
35.09
34.56
34.55
35.03
35.87
36.95
38.15
39.46
40.84
42.16
43.17
43.52
42.83
40.92
37.86
34.00
29.81
25.68
21.78
17.94
13.81
9.02
3.39
-2.98
-9.74
-16.40
-22.54
-27.98
-32.82
-37.50
-42.62
-48.77
-56.27
-64.98
-74.11
-82.33
-87.95
-89.38
-85.57
-76.34
-62.43
-45.40
-27.10
-9.31
6.65
20.06
30.67
38.58
44.05
47.38
48.90
49.00
48.12
46.72
45.22
43.94
43.10
42.74
42.77
42.99
43.20
43.27
43.15
42.90
42.56
42.11
41.43
40.29
38.49
35.93
32.66
28.90
24.94
21.04
17.35
13.80
10.20
6.26
1.77
-3.32
-8.85
-14.50
-19.95
-24.95
-29.49
-33.81
-38.30
-43.45
-49.73
-57.40
-66.33
-75.80
-84.41
-90.35
-91.80
-87.54
-77.40
-62.41
-44.51
-25.93
-8.54
6.51
18.83
28.52
35.80
40.81
43.62
44.41
43.64
42.06
40.49
39.58
39.59
40.40
41.60
42.80
43.79
44.55
45.22
45.94
46.74
47.50
47.98
47.88
46.95
45.00
41.93
37.80
32.81
27.44
22.33
18.19
15.51
14.35
14.15
13.91
12.51
9.12
3.52
-3.92
-12.45
-21.31
-30.04
-38.54
-47.07
-55.95
-65.38
-75.27
-85.08
-93.79
-100.07
-102.46
-99.89
-91.99
-79.30
-63.20
-45.51
-27.97
-11.95
1.79
12.93
21.46
27.48
31.22
33.05
33.48
33.13
32.60
32.33
32.56
33.37
34.70
36.47
38.60
40.96
43.37
45.57
47.26
48.14
48.06
46.97
45.02
42.42
39.41
36.14
32.68
29.04
25.23
21.31
17.36
13.52
9.80
6.12
2.29
-1.93
-6.70
-12.03
-17.79
-23.66
-29.30
-34.47
-39.08
-43.33
-47.59
-52.38
-58.24
-65.47
-73.91
-82.77
-90.63
-95.67
-96.19
-91.09
-80.35
-65.03
-47.02
-28.41
-11.01
4.05
16.36
25.98
33.24
38.39
41.64
43.23
43.49
42.97
42.34
42.21
42.94
44.55
46.73
49.00
50.92
52.18
52.74
52.68
52.25
51.74
51.43
51.53
52.04
52.67
52.85
51.93
49.38
45.03
39.08
32.10
24.78
17.76
11.44
5.95
1.23
-3.04
-7.24
-11.73
-16.74
-22.27
-28.05
-33.67
-38.79
-43.32
-47.54
-52.03
-57.40
-64.08
-72.04
-80.60
-88.46
-93.99
-95.54
-91.94
-82.80
-68.75
-51.30
-32.44
-14.18
2.00
15.30
25.58
33.12
38.30
41.43
42.79
42.70
41.63
40.15
38.90
38.29
38.50
39.37
40.56
41.65
42.42
42.85
43.09
43.32
43.56
43.54
42.79
40.86
37.50
32.87
27.45
21.85
16.52
11.60
6.88
1.96
-3.45
-9.44
-15.73
-21.87
-27.41
-32.13
-36.15
-39.92
-44.02
-49.03
-55.27
-62.69
-70.77
-78.62
-84.93
-88.29
-87.46
-81.73
-71.22
-56.92
-40.44
-23.52
-7.62
6.35
17.99
27.22
34.09
38.66
41.04
41.51
40.58
38.88
37.01
35.42
34.30
33.65
33.38
33.41
33.65
34.02
34.33
34.35
33.75
32.26
29.72
26.20
21.93
17.18
12.24
7.22
2.07
-3.35
-9.13
-15.25
-21.57
-27.86
-33.91
-39.63
-45.08
-50.51
-56.25
-62.74
-70.26
-78.78
-87.65
-95.54
-100.61
-101.05
-95.68
-84.50
-68.74
-50.46
-31.88
-14.78
-0.15
11.73
21.03
28.01
32.86
35.75
36.94
36.82
35.95
34.91
34.19
34.02
34.46
35.36
36.49
37.60
38.46
38.92
38.89
38.29
37.10
35.30
32.89
29.88
26.27
22.08
17.32
12.04
6.29
0.17
-6.18
-12.58
-18.79
-24.62
-30.03
-35.23
-40.72
-47.12
-54.97
-64.24
-74.20
-83.30
-89.54
-91.08
-86.79
-76.71
-61.96
-44.40
-26.02
-8.51
7.04
20.10
30.54
38.50
44.23
48.06
50.43
51.77
52.51
53.00
53.44
53.97
54.66
55.50
56.48
57.50
58.42
59.06
59.27
58.95
58.09
56.77
55.07
53.05
50.65
47.75
44.22
39.99
35.16
29.98
24.69
19.55
14.63
9.82
4.91
-0.34
-6.06
-12.19
-18.51
-24.72
-30.62
-36.16
-41.46
-46.81
-52.57
-59.11
-66.76
-75.60
-85.22
-94.54
-101.83
-105.05
-102.49
-93.45
-78.52
-59.52
-38.84
-18.75
-0.79
14.39
26.76
36.57
44.02
49.19
52.19
53.34
53.23
52.62
52.21
52.43
53.31
54.62
55.99
57.12
57.92
58.43
58.73
58.82
58.53
57.55
55.56
52.32
47.87
42.49
36.68
31.00
25.85
21.34
17.22
12.97
8.03
2.08
-4.86
-12.37
-19.86
-26.80
-32.91
-38.30
-43.35
-48.63
-54.65
-61.82
-70.23
-79.49
-88.57
-95.88
-99.48
-97.69
-89.63
-75.62
-57.17
-36.52
-15.98
2.67
18.43
31.06
40.77
47.87
52.59
55.16
55.85
55.10
53.53
51.79
50.44
49.76
49.75
50.18
50.71
51.04
50.97
50.46
49.46
47.95
45.81
42.93
39.23
34.75
29.63
24.01
18.03
11.73
5.11
-1.77
-8.80
-15.77
-22.48
-28.87
-35.13
-41.63
-48.90
-57.32
-66.95
-77.24
-86.96
-94.33
-97.45
-94.79
-85.79
-71.14
-52.57
-32.41
-12.89
4.38
18.67
29.94
38.52
44.71
48.74
50.76
51.06
50.14
48.69
47.33
46.47
46.23
46.46
46.91
47.44
47.96
48.43
48.71
48.49
47.36
44.97
41.23
36.35
30.78
25.00
19.32
13.77
8.10
2.02
-4.59
-11.65
-18.82
-25.73
-32.17
-38.20
-44.14
-50.46
-57.67
-66.10
-75.78
-86.13
-95.92
-103.32
-106.27
-103.16
-93.40
-77.74
-58.06
-36.84
-16.36
1.82
17.01
29.17
38.53
45.33
49.74
51.98
52.40
51.66
50.47
49.52
49.23
49.63
50.40
51.09
51.36
51.14
50.63
50.15
49.87
49.63
48.98
47.28
44.12
39.47
33.75
27.68
21.93
16.87
12.35
7.87
2.73
-3.56
-11.07
-19.34
-27.63
-35.22
-41.72
-47.25
-52.39
-57.95
-64.67
-73.04
-83.06
-94.14
-104.97
-113.69
-118.17
-116.58
-108.05
-93.01
-73.19
-51.11
-29.32
-9.73
6.78
20.19
31.04
39.93
47.31
53.40
58.28
62.06
64.89
67.04
68.77
70.29
71.73
73.10
74.42
75.70
77.04
78.47
79.98
81.36
82.21
82.06
80.54
77.47
73.01
67.54
61.57
55.54
49.65
43.91
38.17
32.28
26.22
20.07
13.94
7.85
1.70
-4.73
-11.61
-19.00
-26.73
-34.49
-41.98
-49.06
-55.92
-63.02
-71.04
-80.54
-91.67
-103.80
-115.43
-124.41
-128.47
-125.92
-116.18
-100.04
-79.37
-56.59
-34.00
-13.34
4.40
18.87
30.10
38.35
43.98
47.44
49.27
50.03
50.20
50.11
49.92
49.65
49.29
48.84
48.34
47.92
47.68
47.72
48.08
48.65
49.20
49.39
48.83
47.19
44.23
39.89
34.32
27.85
20.96
14.19
8.02
2.75
-1.64
-5.47
-9.22
-13.35
-18.11
-23.46
-29.13
-34.81
-40.23
-45.33
-50.19
-55.07
-60.41
-66.75
-74.57
-83.95
-94.25
-103.95
-110.85
-112.68
-107.83
-96.01
-78.32
-56.96
-34.50
-13.22
5.39
20.65
32.49
41.11
46.81
49.94
50.92
50.35
48.95
47.46
46.44
46.13
46.45
47.04
47.56
47.80
47.84
47.91
48.22
48.76
49.23
49.11
47.92
45.35
41.48
36.69
31.53
26.50
21.82
17.37
12.80
7.70
1.86
-4.70
-11.66
-18.63
-25.27
-31.47
-37.34
-43.22
-49.56
-56.82
-65.29
-74.87
-84.82
-93.69
-99.50
-100.32
-94.87
-83.15
-66.44
-47.03
-27.40
-9.57
5.32
17.02
25.78
32.00
35.93
37.71
37.48
35.64
32.82
29.78
27.21
25.48
24.61
24.27
24.04
23.55
22.68
21.56
20.45
19.52
18.71
17.63
15.76
12.63
8.09
2.43
-3.79
-9.92
-15.54
-20.58
-25.32
-30.22
-35.75
-42.28
-49.95
-58.65
-67.88
-76.65
-83.51
-86.79
-85.03
-77.52
-64.58
-47.58
-28.60
-9.80
7.09
20.99
31.56
38.87
43.22
44.91
44.31
41.90
38.37
34.48
30.96
28.27
26.55
25.59
25.00
24.49
23.85
23.09
22.28
21.39
20.23
18.44
15.59
11.38
5.80
-0.86
-8.03
-15.09
-21.62
-27.59
-33.47
-40.02
-48.00
-57.79
-68.98
-80.31
-89.78
-95.22
-94.88
-87.96
-74.96
-57.47
-37.66
-17.78
0.45
15.98
28.41
37.72
44.06
47.61
48.65
47.64
45.21
42.14
39.14
36.72
35.04
34.01
33.31
32.68
31.97
31.19
30.42
29.63
28.60
26.87
23.98
19.63
13.89
7.13
-0.05
-7.13
-13.84
-20.22
-26.62
-33.53
-41.53
-50.98
-61.87
-73.51
-84.43
-92.55
-95.65
-92.11
-81.55
-65.06
-44.86
-23.58
-3.50
14.03
28.56
40.23
49.33
56.00
60.27
62.25
62.35
61.24
59.76
58.56
57.95
57.85
57.91
57.79
57.33
56.64
55.97
55.58
55.49
55.46
55.07
53.82
51.34
47.56
42.60
36.86
30.79
24.86
19.29
14.11
9.00
3.54
-2.64
-9.65
-17.23
-24.89
-32.11
-38.56
-44.28
-49.63
-55.19
-61.61
-69.48
-79.08
-90.14
-101.62
-111.64
-117.83
-117.98
-110.84
-96.54
-76.75
-54.02
-31.05
-9.95
8.10
22.77
34.20
42.68
48.50
51.96
53.55
53.95
53.87
53.90
54.29
54.99
55.75
56.40
56.96
57.62
58.61
59.99
61.54
62.83
63.37
62.79
60.95
57.98
54.22
50.09
45.94
42.02
38.38
34.91
31.34
27.40
22.91
17.86
12.46
7.08
2.05
-2.47
-6.64
-10.88
-15.73
-21.60
-28.52
-36.09
-43.67
-50.65
-56.73
-62.12
-67.50
-73.75
-81.63
-91.35
-102.29
-112.89
-120.89
-123.89
-120.04
-108.80
-91.04
-68.91
-45.09
-22.05
-1.54
15.61
29.26
39.59
46.87
51.39
53.56
53.99
53.46
52.75
52.47
52.86
53.83
55.09
56.33
57.44
58.49
59.67
61.09
62.65
63.99
64.65
64.24
62.61
59.89
56.43
52.64
48.85
45.20
41.70
38.20
34.54
30.56
26.25
21.68
17.10
12.74
8.78
5.20
1.72
-2.03
-6.44
-11.70
-17.68
-23.99
-30.09
-35.54
-40.17
-44.24
-48.40
-53.45
-60.14
-68.80
-79.19
-90.25
-100.25
-107.05
-108.63
-103.66
-91.91
-74.36
-53.00
-30.21
-8.18
11.49
27.95
40.96
50.66
57.34
61.39
63.26
63.48
62.61
61.18
59.57
58.02
56.60
55.31
54.13
53.09
52.27
51.75
51.52
51.44
51.26
50.60
49.18
46.84
43.62
39.69
35.34
30.80
26.22
21.68
17.14
12.57
7.90
3.17
-1.62
-6.40
-11.14
-15.89
-20.72
-25.72
-30.87
-36.03
-40.97
-45.46
-49.38
-52.80
-56.00
-59.40
-63.52
-68.76
-75.21
-82.45
-89.40
-94.45
-95.92
-92.53
-83.93
-70.87
-54.95
-38.08
-21.91
-7.50
4.72
14.70
22.48
28.07
31.49
32.89
32.67
31.45
29.84
28.36
27.31
26.79
26.80
27.31
28.27
29.58
31.11
32.62
33.86
34.59
34.63
33.86
32.19
29.59
26.10
21.85
17.03
11.93
6.84
1.98
-2.60
-6.98
-11.43
-16.19
-21.39
-26.97
-32.61
-37.96
-42.71
-46.82
-50.52
-54.28
-58.65
-64.15
-71.03
-79.17
-87.83
-95.66
-100.89
-101.75
-97.06
-86.64
-71.43
-53.25
-34.19
-16.13
-0.33
12.57
22.42
29.36
33.62
35.53
35.49
34.07
31.88
29.58
27.73
26.70
26.55
27.10
27.93
28.61
28.90
28.78
28.43
28.09
27.81
27.46
26.70
25.24
22.90
19.76
16.08
12.14
8.09
3.89
-0.64
-5.72
-11.45
-17.79
-24.48
-31.17
-37.52
-43.30
-48.50
-53.34
-58.28
-63.91
-70.76
-79.04
-88.32
-97.39
-104.37
-107.19
-104.19
-94.73
-79.45
-60.08
-38.94
-18.20
0.52
16.42
29.29
39.23
46.45
51.17
53.64
54.24
53.52
52.10
50.62
49.55
49.14
49.43
50.28
51.49
52.87
54.31
55.72
57.02
58.06
58.53
58.10
56.37
53.14
48.50
42.88
36.93
31.32
26.46
22.29
18.31
13.85
8.34
1.63
-5.97
-13.83
-21.28
-27.86
-33.53
-38.56
-43.47
-48.86
-55.26
-62.97
-71.85
-81.17
-89.54
-95.12
-96.05
-91.08
-80.00
-63.77
-44.33
-23.94
-4.64
12.21
25.93
36.44
43.92
48.66
50.97
51.25
50.05
47.99
45.75
43.89
42.77
42.51
43.06
44.23
45.80
47.60
49.50
51.36
52.96
53.97
54.00
52.78
50.24
46.64
42.47
38.22
34.21
30.41
26.52
22.11
16.89
10.83
4.19
-2.61
-9.16
-15.27
-20.98
-26.64
-32.75
-39.93
-48.60
-58.74
-69.65
-79.90
-87.57
-90.77
-88.31
-80.08
-67.16
-51.46
-35.07
-19.73
-6.49
4.24
12.47
18.33
21.98
23.58
23.45
22.12
20.28
18.65
17.74
17.75
18.56
19.86
21.35
22.86
24.43
26.13
27.98
29.73
30.99
31.25
30.21
27.85
24.49
20.58
16.56
12.62
8.68
4.43
-0.45
-6.17
-12.69
-19.72
-26.84
-33.62
-39.81
-45.36
-50.53
-55.76
-61.66
-68.74
-77.24
-86.77
-96.14
-103.42
-106.38
-103.14
-92.85
-76.10
-54.77
-31.49
-8.79
11.45
28.32
41.70
51.82
58.97
63.33
65.08
64.57
62.47
59.70
57.25
55.90
56.01
57.47
59.78
62.31
64.58
66.37
67.75
68.88
69.90
70.94
72.10
73.50
75.29
77.38
79.39
80.57
80.00
76.96
71.21
63.08
53.30
42.65
31.71
20.69
9.67
-1.26
-11.85
-21.71
-30.52
-38.15
-44.83
-51.13
-57.85
-65.76
-75.37
-86.55
-98.40
-109.19
-116.73
-118.95
-114.50
-103.24
-86.30
-65.69
-43.72
-22.45
-3.30
12.99
26.15
36.24
43.47
48.18
50.88
52.25
52.99
53.75
54.87
56.45
58.35
60.33
62.24
64.08
65.97
67.97
70.01
71.74
72.69
72.42
70.78
67.89
64.17
60.06
55.90
51.77
47.53
42.97
38.00
32.65
27.06
21.40
15.76
10.17
4.55
-1.17
-7.08
-13.26
-19.75
-26.55
-33.52
-40.46
-47.12
-53.34
-59.18
-64.97
-71.30
-78.85
-88.03
-98.58
-109.38
-118.48
-123.54
-122.62
-114.85
-100.78
-82.28
-61.86
-41.92
-24.13
-9.28
2.57
11.63
18.16
22.37
24.48
24.91
24.27
23.27
22.55
22.45
23.02
24.04
25.24
26.41
27.53
28.71
30.06
31.56
33.04
34.11
34.40
33.63
31.72
28.81
25.15
21.02
16.66
12.25
7.89
3.59
-0.74
-5.25
-10.12
-15.48
-21.26
-27.24
-33.08
-38.44
-43.21
-47.46
-51.58
-56.13
-61.68
-68.65
-76.99
-86.03
-94.35
-100.07
-101.26
-96.60
-85.81
-69.88
-50.70
-30.52
-11.31
5.59
19.56
30.45
38.40
43.67
46.58
47.56
47.13
45.80
43.98
41.97
40.09
38.75
38.53
39.94
43.17
47.82
52.97
57.37
59.90
59.93
57.45
52.90
46.93
40.06
32.65
24.88
16.91
8.97
1.29
-5.95
-12.67
-18.95
-24.94
-30.84
-36.82
-43.07
-49.82
-57.30
-65.60
-74.43
-82.96
-89.75
-93.09
-91.45
-84.09
-71.35
-54.58
-35.84
-17.17
-0.22
14.08
25.39
33.72
39.21
42.02
42.41
40.90
38.19
35.16
32.54
30.82
30.13
30.32
31.09
32.20
33.46
34.71
35.76
36.32
36.07
34.75
32.33
28.98
25.00
20.67
16.06
11.09
5.55
-0.71
-7.63
-14.95
-22.31
-29.37
-35.99
-42.24
-48.43
-55.01
-62.47
-71.14
-80.97
-91.30
-100.68
-107.10
-108.48
-103.35
-91.41
-73.73
-52.48
-30.21
-9.18
9.14
24.18
36.00
44.96
51.44
55.71
58.04
58.78
58.42
57.58
56.81
56.53
56.88
57.77
58.97
60.20
61.29
62.14
62.70
62.92
62.62
61.54
59.42
56.11
51.63
46.24
40.36
34.47
28.96
24.00
19.44
14.93
9.98
4.27
-2.27
-9.35
-16.41
-22.89
-28.43
-33.09
-37.32
-41.84
-47.43
-54.61
-63.43
-73.26
-82.77
-90.07
-93.17
-90.49
-81.43
-66.67
-48.02
-27.92
-8.72
7.93
21.30
31.47
38.90
44.08
47.34
48.87
48.94
47.95
46.45
44.99
43.96
43.45
43.32
43.36
43.41
43.55
43.93
44.74
45.91
47.12
47.83
47.58
46.11
43.51
40.13
36.42
32.72
29.15
25.61
21.89
17.83
13.41
8.75
4.07
-0.49
-4.92
-9.40
-14.21
-19.59
-25.58
-31.98
-38.46
-44.61
-50.26
-55.46
-60.56
-66.11
-72.75
-81.02
-91.05
-102.30
-113.35
-122.10
-126.23
-123.95
-114.67
-99.26
-79.81
-58.93
-38.97
-21.43
-6.87
4.85
14.14
21.31
26.52
29.91
31.71
32.41
32.61
32.90
33.67
35.00
36.79
38.86
41.11
43.54
46.16
48.86
51.39
53.41
54.58
54.69
53.71
51.72
48.84
45.22
41.00
36.38
31.61
26.97
22.61
18.51
14.45
10.10
5.15
-0.52
-6.77
-13.25
-19.53
-25.30
-30.48
-35.24
-39.94
-45.01
-50.83
-57.71
-65.78
-74.80
-83.97
-91.88
-96.56
-96.07
-89.04
-75.22
-55.63
-32.26
-7.47
16.60
38.35
56.80
71.38
81.81
88.05
90.37
89.41
86.14
81.67
76.97
72.69
69.08
66.03
63.32
60.75
58.25
55.92
53.87
52.12
50.51
48.71
46.30
42.95
38.56
33.24
27.32
21.20
15.24
9.64
4.37
-0.84
-6.36
-12.52
-19.43
-26.83
-34.21
-40.96
-46.67
-51.36
-55.48
-59.79
-65.08
-71.85
-80.11
-89.17
-97.67
-103.80
-105.66
-101.84
-91.86
-76.43
-57.32
-36.77
-16.94
0.67
15.32
26.93
35.68
41.81
45.48
46.88
46.42
44.73
42.62
40.79
39.69
39.44
39.87
40.70
41.67
42.64
43.57
44.44
45.17
45.62
45.57
44.79
43.06
40.26
36.40
31.65
26.36
20.97
15.86
11.18
6.82
2.43
-2.43
-8.02
-14.34
-21.05
-27.65
-33.69
-38.97
-43.65
-48.19
-53.19
-59.23
-66.70
-75.48
-84.86
-93.45
-99.34
-100.63
-95.97
-85.11
-69.04
-49.68
-29.29
-9.90
7.17
21.26
32.23
40.16
45.29
47.95
48.68
48.20
47.25
46.48
46.27
46.67
47.51
48.52
49.52
50.50
51.61
53.10
55.07
57.36
59.55
61.14
61.68
61.02
59.31
56.89
54.13
51.30
48.55
45.87
43.10
39.88
35.66
29.85
22.04
12.28
1.21
-10.14
-20.72
-29.82
-37.31
-43.54
-49.05
-54.29
-59.49
-64.75
-70.29
-76.52
-83.97
-92.91
-102.91
-112.62
-119.90
-122.39
-118.35
-107.23
-89.97
-68.71
-46.13
-24.62
-5.81
9.66
21.88
31.26
38.20
43.00
45.84
47.00
46.92
46.22
45.54
45.37
45.91
47.06
48.55
50.04
51.36
52.47
53.37
53.99
54.20
53.75
52.46
50.28
47.28
43.62
39.44
34.80
29.76
24.46
19.05
13.75
8.66
3.75
-1.19
-6.42
-12.16
-18.42
-25.02
-31.62
-37.88
-43.62
-48.84
-53.79
-58.87
-64.51
-71.14
-78.99
-87.88
-97.04
-105.01
-109.86
-109.67
-103.24
-90.51
-72.70
-51.98
-30.78
-11.12
5.72
19.25
29.47
36.57
40.80
42.48
42.07
40.25
37.77
35.38
33.63
32.79
32.85
33.59
34.71
36.00
37.39
38.93
40.60
42.23
43.47
43.88
43.10
41.07
38.03
34.45
30.80
27.29
23.77
19.83
15.01
9.05
2.05
-5.54
-13.09
-20.06
-26.17
-31.55
-36.73
-42.46
-49.45
-58.01
-67.81
-77.71
-85.96
-90.56
-89.91
-83.30
-71.15
-54.91
-36.60
-18.22
-1.38
12.92
24.22
32.43
37.67
40.20
40.41
38.81
35.99
32.59
29.19
26.31
24.36
23.56
23.95
25.26
27.04
28.73
29.86
30.21
29.82
28.89
27.63
26.09
24.08
21.31
17.47
12.50
6.58
0.15
-6.27
-12.29
-17.82
-23.04
-28.40
-34.40
-41.42
-49.62
-58.74
-68.03
-76.26
-81.82
-83.08
-78.83
-68.72
-53.45
-34.66
-14.51
4.91
21.99
35.82
46.14
53.15
57.28
59.02
58.87
57.28
54.71
51.61
48.44
45.62
43.45
42.07
41.42
41.29
41.48
41.73
41.83
41.57
40.71
38.99
36.29
32.61
28.12
23.08
17.68
11.98
5.90
-0.66
-7.72
-15.09
-22.47
-29.54
-36.12
-42.27
-48.27
-54.59
-61.75
-70.21
-80.14
-91.15
-102.13
-111.22
-116.21
-115.13
-106.95
-92.04
-72.10
-49.67
-27.39
-7.28
9.52
22.69
32.46
39.23
43.44
45.54
46.10
45.75
45.16
44.84
45.02
45.71
46.73
47.94
49.32
51.00
53.11
55.70
58.55
61.22
63.18
63.98
63.40
61.54
58.83
55.95
53.69
52.72
53.33
55.14
57.18
57.99
56.17
50.75
41.56
29.30
15.27
0.92
-12.51
-24.30
-34.33
-42.93
-50.76
-58.57
-67.09
-76.86
-88.03
-100.11
-111.79
-121.08
-125.66
-123.64
-114.19
-97.97
-76.97
-53.85
-31.24
-11.04
5.84
19.27
29.52
36.97
41.89
44.57
45.38
44.92
43.85
42.82
42.28
42.41
43.14
44.31
45.76
47.39
49.16
50.95
52.58
53.77
54.23
53.73
52.21
49.75
46.51
42.63
38.23
33.38
28.16
22.70
17.17
11.82
6.81
2.18
-2.20
-6.62
-11.44
-16.91
-23.08
-29.76
-36.55
-43.04
-48.97
-54.37
-59.62
-65.30
-72.11
-80.58
-90.81
-102.16
-113.12
-121.50
-124.88
-121.44
-110.52
-93.01
-71.03
-47.28
-24.25
-3.65
13.66
27.51
38.02
45.41
49.92
51.98
52.25
51.54
50.62
50.04
49.98
50.34
50.88
51.42
51.93
52.56
53.46
54.71
56.13
57.37
57.90
57.27
55.22
51.75
47.14
41.90
36.54
31.47
26.83
22.47
18.05
13.14
7.49
1.09
-5.75
-12.57
-18.90
-24.46
-29.33
-33.85
-38.66
-44.41
-51.64
-60.47
-70.37
-80.04
-87.59
-90.95
-88.49
-79.55
-64.80
-45.97
-25.42
-5.40
12.44
27.27
38.88
47.40
52.95
55.57
55.39
52.80
48.56
43.67
39.13
35.65
33.45
32.35
31.92
31.78
31.66
31.55
31.47
31.44
31.31
30.83
29.62
27.33
23.75
18.86
12.95
6.45
-0.15
-6.49
-12.49
-18.36
-24.48
-31.31
-39.09
-47.75
-56.69
-64.78
-70.51
-72.24
-68.76
-59.66
-45.61
-28.22
-9.64
8.05
23.26
35.13
43.42
48.19
49.70
48.28
44.49
39.15
33.30
27.92
23.68
20.76
18.90
17.65
16.70
15.99
15.70
15.97
16.69
17.44
17.59
16.56
14.10
10.34
5.76
0.92
-3.66
-7.74
-11.31
-14.70
-18.39
-22.95
-28.78
-35.83
-43.34
-49.83
-53.37
-52.14
-45.09
-32.37
-15.36
3.76
22.66
39.50
53.27
63.68
70.85
75.01
76.23
74.49
69.84
62.64
53.65
43.94
34.60
26.39
19.57
13.85
8.70
3.63
-1.57
-6.75
-11.59
-15.83
-19.53
-23.06
-27.02
-31.90
-37.89
-44.80
-52.10
-59.26
-65.93
-72.17
-78.43
-85.37
-93.73
-104.06
-116.42
-130.16
-143.76
-154.90
-160.96
-159.69
-150.01
-132.37
-108.75
-81.97
-54.92
-29.81
-7.93
10.28
24.86
36.04
44.13
49.52
52.77
54.63
55.82
56.93
58.22
59.66
61.04
62.18
63.02
63.71
64.45
65.36
66.33
66.98
66.76
65.13
61.81
56.87
50.77
44.14
37.56
31.35
25.43
19.37
12.65
4.95
-3.76
-13.10
-22.48
-31.33
-39.35
-46.61
-53.61
-61.13
-70.05
-81.01
-93.96
-107.88
-120.72
-129.74
-132.23
-126.40
-112.03
-90.58
-64.75
-37.62
-11.84
10.83
29.63
44.48
55.64
63.45
68.33
70.77
71.44
71.08
70.36
69.83
69.72
70.00
70.49
70.95
71.29
71.55
71.88
72.42
73.07
73.55
73.39
72.12
69.48
65.52
60.57
55.17
49.84
44.88
40.31
35.83
31.03
25.60
19.53
13.16
6.99
1.48
-3.27
-7.56
-11.97
-17.12
-23.33
-30.47
-38.05
-45.43
-52.14
-58.03
-63.38
-68.75
-74.91
-82.63
-92.41
-104.20
-116.98
-128.76
-136.74
-138.10
-130.88
-114.77
-91.30
-63.49
-34.80
-8.21
14.44
32.55
46.36
56.43
63.30
67.35
68.98
68.72
67.31
65.52
64.03
63.23
63.14
63.56
64.14
64.70
65.19
65.78
66.61
67.66
68.60
68.89
67.95
65.47
61.59
56.81
51.81
47.09
42.82
38.71
34.31
29.18
23.22
16.71
10.19
4.23
-0.87
-5.24
-9.40
-14.01
-19.63
-26.37
-33.92
-41.66
-48.96
-55.45
-61.17
-66.51
-72.12
-78.70
-86.81
-96.65
-107.77
-118.81
-127.56
-131.35
-127.84
-115.89
-96.10
-70.77
-43.11
-16.36
7.20
26.50
41.49
52.63
60.36
64.96
66.62
65.72
62.98
59.38
55.94
53.42
52.16
52.05
52.71
53.67
54.61
55.37
55.94
56.35
56.57
56.47
55.79
54.33
51.89
48.42
44.00
38.82
33.15
27.28
21.47
15.88
10.55
5.32
-0.07
-5.94
-12.49
-19.71
-27.35
-34.96
-42.10
-48.51
-54.22
-59.65
-65.43
-72.31
-80.87
-91.19
-102.59
-113.40
-121.21
-123.40
-117.98
-104.36
-83.65
-58.39
-31.71
-6.48
15.39
33.10
46.62
56.28
62.47
65.52
65.86
64.13
61.17
57.90
55.06
53.09
52.11
51.94
52.29
52.89
53.56
54.23
54.85
55.37
55.62
55.38
54.40
52.55
49.78
46.15
41.77
36.76
31.24
25.35
19.31
13.34
7.63
2.17
-3.20
-8.78
-14.86
-21.55
-28.74
-36.09
-43.19
-49.74
-55.66
-61.17
-66.77
-73.07
-80.66
-89.82
-100.20
-110.63
-119.15
-123.31
-120.96
-110.87
-93.31
-70.05
-43.85
-17.70
5.99
25.77
41.18
52.38
59.79
63.84
65.00
63.83
61.08
57.62
54.27
51.67
50.04
49.30
49.13
49.21
49.34
49.48
49.75
50.23
50.88
51.44
51.47
50.51
48.19
44.43
39.43
33.67
27.77
22.22
17.24
12.69
8.14
3.03
-3.04
-10.13
-17.92
-25.85
-33.31
-39.97
-45.81
-51.21
-56.75
-63.09
-70.80
-80.12
-90.79
-101.81
-111.37
-117.17
-116.92
-109.14
-93.71
-72.14
-47.02
-21.39
2.18
22.12
37.87
49.59
57.65
62.44
64.24
63.49
60.79
56.95
52.83
49.08
46.04
43.78
42.19
41.14
40.62
40.59
41.01
41.65
42.16
42.08
41.05
38.87
35.64
31.65
27.21
22.55
17.63
12.21
5.97
-1.21
-9.15
-17.38
-25.30
-32.44
-38.69
-44.38
-50.13
-56.76
-64.91
-74.76
-85.78
-96.56
-105.01
-108.80
-106.05
-96.01
-79.34
-57.98
-34.59
-11.79
8.44
24.98
37.51
46.16
51.24
53.06
52.00
48.58
43.58
37.92
32.58
28.32
25.51
24.14
23.86
24.20
24.72
25.19
25.55
25.83
26.00
25.89
25.11
23.18
19.69
14.48
7.80
0.23
-7.51
-14.78
-21.30
-27.21
-32.99
-39.25
-46.59
-55.39
-65.70
-77.02
-88.13
-97.09
-101.59
-99.55
-89.89
-73.00
-50.75
-25.93
-1.44
20.52
38.74
52.92
63.21
69.82
72.89
72.62
69.45
64.25
58.17
52.40
47.81
44.75
43.02
42.10
41.41
40.59
39.56
38.48
37.52
36.68
35.66
33.94
30.93
26.22
19.78
12.00
3.60
-4.64
-12.16
-18.79
-24.87
-31.05
-38.08
-46.62
-57.07
-69.30
-82.47
-94.96
-104.40
-108.28
-104.62
-92.70
-73.43
-49.16
-22.97
2.12
23.79
40.68
52.21
58.34
59.46
56.35
50.25
42.64
34.98
28.39
23.37
19.97
17.98
17.16
17.40
18.59
20.51
22.69
24.54
25.51
25.27
23.82
21.36
18.21
14.56
10.46
5.78
0.37
-5.93
-13.07
-20.84
-28.89
-36.79
-44.25
-51.17
-57.75
-64.44
-71.88
-80.76
-91.50
-103.89
-116.69
-127.63
-133.79
-132.45
-122.02
-102.71
-76.59
-46.86
-16.97
10.37
33.54
51.99
65.84
75.46
81.29
83.82
83.68
81.72
78.87
76.06
73.95
72.88
72.80
73.37
74.16
74.81
75.15
75.19
74.97
74.46
73.48
71.78
69.13
65.44
60.76
55.26
49.16
42.66
35.95
29.24
22.68
16.39
10.35
4.37
-1.84
-8.55
-15.92
-23.85
-32.02
-40.01
-47.45
-54.22
-60.54
-66.97
-74.27
-83.22
-94.30
-107.34
-121.18
-133.61
-141.67
-142.41
-133.86
-115.75
-89.81
-59.25
-27.86
1.09
25.54
44.78
59.08
69.11
75.55
78.88
79.58
78.23
75.65
72.76
70.41
69.15
69.10
70.02
71.45
72.92
74.10
74.82
75.02
74.70
73.80
72.18
69.72
66.33
62.04
56.98
51.38
45.42
39.28
33.03
26.73
20.42
14.17
8.04
2.02
-3.98
-10.14
-16.64
-23.52
-30.65
-37.74
-44.49
-50.73
-56.57
-62.39
-68.80
-76.50
-85.95
-97.08
-108.92
-119.51
-126.18
-126.21
-117.79
-100.76
-76.77
-48.88
-20.51
5.46
27.33
44.56
57.32
65.98
70.89
72.35
70.91
67.45
63.12
59.08
56.12
54.52
54.10
54.45
55.17
56.01
56.87
57.76
58.61
59.26
59.47
58.87
57.13
53.96
49.28
43.28
36.44
29.40
22.79
16.99
11.92
7.12
1.91
-4.22
-11.43
-19.40
-27.45
-34.81
-41.01
-46.02
-50.28
-54.57
-59.70
-66.37
-74.92
-85.22
-96.41
-106.87
-114.35
-116.43
-111.23
-98.10
-77.96
-53.14
-26.69
-1.53
20.22
37.52
50.19
58.57
63.14
64.39
62.87
59.35
54.78
50.18
46.41
43.92
42.71
42.42
42.61
42.97
43.44
44.09
44.98
45.90
46.38
45.84
43.77
39.97
34.61
28.20
21.39
14.77
8.65
2.98
-2.62
-8.67
-15.55
-23.33
-31.62
-39.78
-47.15
-53.40
-58.71
-63.74
-69.45
-76.77
-86.24
-97.66
-109.84
-120.66
-127.43
-127.55
-119.42
-102.99
-79.89
-52.95
-25.36
0.19
22.02
39.47
52.63
61.83
67.48
69.97
69.82
67.74
64.58
61.24
58.45
56.62
55.85
55.99
56.76
57.92
59.21
60.47
61.48
62.00
61.75
60.51
58.15
54.71
50.37
45.36
39.93
34.23
28.32
22.22
15.97
9.65
3.43
-2.58
-8.35
-14.02
-19.82
-26.03
-32.75
-39.89
-47.20
-54.27
-60.81
-66.72
-72.16
-77.68
-84.02
-92.00
-102.14
-114.22
-126.96
-137.94
-144.05
-142.37
-131.26
-111.03
-84.01
-53.79
-24.05
2.43
24.28
41.36
54.19
63.34
69.19
72.06
72.44
71.11
69.09
67.29
66.24
66.00
66.26
66.62
66.81
66.87
67.05
67.59
68.52
69.50
69.91
69.07
66.55
62.39
57.09
51.42
46.08
41.43
37.39
33.52
29.22
24.06
17.97
11.28
4.58
-1.49
-6.58
-10.76
-14.52
-18.57
-23.52
-29.65
-36.72
-44.16
-51.28
-57.63
-63.12
-68.17
-73.55
-80.18
-88.80
-99.56
-111.75
-123.59
-132.44
-135.44
-130.37
-116.45
-94.79
-68.08
-39.76
-13.03
9.98
28.39
42.33
52.40
59.17
63.05
64.37
63.64
61.65
59.32
57.48
56.60
56.66
57.32
58.13
58.80
59.34
59.99
60.99
62.32
63.59
64.14
63.33
60.82
56.80
51.87
46.80
42.18
38.20
34.61
30.91
26.66
21.64
15.98
10.06
4.35
-0.80
-5.28
-9.31
-13.31
-17.81
-23.12
-29.27
-35.92
-42.52
-48.55
-53.79
-58.37
-62.81
-67.87
-74.28
-82.53
-92.48
-103.11
-112.48
-118.03
-117.30
-108.77
-92.51
-70.26
-44.94
-19.67
3.02
21.75
36.18
46.60
53.54
57.44
58.71
57.81
55.41
52.27
49.15
46.63
44.97
44.19
44.08
44.43
45.01
45.71
46.45
47.16
47.65
47.70
47.03
45.44
42.90
39.48
35.39
30.82
25.95
20.90
15.83
10.91
6.27
1.94
-2.25
-6.62
-11.51
-17.07
-23.19
-29.44
-35.32
-40.49
-44.91
-48.90
-53.04
-57.95
-64.15
-71.86
-80.87
-90.35
-98.82
-104.34
-104.92
-99.18
-86.80
-68.80
-47.30
-24.91
-4.08
13.52
27.13
36.78
42.92
46.11
46.83
45.53
42.69
38.91
34.89
31.29
28.63
27.12
26.69
27.08
27.94
28.94
29.85
30.45
30.59
30.13
28.98
27.09
24.46
21.10
17.02
12.20
6.65
0.42
-6.30
-13.25
-20.09
-26.54
-32.45
-37.91
-43.22
-48.86
-55.37
-63.14
-72.09
-81.46
-89.70
-94.79
-94.76
-88.36
-75.64
-57.97
-37.67
-17.27
1.21
16.62
28.62
37.37
43.12
46.02
46.25
44.14
40.32
35.65
31.09
27.35
24.78
23.35
22.70
22.39
22.04
21.45
20.62
19.66
18.63
17.48
15.92
13.55
9.98
4.98
-1.34
-8.62
-16.29
-23.85
-30.97
-37.60
-43.95
-50.39
-57.39
-65.39
-74.71
-85.27
-96.42
-106.75
-114.25
-116.79
-112.77
-101.72
-84.51
-63.12
-40.06
-17.65
2.38
19.15
32.40
42.21
48.83
52.51
53.60
52.60
50.16
46.99
43.79
41.08
39.12
37.99
37.56
37.69
38.20
38.88
39.49
39.68
39.09
37.43
34.60
30.70
26.02
20.76
15.03
8.75
1.78
-5.89
-14.09
-22.46
-30.65
-38.40
-45.71
-52.76
-59.92
-67.61
-76.27
-86.10
-96.82
-107.42
-116.04
-120.37
-118.24
-108.48
-91.41
-68.84
-43.53
-18.33
4.58
24.00
39.64
51.72
60.61
66.66
70.26
71.93
72.38
72.37
72.53
73.19
74.35
75.82
77.36
78.89
80.48
82.35
84.64
87.22
89.72
91.55
92.16
91.26
88.96
85.73
82.30
79.40
77.51
76.77
76.86
77.11
76.64
74.64
70.50
63.97
55.12
44.30
32.02
18.85
5.44
-7.59
-19.67
-30.42
-39.75
-47.91
-55.49
-63.25
-72.03
-82.49
-94.79
-108.36
-121.67
-132.35
-137.70
-135.56
-124.98
-106.81
-83.35
-57.66
-32.64
-10.31
8.42
23.48
35.20
43.90
49.85
53.29
54.71
54.80
54.38
54.12
54.42
55.29
56.51
57.77
58.87
59.80
60.65
61.53
62.42
63.11
63.21
62.33
60.21
56.83
52.47
47.59
42.61
37.75
32.95
27.97
22.58
16.72
10.60
4.59
-0.95
-5.88
-10.42
-15.02
-20.17
-26.15
-32.90
-40.05
-47.06
-53.49
-59.20
-64.35
-69.43
-75.08
-81.96
-90.46
-100.41
-110.88
-120.07
-125.69
-125.49
-118.04
-103.30
-82.68
-58.67
-34.03
-11.08
8.77
25.01
37.73
47.28
54.02
58.32
60.61
61.42
61.41
61.18
61.19
61.65
62.53
63.68
64.95
66.20
67.40
68.55
69.59
70.40
70.74
70.35
68.91
66.24
62.38
57.57
52.30
47.02
41.98
37.13
32.16
26.68
20.53
13.88
7.18
0.95
-4.55
-9.41
-14.06
-18.99
-24.52
-30.65
-37.11
-43.58
-49.83
-55.94
-62.14
-68.82
-76.36
-85.06
-95.03
-105.99
-117.08
-126.70
-132.71
-132.98
-126.08
-111.90
-91.85
-68.49
-44.68
-22.81
-4.23
10.72
22.31
31.00
37.08
40.75
42.22
41.96
40.70
39.26
38.33
38.28
39.13
40.57
42.23
43.78
45.06
46.02
46.70
47.09
47.05
46.42
44.95
42.50
39.03
34.67
29.68
24.34
18.96
13.70
8.67
3.81
-0.99
-5.89
-11.03
-16.52
-22.33
-28.30
-34.14
-39.52
-44.19
-48.10
-51.48
-54.79
-58.65
-63.74
-70.49
-78.89
-88.21
-96.93
-102.90
-103.85
-98.08
-85.08
-65.78
-42.28
-17.27
6.73
27.99
45.65
59.57
70.04
77.41
82.05
84.35
84.79
83.99
82.58
81.01
79.49
77.89
75.92
73.25
69.83
65.89
61.88
58.28
55.20
52.32
48.91
44.13
37.43
28.84
19.03
9.09
0.08
-7.36
-13.21
-17.96
-22.24
-26.57
-31.15
-35.94
-40.80
-45.71
-50.75
-56.05
-61.76
-67.99
-74.84
-82.39
-90.52
-98.62
-105.47
-109.30
-108.35
-101.41
-88.40
-70.46
-49.64
-28.25
-8.26
9.04
23.10
33.81
41.32
45.80
47.51
46.83
44.40
41.01
37.53
34.69
32.91
32.25
32.47
33.19
34.06
34.93
35.75
36.49
37.01
36.97
35.95
33.61
29.90
25.10
19.72
14.20
8.72
3.11
-2.98
-9.85
-17.44
-25.37
-33.01
-39.86
-45.70
-50.75
-55.57
-60.91
-67.45
-75.69
-85.58
-96.31
-106.30
-113.30
-115.01
-109.77
-97.23
-78.48
-55.79
-31.85
-9.07
10.90
27.25
39.82
48.71
54.19
56.67
56.75
55.23
53.00
50.84
49.28
48.51
48.45
48.83
49.42
50.06
50.73
51.49
52.34
53.12
53.48
52.89
50.87
47.19
42.01
35.86
29.47
23.40
17.84
12.52
6.89
0.41
-7.11
-15.45
-24.03
-32.22
-39.64
-46.26
-52.43
-58.69
-65.63
-73.71
-83.07
-93.37
-103.61
-112.04
-116.51
-114.99
-106.36
-90.84
-70.14
-46.92
-23.98
-3.46
13.55
26.95
37.15
44.66
49.79
52.72
53.65
53.05
51.60
50.11
49.26
49.45
50.67
52.64
54.88
56.97
58.64
59.86
60.69
61.23
61.46
61.23
60.34
58.64
56.12
52.91
49.19
45.11
40.75
36.15
31.44
26.85
22.60
18.82
15.42
12.06
8.27
3.68
-1.83
-8.05
-14.55
-20.86
-26.71
-32.14
-37.52
-43.44
-50.46
-59.00
-68.98
-79.70
-89.76
-97.18
-99.86
-96.15
-85.44
-68.47
-47.19
-24.21
-2.10
17.20
32.68
44.15
51.97
56.69
58.87
59.03
57.69
55.39
52.72
50.22
48.29
47.16
46.84
47.21
48.13
49.40
50.80
52.05
52.81
52.70
51.45
48.99
45.51
41.36
36.93
32.52
28.21
23.94
19.49
14.71
9.57
4.23
-1.05
-6.04
-10.68
-15.14
-19.72
-24.66
-30.03
-35.61
-41.02
-45.92
-50.20
-54.06
-57.95
-62.48
-68.23
-75.60
-84.58
-94.52
-104.00
-110.91
-112.96
-108.36
-96.58
-78.57
-56.58
-33.42
-11.66
7.02
21.96
33.26
41.30
46.50
49.14
49.53
48.13
45.56
42.61
39.96
38.11
37.26
37.36
38.16
39.33
40.57
41.65
42.44
42.89
43.00
42.77
42.11
40.85
38.75
35.60
31.39
26.33
20.83
15.41
10.43
6.03
2.03
-1.94
-6.26
-11.19
-16.68
-22.47
-28.16
-33.37
-37.91
-41.82
-45.36
-48.92
-52.91
-57.71
-63.51
-70.25
-77.41
-83.90
-88.12
-88.22
-82.64
-70.69
-52.90
-30.88
-6.78
17.43
40.42
61.50
80.24
96.00
107.76
114.41
115.28
110.60
101.60
90.19
78.36
67.59
58.60
51.41
45.66
40.95
37.02
33.85
31.45
29.68
28.13
26.17
23.17
18.81
13.26
7.13
1.22
-3.92
-8.23
-12.19
-16.59
-22.06
-28.78
-36.34
-43.97
-50.85
-56.50
-60.99
-64.85
-68.91
-73.98
-80.59
-88.79
-98.04
-107.12
-114.30
-117.66
-115.55
-107.10
-92.55
-73.23
-51.18
-28.70
-7.75
10.32
24.83
35.60
42.79
46.72
47.84
46.76
44.22
41.04
38.00
35.65
34.31
33.98
34.50
35.61
37.06
38.57
39.89
40.67
40.61
39.46
37.14
33.75
29.48
24.63
19.42
14.02
8.45
2.64
-3.55
-10.24
-17.41
-24.82
-32.11
-38.88
-44.97
-50.55
-56.19
-62.74
-70.99
-81.18
-92.64
-103.64
-111.69
-114.19
-109.30
-96.62
-77.41
-54.20
-29.96
-7.23
12.39
28.32
40.65
49.75
55.93
59.41
60.46
59.55
57.39
54.83
52.67
51.46
51.41
52.29
53.59
54.73
55.29
55.12
54.42
53.53
52.66
51.81
50.64
48.62
45.25
40.28
33.81
26.26
18.18
10.10
2.30
-5.19
-12.53
-20.03
-28.00
-36.70
-46.29
-56.71
-67.46
-77.45
-84.99
-88.18
-85.39
-75.97
-60.46
-40.56
-18.58
3.25
23.23
40.37
54.22
64.54
71.09
73.63
72.19
67.24
59.82
51.35
43.29
36.69
31.95
28.80
26.53
24.48
22.32
20.11
18.16
16.70
15.62
14.37
12.21
8.52
3.11
-3.66
-11.03
-18.19
-24.60
-30.16
-35.26
-40.56
-46.76
-54.42
-63.68
-74.22
-85.02
-94.46
-100.49
-101.16
-95.19
-82.51
-64.39
-43.08
-21.18
-0.92
16.27
29.83
39.79
46.46
50.16
51.24
50.15
47.53
44.14
40.69
37.66
35.23
33.32
31.80
30.56
29.58
28.82
28.17
27.32
25.86
23.33
19.50
14.35
8.16
1.36
-5.59
-12.34
-18.79
-25.12
-31.74
-39.17
-47.80
-57.56
-67.66
-76.51
-82.05
-82.29
-76.01
-63.23
-45.34
-24.69
-3.91
14.78
29.98
41.21
48.60
52.65
53.91
52.94
50.26
46.39
41.87
37.24
32.94
29.31
26.60
24.85
24.04
23.95
24.21
24.37
23.96
22.54
19.86
15.84
10.66
4.81
-1.02
-6.12
-10.06
-12.94
-15.57
-19.22
-25.15
-33.95
-45.02
-56.48
-65.65
-69.92
-67.63
-58.63
-44.27
-26.83
-8.81
7.70
21.41
31.71
38.49
41.96
42.45
40.51
36.85
32.27
27.54
23.24
19.71
16.98
14.97
13.51
12.43
11.56
10.69
9.52
7.68
4.87
0.90
-4.15
-9.95
-16.05
-22.05
-27.82
-33.52
-39.67
-46.96
-55.95
-66.75
-78.64
-89.92
-98.19
-100.96
-96.44
-84.27
-65.72
-43.29
-19.91
1.93
20.71
35.85
47.38
55.44
60.15
61.61
60.17
56.59
51.93
47.29
43.44
40.63
38.60
36.86
34.99
32.88
30.72
28.89
27.58
26.67
25.65
23.80
20.46
15.35
8.61
0.80
-7.36
-15.24
-22.46
-29.00
-35.24
-41.82
-49.54
-59.03
-70.51
-83.34
-95.86
-105.59
-109.86
-106.61
-95.16
-76.54
-53.09
-27.79
-3.34
18.41
36.55
50.91
61.59
68.76
72.56
73.34
71.68
68.49
64.73
61.20
58.35
56.22
54.52
52.90
51.08
49.04
46.92
44.96
43.28
41.76
39.93
37.15
32.81
26.61
18.78
9.98
1.16
-6.89
-13.83
-19.91
-25.86
-32.61
-40.93
-51.12
-62.81
-74.82
-85.23
-91.67
-91.91
-84.55
-69.56
-48.48
-23.97
0.94
23.71
42.87
58.01
69.42
77.64
83.03
85.79
86.15
84.54
81.66
78.30
75.06
72.22
69.66
67.20
64.79
62.66
61.15
60.37
59.84
58.38
54.52
47.01
35.47
20.65
4.22
-11.86
-26.03
-37.59
-46.82
-54.63
-62.19
-70.54
-80.42
-92.12
-105.33
-118.96
-131.07
-139.14
-140.64
-133.84
-118.48
-96.00
-69.14
-41.14
-14.83
7.91
26.30
40.39
50.63
57.53
61.55
63.13
62.83
61.28
59.11
56.90
55.00
53.61
52.80
52.55
52.81
53.40
54.04
54.34
53.87
52.28
49.44
45.45
40.61
35.29
29.79
24.18
18.34
11.96
4.76
-3.40
-12.33
-21.62
-30.68
-39.03
-46.47
-53.18
-59.76
-67.03
-75.82
-86.43
-98.30
-109.70
-118.03
-120.35
-114.41
-99.43
-76.51
-48.42
-18.75
9.06
32.60
50.71
63.36
71.16
74.92
75.41
73.39
69.66
65.15
60.81
57.36
55.19
54.26
54.22
54.66
55.26
55.89
56.51
57.09
57.47
57.41
56.63
54.97
52.42
49.11
45.23
40.94
36.31
31.36
26.12
20.69
15.26
10.04
5.11
0.39
-4.39
-9.54
-15.27
-21.55
-28.10
-34.52
-40.41
-45.58
-50.16
-54.59
-59.55
-65.79
-73.79
-83.51
-94.08
-103.76
-110.23
-111.18
-105.07
-91.67
-72.26
-49.22
-25.35
-3.07
16.05
31.37
42.92
50.94
55.71
57.47
56.57
53.67
49.69
45.60
42.22
39.95
38.76
38.37
38.42
38.70
39.15
39.81
40.67
41.64
42.43
42.71
42.11
40.34
37.26
32.93
27.66
21.92
16.25
11.10
6.69
2.92
-0.56
-4.21
-8.38
-13.21
-18.59
-24.21
-29.77
-35.01
-39.90
-44.57
-49.31
-54.53
-60.61
-67.78
-75.88
-84.21
-91.39
-95.64
-95.19
-88.93
-76.80
-59.93
-40.28
-20.16
-1.52
14.32
26.74
35.64
41.19
43.67
43.52
41.30
37.79
33.77
29.91
26.59
23.88
21.67
19.81
18.29
17.22
16.70
16.75
17.11
17.34
17.01
15.89
14.05
11.82
9.55
7.40
5.24
2.71
-0.61
-4.94
-10.27
-16.29
-22.58
-28.75
-34.53
-39.85
-44.89
-49.97
-55.61
-62.34
-70.45
-79.61
-88.70
-95.80
-98.62
-95.27
-84.92
-68.18
-47.04
-24.21
-2.35
16.61
31.72
42.92
50.54
55.05
56.79
56.05
53.21
48.84
43.70
38.61
34.23
30.92
28.70
27.33
26.49
25.92
25.52
25.30
25.22
25.18
24.87
23.93
22.02
19.00
14.91
9.90
4.18
-2.05
-8.61
-15.28
-21.83
-28.09
-34.06
-40.00
-46.40
-53.87
-62.81
-73.13
-84.02
-93.88
-100.59
-102.07
-96.87
-84.72
-66.74
-45.12
-22.52
-1.36
16.74
31.08
41.66
48.85
53.08
54.71
54.13
51.86
48.59
45.04
41.85
39.36
37.58
36.26
35.05
33.67
32.05
30.33
28.76
27.52
26.57
25.59
24.03
21.36
17.21
11.61
4.95
-2.19
-9.18
-15.62
-21.39
-26.73
-32.09
-38.11
-45.45
-54.58
-65.55
-77.65
-89.35
-98.42
-102.49
-99.80
-89.81
-73.48
-52.96
-30.89
-9.66
9.09
24.57
36.59
45.17
50.35
52.25
51.18
47.80
43.06
38.00
33.56
30.31
28.44
27.71
27.69
27.93
28.11
28.15
28.20
28.46
29.00
29.61
29.74
28.68
25.87
21.14
14.82
7.69
0.63
-5.73
-11.21
-16.12
-21.11
-26.94
-34.23
-43.24
-53.77
-64.90
-75.01
-81.79
-82.89
-76.46
-61.93
-40.32
-14.02
13.85
40.36
63.40
81.95
95.85
105.44
111.17
113.46
112.67
109.26
103.82
97.01
89.48
81.75
74.10
66.58
59.17
51.86
44.79
38.22
32.36
27.32
22.94
18.87
14.77
10.40
5.68
0.73
-4.35
-9.52
-14.88
-20.54
-26.57
-32.95
-39.49
-45.97
-52.17
-57.96
-63.48
-69.11
-75.48
-83.27
-92.87
-103.95
-115.24
-124.57
-129.37
-127.44
-117.60
-100.24
-77.17
-51.15
-25.08
-1.38
18.44
33.75
44.56
51.26
54.35
54.45
52.31
48.83
44.95
41.52
39.08
37.77
37.42
37.66
38.22
38.98
40.02
41.44
43.15
44.79
45.74
45.40
43.37
39.67
34.70
29.07
23.32
17.71
12.19
6.41
0.07
-7.02
-14.74
-22.78
-30.70
-38.18
-45.09
-51.61
-58.21
-65.54
-74.24
-84.65
-96.40
-108.24
-118.05
-123.30
-121.74
-112.13
-94.72
-71.25
-44.47
-17.36
7.55
28.61
45.05
56.81
64.20
67.73
68.00
65.75
61.82
57.16
52.70
49.16
46.99
46.25
46.72
47.94
49.42
50.72
51.56
51.74
51.16
49.73
47.39
44.12
40.01
35.15
29.66
23.57
16.86
9.49
1.55
-6.71
-14.89
-22.58
-29.56
-35.87
-41.94
-48.45
-56.10
-65.32
-75.87
-86.63
-95.62
-100.37
-98.63
-89.19
-72.36
-49.99
-24.88
-0.08
22.03
40.04
53.52
62.71
68.06
70.09
69.19
65.86
60.75
54.75
48.87
43.97
40.65
38.99
38.68
39.12
39.71
40.05
40.00
39.58
38.85
37.74
36.06
33.52
29.83
24.79
18.43
10.92
2.64
-5.96
-14.43
-22.43
-29.84
-36.78
-43.61
-50.90
-59.26
-69.12
-80.40
-92.29
-103.10
-110.53
-112.28
-106.78
-93.75
-74.44
-51.21
-26.82
-3.68
16.66
33.51
46.72
56.33
62.33
64.74
63.87
60.46
55.63
50.68
46.64
44.02
42.75
42.35
42.18
41.78
40.93
39.70
38.27
36.80
35.24
33.31
30.57
26.57
21.00
13.91
5.65
-3.18
-11.99
-20.36
-28.22
-35.82
-43.63
-52.17
-61.93
-73.16
-85.69
-98.67
-110.45
-118.75
-121.15
-115.85
-102.35
-81.80
-56.69
-30.14
-4.99
16.86
34.61
48.31
58.43
65.46
69.76
71.69
71.65
70.21
67.98
65.50
63.18
61.21
59.71
58.73
58.29
58.30
58.53
58.61
58.03
56.37
53.39
49.13
43.87
38.03
31.92
25.65
19.06
11.88
3.86
-4.97
-14.36
-23.87
-33.08
-41.75
-49.94
-58.00
-66.46
-75.95
-86.94
-99.45
-112.67
-124.75
-133.06
-134.80
-127.99
-112.25
-89.08
-61.43
-32.73
-5.94
17.11
35.76
50.19
60.86
68.26
72.78
74.82
74.95
73.88
72.39
71.12
70.44
70.42
70.86
71.48
72.03
72.46
72.85
73.34
73.96
74.53
74.65
73.84
71.77
68.39
63.99
59.08
54.20
49.73
45.75
42.05
38.28
34.06
29.22
23.72
17.79
11.77
6.06
0.98
-3.34
-7.02
-10.49
-14.33
-19.07
-24.96
-31.78
-38.93
-45.63
-51.28
-55.78
-59.58
-63.56
-68.73
-75.86
-85.20
-96.11
-106.89
-114.95
-117.27
-111.29
-95.93
-72.17
-43.03
-12.61
15.09
37.33
53.18
63.18
68.64
70.84
70.66
68.68
65.37
61.39
57.48
54.25
52.00
50.60
49.67
48.83
47.88
46.92
46.23
46.06
46.45
47.14
47.61
47.31
45.78
42.95
39.05
34.61
30.23
26.32
23.03
20.15
17.25
13.86
9.68
4.73
-0.63
-5.83
-10.36
-14.04
-17.12
-20.18
-23.85
-28.46
-33.89
-39.62
-45.03
-49.71
-53.65
-57.22
-61.01
-65.66
-71.72
-79.52
-88.95
-99.17
-108.49
-114.57
-114.94
-107.88
-93.09
-71.96
-47.16
-21.76
1.58
21.27
36.77
48.27
56.21
60.99
62.93
62.43
60.12
56.82
53.44
50.69
48.93
48.15
48.08
48.36
48.69
48.91
49.00
49.00
48.95
48.78
48.30
47.19
45.14
41.91
37.53
32.32
26.79
21.47
16.68
12.44
8.46
4.30
-0.43
-5.98
-12.30
-19.08
-25.82
-32.02
-37.29
-41.56
-45.15
-48.69
-53.02
-58.86
-66.51
-75.55
-84.76
-92.18
-95.59
-93.10
-83.80
-68.20
-48.16
-26.39
-5.63
12.13
26.19
36.99
45.58
52.92
59.32
64.38
67.27
67.29
64.26
58.64
51.33
43.33
35.47
28.21
21.80
16.40
12.11
9.04
7.14
6.16
5.62
4.97
3.68
1.35
-2.15
-6.70
-11.95
-17.45
-22.78
-27.70
-32.19
-36.42
-40.71
-45.37
-50.66
-56.77
-63.77
-71.56
-79.69
-87.23
-92.79
-94.76
-91.78
-83.31
-69.90
-53.07
-34.89
-17.33
-1.75
11.19
21.35
28.79
33.51
35.48
34.82
32.06
28.07
23.90
20.40
17.98
16.52
15.60
14.78
13.86
12.98
12.38
12.21
12.31
12.19
11.26
9.00
5.22
0.09
-5.93
-12.31
-18.60
-24.54
-30.13
-35.62
-41.43
-48.07
-55.99
-65.29
-75.47
-85.31
-92.91
-96.19
-93.55
-84.45
-69.66
-51.11
-31.21
-12.13
4.71
18.73
29.92
38.37
44.04
46.80
46.68
44.14
40.13
35.77
32.01
29.29
27.51
26.23
25.04
23.76
22.52
21.53
20.91
20.45
19.62
17.78
14.41
9.30
2.71
-4.74
-12.32
-19.43
-25.81
-31.64
-37.47
-44.00
-51.90
-61.54
-72.72
-84.48
-95.07
-102.29
-104.02
-98.90
-86.87
-69.27
-48.39
-26.81
-6.65
10.79
25.09
36.34
44.83
50.74
54.22
55.42
54.74
52.77
50.27
47.96
46.32
45.52
45.34
45.34
45.06
44.21
42.84
41.19
39.58
38.06
36.39
33.97
30.20
24.72
17.63
9.52
1.14
-6.85
-14.20
-21.03
-27.75
-34.85
-42.79
-51.93
-62.42
-73.99
-85.71
-95.92
-102.44
-103.16
-96.81
-83.47
-64.65
-42.79
-20.53
0.08
17.85
32.44
43.99
52.81
59.17
63.29
65.47
66.13
65.79
64.98
64.18
63.68
63.62
63.95
64.49
65.02
65.36
65.46
65.30
64.90
64.15
62.84
60.68
57.47
53.18
48.01
42.35
36.63
31.18
26.16
21.51
17.03
12.40
7.29
1.42
-5.28
-12.66
-20.34
-27.83
-34.76
-40.99
-46.76
-52.58
-59.13
-67.04
-76.64
-87.76
-99.46
-110.05
-117.31
-118.98
-113.51
-100.63
-81.55
-58.61
-34.59
-11.86
8.04
24.50
37.50
47.25
53.95
57.86
59.39
59.22
58.26
57.33
57.00
57.39
58.26
59.20
59.89
60.29
60.57
60.97
61.62
62.37
62.77
62.31
60.57
57.43
53.14
48.21
43.17
38.39
33.99
29.80
25.51
20.83
15.68
10.18
4.68
-0.43
-4.86
-8.58
-11.84
-15.13
-18.97
-23.66
-29.20
-35.27
-41.40
-47.17
-52.34
-57.01
-61.56
-66.56
-72.63
-80.27
-89.52
-99.68
-109.20
-115.86
-117.31
-111.83
-98.99
-79.83
-56.63
-32.16
-8.89
11.50
28.24
41.29
50.90
57.43
61.22
62.73
62.56
61.46
60.14
59.16
58.78
59.00
59.63
60.46
61.36
62.29
63.26
64.22
64.99
65.28
64.73
63.12
60.38
56.67
52.31
47.66
42.96
38.31
33.68
28.94
24.03
18.99
13.92
8.94
4.07
-0.80
-5.81
-11.08
-16.56
-22.07
-27.39
-32.38
-37.09
-41.77
-46.81
-52.67
-59.74
-68.23
-77.90
-87.86
-96.49
-101.72
-101.56
-94.79
-81.48
-63.10
-41.99
-20.69
-1.18
15.50
29.05
39.63
47.43
52.51
54.96
55.05
53.39
50.86
48.35
46.49
45.57
45.44
45.76
46.20
46.57
46.90
47.32
47.93
48.63
49.12
48.88
47.45
44.56
40.30
35.13
29.65
24.41
19.71
15.46
11.31
6.80
1.61
-4.34
-10.81
-17.41
-23.67
-29.31
-34.25
-38.76
-43.33
-48.60
-55.08
-62.93
-71.72
-80.33
-87.09
-90.17
-88.12
-80.28
-67.15
-50.15
-31.31
-12.62
4.30
18.47
29.50
37.35
42.21
44.36
44.23
42.37
39.39
35.96
32.64
29.87
27.90
26.86
26.77
27.50
28.79
30.28
31.55
32.21
32.02
30.88
28.85
26.09
22.83
19.26
15.50
11.56
7.30
2.52
-2.91
-9.00
-15.51
-22.10
-28.44
-34.32
-39.79
-45.11
-50.74
-57.17
-64.76
-73.42
-82.41
-90.27
-95.04
-94.80
-88.34
-75.69
-58.14
-37.94
-17.54
1.12
16.92
29.58
39.32
46.43
51.16
53.71
54.33
53.53
51.96
50.32
49.13
48.60
48.72
49.35
50.40
51.95
54.13
57.04
60.48
63.96
66.69
67.86
66.91
63.71
58.61
52.23
45.24
38.07
30.79
23.18
14.97
6.02
-3.51
-13.22
-22.63
-31.42
-39.58
-47.42
-55.52
-64.43
-74.46
-85.38
-96.32
-105.77
-111.91
-113.06
-108.20
-97.41
-81.81
-63.31
-44.06
-25.93
-10.11
2.88
13.04
20.54
25.61
28.42
29.18
28.30
26.36
24.13
22.32
21.38
21.41
22.19
23.33
24.50
25.56
26.55
27.56
28.57
29.33
29.43
28.48
26.29
22.97
18.98
14.83
10.95
7.48
4.20
0.68
-3.55
-8.77
-14.91
-21.56
-28.16
-34.20
-39.45
-44.08
-48.51
-53.39
-59.31
-66.70
-75.53
-85.25
-94.58
-101.65
-104.39
-101.13
-91.22
-75.33
-55.38
-33.90
-13.26
4.88
19.78
31.42
40.10
46.06
49.47
50.48
49.43
46.93
43.82
40.91
38.80
37.70
37.44
37.61
37.80
37.76
37.45
36.98
36.47
35.88
34.98
33.41
30.82
27.04
22.16
16.47
10.37
4.19
-1.86
-7.71
-13.40
-19.08
-24.93
-31.16
-38.05
-45.83
-54.52
-63.72
-72.47
-79.30
-82.52
-80.72
-73.31
-60.80
-44.69
-27.06
-9.97
5.04
17.19
26.26
32.45
36.01
37.23
36.45
34.12
30.82
27.18
23.74
20.81
18.53
16.87
15.73
15.07
14.87
15.03
15.38
15.55
15.05
13.43
10.39
6.04
0.77
-4.88
-10.42
-15.66
-20.74
-26.07
-32.14
-39.31
-47.63
-56.63
-65.25
-71.96
-75.06
-73.19
-65.79
-53.34
-37.28
-19.59
-2.22
13.31
26.09
35.76
42.27
45.82
46.72
45.45
42.62
38.92
34.96
31.22
27.96
25.32
23.35
22.04
21.34
21.11
21.10
20.94
20.14
18.21
14.82
9.89
3.70
-3.22
-10.27
-16.95
-23.09
-28.95
-35.09
-42.21
-50.91
-61.30
-72.72
-83.72
-92.22
-96.02
-93.51
-84.16
-68.79
-49.31
-28.19
-7.75
10.25
24.90
35.93
43.50
47.99
49.85
49.65
48.00
45.60
43.10
40.94
39.33
38.17
37.20
36.17
34.97
33.68
32.47
31.31
30.02
28.13
25.11
20.68
14.86
8.09
0.96
-5.96
-12.41
-18.52
-24.76
-31.79
-40.20
-50.24
-61.56
-73.08
-83.03
-89.27
-89.89
-83.76
-71.07
-53.28
-32.71
-11.91
7.10
23.19
36.13
46.21
53.86
59.31
62.63
63.96
63.64
62.31
60.78
59.72
59.50
60.02
60.96
61.92
62.64
63.11
63.47
63.79
63.98
63.72
62.62
60.38
56.94
52.59
47.85
43.23
39.02
35.15
31.27
26.94
21.93
16.39
10.78
5.62
1.28
-2.32
-5.64
-9.35
-13.97
-19.69
-26.27
-33.19
-39.84
-45.88
-51.28
-56.38
-61.78
-68.13
-75.96
-85.50
-96.42
-107.66
-117.46
-123.52
-123.68
-116.50
-101.86
-81.16
-56.94
-32.13
-9.26
10.09
25.44
37.02
45.39
51.04
54.30
55.50
55.17
54.04
52.94
52.55
53.22
54.82
56.94
59.09
60.94
62.41
63.55
64.47
65.10
65.16
64.28
62.18
58.84
54.56
49.86
45.26
41.06
37.20
33.38
29.21
24.50
19.31
13.94
8.75
3.94
-0.52
-4.88
-9.44
-14.42
-19.88
-25.67
-31.56
-37.28
-42.68
-47.84
-53.08
-58.97
-66.10
-74.83
-84.89
-95.20
-103.88
-108.66
-107.59
-99.65
-85.15
-65.72
-43.76
-21.80
-1.82
15.01
28.31
38.20
45.03
49.19
51.06
51.11
49.94
48.22
46.62
45.67
45.65
46.56
48.12
49.87
51.37
52.27
52.45
52.06
51.31
50.43
49.41
48.01
45.86
42.63
38.29
33.14
27.76
22.69
18.28
14.47
10.90
7.09
2.67
-2.43
-8.05
-13.86
-19.58
-25.01
-30.11
-34.95
-39.67
-44.54
-49.92
-56.25
-63.83
-72.54
-81.54
-89.24
-93.62
-92.77
-85.65
-72.49
-54.79
-34.85
-15.06
2.79
17.73
29.57
38.48
44.67
48.25
49.33
48.23
45.65
42.49
39.71
37.93
37.34
37.64
38.33
39.00
39.48
39.90
40.46
41.27
42.13
42.62
42.25
40.65
37.76
33.81
29.19
24.36
19.67
15.29
11.20
7.21
3.08
-1.40
-6.35
-11.71
-17.23
-22.62
-27.64
-32.15
-36.28
-40.34
-44.81
-50.18
-56.78
-64.58
-72.94
-80.59
-85.81
-86.86
-82.56
-72.70
-58.23
-40.91
-22.85
-5.87
8.80
20.66
29.62
35.84
39.53
40.92
40.37
38.41
35.71
32.89
30.45
28.62
27.47
26.93
26.91
27.30
27.95
28.68
29.20
29.29
28.76
27.56
25.72
23.34
20.46
17.13
13.34
9.09
4.48
-0.37
-5.28
-10.11
-14.85
-19.63
-24.71
-30.34
-36.72
-43.91
-51.79
-60.05
-68.07
-74.89
-79.22
-79.71
-75.34
-65.88
-52.10
-35.64
-18.56
-2.70
10.70
21.16
28.75
33.72
36.30
36.67
35.10
32.04
28.21
24.38
21.23
19.15
18.15
17.97
18.22
18.52
18.66
18.57
18.30
17.89
17.25
16.14
14.22
11.20
6.98
1.75
-4.09
-10.07
-15.81
-21.17
-26.27
-31.42
-37.06
-43.55
-51.13
-59.69
-68.66
-76.98
-83.10
-85.44
-82.76
-74.59
-61.52
-44.95
-26.81
-9.00
6.97
20.14
30.09
36.75
40.29
41.05
39.55
36.50
32.73
29.02
26.00
23.92
22.74
22.19
21.86
21.48
20.91
20.19
19.48
18.85
18.18
17.13
15.19
11.93
7.17
1.14
-5.63
-12.43
-18.70
-24.24
-29.27
-34.43
-40.46
-48.01
-57.25
-67.73
-78.26
-87.07
-92.19
-91.97
-85.59
-73.32
-56.49
-37.12
-17.39
0.88
16.48
28.82
37.80
