1538148023.00
64.000000
-0.00
-0.00
-0.00
-0.00
-0.00
-0.00
-0.00
-0.00
-0.00
-0.00
0.00
0.01
0.01
-0.00
-0.03
-0.05
-0.05
0.00
0.13
0.36
0.66
1.01
1.37
1.72
2.06
2.40
2.79
3.24
3.80
4.42
5.06
5.66
6.20
6.68
7.15
7.68
8.31
9.14
10.09
11.04
11.88
12.56
13.14
13.76
14.65
15.96
17.91
20.32
22.90
25.38
27.58
29.57
31.68
34.32
37.81
42.54
48.15
54.10
59.83
64.97
69.58
74.14
79.34
85.71
93.76
103.00
112.62
121.73
129.77
136.75
143.30
150.75
157.77
166.64
177.95
191.79
206.97
220.57
228.25
225.36
208.53
176.87
132.76
80.05
23.07
-34.94
-92.44
-149.16
-205.23
-260.37
-313.74
-363.87
-409.83
-450.91
-486.50
-515.74
-537.23
-549.22
-549.96
-538.37
-514.21
-478.67
-433.88
-382.45
-327.02
-269.84
-212.63
-156.66
-102.95
-52.37
-5.90
35.58
71.43
101.35
125.50
144.38
158.69
169.15
176.37
180.75
182.57
182.07
179.51
175.23
169.65
163.18
156.15
148.81
141.30
133.69
126.02
118.33
110.69
103.16
95.80
88.68
81.83
75.25
68.95
62.95
57.25
51.86
46.78
42.03
37.59
33.45
29.61
26.07
22.81
19.83
17.11
14.67
12.48
10.54
8.83
7.35
6.07
4.97
4.05
3.27
2.62
2.09
1.65
1.30
1.01
0.79
0.61
0.48
0.37
0.29
0.23
0.18
0.14
0.11
0.09
0.08
0.09
0.10
0.09
0.07
0.01
-0.06
-0.15
-0.21
-0.23
-0.21
-0.17
-0.12
-0.09
-0.11
-0.17
-0.23
-0.27
-0.26
-0.20
-0.11
-0.05
-0.05
-0.14
-0.31
-0.50
-0.62
-0.62
-0.49
-0.29
-0.16
-0.19
-0.47
-0.94
-1.45
-1.81
-1.87
-1.60
-1.14
-0.76
-0.72
-1.17
-2.02
-2.97
-3.65
-3.75
-3.25
-2.39
-1.64
-1.44
-2.05
-3.31
-4.77
-5.85
-6.16
-5.60
-4.45
-3.21
-2.39
-2.37
-3.39
-5.54
-8.60
-11.82
-13.83
-12.89
-7.69
1.87
14.23
26.54
35.76
40.01
39.02
34.18
27.56
20.89
14.90
9.48
4.24
-0.85
-5.32
-8.54
-10.11
-10.26
-9.71
-9.29
-9.50
-10.25
-10.95
-10.90
-9.72
-7.50
-4.71
-1.85
0.77
3.13
5.38
7.64
9.68
11.11
11.47
10.39
7.78
3.77
-1.29
-6.93
-12.59
-17.67
-21.61
-24.08
-25.02
-24.75
-23.83
-22.84
-22.16
-21.88
-21.82
-21.72
-21.37
-20.72
-19.90
-19.12
-18.65
-18.70
-19.44
-20.97
-23.22
-25.88
-28.51
-30.53
-31.52
-31.20
-29.56
-26.73
-22.85
-18.32
-13.53
-8.80
-4.29
-0.06
3.94
7.75
11.31
14.42
16.76
18.10
18.32
17.46
15.74
13.38
10.58
7.48
4.12
0.57
-3.06
-6.61
-9.90
-12.81
-15.33
-17.53
-19.49
-21.26
-22.82
-23.98
-24.46
-23.93
-22.11
-18.90
-14.44
-9.06
-3.20
2.70
8.35
13.62
18.50
22.91
26.66
29.43
30.92
31.14
30.40
29.30
28.55
28.64
29.79
32.00
35.18
39.32
44.44
50.58
57.62
65.22
72.83
79.81
85.54
89.55
91.56
91.54
89.66
86.28
81.75
76.39
70.39
63.85
56.84
49.44
41.76
33.86
25.77
17.55
9.39
1.64
-5.24
-10.91
-15.30
-18.63
-21.37
-23.89
-26.30
-28.39
-29.74
-29.96
-28.88
-26.62
-23.56
-20.18
-16.90
-14.01
-11.67
-9.90
-8.66
-7.88
-7.46
-7.27
-7.16
-6.94
-6.45
-5.59
-4.42
-3.14
-2.09
-1.55
-1.69
-2.45
-3.57
-4.70
-5.48
-5.68
-5.26
-4.31
-3.08
-1.87
-0.99
-0.66
-0.97
-1.79
-2.79
-3.58
-3.86
-3.68
-3.47
-3.90
-5.55
-8.61
-12.84
-17.65
-22.55
-27.33
-32.16
-37.28
-42.73
-48.16
-52.95
-56.58
-58.78
-59.72
-59.75
-59.15
-57.90
-55.77
-52.51
-48.12
-42.95
-37.68
-33.06
-29.72
-27.93
-27.55
-28.07
-28.77
-28.88
-27.80
-25.33
-21.73
-17.66
-14.00
-11.48
-10.43
-10.68
-11.63
-12.59
-12.99
-12.55
-11.15
-8.73
-5.21
-0.52
5.12
11.26
17.18
22.31
26.47
30.05
33.79
38.47
44.54
51.93
60.15
68.48
76.22
82.83
87.90
91.10
92.16
90.99
87.75
82.98
77.39
71.74
66.62
62.24
58.51
55.20
52.08
49.05
46.17
43.52
41.18
39.13
37.26
35.49
33.78
32.19
30.84
29.82
29.16
28.71
28.25
27.57
26.61
25.55
24.68
24.30
24.53
25.11
25.51
25.07
23.17
19.45
13.78
6.22
-3.01
-13.62
-25.25
-37.47
-49.88
-62.13
-74.01
-85.34
-95.87
-105.17
-112.58
-117.46
-119.40
-118.43
-114.99
-109.76
-103.35
-96.20
-88.57
-80.70
-72.96
-65.85
-59.81
-55.06
-51.58
-49.22
-47.77
-46.99
-46.62
-46.26
-45.47
-43.99
-41.86
-39.49
-37.46
-36.20
-35.72
-35.70
-35.66
-35.30
-34.63
-33.90
-33.34
-32.97
-32.56
-31.77
-30.26
-27.91
-24.78
-21.13
-17.32
-13.68
-10.36
-7.25
-4.00
-0.18
4.44
9.68
15.01
19.71
23.21
25.39
26.54
27.27
28.19
29.80
32.41
36.16
41.16
47.33
54.39
61.76
68.68
74.43
78.60
81.24
82.82
84.04
85.47
87.48
90.07
93.03
96.05
98.77
100.81
101.75
101.28
99.14
95.42
90.52
85.10
79.90
75.43
71.84
68.81
65.60
61.27
54.94
46.03
34.42
20.52
5.15
-10.77
-26.34
-40.93
-54.19
-65.98
-76.35
-85.48
-93.54
-100.68
-106.80
-111.59
-114.57
-115.30
-113.57
-109.55
-103.70
-96.58
-88.65
-80.21
-71.46
-62.58
-53.83
-45.48
-37.68
-30.49
-23.85
-17.71
-12.06
-7.04
-2.75
0.66
3.18
4.79
5.56
5.51
4.66
3.08
0.84
-1.87
-4.83
-7.76
-10.42
-12.65
-14.39
-15.67
-16.59
-17.23
-17.61
-17.68
-17.29
-16.29
-14.66
-12.49
-10.11
-7.90
-6.16
-4.97
-4.12
-3.26
-2.07
-0.46
1.48
3.50
5.41
7.14
8.77
10.49
12.45
14.81
17.66
20.99
24.76
28.84
33.14
37.52
41.93
46.29
50.50
54.33
57.54
59.84
61.06
61.18
60.35
58.84
56.83
54.47
51.69
48.39
44.46
39.85
34.64
28.97
23.02
17.00
11.12
5.57
0.54
-3.89
-7.69
-10.97
-13.88
-16.51
-18.96
-21.26
-23.42
-25.47
-27.42
-29.25
-30.90
-32.30
-33.42
-34.28
-34.90
-35.30
-35.42
-35.12
-34.28
-32.79
-30.73
-28.36
-26.11
-24.39
-23.44
-23.20
-23.36
-23.49
-23.18
-22.24
-20.69
-18.70
-16.49
-14.29
-12.29
-10.65
-9.52
-8.97
-9.00
-9.50
-10.29
-11.23
-12.23
-13.32
-14.59
-16.19
-18.25
-20.75
-23.51
-26.19
-28.41
-29.92
-30.70
-31.01
-31.25
-31.75
-32.63
-33.68
-34.48
-34.56
-33.59
-31.58
-28.79
-25.75
-22.97
-20.79
-19.29
-18.29
-17.46
-16.48
-15.12
-13.34
-11.29
-9.23
-7.48
-6.29
-5.75
-5.82
-6.29
-6.97
-7.70
-8.40
-9.04
-9.53
-9.68
-9.30
-8.25
-6.53
-4.33
-1.80
0.96
3.97
7.36
11.16
15.31
19.64
24.10
28.80
34.14
40.53
48.23
57.03
66.34
75.34
83.25
89.58
94.15
97.11
98.74
99.44
99.65
99.62
99.33
98.29
95.60
90.14
81.04
68.09
51.89
33.77
15.28
-2.24
-18.04
-32.05
-44.56
-55.89
-66.05
-74.63
-80.92
-84.23
-84.21
-80.98
-75.18
-67.78
-59.79
-52.02
-45.02
-39.01
-33.93
-29.53
-25.35
-20.91
-15.81
-9.95
-3.59
2.71
8.27
12.57
15.35
16.70
16.89
16.21
14.90
13.14
11.18
9.32
7.91
7.20
7.25
7.94
9.03
10.28
11.61
13.05
14.75
16.85
19.34
21.98
24.40
26.14
26.94
26.80
26.04
25.13
24.47
24.18
24.17
24.19
23.99
23.48
22.69
21.68
20.44
18.96
17.25
15.44
13.72
12.26
11.03
9.77
8.11
5.71
2.43
-1.49
-5.56
-9.10
-11.52
-12.45
-11.92
-10.33
-8.35
-6.72
-5.97
-6.29
-7.53
-9.27
-11.07
-12.63
-13.85
-14.75
-15.40
-15.83
-15.97
-15.77
-15.25
-14.63
-14.24
-14.43
-15.33
-16.81
-18.37
-19.37
-19.10
-17.06
-13.12
-7.53
-0.88
6.01
12.27
17.12
20.00
20.72
19.48
16.80
13.33
9.70
6.29
3.27
0.56
-2.04
-4.70
-7.53
-10.48
-13.33
-15.82
-17.67
-18.68
-18.78
-18.07
-16.71
-14.88
-12.70
-10.27
-7.79
-5.45
-3.50
-2.05
-1.00
-0.12
0.86
2.09
3.53
4.99
6.23
7.10
7.62
7.91
8.14
8.53
9.13
9.87
10.58
11.05
11.10
10.75
10.19
9.67
9.42
9.47
9.67
9.82
9.78
9.56
9.27
9.03
8.85
8.64
8.27
7.73
7.14
6.65
6.42
6.46
6.62
6.71
6.50
5.89
4.91
3.69
2.38
1.12
-0.03
-1.08
-2.09
-3.12
-4.15
-5.12
-5.83
-6.08
-5.69
-4.62
-2.97
-1.01
0.95
2.63
3.91
4.88
5.71
6.60
7.56
8.43
8.94
8.86
8.19
7.12
6.06
5.33
5.12
5.43
6.20
7.34
8.82
10.58
12.47
14.25
15.65
16.62
17.30
18.10
19.41
21.46
24.20
27.35
30.56
33.61
36.53
39.53
43.00
47.22
52.29
58.02
63.85
68.90
72.09
72.37
68.94
61.57
50.75
37.66
23.86
10.89
-0.17
-9.02
-16.13
-22.45
-29.04
-36.65
-45.51
-55.28
-65.15
-74.10
-81.10
-85.37
-86.59
-85.01
-81.34
-76.56
-71.59
-67.03
-63.12
-59.83
-56.97
-54.34
-51.71
-48.87
-45.59
-41.74
-37.35
-32.61
-27.83
-23.29
-19.13
-15.38
-11.96
-8.81
-5.88
-3.17
-0.67
1.62
3.70
5.61
7.44
9.33
11.43
13.82
16.36
18.69
20.31
20.80
19.97
17.96
15.21
12.33
9.87
8.21
7.47
7.51
8.07
8.80
9.40
9.69
9.52
8.85
7.74
6.38
5.09
4.25
4.10
4.62
5.51
6.33
6.66
6.34
5.48
4.42
3.52
3.00
2.90
3.11
3.47
3.85
4.17
4.41
4.59
4.73
4.86
5.04
5.26
5.50
5.62
5.46
4.80
3.53
1.74
-0.25
-1.99
-3.07
-3.34
-2.91
-2.14
-1.38
-0.82
-0.46
-0.19
0.05
0.19
0.08
-0.40
-1.18
-2.05
-2.73
-2.98
-2.73
-2.06
-1.15
-0.21
0.65
1.40
2.11
2.85
3.66
4.50
5.27
5.91
6.45
7.08
7.92
8.99
10.07
10.82
10.86
10.12
8.79
7.27
5.93
4.95
4.28
3.71
3.02
2.13
1.07
-0.01
-0.95
-1.56
-1.70
-1.30
-0.36
0.97
2.44
3.78
4.72
5.06
4.72
3.72
2.19
0.34
-1.47
-2.94
-3.85
-4.15
-4.05
-3.81
-3.70
-3.73
-3.73
-3.40
-2.57
-1.28
0.16
1.34
1.96
1.95
1.47
0.76
-0.02
-0.83
-1.76
-2.87
-4.13
-5.37
-6.38
-7.00
-7.14
-6.85
-6.24
-5.51
-4.89
-4.53
-4.53
-4.77
-5.03
-5.03
-4.60
-3.73
-2.57
-1.35
-0.25
0.67
1.45
2.18
2.94
3.74
4.47
4.99
5.20
5.15
4.99
4.96
5.18
5.64
6.11
6.32
6.11
5.59
5.11
5.05
5.62
6.76
8.18
9.54
10.66
11.57
12.33
12.99
13.38
13.20
12.25
10.52
8.30
5.97
3.91
2.22
0.87
-0.28
-1.26
-1.99
-2.31
-2.15
-1.57
-0.79
-0.05
0.55
1.04
1.57
2.27
3.16
4.17
5.14
5.90
6.36
6.44
6.10
5.35
4.28
3.05
1.87
0.94
0.31
-0.11
-0.49
-1.04
-1.88
-2.99
-4.28
-5.53
-6.54
-7.09
-7.12
-6.69
-5.99
-5.32
-4.89
-4.76
-4.80
-4.74
-4.35
-3.55
-2.47
-1.33
-0.32
0.47
1.03
1.41
1.54
1.31
0.57
-0.73
-2.50
-4.52
-6.49
-8.21
-9.58
-10.62
-11.44
-12.14
-12.81
-13.47
-14.13
-14.74
-15.23
-15.53
-15.57
-15.39
-15.08
-14.79
-14.69
-14.94
-15.64
-16.78
-18.18
-19.54
-20.46
-20.62
-19.88
-18.40
-16.56
-14.86
-13.59
-12.75
-11.98
-10.81
-8.90
-6.20
-3.03
0.10
2.76
4.63
5.63
5.72
4.90
3.23
0.91
-1.59
-3.63
-4.60
-4.22
-2.69
-0.63
1.22
2.26
2.27
1.42
0.12
-1.15
-2.03
-2.33
-2.07
-1.41
-0.64
-0.01
0.31
0.36
0.24
0.08
-0.12
-0.46
-1.01
-1.73
-2.37
-2.59
-2.11
-0.90
0.82
2.64
4.25
5.46
6.38
7.24
8.25
9.47
10.74
11.86
12.59
12.88
12.79
12.52
12.26
12.13
12.18
12.35
12.55
12.69
12.75
12.80
12.90
13.07
13.25
13.29
13.08
12.61
12.01
11.51
11.24
11.12
10.82
9.85
7.86
4.79
0.98
-3.05
-6.74
-9.71
-11.87
-13.30
-14.15
-14.57
-14.71
-14.67
-14.52
-14.34
-14.10
-13.75
-13.23
-12.49
-11.58
-10.55
-9.48
-8.41
-7.43
-6.57
-5.88
-5.39
-5.03
-4.67
-4.12
-3.25
-2.05
-0.63
0.78
2.05
3.11
4.06
5.05
6.16
7.39
8.65
9.83
10.92
11.94
13.00
14.06
15.01
15.66
15.87
15.66
15.19
14.71
14.42
14.36
14.38
14.31
13.97
13.34
12.52
11.61
10.70
9.74
8.59
7.07
5.15
2.93
0.72
-1.14
-2.41
-3.02
-3.20
-3.22
-3.28
-3.41
-3.49
-3.42
-3.21
-3.01
-3.00
-3.29
-3.81
-4.37
-4.81
-5.07
-5.25
-5.51
-5.94
-6.49
-6.98
-7.17
-6.88
-6.08
-4.90
-3.58
-2.40
-1.54
-1.13
-1.10
-1.31
-1.58
-1.72
-1.62
-1.25
-0.63
0.15
1.01
1.84
2.52
2.94
3.03
2.73
2.08
1.20
0.27
-0.44
-0.66
-0.19
1.03
2.94
5.28
7.75
10.04
11.97
13.54
14.92
16.29
17.82
19.52
21.25
22.76
23.79
24.15
23.77
22.69
21.05
19.06
16.94
14.82
12.73
10.52
8.00
5.08
1.83
-1.48
-4.50
-6.87
-8.45
-9.28
-9.52
-9.40
-9.05
-8.56
-7.96
-7.34
-6.78
-6.40
-6.22
-6.20
-6.20
-6.12
-5.87
-5.44
-4.87
-4.24
-3.60
-2.97
-2.34
-1.71
-1.10
-0.61
-0.30
-0.22
-0.38
-0.70
-1.11
-1.53
-1.97
-2.46
-3.06
-3.74
-4.44
-5.05
-5.49
-5.80
-6.06
-6.44
-7.01
-7.76
-8.51
-9.08
-9.33
-9.28
-9.06
-8.87
-8.85
-9.07
-9.52
-10.16
-10.87
-11.57
-12.14
-12.52
-12.74
-12.89
-13.17
-13.75
-14.64
-15.69
-16.64
-17.32
-17.75
-18.16
-18.87
-20.01
-21.52
-23.11
-24.51
-25.56
-26.28
-26.75
-26.92
-26.60
-25.49
-23.39
-20.39
-16.84
-13.26
-10.02
-7.24
-4.77
-2.34
0.21
2.82
5.30
7.40
8.98
10.01
10.58
10.74
10.53
10.01
9.28
8.52
7.89
7.47
7.21
7.00
6.74
6.37
5.87
5.24
4.43
3.42
2.29
1.20
0.32
-0.31
-0.79
-1.35
-2.23
-3.49
-5.01
-6.51
-7.75
-8.55
-8.85
-8.61
-7.83
-6.54
-4.78
-2.71
-0.48
1.72
3.81
5.73
7.53
9.27
11.01
12.80
14.72
16.78
18.94
21.14
23.29
25.37
27.48
29.72
32.15
34.52
36.41
37.16
36.19
33.25
28.51
22.56
16.23
10.31
5.39
1.74
-0.65
-1.97
-2.49
-2.47
-2.15
-1.65
-1.12
-0.67
-0.43
-0.50
-0.83
-1.28
-1.59
-1.49
-0.91
0.07
1.11
1.87
2.04
1.44
0.04
-2.15
-5.04
-8.47
-12.13
-15.57
-18.27
-19.79
-19.90
-18.65
-16.27
-13.09
-9.46
-5.68
-1.94
1.56
4.70
7.43
9.77
11.77
13.43
14.66
15.37
15.51
15.21
14.76
14.44
14.45
14.73
15.02
15.02
14.51
13.55
12.34
11.19
10.24
9.50
8.85
8.17
7.45
6.78
6.23
5.76
5.17
4.16
2.42
-0.12
-3.31
-6.72
-9.77
-11.88
-12.71
-12.18
-10.54
-8.25
-5.80
-3.56
-1.66
-0.08
1.32
2.61
3.79
4.78
5.52
6.00
6.22
6.15
5.68
4.69
3.09
0.95
-1.51
-4.02
-6.30
-8.23
-9.78
-10.96
-11.79
-12.21
-12.14
-11.43
-9.92
-7.47
-4.11
-0.20
3.53
6.04
6.35
3.92
-1.03
-7.58
-14.46
-20.48
-24.95
-27.70
-28.85
-28.55
-26.83
-23.65
-19.16
-13.81
-8.33
-3.49
0.17
2.53
3.93
4.90
5.98
7.50
9.47
11.70
13.92
15.93
17.70
19.32
20.91
22.53
24.14
25.61
26.78
27.54
27.83
27.64
27.01
25.93
24.50
22.81
21.10
19.66
18.77
18.65
19.27
20.44
21.76
22.85
23.50
23.73
23.77
23.84
23.98
23.97
23.43
22.04
19.65
16.39
12.59
8.55
4.44
0.27
-4.03
-8.53
-13.15
-17.76
-22.17
-26.26
-29.92
-33.12
-35.78
-37.86
-39.28
-39.99
-40.00
-39.25
-37.85
-35.97
-33.92
-32.07
-30.73
-29.97
-29.64
-29.42
-29.00
-28.22
-27.10
-25.78
-24.38
-22.95
-21.42
-19.76
-18.01
-16.33
-14.94
-13.97
-13.41
-13.08
-12.67
-11.89
-10.57
-8.82
-6.92
-5.28
-4.24
-3.90
-4.08
-4.45
-4.70
-4.71
-4.52
-4.23
-3.88
-3.40
-2.61
-1.47
-0.12
1.15
1.99
2.27
2.07
1.66
1.34
1.26
1.42
1.71
1.98
2.13
2.15
2.10
2.09
2.23
2.58
3.10
3.68
4.22
4.58
4.70
4.50
3.92
2.88
1.42
-0.33
-2.08
-3.51
-4.42
-4.80
-4.79
-4.59
-4.29
-3.84
-3.07
-1.91
-0.44
1.16
2.65
3.90
4.90
5.73
6.49
7.27
8.08
8.93
9.88
10.97
12.24
13.59
14.82
15.67
15.97
15.72
15.17
14.69
14.64
15.18
16.20
17.33
18.20
18.60
18.63
18.60
18.85
19.52
20.53
21.63
22.61
23.40
24.06
24.65
25.19
25.58
25.69
25.47
24.99
24.35
23.61
22.68
21.30
19.20
16.15
12.18
7.58
2.82
-1.55
-5.09
-7.57
-9.09
-9.95
-10.60
-11.38
-12.42
-13.61
-14.67
-15.36
-15.66
-15.84
-16.37
-17.67
-19.91
-22.85
-26.00
-28.88
-31.25
-33.26
-35.28
-37.53
-39.94
-42.05
-43.29
-43.21
-41.74
-39.24
-36.27
-33.46
-31.27
-29.98
-29.58
-29.78
-30.07
-29.75
-28.15
-24.78
-19.58
-12.89
-5.46
1.84
8.19
13.11
16.49
18.68
20.25
21.83
23.76
26.01
28.14
29.54
29.76
28.71
26.78
24.54
22.54
20.95
19.61
18.09
16.03
13.34
10.20
7.04
4.15
1.63
-0.69
-3.06
-5.51
-7.71
-8.98
-8.67
-6.39
-2.42
2.47
7.23
11.01
13.47
14.79
15.49
16.00
16.41
16.47
15.81
14.19
11.77
9.01
6.47
4.51
3.13
1.95
0.44
-1.78
-4.73
-8.07
-11.27
-13.88
-15.74
-16.99
-17.99
-19.02
-20.19
-21.36
-22.31
-22.86
-22.95
-22.62
-21.90
-20.72
-18.98
-16.62
-13.86
-11.09
-8.82
-7.43
-6.91
-6.89
-6.70
-5.72
-3.60
-0.43
3.30
6.92
9.87
11.87
13.06
13.84
14.69
15.95
17.68
19.67
21.50
22.75
23.07
22.31
20.54
18.02
15.16
12.35
9.91
8.02
6.66
5.73
5.09
4.63
4.26
3.88
3.40
2.71
1.77
0.70
-0.30
-0.95
-1.05
-0.61
0.17
0.97
1.53
1.73
1.70
1.74
2.19
3.26
4.93
6.91
8.80
10.23
11.00
11.21
11.16
11.22
11.65
12.55
13.77
15.10
16.29
17.21
17.79
17.98
17.76
17.07
15.93
14.40
12.57
10.53
8.28
5.78
2.99
-0.01
-3.06
-5.92
-8.39
-10.40
-12.02
-13.38
-14.64
-15.94
-17.34
-18.81
-20.26
-21.50
-22.34
-22.64
-22.43
-21.85
-21.13
-20.38
-19.60
-18.65
-17.38
-15.83
-14.17
-12.70
-11.62
-10.89
-10.27
-9.47
-8.29
-6.80
-5.31
-4.14
-3.46
-3.22
-3.18
-3.07
-2.78
-2.38
-2.03
-1.93
-2.12
-2.53
-2.97
-3.26
-3.24
-2.88
-2.30
-1.71
-1.38
-1.52
-2.15
-3.06
-3.85
-4.16
-3.86
-3.09
-2.26
-1.76
-1.85
-2.51
-3.51
-4.55
-5.46
-6.19
-6.82
-7.49
-8.27
-9.18
-10.17
-11.18
-12.15
-13.07
-13.98
-14.91
-15.95
-17.14
-18.52
-20.08
-21.79
-23.61
-25.49
-27.29
-28.74
-29.41
-28.85
-26.76
-23.20
-18.71
-14.10
-10.13
-7.16
-5.02
-3.18
-1.03
1.71
4.92
8.10
10.76
12.65
13.89
14.79
15.64
16.55
17.34
17.77
17.70
17.21
16.56
16.06
15.85
15.85
15.79
15.36
14.44
13.12
11.74
10.68
10.19
10.36
11.04
11.98
12.93
13.65
14.03
14.00
13.59
12.86
11.92
10.84
9.67
8.37
6.88
5.16
3.22
1.18
-0.80
-2.59
-4.12
-5.38
-6.44
-7.34
-8.06
-8.55
-8.77
-8.72
-8.45
-7.92
-7.06
-5.64
-3.49
-0.49
3.19
7.26
11.30
15.03
18.34
21.25
23.82
25.95
27.43
27.96
27.37
25.69
23.26
20.51
17.83
15.45
13.35
11.47
9.80
8.46
7.60
7.27
7.32
7.36
7.05
6.16
4.79
3.21
1.74
0.53
-0.49
-1.52
-2.81
-4.41
-6.26
-8.14
-9.86
-11.28
-12.33
-13.07
-13.57
-13.88
-14.00
-13.89
-13.50
-12.87
-12.14
-11.49
-11.09
-10.92
-10.82
-10.51
-9.81
-8.74
-7.51
-6.44
-5.73
-5.36
-5.03
-4.36
-2.99
-0.78
2.12
5.40
8.64
11.55
14.02
16.12
18.00
19.73
21.27
22.44
23.07
23.07
22.50
21.52
20.31
18.96
17.43
15.60
13.32
10.49
7.08
3.13
-1.16
-5.50
-9.49
-12.76
-15.04
-16.29
-16.69
-16.51
-16.00
-15.27
-14.35
-13.21
-11.96
-10.77
-9.83
-9.27
-9.07
-9.08
-9.13
-9.15
-9.15
-9.20
-9.29
-9.28
-8.95
-8.07
-6.54
-4.49
-2.30
-0.41
0.80
1.15
0.76
-0.08
-1.04
-1.87
-2.43
-2.66
-2.49
-1.87
-0.74
0.87
2.78
4.68
6.21
7.18
7.58
7.65
7.71
8.02
8.63
9.41
10.14
10.61
10.75
10.57
10.13
9.44
8.49
7.30
5.94
4.61
3.46
2.57
1.86
1.14
0.30
-0.70
-1.74
-2.66
-3.35
-3.84
-4.24
-4.70
-5.31
-6.10
-7.02
-8.02
-9.02
-9.87
-10.45
-10.60
-10.31
-9.71
-9.05
-8.62
-8.58
-8.88
-9.32
-9.70
-9.93
-10.09
-10.35
-10.79
-11.39
-11.91
-12.11
-11.78
-10.93
-9.70
-8.37
-7.22
-6.45
-6.15
-6.23
-6.55
-6.90
-7.12
-7.11
-6.90
-6.55
-6.09
-5.56
-4.93
-4.21
-3.44
-2.66
-1.92
-1.23
-0.59
-0.07
0.27
0.32
0.03
-0.55
-1.25
-1.84
-2.10
-1.95
-1.50
-0.92
-0.44
-0.14
-0.02
0.09
0.35
0.77
1.25
1.62
1.74
1.64
1.48
1.46
1.72
2.19
2.71
3.11
3.28
3.27
3.17
3.04
2.96
2.96
3.12
3.52
4.25
5.30
6.60
7.99
9.36
10.62
11.69
12.44
12.77
12.60
11.97
11.04
10.07
9.23
8.61
8.12
7.67
7.19
6.77
6.55
6.64
7.04
7.52
7.81
7.60
6.78
5.47
3.97
2.66
1.81
1.55
1.73
2.15
2.52
2.68
2.56
2.21
1.75
1.34
1.14
1.25
1.73
2.46
3.23
3.81
4.07
4.00
3.74
3.49
3.34
3.29
3.25
3.11
2.81
2.36
1.75
1.01
0.16
-0.75
-1.61
-2.28
-2.66
-2.71
-2.51
-2.14
-1.69
-1.16
-0.50
0.37
1.45
2.65
3.76
4.50
4.61
3.92
2.45
0.38
-2.01
-4.50
-6.92
-9.16
-11.09
-12.56
-13.38
-13.48
-12.95
-12.09
-11.26
-10.80
-10.86
-11.51
-12.66
-14.27
-16.29
-18.70
-21.44
-24.43
-27.63
-31.01
-34.67
-38.71
-43.21
-48.05
-52.81
-56.80
-59.05
-58.75
-55.44
-49.31
-41.10
-31.87
-22.63
-14.13
-6.77
-0.76
3.75
6.57
7.65
7.17
5.72
4.22
3.68
4.80
7.83
12.39
17.66
22.55
26.12
27.78
27.51
25.83
23.55
21.48
20.14
19.65
19.86
20.58
21.72
23.37
25.69
28.63
31.90
34.95
37.28
38.58
38.85
38.32
37.23
35.73
33.84
31.58
29.08
26.63
24.55
22.99
21.89
21.03
20.18
19.30
18.46
17.80
17.30
16.82
16.13
15.14
13.90
12.57
11.25
9.88
8.24
6.13
3.58
0.84
-1.67
-3.63
-4.95
-5.82
-6.56
-7.41
-8.44
-9.54
-10.53
-11.27
-11.70
-11.90
-11.96
-12.01
-12.11
-12.22
-12.24
-11.99
-11.35
-10.26
-8.81
-7.19
-5.59
-4.08
-2.60
-0.99
0.87
2.98
5.17
7.20
8.90
10.24
11.39
12.61
14.11
15.99
18.09
20.09
21.56
22.11
21.51
19.77
17.15
14.10
11.09
8.50
6.46
4.89
3.58
2.31
0.95
-0.50
-1.96
-3.38
-4.74
-6.08
-7.43
-8.72
-9.86
-10.66
-11.05
-11.02
-10.69
-10.27
-9.86
-9.47
-9.03
-8.42
-7.55
-6.47
-5.33
-4.41
-3.92
-3.94
-4.39
-5.00
-5.48
-5.59
-5.27
-4.70
-4.15
-3.93
-4.20
-4.95
-6.00
-7.05
-7.91
-8.50
-8.94
-9.38
-9.98
-10.82
-11.87
-13.09
-14.39
-15.72
-16.95
-17.86
-18.16
-17.66
-16.40
-14.70
-13.12
-12.13
-11.97
-12.48
-13.22
-13.74
-13.91
-13.96
-14.36
-15.49
-17.38
-19.68
-21.78
-23.18
-23.65
-23.38
-22.83
-22.50
-22.85
-24.16
-26.49
-29.64
-33.11
-36.11
-37.72
-37.21
-34.41
-29.77
-24.32
-19.25
-15.49
-13.41
-12.92
-13.63
-15.19
-17.54
-20.79
-25.08
-30.37
-36.25
-41.98
-46.68
-49.45
-49.53
-46.52
-40.34
-31.35
-20.27
-8.14
3.92
14.85
23.89
30.68
35.26
38.00
39.43
40.08
40.33
40.40
40.33
40.03
39.44
38.49
37.29
35.99
34.77
33.81
33.20
32.94
32.91
32.88
32.55
31.61
29.90
27.46
24.55
21.54
18.76
16.37
14.33
12.49
10.70
8.96
7.38
6.16
5.42
5.11
5.00
4.88
4.58
4.16
3.81
3.78
4.18
4.95
5.86
6.61
6.99
6.96
6.64
6.17
5.70
5.27
4.87
4.48
4.11
3.79
3.54
3.31
2.94
2.26
1.14
-0.42
-2.25
-4.07
-5.60
-6.66
-7.14
-7.08
-6.53
-5.60
-4.43
-3.18
-2.06
-1.18
-0.51
0.16
1.11
2.52
4.38
6.45
8.39
9.94
11.05
11.82
12.47
13.10
13.72
14.24
14.62
14.91
15.28
15.92
16.97
18.39
20.05
21.74
23.31
24.70
25.95
27.10
28.11
28.80
28.85
28.04
26.28
23.75
20.83
17.98
15.47
13.27
10.98
7.94
3.42
-3.17
-12.03
-22.86
-34.84
-46.72
-57.08
-64.68
-68.77
-69.24
-66.62
-61.84
-55.87
-49.55
-43.42
-37.77
-32.74
-28.38
-24.49
-20.67
-16.18
-10.30
-2.65
6.47
16.04
24.58
30.75
33.81
33.82
31.54
28.02
24.15
20.61
17.74
15.85
15.15
15.86
17.95
21.06
24.65
28.12
31.12
33.72
36.26
39.07
42.08
44.61
45.49
43.44
37.55
27.69
14.64
-0.05
-14.48
-26.89
-36.13
-41.91
-44.78
-45.89
-46.53
-47.82
-50.41
-54.19
-58.31
-61.21
-61.08
-56.46
-47.04
-34.03
-20.03
-8.18
-0.92
1.00
-1.28
-5.46
-9.23
-11.32
-11.75
-11.39
-11.19
-11.52
-12.17
-12.72
-12.98
-13.18
-13.81
-15.27
-17.50
-20.04
-22.19
-23.50
-23.90
-23.76
-23.74
-24.38
-25.88
-27.93
-29.72
-30.26
-28.71
-24.71
-18.47
-10.77
-2.58
5.23
12.13
17.90
22.63
26.54
29.89
32.97
36.03
39.16
42.26
45.00
46.99
47.92
47.78
46.82
45.45
43.99
42.57
41.15
39.66
38.07
36.43
34.84
33.36
31.94
30.51
29.00
27.48
26.08
25.00
24.35
24.06
23.90
23.55
22.76
21.41
19.54
17.27
14.72
11.94
9.03
6.16
3.57
1.53
0.19
-0.54
-0.94
-1.46
-2.62
-4.85
-8.41
-13.22
-18.75
-24.03
-27.89
-29.48
-28.55
-25.65
-21.82
-18.16
-15.27
-13.20
-11.59
-10.10
-8.74
-7.81
-7.65
-8.33
-9.43
-10.26
-10.20
-9.01
-6.88
-4.28
-1.68
0.69
2.85
4.92
6.96
8.85
10.36
11.28
11.54
11.28
10.79
10.28
9.90
9.63
9.39
9.18
9.14
9.48
10.46
12.10
14.19
16.20
17.49
17.52
16.01
13.07
9.10
4.69
0.44
-3.13
-5.68
-7.14
-7.61
-7.40
-6.88
-6.35
-6.03
-5.95
-6.05
-6.15
-6.09
-5.70
-4.92
-3.79
-2.48
-1.24
-0.31
0.14
0.14
-0.15
-0.49
-0.72
-0.78
-0.69
-0.53
-0.32
-0.06
0.26
0.62
0.91
1.00
0.79
0.31
-0.33
-0.94
-1.38
-1.60
-1.68
-1.82
-2.24
-3.16
-4.69
-6.72
-8.99
-11.09
-12.61
-13.35
-13.40
-13.09
-12.87
-13.05
-13.69
-14.56
-15.27
-15.47
-14.94
-13.66
-11.74
-9.36
-6.78
-4.27
-2.13
-0.53
0.52
1.20
1.84
2.70
3.89
5.31
6.71
7.83
8.54
8.86
8.89
8.75
8.49
8.15
7.79
7.51
7.40
7.48
7.64
7.69
7.45
6.87
6.05
5.20
4.47
3.93
3.50
3.10
2.72
2.48
2.56
3.16
4.33
5.98
7.81
9.51
10.77
11.41
11.43
10.97
10.24
9.46
8.75
8.12
7.54
7.03
6.65
6.47
6.47
6.53
6.42
5.96
5.13
4.10
3.06
2.14
1.28
0.28
-1.02
-2.69
-4.57
-6.40
-7.91
-8.89
-9.32
-9.24
-8.81
-8.23
-7.66
-7.29
-7.18
-7.35
-7.73
-8.21
-8.63
-8.84
-8.68
-8.05
-6.92
-5.40
-3.68
-2.02
-0.63
0.34
0.92
1.23
1.48
1.87
2.50
3.32
4.12
4.58
4.48
3.78
2.69
1.58
0.82
0.60
0.83
1.30
1.72
2.00
2.14
2.23
2.29
2.27
2.08
1.69
1.19
0.79
0.65
0.85
1.26
1.67
1.85
1.69
1.27
0.80
0.50
0.51
0.77
1.11
1.27
1.07
0.51
-0.27
-1.07
-1.74
-2.31
-2.89
-3.59
-4.45
-5.40
-6.27
-7.00
-7.62
-8.22
-8.93
-9.77
-10.64
-11.33
-11.62
-11.36
-10.53
-9.26
-7.72
-6.16
-4.76
-3.67
-2.93
-2.54
-2.39
-2.35
-2.27
-2.02
-1.57
-0.96
-0.33
0.20
0.59
0.87
1.16
1.56
2.09
2.72
3.37
3.97
4.49
4.89
5.17
5.31
5.32
5.27
5.29
5.52
5.99
6.62
7.19
7.45
7.28
6.76
6.16
5.77
5.73
5.97
6.22
6.25
6.05
5.78
5.71
6.00
6.59
7.21
7.59
7.60
7.34
7.06
7.01
7.30
7.88
8.59
9.27
9.86
10.37
10.85
11.34
11.87
12.45
13.04
13.65
14.28
14.97
15.80
16.84
18.07
19.35
20.43
21.03
21.01
20.37
19.27
17.89
16.27
14.29
11.76
8.56
4.84
0.98
-2.51
-5.28
-7.21
-8.44
-9.24
-9.89
-10.58
-11.36
-12.27
-13.22
-14.11
-14.82
-15.26
-15.47
-15.57
-15.74
-16.08
-16.62
-17.26
-17.93
-18.63
-19.45
-20.48
-21.72
-23.10
-24.45
-25.65
-26.61
-27.33
-27.68
-27.52
-26.61
-24.80
-22.02
-18.39
-14.23
-9.93
-5.94
-2.70
-0.54
0.33
-0.05
-1.42
-3.36
-5.40
-7.13
-8.26
-8.72
-8.60
-8.18
-7.79
-7.76
-8.26
-9.31
-10.75
-12.37
-14.03
-15.72
-17.44
-19.09
-20.40
-20.94
-20.37
-18.60
-15.86
-12.68
-9.63
-7.11
-5.31
-4.13
-3.38
-2.80
-2.17
-1.29
-0.09
1.43
3.10
4.67
5.90
6.64
6.89
6.84
6.67
6.59
6.70
7.01
7.48
8.03
8.61
9.18
9.69
10.08
10.27
10.23
9.96
9.58
9.24
9.02
8.90
8.70
8.21
7.32
6.12
4.85
3.80
3.17
2.96
3.04
3.21
3.31
3.24
2.94
2.42
1.77
1.13
0.72
0.63
0.86
1.18
1.33
1.10
0.48
-0.30
-0.95
-1.17
-0.83
0.06
1.36
2.90
4.46
5.81
6.76
7.17
7.03
6.51
5.89
5.46
5.41
5.78
6.40
7.02
7.36
7.33
6.96
6.47
6.11
6.06
6.38
6.99
7.70
8.29
8.63
8.71
8.62
8.47
8.32
8.08
7.60
6.75
5.54
4.16
2.95
2.14
1.76
1.50
0.93
-0.26
-2.02
-3.93
-5.44
-6.21
-6.27
-6.01
-5.91
-6.31
-7.20
-8.31
-9.25
-9.81
-10.03
-10.20
-10.61
-11.45
-12.61
-13.82
-14.71
-15.04
-14.80
-14.15
-13.31
-12.40
-11.43
-10.26
-8.79
-6.99
-4.87
-2.43
0.44
3.87
7.88
12.29
16.68
20.47
23.23
24.73
25.02
24.39
23.18
21.71
20.14
18.53
16.89
15.19
13.49
11.90
10.57
9.57
8.88
8.30
7.60
6.53
5.01
3.11
1.03
-1.02
-2.83
-4.27
-5.29
-5.88
-6.09
-5.99
-5.71
-5.34
-4.94
-4.55
-4.17
-3.81
-3.53
-3.39
-3.41
-3.58
-3.85
-4.15
-4.46
-4.84
-5.34
-6.04
-6.92
-7.88
-8.71
-9.21
-9.28
-9.00
-8.65
-8.56
-8.98
-9.93
-11.12
-12.10
-12.42
-11.84
-10.45
-8.60
-6.74
-5.24
-4.28
-3.81
-3.67
-3.68
-3.72
-3.75
-3.78
-3.83
-3.84
-3.77
-3.52
-3.08
-2.48
-1.84
-1.29
-0.86
-0.50
-0.06
0.60
1.55
2.74
3.98
5.10
5.99
6.57
6.90
6.98
6.85
6.54
6.11
5.65
5.26
5.02
4.96
5.11
5.47
6.04
6.76
7.47
7.98
8.08
7.81
7.33
6.95
6.87
7.14
7.59
7.99
8.16
8.03
7.65
7.07
6.35
5.47
4.43
3.27
2.02
0.68
-0.76
-2.28
-3.83
-5.22
-6.25
-6.75
-6.76
-6.47
-6.20
-6.24
-6.69
-7.49
-8.37
-9.01
-9.20
-8.91
-8.31
-7.71
-7.40
-7.61
-8.33
-9.41
-10.59
-11.62
-12.29
-12.50
-12.23
-11.51
-10.40
-9.00
-7.45
-5.88
-4.44
-3.23
-2.29
-1.54
-0.86
-0.11
0.79
1.83
2.95
4.01
4.92
5.64
6.14
6.48
6.65
6.63
6.40
5.98
5.48
5.05
4.81
4.79
4.89
4.92
4.77
4.45
4.11
3.97
4.19
4.73
5.35
5.74
5.66
5.06
4.12
3.12
2.32
1.84
1.64
1.56
1.45
1.21
0.84
0.39
-0.12
-0.73
-1.50
-2.47
-3.61
-4.83
-6.04
-7.18
-8.20
-9.03
-9.57
-9.69
-9.29
-8.35
-6.99
-5.42
-3.93
-2.74
-2.04
-1.81
-1.97
-2.34
-2.71
-2.92
-2.87
-2.53
-1.94
-1.19
-0.41
0.33
0.97
1.54
2.11
2.74
3.44
4.16
4.79
5.22
5.44
5.51
5.53
5.59
5.68
5.73
5.66
5.47
5.22
5.00
4.92
5.01
5.20
5.38
5.40
5.16
4.61
3.79
2.85
1.93
1.18
0.64
0.23
-0.17
-0.67
-1.27
-1.90
-2.44
-2.86
-3.20
-3.54
-3.94
-4.39
-4.82
-5.14
-5.35
-5.46
-5.55
-5.67
-5.80
-5.89
-5.86
-5.70
-5.42
-5.12
-4.85
-4.68
-4.57
-4.39
-4.01
-3.26
-2.16
-0.85
0.38
1.22
1.53
1.35
0.96
0.68
0.77
1.27
2.05
2.93
3.74
4.41
4.97
5.49
5.98
6.42
6.72
6.79
6.57
6.04
5.32
4.59
4.02
3.72
3.67
3.75
3.78
3.60
3.20
2.66
2.13
1.73
1.49
1.33
1.11
0.71
0.10
-0.65
-1.39
-1.99
-2.40
-2.71
-3.05
-3.55
-4.24
-5.08
-6.02
-7.05
-8.20
-9.48
-10.77
-11.85
-12.48
-12.52
-11.97
-11.04
-9.98
-9.05
-8.40
-8.05
-7.97
-8.02
-8.08
-8.01
-7.72
-7.18
-6.38
-5.38
-4.23
-3.00
-1.76
-0.56
0.56
1.61
2.63
3.59
4.49
5.24
5.78
6.10
6.28
6.44
6.65
6.91
7.08
7.04
6.71
6.16
5.54
5.09
4.91
5.00
5.26
5.52
5.63
5.54
5.29
4.99
4.80
4.81
5.07
5.47
5.83
5.91
5.55
4.72
3.49
2.06
0.59
-0.75
-1.91
-2.87
-3.64
-4.24
-4.69
-5.03
-5.31
-5.58
-5.88
-6.27
-6.79
-7.47
-8.22
-8.86
-9.18
-8.98
-8.28
-7.28
-6.30
-5.61
-5.32
-5.29
-5.28
-5.07
-4.51
-3.65
-2.59
-1.47
-0.35
0.77
1.91
3.06
4.14
5.08
5.77
6.21
6.47
6.69
7.04
7.65
8.55
9.65
10.74
11.55
11.90
11.75
11.26
10.71
10.34
10.29
10.46
10.67
10.70
10.42
9.90
9.28
8.69
8.19
7.71
7.15
6.50
5.83
5.27
4.89
4.57
4.12
3.33
2.15
0.74
-0.60
-1.61
-2.11
-2.14
-1.85
-1.44
-1.11
-1.03
-1.30
-1.97
-3.00
-4.25
-5.50
-6.58
-7.44
-8.18
-9.01
-10.12
-11.59
-13.37
-15.27
-17.00
-18.21
-18.57
-17.83
-15.90
-12.91
-9.25
-5.44
-1.99
0.75
2.71
4.06
5.13
6.21
7.41
8.63
9.59
10.01
9.74
8.81
7.47
6.02
4.72
3.74
3.14
2.92
3.07
3.57
4.36
5.34
6.35
7.19
7.71
7.84
7.71
7.56
7.65
8.24
9.39
10.99
12.75
14.42
15.81
16.92
17.90
18.96
20.22
21.70
23.32
25.03
26.82
28.84
31.20
33.99
37.15
40.55
44.03
47.44
50.61
53.33
55.26
55.99
55.16
52.57
48.30
42.65
36.10
29.05
21.74
14.22
6.45
-1.52
-9.46
-16.97
-23.67
-29.37
-34.06
-37.92
-41.02
-43.26
-44.29
-43.68
-41.22
-37.01
-31.59
-25.67
-19.94
-14.86
-10.58
-6.96
-3.75
-0.69
2.39
5.49
8.48
11.12
13.23
14.71
15.62
16.16
16.52
16.88
17.26
17.60
17.75
17.55
16.88
15.64
13.82
11.51
8.87
6.13
3.44
0.87
-1.67
-4.30
-7.08
-9.94
-12.69
-15.15
-17.28
-19.15
-20.94
-22.81
-24.85
-26.96
-29.01
-30.80
-32.21
-33.18
-33.77
-34.12
-34.46
-35.03
-36.05
-37.62
-39.68
-41.98
-44.12
-45.71
-46.43
-46.17
-45.05
-43.38
-41.58
-40.00
-38.90
-38.34
-38.18
-38.19
-38.09
-37.65
-36.81
-35.66
-34.42
-33.36
-32.69
-32.47
-32.68
-33.23
-34.02
-34.91
-35.70
-36.15
-36.07
-35.39
-34.21
-32.75
-31.18
-29.52
-27.65
-25.38
-22.62
-19.46
-16.12
-12.80
-9.50
-5.95
-1.79
3.25
9.08
15.31
21.29
26.47
30.50
33.26
34.82
35.28
34.75
33.39
31.42
29.21
27.17
25.65
24.82
24.68
25.08
25.86
26.80
27.74
28.49
28.89
28.87
28.48
27.85
27.17
26.57
26.09
25.60
24.96
24.01
22.71
21.11
19.41
17.78
16.34
15.09
13.95
12.83
11.65
10.42
9.16
7.92
6.76
5.74
4.93
4.38
4.07
3.90
3.72
3.42
2.91
2.16
1.20
0.12
-1.00
-2.05
-2.92
-3.52
-3.81
-3.85
-3.73
-3.59
-3.49
-3.52
-3.79
-4.41
-5.50
-7.02
-8.74
-10.28
-11.25
-11.41
-10.86
-9.95
-9.10
-8.68
-8.78
-9.19
-9.55
-9.47
-8.71
-7.26
-5.32
-3.23
-1.36
0.04
0.86
1.16
1.08
0.83
0.61
0.56
0.81
1.40
2.31
3.38
4.35
4.94
4.99
4.56
3.85
3.14
2.60
2.33
2.26
2.34
2.52
2.78
3.05
3.19
2.97
2.18
0.83
-0.83
-2.36
-3.28
-3.28
-2.35
-0.73
1.16
2.91
4.25
5.13
5.61
5.87
6.03
6.16
6.15
5.87
5.23
4.27
3.25
2.55
2.53
3.36
4.86
6.59
8.04
8.79
8.68
7.77
6.11
3.62
0.09
-4.67
-10.57
-17.08
-23.36
-28.46
-31.72
-32.92
-32.29
-30.27
-27.26
-23.44
-18.75
-13.05
-6.29
1.39
9.66
18.11
26.35
34.12
41.20
47.37
52.35
55.77
57.29
56.75
54.28
50.35
45.61
40.70
36.02
31.66
27.42
23.10
18.60
14.04
9.67
5.72
2.29
-0.70
-3.40
-5.90
-8.21
-10.19
-11.71
-12.70
-13.18
-13.30
-13.25
-13.22
-13.35
-13.69
-14.22
-14.86
-15.54
-16.25
-17.04
-18.00
-19.12
-20.30
-21.29
-21.82
-21.72
-20.98
-19.85
-18.62
-17.55
-16.74
-16.09
-15.45
-14.73
-14.01
-13.52
-13.55
-14.28
-15.64
-17.39
-19.13
-20.49
-21.25
-21.34
-20.83
-19.81
-18.40
-16.70
-14.84
-13.01
-11.40
-10.16
-9.32
-8.76
-8.26
-7.52
-6.34
-4.68
-2.68
-0.63
1.17
2.49
3.27
3.56
3.50
3.21
2.76
2.21
1.65
1.22
1.09
1.37
2.05
2.97
3.89
4.56
4.92
4.99
4.90
4.80
4.76
4.78
4.83
4.87
4.84
4.70
4.47
4.14
3.80
3.47
3.14
2.68
1.95
0.86
-0.54
-2.02
-3.33
-4.29
-4.92
-5.45
-6.17
-7.26
-8.69
-10.17
-11.31
-11.77
-11.38
-10.25
-8.68
-7.08
-5.76
-4.84
-4.23
-3.69
-3.03
-2.14
-1.07
0.04
1.10
2.04
2.87
3.60
4.16
4.47
4.48
4.27
4.04
4.04
4.49
5.45
6.78
8.22
9.47
10.25
10.40
9.93
8.97
7.77
6.63
5.81
5.48
5.69
6.34
7.27
8.25
9.06
9.50
9.47
8.99
8.27
7.64
7.38
7.59
8.12
8.62
8.71
8.16
6.98
5.34
3.49
1.58
-0.38
-2.48
-4.77
-7.19
-9.53
-11.48
-12.77
-13.22
-12.83
-11.73
-10.20
-8.53
-6.95
-5.63
-4.59
-3.76
-3.01
-2.16
-1.13
0.15
1.57
3.02
4.32
5.34
6.04
6.43
6.57
6.55
6.48
6.50
6.72
7.18
7.80
8.44
8.89
9.02
8.79
8.24
7.47
6.59
5.67
4.74
3.80
2.84
1.83
0.80
-0.24
-1.26
-2.25
-3.25
-4.33
-5.58
-7.06
-8.79
-10.71
-12.75
-14.84
-16.98
-19.19
-21.55
-24.12
-26.94
-30.02
-33.37
-36.91
-40.56
-44.22
-47.78
-51.16
-54.24
-56.85
-58.80
-59.82
-59.66
-58.12
-55.06
-50.42
-44.22
-36.52
-27.42
-17.07
-5.71
6.29
18.39
29.89
40.10
48.38
54.41
58.16
59.94
60.25
59.66
58.61
57.38
56.07
54.66
53.15
51.50
49.74
47.90
45.96
43.93
41.80
39.66
37.62
35.81
34.28
32.98
31.78
30.48
28.97
27.24
25.38
23.47
21.61
19.81
18.11
16.54
15.16
14.05
13.21
12.58
12.02
11.42
10.70
9.90
9.14
8.58
8.33
8.44
8.86
9.42
9.94
10.23
10.19
9.81
9.15
8.33
7.48
6.63
5.76
4.79
3.68
2.39
1.00
-0.42
-1.89
-3.48
-5.33
-7.55
-10.12
-12.80
-15.21
-16.90
-17.55
-17.00
-15.35
-12.95
-10.25
-7.74
-5.80
-4.56
-3.90
-3.52
-3.08
-2.32
-1.19
0.23
1.76
3.20
4.41
5.29
5.76
5.82
5.53
5.05
4.61
4.42
4.61
5.21
6.13
7.25
8.42
9.53
10.46
11.10
11.42
11.42
11.21
10.92
10.70
10.60
10.60
10.57
10.37
9.91
9.17
8.23
7.16
6.04
4.88
3.68
2.44
1.17
-0.09
-1.36
-2.69
-4.18
-5.87
-7.70
-9.53
-11.14
-12.40
-13.31
-14.07
-14.99
-16.34
-18.22
-20.45
-22.67
-24.43
-25.36
-25.27
-24.22
-22.39
-20.07
-17.61
-15.30
-13.36
-11.89
-10.86
-10.09
-9.34
-8.38
-7.07
-5.44
-3.64
-1.93
-0.51
0.52
1.24
1.87
2.64
3.67
4.92
6.22
7.34
8.11
8.53
8.74
8.90
9.16
9.56
10.05
10.54
10.91
11.10
11.07
10.82
10.37
9.80
9.16
8.50
7.84
7.15
6.39
5.56
4.67
3.80
2.98
2.21
1.41
0.47
-0.67
-2.01
-3.44
-4.89
-6.33
-7.81
-9.39
-11.07
-12.70
-13.97
-14.56
-14.29
-13.22
-11.64
-9.91
-8.38
-7.16
-6.18
-5.17
-3.91
-2.31
-0.47
1.35
2.83
3.74
4.03
3.84
3.42
3.03
2.84
2.92
3.21
3.62
4.07
4.48
4.79
4.90
4.73
4.23
3.42
2.38
1.26
0.14
-0.94
-2.01
-3.13
-4.33
-5.56
-6.78
-7.98
-9.24
-10.64
-12.25
-13.94
-15.46
-16.47
-16.75
-16.27
-15.27
-14.13
-13.25
-12.88
-13.08
-13.73
-14.59
-15.47
-16.24
-16.92
-17.60
-18.44
-19.56
-20.95
-22.48
-23.89
-24.89
-25.20
-24.68
-23.30
-21.20
-18.56
-15.64
-12.66
-9.82
-7.24
-4.99
-3.08
-1.44
0.04
1.52
3.15
5.00
7.05
9.20
11.25
13.01
14.35
15.24
15.81
16.28
16.81
17.46
18.09
18.49
18.49
18.13
17.67
17.43
17.65
18.28
19.04
19.59
19.71
19.46
19.05
18.67
18.30
17.69
16.48
14.45
11.70
8.57
5.56
3.01
1.07
-0.34
-1.39
-2.21
-2.83
-3.32
-3.79
-4.42
-5.40
-6.77
-8.39
-9.96
-11.19
-11.91
-12.15
-12.14
-12.15
-12.38
-12.88
-13.61
-14.45
-15.24
-15.88
-16.29
-16.38
-16.04
-15.20
-13.77
-11.78
-9.35
-6.71
-4.17
-2.00
-0.36
0.76
1.51
2.15
2.90
3.89
5.12
6.48
7.78
8.85
9.56
9.89
9.90
9.68
9.39
9.16
9.08
9.24
9.63
10.18
10.76
11.23
11.48
11.49
11.37
11.32
11.52
12.11
13.08
14.36
15.78
17.19
18.44
19.37
19.84
19.75
19.06
17.85
16.22
14.33
12.27
10.13
7.95
5.78
3.61
1.38
-1.07
-3.97
-7.49
-11.68
-16.36
-21.26
-26.09
-30.69
-35.09
-39.46
-43.95
-48.62
-53.44
-58.31
-63.13
-67.73
-71.90
-75.24
-77.35
-77.77
-76.21
-72.57
-66.95
-59.63
-50.97
-41.37
-31.24
-20.88
-10.47
-0.07
10.25
20.34
29.82
38.19
44.95
49.77
52.60
53.67
53.34
52.02
50.10
47.91
45.74
43.77
42.07
40.54
38.98
37.21
35.13
32.80
30.32
27.84
25.40
23.04
20.79
18.70
16.84
15.22
13.79
12.37
10.86
9.22
7.56
6.07
4.92
4.15
3.66
3.24
2.68
1.85
0.78
-0.41
-1.60
-2.77
-3.98
-5.39
-7.12
-9.14
-11.20
-12.88
-13.74
-13.53
-12.28
-10.34
-8.24
-6.47
-5.34
-4.90
-5.01
-5.41
-5.86
-6.11
-5.93
-5.13
-3.59
-1.40
1.16
3.62
5.57
6.86
7.70
8.59
10.15
12.71
16.18
19.97
23.19
24.92
24.56
22.00
17.69
12.48
7.33
3.00
-0.09
-1.89
-2.59
-2.46
-1.65
-0.22
1.85
4.59
8.04
12.16
16.70
21.05
24.09
24.21
19.50
8.26
-10.47
-36.33
-67.64
-101.69
-135.36
-165.78
-190.61
-208.20
-217.35
-217.26
-207.74
-189.47
-164.13
-134.18
-102.26
-70.56
-40.39
-12.20
13.98
38.07
59.74
78.41
93.53
104.80
112.31
116.46
117.89
117.27
115.22
112.23
108.58
104.39
99.69
94.59
89.31
84.16
79.33
74.87
70.60
66.26
61.65
56.80
51.92
47.34
43.30
39.90
36.99
34.31
31.61
28.72
25.69
22.68
19.89
17.48
15.47
13.79
12.27
10.71
9.00
7.10
5.10
3.16
1.39
-0.14
-1.49
-2.76
-4.03
-5.33
-6.64
-7.94
-9.16
-10.28
-11.20
-11.82
-12.00
-11.63
-10.72
-9.35
-7.74
-6.11
-4.63
-3.40
-2.43
-1.66
-1.01
-0.36
0.42
1.34
2.35
3.33
4.14
4.71
5.07
5.32
5.56
5.88
6.25
6.61
6.90
7.07
7.16
7.17
7.11
6.96
6.69
6.34
5.99
5.77
5.71
5.75
5.71
5.41
4.74
3.78
2.69
1.71
1.06
0.79
0.87
1.16
1.49
1.74
1.84
1.77
1.60
1.39
1.14
0.80
0.24
-0.67
-1.97
-3.58
-5.26
-6.70
-7.60
-7.76
-7.17
-5.97
-4.43
-2.81
-1.27
0.19
1.64
3.18
4.85
6.56
8.19
9.69
11.10
12.53
14.15
16.01
18.06
20.15
22.14
23.94
25.58
27.15
28.77
30.58
32.69
35.20
38.13
41.38
44.68
47.63
49.83
51.02
51.24
50.81
50.23
50.04
50.57
51.88
53.57
54.71
54.00
50.07
41.93
29.43
13.28
-5.20
-24.72
-44.39
-63.87
-83.05
-101.48
-118.11
-131.46
-140.10
-143.40
-141.70
-136.24
-128.63
-120.37
-112.61
-106.11
-101.31
-98.36
-97.03
-96.59
-95.80
-93.19
-87.41
-77.71
-64.15
-47.64
-29.58
-11.54
5.25
20.00
32.53
43.02
51.81
59.19
65.26
69.92
73.02
74.51
74.50
73.28
71.19
68.50
65.34
61.79
57.91
53.88
49.92
46.27
42.99
40.02
37.16
34.23
31.17
28.02
24.87
21.75
18.62
15.37
11.97
8.47
5.06
1.94
-0.68
-2.77
-4.37
-5.68
-6.91
-8.24
-9.70
-11.20
-12.51
-13.35
-13.55
-13.07
-12.03
-10.67
-9.19
-7.71
-6.22
-4.66
-2.99
-1.30
0.26
1.54
2.50
3.25
4.02
5.03
6.35
7.79
9.03
9.73
9.74
9.19
8.46
7.95
7.99
8.64
9.76
11.11
12.40
13.44
14.09
14.37
14.45
14.65
15.44
17.31
20.60
25.35
31.21
37.49
43.39
48.32
52.15
55.25
58.41
62.46
67.86
74.33
80.88
86.01
88.32
87.04
82.34
75.33
67.64
60.83
55.85
52.76
50.81
48.77
45.45
40.02
32.20
22.11
10.19
-2.91
-16.32
-28.85
-39.01
-45.35
-46.92
-43.79
-37.28
-29.69
-23.59
-20.98
-22.48
-27.18
-32.89
-37.05
-37.78
-34.69
-29.31
-24.74
-24.78
-32.74
-50.26
-76.42
-107.48
-137.38
-159.21
-167.27
-159.11
-136.61
-105.50
-73.32
-46.71
-29.25
-20.81
-18.70
-19.53
-20.97
-22.23
-23.47
-24.79
-25.65
-25.12
-22.65
-18.69
-14.58
-11.93
-11.58
-13.24
-15.54
-16.79
-15.80
-12.42
-7.52
-2.55
1.08
2.57
1.98
0.02
-2.25
-3.90
-4.43
-3.87
-2.75
-1.74
-1.45
-2.14
-3.66
-5.52
-7.08
-7.83
-7.55
-6.42
-4.94
-3.72
-3.23
-3.63
-4.63
-5.70
-6.24
-5.88
-4.64
-2.90
-1.32
-0.56
-1.01
-2.61
-4.86
-7.01
-8.29
-8.26
-6.92
-4.68
-2.12
0.18
1.88
2.93
3.40
3.45
3.21
2.78
2.25
1.73
1.35
1.13
1.09
1.15
1.22
1.20
1.06
0.79
0.44
0.06
-0.30
-0.60
-0.83
-0.99
-1.06
-1.05
-0.94
-0.79
-0.62
-0.47
-0.32
-0.13
0.16
0.56
1.04
1.54
1.89
1.92
1.40
0.14
-1.97
-4.90
-8.39
-12.05
-15.33
-17.79
-19.06
-19.02
-17.76
-15.58
-12.84
-9.92
-7.12
-4.58
-2.34
-0.40
1.18
2.33
2.99
3.20
3.17
3.17
3.49
4.23
5.29
6.44
7.38
7.87
7.79
7.14
6.01
4.55
2.99
1.58
0.59
0.18
0.35
0.96
1.70
2.22
2.29
1.80
0.83
-0.44
-1.87
-3.35
-4.92
-6.62
-8.44
-10.34
-12.19
-13.90
-15.41
-16.72
-17.82
-18.67
-19.22
-19.44
-19.39
-19.21
-19.13
-19.32
-19.86
-20.67
-21.54
-22.23
-22.48
-22.15
-21.22
-19.87
-18.38
-17.04
-16.05
-15.39
-14.85
-14.16
-13.06
-11.49
-9.52
-7.34
-5.12
-2.99
-1.00
0.82
2.45
3.84
4.97
5.91
6.77
7.71
8.82
10.13
11.59
13.17
14.92
16.94
19.25
21.74
24.07
25.75
26.37
25.76
24.11
21.92
19.85
18.49
18.11
18.66
19.79
21.02
21.94
22.26
21.90
20.89
19.33
17.30
14.86
12.07
9.11
6.29
4.00
2.56
2.05
2.29
2.86
3.30
3.23
2.45
0.92
-1.30
-4.02
-6.91
-9.45
-10.97
-10.89
-8.92
-5.33
-0.85
3.52
6.94
9.00
9.82
9.93
9.99
10.47
11.48
12.87
14.27
15.34
15.87
15.84
15.37
14.65
13.87
13.10
12.35
11.57
10.65
9.48
7.99
6.17
4.09
1.88
-0.24
-2.04
-3.30
-3.88
-3.75
-2.99
-1.76
-0.31
1.14
2.39
3.35
3.97
4.27
4.25
3.94
3.39
2.68
1.89
1.06
0.17
-0.86
-2.11
-3.58
-5.14
-6.60
-7.74
-8.44
-8.72
-8.74
-8.64
-8.58
-8.57
-8.61
-8.64
-8.63
-8.55
-8.40
-8.16
-7.81
-7.33
-6.74
-6.06
-5.37
-4.71
-4.09
-3.50
-2.92
-2.33
-1.79
-1.38
-1.16
-1.13
-1.22
-1.30
-1.22
-0.96
-0.63
-0.40
-0.41
-0.66
-1.01
-1.22
-1.13
-0.68
0.01
0.71
1.19
1.35
1.22
0.95
0.71
0.57
0.52
0.46
0.30
0.02
-0.32
-0.61
-0.75
-0.69
-0.49
-0.20
0.10
0.39
0.71
1.07
1.46
1.82
2.07
2.16
2.06
1.85
1.62
1.46
1.44
1.54
1.74
1.99
2.27
2.53
2.74
2.81
2.66
2.22
1.51
0.68
-0.08
-0.61
-0.87
-0.95
-1.06
-1.36
-1.87
-2.48
-3.01
-3.30
-3.33
-3.26
-3.25
-3.44
-3.86
-4.38
-4.84
-5.08
-5.05
-4.78
-4.38
-3.96
-3.60
-3.36
-3.25
-3.23
-3.23
-3.25
-3.29
-3.44
-3.77
-4.27
-4.86
-5.37
-5.66
-5.68
-5.50
-5.29
-5.21
-5.36
-5.69
-6.07
-6.26
-6.11
-5.50
-4.43
-3.03
-1.48
-0.00
1.19
1.97
2.35
2.44
2.41
2.39
2.44
2.56
2.72
2.88
3.06
3.23
3.35
3.39
3.31
3.17
3.06
3.07
3.24
3.46
3.60
3.57
3.40
3.19
3.04
2.97
2.90
2.72
2.37
1.94
1.55
1.32
1.26
1.26
1.12
0.70
0.00
-0.85
-1.60
-2.00
-1.91
-1.34
-0.50
0.38
1.05
1.44
1.57
1.59
1.63
1.76
1.98
2.23
2.49
2.74
2.98
3.18
3.28
3.18
2.86
2.31
1.63
0.94
0.33
-0.15
-0.48
-0.69
-0.82
-0.86
-0.81
-0.63
-0.31
0.08
0.45
0.67
0.66
0.41
0.02
-0.38
-0.67
-0.81
-0.81
-0.70
-0.48
-0.13
0.36
0.94
1.52
1.95
2.11
2.02
1.75
1.48
1.37
1.49
1.84
2.36
2.95
3.51
3.99
4.35
4.55
4.59
4.48
4.30
4.15
4.11
4.20
4.39
4.58
4.70
4.75
4.72
4.64
4.43
3.99
3.24
2.22
1.04
-0.07
-0.95
-1.54
-1.90
-2.12
-2.29
-2.41
-2.43
-2.30
-2.02
-1.66
-1.33
-1.12
-1.07
-1.16
-1.27
-1.27
-1.06
-0.67
-0.26
-0.04
-0.17
-0.69
-1.46
-2.21
-2.73
-2.92
-2.85
-2.68
-2.55
-2.52
-2.54
-2.53
-2.43
-2.30
-2.24
-2.34
-2.65
-3.07
-3.46
-3.64
-3.52
-3.15
-2.66
-2.24
-1.96
-1.80
-1.67
-1.46
-1.11
-0.70
-0.36
-0.18
-0.19
-0.33
-0.48
-0.54
-0.51
-0.45
-0.43
-0.49
-0.57
-0.61
-0.57
-0.51
-0.54
-0.82
-1.34
-2.00
-2.56
-2.81
-2.69
-2.30
-1.86
-1.57
-1.55
-1.73
-1.97
-2.11
-2.05
-1.82
-1.48
-1.14
-0.88
-0.77
-0.83
-1.00
-1.20
-1.27
-1.13
-0.77
-0.31
0.06
0.19
0.04
-0.28
-0.55
-0.55
-0.22
0.34
0.94
1.41
1.71
1.92
2.15
2.47
2.81
3.04
3.05
2.84
2.54
2.32
2.29
2.42
2.58
2.55
2.21
1.53
0.62
-0.30
-0.98
-1.22
-0.95
-0.21
0.79
1.80
2.59
3.01
3.02
2.67
2.07
1.36
0.67
0.11
-0.29
-0.53
-0.70
-0.86
-1.04
-1.21
-1.29
-1.21
-1.00
-0.73
-0.53
-0.49
-0.63
-0.87
-1.14
-1.37
-1.55
-1.70
-1.79
-1.81
-1.73
-1.57
-1.40
-1.30
-1.27
-1.27
-1.16
-0.88
-0.42
0.11
0.54
0.77
0.76
0.59
0.32
0.06
-0.14
-0.24
-0.13
0.21
0.77
1.41
1.92
2.12
1.97
1.59
1.20
0.95
0.88
0.91
0.93
0.85
0.72
0.61
0.59
0.66
0.76
0.79
0.67
0.39
-0.05
-0.60
-1.19
-1.75
-2.17
-2.41
-2.49
-2.47
-2.45
-2.49
-2.55
-2.55
-2.44
-2.25
-2.06
-1.96
-2.00
-2.16
-2.35
-2.49
-2.54
-2.53
-2.50
-2.51
-2.56
-2.66
-2.76
-2.76
-2.61
-2.26
-1.78
-1.28
-0.95
-0.88
-1.07
-1.43
-1.82
-2.15
-2.40
-2.56
-2.65
-2.65
-2.52
-2.25
-1.89
-1.51
-1.22
-1.05
-1.04
-1.20
-1.54
-2.05
-2.66
-3.25
-3.66
-3.80
-3.62
-3.20
-2.67
-2.15
-1.79
-1.68
-1.86
-2.29
-2.86
-3.32
-3.44
-3.03
-2.08
-0.75
0.68
1.93
2.88
3.56
4.09
4.64
5.25
5.86
6.37
6.69
6.82
6.91
7.13
7.56
8.16
8.73
9.03
8.87
8.27
7.40
6.50
5.80
5.34
5.01
4.60
3.98
3.13
2.19
1.30
0.59
0.04
-0.41
-0.82
-1.20
-1.52
-1.72
-1.80
-1.80
-1.82
-1.92
-2.20
-2.67
-3.35
-4.18
-5.07
-5.85
-6.39
-6.58
-6.46
-6.16
-5.89
-5.80
-6.01
-6.50
-7.20
-8.03
-8.95
-9.93
-10.88
-11.72
-12.28
-12.47
-12.30
-11.89
-11.42
-10.94
-10.39
-9.56
-8.30
-6.66
-4.96
-3.64
-3.12
-3.58
-4.97
-7.00
-9.27
-11.32
-12.57
-12.45
-10.51
-6.67
-1.40
4.29
9.10
11.88
12.01
9.60
5.43
0.63
-3.62
-6.44
-7.34
-6.26
-3.42
0.74
5.69
10.87
15.69
19.70
22.63
24.45
25.36
25.68
25.62
25.21
24.29
22.63
20.13
16.86
13.08
9.09
5.07
1.08
-2.92
-6.93
-10.95
-14.89
-18.66
-22.23
-25.60
-28.77
-31.71
-34.47
-37.17
-40.03
-43.24
-46.83
-50.49
-53.50
-54.86
-53.50
-48.69
-40.27
-28.87
-15.80
-2.72
8.75
17.47
22.98
25.48
25.61
24.16
21.92
19.56
17.59
16.36
15.99
16.28
16.85
17.22
17.06
16.32
15.23
14.11
13.08
12.08
11.00
10.09
10.18
12.45
17.91
26.72
37.91
49.61
59.80
67.10
71.19
72.67
72.47
71.24
69.14
65.92
61.25
55.00
47.20
37.91
27.13
14.91
1.53
-12.38
-25.81
-37.65
-47.01
-53.49
-57.23
-58.82
-59.14
-59.14
-59.58
-60.79
-62.55
-64.03
-64.07
-61.65
-56.28
-48.31
-38.74
-28.86
-19.66
-11.54
-4.37
2.27
8.70
14.95
20.80
26.00
30.30
33.58
35.72
36.52
35.80
33.44
29.54
24.45
18.72
12.90
7.43
2.54
-1.79
-5.64
-9.12
-12.18
-14.61
-16.18
-16.74
-16.37
-15.39
-14.23
-13.24
-12.58
-12.19
-11.91
-11.60
-11.23
-10.83
-10.39
-9.88
-9.19
-8.28
-7.21
-6.13
-5.22
-4.56
-4.06
-3.54
-2.82
-1.79
-0.53
0.74
1.72
2.17
1.97
1.17
-0.04
-1.40
-2.67
-3.67
-4.34
-4.74
-5.04
-5.43
-6.02
-6.77
-7.44
-7.68
-7.19
-5.87
-3.90
-1.68
0.36
1.89
2.85
3.40
3.76
4.13
4.58
5.11
5.69
6.32
7.02
7.77
8.51
9.08
9.35
9.27
8.97
8.62
8.42
8.43
8.64
8.92
9.21
9.47
9.73
10.02
10.30
10.49
10.50
10.29
9.91
9.47
9.03
8.62
8.21
7.78
7.37
7.04
6.89
6.92
7.03
7.06
6.84
6.26
5.36
4.29
3.22
2.29
1.54
0.93
0.37
-0.20
-0.85
-1.59
-2.45
-3.43
-4.54
-5.74
-7.00
-8.29
-9.60
-10.95
-12.36
-13.80
-15.13
-16.15
-16.59
-16.27
-15.14
-13.30
-11.00
-8.57
-6.29
-4.35
-2.87
-1.85
-1.21
-0.81
-0.46
0.02
0.79
1.90
3.31
4.85
6.31
7.49
8.29
8.73
8.98
9.19
9.47
9.82
10.15
10.36
10.40
10.32
10.19
10.03
9.82
9.51
9.09
8.68
8.43
8.45
8.74
9.14
9.41
9.41
9.12
8.68
8.26
7.98
7.81
7.65
7.34
6.80
6.03
5.15
4.31
3.64
3.18
2.89
2.67
2.42
2.06
1.56
0.92
0.14
-0.80
-1.89
-3.09
-4.29
-5.37
-6.23
-6.87
-7.42
-8.10
-9.10
-10.47
-12.04
-13.46
-14.30
-14.25
-13.25
-11.58
-9.63
-7.82
-6.38
-5.32
-4.52
-3.85
-3.24
-2.72
-2.30
-1.92
-1.44
-0.70
0.33
1.54
2.70
3.59
4.15
4.45
4.64
4.89
5.24
5.70
6.16
6.59
6.94
7.24
7.51
7.73
7.89
7.95
7.90
7.74
7.49
7.18
6.83
6.47
6.11
5.77
5.43
5.07
4.64
4.12
3.50
2.83
2.18
1.65
1.30
1.13
1.07
0.95
0.61
-0.11
-1.17
-2.46
-3.75
-4.86
-5.73
-6.41
-7.09
-7.92
-8.95
-10.09
-11.14
-11.87
-12.13
-11.82
-10.99
-9.80
-8.43
-7.03
-5.69
-4.41
-3.13
-1.83
-0.59
0.47
1.23
1.67
1.89
2.04
2.30
2.69
3.16
3.57
3.85
4.04
4.29
4.73
5.39
6.21
6.99
7.55
7.79
7.71
7.46
7.16
6.94
6.80
6.64
6.33
5.80
5.05
4.23
3.49
2.94
2.61
2.39
2.15
1.79
1.31
0.75
0.14
-0.54
-1.36
-2.34
-3.39
-4.34
-5.02
-5.36
-5.50
-5.74
-6.37
-7.61
-9.38
-11.37
-13.10
-14.07
-14.02
-12.93
-11.11
-8.99
-7.00
-5.38
-4.11
-3.02
-1.94
-0.80
0.28
1.16
1.79
2.25
2.74
3.39
4.20
5.01
5.63
5.93
5.99
6.01
6.17
6.54
7.05
7.52
7.81
7.90
7.93
8.01
8.19
8.39
8.41
8.08
7.37
6.46
5.61
5.08
4.96
5.13
5.30
5.23
4.77
4.03
3.18
2.45
1.96
1.69
1.52
1.27
0.83
0.16
-0.69
-1.61
-2.47
-3.22
-3.85
-4.46
-5.17
-6.05
-7.17
-8.51
-9.98
-11.48
-12.87
-13.98
-14.62
-14.64
-13.88
-12.34
-10.11
-7.51
-4.90
-2.66
-1.08
-0.17
0.23
0.45
0.83
1.57
2.67
3.94
5.14
6.12
6.86
7.41
7.86
8.23
8.46
8.48
8.28
7.97
7.72
7.70
7.94
8.37
8.80
9.09
9.13
8.94
8.59
8.12
7.59
7.05
6.51
6.02
5.57
5.17
4.83
4.54
4.36
4.31
4.37
4.45
4.41
4.16
3.73
3.28
2.97
2.87
2.92
2.93
2.71
2.17
1.40
0.60
-0.01
-0.31
-0.39
-0.43
-0.71
-1.39
-2.46
-3.76
-5.01
-5.98
-6.60
-6.99
-7.39
-8.04
-9.03
-10.27
-11.51
-12.44
-12.85
-12.64
-11.82
-10.50
-8.79
-6.79
-4.63
-2.48
-0.52
1.03
2.05
2.54
2.64
2.62
2.75
3.20
3.96
4.86
5.66
6.19
6.42
6.48
6.58
6.88
7.42
8.08
8.65
8.95
8.95
8.74
8.51
8.43
8.51
8.65
8.71
8.57
8.28
7.99
7.88
8.02
8.31
8.51
8.37
7.80
6.90
5.94
5.19
4.81
4.77
4.91
5.05
5.06
4.97
4.88
4.93
5.13
5.40
5.54
5.40
4.90
4.14
3.28
2.49
1.87
1.39
0.96
0.51
0.00
-0.52
-1.01
-1.45
-1.91
-2.49
-3.27
-4.28
-5.45
-6.65
-7.68
-8.44
-8.90
-9.20
-9.50
-9.93
-10.50
-11.03
-11.23
-10.85
-9.76
-8.08
-6.06
-3.99
-2.16
-0.71
0.32
0.98
1.36
1.57
1.68
1.80
1.99
2.29
2.74
3.33
4.03
4.79
5.54
6.22
6.77
7.13
7.28
7.21
6.96
6.64
6.36
6.19
6.11
6.06
5.89
5.53
5.01
4.41
3.82
3.26
2.71
2.15
1.63
1.24
1.10
1.23
1.50
1.73
1.71
1.38
0.79
0.12
-0.46
-0.86
-1.09
-1.24
-1.39
-1.58
-1.82
-2.12
-2.47
-2.92
-3.53
-4.37
-5.41
-6.58
-7.74
-8.73
-9.50
-10.05
-10.48
-10.89
-11.28
-11.60
-11.71
-11.50
-10.92
-10.02
-8.87
-7.59
-6.28
-5.04
-3.98
-3.20
-2.75
-2.63
-2.75
-2.95
-3.06
-2.94
-2.53
-1.86
-1.07
-0.39
0.02
0.08
-0.14
-0.42
-0.51
-0.28
0.24
0.85
1.35
1.56
1.49
1.25
0.99
0.82
0.72
0.61
0.42
0.12
-0.24
-0.53
-0.68
-0.68
-0.60
-0.56
-0.65
-0.92
-1.35
-1.90
-2.49
-3.07
-3.60
-4.02
-4.30
-4.45
-4.50
-4.56
-4.69
-4.95
-5.37
-5.95
-6.68
-7.57
-8.55
-9.47
-10.07
-10.15
-9.58
-8.47
-7.08
-5.73
-4.69
-4.04
-3.72
-3.58
-3.46
-3.26
-2.95
-2.50
-1.92
-1.21
-0.39
0.48
1.30
1.97
2.42
2.63
2.65
2.52
2.32
2.08
1.83
1.58
1.39
1.31
1.41
1.69
2.09
2.48
2.73
2.77
2.61
2.36
2.14
2.03
2.05
2.13
2.18
2.15
2.03
1.86
1.70
1.58
1.55
1.59
1.61
1.52
1.24
0.71
0.03
-0.71
-1.36
-1.87
-2.25
-2.57
-2.88
-3.18
-3.44
-3.63
-3.79
-4.03
-4.45
-5.06
-5.78
-6.50
-7.10
-7.57
-7.93
-8.25
-8.54
-8.74
-8.78
-8.54
-7.99
-7.15
-6.12
-5.03
-4.01
-3.17
-2.57
-2.23
-2.05
-1.88
-1.60
-1.13
-0.48
0.26
0.97
1.55
1.94
2.16
2.31
2.44
2.62
2.87
3.18
3.50
3.77
3.97
4.08
4.12
4.15
4.21
4.27
4.31
4.26
4.09
3.83
3.53
3.30
3.17
3.15
3.18
3.16
3.03
2.80
2.55
2.35
2.28
2.34
2.46
2.55
2.52
2.35
2.04
1.63
1.19
0.78
0.42
0.14
-0.07
-0.22
-0.37
-0.53
-0.75
-1.08
-1.51
-2.05
-2.65
-3.24
-3.76
-4.19
-4.56
-4.93
-5.35
-5.82
-6.29
-6.71
-7.10
-7.49
-7.94
-8.42
-8.79
-8.87
-8.49
-7.62
-6.38
-4.98
-3.63
-2.52
-1.68
-1.11
-0.73
-0.49
-0.29
-0.09
0.18
0.55
1.05
1.66
2.30
2.86
3.26
3.40
3.31
3.07
2.80
2.61
2.56
2.61
2.69
2.75
2.77
2.78
2.77
2.75
2.66
2.49
2.23
1.99
1.91
2.05
2.40
2.80
3.08
3.09
2.80
2.31
1.75
1.23
0.77
0.37
-0.03
-0.45
-0.89
-1.31
-1.70
-2.06
-2.44
-2.90
-3.44
-4.06
-4.70
-5.32
-5.88
-6.40
-6.88
-7.33
-7.69
-7.87
-7.77
-7.35
-6.66
-5.81
-4.93
-4.14
-3.42
-2.76
-2.09
-1.43
-0.81
-0.28
0.14
0.48
0.77
1.04
1.29
1.50
1.65
1.79
1.95
2.21
2.58
3.01
3.40
3.64
3.70
3.58
3.39
3.19
3.02
2.88
2.69
2.44
2.15
1.90
1.79
1.84
2.01
2.15
2.13
1.85
1.37
0.87
0.50
0.39
0.48
0.61
0.58
0.24
-0.40
-1.21
-1.98
-2.60
-3.03
-3.34
-3.65
-4.05
-4.54
-5.10
-5.70
-6.34
-7.05
-7.79
-8.45
-8.83
-8.68
-7.88
-6.44
-4.60
-2.74
-1.21
-0.25
0.16
0.23
0.23
0.37
0.71
1.15
1.57
1.89
2.12
2.37
2.71
3.14
3.59
3.94
4.12
4.14
4.09
4.06
4.13
4.31
4.57
4.81
4.97
5.00
4.93
4.82
4.76
4.81
4.91
4.99
4.95
4.74
4.41
4.07
3.87
3.90
4.13
4.46
4.68
4.65
4.29
3.68
2.95
2.25
1.67
1.22
0.82
0.40
-0.05
-0.53
-1.01
-1.45
-1.87
-2.32
-2.80
-3.27
-3.71
-4.06
-4.35
-4.68
-5.18
-5.97
-7.10
-8.49
-9.95
-11.21
-12.03
-12.26
-11.88
-10.99
-9.75
-8.30
-6.80
-5.37
-4.13
-3.19
-2.53
-2.06
-1.64
-1.10
-0.38
0.48
1.37
2.16
2.80
3.32
3.72
4.03
4.22
4.25
4.15
3.98
3.85
3.83
3.94
4.15
4.44
4.78
5.11
5.38
5.51
5.44
5.16
4.75
4.34
4.07
4.01
4.11
4.28
4.37
4.35
4.24
4.13
4.05
3.97
3.76
3.28
2.47
1.42
0.37
-0.43
-0.84
-0.87
-0.75
-0.76
-1.12
-1.86
-2.81
-3.71
-4.30
-4.52
-4.50
-4.53
-4.89
-5.68
-6.80
-7.98
-8.90
-9.33
-9.24
-8.73
-7.96
-7.00
-5.87
-4.51
-2.95
-1.30
0.21
1.36
2.06
2.34
2.39
2.48
2.79
3.39
4.22
5.11
5.92
6.56
7.05
7.46
7.90
8.44
9.06
9.71
10.29
10.70
10.91
10.93
10.77
10.43
9.90
9.14
8.18
7.09
6.04
5.20
4.66
4.40
4.23
3.94
3.35
2.41
1.25
0.03
-1.05
-1.95
-2.69
-3.37
-4.09
-4.86
-5.63
-6.29
-6.79
-7.17
-7.57
-8.18
-9.12
-10.39
-11.82
-13.12
-13.95
-14.11
-13.50
-12.25
-10.57
-8.69
-6.84
-5.12
-3.58
-2.25
-1.17
-0.35
0.23
0.63
0.93
1.23
1.56
1.93
2.28
2.59
2.88
3.21
3.62
4.13
4.64
5.07
5.34
5.49
5.57
5.68
5.82
5.90
5.79
5.36
4.62
3.72
2.89
2.34
2.13
2.17
2.28
2.25
2.00
1.57
1.08
0.68
0.45
0.36
0.33
0.23
-0.06
-0.58
-1.32
-2.20
-3.11
-3.98
-4.80
-5.63
-6.58
-7.68
-8.86
-9.91
-10.61
-10.78
-10.40
-9.62
-8.57
-7.38
-6.10
-4.71
-3.26
-1.86
-0.63
0.34
1.08
1.70
2.30
2.94
3.59
4.16
4.61
4.96
5.25
5.53
5.83
6.16
6.49
6.83
7.17
7.49
7.73
7.86
7.89
7.87
7.88
7.95
8.08
8.20
8.25
8.21
8.11
8.00
7.88
7.73
7.50
7.13
6.62
6.02
5.42
4.92
4.59
4.41
4.30
4.13
3.78
3.20
2.43
1.60
0.87
0.33
-0.02
-0.26
-0.53
-0.93
-1.50
-2.17
-2.85
-3.47
-4.03
-4.57
-5.19
-5.93
-6.81
-7.80
-8.89
-10.01
-11.13
-12.14
-12.89
-13.18
-12.84
-11.86
-10.35
-8.57
-6.80
-5.25
-3.99
-2.97
-2.09
-1.24
-0.36
0.54
1.43
2.28
3.04
3.71
4.29
4.80
5.28
5.75
6.24
6.73
7.17
7.55
7.87
8.15
8.37
8.52
8.52
8.36
8.06
7.71
7.41
7.20
7.07
6.95
6.81
6.65
6.51
6.42
6.35
6.26
6.07
5.75
5.34
4.93
4.59
4.39
4.33
4.35
4.38
4.34
4.20
3.99
3.78
3.60
3.42
3.14
2.63
1.84
0.81
-0.27
-1.23
-1.94
-2.44
-2.85
-3.32
-3.89
-4.53
-5.12
-5.58
-5.95
-6.35
-6.92
-7.77
-8.88
-10.11
-11.28
-12.19
-12.71
-12.77
-12.37
-11.54
-10.37
-8.97
-7.49
-6.09
-4.88
-3.92
-3.16
-2.58
-2.09
-1.66
-1.26
-0.85
-0.38
0.20
0.86
1.53
2.14
2.59
2.88
3.07
3.23
3.41
3.58
3.72
3.73
3.60
3.29
2.82
2.20
1.45
0.60
-0.27
-1.08
-1.75
-2.26
-2.57
-2.74
-2.78
-2.76
-2.75
-2.82
-3.01
-3.28
-3.59
-3.82
-3.93
-3.91
-3.81
-3.73
-3.73
-3.80
-3.84
-3.65
-3.02
-1.76
0.26
3.03
6.38
10.05
13.71
17.11
20.16
22.93
25.65
28.59
31.94
35.82
40.21
44.97
49.93
54.84
59.46
63.54
66.88
69.37
70.99
71.76
71.77
71.09
69.85
68.17
66.24
64.19
62.08
59.84
57.31
54.32
50.84
47.00
43.10
39.44
36.15
33.16
30.17
26.92
23.27
19.33
15.39
11.71
8.35
5.13
1.67
-2.35
-7.04
-12.22
-17.54
-22.63
-27.27
-31.42
-35.12
-38.37
-41.11
-43.19
-44.48
-44.92
-44.60
-43.67
-42.32
-40.71
-38.94
-37.13
-35.38
-33.80
-32.49
-31.47
-30.75
-30.29
-30.00
-29.80
-29.61
-29.37
-29.10
-28.87
-28.73
-28.71
-28.72
-28.59
-28.15
-27.33
-26.17
-24.88
-23.71
-22.87
-22.43
-22.30
-22.28
-22.16
-21.77
-21.11
-20.26
-19.41
-18.67
-18.10
-17.62
-17.13
-16.56
-15.95
-15.44
-15.18
-15.26
-15.62
-16.11
-16.49
-16.61
-16.36
-15.71
-14.69
-13.35
-11.75
-9.93
-7.99
-6.04
-4.20
-2.61
-1.32
-0.39
0.21
0.53
0.64
0.61
0.50
0.35
0.17
-0.03
-0.29
-0.61
-1.02
-1.51
-2.09
-2.73
-3.37
-3.94
-4.33
-4.44
-4.20
-3.65
-2.93
-2.21
-1.66
-1.38
-1.37
-1.57
-1.89
-2.25
-2.60
-2.88
-3.01
-2.96
-2.78
-2.61
-2.58
-2.80
-3.28
-3.90
-4.50
-4.97
-5.24
-5.32
-5.21
-4.88
-4.31
-3.53
-2.64
-1.84
-1.25
-0.94
-0.81
-0.70
-0.43
0.08
0.77
1.47
2.01
2.27
2.21
1.94
1.58
1.30
1.20
1.34
1.73
2.26
2.79
3.17
3.26
3.05
2.59
2.02
1.49
1.09
0.82
0.61
0.35
-0.02
-0.52
-1.14
-1.84
-2.58
-3.32
-4.02
-4.63
-5.13
-5.56
-5.99
-6.49
-7.15
-7.97
-8.91
-9.88
-10.77
-11.52
-12.10
-12.59
-13.06
-13.60
-14.26
-15.05
-15.98
-17.01
-18.12
-19.26
-20.32
-21.14
-21.53
-21.33
-20.43
-18.81
-16.50
-13.59
-10.19
-6.41
-2.40
1.70
5.79
9.75
13.54
17.14
20.60
24.02
27.50
31.13
34.92
38.81
42.64
46.19
49.24
51.58
53.01
53.35
52.45
50.26
46.88
42.50
37.44
32.07
26.66
21.45
16.57
12.07
8.00
4.31
0.98
-2.06
-4.87
-7.48
-9.90
-12.16
-14.32
-16.45
-18.66
-20.98
-23.31
-25.48
-27.21
-28.31
-28.74
-28.65
-28.37
-28.23
-28.44
-29.01
-29.76
-30.36
-30.53
-30.11
-29.15
-27.90
-26.74
-26.06
-26.15
-26.96
-28.11
-28.87
-28.41
-26.16
-22.01
-16.54
-10.79
-5.97
-2.99
-2.19
-3.18
-5.05
-6.75
-7.45
-6.80
-4.94
-2.39
0.30
2.74
4.84
6.72
8.52
10.26
11.84
13.08
13.94
14.54
15.16
16.03
17.23
18.58
19.76
20.43
20.39
19.62
18.32
16.78
15.31
14.13
13.34
12.88
12.53
12.04
11.20
9.94
8.34
6.60
4.89
3.32
1.87
0.45
-0.98
-2.40
-3.72
-4.86
-5.76
-6.42
-6.89
-7.19
-7.38
-7.52
-7.73
-8.15
-8.85
-9.83
-10.90
-11.82
-12.32
-12.28
-11.81
-11.17
-10.72
-10.74
-11.31
-12.27
-13.33
-14.23
-14.79
-14.98
-14.92
-14.73
-14.55
-14.47
-14.54
-14.83
-15.41
-16.35
-17.65
-19.21
-20.91
-22.60
-24.19
-25.64
-26.94
-28.14
-29.33
-30.60
-32.08
-33.88
-36.12
-38.84
-41.97
-45.24
-48.22
-50.26
-50.65
-48.79
-44.34
-37.41
-28.53
-18.52
-8.25
1.60
10.64
18.69
25.73
31.73
36.61
40.34
43.01
44.79
45.92
46.55
46.73
46.42
45.61
44.40
43.04
41.82
40.92
40.32
39.79
38.94
37.46
35.24
32.34
29.06
25.73
22.62
19.92
17.67
15.83
14.27
12.91
11.71
10.69
9.92
9.45
9.27
9.25
9.24
9.09
8.76
8.30
7.85
7.53
7.41
7.46
7.65
7.93
8.31
8.81
9.41
10.01
10.50
10.78
10.86
10.81
10.80
11.01
11.48
12.17
12.93
13.60
14.04
14.22
14.12
13.73
13.00
11.85
10.21
8.07
5.48
2.55
-0.58
-3.72
-6.63
-9.10
-10.89
-11.89
-12.08
-11.56
-10.54
-9.23
-7.87
-6.67
-5.82
-5.45
-5.55
-5.99
-6.50
-6.77
-6.58
-5.88
-4.81
-3.61
-2.51
-1.67
-1.14
-0.91
-0.97
-1.32
-1.94
-2.74
-3.53
-4.04
-4.10
-3.68
-3.00
-2.41
-2.31
-2.89
-4.09
-5.59
-6.97
-7.89
-8.21
-8.07
-7.79
-7.68
-7.94
-8.54
-9.26
-9.81
-10.01
-9.86
-9.49
-9.16
-9.01
-9.07
-9.22
-9.31
-9.23
-8.99
-8.65
-8.25
-7.79
-7.19
-6.34
-5.22
-3.89
-2.50
-1.26
-0.33
0.22
0.40
0.33
0.12
-0.12
-0.39
-0.73
-1.21
-1.81
-2.42
-2.86
-2.90
-2.45
-1.54
-0.35
0.86
1.84
2.42
2.53
2.22
1.62
0.86
0.08
-0.61
-1.16
-1.62
-2.13
-2.90
-4.12
-5.86
-8.02
-10.35
-12.56
-14.38
-15.67
-16.38
-16.53
-16.17
-15.38
-14.23
-12.78
-11.07
-9.16
-7.07
-4.89
-2.77
-0.80
0.97
2.59
4.18
5.81
7.41
8.79
9.68
9.92
9.53
8.75
7.93
7.43
7.50
8.27
9.70
11.64
13.85
16.08
18.06
19.64
20.69
21.16
21.04
20.29
18.86
16.73
13.99
10.93
8.05
6.02
5.43
6.57
9.12
12.16
14.32
14.26
11.19
5.19
-2.78
-11.26
-18.86
-24.72
-28.62
-30.88
-31.97
-32.27
-31.91
-30.94
-29.47
-27.69
-25.91
-24.31
-22.90
-21.46
-19.73
-17.52
-14.82
-11.80
-8.74
-5.91
-3.50
-1.54
0.03
1.31
2.40
3.33
4.03
4.44
4.51
4.30
3.95
3.66
3.60
3.86
4.38
5.01
5.59
5.98
6.12
6.05
5.82
5.50
5.08
4.56
3.90
3.06
2.06
0.92
-0.31
-1.54
-2.65
-3.49
-3.92
-3.89
-3.43
-2.71
-1.96
-1.39
-1.12
-1.13
-1.28
-1.47
-1.63
-1.79
-2.02
-2.37
-2.75
-3.03
-3.02
-2.62
-1.89
-0.94
0.14
1.36
2.81
4.56
6.55
8.58
10.37
11.71
12.57
13.08
13.42
13.67
13.77
13.57
12.92
11.83
10.45
8.99
7.60
6.28
4.92
3.40
1.67
-0.22
-2.16
-4.05
-5.77
-7.14
-7.93
-7.87
-6.76
-4.55
-1.46
2.17
5.94
9.59
13.09
16.62
20.39
24.52
28.93
33.27
37.03
39.63
40.54
39.42
36.17
30.97
24.30
16.85
9.47
2.98
-1.95
-4.95
-6.07
-5.73
-4.57
-3.31
-2.44
-2.21
-2.58
-3.39
-4.48
-5.75
-7.16
-8.65
-10.14
-11.52
-12.73
-13.82
-14.89
-16.01
-17.12
-18.01
-18.43
-18.29
-17.82
-17.45
-17.65
-18.58
-19.99
-21.24
-21.63
-20.65
-18.28
-14.86
-10.95
-7.06
-3.51
-0.49
1.91
3.64
4.65
4.96
4.71
4.11
3.38
2.72
2.20
1.85
1.63
1.44
1.14
0.56
-0.41
-1.75
-3.28
-4.74
-5.89
-6.58
-6.86
-6.87
-6.74
-6.58
-6.38
-6.07
-5.61
-4.99
-4.26
-3.49
-2.73
-1.99
-1.30
-0.69
-0.24
-0.08
-0.31
-0.93
-1.87
-3.01
-4.19
-5.36
-6.48
-7.56
-8.67
-9.85
-11.19
-12.82
-14.87
-17.39
-20.28
-23.19
-25.66
-27.19
-27.49
-26.56
-24.70
-22.40
-20.10
-18.16
-16.72
-15.76
-15.18
-14.84
-14.67
-14.60
-14.56
-14.38
-13.86
-12.70
-10.70
-7.81
-4.12
0.10
4.55
8.98
13.24
17.24
20.93
24.20
26.90
28.89
30.07
30.43
30.09
29.32
28.46
27.89
27.96
28.90
30.73
33.30
36.30
39.32
42.00
44.05
45.36
46.04
46.35
46.64
47.24
48.30
49.80
51.50
53.02
53.91
53.71
52.11
48.94
44.31
38.64
32.62
27.03
22.57
19.61
18.08
17.55
17.43
17.26
16.86
16.24
15.42
14.16
11.84
7.70
1.08
-8.17
-19.60
-32.21
-44.68
-55.74
-64.33
-69.79
-71.89
-70.86
-67.29
-62.05
-55.99
-49.83
-43.99
-38.63
-33.73
-29.24
-25.04
-21.04
-17.06
-12.92
-8.56
-4.09
0.13
3.58
5.74
6.32
5.34
3.20
0.51
-2.12
-4.23
-5.63
-6.43
-6.83
-7.03
-7.14
-7.14
-7.01
-6.79
-6.60
-6.59
-6.82
-7.13
-7.19
-6.61
-5.08
-2.64
0.43
3.59
6.37
8.49
10.01
11.21
12.35
13.56
14.70
15.55
15.94
15.91
15.68
15.56
15.69
15.98
16.20
16.07
15.51
14.60
13.57
12.54
11.49
10.25
8.66
6.73
4.70
2.90
1.64
0.99
0.80
0.76
0.55
-0.03
-1.02
-2.27
-3.60
-4.82
-5.84
-6.69
-7.48
-8.29
-9.13
-9.91
-10.51
-10.90
-11.09
-11.25
-11.50
-11.88
-12.26
-12.45
-12.30
-11.74
-10.87
-9.88
-9.03
-8.55
-8.60
-9.25
-10.41
-11.82
-13.07
-13.75
-13.58
-12.53
-10.84
-9.00
-7.59
-7.03
-7.50
-8.79
-10.37
-11.62
-12.04
-11.43
-9.96
-8.07
-6.28
-4.94
-4.20
-4.02
-4.24
-4.77
-5.55
-6.57
-7.73
-8.88
-9.76
-10.20
-10.14
-9.69
-9.10
-8.64
-8.50
-8.69
-9.08
-9.48
-9.69
-9.58
-9.07
-8.10
-6.60
-4.50
-1.77
1.53
5.20
8.96
12.41
15.24
17.20
18.24
18.42
17.95
17.03
15.82
14.42
12.79
10.85
8.41
5.34
1.57
-2.71
-7.02
-10.57
-12.51
-12.21
-9.55
-5.03
0.33
5.33
8.96
10.67
10.55
9.16
7.32
5.86
5.39
6.23
8.32
11.34
14.78
18.12
20.96
23.07
24.44
25.12
25.22
24.87
24.24
23.56
23.13
23.20
23.86
25.00
26.30
27.40
28.04
28.19
28.04
27.86
27.86
28.10
28.45
28.73
28.75
28.43
27.78
26.90
25.90
24.85
23.81
22.82
21.94
21.26
20.90
20.97
21.54
22.56
23.91
25.39
26.87
28.31
29.73
31.18
32.62
33.92
34.89
35.41
35.42
34.98
34.16
32.94
31.22
28.85
25.76
22.02
17.77
13.13
8.05
2.32
-4.28
-11.83
-20.10
-28.53
-36.29
-42.57
-46.74
-48.54
-48.02
-45.58
-41.73
-37.07
-32.20
-27.67
-23.97
-21.38
-19.93
-19.33
-18.98
-18.22
-16.50
-13.62
-9.74
-5.32
-0.89
3.14
6.62
9.66
12.53
15.60
19.15
23.33
28.07
33.11
38.10
42.73
46.80
50.30
53.28
55.73
57.57
58.61
58.72
57.87
56.18
53.85
51.00
47.64
43.67
38.98
33.56
27.56
21.24
14.91
8.81
3.05
-2.40
-7.67
-12.94
-18.35
-23.94
-29.63
-35.26
-40.71
-45.89
-50.85
-55.69
-60.47
-65.15
-69.60
-73.67
-77.35
-80.77
-84.13
-87.46
-90.49
-92.68
-93.43
-92.32
-89.36
-84.87
-79.25
-72.76
-65.38
-56.97
-47.55
-37.51
-27.58
-18.61
-11.18
-5.43
-0.97
2.75
6.20
9.49
12.41
14.64
15.93
16.30
16.03
15.46
14.86
14.30
13.67
12.82
11.69
10.39
9.10
7.95
6.98
6.09
5.13
4.00
2.76
1.56
0.60
0.07
0.02
0.38
0.97
1.58
2.02
2.22
2.19
1.99
1.71
1.39
1.00
0.48
-0.18
-0.90
-1.51
-1.84
-1.81
-1.52
-1.22
-1.21
-1.68
-2.61
-3.81
-5.03
-6.04
-6.88
-7.71
-8.80
-10.38
-12.52
-15.15
-18.07
-21.09
-24.10
-27.10
-30.15
-33.35
-36.65
-39.97
-43.12
-45.87
-48.01
-49.20
-49.01
-46.86
-42.12
-34.45
-23.96
-11.43
1.89
14.50
25.19
33.24
38.55
41.44
42.41
41.94
40.38
38.05
35.24
32.31
29.58
27.28
25.43
23.84
22.21
20.26
17.85
15.05
12.13
9.40
7.11
5.33
3.96
2.83
1.77
0.74
-0.24
-1.12
-1.90
-2.66
-3.50
-4.48
-5.57
-6.69
-7.69
-8.47
-8.92
-8.97
-8.59
-7.84
-6.81
-5.68
-4.61
-3.74
-3.07
-2.51
-1.88
-1.00
0.19
1.57
2.88
3.80
4.03
3.49
2.31
0.90
-0.22
-0.52
0.39
2.65
6.13
10.44
15.10
19.59
23.51
26.61
28.82
30.26
31.14
31.72
32.09
31.99
30.74
27.33
20.72
10.23
-4.06
-21.28
-39.87
-57.99
-73.94
-86.47
-94.97
-99.46
-100.41
-98.63
-94.97
-90.14
-84.53
-78.26
-71.22
-63.27
-54.43
-44.89
-34.98
-25.08
-15.46
-6.30
2.32
10.37
17.71
24.19
29.66
34.09
37.65
40.56
43.02
44.96
46.00
45.64
43.44
39.30
33.56
26.95
20.32
14.46
9.92
6.94
5.49
5.36
6.23
7.68
9.31
10.73
11.63
11.74
10.95
9.22
6.64
3.40
-0.25
-4.03
-7.74
-11.23
-14.48
-17.53
-20.42
-23.16
-25.71
-28.01
-30.02
-31.77
-33.31
-34.68
-35.84
-36.69
-37.13
-37.09
-36.65
-35.89
-34.86
-33.45
-31.49
-28.88
-25.72
-22.34
-19.11
-16.35
-14.07
-12.08
-10.12
-8.09
-6.08
-4.34
-3.05
-2.18
-1.46
-0.60
0.57
1.93
3.18
3.99
4.25
4.10
3.88
3.90
4.25
4.78
5.14
5.06
4.45
3.46
2.35
1.31
0.39
-0.51
-1.51
-2.64
-3.80
-4.87
-5.81
-6.73
-7.85
-9.36
-11.25
-13.29
-15.04
-16.07
-16.10
-15.05
-13.05
-10.36
-7.23
-3.88
-0.45
2.94
6.26
9.51
12.68
15.78
18.78
21.65
24.29
26.63
28.60
30.15
31.19
31.64
31.30
30.04
27.75
24.57
20.84
17.14
14.12
12.36
12.20
13.71
16.67
20.66
25.11
29.40
32.94
35.33
36.43
36.40
35.65
34.64
33.75
33.19
32.93
32.85
32.76
32.54
32.05
31.22
30.08
28.74
27.45
26.47
26.03
26.15
26.62
26.99
26.74
25.49
23.09
19.82
16.13
12.54
9.42
6.83
4.67
2.76
1.03
-0.46
-1.51
-1.99
-1.81
-1.01
0.33
2.08
4.09
6.18
8.14
9.83
11.20
12.31
13.37
14.51
15.78
17.05
18.14
18.86
19.12
18.95
18.42
17.60
16.51
15.16
13.58
11.92
10.37
9.04
7.95
6.90
5.60
3.78
1.36
-1.54
-4.63
-7.58
-10.13
-12.15
-13.63
-14.65
-15.39
-16.11
-17.10
-18.59
-20.61
-22.90
-24.94
-26.09
-25.86
-24.16
-21.28
-17.83
-14.47
-11.70
-9.69
-8.36
-7.46
-6.77
-6.22
-5.89
-5.95
-6.58
-7.78
-9.34
-10.86
-11.87
-12.04
-11.24
-9.62
-7.48
-5.15
-2.86
-0.73
1.21
2.94
4.43
5.68
6.73
7.71
8.79
10.07
11.61
13.31
15.05
16.68
18.09
19.30
20.39
21.52
22.82
24.36
26.07
27.78
29.25
30.30
30.85
30.93
30.62
29.98
29.01
27.65
25.92
23.98
22.14
20.79
20.27
20.80
22.34
24.69
27.50
30.39
33.01
35.13
36.57
37.20
36.90
35.50
32.83
28.81
23.55
17.42
10.97
4.79
-0.72
-5.47
-9.68
-13.70
-17.81
-22.04
-26.26
-30.20
-33.68
-36.64
-39.05
-40.88
-41.98
-42.07
-40.92
-38.47
-34.91
-30.69
-26.37
-22.45
-19.20
-16.63
-14.57
-12.76
-10.99
-9.13
-7.16
-5.05
-2.82
-0.49
1.90
4.24
6.36
8.08
9.25
9.79
9.74
9.25
8.53
7.74
6.89
5.76
3.89
0.73
-4.17
-10.93
-19.33
-28.80
-38.62
-48.05
-56.39
-63.13
-67.94
-70.68
-71.43
-70.38
-67.70
-63.49
-57.74
-50.46
-41.80
-32.15
-22.08
-12.17
-2.84
5.78
13.75
21.22
28.19
34.50
39.83
43.78
46.08
46.56
45.26
42.37
38.18
33.06
27.51
22.02
17.12
13.22
10.49
8.85
7.95
7.32
6.49
5.15
3.18
0.66
-2.18
-5.05
-7.67
-9.82
-11.37
-12.34
-12.85
-13.11
-13.30
-13.54
-13.77
-13.81
-13.43
-12.54
-11.25
-9.90
-8.95
-8.75
-9.42
-10.77
-12.43
-14.05
-15.39
-16.45
-17.35
-18.22
-19.10
-19.93
-20.62
-21.11
-21.41
-21.51
-21.41
-21.04
-20.40
-19.57
-18.79
-18.29
-18.24
-18.63
-19.28
-19.96
-20.55
-21.04
-21.59
-22.37
-23.46
-24.84
-26.40
-27.99
-29.51
-30.91
-32.20
-33.41
-34.63
-35.95
-37.44
-39.12
-40.89
-42.51
-43.67
-44.04
-43.39
-41.65
-38.94
-35.50
-31.61
-27.46
-23.18
-18.78
-14.29
-9.73
-5.20
-0.82
3.31
7.15
10.68
13.95
16.99
19.78
22.33
24.59
26.53
28.08
29.16
29.67
29.49
28.56
26.94
24.96
23.12
21.98
21.93
22.87
24.29
25.38
25.51
24.54
22.97
21.73
21.69
23.26
26.24
29.90
33.42
36.18
37.96
38.87
39.10
38.69
37.58
35.65
32.95
29.84
26.84
24.49
22.96
22.05
21.22
19.93
17.92
15.28
12.44
9.83
7.70
6.09
4.81
3.60
2.28
0.68
-1.22
-3.32
-5.32
-6.81
-7.35
-6.70
-4.95
-2.59
-0.31
1.27
1.83
1.48
0.66
-0.08
-0.34
0.10
1.19
2.77
4.61
6.50
8.31
9.92
11.26
12.28
12.99
13.46
13.79
14.10
14.48
14.96
15.54
16.16
16.78
17.37
17.96
18.55
19.07
19.22
18.53
16.48
12.70
7.16
0.28
-7.22
-14.56
-21.08
-26.31
-29.81
-31.10
-29.60
-24.82
-16.68
-5.72
6.94
19.91
32.01
42.61
51.78
60.04
68.05
76.18
84.35
92.11
98.77
103.66
106.26
106.22
103.32
97.43
88.60
77.07
63.47
48.71
33.91
20.15
8.23
-1.45
-8.98
-14.85
-19.86
-24.95
-31.00
-38.62
-48.03
-58.95
-70.67
-82.17
-92.38
-100.33
-105.37
-107.25
-106.11
-102.37
-96.62
-89.39
-81.12
-72.09
-62.50
-52.53
-42.42
-32.45
-22.85
-13.81
-5.44
2.21
9.02
14.85
19.53
22.89
24.89
25.55
25.02
23.54
21.33
18.66
15.76
12.87
10.21
8.01
6.42
5.51
5.20
5.24
5.32
5.07
4.23
2.70
0.61
-1.79
-4.16
-6.26
-8.04
-9.65
-11.40
-13.57
-16.29
-19.45
-22.78
-26.02
-29.08
-32.11
-35.36
-39.11
-43.45
-48.25
-53.07
-57.33
-60.31
-61.39
-60.19
-56.61
-50.92
-43.68
-35.61
-27.45
-19.83
-13.20
-7.77
-3.56
-0.47
1.72
3.22
4.22
4.90
5.46
6.08
6.96
8.18
9.65
11.18
12.52
13.46
13.94
13.98
13.66
13.04
12.22
11.28
10.41
9.73
9.29
8.97
8.54
7.77
6.54
4.89
2.90
0.65
-1.85
-4.59
-7.37
-9.74
-11.09
-10.91
-9.15
-6.28
-3.19
-0.80
0.30
0.05
-1.16
-2.65
-3.83
-4.26
-3.79
-2.40
-0.16
2.75
6.10
9.49
12.51
14.73
15.89
15.98
15.26
14.22
13.45
13.40
14.26
15.86
17.76
19.46
20.57
20.94
20.71
20.13
19.46
18.84
18.30
17.81
17.31
16.78
16.21
15.60
14.96
14.35
13.90
13.80
14.22
15.24
16.78
18.60
20.38
21.77
22.51
22.47
21.59
19.92
17.56
14.62
11.25
7.58
3.73
-0.23
-4.22
-8.16
-11.86
-15.11
-17.63
-19.20
-19.73
-19.29
-18.02
-16.08
-13.41
-9.72
-4.60
2.33
11.19
21.73
33.34
45.15
56.31
66.08
74.03
79.91
83.69
85.45
85.27
83.27
79.56
74.38
68.08
61.25
54.58
48.72
44.01
40.38
37.34
34.11
29.98
24.47
17.54
9.56
1.22
-6.74
-13.68
-19.31
-23.81
-27.81
-32.25
-38.11
-46.11
-56.43
-68.57
-81.40
-93.37
-102.91
-108.78
-110.42
-108.02
-102.39
-94.63
-85.74
-76.44
-67.08
-57.86
-48.95
-40.60
-33.04
-26.32
-20.32
-14.75
-9.43
-4.41
0.02
3.45
5.61
6.47
6.34
5.71
5.08
4.84
5.15
5.95
7.04
8.20
9.24
10.12
10.82
11.38
11.80
12.01
12.01
11.81
11.59
11.52
11.77
12.35
13.08
13.74
14.08
14.00
13.47
12.56
11.26
9.55
7.40
4.88
2.22
-0.27
-2.26
-3.53
-4.06
-4.03
-3.71
-3.35
-3.11
-3.02
-3.04
-3.15
-3.41
-3.84
-4.44
-5.15
-5.83
-6.39
-6.81
-7.18
-7.62
-8.23
-8.97
-9.70
-10.26
-10.51
-10.43
-10.09
-9.64
-9.19
-8.84
-8.62
-8.54
-8.62
-8.86
-9.25
-9.76
-10.34
-10.90
-11.35
-11.64
-11.78
-11.80
-11.80
-11.84
-12.01
-12.33
-12.83
-13.55
-14.46
-15.50
-16.56
-17.51
-18.27
-18.89
-19.51
-20.29
-21.32
-22.50
-23.62
-24.39
-24.67
-24.41
-23.68
-22.49
-20.82
-18.56
-15.75
-12.61
-9.51
-6.78
-4.48
-2.31
0.25
3.68
8.13
13.36
18.77
23.59
27.04
28.42
27.29
23.69
18.26
12.28
7.40
5.16
6.46
11.26
18.60
27.04
35.14
41.91
46.89
50.11
51.85
52.40
51.98
50.67
48.48
45.44
41.61
37.10
32.03
26.59
21.00
15.60
10.82
7.14
4.94
4.33
5.10
6.73
8.53
9.94
10.68
10.85
10.80
10.94
11.49
12.42
13.49
14.37
14.89
15.09
15.21
15.52
16.16
17.06
17.98
18.57
18.57
17.78
16.17
13.83
10.97
7.97
5.35
3.59
3.07
3.80
5.47
7.50
9.28
10.37
10.61
10.15
9.32
8.46
7.84
7.61
7.80
8.35
9.14
10.03
10.82
11.34
11.47
11.16
10.53
9.76
9.13
8.90
9.16
9.80
10.45
10.60
9.76
7.65
4.35
0.29
-3.87
-7.32
-9.40
-9.68
-8.18
-5.36
-2.07
0.73
2.29
2.38
1.35
0.02
-0.79
-0.55
0.70
2.47
4.10
5.09
5.28
4.85
4.09
3.25
2.40
1.52
0.54
-0.51
-1.50
-2.29
-2.75
-2.90
-2.82
-2.66
-2.52
-2.44
-2.35
-2.11
-1.57
-0.70
0.43
1.63
2.68
3.42
3.82
3.96
4.02
4.17
4.54
5.20
6.15
7.32
8.59
9.80
10.89
11.87
12.93
14.30
16.13
18.38
20.83
23.12
25.00
26.39
27.45
28.45
29.68
31.32
33.39
35.80
38.41
41.14
43.96
46.91
50.09
53.57
57.30
61.12
64.75
67.90
70.43
72.42
74.13
75.85
77.71
79.56
80.98
81.45
80.52
77.94
73.68
67.81
60.42
51.58
41.39
30.13
18.30
6.51
-4.61
-14.53
-22.99
-29.90
-35.29
-39.18
-41.63
-42.76
-42.85
-42.32
-41.64
-41.23
-41.28
-41.65
-42.01
-41.95
-41.16
-39.55
-37.26
-34.51
-31.55
-28.53
-25.55
-22.74
-20.23
-18.21
-16.80
-16.04
-15.84
-16.02
-16.42
-16.98
-17.72
-18.69
-19.93
-21.43
-23.18
-25.22
-27.65
-30.67
-34.49
-39.32
-45.28
-52.30
-60.12
-68.25
-76.08
-83.02
-88.58
-92.51
-94.84
-95.68
-95.19
-93.46
-90.47
-86.23
-80.81
-74.41
-67.33
-59.95
-52.60
-45.52
-38.92
-32.98
-27.90
-23.91
-21.17
-19.71
-19.39
-19.98
-21.20
-22.86
-24.91
-27.40
-30.41
-34.01
-38.14
-42.63
-47.18
-51.42
-54.98
-57.62
-59.34
-60.39
-61.33
-62.76
-65.20
-68.81
-73.32
-78.00
-81.91
-84.15
-84.06
-81.46
-76.65
-70.28
-63.14
-56.00
-49.37
-43.48
-38.32
-33.72
-29.44
-25.35
-21.40
-17.64
-14.17
-11.00
-8.05
-5.04
-1.67
2.35
7.13
12.54
18.20
23.59
28.14
31.36
32.94
32.76
30.93
27.74
23.61
19.05
14.59
10.79
8.09
6.79
6.97
8.41
10.69
13.28
15.73
17.72
19.17
20.10
20.58
20.69
20.42
19.85
19.14
18.63
18.76
19.88
22.13
25.30
28.88
32.12
34.27
34.76
33.46
30.71
27.34
24.46
23.14
24.10
27.44
32.66
38.78
44.75
49.66
53.04
54.83
55.30
54.86
53.85
52.51
50.89
48.99
46.79
44.29
41.55
38.56
35.29
31.68
27.71
23.57
19.53
15.97
13.11
10.95
9.26
7.70
5.98
4.05
2.02
0.13
-1.42
-2.52
-3.19
-3.50
-3.55
-3.43
-3.19
-2.93
-2.74
-2.69
-2.83
-3.11
-3.45
-3.70
-3.77
-3.69
-3.60
-3.72
-4.20
-5.08
-6.15
-7.03
-7.29
-6.69
-5.24
-3.23
-1.10
0.76
2.13
3.04
3.64
4.18
4.82
5.65
6.68
7.85
9.14
10.49
11.82
13.08
14.21
15.19
16.04
16.85
17.70
18.67
19.82
21.19
22.80
24.63
26.60
28.55
30.32
31.78
32.91
33.93
35.15
36.97
39.62
43.12
47.22
51.53
55.67
59.49
63.10
66.87
71.23
76.55
82.91
90.15
97.83
105.36
112.08
117.30
120.41
121.00
119.11
115.23
110.29
105.26
100.75
96.73
92.60
87.53
81.03
73.28
65.06
57.34
50.75
45.24
40.12
34.55
28.02
20.57
12.75
5.21
-1.69
-8.08
-14.37
-20.97
-27.96
-34.95
-41.31
-46.39
-49.94
-52.10
-53.40
-54.49
-55.85
-57.66
-59.83
-62.08
-64.18
-66.06
-67.79
-69.62
-71.74
-74.22
-76.95
-79.68
-82.18
-84.35
-86.25
-88.07
-89.99
-92.13
-94.50
-96.99
-99.41
-101.56
-103.17
-103.96
-103.60
-101.75
-98.14
-92.63
-85.30
-76.54
-66.94
-57.21
-48.02
-39.84
-32.79
-26.77
-21.52
-16.82
-12.57
-8.79
-5.58
-2.94
-0.81
0.92
2.27
3.17
3.46
3.06
2.07
0.75
-0.54
-1.53
-2.16
-2.51
-2.70
-2.74
-2.53
-1.93
-0.95
0.26
1.37
2.09
2.27
1.97
1.35
0.60
-0.17
-0.99
-1.92
-3.01
-4.23
-5.46
-6.56
-7.41
-7.93
-8.14
-8.13
-8.08
-8.23
-8.76
-9.74
-11.06
-12.41
-13.45
-13.94
-13.90
-13.59
-13.43
-13.77
-14.79
-16.49
-18.71
-21.21
-23.55
-25.06
-24.88
-22.16
-16.47
-8.10
1.83
11.73
20.02
25.69
28.47
28.81
27.50
25.29
22.70
19.99
17.34
14.85
12.64
10.77
9.18
7.68
6.02
4.09
1.97
0.01
-1.32
-1.65
-0.88
0.74
2.65
4.23
5.02
4.86
3.96
2.72
1.60
0.94
0.82
1.16
1.70
2.18
2.43
2.38
2.08
1.61
1.05
0.39
-0.37
-1.18
-1.95
-2.52
-2.80
-2.81
-2.68
-2.58
-2.60
-2.73
-2.83
-2.73
-2.35
-1.71
-0.98
-0.40
-0.17
-0.46
-1.29
-2.54
-3.96
-5.27
-6.25
-6.81
-7.05
-7.14
-7.23
-7.39
-7.57
-7.72
-7.83
-7.95
-8.15
-8.45
-8.75
-8.92
-8.88
-8.68
-8.47
-8.38
-8.49
-8.69
-8.73
-8.35
-7.43
-6.00
-4.28
-2.51
-0.88
0.51
1.64
2.52
3.12
3.39
3.35
3.11
2.83
2.69
2.77
2.98
3.20
3.27
3.19
3.11
3.19
3.57
4.14
4.68
4.92
4.69
4.03
3.11
2.18
1.37
0.74
0.24
-0.21
-0.68
-1.18
-1.72
-2.32
-3.00
-3.75
-4.51
-5.14
-5.54
-5.66
-5.54
-5.31
-5.12
-5.12
-5.35
-5.79
-6.34
-6.87
-7.28
-7.53
-7.60
-7.49
-7.20
-6.77
-6.25
-5.78
-5.43
-5.23
-5.10
-4.91
-4.54
-4.00
-3.46
-3.15
-3.25
-3.77
-4.49
-5.11
-5.33
-5.03
-4.25
-3.13
-1.84
-0.49
0.79
1.92
2.77
3.26
3.38
3.24
2.99
2.80
2.76
2.87
3.12
3.45
3.87
4.36
4.86
5.24
5.34
5.06
4.44
3.62
2.79
2.05
1.42
0.80
0.14
-0.55
-1.20
-1.74
-2.14
-2.51
-2.97
-3.57
-4.28
-4.99
-5.63
-6.20
-6.75
-7.36
-8.02
-8.69
-9.32
-9.92
-10.61
-11.52
-12.69
-13.97
-15.14
-16.00
-16.52
-16.79
-17.03
-17.38
-17.84
-18.28
-18.46
-18.19
-17.39
-16.06
-14.27
-12.19
-9.99
-7.87
-6.03
-4.52
-3.24
-1.88
-0.12
2.34
5.49
9.05
12.54
15.44
17.42
18.41
18.60
18.30
17.73
17.02
16.17
15.18
14.09
13.04
12.13
11.43
10.88
10.38
9.90
9.48
9.21
9.14
9.20
9.23
9.03
8.54
7.89
7.31
7.06
7.18
7.55
7.93
8.12
8.08
7.90
7.72
7.59
7.43
7.04
6.32
5.37
4.49
4.00
4.10
4.63
5.20
5.30
4.61
3.19
1.41
-0.17
-1.14
-1.39
-1.13
-0.77
-0.66
-0.93
-1.54
-2.31
-3.12
-3.92
-4.72
-5.45
-5.93
-5.90
-5.14
-3.63
-1.57
0.63
2.50
3.66
3.96
3.57
2.86
2.28
2.19
2.72
3.70
4.82
5.75
6.30
6.48
6.43
6.31
6.16
5.93
5.52
4.88
4.11
3.44
3.07
3.09
3.41
3.81
4.04
4.01
3.81
3.61
3.56
3.60
3.49
2.99
1.99
0.69
-0.53
-1.26
-1.35
-0.92
-0.33
0.08
0.11
-0.22
-0.78
-1.42
-2.09
-2.81
-3.59
-4.37
-5.08
-5.61
-5.93
-6.12
-6.36
-6.84
-7.70
-8.92
-10.29
-11.41
-11.85
-11.29
-9.75
-7.50
-5.08
-2.93
-1.33
-0.27
0.46
1.08
1.72
2.38
2.96
3.43
3.81
4.19
4.64
5.16
5.66
6.05
6.26
6.30
6.26
6.23
6.28
6.45
6.71
7.00
7.24
7.36
7.31
7.10
6.78
6.42
6.08
5.74
5.35
4.82
4.09
3.22
2.31
1.46
0.71
-0.02
-0.82
-1.72
-2.65
-3.48
-4.09
-4.48
-4.81
-5.29
-6.07
-7.16
-8.43
-9.68
-10.77
-11.67
-12.46
-13.28
-14.26
-15.45
-16.80
-18.24
-19.72
-21.29
-23.06
-25.14
-27.62
-30.41
-33.27
-35.85
-37.80
-38.81
-38.72
-37.56
-35.50
-32.80
-29.78
-26.75
-23.92
-21.36
-19.02
-16.75
-14.36
-11.72
-8.78
-5.65
-2.52
0.39
2.93
5.03
6.78
8.26
9.57
10.78
11.86
12.83
13.73
14.66
15.69
16.87
18.11
19.27
20.22
20.93
21.47
21.90
22.27
22.51
22.51
22.22
21.66
20.98
20.35
19.87
19.48
19.07
18.51
17.74
16.82
15.80
14.73
13.55
12.21
10.73
9.18
7.75
6.55
5.62
4.88
4.14
3.28
2.24
1.07
-0.13
-1.27
-2.32
-3.27
-4.12
-4.92
-5.74
-6.67
-7.82
-9.21
-10.71
-12.06
-12.93
-13.03
-12.19
-10.48
-8.10
-5.40
-2.72
-0.32
1.63
3.08
4.09
4.77
5.24
5.66
6.12
6.69
7.35
8.03
8.64
9.13
9.49
9.82
10.23
10.75
11.34
11.88
12.26
12.44
12.47
12.44
12.39
12.32
12.18
11.94
11.64
11.32
11.03
10.77
10.50
10.16
9.66
8.97
8.03
6.89
5.59
4.27
3.10
2.21
1.64
1.31
1.09
0.75
0.15
-0.83
-2.18
-3.81
-5.54
-7.22
-8.75
-10.15
-11.54
-13.07
-14.76
-16.40
-17.62
-17.96
-17.16
-15.27
-12.64
-9.77
-7.12
-4.86
-2.95
-1.24
0.43
2.05
3.49
4.62
5.43
6.03
6.60
7.25
7.99
8.67
9.14
9.35
9.36
9.34
9.44
9.75
10.19
10.65
10.99
11.17
11.21
11.17
11.08
10.93
10.67
10.27
9.71
9.02
8.28
7.59
7.03
6.60
6.23
5.81
5.25
4.50
3.59
2.59
1.52
0.40
-0.81
-2.13
-3.55
-5.05
-6.66
-8.44
-10.52
-12.90
-15.42
-17.66
-19.06
-19.16
-17.79
-15.12
-11.64
-7.95
-4.51
-1.58
0.79
2.68
4.20
5.40
6.37
7.18
8.00
8.98
10.18
11.56
12.95
14.12
14.90
15.20
15.08
14.72
14.31
14.09
14.19
14.63
15.26
15.86
16.19
16.09
15.53
14.65
13.64
12.66
11.76
10.87
9.88
8.79
7.66
6.65
5.89
5.40
5.04
4.61
3.91
2.88
1.60
0.15
-1.38
-2.99
-4.65
-6.30
-7.81
-9.08
-10.15
-11.26
-12.74
-14.83
-17.49
-20.31
-22.67
-23.92
-23.68
-21.92
-18.90
-15.08
-10.97
-6.97
-3.45
-0.62
1.43
2.80
3.69
4.40
5.23
6.38
7.86
9.55
11.24
12.75
13.98
14.90
15.54
15.93
16.10
16.10
16.05
16.07
16.27
16.72
17.30
17.87
18.24
18.31
18.07
17.58
16.89
16.03
15.03
13.94
12.88
11.96
11.24
10.69
10.20
9.70
9.15
8.62
8.17
7.84
7.59
7.25
6.70
5.86
4.76
3.55
2.36
1.28
0.25
-0.89
-2.27
-3.95
-5.80
-7.61
-9.13
-10.26
-11.06
-11.80
-12.81
-14.32
-16.38
-18.84
-21.51
-24.11
-26.45
-28.25
-29.19
-28.95
-27.27
-24.16
-19.95
-15.25
-10.73
-6.98
-4.23
-2.40
-1.20
-0.26
0.71
1.86
3.21
4.72
6.33
7.94
9.45
10.76
11.78
12.46
12.85
13.05
13.16
13.28
13.45
13.66
13.87
14.05
14.14
14.10
13.89
13.51
13.00
12.42
11.81
11.20
10.54
9.80
8.96
8.07
7.22
6.50
5.94
5.48
4.97
4.31
3.43
2.42
1.43
0.63
0.13
-0.14
-0.40
-0.94
-1.98
-3.53
-5.37
-7.13
-8.50
-9.38
-9.96
-10.58
-11.58
-13.14
-15.21
-17.55
-19.79
-21.56
-22.53
-22.45
-21.19
-18.83
-15.59
-11.89
-8.16
-4.81
-2.09
-0.12
1.13
1.82
2.21
2.57
3.17
4.09
5.24
6.39
7.27
7.75
7.94
8.14
8.63
9.58
10.86
12.19
13.23
13.82
13.94
13.70
13.25
12.72
12.12
11.50
10.90
10.35
9.82
9.20
8.34
7.10
5.54
3.86
2.36
1.29
0.71
0.46
0.26
-0.14
-0.92
-2.04
-3.35
-4.68
-5.85
-6.79
-7.58
-8.33
-9.25
-10.56
-12.44
-14.92
-17.79
-20.64
-22.84
-23.79
-23.09
-20.71
-16.98
-12.51
-7.94
-3.83
-0.52
1.82
3.17
3.66
3.57
3.31
3.32
3.94
5.21
6.91
8.64
10.01
10.81
11.05
10.89
10.55
10.18
9.88
9.75
9.92
10.46
11.36
12.46
13.46
14.05
14.07
13.53
12.62
11.61
10.71
9.98
9.35
8.67
7.86
6.88
5.79
4.68
3.63
2.66
1.77
0.93
0.09
-0.77
-1.66
-2.63
-3.69
-4.82
-5.97
-7.07
-8.09
-9.07
-10.12
-11.37
-12.92
-14.79
-16.97
-19.39
-21.91
-24.31
-26.20
-27.08
-26.45
-24.06
-20.03
-14.94
-9.65
-4.97
-1.42
0.89
2.24
3.09
3.82
4.67
5.73
7.00
8.48
10.14
11.87
13.47
14.69
15.33
15.36
14.93
14.36
14.00
14.06
14.57
15.36
16.14
16.66
16.77
16.49
15.97
15.39
14.88
14.47
14.06
13.57
12.94
12.21
11.47
10.82
10.28
9.80
9.34
8.85
8.34
7.88
7.44
6.97
6.35
5.46
4.29
2.92
1.59
0.57
0.05
0.00
0.19
0.24
-0.22
-1.31
-2.93
-4.79
-6.57
-8.10
-9.39
-10.63
-12.05
-13.77
-15.80
-17.97
-19.99
-21.50
-22.14
-21.58
-19.71
-16.63
-12.69
-8.39
-4.27
-0.76
1.95
3.83
5.03
5.77
6.28
6.76
7.38
8.23
9.33
10.55
11.70
12.56
12.96
12.90
12.50
11.99
11.55
11.33
11.37
11.61
11.99
12.42
12.80
13.06
13.09
12.83
12.28
11.53
10.72
10.01
9.45
9.03
8.65
8.18
7.55
6.77
5.92
5.06
4.19
3.22
2.07
0.76
-0.58
-1.76
-2.67
-3.32
-3.88
-4.54
-5.45
-6.59
-7.86
-9.13
-10.35
-11.54
-12.74
-13.97
-15.21
-16.44
-17.71
-19.08
-20.62
-22.23
-23.61
-24.29
-23.82
-21.93
-18.75
-14.73
-10.58
-6.97
-4.30
-2.63
-1.70
-1.19
-0.83
-0.51
-0.24
-0.05
0.05
0.09
0.11
0.15
0.18
0.22
0.31
0.51
0.88
1.40
2.03
2.66
3.21
3.62
3.87
3.93
3.79
3.45
2.99
2.51
2.08
1.73
1.40
0.96
0.31
-0.54
-1.51
-2.46
-3.27
-3.92
-4.48
-5.04
-5.64
-6.26
-6.79
-7.17
-7.38
-7.52
-7.77
-8.26
-9.10
-10.29
-11.78
-13.52
-15.43
-17.33
-18.96
-19.92
-19.78
-18.23
-15.26
-11.19
-6.63
-2.29
1.24
3.66
4.99
5.49
5.53
5.46
5.53
5.87
6.46
7.18
7.82
8.20
8.23
7.94
7.49
7.02
6.65
6.37
6.12
5.90
5.79
5.97
6.52
7.37
8.22
8.68
8.45
7.48
6.00
4.39
3.00
2.00
1.37
0.98
0.70
0.46
0.29
0.18
0.09
-0.09
-0.47
-1.11
-1.95
-2.89
-3.81
-4.67
-5.51
-6.45
-7.55
-8.83
-10.22
-11.57
-12.78
-13.75
-14.46
-14.95
-15.35
-15.86
-16.74
-18.12
-19.91
-21.73
-22.96
-22.97
-21.36
-18.16
-13.83
-9.11
-4.71
-1.09
1.58
3.40
4.60
5.40
6.02
6.60
7.25
7.97
8.71
9.32
9.67
9.71
9.51
9.26
9.11
9.18
9.44
9.78
10.07
10.21
10.16
9.95
9.62
9.20
8.67
7.98
7.09
5.95
4.61
3.21
1.96
1.05
0.57
0.49
0.62
0.74
0.71
0.48
0.13
-0.28
-0.73
-1.30
-2.09
-3.14
-4.35
-5.51
-6.43
-7.02
-7.34
-7.54
-7.79
-8.20
-8.80
-9.57
-10.43
-11.30
-12.12
-12.84
-13.48
-14.16
-15.03
-16.25
-17.85
-19.74
-21.64
-23.17
-23.89
-23.40
-21.44
-18.03
-13.48
-8.38
-3.41
0.80
3.90
5.84
6.77
6.97
6.68
6.12
5.55
5.23
5.39
6.14
7.32
8.65
9.73
10.32
10.35
9.96
9.36
8.78
8.33
8.02
7.77
7.50
7.13
6.68
6.24
5.91
5.75
5.69
5.57
5.23
4.55
3.62
2.65
1.88
1.44
1.34
1.45
1.61
1.65
1.44
0.87
-0.12
-1.48
-3.08
-4.71
-6.20
-7.52
-8.72
-9.91
-11.10
-12.19
-13.01
-13.46
-13.62
-13.77
-14.26
-15.31
-16.88
-18.58
-19.85
-20.14
-19.11
-16.74
-13.28
-9.20
-5.01
-1.15
2.05
4.44
5.98
6.76
6.96
6.83
6.59
6.44
6.41
6.49
6.60
6.65
6.59
6.44
6.25
6.12
6.14
6.36
6.74
7.15
7.45
7.54
7.42
7.12
6.69
6.16
5.50
4.71
3.87
3.08
2.44
1.95
1.49
0.89
0.08
-0.84
-1.67
-2.21
-2.42
-2.46
-2.59
-3.04
-3.81
-4.76
-5.63
-6.32
-6.85
-7.41
-8.19
-9.27
-10.59
-11.96
-13.24
-14.35
-15.35
-16.26
-16.98
-17.17
-16.38
-14.29
-10.85
-6.51
-1.99
1.91
4.66
6.17
6.73
6.79
6.78
6.88
7.09
7.33
7.53
7.71
7.89
8.06
8.21
8.24
8.13
7.86
7.51
7.24
7.19
7.47
8.07
8.84
9.48
9.72
9.36
8.42
7.13
5.86
4.92
4.48
4.43
4.51
4.41
3.96
3.21
2.37
1.71
1.40
1.40
1.47
1.30
0.67
-0.41
-1.69
-2.81
-3.49
-3.65
-3.53
-3.51
-3.93
-4.91
-6.30
-7.78
-9.05
-9.96
-10.58
-11.13
-11.85
-12.86
-14.17
-15.71
-17.34
-18.89
-20.07
-20.51
-19.75
-17.50
-13.79
-9.05
-4.02
0.48
3.85
5.89
6.81
7.03
6.99
7.00
7.17
7.49
7.93
8.46
9.05
9.66
10.22
10.64
10.83
10.74
10.40
9.89
9.36
8.96
8.81
8.91
9.14
9.31
9.20
8.72
7.90
6.89
5.84
4.89
4.09
3.44
2.91
2.50
2.24
2.12
2.10
2.09
2.00
1.74
1.32
0.80
0.28
-0.22
-0.72
-1.33
-2.13
-3.14
-4.22
-5.18
-5.86
-6.23
-6.43
-6.65
-7.08
-7.75
-8.53
-9.24
-9.73
-10.02
-10.28
-10.77
-11.71
-13.20
-15.22
-17.55
-19.87
-21.63
-22.30
-21.39
-18.70
-14.45
-9.26
-4.00
0.49
3.67
5.40
5.93
5.74
5.33
5.07
5.17
5.67
6.44
7.27
7.97
8.36
8.42
8.24
7.96
7.70
7.53
7.45
7.43
7.45
7.55
7.76
8.08
8.38
8.46
8.12
7.29
6.11
4.84
3.79
3.13
2.84
2.73
2.60
2.32
1.96
1.66
1.51
1.50
1.46
1.20
0.62
-0.24
-1.24
-2.27
-3.28
-4.32
-5.42
-6.56
-7.61
-8.45
-9.09
-9.65
-10.38
-11.52
-13.14
-15.07
-16.93
-18.21
-18.43
-17.31
-14.80
-11.16
-6.89
-2.59
1.22
4.14
6.05
7.03
7.31
7.19
6.91
6.69
6.63
6.82
7.25
7.80
8.34
8.73
8.90
8.87
8.73
8.58
8.52
8.54
8.60
8.64
8.61
8.50
8.33
8.13
7.96
7.84
7.78
7.72
7.56
7.16
6.47
5.53
4.48
3.51
2.74
2.15
1.67
1.20
0.73
0.29
-0.08
-0.42
-0.86
-1.55
-2.61
-4.02
-5.60
-7.10
-8.29
-9.09
-9.59
-10.02
-10.66
-11.73
-13.35
-15.48
-17.93
-20.36
-22.32
-23.29
-22.87
-20.88
-17.46
-13.05
-8.31
-3.88
-0.28
2.25
3.74
4.40
4.60
4.66
4.87
5.40
6.25
7.35
8.54
9.66
10.55
11.07
11.15
10.82
10.20
9.54
9.13
9.16
9.69
10.57
11.55
12.34
12.73
12.64
12.09
11.19
10.09
8.94
7.91
7.08
6.44
5.98
5.61
5.28
4.94
4.55
4.11
3.62
3.07
2.47
1.84
1.16
0.47
-0.21
-0.81
-1.27
-1.57
-1.81
-2.15
-2.81
-3.86
-5.30
-6.91
-8.41
-9.58
-10.33
-10.75
-11.04
-11.48
-12.34
-13.81
-15.92
-18.46
-21.03
-22.98
-23.72
-22.82
-20.22
-16.31
-11.75
-7.29
-3.48
-0.59
1.38
2.60
3.26
3.54
3.61
3.72
4.09
4.88
6.07
7.41
8.60
9.36
9.62
9.54
9.37
9.35
9.51
9.79
10.06
10.29
10.53
10.88
11.36
11.84
12.08
11.89
11.19
10.11
8.94
7.93
7.24
6.84
6.62
6.45
6.22
5.93
5.58
5.21
4.83
4.41
3.90
3.19
2.25
1.07
-0.26
-1.63
-2.92
-4.07
-5.09
-5.98
-6.76
-7.35
-7.69
-7.79
-7.77
-7.91
-8.54
-9.95
-12.17
-14.97
-17.79
-19.95
-20.77
-19.91
-17.37
-13.61
-9.26
-4.98
-1.22
1.74
3.79
4.99
5.39
5.19
4.64
4.07
3.78
3.96
4.64
5.67
6.82
7.88
8.70
9.25
9.61
9.90
10.23
10.65
11.09
11.39
11.37
10.91
10.10
9.14
8.27
7.63
7.21
6.88
6.51
6.05
5.57
5.14
4.76
4.34
3.74
2.85
1.74
0.56
-0.51
-1.39
-2.12
-2.83
-3.64
-4.62
-5.72
-6.86
-7.95
-8.94
-9.91
-10.96
-12.26
-13.89
-15.78
-17.63
-18.98
-19.33
-18.35
-16.01
-12.65
-8.82
-5.12
-1.98
0.43
2.13
3.29
4.01
4.39
4.51
4.48
4.55
4.95
5.77
6.94
8.18
9.13
9.57
9.54
9.26
9.06
9.13
9.44
9.79
9.99
9.95
9.72
9.48
9.36
9.39
9.45
9.37
9.02
8.42
7.68
6.93
6.26
5.60
4.83
3.88
2.78
1.67
0.78
0.22
-0.01
-0.10
-0.31
-0.88
-1.87
-3.28
-4.95
-6.72
-8.45
-10.02
-11.37
-12.49
-13.42
-14.26
-15.21
-16.52
-18.29
-20.50
-22.83
-24.70
-25.45
-24.59
-21.95
-17.85
-12.97
-8.10
-3.94
-0.87
1.08
2.12
2.61
2.90
3.32
4.08
5.22
6.67
8.17
9.48
10.36
10.75
10.70
10.39
9.99
9.66
9.50
9.58
9.93
10.56
11.40
12.36
13.26
13.94
14.19
13.94
13.20
12.15
11.01
9.98
9.18
8.59
8.12
7.68
7.25
6.87
6.59
6.42
6.27
6.03
5.60
4.96
4.13
3.17
2.10
0.93
-0.30
-1.54
-2.72
-3.80
-4.79
-5.75
-6.71
-7.68
-8.62
-9.47
-10.23
-10.95
-11.70
-12.54
-13.52
-14.68
-16.10
-17.84
-19.85
-21.86
-23.35
-23.72
-22.47
-19.48
-15.11
-10.12
-5.39
-1.61
0.93
2.35
3.06
3.45
3.79
4.13
4.43
4.66
4.91
5.31
6.02
7.04
8.21
9.25
9.93
10.17
10.11
9.99
10.03
10.32
10.80
11.29
11.68
11.92
12.00
11.97
11.82
11.51
11.03
10.45
9.90
9.49
9.19
8.82
8.14
7.02
5.54
3.98
2.67
1.83
1.45
1.29
1.05
0.49
-0.43
-1.63
-2.91
-4.15
-5.28
-6.32
-7.29
-8.22
-9.09
-9.90
-10.71
-11.67
-12.94
-14.59
-16.51
-18.35
-19.65
-19.90
-18.82
-16.43
-13.05
-9.25
-5.57
-2.47
-0.14
1.43
2.39
2.96
3.32
3.58
3.84
4.15
4.58
5.17
5.88
6.62
7.22
7.58
7.65
7.49
7.24
7.06
7.07
7.26
7.58
7.89
8.06
8.03
7.80
7.40
6.91
6.39
5.87
5.38
4.89
4.37
3.79
3.13
2.41
1.67
1.00
0.47
0.12
-0.14
-0.44
-0.91
-1.67
-2.69
-3.85
-5.02
-6.11
-7.14
-8.22
-9.50
-11.07
-12.97
-15.13
-17.38
-19.45
-20.90
-21.27
-20.20
-17.56
-13.64
-9.02
-4.47
-0.59
2.27
4.14
5.21
5.76
5.99
5.99
5.87
5.79
5.92
6.38
7.17
8.11
9.01
9.69
10.13
10.43
10.76
11.23
11.82
12.44
12.91
13.09
12.92
12.43
11.76
11.04
10.38
9.79
9.24
8.66
8.06
7.53
7.13
6.94
6.83
6.61
6.05
5.08
3.82
2.54
1.49
0.77
0.26
-0.29
-1.09
-2.24
-3.66
-5.18
-6.56
-7.69
-8.52
-9.19
-9.89
-10.82
-12.14
-13.84
-15.82
-17.90
-19.90
-21.62
-22.80
-23.11
-22.23
-19.91
-16.25
-11.69
-6.95
-2.75
0.42
2.48
3.66
4.36
4.90
5.40
5.91
6.41
6.97
7.69
8.66
9.83
10.99
11.87
12.31
12.36
12.23
12.17
12.34
12.66
12.94
13.00
12.76
12.36
12.00
11.79
11.69
11.52
11.06
10.22
9.09
7.89
6.79
5.87
5.10
4.40
3.76
3.26
3.02
3.09
3.35
3.59
3.53
3.04
2.19
1.17
0.18
-0.67
-1.46
-2.39
-3.56
-5.00
-6.56
-8.08
-9.40
-10.51
-11.42
-12.23
-13.00
-13.81
-14.80
-16.12
-17.89
-20.06
-22.38
-24.38
-25.50
-25.28
-23.53
-20.37
-16.25
-11.75
-7.48
-3.87
-1.16
0.68
1.86
2.64
3.25
3.79
4.32
4.85
5.45
6.26
7.36
8.72
10.20
11.51
12.46
12.94
13.04
12.90
12.71
12.53
12.36
12.18
11.95
11.70
11.45
11.21
10.89
10.42
9.77
8.97
8.10
7.27
6.54
5.93
5.38
4.79
4.16
3.55
3.02
2.62
2.25
1.75
0.88
-0.45
-2.18
-4.07
-5.80
-7.10
-7.88
-8.23
-8.34
-8.45
-8.74
-9.36
-10.43
-12.03
-14.16
-16.66
-19.18
-21.24
-22.34
-22.11
-20.45
-17.55
-13.85
-9.91
-6.23
-3.21
-0.96
0.56
1.59
2.37
3.10
3.88
4.65
5.36
5.93
6.37
6.73
7.08
7.49
7.99
8.58
9.23
9.91
10.56
11.09
11.40
11.42
11.19
10.77
10.32
9.96
9.74
9.58
9.36
8.91
8.12
6.97
5.58
4.16
2.93
2.01
1.45
1.11
0.81
0.30
-0.53
-1.72
-3.16
-4.70
-6.17
-7.48
-8.61
-9.59
-10.54
-11.59
-12.93
-14.68
-16.88
-19.31
-21.52
-22.89
-22.84
-21.15
-18.02
-14.04
-10.00
-6.49
-3.74
-1.65
0.03
1.52
2.81
3.78
4.37
4.67
4.95
5.49
6.40
7.54
8.61
9.31
9.53
9.42
9.27
9.34
9.72
10.29
10.82
11.15
11.23
11.21
11.26
11.47
11.74
11.83
11.48
10.62
9.41
8.21
7.33
6.95
6.91
6.93
6.69
6.05
5.13
4.15
3.30
2.62
2.02
1.31
0.38
-0.77
-2.08
-3.45
-4.83
-6.18
-7.45
-8.60
-9.57
-10.35
-11.05
-11.79
-12.77
-14.15
-16.03
-18.42
-21.17
-23.97
-26.30
-27.58
-27.28
-25.15
-21.42
-16.69
-11.80
-7.51
-4.31
-2.22
-0.92
-0.00
0.92
2.00
3.23
4.53
5.84
7.13
8.39
9.53
10.43
10.94
11.06
10.93
10.77
10.82
11.17
11.77
12.44
12.98
13.28
13.30
13.08
12.70
12.23
11.72
11.20
10.72
10.32
9.98
9.61
9.07
8.26
7.18
5.96
4.83
4.00
3.58
3.46
3.43
3.24
2.75
1.98
1.09
0.27
-0.40
-0.89
-1.35
-1.93
-2.78
-3.91
-5.25
-6.61
-7.79
-8.69
-9.32
-9.88
-10.62
-11.80
-13.57
-15.91
-18.64
-21.48
-24.02
-25.86
-26.56
-25.84
-23.63
-20.12
-15.77
-11.15
-6.83
-3.20
-0.45
1.43
2.59
3.22
3.55
3.82
4.21
4.82
5.67
6.62
7.54
8.27
8.74
9.00
9.11
9.18
9.34
9.66
10.15
10.82
11.58
12.31
12.89
13.23
13.28
13.04
12.54
11.80
10.89
9.89
8.94
8.13
7.48
6.92
6.34
5.64
4.85
4.07
3.43
3.01
2.80
2.72
2.65
2.47
2.10
1.46
0.49
-0.81
-2.36
-3.97
-5.42
-6.53
-7.24
-7.62
-7.87
-8.22
-8.84
-9.84
-11.25
-13.06
-15.19
-17.41
-19.37
-20.61
-20.66
-19.26
-16.48
-12.73
-8.70
-5.02
-2.14
-0.14
1.17
2.09
2.86
3.59
4.21
4.65
4.86
4.86
4.77
4.70
4.75
4.94
5.28
5.74
6.30
6.92
7.60
8.29
8.91
9.41
9.73
9.85
9.75
9.46
9.03
8.52
8.03
7.60
7.23
6.85
6.33
5.58
4.59
3.47
2.38
1.45
0.69
0.02
-0.68
-1.48
-2.34
-3.17
-3.87
-4.43
-4.96
-5.61
-6.50
-7.65
-8.99
-10.45
-12.00
-13.76
-15.80
-18.07
-20.29
-21.88
-22.25
-20.99
-18.17
-14.28
-10.11
-6.39
-3.56
-1.63
-0.33
0.68
1.61
2.49
3.26
3.90
4.45
5.06
5.84
6.85
7.93
8.89
9.49
9.69
9.55
9.33
9.30
9.60
10.24
11.01
11.67
12.03
12.07
11.91
11.71
11.58
11.47
11.24
10.76
10.01
9.07
8.13
7.35
6.78
6.37
5.95
5.40
4.64
3.73
2.77
1.88
1.07
0.26
-0.71
-1.99
-3.60
-5.44
-7.29
-8.92
-10.16
-11.05
-11.74
-12.46
-13.40
-14.63
-16.16
-17.93
-19.81
-21.63
-23.11
-23.86
-23.47
-21.68
-18.51
-14.32
-9.75
-5.49
-2.08
0.25
1.60
2.27
2.68
3.11
3.75
4.61
5.59
6.59
7.51
8.30
8.94
9.43
9.76
9.95
10.07
10.27
10.69
11.40
12.38
13.42
14.22
14.52
14.16
13.22
11.96
10.74
9.85
9.37
9.15
8.94
8.48
7.72
6.82
6.01
5.53
5.44
5.58
5.69
5.54
5.03
4.21
3.20
2.13
1.11
0.17
-0.65
-1.40
-2.10
-2.82
-3.60
-4.45
-5.39
-6.40
-7.47
-8.57
-9.69
-10.82
-11.94
-13.05
-14.21
-15.50
-17.02
-18.72
-20.44
-21.78
-22.30
-21.59
-19.51
-16.25
-12.28
-8.23
-4.68
-2.02
-0.31
0.61
1.03
1.26
1.51
1.98
2.77
3.90
5.32
6.83
8.23
9.29
9.91
10.14
10.13
10.11
10.24
10.58
11.08
11.61
12.04
12.30
12.42
12.41
12.28
11.99
11.46
10.70
9.83
9.11
8.76
8.85
9.19
9.41
9.17
8.36
7.13
5.88
4.91
4.40
4.19
3.99
3.50
2.60
1.40
0.17
-0.80
-1.35
-1.53
-1.58
-1.78
-2.34
-3.28
-4.50
-5.78
-6.97
-8.01
-8.97
-9.98
-11.14
-12.48
-14.00
-15.69
-17.48
-19.22
-20.63
-21.30
-20.88
-19.19
-16.42
-13.01
-9.55
-6.49
-4.01
-2.05
-0.44
0.94
2.05
2.80
3.16
3.25
3.31
3.54
4.03
4.68
5.33
5.87
6.30
6.73
7.25
7.91
8.63
9.29
9.77
10.01
10.00
9.79
9.50
9.27
9.18
9.20
9.21
9.04
8.60
7.93
7.17
6.48
5.89
5.28
4.52
3.53
2.44
1.47
0.89
0.77
0.96
1.15
1.01
0.36
-0.73
-2.07
-3.38
-4.51
-5.44
-6.26
-7.10
-8.03
-9.08
-10.22
-11.44
-12.78
-14.19
-15.55
-16.56
-16.86
-16.17
-14.41
-11.78
-8.69
-5.58
-2.85
-0.72
0.73
1.55
1.87
1.86
1.74
1.69
1.87
2.30
2.93
3.64
4.31
4.86
5.26
5.51
5.62
5.65
5.63
5.64
5.77
6.05
6.44
6.83
7.06
7.03
6.74
6.32
5.92
5.64
5.41
5.07
4.47
3.58
2.50
1.45
0.61
0.09
-0.14
-0.22
-0.31
-0.57
-1.09
-1.91
-2.94
-4.02
-4.97
-5.65
-6.11
-6.55
-7.28
-8.57
-10.45
-12.72
-14.93
-16.55
-17.14
-16.43
-14.48
-11.61
-8.31
-5.11
-2.44
-0.52
0.69
1.39
1.87
2.37
3.00
3.78
4.57
5.24
5.65
5.78
5.71
5.62
5.71
6.10
6.77
7.56
8.25
8.67
8.75
8.53
8.16
7.78
7.45
7.18
6.90
6.57
6.19
5.80
5.47
5.18
4.89
4.46
3.83
3.01
2.11
1.31
0.70
0.30
0.03
-0.28
-0.79
-1.59
-2.71
-4.07
-5.53
-6.93
-8.14
-9.08
-9.74
-10.22
-10.68
-11.33
-12.37
-13.88
-15.78
-17.76
-19.37
-20.08
-19.51
-17.55
-14.47
-10.79
-7.18
-4.14
-1.91
-0.47
0.42
1.00
1.49
1.96
2.45
2.98
3.57
4.24
4.95
5.66
6.33
6.90
7.40
7.87
8.34
8.84
9.38
9.92
10.44
10.85
11.11
11.15
10.95
10.58
10.16
9.83
9.65
9.60
9.49
9.17
8.53
7.68
6.80
6.10
5.69
5.48
5.28
4.85
4.12
3.14
2.07
1.10
0.33
-0.25
-0.74
-1.26
-1.87
-2.60
-3.44
-4.36
-5.37
-6.49
-7.73
-9.06
-10.34
-11.41
-12.18
-12.69
-13.13
-13.84
-15.06
-16.80
-18.84
-20.63
-21.67
-21.58
-20.33
-18.22
-15.71
-13.22
-11.00
-9.08
-7.37
-5.75
-4.21
-2.83
-1.76
-1.08
-0.80
-0.83
-1.02
-1.17
-1.10
-0.61
0.45
2.18
4.55
7.37
10.33
13.06
15.30
16.89
17.78
18.00
17.51
16.27
14.31
11.82
9.22
7.05
5.76
5.56
6.41
7.97
9.83
11.61
13.03
13.97
14.42
14.44
14.14
13.62
12.93
12.09
11.07
9.84
8.44
6.95
5.50
4.18
2.99
1.79
0.42
-1.26
-3.22
-5.23
-7.03
-8.41
-9.35
-10.04
-10.75
-11.65
-12.79
-14.13
-15.58
-17.16
-18.83
-20.45
-21.73
-22.23
-21.62
-19.84
-17.16
-14.07
-11.07
-8.50
-6.42
-4.77
-3.41
-2.29
-1.40
-0.76
-0.26
0.24
0.94
1.97
3.30
4.77
6.06
6.92
7.21
7.06
6.76
6.63
6.89
7.54
8.38
9.14
9.62
9.77
9.67
9.46
9.23
8.93
8.45
7.71
6.77
5.84
5.20
5.02
5.24
5.56
5.60
5.10
4.04
2.72
1.52
0.75
0.47
0.49
0.51
0.23
-0.50
-1.63
-3.00
-4.46
-5.88
-7.23
-8.54
-9.86
-11.23
-12.67
-14.16
-15.65
-17.00
-17.97
-18.26
-17.63
-15.96
-13.42
-10.37
-7.31
-4.67
-2.72
-1.44
-0.68
-0.16
0.38
1.05
1.92
2.90
3.84
4.67
5.31
5.83
6.28
6.75
7.24
7.72
8.18
8.62
9.08
9.58
10.08
10.44
10.50
10.13
9.38
8.38
7.40
6.66
6.27
6.18
6.21
6.12
5.74
5.04
4.11
3.16
2.39
1.89
1.60
1.30
0.77
-0.09
-1.25
-2.50
-3.66
-4.61
-5.39
-6.14
-6.98
-7.97
-9.11
-10.38
-11.82
-13.49
-15.43
-17.47
-19.28
-20.40
-20.44
-19.19
-16.76
-13.51
-9.99
-6.70
-4.01
-2.06
-0.72
0.28
1.21
2.24
3.37
4.44
5.30
5.88
6.25
6.59
7.00
7.52
8.06
8.50
8.77
8.91
9.06
9.34
9.83
10.49
11.15
11.62
11.77
11.55
11.03
10.35
9.68
9.14
8.78
8.56
8.41
8.21
7.88
7.37
6.68
5.82
4.88
3.95
3.12
2.41
1.77
1.10
0.35
-0.47
-1.36
-2.29
-3.29
-4.41
-5.67
-7.02
-8.36
-9.56
-10.55
-11.39
-12.27
-13.41
-15.02
-17.13
-19.58
-22.00
-23.94
-24.95
-24.72
-23.23
-20.65
-17.37
-13.80
-10.30
-7.14
-4.47
-2.41
-0.98
-0.11
0.35
0.70
1.22
2.20
3.72
5.65
7.65
9.28
10.25
10.48
10.24
9.92
9.93
10.45
11.39
12.46
13.31
13.72
13.67
13.32
12.89
12.60
12.49
12.52
12.52
12.37
11.99
11.43
10.80
10.27
9.91
9.70
9.54
9.31
8.94
8.42
7.77
7.04
6.24
5.35
4.37
3.27
2.08
0.84
-0.38
-1.49
-2.47
-3.32
-4.13
-5.02
-6.11
-7.41
-8.91
-10.49
-12.03
-13.41
-14.61
-15.70
-16.82
-18.13
-19.72
-21.47
-23.07
-24.05
-24.01
-22.70
-20.17
-16.76
-12.98
-9.35
-6.26
-3.89
-2.20
-0.96
0.10
1.20
2.46
3.85
5.25
6.58
7.74
8.74
9.59
10.27
10.77
11.06
11.12
11.03
10.94
10.99
11.35
12.01
12.91
13.86
14.66
15.10
15.06
14.54
13.64
12.55
11.45
10.52
9.87
9.52
9.40
9.39
9.31
9.06
8.55
7.79
6.85
5.84
4.89
4.07
3.42
2.86
2.29
1.57
0.62
-0.59
-1.99
-3.50
-5.00
-6.43
-7.69
-8.72
-9.48
-10.03
-10.58
-11.38
-12.76
-14.87
-17.62
-20.62
-23.24
-24.87
-25.02
-23.57
-20.77
-17.11
-13.18
-9.47
-6.29
-3.69
-1.64
-0.03
1.19
2.06
2.67
3.12
3.61
4.23
5.06
6.02
6.95
7.72
8.28
8.72
9.16
9.73
10.47
11.31
12.10
12.69
12.97
12.92
12.60
12.10
11.52
10.90
10.24
9.56
8.82
8.06
7.27
6.48
5.69
4.89
4.08
3.25
2.46
1.75
1.17
0.67
0.14
-0.58
-1.64
-3.07
-4.72
-6.32
-7.60
-8.44
-8.96
-9.49
-10.40
-11.92
-13.99
-16.35
-18.60
-20.35
-21.28
-21.20
-19.96
-17.55
-14.15
-10.16
-6.16
-2.72
-0.24
1.25
2.00
2.47
3.04
3.88
4.91
5.94
6.79
7.41
7.89
8.29
8.67
8.98
9.15
9.20
9.25
9.44
9.86
10.48
11.14
11.67
11.96
12.04
12.00
11.93
11.82
11.58
11.12
10.39
9.45
8.40
7.36
6.39
5.51
4.71
3.98
3.29
2.65
2.03
1.42
0.79
0.12
-0.66
-1.62
-2.78
-4.13
-5.56
-6.91
-8.09
-9.06
-9.93
-10.83
-11.94
-13.40
-15.28
-17.57
-20.15
-22.77
-25.01
-26.37
-26.44
-25.00
-22.18
-18.41
-14.25
-10.25
-6.80
-4.10
-2.16
-0.81
0.16
1.04
2.09
3.42
4.98
6.53
7.83
8.69
9.15
9.44
9.86
10.62
11.74
13.03
14.25
15.23
15.91
16.38
16.72
16.91
16.84
16.35
15.41
14.20
13.05
12.26
11.98
12.09
12.23
12.12
11.57
10.68
9.64
8.66
7.78
6.94
6.02
4.94
3.74
2.52
1.33
0.24
-0.77
-1.65
-2.32
-2.70
-2.81
-2.83
-3.01
-3.55
-4.52
-5.77
-7.03
-8.11
-8.98
-9.75
-10.59
-11.64
-12.90
-14.31
-15.83
-17.49
-19.42
-21.67
-24.12
-26.35
-27.77
-27.83
-26.22
-23.06
-18.86
-14.34
-10.15
-6.65
-3.86
-1.61
0.25
1.78
2.94
3.72
4.29
4.95
5.98
7.45
9.15
10.69
11.70
12.11
12.06
11.90
11.93
12.26
12.81
13.43
13.95
14.32
14.51
14.52
14.36
14.01
13.48
12.83
12.10
11.40
10.79
10.28
9.82
9.34
8.77
8.07
7.28
6.52
5.90
5.44
5.13
4.82
4.40
3.77
2.94
2.00
1.06
0.18
-0.62
-1.41
-2.24
-3.09
-3.91
-4.59
-5.10
-5.53
-6.07
-6.89
-8.03
-9.41
-10.82
-12.17
-13.48
-14.95
-16.79
-19.04
-21.44
-23.51
-24.68
-24.52
-22.86
-19.86
-15.89
-11.50
-7.23
-3.54
-0.72
1.16
2.22
2.71
2.90
3.01
3.21
3.54
4.04
4.63
5.22
5.67
5.95
6.09
6.24
6.57
7.21
8.18
9.31
10.38
11.22
11.70
11.82
11.62
11.14
10.43
9.56
8.61
7.70
6.96
6.45
6.16
6.02
5.84
5.47
4.78
3.77
2.58
1.44
0.51
-0.14
-0.64
-1.24
-2.15
-3.42
-4.90
-6.34
-7.48
-8.23
-8.73
-9.22
-9.98
-11.14
-12.73
-14.63
-16.67
-18.65
-20.33
-21.43
-21.63
-20.66
-18.45
-15.19
-11.30
-7.40
-4.02
-1.50
0.13
1.11
1.75
2.33
2.95
3.62
4.26
4.85
5.42
6.03
6.71
7.47
8.21
8.87
9.42
9.84
10.15
10.39
10.58
10.73
10.82
10.86
10.83
10.73
10.55
10.27
9.87
9.27
8.45
7.44
6.34
5.26
4.32
3.55
2.92
2.38
1.86
1.32
0.76
0.19
-0.37
-0.89
-1.34
-1.73
-2.09
-2.56
-3.26
-4.25
-5.50
-6.89
-8.30
-9.66
-10.99
-12.35
-13.81
-15.40
-17.08
-18.84
-20.63
-22.38
-23.93
-24.92
-24.95
-23.67
-20.96
-17.01
-12.38
-7.72
-3.67
-0.63
1.30
2.34
2.86
3.23
3.72
4.43
5.35
6.36
7.41
8.43
9.42
10.33
11.11
11.69
12.01
12.08
12.00
11.96
12.11
12.51
13.10
13.69
14.06
14.02
13.55
12.81
12.04
11.43
11.06
10.82
10.54
10.09
9.46
8.74
8.05
7.47
6.98
6.46
5.85
5.14
4.41
3.81
3.43
3.21
3.04
2.71
2.08
1.12
-0.04
-1.18
-2.07
-2.61
-2.88
-3.10
-3.55
-4.40
-5.69
-7.24
-8.88
-10.42
-11.82
-13.11
-14.33
-15.52
-16.68
-17.89
-19.23
-20.86
-22.81
-24.94
-26.87
-28.04
-27.91
-26.15
-22.76
-18.12
-12.85
-7.67
-3.20
0.16
2.30
3.32
3.55
3.37
3.19
3.35
4.05
5.34
7.07
8.95
10.63
11.83
12.38
12.30
11.78
11.08
10.48
10.18
10.29
10.73
11.35
11.95
12.37
12.54
12.49
12.28
11.94
11.47
10.86
10.15
9.40
8.70
8.10
7.62
7.21
6.83
6.48
6.18
5.95
5.77
5.59
5.37
5.06
4.64
4.11
3.44
2.59
1.55
0.39
-0.81
-1.94
-2.98
-3.94
-4.86
-5.75
-6.58
-7.35
-8.04
-8.73
-9.48
-10.32
-11.21
-12.06
-12.86
-13.74
-14.95
-16.70
-18.99
-21.43
-23.37
-24.07
-23.04
-20.26
-16.21
-11.63
-7.24
-3.56
-0.77
1.19
2.43
3.10
3.34
3.32
3.27
3.40
3.80
4.43
5.11
5.67
6.05
6.35
6.77
7.48
8.50
9.69
10.82
11.65
12.02
11.91
11.41
10.72
10.01
9.41
8.95
8.60
8.23
7.77
7.18
6.52
5.86
5.22
4.55
3.73
2.76
1.72
0.82
0.25
0.05
-0.00
-0.23
-0.91
-2.13
-3.69
-5.26
-6.55
-7.43
-7.99
-8.46
-9.09
-10.05
-11.45
-13.29
-15.44
-17.62
-19.44
-20.39
-20.09
-18.40
-15.50
-11.84
-7.97
-4.39
-1.38
0.95
2.65
3.82
4.59
5.06
5.37
5.59
5.77
5.93
6.13
6.40
6.80
7.34
7.96
8.48
8.77
8.77
8.57
8.37
8.37
8.67
9.19
9.75
10.14
10.20
9.87
9.19
8.23
7.15
6.08
5.13
4.34
3.63
2.90
2.07
1.16
0.28
-0.44
-0.95
-1.34
-1.84
-2.71
-4.03
-5.71
-7.46
-8.94
-9.92
-10.36
-10.44
-10.50
-10.93
-12.03
-13.94
-16.54
-19.41
-21.98
-23.57
-23.67
-22.08
-19.01
-15.02
-10.83
-7.06
-4.05
-1.90
-0.43
0.59
1.38
2.14
3.02
4.12
5.43
6.84
8.10
8.99
9.38
9.31
8.98
8.61
8.37
8.35
8.53
8.92
9.51
10.25
11.06
11.79
12.28
12.42
12.21
11.73
11.14
10.54
10.00
9.50
9.00
8.48
7.91
7.31
6.68
6.00
5.29
4.56
3.81
3.05
2.27
1.48
0.70
-0.03
-0.75
-1.51
-2.40
-3.50
-4.82
-6.29
-7.75
-9.01
-9.92
-10.49
-10.85
-11.24
-11.89
-13.00
-14.62
-16.70
-19.05
-21.38
-23.30
-24.35
-24.21
-22.74
-20.07
-16.64
-12.99
-9.60
-6.72
-4.43
-2.67
-1.37
-0.48
0.06
0.41
0.81
1.46
2.48
3.78
5.13
6.28
7.07
7.51
7.71
7.77
7.78
7.76
7.77
7.84
8.03
8.32
8.66
8.94
9.12
9.26
9.50
10.02
10.88
11.97
13.05
13.87
14.28
14.27
13.97
13.54
13.08
12.61
12.07
11.40
10.60
9.69
8.71
7.69
6.63
5.52
4.37
3.19
2.00
0.81
-0.37
-1.51
-2.57
-3.51
-4.34
-5.12
-5.97
-7.03
-8.35
-9.90
-11.56
-13.19
-14.70
-16.15
-17.65
-19.37
-21.28
-23.14
-24.47
-24.74
-23.56
-20.95
-17.27
-13.15
-9.21
-5.89
-3.33
-1.47
-0.16
0.78
1.44
1.92
2.38
2.95
3.78
4.87
6.10
7.25
8.11
8.59
8.73
8.74
8.82
9.13
9.69
10.37
10.96
11.33
11.41
11.26
11.04
10.80
10.58
10.31
9.94
9.48
8.99
8.57
8.27
8.09
7.88
7.50
6.80
5.79
4.60
3.45
2.52
1.86
1.36
0.85
0.16
-0.78
-1.87
-2.92
-3.80
-4.45
-4.97
-5.51
-6.25
-7.26
-8.55
-10.08
-11.76
-13.51
-15.20
-16.65
-17.58
-17.67
-16.68
-14.55
-11.55
-8.21
-5.10
-2.65
-0.93
0.24
1.18
2.09
2.98
3.73
4.25
4.60
4.93
5.40
6.02
6.65
7.07
7.17
7.02
6.83
6.88
7.32
8.14
9.16
10.10
10.66
10.66
10.06
9.05
7.93
6.98
6.37
6.05
5.83
5.47
4.86
4.06
3.22
2.49
1.88
1.34
0.73
-0.01
-0.86
-1.77
-2.64
-3.46
-4.25
-5.01
-5.74
-6.44
-7.16
-8.08
-9.44
-11.41
-13.90
-16.51
-18.58
-19.42
-18.68
-16.42
-13.19
-9.71
-6.62
-4.23
-2.56
-1.37
-0.41
0.47
1.35
2.26
3.19
4.17
5.17
6.12
6.93
7.47
7.68
7.57
7.27
6.99
6.99
7.47
8.44
9.70
10.90
11.70
11.94
11.69
11.19
10.67
10.26
9.93
9.56
9.09
8.48
7.79
7.09
6.41
5.78
5.20
4.63
4.08
3.49
2.83
2.12
1.41
0.76
0.19
-0.36
-1.04
-1.95
-3.12
-4.43
-5.68
-6.77
-7.67
-8.47
-9.34
-10.43
-11.83
-13.58
-15.68
-17.95
-20.13
-21.80
-22.49
-21.88
-19.87
-16.68
-12.83
-8.99
-5.72
-3.40
-2.04
-1.35
-0.89
-0.20
0.98
2.65
4.56
6.36
7.74
8.60
9.01
9.20
9.36
9.60
9.93
10.26
10.56
10.83
11.17
11.66
12.30
13.00
13.54
13.73
13.48
12.86
12.06
11.31
10.77
10.45
10.25
10.04
9.76
9.45
9.22
9.13
9.16
9.20
9.05
8.58
7.75
6.65
5.47
4.43
3.72
3.36
3.27
3.25
3.09
2.66
1.95
1.08
0.20
-0.58
-1.24
-1.89
-2.65
-3.64
-4.84
-6.18
-7.52
-8.76
-9.89
-10.94
-11.97
-13.02
-14.08
-15.17
-16.38
-17.83
-19.58
-21.49
-23.15
-23.99
-23.46
-21.33
-17.82
-13.56
-9.39
-5.97
-3.62
-2.19
-1.30
-0.56
0.27
1.17
2.08
2.93
3.81
4.84
6.08
7.37
8.48
9.13
9.27
9.10
8.93
9.05
9.51
10.12
10.60
10.83
10.84
10.82
10.94
11.17
11.33
11.21
10.77
10.13
9.53
9.14
8.96
8.83
8.56
8.06
7.36
6.59
5.88
5.28
4.79
4.40
4.12
3.91
3.76
3.58
3.29
2.85
2.28
1.63
0.99
0.36
-0.31
-1.11
-2.06
-3.13
-4.23
-5.24
-6.08
-6.76
-7.36
-7.98
-8.78
-9.90
-11.41
-13.31
-15.39
-17.32
-18.66
-19.01
-18.17
-16.19
-13.36
-10.11
-6.87
-4.01
-1.71
-0.09
0.89
1.36
1.49
1.52
1.64
1.97
2.51
3.19
3.90
4.51
4.95
5.18
5.28
5.32
5.39
5.57
5.86
6.20
6.53
6.80
7.02
7.22
7.46
7.72
7.91
7.94
7.70
7.20
6.54
5.87
5.32
4.98
4.79
4.65
4.43
4.06
3.49
2.77
1.95
1.08
0.19
-0.77
-1.83
-3.04
-4.35
-5.62
-6.67
-7.34
-7.63
-7.74
-7.95
-8.58
-9.80
-11.56
-13.54
-15.31
-16.46
-16.73
-16.08
-14.65
-12.71
-10.53
-8.34
-6.27
-4.41
-2.80
-1.46
-0.37
0.51
1.21
1.77
2.25
2.68
3.08
3.50
3.98
4.54
5.20
5.90
6.55
7.04
7.34
7.50
7.65
7.96
8.51
9.21
9.82
10.04
9.66
8.69
7.35
6.00
5.00
4.49
4.42
4.55
4.60
4.37
3.84
3.19
2.56
2.08
1.68
1.22
0.60
-0.17
-0.94
-1.56
-1.94
-2.17
-2.44
-2.93
-3.75
-4.84
-6.06
-7.25
-8.33
-9.24
-10.03
-10.79
-11.70
-12.90
-14.44
-16.17
-17.71
-18.63
-18.53
-17.32
-15.13
-12.32
-9.37
-6.64
-4.40
-2.78
-1.74
-1.12
-0.66
-0.10
0.71
1.81
3.07
4.31
5.35
6.07
6.48
6.62
6.58
6.47
6.37
6.36
6.46
6.68
6.99
7.40
7.84
8.25
8.51
8.51
8.21
7.65
6.98
6.40
6.00
5.80
5.74
5.69
5.59
5.44
5.29
5.17
5.03
4.80
4.36
3.70
2.87
1.96
1.10
0.36
-0.28
-0.89
-1.57
-2.38
-3.28
-4.24
-5.14
-5.94
-6.61
-7.22
-7.84
-8.58
-9.52
-10.72
-12.18
-13.83
-15.57
-17.20
-18.49
-19.18
-19.05
-18.01
-16.15
-13.74
-11.11
-8.63
-6.53
-4.89
-3.63
-2.57
-1.58
-0.57
0.45
1.45
2.40
3.26
4.05
4.78
5.43
5.98
6.40
6.72
6.95
7.13
7.29
7.48
7.74
8.08
8.50
8.98
9.42
9.74
9.86
9.75
9.42
8.90
8.23
7.48
6.73
6.09
5.68
5.54
5.62
5.73
5.65
5.16
4.22
2.96
1.65
0.57
-0.13
-0.50
-0.77
-1.14
-1.76
-2.56
-3.39
-4.05
-4.48
-4.78
-5.10
-5.62
-6.39
-7.36
-8.39
-9.42
-10.47
-11.64
-13.08
-14.75
-16.50
-17.96
-18.77
-18.68
-17.65
-15.84
-13.53
-11.02
-8.56
-6.31
-4.38
-2.82
-1.61
-0.70
0.03
0.71
1.42
2.14
2.80
3.38
3.89
4.38
4.92
5.49
6.05
6.50
6.87
7.18
7.54
7.98
8.45
8.86
9.10
9.14
8.98
8.65
8.14
7.46
6.61
5.72
4.99
4.60
4.58
4.77
4.87
4.62
3.91
2.90
1.81
0.88
0.19
-0.33
-0.86
-1.52
-2.34
-3.26
-4.18
-5.06
-5.88
-6.69
-7.57
-8.58
-9.75
-11.07
-12.50
-13.92
-15.16
-16.02
-16.28
-15.74
-14.34
-12.16
-9.46
-6.61
-3.98
-1.83
-0.22
0.92
1.71
2.31
2.81
3.27
3.73
4.23
4.79
5.36
5.88
6.26
6.50
6.65
6.80
7.04
7.37
7.80
8.35
8.99
9.70
10.36
10.82
10.88
10.45
9.60
8.52
7.46
6.64
6.09
5.72
5.38
4.92
4.32
3.60
2.85
2.09
1.33
0.53
-0.30
-1.12
-1.92
-2.68
-3.48
-4.36
-5.34
-6.41
-7.47
-8.50
-9.52
-10.63
-11.97
-13.62
-15.56
-17.61
-19.48
-20.81
-21.30
-20.72
-19.08
-16.59
-13.62
-10.60
-7.85
-5.53
-3.63
-2.08
-0.79
0.32
1.29
2.15
3.00
3.93
4.99
6.16
7.31
8.30
8.97
9.29
9.31
9.18
9.09
9.18
9.54
10.13
10.85
11.60
12.25
12.73
12.96
12.83
12.22
11.11
9.60
7.95
6.51
5.55
5.14
5.14
5.24
5.18
4.82
4.16
3.35
2.52
1.73
1.01
0.31
-0.40
-1.11
-1.84
-2.64
-3.55
-4.61
-5.83
-7.13
-8.40
-9.57
-10.63
-11.69
-12.90
-14.44
-16.38
-18.71
-21.19
-23.46
-25.07
-25.61
-24.88
-22.91
-19.98
-16.52
-12.99
-9.75
-6.98
-4.71
-2.91
-1.48
-0.33
0.64
1.58
2.61
3.80
5.19
6.65
8.02
9.14
9.90
10.35
10.69
11.13
11.84
12.84
13.93
14.86
15.41
15.48
15.14
14.57
14.02
13.62
13.43
13.35
13.29
13.12
12.76
12.21
11.49
10.63
9.66
8.63
7.53
6.43
5.40
4.48
3.72
3.08
2.50
1.90
1.24
0.52
-0.24
-0.99
-1.75
-2.56
-3.49
-4.61
-5.90
-7.34
-8.84
-10.32
-11.73
-13.13
-14.61
-16.30
-18.27
-20.50
-22.77
-24.72
-25.91
-25.97
-24.70
-22.20
-18.88
-15.31
-12.00
-9.27
-7.13
-5.40
-3.84
-2.32
-0.80
0.68
2.12
3.60
5.18
6.83
8.36
9.55
10.25
10.53
10.65
10.91
11.45
12.18
12.87
13.29
13.36
13.21
13.06
13.07
13.24
13.46
13.55
13.41
13.07
12.62
12.16
11.71
11.17
10.43
9.39
8.07
6.62
5.30
4.31
3.73
3.43
3.16
2.67
1.85
0.75
-0.45
-1.66
-2.88
-4.24
-5.87
-7.77
-9.78
-11.65
-13.22
-14.53
-15.77
-17.22
-19.03
-21.04
-22.84
-23.83
-23.57
-21.86
-18.87
-15.11
-11.18
-7.60
-4.68
-2.43
-0.70
0.71
1.94
3.05
4.09
5.03
5.88
6.62
7.22
7.71
8.11
8.49
8.93
9.45
10.00
10.51
10.94
11.33
11.74
12.23
12.77
13.24
13.50
13.44
13.07
12.46
11.74
10.97
10.14
9.19
8.08
6.86
5.58
4.38
3.34
2.50
1.80
1.12
0.30
-0.82
-2.27
-3.98
-5.75
-7.40
-8.77
-9.90
-10.96
-12.20
-13.88
-16.14
-18.96
-22.11
-25.18
-27.66
-29.08
-29.04
-27.36
-24.15
-19.74
-14.68
-9.56
-4.95
-1.23
1.44
3.10
4.06
4.71
5.44
6.53
8.01
9.72
11.38
12.76
13.76
14.47
15.03
15.60
16.19
16.71
17.07
17.23
17.29
17.36
17.48
17.56
17.50
17.17
16.58
15.89
15.22
14.61
13.94
13.03
11.76
10.24
8.72
7.51
6.78
6.44
6.23
5.85
5.18
4.31
3.43
2.70
2.08
1.36
0.28
-1.30
-3.31
-5.48
-7.50
-9.19
-10.55
-11.72
-12.88
-14.15
-15.56
-17.09
-18.81
-20.84
-23.29
-26.15
-29.11
-31.63
-33.02
-32.77
-30.71
-27.10
-22.50
-17.63
-13.05
-9.19
-6.19
-3.99
-2.39
-1.12
0.08
1.43
2.99
4.71
6.44
8.07
9.55
10.87
12.07
13.13
14.01
14.70
15.25
15.77
16.38
17.12
17.90
18.59
19.05
19.21
19.11
18.82
18.40
17.90
17.27
16.50
15.56
14.50
13.36
12.28
11.36
10.72
10.36
10.18
9.97
9.51
8.60
7.25
5.63
3.99
2.61
1.65
1.08
0.72
0.33
-0.32
-1.32
-2.63
-4.10
-5.56
-6.87
-8.00
-9.00
-9.94
-10.91
-12.04
-13.44
-15.28
-17.69
-20.68
-24.00
-27.14
-29.44
-30.29
-29.37
-26.78
-22.97
-18.57
-14.18
-10.17
-6.72
-3.85
-1.52
0.30
1.68
2.78
3.87
5.22
6.99
9.11
11.29
13.19
14.52
15.19
15.31
15.14
14.96
14.98
15.28
15.77
16.26
16.55
16.53
16.22
15.76
15.28
14.86
14.43
13.92
13.27
12.55
11.93
11.52
11.30
11.12
10.76
10.10
9.16
8.04
6.89
5.74
4.56
3.30
2.03
0.88
-0.05
-0.74
-1.32
-2.03
-3.05
-4.44
-6.08
-7.78
-9.35
-10.73
-12.00
-13.35
-15.00
-17.09
-19.66
-22.52
-25.30
-27.43
-28.35
-27.61
-25.16
-21.33
-16.72
-12.05
-7.85
-4.39
-1.70
0.32
1.82
2.90
3.69
4.33
5.03
5.94
7.10
8.39
9.63
10.62
11.28
11.66
11.90
12.10
12.33
12.61
12.93
13.29
13.70
14.13
14.48
14.65
14.48
13.94
13.04
11.88
10.62
9.35
8.13
6.96
5.87
4.86
3.95
3.16
2.47
1.82
1.13
0.33
-0.65
-1.85
-3.29
-4.92
-6.68
-8.44
-10.05
-11.42
-12.55
-13.58
-14.74
-16.26
-18.22
-20.48
-22.67
-24.30
-24.88
-24.11
-21.97
-18.69
-14.66
-10.38
-6.31
-2.84
-0.19
1.60
2.64
3.22
3.62
4.10
4.77
5.62
6.53
7.41
8.20
8.88
9.52
10.15
10.79
11.42
12.01
12.56
13.09
13.62
14.17
14.68
15.01
14.98
14.46
13.48
12.22
10.95
9.88
9.09
8.49
7.92
7.24
6.47
5.67
4.93
4.22
3.45
2.52
1.43
0.29
-0.72
-1.50
-2.09
-2.69
-3.54
-4.79
-6.41
-8.25
-10.04
-11.58
-12.88
-14.10
-15.57
-17.59
-20.30
-23.56
-26.94
-29.80
-31.48
-31.48
-29.67
-26.24
-21.69
-16.62
-11.63
-7.18
-3.56
-0.89
0.85
1.86
2.46
3.06
3.95
5.25
6.85
8.46
9.79
10.69
11.22
11.60
12.04
12.64
13.34
14.02
14.58
15.00
15.29
15.45
15.46
15.24
14.77
14.12
13.45
12.94
12.71
12.71
12.80
12.71
12.26
11.41
10.26
9.03
7.94
7.11
6.54
6.12
5.71
5.14
4.33
3.25
1.97
0.62
-0.68
-1.84
-2.86
-3.84
-4.90
-6.14
-7.59
-9.20
-10.88
-12.49
-13.96
-15.26
-16.43
-17.64
-19.13
-21.08
-23.55
-26.31
-28.91
-30.69
-31.06
-29.65
-26.47
-21.93
-16.74
-11.68
-7.41
-4.22
-2.08
-0.65
0.50
1.67
2.99
4.41
5.78
7.05
8.24
9.44
10.66
11.84
12.82
13.45
13.69
13.65
13.56
13.68
14.15
14.92
15.77
16.39
16.53
16.15
15.42
14.58
13.87
13.37
13.03
12.72
12.31
11.72
10.93
9.97
8.92
7.88
6.97
6.27
5.77
5.41
5.05
4.57
3.93
3.14
2.24
1.28
0.26
-0.74
-1.66
-2.44
-3.12
-3.86
-4.87
-6.29
-8.07
-9.92
-11.55
-12.74
-13.57
-14.39
-15.58
-17.40
-19.83
-22.59
-25.24
-27.37
-28.63
-28.81
-27.72
-25.30
-21.66
-17.17
-12.37
-7.91
-4.32
-1.80
-0.20
0.92
2.02
3.36
4.92
6.44
7.61
8.29
8.57
8.70
8.96
9.46
10.15
10.86
11.48
11.96
12.41
12.91
13.44
13.86
13.97
13.68
13.10
12.41
11.82
11.38
10.99
10.45
9.63
8.55
7.37
6.34
5.58
5.09
4.71
4.24
3.56
2.71
1.79
0.96
0.22
-0.51
-1.41
-2.59
-4.03
-5.59
-7.04
-8.21
-9.09
-9.86
-10.79
-12.17
-14.13
-16.59
-19.26
-21.71
-23.48
-24.18
-23.56
-21.59
-18.46
-14.51
-10.15
-5.85
-1.97
1.19
3.51
5.00
5.79
6.13
6.25
6.37
6.62
7.02
7.53
8.05
8.52
8.92
9.30
9.71
10.21
10.79
11.37
11.86
12.21
12.43
12.57
12.63
12.52
12.13
11.36
10.24
8.97
7.82
7.03
6.62
6.39
6.03
5.32
4.21
2.88
1.65
0.76
0.29
0.12
0.01
-0.25
-0.81
-1.73
-2.97
-4.46
-6.11
-7.76
-9.29
-10.56
-11.53
-12.34
-13.24
-14.54
-16.51
-19.16
-22.20
-25.07
-27.10
-27.69
-26.52
-23.64
-19.46
-14.59
-9.70
-5.32
-1.75
0.92
2.80
4.04
4.83
5.32
5.65
5.97
6.39
7.02
7.85
8.76
9.56
10.06
10.22
10.13
10.03
10.18
10.72
11.58
12.61
13.52
14.13
14.29
13.99
13.32
12.42
11.48
10.68
10.06
9.59
9.12
8.53
7.77
6.95
6.21
5.66
5.28
4.86
4.20
3.19
1.92
0.63
-0.46
-1.19
-1.65
-2.03
-2.57
-3.39
-4.48
-5.76
-7.12
-8.50
-9.89
-11.31
-12.76
-14.27
-15.88
-17.70
-19.83
-22.25
-24.77
-26.93
-28.14
-27.88
-25.94
-22.50
-18.09
-13.39
-9.00
-5.27
-2.31
-0.11
1.42
2.33
2.72
2.82
2.98
3.56
4.79
6.61
8.69
10.57
11.86
12.40
12.35
12.04
11.83
11.96
12.42
13.06
13.65
14.00
14.02
13.69
13.11
12.38
11.62
10.96
10.45
10.12
9.90
9.69
9.35
8.77
7.92
6.90
5.89
5.13
4.80
4.93
5.34
5.72
5.75
5.27
4.33
3.19
2.13
1.34
0.77
0.22
-0.58
-1.76
-3.29
-4.98
-6.59
-7.96
-9.11
-10.12
-11.13
-12.17
-13.21
-14.20
-15.21
-16.45
-18.16
-20.41
-22.94
-25.15
-26.28
-25.74
-23.36
-19.51
-14.97
-10.56
-6.86
-4.08
-2.09
-0.65
0.49
1.46
2.29
2.99
3.63
4.30
5.09
6.02
7.05
8.04
8.85
9.36
9.54
9.51
9.48
9.67
10.18
10.95
11.75
12.32
12.48
12.28
11.86
11.38
10.92
10.40
9.77
9.03
8.30
7.76
7.48
7.35
7.16
6.69
5.87
4.82
3.71
2.76
2.03
1.50
1.08
0.68
0.21
-0.37
-1.10
-1.99
-3.04
-4.17
-5.29
-6.29
-7.08
-7.64
-8.08
-8.56
-9.29
-10.48
-12.19
-14.32
-16.58
-18.49
-19.55
-19.38
-17.88
-15.34
-12.22
-9.10
-6.39
-4.26
-2.63
-1.31
-0.13
1.00
2.08
3.05
3.91
4.66
5.30
5.82
6.22
6.51
6.72
6.94
7.21
7.55
7.93
8.30
8.62
8.87
9.04
9.15
9.23
9.28
9.25
9.08
8.69
8.02
7.11
6.09
5.16
4.47
4.04
3.75
3.35
2.66
1.64
0.48
-0.51
-1.07
-1.14
-0.91
-0.73
-0.94
-1.71
-2.94
-4.39
-5.79
-6.99
-8.02
-9.02
-10.16
-11.58
-13.29
-15.17
-16.99
-18.35
-18.86
-18.22
-16.36
-13.53
-10.22
-7.04
-4.41
-2.54
-1.30
-0.46
0.24
0.97
1.74
2.50
3.19
3.82
4.40
4.96
5.52
6.09
6.63
7.10
7.44
7.66
7.82
8.04
8.44
9.03
9.71
10.31
10.62
10.54
10.12
9.48
8.76
8.06
7.36
6.68
6.04
5.52
5.22
5.20
5.38
5.61
5.68
5.42
4.77
3.76
2.52
1.17
-0.18
-1.45
-2.62
-3.68
-4.63
-5.47
-6.25
-7.03
-7.90
-8.92
-10.18
-11.68
-13.44
-15.43
-17.53
-19.53
-21.19
-22.18
-22.27
-21.38
-19.60
-17.15
-14.34
-11.43
-8.63
-6.10
-3.96
-2.31
-1.17
-0.44
0.08
0.68
1.59
2.88
4.44
6.00
7.29
8.16
8.68
9.03
9.38
9.81
10.29
10.70
10.96
11.08
11.10
11.07
10.99
10.82
10.50
10.04
9.51
9.02
8.65
8.42
8.26
8.10
7.79
7.29
6.61
5.86
5.23
4.85
4.71
4.64
4.39
3.76
2.72
1.45
0.23
-0.65
-1.15
-1.39
-1.66
-2.19
-3.07
-4.22
-5.41
-6.45
-7.23
-7.86
-8.49
-9.33
-10.45
-11.78
-13.20
-14.59
-15.93
-17.26
-18.61
-19.84
-20.65
-20.65
-19.53
-17.27
-14.16
-10.74
-7.58
-5.12
-3.51
-2.66
-2.31
-2.13
-1.86
-1.32
-0.44
0.75
2.16
3.62
4.95
6.03
6.81
7.30
7.61
7.85
8.08
8.36
8.68
9.01
9.30
9.51
9.59
9.49
9.22
8.76
8.17
7.51
6.81
6.13
5.51
5.00
4.66
4.51
4.54
4.73
4.99
5.26
5.46
5.55
5.53
5.37
5.03
4.47
3.65
2.57
1.27
-0.12
-1.48
-2.69
-3.73
-4.63
-5.45
-6.28
-7.14
-8.08
-9.11
-10.29
-11.64
-13.18
-14.86
-16.49
-17.80
-18.47
-18.25
-17.04
-14.95
-12.32
-9.56
-7.02
-4.87
-3.09
-1.51
-0.01
1.38
2.54
3.30
3.61
3.58
3.48
3.57
4.03
4.81
5.75
6.65
7.34
7.81
8.09
8.28
8.41
8.49
8.51
8.44
8.29
8.12
7.95
7.78
7.59
7.31
6.89
6.28
5.53
4.71
3.93
3.33
2.96
2.82
2.84
2.88
2.84
2.64
2.22
1.51
0.50
-0.87
-2.51
-4.29
-5.96
-7.31
-8.24
-8.81
-9.28
-9.92
-10.95
-12.39
-14.05
-15.60
-16.63
-16.85
-16.14
-14.57
-12.37
-9.83
-7.25
-4.87
-2.85
-1.26
-0.09
0.75
1.42
2.06
2.76
3.54
4.34
5.07
5.67
6.14
6.55
6.99
7.57
8.32
9.23
10.20
11.05
11.64
11.87
11.74
11.36
10.84
10.29
9.77
9.26
8.78
8.35
8.00
7.74
7.48
7.14
6.60
5.81
4.85
3.84
2.93
2.20
1.62
1.12
0.59
-0.04
-0.77
-1.56
-2.38
-3.21
-4.10
-5.08
-6.11
-7.13
-8.07
-8.93
-9.80
-10.89
-12.37
-14.29
-16.45
-18.51
-20.02
-20.60
-20.09
-18.56
-16.26
-13.51
-10.60
-7.79
-5.28
-3.22
-1.73
-0.79
-0.21
0.27
0.95
1.98
3.32
4.72
5.96
6.87
7.46
7.86
8.19
8.52
8.80
8.99
9.06
9.05
9.08
9.22
9.51
9.87
10.19
10.31
10.14
9.65
8.93
8.13
7.41
6.85
6.47
6.19
5.90
5.54
5.14
4.74
4.39
4.08
3.78
3.45
3.08
2.68
2.29
1.90
1.50
1.04
0.47
-0.25
-1.14
-2.18
-3.33
-4.54
-5.77
-6.97
-8.16
-9.37
-10.63
-11.93
-13.27
-14.64
-16.07
-17.56
-19.06
-20.41
-21.34
-21.53
-20.76
-19.02
-16.48
-13.54
-10.60
-7.98
-5.85
-4.17
-2.81
-1.64
-0.60
0.33
1.14
1.92
2.73
3.64
4.61
5.51
6.21
6.62
6.83
6.99
7.25
7.68
8.21
8.71
9.08
9.29
9.38
9.41
9.41
9.40
9.40
9.42
9.45
9.47
9.35
9.03
8.49
7.80
7.10
6.50
6.03
5.60
5.12
4.54
3.87
3.19
2.56
1.98
1.38
0.71
-0.06
-0.89
-1.75
-2.66
-3.70
-4.90
-6.20
-7.47
-8.58
-9.51
-10.38
-11.46
-12.97
-14.98
-17.28
-19.48
-21.09
-21.72
-21.21
-19.65
-17.35
-14.70
-12.07
-9.71
-7.73
-6.13
-4.82
-3.75
-2.81
-1.97
-1.16
-0.33
0.54
1.44
2.34
3.19
4.00
4.83
5.73
6.71
7.72
8.65
9.40
9.88
10.08
10.06
9.86
9.52
9.04
8.46
7.83
7.22
6.72
6.38
6.17
6.02
5.85
5.55
5.12
4.55
3.90
3.19
2.44
1.61
0.68
-0.35
-1.42
-2.42
-3.25
-3.88
-4.36
-4.84
-5.49
-6.46
-7.79
-9.43
-11.26
-13.12
-14.81
-16.12
-16.82
-16.71
-15.67
-13.75
-11.11
-8.05
-4.95
-2.16
0.06
1.58
2.49
3.03
3.49
4.14
5.08
6.23
7.38
8.26
8.73
8.80
8.63
8.46
8.49
8.79
9.32
9.96
10.59
11.16
11.65
12.04
12.29
12.30
11.96
11.26
10.34
9.38
8.62
8.14
7.92
7.75
7.43
6.78
5.78
4.55
3.30
2.25
1.53
1.13
0.89
0.59
-0.01
-1.00
-2.31
-3.81
-5.29
-6.68
-7.98
-9.29
-10.69
-12.21
-13.86
-15.60
-17.39
-19.14
-20.66
-21.61
-21.60
-20.36
-17.86
-14.43
-10.64
-7.12
-4.31
-2.29
-0.92
0.13
1.10
2.13
3.22
4.32
5.38
6.41
7.42
8.39
9.28
10.00
10.50
10.78
10.91
10.97
11.05
11.18
11.36
11.55
11.72
11.81
11.79
11.65
11.41
11.10
10.75
10.39
10.00
9.55
8.99
8.33
7.61
6.94
6.42
6.08
5.82
5.51
5.05
4.38
3.59
2.80
2.11
1.51
0.93
0.23
-0.70
-1.91
-3.39
-5.10
-6.93
-8.77
-10.44
-11.82
-12.85
-13.60
-14.27
-15.15
-16.44
-18.17
-20.15
-21.93
-23.00
-22.96
-21.66
-19.28
-16.21
-12.91
-9.77
-7.04
-4.77
-2.98
-1.59
-0.47
0.54
1.62
2.91
4.46
6.16
7.83
9.23
10.26
10.91
11.30
11.58
11.87
12.22
12.58
12.89
13.10
13.23
13.35
13.52
13.69
13.78
13.65
13.28
12.73
12.16
11.73
11.44
11.16
10.66
9.80
8.63
7.38
6.32
5.63
5.29
5.07
4.72
4.09
3.20
2.23
1.37
0.72
0.21
-0.32
-1.05
-2.04
-3.24
-4.49
-5.64
-6.62
-7.50
-8.42
-9.53
-10.87
-12.44
-14.18
-16.09
-18.14
-20.28
-22.32
-23.94
-24.69
-24.22
-22.39
-19.34
-15.52
-11.49
-7.80
-4.76
-2.49
-0.87
0.30
1.23
2.10
2.96
3.83
4.71
5.63
6.62
7.67
8.69
9.55
10.12
10.36
10.38
10.38
10.54
10.94
11.50
12.08
12.51
12.67
12.55
12.20
11.71
11.17
10.67
10.23
9.86
9.47
8.98
8.28
7.33
6.20
5.01
3.85
2.80
1.81
0.83
-0.20
-1.29
-2.36
-3.34
-4.18
-4.89
-5.58
-6.33
-7.23
-8.29
-9.53
-10.96
-12.66
-14.69
-17.01
-19.37
-21.34
-22.34
-21.96
-20.09
-16.98
-13.22
-9.44
-6.10
-3.35
-1.08
0.89
2.68
4.25
5.47
6.27
6.71
7.01
7.38
7.93
8.61
9.23
9.65
9.86
9.97
10.13
10.43
10.81
11.15
11.29
11.19
10.93
10.63
10.39
10.23
10.08
9.87
9.52
9.03
8.44
7.74
6.91
5.91
4.76
3.57
2.51
1.75
1.32
1.09
0.80
0.20
-0.85
-2.29
-3.92
-5.51
-6.90
-8.09
-9.19
-10.38
-11.81
-13.59
-15.73
-18.16
-20.66
-22.91
-24.54
-25.13
-24.42
-22.36
-19.12
-15.11
-10.86
-6.88
-3.54
-1.01
0.75
1.92
2.69
3.28
3.82
4.42
5.14
6.04
7.07
8.18
9.23
10.12
10.79
11.29
11.73
12.22
12.76
13.29
13.69
13.85
13.79
13.58
13.33
13.08
12.80
12.40
11.85
11.15
10.38
9.61
8.88
8.18
7.46
6.70
5.91
5.12
4.34
3.55
2.71
1.80
0.89
0.03
-0.76
-1.52
-2.39
-3.46
-4.77
-6.22
-7.67
-8.99
-10.15
-11.23
-12.39
-13.80
-15.57
-17.74
-20.22
-22.81
-25.18
-26.92
-27.63
-27.07
-25.19
-22.23
-18.59
-14.69
-10.90
-7.44
-4.40
-1.85
0.21
1.86
3.19
4.38
5.57
6.85
8.20
9.52
10.66
11.55
12.17
12.59
12.91
13.20
13.49
13.77
14.06
14.39
14.79
15.30
15.86
16.35
16.58
16.39
15.74
14.71
13.52
12.43
11.61
11.09
10.77
10.48
10.09
9.54
8.86
8.12
7.38
6.65
5.93
5.21
4.49
3.77
3.07
2.32
1.44
0.36
-0.95
-2.46
-4.07
-5.67
-7.15
-8.46
-9.56
-10.47
-11.33
-12.30
-13.63
-15.50
-17.95
-20.80
-23.62
-25.79
-26.71
-25.98
-23.51
-19.63
-14.95
-10.22
-6.08
-2.93
-0.82
0.50
1.40
2.22
3.18
4.31
5.51
6.65
7.62
8.40
9.04
9.60
10.10
10.58
11.02
11.48
11.99
12.57
13.21
13.78
14.16
14.21
13.90
13.25
12.37
11.43
10.56
9.85
9.29
8.85
8.42
7.90
7.21
6.34
5.34
4.32
3.40
2.68
2.17
1.85
1.57
1.18
0.51
-0.48
-1.78
-3.20
-4.56
-5.67
-6.49
-7.12
-7.75
-8.63
-9.91
-11.62
-13.60
-15.51
-16.97
-17.64
-17.33
-16.01
-13.86
-11.13
-8.10
-5.04
-2.15
0.34
2.30
3.63
4.37
4.72
4.93
5.17
5.51
5.85
6.05
6.01
5.80
5.55
5.45
5.56
5.86
6.27
6.71
7.14
7.58
7.98
8.26
8.36
8.24
8.00
7.76
7.61
7.53
7.38
7.00
6.27
5.23
4.03
2.85
1.80
0.89
0.06
-0.76
-1.58
-2.41
-3.23
-4.03
-4.83
-5.63
-6.41
-7.12
-7.80
-8.53
-9.48
-10.83
-12.62
-14.65
-16.49
-17.64
-17.67
-16.46
-14.19
-11.27
-8.17
-5.28
-2.80
-0.77
0.83
2.01
2.77
3.12
3.12
2.95
2.86
3.05
3.62
4.48
5.41
6.13
6.48
6.46
6.24
6.09
6.18
6.54
7.07
7.56
7.90
8.02
7.96
7.77
7.42
6.91
6.21
5.40
4.62
4.05
3.78
3.80
3.94
3.93
3.58
2.78
1.65
0.38
-0.78
-1.67
-2.29
-2.74
-3.12
-3.52
-3.92
-4.27
-4.57
-4.91
-5.37
-6.07
-6.99
-8.03
-9.07
-10.08
-11.16
-12.47
-14.10
-15.96
-17.73
-18.98
-19.31
-18.54
-16.72
-14.11
-11.06
-7.92
-4.99
-2.51
-0.62
0.64
1.34
1.64
1.76
1.91
2.27
2.89
3.77
4.80
5.85
6.74
7.34
7.59
7.54
7.29
6.94
6.59
6.27
6.00
5.87
5.96
6.30
6.82
7.32
7.57
7.43
6.96
6.33
5.79
5.43
5.15
4.77
4.13
3.23
2.24
1.38
0.81
0.48
0.21
-0.20
-0.82
-1.55
-2.19
-2.54
-2.53
-2.27
-2.01
-1.99
-2.35
-3.02
-3.85
-4.58
-5.09
-5.36
-5.52
-5.75
-6.22
-6.96
-7.95
-9.10
-10.35
-11.67
-13.04
-14.34
-15.33
-15.69
-15.13
-13.57
-11.17
-8.37
-5.68
-3.53
-2.07
-1.23
-0.74
-0.32
0.20
0.79
1.35
1.81
2.18
2.54
3.03
3.64
4.25
4.65
4.69
4.38
3.90
3.55
3.59
4.13
5.06
6.12
7.02
7.55
7.63
7.33
6.77
6.10
5.48
4.99
4.67
4.52
4.45
4.39
4.26
4.02
3.69
3.30
2.90
2.52
2.13
1.71
1.26
0.81
0.38
-0.02
-0.45
-0.96
-1.62
-2.40
-3.22
-3.99
-4.66
-5.21
-5.66
-6.10
-6.64
-7.39
-8.42
-9.68
-10.97
-11.95
-12.28
-11.71
-10.28
-8.24
-6.01
-4.01
-2.45
-1.40
-0.75
-0.39
-0.26
-0.31
-0.46
-0.56
-0.42
0.10
0.97
2.03
2.99
3.60
3.75
3.54
3.21
3.02
3.13
3.53
4.09
4.62
4.97
5.09
4.99
4.73
4.39
4.05
3.77
3.59
3.51
3.46
3.37
3.14
2.69
2.02
1.15
0.16
-0.87
-1.81
-2.57
-3.07
-3.34
-3.42
-3.45
-3.56
-3.82
-4.22
-4.74
-5.36
-6.13
-7.11
-8.36
-9.73
-10.98
-11.75
-11.79
-11.04
-9.68
-8.03
-6.35
-4.77
-3.24
-1.70
-0.18
1.12
1.96
2.20
1.94
1.52
1.29
1.48
2.01
2.60
2.96
2.98
2.80
2.73
3.03
3.73
4.65
5.47
5.97
6.07
5.91
5.69
5.58
5.62
5.71
5.73
5.58
5.28
4.85
4.39
3.95
3.55
3.20
2.89
2.63
2.41
2.24
2.10
1.96
1.79
1.54
1.15
0.61
-0.05
-0.75
-1.39
-1.90
-2.33
-2.79
-3.40
-4.22
-5.18
-6.11
-6.84
-7.39
-7.87
-8.51
-9.49
-10.74
-12.00
-12.85
-12.91
-11.98
-10.17
-7.84
-5.48
-3.49
-2.05
-1.13
-0.56
-0.18
0.14
0.42
0.72
1.09
1.62
2.35
3.22
4.09
4.76
5.09
5.08
4.84
4.56
4.41
4.45
4.66
4.96
5.33
5.74
6.22
6.80
7.44
8.04
8.48
8.65
8.49
8.00
7.25
6.34
5.36
4.42
3.59
2.94
2.49
2.25
2.16
2.13
2.06
1.84
1.40
0.76
0.02
-0.67
-1.19
-1.53
-1.79
-2.14
-2.73
-3.58
-4.59
-5.60
-6.44
-7.08
-7.56
-8.03
-8.62
-9.45
-10.56
-11.90
-13.32
-14.61
-15.47
-15.65
-15.05
-13.72
-11.92
-9.94
-8.01
-6.23
-4.60
-3.14
-1.91
-1.03
-0.59
-0.52
-0.62
-0.62
-0.32
0.36
1.32
2.41
3.50
4.48
5.30
5.88
6.20
6.27
6.19
6.10
6.13
6.29
6.51
6.64
6.58
6.32
5.97
5.62
5.37
5.19
5.02
4.77
4.44
4.04
3.69
3.46
3.36
3.33
3.23
2.92
2.33
1.48
0.50
-0.41
-1.11
-1.51
-1.68
-1.76
-1.91
-2.22
-2.71
-3.28
-3.82
-4.27
-4.69
-5.20
-5.97
-7.07
-8.47
-9.99
-11.41
-12.54
-13.28
-13.60
-13.45
-12.80
-11.60
-9.89
-7.84
-5.76
-3.99
-2.73
-1.97
-1.50
-1.02
-0.37
0.45
1.26
1.85
2.15
2.27
2.42
2.78
3.39
4.12
4.79
5.25
5.46
5.53
5.61
5.81
6.13
6.47
6.71
6.77
6.68
6.51
6.39
6.35
6.33
6.18
5.78
5.09
4.21
3.35
2.66
2.21
1.90
1.55
1.00
0.21
-0.73
-1.65
-2.37
-2.82
-3.08
-3.28
-3.62
-4.24
-5.16
-6.33
-7.62
-8.91
-10.13
-11.25
-12.26
-13.08
-13.58
-13.59
-13.03
-11.87
-10.24
-8.34
-6.41
-4.61
-3.07
-1.85
-0.93
-0.29
0.13
0.42
0.68
0.99
1.42
1.96
2.58
3.22
3.85
4.44
5.00
5.57
6.14
6.74
7.33
7.87
8.31
8.62
8.77
8.77
8.66
8.48
8.28
8.08
7.86
7.54
7.07
6.43
5.66
4.87
4.10
3.43
2.85
2.37
1.97
1.64
1.33
0.97
0.45
-0.35
-1.45
-2.80
-4.27
-5.72
-7.04
-8.19
-9.25
-10.33
-11.57
-13.02
-14.61
-16.13
-17.25
-17.64
-17.14
-15.73
-13.64
-11.19
-8.70
-6.43
-4.54
-3.07
-2.02
-1.33
-0.82
-0.27
0.55
1.78
3.38
5.09
6.59
7.60
8.05
8.07
7.97
8.02
8.37
8.97
9.65
10.21
10.53
10.62
10.55
10.38
10.16
9.90
9.62
9.37
9.22
9.22
9.35
9.51
9.59
9.46
9.07
8.42
7.59
6.68
5.80
5.01
4.32
3.69
3.03
2.29
1.45
0.58
-0.29
-1.14
-2.08
-3.24
-4.68
-6.30
-7.87
-9.14
-9.99
-10.51
-11.00
-11.81
-13.15
-14.97
-17.01
-18.91
-20.32
-20.99
-20.81
-19.72
-17.77
-15.11
-12.02
-8.92
-6.20
-4.15
-2.82
-2.02
-1.42
-0.68
0.40
1.84
3.44
4.99
6.26
7.14
7.69
8.01
8.25
8.48
8.73
9.00
9.30
9.67
10.18
10.83
11.57
12.22
12.61
12.61
12.22
11.57
10.84
10.23
9.83
9.61
9.46
9.23
8.80
8.19
7.47
6.79
6.25
5.89
5.63
5.39
5.06
4.57
3.92
3.09
2.09
0.90
-0.47
-1.91
-3.28
-4.40
-5.20
-5.75
-6.26
-6.99
-8.10
-9.62
-11.45
-13.41
-15.33
-17.09
-18.53
-19.52
-19.92
-19.62
-18.59
-16.94
-14.81
-12.39
-9.82
-7.21
-4.69
-2.42
-0.56
0.77
1.59
2.03
2.31
2.61
3.05
3.59
4.17
4.71
5.19
5.63
6.06
6.49
6.90
7.30
7.75
8.34
9.09
9.92
10.67
11.11
11.08
10.58
9.72
8.73
7.81
7.09
6.54
6.08
5.58
4.98
4.27
3.52
2.82
2.17
1.57
0.93
0.20
-0.64
-1.55
-2.49
-3.43
-4.41
-5.46
-6.64
-7.95
-9.34
-10.80
-12.31
-13.91
-15.61
-17.27
-18.68
-19.49
-19.38
-18.18
-15.89
-12.79
-9.27
-5.79
-2.72
-0.28
1.48
2.68
3.55
4.26
4.95
5.62
6.22
6.71
7.15
7.58
8.07
8.55
8.90
9.02
8.89
8.68
8.66
9.01
9.71
10.52
11.13
11.32
11.10
10.72
10.51
10.65
11.13
11.72
12.11
12.07
11.48
10.42
9.01
7.44
5.88
4.44
3.24
2.32
1.64
1.08
0.46
-0.40
-1.61
-3.16
-4.92
-6.69
-8.28
-9.56
-10.52
-11.33
-12.26
-13.55
-15.33
-17.47
-19.64
-21.34
-22.09
-21.60
-19.84
-17.08
-13.75
-10.31
-7.16
-4.55
-2.57
-1.22
-0.35
0.29
0.98
2.00
3.44
5.22
7.10
8.74
9.88
10.43
10.56
10.53
10.64
11.05
11.73
12.55
13.31
13.93
14.40
14.77
15.01
15.04
14.73
14.04
13.03
11.94
11.02
10.45
10.24
10.21
10.12
9.78
9.14
8.29
7.41
6.63
5.98
5.33
4.58
3.66
2.64
1.69
0.93
0.32
-0.35
-1.36
-2.86
-4.75
-6.76
-8.55
-9.92
-10.93
-11.85
-12.97
-14.50
-16.49
-18.82
-21.31
-23.66
-25.54
-26.53
-26.28
-24.62
-21.64
-17.76
-13.52
-9.49
-6.04
-3.33
-1.34
0.07
1.09
1.92
2.75
3.76
5.04
6.56
8.18
9.72
11.01
12.00
12.74
13.36
13.98
14.70
15.48
16.22
16.79
17.11
17.17
17.00
16.67
16.15
15.42
14.45
13.32
12.20
11.28
10.71
10.45
10.34
10.13
9.70
9.06
8.35
7.77
7.40
7.21
7.03
6.66
5.98
4.98
3.74
2.40
1.09
-0.12
-1.24
-2.29
-3.31
-4.28
-5.18
-6.00
-6.78
-7.62
-8.66
-9.97
-11.57
-13.45
-15.54
-17.82
-20.26
-22.81
-25.22
-27.14
-28.08
-27.63
-25.61
-22.23
-17.99
-13.57
-9.58
-6.40
-4.10
-2.54
-1.46
-0.59
0.26
1.18
2.19
3.28
4.46
5.74
7.10
8.43
9.61
10.44
10.85
10.86
10.70
10.65
10.95
11.66
12.60
13.46
13.97
14.00
13.63
13.09
12.53
12.02
11.48
10.79
9.88
8.81
7.75
6.89
6.30
5.91
5.56
5.09
4.40
3.56
2.73
2.04
1.51
1.04
0.46
-0.41
-1.63
-3.14
-4.78
-6.35
-7.72
-8.84
-9.83
-10.91
-12.32
-14.21
-16.50
-18.89
-20.89
-21.98
-21.82
-20.32
-17.68
-14.32
-10.68
-7.20
-4.18
-1.80
-0.12
0.94
1.57
2.03
2.55
3.25
4.08
4.90
5.55
5.97
6.25
6.55
6.96
7.50
8.08
8.59
8.98
9.29
9.58
9.85
9.96
9.73
9.05
7.99
6.81
5.87
5.46
5.68
6.38
7.27
8.02
8.43
8.48
8.34
8.21
8.22
8.31
8.30
7.95
7.13
5.91
4.49
3.12
1.89
0.72
-0.60
-2.26
-4.30
-6.65
-9.14
-11.66
-14.15
-16.54
-18.61
-19.99
-20.21
-18.97
-16.31
-12.62
-8.60
-4.95
-2.17
-0.39
0.55
1.02
1.41
2.00
2.87
3.95
5.09
6.10
6.91
7.52
8.05
8.64
9.36
10.17
10.96
11.59
11.98
12.14
12.13
11.99
11.76
11.42
10.98
10.50
10.07
9.76
9.58
9.46
9.31
9.00
8.48
7.74
6.85
5.89
4.97
4.16
3.51
3.00
2.57
2.13
1.61
0.98
0.28
-0.47
-1.29
-2.23
-3.37
-4.71
-6.14
-7.52
-8.70
-9.66
-10.54
-11.54
-12.87
-14.63
-16.82
-19.26
-21.68
-23.68
-24.82
-24.70
-23.08
-20.06
-16.10
-11.89
-8.15
-5.31
-3.41
-2.16
-1.14
-0.04
1.20
2.50
3.68
4.67
5.50
6.29
7.12
8.01
8.88
9.60
10.09
10.38
10.55
10.73
11.02
11.40
11.72
11.85
11.66
11.21
10.62
10.12
9.85
9.81
9.89
9.93
9.79
9.42
8.85
8.14
7.37
6.59
5.91
5.37
5.04
4.87
4.76
4.58
4.18
3.51
2.60
1.58
0.62
-0.19
-0.82
-1.34
-1.90
-2.62
-3.56
-4.73
-6.06
-7.47
-8.86
-10.15
-11.28
-12.23
-13.06
-13.89
-14.92
-16.27
-17.89
-19.50
-20.64
-20.81
-19.72
-17.39
-14.13
-10.44
-6.84
-3.70
-1.26
0.43
1.40
1.78
1.78
1.68
1.75
2.18
3.00
4.08
5.19
6.12
6.72
6.98
7.01
6.95
6.96
7.15
7.54
8.04
8.48
8.68
8.56
8.15
7.59
7.02
6.53
6.08
5.60
5.02
4.35
3.72
3.25
3.06
3.17
3.50
3.88
4.14
4.08
3.64
2.84
1.84
0.88
0.13
-0.34
-0.65
-0.97
-1.49
-2.28
-3.29
-4.35
-5.31
-6.08
-6.67
-7.19
-7.78
-8.56
-9.56
-10.78
-12.19
-13.66
-15.02
-16.04
-16.37
-15.73
-13.98
-11.29
-8.11
-5.08
-2.71
-1.22
-0.48
-0.09
0.31
0.95
1.74
2.49
2.97
3.14
3.06
2.94
2.98
3.30
3.91
4.74
5.69
6.62
7.40
7.93
8.15
8.10
7.81
7.38
6.92
6.49
6.12
5.79
5.39
4.84
4.08
3.14
2.14
1.23
0.56
0.19
0.09
0.17
0.27
0.22
-0.09
-0.75
-1.76
-2.99
-4.24
-5.34
-6.13
-6.64
-7.04
-7.54
-8.34
-9.50
-10.95
-12.51
-13.90
-14.86
-15.16
-14.64
-13.26
-11.08
-8.35
-5.42
-2.69
-0.51
0.91
1.60
1.81
1.85
2.04
2.51
3.19
3.92
4.52
4.89
5.07
5.15
5.27
5.48
5.80
6.22
6.69
7.20
7.69
8.08
8.29
8.26
7.98
7.52
6.99
6.47
6.02
5.64
5.28
4.88
4.37
3.70
2.89
1.99
1.13
0.41
-0.08
-0.34
-0.44
-0.52
-0.65
-0.92
-1.33
-1.90
-2.60
-3.39
-4.22
-5.00
-5.63
-6.06
-6.33
-6.57
-6.97
-7.69
-8.80
-10.24
-11.85
-13.45
-14.87
-15.95
-16.52
-16.39
-15.40
-13.52
-10.90
-7.89
-4.97
-2.55
-0.86
0.18
0.83
1.37
1.99
2.67
3.29
3.73
4.02
4.24
4.51
4.87
5.25
5.54
5.69
5.79
6.01
6.52
7.34
8.31
9.18
9.68
9.68
9.24
8.56
7.87
7.28
6.81
6.37
5.88
5.33
4.80
4.36
4.08
3.85
3.51
2.93
2.10
1.19
0.43
0.02
-0.03
0.13
0.29
0.24
-0.07
-0.59
-1.19
-1.78
-2.34
-2.90
-3.53
-4.25
-5.10
-6.08
-7.14
-8.21
-9.24
-10.17
-11.01
-11.86
-12.82
-13.93
-15.06
-15.93
-16.15
-15.45
-13.77
-11.34
-8.57
-5.95
-3.78
-2.16
-1.00
-0.13
0.54
1.06
1.44
1.74
2.07
2.57
3.28
4.13
4.95
5.54
5.77
5.63
5.25
4.81
4.49
4.42
4.63
5.10
5.73
6.40
7.01
7.49
7.80
7.94
7.89
7.62
7.18
6.61
6.03
5.56
5.25
5.06
4.85
4.49
3.91
3.16
2.39
1.75
1.32
1.07
0.91
0.73
0.46
0.13
-0.22
-0.60
-1.04
-1.62
-2.39
-3.32
-4.29
-5.14
-5.82
-6.33
-6.82
-7.47
-8.41
-9.66
-11.14
-12.70
-14.15
-15.29
-15.92
-15.89
-15.07
-13.48
-11.30
-8.84
-6.48
-4.48
-2.98
-1.96
-1.29
-0.79
-0.37
0.02
0.38
0.71
1.01
1.34
1.73
2.22
2.82
3.50
4.20
4.83
5.31
