1544028557.00
64.000000
-0.00
-0.00
-0.00
-0.00
-0.00
-0.00
-0.00
-0.00
-0.00
-0.00
0.00
0.01
0.01
-0.00
-0.03
-0.05
-0.05
0.00
0.13
0.36
0.66
1.01
1.37
1.72
2.06
2.40
2.79
3.24
3.80
4.42
5.06
5.66
6.20
6.68
7.15
7.68
8.31
9.14
10.09
11.04
11.88
12.56
13.14
13.76
14.65
15.96
17.91
20.32
22.90
25.38
27.58
29.57
31.68
34.32
37.81
42.54
48.15
54.10
59.83
64.97
69.58
74.14
79.34
85.71
93.76
103.00
112.62
121.73
129.77
136.75
143.30
150.75
157.77
166.64
177.95
191.79
206.97
220.57
228.25
225.36
208.53
176.87
132.76
80.05
23.07
-34.94
-92.44
-149.16
-205.23
-260.37
-313.74
-363.87
-409.83
-450.91
-486.50
-515.74
-537.23
-549.22
-549.96
-538.37
-514.21
-478.67
-433.88
-382.45
-327.02
-269.84
-212.63
-156.66
-102.95
-52.37
-5.90
35.58
71.43
101.35
125.50
144.38
158.69
169.15
176.37
180.75
182.57
182.07
179.51
175.23
169.65
163.18
156.15
148.81
141.30
133.69
126.02
118.33
110.69
103.16
95.80
88.68
81.83
75.25
68.95
62.95
57.25
51.86
46.78
42.03
37.59
33.45
29.61
26.07
22.81
19.83
17.11
14.67
12.48
10.54
8.83
7.35
6.07
4.97
4.05
3.27
2.62
2.09
1.65
1.30
1.01
0.79
0.61
0.48
0.37
0.29
0.22
0.18
0.14
0.11
0.09
0.08
0.07
0.06
0.05
0.05
0.05
0.05
0.06
0.07
0.08
0.10
0.12
0.14
0.18
0.21
0.24
0.28
0.33
0.37
0.42
0.48
0.54
0.60
0.67
0.74
0.83
0.91
1.00
1.07
1.14
1.22
1.34
1.48
1.64
1.79
1.88
1.91
1.89
1.88
1.93
2.10
2.39
2.77
3.15
3.48
3.72
3.91
4.17
4.63
5.35
6.30
7.34
8.26
8.90
9.19
9.25
9.34
9.79
10.79
12.29
14.02
15.49
16.31
16.29
15.61
14.80
14.44
14.88
15.92
16.81
16.48
14.07
9.33
2.86
-4.01
-9.85
-13.76
-15.97
-17.84
-21.29
-27.63
-37.07
-48.26
-58.69
-66.16
-69.74
-70.36
-70.23
-71.41
-74.70
-79.75
-85.53
-90.82
-94.44
-94.87
-90.10
-78.02
-57.53
-29.73
1.58
31.33
55.39
72.42
84.27
94.40
105.64
117.00
125.20
125.03
110.45
80.04
38.49
-4.08
-36.30
-50.16
-44.41
-24.92
-1.59
16.56
25.48
25.93
22.92
20.96
21.25
21.73
19.69
14.33
8.10
4.95
8.33
19.01
34.14
49.18
59.78
64.11
63.29
60.69
60.38
65.66
78.00
95.93
115.86
132.81
141.81
139.23
123.98
98.14
66.24
33.83
4.85
-18.91
-38.07
-54.57
-70.32
-86.18
-102.01
-117.64
-130.11
-138.93
-144.90
-149.40
-153.51
-157.32
-159.68
-158.41
-151.23
-136.65
-115.23
-88.88
-60.24
-31.59
-4.16
21.95
47.06
71.06
93.02
110.99
123.49
130.50
133.80
136.33
140.91
149.01
160.41
173.63
186.82
198.77
208.94
216.91
221.69
221.57
214.69
200.05
178.28
151.57
123.09
95.58
70.56
47.82
25.84
2.59
-23.79
-54.86
-92.14
-137.03
-189.89
-248.61
-307.64
-358.26
-390.84
-398.21
-378.29
-334.65
-274.58
-205.88
-134.48
-63.84
3.61
64.82
115.61
151.90
171.89
177.59
174.29
168.32
164.11
162.44
160.69
154.47
140.32
117.47
88.16
56.57
26.98
2.07
-17.76
-34.12
-49.70
-67.19
-88.83
-116.15
-149.85
-189.25
-231.66
-272.16
-304.36
-322.30
-322.52
-305.61
-276.00
-240.31
-204.81
-173.58
-147.94
-127.21
-110.14
-95.96
-84.51
-75.79
-69.25
-63.85
-58.54
-53.04
-48.11
-45.30
-45.92
-50.13
-56.61
-63.04
-67.27
-68.38
-67.05
-64.99
-63.90
-64.46
-66.10
-67.61
-68.06
-67.64
-67.58
-69.61
-75.03
-84.13
-96.16
-109.71
-123.07
-134.28
-141.19
-141.84
-135.29
-122.38
-105.70
-88.45
-72.69
-58.06
-41.83
-20.51
7.99
42.98
81.15
118.30
151.43
179.78
204.68
228.16
251.74
275.74
299.30
320.96
338.86
351.05
355.83
352.39
341.32
324.55
304.76
284.30
264.60
245.94
227.89
210.01
192.35
175.35
159.34
144.04
128.47
111.80
93.78
75.00
56.55
39.58
24.67
11.51
-0.98
-14.07
-27.67
-40.60
-51.24
-58.64
-62.89
-65.02
-66.63
-69.42
-74.57
-80.73
-85.28
-86.10
-83.13
-78.26
-74.10
-72.94
-76.00
-83.12
-90.11
-91.55
-83.78
-67.25
-45.84
-24.41
-6.74
5.26
11.56
17.08
28.14
49.52
82.70
127.58
184.74
255.07
337.47
405.08
429.22
394.10
309.19
201.68
99.19
19.38
-31.86
-57.99
-63.22
-53.13
-29.69
5.10
45.54
82.41
106.22
110.56
94.18
55.46
4.27
-45.67
-83.49
-105.50
-114.20
-112.96
-106.04
-98.00
-91.24
-83.75
-72.86
-58.19
-42.31
-28.94
-21.83
-21.03
-25.63
-33.94
-43.45
-52.88
-62.94
-75.76
-94.04
-120.51
-151.57
-185.70
-221.51
-256.72
-288.44
-313.21
-327.64
-329.55
-318.80
-296.97
-267.08
-230.73
-187.51
-136.64
-79.17
-19.47
35.26
77.67
103.65
113.31
111.14
103.13
93.20
81.47
64.99
40.11
5.09
-38.55
-87.15
-136.09
-181.38
-220.58
-252.48
-276.58
-292.63
-300.62
-301.06
-295.29
-284.90
-271.03
-253.94
-233.11
-207.90
-178.31
-145.56
-111.66
-78.70
-47.94
-19.58
6.88
31.88
55.43
77.17
96.94
115.22
132.86
150.44
167.52
182.41
192.75
196.49
192.94
183.26
170.33
158.04
150.49
151.31
163.02
186.71
221.45
263.85
307.97
345.86
368.87
369.59
344.06
293.56
225.18
150.48
82.23
30.31
-1.38
-15.58
-19.57
-21.33
-26.15
-34.96
-45.29
-53.53
-57.28
-56.38
-52.47
-47.77
-43.94
-41.59
-40.47
-39.91
-39.21
-37.86
-35.86
-33.68
-32.07
-31.62
-32.34
-33.44
-33.62
-31.67
-26.93
-19.30
-8.87
4.45
20.52
37.78
52.05
56.61
44.34
11.30
-40.16
-100.81
-157.42
-197.84
-215.81
-212.84
-196.39
-175.63
-157.42
-144.54
-136.48
-131.50
-128.23
-125.60
-121.98
-114.44
-99.30
-73.77
-37.50
6.78
54.31
100.12
140.88
175.62
205.25
231.17
253.94
272.58
284.80
288.07
280.86
263.59
238.86
210.92
184.44
163.22
149.22
142.21
140.17
140.21
139.70
137.06
132.26
126.78
123.11
123.92
130.84
143.40
158.41
170.46
173.48
162.91
137.64
100.53
57.41
14.82
-22.34
-52.10
-75.16
-93.43
-108.23
-119.36
-125.45
-125.13
-118.48
-107.53
-95.78
-86.76
-82.62
-83.33
-87.13
-91.60
-94.99
-96.89
-98.08
-99.73
-102.53
-106.29
-110.06
-112.64
-113.09
-110.95
-106.23
-99.27
-90.61
-80.84
-70.55
-60.19
-50.02
-40.15
-30.70
-21.95
-14.34
-8.33
-4.25
-2.14
-1.81
-2.94
-5.23
-8.45
-12.35
-16.59
-20.77
-24.59
-28.09
-31.78
-36.65
-43.85
-54.22
-67.88
-83.99
-101.03
-117.28
-131.43
-143.02
-152.42
-160.62
-168.67
-177.25
-186.25
-194.68
-200.73
-202.11
-196.53
-182.43
-159.42
-128.42
-91.33
-50.29
-6.83
38.37
85.19
133.15
180.64
224.71
261.91
289.55
306.88
315.25
317.33
315.65
311.62
305.25
295.86
283.12
267.57
250.38
232.39
213.27
191.39
164.60
131.59
92.82
50.75
9.05
-28.56
-59.45
-82.30
-96.82
-103.18
-101.73
-93.19
-79.11
-61.71
-42.82
-22.81
-0.16
27.65
62.04
101.44
140.56
171.67
187.49
184.20
163.36
131.55
97.99
71.01
55.07
49.65
50.45
52.25
51.51
47.46
41.21
33.95
25.47
14.59
0.74
-14.40
-26.89
-32.51
-29.32
-19.07
-6.47
3.19
6.55
3.15
-5.48
-17.38
-31.30
-46.54
-62.26
-77.09
-89.75
-100.15
-110.03
-122.32
-139.38
-161.12
-184.18
-202.94
-211.82
-207.69
-191.11
-165.86
-137.20
-109.78
-86.40
-67.83
-53.53
-42.59
-34.42
-28.81
-25.53
-23.73
-21.66
-16.62
-5.59
13.81
42.22
77.86
116.60
152.99
181.75
199.42
205.32
201.50
191.66
179.66
168.07
157.59
147.37
136.02
122.64
107.27
90.63
73.64
56.97
41.02
26.16
12.87
1.58
-7.67
-15.30
-21.91
-27.79
-32.59
-35.55
-36.23
-35.19
-34.05
-34.81
-38.69
-45.37
-53.11
-59.66
-63.49
-64.51
-63.96
-63.60
-64.78
-67.90
-72.45
-77.48
-82.22
-86.31
-89.67
-92.25
-93.73
-93.51
-90.89
-85.39
-76.97
-66.13
-53.87
-41.41
-30.00
-20.50
-13.24
-7.93
-3.87
-0.17
3.86
8.64
14.21
20.37
26.76
33.06
39.05
44.67
50.10
55.59
61.32
67.25
72.97
77.84
81.16
82.51
81.85
79.56
76.13
71.94
67.07
61.38
54.76
47.38
39.68
32.29
25.65
19.84
14.54
9.26
3.66
-2.22
-8.00
-13.16
-17.36
-20.55
-23.00
-25.09
-27.12
-29.19
-31.18
-32.83
-33.82
-33.84
-32.63
-29.98
-25.84
-20.41
-14.21
-7.98
-2.60
1.32
3.64
4.74
5.34
6.16
7.48
9.12
10.53
11.18
10.89
9.90
8.84
8.46
9.38
11.89
15.80
20.38
24.35
26.03
23.66
15.79
1.70
-18.29
-42.69
-68.97
-94.13
-115.41
-131.00
-140.42
-144.35
-144.12
-141.22
-136.96
-132.56
-129.19
-127.95
-129.47
-133.38
-138.19
-141.63
-141.56
-136.93
-128.36
-117.65
-106.66
-96.16
-85.48
-73.09
-57.87
-40.01
-21.08
-3.01
13.25
28.67
45.89
67.72
95.40
127.46
159.99
188.10
207.89
217.69
218.12
211.18
198.92
182.54
162.24
137.69
108.84
76.54
42.74
10.05
-18.78
-41.55
-57.04
-65.20
-67.14
-64.97
-61.52
-59.91
-63.06
-73.13
-90.77
-114.37
-139.62
-159.92
-167.92
-158.13
-129.41
-86.11
-37.04
7.57
39.55
54.95
54.11
39.92
15.87
-14.93
-49.22
-82.57
-109.05
-122.41
-117.99
-94.58
-54.80
-3.98
51.53
105.77
153.71
191.26
215.24
223.87
217.34
198.00
169.75
136.84
102.61
68.80
35.63
2.49
-31.25
-65.64
-100.10
-133.49
-164.35
-190.81
-210.48
-220.35
-217.36
-199.60
-168.06
-128.13
-89.53
-63.82
-60.10
-80.37
-117.23
-155.38
-177.18
-169.97
-131.94
-73.39
-12.85
30.49
44.24
27.08
-12.01
-58.55
-98.56
-122.89
-128.37
-115.94
-88.00
-46.53
6.64
68.52
133.78
195.12
245.54
280.90
301.55
311.70
317.23
322.83
330.04
337.06
339.93
334.61
318.60
291.80
256.39
215.96
174.37
134.68
98.67
66.82
38.80
13.94
-8.47
-29.17
-48.96
-68.76
-89.25
-110.67
-132.55
-153.79
-172.77
-187.52
-195.97
-196.29
-187.59
-170.56
-147.71
-122.89
-100.04
-81.83
-68.77
-59.32
-51.00
-41.61
-30.24
-17.35
-4.42
6.71
14.39
17.51
15.73
9.61
0.52
-9.73
-19.39
-27.26
-32.80
-35.96
-36.78
-34.98
-29.97
-21.36
-9.70
2.82
12.33
14.33
5.08
-16.82
-49.91
-90.31
-132.89
-172.45
-204.41
-224.99
-231.20
-221.09
-194.27
-152.21
-97.90
-34.84
33.77
105.11
175.99
241.82
296.42
333.46
348.74
342.09
317.75
282.62
243.48
204.81
168.10
132.71
97.62
62.46
27.18
-9.00
-48.40
-94.04
-147.26
-205.19
-259.78
-299.31
-312.28
-291.86
-238.86
-161.84
-74.34
9.36
78.13
126.19
153.18
162.51
159.23
148.13
132.62
114.52
94.47
72.58
49.01
24.27
-0.85
-25.41
-48.29
-68.17
-84.01
-95.68
-104.68
-114.00
-126.92
-145.21
-167.71
-190.36
-208.03
-217.13
-217.61
-213.04
-208.75
-209.21
-216.26
-229.12
-245.79
-264.69
-285.13
-306.34
-325.99
-339.42
-340.59
-324.25
-288.26
-234.57
-168.66
-97.62
-28.12
34.88
88.35
130.85
162.13
182.84
194.57
199.39
199.14
194.74
185.99
172.26
153.59
131.64
109.72
91.98
82.03
81.92
91.82
110.32
134.90
162.29
188.56
209.43
221.07
221.25
210.33
191.30
168.67
146.85
128.69
115.06
105.36
98.58
93.95
90.98
88.99
86.66
82.19
73.98
61.48
45.69
28.89
13.67
1.87
-6.13
-11.35
-15.45
-19.86
-25.06
-30.43
-34.53
-35.78
-33.09
-26.41
-17.29
-9.06
-6.63
-15.24
-38.53
-76.46
-124.15
-172.61
-211.14
-230.78
-226.91
-200.10
-155.02
-98.17
-35.90
26.59
85.12
136.12
176.63
204.89
221.30
228.63
231.21
233.17
236.68
241.02
243.09
239.02
226.13
204.13
175.00
141.74
106.65
70.32
31.88
-9.63
-53.55
-96.86
-134.73
-162.40
-177.14
-179.42
-172.54
-160.97
-148.53
-137.36
-127.97
-120.10
-113.48
-107.90
-102.69
-96.28
-86.38
-70.93
-49.19
-22.31
7.03
35.66
60.93
81.16
95.52
103.48
104.53
98.28
84.92
65.54
42.20
17.50
-5.99
-26.27
-42.20
-53.55
-60.77
-64.65
-66.03
-65.52
-63.55
-60.40
-56.50
-52.39
-48.64
-45.58
-43.10
-40.68
-37.67
-33.70
-28.91
-23.91
-19.49
-16.30
-14.55
-14.03
-14.37
-15.31
-16.74
-18.75
-21.43
-24.71
-28.28
-31.65
-34.29
-35.65
-35.28
-32.83
-28.15
-21.44
-13.30
-4.65
3.40
9.89
14.18
16.01
15.45
12.77
8.39
2.95
-2.59
-7.04
-9.24
-8.49
-4.88
0.79
7.25
13.37
18.48
22.37
25.21
27.21
28.58
29.62
30.73
32.41
35.03
38.72
43.26
48.29
53.47
58.45
62.71
65.51
66.03
63.77
59.05
53.16
47.93
44.89
44.55
46.13
48.07
49.04
48.76
48.35
49.68
54.41
62.96
74.29
86.32
97.05
105.51
112.17
118.51
126.14
135.93
147.55
159.50
169.51
174.88
172.73
160.28
135.45
97.74
49.03
-6.25
-61.93
-111.60
-150.40
-176.13
-189.30
-192.35
-188.35
-180.11
-169.70
-158.44
-147.15
-136.25
-125.80
-115.58
-105.33
-95.00
-85.09
-76.55
-70.45
-67.39
-67.27
-69.25
-72.12
-74.70
-76.23
-76.41
-75.28
-72.96
-69.56
-65.22
-60.22
-55.00
-50.17
-46.23
-43.40
-41.53
-40.29
-39.44
-39.03
-39.37
-40.68
-42.69
-44.44
-44.49
-41.51
-34.82
-24.73
-12.41
0.66
13.16
24.19
33.19
39.89
44.13
45.99
45.86
44.48
42.63
40.83
39.07
36.93
33.80
29.36
23.78
17.69
11.95
7.29
4.19
2.71
2.57
3.11
3.45
2.59
-0.31
-5.54
-12.66
-20.46
-27.28
-31.53
-32.25
-29.36
-23.65
-16.37
-8.77
-1.74
4.35
9.46
13.76
17.46
20.80
24.09
27.72
32.06
37.32
43.39
49.81
55.92
61.10
64.85
66.94
67.27
65.75
62.31
57.09
50.65
44.04
38.75
36.25
37.59
43.00
51.86
62.85
74.32
84.70
92.73
97.65
99.12
97.13
91.90
83.85
73.50
61.53
48.63
35.49
22.70
10.68
-0.29
-10.10
-18.75
-26.30
-32.85
-38.52
-43.46
-47.85
-51.87
-55.71
-59.60
-63.73
-68.28
-73.28
-78.58
-83.83
-88.52
-92.10
-94.05
-94.00
-91.83
-87.73
-82.18
-75.92
-69.68
-63.96
-58.85
-53.93
-48.56
-42.15
-34.54
-26.13
-17.74
-10.26
-4.30
0.03
3.06
5.34
7.31
9.08
10.49
11.27
11.30
10.79
10.17
9.86
9.98
10.29
10.30
9.62
8.27
6.61
5.24
4.52
4.44
4.61
4.56
4.02
3.10
2.19
1.62
1.49
1.57
1.46
0.79
-0.54
-2.38
-4.44
-6.44
-8.24
-9.87
-11.41
-12.79
-13.83
-14.16
-13.42
-11.46
-8.44
-4.83
-1.20
1.90
4.16
5.57
6.32
6.63
6.70
6.61
6.41
6.14
5.91
5.83
6.00
6.42
6.95
7.44
7.67
7.53
7.04
6.30
5.50
4.78
4.21
3.73
3.22
2.52
1.50
0.08
-1.76
-3.94
-6.32
-8.73
-10.98
-12.96
-14.68
-16.30
-18.04
-20.07
-22.44
-25.10
-28.01
-31.16
-34.60
-38.32
-42.13
-45.71
-48.69
-50.77
-51.69
-51.10
-48.33
-42.40
-32.29
-17.35
2.22
25.28
49.96
74.05
95.41
112.14
122.81
126.59
123.49
114.58
101.81
87.58
74.08
62.71
53.82
46.91
40.96
34.73
26.95
16.58
2.99
-13.66
-32.18
-50.56
-66.43
-77.98
-84.48
-86.47
-85.30
-82.42
-78.72
-74.37
-69.02
-62.29
-54.12
-44.83
-35.01
-25.21
-15.89
-7.37
0.01
5.91
10.12
12.85
14.78
16.95
20.36
25.56
32.40
40.11
47.59
53.88
58.34
60.78
61.26
60.04
57.45
53.93
50.00
46.28
43.28
41.27
40.19
39.66
39.08
37.89
35.73
32.66
29.12
25.85
23.55
22.62
22.96
24.05
25.18
25.69
25.21
23.74
21.59
19.23
17.21
15.94
15.64
16.21
17.34
18.59
19.56
20.05
20.05
19.63
18.83
17.65
16.03
14.07
12.06
10.42
9.53
9.51
10.17
11.08
11.73
11.73
10.89
9.30
7.17
4.77
2.38
0.16
-1.76
-3.39
-4.79
-6.12
-7.55
-9.23
-11.25
-13.57
-16.02
-18.35
-20.28
-21.57
-22.20
-22.37
-22.49
-22.99
-24.11
-25.79
-27.61
-28.94
-29.24
-28.21
-25.97
-22.90
-19.51
-16.21
-13.23
-10.61
-8.31
-6.32
-4.66
-3.32
-2.20
-1.04
0.44
2.43
4.87
7.44
9.66
11.13
11.68
11.42
10.66
9.75
8.96
8.38
7.98
7.71
7.49
7.30
7.07
6.76
6.34
5.79
5.19
4.59
4.06
3.59
3.12
2.59
1.96
1.24
0.50
-0.25
-1.05
-1.99
-3.15
-4.54
-6.08
-7.55
-8.79
-9.72
-10.44
-11.17
-12.14
-13.48
-15.11
-16.85
-18.42
-19.55
-20.05
-19.80
-18.74
-16.95
-14.62
-12.03
-9.53
-7.39
-5.76
-4.58
-3.70
-2.93
-2.17
-1.43
-0.80
-0.33
-0.04
0.20
0.52
0.99
1.60
2.24
2.79
3.22
3.66
4.29
5.28
6.63
8.11
9.35
10.03
10.01
9.42
8.53
7.67
7.05
6.73
6.63
6.61
6.53
6.27
5.81
5.15
4.34
3.51
2.80
2.27
1.94
1.70
1.36
0.80
-0.07
-1.20
-2.51
-3.90
-5.30
-6.74
-8.25
-9.86
-11.56
-13.32
-15.05
-16.66
-18.05
-19.05
-19.48
-19.18
-18.08
-16.23
-13.86
-11.28
-8.81
-6.70
-5.01
-3.66
-2.53
-1.52
-0.58
0.23
0.91
1.50
2.08
2.73
3.47
4.23
4.87
5.33
5.61
5.84
6.16
6.64
7.25
7.85
8.29
8.44
8.32
7.98
7.54
7.09
6.69
6.34
5.97
5.52
4.94
4.23
3.46
2.73
2.13
1.71
1.41
1.12
0.71
0.04
-0.92
-2.15
-3.52
-4.90
-6.19
-7.31
-8.28
-9.17
-10.13
-11.31
-12.79
-14.53
-16.28
-17.68
-18.31
-17.85
-16.17
-13.43
-10.02
-6.46
-3.19
-0.50
1.54
3.05
4.19
5.08
5.79
6.28
6.55
6.65
6.69
6.80
7.05
7.43
7.82
8.10
8.18
8.07
7.85
7.63
7.47
7.36
7.23
6.97
6.49
5.81
5.02
4.27
3.67
3.24
2.93
2.63
2.23
1.69
1.05
0.35
-0.35
-1.06
-1.85
-2.80
-3.97
-5.33
-6.74
-8.00
-8.88
-9.27
-9.17
-8.78
-8.37
-8.19
-8.39
-8.98
-9.78
-10.48
-10.77
-10.35
-9.12
-7.16
-4.78
-2.40
-0.40
1.00
1.78
2.08
2.14
2.15
2.18
2.22
2.21
2.19
2.21
2.41
2.86
3.53
4.30
4.95
5.30
5.27
4.93
4.47
4.10
3.97
4.09
4.33
4.45
4.24
3.59
2.60
1.48
0.52
-0.09
-0.29
-0.22
-0.08
-0.10
-0.43
-1.09
-2.03
-3.13
-4.28
-5.40
-6.48
-7.57
-8.76
-10.14
-11.75
-13.55
-15.36
-16.97
-18.12
-18.63
-18.40
-17.50
-16.09
-14.40
-12.70
-11.19
-10.01
-9.21
-8.77
-8.62
-8.71
-9.01
-9.49
-10.20
-11.11
-12.15
-13.10
-13.68
-13.54
-12.47
-10.40
-7.54
-4.32
-1.27
1.08
2.39
2.50
1.49
-0.44
-3.07
-6.21
-9.82
-13.93
-18.65
-24.01
-29.87
-35.85
-41.39
-45.93
-49.01
-50.41
-50.21
-48.69
-46.24
-43.24
-39.92
-36.37
-32.52
-28.32
-23.89
-19.71
-16.56
-15.28
-16.37
-19.58
-23.80
-27.31
-28.52
-26.59
-21.92
-15.96
-10.68
-7.74
-7.74
-9.80
-11.53
-9.41
0.30
20.35
51.25
90.50
132.87
171.61
200.46
215.57
216.55
206.34
189.77
171.70
155.48
142.21
131.11
120.45
108.68
95.11
80.06
64.45
49.33
35.38
22.89
11.87
2.37
-5.35
-10.97
-14.37
-15.86
-16.18
-16.31
-17.08
-18.85
-21.39
-24.08
-26.14
-27.02
-26.60
-25.10
-22.98
-20.69
-18.43
-16.18
-13.80
-11.13
-8.21
-5.25
-2.56
-0.49
0.78
1.31
1.36
1.31
1.48
2.05
2.96
4.02
5.00
5.75
6.25
6.57
6.80
6.99
7.12
7.05
6.61
5.63
4.05
1.99
-0.20
-2.02
-2.99
-2.91
-1.94
-0.53
0.79
1.69
2.24
2.75
3.51
4.45
5.04
4.43
1.86
-2.97
-9.63
-16.98
-23.49
-27.56
-27.96
-24.29
-17.16
-8.30
-0.24
4.19
2.70
-5.78
-20.69
-39.92
-60.47
-79.33
-94.44
-105.06
-111.69
-115.48
-117.45
-117.98
-116.73
-113.07
-106.58
-97.56
-86.96
-76.06
-65.98
-57.37
-50.40
-44.96
-40.88
-38.07
-36.51
-36.13
-36.65
-37.54
-37.94
-36.87
-33.35
-26.84
-17.52
-6.43
4.76
14.28
20.91
24.35
25.23
24.66
23.68
22.86
22.21
21.41
20.14
18.30
16.14
14.05
12.51
11.90
12.44
14.12
16.69
19.69
22.59
24.92
26.44
27.19
27.39
27.30
27.05
26.63
25.87
24.64
22.96
21.11
19.49
18.53
18.45
19.19
20.41
21.70
22.68
23.14
23.06
22.48
21.47
20.10
18.42
16.49
14.37
12.06
9.52
6.67
3.50
0.15
-3.10
-5.91
-7.98
-9.13
-9.27
-8.34
-6.35
-3.38
0.35
4.56
9.02
13.78
19.15
25.60
33.35
42.17
51.20
59.28
65.38
68.96
70.05
69.13
66.73
63.28
59.03
54.23
49.29
44.76
41.19
39.02
38.44
39.50
42.26
46.83
53.32
61.50
70.48
78.48
82.88
80.80
69.93
49.55
20.94
-12.74
-47.47
-79.61
-106.98
-129.12
-146.76
-160.86
-171.75
-178.93
-181.47
-178.78
-171.20
-160.09
-147.50
-135.51
-125.74
-119.07
-115.48
-114.00
-112.81
-109.42
-101.27
-86.56
-65.01
-38.25
-9.46
17.59
39.80
55.62
65.24
70.09
72.00
72.49
72.52
72.61
73.09
74.23
76.12
78.49
80.60
81.50
80.40
77.00
71.69
65.38
59.09
53.52
48.82
44.64
40.47
35.96
31.15
26.43
22.36
19.44
17.89
17.68
18.54
20.16
22.23
24.54
26.96
29.43
31.87
34.21
36.37
38.29
40.01
41.69
43.62
46.12
49.39
53.47
58.15
63.00
67.53
71.20
73.62
74.54
73.84
71.38
66.77
59.32
48.10
32.31
11.66
-13.32
-41.23
-70.04
-97.39
-120.98
-138.79
-149.28
-151.63
-145.97
-133.54
-116.62
-98.11
-80.80
-66.62
-56.20
-48.87
-43.13
-37.42
-30.71
-22.82
-14.36
-6.35
0.17
4.59
6.78
7.03
5.94
4.09
1.95
-0.26
-2.58
-5.18
-8.25
-11.80
-15.56
-19.01
-21.53
-22.59
-21.94
-19.67
-16.18
-11.95
-7.48
-3.06
1.22
5.42
9.72
14.24
18.98
23.66
27.81
30.79
32.04
31.29
28.64
24.51
19.35
13.45
6.82
-0.67
-8.99
-17.82
-26.46
-34.16
-40.36
-44.86
-47.75
-49.18
-49.12
-47.36
-43.69
-38.17
-31.37
-24.19
-17.63
-12.41
-8.72
-6.18
-4.04
-1.40
2.45
7.89
14.79
22.62
30.51
37.52
42.84
45.99
46.81
45.53
42.58
38.51
33.86
29.13
24.61
20.55
17.03
14.18
12.11
10.95
10.71
11.19
11.90
12.30
11.93
10.74
9.04
7.35
6.07
5.20
4.33
2.85
0.28
-3.46
-8.03
-12.83
-17.25
-20.91
-23.62
-25.27
-25.73
-24.85
-22.55
-18.97
-14.55
-9.90
-5.63
-2.14
0.45
2.27
3.52
4.33
4.74
4.76
4.47
4.11
3.99
4.40
5.40
6.80
8.23
9.29
9.68
9.35
8.41
7.05
5.40
3.52
1.37
-1.08
-3.76
-6.52
-9.21
-11.71
-14.02
-16.28
-18.69
-21.50
-24.85
-28.77
-33.06
-37.29
-40.84
-42.97
-43.03
-40.62
-35.68
-28.58
-19.98
-10.68
-1.50
6.91
14.09
19.89
24.39
27.89
30.81
33.59
36.58
39.95
43.66
47.50
51.12
54.07
55.83
55.95
54.12
50.29
44.76
38.06
30.91
23.95
17.72
12.60
8.87
6.76
6.37
7.58
10.02
13.15
16.44
19.52
22.25
24.63
26.67
28.27
29.29
29.64
29.43
28.96
28.53
28.26
27.94
27.12
25.39
22.60
19.04
15.33
12.11
9.75
8.21
7.01
5.57
3.45
0.48
-3.19
-7.23
-11.25
-14.94
-18.04
-20.45
-22.14
-23.19
-23.74
-23.97
-24.03
-24.03
-24.08
-24.32
-24.90
-25.97
-27.59
-29.73
-32.23
-34.82
-37.07
-38.45
-38.32
-36.14
-31.67
-25.16
-17.39
-9.40
-2.20
3.58
7.87
10.96
13.39
15.54
17.57
19.38
20.71
21.27
20.80
19.17
16.36
12.48
7.78
2.64
-2.50
-7.19
-11.08
-14.03
-16.24
-18.18
-20.53
-23.96
-28.81
-34.93
-41.68
-48.07
-53.10
-56.03
-56.59
-54.94
-51.55
-46.95
-41.56
-35.59
-29.04
-21.93
-14.29
-6.35
1.53
8.97
15.63
21.37
26.21
30.29
33.77
36.78
39.35
41.49
43.18
44.38
45.08
45.28
44.98
44.22
43.02
41.40
39.40
37.08
34.55
31.96
29.43
26.94
24.31
21.23
17.30
12.30
6.22
-0.70
-8.03
-15.39
-22.46
-28.99
-34.62
-38.87
-41.14
-40.94
-38.12
-33.09
-26.71
-20.01
-13.99
-9.31
-6.23
-4.70
-4.43
-5.02
-5.96
-6.72
-6.82
-5.96
-4.07
-1.37
1.72
4.71
7.21
8.96
9.91
10.18
10.01
9.61
9.21
8.87
8.58
8.23
7.66
6.77
5.48
3.84
1.96
-0.02
-1.98
-3.86
-5.66
-7.45
-9.31
-11.27
-13.22
-14.98
-16.25
-16.73
-16.16
-14.46
-11.76
-8.38
-4.78
-1.44
1.27
3.09
3.91
3.83
3.09
2.07
1.25
1.03
1.66
3.06
4.97
6.98
8.74
10.11
11.12
11.90
12.57
13.05
13.15
12.61
11.28
9.18
6.52
3.64
0.87
-1.63
-3.86
-5.99
-8.18
-10.55
-13.11
-15.79
-18.48
-21.07
-23.37
-25.12
-25.97
-25.59
-23.78
-20.56
-16.15
-10.95
-5.40
0.10
5.18
9.59
13.19
15.93
17.88
19.15
19.86
20.11
20.03
19.76
19.49
19.33
19.25
19.04
18.41
17.13
15.20
12.85
10.47
8.40
6.85
5.76
4.90
4.00
2.86
1.40
-0.31
-2.10
-3.82
-5.35
-6.71
-7.95
-9.24
-10.70
-12.47
-14.60
-17.11
-19.85
-22.60
-25.03
-26.73
-27.37
-26.70
-24.67
-21.44
-17.32
-12.77
-8.31
-4.38
-1.25
1.00
2.51
3.52
4.27
4.90
5.49
6.11
6.85
7.81
9.04
10.41
11.71
12.64
13.03
12.84
12.25
11.50
10.80
10.17
9.49
8.56
7.20
5.42
3.39
1.39
-0.34
-1.67
-2.69
-3.61
-4.74
-6.28
-8.31
-10.76
-13.47
-16.24
-18.77
-20.68
-21.55
-21.03
-18.98
-15.59
-11.32
-6.81
-2.59
1.00
3.87
6.09
7.78
9.02
9.86
10.37
10.64
10.84
11.07
11.38
11.76
12.14
12.49
12.83
13.19
13.59
13.97
14.18
14.04
13.39
12.19
10.53
8.58
6.55
4.59
2.75
1.00
-0.77
-2.65
-4.70
-6.91
-9.22
-11.43
-13.32
-14.57
-14.86
-13.96
-11.80
-8.54
-4.57
-0.37
3.55
6.82
9.25
10.87
11.83
12.29
12.42
12.33
12.13
11.92
11.82
11.88
12.08
12.31
12.43
12.36
12.13
11.84
11.60
11.41
11.17
10.67
9.72
8.23
6.26
4.01
1.71
-0.47
-2.44
-4.23
-5.92
-7.61
-9.37
-11.23
-13.15
-15.05
-16.78
-18.08
-18.66
-18.25
-16.72
-14.12
-10.72
-6.93
-3.18
0.18
2.97
5.11
6.61
7.53
7.94
7.94
7.69
7.40
7.24
7.35
7.70
8.18
8.62
8.92
9.08
9.15
9.21
9.29
9.34
9.25
8.96
8.42
7.63
6.62
5.41
4.02
2.47
0.80
-1.03
-3.09
-5.48
-8.27
-11.40
-14.60
-17.49
-19.62
-20.73
-20.75
-19.85
-18.33
-16.48
-14.51
-12.56
-10.69
-8.99
-7.53
-6.45
-5.85
-5.77
-6.16
-6.90
-7.74
-8.39
-8.43
-7.53
-5.47
-2.30
1.72
6.15
10.41
13.93
16.20
16.86
15.88
13.58
10.62
7.69
5.29
3.51
2.08
0.63
-1.01
-2.63
-3.86
-4.40
-4.28
-3.86
-3.61
-3.75
-4.13
-4.37
-4.02
-2.89
-1.02
1.41
4.19
7.20
10.38
13.64
16.85
19.84
22.53
24.89
26.94
28.62
29.80
30.28
29.98
29.03
27.76
26.54
25.62
24.99
24.44
23.71
22.65
21.32
19.87
18.46
17.08
15.61
13.90
11.82
9.39
6.68
3.79
0.87
-1.94
-4.47
-6.61
-8.31
-9.69
-10.87
-11.98
-13.01
-13.85
-14.46
-14.90
-15.44
-16.35
-17.74
-19.40
-20.89
-21.60
-21.04
-18.92
-15.17
-10.02
-3.93
2.31
7.76
11.47
12.96
12.38
10.70
9.29
9.38
11.50
15.22
19.34
22.48
23.73
23.07
21.29
19.58
18.91
19.57
21.08
22.48
22.95
22.33
21.23
20.79
22.06
25.43
30.42
35.91
40.73
44.24
46.58
48.51
51.01
55.02
61.21
69.94
80.99
93.17
103.80
108.86
103.86
85.45
53.13
9.95
-38.14
-84.23
-122.76
-150.87
-168.54
-177.44
-179.57
-176.38
-168.91
-158.43
-146.86
-136.51
-129.09
-124.74
-121.75
-117.33
-108.95
-95.69
-78.60
-60.15
-43.05
-29.08
-18.67
-11.18
-5.64
-1.40
1.59
3.07
2.88
1.25
-1.15
-3.52
-5.24
-5.98
-5.70
-4.53
-2.58
0.02
3.10
6.38
9.50
12.15
14.08
15.23
15.57
15.09
13.79
11.70
8.98
5.89
2.72
-0.32
-3.19
-5.92
-8.46
-10.57
-11.82
-11.78
-10.28
-7.55
-4.16
-0.80
1.98
4.03
5.51
6.77
8.07
9.42
10.55
11.11
10.89
9.99
8.87
8.08
8.05
8.80
10.03
11.20
11.90
11.96
11.50
10.76
9.92
8.97
7.74
6.02
3.73
0.99
-1.86
-4.46
-6.57
-8.20
-9.60
-11.11
-12.96
-15.15
-17.43
-19.43
-20.81
-21.32
-20.93
-19.70
-17.81
-15.47
-12.93
-10.40
-8.04
-5.89
-3.93
-2.12
-0.49
0.92
2.02
2.83
3.37
3.69
3.78
3.59
3.07
2.27
1.34
0.47
-0.24
-0.76
-1.23
-1.75
-2.38
-3.02
-3.53
-3.79
-3.83
-3.75
-3.71
-3.83
-4.14
-4.59
-5.12
-5.77
-6.66
-7.96
-9.74
-11.87
-13.97
-15.50
-15.96
-15.07
-12.95
-10.01
-6.88
-4.14
-2.18
-1.12
-0.79
-0.92
-1.20
-1.36
-1.27
-0.88
-0.22
0.70
1.84
3.19
4.65
6.05
7.18
7.81
7.78
7.09
5.85
4.22
2.35
0.33
-1.79
-4.00
-6.30
-8.72
-11.34
-14.24
-17.48
-20.94
-24.30
-27.09
-28.77
-29.02
-27.78
-25.31
-22.02
-18.35
-14.65
-11.15
-8.00
-5.32
-3.18
-1.64
-0.64
-0.07
0.25
0.51
0.87
1.40
2.12
2.95
3.80
4.57
5.22
5.73
6.13
6.40
6.48
6.27
5.66
4.63
3.27
1.73
0.19
-1.28
-2.69
-4.19
-5.99
-8.30
-11.14
-14.37
-17.59
-20.26
-21.84
-21.95
-20.52
-17.77
-14.12
-10.01
-5.79
-1.62
2.43
6.37
10.13
13.59
16.56
18.96
20.79
22.16
23.27
24.28
25.32
26.40
27.46
28.35
28.94
29.13
28.90
28.36
27.65
26.88
26.07
25.16
24.02
22.53
20.67
18.53
16.29
14.15
12.23
10.56
9.05
7.54
5.87
3.93
1.78
-0.42
-2.33
-3.64
-4.08
-3.58
-2.21
-0.15
2.36
5.14
7.97
10.70
13.16
15.20
16.71
17.62
17.92
17.72
17.23
16.75
16.63
17.13
18.32
20.07
22.09
24.05
25.75
27.08
28.09
28.86
29.46
29.93
30.33
30.65
30.91
31.09
31.13
30.97
30.59
30.03
29.37
28.71
28.07
27.46
26.80
25.99
24.96
23.69
22.20
20.58
18.96
17.47
16.16
14.98
13.78
12.43
10.85
9.11
7.32
5.61
4.09
2.74
1.49
0.23
-1.15
-2.79
-4.71
-6.88
-9.11
-11.05
-12.32
-12.65
-11.95
-10.38
-8.29
-6.03
-3.86
-1.92
-0.26
1.06
1.96
2.37
2.26
1.73
0.96
0.19
-0.42
-0.76
-0.88
-0.87
-0.84
-0.89
-1.01
-1.15
-1.25
-1.26
-1.18
-1.06
-0.95
-0.92
-0.98
-1.09
-1.20
-1.27
-1.29
-1.25
-1.19
-1.15
-1.14
-1.17
-1.23
-1.29
-1.33
-1.34
-1.32
-1.30
-1.28
-1.28
-1.30
-1.32
-1.34
-1.36
-1.36
-1.36
-1.35
-1.35
-1.34
-1.34
-1.34
-1.33
-1.32
-1.31
-1.29
-1.28
-1.27
-1.26
-1.26
-1.25
-1.25
-1.24
-1.24
-1.23
-1.23
-1.22
-1.22
-1.21
-1.21
-1.20
-1.20
-1.20
-1.19
-1.19
-1.18
-1.18
-1.17
-1.17
-1.16
-1.16
-1.15
-1.15
-1.15
-1.14
-1.14
-1.13
-1.13
-1.12
-1.12
-1.11
-1.11
-1.11
-1.10
-1.10
-1.09
-1.09
-1.08
-1.08
-1.08
-1.07
-1.07
-1.06
-1.06
-1.06
-1.05
-1.05
-1.04
-1.04
-1.04
-1.03
-1.03
-1.02
-1.02
-1.02
-1.01
-1.01
-1.00
-1.00
-1.00
-0.99
-0.99
-0.98
-0.98
-0.98
-0.97
-0.97
-0.97
-0.96
-0.96
-0.96
-0.95
-0.95
-0.94
-0.94
-0.94
-0.93
-0.93
-0.93
-0.92
-0.92
-0.91
-0.91
-0.91
-0.90
-0.90
-0.90
-0.89
-0.89
-0.89
-0.88
-0.88
-0.88
-0.87
-0.87
-0.87
-0.86
-0.86
-0.86
-0.85
-0.85
-0.85
-0.84
-0.84
-0.84
-0.83
-0.83
-0.83
-0.82
-0.82
-0.82
-0.81
-0.81
-0.81
-0.80
-0.80
-0.80
-0.79
-0.79
-0.79
-0.78
-0.78
-0.78
-0.78
-0.77
-0.77
-0.77
-0.76
-0.76
-0.76
-0.75
-0.75
-0.75
-0.75
-0.74
-0.74
-0.74
-0.73
-0.73
-0.73
-0.73
-0.72
-0.72
-0.72
-0.71
-0.71
-0.71
-0.71
-0.71
-0.70
-0.70
-0.70
-0.68
-0.67
-0.65
-0.63
-0.61
-0.60
-0.58
-0.56
-0.54
-0.51
-0.48
-0.44
-0.41
-0.38
-0.36
-0.34
-0.31
-0.27
-0.21
-0.14
-0.06
0.01
0.07
0.12
0.16
0.22
0.31
0.44
0.61
0.80
0.98
1.13
1.24
1.35
1.49
1.69
1.97
2.34
2.74
3.13
3.46
3.73
3.98
4.28
4.69
5.24
5.92
6.64
7.34
7.93
8.42
8.85
9.31
9.90
10.66
11.59
12.68
13.83
14.93
15.81
16.26
16.15
15.45
14.25
12.74
11.14
9.55
7.95
6.25
4.36
2.33
0.27
-1.59
-3.16
-4.45
-5.62
-6.84
-8.22
-9.76
-11.40
-13.05
-14.73
-16.53
-18.58
-20.97
-23.69
-26.59
-29.43
-31.96
-34.03
-35.71
-37.28
-39.19
-41.85
-45.34
-49.27
-52.89
-55.37
-56.26
-55.83
-55.04
-55.21
-57.38
-61.80
-67.77
-73.89
-78.60
-80.68
-79.67
-75.86
-70.25
-64.22
-59.13
-55.77
-53.82
-51.46
-45.61
-32.85
-10.78
20.48
57.66
94.89
125.44
143.91
148.01
139.05
121.12
99.42
78.46
60.88
47.33
36.97
28.46
20.63
12.90
5.25
-1.97
-8.23
-12.95
-15.51
-15.37
-12.17
-5.91
2.91
13.31
23.97
33.59
41.21
46.51
49.75
51.57
52.56
53.02
52.77
51.38
48.43
43.81
37.88
31.39
25.23
20.20
16.83
15.21
15.04
15.69
16.32
16.14
14.75
12.33
9.61
7.55
6.87
7.63
9.15
10.39
10.47
9.15
6.90
4.64
3.16
2.74
3.14
3.70
3.76
2.89
0.98
-1.82
-5.21
-8.80
-12.16
-14.87
-16.55
-17.01
-16.33
-14.88
-13.31
-12.34
-12.53
-14.13
-16.94
-20.37
-23.57
-25.70
-26.17
-24.83
-21.92
-18.02
-13.86
-10.12
-7.34
-5.84
-5.65
-6.51
-7.90
-9.18
-9.76
-9.30
-7.88
-5.97
-4.28
-3.39
-3.48
-4.19
-4.90
-5.02
-4.39
-3.31
-2.34
-1.89
-1.97
-2.13
-1.82
-0.77
0.77
2.16
2.73
2.23
0.95
-0.39
-1.11
-0.86
0.14
1.28
1.87
1.46
-0.01
-2.18
-4.49
-6.41
-7.62
-8.06
-7.83
-7.12
-6.12
-5.03
-4.06
-3.47
-3.44
-3.90
-4.52
-4.73
-3.94
-1.88
1.24
4.77
7.83
9.74
10.22
9.47
7.96
6.15
4.31
2.44
0.44
-1.68
-3.69
-5.19
-5.81
-5.29
-3.75
-1.52
0.87
2.83
3.89
3.77
2.52
0.63
-1.04
-1.43
0.28
4.27
9.88
15.77
20.40
22.59
21.92
18.78
14.04
8.68
3.44
-1.22
-5.07
-7.93
-9.64
-10.16
-9.65
-8.55
-7.45
-6.91
-7.29
-8.59
-10.50
-12.49
-14.01
-14.72
-14.57
-13.85
-13.07
-12.70
-12.95
-13.69
-14.46
-14.75
-14.26
-13.06
-11.51
-10.07
-9.07
-8.60
-8.51
-8.58
-8.61
-8.46
-8.07
-7.34
-6.17
-4.53
-2.48
-0.28
1.77
3.37
4.32
4.62
4.37
3.81
3.11
2.43
1.82
1.31
0.93
0.74
0.84
1.33
2.23
3.47
4.89
6.32
7.60
8.64
9.40
9.83
9.90
9.56
8.83
7.85
6.81
5.96
5.50
5.52
5.89
6.37
6.58
6.23
5.13
3.31
0.97
-1.62
-4.21
-6.57
-8.60
-10.19
-11.29
-11.91
-12.11
-12.03
-11.80
-11.50
-11.07
-10.36
-9.23
-7.62
-5.67
-3.61
-1.69
-0.11
1.06
1.81
2.18
2.22
1.97
1.53
1.00
0.48
-0.00
-0.50
-1.08
-1.83
-2.74
-3.65
-4.38
-4.72
-4.61
-4.09
-3.38
-2.69
-2.24
-2.13
-2.42
-3.15
-4.32
-5.90
-7.75
-9.66
-11.37
-12.69
-13.55
-14.05
-14.40
-14.79
-15.34
-16.12
-17.13
-18.36
-19.75
-21.12
-22.18
-22.58
-21.98
-20.27
-17.59
-14.35
-11.05
-8.13
-5.83
-4.17
-3.06
-2.38
-2.04
-2.03
-2.33
-2.89
-3.51
-3.95
-3.95
-3.36
-2.17
-0.50
1.43
3.36
5.04
6.34
7.16
7.55
7.63
7.50
7.27
6.92
6.35
5.43
4.07
2.31
0.32
-1.63
-3.25
-4.38
-5.00
-5.32
-5.67
-6.41
-7.81
-9.81
-12.10
-14.09
-15.16
-14.80
-12.83
-9.39
-4.91
-0.01
4.64
8.43
10.90
11.76
10.98
8.80
5.65
2.15
-1.05
-3.44
-4.71
-4.86
-4.12
-2.85
-1.39
0.05
1.41
2.78
4.22
5.75
7.19
8.21
8.39
7.28
4.60
0.32
-5.21
-11.31
-17.10
-21.81
-24.93
-26.38
-26.43
-25.61
-24.50
-23.60
-23.23
-23.44
-23.97
-24.31
-23.90
-22.27
-19.31
-15.17
-10.22
-4.78
0.93
6.77
12.53
17.78
21.95
24.58
25.55
25.24
24.36
23.64
23.52
24.02
24.81
25.44
25.58
25.08
23.98
22.42
20.60
18.69
16.81
15.08
13.55
12.15
10.77
9.25
7.46
5.37
3.04
0.67
-1.41
-2.76
-3.00
-2.04
-0.27
1.36
1.65
-0.51
-5.50
-12.75
-20.86
-28.08
-32.97
-34.89
-34.03
-31.19
-27.28
-22.97
-18.54
-14.05
-9.49
-4.99
-0.84
2.66
5.33
7.23
8.66
10.02
11.66
13.71
16.04
18.32
20.18
21.41
22.01
22.18
22.18
22.15
22.08
21.82
21.24
20.29
19.09
17.88
16.87
16.13
15.55
14.87
13.80
12.15
9.92
7.31
4.61
2.12
0.00
-1.76
-3.38
-5.20
-7.62
-10.94
-15.25
-20.30
-25.47
-29.85
-32.48
-32.65
-30.08
-25.07
-18.34
-10.80
-3.31
3.51
9.35
14.14
17.99
21.09
23.69
25.93
27.90
29.58
30.94
32.04
33.01
34.01
35.15
36.39
37.57
38.48
38.97
39.01
38.64
37.95
37.01
35.89
34.63
33.27
31.88
30.51
29.25
28.15
27.23
26.43
25.55
24.34
22.60
20.31
17.64
14.96
12.57
10.61
8.93
7.22
5.18
2.70
-0.12
-2.95
-5.47
-7.49
-8.99
-10.17
-11.36
-12.92
-15.14
-18.17
-21.84
-25.75
-29.26
-31.67
-32.36
-31.04
-27.78
-23.02
-17.44
-11.72
-6.41
-1.80
2.05
5.27
8.02
10.45
12.63
14.62
16.46
18.20
19.83
21.32
22.57
23.44
23.85
23.85
23.55
23.11
22.67
22.23
21.71
20.98
19.94
18.61
17.11
15.61
14.30
13.30
12.64
12.27
12.11
12.04
11.92
11.62
11.04
10.12
8.91
7.56
6.24
5.08
4.08
3.13
2.08
0.78
-0.77
-2.44
-4.09
-5.53
-6.72
-7.69
-8.52
-9.27
-10.07
-11.07
-12.45
-14.38
-16.89
-19.75
-22.51
-24.56
-25.31
-24.45
-22.01
-18.35
-14.05
-9.74
-5.87
-2.71
-0.27
1.55
2.94
4.01
4.87
5.51
5.97
6.26
6.43
6.59
6.81
7.14
7.59
8.11
8.62
9.02
9.21
9.16
8.91
8.57
8.27
8.09
8.01
7.90
7.64
7.15
6.45
5.69
5.02
4.53
4.23
3.99
3.67
3.08
2.15
0.85
-0.77
-2.59
-4.50
-6.39
-8.24
-10.07
-11.94
-13.99
-16.30
-18.92
-21.73
-24.42
-26.52
-27.55
-27.29
-25.86
-23.86
-22.03
-21.01
-20.97
-21.56
-22.12
-21.95
-20.61
-18.06
-14.58
-10.62
-6.66
-3.12
-0.34
1.45
2.20
2.09
1.47
0.81
0.57
1.04
2.29
4.15
6.31
8.38
10.00
10.93
11.11
10.69
9.94
9.19
8.67
8.48
8.51
8.58
8.48
8.11
7.47
6.65
5.76
4.91
4.12
3.42
2.77
2.14
1.50
0.82
0.11
-0.60
-1.30
-1.99
-2.78
-3.78
-5.13
-6.88
-8.99
-11.25
-13.40
-15.13
-16.15
-16.29
-15.57
-14.22
-12.69
-11.49
-11.09
-11.67
-13.09
-14.87
-16.38
-17.04
-16.55
-14.90
-12.39
-9.42
-6.35
-3.43
-0.77
1.61
3.67
5.33
6.48
7.04
7.04
6.65
6.17
5.96
6.23
7.08
8.34
9.74
10.96
11.78
12.15
12.13
11.89
11.55
11.23
10.94
10.71
10.49
10.28
10.06
9.81
9.49
9.08
8.57
7.99
7.41
6.87
6.39
5.92
5.35
4.57
3.51
2.26
0.95
-0.25
-1.29
-2.26
-3.33
-4.62
-6.14
-7.74
-9.22
-10.39
-11.22
-11.80
-12.34
-13.08
-14.20
-15.78
-17.67
-19.57
-21.05
-21.66
-21.15
-19.57
-17.23
-14.58
-12.02
-9.76
-7.82
-6.14
-4.65
-3.36
-2.35
-1.66
-1.23
-0.91
-0.51
0.14
1.12
2.43
3.99
5.70
7.42
9.00
10.26
11.02
11.21
10.85
10.13
9.35
8.81
8.71
9.04
9.65
10.26
10.63
10.53
9.82
8.44
6.54
4.45
2.71
1.91
2.43
4.21
6.74
9.23
11.00
11.77
11.72
11.32
10.99
10.89
10.84
10.61
10.07
9.28
8.40
7.48
6.31
4.56
2.00
-1.24
-4.63
-7.44
-8.99
-8.97
-7.53
-5.15
-2.50
-0.20
1.27
1.70
1.15
-0.05
-1.32
-2.09
-1.94
-0.81
1.02
3.00
4.58
5.39
5.26
4.25
2.51
0.22
-2.42
-5.22
-7.90
-10.26
-12.18
-13.68
-14.94
-16.19
-17.61
-19.26
-21.03
-22.74
-24.13
-25.05
-25.38
-25.15
-24.46
-23.52
-22.59
-21.96
-21.84
-22.34
-23.34
-24.56
-25.66
-26.36
-26.56
-26.34
-25.97
-25.76
-25.90
-26.36
-26.91
-27.19
-26.87
-25.80
-24.03
-21.83
-19.53
-17.33
-15.25
-13.19
-11.02
-8.77
-6.66
-4.93
-3.70
-2.83
-1.96
-0.68
1.13
3.27
5.25
6.52
6.76
5.89
4.08
1.53
-1.49
-4.46
-6.49
-6.39
-3.06
3.87
13.65
24.38
33.63
39.34
40.53
37.65
32.18
25.96
20.44
16.26
13.31
11.04
8.96
6.90
5.02
3.57
2.60
1.85
0.76
-1.17
-4.16
-7.98
-12.10
-15.99
-19.34
-22.19
-24.71
-27.01
-28.93
-30.06
-29.96
-28.43
-25.64
-22.08
-18.42
-15.22
-12.80
-11.15
-10.09
-9.33
-8.60
-7.72
-6.57
-5.15
-3.50
-1.68
0.24
2.19
4.13
5.99
7.63
8.92
9.76
10.16
10.24
10.22
10.26
10.41
10.59
10.63
10.40
9.81
8.92
7.81
6.57
5.33
4.17
3.18
2.38
1.75
1.16
0.50
-0.33
-1.37
-2.54
-3.75
-4.88
-5.95
-7.02
-8.23
-9.76
-11.73
-14.10
-16.68
-19.09
-20.85
-21.53
-20.84
-18.74
-15.49
-11.50
-7.31
-3.37
-0.03
2.59
4.46
5.72
6.53
7.06
7.40
7.62
7.74
7.76
7.76
7.80
7.94
8.21
8.56
8.91
9.21
9.42
9.58
9.73
9.84
9.87
9.67
9.17
8.33
7.23
6.00
4.76
3.57
2.45
1.31
0.09
-1.28
-2.81
-4.49
-6.22
-7.95
-9.59
-11.10
-12.53
-13.94
-15.52
-17.42
-19.76
-22.47
-25.27
-27.68
-29.15
-29.21
-27.67
-24.62
-20.45
-15.71
-10.95
-6.62
-3.04
-0.34
1.48
2.55
3.04
3.19
3.22
3.35
3.78
4.63
5.92
7.54
9.26
10.79
11.92
12.52
12.66
12.52
12.25
11.96
11.59
11.02
10.09
8.70
6.90
4.89
2.90
1.14
-0.37
-1.77
-3.32
-5.26
-7.67
-10.43
-13.27
-15.94
-18.32
-20.43
-22.51
-24.83
-27.66
-31.17
-35.28
-39.70
-43.80
-46.80
-47.92
-46.64
-42.92
-37.24
-30.48
-23.55
-17.20
-11.74
-7.12
-3.08
0.63
4.05
7.13
9.73
11.78
13.40
14.87
16.47
18.43
20.81
23.44
26.05
28.32
30.07
31.24
31.98
32.44
32.74
32.84
32.51
31.54
29.80
27.38
24.64
21.99
19.77
18.06
16.67
15.24
13.42
11.04
8.16
5.02
1.93
-0.89
-3.42
-5.81
-8.40
-11.52
-15.46
-20.28
-25.85
-31.78
-37.47
-42.18
-45.12
-45.62
-43.35
-38.43
-31.48
-23.52
-15.63
-8.68
-3.08
1.18
4.39
6.87
8.78
10.15
11.02
11.58
12.16
13.08
14.54
16.44
18.48
20.34
21.85
23.06
24.17
25.33
26.56
27.67
28.41
28.51
27.84
26.42
24.39
21.99
19.49
17.15
15.17
13.58
12.31
11.12
9.75
7.94
5.56
2.63
-0.69
-4.20
-7.67
-11.01
-14.27
-17.67
-21.55
-26.23
-31.90
-38.41
-45.22
-51.44
-55.97
-57.88
-56.66
-52.45
-46.04
-38.60
-31.37
-25.22
-20.55
-17.23
-14.83
-12.91
-11.12
-9.29
-7.36
-5.18
-2.48
1.13
6.01
12.24
19.56
27.39
35.02
41.94
47.98
53.28
58.05
62.35
65.94
68.34
69.10
68.02
65.29
61.41
57.00
52.61
48.61
45.13
42.22
39.78
37.66
35.60
33.28
30.46
27.08
23.40
19.97
17.41
16.12
15.96
16.27
16.04
14.40
11.09
6.59
1.96
-1.57
-3.05
-2.07
1.24
6.36
12.56
19.03
24.85
29.15
31.15
30.46
27.24
22.12
15.99
9.65
3.55
-2.19
-7.59
-12.55
-16.71
-19.62
-21.01
-21.07
-20.35
-19.60
-19.33
-19.62
-20.15
-20.52
-20.50
-20.22
-20.05
-20.33
-21.18
-22.40
-23.55
-24.08
-23.54
-21.74
-18.78
-15.11
-11.32
-7.94
-5.18
-2.84
-0.47
2.30
5.41
8.36
10.35
10.75
9.39
6.62
3.15
-0.30
-3.18
-5.05
-5.52
-4.14
-0.52
5.45
13.36
22.23
30.72
37.55
41.86
43.42
42.69
40.49
37.69
34.96
32.59
30.64
29.03
27.73
26.83
26.49
26.80
27.76
29.18
30.78
32.21
33.15
33.30
32.50
30.73
28.14
25.11
22.09
19.49
17.51
16.03
14.66
12.93
10.48
7.25
3.54
-0.17
-3.44
-6.15
-8.52
-11.07
-14.33
-18.62
-23.84
-29.42
-34.47
-38.06
-39.50
-38.58
-35.63
-31.37
-26.64
-22.17
-18.38
-15.48
-13.48
-12.40
-12.27
-13.07
-14.70
-16.87
-19.21
-21.25
-22.57
-22.77
-21.59
-18.89
-14.75
-9.41
-3.28
3.21
9.67
15.80
21.35
26.08
29.73
32.07
33.02
32.68
31.36
29.49
27.50
25.69
24.18
22.92
21.78
20.64
19.42
18.08
16.61
14.90
12.72
9.75
5.74
0.65
-5.15
-10.89
-15.51
-18.05
-17.90
-15.09
-10.28
-4.49
1.22
6.05
9.66
12.08
13.53
14.25
14.40
14.06
13.36
12.52
11.81
11.48
11.64
12.22
13.01
13.77
14.31
14.57
14.61
14.51
14.32
14.02
13.50
12.64
11.39
9.76
7.90
6.00
4.23
2.64
1.17
-0.33
-1.99
-3.85
-5.87
-7.98
-10.11
-12.23
-14.34
-16.41
-18.41
-20.34
-22.29
-24.51
-27.25
-30.64
-34.50
-38.33
-41.35
-42.77
-42.09
-39.17
-34.33
-28.24
-21.68
-15.34
-9.75
-5.14
-1.53
1.26
3.41
5.10
6.44
7.51
8.43
9.34
10.37
11.63
13.06
14.48
15.66
16.42
16.74
16.71
16.51
16.23
15.88
15.38
14.59
13.46
12.03
10.45
8.84
7.31
5.88
4.55
3.29
2.13
1.08
0.13
-0.85
-2.00
-3.47
-5.35
-7.57
-10.00
-12.42
-14.66
-16.67
-18.51
-20.32
-22.30
-24.64
-27.44
-30.71
-34.24
-37.60
-40.16
-41.25
-40.35
-37.23
-32.15
-25.70
-18.72
-12.05
-6.33
-1.87
1.28
3.30
4.49
5.14
5.53
5.86
6.31
6.97
7.89
9.04
10.32
11.58
12.60
13.26
13.51
13.46
13.27
13.07
12.92
12.71
12.24
11.34
9.96
8.19
6.28
4.49
3.01
1.81
0.73
-0.46
-1.93
-3.70
-5.66
-7.64
-9.48
-11.14
-12.63
-14.03
-15.46
-17.02
-18.83
-21.03
-23.65
-26.60
-29.56
-31.98
-33.25
-32.85
-30.58
-26.58
-21.38
-15.66
-10.13
-5.30
-1.45
1.40
3.36
4.60
5.32
5.65
5.77
5.87
6.11
6.63
7.46
8.53
9.72
10.89
11.96
12.88
13.65
14.20
14.43
14.23
13.49
12.20
10.43
8.37
6.24
4.29
2.69
1.51
0.63
-0.16
-1.12
-2.44
-4.16
-6.16
-8.26
-10.29
-12.18
-13.98
-15.80
-17.74
-19.89
-22.35
-25.19
-28.43
-31.91
-35.26
-37.86
-39.00
-38.13
-35.10
-30.25
-24.30
-18.08
-12.31
-7.38
-3.35
-0.09
2.57
4.72
6.37
7.57
8.40
9.04
9.70
10.56
11.66
12.96
14.31
15.55
16.57
17.34
17.89
18.25
18.46
18.48
18.24
17.64
16.62
15.18
13.43
11.55
9.74
8.14
6.75
5.50
4.23
2.80
1.12
-0.83
-3.00
-5.27
-7.57
-9.81
-11.94
-13.94
-15.83
-17.70
-19.69
-22.01
-24.80
-28.02
-31.38
-34.34
-36.24
-36.46
-34.69
-30.99
-25.81
-19.82
-13.71
-8.03
-3.10
0.96
4.22
6.81
8.92
10.72
12.36
13.95
15.53
17.07
18.48
19.64
20.42
20.78
20.74
20.38
19.82
19.17
18.50
17.82
17.11
16.32
15.42
14.43
13.40
12.38
11.35
10.27
9.07
7.75
6.40
5.15
4.12
3.33
2.65
1.89
0.85
-0.58
-2.39
-4.49
-6.76
-9.09
-11.39
-13.64
-15.90
-18.34
-21.15
-24.51
-28.34
-32.23
-35.46
-37.24
-36.93
-34.35
-29.84
-24.12
-18.04
-12.28
-7.25
-3.06
0.38
3.17
5.39
7.08
8.29
9.15
9.88
10.72
11.84
13.27
14.90
16.48
17.83
18.83
19.49
19.88
20.07
20.08
19.89
19.43
18.67
17.60
16.27
14.76
13.17
11.64
10.27
9.14
8.25
7.51
6.79
5.95
4.91
3.62
2.12
0.50
-1.11
-2.56
-3.78
-4.79
-5.78
-7.10
-9.11
-12.03
-15.84
-20.21
-24.51
-28.03
-30.14
-30.41
-28.72
-25.26
-20.49
-15.01
-9.49
-4.51
-0.44
2.57
4.59
5.81
6.47
6.79
6.95
7.12
7.48
8.16
9.24
10.69
12.33
13.93
15.24
16.15
16.64
16.78
16.65
16.31
15.73
14.87
13.73
12.38
10.94
9.53
8.21
6.96
5.78
4.64
3.59
2.62
1.67
0.62
-0.71
-2.42
-4.50
-6.78
-9.02
-11.01
-12.69
-14.16
-15.65
-17.42
-19.63
-22.32
-25.41
-28.67
-31.79
-34.36
-35.91
-36.04
-34.51
-31.37
-26.96
-21.81
-16.51
-11.57
-7.30
-3.82
-1.07
1.09
2.83
4.31
5.65
6.95
8.24
9.59
11.02
12.53
14.07
15.55
16.84
17.86
18.56
18.98
19.15
19.10
18.82
18.32
17.63
16.82
15.95
15.03
14.04
12.92
11.62
10.13
8.50
6.84
5.26
3.87
2.71
1.72
0.77
-0.31
-1.66
-3.32
-5.26
-7.34
-9.44
-11.44
-13.31
-15.07
-16.87
-18.90
-21.42
-24.63
-28.47
-32.57
-36.22
-38.59
-38.98
-37.11
-33.19
-27.88
-22.00
-16.33
-11.35
-7.23
-3.90
-1.14
1.22
3.33
5.21
6.90
8.41
9.81
11.19
12.61
14.07
15.49
16.74
17.73
18.44
18.95
19.37
19.75
20.04
20.10
19.76
18.94
17.68
16.21
14.80
13.63
12.74
12.00
11.21
10.21
9.01
7.74
6.56
5.57
4.74
3.91
2.87
1.48
-0.26
-2.23
-4.33
-6.43
-8.53
-10.62
-12.73
-14.87
-17.08
-19.45
-22.12
-25.15
-28.40
-31.41
-33.50
-33.98
-32.42
-28.84
-23.71
-17.82
-11.98
-6.79
-2.54
0.74
3.20
5.00
6.30
7.20
7.82
8.30
8.79
9.39
10.20
11.20
12.36
13.59
14.81
15.96
16.97
17.74
18.19
18.21
17.74
16.85
15.66
14.39
13.23
12.26
11.41
10.52
9.46
8.17
6.77
5.43
4.26
3.23
2.19
0.92
-0.73
-2.76
-5.03
-7.37
-9.66
-11.75
-13.57
-14.94
-15.78
-16.12
-16.24
-16.60
-17.61
-19.45
-21.81
-24.04
-25.33
-25.08
-23.14
-19.83
-15.75
-11.51
-7.55
-4.03
-0.97
1.68
3.90
5.68
7.00
7.99
8.84
9.79
10.96
12.32
13.74
15.02
16.08
16.93
17.71
18.52
19.34
20.07
20.55
20.63
20.29
19.60
18.66
17.58
16.47
15.44
14.59
13.99
13.60
13.30
12.88
12.18
11.11
9.74
8.22
6.65
5.08
3.47
1.74
-0.17
-2.26
-4.54
-6.95
-9.46
-12.02
-14.56
-17.08
-19.60
-22.28
-25.27
-28.59
-32.05
-35.14
-37.20
-37.59
-35.97
-32.44
-27.47
-21.80
-16.15
-11.04
-6.68
-3.04
0.08
2.82
5.27
7.41
9.22
10.74
12.10
13.47
14.97
16.63
18.34
19.90
21.17
22.08
22.65
22.97
23.11
23.09
22.93
22.59
22.07
21.39
20.56
19.63
18.60
17.49
16.28
14.99
13.66
12.35
11.16
10.13
9.24
8.36
7.33
5.98
4.28
2.27
0.16
-1.87
-3.69
-5.26
-6.67
-8.06
-9.60
-11.46
-13.71
-16.30
-19.04
-21.51
-23.14
-23.36
-21.75
-18.21
-13.09
-7.04
-0.87
4.74
9.40
13.03
15.73
17.63
18.80
19.28
19.14
18.52
17.73
17.07
16.81
17.12
18.03
19.48
21.35
23.48
25.64
27.56
28.99
29.74
29.75
29.09
28.00
26.77
25.67
24.80
24.09
23.30
22.17
20.59
18.63
16.56
14.70
13.23
12.15
11.24
10.15
8.46
5.70
1.39
-4.86
-13.20
-23.32
-34.41
-45.33
-54.99
-62.64
-68.04
-71.33
-72.72
-72.26
-69.80
-65.23
-58.81
-51.31
-43.90
-37.67
-33.31
-30.84
-29.74
-29.29
-28.88
-28.24
-27.31
-26.08
-24.41
-22.04
-18.73
-14.42
-9.40
-4.23
0.40
3.91
6.01
6.74
6.45
5.64
4.80
4.20
3.84
3.52
2.98
2.09
0.93
-0.18
-0.92
-1.13
-0.93
-0.68
-0.74
-1.34
-2.48
-3.93
-5.43
-6.83
-8.13
-9.47
-11.03
-12.93
-15.18
-17.72
-20.51
-23.49
-26.58
-29.53
-31.89
-33.03
-32.33
-29.46
-24.55
-18.25
-11.51
-5.27
-0.19
3.60
6.28
8.25
9.84
11.23
12.43
13.45
14.31
15.15
16.10
17.26
18.63
20.08
21.44
22.57
23.38
23.84
23.99
23.87
23.55
23.05
22.37
21.48
20.33
18.87
17.15
15.27
13.42
11.78
10.44
9.31
8.21
6.87
5.11
2.92
0.45
-2.06
-4.35
-6.27
-7.82
-9.19
-10.67
-12.59
-15.19
-18.48
-22.20
-25.79
-28.57
-29.87
-29.24
-26.59
-22.22
-16.73
-10.86
-5.30
-0.55
3.12
5.69
7.32
8.20
8.56
8.61
8.52
8.46
8.59
9.06
9.94
11.22
12.77
14.38
15.81
16.85
17.41
17.49
17.17
16.50
15.50
14.13
12.36
10.27
8.04
5.92
4.15
2.81
1.80
0.90
-0.21
-1.73
-3.68
-5.90
-8.13
-10.15
-11.96
-13.76
-15.88
-18.59
-21.87
-25.32
-28.22
-29.77
-29.38
-26.86
-22.56
-17.12
-11.31
-5.79
-0.95
3.06
6.22
8.58
10.17
11.04
11.37
11.45
11.65
12.26
13.36
14.83
16.35
17.61
18.44
18.81
18.86
18.73
18.50
18.15
17.57
16.66
15.38
13.75
11.88
9.92
8.03
6.29
4.74
3.29
1.81
0.18
-1.71
-3.83
-6.05
-8.22
-10.24
-12.14
-14.08
-16.31
-19.06
-22.38
-26.09
-29.69
-32.51
-33.85
-33.21
-30.51
-26.06
-20.48
-14.52
-8.77
-3.62
0.80
4.52
7.62
10.12
12.07
13.52
14.63
15.63
16.77
18.17
19.80
21.44
22.79
23.63
23.91
23.81
23.56
23.39
23.35
23.31
23.04
22.34
21.12
19.47
17.59
15.70
13.99
12.49
11.13
9.77
8.25
6.49
4.44
2.14
-0.29
-2.73
-5.10
-7.37
-9.65
-12.13
-15.05
-18.57
-22.62
-26.81
-30.47
-32.83
-33.25
-31.47
-27.72
-22.58
-16.78
-10.96
-5.54
-0.70
3.52
7.13
10.11
12.49
14.36
15.86
17.23
18.64
20.20
21.87
23.55
25.10
26.37
27.29
27.83
28.06
28.07
27.96
27.75
27.40
26.82
25.90
24.61
22.98
21.15
19.29
17.52
15.91
14.42
13.04
11.69
10.34
8.94
7.42
5.71
3.76
1.55
-0.84
-3.29
-5.63
-7.73
-9.60
-11.34
-13.22
-15.53
-18.50
-22.15
-26.22
-30.13
-33.17
-34.64
-34.09
-31.50
-27.26
-22.02
-16.51
-11.26
-6.58
-2.51
1.00
3.98
6.39
8.19
9.38
10.10
10.60
11.16
11.98
13.13
14.52
15.99
17.40
18.65
19.71
20.57
21.17
21.47
21.44
21.03
20.30
19.27
18.01
16.57
15.01
13.40
11.83
10.38
9.08
7.95
6.93
5.93
4.83
3.53
1.96
0.14
-1.84
-3.91
-6.02
-8.17
-10.44
-12.88
-15.51
-18.33
-21.34
-24.59
-28.10
-31.74
-35.16
-37.78
-38.90
-38.03
-35.07
-30.40
-24.74
-18.88
-13.42
-8.64
-4.51
-0.83
2.56
5.75
8.69
11.27
13.39
15.04
16.32
17.39
18.40
19.45
20.52
21.53
22.35
22.94
23.29
23.44
23.38
23.08
22.46
21.46
20.10
18.49
16.78
15.16
13.73
12.52
11.45
10.37
9.12
7.63
5.88
4.02
2.19
0.48
-1.14
-2.84
-4.81
-7.17
-9.88
-12.77
-15.61
-18.28
-20.76
-23.21
-25.84
-28.83
-32.22
-35.78
-39.07
-41.49
-42.45
-41.53
-38.64
-34.04
-28.30
-22.07
-15.98
-10.43
-5.58
-1.41
2.20
5.37
8.18
10.65
12.78
14.58
16.06
17.27
18.27
19.14
19.94
20.70
21.42
22.07
22.59
22.93
23.05
22.92
22.49
21.74
20.70
19.41
18.01
16.71
15.69
15.03
14.66
14.35
13.80
12.76
11.17
9.13
6.92
4.78
2.83
1.03
-0.83
-2.91
-5.28
-7.78
-10.19
-12.31
-14.09
-15.67
-17.32
-19.35
-21.99
-25.29
-29.10
-33.07
-36.64
-39.16
-40.04
-38.91
-35.78
-31.03
-25.27
-19.15
-13.17
-7.60
-2.56
1.87
5.57
8.36
10.19
11.12
11.45
11.57
11.88
12.63
13.86
15.47
17.22
18.89
20.28
21.28
21.84
21.97
21.75
21.26
20.55
19.61
18.38
16.82
14.96
12.94
10.96
9.22
7.77
6.50
5.20
3.64
1.74
-0.42
-2.66
-4.75
-6.59
-8.18
-9.61
-11.01
-12.47
-14.11
-16.05
-18.50
-21.58
-25.31
-29.37
-33.15
-35.84
-36.72
-35.42
-32.01
-27.04
-21.22
-15.28
-9.71
-4.76
-0.53
3.00
5.83
8.01
9.60
10.74
11.58
12.29
12.98
13.75
14.65
15.67
16.81
17.99
19.13
20.13
20.94
21.48
21.71
21.57
20.98
19.94
18.52
16.86
15.10
13.38
11.74
10.13
8.50
6.80
5.05
3.32
1.66
0.05
-1.58
-3.34
-5.34
-7.59
-10.02
-12.47
-14.80
-16.90
-18.81
-20.72
-22.89
-25.56
-28.84
-32.62
-36.56
-40.13
-42.69
-43.64
-42.61
-39.46
-34.46
-28.13
-21.22
-14.48
-8.49
-3.57
0.31
3.32
5.73
7.75
9.49
11.01
12.38
13.67
14.99
16.40
17.88
19.38
20.79
21.99
22.94
23.58
23.89
23.84
23.43
22.71
21.80
20.79
19.75
18.63
17.33
15.76
13.88
11.79
9.66
7.69
6.00
4.58
3.31
1.97
0.36
-1.63
-3.97
-6.51
-9.06
-11.41
-13.52
-15.48
-17.50
-19.85
-22.72
-26.18
-30.06
-34.02
-37.56
-40.11
-41.10
-40.20
-37.35
-32.81
-27.14
-21.04
-15.13
-9.85
-5.36
-1.63
1.49
4.11
6.30
8.06
9.41
10.46
11.39
12.40
13.66
15.20
16.90
18.56
19.98
21.07
21.89
22.58
23.28
23.99
24.57
24.82
24.53
23.64
22.21
20.46
18.64
16.99
15.64
14.60
13.79
13.04
12.17
10.98
9.37
7.29
4.80
2.01
-0.96
-4.00
-7.04
-10.07
-13.12
-16.29
-19.64
-23.22
-26.89
-30.36
-33.13
-34.66
-34.45
-32.28
-28.26
-22.83
-16.69
-10.54
-4.99
-0.38
3.13
5.62
7.23
8.17
8.64
8.87
9.05
9.36
9.94
10.79
11.88
13.09
14.25
15.27
16.05
16.59
16.89
16.96
16.81
16.43
15.79
14.80
13.38
11.49
9.22
6.77
4.46
2.53
1.08
-0.03
-1.12
-2.50
-4.32
-6.52
-8.83
-10.99
-12.86
-14.52
-16.19
-18.17
-20.67
-23.82
-27.52
-31.54
-35.42
-38.51
-40.12
-39.71
-37.08
-32.49
-26.57
-20.12
-13.85
-8.25
-3.52
0.31
3.34
5.71
7.55
9.04
10.34
11.54
12.70
13.79
14.78
15.70
16.60
17.52
18.47
19.38
20.18
20.73
20.93
20.70
19.98
18.76
17.10
15.14
13.12
11.28
9.74
8.52
7.43
6.26
4.80
2.95
0.75
-1.68
-4.22
-6.76
-9.22
-11.58
-13.91
-16.34
-19.09
-22.36
-26.22
-30.51
-34.75
-38.27
-40.39
-40.58
-38.65
-34.77
-29.43
-23.28
-17.01
-11.19
-6.19
-2.13
1.07
3.58
5.65
7.45
9.10
10.61
11.94
13.07
13.98
14.71
15.37
16.06
16.90
17.91
19.01
20.01
20.69
20.85
20.41
19.45
18.15
16.72
15.34
14.08
12.89
11.69
10.37
8.87
7.17
5.28
3.21
0.97
-1.38
-3.76
-6.09
-8.30
-10.38
-12.47
-14.80
-17.62
-21.06
-25.05
-29.23
-33.03
-35.74
-36.78
-35.76
-32.68
-27.90
-22.03
-15.79
-9.78
-4.43
0.05
3.65
6.41
8.40
9.65
10.26
10.42
10.42
10.60
11.22
12.36
13.87
15.46
16.85
17.86
18.48
18.81
18.94
18.87
18.52
17.76
16.54
14.97
13.24
11.57
10.14
8.93
7.83
6.63
5.14
3.31
1.22
-0.96
-3.05
-4.95
-6.70
-8.41
-10.28
-12.56
-15.45
-19.06
-23.31
-27.84
-32.06
-35.20
-36.56
-35.71
-32.67
-27.88
-22.06
-15.96
-10.19
-5.07
-0.71
2.86
5.67
7.66
8.81
9.18
8.97
8.53
8.30
8.62
9.59
11.07
12.73
14.20
15.20
15.61
15.48
14.93
14.01
12.75
11.13
9.14
6.82
4.29
1.67
-0.96
-3.59
-6.23
-8.88
-11.43
-13.59
-15.04
-15.48
-14.84
-13.33
-11.49
-9.96
-9.39
-10.23
-12.70
-16.72
-21.91
-27.52
-32.47
-35.46
-35.35
-31.54
-24.23
-14.45
-3.70
6.48
15.12
21.96
27.41
32.20
37.07
42.53
48.75
55.67
63.05
70.48
77.32
82.83
86.22
86.91
84.70
79.81
72.72
64.06
54.37
44.03
33.36
22.71
12.49
3.18
-4.76
-11.05
-15.63
-18.68
-20.61
-21.84
-22.78
-23.66
-24.60
-25.67
-26.93
-28.53
-30.60
-33.17
-36.10
-39.06
-41.67
-43.57
-44.47
-44.19
-42.69
-40.15
-36.97
-33.72
-30.95
-28.97
-27.64
-26.38
-24.46
-21.28
-16.65
-10.84
-4.41
2.05
8.13
13.62
18.46
22.59
25.92
28.36
29.86
30.53
30.69
30.75
31.12
32.07
33.61
35.51
37.43
39.02
40.07
40.60
40.77
40.75
40.68
40.50
40.08
39.16
37.49
34.77
30.74
25.12
17.78
8.76
-1.68
-13.01
-24.61
-35.84
-46.15
-55.12
-62.39
-67.56
-70.29
-70.41
-68.08
-63.95
-59.04
-54.52
-51.33
-49.93
-50.17
-51.38
-52.60
-52.88
-51.52
-48.19
-42.99
-36.33
-28.83
-21.14
-13.83
-7.32
-1.89
2.36
5.43
7.50
8.90
10.01
11.20
12.68
14.48
16.47
18.42
20.17
21.64
22.88
23.96
24.94
25.76
26.30
26.36
25.82
24.66
22.98
21.02
19.00
17.13
15.51
14.15
13.02
12.01
10.98
9.74
8.13
6.03
3.51
0.76
-1.99
-4.60
-7.06
-9.58
-12.40
-15.80
-19.88
-24.58
-29.60
-34.44
-38.41
-40.77
-40.95
-38.70
-34.26
-28.27
-21.56
-14.86
-8.61
-2.93
2.31
7.23
11.83
15.94
19.27
21.66
23.09
23.77
24.05
24.26
24.58
25.03
25.42
25.55
25.27
24.57
23.55
22.33
20.94
19.35
17.44
15.18
12.64
10.09
7.88
6.33
5.61
5.68
6.32
7.19
7.95
8.31
8.14
7.44
6.34
5.02
3.67
2.39
1.20
0.01
-1.43
-3.42
-6.25
-10.02
-14.58
-19.40
-23.70
-26.60
-27.38
-25.68
-21.62
-15.70
-8.69
-1.36
5.60
11.73
16.80
20.79
23.86
26.19
27.99
29.37
30.38
31.05
31.43
31.62
31.74
31.85
31.93
31.88
31.55
30.81
29.65
28.18
26.52
24.78
22.96
21.02
18.91
16.63
14.21
11.74
9.31
6.97
4.76
2.72
0.84
-0.94
-2.71
-4.58
-6.63
-8.87
-11.24
-13.66
-16.10
-18.61
-21.31
-24.27
-27.56
-31.12
-34.85
-38.55
-41.85
-44.29
-45.35
-44.60
-41.87
-37.36
-31.59
-25.25
-19.00
-13.27
-8.26
-3.99
-0.39
2.58
4.94
6.72
8.01
9.02
9.99
11.12
12.52
14.12
15.70
17.04
17.99
18.51
18.70
18.69
18.56
18.27
17.72
16.82
15.53
13.94
12.24
10.60
9.19
8.03
7.08
6.21
5.30
4.26
3.07
1.75
0.34
-1.18
-2.83
-4.70
-6.85
-9.30
-12.02
-14.97
-18.13
-21.49
-24.99
-28.43
-31.45
-33.51
-34.08
-32.78
-29.53
-24.61
-18.58
-12.15
-5.99
-0.61
3.73
6.99
9.26
10.73
11.61
12.11
12.45
12.85
13.51
14.52
15.82
17.23
18.48
19.36
19.79
19.80
19.55
19.13
18.61
17.91
16.91
15.50
13.65
11.43
9.02
6.64
4.48
2.59
0.93
-0.67
-2.39
-4.36
-6.59
-8.96
-11.31
-13.54
-15.62
-17.63
-19.72
-22.07
-24.80
-27.94
-31.33
-34.62
-37.24
-38.52
-37.90
-35.14
-30.50
-24.67
-18.54
-12.96
-8.40
-4.97
-2.43
-0.47
1.14
2.53
3.74
4.81
5.88
7.12
8.61
10.34
12.10
13.67
14.85
15.59
16.00
16.25
16.49
16.75
16.95
16.94
16.58
15.78
14.55
12.94
11.09
9.15
7.26
5.54
3.98
2.51
0.96
-0.77
-2.74
-4.86
-7.05
-9.18
-11.27
-13.41
-15.78
-18.53
-21.73
-25.25
-28.76
-31.73
-33.53
-33.57
-31.52
-27.49
-21.96
-15.70
-9.53
-4.06
0.39
3.81
6.29
8.00
9.04
9.55
9.72
9.86
10.30
11.32
12.92
14.91
16.90
18.53
19.61
20.20
20.52
20.77
21.04
21.19
20.93
19.98
18.21
15.77
12.99
10.29
8.02
6.33
5.12
4.15
3.12
1.76
-0.01
-2.13
-4.41
-6.62
-8.59
-10.31
-11.95
-13.78
-16.06
-18.94
-22.32
-25.83
-28.90
-30.87
-31.20
-29.58
-26.09
-21.15
-15.40
-9.57
-4.26
0.16
3.57
6.03
7.68
8.69
9.25
9.53
9.73
10.07
10.72
11.79
13.23
14.85
16.37
17.51
18.07
18.05
17.56
16.78
15.84
14.77
13.48
11.88
9.94
7.77
5.53
3.37
1.35
-0.61
-2.65
-4.83
-7.11
-9.36
-11.52
-13.63
-15.93
-18.70
-22.08
-25.89
-29.57
-32.39
-33.62
-32.85
-30.13
-25.87
-20.72
-15.28
-10.05
-5.27
-1.09
2.45
5.37
7.74
9.68
11.36
12.94
14.51
16.08
17.58
18.90
19.95
20.70
21.15
21.34
21.30
21.06
20.62
19.93
18.96
17.67
16.06
14.19
12.17
10.09
8.01
5.91
3.78
1.59
-0.64
-2.85
-5.04
-7.20
-9.42
-11.79
-14.40
-17.31
-20.54
-24.05
-27.76
-31.46
-34.81
-37.34
-38.57
-38.10
-35.81
-31.83
-26.59
-20.65
-14.58
-8.84
-3.71
0.70
4.39
7.41
9.85
11.79
13.34
14.63
15.81
17.02
18.35
19.81
21.27
22.59
23.60
24.26
24.60
24.66
24.47
23.96
23.00
21.53
19.56
17.33
15.09
13.12
11.50
10.13
8.81
7.32
5.56
3.51
1.22
-1.21
-3.72
-6.27
-8.85
-11.52
-14.41
-17.70
-21.55
-25.97
-30.71
-35.24
-38.86
-40.88
-40.81
-38.52
-34.29
-28.70
-22.44
-16.16
-10.29
-5.01
-0.32
3.82
7.43
10.47
12.88
14.73
16.21
17.56
18.99
20.53
22.07
23.43
24.47
25.20
25.73
26.22
26.71
27.10
27.20
26.81
25.83
24.31
22.46
20.52
18.67
17.01
15.53
14.11
12.67
11.13
9.51
7.83
6.16
4.50
2.80
0.95
-1.13
-3.46
-6.00
-8.67
-11.45
-14.42
-17.69
-21.37
-25.37
-29.33
-32.65
-34.67
-34.84
-32.92
-29.08
-23.79
-17.71
-11.50
-5.71
-0.66
3.51
6.84
9.42
11.40
12.89
13.99
14.83
15.59
16.45
17.54
18.91
20.48
22.10
23.56
24.69
25.39
25.65
25.51
25.02
24.24
23.19
21.91
20.41
18.73
16.91
15.03
13.21
11.52
10.03
8.72
7.48
6.16
4.60
2.71
0.48
-2.01
-4.61
-7.17
-9.62
-11.97
-14.32
-16.80
-19.53
-22.61
-26.08
-29.92
-33.97
-37.88
-41.09
-42.91
-42.73
-40.22
-35.55
-29.31
-22.42
-15.71
-9.75
-4.71
-0.46
3.26
6.61
9.62
12.27
14.53
16.45
18.14
19.70
21.16
22.49
23.62
24.55
25.37
26.15
26.92
27.58
27.95
27.84
27.17
25.97
24.40
22.67
20.92
19.25
17.63
16.00
14.26
12.35
10.28
8.13
6.03
4.07
2.27
0.54
-1.28
-3.33
-5.65
-8.20
-10.88
-13.56
-16.21
-18.83
-21.44
-24.07
-26.78
-29.63
-32.64
-35.75
-38.75
-41.15
-42.37
-41.82
-39.21
-34.61
-28.52
-21.68
-14.85
-8.59
-3.19
1.28
4.91
7.80
10.06
11.77
13.06
14.10
15.08
16.18
17.45
18.86
20.30
21.62
22.74
23.61
24.21
24.54
24.63
24.46
24.04
23.41
22.62
21.70
20.69
19.56
18.26
16.73
14.95
12.92
10.72
8.40
6.06
3.73
1.39
-1.04
-3.63
-6.41
-9.28
-12.04
-14.53
-16.66
-18.55
-20.48
-22.77
-25.68
-29.30
-33.43
-37.69
-41.49
-44.24
-45.41
-44.68
-41.97
-37.52
-31.79
-25.36
-18.81
-12.58
-6.93
-1.91
2.59
6.70
10.56
14.19
17.53
20.46
22.92
24.92
26.53
27.79
28.72
29.22
29.16
28.47
27.23
25.65
23.99
22.50
21.24
20.14
18.98
17.58
15.83
13.76
11.55
9.37
7.35
5.48
3.68
1.81
-0.21
-2.37
-4.62
-6.84
-8.95
-10.87
-12.59
-14.14
-15.63
-17.30
-19.40
-22.19
-25.65
-29.45
-32.94
-35.33
-35.91
-34.38
-30.87
-25.90
-20.17
-14.32
-8.83
-3.97
0.10
3.32
5.67
7.18
7.98
8.32
8.48
8.74
9.34
10.34
11.67
13.13
14.42
15.32
15.77
15.82
15.68
15.47
15.24
14.90
14.25
13.15
11.57
9.62
7.50
5.43
3.55
1.87
0.33
-1.18
-2.76
-4.40
-6.09
-7.78
-9.43
-11.11
-12.90
-14.89
-17.18
-19.83
-22.86
-26.23
-29.77
-33.15
-35.90
-37.50
-37.51
-35.75
-32.33
-27.64
-22.18
-16.49
-11.01
-6.08
-1.93
1.36
3.80
5.56
6.84
7.87
8.80
9.75
10.73
11.77
12.89
14.05
15.21
16.23
17.03
17.54
17.77
17.77
17.57
17.15
16.46
15.46
14.15
12.58
10.91
9.24
7.63
6.02
4.32
2.39
0.24
-2.06
-4.30
-6.31
-7.99
-9.38
-10.67
-12.08
-13.84
-16.05
-18.77
-21.97
-25.52
-29.16
-32.43
-34.76
-35.53
-34.35
-31.17
-26.32
-20.41
-14.16
-8.18
-2.90
1.50
4.93
7.42
9.04
9.93
10.30
10.43
10.56
10.87
11.42
12.14
12.95
13.77
14.56
15.35
16.17
16.98
17.70
18.15
18.13
17.49
16.22
14.41
12.27
10.06
8.01
6.22
4.63
3.10
1.43
-0.51
-2.67
-4.92
-7.03
-8.85
-10.38
-11.76
-13.24
-15.05
-17.31
-19.96
-22.73
-25.25
-27.05
-27.72
-26.97
-24.73
-21.13
-16.50
-11.30
-6.04
-1.21
2.76
5.62
7.24
7.71
7.27
6.30
5.18
4.25
3.73
3.68
4.09
4.87
5.94
7.19
8.50
9.70
10.57
10.91
10.58
9.60
8.11
6.35
4.53
2.78
1.05
-0.75
-2.71
-4.80
-6.85
-8.63
-10.03
-11.11
-12.12
-13.36
-15.09
-17.34
-20.02
-22.89
-25.76
-28.40
-30.54
-31.80
-31.76
-30.02
-26.47
-21.36
-15.31
-9.11
-3.50
1.05
4.40
6.66
8.07
8.88
9.26
9.34
9.26
9.13
9.10
9.34
9.93
10.88
12.08
13.29
14.26
14.75
14.68
14.11
13.22
12.15
10.98
9.64
7.97
5.89
3.41
0.67
-2.08
-4.64
-6.92
-8.95
-10.80
-12.61
-14.51
-16.60
-19.04
-21.94
-25.35
-29.08
-32.74
-35.73
-37.43
-37.35
-35.27
-31.32
-25.88
-19.53
-12.88
-6.53
-1.00
3.36
6.34
7.97
8.51
8.38
8.04
7.87
8.12
8.87
10.10
11.68
13.41
15.10
16.54
17.55
18.03
17.96
17.38
16.38
15.08
13.56
11.91
10.15
8.27
6.23
4.00
1.58
-0.98
-3.58
-6.13
-8.60
-11.04
-13.57
-16.34
-19.54
-23.23
-27.37
-31.70
-35.71
-38.76
-40.18
-39.49
-36.59
-31.77
-25.69
-19.12
-12.74
-6.95
-1.94
2.31
5.83
8.59
10.56
11.75
12.28
12.42
12.51
12.84
13.64
14.98
16.78
18.83
20.83
22.48
23.49
23.69
23.06
21.73
19.94
17.95
15.95
14.00
12.07
10.05
7.86
5.48
3.02
0.57
-1.77
-4.00
-6.21
-8.55
-11.20
-14.33
-18.03
-22.26
-26.79
-31.19
-34.83
-36.97
-37.03
-34.69
-30.06
-23.69
-16.38
-8.99
-2.21
3.54
8.10
11.45
13.64
14.77
15.00
14.67
14.24
14.24
15.03
16.74
19.16
21.86
24.37
26.29
27.44
27.77
27.31
26.14
24.37
22.13
19.61
16.98
14.38
11.87
9.44
7.05
4.68
2.31
-0.03
-2.35
-4.65
-7.01
-9.56
-12.42
-15.74
-19.62
-24.00
-28.61
-32.90
-36.14
-37.57
-36.62
-33.13
-27.42
-20.17
-12.28
-4.58
2.31
8.04
12.48
15.66
17.70
18.82
19.35
19.67
20.18
21.11
22.51
24.20
25.91
27.37
28.48
29.24
29.72
29.94
29.75
28.94
27.34
24.92
21.92
18.71
15.70
13.09
10.86
8.72
6.36
3.53
0.25
-3.25
-6.67
-9.76
-12.53
-15.18
-18.09
-21.60
-25.94
-31.09
-36.78
-42.42
-47.25
-50.41
-51.19
-49.22
-44.62
-37.94
-30.04
-21.82
-13.95
-6.79
-0.38
5.40
10.67
15.48
19.76
23.44
26.53
29.17
31.62
34.16
36.94
39.86
42.67
44.98
46.53
47.18
46.97
46.04
44.49
42.38
39.76
36.72
33.43
30.13
27.07
24.44
22.34
20.73
19.41
18.08
16.40
14.05
10.96
7.28
3.40
-0.19
-3.13
-5.23
-6.61
-7.58
-8.55
-9.99
-12.29
-15.65
-19.94
-24.66
-28.96
-31.87
-32.59
-30.80
-26.70
-20.94
-14.29
-7.37
-0.52
6.17
12.66
18.80
24.29
28.78
31.97
33.80
34.53
34.75
35.29
36.99
40.31
45.10
50.52
55.37
58.64
59.99
59.87
59.20
58.77
58.78
58.71
57.67
54.91
50.04
43.18
34.60
24.61
13.47
1.56
-10.54
-22.07
-32.35
-40.97
-47.89
-53.23
-57.01
-58.95
-58.51
-55.13
-48.62
-39.36
-28.23
-16.45
-5.27
4.25
11.30
15.40
16.43
14.79
11.46
7.83
5.40
5.19
7.41
11.36
15.74
19.25
21.10
21.19
19.96
18.03
15.95
14.01
12.40
11.26
10.77
11.02
11.94
13.22
14.42
15.10
15.03
14.21
12.83
11.18
9.54
8.06
6.81
5.68
4.52
3.07
1.12
-1.49
-4.79
-8.74
-13.19
-17.93
-22.65
-27.04
-30.82
-33.83
-36.12
-37.92
-39.51
-41.04
-42.37
-43.08
-42.62
-40.54
-36.78
-31.65
-25.76
-19.76
-14.13
-9.12
-4.77
-1.13
1.75
3.75
4.83
5.13
4.96
4.75
4.88
5.51
6.55
7.74
8.74
9.32
9.42
9.10
8.44
7.53
6.37
4.89
3.06
0.85
-1.70
-4.45
-7.27
-9.98
-12.44
-14.60
-16.53
-18.41
-20.45
-22.78
-25.34
-27.84
-29.88
-30.99
-30.88
-29.43
-26.72
-23.01
-18.60
-13.88
-9.24
-4.95
-1.21
1.98
4.73
7.19
9.38
11.25
12.68
13.63
14.20
14.64
15.16
15.87
16.69
17.40
17.76
17.65
17.07
16.12
14.86
13.32
11.53
9.50
7.34
5.18
3.20
1.45
-0.13
-1.72
-3.53
-5.75
-8.43
-11.49
-14.65
-17.52
-19.62
-20.45
-19.71
-17.35
-13.66
-9.21
-4.65
-0.56
2.72
5.08
6.58
7.30
7.31
6.68
5.55
4.15
2.81
1.82
1.33
1.26
1.41
1.49
1.31
0.81
0.02
-1.04
-2.35
-3.99
-6.00
-8.36
-10.95
-13.57
-16.01
-18.15
-20.00
-21.61
-23.05
-24.31
-25.31
-25.89
-25.87
-25.06
-23.26
-20.26
-15.91
-10.16
-3.20
4.47
12.12
18.94
24.21
27.55
28.99
28.94
27.92
26.44
24.81
23.13
21.42
19.76
18.30
17.28
16.85
16.96
17.30
17.49
17.16
16.19
14.70
13.00
11.44
10.19
9.26
8.43
7.43
6.03
4.13
1.77
-0.86
-3.57
-6.19
-8.66
-11.04
-13.46
-16.05
-18.90
-21.98
-25.20
-28.36
-31.15
-33.19
-34.02
-33.28
-30.84
-26.88
-21.88
-16.55
-11.52
-7.22
-3.80
-1.21
0.73
2.14
3.11
3.74
4.12
4.39
4.66
4.99
5.38
5.83
6.33
6.91
7.61
8.48
9.50
10.57
11.56
12.25
12.46
12.05
10.99
9.31
7.15
4.62
1.88
-0.94
-3.71
-6.28
-8.59
-10.60
-12.39
-14.04
-15.66
-17.28
-18.98
-20.84
-22.98
-25.40
-27.89
-30.02
-31.20
-30.88
-28.82
-25.14
-20.33
-15.05
-9.88
-5.25
-1.32
1.92
4.50
6.43
7.68
8.24
8.17
7.67
7.02
6.50
6.37
6.75
7.57
8.64
9.70
10.46
10.73
10.42
9.56
8.28
6.76
5.15
3.52
1.84
-0.01
-2.12
-4.50
-6.99
-9.30
-11.06
-12.00
-12.03
-11.34
-10.27
-9.32
-8.88
-9.22
-10.39
-12.19
-14.20
-15.92
-16.79
-16.41
-14.54
-11.31
-7.05
-2.32
2.31
6.31
9.38
11.41
12.49
12.84
12.73
12.41
12.08
11.84
11.74
11.76
11.88
12.09
12.40
12.81
13.33
13.94
14.67
15.51
16.46
17.43
18.26
18.70
18.55
17.68
16.21
14.45
12.81
11.65
11.09
11.01
11.08
10.90
10.14
8.66
6.49
3.77
0.69
-2.63
-6.07
-9.51
-12.71
-15.30
-16.85
-17.00
-15.59
-12.85
-9.29
-5.62
-2.50
-0.35
0.72
0.82
0.21
-0.79
-1.72
-1.89
-0.47
3.17
9.06
16.28
23.09
27.47
27.99
24.39
17.70
9.69
2.10
-4.07
-8.68
-12.20
-15.10
-17.52
-19.23
-19.91
-19.43
-18.03
-16.21
-14.45
-13.01
-11.78
-10.49
-8.85
-6.91
-5.06
-4.01
-4.42
-6.60
-10.23
-14.41
-17.90
-19.58
-18.83
-15.79
-11.18
-6.00
-1.14
2.96
6.28
9.09
11.72
14.37
17.08
19.78
22.43
25.05
27.63
30.08
32.15
33.52
33.89
33.11
31.22
28.43
24.99
21.22
17.42
13.94
11.08
9.01
7.70
6.90
6.20
5.20
3.56
1.02
-2.57
-7.32
-13.25
-20.26
-28.00
-36.00
-43.74
-50.81
-57.05
-62.51
-67.30
-71.37
-74.44
-76.03
-75.70
-73.28
-68.97
-63.36
-57.13
-50.84
-44.78
-39.03
-33.57
-28.49
-23.99
-20.29
-17.43
-15.20
-13.20
-10.98
-8.28
-5.10
-1.72
1.42
3.97
5.73
6.73
7.18
7.38
7.54
7.71
7.78
7.55
6.82
5.55
3.84
1.91
-0.02
-1.79
-3.36
-4.76
-6.08
-7.44
-9.02
-10.97
-13.39
-16.18
-18.99
-21.25
-22.31
-21.70
-19.26
-15.17
-9.86
-3.89
2.24
8.09
13.29
17.54
20.62
22.43
23.02
22.67
21.75
20.69
19.83
19.37
19.34
19.65
20.11
20.52
20.69
20.50
19.94
19.08
18.03
16.91
15.78
14.57
13.16
11.40
9.19
6.62
3.84
1.09
-1.45
-3.75
-5.89
-8.06
-10.44
-13.18
-16.33
-19.84
-23.56
-27.19
-30.29
-32.34
-32.80
-31.32
-27.86
-22.77
-16.74
-10.55
-4.85
-0.06
3.75
6.68
8.93
10.64
11.93
12.91
13.73
14.61
15.75
17.22
18.93
20.68
22.21
23.36
24.07
24.38
24.36
24.01
23.29
22.15
20.59
18.65
16.42
14.03
11.56
9.06
6.58
4.14
1.76
-0.63
-3.09
-5.72
-8.55
-11.58
-14.72
-17.95
-21.33
-24.92
-28.79
-32.77
-36.42
-39.08
-40.05
-38.82
-35.27
-29.75
-22.92
-15.60
-8.51
-2.10
3.48
8.26
12.35
15.83
18.68
20.89
22.48
23.63
24.63
25.80
27.35
29.28
31.35
33.24
34.65
35.39
35.45
34.97
34.15
33.15
32.06
30.85
29.46
27.83
25.96
23.95
21.97
20.15
18.56
17.13
15.65
13.89
11.66
8.90
5.70
2.27
-1.14
-4.37
-7.38
-10.30
-13.33
-16.70
-20.58
-24.97
-29.70
-34.40
-38.48
-41.31
-42.23
-40.85
-37.16
-31.60
-24.95
-18.08
-11.71
-6.15
-1.33
3.03
7.23
11.37
15.33
18.92
21.95
24.42
26.45
28.23
29.87
31.38
32.67
33.65
34.30
34.62
34.66
34.48
34.14
33.65
33.04
32.28
31.30
30.00
28.29
26.14
23.68
21.14
18.75
16.68
14.92
13.35
11.75
9.93
7.77
5.32
2.71
0.16
-2.21
-4.38
-6.49
-8.76
-11.38
-14.48
-18.05
-22.01
-26.15
-30.13
-33.47
-35.55
-35.83
-33.96
-30.04
-24.54
-18.27
-12.01
-6.36
-1.56
2.44
5.83
8.76
11.30
13.42
15.09
16.35
17.35
18.26
19.25
20.35
21.54
22.68
23.65
24.38
24.86
25.17
25.35
25.41
25.31
24.93
24.17
23.00
21.51
19.83
18.15
16.61
15.22
13.91
12.53
10.94
9.08
7.01
4.83
2.66
0.53
-1.56
-3.66
-5.78
-7.93
-10.08
-12.26
-14.63
-17.36
-20.63
-24.42
-28.40
-31.95
-34.33
-34.88
-33.26
-29.59
-24.37
-18.35
-12.27
-6.70
-1.98
1.80
4.73
6.92
8.53
9.66
10.45
11.05
11.64
12.37
13.31
14.45
15.60
16.57
17.20
17.44
17.40
17.25
17.16
17.17
17.17
16.97
16.39
15.34
13.89
12.22
10.51
8.90
7.41
6.00
4.59
3.12
1.58
0.02
-1.53
-3.02
-4.46
-5.86
-7.25
-8.72
-10.35
-12.24
-14.47
-17.08
-19.97
-22.90
-25.54
-27.45
-28.23
-27.51
-25.13
-21.09
-15.67
-9.31
-2.60
3.88
9.69
14.56
18.38
21.14
22.82
23.39
22.92
21.59
19.83
18.15
17.00
16.59
16.78
17.20
17.41
17.14
16.33
15.11
13.63
11.96
10.05
7.85
5.39
2.78
0.22
-2.13
-4.19
-6.00
-7.61
-9.09
-10.46
-11.75
-12.99
-14.20
-15.41
-16.60
-17.72
-18.76
-19.78
-20.88
-22.20
-23.81
-25.73
-27.91
-30.30
-32.82
-35.30
-37.45
-38.85
-39.02
-37.61
-34.56
-30.10
-24.76
-19.12
-13.71
-8.84
-4.62
-1.03
1.98
4.44
6.34
7.67
8.57
9.23
9.87
10.67
11.67
12.80
13.90
14.90
15.74
16.45
17.08
17.61
18.01
18.20
18.12
17.70
16.85
15.54
13.77
11.66
9.46
7.47
5.95
4.97
4.37
3.82
2.96
1.62
-0.22
-2.38
-4.61
-6.76
-8.76
-10.70
-12.70
-14.87
-17.35
-20.21
-23.44
-26.85
-30.08
-32.55
-33.68
-33.04
-30.53
-26.48
-21.54
-16.43
-11.74
-7.75
-4.46
-1.69
0.71
2.80
4.53
5.85
6.83
7.66
8.61
9.85
11.39
13.05
14.54
15.61
16.20
16.39
16.36
16.27
16.16
15.96
15.52
14.74
13.60
12.19
10.62
9.01
7.40
5.75
4.00
2.09
-0.01
-2.24
-4.48
-6.58
-8.39
-9.85
-11.04
-12.15
-13.45
-15.16
-17.40
-20.19
-23.43
-26.90
-30.33
-33.29
-35.28
-35.82
-34.58
-31.53
-27.04
-21.73
-16.30
-11.30
-7.01
-3.44
-0.48
2.00
4.07
5.74
7.07
8.18
9.21
10.27
11.41
12.58
13.68
14.64
15.41
15.98
16.36
16.57
16.58
16.39
15.96
15.25
14.21
12.85
11.20
9.40
7.64
6.07
4.76
3.64
2.51
1.20
-0.43
-2.39
-4.60
-6.95
-9.37
-11.78
-14.18
-16.55
-18.93
-21.43
-24.20
-27.31
-30.65
-33.82
-36.20
-37.15
-36.29
-33.64
-29.65
-24.95
-20.14
-15.54
-11.25
-7.24
-3.54
-0.27
2.44
4.52
6.07
7.32
8.51
9.80
11.19
12.59
13.90
15.09
16.15
17.07
17.82
18.33
18.52
18.34
17.79
16.93
15.81
14.50
13.07
11.57
10.06
8.58
7.12
5.64
4.09
2.48
0.83
-0.77
-2.27
-3.67
-5.07
-6.64
-8.62
-11.16
-14.34
-18.05
-21.99
-25.66
-28.50
-29.97
-29.78
-27.92
-24.68
-20.50
-15.88
-11.17
-6.59
-2.23
1.82
5.40
8.33
10.49
11.89
12.69
13.20
13.72
14.45
15.45
16.61
17.76
18.76
19.56
20.16
20.66
21.06
21.30
21.19
20.54
19.27
17.47
15.42
13.50
11.98
10.91
10.11
9.29
8.12
6.47
4.38
2.03
-0.38
-2.70
-4.88
-6.91
-8.86
-10.79
-12.83
-15.14
-17.84
-20.96
-24.27
-27.32
-29.47
-30.13
-28.96
-26.05
-21.85
-17.05
-12.27
-7.89
-4.04
-0.62
2.49
5.35
7.88
9.99
11.61
12.82
13.80
14.74
15.79
16.96
18.17
19.25
20.09
20.65
20.97
21.13
21.15
21.01
20.59
19.79
18.61
17.14
15.55
14.02
12.65
11.44
10.33
9.20
7.90
6.34
4.50
2.42
0.26
-1.80
-3.61
-5.13
-6.50
-7.96
-9.80
-12.20
-15.20
-18.62
-22.12
-25.22
-27.42
-28.27
-27.51
-25.15
-21.45
-16.86
-11.93
-7.11
-2.74
1.03
4.14
6.60
8.46
9.81
10.77
11.51
12.18
12.90
13.75
14.72
15.76
16.77
17.65
18.35
18.83
19.11
19.21
19.13
18.85
18.34
17.56
16.48
15.12
13.56
11.89
10.24
8.70
7.29
5.97
4.66
3.30
1.88
0.39
-1.14
-2.74
-4.47
-6.41
-8.62
-11.09
-13.79
-16.64
-19.54
-22.29
-24.56
-25.95
-26.09
-24.73
-21.91
-17.96
-13.38
-8.76
-4.54
-0.99
1.82
3.99
5.64
6.88
7.78
8.39
8.81
9.16
9.62
10.34
11.33
12.52
13.72
14.72
15.41
15.77
15.85
15.70
15.33
14.69
13.76
12.58
11.26
9.92
8.63
7.36
6.03
4.54
2.88
1.12
-0.65
-2.33
-3.93
-5.45
-6.90
-8.27
-9.59
-10.92
-12.41
-14.22
-16.43
-18.89
-21.27
-23.06
-23.83
-23.31
-21.54
-18.78
-15.39
-11.74
-8.05
-4.45
-1.02
2.12
4.81
6.86
8.19
8.83
8.94
8.76
8.51
8.37
8.42
8.69
9.13
9.68
10.21
10.63
10.82
10.77
10.51
10.09
9.52
8.76
7.72
6.35
4.66
2.77
0.88
-0.83
-2.28
-3.46
-4.47
-5.45
-6.50
-7.71
-9.10
-10.62
-12.17
-13.58
-14.61
-15.02
-14.66
-13.48
-11.60
-9.21
-6.60
-4.00
-1.64
0.32
1.77
2.70
3.16
3.33
3.40
3.52
3.78
4.19
4.68
5.21
5.76
6.36
7.03
7.69
8.18
8.26
7.71
6.47
4.61
2.40
0.14
-1.99
-3.94
-5.81
-7.73
-9.78
-11.88
-13.89
-15.67
-17.09
-18.06
-18.47
-18.15
-16.93
-14.75
-11.75
-8.26
-4.73
-1.56
1.03
3.02
4.51
5.60
6.35
6.73
6.75
6.49
6.09
5.72
5.51
5.44
5.44
5.41
5.30
5.15
5.01
4.93
4.84
4.58
3.94
2.75
0.94
-1.36
-3.96
-6.59
-9.04
-11.20
-13.07
-14.72
-16.31
-18.02
-20.05
-22.54
-25.52
-28.79
-31.94
-34.40
-35.58
-35.11
-32.96
-29.42
-25.02
-20.31
-15.71
-11.41
-7.39
-3.57
0.11
3.58
6.71
9.34
11.44
13.08
14.45
15.74
17.01
18.24
19.29
20.05
20.49
20.63
20.58
20.40
20.06
19.47
18.47
16.98
15.01
12.69
10.24
7.86
5.66
3.64
1.69
-0.30
-2.40
-4.62
-6.88
-9.11
-11.34
-13.65
-16.18
-19.04
-22.19
-25.40
-28.25
-30.20
-30.76
-29.59
-26.69
-22.41
-17.29
-11.96
-6.86
-2.24
1.88
5.56
8.83
11.70
14.14
16.16
17.86
19.38
20.83
22.23
23.48
24.41
24.89
24.96
24.76
24.53
24.46
24.59
24.79
24.80
24.37
23.35
21.84
20.06
18.31
16.77
15.49
14.37
13.26
12.06
10.73
9.27
7.70
6.00
4.16
2.16
0.08
-1.99
-4.00
-6.04
-8.32
-11.09
-14.45
-18.22
-21.88
-24.71
-26.06
-25.58
-23.31
-19.66
-15.23
-10.54
-5.99
-1.76
2.11
5.61
8.75
11.46
13.66
15.30
16.38
16.98
17.31
17.56
17.88
18.36
18.95
19.59
20.18
20.66
20.97
21.07
20.92
20.48
19.76
18.83
17.78
16.67
15.46
14.01
12.14
9.76
6.97
4.05
1.32
-0.93
-2.62
-3.87
-4.95
-6.14
-7.64
-9.53
-11.75
-14.12
-16.43
-18.45
-20.00
-20.98
-21.45
-21.53
-21.39
-21.14
-20.76
-20.13
-19.01
-17.20
-14.59
-11.20
-7.25
-3.03
1.11
4.86
8.04
10.56
12.45
13.75
14.53
14.88
14.92
14.80
14.67
14.63
14.71
14.83
14.88
14.81
14.73
14.86
15.44
16.61
18.24
19.98
21.38
22.07
21.95
21.14
19.93
18.63
17.36
16.07
14.66
13.02
11.19
9.26
7.39
5.65
4.14
2.92
2.13
1.87
2.15
2.76
3.23
3.03
1.76
-0.69
-4.04
-7.76
-11.31
-14.29
-16.59
-18.29
-19.58
-20.55
-21.20
-21.44
-21.19
-20.41
-19.16
-17.58
-15.81
-13.98
-12.18
-10.48
-8.95
-7.68
-6.74
-6.19
-5.97
-5.94
-5.94
-5.76
-5.29
-4.53
-3.55
-2.47
-1.42
-0.47
0.33
1.00
1.57
2.10
2.64
3.19
3.67
3.98
3.99
3.65
3.03
2.29
1.64
1.24
1.11
1.19
1.30
1.29
1.10
0.75
0.34
-0.05
-0.40
-0.74
-1.14
-1.65
-2.26
-2.93
-3.61
-4.29
-5.04
-5.90
-6.93
-8.07
-9.17
-10.04
-10.50
-10.46
-9.90
-8.87
-7.46
-5.75
-3.82
-1.72
0.46
2.62
4.55
6.00
6.73
6.63
5.78
4.47
3.10
1.98
1.31
1.08
1.19
1.48
1.87
2.30
2.74
3.09
3.26
3.16
2.78
2.13
1.32
0.41
-0.57
-1.58
-2.57
-3.48
-4.27
-4.94
-5.59
-6.30
-7.13
-7.99
-8.70
-9.04
-8.92
-8.40
-7.78
-7.40
-7.56
-8.31
-9.47
-10.72
-11.77
-12.44
-12.75
-12.77
-12.61
-12.26
-11.67
-10.83
-9.77
-8.61
-7.48
-6.49
-5.66
-4.98
-4.50
-4.27
-4.37
-4.83
-5.53
-6.24
-6.70
-6.76
-6.42
-5.84
-5.19
-4.64
-4.24
-4.01
-3.93
-4.02
-4.28
-4.65
-5.04
-5.30
-5.34
-5.16
-4.92
-4.80
-4.93
-5.28
-5.72
-6.02
-6.09
-5.92
-5.68
-5.55
-5.67
-6.08
-6.74
-7.60
-8.58
-9.64
-10.68
-11.60
-12.26
-12.56
-12.48
-12.06
-11.42
-10.62
-9.72
-8.70
-7.55
-6.29
-5.01
-3.80
-2.77
-2.00
-1.48
-1.15
-0.82
-0.27
0.75
2.40
4.70
7.50
10.50
13.36
15.72
17.37
18.24
18.42
18.11
17.53
16.83
16.04
15.12
13.93
12.45
10.74
8.96
7.31
5.92
4.83
3.94
3.15
2.34
1.42
0.38
-0.80
-2.10
-3.48
-4.91
-6.40
-7.95
-9.49
-10.91
-12.01
-12.60
-12.58
-11.99
-11.02
-9.93
-8.92
-8.03
-7.18
-6.26
-5.22
-4.11
-3.13
-2.40
-1.97
-1.74
-1.55
-1.26
-0.83
-0.35
0.04
0.24
0.25
0.21
0.25
0.46
0.81
1.20
1.47
1.52
1.34
1.04
0.72
0.52
0.45
0.46
0.43
0.28
-0.05
-0.56
-1.21
-2.00
-2.94
-4.09
-5.47
-7.07
-8.83
-10.71
-12.68
-14.80
-17.14
-19.65
-22.18
-24.40
-25.93
-26.48
-25.93
-24.37
-22.07
-19.36
-16.53
-13.84
-11.47
-9.60
-8.32
-7.62
-7.37
-7.30
-7.13
-6.62
-5.71
-4.48
-3.10
-1.74
-0.49
0.59
1.49
2.21
2.69
2.91
2.85
2.53
2.01
1.37
0.71
0.13
-0.27
-0.39
-0.22
0.22
0.80
1.35
1.66
1.56
0.92
-0.28
-1.99
-4.11
-6.47
-8.97
-11.51
-14.08
-16.69
-19.35
-22.02
-24.57
-26.72
-28.17
-28.64
-27.95
-26.11
-23.35
-20.06
-16.65
-13.41
-10.46
-7.73
-5.09
-2.53
-0.15
1.83
3.28
4.23
4.92
5.62
6.53
7.60
8.66
9.46
9.89
10.06
10.19
10.51
11.09
11.81
12.38
12.55
12.17
11.26
10.03
8.73
7.61
6.77
6.14
5.54
4.75
3.61
2.10
0.36
-1.44
-3.11
-4.57
-5.86
-7.14
-8.63
-10.57
-13.11
-16.25
-19.74
-23.18
-26.03
-27.80
-28.17
-27.12
-24.83
-21.61
-17.82
-13.77
-9.72
-5.92
-2.59
0.14
2.20
3.64
4.65
5.48
6.36
7.48
8.90
10.49
12.05
13.32
14.18
14.63
14.82
15.01
15.33
15.77
16.10
16.08
15.49
14.32
12.74
11.05
9.52
8.29
7.35
6.52
5.65
4.58
3.27
1.74
0.06
-1.74
-3.68
-5.79
-8.14
-10.74
-13.60
-16.72
-20.09
-23.63
-27.15
-30.30
-32.59
-33.51
-32.69
-30.00
-25.68
-20.25
-14.36
-8.68
-3.70
0.35
3.46
5.80
7.60
9.10
10.46
11.80
13.23
14.81
16.61
18.59
20.64
22.54
24.09
25.16
25.77
26.05
26.16
26.19
26.11
25.77
25.03
23.81
22.15
20.20
18.13
16.10
14.25
12.60
11.10
9.60
7.87
5.72
3.07
-0.03
-3.37
-6.68
-9.78
-12.67
-15.57
-18.75
-22.50
-26.94
-31.91
-36.97
-41.48
-44.68
-45.94
-44.90
-41.57
-36.38
-29.97
-23.05
-16.21
-9.81
-3.98
1.27
5.97
10.15
13.82
17.03
19.86
22.44
24.90
27.31
29.68
31.97
34.10
36.01
37.62
38.92
39.87
40.45
40.65
40.47
39.89
38.87
37.38
35.44
33.15
30.69
28.23
25.92
23.75
21.59
19.26
16.61
13.62
10.38
7.05
3.79
0.69
-2.25
-5.07
-7.91
-10.94
-14.40
-18.49
-23.27
-28.51
-33.66
-37.99
-40.73
-41.38
-39.82
-36.35
-31.54
-26.01
-20.22
-14.49
-8.97
-3.75
1.07
5.38
9.10
12.20
14.79
16.99
18.97
20.87
22.80
24.78
26.82
28.86
30.80
32.56
34.00
35.04
35.59
35.60
35.07
34.01
32.45
30.46
28.12
25.53
22.83
20.17
17.72
15.61
13.92
12.58
11.37
10.02
8.27
5.99
3.22
0.13
-3.04
-6.12
-9.04
-11.89
-14.82
-18.03
-21.75
-26.14
-31.19
-36.64
-41.90
-46.14
-48.50
-48.32
-45.39
-39.99
-32.83
-24.82
-16.82
-9.42
-2.92
2.62
7.31
11.27
14.59
17.32
19.51
21.28
22.81
24.30
25.94
27.79
29.82
31.85
33.71
35.22
36.28
36.87
37.03
36.82
36.28
35.45
34.29
32.80
30.98
28.94
26.81
24.79
22.96
21.35
19.81
18.17
16.26
14.03
11.48
8.73
5.86
2.92
-0.09
-3.20
-6.36
-9.55
-12.72
-15.96
-19.44
-23.41
-28.04
-33.21
-38.42
-42.85
-45.51
-45.64
-42.95
-37.72
-30.70
-22.87
-15.07
-7.89
-1.58
3.79
8.26
11.88
14.74
16.99
18.89
20.69
22.56
24.56
26.62
28.60
30.40
31.97
33.29
34.37
35.16
35.58
35.56
35.08
34.17
32.90
31.37
29.64
27.76
25.78
23.76
21.78
19.95
18.33
16.90
15.52
13.99
12.12
9.85
7.23
4.45
1.66
-1.03
-3.63
-6.21
-8.84
-11.60
-14.58
-17.90
-21.68
-25.98
-30.62
-35.16
-38.89
-41.04
-41.03
-38.63
-34.05
-27.87
-20.81
-13.61
-6.83
-0.84
4.16
8.12
11.06
13.07
14.32
15.05
15.54
16.07
16.81
17.88
19.24
20.78
22.32
23.68
24.75
25.47
25.83
25.89
25.66
25.18
24.45
23.43
22.10
20.51
18.73
16.87
14.98
13.07
11.10
8.99
6.71
4.26
1.69
-0.88
-3.36
-5.67
-7.78
-9.69
-11.53
-13.47
-15.76
-18.65
-22.29
-26.57
-31.09
-35.19
-38.12
-39.27
-38.29
-35.22
-30.41
-24.41
-17.84
-11.29
-5.27
-0.13
3.96
6.98
9.07
10.47
11.45
12.22
12.99
13.87
14.97
16.36
18.01
19.83
21.61
23.11
24.13
24.57
24.45
23.89
23.01
21.92
20.67
19.26
17.69
15.98
14.17
12.33
10.51
8.73
6.97
5.19
3.33
1.30
-0.98
-3.50
-6.19
-8.91
-11.55
-14.03
-16.39
-18.78
-21.42
-24.50
-28.17
-32.34
-36.72
-40.75
-43.71
-44.91
-43.90
-40.66
-35.57
-29.33
-22.69
-16.25
-10.36
-5.15
-0.66
3.08
6.03
8.21
9.73
10.86
11.90
13.10
14.52
16.03
17.44
18.60
19.48
20.17
20.82
21.52
22.20
22.69
22.76
22.21
21.04
19.33
17.30
15.17
13.15
11.33
9.74
8.33
6.99
5.54
3.80
1.64
-0.98
-3.92
-6.95
-9.80
-12.32
-14.49
-16.46
-18.48
-20.81
-23.68
-27.21
-31.31
-35.63
-39.53
-42.23
-43.02
-41.48
-37.69
-32.20
-25.80
-19.30
-13.30
-8.08
-3.65
0.11
3.35
6.15
8.54
10.49
12.04
13.27
14.33
15.43
16.73
18.27
19.95
21.53
22.77
23.51
23.74
23.57
23.15
22.56
21.75
20.61
19.02
16.98
14.60
12.09
9.67
7.44
5.41
3.47
1.48
-0.66
-2.96
-5.34
-7.67
-9.85
-11.86
-13.77
-15.74
-17.97
-20.66
-23.91
-27.67
-31.70
-35.55
-38.62
-40.30
-40.08
-37.78
-33.57
-28.00
-21.80
-15.71
-10.24
-5.59
-1.72
1.56
4.35
6.69
8.51
9.80
10.68
11.40
12.25
13.42
14.91
16.51
18.00
19.20
20.09
20.76
21.30
21.68
21.73
21.23
20.04
18.18
15.90
13.54
11.38
9.58
8.07
6.63
5.02
3.09
0.83
-1.63
-4.08
-6.34
-8.35
-10.16
-11.97
-14.06
-16.69
-19.99
-23.90
-28.10
-32.03
-35.00
-36.36
-35.68
-32.88
-28.30
-22.54
-16.37
-10.46
-5.28
-1.01
2.34
4.83
6.57
7.65
8.17
8.32
8.39
8.70
9.52
10.98
12.97
15.19
17.23
18.71
19.38
19.19
18.27
16.85
15.12
13.22
11.19
9.02
6.72
4.32
1.95
-0.30
-2.36
-4.24
-6.05
-7.96
-10.07
-12.44
-15.08
-18.02
-21.30
-24.96
-28.86
-32.68
-35.85
-37.71
-37.75
-35.77
-31.96
-26.85
-21.11
-15.36
-10.05
-5.45
-1.64
1.37
3.62
5.22
6.32
7.15
7.94
8.88
10.09
11.59
13.27
14.98
16.50
17.63
18.17
18.05
17.29
16.04
14.51
12.90
11.28
9.58
7.66
5.44
2.94
0.27
-2.38
-4.91
-7.31
-9.64
-12.01
-14.50
-17.18
-20.13
-23.48
-27.34
-31.71
-36.37
-40.77
-44.12
-45.61
-44.73
-41.40
-36.11
-29.70
-23.05
-16.82
-11.31
-6.48
-2.17
1.74
5.24
8.18
10.45
12.07
13.22
14.19
15.30
16.70
18.41
20.24
21.98
23.39
24.34
24.80
24.80
24.34
23.44
22.06
20.21
17.97
15.52
13.11
10.92
9.00
7.25
5.43
3.32
0.83
-1.97
-4.92
-7.89
-10.88
-14.04
-17.61
-21.79
-26.62
-31.94
-37.41
-42.52
-46.57
-48.90
-48.94
-46.50
-41.83
-35.62
-28.71
-21.87
-15.53
-9.75
-4.36
0.80
5.73
10.23
14.04
17.05
19.33
21.18
22.92
24.76
26.77
28.82
30.73
32.33
33.49
34.16
34.38
34.18
33.64
32.79
31.68
30.27
28.55
26.49
24.17
21.69
19.20
16.76
14.35
11.92
9.42
6.90
4.45
2.15
-0.06
-2.31
-4.73
-7.32
-9.99
-12.62
-15.21
-17.97
-21.17
-24.89
-28.79
-32.09
-33.80
-33.07
-29.59
-23.66
-16.11
-7.95
-0.06
7.03
13.26
18.98
24.70
30.80
37.19
43.17
47.55
49.03
46.80
40.84
32.01
21.65
11.15
1.49
-6.82
-13.49
-18.33
-21.00
-21.26
-19.13
-15.12
-10.13
-5.19
-1.08
1.85
3.62
4.38
4.15
2.76
0.01
-4.07
-9.03
-14.05
-18.27
-21.15
-22.68
-23.37
-23.88
-24.72
-26.07
-27.76
-29.45
-30.77
-31.34
-30.77
-28.68
-24.74
-18.89
-11.51
-3.32
4.76
11.96
17.86
22.45
25.99
28.80
31.09
32.94
34.35
35.40
36.24
37.10
38.14
39.32
40.44
41.20
41.34
40.82
39.82
38.63
37.49
36.43
35.24
33.60
31.24
28.12
24.46
20.65
17.03
13.82
11.04
8.55
6.15
3.65
0.85
-2.38
-6.12
-10.31
-14.69
-18.76
-21.89
-23.42
-22.88
-20.19
-15.63
-9.84
-3.62
2.30
7.39
11.41
14.38
16.47
17.87
18.78
19.31
19.60
19.78
20.01
20.46
21.23
22.33
23.60
24.79
25.62
25.92
25.65
24.87
23.72
22.28
20.56
18.51
16.16
13.67
11.27
9.21
7.57
6.19
4.77
2.99
0.66
-2.17
-5.24
-8.22
-10.87
-13.12
-15.09
-17.03
-19.24
-21.98
-25.40
-29.44
-33.76
-37.81
-40.84
-42.16
-41.34
-38.34
-33.53
-27.58
-21.21
-15.01
-9.38
-4.50
-0.48
2.62
4.78
6.07
6.68
6.90
7.05
7.39
8.07
9.10
10.39
11.77
13.09
14.19
14.94
15.31
15.31
15.03
14.57
13.94
13.06
11.82
10.13
8.07
5.83
3.72
1.95
0.61
-0.46
-1.48
-2.67
-4.11
-5.71
-7.31
-8.77
-10.06
-11.25
-12.51
-14.01
-15.93
-18.39
-21.40
-24.79
-28.19
-30.98
-32.49
-32.17
-29.77
-25.49
-19.93
-13.88
-8.09
-3.09
0.88
3.83
5.90
7.26
8.05
8.40
8.42
8.23
7.99
7.86
7.99
8.51
9.42
10.66
12.03
13.25
14.06
14.27
13.86
12.91
11.57
10.02
8.34
6.55
4.67
2.70
0.71
-1.21
-2.98
-4.56
-5.96
-7.27
-8.58
-9.95
-11.47
-13.18
-15.14
-17.44
-20.16
-23.24
-26.47
-29.46
-31.63
-32.40
-31.36
-28.39
-23.74
-17.99
-11.89
-6.18
-1.39
2.23
4.71
6.28
7.18
7.64
7.79
7.76
7.67
7.66
7.85
8.27
8.85
9.44
9.93
10.25
10.45
10.58
10.68
10.69
10.46
9.85
8.81
7.38
5.71
3.93
2.13
0.28
-1.67
-3.78
-5.98
-8.17
-10.23
-12.10
-13.86
-15.61
-17.47
-19.48
-21.63
-23.91
-26.32
-28.78
-31.04
-32.64
-32.99
-31.60
-28.35
-23.51
-17.74
-11.82
-6.43
-1.93
1.54
4.05
5.74
6.71
7.09
7.02
6.73
6.44
6.38
6.69
7.41
8.46
9.66
10.78
11.59
11.99
11.96
11.60
11.03
10.31
9.45
8.34
6.93
5.20
3.23
1.18
-0.78
-2.59
-4.25
-5.84
-7.47
-9.18
-10.98
-12.78
-14.50
-16.10
-17.66
-19.41
-21.56
-24.25
-27.33
-30.31
-32.48
-33.11
-31.77
-28.44
-23.59
-17.97
-12.34
-7.29
-3.05
0.36
3.04
5.06
6.44
7.15
7.25
6.92
6.47
6.22
6.41
7.07
8.05
9.11
10.00
10.60
10.88
10.92
10.79
10.52
10.07
9.36
8.35
7.04
5.51
3.84
2.10
0.29
-1.62
-3.65
-5.79
-7.97
-10.09
-12.07
-13.90
-15.65
-17.45
-19.49
-21.92
-24.75
-27.73
-30.37
-32.04
-32.11
-30.27
-26.60
-21.59
-15.97
-10.44
-5.52
-1.45
1.70
3.96
5.39
6.04
5.99
5.41
4.54
3.67
3.08
2.99
3.49
4.50
5.79
7.04
8.03
8.63
8.90
8.94
8.80
8.37
7.44
5.79
3.44
0.63
-2.20
-4.65
-6.51
-7.83
-8.89
-10.00
-11.42
-13.26
-15.57
-18.30
-21.35
-24.38
-26.88
-28.21
-27.83
-25.50
-21.43
-16.19
-10.53
-5.11
-0.36
3.50
6.37
8.19
8.92
8.65
7.68
6.48
5.60
5.40
5.96
7.07
8.36
9.49
10.35
10.96
11.42
11.78
11.94
11.73
10.94
9.44
7.20
4.32
0.99
-2.54
-6.01
-9.15
-11.82
-14.03
-15.99
-18.04
-20.52
-23.67
-27.47
-31.59
-35.45
-38.30
-39.41
-38.34
-35.04
-29.87
-23.52
-16.78
-10.32
-4.61
0.09
3.68
6.17
7.59
8.10
7.96
7.54
7.25
7.39
8.09
9.28
10.69
12.02
13.01
13.50
13.50
13.14
12.55
11.81
10.86
9.57
7.73
5.28
2.30
-0.95
-4.15
-7.00
-9.42
-11.52
-13.58
-15.95
-18.87
-22.45
-26.60
-31.00
-35.11
-38.30
-39.88
-39.39
-36.65
-31.91
-25.77
-18.97
-12.22
-6.00
-0.58
3.98
7.62
10.33
12.10
13.04
13.42
13.64
14.12
15.13
16.70
18.62
20.54
22.07
22.96
23.11
22.61
21.60
20.28
18.78
17.12
15.30
13.25
10.94
8.39
5.66
2.84
0.00
-2.83
-5.70
-8.62
-11.73
-15.15
-19.04
-23.45
-28.23
-32.89
-36.72
-38.87
-38.70
-35.94
-30.83
-24.02
-16.42
-8.83
-1.90
4.03
8.82
12.48
15.06
16.68
17.51
17.84
18.03
18.49
19.54
21.27
23.50
25.80
27.68
28.74
28.89
28.30
27.33
26.29
25.29
24.23
22.83
20.85
18.18
14.97
11.48
8.06
4.93
2.20
-0.20
-2.45
-4.81
-7.56
-10.95
-15.05
-19.70
-24.39
-28.35
-30.73
-30.84
-28.42
-23.70
-17.35
-10.21
-3.05
3.59
9.44
14.40
18.44
21.53
23.69
24.99
25.65
25.98
26.30
26.85
27.76
28.99
30.41
31.81
33.00
33.78
34.01
33.62
32.62
31.12
29.26
27.22
25.12
22.98
20.74
18.29
15.58
12.63
9.58
6.59
3.84
1.34
-1.01
-3.47
-6.38
-10.03
-14.58
-19.97
-25.87
-31.62
-36.36
-39.19
-39.41
-36.79
-31.63
-24.68
-16.90
-9.13
-1.91
4.55
10.26
15.29
19.66
23.27
26.07
28.07
29.43
30.44
31.42
32.59
33.99
35.51
36.91
37.98
38.62
38.85
38.82
38.63
38.27
37.58
36.34
34.44
31.98
29.22
26.52
24.13
22.11
20.28
18.37
16.10
13.30
10.00
6.39
2.75
-0.65
-3.66
-6.30
-8.75
-11.29
-14.25
-17.84
-22.16
-27.10
-32.37
-37.45
-41.62
-44.12
-44.32
-41.97
-37.31
-31.04
-24.05
-17.13
-10.73
-4.92
0.43
5.47
10.16
14.33
17.73
20.29
22.14
23.58
24.94
26.42
28.03
29.64
31.11
32.36
33.39
34.25
34.91
35.29
35.25
34.70
33.64
32.17
30.45
28.63
26.79
24.99
23.27
21.61
19.97
18.30
16.51
14.58
12.56
10.59
8.78
7.16
5.58
3.80
1.61
-1.10
-4.24
-7.54
-10.69
-13.48
-15.83
-17.91
-20.02
-22.52
-25.70
-29.64
-34.17
-38.83
-42.96
-45.81
-46.74
-45.41
-41.85
-36.52
-30.15
-23.57
-17.45
-12.17
-7.71
-3.84
-0.24
3.26
6.65
9.75
12.40
14.55
16.28
17.76
19.11
20.37
21.52
22.51
23.35
24.04
24.58
24.92
24.92
24.49
23.58
22.28
20.70
19.04
17.46
16.07
14.89
13.88
12.91
11.81
10.45
8.81
7.01
5.28
3.80
2.66
1.75
0.87
-0.20
-1.62
-3.43
-5.57
-7.94
-10.44
-12.96
-15.39
-17.68
-19.85
-22.00
-24.35
-27.06
-30.12
-33.25
-35.94
-37.56
-37.61
-35.87
-32.52
-28.04
-23.02
-17.97
-13.25
-8.98
-5.17
-1.83
1.00
3.26
4.91
6.00
6.73
7.33
8.07
9.10
10.46
12.05
13.70
15.25
16.54
17.49
18.03
18.15
17.86
17.23
16.34
15.31
14.19
13.01
11.75
10.39
8.96
7.51
6.12
4.84
3.64
2.45
1.18
-0.24
-1.82
-3.54
-5.36
-7.27
-9.23
-11.24
-13.23
-15.16
-17.03
-18.94
-21.06
-23.58
-26.49
-29.58
-32.32
-34.10
-34.40
-33.00
-30.08
-26.11
-21.67
-17.28
-13.23
-9.62
-6.40
-3.50
-0.88
1.43
3.36
4.86
5.94
6.66
7.18
7.67
8.30
9.13
10.16
11.30
12.43
13.40
14.09
14.44
14.42
14.08
13.46
12.64
11.68
10.60
9.42
8.17
6.88
5.58
4.29
3.05
1.83
0.64
-0.54
-1.73
-2.95
-4.28
-5.81
-7.58
-9.56
-11.65
-13.71
-15.64
-17.43
-19.20
-21.12
-23.36
-26.04
-29.11
-32.35
-35.35
-37.57
-38.49
-37.72
-35.14
-30.99
-25.82
-20.29
-15.02
-10.36
-6.39
-2.99
0.01
2.76
5.23
7.36
9.07
10.40
11.47
12.48
13.52
14.60
15.56
16.22
16.45
16.30
15.93
15.52
15.17
14.87
14.49
13.89
13.04
11.99
10.85
9.69
8.53
7.33
6.03
4.66
3.31
2.08
1.02
0.08
-0.86
-1.99
-3.42
-5.17
-7.15
-9.20
-11.16
-12.90
-14.42
-15.82
-17.31
-19.15
-21.59
-24.73
-28.41
-32.14
-35.20
-36.87
-36.61
-34.33
-30.42
-25.57
-20.48
-15.70
-11.39
-7.52
-3.97
-0.73
2.10
4.35
5.92
6.92
7.59
8.25
9.12
10.24
11.49
12.66
13.62
14.35
14.90
15.33
15.66
15.81
15.72
15.34
14.75
14.01
13.17
12.19
11.01
9.60
8.03
6.45
5.02
3.81
2.74
1.68
0.46
-1.01
-2.69
-4.48
-6.21
-7.73
-8.95
-9.87
-10.60
-11.38
-12.54
-14.35
-16.97
-20.29
-23.97
-27.44
-30.09
-31.41
-31.09
-29.10
-25.67
-21.18
-16.09
-10.87
-5.87
-1.38
2.37
5.25
7.18
8.20
8.48
8.31
8.03
7.98
8.34
9.14
10.23
11.42
12.52
13.47
14.29
15.06
15.76
16.30
16.50
16.19
15.24
13.66
11.61
9.33
7.07
5.06
3.41
2.09
0.93
-0.26
-1.64
-3.30
-5.22
-7.27
-9.33
-11.32
-13.20
-15.02
-16.89
-18.96
-21.41
-24.36
-27.78
-31.37
-34.62
-36.82
-37.36
-35.88
-32.44
-27.52
-21.81
-16.03
-10.67
-5.95
-1.85
1.67
4.65
7.03
8.74
9.82
10.42
10.86
11.41
12.22
13.27
14.35
15.24
15.78
16.01
16.05
16.10
16.27
16.51
16.63
16.39
15.57
14.15
12.28
10.24
8.28
6.51
4.84
3.04
0.91
-1.57
-4.24
-6.80
-9.02
-10.84
-12.42
-14.06
-16.03
-18.52
-21.60
-25.23
-29.28
-33.49
-37.42
-40.43
-41.82
-41.07
-38.05
-33.08
-26.86
-20.20
-13.78
-8.01
-3.04
1.10
4.44
7.00
8.81
10.02
10.86
11.60
12.47
13.56
14.89
16.37
17.90
19.39
20.73
21.80
22.46
22.61
22.22
21.34
20.09
18.59
16.91
15.07
13.07
10.87
8.48
5.91
3.23
0.51
-2.17
-4.75
-7.20
-9.51
-11.74
-13.95
-16.29
-18.94
-22.14
-26.01
-30.45
-35.07
-39.14
-41.80
-42.35
-40.48
-36.38
-30.65
-24.03
-17.21
-10.67
-4.73
0.41
4.56
7.62
9.56
10.56
10.96
11.17
11.53
12.23
13.30
14.63
16.11
17.61
19.01
20.19
21.04
21.45
21.39
20.88
19.96
18.68
17.08
15.15
12.93
10.48
7.91
5.34
2.86
0.51
-1.77
-4.07
-6.47
-9.04
-11.75
-14.60
-17.62
-20.93
-24.66
-28.81
-33.14
-37.02
-39.67
-40.33
-38.57
-34.41
-28.34
-21.15
-13.68
-6.65
-0.55
4.42
8.23
11.03
12.96
14.24
15.04
15.56
15.99
16.57
17.46
18.74
20.34
22.09
23.75
25.11
26.02
26.41
26.27
25.61
24.49
22.95
21.06
18.85
16.35
13.59
10.62
7.51
4.37
1.30
-1.66
-4.51
-7.32
-10.17
-13.17
-16.43
-20.13
-24.41
-29.30
-34.60
-39.74
-43.89
-46.12
-45.72
-42.49
-36.78
-29.38
-21.27
-13.30
-6.05
0.22
5.47
9.75
13.18
15.87
17.97
19.67
21.16
22.64
24.28
26.16
28.26
30.49
32.66
34.52
35.88
36.57
36.55
35.85
34.56
32.76
30.53
27.96
25.15
22.21
19.23
16.21
13.08
9.68
5.88
1.71
-2.69
-7.05
-11.10
-14.73
-17.99
-21.14
-24.53
-28.53
-33.35
-38.95
-44.91
-50.43
-54.50
-56.18
-54.82
-50.39
-43.35
-34.61
-25.13
-15.75
-7.00
0.87
7.81
13.85
19.07
23.52
27.27
30.44
33.19
35.71
38.14
40.53
42.80
44.83
46.49
47.78
48.76
49.57
50.25
50.68
50.58
49.66
47.72
44.80
41.19
37.33
33.65
30.43
27.72
25.37
23.08
20.57
17.62
14.17
10.30
6.16
1.92
-2.22
-6.18
-9.91
-13.48
-17.07
-20.99
-25.51
-30.78
-36.57
-42.25
-46.87
-49.42
-49.16
-45.91
-40.13
-32.72
-24.76
-17.14
-10.38
-4.63
0.20
4.31
7.87
10.96
13.67
16.09
18.42
20.88
23.64
26.74
30.03
33.17
35.77
37.47
38.13
37.79
36.67
35.02
32.99
30.61
27.81
24.54
20.85
16.90
12.87
8.78
4.45
-0.50
-6.49
-13.86
-22.70
-32.82
-43.81
-54.96
-65.27
-73.47
-78.26
-78.77
-75.01
-68.21
-60.50
-54.06
-50.18
-48.57
-47.41
-44.36
-37.68
-26.91
-12.72
3.93
22.45
42.66
64.19
85.85
105.69
121.69
132.91
139.95
144.55
148.40
151.92
154.00
152.64
146.22
134.51
118.67
100.51
81.43
61.81
41.14
18.78
-5.23
-29.65
-52.17
-70.18
-81.85
-86.81
-86.28
-82.48
-77.54
-72.74
-68.21
-63.39
-57.79
-51.63
-45.96
-42.21
-41.62
-44.61
-50.77
-59.06
-68.30
-77.54
-86.21
-94.02
-100.75
-106.03
-109.36
-110.20
-108.28
-103.71
-97.00
-88.88
-79.97
-70.55
-60.57
-49.79
-37.99
-25.27
-12.09
0.84
12.72
22.99
31.45
38.34
44.17
49.56
54.92
60.36
65.69
70.49
74.33
76.92
78.24
78.53
78.29
78.11
78.53
79.82
81.84
84.08
85.85
86.51
85.70
83.40
79.90
75.60
70.91
66.16
61.61
57.42
53.60
50.01
46.34
42.19
37.22
31.30
24.60
17.67
11.39
6.77
4.73
5.69
9.47
15.22
21.78
27.95
32.82
35.81
36.51
34.48
29.31
20.82
9.44
-3.59
-16.41
-27.04
-34.03
-36.91
-36.26
-33.35
-29.63
-26.17
-23.47
-21.52
-20.03
-18.78
-17.70
-16.92
-16.60
-16.83
-17.49
-18.30
-18.93
-19.09
-18.71
-17.91
-16.96
-16.09
-15.42
-14.87
-14.24
-13.36
-12.24
-11.13
-10.46
-10.68
-12.06
-14.63
-18.08
-21.90
-25.45
-28.13
-29.50
-29.31
-27.61
-24.68
-20.98
-16.99
-13.14
-9.74
-6.94
-4.80
-3.35
-2.62
-2.54
-3.04
-3.95
-5.11
-6.35
-7.55
-8.62
-9.44
-9.88
-9.80
-9.15
-7.98
-6.47
-4.81
-3.13
-1.46
0.28
2.24
4.53
7.15
10.04
13.01
15.82
18.22
19.99
21.01
21.26
20.88
20.01
18.85
17.47
15.85
13.89
11.44
8.40
4.78
0.78
-3.27
-6.85
-9.47
-10.70
-10.32
-8.41
-5.29
-1.53
2.27
5.54
7.89
9.13
9.24
8.32
6.58
4.29
1.80
-0.51
-2.28
-3.28
-3.47
-3.04
-2.31
-1.65
-1.34
-1.47
-2.01
-2.84
-3.82
-4.83
-5.85
-6.85
-7.86
-8.89
-10.02
-11.32
-12.83
-14.54
-16.28
-17.80
-18.87
-19.34
-19.36
-19.31
-19.75
-21.14
-23.68
-27.12
-30.86
-34.07
-36.03
-36.28
-34.75
-31.69
-27.56
-22.94
-18.37
-14.26
-10.86
-8.21
-6.16
-4.46
-2.89
-1.31
0.27
1.73
2.98
4.01
4.88
5.72
6.59
7.45
8.22
8.79
9.12
9.23
9.20
9.05
8.73
8.13
7.08
5.51
3.45
1.06
-1.39
-3.65
-5.53
-7.00
-8.18
-9.27
-10.46
-11.89
-13.54
-15.41
-17.47
-19.78
-22.39
-25.23
-28.01
-30.16
-31.02
-30.02
-26.93
-22.01
-15.89
-9.36
-3.16
2.25
6.65
10.02
12.34
13.59
13.71
12.76
10.98
8.79
6.70
5.13
4.26
4.00
4.00
3.87
3.29
2.11
0.38
-1.75
-4.02
-6.14
-7.81
-8.74
-8.74
-7.78
-6.08
-4.00
-1.91
-0.06
1.53
3.03
4.71
6.73
9.16
11.84
14.48
16.70
18.14
18.51
17.70
15.83
13.14
9.87
6.14
1.89
-3.01
-8.52
-14.27
-19.70
-24.19
-27.47
-29.70
-31.40
-33.10
-35.03
-37.04
-38.73
-39.78
-40.14
-40.02
-39.63
-38.91
-37.46
-34.74
-30.35
-24.37
-17.40
-10.33
-3.97
1.24
5.29
8.44
10.97
13.04
14.69
15.90
16.62
16.66
15.70
13.28
9.10
3.33
-3.17
-8.91
-12.28
-12.12
-8.34
-2.05
4.80
10.02
12.02
10.29
5.53
-0.57
-5.99
-9.04
-8.78
-5.24
0.90
8.69
17.38
26.58
36.25
46.35
56.64
66.48
74.83
80.40
81.89
78.25
69.06
54.71
36.44
16.22
-3.77
-21.46
-35.36
-44.66
-49.27
-49.64
-46.66
-41.54
-35.65
-30.31
-26.59
-25.02
-25.56
-27.64
-30.42
-33.03
-34.80
-35.37
-34.77
-33.30
-31.45
-29.73
-28.53
-28.00
-28.00
-28.27
-28.54
-28.75
-28.97
-29.34
-29.77
-29.85
-28.88
-26.11
-21.13
-14.02
-5.40
3.86
12.85
20.89
27.49
32.26
34.79
34.73
31.93
26.70
19.91
12.85
6.88
3.04
1.73
2.68
5.17
8.37
11.63
14.64
17.26
19.43
20.96
21.59
21.14
19.61
17.29
14.56
11.72
8.86
5.86
2.54
-1.18
-5.21
-9.33
-13.38
-17.36
-21.38
-25.49
-29.52
-32.92
-34.90
-34.63
-31.53
-25.43
-16.70
-6.15
5.03
15.51
24.02
29.65
32.07
31.63
29.28
26.20
23.44
21.58
20.61
20.13
19.65
18.91
18.04
17.39
17.34
17.95
18.94
19.77
19.89
19.01
17.21
14.80
12.15
9.43
6.57
3.37
-0.36
-4.61
-9.20
-13.84
-18.26
-22.27
-25.68
-28.27
-29.70
-29.56
-27.58
-23.71
-18.27
-11.86
-5.23
0.96
6.24
10.39
13.40
15.40
16.56
17.06
17.12
17.02
17.01
17.27
17.88
18.70
19.50
19.97
19.88
19.15
17.83
16.05
14.01
11.85
9.71
7.64
5.66
3.77
1.91
-0.03
-2.21
-4.77
-7.76
-11.11
-14.53
-17.61
-19.85
-20.84
-20.31
-18.22
-14.79
-10.36
-5.39
-0.36
4.30
8.25
11.30
13.37
14.48
14.79
14.49
13.84
13.05
12.29
11.65
11.14
10.72
10.45
10.40
10.68
11.32
12.15
12.79
12.77
11.68
9.37
6.01
2.07
-1.93
-5.54
-8.64
-11.32
-13.89
-16.68
-19.94
-23.74
-27.91
-32.05
-35.50
-37.54
-37.53
-35.10
-30.35
-23.87
-16.57
-9.44
-3.28
1.53
4.97
7.32
8.93
10.16
11.26
12.41
13.67
15.02
16.31
17.35
17.94
18.00
17.64
17.16
16.92
17.23
18.18
19.53
20.83
21.52
21.14
19.50
16.67
13.02
8.98
4.94
1.04
-2.82
-6.90
-11.48
-16.68
-22.32
-27.97
-32.99
-36.73
-38.64
-38.50
-36.41
-32.87
-28.61
-24.42
-20.92
-18.44
-16.97
-16.26
-16.00
-15.93
-15.89
-15.70
-15.14
-13.92
-11.81
-8.81
-5.18
-1.37
2.10
4.87
6.82
8.03
8.71
9.14
9.49
9.88
10.29
10.61
10.69
10.40
9.73
8.83
7.99
7.52
7.63
8.33
9.39
10.39
10.83
10.27
8.51
5.62
1.98
-1.80
-5.00
-6.98
-7.27
-5.69
-2.35
2.40
8.02
13.85
19.26
23.69
26.73
28.20
28.11
26.70
24.42
21.82
19.48
17.83
17.03
16.97
17.26
17.50
17.41
16.95
16.28
15.63
15.13
14.72
14.19
13.34
12.11
10.58
8.99
7.50
6.17
4.97
3.80
2.62
1.50
0.53
-0.25
-0.94
-1.70
-2.75
-4.21
-6.07
-8.22
-10.53
-13.03
-15.82
-19.03
-22.55
-25.99
-28.63
-29.65
-28.47
-24.95
-19.58
-13.27
-7.10
-1.90
1.93
4.49
6.17
7.40
8.45
9.39
10.15
10.73
11.28
12.10
13.47
15.49
18.03
20.75
23.26
25.25
26.57
27.25
27.39
27.10
26.44
25.41
23.95
22.06
19.79
17.30
14.80
12.48
10.43
8.60
6.78
4.69
2.14
-0.97
-4.49
-8.17
-11.64
-14.59
-16.78
-18.14
-18.81
-19.05
-19.19
-19.64
-20.67
-22.39
-24.61
-26.90
-28.61
-29.09
-27.94
-25.09
-20.88
-15.89
-10.74
-5.92
-1.64
2.04
5.18
7.80
9.88
11.44
12.57
13.46
14.33
15.34
16.54
17.83
19.05
19.99
20.53
20.64
20.38
19.90
19.31
18.71
18.04
17.17
15.94
14.32
12.46
10.61
9.06
7.94
7.21
6.69
6.19
5.60
4.87
3.89
2.51
0.48
-2.33
-5.88
-9.88
-13.90
-17.56
-20.58
-22.88
-24.54
-25.66
-26.39
-26.94
-27.56
-28.55
-30.19
-32.61
-35.63
-38.80
-41.42
-42.77
-42.35
-40.05
-36.17
-31.33
-26.18
-21.21
-16.64
-12.44
-8.49
-4.69
-0.98
2.71
6.45
10.36
14.50
18.83
23.18
27.27
30.84
33.71
35.85
37.38
38.48
39.33
40.05
40.68
41.08
41.04
40.27
38.54
35.75
32.02
27.70
23.20
18.90
15.04
11.68
8.79
6.27
4.09
2.22
0.61
-0.82
-2.24
-3.85
-5.74
-7.91
-10.28
-12.68
-14.99
-17.12
-19.03
-20.71
-22.19
-23.56
-24.93
-26.43
-28.11
-29.85
-31.39
-32.35
-32.40
-31.32
-29.18
-26.23
-22.79
-19.20
-15.66
-12.25
-9.00
-5.94
-3.12
-0.67
1.32
2.84
3.97
4.89
5.81
6.92
8.26
9.76
11.21
12.35
13.02
13.18
12.93
12.47
11.98
11.52
11.11
10.69
10.21
9.70
9.22
8.82
8.48
8.12
7.59
6.78
5.59
4.07
2.33
0.55
-1.08
-2.45
-3.57
-4.55
-5.58
-6.79
-8.19
-9.68
-11.09
-12.30
-13.30
-14.23
-15.32
-16.83
-18.87
-21.40
-24.18
-26.77
-28.64
-29.31
-28.46
-26.03
-22.31
-17.82
-13.17
-8.90
-5.36
-2.64
-0.67
0.77
1.87
2.84
3.81
4.88
6.06
7.31
8.55
9.70
10.71
11.59
12.39
13.19
13.94
14.57
14.94
14.97
14.63
13.99
13.15
12.23
11.30
10.39
9.50
8.56
7.49
6.24
4.78
3.14
1.45
-0.16
-1.58
-2.74
-3.67
-4.43
-5.16
-6.04
-7.28
-9.08
-11.49
-14.38
-17.49
-20.48
-23.17
-25.55
-27.80
-30.05
-32.24
-34.03
-34.93
-34.51
-32.61
-29.46
-25.49
-21.24
-17.08
-13.23
-9.73
-6.57
-3.73
-1.23
0.90
2.65
4.05
5.19
6.20
7.19
8.30
9.56
10.96
12.38
13.71
14.86
15.79
16.52
17.04
17.31
17.27
16.90
16.21
15.28
14.18
12.94
11.61
10.21
8.79
7.45
6.26
5.23
4.29
3.30
2.09
0.51
-1.47
-3.82
-6.39
-8.99
-11.45
-13.69
-15.75
-17.81
-20.09
-22.81
-26.04
-29.68
-33.46
-36.94
-39.64
-41.10
-41.04
-39.35
-36.17
-31.84
-26.84
-21.67
-16.74
-12.37
-8.71
-5.75
-3.41
-1.57
-0.05
1.28
2.52
3.69
4.81
5.86
6.86
7.82
8.76
9.69
10.62
11.58
12.64
13.95
15.61
17.64
19.87
21.97
23.62
24.57
24.78
24.40
23.59
22.48
21.04
19.15
16.75
13.87
10.72
7.64
4.96
2.91
1.49
0.53
-0.32
-1.39
-2.95
-5.08
-7.74
-10.85
-14.32
-18.09
-22.02
-25.80
-28.92
-30.83
-31.14
-29.81
-27.25
-24.12
-21.12
-18.71
-16.99
-15.74
-14.60
-13.29
-11.69
-9.86
-7.93
-5.94
-3.83
-1.44
1.37
4.64
8.24
11.96
15.55
18.80
21.58
23.74
25.17
25.75
25.47
24.45
22.99
21.47
20.20
19.33
18.78
18.28
17.50
16.21
14.34
12.02
9.47
6.90
4.41
1.95
-0.60
-3.42
-6.66
-10.44
-14.82
-19.78
-25.12
-30.41
-34.96
-37.98
-38.82
-37.21
-33.36
-27.88
-21.62
-15.38
-9.74
-4.98
-1.21
1.64
3.66
5.04
6.04
6.94
8.05
9.55
11.44
13.54
15.61
17.43
18.94
20.17
21.21
22.07
22.68
22.87
22.49
21.56
20.18
18.60
17.02
15.57
14.24
12.96
11.62
10.12
8.47
6.70
4.84
2.89
0.80
-1.51
-4.09
-6.92
-9.98
-13.27
-16.87
-20.91
-25.45
-30.25
-34.74
-38.09
-39.46
-38.35
-34.80
-29.34
-22.86
-16.23
-10.10
-4.76
-0.25
3.57
6.84
9.65
12.03
13.99
15.50
16.60
17.35
17.82
18.08
18.20
18.29
18.49
18.94
19.71
20.78
21.94
22.93
23.48
23.50
23.08
22.43
21.68
20.83
19.69
18.04
15.79
13.05
10.13
7.32
4.79
2.48
0.17
-2.42
-5.48
-9.10
-13.31
-18.06
-23.18
-28.31
-32.83
-35.95
-36.91
-35.30
-31.18
-25.12
-18.01
-10.72
-3.90
2.06
7.08
11.16
14.31
16.55
17.94
18.64
18.90
19.06
19.39
20.09
21.19
22.62
24.20
25.70
26.86
27.45
27.35
26.51
25.05
23.16
21.06
18.88
16.64
14.28
11.69
8.91
6.05
3.30
0.83
-1.37
-3.48
-5.79
-8.58
-12.03
-16.10
-20.59
-25.12
-29.19
-32.24
-33.71
-33.12
-30.23
-25.17
-18.48
-10.93
-3.37
3.60
9.65
14.78
19.05
22.49
25.01
26.48
26.93
26.60
25.96
25.53
25.68
26.47
27.63
28.73
29.34
29.18
28.22
26.61
24.56
22.25
19.75
17.03
14.01
10.67
7.06
3.32
-0.35
-3.79
-6.88
-9.59
-11.98
-14.19
-16.44
-18.96
-21.98
-25.66
-29.92
-34.41
-38.50
-41.36
-42.18
-40.49
-36.31
-30.20
-23.04
-15.76
-9.05
-3.19
1.86
6.29
10.19
13.53
16.17
18.08
19.39
20.43
21.51
22.83
24.34
25.82
26.97
27.66
27.88
27.75
27.40
26.83
25.94
24.54
22.52
19.89
16.79
13.48
10.20
7.14
4.36
1.79
-0.75
-3.50
-6.70
-10.44
-14.60
-18.78
-22.34
-24.60
-25.02
-23.36
-19.83
-14.92
-9.32
-3.64
1.69
6.47
10.57
13.92
16.42
18.00
18.69
18.71
18.41
18.20
18.39
19.08
20.18
21.43
22.54
23.29
23.58
23.41
22.79
21.71
20.11
17.99
15.41
12.58
9.78
7.27
5.19
3.45
1.84
0.06
-2.14
-4.90
-8.20
-11.86
-15.56
-18.87
-21.30
-22.40
-21.94
-19.94
-16.75
-12.87
-8.79
-4.88
-1.29
2.00
4.98
7.61
9.77
11.35
12.36
12.95
13.41
13.99
14.84
15.92
17.09
18.15
18.95
19.45
19.66
19.63
19.39
18.91
18.11
16.93
15.37
13.48
11.38
9.24
7.22
5.44
3.95
2.63
1.28
-0.33
-2.39
-4.90
-7.65
-10.33
-12.68
-14.62
-16.31
-18.13
-20.47
-23.56
-27.41
-31.67
-35.77
-38.97
-40.56
-40.05
-37.31
-32.65
-26.74
-20.40
-14.34
-8.97
-4.38
-0.49
2.86
5.68
7.94
9.57
10.67
11.49
12.35
13.52
15.08
16.85
18.55
19.85
20.59
20.77
20.55
20.12
19.62
19.03
18.27
17.23
15.85
14.17
12.34
10.50
8.81
7.34
6.07
4.91
3.70
2.32
0.69
-1.15
-3.09
-5.01
-6.77
-8.37
-9.85
-11.35
-13.01
-15.00
-17.43
-20.36
-23.74
-27.38
-30.84
-33.55
-34.86
-34.32
-31.79
-27.55
-22.20
-16.48
-11.02
-6.21
-2.17
1.15
3.85
5.97
7.52
8.54
9.18
9.68
10.33
11.33
12.71
14.28
15.75
16.84
17.38
17.37
16.94
16.29
15.59
14.93
14.32
13.71
13.00
12.11
10.99
9.66
8.20
6.72
5.28
3.91
2.50
0.90
-1.00
-3.21
-5.59
-7.90
-9.93
-11.63
-13.07
-14.47
-16.06
-18.02
-20.42
-23.26
-26.45
-29.82
-33.02
-35.54
-36.75
-36.13
-33.49
-29.09
-23.60
-17.84
-12.50
-7.94
-4.14
-0.92
1.96
4.58
6.86
8.67
9.95
10.75
11.22
11.59
12.03
12.66
13.51
14.51
15.52
16.38
16.97
17.23
17.19
16.90
16.43
15.79
14.92
13.73
12.21
10.42
8.49
6.62
4.94
3.53
2.38
1.39
0.40
-0.74
-2.16
-3.94
-6.02
-8.30
-10.58
-12.72
-14.63
-16.38
-18.15
-20.16
-22.63
-25.63
-29.03
-32.44
-35.27
-36.85
-36.67
-34.53
-30.62
-25.54
-20.02
-14.72
-10.03
-6.07
-2.71
0.20
2.74
4.88
6.57
7.81
8.71
9.45
10.21
11.05
11.97
12.89
13.74
14.50
15.18
15.78
16.27
16.53
16.43
15.93
15.06
13.94
12.70
11.45
10.19
8.92
7.62
6.31
5.03
3.83
2.67
1.46
0.10
-1.48
-3.27
-5.16
-7.00
-8.71
-10.30
-11.83
-13.47
-15.34
-17.56
-20.14
-22.99
-25.85
-28.30
-29.81
-29.88
-28.22
-24.90
-20.31
-15.09
-9.91
-5.25
-1.35
1.74
4.06
5.65
6.51
6.70
6.40
5.89
5.50
5.49
5.97
6.86
8.01
9.21
10.34
11.34
12.21
12.94
13.47
13.69
13.50
12.78
11.58
10.03
8.39
6.92
5.79
4.97
4.30
3.52
2.42
0.94
-0.85
-2.74
-4.51
-6.03
-7.28
-8.42
-9.68
-11.28
-13.35
-15.86
-18.59
-21.20
-23.31
-24.53
-24.58
-23.23
-20.36
-16.01
-10.37
-3.86
2.99
9.63
15.61
20.68
24.78
27.97
30.40
32.23
33.69
35.14
36.98
39.51
42.66
45.81
47.83
47.28
42.92
34.11
21.12
5.04
-12.51
-29.96
-46.19
-60.74
-73.66
-85.23
-95.59
-104.55
-111.67
-116.37
-118.15
-116.72
-111.99
-104.00
-92.96
-79.33
-63.96
-48.06
-33.01
-19.92
-9.40
-1.45
4.24
7.89
9.57
9.29
7.49
5.20
3.91
4.95
8.89
15.25
22.72
29.80
35.34
38.72
39.81
38.76
35.97
32.13
28.22
25.30
24.03
24.33
25.39
26.05
25.43
23.31
20.27
17.49
16.37
18.17
23.60
32.61
44.11
56.12
66.10
71.69
71.42
65.21
54.38
41.18
28.04
16.75
8.14
2.05
-2.20
-5.34
-7.78
-9.64
-11.07
-12.43
-14.31
-17.12
-20.53
-23.39
-24.06
-21.22
-14.72
-5.88
2.96
9.37
11.78
10.08
5.38
-0.63
-6.47
-11.37
-15.35
-18.87
-22.33
-25.76
-28.74
-30.73
-31.51
-31.48
-31.57
-32.81
-35.66
-39.72
-43.79
-46.49
-46.94
-45.13
-41.82
-38.05
-34.52
-31.37
-28.28
-24.87
-21.08
-17.25
-13.98
-11.73
-10.50
-9.69
-8.16
-4.53
2.36
12.85
26.07
39.91
51.55
58.41
59.12
54.02
44.98
34.43
24.39
15.83
8.76
2.81
-2.00
-5.08
-5.55
-2.89
2.51
9.44
16.37
22.20
26.68
30.21
33.44
36.70
39.85
42.50
44.39
45.68
46.85
48.45
50.83
54.00
57.79
61.91
65.96
69.27
70.77
69.16
63.35
53.04
38.98
22.83
6.69
-7.60
-18.87
-26.73
-31.38
-33.39
-33.47
-32.40
-30.93
-29.64
-28.85
-28.64
-28.98
-30.07
-32.46
-37.10
-44.96
-56.55
-71.45
-88.07
-103.89
-115.99
-121.88
-120.23
-111.19
-96.35
-78.17
-59.41
-42.46
-28.99
-19.80
-14.79
-13.10
-13.30
-13.65
-12.55
-8.96
-2.64
5.87
15.51
25.02
33.29
39.50
43.19
44.31
43.20
40.53
37.20
34.04
31.61
29.98
28.83
27.59
25.72
22.95
19.36
15.27
11.11
7.18
3.59
0.25
-3.10
-6.79
-11.07
-16.13
-21.95
-28.27
-34.52
-39.92
-43.62
-44.91
-43.51
-39.64
-34.03
-27.60
-21.28
-15.66
-10.93
-6.99
-3.56
-0.45
2.37
4.84
6.87
8.50
9.89
11.28
12.83
14.56
16.33
17.89
18.99
19.49
19.35
18.64
17.50
16.07
14.48
12.77
10.89
8.72
6.15
3.16
-0.11
-3.40
-6.47
-9.19
-11.64
-14.04
-16.63
-19.58
-22.95
-26.76
-31.00
-35.58
-40.17
-44.09
-46.38
-46.05
-42.44
-35.56
-26.05
-15.01
-3.57
7.43
17.60
26.81
35.10
42.46
48.78
53.99
58.08
61.19
63.59
65.56
67.33
68.99
70.49
71.63
72.15
71.81
70.46
68.10
64.83
60.86
56.41
51.63
46.59
41.31
35.77
30.00
24.04
18.02
12.12
6.54
1.47
-2.95
-6.72
-9.97
-13.03
-16.27
-20.08
-24.69
-30.13
-36.11
-42.03
-47.09
-50.43
-51.32
-49.42
-44.86
-38.26
-30.52
-22.61
-15.28
-8.90
-3.52
1.02
4.89
8.17
10.88
13.00
14.62
15.96
17.27
18.75
20.47
22.34
24.17
25.78
27.06
27.91
28.34
28.31
27.84
26.94
25.67
24.05
22.13
19.93
17.53
15.07
12.69
10.50
8.53
6.69
4.82
2.74
0.32
-2.51
-5.75
-9.33
-13.11
-16.81
-19.99
-22.08
-22.46
-20.69
-16.65
-10.64
-3.33
4.41
11.67
17.76
22.20
24.79
25.61
24.95
23.29
21.20
19.23
17.75
16.93
16.70
16.89
17.33
17.84
18.32
18.64
18.69
18.36
17.62
16.49
15.07
13.40
11.54
9.51
7.36
5.15
2.94
0.74
-1.53
-3.97
-6.69
-9.72
-13.03
-16.46
-19.82
-22.81
-25.04
-26.09
-25.60
-23.42
-19.75
-15.04
-9.94
-5.11
-0.99
2.16
4.33
5.58
6.01
5.76
5.02
4.05
3.17
2.65
2.65
3.16
4.01
4.92
5.60
5.82
5.44
4.47
2.95
1.00
-1.21
-3.54
-5.82
-7.97
-9.95
-11.82
-13.66
-15.55
-17.52
-19.55
-21.59
-23.49
-25.02
-25.81
-25.45
-23.59
-20.10
-15.24
-9.61
-3.98
0.97
4.84
7.61
9.45
10.60
11.23
11.38
11.14
10.71
10.40
10.57
11.45
13.00
14.93
16.79
18.16
18.82
18.73
18.05
16.98
15.68
14.22
12.59
10.75
8.66
6.34
3.83
1.20
-1.48
-4.14
-6.76
-9.36
-12.10
-15.15
-18.69
-22.72
-26.94
-30.76
-33.36
-34.00
-32.28
-28.34
-22.81
-16.59
-10.57
-5.33
-1.04
2.39
5.22
7.56
9.45
10.81
11.65
12.10
12.43
12.88
13.63
14.65
15.77
16.78
17.52
17.94
18.07
17.99
17.73
17.29
16.61
15.65
14.40
12.90
11.23
9.47
7.73
6.11
4.66
3.37
2.14
0.84
-0.69
-2.53
-4.64
-6.90
-9.16
-11.28
-13.26
-15.18
-17.22
-19.57
-22.37
-25.71
-29.54
-33.64
-37.60
-40.83
-42.65
-42.49
-40.13
-35.76
-29.98
-23.61
-17.38
-11.72
-6.76
-2.39
1.53
5.04
8.02
10.39
12.15
13.45
14.55
15.68
16.92
18.21
19.37
20.25
20.81
21.08
21.17
21.16
21.05
20.83
20.46
19.90
19.13
18.16
17.02
15.72
14.34
12.96
11.66
10.50
9.41
8.25
6.85
5.08
2.98
0.71
-1.47
-3.35
-4.92
-6.32
-7.78
-9.52
-11.66
-14.18
-16.98
-19.98
-23.04
-25.94
-28.31
-29.67
-29.55
-27.68
-24.17
-19.48
-14.30
-9.32
-4.99
-1.46
1.43
3.90
6.19
8.32
10.21
11.70
12.71
13.29
13.65
14.02
14.54
15.25
16.01
16.70
17.24
17.63
17.93
18.21
18.47
18.63
18.61
18.27
17.52
16.34
14.81
13.12
11.50
10.15
9.12
8.27
7.36
6.20
4.71
3.00
1.31
-0.18
-1.40
-2.44
-3.50
-4.75
-6.26
-8.04
-10.01
-12.05
-14.00
-15.63
-16.67
-16.85
-15.97
-14.01
-11.14
-7.66
-3.92
-0.23
3.21
6.36
9.21
11.74
13.87
15.47
16.44
16.79
16.70
16.41
16.18
16.09
16.08
15.91
15.39
14.36
12.78
10.69
8.11
5.02
1.37
-2.94
-8.03
-14.01
-20.98
-28.93
-37.65
-46.63
-55.11
-62.17
-66.98
-69.05
-68.34
-65.19
-60.23
-54.04
-47.10
-39.65
-31.85
-23.87
-16.02
-8.72
-2.42
2.58
6.21
8.65
10.25
11.45
12.63
14.03
15.76
17.76
19.87
21.84
23.47
24.55
24.95
24.62
23.57
21.93
19.86
17.60
15.42
13.48
11.82
10.32
8.74
6.89
4.66
2.10
-0.59
-3.17
-5.42
-7.25
-8.63
-9.68
-10.57
-11.50
-12.64
-14.03
-15.63
-17.24
-18.61
-19.57
-20.10
-20.33
-20.47
-20.64
-20.89
-21.13
-21.26
-21.23
-21.12
-21.02
-21.01
-21.05
-20.96
-20.53
-19.56
-17.91
-15.53
-12.42
-8.63
-4.34
0.19
4.59
8.50
11.61
13.75
14.91
15.25
14.98
14.37
13.66
13.03
12.60
12.35
12.21
12.02
11.63
10.96
10.07
9.13
8.36
7.89
7.70
7.62
7.41
6.86
5.91
4.63
3.16
1.60
0.01
-1.67
-3.48
-5.44
-7.50
-9.58
-11.57
-13.41
-15.08
-16.58
-17.92
-19.11
-20.13
-20.99
-21.67
-22.17
-22.42
-22.35
-21.82
-20.67
-18.85
-16.48
-13.82
-11.24
-9.07
-7.49
-6.48
-5.85
-5.35
-4.81
-4.17
-3.47
-2.78
-2.14
-1.54
-0.88
-0.11
0.81
1.84
2.94
4.07
5.25
6.50
7.85
9.19
10.38
11.29
11.89
12.26
12.59
13.03
13.55
14.00
14.15
13.84
13.09
12.10
11.17
10.51
10.16
9.97
9.62
8.80
7.29
5.04
2.23
-0.81
-3.66
-5.88
-7.18
-7.41
-6.62
-4.99
-2.83
-0.44
1.86
3.80
5.19
5.97
6.17
5.93
5.46
4.95
4.56
4.42
4.56
4.97
5.52
6.03
6.29
6.14
5.55
4.64
3.62
2.69
1.89
1.15
0.33
-0.68
-1.84
-3.00
-4.01
-4.74
-5.21
-5.51
-5.73
-5.92
-6.09
-6.19
-6.23
-6.25
-6.35
-6.62
-7.12
-7.80
-8.58
-9.29
-9.76
-9.81
-9.35
-8.41
-7.11
-5.69
-4.35
-3.27
-2.54
-2.13
-1.99
-1.98
-1.98
-1.90
-1.69
-1.35
-0.92
-0.45
0.04
0.54
1.08
1.68
2.33
2.95
3.41
3.58
3.40
2.86
2.03
1.03
-0.01
-0.96
-1.69
-2.14
-2.29
-2.22
-2.03
-1.85
-1.76
-1.81
-1.98
-2.29
-2.75
-3.37
-4.13
-4.96
-5.77
-6.51
-7.18
-7.87
-8.59
-9.30
-9.78
-9.81
-9.22
-8.02
-6.40
-4.67
-3.12
-1.92
-1.11
-0.62
-0.29
-0.00
0.34
0.72
1.12
1.43
1.64
1.78
1.89
2.01
2.10
2.04
1.73
1.13
0.27
-0.70
-1.66
-2.53
-3.28
-3.89
-4.37
-4.69
-4.87
-4.96
-5.10
-5.37
-5.79
-6.25
-6.58
-6.62
-6.37
-5.95
-5.60
-5.53
-5.84
-6.51
-7.39
-8.27
-9.00
-9.44
-9.51
-9.18
-8.47
-7.43
-6.20
-4.93
-3.79
-2.90
-2.30
-1.96
-1.83
-1.83
-1.94
-2.10
-2.27
-2.38
-2.40
-2.33
-2.23
-2.19
-2.28
-2.53
-2.88
-3.24
-3.52
-3.73
-3.92
-4.17
-4.57
-5.14
-5.88
-6.77
-7.81
-8.96
-10.21
-11.47
-12.67
-13.69
-14.46
-14.97
-15.35
-15.74
-16.27
-16.99
-17.76
-18.26
-18.09
-16.90
-14.55
-11.16
-7.16
-3.03
0.75
3.89
6.34
8.21
9.66
10.79
11.66
12.20
12.36
12.11
11.48
10.58
9.56
8.59
7.77
7.12
6.59
6.06
5.47
4.79
4.06
3.33
2.62
1.89
1.09
0.16
-0.88
-1.99
-3.06
-4.05
-4.92
-5.67
-6.34
-7.01
-7.75
-8.65
-9.75
-11.09
-12.66
-14.45
-16.43
-18.59
-20.85
-23.03
-24.80
-25.78
-25.60
-24.10
-21.34
-17.70
-13.69
-9.87
-6.60
-4.03
-2.08
-0.58
0.62
1.59
2.32
2.80
3.12
3.48
4.09
5.10
6.48
7.98
9.32
10.29
10.83
11.06
11.16
11.22
11.19
10.95
10.40
9.53
8.46
7.33
6.27
5.25
4.19
3.01
1.65
0.20
-1.22
-2.54
-3.80
-5.16
-6.85
-9.07
-11.88
-15.17
-18.64
-21.80
-24.10
-25.08
-24.41
-22.05
-18.29
-13.67
-8.88
-4.54
-1.02
1.61
3.54
5.06
6.44
7.71
8.84
9.74
10.42
11.01
11.70
12.65
13.83
15.10
16.27
17.23
17.96
18.49
18.85
18.98
18.76
18.11
17.06
15.73
14.34
13.03
11.84
10.68
9.41
7.94
6.30
4.56
2.84
1.13
-0.65
-2.64
-5.02
-7.89
-11.27
-15.09
-19.14
-23.14
-26.63
-29.10
-30.05
-29.17
-26.39
-21.98
-16.47
-10.52
-4.76
0.35
4.50
7.61
9.75
11.08
11.88
12.43
13.03
13.89
15.12
16.72
18.52
20.36
22.06
23.52
24.71
25.60
26.11
26.17
25.71
24.75
23.41
21.83
20.15
18.42
16.63
14.70
12.65
10.52
8.42
6.47
4.70
3.07
1.48
-0.23
-2.17
-4.45
-7.13
-10.21
-13.64
-17.22
-20.57
-23.17
-24.41
-23.88
-21.49
-17.58
-12.76
-7.73
-3.04
1.05
4.46
7.23
9.37
10.87
11.76
12.24
12.66
13.41
14.74
16.66
18.95
21.24
23.21
24.68
25.65
26.18
26.40
26.30
25.86
25.01
23.78
22.23
20.50
18.68
16.79
14.79
12.66
10.42
8.19
6.12
4.27
2.62
1.03
-0.70
-2.73
-5.17
-8.10
-11.50
-15.29
-19.21
-22.79
-25.44
-26.55
-25.70
-22.84
-18.28
-12.63
-6.61
-0.90
4.05
8.04
11.10
13.39
15.10
16.37
17.30
18.02
18.66
19.43
20.51
21.94
23.62
25.31
26.71
27.67
28.15
28.23
28.04
27.58
26.82
25.70
24.22
22.50
20.68
18.89
17.16
15.44
13.66
11.76
9.74
7.68
5.65
3.71
1.84
-0.03
-2.07
-4.49
-7.46
-11.07
-15.22
-19.52
-23.40
-26.13
-27.06
-25.82
-22.44
-17.37
-11.32
-5.12
0.57
5.32
8.97
11.55
13.18
14.02
14.29
14.28
14.33
14.78
15.81
17.39
19.26
21.01
22.35
23.12
23.39
23.35
23.22
23.07
22.81
22.28
21.35
20.02
18.46
16.88
15.46
14.21
13.03
11.68
10.00
7.90
5.47
2.90
0.43
-1.73
-3.51
-5.02
-6.47
-8.13
-10.27
-13.00
-16.30
-19.91
-23.43
-26.33
-28.07
-28.22
-26.59
-23.28
-18.68
-13.40
-8.05
-3.14
1.03
4.33
6.77
8.41
9.38
9.85
10.06
10.27
10.69
11.48
12.65
14.12
15.73
17.30
18.68
19.74
20.42
20.71
20.61
20.16
19.39
18.35
17.13
15.82
14.55
13.40
12.41
11.52
10.60
9.49
8.12
6.46
4.58
2.59
0.58
-1.36
-3.19
-4.93
-6.63
-8.43
-10.53
-13.11
-16.25
-19.75
-23.13
-25.74
-26.95
-26.43
-24.22
-20.74
-16.56
-12.22
-8.07
-4.31
-1.03
1.68
3.70
4.94
5.43
5.36
5.07
4.97
5.35
6.33
7.81
9.51
11.11
12.38
13.22
13.68
13.86
13.81
13.52
12.92
11.97
10.71
9.29
7.86
6.53
5.30
4.07
2.75
1.28
-0.32
-1.97
-3.57
-5.09
-6.55
-8.03
-9.61
-11.37
-13.34
-15.56
-17.96
-20.39
-22.55
-24.01
-24.36
-23.29
-20.79
-17.13
-12.84
-8.47
-4.47
-1.09
1.57
3.55
4.87
5.56
5.66
5.34
4.83
4.44
4.42
4.88
5.74
6.77
7.70
8.31
8.47
8.20
7.58
6.74
5.81
4.83
3.80
2.64
1.27
-0.37
-2.25
-4.29
-6.35
-8.27
-9.94
-11.36
-12.59
-13.76
-15.06
-16.67
-18.73
-21.30
-24.29
-27.41
-30.19
-32.06
-32.49
-31.18
-28.16
-23.81
-18.77
-13.70
-9.14
-5.36
-2.36
-0.01
1.83
3.20
4.12
4.57
4.70
4.75
5.01
5.67
6.74
8.03
9.24
10.10
10.48
10.42
10.07
9.57
9.01
8.41
7.75
6.92
5.85
4.45
2.65
0.48
-1.95
-4.44
-6.78
-8.85
-10.68
-12.43
-14.35
-16.68
-19.50
-22.74
-26.11
-29.22
-31.56
-32.70
-32.28
-30.21
-26.67
-22.14
-17.25
-12.65
-8.76
-5.74
-3.43
-1.55
0.13
1.75
3.29
4.70
5.98
7.19
8.44
9.80
11.23
12.60
13.79
14.69
15.32
15.68
15.77
15.56
14.97
13.96
12.56
10.85
8.90
6.77
4.48
2.07
-0.37
-2.70
-4.80
-6.57
-8.07
-9.48
-11.04
-12.98
-15.43
-18.39
-21.69
-25.11
-28.29
-30.85
-32.33
-32.29
-30.50
-26.96
-22.08
-16.53
-11.09
-6.42
-2.80
-0.16
1.83
3.50
5.09
6.58
7.87
8.90
9.72
10.52
11.50
12.75
14.16
15.49
16.43
16.73
16.36
15.44
14.22
12.95
11.79
10.79
9.82
8.70
7.23
5.34
3.11
0.76
-1.46
-3.36
-4.96
-6.42
-8.04
-10.08
-12.73
-16.03
-19.86
-23.96
-27.95
-31.32
-33.52
-34.07
-32.70
-29.47
-24.83
-19.41
-13.91
-8.86
-4.56
-1.08
1.67
3.80
5.41
6.59
7.46
8.16
8.85
9.64
10.55
11.51
12.43
13.23
13.92
14.52
15.06
15.48
15.65
15.43
14.77
13.73
12.47
11.16
9.82
8.33
6.50
4.20
1.45
-1.52
-4.42
-6.99
-9.16
-11.05
-12.94
-15.11
-17.76
-21.03
-24.88
-29.18
-33.56
-37.49
-40.31
-41.35
-40.20
-36.82
-31.63
-25.39
-18.93
-12.90
-7.59
-2.99
1.11
4.89
8.38
11.53
14.26
16.58
18.62
20.59
22.60
24.64
26.55
28.11
29.21
29.83
30.09
30.15
30.10
29.91
29.44
28.51
27.01
24.97
22.60
20.24
18.19
16.60
15.42
14.32
12.92
10.89
8.14
4.79
1.19
-2.31
-5.49
-8.31
-11.01
-13.91
-17.35
-21.55
-26.52
-32.02
-37.59
-42.55
-46.16
-47.73
-46.83
-43.43
-37.92
-31.04
-23.63
-16.43
-9.89
-4.11
1.04
5.77
10.25
14.48
18.36
21.73
24.50
26.73
28.56
30.19
31.77
33.32
34.78
36.04
37.05
37.84
38.50
39.07
39.53
39.73
39.48
38.65
37.22
35.35
33.35
31.51
30.00
28.76
27.55
26.08
24.18
21.89
19.44
17.12
15.11
13.35
11.56
9.36
6.52
3.03
-0.83
-4.68
-8.19
-11.24
-13.98
-16.74
-19.88
-23.70
-28.28
-33.52
-39.07
-44.37
-48.69
-51.21
-51.28
-48.60
-43.37
-36.32
-28.47
-20.80
-13.94
-8.07
-2.98
1.66
6.08
10.25
13.97
17.02
19.35
21.17
22.84
24.70
26.89
29.31
31.65
33.59
34.96
35.77
36.19
36.38
36.41
36.23
35.72
34.79
33.48
31.91
30.28
28.73
27.30
25.95
24.58
23.12
21.53
19.82
18.01
16.16
14.33
12.56
10.83
9.06
7.09
4.75
1.98
-1.17
-4.47
-7.63
-10.43
-12.78
-14.78
-16.71
-18.90
-21.67
-25.15
-29.21
-33.40
-36.92
-38.88
-38.57
-35.69
-30.60
-24.14
-17.38
-11.20
-6.04
-1.87
1.60
4.65
7.35
9.59
11.25
12.32
13.06
13.84
14.97
16.55
18.45
20.35
21.99
23.21
24.05
24.63
25.06
25.36
25.42
25.12
24.35
23.10
21.49
19.74
18.03
16.50
15.12
13.75
12.24
10.51
8.58
6.57
4.59
2.66
0.67
-1.51
-3.95
-6.61
-9.32
-11.89
-14.20
-16.31
-18.39
-20.69
-23.45
-26.78
-30.67
-34.95
-39.22
-42.88
-45.24
-45.67
-43.83
-39.83
-34.22
-27.78
-21.32
-15.41
-10.30
-5.95
-2.22
1.05
3.92
6.37
8.41
10.08
11.50
12.83
14.15
15.47
16.70
17.77
18.63
19.36
20.06
20.79
21.51
22.06
22.23
21.90
21.03
19.76
18.23
16.54
14.77
12.91
10.95
8.94
6.96
5.10
3.40
1.81
0.26
-1.38
-3.18
-5.20
-7.38
-9.63
-11.87
-14.02
-16.12
-18.31
-20.78
-23.67
-27.05
-30.81
-34.68
-38.25
-41.01
-42.43
-42.06
-39.69
-35.39
-29.60
-23.06
-16.55
-10.71
-5.87
-2.01
1.10
3.69
5.83
7.49
8.65
9.38
9.92
10.56
11.47
12.62
13.81
14.77
15.37
15.64
15.69
15.66
15.54
15.18
14.42
13.19
11.58
9.77
7.98
6.33
4.80
3.27
1.61
-0.26
-2.28
-4.34
-6.29
-8.06
-9.64
-11.14
-12.70
-14.49
-16.65
-19.23
-22.13
-25.06
-27.56
-29.07
-29.10
-27.38
-23.97
-19.27
-13.89
-8.49
-3.56
0.57
3.87
6.37
8.18
9.36
9.95
10.03
9.77
9.38
9.09
9.06
9.35
9.89
10.56
11.25
11.89
12.38
12.66
12.64
12.21
11.33
10.01
8.33
6.41
4.36
2.26
0.17
-1.85
-3.76
-5.56
-7.29
-9.08
-11.15
-13.68
-16.72
-20.08
-23.30
-25.72
-26.75
-26.01
-23.51
-19.62
-14.95
-10.11
-5.53
-1.48
1.96
4.71
6.67
7.77
8.06
7.72
7.10
6.59
6.46
6.82
7.61
8.65
9.76
10.76
11.51
11.93
11.93
11.49
10.66
9.49
8.06
6.41
4.52
2.38
0.03
-2.42
-4.79
-6.92
-8.78
-10.45
-12.17
-14.19
-16.68
-19.65
-22.88
-25.94
-28.31
-29.47
-29.02
-26.84
-23.12
-18.26
-12.83
-7.38
-2.35
1.93
5.32
7.71
9.08
9.51
9.16
8.29
7.24
6.32
5.81
5.85
6.46
7.53
8.83
10.11
11.12
11.67
11.71
11.31
10.59
9.63
8.46
7.04
5.29
3.19
0.82
-1.69
-4.17
-6.50
-8.60
-10.48
-12.22
-13.95
-15.86
-18.12
-20.81
-23.81
-26.77
-29.12
-30.20
-29.54
-26.96
-22.73
-17.41
-11.67
-6.14
-1.24
2.77
5.76
7.63
8.34
8.01
6.91
5.52
4.38
3.96
4.45
5.76
7.57
9.45
11.05
12.18
12.85
13.15
13.21
13.06
12.62
11.77
10.37
8.42
6.03
3.43
0.84
-1.54
-3.65
-5.55
-7.35
-9.21
-11.25
-13.60
-16.33
-19.46
-22.83
-26.14
-28.91
-30.56
-30.60
-28.81
-25.27
-20.37
-14.73
-8.94
-3.55
1.02
4.48
6.67
7.55
7.24
6.02
4.30
2.60
1.36
0.88
1.20
2.16
3.46
4.80
5.99
6.91
7.56
7.94
8.03
7.77
7.09
5.94
4.29
2.23
-0.14
-2.65
-5.09
-7.32
-9.24
-10.96
-12.72
-14.84
-17.56
-20.86
-24.39
-27.53
-29.53
-29.73
-27.80
-23.81
-18.24
-11.82
-5.36
0.42
5.00
8.10
9.68
9.85
8.89
7.20
5.21
3.38
2.07
1.49
1.65
2.39
3.46
4.59
5.61
6.41
6.94
7.12
6.79
5.80
4.03
1.55
-1.45
-4.66
-7.79
-10.70
-13.40
-16.03
-18.80
-21.91
-25.46
-29.41
-33.51
-37.23
-39.85
-40.60
-38.98
-34.92
-28.90
-21.75
-14.41
-7.66
-1.98
2.45
5.61
7.56
8.40
8.34
7.73
7.00
6.55
6.62
7.25
8.30
9.55
10.80
11.87
12.63
12.93
12.67
11.75
10.18
8.05
5.51
2.75
-0.09
-2.89
-5.62
-8.30
-11.01
-13.90
-17.18
-21.05
-25.51
-30.31
-34.86
-38.38
-40.11
-39.52
-36.53
-31.50
-25.16
-18.37
-11.89
-6.24
-1.68
1.71
3.96
5.17
5.48
5.16
4.55
4.07
4.01
4.43
5.16
5.80
5.91
5.24
3.77
1.72
-0.60
-2.93
-5.23
-7.70
-10.64
-14.32
-18.74
-23.49
-27.73
-30.48
-30.96
-29.01
-25.22
-20.77
-16.79
-13.97
-12.20
-10.66
-8.09
-3.01
5.98
19.91
39.20
63.28
90.54
118.50
144.38
165.76
181.10
189.84
192.12
188.34
178.91
164.21
144.87
121.94
97.01
72.03
48.96
29.39
14.18
3.19
-4.55
-10.48
-16.00
-22.00
-28.70
-35.76
-42.54
-48.44
-53.05
-56.25
-58.14
-58.91
-58.72
-57.69
-55.84
-53.30
-50.37
-47.67
-45.89
-45.52
-46.45
-47.90
-48.61
-47.40
-43.74
-37.96
-31.10
-24.38
-18.65
-14.09
-10.31
-6.71
-2.94
0.93
4.48
7.29
9.19
10.41
11.44
12.76
14.59
16.78
18.89
20.46
21.20
21.15
20.57
19.79
19.00
18.18
17.12
15.61
13.55
11.03
8.28
5.58
3.11
0.90
-1.20
-3.44
-6.08
-9.31
-13.15
-17.42
-21.71
-25.45
-28.01
-28.85
-27.66
-24.49
-19.72
-13.99
-8.00
-2.38
2.41
6.13
8.74
10.31
11.04
11.22
11.23
11.47
12.29
13.79
15.82
18.02
19.91
21.13
21.54
21.24
20.49
19.57
18.61
17.55
16.24
14.52
12.33
9.78
7.09
4.48
2.11
-0.01
-1.99
-3.96
-6.11
-8.56
-11.44
-14.75
-18.37
-21.94
-24.88
-26.55
-26.40
-24.20
-20.13
-14.75
-8.76
-2.84
2.59
7.30
11.26
14.47
16.93
18.69
19.83
20.55
21.13
21.82
22.83
24.17
25.71
27.20
28.40
29.11
29.31
29.05
28.48
27.73
26.89
25.96
24.89
23.63
22.11
20.32
18.33
16.27
14.29
12.53
11.04
9.74
8.41
6.81
4.71
2.09
-0.92
-4.05
-7.05
-9.75
-12.20
-14.59
-17.16
-20.14
-23.63
-27.61
-31.87
-35.99
-39.41
-41.44
-41.54
-39.44
-35.36
-29.93
-23.97
-18.21
-13.04
-8.43
-4.11
0.18
4.51
8.73
12.50
15.56
17.86
19.54
20.88
22.13
23.36
24.51
25.43
26.03
26.32
26.42
26.43
26.46
26.47
26.40
26.11
25.50
24.50
23.13
21.49
19.73
18.08
16.72
15.74
15.06
14.51
13.88
12.99
11.78
10.30
8.63
6.84
4.99
3.08
1.10
-1.00
-3.27
-5.76
-8.46
-11.27
-14.03
-16.57
-18.81
-20.77
-22.62
-24.59
-26.92
-29.76
-33.14
-36.88
-40.58
-43.63
-45.33
-45.09
-42.65
-38.22
-32.45
-26.17
-20.12
-14.69
-9.88
-5.45
-1.16
3.06
7.01
10.43
13.11
15.05
16.42
17.49
18.48
19.49
20.48
21.34
21.93
22.23
22.28
22.19
22.08
21.98
21.87
21.64
21.18
20.42
19.40
18.19
16.92
15.68
14.52
13.48
12.53
11.67
10.88
10.10
9.24
8.21
6.97
5.52
3.95
2.34
0.71
-0.95
-2.68
-4.51
-6.36
-8.16
-9.80
-11.23
-12.49
-13.68
-14.94
-16.40
-18.21
-20.49
-23.30
-26.57
-30.06
-33.34
-35.90
-37.22
-36.93
-34.92
-31.38
-26.75
-21.61
-16.54
-11.95
-8.01
-4.66
-1.72
1.00
3.53
5.84
7.84
9.49
10.83
11.95
12.92
13.78
14.53
15.18
15.75
16.25
16.67
16.93
16.93
16.62
16.00
15.19
14.32
13.51
12.79
12.16
11.59
11.05
10.56
10.11
9.67
9.15
8.41
7.37
6.02
4.49
2.99
1.68
0.63
-0.28
-1.24
-2.46
-4.03
-5.87
-7.82
-9.69
-11.38
-12.88
-14.27
-15.65
-17.14
-18.85
-20.88
-23.26
-25.85
-28.40
-30.41
-31.41
-31.01
-29.07
-25.74
-21.43
-16.69
-12.03
-7.79
-4.19
-1.25
1.07
2.84
4.15
5.07
5.67
6.04
6.25
6.42
6.62
6.90
7.32
7.88
8.52
9.16
9.70
10.04
10.15
10.06
9.86
9.62
9.35
8.98
8.43
7.66
6.75
5.86
5.15
4.70
4.44
4.18
3.73
2.94
1.80
0.45
-0.96
-2.29
-3.49
-4.61
-5.76
-7.07
-8.56
-10.25
-12.01
-13.74
-15.33
-16.75
-18.03
-19.30
-20.76
-22.58
-24.87
-27.64
-30.72
-33.73
-36.19
-37.56
-37.44
-35.68
-32.41
-28.05
-23.12
-18.15
-13.54
-9.49
-6.02
-2.98
-0.18
2.54
5.25
7.88
10.31
12.40
14.07
15.36
16.35
17.13
17.77
18.25
18.58
18.73
18.72
18.59
18.37
18.07
17.68
17.19
16.58
15.84
14.96
13.94
12.82
11.67
10.58
9.60
8.77
8.00
7.18
6.19
4.99
3.64
2.32
1.15
0.20
-0.60
-1.48
-2.66
-4.28
-6.32
-8.57
-10.76
-12.68
-14.25
-15.56
-16.77
-18.11
-19.77
-21.88
-24.43
-27.31
-30.18
-32.55
-33.90
-33.79
-32.04
-28.85
-24.63
-19.94
-15.30
-11.02
-7.24
-3.97
-1.15
1.30
3.47
5.42
7.22
8.88
10.36
11.59
12.54
13.19
13.63
13.97
14.32
14.77
15.32
15.93
16.44
16.71
16.61
16.11
15.27
14.26
13.25
12.35
11.62
10.97
10.31
9.56
8.66
7.58
6.35
4.98
3.55
2.15
0.87
-0.25
-1.27
-2.32
-3.54
-5.04
-6.77
-8.61
-10.38
-11.98
-13.38
-14.66
-15.97
-17.48
-19.33
-21.63
-24.38
-27.40
-30.29
-32.46
-33.24
-32.18
-29.19
-24.66
-19.37
-14.15
-9.63
-6.06
-3.34
-1.18
0.67
2.34
3.81
5.08
6.18
7.26
8.45
9.81
11.23
12.47
13.27
13.47
13.05
12.14
10.98
9.81
8.78
7.90
7.03
5.99
4.66
3.02
1.21
-0.58
-2.21
-3.60
-4.81
-5.91
-7.00
-8.15
-9.40
-10.80
-12.39
-14.19
-16.13
-18.06
-19.80
-21.22
-22.29
-23.14
-24.00
-25.15
-26.83
-29.17
-32.08
-35.25
-38.11
-39.95
-40.09
-38.08
-33.87
-27.87
-20.84
-13.62
-6.96
-1.30
3.27
6.93
10.02
12.84
15.58
18.26
20.81
23.11
25.13
26.89
28.51
30.06
31.60
33.04
34.29
35.26
35.97
36.52
36.98
37.36
37.50
37.20
36.27
34.69
32.57
30.10
27.45
24.68
21.83
18.93
16.06
13.34
10.89
8.74
6.84
5.07
3.34
1.61
-0.14
-1.88
-3.63
-5.47
-7.51
-9.94
-12.88
-16.40
-20.38
-24.51
-28.30
-31.21
-32.79
-32.82
-31.33
-28.59
-25.01
-21.03
-17.07
-13.45
-10.39
-7.99
-6.24
-5.02
-4.19
-3.56
-2.98
-2.33
-1.53
-0.50
0.82
2.40
4.17
6.00
7.73
9.27
10.54
11.49
12.03
12.09
11.59
10.60
9.26
7.78
6.29
4.82
3.25
1.45
-0.58
-2.71
-4.70
-6.38
-7.74
-8.92
-10.22
-11.90
-14.13
-16.99
-20.42
-24.28
-28.21
-31.68
-33.99
-34.49
-32.77
-28.86
-23.24
-16.65
-9.92
-3.70
1.65
6.00
9.36
11.83
13.45
14.30
14.54
14.39
14.16
14.15
14.59
15.53
16.90
18.50
20.10
21.47
22.41
22.80
22.55
21.68
20.26
18.45
16.42
14.28
12.06
9.72
7.16
4.36
1.34
-1.79
-4.86
-7.75
-10.38
-12.76
-15.04
-17.47
-20.35
-23.94
-28.37
-33.48
-38.75
-43.38
-46.44
-47.13
-45.05
-40.34
-33.60
-25.77
-17.80
-10.39
-3.92
1.56
6.17
10.05
13.23
15.72
17.51
18.71
19.52
20.20
21.01
22.08
23.41
24.92
26.42
27.72
28.65
29.04
28.81
27.95
26.52
24.65
22.48
20.08
17.46
14.58
11.43
8.05
4.59
1.18
-2.07
-5.15
-8.16
-11.21
-14.39
-17.80
-21.50
-25.59
-30.20
-35.30
-40.63
-45.55
-49.18
-50.57
-49.09
-44.62
-37.68
-29.25
-20.45
-12.21
-5.02
1.07
6.29
10.91
15.05
18.70
21.72
24.03
25.70
26.88
27.79
28.61
29.45
30.35
31.31
32.33
33.35
34.25
34.82
34.84
34.13
32.63
30.44
27.80
24.98
22.19
19.47
16.70
13.68
10.21
6.28
2.06
-2.14
-6.04
-9.52
-12.66
-15.72
-19.06
-23.06
-27.91
-33.61
-39.82
-45.81
-50.55
-52.92
-52.08
-47.78
-40.48
-31.26
-21.44
-12.20
-4.26
2.19
7.37
11.63
15.23
18.25
20.70
22.58
24.03
25.32
26.70
28.32
30.11
31.81
33.15
33.99
34.41
34.64
34.86
35.09
35.09
34.49
33.01
30.60
27.51
24.18
21.03
18.33
16.03
13.91
11.65
9.01
5.90
2.45
-1.15
-4.69
-8.04
-11.23
-14.41
-17.85
-21.84
-26.60
-32.15
-38.15
-43.85
-48.15
-49.92
-48.37
-43.39
-35.63
-26.32
-16.86
-8.31
-1.18
4.60
9.37
13.45
16.91
19.62
21.43
22.36
22.70
22.95
23.54
24.73
26.42
28.30
30.03
31.37
32.23
32.66
32.67
32.17
30.99
29.03
26.33
23.17
19.98
17.14
14.83
12.94
11.15
9.09
6.53
3.46
0.14
-3.12
-6.08
-8.69
-11.15
-13.79
-16.99
-20.97
-25.74
-31.00
-36.14
-40.31
-42.61
-42.28
-38.97
-32.88
-24.78
-15.78
-7.06
0.48
6.46
10.92
14.17
16.57
18.32
19.50
20.20
20.59
20.96
21.61
22.70
24.17
25.78
27.29
28.50
29.35
29.85
29.95
29.53
28.43
26.56
24.01
21.03
18.00
15.20
12.78
10.67
8.62
6.37
3.73
0.71
-2.55
-5.78
-8.79
-11.48
-13.94
-16.40
-19.17
-22.56
-26.77
-31.78
-37.26
-42.52
-46.59
-48.39
-47.16
-42.63
-35.28
-26.15
-16.57
-7.71
-0.25
5.65
10.28
14.06
17.31
20.12
22.43
24.13
25.23
25.87
26.34
26.85
27.54
28.37
29.19
29.82
30.19
30.30
30.16
29.75
28.94
27.55
25.47
22.75
19.62
16.44
13.58
11.27
9.47
7.91
6.20
3.99
1.13
-2.25
-5.80
-9.14
-12.00
-14.35
-16.45
-18.75
-21.69
-25.61
-30.50
-35.97
-41.26
-45.37
-47.27
-46.18
-41.90
-34.90
-26.21
-17.12
-8.79
-1.91
3.44
7.57
10.95
13.92
16.55
18.68
20.18
21.02
21.37
21.50
21.62
21.82
22.00
22.04
21.89
21.62
21.38
21.29
21.32
21.25
20.78
19.65
17.78
15.33
12.69
10.25
8.30
6.88
5.77
4.59
3.06
0.99
-1.53
-4.31
-7.07
-9.61
-11.81
-13.70
-15.45
-17.34
-19.71
-22.87
-27.01
-31.98
-37.22
-41.81
-44.66
-44.90
-42.16
-36.73
-29.49
-21.61
-14.15
-7.74
-2.54
1.67
5.23
8.38
11.16
13.48
15.28
16.59
17.60
18.57
19.69
21.04
22.53
23.96
25.15
25.99
26.52
26.83
26.97
26.91
26.48
25.49
23.76
21.31
18.31
15.09
11.96
9.13
6.62
4.30
1.92
-0.71
-3.70
-6.94
-10.23
-13.28
-15.91
-18.09
-20.06
-22.16
-24.79
-28.18
-32.23
-36.44
-40.00
-42.02
-41.80
-39.07
-34.10
-27.59
-20.47
-13.57
-7.47
-2.46
1.50
4.54
6.85
8.56
9.75
10.53
11.02
11.42
11.92
12.71
13.87
15.31
16.84
18.19
19.15
19.64
19.71
19.45
18.96
18.22
17.14
15.64
13.71
11.45
9.05
6.71
4.63
2.90
1.53
0.39
-0.74
-2.14
-4.04
-6.48
-9.32
-12.24
-14.92
-17.21
-19.20
-21.16
-23.43
-26.33
-29.99
-34.33
-39.03
-43.45
-46.70
-47.89
-46.33
-41.92
-35.16
-27.09
-18.86
-11.39
-5.07
0.16
4.59
8.44
11.73
14.32
16.07
17.04
17.50
17.88
18.53
19.63
21.10
22.68
24.07
25.08
25.67
25.90
25.84
25.50
24.84
23.77
22.30
20.48
18.42
16.21
13.92
11.57
9.20
6.86
4.62
2.49
0.45
-1.61
-3.78
-6.13
-8.62
-11.20
-13.82
-16.45
-19.09
-21.73
-24.32
-26.85
-29.38
-32.10
-35.27
-39.06
-43.29
-47.38
-50.32
-51.05
-48.78
-43.40
-35.59
-26.53
-17.58
-9.72
-3.40
1.56
5.58
9.09
12.25
15.03
17.30
19.01
20.30
21.42
22.59
23.91
25.30
26.59
27.57
28.14
28.33
28.25
28.01
27.67
27.16
26.33
25.02
23.19
20.96
18.59
16.34
14.37
12.67
11.07
9.36
7.42
5.24
2.96
0.73
-1.34
-3.27
-5.17
-7.20
-9.49
-12.08
-14.92
-17.85
-20.71
-23.38
-25.85
-28.25
-30.83
-33.84
-37.49
-41.75
-46.32
-50.56
-53.57
-54.44
-52.51
-47.61
-40.24
-31.38
-22.26
-13.95
-7.09
-1.74
2.44
5.92
9.04
11.86
14.26
16.06
17.25
18.00
18.58
19.25
20.09
21.05
22.02
22.89
23.68
24.39
25.00
25.38
25.32
24.62
23.27
21.42
19.34
17.34
15.55
13.97
12.44
10.73
8.68
6.27
3.59
0.78
-2.00
-4.70
-7.36
-10.07
-12.98
-16.22
-19.89
-24.01
-28.52
-33.25
-38.05
-42.87
-47.83
-53.19
-59.06
-65.22
-70.93
-74.98
-76.13
-73.51
-66.89
-56.79
-44.26
-30.58
-17.03
-4.75
5.35
12.73
17.39
19.98
21.74
24.04
27.94
33.74
40.89
48.30
54.82
59.68
62.75
64.43
65.41
66.38
67.71
69.40
71.05
72.00
71.53
69.15
64.74
58.74
51.93
45.22
39.28
34.28
29.97
25.79
21.24
16.11
10.59
5.13
0.26
-3.63
-6.45
-8.40
-9.87
-11.26
-12.90
-14.94
-17.40
-20.21
-23.29
-26.51
-29.68
-32.58
-35.02
-36.91
-38.32
-39.44
-40.36
-40.88
-40.42
-38.19
-33.54
-26.28
-16.95
-6.70
3.13
11.48
17.85
22.42
25.80
28.68
31.58
34.81
38.50
42.84
47.99
54.00
60.42
66.16
69.67
69.57
65.31
57.56
48.02
38.64
30.74
24.56
19.42
14.42
9.07
3.52
-1.83
-6.97
-12.59
-19.90
-29.87
-42.52
-56.75
-70.70
-82.65
-91.68
-97.95
-102.37
-105.93
-109.20
-112.10
-114.06
-114.44
-112.89
-109.59
-105.28
-101.00
-97.89
-96.71
-97.65
-100.13
-102.90
-104.43
-103.32
-98.79
-90.82
-80.11
-67.66
-54.48
-41.25
-28.34
-15.93
-4.17
6.65
16.14
23.99
30.07
34.57
37.98
40.87
43.76
46.90
50.26
53.64
56.78
59.52
61.87
63.90
65.73
67.36
68.65
69.38
69.32
68.37
66.53
63.93
60.71
56.91
52.53
47.58
42.18
36.66
31.40
26.70
22.61
18.89
15.12
10.97
6.40
1.68
-2.79
-6.69
-10.04
-13.18
-16.62
-20.92
-26.42
-33.17
-40.84
-48.73
-55.77
-60.74
-62.56
-60.60
-54.97
-46.51
-36.53
-26.34
-16.85
-8.42
-0.94
5.84
12.03
17.51
21.95
25.04
26.70
27.13
26.76
26.08
25.53
25.32
25.54
26.13
27.03
28.18
29.54
31.01
32.48
33.75
34.57
34.78
34.34
33.41
32.23
31.08
30.09
29.25
28.41
27.37
26.02
24.27
22.09
19.35
15.89
11.56
6.30
0.25
-6.36
-13.27
-20.29
-27.31
-34.22
-40.83
-46.88
-51.99
-55.75
-57.70
-57.29
-54.02
-47.53
-37.86
-25.54
-11.66
2.40
15.33
26.14
34.41
40.21
43.88
45.87
46.58
46.34
45.47
44.31
43.22
42.48
42.26
42.50
42.94
43.22
43.02
42.13
40.52
38.31
35.68
32.78
29.73
26.54
23.24
19.85
16.43
13.08
9.87
6.85
4.02
1.31
-1.30
-3.84
-6.26
-8.54
-10.71
-12.90
-15.39
-18.50
-22.53
-27.56
-33.40
-39.43
-44.72
-48.17
-48.76
-45.94
-39.80
-31.05
-20.90
-10.63
-1.30
6.46
12.46
16.80
19.68
21.35
22.04
22.05
21.74
21.51
21.72
22.56
24.00
25.84
27.76
29.44
30.64
31.24
31.21
30.63
29.54
27.99
26.01
23.69
21.15
18.53
15.97
13.47
10.91
8.13
5.01
1.56
-2.04
-5.48
-8.53
-11.13
-13.50
-16.06
-19.27
-23.49
-28.83
-35.00
-41.33
-46.86
-50.49
-51.24
-48.61
-42.72
-34.39
-24.89
-15.52
-7.27
-0.58
4.61
8.67
11.91
14.51
16.46
17.77
18.59
19.22
20.04
21.35
23.18
25.37
27.64
29.71
31.39
32.61
33.30
33.40
32.82
31.49
29.44
