1539007440.00
64.000000
-0.00
-0.00
-0.00
-0.00
-0.00
-0.00
-0.00
-0.00
-0.00
-0.00
0.00
0.01
0.01
-0.00
-0.03
-0.05
-0.05
0.00
0.13
0.36
0.66
1.01
1.37
1.72
2.06
2.40
2.79
3.24
3.80
4.42
5.06
5.66
6.20
6.68
7.15
7.68
8.31
9.14
10.09
11.04
11.88
12.56
13.14
13.76
14.65
15.96
17.91
20.32
22.90
25.38
27.58
29.57
31.68
34.32
37.81
42.54
48.15
54.10
59.83
64.97
69.58
74.14
79.34
85.71
93.76
103.00
112.62
121.73
129.77
136.75
143.30
150.75
157.77
166.64
177.95
191.79
206.97
220.57
228.25
225.36
208.53
176.87
132.76
80.05
23.07
-34.94
-92.44
-149.16
-205.23
-260.37
-313.74
-363.87
-409.83
-450.91
-486.50
-515.74
-537.23
-549.22
-549.96
-538.37
-514.21
-478.67
-433.88
-382.45
-327.02
-269.84
-212.63
-156.66
-102.95
-52.37
-5.90
35.58
71.43
101.35
125.50
144.38
158.69
169.15
176.37
180.75
182.57
182.07
179.51
175.23
169.65
163.18
156.15
148.81
141.30
133.69
126.02
118.33
110.69
103.16
95.80
88.68
81.83
75.25
68.95
62.95
57.25
51.86
46.78
42.03
37.59
33.45
29.61
26.07
22.81
19.83
17.11
14.67
12.48
10.54
8.83
7.35
6.07
4.97
4.05
3.27
2.62
2.09
1.65
1.30
1.01
0.79
0.61
0.48
0.37
0.28
0.22
0.17
0.14
0.11
0.10
0.09
0.09
0.09
0.10
0.12
0.14
0.17
0.20
0.24
0.28
0.32
0.37
0.41
0.46
0.51
0.56
0.61
0.67
0.73
0.79
0.86
0.93
1.02
1.11
1.20
1.31
1.44
1.58
1.73
1.91
2.10
2.32
2.56
2.82
3.11
3.43
3.78
4.16
4.58
5.04
5.53
6.06
6.63
7.24
7.90
8.60
9.35
10.15
10.99
11.88
12.82
13.81
14.85
15.96
17.14
18.37
19.65
20.95
22.22
23.39
24.38
25.05
25.31
25.03
24.10
22.46
20.10
17.04
13.34
9.16
4.67
0.06
-4.45
-8.66
-12.39
-15.50
-17.90
-19.55
-20.45
-20.65
-20.26
-19.39
-18.18
-16.74
-15.17
-13.53
-11.84
-10.07
-8.24
-6.38
-4.51
-2.63
-0.76
1.11
3.04
5.11
7.43
9.95
12.63
15.42
18.21
20.96
23.63
26.26
28.97
31.95
35.01
38.00
40.72
42.97
44.61
45.68
46.42
47.27
48.81
51.02
53.83
57.00
60.18
63.01
65.37
67.42
69.57
72.40
75.59
78.67
80.82
81.05
78.36
71.99
61.31
45.41
27.86
9.73
-8.66
-27.59
-47.61
-69.27
-92.98
-118.94
-146.95
-176.07
-205.06
-231.50
-252.33
-264.86
-267.77
-261.54
-248.28
-230.84
-211.84
-193.68
-177.77
-164.97
-155.91
-150.83
-149.24
-149.44
-148.47
-142.78
-129.49
-107.10
-76.01
-38.54
1.84
41.65
78.44
111.51
141.94
171.77
202.94
236.16
270.30
302.67
330.27
351.12
365.17
374.18
380.47
385.63
389.63
390.84
387.06
376.74
359.59
336.56
308.99
277.84
243.38
205.52
164.58
121.59
78.45
37.30
0.01
-32.21
-58.62
-78.75
-92.02
-97.87
-96.13
-87.51
-73.85
-57.73
-41.97
-28.86
-19.91
-15.98
-17.64
-25.27
-38.93
-57.97
-80.59
-104.02
-125.08
-141.08
-150.68
-154.22
-153.45
-150.69
-147.89
-145.85
-144.19
-141.91
-138.18
-133.16
-128.10
-124.93
-125.29
-129.88
-137.96
-147.60
-156.23
-161.14
-160.19
-151.97
-136.17
-113.71
-86.60
-57.75
-30.21
-6.42
12.30
25.70
34.26
38.60
39.19
36.48
31.23
24.79
18.83
14.76
13.18
13.44
14.02
13.20
9.97
4.42
-2.41
-9.21
-15.22
-20.71
-26.73
-34.49
-44.70
-57.31
-71.69
-86.96
-102.12
-115.97
-126.54
-131.33
-127.78
-114.46
-92.00
-63.25
-32.49
-3.94
19.52
36.79
48.07
54.02
54.99
51.10
42.67
30.88
17.85
6.15
-2.03
-5.74
-5.51
-3.11
-0.70
0.04
-1.51
-4.94
-9.28
-13.65
-17.86
-22.41
-28.19
-36.04
-46.47
-59.42
-74.27
-89.58
-103.00
-111.38
-111.43
-100.87
-79.45
-49.54
-15.55
17.47
45.42
66.38
80.54
89.28
93.93
94.97
92.06
84.83
73.74
60.43
47.38
36.95
30.38
27.31
26.02
24.20
20.05
12.84
2.97
-8.27
-19.46
-29.32
-37.08
-42.70
-46.91
-51.16
-57.27
-66.85
-80.42
-96.71
-112.66
-123.98
-126.50
-117.53
-96.79
-66.46
-30.43
6.85
41.47
70.72
93.18
108.43
116.56
117.89
112.90
102.44
88.04
71.81
56.15
43.26
34.43
29.82
28.44
28.73
29.23
29.12
28.21
26.71
24.67
21.67
16.92
9.58
-0.83
-14.28
-30.46
-48.83
-68.74
-89.04
-107.64
-121.36
-126.50
-119.96
-100.65
-70.23
-32.93
5.69
40.49
68.03
87.08
98.12
102.34
100.86
94.44
83.82
70.13
55.12
40.57
28.20
19.19
13.88
11.72
11.54
12.09
12.41
11.96
10.37
7.58
3.80
-0.74
-6.24
-13.29
-22.72
-35.23
-51.06
-70.36
-91.93
-112.77
-128.61
-135.17
-129.54
-111.19
-82.22
-46.89
-12.31
15.85
35.32
46.96
52.64
53.65
50.30
42.53
30.73
12.55
-11.72
-38.01
-60.59
-76.09
-84.96
-90.15
-95.00
-101.60
-116.26
-140.96
-171.53
-200.14
-221.26
-234.04
-240.96
-245.70
-251.70
-269.42
-304.77
-355.25
-411.61
-464.57
-507.96
-538.43
-554.86
-508.76
-384.55
-210.11
-37.15
98.28
188.11
240.98
269.05
281.32
282.63
267.51
233.93
186.69
139.23
103.18
83.99
81.26
90.56
105.73
115.08
111.79
97.24
79.24
65.49
58.05
55.98
56.99
59.17
57.84
50.63
38.17
22.49
3.90
-18.61
-44.74
-71.40
-93.33
-107.23
-111.46
-106.40
-93.99
-77.42
-59.61
-41.87
-24.02
-5.47
13.16
30.60
45.59
57.47
65.99
71.29
74.33
76.28
78.28
80.97
84.46
88.41
92.58
97.09
102.52
109.56
118.47
128.59
138.62
147.19
153.54
157.96
161.68
166.14
172.42
180.71
190.65
201.78
213.98
227.40
242.04
257.25
271.77
284.09
292.97
297.84
298.71
295.71
288.68
277.26
261.17
240.65
216.75
191.05
165.18
140.41
117.50
96.84
78.67
63.16
50.26
39.65
30.58
22.03
13.06
3.11
-7.77
-18.96
-29.53
-38.64
-45.93
-51.66
-56.68
-62.12
-68.94
-77.46
-86.95
-95.61
-100.91
-100.29
-92.18
-76.68
-55.72
-32.61
-11.00
6.20
17.43
22.54
22.33
17.90
10.22
0.17
-11.35
-23.10
-33.59
-41.32
-45.24
-45.07
-41.50
-35.96
-30.19
-25.63
-23.03
-22.24
-22.44
-22.69
-22.46
-21.99
-22.16
-24.05
-28.40
-35.26
-43.96
-53.34
-61.95
-68.18
-70.41
-67.26
-58.04
-43.22
-24.62
-5.12
12.17
24.74
31.51
32.76
29.78
24.07
16.79
8.63
0.02
-8.48
-15.96
-21.27
-23.38
-21.85
-17.12
-10.52
-3.85
1.10
3.12
1.73
-2.78
-9.68
-18.16
-27.55
-37.39
-47.41
-57.45
-67.46
-77.63
-88.14
-99.01
-109.53
-118.03
-122.01
-118.87
-106.92
-86.24
-58.98
-28.69
0.75
26.34
46.47
60.87
69.93
74.12
73.68
68.83
60.14
48.85
36.78
25.84
17.57
12.55
10.36
9.80
9.38
7.91
4.81
0.25
-5.17
-10.78
-16.23
-21.63
-27.50
-34.50
-43.17
-53.88
-66.68
-81.08
-95.87
-108.85
-117.03
-117.29
-107.36
-86.79
-57.31
-22.54
13.11
45.55
71.86
90.50
100.97
103.47
98.54
87.27
71.38
53.36
36.09
22.16
13.22
9.44
9.56
11.42
12.75
11.92
8.34
2.35
-5.15
-13.19
-21.23
-29.13
-37.23
-46.10
-56.39
-68.49
-82.20
-96.26
-108.24
-114.90
-113.03
-100.69
-78.08
-47.70
-13.67
19.55
48.46
71.11
86.99
96.43
99.86
97.57
89.98
78.09
63.75
49.46
37.75
30.33
27.53
28.28
30.56
32.23
31.81
28.88
23.87
17.67
10.90
3.67
-4.49
-14.32
-26.53
-41.50
-59.22
-79.12
-99.82
-118.96
-133.23
-139.00
-133.32
-115.12
-85.87
-49.39
-10.73
25.23
55.05
77.22
91.78
99.57
101.60
98.67
91.61
81.56
70.13
59.23
50.56
45.13
42.85
42.72
43.15
42.74
40.76
37.37
33.41
29.86
27.16
24.94
22.07
16.97
8.23
-4.99
-22.65
-43.65
-65.77
-85.83
-100.09
-105.13
-98.79
-81.06
-54.19
-22.27
10.07
38.87
61.67
77.61
86.95
90.40
88.70
82.73
73.70
63.34
53.69
46.58
43.02
42.80
44.63
46.64
47.09
45.07
40.60
34.50
27.84
21.34
15.01
8.23
-0.04
-10.82
-24.68
-41.46
-59.94
-77.82
-91.90
-98.66
-95.34
-80.83
-56.37
-25.30
7.82
38.58
63.89
82.35
93.96
99.32
99.03
93.52
83.42
69.98
55.26
41.79
31.87
26.76
26.26
28.79
32.05
33.87
32.93
29.09
23.21
16.53
10.06
4.12
-1.71
-8.34
-16.75
-27.62
-41.02
-56.14
-71.11
-83.04
-88.46
-84.19
-68.37
-41.35
-5.88
33.58
72.06
105.42
131.26
148.95
159.19
163.29
162.58
158.31
151.65
143.84
136.15
129.58
124.68
121.31
118.76
116.01
112.16
106.64
99.27
90.04
78.91
65.67
50.12
32.26
12.47
-8.47
-29.63
-50.33
-70.43
-90.28
-110.40
-131.04
-151.73
-171.27
-188.04
-200.64
-208.47
-212.01
-212.61
-211.93
-211.42
-211.92
-213.57
-215.83
-217.48
-216.44
-209.99
-195.38
-170.97
-137.16
-96.79
-54.48
-15.25
17.05
40.66
55.83
64.01
66.86
65.63
61.20
54.36
46.01
37.10
28.28
19.54
10.15
-0.96
-14.49
-30.02
-45.50
-57.49
-62.06
-56.25
-39.31
-13.24
17.72
48.48
74.73
94.11
106.39
112.74
114.64
113.10
108.44
100.76
90.62
79.31
68.77
60.91
56.83
56.40
58.26
60.43
60.99
58.78
53.56
45.94
36.93
27.49
18.23
9.24
0.23
-9.38
-20.21
-32.74
-47.07
-62.61
-77.98
-90.88
-98.50
-98.17
-88.28
-68.99
-42.56
-12.77
15.99
39.99
57.06
66.84
70.35
69.22
64.88
58.33
50.21
41.19
32.21
24.41
18.81
15.85
15.20
15.88
16.60
16.25
14.21
10.39
5.13
-1.06
-7.73
-14.54
-21.35
-28.19
-35.23
-42.72
-51.00
-60.44
-71.17
-82.81
-94.04
-102.63
-105.72
-100.73
-86.36
-63.36
-34.59
-4.27
23.32
45.08
59.78
67.86
70.69
69.70
65.89
59.82
52.05
43.46
35.32
28.94
25.23
24.28
25.39
27.30
28.71
28.70
26.84
23.25
18.32
12.49
6.11
-0.66
-7.76
-15.17
-22.93
-31.08
-39.85
-49.51
-60.18
-71.36
-81.68
-88.83
-90.17
-83.54
-68.27
-45.67
-18.82
8.31
32.05
49.94
61.15
66.16
66.21
62.65
56.63
49.03
40.68
32.50
25.42
20.24
17.32
16.49
17.06
18.07
18.58
17.95
15.85
12.34
7.73
2.42
-3.28
-9.22
-15.47
-22.19
-29.58
-37.70
-46.62
-56.39
-67.01
-78.18
-88.91
-97.37
-101.00
-97.32
-84.86
-64.02
-37.26
-8.41
18.38
39.92
54.60
62.42
64.45
62.18
56.96
49.85
41.77
33.62
26.33
20.75
17.33
16.04
16.33
17.33
18.12
18.02
16.65
13.91
9.89
4.68
-1.56
-8.64
-16.24
-23.99
-31.54
-38.76
-45.85
-53.36
-62.05
-72.44
-84.24
-96.06
-105.40
-109.31
-105.26
-92.17
-70.90
-44.13
-15.59
10.93
32.61
47.97
56.87
60.11
58.91
54.56
48.26
41.08
33.95
27.68
22.85
19.72
18.23
18.05
18.67
19.51
20.03
19.73
18.20
15.18
10.60
4.57
-2.58
-10.39
-18.40
-26.25
-33.78
-41.15
-48.85
-57.54
-67.74
-79.42
-91.49
-101.80
-107.45
-105.65
-94.73
-74.86
-48.25
-18.55
10.05
34.05
51.28
61.15
64.33
62.17
56.18
47.77
38.16
28.49
19.90
13.34
9.47
8.39
9.56
11.96
14.38
15.73
15.33
12.97
8.90
3.58
-2.42
-8.64
-14.82
-20.92
-27.16
-33.96
-41.87
-51.43
-62.81
-75.43
-87.75
-97.24
-100.92
-96.26
-82.11
-59.32
-30.77
-0.54
27.22
49.40
64.48
72.48
74.40
71.64
65.53
57.25
47.88
38.54
30.25
23.80
19.56
17.37
16.65
16.62
16.47
15.62
13.70
10.59
6.39
1.27
-4.57
-10.96
-17.81
-25.12
-33.00
-41.73
-51.72
-63.35
-76.63
-90.81
-104.13
-113.91
-117.16
-111.54
-96.23
-72.51
-43.47
-13.23
14.23
36.07
51.07
59.44
62.24
60.73
56.00
48.90
40.24
31.05
22.54
15.91
12.03
11.07
12.41
14.82
16.76
16.87
14.31
8.97
1.40
-7.44
-16.51
-25.03
-32.69
-39.63
-46.35
-53.62
-62.25
-72.96
-85.95
-100.52
-114.69
-125.26
-128.44
-121.05
-101.73
-71.80
-35.07
3.20
37.88
65.34
84.12
94.64
98.38
96.88
91.35
82.67
71.85
60.29
49.85
42.26
38.61
38.86
41.79
45.45
47.89
47.75
44.61
38.92
31.61
23.59
15.39
7.04
-1.81
-11.69
-23.10
-36.37
-51.56
-68.18
-84.91
-99.41
-108.47
-108.78
-98.04
-75.94
-44.66
-8.40
27.77
59.35
83.44
99.11
106.92
108.21
104.41
96.78
86.47
74.72
63.06
53.08
46.08
42.64
42.44
44.29
46.54
47.59
46.31
42.33
35.89
27.69
18.44
8.72
-1.21
-11.31
-21.76
-32.85
-45.04
-58.85
-74.54
-91.69
-108.65
-122.47
-129.41
-125.95
-110.20
-82.68
-46.60
-6.98
30.80
62.39
85.50
99.86
106.68
107.68
104.42
98.07
89.52
79.75
69.90
61.29
55.00
51.63
50.97
52.11
53.69
54.32
52.93
48.95
42.45
33.88
23.92
13.26
2.42
-8.35
-19.06
-29.96
-41.63
-54.73
-69.80
-86.67
-103.97
-118.90
-127.69
-126.62
-113.42
-88.34
-54.31
-16.24
20.53
51.73
75.03
90.14
98.16
100.66
99.08
94.53
87.90
80.13
72.28
65.32
59.99
56.63
55.12
54.96
55.44
55.72
54.96
52.41
47.55
40.23
30.67
19.48
7.41
-4.77
-16.57
-27.85
-38.80
-50.04
-62.33
-76.36
-92.23
-108.97
-124.25
-134.61
-136.35
-126.72
-105.15
-73.74
-36.77
0.47
33.29
58.73
75.92
85.60
89.27
88.48
84.39
77.97
70.15
62.04
54.80
49.38
46.30
45.46
46.27
47.84
49.27
49.76
48.75
45.91
41.07
34.25
25.66
15.69
4.91
-6.03
-16.54
-26.31
-35.40
-44.44
-54.40
-66.26
-80.36
-95.83
-110.34
-120.37
-122.21
-113.22
-92.96
-63.53
-29.07
5.45
35.71
58.98
74.42
82.61
84.84
82.52
76.91
69.18
60.51
52.08
44.96
39.90
37.16
36.54
37.44
39.13
40.79
41.75
41.47
39.56
35.84
30.28
23.02
14.36
4.77
-5.16
-14.88
-24.07
-32.82
-41.79
-51.91
-63.99
-78.03
-92.66
-105.13
-111.85
-109.56
-96.53
-73.46
-43.33
-10.65
19.96
44.92
62.42
72.32
75.59
73.63
67.82
59.41
49.65
39.88
31.43
25.36
22.20
21.83
23.51
26.16
28.61
29.91
29.45
26.94
22.42
16.11
8.42
-0.12
-8.98
-17.70
-26.08
-34.24
-42.63
-52.01
-63.02
-75.76
-89.26
-101.33
-108.82
-108.58
-98.53
-78.55
-50.80
-19.12
12.05
38.86
58.96
71.54
77.09
76.74
71.80
63.57
53.35
42.49
32.40
24.33
19.16
17.17
17.95
20.50
23.53
25.71
25.99
23.80
19.14
12.43
4.35
-4.38
-13.19
-21.74
-29.95
-37.98
-46.29
-55.58
-66.58
-79.63
-94.13
-108.12
-118.42
-121.42
-114.33
-96.31
-69.01
-36.21
-2.66
27.29
50.78
66.83
75.94
79.42
78.59
74.54
68.08
60.05
51.45
43.44
37.05
32.94
31.17
31.24
32.31
33.46
33.94
33.23
30.92
26.81
20.82
13.08
4.01
-5.81
-15.76
-25.40
-34.63
-43.84
-53.84
-65.53
-79.43
-94.93
-110.01
-121.39
-125.35
-119.00
-101.46
-74.38
-41.49
-7.53
23.20
47.86
65.35
76.05
81.02
81.52
78.62
73.27
66.40
58.97
51.95
46.09
41.81
39.16
37.87
37.56
37.77
38.01
37.81
36.57
33.70
28.76
21.59
12.49
2.13
-8.63
-19.02
-28.62
-37.55
-46.41
-56.18
-67.76
-81.53
-96.73
-111.23
-121.69
-124.49
-116.97
-98.50
-70.97
-38.33
-5.43
23.51
45.85
60.81
69.08
72.00
70.97
67.14
61.49
54.95
48.49
42.99
38.96
36.48
35.24
34.73
34.53
34.43
34.34
34.13
33.46
31.66
28.00
21.97
13.59
3.47
-7.38
-17.91
-27.41
-35.79
-43.58
-51.77
-61.45
-73.29
-87.02
-101.03
-112.43
-117.73
-113.87
-99.42
-75.28
-44.63
-11.94
18.34
42.91
60.23
70.33
74.28
73.46
69.24
62.80
55.21
47.49
40.55
35.07
31.37
29.37
28.72
28.95
29.63
30.43
31.03
31.02
29.84
26.88
21.76
14.51
5.60
-4.17
-14.01
-23.36
-32.09
-40.42
-48.93
-58.30
-69.16
-81.65
-94.99
-107.22
-115.31
-116.01
-106.88
-87.43
-59.54
-27.10
5.18
33.16
54.22
67.60
73.91
74.51
70.81
64.06
55.40
46.04
37.30
30.37
26.05
24.45
25.03
26.80
28.80
30.35
31.16
31.18
30.31
28.25
24.54
18.79
10.99
1.60
-8.50
-18.34
-27.22
-34.96
-41.98
-49.14
-57.48
-67.68
-79.65
-92.10
-102.56
-107.81
-104.90
-92.14
-69.91
-40.85
-9.04
21.05
45.89
63.48
73.54
76.86
74.81
68.77
60.01
49.75
39.24
29.74
22.29
17.57
15.68
16.16
18.19
20.79
23.05
24.22
23.78
21.44
17.15
11.16
3.88
-4.13
-12.30
-20.21
-27.70
-34.86
-42.13
-50.14
-59.55
-70.56
-82.49
-93.51
-100.75
-101.06
-92.08
-73.23
-46.22
-14.70
16.76
43.97
64.11
76.21
80.84
79.44
73.76
65.28
55.29
44.91
35.23
27.23
21.62
18.67
18.09
19.16
20.95
22.58
23.39
22.96
20.96
17.16
11.46
3.93
-5.03
-14.77
-24.54
-33.71
-42.01
-49.71
-57.53
-66.50
-77.52
-90.76
-105.08
-117.87
-125.44
-124.11
-111.52
-87.75
-55.55
-19.65
14.77
43.51
64.28
76.74
81.89
81.24
76.32
68.45
58.94
49.14
40.31
33.39
28.77
26.31
25.46
25.59
26.11
26.64
26.85
26.32
24.59
21.16
15.72
8.25
-0.85
-10.79
-20.72
-29.90
-38.05
-45.48
-53.05
-61.92
-73.01
-86.43
-100.95
-113.96
-121.83
-121.03
-109.32
-86.72
-55.74
-20.76
13.26
42.15
63.45
76.58
82.35
82.27
77.91
70.63
61.63
52.03
42.95
35.41
30.07
27.11
26.18
26.56
27.48
28.31
28.62
28.05
26.23
22.69
17.02
9.11
-0.65
-11.40
-22.10
-31.88
-40.43
-48.12
-55.91
-64.98
-76.23
-89.74
-104.26
-117.19
-124.93
-123.94
-111.91
-88.84
-57.24
-21.53
13.32
43.16
65.49
79.65
86.25
86.57
82.03
74.05
64.18
53.98
44.92
38.04
33.73
31.77
31.51
32.21
33.26
34.23
34.73
34.28
32.30
28.23
21.78
13.15
2.98
-7.80
-18.29
-27.99
-36.87
-45.45
-54.58
-65.17
-77.73
-91.81
-105.74
-116.57
-120.75
-115.12
-98.21
-70.98
-36.80
-0.58
32.69
59.21
77.16
86.53
88.61
85.16
77.82
68.02
57.02
46.03
36.25
28.77
24.30
22.99
24.35
27.37
30.71
33.05
33.37
31.06
26.11
18.96
10.38
1.18
-7.97
-16.74
-25.21
-33.79
-43.20
-54.15
-67.09
-81.67
-96.42
-108.64
-114.83
-111.67
-97.23
-71.85
-38.38
-1.50
33.65
62.83
83.63
95.53
99.44
96.94
89.71
79.37
67.46
55.55
45.13
37.39
32.91
31.59
32.71
35.18
37.84
39.51
39.25
36.40
30.68
22.29
11.91
0.51
-10.91
-21.61
-31.37
-40.45
-49.54
-59.59
-71.49
-85.63
-101.44
-117.01
-129.11
-133.84
-127.81
-109.42
-79.76
-42.53
-3.09
33.14
62.13
82.06
93.17
97.01
95.59
90.67
83.59
75.42
67.09
59.47
53.25
48.78
46.08
44.82
44.53
44.72
44.83
44.28
42.35
38.31
31.70
22.51
11.32
-0.84
-12.93
-24.19
-34.46
-44.17
-54.20
-65.54
-78.92
-94.31
-110.51
-124.92
-133.90
-133.71
-121.74
-97.71
-64.07
-25.48
12.58
45.39
70.13
86.10
94.26
96.25
93.75
88.15
80.61
72.28
64.38
57.93
53.57
51.31
50.60
50.72
51.02
51.15
50.96
50.27
48.60
45.24
39.48
31.00
20.13
7.82
-4.74
-16.48
-26.91
-36.17
-45.03
-54.69
-66.37
-80.75
-97.39
-114.26
-127.82
-133.85
-128.72
-110.90
-81.75
-45.28
-6.96
27.94
55.79
75.11
86.29
90.77
90.17
85.92
79.20
71.14
62.93
55.75
50.52
47.62
46.85
47.53
48.78
49.78
50.02
49.20
47.18
43.75
38.59
31.37
22.05
11.01
-0.91
-12.58
-23.08
-31.98
-39.69
-47.32
-56.31
-67.88
-82.25
-98.17
-112.83
-122.38
-123.03
-112.30
-89.99
-58.46
-22.05
14.12
45.59
69.44
84.68
91.82
92.34
87.97
80.39
71.05
61.21
51.96
44.17
38.42
34.92
33.48
33.59
34.56
35.61
36.02
35.14
32.54
28.00
21.54
13.46
4.22
-5.60
-15.45
-24.88
-33.74
-42.18
-50.80
-60.42
-71.77
-84.75
-97.96
-108.54
-112.81
-107.47
-90.99
-64.41
-31.31
3.33
34.61
59.05
75.18
83.25
84.56
80.62
72.82
62.43
50.73
39.17
29.20
22.01
18.21
17.70
19.64
22.79
25.79
27.46
27.00
23.99
18.49
10.96
2.13
-7.17
-16.22
-24.63
-32.39
-39.94
-48.05
-57.60
-69.28
-83.05
-97.73
-110.81
-118.80
-118.22
-106.72
-84.20
-53.07
-17.74
16.72
45.92
67.19
79.85
84.72
83.50
77.98
69.78
60.26
50.56
41.73
34.65
29.92
27.72
27.76
29.31
31.36
32.85
32.86
30.78
26.33
19.66
11.19
1.60
-8.36
-18.10
-27.26
-35.91
-44.46
-53.71
-64.51
-77.48
-92.45
-107.99
-121.36
-128.91
-127.17
-114.01
-89.69
-57.00
-20.57
14.49
44.00
65.60
78.97
85.20
86.05
83.20
77.93
71.18
63.72
56.28
49.61
44.28
40.56
38.35
37.30
36.90
36.69
36.26
35.20
33.01
29.08
22.92
14.35
3.67
-8.30
-20.52
-32.00
-42.26
-51.45
-60.42
-70.44
-82.70
-97.61
-114.21
-129.89
-140.76
-142.80
-133.14
-111.32
-79.66
-42.58
-5.28
27.80
54.00
72.59
84.20
90.05
91.38
89.19
84.48
78.39
72.19
67.04
63.65
62.12
61.85
61.99
61.75
60.78
59.14
57.10
54.71
51.51
46.54
38.71
27.33
12.58
-4.36
-21.73
-37.68
-50.98
-61.35
-69.50
-76.84
-84.98
-95.28
-108.24
-123.07
-137.42
-147.64
-149.66
-140.28
-118.43
-85.82
-46.57
-6.01
30.87
60.57
81.60
94.09
99.12
97.95
91.81
81.91
69.66
56.74
44.96
35.92
30.59
29.06
30.56
33.74
37.19
39.89
41.46
42.05
42.07
41.70
40.63
38.06
33.05
24.99
14.02
1.14
-12.09
-24.13
-34.00
-41.61
-47.70
-53.49
-60.27
-69.05
-80.25
-93.41
-106.92
-117.95
-122.75
-117.58
-99.88
-69.53
-29.14
16.41
61.47
101.14
132.49
154.74
168.73
175.93
177.80
175.52
170.19
163.17
155.93
149.66
144.59
139.62
132.76
122.07
106.77
87.76
67.26
47.65
30.14
14.06
-2.80
-23.07
-48.24
-77.67
-108.59
-137.11
-159.82
-175.01
-183.17
-186.61
-188.36
-191.23
-197.17
-207.13
-220.97
-237.36
-253.37
-264.52
-265.50
-251.80
-221.60
-176.89
-123.27
-68.22
-18.67
20.82
48.74
66.09
75.05
77.86
76.37
72.13
66.68
61.71
58.72
58.64
61.51
66.43
72.07
77.14
80.92
83.28
84.41
84.33
82.58
78.23
70.42
58.91
44.45
28.79
14.07
2.17
-6.01
-10.74
-13.44
-16.19
-21.02
-29.16
-40.36
-52.64
-62.57
-66.25
-60.64
-44.79
-20.33
8.83
37.88
62.58
80.37
90.77
94.81
94.16
90.29
84.16
76.35
67.45
58.30
50.02
43.65
39.87
38.62
39.24
40.63
41.71
41.62
39.93
36.60
31.82
25.85
18.87
11.02
2.35
-7.20
-17.78
-29.70
-43.46
-59.58
-78.26
-98.82
-119.28
-136.33
-145.96
-144.60
-130.31
-103.72
-68.01
-28.13
10.54
43.61
68.48
84.46
92.29
93.50
89.71
82.43
73.06
62.97
53.53
45.90
40.80
38.26
37.64
37.80
37.53
35.84
32.18
26.42
18.73
9.44
-1.07
-12.41
-24.25
-36.34
-48.61
-61.31
-74.95
-90.09
-106.90
-124.57
-141.02
-153.05
-157.07
-150.23
-131.52
-102.28
-66.01
-27.44
8.74
38.95
61.30
75.51
82.46
83.50
80.09
73.51
64.95
55.66
46.98
40.28
36.57
36.26
38.86
43.17
47.61
50.65
51.30
49.17
44.50
37.89
30.02
21.54
12.83
4.04
-5.02
-14.85
-26.21
-39.80
-55.85
-73.50
-90.46
-103.30
-108.20
-102.26
-84.59
-56.93
-23.26
11.32
42.03
65.72
81.19
88.96
90.38
86.90
79.62
69.42
57.22
44.22
31.93
21.77
14.77
11.14
10.32
11.21
12.49
13.07
12.29
9.94
6.12
1.09
-4.94
-11.88
-19.72
-28.49
-38.25
-49.19
-61.63
-75.74
-91.10
-106.19
-118.24
-123.74
-119.54
-104.13
-78.49
-46.06
-11.70
19.79
45.03
62.63
72.92
77.11
76.50
72.08
64.60
55.03
44.77
35.54
29.00
26.09
26.64
29.38
32.47
34.10
33.25
29.80
24.48
18.29
12.06
5.97
-0.40
-7.89
-17.48
-29.90
-45.44
-63.63
-83.09
-101.44
-115.50
-121.92
-118.05
-102.99
-78.07
-46.76
-13.68
16.65
41.03
58.09
68.15
72.39
72.09
68.16
61.26
52.18
42.22
33.13
26.71
24.10
25.28
28.98
33.16
35.68
35.12
31.08
24.17
15.49
6.11
-3.37
-12.94
-23.07
-34.36
-47.32
-62.19
-78.80
-96.32
-113.05
-126.34
-132.94
-129.85
-115.39
-90.10
-56.89
-20.34
14.69
44.38
66.73
81.60
89.95
93.01
91.74
86.75
78.67
68.55
57.93
48.54
41.83
38.38
37.70
38.41
38.83
37.49
33.66
27.48
19.72
11.34
3.08
-4.85
-12.80
-21.53
-31.91
-44.65
-60.08
-77.90
-96.89
-114.79
-128.37
-134.05
-128.94
-111.85
-84.02
-48.96
-11.53
23.50
52.63
74.22
88.27
95.78
97.93
95.76
90.15
82.08
72.78
63.72
56.28
51.43
49.39
49.58
50.82
51.73
51.13
48.36
43.40
36.69
28.90
20.58
11.98
2.99
-6.76
-17.72
-30.35
-44.92
-61.41
-79.07
-96.21
-110.05
-117.18
-114.47
-100.24
-75.16
-42.27
-6.29
27.87
56.37
77.29
90.50
96.98
98.05
94.81
88.18
79.09
68.79
58.78
50.55
45.15
42.85
43.17
44.99
46.98
47.92
46.94
43.57
37.80
29.97
20.65
10.46
-0.04
-10.48
-20.77
-31.14
-42.13
-54.49
-68.71
-84.61
-100.73
-114.26
-121.50
-118.92
-104.49
-78.67
-44.60
-7.16
28.31
57.60
78.44
90.59
95.19
93.92
88.39
79.94
69.77
59.11
49.31
41.61
36.87
35.20
36.02
38.15
40.20
40.97
39.65
35.91
29.83
21.83
12.44
2.24
-8.21
-18.54
-28.58
-38.51
-48.81
-60.25
-73.50
-88.65
-104.66
-119.12
-128.52
-129.19
-118.53
-96.13
-64.15
-26.89
10.44
43.15
68.08
84.04
91.44
91.70
86.55
77.72
66.83
55.39
44.82
36.32
30.66
28.10
28.29
30.41
33.37
35.97
37.13
36.01
32.15
25.50
16.49
5.85
-5.51
-16.76
-27.43
-37.44
-47.20
-57.52
-69.34
-83.38
-99.60
-116.67
-131.83
-141.27
-141.17
-128.96
-104.44
-70.14
-30.73
8.30
42.16
67.80
84.32
92.52
94.18
91.23
85.35
77.82
69.67
61.78
54.94
49.74
46.45
44.97
44.85
45.44
46.04
45.99
44.70
41.64
36.43
28.86
19.11
7.70
-4.61
-17.01
-28.94
-40.25
-51.30
-62.86
-75.89
-91.07
-108.23
-125.82
-140.85
-149.35
-147.51
-133.00
-106.05
-69.63
-28.76
11.01
45.10
70.90
87.88
97.05
100.04
98.43
93.52
86.39
78.18
70.07
63.17
58.23
55.43
54.38
54.37
54.73
54.99
54.88
54.16
52.39
48.83
42.71
33.58
21.64
7.85
-6.32
-19.48
-30.80
-40.42
-49.37
-59.16
-71.18
-86.11
-103.24
-120.36
-133.88
-139.72
-134.42
-116.49
-87.12
-50.04
-10.53
26.14
56.13
77.71
91.00
97.25
97.94
94.33
87.50
78.54
68.81
59.69
52.35
47.32
44.42
42.92
42.00
41.12
40.13
39.11
37.99
36.29
33.10
27.42
18.66
7.04
-6.40
-20.07
-32.51
-42.87
-51.35
-59.00
-67.46
-78.22
-92.02
-108.21
-124.62
-137.76
-143.64
-138.83
-121.78
-93.42
-57.17
-18.05
18.71
49.02
70.72
83.62
88.99
88.61
84.20
77.17
68.65
59.77
51.64
45.26
41.22
39.49
39.43
40.11
40.65
40.46
39.31
37.10
33.70
28.81
22.07
13.27
2.71
-8.91
-20.56
-31.38
-41.00
-49.76
-58.60
-68.67
-80.83
-95.03
-109.96
-123.05
-130.90
-130.16
-118.62
-96.05
-64.60
-28.33
7.79
39.25
63.02
77.98
84.69
84.73
79.99
72.15
62.64
52.69
43.39
35.76
30.54
28.00
27.90
29.53
31.91
34.12
35.37
35.07
32.88
28.51
21.91
13.24
2.99
-8.06
-19.02
-29.10
-37.93
-45.68
-53.16
-61.59
-72.08
-85.04
-99.57
-113.12
-121.96
-122.16
-110.97
-88.09
-55.98
-19.32
16.39
46.47
68.12
80.73
85.28
83.54
77.29
68.05
57.11
45.74
35.29
26.94
21.55
19.36
19.92
22.29
25.33
27.94
29.29
28.87
26.44
22.02
15.82
8.24
-0.16
-8.77
-17.18
-25.30
-33.42
-42.20
-52.37
-64.47
-78.40
-93.02
-106.07
-114.35
-114.52
-104.11
-82.62
-52.00
-16.35
19.17
49.82
72.46
86.05
91.34
90.01
83.99
74.90
64.14
52.90
42.33
33.46
26.99
23.13
21.60
21.73
22.66
23.56
23.68
22.45
19.43
14.42
7.47
-1.05
-10.52
-20.20
-29.47
-38.04
-46.11
-54.30
-63.55
-74.74
-88.26
-103.56
-118.87
-131.19
-136.94
-132.96
-117.66
-91.87
-58.87
-23.55
9.03
35.07
52.83
62.60
65.93
64.67
60.35
53.97
46.25
38.04
30.28
24.01
19.90
18.13
18.31
19.72
21.54
23.02
23.56
22.65
19.96
15.28
8.71
0.62
-8.36
-17.55
-26.45
-34.90
-43.19
-51.98
-62.12
-74.20
-88.04
-102.19
-113.93
-119.70
-116.21
-101.69
-76.79
-44.61
-9.94
22.25
48.20
66.18
76.34
80.06
79.02
74.57
67.71
59.23
50.02
41.19
33.85
28.91
26.71
27.00
28.94
31.39
33.13
33.19
31.05
26.67
20.49
13.16
5.36
-2.55
-10.49
-18.71
-27.67
-37.89
-49.86
-63.67
-78.67
-93.11
-104.17
-108.50
-103.35
-87.58
-62.40
-31.21
1.37
30.85
54.07
69.59
77.56
78.97
75.02
66.81
55.38
41.93
27.87
14.72
3.68
-4.65
-10.46
-14.63
-18.39
-22.90
-28.96
-36.94
-46.73
-57.97
-70.17
-82.76
-95.25
-107.36
-119.15
-130.92
-143.18
-156.35
-170.49
-184.98
-198.50
-209.14
-214.78
-213.76
-205.44
-190.52
-170.80
-148.60
-125.92
-103.86
-82.42
-60.75
-37.49
-11.11
19.90
56.60
98.92
144.99
190.97
231.75
262.51
280.40
285.58
280.99
270.94
259.24
247.99
237.39
226.49
214.11
199.53
182.68
164.06
144.52
124.93
106.30
89.70
75.94
65.25
56.99
49.70
41.66
31.46
18.42
3.69
-9.32
-15.53
-10.06
9.48
41.44
80.17
117.78
145.98
159.64
158.57
147.00
130.83
114.83
101.29
90.35
81.10
71.14
58.54
42.89
25.31
7.42
-9.77
-26.09
-42.06
-58.58
-78.68
-104.98
-137.82
-174.68
-211.70
-245.75
-275.23
-299.72
-306.98
-287.77
-242.24
-180.86
-116.43
-57.04
-6.02
35.79
68.78
94.25
112.12
122.48
126.85
128.05
128.98
130.70
133.07
134.03
131.82
123.89
108.56
86.03
58.42
28.73
0.96
-23.35
-43.88
-60.87
-75.60
-89.04
-100.98
-110.09
-114.44
-113.64
-109.32
-103.40
-97.71
-93.94
-92.66
-92.87
-95.15
-95.38
-91.45
-84.08
-74.81
-65.61
-58.68
-56.00
-59.11
-68.57
-83.16
-96.39
-104.86
-104.02
-90.74
-65.75
-34.26
-4.05
17.94
28.70
29.19
22.72
13.72
4.92
-3.20
-11.46
-20.41
-29.24
-36.02
-39.32
-39.27
-36.67
-33.53
-30.84
-28.87
-27.11
-24.41
-19.69
-12.74
-4.74
2.96
8.67
11.19
10.02
5.57
-1.11
-8.84
-16.87
-25.21
-33.83
-43.04
-52.98
-63.59
-74.47
-84.98
-94.64
-103.23
-111.05
-118.08
-124.51
-130.43
-135.78
-140.19
-143.00
-143.35
-140.01
-134.95
-128.84
-122.15
-115.21
-108.21
-101.27
-94.45
-87.88
-81.79
-76.59
-72.23
-68.79
-66.28
-64.56
-63.32
-62.17
-60.73
-58.78
-56.34
-53.22
-49.36
-44.66
-38.83
-31.43
-22.04
-10.43
3.18
18.02
33.24
47.89
61.27
73.32
84.49
95.64
107.54
120.49
134.16
147.85
160.68
172.09
182.16
191.61
201.69
213.88
229.48
249.13
272.24
296.57
318.33
333.07
337.02
328.45
308.33
279.88
247.27
214.01
181.95
151.20
120.89
90.27
59.51
30.02
4.18
-15.27
-26.01
-26.81
-18.10
-1.99
18.16
38.77
56.99
71.28
81.42
87.86
91.02
90.93
87.41
80.49
70.94
60.32
50.52
43.20
39.08
37.79
38.05
38.24
37.05
33.86
28.85
22.66
16.01
9.19
1.96
-6.35
-16.53
-29.12
-44.32
-61.97
-81.57
-102.09
-121.74
-137.83
-146.96
-145.94
-132.94
-108.42
-75.49
-39.13
-4.78
23.31
42.97
54.27
58.81
58.69
55.71
51.08
45.62
40.12
35.51
32.64
32.06
33.59
36.31
38.87
39.75
37.69
31.79
21.53
6.82
-11.78
-32.82
-54.06
-72.83
-86.85
-95.00
-97.70
-96.71
-94.31
-92.38
-91.73
-91.76
-90.81
-86.75
-77.68
-62.64
-41.99
-17.34
8.80
33.70
55.07
71.47
82.36
87.89
88.56
85.05
78.13
68.87
58.55
48.66
40.58
35.22
32.83
32.84
34.07
35.14
34.88
32.70
28.75
23.60
17.98
12.37
6.85
1.10
-5.34
-12.92
-21.91
-32.44
-44.37
-57.11
-69.34
-78.98
-83.50
-80.61
-69.19
-49.92
-25.31
1.01
25.35
45.02
58.82
66.89
70.10
69.39
65.50
58.95
50.45
41.07
32.25
25.37
21.26
19.92
20.50
21.65
22.06
20.87
17.93
13.66
8.73
3.72
-1.11
-5.91
-11.04
-17.02
-24.33
-33.35
-44.15
-56.34
-68.75
-79.37
-85.66
-85.19
-76.53
-59.91
-37.38
-12.28
11.78
31.93
46.64
55.72
59.89
60.13
57.24
51.78
44.31
35.69
27.07
19.81
14.97
13.00
13.51
15.38
17.17
17.62
16.03
12.38
7.16
1.09
-5.25
-11.55
-17.87
-24.48
-31.75
-40.04
-49.63
-60.53
-72.29
-83.75
-92.94
-97.39
-94.73
-83.66
-64.55
-39.62
-12.40
13.33
34.57
49.80
58.95
62.98
63.07
60.20
55.03
48.10
40.15
32.15
25.24
20.27
17.56
16.74
16.91
16.95
15.94
13.41
9.40
4.34
-1.24
-6.90
-12.48
-18.09
-23.99
-30.45
-37.69
-45.92
-55.38
-66.09
-77.58
-88.55
-96.78
-99.55
-94.56
-80.84
-59.38
-33.00
-5.52
19.33
39.05
52.69
60.68
64.13
64.21
61.75
57.32
51.35
44.47
37.49
31.31
26.68
23.90
22.83
22.85
23.12
22.82
21.33
18.31
13.83
8.16
1.72
-5.10
-12.07
-19.14
-26.49
-34.33
-43.05
-53.04
-64.47
-76.99
-89.34
-99.26
-103.89
-100.61
-88.01
-66.78
-39.61
-10.50
16.45
38.22
53.49
62.52
66.54
66.98
64.92
61.03
55.71
49.40
42.79
36.65
31.73
28.46
26.87
26.57
26.90
27.13
26.59
24.76
21.37
16.35
9.84
2.23
-6.04
-14.46
-22.65
-30.46
-38.02
-45.83
-54.60
-64.89
-76.60
-88.55
-98.32
-102.78
-99.11
-85.90
-63.96
-36.24
-7.02
19.47
40.29
54.29
61.98
64.72
63.93
60.63
55.41
48.72
41.22
33.83
27.61
23.40
21.49
21.60
22.98
24.68
25.80
25.65
23.82
20.16
14.74
7.88
0.06
-8.13
-16.17
-23.75
-30.88
-37.93
-45.52
-54.36
-64.79
-76.42
-87.72
-96.13
-98.64
-92.75
-77.53
-54.18
-25.91
3.06
28.67
48.21
60.70
66.64
67.32
64.15
58.21
50.38
41.54
32.70
25.03
19.57
16.83
16.68
18.31
20.51
22.05
22.07
20.16
16.43
11.31
5.28
-1.24
-8.00
-14.92
-22.00
-29.27
-36.92
-45.28
-54.78
-65.67
-77.50
-88.75
-96.90
-98.91
-92.32
-76.36
-52.45
-23.98
4.74
29.78
48.66
60.62
66.34
67.10
64.13
58.37
50.55
41.51
32.33
24.25
18.40
15.42
15.23
17.10
19.83
22.15
23.01
21.80
18.43
13.22
6.74
-0.41
-7.77
-15.12
-22.47
-30.02
-38.13
-47.31
-57.98
-70.16
-83.02
-94.59
-102.00
-102.18
-93.00
-74.21
-47.82
-17.64
11.86
36.87
55.15
66.22
70.97
70.85
67.23
61.15
53.34
44.57
35.77
28.05
22.41
19.46
19.14
20.68
22.89
24.48
24.49
22.40
18.28
12.53
5.75
-1.56
-9.06
-16.63
-24.31
-32.26
-40.85
-50.53
-61.70
-74.30
-87.31
-98.58
-105.02
-103.59
-92.34
-71.43
-43.33
-12.18
17.48
42.06
59.65
70.19
74.79
74.99
72.12
67.10
60.55
53.07
45.41
38.41
32.89
29.37
27.89
28.02
28.89
29.46
28.75
26.18
21.60
15.33
7.91
-0.09
-8.32
-16.63
-25.08
-33.81
-43.04
-53.17
-64.58
-77.46
-91.19
-103.96
-112.86
-114.56
-106.51
-88.08
-61.11
-29.42
2.27
29.83
50.74
64.35
71.47
73.58
72.15
68.27
62.75
56.24
49.42
43.03
37.76
34.06
32.09
31.66
32.27
33.23
33.79
33.25
31.13
27.20
21.54
14.42
6.28
-2.43
-11.38
-20.34
-29.31
-38.52
-48.50
-59.80
-72.60
-86.21
-98.75
-107.28
-108.62
-100.44
-82.28
-55.96
-25.17
5.63
32.57
53.19
66.81
74.09
76.34
74.92
70.92
65.18
58.51
51.76
45.77
41.20
38.31
36.92
36.53
36.53
36.35
35.59
33.95
31.16
26.97
21.15
13.67
4.80
-4.88
-14.62
-23.79
-32.04
-39.62
-47.28
-56.10
-66.97
-79.99
-93.98
-106.32
-113.51
-112.17
-100.35
-78.36
-48.90
-16.30
14.80
40.69
59.49
71.06
76.43
77.02
74.07
68.49
61.07
52.79
44.76
38.11
33.61
31.42
31.05
31.62
32.33
32.60
32.23
31.16
29.22
26.03
21.13
14.30
5.75
-3.80
-13.36
-22.08
-29.63
-36.35
-43.12
-51.12
-61.26
-73.82
-87.92
-101.41
-111.12
-113.68
-106.55
-89.08
-62.99
-31.94
-0.48
27.29
48.72
62.94
70.50
72.61
70.54
65.37
58.06
49.67
41.39
34.36
29.38
26.70
25.93
26.37
27.27
28.05
28.37
27.97
26.54
23.67
18.96
12.33
4.02
-5.29
-14.81
-23.85
-32.14
-39.83
-47.48
-55.88
-65.74
-77.35
-90.21
-102.64
-111.96
-115.00
-109.05
-92.97
-67.79
-36.68
-4.05
25.67
49.27
65.30
73.92
76.34
74.10
68.56
60.79
51.71
42.32
33.70
26.92
22.78
21.53
22.75
25.44
28.31
30.15
30.08
27.77
23.33
17.20
9.96
2.09
-6.02
-14.16
-22.25
-30.35
-38.74
-47.96
-58.56
-70.82
-84.19
-96.84
-105.79
-107.58
-99.48
-80.65
-52.82
-19.92
13.04
41.52
62.62
75.50
80.97
80.67
76.27
69.07
60.11
50.34
40.80
32.57
26.51
22.97
21.75
22.21
23.45
24.57
24.81
23.57
20.48
15.42
8.50
0.11
-9.15
-18.66
-27.88
-36.59
-44.94
-53.52
-63.20
-74.82
-88.69
-103.91
-118.12
-127.75
-128.92
-118.80
-96.90
-65.46
-29.03
6.93
37.69
60.37
74.35
80.65
81.14
77.54
71.16
62.95
53.78
44.67
36.73
30.94
27.78
27.16
28.40
30.50
32.41
33.23
32.32
29.31
24.19
17.17
8.74
-0.47
-9.88
-19.09
-28.06
-37.10
-46.95
-58.41
-72.09
-87.71
-103.73
-117.21
-124.32
-121.55
-106.98
-81.29
-47.76
-11.40
22.64
50.45
70.15
81.84
86.78
86.60
82.63
75.90
67.28
57.78
48.63
41.07
36.04
33.87
34.14
35.85
37.72
38.57
37.60
34.51
29.47
22.93
15.41
7.35
-0.96
-9.45
-18.23
-27.56
-37.91
-49.72
-63.29
-78.22
-93.02
-105.01
-110.82
-107.32
-92.96
-68.50
-37.14
-3.56
27.48
52.43
69.69
79.41
82.81
81.37
76.33
68.61
59.12
49.01
39.66
32.47
28.46
27.88
30.01
33.45
36.46
37.58
36.07
32.03
26.19
19.55
12.87
6.32
-0.40
-7.93
-16.89
-27.70
-40.47
-54.96
-70.29
-84.74
-95.65
-99.83
-94.43
-78.14
-52.00
-19.41
14.70
45.44
69.32
84.96
92.85
94.52
91.58
85.20
76.17
65.20
53.36
42.05
32.75
26.56
23.76
23.72
25.07
26.18
25.61
22.53
16.84
8.98
-0.24
-10.10
-20.08
-29.94
-39.63
-49.28
-59.09
-69.49
-81.11
-94.35
-108.95
-123.33
-134.44
-138.40
-131.71
-112.68
-82.45
-44.91
-5.50
30.36
58.87
78.53
89.87
94.50
94.11
89.94
82.68
72.99
61.81
50.55
40.84
33.99
30.54
30.08
31.38
32.87
33.19
31.54
27.85
22.58
16.37
9.72
2.83
-4.40
-12.23
-21.01
-31.07
-42.72
-56.15
-71.13
-86.54
-100.16
-108.82
-109.22
-99.10
-78.27
-48.98
-15.42
17.52
45.70
66.70
79.99
86.42
87.36
84.08
77.52
68.51
58.10
47.71
38.94
33.13
30.90
31.84
34.60
37.37
38.40
36.66
32.00
25.15
17.21
9.22
1.62
-5.78
-13.64
-22.85
-34.12
-47.78
-63.58
-80.51
-96.56
-108.83
-113.96
-109.11
-93.02
-66.82
-33.95
0.73
32.37
57.46
74.49
83.78
86.68
84.82
79.48
71.57
61.93
51.54
41.61
33.39
27.84
25.30
25.39
27.09
29.00
29.76
28.44
24.73
18.92
11.66
3.66
-4.58
-12.97
-21.70
-31.12
-41.65
-53.69
-67.60
-83.46
-100.67
-117.41
-130.61
-136.38
-131.35
-114.02
-85.65
-50.19
-13.08
20.43
46.70
64.43
74.34
78.22
77.96
74.96
70.09
63.90
57.00
50.16
44.23
39.93
37.61
37.13
37.89
39.01
39.58
38.84
36.42
32.27
26.59
19.70
11.94
3.59
-5.12
-14.05
-23.24
-32.91
-43.62
-55.94
-70.00
-84.88
-98.30
-106.93
-107.30
-97.14
-76.38
-47.54
-14.98
16.38
42.55
61.40
72.72
77.71
78.00
75.01
69.59
62.31
53.76
44.83
36.69
30.50
26.96
26.01
26.84
28.12
28.53
27.10
23.50
17.95
11.05
3.50
-4.09
-11.32
-18.07
-24.43
-30.74
-37.58
-45.62
-55.38
-66.78
-78.69
-88.81
-94.01
-91.26
-78.79
-56.90
-28.15
3.29
32.93
57.19
74.17
83.73
86.91
85.24
80.16
72.88
64.42
55.71
47.73
41.25
36.77
34.32
33.53
33.82
34.49
34.87
34.38
32.47
28.75
22.98
15.26
5.97
-4.24
-14.63
-24.56
-33.67
-42.02
-50.17
-59.07
-69.79
-82.93
-97.90
-112.53
-123.24
-126.09
-118.14
-98.82
-70.30
-36.92
-3.79
24.87
46.70
61.34
69.74
73.30
73.17
70.11
64.74
57.84
50.47
43.75
38.53
35.11
33.26
32.41
31.96
31.53
30.89
29.88
28.15
25.16
20.38
13.55
4.89
-4.90
-14.87
-24.20
-32.46
-39.84
-47.02
-55.01
-64.70
-76.41
-89.42
-101.70
-110.20
-111.57
-103.39
-85.15
-58.71
-27.89
2.75
29.22
49.16
62.01
68.63
70.47
68.95
65.11
59.65
53.18
46.34
39.89
34.55
30.85
28.98
28.78
29.70
30.99
31.80
31.41
29.35
25.50
20.05
13.49
6.37
-0.78
-7.61
-14.11
-20.55
-27.52
-35.80
-46.03
-58.30
-71.64
-83.86
-91.85
-92.47
-83.66
-65.41
-39.99
-11.42
15.81
37.99
53.08
60.89
62.59
59.93
54.62
47.97
40.92
34.25
28.67
24.88
23.39
24.39
27.53
32.05
36.90
41.01
43.51
43.75
41.37
36.22
28.38
18.17
6.13
-6.99
-20.44
-33.63
-46.33
-58.72
-71.45
-85.36
-101.04
-118.16
-134.94
-148.12
-153.70
-148.31
-130.67
-102.48
-68.07
-33.10
-2.60
20.45
35.50
43.87
47.58
48.32
47.04
44.23
40.36
36.16
32.57
30.42
30.04
31.24
33.37
35.71
37.63
38.79
38.96
37.95
35.50
31.35
25.40
17.85
9.21
0.19
-8.56
-16.71
-24.49
-32.69
-42.40
-54.52
-69.06
-84.67
-98.48
-106.78
-106.10
-94.61
-72.92
-44.17
-13.01
15.71
38.44
53.54
61.25
62.99
60.50
55.23
48.24
40.28
32.10
24.50
18.31
14.12
12.11
12.06
13.33
15.18
16.91
17.91
17.71
15.96
12.41
7.08
0.27
-7.48
-15.49
-23.23
-30.55
-37.71
-45.30
-54.11
-64.67
-76.79
-89.14
-99.19
-103.64
-99.43
-84.90
-60.67
-29.77
3.22
33.46
57.30
73.08
81.00
82.43
79.06
72.28
63.08
52.29
40.84
29.87
20.53
13.74
9.85
8.61
9.26
10.79
12.22
12.74
11.85
9.41
5.53
0.55
-5.12
-11.19
-17.59
-24.49
-32.35
-41.78
-53.47
-67.90
-84.85
-103.00
-119.68
-131.14
-133.55
-124.37
-103.38
-73.07
-37.93
-3.05
27.27
50.55
66.16
74.84
77.95
76.89
72.91
67.05
60.24
53.33
47.03
41.83
37.98
35.43
33.88
32.73
31.24
28.59
24.16
17.61
9.04
-1.06
-11.91
-22.66
-32.65
-41.48
-49.14
-55.97
-62.66
-70.15
-79.31
-90.51
-103.01
-114.62
-121.92
-121.25
-109.99
-87.85
-57.26
-22.75
10.43
38.00
57.64
69.20
74.00
73.90
70.45
64.71
57.33
49.03
40.80
33.86
29.34
27.95
29.64
33.62
38.58
43.07
45.84
46.19
43.86
39.06
32.19
23.71
13.98
3.27
-8.26
-20.56
-33.75
-48.13
-64.04
-81.47
-99.50
-115.84
-126.99
-129.12
-119.37
-97.15
-64.72
-26.73
11.18
44.02
68.81
84.79
92.97
95.09
92.76
87.09
78.84
68.78
58.02
47.98
40.08
35.26
33.69
34.72
37.13
39.49
40.60
39.66
36.43
31.12
24.23
16.39
8.12
-0.27
-8.72
-17.49
-27.07
-38.24
-51.82
-68.36
-87.46
-107.20
-124.05
-133.53
-131.58
-116.15
-88.27
-51.94
-12.90
23.18
52.29
72.85
85.34
91.40
92.82
90.93
86.61
80.56
73.59
66.72
60.94
57.03
55.25
55.29
56.40
57.54
57.69
55.95
51.72
44.76
35.24
23.65
10.74
-2.67
-15.81
-28.14
-39.50
-50.11
-60.70
-72.19
-85.27
-99.73
-113.87
-124.52
-127.70
-119.99
-99.94
-68.92
-30.96
8.38
43.74
71.38
89.84
99.71
102.68
100.66
95.13
87.13
77.51
67.24
57.52
49.58
44.31
41.99
42.20
43.96
46.07
47.40
47.10
44.69
40.10
33.58
25.68
17.05
8.29
-0.25
-8.52
-16.87
-25.96
-36.64
-49.66
-65.13
-82.07
-98.02
-109.36
-112.17
-103.56
-82.92
-52.42
-16.54
19.27
50.14
73.03
87.13
93.35
93.48
89.35
82.38
73.64
64.11
54.82
46.84
41.03
37.76
36.81
37.49
38.88
40.11
40.57
39.81
37.51
33.39
27.30
19.28
9.72
-0.70
-11.20
-21.17
-30.45
-39.49
-49.22
-60.81
-75.07
-91.91
-109.74
-125.47
-135.05
-134.61
-121.87
-97.10
-63.40
-25.82
10.14
40.09
61.73
74.88
80.81
81.26
77.84
71.76
64.09
55.94
48.53
42.90
39.65
38.70
39.41
40.91
42.41
43.44
43.82
43.44
42.01
39.00
33.84
26.17
16.16
4.59
-7.42
-18.77
-28.81
-37.63
-46.01
-55.14
-66.15
-79.49
-94.34
-108.43
-118.29
-120.19
-111.42
-91.43
-62.23
-27.99
6.23
36.07
58.90
74.11
82.64
86.04
85.71
82.66
77.57
71.19
64.49
58.52
54.14
51.63
50.65
50.50
50.41
49.92
48.87
47.24
44.85
41.22
35.68
27.72
17.30
5.01
-8.07
-20.68
-31.88
-41.32
-49.35
-56.84
-64.97
-74.74
-86.44
-99.18
-110.64
-117.50
-116.31
-104.75
-82.68
-52.53
-18.68
13.85
40.88
60.16
71.51
76.29
76.34
73.24
67.96
61.00
52.84
44.24
36.26
29.99
26.19
25.00
25.86
27.72
29.42
30.01
28.96
26.13
21.75
16.17
9.75
2.77
-4.60
-12.31
-20.28
-28.56
-37.29
-46.84
-57.59
-69.52
-81.71
-92.00
-97.29
-94.43
-81.50
-58.84
-29.28
2.62
31.95
54.99
70.01
77.26
78.23
74.72
68.15
59.43
49.28
38.54
28.38
20.10
14.78
12.80
13.74
16.42
19.28
20.94
20.42
17.43
12.19
5.26
-2.74
-11.23
-19.78
-28.14
-36.26
-44.32
-52.81
-62.44
-73.95
-87.47
-101.99
-115.00
-122.86
-121.81
-109.47
-85.97
-54.26
-19.36
13.32
39.54
57.31
66.88
69.85
68.16
63.32
56.21
47.42
37.64
27.90
19.35
12.99
9.30
8.08
8.67
10.18
11.76
12.73
12.66
11.20
8.17
3.55
-2.54
-9.74
-17.57
-25.59
-33.56
-41.56
-50.08
-59.88
-71.48
-84.66
-97.85
-108.18
-112.09
-106.54
-90.31
-64.74
-33.52
-1.54
26.62
48.03
61.83
68.85
70.66
68.72
63.95
56.88
48.09
38.52
29.48
22.36
18.09
16.81
17.82
19.89
21.61
21.94
20.32
16.81
11.85
6.07
0.04
-5.97
-11.89
-18.04
-24.93
-33.18
-43.29
-55.32
-68.46
-80.83
-89.65
-91.86
-85.17
-68.97
-44.92
-16.57
11.69
35.92
53.71
64.52
69.23
69.30
66.05
60.33
52.67
43.71
34.42
26.13
20.15
17.33
17.76
20.64
24.51
27.66
28.67
26.71
21.80
14.65
6.43
-1.75
-9.16
-15.66
-21.78
-28.52
-37.06
-48.24
-62.08
-77.19
-90.73
-98.82
-97.71
-85.11
-61.33
-29.53
4.95
36.06
58.60
69.27
67.20
53.77
32.01
5.61
-22.15
-49.32
-75.29
-100.04
-122.95
-142.03
-154.21
-156.82
-149.26
-133.91
-115.44
-98.86
-87.50
-81.88
-80.30
-80.41
-80.78
-81.48
-83.58
-88.19
-95.70
-105.68
-117.29
-129.61
-141.68
-152.38
-160.16
-163.25
-160.16
-150.36
-134.79
-115.59
-95.56
-77.21
-62.13
-50.77
-42.73
-37.26
-33.67
-31.55
-30.58
-30.30
-30.01
-28.85
-26.13
-21.59
-15.65
-9.36
-4.12
-1.13
-0.96
-3.23
-6.72
-9.74
-10.68
-8.62
-3.67
3.23
10.73
17.65
23.25
27.32
29.96
31.58
32.90
35.13
39.97
49.18
63.95
84.14
108.12
133.13
156.11
174.67
187.56
194.68
196.60
194.07
187.84
178.68
167.62
156.02
145.42
137.14
131.84
129.28
128.24
127.06
124.19
118.77
110.86
101.44
91.97
83.82
77.87
74.22
72.15
70.17
66.30
58.48
45.38
27.16
5.97
-14.21
-28.71
-33.71
-27.58
-11.49
11.21
36.38
60.53
81.71
99.56
114.42
126.25
133.96
135.44
128.25
110.95
83.99
49.93
12.90
-22.69
-53.07
-75.63
-88.71
-91.22
-82.71
-63.82
-36.74
-5.23
26.34
54.22
76.40
92.45
103.00
108.43
108.48
102.62
91.05
75.55
59.33
45.97
37.94
35.87
38.74
44.73
52.28
60.67
69.71
79.14
88.12
95.18
98.82
98.27
93.97
87.44
80.68
75.43
72.56
72.02
73.16
74.97
76.47
76.77
75.27
71.30
64.39
53.99
39.49
20.34
-4.14
-34.39
-70.45
-111.49
-155.60
-199.84
-240.53
-273.72
-295.76
-303.83
-296.44
-273.94
-238.69
-194.92
-147.89
-102.79
-63.52
-32.02
-8.36
8.59
20.19
27.43
30.83
30.84
28.31
24.58
21.24
19.44
19.55
20.95
22.32
22.29
19.95
15.24
8.80
1.54
-5.90
-13.50
-21.86
-31.87
-44.33
-59.68
-77.76
-97.79
-118.23
-136.75
-150.38
-156.13
-151.80
-136.88
-113.06
-83.84
-53.63
-26.39
-4.61
11.06
21.43
27.94
31.99
34.50
36.05
37.18
38.69
41.66
47.21
56.23
69.00
85.12
103.66
123.38
143.15
162.31
180.78
198.84
216.69
233.93
249.21
260.32
264.78
260.63
247.01
224.48
194.65
159.78
122.30
84.55
48.58
16.07
-11.91
-35.11
-54.12
-70.19
-84.71
-98.74
-112.68
-126.38
-139.38
-151.19
-161.48
-169.95
-176.25
-179.87
-180.50
-178.29
-174.00
-168.97
-164.65
-162.03
-161.27
-161.75
-162.39
-162.29
-161.07
-158.86
-156.25
-153.99
-152.92
-153.80
-156.99
-161.85
-166.31
-166.85
-159.17
-139.71
-107.07
-62.86
-11.46
41.33
90.04
130.83
161.91
183.01
194.55
197.06
191.29
178.45
160.71
140.95
122.21
106.81
95.70
88.37
83.23
78.49
72.71
65.30
56.47
46.92
37.55
29.04
21.62
14.97
8.34
0.70
-8.96
-21.36
-36.51
-53.28
-69.22
-80.78
-84.27
-77.20
-59.40
-33.40
-3.69
24.78
48.36
65.52
76.83
83.83
87.88
89.46
88.26
83.84
76.35
66.80
56.83
48.11
41.66
37.59
35.16
33.10
30.21
25.77
19.78
12.79
5.63
-1.05
-7.03
-12.64
-18.51
-25.37
-33.75
-43.91
-55.77
-68.76
-81.60
-92.11
-97.48
-94.97
-82.90
-61.52
-33.28
-2.13
27.66
52.78
71.57
84.00
90.88
93.12
91.27
85.67
76.81
65.73
54.01
43.43
35.47
30.76
28.93
28.68
28.28
26.16
21.40
13.98
4.59
-5.79
-16.36
-26.84
-37.53
-49.06
-62.11
-77.03
-93.59
-110.87
-127.06
-139.59
-145.46
-142.00
-127.78
-103.38
-71.50
-36.39
-2.68
25.90
47.28
61.17
68.51
70.70
68.92
63.99
56.52
47.26
37.36
28.20
21.06
16.70
14.94
14.77
14.71
13.42
10.25
5.36
-0.49
-6.43
-11.96
-17.19
-22.80
-29.77
-39.01
-51.14
-66.09
-82.91
-99.56
-112.95
-119.52
-116.17
-101.35
-75.83
-42.68
-6.52
27.82
56.63
78.02
91.93
99.42
101.81
100.10
94.89
86.68
76.32
65.21
55.06
47.47
43.27
42.29
43.44
45.07
45.63
44.13
40.34
34.64
27.71
20.10
11.96
3.08
-7.07
-19.01
-33.10
-49.42
-67.60
-86.61
-104.57
-118.72
-125.87
-123.35
-110.06
-87.19
-58.20
-27.84
-0.73
19.93
32.87
38.55
38.22
33.03
23.67
10.45
-6.06
-24.68
-43.46
-60.18
-72.94
-80.75
-83.68
-82.57
-78.58
-72.56
-65.01
-56.13
-46.30
-36.35
-27.60
-21.57
-19.68
-23.05
-32.26
-47.29
-67.05
-88.94
-108.70
-120.84
-120.04
-102.81
-68.98
-22.11
31.43
84.33
130.35
165.66
189.08
201.23
203.51
197.33
184.03
165.12
142.69
119.41
97.95
80.44
68.04
60.95
59.05
62.44
71.54
86.59
106.82
129.66
150.91
165.89
171.01
165.14
149.81
128.29
103.92
78.76
53.21
26.91
0.08
-25.46
-46.44
-59.48
-62.70
-56.89
-45.32
-32.59
-22.94
-18.88
-20.91
-27.88
-37.97
-49.53
-61.42
-72.95
-83.68
-93.14
-100.80
-106.23
-109.20
-109.89
-108.98
-107.51
-106.66
-107.43
-110.26
-114.86
-120.26
-125.08
-128.12
-128.88
-127.86
-126.48
-126.62
-129.99
-137.52
-148.97
-162.75
-175.95
-184.78
-185.29
-174.44
-151.24
-117.27
-76.51
-34.19
4.83
37.32
62.11
79.55
90.43
95.21
94.04
87.23
76.00
62.70
50.37
41.64
37.83
38.54
41.84
45.35
47.18
46.64
44.32
41.59
39.72
39.23
39.67
39.77
38.02
33.05
24.11
11.23
-4.51
-20.82
-34.38
-41.35
-38.57
-24.79
-1.44
27.58
57.10
82.35
100.47
110.87
114.71
113.73
109.18
101.53
90.73
77.08
61.65
46.30
33.02
23.15
16.76
12.70
9.19
4.56
-1.98
-10.16
-18.98
-27.23
-34.11
-39.50
-43.99
-48.52
-54.18
-61.79
-71.75
-83.83
-96.91
-108.87
-116.83
-117.67
-108.94
-89.92
-62.10
-29.10
4.32
33.53
55.35
68.55
73.73
72.65
67.26
59.29
50.10
40.87
32.83
27.12
24.47
24.72
26.63
28.21
27.36
22.78
14.44
3.66
-7.54
-17.25
-24.52
-29.62
-33.82
-38.69
-45.44
-54.45
-65.11
-76.05
-85.37
-91.02
-91.21
-84.81
-71.79
-53.30
-31.53
-9.12
11.56
28.91
42.23
51.55
57.24
59.68
59.24
56.30
51.47
45.56
39.49
34.03
29.73
26.70
24.61
22.84
20.67
17.59
13.44
8.46
3.11
-2.23
-7.41
-12.63
-18.23
-24.60
-31.94
-40.24
-49.26
-58.38
-66.49
-71.96
-72.92
-67.78
-55.89
-38.04
-16.34
6.26
27.03
44.04
56.36
63.73
66.15
63.69
56.62
45.88
33.32
21.35
12.31
7.56
6.98
9.04
11.56
12.49
10.70
6.22
-0.05
-6.80
-13.01
-18.14
-22.38
-26.34
-30.79
-36.36
-43.41
-51.95
-61.52
-71.14
-79.15
-83.46
-82.03
-73.55
-58.10
-37.35
-14.16
8.26
27.34
41.72
51.24
56.57
58.55
57.79
54.68
49.54
42.97
35.90
29.46
24.61
21.84
20.97
21.10
21.06
19.68
16.38
11.23
4.89
-1.79
-8.10
-13.85
-19.37
-25.26
-32.16
-40.55
-50.68
-62.39
-75.09
-87.44
-97.36
-102.33
-100.04
-89.31
-70.73
-46.74
-20.88
3.27
23.18
37.79
47.36
52.85
55.14
54.75
51.89
46.83
40.33
33.59
28.02
24.68
23.84
24.86
26.47
27.27
26.29
23.35
18.94
13.93
9.07
4.64
0.40
-4.20
-9.77
-16.71
-25.25
-35.45
-47.04
-59.33
-70.86
-79.37
-82.22
-77.23
-63.55
-42.32
-16.49
10.02
33.57
51.81
64.04
70.96
73.91
74.12
72.40
69.08
64.43
58.83
52.91
47.48
43.21
40.44
39.04
38.46
37.89
36.60
34.02
29.95
24.53
18.14
11.17
3.94
-3.43
-10.98
-18.82
-27.11
-36.08
-45.98
-56.95
-68.70
-80.11
-89.05
-92.80
-88.82
-75.89
-54.80
-28.40
-0.74
24.29
44.07
57.80
66.09
70.22
71.35
70.21
67.21
62.80
57.67
52.66
48.54
45.71
44.09
43.26
42.67
41.78
40.20
37.65
33.92
28.94
22.72
15.41
7.28
-1.31
-10.00
-18.47
-26.60
-34.45
-42.41
-51.12
-61.12
-72.43
-84.00
-93.56
-98.05
-94.66
-81.99
-60.84
-34.23
-6.36
18.72
38.39
51.87
59.85
63.63
64.33
62.67
59.05
53.97
48.28
42.92
38.77
36.21
35.15
35.03
35.14
34.72
33.13
29.91
24.82
17.91
9.52
0.27
-9.18
-18.27
-26.72
-34.54
-42.04
-49.74
-58.24
-68.08
-79.39
-91.44
-102.46
-109.68
-110.12
-101.59
-83.74
-58.44
-29.36
-0.86
23.50
41.78
53.87
60.83
64.01
64.27
61.92
57.03
49.89
41.41
32.95
25.95
21.42
19.52
19.57
20.31
20.43
18.99
15.64
10.67
4.72
-1.54
-7.71
-13.69
-19.63
-25.77
-32.36
-39.66
-47.98
-57.64
-68.60
-80.08
-90.21
-96.20
-95.09
-84.84
-65.33
-38.75
-8.97
19.65
43.61
61.12
72.16
77.78
79.35
77.89
73.96
67.99
60.58
52.72
45.55
40.03
36.62
35.18
34.97
35.14
34.85
33.54
30.90
26.81
21.28
14.44
6.53
-2.05
-10.83
-19.34
-27.35
-34.99
-42.79
-51.63
-62.39
-75.31
-89.49
-102.67
-111.50
-112.61
-103.82
-85.14
-59.04
-29.60
-1.27
22.56
40.25
51.80
58.18
60.47
59.39
55.37
48.82
40.55
31.75
23.70
17.26
12.61
9.13
5.70
1.16
-5.27
-13.81
-24.12
-35.62
-47.71
-60.05
-72.60
-85.62
-99.57
-115.05
-132.58
-152.48
-174.62
-198.32
-222.16
-244.02
-261.18
-270.67
-269.82
-256.82
-231.20
-193.89
-146.83
-92.42
-33.07
28.93
91.25
151.18
205.62
251.51
286.41
309.12
319.95
320.45
312.89
299.65
282.77
263.86
244.03
223.98
204.15
184.83
166.30
148.90
133.00
118.66
105.56
92.76
78.91
62.53
42.54
18.59
-8.66
-37.78
-66.92
-94.37
-119.07
-140.87
-160.46
-178.96
-197.19
-214.86
-230.21
-240.08
-240.78
-229.23
-204.19
-166.87
-120.81
-70.93
-22.22
21.43
57.72
85.85
105.86
118.14
123.17
121.81
115.56
106.75
98.16
92.25
90.45
92.73
97.71
103.20
106.95
107.25
103.33
95.48
84.88
73.25
62.26
53.00
45.60
39.18
32.27
23.28
11.16
-4.28
-22.10
-40.07
-54.71
-61.64
-56.60
-36.93
-3.17
40.38
86.36
126.53
154.31
166.66
164.38
150.79
129.76
104.06
74.99
43.09
9.32
-24.17
-54.26
-77.80
-92.77
-98.85
-97.39
-90.74
-81.45
-71.54
-62.30
-54.28
-47.73
-42.88
-40.16
-40.23
-43.67
-50.76
-61.38
-75.07
-91.13
-108.55
-125.64
-139.79
-147.38
-144.44
-127.97
-97.28
-54.86
-6.11
42.09
83.34
113.41
130.95
137.05
134.12
124.82
111.40
95.83
80.05
66.16
56.10
51.03
50.73
53.39
56.22
56.29
51.62
41.73
27.55
10.79
-6.88
-24.51
-42.03
-59.88
-78.61
-98.54
-119.71
-142.01
-165.03
-187.62
-207.53
-221.31
-225.02
-215.49
-191.57
-154.53
-107.54
-54.50
1.00
56.13
108.49
155.54
194.48
222.70
238.62
242.31
235.54
221.18
202.41
182.01
162.07
143.95
128.33
115.44
104.98
96.35
88.70
81.18
73.00
63.52
52.30
39.16
24.18
7.56
-10.45
-29.77
-50.43
-72.24
-94.25
-114.36
-129.27
-135.20
-129.04
-109.68
-78.81
-40.65
-0.88
35.07
63.53
83.11
94.43
99.17
98.96
94.86
87.44
77.23
65.13
52.63
41.32
32.41
26.21
22.05
18.66
14.71
9.43
2.75
-4.76
-12.25
-19.02
-24.72
-29.48
-33.67
-37.82
-42.45
-48.03
-54.98
-63.62
-73.93
-85.19
-95.80
-103.29
-104.94
-98.69
-84.02
-62.44
-37.16
-12.13
9.17
24.70
34.11
38.36
38.93
37.13
33.74
29.16
23.68
17.77
12.21
7.82
5.16
4.26
4.62
5.29
5.35
4.10
1.37
-2.62
-7.34
-12.33
-17.26
-22.05
-26.82
-31.80
-37.31
-43.72
-51.48
-60.95
-72.04
-83.85
-94.45
-101.10
-100.86
-91.72
-73.39
-47.72
-18.28
10.66
35.43
53.79
65.21
70.51
71.06
68.20
62.94
56.01
48.14
40.14
32.79
26.74
22.25
19.19
17.22
15.94
14.95
13.93
12.50
10.20
6.56
1.24
-5.81
-14.26
-23.50
-32.83
-41.63
-49.55
-56.61
-63.20
-70.07
-78.04
-87.54
-98.13
-108.18
-115.01
-115.69
-108.15
-92.13
-69.52
-43.84
-19.08
1.56
16.42
25.51
29.82
30.66
29.13
25.98
21.80
17.22
12.96
9.71
7.91
7.59
8.41
9.91
11.61
13.20
14.42
14.95
14.43
12.45
8.75
3.39
-3.21
-10.38
-17.42
-23.81
-29.41
-34.50
-39.66
-45.68
-53.16
-62.25
-72.17
-81.16
-86.68
-86.16
-77.87
-61.76
-39.66
-14.79
9.31
29.80
45.29
55.83
62.33
65.88
67.19
66.50
63.96
59.97
55.42
51.49
49.20
48.96
50.36
52.35
53.72
53.62
51.84
48.80
45.18
41.49
37.73
33.47
28.03
20.96
12.29
2.59
-7.26
-16.41
-24.37
-31.20
-37.37
-43.66
-50.88
-59.65
-70.15
-81.93
-93.66
-103.19
-107.90
-105.44
-94.57
-75.79
-51.38
-24.79
0.39
21.49
37.36
48.28
55.32
59.66
62.06
62.75
61.73
59.20
55.71
52.19
49.57
48.47
48.94
50.46
52.19
53.29
53.15
51.58
48.67
44.76
40.20
35.26
30.09
24.65
18.81
12.43
5.40
-2.20
-10.19
-18.25
-26.01
-33.22
-39.75
-45.73
-51.46
-57.44
-64.32
-72.62
-82.50
-93.28
-103.22
-109.75
-110.04
-102.02
-85.32
-61.63
-34.33
-7.48
15.49
32.61
43.58
49.27
50.97
49.79
46.46
41.52
35.58
29.40
23.76
19.16
15.57
12.46
9.06
4.72
-0.80
-7.35
-14.56
-22.13
-30.06
-38.83
-49.32
-62.59
-79.57
-100.64
-125.54
-153.26
-182.50
-212.00
-240.97
-269.06
-295.70
-319.50
-337.82
-347.31
-345.05
-329.69
-302.03
-264.60
-220.67
-173.25
-124.62
-76.25
-28.88
17.53
63.87
111.59
161.75
213.68
264.26
308.29
340.23
356.50
356.96
344.81
325.01
302.32
279.77
258.50
238.51
219.70
202.43
187.44
175.38
166.31
159.64
154.31
149.30
143.90
137.91
131.56
125.23
119.15
113.27
107.15
100.24
92.03
82.19
70.62
57.16
41.49
23.16
1.86
-22.11
-47.58
-72.56
-94.84
-112.72
-125.63
-134.16
-139.82
-144.49
-149.86
-156.98
-165.85
-175.08
-181.75
-181.85
-171.45
-148.18
-112.52
-68.10
-20.83
23.06
58.94
85.00
102.10
112.69
119.27
123.46
125.68
125.76
123.67
119.92
115.65
112.09
110.02
109.34
109.02
107.48
103.22
95.23
83.28
67.88
49.96
30.70
11.22
-7.41
-24.37
-39.08
-51.28
-61.05
-68.76
-74.98
-80.19
-84.70
-88.63
-92.03
-95.22
-99.08
-105.13
-115.22
-130.85
-152.12
-177.07
-201.70
-220.89
-229.88
-225.93
-209.03
-181.80
-148.42
-113.33
-80.20
-51.46
-28.50
-12.01
-2.37
0.43
-3.08
-11.61
-23.15
-35.28
-45.56
-52.12
-54.04
-51.37
-44.88
-35.66
-24.54
-11.99
1.83
16.68
31.82
45.81
56.68
62.46
61.81
54.55
41.79
25.52
8.05
-8.67
-23.48
-36.15
-47.15
-57.45
-68.03
-79.46
-91.37
-102.10
-108.69
-107.48
-95.25
-70.43
-33.99
10.60
58.19
103.47
142.27
172.32
193.18
205.59
210.69
209.42
202.55
190.95
175.89
159.14
142.70
128.21
116.55
107.57
100.33
93.68
86.74
79.20
71.21
63.05
54.65
45.50
34.81
21.89
6.68
-10.09
-27.07
-42.73
-55.98
-66.51
-74.89
-82.33
-90.33
-100.24
-112.89
-128.25
-145.11
-160.91
-171.99
-174.41
-164.98
-142.52
-108.42
-66.54
-22.22
19.23
53.80
79.39
95.81
104.18
106.08
103.16
96.89
88.64
79.81
71.79
65.74
62.43
61.95
63.79
67.04
70.56
73.30
74.38
73.16
69.26
62.62
53.49
42.40
30.11
17.36
4.73
-7.53
-19.63
-32.24
-46.35
-62.83
-81.83
-102.15
-121.01
-134.38
-138.04
-129.00
-106.71
-73.55
-34.24
5.51
40.67
67.98
86.35
96.38
99.59
97.59
91.77
83.25
73.12
62.53
52.65
44.39
38.25
34.18
31.72
30.24
29.06
27.58
25.25
21.49
15.78
7.82
-2.34
-14.23
-27.09
-40.11
-52.76
-64.91
-76.91
-89.55
-103.78
-120.37
-139.35
-159.43
-177.78
-190.36
-192.93
-182.32
-157.66
-120.80
-75.90
-28.16
17.53
57.69
90.55
115.75
133.67
144.83
149.79
149.23
144.24
136.32
127.15
118.26
110.58
104.29
99.05
94.34
89.83
85.48
81.48
77.80
74.02
69.21
62.25
52.23
38.84
22.49
4.11
-15.15
-34.33
-52.91
-70.86
-88.50
-106.13
-123.54
-139.58
-151.89
-157.24
-152.47
-135.60
-106.95
-69.37
-27.64
12.89
47.78
74.54
92.74
103.44
108.20
108.50
105.47
100.12
93.60
87.20
82.16
79.29
78.65
79.49
80.67
81.10
80.11
77.68
74.14
69.82
64.66
58.12
49.40
37.94
23.79
7.82
-8.50
-23.70
-36.83
-47.89
-57.81
-68.09
-80.27
-95.35
-113.23
-132.39
-149.82
-161.57
-163.63
-153.18
-129.68
-95.34
-54.60
-12.81
25.27
56.70
80.61
97.62
108.87
115.21
117.00
114.45
108.14
99.37
89.97
81.73
75.74
72.06
69.83
67.86
65.24
61.79
57.96
54.47
51.67
49.21
46.01
40.74
32.41
20.86
6.91
-8.01
-22.45
-35.51
-47.20
-58.34
-70.20
-83.99
-100.36
-118.98
-138.30
-155.52
-167.09
-169.49
-160.28
-139.01
-107.50
-69.43
-29.40
8.38
40.82
66.48
85.20
97.63
104.68
107.31
106.46
103.29
99.16
95.52
93.59
93.99
96.49
100.11
103.48
105.36
105.07
102.60
98.29
92.49
85.12
75.62
63.31
47.81
29.47
9.35
-11.03
-30.36
-47.97
-64.12
-79.76
-96.08
-113.92
-133.22
-152.69
-169.77
-180.95
-182.67
-172.25
-148.94
-114.44
-72.65
-28.75
12.15
46.16
71.29
87.35
95.41
97.10
94.10
88.04
80.47
72.93
66.85
63.24
62.46
64.06
66.95
69.74
71.25
70.82
68.41
64.30
58.78
51.88
43.25
32.48
19.36
4.21
-12.09
-28.35
-43.46
-56.84
-68.69
-79.96
-92.07
-106.33
-123.33
-142.35
-161.07
-175.87
-182.65
-178.01
-160.53
-131.36
-94.14
-53.96
-15.91
16.14
40.29
56.43
65.64
69.34
68.80
65.13
59.41
52.85
46.74
42.10
39.40
38.36
38.12
37.70
36.46
34.40
32.00
29.81
27.99
26.07
22.99
17.66
9.41
-1.63
-14.53
-27.87
-40.29
-50.90
-59.55
-66.93
-74.34
-83.38
-95.32
-110.49
-127.62
-143.75
-154.68
-156.17
-145.37
-121.91
-88.25
-49.08
-9.87
24.56
51.22
69.19
79.24
83.05
82.46
79.00
73.91
68.22
62.90
58.86
56.71
56.60
58.12
60.57
63.14
65.27
66.69
67.18
66.45
63.92
58.90
50.88
39.86
26.55
12.10
-2.12
-15.16
-26.73
-37.36
-48.25
-60.79
-75.92
-93.44
-111.51
-126.75
-134.97
-132.38
-117.02
-89.56
-53.36
-13.51
24.59
56.65
80.35
95.33
102.58
103.66
100.08
93.16
84.08
74.09
64.48
56.39
50.47
46.71
44.58
43.29
42.28
41.35
40.55
39.81
38.58
35.85
30.40
21.39
8.81
-6.38
-22.57
-38.04
-51.67
-63.32
-73.86
-84.86
-97.90
-113.84
-132.11
-150.41
-164.95
-171.28
-165.76
-146.72
-115.36
-75.45
-32.39
8.46
42.99
69.17
86.85
97.00
100.94
99.82
94.66
86.60
77.14
68.02
60.84
56.54
55.09
55.61
56.85
57.78
58.03
57.90
57.98
58.58
59.28
58.91
56.03
49.51
39.18
25.98
11.53
-2.63
-15.90
-28.95
-43.57
-61.98
-86.12
-116.93
-153.76
-194.07
-233.36
-265.66
-284.70
-285.56
-266.26
-228.59
-177.71
-120.63
-64.11
-13.15
29.69
63.85
89.78
108.20
119.78
125.38
126.31
124.41
121.72
119.99
120.20
122.40
125.99
130.05
133.82
136.77
138.51
138.65
136.58
131.71
123.67
112.65
99.47
85.39
71.63
58.95
47.29
35.70
22.65
6.60
-13.29
-36.45
-60.62
-82.06
-96.36
-99.76
-90.43
-69.11
-39.16
-5.53
26.58
53.06
71.61
81.78
84.47
81.23
73.69
63.39
51.72
40.00
29.39
20.78
14.64
10.97
9.44
9.56
10.83
12.73
14.60
15.55
14.49
10.43
2.75
-8.56
-22.80
-38.84
-55.39
-71.40
-86.35
-100.42
-114.51
-129.86
-147.42
-166.93
-186.24
-201.30
-207.06
-199.18
-175.77
-138.40
-91.86
-42.68
2.86
40.37
67.99
86.05
95.93
99.25
97.36
91.39
82.59
72.38
62.31
53.63
46.98
42.36
39.30
37.23
35.88
35.23
35.35
36.01
36.40
35.27
31.24
23.40
11.75
-2.75
-18.42
-33.56
-47.00
-58.58
-69.15
-80.28
-93.58
-109.97
-128.87
-147.76
-162.46
-168.11
-160.70
-138.62
-103.42
-59.62
-13.32
29.54
64.80
90.62
107.18
115.78
117.95
115.01
108.12
98.57
87.88
77.65
69.20
63.24
59.65
57.78
56.70
55.65
54.12
51.85
48.61
44.07
37.76
29.29
18.58
6.01
-7.65
-21.42
-34.43
-46.23
-56.96
-67.30
-78.38
-91.42
-107.11
-124.97
-142.82
-156.85
-162.44
-155.63
-134.68
-101.06
-59.21
-15.22
25.01
57.42
80.41
94.40
100.81
101.12
96.39
87.46
75.45
62.03
49.26
39.02
32.47
29.69
29.87
31.80
34.32
36.62
38.14
38.29
36.40
31.69
23.74
12.76
-0.27
-13.83
-26.44
-37.19
-46.13
-54.21
-63.01
-74.12
-88.54
-105.99
-124.43
-140.00
-147.78
-143.12
-123.37
-89.16
-44.67
3.45
48.01
83.39
106.75
118.18
119.71
114.03
103.55
90.16
75.42
60.94
48.43
39.37
34.59
33.97
36.50
40.64
44.95
48.35
50.32
50.62
48.97
44.92
37.92
27.61
14.19
-1.45
-17.90
-33.65
-47.59
-59.38
-69.58
-79.38
-90.20
-102.86
-116.94
-130.33
-139.38
-139.88
-128.43
-103.98
-68.56
-27.02
14.42
49.95
75.70
90.44
95.15
92.07
83.71
72.26
59.49
46.96
36.16
28.34
24.37
24.37
27.73
33.16
39.14
44.27
47.57
48.63
47.50
44.62
40.47
35.56
30.20
24.51
18.49
11.94
4.53
-4.26
-15.00
-28.18
-43.74
-60.64
-76.56
-88.11
-91.63
-84.35
-65.68
-37.72
-5.05
26.64
52.16
68.29
74.32
71.63
62.73
50.11
35.70
20.83
6.60
-5.82
-15.25
-20.78
-22.36
-20.84
-17.83
-15.19
-14.38
-16.13
-20.41
-26.69
-34.28
-42.61
-51.26
-60.01
-68.69
-77.22
-85.67
-94.38
-103.88
-114.65
-126.72
-139.27
-150.42
-157.47
-157.53
-148.47
-129.80
-103.17
-72.23
-41.80
-16.60
-0.08
6.39
3.55
-6.39
-20.57
-36.29
-51.53
-64.94
-75.66
-83.26
-87.70
-89.47
-89.65
-89.52
-90.00
-91.13
-91.92
-90.83
-86.64
-79.28
-70.12
-61.54
-55.87
-54.30
-56.35
-60.07
-63.14
-64.01
-62.77
-60.83
-59.96
-60.83
-62.23
-61.32
-54.82
-40.54
-18.36
9.98
41.62
73.65
103.76
129.92
150.14
162.29
164.57
156.25
138.31
113.41
85.24
57.54
33.25
14.12
0.50
-8.43
-14.32
-19.17
-24.72
-31.80
-40.06
-48.10
-53.97
-55.93
-53.04
-45.40
-34.13
-20.90
-7.51
4.62
14.72
23.00
30.73
40.18
54.11
75.00
104.19
141.10
183.23
226.69
267.27
301.55
327.62
345.16
354.92
358.01
355.42
347.86
335.98
320.63
302.86
283.79
264.24
244.35
223.60
200.97
175.43
146.42
114.08
79.20
42.87
6.15
-30.23
-65.75
-99.95
-132.07
-161.13
-186.00
-205.87
-220.69
-231.36
-239.61
-247.56
-257.09
-268.98
-282.38
-294.51
-301.09
-297.52
-280.38
-248.78
-204.85
-153.08
-98.93
-47.28
-1.48
36.67
66.45
87.60
100.22
105.05
103.78
99.09
94.00
90.94
90.94
93.39
96.43
97.86
96.03
90.46
81.93
72.03
62.52
54.67
48.88
44.73
41.14
36.84
30.59
21.39
8.79
-6.82
-23.90
-39.72
-50.88
-54.29
-48.28
-33.34
-12.13
11.41
33.40
51.13
63.61
71.35
75.48
77.07
76.67
74.35
70.05
63.99
56.73
49.03
41.63
34.97
29.17
24.18
19.96
16.43
13.42
10.55
7.20
2.80
-2.97
-9.89
-17.30
-24.37
-30.61
-36.01
-41.16
-46.97
-54.38
-64.00
-75.70
-88.35
-99.61
-106.22
-104.75
-92.73
-69.82
-38.33
-2.88
30.97
58.37
76.49
84.95
85.32
79.94
70.90
59.63
47.04
34.02
21.70
11.40
4.13
0.17
-1.03
-0.51
0.74
2.20
3.78
5.51
7.09
7.68
6.14
1.62
-6.06
-16.07
-26.90
-36.84
-44.55
-49.48
-52.08
-53.60
-55.70
-59.92
-67.04
-76.70
-87.16
-95.62
-98.93
-94.63
-81.85
-61.74
-37.24
-12.14
10.08
27.25
38.83
45.55
48.71
49.38
47.99
44.58
39.19
32.31
24.91
18.13
12.80
9.09
6.54
4.36
1.90
-1.06
-4.40
-7.92
-11.69
-16.21
-22.26
-30.58
-41.56
-54.97
-70.05
-85.76
-101.11
-115.46
-128.70
-141.27
-153.95
-167.66
-183.04
-200.22
-218.52
-236.36
-251.51
-261.48
-264.22
-258.58
-244.59
-223.31
-196.36
-165.44
-131.89
-96.66
-60.54
-24.44
10.35
42.33
70.10
92.92
110.93
125.14
137.01
147.89
158.55
169.04
178.78
187.00
192.97
196.01
195.42
190.32
179.71
162.78
139.34
110.05
76.54
41.09
6.14
-26.34
-55.32
-80.96
-104.43
-127.53
-152.07
-179.16
-208.51
-238.11
-264.20
-281.90
-286.37
-274.35
-245.41
-202.40
-150.85
-97.36
-47.72
-5.53
28.11
53.94
73.45
87.97
98.42
105.54
110.36
114.35
119.25
126.49
136.67
149.42
163.46
177.22
189.34
199.05
206.28
211.25
214.04
214.14
210.51
201.92
187.67
168.03
144.28
118.33
91.91
66.00
40.46
14.21
-14.27
-46.06
-80.97
-116.91
-149.82
-174.44
-185.72
-180.37
-158.01
-121.34
-75.38
-26.18
20.52
60.36
90.69
110.62
120.75
122.71
118.70
111.11
102.13
93.68
87.39
84.60
86.10
91.77
100.35
109.67
117.48
122.27
123.92
123.49
122.37
121.37
120.01
116.72
109.55
97.16
79.44
57.54
33.27
8.28
-16.55
-41.29
-66.59
-93.02
-120.40
-147.57
-172.27
-191.50
-201.87
-200.15
-183.99
-152.74
-108.18
-54.81
0.68
50.89
89.61
113.62
123.42
122.62
116.12
107.97
99.89
91.22
80.10
65.15
46.61
26.35
6.88
-9.94
-23.71
-35.36
-46.18
-56.85
-67.07
-75.93
-82.71
-87.66
-91.97
-97.31
-104.98
-115.47
-128.38
-142.98
-158.68
-175.41
-193.51
-212.90
-232.32
-248.89
-258.43
-256.61
-240.59
-210.25
-168.70
-121.52
-75.14
-35.00
-4.18
16.89
29.81
36.97
40.46
41.44
40.36
37.50
33.50
29.54
27.04
27.02
29.69
34.31
39.49
43.79
46.03
45.52
42.03
35.63
26.49
14.84
1.00
-14.69
-31.82
-49.98
-68.88
-88.39
-108.43
-128.63
-147.87
-163.99
-173.83
-173.87
-161.36
-135.42
-97.62
-51.87
-3.48
42.11
80.48
108.92
126.53
133.87
132.53
124.67
112.67
98.99
86.01
75.83
70.10
69.80
74.97
84.68
97.11
109.97
120.89
127.99
130.14
127.07
119.30
107.80
93.82
78.56
63.02
47.85
33.32
19.20
4.92
-10.31
-27.11
-45.44
-64.15
-80.84
-92.23
-94.99
-86.94
-67.98
-40.34
-8.07
24.10
52.10
73.40
87.28
94.47
96.42
94.58
90.13
83.83
76.31
68.19
60.23
53.25
47.94
44.56
42.93
42.41
42.12
41.21
39.09
35.48
30.36
23.92
16.43
8.22
-0.40
-9.24
-18.26
-27.77
-38.41
-50.93
-65.76
-82.45
-99.26
-113.21
-120.62
-118.23
-104.29
-79.45
-46.70
-10.68
23.73
52.64
74.03
87.71
94.81
96.82
95.05
90.30
83.14
74.27
64.75
55.94
49.17
45.28
44.30
45.48
47.51
49.05
49.06
47.11
43.28
38.00
31.75
24.89
17.51
9.47
0.48
-9.82
-21.82
-35.82
-51.76
-68.94
-85.68
-99.35
-106.77
-105.15
-93.05
-71.09
-42.04
-10.08
20.40
45.91
64.59
76.25
81.84
82.77
80.33
75.48
68.96
61.52
54.01
47.37
42.39
39.49
38.60
39.12
40.11
40.50
39.37
36.16
30.75
23.47
14.93
5.84
-3.17
-11.78
-19.91
-27.84
-36.15
-45.54
-56.67
-69.69
-83.83
-97.15
-106.66
-109.03
-101.67
-83.75
-56.73
-24.12
9.48
39.67
63.43
79.58
88.59
91.95
91.39
88.30
83.67
78.17
72.34
66.76
62.01
58.50
56.40
55.54
55.55
55.90
56.03
55.40
53.52
49.96
44.44
36.95
27.75
17.43
6.71
-3.74
-13.60
-23.01
-32.66
-43.56
-56.58
-71.91
-88.45
-103.74
-114.46
-117.31
-110.22
-93.22
-68.55
-40.02
-11.80
12.74
31.77
44.93
52.90
56.64
56.99
54.60
50.08
44.18
37.88
32.13
27.64
24.65
22.94
22.03
21.48
20.98
20.46
19.83
18.87
17.07
13.81
8.59
1.30
-7.59
-17.19
-26.48
-34.64
-41.44
-47.26
-53.08
-60.13
-69.38
-81.01
-93.96
-105.95
-113.80
-114.45
-105.93
-88.13
-63.03
-34.11
-5.26
20.22
40.39
54.67
63.50
67.74
68.31
65.98
61.58
56.06
50.53
46.12
43.58
43.08
44.11
45.70
46.78
46.62
45.00
42.21
38.74
34.91
30.58
25.25
18.31
9.51
-0.82
-11.76
-22.17
-31.12
-38.33
-44.29
-50.07
-56.90
-65.71
-76.72
-89.16
-101.20
-110.20
-113.30
-108.22
-94.04
-71.66
-43.70
-13.80
14.42
38.28
56.47
68.92
76.24
79.25
78.67
75.19
69.70
63.39
57.56
53.28
51.03
50.50
50.80
50.90
50.13
48.39
46.11
43.79
41.60
39.20
35.79
30.49
22.84
13.01
1.85
-9.47
-19.84
-28.64
-35.96
-42.44
-49.18
-57.24
-67.24
-78.90
-90.85
-100.67
-105.47
-102.72
-91.16
-71.39
-45.83
-18.07
8.19
30.11
46.28
56.67
62.10
63.66
62.27
58.65
53.41
47.38
41.64
37.29
35.15
35.44
37.70
41.01
44.41
47.18
49.07
50.14
50.51
50.06
48.36
44.83
39.01
30.80
20.65
9.49
-1.56
-11.53
-19.85
-26.63
-32.42
-38.18
-44.97
-53.63
-64.57
-77.33
-90.41
-101.22
-106.53
-103.37
-90.12
-67.24
-37.39
-4.73
26.46
52.89
73.06
86.97
95.51
99.67
100.11
97.17
91.32
83.48
75.09
67.82
63.05
61.38
62.37
64.76
66.93
67.51
65.90
62.39
57.91
53.53
49.86
46.77
43.42
38.57
31.18
20.83
7.87
-6.75
-21.92
-36.82
-51.15
-65.23
-79.68
-95.23
-112.38
-131.24
-151.18
-170.55
-186.69
-196.15
-195.66
-183.33
-159.65
-127.79
-92.79
-60.08
-33.81
-15.89
-6.01
-2.50
-3.40
-7.26
-13.14
-20.20
-27.33
-33.00
-35.72
-34.58
-29.77
-22.58
-14.87
-8.38
-4.01
-1.63
-0.21
1.53
4.44
8.44
12.56
15.33
15.44
12.30
6.35
-1.21
-8.93
-15.78
-21.52
-26.80
-32.86
-41.04
-52.39
-67.26
-85.04
-104.03
-121.43
-133.73
-137.42
-130.07
-111.25
-82.93
-49.12
-14.76
15.71
39.39
55.37
64.26
67.49
66.45
62.33
56.14
49.07
42.54
37.99
36.32
37.56
40.78
44.49
47.39
48.88
49.26
49.51
50.65
53.13
56.53
59.59
60.65
58.29
51.84
41.74
29.40
16.85
5.90
-2.41
-8.26
-12.90
-18.17
-25.71
-36.18
-48.80
-61.33
-70.49
-72.84
-65.79
-48.44
-21.97
10.49
44.64
76.05
101.23
118.18
126.51
127.01
121.11
110.37
96.32
80.46
64.32
49.40
36.97
27.65
21.32
17.19
14.18
11.40
8.47
5.42
2.42
-0.63
-4.28
-9.39
-16.72
-26.49
-38.19
-50.67
-62.63
-73.06
-81.69
-89.05
-96.31
-104.83
-115.61
-128.64
-142.47
-154.15
-159.78
-155.55
-139.18
-110.86
-73.58
-32.32
7.48
41.44
67.30
84.86
95.27
99.97
100.12
96.53
90.04
81.94
73.99
68.01
65.18
65.63
68.33
71.66
74.05
74.65
73.45
70.96
67.68
63.52
57.73
49.27
37.39
22.23
4.99
-12.40
-28.06
-40.81
-50.71
-59.04
-67.74
-78.79
-93.36
-111.23
-130.47
-147.60
-158.23
-158.23
-145.06
-118.85
-82.79
-42.35
-3.78
27.61
48.85
59.58
61.48
57.15
49.07
39.07
28.39
17.99
8.85
2.00
-1.80
-2.33
-0.02
4.18
9.30
14.66
20.09
25.57
30.87
35.16
37.00
34.82
27.56
15.28
-0.76
-18.48
-35.69
-50.86
-63.42
-73.91
-83.57
-93.93
-106.13
-120.34
-135.31
-148.25
-155.47
-153.50
-140.43
-116.84
-85.83
-52.11
-20.52
5.29
23.62
34.57
39.37
39.64
36.93
32.55
27.66
23.36
20.54
19.78
21.15
24.21
28.12
31.98
35.10
37.25
38.64
39.62
40.31
40.43
39.31
36.24
30.96
23.84
15.86
8.12
1.38
-4.37
-9.93
-16.56
-25.49
-37.25
-51.22
-65.49
-77.07
-82.58
-79.26
-65.88
-43.33
-14.46
16.68
45.99
70.36
88.21
99.36
104.53
104.86
101.38
95.11
87.07
78.40
70.29
63.79
59.53
57.65
57.84
59.42
61.58
63.49
64.41
63.68
60.86
55.70
48.31
39.15
28.96
18.63
8.99
0.57
-6.54
-12.85
-19.33
-27.13
-37.04
-48.88
-61.12
-70.88
-74.66
-69.39
-53.66
-28.32
3.55
37.60
69.39
95.60
114.53
126.02
130.83
130.12
125.10
117.10
107.67
98.58
91.55
87.73
87.30
89.35
92.28
94.37
94.47
92.25
88.09
82.55
75.86
67.73
57.38
44.13
27.86
9.37
-9.86
-28.07
-43.95
-57.09
-68.10
-78.39
-89.64
-103.26
-119.79
-138.55
-157.38
-172.83
-180.91
-178.20
-163.22
-137.22
-104.17
-69.59
-38.84
-15.46
-0.39
7.63
10.95
11.59
10.60
8.14
4.16
-0.77
-5.30
-7.73
-6.86
-2.66
3.55
9.71
13.98
15.45
14.45
12.12
9.64
7.49
5.16
1.43
-4.96
-14.51
-26.65
-39.83
-52.08
-61.86
-68.58
-72.81
-76.02
-80.08
-86.66
-96.76
-110.27
-125.72
-140.22
-149.95
-150.98
-140.58
-118.31
-86.47
-49.52
-12.77
19.26
43.92
60.75
70.85
75.86
77.11
75.30
70.73
63.85
55.71
47.90
42.23
40.02
41.58
46.09
51.95
57.38
61.13
62.80
62.71
61.45
59.40
56.42
51.95
45.35
36.29
25.00
12.30
-0.64
-12.62
-22.73
-30.50
-36.04
-39.97
-43.37
-47.63
-54.11
-63.68
-76.14
-89.92
-102.11
-109.11
-107.66
-95.91
-74.25
-45.22
-12.85
18.59
45.68
66.48
80.65
88.88
92.31
92.05
88.93
83.68
77.04
69.91
63.36
58.36
55.58
55.06
56.21
57.94
59.05
58.67
56.54
53.01
48.73
44.27
39.67
34.48
27.90
19.27
8.45
-4.03
-17.10
-29.57
-40.57
-49.83
-57.74
-65.11
-72.97
-82.25
-93.66
-107.37
-122.72
-137.90
-149.87
-154.96
-149.79
-132.58
-104.03
-67.42
-27.70
10.02
41.86
66.02
82.58
92.81
98.14
99.71
98.25
94.48
89.40
84.33
80.64
79.24
80.17
82.59
85.07
86.20
85.18
82.03
77.50
72.60
68.00
63.71
59.03
52.91
44.51
33.59
20.74
7.17
-5.72
-16.91
-26.09
-33.78
-41.14
-49.58
-60.32
-73.92
-89.90
-106.54
-120.91
-129.40
-128.61
-116.46
-93.16
-61.41
-25.86
8.26
36.60
56.75
68.50
73.19
72.73
68.76
62.34
54.20
45.11
36.22
28.88
24.25
22.81
24.11
26.96
29.89
31.75
32.03
30.88
28.84
26.43
23.77
20.48
15.87
9.23
0.24
-10.79
-22.96
-35.03
-45.84
-54.71
-61.63
-67.38
-73.25
-80.69
-90.79
-103.84
-118.85
-133.46
-144.20
-147.36
-140.07
-121.34
-92.56
-57.20
-19.93
14.63
43.07
63.74
76.62
82.87
84.08
81.73
77.03
70.97
64.48
58.51
53.86
50.97
49.78
49.64
49.69
49.22
48.02
46.34
44.65
43.15
41.50
38.78
33.96
26.35
16.10
4.19
-7.88
-18.68
-27.41
-34.18
-39.97
-46.27
-54.70
-66.30
-81.03
-97.41
-112.48
-122.36
-123.29
-112.98
-91.49
-61.53
-27.60
5.39
33.53
54.72
68.67
76.29
78.83
77.41
72.97
66.54
59.40
53.02
48.80
47.45
48.87
52.15
55.91
58.88
60.28
60.03
58.43
55.97
52.78
48.50
42.48
34.04
23.05
10.06
-3.74
-16.99
-28.54
-38.01
-45.75
-52.67
-59.93
-68.47
-78.62
-89.74
-100.02
-106.58
-106.12
-95.89
-74.79
-44.11
-7.35
30.69
65.28
93.10
112.81
124.76
130.28
130.78
127.27
120.43
110.93
99.76
88.28
77.92
69.65
63.58
58.98
54.52
49.02
41.90
33.39
24.25
15.15
6.14
-3.44
-14.62
-28.12
-43.85
-60.72
-77.16
-91.82
-104.23
-115.00
-125.57
-137.69
-152.81
-171.61
-193.70
-217.30
-239.14
-254.65
-258.80
-247.58
-219.55
-176.94
-125.36
-72.30
-24.82
12.47
38.28
54.08
62.71
66.82
68.13
67.43
65.35
62.79
61.02
61.18
63.70
68.00
72.75
76.48
78.30
78.05
76.22
73.44
69.91
65.27
58.82
49.93
38.49
25.10
10.90
-2.81
-15.09
-25.67
-35.07
-44.41
-55.01
-67.71
-82.33
-97.17
-109.12
-114.31
-109.32
-92.50
-64.75
-29.57
8.01
42.87
71.20
91.33
103.46
109.00
109.63
106.73
101.26
94.07
86.12
78.44
71.95
67.16
63.96
61.80
59.93
57.78
55.07
51.78
47.79
42.73
35.86
26.39
13.89
-1.35
-18.19
-34.91
-49.82
-61.88
-71.02
-78.24
-85.16
-93.50
-104.48
-118.19
-133.24
-146.71
-154.57
-152.75
-138.56
-111.92
-75.77
-35.46
2.88
34.13
55.55
66.99
70.17
67.47
61.06
52.51
43.03
33.93
26.67
22.58
22.40
25.87
31.77
38.44
44.43
48.93
51.87
53.58
54.15
53.23
50.01
43.69
34.05
21.73
8.14
-5.08
-16.66
-26.18
-34.19
-41.93
-50.89
-62.27
-76.45
-92.53
-108.08
-119.44
-122.46
-113.85
-92.53
-60.32
-21.70
17.47
51.75
77.59
94.00
102.09
103.98
101.69
96.57
89.42
81.01
72.45
65.18
60.49
58.91
59.85
61.77
62.87
61.92
58.82
54.50
50.30
47.02
44.47
41.34
35.86
26.73
13.79
-1.81
-18.01
-32.73
-44.66
-53.76
-61.20
-68.87
-78.64
-91.69
-108.04
-126.19
-143.12
-154.68
-156.60
-145.72
-121.26
-85.46
-43.19
-0.57
36.86
65.61
84.85
95.78
100.53
100.97
98.23
92.87
85.54
77.39
70.01
64.92
62.86
63.39
65.04
65.96
64.65
60.66
54.57
47.60
40.83
34.61
28.28
20.53
10.12
-3.37
-19.22
-35.75
-51.06
-63.83
-73.85
-82.02
-89.91
-99.14
-110.74
-124.92
-140.85
-156.60
-169.21
-174.96
-170.34
-153.10
-123.40
-84.24
-40.86
0.83
35.98
62.09
79.21
89.08
93.92
95.43
94.49
91.54
87.13
82.21
77.95
75.33
74.60
75.26
76.28
76.61
75.69
73.63
71.02
68.55
66.46
64.32
61.10
55.63
47.16
35.85
22.83
9.76
-1.87
-11.36
-19.15
-26.60
-35.41
-46.97
-61.63
-78.47
-95.26
-108.78
-115.55
-112.65
-98.75
-74.64
-43.36
-9.40
22.43
48.35
66.34
76.32
79.54
77.78
72.75
65.80
58.06
50.54
44.24
39.93
37.94
38.02
39.37
40.99
41.97
41.83
40.51
38.24
35.29
31.67
27.02
20.85
12.76
2.89
-8.03
-18.87
-28.51
-36.31
-42.52
-48.21
-54.84
-63.68
-75.08
-88.07
-100.34
-108.63
-109.67
-101.27
-83.17
-57.36
-27.59
1.66
26.48
44.44
54.88
58.52
56.74
50.94
42.33
31.98
21.04
10.90
2.85
-2.28
-4.46
-4.62
-4.21
-4.63
-6.74
-10.55
-15.41
-20.47
-25.27
-30.08
-35.75
-43.34
-53.48
-66.01
-79.87
-93.51
-105.59
-115.50
-123.64
-131.23
-139.88
-150.87
-164.57
-180.01
-194.68
-204.79
-205.93
-194.30
-168.01
-128.20
-79.07
-27.02
21.21
60.40
88.05
104.46
111.70
112.31
108.33
101.08
91.64
81.26
71.59
64.19
59.96
58.66
59.02
59.37
58.46
56.10
53.06
50.52
49.26
49.04
48.57
46.06
40.06
30.26
17.61
3.98
-8.69
-19.17
-27.40
-34.46
-42.14
-52.29
-66.29
-84.33
-105.08
-125.57
-141.43
-147.98
-141.56
-120.95
-88.08
-47.74
-6.14
30.98
59.89
79.46
90.71
95.62
96.03
93.11
87.50
79.93
71.67
64.46
60.09
59.56
62.68
67.99
73.38
76.95
77.76
76.11
73.12
70.00
67.28
64.41
60.00
52.57
41.32
26.70
10.28
-5.85
-19.97
-31.38
-40.65
-49.30
-59.24
-72.06
-88.48
-107.95
-128.54
-146.93
-158.99
-160.56
-148.78
-123.19
-86.32
-43.18
0.09
38.08
67.51
87.69
99.90
106.16
108.12
106.59
101.85
94.41
85.44
76.80
70.42
67.48
67.94
70.56
73.51
75.19
74.85
72.80
69.96
67.16
64.49
61.11
55.57
46.55
33.60
17.56
0.30
-16.00
-29.71
-40.44
-49.08
-57.44
-67.52
-80.81
-97.78
-117.63
-138.13
-155.78
-166.35
-165.77
-151.46
-123.44
-84.72
-40.72
2.29
39.04
66.55
84.42
94.08
97.61
96.79
92.84
86.71
79.65
73.29
69.39
69.19
72.85
79.36
86.86
93.29
97.16
97.87
95.77
91.73
86.57
80.57
73.35
64.03
51.80
36.54
19.10
1.15
-15.43
-29.35
-40.44
-49.70
-58.93
-69.97
-84.09
-101.51
-121.16
-140.75
-156.90
-165.69
-163.52
-148.18
-119.82
-81.33
-37.79
4.84
41.40
68.74
86.18
94.87
96.87
94.14
88.22
80.28
71.57
63.54
57.62
54.79
55.01
57.28
60.01
61.72
61.67
60.05
57.66
55.35
53.30
50.79
46.50
39.15
28.20
14.33
-0.79
-15.15
-27.27
-36.79
-44.61
-52.46
-62.18
-75.01
-91.11
-109.31
-127.21
-141.45
-148.35
-144.76
-129.05
-101.89
-66.46
-27.68
9.00
39.13
60.23
72.04
75.91
73.93
68.16
60.25
51.50
43.12
36.35
32.27
31.44
33.59
37.68
42.24
45.94
48.04
48.51
47.67
45.76
42.52
37.24
29.17
18.12
4.79
-9.33
-22.49
-33.46
-42.13
-49.55
-57.54
-68.02
-82.07
-99.29
-117.42
-132.50
-139.74
-134.83
-115.46
-82.42
-39.84
5.87
47.91
81.04
102.87
113.83
116.16
112.57
105.18
95.33
83.95
72.18
61.46
53.23
48.35
46.63
46.95
47.75
47.81
46.64
44.43
41.69
38.66
35.14
30.54
24.36
16.58
7.87
-0.70
-8.12
-13.90
-18.38
-22.63
-28.18
-36.47
-48.37
-63.51
-79.91
-94.08
-101.72
-98.99
-83.97
-57.51
-23.20
13.67
47.69
74.85
93.20
102.82
104.94
101.21
93.20
82.24
69.63
56.79
45.12
35.67
28.88
24.36
21.15
18.14
14.55
10.16
5.24
0.19
-4.87
-10.19
-16.33
-23.75
-32.47
-41.94
-51.25
-59.50
-66.16
-71.38
-75.92
-81.02
-88.01
-97.74
-110.20
-123.98
-136.23
-143.04
-140.58
-126.36
-100.40
-65.51
-26.62
10.78
42.18
65.17
79.53
86.46
87.65
84.56
78.26
69.78
60.29
51.15
43.60
38.40
35.57
34.49
34.31
34.25
33.87
32.96
31.34
28.66
24.38
17.97
9.23
-1.50
-13.33
-25.14
-35.90
-45.19
-53.29
-61.15
-70.10
-81.36
-95.45
-111.69
-127.91
-140.56
-145.51
-139.32
-120.59
-90.71
-53.74
-15.21
19.50
46.67
64.99
75.16
79.05
78.63
75.42
70.43
64.51
58.54
53.52
50.29
49.22
50.08
52.15
54.53
56.50
57.72
58.15
57.89
56.88
54.82
51.27
45.92
38.79
30.41
21.58
13.05
5.17
-2.33
-10.29
-19.88
-32.04
-46.98
-63.75
-79.99
-92.32
-97.13
-91.72
-75.42
-50.13
-19.87
10.32
35.92
54.21
64.65
68.43
67.58
63.99
58.85
52.71
45.78
38.35
30.97
24.44
19.55
16.81
16.28
17.48
19.58
21.54
22.40
21.45
18.39
13.25
6.41
-1.63
-10.30
-19.11
-27.72
-35.96
-43.93
-52.02
-60.86
-71.04
-82.72
-94.99
-105.66
-111.40
-108.80
-95.59
-71.91
-40.60
-6.50
25.09
50.10
66.60
74.87
76.54
73.56
67.49
59.48
50.46
41.49
33.66
27.83
24.30
22.71
22.31
22.28
22.06
21.44
20.35
18.68
16.00
11.70
5.22
-3.67
-14.60
-26.64
-38.53
-49.11
-57.73
-64.52
-70.35
-76.65
-84.80
-95.41
-107.65
-118.99
-125.61
-123.46
-109.80
-84.43
-50.16
-12.05
24.17
53.94
74.91
87.13
92.19
92.04
88.18
81.61
73.08
63.68
54.89
48.23
44.58
43.81
44.71
45.64
45.24
43.05
39.56
35.77
32.46
29.64
26.42
21.44
13.59
2.64
-10.55
-24.36
-37.02
-47.38
-55.26
-61.55
-67.76
-75.53
-86.04
-99.44
-114.52
-128.61
-137.97
-138.67
-127.87
-104.94
-72.05
-33.71
4.44
37.45
62.31
78.41
87.03
90.16
89.58
86.31
80.88
73.82
66.12
59.13
54.15
51.89
52.01
53.34
54.30
53.60
50.74
46.14
40.74
35.42
30.49
25.42
19.10
10.47
-0.85
-14.24
-28.20
-41.00
-51.44
-59.29
-65.48
-71.60
-79.34
-89.79
-103.13
-118.42
-133.58
-145.67
-151.22
-147.11
-131.52
-104.83
-69.95
-31.71
4.50
34.27
55.34
67.75
73.13
73.56
70.64
65.28
57.98
49.47
41.03
34.26
30.51
30.22
32.69
36.32
39.37
40.63
39.91
37.90
35.66
33.92
32.64
30.98
27.75
22.01
13.68
3.58
-6.82
-16.00
-23.04
-28.00
-31.86
-36.16
-42.47
-51.78
-64.17
-78.48
-92.39
-102.64
-105.71
-98.77
-80.59
-52.32
-17.40
19.26
52.65
79.08
96.90
106.37
108.96
106.38
100.05
91.11
80.71
70.28
61.41
55.40
52.70
52.71
54.00
54.98
54.61
52.70
49.76
46.47
43.10
39.23
33.90
26.18
15.68
2.92
-10.77
-23.77
-34.77
-43.32
-49.99
-56.18
-63.56
-73.55
-86.60
-101.80
-116.74
-127.87
-131.24
-123.69
-104.00
-73.55
-36.26
2.48
37.30
64.35
82.08
91.02
93.07
90.35
84.59
76.92
68.20
59.42
51.72
46.23
43.57
43.59
45.28
47.27
48.33
47.81
45.84
42.99
39.80
36.30
31.93
25.73
16.84
5.07
-8.94
-23.75
-37.69
-49.48
-58.72
-66.11
-73.13
-81.54
-92.68
-106.82
-122.80
-138.10
-149.35
-153.13
-146.89
-129.76
-102.94
-69.52
-33.76
-0.01
28.37
49.65
63.74
71.65
74.75
74.23
70.95
65.60
59.04
52.38
46.80
43.07
41.21
40.45
39.59
37.64
34.28
29.98
25.71
22.37
20.19
18.60
16.38
12.26
5.53
-3.61
-14.15
-24.64
-33.91
-41.43
-47.59
-53.47
-60.51
-69.93
-82.25
-97.01
-112.47
-125.82
-133.58
-132.47
-120.37
-97.23
-65.32
-28.86
7.12
38.18
61.48
76.29
83.51
84.84
81.98
76.18
68.34
59.40
50.55
43.12
38.21
36.16
36.38
37.54
38.22
37.48
35.24
32.15
29.01
26.22
23.45
19.73
13.95
5.49
-5.45
-17.82
-30.14
-41.07
-49.91
-56.89
-63.05
-69.88
-78.77
-90.44
-104.45
-119.03
-131.19
-137.26
-133.86
-118.89
-92.37
-56.71
-16.28
23.73
58.57
85.07
102.15
110.53
111.98
108.54
101.92
93.43
84.13
75.02
67.00
60.72
56.36
53.60
51.80
50.35
48.87
47.27
45.58
43.68
41.09
37.10
30.91
22.09
10.76
-2.26
-15.75
-28.37
-39.24
-48.20
-56.00
-64.06
-73.91
-86.45
-101.21
-116.15
-127.89
-132.58
-127.16
-110.48
-83.77
-50.47
-15.21
17.47
44.22
63.42
75.01
79.95
79.54
75.08
67.80
58.96
49.96
42.15
36.52
33.44
32.47
32.69
33.05
32.80
31.71
29.96
27.77
25.15
21.64
16.44
8.85
-1.44
-14.01
-27.75
-41.20
-53.07
-62.70
-70.33
-77.02
-84.28
-93.52
-105.44
-119.50
-133.71
-144.86
-149.21
-143.52
-126.12
-97.63
-60.98
-20.74
18.10
51.38
76.59
93.11
101.74
104.04
101.73
96.35
89.23
81.58
74.50
68.87
65.15
63.20
62.45
62.08
61.42
60.12
58.13
55.51
52.09
47.46
41.04
32.39
21.48
8.90
-4.31
-16.99
-28.26
-37.95
-46.61
-55.46
-65.90
-78.90
-94.32
-110.56
-124.54
-132.31
-130.23
-116.18
-90.48
-56.11
-17.93
18.72
49.39
71.58
84.86
90.33
89.84
85.20
77.91
69.15
59.94
51.21
43.77
38.21
34.73
33.24
33.36
34.64
36.48
38.25
39.23
38.78
36.38
31.78
25.09
16.67
7.12
-2.82
-12.57
-21.80
-30.73
-40.09
-50.95
-64.08
-79.34
-95.08
-108.13
-114.46
-110.46
-94.24
-66.54
-30.77
7.91
44.07
73.39
93.65
104.71
107.96
105.46
99.19
90.68
81.07
71.31
62.30
54.89
49.67
46.80
45.96
46.40
47.16
47.31
46.09
42.98
37.71
30.30
20.97
10.14
-1.64
-13.76
-25.70
-37.14
-48.17
-59.28
-71.28
-84.86
-99.97
-115.33
-128.20
-134.90
-131.82
-116.76
-89.94
-54.25
-14.55
23.67
55.76
79.03
92.97
98.83
98.72
94.78
88.70
81.61
74.26
67.25
61.12
56.30
52.98
51.00
49.95
49.21
48.15
46.23
43.00
38.13
31.39
22.73
12.33
0.65
-11.62
-23.71
-35.03
-45.40
-55.26
-65.53
-77.35
-91.42
-107.41
-123.49
-136.50
-142.62
-138.59
-122.86
-96.38
-62.47
-26.01
8.00
35.69
55.14
66.43
70.95
70.62
67.16
61.85
55.47
48.66
42.07
36.38
32.23
29.99
29.71
31.17
33.96
37.51
41.18
44.16
45.51
44.36
40.17
32.97
23.36
12.40
1.19
-9.53
-19.53
-29.18
-39.29
-50.75
-64.22
-79.63
-95.80
-110.25
-119.46
-119.71
-108.29
-84.72
-51.30
-12.71
25.26
57.43
80.55
93.86
98.67
97.24
91.89
84.27
75.41
65.99
56.69
48.28
41.44
36.52
33.37
31.42
29.82
27.66
24.05
18.28
9.82
-1.51
-15.47
-31.43
-48.50
-65.77
-82.66
-99.08
-115.48
-132.92
-152.88
-176.87
-205.76
-238.85
-273.31
-304.43
-326.78
-336.19
-331.30
-314.22
-289.53
-262.43
-236.73
-213.81
-192.90
-172.28
-150.48
-126.95
-101.80
-75.16
-46.70
-15.61
18.95
57.35
99.24
143.46
188.03
230.39
267.52
296.28
314.00
319.13
311.82
293.98
268.78
239.90
210.52
182.72
157.38
134.35
113.00
92.47
71.94
50.78
28.68
5.88
-16.73
-37.66
-55.24
-68.02
-75.32
-77.38
-75.22
-70.19
-63.38
-55.27
-45.56
-33.50
-18.34
0.03
20.74
42.02
61.69
77.82
89.45
96.73
100.71
102.76
103.96
104.70
104.70
103.28
99.72
93.56
84.82
73.93
61.72
49.19
37.34
27.14
19.32
14.38
12.61
14.02
18.32
24.80
32.49
40.21
46.93
52.01
55.34
57.50
59.48
62.45
67.41
74.86
84.57
95.65
106.71
116.20
122.70
125.16
123.03
116.20
104.94
89.70
71.08
49.76
26.64
2.99
-19.52
-38.79
-52.71
-59.65
-58.93
-51.03
-37.53
-20.53
-2.02
16.52
34.38
51.37
67.62
83.27
98.40
113.01
127.01
140.26
152.58
163.80
173.84
182.81
191.02
198.89
206.81
214.84
222.51
228.64
231.50
229.16
219.99
203.34
179.77
150.98
119.41
87.40
56.71
28.11
1.59
-23.31
-46.94
-69.39
-90.36
-109.31
-125.72
-139.23
-149.77
-157.52
-162.94
-166.64
-169.32
-171.73
-174.52
-178.17
-182.77
-187.79
-192.00
-193.67
-191.10
-183.31
-170.68
-155.04
-139.17
-125.86
-116.85
-112.30
-110.98
-111.03
-110.84
-109.62
-107.26
-103.94
-99.64
-94.20
-87.57
-80.32
-73.66
-69.12
-67.73
-69.46
-73.13
-76.85
-78.91
-78.53
-76.17
-73.28
-71.61
-72.51
-76.39
-82.64
-89.89
-96.42
-100.68
-101.71
-99.26
-93.67
-85.46
-74.93
-62.00
-46.35
-27.89
-7.19
14.39
34.83
52.05
64.68
72.65
77.46
81.90
89.22
102.11
121.76
147.36
176.15
203.94
225.99
238.02
237.15
222.61
196.14
161.59
124.07
88.32
57.40
31.91
10.37
-9.45
-29.12
-48.63
-66.72
-81.81
-93.26
-101.86
-109.39
-117.70
-127.69
-138.93
-149.86
-158.65
-163.91
-165.24
-163.10
-158.53
-152.53
-145.81
-138.74
-131.56
-124.65
-118.58
-113.78
-110.10
-106.48
-101.01
-91.57
-76.76
-56.53
-32.37
-6.76
17.69
39.05
56.41
69.73
79.40
85.83
89.32
90.21
89.02
86.56
83.73
81.30
79.73
79.10
79.14
79.44
79.50
78.93
77.47
74.95
71.38
66.81
61.31
54.98
47.95
40.38
32.40
24.09
15.32
5.94
-4.08
-14.41
-24.21
-32.25
-37.26
-38.31
-35.05
-27.89
-17.75
-5.98
5.93
16.58
24.81
29.93
31.90
31.17
28.47
24.39
19.09
12.39
4.16
-5.27
-14.93
-23.41
-29.40
-32.19
-31.90
-29.30
-25.46
-21.21
-17.00
-12.93
-8.94
-5.01
-1.30
1.86
3.96
4.28
1.98
-3.72
-13.23
-26.06
-40.54
-53.78
-62.22
-62.83
-54.21
-37.45
-15.84
6.10
24.26
35.91
40.18
37.43
28.36
13.37
-7.39
-33.47
-63.50
-95.09
-125.33
-151.58
-172.26
-187.11
-197.01
-203.38
-207.70
-211.08
-214.14
-217.17
-220.33
-223.74
-227.55
-231.95
-237.06
-242.96
-249.79
-257.74
-266.85
-276.60
-285.50
-290.97
-289.88
-279.54
-258.79
-228.63
-191.98
-152.63
-113.97
-78.02
-45.11
-14.26
15.99
46.80
78.27
109.36
137.89
161.30
177.29
184.61
183.40
175.26
162.53
147.62
132.37
117.74
103.97
90.81
77.92
64.99
51.87
38.59
25.27
12.17
-0.50
-12.52
-23.93
-34.90
-45.86
-57.22
-69.06
-80.72
-90.50
-95.93
-94.41
-84.10
-64.69
-37.52
-5.18
29.42
63.84
96.61
127.00
154.57
178.72
198.54
212.97
221.33
223.60
220.51
213.35
203.43
191.85
179.25
165.94
152.04
137.72
123.27
108.99
95.11
81.71
68.74
56.07
43.62
31.34
19.16
6.92
-5.76
-19.31
-33.91
-49.08
-63.34
-74.26
-79.00
-75.18
-61.83
-39.89
-12.06
17.96
46.51
70.89
89.76
102.95
111.03
114.74
114.73
111.58
105.98
98.90
91.54
85.13
80.60
78.21
77.55
77.70
77.54
76.21
73.32
69.00
63.71
57.96
52.03
45.92
39.34
31.85
23.06
12.69
0.64
-12.87
-27.19
-41.02
-52.44
-59.17
-59.16
-51.24
-35.72
-14.35
10.05
34.40
56.05
73.37
85.72
93.22
96.37
95.80
92.19
86.31
79.11
71.69
65.15
60.29
57.47
56.50
56.72
57.27
57.42
56.67
54.94
52.40
49.36
46.09
42.76
39.36
35.68
31.36
25.91
18.96
10.47
0.99
-8.18
-15.08
-17.59
-14.01
-3.69
12.55
32.52
53.16
71.40
84.98
92.94
95.72
94.78
91.84
88.41
85.40
83.16
81.67
80.70
79.91
78.81
76.74
72.95
66.74
57.73
46.00
32.18
17.36
2.91
-9.79
-19.71
-26.40
-30.17
-32.06
-33.65
-36.59
-42.07
-50.33
-60.27
-69.70
-75.85
-76.14
-69.17
-55.15
-35.93
-14.35
6.58
24.53
38.16
47.06
51.34
51.32
47.29
39.79
29.70
18.42
7.66
-0.96
-6.41
-8.59
-8.34
-7.13
-6.47
-7.48
-10.53
-15.26
-20.90
-26.66
-32.06
-37.22
-42.69
-49.29
-57.75
-68.53
-81.53
-95.89
-109.94
-121.33
-127.36
-125.73
-115.28
-96.57
-71.90
-44.71
-18.68
3.31
19.76
30.49
36.20
37.77
35.93
31.18
24.07
15.49
6.75
-0.71
-5.72
-7.88
-7.71
-6.38
-5.36
-5.82
-8.23
-12.37
-17.52
-22.88
-27.87
-32.44
-36.88
-41.78
-47.70
-55.15
-64.40
-75.40
-87.51
-99.25
-108.28
-111.92
-107.83
-95.04
-74.42
-48.70
-21.59
3.27
23.31
37.47
46.01
49.87
50.09
47.50
42.74
36.46
29.50
22.89
17.65
14.44
13.40
14.04
15.43
16.52
16.40
14.55
10.91
5.72
-0.59
-7.59
-14.98
-22.63
-30.53
-38.77
-47.54
-57.12
-67.71
-79.21
-90.90
-101.26
-108.03
-108.80
-101.72
-86.38
-64.09
-37.71
-10.83
13.17
32.02
44.79
51.74
53.80
52.05
47.49
41.00
33.55
26.22
20.11
16.03
14.32
14.71
16.47
18.66
20.45
21.25
20.68
18.65
15.12
10.20
4.09
-2.85
-10.23
-17.70
-25.11
-32.53
-40.29
-48.90
-58.88
-70.39
-82.79
-94.44
-102.74
-104.84
-98.53
-83.16
-60.15
-32.63
-4.49
20.72
40.68
54.56
62.64
65.82
65.06
61.31
55.52
48.81
42.34
37.16
33.93
32.69
33.01
34.16
35.43
36.32
36.52
35.74
33.69
30.03
24.49
17.06
8.11
-1.69
-11.55
-20.89
-29.51
-37.70
-46.16
-55.70
-67.00
-80.11
-94.13
-107.05
-116.01
-118.05
-110.99
-94.32
-69.55
-39.85
-9.24
18.57
40.99
56.84
66.19
69.83
68.86
64.49
57.95
50.53
43.45
37.79
34.18
32.79
33.28
34.99
37.19
39.23
40.58
40.79
39.45
36.13
30.58
22.80
13.16
2.37
-8.69
-19.22
-28.75
-37.28
-45.35
-53.88
-63.93
-76.15
-90.22
-104.45
-115.87
-120.90
-116.55
-101.49
-76.75
-45.53
-12.20
18.97
44.88
64.13
76.72
83.46
85.31
83.14
77.76
70.23
61.96
54.49
49.16
46.59
46.53
47.96
49.61
50.44
50.04
48.52
46.25
43.38
39.62
34.41
27.25
18.04
7.31
-3.91
-14.53
-23.74
-31.39
-38.04
-44.77
-52.82
-63.23
-76.38
-91.55
-106.73
-118.83
-124.28
-120.14
-105.11
-80.20
-48.57
-14.62
17.30
44.05
64.20
77.93
86.24
90.24
90.75
88.31
83.48
77.17
70.66
65.33
62.24
61.72
63.27
65.77
67.89
68.65
67.60
64.86
60.95
56.38
51.44
46.01
39.70
31.97
22.52
11.42
-0.75
-13.10
-24.74
-35.02
-43.86
-51.62
-59.04
-67.03
-76.44
-87.84
-101.27
-115.79
-129.30
-138.73
-140.65
-132.46
-113.35
-84.86
-50.60
-15.12
17.30
43.80
63.23
75.92
83.03
85.90
85.71
83.39
79.79
75.72
71.97
69.16
67.62
67.31
67.87
68.82
69.66
70.03
69.63
68.27
65.75
61.98
56.95
50.84
43.94
36.55
28.88
20.96
12.68
3.89
-5.41
-15.06
-24.73
-33.93
-42.25
-49.50
-55.83
-61.83
-68.43
-76.74
-87.59
-100.89
-115.19
-127.57
-134.25
-131.73
-118.06
-93.77
-61.84
-26.87
6.38
34.27
55.11
68.95
76.92
80.40
80.43
77.65
72.60
65.96
58.82
52.41
47.88
45.83
46.13
48.00
50.27
51.85
51.98
50.42
47.32
43.02
37.91
32.18
25.90
19.05
11.73
4.13
-3.39
-10.47
-16.84
-22.50
-27.72
-32.99
-38.89
-45.92
-54.56
-65.13
-77.76
-92.08
-106.79
-119.51
-126.98
-125.94
-114.23
-91.86
-61.26
-26.71
6.95
35.74
57.41
71.58
79.18
81.53
79.80
74.87
67.50
58.69
49.77
42.18
37.09
34.98
35.48
37.54
39.81
41.15
41.01
39.42
36.83
33.77
30.49
26.86
22.45
16.75
9.46
0.69
-8.98
-18.74
-27.76
-35.49
-41.81
-47.07
-51.97
-57.36
-64.08
-72.69
-83.22
-94.88
-105.81
-113.30
-114.33
-106.52
-89.15
-63.56
-33.01
-1.68
26.51
48.92
64.53
73.61
77.13
76.11
71.48
64.11
55.09
45.77
37.53
31.47
28.03
26.93
27.33
28.25
28.92
29.04
28.68
28.10
27.37
26.19
23.89
19.73
13.26
4.59
-5.55
-15.98
-25.58
-33.64
-40.13
-45.69
-51.39
-58.32
-67.32
-78.48
-90.90
-102.55
-110.50
-111.60
-103.50
-85.60
-59.57
-28.95
1.84
28.87
49.66
63.46
70.84
72.91
70.68
64.94
56.49
46.43
36.23
27.37
20.91
17.14
15.58
15.37
15.71
16.16
16.69
17.33
17.87
17.71
15.99
11.97
5.43
-3.17
-12.79
-22.23
-30.59
-37.59
-43.72
-50.01
-57.70
-67.73
-80.28
-94.33
-107.61
-116.90
-118.85
-111.01
-92.83
-66.00
-34.10
-1.63
27.29
49.83
64.90
72.86
74.90
72.44
66.80
59.12
50.48
41.96
34.49
28.76
24.97
22.92
22.11
21.98
22.09
22.14
21.86
20.91
18.86
15.21
9.63
2.17
-6.73
-16.24
-25.47
-33.71
-40.73
-46.94
-53.30
-61.08
-71.21
-83.76
-97.32
-109.08
-115.43
-113.09
-100.34
-77.80
-48.38
-16.40
13.67
38.49
56.36
67.21
72.02
72.10
68.72
63.01
55.96
48.57
41.70
36.04
31.91
29.29
27.92
27.47
27.65
28.20
28.79
28.94
28.00
25.32
20.44
13.36
4.57
-5.09
-14.70
-23.56
-31.41
-38.53
-45.68
-53.90
-64.13
-76.70
-90.82
-104.30
-113.82
-115.83
-107.76
-89.13
-61.99
-30.33
1.06
28.08
48.37
61.42
68.12
69.95
68.27
63.96
57.65
50.02
41.95
34.47
28.55
24.69
22.86
22.52
22.95
23.42
23.40
22.50
20.38
16.67
11.07
3.52
-5.70
-15.90
-26.18
-35.75
-44.22
-51.77
-59.12
-67.33
-77.35
-89.53
-103.09
-115.99
-125.12
-127.17
-119.64
-101.89
-75.49
-43.89
-11.42
17.95
41.54
58.26
68.38
72.87
72.94
69.71
64.27
57.71
51.14
45.54
41.52
39.27
38.55
38.89
39.76
40.71
41.33
41.15
39.58
35.99
29.94
21.43
11.01
-0.36
-11.57
-21.76
-30.63
-38.41
-45.82
-53.85
-63.54
-75.53
-89.67
-104.54
-117.35
-124.45
-122.42
-109.34
-85.80
-54.91
-21.36
10.14
36.21
55.50
68.37
76.03
79.59
79.75
76.86
71.57
65.06
59.00
55.02
54.05
55.93
59.43
62.86
64.81
64.63
62.62
59.61
56.33
52.89
48.69
42.73
34.20
23.07
10.15
-3.14
-15.32
-25.47
-33.55
-40.39
-47.29
-55.60
-66.32
-79.72
-95.11
-110.67
-123.53
-130.25
-127.72
-114.25
-90.33
-58.73
-23.82
9.75
38.34
60.03
74.61
83.01
86.42
85.86
82.13
76.09
68.92
62.04
56.84
54.12
53.86
55.29
57.24
58.74
59.27
58.78
57.42
55.20
51.76
46.50
38.96
29.15
17.70
5.73
-5.60
-15.53
-23.97
-31.57
-39.48
-48.96
-60.82
-74.87
-89.58
-102.15
-109.08
-107.19
-94.72
-72.18
-42.30
-9.31
22.33
49.09
69.02
81.75
87.95
88.79
85.43
79.05
70.88
62.24
54.51
48.76
45.56
44.74
45.54
46.90
47.93
48.09
47.26
45.53
42.89
39.02
33.41
25.59
15.55
3.91
-8.21
-19.60
-29.41
-37.57
-44.85
-52.60
-62.26
-74.69
-89.53
-104.85
-117.30
-122.91
-118.36
-102.24
-75.72
-42.38
-7.08
25.52
52.22
71.77
84.52
91.54
93.90
92.37
87.53
80.25
71.88
64.10
58.49
55.93
56.27
58.46
60.91
62.21
61.68
59.48
56.42
53.35
50.59
47.63
43.39
36.68
26.85
14.24
0.14
-13.72
-25.75
-35.20
-42.39
-48.49
-55.20
-64.05
-75.97
-90.74
-106.80
-121.25
-130.39
-130.64
-119.63
-97.23
-65.82
-29.76
5.86
36.69
60.20
75.91
84.87
88.70
88.70
85.69
80.16
72.81
64.82
57.75
52.99
51.20
51.95
53.86
55.22
54.76
52.14
47.96
43.30
39.04
35.32
31.46
26.27
18.74
8.62
-3.38
-15.84
-27.24
-36.58
-43.81
-49.79
-55.84
-63.35
-73.25
-85.71
-99.97
-114.22
-125.68
-131.07
-127.43
-113.16
-88.80
-57.20
-22.76
9.81
36.88
56.69
69.25
75.76
77.65
76.12
71.99
66.02
59.16
52.60
47.45
44.36
43.28
43.43
43.77
43.44
42.10
40.02
37.73
35.63
33.58
30.89
26.61
19.96
10.78
-0.38
-12.35
-23.80
-33.69
-41.70
-48.22
-54.36
-61.46
-70.64
-82.30
-95.58
-108.34
-117.43
-119.46
-111.92
-94.12
-67.68
-36.17
-4.18
24.13
45.95
60.30
67.74
69.63
67.39
62.22
55.06
46.90
38.89
32.15
27.50
25.16
24.65
25.04
25.38
25.09
24.08
22.55
20.64
18.16
14.55
9.13
1.54
-8.02
-18.66
-29.17
-38.47
-46.01
-52.01
-57.36
-63.31
-70.96
-80.81
-92.23
-103.35
-111.25
-112.59
-104.78
-86.99
-60.74
-29.60
1.78
29.17
49.85
63.01
69.42
70.55
67.84
62.34
54.89
46.40
38.06
31.15
26.65
24.81
25.08
26.29
27.20
27.01
25.59
23.34
20.76
18.00
14.68
10.00
3.19
-5.93
-16.81
-28.22
-38.74
-47.38
-53.89
-58.96
-63.88
-70.17
-79.00
-90.67
-104.18
-117.12
-126.02
-127.17
-117.85
-97.46
-68.00
-33.59
0.68
30.34
52.69
67.10
74.59
76.83
75.36
71.27
65.29
58.24
51.11
45.10
41.12
39.48
39.68
40.63
41.21
40.69
39.04
36.73
34.35
32.11
29.53
25.69
19.59
10.84
-0.14
-12.13
-23.59
-33.27
-40.72
-46.46
-51.79
-58.34
-67.47
-79.71
-94.29
-108.97
-120.33
-124.57
-118.61
-101.32
-74.07
-40.59
-5.85
25.38
49.83
66.32
75.48
78.92
78.34
74.99
69.69
63.08
55.93
49.22
43.81
40.18
38.23
37.38
36.85
36.06
34.85
33.32
31.58
29.50
26.56
22.01
15.28
6.29
-4.38
-15.60
-26.08
-34.80
-41.44
-46.54
-51.35
-57.47
-66.25
-78.11
-92.04
-105.47
-114.73
-116.07
-106.90
-86.83
-58.04
-24.64
8.53
37.28
59.07
73.24
80.56
82.36
79.99
74.48
66.77
57.86
48.96
41.26
35.61
32.22
30.64
30.05
29.66
28.97
27.87
26.40
24.45
21.62
17.28
10.90
2.35
-7.90
-18.88
-29.45
-38.74
-46.39
-52.76
-58.82
-65.80
-74.87
-86.47
-99.83
-112.66
-121.48
-122.47
-112.82
-91.96
-62.01
-27.36
6.70
35.65
56.78
69.58
75.12
75.18
71.44
65.16
57.31
48.84
40.76
34.01
29.16
26.29
24.96
24.49
24.27
23.89
23.20
22.01
20.01
16.72
11.71
4.84
-3.56
-12.75
-21.87
-30.29
-37.84
-44.94
-52.39
-61.20
-72.12
-85.18
-99.23
-111.76
-119.26
-118.09
-105.84
-82.39
-50.33
-14.32
20.25
49.00
69.45
81.38
86.08
85.44
81.20
74.62
66.73
58.45
50.77
44.55
40.30
38.00
37.12
36.95
36.89
36.62
36.05
35.08
33.44
30.49
25.51
18.03
8.06
-3.70
-16.09
-27.83
-38.06
-46.63
-54.22
-62.14
-71.85
-84.27
-99.11
-114.43
-126.76
-131.98
-126.60
-109.15
-80.90
-45.73
-8.93
24.47
51.06
69.60
80.74
86.04
87.09
85.05
80.66
74.67
68.03
61.87
57.16
54.33
53.08
52.55
51.88
50.53
48.57
46.39
44.36
42.37
39.73
35.39
28.47
18.68
6.62
-6.44
-19.01
-29.94
-38.90
-46.42
-53.80
-62.59
-74.08
-88.58
-104.97
-120.51
-131.26
-133.11
-123.10
-100.68
-68.08
-29.80
8.77
43.05
70.36
90.20
103.60
112.05
116.69
118.00
116.22
111.87
106.07
100.47
96.62
95.46
96.97
100.18
103.68
106.12
106.61
104.76
100.54
94.08
85.53
75.09
63.13
50.25
37.30
25.25
14.93
6.80
0.70
-4.20
-9.30
-16.25
-26.47
-40.77
-58.94
-79.64
-100.46
-118.35
-130.22
-133.72
-127.94
-113.65
-93.20
-69.77
-46.57
-25.97
-9.23
3.50
12.73
19.17
23.49
26.22
27.85
28.85
29.64
30.43
31.18
31.64
31.51
30.67
29.30
27.92
27.14
27.45
28.84
30.76
32.22
32.09
29.54
24.32
16.86
8.00
-1.30
-10.37
-18.98
-27.36
-35.96
-45.21
-55.41
-66.54
-78.18
-89.36
-98.52
-103.73
-103.12
-95.46
-80.75
-60.34
-36.72
-12.83
8.71
26.21
38.98
47.20
51.49
52.66
51.48
48.73
45.17
41.50
38.33
36.00
34.65
34.16
34.30
34.81
35.42
35.81
35.57
34.25
31.42
26.80
20.37
12.40
3.42
-5.94
-15.11
-23.83
-32.16
-40.57
-49.74
-60.24
-72.17
-84.76
-96.33
-104.43
-106.45
-100.37
-85.51
-62.89
-35.08
-5.58
22.08
45.19
62.35
73.37
78.94
80.05
77.73
72.86
66.37
59.31
52.75
47.68
44.59
43.37
43.31
43.43
42.85
41.04
37.88
33.52
28.08
21.56
13.84
4.81
-5.38
-16.40
-27.64
-38.56
-48.77
-58.17
-67.06
-75.96
-85.46
-95.92
-107.01
-117.49
-125.23
-127.66
-122.61
-109.11
-87.95
-61.57
-33.48
-7.25
14.33
29.76
38.86
42.44
41.74
38.10
32.68
26.48
20.32
14.93
10.81
8.21
7.04
6.89
7.20
7.34
6.82
5.26
2.42
-1.85
-7.58
-14.64
-22.71
-31.24
-39.63
-47.32
-54.02
-59.91
-65.74
-72.76
-82.33
-95.42
-111.82
-129.63
-145.25
-153.96
-151.31
-134.57
-103.90
-62.56
-16.21
28.72
66.77
94.65
111.60
118.88
118.63
112.97
103.55
91.63
78.35
65.07
53.29
44.29
38.72
36.27
35.76
35.48
33.74
29.30
21.77
11.52
-0.48
-13.07
-25.29
-36.62
-47.04
-56.84
-66.54
-76.70
-87.86
-100.31
-113.62
-126.19
-135.02
-136.21
-126.20
-103.28
-68.71
-26.74
16.55
55.15
84.89
104.28
114.27
117.07
115.02
109.83
102.50
93.83
84.77
76.58
70.53
67.50
67.57
69.97
73.35
76.27
77.50
76.34
72.58
66.35
57.96
47.78
36.21
23.69
10.68
-2.54
-15.95
-29.91
-45.12
-62.24
-81.24
-100.74
-117.77
-128.17
-127.93
-114.69
-88.94
-54.23
-16.26
18.96
46.90
65.61
75.70
79.34
78.93
76.14
71.66
65.62
58.24
50.27
42.97
37.74
35.44
35.97
38.27
40.76
41.91
40.86
37.52
32.49
26.60
20.42
14.10
7.30
-0.54
-9.97
-21.34
-34.82
-50.33
-67.32
-84.49
-99.43
-108.88
-109.49
-99.00
-77.38
-47.17
-12.93
20.17
47.91
68.05
80.48
86.49
87.85
85.97
81.70
75.52
67.98
59.90
52.41
46.60
43.15
42.08
42.63
43.55
43.52
41.58
37.36
31.10
23.35
14.72
5.61
-3.87
-13.77
-24.21
-35.33
-47.35
-60.61
-75.42
-91.51
-107.56
-120.93
-128.08
-125.66
-111.81
-87.23
-55.12
-20.40
11.94
38.27
56.98
68.41
73.99
75.38
73.87
70.34
65.49
60.04
54.83
50.59
47.83
46.62
46.69
47.60
48.85
50.01
50.63
50.20
48.07
43.64
36.58
27.04
15.66
3.39
-8.89
-20.68
-32.06
-43.72
-56.62
-71.65
-89.05
-107.89
-125.78
-139.10
-143.84
-136.86
-117.23
-86.82
-50.04
-12.54
20.53
45.88
62.64
71.95
75.89
76.50
75.16
72.58
69.09
65.09
61.07
57.57
54.94
53.23
52.21
51.54
50.91
50.11
48.98
47.27
44.57
40.34
34.11
25.69
15.36
3.83
-7.92
-19.04
-29.11
-38.36
-47.70
-58.41
-71.57
-87.29
-104.18
-119.18
-128.25
-127.56
-115.01
-91.11
-59.09
-23.86
9.53
37.30
57.74
70.93
78.07
80.55
79.52
75.84
70.36
64.15
58.37
53.97
51.36
50.32
50.15
50.03
49.50
48.54
47.43
46.42
45.27
43.22
39.19
32.30
22.34
10.05
-3.17
-15.73
-26.46
-35.10
-42.29
-49.42
-58.07
-69.46
-83.80
-99.91
-115.01
-125.19
-126.52
-116.32
-94.39
-63.30
-27.72
7.08
36.80
59.23
74.29
83.19
87.47
88.17
85.77
80.49
72.96
64.38
56.41
50.65
48.06
48.60
51.24
54.42
56.59
56.82
54.97
51.62
47.61
43.49
39.25
34.27
27.64
18.69
7.44
-5.33
-18.24
-29.92
-39.54
-47.21
-53.87
-60.96
-69.90
-81.72
-96.73
-114.38
-132.92
-149.40
-159.92
-160.58
-148.68
-124.01
-89.32
-49.65
-10.83
22.37
47.46
64.38
74.65
80.17
82.26
81.48
78.02
72.39
65.71
59.60
55.55
54.32
55.61
58.22
60.59
61.56
60.72
58.47
55.61
52.77
49.97
46.57
41.53
33.96
23.62
11.10
-2.33
-15.15
-26.17
-34.97
-42.00
-48.40
-55.56
-64.69
-76.45
-90.67
-106.12
-120.43
-130.32
-132.30
-123.72
-103.80
-74.33
-39.31
-3.82
27.52
51.77
68.11
77.38
81.05
80.51
76.66
70.17
61.96
53.35
45.90
40.89
38.78
39.07
40.51
41.70
41.72
40.46
38.53
36.75
35.49
34.36
32.19
27.61
19.79
8.79
-4.21
-17.49
-29.37
-38.87
-46.01
-51.75
-57.54
-64.88
-74.85
-87.64
-102.23
-116.27
-126.27
-128.50
-120.09
-100.27
-70.84
-35.88
-0.53
30.56
54.38
70.00
78.11
80.17
77.66
71.79
63.62
54.37
45.44
38.15
33.31
30.97
30.45
30.77
31.08
30.99
30.61
30.18
29.78
28.99
26.96
22.79
15.97
6.63
-4.40
-15.85
-26.49
-35.55
-43.01
-49.64
-56.74
-65.64
-77.16
-91.03
-105.51
-117.51
-123.19
-119.14
-103.59
-77.32
-43.72
-7.85
25.07
51.14
68.61
77.81
80.36
78.11
72.58
64.81
55.67
46.22
37.71
31.27
27.52
26.34
26.96
28.35
29.64
30.40
30.55
30.04
28.59
25.55
20.13
11.81
0.73
-12.22
-25.59
-37.85
-47.95
-55.69
-61.86
-67.96
-75.70
-86.34
-99.92
-114.86
-127.89
-134.79
-131.66
-116.39
-89.64
-54.91
-17.51
17.07
44.81
63.93
74.79
79.00
78.40
74.35
67.79
59.54
50.60
42.24
35.62
31.41
29.55
29.37
29.94
30.57
30.99
31.21
31.17
30.41
28.09
23.24
15.28
4.37
-8.53
-21.98
-34.51
-45.20
-53.92
-61.39
-68.88
-77.88
-89.52
-103.93
-119.79
-134.17
-142.99
-142.26
-129.45
-104.68
-70.94
-33.33
2.58
32.35
53.74
66.77
72.93
74.19
72.17
67.94
62.22
55.65
49.02
43.16
38.66
35.73
34.12
33.36
33.00
32.78
32.58
32.22
31.25
28.95
24.44
17.15
7.11
-4.92
-17.69
-29.84
-40.49
-49.50
-57.54
-65.95
-76.22
-89.37
-105.23
-122.01
-136.30
-143.86
-140.87
-125.46
-98.56
-63.89
-26.82
7.34
34.83
54.15
65.79
71.29
72.30
70.01
65.24
58.75
51.52
44.76
39.56
36.49
35.45
35.84
36.86
37.97
39.01
39.96
40.66
40.52
38.53
33.62
25.15
13.37
-0.58
-15.02
-28.35
-39.64
-48.98
-57.38
-66.44
-77.72
-92.02
-108.90
-126.26
-140.59
-147.69
-143.94
-127.56
-99.51
-63.34
-24.28
12.38
42.66
64.65
78.44
85.38
87.16
85.26
80.77
74.61
67.73
61.18
55.93
52.55
51.10
51.11
51.88
52.73
53.25
53.28
52.65
50.99
47.64
41.87
33.23
21.88
8.71
-4.89
-17.59
-28.60
-38.01
-46.75
-56.32
-68.24
-83.33
-101.09
-119.29
-134.15
-141.15
-136.38
-118.10
-87.57
-49.00
-8.32
28.77
58.30
78.88
91.26
97.29
98.75
96.85
92.32
85.84
78.41
71.33
65.84
62.56
61.43
61.73
62.61
63.44
63.87
63.77
62.84
60.44
55.74
48.00
37.04
23.45
8.46
-6.43
-20.01
-31.86
-42.46
-53.07
-65.25
-80.20
-98.06
-117.30
-134.66
-145.70
-146.03
-132.88
-106.24
-69.27
-27.33
13.62
48.77
75.58
93.75
104.44
109.12
108.93
104.62
96.99
87.38
77.66
69.82
65.19
63.98
65.20
67.20
68.46
68.21
66.63
64.46
62.31
60.10
56.89
51.31
42.28
29.66
14.49
-1.36
-15.98
-28.15
-37.84
-46.12
-54.69
-65.35
-79.27
-96.58
-116.00
-134.79
-148.96
-154.21
-147.12
-126.46
-93.89
-53.76
-11.83
26.39
57.14
79.01
92.60
99.52
101.41
99.46
94.50
87.42
79.51
72.38
67.43
65.39
65.93
67.87
69.71
70.38
69.55
67.61
65.16
62.48
59.12
54.06
46.20
35.00
20.88
5.23
-10.15
-23.66
-34.61
-43.41
-51.39
-60.28
-71.65
-86.26
-103.52
-121.30
-135.98
-143.24
-139.27
-122.09
-92.56
-54.39
-13.16
25.45
57.11
79.84
93.81
100.45
101.46
98.24
91.82
83.22
73.69
64.68
57.45
52.74
50.42
49.79
49.85
49.89
49.65
49.27
48.83
48.09
46.25
42.23
35.18
24.91
12.13
-1.73
-15.10
-26.79
-36.50
-44.88
-53.26
-63.20
-75.92
-91.66
-109.16
-125.58
-136.85
-138.75
-128.33
-105.19
-71.92
-33.47
4.40
36.90
61.41
77.66
86.91
90.81
90.59
86.91
80.31
71.73
62.72
55.12
50.35
48.87
49.98
52.19
53.92
54.19
52.89
50.65
48.31
46.29
44.22
41.02
35.41
26.52
14.46
0.29
-14.30
-27.65
-38.80
-47.77
-55.55
-63.65
-73.60
-86.36
-101.94
-119.02
-134.88
-145.74
-147.63
-137.67
-115.26
-82.64
-44.41
-6.23
26.91
51.94
68.12
76.47
78.80
76.85
71.93
65.01
57.12
49.45
43.16
39.03
37.16
36.95
37.44
37.77
37.60
37.06
36.52
36.07
35.24
33.06
28.43
20.73
10.19
-2.11
-14.65
-26.02
-35.51
-43.29
-50.37
-58.22
-68.17
-80.82
-95.44
-109.74
-120.14
-122.75
-114.62
-95.04
-66.01
-31.78
2.48
32.23
54.80
69.57
77.46
79.93
78.29
73.40
66.03
57.18
48.26
40.85
36.19
34.66
35.70
38.00
40.15
41.15
40.71
39.16
37.00
34.42
31.08
26.18
18.87
8.78
-3.73
-17.50
-30.93
-42.61
-51.80
-58.73
-64.49
-70.64
-78.74
-89.72
-103.51
-118.69
-132.47
-141.13
-140.91
-129.24
-105.85
-73.19
-35.86
0.71
31.92
55.15
70.00
77.71
80.06
78.53
74.10
67.46
59.47
51.36
44.47
39.84
37.77
37.72
38.61
39.33
39.22
38.23
36.73
35.04
33.08
30.17
25.35
17.83
7.53
-4.74
-17.50
-29.16
-38.68
-45.97
-51.87
-57.89
-65.61
-76.12
-89.58
-104.81
-119.27
-129.40
-131.46
-122.71
-102.46
-72.67
-37.52
-2.30
28.20
50.88
64.88
71.18
71.66
68.27
62.44
55.13
47.08
39.11
32.13
26.99
24.18
23.60
24.64
26.44
28.20
29.32
29.49
28.45
25.88
21.43
14.82
6.12
-4.16
-15.12
-25.76
-35.35
-43.69
-51.26
-59.08
-68.35
-79.78
-92.97
-105.97
-115.42
-117.47
-109.16
-89.65
-60.89
-27.13
6.42
35.21
56.57
69.97
76.46
77.65
74.96
69.41
61.76
52.94
44.14
36.60
31.23
28.30
27.38
27.62
28.18
28.57
28.65
28.49
27.96
26.56
23.44
17.72
9.03
-2.25
-14.97
-27.60
-38.78
-47.82
-55.02
-61.48
-68.83
-78.56
-91.44
-106.91
-122.74
-135.23
-140.07
-133.75
-114.88
-85.08
-48.58
-11.02
22.41
48.35
65.86
75.86
80.12
80.27
77.38
72.16
65.31
57.89
51.16
46.14
43.29
42.28
42.26
42.25
41.62
40.33
38.70
37.07
35.36
32.92
28.69
21.80
12.00
-0.07
-13.02
-25.31
-35.81
-44.29
-51.45
-58.73
-67.70
-79.49
-94.18
-110.38
-125.17
-134.52
-134.50
-122.52
-98.54
-65.44
-28.19
7.66
37.77
60.03
74.59
82.96
86.81
87.21
84.54
79.08
71.58
63.49
56.61
52.36
51.17
52.27
54.13
55.16
54.49
52.22
49.17
46.30
44.01
41.78
38.37
32.38
22.99
10.41
-4.08
-18.61
-31.43
-41.60
-49.29
-55.64
-62.36
-71.16
-83.16
-98.47
-115.82
-132.54
-144.79
-148.45
-140.35
-119.48
-87.66
-49.23
-9.78
25.51
53.32
72.67
84.49
90.59
92.50
91.13
86.87
80.18
72.06
64.12
58.11
55.25
55.72
58.51
61.97
64.40
64.79
63.07
59.90
56.16
52.36
48.27
43.06
35.75
25.76
13.31
-0.57
-14.40
-26.79
-37.01
-45.10
-51.84
-58.45
-66.14
-75.93
-88.39
-103.33
-119.48
-134.23
-143.84
-144.33
-132.79
-108.69
-74.42
-34.81
4.44
38.45
64.44
81.97
92.23
96.90
97.33
94.26
88.26
80.17
71.41
63.68
58.51
56.60
57.61
60.34
63.23
64.99
65.01
63.36
60.58
57.20
53.35
48.66
42.36
33.77
22.64
9.40
-4.84
-18.67
-30.83
-40.65
-48.25
-54.52
-60.78
-68.43
-78.55
-91.52
-106.66
-122.06
-134.54
-140.30
-135.90
-119.41
-91.43
-55.12
-15.51
21.95
52.90
75.06
88.24
93.78
93.53
89.12
81.78
72.53
62.53
53.21
45.94
41.65
40.40
41.34
43.15
44.62
45.15
44.80
43.99
42.95
41.31
38.19
32.56
23.87
12.46
-0.46
-13.28
-24.56
-33.68
-40.99
-47.69
-55.38
-65.47
-78.63
-94.24
-110.15
-122.85
-128.18
-122.61
-104.57
-75.26
-38.60
-0.04
35.04
62.90
82.09
93.13
97.56
96.90
92.16
84.04
73.41
61.71
50.90
42.86
38.73
38.36
40.48
43.22
44.98
45.01
43.56
41.46
39.47
37.61
35.15
30.80
23.40
12.56
-1.02
-15.72
-29.57
-40.92
-49.12
-54.66
-59.02
-64.21
-72.07
-83.58
-98.36
-114.41
-128.25
-135.67
-132.89
-117.93
-91.41
-56.71
-19.00
16.30
45.08
65.36
77.29
82.33
82.27
78.59
72.35
64.48
56.10
48.61
43.33
41.04
41.66
44.23
47.32
49.66
50.58
50.18
49.07
47.82
46.44
44.22
40.00
32.77
22.23
9.08
-5.15
-18.70
-30.21
-39.31
-46.59
-53.43
-61.41
-71.88
-85.37
-101.23
-117.40
-130.54
-136.65
-132.17
-115.28
-86.79
-50.31
-11.23
24.82
53.62
73.27
84.06
87.68
86.15
81.11
73.70
64.84
55.52
46.81
39.61
34.36
30.95
28.85
27.48
26.50
25.77
25.19
24.39
22.64
19.09
13.06
4.43
-6.26
-17.98
-29.59
-40.25
-49.68
-58.20
-66.64
-76.07
-87.40
-100.85
-115.38
-128.47
-136.40
-135.24
-122.26
-97.22
-62.85
-24.25
12.68
43.04
64.11
75.72
79.44
77.53
71.98
64.23
55.27
46.02
37.48
30.62
26.09
24.03
24.02
25.29
27.01
28.38
28.77
27.62
24.52
19.21
11.75
2.56
-7.74
-18.35
-28.70
-38.46
-47.71
-56.87
-66.65
-77.86
-91.04
-105.93
-120.98
-133.17
-138.58
-133.53
-116.05
-86.97
-50.02
-10.82
24.90
52.99
71.79
81.95
85.44
84.39
80.44
74.51
67.28
59.48
52.06
46.02
42.00
40.12
39.98
40.85
41.95
42.68
42.57
41.17
38.04
32.78
25.19
15.46
4.19
-7.65
-19.09
-29.50
-38.75
-47.35
-56.29
-66.76
-79.56
-94.56
-110.16
-123.25
-129.81
-126.13
-110.29
-83.10
-48.17
-10.88
23.29
50.40
68.83
79.17
83.26
83.10
80.18
75.33
69.06
61.98
54.93
48.85
44.43
41.87
40.80
40.58
40.55
40.28
39.59
38.27
35.98
32.16
26.30
18.21
8.23
-2.73
-13.65
-23.68
-32.56
-40.69
-49.07
-58.90
-71.12
-85.80
-101.64
-115.80
-124.38
-123.50
-110.71
-86.16
-52.88
-15.94
19.13
48.00
68.56
80.97
86.75
87.69
85.17
80.00
72.80
64.43
56.12
49.15
44.49
42.33
42.13
42.95
43.87
44.33
44.17
43.39
41.83
39.03
34.27
26.94
16.92
4.77
-8.33
-21.01
-32.17
-41.42
-49.23
-56.75
-65.44
-76.54
-90.55
-106.71
-122.73
-135.00
-139.35
-132.29
-112.40
-81.16
-42.81
-3.15
32.18
59.38
77.09
86.14
88.47
86.11
80.59
72.95
64.14
55.27
47.61
42.21
39.47
39.07
40.08
41.42
42.29
42.36
41.59
39.99
37.27
32.84
26.10
16.78
5.30
-7.25
-19.55
-30.54
-39.88
-48.09
-56.38
-66.09
-78.17
-92.59
-107.89
-121.24
-128.88
-127.09
-113.52
-88.19
-53.91
-15.50
21.53
52.64
75.32
89.24
95.54
95.85
91.62
84.01
74.21
63.70
54.21
47.29
43.75
43.34
44.90
46.90
48.10
47.95
46.60
44.47
41.84
38.44
33.52
26.19
15.97
3.13
-11.20
-25.41
-37.99
-48.15
-56.12
-63.10
-70.84
-81.00
-94.50
-110.95
-128.31
-143.03
-150.78
-147.60
-131.27
-102.35
-64.27
-22.46
17.33
50.62
75.24
91.25
100.08
103.46
102.65
98.44
91.52
82.96
74.28
67.11
62.63
61.05
61.55
62.67
63.03
61.88
59.30
55.94
52.52
49.19
45.33
39.79
31.47
19.96
5.87
-9.27
-23.64
-35.78
-45.20
-52.52
-59.18
-66.90
-77.11
-90.41
-106.12
-122.11
-134.98
-140.69
-135.67
-118.15
-88.95
-51.61
-11.40
26.20
57.09
79.38
93.27
100.19
101.76
99.15
93.13
84.49
74.51
64.95
57.63
53.70
53.15
54.81
56.87
57.69
56.51
53.61
49.91
46.37
43.27
40.01
35.35
28.07
17.59
4.44
-9.96
-23.77
-35.52
-44.65
-51.68
-57.94
-65.08
-74.49
-86.84
-101.74
-117.51
-131.26
-139.30
-138.04
-125.10
-100.37
-66.33
-27.51
10.78
43.97
69.34
86.23
95.49
98.56
96.79
91.12
82.49
72.13
61.74
53.20
47.94
46.41
47.84
50.56
52.74
53.11
51.46
48.44
45.11
42.12
39.33
35.75
30.09
21.42
9.79
-3.69
-17.26
-29.24
-38.73
-45.96
-52.13
-58.90
-67.75
-79.47
-93.86
-109.54
-124.00
-133.92
-135.77
-126.81
-106.08
-75.11
-37.78
0.70
35.18
62.05
79.85
89.10
91.44
88.75
82.60
74.23
64.79
55.55
47.79
42.42
39.66
38.95
39.22
39.43
38.97
37.80
36.30
34.75
33.03
30.48
26.17
19.29
9.64
-2.17
-14.82
-26.82
-37.01
-45.10
-51.69
-58.11
-65.86
-76.08
-88.93
-103.29
-116.74
-125.88
-127.16
-117.89
-97.29
-67.06
-31.13
5.33
37.36
61.52
76.55
83.08
82.92
78.06
70.15
60.44
50.04
40.09
31.76
25.93
22.86
22.10
22.73
23.75
24.51
24.75
24.42
23.35
21.12
17.10
10.81
2.27
-7.91
-18.66
-28.87
-37.88
-45.64
-52.79
-60.43
-69.68
-81.19
-94.63
-108.37
-119.49
-124.29
-119.37
-102.85
-75.33
-40.08
-2.19
32.83
60.67
79.19
88.45
90.11
86.33
79.07
69.80
59.69
49.88
41.42
35.20
31.55
30.09
29.93
30.02
29.66
28.63
27.10
25.21
22.78
19.18
13.58
5.46
-5.05
-17.06
-29.20
-40.15
-49.21
-56.53
-63.12
-70.46
-79.96
-92.31
-106.95
-121.78
-133.33
-137.52
-130.85
-111.74
-81.39
-43.70
-4.24
31.47
59.46
78.14
88.12
91.21
89.42
84.30
76.91
68.17
59.22
51.34
45.64
42.64
42.00
42.71
43.55
43.62
42.60
40.67
38.20
35.28
31.56
26.30
18.83
8.97
-2.78
-15.26
-27.12
-37.34
-45.77
-53.09
-60.65
-69.90
-81.84
-96.49
-112.53
-127.28
-136.95
-137.65
-126.61
-103.32
-70.11
-31.66
6.34
38.99
63.44
79.25
87.71
90.69
89.72
85.72
79.31
71.36
63.22
56.47
52.33
51.10
52.03
53.67
54.54
53.85
51.62
48.61
45.61
42.92
39.98
35.68
28.86
19.03
6.74
-6.61
-19.28
-29.94
-38.23
-44.79
-51.01
-58.47
-68.44
-81.34
-96.41
-111.57
-123.53
-128.49
-123.18
-106.03
-78.01
-42.65
-5.07
29.49
57.17
76.32
87.26
91.58
91.04
87.04
80.53
72.37
63.68
55.78
49.91
46.68
45.83
46.32
46.90
46.62
45.19
42.95
40.38
37.71
34.55
30.10
23.52
14.40
3.13
-9.22
-21.29
-31.91
-40.58
-47.60
-54.00
-61.10
-70.17
-81.77
-95.44
-109.41
-120.74
-125.86
-121.55
-106.09
-80.05
-46.47
-10.06
24.10
51.98
71.49
82.53
86.40
84.84
79.45
71.42
61.81
51.80
42.71
35.75
31.62
30.24
30.86
32.38
33.81
34.53
34.26
32.87
30.19
25.89
19.66
11.48
1.74
-8.75
-19.07
-28.54
-36.99
-44.85
-52.99
-62.48
-74.03
-87.65
-102.16
-115.15
-123.23
-122.91
-111.71
-89.26
-57.73
-21.42
14.38
44.98
67.42
80.91
86.40
85.69
80.67
72.84
63.42
53.54
44.37
37.03
32.20
29.90
29.50
30.04
30.60
30.61
29.84
28.25
25.68
21.73
15.91
7.94
-2.03
-13.29
-24.79
-35.57
-45.09
-53.49
-61.63
-70.74
-81.99
-95.83
-111.49
-126.59
-137.44
-139.93
-130.79
-108.99
-76.31
-37.14
2.84
38.31
65.74
83.98
93.83
97.07
95.52
90.57
83.17
74.30
65.15
57.03
50.93
47.14
45.17
44.04
42.82
41.07
38.91
36.70
34.55
32.01
28.16
22.03
13.15
1.88
-10.65
-22.99
-34.02
-43.34
-51.45
-59.52
-68.93
-80.76
-95.23
-111.32
-126.53
-137.19
-139.28
-129.69
-107.47
-74.57
-35.49
4.01
38.67
65.15
82.55
91.90
95.09
93.88
89.51
82.83
74.76
66.49
59.36
54.35
51.77
51.06
51.14
50.96
49.93
48.12
45.87
43.43
40.50
36.25
29.72
20.34
8.38
-5.04
-18.34
-30.11
-39.73
-47.58
-54.89
-63.30
-74.22
-88.17
-104.35
-120.39
-132.64
-136.92
-129.82
-109.92
-78.60
-39.94
0.43
36.97
65.75
85.29
96.28
100.64
100.38
97.00
91.34
84.07
75.96
68.03
61.29
56.36
53.22
51.32
49.95
48.54
46.89
45.00
42.84
40.10
36.16
30.29
22.00
11.36
-0.97
-13.87
-26.15
-36.97
-46.18
-54.42
-62.91
-73.02
-85.61
-100.47
-115.81
-128.41
-134.29
-129.86
-113.30
-85.40
-49.68
-11.43
23.81
51.83
70.68
80.61
83.36
81.07
75.49
67.80
58.81
49.33
40.36
33.01
28.14
26.04
26.33
28.11
30.15
31.33
30.77
28.07
23.22
16.56
8.59
-0.13
-9.20
-18.35
-27.52
-36.81
-46.57
-57.27
-69.47
-83.31
-98.14
-112.06
-121.98
-124.32
-116.09
-96.16
-66.04
-29.71
7.45
40.26
65.09
80.62
87.56
87.81
83.52
76.37
67.48
57.66
47.73
38.66
31.40
26.63
24.51
24.58
25.91
27.37
27.87
26.59
23.10
17.34
9.61
0.41
-9.65
-20.08
-30.53
-40.87
-51.24
-62.03
-73.83
-87.15
-102.02
-117.40
-130.82
-138.62
-136.92
-122.96
-96.47
-60.23
-19.41
19.95
52.82
76.49
90.76
97.23
98.07
95.09
89.41
81.70
72.74
63.61
55.68
50.08
47.32
47.09
48.45
50.14
51.00
50.21
47.35
42.38
35.51
27.10
17.62
7.55
-2.62
-12.54
-22.09
-31.50
-41.39
-52.62
-65.86
-81.05
-96.85
-110.39
-117.80
-115.31
-100.67
-74.27
-39.36
-1.23
34.43
63.19
82.94
93.88
97.72
96.61
92.31
85.90
78.12
69.71
61.61
54.83
50.12
47.67
47.05
47.38
47.72
47.29
45.65
42.56
37.91
31.64
23.77
14.54
4.42
-6.01
-16.20
-25.92
-35.34
-45.08
-55.91
-68.41
-82.40
-96.60
-108.42
-114.40
-111.24
-96.91
-71.80
-38.91
-3.21
29.95
56.31
73.87
82.86
85.04
82.63
77.37
70.35
62.14
53.25
44.42
36.58
30.59
26.95
25.57
25.80
26.58
26.79
25.55
22.42
17.49
11.24
4.26
-2.98
-10.27
-17.64
-25.29
-33.44
-42.39
-52.53
-64.20
-77.40
-91.24
-103.70
-111.69
-111.83
-101.67
-80.74
-51.15
-17.15
16.10
44.02
63.85
75.02
78.69
76.84
71.34
63.56
54.35
44.52
35.02
27.02
21.57
19.18
19.58
21.67
24.00
25.14
24.15
20.70
15.08
7.87
-0.22
-8.65
-17.06
-25.33
-33.50
-41.79
-50.54
-60.30
-71.55
-84.42
-98.18
-110.90
-119.51
-120.50
-111.01
-90.17
-59.71
-23.73
12.37
43.60
66.72
80.73
86.66
86.52
82.39
75.84
67.91
59.41
51.22
44.22
39.15
36.23
35.14
35.13
35.37
35.20
34.18
32.05
28.51
23.22
15.90
6.52
-4.52
-16.40
-28.09
-38.73
-47.93
-55.95
-63.72
-72.49
-83.36
-96.68
-111.40
-124.95
-133.52
-133.08
-120.80
-96.28
-62.03
-22.92
15.25
47.51
71.02
85.40
92.04
93.01
90.10
84.46
76.88
68.20
59.63
52.42
47.49
44.97
44.17
43.97
43.44
42.19
40.34
38.21
35.83
32.71
28.02
21.03
11.56
0.21
-11.86
-23.36
-33.41
-41.94
-49.67
-57.85
-67.81
-80.29
-94.92
-109.83
-121.81
-126.92
-121.75
-104.67
-76.68
-41.39
-4.00
30.23
57.49
76.16
86.65
90.51
89.53
85.12
78.25
69.81
60.79
52.42
45.74
41.32
39.05
38.22
37.93
37.45
36.45
34.98
33.14
30.81
27.49
22.48
15.18
5.54
-5.81
-17.66
-28.70
-38.04
-45.62
-52.26
-59.38
-68.44
-80.32
-94.71
-109.85
-122.57
-129.01
-125.59
-110.36
-83.80
-49.07
-11.15
24.60
53.97
74.88
87.37
92.87
93.09
89.40
82.65
73.65
63.54
53.93
46.44
42.12
40.98
41.92
43.32
43.74
42.50
39.80
36.35
32.76
29.07
24.69
18.66
10.31
-0.32
-12.36
-24.41
-35.20
-43.96
-50.87
-56.78
-62.96
-70.58
-80.32
-92.02
-104.48
-115.39
-121.64
-120.02
-108.17
-85.70
-54.62
-19.05
15.88
45.60
67.17
79.87
84.68
83.46
78.01
69.76
59.77
49.13
39.08
30.88
25.46
23.01
23.00
24.35
25.92
26.86
26.75
25.47
22.93
18.99
13.42
6.10
-2.74
-12.54
-22.48
-31.89
-40.42
-48.33
-56.36
-65.52
-76.52
-89.29
-102.60
-114.00
-120.28
-118.22
-105.77
-82.88
-51.86
-16.94
16.91
45.29
65.46
76.65
79.73
76.40
68.53
57.74
45.35
32.57
20.58
10.38
2.54
-2.95
-6.71
-9.67
-12.76
-16.66
-21.75
-28.26
-36.37
-46.33
-58.39
-72.68
-88.99
-106.80
-125.34
-143.86
-161.85
-179.34
-196.97
-215.92
-237.44
-262.22
-289.67
-317.65
-342.59
-360.52
-368.27
-364.54
-350.33
-328.51
-302.69
-276.02
-250.50
-226.93
-205.43
-186.05
-169.09
-154.88
-143.38
-133.76
-124.46
-113.65
-99.99
-83.37
-65.05
-47.31
-32.52
-22.27
-16.70
-14.59
-13.72
-11.41
-4.80
8.94
32.13
65.53
107.24
152.16
192.91
222.13
235.24
232.06
216.45
194.23
170.63
148.71
129.66
114.16
103.61
100.13
105.37
118.94
137.83
157.30
172.83
181.90
184.64
183.32
180.83
179.30
179.43
180.57
181.53
181.38
179.99
178.08
176.80
177.07
179.15
182.51
186.10
188.81
189.85
189.00
186.45
182.63
177.95
172.73
167.20
161.54
155.89
150.21
144.20
137.32
128.99
118.89
107.21
94.78
83.06
73.96
69.63
72.14
83.20
103.72
133.65
171.87
216.19
263.32
308.93
347.85
374.69
384.78
375.23
345.64
298.18
236.76
165.88
89.49
10.59
-68.53
-145.77
-218.87
-285.67
-344.83
-396.27
-441.11
-481.03
-517.28
-550.04
-578.47
-601.22
-617.14
-625.69
-626.63
-619.57
-603.73
-577.91
-540.96
-492.17
-431.43
-359.19
-276.60
-185.69
-89.74
6.77
98.75
181.63
252.41
310.17
355.68
390.62
416.71
435.26
447.19
453.18
453.85
449.66
440.92
427.85
410.81
390.55
368.24
345.16
322.38
300.66
280.51
262.23
245.49
228.83
209.49
183.93
149.06
103.57
48.76
-11.67
-72.68
-129.34
-177.72
-215.09
-239.62
-250.26
-246.96
-231.17
-206.01
-175.77
-144.70
-115.86
-90.58
-68.76
-49.71
-32.94
-18.43
-6.53
2.52
8.93
13.30
16.35
18.62
20.37
21.67
22.43
22.57
21.94
20.45
17.96
14.46
10.11
5.18
0.00
-5.22
-10.53
-16.22
-22.74
-30.60
-40.14
-51.38
-63.69
-75.74
-85.42
-90.32
-88.26
-78.16
-60.52
-37.51
-12.36
11.51
31.54
46.46
56.29
61.80
63.87
63.18
60.11
55.07
48.76
42.17
36.49
32.61
30.89
31.05
32.29
33.66
34.29
33.67
31.60
28.14
23.51
17.97
11.80
5.16
-1.82
-9.22
-17.23
-26.19
-36.37
-47.74
-59.71
-70.92
-79.38
-82.85
-79.56
-68.87
-51.60
-29.94
-6.87
14.68
32.51
45.56
53.81
57.90
58.71
57.06
53.62
48.99
43.82
38.81
34.61
31.73
30.38
30.45
31.55
33.10
34.47
34.98
34.09
31.39
26.75
20.26
12.32
3.50
-5.64
-14.64
-23.33
-31.86
-40.73
-50.60
-62.04
-74.97
-88.46
-100.53
-108.52
-109.83
-102.84
-87.51
-65.57
-39.98
-14.08
9.29
28.38
42.61
52.23
57.90
60.33
60.16
58.04
54.72
51.02
47.74
45.43
44.25
43.98
44.14
44.29
44.17
43.73
42.97
41.77
39.75
36.36
31.16
24.05
15.45
6.11
-3.11
-11.64
-19.44
-26.96
-35.00
-44.36
-55.48
-68.08
-81.01
-92.28
-99.39
-99.98
-92.66
-77.53
-56.28
-31.76
-7.14
14.94
32.95
46.46
55.80
61.53
64.17
64.08
61.68
57.62
52.78
48.17
44.60
42.43
41.49
41.26
41.09
40.59
39.63
38.31
36.72
34.69
31.80
27.54
21.61
14.09
5.52
-3.31
-11.60
-18.92
-25.35
-31.48
-38.14
-46.16
-55.97
-67.30
-78.99
-89.06
-95.12
-94.97
-87.37
-72.51
-52.03
-28.64
-5.34
15.36
31.90
43.76
51.17
54.71
55.03
52.81
48.77
43.77
38.71
34.38
31.28
29.54
28.92
29.00
29.37
29.75
30.03
30.11
29.79
28.66
26.23
22.13
16.25
8.92
0.76
-7.40
-14.91
-21.47
-27.25
-32.89
-39.21
-47.01
-56.54
-67.25
-77.60
-85.29
-87.87
-83.51
-71.73
-53.65
-31.72
-8.98
11.77
28.66
40.88
48.49
52.00
51.95
48.88
43.48
36.71
29.81
24.05
20.33
18.88
19.25
20.53
21.79
22.44
22.35
21.66
20.53
18.89
16.35
12.41
6.69
-0.81
-9.63
-19.02
-28.13
-36.39
-43.66
-50.34
-57.17
-65.03
-74.43
-85.22
-96.38
-105.99
-111.67
-111.15
-103.01
-87.23
-65.34
-40.10
-14.69
8.06
26.32
39.48
47.83
52.14
53.19
51.62
47.98
42.93
37.31
32.10
28.10
25.70
24.79
24.85
25.24
25.53
25.60
25.58
25.61
25.51
24.76
22.57
18.28
11.69
3.17
-6.37
-15.89
-24.52
-31.99
-38.62
-45.22
-52.75
-61.94
-72.95
-85.05
-96.64
-105.39
-108.87
-105.22
-93.80
-75.51
-52.59
-28.02
-4.66
15.31
30.78
41.55
48.00
50.76
50.47
47.77
43.41
38.26
33.18
28.94
25.96
24.27
23.60
23.49
23.56
23.59
23.50
23.21
22.48
20.88
17.86
13.03
6.32
-1.84
-10.69
-19.34
-27.13
-33.86
-39.94
-46.20
-53.57
-62.72
-73.62
-85.25
-95.72
-102.53
-103.25
-96.31
-81.59
-60.58
-36.07
-11.33
10.77
28.39
40.90
48.59
52.21
52.55
50.29
46.05
40.57
34.77
29.56
25.69
23.50
22.84
23.26
24.25
25.29
26.01
26.08
25.14
22.83
18.88
13.27
6.27
-1.54
-9.58
-17.37
-24.74
-31.91
-39.42
-47.96
-58.11
-69.90
-82.51
-94.09
-102.07
-103.84
-97.64
-83.20
-61.98
-36.77
-10.88
12.76
32.09
46.17
54.92
58.83
58.63
55.22
49.60
42.91
36.24
30.53
26.35
23.83
22.77
22.73
23.27
24.00
24.63
24.81
24.13
22.03
17.99
11.79
3.60
-5.95
-15.95
-25.56
-34.24
-42.03
-49.51
-57.64
-67.45
-79.46
-93.23
-107.10
-118.32
-123.69
-120.55
-107.69
-85.95
-58.02
-27.70
1.22
25.88
44.85
57.97
65.89
69.52
69.72
67.26
62.89
57.54
52.18
47.68
44.57
42.91
42.38
42.50
42.87
43.22
43.44
43.29
42.33
39.95
35.51
28.73
19.81
9.49
-1.29
-11.66
-21.19
-30.04
-38.81
-48.43
-59.72
-72.96
-87.56
-101.82
-113.06
-118.21
-114.71
-101.44
-79.29
-51.05
-20.58
8.29
32.81
51.69
64.95
73.26
77.41
78.00
75.54
70.77
64.76
58.87
54.28
51.61
50.77
51.10
51.80
52.33
52.56
52.57
52.35
51.57
49.49
45.35
38.69
29.70
19.17
8.23
-2.12
-11.32
-19.48
-27.22
-35.54
-45.41
-57.43
-71.41
-86.09
-99.14
-107.57
-108.50
-100.12
-82.42
-57.31
-28.24
0.91
26.81
47.40
62.04
71.10
75.42
75.87
73.20
68.19
61.79
55.21
49.61
45.77
43.87
43.49
43.87
44.32
44.47
44.25
43.76
42.84
41.06
37.76
32.38
24.80
15.41
5.10
-5.14
-14.52
-22.78
-30.21
-37.56
-45.78
-55.60
-67.12
-79.51
-90.91
-98.71
-100.23
-93.57
-78.31
-55.94
-29.34
-2.13
22.41
42.07
55.97
64.30
67.89
67.70
64.60
59.42
53.03
46.41
40.60
36.43
34.29
34.06
35.20
36.98
38.74
40.05
40.56
40.02
38.12
34.55
29.20
22.21
14.07
5.46
-3.01
-11.05
-18.73
-26.58
-35.27
-45.40
-57.04
-69.42
-80.79
-88.67
-90.50
-84.39
-70.03
-48.84
-23.69
1.94
24.92
43.21
56.03
63.60
66.64
65.92
62.21
56.34
49.35
42.44
36.77
33.09
31.54
31.66
32.63
33.63
34.15
34.03
33.36
32.16
30.22
27.05
22.16
15.32
6.79
-2.69
-12.11
-20.62
-27.86
-34.08
-40.12
-47.01
-55.58
-66.13
-78.08
-89.91
-99.36
-103.81
-101.11
-90.19
-71.64
-47.65
-21.46
3.57
24.94
41.37
52.91
60.27
64.28
65.49
64.14
60.56
55.40
49.79
45.01
42.12
41.48
42.63
44.57
46.13
46.51
45.48
43.36
40.67
37.84
34.87
31.38
26.78
20.56
12.61
3.29
-6.57
-16.07
-24.42
-31.37
-37.19
-42.58
-48.43
-55.55
-64.42
-74.96
-86.42
-97.22
-105.16
-107.81
-103.24
-90.81
-71.51
-47.89
-23.26
-0.76
17.61
31.21
40.47
46.26
49.26
49.84
48.17
44.70
40.28
36.10
33.32
32.55
33.67
35.85
38.01
39.25
39.20
38.04
36.29
34.42
32.52
30.24
26.98
22.12
15.39
7.04
-2.26
-11.63
-20.29
-27.81
-34.21
-39.92
-45.63
-52.06
-59.82
-69.15
-79.70
-90.31
-99.05
-103.54
-101.63
-92.15
-75.42
-53.37
-28.99
-5.43
14.86
30.56
41.48
48.13
51.20
51.28
48.86
44.49
39.02
33.56
29.18
26.63
26.10
27.12
28.84
30.37
31.14
31.03
30.27
29.20
28.00
26.48
24.15
20.40
14.86
7.56
-0.95
-9.86
-18.29
-25.67
-31.88
-37.27
-42.52
-48.40
-55.60
-64.53
-75.16
-86.70
-97.52
-105.33
-107.59
-102.43
-89.34
-69.48
-45.49
-20.69
1.87
20.16
33.35
41.61
45.59
46.06
43.72
39.33
33.78
28.09
23.23
19.89
18.26
18.05
18.70
19.61
20.41
20.99
21.34
21.38
20.77
18.98
15.48
9.98
2.62
-6.02
-15.07
-23.74
-31.54
-38.48
-45.03
-51.96
-60.01
-69.57
-80.31
-91.07
-99.86
-104.31
-102.32
-92.74
-75.92
-53.74
-29.09
-5.13
15.56
31.44
42.11
47.91
49.54
47.79
43.46
37.48
30.92
24.95
20.47
17.98
17.38
18.13
19.48
20.80
21.67
21.95
21.57
20.33
17.90
13.86
7.95
0.23
-8.81
-18.40
-27.68
-36.07
-43.46
-50.28
-57.39
-65.75
-75.98
-87.85
-100.06
-110.22
-115.43
-113.10
-101.88
-82.29
-56.67
-28.50
-1.44
21.70
39.39
51.37
58.19
60.64
59.47
55.35
49.05
41.57
34.09
27.78
23.49
21.54
21.66
23.19
25.26
27.09
28.08
27.78
25.92
22.31
16.89
9.78
1.34
-7.85
-17.17
-26.18
-34.79
-43.38
-52.71
-63.65
-76.68
-91.46
-106.40
-118.83
-125.54
-123.66
-111.76
-90.40
-62.13
-30.73
-0.15
26.48
47.43
62.26
71.45
75.81
76.23
73.57
68.81
63.01
57.25
52.46
49.13
47.34
46.80
47.04
47.62
48.18
48.32
47.55
45.23
40.74
33.71
24.21
12.80
0.42
-11.98
-23.73
-34.63
-45.07
-55.91
-68.17
-82.67
-99.45
-117.29
-133.58
-144.68
-146.86
-137.60
-116.61
-86.10
-50.28
-14.02
18.50
44.76
64.04
76.91
84.48
87.78
87.62
84.70
79.88
74.29
69.09
65.22
63.04
62.35
62.57
63.05
63.41
63.45
63.03
61.85
59.31
54.67
47.40
37.43
25.40
12.40
-0.38
-12.14
-22.77
-32.87
-43.50
-55.78
-70.33
-86.82
-103.62
-117.97
-126.41
-125.78
-114.24
-92.06
-61.74
-27.38
6.57
36.50
60.40
77.92
89.72
96.75
99.70
99.00
95.11
88.90
81.82
75.55
71.51
70.28
71.43
73.72
75.72
76.38
75.39
73.15
70.32
67.28
63.85
59.24
52.48
42.94
30.77
16.92
2.84
-10.10
-21.13
-30.30
-38.47
-46.87
-56.76
-68.94
-83.50
-99.51
-114.98
-126.96
-132.16
-127.81
-112.67
-87.60
-55.50
-20.53
13.07
42.05
64.71
80.78
90.91
96.03
96.97
94.45
89.34
82.75
76.08
70.70
67.54
66.81
67.91
69.70
71.05
71.17
69.92
67.63
64.80
61.59
57.69
52.37
44.86
34.81
22.60
9.26
-3.87
-15.64
-25.60
-34.08
-42.04
-50.64
-60.85
-73.14
-87.29
-102.21
-115.92
-125.72
-128.76
-122.79
-107.09
-82.87
-53.12
-21.80
7.28
31.39
49.25
60.85
66.82
68.04
65.37
59.72
52.17
43.97
36.35
30.25
26.12
23.82
22.82
22.42
22.05
21.37
20.29
18.75
16.55
13.26
8.32
1.34
-7.66
-18.11
-29.03
-39.30
-48.20
-55.65
-62.28
-69.11
-77.13
-86.77
-97.49
-107.67
-114.83
-116.16
-109.32
-93.16
-68.24
-36.87
-2.58
30.72
59.74
82.46
98.23
107.42
110.84
109.20
103.05
92.93
79.76
64.97
50.41
37.85
28.59
23.22
21.63
23.32
27.62
33.80
40.96
47.84
52.88
54.37
50.94
41.99
27.91
9.99
-9.88
-29.74
-48.10
-64.09
-77.55
-88.61
-97.29
-103.04
-104.70
-100.74
-89.81
-71.43
-46.42
-16.88
14.28
44.08
70.26
91.60
107.98
119.97
128.34
133.67
136.23
136.11
133.28
127.84
119.91
109.77
97.77
84.35
70.19
56.12
43.07
31.75
22.45
14.89
8.34
1.99
-4.75
-11.97
-19.32
-26.24
-32.36
-37.68
-42.73
-48.42
-55.79
-65.68
-78.26
-92.74
-107.24
-119.01
-125.02
-122.86
-111.59
-92.26
-67.62
-41.39
-17.12
2.70
17.06
26.19
30.99
32.48
31.36
28.16
23.34
17.52
11.45
5.94
1.57
-1.39
-3.00
-3.51
-3.20
-2.33
-1.12
0.09
0.88
0.68
-0.97
-4.29
-9.18
-15.20
-21.82
-28.56
-35.22
-41.93
-49.09
-57.29
-66.90
-77.74
-88.74
-97.82
-102.35
-99.80
-88.79
-69.73
-44.86
-17.70
8.06
29.59
45.50
55.77
61.32
63.32
62.78
60.41
56.80
52.48
48.03
43.99
40.71
38.31
36.70
35.69
35.06
34.59
34.06
33.18
31.60
29.01
25.22
20.27
14.38
7.91
1.23
-5.42
-11.99
-18.66
-25.82
-33.87
-42.92
-52.50
-61.30
-67.35
-68.49
-63.20
-51.26
-34.07
-14.34
4.78
20.58
31.59
37.72
39.94
39.63
38.02
35.83
33.34
30.66
27.86
25.20
23.03
21.70
21.46
22.34
24.12
26.42
28.75
30.56
31.35
30.78
28.68
25.05
20.00
13.70
6.35
-1.82
-10.59
-19.82
-29.56
-40.05
-51.40
-63.31
-74.59
-83.27
-86.91
-83.56
-72.48
-54.65
-32.66
-9.89
10.47
26.21
36.49
41.69
42.82
41.06
37.34
32.29
26.38
20.09
13.92
8.49
4.32
1.69
0.51
0.35
0.54
0.42
-0.59
-2.82
-6.38
-11.17
-16.97
-23.45
-30.22
-36.94
-43.36
-49.48
-55.67
-62.68
-71.44
-82.67
-96.31
-111.04
-124.26
-132.50
-132.42
-122.02
-101.38
-72.79
-40.11
-7.54
21.50
45.05
62.66
74.88
82.64
86.75
87.77
86.03
81.83
75.58
67.79
59.12
50.28
41.97
34.79
29.15
25.12
22.50
20.73
19.19
17.23
14.46
10.73
6.15
0.90
-4.87
-11.16
-18.18
-26.31
-36.05
-47.86
-61.82
-77.22
-92.35
-104.47
-110.37
-107.35
-94.14
-71.60
-42.59
-11.17
18.60
43.72
62.75
75.76
83.63
87.46
88.14
86.28
82.36
77.04
71.12
65.49
60.92
57.82
56.18
55.65
55.67
55.58
54.78
52.62
48.53
42.02
32.87
21.22
7.64
-6.98
-21.74
-35.94
-49.34
-62.18
-75.07
-88.67
-103.23
-118.11
-131.50
-140.52
-141.87
-132.83
-112.35
-81.56
-43.74
-3.40
35.01
68.09
94.13
112.88
125.02
131.51
133.20
130.67
124.50
115.40
104.29
92.25
80.38
69.53
60.22
52.63
46.60
41.79
37.67
33.56
28.65
22.18
13.51
2.41
-10.85
-25.55
-40.72
-55.50
-69.43
-82.62
-95.65
-109.28
-123.85
-138.77
-152.07
-160.53
-160.34
-148.30
-122.94
-85.40
-39.39
9.68
56.07
95.07
123.95
142.10
150.55
151.20
146.12
137.15
125.83
113.41
101.01
89.57
79.81
72.13
66.52
62.62
59.72
56.94
53.34
48.13
40.85
31.44
20.27
8.00
-4.67
-17.18
-29.24
-40.82
-52.13
-63.53
-75.57
-88.74
-103.14
-117.96
-131.20
-139.79
-140.35
-130.33
-109.08
-78.44
-42.31
-5.67
26.90
52.23
69.12
78.04
80.44
78.02
72.27
