1539018034.00
64.000000
-0.00
-0.00
-0.00
-0.00
-0.00
-0.00
-0.00
-0.00
-0.00
-0.00
0.00
0.01
0.01
-0.00
-0.03
-0.05
-0.05
0.00
0.13
0.36
0.66
1.01
1.37
1.72
2.06
2.40
2.79
3.24
3.80
4.42
5.06
5.66
6.20
6.68
7.15
7.68
8.31
9.14
10.09
11.04
11.88
12.56
13.14
13.76
14.65
15.96
17.91
20.32
22.90
25.38
27.58
29.57
31.68
34.32
37.81
42.54
48.15
54.10
59.83
64.97
69.58
74.14
79.34
85.71
93.76
103.00
112.62
121.73
129.77
136.75
143.30
150.75
157.77
166.64
177.95
191.79
206.97
220.57
228.25
225.36
208.53
176.87
132.76
80.05
23.07
-34.94
-92.44
-149.16
-205.23
-260.37
-313.74
-363.87
-409.83
-450.91
-486.50
-515.74
-537.23
-549.22
-549.96
-538.37
-514.21
-478.67
-433.88
-382.45
-327.02
-269.84
-212.63
-156.66
-102.95
-52.37
-5.90
35.58
71.43
101.35
125.50
144.38
158.69
169.15
176.37
180.75
182.57
182.07
179.51
175.23
169.65
163.18
156.15
148.81
141.30
133.69
126.02
118.33
110.69
103.16
95.80
88.68
81.83
75.25
68.95
62.95
57.25
51.86
46.78
42.03
37.59
33.45
29.61
26.07
22.81
19.83
17.11
14.67
12.48
10.54
8.83
7.35
6.07
4.97
4.05
3.27
2.62
2.09
1.65
1.30
1.01
0.79
0.61
0.47
0.37
0.28
0.22
0.18
0.15
0.13
0.12
0.12
0.12
0.14
0.16
0.18
0.22
0.25
0.29
0.33
0.38
0.42
0.47
0.51
0.56
0.62
0.67
0.73
0.79
0.85
0.93
1.01
1.10
1.20
1.31
1.44
1.58
1.73
1.91
2.10
2.32
2.56
2.82
3.11
3.44
3.79
4.17
4.59
5.05
5.54
6.07
6.64
7.25
7.91
8.61
9.35
10.14
10.97
11.84
12.76
13.73
14.76
15.86
17.01
18.23
19.49
20.76
21.99
23.11
24.02
24.60
24.74
24.31
23.24
21.45
18.95
15.78
12.00
7.81
3.36
-1.13
-5.44
-9.38
-12.75
-15.45
-17.41
-18.61
-19.11
-19.02
-18.47
-17.58
-16.44
-15.13
-13.70
-12.18
-10.58
-8.92
-7.26
-5.65
-4.07
-2.50
-0.88
0.86
2.75
4.80
7.00
9.18
11.24
13.14
14.92
16.72
18.66
20.84
23.28
25.99
28.61
30.93
32.92
34.75
36.67
38.99
41.87
45.30
49.16
52.71
55.50
57.40
58.64
59.69
61.06
63.00
65.47
68.14
69.84
69.77
67.58
63.41
57.47
49.89
40.04
26.14
10.51
-6.91
-26.49
-48.69
-73.79
-101.59
-130.87
-159.19
-183.08
-198.87
-204.64
-200.30
-187.78
-170.41
-151.67
-134.09
-118.85
-106.01
-95.14
-86.41
-80.05
-76.10
-74.24
-73.68
-73.50
-73.10
-72.46
-72.25
-73.94
-78.72
-86.80
-96.97
-106.52
-111.93
-109.97
-98.88
-78.93
-52.47
-22.81
6.78
33.98
57.65
77.50
93.62
106.04
114.66
119.41
120.56
118.88
115.39
111.12
106.77
102.61
98.58
94.53
90.51
86.79
83.78
81.78
80.79
80.40
79.95
78.74
76.25
72.26
66.87
60.39
53.27
45.98
38.94
32.42
26.44
20.80
15.12
9.03
2.35
-4.84
-12.25
-19.44
-26.08
-32.02
-37.41
-42.69
-48.53
-55.66
-64.55
-75.01
-85.86
-94.99
-99.75
-97.88
-88.28
-71.47
-49.45
-25.00
-0.94
20.57
38.27
51.65
60.79
66.15
68.40
68.35
66.83
64.50
61.83
59.04
56.33
53.86
51.78
50.20
49.06
48.26
47.60
46.93
46.10
44.89
43.07
40.32
36.48
31.55
25.83
19.62
13.22
6.69
-0.12
-7.38
-15.14
-23.20
-31.19
-38.76
-45.80
-52.44
-59.01
-65.92
-73.48
-81.94
-91.31
-101.23
-110.71
-118.06
-121.14
-117.93
-107.32
-89.58
-66.51
-40.85
-15.49
7.33
26.41
41.53
53.00
61.19
66.37
68.71
68.58
66.68
64.02
61.55
59.82
58.74
57.67
55.88
52.99
49.20
45.23
41.82
39.32
37.50
35.67
33.07
29.23
24.12
18.05
11.53
5.01
-1.20
-7.02
-12.55
-18.07
-23.86
-30.10
-36.70
-43.28
-49.29
-54.29
-58.15
-61.18
-64.21
-68.27
-74.39
-83.10
-94.01
-105.62
-115.42
-120.53
-118.49
-108.16
-90.05
-66.22
-39.62
-13.15
10.87
31.12
47.16
59.12
67.38
72.48
74.96
75.42
74.46
72.66
70.55
68.48
66.69
65.26
64.07
62.95
61.74
60.37
58.83
57.12
55.18
52.90
50.14
46.83
43.00
38.78
34.23
29.34
24.07
18.39
12.48
6.68
1.36
-3.27
-7.34
-11.35
-15.95
-21.65
-28.57
-36.30
-44.09
-51.23
-57.29
-62.39
-67.07
-72.12
-78.31
-86.24
-96.01
-107.07
-117.96
-126.38
-129.63
-125.41
-112.71
-92.32
-66.70
-39.22
-13.09
9.49
27.68
41.60
51.90
59.18
63.86
66.27
66.80
65.99
64.35
62.27
59.83
56.92
53.38
49.20
44.61
40.05
36.01
32.82
30.55
28.92
27.52
25.88
23.66
20.72
17.06
12.84
8.21
3.33
-1.68
-6.75
-11.81
-16.93
-22.13
-27.50
-32.97
-38.34
-43.19
-47.02
-49.48
-50.46
-50.32
-49.67
-49.34
-50.20
-53.07
-58.52
-66.63
-76.63
-86.79
-94.57
-97.23
-92.75
-80.48
-61.44
-37.94
-12.79
11.54
33.38
51.93
66.84
77.91
84.99
88.10
87.72
84.92
81.17
77.87
75.95
75.60
76.33
77.36
78.01
77.95
77.27
76.26
75.11
73.76
71.81
68.79
64.34
58.51
51.74
44.82
38.55
33.51
29.83
27.19
24.97
22.51
19.32
15.30
10.79
6.41
2.96
0.99
0.64
1.51
2.68
3.01
1.42
-2.68
-9.18
-17.06
-24.53
-29.34
-29.49
-23.83
-12.53
2.88
19.95
36.08
49.19
58.21
63.01
64.18
62.57
58.95
53.83
47.40
39.72
30.90
21.28
11.46
2.11
-6.31
-13.67
-20.14
-25.97
-31.20
-35.68
-39.14
-41.55
-43.20
-44.69
-46.69
-49.69
-53.82
-58.89
-64.42
-69.86
-74.79
-79.22
-83.61
-88.76
-95.41
-103.78
-113.26
-122.73
-131.03
-137.67
-143.03
-148.17
-154.20
-161.83
-171.15
-181.82
-193.23
-204.44
-213.98
-219.69
-219.02
-209.78
-191.03
-163.65
-130.20
-94.11
-58.60
-25.90
2.99
27.98
49.31
67.14
81.50
92.42
100.19
105.44
108.96
111.53
113.68
115.59
117.23
118.45
119.08
119.03
118.31
116.96
115.06
112.65
109.71
106.12
101.69
96.30
89.89
82.62
74.74
66.64
58.69
51.17
44.20
37.69
31.35
24.81
17.73
9.93
1.47
-7.40
-16.28
-24.79
-32.71
-40.16
-47.64
-55.93
-65.87
-77.79
-91.12
-104.08
-113.98
-117.93
-113.88
-101.33
-81.61
-57.37
-31.69
-7.19
14.48
32.72
47.52
59.12
67.66
73.20
75.99
76.53
75.67
74.35
73.38
73.10
73.37
73.67
73.49
72.52
70.90
69.08
67.56
66.68
66.31
65.94
64.89
62.55
58.71
53.65
48.07
42.74
38.21
34.45
30.91
26.79
21.46
14.84
7.44
0.06
-6.59
-12.24
-17.12
-21.79
-26.85
-32.82
-40.06
-48.80
-59.01
-70.11
-80.70
-88.59
-91.30
-86.82
-74.46
-55.14
-31.22
-5.84
17.96
38.01
53.21
63.49
69.37
71.60
70.90
67.89
63.14
57.25
50.91
44.74
39.24
34.61
30.83
27.73
25.18
23.19
21.86
21.25
21.19
21.22
20.63
18.79
15.32
10.37
4.65
-0.91
-5.46
-8.71
-11.03
-13.31
-16.52
-21.24
-27.41
-34.38
-41.28
-47.40
-52.51
-56.87
-61.18
-66.32
-73.16
-82.21
-93.29
-105.19
-115.61
-121.67
-120.70
-111.28
-93.77
-70.32
-44.06
-18.17
5.00
24.22
39.21
50.12
57.33
61.21
62.37
61.65
60.10
58.67
57.90
57.77
57.79
57.31
55.91
53.66
51.03
48.73
47.31
46.88
47.13
47.33
46.68
44.58
40.81
35.58
29.48
23.27
17.55
12.58
8.15
3.65
-1.63
-8.18
-15.98
-24.55
-33.19
-41.32
-48.74
-55.66
-62.48
-69.76
-78.00
-87.63
-98.92
-111.61
-124.73
-136.29
-143.65
-144.18
-136.22
-119.82
-96.81
-70.23
-43.26
-18.31
3.51
22.14
37.97
51.28
61.91
69.49
73.83
75.27
74.72
73.40
72.39
72.26
73.05
74.27
75.37
75.83
75.49
74.47
73.02
71.42
69.70
67.69
64.97
61.19
56.16
50.00
43.11
35.97
29.04
22.56
16.59
10.92
5.28
-0.69
-7.24
-14.38
-21.91
-29.46
-36.69
-43.40
-49.65
-55.68
-61.75
-68.15
-75.22
-83.38
-92.97
-103.93
-115.38
-125.41
-131.41
-130.82
-122.06
-105.18
-82.00
-55.39
-28.50
-3.87
17.07
33.90
46.87
56.43
63.02
66.91
68.43
67.97
66.17
63.78
61.50
59.83
58.82
58.20
57.49
56.33
54.63
52.71
51.01
49.85
49.21
48.63
47.52
45.37
41.98
37.56
32.64
27.87
23.76
20.52
17.87
15.16
11.57
6.47
-0.28
-8.21
-16.46
-24.16
-30.80
-36.49
-41.84
-47.73
-55.03
-64.33
-75.78
-88.79
-101.98
-113.13
-119.62
-119.09
-110.24
-93.32
-70.18
-43.67
-16.87
7.65
28.26
44.24
55.53
62.45
65.58
65.73
63.91
61.27
58.82
57.25
56.71
56.93
57.42
57.81
57.96
57.90
57.68
57.16
56.07
54.09
51.07
47.09
42.41
37.35
32.13
26.86
21.53
16.08
10.38
4.26
-2.43
-9.75
-17.49
-25.21
-32.34
-38.52
-43.80
-48.78
-54.46
-61.87
-71.71
-83.78
-96.85
-108.68
-116.43
-117.51
-110.35
-94.93
-72.90
-47.01
-20.28
4.64
26.05
43.15
55.84
64.39
69.22
70.82
69.79
66.94
63.21
59.50
56.51
54.44
53.05
51.76
50.06
47.71
44.94
42.23
40.04
38.45
37.08
35.22
32.10
27.25
20.62
12.61
3.90
-4.78
-12.87
-20.12
-26.69
-33.06
-39.85
-47.70
-57.13
-68.29
-80.81
-93.59
-104.81
-112.14
-113.41
-107.30
-93.94
-74.83
-52.50
-29.66
-8.48
9.69
24.34
35.41
43.09
47.64
49.41
48.94
46.94
44.11
41.01
38.08
35.51
33.37
31.62
30.19
28.98
27.84
26.59
25.01
22.90
20.06
16.38
11.87
6.58
0.66
-5.73
-12.38
-19.18
-26.23
-33.80
-42.26
-51.73
-61.79
-71.21
-78.21
-80.88
-77.87
-68.79
-54.34
-36.00
-15.58
5.12
24.54
41.38
54.68
63.84
68.78
69.96
68.28
64.88
60.82
56.90
53.61
51.08
49.12
47.44
45.66
43.53
40.98
38.16
35.24
32.35
29.38
26.00
21.75
16.25
9.36
1.29
-7.42
-16.09
-24.16
-31.39
-37.90
-44.19
-50.95
-58.98
-68.82
-80.54
-93.31
-105.29
-113.94
-116.58
-111.33
-97.80
-77.39
-52.79
-27.24
-3.42
17.09
33.87
47.33
58.09
66.59
73.02
77.43
80.02
81.19
81.48
81.32
80.87
79.99
78.46
76.21
73.51
70.92
69.02
68.12
68.01
68.04
67.37
65.35
61.78
57.03
51.85
46.98
42.89
39.51
36.28
32.44
27.40
21.00
13.63
6.01
-1.09
-7.18
-12.20
-16.57
-20.92
-25.90
-31.87
-38.83
-46.46
-54.23
-61.71
-68.65
-75.05
-81.14
-87.39
-94.43
-102.93
-113.31
-125.24
-137.25
-146.74
-150.60
-146.19
-132.49
-110.52
-83.17
-54.10
-26.56
-2.50
17.53
33.95
47.41
58.27
66.57
72.30
75.67
77.29
77.96
78.40
78.95
79.47
79.55
78.81
77.17
74.97
72.72
70.94
69.78
68.98
67.97
66.17
63.27
59.37
54.91
50.42
46.27
42.48
38.73
34.59
29.69
24.00
17.80
11.58
5.79
0.64
-4.00
-8.59
-13.67
-19.75
-26.99
-35.18
-43.74
-51.95
-59.18
-65.19
-70.24
-75.04
-80.61
-87.96
-97.59
-109.11
-120.97
-130.67
-135.33
-132.56
-121.27
-102.11
-77.27
-49.88
-23.00
1.05
21.07
36.85
48.73
57.30
63.09
66.58
68.26
68.69
68.37
67.70
66.86
65.83
64.57
63.11
61.64
60.44
59.64
59.20
58.82
58.16
56.88
54.86
52.16
48.95
45.49
41.91
38.30
34.56
30.54
26.01
20.87
15.15
9.11
3.14
-2.48
-7.63
-12.48
-17.39
-22.70
-28.53
-34.70
-40.89
-46.77
-52.28
-57.64
-63.29
-69.83
-77.77
-87.37
-98.29
-109.47
-118.98
-124.35
-123.24
-114.23
-97.41
-74.53
-48.44
-22.21
1.64
21.65
37.35
48.96
56.95
61.82
64.07
64.26
63.04
61.07
58.97
57.18
55.82
54.80
53.75
52.32
50.26
47.67
44.91
42.53
40.92
40.12
39.74
39.01
37.23
33.93
29.13
23.28
17.13
11.40
6.60
2.86
-0.10
-2.85
-6.10
-10.45
-16.19
-23.15
-30.81
-38.39
-45.21
-50.96
-55.82
-60.37
-65.46
-71.91
-80.21
-90.13
-100.66
-109.87
-115.43
-115.10
-107.54
-92.70
-71.93
-47.57
-22.26
1.65
22.51
39.39
51.91
60.09
64.27
65.04
63.29
60.06
56.34
52.90
50.13
48.02
46.26
44.50
42.54
40.45
38.51
37.03
36.09
35.45
34.54
32.70
29.54
25.11
19.89
14.53
9.50
4.89
0.41
-4.38
-9.85
-16.04
-22.70
-29.44
-35.86
-41.72
-47.01
-51.94
-57.00
-62.84
-70.26
-79.70
-90.89
-102.46
-112.03
-116.79
-114.44
-104.01
-86.29
-63.52
-38.57
-14.11
7.98
26.77
41.92
53.39
61.17
65.42
66.50
65.14
62.29
58.92
55.76
53.24
51.43
50.19
49.26
48.40
47.46
46.45
45.43
44.41
43.22
41.47
38.70
34.56
29.10
22.76
16.26
10.22
4.87
-0.04
-5.02
-10.58
-16.82
-23.55
-30.32
-36.77
-42.75
-48.40
-54.09
-60.31
-67.65
-76.47
-86.67
-97.31
-106.48
-111.68
-110.51
-101.60
-85.18
-63.06
-38.02
-12.93
9.97
29.41
44.90
56.47
64.35
68.91
70.62
70.11
68.12
65.35
62.34
59.34
56.30
52.91
48.80
43.76
37.85
31.39
24.75
18.16
11.53
4.52
-3.17
-11.58
-20.33
-28.81
-36.42
-42.93
-48.51
-53.59
-58.52
-63.32
-67.67
-71.07
-73.20
-74.16
-74.41
-74.64
-75.52
-77.54
-81.01
-85.92
-91.76
-97.38
-100.91
-100.12
-93.08
-78.85
-57.99
-32.41
-4.80
22.20
46.57
67.17
83.55
95.73
103.86
108.39
110.02
109.81
109.10
109.19
111.02
114.76
119.67
124.17
126.40
124.68
118.24
107.40
93.40
77.96
62.72
48.81
36.75
26.60
18.12
10.94
4.57
-1.65
-8.41
-16.34
-25.74
-36.38
-47.56
-58.30
-67.81
-75.78
-82.72
-89.68
-97.92
-108.21
-120.30
-132.66
-142.77
-147.87
-145.78
-135.61
-118.00
-94.84
-68.64
-41.80
-16.21
6.87
26.64
42.51
54.06
61.17
64.23
64.20
62.49
60.50
59.29
59.23
60.02
60.94
61.20
60.32
58.21
55.28
52.12
49.32
47.20
45.69
44.41
42.83
40.57
37.54
33.97
30.25
26.73
23.55
20.52
17.26
13.19
7.74
0.30
-9.63
-22.46
-38.04
-55.43
-72.70
-87.12
-95.90
-96.99
-89.87
-75.66
-56.80
-36.16
-16.28
1.13
15.19
25.56
32.21
35.26
35.07
32.36
28.13
23.47
19.21
15.76
12.98
10.48
7.85
4.93
1.85
-1.04
-3.45
-5.40
-7.17
-9.29
-12.21
-16.08
-20.65
-25.36
-29.64
-33.16
-36.06
-38.80
-42.12
-46.82
-53.49
-62.16
-72.03
-81.37
-87.68
-88.40
-81.73
-67.34
-46.63
-22.32
2.46
25.21
44.55
60.27
72.65
81.86
87.59
89.22
86.37
79.45
69.79
59.35
49.98
42.73
37.55
33.48
29.31
24.28
18.43
12.49
7.32
3.45
0.69
-1.68
-4.64
-8.92
-14.84
-22.14
-30.23
-38.37
-45.90
-52.47
-58.03
-62.87
-67.55
-72.79
-79.33
-87.78
-98.31
-110.25
-121.92
-130.63
-133.36
-127.66
-112.64
-89.52
-61.30
-31.84
-4.65
18.11
35.84
49.23
59.53
67.87
74.94
80.98
85.92
89.73
92.47
94.25
95.25
95.62
95.56
95.26
94.95
94.66
94.18
93.03
90.69
86.75
81.19
74.34
66.73
58.86
51.14
43.86
37.31
31.78
27.36
23.75
20.17
15.57
9.11
0.55
-9.55
-20.11
-30.02
-38.65
-46.07
-52.96
-60.30
-68.98
-79.63
-92.32
-106.37
-120.20
-131.37
-137.03
-134.75
-123.40
-103.61
-77.70
-48.91
-20.39
5.61
28.05
46.80
62.07
74.09
82.88
88.49
91.26
91.92
91.44
90.70
90.20
89.92
89.52
88.71
87.47
86.12
85.08
84.52
84.23
83.65
82.18
79.53
75.78
71.42
67.02
63.01
59.48
56.26
52.99
49.28
44.95
40.05
34.92
29.96
25.50
21.58
17.96
14.22
10.01
5.20
-0.05
-5.41
-10.49
-15.05
-19.00
-22.47
-25.71
-29.21
-33.58
-39.40
-46.81
-55.18
-62.95
-67.88
-67.81
-61.31
-48.41
-30.55
-10.25
9.78
27.33
41.20
51.21
57.87
62.00
64.37
65.54
65.87
65.61
64.95
64.04
62.99
61.76
60.14
57.76
54.31
49.61
43.83
37.44
31.05
25.23
20.26
16.05
12.18
8.15
3.51
-1.91
-7.98
-14.41
-20.76
-26.62
-31.64
-35.65
-38.63
-40.73
-42.24
-43.50
-44.77
-46.23
-47.96
-50.01
-52.47
-55.43
-59.02
-63.34
-68.58
-75.12
-83.52
-94.27
-107.26
-121.39
-134.38
-143.24
-145.22
-138.66
-123.81
-102.62
-78.19
-53.71
-31.59
-13.13
1.32
12.01
19.28
23.44
24.79
23.89
21.67
19.33
18.06
18.60
20.98
24.53
28.13
30.78
31.97
31.83
30.93
29.82
28.76
27.56
25.79
23.05
19.29
14.66
9.46
3.89
-2.02
-8.30
-14.87
-21.52
-27.91
-33.79
-39.20
-44.34
-49.69
-55.78
-63.21
-72.41
-83.43
-95.53
-107.03
-115.44
-118.07
-112.94
-99.55
-79.19
-54.52
-28.68
-4.42
16.53
33.51
46.47
55.61
61.10
63.25
62.56
59.96
56.53
53.24
50.62
48.66
46.97
45.10
42.87
40.38
37.95
35.75
33.70
31.37
28.26
24.04
18.66
12.47
5.93
-0.54
-6.72
-12.63
-18.40
-24.17
-29.87
-35.35
-40.33
-44.65
-48.37
-51.80
-55.53
-60.28
-66.84
-75.68
-86.70
-98.79
-109.84
-117.16
-118.15
-111.19
-96.21
-74.70
-49.18
-22.50
2.93
25.45
44.20
58.97
69.85
77.22
81.59
83.60
83.92
83.21
82.01
80.66
79.39
78.18
76.94
75.55
74.00
72.39
70.87
69.48
67.98
65.93
62.85
58.49
52.99
46.84
40.60
34.68
29.14
23.63
17.68
10.86
3.10
-5.36
-14.01
-22.39
-30.21
-37.47
-44.42
-51.43
-58.94
-67.43
-77.30
-88.62
-100.79
-112.28
-120.76
-123.68
-119.11
-106.48
-86.86
-62.61
-36.61
-11.42
11.15
30.17
45.33
56.67
64.48
69.21
71.52
72.13
71.75
70.86
69.75
68.56
67.31
66.01
64.67
63.32
61.97
60.60
59.07
57.09
54.29
50.32
45.08
38.81
32.08
25.52
19.51
14.06
8.73
3.01
-3.46
-10.66
-18.23
-25.64
-32.56
-38.86
-44.77
-50.67
-57.10
-64.68
-73.89
-84.81
-96.67
-107.68
-115.24
-116.63
-110.00
-95.06
-73.37
-47.79
-21.58
2.56
23.10
39.63
52.43
61.85
68.11
71.20
71.22
68.62
64.20
59.01
53.96
49.65
46.18
43.42
41.09
39.01
37.07
35.23
33.40
31.43
29.11
26.28
22.88
18.83
14.10
8.67
2.49
-4.30
-11.53
-18.91
-26.17
-33.09
-39.63
-45.88
-52.12
-58.82
-66.55
-75.89
-86.99
-99.26
-111.14
-120.22
-123.86
-119.98
-107.88
-88.44
-63.93
-37.30
-11.41
11.67
30.78
45.59
56.26
63.15
66.81
67.91
67.30
65.88
64.47
63.52
63.07
62.81
62.27
61.16
59.47
57.51
55.63
54.02
52.53
50.73
48.09
44.25
39.17
33.11
26.56
20.00
13.72
7.68
1.61
-4.88
-12.02
-19.77
-27.85
-35.87
-43.53
-50.76
-57.75
-64.96
-73.05
-82.76
-94.52
-108.14
-122.36
-134.87
-142.69
-143.03
-134.27
-116.60
-91.96
-63.45
-34.33
-7.22
16.29
35.63
50.87
62.30
70.27
75.09
77.18
77.20
75.97
74.34
72.93
72.06
71.64
71.43
71.22
70.99
70.82
70.72
70.59
70.06
68.80
66.58
63.40
59.41
54.78
49.60
43.91
37.75
31.29
24.81
18.52
12.56
6.83
1.08
-5.03
-11.75
-19.21
-27.33
-35.81
-44.26
-52.29
-59.69
-66.54
-73.24
-80.54
-89.37
-100.44
-113.79
-128.34
-141.82
-151.11
-153.14
-145.86
-129.05
-104.38
-74.92
-44.12
-14.87
11.07
33.00
50.87
64.81
74.96
81.51
84.97
86.18
86.23
86.04
86.15
86.57
86.98
86.97
86.39
85.34
84.05
82.75
81.40
79.79
77.61
74.58
70.61
65.75
60.17
54.11
47.84
41.54
35.36
29.34
23.37
17.27
10.82
3.81
-3.81
-11.97
-20.42
-28.84
-36.95
-44.61
-51.94
-59.30
-67.29
-76.61
-87.76
-100.68
-114.30
-126.51
-134.48
-135.40
-127.43
-110.37
-85.89
-57.01
-27.20
0.49
24.05
42.61
56.18
65.32
70.73
73.16
73.43
72.32
70.61
68.90
67.57
66.69
66.01
65.19
63.87
61.99
59.71
57.39
55.37
53.74
52.24
50.31
47.35
43.01
37.39
31.03
24.59
18.55
12.90
7.21
0.86
-6.53
-14.85
-23.49
-31.71
-38.98
-45.29
-51.18
-57.61
-65.62
-75.99
-88.85
-103.35
-117.53
-128.61
-133.58
-130.18
-117.68
-97.24
-71.55
-44.01
-17.75
5.15
23.83
38.47
49.75
58.38
64.83
69.35
72.11
73.45
73.85
73.88
73.91
73.93
73.56
72.32
69.99
66.85
63.60
60.99
59.28
58.09
56.56
53.75
49.17
42.98
35.87
28.70
22.04
15.98
10.17
4.03
-2.98
-11.01
-19.87
-29.00
-37.76
-45.63
-52.44
-58.48
-64.44
-71.24
-79.82
-90.74
-103.77
-117.65
-130.08
-138.15
-139.13
-131.37
-114.84
-91.12
-62.98
-33.56
-5.56
19.13
39.48
55.17
66.32
73.40
77.15
78.49
78.32
77.45
76.39
75.38
74.43
73.42
72.12
70.37
68.08
65.37
62.47
59.64
57.03
54.48
51.59
47.83
42.86
36.71
29.78
22.73
16.07
9.95
4.07
-2.06
-8.95
-16.72
-25.09
-33.48
-41.33
-48.37
-54.81
-61.28
-68.65
-77.76
-89.00
-102.05
-115.59
-127.32
-134.40
-134.21
-125.29
-107.86
-83.90
-56.52
-29.01
-3.89
17.45
34.66
47.93
57.54
63.63
66.35
66.15
63.96
60.96
58.37
56.87
56.46
56.44
55.86
54.01
50.81
46.78
42.82
39.65
37.43
35.65
33.37
29.66
23.98
16.42
7.68
-1.30
-9.67
-16.94
-23.16
-28.81
-34.57
-41.15
-49.16
-58.99
-70.69
-83.57
-96.12
-106.00
-110.59
-107.75
-96.61
-78.05
-54.37
-28.60
-3.58
18.71
37.29
51.86
62.49
69.19
72.07
71.46
68.17
63.48
58.86
55.56
54.17
54.40
55.31
55.75
54.92
52.74
49.78
46.83
44.39
42.37
40.23
37.22
32.87
27.21
20.68
14.03
7.94
2.82
-1.26
-4.59
-7.81
-11.77
-17.33
-24.98
-34.34
-43.89
-51.08
-52.86
-46.61
-30.97
-6.31
25.38
61.13
97.66
132.20
162.62
187.50
205.89
217.19
221.17
217.96
208.05
192.19
171.22
145.81
116.62
84.20
49.15
12.27
-25.45
-62.73
-98.18
-130.44
-158.40
-181.45
-199.63
-213.54
-224.05
-232.10
-238.29
-242.81
-245.55
-246.22
-244.56
-240.43
-233.87
-225.20
-214.94
-203.91
-193.12
-183.67
-176.61
-172.71
-172.27
-174.75
-178.63
-181.40
-179.96
-171.46
-154.20
-128.31
-95.82
-60.05
-24.55
7.89
35.85
59.19
78.52
94.55
107.61
117.70
124.73
128.87
130.68
131.04
130.76
130.31
129.71
128.68
126.95
124.51
121.53
118.29
114.81
110.86
106.07
100.21
93.41
86.09
78.76
71.62
64.44
56.66
47.68
37.24
25.59
13.49
1.84
-8.67
-17.94
-26.43
-35.04
-44.79
-56.50
-70.47
-86.21
-102.29
-116.37
-125.60
-127.40
-120.23
-104.20
-81.17
-54.20
-26.55
-0.93
21.17
39.31
53.70
64.76
72.78
78.04
80.87
81.91
81.89
81.54
81.29
81.16
80.87
79.98
78.21
75.51
72.09
68.26
64.33
60.42
56.47
52.19
47.19
41.11
33.78
25.39
16.37
7.36
-1.13
-8.86
-15.94
-22.78
-29.91
-37.87
-47.20
-58.22
-70.82
-84.16
-96.50
-105.27
-107.91
-102.65
-89.25
-69.18
-45.11
-19.94
3.95
25.12
43.02
57.37
67.98
74.65
77.49
77.09
74.59
71.45
68.79
67.22
66.70
66.68
66.53
65.72
64.01
61.32
57.80
53.60
48.97
44.15
39.32
34.49
29.44
23.79
17.19
9.48
0.76
-8.53
-17.81
-26.57
-34.55
-41.90
-49.12
-57.02
-66.52
-78.31
-92.44
-107.95
-122.72
-133.80
-138.19
-133.87
-120.51
-99.59
-73.93
-46.69
-20.41
3.39
24.24
42.20
57.40
69.76
79.09
85.39
89.01
90.71
91.37
91.70
91.97
92.03
91.48
90.00
87.55
84.46
81.24
78.29
75.69
73.15
70.13
66.08
60.69
53.97
46.34
38.43
30.85
24.06
18.05
12.41
6.55
-0.16
-8.01
-16.94
-26.48
-36.06
-45.13
-53.38
-60.84
-67.78
-74.71
-82.31
-91.32
-102.33
-115.32
-129.30
-142.11
-150.77
-152.23
-144.45
-127.15
-102.04
-72.22
-41.28
-12.15
13.39
34.74
52.05
65.71
76.03
83.17
87.43
89.29
89.48
88.80
87.91
87.11
86.35
85.29
83.59
81.09
77.94
74.55
71.42
68.83
66.71
64.62
61.99
58.32
53.48
47.66
41.31
34.89
28.73
22.89
17.20
11.36
5.00
-2.15
-10.18
-18.90
-27.88
-36.57
-44.43
-51.28
-57.32
-63.12
-69.43
-77.00
-86.36
-97.66
-110.48
-123.58
-134.96
-142.05
-142.41
-134.45
-118.06
-94.74
-67.20
-38.59
-11.64
11.84
31.01
45.80
56.57
63.83
68.17
70.23
70.67
70.12
69.04
67.73
66.27
64.63
62.85
61.06
59.45
58.08
56.84
55.39
53.26
50.10
45.80
40.59
34.83
28.96
23.28
17.87
12.64
7.36
1.71
-4.61
-11.73
-19.60
-27.86
-36.06
-43.83
-51.04
-58.07
-65.64
-74.69
-85.76
-98.59
-111.72
-122.68
-128.55
-126.85
-116.45
-97.99
-73.70
-46.64
-19.83
4.49
25.09
41.58
54.05
62.79
68.11
70.41
70.21
68.18
65.06
61.58
58.29
55.51
53.32
51.65
50.30
49.08
47.77
46.16
44.05
41.25
37.69
33.42
28.60
23.42
17.97
12.23
6.08
-0.62
-7.86
-15.45
-23.12
-30.56
-37.60
-44.26
-50.78
-57.53
-65.01
-73.77
-84.19
-96.23
-109.04
-120.82
-128.93
-130.65
-124.04
-108.72
-86.18
-59.29
-31.41
-5.46
16.78
34.66
48.42
58.55
65.48
69.47
70.80
70.01
67.90
65.39
63.22
61.65
60.46
59.15
57.31
54.87
52.15
49.63
47.56
45.71
43.44
40.09
35.37
29.51
23.19
17.08
11.51
6.27
0.77
-5.60
-13.10
-21.46
-30.01
-38.00
-44.99
-51.08
-56.96
-63.71
-72.39
-83.58
-96.91
-110.76
-122.51
-129.12
-128.12
-118.35
-100.46
-76.61
-49.78
-22.92
1.75
22.91
40.00
52.88
61.68
66.71
68.59
68.21
66.53
64.43
62.43
60.65
58.95
57.06
54.82
52.27
49.60
46.98
44.50
42.00
39.27
36.05
32.18
27.67
22.57
17.00
10.93
4.29
-3.00
-10.85
-18.97
-26.91
-34.25
-40.79
-46.70
-52.53
-59.04
-67.08
-77.28
-89.61
-103.08
-115.62
-124.49
-126.97
-121.27
-107.21
-86.26
-61.11
-34.76
-9.74
12.34
30.71
45.12
55.47
61.75
64.20
63.49
60.71
57.11
53.75
51.17
49.30
47.61
45.56
42.89
39.84
36.90
34.49
32.59
30.70
27.99
23.72
17.59
9.88
1.27
-7.45
-15.63
-22.97
-29.47
-35.38
-41.22
-47.74
-55.76
-65.93
-78.13
-91.16
-102.67
-109.75
-109.80
-101.51
-85.34
-63.38
-38.59
-13.85
8.71
28.03
43.74
55.79
64.09
68.54
69.21
66.68
62.16
57.10
52.84
50.09
48.79
48.23
47.46
45.78
42.94
39.23
35.18
31.26
27.66
24.12
20.15
15.15
8.75
0.93
-7.86
-16.99
-25.80
-33.90
-41.36
-48.52
-55.96
-64.28
-74.01
-85.45
-98.34
-111.62
-123.25
-130.55
-130.91
-122.74
-106.09
-82.68
-55.42
-27.37
-1.04
22.08
41.31
56.56
67.94
75.72
80.32
82.35
82.59
81.76
80.46
78.96
77.36
75.54
73.38
70.82
67.88
64.65
61.19
57.51
53.48
48.92
43.74
38.01
31.92
25.65
19.31
12.68
5.50
-2.45
-11.09
-20.03
-28.74
-36.75
-43.96
-50.69
-57.63
-65.61
-75.35
-87.23
-100.92
-115.19
-127.80
-135.93
-136.79
-128.66
-111.45
-86.90
-58.01
-28.08
0.07
24.70
45.08
61.16
73.18
81.48
86.50
88.84
89.31
88.69
87.68
86.70
85.89
85.14
84.21
82.89
80.96
78.44
75.48
72.38
69.47
66.86
64.42
61.72
58.19
53.37
47.20
40.03
32.54
25.38
18.92
13.13
7.61
1.82
-4.71
-12.19
-20.49
-29.20
-37.78
-45.78
-53.01
-59.66
-66.18
-73.24
-81.54
-91.68
-103.93
-117.91
-132.24
-144.54
-151.74
-150.92
-140.36
-120.26
-92.91
-61.93
-31.14
-3.47
19.61
37.91
51.92
62.25
69.29
73.31
74.64
73.87
71.84
69.42
67.29
65.76
64.73
63.91
62.98
61.76
60.28
58.66
56.90
54.82
52.09
48.43
43.82
38.50
32.83
27.06
21.07
14.57
7.25
-0.90
-9.47
-17.82
-25.43
-32.18
-38.54
-45.33
-53.47
-63.64
-75.92
-89.54
-102.83
-113.38
-118.56
-116.21
-105.38
-86.70
-62.21
-34.86
-7.69
16.86
37.33
53.21
64.65
72.11
76.19
77.52
76.71
74.46
71.44
68.23
65.25
62.71
60.56
58.64
56.75
54.73
52.48
49.86
46.75
43.02
38.62
33.67
28.32
22.72
16.86
10.56
3.62
-4.09
-12.45
-21.12
-29.71
-37.89
-45.58
-52.94
-60.34
-68.30
-77.42
-88.24
-100.92
-114.80
-128.14
-138.24
-142.10
-137.41
-123.37
-101.13
-73.34
-43.37
-14.33
11.53
33.01
49.71
61.77
69.63
74.01
75.84
76.13
75.77
75.33
74.99
74.58
73.80
72.37
70.26
67.66
64.87
62.17
59.62
57.04
54.12
50.58
46.28
41.34
35.99
30.41
24.68
18.68
12.31
5.45
-1.88
-9.52
-17.30
-25.11
-32.87
-40.58
-48.29
-56.13
-64.39
-73.53
-84.14
-96.55
-110.37
-124.06
-135.02
-140.13
-136.74
-123.71
-101.91
-74.05
-43.76
-14.54
11.15
32.16
48.36
60.19
68.24
73.02
75.06
74.97
73.49
71.38
69.30
67.64
66.49
65.69
64.91
63.82
62.16
59.82
56.80
53.20
49.19
44.90
40.46
35.84
30.88
25.33
18.94
11.58
3.40
-5.24
-13.90
-22.15
-29.81
-36.92
-43.72
-50.56
-57.95
-66.51
-76.78
-88.77
-101.62
-113.34
-121.11
-122.15
-114.70
-98.70
-75.96
-49.46
-22.47
2.41
23.69
40.82
53.89
63.11
68.74
71.04
70.56
68.17
64.88
61.64
59.07
57.29
55.97
54.59
52.66
49.99
46.69
43.05
39.36
35.64
31.64
26.86
20.84
13.34
4.57
-4.78
-13.79
-21.70
-28.22
-33.69
-39.08
-45.53
-54.08
-65.22
-78.58
-92.83
-105.73
-114.49
-116.48
-110.00
-94.94
-72.93
-46.96
-20.36
4.08
24.78
41.29
53.87
62.93
68.69
71.26
70.98
68.60
65.24
62.09
59.97
59.09
59.06
59.17
58.72
57.21
54.55
50.88
46.59
42.05
37.48
32.89
28.06
22.59
16.10
8.41
-0.35
-9.74
-19.23
-28.29
-36.62
-44.18
-51.17
-58.06
-65.59
-74.60
-85.74
-98.96
-113.05
-125.59
-133.36
-133.35
-123.91
-105.38
-80.14
-51.69
-23.51
1.88
23.35
40.84
54.76
65.46
73.05
77.56
79.32
78.99
77.55
75.86
74.38
73.08
71.56
69.49
66.81
63.85
61.06
58.77
56.90
54.97
52.31
48.41
43.14
36.81
29.95
23.08
16.40
9.76
2.73
-5.08
-13.76
-23.02
-32.20
-40.64
-48.03
-54.52
-60.76
-67.84
-76.84
-88.42
-102.29
-116.89
-129.49
-136.80
-135.97
-125.57
-106.17
-80.12
-50.77
-21.47
5.29
28.08
46.38
60.15
69.62
75.28
77.87
78.41
77.92
77.14
76.32
75.27
73.63
71.17
68.05
64.73
61.77
59.48
57.72
55.95
53.47
49.77
44.76
38.78
32.47
26.37
20.69
15.26
9.61
3.26
-4.02
-12.05
-20.37
-28.44
-35.88
-42.68
-49.13
-55.81
-63.40
-72.52
-83.54
-96.23
-109.46
-121.12
-128.42
-128.70
-120.26
-103.10
-79.03
-51.15
-22.89
2.89
24.53
41.49
54.01
62.65
67.93
70.38
70.51
68.99
66.51
63.75
61.20
59.08
57.37
55.86
54.28
52.31
49.73
46.46
42.62
38.47
34.23
29.93
25.32
19.92
13.31
5.39
-3.45
-12.48
-20.91
-28.29
-34.68
-40.63
-46.98
-54.68
-64.44
-76.50
-90.29
-104.26
-115.96
-122.56
-121.63
-112.01
-94.24
-70.44
-43.60
-16.66
8.14
29.56
47.10
60.62
70.12
75.65
77.61
76.82
74.47
71.83
69.73
68.39
67.47
66.30
64.39
61.71
58.59
55.58
53.03
50.88
48.68
45.84
41.89
36.68
30.46
23.71
16.92
10.37
3.96
-2.69
-10.04
-18.37
-27.52
-36.95
-45.92
-53.84
-60.53
-66.34
-72.10
-78.82
-87.49
-98.67
-112.17
-126.69
-139.85
-148.46
-149.41
-140.62
-121.90
-95.12
-63.67
-31.47
-1.82
23.24
43.09
58.12
69.21
77.22
82.77
86.28
88.11
88.65
88.38
87.76
87.11
86.53
85.89
84.96
83.56
81.67
79.44
77.04
74.57
71.96
69.00
65.49
61.30
56.53
51.39
46.15
40.95
35.83
30.69
25.38
19.83
14.01
8.06
2.08
-3.82
-9.61
-15.35
-21.21
-27.43
-34.26
-41.84
-50.11
-58.73
-67.14
-74.76
-81.33
-87.05
-92.74
-99.66
-108.93
-120.97
-134.91
-148.41
-158.14
-160.66
-153.56
-136.34
-110.56
-79.36
-46.48
-15.20
12.25
34.90
52.68
66.01
75.37
81.26
84.16
84.69
83.63
81.80
79.94
78.43
77.24
76.01
74.34
72.04
69.28
66.52
64.23
62.59
61.37
60.02
57.93
54.70
50.26
44.88
38.98
32.96
27.11
21.57
16.38
11.52
6.82
2.02
-3.20
-9.15
-15.98
-23.57
-31.57
-39.52
-47.06
-54.07
-60.72
-67.44
-74.79
-83.42
-93.73
-105.70
-118.44
-130.05
-137.83
-138.96
-131.47
-115.02
-91.16
-62.86
-33.52
-6.05
17.73
37.08
51.96
62.56
69.13
71.97
71.61
68.86
64.82
60.65
57.26
55.16
54.25
53.99
53.69
52.76
50.97
48.47
45.60
42.63
39.64
36.47
32.83
28.48
23.22
17.09
10.21
2.86
-4.66
-12.09
-19.33
-26.44
-33.50
-40.63
-47.84
-55.31
-63.36
-72.46
-82.84
-93.99
-104.31
-111.36
-112.59
-106.22
-92.05
-71.54
-47.22
-21.97
1.82
22.60
39.55
52.35
60.92
65.34
65.97
63.53
59.04
53.69
48.50
44.11
40.64
37.84
35.32
32.83
30.43
28.30
26.60
25.09
23.21
20.24
15.66
9.38
1.87
-6.13
-13.87
-20.91
-27.25
-33.31
-39.77
-47.40
-56.79
-67.96
-80.14
-91.65
-100.17
-103.29
-99.34
-87.89
-69.95
-47.64
-23.51
0.10
21.42
39.36
53.31
63.01
68.48
70.05
68.45
64.70
59.93
55.10
50.80
47.14
43.91
40.70
37.19
33.18
28.59
23.38
17.48
10.86
3.57
-4.13
-11.84
-19.18
-25.91
-32.10
-38.09
-44.50
-52.03
-61.31
-72.52
-85.07
-97.38
-107.05
-111.43
-108.44
-97.34
-79.00
-55.66
-30.23
-5.39
16.86
35.40
49.81
60.08
66.41
69.21
69.12
66.91
63.38
59.13
54.56
49.88
45.25
40.86
36.95
33.69
31.05
28.74
26.22
22.91
18.42
12.64
5.82
-1.58
-9.08
-16.41
-23.57
-30.93
-39.11
-48.83
-60.55
-73.97
-87.85
-99.90
-107.36
-107.75
-99.69
-83.45
-60.85
-34.63
-7.67
17.72
40.07
58.67
73.32
83.97
90.77
94.06
94.44
92.70
89.70
86.18
82.64
79.38
76.50
74.02
71.87
69.89
67.78
65.17
61.72
57.25
51.80
45.65
39.13
32.50
25.86
19.11
12.12
4.71
-3.22
-11.74
-20.85
-30.41
-40.09
-49.45
-58.05
-65.73
-72.77
-79.97
-88.45
-99.24
-112.77
-128.20
-143.37
-154.94
-159.34
-153.82
-137.50
-111.76
-79.78
-45.54
-12.57
16.84
41.87
62.60
79.51
92.94
103.06
110.03
114.22
116.32
117.11
117.24
117.11
116.71
115.88
114.51
112.74
111.03
109.96
109.94
111.04
112.82
114.48
115.17
114.34
111.95
108.51
104.92
102.08
100.65
100.89
102.65
105.39
108.35
110.71
111.72
110.95
108.43
104.62
100.24
95.76
91.01
84.97
76.11
63.02
45.02
22.50
-3.35
-31.04
-59.43
-87.89
-116.26
-144.56
-172.82
-201.18
-229.96
-259.63
-290.27
-320.92
-349.26
-371.83
-384.97
-386.08
-374.44
-351.38
-319.64
-282.31
-242.06
-200.78
-159.73
-119.98
-82.69
-49.02
-19.85
4.47
24.27
40.29
53.42
64.42
73.75
81.70
88.45
94.26
99.46
104.37
109.16
113.78
117.88
121.03
122.75
122.72
120.88
117.44
112.87
107.70
102.39
97.10
91.62
85.44
78.05
69.25
59.33
49.00
38.99
29.70
20.93
12.06
2.39
-8.39
-20.02
-31.85
-43.25
-53.94
-64.12
-74.34
-85.22
-97.31
-111.09
-126.83
-144.34
-162.49
-178.91
-190.19
-192.70
-183.84
-163.09
-132.34
-95.31
-56.37
-19.32
13.41
40.83
62.93
80.21
93.24
102.59
108.78
112.37
113.96
114.14
113.43
112.19
110.59
108.59
106.11
103.14
99.92
96.88
94.56
93.26
92.87
92.80
92.18
90.24
86.56
81.26
74.91
68.24
61.77
55.68
49.71
43.31
36.02
27.68
18.59
9.43
0.87
-6.72
-13.47
-20.06
-27.31
-35.82
-45.71
-56.50
-67.32
-77.31
-85.93
-93.23
-99.80
-106.67
-115.00
-125.71
-139.08
-154.33
-169.41
-181.17
-186.03
-180.88
-164.08
-135.96
-98.90
-56.79
-13.98
25.60
59.27
85.83
105.47
119.29
128.78
135.27
139.77
142.87
144.86
145.93
146.26
146.05
145.55
145.12
145.31
146.76
150.02
155.05
160.91
165.74
167.25
163.47
153.53
138.02
118.75
98.14
78.37
60.89
46.12
33.67
22.65
12.05
1.04
-10.90
-23.88
-37.67
-51.88
-66.16
-80.35
-94.50
-108.73
-123.06
-137.24
-150.84
-163.40
-174.62
-184.53
-193.56
-202.47
-212.19
-223.54
-236.81
-251.28
-265.03
-275.07
-277.90
-270.56
-251.44
-220.95
-181.45
-136.65
-90.73
-47.42
-9.45
21.68
45.58
62.70
74.08
81.05
85.09
87.68
90.02
92.85
96.38
100.25
103.81
106.46
107.96
108.46
108.36
108.08
107.75
107.23
106.13
104.06
100.71
95.94
89.85
82.68
74.83
66.69
58.55
50.45
42.22
33.57
24.21
14.11
3.46
-7.40
-18.12
-28.45
-38.30
-47.81
-57.34
-67.61
-79.49
-93.58
-109.65
-126.10
-140.05
-147.96
-146.80
-135.03
-113.14
-83.25
-48.42
-11.72
24.15
57.01
85.09
106.94
121.73
129.42
130.92
127.84
122.03
115.05
107.91
101.08
94.63
88.52
82.78
77.57
73.15
69.74
67.40
65.90
64.66
62.96
60.10
55.61
49.47
42.05
33.97
25.94
18.40
11.49
5.00
-1.50
-8.46
-16.21
-24.85
-34.23
-44.06
-53.91
-63.40
-72.30
-80.74
-89.25
-98.78
-110.36
-124.58
-140.93
-157.41
-170.74
-177.09
-173.26
-157.68
-131.00
-95.88
-56.14
-15.83
21.63
53.86
79.55
98.25
110.21
116.18
117.27
114.83
110.19
104.48
98.48
92.63
87.06
81.76
76.69
71.91
67.61
63.99
61.21
59.21
57.62
55.82
53.13
49.02
43.30
36.24
28.43
20.54
13.03
6.06
-0.65
-7.55
-15.06
-23.37
-32.34
-41.57
-50.60
-59.12
-67.06
-74.74
-82.76
-91.93
-103.02
-116.24
-130.90
-145.01
-155.53
-159.01
-152.62
-135.17
-107.53
-72.43
-33.66
5.00
40.51
70.87
95.03
112.56
123.53
128.46
128.32
124.57
118.86
112.73
107.30
103.05
99.94
97.58
95.61
93.79
92.10
90.68
89.62
88.95
88.52
88.04
87.06
85.19
82.05
77.44
71.38
64.13
56.07
47.50
38.48
28.66
17.44
4.21
-11.33
-28.96
-47.96
-67.22
-85.67
-102.47
-117.25
-130.18
-141.85
-153.19
-165.12
-178.22
-192.24
-205.67
-215.90
-219.66
-214.08
-197.63
-170.74
-135.75
-96.31
-56.31
-19.10
13.00
38.76
57.84
70.56
77.68
80.39
80.04
78.06
75.64
73.60
72.22
71.38
70.66
69.58
67.89
65.63
63.14
60.83
58.98
57.45
55.75
53.16
49.09
43.34
36.22
28.41
20.63
13.30
6.37
-0.55
-7.92
-15.98
-24.57
-33.26
-41.52
-49.04
-55.83
-62.17
-68.60
-75.80
-84.50
-95.16
-107.66
-120.87
-132.52
-139.57
-138.95
-128.63
-108.36
-79.81
-46.12
-10.90
22.54
51.86
75.66
93.32
104.72
110.10
110.09
105.75
98.50
89.93
81.46
74.10
68.18
63.50
59.51
55.64
51.59
47.43
43.46
40.00
37.13
34.56
31.61
27.49
21.60
13.73
4.29
-5.96
-16.03
-25.19
-33.13
-40.07
-46.67
-53.85
-62.56
-73.44
-86.51
-100.77
-114.12
-123.63
-126.20
-119.62
-103.23
-78.34
-47.76
-15.05
16.44
44.22
66.80
83.53
94.31
99.40
99.32
94.97
87.57
78.57
69.44
61.32
54.86
50.03
46.33
43.03
39.60
35.89
32.14
28.77
25.98
23.56
20.85
16.97
11.25
3.48
-5.96
-16.26
-26.48
-35.92
-44.31
-51.90
-59.34
-67.52
-77.35
-89.38
-103.54
-118.66
-132.50
-141.92
-143.75
-135.71
-117.25
-89.92
-56.94
-22.31
10.27
38.14
60.07
75.93
86.29
91.99
93.89
92.80
89.51
84.83
79.52
74.22
69.40
65.32
62.03
59.47
57.50
55.93
54.52
53.01
51.08
48.43
44.81
40.18
34.59
28.22
21.24
13.69
5.52
-3.38
-12.98
-23.10
-33.37
-43.35
-52.68
-61.18
-68.99
-76.57
-84.73
-94.48
-106.62
-121.19
-136.88
-150.89
-159.43
-158.78
-146.66
-123.03
-90.27
-52.46
-14.03
21.23
50.92
74.04
90.63
101.31
106.88
108.28
106.49
102.59
97.65
92.67
88.37
85.05
82.56
80.38
77.92
74.85
71.26
67.61
64.45
62.09
60.38
58.66
56.07
51.87
45.77
38.04
29.39
20.77
12.95
6.29
0.60
-4.70
-10.41
-17.17
-25.21
-34.25
-43.68
-52.76
-60.97
-68.15
-74.62
-81.05
-88.39
-97.61
-109.38
-123.63
-139.12
-153.28
-162.63
-163.53
-153.45
-131.83
-100.49
-63.16
-24.37
11.72
42.31
66.14
83.28
94.43
100.49
102.31
100.73
96.75
91.57
86.35
81.97
78.74
76.40
74.32
71.92
68.92
65.52
62.25
59.68
58.06
57.19
56.35
54.62
51.21
45.82
38.78
30.89
23.13
16.11
9.88
3.92
-2.57
-10.20
-19.07
-28.75
-38.41
-47.24
-54.81
-61.18
-67.01
-73.28
-81.18
-91.60
-104.77
-119.77
-134.36
-145.31
-149.08
-143.01
-126.16
-99.74
-66.78
-31.23
3.07
33.23
57.59
75.60
87.41
93.56
94.81
92.04
86.36
79.02
71.27
64.18
58.46
54.34
51.63
49.82
48.28
46.54
44.37
41.84
39.16
36.49
33.79
30.63
26.43
20.61
12.99
3.88
-5.95
-15.55
-24.12
-31.33
-37.42
-43.03
-49.15
-56.80
-66.88
-79.73
-94.71
-109.92
-122.36
-128.61
-125.84
-112.85
-90.51
-61.52
-29.55
1.79
29.71
52.56
69.68
81.06
87.07
88.45
86.18
81.48
75.59
69.54
64.00
59.29
55.46
52.45
50.12
48.30
46.67
44.92
42.69
39.73
36.04
31.81
27.25
22.43
17.19
11.11
3.84
-4.74
-14.32
-24.22
-33.67
-42.10
-49.36
-55.78
-62.12
-69.36
-78.42
-89.96
-103.96
-119.43
-134.25
-145.33
-149.35
-143.72
-127.44
-101.59
-69.08
-33.75
0.58
30.99
55.79
74.41
87.02
94.25
96.95
96.13
92.91
88.45
83.72
79.39
75.74
72.71
70.07
67.57
65.07
62.63
60.40
58.55
57.13
55.97
54.67
52.68
49.45
44.58
38.00
30.02
21.33
12.77
5.03
-1.61
-7.43
-13.12
-19.52
-27.20
-36.21
-46.07
-55.95
-65.07
-73.03
-79.91
-86.32
-93.23
-101.73
-112.58
-125.76
-139.93
-152.51
-159.98
-159.01
-147.48
-125.36
-94.75
-59.22
-22.77
11.23
40.50
63.94
81.24
92.69
98.88
100.73
99.39
96.14
92.17
88.28
84.85
81.85
78.99
76.05
73.02
70.12
67.71
66.11
65.31
65.02
64.67
63.64
61.54
58.30
54.17
49.56
44.80
40.04
35.15
29.87
23.99
17.45
10.46
3.40
-3.39
-9.71
-15.71
-21.81
-28.52
-36.20
-44.79
-53.85
-62.69
-70.67
-77.53
-83.42
-88.85
-94.60
-101.52
-110.38
-121.60
-134.74
-148.09
-158.68
-162.81
-157.17
-140.18
-112.74
-78.08
-40.77
-5.23
25.41
49.80
67.99
80.72
88.82
92.91
93.58
91.55
87.83
83.58
79.79
77.06
75.39
74.30
73.11
71.28
68.71
65.75
62.94
60.70
59.04
57.56
55.63
52.76
48.81
44.02
38.77
33.33
27.72
21.82
15.52
8.95
2.47
-3.57
-9.00
-13.97
-18.91
-24.31
-30.48
-37.51
-45.17
-53.04
-60.70
-67.82
-74.39
-80.68
-87.39
-95.40
-105.47
-117.66
-130.88
-142.65
-149.63
-148.56
-137.37
-116.05
-86.70
-52.94
-18.71
12.66
39.08
59.66
74.26
83.19
86.99
86.50
82.91
77.76
72.50
68.22
65.29
63.44
61.97
60.21
57.82
54.96
52.18
50.04
48.83
48.34
47.89
46.58
43.65
38.82
32.39
25.16
18.02
11.64
6.14
1.11
-4.20
-10.51
-18.17
-26.97
-36.31
-45.42
-53.70
-60.96
-67.41
-73.62
-80.40
-88.69
-99.23
-112.08
-126.24
-139.34
-148.05
-148.92
-139.66
-119.99
-91.96
-59.16
-25.64
5.33
31.78
52.97
68.93
79.87
86.09
87.98
86.27
82.10
76.79
71.52
67.06
63.69
61.21
59.27
57.53
55.84
54.22
52.74
51.40
49.94
47.90
44.77
40.19
34.13
26.99
19.43
12.12
5.41
-0.79
-6.96
-13.70
-21.37
-29.88
-38.74
-47.26
-54.92
-61.60
-67.74
-74.20
-82.09
-92.31
-105.13
-119.69
-133.85
-144.48
-148.15
-142.31
-126.13
-100.86
-69.50
-35.86
-3.53
24.92
48.12
65.65
77.70
84.73
87.44
86.80
84.03
80.42
77.11
74.71
73.32
72.52
71.74
70.50
68.66
66.39
64.05
62.00
60.31
58.73
56.73
53.65
49.04
42.78
35.22
27.07
19.14
12.01
5.78
0.04
-5.98
-12.92
-21.05
-30.10
-39.43
-48.30
-56.23
-63.17
-69.49
-75.92
-83.29
-92.51
-104.13
-117.99
-132.82
-146.13
-154.53
-154.69
-144.43
-123.56
-94.15
-59.83
-24.72
7.61
34.93
56.33
71.94
82.38
88.43
90.88
90.57
88.36
85.13
81.66
78.44
75.65
73.14
70.70
68.19
65.71
63.48
61.74
60.42
59.07
57.00
53.51
48.32
41.70
34.41
27.27
20.79
14.90
9.02
2.42
-5.35
-14.17
-23.47
-32.45
-40.49
-47.43
-53.60
-59.73
-66.86
-75.98
-87.64
-101.44
-115.67
-127.40
-133.12
-129.87
-116.30
-93.26
-63.57
-31.12
0.29
27.90
50.22
66.84
78.05
84.42
86.68
85.76
82.76
78.86
75.02
71.83
69.40
67.50
65.79
64.01
62.14
60.29
58.54
56.77
54.61
51.57
47.26
41.60
34.88
27.66
20.52
13.83
7.61
1.53
-4.88
-12.02
-20.02
-28.62
-37.37
-45.76
-53.53
-60.78
-68.06
-76.23
-86.27
-98.75
-113.44
-128.85
-142.27
-150.25
-149.59
-138.37
-116.70
-86.86
-52.57
-17.92
13.68
40.15
60.69
75.45
85.06
90.33
92.19
91.61
89.56
86.87
84.06
81.34
78.70
76.06
73.39
70.76
68.29
66.04
63.94
61.75
59.12
55.68
51.15
45.46
38.77
31.45
23.91
16.47
9.19
1.90
-5.69
-13.83
-22.54
-31.56
-40.47
-48.87
-56.63
-64.06
-72.00
-81.44
-93.18
-107.06
-121.56
-133.87
-140.45
-138.12
-125.17
-102.01
-71.09
-36.20
-1.34
30.27
56.69
77.33
92.45
102.77
109.13
112.42
113.63
113.78
113.84
114.49
116.00
118.23
120.77
123.26
125.54
127.81
130.43
133.78
137.93
142.55
146.94
150.30
152.01
152.02
150.85
149.49
148.89
149.41
150.49
150.57
147.48
138.95
123.30
99.85
69.19
33.09
-5.90
-44.90
-81.45
-113.93
-141.85
-165.68
-186.52
-205.73
-224.56
-243.85
-263.52
-282.18
-296.99
-304.01
-299.41
-280.92
-248.98
-206.86
-159.74
-113.07
-71.02
-35.71
-7.41
14.58
31.23
43.23
51.14
55.57
57.39
57.64
57.18
56.56
55.78
54.51
52.24
48.54
43.23
36.46
28.66
20.49
12.68
5.80
0.21
-4.06
-7.28
-9.88
-12.27
-14.75
-17.57
-21.05
-25.73
-32.31
-41.44
-53.45
-68.16
-84.91
-102.68
-120.37
-136.77
-150.44
-159.44
-161.45
-154.36
-137.01
-110.02
-76.02
-39.03
-3.55
26.52
48.46
60.91
63.74
58.00
45.67
29.52
12.64
-2.12
-12.77
-18.47
-19.56
-17.25
-13.33
-9.82
-8.64
-11.09
-17.38
-26.29
-35.26
-40.91
-39.87
-29.70
-9.54
19.71
55.64
94.87
133.77
169.17
198.82
221.65
237.83
248.51
255.52
260.79
265.79
270.95
275.31
276.72
272.49
260.38
239.44
210.41
175.22
136.11
94.66
51.24
5.30
-43.97
-96.71
-152.16
-208.70
-264.13
-315.72
-359.93
-392.46
-408.87
-406.13
-384.16
-346.68
-300.39
-252.82
-209.83
-174.06
-145.09
-120.82
-99.22
-79.36
-61.36
-45.68
-32.49
-21.48
-12.12
-4.00
3.03
8.99
13.83
17.61
20.49
22.75
24.71
26.72
28.96
31.32
33.40
34.56
34.34
32.58
29.65
26.19
22.83
19.88
17.17
14.11
9.86
3.61
-5.39
-17.56
-32.73
-49.86
-66.77
-80.40
-87.47
-85.46
-73.44
-52.53
-25.47
4.20
33.16
59.04
80.56
97.24
108.96
115.83
118.17
116.67
112.49
107.03
101.59
97.03
93.68
91.29
89.41
87.61
85.60
83.33
80.84
78.19
75.31
72.11
68.46
64.28
59.55
54.25
48.31
41.68
34.32
26.40
18.33
10.66
3.83
-2.03
-7.29
-12.71
-19.18
-27.42
-37.75
-50.02
-63.65
-77.53
-90.00
-98.99
-102.37
-98.55
-87.20
-69.49
-47.82
-24.97
-3.26
16.05
32.60
46.45
57.43
65.00
68.52
67.79
63.51
57.15
50.38
44.46
39.76
35.82
31.79
27.02
21.32
14.97
8.41
1.94
-4.42
-10.84
-17.48
-24.30
-31.13
-37.85
-44.56
-51.59
-59.29
-67.79
-76.89
-86.12
-95.11
-103.80
-112.61
-122.08
-132.50
-143.36
-153.18
-159.73
-160.69
-154.42
-140.52
-119.87
-94.21
-65.63
-36.16
-7.77
17.41
37.08
49.20
52.86
49.07
41.00
33.06
29.39
32.38
41.91
55.92
71.56
86.65
100.44
113.49
126.86
141.08
155.59
168.71
178.09
181.43
177.24
165.24
146.32
122.12
94.39
64.49
33.26
1.37
-30.36
-60.82
-88.73
-112.84
-132.08
-145.43
-151.92
-150.73
-141.70
-125.87
-105.68
-84.42
-65.14
-49.32
-36.34
-23.82
-9.10
9.49
31.85
56.35
80.78
103.42
123.50
141.13
156.87
171.26
184.69
197.41
209.51
220.89
231.03
239.06
244.05
245.31
242.36
234.50
220.47
198.66
168.13
130.02
88.28
48.74
16.92
-4.68
-17.76
-27.12
-37.84
-52.04
-67.52
-78.71
-79.72
-67.43
-43.01
-11.31
21.53
50.54
73.25
89.59
100.62
107.17
109.17
105.98
97.17
83.40
66.49
48.97
33.17
20.34
10.25
1.56
-7.54
-18.47
-31.71
-46.68
-62.14
-76.70
-89.41
-100.00
-108.87
-116.86
-124.86
-133.65
-143.79
-155.60
-169.16
-184.02
-198.87
-211.40
-218.60
-217.53
-206.44
-185.50
-157.02
-124.69
-92.50
-63.51
-39.38
-20.42
-6.18
3.87
10.10
12.74
12.27
9.52
5.80
2.48
0.59
0.47
1.59
2.91
3.26
1.89
-1.36
-5.97
-11.26
-16.62
-21.87
-27.20
-32.96
-39.45
-46.86
-55.38
-65.29
-76.75
-89.33
-101.60
-111.10
-114.83
-110.32
-96.63
-74.87
-47.77
-18.82
8.86
33.25
53.41
69.14
80.40
87.04
88.99
86.47
80.33
71.86
62.62
54.00
46.94
41.78
38.29
35.81
33.46
30.40
26.02
20.11
12.84
4.69
-3.79
-12.20
-20.47
-28.84
-37.83
-48.01
-59.77
-72.89
-86.19
-97.57
-104.27
-103.66
-94.15
-75.71
-50.06
-20.11
10.88
40.04
65.38
85.80
100.86
110.54
115.22
115.62
112.84
108.14
102.61
96.88
91.03
84.83
78.02
70.60
62.93
55.48
48.53
41.93
35.05
27.14
17.62
6.49
-5.68
-17.89
-29.12
-38.61
-46.14
-52.06
-57.22
-62.88
-70.46
-81.16
-95.31
-111.84
-128.07
-140.06
-143.77
-136.44
-117.58
-89.34
-55.76
-21.45
9.75
35.64
55.71
70.60
81.37
88.87
93.62
95.93
96.14
94.78
92.50
89.92
87.47
85.35
83.64
82.43
81.90
82.20
83.25
84.53
85.14
84.05
80.50
74.33
66.08
56.71
47.28
38.52
30.62
23.24
15.74
7.51
-1.77
-11.96
-22.55
-32.84
-42.27
-50.59
-58.08
-65.51
-73.96
-84.51
-97.60
-112.60
-127.51
-139.27
-144.50
-140.60
-126.75
-104.18
-75.94
-45.86
-17.52
6.55
25.20
38.42
46.92
51.66
53.62
53.70
52.74
51.46
50.43
49.91
49.83
49.87
49.66
48.99
47.95
46.91
46.26
46.13
46.33
46.31
45.47
43.49
40.46
36.79
32.96
29.20
25.31
20.80
15.14
8.04
-0.41
-9.77
-19.48
-29.07
-38.27
-47.15
-55.94
-65.11
-75.26
-86.89
-100.10
-114.16
-127.45
-137.49
-141.74
-138.33
-126.74
-108.05
-84.56
-59.10
-34.28
-11.94
6.97
22.17
33.69
41.65
46.22
47.82
47.21
45.55
44.08
43.79
45.05
47.50
50.27
52.46
53.50
53.29
52.10
50.25
47.89
44.93
41.09
36.17
30.03
22.76
14.58
5.84
-3.07
-11.70
-19.69
-26.89
-33.50
-40.22
-48.01
-57.82
-69.88
-83.27
-95.79
-104.35
-105.97
-98.70
-82.39
-58.69
-30.49
-1.03
26.89
51.25
70.84
85.02
93.57
96.72
95.22
90.33
83.62
76.63
70.46
65.52
61.52
57.70
53.16
47.34
40.19
32.22
24.30
17.20
11.39
6.80
2.94
-0.86
-5.15
-10.17
-15.90
-22.17
-28.83
-35.82
-43.12
-50.69
-58.37
-66.04
-73.70
-81.70
-90.60
-100.88
-112.34
-123.78
-132.94
-137.14
-134.15
-123.06
-104.65
-81.11
-55.32
-29.99
-7.11
12.14
27.19
37.76
43.81
45.61
43.91
39.94
35.17
30.83
27.45
24.79
21.95
17.92
12.18
4.94
-2.93
-10.43
-17.04
-23.09
-29.68
-38.20
-49.68
-64.34
-81.50
-99.91
-118.25
-135.59
-151.67
-166.88
-182.04
-198.21
-216.40
-237.22
-260.45
-284.60
-306.74
-322.88
-328.85
-321.57
-300.03
-265.65
-221.62
-171.73
-119.12
-65.58
-11.73
42.06
94.91
145.02
189.99
227.63
256.75
277.38
290.49
297.32
298.81
295.47
287.63
276.05
262.11
247.63
234.31
223.02
213.44
204.32
194.13
181.79
167.15
150.94
134.31
118.24
103.16
88.89
74.92
60.89
46.76
32.95
20.07
8.66
-1.03
-9.16
-16.22
-22.94
-30.08
-38.25
-47.66
-57.86
-67.60
-74.95
-77.79
-74.38
-63.98
-47.20
-25.77
-2.07
21.56
43.22
61.73
76.57
87.67
95.23
99.61
101.26
100.75
98.69
95.69
92.37
89.21
86.47
84.10
81.79
79.03
75.36
70.58
64.73
58.05
50.69
42.58
33.42
22.81
10.56
-3.22
-18.02
-33.13
-47.70
-61.00
-72.48
-81.76
-88.81
-93.83
-97.38
-100.18
-103.07
-106.85
-112.02
-118.53
-125.41
-130.77
-131.96
-126.26
-111.74
-88.04
-56.59
-20.29
17.34
53.13
84.71
110.78
130.77
144.61
152.57
155.35
154.09
150.21
145.05
139.47
133.80
127.92
121.72
115.43
109.72
105.35
102.79
101.88
101.82
101.41
99.51
95.42
88.94
80.22
69.55
57.11
42.92
26.93
9.27
-9.62
-29.01
-48.01
-65.85
-82.07
-96.60
-109.69
-121.71
-133.15
-144.50
-156.32
-169.06
-182.74
-196.63
-209.09
-217.83
-220.50
-215.48
-202.40
-182.32
-157.44
-130.48
-104.05
-80.19
-60.22
-44.81
-34.13
-27.98
-25.95
-27.38
-31.45
-37.27
-44.01
-50.96
-57.72
-64.23
-70.76
-77.82
-85.95
-95.44
-106.04
-116.82
-126.34
-133.08
-135.89
-134.49
-129.44
-121.88
-112.98
-103.53
-93.79
-83.70
-73.15
-62.22
-51.06
-39.76
-28.34
-16.91
-6.13
2.68
7.84
8.06
3.36
-4.41
-11.89
-15.23
-11.46
0.53
19.77
43.78
69.50
94.20
115.84
133.03
144.76
150.20
148.81
140.59
126.37
107.88
87.52
67.76
50.53
36.71
26.15
17.98
11.27
5.50
0.69
-2.88
-5.10
-6.31
-7.23
-8.51
-10.42
-12.60
-14.32
-14.91
-14.09
-12.18
-9.96
-8.47
-8.78
-11.78
-17.98
-27.16
-38.06
-48.34
-55.02
-55.38
-47.87
-32.79
-12.15
10.98
33.53
53.22
68.90
80.39
87.99
92.16
93.24
91.55
87.43
81.34
73.90
65.82
57.86
50.66
44.65
39.94
36.34
33.53
31.14
28.86
26.38
23.39
19.42
14.07
7.14
-1.20
-10.30
-19.33
-27.54
-34.69
-41.19
-48.16
-56.97
-68.55
-82.68
-97.58
-110.12
-116.77
-114.82
-103.33
-83.45
-57.87
-29.83
-2.18
23.14
45.03
62.91
76.28
84.80
88.42
87.60
83.40
77.22
70.48
64.18
58.84
54.31
50.10
45.70
40.91
35.98
31.54
28.20
26.17
24.96
23.49
20.55
15.35
7.93
-0.80
-9.50
-17.05
-23.06
-28.01
-32.99
-39.21
-47.65
-58.78
-72.41
-87.56
-102.32
-113.97
-119.37
-115.87
-102.27
-79.36
-49.93
-17.85
13.03
39.90
61.43
77.59
89.04
96.62
100.95
102.43
101.47
98.58
94.53
90.17
86.22
83.08
80.78
79.12
77.80
76.69
75.78
75.07
74.39
73.26
71.03
67.17
61.55
54.49
46.70
38.87
31.38
24.18
16.88
9.11
0.71
-8.01
-16.51
-24.21
-30.92
-36.95
-43.05
-50.33
-59.82
-72.20
-87.27
-103.63
-118.62
-128.74
-130.58
-121.91
-102.57
-74.60
-41.68
-7.98
22.95
48.88
68.94
83.31
92.59
97.56
99.03
97.95
95.36
92.28
89.49
87.31
85.64
84.04
82.14
79.80
77.26
74.94
73.23
72.13
71.24
69.80
67.07
62.59
56.45
49.21
41.65
34.44
27.89
21.79
15.58
8.62
0.57
-8.57
-18.39
-28.35
-38.02
-47.29
-56.44
-66.06
-76.90
-89.56
-104.14
-119.79
-134.49
-145.27
-148.88
-142.87
-126.54
-101.32
-70.48
-38.09
-7.80
18.00
38.37
53.46
63.91
70.36
73.30
73.23
70.84
67.13
63.21
59.97
57.89
56.79
56.07
55.01
53.16
50.54
47.62
45.03
43.24
42.24
41.53
40.28
37.70
33.37
27.45
20.59
13.78
7.90
3.46
0.31
-2.24
-5.22
-9.59
-15.82
-23.68
-32.32
-40.71
-48.06
-54.18
-59.62
-65.40
-72.74
-82.69
-95.77
-111.73
-129.27
-145.95
-158.48
-163.39
-158.07
-141.72
-115.72
-83.40
-48.94
-16.23
12.06
34.75
51.88
64.09
72.23
77.14
79.70
80.94
81.90
83.39
85.76
88.71
91.46
93.08
92.91
90.79
87.14
82.63
77.90
73.17
68.26
62.78
56.39
49.12
41.45
34.17
28.06
23.59
20.69
18.59
16.03
11.50
3.68
-8.27
-24.36
-43.86
-65.52
-87.88
-109.73
-130.25
-148.92
-165.11
-177.72
-185.01
-184.92
-175.72
-156.76
-128.98
-94.81
-57.62
-20.84
12.80
41.56
64.70
82.07
93.89
100.55
102.67
101.12
96.97
91.38
85.37
79.76
74.95
71.07
67.95
65.23
62.49
59.25
55.13
49.89
43.49
36.05
27.73
18.63
8.66
-2.38
-14.66
-28.02
-41.91
-55.40
-67.59
-77.85
-86.03
-92.44
-97.54
-101.83
-105.76
-109.86
-114.75
-120.76
-127.51
-133.46
-136.00
-132.25
-120.09
-99.19
-71.18
-39.20
-6.83
22.96
48.39
68.80
84.22
94.93
101.25
103.67
102.97
100.37
97.22
94.71
93.49
93.56
94.37
95.23
95.67
95.65
95.55
95.88
96.91
98.49
100.00
100.65
99.88
97.49
93.82
89.46
85.03
80.78
76.45
71.26
64.07
53.68
39.31
21.04
0.07
-21.45
-40.93
-55.98
-65.13
-68.10
-65.82
-60.08
-53.10
-46.98
-43.33
-43.00
-45.95
-51.32
-57.51
-62.50
-64.24
-61.10
-52.48
-39.04
-22.75
-6.29
7.65
17.32
22.30
23.44
22.23
20.03
17.59
14.93
11.58
6.95
0.55
-7.93
-18.59
-31.27
-45.54
-60.73
-76.11
-91.10
-105.54
-119.77
-134.49
-150.39
-167.57
-185.05
-200.67
-211.40
-214.24
-207.07
-189.43
-162.62
-129.34
-92.84
-56.20
-21.80
8.64
33.93
53.21
66.06
72.68
74.07
71.73
67.20
61.31
53.80
43.33
28.21
7.44
-18.37
-46.48
-72.30
-90.37
-96.04
-87.13
-65.16
-35.56
-6.48
13.37
17.25
2.41
-29.17
-71.39
-115.69
-153.37
-177.62
-185.08
-176.21
-154.81
-126.56
-97.17
-70.74
-48.63
-29.36
-9.65
14.02
43.93
80.04
119.89
159.20
193.20
217.91
231.14
232.71
224.10
207.82
186.78
163.83
141.50
121.79
105.98
95.04
90.21
93.55
107.52
133.60
170.47
212.89
252.55
280.71
291.62
284.62
263.99
236.39
207.53
180.11
153.59
125.85
94.95
60.29
22.52
-16.95
-56.37
-93.64
-126.21
-151.38
-166.98
-172.20
-167.73
-155.63
-138.49
-118.81
-98.63
-79.52
-62.68
-48.88
-38.40
-30.94
-25.81
-22.33
-20.19
-19.49
-20.53
-23.41
-27.74
-32.60
-36.87
-39.60
-40.36
-39.36
-37.37
-35.42
-34.47
-35.13
-37.35
-40.58
-43.91
-46.42
-47.66
-47.82
-47.64
-48.02
-49.40
-51.31
-52.25
-50.18
-43.24
-30.38
-11.76
11.36
36.97
62.80
86.66
106.61
121.17
129.42
131.19
126.96
117.68
104.48
88.35
70.16
50.66
30.65
10.81
-8.54
-27.77
-47.99
-70.73
-97.29
-128.10
-162.35
-197.98
-232.16
-261.76
-283.96
-296.62
-298.74
-290.75
-274.54
-253.27
-230.70
-210.33
-194.29
-182.72
-173.46
-162.71
-146.22
-120.88
-86.06
-43.89
1.35
44.77
82.39
112.12
133.79
148.43
157.41
161.78
162.26
159.66
155.11
150.10
146.09
144.13
144.65
147.31
150.83
153.06
151.19
142.53
125.69
101.56
73.41
45.89
23.29
7.77
-1.37
-7.05
-12.83
-21.14
-32.46
-45.76
-59.77
-74.34
-90.86
-111.59
-138.03
-169.57
-202.93
-232.97
-254.45
-263.78
-259.95
-244.35
-219.78
-189.41
-156.15
-122.60
-91.17
-63.96
-42.41
-26.80
-16.09
-8.39
-1.62
5.72
14.20
23.54
32.97
41.61
48.69
53.75
56.60
57.40
56.57
54.65
52.18
49.45
46.42
42.75
37.98
31.84
24.60
17.14
10.79
6.87
5.93
7.34
9.19
8.95
4.60
-4.23
-15.72
-26.23
-31.50
-28.28
-15.44
5.79
32.42
61.04
88.66
113.20
133.28
147.85
156.03
157.44
152.60
143.12
131.46
120.18
111.15
105.14
101.86
100.35
99.58
98.70
97.05
94.14
89.58
83.08
74.66
64.55
53.21
41.12
28.67
16.07
3.34
-9.72
-23.56
-38.81
-55.79
-74.07
-91.90
-106.36
-113.97
-111.90
-99.02
-76.47
-47.32
-15.53
15.14
42.00
63.66
79.74
90.38
95.90
96.70
93.45
87.11
78.93
70.22
62.06
55.03
49.16
44.16
39.48
34.67
29.37
23.32
16.34
8.34
-0.64
-10.42
-20.58
-30.66
-40.23
-49.11
-57.51
-66.06
-75.66
-87.12
-100.62
-115.16
-128.37
-136.91
-137.34
-127.31
-106.49
-76.83
-41.97
-6.13
27.00
55.09
77.10
93.02
103.27
108.46
109.32
106.79
102.02
96.22
90.36
84.92
79.90
74.95
69.73
64.07
58.13
52.14
46.30
40.54
34.47
27.58
19.35
9.62
-1.44
-13.32
-25.34
-36.97
-48.01
-58.86
-70.36
-83.53
-98.92
-116.02
-132.86
-146.20
-152.42
-148.48
-133.18
-107.50
-74.45
-38.09
-2.49
29.24
55.26
74.93
88.42
96.32
99.39
98.49
94.62
88.88
82.34
75.91
70.15
65.24
61.01
57.14
53.24
49.01
44.23
38.76
32.50
25.47
17.78
9.67
1.40
-6.82
-15.01
-23.42
-32.53
-42.93
-54.98
-68.52
-82.49
-94.87
-102.88
-103.61
-94.89
-76.04
-48.15
-13.98
22.91
58.96
91.37
118.37
139.29
154.17
163.65
168.73
170.71
170.94
170.63
170.60
171.17
172.44
174.49
177.51
181.66
186.72
191.82
195.57
196.30
192.40
182.43
165.07
139.13
103.89
59.85
9.45
-42.89
-91.73
-132.28
-162.07
-181.77
-194.76
-205.66
-218.53
-235.56
-256.67
-279.90
-302.30
-320.71
-332.29
-334.75
-326.58
-307.69
-279.98
-247.63
-216.46
-192.20
-178.14
-173.34
-172.49
-167.78
-152.36
-123.56
-84.19
-41.28
-2.98
24.97
41.09
47.89
49.88
51.13
53.82
58.14
63.27
68.61
74.41
81.33
89.79
99.30
108.46
115.52
119.14
119.01
115.77
110.63
104.69
98.29
90.97
81.68
69.62
54.83
38.53
22.78
9.80
1.06
-3.12
-3.49
-1.21
3.00
9.20
17.94
29.44
42.75
55.31
63.43
63.30
52.34
30.26
-0.52
-35.09
-67.09
-90.20
-99.85
-94.39
-75.48
-47.38
-15.46
15.41
41.88
62.46
77.07
86.50
91.96
95.00
97.13
99.34
101.52
102.18
98.87
89.25
72.31
48.95
21.60
-6.75
-33.59
-57.47
-77.76
-93.98
-105.29
-110.47
-108.48
-99.04
-83.21
-63.23
-42.13
-23.04
-8.54
-0.16
1.85
-1.48
-8.22
-16.07
-22.97
-27.52
-29.02
-27.28
-22.32
-14.28
-3.47
9.26
22.47
34.30
42.99
47.52
47.84
44.80
39.60
33.24
26.25
18.69
10.45
1.51
-8.01
-17.94
-28.20
-38.83
-49.69
-60.12
-68.88
-74.23
-74.54
-68.87
-57.46
-41.69
-23.65
-5.47
11.23
25.48
36.85
45.10
50.07
51.62
49.78
45.03
38.20
30.42
22.81
16.23
11.09
7.30
4.37
1.61
-1.70
-5.96
-11.22
-17.15
-23.22
-28.96
-34.24
-39.24
-44.43
-50.38
-57.65
-66.66
-77.57
-90.10
-103.28
-115.27
-123.56
-125.47
-119.03
-103.65
-80.59
-52.55
-22.98
5.00
29.16
48.38
62.37
71.20
75.04
74.21
69.32
61.45
52.08
42.80
34.83
28.67
23.99
19.88
15.21
9.16
1.41
-7.77
-17.74
-27.82
-37.61
-47.06
-56.45
-66.35
-77.46
-90.58
-106.31
-124.67
-144.50
-163.16
-176.89
-181.71
-174.73
-155.30
-125.31
-88.59
-49.71
-12.69
19.82
46.59
67.44
82.61
92.44
97.27
97.67
94.51
89.05
82.80
77.06
72.70
69.86
67.95
65.93
62.72
57.55
50.32
41.45
31.68
21.67
11.79
1.98
-8.09
-18.86
-30.85
-44.59
-60.57
-78.91
-98.80
-118.12
-133.45
-140.80
-136.85
-120.33
-92.56
-57.16
-18.86
17.96
50.33
76.84
97.31
112.05
121.46
126.05
126.60
124.34
120.72
116.96
113.63
110.57
107.09
102.54
96.73
90.13
83.61
77.91
73.24
69.05
64.32
57.94
49.30
38.52
26.39
14.05
2.52
-7.75
-17.09
-26.52
-37.62
-52.00
-70.68
-93.34
-117.84
-140.23
-155.61
-159.55
-149.55
-126.05
-92.18
-52.73
-12.60
24.45
56.22
81.92
101.43
114.89
122.53
124.92
123.15
118.80
113.58
108.93
105.62
103.78
102.98
102.63
102.23
101.52
100.44
98.94
96.89
94.01
89.98
84.58
77.88
70.14
61.69
52.68
43.05
32.50
20.77
7.89
-5.77
-19.48
-32.50
-44.32
-54.93
-64.95
-75.42
-87.66
-102.78
-121.25
-142.21
-163.24
-180.44
-189.34
-186.19
-169.29
-139.76
-101.16
-58.45
-16.44
21.29
52.84
77.65
95.86
107.91
114.31
115.89
113.83
109.69
104.98
100.88
97.86
95.80
94.14
92.25
89.78
86.77
83.54
80.46
77.69
75.04
71.94
67.68
61.72
53.92
44.69
34.87
25.39
16.89
9.42
2.40
-5.02
-13.58
-23.44
-34.06
-44.50
-53.86
-61.77
-68.57
-75.19
-82.92
-92.87
-105.57
-120.53
-136.03
-149.08
-156.09
-153.67
-139.82
-114.71
-80.78
-42.11
-3.23
32.05
61.27
83.38
98.31
106.47
108.47
105.11
97.50
87.11
75.50
64.09
53.77
44.81
36.93
29.63
22.49
15.34
8.34
1.85
-3.77
-8.33
-11.95
-15.12
-18.53
-22.88
-28.52
-35.26
-42.43
-49.14
-54.63
-58.74
-61.92
-65.20
-69.80
-76.81
-86.73
-99.05
-112.14
-123.23
-129.05
-126.65
-114.45
-92.82
-63.97
-31.28
1.76
32.37
58.77
79.88
95.11
104.05
106.72
103.79
96.70
87.41
77.79
69.15
61.92
55.83
50.40
45.25
40.45
36.31
33.02
30.33
27.54
23.61
17.76
9.80
0.26
-9.79
-19.31
-27.65
-34.82
-41.40
-48.31
-56.52
-66.81
-79.56
-94.35
-109.70
-123.00
-130.93
-130.40
-119.63
-98.91
-70.53
-38.17
-5.65
23.95
48.78
68.10
81.84
90.17
93.41
92.13
87.26
80.15
72.29
64.98
58.96
54.25
50.31
46.40
42.02
37.12
32.13
27.63
23.93
20.79
17.49
13.09
6.86
-1.39
-11.21
-21.68
-31.82
-40.87
-48.62
-55.41
-62.05
-69.65
-79.24
-91.39
-105.65
-120.32
-132.53
-138.88
-136.45
-123.78
-101.48
-72.06
-39.13
-6.37
23.30
48.01
66.95
79.88
86.96
88.76
86.24
80.85
74.19
67.67
62.07
57.45
53.31
49.04
44.32
39.26
34.44
30.37
27.25
24.72
21.96
18.04
12.31
4.69
-4.35
-13.99
-23.44
-32.20
-40.22
-47.84
-55.73
-64.79
-75.88
-89.54
-105.37
-121.57
-134.97
-141.72
-138.47
-123.76
-98.64
-66.43
-31.58
1.76
30.79
54.35
72.45
85.46
93.69
97.18
96.21
91.48
84.32
76.36
69.12
63.57
59.93
57.67
55.90
53.74
50.65
46.64
42.08
37.50
33.23
29.23
25.07
20.14
13.88
6.12
-2.91
-12.67
-22.57
-32.19
-41.35
-50.16
-58.87
-67.74
-77.12
-87.54
-99.69
-114.19
-131.01
-148.78
-164.54
-174.29
-174.11
-161.63
-137.08
-103.29
-64.77
-26.29
8.49
37.56
60.47
77.55
89.41
96.51
99.38
98.82
95.94
92.09
88.41
85.54
83.52
81.94
80.32
78.38
76.15
73.84
71.56
69.13
66.14
62.07
56.69
50.14
42.94
35.75
28.99
22.64
16.22
8.99
0.35
-9.87
-21.22
-32.87
-43.89
-53.77
-62.63
-71.26
-80.90
-92.79
-107.62
-124.96
-142.96
-158.44
-167.60
-167.06
-154.90
-131.46
-99.22
-62.15
-24.45
10.33
39.96
63.41
80.59
91.87
97.84
99.30
97.23
92.83
87.31
81.80
77.16
73.80
71.58
69.94
68.08
65.31
61.39
56.58
51.58
47.06
43.25
39.71
35.50
29.64
21.61
11.66
0.69
-10.24
-20.33
-29.38
-37.74
-46.05
-54.99
-65.15
-77.03
-90.97
-106.80
-123.44
-138.56
-148.89
-151.04
-142.68
-123.48
-95.32
-61.67
-26.51
6.69
35.60
58.98
76.34
87.65
93.19
93.67
90.30
84.57
77.98
71.65
66.13
61.47
57.46
53.88
50.72
48.07
45.93
44.06
41.84
38.47
33.21
25.66
15.97
4.76
-6.99
-18.33
-28.61
-37.77
-46.40
-55.65
-66.81
-80.72
-97.12
-114.27
-129.02
-137.61
-136.75
-124.85
-102.50
-72.38
-38.30
-4.13
27.12
53.58
74.30
88.96
97.49
100.20
97.89
91.95
84.20
76.43
69.94
65.19
61.87
59.12
56.06
52.22
47.64
42.92
38.70
35.33
32.47
29.22
24.39
17.13
7.35
-4.18
-16.19
-27.40
-37.06
-45.24
-52.62
-60.33
-69.60
-81.51
-96.68
-114.75
-133.99
-151.17
-162.09
-162.72
-150.59
-125.81
-91.18
-51.35
-11.41
24.57
54.27
77.04
93.36
104.06
109.89
111.49
109.51
104.93
98.93
92.83
87.64
83.86
81.32
79.32
77.08
74.00
70.00
65.44
60.83
56.54
52.56
48.50
43.76
37.81
30.37
21.45
11.36
0.57
-10.44
-21.26
-31.62
-41.51
-51.06
-60.63
-70.67
-81.83
-94.86
-110.28
-127.86
-145.98
-161.50
-170.29
-168.49
-153.98
-127.33
-91.81
-52.24
-13.47
20.96
49.30
71.30
87.40
98.04
103.56
104.38
101.35
95.80
89.40
83.69
79.57
77.13
75.71
74.34
72.16
68.83
64.54
59.84
55.26
51.03
46.99
42.59
37.21
30.37
21.93
12.13
1.47
-9.42
-19.97
-29.86
-39.04
-47.75
-56.48
-65.94
-76.98
-90.44
-106.58
-124.61
-142.16
-155.53
-160.62
-154.27
-135.53
-106.14
-69.98
-31.73
4.51
36.06
61.78
81.52
95.46
103.87
107.18
106.23
102.44
97.47
92.79
89.25
86.84
84.95
82.73
79.66
75.83
71.81
68.43
66.10
64.62
63.12
60.42
55.55
48.25
39.05
29.06
19.39
10.60
2.56
-5.46
-14.29
-24.31
-35.26
-46.28
-56.43
-65.05
-72.11
-78.13
-84.00
-90.74
-99.30
-110.44
-124.26
-139.79
-154.63
-165.18
-167.46
-158.48
-137.47
-106.24
-68.77
-29.80
6.55
37.67
62.58
81.34
94.42
102.29
105.48
104.76
101.33
96.70
92.29
89.04
87.15
86.19
85.33
83.96
81.89
79.43
77.19
75.62
74.70
73.80
71.90
68.03
61.70
53.20
43.46
33.72
24.92
17.33
10.38
3.06
-5.63
-16.06
-27.76
-39.67
-50.57
-59.68
-67.00
-73.38
-80.06
-88.44
-99.57
-113.84
-130.64
-148.06
-163.02
-171.72
-170.70
-157.90
-133.51
-100.00
-61.43
-22.31
13.59
43.82
67.33
84.05
94.48
99.36
99.62
96.47
91.23
85.31
79.82
75.47
72.38
70.28
68.72
67.28
65.73
64.00
62.12
60.09
57.71
54.72
50.86
45.98
40.14
33.60
26.74
19.80
12.83
5.57
-2.34
-11.21
-21.06
-31.49
-41.85
-51.41
-59.76
-66.98
-73.81
-81.47
-91.33
-104.22
-119.81
-136.18
-150.06
-157.53
-155.33
-141.98
-118.28
-87.16
-52.62
-18.60
11.91
37.25
56.77
70.43
78.39
80.99
78.97
73.62
66.75
60.23
55.43
52.81
51.81
51.31
50.17
47.86
44.58
41.06
38.03
35.75
33.81
31.31
27.33
21.22
12.92
2.96
-7.74
-18.10
-27.32
-35.10
-41.78
-48.28
-55.91
-65.86
-78.74
-94.02
-109.78
-122.95
-129.98
-127.98
-115.62
-93.71
-64.88
-32.78
-1.00
27.76
51.88
70.62
83.60
90.69
92.03
88.32
81.02
72.10
63.60
56.97
52.68
50.18
48.27
45.72
41.82
36.61
30.69
24.82
19.31
13.87
7.69
-0.15
-10.16
-22.12
-35.12
-48.02
-59.89
-70.41
-79.90
-89.07
-98.79
-110.03
-123.82
-141.14
-162.40
-186.59
-210.68
-229.79
-238.40
-232.18
-209.58
-172.45
-125.21
-73.21
-21.05
28.15
72.57
110.93
141.96
164.55
178.31
184.11
184.02
180.54
175.46
169.17
160.61
148.02
130.07
106.86
80.11
52.78
28.04
8.30
-5.33
-13.09
-16.10
-15.77
-13.31
-9.62
-5.34
-1.08
2.54
4.76
4.92
2.53
-2.60
-10.52
-21.37
-35.23
-51.88
-70.06
-87.25
-99.75
-103.81
-96.98
-79.22
-53.14
-22.99
6.80
33.10
54.60
71.47
84.38
93.75
99.50
101.43
99.72
95.10
88.70
81.63
74.62
67.90
61.36
54.91
48.64
42.99
38.57
35.92
35.12
35.61
36.14
35.07
30.89
22.76
10.92
-3.36
-18.07
-31.18
-41.27
-47.97
-52.07
-55.12
-59.08
-65.76
-76.46
-91.56
-110.15
-130.00
-147.61
-158.99
-160.65
-150.80
-129.96
-100.84
-67.54
-34.20
-4.04
21.20
40.95
55.36
64.76
69.59
70.50
68.49
64.90
61.06
57.97
56.00
54.90
54.03
52.80
50.90
48.44
45.77
43.18
40.64
37.75
33.82
28.21
20.58
11.15
0.57
-10.23
-20.45
-29.67
-38.12
-46.61
-56.29
-68.12
-82.25
-97.57
-111.68
-121.41
-123.80
-116.95
-100.72
-76.65
-47.46
-16.32
13.87
40.82
62.92
79.23
89.45
93.92
93.63
89.98
84.51
78.55
72.94
68.00
63.71
59.85
56.26
52.83
49.52
46.20
42.63
38.43
33.30
27.09
19.92
12.15
4.17
-3.73
-11.51
-19.49
-28.31
-38.78
-51.74
-67.65
-86.07
-105.29
-122.29
-133.37
-135.13
-125.72
-105.48
-76.89
-43.82
-10.22
20.81
47.48
69.06
85.39
96.43
102.21
103.08
100.01
94.53
88.45
83.28
79.75
77.65
76.14
74.15
70.95
66.45
61.09
55.60
50.51
45.89
41.21
35.63
28.31
18.84
7.47
-5.01
-17.52
-29.18
-39.64
-49.28
-59.04
-70.19
-83.82
-100.39
-119.21
-138.18
-154.01
-162.91
-161.62
-148.53
-124.19
-91.28
-53.79
-15.91
18.91
48.51
72.00
89.40
101.23
108.21
111.24
111.34
109.59
107.07
104.55
102.44
100.67
98.88
96.65
93.74
90.26
86.56
83.05
79.85
76.73
73.07
68.20
61.71
53.71
44.76
35.60
26.75
18.23
9.59
0.20
-10.35
-22.01
-34.24
-46.28
-57.48
-67.58
-76.82
-85.84
-95.62
-107.23
-121.49
-138.45
-156.72
-173.36
-184.34
-185.65
-174.73
-151.53
-118.62
-80.25
-41.08
-4.77
26.55
52.14
72.09
86.69
96.30
101.39
102.81
101.78
99.71
97.79
96.65
96.26
96.08
95.43
93.86
91.33
88.26
85.21
82.64
80.58
78.63
76.15
72.51
67.42
60.96
53.56
45.77
38.09
30.82
23.97
17.36
10.60
3.27
-4.96
-14.19
-24.22
-34.58
-44.68
-54.01
-62.35
-70.01
-77.82
-87.05
-98.94
-114.16
-132.17
-150.87
-166.85
-176.13
-175.45
-163.19
-140.05
-108.70
-72.95
-36.72
-3.15
25.72
48.89
66.09
77.50
83.61
85.22
83.44
79.60
75.01
70.73
67.39
65.14
63.76
62.84
61.92
60.69
58.93
56.56
53.59
50.10
46.24
42.13
37.79
33.00
27.40
20.62
12.49
3.25
-6.50
-16.03
-24.77
-32.57
-39.76
-46.96
-54.97
-64.44
-75.80
-89.07
-103.57
-117.77
-129.29
-135.26
-133.15
-121.62
-101.04
-73.50
-42.27
-10.77
18.05
42.27
60.96
73.87
81.21
83.52
81.64
76.75
70.21
63.38
57.29
52.41
48.69
45.70
42.96
40.24
37.58
35.14
32.90
30.54
27.37
22.69
16.07
7.60
-2.12
-12.23
-21.90
-30.67
-38.54
-45.94
-53.67
-62.67
-73.75
-87.19
-102.31
-117.13
-128.69
-133.71
-129.66
-115.69
-92.92
-64.10
-32.73
-2.07
25.47
48.38
65.87
77.58
83.48
84.08
80.51
74.46
67.75
61.82
57.33
54.08
51.33
48.29
44.54
40.23
35.92
32.16
29.11
26.33
23.00
18.26
11.60
3.10
-6.67
-16.93
-26.96
-36.34
-45.08
-53.52
-62.30
-72.30
-84.38
-98.94
-115.43
-131.91
-145.17
-151.49
-147.82
-132.87
-107.74
-75.52
-40.37
-6.26
23.92
48.65
67.43
80.36
87.77
90.17
88.35
83.50
77.14
70.78
65.56
61.91
59.48
57.40
54.72
50.96
46.29
41.48
37.38
34.38
32.09
29.40
25.00
18.01
8.43
-2.81
-14.37
-25.08
-34.48
-42.89
-51.20
-60.44
-71.56
-85.11
-101.16
-118.90
-136.41
-150.71
-158.23
-155.96
-142.52
-118.81
-87.79
-53.49
-19.71
10.84
36.83
57.95
74.21
85.69
92.44
94.79
93.50
89.78
84.99
80.31
76.50
73.74
71.75
69.94
67.74
64.76
61.01
56.81
52.65
48.90
45.47
41.84
37.18
30.81
22.49
12.62
2.07
-8.18
-17.50
-25.91
-33.92
-42.35
-51.93
-63.16
-76.26
-91.12
-107.16
-122.94
-136.08
-143.52
-142.28
-130.51
-108.28
-77.69
-42.30
-6.08
27.62
56.56
79.72
96.88
108.35
114.80
117.30
117.31
116.53
116.44
117.75
119.97
121.49
120.22
114.67
104.93
92.87
81.56
73.99
71.79
74.65
80.58
86.81
90.93
91.49
88.13
81.22
71.42
59.35
45.48
30.20
13.84
-3.30
-20.88
-38.63
-56.43
-74.48
-93.07
-112.23
-131.13
-147.72
-159.08
-162.23
-155.40
-138.84
-114.97
-87.55
-60.50
-36.89
-18.34
-5.25
2.74
6.24
5.92
2.49
-3.17
-10.04
-17.01
-23.12
-27.74
-30.69
-32.19
-32.80
-33.17
-33.86
-35.16
-37.11
-39.50
-42.14
-44.90
-47.74
-50.77
-54.18
-58.21
-63.19
-69.50
-77.48
-87.37
-99.25
-113.00
-128.28
-144.24
-159.33
-171.17
-176.80
-173.38
-159.13
-134.12
-100.43
-61.82
-22.61
13.35
43.51
66.81
83.42
94.19
100.11
102.13
101.02
97.54
92.52
86.83
81.37
76.84
73.63
71.69
70.53
69.37
67.44
64.09
59.05
52.42
44.56
35.98
27.14
18.32
9.53
0.57
-8.98
-19.72
-32.25
-47.00
-63.69
-81.04
-96.51
-106.81
-108.65
-99.90
-80.39
-52.22
-19.16
14.44
44.76
69.34
87.27
98.82
104.86
106.41
104.36
99.51
92.70
84.83
76.85
69.58
63.50
58.73
55.01
51.92
48.94
45.62
41.59
36.60
30.54
23.41
15.36
6.65
-2.45
-11.69
-20.97
-30.37
-40.31
-51.48
-64.62
-79.94
-96.51
-111.91
-122.54
-124.61
-115.56
-95.13
-65.60
-31.15
3.59
34.90
60.71
80.46
94.48
103.21
106.89
105.80
100.63
92.79
84.23
76.89
72.03
69.88
69.58
69.69
68.83
66.25
61.99
56.74
51.42
46.66
42.53
38.47
33.59
27.10
18.69
8.73
-1.95
-12.35
-21.79
-30.15
-37.83
-45.53
-54.07
-64.23
-76.64
-91.51
-108.24
-124.96
-138.49
-144.94
-140.87
-124.69
-97.48
-62.85
-25.80
8.89
37.97
60.14
75.71
85.69
91.01
92.33
90.16
85.30
78.95
72.63
67.65
64.75
63.84
64.09
64.39
63.74
61.68
58.37
54.42
50.47
46.91
43.68
40.23
35.86
30.04
22.61
13.90
4.49
-4.98
-14.12
-22.79
-31.10
-39.28
-47.57
-56.30
-65.90
-76.99
-90.00
-104.72
-119.66
-132.01
-138.17
-134.90
-120.63
-96.18
-64.66
-30.44
2.30
30.59
53.06
69.60
80.54
86.20
86.91
83.27
76.55
68.57
61.28
56.06
53.25
52.17
51.51
50.08
47.41
43.82
40.22
37.43
35.63
34.14
31.75
27.32
20.37
11.35
1.39
-8.16
-16.45
-23.37
-29.59
-36.15
-44.13
-54.27
-66.69
-80.68
-94.57
-105.80
-111.44
-108.98
-97.31
-77.18
-51.11
-22.50
5.33
30.09
50.66
66.77
78.47
85.68
88.33
86.58
81.24
73.72
65.74
58.89
54.08
51.40
50.19
49.40
48.01
45.41
41.55
36.90
32.11
27.71
23.74
19.72
14.89
8.45
0.09
-9.92
-20.73
-31.26
-40.63
-48.44
-55.02
-61.13
-67.86
-76.24
-87.06
-100.61
-116.31
-132.46
-146.16
-153.89
-152.40
-139.85
-116.59
-85.21
-49.79
-14.56
17.12
43.39
63.74
78.46
88.13
93.32
94.70
93.13
89.70
85.60
81.73
78.58
76.08
73.89
71.54
68.78
65.61
62.27
58.98
55.77
52.38
48.34
43.26
36.99
29.95
22.86
16.64
11.89
8.70
6.46
4.05
0.28
-5.69
-14.02
-24.08
-34.79
-44.98
-53.84
-61.21
-67.64
-74.09
-81.78
-91.63
-103.82
-117.35
-129.88
-138.08
-138.47
-128.56
-107.84
-78.06
-42.68
-5.81
28.94
59.28
84.17
103.46
117.30
125.88
129.43
128.50
124.09
117.62
110.58
104.21
99.16
95.50
92.81
90.49
88.00
85.06
81.53
77.42
72.65
67.14
60.83
53.79
46.24
38.44
30.72
23.26
16.23
9.75
3.86
-1.49
-6.55
-11.69
-17.30
-23.57
-30.49
-37.73
-44.92
-51.79
-58.29
-64.55
-70.80
-77.23
-84.09
-91.69
-100.36
-110.27
-121.10
-131.67
-140.03
-143.78
-140.82
-129.97
-111.51
-87.04
-59.10
-30.46
-3.53
19.98
39.17
53.67
63.55
69.17
71.17
70.48
68.20
65.35
62.69
60.59
58.98
57.61
56.23
54.77
53.29
51.91
50.60
49.15
47.21
44.45
40.64
35.78
30.02
23.73
17.35
11.25
5.65
0.43
-4.81
-10.63
-17.42
-25.21
-33.56
-41.74
-49.09
-55.32
-60.63
-65.72
-71.50
-78.81
-88.10
-99.11
-110.71
-120.94
-127.34
-127.57
-120.14
-104.89
-83.12
-57.18
-29.84
-3.61
19.70
39.02
53.91
64.27
70.33
72.56
71.77
68.97
65.20
61.33
57.87
54.99
52.57
50.44
48.41
46.42
44.38
42.17
39.58
36.41
32.56
28.02
23.01
17.72
12.30
6.80
1.14
-4.82
-11.24
-18.18
-25.65
-33.50
-41.53
-49.50
-57.14
-64.36
-71.32
-78.53
-86.75
-96.59
-107.92
-119.61
-129.42
-134.51
-132.37
-121.63
-102.63
-77.35
-48.77
-20.01
6.44
29.08
47.41
61.48
71.56
77.91
80.82
80.76
78.51
75.10
71.55
68.58
66.33
64.48
62.46
59.80
56.39
52.40
48.21
44.07
39.99
35.76
31.03
25.53
19.15
11.99
4.27
-3.66
-11.57
-19.32
-26.86
-34.22
-41.45
-48.65
-56.02
-63.97
-73.11
-83.97
-96.59
-110.05
-122.39
-130.91
-133.13
-127.49
-114.06
-94.41
-71.08
-46.67
-23.31
-2.35
15.42
29.46
39.38
44.98
46.52
44.84
41.21
36.96
33.14
30.20
28.05
26.31
24.48
22.31
19.77
17.05
14.37
11.81
9.18
6.14
2.21
-2.91
-9.31
-16.78
-24.91
-33.26
-41.43
-49.12
-56.25
-62.90
-69.44
-76.56
-85.11
-95.77
-108.55
-122.30
-134.70
-142.73
-143.52
-135.34
-118.14
-93.60
-64.49
-33.81
-4.03
23.14
46.70
66.02
80.58
90.01
94.37
94.39
91.45
87.32
83.59
81.22
80.31
80.25
80.14
79.18
77.04
73.79
69.76
65.23
60.23
54.47
47.50
38.90
28.51
16.52
3.45
-10.03
-23.25
-35.70
-47.18
-57.83
-68.16
-79.02
-91.36
-105.91
-122.64
-140.37
-156.65
-168.14
-171.50
-164.38
-146.25
-118.59
-84.48
-47.66
-11.59
21.25
49.45
72.48
90.30
103.04
111.03
114.85
115.36
113.68
110.97
108.14
105.67
103.60
101.69
99.60
97.13
94.18
90.75
86.80
82.19
76.73
70.30
62.96
54.91
46.43
37.71
28.74
19.33
9.25
-1.57
-12.89
-24.24
-35.13
-45.28
-54.81
-64.31
-74.66
-86.86
-101.56
-118.71
-137.20
-154.79
-168.43
-174.88
-171.59
-157.35
-132.75
-100.03
-62.54
-24.00
12.24
43.74
69.21
88.41
101.85
110.43
115.12
116.82
116.36
114.55
112.22
109.99
108.21
106.82
105.43
103.54
100.75
96.96
92.34
87.16
81.67
75.98
70.05
63.66
56.65
48.86
40.23
30.84
20.83
10.42
-0.24
-10.94
-21.55
-31.98
-42.22
-52.47
-63.14
-74.83
-88.13
-103.22
-119.44
-135.11
-147.65
-154.19
-152.42
-141.25
-121.19
-94.05
-62.52
-29.35
3.00
32.58
58.01
78.36
93.20
102.58
107.05
107.58
105.38
101.68
97.53
93.69
90.46
87.79
85.33
82.66
79.39
75.35
70.53
65.02
58.89
52.15
44.77
36.70
27.84
18.17
7.73
-3.28
-14.52
-25.50
-35.78
-45.13
-53.63
-61.78
-70.35
-80.32
-92.46
-107.05
-123.39
-139.64
-152.96
-160.14
-158.43
-146.37
-124.29
-94.18
-59.13
-22.55
12.59
44.12
70.80
92.10
107.98
118.73
124.89
127.22
126.76
124.63
121.85
119.13
116.61
113.96
110.67
106.36
101.10
95.37
89.90
85.13
81.10
77.27
72.80
66.94
59.41
50.47
40.85
31.42
22.76
14.96
7.60
0.02
-8.39
-17.87
-28.24
-39.01
-49.63
-59.68
-69.02
-77.81
-86.48
-95.69
-106.31
-119.08
-134.28
-151.21
-167.94
-181.41
-188.18
-185.34
-171.44
-146.98
-114.21
-76.48
-37.36
0.10
33.68
62.05
84.61
101.26
112.38
118.72
121.35
121.49
120.30
118.66
117.03
115.45
113.71
111.59
109.02
106.20
103.40
100.85
98.49
96.02
92.95
88.85
83.53
77.18
70.26
63.33
56.84
50.95
45.47
39.99
34.07
27.44
20.14
12.46
4.77
-2.63
-9.75
-16.77
-24.04
-31.82
-40.18
-49.03
-58.15
-67.37
-76.51
-85.48
-94.19
-102.65
-111.15
-120.34
-131.07
-143.89
-158.42
-172.92
-184.41
-189.50
-185.41
-170.96
-146.90
-115.61
-80.30
-44.18
-9.91
20.64
46.29
66.51
81.20
90.75
95.93
97.77
97.41
95.89
94.09
92.50
91.30
90.34
89.29
87.82
85.75
83.15
80.21
77.18
74.10
70.86
67.17
62.81
57.68
51.92
45.78
39.48
33.14
26.69
20.08
13.36
6.68
0.22
-6.06
-12.38
-19.21
-26.91
-35.55
-44.75
-53.90
-62.42
-70.06
-77.14
-84.42
-92.90
-103.41
-116.20
-130.57
-144.79
-156.31
-162.35
-160.63
-150.08
-131.07
-105.28
-75.17
-43.42
-12.42
15.87
40.07
59.28
73.16
81.88
86.11
86.91
85.48
82.97
80.30
78.07
76.47
75.38
74.47
73.38
71.84
69.78
67.28
64.46
61.36
57.88
53.90
49.27
43.94
37.98
31.55
24.96
18.55
12.64
7.38
2.63
-2.09
-7.46
-14.12
-22.30
-31.67
-41.40
-50.53
-58.39
-64.89
-70.59
-76.47
-83.61
-92.86
-104.51
-118.00
-131.82
-143.57
-150.52
-150.24
-141.44
-124.34
-100.59
-72.75
-43.51
-15.25
10.35
32.11
49.32
61.63
69.15
72.50
72.68
70.91
68.37
65.89
63.98
62.73
61.96
61.40
60.79
59.95
58.90
57.68
56.29
54.60
52.28
48.97
44.38
38.51
31.63
24.28
17.06
10.39
4.46
-0.94
-6.21
-11.89
-18.34
-25.62
-33.51
-41.55
-49.31
-56.50
-63.20
-69.87
-77.27
-86.25
-97.44
-110.75
-125.09
-138.25
-147.28
-149.29
-142.31
-125.95
-101.48
-71.43
-38.76
-6.13
24.53
52.09
75.94
95.72
111.25
122.51
129.82
133.89
135.83
136.95
138.50
141.43
146.17
152.51
159.57
165.94
169.95
170.00
164.98
154.65
139.84
122.32
104.50
88.71
76.60
68.72
64.46
62.39
60.78
58.12
53.43
46.24
36.41
23.92
8.76
-8.95
-28.76
-49.81
-70.92
-90.96
-109.20
-125.53
-140.50
-155.11
-170.43
-187.11
-204.90
-222.31
-236.72
-244.81
-243.55
-231.28
-208.49
-177.86
-143.55
-109.93
-80.25
-55.97
-36.85
-21.75
-9.56
0.25
7.62
12.47
15.24
17.06
19.52
23.86
30.48
38.60
46.70
53.30
57.60
59.97
61.58
63.87
67.78
73.26
79.21
83.93
85.62
82.97
75.45
63.28
47.28
28.50
8.03
-13.18
-34.29
-54.60
-73.54
-90.64
-105.61
-118.34
-128.91
-137.58
-144.76
-150.99
-156.91
-163.34
-171.22
-181.45
-194.40
-209.30
-223.77
-234.05
-235.85
-225.74
-202.58
-168.00
-125.97
-81.39
-38.65
-0.52
31.86
58.48
79.57
95.26
105.60
110.99
112.51
111.84
110.72
110.45
111.41
113.12
114.62
114.97
113.71
110.95
107.23
103.12
99.03
94.93
90.45
85.07
78.35
70.16
60.74
50.66
40.55
30.90
21.84
13.19
4.55
-4.47
-14.05
-24.11
-34.38
-44.48
-54.19
-63.55
-72.87
-82.73
-93.84
-106.88
-122.28
-139.92
-158.85
-177.08
-191.86
-200.12
-199.41
-188.55
-167.94
-139.46
-105.84
-69.96
-34.34
-0.91
28.96
54.38
74.84
90.23
100.92
107.63
111.38
113.29
114.43
115.63
117.42
119.92
122.85
125.67
127.65
128.08
126.23
121.55
113.75
102.97
89.81
75.20
60.17
45.46
31.35
17.75
4.43
-8.64
-21.10
-32.34
-41.75
-49.12
-54.79
-59.67
-65.03
-72.16
-82.10
-95.29
-111.18
-127.95
-142.55
-151.14
-150.08
-137.07
-112.06
-77.44
-37.53
2.80
39.35
69.58
92.71
109.30
120.47
127.32
130.71
131.27
129.67
126.68
123.15
119.73
116.80
114.29
111.94
109.38
106.35
102.82
98.88
94.61
89.99
84.88
79.03
72.23
64.42
55.66
46.12
36.00
25.44
14.55
3.48
-7.58
-18.33
-28.49
-37.87
-46.59
-55.14
-64.43
-75.61
-89.63
-106.64
-125.40
-143.08
-155.74
-159.42
-151.36
-131.12
-100.80
-64.37
-26.46
9.01
39.51
64.16
83.14
97.10
106.75
112.67
115.49
116.01
115.13
113.71
112.26
110.83
109.08
106.55
102.99
98.62
94.00
89.84
86.53
84.00
81.61
78.51
73.89
67.41
59.29
50.27
41.32
33.22
26.32
20.35
14.69
8.64
1.77
-5.83
-13.74
-21.38
-28.29
-34.37
-39.93
-45.63
-52.38
-61.27
-73.21
-88.53
-106.33
-124.17
-138.42
-145.24
-141.95
-128.11
-105.77
-78.68
-50.92
-25.54
-3.91
13.99
28.85
41.21
51.15
58.51
63.31
66.10
67.84
69.53
71.75
74.54
77.36
79.57
80.73
80.83
80.23
79.42
78.73
78.19
77.51
76.26
73.97
70.33
65.24
58.90
51.77
44.43
37.46
31.22
25.70
20.53
15.10
8.75
1.15
-7.62
-17.03
-26.34
-34.87
-42.36
-49.00
-55.43
-62.61
-71.53
-83.06
-97.40
-113.81
-130.28
-143.62
-150.25
-147.16
-133.05
-108.93
-77.88
-44.15
-11.85
16.02
38.05
54.16
65.03
71.60
74.78
75.42
74.32
72.29
69.98
67.88
66.14
64.73
63.54
62.46
61.48
60.59
59.65
58.39
56.47
53.56
49.56
44.57
38.90
32.86
26.68
20.38
13.87
7.04
-0.18
-7.79
-15.69
-23.77
-31.88
-39.83
-47.52
-55.06
-62.86
-71.69
-82.42
-95.43
-110.00
-123.93
-133.82
-136.07
-128.11
-109.53
-82.35
-50.39
-17.96
11.40
35.67
54.42
68.13
77.55
83.25
85.62
85.14
82.57
78.98
75.40
72.53
70.51
68.96
67.33
65.19
62.47
59.41
56.32
53.34
50.24
46.56
41.88
36.08
29.44
22.51
15.82
9.55
3.46
-3.01
-10.36
-18.75
-27.89
-37.09
-45.68
-53.24
-59.89
-66.24
-73.29
-82.13
-93.48
-107.19
-121.88
-134.90
-142.85
-142.56
-132.12
-111.67
-83.42
-51.00
-18.35
11.35
36.22
55.73
70.18
80.26
86.60
89.68
89.99
88.07
84.62
80.38
75.96
71.63
67.38
62.98
58.31
53.46
48.79
44.73
41.41
38.64
35.73
31.84
26.30
18.98
10.35
1.40
-6.73
-13.23
-17.90
-21.28
-24.38
-28.27
-33.59
-40.26
-47.60
-54.55
-60.22
-64.28
-67.18
-70.08
-74.62
-82.45
-94.71
-111.47
-131.26
-151.01
-166.59
-173.84
-169.73
-153.38
-126.27
-91.73
-53.98
-16.94
16.54
44.88
67.62
84.90
97.12
104.69
108.13
108.16
105.71
101.84
97.44
93.01
88.51
83.58
77.88
71.45
64.84
58.86
54.20
51.02
48.87
46.84
43.99
39.65
33.70
26.57
19.01
11.75
5.21
-0.71
-6.56
-13.02
-20.56
-29.13
-38.12
-46.64
-53.93
-59.71
-64.28
-68.44
-73.17
-79.41
-87.87
-98.74
-111.52
-124.66
-135.62
-141.25
-138.67
-126.26
-104.31
-75.13
-42.35
-9.85
19.29
43.37
62.02
75.78
85.42
91.64
94.99
96.03
95.53
94.39
93.48
93.35
94.00
94.96
95.55
95.18
93.69
91.39
88.98
87.24
86.70
87.40
88.74
89.67
88.98
85.83
80.00
72.02
62.90
53.65
44.83
36.33
27.55
17.76
6.46
-6.29
-19.98
-33.89
-47.40
-60.21
-72.43
-84.43
-96.75
-109.98
-124.76
-141.68
-160.97
-182.16
-203.49
-221.89
-233.40
-234.32
-222.51
-198.43
-165.14
-127.40
-90.16
-57.10
-29.99
-8.85
7.28
19.45
28.48
34.88
39.20
42.17
44.63
47.24
50.26
53.50
56.47
58.68
59.88
60.11
59.58
58.47
56.85
54.57
51.45
47.34
42.31
36.56
30.40
24.07
17.62
10.94
3.82
-3.85
-11.99
-20.35
-28.61
-36.53
-44.03
-51.26
-58.62
-66.76
-76.27
-87.33
-99.19
-109.96
-116.85
-116.95
-108.31
-90.70
-65.87
-36.99
-7.62
19.25
41.77
59.23
71.71
79.61
83.48
83.93
81.79
78.04
73.77
69.90
67.05
65.41
64.78
64.81
65.07
65.20
64.92
64.01
62.34
59.83
56.49
52.44
47.85
42.85
37.53
31.86
25.71
18.95
11.48
3.31
-5.39
-14.31
-23.08
-31.32
-38.79
-45.51
-51.82
-58.44
-66.30
-76.08
-87.71
-99.89
-110.10
-115.20
-112.37
-100.26
-79.43
-52.28
-22.17
7.59
34.45
56.97
74.54
87.06
94.72
97.98
97.78
95.42
92.45
90.16
89.27
89.64
90.53
90.98
90.26
88.21
85.14
81.55
77.69
73.51
68.63
62.72
55.60
47.30
37.79
26.76
13.63
-2.26
-21.17
-42.70
-65.69
-88.47
-109.29
-126.68
-139.74
-148.16
-152.33
-153.19
-152.17
-150.98
-151.42
-154.89
-161.81
-171.09
-180.00
-184.70
-181.28
-167.16
-142.16
-108.63
-70.86
-33.55
-0.48
26.39
47.01
62.59
74.66
84.31
92.07
98.00
102.13
104.75
106.33
107.36
108.07
108.30
107.63
105.69
102.44
98.26
93.71
89.26
84.97
80.44
75.12
68.59
60.86
52.45
44.08
36.39
29.50
23.00
16.12
8.18
-1.09
-11.39
-22.02
-32.22
-41.52
-49.84
-57.53
-65.16
-73.52
-83.35
-95.07
-108.31
-121.54
-132.03
-136.40
-131.75
-116.69
-92.06
-60.81
-27.09
4.91
31.97
52.36
65.80
73.02
75.29
74.09
70.78
66.49
62.04
57.87
54.21
51.13
48.63
46.70
45.21
43.94
42.58
40.82
38.46
35.39
31.68
27.48
22.96
18.30
13.69
9.26
5.11
1.17
-2.78
-7.08
-12.11
-18.07
-24.91
-32.30
-39.78
-46.95
-53.81
-60.85
-69.04
-79.38
-92.32
-107.10
-121.42
-131.89
-134.85
-127.68
-109.69
-82.49
-49.42
-14.66
17.97
45.74
67.22
82.14
90.95
94.54
93.99
90.54
85.50
80.12
75.30
71.47
68.54
66.02
63.37
60.25
56.68
52.88
49.12
45.40
41.48
37.01
31.75
25.78
19.46
13.26
7.43
1.86
-3.90
-10.39
-17.89
-26.29
-35.00
-43.28
-50.53
-56.63
-62.06
-67.76
-74.89
-84.37
-96.54
-110.68
-124.88
-136.18
-141.19
-137.09
-122.59
-98.48
-67.49
-33.57
-0.70
27.99
50.79
67.33
78.19
84.39
87.10
87.43
86.36
84.73
83.09
81.68
80.37
78.81
76.55
73.32
69.18
64.59
60.24
56.77
54.40
52.78
51.05
48.20
43.48
36.85
28.99
21.07
14.20
8.91
4.94
1.33
-3.14
-9.38
-17.58
-27.16
-37.06
-46.22
-54.07
-60.76
-67.07
-74.21
-83.29
-94.86
-108.44
-122.31
-133.68
-139.21
-135.99
-122.52
-99.32
-68.93
-35.21
-2.07
27.55
52.29
72.33
88.73
102.71
115.11
126.17
135.73
143.43
149.01
152.31
153.37
152.29
149.22
144.36
137.92
130.12
121.23
111.52
101.14
90.09
78.05
64.41
48.47
29.74
8.37
-14.59
-37.33
-57.71
-74.01
-85.39
-92.16
-95.43
-96.66
-97.10
-97.51
-98.16
-99.02
-99.95
-100.87
-101.74
-102.53
-103.28
-104.05
-105.17
-107.21
-111.03
-117.44
-126.59
-137.43
-147.39
-152.92
-150.45
-137.76
-114.92
-84.42
-50.30
-16.76
13.00
37.43
56.43
70.66
80.85
87.50
91.02
91.93
91.06
89.43
87.89
86.86
86.21
85.38
83.80
81.26
78.06
74.84
72.21
70.30
68.62
66.30
62.50
56.91
49.88
42.29
35.13
29.04
24.07
19.72
15.18
9.73
3.04
-4.79
-13.24
-21.65
-29.44
-36.35
-42.51
-48.43
-54.83
-62.54
-72.22
-84.09
-97.51
-110.76
-121.10
-125.32
-120.78
-106.43
-83.40
-54.83
-24.80
2.97
26.14
44.03
57.19
66.50
72.66
76.03
76.95
76.18
74.88
74.28
75.10
77.20
79.56
80.90
80.32
77.71
73.81
69.66
66.10
63.29
60.75
57.62
53.16
47.07
39.55
31.12
22.16
12.69
2.25
-9.83
-23.91
-39.74
-56.28
-72.13
-85.92
-96.94
-105.23
-111.54
-116.94
-122.51
-129.27
-138.05
-149.26
-162.39
-175.56
-185.41
-187.87
-179.52
-158.97
-127.65
-89.47
-49.55
-12.54
18.66
43.11
61.41
74.63
83.67
88.97
90.82
89.80
87.01
83.81
81.35
80.17
79.93
79.69
78.47
75.75
71.78
67.36
63.46
60.62
58.72
56.94
54.28
50.02
44.05
36.98
29.85
23.67
18.95
15.53
12.58
9.11
4.31
-2.00
-9.37
-16.99
-24.06
-30.23
-35.63
-40.84
-46.58
-53.58
-62.50
-73.64
-86.68
-100.28
-111.92
-118.28
-116.17
-103.71
-81.26
-51.46
-18.43
13.57
41.37
63.51
80.03
91.79
99.71
104.45
106.40
105.99
103.81
100.69
97.48
94.78
92.74
91.12
89.49
87.53
85.26
82.95
80.95
79.37
77.95
76.15
73.45
69.60
64.78
59.46
54.18
49.23
44.55
39.79
34.63
28.89
22.65
16.17
9.67
3.30
-3.04
-9.56
-16.47
-23.92
-31.85
-40.14
-48.53
-56.77
-64.64
-72.01
-78.91
-85.56
-92.31
-99.49
-107.11
-114.68
-121.16
-125.16
-125.47
-121.49
-113.53
-102.63
-90.20
-77.60
-65.78
-55.41
-46.86
-40.39
-36.06
-33.63
-32.56
-31.99
-31.13
-29.48
-26.97
-23.95
-20.94
-18.40
-16.57
-15.39
-14.57
-13.70
-12.49
-10.95
-9.49
-8.81
-9.64
-12.36
-16.87
-22.50
-28.39
-33.71
-38.10
-41.66
-44.98
-49.01
-54.81
-63.25
-74.47
-87.46
-99.89
-108.43
-109.75
-101.66
-83.97
-58.62
-29.03
1.05
28.59
51.85
70.25
83.97
93.38
98.88
100.93
100.24
97.77
94.71
92.07
90.49
90.07
90.38
90.77
90.59
89.45
87.28
84.28
80.73
76.84
72.68
68.22
63.39
58.14
52.47
46.38
39.82
32.70
24.93
16.46
7.34
-2.30
-12.30
-22.55
-33.08
-44.07
-55.88
-68.96
-83.65
-99.85
-116.68
-132.31
-144.16
-149.57
-146.66
-135.08
-116.36
-93.45
-69.80
-48.31
-30.60
-16.91
-6.50
1.70
8.53
14.41
19.44
23.70
27.29
30.42
33.16
35.47
37.13
37.98
38.02
37.48
36.74
36.06
35.44
34.56
32.96
30.31
26.60
22.15
17.42
12.74
8.00
2.79
-3.47
-11.12
-20.00
-29.48
-38.64
-46.79
-53.65
-59.55
-65.23
-71.70
-79.85
-90.21
-102.52
-115.48
-126.69
-133.02
-131.52
-120.31
-99.43
-70.88
-38.12
-4.97
25.42
51.12
71.50
86.83
97.77
105.04
109.24
110.95
110.75
109.28
107.15
104.81
102.45
99.92
96.95
93.31
89.01
84.44
80.19
76.74
74.19
72.14
69.77
66.20
60.89
53.87
45.78
37.52
29.89
23.15
16.86
10.16
2.18
-7.45
-18.34
-29.54
-39.93
-48.76
-55.95
-62.11
-68.22
-75.33
-84.24
-95.17
-107.45
-119.31
-127.97
-130.30
-123.78
-107.55
-82.92
-53.15
-22.50
4.99
26.43
40.50
47.26
47.63
43.01
34.99
25.31
15.74
7.92
3.14
2.11
4.91
11.03
19.48
29.03
38.45
46.71
53.13
57.42
59.66
60.14
59.16
56.98
53.72
49.42
44.11
37.87
30.86
23.25
15.20
6.84
-1.68
-10.21
-18.49
-26.28
-33.46
-40.26
-47.37
-55.84
-66.63
-79.89
-94.39
-107.46
-115.47
-115.15
-104.72
-84.66
-57.59
-27.27
2.70
29.79
52.87
71.72
86.51
97.27
103.99
106.87
106.61
104.37
101.47
98.90
97.05
95.67
94.27
92.42
90.04
87.28
84.34
81.19
77.46
72.57
66.00
57.54
47.52
36.66
25.91
16.08
7.54
0.17
-6.60
-13.48
-20.93
-29.01
-37.29
-45.10
-51.83
-57.11
-60.96
-63.83
-66.59
-70.51
-77.02
-87.15
-100.87
-116.53
-130.92
-139.97
-140.10
-129.37
-108.28
-79.42
-46.56
-13.36
17.49
44.58
67.55
86.51
101.70
113.26
121.35
126.27
128.55
128.93
128.14
126.71
124.72
121.91
117.83
112.26
105.38
97.88
90.62
84.23
78.73
73.48
67.49
60.00
50.89
40.86
31.09
22.70
16.22
11.39
7.28
2.80
-2.83
-9.69
-17.23
-24.55
-30.77
-35.43
-38.59
-40.79
-42.86
-45.75
-50.30
-57.01
-65.54
-74.47
-81.24
-82.77
-76.56
-61.80
-39.95
-14.39
10.75
31.96
47.37
56.90
61.73
63.43
63.32
62.21
60.55
58.55
56.32
53.89
51.20
48.22
45.01
41.74
38.59
35.59
32.46
28.75
23.82
17.15
8.41
-2.43
-15.02
-28.66
-42.33
-54.85
-65.08
-72.30
-76.43
-78.13
-78.68
-79.50
-81.72
-85.72
-91.13
-97.00
-102.36
-106.68
-110.15
-113.66
-118.53
-126.07
-137.20
-151.99
-169.16
-185.88
-198.03
-201.13
-191.76
-168.94
-134.78
-93.93
-52.04
-13.83
18.02
43.15
62.56
77.36
88.03
94.37
96.18
94.00
89.29
84.04
79.89
77.58
76.67
76.00
74.39
71.24
66.80
61.89
57.42
53.82
50.94
48.14
44.69
40.16
34.51
27.97
20.83
13.29
5.34
-3.03
-11.74
-20.53
-29.14
-37.37
-45.32
-53.45
-62.46
-72.99
-85.14
-98.06
-109.71
-117.23
-117.72
-109.25
-91.64
-66.60
-37.26
-7.13
20.81
44.62
63.52
77.49
86.97
92.54
94.89
94.79
93.00
90.17
86.76
83.05
79.17
75.22
71.31
67.53
63.93
60.45
56.96
53.26
49.17
44.53
39.17
32.91
25.51
16.66
6.06
-6.49
-20.93
-36.96
-53.96
-71.10
-87.45
-102.15
-114.55
-124.24
-131.20
-135.79
-138.81
-141.24
-143.91
-146.92
-149.25
-148.77
-142.86
-129.37
-107.67
-79.11
-46.73
-14.29
14.99
39.21
57.96
71.89
81.90
88.70
92.68
94.24
94.02
93.01
92.28
92.57
94.07
96.32
98.60
100.28
101.13
101.33
101.18
100.73
99.50
96.62
91.03
82.15
70.20
56.24
41.89
28.70
17.60
8.56
0.76
-7.00
-15.65
-25.46
-35.98
-46.33
-55.68
-63.59
-70.24
-76.31
-82.80
-90.73
-100.89
-113.50
-127.88
-142.25
-153.79
-159.23
-155.73
-141.95
-118.66
-88.69
-56.12
-25.06
1.51
22.23
37.26
47.55
54.16
57.79
58.86
57.80
55.32
52.41
50.10
49.02
49.15
49.85
50.11
49.04
46.25
41.96
36.95
32.20
28.49
25.99
24.20
22.11
18.66
13.25
6.01
-2.23
-10.40
-17.63
-23.63
-28.70
-33.40
-38.34
-44.03
-50.88
-59.15
-68.76
-78.78
-87.28
-91.52
-88.69
-77.08
-56.80
-29.95
0.11
29.88
56.87
80.08
99.72
116.39
130.22
140.49
145.83
145.02
137.73
124.97
108.84
91.89
76.26
63.20
53.02
45.36
39.61
34.99
30.63
25.54
18.75
9.74
-1.29
-13.33
-24.97
-35.01
-42.93
-48.97
-53.86
-58.31
-62.62
-66.73
-70.40
-73.61
-76.64
-80.06
-84.59
-90.90
-99.56
-110.88
-124.56
-139.40
-153.07
-162.42
-164.26
-156.41
-138.55
-112.46
-81.42
-49.18
-18.89
7.58
29.61
47.43
61.55
72.48
80.61
86.30
89.95
91.96
92.67
92.32
91.10
89.24
87.08
85.01
83.31
82.07
81.09
80.03
78.49
76.26
73.32
69.82
65.95
61.85
57.48
52.68
47.25
41.12
34.43
27.63
21.32
16.04
11.97
8.62
4.77
-1.46
-12.16
-29.05
-52.69
-81.76
-112.83
-140.85
-160.47
-167.60
-160.79
-141.66
-114.24
-83.58
-54.18
-28.88
-8.70
6.74
18.40
27.23
33.93
39.09
43.31
47.22
51.26
55.46
59.44
62.49
64.01
63.73
61.97
59.40
56.78
54.54
52.69
50.87
48.70
46.04
43.11
40.29
37.82
35.54
32.81
28.71
22.37
13.31
1.75
-11.52
-25.29
-38.40
-50.03
-59.98
-68.70
-77.22
-86.88
-98.85
-113.48
-129.75
-145.06
-155.68
-157.83
-149.05
-129.17
-100.59
-67.44
-34.23
-4.44
20.21
39.63
54.63
66.05
74.30
79.37
81.33
80.67
78.49
76.15
74.75
74.61
75.09
74.90
72.53
67.03
58.35
47.40
35.71
24.78
15.58
8.19
1.95
-4.19
-11.05
-18.83
-27.07
-34.84
-41.36
-46.32
-50.09
-53.53
-57.57
-62.92
-69.98
-78.86
-89.43
-101.05
-112.32
-120.96
-124.07
-119.01
-104.37
-80.63
-50.26
-16.94
15.50
44.07
67.15
84.40
96.32
103.72
107.44
108.21
106.79
103.92
100.36
96.72
93.42
90.65
88.31
86.19
84.02
81.56
78.68
75.36
71.67
67.61
63.17
58.25
52.81
46.82
40.40
33.70
26.75
19.50
11.82
3.69
-4.64
-12.62
-19.65
-25.36
-29.94
-34.26
-39.68
-47.70
-59.32
-74.41
-91.24
-106.56
-116.26
-116.55
-105.35
-83.06
-52.58
-18.24
15.55
45.63
70.56
90.29
105.44
116.57
123.96
127.82
128.65
127.42
125.32
123.44
122.34
121.93
121.59
120.65
118.65
115.50
111.45
106.78
101.56
95.56
88.24
78.90
66.86
51.57
32.87
11.10
-12.77
-37.23
-60.54
-81.17
-98.20
-111.50
-121.61
-129.31
-135.35
-140.18
-144.07
-147.32
-150.46
-154.26
-159.56
-167.07
-177.25
-190.20
-205.61
-222.68
-239.81
-254.51
-263.52
-263.44
-251.74
-227.67
-192.79
-150.68
-105.98
-63.02
-24.84
7.32
33.60
54.89
72.06
85.67
95.94
103.17
107.93
111.05
113.36
115.41
117.15
118.11
117.66
115.47
111.73
107.21
102.87
99.42
97.01
95.09
92.70
88.94
83.40
76.34
68.57
61.04
54.37
48.52
42.87
36.51
28.74
19.46
9.23
-0.98
-10.20
-17.80
-23.68
-28.16
-31.86
-35.57
-40.26
-46.93
-56.21
-67.87
-80.27
-90.41
-94.65
-89.95
-75.02
-50.94
-20.75
11.54
42.16
68.47
89.15
103.92
113.06
117.10
116.61
112.34
105.20
96.30
86.72
77.40
68.93
61.47
54.87
48.80
43.07
37.63
32.63
28.19
24.27
20.58
16.71
12.40
7.64
2.80
-1.59
-5.20
-8.09
-10.84
-14.38
-19.64
-27.17
-36.86
-48.02
-59.75
-71.41
-82.89
-94.68
-107.48
-121.76
-137.47
-153.91
-169.85
-183.60
-193.16
-196.44
-191.61
-177.70
-155.05
-125.59
-92.47
-59.23
-28.88
-3.23
17.20
32.88
44.68
53.44
59.79
64.20
67.10
68.99
70.44
71.97
73.93
76.30
78.70
80.46
80.85
79.45
76.29
71.88
66.99
62.29
58.04
54.03
49.73
44.54
38.05
30.16
21.04
11.00
0.36
-10.66
-21.95
-33.47
-45.21
-57.23
-69.79
-83.28
-97.95
-113.27
-127.55
-137.89
-140.86
-133.82
-116.08
-89.46
-57.74
-25.37
3.94
28.24
47.21
61.57
72.12
79.31
83.32
84.38
83.18
80.79
78.37
76.67
75.83
75.43
74.89
73.85
72.41
71.04
70.19
69.96
69.86
69.00
66.47
61.80
55.21
47.54
39.95
33.36
28.15
23.92
19.84
14.96
8.68
1.00
-7.58
-16.24
-24.37
-31.71
-38.47
-45.24
-52.76
-61.77
-72.58
-84.80
-96.87
-106.19
-109.53
-104.13
-88.89
-65.03
-35.90
-5.85
21.23
43.05
59.12
70.23
77.50
81.73
83.25
82.21
78.82
73.42
66.28
57.45
46.81
34.39
20.66
6.64
-6.39
-17.30
-25.47
-30.99
-34.48
-36.79
-38.74
-40.90
-43.61
-47.03
-51.25
-56.31
-62.22
-68.90
-76.12
-83.49
-90.50
-96.58
-101.25
-104.33
-105.93
-106.56
-107.01
-108.33
-111.60
-117.58
-126.32
-136.62
-146.01
-151.05
-148.40
-135.89
-113.38
-82.95
-48.22
-13.22
18.70
45.45
66.22
81.09
90.56
95.43
96.64
95.38
92.93
90.41
88.56
87.59
87.25
87.09
86.64
85.60
83.83
81.30
78.04
74.07
69.42
64.14
58.27
51.74
44.45
36.24
27.04
17.07
6.81
-2.93
-11.33
-17.73
-21.98
-24.51
-26.34
-28.90
-33.71
-41.96
-53.97
-68.66
-83.55
-95.03
-99.36
-93.85
-77.70
-52.37
-21.03
12.37
44.22
71.86
93.82
109.45
118.63
121.61
119.13
112.49
103.45
93.95
85.44
78.62
73.24
68.42
63.07
56.49
48.65
40.17
32.02
25.11
19.90
16.28
13.62
11.11
8.03
4.09
-0.59
-5.55
-10.28
-14.51
-18.36
-22.28
-26.80
-32.19
-38.31
-44.59
-50.38
-55.21
-59.21
-63.10
-68.08
-75.44
-86.13
-100.29
-116.79
-133.14
-145.83
-151.18
-146.46
-130.91
-106.04
-75.24
-42.64
-11.88
14.73
36.36
53.27
66.12
75.50
81.86
85.60
87.25
87.52
87.11
86.51
85.87
85.02
83.71
81.78
79.35
76.72
74.25
72.13
70.24
68.21
65.59
62.03
57.48
52.13
46.33
40.38
34.40
28.29
21.77
14.55
6.51
-2.25
-11.29
-20.07
-27.97
-34.58
-39.99
-44.91
-50.72
-59.02
-70.98
-86.41
-103.26
-117.97
-126.38
-125.29
-113.63
-92.89
-66.46
-38.36
-11.86
11.17
30.22
45.50
57.28
65.61
70.49
72.21
71.62
69.95
68.49
68.10
69.01
70.75
72.60
73.94
74.51
74.37
73.71
72.54
70.59
67.36
62.30
55.02
45.30
33.07
18.33
1.16
-18.06
-38.60
-59.28
-78.68
-95.47
-108.79
-118.33
-124.44
-127.95
-130.04
-132.01
-134.81
-138.59
-142.30
-143.70
-139.94
-128.61
-108.77
-81.48
-49.50
-16.44
14.45
41.01
62.32
78.42
89.72
96.67
99.78
99.72
97.51
94.37
91.43
89.40
88.41
88.05
87.65
86.58
84.54
81.60
78.11
74.49
70.98
67.58
63.99
59.82
54.79
48.87
42.37
35.75
29.43
23.66
18.40
13.44
8.55
3.62
-1.35
-6.28
-11.17
-16.17
-21.50
-27.45
-34.27
-42.13
-51.13
-61.17
-71.78
-82.07
-90.58
-95.58
-95.41
-89.06
-76.42
-58.42
-36.78
-13.48
9.64
31.24
50.42
66.65
79.56
88.86
94.45
96.48
95.37
91.76
86.34
79.68
72.17
64.12
55.92
48.05
41.14
35.78
32.30
30.55
29.94
29.55
28.46
26.06
22.28
17.54
12.58
8.03
4.14
0.69
-3.00
-7.68
-13.83
-21.42
-29.87
-38.28
-45.73
-51.70
-56.22
-59.86
-63.59
-68.46
-75.42
-84.94
-96.69
-109.25
-120.05
-125.94
-124.00
-112.72
-92.64
-66.37
-37.74
-10.51
12.76
31.03
44.54
53.93
59.65
61.81
60.42
55.89
49.25
41.93
35.26
29.97
26.00
22.74
19.58
16.32
13.40
11.56
11.27
12.33
13.75
14.12
12.28
7.89
1.53
-5.54
-11.98
-16.95
-20.39
-22.93
-25.60
-29.54
-35.61
-44.26
-55.09
-66.67
-76.59
-81.88
-79.95
-69.54
-51.39
-27.99
-2.81
20.88
40.91
56.37
67.32
74.11
77.03
76.21
71.98
65.12
56.92
48.83
41.98
36.86
33.19
30.17
26.99
23.21
18.96
14.73
10.98
7.72
4.37
-0.00
-6.28
-14.72
-24.84
-35.50
-45.39
-53.60
-59.97
-65.16
-70.40
-77.06
-86.26
-98.38
-112.77
-127.48
-139.54
-145.54
-142.67
-129.65
-107.38
-78.66
-47.45
-17.52
8.46
29.43
45.57
57.71
66.60
72.53
75.55
75.74
73.62
70.15
66.40
63.15
60.47
57.79
54.21
49.18
42.79
35.85
29.45
24.37
20.67
17.57
13.86
8.40
0.66
-9.07
-19.81
-30.28
-39.41
-46.77
-52.70
-58.15
-64.36
-72.53
-83.40
-96.96
-112.15
-126.75
-137.60
-141.33
-135.39
-119.02
-93.76
-63.00
-30.99
-1.43
23.43
43.06
58.13
69.74
78.71
85.38
89.77
91.92
92.07
90.71
88.38
85.58
82.58
79.51
76.35
73.11
69.74
66.18
62.31
57.94
52.86
46.95
40.25
32.93
25.31
17.63
10.01
2.40
-5.43
-13.63
-22.24
-31.04
-39.61
-47.61
-54.90
-61.74
-68.77
-76.98
-87.43
-100.82
-116.83
-133.70
-148.18
-156.21
-154.24
-140.56
-116.13
-84.36
-49.95
-17.25
10.98
33.83
51.76
65.51
75.49
81.60
83.75
82.45
78.97
75.03
72.05
70.58
70.08
69.41
67.42
63.70
58.73
53.55
49.25
46.33
44.53
42.92
40.40
36.10
29.71
21.54
12.34
3.10
-5.36
-12.52
-18.38
-23.40
-28.42
-34.43
-42.30
-52.40
-64.19
-75.87
-84.51
-86.71
-79.65
-62.15
-35.29
-2.11
33.41
67.63
98.22
124.35
146.19
164.13
178.33
188.78
195.79
200.28
203.81
207.85
213.12
219.11
224.16
226.05
222.75
212.94
196.22
172.97
144.18
111.32
76.26
41.07
7.77
-22.19
-48.08
-69.89
-88.00
-102.77
-114.33
-122.60
-127.55
-129.61
-129.70
-129.23
-129.70
-132.22
-137.16
-143.96
-151.21
-157.13
-160.19
-159.58
-155.50
-148.83
-140.71
-132.02
-123.21
-114.46
-105.99
-98.35
-92.30
-88.45
-86.95
-87.25
-88.39
-89.46
-89.91
-89.59
-88.43
-86.12
-82.03
-75.48
-66.26
-54.94
-42.88
-31.78
-22.98
-16.99
-13.50
-11.71
-11.02
-11.33
-13.12
-17.00
-23.24
-31.49
-40.83
-50.22
-59.00
-67.28
-75.82
-85.88
-98.54
-114.28
-132.63
-151.91
-169.41
-181.62
-185.15
-177.49
-158.00
-128.22
-91.54
-52.30
-14.56
18.75
46.22
67.72
83.86
95.50
103.51
108.77
112.18
114.59
116.58
118.38
119.81
120.53
120.26
119.00
117.04
114.73
112.34
109.84
106.96
103.28
98.47
92.47
85.48
77.91
70.18
62.50
54.81
46.78
38.04
28.31
17.69
6.52
-4.67
-15.47
-25.76
-35.77
-46.01
-57.16
-69.83
-84.25
-99.85
-114.91
-126.65
-131.74
-127.40
-112.57
-88.47
-58.42
-26.71
2.77
27.65
47.20
61.84
72.27
78.88
81.67
80.72
76.71
70.99
65.32
61.13
59.02
58.54
58.59
58.04
56.33
53.71
50.97
48.92
47.80
47.10
45.68
42.37
36.47
28.08
18.07
7.68
-1.98
-10.28
-17.30
-23.64
-30.26
-38.20
-48.32
-61.04
-75.95
-91.54
-105.15
-113.51
-113.62
-103.83
-84.58
-58.41
-29.24
-0.99
23.45
42.92
57.70
68.72
76.71
81.79
83.62
81.99
77.45
71.37
65.61
61.69
60.15
60.32
60.72
59.90
57.17
52.83
47.93
43.53
40.06
37.07
33.42
27.95
20.04
9.98
-1.25
-12.40
-22.52
-31.29
-38.98
-46.27
-53.96
-62.75
-73.22
-85.72
-100.00
-114.90
-128.09
-136.47
-136.88
-127.32
-107.72
-80.17
-48.29
-16.07
13.24
37.79
57.07
71.50
81.78
88.51
92.19
93.27
92.38
90.26
87.67
85.18
83.04
81.16
79.23
76.93
74.11
70.84
67.30
63.64
59.86
55.72
50.91
45.23
38.66
31.37
23.62
15.59
7.26
-1.46
-10.64
-20.15
-29.63
-38.60
-46.72
-53.99
-60.87
-68.28
-77.39
-89.12
-103.62
-119.73
-134.87
-145.45
-147.86
-139.65
-120.48
-92.27
-58.64
-23.71
8.97
37.11
59.71
76.64
88.16
94.74
97.09
96.26
93.58
90.45
87.87
86.20
85.14
84.02
82.21
79.51
76.19
72.84
70.04
68.01
66.46
64.68
61.79
57.19
50.70
42.76
34.19
25.86
18.36
11.71
5.42
-1.28
-9.00
-17.92
-27.67
-37.55
-46.80
-55.00
-62.16
-68.79
-75.76
-84.09
-94.65
-107.69
-122.42
-136.67
-147.08
-149.97
-142.47
-123.74
-95.45
-61.26
-25.70
7.26
35.09
56.89
72.86
83.68
89.99
92.38
91.58
88.66
84.91
81.49
79.07
77.58
76.38
74.67
71.96
68.34
64.46
61.09
58.68
57.01
55.28
52.48
47.95
41.70
34.39
26.95
20.12
14.07
8.40
2.48
-4.24
-11.84
-20.05
-28.37
-36.32
-43.63
-50.30
-56.53
-62.77
-69.68
-78.07
-88.60
-101.15
-114.39
-125.63
-131.45
-128.73
-115.93
-93.83
-65.35
-34.62
-5.64
18.83
37.66
51.09
59.90
64.86
66.46
65.11
61.43
56.44
51.47
47.76
45.98
46.01
46.99
47.72
47.19
45.04
41.61
37.70
34.13
31.26
28.82
26.09
22.23
16.73
9.63
1.46
-7.00
-15.07
-22.36
-28.86
-34.79
-40.51
-46.44
-53.03
-60.85
-70.32
-81.42
-93.18
-103.56
-109.72
-108.84
-99.22
-80.99
-56.27
-28.40
-0.93
23.39
43.09
57.72
67.50
72.72
73.78
71.27
66.24
60.15
54.54
50.51
48.33
47.43
46.69
45.04
41.98
37.80
33.33
29.38
26.30
23.60
20.26
15.19
7.92
-1.17
-11.03
-20.39
-28.44
-35.10
-41.00
-47.20
-54.69
-64.22
-75.94
-89.30
-102.80
-114.04
-120.10
-118.29
-107.11
-86.98
-60.25
-30.54
-1.66
23.55
43.74
58.87
69.63
76.81
80.91
82.24
81.16
78.34
74.73
71.32
68.82
67.34
66.41
65.23
63.00
59.27
54.07
47.83
41.22
34.80
28.95
23.63
18.53
13.16
7.00
-0.22
-8.42
-17.20
-25.93
-34.07
-41.35
-47.97
-54.46
-61.54
-69.97
-80.32
-92.73
-106.63
-120.38
-131.33
-136.25
-132.32
-118.19
-94.73
-64.93
-32.93
-2.75
22.94
43.15
58.26
69.18
76.63
80.92
82.16
80.69
77.32
73.25
69.67
67.36
66.42
66.30
66.10
64.99
62.54
58.87
54.50
50.03
45.86
42.00
38.00
33.23
27.11
19.40
10.32
0.41
-9.60
-19.12
-27.80
-35.61
-42.78
-49.69
-56.90
-65.10
-75.06
-87.22
-101.27
-115.64
-127.50
-133.33
-130.07
-116.32
-92.95
-63.01
-30.68
0.02
26.31
47.04
62.40
73.17
80.14
83.85
84.63
82.95
79.62
75.63
71.94
69.15
67.28
65.88
64.28
61.90
58.55
54.41
49.87
45.32
40.99
36.78
32.38
27.37
21.34
14.05
5.55
-3.85
-13.58
-23.06
-31.83
-39.66
-46.68
-53.32
-60.25
-68.26
-78.04
-89.82
-102.97
-115.78
-125.55
-129.29
-124.55
-110.43
-87.93
-59.78
-29.50
-0.44
24.93
45.33
60.35
70.06
74.77
75.06
71.90
66.71
61.11
56.49
53.58
52.25
51.75
51.05
49.35
46.41
42.51
38.25
34.23
30.75
27.64
24.36
20.17
14.43
6.90
-2.21
-12.15
-21.99
-30.87
-38.39
-44.71
-50.64
-57.36
-66.05
-77.43
-91.23
-105.86
-118.57
-125.93
-124.96
-114.01
-93.57
-66.05
-35.15
-4.65
22.50
44.61
61.23
72.59
79.30
82.03
81.60
78.97
75.24
71.41
68.13
65.64
63.73
62.01
60.17
58.17
56.15
54.30
52.63
50.82
48.37
44.78
39.80
33.66
26.89
20.09
13.63
7.51
1.31
-5.50
-13.27
-22.01
-31.32
-40.60
-49.25
-56.98
-63.88
-70.44
-77.48
-86.02
-96.98
-110.68
-126.33
-141.66
-153.14
-156.79
-149.50
-130.34
-101.04
-65.63
-29.06
4.32
31.89
53.02
68.44
79.36
86.73
91.00
92.46
91.56
89.17
86.36
84.06
82.66
81.90
81.07
79.47
76.74
73.17
69.47
66.40
64.33
63.00
61.59
59.08
54.74
48.43
40.69
32.50
24.77
18.06
12.31
7.03
1.47
-5.01
-12.70
-21.50
-30.97
-40.48
-49.42
-57.39
-64.33
-70.55
-76.81
-84.14
-93.58
-105.74
-120.20
-135.07
-147.13
-152.56
-148.11
-132.36
-106.42
-73.60
-38.39
-5.07
23.39
45.75
62.09
73.26
80.14
83.53
84.06
82.43
79.43
75.86
72.42
69.47
67.10
65.18
63.45
61.71
59.77
57.45
54.56
50.98
46.65
41.62
36.14
30.39
24.52
18.48
12.08
5.15
-2.36
-10.26
-18.22
-25.84
-32.96
-39.60
-46.00
-52.56
-59.70
-67.92
-77.66
-89.10
-101.66
-113.78
-122.75
-125.41
-119.08
-102.74
-77.55
-46.64
-14.15
16.00
41.10
59.99
72.80
80.29
83.45
83.18
80.37
75.91
70.80
65.96
62.04
59.32
57.66
56.60
55.59
54.19
52.18
49.57
46.47
42.97
39.03
34.48
29.22
23.29
16.88
10.27
3.61
-3.18
-10.36
-18.17
-26.57
-35.20
-43.47
-50.89
-57.30
-63.09
-69.06
-76.26
-85.60
-97.54
-111.62
-126.10
-138.09
-143.99
-140.58
-126.23
-101.63
-69.75
-34.89
-1.35
27.79
51.06
68.39
80.43
87.84
91.18
90.96
87.92
83.12
77.72
72.67
68.47
65.07
62.14
59.37
56.71
54.35
52.48
51.07
49.73
47.82
44.74
40.23
34.53
28.19
21.87
15.92
10.25
4.39
-2.27
-10.08
-18.99
-28.47
-37.75
-46.16
-53.42
-59.70
-65.62
-72.07
-79.99
-90.19
-102.89
-117.39
-131.69
-142.64
-146.66
-140.85
-124.09
-97.72
-65.15
-30.78
1.32
28.46
49.60
64.92
75.19
81.24
83.79
83.63
81.73
79.15
76.77
75.02
73.76
72.45
70.53
67.72
64.24
60.65
57.48
54.93
52.69
50.07
46.38
41.29
35.05
28.31
21.76
15.79
10.22
4.48
-2.07
-9.77
-18.44
-27.54
-36.39
-44.58
-52.01
-58.93
-65.86
-73.43
-82.38
-93.27
-106.14
-119.90
-132.22
-139.80
-139.33
-128.70
-107.91
-79.27
-46.60
-14.08
14.97
38.68
56.57
68.99
76.48
79.58
78.80
74.93
69.12
62.87
57.58
54.18
52.78
52.68
52.75
51.85
49.39
45.45
40.65
35.86
31.66
28.15
24.80
20.83
15.44
8.30
-0.34
-9.70
-18.78
-26.80
-33.49
-39.19
-44.71
-51.06
-59.14
-69.51
-82.02
-95.57
-108.03
-116.48
-117.97
-110.43
-93.53
-68.94
-39.90
-10.17
17.01
39.61
56.87
68.88
76.03
78.74
77.48
73.00
66.48
59.39
53.16
48.74
46.40
45.68
45.63
45.23
43.72
40.85
36.85
32.35
27.97
24.07
20.45
16.47
11.24
4.13
-4.86
-15.04
-25.27
-34.46
-42.12
-48.48
-54.39
-60.93
-69.03
-79.27
-91.69
-105.59
-119.40
-130.60
-136.11
-133.06
-119.85
-96.91
-66.78
-33.47
-1.11
27.09
49.52
66.04
77.35
84.37
87.78
88.08
85.81
81.75
76.91
72.32
68.70
66.17
64.34
62.45
59.82
56.08
51.31
45.98
40.60
35.59
30.97
26.47
21.57
15.68
8.41
-0.28
-10.00
-20.06
-29.67
-38.30
-45.83
-52.54
-59.08
-66.14
-74.50
-84.80
-97.46
-112.20
-127.63
-141.12
-149.15
-148.35
-136.79
-114.83
-85.26
-52.35
-20.43
7.39
29.74
46.81
59.50
68.68
74.83
78.19
79.06
78.11
76.22
74.18
72.43
70.85
68.99
66.42
63.16
59.69
56.76
54.99
54.49
54.66
54.47
52.89
49.34
43.94
37.39
30.62
24.27
18.41
12.55
6.04
-1.53
-10.03
-18.88
-27.37
-35.11
-42.20
-49.19
-56.91
-66.18
-77.63
-91.45
-106.98
-122.49
-135.05
-141.13
-137.59
-122.87
-97.80
-65.53
-30.58
2.60
30.82
52.70
68.42
78.99
85.47
88.68
89.18
87.63
84.86
81.89
79.55
78.18
77.48
76.76
75.32
72.87
69.65
66.32
63.44
61.20
59.20
56.67
52.82
47.31
40.38
32.82
25.54
19.17
13.74
8.64
2.92
-4.19
-12.93
-22.82
-32.87
-42.03
-49.73
-56.08
-61.93
-68.51
-77.02
-88.28
-102.24
-117.73
-132.29
-142.59
-145.10
-137.30
-118.61
-90.84
-57.72
-23.68
7.36
33.09
52.84
67.16
77.00
83.19
86.30
86.76
85.21
82.43
79.22
76.19
73.63
71.55
69.76
68.06
66.22
64.07
61.36
57.97
53.86
49.12
43.98
38.57
32.94
26.93
20.35
13.10
5.26
-2.88
-10.97
-18.65
-25.77
-32.33
-38.52
-44.58
-50.95
-58.15
-66.88
-77.75
-90.84
-105.20
-118.58
-127.70
-129.17
-120.64
-101.83
-74.78
-43.19
-11.30
17.45
41.03
58.84
71.15
78.50
81.38
80.29
76.02
69.78
63.11
57.41
53.51
51.42
50.41
49.40
47.47
44.28
40.19
35.92
32.16
29.13
26.37
22.98
18.06
11.18
2.68
-6.51
-15.24
-22.64
-28.51
-33.33
-38.08
-43.87
-51.64
-61.93
-74.54
-88.32
-101.07
-109.81
-111.52
-104.15
-87.44
-63.17
-34.72
-5.96
19.84
40.74
56.10
66.16
71.45
72.55
70.10
65.05
58.71
52.50
47.55
44.27
42.28
40.73
38.78
36.03
32.65
29.14
25.94
22.98
19.71
15.30
9.11
1.08
-8.22
-17.83
-26.84
-34.80
-41.84
-48.66
-56.30
-65.79
-77.82
-92.29
-107.94
-122.24
-131.80
-133.23
-124.39
-105.25
-78.09
-46.83
-15.77
11.70
33.76
50.10
61.30
68.20
71.45
71.55
69.09
64.81
59.65
54.53
50.09
46.55
43.74
41.21
38.51
35.26
31.29
26.60
21.23
15.26
8.74
1.70
-5.81
-13.60
-21.43
-29.05
-36.45
-44.00
-52.45
-62.64
-74.87
-88.33
-100.81
-108.95
-109.39
-99.92
-80.54
-53.56
-22.99
6.90
32.73
52.80
66.90
75.79
80.43
81.62
79.98
76.12
70.83
65.05
59.65
55.15
51.65
48.82
46.19
43.32
39.98
36.06
31.54
26.29
20.14
12.97
4.86
-3.87
-12.75
-21.33
-29.44
-37.35
-45.73
-55.43
-67.07
-80.48
-94.26
-105.83
-111.93
-109.65
-97.50
-76.12
-48.16
-17.49
12.01
37.49
57.54
72.01
81.47
86.62
88.08
86.46
82.51
77.20
71.64
66.79
63.25
61.05
59.76
58.59
56.80
53.91
49.82
44.88
39.62
34.51
29.77
25.21
20.35
14.60
7.53
-0.89
-10.26
-19.81
-28.80
-36.70
-43.52
-49.71
-56.04
-63.38
-72.49
-83.78
-97.08
-111.32
-124.34
-133.08
-134.26
-125.43
-105.99
-77.65
-44.08
-9.83
21.05
46.03
64.34
76.57
83.86
87.32
87.79
85.93
82.50
78.36
74.42
71.35
69.39
68.35
67.68
66.84
65.37
63.07
59.92
56.06
51.68
46.98
42.09
37.05
31.82
26.29
20.33
13.80
6.62
-1.25
-9.71
-18.52
-27.29
-35.61
-43.24
-50.24
-56.99
-64.19
-72.74
-83.38
-96.40
-111.14
-125.71
-137.13
-141.95
-137.38
-122.32
-97.90
-67.28
-34.58
-3.69
22.74
43.54
58.66
68.57
73.82
74.97
72.82
68.57
63.65
59.38
56.51
54.98
54.10
52.93
50.77
47.47
43.47
39.50
36.19
33.72
31.66
29.18
25.31
19.40
11.34
1.67
-8.67
-18.65
-27.46
-34.82
-41.05
-46.97
-53.69
-62.24
-73.11
-85.70
-98.14
-107.51
-110.65
-105.18
-90.49
-68.03
-40.85
-12.62
13.45
35.27
51.95
63.38
69.80
71.61
69.39
64.12
57.10
49.79
43.35
38.41
34.89
32.32
30.08
27.80
25.43
23.12
20.98
18.89
16.40
12.91
7.89
1.20
-6.83
-15.52
-24.07
-31.83
-38.65
-44.85
-51.23
-58.87
-68.67
-80.91
-94.69
-107.79
-116.99
-118.91
-111.21
-93.48
-67.57
-37.05
-6.03
21.95
44.79
61.79
73.31
80.12
83.00
82.68
79.88
75.54
70.61
66.01
62.25
59.49
57.49
55.89
54.30
52.50
50.33
47.74
44.65
40.96
36.64
31.74
26.37
20.63
14.55
8.03
0.87
-7.07
-15.70
-24.72
-33.64
-41.98
-49.45
-56.07
-62.18
-68.39
-75.51
-84.42
-95.83
-109.69
-124.73
-138.29
-146.68
-146.33
-135.04
-112.94
-82.61
-48.19
-14.09
16.33
41.28
60.43
74.26
83.45
88.65
90.45
89.64
87.19
84.17
81.40
79.32
77.95
77.01
76.08
74.81
72.96
70.47
67.45
64.15
60.86
57.84
55.06
52.24
48.84
44.27
38.25
30.96
23.08
15.52
9.01
3.73
-0.73
-5.27
-10.79
-17.79
-26.19
-35.32
-44.31
-52.45
-59.44
-65.49
-71.15
-77.13
-84.20
-93.06
-104.09
-117.10
-130.82
-142.79
-149.64
-148.08
-136.09
-113.78
-83.67
-49.84
-16.66
12.46
35.81
53.16
65.21
72.79
76.55
76.92
74.49
70.16
65.19
60.93
58.36
57.85
58.89
60.44
61.29
60.54
58.01
54.18
49.93
46.06
42.91
40.14
36.96
32.43
25.96
17.47
7.46
-3.19
-13.57
-22.98
-31.21
-38.40
-45.06
-51.90
-59.73
-69.23
-80.70
-93.59
-106.23
-115.92
-119.50
-114.40
-99.67
-76.42
-47.61
-17.07
11.69
36.29
55.73
69.94
79.26
84.02
84.52
81.35
75.52
68.52
61.91
56.83
53.65
51.89
50.56
48.65
45.64
41.68
37.46
33.65
30.54
27.70
24.15
18.80
11.05
1.07
-10.13
-21.20
-30.99
-39.03
-45.62
-51.59
-58.00
-65.75
-75.54
-87.68
-101.87
-116.82
-130.08
-138.31
-138.19
-127.53
-106.31
-76.88
-43.24
-9.79
19.96
44.10
62.28
75.09
83.42
88.08
89.71
88.96
86.61
83.49
80.26
77.26
74.38
71.26
67.52
63.06
58.18
53.40
49.12
45.36
41.62
37.05
30.92
22.98
13.58
3.55
-6.29
-15.50
-24.18
-32.74
-41.53
-50.52
-59.24
-67.00
-73.30
-78.15
-82.03
-85.82
-90.49
-96.93
-105.80
-117.24
-130.49
-143.49
-153.08
-155.62
-148.15
-129.62
-101.44
-67.13
-31.20
2.26
30.61
53.00
69.88
82.27
91.10
96.92
100.00
100.66
99.49
97.38
95.31
94.02
93.68
93.90
93.92
93.01
90.84
87.55
83.62
79.57
75.71
71.97
68.03
63.53
58.24
52.14
45.41
38.35
31.20
24.12
17.17
10.33
3.63
-2.90
-9.19
-15.30
-21.38
-27.73
-34.60
-42.06
-49.93
-57.83
-65.42
-72.60
-79.69
-87.40
-96.60
-108.03
-121.75
-136.75
-150.80
-160.63
-162.80
-154.76
-135.78
-107.35
-72.87
-36.63
-2.59
26.44
49.23
65.85
77.02
83.72
86.77
86.99
85.24
82.57
80.10
78.71
78.72
79.80
81.07
81.53
80.60
78.29
75.22
72.16
69.53
67.14
64.24
59.95
53.70
45.62
36.47
27.37
19.28
12.64
7.19
2.15
-3.44
-10.28
-18.54
-27.78
-37.12
-45.67
-52.91
-58.91
-64.39
-70.55
-78.64
-89.55
-103.28
-118.58
-132.85
-142.57
-144.18
-135.27
-115.51
-86.89
-53.21
-18.83
12.53
38.72
59.08
74.01
84.20
90.26
92.69
92.09
89.41
85.85
82.50
80.06
78.69
78.05
77.58
76.84
75.54
73.67
71.41
68.94
66.38
63.62
60.35
56.14
50.56
43.39
34.78
25.24
15.52
6.46
-1.34
-7.62
-12.63
-17.03
-21.67
-27.29
-34.22
-42.29
-50.89
-59.25
-66.79
-73.36
-79.28
-85.26
-92.20
-100.99
-112.25
-125.85
-140.57
-153.88
-162.21
-161.93
-150.50
-127.64
-95.61
-58.63
-21.59
11.43
38.14
58.12
72.22
81.76
87.75
90.83
91.47
90.31
88.27
86.31
85.13
84.75
84.60
83.82
81.76
78.35
74.09
69.77
65.98
62.89
60.17
57.24
53.62
49.07
43.68
37.69
31.39
24.99
18.68
12.60
6.90
1.65
-3.24
-8.05
-13.21
-19.09
-25.88
-33.44
-41.39
-49.29
-56.76
-63.73
-70.42
-77.41
-85.50
-95.53
-108.01
-122.54
-137.46
-149.76
-155.83
-152.50
-138.23
-113.80
-82.12
-47.24
-13.17
17.13
42.04
61.06
74.38
82.51
86.17
86.33
84.21
81.12
78.20
76.14
75.10
74.77
74.64
74.18
73.13
71.46
69.41
67.22
65.00
62.59
59.57
55.46
49.91
42.97
35.07
26.96
19.31
12.51
6.42
0.49
-5.97
-13.38
-21.69
-30.37
-38.71
-46.10
-52.41
-57.99
-63.64
-70.38
-79.09
-90.22
-103.34
-116.84
-127.96
-133.45
-130.46
-117.61
-95.57
-66.95
-35.50
-4.92
21.91
43.45
59.21
69.44
74.73
75.83
73.69
69.41
64.16
59.02
54.79
51.92
50.46
50.16
50.52
50.94
50.82
49.72
47.42
43.95
39.54
34.51
29.08
23.27
16.88
9.62
1.30
-7.97
-17.71
-27.20
-35.84
-43.33
-49.86
-55.94
-62.22
-69.34
-77.78
-87.93
-99.81
-112.75
-125.03
-133.87
-136.04
-128.92
-111.59
-85.46
-53.86
-21.04
9.19
34.36
53.54
67.03
75.69
80.42
82.04
81.27
78.88
75.63
72.26
69.30
66.98
65.27
63.96
62.70
61.23
59.36
57.04
54.27
51.04
47.22
42.65
37.28
31.21
24.74
18.21
11.79
5.36
-1.43
-8.92
-17.23
-26.10
-34.98
-43.39
-51.10
-58.29
-65.57
-73.81
-83.91
-96.39
-110.90
-125.84
-138.33
-144.79
-142.00
-128.31
-104.39
-73.19
-38.96
-5.95
22.76
45.75
62.97
75.13
83.02
87.30
88.53
87.42
84.97
82.24
80.14
79.10
78.98
79.11
78.74
77.31
74.74
71.39
67.91
64.86
62.43
60.31
57.85
54.25
48.99
41.96
33.67
24.94
16.74
9.70
3.89
-1.21
-6.46
-12.77
-20.65
-29.97
-40.05
-49.98
-58.95
-66.69
-73.55
-80.35
-88.14
-97.94
-110.34
-125.24
-141.44
-156.54
-167.10
-169.49
-161.00
-140.91
-110.96
-74.92
-37.49
-2.86
26.26
48.93
65.55
77.22
85.00
89.65
91.70
91.66
90.25
88.33
86.72
85.92
85.92
86.21
86.13
85.24
83.51
81.36
79.32
77.66
76.12
74.10
70.92
66.27
60.40
53.97
47.74
42.12
37.06
32.03
26.39
19.82
12.51
5.09
-1.72
-7.52
-12.55
-17.53
-23.38
-30.70
-39.46
-49.03
-58.46
-66.96
-74.24
-80.64
-86.99
-94.36
-103.76
-115.69
-129.87
-144.78
-157.71
-165.13
-163.66
-151.15
-127.58
-95.28
-58.32
-21.34
11.71
38.51
58.44
72.18
80.99
86.07
88.34
88.49
87.19
85.23
83.40
82.29
82.06
82.41
82.65
82.08
80.35
77.54
74.15
70.87
68.20
66.25
64.65
62.72
59.74
55.19
49.01
41.59
33.64
25.86
18.78
12.51
6.82
1.25
-4.67
-11.27
-18.64
-26.61
-34.90
-43.18
-51.20
-58.84
-66.13
-73.31
-80.86
-89.53
-100.08
-112.84
-127.11
-140.74
-150.38
-152.30
-143.75
-124.08
-95.20
-61.04
-26.22
5.36
31.43
51.42
65.84
75.49
80.91
82.44
80.52
76.09
70.56
65.50
62.07
60.66
60.69
61.10
60.74
58.97
55.75
51.58
47.13
42.89
39.02
35.26
31.16
26.21
20.05
12.60
4.10
-4.92
-13.81
-22.01
-29.27
-35.78
-42.01
-48.69
-56.52
-66.09
-77.63
-90.79
-104.32
-115.96
-122.80
-122.01
-111.86
-92.52
-66.15
-36.23
-6.51
20.05
41.79
58.21
69.52
76.10
78.37
76.94
72.79
67.26
61.77
57.32
54.28
52.30
50.65
48.58
45.69
42.05
38.07
34.23
30.79
27.54
23.88
18.96
12.18
3.39
-6.87
-17.58
-27.59
-36.09
-42.92
-48.66
-54.45
-61.69
-71.57
-84.66
-100.49
-117.31
-132.13
-141.35
-141.68
-131.28
-110.48
-81.75
-49.00
-16.39
12.76
36.59
54.63
67.39
75.73
80.48
82.36
82.04
80.24
77.73
75.16
72.95
71.16
69.65
68.16
66.49
64.55
62.31
59.79
56.85
53.35
49.10
44.02
38.19
31.75
24.88
17.61
9.85
1.48
-7.52
-16.97
-26.47
-35.51
-43.72
-51.06
-57.86
-64.78
-72.64
-82.31
-94.38
-108.87
-124.71
-139.56
-150.02
-152.48
-144.27
-124.82
-96.02
-61.74
-26.57
5.59
32.47
53.53
69.37
80.96
89.06
94.08
96.38
96.49
95.20
93.34
91.52
89.91
88.25
86.06
83.00
79.13
74.89
70.89
67.53
64.66
61.66
57.64
51.94
44.50
35.89
27.15
19.23
12.57
6.84
1.17
-5.45
-13.63
-23.26
-33.61
-43.64
-52.50
-59.94
-66.39
-72.85
-80.54
-90.56
-103.44
-118.62
-134.21
-147.09
-153.54
-150.36
-135.98
-111.27
-79.30
-44.42
-10.90
18.26
41.68
59.38
72.09
80.44
84.85
85.59
83.29
79.00
74.19
70.24
67.99
67.39
67.65
67.58
66.22
63.18
58.78
53.79
49.02
44.92
41.38
37.78
33.24
26.97
18.69
8.71
-2.07
-12.57
-21.92
-29.80
-36.57
-42.98
-49.99
-58.45
-68.91
-81.33
-94.90
-107.76
-117.19
-120.18
-114.36
-98.95
-75.26
-46.32
-15.97
12.35
36.31
54.89
68.04
76.17
79.80
79.55
76.24
70.99
65.06
59.58
55.22
52.07
49.73
47.55
44.99
41.84
38.24
34.56
31.08
27.74
24.12
19.46
13.09
4.70
-5.36
-16.18
-26.59
-35.60
-42.93
-49.14
-55.58
-63.83
-75.05
-89.33
-105.21
-119.79
-129.39
-130.61
-121.41
-101.89
-74.24
-42.14
-9.66
19.78
44.03
62.36
75.07
82.97
87.00
88.00
86.76
84.06
80.63
77.09
73.78
70.83
68.16
65.64
63.24
60.96
58.77
56.47
53.65
49.90
44.90
38.72
31.76
24.60
17.63
10.91
4.09
-3.36
-11.79
-21.17
-31.05
-40.72
-49.58
-57.32
-64.10
-70.50
-77.37
-85.70
-96.37
-109.83
-125.52
-141.42
-154.14
-159.53
-154.12
-136.37
-107.57
-71.56
-33.44
1.98
31.59
54.35
70.91
82.57
90.56
95.61
98.11
98.46
97.28
95.40
93.58
92.26
91.34
90.37
88.77
86.23
82.90
79.23
75.81
72.93
70.48
67.96
64.76
60.45
54.96
48.53
41.54
34.30
27.01
19.75
12.61
5.78
-0.52
-6.21
-11.41
-16.58
-22.31
-29.10
-37.15
-46.15
-55.45
-64.25
-72.03
-78.73
-84.87
-91.32
-99.13
-109.19
-121.90
-136.74
-151.92
-164.42
-170.43
-166.56
-150.93
-124.18
-89.41
-51.27
-14.51
17.34
42.68
61.55
74.94
83.89
89.19
91.33
90.86
88.56
85.46
82.47
80.13
78.43
76.92
75.00
72.30
68.91
65.31
62.09
59.57
57.63
55.62
52.70
48.25
42.12
34.78
27.11
19.96
13.82
8.51
3.37
-2.49
-9.67
-18.20
-27.53
-36.73
-45.00
-52.02
-58.05
-63.85
-70.43
-78.68
-89.14
-101.73
-115.48
-128.44
-137.73
-140.24
-133.37
-116.16
-89.71
-57.11
-22.58
9.73
36.78
57.14
70.86
78.89
82.47
82.69
80.45
76.54
71.84
67.23
63.46
60.88
59.33
58.30
57.19
55.64
53.64
51.46
49.32
47.15
44.51
40.83
35.66
29.03
21.49
13.83
6.68
0.21
-5.92
-12.38
-19.69
-27.98
-36.84
-45.59
-53.57
-60.53
-66.69
-72.73
-79.60
-88.29
-99.49
-113.05
-127.63
-140.55
-148.29
-147.48
-136.10
-114.33
-84.57
-50.73
-16.96
13.41
38.43
57.49
70.86
79.20
83.29
84.00
82.30
79.28
75.90
72.87
70.56
68.88
67.49
65.97
64.03
61.68
59.13
56.62
54.20
51.62
48.39
44.04
38.34
31.50
23.99
16.42
9.15
2.21
-4.65
-11.81
-19.55
-27.87
-36.46
-44.87
-52.69
-59.79
-66.46
-73.42
-81.68
-92.14
-105.12
-119.82
-134.04
-144.47
-147.53
-140.52
-122.65
-95.47
-62.44
-27.87
4.33
31.55
52.74
68.07
78.36
84.50
87.29
87.48
85.85
83.24
80.43
77.91
75.87
74.10
72.20
69.87
67.01
63.79
60.50
57.32
54.15
50.64
46.40
41.21
35.18
28.66
22.06
15.55
9.04
2.19
-5.33
-13.63
-22.58
-31.86
-41.08
-49.89
-58.09
-65.65
-72.82
-80.23
-88.83
-99.41
-112.06
-125.47
-136.87
-142.64
-139.48
-125.71
-102.07
-71.52
-38.19
-6.10
21.92
44.51
61.45
73.02
79.53
81.24
78.64
72.79
65.30
58.05
52.59
49.68
49.04
49.59
50.00
49.27
47.09
43.92
40.59
37.82
35.73
33.73
30.71
25.68
18.17
8.60
-1.92
-12.03
-20.74
-27.76
-33.56
-39.11
-45.39
-53.19
-62.95
-74.71
-87.89
-101.00
-111.64
-116.76
-113.57
-100.59
-78.49
-49.97
-18.98
10.57
35.87
55.69
70.04
79.46
84.52
85.58
83.06
77.75
70.95
64.25
59.01
55.92
54.71
54.36
53.52
51.20
47.18
41.93
36.40
31.32
26.88
22.56
17.42
10.63
1.84
-8.57
-19.71
-30.51
-40.15
-48.29
-55.22
-61.60
-68.41
-76.68
-87.21
-100.27
-115.13
-129.86
-141.41
-146.26
-141.52
-125.94
-100.56
-68.57
-34.27
-1.79
26.02
47.97
64.29
75.84
83.44
87.58
88.56
86.84
83.25
79.01
75.21
72.59
71.12
70.19
68.90
66.51
62.81
58.05
52.83
47.73
43.03
38.65
34.17
29.10
22.96
15.54
6.87
-2.71
-12.69
-22.44
-31.52
-39.71
-47.20
-54.53
-62.36
-71.45
-82.43
-95.60
-110.52
-125.71
-138.62
-145.95
-144.61
-132.75
-110.60
-80.54
-46.43
-12.47
17.95
42.89
61.84
75.26
84.02
88.99
90.88
90.36
88.09
84.78
81.08
77.55
74.47
71.85
69.45
66.88
63.81
60.07
55.82
51.37
47.09
43.16
39.33
35.03
29.57
22.42
13.56
3.57
-6.60
-16.02
-24.11
-30.88
-36.88
-42.88
-49.66
-57.86
-67.92
-79.98
-93.63
-107.50
-119.20
-125.61
-123.73
-111.83
-90.18
-61.22
-28.80
2.94
30.79
53.07
69.52
80.78
87.69
90.96
91.15
88.85
84.87
80.20
75.80
72.36
70.13
68.92
68.21
67.47
66.23
64.19
61.22
57.31
52.50
46.91
40.67
33.89
26.65
18.97
10.88
2.42
-6.29
-15.10
-23.84
-32.37
-40.53
-48.22
-55.45
-62.43
-69.75
-78.37
-89.31
-103.05
-118.86
-134.46
-146.27
-150.39
-143.92
-126.08
-98.65
-65.30
-30.53
1.81
29.26
51.00
67.29
78.89
86.52
90.76
92.17
91.38
89.25
86.62
84.20
82.36
81.04
79.85
78.29
76.06
73.10
69.70
66.35
63.44
61.07
58.92
56.36
52.59
47.08
39.75
31.06
21.90
13.30
6.02
0.28
-4.37
-8.95
-14.50
-21.76
-30.68
-40.57
-50.32
-58.98
-66.16
-72.18
-77.89
-84.36
-92.64
-103.45
-116.97
-132.47
-147.98
-160.32
-165.71
-160.85
-144.22
-116.80
-81.95
-44.35
-8.57
22.11
46.25
63.94
76.12
83.89
88.20
89.85
89.60
88.31
86.81
85.68
85.05
84.60
83.69
81.78
78.71
74.84
70.90
67.63
65.33
63.65
61.73
58.58
53.63
47.04
39.58
32.36
26.18
21.27
17.08
12.72
7.33
0.52
-7.47
-15.95
-24.11
-31.32
-37.38
-42.48
-47.20
-52.41
-59.10
-68.02
-79.18
-91.37
-101.99
-107.66
-105.27
-93.19
-72.04
-44.56
-14.68
13.72
37.86
56.42
69.34
77.20
80.73
80.61
77.58
72.56
66.77
61.48
57.76
56.07
56.11
56.79
56.57
53.88
47.66
37.74
24.77
9.97
-5.38
-20.26
-34.17
-47.06
-59.07
-70.33
-80.63
-89.48
-96.19
-100.11
-100.99
-99.09
-95.28
-90.88
-87.51
-86.69
-89.59
-96.41
-106.10
-116.17
-123.09
-123.21
-113.95
-94.83
-67.67
-36.09
-4.31
24.09
46.93
63.49
74.02
79.18
79.64
76.18
69.79
61.80
53.60
46.27
40.26
35.36
31.00
26.72
22.46
18.60
15.60
13.67
12.46
11.24
9.08
5.34
-0.15
-7.00
-14.48
-21.89
-28.76
-35.17
-41.71
-49.40
-59.28
-71.82
-86.38
-100.89
-112.12
-116.54
-111.48
-96.15
-72.01
-42.31
-11.00
18.40
43.63
63.69
78.49
88.26
93.30
94.08
91.45
86.69
81.33
76.63
73.17
70.71
68.36
65.17
60.61
54.87
48.78
43.37
39.36
36.71
34.61
31.78
27.00
19.65
9.99
-0.98
-11.97
-21.89
-30.31
-37.47
-44.20
-51.65
-60.93
-72.74
-86.98
-102.34
-116.21
-125.14
-125.68
-115.68
-95.10
-66.26
-33.02
0.34
30.44
55.47
75.06
89.77
100.36
107.38
111.13
111.89
110.11
106.46
101.69
96.44
91.18
86.07
81.17
76.38
71.60
66.65
61.36
55.56
49.23
42.51
35.62
28.74
21.76
14.31
5.88
-3.89
-14.80
-26.19
-37.18
-47.02
-55.48
-62.92
-70.04
-77.60
-86.23
-96.42
-108.48
-122.31
-136.93
-150.14
-158.63
-158.82
-148.08
-126.02
-94.83
-58.66
-22.32
10.25
36.88
57.16
71.87
82.11
88.73
92.27
93.18
92.12
89.95
87.53
85.46
83.81
82.23
80.23
77.44
73.93
70.14
66.64
63.74
61.25
58.54
54.79
49.42
42.39
34.28
25.95
18.19
11.25
4.79
-1.95
-9.70
-18.72
-28.62
-38.53
-47.52
-55.09
-61.41
-67.31
-73.96
-82.60
-94.06
-108.41
-124.55
-140.05
-151.46
-155.05
-148.01
-129.50
-101.22
-66.89
-31.19
1.77
29.40
50.89
66.74
77.86
84.98
88.46
88.58
85.84
81.22
76.03
71.50
68.40
66.77
66.03
65.28
63.77
61.16
57.63
53.65
49.63
45.73
41.71
37.11
31.37
24.18
15.54
5.75
-4.52
-14.59
-23.79
-31.81
-38.69
-44.79
-50.75
-57.32
-65.34
-75.54
-88.27
-103.01
-117.94
-130.01
-135.52
-131.38
-116.26
-91.33
-59.92
-26.40
5.25
32.40
54.01
70.16
81.30
87.86
90.24
89.12
85.64
81.31
77.55
75.14
74.03
73.40
72.21
69.81
66.24
62.24
58.80
56.54
55.34
54.36
52.38
48.44
42.28
34.36
25.70
17.33
9.93
3.53
-2.29
-8.25
-15.05
-23.00
-32.03
-41.64
-51.12
-59.84
-67.53
-74.33
-80.82
-87.89
-96.49
-107.47
-121.03
-136.28
-150.89
-161.32
-163.64
-154.93
-134.51
-104.37
-68.64
-32.14
1.14
28.97
50.88
67.46
79.47
87.32
91.24
91.57
89.23
85.59
82.11
79.82
78.96
79.03
79.09
78.37
76.52
73.75
70.60
67.60
64.97
62.63
60.21
57.28
53.52
48.71
42.79
35.88
28.26
20.42
12.90
6.16
0.31
-4.97
-10.35
-16.57
-24.12
-32.96
-42.56
-52.05
-60.67
-68.02
-74.28
-80.09
-86.47
-94.48
-105.03
-118.38
-133.77
-149.02
-160.71
-164.94
-158.52
-140.21
-111.41
-75.77
-38.10
-2.80
27.14
50.58
67.79
79.68
87.17
90.94
91.57
89.78
86.53
82.96
80.00
78.21
77.57
77.61
77.61
76.94
75.26
72.64
69.47
66.20
63.14
60.31
57.49
54.23
50.14
45.02
38.89
32.04
24.87
17.77
11.01
4.67
-1.38
-7.41
-13.78
-20.77
-28.42
-36.59
-44.97
-53.22
-61.10
-68.57
-75.80
-83.11
-91.01
-100.17
-111.29
-124.66
-139.56
-153.83
-163.96
-166.00
-156.97
-136.12
-105.45
-69.11
-31.97
1.91
30.15
52.18
68.38
79.43
85.83
88.01
86.67
82.97
78.45
74.51
72.02
71.13
71.29
71.69
71.57
70.55
68.66
66.22
63.59
61.02
58.53
55.91
52.86
49.07
44.34
38.64
32.11
25.08
17.98
11.27
5.24
-0.03
-4.83
-9.70
-15.26
-21.99
-29.93
-38.66
-47.47
-55.59
-62.60
-68.62
-74.29
-80.62
-88.63
-99.08
-112.13
-127.03
-141.90
-153.84
-159.42
-155.62
-140.88
-115.85
-83.36
-47.59
-12.80
17.80
42.60
61.37
74.65
83.10
87.23
87.60
85.01
80.70
76.16
72.71
71.07
71.15
72.14
72.93
72.55
70.64
67.54
64.05
60.99
58.70
56.86
54.60
50.93
45.30
37.86
29.43
21.09
13.72
7.60
2.38
-2.78
-8.66
-15.75
-23.95
-32.74
-41.39
-49.29
-56.18
-62.27
-68.10
-74.36
-81.84
-91.22
-102.94
-116.87
-131.80
-145.21
-153.59
-153.36
-142.16
-119.92
-89.08
-53.87
-18.85
12.43
38.07
57.77
72.02
81.48
86.62
87.87
85.97
82.08
77.62
73.86
71.48
70.44
70.14
69.75
68.71
66.90
64.56
62.15
59.87
57.57
54.71
50.64
45.03
38.04
30.37
22.90
16.31
10.69
5.49
-0.16
-7.03
-15.36
-24.80
-34.52
-43.69
-51.80
-58.85
-65.30
-71.93
-79.65
-89.35
-101.51
-115.77
-130.47
-142.65
-148.58
-144.90
-129.91
-104.38
-71.49
-35.81
-1.83
27.23
49.94
66.39
77.36
83.65
85.85
84.45
80.25
74.49
68.70
64.18
61.64
60.97
61.41
61.93
61.70
60.35
57.95
54.85
51.42
47.86
44.13
39.99
35.14
29.30
22.38
14.50
5.99
-2.75
-11.38
-19.68
-27.59
-35.13
-42.42
-49.65
-57.22
-65.79
-76.16
-88.73
-102.95
-116.88
-127.41
-131.09
-125.32
-109.38
-84.82
-54.87
-23.44
6.05
31.29
51.18
65.45
74.28
78.07
77.57
73.95
68.67
63.27
58.87
55.89
54.11
52.82
51.35
49.35
46.91
44.37
42.00
39.73
37.06
33.26
27.68
20.12
10.89
0.78
-9.29
-18.51
-26.51
-33.48
-40.13
-47.58
-56.98
-69.10
-83.70
-99.17
-112.59
-120.36
-119.35
-108.03
-87.12
-59.38
-28.69
1.22
27.67
49.36
65.99
77.70
84.63
86.93
85.06
80.06
73.53
67.25
62.54
59.91
58.92
58.50
57.51
55.26
51.72
47.41
43.01
38.94
35.09
30.81
25.24
17.76
8.29
-2.58
-13.88
-24.57
-34.01
-42.11
-49.34
-56.48
-64.50
-74.35
-86.75
-101.79
-118.39
-134.03
-145.01
-147.42
-138.57
-118.12
-88.46
-53.90
-19.20
11.97
37.79
58.11
73.63
85.02
92.51
96.11
96.04
93.11
88.62
84.00
80.31
77.97
76.76
75.99
74.91
72.89
69.70
65.44
60.49
55.27
50.08
44.89
39.40
33.15
25.71
16.90
6.92
-3.71
-14.31
-24.28
-33.25
-41.27
-48.69
-56.23
-64.74
-75.09
-87.91
-103.10
-119.51
-134.70
-145.29
-147.79
-139.70
-120.53
-92.12
-58.18
-23.08
9.33
36.66
58.11
74.01
85.20
92.48
96.50
97.84
97.24
95.53
93.49
91.55
89.69
87.57
84.77
81.16
77.03
73.03
69.77
67.55
66.09
64.65
62.30
58.31
52.48
45.14
37.04
29.02
21.66
15.07
8.81
2.18
-5.56
-14.70
-25.02
-35.77
-46.02
-55.07
-62.76
-69.60
-76.60
-85.05
-96.03
-110.00
-126.33
-142.93
-156.52
-163.15
-159.52
-144.07
-117.77
-83.91
-47.10
-11.79
18.87
43.51
62.26
75.96
85.49
91.48
94.38
94.78
93.48
91.46
89.59
88.34
87.64
86.96
85.61
83.09
79.38
74.96
70.63
67.12
64.65
62.80
60.61
57.06
51.47
43.92
35.23
26.63
19.15
13.17
8.18
3.09
-3.23
-11.44
-21.34
-32.02
-42.34
-51.37
-58.86
-65.20
-71.31
-78.24
-86.94
-98.02
-111.57
-126.77
-141.68
-153.24
-157.89
-152.70
-136.36
-109.95
-76.68
-40.99
-7.23
21.50
43.84
59.92
70.71
77.29
80.46
80.73
78.65
74.94
70.68
66.94
64.49
63.48
63.35
63.11
61.83
59.04
54.91
50.18
45.69
41.98
38.98
36.00
32.07
26.33
18.55
9.12
-0.99
-10.68
-19.19
-26.29
-32.29
-37.83
-43.68
-50.56
-59.11
-69.71
-82.16
-95.32
-106.97
-114.11
-113.86
-104.41
-85.89
-60.42
-31.45
-2.72
22.83
43.57
59.12
69.75
75.96
78.14
76.70
72.31
66.14
59.63
54.19
50.71
49.22
48.98
48.79
47.56
44.70
40.40
35.39
30.48
26.19
22.41
18.47
13.47
6.71
-1.93
-12.00
-22.59
-32.76
-41.85
-49.63
-56.34
-62.55
-69.05
-76.72
-86.42
-98.60
-112.84
-127.41
-139.30
-144.85
-140.96
-126.30
-101.98
-71.25
-38.42
-7.42
19.15
40.35
56.40
67.92
75.43
79.21
79.57
77.18
73.14
68.70
64.92
62.28
60.63
59.32
57.58
54.87
51.05
46.42
41.59
37.10
33.19
29.66
25.88
21.04
14.48
6.01
-3.90
-14.38
-24.45
-33.37
-40.97
-47.59
-53.93
-60.80
-68.97
-79.08
-91.50
-105.93
-121.08
-134.51
-142.94
-143.19
-133.22
-113.01
-84.73
-52.06
-19.08
10.81
35.56
54.51
67.97
76.73
81.68
83.71
83.69
82.41
80.56
78.56
76.56
74.47
72.14
69.51
66.62
63.68
60.80
58.00
55.06
51.64
47.44
42.38
36.64
30.56
24.46
18.41
12.17
5.30
-2.58
-11.56
-21.40
-31.48
-41.16
-49.97
-57.76
-64.79
-71.63
-79.22
-88.59
-100.62
-115.30
-131.30
-145.67
-154.45
-153.92
-141.90
-118.79
-87.50
-52.49
-18.25
11.94
36.55
55.52
69.53
79.30
85.25
87.68
87.08
84.32
80.57
77.00
74.40
72.88
71.96
70.79
68.67
65.29
60.91
56.13
51.59
47.66
44.24
40.88
36.84
31.43
24.21
15.18
4.83
-5.99
-16.32
-25.41
-33.02
-39.44
-45.44
-51.97
-59.99
-70.18
-82.69
-96.82
-110.84
-122.05
-127.30
-123.93
-110.75
-88.50
-59.79
-28.25
2.53
29.87
52.24
69.13
80.55
86.74
88.13
85.51
80.10
73.49
67.20
62.28
59.02
56.98
55.29
53.12
50.03
46.12
41.86
37.78
34.17
30.80
27.01
21.94
14.94
5.87
-4.76
-15.93
-26.54
-35.81
-43.59
-50.38
-57.21
-65.30
-75.72
-88.92
-104.37
-120.25
-133.56
-140.72
-138.69
-125.94
-103.21
-73.27
-40.07
-7.50
21.57
45.70
64.58
78.52
87.94
93.25
94.91
93.67
90.51
86.46
82.40
78.78
75.68
72.86
70.03
66.92
63.36
59.29
54.76
49.92
45.03
40.30
35.79
31.22
26.01
19.51
11.28
1.42
-9.47
-20.45
-30.67
-39.67
-47.57
-54.94
-62.59
-71.43
-82.26
-95.57
-111.16
-127.75
-142.74
-152.63
-153.89
-144.20
-123.39
-93.67
-58.91
-23.45
9.14
36.75
58.73
75.39
87.42
95.46
100.11
101.96
101.71
100.12
97.86
95.35
92.72
89.84
86.49
82.59
78.32
74.06
70.23
66.97
64.05
60.82
56.58
50.91
43.92
36.28
28.84
22.19
16.32
10.63
4.20
-3.67
-13.13
-23.72
-34.56
-44.78
-53.90
-62.00
-69.70
-78.01
-88.01
-100.47
-115.37
-131.41
-146.00
-155.61
-156.76
-147.13
-126.49
-96.87
-62.03
-26.31
6.56
34.16
55.65
71.32
82.07
88.88
92.56
93.79
93.11
91.10
88.32
85.24
82.11
78.96
75.65
72.02
68.12
64.18
60.56
57.50
54.89
52.33
49.14
44.81
39.17
32.47
25.32
18.26
11.51
4.83
-2.29
-10.36
-19.51
-29.31
-38.92
-47.47
-54.52
-60.38
-66.13
-73.25
-83.05
-95.92
-110.81
-125.18
-135.44
-138.05
-130.67
-112.98
-86.86
-55.76
-23.62
6.18
31.46
51.33
65.76
75.21
80.24
81.49
79.74
75.95
71.22
66.55
62.67
59.91
58.16
56.96
55.74
54.05
51.63
48.52
44.91
41.07
37.13
33.06
28.61
23.40
17.08
9.48
0.75
-8.67
-18.15
-27.09
-35.09
-42.14
-48.55
-54.93
-62.06
-70.78
-81.73
-95.07
-110.03
-124.62
-135.85
-140.36
-135.48
-120.18
-95.59
-64.70
-31.47
0.30
27.86
49.81
65.96
76.83
83.25
86.07
86.11
84.14
80.92
77.11
73.23
69.62
66.41
63.52
60.83
58.19
55.50
52.69
49.71
46.39
42.56
38.00
32.63
26.53
19.94
13.16
6.39
-0.34
-7.20
-14.35
-21.95
-29.91
-37.98
-45.81
-53.17
-60.11
-67.01
-74.65
-83.94
-95.47
-109.01
-123.09
-134.99
-141.37
-139.22
-126.97
-105.13
-76.19
-43.94
-12.22
15.95
38.90
56.25
68.34
75.78
79.18
79.18
76.60
72.52
68.07
64.22
61.47
59.76
58.57
57.24
55.21
52.26
48.45
44.15
39.77
35.62
31.78
28.02
23.84
18.66
12.06
3.98
-5.19
-14.69
-23.72
-31.71
-38.57
-44.72
-50.89
-58.02
-66.90
-78.07
-91.47
-106.19
-120.24
-130.74
-134.59
-129.39
-114.31
-90.53
-60.96
-29.38
0.64
26.57
47.23
62.55
73.11
79.63
82.75
82.99
80.94
77.29
72.85
68.41
64.59
61.67
59.53
