1539190945.00
64.000000
-0.00
-0.00
-0.00
-0.00
-0.00
-0.00
-0.00
-0.00
-0.00
-0.00
0.00
0.01
0.01
-0.00
-0.03
-0.05
-0.05
0.00
0.13
0.36
0.66
1.01
1.37
1.72
2.06
2.40
2.79
3.24
3.80
4.42
5.06
5.66
6.20
6.68
7.15
7.68
8.31
9.14
10.09
11.04
11.88
12.56
13.14
13.76
14.65
15.96
17.91
20.32
22.90
25.38
27.58
29.57
31.68
34.32
37.81
42.54
48.15
54.10
59.83
64.97
69.58
74.14
79.34
85.71
93.76
103.00
112.62
121.73
129.77
136.75
143.30
150.75
157.77
166.64
177.95
191.79
206.97
220.57
228.25
225.36
208.53
176.87
132.76
80.05
23.07
-34.94
-92.44
-149.16
-205.23
-260.37
-313.74
-363.87
-409.83
-450.91
-486.50
-515.74
-537.23
-549.22
-549.96
-538.37
-514.21
-478.67
-433.88
-382.45
-327.02
-269.84
-212.63
-156.66
-102.95
-52.37
-5.90
35.58
71.43
101.35
125.50
144.38
158.69
169.15
176.37
180.75
182.57
182.07
179.51
175.23
169.65
163.18
156.15
148.81
141.30
133.69
126.02
118.33
110.69
103.16
95.80
88.68
81.83
75.25
68.95
62.95
57.25
51.86
46.78
42.03
37.59
33.45
29.61
26.07
22.81
19.83
17.11
14.67
12.48
10.54
8.83
7.35
6.07
4.97
4.05
3.27
2.62
2.09
1.65
1.30
1.01
0.79
0.61
0.47
0.37
0.28
0.22
0.18
0.15
0.13
0.12
0.12
0.12
0.14
0.16
0.18
0.21
0.25
0.29
0.33
0.37
0.41
0.46
0.51
0.56
0.61
0.66
0.71
0.77
0.84
0.91
0.99
1.08
1.17
1.28
1.41
1.54
1.69
1.87
2.06
2.27
2.50
2.76
3.05
3.37
3.71
4.09
4.50
4.95
5.44
5.96
6.52
7.12
7.76
8.44
9.17
9.95
10.76
11.62
12.52
13.47
14.48
15.56
16.68
17.88
19.11
20.36
21.58
22.69
23.60
24.19
24.34
23.94
22.89
21.14
18.66
15.52
11.77
7.60
3.18
-1.28
-5.55
-9.44
-12.77
-15.43
-17.36
-18.54
-18.99
-18.81
-18.11
-17.00
-15.58
-13.95
-12.18
-10.31
-8.35
-6.30
-4.18
-2.02
0.15
2.29
4.38
6.40
8.34
10.26
12.27
14.30
16.37
18.48
20.62
22.80
25.04
27.42
30.06
33.16
36.57
40.24
44.10
48.06
52.03
55.96
59.91
64.08
68.80
73.90
79.31
84.88
90.43
95.72
100.60
105.09
109.47
114.21
119.12
124.01
128.44
131.71
132.94
131.17
125.39
114.36
101.51
88.12
74.86
61.74
48.30
33.84
17.89
0.47
-17.74
-35.64
-52.81
-69.00
-84.48
-99.91
-116.18
-134.21
-154.80
-178.42
-204.68
-232.47
-259.01
-280.33
-292.48
-293.04
-282.12
-262.39
-237.97
-212.74
-189.49
-169.14
-151.42
-135.85
-122.43
-111.63
-103.75
-98.40
-94.21
-89.42
-82.28
-71.70
-57.57
-40.82
-22.96
-5.61
10.01
23.39
34.53
43.79
51.43
57.40
61.37
63.07
62.57
60.38
57.40
54.56
52.48
51.31
50.79
50.43
49.81
48.72
47.11
45.10
42.70
39.90
36.64
32.93
28.86
24.63
20.48
16.49
12.61
8.56
3.96
-1.47
-7.73
-14.35
-20.40
-24.68
-26.04
-23.76
-17.87
-9.14
1.14
11.52
20.78
28.12
33.25
36.17
37.12
36.43
34.54
31.98
29.22
26.69
24.60
22.97
21.64
20.47
19.36
18.35
17.56
17.08
16.90
16.80
16.44
15.42
13.44
10.44
6.62
2.40
-1.75
-5.43
-8.54
-11.20
-13.85
-16.95
-20.83
-25.48
-30.36
-34.50
-36.75
-36.10
-32.08
-24.93
-15.51
-5.01
5.37
14.74
22.48
28.28
31.99
33.62
33.36
31.62
28.92
25.82
22.80
20.16
18.03
16.42
15.32
14.62
14.26
14.11
14.12
14.22
14.35
14.34
13.99
13.01
11.19
8.48
5.01
1.08
-2.93
-6.65
-9.86
-12.50
-14.72
-16.85
-19.35
-22.70
-27.15
-32.50
-38.01
-42.46
-44.45
-42.93
-37.56
-28.87
-18.11
-6.82
3.63
12.36
19.03
23.72
26.66
28.14
28.37
27.56
25.99
23.98
21.89
20.02
18.62
17.74
17.34
17.20
17.10
16.83
16.31
15.58
14.74
13.84
12.82
11.52
9.77
7.45
4.58
1.29
-2.24
-5.83
-9.34
-12.70
-15.83
-18.64
-21.09
-23.23
-25.35
-27.81
-30.96
-34.87
-39.10
-42.70
-44.46
-43.32
-38.74
-30.99
-21.03
-10.16
0.29
9.34
16.45
21.47
24.49
25.81
25.74
24.65
22.95
21.06
19.35
18.07
17.31
16.99
16.91
16.85
16.66
16.30
15.87
15.46
15.08
14.65
13.99
12.91
11.24
9.00
6.30
3.36
0.42
-2.39
-5.01
-7.47
-9.80
-11.99
-13.98
-15.72
-17.33
-19.07
-21.31
-24.45
-28.63
-33.60
-38.61
-42.55
-44.20
-42.65
-37.60
-29.50
-19.42
-8.70
1.41
10.04
16.74
21.40
24.07
24.93
24.21
22.32
19.72
16.98
14.56
12.79
11.78
11.44
11.54
11.83
12.12
12.34
12.55
12.78
12.92
12.64
11.52
9.27
5.90
1.82
-2.33
-5.90
-8.54
-10.19
-11.13
-11.65
-12.00
-12.30
-12.63
-13.04
-13.63
-14.53
-15.87
-17.71
-20.07
-22.95
-26.29
-29.90
-33.35
-36.01
-37.04
-35.63
-31.31
-24.14
-14.80
-4.38
5.84
14.82
21.93
27.00
30.17
31.70
31.81
30.72
28.66
25.94
22.92
20.00
17.49
15.64
14.55
14.29
14.77
15.80
17.05
18.09
18.54
18.17
17.00
15.26
13.17
10.92
8.56
5.98
3.14
0.08
-3.07
-6.07
-8.80
-11.24
-13.48
-15.69
-18.00
-20.50
-23.32
-26.67
-30.76
-35.68
-41.13
-46.30
-49.98
-50.89
-48.20
-41.81
-32.54
-21.82
-11.15
-1.73
5.85
11.56
15.63
18.35
19.85
20.16
19.40
17.78
15.71
13.71
12.22
11.57
11.78
12.68
13.89
15.00
15.67
15.73
15.28
14.45
13.43
12.24
10.74
8.69
5.92
2.45
-1.50
-5.57
-9.45
-12.93
-15.99
-18.80
-21.61
-24.67
-28.22
-32.46
-37.44
-42.97
-48.49
-53.09
-55.59
-54.94
-50.55
-42.56
-31.90
-19.98
-8.25
2.17
10.67
17.10
21.50
23.93
24.46
23.25
20.71
17.41
13.99
10.94
8.52
6.79
5.66
5.10
5.05
5.52
6.43
7.67
8.98
9.93
10.14
9.18
6.79
3.08
-1.58
-6.59
-11.30
-15.34
-18.71
-21.74
-25.05
-29.24
-34.66
-41.25
-48.29
-54.49
-58.26
-58.22
-53.64
-44.80
-32.90
-19.64
-6.68
4.75
14.03
20.94
25.49
27.72
27.72
25.69
22.12
17.71
13.25
9.47
6.82
5.46
5.25
5.91
7.16
8.64
10.04
10.97
11.01
9.84
7.36
3.74
-0.57
-5.08
-9.43
-13.54
-17.62
-22.03
-27.15
-33.22
-40.21
-47.70
-54.79
-60.16
-62.32
-60.03
-52.74
-40.86
-25.74
-9.28
6.57
20.20
30.69
37.68
41.29
41.91
40.13
36.66
32.33
27.93
24.10
21.26
19.52
18.77
18.77
19.25
20.00
20.82
21.50
21.74
21.19
19.53
16.57
12.36
7.22
1.60
-4.08
-9.53
-14.78
-20.09
-25.91
-32.70
-40.70
-49.70
-58.87
-66.76
-71.57
-71.62
-65.94
-54.63
-38.93
-20.90
-2.82
13.39
26.53
36.19
42.50
45.91
46.88
45.88
43.35
39.85
36.05
32.66
30.26
29.14
29.23
30.14
31.36
32.47
33.28
33.79
34.02
33.85
32.91
30.71
26.86
21.30
14.37
6.84
-0.44
-6.79
-12.01
-16.41
-20.79
-26.11
-33.08
-41.83
-51.68
-61.20
-68.49
-71.68
-69.48
-61.53
-48.52
-32.00
-13.98
3.61
19.23
31.92
41.31
47.42
50.53
51.05
49.55
46.76
43.52
40.65
38.75
38.06
38.46
39.58
41.08
42.72
44.44
46.17
47.70
48.61
48.38
46.66
43.40
38.90
33.73
28.46
23.44
18.67
13.91
8.80
3.16
-2.91
-9.10
-14.94
-20.08
-24.40
-28.04
-31.36
-34.85
-39.08
-44.64
-51.94
-60.92
-70.68
-79.38
-84.60
-84.07
-76.49
-62.21
-43.07
-21.90
-1.49
16.06
29.78
39.61
46.00
49.52
50.69
50.02
48.10
45.69
43.61
42.54
42.87
44.51
47.00
49.66
51.90
53.44
54.35
54.98
55.64
56.33
56.66
55.96
53.59
49.29
43.40
36.73
30.27
24.79
20.53
17.12
13.82
9.87
4.93
-0.87
-6.94
-12.59
-17.33
-21.15
-24.45
-27.89
-32.16
-37.80
-45.02
-53.58
-62.59
-70.56
-75.53
-75.58
-69.51
-57.29
-40.31
-20.88
-1.64
15.24
28.45
37.66
43.19
45.71
45.94
44.52
42.03
39.03
36.04
33.57
32.00
31.50
32.02
33.31
34.99
36.72
38.25
39.41
40.08
40.10
39.28
37.48
34.67
31.03
26.81
22.21
17.30
12.04
6.39
0.39
-5.74
-11.71
-17.22
-22.09
-26.36
-30.21
-33.99
-38.18
-43.29
-49.69
-57.31
-65.33
-72.19
-75.80
-74.26
-66.54
-53.06
-35.62
-16.83
0.72
15.19
25.82
32.75
36.58
37.98
37.48
35.50
32.52
29.17
26.11
23.90
22.77
22.58
22.96
23.51
23.97
24.33
24.73
25.25
25.71
25.64
24.44
21.62
17.09
11.17
4.59
-1.87
-7.59
-12.37
-16.48
-20.54
-25.30
-31.39
-39.01
-47.80
-56.70
-64.11
-68.25
-67.65
-61.67
-50.78
-36.50
-20.91
-6.10
6.39
15.77
21.91
25.10
25.73
24.19
20.88
16.26
10.92
5.52
0.60
-3.44
-6.47
-8.57
-9.87
-10.59
-10.95
-11.31
-12.18
-14.06
-17.31
-21.84
-26.99
-31.70
-34.95
-36.08
-35.05
-32.23
-28.21
-23.50
-18.66
-14.37
-11.53
-10.95
-12.93
-16.79
-20.89
-23.03
-21.24
-14.56
-3.34
10.88
25.89
39.53
50.25
57.31
60.88
61.74
60.94
59.43
57.80
56.26
54.74
53.12
51.47
50.28
50.57
53.84
61.95
76.63
98.99
128.91
164.64
202.92
239.56
270.46
292.61
304.81
307.66
303.04
293.40
280.94
267.14
252.70
237.61
221.57
204.34
186.02
167.13
148.51
130.93
114.68
99.38
84.14
67.97
50.25
30.99
10.57
-10.65
-32.68
-55.87
-80.50
-106.45
-133.41
-161.21
-190.17
-220.70
-252.25
-282.54
-307.49
-322.56
-324.90
-314.87
-296.20
-274.34
-254.04
-237.45
-223.92
-211.32
-197.96
-183.69
-169.76
-157.65
-147.96
-140.09
-132.67
-124.65
-115.93
-107.50
-100.97
-97.58
-97.47
-99.56
-102.08
-103.34
-102.36
-99.07
-94.06
-88.22
-82.43
-77.57
-74.57
-74.27
-77.00
-81.96
-87.11
-89.58
-86.76
-77.39
-62.06
-42.90
-22.65
-3.60
12.88
26.37
36.88
44.50
49.25
51.11
50.38
47.80
44.48
41.58
39.99
40.09
41.71
44.34
47.32
50.19
52.69
54.77
56.49
57.84
58.69
58.78
57.91
55.92
52.87
48.97
44.49
39.70
34.85
30.10
25.59
21.35
17.33
13.36
9.17
4.52
-0.68
-6.28
-11.89
-17.05
-21.42
-24.94
-27.86
-30.67
-34.02
-38.52
-44.67
-52.64
-62.05
-71.80
-80.04
-84.52
-83.23
-75.16
-60.74
-41.81
-21.01
-0.97
16.39
30.16
40.25
46.97
50.77
52.08
51.41
49.43
46.97
44.82
43.54
43.35
44.18
45.78
47.85
50.16
52.47
54.56
56.21
57.23
57.45
56.79
55.24
52.83
49.61
45.63
40.98
35.82
30.36
24.91
19.79
15.31
11.61
8.66
6.21
3.85
1.14
-2.17
-6.13
-10.59
-15.26
-19.84
-24.12
-28.05
-31.76
-35.52
-39.82
-45.25
-52.31
-61.06
-70.78
-79.82
-85.90
-86.73
-80.84
-68.12
-50.02
-29.05
-8.05
10.66
25.65
36.47
43.41
47.02
47.95
46.84
44.35
41.24
38.27
36.09
35.06
35.25
36.37
38.02
39.82
41.57
43.21
44.79
46.32
47.66
48.51
48.43
47.03
44.11
39.75
34.32
28.44
22.73
17.69
13.47
9.89
6.49
2.76
-1.64
-6.71
-12.12
-17.37
-22.06
-26.03
-29.48
-32.84
-36.66
-41.49
-47.72
-55.40
-64.06
-72.51
-78.94
-81.23
-77.68
-67.67
-51.96
-32.63
-12.31
6.53
22.21
34.04
42.09
46.77
48.59
48.04
45.68
42.24
38.54
35.38
33.29
32.44
32.69
33.66
35.04
36.60
38.28
40.04
41.76
43.13
43.72
43.14
41.11
37.67
33.12
28.00
22.81
17.90
13.33
8.91
4.29
-0.76
-6.27
-11.98
-17.46
-22.33
-26.39
-29.79
-32.95
-36.48
-41.04
-47.14
-54.83
-63.52
-71.82
-77.69
-78.97
-74.09
-62.77
-46.16
-26.56
-6.69
11.10
25.39
35.73
42.39
46.00
47.17
46.42
44.25
41.13
37.59
34.19
31.44
29.71
29.11
29.51
30.56
31.86
33.09
34.10
34.85
35.28
35.23
34.38
32.42
29.23
24.96
20.06
15.04
10.29
5.86
1.55
-3.02
-8.11
-13.69
-19.42
-24.76
-29.23
-32.71
-35.50
-38.30
-41.95
-47.16
-54.15
-62.41
-70.58
-76.71
-78.68
-74.91
-64.87
-49.43
-30.64
-11.10
6.72
21.15
31.52
37.97
41.12
41.72
40.49
38.02
34.83
31.37
28.04
25.19
23.14
22.12
22.30
23.66
25.95
28.73
31.41
33.49
34.60
34.53
33.24
30.78
27.27
22.95
18.17
13.32
8.65
4.21
-0.21
-4.94
-10.23
-16.05
-22.06
-27.76
-32.74
-36.88
-40.47
-44.15
-48.65
-54.48
-61.54
-68.90
-74.84
-77.28
-74.39
-65.31
-50.60
-32.09
-12.41
5.85
20.83
31.71
38.64
42.26
43.40
42.76
40.83
37.98
34.62
31.19
28.19
26.09
25.17
25.46
26.68
28.35
29.96
31.07
31.45
31.08
30.07
28.52
26.50
23.93
20.72
16.77
12.13
7.01
1.75
-3.31
-7.92
-12.06
-15.94
-19.92
-24.40
-29.72
-36.10
-43.52
-51.62
-59.50
-65.79
-68.80
-67.03
-59.70
-47.17
-30.88
-12.99
4.29
19.22
30.89
39.10
44.09
46.30
46.14
44.03
40.47
36.11
31.73
28.00
25.43
24.13
23.85
24.10
24.41
24.51
24.42
24.35
24.47
24.73
24.73
23.89
21.63
17.71
12.27
5.89
-0.72
-6.92
-12.36
-17.11
-21.54
-26.27
-31.90
-38.83
-46.98
-55.61
-63.39
-68.59
-69.59
-65.42
-56.12
-42.82
-27.42
-12.03
1.58
12.33
19.82
24.19
25.84
25.23
22.82
19.05
14.42
9.48
4.79
0.89
-1.79
-2.97
-2.60
-0.90
1.66
4.42
6.73
8.08
8.24
7.23
5.24
2.54
-0.70
-4.36
-8.48
-13.16
-18.68
-25.31
-33.16
-41.88
-50.47
-57.29
-60.42
-58.37
-50.60
-37.94
-22.19
-5.67
9.58
22.25
31.79
38.18
41.63
42.28
40.27
35.92
29.87
23.05
16.57
11.38
8.05
6.67
6.86
7.96
9.25
10.13
10.27
9.58
8.13
6.06
3.49
0.45
-3.13
-7.41
-12.62
-19.07
-26.93
-36.04
-45.59
-54.10
-59.65
-60.41
-55.35
-44.68
-29.84
-13.04
3.45
17.88
29.28
37.29
41.91
43.18
41.25
36.47
29.62
21.83
14.43
8.58
4.94
3.53
3.77
4.71
5.35
4.95
3.23
0.34
-3.22
-6.88
-10.23
-13.19
-16.02
-19.20
-23.37
-29.07
-36.67
-46.21
-57.15
-68.27
-77.68
-83.19
-82.90
-75.92
-62.79
-45.35
-26.22
-7.91
7.81
20.18
29.28
35.61
39.73
42.07
42.93
42.63
41.50
39.90
38.07
36.14
34.13
32.07
30.06
28.34
27.19
26.76
26.94
27.33
27.32
26.29
23.88
20.10
15.29
10.02
4.79
-0.17
-5.00
-10.16
-16.32
-24.09
-33.66
-44.56
-55.38
-64.00
-68.08
-65.71
-56.24
-40.58
-20.99
-0.38
18.61
34.34
46.36
55.21
61.80
66.90
70.90
73.83
75.62
76.29
76.03
75.16
74.00
72.71
71.38
70.06
68.81
67.74
66.94
66.36
65.80
64.87
63.18
60.47
56.70
52.14
47.18
42.22
37.51
33.03
28.63
24.08
19.34
14.54
9.99
5.93
2.39
-0.89
-4.41
-8.66
-13.89
-20.06
-26.84
-33.77
-40.46
-46.68
-52.37
-57.68
-62.94
-68.66
-75.43
-83.60
-92.88
-102.02
-108.90
-111.02
-106.41
-94.46
-76.28
-54.44
-32.05
-11.90
4.32
16.16
24.13
29.11
31.95
33.25
33.39
32.72
31.69
30.76
30.35
30.68
31.63
32.91
34.10
34.92
35.33
35.48
35.61
35.80
35.82
35.23
33.47
30.20
25.44
19.63
13.49
7.70
2.64
-1.78
-6.04
-10.79
-16.42
-22.89
-29.60
-35.70
-40.38
-43.29
-44.69
-45.42
-46.55
-49.08
-53.51
-59.63
-66.39
-72.10
-74.77
-72.76
-65.28
-52.71
-36.52
-18.85
-1.79
13.04
24.79
33.31
38.85
41.88
42.91
42.50
41.26
39.81
38.64
38.06
38.08
38.55
39.16
39.71
40.10
40.42
40.76
41.19
41.51
41.38
40.40
38.30
35.13
31.19
26.88
22.54
18.28
14.06
9.73
5.18
0.42
-4.43
-9.23
-13.88
-18.33
-22.60
-26.75
-30.88
-35.18
-39.92
-45.39
-51.66
-58.35
-64.49
-68.63
-69.30
-65.45
-56.97
-44.69
-30.15
-15.15
-1.20
10.67
19.92
26.46
30.39
31.97
31.60
29.79
27.11
24.16
21.50
19.62
18.93
19.58
21.42
23.99
26.61
28.64
29.65
29.52
28.43
26.63
24.36
21.71
18.66
15.10
10.99
6.36
1.31
-3.97
-9.28
-14.43
-19.27
-23.75
-27.91
-31.91
-35.98
-40.40
-45.41
-51.08
-57.13
-62.80
-66.91
-68.05
-65.07
-57.47
-45.68
-30.99
-15.21
-0.13
12.91
23.16
30.46
34.94
36.87
36.56
34.39
30.90
26.76
22.72
19.46
17.34
16.37
16.24
16.44
16.53
16.29
15.77
15.15
14.59
14.11
13.43
12.12
9.76
6.11
1.29
-4.28
-9.96
-15.14
-19.48
-23.04
-26.20
-29.54
-33.60
-38.69
-44.78
-51.43
-57.80
-62.65
-64.62
-62.54
-55.81
-44.70
-30.41
-14.69
0.58
13.87
24.30
31.64
36.08
38.01
37.86
36.05
33.06
29.39
25.58
22.09
19.23
17.13
15.65
14.57
13.58
12.44
11.05
9.47
7.83
6.33
5.01
3.80
2.47
0.72
-1.62
-4.49
-7.58
-10.50
-13.00
-15.17
-17.51
-20.83
-25.86
-32.89
-41.45
-50.21
-57.26
-60.61
-58.82
-51.49
-39.45
-24.47
-8.75
5.76
17.72
26.63
32.57
35.92
37.03
36.20
33.68
29.88
25.35
20.80
16.87
14.02
12.32
11.56
11.37
11.41
11.51
11.61
11.71
11.61
10.95
9.25
6.20
1.82
-3.44
-8.90
-13.92
-18.14
-21.66
-24.87
-28.36
-32.62
-37.86
-43.88
-50.01
-55.22
-58.22
-57.82
-53.26
-44.45
-32.08
-17.55
-2.60
11.08
22.22
30.17
34.88
36.75
36.34
34.17
30.65
26.14
21.01
15.71
10.80
6.75
3.94
2.46
2.20
2.87
4.11
5.51
6.67
7.21
6.82
5.26
2.43
-1.61
-6.70
-12.55
-18.83
-25.30
-31.80
-38.22
-44.33
-49.63
-53.21
-53.94
-50.80
-43.39
-32.22
-18.70
-4.78
7.74
17.71
24.84
29.54
32.48
34.16
34.69
33.91
31.69
28.17
23.88
19.59
16.01
13.61
12.44
12.20
12.34
12.34
11.83
10.65
8.85
6.55
3.92
1.04
-2.06
-5.34
-8.76
-12.29
-16.00
-20.15
-25.11
-31.13
-37.99
-44.79
-49.97
-51.78
-48.93
-41.12
-29.22
-15.01
-0.56
12.36
22.64
29.88
34.24
36.05
35.72
33.65
30.26
26.08
21.73
17.81
14.71
12.59
11.28
10.47
9.84
9.19
8.47
7.73
6.95
5.98
4.54
2.38
-0.64
-4.43
-8.74
-13.31
-18.00
-22.90
-28.26
-34.41
-41.55
-49.50
-57.63
-64.77
-69.39
-70.04
-65.77
-56.60
-43.55
-28.48
-13.53
-0.46
9.66
16.66
20.96
23.18
23.85
23.26
21.56
18.91
15.63
12.19
9.15
6.99
6.07
6.59
8.57
11.87
16.15
20.80
25.00
27.85
28.59
26.80
22.55
16.27
8.67
0.39
-8.12
-16.71
-25.47
-34.55
-43.90
-53.03
-60.97
-66.34
-67.66
-63.85
-54.62
-40.61
-23.35
-4.94
12.45
26.96
37.24
42.70
43.44
40.23
34.33
27.16
20.02
13.76
8.67
4.62
1.31
-1.49
-3.76
-5.18
-5.24
-3.42
0.53
6.31
12.84
18.37
20.69
17.78
8.30
-7.87
-29.53
-54.30
-79.18
-101.15
-117.85
-128.11
-132.15
-131.42
-128.00
-123.74
-119.60
-115.46
-110.57
-104.25
-96.46
-87.79
-78.95
-70.12
-60.56
-48.90
-33.94
-15.51
5.15
25.72
43.65
57.11
65.51
69.46
70.22
69.10
67.04
64.59
62.18
60.30
59.65
60.78
63.85
68.23
72.67
75.70
76.33
74.50
71.14
67.64
65.09
63.69
62.62
60.49
56.01
48.61
38.55
26.77
14.58
3.40
-5.38
-10.61
-11.80
-9.42
-4.89
-0.28
2.49
2.13
-1.77
-9.00
-19.16
-31.78
-46.17
-61.21
-75.49
-87.74
-97.47
-105.25
-112.29
-119.56
-126.94
-132.96
-135.29
-131.77
-121.40
-104.77
-83.80
-60.99
-38.72
-18.79
-2.33
10.11
18.53
23.49
26.29
28.77
32.99
40.49
51.71
65.73
80.57
93.95
103.89
109.23
109.67
105.74
98.76
90.84
84.61
82.56
86.22
95.54
108.89
123.71
137.48
148.61
156.53
161.35
163.27
162.27
158.32
151.75
143.53
134.97
127.25
120.76
115.03
108.97
101.53
92.16
81.09
69.15
57.37
46.56
36.96
28.31
19.93
11.14
1.48
-9.10
-20.18
-31.06
-40.93
-49.08
-55.06
-58.75
-60.40
-60.58
-60.15
-60.13
-61.47
-64.70
-69.64
-75.21
-79.63
-80.90
-77.50
-68.93
-55.97
-40.42
-24.50
-10.22
1.20
9.42
14.86
18.32
20.54
21.99
22.79
22.82
21.96
20.32
18.28
16.37
15.08
14.58
14.67
14.92
14.85
14.15
12.68
10.38
7.16
2.84
-2.73
-9.41
-16.73
-23.99
-30.49
-35.94
-40.55
-44.96
-49.78
-55.18
-60.62
-64.89
-66.53
-64.34
-57.79
-47.21
-33.66
-18.59
-3.40
10.87
23.72
35.13
45.35
54.50
62.36
68.31
71.56
71.50
68.01
61.70
53.74
45.69
39.09
35.24
34.83
37.85
43.42
49.88
55.10
56.98
54.17
46.51
35.25
22.63
11.08
2.31
-3.38
-7.18
-11.09
-17.02
-25.83
-36.90
-48.29
-57.44
-62.11
-61.13
-54.62
-43.69
-29.83
-14.31
2.11
18.81
34.99
49.36
60.29
66.41
67.28
63.72
57.56
50.93
45.44
41.70
39.61
38.73
38.79
39.78
41.69
44.19
46.53
47.60
46.34
42.08
34.75
24.91
13.63
2.12
-8.47
-17.35
-24.33
-29.66
-33.94
-37.87
-42.24
-47.90
-55.60
-65.55
-77.06
-88.31
-96.84
-100.52
-98.49
-91.58
-81.74
-70.95
-60.13
-48.81
-35.68
-19.67
-0.81
19.51
39.01
55.31
66.49
71.56
70.54
64.65
56.31
48.48
43.90
44.22
49.58
58.72
69.83
81.27
91.98
101.24
108.20
111.67
110.31
103.24
90.73
74.35
56.54
39.83
25.93
15.36
7.53
1.24
-4.74
-11.21
-18.41
-26.02
-33.34
-39.50
-43.71
-45.36
-44.20
-40.36
-34.27
-26.58
-18.02
-9.29
-1.01
6.24
11.92
15.60
17.16
16.92
15.68
14.65
15.26
18.79
25.68
35.03
44.42
50.43
49.68
39.99
21.01
-5.40
-35.67
-65.88
-93.03
-116.21
-136.78
-158.24
-185.52
-223.26
-273.09
-331.42
-389.57
-435.76
-459.50
-454.91
-422.47
-368.44
-302.79
-235.82
-175.69
-128.31
-96.45
-79.48
-71.68
-62.85
-41.97
-2.74
53.41
117.59
175.98
216.44
232.61
226.70
209.93
195.99
193.50
201.25
211.53
213.95
207.08
191.74
168.86
137.44
96.93
44.85
-20.04
-87.68
-145.90
-185.56
-205.97
-212.22
-210.62
-205.62
-201.24
-199.21
-198.90
-199.52
-199.83
-199.81
-200.08
-206.87
-218.81
-235.19
-253.72
-269.38
-276.42
-269.56
-246.90
-210.66
-166.82
-122.63
-85.77
-60.45
-45.87
-40.48
-40.53
-41.53
-39.50
-31.88
-17.35
2.84
26.21
49.64
69.61
83.55
90.22
90.37
86.71
83.36
83.63
89.28
100.00
113.62
127.30
138.43
145.22
146.78
143.12
134.36
120.85
103.00
81.31
56.50
29.33
0.46
-29.39
-59.36
-88.56
-115.98
-140.58
-161.49
-178.01
-189.76
-196.67
-198.93
-196.92
-191.07
-181.88
-169.87
-155.51
-139.22
-121.32
-102.04
-81.53
-59.98
-37.70
-15.19
6.86
27.77
46.98
64.31
79.85
93.94
106.90
118.94
130.13
140.70
151.05
161.56
172.10
181.64
188.52
191.12
188.80
182.42
174.05
165.88
159.26
154.25
150.15
146.59
144.26
144.86
150.05
160.15
173.58
187.19
197.53
201.95
199.16
188.99
171.87
148.62
120.60
89.95
59.52
32.17
9.81
-7.37
-20.86
-32.95
-45.60
-59.27
-72.55
-82.53
-85.90
-80.12
-64.40
-40.12
-10.63
19.59
46.06
65.60
77.21
82.17
83.78
86.24
93.78
109.47
134.08
165.34
197.99
225.22
241.04
242.46
230.21
207.85
179.91
150.11
121.21
95.65
76.44
67.11
70.19
85.36
108.28
131.14
144.84
141.92
118.92
77.47
23.98
-31.88
-79.52
-109.73
-116.61
-98.79
-59.22
-4.43
56.83
114.99
160.75
186.28
186.47
160.01
110.15
44.51
-26.10
-89.85
-136.17
-157.73
-151.44
-118.71
-65.10
0.61
67.64
124.93
163.13
176.40
163.54
127.77
75.24
12.96
-52.56
-115.73
-171.30
-214.07
-239.52
-245.51
-233.88
-210.42
-182.85
-157.69
-137.90
-122.73
-109.64
-96.82
-84.46
-73.98
-65.97
-58.63
-47.93
-29.72
-2.37
31.72
66.49
94.50
109.76
109.79
96.14
73.29
46.85
21.60
0.19
-17.19
-31.91
-45.68
-59.16
-71.44
-80.29
-83.15
-78.09
-64.18
-41.30
-9.87
29.12
73.62
119.98
163.01
197.09
217.73
223.14
214.49
195.23
169.63
141.65
114.47
90.69
72.59
61.98
59.68
64.66
73.63
81.54
82.88
73.44
51.83
20.17
-16.46
-51.43
-78.51
-93.57
-95.26
-84.83
-64.83
-37.90
-5.96
29.62
67.34
104.84
138.97
166.65
185.87
196.35
199.32
196.41
188.58
175.51
156.23
130.39
99.45
66.94
37.65
16.26
6.15
9.07
25.23
53.42
90.88
132.97
173.21
204.36
220.22
217.58
197.25
163.55
122.61
80.00
39.22
1.33
-34.36
-69.15
-104.18
-140.49
-179.60
-223.57
-274.25
-331.26
-389.93
-441.00
-473.23
-478.29
-455.37
-412.55
-363.78
-322.53
-296.04
-283.23
-277.17
-270.22
-258.22
-241.43
-222.20
-202.00
-180.24
-155.87
-129.97
-107.10
-93.57
-93.96
-107.90
-129.59
-150.51
-163.48
-165.92
-160.59
-153.69
-151.63
-158.23
-173.53
-194.25
-215.29
-231.48
-238.74
-234.74
-219.03
-192.82
-158.41
-118.48
-75.60
-31.98
10.26
48.90
81.71
107.09
124.84
136.54
144.88
152.45
160.37
167.77
172.49
172.49
167.31
158.50
149.01
141.64
137.84
137.14
137.55
136.58
132.26
123.77
111.55
97.11
82.47
69.59
59.82
53.37
49.38
46.21
42.04
35.62
26.55
15.40
3.40
-7.96
-17.59
-25.30
-32.22
-40.56
-52.58
-69.04
-87.79
-103.67
-110.09
-101.86
-77.75
-41.53
-0.46
37.58
67.06
86.25
96.78
101.96
105.02
108.26
113.01
119.93
129.11
139.94
150.97
160.17
165.40
165.05
158.39
145.45
126.98
104.35
79.57
55.18
33.88
17.78
7.72
2.89
0.97
-1.13
-6.37
-16.56
-31.82
-50.52
-69.73
-86.24
-97.70
-103.37
-104.31
-102.68
-100.67
-99.43
-98.59
-96.61
-91.71
-82.90
-70.54
-56.24
-42.14
-29.98
-20.55
-13.67
-8.55
-4.38
-0.74
2.38
4.90
7.06
9.65
13.82
20.43
29.53
39.95
49.65
56.62
59.79
59.55
57.52
55.61
55.11
56.18
58.20
60.45
62.85
65.98
70.54
76.60
83.14
88.39
90.52
88.52
82.61
74.01
64.30
54.75
46.03
38.17
30.96
24.28
18.25
13.18
9.34
6.74
5.17
4.23
3.60
3.06
2.56
2.10
1.65
1.05
0.04
-1.61
-4.04
-7.16
-10.61
-13.89
-16.52
-18.19
-19.03
-19.52
-20.36
-22.17
-25.11
-28.69
-31.86
-33.37
-32.25
-28.15
-21.56
-13.53
-5.36
1.85
7.49
11.38
13.66
14.54
14.16
12.61
10.07
6.86
3.46
0.38
-1.98
-3.52
-4.31
-4.65
-4.77
-4.89
-5.06
-5.27
-5.44
-5.50
-5.51
-5.62
-6.16
-7.39
-9.53
-12.54
-16.13
-19.91
-23.47
-26.58
-29.18
-31.46
-33.63
-35.96
-38.62
-41.58
-44.54
-46.96
-48.11
-47.31
-44.29
-39.20
-32.72
-25.75
-19.13
-13.42
-8.78
-5.20
-2.56
-0.87
-0.18
-0.48
-1.59
-3.04
-4.26
-4.68
-3.98
-2.26
-0.01
1.94
2.58
1.06
-3.10
-9.75
-17.93
-26.05
-32.16
-34.59
-32.57
-26.48
-17.70
-7.98
1.29
9.53
16.90
23.98
31.28
38.87
46.41
53.28
58.86
62.69
64.46
64.04
61.44
56.89
50.93
44.35
38.18
33.59
31.75
33.70
40.03
50.63
64.37
78.96
90.90
96.03
90.44
71.86
40.92
1.63
-39.22
-73.84
-95.57
-100.69
-89.09
-63.72
-29.17
9.74
48.83
84.74
114.53
135.33
144.49
140.22
122.44
93.48
57.92
21.61
-9.86
-32.77
-46.05
-51.09
-50.63
-47.43
-43.31
-38.96
-34.50
-30.17
-26.77
-25.59
-27.82
-33.95
-43.36
-54.44
-65.13
-73.56
-78.73
-80.74
-80.63
-79.86
-79.69
-80.60
-82.11
-83.02
-81.95
-78.15
-71.95
-64.84
-58.95
-56.14
-57.18
-61.53
-67.57
-73.51
-78.24
-81.83
-85.34
-90.11
-96.90
-105.31
-113.72
-119.92
-121.95
-118.98
-111.64
-101.98
-92.75
-86.51
-84.94
-88.50
-96.42
-106.74
-116.55
-122.14
-119.66
-106.09
-80.42
-44.39
-2.44
39.36
75.07
100.80
115.65
121.47
121.53
118.87
115.18
110.71
105.22
99.06
93.76
91.50
93.98
101.09
110.56
118.83
122.65
120.69
114.05
105.45
97.72
92.29
88.78
85.63
81.16
74.73
66.94
59.22
52.85
48.21
44.50
40.22
33.89
24.88
13.75
1.99
-8.54
-16.35
-20.76
-22.00
-20.98
-18.81
-16.51
-14.78
-14.06
-14.53
-16.26
-19.14
-22.83
-26.78
-30.38
-33.14
-34.89
-35.77
-36.10
-36.21
-36.21
-36.01
-35.45
-34.57
-33.64
-33.15
-33.59
-35.14
-37.55
-40.19
-42.21
-42.81
-41.48
-38.20
-33.40
-27.89
-22.69
-18.69
-16.43
-15.85
-16.30
-16.61
-15.49
-11.81
-5.01
4.85
17.14
30.89
44.99
58.16
69.11
76.61
79.69
78.00
71.93
62.61
51.43
39.71
28.19
17.08
6.13
-5.14
-17.18
-30.29
-44.47
-59.34
-74.02
-87.27
-97.89
-105.14
-109.01
-110.11
-109.32
-107.28
-104.12
-99.56
-93.14
-84.62
-74.26
-62.94
-51.75
-41.38
-31.48
-20.56
-6.51
12.34
36.12
62.94
89.39
111.83
127.88
137.03
140.50
140.00
136.72
130.86
122.07
110.30
96.64
83.33
73.12
68.19
69.29
75.35
83.75
91.25
95.01
93.28
85.70
73.04
56.98
39.91
24.85
15.16
13.73
21.63
37.27
56.53
74.23
86.39
91.88
92.62
92.01
92.55
94.18
94.26
89.38
77.55
59.61
38.79
19.10
3.50
-7.04
-13.38
-17.23
-20.34
-23.98
-28.81
-35.09
-42.61
-50.74
-58.51
-64.87
-68.91
-70.03
-67.93
-62.34
-53.09
-40.30
-24.66
-7.58
9.24
24.50
37.92
50.21
62.44
75.08
87.16
96.40
100.03
96.14
84.81
68.20
50.01
34.11
23.29
18.47
18.70
21.77
24.94
25.74
22.43
14.35
2.01
-12.93
-28.09
-41.04
-50.05
-54.64
-55.76
-55.45
-56.11
-59.90
-68.22
-81.64
-100.04
-122.78
-148.65
-175.74
-201.39
-222.41
-235.73
-239.23
-232.43
-216.78
-195.19
-171.15
-147.78
-127.24
-110.52
-97.50
-87.00
-77.04
-65.20
-49.46
-29.26
-6.30
15.61
31.85
38.97
36.38
26.80
15.01
5.82
2.06
3.86
9.19
15.18
19.45
20.64
18.36
12.82
4.61
-5.28
-15.23
-22.94
-25.80
-21.85
-10.69
5.98
24.57
40.52
49.81
50.31
42.39
28.46
11.79
-4.87
-19.86
-32.14
-40.29
-41.78
-33.43
-12.97
19.05
58.23
97.13
127.75
144.51
146.23
136.09
119.69
102.21
86.52
72.87
60.28
48.31
38.04
31.76
31.36
36.95
46.20
55.38
60.88
60.67
54.75
44.48
31.62
17.49
2.89
-11.53
-24.91
-36.12
-44.29
-49.20
-51.54
-52.66
-54.13
-57.08
-61.69
-67.03
-71.25
-72.45
-69.61
-63.33
-55.62
-49.05
-45.41
-44.74
-45.29
-44.49
-40.29
-32.13
-21.06
-9.10
1.75
9.98
14.72
15.35
11.47
3.03
-9.15
-22.94
-35.07
-41.89
-40.67
-30.80
-14.40
4.30
20.40
30.01
31.42
25.29
14.03
0.49
-12.97
-25.05
-35.26
-43.33
-48.67
-50.28
-47.15
-38.84
-26.12
-11.16
2.80
12.31
14.91
9.98
-1.06
-15.51
-30.35
-43.36
-53.53
-60.85
-65.76
-68.77
-70.29
-70.83
-71.21
-72.30
-74.50
-77.20
-78.74
-77.07
-70.95
-60.76
-48.55
-37.29
-29.85
-28.22
-33.18
-44.18
-59.26
-74.80
-85.79
-86.99
-74.88
-49.49
-15.07
20.99
50.97
69.60
75.71
71.94
62.75
52.26
42.98
35.71
30.42
27.05
25.70
26.47
28.90
31.80
33.52
32.66
28.70
22.36
15.50
10.50
9.48
13.52
22.31
34.22
46.79
57.60
64.99
68.47
68.62
66.54
63.25
59.24
54.41
48.34
40.63
31.10
19.83
7.01
-7.03
-21.71
-35.90
-47.87
-55.57
-57.32
-52.68
-42.79
-30.20
-17.95
-8.48
-2.97
-1.33
-2.83
-6.90
-13.49
-22.81
-34.60
-47.68
-59.93
-69.10
-73.66
-73.38
-69.20
-62.55
-54.56
-45.77
-36.31
-26.39
-16.42
-6.77
2.71
12.93
25.18
40.29
57.91
76.30
93.00
105.86
113.88
117.32
117.18
114.45
109.61
102.73
93.90
83.66
72.97
62.85
53.84
45.88
38.36
30.66
22.53
14.26
6.45
-0.27
-5.66
-9.92
-13.71
-17.82
-22.88
-29.04
-35.78
-42.03
-46.41
-47.76
-45.59
-40.26
-32.97
-25.27
-18.54
-13.55
-10.30
-8.14
-6.22
-3.84
-0.76
2.80
6.32
9.22
11.03
11.57
10.93
9.40
7.39
5.24
3.18
1.30
-0.41
-1.93
-3.20
-4.09
-4.51
-4.48
-4.17
-3.84
-3.74
-3.96
-4.45
-5.10
-5.90
-6.95
-8.27
-9.58
-10.10
-8.76
-4.60
2.67
12.40
23.12
33.11
41.02
46.30
49.11
50.07
49.73
48.42
46.24
43.29
39.88
36.50
33.65
31.68
30.70
30.62
31.27
32.50
34.14
35.98
37.74
39.06
39.51
38.74
36.62
33.38
29.73
26.79
25.83
27.90
33.38
41.83
51.84
61.34
68.05
70.18
67.00
59.21
48.77
38.38
30.69
27.55
29.63
36.26
45.54
54.68
60.37
59.31
48.71
27.21
-4.54
-43.54
-84.84
-122.76
-152.60
-172.10
-182.09
-185.91
-187.68
-190.41
-194.69
-198.81
-200.10
-196.65
-188.29
-176.36
-162.50
-147.47
-130.77
-111.32
-88.63
-63.44
-37.41
-12.09
12.28
36.97
63.94
94.46
127.83
161.29
190.88
213.03
225.79
229.31
225.32
216.17
203.77
189.25
173.10
155.75
137.93
120.67
104.97
91.45
80.14
70.68
62.71
56.13
51.18
48.19
47.20
47.70
48.67
48.96
47.70
44.71
40.55
36.32
33.07
31.30
30.53
29.41
26.29
19.86
9.96
-2.45
-15.78
-28.88
-41.86
-56.09
-73.44
-95.07
-120.67
-148.49
-175.96
-200.22
-218.20
-226.54
-222.00
-202.84
-170.51
-130.69
-92.55
-65.86
-57.43
-68.36
-93.84
-125.29
-153.77
-172.89
-179.88
-175.08
-160.41
-138.17
-110.43
-79.17
-46.50
-14.83
13.28
35.77
51.57
61.11
66.13
69.04
71.93
75.68
79.80
82.83
83.21
80.10
73.73
65.22
56.07
47.62
40.79
36.11
33.90
34.44
37.95
44.61
54.44
67.34
82.92
100.44
118.62
135.79
150.27
160.85
167.17
169.69
169.34
166.99
163.04
157.44
150.04
141.09
131.42
122.25
114.55
108.53
103.43
97.84
90.50
80.95
69.95
59.23
50.78
46.09
45.50
48.17
52.34
55.83
56.51
52.50
42.53
25.97
2.98
-25.52
-58.35
-94.83
-135.37
-181.35
-233.61
-290.38
-345.87
-390.64
-414.32
-409.38
-374.18
-313.75
-237.96
-157.94
-82.85
-18.06
34.82
76.71
109.75
136.61
160.04
182.39
204.95
227.17
246.43
258.80
260.35
248.43
222.79
185.62
140.77
92.46
44.18
-1.69
-43.50
-79.65
-108.28
-127.70
-137.30
-138.28
-133.62
-127.14
-122.05
-119.86
-120.25
-121.85
-123.25
-123.68
-123.04
-121.29
-118.01
-112.30
-103.09
-89.80
-72.72
-53.26
-33.86
-17.33
-6.01
-0.94
-1.45
-5.39
-10.00
-13.06
-13.69
-12.44
-10.60
-9.35
-9.05
-9.08
-8.28
-5.66
-0.89
5.48
12.21
17.84
21.19
21.70
19.61
15.77
11.36
7.38
4.32
2.11
0.31
-1.59
-3.90
-6.60
-9.52
-12.48
-15.33
-17.94
-19.97
-20.88
-20.04
-17.01
-11.79
-4.88
2.80
10.28
16.74
21.72
25.11
27.02
27.67
27.32
26.25
24.77
23.21
21.94
21.31
21.55
22.75
24.70
26.89
28.54
28.87
27.29
23.72
18.58
12.73
7.14
2.56
-0.73
-2.98
-4.82
-6.99
-10.08
-14.35
-19.73
-25.94
-32.67
-39.59
-46.36
-52.60
-57.75
-61.11
-62.08
-60.30
-55.98
-49.92
-43.37
-37.80
-34.50
-34.37
-37.74
-44.44
-53.91
-65.32
-77.52
-89.00
-97.99
-102.75
-102.16
-96.25
-86.42
-75.17
-65.26
-58.73
-56.16
-56.66
-58.51
-60.10
-60.68
-60.45
-60.09
-60.11
-60.46
-60.69
-60.39
-59.72
-59.64
-61.64
-66.93
-75.62
-86.21
-95.72
-100.47
-97.11
-83.71
-60.46
-29.67
4.98
39.51
70.68
96.35
115.43
127.41
132.11
129.80
121.56
109.35
95.74
83.06
72.53
63.86
55.46
45.28
32.05
16.21
0.06
-12.81
-18.93
-16.26
-5.06
12.19
31.92
50.92
67.54
81.91
95.10
107.91
119.94
129.63
135.07
135.24
130.72
123.42
115.74
109.47
105.27
102.58
100.32
97.48
93.68
89.21
84.66
80.54
76.88
73.25
68.95
63.42
56.53
48.70
40.72
33.47
27.63
23.44
20.73
18.99
17.60
16.07
14.14
11.85
9.41
7.18
5.38
4.01
2.76
1.11
-1.48
-5.26
-10.05
-15.21
-19.87
-23.26
-24.94
-24.90
-23.50
-21.19
-18.31
-14.92
-10.93
-6.19
-0.70
5.26
11.16
16.21
19.43
19.76
16.29
8.64
-2.51
-15.02
-25.40
-29.73
-25.16
-11.37
8.72
29.67
45.39
51.46
46.72
33.40
15.93
-1.13
-14.66
-23.66
-28.86
-31.73
-33.59
-35.21
-36.89
-38.72
-40.71
-42.75
-44.45
-45.12
-43.91
-40.11
-33.53
-24.60
-14.37
-4.17
4.76
11.56
15.92
17.95
18.03
16.60
14.20
11.47
9.15
7.94
8.16
9.52
11.14
11.78
10.36
6.47
0.52
-6.37
-12.69
-16.93
-17.85
-14.64
-7.10
4.39
18.92
35.21
51.90
67.73
81.68
92.89
100.71
104.69
104.65
100.88
94.25
86.45
79.92
77.45
81.24
91.71
106.61
120.87
127.65
120.37
95.03
51.88
-4.39
-66.09
-124.86
-174.00
-209.84
-231.76
-241.28
-240.86
-232.82
-219.06
-201.16
-180.70
-159.47
-139.32
-121.72
-107.39
-96.26
-87.73
-81.09
-75.96
-72.26
-70.05
-69.12
-68.71
-67.53
-64.14
-57.57
-47.79
-35.87
-23.62
-12.98
-5.40
-1.38
-0.52
-1.82
-4.05
-6.09
-7.09
-6.50
-4.09
0.10
5.77
12.46
19.65
26.96
34.23
41.48
48.70
55.68
61.84
66.40
68.57
67.93
64.54
58.84
51.32
42.25
31.65
19.48
6.01
-8.10
-21.91
-34.55
-45.52
-54.57
-61.43
-65.51
-66.04
-62.52
-55.47
-46.60
-38.50
-33.55
-32.88
-35.93
-40.83
-45.50
-48.72
-50.67
-52.57
-55.80
-60.95
-67.55
-74.47
-80.77
-86.30
-91.59
-97.09
-102.26
-105.27
-103.50
-94.77
-78.40
-55.70
-29.55
-3.35
20.02
38.81
52.40
60.92
64.81
64.53
60.51
53.24
43.45
32.33
21.57
13.19
9.13
10.67
18.05
30.36
45.88
62.54
78.36
91.72
101.45
106.89
107.97
105.21
99.61
92.46
84.94
77.87
71.67
66.35
61.75
57.71
54.10
50.85
47.90
45.15
42.44
39.62
36.50
33.01
29.16
25.08
20.93
16.82
12.67
8.32
3.59
-1.50
-6.58
-10.96
-13.82
-14.48
-12.70
-8.68
-3.00
3.58
10.36
16.74
22.29
26.58
29.23
29.94
28.61
25.47
21.12
16.45
12.38
9.67
8.69
9.40
11.35
13.87
16.26
17.96
18.59
18.01
16.25
13.54
10.30
7.11
4.62
3.32
3.28
3.94
4.13
2.54
-1.80
-8.88
-17.59
-26.01
-32.10
-34.50
-32.92
-28.11
-21.35
-13.89
-6.60
0.08
5.87
10.40
13.22
13.92
12.51
9.54
6.11
3.54
2.95
4.82
8.78
13.54
17.33
18.42
15.78
9.48
0.61
-9.05
-17.76
-24.37
-28.55
-30.76
-31.88
-32.86
-34.46
-36.98
-40.27
-43.56
-45.68
-45.35
-41.66
-34.48
-24.62
-13.57
-2.99
5.84
12.32
16.41
18.33
18.40
16.88
14.18
10.93
7.96
6.00
5.32
5.61
5.99
5.48
3.38
-0.36
-5.21
-10.24
-14.56
-17.64
-19.41
-20.26
-20.73
-21.42
-22.76
-25.02
-28.33
-32.65
-37.71
-42.89
-47.18
-49.34
-48.28
-43.42
-35.04
-24.25
-12.69
-2.06
6.32
11.82
14.49
15.03
14.59
14.53
16.18
20.53
28.03
38.42
50.74
63.43
74.57
82.25
85.01
82.28
74.65
63.85
52.19
41.91
34.39
29.78
27.18
25.10
22.16
17.39
10.36
1.09
-10.07
-22.32
-34.36
-44.43
-50.64
-51.57
-46.86
-37.40
-25.14
-12.43
-1.30
7.05
12.42
15.31
16.44
16.48
15.78
14.51
12.74
10.53
7.98
5.20
2.37
-0.29
-2.50
-4.01
-4.68
-4.61
-4.12
-3.62
-3.49
-3.91
-4.89
-6.26
-7.82
-9.25
-10.18
-10.23
-9.07
-6.72
-3.57
-0.44
1.64
1.73
-0.70
-5.49
-11.79
-18.15
-22.95
-24.72
-22.65
-16.81
-8.11
1.94
11.69
19.83
25.60
28.89
29.99
29.40
27.56
24.84
21.53
17.99
14.57
11.69
9.62
8.49
8.19
8.44
8.92
9.33
9.51
9.39
8.93
7.99
6.31
3.69
0.17
-3.88
-7.73
-10.57
-11.86
-11.56
-10.20
-8.68
-7.84
-8.19
-9.83
-12.55
-15.94
-19.51
-22.63
-24.52
-24.39
-21.69
-16.44
-9.36
-1.76
4.95
9.73
12.22
12.81
12.27
11.38
10.63
10.16
9.86
9.57
9.24
8.81
8.17
7.00
4.92
1.74
-2.33
-6.60
-10.17
-12.31
-12.81
-12.09
-10.97
-10.25
-10.43
-11.50
-13.01
-14.37
-15.08
-14.98
-14.22
-13.11
-11.91
-10.51
-8.38
-4.76
1.03
9.16
19.05
29.45
38.81
45.70
49.21
49.08
45.71
39.88
32.60
24.88
17.60
11.43
6.77
3.78
2.36
2.14
2.52
2.88
2.67
1.67
0.05
-1.70
-3.01
-3.54
-3.32
-2.77
-2.52
-3.14
-4.94
-7.85
-11.47
-15.28
-18.74
-21.55
-23.66
-25.30
-26.86
-28.77
-31.20
-34.00
-36.55
-37.91
-37.18
-33.77
-27.71
-19.66
-10.70
-1.94
5.74
11.89
16.34
19.14
20.38
20.22
18.93
16.99
14.98
13.39
12.45
12.09
11.98
11.80
11.36
10.75
10.24
10.14
10.67
11.78
13.06
13.86
13.42
11.17
7.01
1.43
-4.65
-10.15
-14.30
-16.86
-18.10
-18.60
-19.03
-19.86
-21.33
-23.39
-25.70
-27.65
-28.51
-27.64
-24.84
-20.44
-15.26
-10.25
-6.14
-3.16
-1.11
0.47
1.97
3.55
5.22
6.91
8.62
10.41
12.29
14.17
15.84
17.07
17.76
18.09
18.43
19.22
20.70
22.79
25.06
26.92
27.92
27.91
27.18
26.28
25.80
26.09
27.08
28.32
29.13
28.93
27.45
24.84
21.58
18.18
14.81
11.11
6.27
-0.56
-9.78
-20.98
-32.88
-43.68
-51.72
-56.08
-56.85
-55.05
-52.05
-48.99
-46.35
-43.89
-40.98
-36.99
-31.66
-25.19
-18.03
-10.69
-3.49
3.43
10.09
16.43
22.26
27.17
30.66
32.26
31.73
29.20
25.21
20.54
16.08
12.48
10.02
8.52
7.52
6.52
5.24
3.73
2.18
0.74
-0.74
-2.75
-5.90
-10.54
-16.49
-22.82
-28.18
-31.24
-31.05
-27.28
-20.09
-10.02
2.10
15.09
27.38
37.13
42.61
42.73
37.51
28.21
16.92
5.93
-3.03
-9.03
-11.99
-12.31
-10.50
-7.14
-2.97
1.14
4.28
5.91
6.15
5.83
6.06
7.74
10.89
14.70
17.83
19.11
18.12
15.35
11.91
9.01
7.48
7.46
8.43
9.41
9.29
7.18
2.58
-4.40
-13.01
-22.07
-30.09
-35.69
-37.86
-36.30
-31.46
-24.44
-16.68
-9.52
-3.84
0.16
2.77
4.55
5.94
7.09
7.83
7.87
7.09
5.57
3.68
1.82
0.24
-1.01
-2.06
-3.09
-4.24
-5.55
-7.14
-9.19
-11.92
-15.46
-19.66
-24.06
-27.96
-30.69
-31.90
-31.75
-30.86
-30.09
-30.26
-31.85
-34.94
-39.13
-43.66
-47.63
-50.25
-50.97
-49.59
-46.24
-41.14
-34.57
-26.74
-17.95
-8.67
0.36
8.36
14.59
18.76
21.04
21.92
21.89
21.16
19.68
17.19
13.64
9.33
4.97
1.46
-0.54
-0.85
0.08
1.35
2.00
1.37
-0.66
-3.69
-7.07
-10.22
-12.78
-14.57
-15.47
-15.23
-13.62
-10.74
-7.23
-4.25
-3.04
-4.23
-7.44
-11.37
-14.32
-15.04
-13.25
-9.63
-5.21
-0.78
3.52
7.95
12.77
17.73
22.10
25.16
26.65
27.11
27.60
29.10
31.97
35.73
39.33
41.74
42.37
41.28
38.96
35.96
32.70
29.38
26.09
22.88
19.66
16.05
11.44
5.16
-3.13
-13.18
-24.16
-35.00
-44.76
-52.93
-59.34
-63.90
-66.29
-65.91
-62.12
-54.69
-44.20
-32.00
-19.83
-9.26
-1.16
4.39
7.96
10.24
11.70
12.37
12.04
10.58
8.19
5.50
3.32
2.34
2.85
4.67
7.26
9.95
12.19
13.61
14.13
13.78
12.66
10.80
8.28
5.12
1.45
-2.57
-6.79
-11.17
-15.78
-20.74
-26.03
-31.24
-35.57
-37.94
-37.45
-33.71
-27.10
-18.61
-9.45
-0.65
7.20
13.93
19.54
23.91
26.74
27.72
26.74
24.10
20.49
16.77
13.63
11.42
10.06
9.23
8.54
7.75
6.80
5.76
4.67
3.51
2.05
0.07
-2.64
-6.11
-10.20
-14.66
-19.21
-23.71
-28.22
-32.85
-37.60
-42.14
-45.68
-47.21
-45.76
-40.86
-32.69
-22.15
-10.59
0.58
10.22
17.62
22.51
24.99
25.43
24.31
22.23
19.78
17.53
15.90
15.13
15.30
16.34
18.05
20.10
22.16
23.81
24.72
24.69
23.73
22.05
19.95
17.71
15.50
13.31
10.97
8.21
4.70
0.18
-5.45
-11.92
-18.45
-23.71
-26.17
-24.49
-18.01
-7.09
6.89
21.80
35.28
45.27
50.52
50.78
46.84
40.20
32.52
25.22
19.13
14.50
11.18
8.89
7.50
7.00
7.39
8.56
10.17
11.74
12.83
13.21
12.88
12.01
10.78
9.22
7.18
4.48
1.12
-2.65
-6.40
-9.70
-12.43
-14.84
-17.47
-20.94
-25.65
-31.64
-38.45
-45.23
-50.74
-53.64
-52.84
-47.87
-39.10
-27.71
-15.34
-3.57
6.51
14.45
20.34
24.46
27.09
28.42
28.65
28.14
27.37
26.90
27.13
28.17
29.79
31.60
33.13
34.03
34.15
33.50
32.22
30.45
28.37
26.11
23.79
21.47
19.12
16.65
13.92
10.84
7.39
3.64
-0.26
-4.16
-7.96
-11.66
-15.30
-19.00
-22.92
-27.26
-32.18
-37.69
-43.43
-48.57
-51.91
-52.20
-48.56
-40.88
-29.92
-17.12
-4.12
7.65
17.33
24.61
29.61
32.66
34.16
34.55
34.32
33.97
33.92
34.41
35.40
36.56
37.40
37.51
36.71
35.13
33.15
31.19
29.51
28.06
26.61
24.84
22.57
19.81
16.75
13.64
10.60
7.66
4.74
1.72
-1.46
-4.81
-8.28
-11.77
-15.21
-18.56
-21.83
-25.12
-28.62
-32.59
-37.23
-42.53
-48.15
-53.27
-56.81
-57.66
-55.06
-48.87
-39.64
-28.44
-16.52
-5.10
4.88
12.74
18.11
20.94
21.45
20.23
18.03
15.70
13.92
13.07
13.22
14.20
15.79
17.83
20.28
23.23
26.93
31.69
37.77
45.19
53.50
61.66
68.16
71.46
70.49
65.14
56.37
45.85
35.37
26.17
18.63
12.33
6.48
0.36
-6.33
-13.51
-20.88
-28.14
-35.04
-41.31
-46.42
-49.62
-50.00
-46.94
-40.40
-31.12
-20.50
-10.15
-1.37
5.24
9.76
12.70
14.65
15.95
16.69
16.89
16.68
16.40
16.50
17.30
18.79
20.61
22.26
23.31
23.57
23.13
22.27
21.28
20.29
19.27
18.00
16.21
13.65
10.19
5.92
1.10
-3.87
-8.55
-12.66
-16.15
-19.22
-22.24
-25.63
-29.78
-34.90
-40.97
-47.60
-53.94
-58.78
-60.77
-58.88
-52.80
-43.15
-31.35
-19.15
-8.11
0.85
7.51
12.15
15.23
17.10
17.98
18.06
17.68
17.29
17.36
18.25
20.00
22.36
24.93
27.24
28.95
29.87
29.95
29.22
27.76
25.66
22.96
19.70
15.95
11.82
7.55
3.46
-0.07
-2.76
-4.52
-5.50
-6.00
-6.44
-7.18
-8.49
-10.59
-13.60
-17.57
-22.37
-27.53
-32.18
-35.21
-35.49
-32.36
-25.91
-16.95
-6.83
3.04
11.57
18.19
22.79
25.58
26.87
26.93
26.07
24.67
23.13
21.90
21.29
21.41
22.11
23.10
23.97
24.39
24.19
23.39
22.18
20.81
19.50
18.31
17.15
15.84
14.15
11.95
9.18
5.87
2.16
-1.77
-5.68
-9.36
-12.69
-15.68
-18.58
-21.77
-25.64
-30.39
-35.82
-41.31
-45.83
-48.22
-47.52
-43.25
-35.64
-25.61
-14.56
-3.98
4.89
11.39
15.42
17.31
17.68
17.07
15.97
14.71
13.48
12.41
11.52
10.77
10.07
9.35
8.64
8.07
7.86
8.21
9.13
10.40
11.58
12.14
11.70
10.13
7.65
4.71
1.80
-0.75
-2.83
-4.55
-6.08
-7.70
-9.68
-12.32
-15.84
-20.22
-25.04
-29.40
-32.14
-32.18
-28.96
-22.67
-14.21
-4.95
3.79
11.03
16.33
19.67
21.30
21.58
20.83
19.41
17.73
16.26
15.40
15.39
16.22
17.61
19.09
20.18
20.54
20.02
18.63
16.56
13.96
10.96
7.63
3.99
0.10
-3.90
-7.83
-11.53
-14.96
-18.30
-21.92
-26.26
-31.67
-38.23
-45.60
-52.93
-58.95
-62.17
-61.31
-55.77
-45.95
-33.27
-19.73
-7.31
2.63
9.64
14.06
16.59
17.89
18.35
18.11
17.28
16.08
14.91
14.21
14.26
15.10
16.50
18.01
19.16
19.53
18.88
17.18
14.64
11.62
8.46
5.45
2.61
-0.17
-3.11
-6.32
-9.74
-13.15
-16.30
-19.04
-21.46
-23.87
-26.66
-30.13
-34.23
-38.47
-41.91
-43.52
-42.42
-38.32
-31.64
-23.34
-14.56
-6.26
1.00
7.10
12.06
15.89
18.44
19.49
19.00
17.26
14.92
12.80
11.63
11.73
12.93
14.71
16.38
17.46
17.74
17.37
16.62
15.77
14.91
13.88
12.36
9.99
6.52
1.97
-3.29
-8.54
-12.78
-15.10
-14.94
-12.47
-8.65
-5.04
-3.43
-5.20
-10.78
-19.44
-29.35
-38.17
-43.71
-44.67
-40.91
-33.36
-23.50
-12.76
-2.13
7.94
17.30
25.80
33.10
38.72
42.27
43.68
43.23
41.44
38.86
36.00
33.24
30.97
29.56
29.22
29.88
30.99
31.64
30.81
27.75
22.32
15.03
6.87
-1.09
-8.02
-13.54
-17.77
-21.10
-24.06
-27.10
-30.54
-34.58
-39.30
-44.64
-50.25
-55.38
-58.94
-59.68
-56.69
-49.74
-39.63
-27.92
-16.48
-6.89
0.05
4.39
6.77
7.98
8.58
8.81
8.71
8.29
7.71
7.14
6.69
6.26
5.63
4.61
3.19
1.69
0.54
0.09
0.43
1.35
2.47
3.42
3.96
3.97
3.34
1.92
-0.51
-4.10
-8.90
-14.70
-21.12
-27.51
-33.03
-36.69
-37.55
-34.99
-28.96
-20.12
-9.73
0.73
9.97
17.32
22.72
26.57
29.30
31.08
31.72
30.84
28.20
23.97
18.81
13.67
9.53
7.04
6.32
7.05
8.63
10.41
11.85
12.65
12.62
11.73
9.95
7.31
3.92
-0.02
-4.23
-8.50
-12.76
-17.18
-22.09
-27.65
-33.54
-38.83
-42.07
-41.86
-37.44
-29.06
-17.99
-6.06
5.01
14.17
21.09
26.05
29.53
31.87
33.26
33.76
33.48
32.61
31.37
29.89
28.12
25.95
23.23
19.97
16.37
12.79
9.61
7.03
5.00
3.17
1.16
-1.37
-4.47
-7.89
-11.20
-13.99
-16.12
-17.80
-19.51
-21.88
-25.48
-30.48
-36.57
-42.82
-47.88
-50.31
-49.07
-43.84
-35.25
-24.65
-13.66
-3.64
4.63
11.03
15.88
19.55
22.28
24.05
24.79
24.54
23.58
22.38
21.49
21.24
21.70
22.69
23.90
25.06
26.04
26.80
27.26
27.26
26.56
24.98
22.49
19.31
15.76
12.11
8.44
4.58
0.27
-4.55
-9.52
-13.74
-16.05
-15.40
-11.37
-4.35
4.46
13.36
20.62
24.74
24.71
20.16
11.44
-0.30
-13.12
-24.70
-32.90
-36.38
-35.07
-30.06
-23.20
-16.24
-10.37
-5.87
-2.44
0.47
3.25
5.94
8.33
10.20
11.63
12.96
14.76
17.49
21.28
25.81
30.48
34.59
37.69
39.65
40.62
40.82
40.42
39.43
37.76
35.33
32.15
28.43
24.43
20.40
16.46
12.61
8.72
4.67
0.41
-3.96
-8.21
-11.99
-14.99
-17.07
-18.32
-19.09
-19.93
-21.47
-24.22
-28.38
-33.64
-39.09
-43.40
-45.09
-43.05
-36.85
-26.91
-14.32
-0.50
13.10
25.30
35.21
42.28
46.30
47.39
46.06
43.03
39.07
34.81
30.66
26.81
23.34
20.33
17.89
16.12
15.11
14.85
15.27
16.16
17.24
18.08
18.26
17.44
15.42
12.18
7.82
2.47
-3.72
-10.50
-17.47
-24.07
-29.70
-33.90
-36.56
-37.92
-38.55
-39.09
-40.06
-41.71
-43.96
-46.35
-48.21
-48.67
-46.99
-42.70
-35.80
-26.84
-16.79
-6.78
2.19
9.41
14.55
17.66
18.96
18.83
17.69
15.95
13.98
12.02
10.17
8.50
7.05
5.92
5.25
5.12
5.47
6.05
6.44
6.17
4.90
2.45
-1.07
-5.36
-9.96
-14.43
-18.43
-21.80
-24.61
-27.13
-29.79
-33.03
-37.15
-42.12
-47.44
-52.19
-55.19
-55.44
-52.38
-46.13
-37.49
-27.66
-17.88
-9.10
-1.87
3.64
7.46
9.75
10.71
10.58
9.65
8.25
6.70
5.29
4.22
3.66
3.66
4.23
5.27
6.60
7.97
9.10
9.70
9.54
8.47
6.54
3.93
0.98
-1.94
-4.59
-6.92
-9.16
-11.73
-15.09
-19.49
-24.77
-30.23
-34.63
-36.55
-34.75
-28.67
-18.67
-6.04
7.39
19.77
29.78
36.96
41.70
44.95
47.70
50.66
53.94
57.12
59.43
59.97
58.08
53.48
46.36
37.39
27.54
17.86
9.18
2.00
-3.66
-8.14
-11.86
-15.29
-18.68
-22.17
-25.81
-29.61
-33.55
-37.57
-41.62
-45.68
-49.80
-54.05
-58.33
-62.15
-64.54
-64.27
-60.30
-52.24
-40.67
-27.06
-13.25
-0.90
8.95
16.05
20.67
23.27
24.23
23.78
22.14
19.61
16.70
13.98
11.98
10.99
10.96
11.60
12.42
13.02
13.18
12.87
12.22
11.33
10.13
8.38
5.83
2.45
-1.46
-5.31
-8.46
-10.58
-11.81
-12.72
-14.14
-16.80
-21.10
-27.01
-34.06
-41.40
-47.91
-52.36
-53.68
-51.24
-45.09
-36.00
-25.27
-14.33
-4.38
3.86
10.13
14.48
17.10
18.18
17.93
16.62
14.67
12.57
10.80
9.73
9.60
10.45
12.17
14.48
17.03
19.36
21.12
22.07
22.17
21.55
20.36
18.75
16.73
14.29
11.46
8.37
5.27
2.34
-0.34
-2.84
-5.23
-7.54
-9.54
-10.78
-10.71
-8.83
-4.96
0.74
7.66
14.95
21.65
27.02
30.62
32.39
32.59
31.59
29.74
27.25
24.22
20.75
17.00
13.26
9.94
7.49
6.20
6.16
7.16
8.76
10.38
11.43
11.44
10.09
7.25
2.81
-3.14
-10.37
-18.38
-26.47
-33.91
-40.18
-45.11
-48.80
-51.38
-52.71
-52.29
-49.48
-43.85
-35.63
-25.71
-15.45
-6.15
1.30
6.60
9.82
11.18
10.77
8.60
4.82
-0.06
-5.10
-9.12
-11.08
-10.44
-7.41
-2.87
1.92
5.73
7.75
7.81
6.30
3.94
1.40
-0.93
-3.04
-5.26
-8.02
-11.67
-16.42
-22.16
-28.47
-34.46
-38.77
-39.80
-36.23
-27.67
-15.02
-0.48
13.18
23.53
29.32
30.71
28.99
25.75
22.18
18.77
15.40
11.75
7.72
3.57
-0.26
-3.30
-5.30
-6.27
-6.40
-5.88
-4.88
-3.41
-1.49
0.81
3.23
5.39
6.85
7.29
6.62
4.89
2.29
-1.02
-5.02
-9.79
-15.42
-21.83
-28.66
-35.22
-40.58
-43.81
-44.22
-41.57
-36.21
-29.10
-21.55
-14.89
-10.18
-7.87
-7.77
-9.15
-11.06
-12.65
-13.46
-13.44
-12.87
-12.05
-11.15
-10.03
-8.33
-5.68
-1.88
2.93
8.29
13.55
18.08
21.42
23.38
24.03
23.56
22.15
19.81
16.40
11.68
5.54
-1.78
-9.51
-16.36
-20.85
-21.67
-18.21
-10.74
-0.34
11.51
23.33
34.08
43.26
50.75
56.61
60.84
63.33
63.95
62.69
59.74
55.52
50.54
45.36
40.44
36.10
32.41
29.27
26.47
23.81
21.16
18.51
15.89
13.30
10.62
7.68
4.35
0.59
-3.50
-7.85
-12.45
-17.39
-22.80
-28.73
-35.09
-41.72
-48.48
-55.26
-61.87
-67.81
-72.14
-73.65
-71.25
-64.39
-53.44
-39.65
-24.69
-10.19
2.72
13.54
22.22
28.89
33.68
36.66
37.98
37.97
37.14
36.08
35.33
35.17
35.61
36.49
37.49
38.35
38.91
39.12
38.99
38.57
37.94
37.11
36.03
34.55
32.53
29.83
26.48
22.68
18.81
15.24
12.22
9.73
7.46
4.90
1.65
-2.44
-7.09
-11.72
-15.63
-18.27
-19.52
-19.69
-19.52
-19.90
-21.69
-25.44
-31.22
-38.42
-45.69
-51.15
-52.69
-48.67
-38.52
-22.98
-3.96
15.99
34.40
49.42
59.96
65.68
66.67
63.35
56.44
46.98
36.28
25.72
16.43
9.12
3.94
0.68
-1.07
-1.72
-1.58
-0.83
0.40
1.97
3.60
4.96
5.66
5.41
4.19
2.24
0.04
-1.94
-3.42
-4.46
-5.31
-6.34
-7.76
-9.53
-11.49
-13.45
-15.32
-17.15
-19.06
-21.16
-23.57
-26.36
-29.64
-33.39
-37.34
-40.80
-42.78
-42.20
-38.35
-31.20
-21.52
-10.59
0.16
9.58
17.03
22.35
25.71
27.42
27.77
27.06
25.62
23.78
21.91
20.27
19.05
18.25
17.79
17.54
17.40
17.31
17.29
17.39
17.61
17.82
17.81
17.35
16.29
14.64
12.55
10.23
7.82
5.35
2.75
-0.00
-2.84
-5.55
-7.90
-9.74
-11.11
-12.34
-13.90
-16.31
-19.98
-24.97
-30.88
-36.75
-41.24
-42.95
-40.96
-35.13
-26.23
-15.64
-4.87
4.85
12.86
18.99
23.33
25.99
27.03
26.51
24.65
21.85
18.73
15.89
13.81
12.64
12.30
12.48
12.80
13.01
13.00
12.84
12.67
12.55
12.44
12.08
11.17
9.45
6.83
3.46
-0.35
-4.20
-7.75
-10.83
-13.41
-15.65
-17.77
-20.08
-22.86
-26.33
-30.59
-35.40
-40.19
-43.96
-45.62
-44.27
-39.56
-31.90
-22.39
-12.45
-3.35
4.08
9.64
13.54
16.12
17.64
18.18
17.74
16.45
14.62
12.75
11.28
10.50
10.36
10.62
10.93
11.06
10.98
10.83
10.75
10.81
10.81
10.43
9.34
7.32
4.40
0.85
-2.97
-6.70
-10.08
-12.99
-15.40
-17.43
-19.26
-21.25
-23.77
-27.17
-31.53
-36.49
-41.16
-44.37
-44.97
-42.23
-36.20
-27.60
-17.69
-7.83
0.88
7.79
12.76
16.00
17.91
18.95
19.70
20.76
22.72
26.00
30.58
35.85
40.74
44.02
44.76
42.71
38.37
32.81
27.11
22.02
17.71
13.89
10.06
5.87
1.21
-3.77
-8.74
-13.45
-17.71
-21.53
-25.03
-28.44
-32.03
-36.06
-40.71
-45.87
-51.10
-55.50
-57.96
-57.46
-53.45
-46.14
-36.39
-25.52
-14.91
-5.64
1.69
6.89
10.11
11.73
12.21
12.01
11.57
11.20
11.05
11.13
11.33
11.50
11.48
11.19
10.67
10.06
9.55
9.27
9.19
9.10
8.69
7.64
5.77
3.11
-0.08
-3.45
-6.57
-9.13
-10.94
-12.04
-12.70
-13.32
-14.30
-15.80
-17.61
-19.15
-19.66
-18.40
-14.90
-9.10
-1.33
7.77
17.39
26.63
34.71
40.95
44.92
46.50
45.87
43.49
39.99
36.02
32.20
28.94
26.46
24.75
23.58
22.69
21.79
20.76
19.68
18.71
18.02
17.65
17.36
16.81
15.60
13.48
10.44
6.73
2.71
-1.32
-5.16
-8.84
-12.51
-16.39
-20.70
-25.57
-30.96
-36.53
-41.61
-45.28
-46.61
-44.92
-40.14
-32.85
-24.16
-15.33
-7.46
-1.21
3.20
5.83
6.92
6.67
5.31
3.10
0.44
-2.13
-4.01
-4.75
-4.19
-2.53
-0.24
2.16
4.24
5.78
6.71
6.95
6.40
4.97
2.73
0.00
-2.65
-4.65
-5.62
-5.56
-4.88
-4.27
-4.54
-6.38
-10.11
-15.45
-21.47
-26.70
-29.52
-28.77
-24.12
-16.36
-7.03
2.09
9.63
15.00
18.28
20.00
20.72
20.77
20.25
19.15
17.50
15.49
13.45
11.77
10.81
10.83
11.91
13.95
16.61
19.33
21.43
22.31
21.64
19.44
16.10
12.14
8.04
4.05
0.18
-3.78
-8.09
-13.04
-18.85
-25.53
-32.73
-39.65
-45.07
-47.66
-46.50
-41.47
-33.41
-23.89
-14.61
-6.93
-1.50
1.70
3.09
3.15
2.27
0.72
-1.21
-3.19
-4.82
-5.82
-6.08
-5.68
-4.81
-3.69
-2.44
-1.15
0.11
1.21
1.93
2.04
1.42
0.12
-1.53
-3.09
-4.13
-4.37
-3.80
-2.66
-1.46
-0.83
-1.38
-3.47
-7.02
-11.51
-16.05
-19.79
-22.19
-23.26
-23.44
-23.31
-23.26
-23.35
-23.42
-23.35
-23.22
-23.28
-23.80
-24.74
-25.72
-26.20
-25.75
-24.26
-22.08
-19.76
-17.86
-16.67
-16.19
-16.22
-16.49
-16.87
-17.45
-18.50
-20.41
-23.56
-28.15
-34.07
-40.73
-47.12
-51.84
-53.53
-51.25
-44.83
-34.96
-23.04
-10.71
0.64
10.17
17.63
23.14
26.93
29.12
29.74
28.84
26.69
23.82
20.89
18.55
17.12
16.59
16.58
16.58
16.21
15.27
13.85
12.13
10.26
8.23
5.86
2.88
-0.99
-5.93
-11.99
-19.04
-26.74
-34.43
-41.11
-45.56
-46.66
-43.69
-36.70
-26.55
-14.72
-2.84
7.73
16.19
22.27
26.14
28.08
28.45
27.60
25.98
24.10
22.47
21.45
21.13
21.34
21.81
22.20
22.27
21.87
20.89
19.26
16.96
14.05
10.71
7.22
3.83
0.71
-2.13
-4.86
-7.80
-11.41
-16.08
-21.91
-28.54
-35.02
-39.93
-41.73
-39.36
-32.56
-22.06
-9.39
3.59
15.27
24.55
31.03
34.83
36.31
35.99
34.40
32.13
29.80
27.95
26.96
26.94
27.79
29.24
31.08
33.14
35.34
37.55
39.57
41.02
41.44
40.44
37.85
33.76
28.48
22.47
16.18
9.97
4.00
-1.82
-7.85
-14.61
-22.55
-31.72
-41.47
-50.41
-56.69
-58.53
-54.97
-46.21
-33.61
-19.25
-5.21
6.91
16.25
22.68
26.44
27.93
27.54
25.64
22.62
18.96
15.20
11.91
9.55
8.40
8.47
9.49
10.98
12.39
13.22
13.16
12.16
10.29
7.78
4.91
1.97
-0.75
-3.09
-5.08
-7.02
-9.48
-13.12
-18.28
-24.79
-31.71
-37.56
-40.70
-39.95
-34.94
-26.26
-15.21
-3.36
7.92
17.64
25.33
30.83
34.22
35.67
35.45
33.95
31.66
29.17
27.00
25.52
24.89
24.98
25.49
26.07
26.42
26.40
25.99
25.30
24.40
23.27
21.75
19.62
16.66
12.81
8.24
3.30
-1.56
-6.01
-9.96
-13.64
-17.55
-22.28
-28.23
-35.43
-43.38
-51.03
-56.97
-59.72
-58.18
-52.04
-41.86
-29.02
-15.29
-2.30
8.76
17.37
23.45
27.23
28.99
29.08
27.93
26.11
24.26
22.95
22.48
22.85
23.86
25.24
26.78
28.32
29.70
30.74
31.17
30.81
29.57
27.60
25.15
22.54
19.94
17.32
14.54
11.37
7.70
3.52
-0.97
-5.51
-9.87
-13.96
-17.85
-21.78
-26.12
-31.24
-37.40
-44.64
-52.59
-60.40
-66.78
-70.21
-69.35
-63.54
-53.05
-39.16
-23.76
-8.87
4.00
14.07
21.36
26.35
29.59
31.45
32.11
31.68
30.43
28.83
27.47
26.80
27.00
27.86
29.04
30.12
30.90
31.36
31.58
31.55
31.10
30.03
28.29
26.07
23.86
22.18
21.29
20.99
20.65
19.51
17.05
13.27
8.68
4.07
0.10
-2.92
-5.19
-7.27
-9.89
-13.77
-19.38
-26.68
-34.97
-42.81
-48.22
-49.27
-44.68
-34.41
-19.84
-3.35
12.35
25.05
33.55
37.76
38.41
36.53
33.09
28.81
24.20
19.78
16.03
13.47
12.43
12.96
14.77
17.40
20.33
23.15
25.60
27.50
28.68
28.92
27.97
25.67
22.06
17.39
12.16
6.89
2.00
-2.34
-6.16
-9.69
-13.11
-16.54
-19.93
-23.15
-26.00
-28.32
-30.01
-31.11
-31.88
-32.82
-34.59
-37.78
-42.48
-48.02
-53.00
-55.58
-54.19
-48.11
-37.76
-24.51
-10.25
3.28
14.91
24.11
30.88
35.42
37.94
38.63
37.73
35.65
33.01
30.51
28.77
28.14
28.62
29.84
31.27
32.38
32.85
32.62
31.85
30.76
29.47
27.92
25.89
23.21
19.76
15.65
11.11
6.45
1.93
-2.28
-6.09
-9.51
-12.68
-15.81
-19.24
-23.37
-28.56
-34.88
-41.92
-48.70
-53.81
-55.76
-53.53
-46.93
-36.83
-24.85
-12.86
-2.45
5.48
10.71
13.52
14.39
13.73
11.91
9.26
6.21
3.24
0.82
-0.75
-1.36
-1.18
-0.46
0.53
1.62
2.72
3.73
4.45
4.55
3.65
1.49
-1.92
-6.34
-11.38
-16.68
-22.04
-27.43
-32.93
-38.63
-44.62
-50.81
-56.92
-62.37
-66.24
-67.46
-65.11
-58.78
-48.86
-36.47
-23.22
-10.69
-0.13
7.80
13.02
15.83
16.74
16.29
14.98
13.17
11.15
9.20
7.58
6.62
6.58
7.58
9.48
11.82
13.99
15.36
15.53
14.44
12.32
9.54
6.44
3.19
-0.22
-3.90
-8.03
-12.74
-18.20
-24.52
-31.67
-39.28
-46.48
-51.97
-54.30
-52.37
-45.92
-35.68
-23.17
-10.18
1.69
11.48
18.83
23.81
26.65
27.63
27.01
25.12
22.42
19.43
16.72
14.70
13.59
13.34
13.62
13.98
13.92
13.10
11.38
8.85
5.69
2.07
-1.88
-6.09
-10.48
-14.97
-19.47
-24.02
-28.75
-33.79
-39.14
-44.37
-48.59
-50.63
-49.42
-44.41
-35.91
-24.97
-13.12
-1.90
7.54
14.63
19.30
21.79
22.52
21.95
20.57
18.91
17.45
16.57
16.44
17.00
18.02
19.20
20.27
21.07
21.51
21.50
20.91
19.55
17.27
14.02
9.89
5.05
-0.27
-5.91
-11.80
-17.94
-24.32
-30.93
-37.74
-44.66
-51.49
-57.72
-62.44
-64.42
-62.47
-55.97
-45.28
-31.68
-17.02
-3.08
8.99
18.82
26.54
32.44
36.68
39.17
39.92
39.21
37.68
36.19
35.39
35.56
36.50
37.70
38.58
38.79
38.28
37.26
36.03
34.79
33.52
32.00
29.88
26.87
22.89
18.11
12.92
7.78
3.07
-1.01
-4.49
-7.61
-10.74
-14.34
-18.85
-24.54
-31.34
-38.63
-45.27
-49.79
-50.81
-47.50
-39.87
-28.80
-15.77
-2.36
10.03
20.53
28.73
34.62
38.44
40.49
41.09
40.52
39.15
37.42
35.89
35.11
35.44
36.90
39.09
41.29
42.82
43.19
42.30
40.40
37.88
35.11
32.26
29.31
26.07
22.33
17.97
13.06
7.89
2.87
-1.67
-5.57
-9.02
-12.37
-16.08
-20.52
-25.86
-32.08
-38.90
-45.72
-51.61
-55.37
-55.86
-52.35
-44.91
-34.42
-22.39
-10.41
0.26
8.92
15.40
19.85
22.51
23.64
23.53
22.65
21.55
20.85
20.99
22.17
24.23
26.75
29.21
31.21
32.57
33.38
33.87
34.24
34.45
34.19
33.00
30.44
26.45
21.39
15.97
10.97
6.95
3.96
1.54
-1.11
-4.89
-10.43
-17.83
-26.59
-35.60
-43.35
-48.26
-49.18
-45.66
-38.19
-28.02
-16.82
-6.14
2.96
10.06
15.24
18.81
21.07
22.20
22.35
21.81
21.05
20.61
20.93
22.15
24.00
25.96
27.50
28.30
28.34
27.88
27.20
26.49
25.73
24.70
23.19
21.00
18.18
14.94
11.62
8.50
5.67
2.92
-0.22
-4.23
-9.46
-15.92
-23.22
-30.77
-37.97
-44.44
-50.13
-55.29
-60.37
-65.83
-71.93
-78.45
-84.58
-88.96
-90.05
-86.61
-78.20
-65.43
-49.82
-33.29
-17.62
-4.02
6.99
15.45
21.72
26.20
29.29
31.36
32.79
33.90
34.98
36.17
37.53
39.03
40.66
42.39
44.23
46.12
47.94
49.47
50.49
50.80
50.31
49.06
47.21
44.98
42.54
40.06
37.61
35.23
32.87
30.46
27.93
25.26
22.50
19.77
17.22
14.94
12.84
10.65
8.01
4.61
0.34
-4.63
-9.96
-15.28
-20.39
-25.37
-30.51
-36.20
-42.77
-50.22
-58.11
-65.45
-70.84
-72.75
-70.02
-62.29
-50.24
-35.46
-19.99
-5.72
6.08
14.95
21.07
24.94
27.08
27.86
27.60
26.68
25.55
24.71
24.49
24.91
25.74
26.55
27.03
27.03
26.64
26.03
25.33
24.46
23.21
21.32
18.67
15.35
11.65
7.93
4.47
1.25
-1.97
-5.61
-9.97
-15.02
-20.37
-25.43
-29.69
-32.97
-35.56
-37.98
-40.82
-44.45
-48.93
-53.99
-59.07
-63.36
-65.86
-65.55
-61.70
-54.17
-43.54
-31.07
-18.30
-6.67
2.83
9.73
14.02
15.95
15.88
14.27
11.56
8.34
5.14
2.43
0.52
-0.57
-0.95
-0.91
-0.70
-0.44
-0.08
0.47
1.28
2.19
2.81
2.69
1.49
-0.78
-3.78
-6.94
-9.74
-11.95
-13.66
-15.32
-17.43
-20.49
-24.70
-30.03
-36.04
-41.94
-46.63
-48.88
-47.64
-42.39
-33.32
-21.39
-8.10
4.95
16.42
25.58
32.30
36.88
39.80
41.44
41.99
41.57
40.34
38.72
37.29
36.68
37.27
39.08
41.78
44.83
47.63
49.65
50.32
49.05
45.36
39.04
30.47
20.52
10.41
1.19
-6.63
-13.18
-19.11
-25.24
-32.27
-40.42
-49.38
-58.30
-65.81
-70.40
-70.75
-66.21
-57.10
-44.65
-30.70
-17.11
-5.35
3.80
10.21
14.21
16.38
17.33
17.59
17.58
17.53
17.52
17.53
17.52
17.47
17.42
17.43
17.58
17.85
18.08
17.99
17.21
15.42
12.52
8.69
4.38
0.15
-3.54
-6.52
-8.99
-11.41
-14.40
-18.54
-24.15
-31.04
-38.36
-44.71
-48.44
-48.14
-43.22
-34.08
-22.03
-8.91
3.55
14.03
21.82
26.78
29.10
29.24
27.83
25.64
23.47
22.00
21.64
22.44
24.08
26.03
27.72
28.75
28.97
28.51
27.69
26.83
26.05
25.22
23.96
21.86
18.65
14.40
9.53
4.67
0.47
-2.68
-4.77
-6.19
-7.56
-9.60
-12.84
-17.39
-22.77
-27.82
-30.96
-30.61
-25.76
-16.38
-3.57
10.84
24.82
36.78
45.87
51.97
55.38
56.50
55.66
53.15
49.34
44.74
39.94
35.48
31.70
28.74
26.61
25.31
24.81
25.09
25.99
27.15
28.11
28.42
27.81
26.15
23.49
19.87
15.33
9.95
3.98
-2.05
-7.49
-11.74
-14.58
-16.27
-17.57
-19.47
-22.79
-27.91
-34.50
-41.57
-47.64
-51.16
-50.88
-46.34
-37.98
-27.10
-15.50
-4.92
3.36
8.83
11.58
12.13
11.11
9.06
6.43
3.59
0.95
-1.11
-2.26
-2.25
-1.04
1.25
4.30
7.72
11.07
13.94
15.97
16.91
16.51
14.62
11.15
6.18
0.02
-6.84
-13.79
-20.32
-26.27
-31.81
-37.49
-43.87
-51.18
-58.98
-66.11
-70.94
-71.95
-68.26
-60.06
-48.56
-35.60
-23.01
-12.10
-3.36
3.37
8.54
12.53
15.44
17.16
17.67
17.20
16.34
15.83
16.29
17.95
20.50
23.25
25.43
26.47
26.21
24.83
22.60
19.68
16.10
11.78
6.77
1.27
-4.40
-10.06
-15.79
-21.92
-28.81
-36.60
-45.05
-53.71
-62.14
-70.18
-77.85
-85.04
-91.16
-95.00
-95.03
-90.06
-79.79
-65.18
-48.10
-30.76
-15.02
-1.91
8.36
16.11
21.81
25.87
28.56
30.18
31.10
31.82
32.87
34.62
37.21
40.50
44.11
47.56
50.36
52.17
52.86
52.52
51.43
49.85
47.93
45.68
42.99
39.72
35.84
31.48
26.89
22.41
18.27
14.60
11.30
8.13
4.73
0.75
-3.98
-9.40
-15.22
-20.97
-26.22
-30.72
-34.51
-37.93
-41.50
-45.83
-51.34
-58.22
-66.11
-74.03
-80.44
-83.52
-81.71
-74.32
-61.83
-45.86
-28.67
-12.47
1.20
11.68
19.11
24.03
27.05
28.66
29.26
29.24
29.07
29.22
29.96
31.29
32.88
34.28
35.12
35.36
35.29
35.42
36.16
37.57
39.25
40.49
40.56
39.03
35.95
31.78
27.13
22.49
18.01
13.56
8.88
3.83
-1.49
-6.76
-11.66
-16.06
-20.12
-24.32
-29.20
-35.20
-42.45
-50.67
-59.12
-66.67
-71.95
-73.63
-70.80
-63.24
-51.65
-37.44
-22.37
-8.10
4.20
13.99
21.21
26.10
28.99
30.20
30.04
28.94
27.43
26.11
25.52
26.02
27.68
30.29
33.45
36.73
39.76
42.31
44.22
45.34
45.44
44.24
41.46
36.98
31.00
24.06
16.87
10.19
4.45
-0.30
-4.45
-8.71
-13.89
-20.58
-28.91
-38.33
-47.64
-55.14
-59.12
-58.33
-52.52
-42.46
-29.78
-16.48
-4.35
5.41
12.23
16.07
17.15
15.91
12.93
8.98
4.90
1.51
-0.68
-1.58
-1.48
-0.82
0.06
1.09
2.45
4.31
6.63
8.97
10.55
10.52
8.26
3.66
-2.65
-9.44
-15.02
-17.79
-16.86
-12.53
-6.48
-1.30
0.31
-3.42
-12.60
-25.46
-38.92
-49.53
-54.50
-52.55
-44.08
-30.83
-15.26
0.21
13.78
24.45
32.00
36.68
38.96
39.32
38.22
36.19
33.85
31.79
30.47
29.99
30.14
30.41
30.30
29.51
28.12
26.50
25.08
24.12
23.53
22.83
21.40
18.72
14.60
9.22
3.10
-3.15
-8.99
-14.12
-18.52
-22.43
-26.20
-30.27
-35.02
-40.71
-47.37
-54.60
-61.50
-66.68
-68.57
-65.89
-58.23
-46.26
-31.59
-16.27
-2.11
9.75
18.91
25.48
29.73
31.84
32.00
30.48
27.84
24.82
22.23
20.61
20.17
20.77
22.06
23.60
25.04
26.11
26.65
26.57
25.89
24.66
22.91
20.67
17.87
14.45
10.34
5.63
0.53
-4.62
-9.46
-13.75
-17.46
-20.72
-23.86
-27.22
-31.19
-36.07
-42.03
-48.91
-56.03
-62.15
-65.69
-65.19
-59.82
-49.81
-36.37
-21.35
-6.68
6.22
16.54
24.08
28.99
31.56
32.13
31.10
29.00
26.50
24.27
22.87
22.63
23.55
25.34
27.46
29.37
30.63
31.05
30.74
29.93
28.86
27.62
26.09
23.96
20.97
16.99
12.15
6.78
1.35
-3.74
-8.20
-11.94
-15.07
-17.88
-20.76
-24.19
-28.64
-34.33
-41.06
-48.02
-53.85
-56.87
-55.66
-49.53
-38.84
-24.92
-9.67
4.95
17.46
27.02
33.45
36.96
37.95
36.91
34.37
30.95
27.38
24.31
22.25
21.35
21.47
22.13
22.82
23.13
22.95
22.42
21.79
21.21
20.57
19.46
17.41
14.09
9.48
3.96
-1.90
-7.50
-12.45
-16.68
-20.43
-24.11
-28.18
-33.04
-38.79
-45.07
-51.04
-55.35
-56.55
-53.46
-45.71
-33.92
-19.60
-4.68
9.07
20.45
29.01
34.80
38.12
39.24
38.46
36.24
33.24
30.36
28.38
27.78
28.49
29.96
31.39
32.17
32.07
31.32
30.41
29.68
29.11
28.26
26.46
23.19
18.27
12.01
5.05
-1.91
-8.36
-14.17
-19.48
-24.71
-30.30
-36.69
-43.96
-51.73
-58.99
-64.18
-65.64
-62.17
-53.50
-40.54
-25.09
-9.30
4.93
16.41
24.68
29.85
32.31
32.49
30.87
27.97
24.42
20.92
18.09
16.32
15.65
15.80
16.29
16.66
16.61
16.17
15.49
14.71
13.76
12.24
9.58
5.37
-0.40
-7.29
-14.53
-21.31
-27.15
-32.02
-36.30
-40.63
-45.70
-51.95
-59.41
-67.44
-74.66
-79.23
-79.24
-73.52
-62.07
-46.23
-28.28
-10.64
4.83
17.24
26.55
33.20
37.65
40.17
40.91
40.10
38.27
36.18
34.57
33.88
33.96
34.13
33.49
31.40
27.77
23.16
18.45
14.41
11.30
8.83
6.35
3.29
-0.55
-4.88
-9.12
-12.70
-15.34
-17.10
-18.31
-19.36
-20.65
-22.55
-25.45
-29.82
-35.99
-43.82
-52.35
-59.83
-64.04
-63.07
-56.06
-43.57
-27.44
-10.08
6.29
20.21
31.10
39.02
44.25
47.12
47.95
47.17
45.45
43.56
42.26
42.04
43.01
44.87
47.05
48.98
50.25
50.84
51.11
51.60
52.79
54.74
57.06
58.92
59.46
58.07
54.75
50.05
44.86
40.11
36.42
34.04
32.80
32.21
31.55
30.10
27.41
23.58
19.41
16.32
15.84
19.02
25.99
35.80
46.82
57.28
65.91
72.20
76.41
79.22
81.38
83.39
85.31
86.69
86.77
84.57
79.34
70.73
59.06
45.17
30.27
15.56
1.96
-9.98
-20.17
-28.79
-36.28
-43.20
-50.10
-57.47
-65.49
-74.07
-82.86
-91.43
-99.52
-107.17
-114.70
-122.42
-130.33
-137.86
-143.78
-146.49
-144.47
-136.87
-123.86
-106.67
-87.18
-67.45
-49.20
-33.57
-21.18
-12.38
-7.33
-5.98
-7.89
-12.13
-17.33
-22.07
-25.31
-26.64
-26.29
-24.86
-22.94
-20.91
-18.90
-17.01
-15.44
-14.59
-14.92
-16.69
-19.85
-23.94
-28.34
-32.52
-36.23
-39.59
-42.98
-46.91
-51.75
-57.65
-64.31
-70.94
-76.25
-78.67
-76.79
-69.83
-57.98
-42.45
-25.17
-8.23
6.67
18.54
27.11
32.61
35.53
36.44
35.93
34.61
33.15
32.14
31.96
32.69
34.03
35.51
36.61
37.00
36.63
35.68
34.38
32.81
30.82
28.09
24.34
19.48
13.82
7.90
2.28
-2.62
-6.79
-10.55
-14.54
-19.40
-25.61
-33.13
-41.22
-48.44
-52.86
-52.64
-46.56
-34.65
-18.23
0.41
18.68
34.41
46.32
54.11
58.15
59.12
57.66
54.34
49.73
44.55
39.69
36.01
34.09
33.98
35.18
36.85
38.23
38.91
38.93
38.61
38.26
37.91
37.25
35.77
33.06
28.96
23.67
17.59
11.28
5.29
0.03
-4.34
-8.00
-11.56
-15.88
-21.89
-30.13
-40.43
-51.72
-62.20
-69.79
-72.79
-70.38
-63.00
-52.14
-39.96
-28.62
-19.67
-13.78
-10.67
-9.52
-9.36
-9.49
-9.60
-9.67
-9.75
-9.73
-9.29
-8.02
-5.65
-2.23
1.87
6.01
9.58
12.17
13.67
14.24
14.19
13.75
13.07
12.08
10.62
8.55
5.82
2.56
-1.02
-4.68
-8.24
-11.67
-15.02
-18.44
-22.10
-26.22
-31.03
-36.75
-43.44
-50.76
-57.82
-63.19
-65.25
-62.66
-54.91
-42.55
-27.15
-10.77
4.57
17.44
27.17
33.71
37.45
38.85
38.44
36.75
34.43
32.11
30.36
29.48
29.44
29.95
30.58
30.95
30.85
30.36
29.56
28.58
27.33
25.61
23.11
19.61
15.10
9.81
4.20
-1.21
-6.04
-10.16
-13.80
-17.49
-21.83
-27.30
-33.98
-41.34
-48.25
-53.15
-54.43
-50.97
-42.54
-29.93
-14.75
0.99
15.46
27.35
36.03
41.48
43.98
43.98
41.99
38.58
34.45
30.36
27.02
24.85
23.95
24.05
24.64
25.25
25.61
25.66
25.48
25.08
24.23
22.55
19.61
15.22
9.57
3.21
-3.19
-9.01
-14.03
-18.38
-22.58
-27.25
-33.00
-40.09
-48.21
-56.38
-62.98
-66.13
-64.24
-56.60
-43.74
-27.30
-9.56
7.22
21.43
32.31
39.82
44.34
46.31
46.12
44.18
41.02
37.38
34.04
31.64
30.42
30.19
30.47
30.71
30.55
29.88
28.87
27.71
26.53
25.31
23.82
21.77
18.85
14.85
9.74
3.80
-2.47
-8.43
-13.58
-17.76
-21.23
-24.62
-28.67
-33.99
-40.75
-48.52
-56.26
-62.41
-65.24
-63.32
-55.98
-43.63
-27.72
-10.39
6.13
20.13
30.70
37.75
41.72
43.21
42.79
40.88
37.93
34.49
31.24
28.83
27.71
27.91
28.98
30.23
31.02
30.98
30.21
29.02
27.76
26.50
25.07
23.06
20.14
16.17
11.35
6.04
0.67
-4.41
-9.02
-13.13
-16.86
-20.50
-24.38
-28.92
-34.47
-41.10
-48.37
-55.25
-60.17
-61.46
-57.85
-49.03
-35.74
-19.74
-3.18
11.95
24.29
33.30
39.11
42.20
43.10
42.31
40.26
37.42
34.35
31.60
29.64
28.72
28.77
29.49
30.46
31.31
31.82
31.90
31.50
30.57
29.03
26.81
23.94
20.54
16.85
13.12
9.46
5.86
2.16
-1.85
-6.28
-11.05
-15.92
-20.53
-24.58
-27.95
-30.81
-33.57
-36.83
-41.13
-46.68
-53.22
-59.88
-65.21
-67.49
-65.25
-57.75
-45.34
-29.42
-12.10
4.45
18.53
29.17
36.14
39.66
40.21
38.34
34.67
29.98
25.17
21.05
18.23
16.89
16.77
17.40
18.23
18.91
19.34
19.56
19.66
19.57
19.04
17.71
15.28
11.65
7.01
1.80
-3.41
-8.14
-12.07
-15.25
-18.01
-20.91
-24.59
-29.49
-35.63
-42.44
-48.73
-52.92
-53.53
-49.58
-41.02
-28.74
-14.34
0.33
13.56
24.15
31.49
35.49
36.46
34.95
31.70
27.51
23.20
19.45
16.69
15.01
14.23
13.98
13.89
13.74
13.51
13.28
13.09
12.87
12.30
10.94
8.42
4.54
-0.52
-6.27
-12.08
-17.38
-21.89
-25.70
-29.23
-33.09
-37.81
-43.64
-50.26
-56.69
-61.42
-62.76
-59.43
-51.02
-38.29
-22.95
-7.16
7.15
18.67
26.95
32.08
34.47
34.57
32.83
29.74
25.91
21.96
18.48
15.81
14.06
13.12
12.80
12.86
13.14
13.51
13.84
13.97
13.62
12.47
10.23
6.80
2.32
-2.82
-8.07
-12.97
-17.25
-21.02
-24.71
-28.89
-34.11
-40.51
-47.65
-54.41
-59.16
-60.21
-56.39
-47.52
-34.55
-19.30
-3.89
9.84
20.76
28.48
33.18
35.26
35.21
33.47
30.57
27.09
23.68
20.90
19.07
18.21
18.09
18.32
18.55
18.61
18.46
18.17
17.66
16.72
14.95
11.94
7.50
1.76
-4.80
-11.55
-17.89
-23.44
-28.11
-32.09
-35.80
-39.73
-44.27
-49.47
-54.76
-58.97
-60.50
-57.89
-50.43
-38.49
-23.57
-7.81
6.66
18.28
26.38
31.03
32.80
32.39
30.42
27.45
24.01
20.68
17.92
16.09
15.24
15.14
15.38
15.60
15.56
15.21
14.61
13.79
12.64
10.93
8.43
5.04
0.87
-3.74
-8.38
-12.69
-16.58
-20.24
-24.18
-29.01
-35.15
-42.49
-50.22
-56.88
-60.71
-60.26
-54.91
-45.14
-32.43
-18.75
-5.98
4.58
12.38
17.47
20.18
20.95
20.16
18.24
15.68
13.06
10.91
9.59
9.17
9.50
10.28
11.26
12.21
12.99
13.42
13.28
12.35
10.47
7.65
4.05
-0.02
-4.26
-8.50
-12.73
-17.08
-21.82
-27.20
-33.36
-40.15
-46.94
-52.60
-55.75
-55.13
-50.04
-40.72
-28.25
-14.30
-0.60
11.44
21.03
27.87
32.08
34.00
34.10
32.89
30.93
28.73
26.65
24.94
23.71
23.02
22.86
23.18
23.85
24.62
25.19
25.22
24.45
22.72
19.97
16.27
11.80
6.83
1.65
-3.45
-8.28
-12.79
-17.14
-21.70
-26.95
-33.27
-40.56
-48.03
-54.23
-57.39
-56.04
-49.62
-38.76
-25.08
-10.66
2.67
13.82
22.48
28.89
33.44
36.40
37.91
38.05
37.06
35.43
33.70
32.39
31.72
31.59
31.71
31.76
31.58
31.17
30.68
30.20
29.63
28.71
27.03
24.27
20.31
15.34
9.84
4.38
-0.55
-4.72
-8.19
-11.29
-14.47
-18.22
-22.94
-28.85
-35.86
-43.37
-50.22
-54.84
-55.67
-51.66
-42.81
-30.21
-15.77
-1.54
10.84
20.55
27.52
32.19
35.10
36.71
37.30
37.11
36.40
35.50
34.80
34.61
35.11
36.26
37.81
39.42
40.69
41.34
41.20
40.28
38.68
36.50
33.82
30.64
26.94
22.74
18.15
13.32
8.46
3.75
-0.66
-4.73
-8.41
-11.78
-14.95
-18.14
-21.65
-25.83
-31.00
-37.27
-44.32
-51.24
-56.60
-58.82
-56.64
-49.69
-38.67
-25.17
-11.19
1.52
11.93
19.71
25.09
28.45
30.13
30.35
29.43
27.83
26.16
25.00
24.69
25.22
26.22
27.19
27.72
27.67
27.13
26.33
25.46
24.50
23.22
21.30
18.51
14.77
10.29
5.45
0.70
-3.59
-7.28
-10.41
-13.28
-16.26
-19.80
-24.20
-29.53
-35.38
-40.85
-44.60
-45.22
-41.72
-34.02
-23.04
-10.52
1.62
11.90
19.61
24.83
28.06
29.76
30.16
29.32
27.40
24.84
22.38
20.73
20.32
21.07
22.49
23.86
24.64
24.58
23.78
22.52
21.13
19.79
18.48
17.02
15.10
12.40
8.73
4.14
-1.05
-6.29
-11.00
-14.76
-17.56
-19.74
-21.99
-25.04
-29.44
-35.34
-42.34
-49.44
-55.20
-58.07
-56.82
-50.99
-41.11
-28.55
-15.14
-2.64
7.80
15.72
21.26
24.82
26.81
27.46
26.89
25.34
23.21
21.09
19.64
19.29
20.13
21.83
23.78
25.34
26.10
25.97
25.16
24.00
22.72
21.35
19.67
17.42
14.38
10.54
6.08
1.36
-3.26
-7.49
-11.18
-14.38
-17.22
-19.95
-22.82
-26.13
-30.14
-34.99
-40.48
-45.90
-50.05
-51.52
-49.12
-42.44
-32.10
-19.59
-6.80
4.62
13.70
20.20
24.45
26.90
27.93
27.76
26.60
24.80
22.84
21.25
20.41
20.45
21.22
22.41
23.69
24.79
25.53
25.82
25.58
24.79
23.45
21.62
19.42
16.98
14.35
11.49
8.29
4.67
0.68
-3.50
-7.61
-11.38
-14.65
-17.40
-19.76
-21.97
-24.39
-27.44
-31.50
-36.72
-42.78
-48.75
-53.18
-54.45
-51.39
-43.75
-32.36
-18.97
-5.64
5.93
14.79
20.84
24.49
26.31
26.69
25.85
23.94
21.33
18.60
16.42
15.28
15.25
15.99
16.89
17.42
17.33
16.72
15.92
15.19
14.59
13.89
12.68
10.55
7.26
2.87
-2.31
-7.76
-12.91
-17.28
-20.67
-23.19
-25.31
-27.70
-30.99
-35.54
-41.19
-47.15
-52.13
-54.66
-53.47
-47.92
-38.34
-25.93
-12.47
0.18
10.58
17.96
22.28
23.96
23.65
21.93
19.30
16.21
13.10
10.40
8.46
7.47
7.32
7.78
8.52
9.34
10.13
10.82
11.27
11.21
10.29
8.24
5.04
0.98
-3.47
-7.87
-11.95
-15.75
-19.49
-23.55
-28.33
-34.03
-40.59
-47.45
-53.52
-57.39
-57.67
-53.54
-45.09
-33.39
-20.21
-7.44
3.39
11.45
16.59
19.15
19.69
18.78
16.92
14.55
12.09
9.97
8.48
7.77
7.76
8.16
8.69
9.13
9.43
9.63
9.76
9.70
9.18
7.87
5.58
2.29
-1.71
-6.02
-10.24
-14.11
-17.56
-20.73
-23.92
-27.53
-31.96
-37.32
-43.28
-48.88
-52.72
-53.28
-49.52
-41.32
-29.58
-15.98
-2.45
9.38
18.59
24.92
28.65
30.26
30.32
29.29
27.61
25.71
23.96
22.69
22.09
22.19
22.87
23.83
24.73
25.26
25.26
24.76
23.91
22.88
21.67
20.07
17.76
14.46
10.11
5.01
-0.30
-5.24
-9.42
-12.81
-15.70
-18.64
-22.18
-26.73
-32.39
-38.76
-44.94
-49.61
-51.34
-49.10
-42.54
-32.29
-19.75
-6.66
5.40
15.34
22.74
27.66
30.44
31.48
31.13
29.77
27.83
25.78
24.11
23.19
23.18
23.94
25.08
26.11
26.65
26.52
25.80
24.76
23.61
22.46
21.17
19.48
17.14
14.02
10.16
5.81
1.31
-3.05
-7.01
-10.48
-13.50
-16.23
-18.94
-21.93
-25.55
-30.03
-35.36
-41.10
-46.34
-49.83
-50.28
-46.85
-39.41
-28.73
-16.23
-3.59
7.73
16.76
23.13
26.95
28.58
28.52
27.17
24.98
22.38
19.86
17.87
16.72
16.47
16.86
17.47
17.89
17.94
17.69
17.33
17.01
16.61
15.80
14.13
11.39
7.64
3.26
-1.25
-5.49
-9.25
-12.60
-15.77
-19.10
-22.94
-27.55
-32.98
-38.82
-44.22
-47.87
-48.43
-44.95
-37.37
-26.53
-14.04
-1.72
8.97
17.24
22.98
26.48
28.18
28.36
27.22
24.97
22.00
18.84
16.09
14.17
13.18
12.99
13.30
13.84
14.47
15.11
15.63
15.79
15.20
13.52
10.60
6.59
1.90
-2.93
-7.46
-11.46
-14.96
-18.21
-21.59
-25.55
-30.39
-36.15
-42.39
-48.17
-52.17
-53.02
-49.83
-42.46
-31.68
-18.96
-5.98
5.79
15.42
22.56
27.24
29.69
30.19
29.01
26.55
23.32
20.02
17.37
15.92
15.86
16.97
18.66
20.27
21.28
21.50
21.09
20.34
19.47
18.39
16.78
14.23
10.48
5.59
-0.04
-5.78
-11.02
-15.38
-18.81
-21.58
-24.19
-27.19
-31.04
-35.93
-41.64
-47.46
-52.31
-54.89
-54.03
-49.09
-40.19
-28.28
-14.93
-1.86
9.47
18.23
24.27
27.99
30.05
30.97
31.05
30.40
29.06
27.26
25.43
24.11
23.71
24.30
25.61
27.12
28.36
29.01
28.98
28.33
27.15
25.52
23.47
21.06
18.34
15.35
12.05
8.38
4.31
-0.10
-4.66
-9.13
-13.26
-16.94
-20.14
-22.95
-25.60
-28.45
-31.93
-36.44
-42.00
-48.09
-53.51
-56.68
-56.08
-50.89
-41.32
-28.60
-14.57
-1.09
10.50
19.54
25.96
30.04
32.16
32.61
31.76
29.99
27.82
25.79
24.37
23.80
24.09
24.99
26.15
27.23
28.00
28.33
28.20
27.61
26.50
24.87
22.69
20.03
17.03
13.81
10.40
6.77
2.87
-1.29
-5.56
-9.64
-13.25
-16.18
-18.51
-20.56
-22.82
-25.81
-29.97
-35.40
-41.81
-48.36
-53.74
-56.51
-55.43
-49.93
-40.36
-27.90
-14.29
-1.25
9.90
18.43
24.17
27.35
28.38
27.74
25.88
23.31
20.52
18.00
16.17
15.30
15.44
16.39
17.77
19.14
20.18
20.71
20.76
20.44
19.73
18.51
16.52
13.55
9.57
4.84
-0.17
-4.89
-8.86
-11.95
-14.31
-16.36
-18.64
-21.62
-25.57
-30.42
-35.68
-40.43
-43.52
-43.85
-40.67
-33.96
-24.43
-13.30
-2.00
8.27
16.73
23.07
27.28
29.50
29.91
28.72
26.33
23.28
20.25
17.88
16.57
16.38
17.04
18.04
18.87
19.17
18.80
17.88
16.59
15.10
13.41
11.38
8.76
5.33
1.10
-3.68
-8.55
-12.98
-16.65
-19.58
-22.17
-25.04
-28.77
-33.68
-39.54
-45.62
-50.74
-53.55
-52.92
-48.29
-39.89
-28.75
-16.36
-4.30
6.21
14.49
20.43
24.26
26.30
26.79
25.94
24.02
21.46
18.84
16.80
15.80
16.03
17.29
19.15
21.06
22.57
23.41
23.55
23.10
22.20
20.93
19.22
16.91
13.85
9.98
5.47
0.68
-3.96
-8.15
-11.86
-15.33
-18.97
-23.19
-28.23
-34.10
-40.50
-46.87
-52.32
-55.74
-56.02
-52.42
-44.81
-33.87
-20.98
-7.73
4.42
14.56
22.35
27.86
31.35
33.06
33.24
32.17
30.34
28.39
26.99
26.63
27.42
29.01
30.69
31.65
31.25
29.28
25.96
21.91
17.81
14.27
11.64
9.97
9.11
8.72
8.40
7.78
6.57
4.65
2.07
-1.01
-4.36
-7.83
-11.38
-15.18
-19.57
-24.96
-31.67
-39.66
-48.37
-56.59
-62.72
-65.18
-62.92
-55.88
-44.99
-31.96
-18.68
-6.70
3.06
10.35
15.38
18.51
20.13
20.53
20.04
19.01
17.87
17.02
16.76
17.14
17.98
18.97
19.79
20.22
20.27
20.03
19.67
19.20
18.51
17.33
15.38
12.52
8.85
4.72
0.57
-3.21
-6.45
-9.30
-12.14
-15.44
-19.58
-24.73
-30.77
-37.27
-43.41
-48.10
-50.11
-48.43
-42.64
-33.17
-21.23
-8.53
3.30
13.18
20.69
25.92
29.17
30.65
30.44
28.72
25.92
22.75
20.08
18.55
18.34
19.13
20.29
21.23
21.62
21.45
20.91
20.20
19.32
18.02
15.98
12.95
8.98
4.37
-0.36
-4.77
-8.63
-12.02
-15.26
-18.77
-22.94
-27.97
-33.79
-39.97
-45.70
-49.85
-51.21
-48.85
-42.45
-32.52
-20.27
-7.33
4.75
14.83
22.37
27.34
29.99
30.69
29.80
27.73
24.94
21.99
19.47
17.86
17.46
18.22
19.83
21.75
23.39
24.29
24.23
23.29
21.78
20.05
18.34
16.61
14.57
11.84
8.18
3.62
-1.44
-6.52
-11.14
-15.10
-18.46
-21.53
-24.71
-28.45
-33.08
-38.69
-44.97
-51.03
-55.53
-56.95
-54.14
-46.76
-35.55
-22.05
-8.17
4.45
14.81
22.57
27.88
31.05
32.35
32.08
30.65
28.63
26.70
25.45
25.18
25.83
27.10
28.51
29.69
30.37
30.44
29.93
28.94
27.59
25.98
24.17
22.08
19.51
16.25
12.15
7.33
2.09
-3.08
-7.74
-11.66
-14.96
-18.02
-21.37
-25.49
-30.62
-36.70
-43.25
-49.39
-53.96
-55.67
-53.55
-47.19
-37.06
-24.43
-11.04
1.41
11.68
19.27
24.29
27.21
28.56
28.68
27.84
26.29
24.41
22.71
21.72
21.73
22.75
24.38
26.08
27.31
27.77
27.51
26.78
25.89
24.94
23.74
21.86
18.89
14.65
9.39
3.67
-1.83
-6.59
-10.42
-13.55
-16.45
-19.66
-23.64
-28.60
-34.46
-40.82
-46.87
-51.46
-53.35
-51.54
-45.60
-35.94
-23.75
-10.65
1.72
12.13
19.91
24.99
27.64
28.26
27.29
25.18
22.39
19.46
16.93
15.20
14.47
14.68
15.51
16.57
17.51
18.10
18.28
18.00
17.17
15.63
13.21
9.82
5.59
0.81
-4.06
-8.63
-12.63
-16.12
-19.41
-23.02
-27.48
-33.01
-39.31
-45.44
-49.96
-51.32
-48.43
-41.06
-30.01
-16.81
-3.28
9.03
19.12
26.62
31.58
34.22
34.81
33.61
30.99
27.47
23.72
20.48
18.27
17.35
17.54
18.37
19.30
19.87
19.91
19.48
18.74
17.79
16.51
14.63
11.87
8.07
3.36
-1.87
-7.12
-11.86
-15.83
-19.04
-21.84
-24.77
-28.39
-33.08
-38.88
-45.32
-51.46
-55.97
-57.45
-54.87
-47.92
-37.20
-24.12
-10.45
2.13
12.52
20.31
25.63
28.87
30.43
30.60
29.62
27.84
25.75
23.92
22.86
22.81
23.70
25.11
26.48
27.28
27.23
26.30
24.76
22.95
21.16
19.42
17.51
15.07
11.81
7.62
2.76
-2.26
-6.89
-10.78
-13.92
-16.64
-19.45
-22.82
-27.05
-32.21
-38.06
-44.04
-49.25
-52.55
-52.76
-49.09
-41.46
-30.66
-18.14
-5.56
5.64
14.64
21.18
25.46
27.77
28.42
27.70
25.97
23.72
21.52
19.88
19.10
19.11
19.59
20.11
20.35
20.24
19.93
19.64
19.46
19.25
18.60
17.07
14.36
10.45
5.69
0.61
-4.24
-8.46
-11.94
-14.90
-17.78
-21.16
-25.52
-31.00
-37.24
-43.29
-47.80
-49.36
-46.98
-40.45
-30.44
-18.38
-5.94
5.36
14.52
21.13
25.20
26.99
26.89
25.32
22.80
19.92
17.26
15.26
14.10
13.71
13.80
14.13
14.49
14.83
15.13
15.32
15.19
14.42
12.68
9.81
5.88
1.22
-3.73
-8.50
-12.80
-16.58
-20.03
-23.52
-27.47
-32.24
-37.85
-43.80
-49.05
-52.20
-51.90
-47.36
-38.73
-27.08
-14.11
-1.56
9.22
17.60
23.50
27.19
29.00
29.17
27.95
25.71
23.02
20.60
19.08
18.79
19.69
21.31
22.97
24.04
24.14
23.28
21.76
20.04
18.42
16.91
15.21
12.82
9.38
4.83
-0.46
-5.81
-10.53
-14.20
-16.90
-19.10
-21.49
-24.69
-29.05
-34.54
-40.76
-46.98
-52.20
-55.27
-55.14
-51.13
-43.19
-32.04
-19.04
-5.82
6.13
15.80
22.79
27.25
29.63
30.45
30.16
29.13
27.71
26.25
25.12
24.59
24.79
25.58
26.71
27.87
28.79
29.35
29.50
29.22
28.47
27.20
25.36
22.97
20.09
16.84
13.32
9.65
5.91
2.21
-1.39
-4.85
-8.13
-11.24
-14.13
-16.81
-19.35
-21.93
-24.93
-28.80
-33.84
-39.91
-46.23
-51.41
-53.79
-52.03
-45.58
-35.00
-21.82
-8.04
4.49
14.60
21.88
26.60
29.29
30.47
30.49
29.60
28.07
26.24
24.59
23.55
23.41
24.21
25.72
27.54
29.19
30.26
30.50
29.85
28.40
26.32
23.79
20.91
17.65
13.87
9.50
4.59
-0.59
-5.63
-10.12
-13.85
-16.94
-19.75
-22.76
-26.40
-30.90
-36.25
-42.18
-48.10
-53.15
-56.20
-56.18
-52.33
-44.60
-33.73
-21.13
-8.46
2.81
11.76
18.06
21.82
23.37
23.07
21.31
18.58
15.46
12.59
10.50
9.47
9.44
10.10
11.01
11.80
12.28
12.40
12.17
11.59
10.58
8.96
6.63
3.50
-0.30
-4.55
-8.89
-12.99
-16.63
-19.82
-22.83
-26.12
-30.15
-35.19
-41.04
-46.96
-51.74
-54.03
-52.71
-47.32
-38.20
-26.48
-13.69
-1.39
9.23
17.52
23.34
26.87
28.43
28.36
27.02
24.84
22.32
20.00
18.32
17.51
17.55
18.13
18.90
19.55
19.91
19.95
19.68
19.02
17.80
15.77
12.74
8.72
3.89
-1.34
-6.48
-11.13
-15.08
-18.47
-21.76
-25.59
-30.57
-36.86
-43.99
-50.76
-55.59
-56.93
-53.91
-46.58
-35.90
-23.41
-10.80
0.57
9.88
16.79
21.38
23.89
24.62
23.90
22.05
19.51
16.78
14.39
12.80
12.27
12.73
13.84
15.10
16.04
16.33
15.96
15.07
13.87
12.55
11.17
9.74
8.20
6.51
4.66
2.68
0.61
-1.53
-3.79
-6.33
-9.40
-13.36
-18.50
-24.86
-32.05
-39.11
-44.69
-47.30
-45.83
-40.00
-30.47
-18.75
-6.66
4.20
12.93
19.34
23.74
26.57
28.07
28.32
27.36
25.48
23.27
21.41
20.46
20.59
21.51
22.67
23.52
23.72
23.28
22.42
21.45
20.54
19.65
18.55
16.94
14.54
11.22
7.10
2.48
-2.18
-6.46
-10.04
-12.89
-15.23
-17.55
-20.45
-24.46
-29.79
-36.18
-42.77
-48.26
-51.17
-50.35
-45.33
-36.52
-25.10
-12.68
-0.79
9.44
17.45
23.17
26.76
28.50
28.64
27.48
25.44
23.08
21.04
19.80
19.60
20.30
21.47
22.60
23.30
23.40
23.05
22.47
21.84
21.13
20.03
18.16
15.19
11.09
6.16
0.93
-4.00
-8.20
-11.53
-14.17
-16.55
-19.14
-22.41
-26.68
-31.99
-38.00
-43.90
-48.47
-50.40
-48.62
-42.80
-33.47
-21.95
-9.87
1.22
10.27
16.85
20.97
22.89
22.98
21.60
19.23
16.43
13.79
11.78
10.68
10.45
10.84
11.50
12.15
12.64
12.87
12.78
12.21
10.96
8.81
5.70
1.81
-2.52
-6.83
-10.74
-14.09
-17.02
-19.89
-23.16
-27.24
-32.23
-37.82
-43.18
-47.07
-48.21
-45.57
-38.84
-28.55
-15.98
-2.81
9.31
19.21
26.24
30.35
31.84
31.22
29.11
26.13
22.91
19.99
17.77
16.46
16.05
16.39
17.21
18.25
19.25
20.00
20.32
20.01
18.90
16.83
13.75
9.72
4.96
-0.15
-5.24
-9.96
-14.20
-18.06
-21.91
-26.22
-31.43
-37.59
-44.12
-49.80
-52.99
-52.17
-46.57
-36.54
-23.59
-9.88
2.48
12.05
18.33
21.64
22.74
22.63
22.39
23.22
26.25
32.25
41.15
51.88
62.55
71.08
75.94
76.61
73.64
68.16
61.36
54.03
46.44
38.49
29.93
20.58
10.37
-0.55
-11.86
-23.11
-33.79
-43.50
-52.06
-59.56
-66.27
-72.58
-78.81
-85.28
-92.17
-99.47
-106.77
-113.17
-117.28
-117.60
-113.07
-103.54
-90.02
-74.45
-59.02
-45.54
-34.89
-27.00
-21.24
-16.89
-13.54
-11.12
-9.71
-9.18
-9.08
-8.74
-7.56
-5.32
-2.25
1.04
3.93
5.99
7.10
7.34
6.80
5.47
3.22
-0.02
-4.14
-8.68
-12.99
-16.31
-18.12
-18.24
-16.90
-14.59
-11.92
-9.34
-7.16
-5.50
-4.39
-3.90
-4.12
-5.20
-7.35
-10.79
-15.61
-21.52
-27.64
-32.41
-34.05
-31.11
-23.23
-11.45
2.15
15.20
25.95
33.78
39.06
42.55
44.74
45.60
44.76
42.07
37.94
33.43
29.85
28.22
28.85
31.18
34.05
36.12
36.35
34.31
30.36
25.46
20.87
17.72
16.66
17.75
20.47
24.02
27.52
30.25
31.67
31.44
29.39
25.52
19.98
13.08
5.24
-2.98
-10.91
-17.75
-22.66
-24.90
-23.92
-19.56
-11.99
-1.72
10.48
23.70
36.97
49.35
60.01
68.33
73.92
76.70
76.77
74.42
70.14
64.56
58.46
52.64
47.75
44.08
41.52
39.58
37.74
35.59
33.05
30.32
27.70
25.33
23.09
20.55
17.23
12.79
7.27
1.03
-5.33
-11.21
-16.27
-20.49
-24.19
-27.90
-32.17
-37.37
-43.51
-50.08
-55.99
-59.86
-60.31
-56.46
-48.26
-36.57
-22.95
-9.15
3.39
13.78
21.71
27.29
30.76
32.35
32.29
30.90
28.66
26.22
24.21
23.17
23.31
24.49
26.31
28.24
29.80
30.71
30.86
30.31
29.17
27.52
25.44
22.92
19.92
16.36
12.13
7.21
1.73
-4.00
-9.55
-14.50
-18.62
-21.97
-24.87
-27.82
-31.35
-35.91
-41.70
-48.51
-55.51
-61.31
-64.22
-62.75
-56.17
-44.93
-30.56
-15.16
-0.80
11.08
19.90
25.78
29.24
30.87
31.18
30.59
29.47
28.18
27.08
26.42
26.37
26.89
27.78
28.77
29.59
30.03
30.00
29.51
28.59
27.28
25.61
23.59
21.24
18.57
15.53
12.07
8.14
3.77
-0.85
-5.42
-9.66
-13.39
-16.62
-19.52
-22.33
-25.32
-28.80
-33.05
-38.26
-44.29
-50.42
-55.34
-57.39
-55.19
-48.19
-37.03
-23.29
-9.01
4.00
14.63
22.52
27.84
30.97
32.28
32.10
30.81
28.89
26.85
25.15
24.13
23.91
24.44
25.52
26.80
27.93
28.60
28.65
28.06
26.92
25.42
23.60
21.43
18.73
15.34
11.21
6.50
1.53
-3.26
-7.58
-11.30
-14.55
-17.58
-20.71
-24.21
-28.35
-33.33
-39.17
-45.53
-51.54
-55.91
-57.22
-54.40
-47.20
-36.35
-23.29
-9.76
2.74
13.24
21.30
26.85
30.01
30.96
30.03
27.72
24.70
21.72
19.39
18.05
17.66
17.92
18.39
18.72
18.79
18.67
18.57
18.61
18.70
18.51
17.53
15.36
11.91
7.43
2.49
-2.25
-6.36
-9.68
-12.42
-15.00
-17.94
-21.69
-26.54
-32.43
-38.84
-44.75
-48.77
-49.53
-46.12
-38.47
-27.51
-14.83
-2.19
9.00
17.92
24.38
28.52
30.53
30.56
28.79
25.57
21.50
17.33
13.81
11.39
10.13
9.71
9.66
9.65
9.57
9.54
9.77
10.29
10.90
11.08
10.28
8.07
4.42
-0.28
-5.36
-10.13
-14.17
-17.39
-20.12
-22.89
-26.20
-30.42
-35.59
-41.38
-47.01
-51.36
-53.16
-51.33
-45.38
-35.67
-23.41
-10.32
1.93
12.09
19.63
24.57
27.25
28.04
27.23
25.12
22.13
18.84
15.89
13.83
12.93
13.07
13.87
14.84
15.55
15.89
15.92
15.86
15.86
15.83
15.39
14.03
11.37
7.34
2.35
-2.91
-7.73
-11.63
-14.58
-16.95
-19.36
-22.42
-26.58
-32.01
-38.47
-45.27
-51.22
-54.84
-54.74
-50.11
-41.06
-28.69
-14.75
-1.08
10.85
20.24
26.91
31.09
33.12
33.41
32.35
30.37
27.95
25.58
23.68
22.49
22.08
22.30
22.86
23.38
23.55
23.18
22.25
20.93
19.41
17.86
16.27
14.46
12.16
9.15
5.37
1.02
-3.53
-7.82
-11.47
-14.37
-16.69
-18.84
-21.31
-24.56
-28.91
-34.31
-40.31
-45.89
-49.73
-50.42
-47.03
-39.41
-28.35
-15.35
-2.08
10.00
20.00
27.56
32.69
35.54
36.31
35.35
33.16
30.45
27.93
26.16
25.33
25.25
25.43
25.17
23.81
20.87
16.19
10.07
3.25
-3.23
-8.33
-11.43
-12.58
-12.54
-12.46
-13.42
-16.00
-20.14
-25.27
-30.69
-35.88
-40.67
-45.12
-49.33
-53.40
-57.30
-60.96
-64.24
-66.75
-67.76
-66.31
-61.48
-52.83
-40.73
-26.38
-11.44
2.47
14.18
23.20
29.55
33.47
35.26
35.26
33.98
32.16
30.64
30.07
30.67
32.14
33.85
35.13
35.55
35.12
34.18
33.15
32.31
31.58
30.59
28.78
25.80
21.60
16.55
11.26
6.37
2.24
-1.11
-4.06
-7.15
-10.87
-15.57
-21.28
-27.71
-34.20
-39.74
-43.14
-43.28
-39.48
-31.72
-20.74
-7.89
5.25
17.28
27.19
34.54
39.30
41.71
42.15
41.09
39.08
36.85
35.12
34.52
35.36
37.52
40.52
43.74
46.71
49.28
51.68
54.29
57.34
60.74
64.09
66.80
68.32
68.37
67.01
64.67
62.15
60.59
61.32
65.49
73.67
85.43
99.23
112.74
123.43
129.38
129.77
124.92
115.90
103.90
89.74
73.84
56.46
38.09
19.73
2.68
-11.90
-23.44
-32.15
-38.82
-44.44
-49.65
-54.63
-59.11
-62.76
-65.40
-67.12
-68.07
-68.34
-67.80
-66.30
-63.81
-60.60
-57.27
-54.54
-52.93
-52.54
-53.04
-53.83
-54.40
-54.55
-54.46
-54.45
-54.73
-55.14
-55.31
-54.86
-53.72
-52.25
-51.14
-51.11
-52.60
-55.67
-59.94
-64.65
-68.73
-70.93
-69.99
-65.02
-55.79
-42.98
-28.11
-13.18
-0.06
10.00
16.60
20.11
21.30
20.96
19.66
17.77
15.55
13.30
11.36
10.09
9.68
10.14
11.22
12.63
14.02
15.18
15.97
16.26
15.98
15.05
13.40
10.98
7.77
3.80
-0.86
-6.01
-11.34
-16.43
-20.89
-24.45
-27.14
-29.22
-31.19
-33.57
-36.77
-41.04
-46.39
-52.49
-58.56
-63.38
-65.48
-63.56
-56.96
-46.09
-32.33
-17.65
-3.90
7.67
16.63
23.15
27.59
30.15
30.82
29.63
26.82
23.02
19.05
15.68
13.30
11.91
11.18
10.70
10.13
9.36
8.47
7.61
6.88
6.21
5.33
3.85
1.39
-2.24
-6.89
-12.08
-17.13
-21.40
-24.58
-26.77
-28.48
-30.41
-33.22
-37.37
-42.85
-49.22
-55.51
-60.37
-62.40
-60.52
-54.37
-44.50
-32.25
-19.34
-7.41
2.42
9.69
14.40
16.81
17.18
15.73
12.73
8.65
4.19
0.08
-3.07
-5.06
-6.03
-6.40
-6.59
-6.72
-6.66
-6.15
-5.10
-3.71
-2.56
-2.28
-3.28
-5.54
-8.63
-11.93
-14.91
-17.36
-19.43
-21.53
-24.11
-27.57
-32.15
-37.78
-44.02
-49.91
-54.06
-54.93
-51.35
-42.99
-30.56
-15.71
-0.47
13.24
24.19
31.89
36.50
38.48
38.34
36.49
33.35
29.36
25.14
21.36
18.55
16.98
16.53
16.74
17.03
16.97
16.40
15.48
14.49
13.62
12.79
11.60
9.53
6.16
1.43
-4.35
-10.56
-16.53
-21.75
-26.08
-29.71
-33.13
-36.87
-41.44
-47.12
-53.82
-60.89
-67.12
-70.84
-70.44
-64.90
-54.29
-39.85
-23.64
-7.88
5.71
16.29
23.82
28.74
31.57
32.68
32.31
30.70
28.28
25.69
23.59
22.52
22.66
23.79
25.41
26.91
27.89
28.24
28.10
27.72
27.21
26.34
24.67
21.72
17.23
11.40
4.83
-1.68
-7.45
-12.14
-15.83
-18.92
-21.98
-25.57
-30.10
-35.80
-42.55
-49.71
-56.09
-60.08
-60.14
-55.31
-45.65
-32.29
-17.11
-2.11
11.07
21.54
29.04
33.76
36.03
36.21
34.64
31.80
28.30
24.92
22.41
21.25
21.61
23.14
25.23
27.17
28.44
28.90
28.75
28.34
27.95
27.54
26.73
24.96
21.79
17.09
11.25
4.94
-1.07
-6.30
-10.68
-14.61
-18.67
-23.45
-29.33
-36.36
-44.29
-52.42
-59.65
-64.54
-65.58
-61.64
-52.47
-38.89
-22.62
-5.75
9.81
22.77
32.60
39.23
42.86
43.75
42.23
38.85
34.38
29.78
25.96
23.49
22.46
22.52
23.06
23.47
23.40
22.79
21.77
20.49
18.97
17.04
14.50
11.21
7.24
2.85
-1.65
-6.03
-10.28
-14.59
-19.27
-24.67
-31.04
-38.36
-46.15
-53.46
-58.81
-60.61
-57.62
-49.45
-36.83
-21.44
-5.42
9.25
21.17
29.75
35.01
37.32
37.19
35.16
31.77
27.63
23.39
19.59
16.72
15.01
14.50
15.02
16.23
17.72
19.05
19.81
19.69
18.52
16.26
13.04
9.08
4.66
0.06
-4.48
-8.85
-13.02
-17.17
-21.55
-26.46
-31.91
-37.40
-41.80
-43.54
-41.09
-33.58
-21.30
-5.70
10.96
26.36
38.73
47.21
51.75
52.90
51.40
47.99
43.35
38.08
32.79
27.93
23.88
20.79
18.61
17.16
16.17
15.40
14.63
13.72
12.51
10.81
8.36
4.86
0.17
-5.60
-11.99
-18.33
-23.95
-28.53
-32.19
-35.53
-39.45
-44.68
-51.43
-59.10
-66.24
-70.95
-71.43
-66.61
-56.61
-42.71
-26.94
-11.44
2.14
12.98
20.92
26.24
29.25
30.20
29.33
27.01
23.84
20.59
17.99
16.49
16.16
16.71
17.69
18.67
19.48
20.12
20.68
21.19
21.38
20.79
18.88
15.35
10.31
4.28
-1.99
-7.76
-12.67
-16.75
-20.45
-24.42
-29.32
-35.56
-43.07
-51.15
-58.46
-63.24
-63.81
-59.12
-49.17
-35.15
-19.03
-2.98
11.32
22.93
31.69
37.86
41.81
43.76
43.83
42.25
39.50
36.34
33.61
31.97
31.67
32.45
33.68
34.65
34.81
33.97
32.27
30.12
27.93
25.96
24.17
22.24
19.71
16.17
11.50
6.03
0.49
-4.29
-7.64
-9.40
-9.99
-10.23
-11.02
-13.13
-16.94
-22.47
-29.36
-36.82
-43.67
-48.47
-49.74
-46.43
-38.26
-25.85
-10.64
5.55
21.04
34.64
45.84
54.73
61.78
67.52
72.42
76.81
80.87
84.74
88.53
92.14
95.13
96.62
95.48
90.90
82.87
72.55
62.01
53.53
48.65
47.70
49.66
52.78
55.27
55.84
53.85
49.18
42.00
32.68
21.84
10.33
-0.85
-10.86
-19.31
-26.40
-32.94
-39.99
-48.38
-58.25
-68.76
-78.11
-84.05
-84.58
-78.68
-66.74
-50.48
-32.44
-15.18
-0.64
10.24
17.39
21.28
22.57
21.90
19.89
17.25
14.81
13.34
13.31
14.71
16.98
19.25
20.74
21.08
20.40
19.16
17.79
16.41
14.77
12.35
8.74
3.80
-2.17
-8.58
-14.72
-20.03
-24.26
-27.53
-30.26
-33.08
-36.63
-41.44
-47.62
-54.71
-61.51
-66.22
-66.97
-62.40
-52.31
-37.84
-21.23
-5.08
8.51
18.39
24.48
27.42
28.03
27.01
24.82
21.88
18.66
15.73
13.67
12.81
13.18
14.49
16.23
17.90
19.06
19.46
19.03
17.79
15.89
13.50
10.78
7.81
4.54
0.86
-3.40
-8.28
-13.64
-19.14
-24.33
-28.83
-32.47
-35.39
-37.96
-40.73
-44.19
-48.72
-54.43
-61.01
-67.62
-72.92
-75.23
-73.03
-65.42
-52.66
-36.13
-18.02
-0.69
13.97
24.95
32.11
35.94
37.18
36.57
34.75
32.25
29.59
27.25
25.65
25.03
25.43
26.59
28.12
29.50
30.32
30.33
29.50
27.96
25.91
23.49
20.82
17.94
14.88
11.65
8.18
4.37
0.07
-4.80
-10.20
-15.93
-21.70
-27.32
-32.70
-37.94
-43.18
-48.64
-54.48
-60.77
-67.42
-73.89
-79.10
-81.48
-79.39
-71.76
-58.65
-41.39
-22.23
-3.65
12.30
24.53
32.77
37.41
39.04
38.31
35.82
32.22
28.18
24.44
21.58
19.99
19.72
20.51
21.84
23.12
23.91
24.05
23.70
23.19
22.77
22.35
21.52
19.67
16.32
11.35
5.13
-1.63
-8.11
-13.72
-18.24
-21.87
-25.01
-28.19
-31.88
-36.40
-41.89
-48.12
-54.36
-59.35
-61.56
-59.55
-52.58
-40.92
-25.85
-9.39
6.29
19.43
29.00
34.71
36.87
36.12
33.23
28.97
24.11
19.36
15.30
12.35
10.63
9.99
10.06
10.40
10.73
10.92
11.05
11.11
10.98
10.28
8.54
5.41
0.90
-4.61
-10.49
-16.12
-21.09
-25.33
-29.07
-32.73
-36.86
-41.97
-48.26
-55.36
-62.21
-67.09
-68.06
-63.64
-53.46
-38.46
-20.73
-2.80
13.09
25.53
34.05
38.90
40.66
39.92
37.22
33.12
28.26
23.37
19.15
16.11
14.43
13.96
14.34
15.16
16.14
17.12
17.99
18.56
18.48
17.31
14.73
10.70
5.55
-0.17
-5.93
-11.47
-16.93
-22.66
-29.10
-36.53
-44.95
-54.00
-62.88
-70.31
-74.68
-74.37
-68.25
-56.20
-39.32
-19.75
-0.02
17.63
31.77
41.87
48.07
50.77
50.47
47.69
43.04
37.30
31.35
25.92
21.48
18.13
15.70
13.92
12.57
11.58
11.02
10.93
11.25
11.65
11.62
10.57
8.01
3.74
-2.05
-8.78
-15.70
-22.13
-27.68
-32.41
-36.84
-41.74
-47.89
-55.63
-64.59
-73.52
-80.37
-82.91
-79.40
-69.27
-53.43
-33.99
-13.63
5.21
20.92
32.82
40.96
45.70
47.42
46.49
43.39
38.84
33.78
29.15
25.65
23.50
22.48
22.08
21.70
20.99
19.88
18.54
17.25
16.20
15.39
14.60
13.50
11.75
9.14
5.65
1.43
-3.23
-8.03
-12.70
-17.14
-21.49
-26.11
-31.55
-38.37
-46.86
-56.71
-66.79
-75.22
-79.80
-78.65
-70.88
-56.98
-38.68
-18.50
1.01
17.86
30.91
39.83
44.88
46.63
45.77
43.08
39.34
35.36
31.83
29.23
27.72
27.18
27.26
27.54
27.68
27.51
26.98
26.08
24.69
22.60
19.51
15.24
9.83
3.57
-3.06
-9.54
-15.50
-20.87
-25.82
-30.83
-36.50
-43.31
-51.30
-59.74
-67.10
-71.31
-70.37
-63.10
-49.73
-31.88
-12.15
6.72
22.59
34.34
41.86
45.65
46.42
44.82
41.43
36.79
31.57
26.49
22.23
19.33
17.97
18.08
19.28
21.06
22.83
23.99
24.03
22.55
19.42
14.77
8.97
2.58
-3.89
-10.05
-15.81
-21.34
-27.13
-33.79
-41.80
-51.18
-61.18
-70.17
-75.97
-76.48
-70.41
-57.88
-40.40
-20.47
-0.76
16.54
30.14
39.64
45.25
47.48
46.93
44.26
40.20
35.60
31.32
28.04
26.11
25.47
25.72
26.37
27.02
27.49
27.77
27.81
27.39
26.08
23.40
19.13
13.43
6.87
0.19
-5.98
-11.40
-16.21
-20.92
-26.24
-32.89
-41.35
-51.62
-62.87
-73.31
-80.48
-81.91
-76.00
-62.74
-43.85
-22.26
-1.17
16.93
30.77
40.29
46.13
49.11
49.87
48.84
46.45
43.20
39.85
37.13
35.62
35.48
36.46
37.95
39.24
39.78
39.31
37.96
36.11
34.15
32.21
30.08
27.23
23.07
17.28
10.02
1.93
-6.08
-13.19
-19.01
-23.71
-27.84
-32.20
-37.54
-44.38
-52.91
-62.78
-72.98
-81.68
-86.59
-85.47
-76.96
-61.23
-40.14
-16.70
5.89
25.10
39.69
49.61
55.59
58.54
59.22
58.19
55.98
53.16
50.41
48.35
47.28
47.21
47.79
48.60
49.27
49.65
49.74
49.58
49.12
48.09
46.16
43.02
38.63
33.23
27.36
21.54
16.12
11.12
6.27
1.20
-4.37
-10.38
-16.52
-22.35
-27.53
-32.01
-36.13
-40.52
-45.91
-52.86
-61.42
-70.92
-79.90
-86.26
-87.86
-83.09
-71.57
-54.32
-33.57
-12.12
7.49
23.50
35.27
42.96
47.18
48.59
47.72
45.09
41.35
37.34
33.99
32.04
31.73
32.69
34.15
35.30
35.64
35.16
34.26
33.38
32.66
31.76
29.99
26.62
21.30
14.27
6.29
-1.62
-8.61
-14.29
-18.84
-22.84
-27.00
-31.90
-37.90
-45.03
-52.91
-60.66
-66.77
-69.36
-66.65
-57.65
-42.71
-23.57
-2.83
16.82
33.39
45.87
54.04
58.03
57.99
54.14
46.96
37.50
27.31
18.05
11.02
6.67
4.59
3.71
2.89
1.30
-1.34
-4.80
-8.67
-12.63
-16.74
-21.40
-27.20
-34.52
-43.38
-53.32
-63.64
-73.74
-83.40
-92.79
-102.31
-112.28
-122.66
-132.89
-141.88
-148.17
-150.17
-146.55
-136.64
-120.74
-100.28
-77.64
-55.54
-36.41
-21.73
-11.77
-5.79
-2.47
-0.41
1.58
4.40
8.78
15.29
24.25
35.56
48.48
61.67
73.44
82.34
87.69
89.80
89.75
88.77
87.63
86.26
83.92
79.64
72.85
63.78
53.32
42.74
33.11
25.02
18.36
12.48
6.47
-0.61
-9.37
-19.80
-31.09
-41.64
-49.37
-52.32
-49.31
-40.35
-26.68
-10.30
6.59
22.20
35.44
45.80
53.16
57.57
59.18
58.29
55.55
51.87
48.32
45.82
44.83
45.26
46.55
47.93
48.77
48.84
48.27
47.36
46.37
45.20
43.50
40.72
36.46
30.62
23.48
15.56
7.43
-0.46
-7.93
-15.03
-22.01
-29.17
-36.80
-44.97
-53.31
-60.89
-66.23
-67.71
-64.07
-54.94
-41.14
-24.43
-6.97
9.28
23.04
33.82
41.65
46.81
49.52
49.96
48.38
45.23
41.17
36.97
33.36
30.84
29.63
29.65
30.61
32.19
33.94
35.42
36.14
35.67
33.68
30.11
25.17
19.29
13.01
6.78
0.90
-4.59
-9.90
-15.42
-21.57
-28.48
-35.72
-42.13
-46.03
-45.74
-40.31
-29.93
-16.04
-0.76
13.78
26.10
35.55
42.18
46.24
47.92
47.26
44.36
39.59
33.72
27.80
22.83
19.59
18.36
18.96
20.84
23.21
25.28
26.39
26.16
24.48
21.57
17.79
13.49
8.95
4.28
-0.52
-5.53
-10.95
-16.98
-23.82
-31.41
-39.21
-46.02
-50.18
-50.04
-44.59
-33.98
-19.61
-3.61
11.75
24.81
34.73
41.41
45.12
46.11
44.51
40.49
34.47
27.31
20.16
14.21
10.28
8.58
8.69
9.77
10.84
11.15
10.30
8.31
5.47
2.13
-1.43
-5.07
-8.86
-12.96
-17.61
-23.05
-29.48
-36.94
-45.09
-53.05
-59.33
-62.13
-59.95
-52.15
-39.36
-23.37
-6.57
8.83
21.40
30.63
36.75
40.24
41.50
40.80
38.31
34.37
29.57
24.64
20.32
17.12
15.22
14.44
14.33
14.34
13.96
12.85
10.93
8.29
5.11
1.56
-2.33
-6.65
-11.59
-17.33
-23.96
-31.56
-40.06
-49.19
-58.26
-66.08
-71.05
-71.56
-66.59
-56.11
-41.27
-24.07
-6.72
8.96
21.87
31.65
38.45
42.57
44.33
44.10
42.33
39.57
36.41
33.36
30.73
28.59
26.87
25.52
24.57
24.10
24.20
24.72
25.23
25.09
23.63
20.45
15.59
9.56
3.10
-3.09
-8.59
-13.42
-17.98
-22.91
-28.92
-36.48
-45.54
-55.24
-63.93
-69.48
-69.92
-64.11
-52.33
-36.22
-18.31
-1.22
13.14
23.96
31.44
36.41
39.77
42.17
43.88
44.94
45.36
45.25
44.89
44.51
44.21
43.80
43.00
41.55
39.47
37.10
34.99
33.60
33.02
32.98
32.89
32.15
30.40
27.70
24.47
21.30
18.79
17.28
16.78
17.07
17.66
18.05
17.77
16.53
14.18
10.74
6.33
1.16
-4.61
-10.88
-17.70
-25.27
-33.98
-44.23
-56.16
-69.35
-82.61
-93.98
-101.18
-102.25
-96.28
-83.81
-66.74
-47.72
-29.37
-13.54
-1.09
7.98
14.15
17.98
19.93
20.43
19.97
19.11
18.46
18.41
19.09
20.36
21.88
23.32
24.50
25.36
25.99
26.52
26.96
27.23
27.12
26.35
24.72
22.20
18.97
15.42
11.95
8.85
6.19
3.76
1.17
-1.90
-5.59
-9.75
-14.04
-18.04
-21.49
-24.34
-26.82
-29.44
-32.76
-37.26
-43.05
-49.53
-55.42
-58.90
-58.21
-52.26
-41.13
-26.07
-9.15
7.46
22.06
33.68
42.12
47.58
50.44
51.05
49.79
47.03
43.22
38.81
34.15
29.45
24.86
20.54
16.75
13.91
12.48
12.68
14.35
16.90
19.37
20.86
20.78
19.12
16.34
13.16
10.16
7.64
5.55
3.68
1.86
0.13
-1.27
-1.97
-1.69
-0.44
1.46
3.38
4.56
4.30
2.02
-2.48
-8.96
-16.60
-24.06
-29.68
-31.93
-29.93
-23.78
-14.61
-4.18
5.63
13.42
18.53
20.99
21.22
19.75
16.98
13.27
8.97
4.57
0.58
-2.53
-4.55
-5.53
-5.74
-5.50
-5.03
-4.34
-3.37
-2.08
-0.63
0.64
1.28
0.93
-0.58
-3.13
-6.35
-9.76
-12.98
-15.81
-18.27
-20.56
-22.90
-25.43
-28.09
-30.71
-33.11
-35.18
-37.04
-38.99
-41.52
-45.03
-49.63
-54.90
-59.75
-62.70
-62.22
-57.27
-47.76
-34.62
-19.52
-4.35
9.26
20.30
28.37
33.55
36.13
36.43
34.77
31.51
27.12
22.16
17.28
13.08
9.97
8.07
7.28
7.34
7.96
8.87
9.85
10.68
11.09
10.84
9.77
7.91
5.45
2.63
-0.36
-3.47
-6.77
-10.38
-14.29
-18.39
-22.44
-26.18
-29.45
-32.24
-34.68
-37.03
-39.64
-42.86
-46.87
-51.57
-56.39
-60.30
-61.96
-60.13
-54.08
-43.93
-30.73
-16.18
-2.12
9.90
18.94
24.70
27.40
27.49
25.47
21.80
16.99
11.60
6.34
1.91
-1.11
-2.49
-2.40
-1.31
0.18
1.66
2.97
4.24
5.67
7.32
8.97
10.17
10.40
9.31
6.89
3.52
-0.22
-3.69
-6.46
-8.37
-9.64
-10.67
-11.97
-14.04
-17.26
-21.68
-26.98
-32.27
-36.22
-37.36
-34.51
-27.27
-16.20
-2.76
11.18
23.85
34.03
41.14
45.15
46.32
45.03
41.73
36.88
31.04
24.87
19.01
14.06
10.39
8.15
7.17
7.05
7.26
7.34
7.05
6.40
5.64
4.97
4.44
3.80
2.58
0.36
-2.99
-7.16
-11.48
-15.20
-17.80
-19.21
-19.83
-20.34
-21.53
-24.00
-28.07
-33.61
-39.93
-45.85
-49.82
-50.30
-46.26
-37.62
-25.30
-11.02
3.23
15.71
25.35
31.76
35.10
35.80
34.38
31.40
27.42
23.11
19.14
16.16
14.56
14.40
15.42
17.05
18.74
20.07
20.91
21.38
21.71
22.07
22.46
22.62
22.18
20.75
18.11
14.32
9.67
4.63
-0.36
-5.03
-9.44
-14.00
-19.41
-26.41
-35.59
-47.08
-60.48
-74.71
-88.10
-98.61
-104.17
-103.26
-95.31
-81.00
-62.21
-41.50
-21.47
-4.13
9.49
19.24
25.54
28.95
29.94
28.83
26.00
22.01
17.63
13.63
10.66
9.01
8.62
9.16
10.19
11.35
12.42
13.35
14.15
14.73
14.85
14.10
12.08
8.64
4.05
-1.00
-5.66
-9.31
-11.76
-13.46
-15.16
-17.62
-21.34
-26.45
-32.82
-40.13
-47.80
-54.94
-60.34
-62.65
-60.86
-54.78
-45.13
-33.40
-21.24
-9.97
-0.26
7.72
14.05
18.71
21.48
22.18
20.91
18.17
14.83
11.88
10.06
9.67
10.52
12.05
13.67
14.98
15.93
16.75
17.72
18.95
20.16
20.74
20.01
17.50
13.20
7.59
1.49
-4.20
-8.80
-11.99
-13.90
-15.06
-16.36
-18.86
-23.56
-31.04
-41.03
-52.24
-62.48
-69.25
-70.49
-65.32
-54.38
-39.56
-23.30
-7.86
5.28
15.49
22.79
27.44
29.71
29.86
28.24
25.40
22.03
18.85
16.34
14.69
13.78
13.41
13.38
13.68
14.40
15.54
16.90
17.99
18.20
17.03
14.26
10.08
4.94
-0.67
-6.44
-12.34
-18.56
-25.38
-33.00
-41.33
-49.89
-57.70
-63.38
-65.39
-62.44
-53.96
-40.45
-23.45
-5.16
12.07
26.38
36.66
42.60
44.53
43.14
39.32
33.97
27.97
22.09
16.90
12.76
9.82
8.09
7.50
7.94
9.22
11.02
12.81
13.99
13.97
12.42
9.38
5.21
0.48
-4.31
-8.92
-13.36
-17.93
-23.02
-29.07
-36.36
-44.77
-53.52
-61.08
-65.36
-64.36
-56.84
-43.00
-24.54
-4.17
15.28
31.65
43.88
51.98
56.56
58.39
58.16
56.44
53.81
50.85
48.10
45.87
44.17
42.73
41.27
39.65
38.04
36.73
35.92
35.46
34.83
33.29
30.22
25.36
18.91
11.42
3.55
-4.15
-11.35
-17.86
-23.71
-29.09
-34.28
-39.49
-44.54
-48.67
-50.51
-48.48
-41.44
-29.30
-13.26
4.48
21.46
35.59
45.74
51.74
54.12
53.66
51.14
47.19
42.43
37.42
32.80
29.12
26.81
26.10
26.94
29.06
31.98
35.10
37.72
39.21
39.01
36.76
32.30
25.73
17.50
8.27
-1.13
-9.93
-17.55
-23.69
-28.35
-31.72
-34.12
-35.86
-37.26
-38.65
-40.37
-42.82
-46.45
-51.56
-58.08
-65.35
-71.99
-76.16
-75.96
-70.15
-58.65
-42.65
-24.33
-6.18
9.76
22.34
31.40
37.41
41.11
43.11
43.78
43.40
42.24
40.71
39.26
38.30
38.04
38.44
39.27
40.20
40.94
41.27
41.06
40.23
38.82
36.90
34.54
31.81
28.67
25.01
20.73
15.82
10.44
4.85
-0.70
-6.09
-11.36
-16.67
-22.25
-28.21
-34.67
-41.65
-49.12
-56.75
-63.78
-68.96
-70.79
-67.97
-59.91
-47.13
-31.11
-13.93
2.33
16.12
26.66
33.81
37.89
39.39
38.83
36.75
33.72
30.40
27.40
25.24
24.17
24.15
24.78
25.55
25.97
25.77
25.02
24.01
23.05
22.25
21.42
20.05
17.63
13.85
8.82
2.97
-3.10
-8.88
-14.09
-18.72
-22.94
-27.02
-31.26
-36.00
-41.37
-47.21
-52.79
-56.83
-57.84
-54.62
-46.77
-34.96
-20.70
-5.89
7.76
19.11
27.68
33.50
36.85
38.14
37.83
36.44
34.55
32.70
31.36
30.78
31.02
31.91
33.17
34.47
35.54
36.25
36.55
36.42
35.86
34.76
33.03
30.62
27.62
24.22
20.67
17.14
13.64
10.05
6.22
2.05
-2.38
-6.84
-11.06
-14.80
-18.07
-21.11
-24.33
-28.25
-33.35
-39.85
-47.62
-55.95
-63.56
-68.78
-69.95
-66.02
-56.95
-43.84
-28.60
-13.36
0.16
11.00
18.98
24.40
27.71
29.34
29.57
28.71
27.13
25.29
23.70
22.73
22.63
23.41
24.89
26.75
28.66
30.34
31.66
32.59
33.12
33.17
32.57
31.10
28.67
25.38
21.52
17.52
13.74
10.37
7.39
4.57
1.58
-1.78
-5.59
-9.74
-14.00
-18.09
-21.80
-25.04
-27.94
-30.81
-34.10
-38.32
-43.89
-50.84
-58.60
-65.89
-70.87
-71.65
-66.93
-56.59
-41.85
-24.93
-8.28
6.10
17.23
25.15
30.51
34.08
36.38
37.59
37.77
37.09
35.96
34.95
34.55
34.92
35.92
37.20
38.45
39.49
40.31
40.87
40.96
40.21
38.21
34.81
30.24
25.13
20.23
16.16
13.22
11.32
10.16
9.32
8.44
7.22
5.50
3.24
0.58
-2.29
-5.16
-7.96
-10.86
-14.16
-18.24
-23.25
-29.14
-35.49
-41.61
-46.55
-49.30
-48.88
-44.72
-36.78
-25.72
-12.81
0.39
12.39
22.06
28.81
32.47
33.19
31.24
26.93
20.73
13.27
5.39
-1.92
-7.73
-11.36
-12.57
-11.59
-9.05
-5.67
-2.12
1.15
3.89
5.94
7.15
7.33
6.29
4.01
0.66
-3.47
-8.02
-12.70
-17.34
-21.83
-26.05
-29.85
-32.94
-35.12
-36.35
-36.89
-37.27
-38.19
-40.32
-43.95
-48.76
-53.77
-57.39
-57.94
-54.11
-45.47
-32.68
-17.31
-1.37
13.21
25.05
33.51
38.65
40.95
41.07
39.65
37.26
34.37
31.41
28.76
26.77
25.61
25.28
25.56
26.11
26.62
26.92
27.01
26.97
26.82
26.39
25.35
23.34
20.16
15.95
11.17
6.46
2.35
-0.97
-3.73
-6.40
-9.50
-13.30
-17.65
-22.11
-26.11
-29.30
-31.61
-33.41
-35.31
-37.98
-41.92
-47.18
-53.17
-58.61
-61.84
-61.21
-55.69
-45.31
-31.19
-15.24
0.48
14.28
25.21
32.98
37.80
40.03
40.08
38.39
35.49
32.03
28.64
25.89
24.05
23.14
22.95
23.13
23.44
23.72
23.98
24.27
24.58
24.75
24.48
23.46
21.44
18.45
14.76
10.80
7.01
3.62
0.62
-2.21
-5.20
-8.61
-12.48
-16.66
-20.83
-24.67
-28.00
-30.85
-33.49
-36.35
-39.93
-44.58
-50.31
-56.62
-62.42
-66.17
-66.29
-61.67
-52.16
-38.68
-23.00
-7.24
6.82
18.07
26.16
31.30
33.94
34.53
33.49
31.27
28.39
25.48
23.16
21.83
21.62
22.34
23.61
25.00
26.24
27.20
27.87
28.22
28.12
27.32
25.63
23.02
19.74
16.23
12.95
10.18
7.90
5.81
3.50
0.61
-3.01
-7.24
-11.77
-16.13
-19.93
-22.94
-25.30
-27.46
-30.15
-34.07
-39.59
-46.33
-53.07
-57.93
-58.88
-54.54
-44.69
-30.51
-14.17
1.91
15.84
26.73
34.66
40.21
44.03
46.43
47.25
46.07
42.43
36.05
26.97
15.68
3.17
-9.25
-20.10
-28.12
-32.63
-33.66
-31.94
-28.55
-24.58
-20.79
-17.59
-15.07
-13.28
-12.32
-12.32
-13.40
-15.41
-17.98
-20.64
-22.98
-24.90
-26.57
-28.38
-30.73
-33.90
-37.97
-42.81
-48.00
-52.82
-56.21
-56.93
-53.91
-46.63
-35.39
-21.33
-6.05
8.76
21.81
32.32
40.00
44.85
46.99
46.68
44.34
40.63
36.33
32.30
29.25
27.60
27.44
28.49
30.21
31.96
33.14
33.38
32.57
30.86
28.51
25.74
22.62
19.07
14.95
10.14
4.67
-1.21
-7.08
-12.52
-17.17
-20.88
-23.78
-26.22
-28.67
-31.63
-35.55
-40.67
-46.88
-53.54
-59.41
-62.87
-62.32
-56.75
-46.23
-31.92
-15.80
-0.05
13.62
24.27
31.72
36.32
38.55
38.82
37.44
34.79
31.33
27.73
24.72
22.84
22.33
22.98
24.24
25.45
26.09
25.92
25.06
23.82
22.44
21.00
19.30
16.98
13.72
9.43
4.31
-1.22
-6.63
-11.53
-15.76
-19.38
-22.63
-25.84
-29.39
-33.62
-38.81
-44.87
-51.24
-56.73
-59.78
-58.89
-53.18
-42.80
-28.94
-13.50
1.54
14.61
24.82
31.96
36.26
38.10
37.85
35.87
32.51
28.27
23.78
19.70
16.63
14.88
14.44
14.98
16.00
17.07
17.95
18.58
19.01
19.20
18.93
17.93
15.91
12.77
8.66
3.97
-0.79
-5.13
-8.77
-11.65
-14.00
-16.22
-18.84
-22.39
-27.31
-33.75
-41.41
-49.37
-56.13
-59.91
-59.18
-53.16
-42.24
-27.84
-12.01
3.29
16.62
27.31
35.27
40.71
43.83
44.76
43.60
40.66
36.45
31.69
27.17
23.56
21.23
20.15
19.91
19.89
19.50
18.32
16.31
13.74
11.01
8.47
6.21
4.08
1.80
-0.90
-4.07
-7.56
-11.09
-14.41
-17.42
-20.28
-23.29
-26.86
-31.30
-36.79
-43.21
-50.02
-56.29
-60.67
-61.77
-58.48
-50.41
-38.12
-23.05
-7.15
7.66
19.93
28.99
34.77
37.69
38.30
37.12
34.65
31.41
28.01
25.08
23.11
22.32
22.49
23.06
23.37
22.88
21.46
19.37
17.10
15.05
13.30
11.52
9.12
5.57
0.69
-5.20
-11.34
-16.85
-21.05
-23.80
-25.43
-26.72
-28.52
-31.58
-36.25
-42.38
-49.15
-55.20
-58.82
-58.38
-52.90
-42.47
-28.26
-12.25
3.41
17.00
27.58
35.02
39.64
41.84
41.99
40.33
37.25
33.31
29.34
26.14
24.32
24.02
24.95
26.45
27.86
28.70
28.79
28.26
27.34
26.14
24.61
22.49
19.48
15.37
10.25
4.45
-1.54
-7.23
-12.30
-16.75
-20.83
-25.01
-29.82
-35.74
-42.98
-51.34
-59.96
-67.41
-71.81
-71.40
-65.17
-53.27
-37.12
-19.03
-1.50
13.57
25.20
33.34
38.49
41.26
42.07
41.15
38.78
35.47
31.97
29.20
27.81
28.06
29.64
31.89
34.04
35.56
36.28
36.33
36.00
35.44
34.59
33.11
30.58
26.65
21.26
14.70
7.53
0.41
-6.12
-11.80
-16.66
-20.96
-25.05
-29.36
-34.36
-40.51
-48.07
-56.79
-65.69
-73.00
-76.64
-74.92
-67.24
-54.45
-38.55
-21.95
-6.71
6.01
16.00
23.58
29.13
32.89
34.90
35.30
34.46
33.02
31.68
30.94
30.94
31.51
32.34
33.19
34.01
34.86
35.74
36.47
36.65
35.87
33.89
30.81
26.99
22.91
18.91
15.07
11.23
7.17
2.72
-2.09
-7.07
-11.96
-16.58
-20.83
-24.76
-28.51
-32.37
-36.73
-42.00
-48.39
-55.56
-62.39
-67.15
-67.84
-62.99
-52.22
-36.58
-18.21
0.28
16.63
29.46
38.38
43.78
46.38
46.92
45.97
43.93
41.18
38.15
35.33
33.16
31.98
31.82
32.47
33.55
34.62
35.33
35.51
35.09
34.10
32.57
30.50
27.92
24.88
21.45
17.68
13.59
9.13
4.28
-0.86
-6.11
-11.14
-15.63
-19.36
-22.35
-24.89
-27.54
-30.95
-35.67
-41.93
-49.37
-56.92
-62.92
-65.42
-62.88
-54.60
-41.19
-24.36
-6.44
10.33
24.34
34.85
41.87
45.78
47.05
46.09
43.28
39.14
34.36
29.74
26.03
23.75
23.08
23.82
25.45
27.32
28.81
29.47
29.04
27.54
25.18
22.21
18.88
15.27
11.33
6.91
1.90
-3.62
-9.40
-15.05
-20.20
-24.71
-28.61
-32.10
-35.47
-38.97
-42.92
-47.58
-53.03
-58.88
-64.11
-67.09
-66.12
-60.01
-48.78
-33.70
-16.94
-0.86
12.72
22.86
29.47
32.94
33.82
32.61
29.81
26.00
21.89
18.23
15.64
14.42
14.54
15.73
17.56
19.66
21.73
23.54
24.92
25.73
25.83
25.14
23.67
21.49
18.70
15.38
11.54
7.20
2.38
-2.77
-8.00
-12.91
-17.11
-20.33
-22.49
-23.86
-24.94
-26.47
-29.15
-33.45
-39.31
-45.98
-52.05
-55.83
-55.83
-51.35
-42.76
-31.43
-19.35
-8.53
-0.46
4.15
5.49
4.39
1.99
-0.62
-2.65
-3.72
-3.78
-2.93
-1.27
1.21
4.64
9.09
14.51
20.61
26.93
32.86
37.74
41.01
42.36
41.78
39.59
36.32
32.48
28.46
24.39
20.22
15.87
11.24
6.27
0.96
-4.68
-10.52
-16.33
-21.84
-26.86
-31.51
-36.25
-41.70
-48.19
-55.40
-62.07
-66.26
-66.00
-60.05
-48.49
-32.67
-14.85
2.59
17.85
29.95
38.68
44.27
47.07
47.42
45.67
42.34
38.09
33.72
29.97
27.39
26.25
26.51
27.87
29.76
31.60
32.83
33.14
32.54
31.29
29.76
28.14
26.37
24.04
20.65
15.74
9.16
1.12
-7.88
-17.17
-26.06
-34.01
-40.65
-45.88
-49.88
-53.09
-56.11
-59.50
-63.43
-67.51
-70.71
-71.55
-68.58
-60.98
-48.88
-33.43
-16.50
-0.06
14.26
25.53
33.40
37.97
39.54
38.51
35.43
31.05
26.32
22.20
19.40
18.19
18.33
19.23
20.25
20.93
21.07
20.80
20.27
19.57
18.58
17.02
14.52
10.86
6.01
0.21
-6.06
-12.29
-18.03
-23.13
-27.73
-32.27
-37.31
-43.32
-50.48
-58.45
-66.31
-72.64
-75.75
-74.17
-67.13
-54.90
-38.80
-20.89
-3.37
11.98
24.09
32.68
37.98
40.49
40.68
38.98
35.86
31.92
27.87
24.51
22.42
21.86
22.60
24.05
25.46
26.28
26.30
25.73
24.90
24.06
23.10
21.55
18.80
14.45
8.53
1.59
-5.48
-11.84
-16.97
-20.91
-24.18
-27.56
-31.80
-37.41
-44.54
-52.83
-61.39
-68.77
-73.15
-72.80
-66.61
-54.58
-38.00
-19.14
-0.54
15.66
28.25
36.96
42.15
44.44
44.36
42.35
38.88
34.63
30.46
27.23
25.53
25.49
26.70
28.39
29.76
30.24
29.73
28.50
26.99
25.60
24.36
23.00
20.98
17.81
13.25
7.47
0.96
-5.59
-11.57
-16.64
-20.80
-24.35
-27.71
-31.37
-35.72
-41.02
-47.26
-53.96
-60.03
-63.82
-63.52
-57.77
-46.30
-30.19
-11.60
6.89
23.14
35.93
45.05
50.89
53.99
54.73
53.33
50.07
45.55
40.62
36.24
33.15
31.66
31.59
32.39
33.48
34.38
34.84
34.88
34.53
33.83
32.69
30.88
28.13
24.27
19.34
13.57
7.35
1.14
-4.71
-10.00
-14.69
-18.97
-23.07
-27.33
-32.11
-37.77
-44.55
-52.38
-60.65
-68.18
-73.41
-74.86
-71.68
-63.99
-52.92
-40.18
-27.52
-16.18
-6.75
0.75
6.50
10.61
13.08
13.91
13.37
12.10
10.99
10.91
12.32
15.09
18.61
22.05
24.77
26.55
27.57
28.18
28.61
28.79
28.32
26.70
23.55
18.85
13.01
6.66
0.56
-4.72
-8.94
-12.28
-15.23
-18.42
-22.48
-27.81
-34.51
-42.12
-49.60
-55.30
-57.40
-54.42
-45.83
-32.41
-16.08
0.74
15.81
27.72
35.98
40.78
42.61
41.92
39.14
34.81
29.65
24.55
20.34
17.52
16.19
16.03
16.55
17.32
18.09
18.76
19.29
19.51
19.11
17.64
14.78
10.38
4.70
-1.72
-8.19
-14.13
-19.24
-23.64
-27.85
-32.58
-38.54
-45.99
-54.46
-62.59
-68.33
-69.55
-64.75
-53.78
-37.92
-19.54
-1.29
14.72
27.32
36.28
41.91
44.63
44.77
42.64
38.77
34.00
29.38
25.88
24.03
23.78
24.56
25.52
25.95
25.54
24.43
23.05
21.75
20.55
19.04
16.56
12.55
6.98
0.36
-6.44
-12.53
-17.46
-21.28
-24.54
-27.90
-31.99
-37.21
-43.74
-51.44
-59.61
-66.91
-71.44
-71.21
-64.90
-52.49
-35.47
-16.37
2.02
17.57
29.26
37.17
41.96
44.38
44.98
44.10
42.07
39.36
36.61
34.48
33.37
33.31
33.94
34.74
35.20
35.08
34.44
33.53
32.59
31.68
30.60
29.00
26.55
23.10
18.72
13.67
8.27
2.83
-2.43
-7.35
-11.82
-15.76
-19.17
-22.12
-24.83
-27.72
-31.34
-36.27
-42.84
-50.72
-58.73
-64.86
-66.80
-62.73
-52.08
-35.88
-16.49
3.19
20.62
34.28
43.78
49.53
52.29
52.77
51.55
49.10
45.87
42.33
38.93
36.07
33.95
32.59
31.76
31.02
29.80
27.60
24.16
19.54
14.24
8.94
4.36
0.96
-1.20
-2.51
-3.64
-5.33
-8.10
-12.10
-17.04
-22.31
-27.24
-31.29
-34.22
-36.14
-37.39
-38.51
-40.10
-42.74
-46.84
-52.35
-58.54
-63.92
-66.56
-64.64
-57.15
-44.33
-27.71
-9.56
7.77
22.53
33.81
41.44
45.67
46.85
45.34
41.67
36.62
31.28
26.78
23.98
23.18
24.06
25.85
27.71
29.06
29.71
29.76
29.38
28.55
27.05
24.51
20.64
15.52
9.57
3.46
-2.13
-6.75
-10.41
-13.45
-16.54
-20.38
-25.53
-32.19
-39.99
-47.89
-54.26
-57.29
-55.47
-48.23
-36.22
-21.20
-5.44
8.96
20.61
29.03
34.32
36.80
36.72
34.25
29.68
23.71
17.44
12.22
9.17
8.80
10.83
14.25
17.79
20.35
21.41
21.11
20.04
18.87
18.02
17.57
17.35
17.20
17.11
17.21
17.64
18.36
19.11
19.42
18.80
16.87
13.38
8.16
1.10
-7.75
-17.89
-28.20
-36.90
-42.07
-42.27
-37.32
-28.42
-17.83
-7.91
-0.29
4.66
7.71
10.05
12.62
15.60
18.58
20.87
22.07
22.22
21.71
21.02
20.46
20.02
19.48
18.59
17.22
15.46
13.48
11.48
9.53
7.61
5.60
3.35
0.74
-2.31
-5.87
-9.90
-14.32
-18.87
-23.25
-27.11
-30.25
-32.66
-34.61
-36.56
-39.11
-42.82
-48.08
-54.81
-62.32
-69.18
-73.46
-73.22
-67.21
-55.41
-39.14
-20.67
-2.54
13.16
25.26
33.55
38.48
40.72
40.93
39.64
37.34
34.52
31.73
29.46
28.04
27.55
27.82
28.49
29.18
29.56
29.43
28.72
27.43
25.60
23.30
20.61
17.59
14.29
10.67
6.63
2.08
-2.95
-8.31
-13.68
-18.71
-23.11
-26.82
-29.97
-32.90
-35.99
-39.67
-44.28
-49.95
-56.41
-62.81
-67.70
-69.31
-66.06
-57.24
-43.37
-26.22
-8.28
8.02
20.98
29.96
35.20
37.42
37.37
35.61
32.57
28.72
24.67
21.11
18.59
17.35
17.23
17.76
18.41
18.81
18.84
18.58
18.18
17.63
16.71
15.00
12.13
7.91
2.52
-3.52
-9.53
-14.87
-19.22
-22.61
-25.42
-28.25
-31.74
-36.33
-42.14
-48.70
-54.88
-59.06
-59.52
-55.03
-45.42
-31.69
-15.81
-0.10
13.44
23.58
29.94
32.81
32.82
30.74
27.42
23.77
20.67
18.87
18.83
20.53
23.54
27.04
30.15
32.14
32.60
31.54
29.27
26.25
22.89
19.50
16.21
13.06
9.94
6.61
2.70
-2.27
-8.67
-16.62
-25.91
-36.01
-46.24
-55.79
-63.75
-69.00
-70.35
-66.83
-58.13
-44.92
-28.84
-12.14
3.06
15.23
23.79
28.91
31.19
31.23
29.54
26.55
22.74
18.77
15.28
12.79
11.47
11.15
11.39
11.71
11.87
11.84
11.82
11.94
12.12
11.96
10.90
8.43
4.44
-0.79
-6.59
-12.23
-17.13
-21.10
-24.33
-27.38
-30.92
-35.60
-41.80
-49.33
-57.27
-63.96
-67.34
-65.65
-58.04
-45.09
-28.58
-11.04
5.14
18.35
28.00
34.28
37.76
38.95
38.17
35.72
32.05
27.88
24.09
21.49
20.49
20.99
22.40
23.96
24.97
25.11
24.42
23.24
21.92
20.68
19.39
17.71
15.16
11.41
6.43
0.61
-5.41
-10.96
-15.53
-19.01
-21.71
-24.21
-27.24
-31.48
-37.32
-44.59
-52.38
-59.01
-62.38
-60.66
-52.94
-39.76
-22.97
-5.14
11.25
24.51
34.04
40.02
43.05
43.71
42.40
39.41
35.12
30.12
25.09
20.63
17.03
14.21
11.77
9.20
6.25
3.03
0.10
-1.86
-2.39
-1.52
0.03
1.16
0.77
-1.76
-6.28
-11.96
-17.68
-22.47
-25.90
-28.18
-29.96
-31.97
-34.77
-38.65
-43.65
-49.52
-55.57
-60.62
-63.11
-61.36
-54.35
-42.12
-26.02
-8.29
8.59
22.66
32.91
39.26
42.22
42.44
40.56
37.16
32.87
28.40
24.43
21.50
19.82
19.26
19.50
20.13
20.80
21.27
21.35
20.90
19.77
17.82
14.95
11.17
6.59
1.47
-3.85
-9.02
-13.81
-18.19
-22.36
-26.76
-31.90
-38.09
-45.14
-52.13
-57.47
-59.29
-56.08
-47.33
-33.85
-17.58
-0.98
13.73
25.16
32.92
37.36
39.12
38.81
36.82
33.51
29.29
24.75
20.63
17.56
15.86
15.48
16.01
16.95
17.83
18.38
18.46
17.97
16.69
14.38
10.84
6.14
0.62
-5.14
-10.62
-15.52
-19.93
-24.27
-29.16
-35.13
-42.31
-50.21
-57.58
-62.64
-63.47
-58.70
-48.05
-32.54
-14.25
4.28
20.78
33.84
42.98
48.44
50.81
50.71
48.67
45.24
41.03
36.77
33.16
30.62
29.16
28.41
27.84
27.03
25.86
24.55
23.38
22.43
21.36
19.47
15.98
10.43
2.90
-5.96
-15.19
-23.84
-31.25
-37.20
-41.93
-46.06
-50.37
-55.58
-61.93
-68.85
-74.83
-77.77
-75.68
-67.52
-53.68
-36.01
-17.07
0.65
15.46
26.76
34.76
40.05
43.20
44.61
44.54
43.34
41.47
39.51
37.95
37.05
36.85
37.17
37.71
38.20
38.46
38.33
37.67
36.38
34.37
31.66
28.33
24.49
20.21
15.44
10.12
4.30
-1.76
-7.66
-12.99
-17.55
-21.44
-25.02
-28.75
-33.09
-38.42
-44.97
-52.73
-61.20
-69.18
-74.85
-76.21
-71.76
-61.19
-45.60
-27.23
-8.68
7.88
21.17
30.92
37.49
41.49
43.50
43.99
43.40
42.17
40.78
39.65
39.07
39.18
39.96
41.26
42.79
44.15
44.94
44.82
43.63
41.45
38.49
35.05
31.36
27.54
23.53
19.19
14.37
9.00
3.16
-2.91
-8.88
-14.44
-19.35
-23.60
-27.41
-31.25
-35.71
-41.44
-48.91
-58.09
-68.29
-78.06
-85.42
-88.44
-85.79
-77.25
-63.80
-47.25
-29.72
-13.01
1.65
13.69
22.96
29.51
33.41
34.81
34.01
31.59
28.31
25.03
22.48
21.14
21.15
22.32
24.20
26.13
27.36
27.21
25.13
20.89
14.54
6.44
-2.79
-12.35
-21.23
-28.46
-33.26
-35.43
-35.49
-34.65
-34.47
-36.33
-40.92
-48.01
-56.35
-64.08
-69.03
-69.34
-63.95
-52.96
-37.71
-20.39
-3.49
11.05
22.21
29.98
35.01
38.07
39.68
40.02
39.14
37.20
34.59
31.87
29.56
27.92
26.98
26.61
26.64
27.02
27.73
28.61
29.28
29.23
27.94
25.15
21.06
16.19
11.22
6.67
2.72
-0.86
-4.61
-9.21
-15.28
-23.04
-32.05
-41.05
-48.05
-50.94
-48.12
-39.23
-25.35
-8.76
7.84
22.12
32.66
39.15
42.00
42.08
40.27
37.29
33.70
29.93
26.32
23.13
20.57
18.75
17.70
17.34
17.43
17.69
17.78
17.41
16.40
14.65
12.16
9.02
5.38
1.45
-2.55
-6.43
-10.09
-13.66
-17.46
-22.05
-28.00
-35.59
-44.44
-53.25
-60.02
-62.58
-59.39
-50.20
-36.28
-19.91
-3.60
10.75
22.27
30.99
37.36
41.74
44.21
44.73
43.46
40.91
37.92
35.35
33.73
33.08
32.99
32.81
32.06
30.59
28.61
26.47
24.43
22.45
20.14
17.03
12.85
7.76
2.36
-2.53
-6.27
-8.69
-10.20
-11.70
-14.28
-18.86
-25.91
-35.19
-45.59
-55.28
-62.10
-64.08
-60.12
-50.42
-36.36
-20.15
-4.03
10.30
21.97
30.88
37.28
41.47
43.57
43.61
41.71
38.30
34.11
30.06
26.97
25.32
25.07
25.81
26.94
27.99
28.75
29.26
29.56
29.56
28.92
27.19
24.13
19.81
14.69
9.39
4.48
0.14
-3.85
-8.07
-13.29
-20.16
-28.82
-38.63
-48.05
-54.93
-57.04
-52.91
-42.41
-26.98
-9.16
8.10
22.34
32.14
37.28
38.45
36.80
33.48
29.45
25.32
21.48
18.12
15.34
13.15
11.55
10.51
9.96
9.81
9.89
10.01
9.92
9.38
8.15
6.10
3.16
-0.56
-4.89
-9.58
-14.44
-19.42
-24.63
-30.39
-37.05
-44.66
-52.73
-60.03
-64.81
-65.24
-60.15
-49.51
-34.60
-17.59
-0.86
13.76
25.34
33.78
39.38
42.44
43.04
41.17
37.02
31.20
24.70
18.64
13.96
11.10
9.95
9.97
10.45
10.69
10.21
8.76
6.31
2.97
-1.05
-5.58
-10.44
-15.57
-20.96
-26.69
-32.88
-39.69
-47.10
-54.81
-62.09
-67.69
-70.15
-68.16
-61.06
-49.21
-33.96
-17.32
-1.40
12.18
22.55
29.62
33.81
35.74
35.97
34.91
32.84
30.07
26.95
23.91
21.37
19.67
18.90
18.91
19.39
19.93
20.13
19.67
18.40
16.24
13.21
9.46
5.18
0.61
-4.10
-8.91
-13.99
-19.61
-26.13
-33.68
-41.97
-50.14
-56.71
-59.97
-58.46
-51.52
-39.60
-24.24
-7.58
8.24
21.59
31.65
38.28
41.82
42.74
41.61
38.98
35.51
31.88
28.70
26.39
25.02
24.40
24.11
23.78
23.19
22.38
21.50
20.68
19.82
18.62
16.61
13.49
9.23
4.15
-1.20
-6.32
-10.93
-15.07
-19.12
-23.61
-29.04
-35.60
-42.92
-49.98
-55.18
-56.83
-53.65
-45.32
-32.65
-17.39
-1.66
12.62
24.12
32.31
37.24
39.33
39.16
37.33
34.40
30.90
27.32
24.04
21.27
19.08
17.36
16.02
15.02
14.46
14.50
15.19
16.34
17.50
18.10
17.73
16.28
13.89
10.75
6.96
2.43
-2.98
-9.32
-16.50
-24.36
-32.77
-41.59
-50.43
-58.36
-63.86
-65.18
-60.99
-51.10
-36.68
-20.03
-3.71
10.20
20.63
27.54
31.53
33.31
33.34
31.80
28.70
24.17
18.61
12.66
7.08
2.53
-0.63
-2.35
-2.92
-2.71
-2.13
-1.45
-0.86
-0.41
-0.19
-0.23
-0.64
-1.49
-2.92
-5.03
-7.98
-11.98
-17.27
-24.00
-31.99
-40.50
-48.08
-52.89
-53.12
-47.75
-36.93
-22.15
-5.74
9.78
22.47
31.35
36.37
38.11
37.30
34.60
30.50
25.41
19.85
14.43
9.80
6.49
4.75
4.45
5.14
6.16
6.88
6.82
5.77
3.77
1.01
-2.29
-5.92
-9.78
-13.82
-17.98
-22.29
-26.84
-31.84
-37.48
-43.71
-49.97
-55.08
-57.44
-55.57
-48.69
-37.15
-22.35
-6.41
8.54
20.95
30.10
35.95
38.89
39.38
37.89
34.88
30.88
26.54
22.44
19.06
16.54
14.82
13.65
12.76
11.91
10.94
9.71
8.11
6.03
3.42
0.28
-3.31
-7.17
-11.11
-14.96
-18.58
-22.02
-25.52
-29.52
-34.44
-40.34
-46.69
-52.20
-55.18
-53.94
-47.56
-36.19
-21.15
-4.55
11.38
24.84
34.84
41.13
44.00
43.95
41.60
37.62
32.80
27.98
23.90
21.05
19.51
18.97
18.92
18.94
18.81
18.55
18.31
18.13
17.81
16.96
15.13
12.09
7.90
2.94
-2.26
-7.20
-11.63
-15.63
-19.58
-24.01
-29.44
-36.17
-44.00
-52.17
-59.29
-63.59
-63.43
-57.82
-46.83
-31.68
-14.42
2.60
17.34
28.52
35.71
39.19
39.60
37.73
34.36
30.19
25.97
22.36
19.86
18.70
18.70
19.35
20.02
20.24
19.84
18.98
17.86
16.55
14.82
12.28
8.60
3.73
-1.94
-7.80
-13.14
-17.52
-20.84
-23.40
-25.78
-28.72
-32.90
-38.72
-45.98
-53.64
-59.94
-62.80
-60.48
-52.35
-39.13
-22.76
-5.76
9.60
21.80
30.34
35.43
37.63
37.50
35.46
31.91
27.32
22.32
17.60
13.75
11.20
10.01
9.96
10.61
11.40
11.83
11.58
10.50
8.63
6.08
3.03
-0.38
-3.95
-7.53
-10.92
-14.08
-17.20
-20.74
-25.31
-31.36
-38.71
-46.35
-52.54
-55.27
-52.98
-45.18
-32.73
-17.49
-1.81
12.22
23.19
30.56
34.47
35.40
34.03
31.00
26.95
22.50
18.26
14.78
12.43
11.34
11.41
12.30
13.54
14.64
15.20
14.96
13.84
11.83
9.01
5.51
1.46
-3.02
-7.79
-12.80
-18.05
-23.68
-29.88
-36.75
-44.01
-50.75
-55.53
-56.59
-52.54
-42.90
-28.41
-11.02
6.80
22.70
35.07
43.28
47.52
48.44
46.80
43.28
38.50
33.02
27.46
22.42
18.45
15.90
14.90
15.30
16.71
18.50
19.92
20.26
18.98
15.92
11.40
6.07
0.70
-4.14
-8.23
-11.71
-14.95
-18.33
-22.18
-26.83
-32.52
-39.26
-46.50
-52.91
-56.51
-55.28
-47.94
-34.68
-17.26
1.53
18.76
32.35
41.46
46.38
48.01
47.24
44.71
40.78
35.75
30.07
24.31
19.06
14.80
11.69
9.57
8.10
6.82
5.38
3.58
1.38
-1.16
-4.01
-7.18
-10.72
-14.59
-18.64
-22.57
-26.06
-29.02
-31.72
-34.76
-38.83
-44.22
-50.37
-55.83
-58.48
-56.33
-48.27
-34.65
-17.26
1.24
18.18
31.66
40.92
46.27
48.44
48.19
45.89
41.59
35.39
27.70
19.44
11.88
6.23
3.16
2.59
3.71
5.41
6.67
7.01
6.46
5.36
4.06
2.63
0.87
-1.54
-4.88
-9.28
-14.74
-21.21
-28.62
-36.72
-44.88
-51.97
-56.39
-56.56
-51.40
-40.86
-26.13
-9.33
7.11
21.13
31.57
38.21
41.53
42.26
41.00
38.15
34.01
29.02
23.79
19.04
15.42
13.19
12.15
11.65
10.84
8.99
5.66
0.97
-4.55
-10.15
-15.14
-19.15
-22.26
-24.88
-27.62
-31.05
-35.60
-41.37
-48.05
-54.79
-60.22
-62.66
-60.58
-53.13
-40.60
-24.41
-6.77
10.00
24.09
34.49
41.03
44.06
44.20
42.15
38.62
34.33
29.95
25.97
22.61
19.83
17.50
15.49
13.85
12.73
12.26
12.39
12.82
13.06
12.62
11.14
8.52
4.86
0.39
-4.57
-9.73
-14.89
-20.01
-25.24
-30.91
-37.32
-44.30
-51.05
-56.02
-57.34
-53.45
-43.80
-29.14
-11.36
7.13
24.10
38.09
48.48
55.37
59.22
60.61
60.15
58.50
56.41
54.56
53.44
53.17
53.52
54.06
54.37
54.25
53.76
53.03
52.13
50.94
49.17
46.53
42.86
38.22
32.83
26.93
20.69
14.21
7.57
0.88
-5.91
-13.03
-21.04
-30.63
-42.27
-55.90
-70.79
-85.75
-99.52
-111.02
-119.41
-123.83
-123.30
-116.86
-104.00
-85.22
-62.26
-37.82
-14.81
4.52
19.11
29.10
35.34
38.83
40.26
40.02
38.39
35.78
32.83
30.30
28.75
28.38
28.90
29.78
30.42
30.45
29.82
28.73
27.44
26.06
24.49
22.40
19.44
15.43
10.46
4.97
-0.41
-5.06
-8.71
-11.49
-13.96
-16.88
-20.91
-26.47
-33.43
-41.11
-48.25
-53.26
-54.52
-50.92
-42.30
-29.56
-14.50
0.78
14.44
25.33
33.07
37.74
39.66
39.17
36.68
32.82
28.45
24.52
21.80
20.59
20.66
21.48
22.40
23.05
23.31
23.31
23.17
22.80
21.90
20.04
16.93
12.51
7.09
1.18
-4.64
-9.97
-14.64
-18.76
-22.69
-26.93
-32.01
-38.28
-45.56
-52.94
-58.82
-61.27
-58.70
-50.50
-37.36
-21.14
-4.21
11.26
23.86
33.11
39.17
42.49
43.53
42.64
40.25
36.94
33.47
30.59
28.84
28.29
28.61
29.24
29.68
29.77
29.66
29.67
30.00
30.59
31.06
30.93
29.79
27.53
24.30
20.38
16.06
11.47
6.59
1.37
-4.24
-10.16
-16.20
-22.09
-27.51
-32.19
-35.97
-38.91
-41.33
-43.83
-47.16
-51.92
-58.20
-65.21
-71.22
-74.00
-71.53
-62.77
-48.18
-29.63
-9.75
8.92
24.61
36.56
44.80
49.69
51.66
51.08
48.48
44.68
40.75
37.65
35.97
35.68
36.20
36.76
36.75
35.99
34.78
33.64
32.99
32.86
32.87
32.28
30.42
26.85
21.68
15.43
8.90
2.87
-2.20
-6.22
-9.54
-12.76
-16.58
-21.50
-27.69
-34.87
-42.33
-49.20
-54.66
-58.40
-60.68
-62.36
-64.61
-68.38
-73.90
-80.38
-86.08
-88.71
-86.23
-77.58
-63.07
-44.39
-23.99
-4.40
12.47
25.66
35.01
40.86
43.69
43.99
42.23
39.05
35.25
31.67
28.97
27.47
27.12
27.57
28.40
29.32
30.18
30.93
31.51
31.72
31.26
29.87
27.46
24.19
20.44
16.65
13.11
9.92
6.88
3.72
0.14
-3.99
-8.60
-13.47
-18.25
-22.60
-26.35
-29.52
-32.47
-35.76
-40.04
-45.78
-52.85
-60.32
-66.50
-69.28
-66.88
-58.45
-44.51
-26.83
-7.90
9.85
24.64
35.69
42.98
46.96
48.14
46.99
43.93
39.54
34.56
29.86
26.18
23.97
23.23
23.60
24.50
25.43
26.05
26.28
26.12
25.53
24.44
22.66
20.09
16.76
12.86
8.65
4.34
0.03
-4.32
-8.73
-13.14
-17.34
-21.03
-24.00
-26.28
-28.16
-30.17
-32.94
-36.99
-42.60
-49.51
-56.89
-63.24
-66.72
-65.60
-58.88
-46.77
-30.69
-12.94
4.07
18.45
29.25
36.37
40.21
41.27
39.96
36.63
31.78
26.20
20.88
16.71
14.23
13.39
13.66
14.35
14.88
15.05
14.99
14.94
14.99
14.86
14.02
11.84
7.98
2.53
-3.90
-10.44
-16.25
-20.89
-24.42
-27.38
-30.50
-34.50
-39.79
-46.28
-53.34
-59.73
-63.86
-64.10
-59.35
-49.43
-35.30
-18.81
-2.13
12.81
24.77
33.32
38.56
40.83
40.48
37.94
33.67
28.39
22.96
18.20
14.71
12.69
11.94
12.01
12.40
12.80
13.12
13.44
13.80
14.08
13.91
12.78
10.26
6.22
0.96
-4.89
-10.57
-15.50
-19.52
-22.93
-26.40
-30.67
-36.35
-43.58
-51.84
-59.89
-65.97
-68.23
-65.28
-56.72
-43.34
-26.91
-9.67
6.33
19.68
29.74
36.47
40.11
41.03
39.63
36.47
32.30
27.98
24.28
21.71
20.36
20.00
20.17
20.45
20.60
20.60
20.57
20.63
20.73
20.57
19.68
17.60
14.07
9.20
3.49
-2.37
-7.69
-12.09
-15.62
-18.73
-22.11
-26.49
-32.37
-39.75
-47.91
-55.41
-60.32
-60.75
-55.48
-44.51
-29.05
-11.22
6.62
22.47
35.17
44.28
49.92
52.37
52.02
49.28
44.77
39.32
33.89
29.41
26.50
25.33
25.64
26.86
28.31
29.47
30.01
29.84
29.03
27.70
25.95
23.81
21.20
17.96
13.85
8.62
2.12
-5.50
-13.88
-22.43
-30.57
-37.88
-44.25
-49.89
-55.25
-60.83
-66.93
-73.34
-79.16
-82.84
-82.62
-77.12
-65.97
-50.11
-31.58
-12.94
3.57
16.59
25.77
31.53
34.50
35.27
34.21
31.67
28.23
24.67
21.91
20.57
20.79
22.15
23.86
25.17
25.70
25.51
24.99
24.57
24.38
24.14
23.26
21.07
17.12
11.39
4.32
-3.29
-10.54
-16.71
-21.49
-25.04
-27.90
-30.81
-34.41
-39.13
-44.97
-51.42
-57.43
-61.50
-62.05
-57.87
-48.55
-34.80
-18.21
-0.91
15.05
28.17
37.69
43.45
45.70
44.93
41.74
36.94
31.48
26.28
22.11
19.36
18.05
17.87
18.39
19.23
20.14
20.96
21.54
21.68
21.07
19.43
16.58
12.57
7.68
2.31
-3.10
-8.28
-13.15
-17.91
-22.91
-28.60
-35.24
-42.66
-50.04
-55.94
-58.60
-56.51
-49.05
-36.79
-21.38
-5.06
10.11
22.69
32.02
38.08
41.13
41.49
39.58
35.96
31.44
26.96
23.35
21.08
20.15
20.15
20.56
20.94
21.11
21.15
21.20
21.24
20.93
19.76
17.21
13.01
7.37
0.84
-5.82
-11.96
-17.25
-21.76
-25.85
-30.10
-35.13
-41.35
-48.73
-56.54
-63.29
-66.99
-65.79
-58.63
-45.76
-28.75
-10.05
7.81
22.92
34.33
42.03
46.54
48.54
48.63
47.26
44.83
41.83
38.80
36.30
34.73
34.22
34.55
35.27
35.87
36.05
35.77
35.26
34.72
34.12
33.12
31.21
28.03
23.61
18.48
13.36
8.87
5.18
1.96
-1.42
-5.49
-10.40
-15.82
-21.14
-25.75
-29.42
-32.30
-34.91
-37.89
-41.87
-47.26
-54.20
-62.25
-70.29
-76.54
-78.89
-75.57
-65.87
-50.56
-31.72
-12.17
5.54
19.76
29.99
36.64
40.51
42.33
42.63
41.78
40.16
38.30
36.74
35.90
35.98
36.88
38.28
39.82
41.22
42.29
42.98
43.22
42.97
42.14
40.61
38.35
35.39
31.83
27.83
23.55
19.16
14.86
10.87
7.34
4.29
1.58
-1.07
-3.97
-7.32
-11.16
-15.30
-19.44
-23.28
-26.63
-29.49
-32.04
-34.60
-37.65
-41.73
-47.30
-54.53
-62.93
-71.28
-77.64
-79.85
-76.27
-66.38
-51.09
-32.53
-13.35
4.02
18.03
28.19
34.82
38.62
40.31
40.42
39.35
37.48
35.26
33.18
31.66
30.93
30.97
31.52
32.24
32.85
33.22
33.30
33.10
32.51
31.30
29.20
26.09
22.07
17.51
12.90
8.60
4.75
1.18
-2.40
-6.23
-10.31
-14.37
-18.01
-20.91
-22.99
-24.52
-26.06
-28.30
-31.86
-37.02
-43.46
-50.20
-55.60
-57.81
-55.29
-47.45
-34.89
-19.33
-2.99
12.02
24.29
33.25
39.02
41.99
42.58
41.18
38.17
34.16
30.02
26.69
24.91
25.00
26.70
29.36
32.18
34.61
36.46
37.91
39.16
40.19
40.61
39.69
36.74
31.40
23.93
15.17
6.32
-1.47
-7.45
-11.51
-14.13
-16.26
-18.91
-22.93
-28.59
-35.41
-42.08
-46.69
-47.27
-42.55
-32.59
-19.07
-4.91
6.59
12.89
12.94
7.45
-1.65
-12.03
-21.74
-29.68
-35.51
-39.22
-40.83
-40.19
-37.13
-31.78
-24.76
-17.15
-10.10
-4.46
-0.50
2.15
4.11
5.95
7.74
9.06
9.20
7.52
3.80
-1.58
-7.79
-13.81
-18.82
-22.46
-24.96
-27.00
-29.40
-32.92
-37.96
-44.48
-51.88
-58.96
-64.09
-65.53
-61.93
-52.87
-39.13
-22.53
-5.39
10.14
22.69
31.73
37.46
40.37
40.95
39.62
36.78
32.99
28.96
25.41
22.91
21.71
21.70
22.43
23.38
24.05
24.20
23.87
23.27
22.60
21.92
20.97
19.32
16.53
12.40
7.12
1.19
-4.71
-10.02
-14.49
-18.23
-21.63
-25.18
-29.37
-34.52
-40.73
-47.76
-54.88
-60.83
-63.99
-62.80
-56.32
-44.72
-29.36
-12.38
3.90
17.71
28.20
35.39
39.77
41.92
42.24
41.00
38.48
35.13
31.60
28.55
26.47
25.57
25.72
26.53
27.56
28.35
28.61
28.18
27.11
25.52
23.55
21.23
18.44
14.96
10.68
5.63
0.11
-5.40
-10.42
-14.69
-18.22
-21.32
-24.39
-27.80
-31.85
-36.73
-42.49
-48.92
-55.34
-60.55
-62.96
-61.08
-54.07
-42.17
-26.75
-9.93
6.12
19.72
30.02
36.90
40.67
41.74
40.51
37.41
33.05
28.23
23.83
20.59
18.85
18.48
18.94
19.57
19.84
19.61
19.08
18.59
18.27
17.92
16.99
14.87
11.23
6.20
0.40
-5.36
-10.43
-14.56
-17.95
-21.18
-24.96
-29.92
-36.32
-43.87
-51.59
-57.87
-60.86
-59.04
-51.81
-39.78
-24.66
-8.68
6.09
18.30
27.41
33.54
37.00
38.08
36.98
34.03
29.83
25.27
21.34
18.79
17.90
18.42
19.73
21.10
22.01
22.27
22.03
21.57
21.07
20.42
19.19
16.81
12.86
7.30
0.60
-6.42
-12.85
-18.09
-22.00
-25.00
-27.85
-31.38
-36.19
-42.38
-49.35
-55.84
-60.03
-60.02
-54.45
-42.94
-26.37
-6.62
13.95
33.19
49.62
62.55
71.83
77.58
79.93
79.07
75.42
69.74
63.09
56.65
51.30
47.48
45.03
43.38
41.78
39.63
36.68
33.13
29.52
26.45
24.22
22.46
19.94
14.88
5.54
-8.91
-27.72
-48.59
-68.32
-83.94
-93.76
-97.83
-97.64
-95.33
-92.83
-91.39
-91.48
-92.99
-95.33
-97.41
-97.73
-94.57
-86.56
-73.32
-55.73
-35.83
-16.13
1.12
14.56
23.88
29.59
32.56
33.71
33.74
33.16
32.38
31.77
31.60
32.07
33.13
34.54
35.92
36.88
37.23
37.01
36.46
35.84
35.24
34.49
33.13
30.68
26.80
21.55
15.38
8.99
3.05
-2.05
-6.32
-10.13
-13.98
-18.34
-23.57
-29.85
-37.20
-45.23
-53.03
-59.14
-61.76
-59.37
-51.30
-38.17
-21.78
-4.55
11.24
24.08
33.43
39.55
42.96
44.16
43.41
40.89
36.97
32.32
27.91
24.64
23.11
23.31
24.63
26.17
27.12
27.12
26.29
25.07
23.86
22.78
21.55
19.66
16.65
12.33
6.90
0.87
-5.09
-10.43
-14.87
-18.46
-21.53
-24.58
-28.13
-32.60
-38.18
-44.69
-51.39
-56.98
-59.80
-58.27
-51.48
-39.68
-24.28
-7.50
8.41
21.72
31.62
38.09
41.49
42.27
40.77
37.38
32.70
27.58
22.98
19.72
18.16
18.15
19.07
20.18
20.90
21.02
20.71
20.33
20.15
20.05
19.55
18.01
14.91
10.17
4.21
-2.22
-8.30
-13.50
-17.75
-21.41
-25.09
-29.42
-34.92
-41.75
-49.63
-57.66
-64.34
-67.80
-66.30
-58.91
-45.96
-29.09
-10.78
6.38
20.48
30.67
37.10
40.52
41.71
41.22
39.33
36.26
32.39
28.37
24.97
22.80
22.14
22.86
24.42
26.16
27.50
28.10
27.88
26.92
25.35
23.26
20.64
17.48
13.77
9.56
4.95
0.06
-4.94
-9.89
-14.65
-19.11
-23.17
-26.81
-30.13
-33.41
-37.07
-41.70
-47.78
-55.39
-63.86
-71.64
-76.52
-76.30
-69.64
-56.63
-38.93
-19.26
-0.49
15.20
26.81
34.43
38.76
40.61
40.59
39.11
36.55
33.39
30.24
27.68
26.08
25.49
25.69
26.32
27.03
27.62
27.99
28.11
27.93
27.37
26.28
24.60
22.32
19.51
16.25
12.55
8.37
3.68
-1.40
-6.59
-11.53
-15.90
-19.59
-22.76
-25.80
-29.24
-33.56
-39.10
-45.88
-53.40
-60.48
-65.44
-66.46
-62.20
-52.39
-38.02
-21.06
-3.87
11.50
23.82
32.65
38.18
40.84
41.13
39.49
36.43
32.55
28.56
25.13
22.76
21.68
21.79
22.70
23.87
24.84
25.33
25.32
24.89
24.09
22.75
20.55
17.13
12.40
6.60
0.35
-5.59
-10.60
-14.47
-17.45
-20.13
-23.22
-27.32
-32.74
-39.39
-46.61
-53.24
-57.73
-58.47
-54.37
-45.22
-31.93
-16.30
-0.49
13.60
24.76
32.54
37.06
38.70
37.92
35.21
31.15
26.46
21.95
18.28
15.85
14.66
14.41
14.70
