1538594482.00
64.000000
-0.00
-0.00
-0.00
-0.00
-0.00
-0.00
-0.00
-0.00
-0.00
-0.00
0.00
0.01
0.01
-0.00
-0.03
-0.05
-0.05
0.00
0.13
0.36
0.66
1.01
1.37
1.72
2.06
2.40
2.79
3.24
3.80
4.42
5.06
5.66
6.20
6.68
7.15
7.68
8.31
9.14
10.09
11.04
11.88
12.56
13.14
13.76
14.65
15.96
17.91
20.32
22.90
25.38
27.58
29.57
31.68
34.32
37.81
42.54
48.15
54.10
59.83
64.97
69.59
74.15
79.36
85.73
93.79
103.04
112.68
121.81
129.87
136.88
143.46
150.94
158.00
166.90
178.24
192.12
207.34
220.98
228.70
225.86
209.07
177.46
133.40
80.75
23.83
-34.12
-91.53
-148.17
-204.15
-259.18
-312.44
-362.44
-408.25
-449.16
-484.58
-513.61
-534.87
-546.62
-547.10
-535.21
-510.74
-474.86
-429.70
-377.87
-322.00
-264.36
-206.66
-150.16
-95.90
-44.74
2.34
44.48
81.02
111.68
136.61
156.32
171.50
182.85
190.98
196.28
198.99
199.29
197.35
193.45
187.90
181.02
173.09
164.31
154.85
144.80
134.25
123.37
112.32
101.34
90.64
80.43
70.74
61.67
53.32
45.75
39.01
33.09
27.98
23.62
19.94
16.85
14.29
12.16
10.40
8.95
7.75
6.77
5.97
5.34
4.87
4.59
4.47
4.51
4.71
5.05
5.56
6.22
7.06
8.08
9.34
10.80
12.46
14.29
16.28
18.40
20.65
23.01
25.45
28.00
30.58
33.16
35.70
38.22
40.71
43.22
45.77
48.42
51.23
54.14
57.11
60.10
63.06
65.90
68.54
70.80
72.49
74.01
75.52
77.12
78.88
80.87
83.17
85.86
89.01
92.73
97.14
102.24
108.06
114.63
121.94
129.95
138.56
147.57
156.75
165.77
174.18
181.54
187.40
191.36
193.13
192.49
189.37
183.84
176.12
166.45
155.23
142.83
129.71
116.02
101.97
87.77
73.75
60.31
47.80
36.46
26.47
17.73
9.85
2.46
-4.71
-11.74
-18.56
-25.09
-31.29
-37.08
-42.61
-48.56
-55.47
-63.60
-72.75
-82.37
-91.83
-100.60
-108.17
-114.55
-121.36
-129.91
-140.79
-153.45
-166.42
-177.99
-186.88
-191.99
-193.74
-196.04
-202.35
-214.65
-232.65
-254.03
-275.87
-295.94
-312.04
-324.94
-340.84
-364.97
-399.95
-444.54
-494.28
-543.89
-589.27
-626.57
-656.67
-687.85
-726.98
-777.48
-837.55
-900.92
-960.00
-1008.42
-1039.98
-1014.45
-905.83
-705.58
-430.99
-119.45
188.11
461.07
668.92
820.02
925.81
988.65
1008.89
986.98
927.99
844.71
751.95
663.03
588.65
529.42
476.14
419.29
350.83
269.39
179.83
89.88
7.09
-61.67
-115.34
-158.47
-196.58
-238.08
-289.36
-352.81
-425.93
-501.90
-570.64
-624.83
-661.13
-659.65
-609.26
-508.59
-368.16
-207.07
-45.86
100.13
221.45
314.30
379.69
418.50
433.69
429.96
413.28
390.07
365.93
344.31
326.65
312.93
300.08
285.29
267.08
245.89
223.72
203.00
185.57
172.19
162.54
154.16
144.64
132.49
117.72
101.76
86.66
74.23
65.42
60.01
56.23
52.04
45.90
37.45
27.64
18.22
10.88
6.66
5.40
5.94
6.73
6.45
4.25
-0.17
-6.70
-14.41
-20.99
-23.11
-16.69
0.86
29.02
63.41
97.27
123.89
139.20
143.97
140.02
130.78
118.74
104.69
88.26
69.25
48.38
26.99
7.59
-8.68
-21.75
-32.39
-41.61
-49.95
-57.11
-62.30
-64.67
-63.90
-60.55
-55.65
-50.57
-46.44
-43.78
-42.36
-41.47
-40.30
-38.18
-35.16
-31.64
-28.22
-25.43
-23.49
-22.28
-21.41
-20.44
-19.05
-17.27
-15.29
-13.35
-11.69
-10.43
-9.50
-8.77
-8.07
-7.29
-6.42
-5.54
-4.71
-3.99
-3.43
-3.02
-2.74
-2.57
-2.50
-2.53
-2.67
-2.94
-3.33
-3.85
-4.50
-5.27
-6.16
-7.15
-8.24
-9.42
-10.72
-12.11
-13.62
-15.23
-16.95
-18.74
-20.60
-22.55
-24.55
-26.67
-28.89
-31.25
-33.76
-36.40
-39.20
-42.11
-45.14
-48.22
-51.30
-54.10
-56.22
-57.15
-56.25
-52.86
-46.30
-36.28
-22.32
-4.28
17.50
42.19
68.46
94.63
118.80
139.20
154.30
163.11
165.18
160.73
150.59
135.86
117.85
97.48
76.16
55.06
35.05
16.76
0.61
-13.23
-24.95
-35.06
-44.36
-53.65
-63.45
-73.76
-84.07
-93.48
-101.15
-107.13
-111.89
-116.58
-122.45
-130.36
-140.26
-151.20
-161.61
-170.13
-176.42
-181.27
-186.22
-192.61
-200.52
-208.02
-211.67
-207.84
-193.41
-167.52
-131.37
-87.33
-37.46
16.69
73.15
128.04
176.13
213.01
237.08
250.40
256.91
259.25
256.61
245.70
222.90
188.30
147.26
108.03
77.58
58.13
46.61
37.18
25.00
8.98
-7.36
-17.83
-16.78
-1.54
25.84
58.76
88.58
107.83
113.63
108.70
99.57
93.03
92.60
97.23
102.70
105.16
102.47
95.23
85.50
74.60
61.98
45.68
23.83
-4.03
-35.73
-66.86
-91.98
-106.61
-108.58
-98.84
-81.17
-60.94
-43.83
-34.03
-33.46
-41.06
-53.33
-65.40
-72.23
-70.22
-58.85
-41.45
-24.11
-12.99
-11.19
-17.22
-25.99
-31.74
-31.44
-26.04
-19.40
-15.35
-15.01
-16.17
-15.49
-11.64
-6.62
-3.97
-5.71
-10.11
-12.03
-6.10
9.38
31.11
51.54
62.81
60.51
45.43
22.30
-3.07
-26.46
-46.40
-63.24
-77.57
-89.07
-96.44
-98.52
-95.56
-89.39
-82.48
-76.97
-73.70
-71.03
-66.07
-55.83
-37.97
-11.73
21.92
60.10
97.90
129.02
147.14
148.06
130.68
99.98
64.49
32.93
10.92
-0.48
-3.79
-2.72
0.05
3.79
9.03
15.82
23.06
28.82
31.68
31.79
30.87
31.15
34.32
40.47
47.94
54.28
57.51
56.98
53.78
49.83
46.98
45.89
45.91
44.82
40.07
29.33
11.16
-14.33
-44.92
-76.03
-100.92
-113.44
-110.23
-92.47
-65.75
-38.04
-16.33
-4.05
-0.36
-1.58
-3.95
-5.37
-5.84
-6.51
-8.11
-10.20
-11.44
-10.71
-7.80
-3.85
-0.48
0.80
-0.43
-3.48
-6.95
-9.39
-10.03
-8.99
-7.26
-6.08
-6.44
-8.60
-12.12
-16.06
-19.51
-21.97
-23.49
-24.62
-26.06
-28.37
-31.73
-35.91
-40.42
-44.79
-48.80
-52.46
-55.99
-59.62
-63.37
-67.06
-70.19
-71.85
-71.07
-66.85
-58.45
-45.06
-26.22
-1.94
27.19
59.96
94.62
128.90
160.31
186.40
205.08
214.79
214.74
204.91
185.68
158.70
126.11
90.23
53.22
16.93
-17.17
-48.12
-75.49
-99.21
-119.52
-137.12
-152.73
-167.08
-181.03
-195.03
-209.23
-223.54
-237.65
-250.86
-262.39
-271.37
-276.86
-278.08
-274.11
-264.09
-247.46
-224.03
-194.04
-158.22
-117.62
-73.52
-27.26
20.01
67.26
113.53
157.86
199.14
235.92
266.50
289.01
301.76
303.73
294.75
275.68
248.26
214.80
177.57
138.61
99.54
61.75
26.74
-3.78
-27.97
-44.26
-51.91
-51.34
-44.16
-32.64
-19.07
-4.95
9.27
24.10
40.60
59.80
82.26
107.74
134.88
161.15
183.02
196.65
198.90
188.48
166.58
136.85
104.34
74.05
49.46
31.68
19.67
11.21
4.07
-2.96
-9.83
-15.72
-19.86
-22.21
-23.69
-25.60
-28.63
-32.15
-34.26
-32.66
-26.03
-15.00
-2.22
8.70
14.90
15.65
12.74
9.50
9.11
12.81
19.22
25.07
26.95
23.18
14.64
4.18
-5.00
-11.14
-14.81
-18.18
-23.47
-31.24
-39.70
-45.76
-46.76
-42.28
-34.70
-28.38
-27.81
-35.83
-52.58
-75.62
-100.94
-124.25
-142.11
-152.34
-153.99
-146.95
-131.64
-109.14
-81.76
-53.65
-30.63
-18.91
-22.60
-41.33
-69.28
-96.54
-112.42
-109.19
-84.63
-42.30
10.13
63.44
109.10
140.55
153.75
147.30
122.62
83.77
36.87
-11.16
-53.97
-86.96
-107.94
-116.90
-115.45
-105.99
-90.86
-71.80
-49.64
-24.54
3.36
33.22
63.16
90.62
113.04
128.91
138.29
142.63
144.01
144.07
143.52
141.36
135.34
122.54
100.44
68.00
26.88
-17.91
-58.38
-85.47
-92.26
-76.86
-44.08
-4.34
29.71
47.66
44.97
24.11
-6.91
-38.01
-60.37
-69.17
-64.57
-50.90
-34.74
-22.30
-17.61
-21.64
-32.96
-49.07
-67.63
-87.19
-106.99
-126.49
-145.17
-163.04
-181.07
-200.86
-223.31
-246.83
-266.68
-276.10
-269.44
-245.05
-206.71
-162.48
-120.78
-88.41
-68.03
-58.62
-56.53
-58.18
-61.03
-63.51
-64.17
-61.15
-52.55
-37.01
-14.52
13.50
44.27
74.89
103.16
128.19
150.35
170.50
189.50
207.82
225.50
242.40
258.18
271.89
281.48
283.85
275.67
255.06
222.65
181.77
137.21
93.45
53.41
18.33
-11.30
-34.72
-50.53
-57.44
-55.36
-45.92
-31.99
-16.53
-1.41
13.03
27.58
43.53
61.80
82.52
104.92
127.38
147.65
163.34
172.49
173.54
166.72
153.76
137.26
119.84
103.39
88.70
75.87
64.70
55.04
46.68
38.95
30.66
20.52
8.27
-5.35
-18.67
-30.05
-38.98
-46.36
-53.96
-62.98
-72.95
-81.69
-86.50
-85.68
-79.31
-69.03
-56.81
-44.05
-31.43
-19.58
-9.83
-4.17
-4.40
-10.83
-21.79
-34.15
-44.96
-53.05
-59.63
-67.53
-79.54
-96.74
-117.74
-139.28
-157.56
-169.68
-174.43
-172.09
-163.74
-150.54
-133.33
-112.81
-89.93
-66.03
-42.71
-21.49
-3.33
11.52
23.47
33.24
41.48
48.47
54.11
58.03
59.89
59.65
57.64
54.49
50.91
47.45
44.35
41.52
38.70
35.64
32.22
28.54
24.83
21.37
18.31
15.69
13.42
11.37
9.43
7.58
5.85
4.29
2.90
1.66
0.53
-0.51
-1.46
-2.27
-2.90
-3.37
-3.78
-4.25
-4.91
-5.76
-6.73
-7.62
-8.21
-8.36
-8.10
-7.66
-7.36
-7.55
-8.33
-9.58
-10.89
-11.73
-11.72
-10.86
-9.65
-8.88
-9.28
-11.14
-14.08
-17.14
-19.18
-19.45
-18.02
-15.89
-14.54
-15.22
-18.34
-23.16
-28.02
-31.26
-31.90
-30.17
-27.43
-25.44
-25.56
-28.34
-33.58
-40.49
-47.87
-53.81
-55.46
-49.52
-33.36
-6.26
29.37
67.68
100.87
121.74
126.51
116.30
96.03
71.54
46.55
21.76
-3.44
-27.97
-47.18
-54.26
-43.87
-16.30
21.32
57.88
83.78
95.79
97.69
96.62
97.46
99.47
97.12
84.69
60.20
27.10
-7.53
-36.56
-55.48
-62.53
-57.45
-40.88
-14.70
16.47
44.91
61.73
60.58
40.97
9.02
-25.18
-52.25
-67.27
-70.86
-67.52
-62.30
-58.40
-56.65
-56.12
-55.63
-54.57
-52.93
-51.08
-49.37
-48.03
-47.34
-47.31
-48.05
-49.75
-52.58
-56.23
-59.19
-58.42
-49.95
-30.71
-1.18
33.06
62.43
77.24
72.78
52.36
26.24
6.50
0.90
9.47
25.70
41.39
51.72
57.12
61.21
66.89
73.59
77.49
74.35
62.36
43.65
22.88
4.92
-7.23
-13.01
-13.66
-11.58
-9.16
-8.33
-9.38
-10.62
-9.20
-3.19
6.66
16.53
21.75
19.60
11.14
0.64
-7.42
-11.62
-14.67
-21.07
-33.54
-49.74
-62.63
-64.06
-49.43
-20.51
15.33
48.39
70.47
77.18
68.18
46.28
16.28
-16.34
-45.99
-68.10
-79.85
-81.46
-75.79
-67.22
-59.99
-56.53
-56.05
-55.89
-52.30
-42.39
-25.56
-4.12
17.67
34.88
44.70
47.44
45.57
42.17
39.00
35.58
30.32
22.33
12.53
3.84
-0.29
1.98
9.86
20.48
30.01
34.88
32.85
23.53
8.64
-8.31
-22.38
-28.62
-24.08
-9.61
10.26
28.87
40.31
42.41
37.67
31.49
29.00
31.96
37.91
41.92
38.85
26.35
5.43
-20.82
-48.22
-71.64
-86.08
-87.48
-74.24
-49.29
-20.52
1.54
8.24
-2.38
-23.73
-43.36
-48.62
-33.12
0.33
41.50
77.89
100.00
105.06
96.72
81.19
64.03
48.41
35.14
24.29
16.10
10.85
8.62
8.40
6.59
-1.46
-18.69
-43.88
-70.72
-90.02
-94.23
-79.69
-48.29
-8.85
26.98
49.87
55.98
47.59
31.19
13.40
0.67
-1.45
6.95
21.46
35.74
42.94
37.13
14.61
-27.03
-85.35
-149.75
-208.56
-250.85
-267.87
-255.90
-217.59
-151.49
-72.50
-9.08
34.73
64.69
86.42
104.78
121.58
134.78
139.71
130.38
105.97
69.73
30.20
-1.78
-18.93
-21.35
-13.57
-0.11
15.28
31.38
48.29
62.77
69.56
64.83
48.51
24.70
-0.38
-22.15
-37.78
-45.73
-46.71
-42.46
-34.63
-24.60
-13.86
-4.01
3.12
7.16
9.81
13.47
19.89
29.29
40.62
52.33
63.34
73.24
82.37
91.34
100.06
107.63
112.70
114.66
114.03
112.03
109.71
107.42
104.96
102.19
99.34
96.34
92.97
88.65
82.74
75.07
66.42
58.30
51.91
50.46
54.55
62.84
72.96
82.70
90.71
96.54
100.10
101.27
99.94
95.94
89.85
82.80
75.81
69.13
62.25
54.53
46.03
37.89
31.60
28.12
26.84
25.26
19.76
7.38
-12.64
-38.18
-64.93
-88.37
-105.32
-114.76
-117.67
-115.94
-111.23
-104.60
-96.77
-88.79
-82.44
-79.70
-81.87
-88.88
-99.28
-110.93
-121.95
-131.33
-138.93
-145.19
-150.62
-155.60
-160.41
-165.35
-170.66
-176.50
-182.73
-188.91
-194.36
-198.36
-200.56
-201.21
-201.27
-202.28
-205.90
-213.55
-226.01
-243.10
-263.33
-283.58
-299.18
-304.56
-294.62
-266.20
-219.18
-156.58
-83.61
-6.27
69.93
140.52
202.14
252.38
289.96
315.12
329.78
337.13
340.67
343.05
345.53
348.06
350.01
350.78
350.10
347.79
343.52
336.59
326.22
311.92
293.84
272.66
249.19
223.95
196.99
168.18
137.78
106.82
76.89
49.56
25.62
4.72
-14.19
-32.15
-49.49
-65.55
-79.30
-90.15
-98.48
-105.59
-112.85
-120.79
-128.74
-134.98
-137.65
-135.52
-128.53
-117.80
-105.28
-93.21
-83.64
-77.96
-76.66
-79.10
-83.80
-88.86
-92.66
-94.42
-94.42
-93.81
-94.04
-96.22
-100.84
-107.86
-116.91
-127.62
-139.56
-152.16
-164.42
-175.10
-183.02
-187.48
-188.19
-184.61
-175.54
-159.17
-134.05
-100.49
-61.54
-22.61
10.15
32.16
41.86
40.69
31.60
17.44
0.05
-19.47
-39.63
-58.01
-71.43
-77.23
-74.56
-64.89
-51.45
-37.78
-26.39
-17.87
-11.26
-5.02
1.78
8.76
14.49
17.35
16.50
12.55
7.47
3.72
3.23
6.60
12.90
20.20
26.37
29.93
30.49
28.79
26.24
24.46
24.88
28.47
35.47
45.05
54.86
61.49
61.41
52.29
34.30
10.82
-12.02
-27.02
-28.30
-13.44
15.98
55.09
97.25
135.67
164.85
181.31
183.88
173.34
151.38
120.86
85.63
49.95
17.61
-8.86
-28.61
-42.72
-54.00
-67.72
-87.67
-114.01
-142.89
-168.39
-184.67
-187.99
-177.73
-156.41
-131.73
-110.11
-93.95
-82.69
-76.01
-75.52
-83.52
-100.54
-123.67
-151.70
-180.13
-202.30
-213.50
-215.23
-214.05
-216.46
-224.70
-236.29
-253.11
-275.27
-299.97
-323.13
-342.32
-356.82
-365.60
-367.05
-318.84
-207.75
-58.41
85.88
197.54
273.54
322.98
355.12
374.79
382.68
371.52
338.24
289.04
236.55
193.13
167.06
162.14
177.78
209.07
243.12
268.51
279.95
277.90
264.65
241.81
209.98
169.98
124.28
75.53
30.37
-0.32
-7.51
10.59
47.78
93.63
138.91
178.96
213.43
238.22
253.50
260.32
259.21
250.25
233.98
211.65
184.61
153.18
117.33
78.79
40.04
3.83
-27.73
-53.74
-74.62
-91.45
-105.25
-116.75
-125.53
-131.54
-135.52
-138.74
-142.47
-147.15
-152.28
-156.77
-159.62
-159.70
-156.53
-149.94
-139.66
-125.34
-106.77
-84.51
-60.11
-36.04
-14.70
1.98
13.06
18.74
19.86
17.42
12.16
4.52
-5.04
-15.69
-26.16
-34.95
-40.66
-42.48
-40.21
-34.20
-25.01
-13.07
1.34
17.96
36.13
54.59
71.45
84.63
92.46
94.31
91.04
85.00
79.41
77.38
80.86
89.95
102.98
117.11
129.29
137.10
139.12
134.92
124.68
108.93
88.52
64.62
38.93
13.39
-10.21
-30.75
-48.04
-62.79
-76.01
-88.37
-99.62
-108.47
-113.11
-112.00
-104.65
-92.00
-76.18
-59.60
-43.98
-29.70
-15.59
0.56
21.34
48.70
83.19
123.05
163.90
199.20
221.89
226.77
212.43
181.84
141.03
96.65
53.65
14.32
-20.95
-52.14
-78.40
-98.14
-110.08
-114.41
-113.03
-108.74
-103.89
-99.43
-95.00
-89.73
-83.15
-75.63
-67.98
-60.81
-54.04
-46.84
-38.11
-27.24
-14.57
-1.57
9.64
16.91
18.72
14.61
5.18
-8.09
-23.33
-38.56
-52.12
-62.80
-69.98
-73.65
-74.28
-72.67
-69.71
-66.20
-62.63
-59.15
-55.63
-51.84
-47.72
-43.38
-39.00
-34.53
-29.55
-23.16
-14.37
-2.52
12.31
29.11
46.22
61.78
74.28
82.84
87.22
87.78
85.59
82.59
81.58
85.52
96.20
112.96
132.14
148.01
154.88
149.36
131.63
105.03
74.32
43.58
15.09
-10.65
-33.82
-54.29
-71.31
-83.90
-91.65
-95.11
-95.53
-94.26
-92.24
-89.81
-86.85
-82.96
-77.69
-70.66
-61.68
-51.00
-39.50
-28.63
-20.13
-15.56
-15.83
-20.98
-30.32
-42.63
-56.49
-70.43
-83.03
-93.06
-99.70
-102.81
-102.96
-101.36
-99.41
-98.27
-98.43
-99.53
-100.35
-99.12
-94.07
-84.07
-69.07
-50.21
-29.49
-9.07
9.35
24.82
37.12
46.46
53.19
57.63
60.13
61.04
60.82
59.91
58.62
57.04
55.10
52.69
49.82
46.65
43.57
40.95
39.06
37.93
37.29
36.69
35.66
33.91
31.33
28.06
24.31
20.26
16.01
11.62
7.10
2.46
-2.31
-7.24
-12.36
-17.70
-23.21
-28.80
-34.34
-39.76
-45.06
-50.34
-55.77
-61.54
-67.78
-74.34
-80.73
-86.05
-89.14
-88.87
-84.39
-75.34
-61.86
-44.43
-23.75
-0.61
23.95
48.67
72.06
92.61
109.03
120.54
126.92
128.42
125.58
119.07
109.54
97.58
83.82
68.92
53.67
38.96
25.61
14.33
5.42
-1.11
-5.58
-8.39
-9.88
-10.31
-9.87
-8.86
-7.71
-6.92
-6.92
-7.93
-9.86
-12.37
-15.10
-17.76
-20.32
-22.91
-25.79
-29.12
-32.86
-36.81
-40.71
-44.38
-47.90
-51.58
-55.87
-61.21
-67.71
-74.96
-81.99
-87.35
-89.54
-87.36
-80.34
-68.86
-54.03
-37.38
-20.45
-4.51
9.64
21.60
31.35
39.08
45.11
49.75
53.20
55.57
56.87
57.09
56.32
54.73
52.62
50.34
48.19
46.45
45.22
44.48
44.01
43.47
42.50
40.79
38.17
34.70
30.62
26.23
21.83
17.59
13.57
9.70
5.84
1.91
-2.18
-6.42
-10.80
-15.33
-20.04
-25.04
-30.47
-36.49
-43.07
-49.90
-56.24
-60.97
-62.78
-60.50
-53.49
-41.93
-26.77
-9.56
8.02
24.47
38.80
50.51
59.52
66.03
70.33
72.79
73.74
73.56
72.55
71.02
69.15
67.12
65.09
63.21
61.62
60.40
59.55
58.95
58.47
57.92
57.08
55.69
53.47
50.14
45.62
40.09
34.04
28.14
22.98
18.83
15.57
12.69
9.54
5.55
0.47
-5.59
-12.21
-18.85
-25.09
-30.68
-35.70
-40.41
-45.24
-50.59
-56.58
-62.93
-68.85
-73.20
-74.75
-72.53
-66.17
-56.02
-43.07
-28.66
-14.12
-0.56
11.31
21.04
28.43
33.45
36.23
37.08
36.43
34.76
32.54
30.11
27.76
25.70
24.15
23.32
23.31
24.03
25.19
26.34
27.01
26.86
25.70
23.59
20.71
17.38
13.97
10.80
8.07
5.85
4.04
2.39
0.61
-1.66
-4.62
-8.36
-12.76
-17.60
-22.56
-27.42
-32.07
-36.61
-41.13
-45.61
-49.69
-52.58
-53.26
-50.80
-44.67
-35.05
-22.87
-9.55
3.35
14.57
23.46
30.06
34.90
38.66
41.80
44.28
45.59
45.05
42.28
37.54
31.93
27.06
24.48
25.11
28.72
33.98
38.98
41.98
42.17
40.04
37.05
35.01
35.07
37.33
40.82
44.14
46.15
46.33
44.64
41.32
37.00
33.25
32.92
39.48
55.15
78.78
104.99
125.58
132.95
123.63
99.99
68.82
37.91
12.49
-6.27
-20.16
-31.41
-40.65
-46.71
-48.04
-44.54
-38.21
-32.35
-29.77
-31.44
-36.11
-41.19
-44.18
-43.90
-40.84
-36.74
-33.60
-32.75
-34.25
-37.09
-39.69
-40.72
-39.63
-36.81
-33.30
-30.21
-28.33
-27.82
-28.28
-29.04
-29.50
-29.43
-28.95
-28.49
-28.60
-29.74
-32.11
-35.60
-39.84
-44.27
-48.37
-51.88
-54.80
-57.45
-60.26
-63.53
-67.31
-71.32
-75.18
-78.52
-81.19
-83.31
-85.21
-87.35
-90.03
-93.19
-96.15
-97.56
-95.66
-88.74
-75.70
-56.46
-32.08
-4.50
23.97
51.15
75.34
95.42
110.88
121.76
128.58
132.20
133.60
133.60
132.56
130.39
126.71
121.19
113.77
104.78
94.80
84.40
74.00
63.79
53.85
44.23
34.99
26.13
17.56
9.06
0.44
-8.34
-17.21
-25.97
-34.50
-42.86
-51.13
-59.37
-67.39
-74.90
-81.63
-87.60
-93.19
-99.02
-105.61
-113.06
-120.96
-128.55
-135.03
-139.83
-142.85
-144.41
-145.11
-145.74
-147.15
-149.95
-154.06
-158.25
-159.83
-155.13
-140.63
-114.33
-76.83
-31.41
17.03
63.65
105.03
139.71
167.65
189.32
204.97
214.57
218.25
216.68
211.09
202.79
192.55
180.52
166.49
150.59
133.63
117.05
102.40
90.58
81.51
74.20
67.37
59.97
51.73
43.15
35.27
29.21
25.71
24.83
26.01
28.31
30.79
32.85
34.22
34.92
35.06
34.65
33.55
31.38
27.39
20.48
9.32
-7.18
-29.32
-56.18
-85.63
-114.82
-141.08
-162.68
-179.10
-190.89
-198.90
-203.58
-204.61
-200.91
-191.22
-174.74
-151.73
-123.71
-93.29
-63.62
-37.63
-17.46
-4.03
3.04
5.14
4.24
2.31
0.97
1.24
3.51
7.69
13.32
19.64
25.69
30.44
32.98
32.84
30.21
25.86
20.90
16.36
12.77
10.09
7.79
5.22
1.92
-2.21
-6.87
-11.53
-15.62
-18.70
-20.59
-21.49
-21.86
-22.32
-23.36
-25.10
-27.15
-28.64
-28.43
-25.48
-19.25
-9.91
1.62
13.94
25.59
35.39
42.69
47.35
49.54
49.58
47.78
44.42
39.82
34.47
28.94
23.86
19.63
16.39
13.99
12.14
10.49
8.84
7.15
5.46
3.87
2.45
1.12
-0.29
-2.03
-4.36
-7.37
-11.02
-15.07
-19.14
-22.87
-25.98
-28.42
-30.38
-32.24
-34.40
-37.22
-40.82
-44.99
-49.16
-52.46
-53.81
-52.22
-47.02
-38.12
-26.09
-12.02
2.72
16.77
29.06
38.97
46.32
51.27
54.13
55.32
55.17
53.97
51.91
49.13
45.79
42.09
38.24
34.44
30.82
27.42
24.21
21.19
18.42
16.04
14.18
12.87
11.93
11.03
9.71
7.61
4.54
0.63
-3.80
-8.30
-12.47
-16.08
-19.19
-22.05
-25.07
-28.61
-32.88
-37.72
-42.63
-46.74
-49.01
-48.46
-44.45
-36.96
-26.57
-14.45
-2.01
9.42
18.84
25.78
30.30
32.84
34.03
34.45
34.56
34.60
34.66
34.75
34.93
35.29
35.94
36.86
37.87
38.62
38.77
38.03
36.39
33.99
31.14
28.05
24.72
20.97
16.60
11.53
5.98
0.42
-4.66
-8.92
-12.34
-15.18
-17.79
-20.48
-23.34
-26.34
-29.35
-32.31
-35.17
-37.73
-39.54
-39.88
-37.96
-33.24
-25.70
-15.97
-5.17
5.42
14.78
22.32
27.91
31.70
33.91
34.71
34.22
32.60
30.14
27.23
24.32
21.81
19.91
18.62
17.74
16.94
15.88
14.40
12.53
10.47
8.51
6.75
5.10
3.24
0.83
-2.34
-6.27
-10.74
-15.42
-20.04
-24.48
-28.70
-32.71
-36.57
-40.35
-44.20
-48.36
-52.96
-57.93
-62.71
-66.33
-67.53
-65.24
-58.95
-48.98
-36.36
-22.58
-9.06
3.17
13.58
22.11
28.93
34.23
38.20
40.94
42.56
43.22
43.10
42.39
41.29
39.90
38.25
36.36
34.24
31.97
29.68
27.56
25.67
23.97
22.28
20.39
18.13
15.46
12.48
9.34
6.15
2.88
-0.54
-4.22
-8.16
-12.25
-16.26
-20.02
-23.48
-26.73
-30.03
-33.62
-37.68
-42.15
-46.63
-50.45
-52.68
-52.40
-48.96
-42.27
-32.90
-21.94
-10.63
0.04
9.51
17.66
24.48
29.97
34.01
36.51
37.65
37.92
37.98
38.40
39.44
40.96
42.61
44.00
44.92
45.36
45.37
44.97
44.13
42.74
40.66
37.86
34.40
30.51
26.52
22.91
20.05
18.21
17.34
17.10
16.88
16.04
14.12
10.97
6.78
1.95
-3.10
-8.08
-12.87
-17.53
-22.21
-27.12
-32.41
-38.02
-43.55
-48.21
-50.98
-50.84
-47.15
-39.86
-29.56
-17.37
-4.51
7.88
18.98
28.31
35.68
41.09
44.61
46.34
46.36
44.94
42.42
39.29
35.93
32.54
29.01
25.05
20.43
15.13
9.40
3.62
-1.92
-7.12
-12.04
-16.74
-21.18
-25.13
-28.35
-30.71
-32.31
-33.48
-34.65
-36.18
-38.31
-41.09
-44.43
-48.16
-52.09
-56.06
-60.00
-63.90
-67.88
-72.03
-76.32
-80.32
-83.19
-83.76
-80.86
-73.77
-62.57
-48.21
-32.22
-16.28
-1.80
10.37
19.88
26.77
31.41
34.27
35.97
37.01
37.73
38.15
38.10
37.33
35.77
33.61
31.25
29.20
27.88
27.55
28.19
29.63
31.47
33.20
34.29
34.35
33.27
31.18
28.42
25.37
22.31
19.39
16.64
14.03
11.50
9.03
6.56
4.05
1.50
-1.11
-3.70
-6.15
-8.32
-10.06
-11.30
-12.10
-12.62
-13.13
-13.87
-15.00
-16.49
-18.16
-19.77
-21.14
-22.25
-23.22
-24.29
-25.72
-27.62
-30.05
-32.90
-35.99
-39.00
-41.47
-42.78
-42.20
-39.12
-33.27
-24.90
-14.81
-4.14
5.94
14.52
21.15
25.85
28.92
30.79
31.79
32.17
32.00
31.33
30.23
28.81
27.23
25.63
24.16
22.93
22.03
21.50
21.33
21.45
21.74
22.08
22.35
22.46
22.41
22.18
21.73
21.01
19.95
18.53
16.80
14.85
12.79
10.68
8.49
6.20
3.80
1.36
-0.98
-3.09
-4.96
-6.71
-8.56
-10.72
-13.22
-15.92
-18.66
-21.37
-24.23
-27.64
-31.95
-37.17
-42.75
-47.59
-50.38
-50.03
-46.07
-38.86
-29.39
-19.01
-9.03
-0.40
6.38
11.24
14.40
16.20
16.94
16.95
16.45
15.66
14.76
13.86
13.01
12.16
11.22
10.11
8.87
7.67
6.77
6.40
6.67
7.50
8.65
9.74
10.48
10.66
10.26
9.38
8.16
6.69
4.95
2.90
0.49
-2.22
-5.08
-7.88
-10.45
-12.76
-14.89
-16.94
-18.96
-20.93
-22.76
-24.40
-25.88
-27.34
-28.92
-30.70
-32.65
-34.72
-36.92
-39.38
-42.29
-45.70
-49.25
-52.08
-52.98
-50.77
-44.79
-35.20
-22.98
-9.64
3.28
14.62
23.77
30.70
35.67
39.04
41.11
42.08
42.10
41.38
40.11
38.50
36.69
34.80
32.89
31.03
29.34
27.93
26.90
26.27
25.93
25.70
25.29
24.49
23.13
21.18
18.70
15.85
12.84
9.88
7.19
4.90
3.02
1.49
0.12
-1.33
-3.13
-5.39
-8.12
-11.11
-14.10
-16.84
-19.21
-21.27
-23.20
-25.22
-27.44
-29.86
-32.33
-34.64
-36.57
-37.96
-38.71
-38.90
-38.78
-38.80
-39.50
-41.32
-44.33
-48.02
-51.28
-52.69
-50.89
-45.14
-35.53
-23.03
-9.12
4.61
16.87
26.85
34.18
38.88
41.22
41.69
40.92
39.58
38.23
37.19
36.50
35.96
35.33
34.49
33.45
32.36
31.35
30.54
29.94
29.51
29.16
28.73
28.03
26.84
25.00
22.43
19.25
15.68
11.99
8.42
5.16
2.33
-0.00
-1.79
-3.06
-3.89
-4.43
-4.85
-5.27
-5.76
-6.33
-7.00
-7.77
-8.78
-10.19
-12.21
-14.93
-18.38
-22.43
-26.92
-31.62
-36.35
-40.94
-45.28
-49.31
-53.00
-56.48
-59.95
-63.58
-67.39
-70.94
-73.29
-73.14
-69.20
-60.71
-47.80
-31.55
-13.66
4.05
20.14
33.79
44.68
52.75
57.99
60.36
59.90
56.94
52.16
46.45
40.63
35.23
30.41
26.13
22.35
19.25
17.23
16.69
17.84
20.40
23.72
26.87
29.02
29.61
28.49
25.84
22.04
17.58
12.90
8.40
4.40
1.05
-1.65
-3.95
-6.17
-8.66
-11.64
-15.08
-18.80
-22.54
-26.14
-29.60
-33.06
-36.83
-41.27
-46.66
-52.97
-59.72
-65.80
-69.64
-69.57
-64.36
-53.69
-38.37
-20.14
-1.22
16.33
31.04
42.20
49.80
54.30
56.27
56.33
54.96
52.65
49.85
46.99
44.42
42.30
40.58
39.03
37.42
35.56
33.49
31.35
29.34
27.54
25.89
24.16
22.09
19.47
16.19
12.29
7.95
3.44
-0.95
-4.98
-8.50
-11.54
-14.24
-16.88
-19.69
-22.80
-26.22
-29.73
-33.05
-35.91
-38.16
-39.87
-41.30
-42.88
-45.05
-48.16
-52.23
-56.86
-61.05
-63.36
-62.21
-56.36
-45.48
-30.31
-12.59
5.48
21.83
35.06
44.59
50.56
53.56
54.27
53.36
51.41
48.94
46.36
44.00
41.95
40.14
38.35
36.33
34.02
31.58
29.34
27.69
26.85
26.73
26.96
27.06
26.57
25.32
23.37
20.95
18.26
15.42
12.48
9.47
6.52
3.76
1.27
-1.01
-3.25
-5.65
-8.29
-11.09
-13.87
-16.45
-18.77
-20.96
-23.26
-25.91
-28.97
-32.35
-35.76
-38.93
-41.62
-43.84
-45.72
-47.61
-49.93
-53.09
-57.29
-62.33
-67.46
-71.37
-72.40
-69.04
-60.48
-46.95
-29.78
-11.07
6.97
22.51
34.53
42.82
47.73
49.93
50.14
49.00
47.07
44.77
42.48
40.40
38.68
37.30
36.18
35.20
34.32
33.51
32.83
32.33
31.97
31.67
31.24
30.50
29.34
27.73
25.72
23.38
20.76
17.93
14.99
12.10
9.42
7.00
4.80
2.67
0.54
-1.59
-3.59
-5.37
-6.95
-8.48
-10.22
-12.32
-14.76
-17.34
-19.77
-21.93
-23.87
-25.82
-28.05
-30.69
-33.60
-36.50
-39.07
-41.15
-42.94
-44.89
-47.62
-51.66
-57.16
-63.73
-70.31
-75.29
-76.87
-73.48
-64.35
-49.91
-31.68
-12.00
6.76
22.74
35.00
43.48
48.62
51.04
51.35
50.12
47.97
45.55
43.42
41.89
40.91
40.15
39.21
37.84
36.10
34.29
32.78
31.88
31.63
31.85
32.17
32.20
31.65
30.38
28.46
26.09
23.52
20.97
18.57
16.34
14.22
12.09
9.85
7.48
4.97
2.42
-0.10
-2.54
-4.89
-7.19
-9.45
-11.68
-13.89
-16.02
-18.06
-19.99
-21.90
-23.92
-26.25
-29.04
-32.32
-35.96
-39.67
-43.11
-46.01
-48.33
-50.28
-52.30
-54.88
-58.43
-63.08
-68.51
-73.85
-77.70
-78.36
-74.30
-64.70
-49.89
-31.37
-11.46
7.41
23.35
35.42
43.64
48.60
51.07
51.75
51.16
49.78
48.11
46.57
45.47
44.85
44.47
43.94
42.90
41.23
39.13
37.05
35.53
34.94
35.25
36.07
36.74
36.61
35.36
33.10
30.26
27.36
24.73
22.44
20.31
18.13
15.76
13.22
10.67
8.27
6.10
4.19
2.46
0.81
-0.86
-2.61
-4.50
-6.54
-8.78
-11.20
-13.77
-16.37
-18.84
-21.02
-22.92
-24.75
-26.86
-29.63
-33.21
-37.44
-41.87
-45.96
-49.33
-51.93
-54.02
-56.11
-58.79
-62.54
-67.56
-73.51
-79.46
-83.84
-84.82
-80.79
-70.95
-55.68
-36.52
-15.74
4.31
21.68
35.23
44.63
50.15
52.48
52.48
51.07
49.13
47.34
46.07
45.36
44.93
44.41
43.50
42.14
40.57
39.15
38.20
37.87
38.03
38.40
38.63
38.48
37.82
36.61
34.89
32.70
30.12
27.27
24.30
21.37
18.63
16.10
13.76
11.49
9.26
7.08
5.06
3.31
1.82
0.47
-0.98
-2.73
-4.85
-7.22
-9.61
-11.81
-13.76
-15.64
-17.76
-20.40
-23.68
-27.51
-31.58
-35.52
-39.01
-41.89
-44.26
-46.50
-49.20
-53.04
-58.47
-65.35
-72.70
-78.71
-81.12
-78.00
-68.48
-53.22
-34.24
-14.24
4.23
19.48
30.87
38.59
43.22
45.36
45.55
44.30
42.19
39.83
37.71
36.08
34.92
33.98
32.91
31.45
29.45
26.86
23.82
20.59
17.55
15.06
13.28
12.01
10.67
8.47
4.73
-0.77
-7.64
-15.00
-21.87
-27.64
-32.34
-36.70
-41.81
-48.60
-57.40
-67.70
-78.36
-88.08
-95.95
-101.86
-106.51
-111.09
-116.90
-124.87
-135.43
-148.27
-162.10
-174.20
-180.57
-176.78
-159.76
-129.70
-90.78
-50.19
-15.52
8.24
20.39
24.16
24.49
25.36
28.27
32.31
35.56
36.64
35.41
32.79
30.05
28.34
28.70
32.37
40.86
55.55
77.11
104.82
136.47
168.66
197.63
220.15
234.36
240.06
238.65
232.53
224.21
215.44
206.72
197.37
186.16
172.16
155.42
137.08
118.86
102.27
87.98
75.62
64.24
52.80
40.79
28.30
15.80
3.85
-7.21
-17.21
-26.14
-34.05
-41.13
-47.73
-54.25
-60.88
-67.31
-72.63
-75.58
-75.16
-71.02
-63.84
-55.06
-46.39
-39.22
-34.29
-31.72
-31.22
-32.37
-34.74
-37.85
-41.13
-43.94
-45.75
-46.22
-45.32
-43.32
-40.58
-37.34
-33.61
-29.21
-24.02
-18.26
-12.63
-8.23
-6.26
-7.54
-12.35
-20.33
-30.76
-42.70
-55.13
-66.84
-76.36
-82.07
-82.49
-76.81
-65.23
-49.09
-30.46
-11.63
5.45
19.56
30.24
37.57
41.95
43.90
43.90
42.48
40.18
37.55
35.03
32.90
31.18
29.70
28.20
26.49
24.52
22.45
20.56
19.15
18.40
18.33
18.77
19.39
19.89
20.06
19.83
19.23
18.31
17.09
15.57
13.78
11.77
9.66
7.52
5.42
3.41
1.53
-0.11
-1.37
-2.22
-2.73
-3.12
-3.75
-4.85
-6.60
-8.92
-11.63
-14.44
-17.14
-19.61
-21.91
-24.29
-27.03
-30.36
-34.29
-38.60
-42.94
-46.96
-50.51
-53.67
-56.82
-60.42
-65.00
-70.79
-77.62
-84.63
-90.30
-92.73
-90.12
-81.46
-66.91
-47.89
-26.62
-5.47
13.65
29.61
42.06
51.13
57.24
60.88
62.64
63.12
62.97
62.66
62.39
62.05
61.27
59.69
57.11
53.67
49.83
46.19
43.35
41.66
41.10
41.34
41.85
42.07
41.61
40.28
38.16
35.48
32.53
29.58
26.78
24.20
21.80
19.51
17.26
14.96
12.57
10.03
7.34
4.53
1.68
-1.06
-3.51
-5.54
-7.05
-8.16
-9.15
-10.37
-12.16
-14.63
-17.66
-20.89
-23.92
-26.48
-28.54
-30.36
-32.31
-34.78
-37.96
-41.84
-46.16
-50.59
-54.82
-58.73
-62.46
-66.32
-70.72
-75.96
-82.05
-88.58
-94.66
-99.09
-100.51
-97.78
-90.29
-78.17
-62.28
-44.09
-25.29
-7.45
8.22
21.04
30.76
37.55
41.83
44.21
45.40
46.06
46.67
47.45
48.34
49.13
49.56
49.50
48.95
48.10
47.25
46.73
46.75
47.32
48.22
49.06
49.44
49.06
47.90
46.14
44.08
41.99
39.96
37.94
35.84
33.57
31.17
28.73
26.35
24.06
21.80
19.51
17.16
14.83
12.63
10.63
8.78
6.91
4.82
2.31
-0.68
-4.06
-7.57
-10.95
-14.06
-16.88
-19.64
-22.63
-26.06
-30.03
-34.42
-38.99
-43.48
-47.72
-51.68
-55.52
-59.48
-63.87
-68.90
-74.53
-80.37
-85.59
-89.02
-89.37
-85.56
-77.11
-64.34
-48.33
-30.65
-13.04
2.98
16.36
26.61
33.78
38.28
40.73
41.81
42.15
42.27
42.46
42.80
43.16
43.31
43.02
42.27
41.20
40.13
39.37
39.09
39.29
39.78
40.32
40.66
40.66
40.21
39.27
37.84
35.95
33.70
31.24
28.73
26.30
23.99
21.76
19.49
17.10
14.56
11.97
9.47
7.15
4.96
2.72
0.21
-2.68
-5.91
-9.31
-12.67
-15.98
-19.41
-23.24
-27.69
-32.79
-38.27
-43.78
-48.94
-53.54
-57.58
-61.28
-65.02
-69.30
-74.59
-81.12
-88.69
-96.43
-102.83
-106.03
-104.23
-96.33
-82.31
-63.31
-41.39
-18.97
1.75
19.24
32.75
42.30
48.38
51.80
53.42
54.09
54.46
54.91
55.53
56.13
56.42
56.17
55.37
54.13
52.75
51.48
50.46
49.78
49.44
49.40
49.57
49.78
49.77
49.27
48.06
46.10
43.53
40.69
37.91
35.44
33.32
31.42
29.53
27.49
25.28
22.97
20.68
18.45
16.25
14.05
11.87
9.80
7.99
6.49
5.20
3.89
2.27
0.15
-2.53
-5.63
-8.89
-12.10
-15.13
-18.01
-20.91
-24.07
-27.67
-31.81
-36.41
-41.22
-45.95
-50.30
-54.17
-57.65
-61.04
-64.81
-69.41
-75.08
-81.63
-88.27
-93.72
-96.42
-94.98
-88.62
-77.42
-62.32
-44.90
-26.90
-9.88
5.02
17.17
26.37
32.78
36.84
39.21
40.63
41.81
43.20
44.93
46.78
48.35
49.28
49.40
48.79
47.73
46.58
45.62
45.02
44.81
44.93
45.21
45.37
45.08
44.04
42.12
39.42
36.30
33.18
30.43
28.17
26.31
24.58
22.71
20.54
18.09
15.49
12.95
10.65
8.69
7.04
5.57
4.03
2.24
0.04
-2.54
-5.44
-8.52
-11.68
-14.82
-17.91
-20.97
-24.04
-27.22
-30.57
-34.15
-37.91
-41.71
-45.41
-48.98
-52.55
-56.42
-60.91
-66.25
-72.29
-78.51
-83.90
-87.21
-87.21
-83.01
-74.37
-61.75
-46.24
-29.31
-12.52
2.78
15.61
25.48
32.37
36.67
39.13
40.57
41.73
43.00
44.46
45.90
47.04
47.64
47.58
46.92
45.80
44.45
43.20
42.39
42.28
42.88
43.92
44.86
45.16
44.49
42.86
40.60
38.20
35.99
34.10
32.36
30.47
28.19
25.49
22.55
19.71
17.30
15.46
14.13
13.01
11.64
9.62
6.64
2.69
-1.98
-6.86
-11.35
-15.01
-17.65
-19.52
-21.17
-23.25
-26.24
-30.24
-34.96
-39.84
-44.33
-48.13
-51.35
-54.39
-57.81
-62.04
-67.35
-73.67
-80.62
-87.44
-93.03
-96.01
-94.96
-88.89
-77.54
-61.73
-43.13
-23.93
-6.14
8.85
20.47
28.87
34.59
38.31
40.61
42.01
42.93
43.75
44.73
45.95
47.25
48.35
48.91
48.77
47.93
46.66
45.33
44.37
44.04
44.38
45.15
45.95
46.35
46.02
44.85
42.91
40.43
37.65
34.78
31.93
29.16
26.46
23.77
21.08
18.39
15.75
13.30
11.13
9.22
7.44
5.55
3.30
0.55
-2.66
-6.12
-9.58
-12.84
-15.88
-18.84
-21.93
-25.37
-29.23
-33.52
-38.11
-42.86
-47.60
-52.15
-56.38
-60.20
-63.73
-67.28
-71.37
-76.48
-82.70
-89.43
-95.23
-98.17
-96.40
-88.84
-75.61
-58.07
-38.40
-18.92
-1.53
12.62
23.19
30.37
34.68
36.77
37.33
37.04
36.56
36.35
36.61
37.25
37.92
38.20
37.78
36.62
34.93
33.15
31.68
30.85
30.69
31.00
31.36
31.30
30.45
28.69
26.11
23.06
19.89
16.87
14.07
11.33
8.43
5.23
1.75
-1.84
-5.28
-8.34
-10.99
-13.33
-15.60
-18.12
-21.19
-24.98
-29.50
-34.52
-39.63
-44.38
-48.41
-51.67
-54.47
-57.40
-61.13
-66.06
-72.08
-78.38
-83.62
-86.12
-84.42
-77.63
-65.80
-49.91
-31.62
-12.97
4.24
18.74
29.98
38.09
43.67
47.43
49.99
51.76
52.92
53.59
53.81
53.73
53.54
53.39
53.34
53.34
53.27
53.02
52.64
52.20
51.84
51.59
51.32
50.80
49.83
48.33
46.38
44.19
41.91
39.60
37.15
34.44
31.37
28.01
24.53
21.11
17.88
14.83
11.86
8.85
5.71
2.44
-0.88
-4.15
-7.34
-10.44
-13.54
-16.77
-20.26
-24.04
-28.07
-32.26
-36.51
-40.80
-45.20
-49.81
-54.71
-59.83
-65.06
-70.31
-75.71
-81.59
-88.21
-95.47
-102.50
-107.86
-109.89
-107.35
-99.91
-88.03
-72.63
-54.68
-35.12
-15.09
3.79
19.58
30.63
36.35
37.63
36.49
35.15
35.10
36.56
38.85
41.08
42.83
44.36
46.35
49.48
54.18
60.55
68.43
77.35
86.52
94.89
101.37
105.30
106.69
106.34
105.64
106.19
109.31
115.77
125.55
137.92
151.59
164.90
176.17
183.92
187.08
185.07
177.82
165.63
149.20
129.61
108.31
86.93
67.00
49.55
34.77
22.14
10.70
-0.44
-11.57
-22.29
-31.67
-38.82
-43.24
-44.98
-44.36
-41.70
-37.22
-31.27
-24.66
-18.76
-14.98
-13.92
-14.79
-15.36
-12.84
-5.36
6.89
21.17
33.07
38.06
33.29
18.52
-3.92
-30.15
-56.12
-78.58
-95.50
-106.01
-110.29
-109.51
-105.75
-101.74
-99.96
-101.52
-105.36
-108.33
-106.54
-97.45
-81.46
-62.34
-45.75
-36.89
-38.30
-48.87
-64.68
-80.89
-93.65
-101.14
-103.35
-101.21
-95.59
-87.02
-75.90
-62.99
-49.65
-37.53
-28.00
-21.61
-17.96
-15.92
-14.27
-11.98
-8.49
-3.74
1.84
7.40
11.80
13.95
13.26
9.94
4.99
-0.27
-4.75
-8.13
-10.89
-13.86
-17.72
-22.51
-27.71
-32.54
-36.50
-39.57
-42.15
-44.82
-48.05
-52.02
-56.64
-61.63
-66.56
-70.83
-73.66
-74.01
-70.76
-63.04
-50.57
-34.03
-14.97
4.47
22.17
36.60
47.12
53.96
57.92
59.91
60.63
60.48
59.66
58.30
56.56
54.60
52.51
50.26
47.76
44.95
41.89
38.84
36.15
34.12
32.91
32.42
32.35
32.29
31.83
30.70
28.79
26.16
23.02
19.70
16.62
14.14
12.52
11.80
11.79
12.15
12.49
12.50
11.93
10.62
8.42
5.24
1.06
-3.93
-9.39
-14.88
-20.08
-24.92
-29.56
-34.30
-39.32
-44.55
-49.63
-54.11
-57.69
-60.33
-62.29
-63.98
-65.73
-67.63
-69.52
-71.13
-72.24
-72.84
-73.21
-73.74
-74.84
-76.62
-78.79
-80.55
-80.64
-77.58
-70.08
-57.36
-39.54
-17.68
6.28
29.95
50.98
67.52
78.58
84.11
84.88
82.12
77.16
71.13
64.84
58.75
53.16
48.37
44.72
42.52
41.95
42.81
44.56
46.39
47.50
47.33
45.81
43.32
40.50
37.99
36.23
35.28
34.97
34.99
35.05
34.96
34.55
33.59
31.83
28.99
24.93
19.68
13.47
6.61
-0.58
-7.96
-15.50
-23.22
-31.01
-38.61
-45.65
-51.78
-56.83
-60.94
-64.52
-68.26
-72.99
-79.64
-89.06
-101.89
-118.39
-138.36
-161.11
-185.67
-211.09
-236.78
-262.59
-288.75
-315.42
-342.24
-368.15
-391.39
-410.02
-422.36
-427.36
-424.62
-414.22
-396.47
-371.84
-341.11
-305.43
-266.39
-225.61
-184.53
-143.98
-104.32
-65.63
-28.00
8.24
42.62
74.74
104.50
132.13
158.21
183.49
208.70
234.19
259.56
283.51
303.98
318.78
326.48
327.03
321.90
313.49
304.15
295.29
287.06
278.71
269.31
258.47
246.50
234.20
222.36
211.28
200.73
190.19
179.19
167.57
155.60
143.79
132.56
122.02
111.97
102.04
91.86
81.34
70.61
59.97
49.73
40.06
30.93
22.19
13.65
5.18
-3.24
-11.54
-19.61
-27.37
-34.76
-41.82
-48.65
-55.39
-62.20
-69.28
-76.87
-85.29
-94.78
-105.34
-116.41
-126.74
-134.45
-137.47
-134.08
-123.56
-106.38
-84.09
-58.78
-32.58
-7.15
16.37
37.39
55.55
70.74
82.92
92.21
98.85
103.15
105.47
106.23
105.79
104.44
102.40
99.82
96.87
93.79
90.90
88.58
87.02
86.16
85.67
85.02
83.83
81.90
79.31
76.25
72.89
69.27
65.34
61.03
56.34
51.35
46.15
40.82
35.35
29.75
23.99
18.07
12.02
5.85
-0.44
-6.88
-13.53
-20.48
-27.81
-35.57
-43.73
-52.13
-60.50
-68.55
-75.99
-82.71
-88.79
-94.54
-100.48
-107.20
-115.21
-124.72
-135.29
-145.76
-154.21
-158.40
-156.29
-146.68
-129.53
-106.07
-78.41
-49.00
-20.11
6.52
29.78
49.16
64.57
76.26
84.69
90.50
94.35
96.84
98.35
99.03
98.84
97.69
95.53
92.55
89.16
86.01
83.72
82.74
83.10
84.41
85.90
86.77
86.45
84.81
82.06
78.64
74.89
70.91
66.60
61.80
56.51
50.96
45.50
40.38
35.62
31.02
26.22
20.98
15.20
9.01
2.59
-3.84
-10.20
-16.47
-22.70
-29.02
-35.55
-42.40
-49.62
-57.16
-64.88
-72.57
-80.05
-87.24
-94.27
-101.50
-109.45
-118.52
-128.73
-139.38
-148.91
-155.15
-155.73
-148.90
-133.99
-111.73
-84.04
-53.52
-22.82
5.84
30.96
51.74
68.02
80.06
88.39
93.67
96.61
97.82
97.81
96.92
95.36
93.25
90.70
87.81
84.80
81.98
79.71
78.30
77.87
78.28
79.12
79.84
79.86
78.82
76.66
73.57
69.89
65.91
61.77
57.48
52.97
48.20
43.23
38.12
32.91
27.49
21.72
15.47
8.79
1.91
-4.81
-11.09
-16.89
-22.41
-28.03
-34.09
-40.77
-48.03
-55.58
-63.05
-70.12
-76.58
-82.43
-87.93
-93.55
-99.92
-107.53
-116.53
-126.35
-135.68
-142.56
-144.87
-140.88
-129.77
-111.90
-88.72
-62.39
-35.26
-9.46
13.45
32.55
47.55
58.61
66.21
71.00
73.62
74.67
74.58
73.65
72.11
70.14
67.96
65.72
63.52
61.39
59.39
57.65
56.32
55.55
55.29
55.30
55.11
54.26
52.39
49.44
45.61
41.25
36.67
32.06
27.41
22.57
17.40
11.80
5.82
-0.35
-6.45
-12.21
-17.52
-22.51
-27.50
-32.88
-39.01
-46.02
-53.74
-61.80
-69.72
-77.17
-84.04
-90.53
-97.05
-104.17
-112.30
-121.58
-131.60
-141.28
-148.88
-152.28
-149.49
-139.22
-121.45
-97.44
-69.51
-40.41
-12.60
12.16
33.00
49.74
62.64
72.11
78.65
82.77
85.02
85.97
86.12
85.83
85.28
84.49
83.39
81.95
80.26
78.54
77.14
76.36
76.35
77.03
78.05
78.93
79.20
78.47
76.52
73.33
69.05
63.98
58.53
53.12
48.11
43.69
39.84
36.36
32.96
29.43
25.67
21.75
17.83
14.02
10.30
6.50
2.33
-2.45
-7.91
-13.89
-20.07
-26.08
-31.67
-36.82
-41.78
-46.90
-52.52
-58.82
-65.70
-72.86
-79.85
-86.30
-92.05
-97.28
-102.49
-108.37
-115.56
-124.35
-134.45
-144.74
-153.43
-158.28
-157.16
-148.62
-132.41
-109.54
-82.10
-52.72
-23.90
2.34
24.70
42.60
56.00
65.33
71.32
74.90
76.95
78.18
78.92
79.19
78.83
77.71
75.86
73.59
71.31
69.48
68.42
68.24
68.79
69.73
70.60
70.98
70.59
69.30
67.15
64.29
60.90
57.15
53.15
48.97
44.65
40.20
35.64
30.97
26.25
21.58
17.03
12.64
8.32
3.94
-0.66
-5.55
-10.65
-15.80
-20.78
-25.53
-30.15
-34.93
-40.21
-46.19
-52.83
-59.84
-66.80
-73.34
-79.28
-84.77
-90.20
-96.14
-103.17
-111.61
-121.23
-131.07
-139.33
-143.71
-141.99
-132.76
-115.90
-92.77
-65.80
-37.83
-11.43
11.66
30.54
45.13
55.77
63.01
67.52
69.90
70.82
70.84
70.44
69.88
69.19
68.26
66.96
65.32
63.59
62.21
61.60
61.99
63.21
64.84
66.25
66.91
66.51
64.98
62.47
59.26
55.63
51.85
48.12
44.53
41.03
37.51
33.83
29.88
25.69
21.35
17.09
13.09
9.50
6.31
3.34
0.27
-3.23
-7.40
-12.25
-17.50
-22.74
-27.58
-31.87
-35.80
-39.82
-44.44
-49.99
-56.48
-63.56
-70.74
-77.57
-83.84
-89.64
-95.28
-101.17
-107.74
-115.38
-124.25
-134.03
-143.65
-151.18
-154.17
-150.27
-138.18
-118.13
-92.05
-62.91
-33.87
-7.38
15.15
33.37
47.52
58.15
65.84
71.20
74.88
77.49
79.52
81.16
82.33
82.79
82.31
80.92
78.89
76.68
74.80
73.63
73.31
73.72
74.51
75.23
75.42
74.76
73.17
70.72
67.65
64.23
60.67
57.10
53.55
50.00
46.43
42.81
39.12
35.35
31.48
27.52
23.48
19.42
15.38
11.41
7.55
3.76
0.01
-3.76
-7.63
-11.67
-15.93
-20.37
-24.91
-29.38
-33.68
-37.83
-42.06
-46.71
-52.09
-58.26
-64.94
-71.65
-77.86
-83.29
-88.05
-92.59
-97.58
-103.65
-111.16
-120.01
-129.38
-137.73
-142.89
-142.57
-134.98
-119.52
-97.15
-70.19
-41.72
-14.64
8.93
28.04
42.68
53.47
61.24
66.76
70.70
73.62
75.88
77.69
79.04
79.83
79.99
79.67
79.25
79.31
80.37
82.67
86.13
90.35
94.79
99.02
102.78
106.03
108.91
111.55
114.03
116.30
118.27
119.89
121.28
122.72
124.65
127.42
131.16
135.64
140.38
144.85
148.75
152.24
155.92
160.68
167.42
176.74
188.68
202.46
216.27
227.33
232.35
228.37
213.75
188.87
156.00
118.53
79.74
41.80
5.52
-29.12
-62.15
-93.05
-120.77
-144.35
-163.60
-179.32
-193.06
-206.37
-220.06
-233.58
-245.03
-251.61
-250.60
-240.31
-220.86
-194.33
-164.16
-134.09
-107.06
-84.55
-66.67
-52.79
-42.28
-34.90
-30.71
-29.61
-30.98
-33.68
-36.37
-38.09
-38.52
-38.03
-37.34
-37.04
-37.33
-37.94
-38.40
-38.32
-37.66
-36.76
-36.13
-36.23
-37.24
-38.97
-40.98
-42.84
-44.28
-45.34
-46.26
-47.30
-48.59
-50.08
-51.62
-53.05
-54.29
-55.31
-56.13
-56.72
-57.11
-57.40
-57.81
-58.57
-59.80
-61.43
-63.18
-64.74
-65.94
-66.79
-67.57
-68.64
-70.28
-72.62
-75.54
-78.74
-81.82
-84.39
-86.19
-87.21
-87.71
-88.16
-89.06
-90.77
-93.22
-95.91
-98.06
-98.85
-97.91
-95.56
-92.82
-90.93
-90.67
-91.54
-91.43
-86.93
-74.10
-49.57
-11.46
40.14
103.04
173.17
245.04
312.46
369.50
411.65
436.76
445.34
440.14
424.83
402.68
375.61
344.21
308.43
268.67
226.38
184.08
144.53
109.84
80.85
57.16
37.74
21.55
8.15
-2.46
-10.28
-15.75
-19.99
-24.41
-30.14
-37.50
-45.93
-54.31
-61.55
-67.17
-71.44
-75.21
-79.35
-84.33
-89.93
-95.40
-99.83
-102.68
-104.05
-104.64
-105.45
-107.24
-110.20
-113.84
-117.21
-119.41
-119.96
-119.01
-117.10
-114.93
-112.92
-111.14
-109.39
-107.46
-105.27
-102.98
-100.84
-99.13
-98.04
-97.70
-98.18
-99.38
-100.89
-101.84
-101.01
-97.13
-89.45
-78.13
-64.39
-50.16
-37.48
-27.75
-21.47
-18.32
-17.59
-18.65
-21.23
-25.43
-31.41
-39.15
-48.41
-58.93
-70.66
-83.77
-98.51
-114.92
-132.59
-150.67
-168.16
-184.24
-198.30
-209.73
-217.67
-220.95
-218.29
-208.83
-192.51
-170.22
-143.45
-113.73
-82.19
-49.52
-16.15
17.37
50.20
81.23
109.36
133.76
154.06
170.31
182.80
191.93
197.99
201.14
201.33
198.49
192.68
184.24
173.74
161.81
148.99
135.61
121.85
107.91
94.19
81.22
69.50
59.22
50.17
41.87
33.88
26.09
18.89
12.93
8.78
6.52
5.55
4.73
2.93
-0.47
-5.12
-9.57
-11.57
-8.71
0.87
17.88
41.48
69.33
97.94
123.46
142.60
153.31
155.23
149.60
138.63
124.64
109.34
93.48
76.99
59.48
40.84
21.66
3.19
-12.91
-25.12
-32.58
-35.29
-34.08
-30.31
-25.38
-20.51
-16.54
-13.93
-12.95
-13.71
-16.19
-20.20
-25.38
-31.23
-37.21
-42.97
-48.38
-53.47
-58.35
-63.04
-67.40
-71.16
-74.01
-75.72
-76.25
-75.71
-74.33
-72.40
-70.22
-68.09
-66.23
-64.81
-63.82
-63.23
-62.96
-62.99
-63.39
-64.25
-65.64
-67.49
-69.63
-71.77
-73.72
-75.43
-77.05
-78.98
-81.72
-85.73
-91.06
-97.17
-102.71
-105.82
-104.43
-96.85
-82.23
-60.76
-33.64
-2.81
29.44
60.83
89.49
114.21
134.54
150.64
162.96
171.85
177.39
179.40
177.66
172.24
163.67
152.94
141.40
130.62
122.08
116.77
114.66
114.40
113.50
109.05
98.81
82.02
59.77
34.45
8.83
-14.81
-35.09
-51.40
-63.58
-71.72
-76.10
-77.40
-76.73
-75.42
-74.58
-74.75
-75.74
-76.86
-77.24
-76.30
-73.98
-70.74
-67.36
-64.62
-63.02
-62.59
-62.89
-63.33
-63.37
-62.89
-62.25
-62.11
-63.12
-65.41
-68.27
-70.11
-68.93
-63.02
-51.69
-35.68
-16.97
1.88
18.44
31.21
39.75
44.58
46.69
47.11
46.65
45.85
45.02
44.33
43.80
43.37
42.83
42.04
40.87
39.38
37.74
36.21
35.07
34.47
34.43
34.78
35.18
35.17
34.34
32.41
29.40
25.67
21.73
18.17
15.35
13.29
11.74
10.23
8.42
6.16
3.60
1.07
-1.08
-2.67
-3.73
-4.50
-5.30
-6.40
-7.94
-9.85
-11.93
-13.92
-15.61
-16.98
-18.22
-19.64
-21.58
-24.23
-27.59
-31.41
-35.31
-38.95
-42.13
-44.80
-47.11
-49.36
-51.94
-55.30
-59.66
-64.77
-69.64
-72.66
-71.92
-65.97
-54.36
-38.03
-19.07
-0.04
16.78
29.99
39.18
44.76
47.54
48.40
48.10
47.30
46.46
45.89
45.66
45.57
45.31
44.51
42.98
40.80
38.28
35.94
34.23
33.48
33.70
34.55
35.44
35.66
34.69
32.36
28.92
24.90
20.97
17.57
14.86
12.68
10.70
8.64
6.36
3.92
1.48
-0.81
-2.88
-4.75
-6.50
-8.21
-9.92
-11.64
-13.39
-15.25
-17.33
-19.76
-22.63
-25.81
-29.06
-32.02
-34.41
-36.12
-37.37
-38.54
-40.11
-42.52
-46.05
-50.83
-56.69
-63.02
-68.66
-71.94
-71.02
-64.54
-52.21
-35.03
-15.17
4.79
22.58
36.75
46.81
52.99
55.89
56.18
54.56
51.72
48.41
45.28
42.73
40.86
39.49
38.28
36.98
35.50
33.95
32.60
31.77
31.70
32.45
33.85
35.44
36.67
36.96
35.94
33.56
30.07
25.91
21.54
17.25
13.11
9.00
4.81
0.49
-3.84
-7.96
-11.66
-14.79
-17.37
-19.54
-21.53
-23.61
-26.01
-28.84
-31.99
-35.22
-38.14
-40.47
-42.14
-43.30
-44.31
-45.48
-46.95
-48.61
-50.20
-51.40
-52.08
-52.26
-52.19
-52.29
-53.05
-54.97
-58.22
-62.41
-66.36
-68.19
-65.86
-57.80
-43.72
-24.83
-3.57
17.14
34.78
47.92
56.37
60.93
62.84
63.27
63.03
62.52
61.79
60.72
59.19
57.19
54.85
52.45
50.23
48.39
46.95
45.81
44.82
43.87
42.92
41.93
40.77
39.20
36.94
33.93
30.35
26.72
23.61
21.38
19.97
18.93
17.63
15.62
12.81
9.51
6.29
3.59
1.67
0.44
-0.38
-1.23
-2.46
-4.26
-6.64
-9.32
-11.93
-14.12
-15.74
-16.90
-17.94
-19.29
-21.26
-23.95
-27.22
-30.76
-34.22
-37.36
-40.09
-42.59
-45.27
-48.64
-53.15
-58.75
-64.68
-69.39
-70.91
-67.44
-58.04
-43.11
-24.34
-4.19
14.80
30.72
42.63
50.50
54.89
56.59
56.37
54.85
52.54
49.89
47.26
44.90
42.87
41.05
39.27
37.31
35.14
32.90
30.88
29.41
28.65
28.55
28.76
28.83
28.29
26.93
24.78
22.12
19.33
16.72
14.43
12.37
10.29
7.94
5.16
1.99
-1.38
-4.68
-7.65
-10.18
-12.35
-14.34
-16.33
-18.43
-20.60
-22.77
-24.85
-26.92
-29.13
-31.65
-34.57
-37.77
-40.98
-43.82
-46.01
-47.46
-48.37
-49.20
-50.54
-52.95
-56.72
-61.64
-66.84
-70.84
-71.87
-68.29
-59.15
-44.57
-25.82
-5.04
15.30
33.07
46.90
56.38
61.86
64.14
64.12
62.58
60.11
57.14
54.02
51.05
48.44
46.29
44.54
43.05
41.69
40.38
39.25
38.44
38.09
38.19
38.48
38.57
38.00
36.49
34.02
30.84
27.35
23.93
20.86
18.23
15.98
13.97
12.03
9.97
7.70
5.19
2.54
-0.09
-2.45
-4.31
-5.64
-6.56
-7.44
-8.68
-10.53
-13.01
-15.87
-18.69
-21.16
-23.16
-24.87
-26.69
-29.01
-32.04
-35.70
-39.69
-43.58
-47.01
-49.84
-52.23
-54.59
-57.51
-61.50
-66.75
-72.78
-78.32
-81.48
-80.15
-72.77
-58.84
-39.29
-16.23
7.58
29.50
47.55
60.73
68.94
72.78
73.23
71.43
68.44
65.09
61.86
58.86
55.98
53.01
49.81
46.44
43.11
40.12
37.73
36.12
35.27
35.02
35.03
34.84
34.02
32.26
29.52
26.00
22.13
18.34
15.01
12.27
10.02
8.00
5.88
3.40
0.51
-2.65
-5.81
-8.68
-11.11
-13.17
-15.09
-17.16
-19.55
-22.19
-24.86
-27.27
-29.33
-31.11
-32.85
-34.80
-37.05
-39.48
-41.84
-43.84
-45.30
-46.26
-47.01
-47.96
-49.63
-52.39
-56.21
-60.56
-64.27
-65.81
-63.60
-56.60
-44.70
-28.85
-10.86
7.14
23.26
36.24
45.57
51.37
54.05
54.16
52.20
48.68
44.15
39.24
34.53
30.51
27.39
25.17
23.70
22.76
22.22
22.04
22.25
22.93
24.07
25.54
27.07
28.32
28.92
28.58
27.15
24.63
21.17
17.00
12.37
7.53
2.68
-2.01
-6.34
-10.19
-13.45
-16.20
-18.70
-21.34
-24.51
-28.38
-32.81
-37.36
-41.54
-45.01
-47.82
-50.47
-53.73
-58.31
-64.52
-71.92
-79.31
-84.84
-86.39
-82.22
-71.49
-54.63
-33.39
-10.42
11.43
29.84
43.46
52.10
56.40
57.35
55.94
52.81
48.35
42.90
36.90
30.97
25.83
21.91
19.17
17.06
14.78
11.67
7.68
3.40
-0.19
-2.28
-2.74
-2.34
-2.53
-4.83
-10.24
-18.77
-29.50
-41.01
-51.81
-60.88
-67.86
-73.10
-77.60
-82.93
-90.79
-102.33
-117.15
-132.46
-143.24
-143.37
-127.74
-94.31
-45.41
12.60
71.09
121.66
158.46
179.19
184.95
179.07
165.61
148.19
129.36
110.63
92.74
76.03
60.72
46.94
34.67
23.78
14.12
5.78
-0.91
-5.37
-7.06
-5.69
-1.42
5.05
12.42
19.03
23.05
22.90
17.65
7.31
-7.01
-23.22
-38.64
-50.50
-56.57
-55.67
-48.03
-35.24
-19.78
-4.26
9.39
20.35
28.88
35.88
42.06
47.64
52.19
55.09
55.90
54.72
52.05
48.54
44.69
40.72
36.63
32.47
28.43
24.87
22.15
20.50
19.89
20.02
20.41
20.53
19.91
18.25
15.43
11.49
6.57
0.84
-5.63
-12.71
-20.15
-27.32
-33.36
-37.33
-38.76
-37.86
-35.56
-33.16
-31.80
-31.99
-33.62
-36.09
-38.78
-41.36
-43.93
-46.86
-50.58
-55.20
-60.39
-65.21
-68.12
-67.21
-60.51
-46.60
-25.21
2.44
33.68
64.97
92.76
114.40
128.65
135.72
136.78
133.44
127.27
119.52
111.16
102.92
95.23
88.18
81.44
74.41
66.45
57.14
46.52
35.09
23.60
12.85
3.44
-4.34
-10.61
-15.69
-20.01
-23.92
-27.52
-30.76
-33.48
-35.55
-36.99
-37.99
-38.84
-39.85
-41.17
-42.86
-44.78
-46.77
-48.57
-50.02
-51.05
-51.74
-52.30
-53.03
-54.25
-56.14
-58.67
-61.55
-64.35
-66.60
-68.02
-68.64
-68.88
-69.37
-70.82
-73.67
-77.86
-82.68
-86.85
-88.69
-86.55
-79.19
-66.12
-47.82
-25.70
-1.77
21.72
42.75
59.92
72.51
80.55
84.57
85.34
83.63
80.13
75.40
69.86
63.95
58.04
52.43
47.31
42.76
38.76
35.34
32.61
30.72
29.83
29.88
30.54
31.24
31.32
30.32
28.12
25.00
21.43
17.82
14.30
10.70
6.75
2.29
-2.59
-7.52
-12.09
-16.03
-19.36
-22.32
-25.23
-28.33
-31.63
-34.98
-38.12
-40.88
-43.21
-45.24
-47.17
-49.21
-51.48
-54.00
-56.68
-59.39
-62.00
-64.49
-66.96
-69.64
-72.84
-76.79
-81.53
-86.69
-91.42
-94.41
-94.08
-88.92
-77.89
-60.75
-38.29
-12.31
14.70
40.02
61.38
77.38
87.67
92.87
94.16
92.76
89.66
85.54
80.81
75.83
70.91
66.31
62.09
58.17
54.38
50.61
46.92
43.50
40.53
38.00
35.66
33.15
30.14
26.46
22.17
17.49
12.66
7.93
3.47
-0.56
-4.05
-7.00
-9.50
-11.80
-14.14
-16.73
-19.63
-22.79
-26.07
-29.39
-32.75
-36.13
-39.53
-42.89
-46.18
-49.45
-52.86
-56.59
-60.74
-65.26
-69.95
-74.58
-79.01
-83.28
-87.49
-91.83
-96.41
-101.35
-106.81
-112.88
-119.51
-126.24
-132.08
-135.63
-135.34
-129.98
-118.85
-101.93
-79.77
-53.50
-24.73
4.50
31.94
55.46
73.59
85.88
92.86
95.80
96.08
94.82
92.66
89.90
86.79
83.61
80.65
78.04
75.67
73.24
70.45
67.16
63.51
59.84
56.51
53.61
50.80
47.42
42.72
36.24
28.05
18.83
9.69
1.80
-3.97
-7.27
-8.38
-8.02
-7.13
-6.62
-7.17
-9.03
-12.07
-15.73
-19.28
-21.97
-23.27
-22.97
-21.16
-18.22
-14.65
-10.96
-7.55
-4.73
-2.76
-1.89
-2.46
-4.61
-8.12
-12.08
-14.84
-14.39
-8.86
2.80
20.52
43.13
68.77
95.24
120.43
142.32
159.20
169.81
173.69
171.51
164.93
156.13
147.02
138.60
130.83
123.05
114.64
105.47
95.95
86.65
77.86
69.42
60.93
52.07
42.89
33.80
25.29
17.61
10.71
4.30
-1.86
-7.88
-13.68
-19.16
-24.25
-29.06
-33.71
-38.30
-42.89
-47.49
-52.05
-56.52
-60.85
-64.94
-68.72
-72.19
-75.39
-78.41
-81.34
-84.18
-86.82
-89.11
-90.89
-92.15
-93.05
-93.86
-94.84
-96.17
-97.82
-99.55
-101.07
-102.05
-102.33
-102.07
-101.72
-102.00
-103.73
-107.32
-112.35
-117.22
-119.29
-115.50
-103.29
-81.61
-51.47
-15.81
21.31
55.75
84.32
105.36
118.77
125.59
127.48
126.16
123.04
118.97
114.22
108.49
101.17
91.66
79.82
66.12
51.73
38.17
26.87
18.71
13.85
11.78
11.59
12.26
12.90
12.79
11.53
9.05
5.59
1.61
-2.28
-5.62
-8.18
-9.98
-11.26
-12.30
-13.30
-14.35
-15.49
-16.75
-18.22
-20.00
-22.16
-24.62
-27.20
-29.63
-31.72
-33.50
-35.16
-37.07
-39.49
-42.46
-45.72
-48.83
-51.36
-53.15
-54.32
-55.29
-56.61
-58.81
-62.31
-67.28
-73.40
-79.75
-84.58
-85.58
-80.34
-67.22
-46.10
-18.75
11.48
40.44
64.28
80.33
87.50
86.22
78.02
65.04
49.55
33.70
19.30
7.74
-0.10
-3.93
-4.01
-1.15
3.56
8.94
14.14
18.82
23.12
27.52
32.39
37.81
43.53
49.19
54.62
59.91
65.26
70.61
75.37
78.42
78.59
75.17
68.34
59.22
49.55
41.15
35.35
32.71
32.97
35.29
38.60
41.84
44.03
44.23
41.49
34.84
23.61
7.80
-11.58
-32.52
-52.31
-68.39
-79.17
-84.59
-86.27
-86.85
-89.15
-95.16
-105.62
-119.77
-135.78
-151.07
-162.74
-167.95
-164.35
-150.76
-127.77
-97.95
-65.52
-35.19
-10.84
5.53
14.10
16.66
15.68
13.33
11.08
9.70
9.51
10.65
13.07
16.49
20.37
24.00
26.76
28.37
29.07
29.41
30.12
31.62
33.88
36.37
38.32
38.97
38.00
35.56
32.21
28.63
25.34
22.53
20.09
17.76
15.32
12.69
9.94
7.20
4.57
2.06
-0.39
-2.79
-5.18
-7.53
-9.85
-12.29
-15.05
-18.41
-22.57
-27.60
-33.37
-39.59
-45.81
-51.57
-56.56
-60.72
-64.35
-68.15
-73.04
-79.82
-88.73
-98.98
-108.63
-114.79
-114.36
-104.98
-85.93
-58.45
-25.49
9.04
41.27
68.21
88.20
100.89
107.02
107.98
105.46
101.07
96.06
91.19
86.70
82.50
78.33
74.01
69.50
64.94
60.59
56.74
53.68
51.57
50.35
49.72
49.12
47.88
45.41
41.40
35.82
28.91
21.08
12.73
4.25
-4.09
-12.09
-19.69
-26.85
-33.66
-40.21
-46.58
-52.78
-58.79
-64.51
-69.96
-75.26
-80.70
-86.73
-93.81
-102.21
-111.86
-122.23
-132.47
-141.61
-148.78
-153.55
-155.97
-156.65
-156.58
-156.95
-158.57
-161.47
-164.47
-165.11
-160.10
-146.25
-121.49
-85.81
-41.49
7.45
56.35
101.20
139.60
171.00
196.23
216.69
233.41
246.67
256.11
261.20
261.77
258.27
251.66
243.06
233.40
223.49
214.17
206.46
201.33
199.26
199.61
200.34
198.30
190.12
173.28
147.04
112.79
73.75
34.14
-1.76
-30.55
-50.22
-60.28
-61.64
-56.15
-46.27
-34.64
-23.74
-15.58
-11.40
-11.56
-15.57
-22.34
-30.61
-39.34
-47.93
-56.13
-63.84
-70.89
-77.04
-82.07
-85.99
-89.15
-92.19
-95.75
-100.23
-105.60
-111.42
-117.00
-121.76
-125.51
-128.51
-131.49
-135.43
-141.23
-149.42
-159.73
-170.79
-180.12
-184.46
-180.63
-166.48
-141.84
-108.74
-70.95
-32.86
1.76
30.53
52.67
68.65
79.49
86.28
89.92
91.20
90.86
89.62
88.13
86.73
85.43
83.89
81.65
78.40
74.06
68.97
63.76
59.11
55.56
53.19
51.57
49.90
47.38
43.46
38.15
31.94
25.58
19.65
14.31
9.25
3.90
-2.18
-9.06
-16.37
-23.45
-29.70
-34.86
-39.14
-43.12
-47.49
-52.74
-58.96
-65.92
-73.23
-80.57
-87.79
-94.82
-101.64
-108.14
-114.19
-119.63
-124.28
-127.73
-129.27
-127.86
-122.50
-112.87
-99.73
-85.08
-71.61
-61.74
-56.49
-54.71
-53.06
-46.79
-31.32
-3.96
34.91
81.58
130.05
173.76
207.47
228.65
237.63
236.90
229.89
219.74
208.61
197.70
187.60
178.64
171.18
165.51
161.64
159.09
156.84
153.63
148.25
140.11
129.31
116.61
103.15
89.98
77.83
66.99
57.42
48.90
41.26
34.39
28.24
22.74
17.66
12.64
7.18
0.84
-6.58
-14.92
-23.54
-31.47
-37.70
-41.45
-42.50
-41.34
-39.22
-37.87
-39.13
-44.50
-54.71
-69.56
-88.04
-108.60
-129.63
-149.76
-168.06
-183.97
-197.13
-207.19
-213.70
-216.31
-214.97
-210.38
-204.13
-198.43
-195.38
-195.87
-198.74
-200.58
-196.66
-182.37
-154.91
-114.37
-63.78
-8.37
45.86
93.51
130.87
156.39
170.66
175.86
175.00
170.93
165.80
160.69
155.82
150.97
145.85
140.34
134.48
128.45
122.46
116.81
111.86
107.97
105.31
103.74
102.69
101.39
99.03
95.07
89.40
82.29
74.34
66.21
58.49
51.60
45.69
40.67
36.15
31.60
26.44
20.32
13.29
5.80
-1.36
-7.53
-12.36
-16.08
-19.34
-23.00
-27.69
-33.60
-40.31
-47.00
-52.73
-56.80
-59.01
-59.75
-59.93
-60.58
-62.52
-65.99
-70.56
-75.35
-79.29
-81.69
-82.44
-82.19
-82.21
-84.02
-88.88
-97.10
-107.38
-116.60
-120.21
-113.47
-93.00
-58.22
-11.78
41.09
94.24
142.38
182.40
213.57
236.89
254.08
266.48
274.49
277.57
274.61
264.55
247.07
222.90
193.70
161.60
128.55
95.84
64.10
33.64
4.91
-21.24
-43.79
-61.95
-75.53
-84.99
-91.09
-94.62
-96.14
-96.10
-95.04
-93.67
-92.77
-92.81
-93.68
-94.61
-94.45
-92.22
-87.66
-81.58
-75.66
-71.94
-72.06
-76.73
-85.54
-97.17
-110.01
-122.71
-134.49
-145.06
-154.16
-161.30
-165.64
-166.33
-163.01
-156.13
-147.03
-137.60
-129.81
-125.33
-125.30
-130.21
-139.70
-152.33
-165.41
-175.13
-177.37
-168.87
-148.35
-117.19
-79.07
-38.88
-1.34
30.16
54.07
70.51
80.72
86.38
89.14
90.33
90.82
91.02
90.92
90.29
88.87
86.56
83.57
80.35
77.48
75.55
74.99
76.00
78.43
81.79
85.33
88.17
89.61
89.34
87.56
84.84
81.85
79.00
76.37
73.63
70.37
66.32
61.58
56.54
51.72
47.52
44.02
40.99
38.01
34.74
31.00
26.84
22.44
17.93
13.38
8.82
4.34
0.17
-3.44
-6.39
-8.94
-11.62
-15.15
-20.05
-26.34
-33.42
-40.21
-45.62
-48.96
-50.40
-50.94
-52.20
-55.81
-62.68
-72.38
-82.86
-90.81
-92.42
-84.55
-65.65
-36.42
0.24
39.77
76.87
106.68
125.78
132.90
129.07
117.15
100.80
83.46
67.52
54.12
43.46
35.35
29.57
26.00
24.46
24.54
25.63
27.10
28.53
29.83
31.13
32.56
34.07
35.39
36.09
35.79
34.30
31.74
28.51
25.13
22.06
19.54
17.45
15.44
13.10
10.19
6.73
3.04
-0.47
-3.55
-6.20
-8.68
-11.39
-14.64
-18.49
-22.73
-27.03
-31.09
-34.85
-38.52
-42.47
-47.04
-52.36
-58.30
-64.42
-70.26
-75.46
-79.98
-84.15
-88.63
-94.23
-101.59
-110.83
-121.20
-130.93
-137.53
-138.36
-131.52
-116.48
-94.35
-67.54
-39.06
-11.76
12.28
31.85
46.54
56.51
62.30
64.75
64.93
63.89
62.54
61.35
60.43
59.56
58.43
56.85
54.84
52.72
50.94
49.99
50.23
51.65
53.86
56.15
57.67
57.77
56.24
53.32
49.54
45.47
41.49
37.66
33.85
29.88
25.68
21.38
17.23
13.46
10.24
7.55
5.13
2.56
-0.62
-4.70
-9.67
-15.19
-20.69
-25.66
-29.89
-33.58
-37.29
-41.72
-47.43
-54.65
-63.19
-72.50
-81.86
-90.60
-98.30
-104.97
-111.05
-117.35
-124.64
-133.14
-142.15
-149.78
-153.36
-150.17
-138.41
-117.97
-90.55
-59.22
-27.51
1.55
26.05
45.32
59.68
69.98
77.24
82.39
86.21
89.20
91.60
93.48
94.70
95.12
94.64
93.30
91.28
88.89
86.48
84.33
82.56
81.03
79.39
77.27
74.34
70.53
66.02
61.20
56.47
52.17
48.47
45.40
42.85
40.63
38.46
36.01
33.04
29.42
25.26
20.84
16.51
12.58
9.19
6.32
3.76
1.20
-1.75
-5.55
-10.64
-17.32
-25.55
-34.81
-44.22
-52.75
-59.69
-64.81
-68.47
-71.23
-73.55
-75.47
-76.72
-77.00
-76.34
-75.38
-75.18
-76.95
-81.62
-89.45
-99.95
-111.87
-123.31
-131.92
-135.28
-131.40
-119.23
-99.07
-72.68
-42.89
-12.98
14.09
36.31
52.75
63.56
69.64
72.29
72.88
72.58
72.19
71.93
71.57
70.56
68.37
64.81
60.16
55.11
50.48
47.03
45.18
45.01
46.23
48.28
50.41
51.89
52.17
51.05
48.72
45.68
42.48
39.50
36.79
34.16
31.39
28.43
25.43
22.67
20.34
18.37
16.41
14.03
10.93
7.03
2.59
-2.01
-6.38
-10.32
-13.85
-17.22
-20.75
-24.68
-29.01
-33.47
-37.69
-41.43
-44.86
-48.71
-54.10
-62.29
-74.27
-90.45
-110.40
-132.67
-154.84
-173.66
-185.57
-187.53
-177.88
-157.07
-127.62
-93.61
-59.47
-28.97
-4.35
13.76
26.02
33.72
38.16
40.30
40.65
39.53
37.30
34.70
32.80
32.85
35.86
42.27
51.86
63.82
77.12
90.74
103.78
115.47
125.08
131.98
135.80
136.61
134.89
131.49
127.18
122.46
117.47
112.11
106.28
100.16
94.20
89.00
85.04
82.38
80.68
79.29
77.56
75.17
72.22
69.12
66.26
63.64
60.65
56.14
48.77
37.29
20.97
-0.16
-25.11
-51.81
-77.35
-98.54
-112.82
-119.12
-118.46
-113.59
-107.99
-104.72
-105.41
-110.17
-118.08
-128.16
-139.88
-153.28
-168.36
-184.30
-199.15
-209.88
-213.23
-206.71
-189.47
-162.64
-128.95
-91.98
-55.17
-21.12
8.62
33.47
53.39
68.65
79.68
87.10
91.70
94.40
95.98
97.03
97.74
98.06
97.78
96.76
95.01
92.79
90.48
88.51
87.20
86.64
86.65
86.82
86.63
85.69
83.79
80.94
77.33
73.19
68.64
63.63
57.94
51.30
43.57
34.95
26.00
17.57
10.55
5.51
2.51
1.03
0.11
-1.35
-4.29
-9.21
-16.07
-24.36
-33.32
-42.19
-50.34
-57.44
-63.45
-68.51
-72.88
-76.85
-80.65
-84.46
-88.36
-92.35
-96.52
-101.09
-106.51
-113.28
-121.56
-130.75
-139.21
-144.52
-144.02
-135.78
-119.25
-95.57
-67.24
-37.40
-9.02
15.73
35.71
50.77
61.43
68.60
73.24
76.20
78.00
78.85
78.73
77.59
75.48
72.61
69.31
65.94
62.77
60.05
57.96
56.67
56.31
56.75
57.60
58.26
58.06
56.52
53.56
49.48
44.82
40.18
35.98
32.35
29.19
26.29
23.40
20.40
17.25
13.98
10.69
7.44
4.27
1.13
-2.07
-5.43
-9.06
-12.91
-16.90
-20.82
-24.53
-28.06
-31.65
-35.75
-40.78
-46.97
-54.21
-62.03
-69.76
-76.81
-82.88
-88.09
-92.90
-98.04
-104.36
-112.57
-123.03
-135.35
-148.24
-159.40
-165.98
-165.33
-155.85
-137.63
-112.51
-83.65
-54.55
-28.08
-5.91
11.72
25.62
37.14
47.60
57.95
68.55
79.28
89.62
98.92
106.62
112.41
116.37
118.94
120.78
122.54
124.78
127.72
131.35
135.43
139.69
143.82
147.64
150.96
153.68
155.77
157.37
158.70
160.00
161.30
162.30
162.51
161.53
159.30
156.06
152.06
146.96
139.69
128.68
112.65
91.52
66.74
41.05
17.49
-1.56
-14.94
-22.57
-24.97
-22.81
-16.73
-7.61
3.18
13.90
22.75
28.47
30.68
29.84
26.88
22.56
17.09
9.90
-0.08
-13.99
-32.47
-55.16
-80.49
-105.97
-128.58
-145.53
-154.82
-155.70
-148.79
-135.97
-120.04
-104.19
-91.28
-83.15
-80.17
-81.17
-84.15
-87.27
-89.78
-92.27
-96.12
-102.45
-111.19
-120.90
-129.26
-134.06
-134.01
-128.96
-119.66
-107.21
-92.66
-76.90
-60.75
-45.07
-30.77
-18.62
-9.08
-2.21
2.23
4.76
6.05
6.77
7.48
8.40
9.45
10.32
10.62
10.15
8.96
7.33
5.54
3.74
1.87
-0.30
-2.95
-6.09
-9.44
-12.55
-15.03
-16.76
-18.00
-19.29
-21.24
-24.14
-27.86
-31.86
-35.43
-38.14
-39.96
-41.28
-42.67
-44.65
-47.49
-51.35
-56.37
-62.71
-70.33
-78.60
-85.93
-89.97
-88.06
-78.22
-60.01
-34.84
-5.70
23.73
50.15
71.48
87.12
97.68
104.33
108.28
110.37
111.01
110.39
108.65
106.05
102.90
99.53
96.22
93.18
90.58
88.57
87.15
85.90
83.89
79.82
72.39
60.86
45.42
27.17
7.76
-11.14
-28.34
-43.26
-55.71
-65.63
-72.78
-76.85
-77.58
-75.09
-69.90
-62.92
-55.12
-47.31
-40.03
-33.54
-27.94
-23.28
-19.64
-17.11
-15.74
-15.53
-16.39
-18.14
-20.48
-23.05
-25.45
-27.33
-28.62
-29.51
-30.39
-31.74
-33.82
-36.66
-40.06
-43.71
-47.35
-50.79
-53.96
-56.87
-59.71
-62.83
-66.71
-71.87
-78.52
-86.20
-93.57
-98.49
-98.48
-91.53
-76.80
-55.06
-28.56
-0.45
26.08
48.53
65.55
77.01
83.65
86.65
87.17
86.12
84.05
81.20
77.60
73.26
68.27
62.85
57.36
52.23
47.83
44.38
41.82
39.87
38.09
35.97
33.06
29.08
23.91
17.60
10.33
2.39
-5.87
-14.11
-22.05
-29.56
-36.62
-43.33
-49.75
-55.98
-62.11
-68.44
-75.40
-83.47
-92.80
-102.96
-112.85
-120.92
-125.69
-126.25
-122.68
-115.94
-107.63
-99.36
-92.35
-87.11
-83.53
-81.08
-79.10
-77.09
-74.92
-72.82
-71.36
-71.11
-72.36
-74.75
-77.11
-77.60
-74.08
-64.76
-48.80
-26.73
-0.39
27.47
53.91
76.63
94.43
107.38
116.48
123.11
128.40
132.82
136.29
138.41
138.90
137.83
135.64
132.89
130.09
127.59
125.55
124.01
122.75
121.31
118.96
114.92
108.81
100.95
92.47
84.99
80.12
78.87
81.35
86.76
93.60
100.13
104.67
105.94
103.27
96.72
86.97
75.21
62.76
50.72
39.72
29.90
20.93
12.35
3.71
-5.19
-14.19
-22.90
-30.78
-37.50
-43.05
-47.85
-52.63
-58.08
-64.64
-72.20
-80.20
-87.84
-94.47
-99.89
-104.45
-109.03
-114.71
-122.35
-132.18
-143.36
-153.90
-160.88
-161.11
-152.17
-133.20
-105.41
-71.81
-36.38
-2.91
25.86
48.63
65.46
77.21
85.16
90.55
94.46
97.56
100.23
102.43
103.94
104.53
104.14
103.01
101.60
100.39
99.69
99.55
99.79
100.06
100.00
99.31
97.83
95.51
92.40
88.57
84.03
78.75
72.78
66.28
59.60
53.24
47.56
42.69
38.37
34.09
29.30
23.74
17.51
11.02
4.80
-0.71
-5.30
-8.94
-11.66
-13.59
-15.00
-16.34
-18.29
-21.48
-26.22
-32.28
-38.95
-45.41
-51.26
-56.85
-63.22
-71.48
-81.93
-93.41
-103.26
-108.00
-104.54
-91.37
-69.14
-40.49
-9.17
21.06
47.31
67.85
82.10
90.20
92.83
91.02
86.07
79.45
72.51
66.18
60.80
56.18
51.82
47.35
42.69
38.17
34.28
31.50
29.96
29.51
29.72
30.08
30.14
29.64
28.45
26.56
24.04
21.04
17.78
14.51
11.42
8.52
5.66
2.51
-1.19
-5.54
-10.46
-15.70
-20.94
-25.87
-30.24
-33.77
-36.25
-37.57
-37.81
-37.33
-36.69
-36.49
-37.18
-39.03
-42.07
-46.25
-51.52
-57.90
-65.38
-73.83
-82.91
-92.12
-100.91
-108.91
-115.89
-121.81
-126.73
-130.66
-133.44
-134.74
-133.99
-130.52
-123.76
-113.40
-99.63
-83.21
-65.34
-47.45
-30.89
-16.55
-4.82
4.41
11.58
17.29
22.12
26.43
30.38
33.81
36.47
38.10
38.62
38.28
37.52
36.90
36.82
37.42
38.47
39.53
40.07
39.71
38.24
35.76
32.53
28.92
25.34
22.16
19.61
17.72
16.26
14.75
12.74
10.04
6.90
3.91
1.68
0.37
-0.45
-1.75
-4.50
-9.25
-15.80
-23.33
-30.75
-37.08
-41.72
-44.48
-45.49
-45.10
-43.85
-42.34
-41.10
-40.42
-40.25
-40.35
-40.43
-40.36
-40.23
-40.27
-40.64
-41.48
-42.83
-44.69
-46.91
-49.00
-50.11
-49.05
-44.75
-36.74
-25.40
-11.97
1.86
14.53
25.08
33.25
39.25
43.52
46.37
47.93
48.21
47.26
45.28
42.55
39.40
36.05
32.61
29.09
25.41
21.53
17.51
13.50
9.64
5.95
2.24
-1.87
-6.81
-12.78
-19.64
-26.89
-33.83
-39.94
-45.05
-49.49
-53.88
-58.85
-64.72
-71.35
-78.29
-85.02
-91.31
-97.29
-103.30
-109.51
-115.64
-120.98
-124.54
-125.56
-123.76
-119.34
-112.83
-104.84
-95.97
-86.84
-78.19
-70.88
-65.61
-62.72
-62.09
-63.36
-66.24
-71.00
-78.31
-88.85
-102.46
-117.41
-130.28
-136.65
-132.39
-115.14
-85.29
-45.90
-1.71
42.27
82.18
115.90
142.89
163.62
178.95
189.67
196.54
200.24
201.47
200.78
198.54
194.80
189.38
182.12
172.99
162.24
150.47
138.58
127.60
118.55
112.17
108.65
107.59
108.03
108.83
108.97
107.92
105.73
102.88
99.89
97.03
94.13
90.66
86.07
80.13
73.12
65.75
58.85
53.07
48.61
45.26
42.53
39.88
36.84
33.15
28.76
23.89
18.96
14.39
10.29
6.29
1.48
-5.26
-14.74
-27.04
-41.27
-55.88
-69.24
-80.22
-88.59
-94.99
-100.67
-107.04
-115.20
-125.47
-137.03
-147.82
-154.80
-154.69
-144.93
-124.57
-94.69
-58.11
-18.59
20.20
55.35
85.15
108.90
126.63
138.76
145.93
148.87
148.36
145.17
140.00
133.47
126.15
118.55
111.08
104.10
97.97
93.09
89.95
89.05
90.68
94.65
100.21
105.95
109.99
110.32
105.21
93.67
75.87
53.17
27.85
2.47
-20.75
-40.44
-56.20
-68.21
-76.84
-82.25
-84.42
-83.40
-79.69
-74.35
-68.84
-64.63
-62.69
-63.21
-65.57
-68.66
-71.35
-72.99
-73.69
-74.17
-75.49
-78.43
-83.16
-89.14
-95.31
-100.67
-104.57
-107.09
-108.99
-111.48
-115.81
-122.85
-132.58
-143.80
-153.97
-159.53
-156.70
-142.58
-116.22
-79.16
-35.17
10.80
53.98
90.98
120.28
142.02
157.34
167.65
174.12
177.68
179.03
178.81
177.53
175.47
172.65
168.82
163.74
157.36
150.03
142.49
135.63
130.26
126.78
125.02
124.27
123.50
121.64
117.96
112.36
105.35
97.92
91.05
85.27
80.43
75.73
70.01
62.20
51.62
38.12
22.04
4.05
-15.03
-34.26
-52.74
-69.57
-84.07
-95.78
-104.57
-110.63
-114.35
-116.24
-116.78
-116.35
-115.25
-113.69
-111.87
-110.02
-108.38
-107.12
-106.32
-105.95
-105.90
-106.05
-106.37
-106.84
-107.49
-108.39
-109.67
-111.53
-114.19
-117.72
-121.67
-124.94
-125.70
-121.90
-111.95
-95.42
-73.44
-48.44
-23.52
-1.47
15.86
27.91
35.13
38.56
39.31
38.23
35.96
32.98
29.74
26.69
24.18
22.32
20.95
19.73
18.24
16.28
13.93
11.63
10.03
9.72
11.03
13.79
17.40
20.90
23.32
24.00
22.79
20.15
16.83
13.67
11.13
9.28
7.82
6.36
4.75
3.08
1.76
1.16
1.48
2.56
3.90
4.87
4.99
4.13
2.62
1.17
0.58
1.51
4.13
8.13
12.76
17.04
19.84
20.17
17.32
11.23
2.72
-6.51
-14.34
-19.08
-20.41
-19.68
-19.55
-22.79
-30.91
-43.32
-57.55
-70.26
-78.63
-81.43
-79.00
-72.78
-64.28
-54.49
-43.85
-32.65
-21.42
-11.18
-3.15
1.88
3.91
3.85
3.07
2.83
3.72
5.54
7.48
8.66
8.53
7.14
5.06
3.12
1.96
1.88
2.64
3.68
4.36
4.18
3.00
1.01
-1.33
-3.55
-5.26
-6.33
-6.79
-6.88
-6.93
-7.34
-8.47
-10.55
-13.57
-17.29
-21.29
-25.12
-28.48
-31.34
-33.94
-36.64
-39.81
-43.59
-47.94
-52.58
-57.15
-61.36
-65.13
-68.55
-71.90
-75.51
-79.59
-84.14
-88.95
-93.70
-98.09
-102.04
-105.75
-109.72
-114.66
-121.25
-129.82
-140.08
-150.71
-159.41
-163.21
-159.17
-145.31
-121.29
-88.70
-50.66
-11.04
26.58
59.63
86.91
108.48
125.18
138.17
148.53
157.05
164.26
170.45
175.82
180.49
184.48
187.66
189.76
190.56
190.11
188.78
187.22
185.93
184.88
183.26
179.64
172.43
160.67
144.43
124.98
104.47
85.16
68.81
56.16
46.96
40.24
34.81
29.64
24.04
17.70
10.49
2.42
-6.34
-15.42
-24.29
-32.34
-39.17
-44.77
-49.66
-54.60
-60.32
-67.09
-74.59
-81.94
-88.13
-92.46
-94.96
-96.41
-98.15
-101.50
-107.10
-114.46
-121.74
-126.03
-124.15
-113.52
-93.05
-63.64
-28.04
9.84
45.84
76.55
99.87
115.18
123.14
125.19
123.13
118.62
112.94
106.88
100.73
94.49
88.03
81.34
74.54
68.00
62.16
57.42
54.04
52.03
51.16
50.99
51.00
50.69
49.66
47.72
44.83
41.17
37.08
33.02
29.52
27.02
25.69
25.36
25.55
25.70
25.37
24.48
23.27
22.05
21.00
19.93
18.39
15.92
12.22
7.41
1.89
-3.86
-9.58
-15.29
-21.26
-27.77
-34.92
-42.55
-50.31
-57.69
-64.25
-69.65
-73.73
-76.52
-78.24
-79.29
-80.24
-81.59
-83.61
-86.11
-88.18
-88.35
-84.91
-76.49
-62.61
-44.09
-22.93
-1.85
16.43
29.91
37.69
39.96
37.77
32.55
25.74
18.50
11.57
5.29
-0.37
-5.68
-10.95
-16.31
-21.67
-26.62
-30.70
-33.45
-34.65
-34.33
-32.90
-31.07
-29.81
-30.08
-32.57
-37.26
-43.30
-49.15
-53.05
-53.71
-50.74
-44.82
-37.27
-29.54
-22.70
-17.19
-13.02
-9.98
-7.87
-6.58
-5.98
-5.88
-5.99
-6.06
-5.98
-5.89
-6.04
-6.70
-8.01
-9.82
-11.75
-13.34
-14.28
-14.54
-14.44
-14.53
-15.33
-17.09
-19.64
-22.48
-25.04
-26.95
-28.20
-29.13
-30.30
-32.18
-35.01
-38.66
-42.50
-45.45
-46.08
-42.90
-34.90
-22.00
-5.22
13.35
31.24
46.21
56.90
63.07
65.38
64.92
62.79
59.79
56.39
52.81
49.22
45.72
42.42
39.37
36.57
33.96
31.52
29.28
27.34
25.86
24.90
24.35
23.91
23.17
21.72
19.37
16.22
12.60
8.99
5.76
3.10
0.90
-1.08
-3.08
-5.26
-7.55
-9.78
-11.76
-13.40
-14.68
-15.75
-16.77
-17.89
-19.21
-20.76
-22.50
-24.33
-26.07
-27.53
-28.61
-29.39
-30.12
-31.19
-32.85
-35.11
-37.66
-40.05
-41.86
-42.91
-43.42
-43.82
-44.70
-46.48
-49.32
-52.93
-56.53
-58.84
-58.30
-53.46
-43.52
-28.73
-10.45
9.13
27.68
43.30
55.01
62.70
66.93
68.49
68.09
66.27
63.37
59.67
55.50
51.19
47.08
43.38
40.16
37.33
34.74
32.22
29.70
27.26
25.06
23.24
21.83
20.66
19.44
17.87
15.80
13.21
10.28
7.13
3.89
0.59
-2.76
-6.07
-9.14
-11.64
-13.36
-14.19
-14.26
-13.78
-12.96
-11.91
-10.59
-8.88
-6.61
-3.70
-0.16
3.88
8.15
12.30
15.95
18.85
20.95
22.38
23.44
24.45
25.56
26.73
27.75
28.27
28.03
26.93
25.13
23.02
21.14
19.98
19.78
20.31
20.85
20.31
17.58
11.95
3.56
-6.49
-16.31
-23.86
-27.57
-26.99
-23.09
-17.93
-14.08
-13.66
-17.73
-25.95
-36.83
-48.28
-58.23
-65.13
-68.19
-67.33
-62.98
-55.96
-47.30
-38.12
-29.42
-21.93
-16.00
-11.58
-8.30
-5.68
-3.29
-0.89
1.54
3.81
5.64
6.77
7.12
6.74
5.89
4.84
3.81
2.92
2.18
1.55
1.01
0.57
0.21
-0.11
-0.48
-1.07
-2.03
-3.44
-5.31
-7.57
-10.02
-12.50
-14.85
-17.07
-19.23
-21.53
-24.08
-26.86
-29.70
-32.29
-34.35
-35.76
-36.67
-37.54
-38.94
-41.49
-45.48
-50.69
-56.18
-60.42
-61.63
-58.43
-50.46
-38.64
-24.94
-11.79
-1.17
5.90
9.46
10.31
9.46
7.66
5.28
2.35
-1.25
-5.62
-10.78
-16.68
-23.15
-29.75
-35.94
-40.98
-44.22
-45.26
-44.07
-41.08
-37.12
-33.21
-30.35
-29.27
-30.36
-33.47
-37.99
-42.91
-46.98
-48.86
-47.40
-41.91
-32.31
-19.21
-3.73
12.89
29.65
45.93
61.50
76.21
89.56
100.58
107.93
110.29
106.92
98.09
85.11
70.03
55.04
41.88
31.33
23.17
16.39
9.60
1.66
-8.00
-19.20
-31.20
-43.02
-53.85
-63.44
-72.19
-81.13
-91.47
-104.08
-118.79
-134.07
-147.04
-154.02
-151.62
-137.81
-112.70
-78.61
-39.55
-0.11
35.64
64.95
86.73
101.44
110.58
116.09
119.83
123.11
126.58
130.31
134.01
137.32
139.94
141.72
142.47
141.90
139.66
135.54
129.72
122.86
115.95
109.80
104.67
100.09
95.09
88.93
81.66
74.31
68.48
65.52
65.66
67.76
69.62
69.00
64.60
56.47
45.88
34.49
23.67
13.86
4.81
-4.12
-13.32
-22.71
-31.80
-39.97
-46.88
-52.73
-58.11
-63.73
-70.15
-77.46
-85.36
-93.36
-100.93
-107.72
-113.73
-119.20
-124.51
-130.14
-136.54
-144.12
-153.00
-162.72
-171.90
-178.22
-178.74
-170.74
-152.66
-124.72
-88.95
-48.68
-7.55
31.21
65.27
93.20
114.39
128.76
136.81
139.52
138.23
134.42
129.33
123.82
118.29
112.84
107.39
102.00
96.89
92.48
89.25
87.57
87.48
88.60
90.20
91.37
91.32
89.61
86.19
81.39
75.73
69.68
63.58
57.62
51.84
46.19
40.63
35.09
29.61
24.30
19.37
14.98
11.15
7.65
4.05
-0.19
-5.46
-11.93
-19.45
-27.68
-36.29
-45.14
-54.25
-63.69
-73.38
-83.07
-92.28
-100.49
-107.35
-112.77
-117.03
-120.77
-124.96
-130.72
-139.06
-150.42
-164.17
-178.33
-189.66
-194.28
-188.72
-170.96
-141.15
-101.74
-56.88
-11.46
30.00
64.17
89.37
105.54
113.84
116.20
114.66
110.96
106.27
101.12
95.55
89.34
82.25
74.23
65.49
56.56
48.15
40.96
35.43
31.55
28.78
26.14
22.54
17.11
9.52
0.19
-9.87
-19.26
-26.67
-31.23
-32.81
-32.02
-30.01
-27.95
-26.59
-25.98
-25.50
-24.23
-21.52
-17.38
-12.59
-8.44
-6.27
-7.00
-10.75
-16.76
-23.55
-29.26
-32.21
-31.45
-27.09
-20.30
-12.95
-6.89
-3.33
-2.51
-3.89
-6.62
-10.04
-14.04
-18.85
-24.81
-32.04
-40.32
-49.19
-57.90
-65.48
-70.73
-72.32
-69.03
-60.11
-45.65
-26.60
-4.63
18.38
40.72
61.15
78.99
94.05
106.41
116.27
123.93
129.66
133.74
136.47
138.14
139.07
139.65
140.23
141.10
142.56
144.80
147.91
151.84
156.32
160.91
165.14
168.66
171.38
173.45
175.02
176.05
176.18
174.77
171.06
164.44
154.39
140.68
123.26
102.59
79.65
55.95
33.09
12.07
-7.08
-25.30
-43.80
-63.22
-83.05
-101.89
-118.28
-131.71
-142.97
-153.76
-165.48
-178.33
-191.03
-201.47
-207.91
-209.85
-208.40
-205.74
-204.28
-205.99
-211.86
-221.84
-234.79
-248.41
-259.26
-263.13
-255.98
-235.19
-200.77
-155.69
-105.21
-55.29
-10.96
24.82
51.24
68.90
78.85
82.05
79.31
71.73
61.05
49.47
39.14
31.55
27.12
25.48
25.88
27.76
30.96
35.57
41.64
48.84
56.36
63.10
67.97
70.24
69.73
66.85
62.39
57.29
52.29
47.73
43.56
39.37
34.66
29.19
22.98
16.42
10.00
4.09
-1.25
-6.28
-11.40
-16.96
-23.11
-29.78
-36.76
-43.84
-50.89
-57.95
-65.15
-72.73
-80.90
-89.81
-99.44
-109.58
-119.81
-129.58
-138.32
-145.61
-151.44
-156.24
-160.80
-165.95
-172.00
-178.29
-182.96
-183.27
-176.34
-160.06
-133.85
-98.97
-58.15
-14.97
26.94
64.61
95.98
120.13
137.05
147.50
152.71
154.09
153.02
150.62
147.70
144.61
141.37
137.76
133.56
128.83
124.00
119.82
117.00
115.87
116.21
117.25
117.96
117.40
115.04
110.87
105.31
99.00
92.52
86.16
79.86
73.23
65.77
57.07
47.05
36.06
24.69
13.66
3.48
-5.67
-13.97
-21.89
-29.98
-38.69
-48.17
-58.25
-68.43
-78.18
-87.14
-95.35
-103.34
-112.00
-122.13
-134.02
-146.96
-159.10
-167.63
-169.40
-161.78
-143.40
-114.77
-78.22
-37.33
3.86
41.86
74.30
100.10
119.22
132.27
140.14
143.84
144.36
142.69
139.76
136.30
132.85
129.67
126.74
123.82
120.43
116.09
110.49
103.74
96.33
89.09
82.76
77.65
73.50
69.60
65.15
59.66
53.07
45.71
37.99
30.24
22.58
14.99
7.46
0.08
-7.01
-13.60
-19.57
-24.88
-29.66
-34.04
-38.20
-42.26
-46.32
-50.46
-54.81
-59.48
-64.65
-70.44
-76.91
-84.06
-91.77
-99.84
-108.07
-116.35
-124.74
-133.58
-143.26
-153.87
-164.79
-174.41
-180.26
-179.68
-170.57
-152.15
-125.34
-92.40
-56.43
-20.60
12.44
40.90
63.83
81.07
93.09
100.73
105.01
106.92
107.29
106.69
105.44
103.64
101.27
98.34
94.95
91.37
88.00
85.22
83.22
81.96
81.11
80.23
78.93
76.92
74.13
70.59
66.45
61.93
57.22
52.50
47.81
43.12
38.32
33.31
28.09
22.77
17.53
12.53
7.76
3.09
-1.74
-6.98
-12.75
-18.96
-25.31
-31.48
-37.26
-42.69
-48.07
-53.80
-60.25
-67.52
-75.40
-83.44
-91.14
-98.11
-104.25
-109.79
-115.29
-121.57
-129.39
-139.02
-149.86
-160.07
-166.92
-167.29
-158.79
-140.45
-113.22
-79.60
-43.00
-6.86
26.05
53.91
75.88
91.89
102.40
108.26
110.50
110.12
107.99
104.74
100.75
96.32
91.67
87.11
82.95
79.47
76.91
75.33
74.67
74.61
74.75
74.60
73.69
71.68
68.40
63.90
58.42
52.33
45.99
39.73
33.71
27.90
22.17
16.24
9.93
3.11
-4.11
-11.47
-18.62
-25.20
-31.04
-36.23
-41.16
-46.37
-52.37
-59.40
-67.34
-75.71
-83.86
-91.28
-97.71
-103.34
-108.70
-114.58
-121.83
-131.05
-142.22
-154.34
-165.31
-172.16
-171.67
-161.41
-140.52
-110.17
-73.29
-33.80
4.36
38.06
65.48
86.07
100.30
109.24
114.20
116.45
116.97
116.44
115.24
113.50
111.24
108.37
104.87
100.79
96.39
92.09
88.40
85.81
84.53
84.45
85.02
85.53
85.30
83.87
81.13
77.24
72.50
67.20
61.58
55.75
49.82
43.89
38.04
32.32
26.66
20.97
15.11
9.09
3.06
-2.75
-8.07
-12.78
-16.95
-20.83
-24.73
-28.93
-33.50
-38.33
-43.18
-47.80
-52.10
-56.23
-60.53
-65.40
-71.11
-77.64
-84.65
-91.64
-98.15
-103.99
-109.28
-114.50
-120.29
-127.39
-136.37
-147.30
-159.42
-170.85
-178.69
-179.62
-170.90
-151.35
-121.89
-85.36
-45.74
-7.02
27.66
56.42
78.58
94.37
104.61
110.43
113.07
113.69
113.22
112.18
110.70
108.67
105.94
102.48
98.42
94.09
89.93
86.38
83.77
82.24
81.58
81.33
80.78
79.23
76.14
71.27
64.70
56.72
47.74
38.23
28.66
19.46
10.97
3.37
-3.33
-9.36
-15.01
-20.57
-26.14
-31.68
-37.01
-42.00
-46.69
-51.33
-56.32
-62.00
-68.49
-75.57
-82.72
-89.30
-94.82
-99.16
-102.67
-106.19
-110.81
-117.49
-126.71
-137.94
-149.40
-158.27
-161.26
-155.52
-139.54
-113.72
-80.25
-42.57
-4.49
30.70
60.67
84.25
101.22
112.06
117.66
119.11
117.62
114.31
110.12
105.69
101.27
96.84
92.25
87.40
82.42
77.70
73.73
70.95
69.51
69.21
69.51
69.71
69.16
67.43
64.42
60.33
55.58
50.62
45.76
41.06
36.34
31.31
25.77
19.77
13.55
7.45
1.73
-3.60
-8.73
-13.96
-19.52
-25.39
-31.39
-37.16
-42.41
-47.02
-51.17
-55.21
-59.64
-64.87
-71.16
-78.37
-86.10
-93.71
-100.63
-106.60
-111.79
-116.88
-122.84
-130.62
-140.65
-152.41
-164.11
-172.81
-175.03
-167.73
-149.34
-120.40
-83.51
-42.62
-1.89
35.22
66.54
91.17
109.14
121.00
127.57
129.85
128.95
126.02
122.00
117.53
112.89
108.04
102.85
97.29
91.55
86.00
81.21
77.65
75.63
75.08
75.59
76.46
76.94
76.39
74.46
71.20
66.97
62.29
57.64
53.29
49.20
45.15
40.85
36.10
30.96
25.71
20.74
16.39
12.78
9.73
6.84
3.62
-0.30
-5.06
-10.50
-16.34
-22.21
-27.92
-33.49
-39.27
-45.72
-53.33
-62.43
-73.01
-84.74
-96.92
-108.74
-119.39
-128.44
-135.93
-142.50
-149.16
-156.95
-166.39
-176.88
-186.40
-191.75
-189.34
-176.32
-151.74
-117.04
-75.71
-32.25
9.10
45.36
75.24
98.78
116.81
130.37
140.49
148.05
153.84
158.38
161.83
163.84
163.71
160.71
154.49
145.36
134.34
122.95
112.80
105.21
100.91
99.93
101.67
105.16
109.43
113.75
117.77
121.51
125.13
128.80
132.47
135.83
138.37
139.38
138.15
134.01
126.44
115.19
100.25
81.94
60.78
37.52
13.01
-11.83
-36.07
-58.94
-79.85
-98.47
-114.66
-128.47
-140.02
-149.49
-157.08
-163.01
-167.48
-170.67
-172.72
-173.74
-173.77
-172.87
-171.04
-168.13
-163.78
-157.43
-148.39
-136.04
-120.11
-100.85
-79.19
-56.59
-34.72
-15.08
1.30
14.05
23.25
29.20
32.21
32.49
30.27
26.03
20.49
14.54
9.00
4.38
0.83
-1.67
-3.12
-3.41
-2.35
0.12
3.73
7.90
11.87
14.91
16.64
17.00
16.28
14.81
12.90
10.69
8.17
5.29
2.07
-1.35
-4.75
-7.96
-10.87
-13.55
-16.12
-18.71
-21.34
-23.95
-26.39
-28.62
-30.60
-32.40
-34.05
-35.56
-36.85
-37.87
-38.61
-39.22
-39.90
-40.74
-41.71
-42.60
-43.15
-43.25
-43.02
-42.78
-42.86
-43.43
-44.36
-45.23
-45.42
-44.21
-40.87
-34.80
-25.77
-14.10
-0.71
12.97
25.41
35.46
42.61
47.06
49.35
50.10
49.73
48.40
46.17
43.15
39.66
36.09
32.88
30.32
28.53
27.41
26.69
26.08
25.35
24.39
23.20
21.87
20.39
18.65
16.45
13.50
9.61
4.61
-1.57
-8.97
-17.49
-26.83
-36.40
-45.46
-53.33
-59.62
-64.39
-68.03
-71.03
-73.68
-75.81
-77.02
-76.77
-74.75
-71.04
-66.14
-60.74
-55.53
-50.97
-47.23
-44.25
-41.86
-39.94
-38.48
-37.58
-37.40
-38.04
-39.47
-41.40
-43.22
-44.03
-42.71
-38.17
-29.62
-16.90
-0.57
18.04
37.18
54.95
69.76
80.55
86.95
89.25
88.15
84.63
79.58
73.71
67.47
61.05
54.61
48.28
42.27
36.77
31.94
27.77
24.15
20.92
17.97
15.25
12.70
10.22
7.57
4.46
0.71
-3.63
-8.27
-12.83
-16.92
-20.37
-23.18
-25.45
-27.27
-28.71
-29.83
-30.78
-31.75
-32.97
-34.50
-36.24
-37.92
-39.18
-39.82
-39.84
-39.52
-39.30
-39.64
-40.79
-42.74
-45.20
-47.69
-49.77
-51.26
-52.30
-53.45
-55.41
-58.71
-63.38
-68.69
-73.23
-75.11
-72.49
-64.00
-49.18
-28.70
-4.18
22.07
47.54
69.99
87.91
100.65
108.42
112.02
112.47
110.73
107.44
103.05
97.87
92.23
86.46
80.92
75.82
71.20
66.96
62.96
59.15
55.64
52.64
50.28
48.47
46.87
44.97
42.34
38.84
34.69
30.37
26.34
22.81
19.72
16.77
13.64
10.23
6.65
3.21
0.15
-2.46
-4.75
-7.00
-9.46
-12.27
-15.40
-18.71
-22.07
-25.29
-28.28
-31.07
-33.75
-36.53
-39.64
-43.26
-47.38
-51.78
-56.12
-60.15
-63.81
-67.43
-71.51
-76.49
-82.44
-88.82
-94.49
-97.90
-97.39
-91.60
-79.76
-61.94
-39.15
-13.29
13.22
37.81
58.35
73.53
83.05
87.46
87.85
85.48
81.41
76.51
71.32
66.24
61.49
57.22
53.45
50.21
47.46
45.17
43.36
42.03
41.20
40.84
40.79
40.77
40.34
39.03
36.57
32.99
28.65
24.15
19.99
16.40
13.26
10.23
7.03
3.61
0.17
-2.93
-5.42
-7.25
-8.60
-9.83
-11.34
-13.33
-15.86
-18.72
-21.56
-24.05
-26.03
-27.54
-28.86
-30.34
-32.30
-34.88
-38.04
-41.61
-45.28
-48.81
-51.99
-54.80
-57.52
-60.66
-64.88
-70.69
-78.07
-86.32
-93.94
-98.96
-99.39
-93.78
-81.63
-63.52
-40.98
-16.18
8.53
31.03
49.74
63.84
73.25
78.52
80.57
80.44
78.96
76.74
74.12
71.31
68.44
65.67
63.08
60.71
58.51
56.46
54.61
53.11
52.07
51.46
51.04
50.40
49.11
46.94
43.92
40.32
36.52
32.75
29.12
25.57
22.06
18.57
15.18
11.97
8.99
6.12
3.24
0.21
-2.96
-6.13
-9.08
-11.62
-13.66
-15.36
-16.96
-18.77
-20.98
-23.64
-26.66
-29.87
-33.18
-36.56
-40.10
-43.94
-48.14
-52.64
-57.23
-61.60
-65.42
-68.44
-70.59
-72.11
-73.47
-75.33
-78.24
-82.45
-87.59
-92.60
-95.82
-95.39
-89.61
-77.53
-59.22
-35.87
-9.56
17.21
41.98
62.88
78.85
89.70
95.87
98.15
97.38
94.30
89.47
83.35
76.46
69.34
62.51
56.38
51.12
46.68
42.91
39.64
36.88
34.74
33.38
32.81
32.80
32.91
32.56
31.32
29.04
25.90
22.32
18.72
15.35
12.25
9.24
6.13
2.80
-0.68
-4.11
-7.31
-10.17
-12.71
-15.03
-17.25
-19.45
-21.69
-24.02
-26.49
-29.17
-32.07
-35.18
-38.49
-42.04
-45.90
-50.19
-54.88
-59.77
-64.52
-68.73
-72.26
-75.28
-78.35
-82.19
-87.33
-93.82
-100.87
-106.94
-109.96
-107.81
-98.91
-82.71
-59.96
-32.63
-3.52
24.40
48.62
67.54
80.64
88.27
91.36
90.96
88.09
83.60
78.20
72.49
66.88
61.61
56.70
52.04
47.58
43.38
39.68
36.72
34.55
32.96
31.51
29.70
27.13
23.73
19.66
15.20
10.58
5.89
1.15
-3.65
-8.44
-13.09
-17.46
-21.53
-25.41
-29.33
-33.56
-38.21
-43.30
-48.68
-54.11
-59.30
-64.01
-68.11
-71.63
-74.88
-78.38
-82.80
-88.65
-95.91
-103.67
-110.12
-112.79
-109.19
-97.68
-78.00
-51.52
-20.96
10.36
39.31
63.63
82.25
95.18
103.19
107.33
108.65
107.97
105.95
103.06
99.67
96.04
92.30
88.43
84.34
79.94
75.31
70.69
66.43
62.81
59.87
57.31
54.57
51.07
46.48
40.85
34.58
28.26
22.35
17.02
12.12
7.35
2.47
-2.59
-7.63
-12.39
-16.62
-20.30
-23.59
-26.77
-30.13
-33.79
-37.70
-41.71
-45.58
-49.19
-52.54
-55.83
-59.46
-63.95
-69.77
-77.09
-85.50
-93.77
-99.89
-101.45
-96.36
-83.53
-63.40
-37.94
-10.16
16.73
40.15
58.52
71.43
79.31
83.03
83.54
81.75
78.47
74.47
70.38
66.65
63.45
60.70
58.14
55.57
52.95
50.45
48.33
46.76
45.73
45.02
44.29
43.23
41.61
39.33
36.32
32.61
28.28
23.56
18.79
14.29
10.25
6.64
3.18
-0.47
-4.58
-9.18
-14.07
-18.90
-23.34
-27.24
-30.70
-34.01
-37.53
-41.53
-46.07
-51.00
-56.08
-60.94
-65.34
-69.18
-72.65
-76.23
-80.62
-86.48
-93.96
-102.31
-109.66
-113.37
-110.74
-99.98
-80.95
-55.37
-26.34
2.62
28.52
49.52
64.99
75.23
80.98
83.05
82.20
79.17
74.77
69.77
64.81
60.25
56.14
52.31
48.56
44.86
41.42
38.55
36.54
35.37
34.75
34.15
33.04
31.11
28.36
25.02
21.38
17.60
13.66
9.40
4.73
-0.26
-5.30
-9.99
-14.07
-17.54
-20.64
-23.77
-27.32
-31.48
-36.23
-41.34
-46.50
-51.38
-55.76
-59.57
-62.90
-66.07
-69.61
-74.17
-80.19
-87.61
-95.46
-101.76
-103.89
-99.34
-86.63
-66.04
-39.67
-10.87
16.75
40.33
58.36
70.63
77.85
81.13
81.58
80.13
77.58
74.59
71.65
69.01
66.67
64.42
61.97
59.11
55.83
52.37
49.16
46.68
45.26
44.91
45.27
45.65
45.34
43.81
40.95
37.07
32.73
28.44
24.49
20.91
17.59
14.41
11.34
8.44
5.75
3.23
0.77
-1.73
-4.24
-6.58
-8.56
-10.09
-11.36
-12.70
-14.55
-17.15
-20.48
-24.18
-27.74
-30.72
-32.98
-34.82
-36.82
-39.60
-43.54
-48.55
-54.17
-59.70
-64.55
-68.49
-71.66
-74.58
-77.89
-82.23
-88.09
-95.48
-103.71
-111.18
-115.48
-113.91
-104.39
-86.26
-60.73
-30.66
0.22
28.38
51.33
67.96
78.40
83.56
84.68
83.03
79.79
75.97
72.34
69.31
66.96
65.06
63.18
61.01
58.39
55.44
52.49
49.95
48.22
47.47
47.63
48.29
48.85
48.65
47.24
44.57
40.91
36.77
32.67
28.89
25.45
22.16
18.75
15.10
11.26
7.46
4.00
1.06
-1.39
-3.56
-5.79
-8.40
-11.58
-15.24
-19.13
-22.84
-26.04
-28.58
-30.60
-32.46
-34.65
-37.57
-41.37
-45.92
-50.79
-55.44
-59.43
-62.58
-65.08
-67.51
-70.65
-75.22
-81.46
-88.81
-95.73
-99.92
-98.86
-90.62
-74.58
-51.81
-24.80
3.18
28.98
50.27
65.86
75.66
80.30
80.77
78.16
73.53
67.82
61.90
56.37
51.53
47.43
43.88
40.67
37.65
34.91
32.74
31.45
31.25
32.01
33.34
34.61
35.24
34.78
33.16
30.56
27.31
23.72
20.03
16.34
12.66
9.02
5.45
2.00
-1.25
-4.25
-7.00
-9.58
-12.12
-14.79
-17.71
-20.89
-24.24
-27.56
-30.64
-33.34
-35.71
-37.97
-40.49
-43.56
-47.35
-51.76
-56.43
-60.89
-64.72
-67.82
-70.46
-73.27
-77.07
-82.59
-89.96
-98.47
-106.34
-111.02
-109.73
-100.43
-82.55
-57.33
-27.64
2.87
30.79
53.74
70.66
81.65
87.52
89.34
88.19
85.12
81.11
76.96
73.22
70.02
67.13
64.14
60.71
56.82
52.78
49.12
46.36
44.77
44.27
44.47
44.80
44.71
43.82
41.98
39.22
35.77
31.90
27.87
23.97
20.38
17.16
14.28
11.52
8.68
5.59
2.24
-1.17
-4.33
-6.93
-8.85
-10.20
-11.26
-12.44
-14.05
-16.26
-19.00
-22.08
-25.17
-28.05
-30.58
-32.87
-35.18
-37.83
-41.11
-45.06
-49.49
-53.98
-58.09
-61.50
-64.15
-66.27
-68.40
-71.29
-75.60
-81.71
-89.32
-97.16
-103.11
-104.54
-99.09
-85.46
-64.02
-36.84
-7.18
21.38
45.93
64.73
77.35
84.35
86.80
85.89
82.72
78.24
73.27
68.41
64.03
60.20
56.70
53.21
49.51
45.61
41.84
38.66
36.48
35.46
35.40
35.84
36.21
36.01
34.92
32.87
29.90
26.16
21.81
17.06
12.19
7.50
3.30
-0.28
-3.28
-5.98
-8.74
-11.85
-15.38
-19.15
-22.78
-25.91
-28.35
-30.26
-32.05
-34.25
-37.22
-41.02
-45.32
-49.61
-53.34
-56.18
-58.14
-59.59
-61.13
-63.50
-67.33
-72.90
-79.80
-86.80
-91.86
-92.61
-87.00
-74.10
-54.48
-30.20
-4.21
20.49
41.56
57.70
68.65
74.84
77.08
76.34
73.57
69.68
65.45
61.44
57.86
54.65
51.58
48.41
45.08
41.73
38.70
36.41
35.14
34.91
35.40
36.08
36.27
35.40
33.24
29.89
25.77
21.43
17.41
14.05
11.42
9.32
7.35
5.11
2.33
-0.93
-4.36
-7.50
-9.99
-11.71
-12.84
-13.77
-14.93
-16.59
-18.77
-21.29
-23.88
-26.32
-28.54
-30.67
-32.91
-35.44
-38.35
-41.56
-44.83
-47.93
-50.71
-53.14
-55.31
-57.48
-60.03
-63.46
-68.24
-74.47
-81.53
-87.86
-91.15
-88.99
-79.68
-62.97
-40.29
-14.34
11.70
35.05
53.88
67.43
75.85
79.80
80.22
78.12
74.56
70.49
66.60
63.27
60.43
57.78
54.95
51.71
48.07
44.32
40.88
38.14
36.34
35.49
35.35
35.53
35.51
34.87
33.37
30.97
27.85
24.38
20.92
17.74
14.92
12.33
9.73
6.89
3.76
0.47
-2.67
-5.35
-7.40
-8.87
-10.06
-11.30
-12.90
-14.95
-17.34
-19.85
-22.26
-24.48
-26.59
-28.77
-31.25
-34.13
-37.39
-40.84
-44.21
-47.27
-49.87
-52.01
-53.92
-55.99
-58.74
-62.62
-67.76
-73.70
-79.21
-82.40
-81.25
-74.29
-61.15
-42.80
-21.32
0.80
21.20
38.23
51.02
59.43
63.76
64.65
62.92
59.46
55.12
50.60
46.37
42.62
39.38
36.58
34.08
31.84
29.85
28.23
27.14
26.70
26.88
27.41
27.88
27.82
26.91
25.06
22.41
19.29
15.99
12.80
9.82
7.04
4.36
1.68
-1.06
-3.84
-6.61
-9.28
-11.84
-14.30
-16.69
-19.04
-21.27
-23.27
-24.98
-26.41
-27.72
-29.17
-31.03
-33.46
-36.50
-39.97
-43.57
-46.97
-49.91
-52.31
-54.32
-56.33
-58.91
-62.59
-67.57
-73.48
-79.16
-82.82
-82.42
-76.33
-63.84
-45.54
-23.24
0.55
23.17
42.51
57.26
67.09
72.39
74.09
73.29
71.08
68.24
65.27
62.30
59.31
56.24
53.07
49.89
46.85
44.05
41.60
39.61
38.23
37.57
37.66
38.24
38.86
38.94
38.03
36.00
33.09
29.77
26.50
23.52
20.81
18.22
15.63
12.98
10.39
7.99
5.84
3.88
1.98
0.00
-2.05
-4.10
-5.99
-7.59
-8.92
-10.16
-11.58
-13.42
-15.76
-18.44
-21.13
-23.53
-25.46
-27.05
-28.65
-30.63
-33.23
-36.42
-39.96
-43.55
-46.92
-49.92
-52.57
-55.04
-57.69
-61.03
-65.51
-71.25
-77.70
-83.44
-86.41
-84.49
-76.21
-61.42
-41.40
-18.55
4.33
24.79
41.22
53.00
60.26
63.59
63.80
61.76
58.33
54.27
50.16
46.34
42.87
39.64
36.51
33.47
30.69
28.43
26.98
26.47
26.84
27.82
29.03
30.01
30.36
29.78
28.16
25.58
22.28
18.61
14.92
11.45
8.30
5.44
2.78
0.18
-2.46
-5.23
-8.14
-11.13
-14.07
-16.77
-19.06
-20.89
-22.34
-23.68
-25.25
-27.37
-30.22
-33.82
-37.90
-42.08
-45.93
-49.17
-51.80
-54.20
-56.98
-60.83
-66.10
-72.49
-78.83
-83.31
-83.89
-78.93
-67.85
-51.33
-31.13
-9.61
11.00
28.96
43.26
53.59
60.13
63.42
64.16
63.22
61.46
59.49
57.63
55.79
53.69
51.06
47.89
44.50
41.36
38.91
37.43
36.86
37.00
37.52
38.11
38.48
38.42
37.72
36.26
34.05
31.22
28.05
24.83
21.82
19.15
16.85
14.87
13.05
11.24
9.30
7.15
4.86
2.60
0.57
-1.06
-2.31
-3.37
-4.51
-6.02
-7.98
-10.33
-12.85
-15.27
-17.48
-19.45
-21.36
-23.40
-25.78
-28.62
-31.96
-35.72
-39.71
-43.68
-47.32
-50.46
-53.10
-55.54
-58.27
-61.95
-66.99
-73.26
-79.85
-85.07
-86.82
-83.23
-73.29
-57.30
-36.82
-14.26
7.84
27.38
43.07
54.47
61.76
65.51
66.41
65.25
62.84
59.90
57.04
54.58
52.58
50.85
49.09
47.07
44.77
42.39
40.34
39.06
38.87
39.80
41.50
43.40
44.83
45.29
44.60
42.88
40.51
37.90
35.38
33.14
31.21
29.54
28.00
26.40
24.53
22.18
19.14
15.35
10.87
5.80
0.22
-5.87
-12.54
-19.79
-27.55
-35.55
-43.51
-51.20
-58.62
-65.98
-73.50
-81.23
-88.79
-95.43
-100.27
-102.71
-102.66
-100.71
-97.92
-95.51
-94.54
-95.57
-98.45
-102.10
-104.49
-102.86
-94.36
-76.99
-50.53
-17.02
19.60
54.55
83.73
104.71
117.12
122.29
122.21
118.76
113.19
106.17
98.05
89.15
79.90
70.74
62.01
53.97
46.78
40.55
35.34
31.16
27.85
25.15
22.71
20.17
17.23
13.79
9.93
5.96
2.42
-0.18
-1.52
-1.65
-1.02
-0.27
0.05
-0.29
-1.13
-2.06
-2.78
-3.20
-3.56
-4.20
-5.36
-7.02
-9.03
-11.17
-13.36
-15.70
-18.32
-21.26
-24.34
-27.24
-29.65
-31.48
-32.95
-34.59
-37.02
-40.63
-45.45
-51.05
-56.70
-61.66
-65.48
-68.22
-70.39
-72.88
-76.69
-82.70
-91.32
-102.19
-113.85
-123.65
-128.13
-123.75
-108.21
-81.36
-45.73
-5.96
32.55
65.10
88.95
103.63
110.49
111.73
109.47
105.29
100.10
94.43
88.61
82.94
77.62
72.67
67.96
63.23
58.33
53.35
48.65
44.77
42.20
41.12
41.27
41.96
42.32
41.56
39.28
35.57
30.98
26.23
21.94
18.39
15.49
12.91
10.30
7.50
4.65
2.00
-0.20
-1.97
-3.52
-5.20
-7.23
-9.58
-11.95
-13.95
-15.32
-16.07
-16.57
-17.30
-18.69
-20.87
-23.70
-26.77
-29.68
-32.11
-34.01
-35.59
-37.21
-39.20
-41.83
-45.09
-48.80
-52.63
-56.22
-59.37
-62.11
-64.68
-67.58
-71.38
-76.56
-83.17
-90.53
-96.98
-100.04
-96.99
-85.74
-65.69
-38.29
-6.75
24.81
52.53
73.85
87.84
95.04
96.77
94.57
89.76
83.41
76.42
69.58
63.50
58.49
54.49
51.15
48.08
45.03
42.06
39.50
37.77
37.11
37.51
38.57
39.66
40.11
39.41
37.33
34.03
29.86
25.30
20.79
16.62
12.87
9.52
6.50
3.68
0.97
-1.72
-4.44
-7.17
-9.81
-12.20
-14.18
-15.65
-16.71
-17.60
-18.71
-20.39
-22.84
-25.95
-29.36
-32.58
-35.19
-37.08
-38.47
-39.86
-41.85
-44.77
-48.61
-52.97
-57.26
-60.96
-63.81
-65.91
-67.66
-69.68
-72.63
-77.07
-83.16
-90.32
-97.00
-100.73
-98.69
-88.55
-69.50
-42.75
-11.35
20.64
49.34
72.05
87.65
96.49
99.79
99.06
95.70
90.82
85.29
79.76
74.68
70.25
66.37
62.72
58.84
54.45
49.54
44.54
40.12
37.01
35.58
35.76
36.94
38.21
38.72
37.93
35.83
32.77
29.33
26.01
23.04
20.41
17.92
15.36
12.62
9.77
6.96
4.36
2.07
0.07
-1.67
-3.25
-4.76
-6.22
-7.61
-8.91
-10.11
-11.23
-12.38
-13.74
-15.58
-18.09
-21.23
-24.78
-28.28
-31.27
-33.51
-35.16
-36.72
-38.87
-42.14
-46.61
-51.91
-57.29
-62.03
-65.75
-68.53
-70.89
-73.57
-77.30
-82.52
-89.26
-96.84
-103.83
-108.09
-107.19
-99.05
-82.76
-59.06
-30.34
-0.06
28.21
51.70
68.95
79.94
85.61
87.32
86.43
84.00
80.80
77.41
74.20
71.39
68.97
66.66
64.11
61.04
57.41
53.54
49.98
47.31
45.84
45.50
45.77
45.90
45.15
43.10
39.71
35.34
30.56
25.93
21.76
18.10
14.71
11.26
7.58
3.66
-0.28
-3.92
-7.03
-9.59
-11.77
-13.91
-16.33
-19.13
-22.21
-25.29
-28.04
-30.28
-32.08
-33.67
-35.41
-37.58
-40.32
-43.64
-47.36
-51.19
-54.79
-57.85
-60.19
-61.90
-63.42
-65.44
-68.80
-74.04
-81.00
-88.54
-94.48
-96.05
-90.70
-76.97
-55.20
-27.56
2.53
31.34
55.80
74.11
85.82
91.54
92.39
89.70
84.66
78.36
71.71
65.36
59.72
54.89
50.75
47.05
43.61
40.34
37.35
34.87
33.19
32.50
32.80
33.79
34.88
35.46
34.98
33.23
30.38
26.86
23.14
19.54
16.12
12.79
9.41
5.94
2.51
-0.67
-3.40
-5.60
-7.33
-8.80
-10.32
-12.20
-14.64
-17.68
-21.09
-24.47
-27.44
-29.78
-31.59
-33.31
-35.50
-38.62
-42.72
-47.43
-52.07
-55.96
-58.75
-60.56
-62.02
-64.00
-67.38
-72.62
-79.52
-86.99
-93.11
-95.44
-91.63
-80.18
-60.98
-35.60
-6.93
21.58
46.78
66.55
80.05
87.59
90.17
89.05
85.42
80.24
74.33
68.32
62.70
57.69
53.28
49.23
45.20
41.06
36.94
33.30
30.72
29.59
29.88
31.15
32.65
33.59
33.41
31.89
29.17
25.62
21.64
17.61
13.74
10.08
6.57
3.11
-0.37
-3.86
-7.37
-10.87
-14.39
-17.97
-21.62
-25.26
-28.74
-31.95
-34.91
-37.79
-40.84
-44.25
-47.96
-51.63
-54.73
-56.84
-57.85
-58.08
-58.29
-59.41
-62.25
-67.26
-74.19
-82.04
-89.08
-93.06
-91.76
-83.56
-68.06
-46.33
-20.69
5.87
30.45
50.88
66.03
75.77
80.63
81.54
79.53
75.55
70.45
64.86
59.20
53.72
48.54
43.75
39.45
35.72
32.62
30.16
28.40
27.42
27.32
28.03
29.27
30.46
30.87
29.93
27.42
23.60
19.13
14.73
10.90
7.72
4.92
2.01
-1.42
-5.53
-10.11
-14.70
-18.82
-22.19
-24.85
-27.13
-29.54
-32.49
-36.16
-40.39
-44.77
-48.87
-52.37
-55.18
-57.52
-59.74
-62.36
-65.91
-70.80
-77.07
-84.06
-90.25
-93.42
-91.13
-81.55
-64.24
-40.42
-12.86
15.01
40.01
59.99
74.12
82.68
86.60
86.99
84.85
81.02
76.23
71.09
66.10
61.57
57.51
53.77
50.08
46.29
42.48
38.98
36.28
34.73
34.44
35.09
36.01
36.43
35.77
33.81
30.75
27.09
23.36
19.91
16.84
13.99
11.11
7.94
4.41
0.60
-3.20
-6.61
-9.32
-11.26
-12.63
-13.84
-15.36
-17.47
-20.16
-23.11
-25.92
-28.28
-30.20
-31.95
-33.94
-36.50
-39.70
-43.33
-46.99
-50.28
-52.94
-54.97
-56.67
-58.57
-61.42
-65.87
-72.18
-79.83
-87.27
-92.11
-91.66
-83.81
-67.89
-45.02
-17.89
10.00
35.41
56.04
70.89
80.09
84.43
84.97
82.79
78.90
74.18
69.34
64.85
60.88
57.36
54.04
50.67
47.07
43.22
39.25
35.39
32.01
29.47
27.98
27.44
27.41
27.24
26.26
24.10
20.78
16.69
12.39
8.35
4.76
1.60
-1.34
-4.30
-7.44
-10.84
-14.54
-18.43
-22.29
-25.79
-28.62
-30.64
-32.02
-33.22
-34.81
-37.24
-40.57
-44.51
-48.47
-51.90
-54.48
-56.26
-57.66
-59.31
-61.96
-66.12
-71.93
-78.74
-85.05
-88.66
-87.15
-78.72
-62.85
-40.76
-15.03
11.06
34.50
53.26
66.54
74.59
78.21
78.42
76.16
72.27
67.50
62.48
57.64
53.18
49.08
45.24
41.55
38.10
35.07
32.76
31.37
30.95
31.33
32.17
33.00
33.35
32.87
31.37
28.85
25.48
21.61
17.64
13.93
10.71
8.01
5.68
3.46
1.12
-1.45
-4.14
-6.70
-8.88
-10.52
-11.62
-12.43
-13.28
-14.56
-16.48
-19.04
-21.96
-24.81
-27.21
-28.94
-30.16
-31.34
-33.00
-35.62
-39.28
-43.76
-48.52
-53.01
-56.81
-59.78
-62.08
-64.15
-66.61
-70.21
-75.47
-82.36
-89.97
-96.41
-99.09
-95.41
-83.68
-63.76
-37.44
-7.90
21.11
46.36
65.86
79.07
86.62
89.69
89.59
87.42
84.01
80.04
76.03
72.33
69.06
66.03
62.84
59.09
54.66
49.83
45.24
41.60
39.43
38.75
39.13
39.86
40.16
39.53
37.77
35.05
31.65
27.93
24.25
20.86
17.93
15.52
13.52
11.69
9.74
7.49
4.92
2.27
-0.12
-1.95
-3.19
-4.07
-5.12
-6.88
-9.73
-13.71
-18.52
-23.61
-28.38
-32.34
-35.22
-37.05
-38.13
-38.93
-39.95
-41.60
-43.99
-46.96
-50.16
-53.28
-56.30
-59.53
-63.63
-69.35
-77.12
-86.74
-97.07
-106.12
-111.39
-110.46
-101.79
-85.26
-62.37
-35.91
-9.23
14.70
33.95
47.88
56.92
62.08
64.45
64.85
63.81
61.69
58.82
55.53
52.13
48.81
45.60
42.40
39.15
35.92
33.06
31.03
30.28
30.96
32.83
35.22
37.30
38.38
38.12
36.66
34.38
31.72
28.87
25.75
22.11
17.74
12.70
7.35
2.24
-2.17
-5.64
-8.32
-10.66
-13.20
-16.39
-20.36
-24.93
-29.62
-33.94
-37.59
-40.59
-43.27
-46.08
-49.35
-53.10
-57.08
-60.80
-63.78
-65.75
-66.69
-66.90
-66.97
-67.76
-70.13
-74.63
-81.08
-88.19
-93.57
-94.24
-87.48
-71.89
-47.99
-18.17
14.01
44.88
71.54
92.34
106.81
115.26
118.42
117.27
112.96
106.76
99.91
93.34
87.48
82.20
77.07
71.64
65.76
59.72
54.13
49.69
46.89
45.79
46.01
46.83
47.43
47.12
45.55
42.75
38.97
34.62
30.03
25.42
20.86
16.36
11.94
7.66
3.58
-0.25
-3.88
-7.40
-10.85
-14.25
-17.46
-20.31
-22.65
-24.43
-25.75
-26.83
-27.98
-29.43
-31.32
-33.61
-36.07
-38.42
-40.43
-42.06
-43.55
-45.31
-47.81
-51.27
-55.57
-60.27
-64.71
-68.34
-70.93
-72.72
-74.35
-76.74
-80.73
-86.79
-94.69
-103.22
-110.21
-112.88
-108.47
-95.15
-72.79
-43.18
-9.68
23.66
53.20
76.48
92.56
101.78
105.30
104.53
100.81
95.28
88.84
82.27
76.13
70.75
66.16
62.12
58.25
54.23
50.06
46.01
42.67
40.56
39.94
40.52
41.57
42.13
41.40
39.02
35.14
30.33
25.24
20.40
16.05
12.12
8.41
4.67
0.78
-3.25
-7.24
-10.94
-14.13
-16.72
-18.85
-20.86
-23.10
-25.86
-29.10
-32.58
-35.92
-38.83
-41.25
-43.32
-45.40
-47.84
-50.91
-54.69
-59.09
-63.81
-68.41
-72.46
-75.69
-78.24
-80.64
-83.79
-88.58
-95.42
-103.74
-111.73
-116.59
-115.15
-104.91
-84.93
-56.37
-22.28
13.21
46.05
73.19
93.11
105.68
111.76
112.62
109.57
103.85
96.56
88.70
81.04
74.05
67.86
62.29
57.06
51.99
47.17
42.99
39.95
38.52
38.81
40.48
42.76
44.68
45.38
44.34
41.58
37.51
32.77
27.95
23.41
19.24
15.33
11.50
7.61
3.60
-0.46
-4.42
-8.11
-11.33
-13.99
-16.17
-18.14
-20.31
-23.03
-26.42
-30.25
-34.06
-37.40
-40.05
-42.26
-44.63
-47.75
-51.97
-57.13
-62.63
-67.72
-71.85
-74.94
-77.40
-79.98
-83.53
-88.74
-95.90
-104.61
-113.58
-120.56
-122.65
-116.95
-101.64
-76.64
-44.02
-7.47
28.67
60.60
85.91
103.80
114.70
119.76
120.27
117.42
112.25
105.72
98.59
91.47
84.67
78.21
71.96
65.80
59.74
54.08
49.30
45.93
44.34
44.53
46.00
47.80
48.89
48.41
46.05
42.07
37.16
32.07
27.37
23.24
19.55
16.05
12.50
8.79
4.89
0.86
-3.20
-7.12
-10.71
-13.71
-15.98
-17.57
-18.81
-20.19
-22.19
-25.11
-28.82
-32.90
-36.73
-39.86
-42.20
-44.10
-46.17
-48.98
-52.78
-57.40
-62.34
-66.98
-70.90
-73.98
-76.48
-79.00
-82.33
-87.19
-93.93
-102.11
-110.22
-115.71
-115.48
-106.85
-88.53
-61.24
-27.74
8.01
41.91
70.73
92.66
107.26
115.06
117.08
114.55
108.76
100.99
92.43
83.93
75.94
68.51
61.46
54.68
48.25
42.50
37.87
34.76
33.30
33.35
34.53
36.24
37.84
38.70
38.40
36.76
33.91
30.17
25.95
21.49
16.86
11.99
6.82
1.42
-3.92
-8.82
-13.06
-16.65
-19.91
-23.23
-26.86
-30.72
-34.51
-37.83
-40.53
-42.83
-45.20
-48.16
-51.93
-56.38
-61.02
-65.29
-68.83
-71.58
-73.84
-76.08
-78.93
-82.99
-88.74
-96.15
-104.35
-111.38
-114.40
-110.47
-97.48
-75.10
-45.13
-11.02
23.10
53.63
78.21
95.92
106.97
112.17
112.55
109.16
103.15
95.67
87.74
80.17
73.28
66.99
61.00
54.99
48.94
43.17
38.29
34.92
33.45
33.75
35.25
37.00
38.05
37.74
35.89
32.75
28.80
24.53
20.21
15.94
11.62
7.19
2.71
-1.67
-5.71
-9.24
-12.20
-14.72
-17.03
-19.38
-22.02
-24.99
-28.17
-31.32
-34.11
-36.33
-38.00
-39.40
-41.02
-43.37
-46.73
-51.05
-55.90
-60.70
-64.89
-68.20
-70.73
-72.99
-75.77
-79.91
-86.02
-94.01
-102.77
-110.09
-112.96
-108.42
-94.58
-71.42
-40.89
-6.52
27.74
58.42
83.22
101.14
112.19
117.08
116.87
112.86
106.46
99.00
91.57
84.72
78.53
72.70
66.86
60.85
54.82
49.25
44.72
41.74
40.45
40.62
41.60
42.56
42.73
41.65
39.22
35.69
31.51
27.11
22.72
18.36
13.92
9.29
4.52
-0.21
-4.61
-8.47
-11.75
-14.63
-17.39
-20.31
-23.51
-26.92
-30.29
-33.36
-35.92
-38.00
-39.83
-41.80
-44.31
-47.58
-51.53
-55.79
-59.83
-63.15
-65.49
-67.02
-68.34
-70.28
-73.74
-79.32
-87.01
-95.85
-103.77
-107.97
-105.52
-94.38
-74.24
-46.80
-15.30
16.36
44.73
67.56
84.00
94.27
99.19
99.77
97.01
91.88
85.29
78.05
70.81
63.94
57.60
51.78
46.48
41.75
37.76
34.78
33.04
32.65
33.45
34.97
36.54
37.47
37.25
35.67
32.84
29.11
24.93
20.71
16.75
13.14
9.82
6.57
3.18
-0.47
-4.34
-8.16
-11.60
-14.35
-16.39
-17.90
-19.28
-20.98
-23.25
-26.09
-29.23
-32.29
-34.94
-37.08
-38.91
-40.85
-43.32
-46.57
-50.53
-54.87
-59.14
-62.92
-66.00
-68.46
-70.63
-73.07
-76.54
-81.71
-88.87
-97.45
-105.79
-111.15
-110.49
-101.30
-82.73
-55.99
-24.12
8.91
39.30
64.38
82.93
94.97
101.34
103.15
101.52
97.52
92.16
86.31
80.66
75.52
70.84
66.29
61.57
56.57
51.57
47.10
43.76
41.98
41.76
42.68
44.02
44.96
44.85
43.39
40.63
36.91
32.63
28.18
23.76
19.42
15.18
11.12
7.37
4.02
1.11
-1.45
-3.76
-5.91
-7.90
-9.70
-11.29
-12.74
-14.21
-15.91
-18.00
-20.51
-23.34
-26.29
-29.09
-31.50
-33.42
-34.98
-36.54
-38.55
-41.40
-45.22
-49.78
-54.64
-59.28
-63.33
-66.62
-69.25
-71.57
-74.14
-77.68
-82.89
-89.99
-98.26
-105.75
-109.47
-106.30
-94.12
-72.73
-44.09
-11.80
20.14
48.38
70.93
87.15
97.28
101.99
102.06
98.46
92.37
85.10
77.85
71.37
65.83
60.95
56.29
51.59
46.94
42.73
39.43
37.39
36.62
36.83
37.49
38.01
37.84
36.64
34.31
31.00
27.07
22.87
18.78
15.00
11.60
8.53
5.66
2.83
-0.10
-3.12
-6.11
-8.83
-11.03
-12.66
-13.87
-15.10
-16.83
-19.37
-22.60
-26.10
-29.25
-31.58
-33.07
-34.11
-35.34
-37.41
-40.65
-44.90
-49.68
-54.35
-58.45
-61.79
-64.52
-67.06
-69.91
-73.63
-78.74
-85.49
-93.56
-101.74
-107.84
-108.98
-102.51
-86.94
-62.78
-32.52
-0.01
30.70
56.55
75.98
88.85
96.01
98.61
97.76
94.39
89.37
83.53
77.59
72.08
67.16
62.77
58.66
54.66
50.79
47.30
44.54
42.80
42.15
42.37
42.97
43.34
42.98
41.62
39.26
36.14
32.56
28.77
24.91
21.01
17.10
13.25
9.58
6.20
3.13
0.31
-2.35
-4.94
-7.42
-9.70
-11.67
-13.32
-14.74
-16.17
-17.88
-20.06
-22.76
-25.83
-29.01
-31.97
-34.47
-36.45
-38.11
-39.84
-42.09
-45.16
-49.09
-53.51
-57.94
-61.88
-65.11
-67.74
-70.20
-73.09
-77.08
-82.64
-89.88
-98.19
-105.99
-110.81
-109.75
-100.45
-82.03
-55.60
-24.09
8.60
38.79
63.85
82.57
94.93
101.64
103.64
101.96
97.72
92.06
86.06
80.52
75.75
71.52
67.34
62.77
57.70
52.44
47.67
44.10
42.22
42.00
42.98
44.40
45.47
45.64
44.63
42.46
39.32
35.44
31.07
26.49
22.01
17.89
14.26
11.06
8.02
4.82
1.24
-2.66
-6.59
-10.14
-13.01
-15.19
-16.94
-18.71
-20.92
-23.74
-27.08
-30.59
-33.85
-36.58
-38.72
-40.56
-42.61
-45.41
-49.28
-54.17
-59.60
-64.87
-69.41
-72.96
-75.77
-78.41
-81.63
-86.08
-92.12
-99.65
-107.90
-115.17
-118.90
-116.12
-104.38
-82.76
-52.57
-17.16
18.95
51.45
77.35
95.51
106.36
111.21
111.48
108.36
102.77
95.52
87.42
79.26
71.64
64.87
58.94
53.70
49.00
44.88
41.57
39.40
38.62
39.21
40.74
42.46
43.44
42.97
40.76
36.94
32.13
27.02
22.19
17.87
14.03
10.42
6.84
3.22
-0.38
-3.74
-6.66
-8.96
-10.61
-11.68
-12.42
-13.16
-14.24
-15.95
-18.42
-21.58
-25.16
-28.74
-31.92
-34.46
-36.43
-38.16
-40.19
-42.93
-46.60
-51.02
-55.67
-60.00
-63.58
-66.38
-68.80
-71.58
-75.58
-81.46
-89.32
-98.27
-106.34
-110.65
-108.17
-96.66
-75.62
-46.62
-13.04
20.91
51.34
75.56
92.46
102.23
105.93
104.90
100.48
93.91
86.28
78.54
71.38
65.16
59.86
55.24
50.97
46.85
42.93
39.44
36.76
35.17
34.71
35.10
35.77
36.00
35.15
32.85
29.11
24.31
19.04
13.88
9.22
5.15
1.53
-1.90
-5.36
-8.88
-12.31
-15.41
-17.97
-19.87
-21.16
-22.04
-22.80
-23.75
-25.16
-27.12
-29.48
-31.88
-33.94
-35.41
-36.35
-37.20
-38.49
-40.70
-43.94
-47.88
-51.95
-55.57
-58.41
-60.54
-62.45
-64.80
-68.31
-73.52
-80.48
-88.42
-95.66
-99.66
-97.56
-87.13
-67.56
-40.03
-7.53
25.95
56.54
81.42
99.24
109.96
114.32
113.36
108.15
99.78
89.48
78.58
68.30
59.49
52.41
46.79
42.13
38.00
34.36
31.54
30.04
30.14
31.74
34.19
36.59
38.05
37.97
36.23
33.09
29.00
24.38
19.51
14.57
9.68
5.03
0.91
-2.37
-4.54
-5.56
-5.68
-5.39
-5.33
-6.02
-7.65
-10.02
-12.61
-14.83
-16.28
-17.01
-17.46
-18.31
-20.20
-23.44
-27.92
-33.12
-38.31
-42.72
-45.82
-47.57
-48.57
-50.18
-54.16
-62.20
-75.08
-91.92
-109.99
-125.16
-133.06
-130.50
-116.48
-92.60
-62.28
-29.73
1.35
28.43
50.28
66.55
77.39
83.15
84.43
82.19
77.70
72.35
67.23
62.86
59.15
55.67
51.99
47.99
43.96
40.40
37.80
36.34
35.87
36.00
36.23
36.16
35.53
34.17
32.02
29.08
25.44
21.33
17.06
12.98
9.27
5.95
2.92
0.01
-2.86
-5.63
-8.21
-10.52
-12.61
-14.64
-16.83
-19.35
-22.29
-25.64
-29.22
-32.78
-36.01
-38.68
-40.75
-42.46
-44.28
-46.71
-50.07
-54.28
-58.88
-63.21
-66.70
-69.09
-70.60
-71.82
-73.62
-76.87
-82.23
-89.82
-98.83
-107.31
-112.34
-110.65
-99.73
-78.76
-49.26
-14.79
19.95
50.58
74.11
89.47
97.24
99.00
96.55
91.40
84.72
77.43
70.33
64.11
59.18
55.59
52.98
50.83
48.66
46.37
44.22
42.67
42.12
42.62
43.79
44.97
45.43
44.66
42.53
39.26
35.30
31.13
27.10
23.37
19.90
16.59
13.33
10.14
7.10
4.35
1.96
-0.13
-2.13
-4.31
-6.92
-10.00
-13.36
-16.69
-19.69
-22.30
-24.72
-27.38
-30.68
-34.83
-39.69
-44.84
-49.72
-53.89
-57.12
-59.57
-61.65
-64.07
-67.55
-72.63
-79.35
-86.84
-93.23
-95.88
-92.11
-80.11
-59.77
-32.93
-2.96
26.22
51.30
70.28
82.67
89.11
90.85
89.19
85.25
79.97
74.11
68.28
62.86
57.94
53.42
49.11
44.93
40.98
37.49
34.78
33.07
32.41
32.62
33.34
34.08
34.26
33.40
31.24
27.84
23.61
19.15
15.02
11.51
8.56
5.81
2.90
-0.32
-3.69
-6.85
-9.43
-11.27
-12.51
-13.48
-14.64
-16.33
-18.72
-21.74
-25.15
-28.55
-31.59
-34.07
-36.04
-37.83
-39.92
-42.71
-46.33
-50.59
-54.99
-58.96
-62.15
-64.53
-66.51
-68.82
-72.31
-77.58
-84.59
-92.26
-98.44
-100.32
-95.18
-81.44
-59.30
-30.89
0.27
30.37
56.28
76.17
89.59
97.11
99.82
98.98
95.80
91.39
86.62
82.10
78.13
74.71
71.73
69.08
66.74
64.83
63.51
62.83
62.79
63.24
63.96
64.73
65.30
65.48
65.11
64.08
62.23
59.28
54.85
48.48
39.84
28.96
16.38
3.13
-9.45
-20.16
-28.19
-33.38
-36.26
-37.79
-39.05
-40.96
-43.98
-48.09
-52.83
-57.57
-61.76
-65.08
-67.56
-69.40
-70.82
-71.89
-72.49
-72.52
-72.03
-71.36
-71.19
-72.34
-75.50
-80.96
-88.27
-96.09
-102.21
-103.95
-98.88
-85.57
-64.25
-36.93
-6.90
22.15
47.15
66.22
78.89
85.68
87.63
85.91
81.59
75.64
68.96
62.37
56.42
51.39
47.19
43.62
40.44
37.56
35.08
33.15
31.89
31.23
30.98
30.81
30.40
29.44
27.77
25.37
22.32
18.82
15.16
11.62
8.40
5.58
3.11
0.81
-1.55
-4.11
-6.87
-9.69
-12.27
-14.37
-15.93
-17.13
-18.40
-20.18
-22.70
-25.88
-29.33
-32.54
-35.20
-37.33
-39.30
-41.65
-44.80
-48.80
-53.33
-57.77
-61.49
-64.07
-65.47
-66.07
-66.51
-67.54
-69.71
-73.13
-77.19
-80.45
-80.78
-75.89
-64.03
-44.77
-19.40
9.33
37.81
62.73
81.81
94.30
100.75
102.53
101.14
97.78
93.16
87.57
81.14
73.97
66.29
58.40
50.61
43.27
36.67
31.15
27.08
24.79
24.49
26.03
28.94
32.41
35.55
37.65
38.36
37.80
36.39
34.65
32.90
31.28
29.66
27.88
25.87
23.68
21.51
19.53
17.83
16.39
15.21
14.32
13.84
13.94
14.70
16.06
17.76
19.48
20.93
21.96
22.57
22.81
22.66
21.87
20.01
16.57
11.26
4.15
-4.29
-13.45
-22.84
-32.34
-42.30
-53.18
-65.31
-78.60
-92.53
-106.37
-119.49
-131.54
-142.39
-151.83
-159.29
-163.81
-164.34
-160.10
-151.09
-138.15
-122.79
-106.79
-91.76
-78.78
-68.46
-60.93
-55.95
-52.91
-50.80
-48.27
-43.79
-36.06
-24.37
-8.97
8.95
27.60
45.03
59.76
71.11
79.16
84.56
88.06
90.20
91.23
91.18
90.08
88.05
85.33
82.11
78.52
74.53
70.07
65.18
60.03
54.96
50.36
46.47
43.26
40.48
37.71
34.61
31.14
27.54
24.22
21.49
19.26
17.05
14.16
10.04
4.54
-2.01
-9.00
-15.83
-22.20
-28.16
-34.06
-40.30
-47.29
-55.31
-64.51
-74.71
-85.17
-94.39
-100.16
-100.05
-92.16
-75.89
-52.41
-24.48
4.22
30.11
50.57
64.39
71.76
73.77
71.82
67.24
61.04
54.00
46.70
39.66
33.34
28.08
24.04
21.21
19.45
18.60
18.56
19.34
20.95
23.29
26.10
28.90
31.10
32.19
31.88
30.24
27.65
24.66
21.72
19.06
16.60
14.06
11.17
7.70
3.71
-0.61
-4.92
-8.88
-12.22
-14.79
-16.66
-18.06
-19.36
-21.01
-23.37
-26.54
-30.37
-34.43
-38.19
-41.30
-43.68
-45.65
-47.76
-50.53
-54.15
-58.43
-62.89
-67.01
-70.57
-73.69
-76.88
-80.73
-85.80
-92.39
-100.31
-108.73
-115.90
-119.26
-115.88
-103.35
-80.76
-49.40
-12.66
24.75
58.20
84.29
101.61
110.59
112.95
110.75
105.89
99.71
93.11
86.62
80.62
75.28
70.65
66.60
62.82
59.07
55.24
51.47
48.10
45.53
44.06
43.64
43.89
44.17
43.78
42.21
39.30
35.27
30.56
25.79
21.43
17.79
14.91
12.61
10.57
8.46
6.06
3.26
0.17
-2.98
-5.83
-8.03
-9.35
-9.77
-9.61
-9.46
-9.99
-11.66
-14.49
-17.94
-21.14
-23.25
-23.75
-22.79
-21.14
-20.07
-21.01
-25.08
-32.73
-43.23
-54.58
-63.67
-67.02
-61.84
-47.00
-23.54
5.52
36.17
64.51
87.75
104.65
115.24
120.43
121.39
119.21
114.77
108.81
101.92
94.66
87.46
80.69
74.63
69.53
65.59
63.05
62.04
62.44
63.79
65.07
64.90
61.74
54.40
42.46
26.46
7.85
-11.54
-29.97
-46.37
-60.56
-73.17
-85.32
-98.08
-112.03
-127.04
-142.21
-156.15
-167.41
-174.89
-178.13
-177.37
-173.37
-167.06
-159.29
-150.51
-140.83
-130.21
-118.69
-106.58
-94.58
-83.61
-74.55
-67.98
-63.98
-62.07
-61.48
-61.29
-60.82
-59.77
-58.33
-57.11
-56.98
-58.82
-63.16
-69.73
-77.10
-82.58
-82.72
-74.21
-55.12
-25.82
10.80
50.05
86.81
116.90
138.03
149.92
153.83
151.72
145.61
137.21
127.93
118.84
110.72
103.92
98.32
93.41
88.45
82.87
76.53
69.80
63.44
58.23
54.72
52.94
52.45
52.45
52.10
50.72
48.02
44.08
39.29
34.19
29.25
24.77
20.80
17.19
13.70
10.05
6.14
2.03
-2.00
-5.60
-8.45
-10.42
-11.71
-12.71
-13.93
-15.74
-18.18
-21.00
-23.74
-26.00
-27.60
-28.71
-29.78
-31.37
-33.94
-37.65
-42.31
-47.36
-52.18
-56.22
-59.32
-61.69
-63.92
-66.80
-71.05
-77.07
-84.52
-92.17
-97.84
-98.81
-92.51
-77.49
-54.10
-24.62
7.16
37.13
61.91
79.64
90.09
94.20
93.43
89.21
82.74
75.01
66.88
59.15
52.41
46.95
42.66
39.15
36.00
33.00
30.27
28.24
27.34
27.77
29.26
31.10
32.38
32.37
30.79
27.93
24.45
21.09
18.29
16.09
14.13
11.96
9.24
5.91
2.23
-1.44
-4.78
-7.64
-10.07
-12.23
-14.36
-16.62
-19.07
-21.70
-24.36
-26.91
-29.22
-31.31
-33.35
-35.65
-38.54
-42.20
-46.56
-51.24
-55.68
-59.38
-62.16
-64.18
-66.13
-68.92
-73.43
-80.01
-88.05
-95.77
-100.37
-98.75
-88.56
-69.07
-41.76
-9.94
22.12
50.51
72.58
87.35
95.31
97.76
96.29
92.35
87.17
81.67
76.53
72.02
68.03
64.19
60.03
55.27
49.95
44.51
39.55
35.70
33.29
32.37
32.62
33.50
34.36
34.62
33.87
31.99
29.10
25.52
21.66
17.90
14.47
11.42
8.60
5.80
2.85
-0.28
-3.40
-6.24
-8.55
-10.22
-11.35
-12.25
-13.37
-15.11
-17.69
-21.07
-24.93
-28.74
-32.01
-34.36
-35.80
-36.66
-37.53
-39.08
-41.73
-45.51
-50.05
-54.73
-58.88
-62.14
-64.55
-66.58
-69.04
-72.79
-78.42
-85.85
-94.07
-101.02
-103.94
-100.07
-87.50
-66.01
-37.31
-4.80
27.40
55.50
76.97
90.91
97.85
99.24
96.78
91.93
85.78
79.08
72.40
66.18
60.74
56.13
52.17
48.50
44.87
41.26
37.96
35.44
34.09
33.97
34.75
35.73
36.14
35.36
33.08
29.43
24.83
19.77
14.80
10.32
6.57
3.60
1.27
-0.80
-3.15
-6.33
-10.69
-16.17
-22.29
-28.29
-33.44
-37.41
-40.31
-42.65
-44.98
-47.67
-50.68
-53.69
-56.25
-58.05
-59.01
-59.35
-59.51
-60.10
-61.76
-65.06
-70.16
-76.52
-82.67
-86.26
-84.55
-75.27
-57.50
-32.20
-2.13
28.95
57.34
80.36
96.77
106.63
110.81
110.39
106.32
99.38
90.27
79.74
68.54
57.35
46.73
37.02
28.47
21.24
15.53
11.55
9.51
9.55
11.60
15.30
19.99
24.79
28.87
31.61
32.74
32.40
31.03
29.19
27.50
26.47
26.40
27.16
28.13
28.18
26.03
20.68
11.82
0.12
-12.99
-25.73
-36.58
-44.70
-50.01
-52.96
-54.16
-54.09
-52.96
-50.77
-47.57
-43.61
-39.46
-35.90
-33.70
-33.37
-34.97
-38.13
-42.22
-46.63
-51.02
-55.41
-60.14
-65.72
-72.67
-81.29
-91.42
-102.15
-111.58
-116.91
-115.02
-103.38
-81.18
-49.91
-13.24
23.94
56.90
82.36
99.10
107.77
110.08
108.05
103.43
97.49
91.17
85.22
80.09
75.93
72.39
68.81
64.44
58.93
52.47
45.88
40.23
36.42
34.86
35.28
36.91
38.82
40.16
40.46
39.69
38.13
36.21
34.19
32.04
29.37
25.60
20.21
13.08
4.62
-4.31
-12.68
-19.70
-25.02
-28.89
-31.95
-34.91
-38.21
-41.86
-45.51
-48.70
-51.22
-53.28
-55.46
-58.50
-62.87
-68.58
-75.10
-81.66
-87.55
-92.42
-96.41
-100.12
-104.32
-109.83
-117.24
-126.60
-137.07
-146.49
-151.50
-147.98
-132.34
-102.83
-60.64
-10.02
42.71
90.81
128.92
154.23
166.69
168.43
162.59
152.36
140.33
128.33
117.44
108.16
100.39
93.42
86.05
76.97
65.39
51.61
37.27
24.89
16.94
14.75
17.88
24.22
30.91
35.55
37.01
35.66
32.77
29.64
26.93
24.49
21.71
18.02
13.27
7.75
2.02
-3.50
-8.61
-13.33
-17.81
-22.16
-26.48
-30.87
-35.53
-40.65
-46.32
-52.44
-58.60
-64.23
-68.68
-71.61
-73.08
-73.72
-74.50
-76.50
-80.44
-86.39
-93.71
-101.20
-107.57
-111.91
-113.99
-114.36
-114.01
-113.93
-114.50
-115.05
-113.80
-108.28
-96.13
-75.91
-47.83
-13.84
22.77
58.22
89.13
113.16
129.33
137.87
139.93
137.15
131.29
124.00
116.58
109.85
104.08
99.08
94.36
89.40
83.85
77.67
71.23
65.07
59.78
55.72
52.90
50.95
49.20
46.90
43.49
38.69
32.64
25.79
18.76
12.14
6.31
1.43
-2.59
-6.08
-9.41
-12.90
-16.65
-20.46
-24.01
-26.92
-29.01
-30.39
-31.39
-32.39
-33.66
-35.20
-36.76
-38.00
-38.71
-38.95
-39.07
-39.58
-40.94
-43.33
-46.58
-50.17
-53.46
-55.91
-57.30
-57.84
-58.15
-59.03
-61.28
-65.37
-71.10
-77.40
-82.37
-83.54
-78.58
-66.11
-46.29
-20.97
6.70
33.20
55.46
71.64
81.24
84.93
84.09
80.26
74.84
68.82
62.83
57.21
52.09
47.53
43.54
40.11
37.14
34.53
32.24
30.38
29.16
28.82
29.43
30.64
31.88
32.46
31.81
29.75
26.50
22.54
18.40
14.47
10.85
7.47
4.18
0.81
-2.62
-5.99
-9.07
-11.64
-13.60
-15.02
-16.15
-17.28
-18.69
-20.45
-22.47
-24.51
-26.36
-27.89
-29.25
-30.72
-32.66
-35.33
-38.70
-42.53
-46.36
-49.72
-52.28
-54.04
-55.37
-56.96
-59.61
-64.00
-70.24
-77.63
-84.44
-88.15
-86.04
-76.13
-57.91
-32.78
-3.76
25.34
50.93
70.58
83.34
89.57
90.49
87.58
82.31
75.89
69.33
63.36
58.39
54.46
51.25
48.30
45.21
41.86
38.42
35.33
33.02
31.71
31.32
31.51
31.81
31.78
31.13
29.71
27.54
24.70
21.39
17.80
14.18
10.76
7.69
5.06
2.86
1.01
-0.59
-2.05
-3.47
-4.93
-6.50
-8.23
-10.08
-12.01
-13.90
-15.64
-17.14
-18.42
-19.61
-20.90
-22.44
-24.24
-26.19
-28.11
-29.89
-31.59
-33.47
-35.85
-38.92
-42.65
-46.68
-50.54
-53.79
-56.20
-57.88
-59.29
-61.15
-64.19
-68.80
-74.74
-80.85
-85.18
-85.33
-79.13
-65.37
-44.29
-17.78
11.06
38.69
62.05
79.18
89.49
93.59
92.83
88.75
82.80
76.05
69.23
62.82
57.03
51.91
47.34
43.17
39.34
35.90
33.03
30.93
29.74
29.45
29.90
30.74
31.53
31.75
31.01
29.11
26.17
22.54
18.66
14.85
11.24
7.71
4.09
0.33
-3.43
-6.92
-9.83
-12.05
-13.72
-15.14
-16.70
-18.60
-20.82
-23.10
-25.11
-26.71
-27.97
-29.31
-31.30
-34.37
-38.65
-43.82
-49.24
-54.12
-57.91
-60.38
-61.81
-62.76
-63.98
-66.17
-69.71
-74.38
-79.14
-82.10
-80.87
-73.19
-57.89
-35.45
-8.16
20.44
46.60
67.39
81.35
88.57
90.22
87.87
83.05
76.89
70.19
63.52
57.28
51.72
46.91
42.73
38.96
35.37
31.81
28.37
25.36
23.19
22.20
22.43
23.56
24.91
25.74
25.51
24.02
21.48
18.30
14.96
11.77
8.87
6.24
3.77
1.36
-1.04
-3.39
-5.57
-7.45
-9.01
-10.33
-11.59
-13.00
-14.77
-16.96
-19.54
-22.38
-25.31
-28.11
-30.62
-32.72
-34.49
-36.16
-38.10
-40.59
-43.70
-47.17
-50.55
-53.36
-55.32
-56.49
-57.32
-58.50
-60.85
-65.02
-71.13
-78.45
-85.17
-88.66
-86.13
-75.56
-56.59
-30.85
-1.54
27.41
52.52
71.53
83.68
89.50
90.29
87.57
82.77
77.01
71.02
65.24
59.85
54.85
50.18
45.77
41.62
37.75
34.28
31.32
29.07
27.70
27.29
27.70
28.58
29.31
29.27
28.08
25.68
22.42
18.79
15.26
12.11
9.33
6.75
4.14
1.40
-1.46
-4.32
-6.98
-9.32
-11.22
-12.64
-13.63
-14.30
-14.88
-15.64
-16.90
-18.80
-21.28
-24.03
-26.59
-28.58
-29.87
-30.68
-31.47
-32.75
-34.87
-37.84
-41.35
-44.88
-47.89
-50.04
-51.37
-52.34
-53.73
-56.42
-60.96
-67.22
-74.07
-79.50
-80.95
-76.14
-63.81
-44.19
-19.19
8.20
34.59
57.10
73.86
84.25
88.71
88.36
84.55
78.64
71.76
64.73
58.12
52.21
47.03
42.47
38.37
34.59
31.12
28.08
25.76
24.44
24.26
25.14
26.66
28.20
29.15
29.02
27.64
25.18
22.06
18.80
15.80
13.26
11.13
9.19
7.24
5.25
3.33
1.75
0.69
0.18
0.04
-0.05
-0.35
-0.92
-1.70
-2.48
-3.16
-3.74
-4.34
-5.07
-6.00
-7.10
-8.36
-9.84
-11.72
-14.15
-17.20
-20.69
-24.14
-26.91
-28.46
-28.52
-27.37
-25.84
-25.13
-26.51
-30.86
-38.25
-47.67
-57.06
-63.70
-64.86
-58.56
-44.25
-23.00
2.56
28.95
52.65
70.90
82.27
86.69
85.29
79.87
72.44
64.73
57.96
52.63
48.60
45.31
41.99
38.10
33.50
28.54
23.93
20.39
18.40
17.85
18.10
18.11
16.77
13.30
7.49
-0.22
-8.98
-17.82
-25.99
-33.13
-39.32
-44.93
-50.37
-55.97
-61.84
-67.87
-73.72
-78.86
-82.59
-84.20
-83.11
-79.19
-72.94
-65.40
-57.86
-51.39
-46.46
-42.88
-40.03
-37.26
-34.31
-31.32
-28.66
-26.61
-25.23
-24.36
-23.86
-23.76
-24.29
-25.72
-28.08
-31.08
-34.11
-36.59
-38.22
-39.14
-39.97
-41.54
-44.55
-49.20
-54.86
-60.08
-62.84
-61.06
-53.24
-38.97
-19.12
4.37
28.96
52.14
71.82
86.66
96.14
100.42
100.24
96.73
91.13
84.64
78.16
72.26
67.07
62.48
58.24
54.07
49.82
45.57
41.56
38.20
35.82
34.59
34.37
34.73
35.11
34.98
33.97
31.91
28.86
25.05
20.83
16.59
12.72
9.40
6.60
4.11
1.62
-1.05
-3.89
-6.71
-9.23
-11.28
-12.88
-14.21
-15.55
-17.10
-18.92
-20.97
-23.05
-25.01
-26.72
-28.17
-29.55
-31.10
-33.10
-35.72
-38.89
-42.37
-45.78
-48.75
-51.04
-52.67
-53.89
-55.21
-57.24
-60.48
-65.01
-70.18
-74.64
-76.44
-73.66
-64.91
-49.92
-29.65
-6.11
18.17
40.71
59.51
73.42
82.04
85.74
85.33
81.88
76.52
70.20
63.66
57.36
51.55
46.35
41.82
37.98
34.85
32.45
30.79
29.89
29.72
30.16
30.95
31.69
31.92
31.19
29.27
26.21
22.36
18.25
14.38
11.08
8.41
6.23
4.26
2.22
-0.05
-2.59
-5.27
-7.90
-10.26
-12.23
-13.83
-15.20
-16.59
-18.25
-20.34
-22.83
-25.55
-28.22
-30.63
-32.69
-34.51
-36.37
-38.52
-41.13
-44.17
-47.45
-50.70
-53.68
-56.22
-58.32
-60.16
-62.19
-64.92
-68.77
-73.63
-78.59
-81.86
-81.17
-74.43
-60.51
-39.79
-14.16
13.45
39.82
62.23
78.95
89.39
93.95
93.72
90.10
84.46
77.96
71.43
65.34
59.90
55.10
50.85
46.94
43.22
39.62
36.25
33.35
31.22
30.05
29.77
30.04
30.31
30.06
28.99
27.05
24.48
21.54
18.50
15.49
12.56
9.74
7.04
4.46
1.94
-0.63
-3.39
-6.34
-9.43
-12.41
-14.98
-16.93
-18.19
-18.96
-19.57
-20.44
-21.85
-23.89
-26.40
-29.01
-31.39
-33.34
-34.91
-36.34
-37.93
-39.90
-42.32
-45.05
-47.90
-50.64
-53.08
-55.11
-56.69
-58.03
-59.55
-61.84
-65.35
-70.10
-75.32
-79.41
-80.20
-75.50
-63.86
-45.03
-20.33
7.58
35.31
59.57
77.95
89.40
94.22
93.77
89.81
83.95
77.36
70.68
64.27
58.28
52.90
48.19
44.11
40.53
37.29
34.33
31.77
29.86
28.84
28.72
29.21
29.72
29.63
28.46
26.11
22.82
19.07
15.32
11.87
8.82
6.13
3.67
1.36
-0.86
-3.05
-5.23
-7.43
-9.62
-11.70
-13.57
-15.25
-16.92
-18.85
-21.23
-24.03
-26.96
-29.62
-31.71
-33.31
-34.79
-36.75
-39.63
-43.53
-48.09
-52.63
-56.45
-59.07
-60.51
-61.22
-62.03
-63.85
-67.30
-72.39
-78.24
-83.07
-84.46
-79.97
-67.85
-47.84
-21.41
8.42
37.84
63.26
82.17
93.65
98.23
97.40
92.97
86.55
79.34
72.10
65.26
59.03
53.48
48.52
44.02
39.82
35.91
32.36
29.42
27.32
26.20
26.02
26.54
27.37
28.05
28.13
27.28
25.37
22.55
19.18
15.70
12.51
9.81
7.54
5.45
3.27
0.84
-1.82
-4.53
-7.13
-9.48
-11.55
-13.38
-14.97
-16.37
-17.65
-18.99
-20.61
-22.72
-25.39
-28.42
-31.48
-34.12
-36.12
-37.54
-38.78
-40.38
-42.77
-46.04
-49.88
-53.71
-56.91
-59.18
-60.54
-61.49
-62.78
-65.17
-69.17
-74.76
-81.12
-86.57
-88.78
-85.28
-74.24
-55.18
-29.32
0.52
30.59
57.21
77.69
90.82
96.87
97.21
93.64
87.86
81.18
74.42
68.06
62.33
57.30
52.91
48.99
45.32
41.77
38.36
35.33
33.07
31.90
31.94
32.95
34.35
35.38
35.32
33.75
30.67
26.50
21.85
17.27
13.11
9.48
6.28
3.40
0.81
-1.50
-3.56
-5.47
-7.37
-9.36
-11.39
-13.27
-14.81
-15.92
-16.78
-17.77
-19.30
-21.64
-24.67
-27.96
-30.87
-32.87
-33.79
-33.99
-34.24
-35.38
-37.96
-41.94
-46.70
-51.26
-54.81
-56.94
-57.85
-58.20
-58.89
-60.76
-64.39
-69.85
-76.40
-82.38
-85.24
-82.15
-70.91
-50.89
-23.59
7.66
38.61
65.34
85.27
97.63
103.10
103.16
99.41
93.17
85.43
76.94
68.42
60.49
53.69
48.29
44.20
41.14
38.72
36.63
34.78
33.35
32.59
32.63
33.27
33.93
33.79
32.11
28.53
23.30
17.09
10.81
5.19
0.59
-3.05
-5.97
-8.43
-10.67
-12.75
-14.70
-16.52
-18.17
-19.54
-20.55
-21.13
-21.43
-21.73
-22.38
-23.69
-25.66
-28.08
-30.51
-32.59
-34.14
-35.27
-36.35
-37.76
-39.84
-42.69
-46.21
-50.07
-53.86
-57.15
-59.65
-61.32
-62.43
-63.57
-65.45
-68.63
-73.19
-78.38
-82.64
-83.72
-79.35
-67.90
-49.02
-23.93
4.74
33.54
59.08
78.83
91.60
97.58
97.99
94.54
88.94
82.53
76.18
70.32
65.04
60.24
55.73
51.31
46.93
42.62
38.62
35.22
32.73
31.29
30.86
31.08
31.45
31.34
30.26
27.96
24.51
20.29
15.84
11.65
8.01
4.98
2.40
0.01
-2.42
-4.98
-7.61
-10.19
-12.54
-14.57
-16.25
-17.62
-18.76
-19.82
-20.98
-22.35
-24.03
-26.02
-28.26
-30.61
-32.91
-34.99
-36.74
-38.17
-39.45
-40.95
-43.10
-46.19
-50.25
-54.91
-59.57
-63.59
-66.57
-68.53
-69.91
-71.41
-73.77
-77.52
-82.79
-89.08
-95.17
-99.24
-99.23
-93.44
-81.11
-62.78
-40.22
-15.91
7.55
28.11
44.48
56.30
63.78
67.59
68.62
67.78
65.98
64.00
62.33
61.20
60.54
60.12
59.69
59.23
58.89
59.08
60.16
62.31
65.29
68.60
71.53
73.44
73.94
72.96
70.61
67.07
62.50
57.07
50.96
44.47
37.91
31.58
25.54
19.79
14.20
8.71
3.45
-1.33
-5.42
-8.67
-11.24
-13.50
-15.96
-18.99
-22.70
-26.87
-31.04
-34.78
-37.93
-40.68
-43.48
-46.78
-50.82
-55.47
-60.37
-65.03
-69.03
-72.17
-74.48
-76.29
-78.26
-81.19
-85.68
-91.67
-98.08
-102.75
-102.94
-96.18
-81.02
-57.59
-27.66
5.84
39.44
69.79
94.28
111.41
120.96
123.87
121.83
116.73
110.09
102.86
95.44
87.91
80.35
72.97
66.04
59.84
54.55
50.25
47.02
44.87
43.79
43.53
43.63
43.44
42.34
39.93
36.20
31.47
26.26
21.08
16.24
11.82
7.68
3.64
-0.47
-4.68
-8.88
-12.83
-16.33
-19.26
-21.65
-23.64
-25.40
-27.08
-28.72
-30.29
-31.75
-33.17
-34.68
-36.34
-38.18
-40.03
-41.69
-43.06
-44.28
-45.74
-47.97
-51.31
-55.76
-60.87
-65.93
-70.25
-73.42
-75.55
-77.19
-79.19
-82.36
-87.19
-93.53
-100.38
-105.93
-107.80
-103.56
-91.34
-70.43
-41.72
-7.66
28.19
61.93
90.21
110.82
123.12
127.85
126.61
121.38
113.96
105.68
97.41
89.60
82.44
75.94
70.03
64.55
59.43
54.74
50.63
47.44
45.46
44.78
45.21
46.23
47.05
46.89
45.19
41.81
36.93
31.03
24.66
18.31
12.32
6.89
2.13
-1.94
-5.34
-8.14
-10.46
-12.45
-14.27
-16.03
-17.78
-19.51
-21.21
-22.86
-24.54
-26.37
-28.52
-31.06
-33.91
-36.89
-39.70
-42.16
-44.29
-46.34
-48.60
-51.34
-54.65
-58.33
-62.03
-65.32
-67.89
-69.69
-70.98
-72.30
-74.37
-77.87
-83.07
-89.51
-95.80
-99.77
-98.85
-90.80
-74.50
-50.32
-20.20
12.75
44.96
73.18
95.07
109.52
116.60
117.34
113.27
106.04
97.12
87.64
78.41
69.92
62.52
56.40
51.59
48.04
45.58
44.12
43.56
43.86
44.96
46.68
48.63
50.24
50.90
50.08
47.57
43.55
38.63
33.66
29.40
26.32
24.40
23.22
22.19
20.84
19.03
17.03
15.36
14.52
14.78
16.06
17.86
19.42
19.82
18.11
13.51
5.67
-5.25
-18.42
-32.52
-46.05
-57.80
-67.18
-74.29
-79.70
-84.09
-87.92
-91.32
-94.15
-96.34
-98.03
-99.51
-101.12
-102.91
-104.45
-104.87
-103.01
-97.85
-88.91
-76.57
-62.12
-47.39
-34.23
-23.87
-16.48
-11.31
-7.15
-2.97
1.67
6.65
11.59
16.25
20.74
25.30
30.04
34.70
38.72
41.50
42.84
43.06
42.90
43.15
44.26
46.08
48.03
49.37
49.53
48.37
46.12
43.19
40.00
36.76
33.51
30.21
26.85
23.54
20.42
17.55
14.89
12.31
9.68
6.98
4.34
1.92
-0.14
-1.87
-3.46
-5.20
-7.32
-10.03
-13.28
-16.85
-20.40
-23.64
-26.38
-28.69
-30.86
-33.24
-36.11
-39.54
-43.33
-47.14
-50.60
-53.46
-55.67
-57.40
-58.97
-60.90
-63.69
-67.80
-73.17
-78.98
-83.55
-84.53
-79.62
-67.34
-47.72
-22.44
5.57
32.97
56.95
75.77
88.90
96.62
99.73
99.06
95.50
89.89
83.09
75.94
69.10
62.89
57.30
52.09
47.03
42.10
37.56
33.89
31.52
30.60
30.92
31.89
32.76
32.87
31.81
29.50
26.13
22.03
17.50
12.83
8.18
3.71
-0.46
-4.25
-7.60
-10.51
-13.03
-15.25
-17.32
-19.36
-21.46
-23.66
-25.92
-28.06
-29.91
-31.33
-32.28
-32.90
-33.54
-34.58
-36.35
-38.98
-42.30
-45.90
-49.32
-52.14
-54.18
-55.65
-57.01
-58.96
-62.10
-66.65
-72.12
-77.23
-80.01
-78.26
-70.24
-55.25
-33.98
-8.46
18.51
44.01
65.63
81.87
92.18
96.88
96.80
93.11
87.04
79.73
72.07
64.64
57.78
51.60
46.19
41.58
37.84
34.98
33.04
31.98
31.67
31.88
32.23
32.27
31.51
29.63
26.55
22.50
17.89
13.25
8.99
5.27
2.08
-0.77
-3.50
-6.26
-9.09
-11.96
-14.75
-17.29
-19.49
-21.30
-22.77
-24.09
-25.43
-26.96
-28.71
-30.62
-32.54
-34.34
-35.97
-37.55
-39.27
-41.33
-43.84
-46.75
-49.83
-52.77
-55.29
-57.22
-58.69
-60.12
-62.13
-65.35
-70.03
-75.66
-80.82
-83.36
-80.89
-71.60
-54.86
-31.56
-3.95
24.96
52.10
74.93
91.84
102.19
106.22
104.88
99.57
91.83
83.13
74.55
66.70
59.76
53.61
48.06
42.94
38.22
34.01
30.54
28.07
26.82
26.84
27.92
29.56
31.09
31.80
31.21
29.17
25.88
21.78
17.35
12.97
8.79
4.83
1.04
-2.58
-6.00
-9.12
-11.90
-14.33
-16.47
-18.32
-19.83
-20.93
-21.60
-21.90
-22.05
-22.25
-22.64
-23.17
-23.66
-23.89
-23.84
-23.71
-23.92
-25.00
-27.33
-30.96
-35.61
-40.67
-45.52
-49.68
-53.02
-55.81
-58.63
-62.14
-66.77
-72.33
-77.89
-81.76
-81.84
-76.18
-63.66
-44.51
-20.24
6.61
33.21
56.99
76.09
89.54
97.21
99.64
97.91
93.37
87.37
80.94
74.64
68.55
62.49
56.25
49.82
43.42
37.36
32.03
27.68
24.40
22.20
20.92
20.24
19.73
18.83
17.04
13.97
9.55
4.01
-2.11
-8.08
-13.27
-17.35
-20.46
-23.08
-25.83
-29.10
-32.82
-36.51
-39.58
-41.65
-42.82
-43.58
-44.59
-46.32
-48.83
-51.76
-54.56
-56.78
-58.24
-59.04
-59.55
-60.30
-61.84
-64.61
-68.68
-73.49
-77.63
-78.99
-75.23
-64.64
-46.83
-23.10
3.89
30.85
54.87
74.01
87.57
95.78
99.41
99.35
96.49
91.62
85.55
78.96
72.39
66.13
60.23
54.59
49.15
44.00
39.36
35.53
32.73
30.98
30.03
29.43
28.61
27.11
24.66
21.24
17.03
12.33
7.43
2.53
-2.27
-6.97
-11.52
-15.84
-19.78
-23.16
-25.89
-28.01
-29.72
-31.27
-32.94
-34.82
-36.85
-38.79
-40.36
-41.37
-41.87
-42.13
-42.55
-43.52
-45.20
-47.47
-49.99
-52.36
-54.28
-55.70
-56.81
-58.04
-59.93
-62.92
-67.18
-72.32
-77.23
-80.09
-78.75
-71.24
-56.54
-35.05
-8.68
19.63
46.60
69.56
86.90
98.22
104.05
105.40
103.40
99.07
93.27
86.78
80.18
73.86
67.88
62.07
56.22
50.26
44.41
39.15
35.06
32.50
31.48
31.51
31.82
31.55
30.06
27.11
22.86
17.81
12.51
7.46
2.89
-1.14
-4.73
-7.97
-10.87
-13.46
-15.73
-17.77
-19.62
-21.28
-22.68
-23.69
-24.31
-24.69
-25.20
-26.17
-27.79
-29.92
-32.20
-34.10
-35.30
-35.80
-35.97
-36.39
-37.56
-39.73
-42.68
-45.89
-48.73
-50.75
-51.86
-52.38
-52.91
-54.12
-56.51
-60.18
-64.65
-68.81
-70.98
-69.22
-61.86
-48.07
-28.31
-4.39
20.89
44.56
64.17
78.28
86.66
89.89
89.08
85.31
79.56
72.58
65.00
57.35
50.10
43.55
37.86
33.03
29.01
25.81
23.48
22.08
21.59
21.82
22.39
22.82
22.67
21.67
19.74
16.98
13.58
9.79
5.87
2.08
-1.39
-4.47
-7.18
-9.72
-12.23
-14.88
-17.64
-20.41
-23.05
-25.42
-27.47
-29.13
-30.40
-31.32
-32.06
-32.88
-34.10
-35.98
-38.57
-41.63
-44.75
-47.51
-49.63
-51.19
-52.53
-54.24
-56.95
-61.02
-66.26
-71.70
-75.60
-75.78
-70.27
-58.03
-39.35
-15.95
9.50
34.13
55.56
72.29
83.78
90.26
92.45
91.33
87.88
83.09
77.72
72.35
67.24
62.47
57.88
53.32
48.67
43.97
39.48
35.57
32.59
30.69
29.72
29.26
28.76
27.73
25.87
23.13
19.65
15.69
11.56
7.57
3.95
0.82
-1.83
-4.17
-6.40
-8.69
-11.11
-13.55
-15.84
-17.80
-19.38
-20.68
-21.90
-23.33
-25.15
-27.45
-30.06
-32.70
-35.10
-37.06
-38.56
-39.81
-41.08
-42.61
-44.48
-46.57
-48.62
-50.36
-51.56
-52.22
-52.45
-52.63
-53.17
-54.53
-56.91
-60.12
-63.39
-65.36
-64.44
-59.23
-49.09
-34.43
-16.69
2.05
19.67
34.51
45.78
53.33
57.54
58.97
58.18
55.71
52.14
48.14
44.33
41.24
39.14
38.05
37.79
38.08
38.71
39.51
40.45
41.47
42.53
43.41
43.81
43.36
41.74
38.80
34.64
29.60
24.13
18.64
13.43
8.62
4.25
0.34
-3.17
-6.37
-9.45
-12.60
-15.87
-19.11
-22.10
-24.58
-26.48
-28.02
-29.57
-31.48
-33.96
-36.87
-39.88
-42.59
-44.71
-46.22
-47.33
-48.46
-50.03
-52.38
-55.58
-59.28
-62.61
-64.29
-62.77
-56.70
-45.37
-29.10
-9.35
11.58
31.16
47.32
58.91
65.82
68.73
68.67
66.65
63.39
59.39
55.01
50.59
46.39
42.64
39.36
36.53
34.01
31.80
29.97
28.74
28.28
28.61
29.53
30.57
31.15
30.73
29.03
26.13
22.38
18.24
14.12
10.24
6.57
3.03
-0.50
-4.00
-7.33
-10.36
-12.95
-15.12
-16.95
-18.61
-20.28
-22.09
-24.15
-26.38
-28.56
-30.38
-31.52
-31.89
-31.67
-31.29
-31.25
-31.92
-33.33
-35.24
-37.28
-39.09
-40.58
-41.89
-43.41
-45.56
-48.66
-52.71
-57.28
-61.34
-63.39
-61.78
-55.14
-42.95
-25.83
-5.52
15.57
35.00
50.91
62.38
69.43
72.74
73.24
71.80
69.08
65.56
61.54
57.30
53.05
48.90
44.85
40.81
36.74
32.76
29.17
26.41
24.83
24.48
25.03
25.86
26.26
25.69
23.96
21.19
17.73
13.91
10.03
6.29
2.81
-0.32
-3.11
-5.63
-8.01
-10.30
-12.47
-14.40
-15.99
-17.24
-18.33
-19.50
-20.91
-22.56
-24.23
-25.64
-26.61
-27.18
-27.60
-28.20
-29.22
-30.72
-32.62
-34.73
-36.82
-38.76
-40.40
-41.69
-42.66
-43.52
-44.63
-46.41
-49.13
-52.59
-55.96
-57.82
-56.47
-50.53
-39.39
-23.64
-4.92
14.47
32.22
46.61
56.80
62.78
65.07
64.42
61.52
57.03
51.49
45.49
39.54
34.05
29.24
25.10
21.57
18.59
16.24
14.68
14.06
14.36
15.33
16.53
17.46
17.70
16.99
15.35
12.95
10.05
6.97
3.96
1.20
-1.26
-3.43
-5.44
-7.40
-9.42
-11.52
-13.71
-15.99
-18.29
-20.51
-22.49
-24.06
-25.20
-26.04
-26.93
-28.24
-30.18
-32.70
-35.48
-38.09
-40.20
-41.70
-42.72
-43.52
-44.44
-45.80
-47.90
-50.87
-54.46
-57.87
-59.65
-58.06
-51.60
-39.70
-23.04
-3.46
16.61
34.94
50.04
61.38
69.15
73.84
75.92
75.71
73.51
69.75
64.96
59.73
54.48
49.42
44.56
39.87
35.42
31.47
28.33
26.22
25.19
25.00
25.23
25.38
25.02
23.92
22.02
19.43
16.41
13.22
10.13
7.28
4.71
2.35
0.05
-2.32
-4.80
-7.32
-9.72
-11.85
-13.70
-15.41
-17.21
-19.33
-21.83
-24.57
-27.25
-29.56
-31.34
-32.64
-33.67
-34.68
-35.86
-37.24
-38.71
-40.10
-41.25
-42.08
-42.65
-43.20
-44.09
-45.77
-48.52
-52.38
-56.83
-60.90
-63.14
-62.05
-56.46
-45.88
-30.82
-12.65
6.66
25.04
40.79
52.87
60.97
65.32
66.50
65.19
62.03
57.60
52.38
46.78
41.11
35.61
30.45
25.86
22.09
19.37
17.87
17.58
18.32
19.72
21.38
22.90
23.97
24.29
23.71
22.18
19.83
16.94
13.87
10.96
8.34
5.97
3.65
1.13
-1.70
-4.77
-7.88
-10.75
-13.17
-15.15
-16.84
-18.59
-20.69
-23.26
-26.24
-29.35
-32.25
-34.62
-36.36
-37.58
-38.59
-39.82
-41.79
-44.89
-49.21
-54.36
-59.30
-62.44
-62.04
-56.74
-46.11
-30.87
-12.67
6.36
24.23
39.50
51.41
59.78
64.76
66.70
66.07
63.47
59.59
55.11
50.53
46.11
41.86
37.67
33.49
29.39
25.68
22.75
